frequency,raw,error,smoothed,error_smoothed,equalization,parametric_eq,fixed_band_eq,equalized_raw,equalized_smoothed,target
20.00,5.35,-4.04,5.35,-4.04,4.04,3.74,0.56,9.40,9.40,9.40
20.20,5.43,-3.95,5.43,-3.96,3.96,3.68,0.58,9.39,9.39,9.39
20.40,5.50,-3.87,5.51,-3.87,3.87,3.63,0.61,9.37,9.38,9.38
20.61,5.58,-3.79,5.59,-3.78,3.78,3.57,0.63,9.36,9.37,9.37
20.81,5.66,-3.68,5.66,-3.69,3.69,3.50,0.65,9.36,9.35,9.35
21.02,5.74,-3.59,5.74,-3.60,3.60,3.44,0.67,9.35,9.35,9.34
21.23,5.81,-3.51,5.82,-3.51,3.52,3.38,0.70,9.33,9.34,9.33
21.44,5.89,-3.44,5.90,-3.43,3.43,3.31,0.72,9.33,9.33,9.34
21.66,5.97,-3.35,5.97,-3.35,3.34,3.24,0.74,9.32,9.32,9.32
21.87,6.06,-3.26,6.05,-3.26,3.26,3.17,0.77,9.31,9.31,9.32
22.09,6.12,-3.17,6.13,-3.17,3.17,3.10,0.80,9.30,9.30,9.30
22.31,6.21,-3.08,6.21,-3.08,3.09,3.03,0.82,9.29,9.29,9.29
22.54,6.28,-3.00,6.28,-3.00,3.00,2.96,0.85,9.28,9.28,9.28
22.76,6.36,-2.91,6.36,-2.91,2.91,2.89,0.88,9.28,9.28,9.28
22.99,6.44,-2.82,6.44,-2.83,2.83,2.81,0.91,9.27,9.27,9.27
23.22,6.51,-2.74,6.52,-2.75,2.75,2.74,0.94,9.26,9.26,9.26
23.45,6.59,-2.67,6.60,-2.66,2.67,2.67,0.97,9.26,9.26,9.27
23.69,6.67,-2.59,6.67,-2.58,2.59,2.59,1.00,9.26,9.26,9.26
23.92,6.75,-2.49,6.75,-2.51,2.50,2.52,1.03,9.26,9.26,9.25
24.16,6.82,-2.43,6.83,-2.43,2.42,2.44,1.07,9.25,9.25,9.26
24.40,6.91,-2.35,6.91,-2.35,2.34,2.36,1.10,9.25,9.25,9.26
24.65,6.98,-2.26,6.98,-2.27,2.26,2.29,1.13,9.25,9.25,9.25
24.89,7.07,-2.18,7.06,-2.18,2.19,2.21,1.16,9.25,9.25,9.25
25.14,7.13,-2.10,7.14,-2.10,2.11,2.14,1.20,9.24,9.25,9.24
25.39,7.22,-2.02,7.21,-2.03,2.03,2.06,1.23,9.25,9.24,9.24
25.65,7.28,-1.95,7.28,-1.95,1.96,1.99,1.26,9.24,9.24,9.24
25.91,7.35,-1.89,7.36,-1.88,1.88,1.91,1.29,9.23,9.24,9.24
26.16,7.44,-1.81,7.43,-1.81,1.80,1.84,1.32,9.24,9.23,9.25
26.43,7.50,-1.74,7.51,-1.73,1.73,1.76,1.35,9.23,9.24,9.24
26.69,7.58,-1.65,7.58,-1.65,1.66,1.69,1.38,9.24,9.24,9.24
26.96,7.66,-1.57,7.66,-1.58,1.58,1.61,1.41,9.25,9.24,9.24
27.23,7.73,-1.50,7.73,-1.51,1.51,1.54,1.44,9.24,9.24,9.24
27.50,7.80,-1.43,7.80,-1.44,1.44,1.47,1.46,9.24,9.24,9.24
27.77,7.87,-1.37,7.87,-1.37,1.37,1.39,1.48,9.24,9.24,9.25
28.05,7.94,-1.29,7.94,-1.30,1.30,1.32,1.50,9.24,9.24,9.24
28.33,8.01,-1.23,8.02,-1.23,1.23,1.25,1.52,9.25,9.25,9.25
28.62,8.08,-1.17,8.09,-1.16,1.16,1.18,1.53,9.25,9.25,9.25
28.90,8.16,-1.09,8.16,-1.10,1.09,1.11,1.55,9.26,9.25,9.26
29.19,8.22,-1.03,8.23,-1.03,1.02,1.04,1.55,9.25,9.25,9.26
29.48,8.29,-0.95,8.30,-0.96,0.95,0.97,1.56,9.25,9.25,9.25
29.78,8.36,-0.88,8.36,-0.88,0.88,0.90,1.56,9.25,9.25,9.25
30.08,8.43,-0.82,8.43,-0.81,0.81,0.83,1.56,9.25,9.24,9.25
30.38,8.49,-0.74,8.49,-0.74,0.74,0.76,1.55,9.24,9.24,9.23
30.68,8.55,-0.67,8.56,-0.67,0.67,0.69,1.54,9.23,9.23,9.23
30.99,8.62,-0.60,8.62,-0.61,0.60,0.62,1.52,9.23,9.23,9.23
31.30,8.68,-0.54,8.68,-0.54,0.54,0.55,1.50,9.22,9.22,9.23
31.61,8.74,-0.47,8.74,-0.47,0.47,0.49,1.47,9.22,9.22,9.22
31.93,8.80,-0.40,8.80,-0.41,0.41,0.42,1.45,9.21,9.21,9.20
32.24,8.85,-0.35,8.85,-0.35,0.35,0.35,1.41,9.20,9.20,9.21
32.57,8.90,-0.28,8.91,-0.29,0.29,0.29,1.37,9.19,9.19,9.19
32.89,8.95,-0.23,8.96,-0.23,0.23,0.22,1.33,9.18,9.18,9.19
33.22,9.01,-0.16,9.01,-0.17,0.17,0.16,1.28,9.18,9.18,9.18
33.55,9.06,-0.11,9.06,-0.11,0.10,0.09,1.23,9.17,9.17,9.18
33.89,9.11,-0.05,9.12,-0.05,0.04,0.03,1.18,9.16,9.16,9.17
34.23,9.17,0.03,9.17,0.02,-0.02,-0.04,1.12,9.16,9.16,9.15
34.57,9.22,0.08,9.23,0.08,-0.08,-0.10,1.06,9.15,9.15,9.15
34.92,9.28,0.16,9.28,0.14,-0.14,-0.16,0.99,9.15,9.14,9.13
35.27,9.33,0.19,9.33,0.20,-0.20,-0.23,0.92,9.13,9.13,9.15
35.62,9.38,0.27,9.39,0.26,-0.26,-0.29,0.85,9.12,9.13,9.12
35.97,9.43,0.32,9.43,0.31,-0.32,-0.35,0.78,9.11,9.11,9.12
36.33,9.47,0.38,9.48,0.38,-0.38,-0.42,0.70,9.09,9.10,9.10
36.70,9.51,0.44,9.52,0.44,-0.44,-0.48,0.63,9.07,9.08,9.08
37.06,9.56,0.51,9.56,0.50,-0.50,-0.54,0.55,9.07,9.06,9.06
37.43,9.60,0.57,9.60,0.56,-0.56,-0.60,0.46,9.04,9.04,9.04
37.81,9.64,0.62,9.64,0.62,-0.62,-0.66,0.38,9.02,9.02,9.03
38.19,9.68,0.69,9.68,0.68,-0.69,-0.73,0.30,9.00,9.00,9.00
38.57,9.72,0.75,9.73,0.74,-0.75,-0.79,0.21,8.97,8.98,8.98
38.95,9.77,0.81,9.77,0.81,-0.82,-0.85,0.12,8.96,8.96,8.97
39.34,9.81,0.88,9.82,0.88,-0.88,-0.91,0.03,8.93,8.94,8.94
39.74,9.86,0.96,9.86,0.95,-0.95,-0.97,-0.06,8.92,8.91,8.91
40.14,9.90,1.02,9.90,1.02,-1.01,-1.03,-0.15,8.89,8.89,8.89
40.54,9.94,1.08,9.95,1.08,-1.07,-1.09,-0.24,8.87,8.87,8.87
40.94,9.98,1.15,9.98,1.14,-1.14,-1.15,-0.33,8.85,8.85,8.84
41.35,10.02,1.20,10.02,1.20,-1.19,-1.21,-0.43,8.83,8.83,8.83
41.76,10.05,1.26,10.06,1.25,-1.25,-1.27,-0.52,8.80,8.80,8.80
42.18,10.08,1.30,10.09,1.30,-1.31,-1.33,-0.62,8.78,8.78,8.79
42.60,10.12,1.37,10.12,1.36,-1.37,-1.39,-0.71,8.76,8.76,8.76
43.03,10.15,1.42,10.15,1.42,-1.42,-1.45,-0.81,8.73,8.73,8.74
43.46,10.18,1.49,10.18,1.48,-1.48,-1.52,-0.91,8.70,8.70,8.70
43.90,10.21,1.54,10.22,1.54,-1.54,-1.58,-1.00,8.67,8.68,8.68
44.33,10.25,1.61,10.25,1.60,-1.60,-1.64,-1.10,8.65,8.65,8.65
44.78,10.29,1.67,10.29,1.67,-1.67,-1.70,-1.20,8.63,8.63,8.63
45.23,10.33,1.73,10.33,1.73,-1.73,-1.76,-1.30,8.60,8.60,8.61
45.68,10.36,1.81,10.36,1.80,-1.80,-1.82,-1.40,8.56,8.56,8.56
46.13,10.39,1.87,10.40,1.87,-1.87,-1.88,-1.51,8.52,8.53,8.53
46.60,10.43,1.95,10.43,1.94,-1.94,-1.94,-1.61,8.49,8.49,8.49
47.06,10.46,2.01,10.47,2.01,-2.01,-2.00,-1.71,8.45,8.46,8.46
47.53,10.50,2.09,10.50,2.09,-2.09,-2.06,-1.82,8.42,8.42,8.42
48.01,10.53,2.17,10.53,2.16,-2.16,-2.12,-1.92,8.37,8.37,8.37
48.49,10.55,2.23,10.56,2.23,-2.23,-2.18,-2.02,8.32,8.33,8.33
48.97,10.58,2.31,10.58,2.30,-2.31,-2.24,-2.13,8.28,8.28,8.28
49.46,10.61,2.37,10.61,2.37,-2.38,-2.30,-2.24,8.24,8.24,8.25
49.96,10.64,2.46,10.65,2.45,-2.45,-2.36,-2.34,8.20,8.20,8.19
50.46,10.67,2.52,10.67,2.52,-2.51,-2.42,-2.45,8.16,8.16,8.16
50.96,10.70,2.59,10.70,2.58,-2.58,-2.49,-2.55,8.13,8.12,8.12
51.47,10.71,2.64,10.72,2.64,-2.64,-2.55,-2.66,8.08,8.08,8.08
51.99,10.73,2.71,10.73,2.70,-2.70,-2.61,-2.76,8.04,8.04,8.03
52.51,10.75,2.76,10.75,2.75,-2.76,-2.67,-2.87,8.00,7.99,8.00
53.03,10.76,2.80,10.77,2.81,-2.81,-2.73,-2.97,7.95,7.95,7.97
53.56,10.78,2.87,10.78,2.86,-2.87,-2.79,-3.08,7.92,7.91,7.92
54.10,10.79,2.93,10.80,2.92,-2.92,-2.85,-3.18,7.87,7.87,7.87
54.64,10.81,2.99,10.81,2.99,-2.98,-2.92,-3.28,7.84,7.83,7.83
55.18,10.82,3.04,10.82,3.04,-3.03,-2.98,-3.38,7.79,7.79,7.79
55.74,10.83,3.10,10.84,3.09,-3.09,-3.04,-3.47,7.74,7.75,7.74
56.29,10.85,3.14,10.85,3.14,-3.15,-3.10,-3.57,7.71,7.71,7.72
56.86,10.87,3.20,10.87,3.20,-3.20,-3.17,-3.66,7.67,7.67,7.68
57.42,10.89,3.27,10.89,3.26,-3.26,-3.23,-3.75,7.64,7.64,7.63
58.00,10.91,3.33,10.91,3.32,-3.32,-3.29,-3.83,7.60,7.60,7.59
58.58,10.93,3.38,10.93,3.38,-3.38,-3.35,-3.91,7.56,7.56,7.56
59.16,10.95,3.43,10.95,3.43,-3.44,-3.42,-3.99,7.52,7.52,7.53
59.76,10.97,3.50,10.97,3.50,-3.50,-3.48,-4.07,7.47,7.47,7.48
60.35,10.99,3.57,10.99,3.57,-3.57,-3.54,-4.14,7.42,7.42,7.43
60.96,11.01,3.65,11.01,3.64,-3.64,-3.60,-4.20,7.37,7.37,7.37
61.57,11.02,3.72,11.03,3.72,-3.72,-3.67,-4.26,7.31,7.31,7.31
62.18,11.04,3.80,11.04,3.79,-3.79,-3.73,-4.32,7.25,7.25,7.25
62.80,11.05,3.87,11.06,3.87,-3.87,-3.79,-4.37,7.19,7.19,7.19
63.43,11.08,3.95,11.08,3.94,-3.94,-3.86,-4.42,7.14,7.14,7.14
64.07,11.10,4.02,11.10,4.02,-4.02,-3.92,-4.46,7.09,7.09,7.09
64.71,11.12,4.09,11.13,4.09,-4.09,-3.98,-4.50,7.03,7.04,7.04
65.35,11.14,4.17,11.14,4.16,-4.16,-4.05,-4.53,6.98,6.98,6.98
66.01,11.16,4.24,11.16,4.23,-4.23,-4.11,-4.56,6.93,6.93,6.93
66.67,11.17,4.29,11.18,4.30,-4.30,-4.17,-4.59,6.87,6.88,6.89
67.33,11.19,4.38,11.19,4.37,-4.37,-4.24,-4.62,6.83,6.83,6.82
68.01,11.20,4.44,11.20,4.43,-4.43,-4.30,-4.64,6.77,6.77,6.77
68.69,11.21,4.50,11.21,4.50,-4.50,-4.36,-4.66,6.72,6.72,6.72
69.37,11.21,4.55,11.22,4.55,-4.56,-4.43,-4.67,6.66,6.66,6.67
70.07,11.22,4.62,11.22,4.62,-4.62,-4.49,-4.69,6.61,6.60,6.61
70.77,11.22,4.69,11.22,4.68,-4.68,-4.56,-4.70,6.55,6.55,6.54
71.48,11.22,4.74,11.22,4.74,-4.73,-4.62,-4.72,6.49,6.49,6.49
72.19,11.21,4.79,11.21,4.79,-4.79,-4.68,-4.73,6.43,6.43,6.43
72.91,11.20,4.85,11.20,4.84,-4.84,-4.75,-4.74,6.36,6.36,6.36
73.64,11.19,4.89,11.20,4.89,-4.89,-4.81,-4.75,6.30,6.30,6.31
74.38,11.19,4.95,11.19,4.94,-4.95,-4.87,-4.77,6.25,6.25,6.25
75.12,11.19,5.00,11.19,5.00,-5.00,-4.94,-4.78,6.20,6.19,6.20
75.87,11.19,5.05,11.19,5.05,-5.05,-5.00,-4.80,6.15,6.15,6.15
76.63,11.19,5.11,11.19,5.10,-5.10,-5.06,-4.82,6.09,6.09,6.09
77.40,11.19,5.15,11.19,5.15,-5.15,-5.12,-4.84,6.04,6.04,6.05
78.17,11.19,5.21,11.19,5.20,-5.20,-5.19,-4.86,5.99,5.99,5.99
78.95,11.19,5.25,11.19,5.25,-5.25,-5.25,-4.88,5.95,5.95,5.95
79.74,11.19,5.30,11.19,5.30,-5.30,-5.31,-4.91,5.90,5.90,5.90
80.54,11.19,5.35,11.19,5.35,-5.35,-5.37,-4.94,5.85,5.85,5.85
81.35,11.19,5.41,11.19,5.40,-5.40,-5.44,-4.97,5.80,5.80,5.79
82.16,11.19,5.44,11.19,5.44,-5.45,-5.50,-5.01,5.75,5.75,5.76
82.98,11.19,5.50,11.19,5.49,-5.50,-5.56,-5.05,5.70,5.70,5.70
83.81,11.19,5.55,11.19,5.55,-5.55,-5.62,-5.09,5.64,5.64,5.65
84.65,11.19,5.61,11.19,5.61,-5.60,-5.68,-5.14,5.59,5.59,5.59
85.50,11.19,5.67,11.19,5.66,-5.66,-5.74,-5.19,5.54,5.54,5.53
86.35,11.19,5.72,11.19,5.72,-5.71,-5.81,-5.24,5.48,5.48,5.48
87.22,11.19,5.77,11.19,5.77,-5.77,-5.87,-5.30,5.42,5.42,5.43
88.09,11.19,5.83,11.19,5.82,-5.83,-5.93,-5.36,5.37,5.37,5.37
88.97,11.19,5.89,11.19,5.88,-5.88,-5.99,-5.43,5.31,5.31,5.31
89.86,11.19,5.94,11.19,5.94,-5.94,-6.05,-5.50,5.25,5.25,5.26
90.76,11.19,6.00,11.19,6.00,-6.00,-6.11,-5.57,5.20,5.20,5.20
91.66,11.19,6.07,11.19,6.06,-6.05,-6.16,-5.65,5.14,5.14,5.13
92.58,11.19,6.12,11.19,6.11,-6.11,-6.22,-5.73,5.08,5.08,5.08
93.51,11.19,6.17,11.19,6.17,-6.17,-6.28,-5.82,5.02,5.02,5.03
94.44,11.19,6.23,11.19,6.23,-6.24,-6.34,-5.91,4.96,4.96,4.97
95.39,11.19,6.30,11.19,6.29,-6.30,-6.40,-6.00,4.89,4.89,4.90
96.34,11.19,6.37,11.19,6.36,-6.36,-6.45,-6.10,4.83,4.83,4.83
97.30,11.19,6.43,11.19,6.43,-6.43,-6.51,-6.20,4.77,4.77,4.77
98.28,11.19,6.50,11.19,6.49,-6.49,-6.57,-6.30,4.71,4.71,4.70
99.26,11.19,6.56,11.19,6.56,-6.55,-6.62,-6.41,4.64,4.64,4.64
100.25,11.19,6.62,11.19,6.61,-6.61,-6.68,-6.52,4.58,4.58,4.58
101.25,11.19,6.67,11.19,6.67,-6.67,-6.73,-6.63,4.52,4.52,4.53
102.27,11.19,6.73,11.19,6.73,-6.73,-6.79,-6.75,4.47,4.47,4.47
103.29,11.19,6.79,11.19,6.78,-6.78,-6.84,-6.87,4.41,4.41,4.41
104.32,11.19,6.84,11.19,6.84,-6.84,-6.90,-6.98,4.36,4.36,4.36
105.37,11.19,6.90,11.19,6.89,-6.89,-6.95,-7.10,4.30,4.30,4.30
106.42,11.19,6.95,11.19,6.95,-6.95,-7.00,-7.22,4.25,4.25,4.25
107.48,11.19,7.01,11.19,7.00,-7.00,-7.06,-7.34,4.19,4.19,4.19
108.56,11.19,7.06,11.19,7.06,-7.06,-7.11,-7.46,4.14,4.14,4.14
109.64,11.19,7.12,11.19,7.12,-7.11,-7.16,-7.58,4.08,4.08,4.08
110.74,11.19,7.18,11.19,7.17,-7.17,-7.21,-7.69,4.02,4.02,4.02
111.85,11.19,7.24,11.19,7.23,-7.24,-7.26,-7.80,3.96,3.96,3.96
112.97,11.19,7.29,11.19,7.29,-7.30,-7.31,-7.91,3.89,3.89,3.91
114.10,11.19,7.35,11.20,7.36,-7.37,-7.36,-8.01,3.83,3.83,3.85
115.24,11.20,7.44,11.20,7.42,-7.43,-7.41,-8.11,3.77,3.77,3.77
116.39,11.20,7.50,11.21,7.50,-7.50,-7.46,-8.20,3.71,3.71,3.71
117.55,11.21,7.57,11.21,7.57,-7.56,-7.50,-8.29,3.66,3.66,3.65
118.73,11.22,7.64,11.22,7.62,-7.62,-7.55,-8.37,3.61,3.60,3.59
119.92,11.21,7.67,11.22,7.68,-7.67,-7.60,-8.44,3.55,3.55,3.55
121.12,11.21,7.72,11.21,7.72,-7.72,-7.64,-8.50,3.50,3.50,3.50
122.33,11.20,7.77,11.20,7.76,-7.76,-7.69,-8.55,3.45,3.45,3.44
123.55,11.18,7.80,11.18,7.79,-7.79,-7.73,-8.60,3.39,3.39,3.39
124.79,11.15,7.82,11.15,7.82,-7.82,-7.77,-8.63,3.33,3.33,3.34
126.03,11.11,7.84,11.12,7.84,-7.85,-7.82,-8.65,3.27,3.28,3.28
127.29,11.09,7.87,11.09,7.87,-7.87,-7.86,-8.67,3.22,3.22,3.23
128.57,11.06,7.91,11.06,7.89,-7.89,-7.90,-8.67,3.17,3.16,3.16
129.85,11.02,7.92,11.03,7.92,-7.92,-7.94,-8.67,3.11,3.11,3.11
131.15,10.98,7.94,10.99,7.94,-7.94,-7.98,-8.66,3.05,3.05,3.05
132.46,10.96,7.97,10.96,7.96,-7.96,-8.02,-8.64,3.00,3.00,3.00
133.79,10.93,8.00,10.93,7.99,-7.99,-8.06,-8.61,2.95,2.94,2.94
135.12,10.89,8.01,10.90,8.01,-8.02,-8.10,-8.58,2.88,2.89,2.89
136.48,10.88,8.05,10.88,8.04,-8.05,-8.14,-8.54,2.83,2.83,2.84
137.84,10.86,8.08,10.86,8.08,-8.09,-8.17,-8.49,2.77,2.77,2.79
139.22,10.85,8.13,10.86,8.13,-8.14,-8.21,-8.44,2.72,2.72,2.73
140.61,10.86,8.18,10.86,8.18,-8.19,-8.24,-8.39,2.68,2.67,2.69
142.02,10.87,8.25,10.87,8.24,-8.24,-8.28,-8.33,2.64,2.64,2.63
143.44,10.88,8.30,10.89,8.30,-8.29,-8.31,-8.27,2.60,2.60,2.59
144.87,10.89,8.35,10.89,8.34,-8.33,-8.34,-8.22,2.56,2.55,2.55
146.32,10.88,8.39,10.88,8.38,-8.37,-8.38,-8.16,2.51,2.51,2.50
147.78,10.86,8.41,10.87,8.42,-8.41,-8.41,-8.10,2.46,2.46,2.46
149.26,10.85,8.45,10.85,8.44,-8.43,-8.44,-8.04,2.42,2.42,2.41
150.75,10.82,8.46,10.82,8.46,-8.45,-8.47,-7.98,2.37,2.37,2.37
152.26,10.79,8.47,10.80,8.47,-8.47,-8.50,-7.93,2.33,2.33,2.33
153.78,10.76,8.48,10.76,8.47,-8.48,-8.52,-7.88,2.29,2.28,2.29
155.32,10.72,8.48,10.73,8.48,-8.48,-8.55,-7.83,2.24,2.24,2.25
156.88,10.68,8.49,10.69,8.49,-8.49,-8.58,-7.79,2.19,2.20,2.20
158.44,10.66,8.52,10.66,8.50,-8.51,-8.60,-7.74,2.16,2.15,2.15
160.03,10.62,8.52,10.63,8.52,-8.52,-8.63,-7.71,2.10,2.11,2.11
161.63,10.60,8.54,10.60,8.54,-8.54,-8.65,-7.68,2.06,2.06,2.07
163.24,10.58,8.57,10.58,8.56,-8.57,-8.67,-7.65,2.01,2.01,2.02
164.88,10.55,8.59,10.56,8.59,-8.60,-8.70,-7.62,1.95,1.96,1.97
166.53,10.55,8.64,10.55,8.63,-8.64,-8.72,-7.61,1.92,1.92,1.92
168.19,10.55,8.67,10.55,8.67,-8.67,-8.74,-7.59,1.88,1.87,1.89
169.87,10.54,8.72,10.55,8.72,-8.71,-8.76,-7.59,1.83,1.83,1.83
171.57,10.54,8.77,10.54,8.76,-8.75,-8.78,-7.58,1.79,1.79,1.78
173.29,10.53,8.80,10.53,8.80,-8.79,-8.79,-7.59,1.75,1.74,1.74
175.02,10.51,8.83,10.51,8.82,-8.82,-8.81,-7.60,1.70,1.69,1.69
176.77,10.48,8.85,10.49,8.85,-8.84,-8.82,-7.61,1.64,1.65,1.64
178.54,10.46,8.87,10.46,8.87,-8.86,-8.84,-7.63,1.60,1.60,1.60
180.32,10.43,8.90,10.43,8.89,-8.88,-8.85,-7.66,1.55,1.55,1.54
182.13,10.40,8.90,10.40,8.90,-8.90,-8.86,-7.69,1.51,1.50,1.51
183.95,10.35,8.90,10.36,8.90,-8.91,-8.88,-7.73,1.44,1.45,1.46
185.79,10.32,8.92,10.33,8.91,-8.93,-8.89,-7.77,1.40,1.40,1.41
187.65,10.30,8.94,10.30,8.94,-8.94,-8.90,-7.82,1.36,1.36,1.37
189.52,10.28,8.96,10.29,8.96,-8.96,-8.90,-7.87,1.32,1.32,1.33
191.42,10.27,8.99,10.27,8.98,-8.98,-8.91,-7.93,1.29,1.28,1.29
193.33,10.24,9.00,10.25,9.00,-9.00,-8.92,-8.00,1.24,1.24,1.25
195.27,10.22,9.03,10.23,9.03,-9.03,-8.92,-8.07,1.20,1.20,1.20
197.22,10.20,9.06,10.20,9.05,-9.04,-8.93,-8.14,1.16,1.16,1.15
199.19,10.18,9.07,10.18,9.07,-9.06,-8.93,-8.22,1.12,1.12,1.12
201.18,10.16,9.09,10.16,9.08,-9.07,-8.93,-8.30,1.09,1.09,1.08
203.19,10.13,9.09,10.13,9.08,-9.08,-8.93,-8.38,1.05,1.05,1.05
205.23,10.10,9.08,10.11,9.08,-9.09,-8.93,-8.47,1.02,1.02,1.03
207.28,10.07,9.08,10.08,9.08,-9.09,-8.93,-8.56,0.98,0.99,1.00
209.35,10.05,9.10,10.05,9.09,-9.09,-8.93,-8.66,0.96,0.96,0.96
211.44,10.02,9.10,10.02,9.09,-9.09,-8.92,-8.75,0.94,0.94,0.93
213.56,9.99,9.09,9.99,9.09,-9.08,-8.92,-8.85,0.91,0.91,0.91
215.69,9.95,9.08,9.95,9.07,-9.07,-8.91,-8.94,0.88,0.88,0.88
217.85,9.90,9.06,9.91,9.07,-9.07,-8.90,-9.04,0.84,0.85,0.85
220.03,9.87,9.06,9.87,9.05,-9.06,-8.89,-9.13,0.82,0.81,0.82
222.23,9.84,9.06,9.84,9.05,-9.05,-8.88,-9.22,0.79,0.79,0.79
224.45,9.80,9.03,9.81,9.04,-9.04,-8.87,-9.31,0.76,0.76,0.78
226.70,9.77,9.03,9.78,9.03,-9.03,-8.86,-9.39,0.74,0.75,0.75
228.96,9.75,9.02,9.75,9.02,-9.02,-8.85,-9.47,0.73,0.73,0.74
231.25,9.73,9.02,9.73,9.01,-9.01,-8.83,-9.54,0.73,0.72,0.72
233.57,9.70,9.01,9.70,9.00,-8.99,-8.82,-9.61,0.72,0.71,0.70
235.90,9.65,8.97,9.66,8.98,-8.96,-8.80,-9.66,0.69,0.69,0.69
238.26,9.61,8.96,9.61,8.94,-8.94,-8.78,-9.71,0.68,0.67,0.66
240.64,9.56,8.90,9.57,8.91,-8.91,-8.76,-9.74,0.65,0.66,0.67
243.05,9.52,8.88,9.52,8.88,-8.88,-8.74,-9.76,0.64,0.64,0.65
245.48,9.48,8.85,9.48,8.84,-8.85,-8.72,-9.78,0.63,0.63,0.64
247.93,9.43,8.81,9.44,8.81,-8.82,-8.69,-9.78,0.61,0.62,0.63
250.41,9.41,8.78,9.41,8.78,-8.79,-8.67,-9.76,0.63,0.62,0.64
252.92,9.38,8.76,9.39,8.76,-8.75,-8.64,-9.74,0.63,0.63,0.63
255.45,9.36,8.75,9.36,8.74,-8.72,-8.62,-9.70,0.64,0.64,0.62
258.00,9.32,8.71,9.32,8.70,-8.69,-8.59,-9.65,0.64,0.63,0.62
260.58,9.27,8.66,9.27,8.66,-8.65,-8.56,-9.59,0.62,0.62,0.62
263.19,9.22,8.61,9.23,8.61,-8.62,-8.53,-9.51,0.61,0.61,0.62
265.82,9.17,8.57,9.18,8.57,-8.58,-8.50,-9.43,0.59,0.60,0.61
268.48,9.15,8.55,9.15,8.54,-8.55,-8.46,-9.34,0.61,0.60,0.61
271.16,9.11,8.51,9.11,8.50,-8.51,-8.43,-9.24,0.60,0.60,0.61
273.87,9.07,8.47,9.08,8.47,-8.47,-8.39,-9.13,0.60,0.61,0.61
276.61,9.04,8.44,9.04,8.44,-8.43,-8.36,-9.01,0.61,0.60,0.61
279.38,8.99,8.41,9.00,8.40,-8.39,-8.32,-8.89,0.60,0.61,0.59
282.17,8.95,8.37,8.96,8.36,-8.35,-8.28,-8.76,0.60,0.60,0.59
284.99,8.91,8.32,8.91,8.31,-8.31,-8.24,-8.64,0.61,0.60,0.60
287.84,8.85,8.25,8.86,8.26,-8.26,-8.20,-8.50,0.59,0.60,0.61
290.72,8.80,8.21,8.80,8.20,-8.21,-8.16,-8.37,0.59,0.59,0.60
293.63,8.75,8.15,8.76,8.15,-8.16,-8.11,-8.24,0.60,0.60,0.61
296.57,8.71,8.10,8.72,8.10,-8.10,-8.07,-8.10,0.61,0.61,0.62
299.53,8.67,8.06,8.67,8.05,-8.05,-8.02,-7.97,0.63,0.63,0.62
302.53,8.63,8.00,8.63,8.00,-7.99,-7.98,-7.84,0.64,0.64,0.64
305.55,8.57,7.95,8.57,7.94,-7.93,-7.93,-7.71,0.64,0.64,0.63
308.61,8.51,7.88,8.51,7.87,-7.87,-7.88,-7.58,0.64,0.64,0.64
311.69,8.44,7.80,8.45,7.81,-7.81,-7.83,-7.45,0.63,0.64,0.65
314.81,8.39,7.75,8.40,7.74,-7.75,-7.78,-7.33,0.65,0.65,0.65
317.96,8.34,7.69,8.34,7.68,-7.68,-7.73,-7.21,0.66,0.66,0.66
321.14,8.28,7.62,8.28,7.61,-7.61,-7.67,-7.10,0.67,0.67,0.67
324.35,8.21,7.55,8.22,7.54,-7.54,-7.62,-6.99,0.67,0.68,0.67
327.59,8.15,7.46,8.16,7.47,-7.47,-7.57,-6.88,0.68,0.69,0.70
330.87,8.09,7.41,8.09,7.40,-7.40,-7.51,-6.78,0.70,0.69,0.69
334.18,8.02,7.33,8.02,7.32,-7.33,-7.45,-6.68,0.70,0.69,0.70
337.52,7.94,7.25,7.95,7.25,-7.26,-7.40,-6.58,0.69,0.70,0.70
340.90,7.89,7.18,7.89,7.18,-7.18,-7.34,-6.49,0.71,0.71,0.72
344.30,7.83,7.11,7.83,7.11,-7.11,-7.28,-6.41,0.72,0.72,0.73
347.75,7.78,7.06,7.78,7.04,-7.04,-7.22,-6.33,0.75,0.74,0.73
351.23,7.70,6.98,7.71,6.97,-6.96,-7.16,-6.26,0.74,0.74,0.73
354.74,7.63,6.88,7.63,6.89,-6.89,-7.10,-6.18,0.75,0.75,0.76
358.28,7.55,6.81,7.56,6.81,-6.81,-7.03,-6.12,0.74,0.75,0.75
361.87,7.49,6.74,7.49,6.73,-6.73,-6.97,-6.06,0.76,0.76,0.76
365.49,7.41,6.65,7.42,6.65,-6.65,-6.91,-6.00,0.77,0.77,0.77
369.14,7.34,6.56,7.34,6.56,-6.56,-6.84,-5.95,0.78,0.78,0.79
372.83,7.27,6.49,7.26,6.47,-6.47,-6.78,-5.90,0.80,0.79,0.79
376.56,7.16,6.38,7.18,6.38,-6.38,-6.71,-5.86,0.78,0.79,0.79
380.33,7.08,6.29,7.09,6.29,-6.29,-6.65,-5.82,0.79,0.80,0.80
384.13,7.01,6.20,7.01,6.20,-6.20,-6.58,-5.78,0.82,0.81,0.82
387.97,6.92,6.11,6.92,6.10,-6.10,-6.51,-5.75,0.83,0.83,0.82
391.85,6.83,6.01,6.83,6.01,-5.99,-6.44,-5.72,0.84,0.84,0.83
395.77,6.73,5.90,6.74,5.90,-5.89,-6.38,-5.70,0.84,0.85,0.84
399.73,6.64,5.80,6.64,5.79,-5.79,-6.31,-5.68,0.86,0.85,0.85
403.72,6.54,5.67,6.54,5.68,-5.68,-6.24,-5.66,0.86,0.86,0.88
407.76,6.45,5.59,6.45,5.58,-5.58,-6.17,-5.64,0.87,0.87,0.87
411.84,6.36,5.49,6.37,5.49,-5.49,-6.10,-5.63,0.88,0.88,0.88
415.96,6.29,5.40,6.29,5.40,-5.40,-6.03,-5.62,0.90,0.89,0.90
420.12,6.22,5.33,6.22,5.32,-5.32,-5.96,-5.61,0.90,0.90,0.90
424.32,6.15,5.25,6.16,5.24,-5.25,-5.89,-5.60,0.90,0.91,0.91
428.56,6.10,5.18,6.10,5.18,-5.19,-5.82,-5.59,0.91,0.91,0.93
432.85,6.06,5.13,6.06,5.13,-5.15,-5.75,-5.58,0.92,0.92,0.94
437.18,6.03,5.11,6.04,5.10,-5.10,-5.68,-5.58,0.93,0.93,0.93
441.55,6.02,5.09,6.02,5.08,-5.07,-5.61,-5.57,0.95,0.95,0.94
445.96,6.00,5.06,6.00,5.06,-5.05,-5.54,-5.56,0.96,0.96,0.95
450.42,5.99,5.04,5.99,5.04,-5.03,-5.47,-5.55,0.96,0.96,0.96
454.93,5.98,5.02,5.99,5.02,-5.02,-5.40,-5.53,0.96,0.97,0.97
459.48,5.98,5.01,5.99,5.00,-5.01,-5.33,-5.52,0.97,0.98,0.98
464.07,5.99,5.00,5.99,5.00,-5.00,-5.27,-5.50,0.99,0.99,1.00
468.71,6.00,5.00,6.00,5.00,-5.00,-5.20,-5.48,1.01,1.01,1.01
473.40,6.01,5.01,6.01,5.00,-4.99,-5.13,-5.45,1.02,1.02,1.01
478.13,6.01,5.00,6.01,5.00,-4.99,-5.07,-5.42,1.02,1.02,1.02
482.91,6.01,4.99,6.01,4.99,-4.99,-5.01,-5.39,1.03,1.03,1.03
487.74,6.01,4.98,6.02,4.98,-4.99,-4.95,-5.35,1.03,1.03,1.04
492.62,6.02,4.98,6.02,4.98,-4.98,-4.89,-5.30,1.04,1.04,1.05
497.55,6.03,4.98,6.03,4.97,-4.97,-4.83,-5.25,1.06,1.06,1.06
502.52,6.03,4.97,6.04,4.97,-4.96,-4.78,-5.20,1.07,1.07,1.07
507.55,6.03,4.95,6.04,4.95,-4.95,-4.73,-5.13,1.09,1.09,1.09
512.62,6.03,4.94,6.03,4.93,-4.93,-4.68,-5.07,1.10,1.10,1.10
517.75,6.01,4.90,6.02,4.90,-4.90,-4.64,-4.99,1.11,1.11,1.12
522.93,5.99,4.87,6.00,4.87,-4.87,-4.60,-4.92,1.12,1.13,1.13
