frequency,raw,error,smoothed,error_smoothed,equalization,parametric_eq,fixed_band_eq,equalized_raw,equalized_smoothed,target
20.00,10.12,-1.99,10.12,-2.00,2.00,1.47,0.09,12.12,12.12,12.12
20.20,10.17,-1.93,10.17,-1.93,1.93,1.43,0.09,12.11,12.11,12.11
20.40,10.22,-1.87,10.22,-1.87,1.87,1.38,0.10,12.09,12.09,12.10
20.61,10.27,-1.81,10.28,-1.81,1.81,1.33,0.10,12.08,12.08,12.08
20.81,10.32,-1.74,10.33,-1.74,1.74,1.28,0.11,12.07,12.07,12.06
21.02,10.37,-1.68,10.38,-1.68,1.68,1.23,0.11,12.05,12.06,12.05
21.23,10.43,-1.61,10.43,-1.62,1.62,1.17,0.12,12.05,12.05,12.04
21.44,10.48,-1.57,10.48,-1.56,1.56,1.12,0.12,12.04,12.04,12.05
21.66,10.53,-1.50,10.53,-1.50,1.50,1.06,0.13,12.03,12.03,12.03
21.87,10.58,-1.44,10.58,-1.44,1.44,1.01,0.13,12.02,12.02,12.03
22.09,10.63,-1.37,10.63,-1.38,1.38,0.95,0.14,12.01,12.01,12.01
22.31,10.68,-1.32,10.69,-1.32,1.32,0.90,0.15,12.00,12.01,12.01
22.54,10.73,-1.26,10.74,-1.26,1.26,0.84,0.15,11.99,12.00,12.00
22.76,10.79,-1.20,10.79,-1.20,1.20,0.78,0.16,12.00,11.99,11.99
22.99,10.84,-1.14,10.84,-1.15,1.15,0.73,0.16,11.99,11.99,11.98
23.22,10.89,-1.08,10.89,-1.09,1.09,0.68,0.17,11.98,11.98,11.97
23.45,10.94,-1.04,10.94,-1.03,1.03,0.62,0.18,11.98,11.98,11.98
23.69,10.99,-0.98,11.00,-0.98,0.98,0.57,0.18,11.97,11.97,11.97
23.92,11.04,-0.91,11.05,-0.92,0.92,0.52,0.19,11.96,11.97,11.96
24.16,11.09,-0.87,11.10,-0.87,0.87,0.47,0.20,11.96,11.96,11.97
24.40,11.15,-0.81,11.15,-0.81,0.81,0.42,0.20,11.97,11.96,11.97
24.65,11.20,-0.76,11.20,-0.76,0.76,0.37,0.21,11.96,11.96,11.96
24.89,11.25,-0.71,11.25,-0.71,0.71,0.32,0.22,11.96,11.96,11.96
25.14,11.30,-0.65,11.30,-0.65,0.65,0.27,0.22,11.96,11.95,11.95
25.39,11.35,-0.59,11.35,-0.60,0.60,0.23,0.23,11.96,11.95,11.95
25.65,11.39,-0.55,11.40,-0.55,0.55,0.18,0.23,11.94,11.95,11.95
25.91,11.44,-0.50,11.45,-0.50,0.50,0.14,0.24,11.94,11.95,11.94
26.16,11.49,-0.46,11.50,-0.45,0.45,0.09,0.24,11.94,11.95,11.95
26.43,11.54,-0.41,11.55,-0.40,0.40,0.05,0.25,11.94,11.95,11.95
26.69,11.59,-0.36,11.59,-0.35,0.35,0.01,0.25,11.95,11.95,11.95
26.96,11.64,-0.30,11.64,-0.31,0.31,-0.03,0.25,11.95,11.95,11.95
27.23,11.69,-0.25,11.69,-0.26,0.26,-0.07,0.26,11.95,11.95,11.94
27.50,11.74,-0.20,11.74,-0.21,0.21,-0.11,0.26,11.95,11.95,11.94
27.77,11.78,-0.17,11.79,-0.17,0.17,-0.15,0.26,11.95,11.95,11.95
28.05,11.83,-0.11,11.83,-0.12,0.12,-0.19,0.25,11.95,11.95,11.95
28.33,11.87,-0.08,11.88,-0.07,0.07,-0.23,0.25,11.95,11.95,11.95
28.62,11.92,-0.03,11.92,-0.03,0.03,-0.27,0.25,11.95,11.95,11.95
28.90,11.96,0.01,11.97,0.02,-0.02,-0.30,0.24,11.95,11.95,11.96
29.19,12.01,0.06,12.01,0.06,-0.06,-0.34,0.23,11.95,11.95,11.95
29.48,12.05,0.10,12.05,0.11,-0.11,-0.38,0.22,11.95,11.95,11.95
29.78,12.10,0.15,12.09,0.15,-0.15,-0.41,0.21,11.95,11.94,11.95
30.08,12.14,0.20,12.13,0.19,-0.19,-0.45,0.20,11.95,11.94,11.94
30.38,12.17,0.24,12.17,0.24,-0.24,-0.48,0.18,11.94,11.94,11.93
30.68,12.21,0.29,12.21,0.28,-0.28,-0.52,0.17,11.93,11.93,11.93
30.99,12.24,0.32,12.25,0.32,-0.32,-0.55,0.15,11.92,11.92,11.92
31.30,12.28,0.36,12.29,0.37,-0.37,-0.59,0.13,11.91,11.92,11.92
31.61,12.31,0.40,12.32,0.41,-0.41,-0.62,0.10,11.90,11.91,11.92
31.93,12.35,0.46,12.36,0.45,-0.45,-0.66,0.08,11.90,11.90,11.89
32.24,12.39,0.50,12.39,0.50,-0.50,-0.69,0.05,11.90,11.89,11.90
32.57,12.42,0.54,12.42,0.54,-0.54,-0.72,0.02,11.89,11.89,11.88
32.89,12.46,0.59,12.46,0.58,-0.58,-0.76,-0.02,11.89,11.88,11.88
33.22,12.49,0.62,12.49,0.62,-0.62,-0.79,-0.05,11.88,11.87,11.87
33.55,12.52,0.66,12.52,0.66,-0.66,-0.82,-0.09,11.87,11.86,11.87
33.89,12.55,0.70,12.55,0.70,-0.70,-0.86,-0.13,11.85,11.85,11.85
34.23,12.58,0.75,12.58,0.74,-0.74,-0.89,-0.17,11.84,11.84,11.84
34.57,12.61,0.78,12.61,0.78,-0.78,-0.92,-0.21,11.83,11.83,11.83
34.92,12.63,0.82,12.64,0.82,-0.82,-0.96,-0.25,11.81,11.82,11.81
35.27,12.66,0.84,12.67,0.86,-0.86,-0.99,-0.30,11.80,11.81,11.83
35.62,12.70,0.90,12.70,0.91,-0.91,-1.02,-0.35,11.80,11.80,11.80
35.97,12.73,0.94,12.73,0.95,-0.95,-1.06,-0.40,11.78,11.78,11.79
36.33,12.76,0.99,12.76,0.99,-0.99,-1.09,-0.45,11.77,11.77,11.78
36.70,12.79,1.04,12.79,1.04,-1.04,-1.13,-0.50,11.75,11.75,11.75
37.06,12.82,1.09,12.82,1.09,-1.09,-1.16,-0.55,11.73,11.73,11.73
37.43,12.85,1.14,12.85,1.14,-1.14,-1.19,-0.61,11.72,11.71,11.71
37.81,12.87,1.18,12.88,1.19,-1.19,-1.23,-0.66,11.69,11.69,11.69
38.19,12.90,1.24,12.91,1.24,-1.24,-1.26,-0.72,11.67,11.67,11.67
38.57,12.93,1.29,12.93,1.29,-1.29,-1.30,-0.78,11.65,11.65,11.65
38.95,12.96,1.34,12.96,1.34,-1.34,-1.33,-0.84,11.62,11.62,11.63
39.34,12.98,1.39,12.99,1.39,-1.39,-1.37,-0.90,11.59,11.60,11.60
39.74,13.01,1.45,13.01,1.44,-1.44,-1.41,-0.96,11.57,11.57,11.57
40.14,13.04,1.50,13.04,1.49,-1.49,-1.44,-1.02,11.55,11.55,11.55
40.54,13.06,1.54,13.06,1.54,-1.54,-1.48,-1.08,11.52,11.52,11.53
40.94,13.08,1.59,13.09,1.59,-1.59,-1.51,-1.15,11.50,11.50,11.49
41.35,13.10,1.63,13.11,1.63,-1.63,-1.55,-1.21,11.47,11.47,11.47
41.76,13.13,1.69,13.13,1.68,-1.68,-1.59,-1.28,11.45,11.45,11.44
42.18,13.15,1.73,13.15,1.73,-1.73,-1.63,-1.35,11.43,11.42,11.43
42.60,13.17,1.78,13.17,1.77,-1.77,-1.67,-1.42,11.40,11.40,11.39
43.03,13.19,1.82,13.18,1.81,-1.81,-1.70,-1.49,11.38,11.37,11.37
43.46,13.20,1.87,13.20,1.86,-1.86,-1.74,-1.56,11.35,11.34,11.34
43.90,13.21,1.90,13.21,1.90,-1.90,-1.78,-1.63,11.31,11.31,11.31
44.33,13.22,1.95,13.23,1.95,-1.95,-1.82,-1.70,11.28,11.28,11.28
44.78,13.23,1.98,13.24,1.99,-1.99,-1.86,-1.78,11.24,11.25,11.25
45.23,13.25,2.03,13.25,2.04,-2.04,-1.90,-1.85,11.22,11.21,11.23
45.68,13.26,2.08,13.26,2.09,-2.09,-1.94,-1.93,11.18,11.18,11.18
46.13,13.27,2.13,13.28,2.14,-2.14,-1.99,-2.01,11.14,11.14,11.14
46.60,13.29,2.19,13.29,2.19,-2.19,-2.03,-2.09,11.10,11.10,11.10
47.06,13.30,2.24,13.30,2.24,-2.24,-2.07,-2.17,11.06,11.06,11.07
47.53,13.31,2.29,13.32,2.30,-2.30,-2.11,-2.25,11.01,11.01,11.03
48.01,13.32,2.36,13.33,2.36,-2.36,-2.16,-2.33,10.96,10.97,10.97
48.49,13.33,2.41,13.34,2.42,-2.42,-2.20,-2.41,10.92,10.93,10.93
48.97,13.35,2.48,13.36,2.48,-2.48,-2.25,-2.50,10.88,10.88,10.87
49.46,13.37,2.54,13.37,2.54,-2.54,-2.29,-2.58,10.83,10.83,10.83
49.96,13.39,2.62,13.39,2.60,-2.60,-2.34,-2.67,10.79,10.79,10.77
50.46,13.40,2.67,13.40,2.66,-2.66,-2.38,-2.75,10.74,10.74,10.74
50.96,13.42,2.73,13.42,2.72,-2.72,-2.43,-2.84,10.70,10.69,10.69
51.47,13.43,2.79,13.43,2.79,-2.79,-2.48,-2.92,10.65,10.64,10.65
51.99,13.45,2.86,13.45,2.85,-2.85,-2.52,-3.01,10.60,10.60,10.59
52.51,13.46,2.91,13.46,2.91,-2.91,-2.57,-3.10,10.55,10.55,10.55
53.03,13.47,2.96,13.48,2.98,-2.98,-2.62,-3.18,10.50,10.50,10.52
53.56,13.49,3.03,13.49,3.04,-3.04,-2.67,-3.27,10.46,10.46,10.47
54.10,13.50,3.10,13.51,3.10,-3.10,-2.72,-3.35,10.40,10.41,10.41
54.64,13.52,3.16,13.53,3.16,-3.16,-2.77,-3.44,10.36,10.37,10.37
55.18,13.54,3.23,13.54,3.22,-3.22,-2.83,-3.52,10.32,10.32,10.32
55.74,13.55,3.29,13.56,3.28,-3.28,-2.88,-3.60,10.27,10.28,10.26
56.29,13.57,3.34,13.58,3.34,-3.34,-2.93,-3.68,10.23,10.23,10.23
56.86,13.59,3.41,13.59,3.41,-3.41,-2.98,-3.76,10.19,10.19,10.19
57.42,13.61,3.48,13.61,3.47,-3.47,-3.04,-3.84,10.14,10.14,10.13
58.00,13.62,3.54,13.63,3.54,-3.54,-3.09,-3.91,10.09,10.09,10.08
58.58,13.64,3.60,13.64,3.60,-3.60,-3.15,-3.98,10.04,10.04,10.05
59.16,13.65,3.65,13.65,3.66,-3.66,-3.20,-4.05,9.99,9.99,10.01
59.76,13.67,3.72,13.66,3.73,-3.73,-3.26,-4.12,9.95,9.93,9.96
60.35,13.67,3.78,13.67,3.79,-3.79,-3.32,-4.18,9.88,9.88,9.90
60.96,13.68,3.85,13.67,3.85,-3.85,-3.38,-4.24,9.83,9.82,9.83
61.57,13.68,3.92,13.68,3.91,-3.91,-3.44,-4.29,9.77,9.76,9.76
62.18,13.68,3.99,13.68,3.98,-3.98,-3.50,-4.35,9.71,9.70,9.70
62.80,13.68,4.05,13.68,4.04,-4.04,-3.56,-4.40,9.65,9.64,9.63
63.43,13.67,4.11,13.68,4.10,-4.10,-3.62,-4.44,9.57,9.58,9.56
64.07,13.66,4.16,13.68,4.16,-4.16,-3.68,-4.48,9.50,9.52,9.50
64.71,13.66,4.22,13.67,4.22,-4.22,-3.74,-4.52,9.44,9.45,9.44
65.35,13.66,4.28,13.67,4.28,-4.28,-3.80,-4.56,9.38,9.39,9.38
66.01,13.66,4.34,13.67,4.34,-4.34,-3.87,-4.59,9.32,9.32,9.32
66.67,13.66,4.39,13.67,4.41,-4.41,-3.93,-4.62,9.26,9.26,9.27
67.33,13.66,4.47,13.66,4.47,-4.47,-4.00,-4.65,9.20,9.20,9.19
68.01,13.66,4.53,13.66,4.53,-4.53,-4.06,-4.68,9.13,9.13,9.14
68.69,13.66,4.59,13.66,4.59,-4.59,-4.13,-4.70,9.07,9.07,9.07
69.37,13.66,4.65,13.66,4.66,-4.66,-4.20,-4.73,9.00,9.00,9.01
70.07,13.66,4.72,13.66,4.73,-4.73,-4.26,-4.75,8.94,8.94,8.94
70.77,13.66,4.79,13.66,4.79,-4.79,-4.33,-4.77,8.87,8.87,8.87
71.48,13.66,4.85,13.66,4.86,-4.86,-4.40,-4.79,8.80,8.80,8.81
72.19,13.66,4.93,13.66,4.93,-4.93,-4.47,-4.81,8.74,8.74,8.74
72.91,13.66,5.00,13.66,4.99,-4.99,-4.54,-4.84,8.67,8.67,8.66
73.64,13.66,5.07,13.66,5.06,-5.06,-4.61,-4.86,8.60,8.60,8.59
74.38,13.66,5.14,13.66,5.13,-5.13,-4.68,-4.88,8.54,8.54,8.53
75.12,13.66,5.20,13.66,5.19,-5.19,-4.76,-4.91,8.47,8.47,8.47
75.87,13.66,5.26,13.66,5.26,-5.26,-4.83,-4.94,8.41,8.41,8.41
76.63,13.66,5.33,13.66,5.32,-5.32,-4.90,-4.97,8.34,8.34,8.34
77.40,13.66,5.38,13.66,5.38,-5.38,-4.98,-5.00,8.28,8.28,8.28
78.17,13.66,5.45,13.66,5.44,-5.44,-5.05,-5.03,8.22,8.22,8.21
78.95,13.66,5.50,13.66,5.51,-5.51,-5.13,-5.07,8.16,8.16,8.16
79.74,13.66,5.57,13.66,5.57,-5.57,-5.20,-5.11,8.10,8.10,8.10
80.54,13.66,5.62,13.66,5.63,-5.63,-5.28,-5.15,8.04,8.04,8.04
81.35,13.66,5.69,13.66,5.69,-5.69,-5.36,-5.20,7.97,7.97,7.97
82.16,13.66,5.74,13.66,5.75,-5.75,-5.43,-5.25,7.91,7.91,7.92
82.98,13.66,5.81,13.66,5.81,-5.81,-5.51,-5.30,7.85,7.85,7.85
83.81,13.66,5.87,13.66,5.88,-5.88,-5.59,-5.36,7.78,7.78,7.79
84.65,13.66,5.95,13.66,5.94,-5.94,-5.67,-5.42,7.72,7.72,7.72
85.50,13.66,6.01,13.66,6.01,-6.01,-5.75,-5.48,7.66,7.66,7.65
86.35,13.66,6.08,13.66,6.07,-6.07,-5.83,-5.55,7.59,7.59,7.59
87.22,13.66,6.14,13.66,6.14,-6.14,-5.91,-5.62,7.52,7.52,7.52
88.09,13.66,6.21,13.66,6.21,-6.21,-5.99,-5.70,7.46,7.46,7.45
88.97,13.66,6.28,13.66,6.28,-6.28,-6.07,-5.78,7.39,7.39,7.39
89.86,13.66,6.34,13.66,6.35,-6.35,-6.15,-5.87,7.32,7.32,7.32
90.76,13.66,6.41,13.66,6.42,-6.42,-6.23,-5.95,7.25,7.25,7.25
91.66,13.66,6.49,13.66,6.49,-6.49,-6.31,-6.05,7.17,7.17,7.17
92.58,13.66,6.55,13.66,6.56,-6.56,-6.39,-6.15,7.10,7.10,7.11
93.51,13.66,6.63,13.66,6.63,-6.63,-6.47,-6.25,7.03,7.03,7.04
94.44,13.66,6.70,13.66,6.71,-6.71,-6.56,-6.35,6.96,6.96,6.97
95.39,13.66,6.78,13.66,6.78,-6.78,-6.64,-6.46,6.88,6.88,6.88
96.34,13.66,6.85,13.66,6.86,-6.86,-6.72,-6.58,6.81,6.81,6.81
97.30,13.66,6.93,13.66,6.93,-6.93,-6.80,-6.69,6.73,6.73,6.74
98.28,13.66,7.01,13.66,7.00,-7.00,-6.89,-6.81,6.66,6.66,6.65
99.26,13.66,7.09,13.66,7.08,-7.08,-6.97,-6.94,6.59,6.59,6.58
100.25,13.66,7.16,13.66,7.15,-7.15,-7.05,-7.06,6.52,6.52,6.50
101.25,13.66,7.22,13.66,7.22,-7.22,-7.13,-7.19,6.44,6.44,6.44
102.27,13.66,7.29,13.66,7.29,-7.29,-7.21,-7.33,6.37,6.37,6.37
103.29,13.66,7.37,13.66,7.36,-7.36,-7.29,-7.46,6.30,6.30,6.30
104.32,13.66,7.43,13.66,7.43,-7.43,-7.38,-7.59,6.23,6.23,6.23
105.37,13.66,7.50,13.66,7.50,-7.50,-7.46,-7.73,6.16,6.16,6.17
106.42,13.66,7.56,13.66,7.57,-7.57,-7.54,-7.87,6.10,6.10,6.10
107.48,13.66,7.64,13.66,7.64,-7.64,-7.62,-8.01,6.03,6.03,6.03
108.56,13.66,7.70,13.66,7.71,-7.71,-7.70,-8.14,5.96,5.96,5.96
109.64,13.66,7.77,13.66,7.78,-7.78,-7.78,-8.28,5.89,5.89,5.90
110.74,13.66,7.84,13.66,7.85,-7.85,-7.85,-8.41,5.81,5.82,5.82
111.85,13.66,7.92,13.67,7.92,-7.92,-7.93,-8.54,5.74,5.74,5.75
112.97,13.66,7.98,13.67,8.00,-8.00,-8.01,-8.66,5.67,5.67,5.68
114.10,13.66,8.06,13.67,8.07,-8.07,-8.09,-8.79,5.59,5.60,5.61
115.24,13.66,8.14,13.67,8.14,-8.14,-8.16,-8.90,5.52,5.53,5.52
116.39,13.66,8.21,13.68,8.21,-8.21,-8.24,-9.01,5.45,5.46,5.45
117.55,13.66,8.29,13.68,8.29,-8.29,-8.31,-9.11,5.38,5.39,5.38
118.73,13.66,8.36,13.68,8.36,-8.36,-8.38,-9.21,5.31,5.32,5.31
119.92,13.68,8.44,13.67,8.42,-8.42,-8.46,-9.29,5.26,5.25,5.24
121.12,13.68,8.50,13.67,8.49,-8.49,-8.53,-9.37,5.20,5.18,5.18
122.33,13.67,8.56,13.66,8.55,-8.55,-8.60,-9.44,5.13,5.11,5.11
123.55,13.66,8.61,13.65,8.60,-8.60,-8.67,-9.50,5.06,5.04,5.05
124.79,13.64,8.66,13.63,8.65,-8.65,-8.74,-9.54,4.99,4.98,4.98
126.03,13.62,8.71,13.61,8.70,-8.70,-8.80,-9.58,4.92,4.91,4.92
127.29,13.60,8.75,13.59,8.74,-8.74,-8.87,-9.61,4.86,4.84,4.85
128.57,13.57,8.80,13.56,8.78,-8.78,-8.93,-9.62,4.79,4.77,4.77
129.85,13.53,8.82,13.53,8.82,-8.82,-9.00,-9.63,4.71,4.71,4.71
131.15,13.49,8.86,13.50,8.86,-8.86,-9.06,-9.63,4.63,4.64,4.63
132.46,13.47,8.90,13.47,8.90,-8.90,-9.12,-9.62,4.58,4.57,4.57
133.79,13.43,8.93,13.44,8.93,-8.93,-9.18,-9.60,4.50,4.51,4.50
135.12,13.39,8.96,13.41,8.97,-8.97,-9.24,-9.57,4.42,4.44,4.44
136.48,13.37,9.00,13.39,9.01,-9.01,-9.30,-9.54,4.36,4.37,4.38
137.84,13.34,9.03,13.37,9.06,-9.06,-9.35,-9.50,4.29,4.31,4.31
139.22,13.33,9.09,13.35,9.10,-9.10,-9.41,-9.46,4.23,4.25,4.24
140.61,13.31,9.13,13.34,9.15,-9.15,-9.46,-9.42,4.16,4.19,4.18
142.02,13.31,9.19,13.33,9.20,-9.20,-9.51,-9.37,4.11,4.13,4.12
143.44,13.31,9.25,13.32,9.25,-9.25,-9.56,-9.32,4.06,4.07,4.06
144.87,13.32,9.31,13.32,9.31,-9.31,-9.61,-9.27,4.02,4.01,4.01
146.32,13.33,9.38,13.32,9.36,-9.36,-9.66,-9.22,3.97,3.95,3.95
147.78,13.33,9.43,13.32,9.42,-9.42,-9.70,-9.17,3.91,3.90,3.90
149.26,13.33,9.49,13.33,9.48,-9.48,-9.75,-9.13,3.85,3.84,3.84
150.75,13.33,9.55,13.33,9.54,-9.54,-9.79,-9.08,3.79,3.79,3.78
152.26,13.33,9.60,13.34,9.61,-9.61,-9.83,-9.04,3.73,3.73,3.74
153.78,13.33,9.65,13.34,9.66,-9.66,-9.87,-9.00,3.67,3.68,3.68
155.32,13.33,9.71,13.35,9.72,-9.72,-9.91,-8.96,3.61,3.62,3.63
156.88,13.34,9.77,13.35,9.78,-9.78,-9.95,-8.93,3.56,3.57,3.57
158.44,13.34,9.83,13.35,9.84,-9.84,-9.99,-8.90,3.51,3.51,3.51
160.03,13.35,9.89,13.35,9.89,-9.89,-10.02,-8.88,3.46,3.46,3.46
161.63,13.35,9.95,13.34,9.94,-9.94,-10.06,-8.86,3.42,3.40,3.40
163.24,13.35,10.01,13.33,9.98,-9.98,-10.09,-8.85,3.37,3.35,3.35
164.88,13.33,10.04,13.32,10.03,-10.03,-10.12,-8.84,3.30,3.29,3.29
166.53,13.31,10.09,13.30,10.07,-10.07,-10.15,-8.84,3.24,3.23,3.22
168.19,13.30,10.12,13.28,10.11,-10.11,-10.18,-8.84,3.20,3.18,3.18
169.87,13.26,10.14,13.26,10.14,-10.14,-10.21,-8.85,3.12,3.12,3.12
171.57,13.24,10.19,13.23,10.17,-10.17,-10.24,-8.87,3.07,3.06,3.06
173.29,13.20,10.20,13.20,10.20,-10.20,-10.26,-8.89,3.01,3.00,3.01
175.02,13.16,10.21,13.17,10.22,-10.22,-10.29,-8.92,2.94,2.95,2.95
176.77,13.13,10.24,13.14,10.25,-10.25,-10.31,-8.96,2.89,2.89,2.89
178.54,13.10,10.27,13.11,10.27,-10.27,-10.33,-9.00,2.83,2.84,2.84
180.32,13.07,10.30,13.09,10.31,-10.31,-10.35,-9.05,2.77,2.78,2.77
182.13,13.05,10.33,13.07,10.34,-10.34,-10.37,-9.11,2.71,2.73,2.73
183.95,13.01,10.34,13.05,10.38,-10.38,-10.39,-9.17,2.63,2.67,2.67
185.79,13.00,10.39,13.04,10.42,-10.42,-10.41,-9.24,2.58,2.62,2.61
187.65,12.99,10.43,13.03,10.46,-10.46,-10.43,-9.31,2.53,2.56,2.56
189.52,12.99,10.48,13.02,10.51,-10.51,-10.44,-9.39,2.49,2.51,2.51
191.42,13.00,10.54,13.01,10.55,-10.55,-10.46,-9.48,2.45,2.46,2.47
193.33,13.02,10.60,13.01,10.59,-10.59,-10.47,-9.58,2.43,2.41,2.42
195.27,13.03,10.67,13.00,10.63,-10.63,-10.48,-9.68,2.40,2.37,2.36
197.22,13.02,10.71,12.99,10.67,-10.67,-10.50,-9.78,2.35,2.32,2.31
199.19,13.01,10.74,12.98,10.70,-10.70,-10.51,-9.89,2.31,2.28,2.28
201.18,12.99,10.77,12.96,10.73,-10.73,-10.52,-10.01,2.26,2.24,2.22
203.19,12.97,10.78,12.95,10.75,-10.75,-10.53,-10.13,2.22,2.19,2.19
205.23,12.94,10.78,12.93,10.77,-10.77,-10.54,-10.25,2.17,2.15,2.16
207.28,12.90,10.78,12.90,10.79,-10.79,-10.55,-10.38,2.12,2.12,2.12
209.35,12.87,10.79,12.88,10.80,-10.80,-10.55,-10.51,2.08,2.08,2.08
211.44,12.83,10.79,12.85,10.81,-10.81,-10.56,-10.65,2.03,2.04,2.04
213.56,12.80,10.79,12.82,10.81,-10.81,-10.57,-10.78,1.99,2.01,2.02
215.69,12.76,10.78,12.79,10.82,-10.82,-10.57,-10.92,1.95,1.97,1.98
217.85,12.73,10.79,12.77,10.82,-10.82,-10.57,-11.05,1.91,1.94,1.94
220.03,12.72,10.81,12.74,10.83,-10.83,-10.58,-11.19,1.89,1.91,1.91
222.23,12.71,10.84,12.72,10.84,-10.84,-10.58,-11.32,1.88,1.88,1.88
224.45,12.69,10.84,12.70,10.84,-10.84,-10.58,-11.45,1.85,1.85,1.85
226.70,12.68,10.86,12.68,10.85,-10.85,-10.58,-11.57,1.83,1.83,1.82
228.96,12.66,10.85,12.66,10.86,-10.86,-10.58,-11.69,1.81,1.80,1.81
231.25,12.65,10.87,12.64,10.86,-10.86,-10.58,-11.79,1.79,1.78,1.78
233.57,12.64,10.88,12.62,10.86,-10.86,-10.58,-11.89,1.78,1.76,1.76
235.90,12.62,10.88,12.60,10.86,-10.86,-10.58,-11.98,1.76,1.74,1.74
238.26,12.59,10.88,12.58,10.86,-10.86,-10.57,-12.05,1.73,1.72,1.71
240.64,12.56,10.85,12.56,10.85,-10.85,-10.57,-12.11,1.71,1.71,1.71
243.05,12.53,10.84,12.53,10.84,-10.84,-10.56,-12.16,1.69,1.69,1.69
245.48,12.50,10.83,12.50,10.82,-10.82,-10.56,-12.19,1.68,1.68,1.68
247.93,12.46,10.80,12.48,10.81,-10.81,-10.55,-12.20,1.66,1.67,1.66
250.41,12.44,10.78,12.45,10.79,-10.79,-10.54,-12.20,1.66,1.66,1.67
252.92,12.41,10.75,12.42,10.77,-10.77,-10.53,-12.17,1.65,1.66,1.66
255.45,12.39,10.75,12.39,10.75,-10.75,-10.52,-12.14,1.65,1.65,1.65
258.00,12.36,10.72,12.37,10.73,-10.73,-10.51,-12.08,1.64,1.64,1.64
260.58,12.33,10.70,12.34,10.71,-10.71,-10.50,-12.01,1.63,1.63,1.64
263.19,12.30,10.67,12.31,10.68,-10.68,-10.48,-11.92,1.62,1.63,1.63
265.82,12.26,10.64,12.28,10.66,-10.66,-10.47,-11.83,1.60,1.62,1.62
268.48,12.25,10.63,12.25,10.64,-10.64,-10.45,-11.71,1.62,1.62,1.62
271.16,12.24,10.63,12.22,10.61,-10.61,-10.44,-11.59,1.63,1.61,1.62
273.87,12.20,10.60,12.19,10.58,-10.58,-10.42,-11.46,1.62,1.61,1.61
276.61,12.17,10.57,12.15,10.55,-10.55,-10.40,-11.32,1.62,1.60,1.61
279.38,12.13,10.55,12.12,10.52,-10.52,-10.38,-11.18,1.61,1.60,1.59
282.17,12.09,10.51,12.08,10.49,-10.49,-10.36,-11.03,1.61,1.60,1.59
284.99,12.05,10.46,12.05,10.45,-10.45,-10.34,-10.87,1.60,1.60,1.60
287.84,11.98,10.39,12.01,10.42,-10.42,-10.32,-10.71,1.57,1.59,1.60
290.72,11.94,10.36,11.97,10.38,-10.38,-10.29,-10.56,1.57,1.59,1.59
293.63,11.91,10.32,11.93,10.34,-10.34,-10.27,-10.40,1.58,1.60,1.60
296.57,11.88,10.28,11.89,10.29,-10.29,-10.24,-10.24,1.59,1.60,1.60
299.53,11.85,10.25,11.85,10.25,-10.25,-10.21,-10.09,1.61,1.60,1.60
302.53,11.82,10.21,11.81,10.20,-10.20,-10.18,-9.94,1.62,1.61,1.61
305.55,11.78,10.18,11.77,10.16,-10.16,-10.15,-9.79,1.63,1.61,1.61
308.61,11.73,10.11,11.73,10.11,-10.11,-10.12,-9.64,1.62,1.62,1.62
311.69,11.68,10.06,11.69,10.07,-10.07,-10.08,-9.50,1.62,1.62,1.62
314.81,11.64,10.02,11.65,10.02,-10.02,-10.05,-9.36,1.62,1.63,1.62
317.96,11.60,9.97,11.61,9.97,-9.97,-10.01,-9.23,1.63,1.63,1.63
321.14,11.56,9.92,11.56,9.93,-9.93,-9.97,-9.10,1.64,1.64,1.64
324.35,11.51,9.88,11.52,9.88,-9.88,-9.93,-8.98,1.64,1.64,1.64
327.59,11.47,9.81,11.48,9.83,-9.83,-9.89,-8.86,1.65,1.65,1.66
330.87,11.43,9.78,11.43,9.78,-9.78,-9.85,-8.75,1.66,1.66,1.65
334.18,11.39,9.73,11.39,9.73,-9.73,-9.81,-8.65,1.67,1.66,1.66
337.52,11.34,9.68,11.34,9.67,-9.67,-9.76,-8.55,1.67,1.67,1.66
340.90,11.29,9.61,11.30,9.62,-9.62,-9.71,-8.46,1.67,1.68,1.68
344.30,11.24,9.56,11.25,9.57,-9.57,-9.67,-8.37,1.67,1.68,1.68
347.75,11.19,9.50,11.20,9.51,-9.51,-9.62,-8.29,1.68,1.69,1.69
351.23,11.14,9.46,11.15,9.46,-9.46,-9.56,-8.22,1.69,1.70,1.69
354.74,11.11,9.40,11.10,9.40,-9.40,-9.51,-8.15,1.71,1.70,1.71
358.28,11.07,9.37,11.05,9.34,-9.34,-9.46,-8.09,1.73,1.71,1.71
361.87,11.01,9.30,11.00,9.29,-9.29,-9.40,-8.03,1.73,1.71,1.71
365.49,10.94,9.22,10.94,9.22,-9.22,-9.34,-7.98,1.72,1.72,1.72
369.14,10.88,9.15,10.89,9.16,-9.16,-9.28,-7.94,1.72,1.73,1.74
372.83,10.83,9.09,10.83,9.09,-9.09,-9.22,-7.90,1.74,1.74,1.74
376.56,10.76,9.02,10.77,9.03,-9.03,-9.16,-7.86,1.73,1.74,1.74
380.33,10.71,8.97,10.72,8.96,-8.96,-9.10,-7.84,1.75,1.75,1.75
384.13,10.65,8.89,10.65,8.89,-8.89,-9.03,-7.81,1.76,1.76,1.76
387.97,10.59,8.82,10.59,8.82,-8.82,-8.97,-7.80,1.77,1.77,1.77
391.85,10.53,8.76,10.53,8.75,-8.75,-8.90,-7.78,1.79,1.78,1.78
395.77,10.46,8.68,10.46,8.67,-8.67,-8.83,-7.77,1.79,1.79,1.78
399.73,10.39,8.60,10.40,8.60,-8.60,-8.76,-7.77,1.79,1.80,1.79
403.72,10.32,8.50,10.33,8.53,-8.53,-8.68,-7.77,1.80,1.81,1.82
407.76,10.27,8.46,10.27,8.45,-8.45,-8.61,-7.77,1.82,1.82,1.82
411.84,10.20,8.38,10.20,8.38,-8.38,-8.53,-7.78,1.83,1.82,1.82
415.96,10.13,8.29,10.13,8.30,-8.30,-8.45,-7.78,1.83,1.83,1.84
420.12,10.05,8.21,10.07,8.22,-8.22,-8.38,-7.79,1.83,1.84,1.84
424.32,9.98,8.14,10.00,8.15,-8.15,-8.29,-7.81,1.84,1.85,1.85
428.56,9.93,8.07,9.93,8.07,-8.07,-8.21,-7.82,1.86,1.86,1.87
432.85,9.87,8.00,9.86,7.99,-7.99,-8.13,-7.83,1.88,1.87,1.87
437.18,9.78,7.91,9.79,7.91,-7.91,-8.04,-7.84,1.87,1.88,1.87
441.55,9.71,7.83,9.72,7.83,-7.83,-7.96,-7.85,1.88,1.88,1.88
445.96,9.65,7.77,9.64,7.75,-7.75,-7.87,-7.86,1.90,1.89,1.89
