frequency,raw,error,smoothed,error_smoothed,equalization,parametric_eq,fixed_band_eq,equalized_raw,equalized_smoothed,target
20.00,3.87,-6.90,3.87,-6.90,6.90,6.77,2.97,10.77,10.77,10.77
20.20,3.87,-6.89,3.87,-6.89,6.89,6.78,3.06,10.75,10.75,10.76
20.40,3.87,-6.88,3.87,-6.87,6.87,6.79,3.14,10.74,10.74,10.74
20.61,3.87,-6.87,3.87,-6.86,6.86,6.79,3.23,10.73,10.73,10.73
20.81,3.87,-6.85,3.87,-6.85,6.85,6.80,3.33,10.72,10.72,10.71
21.02,3.87,-6.84,3.87,-6.84,6.84,6.80,3.42,10.71,10.71,10.70
21.23,3.87,-6.82,3.87,-6.83,6.83,6.81,3.52,10.70,10.70,10.69
21.44,3.87,-6.83,3.87,-6.82,6.82,6.81,3.62,10.69,10.69,10.70
21.66,3.87,-6.81,3.87,-6.81,6.81,6.81,3.72,10.68,10.68,10.68
21.87,3.87,-6.81,3.87,-6.80,6.80,6.81,3.83,10.67,10.67,10.68
22.09,3.87,-6.79,3.87,-6.79,6.79,6.81,3.94,10.66,10.66,10.66
22.31,3.87,-6.79,3.87,-6.79,6.79,6.80,4.05,10.65,10.65,10.66
22.54,3.87,-6.78,3.86,-6.78,6.78,6.80,4.17,10.65,10.65,10.65
22.76,3.87,-6.78,3.86,-6.78,6.78,6.79,4.28,10.65,10.64,10.64
22.99,3.87,-6.77,3.86,-6.78,6.78,6.79,4.41,10.64,10.64,10.63
23.22,3.87,-6.75,3.85,-6.78,6.78,6.78,4.53,10.64,10.63,10.62
23.45,3.87,-6.76,3.85,-6.77,6.77,6.77,4.66,10.64,10.63,10.63
23.69,3.86,-6.76,3.85,-6.77,6.77,6.76,4.79,10.62,10.62,10.62
23.92,3.86,-6.75,3.85,-6.76,6.76,6.75,4.92,10.62,10.62,10.61
24.16,3.85,-6.77,3.86,-6.75,6.75,6.74,5.05,10.60,10.61,10.62
24.40,3.85,-6.77,3.86,-6.75,6.75,6.73,5.19,10.59,10.61,10.61
24.65,3.86,-6.76,3.87,-6.73,6.73,6.71,5.33,10.59,10.61,10.61
24.89,3.87,-6.74,3.89,-6.72,6.72,6.70,5.47,10.59,10.60,10.61
25.14,3.89,-6.71,3.90,-6.70,6.70,6.68,5.61,10.59,10.60,10.60
25.39,3.91,-6.69,3.92,-6.68,6.68,6.67,5.75,10.59,10.60,10.60
25.65,3.94,-6.66,3.94,-6.66,6.66,6.65,5.90,10.59,10.60,10.60
25.91,3.97,-6.63,3.97,-6.63,6.63,6.64,6.04,10.60,10.60,10.59
26.16,4.00,-6.60,4.00,-6.60,6.60,6.62,6.19,10.60,10.60,10.60
26.43,4.03,-6.57,4.03,-6.57,6.57,6.61,6.33,10.60,10.60,10.60
26.69,4.06,-6.54,4.06,-6.54,6.54,6.59,6.48,10.60,10.60,10.60
26.96,4.09,-6.51,4.09,-6.51,6.51,6.57,6.62,10.60,10.60,10.60
27.23,4.12,-6.48,4.11,-6.49,6.49,6.55,6.76,10.60,10.60,10.59
27.50,4.15,-6.44,4.13,-6.46,6.46,6.54,6.90,10.61,10.60,10.59
27.77,4.17,-6.43,4.16,-6.44,6.44,6.52,7.03,10.61,10.60,10.60
28.05,4.19,-6.41,4.17,-6.43,6.43,6.50,7.16,10.62,10.60,10.60
28.33,4.21,-6.40,4.19,-6.41,6.41,6.48,7.28,10.62,10.60,10.60
28.62,4.21,-6.39,4.20,-6.40,6.40,6.47,7.39,10.61,10.60,10.60
28.90,4.22,-6.39,4.20,-6.40,6.40,6.45,7.50,10.61,10.60,10.61
29.19,4.21,-6.40,4.21,-6.39,6.39,6.43,7.60,10.60,10.60,10.60
29.48,4.21,-6.39,4.21,-6.39,6.39,6.41,7.69,10.59,10.60,10.60
29.78,4.20,-6.40,4.21,-6.38,6.38,6.40,7.77,10.58,10.59,10.60
30.08,4.20,-6.40,4.21,-6.38,6.38,6.38,7.84,10.58,10.59,10.59
30.38,4.20,-6.38,4.21,-6.38,6.38,6.36,7.89,10.57,10.58,10.58
30.68,4.20,-6.38,4.20,-6.38,6.38,6.35,7.94,10.57,10.58,10.58
30.99,4.20,-6.38,4.20,-6.37,6.37,6.33,7.97,10.57,10.57,10.57
31.30,4.20,-6.37,4.20,-6.37,6.37,6.31,7.99,10.57,10.57,10.57
31.61,4.20,-6.37,4.19,-6.37,6.37,6.29,8.00,10.56,10.56,10.56
31.93,4.20,-6.34,4.19,-6.36,6.36,6.28,7.99,10.56,10.55,10.54
32.24,4.20,-6.35,4.18,-6.36,6.36,6.26,7.98,10.56,10.54,10.55
32.57,4.20,-6.33,4.18,-6.35,6.35,6.25,7.95,10.55,10.53,10.53
32.89,4.19,-6.34,4.18,-6.35,6.35,6.23,7.91,10.54,10.53,10.53
33.22,4.19,-6.33,4.18,-6.34,6.34,6.21,7.85,10.53,10.52,10.52
33.55,4.18,-6.34,4.18,-6.33,6.33,6.20,7.79,10.51,10.51,10.51
33.89,4.17,-6.33,4.18,-6.32,6.32,6.18,7.72,10.49,10.50,10.50
34.23,4.18,-6.31,4.19,-6.30,6.30,6.17,7.65,10.48,10.49,10.48
34.57,4.18,-6.30,4.20,-6.28,6.28,6.15,7.56,10.46,10.48,10.48
34.92,4.20,-6.27,4.21,-6.26,6.26,6.14,7.47,10.45,10.47,10.46
35.27,4.22,-6.26,4.23,-6.23,6.23,6.12,7.38,10.44,10.46,10.48
35.62,4.24,-6.21,4.26,-6.19,6.19,6.11,7.28,10.43,10.45,10.45
35.97,4.27,-6.17,4.28,-6.15,6.15,6.09,7.17,10.42,10.43,10.44
36.33,4.30,-6.13,4.31,-6.11,6.11,6.08,7.07,10.40,10.42,10.42
36.70,4.33,-6.07,4.34,-6.06,6.06,6.06,6.96,10.39,10.40,10.40
37.06,4.37,-6.01,4.37,-6.01,6.01,6.04,6.85,10.38,10.38,10.38
37.43,4.41,-5.95,4.40,-5.97,5.97,6.03,6.75,10.37,10.36,10.36
37.81,4.44,-5.91,4.42,-5.92,5.92,6.01,6.64,10.36,10.34,10.34
38.19,4.46,-5.86,4.44,-5.88,5.88,5.99,6.53,10.34,10.32,10.31
38.57,4.48,-5.82,4.45,-5.85,5.85,5.98,6.42,10.32,10.30,10.30
38.95,4.48,-5.80,4.45,-5.82,5.82,5.96,6.32,10.30,10.27,10.28
39.34,4.48,-5.77,4.45,-5.80,5.80,5.94,6.22,10.27,10.25,10.25
39.74,4.47,-5.75,4.44,-5.78,5.78,5.92,6.12,10.25,10.22,10.22
40.14,4.45,-5.75,4.42,-5.77,5.77,5.91,6.02,10.22,10.20,10.20
40.54,4.42,-5.76,4.40,-5.77,5.77,5.89,5.93,10.19,10.17,10.17
40.94,4.38,-5.77,4.38,-5.77,5.77,5.87,5.84,10.15,10.15,10.14
41.35,4.34,-5.78,4.35,-5.78,5.78,5.85,5.75,10.11,10.12,10.12
41.76,4.31,-5.78,4.32,-5.78,5.78,5.82,5.67,10.09,10.10,10.09
42.18,4.27,-5.81,4.29,-5.78,5.78,5.80,5.59,10.05,10.07,10.08
42.60,4.25,-5.80,4.26,-5.78,5.78,5.78,5.51,10.03,10.04,10.04
43.03,4.22,-5.80,4.24,-5.78,5.78,5.75,5.44,10.00,10.02,10.02
43.46,4.20,-5.79,4.22,-5.77,5.77,5.73,5.37,9.97,9.99,9.99
43.90,4.19,-5.77,4.20,-5.76,5.76,5.70,5.31,9.95,9.96,9.96
44.33,4.18,-5.75,4.19,-5.74,5.74,5.68,5.25,9.92,9.93,9.93
44.78,4.17,-5.73,4.18,-5.71,5.71,5.65,5.19,9.88,9.90,9.90
45.23,4.18,-5.70,4.18,-5.68,5.68,5.62,5.14,9.86,9.86,9.88
45.68,4.19,-5.64,4.18,-5.65,5.65,5.59,5.09,9.84,9.83,9.83
46.13,4.19,-5.60,4.18,-5.61,5.61,5.56,5.05,9.80,9.79,9.79
46.60,4.20,-5.56,4.18,-5.57,5.57,5.52,5.01,9.76,9.75,9.75
47.06,4.20,-5.52,4.19,-5.52,5.52,5.49,4.97,9.72,9.71,9.71
47.53,4.20,-5.48,4.19,-5.48,5.48,5.46,4.94,9.67,9.66,9.67
48.01,4.20,-5.42,4.19,-5.43,5.43,5.42,4.91,9.62,9.62,9.62
48.49,4.20,-5.38,4.19,-5.38,5.38,5.38,4.88,9.58,9.57,9.57
48.97,4.20,-5.33,4.20,-5.33,5.33,5.34,4.86,9.53,9.53,9.52
49.46,4.20,-5.28,4.20,-5.28,5.28,5.30,4.83,9.48,9.48,9.48
49.96,4.20,-5.22,4.20,-5.24,5.24,5.26,4.82,9.43,9.44,9.42
50.46,4.20,-5.19,4.20,-5.19,5.19,5.22,4.80,9.39,9.39,9.38
50.96,4.20,-5.14,4.20,-5.14,5.14,5.18,4.79,9.34,9.34,9.34
51.47,4.20,-5.10,4.20,-5.10,5.10,5.13,4.77,9.29,9.29,9.30
51.99,4.20,-5.04,4.20,-5.05,5.05,5.09,4.76,9.25,9.25,9.24
52.51,4.20,-5.01,4.20,-5.00,5.00,5.04,4.76,9.20,9.20,9.20
53.03,4.20,-4.97,4.20,-4.96,4.96,4.99,4.75,9.15,9.15,9.16
53.56,4.20,-4.92,4.20,-4.91,4.91,4.94,4.74,9.11,9.11,9.12
54.10,4.20,-4.86,4.20,-4.86,4.86,4.89,4.73,9.06,9.06,9.06
54.64,4.20,-4.82,4.20,-4.82,4.82,4.84,4.73,9.02,9.02,9.02
55.18,4.20,-4.77,4.20,-4.78,4.78,4.79,4.72,8.97,8.97,8.96
55.74,4.20,-4.72,4.20,-4.73,4.73,4.74,4.71,8.93,8.93,8.91
56.29,4.20,-4.68,4.20,-4.69,4.69,4.68,4.71,8.88,8.88,8.88
56.86,4.20,-4.64,4.20,-4.64,4.64,4.63,4.70,8.84,8.84,8.83
57.42,4.20,-4.58,4.20,-4.59,4.59,4.57,4.69,8.79,8.79,8.78
58.00,4.20,-4.53,4.20,-4.54,4.54,4.52,4.67,8.74,8.74,8.73
58.58,4.20,-4.50,4.20,-4.49,4.49,4.46,4.66,8.69,8.69,8.69
59.16,4.20,-4.46,4.20,-4.44,4.44,4.40,4.64,8.64,8.64,8.66
59.76,4.20,-4.41,4.20,-4.38,4.38,4.34,4.62,8.58,8.58,8.61
60.35,4.20,-4.35,4.20,-4.33,4.33,4.28,4.59,8.53,8.53,8.54
60.96,4.20,-4.29,4.20,-4.27,4.27,4.23,4.56,8.47,8.47,8.48
61.57,4.20,-4.21,4.20,-4.21,4.21,4.17,4.53,8.41,8.41,8.41
62.18,4.20,-4.15,4.20,-4.15,4.15,4.11,4.49,8.35,8.35,8.34
62.80,4.20,-4.08,4.20,-4.09,4.09,4.05,4.45,8.29,8.29,8.28
63.43,4.20,-4.01,4.20,-4.03,4.03,3.99,4.40,8.23,8.23,8.21
64.07,4.20,-3.96,4.20,-3.97,3.97,3.93,4.36,8.16,8.16,8.15
64.71,4.20,-3.90,4.20,-3.90,3.90,3.86,4.30,8.10,8.10,8.09
65.35,4.20,-3.84,4.20,-3.84,3.84,3.80,4.24,8.03,8.04,8.03
66.01,4.20,-3.77,4.20,-3.77,3.77,3.74,4.18,7.97,7.97,7.97
66.67,4.20,-3.72,4.21,-3.70,3.70,3.68,4.12,7.90,7.91,7.92
67.33,4.20,-3.65,4.21,-3.64,3.64,3.62,4.05,7.83,7.84,7.84
68.01,4.20,-3.59,4.21,-3.57,3.57,3.56,3.98,7.77,7.78,7.79
68.69,4.21,-3.51,4.21,-3.51,3.51,3.50,3.91,7.71,7.72,7.72
69.37,4.21,-3.45,4.21,-3.44,3.44,3.44,3.83,7.65,7.65,7.66
70.07,4.22,-3.37,4.20,-3.38,3.38,3.38,3.75,7.60,7.59,7.59
70.77,4.22,-3.30,4.20,-3.32,3.32,3.32,3.67,7.54,7.52,7.52
71.48,4.21,-3.25,4.19,-3.27,3.27,3.26,3.59,7.47,7.45,7.46
72.19,4.19,-3.20,4.17,-3.21,3.21,3.20,3.50,7.40,7.38,7.38
72.91,4.17,-3.14,4.16,-3.16,3.16,3.14,3.42,7.33,7.32,7.31
73.64,4.15,-3.10,4.14,-3.12,3.12,3.08,3.33,7.26,7.25,7.24
74.38,4.12,-3.06,4.11,-3.07,3.07,3.02,3.25,7.19,7.19,7.18
75.12,4.09,-3.03,4.09,-3.03,3.03,2.96,3.16,7.12,7.12,7.12
75.87,4.06,-3.00,4.06,-3.00,3.00,2.90,3.08,7.06,7.06,7.06
76.63,4.03,-2.96,4.03,-2.97,2.97,2.84,2.99,6.99,6.99,6.98
77.40,4.00,-2.94,4.00,-2.93,2.93,2.78,2.90,6.93,6.93,6.93
78.17,3.97,-2.89,3.97,-2.90,2.90,2.73,2.82,6.87,6.87,6.86
78.95,3.94,-2.88,3.94,-2.86,2.86,2.67,2.73,6.80,6.81,6.81
79.74,3.92,-2.83,3.92,-2.82,2.82,2.61,2.65,6.74,6.75,6.75
80.54,3.89,-2.80,3.90,-2.78,2.78,2.56,2.57,6.67,6.68,6.69
81.35,3.88,-2.74,3.89,-2.74,2.74,2.50,2.48,6.61,6.62,6.62
82.16,3.86,-2.71,3.87,-2.69,2.69,2.44,2.40,6.54,6.56,6.57
82.98,3.85,-2.65,3.87,-2.63,2.63,2.39,2.32,6.48,6.50,6.50
83.81,3.85,-2.59,3.86,-2.57,2.57,2.33,2.24,6.42,6.43,6.44
84.65,3.86,-2.51,3.86,-2.51,2.51,2.28,2.17,6.36,6.37,6.37
85.50,3.86,-2.44,3.86,-2.44,2.44,2.23,2.09,6.30,6.30,6.30
86.35,3.87,-2.37,3.87,-2.37,2.37,2.17,2.02,6.24,6.24,6.24
87.22,3.87,-2.30,3.87,-2.30,2.30,2.12,1.94,6.17,6.17,6.17
88.09,3.88,-2.23,3.87,-2.23,2.23,2.07,1.87,6.11,6.10,6.10
88.97,3.89,-2.15,3.88,-2.16,2.16,2.02,1.80,6.05,6.04,6.04
89.86,3.90,-2.07,3.88,-2.09,2.09,1.96,1.73,5.99,5.97,5.97
90.76,3.89,-2.01,3.87,-2.02,2.02,1.91,1.66,5.91,5.90,5.90
91.66,3.89,-1.93,3.87,-1.96,1.96,1.86,1.59,5.84,5.82,5.82
92.58,3.87,-1.89,3.86,-1.89,1.89,1.81,1.53,5.76,5.75,5.76
93.51,3.86,-1.83,3.84,-1.84,1.84,1.76,1.46,5.69,5.68,5.69
94.44,3.83,-1.79,3.82,-1.78,1.78,1.71,1.40,5.61,5.60,5.61
95.39,3.81,-1.72,3.80,-1.73,1.73,1.66,1.34,5.54,5.53,5.53
96.34,3.78,-1.68,3.77,-1.68,1.68,1.61,1.28,5.46,5.46,5.46
97.30,3.75,-1.64,3.74,-1.64,1.64,1.56,1.22,5.38,5.38,5.39
98.28,3.72,-1.58,3.71,-1.60,1.60,1.51,1.16,5.31,5.31,5.30
99.26,3.69,-1.54,3.68,-1.55,1.55,1.46,1.10,5.24,5.24,5.23
100.25,3.65,-1.51,3.65,-1.51,1.51,1.42,1.05,5.16,5.16,5.15
101.25,3.63,-1.46,3.63,-1.46,1.46,1.37,0.99,5.09,5.09,5.09
102.27,3.60,-1.42,3.60,-1.42,1.42,1.32,0.94,5.02,5.02,5.02
103.29,3.57,-1.38,3.58,-1.37,1.37,1.27,0.89,4.94,4.95,4.95
104.32,3.55,-1.33,3.57,-1.32,1.32,1.23,0.83,4.86,4.88,4.88
105.37,3.54,-1.28,3.55,-1.26,1.26,1.18,0.78,4.80,4.81,4.82
106.42,3.53,-1.22,3.54,-1.20,1.20,1.13,0.73,4.73,4.74,4.75
107.48,3.52,-1.16,3.54,-1.14,1.14,1.08,0.68,4.66,4.68,4.68
108.56,3.53,-1.08,3.53,-1.07,1.07,1.04,0.64,4.60,4.60,4.61
109.64,3.54,-1.01,3.53,-1.01,1.01,0.99,0.59,4.54,4.54,4.54
110.74,3.54,-0.93,3.53,-0.93,0.93,0.94,0.54,4.47,4.46,4.47
111.85,3.55,-0.85,3.53,-0.86,0.86,0.90,0.50,4.41,4.39,4.39
112.97,3.55,-0.78,3.53,-0.79,0.79,0.85,0.45,4.33,4.32,4.33
114.10,3.55,-0.71,3.54,-0.71,0.71,0.80,0.41,4.26,4.25,4.26
115.24,3.55,-0.63,3.54,-0.64,0.64,0.76,0.37,4.18,4.18,4.17
116.39,3.55,-0.55,3.54,-0.56,0.56,0.71,0.33,4.11,4.11,4.10
117.55,3.55,-0.48,3.55,-0.49,0.49,0.66,0.29,4.04,4.04,4.03
118.73,3.55,-0.41,3.55,-0.42,0.42,0.61,0.25,3.97,3.97,3.95
119.92,3.55,-0.35,3.55,-0.35,0.35,0.57,0.21,3.90,3.90,3.89
121.12,3.55,-0.29,3.55,-0.28,0.28,0.52,0.17,3.83,3.83,3.83
122.33,3.55,-0.22,3.55,-0.21,0.21,0.47,0.13,3.76,3.76,3.76
123.55,3.55,-0.16,3.55,-0.14,0.14,0.42,0.10,3.69,3.69,3.70
124.79,3.55,-0.09,3.55,-0.07,0.07,0.37,0.06,3.62,3.63,3.63
126.03,3.55,-0.02,3.56,-0.00,0.00,0.32,0.03,3.55,3.56,3.57
127.29,3.55,0.05,3.56,0.07,-0.07,0.28,-0.00,3.48,3.49,3.50
128.57,3.55,0.12,3.56,0.14,-0.14,0.23,-0.04,3.41,3.42,3.42
129.85,3.56,0.20,3.56,0.21,-0.21,0.18,-0.07,3.35,3.36,3.36
131.15,3.57,0.28,3.56,0.27,-0.27,0.13,-0.10,3.29,3.29,3.28
132.46,3.57,0.35,3.56,0.34,-0.34,0.07,-0.13,3.23,3.22,3.22
133.79,3.57,0.42,3.55,0.40,-0.40,0.02,-0.16,3.17,3.15,3.15
135.12,3.56,0.47,3.54,0.45,-0.45,-0.03,-0.19,3.10,3.09,3.09
136.48,3.55,0.52,3.53,0.51,-0.51,-0.08,-0.22,3.04,3.02,3.03
137.84,3.53,0.57,3.51,0.55,-0.55,-0.13,-0.25,2.97,2.96,2.96
139.22,3.51,0.62,3.49,0.60,-0.60,-0.19,-0.28,2.91,2.90,2.89
140.61,3.48,0.64,3.47,0.64,-0.64,-0.24,-0.31,2.84,2.83,2.83
142.02,3.45,0.68,3.45,0.67,-0.67,-0.30,-0.34,2.78,2.77,2.77
143.44,3.42,0.70,3.42,0.70,-0.70,-0.35,-0.36,2.72,2.72,2.71
144.87,3.39,0.73,3.39,0.73,-0.73,-0.41,-0.39,2.66,2.66,2.66
146.32,3.36,0.76,3.35,0.75,-0.75,-0.47,-0.42,2.60,2.60,2.60
147.78,3.33,0.78,3.33,0.78,-0.78,-0.52,-0.45,2.55,2.55,2.55
149.26,3.30,0.81,3.30,0.81,-0.81,-0.58,-0.48,2.49,2.49,2.49
150.75,3.27,0.84,3.28,0.85,-0.85,-0.64,-0.51,2.42,2.44,2.43
152.26,3.25,0.86,3.26,0.88,-0.88,-0.70,-0.54,2.36,2.38,2.38
153.78,3.23,0.90,3.25,0.92,-0.92,-0.76,-0.57,2.30,2.33,2.33
155.32,3.21,0.93,3.24,0.97,-0.97,-0.82,-0.60,2.24,2.27,2.28
156.88,3.20,0.97,3.23,1.02,-1.02,-0.88,-0.63,2.18,2.22,2.22
158.44,3.21,1.05,3.23,1.06,-1.06,-0.94,-0.66,2.14,2.16,2.16
160.03,3.22,1.11,3.22,1.12,-1.12,-1.00,-0.69,2.10,2.11,2.11
161.63,3.24,1.18,3.22,1.17,-1.17,-1.07,-0.73,2.07,2.05,2.05
163.24,3.24,1.24,3.21,1.22,-1.22,-1.13,-0.76,2.02,1.99,1.99
164.88,3.24,1.30,3.21,1.27,-1.27,-1.19,-0.79,1.97,1.94,1.94
166.53,3.23,1.35,3.20,1.31,-1.31,-1.25,-0.83,1.91,1.88,1.87
168.19,3.21,1.38,3.18,1.36,-1.36,-1.31,-0.87,1.85,1.82,1.83
169.87,3.19,1.42,3.17,1.40,-1.40,-1.38,-0.90,1.78,1.77,1.77
171.57,3.16,1.45,3.15,1.44,-1.44,-1.44,-0.94,1.71,1.71,1.71
173.29,3.14,1.48,3.13,1.48,-1.48,-1.50,-0.98,1.66,1.65,1.66
175.02,3.11,1.51,3.11,1.51,-1.51,-1.56,-1.02,1.59,1.60,1.60
176.77,3.07,1.53,3.08,1.54,-1.54,-1.62,-1.06,1.52,1.54,1.54
178.54,3.04,1.55,3.05,1.57,-1.57,-1.67,-1.10,1.47,1.48,1.48
180.32,3.02,1.60,3.03,1.60,-1.60,-1.73,-1.14,1.42,1.43,1.42
182.13,2.99,1.61,3.00,1.62,-1.62,-1.78,-1.19,1.36,1.37,1.38
183.95,2.97,1.64,2.97,1.65,-1.65,-1.83,-1.23,1.31,1.32,1.32
185.79,2.95,1.68,2.95,1.68,-1.68,-1.88,-1.28,1.26,1.27,1.26
187.65,2.93,1.71,2.92,1.71,-1.71,-1.93,-1.32,1.22,1.21,1.21
189.52,2.90,1.73,2.90,1.74,-1.74,-1.97,-1.37,1.16,1.16,1.16
191.42,2.88,1.76,2.88,1.76,-1.76,-2.01,-1.42,1.11,1.11,1.12
193.33,2.85,1.78,2.85,1.79,-1.79,-2.05,-1.46,1.06,1.06,1.07
195.27,2.83,1.81,2.83,1.81,-1.81,-2.08,-1.51,1.01,1.02,1.01
197.22,2.82,1.86,2.81,1.84,-1.84,-2.11,-1.56,0.98,0.97,0.96
199.19,2.80,1.87,2.78,1.86,-1.86,-2.13,-1.61,0.94,0.93,0.92
201.18,2.77,1.90,2.76,1.88,-1.88,-2.15,-1.66,0.89,0.88,0.87
203.19,2.74,1.90,2.74,1.89,-1.89,-2.17,-1.71,0.84,0.84,0.84
205.23,2.71,1.90,2.71,1.91,-1.91,-2.18,-1.76,0.80,0.80,0.81
207.28,2.68,1.91,2.69,1.92,-1.92,-2.19,-1.81,0.75,0.76,0.77
209.35,2.66,1.93,2.67,1.94,-1.94,-2.20,-1.86,0.72,0.73,0.73
211.44,2.64,1.94,2.64,1.95,-1.95,-2.20,-1.91,0.68,0.69,0.69
213.56,2.62,1.95,2.62,1.96,-1.96,-2.19,-1.96,0.65,0.66,0.66
215.69,2.60,1.97,2.60,1.97,-1.97,-2.18,-2.00,0.62,0.62,0.63
217.85,2.58,1.98,2.57,1.98,-1.98,-2.17,-2.05,0.60,0.59,0.59
220.03,2.55,1.99,2.55,1.99,-1.99,-2.15,-2.09,0.56,0.56,0.56
222.23,2.53,2.00,2.52,1.99,-1.99,-2.13,-2.13,0.53,0.53,0.52
224.45,2.51,2.01,2.50,2.00,-2.00,-2.11,-2.17,0.51,0.50,0.50
226.70,2.49,2.02,2.47,2.00,-2.00,-2.08,-2.21,0.49,0.48,0.47
228.96,2.46,2.00,2.45,2.00,-2.00,-2.06,-2.24,0.46,0.45,0.46
231.25,2.44,2.01,2.42,2.00,-2.00,-2.02,-2.27,0.44,0.43,0.43
233.57,2.41,2.00,2.40,1.99,-1.99,-1.99,-2.30,0.41,0.41,0.41
235.90,2.38,1.99,2.38,1.99,-1.99,-1.95,-2.32,0.39,0.39,0.39
238.26,2.35,1.99,2.35,1.98,-1.98,-1.91,-2.34,0.36,0.37,0.36
240.64,2.32,1.96,2.33,1.98,-1.98,-1.87,-2.36,0.34,0.36,0.36
243.05,2.29,1.94,2.31,1.97,-1.97,-1.83,-2.37,0.31,0.34,0.34
245.48,2.28,1.95,2.30,1.97,-1.97,-1.79,-2.38,0.31,0.33,0.33
247.93,2.27,1.96,2.28,1.96,-1.96,-1.75,-2.38,0.31,0.32,0.31
250.41,2.26,1.94,2.26,1.95,-1.95,-1.70,-2.38,0.31,0.31,0.31
252.92,2.25,1.94,2.24,1.94,-1.94,-1.66,-2.37,0.31,0.30,0.31
255.45,2.24,1.94,2.23,1.93,-1.93,-1.61,-2.36,0.31,0.30,0.29
258.00,2.23,1.94,2.21,1.92,-1.92,-1.57,-2.35,0.31,0.29,0.29
260.58,2.21,1.92,2.19,1.91,-1.91,-1.53,-2.33,0.30,0.28,0.29
263.19,2.20,1.91,2.17,1.90,-1.90,-1.48,-2.31,0.30,0.28,0.28
265.82,2.17,1.90,2.16,1.89,-1.89,-1.44,-2.28,0.28,0.27,0.27
268.48,2.14,1.87,2.13,1.87,-1.87,-1.39,-2.25,0.27,0.26,0.27
271.16,2.11,1.84,2.11,1.85,-1.85,-1.35,-2.21,0.25,0.26,0.27
273.87,2.08,1.82,2.09,1.83,-1.83,-1.31,-2.17,0.25,0.26,0.26
276.61,2.05,1.79,2.06,1.81,-1.81,-1.26,-2.13,0.24,0.25,0.25
279.38,2.03,1.79,2.03,1.79,-1.79,-1.22,-2.09,0.24,0.25,0.23
282.17,2.01,1.77,2.01,1.76,-1.76,-1.18,-2.04,0.25,0.25,0.23
284.99,1.99,1.74,1.98,1.73,-1.73,-1.14,-1.99,0.25,0.24,0.24
287.84,1.96,1.71,1.95,1.71,-1.71,-1.10,-1.94,0.25,0.24,0.24
290.72,1.93,1.69,1.93,1.68,-1.68,-1.06,-1.89,0.24,0.24,0.24
293.63,1.90,1.65,1.90,1.66,-1.66,-1.03,-1.84,0.24,0.24,0.25
296.57,1.87,1.62,1.88,1.63,-1.63,-0.99,-1.78,0.23,0.25,0.25
299.53,1.85,1.60,1.86,1.61,-1.61,-0.95,-1.72,0.24,0.25,0.25
302.53,1.83,1.56,1.83,1.58,-1.58,-0.92,-1.67,0.25,0.25,0.26
305.55,1.81,1.55,1.81,1.55,-1.55,-0.88,-1.61,0.26,0.26,0.25
308.61,1.79,1.52,1.78,1.52,-1.52,-0.85,-1.55,0.27,0.26,0.27
311.69,1.76,1.49,1.75,1.48,-1.48,-0.82,-1.49,0.27,0.27,0.27
314.81,1.74,1.46,1.72,1.45,-1.45,-0.79,-1.43,0.29,0.28,0.27
317.96,1.72,1.44,1.70,1.42,-1.42,-0.76,-1.37,0.30,0.28,0.28
321.14,1.69,1.40,1.67,1.38,-1.38,-0.73,-1.32,0.30,0.29,0.29
324.35,1.65,1.36,1.64,1.35,-1.35,-0.70,-1.26,0.30,0.29,0.28
327.59,1.62,1.31,1.62,1.32,-1.32,-0.67,-1.20,0.30,0.30,0.31
330.87,1.58,1.27,1.59,1.29,-1.29,-0.64,-1.14,0.29,0.30,0.30
334.18,1.55,1.24,1.56,1.25,-1.25,-0.61,-1.09,0.29,0.31,0.31
337.52,1.51,1.19,1.53,1.22,-1.22,-0.59,-1.03,0.29,0.32,0.31
340.90,1.49,1.16,1.51,1.18,-1.18,-0.56,-0.97,0.31,0.32,0.33
344.30,1.47,1.13,1.47,1.14,-1.14,-0.54,-0.92,0.32,0.33,0.33
347.75,1.46,1.12,1.44,1.11,-1.11,-0.51,-0.86,0.35,0.34,0.34
351.23,1.44,1.10,1.41,1.07,-1.07,-0.49,-0.81,0.37,0.34,0.33
354.74,1.41,1.05,1.38,1.03,-1.03,-0.46,-0.76,0.38,0.35,0.36
358.28,1.37,1.01,1.35,0.99,-0.99,-0.44,-0.70,0.38,0.36,0.36
361.87,1.33,0.96,1.32,0.95,-0.95,-0.42,-0.65,0.37,0.36,0.36
365.49,1.29,0.92,1.29,0.92,-0.92,-0.40,-0.60,0.37,0.37,0.37
369.14,1.25,0.86,1.26,0.88,-0.88,-0.37,-0.55,0.37,0.38,0.38
372.83,1.21,0.82,1.23,0.84,-0.84,-0.35,-0.50,0.37,0.39,0.39
376.56,1.17,0.78,1.20,0.80,-0.80,-0.33,-0.45,0.37,0.39,0.39
380.33,1.14,0.74,1.16,0.76,-0.76,-0.31,-0.40,0.38,0.40,0.39
384.13,1.12,0.71,1.12,0.71,-0.71,-0.29,-0.35,0.40,0.41,0.41
387.97,1.11,0.69,1.09,0.67,-0.67,-0.27,-0.31,0.44,0.42,0.42
391.85,1.08,0.65,1.05,0.63,-0.63,-0.25,-0.26,0.45,0.43,0.43
395.77,1.05,0.61,1.02,0.59,-0.59,-0.23,-0.21,0.46,0.44,0.43
399.73,1.01,0.57,0.99,0.55,-0.55,-0.21,-0.17,0.46,0.45,0.44
403.72,0.97,0.50,0.96,0.51,-0.51,-0.19,-0.12,0.46,0.46,0.47
407.76,0.93,0.46,0.93,0.47,-0.47,-0.17,-0.08,0.46,0.46,0.46
411.84,0.89,0.41,0.90,0.43,-0.43,-0.15,-0.04,0.46,0.47,0.47
415.96,0.85,0.36,0.87,0.39,-0.39,-0.14,0.01,0.46,0.48,0.49
420.12,0.82,0.33,0.84,0.35,-0.35,-0.12,0.05,0.47,0.49,0.49
424.32,0.80,0.30,0.81,0.31,-0.31,-0.10,0.09,0.49,0.50,0.50
428.56,0.78,0.26,0.77,0.26,-0.26,-0.08,0.13,0.51,0.51,0.51
432.85,0.76,0.23,0.73,0.22,-0.22,-0.06,0.17,0.54,0.52,0.52
437.18,0.73,0.21,0.70,0.18,-0.18,-0.04,0.21,0.55,0.52,0.52
441.55,0.69,0.16,0.67,0.14,-0.14,-0.02,0.24,0.55,0.53,0.53
445.96,0.65,0.11,0.64,0.10,-0.10,-0.01,0.28,0.55,0.54,0.54
450.42,0.61,0.06,0.61,0.06,-0.06,0.01,0.31,0.55,0.55,0.54
454.93,0.57,0.01,0.58,0.02,-0.02,0.03,0.35,0.54,0.56,0.55
459.48,0.53,-0.03,0.55,-0.02,0.02,0.05,0.38,0.54,0.57,0.56
464.07,0.49,-0.09,0.52,-0.06,0.06,0.07,0.41,0.54,0.57,0.58
468.71,0.47,-0.12,0.48,-0.10,0.10,0.09,0.44,0.57,0.58,0.59
473.40,0.45,-0.15,0.45,-0.14,0.14,0.11,0.47,0.59,0.59,0.60
478.13,0.44,-0.17,0.42,-0.19,0.19,0.13,0.49,0.62,0.60,0.61
482.91,0.41,-0.21,0.38,-0.23,0.23,0.15,0.52,0.64,0.61,0.61
487.74,0.38,-0.25,0.35,-0.27,0.27,0.17,0.54,0.65,0.62,0.62
492.62,0.34,-0.30,0.32,-0.31,0.31,0.19,0.56,0.65,0.64,0.63
497.55,0.30,-0.34,0.29,-0.36,0.36,0.21,0.58,0.65,0.65,0.64
502.52,0.26,-0.39,0.26,-0.40,0.40,0.24,0.60,0.65,0.66,0.65
507.55,0.22,-0.45,0.23,-0.44,0.44,0.26,0.62,0.66,0.67,0.67
512.62,0.19,-0.49,0.20,-0.48,0.48,0.28,0.63,0.67,0.68,0.68
517.75,0.16,-0.54,0.17,-0.52,0.52,0.31,0.65,0.68,0.69,0.70
522.93,0.14,-0.57,0.14,-0.56,0.56,0.33,0.66,0.70,0.70,0.71
528.16,0.12,-0.60,0.11,-0.60,0.60,0.36,0.67,0.72,0.72,0.72
533.44,0.09,-0.64,0.09,-0.64,0.64,0.38,0.68,0.73,0.73,0.72
538.77,0.06,-0.68,0.07,-0.67,0.67,0.41,0.69,0.73,0.74,0.73
544.16,0.04,-0.72,0.05,-0.70,0.70,0.44,0.70,0.74,0.75,0.75
