frequency,raw,error,smoothed,error_smoothed,equalization,parametric_eq,fixed_band_eq,equalized_raw,equalized_smoothed,target
20.00,-12.48,-12.82,-12.48,-12.82,12.82,12.14,4.84,0.34,0.34,0.33
20.20,-12.37,-12.80,-12.37,-12.79,12.80,12.09,4.96,0.42,0.42,0.42
20.40,-12.26,-12.77,-12.26,-12.77,12.77,12.03,5.09,0.51,0.51,0.51
20.61,-12.16,-12.73,-12.15,-12.74,12.74,11.97,5.22,0.58,0.59,0.57
20.81,-12.04,-12.71,-12.04,-12.71,12.70,11.92,5.36,0.66,0.66,0.67
21.02,-11.93,-12.68,-11.93,-12.67,12.66,11.86,5.50,0.73,0.73,0.74
21.23,-11.82,-12.63,-11.82,-12.63,12.62,11.80,5.64,0.80,0.80,0.80
21.44,-11.71,-12.58,-11.71,-12.58,12.57,11.75,5.79,0.86,0.86,0.87
21.66,-11.61,-12.52,-11.60,-12.52,12.52,11.69,5.93,0.91,0.92,0.91
21.87,-11.48,-12.45,-11.49,-12.45,12.46,11.64,6.09,0.98,0.97,0.97
22.09,-11.37,-12.39,-11.37,-12.39,12.39,11.58,6.25,1.02,1.02,1.02
22.31,-11.26,-12.33,-11.26,-12.33,12.33,11.52,6.41,1.06,1.06,1.07
22.54,-11.16,-12.26,-11.15,-12.26,12.25,11.47,6.58,1.10,1.10,1.10
22.76,-11.04,-12.19,-11.04,-12.19,12.18,11.41,6.75,1.14,1.14,1.14
22.99,-10.93,-12.11,-10.93,-12.11,12.11,11.35,6.93,1.18,1.18,1.17
23.22,-10.81,-12.03,-10.82,-12.03,12.04,11.30,7.11,1.22,1.22,1.21
23.45,-10.70,-11.96,-10.70,-11.95,11.96,11.24,7.29,1.26,1.26,1.25
23.69,-10.59,-11.88,-10.59,-11.88,11.88,11.18,7.48,1.30,1.30,1.29
23.92,-10.47,-11.81,-10.47,-11.81,11.81,11.13,7.68,1.33,1.34,1.34
24.16,-10.35,-11.74,-10.36,-11.73,11.73,11.07,7.88,1.38,1.37,1.38
24.40,-10.24,-11.66,-10.24,-11.65,11.65,11.01,8.08,1.41,1.41,1.41
24.65,-10.13,-11.57,-10.13,-11.57,11.57,10.96,8.29,1.44,1.44,1.43
24.89,-10.02,-11.49,-10.02,-11.49,11.49,10.90,8.50,1.47,1.47,1.47
25.14,-9.90,-11.41,-9.91,-11.41,11.41,10.85,8.71,1.51,1.50,1.51
25.39,-9.79,-11.33,-9.79,-11.33,11.33,10.79,8.93,1.54,1.54,1.54
25.65,-9.68,-11.26,-9.68,-11.25,11.25,10.73,9.15,1.56,1.57,1.57
25.91,-9.57,-11.16,-9.57,-11.17,11.17,10.68,9.38,1.60,1.60,1.59
26.16,-9.45,-11.08,-9.45,-11.08,11.09,10.62,9.61,1.64,1.63,1.63
26.43,-9.35,-11.01,-9.34,-11.00,11.01,10.56,9.83,1.66,1.66,1.66
26.69,-9.23,-10.93,-9.24,-10.93,10.93,10.51,10.06,1.69,1.69,1.69
26.96,-9.13,-10.85,-9.12,-10.85,10.84,10.45,10.29,1.72,1.72,1.72
27.23,-9.02,-10.77,-9.01,-10.76,10.76,10.39,10.52,1.75,1.75,1.75
27.50,-8.89,-10.68,-8.90,-10.68,10.68,10.34,10.74,1.78,1.78,1.78
27.77,-8.78,-10.59,-8.78,-10.59,10.60,10.28,10.96,1.81,1.81,1.81
28.05,-8.67,-10.52,-8.67,-10.51,10.51,10.22,11.18,1.84,1.84,1.84
28.33,-8.56,-10.43,-8.56,-10.43,10.43,10.16,11.38,1.87,1.87,1.86
28.62,-8.46,-10.35,-8.45,-10.35,10.35,10.11,11.58,1.90,1.90,1.89
28.90,-8.34,-10.28,-8.34,-10.27,10.27,10.05,11.77,1.93,1.93,1.93
29.19,-8.23,-10.19,-8.23,-10.20,10.20,9.99,11.94,1.96,1.96,1.95
29.48,-8.12,-10.13,-8.13,-10.12,10.12,9.93,12.09,2.00,1.99,2.00
29.78,-8.02,-10.04,-8.02,-10.04,10.05,9.87,12.24,2.02,2.02,2.01
30.08,-7.93,-9.97,-7.92,-9.97,9.97,9.82,12.35,2.05,2.05,2.04
30.38,-7.83,-9.90,-7.83,-9.90,9.90,9.76,12.45,2.07,2.07,2.07
30.68,-7.72,-9.83,-7.72,-9.83,9.82,9.70,12.51,2.10,2.10,2.10
30.99,-7.62,-9.75,-7.62,-9.75,9.75,9.64,12.57,2.12,2.12,2.12
31.30,-7.53,-9.67,-7.52,-9.67,9.67,9.58,12.58,2.15,2.15,2.14
31.61,-7.42,-9.60,-7.42,-9.59,9.60,9.52,12.58,2.17,2.17,2.17
31.93,-7.33,-9.52,-7.32,-9.52,9.52,9.46,12.55,2.20,2.20,2.19
32.24,-7.22,-9.44,-7.22,-9.44,9.44,9.40,12.50,2.22,2.22,2.22
32.57,-7.12,-9.37,-7.12,-9.37,9.36,9.33,12.41,2.24,2.24,2.24
32.89,-7.02,-9.29,-7.02,-9.29,9.29,9.27,12.32,2.26,2.26,2.26
33.22,-6.92,-9.21,-6.92,-9.21,9.21,9.21,12.20,2.28,2.29,2.28
33.55,-6.82,-9.13,-6.82,-9.13,9.13,9.14,12.07,2.31,2.31,2.30
33.89,-6.72,-9.04,-6.73,-9.05,9.05,9.08,11.91,2.32,2.32,2.31
34.23,-6.63,-8.97,-6.63,-8.96,8.97,9.01,11.75,2.33,2.33,2.33
34.57,-6.54,-8.89,-6.54,-8.89,8.88,8.95,11.57,2.34,2.34,2.34
34.92,-6.44,-8.80,-6.45,-8.81,8.80,8.88,11.39,2.36,2.35,2.35
35.27,-6.35,-8.73,-6.35,-8.72,8.71,8.81,11.20,2.36,2.36,2.37
35.62,-6.25,-8.62,-6.26,-8.63,8.63,8.74,11.00,2.37,2.37,2.36
35.97,-6.16,-8.54,-6.16,-8.54,8.54,8.67,10.81,2.38,2.38,2.37
36.33,-6.06,-8.46,-6.07,-8.45,8.45,8.60,10.61,2.39,2.39,2.39
36.70,-5.97,-8.36,-5.97,-8.36,8.36,8.53,10.40,2.39,2.39,2.38
37.06,-5.88,-8.27,-5.88,-8.27,8.27,8.45,10.20,2.39,2.39,2.38
37.43,-5.79,-8.18,-5.80,-8.18,8.19,8.38,10.00,2.39,2.39,2.38
37.81,-5.71,-8.10,-5.71,-8.10,8.10,8.30,9.81,2.38,2.38,2.38
38.19,-5.63,-8.02,-5.63,-8.02,8.01,8.22,9.61,2.37,2.38,2.38
38.57,-5.54,-7.93,-5.54,-7.93,7.92,8.14,9.42,2.38,2.38,2.38
38.95,-5.45,-7.84,-5.46,-7.84,7.83,8.06,9.24,2.38,2.37,2.38
39.34,-5.37,-7.74,-5.37,-7.74,7.74,7.97,9.05,2.37,2.37,2.36
39.74,-5.28,-7.65,-5.29,-7.65,7.65,7.89,8.88,2.37,2.37,2.36
40.14,-5.20,-7.56,-5.20,-7.56,7.57,7.80,8.70,2.36,2.36,2.35
40.54,-5.12,-7.48,-5.12,-7.48,7.48,7.71,8.54,2.35,2.35,2.35
40.94,-5.04,-7.39,-5.05,-7.39,7.39,7.62,8.38,2.35,2.35,2.34
41.35,-4.97,-7.32,-4.97,-7.31,7.31,7.53,8.22,2.34,2.34,2.34
41.76,-4.89,-7.23,-4.90,-7.23,7.23,7.44,8.07,2.34,2.34,2.33
42.18,-4.82,-7.15,-4.82,-7.15,7.15,7.34,7.92,2.33,2.33,2.32
42.60,-4.75,-7.07,-4.75,-7.07,7.07,7.25,7.78,2.32,2.32,2.31
43.03,-4.68,-7.00,-4.68,-7.00,6.99,7.16,7.64,2.30,2.30,2.31
43.46,-4.61,-6.92,-4.61,-6.91,6.90,7.07,7.51,2.29,2.29,2.30
43.90,-4.54,-6.83,-4.54,-6.83,6.82,6.99,7.39,2.28,2.28,2.28
44.33,-4.47,-6.74,-4.47,-6.74,6.75,6.90,7.27,2.27,2.27,2.26
44.78,-4.40,-6.66,-4.41,-6.66,6.67,6.82,7.16,2.27,2.27,2.25
45.23,-4.34,-6.59,-4.35,-6.59,6.60,6.75,7.05,2.26,2.25,2.24
45.68,-4.29,-6.53,-4.29,-6.53,6.53,6.67,6.94,2.24,2.24,2.23
46.13,-4.24,-6.47,-4.24,-6.47,6.47,6.61,6.84,2.22,2.23,2.22
46.60,-4.18,-6.41,-4.19,-6.41,6.40,6.54,6.75,2.22,2.22,2.22
47.06,-4.13,-6.35,-4.13,-6.35,6.34,6.48,6.66,2.21,2.21,2.21
47.53,-4.08,-6.29,-4.08,-6.29,6.28,6.43,6.57,2.20,2.20,2.20
48.01,-4.03,-6.24,-4.03,-6.23,6.23,6.38,6.49,2.19,2.20,2.20
48.49,-3.98,-6.18,-3.98,-6.17,6.17,6.33,6.41,2.19,2.19,2.19
48.97,-3.92,-6.11,-3.93,-6.11,6.12,6.28,6.34,2.19,2.19,2.18
49.46,-3.88,-6.05,-3.88,-6.05,6.06,6.24,6.27,2.18,2.18,2.16
49.96,-3.84,-6.00,-3.84,-6.00,6.01,6.19,6.20,2.17,2.17,2.15
50.46,-3.80,-5.97,-3.80,-5.96,5.96,6.15,6.14,2.16,2.16,2.16
50.96,-3.76,-5.93,-3.76,-5.92,5.92,6.10,6.08,2.15,2.16,2.16
51.47,-3.72,-5.88,-3.72,-5.88,5.88,6.05,6.02,2.15,2.16,2.15
51.99,-3.67,-5.83,-3.68,-5.83,5.84,6.00,5.96,2.16,2.16,2.15
52.51,-3.63,-5.79,-3.64,-5.79,5.80,5.95,5.91,2.16,2.16,2.15
53.03,-3.60,-5.76,-3.60,-5.75,5.76,5.90,5.86,2.15,2.16,2.15
53.56,-3.56,-5.72,-3.56,-5.72,5.71,5.85,5.81,2.15,2.15,2.15
54.10,-3.52,-5.67,-3.53,-5.68,5.67,5.79,5.76,2.14,2.14,2.14
54.64,-3.49,-5.63,-3.49,-5.62,5.62,5.73,5.71,2.13,2.13,2.13
55.18,-3.45,-5.58,-3.45,-5.57,5.57,5.67,5.66,2.12,2.12,2.12
55.74,-3.40,-5.51,-3.41,-5.52,5.52,5.60,5.61,2.12,2.11,2.10
56.29,-3.36,-5.47,-3.37,-5.47,5.47,5.54,5.56,2.11,2.10,2.10
56.86,-3.33,-5.42,-3.33,-5.41,5.42,5.47,5.51,2.08,2.09,2.08
57.42,-3.29,-5.36,-3.29,-5.36,5.37,5.40,5.45,2.07,2.07,2.06
58.00,-3.25,-5.31,-3.25,-5.31,5.31,5.33,5.40,2.06,2.06,2.05
58.58,-3.21,-5.25,-3.21,-5.25,5.25,5.25,5.34,2.04,2.04,2.03
59.16,-3.17,-5.20,-3.17,-5.20,5.19,5.17,5.28,2.02,2.02,2.02
59.76,-3.13,-5.14,-3.13,-5.14,5.13,5.09,5.22,1.99,2.00,2.00
60.35,-3.08,-5.06,-3.09,-5.07,5.06,5.01,5.15,1.97,1.97,1.97
60.96,-3.03,-5.00,-3.04,-4.99,4.98,4.93,5.09,1.95,1.95,1.96
61.57,-2.98,-4.90,-2.98,-4.90,4.90,4.84,5.01,1.92,1.92,1.91
62.18,-2.92,-4.81,-2.92,-4.82,4.82,4.76,4.94,1.90,1.90,1.88
62.80,-2.86,-4.74,-2.86,-4.73,4.74,4.67,4.85,1.87,1.87,1.87
63.43,-2.80,-4.64,-2.80,-4.65,4.65,4.58,4.77,1.85,1.85,1.83
64.07,-2.74,-4.56,-2.75,-4.56,4.57,4.48,4.68,1.82,1.82,1.81
64.71,-2.68,-4.49,-2.68,-4.48,4.48,4.39,4.59,1.80,1.80,1.80
65.35,-2.61,-4.40,-2.61,-4.40,4.39,4.29,4.49,1.78,1.78,1.78
66.01,-2.53,-4.31,-2.54,-4.31,4.31,4.20,4.39,1.77,1.77,1.77
66.67,-2.45,-4.22,-2.45,-4.22,4.22,4.10,4.28,1.76,1.76,1.76
67.33,-2.37,-4.13,-2.37,-4.13,4.13,4.00,4.18,1.76,1.76,1.75
68.01,-2.28,-4.03,-2.29,-4.03,4.04,3.90,4.07,1.75,1.75,1.74
68.69,-2.20,-3.94,-2.20,-3.94,3.95,3.80,3.95,1.74,1.74,1.73
69.37,-2.11,-3.85,-2.12,-3.85,3.85,3.69,3.83,1.74,1.73,1.73
70.07,-2.03,-3.76,-2.03,-3.76,3.75,3.59,3.71,1.72,1.72,1.72
70.77,-1.93,-3.66,-1.94,-3.66,3.65,3.48,3.59,1.72,1.71,1.72
71.48,-1.84,-3.56,-1.84,-3.55,3.55,3.37,3.47,1.70,1.71,1.71
72.19,-1.74,-3.44,-1.74,-3.44,3.44,3.27,3.34,1.70,1.70,1.69
72.91,-1.64,-3.34,-1.65,-3.33,3.33,3.16,3.21,1.69,1.69,1.69
73.64,-1.54,-3.22,-1.54,-3.22,3.22,3.05,3.09,1.68,1.68,1.67
74.38,-1.44,-3.11,-1.44,-3.10,3.11,2.94,2.96,1.66,1.66,1.66
75.12,-1.33,-2.98,-1.34,-2.99,2.99,2.82,2.83,1.66,1.65,1.64
75.87,-1.24,-2.88,-1.24,-2.88,2.88,2.71,2.70,1.64,1.64,1.63
76.63,-1.14,-2.77,-1.14,-2.76,2.77,2.60,2.56,1.63,1.62,1.62
77.40,-1.05,-2.66,-1.05,-2.66,2.66,2.48,2.43,1.61,1.61,1.60
78.17,-0.96,-2.55,-0.96,-2.56,2.56,2.37,2.30,1.59,1.59,1.58
78.95,-0.87,-2.46,-0.87,-2.45,2.45,2.25,2.17,1.58,1.58,1.58
79.74,-0.78,-2.36,-0.78,-2.35,2.35,2.13,2.04,1.57,1.57,1.57
80.54,-0.68,-2.25,-0.69,-2.25,2.25,2.02,1.91,1.57,1.56,1.56
81.35,-0.59,-2.15,-0.59,-2.15,2.15,1.90,1.77,1.56,1.56,1.55
82.16,-0.50,-2.05,-0.50,-2.05,2.05,1.78,1.64,1.55,1.55,1.54
82.98,-0.40,-1.96,-0.41,-1.95,1.95,1.66,1.51,1.55,1.54,1.55
83.81,-0.31,-1.86,-0.31,-1.85,1.85,1.54,1.38,1.54,1.54,1.54
84.65,-0.21,-1.75,-0.21,-1.75,1.75,1.42,1.25,1.54,1.54,1.53
85.50,-0.10,-1.65,-0.11,-1.65,1.65,1.30,1.12,1.55,1.54,1.54
86.35,-0.00,-1.55,-0.01,-1.55,1.55,1.18,0.99,1.55,1.55,1.54
87.22,0.09,-1.45,0.09,-1.45,1.45,1.06,0.86,1.54,1.54,1.53
88.09,0.19,-1.35,0.19,-1.35,1.35,0.94,0.74,1.53,1.53,1.53
88.97,0.29,-1.24,0.28,-1.24,1.24,0.82,0.61,1.52,1.52,1.52
89.86,0.38,-1.14,0.38,-1.13,1.13,0.70,0.48,1.50,1.51,1.51
90.76,0.48,-1.02,0.48,-1.02,1.02,0.58,0.35,1.49,1.49,1.49
91.66,0.58,-0.90,0.58,-0.90,0.90,0.46,0.23,1.48,1.48,1.47
92.58,0.68,-0.77,0.68,-0.77,0.78,0.33,0.10,1.46,1.46,1.44
93.51,0.78,-0.65,0.77,-0.65,0.65,0.21,-0.03,1.43,1.43,1.42
94.44,0.87,-0.53,0.87,-0.53,0.52,0.09,-0.15,1.39,1.39,1.39
95.39,0.96,-0.40,0.96,-0.40,0.39,-0.03,-0.28,1.34,1.35,1.35
96.34,1.06,-0.26,1.05,-0.26,0.25,-0.15,-0.41,1.30,1.30,1.31
97.30,1.15,-0.11,1.15,-0.11,0.10,-0.27,-0.53,1.25,1.25,1.25
98.28,1.24,0.03,1.24,0.03,-0.04,-0.39,-0.66,1.20,1.20,1.20
99.26,1.34,0.18,1.34,0.19,-0.18,-0.51,-0.78,1.15,1.15,1.15
100.25,1.44,0.34,1.44,0.34,-0.33,-0.63,-0.90,1.11,1.11,1.09
101.25,1.53,0.49,1.52,0.49,-0.47,-0.75,-1.03,1.06,1.06,1.03
102.27,1.61,0.63,1.60,0.62,-0.61,-0.87,-1.15,1.00,0.99,0.97
103.29,1.66,0.74,1.66,0.74,-0.74,-0.99,-1.27,0.91,0.92,0.91
104.32,1.72,0.85,1.72,0.87,-0.88,-1.11,-1.39,0.84,0.84,0.86
105.37,1.80,1.00,1.80,1.00,-1.01,-1.23,-1.51,0.78,0.78,0.79
106.42,1.89,1.15,1.88,1.14,-1.15,-1.35,-1.63,0.74,0.73,0.73
107.48,1.97,1.28,1.96,1.28,-1.29,-1.47,-1.74,0.68,0.68,0.68
108.56,2.04,1.41,2.05,1.42,-1.42,-1.58,-1.86,0.61,0.62,0.62
109.64,2.14,1.57,2.13,1.56,-1.56,-1.70,-1.97,0.57,0.57,0.56
110.74,2.22,1.70,2.22,1.70,-1.70,-1.81,-2.08,0.52,0.52,0.51
111.85,2.31,1.83,2.30,1.84,-1.83,-1.93,-2.18,0.48,0.47,0.47
112.97,2.38,1.97,2.38,1.96,-1.96,-2.04,-2.29,0.42,0.42,0.40
114.10,2.45,2.08,2.45,2.09,-2.08,-2.16,-2.39,0.37,0.37,0.36
115.24,2.52,2.20,2.51,2.20,-2.20,-2.27,-2.48,0.32,0.31,0.31
116.39,2.57,2.30,2.57,2.30,-2.31,-2.38,-2.58,0.26,0.26,0.26
117.55,2.63,2.40,2.63,2.41,-2.42,-2.49,-2.67,0.21,0.22,0.22
118.73,2.70,2.51,2.70,2.51,-2.52,-2.60,-2.75,0.18,0.19,0.18
119.92,2.78,2.62,2.77,2.62,-2.61,-2.71,-2.83,0.17,0.16,0.15
121.12,2.85,2.72,2.84,2.71,-2.70,-2.82,-2.91,0.14,0.13,0.12
122.33,2.89,2.79,2.89,2.79,-2.79,-2.92,-2.98,0.10,0.10,0.09
123.55,2.93,2.86,2.94,2.87,-2.87,-3.03,-3.05,0.05,0.07,0.06
124.79,2.99,2.95,2.98,2.95,-2.95,-3.13,-3.11,0.03,0.03,0.03
126.03,3.05,3.03,3.03,3.02,-3.03,-3.24,-3.18,0.01,0.00,0.01
127.29,3.08,3.09,3.08,3.10,-3.11,-3.34,-3.23,-0.03,-0.03,-0.02
128.57,3.13,3.18,3.13,3.18,-3.18,-3.44,-3.28,-0.06,-0.05,-0.06
129.85,3.18,3.25,3.18,3.26,-3.26,-3.54,-3.32,-0.08,-0.08,-0.08
131.15,3.24,3.34,3.23,3.34,-3.33,-3.64,-3.37,-0.09,-0.10,-0.11
132.46,3.27,3.41,3.27,3.41,-3.40,-3.73,-3.40,-0.13,-0.13,-0.15
133.79,3.31,3.47,3.31,3.48,-3.47,-3.83,-3.44,-0.16,-0.16,-0.17
135.12,3.35,3.54,3.34,3.54,-3.54,-3.92,-3.47,-0.19,-0.20,-0.20
136.48,3.37,3.59,3.37,3.60,-3.61,-4.01,-3.50,-0.24,-0.23,-0.23
137.84,3.41,3.66,3.40,3.66,-3.68,-4.10,-3.52,-0.27,-0.28,-0.26
139.22,3.43,3.73,3.44,3.73,-3.75,-4.19,-3.55,-0.32,-0.31,-0.31
140.61,3.48,3.81,3.48,3.81,-3.81,-4.28,-3.57,-0.34,-0.33,-0.34
142.02,3.54,3.89,3.53,3.89,-3.88,-4.37,-3.59,-0.35,-0.36,-0.36
143.44,3.57,3.96,3.57,3.97,-3.95,-4.45,-3.61,-0.38,-0.38,-0.40
144.87,3.61,4.04,3.60,4.04,-4.02,-4.54,-3.63,-0.41,-0.42,-0.44
146.32,3.63,4.10,3.62,4.09,-4.09,-4.62,-3.65,-0.46,-0.46,-0.48
147.78,3.65,4.15,3.65,4.15,-4.16,-4.70,-3.67,-0.51,-0.51,-0.51
149.26,3.67,4.20,3.67,4.21,-4.23,-4.78,-3.69,-0.56,-0.56,-0.54
150.75,3.71,4.29,3.71,4.29,-4.30,-4.85,-3.71,-0.60,-0.60,-0.59
152.26,3.75,4.37,3.75,4.37,-4.38,-4.93,-3.73,-0.64,-0.63,-0.63
153.78,3.81,4.46,3.80,4.46,-4.47,-5.00,-3.75,-0.66,-0.66,-0.66
155.32,3.85,4.55,3.85,4.55,-4.55,-5.07,-3.78,-0.70,-0.70,-0.71
156.88,3.91,4.64,3.90,4.64,-4.64,-5.14,-3.80,-0.73,-0.74,-0.74
158.44,3.94,4.73,3.94,4.73,-4.72,-5.21,-3.83,-0.79,-0.78,-0.80
160.03,3.99,4.82,3.98,4.82,-4.81,-5.27,-3.86,-0.82,-0.83,-0.84
161.63,4.01,4.89,4.01,4.89,-4.88,-5.33,-3.90,-0.88,-0.88,-0.89
163.24,4.03,4.95,4.03,4.96,-4.96,-5.40,-3.93,-0.93,-0.92,-0.93
164.88,4.06,5.02,4.05,5.02,-5.02,-5.45,-3.97,-0.97,-0.97,-0.97
166.53,4.08,5.08,4.08,5.08,-5.08,-5.51,-4.01,-1.01,-1.01,-1.01
168.19,4.10,5.14,4.10,5.15,-5.14,-5.57,-4.06,-1.05,-1.04,-1.05
169.87,4.13,5.21,4.12,5.20,-5.19,-5.62,-4.10,-1.07,-1.08,-1.09
171.57,4.13,5.24,4.13,5.24,-5.24,-5.67,-4.15,-1.12,-1.12,-1.12
173.29,4.13,5.28,4.13,5.29,-5.29,-5.72,-4.21,-1.17,-1.16,-1.16
175.02,4.14,5.33,4.14,5.33,-5.34,-5.77,-4.27,-1.20,-1.20,-1.20
176.77,4.16,5.38,4.15,5.38,-5.38,-5.81,-4.33,-1.23,-1.23,-1.23
178.54,4.17,5.42,4.16,5.42,-5.42,-5.86,-4.39,-1.26,-1.26,-1.26
180.32,4.18,5.46,4.18,5.46,-5.46,-5.90,-4.46,-1.28,-1.28,-1.29
182.13,4.19,5.49,4.19,5.50,-5.50,-5.94,-4.53,-1.31,-1.30,-1.31
183.95,4.21,5.53,4.20,5.53,-5.53,-5.97,-4.60,-1.32,-1.32,-1.33
185.79,4.22,5.56,4.21,5.56,-5.55,-6.01,-4.68,-1.34,-1.34,-1.35
187.65,4.22,5.58,4.22,5.58,-5.58,-6.04,-4.76,-1.36,-1.36,-1.37
189.52,4.22,5.59,4.22,5.60,-5.60,-6.07,-4.85,-1.38,-1.38,-1.38
191.42,4.22,5.61,4.22,5.61,-5.61,-6.10,-4.93,-1.40,-1.39,-1.40
193.33,4.22,5.62,4.21,5.62,-5.62,-6.12,-5.02,-1.41,-1.41,-1.41
195.27,4.21,5.62,4.21,5.63,-5.63,-6.15,-5.12,-1.42,-1.42,-1.42
197.22,4.20,5.63,4.20,5.63,-5.63,-6.17,-5.21,-1.43,-1.43,-1.44
199.19,4.19,5.64,4.19,5.64,-5.63,-6.19,-5.31,-1.44,-1.44,-1.46
201.18,4.18,5.64,4.17,5.64,-5.62,-6.21,-5.41,-1.45,-1.45,-1.47
203.19,4.16,5.62,4.15,5.63,-5.62,-6.23,-5.51,-1.47,-1.47,-1.47
205.23,4.14,5.62,4.14,5.61,-5.63,-6.24,-5.61,-1.49,-1.49,-1.49
207.28,4.12,5.60,4.12,5.61,-5.63,-6.25,-5.72,-1.52,-1.51,-1.49
209.35,4.12,5.62,4.12,5.63,-5.64,-6.26,-5.82,-1.53,-1.52,-1.51
211.44,4.13,5.65,4.13,5.65,-5.66,-6.27,-5.92,-1.53,-1.53,-1.53
213.56,4.16,5.69,4.15,5.68,-5.68,-6.27,-6.03,-1.52,-1.53,-1.54
215.69,4.17,5.70,4.16,5.71,-5.70,-6.28,-6.13,-1.53,-1.53,-1.54
217.85,4.18,5.73,4.18,5.73,-5.72,-6.28,-6.23,-1.54,-1.54,-1.56
220.03,4.18,5.74,4.18,5.75,-5.74,-6.28,-6.32,-1.57,-1.56,-1.57
222.23,4.19,5.77,4.18,5.76,-5.76,-6.28,-6.42,-1.58,-1.58,-1.59
224.45,4.19,5.77,4.19,5.78,-5.78,-6.27,-6.51,-1.59,-1.59,-1.59
226.70,4.19,5.79,4.18,5.79,-5.79,-6.27,-6.59,-1.60,-1.60,-1.61
228.96,4.18,5.79,4.18,5.79,-5.79,-6.26,-6.67,-1.62,-1.61,-1.62
231.25,4.18,5.80,4.17,5.80,-5.80,-6.25,-6.73,-1.62,-1.62,-1.63
233.57,4.17,5.81,4.17,5.81,-5.80,-6.24,-6.80,-1.64,-1.64,-1.65
235.90,4.16,5.81,4.15,5.81,-5.80,-6.23,-6.85,-1.65,-1.65,-1.66
238.26,4.14,5.81,4.14,5.81,-5.81,-6.21,-6.90,-1.67,-1.67,-1.68
240.64,4.12,5.81,4.12,5.81,-5.82,-6.19,-6.93,-1.70,-1.70,-1.70
243.05,4.11,5.81,4.11,5.81,-5.83,-6.18,-6.95,-1.72,-1.72,-1.71
245.48,4.11,5.82,4.11,5.83,-5.84,-6.16,-6.96,-1.73,-1.73,-1.72
247.93,4.13,5.85,4.13,5.85,-5.86,-6.13,-6.97,-1.73,-1.73,-1.73
250.41,4.15,5.88,4.15,5.88,-5.88,-6.11,-6.95,-1.73,-1.73,-1.74
252.92,4.19,5.91,4.18,5.91,-5.90,-6.08,-6.93,-1.72,-1.72,-1.73
255.45,4.21,5.93,4.21,5.94,-5.93,-6.06,-6.90,-1.73,-1.72,-1.73
258.00,4.25,5.96,4.24,5.96,-5.96,-6.03,-6.85,-1.72,-1.72,-1.72
260.58,4.28,5.99,4.28,5.99,-5.99,-6.00,-6.80,-1.72,-1.72,-1.72
263.19,4.31,6.01,4.31,6.02,-6.02,-5.97,-6.73,-1.71,-1.71,-1.71
265.82,4.36,6.05,4.35,6.04,-6.05,-5.93,-6.65,-1.69,-1.70,-1.70
268.48,4.39,6.06,4.39,6.07,-6.07,-5.90,-6.57,-1.68,-1.68,-1.68
271.16,4.43,6.08,4.43,6.08,-6.08,-5.86,-6.47,-1.66,-1.66,-1.66
273.87,4.46,6.10,4.45,6.09,-6.09,-5.82,-6.37,-1.63,-1.64,-1.65
276.61,4.48,6.09,4.47,6.10,-6.09,-5.78,-6.26,-1.61,-1.61,-1.62
279.38,4.48,6.09,4.48,6.09,-6.07,-5.74,-6.14,-1.60,-1.60,-1.62
282.17,4.47,6.06,4.47,6.06,-6.05,-5.69,-6.02,-1.58,-1.58,-1.60
284.99,4.45,6.03,4.44,6.02,-6.02,-5.65,-5.89,-1.57,-1.58,-1.59
287.84,4.41,5.97,4.41,5.97,-5.98,-5.60,-5.76,-1.57,-1.57,-1.57
290.72,4.37,5.91,4.37,5.92,-5.94,-5.55,-5.63,-1.57,-1.56,-1.55
293.63,4.35,5.88,4.34,5.87,-5.89,-5.50,-5.49,-1.54,-1.55,-1.54
296.57,4.32,5.82,4.32,5.83,-5.84,-5.44,-5.35,-1.52,-1.52,-1.51
299.53,4.29,5.78,4.29,5.78,-5.78,-5.39,-5.21,-1.50,-1.50,-1.50
302.53,4.26,5.74,4.25,5.73,-5.72,-5.33,-5.07,-1.47,-1.47,-1.49
305.55,4.22,5.67,4.22,5.68,-5.67,-5.27,-4.93,-1.45,-1.45,-1.46
308.61,4.19,5.62,4.18,5.61,-5.60,-5.21,-4.79,-1.42,-1.42,-1.44
311.69,4.14,5.54,4.14,5.54,-5.54,-5.15,-4.65,-1.40,-1.40,-1.41
314.81,4.09,5.45,4.09,5.46,-5.47,-5.09,-4.52,-1.39,-1.39,-1.37
317.96,4.04,5.39,4.04,5.39,-5.40,-5.02,-4.38,-1.37,-1.37,-1.36
321.14,3.99,5.32,3.99,5.32,-5.33,-4.95,-4.24,-1.34,-1.35,-1.34
324.35,3.94,5.25,3.93,5.25,-5.25,-4.88,-4.11,-1.32,-1.32,-1.32
327.59,3.88,5.17,3.88,5.18,-5.17,-4.80,-3.97,-1.29,-1.29,-1.30
330.87,3.83,5.10,3.82,5.09,-5.08,-4.73,-3.84,-1.25,-1.26,-1.28
334.18,3.76,5.00,3.75,5.00,-4.98,-4.65,-3.71,-1.23,-1.24,-1.25
337.52,3.66,4.88,3.66,4.89,-4.88,-4.57,-3.59,-1.22,-1.22,-1.23
340.90,3.57,4.77,3.56,4.77,-4.77,-4.48,-3.46,-1.20,-1.21,-1.21
344.30,3.46,4.63,3.46,4.64,-4.65,-4.39,-3.34,-1.20,-1.19,-1.18
347.75,3.37,4.52,3.36,4.51,-4.53,-4.30,-3.22,-1.16,-1.16,-1.16
351.23,3.26,4.38,3.26,4.38,-4.39,-4.20,-3.10,-1.14,-1.13,-1.13
354.74,3.15,4.24,3.15,4.25,-4.25,-4.10,-2.99,-1.10,-1.10,-1.10
358.28,3.04,4.12,3.03,4.11,-4.10,-4.00,-2.87,-1.07,-1.07,-1.09
361.87,2.91,3.96,2.90,3.95,-3.94,-3.89,-2.76,-1.04,-1.05,-1.06
365.49,2.75,3.77,2.76,3.79,-3.78,-3.77,-2.65,-1.03,-1.02,-1.03
369.14,2.60,3.61,2.60,3.61,-3.60,-3.65,-2.55,-1.00,-1.00,-1.02
372.83,2.46,3.44,2.44,3.42,-3.42,-3.53,-2.44,-0.96,-0.98,-0.99
376.56,2.26,3.22,2.26,3.22,-3.23,-3.40,-2.34,-0.97,-0.97,-0.97
380.33,2.07,3.00,2.08,3.02,-3.03,-3.26,-2.24,-0.97,-0.96,-0.94
384.13,1.90,2.82,1.90,2.82,-2.84,-3.11,-2.14,-0.94,-0.94,-0.93
387.97,1.73,2.63,1.73,2.63,-2.64,-2.96,-2.05,-0.91,-0.91,-0.91
391.85,1.56,2.45,1.55,2.44,-2.44,-2.79,-1.96,-0.88,-0.88,-0.90
395.77,1.38,2.24,1.38,2.25,-2.23,-2.62,-1.86,-0.86,-0.86,-0.87
399.73,1.19,2.04,1.18,2.04,-2.03,-2.44,-1.78,-0.84,-0.84,-0.86
403.72,0.99,1.84,0.98,1.83,-1.82,-2.26,-1.69,-0.84,-0.84,-0.86
407.76,0.77,1.61,0.77,1.61,-1.62,-2.06,-1.60,-0.85,-0.85,-0.85
411.84,0.56,1.39,0.56,1.40,-1.41,-1.85,-1.52,-0.85,-0.85,-0.84
415.96,0.35,1.19,0.35,1.19,-1.20,-1.63,-1.44,-0.86,-0.86,-0.85
420.12,0.15,0.99,0.15,0.99,-1.00,-1.40,-1.36,-0.85,-0.85,-0.85
424.32,-0.05,0.79,-0.04,0.80,-0.80,-1.16,-1.29,-0.85,-0.84,-0.85
428.56,-0.22,0.62,-0.23,0.62,-0.60,-0.92,-1.21,-0.83,-0.84,-0.85
432.85,-0.41,0.44,-0.42,0.43,-0.41,-0.67,-1.14,-0.83,-0.84,-0.86
437.18,-0.62,0.23,-0.61,0.24,-0.23,-0.42,-1.07,-0.85,-0.84,-0.86
441.55,-0.80,0.05,-0.81,0.05,-0.05,-0.18,-1.01,-0.85,-0.86,-0.86
445.96,-0.98,-0.12,-0.99,-0.12,0.12,0.06,-0.94,-0.86,-0.86,-0.87
450.42,-1.15,-0.29,-1.15,-0.28,0.28,0.29,-0.88,-0.87,-0.87,-0.87
454.93,-1.29,-0.43,-1.30,-0.43,0.42,0.50,-0.82,-0.87,-0.88,-0.87
459.48,-1.43,-0.56,-1.42,-0.56,0.55,0.68,-0.77,-0.89,-0.88,-0.88
464.07,-1.52,-0.66,-1.53,-0.66,0.65,0.84,-0.71,-0.88,-0.88,-0.87
468.71,-1.60,-0.74,-1.61,-0.74,0.73,0.95,-0.66,-0.88,-0.88,-0.87
473.40,-1.66,-0.79,-1.66,-0.79,0.79,1.03,-0.62,-0.88,-0.87,-0.88
478.13,-1.69,-0.83,-1.69,-0.82,0.82,1.06,-0.57,-0.88,-0.87,-0.87
