frequency,raw,error,smoothed,error_smoothed,equalization,parametric_eq,fixed_band_eq,equalized_raw,equalized_smoothed,target
20.00,8.92,0.34,8.93,0.34,-0.34,-0.88,-0.48,8.58,8.58,8.58
20.20,8.94,0.37,8.94,0.37,-0.37,-0.89,-0.49,8.57,8.57,8.57
20.40,8.96,0.40,8.96,0.40,-0.40,-0.90,-0.51,8.56,8.56,8.56
20.61,8.98,0.43,8.98,0.43,-0.43,-0.90,-0.52,8.55,8.55,8.55
20.81,8.99,0.46,9.00,0.46,-0.46,-0.91,-0.53,8.53,8.54,8.53
21.02,9.01,0.49,9.02,0.49,-0.49,-0.91,-0.55,8.53,8.53,8.52
21.23,9.03,0.52,9.03,0.52,-0.52,-0.92,-0.56,8.52,8.52,8.51
21.44,9.05,0.53,9.05,0.54,-0.55,-0.93,-0.58,8.51,8.51,8.52
21.66,9.07,0.57,9.07,0.57,-0.57,-0.93,-0.59,8.50,8.50,8.50
21.87,9.09,0.59,9.10,0.60,-0.60,-0.94,-0.61,8.49,8.49,8.50
22.09,9.11,0.63,9.11,0.63,-0.63,-0.95,-0.63,8.49,8.49,8.48
22.31,9.13,0.66,9.13,0.66,-0.66,-0.95,-0.64,8.48,8.48,8.47
22.54,9.14,0.68,9.15,0.68,-0.68,-0.96,-0.66,8.46,8.47,8.46
22.76,9.16,0.70,9.17,0.71,-0.71,-0.97,-0.68,8.46,8.46,8.46
22.99,9.18,0.73,9.18,0.73,-0.73,-0.98,-0.70,8.45,8.45,8.45
23.22,9.20,0.76,9.21,0.76,-0.76,-0.98,-0.72,8.45,8.45,8.44
23.45,9.22,0.77,9.22,0.78,-0.78,-0.99,-0.73,8.45,8.45,8.45
23.69,9.24,0.80,9.24,0.80,-0.80,-1.00,-0.75,8.45,8.44,8.44
23.92,9.25,0.82,9.26,0.82,-0.82,-1.01,-0.77,8.44,8.44,8.43
24.16,9.27,0.83,9.28,0.84,-0.84,-1.02,-0.79,8.44,8.44,8.44
24.40,9.29,0.85,9.29,0.86,-0.86,-1.02,-0.82,8.43,8.43,8.44
24.65,9.31,0.88,9.31,0.88,-0.88,-1.03,-0.84,8.43,8.43,8.43
24.89,9.32,0.89,9.33,0.90,-0.90,-1.04,-0.86,8.43,8.43,8.43
25.14,9.34,0.92,9.35,0.92,-0.92,-1.05,-0.88,8.43,8.43,8.42
25.39,9.37,0.94,9.36,0.94,-0.94,-1.06,-0.90,8.43,8.43,8.42
25.65,9.38,0.96,9.38,0.96,-0.96,-1.07,-0.92,8.43,8.42,8.42
25.91,9.39,0.97,9.40,0.97,-0.97,-1.08,-0.95,8.42,8.42,8.42
26.16,9.41,0.98,9.41,0.99,-0.99,-1.09,-0.97,8.42,8.42,8.43
26.43,9.43,1.01,9.43,1.01,-1.01,-1.10,-0.99,8.43,8.42,8.42
26.69,9.44,1.02,9.45,1.02,-1.02,-1.11,-1.01,8.42,8.42,8.42
26.96,9.46,1.04,9.46,1.04,-1.04,-1.12,-1.04,8.42,8.42,8.42
27.23,9.47,1.05,9.48,1.05,-1.06,-1.13,-1.06,8.42,8.42,8.42
27.50,9.49,1.07,9.49,1.07,-1.07,-1.14,-1.08,8.42,8.42,8.42
27.77,9.51,1.08,9.51,1.09,-1.08,-1.15,-1.10,8.43,8.43,8.43
28.05,9.52,1.10,9.53,1.10,-1.10,-1.16,-1.12,8.43,8.43,8.42
28.33,9.54,1.11,9.54,1.11,-1.11,-1.17,-1.15,8.43,8.43,8.43
28.62,9.55,1.12,9.56,1.12,-1.12,-1.18,-1.17,8.43,8.43,8.43
28.90,9.57,1.13,9.57,1.13,-1.14,-1.19,-1.19,8.44,8.43,8.44
29.19,9.58,1.14,9.58,1.15,-1.15,-1.20,-1.21,8.43,8.43,8.44
29.48,9.59,1.16,9.60,1.16,-1.17,-1.21,-1.23,8.43,8.43,8.43
29.78,9.61,1.18,9.61,1.18,-1.18,-1.22,-1.25,8.43,8.43,8.43
30.08,9.62,1.19,9.62,1.20,-1.20,-1.24,-1.26,8.43,8.43,8.43
30.38,9.63,1.22,9.64,1.22,-1.21,-1.25,-1.28,8.42,8.42,8.41
30.68,9.64,1.23,9.64,1.23,-1.23,-1.26,-1.30,8.42,8.42,8.41
30.99,9.65,1.24,9.65,1.24,-1.25,-1.27,-1.31,8.41,8.41,8.41
31.30,9.66,1.25,9.66,1.26,-1.26,-1.29,-1.33,8.40,8.40,8.41
31.61,9.67,1.27,9.67,1.27,-1.28,-1.30,-1.35,8.40,8.40,8.40
31.93,9.68,1.30,9.68,1.29,-1.29,-1.31,-1.36,8.39,8.39,8.38
32.24,9.69,1.30,9.70,1.31,-1.31,-1.33,-1.37,8.39,8.39,8.39
32.57,9.70,1.33,9.70,1.33,-1.32,-1.34,-1.39,8.38,8.38,8.37
32.89,9.71,1.34,9.71,1.34,-1.34,-1.35,-1.40,8.38,8.37,8.37
33.22,9.71,1.35,9.72,1.35,-1.36,-1.37,-1.41,8.36,8.36,8.36
33.55,9.72,1.36,9.72,1.37,-1.37,-1.38,-1.42,8.35,8.35,8.36
33.89,9.73,1.38,9.73,1.38,-1.38,-1.40,-1.43,8.35,8.35,8.35
34.23,9.73,1.40,9.74,1.40,-1.40,-1.41,-1.44,8.34,8.34,8.33
34.57,9.74,1.41,9.75,1.42,-1.41,-1.43,-1.45,8.33,8.33,8.33
34.92,9.75,1.44,9.75,1.43,-1.43,-1.44,-1.46,8.32,8.32,8.31
35.27,9.76,1.43,9.76,1.45,-1.45,-1.46,-1.48,8.32,8.32,8.33
35.62,9.77,1.47,9.77,1.47,-1.47,-1.47,-1.49,8.30,8.30,8.30
35.97,9.78,1.48,9.78,1.49,-1.49,-1.49,-1.50,8.29,8.29,8.30
36.33,9.79,1.51,9.79,1.52,-1.52,-1.51,-1.51,8.28,8.28,8.28
36.70,9.80,1.54,9.80,1.54,-1.54,-1.52,-1.52,8.26,8.26,8.26
37.06,9.81,1.57,9.82,1.57,-1.57,-1.54,-1.53,8.25,8.25,8.24
37.43,9.82,1.60,9.82,1.60,-1.60,-1.56,-1.54,8.23,8.23,8.22
37.81,9.83,1.62,9.83,1.63,-1.62,-1.57,-1.56,8.21,8.21,8.21
38.19,9.83,1.65,9.84,1.65,-1.65,-1.59,-1.57,8.18,8.19,8.18
38.57,9.84,1.68,9.84,1.67,-1.68,-1.61,-1.59,8.17,8.16,8.16
38.95,9.84,1.69,9.84,1.70,-1.70,-1.63,-1.60,8.14,8.14,8.15
39.34,9.84,1.72,9.85,1.73,-1.73,-1.65,-1.62,8.11,8.12,8.12
39.74,9.85,1.76,9.85,1.75,-1.75,-1.66,-1.64,8.10,8.10,8.09
40.14,9.85,1.78,9.85,1.78,-1.78,-1.68,-1.66,8.08,8.08,8.07
40.54,9.85,1.80,9.86,1.81,-1.80,-1.70,-1.68,8.05,8.05,8.05
40.94,9.85,1.83,9.85,1.83,-1.82,-1.72,-1.70,8.03,8.03,8.02
41.35,9.85,1.84,9.85,1.85,-1.85,-1.74,-1.72,8.01,8.01,8.01
41.76,9.85,1.87,9.85,1.87,-1.87,-1.76,-1.74,7.98,7.98,7.98
42.18,9.85,1.88,9.85,1.89,-1.89,-1.78,-1.77,7.96,7.96,7.97
42.60,9.85,1.91,9.85,1.91,-1.92,-1.80,-1.79,7.94,7.94,7.94
43.03,9.85,1.93,9.85,1.94,-1.94,-1.82,-1.82,7.91,7.92,7.92
43.46,9.85,1.97,9.86,1.97,-1.96,-1.85,-1.85,7.89,7.89,7.88
43.90,9.85,1.99,9.85,1.99,-1.99,-1.87,-1.88,7.87,7.87,7.86
44.33,9.85,2.02,9.85,2.02,-2.01,-1.89,-1.91,7.84,7.84,7.83
44.78,9.84,2.03,9.85,2.04,-2.04,-1.91,-1.95,7.81,7.81,7.81
45.23,9.84,2.05,9.84,2.06,-2.06,-1.94,-1.98,7.78,7.78,7.79
45.68,9.83,2.09,9.83,2.09,-2.09,-1.96,-2.02,7.75,7.75,7.74
46.13,9.82,2.11,9.83,2.11,-2.11,-1.98,-2.05,7.71,7.71,7.71
46.60,9.81,2.14,9.81,2.14,-2.14,-2.01,-2.09,7.67,7.67,7.67
47.06,9.80,2.16,9.80,2.17,-2.17,-2.03,-2.13,7.63,7.63,7.64
47.53,9.79,2.19,9.80,2.20,-2.20,-2.05,-2.17,7.59,7.60,7.60
48.01,9.78,2.23,9.78,2.23,-2.23,-2.08,-2.22,7.55,7.55,7.55
48.49,9.77,2.26,9.77,2.26,-2.26,-2.10,-2.26,7.52,7.51,7.51
48.97,9.75,2.29,9.76,2.29,-2.29,-2.13,-2.30,7.47,7.47,7.46
49.46,9.74,2.31,9.74,2.32,-2.32,-2.15,-2.35,7.43,7.43,7.43
49.96,9.72,2.35,9.72,2.34,-2.34,-2.18,-2.40,7.38,7.38,7.37
50.46,9.70,2.36,9.71,2.36,-2.37,-2.21,-2.45,7.34,7.34,7.34
50.96,9.68,2.38,9.69,2.39,-2.39,-2.23,-2.49,7.30,7.30,7.30
51.47,9.67,2.41,9.67,2.41,-2.41,-2.26,-2.54,7.26,7.26,7.26
51.99,9.65,2.44,9.65,2.43,-2.43,-2.29,-2.59,7.22,7.22,7.21
52.51,9.63,2.45,9.63,2.45,-2.45,-2.31,-2.64,7.18,7.18,7.18
53.03,9.61,2.46,9.62,2.47,-2.48,-2.34,-2.69,7.14,7.14,7.15
53.56,9.59,2.49,9.60,2.50,-2.50,-2.37,-2.74,7.09,7.10,7.10
54.10,9.58,2.53,9.58,2.52,-2.52,-2.40,-2.79,7.06,7.06,7.05
54.64,9.56,2.55,9.56,2.56,-2.55,-2.43,-2.84,7.02,7.02,7.01
55.18,9.54,2.57,9.55,2.58,-2.57,-2.46,-2.89,6.97,6.98,6.97
55.74,9.53,2.61,9.53,2.60,-2.60,-2.49,-2.94,6.94,6.93,6.92
56.29,9.51,2.61,9.52,2.62,-2.63,-2.52,-2.98,6.89,6.89,6.90
56.86,9.50,2.64,9.51,2.65,-2.66,-2.55,-3.03,6.85,6.85,6.86
57.42,9.50,2.69,9.50,2.68,-2.69,-2.58,-3.07,6.82,6.81,6.81
58.00,9.49,2.72,9.50,2.72,-2.72,-2.61,-3.11,6.77,6.78,6.77
58.58,9.50,2.76,9.50,2.76,-2.76,-2.64,-3.15,6.74,6.74,6.74
59.16,9.50,2.79,9.50,2.80,-2.80,-2.67,-3.19,6.70,6.70,6.71
59.76,9.50,2.84,9.51,2.84,-2.85,-2.70,-3.23,6.65,6.65,6.66
60.35,9.50,2.89,9.50,2.89,-2.90,-2.74,-3.26,6.60,6.60,6.61
60.96,9.50,2.95,9.51,2.95,-2.96,-2.77,-3.29,6.55,6.55,6.55
61.57,9.50,3.01,9.50,3.01,-3.01,-2.80,-3.32,6.50,6.50,6.49
62.18,9.50,3.07,9.50,3.07,-3.06,-2.84,-3.35,6.45,6.44,6.43
62.80,9.48,3.11,9.49,3.12,-3.11,-2.87,-3.37,6.38,6.38,6.37
63.43,9.47,3.15,9.48,3.15,-3.15,-2.90,-3.39,6.32,6.33,6.32
64.07,9.46,3.19,9.46,3.19,-3.19,-2.94,-3.41,6.27,6.27,6.27
64.71,9.44,3.22,9.45,3.23,-3.23,-2.97,-3.42,6.22,6.22,6.22
65.35,9.42,3.26,9.43,3.26,-3.26,-3.01,-3.44,6.17,6.17,6.16
66.01,9.40,3.29,9.40,3.29,-3.29,-3.04,-3.45,6.12,6.11,6.11
66.67,9.37,3.30,9.38,3.32,-3.32,-3.08,-3.46,6.06,6.06,6.07
67.33,9.35,3.35,9.36,3.35,-3.35,-3.11,-3.47,6.00,6.00,6.00
68.01,9.33,3.38,9.33,3.38,-3.38,-3.15,-3.47,5.95,5.95,5.95
68.69,9.31,3.41,9.32,3.41,-3.42,-3.19,-3.48,5.90,5.90,5.90
69.37,9.29,3.44,9.30,3.45,-3.45,-3.22,-3.48,5.84,5.84,5.85
70.07,9.28,3.49,9.28,3.49,-3.49,-3.26,-3.48,5.79,5.79,5.79
70.77,9.26,3.54,9.26,3.53,-3.53,-3.30,-3.49,5.73,5.73,5.72
71.48,9.24,3.57,9.24,3.57,-3.57,-3.34,-3.49,5.67,5.67,5.67
72.19,9.21,3.60,9.22,3.61,-3.61,-3.37,-3.49,5.61,5.61,5.61
72.91,9.19,3.65,9.20,3.65,-3.65,-3.41,-3.49,5.55,5.55,5.54
73.64,9.17,3.68,9.17,3.69,-3.68,-3.45,-3.50,5.49,5.49,5.49
74.38,9.15,3.72,9.15,3.72,-3.72,-3.49,-3.50,5.44,5.44,5.43
75.12,9.13,3.75,9.13,3.75,-3.75,-3.53,-3.50,5.38,5.38,5.38
75.87,9.10,3.77,9.11,3.78,-3.79,-3.57,-3.51,5.32,5.32,5.33
76.63,9.08,3.81,9.09,3.81,-3.82,-3.61,-3.52,5.26,5.27,5.27
77.40,9.07,3.84,9.08,3.85,-3.85,-3.65,-3.53,5.22,5.22,5.23
78.17,9.06,3.89,9.06,3.89,-3.88,-3.69,-3.54,5.18,5.18,5.17
78.95,9.05,3.92,9.05,3.92,-3.91,-3.73,-3.55,5.14,5.14,5.13
79.74,9.02,3.94,9.03,3.95,-3.94,-3.77,-3.56,5.09,5.09,5.08
80.54,8.99,3.96,9.00,3.97,-3.96,-3.81,-3.58,5.04,5.04,5.03
81.35,8.96,3.99,8.96,3.98,-3.98,-3.85,-3.60,4.99,4.98,4.97
82.16,8.92,3.98,8.93,3.99,-3.99,-3.89,-3.62,4.93,4.93,4.94
82.98,8.88,4.00,8.89,4.00,-4.01,-3.93,-3.64,4.88,4.88,4.88
83.81,8.84,4.01,8.84,4.01,-4.02,-3.97,-3.67,4.83,4.83,4.83
84.65,8.80,4.03,8.80,4.03,-4.03,-4.01,-3.70,4.77,4.77,4.77
85.50,8.76,4.05,8.76,4.05,-4.04,-4.05,-3.73,4.72,4.72,4.71
86.35,8.72,4.06,8.72,4.06,-4.06,-4.10,-3.77,4.66,4.66,4.66
87.22,8.68,4.07,8.69,4.08,-4.09,-4.14,-3.80,4.60,4.60,4.61
88.09,8.65,4.10,8.66,4.10,-4.11,-4.18,-3.84,4.54,4.54,4.55
88.97,8.63,4.14,8.63,4.14,-4.14,-4.22,-3.89,4.49,4.49,4.49
89.86,8.61,4.17,8.61,4.18,-4.18,-4.26,-3.93,4.44,4.44,4.44
90.76,8.59,4.21,8.60,4.22,-4.21,-4.31,-3.98,4.38,4.38,4.38
91.66,8.58,4.27,8.58,4.26,-4.25,-4.35,-4.04,4.33,4.33,4.31
92.58,8.56,4.30,8.56,4.30,-4.30,-4.39,-4.09,4.27,4.27,4.26
93.51,8.54,4.33,8.55,4.34,-4.34,-4.43,-4.15,4.20,4.20,4.21
94.44,8.52,4.37,8.53,4.38,-4.39,-4.48,-4.21,4.13,4.14,4.15
95.39,8.51,4.43,8.51,4.43,-4.43,-4.52,-4.27,4.08,4.08,4.08
96.34,8.49,4.48,8.49,4.48,-4.48,-4.56,-4.34,4.02,4.02,4.01
97.30,8.47,4.52,8.48,4.53,-4.52,-4.61,-4.41,3.95,3.96,3.95
98.28,8.45,4.57,8.46,4.57,-4.56,-4.65,-4.48,3.89,3.89,3.88
99.26,8.43,4.61,8.43,4.61,-4.60,-4.69,-4.55,3.83,3.83,3.82
100.25,8.40,4.64,8.40,4.64,-4.64,-4.73,-4.62,3.77,3.76,3.76
101.25,8.36,4.65,8.37,4.66,-4.67,-4.78,-4.70,3.70,3.70,3.71
102.27,8.34,4.69,8.35,4.69,-4.70,-4.82,-4.78,3.65,3.65,3.65
103.29,8.32,4.73,8.32,4.73,-4.72,-4.86,-4.85,3.60,3.60,3.59
104.32,8.30,4.76,8.30,4.76,-4.75,-4.90,-4.93,3.55,3.55,3.54
105.37,8.26,4.78,8.27,4.78,-4.78,-4.95,-5.01,3.49,3.49,3.48
106.42,8.23,4.80,8.24,4.81,-4.81,-4.99,-5.09,3.42,3.43,3.43
107.48,8.21,4.84,8.21,4.84,-4.85,-5.03,-5.17,3.37,3.37,3.37
108.56,8.19,4.87,8.20,4.88,-4.89,-5.07,-5.25,3.31,3.31,3.32
109.64,8.18,4.92,8.19,4.93,-4.93,-5.11,-5.33,3.25,3.25,3.26
110.74,8.18,4.98,8.19,4.98,-4.99,-5.15,-5.40,3.20,3.20,3.20
111.85,8.19,5.05,8.19,5.04,-5.05,-5.19,-5.48,3.14,3.14,3.14
112.97,8.19,5.10,8.20,5.11,-5.12,-5.23,-5.55,3.08,3.08,3.09
114.10,8.20,5.17,8.21,5.18,-5.19,-5.27,-5.61,3.02,3.02,3.03
115.24,8.21,5.26,8.21,5.25,-5.25,-5.31,-5.68,2.96,2.96,2.95
116.39,8.22,5.33,8.22,5.33,-5.32,-5.35,-5.74,2.91,2.90,2.89
117.55,8.22,5.39,8.23,5.40,-5.38,-5.39,-5.79,2.85,2.85,2.83
118.73,8.22,5.45,8.22,5.44,-5.43,-5.43,-5.84,2.80,2.79,2.77
119.92,8.20,5.47,8.21,5.48,-5.48,-5.47,-5.88,2.73,2.73,2.73
121.12,8.19,5.51,8.19,5.52,-5.52,-5.51,-5.92,2.68,2.68,2.68
122.33,8.17,5.55,8.17,5.54,-5.55,-5.55,-5.95,2.62,2.62,2.62
123.55,8.14,5.57,8.14,5.57,-5.58,-5.58,-5.98,2.56,2.56,2.57
124.79,8.11,5.59,8.12,5.60,-5.61,-5.62,-6.00,2.50,2.51,2.52
126.03,8.08,5.62,8.09,5.63,-5.64,-5.65,-6.01,2.45,2.46,2.46
127.29,8.07,5.66,8.07,5.66,-5.66,-5.69,-6.02,2.42,2.41,2.41
128.57,8.04,5.70,8.04,5.69,-5.68,-5.72,-6.02,2.37,2.36,2.34
129.85,7.99,5.70,8.00,5.70,-5.69,-5.76,-6.01,2.30,2.30,2.29
131.15,7.93,5.70,7.95,5.71,-5.71,-5.79,-6.00,2.23,2.24,2.23
132.46,7.90,5.72,7.90,5.72,-5.72,-5.82,-5.98,2.19,2.18,2.18
133.79,7.85,5.73,7.85,5.73,-5.73,-5.85,-5.96,2.12,2.12,2.12
135.12,7.79,5.72,7.80,5.73,-5.75,-5.88,-5.94,2.05,2.06,2.07
136.48,7.76,5.74,7.76,5.74,-5.76,-5.91,-5.91,2.01,2.00,2.02
137.84,7.72,5.75,7.73,5.76,-5.77,-5.94,-5.87,1.95,1.96,1.97
139.22,7.71,5.80,7.71,5.79,-5.79,-5.97,-5.83,1.93,1.92,1.91
140.61,7.68,5.81,7.68,5.82,-5.80,-6.00,-5.79,1.89,1.88,1.87
142.02,7.64,5.83,7.65,5.83,-5.81,-6.02,-5.75,1.83,1.84,1.81
143.44,7.60,5.83,7.60,5.83,-5.82,-6.05,-5.71,1.78,1.78,1.77
144.87,7.55,5.82,7.56,5.83,-5.83,-6.07,-5.66,1.73,1.73,1.73
146.32,7.51,5.83,7.51,5.83,-5.84,-6.10,-5.62,1.68,1.67,1.68
147.78,7.46,5.82,7.46,5.83,-5.84,-6.12,-5.57,1.62,1.62,1.64
149.26,7.42,5.83,7.43,5.83,-5.85,-6.14,-5.53,1.58,1.58,1.59
150.75,7.39,5.84,7.40,5.85,-5.85,-6.16,-5.48,1.54,1.55,1.55
152.26,7.38,5.87,7.38,5.87,-5.86,-6.18,-5.44,1.53,1.52,1.51
153.78,7.35,5.88,7.35,5.88,-5.86,-6.19,-5.40,1.49,1.49,1.47
155.32,7.31,5.88,7.32,5.89,-5.87,-6.21,-5.36,1.45,1.45,1.43
156.88,7.26,5.88,7.26,5.88,-5.87,-6.22,-5.32,1.39,1.39,1.38
158.44,7.21,5.88,7.21,5.87,-5.88,-6.24,-5.29,1.34,1.33,1.33
160.03,7.15,5.86,7.16,5.87,-5.88,-6.25,-5.26,1.27,1.28,1.29
161.63,7.12,5.87,7.12,5.87,-5.89,-6.26,-5.23,1.23,1.23,1.25
163.24,7.09,5.89,7.09,5.89,-5.90,-6.27,-5.20,1.19,1.19,1.20
164.88,7.05,5.90,7.06,5.91,-5.91,-6.28,-5.18,1.14,1.15,1.15
166.53,7.03,5.93,7.04,5.93,-5.93,-6.29,-5.16,1.11,1.11,1.10
168.19,7.02,5.95,7.01,5.95,-5.94,-6.29,-5.15,1.08,1.07,1.07
169.87,6.98,5.97,6.99,5.97,-5.96,-6.30,-5.13,1.03,1.03,1.01
171.57,6.95,5.99,6.95,5.99,-5.97,-6.30,-5.13,0.98,0.98,0.96
173.29,6.91,5.99,6.91,5.99,-5.99,-6.30,-5.12,0.93,0.92,0.92
175.02,6.86,5.99,6.87,5.99,-6.00,-6.30,-5.13,0.86,0.86,0.87
176.77,6.82,6.00,6.83,6.00,-6.02,-6.30,-5.13,0.81,0.81,0.82
178.54,6.79,6.01,6.80,6.02,-6.03,-6.29,-5.14,0.76,0.76,0.78
180.32,6.77,6.05,6.78,6.04,-6.05,-6.29,-5.15,0.72,0.73,0.72
182.13,6.75,6.06,6.75,6.07,-6.06,-6.29,-5.16,0.69,0.69,0.69
183.95,6.73,6.09,6.73,6.09,-6.08,-6.28,-5.18,0.66,0.65,0.64
185.79,6.69,6.10,6.70,6.10,-6.09,-6.27,-5.21,0.61,0.61,0.59
187.65,6.66,6.11,6.66,6.11,-6.10,-6.26,-5.23,0.57,0.56,0.55
189.52,6.62,6.11,6.62,6.11,-6.11,-6.25,-5.26,0.52,0.51,0.51
191.42,6.57,6.10,6.58,6.11,-6.12,-6.24,-5.30,0.46,0.46,0.47
193.33,6.53,6.10,6.53,6.11,-6.12,-6.22,-5.34,0.41,0.41,0.43
195.27,6.49,6.11,6.50,6.11,-6.13,-6.21,-5.38,0.37,0.37,0.38
197.22,6.46,6.13,6.47,6.13,-6.13,-6.19,-5.42,0.33,0.33,0.33
199.19,6.44,6.14,6.44,6.14,-6.14,-6.18,-5.46,0.31,0.31,0.30
201.18,6.41,6.15,6.42,6.15,-6.14,-6.16,-5.51,0.28,0.28,0.26
203.19,6.38,6.15,6.38,6.15,-6.14,-6.14,-5.56,0.25,0.25,0.23
205.23,6.34,6.13,6.34,6.13,-6.13,-6.12,-5.62,0.21,0.21,0.21
207.28,6.29,6.11,6.30,6.12,-6.12,-6.09,-5.67,0.17,0.17,0.18
209.35,6.24,6.10,6.25,6.10,-6.11,-6.07,-5.73,0.14,0.14,0.14
211.44,6.20,6.09,6.20,6.09,-6.09,-6.05,-5.78,0.11,0.11,0.11
213.56,6.16,6.07,6.16,6.07,-6.08,-6.02,-5.84,0.09,0.08,0.09
215.69,6.11,6.05,6.12,6.05,-6.06,-5.99,-5.89,0.05,0.05,0.06
217.85,6.06,6.03,6.07,6.04,-6.04,-5.96,-5.94,0.02,0.03,0.03
220.03,6.03,6.03,6.03,6.03,-6.02,-5.94,-6.00,0.01,0.01,0.00
222.23,5.99,6.02,5.99,6.01,-6.00,-5.91,-6.05,-0.01,-0.01,-0.03
224.45,5.93,5.97,5.94,5.98,-5.97,-5.88,-6.10,-0.04,-0.04,-0.04
226.70,5.88,5.95,5.88,5.95,-5.95,-5.84,-6.14,-0.06,-0.06,-0.07
228.96,5.82,5.90,5.83,5.91,-5.92,-5.81,-6.18,-0.09,-0.08,-0.08
231.25,5.78,5.88,5.78,5.88,-5.88,-5.78,-6.22,-0.10,-0.10,-0.10
233.57,5.73,5.85,5.73,5.84,-5.85,-5.74,-6.25,-0.12,-0.12,-0.12
235.90,5.66,5.79,5.68,5.81,-5.82,-5.71,-6.27,-0.15,-0.14,-0.13
238.26,5.63,5.79,5.63,5.78,-5.78,-5.67,-6.29,-0.15,-0.15,-0.16
240.64,5.59,5.74,5.59,5.75,-5.75,-5.64,-6.30,-0.15,-0.15,-0.15
243.05,5.55,5.72,5.55,5.72,-5.71,-5.60,-6.31,-0.16,-0.16,-0.17
245.48,5.51,5.69,5.51,5.68,-5.68,-5.56,-6.31,-0.16,-0.17,-0.18
247.93,5.45,5.64,5.46,5.64,-5.64,-5.52,-6.30,-0.19,-0.18,-0.19
250.41,5.41,5.59,5.41,5.60,-5.61,-5.48,-6.28,-0.19,-0.19,-0.18
252.92,5.36,5.55,5.37,5.56,-5.57,-5.44,-6.26,-0.20,-0.20,-0.19
255.45,5.33,5.53,5.33,5.53,-5.53,-5.40,-6.22,-0.19,-0.19,-0.20
258.00,5.29,5.49,5.29,5.49,-5.48,-5.36,-6.18,-0.19,-0.19,-0.20
260.58,5.24,5.44,5.25,5.45,-5.43,-5.32,-6.13,-0.19,-0.19,-0.20
263.19,5.19,5.39,5.19,5.39,-5.39,-5.28,-6.08,-0.19,-0.20,-0.20
265.82,5.13,5.34,5.14,5.34,-5.35,-5.24,-6.02,-0.21,-0.21,-0.21
268.48,5.08,5.29,5.08,5.29,-5.30,-5.20,-5.95,-0.22,-0.22,-0.21
271.16,5.03,5.24,5.03,5.24,-5.26,-5.15,-5.87,-0.22,-0.23,-0.21
273.87,4.98,5.19,4.99,5.20,-5.21,-5.11,-5.80,-0.23,-0.22,-0.21
276.61,4.95,5.16,4.95,5.17,-5.16,-5.06,-5.71,-0.21,-0.21,-0.21
279.38,4.91,5.14,4.91,5.13,-5.11,-5.02,-5.62,-0.20,-0.20,-0.23
282.17,4.86,5.09,4.86,5.08,-5.06,-4.98,-5.53,-0.20,-0.20,-0.23
284.99,4.80,5.02,4.80,5.02,-5.01,-4.93,-5.44,-0.21,-0.21,-0.22
287.84,4.72,4.93,4.73,4.95,-4.96,-4.88,-5.34,-0.24,-0.23,-0.21
290.72,4.67,4.89,4.68,4.89,-4.91,-4.84,-5.24,-0.23,-0.23,-0.22
293.63,4.63,4.84,4.63,4.84,-4.85,-4.79,-5.14,-0.22,-0.22,-0.21
296.57,4.59,4.79,4.59,4.79,-4.79,-4.74,-5.04,-0.20,-0.20,-0.20
299.53,4.55,4.75,4.55,4.74,-4.74,-4.70,-4.94,-0.19,-0.19,-0.20
302.53,4.50,4.68,4.51,4.70,-4.69,-4.65,-4.83,-0.19,-0.18,-0.18
305.55,4.46,4.65,4.46,4.64,-4.65,-4.60,-4.73,-0.18,-0.18,-0.19
308.61,4.41,4.59,4.41,4.59,-4.60,-4.55,-4.63,-0.18,-0.18,-0.18
311.69,4.36,4.53,4.37,4.55,-4.55,-4.50,-4.53,-0.18,-0.18,-0.17
314.81,4.33,4.50,4.33,4.50,-4.50,-4.46,-4.43,-0.16,-0.16,-0.17
317.96,4.30,4.46,4.30,4.46,-4.45,-4.41,-4.34,-0.14,-0.15,-0.16
321.14,4.25,4.40,4.26,4.40,-4.39,-4.36,-4.24,-0.14,-0.14,-0.15
324.35,4.20,4.35,4.20,4.34,-4.34,-4.31,-4.15,-0.14,-0.14,-0.15
327.59,4.14,4.26,4.15,4.28,-4.29,-4.26,-4.06,-0.14,-0.14,-0.12
330.87,4.09,4.22,4.10,4.22,-4.23,-4.21,-3.97,-0.14,-0.13,-0.13
334.18,4.05,4.17,4.05,4.17,-4.18,-4.15,-3.88,-0.12,-0.12,-0.12
337.52,4.01,4.13,4.01,4.12,-4.12,-4.10,-3.80,-0.10,-0.11,-0.12
340.90,3.96,4.06,3.96,4.06,-4.06,-4.05,-3.72,-0.09,-0.10,-0.10
344.30,3.90,3.99,3.91,4.01,-4.00,-4.00,-3.64,-0.09,-0.09,-0.09
347.75,3.86,3.95,3.86,3.94,-3.94,-3.95,-3.56,-0.07,-0.08,-0.09
351.23,3.80,3.89,3.80,3.88,-3.88,-3.90,-3.49,-0.07,-0.08,-0.09
354.74,3.74,3.80,3.74,3.82,-3.82,-3.84,-3.42,-0.07,-0.08,-0.06
358.28,3.68,3.75,3.69,3.75,-3.76,-3.79,-3.35,-0.08,-0.07,-0.07
361.87,3.63,3.69,3.64,3.69,-3.71,-3.74,-3.28,-0.07,-0.07,-0.06
365.49,3.60,3.65,3.60,3.65,-3.65,-3.68,-3.22,-0.05,-0.05,-0.05
369.14,3.56,3.59,3.56,3.60,-3.60,-3.63,-3.16,-0.04,-0.04,-0.03
372.83,3.52,3.55,3.53,3.56,-3.55,-3.58,-3.10,-0.03,-0.03,-0.03
376.56,3.48,3.51,3.49,3.51,-3.50,-3.53,-3.05,-0.02,-0.02,-0.03
380.33,3.44,3.46,3.45,3.46,-3.45,-3.47,-2.99,-0.01,-0.01,-0.02
384.13,3.40,3.40,3.40,3.41,-3.40,-3.42,-2.94,0.01,0.00,0.00
387.97,3.35,3.35,3.36,3.35,-3.35,-3.37,-2.89,0.01,0.01,0.00
391.85,3.30,3.29,3.31,3.30,-3.30,-3.31,-2.85,0.01,0.01,0.01
395.77,3.26,3.24,3.26,3.24,-3.25,-3.26,-2.80,0.02,0.01,0.02
399.73,3.21,3.18,3.22,3.18,-3.20,-3.21,-2.76,0.02,0.02,0.03
403.72,3.18,3.12,3.19,3.14,-3.15,-3.15,-2.72,0.04,0.04,0.06
407.76,3.15,3.10,3.16,3.10,-3.10,-3.10,-2.68,0.06,0.06,0.05
411.84,3.13,3.07,3.13,3.06,-3.05,-3.05,-2.64,0.08,0.08,0.06
415.96,3.09,3.01,3.09,3.02,-3.01,-3.00,-2.61,0.09,0.09,0.08
420.12,3.05,2.97,3.06,2.97,-2.96,-2.95,-2.57,0.09,0.09,0.08
424.32,3.01,2.92,3.01,2.92,-2.92,-2.89,-2.54,0.09,0.09,0.09
428.56,2.97,2.86,2.97,2.87,-2.88,-2.84,-2.51,0.09,0.09,0.11
432.85,2.93,2.81,2.94,2.82,-2.84,-2.79,-2.48,0.09,0.10,0.12
437.18,2.90,2.79,2.91,2.79,-2.80,-2.74,-2.44,0.11,0.11,0.11
441.55,2.88,2.76,2.88,2.76,-2.75,-2.69,-2.41,0.13,0.13,0.12
445.96,2.85,2.72,2.85,2.72,-2.70,-2.64,-2.39,0.15,0.15,0.13
450.42,2.81,2.67,2.81,2.67,-2.65,-2.59,-2.36,0.16,0.16,0.14
454.93,2.76,2.61,2.76,2.61,-2.60,-2.54,-2.33,0.16,0.16,0.15
459.48,2.70,2.54,2.71,2.54,-2.55,-2.49,-2.30,0.16,0.16,0.16
464.07,2.65,2.47,2.65,2.48,-2.49,-2.44,-2.27,0.16,0.16,0.18
468.71,2.60,2.41,2.61,2.42,-2.44,-2.39,-2.24,0.17,0.17,0.19
473.40,2.56,2.37,2.57,2.37,-2.38,-2.34,-2.21,0.18,0.18,0.19
478.13,2.53,2.33,2.53,2.33,-2.33,-2.29,-2.18,0.20,0.20,0.20
482.91,2.49,2.28,2.50,2.29,-2.28,-2.24,-2.15,0.21,0.22,0.21
487.74,2.46,2.24,2.46,2.24,-2.23,-2.19,-2.12,0.23,0.23,0.22
492.62,2.42,2.19,2.42,2.19,-2.18,-2.14,-2.08,0.24,0.24,0.23
497.55,2.38,2.14,2.38,2.14,-2.14,-2.10,-2.05,0.25,0.25,0.24
502.52,2.33,2.08,2.34,2.08,-2.09,-2.05,-2.01,0.25,0.25,0.25
507.55,2.29,2.02,2.30,2.03,-2.04,-2.00,-1.98,0.26,0.26,0.27
512.62,2.26,1.98,2.26,1.98,-1.98,-1.95,-1.94,0.28,0.28,0.28
517.75,2.22,1.92,2.23,1.93,-1.93,-1.91,-1.90,0.29,0.30,0.30
522.93,2.19,1.88,2.19,1.88,-1.88,-1.86,-1.87,0.32,0.32,0.31
528.16,2.15,1.83,2.15,1.83,-1.82,-1.81,-1.83,0.34,0.33,0.32
533.44,2.10,1.77,2.10,1.77,-1.76,-1.76,-1.79,0.34,0.34,0.33
