frequency,raw,error,smoothed,error_smoothed,equalization,parametric_eq,fixed_band_eq,equalized_raw,equalized_smoothed,target
20.00,-5.42,-9.66,-5.38,-9.64,9.64,9.58,3.29,4.23,4.26,4.24
20.20,-5.33,-9.61,-5.31,-9.60,9.60,9.53,3.38,4.27,4.29,4.28
20.40,-5.23,-9.54,-5.23,-9.55,9.55,9.47,3.47,4.32,4.32,4.31
20.61,-5.14,-9.48,-5.16,-9.50,9.50,9.42,3.57,4.36,4.35,4.34
20.81,-5.04,-9.42,-5.08,-9.45,9.45,9.36,3.66,4.42,4.37,4.38
21.02,-4.96,-9.38,-5.01,-9.40,9.40,9.30,3.77,4.44,4.40,4.42
21.23,-4.90,-9.33,-4.93,-9.35,9.35,9.24,3.87,4.45,4.42,4.43
21.44,-4.85,-9.30,-4.86,-9.29,9.29,9.18,3.98,4.45,4.44,4.45
21.66,-4.80,-9.27,-4.78,-9.24,9.24,9.12,4.09,4.44,4.46,4.47
21.87,-4.75,-9.23,-4.71,-9.18,9.18,9.06,4.20,4.43,4.47,4.48
22.09,-4.68,-9.17,-4.63,-9.12,9.12,9.00,4.32,4.44,4.49,4.49
22.31,-4.58,-9.07,-4.56,-9.06,9.06,8.94,4.43,4.48,4.50,4.49
22.54,-4.48,-8.98,-4.49,-9.00,9.00,8.88,4.56,4.52,4.51,4.50
22.76,-4.38,-8.89,-4.41,-8.93,8.93,8.81,4.68,4.55,4.52,4.51
22.99,-4.28,-8.79,-4.34,-8.87,8.87,8.75,4.81,4.59,4.53,4.51
23.22,-4.23,-8.75,-4.26,-8.79,8.79,8.68,4.94,4.57,4.53,4.52
23.45,-4.17,-8.70,-4.18,-8.72,8.72,8.62,5.07,4.55,4.54,4.53
23.69,-4.12,-8.66,-4.10,-8.64,8.64,8.55,5.21,4.52,4.55,4.54
23.92,-4.07,-8.62,-4.01,-8.56,8.56,8.49,5.35,4.49,4.55,4.55
24.16,-3.98,-8.54,-3.93,-8.48,8.48,8.42,5.49,4.51,4.55,4.56
24.40,-3.88,-8.45,-3.85,-8.41,8.41,8.35,5.63,4.53,4.56,4.57
24.65,-3.78,-8.34,-3.77,-8.33,8.33,8.28,5.78,4.55,4.56,4.56
24.89,-3.67,-8.23,-3.70,-8.26,8.26,8.22,5.93,4.59,4.56,4.56
25.14,-3.59,-8.15,-3.63,-8.19,8.19,8.15,6.08,4.60,4.56,4.56
25.39,-3.53,-8.09,-3.55,-8.12,8.12,8.08,6.23,4.59,4.56,4.56
25.65,-3.46,-8.02,-3.48,-8.04,8.04,8.01,6.38,4.58,4.56,4.56
25.91,-3.39,-7.93,-3.41,-7.97,7.97,7.94,6.53,4.58,4.56,4.54
26.16,-3.33,-7.88,-3.33,-7.89,7.89,7.87,6.68,4.57,4.56,4.55
26.43,-3.27,-7.82,-3.27,-7.82,7.82,7.80,6.83,4.55,4.56,4.55
26.69,-3.21,-7.76,-3.20,-7.75,7.75,7.73,6.98,4.54,4.55,4.55
26.96,-3.15,-7.70,-3.14,-7.69,7.69,7.66,7.13,4.54,4.55,4.55
27.23,-3.09,-7.64,-3.08,-7.62,7.62,7.59,7.28,4.53,4.55,4.55
27.50,-3.02,-7.57,-3.02,-7.56,7.56,7.51,7.42,4.54,4.55,4.55
27.77,-2.96,-7.50,-2.96,-7.50,7.50,7.44,7.55,4.54,4.54,4.54
28.05,-2.90,-7.44,-2.89,-7.44,7.44,7.37,7.68,4.54,4.54,4.54
28.33,-2.83,-7.35,-2.83,-7.37,7.37,7.30,7.81,4.54,4.54,4.52
28.62,-2.77,-7.30,-2.77,-7.30,7.30,7.23,7.92,4.53,4.54,4.53
28.90,-2.70,-7.23,-2.70,-7.24,7.24,7.15,8.03,4.54,4.54,4.53
29.19,-2.64,-7.16,-2.64,-7.17,7.17,7.08,8.13,4.53,4.53,4.52
29.48,-2.57,-7.10,-2.57,-7.10,7.10,7.01,8.21,4.53,4.53,4.53
29.78,-2.50,-7.03,-2.50,-7.03,7.03,6.94,8.29,4.53,4.52,4.53
30.08,-2.43,-6.96,-2.44,-6.96,6.96,6.86,8.35,4.52,4.52,4.53
30.38,-2.37,-6.88,-2.37,-6.88,6.88,6.79,8.39,4.51,4.52,4.51
30.68,-2.30,-6.81,-2.30,-6.81,6.81,6.72,8.43,4.51,4.51,4.51
30.99,-2.23,-6.73,-2.22,-6.73,6.73,6.64,8.45,4.50,4.51,4.50
31.30,-2.16,-6.66,-2.15,-6.65,6.65,6.57,8.45,4.49,4.50,4.50
31.61,-2.09,-6.59,-2.07,-6.57,6.57,6.50,8.44,4.48,4.50,4.50
31.93,-2.02,-6.50,-2.01,-6.50,6.50,6.42,8.41,4.48,4.49,4.48
32.24,-1.95,-6.42,-1.94,-6.43,6.43,6.35,8.37,4.48,4.49,4.47
32.57,-1.88,-6.35,-1.88,-6.36,6.36,6.28,8.32,4.48,4.48,4.47
32.89,-1.81,-6.28,-1.82,-6.29,6.29,6.20,8.26,4.48,4.47,4.47
33.22,-1.73,-6.20,-1.76,-6.23,6.23,6.13,8.18,4.50,4.47,4.47
33.55,-1.65,-6.11,-1.70,-6.17,6.17,6.06,8.09,4.52,4.46,4.46
33.89,-1.57,-6.03,-1.65,-6.11,6.11,5.99,7.99,4.54,4.46,4.46
34.23,-1.54,-6.00,-1.59,-6.05,6.05,5.91,7.88,4.51,4.46,4.46
34.57,-1.54,-5.99,-1.53,-5.99,5.99,5.84,7.76,4.45,4.45,4.45
34.92,-1.54,-5.98,-1.47,-5.92,5.92,5.77,7.64,4.38,4.45,4.44
35.27,-1.48,-5.92,-1.41,-5.85,5.85,5.69,7.51,4.37,4.44,4.44
35.62,-1.40,-5.83,-1.35,-5.79,5.79,5.62,7.37,4.39,4.44,4.43
35.97,-1.32,-5.74,-1.28,-5.71,5.71,5.55,7.23,4.40,4.43,4.42
36.33,-1.24,-5.66,-1.22,-5.64,5.64,5.47,7.09,4.40,4.42,4.42
36.70,-1.16,-5.58,-1.14,-5.56,5.56,5.40,6.94,4.40,4.41,4.42
37.06,-1.07,-5.47,-1.07,-5.48,5.48,5.33,6.80,4.41,4.41,4.40
37.43,-0.97,-5.37,-0.99,-5.39,5.39,5.26,6.65,4.42,4.40,4.40
37.81,-0.86,-5.25,-0.90,-5.30,5.30,5.18,6.50,4.44,4.40,4.39
38.19,-0.78,-5.16,-0.81,-5.19,5.19,5.11,6.36,4.41,4.39,4.38
38.57,-0.71,-5.09,-0.71,-5.09,5.09,5.04,6.21,4.38,4.38,4.38
38.95,-0.64,-5.01,-0.62,-4.99,4.99,4.97,6.07,4.35,4.38,4.37
39.34,-0.55,-4.91,-0.53,-4.90,4.90,4.89,5.92,4.35,4.37,4.36
39.74,-0.46,-4.80,-0.45,-4.81,4.81,4.82,5.78,4.35,4.36,4.34
40.14,-0.37,-4.72,-0.37,-4.72,4.72,4.75,5.64,4.35,4.35,4.35
40.54,-0.28,-4.62,-0.29,-4.63,4.63,4.68,5.51,4.35,4.34,4.34
40.94,-0.19,-4.53,-0.21,-4.54,4.54,4.60,5.37,4.36,4.33,4.34
41.35,-0.12,-4.44,-0.15,-4.46,4.46,4.53,5.24,4.35,4.32,4.32
41.76,-0.04,-4.34,-0.09,-4.38,4.38,4.46,5.12,4.35,4.30,4.30
42.18,0.01,-4.28,-0.03,-4.30,4.30,4.39,4.99,4.31,4.28,4.29
42.60,0.03,-4.23,0.04,-4.22,4.22,4.32,4.87,4.25,4.25,4.26
43.03,0.06,-4.19,0.11,-4.12,4.12,4.25,4.75,4.18,4.23,4.25
43.46,0.16,-4.06,0.17,-4.03,4.03,4.18,4.64,4.19,4.20,4.22
43.90,0.26,-3.91,0.23,-3.95,3.95,4.10,4.52,4.21,4.18,4.17
44.33,0.28,-3.86,0.29,-3.86,3.86,4.03,4.41,4.14,4.15,4.14
44.78,0.28,-3.83,0.35,-3.77,3.77,3.96,4.31,4.05,4.12,4.11
45.23,0.33,-3.75,0.41,-3.69,3.69,3.89,4.21,4.02,4.10,4.08
45.68,0.44,-3.61,0.47,-3.60,3.60,3.82,4.11,4.04,4.07,4.05
46.13,0.54,-3.49,0.53,-3.52,3.52,3.75,4.01,4.06,4.05,4.03
46.60,0.65,-3.37,0.59,-3.45,3.45,3.68,3.92,4.10,4.03,4.02
47.06,0.74,-3.26,0.65,-3.37,3.37,3.61,3.83,4.11,4.02,4.00
47.53,0.74,-3.26,0.71,-3.30,3.30,3.54,3.74,4.04,4.00,4.00
48.01,0.74,-3.26,0.77,-3.23,3.23,3.47,3.65,3.97,4.00,4.00
48.49,0.80,-3.18,0.82,-3.17,3.17,3.40,3.57,3.97,3.99,3.98
48.97,0.87,-3.10,0.88,-3.11,3.11,3.33,3.49,3.98,3.99,3.97
49.46,0.91,-3.05,0.93,-3.05,3.05,3.26,3.41,3.96,3.98,3.96
49.96,0.96,-3.00,0.98,-3.00,3.00,3.19,3.34,3.96,3.98,3.96
50.46,0.98,-2.99,1.02,-2.96,2.96,3.12,3.27,3.94,3.98,3.97
50.96,1.01,-2.97,1.04,-2.92,2.92,3.05,3.19,3.94,3.97,3.98
51.47,1.10,-2.87,1.07,-2.88,2.88,2.98,3.13,3.98,3.96,3.97
51.99,1.19,-2.76,1.11,-2.83,2.83,2.91,3.06,4.02,3.94,3.95
52.51,1.19,-2.75,1.14,-2.78,2.78,2.84,2.99,3.97,3.92,3.94
53.03,1.19,-2.72,1.18,-2.72,2.72,2.77,2.93,3.91,3.90,3.91
53.56,1.19,-2.69,1.20,-2.66,2.66,2.70,2.86,3.86,3.87,3.88
54.10,1.19,-2.65,1.22,-2.61,2.61,2.63,2.80,3.80,3.83,3.84
54.64,1.19,-2.60,1.24,-2.55,2.55,2.56,2.74,3.74,3.79,3.79
55.18,1.19,-2.55,1.26,-2.49,2.49,2.49,2.68,3.68,3.75,3.74
55.74,1.19,-2.50,1.26,-2.43,2.43,2.42,2.62,3.62,3.70,3.69
56.29,1.26,-2.38,1.27,-2.37,2.37,2.36,2.56,3.64,3.64,3.64
56.86,1.39,-2.19,1.27,-2.32,2.32,2.29,2.50,3.71,3.58,3.58
57.42,1.32,-2.19,1.26,-2.26,2.26,2.22,2.45,3.58,3.52,3.51
58.00,1.19,-2.26,1.25,-2.22,2.22,2.15,2.39,3.41,3.46,3.45
58.58,1.19,-2.20,1.22,-2.18,2.18,2.08,2.33,3.37,3.40,3.39
59.16,1.19,-2.15,1.19,-2.15,2.15,2.01,2.27,3.34,3.34,3.34
59.76,1.19,-2.09,1.13,-2.14,2.14,1.94,2.21,3.33,3.28,3.28
60.35,1.11,-2.10,1.07,-2.15,2.15,1.87,2.15,3.26,3.21,3.21
60.96,0.97,-2.19,0.99,-2.17,2.17,1.80,2.08,3.14,3.15,3.16
61.57,0.96,-2.13,0.89,-2.21,2.21,1.73,2.02,3.17,3.10,3.09
62.18,0.92,-2.10,0.77,-2.27,2.27,1.67,1.96,3.19,3.04,3.02
62.80,0.78,-2.20,0.65,-2.34,2.34,1.60,1.89,3.12,2.99,2.98
63.43,0.60,-2.32,0.52,-2.41,2.41,1.53,1.83,3.01,2.93,2.92
64.07,0.40,-2.48,0.41,-2.48,2.48,1.46,1.76,2.88,2.89,2.88
64.71,0.28,-2.55,0.30,-2.54,2.54,1.39,1.69,2.82,2.84,2.83
65.35,0.17,-2.61,0.21,-2.59,2.59,1.32,1.62,2.76,2.80,2.78
66.01,0.05,-2.70,0.13,-2.62,2.62,1.25,1.55,2.67,2.76,2.75
66.67,0.05,-2.66,0.10,-2.62,2.62,1.18,1.48,2.67,2.72,2.71
67.33,0.01,-2.67,0.10,-2.59,2.59,1.11,1.40,2.60,2.68,2.68
68.01,-0.08,-2.73,0.13,-2.52,2.52,1.04,1.33,2.44,2.65,2.65
68.69,0.03,-2.59,0.19,-2.43,2.43,0.97,1.25,2.46,2.62,2.62
69.37,0.16,-2.42,0.28,-2.30,2.30,0.90,1.18,2.47,2.59,2.58
70.07,0.30,-2.25,0.41,-2.15,2.15,0.84,1.10,2.45,2.56,2.55
70.77,0.53,-2.01,0.57,-1.96,1.96,0.77,1.02,2.49,2.53,2.54
71.48,0.78,-1.72,0.75,-1.75,1.75,0.70,0.94,2.53,2.50,2.50
72.19,1.04,-1.44,0.95,-1.52,1.52,0.63,0.86,2.56,2.47,2.48
72.91,1.30,-1.14,1.17,-1.27,1.27,0.56,0.78,2.57,2.44,2.44
73.64,1.54,-0.87,1.40,-1.01,1.01,0.49,0.69,2.55,2.41,2.41
74.38,1.71,-0.67,1.62,-0.76,0.76,0.42,0.61,2.47,2.38,2.38
75.12,1.83,-0.52,1.84,-0.51,0.51,0.35,0.53,2.34,2.35,2.35
75.87,1.92,-0.40,2.05,-0.27,0.27,0.28,0.44,2.19,2.32,2.32
76.63,2.16,-0.13,2.24,-0.06,0.06,0.20,0.35,2.22,2.29,2.29
77.40,2.42,0.16,2.41,0.14,-0.14,0.13,0.27,2.28,2.27,2.26
78.17,2.65,0.42,2.56,0.31,-0.31,0.06,0.18,2.34,2.25,2.23
78.95,2.78,0.56,2.69,0.47,-0.47,-0.01,0.09,2.31,2.22,2.22
79.74,2.96,0.76,2.81,0.61,-0.61,-0.08,0.00,2.35,2.20,2.20
80.54,3.02,0.84,2.92,0.73,-0.73,-0.15,-0.08,2.29,2.19,2.18
81.35,3.02,0.86,3.02,0.84,-0.84,-0.22,-0.17,2.18,2.18,2.16
82.16,3.04,0.88,3.11,0.94,-0.94,-0.29,-0.27,2.10,2.17,2.16
82.98,3.12,0.96,3.19,1.03,-1.03,-0.37,-0.36,2.09,2.16,2.16
83.81,3.22,1.07,3.26,1.11,-1.11,-0.44,-0.45,2.12,2.16,2.15
84.65,3.24,1.10,3.32,1.16,-1.16,-0.51,-0.54,2.08,2.16,2.14
85.50,3.30,1.15,3.35,1.20,-1.20,-0.58,-0.64,2.11,2.16,2.15
86.35,3.41,1.26,3.38,1.22,-1.22,-0.65,-0.73,2.19,2.16,2.15
87.22,3.47,1.32,3.40,1.24,-1.24,-0.73,-0.83,2.23,2.16,2.15
88.09,3.47,1.32,3.43,1.27,-1.27,-0.80,-0.92,2.20,2.16,2.15
88.97,3.47,1.30,3.45,1.29,-1.29,-0.87,-1.02,2.18,2.16,2.17
89.86,3.47,1.30,3.48,1.32,-1.32,-0.94,-1.12,2.15,2.16,2.17
90.76,3.47,1.32,3.50,1.34,-1.34,-1.02,-1.22,2.13,2.16,2.15
91.66,3.47,1.31,3.50,1.35,-1.35,-1.09,-1.32,2.12,2.15,2.16
92.58,3.47,1.34,3.49,1.34,-1.34,-1.16,-1.42,2.13,2.14,2.13
93.51,3.47,1.33,3.46,1.33,-1.33,-1.24,-1.52,2.14,2.13,2.14
94.44,3.47,1.35,3.44,1.32,-1.32,-1.31,-1.62,2.15,2.12,2.12
95.39,3.47,1.36,3.41,1.31,-1.31,-1.39,-1.72,2.17,2.10,2.11
96.34,3.47,1.40,3.38,1.30,-1.30,-1.46,-1.83,2.17,2.08,2.07
97.30,3.47,1.42,3.36,1.30,-1.30,-1.53,-1.93,2.17,2.06,2.05
98.28,3.42,1.39,3.36,1.32,-1.32,-1.61,-2.04,2.10,2.04,2.03
99.26,3.28,1.28,3.37,1.36,-1.36,-1.68,-2.14,1.92,2.01,2.00
100.25,3.24,1.27,3.38,1.40,-1.40,-1.75,-2.25,1.84,1.97,1.97
101.25,3.24,1.30,3.40,1.46,-1.46,-1.83,-2.35,1.78,1.94,1.94
102.27,3.27,1.37,3.43,1.54,-1.54,-1.90,-2.46,1.74,1.90,1.90
103.29,3.39,1.54,3.48,1.63,-1.63,-1.98,-2.56,1.77,1.85,1.85
104.32,3.52,1.71,3.53,1.73,-1.73,-2.05,-2.67,1.79,1.80,1.81
105.37,3.64,1.88,3.60,1.85,-1.85,-2.12,-2.77,1.79,1.75,1.76
106.42,3.70,1.99,3.67,1.98,-1.98,-2.20,-2.87,1.72,1.69,1.71
107.48,3.80,2.16,3.75,2.11,-2.11,-2.27,-2.97,1.69,1.63,1.64
108.56,3.92,2.36,3.82,2.26,-2.26,-2.34,-3.07,1.66,1.57,1.56
109.64,3.93,2.44,3.91,2.41,-2.41,-2.41,-3.16,1.52,1.50,1.49
110.74,3.93,2.50,3.98,2.56,-2.56,-2.49,-3.25,1.37,1.42,1.43
111.85,4.13,2.77,4.04,2.69,-2.69,-2.56,-3.34,1.44,1.35,1.36
112.97,4.16,2.89,4.09,2.81,-2.81,-2.63,-3.43,1.35,1.28,1.27
114.10,4.16,2.95,4.13,2.92,-2.92,-2.70,-3.51,1.24,1.21,1.21
115.24,4.16,3.03,4.15,3.01,-3.01,-2.77,-3.58,1.15,1.14,1.13
116.39,4.16,3.11,4.16,3.09,-3.09,-2.84,-3.65,1.07,1.07,1.05
117.55,4.16,3.17,4.17,3.16,-3.16,-2.91,-3.72,1.00,1.01,0.99
118.73,4.16,3.24,4.18,3.23,-3.23,-2.98,-3.78,0.93,0.95,0.92
119.92,4.16,3.28,4.18,3.29,-3.29,-3.05,-3.83,0.88,0.90,0.88
121.12,4.16,3.34,4.18,3.33,-3.33,-3.11,-3.88,0.83,0.85,0.82
122.33,4.16,3.38,4.18,3.38,-3.38,-3.18,-3.92,0.78,0.80,0.78
123.55,4.16,3.40,4.17,3.42,-3.42,-3.25,-3.95,0.74,0.76,0.76
124.79,4.16,3.44,4.16,3.45,-3.45,-3.31,-3.98,0.71,0.72,0.72
126.03,4.16,3.48,4.16,3.48,-3.48,-3.37,-4.00,0.68,0.68,0.68
127.29,4.16,3.51,4.17,3.52,-3.52,-3.43,-4.01,0.64,0.65,0.65
128.57,4.16,3.55,4.17,3.56,-3.56,-3.49,-4.02,0.60,0.61,0.61
129.85,4.16,3.58,4.18,3.60,-3.60,-3.55,-4.02,0.56,0.58,0.58
131.15,4.16,3.61,4.18,3.63,-3.63,-3.61,-4.01,0.53,0.55,0.55
132.46,4.16,3.64,4.17,3.66,-3.66,-3.67,-4.00,0.51,0.52,0.52
133.79,4.16,3.67,4.16,3.68,-3.68,-3.72,-3.98,0.48,0.48,0.49
135.12,4.16,3.72,4.15,3.70,-3.70,-3.77,-3.96,0.46,0.45,0.44
136.48,4.16,3.75,4.13,3.71,-3.71,-3.82,-3.93,0.45,0.42,0.41
137.84,4.16,3.78,4.11,3.73,-3.73,-3.87,-3.90,0.43,0.38,0.38
139.22,4.16,3.83,4.09,3.75,-3.75,-3.92,-3.86,0.41,0.35,0.33
140.61,4.16,3.88,4.07,3.76,-3.76,-3.96,-3.82,0.40,0.31,0.28
142.02,4.05,3.79,4.06,3.79,-3.79,-4.01,-3.78,0.26,0.27,0.26
143.44,3.96,3.74,4.04,3.82,-3.82,-4.05,-3.73,0.14,0.22,0.22
144.87,3.93,3.75,4.02,3.85,-3.85,-4.09,-3.69,0.08,0.17,0.18
146.32,3.93,3.80,4.01,3.89,-3.89,-4.12,-3.64,0.04,0.11,0.13
147.78,3.93,3.84,3.99,3.93,-3.93,-4.15,-3.59,-0.00,0.05,0.09
149.26,3.93,3.91,3.96,3.97,-3.97,-4.19,-3.54,-0.04,-0.01,0.02
150.75,3.93,3.99,3.94,4.01,-4.01,-4.21,-3.49,-0.08,-0.07,-0.06
152.26,3.93,4.06,3.91,4.06,-4.06,-4.24,-3.44,-0.12,-0.14,-0.13
153.78,3.93,4.13,3.87,4.09,-4.09,-4.26,-3.39,-0.16,-0.22,-0.20
155.32,3.93,4.23,3.83,4.12,-4.12,-4.28,-3.34,-0.19,-0.29,-0.30
156.88,3.91,4.28,3.79,4.15,-4.15,-4.30,-3.29,-0.24,-0.36,-0.37
158.44,3.76,4.20,3.74,4.17,-4.17,-4.31,-3.24,-0.41,-0.43,-0.44
160.03,3.70,4.22,3.69,4.18,-4.18,-4.32,-3.19,-0.48,-0.49,-0.52
161.63,3.70,4.28,3.63,4.18,-4.18,-4.33,-3.15,-0.48,-0.55,-0.58
163.24,3.56,4.19,3.57,4.17,-4.17,-4.34,-3.10,-0.61,-0.60,-0.63
164.88,3.47,4.14,3.51,4.16,-4.16,-4.34,-3.06,-0.69,-0.65,-0.67
166.53,3.43,4.14,3.45,4.13,-4.13,-4.34,-3.02,-0.70,-0.68,-0.71
168.19,3.31,4.05,3.40,4.11,-4.11,-4.33,-2.98,-0.80,-0.71,-0.74
169.87,3.24,3.99,3.36,4.08,-4.08,-4.33,-2.95,-0.84,-0.73,-0.75
171.57,3.24,4.00,3.32,4.06,-4.06,-4.32,-2.92,-0.82,-0.74,-0.76
173.29,3.24,4.00,3.28,4.03,-4.03,-4.30,-2.89,-0.78,-0.75,-0.76
175.02,3.24,3.98,3.25,4.00,-4.00,-4.29,-2.86,-0.76,-0.75,-0.74
176.77,3.24,3.99,3.23,3.98,-3.98,-4.27,-2.83,-0.74,-0.75,-0.75
178.54,3.24,3.98,3.20,3.95,-3.95,-4.25,-2.81,-0.71,-0.75,-0.74
180.32,3.24,3.97,3.18,3.93,-3.93,-4.22,-2.79,-0.69,-0.75,-0.73
182.13,3.24,3.97,3.17,3.92,-3.92,-4.19,-2.77,-0.68,-0.75,-0.73
183.95,3.24,3.97,3.15,3.90,-3.90,-4.16,-2.75,-0.66,-0.75,-0.73
185.79,3.24,3.98,3.14,3.89,-3.89,-4.13,-2.73,-0.65,-0.76,-0.74
187.65,3.08,3.84,3.12,3.89,-3.89,-4.09,-2.72,-0.81,-0.77,-0.76
189.52,3.02,3.80,3.10,3.88,-3.88,-4.06,-2.71,-0.86,-0.78,-0.78
191.42,3.02,3.82,3.08,3.87,-3.87,-4.02,-2.70,-0.85,-0.79,-0.80
193.33,3.02,3.84,3.06,3.87,-3.87,-3.97,-2.70,-0.85,-0.81,-0.82
195.27,3.02,3.84,3.05,3.87,-3.87,-3.93,-2.69,-0.85,-0.82,-0.82
197.22,3.02,3.86,3.04,3.88,-3.88,-3.88,-2.69,-0.86,-0.84,-0.84
199.19,3.02,3.90,3.03,3.89,-3.89,-3.83,-2.69,-0.87,-0.86,-0.88
201.18,3.02,3.90,3.03,3.91,-3.91,-3.78,-2.68,-0.89,-0.88,-0.88
203.19,3.02,3.92,3.04,3.93,-3.93,-3.72,-2.69,-0.91,-0.90,-0.90
205.23,3.02,3.95,3.04,3.96,-3.96,-3.67,-2.69,-0.94,-0.92,-0.93
207.28,3.02,3.95,3.05,3.98,-3.98,-3.61,-2.69,-0.96,-0.93,-0.93
209.35,3.02,3.97,3.05,4.00,-4.00,-3.55,-2.69,-0.98,-0.95,-0.95
211.44,3.02,4.00,3.04,4.00,-4.00,-3.49,-2.69,-0.98,-0.96,-0.98
213.56,3.02,4.00,3.01,3.99,-3.99,-3.42,-2.70,-0.96,-0.98,-0.98
215.69,3.02,4.00,2.97,3.96,-3.96,-3.36,-2.70,-0.94,-0.99,-0.98
217.85,3.02,4.03,2.92,3.92,-3.92,-3.29,-2.70,-0.90,-1.00,-1.01
220.03,2.93,3.95,2.85,3.87,-3.87,-3.22,-2.70,-0.94,-1.02,-1.02
222.23,2.82,3.86,2.76,3.79,-3.79,-3.15,-2.70,-0.97,-1.03,-1.04
224.45,2.68,3.72,2.66,3.69,-3.69,-3.08,-2.70,-1.01,-1.03,-1.04
226.70,2.57,3.61,2.53,3.57,-3.57,-3.01,-2.69,-1.00,-1.04,-1.04
228.96,2.40,3.45,2.37,3.42,-3.42,-2.93,-2.69,-1.02,-1.05,-1.05
231.25,2.17,3.22,2.21,3.27,-3.27,-2.86,-2.68,-1.10,-1.05,-1.05
233.57,2.07,3.13,2.05,3.11,-3.11,-2.78,-2.67,-1.04,-1.06,-1.06
235.90,1.89,2.96,1.88,2.94,-2.94,-2.71,-2.65,-1.05,-1.06,-1.07
238.26,1.77,2.84,1.71,2.77,-2.77,-2.63,-2.64,-1.00,-1.06,-1.07
240.64,1.55,2.62,1.54,2.60,-2.60,-2.55,-2.61,-1.05,-1.06,-1.07
243.05,1.29,2.35,1.37,2.42,-2.42,-2.47,-2.59,-1.13,-1.05,-1.06
245.48,1.03,2.08,1.20,2.25,-2.25,-2.39,-2.56,-1.22,-1.05,-1.05
247.93,0.96,2.00,1.04,2.09,-2.09,-2.30,-2.53,-1.13,-1.05,-1.04
250.41,0.78,1.83,0.88,1.92,-1.92,-2.22,-2.49,-1.14,-1.04,-1.05
252.92,0.74,1.78,0.73,1.76,-1.76,-2.14,-2.45,-1.02,-1.03,-1.04
255.45,0.74,1.75,0.59,1.61,-1.61,-2.05,-2.40,-0.87,-1.02,-1.01
258.00,0.60,1.61,0.45,1.47,-1.47,-1.97,-2.35,-0.87,-1.01,-1.01
260.58,0.37,1.38,0.33,1.33,-1.33,-1.88,-2.30,-0.96,-1.00,-1.01
263.19,0.27,1.26,0.22,1.21,-1.21,-1.79,-2.24,-0.94,-0.99,-0.99
265.82,0.08,1.07,0.13,1.11,-1.11,-1.70,-2.18,-1.02,-0.97,-0.99
268.48,0.00,0.96,0.06,1.01,-1.01,-1.61,-2.11,-1.01,-0.96,-0.96
271.16,-0.13,0.82,-0.01,0.93,-0.93,-1.52,-2.04,-1.06,-0.94,-0.95
273.87,-0.18,0.76,-0.07,0.86,-0.86,-1.43,-1.97,-1.04,-0.92,-0.94
276.61,-0.18,0.72,-0.12,0.78,-0.78,-1.34,-1.89,-0.96,-0.90,-0.90
279.38,-0.18,0.71,-0.15,0.73,-0.73,-1.25,-1.81,-0.91,-0.88,-0.89
282.17,-0.18,0.68,-0.18,0.67,-0.67,-1.15,-1.73,-0.85,-0.85,-0.86
284.99,-0.18,0.65,-0.19,0.63,-0.63,-1.06,-1.64,-0.81,-0.83,-0.83
287.84,-0.18,0.63,-0.19,0.61,-0.61,-0.96,-1.56,-0.79,-0.80,-0.81
290.72,-0.18,0.59,-0.18,0.59,-0.59,-0.87,-1.47,-0.77,-0.77,-0.77
293.63,-0.18,0.57,-0.18,0.56,-0.56,-0.77,-1.38,-0.74,-0.74,-0.75
296.57,-0.18,0.54,-0.18,0.53,-0.53,-0.67,-1.28,-0.71,-0.72,-0.72
299.53,-0.18,0.51,-0.20,0.50,-0.50,-0.58,-1.19,-0.68,-0.69,-0.69
302.53,-0.18,0.50,-0.22,0.45,-0.45,-0.48,-1.09,-0.63,-0.67,-0.68
305.55,-0.18,0.46,-0.27,0.38,-0.38,-0.38,-1.00,-0.56,-0.65,-0.64
308.61,-0.23,0.39,-0.32,0.31,-0.31,-0.28,-0.90,-0.54,-0.63,-0.62
311.69,-0.38,0.23,-0.39,0.23,-0.23,-0.17,-0.80,-0.61,-0.62,-0.61
314.81,-0.40,0.18,-0.47,0.14,-0.14,-0.07,-0.70,-0.53,-0.60,-0.58
317.96,-0.55,0.03,-0.55,0.04,-0.04,0.03,-0.60,-0.59,-0.59,-0.58
321.14,-0.64,-0.05,-0.65,-0.07,0.07,0.13,-0.50,-0.57,-0.58,-0.59
324.35,-0.81,-0.23,-0.75,-0.18,0.18,0.24,-0.40,-0.63,-0.57,-0.58
327.59,-0.89,-0.32,-0.87,-0.31,0.31,0.34,-0.29,-0.58,-0.56,-0.57
330.87,-1.04,-0.48,-1.00,-0.45,0.45,0.45,-0.19,-0.59,-0.55,-0.56
334.18,-1.19,-0.63,-1.13,-0.59,0.59,0.55,-0.09,-0.60,-0.54,-0.56
337.52,-1.30,-0.75,-1.26,-0.73,0.73,0.66,0.02,-0.57,-0.53,-0.55
340.90,-1.32,-0.80,-1.39,-0.87,0.87,0.77,0.12,-0.45,-0.52,-0.52
344.30,-1.49,-0.98,-1.52,-1.01,1.01,0.87,0.23,-0.48,-0.50,-0.51
347.75,-1.60,-1.10,-1.63,-1.15,1.15,0.98,0.33,-0.45,-0.48,-0.50
351.23,-1.73,-1.26,-1.76,-1.29,1.29,1.09,0.44,-0.44,-0.47,-0.47
354.74,-1.87,-1.42,-1.88,-1.43,1.43,1.20,0.54,-0.43,-0.44,-0.45
358.28,-2.09,-1.67,-2.00,-1.58,1.58,1.30,0.65,-0.51,-0.42,-0.42
361.87,-2.20,-1.80,-2.11,-1.72,1.72,1.41,0.76,-0.48,-0.40,-0.40
365.49,-2.23,-1.85,-2.22,-1.85,1.85,1.52,0.86,-0.38,-0.37,-0.38
369.14,-2.25,-1.89,-2.32,-1.97,1.97,1.62,0.97,-0.28,-0.35,-0.36
372.83,-2.39,-2.06,-2.43,-2.10,2.10,1.72,1.08,-0.29,-0.33,-0.33
376.56,-2.51,-2.20,-2.53,-2.22,2.22,1.83,1.19,-0.29,-0.31,-0.31
380.33,-2.65,-2.37,-2.62,-2.33,2.33,1.93,1.29,-0.32,-0.29,-0.28
384.13,-2.68,-2.42,-2.71,-2.43,2.43,2.03,1.40,-0.24,-0.27,-0.26
387.97,-2.84,-2.59,-2.79,-2.53,2.53,2.13,1.51,-0.31,-0.26,-0.25
391.85,-2.90,-2.65,-2.86,-2.62,2.62,2.22,1.62,-0.28,-0.24,-0.25
395.77,-2.91,-2.67,-2.93,-2.69,2.69,2.31,1.73,-0.22,-0.23,-0.24
399.73,-2.91,-2.68,-2.98,-2.76,2.76,2.40,1.84,-0.15,-0.22,-0.23
403.72,-2.99,-2.77,-3.03,-2.82,2.82,2.49,1.95,-0.17,-0.21,-0.22
407.76,-3.11,-2.90,-3.07,-2.86,2.86,2.58,2.05,-0.25,-0.21,-0.21
411.84,-3.14,-2.94,-3.09,-2.89,2.89,2.65,2.16,-0.25,-0.20,-0.20
415.96,-3.14,-2.95,-3.10,-2.90,2.90,2.73,2.26,-0.24,-0.20,-0.19
420.12,-3.14,-2.95,-3.10,-2.91,2.91,2.80,2.37,-0.23,-0.20,-0.19
424.32,-3.14,-2.95,-3.09,-2.90,2.90,2.87,2.47,-0.24,-0.19,-0.19
428.56,-3.14,-2.95,-3.08,-2.89,2.89,2.93,2.57,-0.25,-0.19,-0.19
432.85,-3.14,-2.94,-3.06,-2.88,2.88,2.99,2.67,-0.26,-0.19,-0.20
437.18,-3.03,-2.84,-3.04,-2.86,2.86,3.04,2.76,-0.17,-0.18,-0.19
441.55,-2.94,-2.76,-3.03,-2.85,2.85,3.08,2.86,-0.09,-0.18,-0.18
445.96,-2.91,-2.73,-3.01,-2.84,2.84,3.12,2.94,-0.07,-0.17,-0.18
450.42,-2.91,-2.74,-2.99,-2.83,2.83,3.16,3.03,-0.08,-0.16,-0.17
454.93,-2.91,-2.75,-2.96,-2.81,2.81,3.18,3.11,-0.10,-0.15,-0.16
459.48,-2.91,-2.76,-2.94,-2.80,2.80,3.21,3.18,-0.11,-0.14,-0.15
464.07,-2.91,-2.78,-2.91,-2.79,2.79,3.22,3.25,-0.12,-0.12,-0.13
468.71,-2.91,-2.80,-2.89,-2.79,2.79,3.23,3.32,-0.12,-0.11,-0.11
473.40,-2.91,-2.81,-2.87,-2.78,2.78,3.24,3.38,-0.13,-0.09,-0.10
478.13,-2.91,-2.84,-2.85,-2.79,2.79,3.23,3.43,-0.12,-0.06,-0.07
482.91,-2.91,-2.86,-2.84,-2.80,2.80,3.23,3.47,-0.11,-0.04,-0.05
487.74,-2.91,-2.89,-2.83,-2.82,2.82,3.21,3.51,-0.09,-0.02,-0.02
492.62,-2.83,-2.84,-2.82,-2.82,2.82,3.20,3.54,-0.01,0.01,0.01
497.55,-2.71,-2.74,-2.79,-2.82,2.82,3.18,3.57,0.11,0.03,0.03
502.52,-2.68,-2.74,-2.76,-2.81,2.81,3.15,3.58,0.13,0.06,0.06
507.55,-2.68,-2.75,-2.72,-2.80,2.80,3.12,3.59,0.12,0.08,0.07
