frequency,raw,error,smoothed,error_smoothed,equalization,parametric_eq,fixed_band_eq,equalized_raw,equalized_smoothed,target
20.00,-17.39,-20.99,-17.47,-21.09,21.09,21.76,9.06,3.70,3.62,3.60
20.20,-17.34,-20.97,-17.33,-20.98,20.98,21.61,9.24,3.64,3.64,3.63
20.40,-17.22,-20.88,-17.20,-20.86,20.86,21.46,9.42,3.64,3.66,3.66
20.61,-17.09,-20.77,-17.06,-20.74,20.74,21.29,9.61,3.65,3.68,3.68
20.81,-16.96,-20.67,-16.93,-20.63,20.63,21.12,9.79,3.67,3.70,3.71
21.02,-16.80,-20.54,-16.79,-20.51,20.51,20.95,9.99,3.71,3.72,3.74
21.23,-16.67,-20.42,-16.66,-20.39,20.39,20.77,10.19,3.72,3.73,3.75
21.44,-16.54,-20.30,-16.52,-20.27,20.27,20.60,10.39,3.73,3.74,3.76
21.66,-16.40,-20.17,-16.39,-20.15,20.15,20.42,10.60,3.74,3.76,3.77
21.87,-16.25,-20.02,-16.26,-20.02,20.02,20.24,10.81,3.78,3.77,3.77
22.09,-16.11,-19.89,-16.13,-19.90,19.90,20.06,11.03,3.79,3.77,3.78
22.31,-16.00,-19.78,-16.00,-19.78,19.78,19.89,11.26,3.78,3.78,3.78
22.54,-15.86,-19.64,-15.86,-19.64,19.64,19.72,11.49,3.77,3.78,3.78
22.76,-15.72,-19.50,-15.72,-19.50,19.50,19.55,11.72,3.78,3.78,3.78
22.99,-15.60,-19.37,-15.59,-19.37,19.37,19.38,11.97,3.77,3.78,3.77
23.22,-15.46,-19.23,-15.47,-19.24,19.24,19.22,12.22,3.78,3.78,3.77
23.45,-15.34,-19.11,-15.34,-19.12,19.12,19.06,12.48,3.78,3.77,3.77
23.69,-15.21,-18.98,-15.22,-18.99,18.99,18.90,12.74,3.78,3.77,3.77
23.92,-15.09,-18.86,-15.09,-18.86,18.86,18.75,13.01,3.77,3.77,3.77
24.16,-14.96,-18.73,-14.97,-18.74,18.74,18.60,13.29,3.78,3.77,3.77
24.40,-14.85,-18.62,-14.85,-18.62,18.62,18.46,13.58,3.77,3.77,3.77
24.65,-14.73,-18.49,-14.74,-18.50,18.50,18.32,13.88,3.77,3.76,3.76
24.89,-14.63,-18.39,-14.62,-18.38,18.38,18.18,14.18,3.76,3.76,3.76
25.14,-14.53,-18.29,-14.51,-18.27,18.27,18.05,14.50,3.74,3.76,3.76
25.39,-14.40,-18.16,-14.40,-18.16,18.16,17.91,14.82,3.76,3.76,3.76
25.65,-14.28,-18.04,-14.29,-18.05,18.05,17.79,15.16,3.77,3.76,3.76
25.91,-14.17,-17.92,-14.18,-17.94,17.94,17.66,15.50,3.76,3.76,3.75
26.16,-14.07,-17.82,-14.08,-17.83,17.83,17.54,15.85,3.76,3.75,3.75
26.43,-13.97,-17.72,-13.97,-17.72,17.72,17.42,16.21,3.75,3.75,3.75
26.69,-13.87,-17.62,-13.87,-17.61,17.61,17.31,16.58,3.74,3.75,3.75
26.96,-13.76,-17.51,-13.76,-17.51,17.51,17.19,16.96,3.74,3.74,3.75
27.23,-13.66,-17.40,-13.66,-17.40,17.40,17.08,17.34,3.74,3.74,3.74
27.50,-13.56,-17.30,-13.56,-17.29,17.29,16.97,17.74,3.73,3.74,3.74
27.77,-13.45,-17.18,-13.45,-17.19,17.19,16.87,18.13,3.74,3.73,3.73
28.05,-13.35,-17.08,-13.35,-17.08,17.08,16.76,18.53,3.73,3.73,3.73
28.33,-13.25,-16.97,-13.25,-16.98,16.98,16.66,18.93,3.73,3.73,3.72
28.62,-13.14,-16.86,-13.15,-16.87,16.87,16.56,19.32,3.73,3.72,3.72
28.90,-13.04,-16.76,-13.04,-16.76,16.76,16.46,19.70,3.72,3.72,3.72
29.19,-12.94,-16.65,-12.94,-16.65,16.65,16.36,20.06,3.71,3.71,3.71
29.48,-12.83,-16.54,-12.83,-16.54,16.54,16.26,20.40,3.71,3.71,3.71
29.78,-12.73,-16.43,-12.72,-16.42,16.42,16.16,20.70,3.69,3.70,3.70
30.08,-12.63,-16.33,-12.61,-16.31,16.31,16.06,20.96,3.68,3.70,3.70
30.38,-12.50,-16.19,-12.50,-16.19,16.19,15.96,21.17,3.69,3.69,3.69
30.68,-12.38,-16.07,-12.39,-16.08,16.08,15.86,21.32,3.70,3.69,3.69
30.99,-12.28,-15.96,-12.28,-15.96,15.96,15.76,21.39,3.68,3.68,3.68
31.30,-12.15,-15.82,-12.16,-15.84,15.84,15.66,21.40,3.68,3.67,3.67
31.61,-12.05,-15.72,-12.04,-15.71,15.71,15.56,21.34,3.66,3.67,3.67
31.93,-11.92,-15.58,-11.92,-15.59,15.59,15.46,21.21,3.66,3.66,3.66
32.24,-11.80,-15.45,-11.80,-15.46,15.46,15.36,21.02,3.66,3.65,3.65
32.57,-11.69,-15.34,-11.68,-15.33,15.33,15.25,20.77,3.64,3.65,3.65
32.89,-11.55,-15.19,-11.56,-15.20,15.20,15.15,20.49,3.65,3.64,3.64
33.22,-11.44,-15.07,-11.43,-15.06,15.06,15.04,20.17,3.62,3.63,3.63
33.55,-11.30,-14.93,-11.30,-14.93,14.93,14.93,19.82,3.63,3.62,3.63
33.89,-11.18,-14.80,-11.18,-14.79,14.79,14.82,19.46,3.61,3.62,3.62
34.23,-11.05,-14.66,-11.05,-14.66,14.66,14.71,19.08,3.61,3.61,3.61
34.57,-10.92,-14.52,-10.92,-14.52,14.52,14.60,18.71,3.60,3.60,3.60
34.92,-10.80,-14.39,-10.79,-14.38,14.38,14.48,18.33,3.58,3.59,3.59
35.27,-10.65,-14.23,-10.66,-14.24,14.24,14.36,17.95,3.59,3.58,3.58
35.62,-10.53,-14.10,-10.53,-14.10,14.10,14.24,17.58,3.57,3.57,3.57
35.97,-10.40,-13.96,-10.40,-13.96,13.96,14.12,17.21,3.56,3.56,3.56
36.33,-10.26,-13.81,-10.27,-13.82,13.82,14.00,16.85,3.56,3.55,3.55
36.70,-10.15,-13.69,-10.15,-13.69,13.69,13.87,16.50,3.54,3.54,3.54
37.06,-10.01,-13.54,-10.02,-13.55,13.55,13.74,16.16,3.54,3.53,3.53
37.43,-9.90,-13.42,-9.89,-13.41,13.41,13.61,15.83,3.51,3.52,3.52
37.81,-9.76,-13.27,-9.77,-13.27,13.27,13.48,15.51,3.51,3.51,3.51
38.19,-9.64,-13.14,-9.64,-13.14,13.14,13.35,15.20,3.50,3.50,3.50
38.57,-9.51,-13.00,-9.52,-13.00,13.00,13.22,14.90,3.49,3.49,3.49
38.95,-9.40,-12.88,-9.39,-12.87,12.87,13.08,14.61,3.47,3.48,3.48
39.34,-9.27,-12.73,-9.27,-12.74,12.74,12.94,14.33,3.47,3.47,3.46
39.74,-9.16,-12.61,-9.15,-12.60,12.60,12.80,14.05,3.44,3.46,3.45
40.14,-9.03,-12.47,-9.03,-12.48,12.48,12.66,13.79,3.44,3.45,3.44
40.54,-8.91,-12.34,-8.91,-12.35,12.35,12.52,13.53,3.43,3.43,3.43
40.94,-8.78,-12.20,-8.79,-12.22,12.22,12.38,13.29,3.44,3.42,3.42
41.35,-8.67,-12.08,-8.68,-12.09,12.09,12.24,13.05,3.42,3.41,3.41
41.76,-8.55,-11.95,-8.56,-11.96,11.96,12.09,12.82,3.41,3.40,3.40
42.18,-8.43,-11.82,-8.45,-11.83,11.83,11.95,12.59,3.40,3.39,3.39
42.60,-8.33,-11.71,-8.33,-11.70,11.70,11.81,12.38,3.37,3.37,3.38
43.03,-8.22,-11.59,-8.21,-11.57,11.57,11.67,12.17,3.35,3.36,3.37
43.46,-8.12,-11.47,-8.10,-11.44,11.44,11.52,11.97,3.32,3.34,3.35
43.90,-7.99,-11.32,-7.98,-11.31,11.31,11.38,11.77,3.32,3.33,3.33
44.33,-7.89,-11.20,-7.86,-11.18,11.18,11.24,11.58,3.29,3.32,3.31
44.78,-7.75,-11.04,-7.75,-11.05,11.05,11.10,11.40,3.30,3.30,3.29
45.23,-7.64,-10.91,-7.63,-10.92,10.92,10.96,11.22,3.28,3.28,3.27
45.68,-7.52,-10.78,-7.52,-10.79,10.79,10.82,11.05,3.26,3.26,3.26
46.13,-7.41,-10.65,-7.41,-10.65,10.65,10.69,10.89,3.25,3.25,3.24
46.60,-7.29,-10.52,-7.30,-10.52,10.52,10.55,10.73,3.23,3.23,3.23
47.06,-7.16,-10.37,-7.19,-10.40,10.40,10.42,10.57,3.23,3.20,3.21
47.53,-7.06,-10.25,-7.08,-10.27,10.27,10.29,10.42,3.21,3.18,3.19
48.01,-6.98,-10.16,-6.98,-10.14,10.14,10.16,10.28,3.16,3.16,3.18
48.49,-6.88,-10.03,-6.88,-10.02,10.02,10.03,10.14,3.14,3.14,3.15
48.97,-6.77,-9.89,-6.78,-9.90,9.90,9.91,10.00,3.13,3.12,3.12
49.46,-6.69,-9.78,-6.69,-9.79,9.79,9.79,9.87,3.09,3.10,3.09
49.96,-6.61,-9.67,-6.60,-9.67,9.67,9.67,9.74,3.06,3.07,3.06
50.46,-6.51,-9.55,-6.51,-9.56,9.56,9.55,9.61,3.05,3.05,3.04
50.96,-6.44,-9.46,-6.43,-9.45,9.45,9.44,9.49,3.01,3.02,3.02
51.47,-6.34,-9.33,-6.35,-9.34,9.34,9.32,9.37,3.00,3.00,2.99
51.99,-6.27,-9.24,-6.27,-9.24,9.24,9.22,9.26,2.97,2.97,2.97
52.51,-6.18,-9.13,-6.18,-9.13,9.13,9.11,9.15,2.95,2.95,2.95
53.03,-6.12,-9.05,-6.10,-9.03,9.03,9.01,9.04,2.91,2.92,2.93
53.56,-6.03,-8.93,-6.03,-8.92,8.92,8.91,8.93,2.89,2.90,2.90
54.10,-5.96,-8.84,-5.95,-8.82,8.82,8.82,8.82,2.86,2.87,2.88
54.64,-5.88,-8.73,-5.87,-8.73,8.73,8.73,8.72,2.85,2.85,2.85
55.18,-5.81,-8.64,-5.80,-8.63,8.63,8.64,8.62,2.82,2.83,2.83
55.74,-5.74,-8.54,-5.73,-8.54,8.54,8.55,8.51,2.80,2.81,2.80
56.29,-5.66,-8.44,-5.67,-8.45,8.45,8.47,8.41,2.79,2.79,2.78
56.86,-5.61,-8.37,-5.61,-8.37,8.37,8.39,8.31,2.76,2.76,2.76
57.42,-5.54,-8.27,-5.55,-8.29,8.29,8.32,8.21,2.75,2.74,2.73
58.00,-5.49,-8.20,-5.51,-8.22,8.22,8.24,8.11,2.73,2.71,2.71
58.58,-5.46,-8.15,-5.47,-8.16,8.16,8.17,8.01,2.70,2.69,2.69
59.16,-5.41,-8.08,-5.44,-8.10,8.10,8.11,7.91,2.69,2.66,2.67
59.76,-5.39,-8.04,-5.42,-8.06,8.06,8.04,7.81,2.67,2.64,2.65
60.35,-5.39,-8.01,-5.41,-8.02,8.02,7.98,7.71,2.63,2.61,2.62
60.96,-5.36,-7.95,-5.41,-7.99,7.99,7.91,7.61,2.63,2.58,2.59
61.57,-5.39,-7.94,-5.41,-7.97,7.97,7.85,7.50,2.58,2.55,2.55
62.18,-5.39,-7.91,-5.42,-7.94,7.94,7.79,7.40,2.55,2.53,2.52
62.80,-5.39,-7.88,-5.42,-7.92,7.92,7.73,7.29,2.53,2.50,2.49
63.43,-5.43,-7.89,-5.42,-7.89,7.89,7.67,7.18,2.46,2.47,2.46
64.07,-5.43,-7.86,-5.42,-7.86,7.86,7.60,7.07,2.43,2.44,2.43
64.71,-5.43,-7.84,-5.41,-7.81,7.81,7.53,6.96,2.38,2.41,2.41
65.35,-5.43,-7.81,-5.38,-7.76,7.76,7.47,6.85,2.33,2.38,2.38
66.01,-5.40,-7.75,-5.34,-7.69,7.69,7.39,6.73,2.29,2.35,2.35
66.67,-5.35,-7.67,-5.28,-7.60,7.60,7.32,6.62,2.25,2.32,2.32
67.33,-5.25,-7.54,-5.21,-7.50,7.50,7.23,6.50,2.25,2.29,2.29
68.01,-5.17,-7.43,-5.12,-7.38,7.38,7.15,6.39,2.20,2.26,2.26
68.69,-5.04,-7.27,-5.01,-7.24,7.24,7.05,6.27,2.20,2.23,2.23
69.37,-4.91,-7.11,-4.88,-7.08,7.08,6.95,6.15,2.17,2.20,2.20
70.07,-4.76,-6.93,-4.75,-6.92,6.92,6.85,6.03,2.16,2.17,2.17
70.77,-4.60,-6.74,-4.60,-6.74,6.74,6.74,5.91,2.14,2.14,2.14
71.48,-4.44,-6.55,-4.45,-6.55,6.55,6.62,5.79,2.11,2.10,2.11
72.19,-4.28,-6.35,-4.30,-6.37,6.37,6.50,5.67,2.09,2.07,2.07
72.91,-4.12,-6.16,-4.14,-6.18,6.18,6.37,5.56,2.06,2.04,2.04
73.64,-3.95,-5.95,-4.00,-6.00,6.00,6.24,5.44,2.05,2.00,2.00
74.38,-3.81,-5.78,-3.85,-5.82,5.82,6.10,5.32,2.01,1.97,1.97
75.12,-3.68,-5.61,-3.72,-5.66,5.66,5.96,5.20,1.98,1.94,1.93
75.87,-3.56,-5.46,-3.59,-5.49,5.49,5.82,5.08,1.93,1.90,1.90
76.63,-3.45,-5.32,-3.47,-5.35,5.35,5.67,4.97,1.89,1.87,1.87
77.40,-3.35,-5.19,-3.37,-5.20,5.20,5.52,4.85,1.85,1.84,1.84
78.17,-3.25,-5.05,-3.27,-5.07,5.07,5.37,4.74,1.82,1.80,1.80
78.95,-3.17,-4.94,-3.18,-4.94,4.94,5.22,4.62,1.77,1.77,1.77
79.74,-3.10,-4.84,-3.09,-4.82,4.82,5.07,4.51,1.72,1.74,1.74
80.54,-3.00,-4.70,-3.01,-4.71,4.71,4.92,4.40,1.71,1.70,1.70
81.35,-2.94,-4.61,-2.93,-4.60,4.60,4.77,4.29,1.66,1.67,1.67
82.16,-2.88,-4.51,-2.86,-4.49,4.49,4.62,4.18,1.61,1.63,1.63
82.98,-2.81,-4.41,-2.79,-4.38,4.38,4.47,4.07,1.57,1.60,1.60
83.81,-2.72,-4.28,-2.71,-4.27,4.27,4.33,3.97,1.55,1.56,1.56
84.65,-2.66,-4.18,-2.64,-4.16,4.16,4.18,3.86,1.50,1.52,1.52
85.50,-2.56,-4.05,-2.57,-4.05,4.05,4.04,3.76,1.49,1.49,1.49
86.35,-2.50,-3.95,-2.49,-3.94,3.94,3.90,3.66,1.44,1.45,1.45
87.22,-2.40,-3.81,-2.42,-3.83,3.83,3.77,3.56,1.43,1.41,1.41
88.09,-2.34,-3.71,-2.34,-3.71,3.71,3.64,3.46,1.37,1.37,1.37
88.97,-2.27,-3.60,-2.26,-3.59,3.59,3.51,3.36,1.32,1.33,1.33
89.86,-2.18,-3.47,-2.19,-3.47,3.47,3.38,3.26,1.29,1.29,1.29
90.76,-2.11,-3.35,-2.11,-3.35,3.35,3.26,3.17,1.24,1.24,1.24
91.66,-2.03,-3.23,-2.03,-3.23,3.23,3.14,3.07,1.20,1.20,1.20
92.58,-1.96,-3.11,-1.95,-3.11,3.11,3.02,2.98,1.15,1.16,1.15
93.51,-1.89,-3.00,-1.88,-2.99,2.99,2.91,2.89,1.10,1.11,1.11
94.44,-1.81,-2.88,-1.80,-2.86,2.86,2.79,2.80,1.05,1.06,1.07
95.39,-1.73,-2.75,-1.73,-2.74,2.74,2.69,2.71,1.01,1.02,1.02
96.34,-1.66,-2.63,-1.65,-2.62,2.62,2.58,2.62,0.96,0.97,0.97
97.30,-1.57,-2.49,-1.58,-2.51,2.51,2.48,2.54,0.93,0.92,0.92
98.28,-1.51,-2.38,-1.51,-2.39,2.39,2.38,2.45,0.88,0.88,0.87
99.26,-1.44,-2.27,-1.45,-2.27,2.27,2.28,2.37,0.83,0.83,0.83
100.25,-1.37,-2.15,-1.38,-2.16,2.16,2.19,2.29,0.79,0.78,0.78
101.25,-1.30,-2.03,-1.32,-2.05,2.05,2.10,2.20,0.75,0.73,0.73
102.27,-1.25,-1.93,-1.26,-1.95,1.95,2.01,2.12,0.70,0.68,0.68
103.29,-1.21,-1.84,-1.21,-1.84,1.84,1.92,2.05,0.63,0.64,0.63
104.32,-1.16,-1.75,-1.16,-1.74,1.74,1.84,1.97,0.58,0.59,0.59
105.37,-1.11,-1.65,-1.11,-1.65,1.65,1.75,1.89,0.53,0.54,0.54
106.42,-1.08,-1.57,-1.06,-1.55,1.55,1.67,1.82,0.47,0.49,0.49
107.48,-1.03,-1.47,-1.02,-1.46,1.46,1.60,1.74,0.43,0.44,0.44
108.56,-0.99,-1.38,-0.98,-1.37,1.37,1.52,1.67,0.38,0.39,0.39
109.64,-0.95,-1.29,-0.95,-1.28,1.28,1.45,1.60,0.33,0.34,0.34
110.74,-0.92,-1.21,-0.92,-1.20,1.20,1.38,1.53,0.28,0.28,0.29
111.85,-0.89,-1.13,-0.89,-1.12,1.12,1.31,1.46,0.23,0.23,0.24
112.97,-0.88,-1.06,-0.87,-1.05,1.05,1.24,1.40,0.17,0.18,0.18
114.10,-0.84,-0.97,-0.86,-0.99,0.99,1.17,1.33,0.14,0.13,0.13
115.24,-0.84,-0.91,-0.85,-0.93,0.93,1.11,1.27,0.09,0.07,0.07
116.39,-0.84,-0.86,-0.85,-0.88,0.88,1.05,1.21,0.04,0.02,0.02
117.55,-0.84,-0.80,-0.87,-0.83,0.83,0.99,1.15,-0.01,-0.03,-0.04
118.73,-0.88,-0.79,-0.89,-0.80,0.80,0.93,1.09,-0.08,-0.08,-0.09
119.92,-0.88,-0.74,-0.91,-0.78,0.78,0.87,1.04,-0.10,-0.14,-0.14
121.12,-0.94,-0.75,-0.95,-0.76,0.76,0.81,0.98,-0.18,-0.19,-0.19
122.33,-0.97,-0.73,-0.99,-0.75,0.75,0.76,0.93,-0.22,-0.24,-0.24
123.55,-1.03,-0.74,-1.04,-0.75,0.75,0.71,0.88,-0.28,-0.29,-0.29
124.79,-1.08,-0.74,-1.10,-0.75,0.75,0.65,0.83,-0.33,-0.35,-0.34
126.03,-1.14,-0.75,-1.15,-0.76,0.76,0.60,0.79,-0.38,-0.40,-0.39
127.29,-1.22,-0.78,-1.21,-0.77,0.77,0.55,0.74,-0.46,-0.45,-0.44
128.57,-1.27,-0.77,-1.27,-0.77,0.77,0.51,0.70,-0.50,-0.50,-0.50
129.85,-1.34,-0.79,-1.32,-0.77,0.77,0.46,0.66,-0.57,-0.55,-0.55
131.15,-1.38,-0.78,-1.36,-0.77,0.77,0.41,0.62,-0.61,-0.60,-0.60
132.46,-1.42,-0.77,-1.40,-0.76,0.76,0.37,0.58,-0.66,-0.64,-0.65
133.79,-1.47,-0.78,-1.43,-0.74,0.74,0.33,0.54,-0.73,-0.69,-0.69
135.12,-1.49,-0.75,-1.45,-0.71,0.71,0.29,0.51,-0.78,-0.74,-0.74
136.48,-1.49,-0.71,-1.46,-0.68,0.68,0.24,0.47,-0.81,-0.78,-0.78
137.84,-1.49,-0.66,-1.46,-0.64,0.64,0.21,0.44,-0.85,-0.83,-0.83
139.22,-1.49,-0.61,-1.45,-0.59,0.59,0.17,0.41,-0.91,-0.87,-0.88
140.61,-1.44,-0.52,-1.44,-0.53,0.53,0.13,0.38,-0.91,-0.91,-0.92
142.02,-1.43,-0.48,-1.42,-0.47,0.47,0.09,0.35,-0.96,-0.95,-0.95
143.44,-1.40,-0.41,-1.39,-0.40,0.40,0.06,0.32,-1.00,-0.99,-0.99
144.87,-1.37,-0.34,-1.37,-0.34,0.34,0.02,0.29,-1.03,-1.03,-1.03
146.32,-1.32,-0.25,-1.35,-0.28,0.28,-0.01,0.26,-1.04,-1.07,-1.07
147.78,-1.31,-0.21,-1.33,-0.22,0.22,-0.04,0.23,-1.09,-1.11,-1.10
149.26,-1.27,-0.13,-1.32,-0.17,0.17,-0.08,0.21,-1.10,-1.15,-1.14
150.75,-1.27,-0.09,-1.31,-0.13,0.13,-0.11,0.18,-1.15,-1.18,-1.18
152.26,-1.27,-0.05,-1.31,-0.09,0.09,-0.14,0.15,-1.18,-1.22,-1.22
153.78,-1.27,-0.01,-1.32,-0.06,0.06,-0.17,0.13,-1.21,-1.26,-1.26
155.32,-1.31,-0.01,-1.34,-0.04,0.04,-0.19,0.10,-1.27,-1.30,-1.30
156.88,-1.34,-0.00,-1.36,-0.02,0.02,-0.22,0.07,-1.32,-1.34,-1.34
158.44,-1.37,0.01,-1.38,-0.01,0.01,-0.25,0.04,-1.36,-1.38,-1.38
160.03,-1.42,-0.00,-1.41,0.01,-0.01,-0.27,0.02,-1.43,-1.42,-1.42
161.63,-1.46,-0.00,-1.44,0.02,-0.02,-0.30,-0.01,-1.48,-1.46,-1.46
163.24,-1.49,0.01,-1.46,0.04,-0.04,-0.32,-0.04,-1.53,-1.50,-1.50
164.88,-1.53,-0.00,-1.47,0.06,-0.06,-0.35,-0.07,-1.59,-1.53,-1.53
166.53,-1.53,0.04,-1.49,0.09,-0.09,-0.37,-0.10,-1.62,-1.57,-1.57
168.19,-1.53,0.08,-1.49,0.12,-0.12,-0.39,-0.13,-1.65,-1.61,-1.61
169.87,-1.53,0.12,-1.49,0.16,-0.16,-0.41,-0.16,-1.69,-1.65,-1.65
171.57,-1.51,0.18,-1.49,0.20,-0.20,-0.43,-0.19,-1.71,-1.69,-1.69
173.29,-1.49,0.23,-1.48,0.25,-0.25,-0.45,-0.22,-1.74,-1.73,-1.72
175.02,-1.45,0.31,-1.47,0.29,-0.29,-0.47,-0.25,-1.74,-1.76,-1.76
176.77,-1.44,0.36,-1.46,0.34,-0.34,-0.49,-0.28,-1.78,-1.80,-1.80
178.54,-1.41,0.43,-1.45,0.39,-0.39,-0.51,-0.32,-1.80,-1.84,-1.84
180.32,-1.40,0.48,-1.44,0.43,-0.43,-0.52,-0.35,-1.84,-1.88,-1.88
182.13,-1.40,0.51,-1.44,0.48,-0.48,-0.54,-0.39,-1.88,-1.91,-1.91
183.95,-1.40,0.55,-1.44,0.51,-0.51,-0.56,-0.42,-1.91,-1.95,-1.95
185.79,-1.40,0.58,-1.44,0.54,-0.54,-0.57,-0.46,-1.94,-1.98,-1.98
187.65,-1.44,0.58,-1.45,0.57,-0.57,-0.59,-0.49,-2.01,-2.02,-2.02
189.52,-1.44,0.61,-1.45,0.60,-0.60,-0.60,-0.53,-2.04,-2.05,-2.05
191.42,-1.49,0.59,-1.46,0.62,-0.62,-0.61,-0.57,-2.11,-2.08,-2.08
193.33,-1.49,0.62,-1.47,0.64,-0.64,-0.63,-0.60,-2.13,-2.11,-2.11
195.27,-1.49,0.65,-1.48,0.67,-0.67,-0.64,-0.64,-2.16,-2.14,-2.14
197.22,-1.51,0.66,-1.48,0.69,-0.69,-0.65,-0.68,-2.20,-2.17,-2.17
199.19,-1.50,0.70,-1.48,0.72,-0.72,-0.66,-0.72,-2.22,-2.19,-2.20
201.18,-1.49,0.73,-1.47,0.75,-0.75,-0.67,-0.75,-2.24,-2.22,-2.22
203.19,-1.48,0.76,-1.46,0.78,-0.78,-0.68,-0.79,-2.26,-2.24,-2.24
205.23,-1.44,0.82,-1.44,0.82,-0.82,-0.69,-0.83,-2.26,-2.26,-2.26
207.28,-1.42,0.85,-1.42,0.86,-0.86,-0.70,-0.87,-2.28,-2.28,-2.27
209.35,-1.39,0.90,-1.39,0.90,-0.90,-0.70,-0.91,-2.29,-2.29,-2.29
211.44,-1.36,0.95,-1.36,0.94,-0.94,-0.71,-0.94,-2.30,-2.30,-2.31
213.56,-1.31,1.01,-1.33,0.98,-0.98,-0.72,-0.98,-2.29,-2.32,-2.32
215.69,-1.30,1.02,-1.31,1.02,-1.02,-0.72,-1.01,-2.32,-2.33,-2.32
217.85,-1.27,1.06,-1.28,1.05,-1.05,-0.73,-1.05,-2.32,-2.33,-2.33
220.03,-1.25,1.09,-1.26,1.08,-1.08,-0.73,-1.08,-2.33,-2.34,-2.34
222.23,-1.23,1.12,-1.24,1.11,-1.11,-0.73,-1.11,-2.34,-2.34,-2.35
224.45,-1.22,1.13,-1.22,1.13,-1.13,-0.74,-1.14,-2.35,-2.35,-2.35
226.70,-1.18,1.17,-1.21,1.14,-1.14,-0.74,-1.17,-2.32,-2.35,-2.35
228.96,-1.18,1.17,-1.19,1.15,-1.15,-0.74,-1.19,-2.33,-2.35,-2.35
231.25,-1.18,1.16,-1.19,1.16,-1.16,-0.74,-1.21,-2.34,-2.35,-2.34
233.57,-1.18,1.16,-1.18,1.16,-1.16,-0.74,-1.23,-2.34,-2.34,-2.34
235.90,-1.18,1.16,-1.18,1.16,-1.16,-0.74,-1.25,-2.34,-2.34,-2.34
238.26,-1.18,1.15,-1.18,1.15,-1.15,-0.74,-1.26,-2.33,-2.33,-2.33
240.64,-1.18,1.14,-1.18,1.14,-1.14,-0.74,-1.27,-2.33,-2.32,-2.32
243.05,-1.18,1.13,-1.18,1.14,-1.14,-0.74,-1.28,-2.32,-2.31,-2.31
245.48,-1.18,1.12,-1.18,1.12,-1.12,-0.74,-1.28,-2.31,-2.30,-2.30
247.93,-1.18,1.11,-1.17,1.11,-1.11,-0.74,-1.28,-2.29,-2.29,-2.29
250.41,-1.18,1.10,-1.17,1.10,-1.10,-0.73,-1.28,-2.28,-2.27,-2.28
252.92,-1.18,1.08,-1.17,1.09,-1.09,-0.73,-1.28,-2.27,-2.26,-2.26
255.45,-1.18,1.06,-1.17,1.08,-1.08,-0.72,-1.27,-2.26,-2.24,-2.24
258.00,-1.18,1.05,-1.16,1.07,-1.07,-0.72,-1.25,-2.25,-2.23,-2.23
260.58,-1.14,1.07,-1.16,1.05,-1.05,-0.71,-1.24,-2.19,-2.21,-2.21
263.19,-1.14,1.05,-1.15,1.04,-1.04,-0.70,-1.22,-2.18,-2.19,-2.19
265.82,-1.14,1.03,-1.14,1.03,-1.03,-0.69,-1.19,-2.17,-2.17,-2.17
268.48,-1.14,1.01,-1.14,1.01,-1.01,-0.69,-1.17,-2.16,-2.15,-2.15
271.16,-1.14,0.99,-1.13,1.00,-1.00,-0.68,-1.14,-2.14,-2.13,-2.13
273.87,-1.12,0.99,-1.13,0.98,-0.98,-0.67,-1.10,-2.11,-2.11,-2.11
276.61,-1.12,0.97,-1.13,0.97,-0.97,-0.66,-1.07,-2.09,-2.09,-2.09
279.38,-1.12,0.95,-1.13,0.95,-0.95,-0.64,-1.03,-2.07,-2.07,-2.07
282.17,-1.12,0.93,-1.13,0.92,-0.92,-0.63,-0.99,-2.05,-2.05,-2.05
284.99,-1.12,0.91,-1.13,0.90,-0.90,-0.62,-0.95,-2.02,-2.03,-2.03
287.84,-1.14,0.87,-1.14,0.87,-0.87,-0.60,-0.91,-2.01,-2.01,-2.01
290.72,-1.14,0.85,-1.15,0.84,-0.84,-0.59,-0.86,-1.98,-1.99,-1.99
293.63,-1.14,0.83,-1.16,0.81,-0.81,-0.57,-0.82,-1.95,-1.97,-1.97
296.57,-1.17,0.78,-1.17,0.78,-0.78,-0.56,-0.77,-1.95,-1.95,-1.95
299.53,-1.18,0.75,-1.18,0.75,-0.75,-0.54,-0.72,-1.93,-1.92,-1.93
302.53,-1.18,0.73,-1.19,0.71,-0.71,-0.52,-0.67,-1.89,-1.90,-1.91
305.55,-1.23,0.65,-1.20,0.68,-0.68,-0.50,-0.62,-1.91,-1.88,-1.88
308.61,-1.23,0.63,-1.21,0.64,-0.64,-0.48,-0.57,-1.87,-1.86,-1.86
311.69,-1.23,0.60,-1.23,0.61,-0.61,-0.46,-0.52,-1.84,-1.83,-1.83
314.81,-1.23,0.57,-1.24,0.57,-0.57,-0.44,-0.47,-1.80,-1.81,-1.80
317.96,-1.27,0.51,-1.25,0.54,-0.54,-0.42,-0.41,-1.81,-1.79,-1.78
321.14,-1.27,0.49,-1.26,0.50,-0.50,-0.39,-0.36,-1.77,-1.76,-1.76
324.35,-1.27,0.47,-1.28,0.46,-0.46,-0.37,-0.31,-1.74,-1.74,-1.74
327.59,-1.27,0.45,-1.29,0.43,-0.43,-0.34,-0.25,-1.70,-1.72,-1.72
330.87,-1.31,0.39,-1.30,0.39,-0.39,-0.32,-0.20,-1.70,-1.70,-1.70
334.18,-1.31,0.37,-1.32,0.36,-0.36,-0.29,-0.15,-1.67,-1.68,-1.68
337.52,-1.34,0.32,-1.34,0.32,-0.32,-0.26,-0.09,-1.66,-1.66,-1.66
340.90,-1.36,0.28,-1.36,0.28,-0.28,-0.23,-0.04,-1.64,-1.64,-1.64
344.30,-1.40,0.22,-1.39,0.23,-0.23,-0.20,0.02,-1.63,-1.62,-1.62
347.75,-1.42,0.18,-1.42,0.18,-0.18,-0.16,0.07,-1.60,-1.60,-1.60
351.23,-1.45,0.13,-1.45,0.13,-0.13,-0.13,0.13,-1.58,-1.58,-1.58
354.74,-1.48,0.08,-1.49,0.07,-0.07,-0.10,0.18,-1.55,-1.56,-1.56
358.28,-1.51,0.04,-1.54,0.01,-0.01,-0.06,0.24,-1.52,-1.55,-1.55
361.87,-1.57,-0.04,-1.59,-0.06,0.06,-0.02,0.29,-1.51,-1.53,-1.53
365.49,-1.63,-0.12,-1.65,-0.13,0.13,0.02,0.35,-1.50,-1.51,-1.51
369.14,-1.68,-0.18,-1.71,-0.21,0.21,0.06,0.40,-1.47,-1.50,-1.50
372.83,-1.76,-0.28,-1.77,-0.29,0.29,0.10,0.46,-1.47,-1.48,-1.48
376.56,-1.83,-0.36,-1.83,-0.37,0.37,0.14,0.51,-1.46,-1.47,-1.47
380.33,-1.89,-0.44,-1.90,-0.45,0.45,0.18,0.57,-1.44,-1.45,-1.45
384.13,-1.98,-0.54,-1.97,-0.53,0.53,0.23,0.62,-1.45,-1.44,-1.44
387.97,-2.05,-0.62,-2.03,-0.60,0.60,0.27,0.68,-1.45,-1.43,-1.43
391.85,-2.10,-0.68,-2.09,-0.68,0.68,0.32,0.73,-1.42,-1.42,-1.42
395.77,-2.16,-0.76,-2.15,-0.75,0.75,0.37,0.78,-1.42,-1.40,-1.40
399.73,-2.21,-0.82,-2.20,-0.81,0.81,0.42,0.84,-1.41,-1.39,-1.39
403.72,-2.26,-0.88,-2.24,-0.86,0.86,0.47,0.89,-1.40,-1.38,-1.38
407.76,-2.31,-0.94,-2.27,-0.90,0.90,0.52,0.94,-1.41,-1.37,-1.37
411.84,-2.31,-0.95,-2.30,-0.94,0.94,0.57,1.00,-1.37,-1.36,-1.36
415.96,-2.35,-1.00,-2.32,-0.97,0.97,0.62,1.05,-1.38,-1.35,-1.35
420.12,-2.35,-1.01,-2.34,-1.00,1.00,0.68,1.10,-1.35,-1.34,-1.34
424.32,-2.35,-1.02,-2.34,-1.02,1.02,0.73,1.15,-1.33,-1.33,-1.33
428.56,-2.35,-1.03,-2.35,-1.03,1.03,0.79,1.20,-1.32,-1.32,-1.32
432.85,-2.35,-1.04,-2.35,-1.05,1.05,0.85,1.25,-1.30,-1.31,-1.31
437.18,-2.33,-1.03,-2.36,-1.06,1.06,0.90,1.29,-1.27,-1.29,-1.30
