frequency,raw,error,smoothed,error_smoothed,equalization,parametric_eq,fixed_band_eq,equalized_raw,equalized_smoothed,target
20.00,-17.39,-22.13,-17.47,-22.23,22.23,22.70,9.09,4.84,4.76,4.74
20.20,-17.34,-22.11,-17.33,-22.11,22.11,22.52,9.27,4.77,4.78,4.77
20.40,-17.22,-22.02,-17.20,-22.00,22.00,22.33,9.45,4.78,4.80,4.80
20.61,-17.09,-21.91,-17.06,-21.88,21.88,22.14,9.64,4.79,4.82,4.81
20.81,-16.96,-21.80,-16.93,-21.76,21.76,21.95,9.83,4.80,4.83,4.84
21.02,-16.80,-21.67,-16.79,-21.64,21.64,21.76,10.02,4.84,4.85,4.87
21.23,-16.67,-21.55,-16.66,-21.52,21.52,21.57,10.22,4.85,4.86,4.88
21.44,-16.54,-21.43,-16.52,-21.40,21.40,21.38,10.43,4.86,4.88,4.89
21.66,-16.40,-21.30,-16.39,-21.28,21.28,21.19,10.64,4.87,4.89,4.90
21.87,-16.25,-21.15,-16.26,-21.15,21.15,21.01,10.86,4.91,4.90,4.90
22.09,-16.11,-21.02,-16.13,-21.03,21.03,20.83,11.08,4.92,4.90,4.91
22.31,-16.00,-20.91,-16.00,-20.91,20.91,20.65,11.31,4.91,4.91,4.91
22.54,-15.86,-20.77,-15.86,-20.77,20.77,20.48,11.54,4.90,4.91,4.91
22.76,-15.72,-20.63,-15.72,-20.63,20.63,20.31,11.78,4.91,4.91,4.91
22.99,-15.60,-20.50,-15.59,-20.50,20.50,20.14,12.03,4.90,4.91,4.90
23.22,-15.46,-20.36,-15.47,-20.37,20.37,19.98,12.28,4.91,4.91,4.90
23.45,-15.34,-20.24,-15.34,-20.25,20.25,19.82,12.54,4.91,4.90,4.90
23.69,-15.21,-20.11,-15.22,-20.12,20.12,19.67,12.81,4.90,4.90,4.90
23.92,-15.09,-19.98,-15.09,-19.99,19.99,19.52,13.09,4.90,4.90,4.90
24.16,-14.96,-19.86,-14.97,-19.87,19.87,19.38,13.37,4.91,4.90,4.90
24.40,-14.85,-19.75,-14.85,-19.75,19.75,19.24,13.66,4.90,4.90,4.90
24.65,-14.73,-19.62,-14.74,-19.63,19.63,19.10,13.96,4.90,4.89,4.89
24.89,-14.63,-19.52,-14.62,-19.51,19.51,18.97,14.27,4.88,4.89,4.89
25.14,-14.53,-19.42,-14.51,-19.40,19.40,18.85,14.59,4.87,4.89,4.89
25.39,-14.40,-19.29,-14.40,-19.29,19.29,18.72,14.92,4.89,4.89,4.89
25.65,-14.28,-19.17,-14.29,-19.18,19.18,18.60,15.26,4.90,4.89,4.89
25.91,-14.17,-19.05,-14.18,-19.07,19.07,18.49,15.60,4.89,4.88,4.88
26.16,-14.07,-18.95,-14.08,-18.96,18.96,18.37,15.96,4.89,4.88,4.88
26.43,-13.97,-18.85,-13.97,-18.85,18.85,18.26,16.33,4.88,4.88,4.88
26.69,-13.87,-18.74,-13.87,-18.74,18.74,18.16,16.70,4.87,4.87,4.87
26.96,-13.76,-18.63,-13.76,-18.63,18.63,18.05,17.09,4.87,4.87,4.87
27.23,-13.66,-18.53,-13.66,-18.53,18.53,17.95,17.48,4.86,4.87,4.87
27.50,-13.56,-18.43,-13.56,-18.42,18.42,17.85,17.88,4.86,4.86,4.87
27.77,-13.45,-18.31,-13.45,-18.31,18.31,17.75,18.28,4.86,4.86,4.86
28.05,-13.35,-18.21,-13.35,-18.21,18.21,17.66,18.69,4.86,4.86,4.86
28.33,-13.25,-18.10,-13.25,-18.10,18.10,17.57,19.10,4.85,4.85,4.85
28.62,-13.14,-17.99,-13.15,-17.99,17.99,17.48,19.50,4.85,4.85,4.84
28.90,-13.04,-17.88,-13.04,-17.89,17.89,17.39,19.90,4.85,4.84,4.84
29.19,-12.94,-17.77,-12.94,-17.77,17.77,17.30,20.28,4.83,4.84,4.83
29.48,-12.83,-17.67,-12.83,-17.66,17.66,17.21,20.63,4.83,4.83,4.84
29.78,-12.73,-17.56,-12.72,-17.55,17.55,17.12,20.96,4.82,4.83,4.83
30.08,-12.63,-17.46,-12.61,-17.43,17.43,17.04,21.25,4.80,4.82,4.82
30.38,-12.50,-17.31,-12.50,-17.32,17.32,16.95,21.48,4.81,4.81,4.81
30.68,-12.38,-17.19,-12.39,-17.20,17.20,16.87,21.66,4.82,4.81,4.81
30.99,-12.28,-17.08,-12.28,-17.08,17.08,16.78,21.77,4.80,4.80,4.80
31.30,-12.15,-16.95,-12.16,-16.96,16.96,16.70,21.81,4.80,4.80,4.79
31.61,-12.05,-16.84,-12.04,-16.83,16.83,16.61,21.78,4.78,4.79,4.79
31.93,-11.92,-16.70,-11.92,-16.71,16.71,16.52,21.68,4.78,4.78,4.78
32.24,-11.80,-16.57,-11.80,-16.58,16.58,16.44,21.52,4.78,4.77,4.77
32.57,-11.69,-16.46,-11.68,-16.45,16.45,16.35,21.30,4.76,4.77,4.76
32.89,-11.55,-16.31,-11.56,-16.31,16.31,16.26,21.04,4.76,4.76,4.76
33.22,-11.44,-16.19,-11.43,-16.18,16.18,16.17,20.74,4.74,4.75,4.75
33.55,-11.30,-16.04,-11.30,-16.05,16.05,16.08,20.42,4.75,4.74,4.75
33.89,-11.18,-15.91,-11.18,-15.91,15.91,15.98,20.07,4.73,4.73,4.73
34.23,-11.05,-15.78,-11.05,-15.77,15.77,15.89,19.71,4.72,4.72,4.73
34.57,-10.92,-15.64,-10.92,-15.63,15.63,15.79,19.35,4.71,4.71,4.72
34.92,-10.80,-15.50,-10.79,-15.50,15.50,15.69,18.99,4.69,4.70,4.70
35.27,-10.65,-15.35,-10.66,-15.36,15.36,15.59,18.62,4.70,4.69,4.70
35.62,-10.53,-15.22,-10.53,-15.22,15.22,15.48,18.27,4.68,4.69,4.68
35.97,-10.40,-15.07,-10.40,-15.08,15.08,15.38,17.92,4.68,4.67,4.67
36.33,-10.26,-14.93,-10.27,-14.94,14.94,15.27,17.57,4.68,4.66,4.67
36.70,-10.15,-14.80,-10.15,-14.80,14.80,15.16,17.24,4.65,4.65,4.65
37.06,-10.01,-14.65,-10.02,-14.66,14.66,15.04,16.92,4.65,4.64,4.64
37.43,-9.90,-14.53,-9.89,-14.52,14.52,14.93,16.60,4.62,4.63,4.63
37.81,-9.76,-14.38,-9.77,-14.38,14.38,14.81,16.30,4.62,4.62,4.62
38.19,-9.64,-14.24,-9.64,-14.24,14.24,14.69,16.01,4.60,4.60,4.60
38.57,-9.51,-14.11,-9.52,-14.11,14.11,14.56,15.73,4.60,4.59,4.60
38.95,-9.40,-13.98,-9.39,-13.97,13.97,14.44,15.45,4.57,4.58,4.58
39.34,-9.27,-13.83,-9.27,-13.84,13.84,14.31,15.19,4.57,4.57,4.56
39.74,-9.16,-13.71,-9.15,-13.71,13.71,14.18,14.94,4.54,4.56,4.55
40.14,-9.03,-13.57,-9.03,-13.58,13.58,14.05,14.70,4.54,4.55,4.54
40.54,-8.91,-13.44,-8.91,-13.44,13.44,13.91,14.47,4.53,4.53,4.53
40.94,-8.78,-13.30,-8.79,-13.31,13.31,13.78,14.25,4.53,4.52,4.52
41.35,-8.67,-13.17,-8.68,-13.19,13.19,13.64,14.03,4.51,4.51,4.50
41.76,-8.55,-13.04,-8.56,-13.05,13.05,13.50,13.83,4.50,4.49,4.50
42.18,-8.43,-12.92,-8.45,-12.93,12.93,13.36,13.63,4.50,4.48,4.49
42.60,-8.33,-12.80,-8.33,-12.80,12.80,13.22,13.44,4.47,4.46,4.47
43.03,-8.22,-12.68,-8.21,-12.66,12.66,13.08,13.26,4.44,4.45,4.46
43.46,-8.12,-12.56,-8.10,-12.53,12.53,12.93,13.09,4.41,4.43,4.44
43.90,-7.99,-12.41,-7.98,-12.40,12.40,12.79,12.93,4.41,4.42,4.41
44.33,-7.89,-12.29,-7.86,-12.27,12.27,12.64,12.77,4.38,4.40,4.40
44.78,-7.75,-12.13,-7.75,-12.13,12.13,12.50,12.62,4.38,4.38,4.38
45.23,-7.64,-12.00,-7.63,-12.00,12.00,12.35,12.48,4.36,4.36,4.36
45.68,-7.52,-11.86,-7.52,-11.87,11.87,12.20,12.34,4.34,4.34,4.34
46.13,-7.41,-11.73,-7.41,-11.73,11.73,12.06,12.21,4.32,4.32,4.32
46.60,-7.29,-11.60,-7.30,-11.60,11.60,11.91,12.09,4.31,4.30,4.31
47.06,-7.16,-11.44,-7.19,-11.47,11.47,11.77,11.97,4.31,4.28,4.28
47.53,-7.06,-11.32,-7.08,-11.34,11.34,11.62,11.86,4.28,4.26,4.26
48.01,-6.98,-11.23,-6.98,-11.21,11.21,11.48,11.76,4.23,4.23,4.25
48.49,-6.88,-11.10,-6.88,-11.09,11.09,11.34,11.66,4.21,4.21,4.22
48.97,-6.77,-10.96,-6.78,-10.97,10.97,11.19,11.56,4.20,4.18,4.18
49.46,-6.69,-10.84,-6.69,-10.85,10.85,11.05,11.47,4.16,4.16,4.15
49.96,-6.61,-10.73,-6.60,-10.73,10.73,10.91,11.38,4.12,4.13,4.12
50.46,-6.51,-10.61,-6.51,-10.62,10.62,10.78,11.30,4.11,4.11,4.10
50.96,-6.44,-10.52,-6.43,-10.51,10.51,10.64,11.22,4.07,4.08,4.08
51.47,-6.34,-10.38,-6.35,-10.40,10.40,10.51,11.15,4.06,4.05,4.04
51.99,-6.27,-10.29,-6.27,-10.29,10.29,10.38,11.07,4.02,4.02,4.02
52.51,-6.18,-10.18,-6.18,-10.18,10.18,10.25,11.00,4.00,4.00,4.00
53.03,-6.12,-10.09,-6.10,-10.07,10.07,10.12,10.94,3.95,3.97,3.97
53.56,-6.03,-9.98,-6.03,-9.96,9.96,10.00,10.87,3.93,3.94,3.95
54.10,-5.96,-9.88,-5.95,-9.86,9.86,9.88,10.80,3.90,3.91,3.92
54.64,-5.88,-9.77,-5.87,-9.76,9.76,9.77,10.74,3.88,3.89,3.89
55.18,-5.81,-9.67,-5.80,-9.66,9.66,9.65,10.68,3.85,3.86,3.86
55.74,-5.74,-9.57,-5.73,-9.57,9.57,9.55,10.61,3.83,3.84,3.83
56.29,-5.66,-9.47,-5.67,-9.48,9.48,9.44,10.54,3.82,3.81,3.81
56.86,-5.61,-9.39,-5.61,-9.39,9.39,9.34,10.48,3.78,3.78,3.78
57.42,-5.54,-9.28,-5.55,-9.31,9.31,9.25,10.41,3.77,3.75,3.74
58.00,-5.49,-9.21,-5.51,-9.23,9.23,9.16,10.33,3.74,3.72,3.72
58.58,-5.46,-9.16,-5.47,-9.17,9.17,9.07,10.26,3.71,3.70,3.70
59.16,-5.41,-9.08,-5.44,-9.11,9.11,9.00,10.18,3.70,3.67,3.67
59.76,-5.39,-9.04,-5.42,-9.06,9.06,8.92,10.09,3.67,3.63,3.65
60.35,-5.39,-9.00,-5.41,-9.02,9.02,8.85,10.01,3.63,3.60,3.61
60.96,-5.36,-8.95,-5.41,-8.98,8.98,8.79,9.91,3.62,3.57,3.59
61.57,-5.39,-8.93,-5.41,-8.95,8.95,8.73,9.81,3.56,3.54,3.54
62.18,-5.39,-8.89,-5.42,-8.93,8.93,8.68,9.71,3.53,3.51,3.50
62.80,-5.39,-8.86,-5.42,-8.90,8.90,8.63,9.60,3.51,3.47,3.47
63.43,-5.43,-8.86,-5.42,-8.86,8.86,8.59,9.49,3.43,3.44,3.43
64.07,-5.43,-8.83,-5.42,-8.83,8.83,8.54,9.37,3.39,3.41,3.40
64.71,-5.43,-8.80,-5.41,-8.78,8.78,8.49,9.24,3.34,3.37,3.37
65.35,-5.43,-8.77,-5.38,-8.71,8.71,8.45,9.11,3.28,3.33,3.33
66.01,-5.40,-8.70,-5.34,-8.64,8.64,8.39,8.97,3.24,3.30,3.30
66.67,-5.35,-8.62,-5.28,-8.55,8.55,8.33,8.83,3.19,3.26,3.27
67.33,-5.25,-8.48,-5.21,-8.44,8.44,8.26,8.69,3.18,3.23,3.23
68.01,-5.17,-8.37,-5.12,-8.31,8.31,8.18,8.54,3.14,3.19,3.19
68.69,-5.04,-8.20,-5.01,-8.16,8.16,8.08,8.39,3.12,3.16,3.16
69.37,-4.91,-8.03,-4.88,-8.00,8.00,7.97,8.23,3.09,3.12,3.12
70.07,-4.76,-7.84,-4.75,-7.83,7.83,7.85,8.07,3.07,3.08,3.08
70.77,-4.60,-7.65,-4.60,-7.65,7.65,7.71,7.91,3.04,3.04,3.05
71.48,-4.44,-7.45,-4.45,-7.46,7.46,7.55,7.75,3.01,3.00,3.01
72.19,-4.28,-7.25,-4.30,-7.26,7.26,7.39,7.58,2.98,2.96,2.97
72.91,-4.12,-7.04,-4.14,-7.07,7.07,7.21,7.41,2.95,2.92,2.92
73.64,-3.95,-6.83,-4.00,-6.88,6.88,7.03,7.25,2.93,2.88,2.88
74.38,-3.81,-6.65,-3.85,-6.70,6.70,6.85,7.08,2.88,2.84,2.84
75.12,-3.68,-6.48,-3.72,-6.52,6.52,6.66,6.91,2.84,2.80,2.80
75.87,-3.56,-6.32,-3.59,-6.35,6.35,6.47,6.75,2.79,2.76,2.76
76.63,-3.45,-6.17,-3.47,-6.20,6.20,6.28,6.58,2.75,2.72,2.72
77.40,-3.35,-6.03,-3.37,-6.05,6.05,6.10,6.42,2.70,2.68,2.68
78.17,-3.25,-5.88,-3.27,-5.91,5.91,5.92,6.25,2.66,2.64,2.63
78.95,-3.17,-5.77,-3.18,-5.77,5.77,5.74,6.09,2.60,2.60,2.60
79.74,-3.10,-5.66,-3.09,-5.65,5.65,5.57,5.93,2.55,2.56,2.56
80.54,-3.00,-5.52,-3.01,-5.52,5.52,5.40,5.77,2.52,2.51,2.52
81.35,-2.94,-5.41,-2.93,-5.41,5.41,5.24,5.61,2.46,2.47,2.47
82.16,-2.88,-5.31,-2.86,-5.29,5.29,5.09,5.45,2.41,2.43,2.43
82.98,-2.81,-5.20,-2.79,-5.17,5.17,4.94,5.30,2.36,2.39,2.39
83.81,-2.72,-5.06,-2.71,-5.05,5.05,4.79,5.15,2.33,2.34,2.34
84.65,-2.66,-4.95,-2.64,-4.93,4.93,4.65,5.00,2.27,2.30,2.29
85.50,-2.56,-4.81,-2.57,-4.81,4.81,4.52,4.85,2.25,2.25,2.25
86.35,-2.50,-4.70,-2.49,-4.69,4.69,4.38,4.70,2.19,2.20,2.20
87.22,-2.40,-4.55,-2.42,-4.57,4.57,4.26,4.56,2.17,2.15,2.15
88.09,-2.34,-4.44,-2.34,-4.45,4.45,4.13,4.41,2.11,2.10,2.10
88.97,-2.27,-4.33,-2.26,-4.32,4.32,4.02,4.27,2.05,2.05,2.06
89.86,-2.18,-4.19,-2.19,-4.19,4.19,3.90,4.14,2.01,2.00,2.01
90.76,-2.11,-4.06,-2.11,-4.06,4.06,3.79,4.00,1.95,1.95,1.95
91.66,-2.03,-3.93,-2.03,-3.93,3.93,3.68,3.87,1.90,1.90,1.90
92.58,-1.96,-3.80,-1.95,-3.80,3.80,3.57,3.73,1.84,1.85,1.84
93.51,-1.89,-3.69,-1.88,-3.67,3.67,3.47,3.60,1.78,1.79,1.80
94.44,-1.81,-3.55,-1.80,-3.54,3.54,3.37,3.48,1.73,1.74,1.74
95.39,-1.73,-3.42,-1.73,-3.41,3.41,3.27,3.35,1.67,1.68,1.69
96.34,-1.66,-3.28,-1.65,-3.28,3.28,3.17,3.22,1.62,1.62,1.62
97.30,-1.57,-3.13,-1.58,-3.15,3.15,3.08,3.10,1.58,1.57,1.56
98.28,-1.51,-3.02,-1.51,-3.02,3.02,2.99,2.98,1.51,1.51,1.51
99.26,-1.44,-2.89,-1.45,-2.90,2.90,2.90,2.86,1.46,1.45,1.45
100.25,-1.37,-2.76,-1.38,-2.78,2.78,2.81,2.75,1.41,1.39,1.39
101.25,-1.30,-2.64,-1.32,-2.66,2.66,2.72,2.63,1.36,1.34,1.34
102.27,-1.25,-2.53,-1.26,-2.54,2.54,2.64,2.52,1.29,1.28,1.28
103.29,-1.21,-2.42,-1.21,-2.43,2.43,2.56,2.41,1.22,1.22,1.21
104.32,-1.16,-2.32,-1.16,-2.32,2.32,2.48,2.30,1.16,1.16,1.16
105.37,-1.11,-2.22,-1.11,-2.21,2.21,2.40,2.19,1.10,1.10,1.11
106.42,-1.08,-2.13,-1.06,-2.11,2.11,2.32,2.09,1.02,1.04,1.05
107.48,-1.03,-2.02,-1.02,-2.00,2.00,2.24,1.99,0.97,0.99,0.99
108.56,-0.99,-1.91,-0.98,-1.91,1.91,2.17,1.89,0.91,0.92,0.92
109.64,-0.95,-1.82,-0.95,-1.81,1.81,2.10,1.79,0.86,0.86,0.86
110.74,-0.92,-1.73,-0.92,-1.72,1.72,2.02,1.70,0.80,0.80,0.81
111.85,-0.89,-1.64,-0.89,-1.63,1.63,1.95,1.60,0.74,0.74,0.75
112.97,-0.88,-1.55,-0.87,-1.55,1.55,1.88,1.51,0.67,0.68,0.67
114.10,-0.84,-1.46,-0.86,-1.47,1.47,1.81,1.43,0.63,0.61,0.62
115.24,-0.84,-1.39,-0.85,-1.40,1.40,1.75,1.34,0.56,0.55,0.55
116.39,-0.84,-1.33,-0.85,-1.34,1.34,1.68,1.26,0.50,0.49,0.48
117.55,-0.84,-1.26,-0.87,-1.29,1.29,1.62,1.18,0.45,0.43,0.42
118.73,-0.88,-1.23,-0.89,-1.25,1.25,1.55,1.11,0.37,0.36,0.35
119.92,-0.88,-1.18,-0.91,-1.21,1.21,1.49,1.04,0.33,0.30,0.30
121.12,-0.94,-1.18,-0.95,-1.19,1.19,1.43,0.97,0.25,0.24,0.24
122.33,-0.97,-1.14,-0.99,-1.17,1.17,1.37,0.90,0.20,0.17,0.17
123.55,-1.03,-1.15,-1.04,-1.16,1.16,1.31,0.84,0.12,0.11,0.12
124.79,-1.08,-1.14,-1.10,-1.15,1.15,1.25,0.78,0.07,0.05,0.06
126.03,-1.14,-1.14,-1.15,-1.15,1.15,1.19,0.72,0.00,-0.01,-0.00
127.29,-1.22,-1.16,-1.21,-1.14,1.14,1.13,0.67,-0.08,-0.07,-0.06
128.57,-1.27,-1.14,-1.27,-1.14,1.14,1.08,0.62,-0.13,-0.13,-0.13
129.85,-1.34,-1.15,-1.32,-1.13,1.13,1.02,0.57,-0.21,-0.19,-0.19
131.15,-1.38,-1.13,-1.36,-1.12,1.12,0.97,0.52,-0.26,-0.25,-0.25
132.46,-1.42,-1.11,-1.40,-1.10,1.10,0.91,0.48,-0.32,-0.30,-0.31
133.79,-1.47,-1.11,-1.43,-1.07,1.07,0.86,0.44,-0.40,-0.36,-0.36
135.12,-1.49,-1.07,-1.45,-1.04,1.04,0.81,0.41,-0.45,-0.42,-0.42
136.48,-1.49,-1.02,-1.46,-0.99,0.99,0.76,0.37,-0.50,-0.47,-0.47
137.84,-1.49,-0.97,-1.46,-0.94,0.94,0.71,0.34,-0.55,-0.52,-0.52
139.22,-1.49,-0.91,-1.45,-0.88,0.88,0.66,0.31,-0.61,-0.57,-0.58
140.61,-1.44,-0.81,-1.44,-0.82,0.82,0.61,0.28,-0.63,-0.62,-0.64
142.02,-1.43,-0.76,-1.42,-0.75,0.75,0.56,0.25,-0.68,-0.67,-0.67
143.44,-1.40,-0.68,-1.39,-0.68,0.68,0.51,0.22,-0.73,-0.72,-0.72
144.87,-1.37,-0.60,-1.37,-0.60,0.60,0.47,0.20,-0.77,-0.77,-0.77
146.32,-1.32,-0.51,-1.35,-0.53,0.53,0.42,0.18,-0.79,-0.81,-0.81
147.78,-1.31,-0.46,-1.33,-0.47,0.47,0.38,0.15,-0.84,-0.86,-0.85
149.26,-1.27,-0.37,-1.32,-0.41,0.41,0.33,0.13,-0.86,-0.91,-0.90
150.75,-1.27,-0.32,-1.31,-0.36,0.36,0.29,0.11,-0.91,-0.95,-0.95
152.26,-1.27,-0.27,-1.31,-0.31,0.31,0.24,0.09,-0.96,-1.00,-1.00
153.78,-1.27,-0.23,-1.32,-0.28,0.28,0.20,0.07,-0.99,-1.05,-1.04
155.32,-1.31,-0.22,-1.34,-0.25,0.25,0.16,0.05,-1.06,-1.09,-1.09
156.88,-1.34,-0.20,-1.36,-0.22,0.22,0.12,0.03,-1.12,-1.14,-1.14
158.44,-1.37,-0.18,-1.38,-0.20,0.20,0.08,0.01,-1.17,-1.19,-1.19
160.03,-1.42,-0.18,-1.41,-0.18,0.18,0.04,-0.01,-1.24,-1.23,-1.24
161.63,-1.46,-0.18,-1.44,-0.16,0.16,0.00,-0.03,-1.30,-1.28,-1.28
163.24,-1.49,-0.16,-1.46,-0.13,0.13,-0.03,-0.06,-1.36,-1.32,-1.33
164.88,-1.53,-0.16,-1.47,-0.10,0.10,-0.07,-0.08,-1.43,-1.37,-1.37
166.53,-1.53,-0.12,-1.49,-0.07,0.07,-0.11,-0.10,-1.46,-1.42,-1.41
168.19,-1.53,-0.07,-1.49,-0.03,0.03,-0.14,-0.12,-1.50,-1.46,-1.46
169.87,-1.53,-0.03,-1.49,0.01,-0.01,-0.18,-0.14,-1.54,-1.50,-1.50
171.57,-1.51,0.04,-1.49,0.06,-0.06,-0.21,-0.17,-1.57,-1.55,-1.55
173.29,-1.49,0.10,-1.48,0.11,-0.11,-0.25,-0.19,-1.61,-1.59,-1.59
175.02,-1.45,0.18,-1.47,0.17,-0.17,-0.28,-0.21,-1.62,-1.64,-1.63
176.77,-1.44,0.24,-1.46,0.22,-0.22,-0.31,-0.24,-1.66,-1.68,-1.68
178.54,-1.41,0.32,-1.45,0.27,-0.27,-0.34,-0.26,-1.69,-1.72,-1.73
180.32,-1.40,0.37,-1.44,0.32,-0.32,-0.37,-0.29,-1.73,-1.77,-1.77
182.13,-1.40,0.40,-1.44,0.37,-0.37,-0.40,-0.32,-1.77,-1.81,-1.81
183.95,-1.40,0.45,-1.44,0.41,-0.41,-0.43,-0.34,-1.81,-1.85,-1.85
185.79,-1.40,0.49,-1.44,0.45,-0.45,-0.46,-0.37,-1.85,-1.89,-1.89
187.65,-1.44,0.49,-1.45,0.48,-0.48,-0.49,-0.40,-1.92,-1.93,-1.93
189.52,-1.44,0.53,-1.45,0.51,-0.51,-0.51,-0.43,-1.95,-1.97,-1.97
191.42,-1.49,0.51,-1.46,0.54,-0.54,-0.54,-0.46,-2.03,-2.00,-2.00
193.33,-1.49,0.54,-1.47,0.57,-0.57,-0.56,-0.49,-2.06,-2.04,-2.04
195.27,-1.49,0.58,-1.48,0.59,-0.59,-0.59,-0.52,-2.09,-2.07,-2.07
197.22,-1.51,0.59,-1.48,0.62,-0.62,-0.61,-0.55,-2.13,-2.10,-2.10
199.19,-1.50,0.64,-1.48,0.65,-0.65,-0.63,-0.58,-2.15,-2.13,-2.14
201.18,-1.49,0.67,-1.47,0.69,-0.69,-0.66,-0.61,-2.18,-2.16,-2.16
203.19,-1.48,0.70,-1.46,0.73,-0.73,-0.68,-0.64,-2.21,-2.18,-2.18
205.23,-1.44,0.77,-1.44,0.77,-0.77,-0.70,-0.67,-2.21,-2.21,-2.21
207.28,-1.42,0.80,-1.42,0.81,-0.81,-0.72,-0.70,-2.23,-2.23,-2.22
209.35,-1.39,0.85,-1.39,0.86,-0.86,-0.73,-0.73,-2.25,-2.25,-2.25
211.44,-1.36,0.91,-1.36,0.90,-0.90,-0.75,-0.76,-2.26,-2.26,-2.27
213.56,-1.31,0.97,-1.33,0.94,-0.94,-0.77,-0.79,-2.26,-2.28,-2.28
215.69,-1.30,0.98,-1.31,0.98,-0.98,-0.79,-0.82,-2.29,-2.29,-2.29
217.85,-1.27,1.03,-1.28,1.02,-1.02,-0.80,-0.84,-2.29,-2.30,-2.30
220.03,-1.25,1.07,-1.26,1.05,-1.05,-0.81,-0.87,-2.31,-2.31,-2.32
222.23,-1.23,1.10,-1.24,1.08,-1.08,-0.83,-0.89,-2.31,-2.32,-2.33
224.45,-1.22,1.10,-1.22,1.11,-1.11,-0.84,-0.92,-2.33,-2.32,-2.32
226.70,-1.18,1.15,-1.21,1.12,-1.12,-0.85,-0.94,-2.31,-2.33,-2.33
228.96,-1.18,1.15,-1.19,1.14,-1.14,-0.86,-0.96,-2.32,-2.33,-2.33
231.25,-1.18,1.14,-1.19,1.15,-1.15,-0.87,-0.98,-2.33,-2.33,-2.32
233.57,-1.18,1.15,-1.18,1.15,-1.15,-0.88,-0.99,-2.33,-2.33,-2.33
235.90,-1.18,1.15,-1.18,1.15,-1.15,-0.89,-1.01,-2.33,-2.33,-2.33
238.26,-1.18,1.15,-1.18,1.14,-1.14,-0.90,-1.02,-2.33,-2.32,-2.33
240.64,-1.18,1.14,-1.18,1.14,-1.14,-0.90,-1.03,-2.32,-2.32,-2.32
243.05,-1.18,1.13,-1.18,1.13,-1.13,-0.91,-1.03,-2.32,-2.31,-2.31
245.48,-1.18,1.12,-1.18,1.13,-1.13,-0.91,-1.03,-2.31,-2.30,-2.30
247.93,-1.18,1.11,-1.17,1.12,-1.12,-0.91,-1.03,-2.30,-2.29,-2.29
250.41,-1.18,1.11,-1.17,1.11,-1.11,-0.91,-1.03,-2.29,-2.28,-2.29
252.92,-1.18,1.09,-1.17,1.10,-1.10,-0.91,-1.02,-2.28,-2.27,-2.27
255.45,-1.18,1.07,-1.17,1.09,-1.09,-0.91,-1.02,-2.27,-2.25,-2.25
258.00,-1.18,1.06,-1.16,1.08,-1.08,-0.91,-1.00,-2.26,-2.24,-2.24
260.58,-1.14,1.08,-1.16,1.07,-1.07,-0.91,-0.99,-2.21,-2.22,-2.22
263.19,-1.14,1.06,-1.15,1.05,-1.05,-0.90,-0.97,-2.20,-2.20,-2.20
265.82,-1.14,1.05,-1.14,1.04,-1.04,-0.90,-0.95,-2.18,-2.19,-2.19
268.48,-1.14,1.03,-1.14,1.03,-1.03,-0.89,-0.93,-2.17,-2.17,-2.17
271.16,-1.14,1.00,-1.13,1.02,-1.02,-0.89,-0.90,-2.16,-2.15,-2.14
273.87,-1.12,1.01,-1.13,1.01,-1.01,-0.88,-0.88,-2.13,-2.13,-2.13
276.61,-1.12,0.99,-1.13,0.99,-0.99,-0.87,-0.85,-2.11,-2.11,-2.11
279.38,-1.12,0.97,-1.13,0.97,-0.97,-0.86,-0.81,-2.09,-2.10,-2.09
282.17,-1.12,0.96,-1.13,0.95,-0.95,-0.84,-0.78,-2.07,-2.08,-2.08
284.99,-1.12,0.94,-1.13,0.93,-0.93,-0.83,-0.75,-2.05,-2.06,-2.06
287.84,-1.14,0.90,-1.14,0.90,-0.90,-0.81,-0.71,-2.04,-2.04,-2.04
290.72,-1.14,0.88,-1.15,0.87,-0.87,-0.80,-0.67,-2.01,-2.02,-2.02
293.63,-1.14,0.86,-1.16,0.84,-0.84,-0.78,-0.63,-1.98,-2.00,-2.00
296.57,-1.17,0.81,-1.17,0.81,-0.81,-0.76,-0.59,-1.98,-1.98,-1.98
299.53,-1.18,0.78,-1.18,0.78,-0.78,-0.74,-0.55,-1.96,-1.96,-1.96
302.53,-1.18,0.77,-1.19,0.75,-0.75,-0.72,-0.51,-1.93,-1.93,-1.95
305.55,-1.23,0.68,-1.20,0.71,-0.71,-0.70,-0.46,-1.94,-1.91,-1.91
308.61,-1.23,0.66,-1.21,0.68,-0.68,-0.67,-0.42,-1.91,-1.89,-1.90
311.69,-1.23,0.64,-1.23,0.64,-0.64,-0.65,-0.37,-1.87,-1.87,-1.87
314.81,-1.23,0.60,-1.24,0.61,-0.61,-0.62,-0.33,-1.84,-1.85,-1.83
317.96,-1.27,0.55,-1.25,0.57,-0.57,-0.59,-0.28,-1.85,-1.83,-1.82
321.14,-1.27,0.53,-1.26,0.54,-0.54,-0.56,-0.24,-1.81,-1.80,-1.80
324.35,-1.27,0.51,-1.28,0.51,-0.51,-0.53,-0.19,-1.78,-1.78,-1.78
327.59,-1.27,0.49,-1.29,0.47,-0.47,-0.50,-0.14,-1.74,-1.76,-1.76
330.87,-1.31,0.43,-1.30,0.44,-0.44,-0.46,-0.10,-1.75,-1.74,-1.74
334.18,-1.31,0.41,-1.32,0.40,-0.40,-0.43,-0.05,-1.71,-1.72,-1.72
337.52,-1.34,0.37,-1.34,0.36,-0.36,-0.39,-0.00,-1.70,-1.70,-1.71
340.90,-1.36,0.32,-1.36,0.32,-0.32,-0.35,0.04,-1.68,-1.68,-1.68
344.30,-1.40,0.26,-1.39,0.28,-0.28,-0.31,0.09,-1.68,-1.66,-1.66
347.75,-1.42,0.23,-1.42,0.23,-0.23,-0.27,0.14,-1.65,-1.65,-1.65
351.23,-1.45,0.18,-1.45,0.18,-0.18,-0.23,0.19,-1.63,-1.63,-1.63
354.74,-1.48,0.13,-1.49,0.12,-0.12,-0.18,0.23,-1.60,-1.61,-1.61
358.28,-1.51,0.08,-1.54,0.05,-0.05,-0.14,0.28,-1.56,-1.59,-1.59
361.87,-1.57,0.01,-1.59,-0.01,0.01,-0.09,0.33,-1.56,-1.58,-1.58
365.49,-1.63,-0.07,-1.65,-0.09,0.09,-0.04,0.38,-1.55,-1.56,-1.56
369.14,-1.68,-0.13,-1.71,-0.16,0.16,0.01,0.43,-1.52,-1.55,-1.55
372.83,-1.76,-0.23,-1.77,-0.24,0.24,0.06,0.47,-1.52,-1.53,-1.53
376.56,-1.83,-0.31,-1.83,-0.32,0.32,0.11,0.52,-1.51,-1.52,-1.52
380.33,-1.89,-0.39,-1.90,-0.40,0.40,0.17,0.57,-1.49,-1.50,-1.50
384.13,-1.98,-0.49,-1.97,-0.48,0.48,0.22,0.62,-1.51,-1.49,-1.49
387.97,-2.05,-0.57,-2.03,-0.55,0.55,0.28,0.67,-1.50,-1.48,-1.48
391.85,-2.10,-0.63,-2.09,-0.63,0.63,0.33,0.71,-1.47,-1.47,-1.47
395.77,-2.16,-0.71,-2.15,-0.69,0.69,0.39,0.76,-1.47,-1.46,-1.45
399.73,-2.21,-0.77,-2.20,-0.75,0.75,0.45,0.81,-1.46,-1.44,-1.44
403.72,-2.26,-0.82,-2.24,-0.80,0.80,0.51,0.85,-1.46,-1.43,-1.44
407.76,-2.31,-0.88,-2.27,-0.85,0.85,0.57,0.90,-1.46,-1.42,-1.43
411.84,-2.31,-0.90,-2.30,-0.89,0.89,0.63,0.95,-1.42,-1.41,-1.41
415.96,-2.35,-0.95,-2.32,-0.92,0.92,0.69,0.99,-1.43,-1.40,-1.40
420.12,-2.35,-0.96,-2.34,-0.94,0.94,0.75,1.04,-1.41,-1.39,-1.39
424.32,-2.35,-0.97,-2.34,-0.96,0.96,0.81,1.08,-1.39,-1.38,-1.38
428.56,-2.35,-0.98,-2.35,-0.98,0.98,0.87,1.12,-1.37,-1.37,-1.37
432.85,-2.35,-0.99,-2.35,-0.99,0.99,0.93,1.17,-1.36,-1.36,-1.37
