frequency,raw,error,smoothed,error_smoothed,equalization,parametric_eq,fixed_band_eq,equalized_raw,equalized_smoothed,target
20.00,8.96,-1.10,8.96,-1.10,1.10,0.73,0.59,10.06,10.06,10.06
20.20,8.94,-1.11,8.95,-1.10,1.10,0.75,0.61,10.05,10.05,10.05
20.40,8.93,-1.11,8.93,-1.11,1.11,0.77,0.63,10.04,10.04,10.04
20.61,8.91,-1.12,8.91,-1.11,1.11,0.79,0.64,10.03,10.03,10.03
20.81,8.89,-1.12,8.89,-1.12,1.12,0.81,0.66,10.01,10.02,10.01
21.02,8.87,-1.13,8.87,-1.13,1.13,0.83,0.68,10.00,10.00,10.00
21.23,8.85,-1.14,8.85,-1.14,1.14,0.85,0.70,9.99,9.99,9.99
21.44,8.83,-1.17,8.84,-1.15,1.15,0.87,0.73,9.98,9.99,10.00
21.66,8.82,-1.16,8.82,-1.17,1.16,0.89,0.75,9.98,9.98,9.98
21.87,8.80,-1.18,8.80,-1.18,1.17,0.91,0.77,9.98,9.97,9.98
22.09,8.77,-1.19,8.78,-1.18,1.19,0.93,0.79,9.96,9.97,9.96
22.31,8.75,-1.20,8.75,-1.20,1.21,0.95,0.82,9.96,9.96,9.95
22.54,8.72,-1.22,8.72,-1.22,1.23,0.97,0.84,9.95,9.95,9.94
22.76,8.69,-1.25,8.69,-1.24,1.25,1.00,0.87,9.94,9.94,9.94
22.99,8.66,-1.27,8.66,-1.27,1.27,1.02,0.89,9.93,9.93,9.93
23.22,8.63,-1.29,8.64,-1.29,1.29,1.04,0.92,9.92,9.93,9.92
23.45,8.61,-1.32,8.61,-1.31,1.31,1.06,0.94,9.92,9.92,9.93
23.69,8.59,-1.33,8.59,-1.33,1.33,1.08,0.97,9.92,9.92,9.92
23.92,8.57,-1.34,8.58,-1.34,1.34,1.10,1.00,9.91,9.91,9.91
24.16,8.56,-1.36,8.56,-1.36,1.35,1.12,1.03,9.91,9.91,9.92
24.40,8.55,-1.37,8.55,-1.36,1.35,1.15,1.05,9.90,9.90,9.92
24.65,8.55,-1.36,8.56,-1.36,1.35,1.17,1.08,9.90,9.91,9.91
24.89,8.56,-1.35,8.56,-1.35,1.35,1.19,1.11,9.91,9.91,9.91
25.14,8.57,-1.33,8.57,-1.33,1.34,1.21,1.14,9.92,9.91,9.90
25.39,8.57,-1.33,8.57,-1.33,1.34,1.23,1.17,9.91,9.91,9.90
25.65,8.57,-1.33,8.57,-1.33,1.33,1.25,1.20,9.91,9.91,9.90
25.91,8.57,-1.33,8.57,-1.33,1.33,1.26,1.23,9.90,9.90,9.90
26.16,8.57,-1.34,8.57,-1.33,1.33,1.28,1.26,9.90,9.90,9.91
26.43,8.57,-1.33,8.57,-1.33,1.33,1.30,1.29,9.90,9.90,9.90
26.69,8.57,-1.33,8.57,-1.33,1.33,1.31,1.31,9.90,9.90,9.90
26.96,8.57,-1.33,8.57,-1.33,1.33,1.33,1.34,9.90,9.90,9.90
27.23,8.57,-1.33,8.57,-1.33,1.33,1.34,1.37,9.90,9.90,9.90
27.50,8.57,-1.33,8.57,-1.33,1.33,1.35,1.39,9.90,9.90,9.90
27.77,8.57,-1.34,8.57,-1.33,1.33,1.37,1.42,9.91,9.91,9.91
28.05,8.57,-1.33,8.57,-1.33,1.34,1.38,1.44,9.91,9.91,9.90
28.33,8.57,-1.34,8.57,-1.34,1.34,1.38,1.46,9.91,9.91,9.91
28.62,8.57,-1.34,8.57,-1.34,1.34,1.39,1.48,9.91,9.91,9.91
28.90,8.57,-1.35,8.57,-1.34,1.34,1.40,1.50,9.91,9.91,9.92
29.19,8.57,-1.35,8.57,-1.34,1.34,1.40,1.51,9.91,9.91,9.92
29.48,8.57,-1.34,8.57,-1.34,1.34,1.41,1.53,9.91,9.91,9.91
29.78,8.57,-1.34,8.57,-1.34,1.34,1.41,1.54,9.91,9.91,9.91
30.08,8.57,-1.34,8.57,-1.33,1.33,1.41,1.55,9.91,9.91,9.91
30.38,8.57,-1.32,8.57,-1.32,1.33,1.41,1.55,9.90,9.90,9.89
30.68,8.57,-1.32,8.57,-1.32,1.32,1.40,1.56,9.90,9.90,9.89
30.99,8.57,-1.32,8.57,-1.32,1.32,1.40,1.56,9.89,9.89,9.89
31.30,8.57,-1.32,8.57,-1.31,1.31,1.39,1.56,9.88,9.88,9.89
31.61,8.57,-1.31,8.57,-1.31,1.30,1.38,1.55,9.88,9.88,9.88
31.93,8.57,-1.29,8.57,-1.30,1.30,1.37,1.55,9.87,9.87,9.86
32.24,8.57,-1.30,8.57,-1.29,1.29,1.36,1.54,9.86,9.86,9.87
32.57,8.57,-1.28,8.57,-1.28,1.28,1.35,1.53,9.86,9.86,9.85
32.89,8.57,-1.28,8.57,-1.28,1.28,1.33,1.51,9.85,9.85,9.85
33.22,8.57,-1.27,8.57,-1.27,1.27,1.32,1.50,9.84,9.84,9.84
33.55,8.57,-1.27,8.57,-1.26,1.26,1.30,1.48,9.83,9.83,9.84
33.89,8.57,-1.26,8.57,-1.25,1.26,1.28,1.46,9.83,9.83,9.83
34.23,8.57,-1.24,8.57,-1.24,1.25,1.26,1.43,9.82,9.82,9.81
34.57,8.57,-1.24,8.57,-1.23,1.24,1.24,1.41,9.81,9.81,9.81
34.92,8.57,-1.22,8.57,-1.23,1.23,1.22,1.38,9.80,9.80,9.79
35.27,8.57,-1.24,8.57,-1.22,1.22,1.20,1.36,9.79,9.79,9.81
35.62,8.57,-1.21,8.58,-1.21,1.20,1.18,1.33,9.77,9.78,9.78
35.97,8.58,-1.20,8.58,-1.19,1.18,1.15,1.30,9.77,9.77,9.78
36.33,8.59,-1.17,8.59,-1.16,1.16,1.13,1.27,9.76,9.76,9.76
36.70,8.60,-1.14,8.60,-1.14,1.15,1.10,1.24,9.75,9.75,9.74
37.06,8.60,-1.12,8.60,-1.12,1.13,1.08,1.20,9.73,9.73,9.72
37.43,8.59,-1.11,8.60,-1.11,1.12,1.05,1.17,9.71,9.71,9.70
37.81,8.58,-1.11,8.59,-1.10,1.10,1.03,1.14,9.69,9.69,9.69
38.19,8.57,-1.09,8.57,-1.09,1.10,1.00,1.11,9.67,9.66,9.66
38.57,8.55,-1.09,8.55,-1.09,1.09,0.97,1.07,9.65,9.64,9.64
38.95,8.52,-1.11,8.53,-1.09,1.09,0.94,1.04,9.62,9.62,9.63
39.34,8.50,-1.10,8.50,-1.10,1.10,0.92,1.01,9.60,9.60,9.60
39.74,8.47,-1.10,8.47,-1.10,1.11,0.89,0.98,9.58,9.58,9.57
40.14,8.44,-1.11,8.44,-1.11,1.11,0.86,0.94,9.56,9.56,9.55
40.54,8.40,-1.13,8.41,-1.12,1.12,0.83,0.91,9.53,9.53,9.53
40.94,8.37,-1.13,8.37,-1.13,1.13,0.81,0.88,9.51,9.51,9.50
41.35,8.34,-1.15,8.34,-1.14,1.14,0.78,0.85,9.48,9.48,9.49
41.76,8.31,-1.15,8.32,-1.15,1.15,0.75,0.82,9.46,9.46,9.46
42.18,8.29,-1.16,8.29,-1.15,1.15,0.72,0.79,9.44,9.44,9.45
42.60,8.27,-1.15,8.27,-1.15,1.15,0.70,0.76,9.42,9.42,9.42
43.03,8.25,-1.15,8.25,-1.14,1.14,0.67,0.73,9.39,9.39,9.40
43.46,8.23,-1.13,8.24,-1.13,1.13,0.64,0.70,9.36,9.36,9.36
43.90,8.23,-1.11,8.23,-1.11,1.11,0.61,0.68,9.34,9.34,9.34
44.33,8.23,-1.08,8.23,-1.08,1.08,0.59,0.65,9.31,9.31,9.31
44.78,8.23,-1.06,8.24,-1.05,1.05,0.56,0.63,9.28,9.29,9.29
45.23,8.24,-1.03,8.24,-1.02,1.02,0.53,0.60,9.26,9.26,9.27
45.68,8.25,-0.97,8.25,-0.98,0.98,0.51,0.57,9.23,9.23,9.22
46.13,8.25,-0.94,8.25,-0.94,0.94,0.48,0.55,9.20,9.20,9.19
46.60,8.25,-0.90,8.25,-0.90,0.90,0.46,0.53,9.16,9.16,9.15
47.06,8.25,-0.87,8.25,-0.86,0.86,0.43,0.50,9.12,9.12,9.12
47.53,8.25,-0.83,8.25,-0.82,0.82,0.41,0.48,9.07,9.07,9.08
48.01,8.25,-0.78,8.25,-0.78,0.78,0.38,0.46,9.03,9.03,9.03
48.49,8.25,-0.74,8.25,-0.74,0.74,0.36,0.44,8.99,8.99,8.99
48.97,8.25,-0.69,8.25,-0.69,0.69,0.33,0.42,8.95,8.95,8.94
49.46,8.25,-0.66,8.25,-0.65,0.65,0.31,0.40,8.90,8.90,8.91
49.96,8.25,-0.60,8.25,-0.61,0.61,0.29,0.38,8.86,8.86,8.85
50.46,8.25,-0.57,8.25,-0.57,0.57,0.26,0.36,8.82,8.82,8.82
50.96,8.25,-0.53,8.25,-0.52,0.53,0.24,0.34,8.78,8.78,8.78
51.47,8.25,-0.49,8.25,-0.48,0.49,0.22,0.32,8.74,8.74,8.74
51.99,8.25,-0.44,8.25,-0.45,0.44,0.19,0.30,8.70,8.70,8.69
52.51,8.25,-0.41,8.25,-0.41,0.40,0.17,0.28,8.65,8.65,8.66
53.03,8.25,-0.38,8.26,-0.37,0.35,0.15,0.26,8.61,8.61,8.63
53.56,8.26,-0.32,8.26,-0.32,0.31,0.13,0.24,8.57,8.57,8.58
54.10,8.27,-0.26,8.27,-0.27,0.27,0.10,0.22,8.54,8.54,8.53
54.64,8.27,-0.22,8.27,-0.21,0.23,0.08,0.21,8.50,8.50,8.49
55.18,8.27,-0.18,8.27,-0.18,0.19,0.06,0.19,8.46,8.46,8.45
55.74,8.26,-0.14,8.26,-0.15,0.16,0.04,0.17,8.42,8.42,8.40
56.29,8.24,-0.14,8.25,-0.13,0.13,0.02,0.15,8.37,8.38,8.38
56.86,8.22,-0.12,8.22,-0.11,0.11,-0.00,0.13,8.34,8.34,8.34
57.42,8.20,-0.09,8.20,-0.09,0.10,-0.02,0.11,8.30,8.30,8.29
58.00,8.17,-0.08,8.17,-0.08,0.09,-0.05,0.09,8.26,8.26,8.25
58.58,8.14,-0.08,8.14,-0.08,0.08,-0.07,0.07,8.22,8.22,8.22
59.16,8.11,-0.08,8.11,-0.07,0.06,-0.09,0.05,8.18,8.18,8.19
59.76,8.08,-0.06,8.08,-0.06,0.05,-0.11,0.03,8.13,8.13,8.14
60.35,8.05,-0.04,8.05,-0.04,0.03,-0.13,0.01,8.08,8.08,8.09
60.96,8.02,-0.01,8.02,-0.01,0.01,-0.15,-0.01,8.03,8.03,8.03
61.57,7.99,0.02,7.99,0.02,-0.02,-0.17,-0.03,7.97,7.97,7.97
62.18,7.96,0.05,7.97,0.06,-0.05,-0.19,-0.05,7.91,7.92,7.91
62.80,7.94,0.09,7.94,0.09,-0.08,-0.21,-0.08,7.86,7.86,7.85
63.43,7.92,0.12,7.92,0.12,-0.12,-0.23,-0.10,7.80,7.80,7.80
64.07,7.91,0.16,7.91,0.16,-0.17,-0.25,-0.12,7.75,7.74,7.75
64.71,7.90,0.20,7.90,0.21,-0.22,-0.27,-0.15,7.69,7.69,7.70
65.35,7.90,0.26,7.90,0.26,-0.27,-0.30,-0.18,7.63,7.63,7.64
66.01,7.91,0.32,7.91,0.32,-0.33,-0.32,-0.20,7.59,7.58,7.59
66.67,7.92,0.37,7.93,0.39,-0.39,-0.34,-0.23,7.54,7.54,7.55
67.33,7.94,0.46,7.94,0.45,-0.45,-0.36,-0.26,7.50,7.49,7.48
68.01,7.95,0.52,7.95,0.52,-0.51,-0.38,-0.29,7.44,7.44,7.43
68.69,7.95,0.57,7.96,0.58,-0.57,-0.40,-0.31,7.39,7.39,7.38
69.37,7.95,0.62,7.95,0.63,-0.62,-0.42,-0.34,7.33,7.33,7.33
70.07,7.94,0.67,7.94,0.67,-0.67,-0.44,-0.37,7.27,7.27,7.27
70.77,7.92,0.72,7.93,0.72,-0.72,-0.46,-0.41,7.21,7.21,7.20
71.48,7.90,0.75,7.90,0.76,-0.76,-0.49,-0.44,7.15,7.15,7.15
72.19,7.88,0.79,7.88,0.79,-0.79,-0.51,-0.47,7.09,7.09,7.09
72.91,7.85,0.83,7.85,0.83,-0.82,-0.53,-0.50,7.03,7.03,7.02
73.64,7.82,0.85,7.82,0.86,-0.85,-0.55,-0.54,6.97,6.97,6.97
74.38,7.79,0.88,7.79,0.88,-0.88,-0.57,-0.57,6.91,6.91,6.91
75.12,7.76,0.90,7.76,0.90,-0.90,-0.60,-0.61,6.86,6.86,6.86
75.87,7.73,0.92,7.73,0.93,-0.92,-0.62,-0.65,6.81,6.81,6.81
76.63,7.70,0.95,7.70,0.95,-0.94,-0.64,-0.68,6.76,6.76,6.75
77.40,7.67,0.96,7.67,0.97,-0.97,-0.66,-0.72,6.71,6.71,6.71
78.17,7.64,0.99,7.64,0.99,-0.99,-0.69,-0.76,6.65,6.65,6.65
78.95,7.62,1.01,7.62,1.01,-1.02,-0.71,-0.80,6.60,6.60,6.61
79.74,7.60,1.04,7.60,1.05,-1.06,-0.73,-0.84,6.55,6.55,6.56
80.54,7.59,1.08,7.59,1.09,-1.10,-0.76,-0.88,6.49,6.50,6.51
81.35,7.59,1.14,7.60,1.14,-1.14,-0.78,-0.93,6.45,6.45,6.45
82.16,7.60,1.18,7.60,1.19,-1.19,-0.81,-0.97,6.41,6.41,6.42
82.98,7.61,1.25,7.61,1.25,-1.25,-0.83,-1.01,6.37,6.37,6.36
83.81,7.61,1.30,7.61,1.31,-1.30,-0.86,-1.06,6.32,6.32,6.31
84.65,7.61,1.36,7.61,1.36,-1.35,-0.88,-1.10,6.27,6.26,6.25
85.50,7.59,1.40,7.60,1.40,-1.39,-0.91,-1.15,6.20,6.21,6.19
86.35,7.57,1.43,7.58,1.43,-1.43,-0.93,-1.20,6.14,6.15,6.14
87.22,7.55,1.46,7.55,1.46,-1.46,-0.96,-1.25,6.09,6.09,6.09
88.09,7.52,1.49,7.52,1.49,-1.49,-0.99,-1.30,6.03,6.03,6.03
88.97,7.49,1.52,7.49,1.52,-1.52,-1.01,-1.35,5.97,5.97,5.97
89.86,7.46,1.54,7.46,1.54,-1.55,-1.04,-1.40,5.92,5.91,5.92
90.76,7.42,1.56,7.43,1.57,-1.57,-1.07,-1.46,5.85,5.85,5.86
91.66,7.39,1.60,7.40,1.60,-1.60,-1.10,-1.51,5.79,5.79,5.79
92.58,7.37,1.63,7.37,1.63,-1.63,-1.13,-1.56,5.74,5.74,5.74
93.51,7.35,1.66,7.35,1.67,-1.67,-1.16,-1.62,5.68,5.68,5.69
94.44,7.33,1.70,7.33,1.71,-1.71,-1.19,-1.68,5.62,5.62,5.63
95.39,7.31,1.75,7.31,1.75,-1.75,-1.22,-1.73,5.56,5.56,5.56
96.34,7.29,1.80,7.29,1.80,-1.80,-1.25,-1.79,5.49,5.49,5.49
97.30,7.27,1.84,7.27,1.85,-1.84,-1.28,-1.85,5.43,5.43,5.43
98.28,7.25,1.89,7.25,1.89,-1.89,-1.31,-1.91,5.36,5.36,5.36
99.26,7.23,1.93,7.24,1.94,-1.93,-1.34,-1.97,5.30,5.30,5.30
100.25,7.22,1.98,7.22,1.98,-1.97,-1.37,-2.03,5.25,5.25,5.24
101.25,7.20,2.01,7.20,2.02,-2.01,-1.40,-2.10,5.19,5.19,5.19
102.27,7.18,2.05,7.18,2.05,-2.04,-1.44,-2.16,5.14,5.14,5.13
103.29,7.15,2.08,7.15,2.08,-2.07,-1.47,-2.22,5.08,5.08,5.07
104.32,7.11,2.09,7.12,2.10,-2.10,-1.51,-2.28,5.02,5.02,5.02
105.37,7.08,2.12,7.08,2.12,-2.12,-1.54,-2.34,4.96,4.96,4.96
106.42,7.05,2.14,7.05,2.14,-2.15,-1.57,-2.40,4.91,4.91,4.91
107.48,7.02,2.17,7.03,2.17,-2.17,-1.61,-2.47,4.85,4.85,4.85
108.56,7.00,2.20,7.00,2.20,-2.20,-1.65,-2.52,4.80,4.80,4.80
109.64,6.97,2.23,6.97,2.24,-2.24,-1.68,-2.58,4.74,4.74,4.74
110.74,6.95,2.27,6.96,2.27,-2.28,-1.72,-2.64,4.68,4.68,4.68
111.85,6.94,2.32,6.94,2.32,-2.33,-1.76,-2.70,4.62,4.61,4.62
112.97,6.93,2.36,6.93,2.37,-2.38,-1.80,-2.75,4.55,4.55,4.57
114.10,6.93,2.42,6.93,2.43,-2.44,-1.84,-2.80,4.49,4.49,4.51
115.24,6.93,2.50,6.94,2.50,-2.50,-1.88,-2.85,4.43,4.44,4.43
116.39,6.94,2.57,6.94,2.57,-2.56,-1.92,-2.90,4.38,4.38,4.37
117.55,6.95,2.64,6.95,2.64,-2.62,-1.96,-2.95,4.33,4.33,4.31
118.73,6.95,2.70,6.95,2.70,-2.68,-2.00,-2.99,4.27,4.27,4.25
119.92,6.95,2.74,6.95,2.75,-2.74,-2.04,-3.03,4.21,4.21,4.21
121.12,6.95,2.79,6.95,2.80,-2.80,-2.08,-3.07,4.15,4.15,4.16
122.33,6.95,2.85,6.96,2.85,-2.86,-2.13,-3.10,4.09,4.09,4.10
123.55,6.96,2.91,6.96,2.91,-2.92,-2.17,-3.13,4.04,4.04,4.05
124.79,6.96,2.96,6.97,2.97,-2.98,-2.21,-3.16,3.99,3.99,4.00
126.03,6.97,3.03,6.97,3.03,-3.03,-2.26,-3.18,3.94,3.94,3.94
127.29,6.98,3.09,6.98,3.09,-3.09,-2.30,-3.20,3.90,3.89,3.89
128.57,6.97,3.15,6.98,3.15,-3.14,-2.35,-3.22,3.83,3.84,3.82
129.85,6.96,3.19,6.97,3.20,-3.19,-2.40,-3.23,3.77,3.78,3.77
131.15,6.95,3.24,6.95,3.24,-3.23,-2.44,-3.24,3.72,3.72,3.71
132.46,6.93,3.27,6.93,3.27,-3.27,-2.49,-3.25,3.66,3.66,3.66
133.79,6.90,3.30,6.91,3.30,-3.31,-2.54,-3.26,3.59,3.60,3.60
135.12,6.88,3.33,6.88,3.33,-3.34,-2.59,-3.26,3.54,3.54,3.55
136.48,6.86,3.36,6.86,3.37,-3.37,-2.64,-3.26,3.49,3.49,3.50
137.84,6.84,3.39,6.84,3.39,-3.39,-2.69,-3.26,3.45,3.45,3.45
139.22,6.81,3.42,6.81,3.42,-3.41,-2.74,-3.26,3.40,3.40,3.39
140.61,6.77,3.42,6.78,3.43,-3.42,-2.79,-3.25,3.35,3.35,3.35
142.02,6.73,3.44,6.73,3.44,-3.43,-2.84,-3.25,3.30,3.31,3.29
143.44,6.69,3.44,6.69,3.44,-3.43,-2.89,-3.24,3.26,3.26,3.25
144.87,6.64,3.43,6.64,3.44,-3.44,-2.94,-3.24,3.21,3.21,3.21
146.32,6.59,3.43,6.59,3.43,-3.44,-3.00,-3.23,3.16,3.16,3.16
147.78,6.54,3.42,6.54,3.43,-3.44,-3.05,-3.23,3.10,3.10,3.12
149.26,6.50,3.43,6.50,3.43,-3.45,-3.10,-3.22,3.06,3.06,3.07
150.75,6.47,3.44,6.48,3.44,-3.45,-3.15,-3.22,3.02,3.02,3.03
152.26,6.45,3.46,6.45,3.46,-3.46,-3.21,-3.22,2.99,2.99,2.99
153.78,6.43,3.48,6.43,3.48,-3.48,-3.26,-3.21,2.96,2.95,2.95
155.32,6.40,3.49,6.40,3.50,-3.49,-3.31,-3.21,2.92,2.92,2.91
156.88,6.37,3.51,6.37,3.51,-3.50,-3.37,-3.21,2.88,2.87,2.86
158.44,6.33,3.52,6.33,3.52,-3.51,-3.42,-3.21,2.82,2.83,2.81
160.03,6.29,3.52,6.29,3.52,-3.52,-3.47,-3.22,2.78,2.77,2.77
161.63,6.24,3.51,6.25,3.52,-3.53,-3.53,-3.23,2.72,2.72,2.73
163.24,6.20,3.52,6.21,3.53,-3.54,-3.58,-3.23,2.67,2.67,2.68
164.88,6.17,3.54,6.17,3.54,-3.55,-3.63,-3.24,2.62,2.62,2.63
166.53,6.14,3.56,6.14,3.56,-3.56,-3.68,-3.26,2.58,2.58,2.58
168.19,6.12,3.57,6.12,3.58,-3.58,-3.74,-3.27,2.55,2.54,2.55
169.87,6.09,3.60,6.10,3.60,-3.60,-3.79,-3.29,2.50,2.50,2.49
171.57,6.07,3.63,6.07,3.62,-3.62,-3.84,-3.31,2.46,2.45,2.44
173.29,6.04,3.64,6.04,3.65,-3.64,-3.89,-3.33,2.40,2.40,2.40
175.02,6.01,3.66,6.02,3.67,-3.67,-3.94,-3.36,2.35,2.35,2.35
176.77,5.99,3.69,5.99,3.69,-3.70,-3.99,-3.39,2.30,2.30,2.30
178.54,5.98,3.72,5.98,3.72,-3.73,-4.03,-3.42,2.25,2.25,2.26
180.32,5.96,3.76,5.97,3.76,-3.76,-4.08,-3.45,2.20,2.20,2.20
182.13,5.96,3.79,5.96,3.80,-3.80,-4.13,-3.49,2.16,2.16,2.17
183.95,5.96,3.84,5.96,3.85,-3.85,-4.17,-3.52,2.12,2.12,2.12
185.79,5.97,3.90,5.97,3.90,-3.89,-4.21,-3.57,2.08,2.08,2.07
187.65,5.97,3.94,5.98,3.95,-3.94,-4.26,-3.61,2.03,2.04,2.03
189.52,5.98,3.99,5.98,3.99,-3.99,-4.30,-3.65,2.00,1.99,1.99
191.42,5.98,4.03,5.98,4.03,-4.03,-4.34,-3.70,1.95,1.95,1.95
193.33,5.98,4.07,5.98,4.08,-4.08,-4.37,-3.75,1.90,1.90,1.91
195.27,5.98,4.12,5.98,4.12,-4.12,-4.41,-3.81,1.86,1.86,1.86
197.22,5.98,4.17,5.98,4.17,-4.16,-4.44,-3.86,1.82,1.82,1.81
199.19,5.98,4.20,5.98,4.21,-4.20,-4.47,-3.92,1.78,1.78,1.78
201.18,5.98,4.24,5.98,4.24,-4.23,-4.50,-3.97,1.75,1.75,1.74
203.19,5.98,4.27,5.98,4.27,-4.27,-4.53,-4.03,1.71,1.71,1.71
205.23,5.98,4.29,5.98,4.30,-4.30,-4.55,-4.09,1.68,1.68,1.69
207.28,5.98,4.32,5.98,4.33,-4.34,-4.58,-4.15,1.65,1.65,1.66
209.35,5.98,4.36,5.99,4.36,-4.37,-4.60,-4.21,1.61,1.62,1.62
211.44,5.99,4.40,5.99,4.40,-4.40,-4.61,-4.27,1.59,1.59,1.59
213.56,6.00,4.43,6.00,4.43,-4.43,-4.63,-4.33,1.57,1.57,1.57
215.69,6.00,4.46,6.01,4.47,-4.46,-4.64,-4.39,1.54,1.54,1.54
217.85,6.00,4.49,6.01,4.50,-4.49,-4.65,-4.45,1.52,1.52,1.51
220.03,6.00,4.52,6.00,4.52,-4.51,-4.66,-4.51,1.50,1.49,1.48
222.23,5.98,4.53,5.98,4.53,-4.52,-4.66,-4.56,1.46,1.46,1.45
224.45,5.96,4.52,5.97,4.53,-4.53,-4.67,-4.62,1.44,1.44,1.44
226.70,5.94,4.53,5.94,4.53,-4.53,-4.67,-4.66,1.41,1.41,1.41
228.96,5.92,4.52,5.92,4.52,-4.53,-4.66,-4.71,1.40,1.39,1.40
231.25,5.89,4.51,5.89,4.51,-4.52,-4.66,-4.75,1.37,1.37,1.38
233.57,5.86,4.50,5.87,4.51,-4.51,-4.65,-4.79,1.35,1.36,1.36
235.90,5.84,4.49,5.84,4.49,-4.50,-4.64,-4.82,1.35,1.34,1.35
238.26,5.81,4.49,5.81,4.48,-4.48,-4.62,-4.84,1.33,1.33,1.32
240.64,5.78,4.45,5.78,4.46,-4.46,-4.61,-4.86,1.32,1.32,1.33
243.05,5.75,4.44,5.75,4.44,-4.44,-4.59,-4.88,1.32,1.32,1.31
245.48,5.72,4.42,5.72,4.42,-4.41,-4.57,-4.89,1.31,1.31,1.30
247.93,5.68,4.39,5.68,4.39,-4.38,-4.54,-4.89,1.30,1.30,1.29
250.41,5.64,4.34,5.64,4.35,-4.35,-4.52,-4.88,1.29,1.29,1.30
252.92,5.60,4.31,5.60,4.32,-4.32,-4.49,-4.87,1.28,1.28,1.29
255.45,5.57,4.29,5.57,4.28,-4.29,-4.46,-4.85,1.28,1.28,1.28
258.00,5.53,4.25,5.54,4.26,-4.27,-4.42,-4.83,1.27,1.27,1.28
260.58,5.51,4.23,5.51,4.23,-4.24,-4.39,-4.80,1.27,1.27,1.28
263.19,5.49,4.21,5.49,4.21,-4.22,-4.35,-4.76,1.28,1.27,1.28
265.82,5.47,4.20,5.47,4.20,-4.20,-4.31,-4.72,1.28,1.28,1.27
268.48,5.45,4.18,5.45,4.18,-4.18,-4.27,-4.67,1.28,1.28,1.27
271.16,5.43,4.16,5.43,4.16,-4.16,-4.23,-4.61,1.28,1.27,1.27
273.87,5.40,4.13,5.40,4.13,-4.13,-4.19,-4.56,1.27,1.27,1.27
276.61,5.37,4.10,5.37,4.11,-4.11,-4.14,-4.49,1.26,1.26,1.27
279.38,5.34,4.09,5.34,4.09,-4.08,-4.10,-4.43,1.26,1.26,1.25
282.17,5.31,4.06,5.31,4.06,-4.05,-4.05,-4.36,1.26,1.26,1.25
284.99,5.28,4.02,5.28,4.03,-4.03,-4.00,-4.29,1.26,1.26,1.26
287.84,5.25,3.98,5.26,3.99,-4.00,-3.95,-4.22,1.26,1.26,1.27
290.72,5.23,3.97,5.23,3.96,-3.97,-3.90,-4.14,1.27,1.26,1.26
293.63,5.20,3.93,5.21,3.94,-3.94,-3.85,-4.06,1.26,1.27,1.27
296.57,5.18,3.90,5.18,3.91,-3.91,-3.80,-3.99,1.27,1.28,1.28
299.53,5.16,3.88,5.16,3.88,-3.88,-3.74,-3.91,1.29,1.28,1.28
302.53,5.14,3.84,5.14,3.85,-3.85,-3.69,-3.83,1.30,1.29,1.30
305.55,5.11,3.82,5.11,3.82,-3.81,-3.63,-3.75,1.30,1.30,1.29
308.61,5.08,3.78,5.08,3.78,-3.78,-3.58,-3.67,1.31,1.31,1.30
311.69,5.05,3.74,5.05,3.75,-3.74,-3.52,-3.60,1.32,1.31,1.31
314.81,5.01,3.70,5.02,3.70,-3.70,-3.47,-3.52,1.31,1.32,1.31
317.96,4.98,3.66,4.98,3.66,-3.66,-3.41,-3.45,1.32,1.32,1.32
321.14,4.94,3.61,4.94,3.61,-3.62,-3.36,-3.37,1.32,1.32,1.33
324.35,4.91,3.58,4.91,3.57,-3.59,-3.30,-3.30,1.32,1.32,1.33
327.59,4.88,3.52,4.89,3.54,-3.56,-3.24,-3.23,1.33,1.33,1.36
330.87,4.87,3.52,4.87,3.52,-3.52,-3.19,-3.16,1.35,1.35,1.35
334.18,4.86,3.50,4.86,3.50,-3.49,-3.13,-3.10,1.38,1.37,1.36
337.52,4.83,3.47,4.83,3.47,-3.45,-3.08,-3.03,1.38,1.38,1.36
340.90,4.80,3.42,4.80,3.42,-3.41,-3.02,-2.97,1.39,1.39,1.38
344.30,4.76,3.37,4.76,3.38,-3.37,-2.96,-2.91,1.39,1.39,1.39
347.75,4.72,3.33,4.72,3.33,-3.33,-2.91,-2.85,1.39,1.39,1.39
351.23,4.68,3.29,4.68,3.28,-3.29,-2.85,-2.80,1.39,1.39,1.39
354.74,4.64,3.22,4.64,3.24,-3.24,-2.80,-2.75,1.40,1.40,1.42
358.28,4.60,3.19,4.61,3.19,-3.20,-2.74,-2.69,1.40,1.40,1.41
361.87,4.57,3.15,4.58,3.15,-3.16,-2.69,-2.65,1.41,1.41,1.42
365.49,4.55,3.12,4.55,3.12,-3.12,-2.64,-2.60,1.43,1.43,1.43
369.14,4.53,3.08,4.53,3.09,-3.08,-2.58,-2.55,1.45,1.45,1.45
372.83,4.50,3.05,4.50,3.05,-3.04,-2.53,-2.51,1.46,1.46,1.45
376.56,4.46,3.01,4.46,3.01,-3.00,-2.48,-2.47,1.47,1.47,1.45
380.33,4.42,2.96,4.42,2.96,-2.95,-2.42,-2.43,1.47,1.47,1.46
384.13,4.37,2.89,4.38,2.90,-2.90,-2.37,-2.39,1.47,1.47,1.48
387.97,4.33,2.85,4.33,2.85,-2.86,-2.32,-2.36,1.48,1.48,1.48
391.85,4.29,2.80,4.29,2.80,-2.81,-2.27,-2.33,1.49,1.49,1.49
395.77,4.25,2.75,4.26,2.75,-2.76,-2.22,-2.29,1.50,1.50,1.50
399.73,4.22,2.71,4.22,2.70,-2.71,-2.17,-2.26,1.51,1.51,1.51
403.72,4.18,2.64,4.19,2.66,-2.66,-2.12,-2.23,1.52,1.52,1.54
407.76,4.15,2.62,4.15,2.62,-2.62,-2.07,-2.21,1.54,1.54,1.53
411.84,4.12,2.58,4.12,2.57,-2.57,-2.02,-2.18,1.55,1.55,1.54
415.96,4.08,2.52,4.08,2.53,-2.52,-1.97,-2.16,1.56,1.56,1.56
420.12,4.04,2.48,4.04,2.48,-2.48,-1.92,-2.13,1.57,1.57,1.56
424.32,4.00,2.43,4.00,2.43,-2.43,-1.88,-2.11,1.57,1.57,1.57
428.56,3.96,2.37,3.96,2.38,-2.38,-1.83,-2.08,1.58,1.58,1.59
432.85,3.92,2.32,3.92,2.33,-2.33,-1.78,-2.06,1.59,1.59,1.60
437.18,3.88,2.29,3.88,2.28,-2.28,-1.74,-2.04,1.60,1.60,1.59
441.55,3.83,2.23,3.84,2.24,-2.23,-1.69,-2.01,1.60,1.60,1.60
445.96,3.79,2.18,3.79,2.19,-2.18,-1.65,-1.99,1.61,1.61,1.61
450.42,3.75,2.13,3.75,2.13,-2.13,-1.60,-1.97,1.62,1.62,1.62
454.93,3.71,2.08,3.71,2.08,-2.08,-1.56,-1.94,1.63,1.64,1.63
459.48,3.67,2.03,3.67,2.03,-2.03,-1.51,-1.92,1.65,1.65,1.64
464.07,3.63,1.97,3.63,1.97,-1.97,-1.47,-1.89,1.66,1.66,1.66
468.71,3.58,1.91,3.58,1.92,-1.92,-1.43,-1.87,1.66,1.66,1.67
473.40,3.53,1.86,3.53,1.86,-1.87,-1.38,-1.84,1.67,1.67,1.67
478.13,3.48,1.80,3.49,1.81,-1.81,-1.34,-1.81,1.67,1.67,1.68
482.91,3.44,1.75,3.45,1.76,-1.76,-1.30,-1.78,1.68,1.68,1.69
487.74,3.41,1.71,3.41,1.71,-1.71,-1.26,-1.75,1.71,1.70,1.70
492.62,3.37,1.66,3.37,1.66,-1.65,-1.21,-1.71,1.72,1.72,1.71
497.55,3.33,1.61,3.33,1.61,-1.60,-1.17,-1.68,1.74,1.73,1.72
502.52,3.28,1.55,3.28,1.55,-1.54,-1.13,-1.64,1.74,1.74,1.73
507.55,3.23,1.48,3.23,1.48,-1.49,-1.09,-1.60,1.74,1.74,1.75
512.62,3.18,1.42,3.18,1.42,-1.43,-1.05,-1.56,1.75,1.75,1.76
517.75,3.13,1.35,3.14,1.36,-1.37,-1.01,-1.52,1.76,1.76,1.78
522.93,3.10,1.31,3.10,1.31,-1.31,-0.97,-1.47,1.79,1.79,1.79
528.16,3.06,1.26,3.06,1.26,-1.25,-0.93,-1.43,1.81,1.81,1.80
533.44,3.02,1.21,3.02,1.21,-1.19,-0.89,-1.38,1.83,1.82,1.81
538.77,2.96,1.14,2.96,1.14,-1.13,-0.85,-1.33,1.83,1.83,1.82
544.16,2.90,1.07,2.90,1.07,-1.07,-0.81,-1.28,1.83,1.83,1.83
549.60,2.84,1.00,2.85,1.00,-1.01,-0.77,-1.22,1.83,1.84,1.84
555.10,2.80,0.94,2.80,0.94,-0.95,-0.73,-1.17,1.85,1.85,1.86
