frequency,raw,error,smoothed,error_smoothed,equalization,parametric_eq,fixed_band_eq,equalized_raw,equalized_smoothed,target
20.00,12.87,1.79,12.87,1.79,-1.79,-1.35,-0.62,11.07,11.07,11.07
20.20,12.86,1.79,12.86,1.79,-1.80,-1.35,-0.64,11.06,11.06,11.06
20.40,12.85,1.79,12.85,1.80,-1.80,-1.35,-0.66,11.05,11.05,11.05
20.61,12.84,1.79,12.84,1.80,-1.80,-1.36,-0.68,11.04,11.04,11.04
20.81,12.83,1.80,12.83,1.80,-1.80,-1.36,-0.70,11.03,11.03,11.02
21.02,12.82,1.80,12.82,1.80,-1.80,-1.36,-0.72,11.02,11.02,11.01
21.23,12.81,1.80,12.81,1.80,-1.80,-1.36,-0.74,11.01,11.01,11.00
21.44,12.80,1.78,12.79,1.79,-1.79,-1.36,-0.76,11.00,11.00,11.01
21.66,12.78,1.78,12.78,1.78,-1.79,-1.36,-0.78,10.99,10.99,10.99
21.87,12.77,1.77,12.77,1.78,-1.78,-1.36,-0.80,10.98,10.98,10.99
22.09,12.76,1.78,12.75,1.78,-1.78,-1.36,-0.83,10.98,10.97,10.97
22.31,12.74,1.77,12.74,1.77,-1.77,-1.36,-0.85,10.97,10.97,10.96
22.54,12.72,1.76,12.72,1.77,-1.76,-1.36,-0.88,10.96,10.96,10.95
22.76,12.71,1.75,12.70,1.75,-1.75,-1.36,-0.90,10.95,10.95,10.95
22.99,12.69,1.74,12.69,1.74,-1.74,-1.36,-0.93,10.94,10.94,10.94
23.22,12.67,1.73,12.67,1.73,-1.73,-1.36,-0.96,10.94,10.94,10.93
23.45,12.66,1.71,12.65,1.72,-1.72,-1.36,-0.98,10.94,10.93,10.94
23.69,12.64,1.70,12.64,1.70,-1.70,-1.37,-1.01,10.93,10.93,10.93
23.92,12.62,1.69,12.62,1.69,-1.69,-1.37,-1.04,10.93,10.93,10.92
24.16,12.61,1.67,12.60,1.67,-1.68,-1.37,-1.07,10.93,10.93,10.93
24.40,12.59,1.65,12.59,1.66,-1.66,-1.37,-1.10,10.92,10.93,10.93
24.65,12.57,1.64,12.57,1.64,-1.65,-1.37,-1.13,10.92,10.92,10.92
24.89,12.56,1.63,12.55,1.63,-1.63,-1.37,-1.16,10.92,10.92,10.92
25.14,12.54,1.62,12.54,1.62,-1.62,-1.37,-1.19,10.92,10.92,10.91
25.39,12.52,1.60,12.52,1.61,-1.60,-1.37,-1.22,10.91,10.92,10.91
25.65,12.51,1.59,12.50,1.59,-1.59,-1.37,-1.25,10.92,10.91,10.91
25.91,12.49,1.57,12.49,1.57,-1.57,-1.37,-1.28,10.91,10.91,10.91
26.16,12.47,1.54,12.47,1.55,-1.56,-1.37,-1.31,10.91,10.91,10.92
26.43,12.46,1.54,12.45,1.54,-1.54,-1.37,-1.34,10.92,10.91,10.91
26.69,12.44,1.52,12.44,1.53,-1.53,-1.38,-1.37,10.91,10.91,10.91
26.96,12.43,1.51,12.42,1.51,-1.51,-1.38,-1.40,10.92,10.91,10.91
27.23,12.41,1.49,12.41,1.49,-1.49,-1.38,-1.43,10.92,10.92,10.91
27.50,12.39,1.47,12.39,1.48,-1.47,-1.38,-1.45,10.91,10.92,10.91
27.77,12.38,1.45,12.37,1.46,-1.46,-1.38,-1.48,10.92,10.92,10.92
28.05,12.36,1.44,12.36,1.44,-1.44,-1.38,-1.51,10.92,10.92,10.91
28.33,12.34,1.41,12.34,1.42,-1.42,-1.38,-1.53,10.92,10.92,10.92
28.62,12.33,1.40,12.32,1.40,-1.40,-1.38,-1.56,10.93,10.92,10.92
28.90,12.31,1.37,12.31,1.38,-1.38,-1.38,-1.58,10.93,10.93,10.93
29.19,12.29,1.35,12.29,1.36,-1.36,-1.38,-1.60,10.92,10.93,10.93
29.48,12.28,1.35,12.27,1.34,-1.35,-1.39,-1.62,10.93,10.92,10.92
29.78,12.26,1.33,12.26,1.33,-1.34,-1.39,-1.63,10.92,10.92,10.92
30.08,12.24,1.31,12.24,1.33,-1.32,-1.39,-1.65,10.91,10.92,10.92
30.38,12.23,1.32,12.22,1.31,-1.31,-1.39,-1.66,10.92,10.91,10.90
30.68,12.21,1.30,12.21,1.31,-1.30,-1.39,-1.67,10.91,10.91,10.90
30.99,12.20,1.29,12.19,1.29,-1.29,-1.39,-1.68,10.91,10.90,10.90
31.30,12.18,1.27,12.18,1.28,-1.28,-1.39,-1.69,10.90,10.90,10.90
31.61,12.16,1.26,12.16,1.27,-1.27,-1.39,-1.69,10.89,10.89,10.89
31.93,12.15,1.27,12.14,1.26,-1.26,-1.40,-1.70,10.89,10.88,10.87
32.24,12.13,1.24,12.13,1.25,-1.25,-1.40,-1.70,10.88,10.88,10.88
32.57,12.11,1.24,12.11,1.24,-1.24,-1.40,-1.69,10.87,10.87,10.86
32.89,12.10,1.23,12.09,1.23,-1.23,-1.40,-1.69,10.86,10.86,10.86
33.22,12.08,1.22,12.08,1.22,-1.22,-1.40,-1.69,10.85,10.85,10.85
33.55,12.06,1.20,12.06,1.21,-1.21,-1.40,-1.68,10.84,10.85,10.85
33.89,12.05,1.20,12.04,1.20,-1.20,-1.40,-1.67,10.84,10.84,10.84
34.23,12.03,1.20,12.03,1.20,-1.19,-1.40,-1.66,10.84,10.83,10.82
34.57,12.01,1.18,12.01,1.19,-1.18,-1.41,-1.65,10.83,10.83,10.82
34.92,11.99,1.18,11.99,1.18,-1.17,-1.41,-1.64,10.82,10.82,10.80
35.27,11.98,1.15,11.97,1.16,-1.17,-1.41,-1.62,10.81,10.81,10.82
35.62,11.96,1.16,11.96,1.15,-1.16,-1.41,-1.61,10.79,10.79,10.79
35.97,11.94,1.14,11.94,1.15,-1.16,-1.41,-1.59,10.77,10.78,10.79
36.33,11.93,1.15,11.93,1.16,-1.17,-1.41,-1.58,10.76,10.76,10.77
36.70,11.93,1.17,11.92,1.17,-1.17,-1.41,-1.56,10.75,10.75,10.75
37.06,11.92,1.18,11.92,1.19,-1.18,-1.42,-1.55,10.73,10.74,10.73
37.43,11.92,1.20,11.92,1.20,-1.19,-1.42,-1.53,10.72,10.72,10.71
37.81,11.91,1.20,11.91,1.21,-1.20,-1.42,-1.51,10.70,10.70,10.70
38.19,11.90,1.22,11.90,1.22,-1.21,-1.42,-1.50,10.69,10.68,10.67
38.57,11.88,1.22,11.88,1.22,-1.22,-1.42,-1.48,10.66,10.66,10.65
38.95,11.86,1.21,11.85,1.22,-1.22,-1.42,-1.47,10.64,10.64,10.64
39.34,11.83,1.21,11.83,1.21,-1.21,-1.43,-1.45,10.61,10.61,10.61
39.74,11.80,1.21,11.80,1.21,-1.21,-1.43,-1.44,10.59,10.59,10.58
40.14,11.77,1.20,11.77,1.21,-1.21,-1.43,-1.42,10.56,10.56,10.56
40.54,11.74,1.19,11.74,1.20,-1.20,-1.43,-1.41,10.54,10.54,10.54
40.94,11.71,1.19,11.71,1.19,-1.20,-1.43,-1.40,10.51,10.51,10.51
41.35,11.69,1.18,11.69,1.19,-1.19,-1.43,-1.39,10.50,10.50,10.50
41.76,11.67,1.19,11.67,1.19,-1.19,-1.44,-1.38,10.48,10.48,10.47
42.18,11.65,1.18,11.64,1.18,-1.18,-1.44,-1.37,10.46,10.46,10.46
42.60,11.62,1.18,11.62,1.18,-1.18,-1.44,-1.36,10.44,10.44,10.43
43.03,11.59,1.17,11.59,1.18,-1.18,-1.44,-1.35,10.41,10.41,10.41
43.46,11.56,1.18,11.56,1.18,-1.17,-1.44,-1.34,10.38,10.38,10.37
43.90,11.53,1.17,11.53,1.18,-1.17,-1.44,-1.34,10.36,10.36,10.35
44.33,11.50,1.17,11.50,1.17,-1.17,-1.45,-1.33,10.33,10.33,10.32
44.78,11.47,1.16,11.47,1.16,-1.17,-1.45,-1.33,10.30,10.30,10.30
45.23,11.44,1.15,11.44,1.17,-1.18,-1.45,-1.33,10.26,10.27,10.28
45.68,11.42,1.18,11.42,1.18,-1.18,-1.45,-1.33,10.24,10.23,10.23
46.13,11.40,1.19,11.39,1.19,-1.19,-1.45,-1.32,10.21,10.20,10.20
46.60,11.37,1.20,11.37,1.21,-1.20,-1.46,-1.33,10.16,10.17,10.16
47.06,11.35,1.21,11.35,1.22,-1.22,-1.46,-1.33,10.13,10.13,10.13
47.53,11.33,1.23,11.32,1.23,-1.23,-1.46,-1.33,10.10,10.09,10.09
48.01,11.30,1.25,11.30,1.25,-1.25,-1.46,-1.33,10.05,10.05,10.04
48.49,11.27,1.26,11.27,1.27,-1.26,-1.46,-1.34,10.01,10.01,10.00
48.97,11.24,1.28,11.24,1.28,-1.28,-1.47,-1.34,9.96,9.96,9.95
49.46,11.21,1.28,11.21,1.29,-1.29,-1.47,-1.35,9.91,9.91,9.92
49.96,11.18,1.31,11.18,1.30,-1.31,-1.47,-1.35,9.86,9.86,9.86
50.46,11.15,1.31,11.15,1.32,-1.33,-1.47,-1.36,9.82,9.82,9.83
50.96,11.13,1.33,11.13,1.34,-1.35,-1.47,-1.37,9.78,9.78,9.79
51.47,11.12,1.36,11.12,1.37,-1.36,-1.48,-1.38,9.75,9.75,9.75
51.99,11.11,1.40,11.10,1.39,-1.38,-1.48,-1.39,9.73,9.72,9.70
52.51,11.08,1.40,11.08,1.40,-1.39,-1.48,-1.40,9.69,9.69,9.67
53.03,11.04,1.39,11.04,1.41,-1.40,-1.48,-1.41,9.64,9.64,9.64
53.56,11.00,1.40,10.99,1.40,-1.40,-1.48,-1.42,9.59,9.59,9.59
54.10,10.95,1.40,10.95,1.40,-1.40,-1.49,-1.43,9.54,9.54,9.54
54.64,10.90,1.39,10.90,1.40,-1.40,-1.49,-1.44,9.49,9.50,9.50
55.18,10.86,1.39,10.86,1.40,-1.40,-1.49,-1.45,9.45,9.46,9.46
55.74,10.83,1.41,10.82,1.40,-1.40,-1.49,-1.46,9.43,9.42,9.41
56.29,10.79,1.39,10.79,1.40,-1.40,-1.49,-1.47,9.39,9.39,9.39
56.86,10.75,1.39,10.75,1.40,-1.40,-1.50,-1.48,9.35,9.35,9.35
57.42,10.71,1.40,10.71,1.40,-1.40,-1.50,-1.49,9.31,9.31,9.30
58.00,10.68,1.41,10.67,1.41,-1.40,-1.50,-1.50,9.28,9.27,9.26
58.58,10.64,1.40,10.64,1.40,-1.40,-1.50,-1.51,9.23,9.23,9.23
59.16,10.60,1.39,10.60,1.40,-1.40,-1.51,-1.51,9.19,9.19,9.20
59.76,10.56,1.40,10.56,1.40,-1.41,-1.51,-1.52,9.15,9.15,9.15
60.35,10.52,1.41,10.51,1.41,-1.41,-1.51,-1.53,9.10,9.10,9.10
60.96,10.47,1.42,10.46,1.42,-1.42,-1.51,-1.53,9.05,9.04,9.04
61.57,10.41,1.42,10.41,1.43,-1.43,-1.51,-1.54,8.98,8.98,8.98
62.18,10.36,1.43,10.36,1.43,-1.44,-1.52,-1.54,8.92,8.92,8.92
62.80,10.31,1.44,10.31,1.45,-1.45,-1.52,-1.54,8.86,8.87,8.86
63.43,10.28,1.46,10.27,1.46,-1.46,-1.52,-1.55,8.82,8.82,8.81
64.07,10.24,1.47,10.23,1.47,-1.46,-1.52,-1.55,8.77,8.77,8.76
64.71,10.19,1.47,10.19,1.48,-1.47,-1.52,-1.55,8.72,8.72,8.71
65.35,10.14,1.48,10.13,1.47,-1.48,-1.53,-1.55,8.66,8.66,8.65
66.01,10.08,1.47,10.08,1.47,-1.48,-1.53,-1.55,8.59,8.60,8.60
66.67,10.03,1.46,10.03,1.48,-1.49,-1.53,-1.54,8.54,8.54,8.56
67.33,9.99,1.49,9.99,1.49,-1.49,-1.53,-1.54,8.49,8.49,8.49
68.01,9.95,1.50,9.95,1.50,-1.50,-1.54,-1.54,8.45,8.45,8.44
68.69,9.91,1.51,9.90,1.51,-1.50,-1.54,-1.53,8.40,8.40,8.39
69.37,9.86,1.51,9.86,1.52,-1.51,-1.54,-1.53,8.34,8.35,8.34
70.07,9.81,1.52,9.80,1.52,-1.52,-1.54,-1.53,8.29,8.28,8.28
70.77,9.75,1.53,9.75,1.52,-1.53,-1.54,-1.52,8.21,8.21,8.21
71.48,9.69,1.52,9.69,1.53,-1.54,-1.55,-1.52,8.14,8.15,8.16
72.19,9.64,1.53,9.64,1.54,-1.55,-1.55,-1.51,8.09,8.09,8.10
72.91,9.60,1.56,9.60,1.56,-1.56,-1.55,-1.51,8.04,8.04,8.03
73.64,9.56,1.57,9.55,1.57,-1.56,-1.55,-1.51,8.00,7.99,7.98
74.38,9.51,1.58,9.50,1.58,-1.56,-1.56,-1.50,7.94,7.94,7.92
75.12,9.45,1.57,9.45,1.58,-1.57,-1.56,-1.50,7.88,7.88,7.87
75.87,9.39,1.56,9.39,1.57,-1.57,-1.56,-1.50,7.81,7.81,7.82
76.63,9.33,1.56,9.33,1.56,-1.57,-1.56,-1.50,7.75,7.76,7.76
77.40,9.28,1.55,9.28,1.57,-1.58,-1.57,-1.50,7.70,7.71,7.72
78.17,9.25,1.58,9.24,1.57,-1.58,-1.57,-1.50,7.67,7.67,7.66
78.95,9.21,1.58,9.21,1.58,-1.58,-1.57,-1.50,7.63,7.63,7.62
79.74,9.17,1.59,9.16,1.59,-1.59,-1.57,-1.50,7.58,7.58,7.57
80.54,9.12,1.59,9.12,1.59,-1.59,-1.58,-1.50,7.52,7.52,7.52
81.35,9.07,1.60,9.07,1.60,-1.60,-1.58,-1.51,7.46,7.47,7.46
82.16,9.03,1.59,9.03,1.60,-1.61,-1.58,-1.51,7.42,7.42,7.43
82.98,8.99,1.61,8.99,1.61,-1.62,-1.59,-1.52,7.37,7.37,7.37
83.81,8.95,1.62,8.94,1.62,-1.62,-1.59,-1.52,7.33,7.33,7.32
84.65,8.90,1.63,8.90,1.64,-1.62,-1.59,-1.53,7.27,7.28,7.26
85.50,8.85,1.64,8.85,1.64,-1.63,-1.60,-1.54,7.22,7.22,7.20
86.35,8.79,1.63,8.79,1.63,-1.63,-1.60,-1.55,7.15,7.15,7.15
87.22,8.73,1.62,8.73,1.63,-1.64,-1.60,-1.56,7.09,7.09,7.10
88.09,8.67,1.62,8.67,1.63,-1.64,-1.61,-1.58,7.02,7.03,7.04
88.97,8.63,1.64,8.63,1.64,-1.65,-1.61,-1.59,6.98,6.98,6.98
89.86,8.59,1.65,8.59,1.66,-1.65,-1.62,-1.61,6.93,6.93,6.93
90.76,8.55,1.67,8.54,1.67,-1.66,-1.62,-1.62,6.89,6.88,6.87
91.66,8.50,1.69,8.49,1.68,-1.67,-1.63,-1.64,6.83,6.82,6.80
92.58,8.44,1.68,8.44,1.69,-1.68,-1.63,-1.66,6.75,6.76,6.75
93.51,8.39,1.68,8.39,1.69,-1.70,-1.64,-1.68,6.69,6.68,6.70
94.44,8.34,1.69,8.34,1.70,-1.72,-1.64,-1.70,6.62,6.62,6.64
95.39,8.30,1.72,8.30,1.73,-1.73,-1.65,-1.73,6.56,6.57,6.57
96.34,8.27,1.76,8.26,1.76,-1.75,-1.65,-1.75,6.51,6.51,6.50
97.30,8.23,1.78,8.22,1.78,-1.77,-1.66,-1.77,6.45,6.45,6.44
98.28,8.18,1.80,8.18,1.80,-1.80,-1.67,-1.80,6.38,6.38,6.37
99.26,8.13,1.81,8.13,1.81,-1.82,-1.67,-1.83,6.31,6.31,6.31
100.25,8.08,1.82,8.08,1.83,-1.83,-1.68,-1.85,6.24,6.25,6.25
101.25,8.05,1.84,8.04,1.85,-1.85,-1.69,-1.88,6.20,6.20,6.20
102.27,8.01,1.86,8.00,1.86,-1.85,-1.69,-1.91,6.15,6.15,6.14
103.29,7.96,1.87,7.96,1.87,-1.86,-1.70,-1.94,6.10,6.10,6.08
104.32,7.90,1.86,7.90,1.87,-1.86,-1.71,-1.96,6.04,6.04,6.03
105.37,7.84,1.86,7.83,1.86,-1.86,-1.72,-1.99,5.98,5.97,5.97
106.42,7.77,1.84,7.77,1.85,-1.86,-1.73,-2.02,5.91,5.91,5.92
107.48,7.71,1.84,7.71,1.85,-1.86,-1.73,-2.05,5.84,5.85,5.86
108.56,7.67,1.85,7.66,1.85,-1.86,-1.74,-2.07,5.81,5.80,5.81
109.64,7.62,1.86,7.62,1.87,-1.86,-1.75,-2.10,5.75,5.76,5.75
110.74,7.58,1.88,7.58,1.88,-1.87,-1.76,-2.13,5.71,5.71,5.69
111.85,7.53,1.89,7.52,1.88,-1.88,-1.77,-2.15,5.65,5.64,5.63
112.97,7.47,1.88,7.47,1.89,-1.89,-1.78,-2.17,5.58,5.58,5.58
114.10,7.41,1.88,7.41,1.89,-1.91,-1.79,-2.20,5.50,5.50,5.52
115.24,7.36,1.91,7.36,1.91,-1.92,-1.81,-2.21,5.44,5.44,5.44
116.39,7.31,1.92,7.31,1.93,-1.93,-1.82,-2.23,5.38,5.38,5.38
117.55,7.28,1.95,7.27,1.95,-1.94,-1.83,-2.25,5.34,5.33,5.32
118.73,7.24,1.97,7.23,1.96,-1.95,-1.84,-2.26,5.29,5.28,5.26
119.92,7.19,1.96,7.19,1.97,-1.96,-1.85,-2.27,5.23,5.23,5.22
121.12,7.14,1.96,7.14,1.97,-1.97,-1.86,-2.28,5.16,5.16,5.17
122.33,7.09,1.97,7.09,1.97,-1.99,-1.88,-2.29,5.10,5.11,5.11
123.55,7.05,1.98,7.05,1.99,-2.00,-1.89,-2.29,5.05,5.06,5.06
124.79,7.02,2.00,7.01,2.00,-2.00,-1.90,-2.29,5.01,5.01,5.01
126.03,6.98,2.02,6.97,2.02,-2.01,-1.91,-2.29,4.96,4.96,4.95
127.29,6.93,2.02,6.93,2.03,-2.03,-1.93,-2.28,4.90,4.90,4.90
128.57,6.88,2.04,6.88,2.04,-2.04,-1.94,-2.27,4.84,4.84,4.83
129.85,6.83,2.04,6.83,2.04,-2.05,-1.95,-2.26,4.78,4.78,4.78
131.15,6.78,2.05,6.78,2.05,-2.05,-1.96,-2.25,4.72,4.72,4.72
132.46,6.73,2.05,6.73,2.06,-2.06,-1.98,-2.23,4.67,4.67,4.67
133.79,6.69,2.07,6.68,2.07,-2.06,-1.99,-2.21,4.63,4.62,4.61
135.12,6.63,2.06,6.63,2.06,-2.06,-2.00,-2.19,4.57,4.57,4.56
136.48,6.57,2.05,6.57,2.05,-2.06,-2.01,-2.17,4.51,4.51,4.51
137.84,6.50,2.03,6.50,2.04,-2.05,-2.02,-2.14,4.45,4.45,4.46
139.22,6.45,2.04,6.45,2.04,-2.04,-2.04,-2.12,4.40,4.40,4.40
140.61,6.40,2.03,6.39,2.04,-2.04,-2.05,-2.09,4.36,4.36,4.36
142.02,6.34,2.03,6.34,2.03,-2.03,-2.06,-2.06,4.31,4.31,4.30
143.44,6.29,2.02,6.28,2.02,-2.02,-2.07,-2.03,4.27,4.27,4.26
144.87,6.23,2.00,6.23,2.01,-2.00,-2.07,-2.00,4.22,4.22,4.22
146.32,6.17,1.99,6.17,1.99,-1.99,-2.08,-1.97,4.17,4.17,4.17
147.78,6.11,1.97,6.11,1.98,-1.98,-2.09,-1.94,4.12,4.13,4.13
149.26,6.06,1.97,6.05,1.97,-1.97,-2.10,-1.91,4.09,4.08,4.08
150.75,6.01,1.96,6.00,1.96,-1.96,-2.10,-1.87,4.04,4.04,4.04
152.26,5.95,1.94,5.95,1.95,-1.95,-2.11,-1.84,3.99,4.00,4.00
153.78,5.91,1.94,5.90,1.94,-1.95,-2.11,-1.81,3.96,3.96,3.96
155.32,5.86,1.93,5.86,1.94,-1.94,-2.11,-1.78,3.91,3.92,3.92
156.88,5.82,1.94,5.81,1.94,-1.94,-2.11,-1.75,3.88,3.88,3.87
158.44,5.77,1.94,5.76,1.94,-1.93,-2.11,-1.72,3.84,3.83,3.82
160.03,5.71,1.92,5.71,1.93,-1.92,-2.11,-1.69,3.78,3.79,3.78
161.63,5.66,1.91,5.65,1.92,-1.91,-2.11,-1.66,3.74,3.74,3.74
163.24,5.60,1.90,5.60,1.90,-1.90,-2.11,-1.63,3.69,3.69,3.69
164.88,5.54,1.89,5.54,1.89,-1.89,-2.10,-1.61,3.64,3.64,3.64
166.53,5.48,1.88,5.48,1.88,-1.88,-2.10,-1.58,3.59,3.60,3.59
168.19,5.42,1.85,5.42,1.87,-1.87,-2.09,-1.56,3.55,3.55,3.56
169.87,5.37,1.86,5.36,1.86,-1.86,-2.08,-1.53,3.51,3.50,3.50
171.57,5.31,1.85,5.31,1.85,-1.85,-2.07,-1.51,3.46,3.46,3.45
173.29,5.26,1.84,5.25,1.85,-1.84,-2.05,-1.49,3.42,3.41,3.41
175.02,5.20,1.83,5.20,1.83,-1.83,-2.04,-1.47,3.37,3.37,3.36
176.77,5.14,1.82,5.14,1.83,-1.82,-2.02,-1.45,3.31,3.32,3.31
178.54,5.09,1.81,5.08,1.82,-1.82,-2.01,-1.43,3.27,3.27,3.27
180.32,5.03,1.81,5.03,1.81,-1.81,-1.99,-1.41,3.22,3.22,3.21
182.13,4.98,1.79,4.98,1.80,-1.81,-1.97,-1.40,3.17,3.17,3.18
183.95,4.93,1.79,4.93,1.80,-1.80,-1.94,-1.38,3.13,3.13,3.13
185.79,4.89,1.80,4.88,1.80,-1.79,-1.92,-1.37,3.09,3.09,3.08
187.65,4.84,1.79,4.84,1.79,-1.79,-1.90,-1.36,3.05,3.05,3.04
189.52,4.79,1.78,4.79,1.79,-1.78,-1.87,-1.35,3.00,3.00,3.00
191.42,4.74,1.77,4.74,1.77,-1.78,-1.84,-1.34,2.96,2.96,2.96
193.33,4.69,1.76,4.68,1.77,-1.77,-1.81,-1.33,2.92,2.92,2.92
195.27,4.63,1.75,4.63,1.75,-1.75,-1.78,-1.32,2.87,2.87,2.87
197.22,4.57,1.74,4.57,1.74,-1.74,-1.75,-1.31,2.83,2.83,2.82
199.19,4.51,1.71,4.51,1.72,-1.72,-1.72,-1.31,2.79,2.79,2.79
201.18,4.46,1.70,4.45,1.70,-1.69,-1.68,-1.30,2.76,2.76,2.75
203.19,4.40,1.67,4.40,1.67,-1.67,-1.65,-1.29,2.73,2.73,2.72
205.23,4.34,1.63,4.34,1.64,-1.64,-1.61,-1.29,2.70,2.70,2.70
207.28,4.28,1.60,4.28,1.61,-1.61,-1.57,-1.28,2.67,2.67,2.67
209.35,4.22,1.58,4.22,1.58,-1.58,-1.53,-1.28,2.64,2.64,2.63
211.44,4.16,1.55,4.16,1.55,-1.55,-1.49,-1.27,2.61,2.61,2.60
213.56,4.10,1.51,4.10,1.52,-1.52,-1.45,-1.27,2.58,2.58,2.58
215.69,4.04,1.48,4.03,1.48,-1.49,-1.41,-1.26,2.55,2.54,2.55
217.85,3.98,1.45,3.98,1.46,-1.46,-1.37,-1.26,2.52,2.52,2.52
220.03,3.92,1.42,3.92,1.43,-1.43,-1.33,-1.25,2.49,2.50,2.49
222.23,3.88,1.41,3.87,1.40,-1.40,-1.29,-1.24,2.48,2.47,2.46
224.45,3.82,1.36,3.82,1.37,-1.36,-1.24,-1.24,2.45,2.45,2.45
226.70,3.76,1.33,3.76,1.33,-1.33,-1.20,-1.23,2.43,2.43,2.42
228.96,3.70,1.28,3.70,1.29,-1.29,-1.15,-1.22,2.40,2.41,2.41
231.25,3.65,1.25,3.64,1.25,-1.26,-1.11,-1.21,2.39,2.39,2.39
233.57,3.59,1.21,3.59,1.22,-1.22,-1.06,-1.19,2.37,2.37,2.37
235.90,3.54,1.17,3.53,1.18,-1.17,-1.02,-1.18,2.36,2.36,2.36
238.26,3.48,1.14,3.48,1.13,-1.13,-0.97,-1.16,2.34,2.34,2.33
240.64,3.42,1.07,3.42,1.09,-1.09,-0.92,-1.14,2.33,2.33,2.34
243.05,3.37,1.04,3.36,1.04,-1.04,-0.88,-1.13,2.32,2.32,2.32
245.48,3.31,0.99,3.31,1.00,-1.00,-0.83,-1.10,2.31,2.32,2.31
247.93,3.27,0.96,3.26,0.95,-0.95,-0.78,-1.08,2.32,2.32,2.30
250.41,3.21,0.89,3.21,0.90,-0.89,-0.73,-1.05,2.31,2.31,2.31
252.92,3.15,0.84,3.15,0.84,-0.84,-0.69,-1.02,2.31,2.31,2.30
255.45,3.08,0.78,3.08,0.78,-0.79,-0.64,-0.99,2.29,2.30,2.29
258.00,3.02,0.72,3.02,0.72,-0.73,-0.59,-0.96,2.29,2.29,2.29
260.58,2.96,0.66,2.96,0.66,-0.67,-0.54,-0.92,2.29,2.29,2.29
263.19,2.90,0.60,2.90,0.61,-0.61,-0.50,-0.89,2.28,2.29,2.29
265.82,2.85,0.56,2.84,0.56,-0.55,-0.45,-0.85,2.29,2.29,2.28
268.48,2.79,0.50,2.79,0.50,-0.50,-0.40,-0.81,2.29,2.29,2.28
271.16,2.73,0.44,2.73,0.44,-0.44,-0.35,-0.76,2.28,2.28,2.28
273.87,2.67,0.38,2.67,0.38,-0.39,-0.31,-0.72,2.28,2.28,2.28
276.61,2.61,0.32,2.61,0.33,-0.34,-0.26,-0.67,2.27,2.27,2.28
279.38,2.55,0.28,2.55,0.28,-0.28,-0.21,-0.62,2.27,2.27,2.26
282.17,2.50,0.23,2.50,0.23,-0.23,-0.16,-0.57,2.27,2.27,2.26
284.99,2.45,0.17,2.45,0.18,-0.17,-0.12,-0.52,2.28,2.28,2.27
287.84,2.40,0.11,2.40,0.12,-0.12,-0.07,-0.46,2.28,2.28,2.28
290.72,2.35,0.07,2.34,0.06,-0.06,-0.02,-0.41,2.28,2.28,2.27
293.63,2.29,0.00,2.29,0.01,-0.01,0.03,-0.35,2.28,2.28,2.28
296.57,2.24,-0.06,2.24,-0.05,0.05,0.07,-0.29,2.28,2.28,2.29
299.53,2.19,-0.11,2.19,-0.11,0.10,0.12,-0.23,2.29,2.29,2.29
302.53,2.15,-0.17,2.15,-0.16,0.16,0.17,-0.18,2.30,2.30,2.31
305.55,2.11,-0.20,2.10,-0.21,0.21,0.21,-0.11,2.32,2.32,2.30
308.61,2.06,-0.26,2.05,-0.26,0.27,0.26,-0.05,2.33,2.32,2.31
311.69,2.00,-0.33,2.00,-0.32,0.33,0.31,0.01,2.32,2.32,2.32
314.81,1.94,-0.39,1.94,-0.39,0.38,0.36,0.07,2.32,2.32,2.32
317.96,1.89,-0.45,1.89,-0.45,0.44,0.40,0.14,2.32,2.32,2.33
321.14,1.84,-0.51,1.84,-0.50,0.50,0.45,0.20,2.33,2.34,2.34
324.35,1.80,-0.55,1.80,-0.56,0.55,0.50,0.27,2.35,2.35,2.34
327.59,1.76,-0.62,1.75,-0.61,0.61,0.54,0.33,2.37,2.37,2.37
330.87,1.71,-0.66,1.71,-0.66,0.67,0.59,0.40,2.38,2.38,2.36
334.18,1.66,-0.72,1.65,-0.72,0.72,0.64,0.46,2.38,2.38,2.37
337.52,1.60,-0.78,1.60,-0.78,0.78,0.68,0.53,2.37,2.38,2.37
340.90,1.55,-0.85,1.55,-0.84,0.83,0.73,0.60,2.38,2.38,2.39
344.30,1.51,-0.90,1.51,-0.89,0.88,0.78,0.67,2.39,2.39,2.40
347.75,1.47,-0.94,1.47,-0.94,0.94,0.82,0.74,2.40,2.41,2.40
351.23,1.44,-0.97,1.43,-0.98,0.99,0.87,0.81,2.43,2.42,2.40
354.74,1.39,-1.05,1.39,-1.03,1.04,0.92,0.88,2.43,2.43,2.43
358.28,1.34,-1.09,1.34,-1.09,1.10,0.96,0.95,2.43,2.44,2.42
361.87,1.29,-1.15,1.29,-1.15,1.15,1.01,1.03,2.44,2.44,2.43
365.49,1.24,-1.21,1.24,-1.21,1.20,1.06,1.10,2.44,2.44,2.44
369.14,1.19,-1.28,1.19,-1.27,1.26,1.10,1.17,2.44,2.45,2.46
372.83,1.15,-1.32,1.15,-1.32,1.31,1.15,1.25,2.46,2.46,2.46
376.56,1.11,-1.36,1.11,-1.36,1.36,1.20,1.32,2.47,2.47,2.46
380.33,1.07,-1.41,1.07,-1.41,1.41,1.24,1.40,2.48,2.48,2.47
384.13,1.03,-1.47,1.03,-1.46,1.46,1.29,1.47,2.49,2.49,2.49
387.97,0.99,-1.51,0.99,-1.51,1.51,1.34,1.55,2.50,2.50,2.49
391.85,0.95,-1.56,0.95,-1.56,1.56,1.38,1.63,2.51,2.51,2.50
395.77,0.91,-1.61,0.91,-1.61,1.61,1.43,1.70,2.52,2.52,2.51
399.73,0.87,-1.66,0.87,-1.66,1.66,1.48,1.78,2.53,2.53,2.52
403.72,0.83,-1.73,0.82,-1.72,1.71,1.53,1.86,2.54,2.54,2.55
407.76,0.78,-1.77,0.78,-1.77,1.76,1.57,1.93,2.54,2.54,2.54
411.84,0.74,-1.82,0.74,-1.82,1.81,1.62,2.01,2.55,2.55,2.55
415.96,0.71,-1.87,0.70,-1.86,1.85,1.67,2.09,2.56,2.56,2.57
420.12,0.68,-1.90,0.68,-1.90,1.90,1.72,2.16,2.57,2.57,2.57
424.32,0.65,-1.94,0.65,-1.94,1.94,1.76,2.24,2.58,2.59,2.58
428.56,0.63,-1.98,0.63,-1.97,1.98,1.81,2.31,2.60,2.60,2.60
432.85,0.60,-2.02,0.60,-2.01,2.02,1.86,2.39,2.61,2.61,2.61
437.18,0.57,-2.04,0.56,-2.05,2.06,1.91,2.46,2.63,2.62,2.60
441.55,0.52,-2.10,0.52,-2.09,2.10,1.96,2.53,2.62,2.62,2.61
445.96,0.48,-2.15,0.48,-2.14,2.15,2.00,2.59,2.62,2.62,2.62
450.42,0.44,-2.20,0.43,-2.20,2.19,2.05,2.66,2.62,2.62,2.63
454.93,0.40,-2.25,0.40,-2.24,2.23,2.10,2.72,2.63,2.63,2.64
459.48,0.38,-2.28,0.38,-2.28,2.27,2.15,2.78,2.65,2.64,2.65
464.07,0.36,-2.32,0.36,-2.31,2.31,2.20,2.84,2.66,2.66,2.67
468.71,0.34,-2.35,0.34,-2.34,2.34,2.24,2.89,2.68,2.68,2.68
473.40,0.32,-2.37,0.31,-2.37,2.38,2.29,2.94,2.70,2.69,2.68
478.13,0.29,-2.41,0.28,-2.41,2.42,2.34,2.99,2.71,2.70,2.69
482.91,0.25,-2.46,0.25,-2.45,2.46,2.39,3.03,2.71,2.71,2.70
487.74,0.22,-2.50,0.21,-2.50,2.50,2.44,3.07,2.72,2.72,2.71
492.62,0.18,-2.55,0.18,-2.55,2.55,2.48,3.10,2.72,2.72,2.72
497.55,0.14,-2.60,0.14,-2.60,2.59,2.53,3.13,2.73,2.73,2.73
502.52,0.10,-2.65,0.10,-2.65,2.64,2.58,3.15,2.74,2.74,2.74
507.55,0.07,-2.70,0.07,-2.69,2.69,2.63,3.18,2.75,2.75,2.76
