frequency,raw,error,smoothed,error_smoothed,equalization,parametric_eq,fixed_band_eq,equalized_raw,equalized_smoothed,target
20.00,8.48,-1.05,8.48,-1.05,1.07,0.94,0.09,9.54,9.54,9.53
20.20,8.50,-1.02,8.50,-1.02,1.03,0.92,0.09,9.52,9.53,9.52
20.40,8.53,-0.98,8.52,-0.99,0.99,0.89,0.10,9.51,9.51,9.51
20.61,8.55,-0.96,8.55,-0.96,0.95,0.86,0.10,9.50,9.50,9.51
20.81,8.58,-0.91,8.57,-0.92,0.91,0.84,0.10,9.49,9.48,9.49
21.02,8.60,-0.89,8.60,-0.89,0.87,0.81,0.11,9.47,9.48,9.49
21.23,8.64,-0.84,8.64,-0.85,0.84,0.78,0.11,9.48,9.48,9.48
21.44,8.68,-0.81,8.68,-0.81,0.80,0.75,0.12,9.48,9.48,9.49
21.66,8.72,-0.76,8.72,-0.76,0.77,0.73,0.12,9.48,9.48,9.48
21.87,8.76,-0.71,8.75,-0.72,0.73,0.70,0.13,9.49,9.49,9.47
22.09,8.78,-0.68,8.78,-0.69,0.70,0.67,0.13,9.48,9.48,9.46
22.31,8.80,-0.66,8.80,-0.66,0.67,0.65,0.14,9.47,9.47,9.46
22.54,8.81,-0.64,8.81,-0.64,0.64,0.62,0.14,9.45,9.45,9.45
22.76,8.82,-0.62,8.82,-0.62,0.61,0.60,0.15,9.43,9.43,9.44
22.99,8.83,-0.60,8.83,-0.60,0.58,0.57,0.15,9.41,9.42,9.43
23.22,8.86,-0.56,8.86,-0.57,0.56,0.55,0.16,9.41,9.42,9.42
23.45,8.90,-0.53,8.89,-0.53,0.53,0.52,0.16,9.43,9.42,9.43
23.69,8.93,-0.49,8.93,-0.49,0.50,0.50,0.17,9.43,9.43,9.42
23.92,8.97,-0.45,8.96,-0.46,0.47,0.48,0.17,9.44,9.44,9.42
24.16,9.00,-0.43,8.99,-0.44,0.44,0.45,0.18,9.44,9.44,9.43
24.40,9.02,-0.42,9.02,-0.42,0.41,0.43,0.19,9.43,9.44,9.44
24.65,9.05,-0.39,9.04,-0.40,0.39,0.41,0.19,9.44,9.43,9.44
24.89,9.07,-0.37,9.07,-0.37,0.36,0.39,0.20,9.43,9.43,9.44
25.14,9.09,-0.34,9.09,-0.34,0.34,0.36,0.20,9.43,9.43,9.43
25.39,9.12,-0.31,9.12,-0.31,0.32,0.34,0.21,9.44,9.44,9.43
25.65,9.15,-0.28,9.14,-0.29,0.29,0.32,0.22,9.44,9.44,9.43
25.91,9.17,-0.27,9.17,-0.27,0.27,0.30,0.22,9.43,9.44,9.44
26.16,9.20,-0.25,9.19,-0.25,0.24,0.28,0.23,9.44,9.44,9.45
26.43,9.22,-0.23,9.22,-0.23,0.22,0.26,0.23,9.44,9.44,9.45
26.69,9.25,-0.20,9.25,-0.20,0.20,0.25,0.24,9.45,9.45,9.45
26.96,9.28,-0.16,9.27,-0.18,0.19,0.23,0.24,9.47,9.46,9.44
27.23,9.28,-0.16,9.28,-0.16,0.18,0.21,0.25,9.46,9.46,9.44
27.50,9.28,-0.16,9.28,-0.16,0.17,0.19,0.25,9.45,9.46,9.44
27.77,9.28,-0.17,9.28,-0.17,0.17,0.17,0.25,9.45,9.45,9.45
28.05,9.28,-0.17,9.28,-0.17,0.17,0.16,0.26,9.45,9.44,9.45
28.33,9.27,-0.16,9.27,-0.17,0.17,0.14,0.26,9.43,9.43,9.43
28.62,9.27,-0.16,9.26,-0.17,0.16,0.12,0.26,9.43,9.42,9.43
28.90,9.26,-0.18,9.27,-0.17,0.15,0.10,0.26,9.41,9.42,9.44
29.19,9.28,-0.16,9.28,-0.15,0.14,0.09,0.26,9.41,9.42,9.44
29.48,9.32,-0.11,9.31,-0.12,0.12,0.07,0.26,9.44,9.43,9.43
29.78,9.35,-0.08,9.35,-0.09,0.10,0.06,0.26,9.45,9.45,9.43
30.08,9.38,-0.06,9.37,-0.06,0.08,0.04,0.25,9.46,9.45,9.44
30.38,9.38,-0.05,9.38,-0.05,0.07,0.03,0.25,9.44,9.44,9.43
30.68,9.38,-0.03,9.38,-0.04,0.05,0.01,0.24,9.43,9.43,9.41
30.99,9.38,-0.03,9.38,-0.03,0.03,-0.00,0.24,9.41,9.41,9.41
31.30,9.38,-0.02,9.38,-0.02,0.02,-0.02,0.23,9.39,9.39,9.40
31.61,9.38,-0.01,9.37,-0.02,-0.00,-0.03,0.22,9.38,9.37,9.39
31.93,9.38,-0.00,9.38,0.00,-0.02,-0.05,0.21,9.36,9.36,9.38
32.24,9.40,0.02,9.40,0.03,-0.04,-0.06,0.20,9.36,9.36,9.38
32.57,9.44,0.08,9.43,0.07,-0.06,-0.08,0.19,9.38,9.37,9.36
32.89,9.47,0.11,9.46,0.10,-0.08,-0.09,0.18,9.39,9.38,9.36
33.22,9.48,0.12,9.48,0.12,-0.10,-0.11,0.17,9.38,9.38,9.36
33.55,9.48,0.13,9.48,0.12,-0.12,-0.12,0.15,9.36,9.36,9.35
33.89,9.48,0.12,9.48,0.13,-0.13,-0.13,0.14,9.35,9.35,9.36
34.23,9.48,0.14,9.48,0.13,-0.14,-0.15,0.12,9.34,9.34,9.34
34.57,9.48,0.14,9.48,0.14,-0.14,-0.16,0.11,9.33,9.33,9.34
34.92,9.48,0.15,9.48,0.14,-0.15,-0.17,0.09,9.33,9.33,9.33
35.27,9.48,0.14,9.48,0.15,-0.14,-0.19,0.07,9.33,9.34,9.34
35.62,9.48,0.16,9.48,0.15,-0.14,-0.20,0.05,9.34,9.34,9.32
35.97,9.48,0.16,9.47,0.15,-0.14,-0.22,0.03,9.34,9.33,9.32
36.33,9.45,0.15,9.45,0.14,-0.14,-0.23,0.01,9.31,9.31,9.30
36.70,9.42,0.13,9.42,0.13,-0.14,-0.24,-0.01,9.28,9.29,9.29
37.06,9.40,0.13,9.40,0.13,-0.14,-0.26,-0.03,9.26,9.26,9.27
37.43,9.39,0.14,9.39,0.13,-0.15,-0.27,-0.05,9.24,9.24,9.25
37.81,9.38,0.15,9.38,0.15,-0.16,-0.28,-0.07,9.22,9.22,9.23
38.19,9.38,0.18,9.38,0.17,-0.18,-0.30,-0.10,9.20,9.20,9.20
38.57,9.38,0.20,9.38,0.20,-0.20,-0.31,-0.12,9.18,9.18,9.18
38.95,9.38,0.23,9.38,0.23,-0.22,-0.32,-0.14,9.15,9.15,9.15
39.34,9.38,0.27,9.38,0.26,-0.25,-0.34,-0.17,9.12,9.12,9.11
39.74,9.38,0.29,9.38,0.29,-0.28,-0.35,-0.19,9.09,9.09,9.09
40.14,9.38,0.32,9.38,0.32,-0.31,-0.36,-0.22,9.06,9.06,9.06
40.54,9.38,0.34,9.38,0.34,-0.34,-0.38,-0.24,9.03,9.03,9.04
40.94,9.38,0.37,9.38,0.37,-0.37,-0.39,-0.27,9.01,9.01,9.01
41.35,9.38,0.39,9.38,0.39,-0.40,-0.41,-0.30,8.98,8.98,8.99
41.76,9.38,0.43,9.38,0.42,-0.42,-0.42,-0.32,8.96,8.96,8.95
42.18,9.38,0.45,9.38,0.45,-0.44,-0.43,-0.35,8.94,8.95,8.93
42.60,9.38,0.47,9.38,0.47,-0.45,-0.45,-0.37,8.93,8.93,8.91
43.03,9.38,0.50,9.36,0.48,-0.47,-0.46,-0.40,8.91,8.89,8.88
43.46,9.33,0.48,9.33,0.48,-0.48,-0.48,-0.43,8.85,8.85,8.85
43.90,9.29,0.46,9.30,0.48,-0.49,-0.49,-0.46,8.79,8.81,8.83
44.33,9.28,0.49,9.28,0.48,-0.51,-0.51,-0.49,8.77,8.77,8.79
44.78,9.28,0.52,9.28,0.51,-0.52,-0.52,-0.51,8.76,8.76,8.76
45.23,9.28,0.53,9.28,0.54,-0.53,-0.54,-0.54,8.75,8.75,8.75
45.68,9.28,0.58,9.28,0.57,-0.55,-0.55,-0.57,8.73,8.73,8.70
46.13,9.27,0.61,9.25,0.59,-0.57,-0.57,-0.60,8.70,8.69,8.66
46.60,9.22,0.59,9.22,0.59,-0.59,-0.58,-0.63,8.63,8.63,8.63
47.06,9.18,0.59,9.19,0.60,-0.62,-0.60,-0.66,8.56,8.57,8.59
47.53,9.18,0.62,9.17,0.62,-0.65,-0.61,-0.69,8.52,8.52,8.56
48.01,9.18,0.68,9.17,0.67,-0.69,-0.63,-0.72,8.49,8.49,8.50
48.49,9.18,0.73,9.18,0.72,-0.72,-0.64,-0.75,8.46,8.46,8.45
48.97,9.18,0.77,9.18,0.77,-0.75,-0.66,-0.78,8.42,8.42,8.41
49.46,9.17,0.80,9.17,0.81,-0.79,-0.67,-0.81,8.38,8.38,8.37
49.96,9.16,0.86,9.15,0.84,-0.82,-0.69,-0.85,8.34,8.33,8.30
50.46,9.12,0.86,9.12,0.85,-0.85,-0.71,-0.88,8.27,8.27,8.26
50.96,9.08,0.86,9.09,0.87,-0.87,-0.72,-0.91,8.21,8.22,8.22
51.47,9.06,0.88,9.06,0.88,-0.89,-0.74,-0.94,8.17,8.17,8.18
51.99,9.04,0.91,9.03,0.90,-0.90,-0.76,-0.97,8.14,8.13,8.13
52.51,9.01,0.92,9.01,0.91,-0.91,-0.77,-1.00,8.10,8.09,8.09
53.03,8.98,0.92,8.98,0.93,-0.93,-0.79,-1.03,8.05,8.05,8.06
53.56,8.95,0.95,8.95,0.94,-0.95,-0.81,-1.07,8.00,8.00,8.00
54.10,8.93,0.98,8.92,0.97,-0.98,-0.83,-1.10,7.95,7.94,7.95
54.64,8.90,0.99,8.90,1.00,-1.01,-0.84,-1.13,7.89,7.89,7.91
55.18,8.88,1.03,8.88,1.03,-1.04,-0.86,-1.16,7.83,7.84,7.85
55.74,8.88,1.08,8.88,1.07,-1.07,-0.88,-1.18,7.81,7.81,7.80
56.29,8.88,1.11,8.88,1.12,-1.09,-0.90,-1.21,7.79,7.79,7.77
56.86,8.88,1.15,8.87,1.14,-1.10,-0.92,-1.24,7.77,7.76,7.73
57.42,8.84,1.17,8.83,1.15,-1.12,-0.93,-1.27,7.72,7.71,7.67
58.00,8.78,1.14,8.78,1.14,-1.13,-0.95,-1.29,7.65,7.65,7.64
58.58,8.72,1.11,8.72,1.12,-1.15,-0.97,-1.32,7.57,7.58,7.61
59.16,8.68,1.11,8.69,1.12,-1.16,-0.99,-1.34,7.51,7.52,7.57
59.76,8.68,1.15,8.68,1.16,-1.18,-1.01,-1.36,7.49,7.50,7.53
60.35,8.68,1.22,8.67,1.21,-1.21,-1.03,-1.39,7.47,7.47,7.46
60.96,8.68,1.27,8.66,1.25,-1.24,-1.05,-1.41,7.44,7.42,7.41
61.57,8.62,1.28,8.63,1.29,-1.27,-1.07,-1.43,7.35,7.36,7.34
62.18,8.58,1.31,8.60,1.32,-1.31,-1.09,-1.44,7.27,7.29,7.27
62.80,8.58,1.37,8.57,1.36,-1.34,-1.11,-1.46,7.24,7.23,7.21
63.43,8.55,1.40,8.53,1.38,-1.37,-1.13,-1.47,7.18,7.17,7.15
64.07,8.49,1.39,8.49,1.39,-1.39,-1.15,-1.49,7.10,7.10,7.10
64.71,8.43,1.39,8.43,1.40,-1.41,-1.17,-1.50,7.02,7.02,7.04
65.35,8.39,1.41,8.40,1.41,-1.43,-1.20,-1.51,6.95,6.96,6.98
66.01,8.38,1.46,8.38,1.45,-1.46,-1.22,-1.52,6.91,6.92,6.92
66.67,8.38,1.50,8.36,1.50,-1.50,-1.24,-1.53,6.88,6.87,6.88
67.33,8.35,1.55,8.34,1.53,-1.53,-1.26,-1.54,6.82,6.81,6.80
68.01,8.30,1.55,8.31,1.56,-1.56,-1.28,-1.55,6.73,6.74,6.75
68.69,8.27,1.59,8.29,1.60,-1.60,-1.31,-1.56,6.67,6.69,6.68
69.37,8.28,1.65,8.28,1.65,-1.63,-1.33,-1.57,6.64,6.65,6.63
70.07,8.29,1.73,8.26,1.69,-1.67,-1.35,-1.57,6.62,6.59,6.56
70.77,8.21,1.71,8.20,1.70,-1.70,-1.37,-1.58,6.51,6.50,6.50
71.48,8.12,1.69,8.13,1.70,-1.73,-1.40,-1.58,6.39,6.41,6.43
72.19,8.06,1.70,8.08,1.72,-1.75,-1.42,-1.59,6.31,6.34,6.36
72.91,8.07,1.77,8.07,1.77,-1.77,-1.44,-1.60,6.30,6.30,6.30
73.64,8.08,1.85,8.05,1.82,-1.79,-1.47,-1.60,6.29,6.26,6.23
74.38,8.02,1.85,8.00,1.83,-1.81,-1.49,-1.61,6.21,6.19,6.17
75.12,7.90,1.80,7.93,1.82,-1.82,-1.52,-1.62,6.07,6.11,6.10
75.87,7.86,1.80,7.87,1.82,-1.84,-1.54,-1.63,6.01,6.03,6.06
76.63,7.86,1.87,7.85,1.85,-1.86,-1.57,-1.64,6.00,5.99,5.99
77.40,7.84,1.90,7.82,1.88,-1.87,-1.59,-1.65,5.97,5.95,5.94
78.17,7.79,1.91,7.78,1.89,-1.88,-1.62,-1.66,5.90,5.90,5.88
78.95,7.72,1.88,7.73,1.90,-1.90,-1.64,-1.67,5.82,5.83,5.84
79.74,7.68,1.90,7.69,1.91,-1.92,-1.67,-1.68,5.76,5.77,5.78
80.54,7.67,1.95,7.66,1.93,-1.94,-1.69,-1.70,5.72,5.71,5.72
81.35,7.64,1.97,7.63,1.96,-1.96,-1.72,-1.71,5.67,5.66,5.67
82.16,7.59,1.97,7.60,1.99,-1.98,-1.74,-1.73,5.61,5.63,5.62
82.98,7.57,2.01,7.58,2.01,-1.99,-1.77,-1.75,5.57,5.58,5.56
83.81,7.56,2.06,7.54,2.04,-2.01,-1.80,-1.76,5.54,5.52,5.50
84.65,7.50,2.06,7.48,2.04,-2.04,-1.82,-1.79,5.46,5.44,5.44
85.50,7.40,2.03,7.41,2.04,-2.06,-1.85,-1.81,5.34,5.35,5.37
86.35,7.34,2.03,7.37,2.06,-2.08,-1.87,-1.83,5.25,5.29,5.31
87.22,7.36,2.10,7.34,2.08,-2.11,-1.90,-1.85,5.25,5.23,5.26
88.09,7.36,2.17,7.33,2.13,-2.12,-1.93,-1.88,5.23,5.20,5.19
88.97,7.27,2.13,7.30,2.17,-2.14,-1.95,-1.91,5.12,5.16,5.14
89.86,7.28,2.22,7.25,2.19,-2.16,-1.98,-1.94,5.12,5.09,5.06
90.76,7.20,2.20,7.20,2.20,-2.18,-2.01,-1.97,5.01,5.02,5.00
91.66,7.14,2.21,7.15,2.21,-2.21,-2.03,-2.00,4.93,4.94,4.93
92.58,7.09,2.22,7.07,2.20,-2.24,-2.06,-2.03,4.85,4.84,4.87
93.51,7.02,2.22,7.03,2.23,-2.26,-2.09,-2.07,4.76,4.77,4.80
94.44,6.98,2.25,6.99,2.27,-2.28,-2.11,-2.11,4.69,4.71,4.73
95.39,6.98,2.33,6.97,2.31,-2.31,-2.14,-2.14,4.67,4.66,4.65
96.34,6.95,2.38,6.94,2.36,-2.34,-2.17,-2.18,4.61,4.60,4.57
97.30,6.88,2.39,6.89,2.40,-2.37,-2.20,-2.22,4.51,4.52,4.49
98.28,6.82,2.42,6.80,2.40,-2.40,-2.22,-2.26,4.42,4.41,4.40
99.26,6.72,2.41,6.71,2.40,-2.42,-2.25,-2.30,4.30,4.29,4.31
100.25,6.62,2.39,6.66,2.43,-2.44,-2.28,-2.35,4.18,4.22,4.23
101.25,6.61,2.45,6.61,2.46,-2.46,-2.30,-2.39,4.15,4.16,4.16
102.27,6.62,2.55,6.56,2.49,-2.47,-2.33,-2.43,4.15,4.09,4.07
103.29,6.49,2.50,6.48,2.49,-2.48,-2.35,-2.48,4.01,4.00,3.99
104.32,6.37,2.45,6.40,2.48,-2.49,-2.38,-2.52,3.88,3.91,3.92
105.37,6.30,2.46,6.34,2.50,-2.50,-2.41,-2.57,3.79,3.83,3.84
106.42,6.33,2.58,6.28,2.52,-2.52,-2.43,-2.61,3.81,3.76,3.75
107.48,6.24,2.58,6.19,2.52,-2.52,-2.46,-2.66,3.71,3.67,3.66
108.56,6.05,2.45,6.11,2.52,-2.53,-2.48,-2.70,3.52,3.58,3.60
109.64,6.00,2.49,6.05,2.54,-2.53,-2.51,-2.74,3.46,3.51,3.51
110.74,6.04,2.61,5.99,2.55,-2.54,-2.53,-2.78,3.49,3.44,3.43
111.85,6.00,2.64,5.93,2.57,-2.55,-2.56,-2.82,3.44,3.37,3.36
112.97,5.78,2.49,5.86,2.57,-2.56,-2.58,-2.86,3.21,3.29,3.29
114.10,5.76,2.54,5.78,2.57,-2.58,-2.61,-2.90,3.18,3.20,3.22
115.24,5.78,2.64,5.73,2.58,-2.61,-2.63,-2.93,3.17,3.12,3.14
116.39,5.71,2.65,5.70,2.63,-2.64,-2.65,-2.96,3.07,3.06,3.06
117.55,5.63,2.63,5.65,2.66,-2.66,-2.68,-2.99,2.96,2.99,3.00
118.73,5.60,2.68,5.61,2.68,-2.69,-2.70,-3.02,2.91,2.92,2.92
119.92,5.60,2.74,5.60,2.73,-2.72,-2.72,-3.04,2.88,2.88,2.86
121.12,5.60,2.79,5.58,2.78,-2.75,-2.74,-3.06,2.85,2.83,2.81
122.33,5.55,2.81,5.55,2.80,-2.78,-2.76,-3.08,2.77,2.78,2.74
123.55,5.48,2.79,5.47,2.79,-2.80,-2.78,-3.09,2.68,2.68,2.69
124.79,5.43,2.80,5.40,2.78,-2.81,-2.80,-3.10,2.62,2.60,2.63
126.03,5.30,2.74,5.38,2.81,-2.81,-2.82,-3.10,2.49,2.57,2.56
127.29,5.36,2.86,5.34,2.84,-2.82,-2.84,-3.11,2.54,2.52,2.50
128.57,5.37,2.93,5.27,2.84,-2.82,-2.86,-3.10,2.55,2.45,2.44
129.85,5.15,2.78,5.21,2.83,-2.82,-2.88,-3.10,2.32,2.38,2.37
131.15,5.08,2.77,5.12,2.80,-2.83,-2.89,-3.09,2.25,2.29,2.31
132.46,5.08,2.83,5.04,2.80,-2.84,-2.91,-3.08,2.24,2.20,2.25
133.79,5.04,2.85,5.04,2.84,-2.85,-2.93,-3.07,2.19,2.19,2.19
135.12,4.99,2.86,5.02,2.88,-2.85,-2.94,-3.05,2.14,2.17,2.13
136.48,5.00,2.91,4.96,2.88,-2.86,-2.96,-3.03,2.14,2.11,2.09
137.84,4.91,2.88,4.88,2.86,-2.87,-2.97,-3.01,2.04,2.02,2.03
139.22,4.79,2.84,4.84,2.87,-2.87,-2.98,-2.98,1.91,1.96,1.95
140.61,4.74,2.83,4.78,2.88,-2.88,-2.99,-2.96,1.86,1.90,1.91
142.02,4.83,2.98,4.72,2.87,-2.88,-3.00,-2.93,1.95,1.84,1.85
143.44,4.65,2.87,4.67,2.88,-2.87,-3.01,-2.91,1.78,1.80,1.78
144.87,4.53,2.80,4.62,2.89,-2.87,-3.02,-2.88,1.66,1.76,1.73
146.32,4.61,2.93,4.55,2.87,-2.87,-3.03,-2.85,1.73,1.67,1.68
147.78,4.55,2.93,4.49,2.86,-2.89,-3.04,-2.82,1.66,1.60,1.62
149.26,4.38,2.81,4.42,2.85,-2.90,-3.05,-2.79,1.48,1.52,1.57
150.75,4.32,2.82,4.38,2.87,-2.90,-3.05,-2.76,1.42,1.48,1.50
152.26,4.38,2.92,4.37,2.91,-2.90,-3.06,-2.73,1.48,1.47,1.46
153.78,4.45,3.05,4.35,2.95,-2.90,-3.06,-2.70,1.55,1.45,1.40
155.32,4.27,2.92,4.32,2.97,-2.89,-3.07,-2.68,1.38,1.42,1.35
156.88,4.17,2.88,4.21,2.92,-2.89,-3.07,-2.65,1.28,1.32,1.29
158.44,4.17,2.94,4.08,2.85,-2.89,-3.07,-2.63,1.28,1.19,1.23
160.03,3.96,2.79,4.01,2.84,-2.89,-3.07,-2.60,1.07,1.12,1.17
161.63,3.92,2.81,3.96,2.85,-2.89,-3.07,-2.58,1.03,1.06,1.11
163.24,3.95,2.91,3.91,2.87,-2.89,-3.07,-2.56,1.05,1.02,1.04
164.88,3.92,2.93,3.90,2.91,-2.90,-3.07,-2.54,1.02,1.00,0.99
166.53,3.86,2.94,3.86,2.94,-2.91,-3.06,-2.52,0.95,0.95,0.92
168.19,3.79,2.92,3.82,2.96,-2.93,-3.06,-2.51,0.86,0.90,0.87
169.87,3.79,2.98,3.76,2.96,-2.94,-3.05,-2.49,0.85,0.82,0.81
171.57,3.73,2.99,3.68,2.93,-2.93,-3.05,-2.48,0.79,0.74,0.74
173.29,3.56,2.88,3.63,2.94,-2.92,-3.04,-2.47,0.63,0.70,0.68
175.02,3.52,2.89,3.54,2.91,-2.91,-3.03,-2.46,0.61,0.63,0.63
176.77,3.56,2.98,3.45,2.88,-2.89,-3.02,-2.46,0.66,0.56,0.58
178.54,3.34,2.82,3.40,2.88,-2.88,-3.01,-2.45,0.46,0.51,0.52
180.32,3.30,2.84,3.33,2.86,-2.88,-3.00,-2.45,0.42,0.45,0.46
182.13,3.30,2.88,3.26,2.85,-2.88,-2.99,-2.45,0.42,0.38,0.42
183.95,3.25,2.88,3.24,2.87,-2.89,-2.98,-2.45,0.36,0.35,0.37
185.79,3.21,2.89,3.22,2.90,-2.90,-2.96,-2.45,0.31,0.33,0.32
187.65,3.18,2.90,3.21,2.93,-2.91,-2.95,-2.46,0.27,0.30,0.28
189.52,3.23,3.00,3.17,2.93,-2.91,-2.93,-2.47,0.31,0.26,0.23
191.42,3.14,2.94,3.13,2.94,-2.91,-2.92,-2.48,0.22,0.22,0.20
193.33,3.02,2.87,3.09,2.94,-2.91,-2.90,-2.49,0.11,0.18,0.15
195.27,3.06,2.96,3.00,2.89,-2.90,-2.88,-2.50,0.16,0.10,0.10
197.22,2.95,2.90,2.93,2.88,-2.89,-2.86,-2.51,0.06,0.04,0.05
199.19,2.82,2.80,2.88,2.87,-2.88,-2.84,-2.52,-0.06,0.00,0.02
201.18,2.84,2.87,2.82,2.84,-2.87,-2.82,-2.54,-0.03,-0.05,-0.03
203.19,2.81,2.87,2.78,2.84,-2.87,-2.80,-2.56,-0.06,-0.09,-0.06
205.23,2.75,2.85,2.75,2.84,-2.86,-2.78,-2.57,-0.11,-0.11,-0.10
207.28,2.69,2.82,2.73,2.86,-2.85,-2.76,-2.59,-0.16,-0.12,-0.13
209.35,2.70,2.87,2.70,2.87,-2.84,-2.73,-2.61,-0.14,-0.13,-0.17
211.44,2.73,2.95,2.63,2.85,-2.82,-2.71,-2.63,-0.09,-0.19,-0.22
213.56,2.53,2.78,2.58,2.83,-2.80,-2.69,-2.64,-0.27,-0.22,-0.25
215.69,2.42,2.71,2.49,2.78,-2.78,-2.66,-2.66,-0.36,-0.28,-0.29
217.85,2.49,2.81,2.38,2.71,-2.75,-2.63,-2.68,-0.26,-0.37,-0.32
220.03,2.32,2.69,2.31,2.67,-2.72,-2.61,-2.69,-0.41,-0.41,-0.37
222.23,2.19,2.58,2.29,2.68,-2.69,-2.58,-2.71,-0.50,-0.40,-0.39
224.45,2.26,2.68,2.25,2.67,-2.67,-2.55,-2.72,-0.41,-0.42,-0.42
226.70,2.32,2.77,2.22,2.66,-2.64,-2.52,-2.73,-0.33,-0.43,-0.45
228.96,2.16,2.63,2.17,2.64,-2.62,-2.49,-2.74,-0.46,-0.44,-0.47
231.25,2.03,2.51,2.12,2.61,-2.59,-2.46,-2.75,-0.56,-0.47,-0.48
233.57,2.08,2.59,2.05,2.55,-2.56,-2.43,-2.75,-0.48,-0.52,-0.51
235.90,2.10,2.62,2.00,2.52,-2.53,-2.40,-2.75,-0.43,-0.52,-0.52
238.26,1.88,2.42,1.98,2.51,-2.49,-2.37,-2.75,-0.61,-0.51,-0.54
240.64,1.90,2.43,1.90,2.43,-2.44,-2.34,-2.75,-0.55,-0.55,-0.53
243.05,1.91,2.45,1.82,2.37,-2.40,-2.31,-2.74,-0.49,-0.58,-0.54
245.48,1.75,2.31,1.82,2.37,-2.36,-2.28,-2.73,-0.61,-0.54,-0.56
247.93,1.75,2.32,1.78,2.34,-2.32,-2.24,-2.71,-0.58,-0.55,-0.57
250.41,1.81,2.37,1.74,2.30,-2.30,-2.21,-2.69,-0.49,-0.56,-0.56
252.92,1.70,2.26,1.69,2.26,-2.28,-2.18,-2.67,-0.58,-0.59,-0.56
255.45,1.62,2.20,1.64,2.21,-2.26,-2.14,-2.64,-0.64,-0.62,-0.58
258.00,1.57,2.16,1.62,2.21,-2.24,-2.11,-2.61,-0.67,-0.62,-0.59
260.58,1.65,2.25,1.63,2.23,-2.20,-2.07,-2.58,-0.56,-0.58,-0.60
263.19,1.68,2.29,1.62,2.23,-2.16,-2.04,-2.54,-0.48,-0.55,-0.61
265.82,1.54,2.17,1.56,2.18,-2.12,-2.00,-2.50,-0.58,-0.56,-0.63
268.48,1.44,2.07,1.46,2.09,-2.08,-1.97,-2.45,-0.64,-0.62,-0.63
271.16,1.35,2.00,1.36,2.00,-2.04,-1.93,-2.41,-0.69,-0.68,-0.65
273.87,1.30,1.96,1.28,1.94,-1.99,-1.90,-2.36,-0.69,-0.71,-0.66
276.61,1.22,1.90,1.21,1.89,-1.94,-1.86,-2.30,-0.72,-0.73,-0.68
279.38,1.15,1.86,1.17,1.87,-1.88,-1.82,-2.25,-0.74,-0.71,-0.71
282.17,1.13,1.84,1.16,1.87,-1.84,-1.79,-2.19,-0.71,-0.68,-0.71
284.99,1.16,1.87,1.11,1.83,-1.80,-1.75,-2.13,-0.64,-0.68,-0.71
287.84,1.12,1.83,1.06,1.77,-1.76,-1.71,-2.07,-0.64,-0.70,-0.71
290.72,0.91,1.64,1.00,1.72,-1.71,-1.68,-2.00,-0.81,-0.71,-0.73
293.63,0.95,1.67,0.95,1.68,-1.68,-1.64,-1.94,-0.73,-0.72,-0.72
296.57,0.97,1.69,0.91,1.63,-1.64,-1.60,-1.88,-0.68,-0.73,-0.72
299.53,0.89,1.62,0.87,1.59,-1.61,-1.56,-1.81,-0.72,-0.74,-0.73
302.53,0.78,1.50,0.81,1.54,-1.58,-1.52,-1.74,-0.80,-0.77,-0.72
305.55,0.75,1.48,0.80,1.52,-1.55,-1.49,-1.68,-0.81,-0.76,-0.73
308.61,0.84,1.56,0.81,1.53,-1.53,-1.45,-1.61,-0.69,-0.72,-0.72
311.69,0.86,1.60,0.81,1.54,-1.50,-1.41,-1.54,-0.64,-0.69,-0.74
314.81,0.76,1.49,0.77,1.51,-1.46,-1.37,-1.47,-0.70,-0.69,-0.73
317.96,0.67,1.42,0.68,1.43,-1.42,-1.33,-1.40,-0.75,-0.73,-0.75
321.14,0.62,1.36,0.63,1.37,-1.37,-1.29,-1.34,-0.75,-0.75,-0.74
324.35,0.56,1.31,0.57,1.32,-1.32,-1.25,-1.27,-0.76,-0.74,-0.75
327.59,0.56,1.30,0.49,1.24,-1.25,-1.21,-1.20,-0.69,-0.76,-0.74
330.87,0.39,1.14,0.42,1.17,-1.17,-1.17,-1.14,-0.78,-0.75,-0.75
334.18,0.30,1.06,0.35,1.10,-1.10,-1.13,-1.07,-0.80,-0.75,-0.76
337.52,0.33,1.08,0.28,1.04,-1.04,-1.09,-1.00,-0.71,-0.76,-0.75
340.90,0.25,1.01,0.24,0.99,-0.99,-1.05,-0.94,-0.74,-0.75,-0.76
344.30,0.18,0.93,0.17,0.92,-0.95,-1.01,-0.87,-0.77,-0.77,-0.75
347.75,0.09,0.83,0.12,0.86,-0.90,-0.97,-0.81,-0.81,-0.79,-0.74
351.23,0.08,0.84,0.10,0.85,-0.86,-0.93,-0.75,-0.78,-0.76,-0.76
354.74,0.13,0.87,0.10,0.84,-0.82,-0.89,-0.68,-0.69,-0.72,-0.74
358.28,0.10,0.84,0.08,0.82,-0.78,-0.85,-0.62,-0.68,-0.70,-0.74
361.87,0.03,0.77,0.03,0.77,-0.74,-0.81,-0.56,-0.71,-0.70,-0.74
365.49,-0.05,0.68,-0.05,0.68,-0.69,-0.77,-0.50,-0.74,-0.73,-0.73
369.14,-0.10,0.62,-0.10,0.62,-0.64,-0.73,-0.44,-0.74,-0.74,-0.72
372.83,-0.15,0.56,-0.13,0.59,-0.59,-0.69,-0.37,-0.74,-0.72,-0.71
376.56,-0.14,0.58,-0.18,0.53,-0.54,-0.65,-0.31,-0.68,-0.72,-0.72
380.33,-0.22,0.50,-0.24,0.48,-0.49,-0.60,-0.26,-0.71,-0.73,-0.72
384.13,-0.33,0.38,-0.28,0.43,-0.44,-0.56,-0.20,-0.77,-0.72,-0.71
387.97,-0.33,0.38,-0.33,0.38,-0.39,-0.52,-0.14,-0.72,-0.72,-0.71
391.85,-0.33,0.39,-0.36,0.36,-0.34,-0.48,-0.08,-0.67,-0.70,-0.72
395.77,-0.40,0.33,-0.39,0.33,-0.29,-0.43,-0.02,-0.70,-0.68,-0.73
399.73,-0.44,0.29,-0.46,0.26,-0.25,-0.39,0.03,-0.69,-0.72,-0.73
403.72,-0.55,0.17,-0.54,0.19,-0.21,-0.35,0.09,-0.77,-0.76,-0.72
407.76,-0.62,0.12,-0.60,0.13,-0.18,-0.31,0.14,-0.80,-0.78,-0.74
411.84,-0.64,0.11,-0.64,0.11,-0.14,-0.26,0.20,-0.78,-0.77,-0.75
415.96,-0.64,0.11,-0.65,0.11,-0.09,-0.22,0.25,-0.73,-0.74,-0.75
420.12,-0.64,0.12,-0.66,0.09,-0.05,-0.18,0.30,-0.69,-0.71,-0.76
424.32,-0.70,0.05,-0.70,0.05,-0.01,-0.13,0.36,-0.71,-0.70,-0.75
428.56,-0.75,-0.02,-0.75,-0.02,0.03,-0.09,0.41,-0.72,-0.72,-0.73
432.85,-0.80,-0.09,-0.80,-0.09,0.06,-0.04,0.46,-0.74,-0.74,-0.71
437.18,-0.83,-0.13,-0.83,-0.14,0.10,-0.00,0.50,-0.74,-0.74,-0.70
441.55,-0.84,-0.17,-0.83,-0.17,0.13,0.04,0.55,-0.71,-0.70,-0.67
445.96,-0.81,-0.18,-0.81,-0.17,0.17,0.09,0.60,-0.64,-0.63,-0.63
450.42,-0.76,-0.17,-0.77,-0.18,0.21,0.13,0.64,-0.55,-0.56,-0.59
454.93,-0.73,-0.19,-0.74,-0.21,0.24,0.18,0.68,-0.49,-0.50,-0.54
459.48,-0.73,-0.25,-0.73,-0.25,0.27,0.22,0.72,-0.46,-0.46,-0.48
464.07,-0.73,-0.32,-0.72,-0.30,0.30,0.27,0.76,-0.43,-0.42,-0.41
468.71,-0.71,-0.35,-0.71,-0.35,0.34,0.32,0.80,-0.37,-0.37,-0.36
473.40,-0.67,-0.37,-0.69,-0.40,0.39,0.36,0.83,-0.29,-0.31,-0.30
478.13,-0.69,-0.45,-0.67,-0.42,0.44,0.41,0.87,-0.26,-0.23,-0.24
482.91,-0.66,-0.47,-0.66,-0.46,0.49,0.45,0.90,-0.18,-0.17,-0.19
487.74,-0.63,-0.47,-0.68,-0.52,0.53,0.50,0.93,-0.10,-0.14,-0.16
492.62,-0.71,-0.59,-0.70,-0.58,0.57,0.55,0.95,-0.14,-0.13,-0.12
497.55,-0.75,-0.67,-0.73,-0.64,0.61,0.59,0.98,-0.14,-0.12,-0.08
502.52,-0.73,-0.67,-0.73,-0.68,0.64,0.64,1.00,-0.09,-0.09,-0.06
507.55,-0.71,-0.68,-0.72,-0.68,0.68,0.69,1.02,-0.03,-0.04,-0.03
512.62,-0.69,-0.67,-0.72,-0.70,0.71,0.73,1.04,0.02,-0.00,-0.02
517.75,-0.75,-0.74,-0.74,-0.73,0.75,0.78,1.05,-0.00,0.01,-0.01
522.93,-0.79,-0.78,-0.77,-0.76,0.78,0.83,1.07,-0.01,0.01,-0.01
