frequency,raw,error,smoothed,error_smoothed,equalization,parametric_eq,fixed_band_eq,equalized_raw,equalized_smoothed,target
20.00,8.89,0.75,8.83,0.69,-0.69,-0.44,-0.54,8.20,8.13,8.14
20.20,8.89,0.76,8.86,0.73,-0.73,-0.45,-0.56,8.16,8.13,8.13
20.40,8.89,0.76,8.89,0.77,-0.77,-0.45,-0.57,8.13,8.13,8.13
20.61,8.89,0.76,8.92,0.80,-0.80,-0.46,-0.59,8.09,8.12,8.13
20.81,8.89,0.78,8.95,0.83,-0.83,-0.47,-0.60,8.06,8.12,8.11
21.02,8.89,0.78,8.97,0.86,-0.86,-0.48,-0.62,8.04,8.12,8.11
21.23,8.94,0.83,8.99,0.88,-0.88,-0.49,-0.63,8.06,8.11,8.11
21.44,8.99,0.87,9.02,0.90,-0.90,-0.50,-0.65,8.09,8.11,8.12
21.66,9.04,0.93,9.04,0.93,-0.93,-0.51,-0.67,8.12,8.11,8.11
21.87,9.09,0.97,9.05,0.94,-0.94,-0.52,-0.68,8.15,8.11,8.12
22.09,9.12,1.01,9.07,0.96,-0.96,-0.53,-0.70,8.16,8.11,8.11
22.31,9.12,1.00,9.08,0.98,-0.98,-0.54,-0.72,8.15,8.11,8.12
22.54,9.12,1.01,9.10,0.99,-0.99,-0.55,-0.74,8.13,8.11,8.11
22.76,9.12,1.01,9.12,1.00,-1.00,-0.56,-0.76,8.12,8.11,8.11
22.99,9.12,1.01,9.13,1.01,-1.01,-0.57,-0.78,8.11,8.11,8.11
23.22,9.12,1.01,9.13,1.02,-1.02,-0.58,-0.80,8.11,8.12,8.11
23.45,9.12,1.00,9.14,1.02,-1.02,-0.59,-0.82,8.10,8.12,8.12
23.69,9.12,1.00,9.13,1.01,-1.01,-0.60,-0.84,8.11,8.12,8.12
23.92,9.12,1.00,9.13,1.01,-1.01,-0.61,-0.86,8.11,8.12,8.12
24.16,9.12,0.99,9.13,1.00,-1.00,-0.63,-0.88,8.12,8.13,8.13
24.40,9.12,0.98,9.12,0.99,-0.99,-0.64,-0.90,8.13,8.13,8.14
24.65,9.12,0.98,9.11,0.98,-0.98,-0.65,-0.93,8.14,8.13,8.14
24.89,9.12,0.98,9.11,0.98,-0.98,-0.66,-0.95,8.15,8.13,8.14
25.14,9.12,0.99,9.11,0.97,-0.97,-0.67,-0.97,8.15,8.13,8.13
25.39,9.12,0.98,9.11,0.97,-0.97,-0.69,-1.00,8.15,8.14,8.14
25.65,9.12,0.98,9.11,0.98,-0.98,-0.70,-1.02,8.14,8.14,8.14
25.91,9.12,0.99,9.12,0.99,-0.99,-0.71,-1.04,8.13,8.14,8.13
26.16,9.12,0.98,9.14,1.00,-1.00,-0.72,-1.07,8.12,8.13,8.14
26.43,9.12,0.98,9.15,1.02,-1.02,-0.74,-1.09,8.10,8.13,8.14
26.69,9.12,0.98,9.17,1.04,-1.04,-0.75,-1.11,8.08,8.13,8.14
26.96,9.12,1.00,9.19,1.07,-1.07,-0.77,-1.14,8.06,8.13,8.12
27.23,9.17,1.05,9.22,1.09,-1.09,-0.78,-1.16,8.08,8.13,8.12
27.50,9.24,1.12,9.24,1.12,-1.12,-0.79,-1.18,8.13,8.12,8.12
27.77,9.30,1.18,9.26,1.14,-1.14,-0.81,-1.20,8.16,8.12,8.13
28.05,9.35,1.23,9.28,1.17,-1.17,-0.82,-1.23,8.19,8.12,8.12
28.33,9.35,1.24,9.30,1.19,-1.19,-0.84,-1.25,8.16,8.11,8.11
28.62,9.35,1.25,9.32,1.22,-1.22,-0.85,-1.27,8.14,8.11,8.10
28.90,9.35,1.24,9.34,1.24,-1.24,-0.87,-1.29,8.11,8.10,8.11
29.19,9.35,1.25,9.35,1.26,-1.26,-0.88,-1.31,8.09,8.09,8.10
29.48,9.35,1.27,9.36,1.28,-1.28,-0.90,-1.33,8.08,8.08,8.08
29.78,9.35,1.27,9.37,1.29,-1.29,-0.92,-1.34,8.06,8.08,8.08
30.08,9.35,1.27,9.37,1.30,-1.30,-0.93,-1.36,8.05,8.07,8.08
30.38,9.35,1.29,9.36,1.31,-1.31,-0.95,-1.37,8.04,8.06,8.06
30.68,9.35,1.30,9.36,1.31,-1.31,-0.97,-1.39,8.04,8.05,8.05
30.99,9.35,1.31,9.35,1.32,-1.32,-0.98,-1.40,8.04,8.04,8.04
31.30,9.35,1.32,9.35,1.32,-1.32,-1.00,-1.41,8.03,8.03,8.03
31.61,9.35,1.33,9.35,1.33,-1.33,-1.02,-1.42,8.02,8.02,8.02
31.93,9.35,1.35,9.35,1.34,-1.34,-1.04,-1.43,8.01,8.01,8.00
32.24,9.35,1.34,9.35,1.35,-1.35,-1.05,-1.44,8.01,8.01,8.01
32.57,9.35,1.36,9.35,1.35,-1.35,-1.07,-1.45,8.00,8.00,7.99
32.89,9.35,1.36,9.35,1.36,-1.36,-1.09,-1.46,7.99,7.99,7.99
33.22,9.35,1.36,9.35,1.36,-1.36,-1.11,-1.46,7.99,7.99,7.99
33.55,9.35,1.37,9.35,1.37,-1.37,-1.13,-1.47,7.98,7.98,7.98
33.89,9.35,1.36,9.35,1.37,-1.37,-1.15,-1.47,7.98,7.98,7.99
34.23,9.35,1.38,9.35,1.38,-1.38,-1.17,-1.48,7.98,7.98,7.97
34.57,9.35,1.37,9.36,1.39,-1.39,-1.19,-1.48,7.96,7.97,7.98
34.92,9.35,1.38,9.37,1.40,-1.40,-1.21,-1.49,7.95,7.97,7.97
35.27,9.35,1.37,9.37,1.41,-1.41,-1.23,-1.49,7.94,7.96,7.98
35.62,9.35,1.40,9.37,1.41,-1.41,-1.25,-1.49,7.94,7.95,7.95
35.97,9.35,1.40,9.36,1.42,-1.42,-1.27,-1.50,7.94,7.94,7.95
36.33,9.35,1.41,9.35,1.42,-1.42,-1.29,-1.50,7.94,7.93,7.94
36.70,9.35,1.43,9.33,1.42,-1.42,-1.32,-1.50,7.93,7.92,7.92
37.06,9.35,1.45,9.32,1.42,-1.42,-1.34,-1.51,7.93,7.90,7.90
37.43,9.35,1.46,9.30,1.42,-1.42,-1.36,-1.51,7.93,7.88,7.89
37.81,9.35,1.49,9.28,1.42,-1.42,-1.38,-1.52,7.93,7.86,7.86
38.19,9.31,1.47,9.26,1.42,-1.42,-1.41,-1.52,7.89,7.83,7.84
38.57,9.22,1.40,9.23,1.43,-1.43,-1.43,-1.53,7.79,7.80,7.82
38.95,9.13,1.34,9.21,1.43,-1.43,-1.45,-1.54,7.70,7.78,7.79
39.34,9.12,1.38,9.19,1.44,-1.44,-1.48,-1.54,7.68,7.75,7.74
39.74,9.12,1.41,9.17,1.45,-1.45,-1.50,-1.55,7.67,7.72,7.71
40.14,9.12,1.44,9.15,1.46,-1.46,-1.52,-1.56,7.66,7.69,7.68
40.54,9.12,1.46,9.13,1.47,-1.47,-1.55,-1.57,7.65,7.66,7.66
40.94,9.12,1.50,9.12,1.49,-1.49,-1.57,-1.58,7.63,7.63,7.62
41.35,9.12,1.52,9.11,1.51,-1.51,-1.60,-1.60,7.61,7.60,7.60
41.76,9.12,1.55,9.11,1.53,-1.53,-1.62,-1.61,7.59,7.57,7.57
42.18,9.12,1.57,9.11,1.56,-1.56,-1.65,-1.63,7.56,7.54,7.55
42.60,9.12,1.60,9.11,1.60,-1.60,-1.67,-1.64,7.53,7.51,7.52
43.03,9.12,1.63,9.12,1.63,-1.63,-1.70,-1.66,7.49,7.49,7.49
43.46,9.12,1.66,9.13,1.67,-1.67,-1.73,-1.68,7.45,7.46,7.46
43.90,9.12,1.68,9.14,1.70,-1.70,-1.75,-1.70,7.42,7.43,7.44
44.33,9.12,1.72,9.14,1.74,-1.74,-1.78,-1.72,7.39,7.40,7.40
44.78,9.12,1.75,9.13,1.76,-1.76,-1.81,-1.75,7.36,7.37,7.37
45.23,9.12,1.76,9.13,1.78,-1.78,-1.83,-1.77,7.34,7.34,7.36
45.68,9.12,1.81,9.11,1.81,-1.81,-1.86,-1.80,7.32,7.31,7.31
46.13,9.12,1.85,9.10,1.83,-1.83,-1.89,-1.82,7.30,7.27,7.27
46.60,9.12,1.88,9.08,1.85,-1.85,-1.92,-1.85,7.28,7.24,7.24
47.06,9.12,1.91,9.06,1.86,-1.86,-1.94,-1.88,7.26,7.20,7.21
47.53,9.09,1.91,9.04,1.88,-1.88,-1.97,-1.91,7.21,7.16,7.18
48.01,9.07,1.95,9.02,1.90,-1.90,-2.00,-1.94,7.17,7.12,7.12
48.49,8.98,1.90,9.00,1.92,-1.92,-2.03,-1.98,7.07,7.08,7.08
48.97,8.89,1.85,8.98,1.94,-1.94,-2.06,-2.01,6.95,7.04,7.04
49.46,8.89,1.89,8.97,1.97,-1.97,-2.09,-2.05,6.92,7.00,7.00
49.96,8.89,1.95,8.95,2.00,-2.00,-2.11,-2.08,6.90,6.96,6.94
50.46,8.89,1.99,8.93,2.02,-2.02,-2.14,-2.12,6.87,6.91,6.90
50.96,8.89,2.02,8.91,2.04,-2.04,-2.17,-2.16,6.85,6.87,6.87
51.47,8.89,2.06,8.89,2.06,-2.06,-2.20,-2.19,6.83,6.82,6.83
51.99,8.89,2.11,8.86,2.09,-2.09,-2.23,-2.23,6.81,6.78,6.78
52.51,8.89,2.15,8.84,2.11,-2.11,-2.26,-2.27,6.78,6.73,6.74
53.03,8.89,2.18,8.82,2.14,-2.14,-2.29,-2.31,6.75,6.68,6.71
53.56,8.89,2.25,8.81,2.18,-2.18,-2.32,-2.35,6.71,6.64,6.64
54.10,8.87,2.28,8.81,2.21,-2.21,-2.35,-2.39,6.66,6.59,6.59
54.64,8.74,2.19,8.79,2.24,-2.24,-2.38,-2.42,6.50,6.55,6.55
55.18,8.66,2.17,8.76,2.26,-2.26,-2.41,-2.46,6.40,6.50,6.49
55.74,8.66,2.22,8.73,2.27,-2.27,-2.44,-2.50,6.39,6.46,6.44
56.29,8.66,2.26,8.70,2.29,-2.29,-2.47,-2.53,6.38,6.42,6.40
56.86,8.66,2.29,8.67,2.30,-2.30,-2.50,-2.57,6.36,6.37,6.37
57.42,8.66,2.35,8.64,2.31,-2.31,-2.53,-2.60,6.35,6.32,6.31
58.00,8.66,2.39,8.61,2.33,-2.33,-2.56,-2.63,6.33,6.27,6.27
58.58,8.66,2.42,8.58,2.35,-2.35,-2.59,-2.66,6.31,6.23,6.24
59.16,8.62,2.41,8.56,2.38,-2.38,-2.62,-2.69,6.24,6.18,6.21
59.76,8.49,2.33,8.54,2.41,-2.41,-2.65,-2.72,6.08,6.13,6.16
60.35,8.44,2.35,8.52,2.44,-2.44,-2.68,-2.74,6.00,6.08,6.09
60.96,8.44,2.40,8.50,2.48,-2.48,-2.71,-2.76,5.96,6.03,6.04
61.57,8.44,2.47,8.48,2.51,-2.51,-2.74,-2.78,5.94,5.97,5.97
62.18,8.44,2.54,8.45,2.53,-2.53,-2.76,-2.80,5.91,5.92,5.90
62.80,8.44,2.59,8.42,2.56,-2.56,-2.79,-2.81,5.88,5.86,5.85
63.43,8.44,2.65,8.39,2.59,-2.59,-2.82,-2.83,5.85,5.80,5.79
64.07,8.44,2.70,8.37,2.63,-2.63,-2.85,-2.84,5.81,5.74,5.74
64.71,8.40,2.71,8.35,2.66,-2.66,-2.88,-2.85,5.74,5.68,5.69
65.35,8.33,2.71,8.32,2.70,-2.70,-2.91,-2.85,5.63,5.62,5.62
66.01,8.21,2.65,8.30,2.74,-2.74,-2.93,-2.86,5.48,5.56,5.56
66.67,8.21,2.70,8.28,2.77,-2.77,-2.96,-2.86,5.44,5.50,5.51
67.33,8.21,2.77,8.25,2.81,-2.81,-2.99,-2.86,5.40,5.44,5.44
68.01,8.21,2.82,8.22,2.84,-2.84,-3.01,-2.86,5.37,5.38,5.39
68.69,8.21,2.89,8.18,2.87,-2.87,-3.04,-2.86,5.35,5.32,5.32
69.37,8.21,2.94,8.15,2.89,-2.89,-3.07,-2.86,5.32,5.25,5.27
70.07,8.19,2.99,8.11,2.92,-2.92,-3.09,-2.86,5.28,5.19,5.20
70.77,8.03,2.89,8.07,2.94,-2.94,-3.12,-2.85,5.09,5.13,5.14
71.48,7.98,2.92,8.04,2.97,-2.97,-3.14,-2.85,5.01,5.06,5.06
72.19,7.98,2.98,8.01,3.01,-3.01,-3.16,-2.85,4.97,5.00,5.00
72.91,7.98,3.04,7.98,3.04,-3.04,-3.19,-2.84,4.94,4.94,4.94
73.64,7.98,3.12,7.94,3.07,-3.07,-3.21,-2.84,4.92,4.88,4.86
74.38,7.92,3.12,7.90,3.08,-3.08,-3.23,-2.84,4.84,4.81,4.80
75.12,7.80,3.06,7.85,3.09,-3.09,-3.26,-2.84,4.71,4.76,4.74
75.87,7.76,3.05,7.81,3.11,-3.11,-3.28,-2.84,4.65,4.70,4.71
76.63,7.75,3.11,7.77,3.13,-3.13,-3.30,-2.84,4.62,4.65,4.64
77.40,7.75,3.16,7.74,3.14,-3.14,-3.32,-2.84,4.61,4.59,4.59
78.17,7.75,3.21,7.70,3.16,-3.16,-3.34,-2.84,4.59,4.54,4.54
78.95,7.75,3.25,7.67,3.18,-3.18,-3.36,-2.84,4.57,4.49,4.50
79.74,7.58,3.14,7.63,3.19,-3.19,-3.38,-2.85,4.40,4.44,4.44
80.54,7.52,3.13,7.59,3.20,-3.20,-3.40,-2.86,4.32,4.39,4.39
81.35,7.52,3.18,7.55,3.22,-3.22,-3.41,-2.87,4.30,4.34,4.34
82.16,7.52,3.22,7.52,3.24,-3.24,-3.43,-2.88,4.29,4.28,4.30
82.98,7.52,3.28,7.48,3.26,-3.26,-3.45,-2.89,4.27,4.23,4.24
83.81,7.52,3.34,7.45,3.28,-3.28,-3.46,-2.91,4.24,4.17,4.18
84.65,7.38,3.26,7.40,3.29,-3.29,-3.48,-2.93,4.09,4.11,4.12
85.50,7.30,3.25,7.36,3.31,-3.31,-3.49,-2.95,3.99,4.05,4.05
86.35,7.30,3.31,7.33,3.34,-3.34,-3.51,-2.97,3.96,3.99,3.99
87.22,7.30,3.37,7.29,3.37,-3.37,-3.52,-2.99,3.94,3.93,3.93
88.09,7.30,3.44,7.26,3.39,-3.39,-3.53,-3.02,3.91,3.87,3.86
88.97,7.30,3.50,7.23,3.43,-3.43,-3.55,-3.05,3.87,3.80,3.80
89.86,7.14,3.41,7.20,3.46,-3.46,-3.56,-3.08,3.68,3.73,3.73
90.76,7.08,3.42,7.16,3.49,-3.49,-3.57,-3.12,3.59,3.67,3.66
91.66,7.07,3.47,7.11,3.51,-3.51,-3.58,-3.15,3.56,3.60,3.60
92.58,7.07,3.53,7.07,3.54,-3.54,-3.59,-3.19,3.54,3.53,3.54
93.51,7.07,3.60,7.02,3.56,-3.56,-3.60,-3.23,3.51,3.46,3.47
94.44,7.07,3.66,6.99,3.60,-3.60,-3.61,-3.28,3.47,3.39,3.41
95.39,6.97,3.64,6.95,3.63,-3.63,-3.61,-3.32,3.34,3.32,3.33
96.34,6.84,3.59,6.90,3.65,-3.65,-3.62,-3.37,3.19,3.25,3.25
97.30,6.84,3.65,6.85,3.67,-3.67,-3.63,-3.42,3.18,3.18,3.19
98.28,6.84,3.74,6.80,3.69,-3.69,-3.63,-3.47,3.15,3.11,3.10
99.26,6.78,3.75,6.76,3.72,-3.72,-3.64,-3.52,3.07,3.04,3.03
100.25,6.62,3.65,6.72,3.74,-3.74,-3.65,-3.58,2.88,2.98,2.97
101.25,6.61,3.70,6.67,3.75,-3.75,-3.65,-3.63,2.86,2.91,2.91
102.27,6.61,3.77,6.61,3.76,-3.76,-3.65,-3.69,2.85,2.85,2.84
103.29,6.61,3.83,6.56,3.78,-3.78,-3.66,-3.74,2.83,2.78,2.78
104.32,6.56,3.83,6.51,3.79,-3.79,-3.66,-3.80,2.77,2.72,2.73
105.37,6.44,3.77,6.46,3.80,-3.80,-3.67,-3.86,2.65,2.66,2.67
106.42,6.38,3.77,6.41,3.81,-3.81,-3.67,-3.92,2.58,2.61,2.61
107.48,6.38,3.84,6.36,3.81,-3.81,-3.67,-3.97,2.57,2.55,2.54
108.56,6.38,3.88,6.32,3.82,-3.82,-3.68,-4.03,2.56,2.49,2.50
109.64,6.24,3.80,6.27,3.83,-3.83,-3.68,-4.09,2.41,2.44,2.44
110.74,6.16,3.78,6.22,3.84,-3.84,-3.68,-4.14,2.32,2.38,2.38
111.85,6.16,3.84,6.17,3.86,-3.86,-3.68,-4.19,2.31,2.32,2.32
112.97,6.16,3.89,6.12,3.86,-3.86,-3.69,-4.24,2.30,2.26,2.27
114.10,6.11,3.90,6.07,3.87,-3.87,-3.69,-4.29,2.24,2.20,2.21
115.24,5.93,3.79,6.02,3.89,-3.89,-3.69,-4.33,2.05,2.13,2.14
116.39,5.93,3.86,5.97,3.90,-3.90,-3.69,-4.37,2.03,2.07,2.07
117.55,5.93,3.92,5.93,3.92,-3.92,-3.70,-4.41,2.02,2.01,2.01
118.73,5.93,3.99,5.88,3.93,-3.93,-3.70,-4.44,2.00,1.94,1.94
119.92,5.92,4.05,5.83,3.95,-3.95,-3.70,-4.47,1.97,1.88,1.87
121.12,5.70,3.88,5.78,3.97,-3.97,-3.70,-4.49,1.73,1.81,1.82
122.33,5.70,3.96,5.74,3.99,-3.99,-3.71,-4.51,1.71,1.75,1.74
123.55,5.70,4.01,5.69,4.01,-4.01,-3.71,-4.53,1.69,1.68,1.69
124.79,5.70,4.08,5.64,4.03,-4.03,-3.72,-4.54,1.67,1.61,1.62
126.03,5.55,4.00,5.59,4.04,-4.04,-3.72,-4.54,1.51,1.54,1.55
127.29,5.50,4.02,5.53,4.06,-4.06,-3.73,-4.54,1.45,1.48,1.48
128.57,5.47,4.05,5.48,4.07,-4.07,-3.73,-4.53,1.40,1.41,1.42
129.85,5.47,4.13,5.43,4.08,-4.08,-3.74,-4.52,1.39,1.35,1.34
131.15,5.42,4.14,5.37,4.09,-4.09,-3.74,-4.51,1.33,1.28,1.28
132.46,5.29,4.08,5.32,4.10,-4.10,-3.75,-4.49,1.19,1.22,1.21
133.79,5.24,4.09,5.27,4.11,-4.11,-3.76,-4.46,1.13,1.15,1.15
135.12,5.24,4.16,5.22,4.13,-4.13,-3.77,-4.44,1.11,1.09,1.08
136.48,5.19,4.15,5.17,4.14,-4.14,-3.78,-4.41,1.05,1.03,1.04
137.84,5.04,4.06,5.12,4.15,-4.15,-3.79,-4.37,0.89,0.97,0.98
139.22,5.02,4.11,5.07,4.16,-4.16,-3.80,-4.34,0.87,0.92,0.91
140.61,5.02,4.16,5.03,4.17,-4.17,-3.81,-4.30,0.85,0.86,0.86
142.02,5.02,4.21,4.98,4.18,-4.18,-3.82,-4.26,0.84,0.81,0.81
143.44,5.00,4.25,4.93,4.18,-4.18,-3.83,-4.21,0.83,0.75,0.75
144.87,4.83,4.12,4.87,4.17,-4.17,-3.85,-4.17,0.66,0.70,0.71
146.32,4.80,4.14,4.83,4.17,-4.17,-3.86,-4.13,0.63,0.65,0.66
147.78,4.79,4.19,4.78,4.17,-4.17,-3.88,-4.08,0.62,0.60,0.60
149.26,4.79,4.23,4.72,4.17,-4.17,-3.89,-4.04,0.62,0.56,0.56
150.75,4.69,4.19,4.66,4.16,-4.16,-3.91,-3.99,0.53,0.51,0.50
152.26,4.60,4.13,4.61,4.15,-4.15,-3.93,-3.95,0.45,0.46,0.47
153.78,4.56,4.15,4.56,4.15,-4.15,-3.95,-3.91,0.41,0.41,0.41
155.32,4.51,4.14,4.50,4.14,-4.14,-3.97,-3.87,0.38,0.36,0.37
156.88,4.35,4.03,4.44,4.12,-4.12,-3.99,-3.83,0.23,0.31,0.32
158.44,4.33,4.06,4.37,4.11,-4.11,-4.01,-3.79,0.22,0.26,0.27
160.03,4.33,4.11,4.32,4.11,-4.11,-4.03,-3.76,0.23,0.22,0.22
161.63,4.33,4.16,4.27,4.11,-4.11,-4.05,-3.72,0.23,0.17,0.17
163.24,4.19,4.08,4.22,4.10,-4.10,-4.07,-3.69,0.10,0.12,0.11
164.88,4.10,4.03,4.16,4.09,-4.09,-4.09,-3.66,0.01,0.07,0.07
166.53,4.10,4.09,4.11,4.09,-4.09,-4.11,-3.63,0.01,0.02,0.01
168.19,4.10,4.12,4.06,4.09,-4.09,-4.13,-3.61,0.01,-0.03,-0.02
169.87,4.05,4.12,4.01,4.09,-4.09,-4.15,-3.59,-0.04,-0.08,-0.07
171.57,3.91,4.04,3.95,4.09,-4.09,-4.17,-3.57,-0.17,-0.13,-0.13
173.29,3.88,4.06,3.90,4.09,-4.09,-4.19,-3.55,-0.21,-0.18,-0.18
175.02,3.88,4.11,3.85,4.09,-4.09,-4.21,-3.54,-0.21,-0.24,-0.23
176.77,3.88,4.16,3.79,4.08,-4.08,-4.23,-3.53,-0.20,-0.29,-0.28
178.54,3.70,4.03,3.73,4.07,-4.07,-4.24,-3.52,-0.36,-0.34,-0.33
180.32,3.65,4.04,3.67,4.06,-4.06,-4.26,-3.51,-0.41,-0.39,-0.39
182.13,3.65,4.09,3.63,4.07,-4.07,-4.27,-3.51,-0.41,-0.44,-0.44
183.95,3.56,4.05,3.57,4.06,-4.06,-4.28,-3.51,-0.50,-0.49,-0.49
185.79,3.43,3.98,3.51,4.05,-4.05,-4.29,-3.51,-0.62,-0.54,-0.55
187.65,3.42,4.01,3.45,4.04,-4.04,-4.29,-3.52,-0.62,-0.59,-0.59
189.52,3.42,4.06,3.40,4.04,-4.04,-4.29,-3.52,-0.61,-0.64,-0.64
191.42,3.37,4.05,3.34,4.03,-4.03,-4.29,-3.53,-0.65,-0.69,-0.68
193.33,3.24,3.97,3.27,4.01,-4.01,-4.29,-3.55,-0.76,-0.73,-0.73
195.27,3.19,3.97,3.22,4.00,-4.00,-4.28,-3.56,-0.80,-0.78,-0.78
197.22,3.19,4.02,3.16,3.98,-3.98,-4.27,-3.58,-0.79,-0.82,-0.83
199.19,3.18,4.04,3.11,3.97,-3.97,-4.26,-3.60,-0.79,-0.86,-0.86
201.18,3.05,3.96,3.05,3.95,-3.95,-4.24,-3.61,-0.90,-0.90,-0.91
203.19,2.96,3.90,2.99,3.93,-3.93,-4.21,-3.64,-0.96,-0.94,-0.94
205.23,2.96,3.93,2.94,3.91,-3.91,-4.19,-3.66,-0.95,-0.98,-0.97
207.28,2.88,3.88,2.89,3.90,-3.90,-4.16,-3.68,-1.01,-1.01,-1.00
209.35,2.77,3.81,2.83,3.88,-3.88,-4.12,-3.70,-1.10,-1.05,-1.04
211.44,2.74,3.82,2.78,3.86,-3.86,-4.09,-3.73,-1.12,-1.08,-1.08
213.56,2.74,3.85,2.73,3.84,-3.84,-4.04,-3.75,-1.10,-1.11,-1.11
215.69,2.74,3.88,2.68,3.82,-3.82,-4.00,-3.78,-1.08,-1.15,-1.14
217.85,2.53,3.70,2.62,3.80,-3.80,-3.95,-3.80,-1.26,-1.18,-1.17
220.03,2.51,3.72,2.56,3.77,-3.77,-3.90,-3.82,-1.26,-1.21,-1.21
222.23,2.51,3.75,2.51,3.75,-3.75,-3.85,-3.84,-1.24,-1.24,-1.24
224.45,2.51,3.78,2.46,3.73,-3.73,-3.79,-3.86,-1.21,-1.27,-1.27
226.70,2.51,3.81,2.40,3.70,-3.70,-3.73,-3.88,-1.18,-1.30,-1.30
228.96,2.35,3.68,2.33,3.66,-3.66,-3.67,-3.89,-1.31,-1.33,-1.33
231.25,2.30,3.65,2.28,3.64,-3.64,-3.61,-3.90,-1.33,-1.35,-1.35
233.57,2.25,3.63,2.23,3.61,-3.61,-3.54,-3.91,-1.36,-1.38,-1.38
235.90,2.06,3.46,2.17,3.57,-3.57,-3.48,-3.91,-1.51,-1.40,-1.40
238.26,2.05,3.49,2.11,3.53,-3.53,-3.41,-3.91,-1.48,-1.43,-1.44
240.64,2.05,3.49,2.05,3.50,-3.50,-3.34,-3.91,-1.45,-1.45,-1.44
243.05,2.05,3.51,2.01,3.48,-3.48,-3.27,-3.90,-1.42,-1.47,-1.46
245.48,1.89,3.38,1.95,3.44,-3.44,-3.21,-3.89,-1.55,-1.49,-1.49
247.93,1.83,3.34,1.89,3.40,-3.40,-3.14,-3.87,-1.56,-1.51,-1.51
250.41,1.83,3.34,1.83,3.35,-3.35,-3.07,-3.85,-1.52,-1.52,-1.51
252.92,1.83,3.36,1.79,3.32,-3.32,-3.00,-3.82,-1.49,-1.54,-1.53
255.45,1.83,3.38,1.75,3.30,-3.30,-2.93,-3.78,-1.47,-1.55,-1.55
258.00,1.69,3.26,1.70,3.27,-3.27,-2.86,-3.75,-1.57,-1.57,-1.57
260.58,1.60,3.18,1.65,3.23,-3.23,-2.79,-3.70,-1.63,-1.58,-1.58
263.19,1.60,3.19,1.61,3.20,-3.20,-2.72,-3.66,-1.60,-1.59,-1.59
265.82,1.60,3.20,1.56,3.16,-3.16,-2.66,-3.60,-1.56,-1.60,-1.60
268.48,1.54,3.14,1.51,3.11,-3.11,-2.59,-3.55,-1.57,-1.61,-1.60
271.16,1.41,3.01,1.45,3.07,-3.07,-2.53,-3.49,-1.66,-1.61,-1.60
273.87,1.37,2.98,1.40,3.02,-3.02,-2.46,-3.42,-1.65,-1.62,-1.61
276.61,1.37,2.99,1.35,2.97,-2.97,-2.40,-3.36,-1.60,-1.63,-1.62
279.38,1.37,3.01,1.30,2.92,-2.92,-2.34,-3.29,-1.55,-1.63,-1.64
282.17,1.20,2.84,1.24,2.87,-2.87,-2.27,-3.21,-1.67,-1.63,-1.64
284.99,1.14,2.77,1.19,2.82,-2.82,-2.21,-3.14,-1.68,-1.63,-1.63
287.84,1.14,2.77,1.14,2.78,-2.78,-2.16,-3.06,-1.63,-1.63,-1.63
290.72,1.14,2.78,1.10,2.73,-2.73,-2.10,-2.98,-1.59,-1.63,-1.64
293.63,1.03,2.66,1.05,2.68,-2.68,-2.04,-2.90,-1.65,-1.64,-1.63
296.57,0.93,2.56,1.00,2.63,-2.63,-1.98,-2.82,-1.70,-1.64,-1.63
299.53,0.91,2.55,0.95,2.58,-2.58,-1.93,-2.74,-1.67,-1.64,-1.64
302.53,0.91,2.53,0.90,2.54,-2.54,-1.88,-2.66,-1.63,-1.63,-1.62
305.55,0.91,2.54,0.86,2.49,-2.49,-1.82,-2.58,-1.58,-1.63,-1.63
308.61,0.86,2.48,0.81,2.44,-2.44,-1.77,-2.49,-1.58,-1.63,-1.62
311.69,0.71,2.34,0.76,2.39,-2.39,-1.72,-2.41,-1.67,-1.63,-1.63
314.81,0.69,2.31,0.71,2.34,-2.34,-1.67,-2.33,-1.64,-1.63,-1.62
317.96,0.69,2.32,0.66,2.28,-2.28,-1.63,-2.25,-1.59,-1.63,-1.63
321.14,0.68,2.30,0.61,2.23,-2.23,-1.58,-2.16,-1.55,-1.62,-1.62
324.35,0.51,2.14,0.56,2.18,-2.18,-1.53,-2.08,-1.67,-1.62,-1.63
327.59,0.46,2.06,0.51,2.13,-2.13,-1.49,-2.00,-1.66,-1.61,-1.60
330.87,0.46,2.07,0.46,2.07,-2.07,-1.44,-1.92,-1.61,-1.61,-1.61
334.18,0.46,2.07,0.41,2.01,-2.01,-1.40,-1.84,-1.55,-1.60,-1.61
337.52,0.33,1.93,0.36,1.96,-1.96,-1.36,-1.77,-1.63,-1.60,-1.60
340.90,0.25,1.84,0.31,1.90,-1.90,-1.32,-1.69,-1.65,-1.59,-1.59
344.30,0.23,1.81,0.26,1.84,-1.84,-1.27,-1.61,-1.61,-1.59,-1.58
347.75,0.23,1.80,0.22,1.79,-1.79,-1.23,-1.54,-1.56,-1.58,-1.57
351.23,0.23,1.81,0.17,1.74,-1.74,-1.20,-1.47,-1.50,-1.57,-1.58
354.74,0.13,1.68,0.12,1.68,-1.68,-1.16,-1.39,-1.54,-1.56,-1.55
358.28,0.02,1.57,0.06,1.62,-1.62,-1.12,-1.32,-1.60,-1.55,-1.55
361.87,0.00,1.55,0.02,1.56,-1.56,-1.08,-1.25,-1.56,-1.55,-1.55
365.49,0.00,1.54,-0.04,1.50,-1.50,-1.05,-1.18,-1.50,-1.54,-1.54
369.14,-0.02,1.51,-0.09,1.45,-1.45,-1.01,-1.11,-1.47,-1.54,-1.53
372.83,-0.17,1.35,-0.13,1.40,-1.40,-0.97,-1.05,-1.57,-1.53,-1.52
376.56,-0.23,1.30,-0.18,1.35,-1.35,-0.94,-0.98,-1.58,-1.53,-1.53
380.33,-0.23,1.29,-0.23,1.30,-1.30,-0.90,-0.92,-1.52,-1.52,-1.52
384.13,-0.23,1.28,-0.28,1.24,-1.24,-0.87,-0.85,-1.47,-1.52,-1.51
387.97,-0.38,1.13,-0.33,1.19,-1.19,-0.84,-0.79,-1.56,-1.52,-1.51
391.85,-0.44,1.07,-0.37,1.14,-1.14,-0.80,-0.73,-1.58,-1.51,-1.51
395.77,-0.45,1.07,-0.41,1.10,-1.10,-0.77,-0.67,-1.55,-1.51,-1.52
399.73,-0.45,1.06,-0.45,1.05,-1.05,-0.74,-0.61,-1.50,-1.50,-1.51
403.72,-0.45,1.04,-0.50,1.00,-1.00,-0.71,-0.55,-1.44,-1.49,-1.49
407.76,-0.45,1.04,-0.55,0.94,-0.94,-0.68,-0.49,-1.39,-1.49,-1.49
411.84,-0.59,0.89,-0.59,0.89,-0.89,-0.65,-0.43,-1.48,-1.48,-1.48
415.96,-0.67,0.80,-0.62,0.86,-0.86,-0.61,-0.38,-1.52,-1.47,-1.47
420.12,-0.68,0.79,-0.65,0.81,-0.81,-0.58,-0.32,-1.49,-1.46,-1.47
424.32,-0.68,0.77,-0.70,0.76,-0.76,-0.55,-0.27,-1.44,-1.45,-1.45
428.56,-0.68,0.75,-0.74,0.71,-0.71,-0.52,-0.22,-1.38,-1.44,-1.43
432.85,-0.77,0.65,-0.77,0.66,-0.66,-0.49,-0.17,-1.42,-1.43,-1.42
437.18,-0.89,0.52,-0.82,0.60,-0.60,-0.46,-0.12,-1.49,-1.42,-1.41
441.55,-0.91,0.50,-0.86,0.55,-0.55,-0.43,-0.07,-1.45,-1.40,-1.41
445.96,-0.91,0.48,-0.90,0.49,-0.49,-0.40,-0.02,-1.40,-1.39,-1.39
450.42,-0.91,0.47,-0.94,0.44,-0.44,-0.37,0.02,-1.35,-1.38,-1.38
454.93,-0.91,0.45,-0.97,0.39,-0.39,-0.34,0.07,-1.30,-1.36,-1.36
459.48,-0.96,0.39,-1.01,0.34,-0.34,-0.31,0.11,-1.30,-1.35,-1.35
464.07,-1.11,0.22,-1.05,0.28,-0.28,-0.28,0.15,-1.39,-1.34,-1.33
468.71,-1.14,0.17,-1.09,0.23,-0.23,-0.25,0.19,-1.36,-1.32,-1.31
473.40,-1.14,0.16,-1.13,0.18,-0.18,-0.22,0.22,-1.32,-1.31,-1.30
478.13,-1.14,0.14,-1.16,0.13,-0.13,-0.19,0.26,-1.27,-1.29,-1.28
482.91,-1.14,0.13,-1.19,0.08,-0.08,-0.16,0.29,-1.22,-1.27,-1.27
487.74,-1.19,0.07,-1.23,0.03,-0.03,-0.13,0.32,-1.22,-1.26,-1.26
492.62,-1.33,-0.09,-1.27,-0.03,0.03,-0.10,0.35,-1.30,-1.24,-1.24
497.55,-1.37,-0.14,-1.31,-0.09,0.09,-0.07,0.38,-1.28,-1.22,-1.23
502.52,-1.37,-0.16,-1.35,-0.15,0.15,-0.03,0.40,-1.22,-1.20,-1.21
507.55,-1.37,-0.19,-1.39,-0.20,0.20,-0.00,0.43,-1.16,-1.18,-1.18
512.62,-1.37,-0.21,-1.42,-0.25,0.25,0.03,0.45,-1.11,-1.16,-1.16
