frequency,raw,error,smoothed,error_smoothed,equalization,parametric_eq,fixed_band_eq,equalized_raw,equalized_smoothed,target
20.00,-2.49,-5.53,-2.41,-5.48,5.48,5.12,2.08,2.99,3.07,3.04
20.20,-2.38,-5.47,-2.32,-5.43,5.43,5.13,2.14,3.05,3.11,3.09
20.40,-2.26,-5.40,-2.24,-5.39,5.39,5.14,2.20,3.13,3.15,3.14
20.61,-2.15,-5.32,-2.16,-5.34,5.34,5.14,2.26,3.19,3.18,3.17
20.81,-2.03,-5.25,-2.08,-5.29,5.29,5.14,2.32,3.27,3.21,3.22
21.02,-1.93,-5.19,-2.01,-5.25,5.25,5.14,2.39,3.32,3.24,3.26
21.23,-1.88,-5.16,-1.95,-5.21,5.21,5.14,2.46,3.33,3.26,3.28
21.44,-1.84,-5.14,-1.88,-5.17,5.17,5.14,2.53,3.33,3.29,3.30
21.66,-1.79,-5.11,-1.82,-5.13,5.13,5.13,2.60,3.34,3.31,3.32
21.87,-1.75,-5.08,-1.77,-5.09,5.09,5.13,2.68,3.34,3.33,3.33
22.09,-1.71,-5.06,-1.72,-5.06,5.06,5.12,2.75,3.35,3.34,3.35
22.31,-1.68,-5.04,-1.67,-5.02,5.02,5.11,2.83,3.34,3.35,3.36
22.54,-1.64,-5.00,-1.64,-5.00,5.00,5.10,2.91,3.36,3.36,3.36
22.76,-1.61,-4.97,-1.61,-4.98,4.98,5.08,3.00,3.37,3.36,3.36
22.99,-1.58,-4.93,-1.59,-4.95,4.95,5.07,3.08,3.37,3.37,3.35
23.22,-1.56,-4.91,-1.56,-4.93,4.93,5.05,3.17,3.37,3.37,3.35
23.45,-1.54,-4.89,-1.53,-4.90,4.90,5.03,3.26,3.36,3.37,3.35
23.69,-1.52,-4.88,-1.50,-4.87,4.87,5.02,3.35,3.35,3.37,3.36
23.92,-1.51,-4.87,-1.46,-4.83,4.83,5.00,3.44,3.32,3.37,3.36
24.16,-1.47,-4.83,-1.43,-4.79,4.79,4.98,3.53,3.32,3.37,3.36
24.40,-1.42,-4.79,-1.39,-4.76,4.76,4.95,3.63,3.34,3.37,3.37
24.65,-1.37,-4.73,-1.35,-4.72,4.72,4.93,3.72,3.35,3.37,3.36
24.89,-1.32,-4.68,-1.32,-4.68,4.68,4.91,3.82,3.36,3.37,3.36
25.14,-1.27,-4.63,-1.28,-4.65,4.65,4.88,3.92,3.38,3.37,3.36
25.39,-1.22,-4.59,-1.25,-4.62,4.62,4.86,4.02,3.40,3.37,3.37
25.65,-1.18,-4.55,-1.22,-4.58,4.58,4.83,4.12,3.40,3.37,3.37
25.91,-1.13,-4.49,-1.18,-4.55,4.55,4.81,4.22,3.42,3.37,3.36
26.16,-1.11,-4.47,-1.15,-4.52,4.52,4.78,4.32,3.41,3.37,3.36
26.43,-1.11,-4.47,-1.12,-4.49,4.49,4.75,4.41,3.38,3.36,3.36
26.69,-1.10,-4.46,-1.09,-4.45,4.45,4.73,4.51,3.36,3.36,3.36
26.96,-1.10,-4.46,-1.07,-4.43,4.43,4.70,4.61,3.33,3.36,3.36
27.23,-1.08,-4.44,-1.04,-4.40,4.40,4.67,4.70,3.32,3.36,3.36
27.50,-1.05,-4.41,-1.01,-4.37,4.37,4.64,4.79,3.32,3.36,3.36
27.77,-1.02,-4.37,-0.99,-4.34,4.34,4.61,4.88,3.33,3.36,3.35
28.05,-0.99,-4.34,-0.96,-4.32,4.32,4.58,4.97,3.33,3.35,3.35
28.33,-0.95,-4.29,-0.94,-4.29,4.29,4.56,5.05,3.34,3.35,3.34
28.62,-0.91,-4.25,-0.92,-4.27,4.27,4.53,5.12,3.36,3.35,3.34
28.90,-0.86,-4.21,-0.89,-4.24,4.24,4.50,5.19,3.39,3.35,3.35
29.19,-0.84,-4.18,-0.87,-4.22,4.22,4.47,5.26,3.38,3.35,3.34
29.48,-0.83,-4.18,-0.85,-4.20,4.20,4.44,5.32,3.37,3.35,3.35
29.78,-0.81,-4.15,-0.83,-4.18,4.18,4.42,5.37,3.37,3.35,3.34
30.08,-0.80,-4.15,-0.81,-4.16,4.16,4.39,5.41,3.36,3.34,3.35
30.38,-0.80,-4.14,-0.80,-4.15,4.15,4.36,5.45,3.35,3.34,3.34
30.68,-0.80,-4.14,-0.80,-4.14,4.14,4.34,5.48,3.34,3.34,3.34
30.99,-0.80,-4.14,-0.79,-4.13,4.13,4.31,5.50,3.33,3.34,3.34
31.30,-0.80,-4.13,-0.79,-4.13,4.13,4.29,5.52,3.33,3.34,3.33
31.61,-0.80,-4.13,-0.79,-4.13,4.13,4.27,5.52,3.33,3.34,3.33
31.93,-0.80,-4.13,-0.79,-4.12,4.12,4.24,5.52,3.33,3.33,3.33
32.24,-0.80,-4.12,-0.80,-4.12,4.12,4.22,5.51,3.32,3.33,3.32
32.57,-0.80,-4.12,-0.80,-4.12,4.12,4.20,5.50,3.32,3.32,3.32
32.89,-0.80,-4.12,-0.80,-4.12,4.12,4.18,5.47,3.32,3.32,3.32
33.22,-0.80,-4.11,-0.80,-4.11,4.11,4.16,5.44,3.31,3.31,3.31
33.55,-0.80,-4.11,-0.80,-4.11,4.11,4.14,5.41,3.31,3.31,3.31
33.89,-0.80,-4.10,-0.80,-4.10,4.10,4.13,5.37,3.30,3.30,3.30
34.23,-0.80,-4.10,-0.80,-4.10,4.10,4.11,5.32,3.30,3.30,3.30
34.57,-0.80,-4.09,-0.80,-4.10,4.10,4.10,5.27,3.30,3.30,3.29
34.92,-0.80,-4.09,-0.80,-4.09,4.09,4.08,5.21,3.29,3.29,3.29
35.27,-0.80,-4.08,-0.80,-4.09,4.09,4.07,5.15,3.29,3.29,3.28
35.62,-0.80,-4.08,-0.80,-4.09,4.09,4.06,5.09,3.29,3.29,3.28
35.97,-0.80,-4.08,-0.80,-4.08,4.08,4.05,5.03,3.28,3.28,3.28
36.33,-0.80,-4.08,-0.80,-4.08,4.08,4.04,4.96,3.28,3.28,3.28
36.70,-0.80,-4.07,-0.80,-4.08,4.08,4.03,4.89,3.28,3.28,3.27
37.06,-0.80,-4.07,-0.80,-4.08,4.08,4.03,4.83,3.28,3.28,3.27
37.43,-0.80,-4.08,-0.80,-4.08,4.08,4.02,4.76,3.28,3.28,3.28
37.81,-0.80,-4.08,-0.80,-4.08,4.08,4.02,4.69,3.28,3.28,3.28
38.19,-0.80,-4.07,-0.80,-4.08,4.08,4.01,4.62,3.28,3.28,3.27
38.57,-0.80,-4.08,-0.80,-4.08,4.08,4.01,4.56,3.28,3.28,3.28
38.95,-0.80,-4.09,-0.80,-4.08,4.08,4.01,4.49,3.28,3.28,3.29
39.34,-0.80,-4.08,-0.80,-4.08,4.08,4.01,4.43,3.28,3.28,3.28
39.74,-0.80,-4.08,-0.80,-4.08,4.08,4.02,4.37,3.28,3.28,3.28
40.14,-0.80,-4.08,-0.80,-4.08,4.08,4.02,4.31,3.28,3.28,3.28
40.54,-0.80,-4.08,-0.80,-4.08,4.08,4.02,4.25,3.28,3.28,3.28
40.94,-0.80,-4.07,-0.80,-4.08,4.08,4.03,4.19,3.28,3.28,3.27
41.35,-0.80,-4.07,-0.80,-4.07,4.07,4.04,4.14,3.27,3.27,3.27
41.76,-0.80,-4.06,-0.80,-4.06,4.06,4.04,4.09,3.27,3.26,3.26
42.18,-0.80,-4.06,-0.80,-4.06,4.06,4.05,4.05,3.26,3.26,3.26
42.60,-0.80,-4.05,-0.80,-4.05,4.05,4.06,4.00,3.25,3.25,3.25
43.03,-0.80,-4.04,-0.79,-4.03,4.03,4.07,3.96,3.23,3.23,3.24
43.46,-0.80,-4.03,-0.79,-4.01,4.01,4.08,3.92,3.21,3.22,3.23
43.90,-0.80,-4.01,-0.79,-4.00,4.00,4.09,3.89,3.20,3.21,3.21
44.33,-0.80,-3.99,-0.79,-3.99,3.99,4.10,3.85,3.19,3.20,3.19
44.78,-0.80,-3.97,-0.79,-3.98,3.98,4.11,3.82,3.18,3.19,3.17
45.23,-0.80,-3.96,-0.80,-3.97,3.97,4.12,3.80,3.17,3.17,3.16
45.68,-0.80,-3.95,-0.81,-3.96,3.96,4.13,3.78,3.17,3.16,3.15
46.13,-0.79,-3.92,-0.81,-3.96,3.96,4.14,3.75,3.17,3.14,3.13
46.60,-0.78,-3.91,-0.82,-3.95,3.95,4.15,3.74,3.17,3.13,3.13
47.06,-0.77,-3.88,-0.83,-3.95,3.95,4.16,3.72,3.18,3.12,3.11
47.53,-0.83,-3.93,-0.84,-3.94,3.94,4.17,3.71,3.11,3.10,3.10
48.01,-0.90,-4.00,-0.85,-3.94,3.94,4.17,3.70,3.04,3.09,3.10
48.49,-0.90,-3.98,-0.86,-3.93,3.93,4.18,3.69,3.04,3.07,3.08
48.97,-0.90,-3.96,-0.87,-3.93,3.93,4.18,3.69,3.03,3.06,3.06
49.46,-0.90,-3.94,-0.88,-3.93,3.93,4.18,3.69,3.03,3.05,3.04
49.96,-0.90,-3.92,-0.89,-3.92,3.92,4.18,3.69,3.02,3.03,3.02
50.46,-0.90,-3.91,-0.90,-3.92,3.92,4.18,3.69,3.02,3.02,3.01
50.96,-0.90,-3.90,-0.90,-3.91,3.91,4.17,3.69,3.01,3.01,3.00
51.47,-0.90,-3.88,-0.91,-3.90,3.90,4.16,3.69,3.00,2.99,2.98
51.99,-0.90,-3.87,-0.91,-3.89,3.89,4.15,3.70,2.99,2.98,2.97
52.51,-0.90,-3.86,-0.91,-3.88,3.88,4.14,3.71,2.98,2.97,2.96
53.03,-0.90,-3.86,-0.90,-3.86,3.86,4.12,3.71,2.96,2.95,2.96
53.56,-0.90,-3.84,-0.90,-3.84,3.84,4.10,3.72,2.94,2.94,2.94
54.10,-0.90,-3.83,-0.90,-3.83,3.83,4.08,3.73,2.93,2.93,2.93
54.64,-0.90,-3.81,-0.90,-3.82,3.82,4.05,3.74,2.92,2.92,2.91
55.18,-0.90,-3.81,-0.90,-3.81,3.81,4.02,3.75,2.91,2.91,2.91
55.74,-0.90,-3.79,-0.90,-3.80,3.80,3.99,3.75,2.90,2.90,2.89
56.29,-0.90,-3.78,-0.90,-3.79,3.79,3.95,3.76,2.89,2.89,2.88
56.86,-0.90,-3.77,-0.91,-3.78,3.78,3.92,3.76,2.88,2.87,2.87
57.42,-0.90,-3.74,-0.91,-3.76,3.76,3.87,3.76,2.86,2.86,2.84
58.00,-0.90,-3.73,-0.91,-3.74,3.74,3.83,3.76,2.84,2.84,2.83
58.58,-0.90,-3.72,-0.90,-3.72,3.72,3.78,3.76,2.82,2.81,2.82
59.16,-0.90,-3.70,-0.90,-3.69,3.69,3.73,3.76,2.79,2.79,2.80
59.76,-0.90,-3.68,-0.89,-3.65,3.65,3.68,3.75,2.75,2.76,2.78
60.35,-0.90,-3.64,-0.88,-3.62,3.62,3.63,3.74,2.72,2.73,2.74
60.96,-0.90,-3.60,-0.88,-3.57,3.57,3.57,3.72,2.67,2.70,2.70
61.57,-0.91,-3.57,-0.87,-3.53,3.53,3.51,3.70,2.62,2.66,2.66
62.18,-0.90,-3.52,-0.86,-3.48,3.48,3.45,3.68,2.58,2.62,2.62
62.80,-0.82,-3.39,-0.85,-3.43,3.43,3.39,3.66,2.61,2.58,2.57
63.43,-0.80,-3.33,-0.84,-3.38,3.38,3.33,3.63,2.58,2.54,2.53
64.07,-0.80,-3.28,-0.83,-3.32,3.32,3.27,3.60,2.52,2.50,2.48
64.71,-0.80,-3.24,-0.82,-3.27,3.27,3.20,3.56,2.47,2.45,2.44
65.35,-0.80,-3.20,-0.80,-3.21,3.21,3.14,3.52,2.41,2.40,2.40
66.01,-0.80,-3.15,-0.80,-3.15,3.15,3.08,3.48,2.35,2.36,2.35
66.67,-0.80,-3.10,-0.79,-3.10,3.10,3.01,3.43,2.30,2.31,2.30
67.33,-0.80,-3.05,-0.79,-3.05,3.05,2.95,3.39,2.25,2.26,2.25
68.01,-0.80,-3.01,-0.79,-3.00,3.00,2.88,3.33,2.20,2.21,2.21
68.69,-0.80,-2.96,-0.80,-2.96,2.96,2.82,3.28,2.16,2.16,2.16
69.37,-0.80,-2.91,-0.80,-2.91,2.91,2.75,3.22,2.12,2.11,2.11
70.07,-0.80,-2.86,-0.81,-2.87,2.87,2.69,3.17,2.07,2.06,2.06
70.77,-0.79,-2.80,-0.82,-2.83,2.83,2.62,3.11,2.04,2.00,2.01
71.48,-0.81,-2.77,-0.83,-2.78,2.78,2.56,3.05,1.97,1.95,1.96
72.19,-0.84,-2.73,-0.84,-2.73,2.73,2.50,2.98,1.90,1.89,1.89
72.91,-0.89,-2.72,-0.85,-2.69,2.69,2.44,2.92,1.80,1.84,1.83
73.64,-0.90,-2.68,-0.87,-2.65,2.65,2.38,2.86,1.75,1.78,1.78
74.38,-0.90,-2.62,-0.88,-2.61,2.61,2.32,2.79,1.71,1.73,1.72
75.12,-0.90,-2.56,-0.90,-2.57,2.57,2.26,2.73,1.67,1.67,1.66
75.87,-0.90,-2.50,-0.92,-2.53,2.53,2.20,2.66,1.63,1.61,1.60
76.63,-0.90,-2.45,-0.93,-2.49,2.49,2.14,2.60,1.59,1.56,1.55
77.40,-0.92,-2.42,-0.95,-2.45,2.45,2.09,2.53,1.53,1.51,1.50
78.17,-0.96,-2.40,-0.96,-2.41,2.41,2.03,2.47,1.45,1.45,1.44
78.95,-1.00,-2.40,-0.97,-2.37,2.37,1.98,2.41,1.37,1.40,1.40
79.74,-1.00,-2.35,-0.98,-2.33,2.33,1.92,2.35,1.33,1.35,1.35
80.54,-1.00,-2.30,-0.98,-2.28,2.28,1.87,2.29,1.29,1.30,1.30
81.35,-1.00,-2.25,-0.98,-2.24,2.24,1.82,2.23,1.24,1.26,1.25
82.16,-1.00,-2.20,-0.99,-2.20,2.20,1.77,2.17,1.20,1.21,1.20
82.98,-1.00,-2.16,-0.99,-2.15,2.15,1.72,2.11,1.16,1.16,1.16
83.81,-1.00,-2.11,-1.00,-2.11,2.11,1.68,2.05,1.11,1.11,1.11
84.65,-1.00,-2.06,-1.01,-2.07,2.07,1.63,2.00,1.07,1.06,1.06
85.50,-1.00,-2.02,-1.01,-2.03,2.03,1.58,1.94,1.03,1.02,1.02
86.35,-1.00,-1.97,-1.02,-1.98,1.98,1.54,1.89,0.98,0.97,0.97
87.22,-1.00,-1.92,-1.02,-1.94,1.94,1.50,1.84,0.94,0.92,0.92
88.09,-1.00,-1.87,-1.03,-1.89,1.89,1.45,1.79,0.89,0.87,0.87
88.97,-1.00,-1.81,-1.03,-1.85,1.85,1.41,1.74,0.85,0.82,0.81
89.86,-1.06,-1.82,-1.04,-1.81,1.81,1.37,1.69,0.75,0.77,0.76
90.76,-1.09,-1.80,-1.05,-1.76,1.76,1.33,1.65,0.67,0.71,0.71
91.66,-1.09,-1.75,-1.05,-1.72,1.72,1.29,1.60,0.63,0.66,0.66
92.58,-1.09,-1.69,-1.06,-1.67,1.67,1.25,1.56,0.58,0.61,0.60
93.51,-1.09,-1.64,-1.07,-1.63,1.63,1.22,1.52,0.54,0.56,0.55
94.44,-1.09,-1.60,-1.08,-1.59,1.59,1.18,1.48,0.51,0.51,0.51
95.39,-1.09,-1.55,-1.10,-1.56,1.56,1.14,1.44,0.47,0.46,0.46
96.34,-1.10,-1.51,-1.11,-1.53,1.53,1.11,1.40,0.43,0.41,0.41
97.30,-1.10,-1.46,-1.13,-1.49,1.49,1.08,1.36,0.39,0.37,0.36
98.28,-1.11,-1.42,-1.14,-1.46,1.46,1.04,1.33,0.35,0.32,0.31
99.26,-1.13,-1.40,-1.16,-1.43,1.43,1.01,1.29,0.30,0.27,0.27
100.25,-1.15,-1.37,-1.18,-1.40,1.40,0.98,1.26,0.25,0.22,0.22
101.25,-1.20,-1.37,-1.20,-1.38,1.38,0.95,1.23,0.18,0.17,0.17
102.27,-1.27,-1.39,-1.23,-1.36,1.36,0.92,1.19,0.09,0.13,0.12
103.29,-1.29,-1.36,-1.27,-1.34,1.34,0.89,1.16,0.05,0.08,0.07
104.32,-1.31,-1.34,-1.30,-1.33,1.33,0.86,1.13,0.02,0.03,0.03
105.37,-1.33,-1.31,-1.34,-1.32,1.32,0.83,1.10,-0.01,-0.02,-0.02
106.42,-1.36,-1.29,-1.38,-1.30,1.30,0.80,1.07,-0.06,-0.08,-0.07
107.48,-1.38,-1.25,-1.41,-1.29,1.29,0.77,1.05,-0.09,-0.13,-0.13
108.56,-1.41,-1.23,-1.45,-1.27,1.27,0.74,1.02,-0.14,-0.18,-0.18
109.64,-1.49,-1.26,-1.48,-1.25,1.25,0.72,0.99,-0.24,-0.23,-0.23
110.74,-1.54,-1.25,-1.51,-1.23,1.23,0.69,0.97,-0.31,-0.28,-0.29
111.85,-1.56,-1.23,-1.53,-1.19,1.19,0.67,0.94,-0.36,-0.33,-0.33
112.97,-1.57,-1.18,-1.54,-1.16,1.16,0.64,0.92,-0.41,-0.38,-0.39
114.10,-1.58,-1.14,-1.55,-1.12,1.12,0.62,0.89,-0.46,-0.43,-0.44
115.24,-1.58,-1.09,-1.55,-1.07,1.07,0.59,0.87,-0.51,-0.48,-0.49
116.39,-1.58,-1.04,-1.55,-1.03,1.03,0.57,0.84,-0.55,-0.52,-0.54
117.55,-1.57,-0.99,-1.55,-0.98,0.98,0.54,0.82,-0.59,-0.57,-0.58
118.73,-1.57,-0.95,-1.53,-0.92,0.92,0.52,0.79,-0.65,-0.61,-0.62
119.92,-1.52,-0.87,-1.51,-0.87,0.87,0.50,0.77,-0.65,-0.64,-0.65
121.12,-1.45,-0.76,-1.50,-0.82,0.82,0.48,0.75,-0.63,-0.68,-0.69
122.33,-1.45,-0.73,-1.48,-0.76,0.76,0.45,0.72,-0.69,-0.72,-0.72
123.55,-1.44,-0.69,-1.46,-0.72,0.72,0.43,0.70,-0.72,-0.75,-0.75
124.79,-1.43,-0.65,-1.45,-0.67,0.67,0.41,0.68,-0.76,-0.78,-0.78
126.03,-1.42,-0.61,-1.44,-0.64,0.64,0.39,0.66,-0.78,-0.81,-0.81
127.29,-1.42,-0.59,-1.44,-0.60,0.60,0.37,0.63,-0.82,-0.84,-0.83
128.57,-1.41,-0.54,-1.44,-0.57,0.57,0.35,0.61,-0.84,-0.87,-0.87
129.85,-1.41,-0.51,-1.44,-0.54,0.54,0.33,0.59,-0.87,-0.90,-0.90
131.15,-1.43,-0.50,-1.44,-0.52,0.52,0.31,0.56,-0.91,-0.93,-0.93
132.46,-1.49,-0.53,-1.45,-0.49,0.49,0.29,0.54,-1.00,-0.95,-0.96
133.79,-1.50,-0.51,-1.46,-0.47,0.47,0.27,0.52,-1.03,-0.98,-0.99
135.12,-1.49,-0.47,-1.46,-0.45,0.45,0.25,0.49,-1.03,-1.01,-1.02
136.48,-1.48,-0.44,-1.47,-0.43,0.43,0.23,0.47,-1.05,-1.04,-1.04
137.84,-1.48,-0.40,-1.48,-0.41,0.41,0.21,0.45,-1.07,-1.06,-1.08
139.22,-1.48,-0.37,-1.48,-0.39,0.39,0.19,0.42,-1.09,-1.09,-1.11
140.61,-1.48,-0.34,-1.48,-0.36,0.36,0.17,0.40,-1.12,-1.12,-1.14
142.02,-1.48,-0.32,-1.49,-0.33,0.33,0.15,0.38,-1.15,-1.16,-1.16
143.44,-1.48,-0.29,-1.49,-0.30,0.30,0.14,0.35,-1.18,-1.19,-1.19
144.87,-1.48,-0.25,-1.48,-0.25,0.25,0.12,0.33,-1.22,-1.23,-1.23
146.32,-1.48,-0.21,-1.47,-0.20,0.20,0.10,0.30,-1.28,-1.27,-1.27
147.78,-1.48,-0.18,-1.46,-0.14,0.14,0.08,0.28,-1.34,-1.32,-1.30
149.26,-1.48,-0.13,-1.46,-0.09,0.09,0.06,0.26,-1.39,-1.38,-1.35
150.75,-1.48,-0.07,-1.46,-0.03,0.03,0.05,0.23,-1.45,-1.43,-1.41
152.26,-1.48,-0.00,-1.47,0.02,-0.02,0.03,0.21,-1.50,-1.50,-1.48
153.78,-1.48,0.07,-1.48,0.08,-0.08,0.01,0.18,-1.56,-1.56,-1.55
155.32,-1.48,0.14,-1.49,0.14,-0.14,-0.00,0.16,-1.62,-1.63,-1.62
156.88,-1.48,0.22,-1.51,0.19,-0.19,-0.02,0.13,-1.67,-1.70,-1.70
158.44,-1.48,0.30,-1.53,0.24,-0.24,-0.04,0.11,-1.72,-1.77,-1.78
160.03,-1.47,0.39,-1.55,0.29,-0.29,-0.06,0.08,-1.76,-1.84,-1.86
161.63,-1.50,0.43,-1.57,0.33,-0.33,-0.07,0.06,-1.83,-1.90,-1.93
163.24,-1.63,0.36,-1.59,0.37,-0.37,-0.09,0.03,-2.00,-1.97,-1.99
164.88,-1.69,0.35,-1.61,0.41,-0.41,-0.10,0.01,-2.10,-2.02,-2.04
166.53,-1.69,0.40,-1.63,0.44,-0.44,-0.12,-0.02,-2.13,-2.07,-2.09
168.19,-1.69,0.44,-1.65,0.46,-0.46,-0.14,-0.04,-2.15,-2.11,-2.13
169.87,-1.70,0.47,-1.68,0.47,-0.47,-0.15,-0.07,-2.17,-2.14,-2.17
171.57,-1.71,0.48,-1.70,0.47,-0.47,-0.17,-0.09,-2.18,-2.17,-2.19
173.29,-1.71,0.49,-1.72,0.47,-0.47,-0.19,-0.12,-2.18,-2.19,-2.20
175.02,-1.72,0.49,-1.73,0.47,-0.47,-0.20,-0.15,-2.19,-2.20,-2.21
176.77,-1.72,0.50,-1.75,0.46,-0.46,-0.22,-0.17,-2.18,-2.21,-2.22
178.54,-1.72,0.51,-1.76,0.46,-0.46,-0.23,-0.20,-2.18,-2.22,-2.23
180.32,-1.71,0.51,-1.76,0.46,-0.46,-0.25,-0.23,-2.17,-2.22,-2.22
182.13,-1.74,0.47,-1.76,0.47,-0.47,-0.26,-0.25,-2.21,-2.23,-2.21
183.95,-1.81,0.41,-1.76,0.48,-0.48,-0.28,-0.28,-2.29,-2.24,-2.22
185.79,-1.79,0.43,-1.75,0.49,-0.49,-0.30,-0.31,-2.28,-2.24,-2.22
187.65,-1.78,0.46,-1.75,0.50,-0.50,-0.31,-0.34,-2.28,-2.25,-2.24
189.52,-1.76,0.49,-1.73,0.52,-0.52,-0.33,-0.36,-2.28,-2.26,-2.25
191.42,-1.75,0.52,-1.72,0.55,-0.55,-0.34,-0.39,-2.30,-2.27,-2.27
193.33,-1.74,0.55,-1.71,0.58,-0.58,-0.36,-0.42,-2.32,-2.29,-2.29
195.27,-1.72,0.59,-1.69,0.61,-0.61,-0.37,-0.45,-2.33,-2.30,-2.31
197.22,-1.67,0.66,-1.67,0.65,-0.65,-0.39,-0.48,-2.32,-2.32,-2.33
199.19,-1.60,0.75,-1.65,0.69,-0.69,-0.40,-0.50,-2.29,-2.34,-2.35
201.18,-1.59,0.78,-1.64,0.73,-0.73,-0.41,-0.53,-2.32,-2.36,-2.37
203.19,-1.58,0.81,-1.62,0.77,-0.77,-0.43,-0.56,-2.35,-2.38,-2.39
205.23,-1.58,0.83,-1.60,0.80,-0.80,-0.44,-0.59,-2.38,-2.40,-2.41
207.28,-1.58,0.84,-1.59,0.83,-0.83,-0.46,-0.62,-2.41,-2.43,-2.42
209.35,-1.58,0.86,-1.59,0.86,-0.86,-0.47,-0.64,-2.44,-2.44,-2.44
211.44,-1.59,0.88,-1.58,0.88,-0.88,-0.49,-0.67,-2.47,-2.46,-2.47
213.56,-1.59,0.89,-1.58,0.89,-0.89,-0.50,-0.70,-2.48,-2.48,-2.48
215.69,-1.59,0.90,-1.58,0.91,-0.91,-0.51,-0.72,-2.50,-2.49,-2.49
217.85,-1.58,0.92,-1.58,0.92,-0.92,-0.53,-0.75,-2.50,-2.50,-2.50
220.03,-1.62,0.89,-1.58,0.93,-0.93,-0.54,-0.77,-2.55,-2.51,-2.51
222.23,-1.60,0.94,-1.59,0.93,-0.93,-0.55,-0.79,-2.53,-2.52,-2.54
224.45,-1.59,0.94,-1.60,0.92,-0.92,-0.57,-0.82,-2.51,-2.52,-2.53
226.70,-1.60,0.93,-1.60,0.92,-0.92,-0.58,-0.84,-2.52,-2.52,-2.53
228.96,-1.60,0.92,-1.60,0.91,-0.91,-0.59,-0.86,-2.51,-2.51,-2.52
231.25,-1.59,0.92,-1.60,0.90,-0.90,-0.60,-0.88,-2.49,-2.51,-2.51
233.57,-1.58,0.92,-1.60,0.90,-0.90,-0.62,-0.90,-2.48,-2.49,-2.50
235.90,-1.55,0.94,-1.59,0.89,-0.89,-0.63,-0.91,-2.44,-2.48,-2.49
238.26,-1.55,0.93,-1.59,0.87,-0.87,-0.64,-0.93,-2.42,-2.46,-2.48
240.64,-1.62,0.83,-1.58,0.86,-0.86,-0.65,-0.94,-2.48,-2.44,-2.45
243.05,-1.62,0.80,-1.57,0.86,-0.86,-0.66,-0.95,-2.47,-2.42,-2.42
245.48,-1.61,0.79,-1.54,0.85,-0.85,-0.67,-0.96,-2.46,-2.40,-2.40
247.93,-1.57,0.80,-1.52,0.85,-0.85,-0.68,-0.97,-2.42,-2.38,-2.37
250.41,-1.49,0.86,-1.49,0.86,-0.86,-0.69,-0.98,-2.35,-2.35,-2.35
252.92,-1.44,0.88,-1.46,0.87,-0.87,-0.70,-0.98,-2.31,-2.33,-2.32
255.45,-1.43,0.87,-1.42,0.88,-0.88,-0.71,-0.98,-2.31,-2.30,-2.30
258.00,-1.42,0.86,-1.39,0.89,-0.89,-0.72,-0.99,-2.31,-2.28,-2.28
260.58,-1.41,0.85,-1.36,0.89,-0.89,-0.73,-0.98,-2.30,-2.25,-2.26
263.19,-1.36,0.87,-1.34,0.89,-0.89,-0.74,-0.98,-2.25,-2.23,-2.23
265.82,-1.20,1.01,-1.31,0.90,-0.90,-0.75,-0.98,-2.09,-2.20,-2.21
268.48,-1.21,0.98,-1.29,0.89,-0.89,-0.75,-0.97,-2.10,-2.18,-2.19
271.16,-1.22,0.94,-1.27,0.88,-0.88,-0.76,-0.97,-2.10,-2.16,-2.16
273.87,-1.22,0.92,-1.26,0.87,-0.87,-0.77,-0.96,-2.09,-2.13,-2.14
276.61,-1.22,0.89,-1.26,0.85,-0.85,-0.78,-0.95,-2.07,-2.10,-2.11
279.38,-1.25,0.83,-1.26,0.82,-0.82,-0.78,-0.94,-2.07,-2.08,-2.08
282.17,-1.30,0.76,-1.25,0.80,-0.80,-0.79,-0.93,-2.10,-2.05,-2.06
284.99,-1.32,0.70,-1.25,0.77,-0.77,-0.79,-0.92,-2.09,-2.02,-2.02
287.84,-1.31,0.69,-1.24,0.75,-0.75,-0.80,-0.91,-2.06,-1.99,-2.00
290.72,-1.30,0.67,-1.25,0.72,-0.72,-0.80,-0.89,-2.02,-1.96,-1.97
293.63,-1.29,0.65,-1.25,0.68,-0.68,-0.81,-0.88,-1.97,-1.93,-1.94
296.57,-1.27,0.64,-1.27,0.63,-0.63,-0.81,-0.87,-1.90,-1.90,-1.91
299.53,-1.26,0.62,-1.28,0.60,-0.60,-0.81,-0.85,-1.86,-1.88,-1.88
302.53,-1.25,0.61,-1.29,0.56,-0.56,-0.82,-0.84,-1.81,-1.85,-1.86
305.55,-1.24,0.58,-1.29,0.53,-0.53,-0.82,-0.82,-1.77,-1.82,-1.82
308.61,-1.23,0.57,-1.30,0.50,-0.50,-0.82,-0.81,-1.73,-1.80,-1.80
311.69,-1.22,0.55,-1.31,0.47,-0.47,-0.82,-0.79,-1.69,-1.78,-1.77
314.81,-1.27,0.48,-1.32,0.44,-0.44,-0.82,-0.78,-1.71,-1.75,-1.75
317.96,-1.36,0.37,-1.32,0.41,-0.41,-0.82,-0.77,-1.77,-1.73,-1.73
321.14,-1.41,0.31,-1.33,0.39,-0.39,-0.82,-0.75,-1.79,-1.71,-1.72
324.35,-1.42,0.28,-1.34,0.36,-0.36,-0.82,-0.74,-1.78,-1.70,-1.70
327.59,-1.42,0.27,-1.34,0.34,-0.34,-0.82,-0.73,-1.76,-1.68,-1.69
330.87,-1.35,0.33,-1.34,0.33,-0.33,-0.82,-0.71,-1.68,-1.67,-1.68
334.18,-1.32,0.34,-1.34,0.32,-0.32,-0.82,-0.70,-1.64,-1.66,-1.66
337.52,-1.32,0.33,-1.33,0.31,-0.31,-0.82,-0.69,-1.63,-1.65,-1.65
340.90,-1.33,0.31,-1.32,0.32,-0.32,-0.82,-0.68,-1.64,-1.64,-1.64
344.30,-1.27,0.36,-1.30,0.33,-0.33,-0.82,-0.67,-1.60,-1.63,-1.63
347.75,-1.24,0.39,-1.28,0.35,-0.35,-0.81,-0.66,-1.59,-1.63,-1.63
351.23,-1.22,0.40,-1.24,0.38,-0.38,-0.81,-0.65,-1.60,-1.62,-1.62
354.74,-1.22,0.41,-1.20,0.42,-0.42,-0.81,-0.64,-1.63,-1.62,-1.63
358.28,-1.20,0.42,-1.16,0.45,-0.45,-0.80,-0.63,-1.65,-1.62,-1.62
361.87,-1.14,0.48,-1.12,0.49,-0.49,-0.80,-0.62,-1.63,-1.61,-1.62
365.49,-1.11,0.50,-1.09,0.53,-0.53,-0.79,-0.62,-1.64,-1.61,-1.61
369.14,-1.10,0.52,-1.05,0.57,-0.57,-0.79,-0.61,-1.67,-1.61,-1.62
372.83,-1.02,0.60,-1.00,0.61,-0.61,-0.78,-0.60,-1.63,-1.62,-1.62
376.56,-0.96,0.67,-0.95,0.66,-0.66,-0.78,-0.60,-1.62,-1.62,-1.63
380.33,-0.88,0.74,-0.91,0.71,-0.71,-0.77,-0.59,-1.59,-1.62,-1.62
384.13,-0.87,0.75,-0.88,0.75,-0.75,-0.77,-0.59,-1.62,-1.62,-1.62
387.97,-0.86,0.77,-0.85,0.78,-0.78,-0.76,-0.58,-1.64,-1.63,-1.63
391.85,-0.79,0.85,-0.83,0.81,-0.81,-0.75,-0.58,-1.60,-1.63,-1.64
395.77,-0.76,0.87,-0.81,0.83,-0.83,-0.75,-0.57,-1.59,-1.64,-1.63
399.73,-0.76,0.88,-0.80,0.85,-0.85,-0.74,-0.57,-1.61,-1.65,-1.64
403.72,-0.76,0.88,-0.79,0.86,-0.86,-0.73,-0.57,-1.62,-1.65,-1.64
407.76,-0.76,0.90,-0.80,0.86,-0.86,-0.73,-0.57,-1.62,-1.65,-1.66
411.84,-0.77,0.89,-0.81,0.85,-0.85,-0.72,-0.56,-1.62,-1.66,-1.66
415.96,-0.84,0.82,-0.84,0.82,-0.82,-0.71,-0.56,-1.66,-1.66,-1.66
420.12,-0.89,0.77,-0.87,0.78,-0.78,-0.70,-0.56,-1.67,-1.65,-1.66
424.32,-0.95,0.71,-0.91,0.74,-0.74,-0.70,-0.56,-1.69,-1.65,-1.66
428.56,-0.95,0.70,-0.94,0.70,-0.70,-0.69,-0.56,-1.65,-1.64,-1.65
432.85,-0.94,0.70,-0.97,0.65,-0.65,-0.68,-0.56,-1.59,-1.62,-1.64
437.18,-0.91,0.72,-0.99,0.61,-0.61,-0.67,-0.56,-1.52,-1.60,-1.63
441.55,-0.96,0.63,-1.00,0.58,-0.58,-0.66,-0.56,-1.54,-1.58,-1.59
445.96,-1.05,0.51,-0.98,0.56,-0.56,-0.65,-0.56,-1.61,-1.55,-1.56
450.42,-1.06,0.47,-0.96,0.55,-0.55,-0.65,-0.56,-1.61,-1.51,-1.53
454.93,-1.06,0.42,-0.93,0.54,-0.54,-0.64,-0.56,-1.60,-1.47,-1.48
459.48,-1.03,0.41,-0.88,0.54,-0.54,-0.63,-0.56,-1.57,-1.42,-1.44
464.07,-0.91,0.48,-0.83,0.55,-0.55,-0.62,-0.56,-1.46,-1.38,-1.39
468.71,-0.82,0.51,-0.76,0.57,-0.57,-0.61,-0.56,-1.39,-1.33,-1.33
473.40,-0.69,0.60,-0.69,0.59,-0.59,-0.61,-0.57,-1.28,-1.28,-1.29
