frequency,raw,error,smoothed,error_smoothed,equalization,parametric_eq,fixed_band_eq,equalized_raw,equalized_smoothed,target
20.00,16.73,4.38,16.71,4.36,-4.36,-4.40,-1.73,12.37,12.35,12.35
20.20,16.71,4.37,16.70,4.36,-4.36,-4.40,-1.78,12.35,12.34,12.34
20.40,16.69,4.36,16.69,4.36,-4.36,-4.38,-1.83,12.33,12.33,12.33
20.61,16.67,4.34,16.68,4.35,-4.35,-4.37,-1.88,12.31,12.32,12.33
20.81,16.65,4.34,16.67,4.35,-4.35,-4.36,-1.93,12.29,12.31,12.31
21.02,16.63,4.32,16.65,4.35,-4.35,-4.35,-1.98,12.28,12.30,12.30
21.23,16.63,4.33,16.64,4.35,-4.35,-4.34,-2.04,12.28,12.30,12.29
21.44,16.63,4.32,16.63,4.34,-4.34,-4.33,-2.10,12.28,12.29,12.30
21.66,16.63,4.33,16.62,4.34,-4.34,-4.31,-2.16,12.29,12.28,12.29
21.87,16.63,4.34,16.61,4.33,-4.33,-4.30,-2.22,12.29,12.28,12.28
22.09,16.62,4.35,16.59,4.32,-4.32,-4.28,-2.28,12.29,12.27,12.27
22.31,16.60,4.33,16.58,4.32,-4.32,-4.27,-2.34,12.28,12.26,12.27
22.54,16.59,4.33,16.57,4.31,-4.31,-4.26,-2.41,12.28,12.26,12.26
22.76,16.57,4.31,16.55,4.30,-4.30,-4.24,-2.48,12.26,12.25,12.26
22.99,16.55,4.30,16.54,4.29,-4.29,-4.22,-2.54,12.25,12.25,12.25
23.22,16.53,4.29,16.53,4.28,-4.28,-4.21,-2.61,12.24,12.25,12.23
23.45,16.50,4.25,16.51,4.27,-4.27,-4.19,-2.69,12.22,12.24,12.24
23.69,16.47,4.23,16.50,4.26,-4.26,-4.18,-2.76,12.21,12.24,12.23
23.92,16.45,4.22,16.47,4.24,-4.24,-4.16,-2.83,12.21,12.24,12.23
24.16,16.44,4.20,16.45,4.21,-4.21,-4.14,-2.91,12.22,12.24,12.24
24.40,16.44,4.19,16.43,4.19,-4.19,-4.12,-2.99,12.25,12.24,12.25
24.65,16.44,4.19,16.41,4.17,-4.17,-4.11,-3.06,12.27,12.24,12.25
24.89,16.43,4.19,16.39,4.15,-4.15,-4.09,-3.14,12.29,12.24,12.24
25.14,16.40,4.16,16.37,4.13,-4.13,-4.07,-3.22,12.28,12.24,12.24
25.39,16.35,4.11,16.35,4.10,-4.10,-4.05,-3.30,12.25,12.24,12.24
25.65,16.32,4.08,16.33,4.08,-4.08,-4.04,-3.38,12.23,12.25,12.24
25.91,16.27,4.02,16.31,4.06,-4.06,-4.02,-3.46,12.20,12.25,12.25
26.16,16.25,3.99,16.29,4.04,-4.04,-4.00,-3.54,12.20,12.25,12.25
26.43,16.25,3.99,16.27,4.02,-4.02,-3.98,-3.62,12.22,12.25,12.25
26.69,16.25,4.00,16.25,4.00,-4.00,-3.96,-3.70,12.25,12.25,12.25
26.96,16.25,4.00,16.22,3.98,-3.98,-3.94,-3.78,12.27,12.25,12.25
27.23,16.23,3.98,16.20,3.95,-3.95,-3.92,-3.85,12.27,12.25,12.25
27.50,16.20,3.95,16.18,3.93,-3.93,-3.91,-3.93,12.26,12.25,12.24
27.77,16.16,3.91,16.15,3.91,-3.91,-3.89,-4.00,12.26,12.25,12.25
28.05,16.14,3.89,16.13,3.89,-3.89,-3.87,-4.07,12.25,12.25,12.25
28.33,16.12,3.88,16.11,3.87,-3.87,-3.85,-4.13,12.25,12.24,12.24
28.62,16.09,3.85,16.09,3.85,-3.85,-3.83,-4.19,12.24,12.24,12.23
28.90,16.06,3.82,16.06,3.82,-3.82,-3.81,-4.25,12.23,12.24,12.24
29.19,16.03,3.79,16.03,3.80,-3.80,-3.80,-4.30,12.23,12.24,12.24
29.48,16.01,3.77,16.00,3.77,-3.77,-3.78,-4.35,12.24,12.23,12.23
29.78,15.98,3.75,15.97,3.74,-3.74,-3.76,-4.39,12.23,12.23,12.23
30.08,15.95,3.71,15.94,3.72,-3.72,-3.74,-4.43,12.22,12.22,12.24
30.38,15.92,3.69,15.92,3.71,-3.71,-3.72,-4.46,12.21,12.22,12.22
30.68,15.89,3.68,15.90,3.69,-3.69,-3.71,-4.49,12.20,12.21,12.21
30.99,15.86,3.65,15.87,3.67,-3.67,-3.69,-4.51,12.18,12.20,12.20
31.30,15.84,3.64,15.85,3.65,-3.65,-3.67,-4.52,12.18,12.19,12.19
31.61,15.81,3.62,15.82,3.63,-3.63,-3.65,-4.53,12.17,12.19,12.19
31.93,15.79,3.61,15.79,3.61,-3.61,-3.64,-4.53,12.17,12.18,12.17
32.24,15.78,3.61,15.76,3.59,-3.59,-3.62,-4.52,12.18,12.17,12.17
32.57,15.77,3.61,15.74,3.58,-3.58,-3.60,-4.51,12.19,12.16,12.15
32.89,15.77,3.62,15.72,3.56,-3.56,-3.59,-4.50,12.20,12.16,12.15
33.22,15.73,3.58,15.70,3.55,-3.55,-3.57,-4.48,12.17,12.15,12.14
33.55,15.66,3.53,15.68,3.53,-3.53,-3.56,-4.45,12.13,12.14,12.14
33.89,15.61,3.46,15.65,3.52,-3.52,-3.54,-4.42,12.09,12.14,12.14
34.23,15.59,3.46,15.63,3.50,-3.50,-3.53,-4.39,12.09,12.13,12.13
34.57,15.58,3.45,15.61,3.48,-3.48,-3.51,-4.35,12.09,12.12,12.12
34.92,15.57,3.45,15.58,3.47,-3.47,-3.50,-4.31,12.10,12.12,12.11
35.27,15.57,3.45,15.56,3.45,-3.45,-3.49,-4.27,12.11,12.11,12.12
35.62,15.57,3.46,15.53,3.43,-3.43,-3.47,-4.22,12.13,12.10,12.10
35.97,15.56,3.47,15.50,3.41,-3.41,-3.46,-4.18,12.15,12.09,12.09
36.33,15.50,3.43,15.47,3.40,-3.40,-3.45,-4.13,12.11,12.07,12.08
36.70,15.44,3.38,15.44,3.39,-3.39,-3.43,-4.08,12.05,12.05,12.06
37.06,15.38,3.33,15.41,3.38,-3.38,-3.42,-4.03,12.00,12.03,12.04
37.43,15.38,3.36,15.38,3.37,-3.37,-3.41,-3.98,12.01,12.01,12.01
37.81,15.38,3.38,15.35,3.36,-3.36,-3.40,-3.93,12.01,11.99,12.00
38.19,15.34,3.37,15.32,3.35,-3.35,-3.39,-3.88,11.98,11.96,11.97
38.57,15.27,3.33,15.28,3.35,-3.35,-3.38,-3.83,11.92,11.94,11.94
38.95,15.20,3.29,15.25,3.34,-3.34,-3.37,-3.78,11.86,11.91,11.91
39.34,15.18,3.31,15.21,3.33,-3.33,-3.36,-3.74,11.85,11.88,11.87
39.74,15.18,3.33,15.17,3.32,-3.32,-3.35,-3.69,11.85,11.85,11.85
40.14,15.16,3.34,15.14,3.32,-3.32,-3.34,-3.65,11.84,11.82,11.82
40.54,15.13,3.34,15.11,3.32,-3.32,-3.33,-3.61,11.81,11.79,11.79
40.94,15.09,3.33,15.08,3.32,-3.32,-3.32,-3.57,11.77,11.76,11.76
41.35,15.06,3.32,15.04,3.31,-3.31,-3.32,-3.53,11.75,11.73,11.73
41.76,15.01,3.32,15.00,3.30,-3.30,-3.31,-3.50,11.71,11.70,11.69
42.18,14.98,3.31,14.97,3.30,-3.30,-3.30,-3.47,11.68,11.67,11.67
42.60,14.93,3.29,14.93,3.29,-3.29,-3.30,-3.44,11.64,11.64,11.65
43.03,14.90,3.28,14.90,3.28,-3.28,-3.29,-3.41,11.61,11.61,11.61
43.46,14.86,3.28,14.86,3.28,-3.28,-3.29,-3.39,11.58,11.58,11.58
43.90,14.82,3.26,14.82,3.27,-3.27,-3.28,-3.36,11.55,11.55,11.55
44.33,14.77,3.26,14.78,3.26,-3.26,-3.28,-3.34,11.51,11.52,11.52
44.78,14.73,3.24,14.74,3.25,-3.25,-3.28,-3.33,11.47,11.49,11.48
45.23,14.70,3.23,14.70,3.25,-3.25,-3.27,-3.31,11.45,11.45,11.47
45.68,14.68,3.25,14.67,3.25,-3.25,-3.27,-3.30,11.42,11.41,11.42
46.13,14.63,3.26,14.63,3.25,-3.25,-3.27,-3.29,11.38,11.37,11.37
46.60,14.58,3.24,14.59,3.25,-3.25,-3.27,-3.28,11.32,11.33,11.34
47.06,14.52,3.22,14.54,3.25,-3.25,-3.27,-3.28,11.26,11.29,11.30
47.53,14.52,3.26,14.50,3.26,-3.26,-3.27,-3.28,11.26,11.24,11.26
48.01,14.52,3.32,14.46,3.27,-3.27,-3.27,-3.28,11.25,11.20,11.20
48.49,14.44,3.29,14.42,3.27,-3.27,-3.27,-3.28,11.16,11.15,11.15
48.97,14.35,3.25,14.38,3.28,-3.28,-3.27,-3.28,11.07,11.10,11.10
49.46,14.34,3.28,14.33,3.28,-3.28,-3.27,-3.29,11.06,11.05,11.05
49.96,14.33,3.34,14.29,3.29,-3.29,-3.27,-3.30,11.04,11.00,10.98
50.46,14.24,3.30,14.25,3.30,-3.30,-3.27,-3.31,10.94,10.95,10.94
50.96,14.15,3.25,14.20,3.31,-3.31,-3.28,-3.32,10.84,10.90,10.89
51.47,14.14,3.29,14.16,3.32,-3.32,-3.28,-3.33,10.82,10.85,10.85
51.99,14.14,3.34,14.12,3.33,-3.33,-3.28,-3.35,10.81,10.79,10.79
52.51,14.09,3.34,14.08,3.34,-3.34,-3.29,-3.37,10.75,10.74,10.74
53.03,14.04,3.33,14.03,3.34,-3.34,-3.29,-3.38,10.69,10.69,10.71
53.56,13.98,3.33,13.99,3.35,-3.35,-3.30,-3.40,10.63,10.64,10.65
54.10,13.94,3.35,13.95,3.36,-3.36,-3.30,-3.42,10.57,10.59,10.59
54.64,13.94,3.40,13.91,3.37,-3.37,-3.31,-3.44,10.56,10.54,10.54
55.18,13.90,3.43,13.86,3.37,-3.37,-3.32,-3.46,10.53,10.49,10.48
55.74,13.84,3.41,13.82,3.38,-3.38,-3.32,-3.47,10.46,10.44,10.42
56.29,13.77,3.38,13.78,3.39,-3.39,-3.33,-3.49,10.38,10.39,10.38
56.86,13.71,3.37,13.74,3.39,-3.39,-3.34,-3.51,10.31,10.34,10.34
57.42,13.68,3.40,13.69,3.40,-3.40,-3.35,-3.53,10.28,10.29,10.27
58.00,13.66,3.42,13.64,3.40,-3.40,-3.36,-3.54,10.25,10.24,10.23
58.58,13.60,3.40,13.60,3.41,-3.41,-3.37,-3.56,10.18,10.18,10.20
59.16,13.55,3.40,13.55,3.42,-3.42,-3.38,-3.57,10.12,10.13,10.15
59.76,13.51,3.41,13.50,3.44,-3.44,-3.39,-3.58,10.07,10.07,10.10
60.35,13.44,3.42,13.46,3.45,-3.45,-3.40,-3.59,10.00,10.01,10.03
60.96,13.38,3.41,13.41,3.46,-3.46,-3.41,-3.60,9.92,9.95,9.96
61.57,13.37,3.47,13.36,3.47,-3.47,-3.42,-3.61,9.90,9.89,9.89
62.18,13.35,3.53,13.31,3.48,-3.48,-3.43,-3.61,9.86,9.82,9.82
62.80,13.27,3.52,13.26,3.50,-3.50,-3.45,-3.62,9.77,9.76,9.74
63.43,13.22,3.54,13.21,3.51,-3.51,-3.46,-3.62,9.70,9.69,9.67
64.07,13.17,3.55,13.15,3.53,-3.53,-3.47,-3.61,9.64,9.62,9.62
64.71,13.12,3.57,13.10,3.55,-3.55,-3.48,-3.61,9.57,9.55,9.55
65.35,13.05,3.57,13.05,3.56,-3.56,-3.50,-3.61,9.49,9.48,9.49
66.01,12.99,3.57,13.00,3.58,-3.58,-3.51,-3.60,9.40,9.41,9.41
66.67,12.93,3.57,12.94,3.60,-3.60,-3.53,-3.59,9.33,9.35,9.36
67.33,12.85,3.58,12.89,3.62,-3.62,-3.54,-3.58,9.24,9.28,9.28
68.01,12.79,3.58,12.84,3.64,-3.64,-3.56,-3.57,9.15,9.21,9.21
68.69,12.79,3.65,12.79,3.65,-3.65,-3.57,-3.56,9.13,9.13,9.13
69.37,12.77,3.69,12.73,3.67,-3.67,-3.59,-3.55,9.10,9.06,9.07
70.07,12.74,3.74,12.68,3.69,-3.69,-3.60,-3.54,9.05,8.99,8.99
70.77,12.63,3.70,12.63,3.71,-3.71,-3.62,-3.52,8.91,8.92,8.92
71.48,12.58,3.72,12.58,3.73,-3.73,-3.64,-3.51,8.84,8.84,8.85
72.19,12.54,3.77,12.53,3.76,-3.76,-3.65,-3.50,8.78,8.77,8.77
72.91,12.47,3.77,12.47,3.78,-3.78,-3.67,-3.48,8.69,8.70,8.69
73.64,12.43,3.81,12.42,3.80,-3.80,-3.69,-3.47,8.63,8.62,8.62
74.38,12.37,3.82,12.37,3.82,-3.82,-3.71,-3.46,8.55,8.55,8.55
75.12,12.30,3.83,12.31,3.83,-3.83,-3.72,-3.45,8.47,8.48,8.47
75.87,12.24,3.83,12.25,3.84,-3.84,-3.74,-3.44,8.40,8.41,8.41
76.63,12.20,3.86,12.19,3.85,-3.85,-3.76,-3.44,8.35,8.34,8.34
77.40,12.16,3.88,12.13,3.86,-3.86,-3.78,-3.43,8.30,8.28,8.27
78.17,12.10,3.89,12.08,3.87,-3.87,-3.80,-3.43,8.23,8.21,8.20
78.95,12.02,3.88,12.02,3.88,-3.88,-3.82,-3.43,8.14,8.14,8.15
79.74,11.95,3.88,11.96,3.89,-3.89,-3.84,-3.43,8.07,8.07,8.08
80.54,11.89,3.87,11.91,3.90,-3.90,-3.86,-3.43,7.99,8.01,8.01
81.35,11.84,3.89,11.85,3.91,-3.91,-3.87,-3.43,7.93,7.94,7.94
82.16,11.79,3.90,11.79,3.92,-3.92,-3.89,-3.44,7.87,7.87,7.88
82.98,11.74,3.92,11.74,3.93,-3.93,-3.91,-3.45,7.81,7.81,7.81
83.81,11.69,3.94,11.68,3.94,-3.94,-3.93,-3.46,7.74,7.74,7.74
84.65,11.63,3.96,11.62,3.95,-3.95,-3.95,-3.48,7.67,7.67,7.67
85.50,11.58,3.99,11.56,3.96,-3.96,-3.97,-3.49,7.61,7.60,7.58
86.35,11.51,3.99,11.50,3.97,-3.97,-3.99,-3.51,7.53,7.52,7.52
87.22,11.42,3.96,11.44,3.98,-3.98,-4.01,-3.54,7.43,7.45,7.45
88.09,11.36,3.98,11.38,4.00,-4.00,-4.03,-3.56,7.36,7.38,7.38
88.97,11.36,4.05,11.32,4.01,-4.01,-4.05,-3.59,7.34,7.30,7.31
89.86,11.27,4.05,11.26,4.03,-4.03,-4.07,-3.62,7.24,7.23,7.22
90.76,11.19,4.03,11.20,4.05,-4.05,-4.09,-3.65,7.14,7.15,7.15
91.66,11.13,4.07,11.13,4.07,-4.07,-4.11,-3.69,7.07,7.07,7.06
92.58,11.05,4.06,11.07,4.09,-4.09,-4.13,-3.73,6.96,6.98,6.99
93.51,10.98,4.07,11.00,4.10,-4.10,-4.15,-3.77,6.87,6.90,6.91
94.44,10.94,4.11,10.94,4.12,-4.12,-4.17,-3.81,6.81,6.81,6.83
95.39,10.88,4.14,10.87,4.14,-4.14,-4.19,-3.86,6.73,6.73,6.73
96.34,10.83,4.18,10.81,4.17,-4.17,-4.21,-3.91,6.66,6.64,6.64
97.30,10.76,4.21,10.74,4.19,-4.19,-4.23,-3.96,6.56,6.55,6.55
98.28,10.69,4.23,10.67,4.22,-4.22,-4.24,-4.01,6.47,6.45,6.45
99.26,10.62,4.27,10.60,4.24,-4.24,-4.26,-4.06,6.38,6.36,6.35
100.25,10.53,4.27,10.53,4.26,-4.26,-4.28,-4.12,6.26,6.27,6.25
101.25,10.44,4.28,10.46,4.29,-4.29,-4.30,-4.18,6.16,6.17,6.17
102.27,10.33,4.25,10.38,4.30,-4.30,-4.32,-4.24,6.02,6.08,6.07
103.29,10.31,4.33,10.30,4.32,-4.32,-4.34,-4.30,5.98,5.98,5.98
104.32,10.25,4.35,10.22,4.33,-4.33,-4.35,-4.36,5.91,5.89,5.89
105.37,10.16,4.36,10.14,4.34,-4.34,-4.37,-4.42,5.81,5.79,5.80
106.42,10.09,4.38,10.06,4.35,-4.35,-4.39,-4.48,5.73,5.70,5.70
107.48,10.00,4.40,9.97,4.36,-4.36,-4.41,-4.54,5.63,5.61,5.60
108.56,9.92,4.39,9.89,4.38,-4.38,-4.42,-4.60,5.54,5.52,5.52
109.64,9.81,4.39,9.81,4.39,-4.39,-4.44,-4.66,5.43,5.43,5.43
110.74,9.70,4.36,9.74,4.40,-4.40,-4.45,-4.72,5.29,5.34,5.33
111.85,9.63,4.38,9.66,4.42,-4.42,-4.47,-4.77,5.21,5.25,5.25
112.97,9.55,4.38,9.59,4.43,-4.43,-4.48,-4.82,5.12,5.16,5.16
114.10,9.50,4.42,9.51,4.44,-4.44,-4.50,-4.87,5.06,5.07,5.08
115.24,9.44,4.45,9.43,4.44,-4.44,-4.51,-4.92,4.99,4.99,4.99
116.39,9.38,4.48,9.35,4.45,-4.45,-4.53,-4.96,4.93,4.90,4.89
117.55,9.32,4.50,9.29,4.46,-4.46,-4.54,-5.00,4.85,4.82,4.82
118.73,9.24,4.51,9.22,4.47,-4.47,-4.55,-5.04,4.76,4.75,4.73
119.92,9.18,4.52,9.16,4.49,-4.49,-4.57,-5.06,4.69,4.67,4.66
121.12,9.09,4.49,9.10,4.51,-4.51,-4.58,-5.09,4.58,4.59,4.59
122.33,9.04,4.52,9.04,4.53,-4.53,-4.59,-5.11,4.50,4.51,4.51
123.55,8.97,4.52,8.99,4.55,-4.55,-4.60,-5.12,4.42,4.44,4.45
124.79,8.89,4.51,8.92,4.56,-4.56,-4.61,-5.13,4.33,4.36,4.38
126.03,8.83,4.53,8.85,4.56,-4.56,-4.62,-5.13,4.26,4.29,4.30
127.29,8.77,4.54,8.79,4.57,-4.57,-4.63,-5.13,4.19,4.22,4.22
128.57,8.75,4.60,8.72,4.58,-4.58,-4.64,-5.12,4.17,4.15,4.15
129.85,8.75,4.67,8.66,4.58,-4.58,-4.65,-5.10,4.16,4.07,4.07
131.15,8.63,4.63,8.59,4.59,-4.59,-4.66,-5.08,4.03,4.00,4.00
132.46,8.58,4.65,8.53,4.60,-4.60,-4.67,-5.06,3.97,3.93,3.92
133.79,8.49,4.64,8.46,4.61,-4.61,-4.67,-5.03,3.88,3.86,3.85
135.12,8.38,4.60,8.40,4.62,-4.62,-4.68,-5.00,3.76,3.78,3.78
136.48,8.28,4.56,8.34,4.63,-4.63,-4.68,-4.96,3.65,3.71,3.72
137.84,8.21,4.55,8.28,4.64,-4.64,-4.69,-4.92,3.57,3.64,3.65
139.22,8.20,4.63,8.21,4.64,-4.64,-4.69,-4.87,3.56,3.57,3.56
140.61,8.18,4.67,8.14,4.64,-4.64,-4.70,-4.83,3.53,3.50,3.51
142.02,8.05,4.62,8.08,4.65,-4.65,-4.70,-4.78,3.40,3.43,3.43
143.44,8.02,4.66,8.01,4.64,-4.64,-4.70,-4.73,3.37,3.36,3.36
144.87,7.98,4.68,7.94,4.64,-4.64,-4.70,-4.68,3.34,3.30,3.29
146.32,7.90,4.66,7.87,4.64,-4.64,-4.71,-4.63,3.25,3.23,3.23
147.78,7.83,4.66,7.80,4.64,-4.64,-4.71,-4.58,3.18,3.16,3.16
149.26,7.78,4.68,7.74,4.64,-4.64,-4.71,-4.53,3.13,3.09,3.09
150.75,7.67,4.65,7.67,4.65,-4.65,-4.70,-4.47,3.02,3.02,3.01
152.26,7.58,4.62,7.61,4.65,-4.65,-4.70,-4.42,2.92,2.96,2.96
153.78,7.53,4.63,7.54,4.65,-4.65,-4.70,-4.37,2.88,2.89,2.89
155.32,7.48,4.65,7.46,4.64,-4.64,-4.70,-4.33,2.83,2.82,2.83
156.88,7.35,4.59,7.39,4.64,-4.64,-4.69,-4.28,2.71,2.75,2.76
158.44,7.27,4.58,7.31,4.63,-4.63,-4.69,-4.24,2.63,2.68,2.68
160.03,7.25,4.63,7.24,4.62,-4.62,-4.68,-4.19,2.62,2.61,2.61
161.63,7.18,4.63,7.16,4.62,-4.62,-4.67,-4.15,2.56,2.54,2.54
163.24,7.10,4.63,7.09,4.62,-4.62,-4.67,-4.12,2.48,2.47,2.47
164.88,7.05,4.64,7.01,4.61,-4.61,-4.66,-4.08,2.43,2.40,2.40
166.53,7.02,4.69,6.94,4.61,-4.61,-4.65,-4.05,2.40,2.33,2.33
168.19,6.88,4.61,6.87,4.61,-4.61,-4.64,-4.02,2.26,2.26,2.26
169.87,6.75,4.56,6.80,4.61,-4.61,-4.63,-3.99,2.14,2.19,2.19
171.57,6.69,4.57,6.72,4.60,-4.60,-4.62,-3.97,2.09,2.12,2.12
173.29,6.64,4.59,6.64,4.59,-4.59,-4.61,-3.95,2.04,2.05,2.05
175.02,6.56,4.56,6.57,4.58,-4.58,-4.60,-3.93,1.97,1.99,1.99
176.77,6.52,4.59,6.50,4.57,-4.57,-4.58,-3.91,1.94,1.92,1.92
178.54,6.45,4.59,6.42,4.56,-4.56,-4.57,-3.90,1.89,1.86,1.86
180.32,6.37,4.57,6.35,4.55,-4.55,-4.55,-3.89,1.81,1.80,1.79
182.13,6.29,4.55,6.29,4.55,-4.55,-4.54,-3.89,1.74,1.74,1.74
183.95,6.24,4.55,6.23,4.55,-4.55,-4.52,-3.88,1.69,1.68,1.69
185.79,6.14,4.51,6.17,4.54,-4.54,-4.50,-3.88,1.59,1.63,1.62
187.65,6.08,4.50,6.12,4.55,-4.55,-4.48,-3.89,1.53,1.57,1.57
189.52,6.03,4.51,6.06,4.54,-4.54,-4.46,-3.89,1.48,1.52,1.52
191.42,5.98,4.50,6.00,4.53,-4.53,-4.44,-3.90,1.44,1.47,1.48
193.33,5.96,4.53,5.94,4.52,-4.52,-4.42,-3.91,1.43,1.42,1.42
195.27,5.90,4.53,5.88,4.51,-4.51,-4.40,-3.92,1.39,1.36,1.36
197.22,5.88,4.57,5.81,4.50,-4.50,-4.38,-3.94,1.38,1.32,1.31
199.19,5.81,4.54,5.75,4.48,-4.48,-4.36,-3.96,1.32,1.27,1.27
201.18,5.73,4.51,5.69,4.47,-4.47,-4.33,-3.97,1.25,1.22,1.21
203.19,5.64,4.46,5.64,4.46,-4.46,-4.31,-3.99,1.17,1.17,1.17
205.23,5.54,4.40,5.57,4.44,-4.44,-4.28,-4.02,1.09,1.13,1.13
207.28,5.46,4.36,5.50,4.42,-4.42,-4.26,-4.04,1.04,1.08,1.09
209.35,5.40,4.35,5.42,4.39,-4.39,-4.23,-4.06,1.01,1.04,1.04
211.44,5.35,4.35,5.35,4.36,-4.36,-4.20,-4.09,0.99,0.99,0.99
213.56,5.28,4.32,5.27,4.32,-4.32,-4.17,-4.11,0.96,0.95,0.96
215.69,5.23,4.31,5.19,4.28,-4.28,-4.14,-4.13,0.94,0.91,0.91
217.85,5.16,4.28,5.12,4.25,-4.25,-4.11,-4.16,0.90,0.87,0.88
220.03,5.10,4.27,5.05,4.22,-4.22,-4.08,-4.18,0.88,0.83,0.82
222.23,4.99,4.20,4.98,4.18,-4.18,-4.05,-4.20,0.80,0.80,0.79
224.45,4.88,4.12,4.91,4.14,-4.14,-4.02,-4.22,0.73,0.76,0.75
226.70,4.74,4.01,4.84,4.11,-4.11,-3.99,-4.23,0.63,0.73,0.72
228.96,4.73,4.02,4.77,4.07,-4.07,-3.95,-4.25,0.66,0.70,0.70
231.25,4.75,4.07,4.71,4.03,-4.03,-3.92,-4.26,0.72,0.68,0.68
233.57,4.68,4.03,4.64,3.98,-3.98,-3.88,-4.27,0.69,0.66,0.65
235.90,4.56,3.93,4.58,3.94,-3.94,-3.85,-4.27,0.62,0.64,0.63
238.26,4.58,3.96,4.51,3.89,-3.89,-3.81,-4.27,0.68,0.62,0.61
240.64,4.50,3.88,4.46,3.85,-3.85,-3.77,-4.26,0.64,0.61,0.61
243.05,4.37,3.77,4.41,3.81,-3.81,-3.73,-4.25,0.55,0.59,0.60
245.48,4.27,3.69,4.36,3.78,-3.78,-3.70,-4.23,0.49,0.58,0.58
247.93,4.29,3.72,4.31,3.74,-3.74,-3.66,-4.21,0.55,0.57,0.56
250.41,4.31,3.74,4.26,3.70,-3.70,-3.62,-4.19,0.61,0.56,0.57
252.92,4.19,3.62,4.20,3.65,-3.65,-3.58,-4.15,0.53,0.55,0.56
255.45,4.13,3.59,4.14,3.61,-3.61,-3.53,-4.12,0.52,0.54,0.54
258.00,4.11,3.57,4.08,3.56,-3.56,-3.49,-4.07,0.55,0.52,0.53
260.58,4.07,3.55,4.02,3.51,-3.51,-3.45,-4.03,0.56,0.51,0.52
263.19,3.99,3.48,3.96,3.46,-3.46,-3.41,-3.97,0.52,0.50,0.51
265.82,3.98,3.49,3.89,3.41,-3.41,-3.36,-3.92,0.56,0.48,0.48
268.48,3.84,3.36,3.83,3.36,-3.36,-3.32,-3.85,0.47,0.46,0.47
271.16,3.72,3.27,3.77,3.32,-3.32,-3.27,-3.79,0.40,0.45,0.45
273.87,3.66,3.22,3.70,3.27,-3.27,-3.23,-3.72,0.39,0.44,0.44
276.61,3.66,3.24,3.63,3.21,-3.21,-3.18,-3.65,0.45,0.42,0.42
279.38,3.54,3.15,3.56,3.15,-3.15,-3.13,-3.57,0.38,0.41,0.39
282.17,3.47,3.08,3.50,3.10,-3.10,-3.09,-3.49,0.36,0.40,0.39
284.99,3.41,3.03,3.43,3.04,-3.04,-3.04,-3.41,0.36,0.39,0.38
287.84,3.36,2.98,3.36,2.98,-2.98,-2.99,-3.32,0.37,0.38,0.38
290.72,3.30,2.94,3.29,2.92,-2.92,-2.94,-3.24,0.38,0.37,0.36
293.63,3.23,2.87,3.23,2.87,-2.87,-2.89,-3.15,0.36,0.36,0.36
296.57,3.15,2.78,3.16,2.81,-2.81,-2.84,-3.06,0.34,0.35,0.36
299.53,3.18,2.82,3.10,2.75,-2.75,-2.79,-2.97,0.43,0.35,0.35
302.53,3.06,2.70,3.04,2.69,-2.69,-2.74,-2.88,0.36,0.35,0.35
305.55,2.97,2.62,2.98,2.63,-2.63,-2.69,-2.79,0.33,0.34,0.35
308.61,2.91,2.56,2.91,2.57,-2.57,-2.64,-2.70,0.33,0.34,0.35
311.69,2.84,2.50,2.85,2.52,-2.52,-2.58,-2.61,0.32,0.34,0.33
314.81,2.76,2.42,2.78,2.45,-2.45,-2.53,-2.52,0.30,0.33,0.34
317.96,2.71,2.39,2.71,2.39,-2.39,-2.48,-2.43,0.32,0.33,0.32
321.14,2.66,2.33,2.64,2.32,-2.32,-2.42,-2.34,0.34,0.32,0.32
324.35,2.62,2.30,2.57,2.25,-2.25,-2.37,-2.25,0.37,0.32,0.32
327.59,2.46,2.13,2.50,2.19,-2.19,-2.31,-2.17,0.27,0.32,0.32
330.87,2.43,2.11,2.43,2.11,-2.11,-2.26,-2.08,0.31,0.31,0.32
334.18,2.45,2.14,2.35,2.04,-2.04,-2.20,-2.00,0.41,0.31,0.30
337.52,2.33,2.02,2.28,1.97,-1.97,-2.15,-1.91,0.35,0.31,0.31
340.90,2.18,1.87,2.21,1.91,-1.91,-2.09,-1.83,0.27,0.31,0.30
344.30,2.11,1.80,2.15,1.84,-1.84,-2.03,-1.75,0.27,0.31,0.31
347.75,2.06,1.74,2.08,1.77,-1.77,-1.98,-1.67,0.28,0.31,0.31
351.23,2.00,1.70,2.02,1.71,-1.71,-1.92,-1.59,0.28,0.31,0.30
354.74,1.95,1.63,1.96,1.65,-1.65,-1.86,-1.51,0.30,0.31,0.31
358.28,1.89,1.58,1.90,1.59,-1.59,-1.80,-1.43,0.30,0.31,0.31
361.87,1.86,1.54,1.85,1.54,-1.54,-1.74,-1.35,0.32,0.32,0.31
365.49,1.74,1.41,1.81,1.49,-1.49,-1.68,-1.28,0.25,0.32,0.32
369.14,1.77,1.44,1.76,1.44,-1.44,-1.62,-1.21,0.33,0.32,0.33
372.83,1.76,1.42,1.72,1.39,-1.39,-1.56,-1.13,0.36,0.33,0.33
376.56,1.71,1.38,1.68,1.35,-1.35,-1.50,-1.06,0.35,0.33,0.33
380.33,1.64,1.31,1.64,1.31,-1.31,-1.44,-0.99,0.32,0.33,0.33
384.13,1.60,1.26,1.59,1.26,-1.26,-1.38,-0.92,0.33,0.32,0.33
387.97,1.54,1.20,1.53,1.21,-1.21,-1.32,-0.85,0.33,0.32,0.33
391.85,1.51,1.18,1.48,1.16,-1.16,-1.26,-0.79,0.35,0.32,0.33
395.77,1.45,1.13,1.42,1.11,-1.11,-1.20,-0.72,0.34,0.31,0.32
399.73,1.43,1.11,1.36,1.05,-1.05,-1.13,-0.65,0.37,0.31,0.31
403.72,1.34,1.02,1.30,1.00,-1.00,-1.07,-0.59,0.34,0.30,0.32
407.76,1.26,0.96,1.24,0.94,-0.94,-1.01,-0.53,0.31,0.30,0.30
411.84,1.17,0.87,1.17,0.88,-0.88,-0.94,-0.47,0.28,0.29,0.30
415.96,1.07,0.77,1.12,0.83,-0.83,-0.88,-0.40,0.24,0.29,0.29
420.12,0.99,0.70,1.07,0.77,-0.77,-0.82,-0.34,0.21,0.29,0.28
424.32,0.94,0.65,1.02,0.72,-0.72,-0.75,-0.28,0.21,0.30,0.29
428.56,0.97,0.66,0.97,0.66,-0.66,-0.69,-0.23,0.31,0.31,0.31
432.85,0.98,0.65,0.93,0.59,-0.59,-0.63,-0.17,0.38,0.33,0.32
437.18,0.88,0.54,0.88,0.53,-0.53,-0.56,-0.11,0.35,0.36,0.33
441.55,0.85,0.47,0.85,0.46,-0.46,-0.50,-0.06,0.39,0.39,0.37
445.96,0.82,0.41,0.82,0.40,-0.40,-0.43,-0.01,0.42,0.42,0.41
450.42,0.83,0.38,0.80,0.33,-0.33,-0.37,0.05,0.49,0.47,0.45
454.93,0.82,0.32,0.78,0.27,-0.27,-0.30,0.10,0.55,0.51,0.50
459.48,0.82,0.26,0.75,0.19,-0.19,-0.24,0.15,0.62,0.56,0.55
464.07,0.75,0.12,0.74,0.13,-0.13,-0.17,0.19,0.62,0.62,0.62
468.71,0.70,0.02,0.73,0.06,-0.06,-0.11,0.24,0.63,0.67,0.67
473.40,0.61,-0.12,0.72,-0.01,0.01,-0.04,0.29,0.61,0.72,0.73
478.13,0.67,-0.12,0.70,-0.08,0.08,0.02,0.33,0.74,0.78,0.79
482.91,0.70,-0.14,0.68,-0.14,0.14,0.09,0.37,0.84,0.83,0.84
487.74,0.71,-0.17,0.67,-0.20,0.20,0.16,0.41,0.91,0.87,0.88
