frequency,raw,error,smoothed,error_smoothed,equalization,parametric_eq,fixed_band_eq,equalized_raw,equalized_smoothed,target
20.00,-6.11,-13.83,-6.12,-13.83,13.83,13.55,5.27,7.72,7.71,7.71
20.20,-6.03,-13.74,-6.04,-13.74,13.74,13.49,5.41,7.71,7.70,7.70
20.40,-5.96,-13.65,-5.96,-13.65,13.65,13.42,5.54,7.69,7.69,7.69
20.61,-5.89,-13.57,-5.88,-13.56,13.56,13.35,5.68,7.67,7.68,7.68
20.81,-5.80,-13.46,-5.80,-13.47,13.47,13.27,5.82,7.66,7.66,7.66
21.02,-5.72,-13.37,-5.72,-13.38,13.38,13.20,5.97,7.65,7.65,7.65
21.23,-5.64,-13.28,-5.64,-13.29,13.29,13.12,6.12,7.64,7.64,7.64
21.44,-5.56,-13.21,-5.56,-13.20,13.20,13.04,6.27,7.64,7.63,7.65
21.66,-5.48,-13.11,-5.49,-13.11,13.11,12.96,6.43,7.62,7.62,7.63
21.87,-5.41,-13.04,-5.41,-13.02,13.02,12.88,6.59,7.61,7.62,7.62
22.09,-5.33,-12.94,-5.33,-12.93,12.93,12.80,6.76,7.60,7.61,7.60
22.31,-5.25,-12.85,-5.25,-12.85,12.85,12.72,6.93,7.60,7.60,7.60
22.54,-5.17,-12.76,-5.17,-12.76,12.76,12.64,7.11,7.60,7.59,7.59
22.76,-5.08,-12.67,-5.09,-12.67,12.67,12.55,7.29,7.59,7.59,7.59
22.99,-5.00,-12.58,-5.01,-12.59,12.59,12.47,7.48,7.59,7.58,7.58
23.22,-4.92,-12.49,-4.93,-12.51,12.51,12.38,7.67,7.58,7.58,7.57
23.45,-4.84,-12.42,-4.85,-12.42,12.42,12.30,7.86,7.58,7.57,7.58
23.69,-4.77,-12.34,-4.77,-12.34,12.34,12.22,8.06,7.56,7.57,7.56
23.92,-4.69,-12.25,-4.69,-12.25,12.25,12.13,8.27,7.56,7.56,7.55
24.16,-4.61,-12.18,-4.61,-12.17,12.17,12.05,8.48,7.56,7.56,7.56
24.40,-4.53,-12.09,-4.53,-12.09,12.09,11.97,8.69,7.55,7.56,7.56
24.65,-4.45,-12.01,-4.45,-12.01,12.01,11.88,8.91,7.55,7.55,7.56
24.89,-4.37,-11.93,-4.38,-11.93,11.93,11.80,9.14,7.55,7.55,7.56
25.14,-4.29,-11.84,-4.30,-11.85,11.85,11.72,9.37,7.55,7.55,7.55
25.39,-4.22,-11.77,-4.22,-11.77,11.77,11.64,9.60,7.54,7.55,7.54
25.65,-4.14,-11.69,-4.14,-11.69,11.69,11.55,9.84,7.54,7.55,7.54
25.91,-4.07,-11.61,-4.07,-11.61,11.61,11.47,10.08,7.54,7.54,7.54
26.16,-3.98,-11.53,-3.99,-11.53,11.53,11.39,10.33,7.55,7.54,7.55
26.43,-3.91,-11.46,-3.91,-11.45,11.45,11.31,10.57,7.54,7.54,7.55
26.69,-3.83,-11.38,-3.83,-11.38,11.38,11.23,10.82,7.54,7.54,7.54
26.96,-3.75,-11.30,-3.76,-11.30,11.30,11.15,11.07,7.54,7.54,7.54
27.23,-3.68,-11.22,-3.68,-11.22,11.22,11.07,11.32,7.54,7.54,7.54
27.50,-3.60,-11.14,-3.60,-11.15,11.15,10.99,11.56,7.54,7.54,7.54
27.77,-3.52,-11.07,-3.53,-11.07,11.07,10.92,11.80,7.55,7.55,7.54
28.05,-3.45,-10.99,-3.45,-11.00,11.00,10.84,12.04,7.54,7.55,7.54
28.33,-3.37,-10.92,-3.37,-10.92,10.92,10.76,12.27,7.55,7.55,7.55
28.62,-3.30,-10.84,-3.30,-10.84,10.84,10.69,12.49,7.55,7.55,7.55
28.90,-3.22,-10.78,-3.22,-10.77,10.77,10.61,12.69,7.54,7.55,7.55
29.19,-3.14,-10.69,-3.15,-10.69,10.69,10.53,12.89,7.55,7.54,7.55
29.48,-3.07,-10.62,-3.07,-10.61,10.61,10.46,13.06,7.54,7.54,7.55
29.78,-2.99,-10.54,-3.00,-10.54,10.54,10.38,13.21,7.54,7.54,7.54
30.08,-2.92,-10.46,-2.92,-10.46,10.46,10.31,13.34,7.53,7.54,7.54
30.38,-2.85,-10.38,-2.85,-10.38,10.38,10.24,13.44,7.53,7.53,7.53
30.68,-2.78,-10.31,-2.78,-10.31,10.31,10.16,13.52,7.52,7.53,7.52
30.99,-2.70,-10.22,-2.71,-10.23,10.23,10.09,13.57,7.53,7.52,7.52
31.30,-2.64,-10.16,-2.65,-10.16,10.16,10.02,13.58,7.51,7.51,7.51
31.61,-2.57,-10.08,-2.58,-10.08,10.08,9.95,13.57,7.51,7.50,7.51
31.93,-2.51,-10.00,-2.51,-10.01,10.01,9.87,13.53,7.50,7.50,7.49
32.24,-2.44,-9.93,-2.45,-9.94,9.94,9.80,13.45,7.49,7.49,7.49
32.57,-2.38,-9.86,-2.39,-9.87,9.87,9.73,13.35,7.48,7.48,7.48
32.89,-2.32,-9.79,-2.32,-9.80,9.80,9.66,13.23,7.47,7.47,7.47
33.22,-2.26,-9.73,-2.26,-9.73,9.73,9.59,13.08,7.46,7.47,7.47
33.55,-2.20,-9.66,-2.20,-9.66,9.66,9.51,12.92,7.45,7.46,7.46
33.89,-2.14,-9.59,-2.14,-9.59,9.59,9.44,12.74,7.44,7.45,7.45
34.23,-2.08,-9.51,-2.08,-9.52,9.52,9.37,12.54,7.44,7.44,7.43
34.57,-2.02,-9.45,-2.02,-9.45,9.45,9.30,12.33,7.43,7.43,7.42
34.92,-1.96,-9.37,-1.96,-9.38,9.38,9.23,12.12,7.42,7.42,7.41
35.27,-1.90,-9.33,-1.90,-9.31,9.31,9.16,11.89,7.41,7.41,7.42
35.62,-1.84,-9.24,-1.85,-9.24,9.24,9.08,11.67,7.40,7.39,7.39
35.97,-1.78,-9.17,-1.79,-9.17,9.17,9.01,11.44,7.38,7.38,7.39
36.33,-1.73,-9.10,-1.73,-9.10,9.10,8.94,11.20,7.36,7.36,7.37
36.70,-1.67,-9.02,-1.68,-9.02,9.02,8.87,10.97,7.35,7.34,7.34
37.06,-1.62,-8.95,-1.62,-8.95,8.95,8.79,10.74,7.33,7.33,7.33
37.43,-1.56,-8.87,-1.57,-8.87,8.87,8.72,10.51,7.31,7.31,7.31
37.81,-1.51,-8.80,-1.51,-8.80,8.80,8.64,10.29,7.29,7.29,7.29
38.19,-1.45,-8.71,-1.46,-8.72,8.72,8.57,10.07,7.27,7.26,7.26
38.57,-1.40,-8.65,-1.40,-8.64,8.64,8.50,9.85,7.24,7.24,7.24
38.95,-1.35,-8.57,-1.35,-8.56,8.56,8.42,9.64,7.21,7.22,7.22
39.34,-1.29,-8.49,-1.29,-8.48,8.48,8.34,9.43,7.19,7.19,7.19
39.74,-1.24,-8.41,-1.24,-8.40,8.40,8.27,9.23,7.16,7.17,7.16
40.14,-1.18,-8.33,-1.18,-8.32,8.32,8.19,9.03,7.14,7.14,7.14
40.54,-1.12,-8.24,-1.12,-8.24,8.24,8.11,8.84,7.12,7.12,7.12
40.94,-1.06,-8.15,-1.06,-8.16,8.16,8.04,8.65,7.10,7.09,7.09
41.35,-1.00,-8.07,-1.01,-8.08,8.08,7.96,8.47,7.07,7.07,7.07
41.76,-0.94,-7.98,-0.95,-7.99,7.99,7.88,8.30,7.05,7.04,7.04
42.18,-0.88,-7.91,-0.89,-7.91,7.91,7.80,8.13,7.02,7.02,7.02
42.60,-0.82,-7.81,-0.83,-7.82,7.82,7.72,7.96,7.00,6.99,6.99
43.03,-0.77,-7.74,-0.77,-7.73,7.73,7.64,7.80,6.96,6.96,6.97
43.46,-0.71,-7.65,-0.71,-7.64,7.64,7.55,7.65,6.93,6.94,6.93
43.90,-0.64,-7.55,-0.65,-7.55,7.55,7.47,7.50,6.91,6.91,6.91
44.33,-0.59,-7.47,-0.59,-7.46,7.46,7.39,7.36,6.87,6.88,6.87
44.78,-0.53,-7.38,-0.52,-7.37,7.37,7.31,7.22,6.83,6.84,6.85
45.23,-0.47,-7.30,-0.46,-7.27,7.27,7.22,7.08,6.80,6.81,6.82
45.68,-0.40,-7.18,-0.40,-7.18,7.18,7.14,6.96,6.77,6.77,6.77
46.13,-0.34,-7.08,-0.35,-7.08,7.08,7.05,6.83,6.74,6.73,6.74
46.60,-0.28,-6.98,-0.29,-6.98,6.98,6.96,6.71,6.70,6.70,6.70
47.06,-0.21,-6.87,-0.23,-6.88,6.88,6.88,6.60,6.67,6.65,6.66
47.53,-0.16,-6.78,-0.17,-6.78,6.78,6.79,6.49,6.62,6.61,6.62
48.01,-0.11,-6.68,-0.11,-6.68,6.68,6.70,6.38,6.57,6.57,6.56
48.49,-0.06,-6.58,-0.06,-6.58,6.58,6.61,6.28,6.52,6.52,6.52
48.97,-0.00,-6.47,-0.01,-6.48,6.48,6.52,6.18,6.48,6.47,6.47
49.46,0.04,-6.39,0.04,-6.39,6.39,6.43,6.09,6.42,6.43,6.43
49.96,0.09,-6.28,0.09,-6.29,6.29,6.34,5.99,6.38,6.38,6.36
50.46,0.14,-6.20,0.13,-6.20,6.20,6.25,5.91,6.34,6.33,6.33
50.96,0.19,-6.10,0.18,-6.11,6.11,6.15,5.82,6.30,6.29,6.29
51.47,0.23,-6.01,0.22,-6.02,6.02,6.06,5.74,6.25,6.24,6.24
51.99,0.27,-5.92,0.26,-5.93,5.93,5.97,5.66,6.20,6.19,6.19
52.51,0.31,-5.84,0.30,-5.84,5.84,5.87,5.58,6.15,6.15,6.15
53.03,0.34,-5.77,0.35,-5.75,5.75,5.78,5.50,6.09,6.10,6.11
53.56,0.38,-5.69,0.39,-5.67,5.67,5.69,5.43,6.04,6.05,6.06
54.10,0.42,-5.59,0.43,-5.58,5.58,5.59,5.36,6.00,6.01,6.00
54.64,0.46,-5.51,0.46,-5.50,5.50,5.49,5.29,5.96,5.96,5.96
55.18,0.50,-5.41,0.50,-5.42,5.42,5.40,5.22,5.91,5.92,5.91
55.74,0.55,-5.31,0.54,-5.34,5.34,5.30,5.15,5.88,5.87,5.86
56.29,0.59,-5.24,0.57,-5.26,5.26,5.21,5.08,5.84,5.83,5.82
56.86,0.62,-5.16,0.61,-5.17,5.17,5.11,5.01,5.79,5.78,5.78
57.42,0.66,-5.07,0.65,-5.09,5.09,5.01,4.94,5.75,5.73,5.72
58.00,0.69,-4.99,0.68,-5.00,5.00,4.92,4.87,5.69,5.69,5.68
58.58,0.72,-4.92,0.72,-4.92,4.92,4.82,4.80,5.63,5.63,5.64
59.16,0.75,-4.85,0.76,-4.83,4.83,4.72,4.72,5.57,5.58,5.60
59.76,0.79,-4.77,0.79,-4.73,4.73,4.62,4.65,5.52,5.53,5.55
60.35,0.82,-4.67,0.83,-4.64,4.64,4.52,4.58,5.46,5.47,5.49
60.96,0.87,-4.56,0.87,-4.54,4.54,4.43,4.50,5.41,5.42,5.43
61.57,0.91,-4.45,0.91,-4.44,4.44,4.33,4.42,5.35,5.36,5.35
62.18,0.95,-4.34,0.95,-4.34,4.34,4.23,4.34,5.29,5.30,5.29
62.80,0.99,-4.24,0.99,-4.24,4.24,4.13,4.26,5.23,5.24,5.22
63.43,1.03,-4.13,1.03,-4.14,4.14,4.03,4.17,5.17,5.17,5.16
64.07,1.08,-4.02,1.07,-4.04,4.04,3.94,4.09,5.11,5.11,5.10
64.71,1.13,-3.91,1.11,-3.94,3.94,3.84,4.00,5.06,5.05,5.04
65.35,1.17,-3.81,1.15,-3.83,3.83,3.74,3.91,5.00,4.98,4.98
66.01,1.21,-3.71,1.19,-3.73,3.73,3.64,3.82,4.94,4.92,4.92
66.67,1.24,-3.63,1.22,-3.63,3.63,3.54,3.72,4.87,4.85,4.86
67.33,1.26,-3.53,1.26,-3.53,3.53,3.45,3.63,4.79,4.79,4.79
68.01,1.29,-3.45,1.29,-3.43,3.43,3.35,3.53,4.72,4.73,4.73
68.69,1.32,-3.35,1.33,-3.34,3.34,3.25,3.43,4.65,4.66,4.67
69.37,1.35,-3.26,1.36,-3.24,3.24,3.15,3.33,4.59,4.60,4.61
70.07,1.38,-3.16,1.39,-3.14,3.14,3.06,3.22,4.52,4.53,4.54
70.77,1.42,-3.05,1.42,-3.05,3.05,2.96,3.12,4.46,4.46,4.47
71.48,1.45,-2.96,1.45,-2.95,2.95,2.86,3.02,4.40,4.40,4.40
72.19,1.48,-2.85,1.47,-2.86,2.86,2.77,2.91,4.33,4.33,4.33
72.91,1.51,-2.75,1.50,-2.76,2.76,2.67,2.80,4.27,4.26,4.26
73.64,1.54,-2.65,1.53,-2.67,2.67,2.57,2.70,4.21,4.20,4.19
74.38,1.57,-2.56,1.55,-2.58,2.58,2.48,2.59,4.14,4.13,4.12
75.12,1.59,-2.48,1.58,-2.48,2.48,2.38,2.48,4.07,4.07,4.06
75.87,1.62,-2.39,1.61,-2.39,2.39,2.29,2.38,4.01,4.00,4.00
76.63,1.64,-2.29,1.64,-2.30,2.30,2.19,2.27,3.94,3.94,3.93
77.40,1.66,-2.22,1.67,-2.21,2.21,2.10,2.16,3.86,3.88,3.88
78.17,1.69,-2.12,1.70,-2.11,2.11,2.00,2.06,3.80,3.81,3.80
78.95,1.71,-2.05,1.73,-2.02,2.02,1.91,1.95,3.73,3.75,3.76
79.74,1.75,-1.95,1.76,-1.93,1.93,1.82,1.84,3.68,3.69,3.69
80.54,1.79,-1.85,1.79,-1.84,1.84,1.72,1.74,3.62,3.63,3.64
81.35,1.83,-1.74,1.82,-1.75,1.75,1.63,1.63,3.57,3.57,3.57
82.16,1.87,-1.65,1.85,-1.65,1.65,1.54,1.53,3.52,3.51,3.52
82.98,1.90,-1.55,1.88,-1.56,1.56,1.44,1.42,3.46,3.44,3.45
83.81,1.93,-1.46,1.91,-1.47,1.47,1.35,1.32,3.39,3.38,3.38
84.65,1.96,-1.36,1.94,-1.37,1.37,1.26,1.21,3.33,3.32,3.31
85.50,1.98,-1.27,1.97,-1.28,1.28,1.17,1.11,3.26,3.25,3.25
86.35,2.00,-1.19,1.99,-1.19,1.19,1.08,1.00,3.19,3.18,3.18
87.22,2.02,-1.10,2.01,-1.10,1.10,0.99,0.90,3.12,3.12,3.12
88.09,2.04,-1.01,2.03,-1.02,1.02,0.90,0.80,3.05,3.05,3.05
88.97,2.06,-0.93,2.05,-0.93,0.93,0.81,0.70,2.99,2.98,2.98
89.86,2.07,-0.85,2.07,-0.85,0.85,0.72,0.59,2.91,2.91,2.91
90.76,2.09,-0.76,2.08,-0.76,0.76,0.63,0.49,2.85,2.84,2.84
91.66,2.10,-0.67,2.10,-0.67,0.67,0.54,0.39,2.77,2.77,2.76
92.58,2.12,-0.59,2.12,-0.58,0.58,0.45,0.29,2.69,2.70,2.70
93.51,2.14,-0.50,2.14,-0.48,0.48,0.36,0.19,2.62,2.62,2.63
94.44,2.15,-0.41,2.16,-0.39,0.39,0.28,0.09,2.54,2.55,2.56
95.39,2.17,-0.31,2.19,-0.29,0.29,0.19,-0.01,2.46,2.48,2.48
96.34,2.19,-0.22,2.21,-0.19,0.19,0.10,-0.11,2.38,2.40,2.40
97.30,2.22,-0.11,2.24,-0.09,0.09,0.02,-0.21,2.31,2.33,2.33
98.28,2.26,0.01,2.26,0.01,-0.01,-0.07,-0.31,2.25,2.26,2.25
99.26,2.29,0.11,2.29,0.10,-0.10,-0.15,-0.41,2.18,2.18,2.17
100.25,2.33,0.23,2.31,0.20,-0.20,-0.24,-0.51,2.13,2.11,2.10
101.25,2.36,0.32,2.33,0.29,-0.29,-0.32,-0.61,2.06,2.04,2.03
102.27,2.38,0.41,2.35,0.38,-0.38,-0.41,-0.71,1.99,1.97,1.97
103.29,2.39,0.49,2.37,0.47,-0.47,-0.49,-0.80,1.92,1.90,1.89
104.32,2.41,0.58,2.38,0.56,-0.56,-0.58,-0.90,1.85,1.83,1.83
105.37,2.42,0.65,2.40,0.64,-0.64,-0.66,-0.99,1.78,1.76,1.76
106.42,2.43,0.73,2.41,0.72,-0.72,-0.74,-1.09,1.70,1.69,1.70
107.48,2.43,0.81,2.43,0.81,-0.81,-0.82,-1.18,1.62,1.62,1.62
108.56,2.43,0.87,2.44,0.89,-0.89,-0.91,-1.27,1.54,1.55,1.56
109.64,2.43,0.94,2.46,0.97,-0.97,-0.99,-1.36,1.45,1.48,1.49
110.74,2.44,1.02,2.47,1.06,-1.06,-1.07,-1.45,1.37,1.41,1.42
111.85,2.47,1.13,2.49,1.15,-1.15,-1.15,-1.53,1.31,1.34,1.34
112.97,2.50,1.22,2.51,1.25,-1.25,-1.23,-1.62,1.25,1.27,1.28
114.10,2.53,1.32,2.54,1.34,-1.34,-1.31,-1.70,1.18,1.20,1.20
115.24,2.57,1.45,2.57,1.44,-1.44,-1.39,-1.78,1.13,1.13,1.12
116.39,2.59,1.54,2.59,1.54,-1.54,-1.47,-1.85,1.05,1.05,1.05
117.55,2.62,1.64,2.62,1.64,-1.64,-1.54,-1.93,0.98,0.98,0.97
118.73,2.66,1.76,2.65,1.73,-1.73,-1.62,-2.00,0.92,0.92,0.90
119.92,2.70,1.86,2.68,1.83,-1.83,-1.70,-2.07,0.87,0.85,0.84
121.12,2.72,1.94,2.70,1.92,-1.92,-1.78,-2.13,0.79,0.78,0.78
122.33,2.74,2.03,2.72,2.01,-2.01,-1.85,-2.19,0.72,0.71,0.71
123.55,2.76,2.11,2.73,2.10,-2.10,-1.93,-2.25,0.66,0.64,0.65
124.79,2.77,2.19,2.75,2.17,-2.17,-2.01,-2.31,0.59,0.57,0.58
126.03,2.77,2.25,2.75,2.25,-2.25,-2.08,-2.36,0.52,0.50,0.51
127.29,2.77,2.32,2.76,2.32,-2.32,-2.16,-2.41,0.44,0.44,0.45
128.57,2.76,2.39,2.76,2.39,-2.39,-2.23,-2.45,0.36,0.37,0.37
129.85,2.75,2.44,2.76,2.46,-2.46,-2.30,-2.49,0.29,0.30,0.30
131.15,2.75,2.52,2.76,2.53,-2.53,-2.38,-2.53,0.22,0.23,0.23
132.46,2.75,2.58,2.76,2.59,-2.59,-2.45,-2.57,0.16,0.17,0.17
133.79,2.75,2.65,2.75,2.65,-2.65,-2.52,-2.61,0.09,0.10,0.09
135.12,2.75,2.71,2.75,2.72,-2.72,-2.59,-2.64,0.03,0.03,0.03
136.48,2.75,2.77,2.75,2.78,-2.78,-2.67,-2.67,-0.03,-0.03,-0.03
137.84,2.75,2.84,2.75,2.84,-2.84,-2.74,-2.70,-0.10,-0.10,-0.10
139.22,2.75,2.91,2.74,2.90,-2.90,-2.81,-2.72,-0.16,-0.16,-0.16
140.61,2.75,2.97,2.74,2.96,-2.96,-2.88,-2.75,-0.22,-0.22,-0.22
142.02,2.75,3.03,2.74,3.02,-3.02,-2.95,-2.78,-0.28,-0.28,-0.29
143.44,2.75,3.09,2.75,3.08,-3.08,-3.01,-2.80,-0.34,-0.34,-0.34
144.87,2.75,3.14,2.75,3.14,-3.14,-3.08,-2.83,-0.40,-0.40,-0.39
146.32,2.75,3.20,2.75,3.20,-3.20,-3.15,-2.85,-0.45,-0.45,-0.45
147.78,2.75,3.25,2.75,3.25,-3.25,-3.22,-2.88,-0.51,-0.51,-0.51
149.26,2.75,3.31,2.75,3.31,-3.31,-3.28,-2.90,-0.56,-0.56,-0.56
150.75,2.75,3.37,2.75,3.36,-3.36,-3.35,-2.93,-0.62,-0.62,-0.62
152.26,2.75,3.42,2.75,3.42,-3.42,-3.41,-2.95,-0.67,-0.67,-0.67
153.78,2.75,3.47,2.75,3.47,-3.47,-3.48,-2.98,-0.73,-0.73,-0.72
155.32,2.75,3.52,2.75,3.53,-3.53,-3.54,-3.01,-0.78,-0.78,-0.78
156.88,2.75,3.58,2.75,3.58,-3.58,-3.61,-3.04,-0.84,-0.84,-0.83
158.44,2.75,3.64,2.75,3.64,-3.64,-3.67,-3.08,-0.89,-0.89,-0.89
160.03,2.75,3.69,2.75,3.69,-3.69,-3.73,-3.11,-0.95,-0.95,-0.94
161.63,2.75,3.75,2.75,3.75,-3.75,-3.79,-3.15,-1.00,-1.00,-1.00
163.24,2.75,3.81,2.75,3.81,-3.81,-3.85,-3.19,-1.06,-1.06,-1.06
164.88,2.75,3.86,2.75,3.86,-3.86,-3.91,-3.23,-1.12,-1.12,-1.12
166.53,2.75,3.93,2.75,3.92,-3.92,-3.97,-3.27,-1.17,-1.17,-1.18
168.19,2.75,3.97,2.75,3.98,-3.98,-4.03,-3.32,-1.23,-1.23,-1.22
169.87,2.75,4.03,2.75,4.03,-4.03,-4.09,-3.37,-1.29,-1.29,-1.29
171.57,2.75,4.09,2.75,4.09,-4.09,-4.14,-3.42,-1.34,-1.34,-1.35
173.29,2.75,4.14,2.75,4.15,-4.15,-4.20,-3.48,-1.40,-1.40,-1.40
175.02,2.75,4.20,2.75,4.20,-4.20,-4.25,-3.53,-1.46,-1.46,-1.46
176.77,2.75,4.26,2.75,4.26,-4.26,-4.31,-3.60,-1.51,-1.51,-1.51
178.54,2.75,4.32,2.75,4.32,-4.32,-4.36,-3.66,-1.57,-1.57,-1.57
180.32,2.75,4.38,2.75,4.37,-4.37,-4.41,-3.72,-1.62,-1.62,-1.63
182.13,2.75,4.42,2.75,4.43,-4.43,-4.47,-3.79,-1.68,-1.68,-1.68
183.95,2.75,4.48,2.75,4.48,-4.48,-4.52,-3.87,-1.74,-1.74,-1.73
185.79,2.75,4.54,2.75,4.53,-4.53,-4.57,-3.94,-1.79,-1.79,-1.79
187.65,2.75,4.59,2.75,4.59,-4.59,-4.62,-4.02,-1.84,-1.84,-1.84
189.52,2.75,4.64,2.75,4.64,-4.64,-4.66,-4.10,-1.89,-1.89,-1.89
191.42,2.75,4.69,2.75,4.69,-4.69,-4.71,-4.18,-1.94,-1.94,-1.94
193.33,2.75,4.73,2.75,4.74,-4.74,-4.76,-4.26,-1.99,-1.99,-1.99
195.27,2.75,4.79,2.75,4.78,-4.78,-4.80,-4.35,-2.04,-2.04,-2.04
197.22,2.75,4.84,2.75,4.83,-4.83,-4.85,-4.44,-2.08,-2.08,-2.10
199.19,2.75,4.88,2.75,4.87,-4.87,-4.89,-4.53,-2.13,-2.13,-2.13
201.18,2.75,4.93,2.75,4.92,-4.92,-4.93,-4.63,-2.17,-2.17,-2.18
203.19,2.75,4.96,2.75,4.96,-4.96,-4.97,-4.72,-2.21,-2.21,-2.21
205.23,2.75,4.99,2.75,5.00,-5.00,-5.01,-4.81,-2.25,-2.25,-2.25
207.28,2.75,5.03,2.75,5.04,-5.04,-5.05,-4.91,-2.29,-2.29,-2.29
209.35,2.75,5.07,2.75,5.07,-5.07,-5.09,-5.01,-2.33,-2.33,-2.32
211.44,2.75,5.11,2.75,5.11,-5.11,-5.13,-5.10,-2.36,-2.36,-2.36
213.56,2.75,5.14,2.75,5.14,-5.14,-5.16,-5.20,-2.40,-2.40,-2.39
215.69,2.75,5.17,2.75,5.18,-5.18,-5.20,-5.30,-2.43,-2.43,-2.43
217.85,2.75,5.21,2.75,5.21,-5.21,-5.23,-5.39,-2.46,-2.46,-2.46
220.03,2.75,5.24,2.75,5.24,-5.24,-5.26,-5.48,-2.49,-2.49,-2.50
222.23,2.75,5.28,2.75,5.27,-5.27,-5.29,-5.57,-2.52,-2.52,-2.53
224.45,2.75,5.30,2.75,5.30,-5.30,-5.32,-5.65,-2.55,-2.55,-2.55
226.70,2.75,5.33,2.75,5.32,-5.32,-5.35,-5.74,-2.58,-2.58,-2.58
228.96,2.75,5.34,2.75,5.35,-5.35,-5.38,-5.81,-2.60,-2.60,-2.60
231.25,2.75,5.37,2.75,5.37,-5.37,-5.40,-5.89,-2.63,-2.63,-2.63
233.57,2.75,5.39,2.75,5.39,-5.39,-5.43,-5.95,-2.65,-2.65,-2.65
235.90,2.75,5.41,2.75,5.41,-5.41,-5.45,-6.01,-2.67,-2.67,-2.67
238.26,2.75,5.44,2.75,5.43,-5.43,-5.48,-6.07,-2.68,-2.68,-2.69
240.64,2.75,5.44,2.75,5.44,-5.44,-5.50,-6.11,-2.70,-2.70,-2.69
243.05,2.75,5.46,2.75,5.46,-5.46,-5.52,-6.15,-2.71,-2.71,-2.71
245.48,2.75,5.47,2.75,5.47,-5.47,-5.54,-6.19,-2.72,-2.72,-2.73
247.93,2.75,5.49,2.75,5.48,-5.48,-5.55,-6.21,-2.73,-2.73,-2.74
250.41,2.75,5.49,2.75,5.49,-5.49,-5.57,-6.22,-2.74,-2.74,-2.74
252.92,2.75,5.49,2.75,5.50,-5.50,-5.58,-6.23,-2.75,-2.75,-2.74
255.45,2.75,5.51,2.75,5.50,-5.50,-5.60,-6.23,-2.76,-2.76,-2.76
258.00,2.75,5.51,2.75,5.51,-5.51,-5.61,-6.22,-2.77,-2.77,-2.76
260.58,2.75,5.51,2.75,5.52,-5.52,-5.62,-6.20,-2.77,-2.77,-2.77
263.19,2.75,5.52,2.75,5.52,-5.52,-5.63,-6.18,-2.78,-2.78,-2.77
265.82,2.75,5.53,2.75,5.53,-5.53,-5.64,-6.15,-2.78,-2.78,-2.78
268.48,2.75,5.53,2.75,5.54,-5.54,-5.65,-6.11,-2.79,-2.79,-2.79
271.16,2.75,5.53,2.75,5.54,-5.54,-5.65,-6.07,-2.79,-2.79,-2.79
273.87,2.75,5.54,2.75,5.54,-5.54,-5.66,-6.02,-2.80,-2.80,-2.80
276.61,2.75,5.55,2.75,5.55,-5.55,-5.66,-5.97,-2.80,-2.80,-2.80
279.38,2.75,5.57,2.75,5.55,-5.55,-5.66,-5.91,-2.81,-2.81,-2.82
282.17,2.75,5.57,2.75,5.56,-5.56,-5.67,-5.85,-2.81,-2.81,-2.82
284.99,2.75,5.56,2.75,5.56,-5.56,-5.67,-5.79,-2.81,-2.81,-2.81
287.84,2.75,5.56,2.74,5.56,-5.56,-5.66,-5.72,-2.81,-2.81,-2.81
290.72,2.75,5.56,2.74,5.55,-5.55,-5.66,-5.65,-2.81,-2.81,-2.82
293.63,2.75,5.55,2.74,5.55,-5.55,-5.66,-5.59,-2.81,-2.81,-2.81
296.57,2.75,5.55,2.75,5.55,-5.55,-5.65,-5.52,-2.81,-2.81,-2.81
299.53,2.75,5.55,2.75,5.55,-5.55,-5.65,-5.45,-2.81,-2.80,-2.80
302.53,2.75,5.54,2.75,5.55,-5.55,-5.64,-5.38,-2.80,-2.80,-2.79
305.55,2.75,5.55,2.75,5.55,-5.55,-5.63,-5.32,-2.80,-2.80,-2.80
308.61,2.75,5.53,2.76,5.55,-5.55,-5.62,-5.25,-2.80,-2.79,-2.79
311.69,2.75,5.53,2.76,5.54,-5.54,-5.61,-5.19,-2.80,-2.78,-2.78
314.81,2.75,5.53,2.76,5.54,-5.54,-5.60,-5.12,-2.79,-2.78,-2.78
317.96,2.76,5.53,2.76,5.54,-5.54,-5.58,-5.06,-2.78,-2.77,-2.78
321.14,2.77,5.53,2.76,5.53,-5.53,-5.57,-5.01,-2.76,-2.77,-2.76
324.35,2.78,5.55,2.76,5.52,-5.52,-5.55,-4.95,-2.74,-2.76,-2.77
327.59,2.77,5.51,2.75,5.51,-5.51,-5.54,-4.90,-2.74,-2.76,-2.74
330.87,2.76,5.51,2.74,5.49,-5.49,-5.52,-4.85,-2.74,-2.75,-2.75
334.18,2.75,5.49,2.73,5.47,-5.47,-5.50,-4.81,-2.72,-2.74,-2.75
337.52,2.73,5.47,2.71,5.45,-5.45,-5.48,-4.77,-2.72,-2.74,-2.74
340.90,2.71,5.43,2.69,5.42,-5.42,-5.46,-4.73,-2.71,-2.73,-2.73
344.30,2.68,5.40,2.66,5.39,-5.39,-5.44,-4.69,-2.71,-2.72,-2.72
347.75,2.65,5.36,2.64,5.35,-5.35,-5.42,-4.66,-2.71,-2.72,-2.72
351.23,2.61,5.33,2.61,5.32,-5.32,-5.40,-4.63,-2.71,-2.71,-2.72
354.74,2.58,5.27,2.58,5.28,-5.28,-5.37,-4.61,-2.71,-2.70,-2.69
358.28,2.54,5.23,2.55,5.25,-5.25,-5.35,-4.59,-2.71,-2.70,-2.70
361.87,2.51,5.20,2.53,5.22,-5.22,-5.32,-4.57,-2.71,-2.69,-2.69
365.49,2.48,5.16,2.50,5.19,-5.19,-5.30,-4.56,-2.71,-2.68,-2.69
369.14,2.46,5.13,2.48,5.16,-5.16,-5.27,-4.55,-2.70,-2.68,-2.67
372.83,2.45,5.11,2.46,5.13,-5.13,-5.24,-4.54,-2.68,-2.67,-2.66
376.56,2.43,5.09,2.44,5.10,-5.10,-5.21,-4.54,-2.68,-2.66,-2.67
380.33,2.42,5.08,2.43,5.08,-5.08,-5.18,-4.54,-2.66,-2.65,-2.66
384.13,2.42,5.06,2.41,5.05,-5.05,-5.15,-4.54,-2.64,-2.64,-2.64
387.97,2.41,5.04,2.39,5.03,-5.03,-5.12,-4.54,-2.62,-2.64,-2.64
391.85,2.40,5.02,2.37,5.00,-5.00,-5.09,-4.55,-2.60,-2.63,-2.63
395.77,2.39,5.01,2.35,4.97,-4.97,-5.06,-4.56,-2.58,-2.62,-2.62
399.73,2.36,4.97,2.33,4.94,-4.94,-5.02,-4.58,-2.58,-2.61,-2.61
403.72,2.33,4.91,2.30,4.90,-4.90,-4.99,-4.59,-2.58,-2.60,-2.59
407.76,2.29,4.88,2.28,4.87,-4.87,-4.96,-4.61,-2.58,-2.59,-2.59
411.84,2.26,4.84,2.25,4.84,-4.84,-4.92,-4.63,-2.58,-2.58,-2.58
415.96,2.23,4.79,2.23,4.80,-4.80,-4.89,-4.65,-2.58,-2.57,-2.56
420.12,2.19,4.75,2.21,4.77,-4.77,-4.85,-4.68,-2.58,-2.56,-2.57
424.32,2.16,4.71,2.18,4.74,-4.74,-4.81,-4.70,-2.58,-2.56,-2.56
428.56,2.14,4.68,2.16,4.71,-4.71,-4.78,-4.72,-2.57,-2.55,-2.54
432.85,2.12,4.65,2.14,4.68,-4.68,-4.74,-4.75,-2.57,-2.54,-2.53
437.18,2.10,4.63,2.13,4.66,-4.66,-4.70,-4.77,-2.56,-2.53,-2.53
441.55,2.10,4.62,2.11,4.64,-4.64,-4.66,-4.79,-2.54,-2.52,-2.53
445.96,2.11,4.62,2.10,4.61,-4.61,-4.63,-4.81,-2.51,-2.51,-2.52
450.42,2.11,4.62,2.09,4.59,-4.59,-4.59,-4.83,-2.49,-2.51,-2.51
454.93,2.10,4.60,2.07,4.57,-4.57,-4.55,-4.85,-2.48,-2.50,-2.50
459.48,2.09,4.58,2.06,4.55,-4.55,-4.51,-4.87,-2.46,-2.49,-2.49
464.07,2.07,4.54,2.04,4.52,-4.52,-4.47,-4.88,-2.46,-2.48,-2.47
468.71,2.06,4.52,2.02,4.49,-4.49,-4.43,-4.89,-2.44,-2.47,-2.47
473.40,2.02,4.47,2.00,4.46,-4.46,-4.39,-4.90,-2.45,-2.46,-2.46
478.13,1.99,4.43,1.98,4.43,-4.43,-4.35,-4.90,-2.44,-2.45,-2.45
482.91,1.96,4.40,1.95,4.39,-4.39,-4.31,-4.90,-2.43,-2.44,-2.44
487.74,1.92,4.35,1.92,4.35,-4.35,-4.27,-4.89,-2.43,-2.43,-2.43
492.62,1.89,4.31,1.89,4.31,-4.31,-4.22,-4.88,-2.42,-2.42,-2.42
