frequency,raw,error,smoothed,error_smoothed,equalization,parametric_eq,fixed_band_eq,equalized_raw,equalized_smoothed,target
20.00,-6.60,-10.42,-6.59,-10.43,10.43,10.36,4.21,3.83,3.84,3.81
20.20,-6.54,-10.41,-6.53,-10.41,10.41,10.36,4.32,3.87,3.88,3.86
20.40,-6.48,-10.40,-6.48,-10.40,10.40,10.35,4.44,3.91,3.92,3.91
20.61,-6.42,-10.37,-6.43,-10.37,10.37,10.34,4.56,3.95,3.95,3.94
20.81,-6.36,-10.35,-6.37,-10.35,10.35,10.33,4.68,3.99,3.98,3.99
21.02,-6.30,-10.33,-6.32,-10.33,10.33,10.32,4.80,4.02,4.00,4.03
21.23,-6.25,-10.30,-6.27,-10.30,10.30,10.31,4.93,4.05,4.03,4.05
21.44,-6.21,-10.28,-6.22,-10.27,10.27,10.29,5.07,4.06,4.05,4.07
21.66,-6.17,-10.26,-6.16,-10.24,10.24,10.27,5.20,4.06,4.07,4.09
21.87,-6.12,-10.22,-6.11,-10.20,10.20,10.24,5.34,4.08,4.09,4.10
22.09,-6.07,-10.19,-6.06,-10.17,10.17,10.22,5.49,4.09,4.11,4.12
22.31,-6.01,-10.14,-6.01,-10.13,10.13,10.19,5.63,4.12,4.12,4.13
22.54,-5.95,-10.08,-5.96,-10.09,10.09,10.16,5.78,4.13,4.12,4.13
22.76,-5.89,-10.02,-5.91,-10.04,10.04,10.13,5.94,4.15,4.13,4.13
22.99,-5.83,-9.95,-5.86,-9.99,9.99,10.09,6.10,4.16,4.13,4.12
23.22,-5.79,-9.91,-5.81,-9.94,9.94,10.05,6.26,4.15,4.13,4.12
23.45,-5.76,-9.88,-5.76,-9.89,9.89,10.02,6.43,4.13,4.13,4.11
23.69,-5.72,-9.85,-5.70,-9.83,9.83,9.98,6.60,4.11,4.13,4.12
23.92,-5.68,-9.80,-5.64,-9.77,9.77,9.94,6.78,4.09,4.13,4.12
24.16,-5.62,-9.75,-5.58,-9.71,9.71,9.89,6.96,4.09,4.13,4.13
24.40,-5.55,-9.69,-5.52,-9.65,9.65,9.85,7.14,4.10,4.13,4.14
24.65,-5.48,-9.61,-5.46,-9.59,9.59,9.80,7.33,4.11,4.13,4.13
24.89,-5.41,-9.54,-5.41,-9.54,9.54,9.76,7.52,4.13,4.13,4.13
25.14,-5.34,-9.47,-5.36,-9.49,9.49,9.71,7.71,4.15,4.13,4.13
25.39,-5.27,-9.41,-5.30,-9.44,9.44,9.66,7.90,4.17,4.13,4.14
25.65,-5.20,-9.34,-5.25,-9.39,9.39,9.62,8.10,4.18,4.13,4.14
25.91,-5.13,-9.26,-5.20,-9.34,9.34,9.57,8.30,4.20,4.13,4.13
26.16,-5.10,-9.23,-5.16,-9.29,9.29,9.52,8.50,4.18,4.13,4.12
26.43,-5.10,-9.23,-5.11,-9.24,9.24,9.47,8.70,4.13,4.13,4.12
26.69,-5.09,-9.21,-5.07,-9.19,9.19,9.42,8.90,4.10,4.13,4.12
26.96,-5.09,-9.22,-5.03,-9.15,9.15,9.37,9.10,4.06,4.12,4.13
27.23,-5.04,-9.17,-4.99,-9.11,9.11,9.32,9.30,4.07,4.12,4.13
27.50,-4.99,-9.12,-4.96,-9.08,9.08,9.27,9.50,4.09,4.12,4.13
27.77,-4.93,-9.05,-4.93,-9.05,9.05,9.22,9.69,4.12,4.12,4.12
28.05,-4.88,-9.00,-4.90,-9.02,9.02,9.17,9.87,4.13,4.12,4.11
28.33,-4.85,-8.95,-4.87,-8.98,8.98,9.13,10.05,4.13,4.11,4.10
28.62,-4.81,-8.91,-4.83,-8.94,8.94,9.08,10.22,4.13,4.11,4.10
28.90,-4.77,-8.88,-4.79,-8.90,8.90,9.03,10.38,4.13,4.11,4.11
29.19,-4.75,-8.85,-4.75,-8.86,8.86,8.98,10.53,4.10,4.11,4.10
29.48,-4.73,-8.85,-4.71,-8.81,8.81,8.94,10.67,4.08,4.11,4.12
29.78,-4.71,-8.82,-4.67,-8.77,8.77,8.89,10.79,4.06,4.10,4.10
30.08,-4.67,-8.78,-4.64,-8.74,8.74,8.85,10.90,4.07,4.10,4.11
30.38,-4.61,-8.71,-4.61,-8.71,8.71,8.81,10.98,4.10,4.10,4.10
30.68,-4.55,-8.65,-4.59,-8.69,8.69,8.77,11.05,4.14,4.10,4.10
30.99,-4.49,-8.59,-4.56,-8.66,8.66,8.72,11.11,4.17,4.10,4.10
31.30,-4.49,-8.59,-4.54,-8.63,8.63,8.68,11.14,4.14,4.09,4.09
31.61,-4.49,-8.58,-4.51,-8.60,8.60,8.65,11.15,4.11,4.09,4.09
31.93,-4.49,-8.58,-4.48,-8.57,8.57,8.61,11.15,4.08,4.09,4.09
32.24,-4.49,-8.57,-4.46,-8.54,8.54,8.57,11.12,4.05,4.08,4.08
32.57,-4.48,-8.56,-4.43,-8.51,8.51,8.54,11.08,4.02,4.08,4.08
32.89,-4.47,-8.55,-4.41,-8.48,8.48,8.51,11.03,4.01,4.07,4.08
33.22,-4.43,-8.50,-4.39,-8.45,8.45,8.48,10.95,4.02,4.07,4.07
33.55,-4.37,-8.43,-4.37,-8.43,8.43,8.45,10.87,4.06,4.06,4.06
33.89,-4.31,-8.36,-4.36,-8.42,8.42,8.42,10.77,4.10,4.06,4.05
34.23,-4.29,-8.35,-4.35,-8.40,8.40,8.39,10.66,4.11,4.05,4.06
34.57,-4.29,-8.34,-4.34,-8.38,8.38,8.37,10.54,4.09,4.05,4.04
34.92,-4.29,-8.33,-4.32,-8.36,8.36,8.34,10.42,4.07,4.04,4.04
35.27,-4.29,-8.33,-4.30,-8.34,8.34,8.32,10.29,4.05,4.04,4.04
35.62,-4.29,-8.32,-4.29,-8.32,8.32,8.30,10.16,4.03,4.03,4.03
35.97,-4.29,-8.32,-4.28,-8.31,8.31,8.28,10.02,4.01,4.03,4.03
36.33,-4.29,-8.33,-4.26,-8.29,8.29,8.27,9.88,4.00,4.03,4.03
36.70,-4.29,-8.31,-4.26,-8.28,8.28,8.25,9.74,3.99,4.03,4.02
37.06,-4.29,-8.31,-4.25,-8.28,8.28,8.24,9.60,3.98,4.03,4.01
37.43,-4.26,-8.29,-4.25,-8.27,8.27,8.23,9.46,4.01,4.02,4.03
37.81,-4.23,-8.26,-4.24,-8.26,8.26,8.22,9.33,4.03,4.02,4.02
38.19,-4.21,-8.23,-4.23,-8.25,8.25,8.21,9.19,4.04,4.02,4.02
38.57,-4.20,-8.23,-4.22,-8.25,8.25,8.20,9.06,4.04,4.02,4.02
38.95,-4.19,-8.22,-4.21,-8.24,8.24,8.20,8.94,4.04,4.02,4.03
39.34,-4.19,-8.21,-4.21,-8.23,8.23,8.20,8.81,4.03,4.02,4.02
39.74,-4.19,-8.21,-4.20,-8.22,8.22,8.20,8.70,4.03,4.02,4.02
40.14,-4.19,-8.21,-4.19,-8.21,8.21,8.20,8.58,4.02,4.02,4.02
40.54,-4.19,-8.21,-4.19,-8.20,8.20,8.20,8.47,4.01,4.01,4.01
40.94,-4.19,-8.20,-4.19,-8.20,8.20,8.20,8.37,4.00,4.01,4.01
41.35,-4.19,-8.19,-4.19,-8.19,8.19,8.21,8.27,4.00,4.00,4.00
41.76,-4.19,-8.19,-4.18,-8.18,8.18,8.21,8.18,3.99,3.99,3.99
42.18,-4.19,-8.19,-4.18,-8.17,8.17,8.22,8.10,3.97,3.98,4.00
42.60,-4.19,-8.17,-4.18,-8.16,8.16,8.23,8.02,3.96,3.97,3.98
43.03,-4.19,-8.16,-4.19,-8.15,8.15,8.24,7.94,3.95,3.96,3.97
43.46,-4.19,-8.15,-4.19,-8.14,8.14,8.25,7.87,3.94,3.95,3.96
43.90,-4.19,-8.13,-4.19,-8.13,8.13,8.26,7.81,3.93,3.93,3.93
44.33,-4.19,-8.11,-4.20,-8.12,8.12,8.27,7.75,3.93,3.92,3.91
44.78,-4.19,-8.09,-4.21,-8.11,8.11,8.28,7.70,3.92,3.90,3.89
45.23,-4.19,-8.08,-4.21,-8.10,8.10,8.29,7.65,3.91,3.89,3.88
45.68,-4.19,-8.06,-4.22,-8.09,8.09,8.30,7.61,3.90,3.87,3.86
46.13,-4.20,-8.05,-4.23,-8.08,8.08,8.31,7.58,3.88,3.86,3.84
46.60,-4.25,-8.09,-4.24,-8.08,8.08,8.33,7.55,3.83,3.84,3.84
47.06,-4.29,-8.11,-4.25,-8.07,8.07,8.34,7.52,3.78,3.82,3.82
47.53,-4.29,-8.10,-4.26,-8.07,8.07,8.35,7.51,3.78,3.81,3.81
48.01,-4.29,-8.10,-4.27,-8.06,8.06,8.35,7.49,3.77,3.79,3.81
48.49,-4.29,-8.08,-4.28,-8.05,8.05,8.36,7.48,3.76,3.77,3.79
48.97,-4.29,-8.05,-4.29,-8.05,8.05,8.37,7.48,3.76,3.76,3.76
49.46,-4.29,-8.03,-4.31,-8.05,8.05,8.37,7.48,3.76,3.74,3.74
49.96,-4.29,-8.01,-4.33,-8.06,8.06,8.37,7.48,3.77,3.73,3.72
50.46,-4.34,-8.05,-4.35,-8.06,8.06,8.37,7.48,3.72,3.71,3.71
50.96,-4.39,-8.09,-4.37,-8.07,8.07,8.36,7.49,3.67,3.70,3.70
51.47,-4.39,-8.06,-4.39,-8.07,8.07,8.36,7.51,3.68,3.68,3.67
51.99,-4.39,-8.05,-4.41,-8.08,8.08,8.35,7.52,3.69,3.66,3.65
52.51,-4.40,-8.05,-4.45,-8.10,8.10,8.33,7.54,3.69,3.65,3.65
53.03,-4.41,-8.05,-4.49,-8.12,8.12,8.32,7.56,3.71,3.63,3.64
53.56,-4.51,-8.14,-4.52,-8.14,8.14,8.29,7.58,3.63,3.62,3.62
54.10,-4.59,-8.20,-4.55,-8.16,8.16,8.27,7.60,3.57,3.60,3.61
54.64,-4.59,-8.18,-4.58,-8.17,8.17,8.24,7.62,3.58,3.59,3.59
55.18,-4.60,-8.18,-4.61,-8.19,8.19,8.21,7.64,3.58,3.58,3.58
55.74,-4.61,-8.17,-4.63,-8.19,8.19,8.17,7.65,3.57,3.56,3.56
56.29,-4.64,-8.19,-4.63,-8.17,8.17,8.12,7.67,3.53,3.54,3.55
56.86,-4.68,-8.21,-4.63,-8.15,8.15,8.08,7.68,3.47,3.53,3.52
57.42,-4.69,-8.18,-4.61,-8.12,8.12,8.03,7.69,3.43,3.51,3.49
58.00,-4.69,-8.17,-4.59,-8.07,8.07,7.97,7.70,3.38,3.48,3.48
58.58,-4.59,-8.06,-4.56,-8.02,8.02,7.91,7.70,3.42,3.46,3.47
59.16,-4.51,-7.95,-4.52,-7.94,7.94,7.84,7.69,3.43,3.43,3.44
59.76,-4.49,-7.91,-4.47,-7.86,7.86,7.77,7.68,3.37,3.39,3.42
60.35,-4.44,-7.81,-4.42,-7.78,7.78,7.70,7.66,3.34,3.36,3.37
60.96,-4.35,-7.69,-4.38,-7.70,7.70,7.62,7.64,3.35,3.32,3.33
61.57,-4.28,-7.57,-4.34,-7.62,7.62,7.54,7.61,3.33,3.28,3.29
62.18,-4.22,-7.46,-4.29,-7.53,7.53,7.46,7.57,3.31,3.24,3.24
62.80,-4.20,-7.39,-4.26,-7.45,7.45,7.37,7.52,3.25,3.19,3.19
63.43,-4.19,-7.33,-4.24,-7.38,7.38,7.28,7.47,3.19,3.15,3.14
64.07,-4.19,-7.28,-4.23,-7.33,7.33,7.19,7.40,3.14,3.10,3.09
64.71,-4.19,-7.23,-4.24,-7.29,7.29,7.09,7.34,3.10,3.05,3.04
65.35,-4.21,-7.20,-4.27,-7.27,7.27,6.99,7.26,3.05,2.99,2.99
66.01,-4.24,-7.18,-4.31,-7.25,7.25,6.89,7.18,3.01,2.94,2.94
66.67,-4.28,-7.17,-4.33,-7.22,7.22,6.79,7.09,2.94,2.89,2.88
67.33,-4.30,-7.13,-4.34,-7.18,7.18,6.68,6.99,2.87,2.83,2.83
68.01,-4.29,-7.07,-4.34,-7.12,7.12,6.58,6.89,2.83,2.78,2.78
68.69,-4.36,-7.09,-4.33,-7.05,7.05,6.47,6.79,2.69,2.72,2.73
69.37,-4.43,-7.10,-4.30,-6.97,6.97,6.37,6.68,2.53,2.66,2.67
70.07,-4.48,-7.09,-4.26,-6.86,6.86,6.26,6.56,2.38,2.61,2.61
70.77,-4.35,-6.91,-4.19,-6.74,6.74,6.15,6.45,2.38,2.55,2.56
71.48,-4.25,-6.75,-4.10,-6.58,6.58,6.04,6.33,2.33,2.48,2.50
72.19,-4.11,-6.54,-3.98,-6.41,6.41,5.94,6.21,2.29,2.42,2.42
72.91,-3.80,-6.16,-3.84,-6.20,6.20,5.83,6.08,2.40,2.36,2.36
73.64,-3.52,-5.82,-3.68,-5.98,5.98,5.72,5.96,2.46,2.30,2.30
74.38,-3.36,-5.59,-3.50,-5.74,5.74,5.61,5.84,2.37,2.23,2.23
75.12,-3.31,-5.48,-3.31,-5.49,5.49,5.51,5.71,2.17,2.17,2.17
75.87,-3.22,-5.32,-3.12,-5.23,5.23,5.40,5.59,2.01,2.11,2.10
76.63,-3.03,-5.07,-2.93,-4.97,4.97,5.30,5.47,1.94,2.05,2.04
77.40,-2.77,-4.75,-2.74,-4.73,4.73,5.19,5.35,1.95,1.98,1.98
78.17,-2.50,-4.41,-2.57,-4.50,4.50,5.09,5.23,2.00,1.92,1.91
78.95,-2.35,-4.22,-2.43,-4.30,4.30,4.99,5.11,1.94,1.87,1.87
79.74,-2.21,-4.02,-2.30,-4.11,4.11,4.89,5.00,1.90,1.81,1.81
80.54,-2.10,-3.86,-2.20,-3.95,3.95,4.79,4.88,1.85,1.75,1.76
81.35,-2.03,-3.72,-2.12,-3.82,3.82,4.69,4.77,1.78,1.69,1.69
82.16,-1.98,-3.62,-2.06,-3.69,3.69,4.60,4.66,1.71,1.64,1.64
82.98,-1.98,-3.57,-2.00,-3.58,3.58,4.50,4.56,1.60,1.58,1.59
83.81,-1.98,-3.51,-1.96,-3.49,3.49,4.41,4.45,1.50,1.53,1.52
84.65,-1.98,-3.45,-1.94,-3.41,3.41,4.32,4.35,1.43,1.47,1.47
85.50,-1.98,-3.40,-1.95,-3.36,3.36,4.23,4.25,1.38,1.41,1.42
86.35,-1.98,-3.34,-1.97,-3.33,3.33,4.14,4.16,1.35,1.35,1.36
87.22,-1.99,-3.29,-2.01,-3.30,3.30,4.05,4.06,1.31,1.30,1.30
88.09,-2.04,-3.28,-2.04,-3.28,3.28,3.97,3.98,1.24,1.24,1.24
88.97,-2.09,-3.27,-2.07,-3.25,3.25,3.88,3.89,1.16,1.18,1.18
89.86,-2.16,-3.28,-2.11,-3.23,3.23,3.80,3.80,1.06,1.12,1.12
90.76,-2.17,-3.23,-2.15,-3.20,3.20,3.72,3.72,1.03,1.06,1.05
91.66,-2.17,-3.17,-2.19,-3.18,3.18,3.64,3.64,1.01,1.00,1.00
92.58,-2.22,-3.15,-2.23,-3.17,3.17,3.56,3.57,0.94,0.94,0.93
93.51,-2.29,-3.17,-2.27,-3.15,3.15,3.49,3.50,0.86,0.88,0.87
94.44,-2.34,-3.16,-2.32,-3.14,3.14,3.41,3.43,0.79,0.82,0.82
95.39,-2.37,-3.14,-2.36,-3.12,3.12,3.34,3.36,0.75,0.76,0.76
96.34,-2.38,-3.08,-2.41,-3.11,3.11,3.27,3.29,0.73,0.70,0.70
97.30,-2.38,-3.02,-2.45,-3.09,3.09,3.20,3.23,0.71,0.64,0.64
98.28,-2.43,-3.02,-2.49,-3.07,3.07,3.13,3.17,0.64,0.59,0.58
99.26,-2.55,-3.08,-2.52,-3.05,3.05,3.06,3.11,0.50,0.53,0.53
100.25,-2.62,-3.09,-2.55,-3.02,3.02,3.00,3.06,0.40,0.47,0.47
101.25,-2.64,-3.06,-2.58,-3.00,3.00,2.93,3.00,0.35,0.41,0.41
102.27,-2.65,-3.01,-2.62,-2.97,2.97,2.87,2.95,0.32,0.35,0.36
103.29,-2.67,-2.96,-2.66,-2.95,2.95,2.81,2.90,0.28,0.30,0.29
104.32,-2.69,-2.93,-2.69,-2.93,2.93,2.75,2.85,0.24,0.24,0.24
105.37,-2.71,-2.90,-2.74,-2.91,2.91,2.69,2.80,0.20,0.18,0.18
106.42,-2.73,-2.86,-2.78,-2.89,2.89,2.63,2.76,0.16,0.11,0.13
107.48,-2.76,-2.82,-2.82,-2.87,2.87,2.58,2.71,0.11,0.05,0.06
108.56,-2.78,-2.77,-2.85,-2.85,2.85,2.52,2.67,0.06,-0.01,-0.01
109.64,-2.80,-2.74,-2.89,-2.82,2.82,2.47,2.63,0.01,-0.07,-0.07
110.74,-2.91,-2.78,-2.92,-2.78,2.78,2.41,2.59,-0.13,-0.13,-0.14
111.85,-3.02,-2.84,-2.95,-2.75,2.75,2.36,2.55,-0.27,-0.19,-0.18
112.97,-3.05,-2.79,-2.98,-2.72,2.72,2.31,2.51,-0.33,-0.25,-0.26
114.10,-3.06,-2.75,-3.00,-2.69,2.69,2.26,2.47,-0.37,-0.31,-0.32
115.24,-3.06,-2.69,-3.02,-2.66,2.66,2.22,2.44,-0.41,-0.37,-0.37
116.39,-3.06,-2.62,-3.04,-2.62,2.62,2.17,2.40,-0.45,-0.42,-0.44
117.55,-3.05,-2.57,-3.05,-2.58,2.58,2.12,2.36,-0.48,-0.48,-0.48
118.73,-3.05,-2.51,-3.06,-2.53,2.53,2.08,2.32,-0.52,-0.53,-0.54
119.92,-3.04,-2.47,-3.05,-2.48,2.48,2.03,2.29,-0.56,-0.57,-0.57
121.12,-3.04,-2.42,-3.05,-2.43,2.43,1.99,2.25,-0.61,-0.62,-0.63
122.33,-3.03,-2.36,-3.04,-2.38,2.38,1.95,2.21,-0.66,-0.67,-0.67
123.55,-3.02,-2.32,-3.03,-2.32,2.32,1.91,2.18,-0.70,-0.71,-0.70
124.79,-3.01,-2.27,-3.02,-2.27,2.27,1.87,2.14,-0.74,-0.75,-0.74
126.03,-3.00,-2.22,-3.01,-2.22,2.22,1.83,2.10,-0.78,-0.79,-0.79
127.29,-3.00,-2.19,-3.01,-2.19,2.19,1.79,2.07,-0.82,-0.83,-0.82
128.57,-2.99,-2.13,-3.02,-2.15,2.15,1.75,2.03,-0.84,-0.87,-0.87
129.85,-2.99,-2.09,-3.03,-2.12,2.12,1.71,1.99,-0.87,-0.90,-0.91
131.15,-3.00,-2.06,-3.04,-2.09,2.09,1.68,1.95,-0.91,-0.94,-0.94
132.46,-3.06,-2.08,-3.05,-2.07,2.07,1.64,1.91,-0.99,-0.98,-0.98
133.79,-3.08,-2.06,-3.06,-2.04,2.04,1.61,1.88,-1.04,-1.02,-1.02
135.12,-3.07,-2.01,-3.08,-2.02,2.02,1.58,1.84,-1.05,-1.05,-1.06
136.48,-3.07,-1.98,-3.09,-2.00,2.00,1.54,1.80,-1.07,-1.09,-1.09
137.84,-3.11,-1.98,-3.11,-1.98,1.98,1.51,1.76,-1.13,-1.13,-1.13
139.22,-3.14,-1.97,-3.12,-1.96,1.96,1.48,1.72,-1.18,-1.16,-1.18
140.61,-3.16,-1.94,-3.13,-1.93,1.93,1.45,1.68,-1.23,-1.20,-1.22
142.02,-3.16,-1.92,-3.15,-1.90,1.90,1.42,1.64,-1.26,-1.24,-1.24
143.44,-3.16,-1.88,-3.15,-1.87,1.87,1.39,1.60,-1.29,-1.28,-1.28
144.87,-3.16,-1.83,-3.16,-1.83,1.83,1.36,1.56,-1.33,-1.33,-1.33
146.32,-3.16,-1.79,-3.16,-1.78,1.78,1.33,1.52,-1.38,-1.38,-1.38
147.78,-3.16,-1.75,-3.17,-1.72,1.72,1.31,1.49,-1.44,-1.44,-1.41
149.26,-3.16,-1.69,-3.17,-1.67,1.67,1.28,1.45,-1.49,-1.50,-1.47
150.75,-3.16,-1.62,-3.17,-1.60,1.60,1.25,1.41,-1.56,-1.57,-1.55
152.26,-3.16,-1.54,-3.17,-1.53,1.53,1.23,1.37,-1.63,-1.64,-1.62
153.78,-3.16,-1.47,-3.16,-1.45,1.45,1.20,1.33,-1.71,-1.71,-1.69
155.32,-3.16,-1.39,-3.16,-1.37,1.37,1.18,1.30,-1.79,-1.79,-1.78
156.88,-3.16,-1.30,-3.15,-1.29,1.29,1.15,1.26,-1.88,-1.87,-1.86
158.44,-3.16,-1.21,-3.15,-1.21,1.21,1.13,1.23,-1.95,-1.95,-1.95
160.03,-3.16,-1.12,-3.15,-1.13,1.13,1.11,1.19,-2.03,-2.02,-2.04
161.63,-3.16,-1.05,-3.15,-1.06,1.06,1.09,1.16,-2.10,-2.09,-2.12
163.24,-3.16,-0.98,-3.16,-1.00,1.00,1.06,1.12,-2.17,-2.16,-2.18
164.88,-3.16,-0.92,-3.16,-0.94,0.94,1.04,1.09,-2.23,-2.22,-2.24
166.53,-3.10,-0.81,-3.16,-0.89,0.89,1.02,1.05,-2.22,-2.28,-2.30
168.19,-3.11,-0.77,-3.17,-0.85,0.85,1.00,1.02,-2.27,-2.32,-2.34
169.87,-3.17,-0.79,-3.17,-0.81,0.81,0.98,0.99,-2.36,-2.36,-2.39
171.57,-3.19,-0.78,-3.18,-0.78,0.78,0.96,0.96,-2.41,-2.39,-2.41
173.29,-3.20,-0.77,-3.18,-0.76,0.76,0.94,0.93,-2.44,-2.42,-2.43
175.02,-3.20,-0.76,-3.19,-0.75,0.75,0.92,0.90,-2.46,-2.44,-2.44
176.77,-3.20,-0.74,-3.19,-0.73,0.73,0.90,0.87,-2.47,-2.46,-2.46
178.54,-3.20,-0.73,-3.19,-0.72,0.72,0.89,0.84,-2.48,-2.47,-2.47
180.32,-3.20,-0.73,-3.19,-0.71,0.71,0.87,0.81,-2.49,-2.48,-2.47
182.13,-3.20,-0.73,-3.19,-0.70,0.70,0.85,0.78,-2.51,-2.49,-2.47
183.95,-3.19,-0.71,-3.18,-0.68,0.68,0.84,0.75,-2.51,-2.50,-2.48
185.79,-3.17,-0.68,-3.18,-0.66,0.66,0.82,0.72,-2.51,-2.51,-2.49
187.65,-3.16,-0.65,-3.16,-0.64,0.64,0.80,0.70,-2.53,-2.53,-2.52
189.52,-3.14,-0.61,-3.15,-0.61,0.61,0.79,0.67,-2.53,-2.54,-2.53
191.42,-3.13,-0.58,-3.14,-0.58,0.58,0.77,0.65,-2.55,-2.56,-2.55
193.33,-3.12,-0.54,-3.13,-0.55,0.55,0.76,0.62,-2.57,-2.58,-2.58
195.27,-3.10,-0.50,-3.12,-0.52,0.52,0.74,0.60,-2.59,-2.60,-2.60
197.22,-3.09,-0.47,-3.10,-0.48,0.48,0.73,0.57,-2.61,-2.62,-2.62
199.19,-3.08,-0.43,-3.09,-0.44,0.44,0.72,0.55,-2.64,-2.64,-2.65
201.18,-3.07,-0.40,-3.07,-0.40,0.40,0.70,0.52,-2.67,-2.67,-2.67
203.19,-3.06,-0.37,-3.06,-0.37,0.37,0.69,0.50,-2.70,-2.69,-2.69
205.23,-3.06,-0.34,-3.05,-0.33,0.33,0.68,0.48,-2.73,-2.72,-2.72
207.28,-3.06,-0.33,-3.04,-0.30,0.30,0.66,0.46,-2.77,-2.74,-2.73
209.35,-3.06,-0.30,-3.03,-0.26,0.26,0.65,0.44,-2.80,-2.76,-2.76
211.44,-3.02,-0.23,-3.02,-0.24,0.24,0.64,0.42,-2.79,-2.79,-2.80
213.56,-2.98,-0.18,-3.01,-0.21,0.21,0.63,0.40,-2.77,-2.80,-2.80
215.69,-2.97,-0.15,-3.01,-0.19,0.19,0.61,0.38,-2.79,-2.82,-2.82
217.85,-2.98,-0.15,-3.00,-0.17,0.17,0.60,0.36,-2.82,-2.83,-2.83
220.03,-2.98,-0.13,-2.99,-0.15,0.15,0.59,0.34,-2.84,-2.85,-2.85
222.23,-2.98,-0.11,-2.99,-0.13,0.13,0.58,0.32,-2.85,-2.86,-2.87
224.45,-2.98,-0.12,-2.98,-0.12,0.12,0.57,0.31,-2.86,-2.86,-2.87
226.70,-2.98,-0.11,-2.97,-0.11,0.11,0.56,0.29,-2.87,-2.86,-2.87
228.96,-2.98,-0.12,-2.97,-0.10,0.10,0.55,0.28,-2.88,-2.86,-2.86
231.25,-2.97,-0.12,-2.96,-0.10,0.10,0.54,0.26,-2.87,-2.86,-2.86
233.57,-2.96,-0.11,-2.95,-0.10,0.10,0.53,0.25,-2.86,-2.85,-2.85
235.90,-2.95,-0.11,-2.94,-0.10,0.10,0.52,0.24,-2.85,-2.84,-2.84
238.26,-2.93,-0.10,-2.93,-0.11,0.11,0.51,0.23,-2.83,-2.82,-2.83
240.64,-2.91,-0.10,-2.91,-0.11,0.11,0.51,0.22,-2.81,-2.80,-2.81
243.05,-2.90,-0.12,-2.89,-0.11,0.11,0.50,0.21,-2.79,-2.79,-2.78
245.48,-2.88,-0.12,-2.88,-0.11,0.11,0.49,0.20,-2.77,-2.77,-2.76
247.93,-2.85,-0.12,-2.86,-0.12,0.12,0.48,0.19,-2.73,-2.74,-2.73
250.41,-2.84,-0.12,-2.85,-0.12,0.12,0.47,0.19,-2.72,-2.72,-2.72
252.92,-2.82,-0.13,-2.83,-0.13,0.13,0.46,0.18,-2.69,-2.70,-2.69
255.45,-2.81,-0.14,-2.82,-0.14,0.14,0.46,0.18,-2.67,-2.68,-2.67
258.00,-2.80,-0.15,-2.81,-0.16,0.16,0.45,0.17,-2.64,-2.66,-2.65
260.58,-2.79,-0.16,-2.81,-0.18,0.18,0.44,0.17,-2.62,-2.63,-2.64
263.19,-2.79,-0.19,-2.80,-0.19,0.19,0.44,0.17,-2.60,-2.61,-2.60
265.82,-2.79,-0.20,-2.80,-0.22,0.22,0.43,0.17,-2.58,-2.59,-2.59
268.48,-2.80,-0.23,-2.80,-0.24,0.24,0.42,0.17,-2.57,-2.56,-2.57
271.16,-2.80,-0.27,-2.80,-0.26,0.26,0.42,0.17,-2.54,-2.54,-2.54
273.87,-2.80,-0.28,-2.80,-0.28,0.28,0.41,0.17,-2.52,-2.52,-2.52
276.61,-2.81,-0.32,-2.80,-0.31,0.31,0.41,0.18,-2.50,-2.49,-2.49
279.38,-2.81,-0.35,-2.80,-0.34,0.34,0.40,0.18,-2.48,-2.47,-2.47
282.17,-2.80,-0.36,-2.80,-0.36,0.36,0.39,0.19,-2.44,-2.44,-2.44
284.99,-2.80,-0.39,-2.79,-0.38,0.38,0.39,0.19,-2.42,-2.41,-2.41
287.84,-2.79,-0.40,-2.78,-0.40,0.40,0.38,0.20,-2.40,-2.39,-2.39
290.72,-2.78,-0.42,-2.77,-0.41,0.41,0.38,0.20,-2.37,-2.36,-2.36
293.63,-2.77,-0.44,-2.76,-0.43,0.43,0.37,0.21,-2.34,-2.33,-2.33
296.57,-2.75,-0.45,-2.75,-0.45,0.45,0.37,0.22,-2.31,-2.30,-2.30
299.53,-2.74,-0.47,-2.73,-0.46,0.46,0.37,0.23,-2.28,-2.27,-2.27
302.53,-2.73,-0.47,-2.72,-0.47,0.47,0.36,0.24,-2.26,-2.25,-2.26
305.55,-2.72,-0.51,-2.71,-0.49,0.49,0.36,0.25,-2.23,-2.22,-2.21
308.61,-2.71,-0.51,-2.70,-0.50,0.50,0.35,0.26,-2.21,-2.20,-2.20
311.69,-2.61,-0.44,-2.70,-0.52,0.52,0.35,0.27,-2.09,-2.18,-2.17
314.81,-2.63,-0.49,-2.69,-0.53,0.53,0.35,0.28,-2.10,-2.16,-2.15
317.96,-2.68,-0.55,-2.69,-0.55,0.55,0.34,0.29,-2.13,-2.14,-2.13
321.14,-2.70,-0.58,-2.69,-0.57,0.57,0.34,0.30,-2.13,-2.12,-2.12
324.35,-2.70,-0.60,-2.69,-0.59,0.59,0.34,0.31,-2.11,-2.10,-2.11
327.59,-2.70,-0.61,-2.70,-0.61,0.61,0.34,0.32,-2.10,-2.09,-2.09
330.87,-2.70,-0.62,-2.70,-0.62,0.62,0.33,0.34,-2.08,-2.08,-2.08
334.18,-2.70,-0.64,-2.70,-0.64,0.64,0.33,0.35,-2.07,-2.07,-2.07
337.52,-2.70,-0.64,-2.70,-0.65,0.65,0.33,0.36,-2.06,-2.06,-2.06
340.90,-2.71,-0.67,-2.70,-0.65,0.65,0.33,0.37,-2.06,-2.05,-2.04
344.30,-2.71,-0.68,-2.70,-0.66,0.66,0.33,0.39,-2.06,-2.04,-2.04
347.75,-2.71,-0.67,-2.70,-0.66,0.66,0.33,0.40,-2.05,-2.04,-2.04
351.23,-2.70,-0.67,-2.68,-0.65,0.65,0.33,0.42,-2.05,-2.03,-2.03
354.74,-2.70,-0.67,-2.67,-0.64,0.64,0.32,0.43,-2.07,-2.03,-2.03
358.28,-2.68,-0.66,-2.65,-0.63,0.63,0.32,0.45,-2.06,-2.03,-2.03
361.87,-2.62,-0.59,-2.64,-0.61,0.61,0.32,0.46,-2.01,-2.03,-2.03
365.49,-2.59,-0.57,-2.63,-0.60,0.60,0.32,0.48,-1.99,-2.03,-2.02
369.14,-2.58,-0.55,-2.61,-0.59,0.59,0.32,0.49,-2.00,-2.03,-2.03
372.83,-2.57,-0.54,-2.60,-0.57,0.57,0.33,0.51,-2.00,-2.03,-2.03
376.56,-2.56,-0.53,-2.58,-0.55,0.55,0.33,0.52,-2.01,-2.03,-2.04
380.33,-2.56,-0.53,-2.57,-0.54,0.54,0.33,0.54,-2.03,-2.04,-2.03
384.13,-2.55,-0.52,-2.56,-0.52,0.52,0.33,0.56,-2.04,-2.04,-2.03
387.97,-2.54,-0.50,-2.54,-0.50,0.50,0.33,0.57,-2.05,-2.04,-2.04
391.85,-2.54,-0.49,-2.52,-0.48,0.48,0.33,0.59,-2.07,-2.05,-2.05
395.77,-2.54,-0.50,-2.51,-0.45,0.45,0.34,0.61,-2.09,-2.06,-2.05
399.73,-2.53,-0.48,-2.50,-0.43,0.43,0.34,0.62,-2.10,-2.06,-2.06
403.72,-2.47,-0.41,-2.48,-0.42,0.42,0.34,0.64,-2.06,-2.07,-2.06
407.76,-2.44,-0.37,-2.47,-0.40,0.40,0.34,0.66,-2.05,-2.07,-2.07
411.84,-2.45,-0.38,-2.45,-0.37,0.37,0.35,0.67,-2.08,-2.07,-2.07
415.96,-2.45,-0.38,-2.43,-0.35,0.35,0.35,0.69,-2.10,-2.08,-2.07
420.12,-2.37,-0.30,-2.40,-0.33,0.33,0.36,0.71,-2.05,-2.07,-2.07
424.32,-2.33,-0.26,-2.37,-0.30,0.30,0.36,0.72,-2.03,-2.07,-2.08
428.56,-2.33,-0.27,-2.33,-0.28,0.28,0.37,0.74,-2.06,-2.06,-2.07
432.85,-2.32,-0.26,-2.30,-0.26,0.26,0.37,0.75,-2.07,-2.04,-2.06
437.18,-2.29,-0.24,-2.27,-0.24,0.24,0.38,0.77,-2.05,-2.02,-2.05
441.55,-2.26,-0.25,-2.23,-0.23,0.23,0.39,0.78,-2.03,-2.00,-2.01
445.96,-2.21,-0.23,-2.19,-0.22,0.22,0.40,0.79,-1.99,-1.97,-1.98
450.42,-2.16,-0.21,-2.15,-0.22,0.22,0.40,0.80,-1.94,-1.93,-1.95
454.93,-2.10,-0.20,-2.10,-0.21,0.21,0.41,0.81,-1.89,-1.89,-1.90
459.48,-2.04,-0.19,-2.06,-0.21,0.21,0.42,0.82,-1.83,-1.85,-1.85
464.07,-1.98,-0.18,-2.01,-0.21,0.21,0.43,0.83,-1.77,-1.80,-1.80
468.71,-1.96,-0.22,-1.97,-0.22,0.22,0.44,0.84,-1.74,-1.75,-1.75
473.40,-1.99,-0.29,-1.93,-0.23,0.23,0.45,0.84,-1.77,-1.70,-1.71
