frequency,raw,error,smoothed,error_smoothed,equalization,parametric_eq,fixed_band_eq,equalized_raw,equalized_smoothed,target
20.00,3.84,-1.14,3.84,-1.14,1.14,1.02,0.49,4.98,4.98,4.98
20.20,3.84,-1.14,3.83,-1.15,1.15,1.03,0.50,4.98,4.98,4.98
20.40,3.83,-1.15,3.83,-1.15,1.15,1.04,0.52,4.98,4.98,4.98
20.61,3.82,-1.16,3.82,-1.16,1.16,1.05,0.53,4.97,4.98,4.98
20.81,3.82,-1.16,3.81,-1.16,1.16,1.06,0.55,4.97,4.97,4.98
21.02,3.81,-1.17,3.81,-1.17,1.16,1.07,0.57,4.97,4.97,4.98
21.23,3.80,-1.16,3.80,-1.16,1.16,1.09,0.59,4.96,4.96,4.96
21.44,3.79,-1.16,3.79,-1.16,1.16,1.10,0.60,4.95,4.95,4.95
21.66,3.78,-1.15,3.77,-1.15,1.16,1.11,0.62,4.93,4.93,4.93
21.87,3.76,-1.15,3.76,-1.15,1.15,1.12,0.64,4.91,4.91,4.91
22.09,3.75,-1.15,3.74,-1.15,1.15,1.12,0.66,4.89,4.89,4.90
22.31,3.73,-1.14,3.73,-1.14,1.14,1.13,0.68,4.87,4.87,4.87
22.54,3.71,-1.14,3.71,-1.14,1.14,1.14,0.70,4.84,4.85,4.85
22.76,3.70,-1.13,3.69,-1.13,1.13,1.15,0.72,4.83,4.82,4.83
22.99,3.67,-1.13,3.67,-1.13,1.13,1.16,0.74,4.80,4.80,4.80
23.22,3.64,-1.13,3.64,-1.13,1.13,1.16,0.76,4.77,4.77,4.77
23.45,3.62,-1.12,3.61,-1.13,1.13,1.17,0.79,4.75,4.75,4.74
23.69,3.59,-1.14,3.59,-1.13,1.14,1.17,0.81,4.72,4.73,4.73
23.92,3.57,-1.14,3.57,-1.14,1.14,1.18,0.83,4.71,4.71,4.71
24.16,3.55,-1.15,3.54,-1.15,1.15,1.18,0.85,4.70,4.69,4.70
24.40,3.52,-1.16,3.52,-1.16,1.16,1.19,0.88,4.67,4.68,4.68
24.65,3.50,-1.16,3.49,-1.17,1.16,1.19,0.90,4.66,4.66,4.66
24.89,3.47,-1.17,3.47,-1.17,1.17,1.19,0.92,4.64,4.64,4.64
25.14,3.45,-1.18,3.45,-1.18,1.17,1.19,0.95,4.62,4.62,4.63
25.39,3.44,-1.17,3.43,-1.18,1.17,1.19,0.97,4.61,4.61,4.61
25.65,3.42,-1.18,3.42,-1.18,1.17,1.19,0.99,4.59,4.59,4.60
25.91,3.40,-1.17,3.40,-1.17,1.17,1.19,1.02,4.57,4.57,4.57
26.16,3.39,-1.17,3.39,-1.17,1.17,1.19,1.04,4.56,4.56,4.56
26.43,3.38,-1.17,3.38,-1.16,1.17,1.19,1.06,4.54,4.54,4.55
26.69,3.37,-1.15,3.37,-1.16,1.16,1.18,1.08,4.53,4.53,4.52
26.96,3.36,-1.15,3.36,-1.15,1.16,1.18,1.10,4.51,4.51,4.51
27.23,3.35,-1.15,3.35,-1.15,1.15,1.18,1.12,4.49,4.49,4.50
27.50,3.34,-1.15,3.34,-1.15,1.14,1.17,1.14,4.48,4.48,4.49
27.77,3.34,-1.13,3.34,-1.13,1.13,1.16,1.16,4.46,4.46,4.47
28.05,3.34,-1.12,3.34,-1.12,1.12,1.15,1.18,4.45,4.45,4.46
28.33,3.34,-1.10,3.34,-1.10,1.10,1.15,1.19,4.44,4.44,4.44
28.62,3.34,-1.09,3.34,-1.09,1.09,1.14,1.20,4.43,4.42,4.43
28.90,3.34,-1.07,3.34,-1.07,1.07,1.13,1.21,4.41,4.41,4.41
29.19,3.34,-1.05,3.34,-1.06,1.06,1.12,1.22,4.39,4.40,4.39
29.48,3.35,-1.04,3.34,-1.04,1.04,1.10,1.23,4.39,4.39,4.39
29.78,3.35,-1.03,3.35,-1.03,1.03,1.09,1.23,4.37,4.37,4.38
30.08,3.36,-1.01,3.35,-1.02,1.01,1.08,1.24,4.37,4.36,4.37
30.38,3.35,-1.00,3.35,-1.00,1.00,1.06,1.24,4.34,4.35,4.35
30.68,3.36,-0.98,3.35,-0.98,0.98,1.05,1.23,4.34,4.33,4.34
30.99,3.36,-0.95,3.35,-0.96,0.97,1.03,1.23,4.32,4.32,4.31
31.30,3.35,-0.95,3.35,-0.95,0.95,1.01,1.22,4.30,4.30,4.30
31.61,3.35,-0.94,3.34,-0.94,0.94,1.00,1.21,4.28,4.28,4.29
31.93,3.34,-0.93,3.34,-0.93,0.92,0.98,1.20,4.26,4.26,4.27
32.24,3.33,-0.91,3.33,-0.91,0.91,0.96,1.18,4.24,4.24,4.24
32.57,3.33,-0.89,3.32,-0.90,0.90,0.94,1.16,4.22,4.22,4.22
32.89,3.32,-0.89,3.32,-0.88,0.88,0.92,1.14,4.20,4.20,4.21
33.22,3.32,-0.86,3.31,-0.87,0.87,0.90,1.12,4.18,4.18,4.18
33.55,3.31,-0.86,3.31,-0.85,0.85,0.87,1.09,4.16,4.16,4.17
33.89,3.31,-0.83,3.30,-0.84,0.84,0.85,1.07,4.14,4.14,4.14
34.23,3.30,-0.82,3.30,-0.82,0.82,0.83,1.04,4.12,4.12,4.12
34.57,3.30,-0.80,3.30,-0.80,0.80,0.80,1.01,4.10,4.10,4.10
34.92,3.30,-0.78,3.29,-0.79,0.79,0.78,0.98,4.08,4.08,4.08
35.27,3.29,-0.77,3.29,-0.77,0.77,0.75,0.94,4.05,4.06,4.06
35.62,3.29,-0.75,3.29,-0.75,0.75,0.73,0.91,4.03,4.04,4.04
35.97,3.29,-0.73,3.29,-0.73,0.73,0.70,0.87,4.01,4.02,4.02
36.33,3.30,-0.70,3.29,-0.71,0.71,0.68,0.83,4.00,4.00,4.00
36.70,3.29,-0.69,3.29,-0.68,0.69,0.65,0.79,3.97,3.98,3.98
37.06,3.30,-0.66,3.29,-0.66,0.66,0.62,0.75,3.96,3.96,3.96
37.43,3.30,-0.64,3.30,-0.64,0.64,0.59,0.71,3.93,3.93,3.94
37.81,3.30,-0.62,3.30,-0.62,0.61,0.56,0.67,3.91,3.91,3.92
38.19,3.31,-0.58,3.30,-0.59,0.59,0.53,0.63,3.89,3.89,3.89
38.57,3.31,-0.57,3.31,-0.56,0.56,0.51,0.59,3.87,3.87,3.88
38.95,3.32,-0.53,3.32,-0.53,0.53,0.48,0.55,3.85,3.85,3.85
39.34,3.33,-0.50,3.33,-0.50,0.51,0.45,0.51,3.83,3.83,3.83
39.74,3.34,-0.47,3.33,-0.48,0.48,0.42,0.46,3.82,3.81,3.81
40.14,3.34,-0.46,3.34,-0.46,0.45,0.38,0.42,3.79,3.79,3.80
40.54,3.34,-0.44,3.34,-0.43,0.43,0.35,0.38,3.77,3.77,3.78
40.94,3.36,-0.40,3.35,-0.41,0.41,0.32,0.33,3.76,3.75,3.76
41.35,3.36,-0.37,3.36,-0.38,0.38,0.29,0.29,3.74,3.74,3.73
41.76,3.37,-0.36,3.37,-0.35,0.36,0.26,0.25,3.73,3.73,3.73
42.18,3.38,-0.33,3.37,-0.33,0.33,0.23,0.21,3.71,3.71,3.71
42.60,3.38,-0.31,3.38,-0.31,0.31,0.19,0.16,3.68,3.68,3.69
43.03,3.39,-0.29,3.39,-0.28,0.28,0.16,0.12,3.66,3.66,3.68
43.46,3.40,-0.25,3.40,-0.25,0.25,0.13,0.08,3.64,3.64,3.65
43.90,3.42,-0.21,3.41,-0.22,0.21,0.10,0.04,3.63,3.63,3.63
44.33,3.43,-0.18,3.43,-0.18,0.18,0.06,-0.01,3.61,3.61,3.61
44.78,3.44,-0.15,3.44,-0.14,0.15,0.03,-0.05,3.58,3.59,3.59
45.23,3.46,-0.10,3.45,-0.11,0.11,-0.00,-0.09,3.57,3.56,3.56
45.68,3.47,-0.07,3.47,-0.07,0.08,-0.04,-0.13,3.54,3.55,3.54
46.13,3.49,-0.04,3.49,-0.04,0.04,-0.07,-0.18,3.53,3.53,3.53
46.60,3.51,-0.01,3.50,-0.01,0.01,-0.10,-0.22,3.52,3.51,3.52
47.06,3.52,0.02,3.52,0.02,-0.02,-0.14,-0.26,3.49,3.50,3.50
47.53,3.54,0.06,3.53,0.05,-0.06,-0.17,-0.30,3.48,3.48,3.48
48.01,3.55,0.08,3.55,0.09,-0.09,-0.21,-0.34,3.45,3.45,3.47
48.49,3.57,0.13,3.56,0.13,-0.13,-0.24,-0.39,3.43,3.43,3.44
48.97,3.58,0.17,3.58,0.17,-0.17,-0.27,-0.43,3.40,3.41,3.41
49.46,3.60,0.22,3.60,0.22,-0.21,-0.31,-0.47,3.38,3.38,3.38
49.96,3.62,0.27,3.62,0.26,-0.26,-0.34,-0.51,3.36,3.36,3.35
50.46,3.64,0.30,3.64,0.30,-0.30,-0.38,-0.55,3.34,3.34,3.34
50.96,3.66,0.34,3.66,0.34,-0.34,-0.41,-0.59,3.32,3.32,3.32
51.47,3.68,0.39,3.67,0.38,-0.38,-0.45,-0.63,3.29,3.29,3.29
51.99,3.69,0.42,3.69,0.42,-0.42,-0.48,-0.67,3.26,3.27,3.27
52.51,3.71,0.46,3.71,0.46,-0.46,-0.51,-0.71,3.24,3.24,3.25
53.03,3.73,0.50,3.73,0.50,-0.51,-0.55,-0.75,3.22,3.22,3.23
53.56,3.75,0.55,3.75,0.55,-0.55,-0.58,-0.79,3.20,3.20,3.20
54.10,3.78,0.60,3.77,0.59,-0.59,-0.62,-0.83,3.18,3.18,3.18
54.64,3.79,0.64,3.79,0.64,-0.64,-0.65,-0.87,3.15,3.15,3.15
55.18,3.81,0.68,3.81,0.68,-0.68,-0.69,-0.91,3.12,3.13,3.13
55.74,3.83,0.73,3.83,0.73,-0.73,-0.72,-0.95,3.10,3.10,3.10
56.29,3.85,0.77,3.85,0.77,-0.77,-0.76,-0.98,3.07,3.07,3.08
56.86,3.87,0.82,3.87,0.82,-0.82,-0.79,-1.02,3.05,3.05,3.05
57.42,3.89,0.86,3.89,0.86,-0.86,-0.83,-1.05,3.03,3.03,3.03
58.00,3.91,0.90,3.91,0.90,-0.90,-0.86,-1.08,3.01,3.01,3.01
58.58,3.93,0.95,3.93,0.94,-0.94,-0.90,-1.12,2.98,2.98,2.98
59.16,3.95,0.99,3.94,0.99,-0.99,-0.93,-1.15,2.96,2.96,2.96
59.76,3.96,1.02,3.96,1.03,-1.03,-0.97,-1.18,2.93,2.93,2.94
60.35,3.98,1.07,3.98,1.07,-1.07,-1.00,-1.21,2.90,2.90,2.91
60.96,4.00,1.11,3.99,1.11,-1.12,-1.04,-1.23,2.88,2.88,2.89
61.57,4.02,1.17,4.01,1.16,-1.16,-1.07,-1.26,2.85,2.85,2.85
62.18,4.03,1.21,4.03,1.21,-1.21,-1.11,-1.29,2.82,2.82,2.82
62.80,4.05,1.26,4.04,1.26,-1.25,-1.14,-1.31,2.79,2.79,2.79
63.43,4.06,1.30,4.06,1.30,-1.30,-1.18,-1.33,2.76,2.76,2.76
64.07,4.07,1.34,4.07,1.34,-1.34,-1.21,-1.35,2.73,2.73,2.73
64.71,4.09,1.38,4.08,1.38,-1.38,-1.24,-1.37,2.71,2.71,2.71
65.35,4.10,1.41,4.09,1.41,-1.41,-1.28,-1.39,2.68,2.68,2.69
66.01,4.11,1.44,4.11,1.44,-1.45,-1.31,-1.41,2.66,2.66,2.67
66.67,4.12,1.48,4.12,1.48,-1.48,-1.35,-1.43,2.63,2.64,2.64
67.33,4.14,1.52,4.13,1.52,-1.51,-1.38,-1.45,2.62,2.62,2.62
68.01,4.14,1.55,4.14,1.55,-1.55,-1.42,-1.46,2.59,2.59,2.59
68.69,4.15,1.58,4.15,1.58,-1.58,-1.45,-1.48,2.57,2.57,2.57
69.37,4.15,1.61,4.15,1.61,-1.61,-1.49,-1.49,2.53,2.54,2.54
70.07,4.16,1.65,4.16,1.64,-1.64,-1.52,-1.51,2.51,2.51,2.51
70.77,4.16,1.67,4.16,1.67,-1.68,-1.56,-1.52,2.48,2.48,2.49
71.48,4.17,1.71,4.16,1.71,-1.71,-1.59,-1.54,2.46,2.45,2.46
72.19,4.16,1.73,4.16,1.74,-1.74,-1.63,-1.55,2.42,2.42,2.43
72.91,4.17,1.78,4.16,1.77,-1.77,-1.66,-1.57,2.40,2.39,2.39
73.64,4.16,1.80,4.16,1.80,-1.80,-1.69,-1.58,2.35,2.36,2.36
74.38,4.16,1.83,4.16,1.84,-1.83,-1.73,-1.60,2.32,2.32,2.33
75.12,4.16,1.88,4.15,1.87,-1.87,-1.76,-1.61,2.29,2.28,2.28
75.87,4.15,1.90,4.15,1.90,-1.90,-1.80,-1.63,2.25,2.25,2.25
76.63,4.14,1.92,4.14,1.93,-1.93,-1.83,-1.65,2.21,2.21,2.22
77.40,4.14,1.96,4.13,1.96,-1.96,-1.87,-1.67,2.17,2.17,2.18
78.17,4.13,2.01,4.13,1.99,-1.99,-1.90,-1.69,2.13,2.13,2.12
78.95,4.12,2.02,4.12,2.03,-2.02,-1.93,-1.71,2.09,2.09,2.10
79.74,4.11,2.05,4.10,2.05,-2.06,-1.97,-1.73,2.05,2.05,2.06
80.54,4.09,2.08,4.09,2.08,-2.09,-2.00,-1.75,2.00,2.01,2.01
81.35,4.09,2.12,4.08,2.11,-2.12,-2.03,-1.78,1.97,1.96,1.97
82.16,4.07,2.15,4.07,2.15,-2.14,-2.07,-1.80,1.92,1.92,1.92
82.98,4.05,2.17,4.05,2.18,-2.17,-2.10,-1.83,1.87,1.87,1.88
83.81,4.03,2.21,4.02,2.20,-2.20,-2.13,-1.86,1.83,1.83,1.82
84.65,4.00,2.22,4.00,2.22,-2.22,-2.16,-1.89,1.77,1.78,1.78
85.50,3.99,2.25,3.98,2.25,-2.25,-2.20,-1.92,1.74,1.73,1.74
86.35,3.96,2.27,3.96,2.27,-2.27,-2.23,-1.96,1.68,1.68,1.69
87.22,3.93,2.29,3.93,2.30,-2.30,-2.26,-1.99,1.63,1.63,1.64
88.09,3.91,2.33,3.90,2.32,-2.32,-2.29,-2.03,1.59,1.58,1.58
88.97,3.88,2.34,3.88,2.34,-2.34,-2.33,-2.07,1.53,1.53,1.54
89.86,3.85,2.36,3.85,2.37,-2.37,-2.36,-2.11,1.48,1.48,1.49
90.76,3.83,2.40,3.82,2.39,-2.39,-2.39,-2.15,1.44,1.43,1.43
91.66,3.79,2.41,3.79,2.41,-2.41,-2.42,-2.19,1.38,1.38,1.38
92.58,3.76,2.44,3.76,2.43,-2.43,-2.45,-2.24,1.32,1.32,1.32
93.51,3.73,2.45,3.73,2.45,-2.46,-2.48,-2.28,1.27,1.27,1.28
94.44,3.70,2.47,3.70,2.48,-2.48,-2.51,-2.33,1.22,1.22,1.23
95.39,3.67,2.50,3.66,2.50,-2.50,-2.54,-2.38,1.17,1.16,1.17
96.34,3.63,2.53,3.63,2.52,-2.52,-2.57,-2.43,1.10,1.10,1.10
97.30,3.59,2.54,3.59,2.55,-2.55,-2.60,-2.48,1.04,1.05,1.05
98.28,3.56,2.57,3.55,2.57,-2.57,-2.63,-2.54,0.99,0.98,0.99
99.26,3.52,2.60,3.52,2.59,-2.59,-2.65,-2.59,0.93,0.92,0.92
100.25,3.48,2.61,3.48,2.61,-2.61,-2.68,-2.64,0.86,0.87,0.87
101.25,3.44,2.63,3.44,2.64,-2.63,-2.71,-2.70,0.80,0.80,0.81
102.27,3.40,2.66,3.39,2.65,-2.65,-2.74,-2.75,0.74,0.74,0.74
103.29,3.35,2.68,3.35,2.68,-2.67,-2.76,-2.81,0.67,0.68,0.67
104.32,3.31,2.69,3.31,2.69,-2.69,-2.79,-2.87,0.61,0.61,0.62
105.37,3.27,2.71,3.26,2.71,-2.71,-2.82,-2.92,0.55,0.55,0.56
106.42,3.22,2.73,3.22,2.73,-2.74,-2.84,-2.98,0.48,0.48,0.49
107.48,3.18,2.76,3.18,2.76,-2.76,-2.87,-3.03,0.42,0.42,0.42
108.56,3.14,2.79,3.13,2.78,-2.78,-2.89,-3.09,0.36,0.35,0.35
109.64,3.09,2.80,3.09,2.80,-2.80,-2.91,-3.14,0.28,0.29,0.29
110.74,3.05,2.82,3.05,2.83,-2.83,-2.94,-3.19,0.22,0.22,0.23
111.85,3.01,2.85,3.00,2.85,-2.85,-2.96,-3.24,0.16,0.15,0.16
112.97,2.96,2.88,2.96,2.87,-2.87,-2.98,-3.28,0.08,0.08,0.08
114.10,2.91,2.89,2.91,2.90,-2.90,-3.00,-3.33,0.01,0.01,0.02
115.24,2.87,2.92,2.87,2.92,-2.92,-3.02,-3.37,-0.05,-0.06,-0.05
116.39,2.83,2.95,2.82,2.95,-2.94,-3.04,-3.40,-0.12,-0.12,-0.12
117.55,2.78,2.97,2.78,2.97,-2.97,-3.06,-3.43,-0.19,-0.19,-0.19
118.73,2.74,2.99,2.73,2.99,-2.98,-3.08,-3.46,-0.25,-0.25,-0.25
119.92,2.69,3.00,2.69,3.00,-3.00,-3.10,-3.49,-0.32,-0.31,-0.31
121.12,2.65,3.02,2.64,3.02,-3.02,-3.12,-3.51,-0.37,-0.37,-0.37
122.33,2.60,3.04,2.60,3.04,-3.03,-3.13,-3.52,-0.44,-0.44,-0.44
123.55,2.56,3.05,2.55,3.05,-3.05,-3.15,-3.53,-0.49,-0.49,-0.49
124.79,2.51,3.06,2.51,3.06,-3.06,-3.16,-3.54,-0.56,-0.55,-0.55
126.03,2.47,3.07,2.46,3.07,-3.08,-3.18,-3.54,-0.61,-0.61,-0.60
127.29,2.42,3.08,2.42,3.09,-3.09,-3.19,-3.53,-0.67,-0.67,-0.66
128.57,2.38,3.11,2.38,3.10,-3.10,-3.20,-3.52,-0.73,-0.73,-0.73
129.85,2.34,3.12,2.33,3.12,-3.11,-3.21,-3.51,-0.78,-0.78,-0.78
131.15,2.29,3.12,2.29,3.13,-3.12,-3.22,-3.49,-0.84,-0.83,-0.83
132.46,2.25,3.14,2.25,3.13,-3.13,-3.23,-3.46,-0.89,-0.89,-0.89
133.79,2.21,3.14,2.20,3.14,-3.14,-3.24,-3.44,-0.93,-0.94,-0.93
135.12,2.16,3.15,2.16,3.14,-3.14,-3.25,-3.40,-0.99,-0.98,-0.99
136.48,2.12,3.14,2.11,3.14,-3.14,-3.26,-3.37,-1.03,-1.03,-1.02
137.84,2.07,3.13,2.07,3.14,-3.14,-3.26,-3.33,-1.07,-1.07,-1.06
139.22,2.03,3.14,2.03,3.14,-3.14,-3.27,-3.29,-1.11,-1.11,-1.11
140.61,1.99,3.14,1.99,3.13,-3.13,-3.27,-3.25,-1.14,-1.14,-1.15
142.02,1.95,3.12,1.94,3.12,-3.12,-3.27,-3.20,-1.18,-1.18,-1.17
143.44,1.91,3.11,1.90,3.11,-3.11,-3.28,-3.15,-1.21,-1.21,-1.20
144.87,1.86,3.10,1.86,3.10,-3.10,-3.28,-3.10,-1.25,-1.24,-1.24
146.32,1.83,3.10,1.82,3.09,-3.09,-3.28,-3.05,-1.27,-1.27,-1.27
147.78,1.78,3.07,1.78,3.08,-3.08,-3.27,-3.00,-1.30,-1.30,-1.29
149.26,1.75,3.07,1.74,3.07,-3.07,-3.27,-2.95,-1.32,-1.33,-1.32
150.75,1.70,3.06,1.70,3.05,-3.05,-3.27,-2.90,-1.36,-1.36,-1.36
152.26,1.66,3.04,1.66,3.04,-3.04,-3.26,-2.85,-1.38,-1.38,-1.38
153.78,1.62,3.03,1.62,3.03,-3.03,-3.25,-2.80,-1.41,-1.41,-1.41
155.32,1.58,3.01,1.57,3.01,-3.01,-3.25,-2.75,-1.44,-1.44,-1.43
156.88,1.54,3.00,1.53,3.00,-3.00,-3.24,-2.70,-1.46,-1.47,-1.46
158.44,1.49,2.98,1.49,2.98,-2.99,-3.23,-2.65,-1.50,-1.50,-1.49
160.03,1.46,2.98,1.45,2.97,-2.97,-3.22,-2.60,-1.52,-1.52,-1.52
161.63,1.41,2.96,1.41,2.96,-2.96,-3.20,-2.56,-1.56,-1.55,-1.55
163.24,1.38,2.96,1.37,2.95,-2.95,-3.19,-2.51,-1.57,-1.58,-1.58
164.88,1.34,2.94,1.33,2.94,-2.94,-3.17,-2.47,-1.60,-1.60,-1.60
166.53,1.30,2.92,1.30,2.93,-2.93,-3.16,-2.43,-1.63,-1.63,-1.62
168.19,1.26,2.92,1.26,2.92,-2.92,-3.14,-2.39,-1.66,-1.66,-1.66
169.87,1.22,2.91,1.22,2.91,-2.91,-3.12,-2.35,-1.69,-1.69,-1.69
171.57,1.18,2.90,1.18,2.90,-2.90,-3.10,-2.32,-1.72,-1.72,-1.72
173.29,1.14,2.88,1.14,2.89,-2.89,-3.08,-2.28,-1.76,-1.75,-1.74
175.02,1.11,2.89,1.10,2.88,-2.89,-3.05,-2.25,-1.78,-1.78,-1.78
176.77,1.06,2.88,1.06,2.88,-2.88,-3.03,-2.22,-1.82,-1.82,-1.82
178.54,1.03,2.89,1.02,2.88,-2.88,-3.00,-2.19,-1.85,-1.85,-1.86
180.32,0.98,2.87,0.98,2.87,-2.87,-2.97,-2.16,-1.90,-1.90,-1.89
182.13,0.94,2.86,0.94,2.86,-2.87,-2.94,-2.14,-1.93,-1.93,-1.92
183.95,0.89,2.85,0.89,2.86,-2.86,-2.91,-2.11,-1.97,-1.97,-1.96
185.79,0.86,2.86,0.85,2.85,-2.85,-2.88,-2.09,-1.99,-2.00,-2.00
187.65,0.81,2.85,0.81,2.85,-2.84,-2.85,-2.07,-2.03,-2.03,-2.04
189.52,0.76,2.83,0.76,2.83,-2.82,-2.81,-2.05,-2.07,-2.06,-2.07
191.42,0.72,2.81,0.71,2.81,-2.81,-2.78,-2.04,-2.09,-2.09,-2.09
193.33,0.67,2.78,0.67,2.78,-2.79,-2.74,-2.02,-2.12,-2.12,-2.11
195.27,0.62,2.76,0.61,2.76,-2.77,-2.70,-2.01,-2.15,-2.15,-2.14
197.22,0.56,2.73,0.56,2.74,-2.74,-2.66,-1.99,-2.18,-2.18,-2.17
199.19,0.51,2.73,0.51,2.72,-2.71,-2.62,-1.98,-2.20,-2.20,-2.22
201.18,0.46,2.69,0.45,2.68,-2.68,-2.58,-1.97,-2.22,-2.23,-2.23
203.19,0.39,2.64,0.39,2.65,-2.64,-2.53,-1.96,-2.26,-2.25,-2.25
205.23,0.33,2.60,0.33,2.60,-2.60,-2.49,-1.95,-2.28,-2.27,-2.27
207.28,0.28,2.56,0.27,2.56,-2.56,-2.44,-1.94,-2.29,-2.30,-2.28
209.35,0.21,2.52,0.21,2.52,-2.52,-2.39,-1.93,-2.31,-2.31,-2.31
211.44,0.15,2.48,0.15,2.48,-2.47,-2.34,-1.92,-2.33,-2.33,-2.33
213.56,0.09,2.44,0.08,2.43,-2.43,-2.29,-1.91,-2.34,-2.35,-2.35
215.69,0.02,2.37,0.02,2.38,-2.38,-2.23,-1.90,-2.37,-2.36,-2.35
217.85,-0.04,2.32,-0.04,2.33,-2.33,-2.18,-1.89,-2.38,-2.38,-2.36
220.03,-0.10,2.29,-0.10,2.28,-2.29,-2.12,-1.87,-2.39,-2.39,-2.39
222.23,-0.15,2.25,-0.16,2.24,-2.23,-2.06,-1.86,-2.39,-2.39,-2.40
224.45,-0.21,2.18,-0.21,2.19,-2.18,-2.01,-1.84,-2.39,-2.39,-2.39
226.70,-0.27,2.13,-0.27,2.13,-2.13,-1.95,-1.83,-2.40,-2.40,-2.40
228.96,-0.32,2.08,-0.33,2.07,-2.07,-1.88,-1.81,-2.40,-2.40,-2.40
231.25,-0.38,2.01,-0.38,2.01,-2.02,-1.82,-1.78,-2.40,-2.40,-2.39
233.57,-0.43,1.95,-0.43,1.96,-1.96,-1.76,-1.76,-2.39,-2.39,-2.38
235.90,-0.48,1.90,-0.49,1.90,-1.90,-1.69,-1.73,-2.38,-2.39,-2.38
238.26,-0.53,1.85,-0.53,1.84,-1.84,-1.62,-1.70,-2.37,-2.37,-2.38
240.64,-0.58,1.78,-0.58,1.78,-1.78,-1.55,-1.66,-2.36,-2.36,-2.36
243.05,-0.62,1.72,-0.63,1.71,-1.71,-1.48,-1.62,-2.34,-2.35,-2.34
245.48,-0.68,1.64,-0.68,1.65,-1.65,-1.41,-1.58,-2.33,-2.33,-2.32
247.93,-0.73,1.58,-0.73,1.58,-1.58,-1.34,-1.53,-2.31,-2.31,-2.31
250.41,-0.77,1.53,-0.78,1.51,-1.51,-1.26,-1.48,-2.28,-2.29,-2.30
252.92,-0.83,1.43,-0.83,1.44,-1.44,-1.19,-1.42,-2.27,-2.27,-2.26
255.45,-0.89,1.35,-0.89,1.36,-1.36,-1.11,-1.36,-2.26,-2.25,-2.24
258.00,-0.94,1.28,-0.94,1.28,-1.29,-1.03,-1.29,-2.23,-2.23,-2.22
260.58,-0.99,1.21,-1.00,1.21,-1.21,-0.95,-1.23,-2.20,-2.20,-2.20
263.19,-1.05,1.13,-1.05,1.13,-1.13,-0.87,-1.15,-2.18,-2.18,-2.18
265.82,-1.10,1.06,-1.11,1.05,-1.05,-0.79,-1.08,-2.15,-2.15,-2.16
268.48,-1.17,0.96,-1.17,0.97,-0.96,-0.70,-0.99,-2.14,-2.13,-2.13
271.16,-1.22,0.88,-1.23,0.87,-0.88,-0.62,-0.91,-2.10,-2.11,-2.10
273.87,-1.30,0.78,-1.30,0.78,-0.79,-0.53,-0.82,-2.09,-2.09,-2.08
276.61,-1.36,0.69,-1.36,0.69,-0.70,-0.44,-0.73,-2.06,-2.06,-2.05
279.38,-1.43,0.60,-1.43,0.60,-0.60,-0.35,-0.63,-2.03,-2.04,-2.03
282.17,-1.50,0.51,-1.51,0.50,-0.50,-0.25,-0.53,-2.01,-2.01,-2.01
284.99,-1.58,0.40,-1.58,0.40,-0.40,-0.16,-0.43,-1.98,-1.98,-1.98
287.84,-1.66,0.30,-1.66,0.30,-0.30,-0.06,-0.33,-1.96,-1.96,-1.96
290.72,-1.74,0.18,-1.75,0.18,-0.19,0.04,-0.22,-1.93,-1.93,-1.92
293.63,-1.83,0.07,-1.83,0.07,-0.07,0.14,-0.11,-1.90,-1.90,-1.90
296.57,-1.92,-0.05,-1.92,-0.05,0.05,0.24,0.00,-1.87,-1.87,-1.87
299.53,-2.02,-0.18,-2.02,-0.18,0.18,0.34,0.12,-1.84,-1.84,-1.84
302.53,-2.12,-0.30,-2.12,-0.31,0.32,0.45,0.23,-1.81,-1.81,-1.82
305.55,-2.23,-0.46,-2.23,-0.45,0.46,0.56,0.35,-1.78,-1.78,-1.77
308.61,-2.34,-0.60,-2.34,-0.60,0.60,0.67,0.47,-1.74,-1.74,-1.74
311.69,-2.46,-0.76,-2.46,-0.76,0.75,0.79,0.59,-1.71,-1.71,-1.70
314.81,-2.58,-0.91,-2.58,-0.91,0.91,0.90,0.72,-1.68,-1.68,-1.67
317.96,-2.71,-1.07,-2.71,-1.07,1.07,1.02,0.84,-1.65,-1.64,-1.64
321.14,-2.84,-1.23,-2.85,-1.23,1.23,1.15,0.97,-1.61,-1.61,-1.61
324.35,-2.98,-1.39,-2.99,-1.40,1.40,1.27,1.10,-1.58,-1.58,-1.59
327.59,-3.13,-1.58,-3.13,-1.58,1.58,1.40,1.23,-1.56,-1.56,-1.55
330.87,-3.28,-1.76,-3.28,-1.76,1.75,1.53,1.36,-1.53,-1.53,-1.52
334.18,-3.44,-1.94,-3.44,-1.94,1.93,1.67,1.49,-1.51,-1.51,-1.50
337.52,-3.60,-2.12,-3.60,-2.12,2.12,1.81,1.63,-1.48,-1.48,-1.48
340.90,-3.77,-2.32,-3.78,-2.32,2.31,1.95,1.77,-1.46,-1.46,-1.45
344.30,-3.95,-2.52,-3.95,-2.52,2.52,2.10,1.91,-1.44,-1.44,-1.43
347.75,-4.14,-2.74,-4.13,-2.73,2.73,2.26,2.05,-1.41,-1.40,-1.40
351.23,-4.32,-2.94,-4.33,-2.94,2.96,2.42,2.19,-1.36,-1.37,-1.38
354.74,-4.53,-3.16,-4.55,-3.18,3.20,2.58,2.33,-1.33,-1.34,-1.37
358.28,-4.79,-3.44,-4.79,-3.44,3.46,2.75,2.48,-1.34,-1.33,-1.35
361.87,-5.05,-3.72,-5.05,-3.72,3.72,2.92,2.63,-1.33,-1.33,-1.33
365.49,-5.32,-4.02,-5.32,-4.01,4.00,3.11,2.77,-1.33,-1.32,-1.30
369.14,-5.58,-4.29,-5.59,-4.29,4.28,3.29,2.92,-1.30,-1.30,-1.29
372.83,-5.85,-4.57,-5.85,-4.57,4.57,3.49,3.08,-1.29,-1.28,-1.28
376.56,-6.10,-4.84,-6.11,-4.85,4.86,3.69,3.23,-1.25,-1.25,-1.26
380.33,-6.37,-5.14,-6.37,-5.13,5.14,3.90,3.39,-1.23,-1.23,-1.23
384.13,-6.62,-5.41,-6.63,-5.41,5.41,4.12,3.54,-1.21,-1.21,-1.21
387.97,-6.87,-5.68,-6.88,-5.69,5.68,4.34,3.70,-1.19,-1.20,-1.19
391.85,-7.11,-5.94,-7.11,-5.94,5.94,4.57,3.86,-1.18,-1.17,-1.17
395.77,-7.33,-6.19,-7.33,-6.18,6.18,4.81,4.02,-1.16,-1.15,-1.14
399.73,-7.52,-6.40,-7.53,-6.41,6.40,5.06,4.18,-1.12,-1.13,-1.12
403.72,-7.72,-6.61,-7.72,-6.61,6.61,5.31,4.34,-1.11,-1.11,-1.11
407.76,-7.88,-6.79,-7.89,-6.80,6.79,5.57,4.51,-1.09,-1.09,-1.09
411.84,-8.03,-6.97,-8.03,-6.96,6.96,5.83,4.67,-1.08,-1.07,-1.06
415.96,-8.14,-7.10,-8.14,-7.10,7.10,6.10,4.83,-1.05,-1.05,-1.04
420.12,-8.23,-7.21,-8.23,-7.21,7.21,6.37,4.99,-1.02,-1.02,-1.02
424.32,-8.29,-7.30,-8.30,-7.30,7.30,6.63,5.15,-0.99,-0.99,-0.99
428.56,-8.33,-7.36,-8.33,-7.36,7.37,6.89,5.30,-0.97,-0.97,-0.97
432.85,-8.35,-7.40,-8.35,-7.40,7.40,7.15,5.46,-0.95,-0.95,-0.95
437.18,-8.33,-7.41,-8.34,-7.42,7.41,7.39,5.61,-0.93,-0.94,-0.92
441.55,-8.30,-7.41,-8.31,-7.41,7.39,7.62,5.75,-0.92,-0.92,-0.89
445.96,-8.25,-7.38,-8.23,-7.36,7.34,7.82,5.89,-0.92,-0.90,-0.87
450.42,-8.12,-7.26,-8.13,-7.28,7.26,8.00,6.02,-0.86,-0.87,-0.86
454.93,-7.99,-7.17,-8.00,-7.17,7.17,8.14,6.15,-0.82,-0.83,-0.82
459.48,-7.84,-7.04,-7.84,-7.04,7.06,8.25,6.27,-0.79,-0.79,-0.80
464.07,-7.68,-6.91,-7.69,-6.92,6.93,8.31,6.38,-0.76,-0.76,-0.77
468.71,-7.52,-6.79,-7.52,-6.78,6.79,8.34,6.48,-0.73,-0.73,-0.73
473.40,-7.35,-6.64,-7.35,-6.64,6.64,8.32,6.57,-0.71,-0.71,-0.71
478.13,-7.17,-6.49,-7.18,-6.50,6.50,8.26,6.64,-0.68,-0.68,-0.68
482.91,-7.00,-6.35,-7.00,-6.35,6.35,8.17,6.71,-0.65,-0.65,-0.65
487.74,-6.82,-6.20,-6.82,-6.20,6.20,8.03,6.76,-0.62,-0.62,-0.62
492.62,-6.64,-6.05,-6.64,-6.05,6.05,7.87,6.80,-0.59,-0.59,-0.59
497.55,-6.46,-5.89,-6.47,-5.90,5.91,7.69,6.82,-0.56,-0.56,-0.57
502.52,-6.30,-5.77,-6.30,-5.76,5.76,7.48,6.83,-0.54,-0.54,-0.53
