frequency,raw,error,smoothed,error_smoothed,equalization,parametric_eq,fixed_band_eq,equalized_raw,equalized_smoothed,target
20.00,17.69,-0.95,17.68,-0.96,0.96,-0.16,0.12,18.65,18.64,18.64
20.20,17.73,-0.90,17.73,-0.90,0.90,-0.16,0.12,18.63,18.63,18.63
20.40,17.77,-0.85,17.77,-0.84,0.84,-0.16,0.13,18.61,18.61,18.62
20.61,17.81,-0.80,17.81,-0.79,0.79,-0.17,0.14,18.60,18.60,18.61
20.81,17.85,-0.74,17.85,-0.74,0.74,-0.17,0.14,18.59,18.59,18.59
21.02,17.88,-0.70,17.88,-0.70,0.70,-0.18,0.15,18.58,18.58,18.58
21.23,17.91,-0.66,17.92,-0.65,0.65,-0.18,0.16,18.56,18.57,18.57
21.44,17.94,-0.64,17.95,-0.61,0.61,-0.18,0.17,18.55,18.56,18.58
21.66,17.97,-0.59,17.98,-0.58,0.58,-0.19,0.17,18.55,18.55,18.56
21.87,17.99,-0.57,18.00,-0.54,0.54,-0.19,0.18,18.53,18.54,18.56
22.09,18.02,-0.52,18.02,-0.51,0.51,-0.19,0.19,18.53,18.54,18.54
22.31,18.04,-0.49,18.04,-0.48,0.48,-0.20,0.20,18.52,18.53,18.53
22.54,18.06,-0.46,18.06,-0.46,0.46,-0.20,0.21,18.52,18.52,18.52
22.76,18.09,-0.43,18.08,-0.44,0.44,-0.21,0.22,18.53,18.52,18.52
22.99,18.10,-0.41,18.09,-0.42,0.42,-0.21,0.23,18.52,18.51,18.51
23.22,18.12,-0.38,18.10,-0.40,0.40,-0.22,0.24,18.52,18.51,18.50
23.45,18.13,-0.38,18.11,-0.39,0.39,-0.22,0.25,18.52,18.50,18.51
23.69,18.13,-0.37,18.12,-0.38,0.38,-0.22,0.26,18.51,18.50,18.50
23.92,18.12,-0.37,18.12,-0.37,0.37,-0.23,0.27,18.49,18.49,18.49
24.16,18.12,-0.38,18.12,-0.37,0.37,-0.23,0.28,18.49,18.49,18.50
24.40,18.11,-0.39,18.12,-0.37,0.37,-0.24,0.29,18.47,18.49,18.50
24.65,18.11,-0.38,18.12,-0.37,0.37,-0.24,0.30,18.48,18.48,18.49
24.89,18.11,-0.38,18.11,-0.37,0.37,-0.25,0.31,18.48,18.48,18.49
25.14,18.11,-0.37,18.11,-0.38,0.38,-0.25,0.32,18.49,18.48,18.48
25.39,18.11,-0.37,18.10,-0.38,0.38,-0.26,0.33,18.49,18.48,18.48
25.65,18.11,-0.37,18.09,-0.38,0.38,-0.26,0.34,18.49,18.48,18.48
25.91,18.10,-0.38,18.09,-0.39,0.39,-0.27,0.35,18.49,18.48,18.48
26.16,18.09,-0.40,18.09,-0.39,0.39,-0.27,0.36,18.48,18.48,18.49
26.43,18.08,-0.40,18.09,-0.39,0.39,-0.28,0.37,18.46,18.48,18.48
26.69,18.08,-0.40,18.10,-0.38,0.38,-0.29,0.38,18.46,18.48,18.48
26.96,18.09,-0.39,18.10,-0.37,0.37,-0.29,0.39,18.46,18.48,18.48
27.23,18.10,-0.38,18.12,-0.36,0.36,-0.30,0.40,18.46,18.48,18.48
27.50,18.12,-0.36,18.13,-0.35,0.35,-0.30,0.41,18.47,18.48,18.48
27.77,18.14,-0.35,18.15,-0.34,0.34,-0.31,0.42,18.47,18.48,18.49
28.05,18.16,-0.32,18.17,-0.31,0.31,-0.32,0.42,18.47,18.48,18.48
28.33,18.19,-0.30,18.19,-0.29,0.29,-0.32,0.43,18.48,18.49,18.49
28.62,18.22,-0.27,18.22,-0.26,0.26,-0.33,0.43,18.48,18.49,18.49
28.90,18.25,-0.25,18.25,-0.23,0.23,-0.34,0.43,18.48,18.49,18.50
29.19,18.28,-0.22,18.28,-0.20,0.20,-0.34,0.44,18.48,18.48,18.50
29.48,18.32,-0.17,18.31,-0.17,0.17,-0.35,0.44,18.49,18.48,18.49
29.78,18.35,-0.14,18.34,-0.14,0.14,-0.36,0.44,18.49,18.48,18.49
30.08,18.37,-0.12,18.37,-0.11,0.11,-0.37,0.44,18.48,18.48,18.49
30.38,18.40,-0.07,18.39,-0.09,0.09,-0.37,0.43,18.49,18.48,18.47
30.68,18.42,-0.05,18.41,-0.07,0.07,-0.38,0.43,18.49,18.47,18.47
30.99,18.44,-0.03,18.42,-0.05,0.05,-0.39,0.42,18.48,18.47,18.47
31.30,18.45,-0.02,18.43,-0.03,0.03,-0.40,0.41,18.48,18.46,18.47
31.61,18.46,0.00,18.44,-0.01,0.01,-0.41,0.40,18.47,18.45,18.46
31.93,18.45,0.01,18.44,-0.00,0.00,-0.41,0.39,18.45,18.45,18.44
32.24,18.45,0.00,18.45,0.01,-0.01,-0.42,0.38,18.44,18.44,18.45
32.57,18.44,0.01,18.45,0.02,-0.02,-0.43,0.36,18.42,18.43,18.43
32.89,18.43,0.00,18.45,0.02,-0.02,-0.44,0.35,18.41,18.43,18.43
33.22,18.43,0.01,18.44,0.02,-0.02,-0.45,0.33,18.41,18.42,18.42
33.55,18.43,0.01,18.44,0.03,-0.03,-0.46,0.31,18.40,18.41,18.42
33.89,18.43,0.02,18.44,0.03,-0.03,-0.47,0.29,18.40,18.41,18.41
34.23,18.43,0.04,18.43,0.04,-0.04,-0.48,0.27,18.39,18.40,18.39
34.57,18.43,0.04,18.43,0.04,-0.04,-0.49,0.25,18.39,18.39,18.39
34.92,18.43,0.06,18.43,0.05,-0.05,-0.50,0.22,18.38,18.38,18.37
35.27,18.43,0.04,18.43,0.06,-0.06,-0.51,0.19,18.37,18.37,18.39
35.62,18.43,0.07,18.43,0.07,-0.07,-0.52,0.17,18.36,18.36,18.36
35.97,18.43,0.07,18.43,0.08,-0.08,-0.53,0.14,18.34,18.34,18.36
36.33,18.43,0.09,18.43,0.10,-0.10,-0.54,0.11,18.33,18.33,18.34
36.70,18.43,0.11,18.43,0.12,-0.12,-0.55,0.08,18.31,18.31,18.32
37.06,18.43,0.13,18.43,0.13,-0.13,-0.56,0.05,18.30,18.30,18.30
37.43,18.43,0.15,18.43,0.15,-0.15,-0.58,0.02,18.28,18.28,18.28
37.81,18.43,0.16,18.43,0.17,-0.17,-0.59,-0.01,18.26,18.26,18.27
38.19,18.43,0.19,18.43,0.19,-0.19,-0.60,-0.05,18.24,18.24,18.24
38.57,18.43,0.21,18.43,0.21,-0.21,-0.61,-0.08,18.22,18.22,18.22
38.95,18.43,0.22,18.43,0.23,-0.23,-0.63,-0.11,18.20,18.20,18.21
39.34,18.43,0.25,18.43,0.25,-0.25,-0.64,-0.15,18.17,18.17,18.18
39.74,18.43,0.28,18.43,0.28,-0.28,-0.65,-0.18,18.15,18.15,18.15
40.14,18.43,0.30,18.43,0.30,-0.30,-0.67,-0.22,18.13,18.13,18.13
40.54,18.43,0.32,18.43,0.32,-0.32,-0.68,-0.26,18.11,18.11,18.11
40.94,18.43,0.35,18.43,0.34,-0.34,-0.70,-0.29,18.09,18.09,18.08
41.35,18.43,0.36,18.43,0.37,-0.37,-0.71,-0.33,18.06,18.06,18.07
41.76,18.43,0.39,18.43,0.39,-0.39,-0.72,-0.37,18.04,18.04,18.04
42.18,18.43,0.40,18.43,0.41,-0.41,-0.74,-0.40,18.02,18.02,18.03
42.60,18.43,0.43,18.43,0.44,-0.44,-0.76,-0.44,17.99,17.99,18.00
43.03,18.43,0.45,18.43,0.46,-0.46,-0.77,-0.48,17.97,17.97,17.98
43.46,18.43,0.49,18.43,0.49,-0.49,-0.79,-0.52,17.94,17.94,17.94
43.90,18.43,0.51,18.43,0.51,-0.51,-0.80,-0.56,17.92,17.92,17.92
44.33,18.43,0.54,18.43,0.54,-0.54,-0.82,-0.60,17.89,17.89,17.89
44.78,18.43,0.56,18.43,0.57,-0.57,-0.84,-0.64,17.86,17.86,17.87
45.23,18.43,0.58,18.43,0.60,-0.60,-0.86,-0.68,17.83,17.83,17.85
45.68,18.43,0.63,18.43,0.63,-0.63,-0.88,-0.72,17.80,17.80,17.80
46.13,18.43,0.66,18.43,0.67,-0.67,-0.89,-0.77,17.76,17.76,17.77
46.60,18.43,0.70,18.43,0.70,-0.70,-0.91,-0.81,17.73,17.73,17.73
47.06,18.43,0.73,18.43,0.74,-0.74,-0.93,-0.85,17.69,17.69,17.70
47.53,18.43,0.77,18.43,0.78,-0.78,-0.95,-0.89,17.65,17.65,17.66
48.01,18.43,0.82,18.43,0.82,-0.82,-0.97,-0.94,17.61,17.61,17.61
48.49,18.43,0.86,18.43,0.86,-0.86,-0.99,-0.98,17.57,17.57,17.57
48.97,18.43,0.91,18.43,0.90,-0.90,-1.01,-1.03,17.53,17.53,17.52
49.46,18.43,0.94,18.43,0.95,-0.95,-1.04,-1.07,17.48,17.48,17.49
49.96,18.43,1.00,18.43,0.99,-0.99,-1.06,-1.12,17.44,17.44,17.43
50.46,18.43,1.03,18.43,1.03,-1.03,-1.08,-1.16,17.40,17.40,17.40
50.96,18.43,1.07,18.43,1.07,-1.07,-1.10,-1.21,17.36,17.36,17.36
51.47,18.43,1.11,18.43,1.11,-1.11,-1.13,-1.25,17.31,17.31,17.32
51.99,18.43,1.16,18.43,1.16,-1.16,-1.15,-1.30,17.27,17.27,17.27
52.51,18.43,1.19,18.43,1.20,-1.20,-1.18,-1.34,17.23,17.23,17.24
53.03,18.43,1.22,18.43,1.24,-1.24,-1.20,-1.39,17.19,17.19,17.21
53.56,18.43,1.27,18.43,1.28,-1.28,-1.23,-1.44,17.15,17.15,17.16
54.10,18.43,1.32,18.43,1.32,-1.32,-1.25,-1.48,17.11,17.11,17.11
54.64,18.43,1.36,18.43,1.36,-1.36,-1.28,-1.53,17.07,17.07,17.07
55.18,18.43,1.40,18.43,1.40,-1.40,-1.31,-1.57,17.03,17.03,17.03
55.74,18.43,1.45,18.43,1.43,-1.43,-1.34,-1.61,17.00,17.00,16.98
56.29,18.43,1.47,18.43,1.47,-1.47,-1.37,-1.66,16.96,16.96,16.96
56.86,18.43,1.51,18.43,1.51,-1.51,-1.40,-1.70,16.92,16.92,16.92
57.42,18.43,1.56,18.43,1.55,-1.55,-1.43,-1.74,16.87,16.87,16.87
58.00,18.43,1.60,18.43,1.60,-1.60,-1.46,-1.79,16.83,16.83,16.83
58.58,18.43,1.63,18.43,1.64,-1.64,-1.49,-1.83,16.79,16.79,16.80
59.16,18.43,1.66,18.43,1.69,-1.69,-1.52,-1.87,16.74,16.74,16.77
59.76,18.43,1.71,18.43,1.73,-1.73,-1.55,-1.90,16.70,16.70,16.72
60.35,18.43,1.76,18.43,1.78,-1.78,-1.59,-1.94,16.65,16.65,16.67
60.96,18.43,1.82,18.43,1.83,-1.83,-1.62,-1.98,16.60,16.60,16.61
61.57,18.43,1.88,18.43,1.88,-1.88,-1.66,-2.01,16.55,16.55,16.55
62.18,18.43,1.94,18.43,1.93,-1.93,-1.69,-2.05,16.49,16.49,16.49
62.80,18.43,2.00,18.43,1.99,-1.99,-1.73,-2.08,16.44,16.44,16.43
63.43,18.43,2.05,18.43,2.04,-2.04,-1.77,-2.11,16.39,16.39,16.38
64.07,18.43,2.10,18.43,2.10,-2.10,-1.80,-2.14,16.33,16.33,16.33
64.71,18.43,2.15,18.43,2.15,-2.15,-1.84,-2.18,16.28,16.28,16.28
65.35,18.43,2.21,18.43,2.20,-2.20,-1.88,-2.20,16.22,16.22,16.22
66.01,18.43,2.26,18.43,2.26,-2.26,-1.92,-2.23,16.17,16.17,16.17
66.67,18.43,2.30,18.43,2.31,-2.31,-1.96,-2.26,16.12,16.11,16.13
67.33,18.43,2.37,18.43,2.37,-2.37,-2.01,-2.29,16.06,16.06,16.06
68.01,18.43,2.42,18.43,2.43,-2.43,-2.05,-2.31,16.00,16.00,16.01
68.69,18.43,2.47,18.43,2.48,-2.48,-2.09,-2.34,15.94,15.95,15.96
69.37,18.43,2.52,18.44,2.54,-2.54,-2.14,-2.37,15.89,15.89,15.91
70.07,18.43,2.58,18.44,2.60,-2.60,-2.19,-2.39,15.83,15.84,15.85
70.77,18.43,2.65,18.44,2.66,-2.66,-2.23,-2.42,15.76,15.78,15.78
71.48,18.43,2.70,18.45,2.72,-2.72,-2.28,-2.45,15.71,15.72,15.73
72.19,18.44,2.77,18.45,2.78,-2.78,-2.33,-2.47,15.66,15.66,15.67
72.91,18.45,2.85,18.44,2.84,-2.84,-2.38,-2.50,15.61,15.61,15.60
73.64,18.46,2.91,18.44,2.89,-2.89,-2.43,-2.53,15.57,15.55,15.55
74.38,18.45,2.96,18.43,2.94,-2.94,-2.48,-2.56,15.51,15.49,15.49
75.12,18.44,3.00,18.43,2.98,-2.98,-2.53,-2.59,15.45,15.44,15.44
75.87,18.43,3.04,18.41,3.03,-3.03,-2.59,-2.62,15.40,15.39,15.39
76.63,18.41,3.08,18.40,3.06,-3.06,-2.64,-2.66,15.35,15.33,15.33
77.40,18.39,3.10,18.38,3.09,-3.09,-2.70,-2.69,15.29,15.28,15.29
78.17,18.36,3.13,18.35,3.12,-3.12,-2.75,-2.73,15.24,15.23,15.23
78.95,18.33,3.14,18.33,3.15,-3.15,-2.81,-2.77,15.18,15.18,15.19
79.74,18.30,3.16,18.30,3.17,-3.17,-2.87,-2.81,15.13,15.13,15.14
80.54,18.27,3.18,18.27,3.19,-3.19,-2.93,-2.85,15.08,15.08,15.09
81.35,18.24,3.21,18.24,3.21,-3.21,-2.99,-2.89,15.03,15.03,15.03
82.16,18.21,3.21,18.21,3.23,-3.23,-3.05,-2.94,14.98,14.98,15.00
82.98,18.18,3.24,18.18,3.25,-3.25,-3.11,-2.99,14.93,14.93,14.94
83.81,18.15,3.26,18.16,3.28,-3.28,-3.17,-3.04,14.87,14.88,14.89
84.65,18.13,3.30,18.14,3.32,-3.32,-3.24,-3.09,14.81,14.83,14.83
85.50,18.11,3.34,18.12,3.35,-3.35,-3.30,-3.15,14.76,14.77,14.77
86.35,18.09,3.37,18.11,3.39,-3.39,-3.36,-3.21,14.70,14.72,14.72
87.22,18.09,3.42,18.10,3.44,-3.44,-3.43,-3.27,14.65,14.66,14.67
88.09,18.08,3.47,18.10,3.49,-3.49,-3.50,-3.33,14.59,14.61,14.61
88.97,18.09,3.54,18.09,3.54,-3.54,-3.56,-3.39,14.55,14.55,14.55
89.86,18.10,3.60,18.09,3.60,-3.60,-3.63,-3.46,14.50,14.49,14.50
90.76,18.10,3.66,18.09,3.66,-3.66,-3.70,-3.53,14.44,14.43,14.44
91.66,18.11,3.74,18.09,3.72,-3.72,-3.76,-3.61,14.39,14.37,14.37
92.58,18.11,3.79,18.10,3.78,-3.78,-3.83,-3.68,14.33,14.31,14.32
93.51,18.11,3.84,18.10,3.85,-3.85,-3.90,-3.76,14.26,14.25,14.27
94.44,18.11,3.90,18.10,3.91,-3.91,-3.97,-3.84,14.20,14.19,14.21
95.39,18.11,3.97,18.11,3.98,-3.98,-4.04,-3.92,14.13,14.13,14.14
96.34,18.11,4.04,18.11,4.04,-4.04,-4.11,-4.01,14.07,14.07,14.07
97.30,18.11,4.10,18.11,4.10,-4.10,-4.17,-4.09,14.01,14.01,14.01
98.28,18.11,4.17,18.11,4.17,-4.17,-4.24,-4.18,13.94,13.95,13.94
99.26,18.11,4.23,18.11,4.22,-4.22,-4.31,-4.27,13.88,13.89,13.88
100.25,18.11,4.29,18.11,4.28,-4.28,-4.38,-4.36,13.83,13.83,13.82
101.25,18.11,4.34,18.11,4.34,-4.34,-4.44,-4.46,13.77,13.77,13.77
102.27,18.11,4.40,18.11,4.40,-4.40,-4.51,-4.55,13.71,13.71,13.71
103.29,18.11,4.46,18.11,4.46,-4.46,-4.58,-4.65,13.65,13.65,13.65
104.32,18.11,4.51,18.11,4.52,-4.52,-4.64,-4.74,13.59,13.59,13.60
105.37,18.11,4.57,18.11,4.57,-4.57,-4.70,-4.84,13.54,13.54,13.54
106.42,18.11,4.62,18.11,4.63,-4.63,-4.77,-4.93,13.48,13.48,13.49
107.48,18.11,4.68,18.11,4.68,-4.68,-4.83,-5.03,13.42,13.42,13.43
108.56,18.11,4.73,18.11,4.74,-4.74,-4.89,-5.12,13.37,13.37,13.38
109.64,18.11,4.79,18.11,4.80,-4.80,-4.95,-5.21,13.31,13.31,13.32
110.74,18.11,4.85,18.11,4.86,-4.86,-5.01,-5.30,13.25,13.25,13.26
111.85,18.11,4.91,18.11,4.92,-4.92,-5.06,-5.39,13.19,13.19,13.20
112.97,18.11,4.96,18.11,4.98,-4.98,-5.12,-5.48,13.13,13.13,13.15
114.10,18.11,5.02,18.11,5.04,-5.04,-5.17,-5.56,13.07,13.07,13.09
115.24,18.11,5.10,18.11,5.10,-5.10,-5.22,-5.64,13.01,13.02,13.01
116.39,18.11,5.16,18.12,5.16,-5.16,-5.27,-5.71,12.95,12.96,12.95
117.55,18.11,5.22,18.12,5.22,-5.22,-5.32,-5.78,12.89,12.90,12.89
118.73,18.11,5.28,18.12,5.28,-5.28,-5.36,-5.84,12.83,12.84,12.83
119.92,18.11,5.32,18.12,5.34,-5.34,-5.41,-5.90,12.77,12.79,12.79
121.12,18.12,5.38,18.12,5.39,-5.39,-5.45,-5.95,12.73,12.73,12.74
122.33,18.13,5.45,18.12,5.45,-5.45,-5.49,-5.99,12.68,12.67,12.68
123.55,18.13,5.50,18.12,5.50,-5.50,-5.53,-6.03,12.63,12.62,12.63
124.79,18.13,5.55,18.11,5.55,-5.55,-5.56,-6.06,12.58,12.56,12.58
126.03,18.12,5.60,18.10,5.59,-5.59,-5.60,-6.08,12.53,12.51,12.52
127.29,18.10,5.63,18.09,5.63,-5.63,-5.63,-6.10,12.47,12.45,12.47
128.57,18.08,5.68,18.07,5.67,-5.67,-5.67,-6.11,12.41,12.40,12.40
129.85,18.06,5.71,18.05,5.70,-5.70,-5.70,-6.12,12.36,12.35,12.35
131.15,18.03,5.74,18.03,5.74,-5.74,-5.73,-6.12,12.29,12.29,12.29
132.46,18.01,5.77,18.00,5.77,-5.77,-5.75,-6.11,12.24,12.24,12.24
133.79,17.98,5.80,17.98,5.80,-5.80,-5.78,-6.10,12.18,12.18,12.18
135.12,17.94,5.81,17.95,5.82,-5.82,-5.80,-6.08,12.12,12.13,12.13
136.48,17.91,5.83,17.92,5.85,-5.85,-5.83,-6.06,12.06,12.07,12.08
137.84,17.88,5.85,17.90,5.87,-5.87,-5.85,-6.04,12.01,12.02,12.03
139.22,17.86,5.89,17.87,5.90,-5.90,-5.87,-6.01,11.96,11.97,11.97
140.61,17.84,5.91,17.85,5.93,-5.93,-5.90,-5.98,11.91,11.92,11.93
142.02,17.82,5.95,17.83,5.95,-5.95,-5.92,-5.95,11.86,11.88,11.87
143.44,17.80,5.97,17.81,5.98,-5.98,-5.94,-5.91,11.82,11.83,11.83
144.87,17.79,6.00,17.79,6.01,-6.01,-5.96,-5.88,11.78,11.78,11.79
146.32,17.77,6.03,17.77,6.03,-6.03,-5.98,-5.84,11.74,11.74,11.74
147.78,17.76,6.06,17.75,6.06,-6.06,-5.99,-5.81,11.70,11.69,11.70
149.26,17.74,6.09,17.73,6.08,-6.08,-6.01,-5.78,11.66,11.65,11.65
150.75,17.73,6.12,17.71,6.11,-6.11,-6.03,-5.74,11.62,11.61,11.61
152.26,17.71,6.14,17.69,6.13,-6.13,-6.05,-5.71,11.58,11.56,11.57
153.78,17.69,6.16,17.67,6.15,-6.15,-6.07,-5.68,11.54,11.52,11.53
155.32,17.66,6.17,17.65,6.17,-6.17,-6.09,-5.65,11.49,11.48,11.49
156.88,17.62,6.18,17.63,6.19,-6.19,-6.10,-5.63,11.42,11.43,11.44
158.44,17.59,6.20,17.60,6.21,-6.21,-6.12,-5.60,11.37,11.39,11.39
160.03,17.57,6.22,17.58,6.24,-6.24,-6.14,-5.58,11.33,11.34,11.35
161.63,17.55,6.24,17.56,6.26,-6.26,-6.16,-5.57,11.29,11.30,11.31
163.24,17.53,6.27,17.53,6.28,-6.28,-6.18,-5.55,11.25,11.25,11.26
164.88,17.51,6.30,17.51,6.30,-6.30,-6.20,-5.54,11.21,11.21,11.21
166.53,17.48,6.32,17.48,6.32,-6.32,-6.22,-5.54,11.16,11.16,11.16
168.19,17.46,6.33,17.46,6.34,-6.34,-6.24,-5.54,11.12,11.11,11.13
169.87,17.44,6.37,17.44,6.37,-6.37,-6.26,-5.54,11.07,11.07,11.07
171.57,17.41,6.39,17.41,6.39,-6.39,-6.28,-5.54,11.02,11.02,11.02
173.29,17.39,6.41,17.39,6.42,-6.42,-6.30,-5.55,10.97,10.97,10.98
175.02,17.37,6.44,17.37,6.44,-6.44,-6.32,-5.57,10.93,10.93,10.93
176.77,17.35,6.47,17.34,6.47,-6.47,-6.34,-5.59,10.88,10.88,10.88
178.54,17.32,6.48,17.32,6.49,-6.49,-6.36,-5.61,10.83,10.83,10.84
180.32,17.29,6.51,17.29,6.51,-6.51,-6.38,-5.64,10.78,10.79,10.78
182.13,17.27,6.52,17.27,6.53,-6.53,-6.40,-5.67,10.74,10.74,10.75
183.95,17.25,6.55,17.24,6.55,-6.55,-6.42,-5.71,10.70,10.69,10.70
185.79,17.22,6.57,17.21,6.56,-6.56,-6.44,-5.75,10.66,10.65,10.65
187.65,17.19,6.58,17.18,6.58,-6.58,-6.46,-5.79,10.61,10.60,10.61
189.52,17.16,6.59,17.16,6.60,-6.60,-6.48,-5.84,10.56,10.56,10.57
191.42,17.13,6.60,17.13,6.61,-6.61,-6.50,-5.89,10.51,10.52,10.53
193.33,17.10,6.61,17.11,6.63,-6.63,-6.51,-5.95,10.47,10.48,10.49
195.27,17.07,6.63,17.08,6.64,-6.64,-6.53,-6.01,10.42,10.44,10.44
197.22,17.04,6.65,17.06,6.66,-6.66,-6.55,-6.07,10.38,10.40,10.39
199.19,17.02,6.66,17.03,6.67,-6.67,-6.57,-6.14,10.35,10.36,10.36
201.18,17.00,6.68,17.00,6.67,-6.67,-6.59,-6.21,10.32,10.33,10.32
203.19,16.98,6.69,16.97,6.68,-6.68,-6.60,-6.28,10.30,10.29,10.29
205.23,16.96,6.69,16.94,6.69,-6.69,-6.62,-6.35,10.27,10.26,10.27
207.28,16.94,6.70,16.92,6.69,-6.69,-6.63,-6.42,10.25,10.23,10.24
209.35,16.91,6.71,16.89,6.69,-6.69,-6.64,-6.50,10.22,10.19,10.20
211.44,16.87,6.70,16.86,6.70,-6.70,-6.65,-6.58,10.17,10.16,10.17
213.56,16.83,6.68,16.83,6.70,-6.70,-6.67,-6.65,10.13,10.14,10.15
215.69,16.79,6.67,16.80,6.69,-6.69,-6.67,-6.73,10.09,10.11,10.12
217.85,16.75,6.66,16.78,6.69,-6.69,-6.68,-6.80,10.06,10.08,10.09
220.03,16.72,6.66,16.74,6.68,-6.68,-6.69,-6.88,10.03,10.06,10.06
222.23,16.69,6.66,16.71,6.67,-6.67,-6.69,-6.95,10.01,10.04,10.03
224.45,16.68,6.66,16.68,6.66,-6.66,-6.70,-7.01,10.02,10.01,10.02
226.70,16.66,6.67,16.64,6.65,-6.65,-6.70,-7.08,10.01,9.99,9.99
228.96,16.63,6.65,16.60,6.63,-6.63,-6.70,-7.13,10.00,9.97,9.98
231.25,16.60,6.64,16.57,6.62,-6.62,-6.69,-7.19,9.98,9.95,9.96
233.57,16.56,6.62,16.54,6.60,-6.60,-6.69,-7.23,9.96,9.94,9.94
235.90,16.51,6.58,16.50,6.58,-6.58,-6.68,-7.27,9.93,9.92,9.93
238.26,16.47,6.57,16.47,6.56,-6.56,-6.67,-7.30,9.91,9.91,9.90
240.64,16.42,6.51,16.44,6.54,-6.54,-6.66,-7.33,9.88,9.90,9.91
243.05,16.38,6.49,16.40,6.52,-6.52,-6.65,-7.34,9.86,9.89,9.89
245.48,16.34,6.46,16.37,6.49,-6.49,-6.63,-7.34,9.85,9.88,9.88
247.93,16.32,6.45,16.34,6.46,-6.46,-6.61,-7.34,9.86,9.87,9.87
250.41,16.30,6.42,16.30,6.43,-6.43,-6.59,-7.32,9.87,9.87,9.88
252.92,16.28,6.41,16.27,6.41,-6.41,-6.57,-7.30,9.87,9.86,9.87
255.45,16.26,6.40,16.24,6.38,-6.38,-6.55,-7.27,9.88,9.86,9.86
258.00,16.22,6.36,16.21,6.36,-6.36,-6.52,-7.22,9.86,9.85,9.86
260.58,16.19,6.33,16.18,6.33,-6.33,-6.49,-7.17,9.86,9.85,9.86
263.19,16.15,6.29,16.16,6.31,-6.31,-6.46,-7.11,9.84,9.85,9.86
265.82,16.12,6.27,16.13,6.28,-6.28,-6.42,-7.03,9.84,9.85,9.85
268.48,16.09,6.24,16.10,6.25,-6.25,-6.39,-6.96,9.83,9.84,9.85
271.16,16.06,6.21,16.07,6.23,-6.23,-6.35,-6.87,9.83,9.84,9.85
273.87,16.03,6.18,16.03,6.19,-6.19,-6.31,-6.78,9.84,9.84,9.85
276.61,16.01,6.16,15.99,6.15,-6.15,-6.26,-6.68,9.85,9.84,9.85
279.38,15.98,6.15,15.95,6.12,-6.12,-6.22,-6.58,9.86,9.84,9.83
282.17,15.93,6.10,15.91,6.08,-6.08,-6.17,-6.47,9.85,9.84,9.83
284.99,15.88,6.04,15.87,6.03,-6.03,-6.12,-6.36,9.84,9.84,9.84
287.84,15.83,5.98,15.84,5.99,-5.99,-6.07,-6.25,9.84,9.84,9.85
290.72,15.79,5.95,15.79,5.95,-5.95,-6.01,-6.13,9.84,9.84,9.84
293.63,15.75,5.90,15.75,5.91,-5.91,-5.96,-6.02,9.84,9.85,9.85
296.57,15.70,5.84,15.71,5.86,-5.86,-5.90,-5.90,9.84,9.85,9.86
299.53,15.65,5.79,15.67,5.81,-5.81,-5.84,-5.78,9.84,9.86,9.86
302.53,15.60,5.72,15.62,5.76,-5.76,-5.78,-5.67,9.84,9.86,9.88
305.55,15.57,5.70,15.58,5.71,-5.71,-5.72,-5.55,9.86,9.87,9.87
308.61,15.54,5.66,15.53,5.66,-5.66,-5.65,-5.44,9.88,9.88,9.88
311.69,15.50,5.61,15.49,5.60,-5.60,-5.59,-5.32,9.90,9.88,9.89
314.81,15.45,5.56,15.44,5.55,-5.55,-5.52,-5.21,9.90,9.89,9.89
317.96,15.40,5.50,15.40,5.50,-5.50,-5.45,-5.10,9.90,9.90,9.90
321.14,15.35,5.44,15.35,5.44,-5.44,-5.38,-5.00,9.91,9.90,9.91
324.35,15.30,5.39,15.30,5.38,-5.38,-5.31,-4.89,9.92,9.91,9.91
327.59,15.25,5.31,15.25,5.32,-5.32,-5.24,-4.79,9.92,9.92,9.94
330.87,15.20,5.27,15.19,5.27,-5.27,-5.16,-4.69,9.93,9.93,9.93
334.18,15.15,5.21,15.14,5.20,-5.20,-5.09,-4.60,9.95,9.94,9.94
337.52,15.09,5.15,15.08,5.14,-5.14,-5.01,-4.51,9.95,9.94,9.94
340.90,15.02,5.06,15.02,5.07,-5.07,-4.94,-4.42,9.95,9.95,9.96
344.30,14.96,4.99,14.96,5.00,-5.00,-4.86,-4.33,9.96,9.96,9.97
347.75,14.90,4.93,14.90,4.94,-4.94,-4.78,-4.25,9.96,9.97,9.97
351.23,14.83,4.86,14.84,4.87,-4.87,-4.70,-4.17,9.96,9.98,9.97
354.74,14.77,4.77,14.78,4.80,-4.80,-4.62,-4.09,9.97,9.98,10.00
358.28,14.72,4.73,14.72,4.73,-4.73,-4.54,-4.02,9.99,9.99,9.99
361.87,14.67,4.67,14.66,4.66,-4.66,-4.46,-3.95,10.01,10.00,10.00
365.49,14.61,4.60,14.60,4.60,-4.60,-4.38,-3.89,10.01,10.01,10.01
369.14,14.54,4.51,14.54,4.53,-4.53,-4.30,-3.82,10.01,10.02,10.03
372.83,14.47,4.44,14.48,4.46,-4.46,-4.22,-3.76,10.01,10.02,10.03
376.56,14.42,4.39,14.42,4.39,-4.39,-4.14,-3.71,10.03,10.03,10.03
380.33,14.37,4.33,14.37,4.32,-4.32,-4.05,-3.65,10.05,10.04,10.04
384.13,14.31,4.25,14.30,4.25,-4.25,-3.97,-3.60,10.06,10.05,10.06
387.97,14.24,4.18,14.24,4.18,-4.18,-3.89,-3.55,10.06,10.06,10.06
391.85,14.18,4.11,14.18,4.11,-4.11,-3.80,-3.51,10.07,10.07,10.07
395.77,14.13,4.05,14.12,4.04,-4.04,-3.72,-3.46,10.09,10.08,10.08
399.73,14.06,3.97,14.05,3.96,-3.96,-3.63,-3.42,10.10,10.09,10.09
403.72,13.99,3.87,13.98,3.88,-3.88,-3.55,-3.38,10.11,10.10,10.12
407.76,13.92,3.81,13.92,3.81,-3.81,-3.47,-3.34,10.11,10.11,10.11
411.84,13.84,3.72,13.85,3.73,-3.73,-3.38,-3.30,10.11,10.12,10.12
415.96,13.77,3.63,13.78,3.65,-3.65,-3.30,-3.26,10.12,10.13,10.14
420.12,13.70,3.56,13.70,3.57,-3.57,-3.21,-3.23,10.13,10.14,10.14
424.32,13.63,3.48,13.63,3.48,-3.48,-3.12,-3.19,10.14,10.15,10.15
428.56,13.57,3.40,13.56,3.40,-3.40,-3.04,-3.15,10.17,10.16,10.17
432.85,13.49,3.31,13.48,3.32,-3.32,-2.95,-3.12,10.17,10.17,10.18
