frequency,raw,error,smoothed,error_smoothed,equalization,parametric_eq,fixed_band_eq,equalized_raw,equalized_smoothed,target
20.00,-7.73,-9.62,-7.74,-9.63,9.63,9.52,3.61,1.90,1.89,1.89
20.20,-7.69,-9.61,-7.69,-9.61,9.61,9.48,3.71,1.92,1.92,1.92
20.40,-7.66,-9.61,-7.64,-9.59,9.58,9.44,3.82,1.92,1.94,1.95
20.61,-7.59,-9.56,-7.59,-9.56,9.55,9.40,3.93,1.96,1.97,1.97
20.81,-7.51,-9.51,-7.52,-9.52,9.52,9.35,4.04,2.01,2.00,2.00
21.02,-7.46,-9.49,-7.47,-9.49,9.49,9.31,4.15,2.02,2.02,2.03
21.23,-7.42,-9.46,-7.41,-9.45,9.45,9.26,4.27,2.02,2.03,2.04
21.44,-7.37,-9.42,-7.36,-9.41,9.40,9.22,4.39,2.03,2.04,2.05
21.66,-7.28,-9.34,-7.30,-9.35,9.35,9.17,4.51,2.07,2.06,2.06
21.87,-7.23,-9.29,-7.23,-9.29,9.30,9.12,4.64,2.07,2.07,2.06
22.09,-7.18,-9.25,-7.17,-9.24,9.24,9.07,4.77,2.06,2.07,2.07
22.31,-7.12,-9.19,-7.12,-9.19,9.18,9.02,4.90,2.06,2.06,2.07
22.54,-7.06,-9.13,-7.06,-9.13,9.12,8.98,5.04,2.06,2.06,2.07
22.76,-7.00,-9.07,-7.00,-9.06,9.06,8.93,5.18,2.06,2.06,2.07
22.99,-6.93,-8.99,-6.93,-8.99,9.00,8.88,5.33,2.07,2.07,2.06
23.22,-6.87,-8.93,-6.87,-8.93,8.94,8.83,5.48,2.07,2.07,2.06
23.45,-6.81,-8.87,-6.81,-8.87,8.88,8.77,5.63,2.07,2.07,2.06
23.69,-6.76,-8.82,-6.76,-8.82,8.82,8.72,5.79,2.06,2.06,2.06
23.92,-6.72,-8.78,-6.72,-8.78,8.76,8.67,5.95,2.04,2.05,2.06
24.16,-6.67,-8.73,-6.67,-8.72,8.71,8.62,6.11,2.04,2.04,2.06
24.40,-6.61,-8.67,-6.61,-8.66,8.65,8.57,6.28,2.05,2.05,2.06
24.65,-6.54,-8.59,-6.55,-8.60,8.60,8.52,6.45,2.06,2.06,2.05
24.89,-6.48,-8.53,-6.49,-8.54,8.55,8.47,6.62,2.07,2.06,2.05
25.14,-6.45,-8.50,-6.44,-8.49,8.49,8.42,6.80,2.04,2.05,2.05
25.39,-6.40,-8.45,-6.39,-8.44,8.44,8.37,6.98,2.04,2.05,2.05
25.65,-6.34,-8.39,-6.35,-8.39,8.39,8.32,7.16,2.05,2.04,2.05
25.91,-6.30,-8.34,-6.30,-8.34,8.34,8.27,7.34,2.04,2.04,2.04
26.16,-6.26,-8.30,-6.25,-8.29,8.29,8.21,7.52,2.03,2.04,2.04
26.43,-6.20,-8.24,-6.21,-8.25,8.25,8.16,7.70,2.04,2.04,2.04
26.69,-6.16,-8.20,-6.16,-8.20,8.20,8.11,7.89,2.04,2.04,2.04
26.96,-6.12,-8.16,-6.12,-8.15,8.15,8.06,8.07,2.03,2.03,2.04
27.23,-6.07,-8.10,-6.07,-8.10,8.10,8.01,8.25,2.03,2.03,2.03
27.50,-6.03,-8.06,-6.03,-8.06,8.05,7.96,8.42,2.02,2.02,2.03
27.77,-5.98,-8.00,-5.98,-8.00,8.01,7.91,8.60,2.03,2.02,2.02
28.05,-5.95,-7.97,-5.94,-7.96,7.96,7.87,8.76,2.01,2.02,2.02
28.33,-5.89,-7.90,-5.90,-7.91,7.91,7.82,8.92,2.02,2.01,2.01
28.62,-5.86,-7.87,-5.86,-7.87,7.86,7.77,9.07,2.00,2.01,2.01
28.90,-5.81,-7.82,-5.81,-7.82,7.82,7.72,9.21,2.01,2.00,2.01
29.19,-5.78,-7.78,-5.77,-7.77,7.77,7.67,9.35,1.99,2.00,2.00
29.48,-5.72,-7.72,-5.73,-7.73,7.72,7.62,9.46,2.00,1.99,2.00
29.78,-5.69,-7.68,-5.69,-7.68,7.68,7.57,9.57,1.99,1.99,1.99
30.08,-5.65,-7.64,-5.65,-7.63,7.63,7.52,9.65,1.98,1.99,1.99
30.38,-5.60,-7.58,-5.61,-7.59,7.59,7.48,9.73,1.99,1.98,1.98
30.68,-5.57,-7.55,-5.57,-7.54,7.54,7.43,9.78,1.97,1.98,1.98
30.99,-5.53,-7.50,-5.53,-7.50,7.50,7.38,9.82,1.97,1.97,1.97
31.30,-5.49,-7.45,-5.50,-7.46,7.46,7.33,9.83,1.97,1.96,1.96
31.61,-5.46,-7.42,-5.46,-7.41,7.41,7.28,9.83,1.95,1.95,1.96
31.93,-5.43,-7.38,-5.43,-7.37,7.37,7.23,9.81,1.94,1.94,1.95
32.24,-5.39,-7.33,-5.39,-7.33,7.33,7.19,9.77,1.94,1.94,1.94
32.57,-5.34,-7.28,-5.35,-7.28,7.28,7.14,9.72,1.94,1.94,1.94
32.89,-5.31,-7.24,-5.31,-7.23,7.24,7.09,9.64,1.93,1.93,1.93
33.22,-5.27,-7.19,-5.27,-7.19,7.19,7.04,9.56,1.92,1.92,1.92
33.55,-5.23,-7.15,-5.23,-7.14,7.14,6.99,9.45,1.91,1.91,1.92
33.89,-5.19,-7.10,-5.19,-7.10,7.09,6.94,9.34,1.90,1.90,1.91
34.23,-5.14,-7.04,-5.15,-7.05,7.04,6.89,9.22,1.90,1.89,1.90
34.57,-5.11,-7.00,-5.10,-6.99,6.99,6.84,9.08,1.88,1.88,1.89
34.92,-5.05,-6.93,-5.05,-6.93,6.93,6.79,8.94,1.88,1.88,1.88
35.27,-5.00,-6.87,-5.00,-6.87,6.87,6.75,8.79,1.87,1.87,1.87
35.62,-4.95,-6.81,-4.95,-6.81,6.82,6.70,8.64,1.86,1.86,1.86
35.97,-4.91,-6.76,-4.91,-6.75,6.76,6.65,8.48,1.85,1.85,1.85
36.33,-4.86,-6.70,-4.86,-6.70,6.70,6.59,8.32,1.84,1.84,1.84
36.70,-4.81,-6.64,-4.81,-6.64,6.64,6.54,8.15,1.83,1.83,1.83
37.06,-4.76,-6.58,-4.76,-6.58,6.58,6.49,7.99,1.82,1.82,1.82
37.43,-4.72,-6.53,-4.71,-6.52,6.52,6.44,7.83,1.80,1.81,1.81
37.81,-4.66,-6.46,-4.66,-6.46,6.46,6.39,7.66,1.80,1.80,1.80
38.19,-4.61,-6.40,-4.61,-6.40,6.40,6.34,7.50,1.79,1.79,1.79
38.57,-4.56,-6.34,-4.56,-6.34,6.34,6.28,7.34,1.78,1.77,1.78
38.95,-4.52,-6.29,-4.51,-6.28,6.27,6.23,7.18,1.75,1.76,1.77
39.34,-4.46,-6.21,-4.46,-6.21,6.21,6.18,7.03,1.75,1.75,1.75
39.74,-4.40,-6.14,-4.41,-6.15,6.15,6.12,6.88,1.75,1.74,1.74
40.14,-4.36,-6.09,-4.36,-6.08,6.08,6.07,6.73,1.72,1.73,1.73
40.54,-4.31,-6.03,-4.30,-6.02,6.02,6.02,6.58,1.71,1.72,1.72
40.94,-4.25,-5.96,-4.25,-5.96,5.97,5.96,6.44,1.72,1.71,1.71
41.35,-4.20,-5.90,-4.21,-5.90,5.91,5.91,6.31,1.71,1.70,1.70
41.76,-4.17,-5.86,-4.17,-5.85,5.86,5.85,6.18,1.69,1.69,1.69
42.18,-4.13,-5.81,-4.13,-5.81,5.80,5.79,6.05,1.67,1.68,1.68
42.60,-4.09,-5.76,-4.09,-5.76,5.75,5.74,5.92,1.66,1.66,1.67
43.03,-4.05,-5.71,-4.05,-5.71,5.70,5.68,5.80,1.65,1.65,1.66
43.46,-4.02,-5.66,-4.02,-5.66,5.65,5.62,5.69,1.63,1.64,1.64
43.90,-3.99,-5.61,-3.99,-5.61,5.60,5.56,5.58,1.61,1.62,1.62
44.33,-3.95,-5.55,-3.96,-5.56,5.55,5.51,5.47,1.60,1.60,1.60
44.78,-3.93,-5.51,-3.93,-5.50,5.51,5.45,5.36,1.58,1.58,1.58
45.23,-3.90,-5.46,-3.89,-5.45,5.46,5.39,5.27,1.56,1.57,1.56
45.68,-3.85,-5.40,-3.86,-5.41,5.41,5.33,5.17,1.56,1.55,1.55
46.13,-3.83,-5.36,-3.83,-5.36,5.37,5.27,5.08,1.54,1.54,1.53
46.60,-3.81,-5.33,-3.80,-5.32,5.32,5.21,4.99,1.51,1.52,1.52
47.06,-3.77,-5.27,-3.78,-5.28,5.27,5.15,4.91,1.50,1.49,1.50
47.53,-3.76,-5.24,-3.75,-5.23,5.23,5.09,4.83,1.47,1.48,1.48
48.01,-3.71,-5.18,-3.72,-5.18,5.18,5.03,4.75,1.47,1.46,1.47
48.49,-3.68,-5.12,-3.69,-5.13,5.12,4.97,4.68,1.44,1.43,1.44
48.97,-3.67,-5.08,-3.66,-5.06,5.07,4.91,4.61,1.40,1.41,1.41
49.46,-3.62,-5.00,-3.63,-5.01,5.00,4.85,4.54,1.38,1.38,1.38
49.96,-3.59,-4.94,-3.59,-4.94,4.94,4.79,4.48,1.35,1.35,1.35
50.46,-3.55,-4.88,-3.54,-4.87,4.87,4.73,4.42,1.32,1.32,1.33
50.96,-3.49,-4.80,-3.49,-4.80,4.79,4.67,4.36,1.30,1.30,1.31
51.47,-3.43,-4.71,-3.43,-4.71,4.72,4.60,4.31,1.28,1.28,1.28
51.99,-3.37,-4.63,-3.37,-4.63,4.63,4.54,4.25,1.26,1.26,1.26
52.51,-3.31,-4.55,-3.31,-4.55,4.55,4.48,4.20,1.24,1.23,1.24
53.03,-3.25,-4.47,-3.25,-4.46,4.46,4.42,4.15,1.21,1.21,1.22
53.56,-3.18,-4.37,-3.18,-4.37,4.37,4.36,4.11,1.18,1.19,1.19
54.10,-3.10,-4.27,-3.11,-4.28,4.27,4.30,4.06,1.17,1.16,1.17
54.64,-3.05,-4.19,-3.04,-4.18,4.18,4.24,4.02,1.13,1.14,1.14
55.18,-2.97,-4.09,-2.97,-4.09,4.09,4.18,3.97,1.12,1.12,1.12
55.74,-2.90,-3.99,-2.91,-4.00,4.00,4.12,3.93,1.10,1.09,1.09
56.29,-2.85,-3.92,-2.85,-3.91,3.92,4.05,3.89,1.06,1.07,1.07
56.86,-2.79,-3.84,-2.79,-3.83,3.83,3.99,3.85,1.04,1.04,1.05
57.42,-2.73,-3.75,-2.73,-3.75,3.75,3.93,3.80,1.02,1.02,1.02
58.00,-2.68,-3.68,-2.68,-3.67,3.68,3.87,3.76,1.00,1.00,1.00
58.58,-2.62,-3.60,-2.62,-3.60,3.61,3.81,3.72,0.99,0.98,0.98
59.16,-2.57,-3.53,-2.58,-3.54,3.54,3.75,3.68,0.96,0.96,0.96
59.76,-2.54,-3.48,-2.54,-3.47,3.47,3.69,3.63,0.92,0.93,0.94
60.35,-2.51,-3.42,-2.50,-3.41,3.40,3.63,3.59,0.89,0.90,0.91
60.96,-2.46,-3.34,-2.47,-3.34,3.33,3.58,3.54,0.87,0.87,0.88
61.57,-2.42,-3.26,-2.43,-3.27,3.27,3.52,3.50,0.85,0.84,0.84
62.18,-2.41,-3.22,-2.40,-3.21,3.21,3.46,3.45,0.80,0.82,0.81
62.80,-2.36,-3.14,-2.37,-3.15,3.16,3.40,3.40,0.80,0.79,0.78
63.43,-2.36,-3.11,-2.35,-3.10,3.11,3.34,3.35,0.75,0.76,0.75
64.07,-2.32,-3.04,-2.33,-3.05,3.06,3.29,3.30,0.73,0.72,0.72
64.71,-2.32,-3.02,-2.32,-3.01,3.01,3.23,3.25,0.69,0.69,0.70
65.35,-2.32,-2.99,-2.30,-2.97,2.96,3.17,3.19,0.64,0.66,0.67
66.01,-2.27,-2.91,-2.29,-2.93,2.91,3.12,3.14,0.64,0.63,0.64
66.67,-2.27,-2.88,-2.26,-2.87,2.87,3.06,3.08,0.60,0.61,0.61
67.33,-2.24,-2.82,-2.24,-2.82,2.83,3.00,3.02,0.58,0.58,0.58
68.01,-2.22,-2.77,-2.23,-2.78,2.78,2.95,2.96,0.56,0.55,0.55
68.69,-2.22,-2.74,-2.21,-2.73,2.74,2.89,2.90,0.51,0.52,0.52
69.37,-2.20,-2.69,-2.20,-2.69,2.69,2.84,2.84,0.49,0.49,0.49
70.07,-2.18,-2.64,-2.19,-2.65,2.64,2.79,2.78,0.46,0.45,0.46
70.77,-2.18,-2.61,-2.18,-2.61,2.60,2.73,2.72,0.42,0.42,0.43
71.48,-2.18,-2.58,-2.17,-2.57,2.56,2.68,2.66,0.38,0.39,0.40
72.19,-2.16,-2.52,-2.16,-2.52,2.51,2.63,2.59,0.35,0.36,0.36
72.91,-2.13,-2.46,-2.14,-2.47,2.47,2.58,2.53,0.34,0.33,0.33
73.64,-2.13,-2.42,-2.13,-2.42,2.43,2.52,2.47,0.30,0.30,0.29
74.38,-2.13,-2.39,-2.13,-2.38,2.39,2.47,2.41,0.26,0.26,0.26
75.12,-2.13,-2.35,-2.13,-2.35,2.35,2.42,2.34,0.22,0.22,0.22
75.87,-2.13,-2.32,-2.13,-2.32,2.31,2.37,2.28,0.18,0.18,0.19
76.63,-2.13,-2.29,-2.13,-2.28,2.28,2.32,2.22,0.14,0.15,0.16
77.40,-2.12,-2.25,-2.12,-2.25,2.24,2.27,2.16,0.12,0.11,0.13
78.17,-2.11,-2.20,-2.11,-2.20,2.20,2.22,2.10,0.09,0.09,0.09
78.95,-2.11,-2.17,-2.10,-2.16,2.16,2.18,2.04,0.05,0.06,0.06
79.74,-2.08,-2.11,-2.09,-2.11,2.12,2.13,1.98,0.04,0.03,0.03
80.54,-2.08,-2.07,-2.08,-2.07,2.08,2.08,1.92,-0.00,-0.01,-0.01
81.35,-2.08,-2.04,-2.08,-2.03,2.04,2.03,1.87,-0.04,-0.04,-0.04
82.16,-2.08,-2.00,-2.08,-2.00,2.00,1.98,1.81,-0.08,-0.08,-0.08
82.98,-2.08,-1.97,-2.08,-1.96,1.96,1.94,1.76,-0.12,-0.12,-0.11
83.81,-2.08,-1.93,-2.08,-1.93,1.93,1.89,1.70,-0.15,-0.15,-0.15
84.65,-2.08,-1.89,-2.08,-1.89,1.90,1.85,1.65,-0.18,-0.18,-0.19
85.50,-2.08,-1.86,-2.09,-1.86,1.87,1.80,1.60,-0.21,-0.22,-0.22
86.35,-2.11,-1.85,-2.10,-1.84,1.84,1.76,1.55,-0.28,-0.27,-0.26
87.22,-2.11,-1.81,-2.11,-1.81,1.80,1.71,1.50,-0.31,-0.30,-0.30
88.09,-2.11,-1.77,-2.11,-1.77,1.77,1.67,1.45,-0.34,-0.35,-0.34
88.97,-2.11,-1.73,-2.12,-1.73,1.73,1.62,1.40,-0.38,-0.38,-0.38
89.86,-2.13,-1.71,-2.12,-1.70,1.70,1.58,1.35,-0.43,-0.43,-0.42
90.76,-2.13,-1.66,-2.13,-1.66,1.66,1.54,1.31,-0.47,-0.47,-0.47
91.66,-2.13,-1.62,-2.13,-1.62,1.62,1.49,1.26,-0.51,-0.52,-0.51
92.58,-2.13,-1.57,-2.13,-1.57,1.57,1.45,1.22,-0.56,-0.56,-0.56
93.51,-2.13,-1.53,-2.13,-1.53,1.53,1.41,1.17,-0.60,-0.60,-0.60
94.44,-2.13,-1.49,-2.13,-1.48,1.48,1.37,1.13,-0.65,-0.65,-0.64
95.39,-2.13,-1.44,-2.13,-1.44,1.43,1.33,1.09,-0.70,-0.70,-0.69
96.34,-2.13,-1.39,-2.13,-1.39,1.39,1.29,1.05,-0.74,-0.74,-0.74
97.30,-2.13,-1.34,-2.13,-1.34,1.34,1.25,1.01,-0.79,-0.79,-0.79
98.28,-2.13,-1.29,-2.13,-1.29,1.30,1.20,0.97,-0.83,-0.83,-0.84
99.26,-2.13,-1.25,-2.13,-1.24,1.26,1.16,0.93,-0.87,-0.87,-0.88
100.25,-2.13,-1.20,-2.14,-1.21,1.21,1.12,0.89,-0.92,-0.93,-0.93
101.25,-2.16,-1.18,-2.16,-1.17,1.17,1.08,0.85,-0.99,-0.99,-0.98
102.27,-2.18,-1.15,-2.17,-1.14,1.13,1.05,0.82,-1.05,-1.04,-1.03
103.29,-2.18,-1.10,-2.18,-1.10,1.09,1.01,0.78,-1.09,-1.09,-1.08
104.32,-2.18,-1.06,-2.18,-1.06,1.05,0.97,0.75,-1.13,-1.13,-1.12
105.37,-2.18,-1.01,-2.18,-1.01,1.01,0.93,0.71,-1.17,-1.17,-1.17
106.42,-2.18,-0.96,-2.18,-0.96,0.97,0.89,0.68,-1.21,-1.21,-1.22
107.48,-2.18,-0.91,-2.19,-0.92,0.93,0.85,0.64,-1.25,-1.26,-1.27
108.56,-2.20,-0.88,-2.20,-0.88,0.88,0.81,0.61,-1.32,-1.32,-1.32
109.64,-2.22,-0.85,-2.21,-0.84,0.83,0.77,0.58,-1.39,-1.38,-1.37
110.74,-2.22,-0.80,-2.22,-0.80,0.79,0.74,0.55,-1.43,-1.43,-1.42
111.85,-2.22,-0.75,-2.22,-0.75,0.74,0.70,0.51,-1.48,-1.48,-1.47
112.97,-2.22,-0.69,-2.22,-0.69,0.69,0.66,0.48,-1.53,-1.53,-1.53
114.10,-2.22,-0.64,-2.22,-0.64,0.63,0.62,0.45,-1.59,-1.59,-1.58
115.24,-2.22,-0.58,-2.22,-0.58,0.58,0.59,0.42,-1.64,-1.64,-1.64
116.39,-2.22,-0.53,-2.22,-0.53,0.53,0.55,0.39,-1.69,-1.69,-1.69
117.55,-2.22,-0.47,-2.22,-0.47,0.48,0.51,0.36,-1.75,-1.74,-1.75
118.73,-2.22,-0.42,-2.22,-0.42,0.43,0.47,0.33,-1.79,-1.79,-1.80
119.92,-2.22,-0.37,-2.22,-0.37,0.38,0.44,0.30,-1.84,-1.84,-1.85
121.12,-2.23,-0.33,-2.23,-0.33,0.34,0.40,0.28,-1.89,-1.90,-1.90
122.33,-2.25,-0.30,-2.25,-0.30,0.29,0.36,0.25,-1.96,-1.96,-1.95
123.55,-2.27,-0.27,-2.26,-0.26,0.25,0.33,0.22,-2.02,-2.01,-2.00
124.79,-2.27,-0.22,-2.27,-0.22,0.21,0.29,0.19,-2.06,-2.07,-2.05
126.03,-2.27,-0.17,-2.27,-0.17,0.16,0.25,0.16,-2.11,-2.11,-2.10
127.29,-2.27,-0.12,-2.27,-0.11,0.11,0.22,0.14,-2.16,-2.16,-2.15
128.57,-2.27,-0.06,-2.27,-0.06,0.06,0.18,0.11,-2.21,-2.21,-2.21
129.85,-2.27,-0.01,-2.27,-0.01,0.01,0.14,0.08,-2.26,-2.26,-2.26
131.15,-2.27,0.04,-2.27,0.04,-0.04,0.10,0.05,-2.31,-2.31,-2.31
132.46,-2.27,0.09,-2.27,0.09,-0.09,0.07,0.03,-2.36,-2.36,-2.36
133.79,-2.27,0.13,-2.27,0.13,-0.14,0.03,0.00,-2.41,-2.41,-2.40
135.12,-2.27,0.18,-2.27,0.18,-0.18,-0.01,-0.03,-2.45,-2.45,-2.45
136.48,-2.27,0.22,-2.27,0.23,-0.23,-0.04,-0.05,-2.50,-2.50,-2.49
137.84,-2.27,0.27,-2.27,0.27,-0.27,-0.08,-0.08,-2.54,-2.54,-2.54
139.22,-2.27,0.32,-2.27,0.32,-0.31,-0.12,-0.11,-2.58,-2.58,-2.59
140.61,-2.27,0.36,-2.27,0.36,-0.36,-0.16,-0.13,-2.63,-2.63,-2.63
142.02,-2.27,0.39,-2.27,0.40,-0.40,-0.19,-0.16,-2.67,-2.67,-2.66
143.44,-2.27,0.43,-2.27,0.43,-0.44,-0.23,-0.19,-2.71,-2.71,-2.70
144.87,-2.27,0.47,-2.27,0.47,-0.47,-0.27,-0.22,-2.75,-2.75,-2.74
146.32,-2.27,0.51,-2.27,0.51,-0.51,-0.31,-0.24,-2.78,-2.78,-2.78
147.78,-2.27,0.54,-2.27,0.55,-0.55,-0.34,-0.27,-2.82,-2.81,-2.81
149.26,-2.27,0.58,-2.27,0.58,-0.58,-0.38,-0.30,-2.85,-2.85,-2.85
150.75,-2.27,0.62,-2.27,0.62,-0.61,-0.42,-0.33,-2.88,-2.88,-2.89
152.26,-2.29,0.64,-2.29,0.65,-0.64,-0.46,-0.36,-2.93,-2.93,-2.93
153.78,-2.29,0.68,-2.30,0.67,-0.67,-0.50,-0.39,-2.97,-2.97,-2.97
155.32,-2.32,0.69,-2.31,0.70,-0.71,-0.54,-0.42,-3.03,-3.02,-3.01
156.88,-2.32,0.73,-2.32,0.73,-0.74,-0.57,-0.45,-3.06,-3.06,-3.05
158.44,-2.32,0.77,-2.32,0.77,-0.77,-0.61,-0.48,-3.10,-3.10,-3.09
160.03,-2.32,0.81,-2.32,0.81,-0.81,-0.65,-0.52,-3.13,-3.13,-3.13
161.63,-2.32,0.85,-2.32,0.85,-0.85,-0.69,-0.55,-3.17,-3.17,-3.17
163.24,-2.32,0.89,-2.32,0.89,-0.89,-0.73,-0.58,-3.21,-3.21,-3.21
164.88,-2.32,0.92,-2.32,0.93,-0.92,-0.77,-0.61,-3.25,-3.25,-3.24
166.53,-2.32,0.96,-2.32,0.96,-0.96,-0.81,-0.65,-3.28,-3.28,-3.28
168.19,-2.32,1.00,-2.32,1.00,-1.00,-0.84,-0.68,-3.32,-3.32,-3.32
169.87,-2.32,1.04,-2.32,1.04,-1.04,-0.88,-0.72,-3.36,-3.36,-3.36
171.57,-2.32,1.08,-2.32,1.08,-1.08,-0.92,-0.76,-3.40,-3.40,-3.40
173.29,-2.32,1.11,-2.32,1.12,-1.12,-0.96,-0.79,-3.44,-3.44,-3.43
175.02,-2.32,1.15,-2.32,1.15,-1.15,-1.00,-0.83,-3.48,-3.48,-3.47
176.77,-2.32,1.19,-2.32,1.19,-1.19,-1.04,-0.87,-3.51,-3.51,-3.51
178.54,-2.32,1.23,-2.32,1.23,-1.23,-1.08,-0.91,-3.55,-3.55,-3.55
180.32,-2.32,1.27,-2.32,1.27,-1.27,-1.11,-0.95,-3.59,-3.59,-3.59
182.13,-2.32,1.30,-2.32,1.30,-1.30,-1.15,-0.99,-3.62,-3.62,-3.62
183.95,-2.32,1.34,-2.32,1.34,-1.34,-1.19,-1.03,-3.66,-3.66,-3.66
185.79,-2.32,1.37,-2.32,1.37,-1.37,-1.23,-1.08,-3.70,-3.70,-3.69
187.65,-2.32,1.41,-2.32,1.41,-1.41,-1.26,-1.12,-3.73,-3.73,-3.73
189.52,-2.32,1.44,-2.32,1.44,-1.44,-1.30,-1.16,-3.76,-3.76,-3.76
191.42,-2.32,1.47,-2.32,1.47,-1.47,-1.33,-1.21,-3.79,-3.79,-3.79
193.33,-2.32,1.50,-2.32,1.50,-1.50,-1.37,-1.25,-3.83,-3.83,-3.82
195.27,-2.32,1.53,-2.32,1.53,-1.53,-1.40,-1.30,-3.85,-3.85,-3.85
197.22,-2.32,1.56,-2.32,1.56,-1.56,-1.44,-1.35,-3.88,-3.88,-3.88
199.19,-2.32,1.59,-2.32,1.59,-1.59,-1.47,-1.39,-3.91,-3.91,-3.91
201.18,-2.32,1.61,-2.32,1.61,-1.61,-1.50,-1.44,-3.93,-3.93,-3.93
203.19,-2.32,1.63,-2.32,1.63,-1.63,-1.54,-1.48,-3.95,-3.95,-3.95
205.23,-2.32,1.65,-2.32,1.65,-1.65,-1.57,-1.53,-3.97,-3.97,-3.97
207.28,-2.32,1.66,-2.32,1.67,-1.67,-1.60,-1.58,-3.99,-3.99,-3.98
209.35,-2.32,1.68,-2.32,1.68,-1.68,-1.63,-1.62,-4.00,-4.00,-4.00
211.44,-2.32,1.70,-2.32,1.70,-1.69,-1.65,-1.67,-4.01,-4.01,-4.02
213.56,-2.32,1.71,-2.32,1.71,-1.71,-1.68,-1.71,-4.03,-4.03,-4.03
215.69,-2.32,1.71,-2.32,1.71,-1.72,-1.71,-1.76,-4.04,-4.04,-4.03
217.85,-2.32,1.72,-2.32,1.72,-1.74,-1.73,-1.80,-4.06,-4.06,-4.04
220.03,-2.32,1.73,-2.31,1.74,-1.75,-1.76,-1.84,-4.07,-4.06,-4.05
222.23,-2.30,1.76,-2.30,1.76,-1.76,-1.78,-1.88,-4.06,-4.06,-4.06
224.45,-2.27,1.79,-2.28,1.78,-1.77,-1.80,-1.92,-4.04,-4.05,-4.06
226.70,-2.27,1.79,-2.27,1.79,-1.78,-1.82,-1.95,-4.05,-4.05,-4.06
228.96,-2.27,1.79,-2.27,1.79,-1.79,-1.84,-1.99,-4.06,-4.05,-4.06
231.25,-2.27,1.78,-2.27,1.78,-1.79,-1.85,-2.02,-4.06,-4.07,-4.05
233.57,-2.27,1.78,-2.27,1.78,-1.80,-1.87,-2.05,-4.07,-4.07,-4.05
235.90,-2.27,1.78,-2.26,1.79,-1.80,-1.88,-2.07,-4.07,-4.06,-4.05
238.26,-2.24,1.80,-2.24,1.80,-1.80,-1.89,-2.09,-4.04,-4.04,-4.04
240.64,-2.22,1.81,-2.23,1.80,-1.79,-1.90,-2.11,-4.02,-4.02,-4.03
243.05,-2.22,1.80,-2.22,1.80,-1.79,-1.91,-2.13,-4.01,-4.01,-4.02
245.48,-2.22,1.79,-2.22,1.79,-1.79,-1.92,-2.14,-4.01,-4.00,-4.01
247.93,-2.22,1.78,-2.22,1.78,-1.78,-1.92,-2.15,-4.00,-4.00,-4.00
250.41,-2.22,1.77,-2.22,1.77,-1.77,-1.93,-2.16,-3.99,-4.00,-3.99
252.92,-2.22,1.75,-2.22,1.76,-1.76,-1.93,-2.16,-3.99,-3.98,-3.97
255.45,-2.21,1.74,-2.21,1.75,-1.76,-1.93,-2.16,-3.97,-3.97,-3.95
258.00,-2.18,1.76,-2.19,1.75,-1.75,-1.93,-2.15,-3.93,-3.94,-3.94
260.58,-2.18,1.74,-2.17,1.75,-1.75,-1.93,-2.14,-3.93,-3.92,-3.92
263.19,-2.14,1.76,-2.15,1.76,-1.75,-1.92,-2.13,-3.89,-3.90,-3.90
265.82,-2.13,1.75,-2.13,1.75,-1.76,-1.92,-2.11,-3.89,-3.89,-3.88
268.48,-2.10,1.76,-2.10,1.76,-1.76,-1.91,-2.09,-3.86,-3.86,-3.86
271.16,-2.08,1.76,-2.08,1.76,-1.77,-1.90,-2.07,-3.85,-3.85,-3.84
273.87,-2.04,1.78,-2.05,1.77,-1.77,-1.89,-2.05,-3.81,-3.82,-3.82
276.61,-2.03,1.77,-2.02,1.78,-1.78,-1.88,-2.02,-3.81,-3.80,-3.80
279.38,-1.99,1.79,-1.99,1.79,-1.78,-1.87,-2.00,-3.77,-3.78,-3.78
282.17,-1.97,1.79,-1.98,1.79,-1.79,-1.86,-1.97,-3.76,-3.76,-3.76
284.99,-1.95,1.79,-1.95,1.79,-1.79,-1.84,-1.93,-3.74,-3.74,-3.74
287.84,-1.95,1.77,-1.94,1.79,-1.79,-1.83,-1.90,-3.74,-3.73,-3.72
290.72,-1.90,1.80,-1.91,1.79,-1.79,-1.81,-1.87,-3.69,-3.71,-3.70
293.63,-1.90,1.78,-1.89,1.79,-1.79,-1.79,-1.83,-3.69,-3.68,-3.68
296.57,-1.86,1.80,-1.87,1.79,-1.79,-1.78,-1.79,-3.65,-3.66,-3.66
299.53,-1.85,1.79,-1.85,1.79,-1.79,-1.76,-1.76,-3.64,-3.64,-3.64
302.53,-1.85,1.77,-1.84,1.78,-1.78,-1.74,-1.72,-3.63,-3.62,-3.62
305.55,-1.81,1.78,-1.82,1.77,-1.78,-1.72,-1.68,-3.59,-3.60,-3.59
308.61,-1.81,1.76,-1.80,1.76,-1.77,-1.70,-1.65,-3.58,-3.57,-3.57
311.69,-1.79,1.75,-1.78,1.76,-1.76,-1.68,-1.61,-3.55,-3.54,-3.54
314.81,-1.76,1.75,-1.77,1.74,-1.74,-1.65,-1.57,-3.50,-3.51,-3.51
317.96,-1.76,1.73,-1.76,1.73,-1.73,-1.63,-1.53,-3.49,-3.49,-3.49
321.14,-1.76,1.71,-1.76,1.71,-1.71,-1.61,-1.50,-3.47,-3.47,-3.47
324.35,-1.76,1.69,-1.76,1.69,-1.70,-1.59,-1.46,-3.46,-3.46,-3.45
327.59,-1.76,1.67,-1.76,1.67,-1.68,-1.56,-1.43,-3.44,-3.44,-3.43
330.87,-1.76,1.65,-1.76,1.65,-1.66,-1.54,-1.39,-3.42,-3.42,-3.41
334.18,-1.76,1.63,-1.76,1.63,-1.63,-1.52,-1.36,-3.39,-3.39,-3.39
337.52,-1.76,1.61,-1.76,1.62,-1.61,-1.50,-1.33,-3.37,-3.36,-3.37
340.90,-1.76,1.59,-1.76,1.59,-1.58,-1.47,-1.29,-3.34,-3.34,-3.35
344.30,-1.76,1.57,-1.78,1.56,-1.55,-1.45,-1.26,-3.31,-3.33,-3.33
347.75,-1.81,1.50,-1.79,1.52,-1.52,-1.43,-1.23,-3.33,-3.31,-3.31
351.23,-1.81,1.48,-1.81,1.49,-1.49,-1.40,-1.20,-3.30,-3.29,-3.29
354.74,-1.81,1.46,-1.82,1.45,-1.46,-1.38,-1.17,-3.27,-3.28,-3.27
358.28,-1.83,1.43,-1.83,1.42,-1.44,-1.36,-1.15,-3.27,-3.27,-3.26
361.87,-1.85,1.39,-1.84,1.40,-1.41,-1.33,-1.12,-3.26,-3.25,-3.24
365.49,-1.85,1.37,-1.84,1.39,-1.40,-1.31,-1.09,-3.25,-3.23,-3.22
369.14,-1.81,1.40,-1.83,1.38,-1.38,-1.29,-1.07,-3.19,-3.21,-3.21
372.83,-1.81,1.38,-1.81,1.38,-1.38,-1.27,-1.05,-3.19,-3.19,-3.19
376.56,-1.81,1.37,-1.81,1.37,-1.37,-1.25,-1.02,-3.18,-3.18,-3.18
380.33,-1.81,1.35,-1.81,1.35,-1.36,-1.22,-1.00,-3.17,-3.17,-3.16
384.13,-1.81,1.34,-1.81,1.34,-1.35,-1.20,-0.98,-3.16,-3.16,-3.15
387.97,-1.81,1.33,-1.81,1.33,-1.33,-1.18,-0.96,-3.14,-3.14,-3.14
391.85,-1.81,1.32,-1.81,1.32,-1.31,-1.16,-0.94,-3.12,-3.12,-3.13
395.77,-1.82,1.29,-1.83,1.29,-1.28,-1.14,-0.92,-3.10,-3.10,-3.11
399.73,-1.85,1.25,-1.85,1.25,-1.24,-1.12,-0.91,-3.09,-3.09,-3.10
403.72,-1.90,1.19,-1.89,1.20,-1.19,-1.10,-0.89,-3.09,-3.08,-3.09
407.76,-1.94,1.14,-1.95,1.14,-1.13,-1.08,-0.87,-3.07,-3.08,-3.08
411.84,-2.00,1.07,-2.00,1.07,-1.07,-1.07,-0.86,-3.07,-3.07,-3.07
415.96,-2.06,1.00,-2.06,1.00,-1.00,-1.05,-0.85,-3.06,-3.06,-3.06
420.12,-2.12,0.93,-2.13,0.93,-0.93,-1.03,-0.83,-3.05,-3.05,-3.05
424.32,-2.19,0.85,-2.19,0.85,-0.86,-1.01,-0.82,-3.05,-3.05,-3.04
428.56,-2.25,0.78,-2.25,0.79,-0.79,-1.00,-0.81,-3.05,-3.04,-3.03
432.85,-2.29,0.73,-2.30,0.73,-0.74,-0.98,-0.80,-3.03,-3.03,-3.02
437.18,-2.33,0.68,-2.33,0.68,-0.69,-0.97,-0.79,-3.02,-3.02,-3.01
441.55,-2.36,0.63,-2.35,0.64,-0.65,-0.95,-0.78,-3.01,-3.00,-2.99
445.96,-2.36,0.62,-2.36,0.62,-0.62,-0.94,-0.77,-2.98,-2.99,-2.98
450.42,-2.36,0.61,-2.37,0.60,-0.60,-0.92,-0.76,-2.96,-2.97,-2.97
454.93,-2.36,0.59,-2.36,0.60,-0.59,-0.91,-0.76,-2.95,-2.95,-2.95
459.48,-2.36,0.58,-2.35,0.59,-0.59,-0.89,-0.75,-2.95,-2.94,-2.94
464.07,-2.33,0.60,-2.34,0.59,-0.59,-0.88,-0.74,-2.93,-2.93,-2.93
