frequency,raw,error,smoothed,error_smoothed,equalization,parametric_eq,fixed_band_eq,equalized_raw,equalized_smoothed,target
20.00,4.98,-2.54,4.98,-2.54,2.54,1.20,0.50,7.52,7.52,7.52
20.20,5.04,-2.48,5.04,-2.48,2.48,1.19,0.51,7.52,7.52,7.52
20.40,5.10,-2.42,5.10,-2.42,2.42,1.19,0.53,7.52,7.52,7.52
20.61,5.16,-2.36,5.16,-2.36,2.36,1.18,0.55,7.52,7.52,7.52
20.81,5.22,-2.30,5.22,-2.30,2.30,1.18,0.56,7.52,7.52,7.52
21.02,5.28,-2.24,5.28,-2.24,2.23,1.17,0.58,7.51,7.51,7.52
21.23,5.34,-2.16,5.33,-2.17,2.17,1.17,0.60,7.51,7.50,7.50
21.44,5.38,-2.11,5.38,-2.11,2.11,1.16,0.62,7.49,7.49,7.49
21.66,5.43,-2.04,5.43,-2.04,2.04,1.15,0.64,7.47,7.47,7.47
21.87,5.47,-1.98,5.47,-1.98,1.98,1.15,0.66,7.45,7.45,7.45
22.09,5.52,-1.92,5.52,-1.92,1.92,1.14,0.68,7.43,7.43,7.44
22.31,5.56,-1.85,5.56,-1.86,1.85,1.14,0.70,7.41,7.41,7.41
22.54,5.60,-1.79,5.60,-1.79,1.79,1.13,0.72,7.39,7.39,7.39
22.76,5.64,-1.73,5.64,-1.73,1.73,1.12,0.75,7.36,7.36,7.37
22.99,5.68,-1.66,5.68,-1.66,1.66,1.12,0.77,7.34,7.34,7.34
23.22,5.71,-1.60,5.71,-1.60,1.60,1.11,0.79,7.31,7.31,7.31
23.45,5.75,-1.53,5.74,-1.54,1.54,1.10,0.82,7.29,7.29,7.28
23.69,5.78,-1.49,5.78,-1.48,1.49,1.10,0.84,7.27,7.27,7.27
23.92,5.82,-1.43,5.82,-1.43,1.43,1.09,0.87,7.25,7.25,7.25
24.16,5.86,-1.38,5.85,-1.39,1.38,1.08,0.89,7.24,7.23,7.24
24.40,5.88,-1.34,5.89,-1.33,1.33,1.07,0.92,7.21,7.22,7.22
24.65,5.92,-1.28,5.92,-1.28,1.28,1.07,0.95,7.20,7.20,7.20
24.89,5.95,-1.23,5.95,-1.23,1.23,1.06,0.97,7.18,7.18,7.18
25.14,5.98,-1.19,5.98,-1.19,1.19,1.05,1.00,7.16,7.16,7.17
25.39,6.01,-1.14,6.01,-1.14,1.14,1.04,1.02,7.15,7.15,7.15
25.65,6.04,-1.10,6.04,-1.09,1.09,1.03,1.05,7.13,7.13,7.14
25.91,6.07,-1.04,6.06,-1.05,1.05,1.03,1.08,7.12,7.12,7.11
26.16,6.09,-1.01,6.09,-1.01,1.02,1.02,1.10,7.10,7.10,7.10
26.43,6.10,-0.99,6.10,-0.98,0.98,1.01,1.13,7.08,7.08,7.09
26.69,6.12,-0.94,6.12,-0.95,0.95,1.00,1.15,7.07,7.07,7.06
26.96,6.13,-0.92,6.13,-0.92,0.93,0.99,1.18,7.06,7.05,7.05
27.23,6.14,-0.90,6.13,-0.90,0.91,0.98,1.20,7.04,7.04,7.04
27.50,6.13,-0.90,6.14,-0.89,0.89,0.97,1.22,7.02,7.02,7.03
27.77,6.14,-0.87,6.14,-0.88,0.87,0.96,1.24,7.01,7.01,7.01
28.05,6.14,-0.86,6.13,-0.86,0.86,0.95,1.26,7.00,6.99,7.00
28.33,6.13,-0.85,6.13,-0.85,0.85,0.94,1.28,6.98,6.98,6.98
28.62,6.13,-0.84,6.13,-0.84,0.84,0.93,1.30,6.97,6.97,6.97
28.90,6.12,-0.83,6.12,-0.83,0.84,0.92,1.31,6.95,6.95,6.95
29.19,6.11,-0.82,6.11,-0.83,0.83,0.91,1.32,6.94,6.94,6.93
29.48,6.10,-0.83,6.10,-0.83,0.83,0.90,1.33,6.93,6.93,6.93
29.78,6.09,-0.83,6.08,-0.83,0.83,0.88,1.34,6.92,6.92,6.92
30.08,6.07,-0.84,6.07,-0.84,0.83,0.87,1.35,6.90,6.90,6.91
30.38,6.05,-0.84,6.05,-0.84,0.84,0.86,1.35,6.88,6.89,6.89
30.68,6.04,-0.84,6.03,-0.84,0.84,0.85,1.35,6.88,6.87,6.88
30.99,6.02,-0.83,6.02,-0.84,0.84,0.83,1.35,6.86,6.86,6.85
31.30,6.00,-0.84,6.00,-0.84,0.84,0.82,1.35,6.84,6.84,6.84
31.61,5.98,-0.85,5.98,-0.85,0.84,0.81,1.34,6.82,6.82,6.83
31.93,5.96,-0.85,5.96,-0.85,0.84,0.79,1.33,6.80,6.80,6.81
32.24,5.94,-0.84,5.94,-0.85,0.85,0.78,1.32,6.78,6.78,6.78
32.57,5.92,-0.84,5.92,-0.84,0.85,0.76,1.30,6.76,6.76,6.76
32.89,5.90,-0.85,5.90,-0.84,0.85,0.75,1.29,6.74,6.75,6.75
33.22,5.89,-0.83,5.88,-0.84,0.84,0.73,1.27,6.73,6.73,6.72
33.55,5.86,-0.85,5.86,-0.84,0.84,0.72,1.25,6.70,6.70,6.71
33.89,5.84,-0.84,5.84,-0.84,0.84,0.70,1.22,6.68,6.68,6.68
34.23,5.82,-0.84,5.82,-0.84,0.84,0.69,1.20,6.66,6.66,6.66
34.57,5.81,-0.83,5.80,-0.83,0.84,0.67,1.17,6.65,6.64,6.64
34.92,5.79,-0.83,5.79,-0.83,0.83,0.65,1.14,6.62,6.62,6.62
35.27,5.77,-0.83,5.77,-0.83,0.83,0.63,1.11,6.60,6.60,6.60
35.62,5.76,-0.82,5.76,-0.82,0.82,0.61,1.08,6.58,6.58,6.58
35.97,5.75,-0.81,5.75,-0.81,0.81,0.59,1.05,6.55,6.55,6.56
36.33,5.75,-0.79,5.74,-0.79,0.79,0.57,1.01,6.54,6.54,6.54
36.70,5.74,-0.78,5.75,-0.77,0.77,0.55,0.98,6.51,6.52,6.52
37.06,5.76,-0.74,5.75,-0.75,0.75,0.53,0.94,6.51,6.50,6.50
37.43,5.76,-0.72,5.76,-0.72,0.72,0.51,0.90,6.48,6.48,6.48
37.81,5.77,-0.69,5.77,-0.69,0.69,0.49,0.87,6.45,6.46,6.46
38.19,5.79,-0.64,5.78,-0.65,0.65,0.47,0.83,6.44,6.43,6.43
38.57,5.80,-0.62,5.80,-0.61,0.61,0.44,0.79,6.41,6.41,6.42
38.95,5.83,-0.56,5.82,-0.57,0.57,0.42,0.75,6.40,6.39,6.39
39.34,5.85,-0.52,5.85,-0.52,0.52,0.39,0.71,6.37,6.37,6.37
39.74,5.88,-0.47,5.88,-0.47,0.47,0.36,0.68,6.35,6.35,6.35
40.14,5.91,-0.43,5.91,-0.43,0.43,0.34,0.64,6.33,6.33,6.34
40.54,5.94,-0.38,5.94,-0.38,0.38,0.31,0.60,6.31,6.32,6.32
40.94,5.98,-0.32,5.97,-0.32,0.33,0.28,0.56,6.30,6.30,6.30
41.35,6.01,-0.26,6.01,-0.27,0.28,0.25,0.52,6.28,6.28,6.27
41.76,6.04,-0.23,6.04,-0.22,0.22,0.22,0.49,6.26,6.27,6.27
42.18,6.08,-0.17,6.07,-0.17,0.17,0.19,0.45,6.25,6.25,6.25
42.60,6.11,-0.12,6.11,-0.13,0.12,0.15,0.41,6.23,6.23,6.23
43.03,6.14,-0.08,6.14,-0.07,0.07,0.12,0.37,6.21,6.21,6.22
43.46,6.17,-0.02,6.17,-0.02,0.02,0.09,0.34,6.18,6.19,6.19
43.90,6.21,0.04,6.20,0.03,-0.03,0.05,0.30,6.17,6.17,6.17
44.33,6.24,0.09,6.23,0.09,-0.08,0.01,0.26,6.15,6.15,6.15
44.78,6.26,0.13,6.26,0.14,-0.13,-0.02,0.23,6.12,6.13,6.13
45.23,6.29,0.19,6.29,0.18,-0.18,-0.06,0.19,6.11,6.11,6.10
45.68,6.31,0.23,6.31,0.23,-0.22,-0.10,0.16,6.09,6.09,6.08
46.13,6.34,0.27,6.33,0.27,-0.26,-0.14,0.12,6.08,6.07,6.07
46.60,6.36,0.30,6.35,0.30,-0.30,-0.18,0.09,6.06,6.06,6.06
47.06,6.37,0.33,6.37,0.33,-0.33,-0.22,0.05,6.03,6.04,6.04
47.53,6.39,0.37,6.39,0.36,-0.37,-0.25,0.02,6.02,6.02,6.02
48.01,6.40,0.39,6.40,0.39,-0.40,-0.29,-0.01,5.99,5.99,6.01
48.49,6.41,0.43,6.41,0.43,-0.44,-0.33,-0.05,5.97,5.97,5.98
48.97,6.42,0.47,6.42,0.47,-0.47,-0.36,-0.08,5.95,5.95,5.95
49.46,6.43,0.51,6.43,0.51,-0.50,-0.39,-0.11,5.93,5.93,5.92
49.96,6.43,0.54,6.43,0.54,-0.53,-0.42,-0.15,5.90,5.90,5.89
50.46,6.44,0.56,6.44,0.56,-0.56,-0.45,-0.18,5.88,5.88,5.88
50.96,6.44,0.58,6.44,0.58,-0.58,-0.48,-0.21,5.86,5.86,5.86
51.47,6.44,0.61,6.44,0.60,-0.60,-0.50,-0.25,5.83,5.83,5.83
51.99,6.43,0.62,6.43,0.62,-0.63,-0.53,-0.28,5.80,5.81,5.81
52.51,6.43,0.64,6.43,0.64,-0.64,-0.55,-0.31,5.78,5.78,5.79
53.03,6.43,0.66,6.43,0.66,-0.66,-0.57,-0.34,5.76,5.76,5.77
53.56,6.43,0.69,6.43,0.68,-0.68,-0.58,-0.37,5.74,5.74,5.74
54.10,6.43,0.71,6.42,0.70,-0.70,-0.60,-0.41,5.72,5.72,5.72
54.64,6.41,0.72,6.42,0.72,-0.72,-0.62,-0.44,5.68,5.69,5.69
55.18,6.41,0.74,6.41,0.74,-0.74,-0.63,-0.47,5.66,5.67,5.67
55.74,6.41,0.77,6.40,0.76,-0.76,-0.65,-0.50,5.65,5.64,5.64
56.29,6.40,0.78,6.40,0.78,-0.78,-0.66,-0.54,5.62,5.62,5.62
56.86,6.39,0.80,6.39,0.80,-0.80,-0.68,-0.57,5.59,5.59,5.59
57.42,6.39,0.82,6.38,0.81,-0.81,-0.69,-0.60,5.57,5.57,5.57
58.00,6.38,0.83,6.38,0.83,-0.83,-0.71,-0.63,5.55,5.55,5.55
58.58,6.37,0.85,6.37,0.85,-0.85,-0.72,-0.66,5.52,5.52,5.52
59.16,6.37,0.87,6.36,0.86,-0.86,-0.74,-0.69,5.51,5.50,5.50
59.76,6.35,0.87,6.35,0.88,-0.88,-0.76,-0.73,5.47,5.47,5.48
60.35,6.35,0.90,6.34,0.89,-0.90,-0.78,-0.76,5.45,5.44,5.45
60.96,6.33,0.90,6.33,0.91,-0.92,-0.80,-0.79,5.41,5.42,5.43
61.57,6.33,0.94,6.33,0.93,-0.94,-0.83,-0.82,5.39,5.39,5.39
62.18,6.32,0.96,6.32,0.96,-0.95,-0.85,-0.85,5.36,5.36,5.36
62.80,6.31,0.98,6.31,0.98,-0.97,-0.88,-0.89,5.34,5.34,5.33
63.43,6.30,1.00,6.29,1.00,-0.99,-0.90,-0.92,5.31,5.31,5.30
64.07,6.28,1.01,6.28,1.01,-1.00,-0.93,-0.95,5.27,5.28,5.27
64.71,6.27,1.02,6.27,1.02,-1.02,-0.96,-0.98,5.25,5.25,5.25
65.35,6.26,1.03,6.25,1.03,-1.03,-0.99,-1.02,5.23,5.22,5.23
66.01,6.24,1.03,6.25,1.04,-1.04,-1.02,-1.05,5.20,5.20,5.21
66.67,6.24,1.06,6.23,1.05,-1.05,-1.05,-1.09,5.18,5.18,5.18
67.33,6.23,1.07,6.22,1.07,-1.06,-1.08,-1.12,5.16,5.16,5.16
68.01,6.21,1.08,6.21,1.08,-1.08,-1.12,-1.15,5.13,5.13,5.13
68.69,6.20,1.09,6.20,1.09,-1.09,-1.16,-1.19,5.10,5.10,5.11
69.37,6.19,1.11,6.19,1.11,-1.11,-1.19,-1.23,5.08,5.08,5.08
70.07,6.18,1.13,6.18,1.13,-1.13,-1.23,-1.26,5.05,5.05,5.05
70.77,6.18,1.15,6.17,1.15,-1.15,-1.27,-1.30,5.03,5.03,5.03
71.48,6.17,1.17,6.17,1.17,-1.17,-1.31,-1.34,5.00,5.00,5.00
72.19,6.16,1.19,6.16,1.19,-1.19,-1.35,-1.38,4.97,4.97,4.97
72.91,6.15,1.22,6.15,1.21,-1.22,-1.39,-1.42,4.93,4.93,4.93
73.64,6.14,1.24,6.14,1.24,-1.24,-1.43,-1.46,4.89,4.90,4.90
74.38,6.13,1.26,6.13,1.27,-1.27,-1.48,-1.50,4.86,4.86,4.87
75.12,6.14,1.32,6.13,1.30,-1.30,-1.52,-1.54,4.84,4.83,4.82
75.87,6.13,1.34,6.13,1.33,-1.33,-1.57,-1.59,4.79,4.79,4.79
76.63,6.12,1.36,6.12,1.37,-1.37,-1.61,-1.63,4.75,4.76,4.76
77.40,6.12,1.40,6.11,1.40,-1.40,-1.66,-1.68,4.72,4.71,4.72
78.17,6.11,1.45,6.11,1.44,-1.44,-1.71,-1.73,4.67,4.67,4.66
78.95,6.11,1.47,6.11,1.48,-1.48,-1.76,-1.78,4.63,4.63,4.64
79.74,6.11,1.51,6.11,1.51,-1.52,-1.81,-1.83,4.59,4.59,4.60
80.54,6.11,1.56,6.11,1.55,-1.56,-1.86,-1.88,4.55,4.55,4.55
81.35,6.11,1.60,6.11,1.60,-1.60,-1.91,-1.94,4.50,4.51,4.51
82.16,6.11,1.65,6.11,1.65,-1.65,-1.96,-1.99,4.46,4.46,4.46
82.98,6.12,1.70,6.11,1.70,-1.69,-2.02,-2.05,4.42,4.42,4.42
83.81,6.12,1.76,6.11,1.75,-1.74,-2.07,-2.11,4.37,4.37,4.36
84.65,6.11,1.79,6.12,1.79,-1.79,-2.12,-2.17,4.32,4.32,4.32
85.50,6.12,1.84,6.11,1.84,-1.84,-2.18,-2.23,4.28,4.27,4.28
86.35,6.12,1.89,6.12,1.89,-1.89,-2.24,-2.30,4.22,4.22,4.23
87.22,6.12,1.94,6.12,1.95,-1.95,-2.29,-2.37,4.17,4.18,4.18
88.09,6.13,2.01,6.13,2.00,-2.00,-2.35,-2.43,4.13,4.13,4.12
88.97,6.14,2.06,6.13,2.06,-2.06,-2.41,-2.50,4.08,4.08,4.08
89.86,6.14,2.11,6.14,2.12,-2.11,-2.46,-2.58,4.02,4.03,4.03
90.76,6.15,2.18,6.15,2.18,-2.17,-2.52,-2.65,3.98,3.98,3.97
91.66,6.16,2.24,6.15,2.24,-2.23,-2.58,-2.73,3.92,3.92,3.92
92.58,6.16,2.30,6.16,2.30,-2.30,-2.64,-2.81,3.86,3.87,3.86
93.51,6.17,2.35,6.17,2.35,-2.36,-2.70,-2.88,3.81,3.81,3.82
94.44,6.19,2.42,6.18,2.42,-2.42,-2.77,-2.97,3.76,3.76,3.77
95.39,6.20,2.49,6.20,2.49,-2.49,-2.83,-3.05,3.71,3.71,3.71
96.34,6.21,2.57,6.21,2.56,-2.56,-2.89,-3.13,3.65,3.65,3.64
97.30,6.22,2.63,6.22,2.63,-2.63,-2.95,-3.22,3.59,3.59,3.59
98.28,6.23,2.70,6.23,2.71,-2.70,-3.01,-3.31,3.52,3.53,3.53
99.26,6.25,2.79,6.24,2.78,-2.78,-3.08,-3.39,3.47,3.47,3.46
100.25,6.26,2.85,6.26,2.85,-2.85,-3.14,-3.48,3.40,3.41,3.41
101.25,6.28,2.93,6.28,2.93,-2.93,-3.21,-3.57,3.35,3.35,3.35
102.27,6.29,3.01,6.29,3.01,-3.01,-3.27,-3.67,3.28,3.28,3.28
103.29,6.31,3.10,6.31,3.09,-3.09,-3.33,-3.76,3.22,3.22,3.21
104.32,6.32,3.16,6.32,3.16,-3.17,-3.40,-3.85,3.15,3.15,3.16
105.37,6.34,3.24,6.33,3.24,-3.25,-3.46,-3.94,3.09,3.09,3.10
106.42,6.35,3.32,6.35,3.32,-3.33,-3.53,-4.03,3.02,3.03,3.03
107.48,6.37,3.41,6.37,3.41,-3.41,-3.59,-4.12,2.96,2.96,2.96
108.56,6.39,3.50,6.38,3.49,-3.49,-3.66,-4.21,2.90,2.90,2.89
109.64,6.40,3.57,6.40,3.57,-3.57,-3.72,-4.29,2.83,2.83,2.83
110.74,6.42,3.65,6.42,3.65,-3.65,-3.79,-4.38,2.77,2.76,2.77
111.85,6.43,3.73,6.43,3.73,-3.74,-3.86,-4.46,2.69,2.69,2.70
112.97,6.44,3.82,6.44,3.81,-3.82,-3.92,-4.54,2.62,2.62,2.62
114.10,6.45,3.89,6.45,3.90,-3.90,-3.99,-4.61,2.55,2.55,2.56
115.24,6.48,3.99,6.47,3.99,-3.98,-4.05,-4.68,2.50,2.49,2.49
116.39,6.49,4.07,6.49,4.07,-4.06,-4.11,-4.75,2.43,2.43,2.42
117.55,6.50,4.15,6.50,4.14,-4.14,-4.18,-4.81,2.36,2.36,2.35
118.73,6.50,4.21,6.50,4.21,-4.21,-4.24,-4.87,2.29,2.29,2.29
119.92,6.51,4.28,6.51,4.28,-4.28,-4.31,-4.92,2.22,2.22,2.23
121.12,6.52,4.35,6.52,4.35,-4.35,-4.37,-4.97,2.16,2.16,2.17
122.33,6.53,4.43,6.53,4.42,-4.42,-4.43,-5.01,2.11,2.11,2.10
123.55,6.54,4.49,6.54,4.49,-4.49,-4.50,-5.04,2.05,2.05,2.05
124.79,6.55,4.56,6.54,4.55,-4.56,-4.56,-5.07,1.99,1.99,1.99
126.03,6.55,4.61,6.55,4.62,-4.62,-4.62,-5.09,1.93,1.93,1.94
127.29,6.56,4.68,6.56,4.68,-4.69,-4.68,-5.11,1.87,1.87,1.88
128.57,6.57,4.76,6.57,4.75,-4.75,-4.74,-5.12,1.82,1.82,1.81
129.85,6.58,4.82,6.57,4.82,-4.81,-4.80,-5.12,1.77,1.76,1.76
131.15,6.58,4.87,6.58,4.87,-4.87,-4.86,-5.12,1.71,1.71,1.71
132.46,6.58,4.93,6.58,4.93,-4.93,-4.91,-5.11,1.65,1.66,1.65
133.79,6.59,4.98,6.58,4.98,-4.98,-4.97,-5.10,1.61,1.61,1.61
135.12,6.59,5.04,6.59,5.03,-5.03,-5.02,-5.08,1.56,1.56,1.55
136.48,6.59,5.07,6.59,5.07,-5.08,-5.08,-5.06,1.51,1.51,1.52
137.84,6.59,5.11,6.59,5.12,-5.12,-5.13,-5.04,1.47,1.47,1.48
139.22,6.60,5.17,6.59,5.16,-5.16,-5.18,-5.01,1.44,1.43,1.43
140.61,6.60,5.21,6.60,5.20,-5.20,-5.23,-4.98,1.40,1.40,1.39
142.02,6.61,5.24,6.60,5.24,-5.24,-5.28,-4.95,1.37,1.37,1.37
143.44,6.61,5.27,6.61,5.27,-5.27,-5.33,-4.91,1.33,1.33,1.34
144.87,6.61,5.31,6.61,5.31,-5.31,-5.38,-4.88,1.30,1.30,1.30
146.32,6.62,5.35,6.62,5.34,-5.34,-5.42,-4.84,1.27,1.27,1.27
147.78,6.62,5.37,6.62,5.38,-5.38,-5.47,-4.81,1.24,1.24,1.25
149.26,6.63,5.41,6.62,5.41,-5.41,-5.51,-4.77,1.22,1.22,1.22
150.75,6.62,5.44,6.62,5.44,-5.44,-5.55,-4.74,1.18,1.19,1.18
152.26,6.63,5.47,6.63,5.47,-5.47,-5.59,-4.70,1.16,1.16,1.16
153.78,6.63,5.50,6.63,5.50,-5.50,-5.63,-4.67,1.13,1.13,1.13
155.32,6.63,5.52,6.63,5.52,-5.52,-5.66,-4.64,1.10,1.10,1.11
156.88,6.63,5.55,6.63,5.55,-5.55,-5.69,-4.61,1.08,1.08,1.08
158.44,6.63,5.58,6.63,5.58,-5.58,-5.72,-4.58,1.05,1.05,1.05
160.03,6.63,5.61,6.62,5.61,-5.60,-5.75,-4.56,1.02,1.02,1.02
161.63,6.62,5.63,6.62,5.63,-5.63,-5.78,-4.54,0.99,0.99,0.99
163.24,6.62,5.66,6.62,5.65,-5.65,-5.81,-4.52,0.96,0.97,0.96
164.88,6.62,5.68,6.61,5.68,-5.68,-5.83,-4.50,0.94,0.94,0.94
166.53,6.61,5.69,6.61,5.70,-5.70,-5.85,-4.49,0.91,0.91,0.92
168.19,6.60,5.72,6.60,5.72,-5.72,-5.87,-4.48,0.88,0.88,0.88
169.87,6.59,5.74,6.59,5.74,-5.74,-5.88,-4.47,0.85,0.85,0.85
171.57,6.59,5.77,6.58,5.76,-5.76,-5.90,-4.47,0.83,0.82,0.82
173.29,6.57,5.77,6.57,5.78,-5.78,-5.91,-4.46,0.79,0.79,0.80
175.02,6.56,5.80,6.56,5.80,-5.80,-5.91,-4.47,0.76,0.76,0.76
176.77,6.54,5.82,6.54,5.82,-5.82,-5.92,-4.47,0.72,0.72,0.72
178.54,6.53,5.85,6.53,5.84,-5.84,-5.92,-4.49,0.69,0.69,0.68
180.32,6.51,5.86,6.51,5.86,-5.86,-5.93,-4.50,0.65,0.65,0.65
182.13,6.49,5.87,6.49,5.87,-5.87,-5.92,-4.52,0.62,0.61,0.62
183.95,6.46,5.88,6.46,5.88,-5.88,-5.92,-4.54,0.57,0.58,0.58
185.79,6.44,5.90,6.43,5.90,-5.89,-5.91,-4.56,0.55,0.54,0.54
187.65,6.41,5.91,6.40,5.90,-5.90,-5.90,-4.59,0.51,0.51,0.50
189.52,6.37,5.90,6.38,5.90,-5.90,-5.89,-4.62,0.47,0.48,0.47
191.42,6.35,5.90,6.35,5.90,-5.90,-5.87,-4.65,0.45,0.45,0.45
193.33,6.32,5.89,6.31,5.89,-5.90,-5.86,-4.69,0.42,0.42,0.43
195.27,6.28,5.88,6.28,5.88,-5.89,-5.84,-4.73,0.39,0.39,0.40
197.22,6.24,5.87,6.24,5.88,-5.87,-5.81,-4.77,0.36,0.36,0.37
199.19,6.20,5.88,6.20,5.87,-5.86,-5.79,-4.81,0.34,0.34,0.32
201.18,6.16,5.85,6.15,5.85,-5.84,-5.76,-4.86,0.32,0.31,0.31
203.19,6.11,5.82,6.11,5.82,-5.82,-5.73,-4.91,0.29,0.29,0.29
205.23,6.06,5.79,6.06,5.79,-5.79,-5.69,-4.96,0.26,0.27,0.27
207.28,6.02,5.76,6.01,5.76,-5.77,-5.66,-5.01,0.25,0.25,0.26
209.35,5.96,5.73,5.96,5.73,-5.73,-5.62,-5.06,0.22,0.23,0.23
211.44,5.92,5.71,5.91,5.70,-5.70,-5.58,-5.11,0.22,0.21,0.21
213.56,5.86,5.67,5.86,5.66,-5.67,-5.53,-5.15,0.19,0.19,0.19
215.69,5.81,5.62,5.81,5.62,-5.63,-5.49,-5.20,0.18,0.18,0.19
217.85,5.76,5.58,5.76,5.59,-5.59,-5.44,-5.25,0.17,0.17,0.18
220.03,5.71,5.56,5.71,5.55,-5.55,-5.39,-5.30,0.16,0.16,0.15
222.23,5.66,5.52,5.66,5.51,-5.51,-5.33,-5.34,0.15,0.15,0.14
224.45,5.61,5.46,5.61,5.47,-5.46,-5.28,-5.38,0.15,0.15,0.15
226.70,5.55,5.41,5.55,5.41,-5.41,-5.22,-5.41,0.14,0.14,0.14
228.96,5.50,5.36,5.50,5.35,-5.35,-5.16,-5.44,0.14,0.14,0.14
231.25,5.44,5.29,5.44,5.29,-5.30,-5.10,-5.46,0.14,0.14,0.15
233.57,5.39,5.23,5.39,5.23,-5.24,-5.04,-5.48,0.15,0.15,0.16
235.90,5.33,5.17,5.33,5.17,-5.17,-4.97,-5.49,0.16,0.16,0.16
238.26,5.28,5.12,5.28,5.11,-5.10,-4.90,-5.50,0.17,0.17,0.16
240.64,5.22,5.04,5.22,5.04,-5.03,-4.83,-5.50,0.18,0.18,0.18
243.05,5.16,4.96,5.16,4.96,-4.96,-4.76,-5.49,0.20,0.20,0.20
245.48,5.09,4.87,5.10,4.88,-4.88,-4.69,-5.47,0.20,0.21,0.22
247.93,5.04,4.81,5.04,4.81,-4.80,-4.61,-5.44,0.23,0.23,0.23
250.41,4.98,4.74,4.97,4.72,-4.72,-4.53,-5.40,0.26,0.25,0.24
252.92,4.91,4.63,4.91,4.64,-4.64,-4.45,-5.36,0.27,0.27,0.28
255.45,4.84,4.54,4.84,4.54,-4.55,-4.37,-5.30,0.29,0.29,0.30
258.00,4.78,4.46,4.77,4.45,-4.46,-4.29,-5.24,0.32,0.31,0.32
260.58,4.71,4.37,4.71,4.37,-4.37,-4.21,-5.16,0.34,0.34,0.34
263.19,4.64,4.28,4.64,4.28,-4.28,-4.13,-5.08,0.36,0.36,0.36
265.82,4.58,4.20,4.58,4.19,-4.19,-4.04,-4.99,0.39,0.39,0.38
268.48,4.51,4.10,4.51,4.10,-4.09,-3.95,-4.90,0.41,0.41,0.41
271.16,4.44,4.00,4.44,4.00,-4.00,-3.86,-4.79,0.44,0.44,0.44
273.87,4.36,3.90,4.36,3.90,-3.90,-3.77,-4.69,0.45,0.46,0.46
276.61,4.29,3.80,4.29,3.80,-3.81,-3.68,-4.57,0.48,0.48,0.49
279.38,4.22,3.71,4.21,3.71,-3.71,-3.59,-4.45,0.51,0.51,0.51
282.17,4.14,3.61,4.14,3.61,-3.61,-3.50,-4.32,0.53,0.53,0.53
284.99,4.07,3.51,4.07,3.51,-3.51,-3.41,-4.19,0.56,0.56,0.56
287.84,3.99,3.41,3.99,3.41,-3.40,-3.31,-4.06,0.58,0.59,0.58
290.72,3.92,3.30,3.91,3.30,-3.30,-3.22,-3.92,0.62,0.61,0.62
293.63,3.83,3.19,3.83,3.19,-3.19,-3.12,-3.78,0.64,0.64,0.64
296.57,3.75,3.08,3.75,3.08,-3.08,-3.02,-3.64,0.67,0.67,0.67
299.53,3.67,2.97,3.66,2.97,-2.96,-2.93,-3.50,0.70,0.70,0.70
302.53,3.58,2.86,3.58,2.85,-2.85,-2.83,-3.35,0.73,0.73,0.72
305.55,3.49,2.72,3.49,2.73,-2.73,-2.73,-3.21,0.76,0.76,0.77
308.61,3.41,2.61,3.41,2.60,-2.61,-2.63,-3.06,0.80,0.80,0.80
311.69,3.32,2.48,3.32,2.48,-2.48,-2.53,-2.91,0.83,0.83,0.84
314.81,3.23,2.36,3.23,2.36,-2.36,-2.43,-2.76,0.87,0.87,0.87
317.96,3.13,2.23,3.13,2.23,-2.23,-2.33,-2.62,0.89,0.90,0.90
321.14,3.04,2.11,3.04,2.11,-2.11,-2.23,-2.47,0.93,0.93,0.93
324.35,2.94,1.99,2.94,1.98,-1.98,-2.12,-2.32,0.95,0.96,0.95
327.59,2.85,1.86,2.84,1.86,-1.86,-2.02,-2.17,0.99,0.99,0.99
330.87,2.75,1.73,2.75,1.73,-1.74,-1.92,-2.03,1.01,1.01,1.02
334.18,2.65,1.61,2.65,1.61,-1.61,-1.82,-1.88,1.03,1.04,1.04
337.52,2.56,1.50,2.55,1.49,-1.49,-1.72,-1.74,1.07,1.06,1.06
340.90,2.46,1.37,2.46,1.37,-1.37,-1.61,-1.59,1.09,1.09,1.09
344.30,2.36,1.25,2.36,1.25,-1.25,-1.51,-1.45,1.11,1.11,1.11
347.75,2.26,1.12,2.26,1.13,-1.13,-1.41,-1.31,1.13,1.14,1.14
351.23,2.17,1.01,2.16,1.01,-1.01,-1.30,-1.16,1.16,1.16,1.16
354.74,2.07,0.90,2.06,0.89,-0.89,-1.20,-1.02,1.18,1.18,1.17
358.28,1.96,0.77,1.96,0.77,-0.77,-1.10,-0.88,1.19,1.19,1.19
361.87,1.86,0.65,1.86,0.65,-0.65,-0.99,-0.74,1.20,1.21,1.21
365.49,1.77,0.53,1.76,0.53,-0.54,-0.89,-0.61,1.23,1.22,1.24
369.14,1.67,0.42,1.67,0.42,-0.42,-0.79,-0.47,1.24,1.25,1.25
372.83,1.58,0.32,1.58,0.32,-0.31,-0.69,-0.33,1.26,1.27,1.26
376.56,1.50,0.22,1.49,0.21,-0.20,-0.58,-0.19,1.29,1.29,1.28
380.33,1.40,0.09,1.40,0.10,-0.10,-0.48,-0.06,1.30,1.31,1.31
384.13,1.32,-0.01,1.32,-0.01,0.01,-0.38,0.08,1.33,1.33,1.33
387.97,1.24,-0.11,1.23,-0.12,0.11,-0.28,0.21,1.35,1.35,1.35
391.85,1.16,-0.21,1.16,-0.22,0.21,-0.18,0.34,1.37,1.37,1.37
395.77,1.08,-0.32,1.08,-0.31,0.31,-0.08,0.47,1.39,1.39,1.40
399.73,1.01,-0.41,1.00,-0.41,0.41,0.02,0.60,1.42,1.42,1.42
403.72,0.93,-0.50,0.93,-0.51,0.51,0.12,0.73,1.44,1.43,1.43
407.76,0.85,-0.60,0.85,-0.60,0.60,0.21,0.86,1.45,1.45,1.45
411.84,0.78,-0.70,0.78,-0.69,0.69,0.31,0.99,1.47,1.47,1.48
415.96,0.72,-0.78,0.71,-0.79,0.78,0.41,1.11,1.50,1.50,1.50
420.12,0.65,-0.87,0.65,-0.87,0.87,0.50,1.23,1.52,1.52,1.52
424.32,0.59,-0.96,0.58,-0.96,0.96,0.60,1.35,1.55,1.55,1.55
428.56,0.52,-1.05,0.52,-1.05,1.05,0.69,1.47,1.57,1.57,1.57
432.85,0.46,-1.13,0.46,-1.13,1.13,0.78,1.59,1.59,1.59,1.59
437.18,0.41,-1.21,0.40,-1.22,1.22,0.87,1.70,1.62,1.62,1.62
441.55,0.35,-1.30,0.35,-1.30,1.29,0.96,1.81,1.64,1.64,1.65
445.96,0.29,-1.38,0.29,-1.37,1.37,1.05,1.91,1.66,1.66,1.67
450.42,0.25,-1.43,0.24,-1.45,1.45,1.13,2.01,1.69,1.69,1.68
454.93,0.20,-1.52,0.20,-1.51,1.52,1.22,2.11,1.71,1.72,1.72
459.48,0.17,-1.57,0.16,-1.58,1.58,1.30,2.20,1.75,1.74,1.74
464.07,0.13,-1.64,0.13,-1.64,1.64,1.38,2.29,1.77,1.77,1.77
468.71,0.10,-1.71,0.10,-1.70,1.70,1.46,2.37,1.80,1.80,1.81
473.40,0.08,-1.75,0.08,-1.76,1.75,1.53,2.45,1.83,1.83,1.83
478.13,0.06,-1.80,0.06,-1.80,1.80,1.61,2.52,1.85,1.86,1.86
482.91,0.05,-1.84,0.05,-1.84,1.84,1.68,2.59,1.89,1.89,1.89
487.74,0.04,-1.88,0.04,-1.88,1.88,1.75,2.65,1.92,1.92,1.92
492.62,0.04,-1.91,0.04,-1.91,1.91,1.82,2.70,1.95,1.95,1.95
497.55,0.04,-1.93,0.03,-1.94,1.94,1.88,2.75,1.98,1.98,1.97
502.52,0.03,-1.98,0.03,-1.97,1.97,1.94,2.79,2.00,2.00,2.01
507.55,0.03,-2.00,0.03,-2.00,2.00,2.00,2.83,2.03,2.03,2.03
512.62,0.03,-2.03,0.03,-2.03,2.03,2.05,2.86,2.06,2.06,2.06
517.75,0.04,-2.05,0.03,-2.06,2.06,2.10,2.88,2.09,2.09,2.09
522.93,0.03,-2.09,0.03,-2.08,2.08,2.15,2.90,2.11,2.12,2.12
528.16,0.04,-2.10,0.04,-2.11,2.11,2.20,2.91,2.15,2.15,2.14
533.44,0.04,-2.13,0.04,-2.13,2.14,2.24,2.92,2.17,2.17,2.17
538.77,0.04,-2.16,0.04,-2.16,2.16,2.27,2.92,2.20,2.20,2.20
544.16,0.04,-2.19,0.04,-2.19,2.19,2.31,2.92,2.22,2.22,2.23
549.60,0.04,-2.22,0.04,-2.22,2.21,2.34,2.91,2.25,2.25,2.26
555.10,0.04,-2.23,0.04,-2.24,2.24,2.37,2.90,2.28,2.28,2.27
560.65,0.04,-2.27,0.04,-2.27,2.27,2.39,2.88,2.31,2.31,2.31
