frequency,raw,error,smoothed,error_smoothed,equalization,parametric_eq,fixed_band_eq,equalized_raw,equalized_smoothed,target
20.00,-12.25,-12.49,-12.25,-12.49,12.47,9.50,5.16,0.22,0.22,0.24
20.20,-12.17,-12.46,-12.16,-12.45,12.45,9.50,5.29,0.28,0.28,0.29
20.40,-12.08,-12.43,-12.08,-12.42,12.42,9.49,5.42,0.34,0.34,0.34
20.61,-12.01,-12.38,-12.00,-12.38,12.39,9.49,5.56,0.39,0.39,0.37
20.81,-11.91,-12.34,-11.92,-12.34,12.36,9.49,5.70,0.45,0.44,0.42
21.02,-11.85,-12.31,-11.85,-12.31,12.33,9.49,5.85,0.48,0.48,0.46
21.23,-11.80,-12.28,-11.79,-12.28,12.29,9.49,6.00,0.50,0.50,0.48
21.44,-11.75,-12.26,-11.75,-12.25,12.26,9.48,6.15,0.50,0.50,0.50
21.66,-11.71,-12.23,-11.71,-12.23,12.22,9.48,6.31,0.51,0.51,0.52
21.87,-11.66,-12.20,-11.66,-12.20,12.18,9.48,6.47,0.51,0.52,0.53
22.09,-11.60,-12.16,-11.60,-12.15,12.13,9.48,6.64,0.52,0.53,0.55
22.31,-11.53,-12.10,-11.54,-12.10,12.08,9.48,6.81,0.54,0.54,0.56
22.54,-11.47,-12.03,-11.46,-12.03,12.02,9.47,6.98,0.56,0.56,0.56
22.76,-11.39,-11.96,-11.40,-11.95,11.97,9.47,7.17,0.57,0.57,0.56
22.99,-11.33,-11.88,-11.33,-11.89,11.91,9.47,7.35,0.58,0.58,0.55
23.22,-11.29,-11.84,-11.28,-11.83,11.85,9.47,7.54,0.57,0.57,0.55
23.45,-11.24,-11.79,-11.24,-11.79,11.80,9.46,7.73,0.56,0.56,0.55
23.69,-11.20,-11.76,-11.19,-11.75,11.75,9.46,7.93,0.55,0.55,0.56
23.92,-11.14,-11.71,-11.15,-11.71,11.69,9.46,8.14,0.55,0.55,0.56
24.16,-11.09,-11.66,-11.09,-11.66,11.64,9.45,8.35,0.55,0.55,0.56
24.40,-11.03,-11.61,-11.04,-11.60,11.59,9.45,8.56,0.56,0.56,0.57
24.65,-10.98,-11.54,-10.98,-11.54,11.54,9.45,8.78,0.56,0.56,0.56
24.89,-10.91,-11.47,-10.91,-11.47,11.48,9.45,9.00,0.56,0.57,0.56
25.14,-10.84,-11.41,-10.85,-11.41,11.41,9.44,9.23,0.57,0.56,0.56
25.39,-10.78,-11.36,-10.79,-11.35,11.35,9.44,9.46,0.56,0.56,0.57
25.65,-10.73,-11.30,-10.72,-11.29,11.28,9.44,9.69,0.56,0.56,0.57
25.91,-10.66,-11.22,-10.66,-11.22,11.22,9.43,9.93,0.56,0.56,0.56
26.16,-10.59,-11.16,-10.60,-11.16,11.16,9.43,10.17,0.57,0.56,0.56
26.43,-10.55,-11.11,-10.54,-11.10,11.11,9.42,10.41,0.56,0.57,0.56
26.69,-10.49,-11.05,-10.49,-11.05,11.06,9.42,10.65,0.58,0.57,0.56
26.96,-10.44,-11.00,-10.44,-11.00,11.02,9.42,10.90,0.58,0.57,0.56
27.23,-10.41,-10.97,-10.40,-10.96,10.97,9.41,11.14,0.57,0.57,0.56
27.50,-10.38,-10.94,-10.38,-10.94,10.93,9.41,11.38,0.55,0.55,0.56
27.77,-10.35,-10.90,-10.35,-10.90,10.89,9.40,11.61,0.54,0.54,0.55
28.05,-10.32,-10.87,-10.30,-10.85,10.84,9.40,11.84,0.52,0.53,0.55
28.33,-10.25,-10.79,-10.25,-10.80,10.78,9.39,12.06,0.54,0.53,0.54
28.62,-10.19,-10.73,-10.19,-10.73,10.72,9.39,12.28,0.53,0.53,0.54
28.90,-10.12,-10.67,-10.12,-10.66,10.65,9.38,12.48,0.54,0.54,0.55
29.19,-10.05,-10.59,-10.04,-10.59,10.58,9.38,12.67,0.54,0.54,0.54
29.48,-9.96,-10.52,-9.96,-10.51,10.51,9.37,12.84,0.55,0.55,0.55
29.78,-9.89,-10.43,-9.89,-10.43,10.45,9.37,13.00,0.56,0.56,0.54
30.08,-9.82,-10.37,-9.82,-10.37,10.39,9.36,13.12,0.57,0.56,0.55
30.38,-9.78,-10.32,-9.78,-10.32,10.34,9.35,13.24,0.56,0.56,0.54
30.68,-9.75,-10.29,-9.74,-10.28,10.29,9.35,13.31,0.55,0.55,0.54
30.99,-9.71,-10.25,-9.71,-10.25,10.25,9.34,13.38,0.55,0.54,0.54
31.30,-9.69,-10.22,-9.69,-10.22,10.22,9.33,13.40,0.53,0.53,0.53
31.61,-9.66,-10.19,-9.66,-10.19,10.18,9.33,13.42,0.52,0.52,0.53
31.93,-9.64,-10.17,-9.63,-10.15,10.13,9.32,13.39,0.50,0.51,0.53
32.24,-9.57,-10.10,-9.58,-10.10,10.08,9.31,13.35,0.51,0.51,0.52
32.57,-9.52,-10.04,-9.52,-10.04,10.02,9.30,13.27,0.51,0.51,0.52
32.89,-9.45,-9.97,-9.45,-9.97,9.96,9.30,13.18,0.52,0.51,0.52
33.22,-9.39,-9.90,-9.38,-9.89,9.90,9.29,13.07,0.51,0.52,0.51
33.55,-9.31,-9.83,-9.31,-9.82,9.83,9.28,12.94,0.52,0.52,0.51
33.89,-9.25,-9.75,-9.25,-9.75,9.77,9.27,12.79,0.52,0.52,0.50
34.23,-9.20,-9.70,-9.20,-9.70,9.71,9.26,12.64,0.52,0.51,0.50
34.57,-9.17,-9.66,-9.16,-9.65,9.66,9.25,12.46,0.49,0.50,0.49
34.92,-9.13,-9.62,-9.13,-9.61,9.61,9.24,12.29,0.49,0.49,0.49
35.27,-9.10,-9.58,-9.09,-9.58,9.57,9.23,12.10,0.48,0.48,0.48
35.62,-9.06,-9.54,-9.06,-9.54,9.54,9.22,11.92,0.48,0.48,0.48
35.97,-9.03,-9.51,-9.03,-9.51,9.50,9.21,11.72,0.48,0.47,0.48
36.33,-9.00,-9.48,-8.99,-9.47,9.47,9.20,11.53,0.47,0.48,0.48
36.70,-8.96,-9.43,-8.96,-9.43,9.43,9.19,11.34,0.48,0.48,0.47
37.06,-8.92,-9.39,-8.92,-9.39,9.40,9.17,11.15,0.48,0.48,0.47
37.43,-8.88,-9.37,-8.88,-9.36,9.36,9.16,10.96,0.48,0.48,0.48
37.81,-8.85,-9.33,-8.84,-9.32,9.32,9.15,10.77,0.48,0.48,0.48
38.19,-8.81,-9.28,-8.81,-9.29,9.28,9.13,10.59,0.47,0.47,0.47
38.57,-8.77,-9.25,-8.77,-9.25,9.23,9.12,10.41,0.47,0.47,0.48
38.95,-8.72,-9.22,-8.72,-9.20,9.19,9.11,10.24,0.46,0.47,0.49
39.34,-8.66,-9.15,-8.66,-9.14,9.15,9.09,10.07,0.48,0.49,0.48
39.74,-8.60,-9.08,-8.60,-9.09,9.10,9.07,9.91,0.51,0.50,0.48
40.14,-8.55,-9.03,-8.56,-9.04,9.06,9.06,9.75,0.51,0.50,0.48
40.54,-8.54,-9.02,-8.53,-9.01,9.02,9.04,9.60,0.48,0.49,0.48
40.94,-8.52,-8.99,-8.51,-8.98,8.98,9.02,9.46,0.46,0.47,0.47
41.35,-8.48,-8.95,-8.48,-8.95,8.93,9.01,9.32,0.46,0.46,0.47
41.76,-8.44,-8.90,-8.44,-8.90,8.89,8.99,9.19,0.46,0.46,0.46
42.18,-8.40,-8.86,-8.40,-8.85,8.85,8.97,9.06,0.45,0.45,0.46
42.60,-8.36,-8.81,-8.35,-8.81,8.80,8.95,8.94,0.45,0.45,0.45
43.03,-8.32,-8.76,-8.31,-8.75,8.75,8.93,8.83,0.44,0.44,0.44
43.46,-8.27,-8.70,-8.27,-8.70,8.69,8.91,8.72,0.43,0.43,0.43
43.90,-8.23,-8.64,-8.23,-8.64,8.63,8.88,8.62,0.41,0.41,0.41
44.33,-8.19,-8.58,-8.19,-8.58,8.57,8.86,8.52,0.39,0.38,0.39
44.78,-8.16,-8.53,-8.15,-8.52,8.52,8.84,8.43,0.36,0.37,0.37
45.23,-8.11,-8.47,-8.10,-8.46,8.47,8.81,8.35,0.36,0.37,0.36
45.68,-8.06,-8.41,-8.06,-8.41,8.43,8.79,8.27,0.37,0.37,0.35
46.13,-8.02,-8.35,-8.03,-8.36,8.39,8.76,8.20,0.38,0.37,0.33
46.60,-8.02,-8.35,-8.01,-8.34,8.36,8.73,8.13,0.35,0.35,0.33
47.06,-8.02,-8.33,-8.02,-8.33,8.33,8.70,8.07,0.32,0.32,0.31
47.53,-8.02,-8.32,-8.02,-8.32,8.30,8.67,8.01,0.28,0.28,0.30
48.01,-8.02,-8.32,-8.00,-8.29,8.26,8.64,7.96,0.24,0.26,0.30
48.49,-7.97,-8.25,-7.97,-8.25,8.21,8.61,7.91,0.24,0.24,0.28
48.97,-7.92,-8.18,-7.92,-8.18,8.16,8.58,7.87,0.24,0.24,0.26
49.46,-7.87,-8.11,-7.87,-8.11,8.11,8.54,7.83,0.24,0.24,0.24
49.96,-7.82,-8.04,-7.81,-8.03,8.06,8.51,7.80,0.24,0.25,0.22
50.46,-7.76,-7.97,-7.75,-7.96,8.01,8.47,7.77,0.25,0.25,0.21
50.96,-7.70,-7.90,-7.72,-7.91,7.96,8.43,7.74,0.26,0.24,0.20
51.47,-7.71,-7.89,-7.70,-7.89,7.91,8.39,7.72,0.21,0.21,0.18
51.99,-7.72,-7.89,-7.72,-7.89,7.87,8.35,7.70,0.15,0.15,0.17
52.51,-7.73,-7.89,-7.73,-7.89,7.83,8.31,7.68,0.10,0.10,0.16
53.03,-7.73,-7.89,-7.68,-7.84,7.79,8.27,7.66,0.06,0.10,0.16
53.56,-7.62,-7.76,-7.62,-7.76,7.76,8.22,7.65,0.14,0.14,0.14
54.10,-7.52,-7.65,-7.55,-7.68,7.72,8.17,7.64,0.21,0.17,0.13
54.64,-7.52,-7.63,-7.51,-7.63,7.68,8.12,7.62,0.17,0.17,0.11
55.18,-7.52,-7.63,-7.51,-7.61,7.64,8.07,7.61,0.12,0.13,0.11
55.74,-7.52,-7.61,-7.52,-7.62,7.59,8.02,7.60,0.08,0.07,0.09
56.29,-7.52,-7.60,-7.52,-7.60,7.56,7.97,7.58,0.04,0.04,0.08
56.86,-7.52,-7.59,-7.49,-7.55,7.53,7.91,7.57,0.01,0.04,0.07
57.42,-7.45,-7.50,-7.45,-7.50,7.50,7.86,7.55,0.04,0.05,0.04
58.00,-7.38,-7.41,-7.41,-7.44,7.47,7.80,7.53,0.10,0.06,0.03
58.58,-7.40,-7.42,-7.39,-7.41,7.44,7.74,7.51,0.05,0.05,0.02
59.16,-7.42,-7.42,-7.40,-7.40,7.41,7.68,7.48,-0.01,0.01,0.00
59.76,-7.42,-7.40,-7.42,-7.39,7.38,7.61,7.45,-0.04,-0.04,-0.02
60.35,-7.42,-7.36,-7.42,-7.36,7.35,7.55,7.42,-0.06,-0.07,-0.06
60.96,-7.42,-7.32,-7.42,-7.32,7.32,7.48,7.38,-0.09,-0.09,-0.10
61.57,-7.42,-7.28,-7.41,-7.27,7.29,7.41,7.33,-0.13,-0.13,-0.14
62.18,-7.42,-7.24,-7.42,-7.23,7.24,7.34,7.28,-0.18,-0.18,-0.18
62.80,-7.42,-7.19,-7.44,-7.21,7.17,7.26,7.23,-0.24,-0.27,-0.23
63.43,-7.44,-7.17,-7.43,-7.15,7.10,7.19,7.17,-0.33,-0.32,-0.27
64.07,-7.44,-7.12,-7.37,-7.05,7.03,7.11,7.11,-0.40,-0.34,-0.32
64.71,-7.26,-6.90,-7.30,-6.94,6.96,7.03,7.04,-0.30,-0.34,-0.36
65.35,-7.19,-6.79,-7.23,-6.82,6.88,6.95,6.96,-0.31,-0.35,-0.40
66.01,-7.22,-6.77,-7.19,-6.74,6.80,6.87,6.89,-0.42,-0.40,-0.45
66.67,-7.22,-6.72,-7.22,-6.72,6.72,6.79,6.80,-0.50,-0.50,-0.50
67.33,-7.22,-6.67,-7.22,-6.67,6.64,6.71,6.72,-0.58,-0.58,-0.55
68.01,-7.22,-6.63,-7.17,-6.58,6.56,6.62,6.63,-0.65,-0.61,-0.59
68.69,-7.11,-6.47,-7.13,-6.49,6.49,6.54,6.53,-0.61,-0.64,-0.64
69.37,-7.08,-6.39,-7.11,-6.42,6.43,6.45,6.44,-0.64,-0.68,-0.69
70.07,-7.12,-6.38,-7.10,-6.36,6.37,6.37,6.34,-0.74,-0.72,-0.74
70.77,-7.12,-6.33,-7.07,-6.28,6.30,6.28,6.24,-0.81,-0.77,-0.79
71.48,-7.04,-6.20,-7.05,-6.20,6.22,6.19,6.14,-0.82,-0.83,-0.84
72.19,-6.98,-6.07,-7.04,-6.13,6.13,6.11,6.04,-0.85,-0.91,-0.91
72.91,-7.06,-6.09,-7.05,-6.08,6.03,6.02,5.93,-1.02,-1.01,-0.97
73.64,-7.09,-6.07,-7.03,-6.01,5.94,5.94,5.83,-1.15,-1.09,-1.02
74.38,-6.99,-5.91,-6.96,-5.88,5.85,5.86,5.73,-1.14,-1.11,-1.08
75.12,-6.81,-5.67,-6.85,-5.71,5.76,5.78,5.63,-1.05,-1.09,-1.14
75.87,-6.74,-5.54,-6.77,-5.58,5.66,5.70,5.52,-1.07,-1.11,-1.20
76.63,-6.78,-5.53,-6.76,-5.51,5.57,5.62,5.42,-1.21,-1.19,-1.25
77.40,-6.81,-5.51,-6.80,-5.50,5.47,5.55,5.33,-1.34,-1.33,-1.30
78.17,-6.81,-5.45,-6.81,-5.45,5.38,5.47,5.23,-1.42,-1.42,-1.36
78.95,-6.80,-5.40,-6.76,-5.36,5.31,5.40,5.14,-1.49,-1.45,-1.40
79.74,-6.68,-5.23,-6.69,-5.24,5.25,5.34,5.04,-1.42,-1.44,-1.45
80.54,-6.62,-5.12,-6.65,-5.15,5.20,5.28,4.95,-1.42,-1.45,-1.50
81.35,-6.64,-5.09,-6.64,-5.09,5.14,5.21,4.87,-1.49,-1.50,-1.55
82.16,-6.71,-5.11,-6.68,-5.08,5.09,5.16,4.78,-1.62,-1.59,-1.60
82.98,-6.71,-5.07,-6.70,-5.06,5.03,5.10,4.70,-1.68,-1.68,-1.64
83.81,-6.71,-5.02,-6.71,-5.02,4.99,5.05,4.62,-1.72,-1.73,-1.69
84.65,-6.71,-4.97,-6.71,-4.97,4.96,5.01,4.54,-1.75,-1.75,-1.74
85.50,-6.71,-4.93,-6.70,-4.92,4.93,4.96,4.47,-1.78,-1.77,-1.78
86.35,-6.71,-4.88,-6.69,-4.86,4.90,4.92,4.40,-1.80,-1.79,-1.83
87.22,-6.71,-4.83,-6.73,-4.85,4.87,4.89,4.33,-1.83,-1.86,-1.88
88.09,-6.75,-4.82,-6.79,-4.86,4.84,4.85,4.27,-1.90,-1.94,-1.93
88.97,-6.92,-4.93,-6.83,-4.85,4.82,4.83,4.21,-2.10,-2.01,-1.99
89.86,-6.86,-4.82,-6.85,-4.81,4.80,4.80,4.15,-2.06,-2.05,-2.04
90.76,-6.82,-4.73,-6.87,-4.78,4.77,4.78,4.09,-2.04,-2.09,-2.09
91.66,-6.86,-4.72,-6.88,-4.74,4.75,4.75,4.04,-2.10,-2.13,-2.14
92.58,-6.98,-4.78,-6.93,-4.73,4.73,4.74,3.99,-2.24,-2.20,-2.20
93.51,-6.99,-4.74,-6.96,-4.71,4.70,4.73,3.94,-2.28,-2.25,-2.25
94.44,-6.94,-4.65,-6.97,-4.68,4.68,4.72,3.90,-2.26,-2.29,-2.29
95.39,-6.97,-4.63,-6.99,-4.65,4.65,4.71,3.86,-2.31,-2.33,-2.34
96.34,-7.04,-4.65,-7.03,-4.64,4.64,4.71,3.82,-2.39,-2.39,-2.39
97.30,-7.12,-4.68,-7.09,-4.65,4.64,4.70,3.78,-2.47,-2.45,-2.44
98.28,-7.13,-4.64,-7.12,-4.63,4.65,4.70,3.75,-2.47,-2.47,-2.49
99.26,-7.14,-4.61,-7.14,-4.61,4.66,4.70,3.72,-2.48,-2.48,-2.53
100.25,-7.17,-4.59,-7.20,-4.62,4.67,4.69,3.69,-2.50,-2.54,-2.58
101.25,-7.29,-4.66,-7.30,-4.67,4.67,4.69,3.66,-2.61,-2.63,-2.63
102.27,-7.45,-4.77,-7.40,-4.72,4.67,4.67,3.63,-2.78,-2.73,-2.68
103.29,-7.46,-4.73,-7.45,-4.72,4.65,4.65,3.61,-2.81,-2.80,-2.73
104.32,-7.44,-4.67,-7.41,-4.64,4.62,4.61,3.59,-2.82,-2.80,-2.77
105.37,-7.34,-4.52,-7.38,-4.56,4.57,4.56,3.56,-2.77,-2.81,-2.82
106.42,-7.32,-4.45,-7.36,-4.48,4.50,4.49,3.54,-2.82,-2.86,-2.87
107.48,-7.40,-4.47,-7.33,-4.41,4.41,4.42,3.52,-2.99,-2.92,-2.93
108.56,-7.31,-4.33,-7.30,-4.32,4.30,4.33,3.50,-3.00,-3.00,-2.98
109.64,-7.22,-4.19,-7.24,-4.21,4.19,4.23,3.48,-3.02,-3.05,-3.03
110.74,-7.17,-4.08,-7.17,-4.09,4.09,4.13,3.46,-3.08,-3.08,-3.09
111.85,-7.12,-3.99,-7.10,-3.97,3.99,4.02,3.44,-3.12,-3.11,-3.13
112.97,-7.08,-3.89,-7.05,-3.86,3.90,3.91,3.42,-3.17,-3.15,-3.19
114.10,-6.97,-3.73,-7.02,-3.78,3.81,3.80,3.40,-3.15,-3.21,-3.24
115.24,-7.01,-3.72,-7.01,-3.72,3.73,3.69,3.38,-3.28,-3.28,-3.29
116.39,-7.03,-3.69,-6.98,-3.64,3.64,3.59,3.35,-3.39,-3.34,-3.34
117.55,-6.96,-3.58,-6.95,-3.57,3.54,3.49,3.33,-3.41,-3.41,-3.38
118.73,-6.85,-3.43,-6.91,-3.49,3.45,3.39,3.30,-3.40,-3.46,-3.42
119.92,-6.87,-3.42,-6.83,-3.38,3.35,3.29,3.27,-3.52,-3.48,-3.45
121.12,-6.79,-3.30,-6.73,-3.25,3.24,3.20,3.24,-3.54,-3.49,-3.49
122.33,-6.60,-3.08,-6.63,-3.11,3.13,3.11,3.21,-3.47,-3.50,-3.52
123.55,-6.48,-2.93,-6.51,-2.96,3.00,3.02,3.17,-3.47,-3.50,-3.55
124.79,-6.45,-2.87,-6.43,-2.85,2.88,2.93,3.14,-3.57,-3.55,-3.58
126.03,-6.38,-2.77,-6.39,-2.78,2.75,2.85,3.10,-3.62,-3.63,-3.61
127.29,-6.34,-2.71,-6.30,-2.66,2.63,2.77,3.05,-3.71,-3.67,-3.63
128.57,-6.20,-2.53,-6.18,-2.51,2.51,2.68,3.01,-3.69,-3.67,-3.67
129.85,-6.02,-2.32,-6.07,-2.37,2.38,2.61,2.96,-3.63,-3.68,-3.70
131.15,-5.97,-2.24,-5.98,-2.25,2.26,2.53,2.91,-3.70,-3.72,-3.73
132.46,-5.95,-2.19,-5.92,-2.16,2.15,2.45,2.86,-3.79,-3.77,-3.76
133.79,-5.90,-2.11,-5.85,-2.07,2.04,2.38,2.81,-3.85,-3.81,-3.79
135.12,-5.74,-1.92,-5.75,-1.93,1.94,2.31,2.75,-3.79,-3.80,-3.82
136.48,-5.63,-1.79,-5.65,-1.81,1.85,2.23,2.69,-3.78,-3.80,-3.84
137.84,-5.59,-1.71,-5.62,-1.75,1.77,2.16,2.63,-3.82,-3.86,-3.88
139.22,-5.65,-1.74,-5.62,-1.72,1.70,2.09,2.57,-3.95,-3.93,-3.91
140.61,-5.68,-1.74,-5.60,-1.66,1.63,2.03,2.51,-4.04,-3.97,-3.94
142.02,-5.53,-1.57,-5.56,-1.60,1.58,1.96,2.45,-3.94,-3.98,-3.96
143.44,-5.48,-1.49,-5.52,-1.53,1.55,1.89,2.38,-3.92,-3.97,-3.99
144.87,-5.54,-1.51,-5.51,-1.49,1.53,1.83,2.31,-4.00,-3.98,-4.03
146.32,-5.57,-1.50,-5.54,-1.48,1.52,1.76,2.25,-4.05,-4.02,-4.07
147.78,-5.58,-1.48,-5.58,-1.48,1.49,1.70,2.18,-4.08,-4.09,-4.10
149.26,-5.60,-1.45,-5.64,-1.49,1.47,1.63,2.11,-4.13,-4.17,-4.15
150.75,-5.72,-1.51,-5.69,-1.48,1.44,1.57,2.05,-4.28,-4.26,-4.21
152.26,-5.77,-1.49,-5.72,-1.44,1.39,1.51,1.98,-4.38,-4.33,-4.28
153.78,-5.70,-1.35,-5.72,-1.37,1.32,1.45,1.91,-4.37,-4.40,-4.35
155.32,-5.68,-1.26,-5.69,-1.27,1.24,1.39,1.84,-4.44,-4.45,-4.42
156.88,-5.68,-1.18,-5.68,-1.18,1.15,1.33,1.78,-4.53,-4.53,-4.50
158.44,-5.68,-1.10,-5.65,-1.07,1.07,1.27,1.71,-4.61,-4.58,-4.58
160.03,-5.64,-0.98,-5.62,-0.96,1.01,1.21,1.64,-4.63,-4.61,-4.66
161.63,-5.56,-0.83,-5.61,-0.88,0.97,1.15,1.57,-4.58,-4.63,-4.73
163.24,-5.65,-0.86,-5.64,-0.85,0.97,1.09,1.51,-4.68,-4.67,-4.79
164.88,-5.75,-0.91,-5.74,-0.90,0.98,1.03,1.44,-4.76,-4.75,-4.84
166.53,-5.89,-1.00,-5.91,-1.02,1.01,0.97,1.38,-4.87,-4.90,-4.89
168.19,-6.03,-1.10,-6.03,-1.10,1.04,0.92,1.31,-4.98,-4.99,-4.93
169.87,-6.20,-1.23,-6.12,-1.16,1.06,0.86,1.25,-5.13,-5.06,-4.97
171.57,-6.11,-1.12,-6.15,-1.16,1.07,0.80,1.19,-5.04,-5.09,-4.99
173.29,-6.11,-1.11,-6.10,-1.10,1.04,0.74,1.13,-5.07,-5.06,-5.00
175.02,-6.02,-1.01,-5.98,-0.97,0.98,0.68,1.06,-5.04,-5.00,-5.01
176.77,-5.86,-0.84,-5.90,-0.88,0.89,0.62,1.00,-4.97,-5.01,-5.02
178.54,-5.76,-0.73,-5.80,-0.77,0.77,0.56,0.94,-4.98,-5.02,-5.03
180.32,-5.74,-0.72,-5.65,-0.63,0.66,0.51,0.88,-5.08,-4.99,-5.02
182.13,-5.55,-0.54,-5.52,-0.51,0.54,0.45,0.82,-5.00,-4.98,-5.01
183.95,-5.30,-0.28,-5.42,-0.41,0.45,0.39,0.76,-4.85,-4.98,-5.02
185.79,-5.39,-0.37,-5.36,-0.33,0.36,0.33,0.71,-5.02,-4.99,-5.02
187.65,-5.38,-0.34,-5.31,-0.28,0.29,0.27,0.65,-5.08,-5.02,-5.04
189.52,-5.30,-0.25,-5.28,-0.23,0.22,0.21,0.59,-5.07,-5.06,-5.05
191.42,-5.16,-0.09,-5.24,-0.17,0.15,0.15,0.54,-5.00,-5.09,-5.07
193.33,-5.20,-0.11,-5.22,-0.13,0.09,0.09,0.48,-5.11,-5.13,-5.09
195.27,-5.29,-0.18,-5.16,-0.05,0.01,0.03,0.43,-5.27,-5.15,-5.11
197.22,-5.09,0.04,-5.09,0.04,-0.07,-0.03,0.37,-5.15,-5.15,-5.13
199.19,-4.90,0.25,-5.01,0.14,-0.15,-0.09,0.32,-5.04,-5.15,-5.15
201.18,-4.94,0.23,-4.93,0.24,-0.22,-0.14,0.27,-5.16,-5.15,-5.17
203.19,-4.98,0.21,-4.87,0.32,-0.29,-0.19,0.22,-5.26,-5.16,-5.19
205.23,-4.82,0.39,-4.84,0.37,-0.34,-0.24,0.17,-5.16,-5.18,-5.21
207.28,-4.72,0.50,-4.80,0.42,-0.38,-0.28,0.12,-5.10,-5.18,-5.22
209.35,-4.83,0.41,-4.80,0.45,-0.41,-0.32,0.07,-5.23,-5.21,-5.24
211.44,-4.89,0.38,-4.85,0.41,-0.42,-0.35,0.02,-5.31,-5.27,-5.27
213.56,-4.89,0.39,-4.89,0.39,-0.43,-0.38,-0.03,-5.31,-5.32,-5.28
215.69,-4.89,0.40,-4.89,0.39,-0.43,-0.40,-0.07,-5.31,-5.32,-5.29
217.85,-4.90,0.40,-4.89,0.41,-0.42,-0.41,-0.11,-5.32,-5.32,-5.30
220.03,-4.90,0.41,-4.90,0.42,-0.42,-0.43,-0.16,-5.32,-5.32,-5.31
222.23,-4.90,0.44,-4.90,0.43,-0.42,-0.43,-0.20,-5.32,-5.32,-5.34
224.45,-4.90,0.43,-4.90,0.44,-0.43,-0.43,-0.24,-5.33,-5.33,-5.33
226.70,-4.90,0.43,-4.90,0.43,-0.44,-0.42,-0.27,-5.34,-5.34,-5.33
228.96,-4.90,0.42,-4.89,0.43,-0.45,-0.41,-0.31,-5.34,-5.34,-5.32
231.25,-4.89,0.42,-4.89,0.42,-0.43,-0.40,-0.34,-5.32,-5.32,-5.31
233.57,-4.88,0.42,-4.87,0.44,-0.40,-0.39,-0.37,-5.27,-5.26,-5.30
235.90,-4.87,0.42,-4.86,0.43,-0.36,-0.37,-0.40,-5.23,-5.22,-5.29
238.26,-4.85,0.43,-4.89,0.38,-0.32,-0.35,-0.43,-5.17,-5.22,-5.28
240.64,-4.95,0.30,-4.94,0.31,-0.30,-0.33,-0.45,-5.24,-5.24,-5.25
243.05,-5.05,0.17,-5.02,0.21,-0.28,-0.31,-0.47,-5.33,-5.30,-5.22
245.48,-5.02,0.18,-5.04,0.15,-0.27,-0.29,-0.49,-5.29,-5.31,-5.20
247.93,-5.06,0.11,-4.98,0.19,-0.27,-0.27,-0.51,-5.32,-5.24,-5.17
250.41,-4.85,0.30,-4.87,0.27,-0.27,-0.25,-0.52,-5.12,-5.14,-5.15
252.92,-4.74,0.38,-4.78,0.34,-0.29,-0.23,-0.53,-5.02,-5.07,-5.12
255.45,-4.73,0.37,-4.71,0.39,-0.32,-0.21,-0.54,-5.04,-5.03,-5.10
258.00,-4.72,0.36,-4.71,0.37,-0.35,-0.20,-0.55,-5.06,-5.05,-5.08
260.58,-4.71,0.35,-4.72,0.34,-0.37,-0.18,-0.55,-5.07,-5.09,-5.06
263.19,-4.71,0.32,-4.69,0.34,-0.36,-0.16,-0.56,-5.07,-5.05,-5.03
265.82,-4.71,0.30,-4.65,0.36,-0.33,-0.15,-0.55,-5.04,-4.98,-5.01
268.48,-4.59,0.40,-4.65,0.33,-0.29,-0.13,-0.55,-4.87,-4.94,-4.99
271.16,-4.65,0.31,-4.69,0.27,-0.24,-0.12,-0.55,-4.88,-4.93,-4.96
273.87,-4.82,0.12,-4.75,0.19,-0.19,-0.10,-0.54,-5.00,-4.94,-4.94
276.61,-4.83,0.08,-4.82,0.09,-0.14,-0.09,-0.53,-4.97,-4.96,-4.91
279.38,-4.83,0.05,-4.84,0.04,-0.10,-0.08,-0.52,-4.92,-4.93,-4.88
282.17,-4.82,0.04,-4.82,0.03,-0.05,-0.06,-0.51,-4.86,-4.87,-4.86
284.99,-4.82,0.00,-4.81,0.01,-0.01,-0.05,-0.50,-4.83,-4.82,-4.82
287.84,-4.81,-0.01,-4.81,-0.01,0.02,-0.04,-0.48,-4.79,-4.78,-4.80
290.72,-4.80,-0.03,-4.80,-0.03,0.04,-0.03,-0.47,-4.75,-4.76,-4.77
293.63,-4.79,-0.05,-4.79,-0.05,0.05,-0.01,-0.45,-4.73,-4.73,-4.74
296.57,-4.78,-0.07,-4.77,-0.06,0.06,-0.00,-0.44,-4.71,-4.71,-4.71
299.53,-4.76,-0.08,-4.76,-0.08,0.07,0.01,-0.42,-4.69,-4.69,-4.68
302.53,-4.75,-0.09,-4.75,-0.09,0.08,0.02,-0.40,-4.67,-4.67,-4.66
305.55,-4.74,-0.12,-4.74,-0.12,0.09,0.04,-0.38,-4.64,-4.65,-4.62
308.61,-4.73,-0.13,-4.71,-0.11,0.11,0.05,-0.36,-4.61,-4.59,-4.60
311.69,-4.70,-0.13,-4.67,-0.10,0.14,0.07,-0.34,-4.56,-4.53,-4.57
314.81,-4.62,-0.07,-4.67,-0.12,0.17,0.08,-0.32,-4.45,-4.50,-4.55
317.96,-4.70,-0.17,-4.70,-0.17,0.20,0.10,-0.29,-4.50,-4.50,-4.53
321.14,-4.80,-0.28,-4.76,-0.24,0.24,0.11,-0.27,-4.56,-4.52,-4.52
324.35,-4.82,-0.32,-4.81,-0.31,0.27,0.13,-0.25,-4.54,-4.54,-4.50
327.59,-4.82,-0.33,-4.82,-0.33,0.31,0.15,-0.23,-4.51,-4.52,-4.49
330.87,-4.82,-0.34,-4.82,-0.34,0.33,0.17,-0.21,-4.49,-4.49,-4.48
334.18,-4.82,-0.36,-4.82,-0.36,0.34,0.18,-0.18,-4.47,-4.47,-4.46
337.52,-4.83,-0.38,-4.83,-0.38,0.35,0.20,-0.16,-4.47,-4.48,-4.45
340.90,-4.83,-0.39,-4.82,-0.38,0.37,0.23,-0.14,-4.46,-4.45,-4.44
344.30,-4.83,-0.40,-4.79,-0.36,0.39,0.25,-0.12,-4.44,-4.40,-4.43
347.75,-4.75,-0.32,-4.77,-0.34,0.41,0.27,-0.09,-4.34,-4.36,-4.43
351.23,-4.74,-0.32,-4.78,-0.36,0.43,0.29,-0.07,-4.30,-4.35,-4.42
354.74,-4.87,-0.44,-4.84,-0.42,0.45,0.31,-0.05,-4.41,-4.39,-4.43
358.28,-4.94,-0.52,-4.94,-0.52,0.46,0.34,-0.03,-4.47,-4.48,-4.42
361.87,-5.00,-0.58,-4.98,-0.57,0.46,0.36,-0.00,-4.53,-4.52,-4.42
365.49,-5.01,-0.60,-4.95,-0.53,0.46,0.39,0.02,-4.55,-4.49,-4.41
369.14,-4.84,-0.42,-4.88,-0.46,0.44,0.41,0.04,-4.39,-4.44,-4.42
372.83,-4.79,-0.37,-4.81,-0.39,0.42,0.43,0.06,-4.36,-4.39,-4.42
376.56,-4.79,-0.36,-4.77,-0.35,0.40,0.45,0.08,-4.39,-4.38,-4.43
380.33,-4.78,-0.36,-4.75,-0.33,0.37,0.47,0.11,-4.41,-4.39,-4.42
384.13,-4.75,-0.33,-4.74,-0.31,0.35,0.49,0.13,-4.40,-4.39,-4.42
387.97,-4.70,-0.27,-4.74,-0.31,0.34,0.50,0.15,-4.36,-4.40,-4.43
391.85,-4.78,-0.34,-4.77,-0.34,0.35,0.51,0.17,-4.43,-4.42,-4.44
395.77,-4.84,-0.41,-4.81,-0.38,0.36,0.52,0.19,-4.47,-4.45,-4.43
399.73,-4.86,-0.42,-4.85,-0.42,0.38,0.52,0.21,-4.48,-4.48,-4.44
403.72,-4.86,-0.42,-4.86,-0.42,0.39,0.52,0.23,-4.47,-4.48,-4.44
407.76,-4.87,-0.41,-4.86,-0.41,0.40,0.52,0.25,-4.47,-4.47,-4.46
411.84,-4.87,-0.41,-4.87,-0.41,0.41,0.51,0.27,-4.46,-4.46,-4.46
415.96,-4.87,-0.41,-4.86,-0.40,0.42,0.50,0.29,-4.45,-4.44,-4.46
420.12,-4.87,-0.41,-4.84,-0.38,0.43,0.48,0.30,-4.44,-4.42,-4.46
424.32,-4.83,-0.37,-4.85,-0.39,0.43,0.46,0.32,-4.40,-4.42,-4.46
428.56,-4.84,-0.39,-4.88,-0.43,0.43,0.43,0.34,-4.41,-4.45,-4.45
432.85,-4.94,-0.50,-4.90,-0.46,0.43,0.40,0.35,-4.50,-4.47,-4.44
437.18,-4.94,-0.51,-4.89,-0.47,0.43,0.37,0.36,-4.50,-4.46,-4.43
441.55,-4.82,-0.43,-4.84,-0.44,0.43,0.34,0.37,-4.39,-4.41,-4.39
445.96,-4.74,-0.38,-4.75,-0.39,0.41,0.30,0.38,-4.32,-4.34,-4.36
