frequency,raw,error,smoothed,error_smoothed,equalization,parametric_eq,fixed_band_eq,equalized_raw,equalized_smoothed,target
20.00,14.40,0.38,14.40,0.38,-0.38,-0.45,-0.41,14.02,14.02,14.02
20.20,14.42,0.41,14.42,0.41,-0.41,-0.46,-0.42,14.01,14.01,14.01
20.40,14.44,0.44,14.44,0.44,-0.44,-0.47,-0.44,14.00,14.00,14.00
20.61,14.46,0.47,14.46,0.47,-0.47,-0.48,-0.45,13.99,13.98,13.99
20.81,14.47,0.50,14.48,0.50,-0.50,-0.49,-0.46,13.97,13.97,13.97
21.02,14.49,0.53,14.49,0.53,-0.53,-0.50,-0.47,13.96,13.96,13.96
21.23,14.51,0.56,14.51,0.56,-0.56,-0.51,-0.48,13.95,13.95,13.94
21.44,14.53,0.58,14.53,0.59,-0.59,-0.52,-0.50,13.94,13.94,13.95
21.66,14.55,0.62,14.55,0.62,-0.62,-0.53,-0.51,13.93,13.93,13.93
21.87,14.57,0.64,14.57,0.65,-0.65,-0.54,-0.52,13.92,13.92,13.93
22.09,14.59,0.68,14.59,0.67,-0.67,-0.55,-0.54,13.92,13.91,13.91
22.31,14.61,0.70,14.60,0.70,-0.70,-0.56,-0.55,13.91,13.91,13.91
22.54,14.62,0.72,14.62,0.72,-0.72,-0.57,-0.57,13.90,13.90,13.90
22.76,14.64,0.74,14.64,0.75,-0.75,-0.58,-0.58,13.89,13.89,13.90
22.99,14.66,0.77,14.66,0.77,-0.77,-0.59,-0.60,13.89,13.89,13.89
23.22,14.68,0.80,14.68,0.79,-0.79,-0.60,-0.61,13.89,13.88,13.87
23.45,14.69,0.81,14.69,0.81,-0.81,-0.61,-0.63,13.88,13.88,13.88
23.69,14.71,0.84,14.71,0.84,-0.84,-0.62,-0.64,13.87,13.87,13.87
23.92,14.72,0.86,14.73,0.86,-0.86,-0.63,-0.66,13.86,13.87,13.86
24.16,14.74,0.87,14.74,0.88,-0.88,-0.65,-0.68,13.86,13.87,13.87
24.40,14.76,0.89,14.76,0.90,-0.90,-0.66,-0.70,13.86,13.86,13.87
24.65,14.78,0.91,14.77,0.91,-0.91,-0.67,-0.71,13.87,13.86,13.87
24.89,14.79,0.93,14.79,0.93,-0.93,-0.68,-0.73,13.86,13.86,13.86
25.14,14.81,0.96,14.81,0.95,-0.95,-0.69,-0.75,13.86,13.86,13.85
25.39,14.82,0.97,14.82,0.97,-0.97,-0.71,-0.77,13.85,13.85,13.85
25.65,14.84,0.99,14.84,0.98,-0.98,-0.72,-0.79,13.86,13.85,13.85
25.91,14.85,1.00,14.85,1.00,-1.00,-0.73,-0.81,13.85,13.85,13.85
26.16,14.87,1.01,14.87,1.02,-1.02,-0.75,-0.83,13.85,13.85,13.86
26.43,14.88,1.03,14.88,1.03,-1.03,-0.76,-0.84,13.85,13.85,13.85
26.69,14.89,1.04,14.89,1.04,-1.04,-0.78,-0.86,13.85,13.85,13.85
26.96,14.91,1.06,14.91,1.06,-1.06,-0.79,-0.88,13.85,13.85,13.85
27.23,14.92,1.07,14.92,1.07,-1.07,-0.80,-0.90,13.85,13.85,13.85
27.50,14.93,1.09,14.93,1.08,-1.08,-0.82,-0.92,13.85,13.85,13.84
27.77,14.94,1.09,14.94,1.09,-1.09,-0.83,-0.94,13.85,13.85,13.85
28.05,14.95,1.10,14.95,1.10,-1.10,-0.85,-0.96,13.85,13.85,13.85
28.33,14.96,1.10,14.96,1.11,-1.11,-0.86,-0.98,13.85,13.85,13.86
28.62,14.97,1.12,14.97,1.12,-1.12,-0.88,-1.00,13.85,13.85,13.85
28.90,14.99,1.13,14.98,1.13,-1.13,-0.90,-1.02,13.86,13.85,13.86
29.19,15.00,1.14,14.99,1.14,-1.14,-0.91,-1.04,13.86,13.85,13.86
29.48,15.00,1.15,15.00,1.15,-1.15,-0.93,-1.05,13.85,13.85,13.85
29.78,15.01,1.16,15.01,1.16,-1.16,-0.95,-1.07,13.85,13.85,13.85
30.08,15.02,1.17,15.01,1.17,-1.17,-0.96,-1.09,13.85,13.84,13.85
30.38,15.02,1.19,15.02,1.18,-1.18,-0.98,-1.11,13.84,13.84,13.83
30.68,15.03,1.20,15.02,1.19,-1.19,-1.00,-1.12,13.84,13.83,13.83
30.99,15.03,1.20,15.03,1.20,-1.20,-1.02,-1.14,13.83,13.83,13.83
31.30,15.03,1.21,15.03,1.21,-1.21,-1.03,-1.16,13.82,13.82,13.82
31.61,15.03,1.21,15.03,1.22,-1.22,-1.05,-1.17,13.81,13.81,13.82
31.93,15.03,1.24,15.04,1.23,-1.23,-1.07,-1.19,13.80,13.80,13.79
32.24,15.03,1.23,15.04,1.24,-1.24,-1.09,-1.20,13.79,13.80,13.80
32.57,15.04,1.26,15.04,1.25,-1.25,-1.11,-1.22,13.79,13.79,13.78
32.89,15.04,1.26,15.04,1.26,-1.26,-1.13,-1.23,13.78,13.78,13.78
33.22,15.04,1.27,15.04,1.26,-1.26,-1.15,-1.25,13.78,13.77,13.77
33.55,15.04,1.27,15.04,1.27,-1.27,-1.17,-1.26,13.77,13.76,13.77
33.89,15.04,1.29,15.03,1.28,-1.28,-1.19,-1.27,13.76,13.76,13.75
34.23,15.04,1.30,15.03,1.28,-1.28,-1.21,-1.29,13.75,13.75,13.74
34.57,15.03,1.30,15.03,1.29,-1.29,-1.23,-1.30,13.74,13.74,13.73
34.92,15.03,1.31,15.03,1.30,-1.30,-1.25,-1.32,13.73,13.72,13.72
35.27,15.02,1.29,15.02,1.31,-1.31,-1.28,-1.33,13.71,13.71,13.73
35.62,15.02,1.32,15.02,1.32,-1.32,-1.30,-1.35,13.70,13.70,13.70
35.97,15.01,1.31,15.02,1.33,-1.33,-1.32,-1.36,13.68,13.69,13.69
36.33,15.01,1.33,15.01,1.35,-1.35,-1.34,-1.38,13.66,13.67,13.68
36.70,15.01,1.36,15.01,1.36,-1.36,-1.37,-1.39,13.65,13.65,13.65
37.06,15.01,1.38,15.01,1.38,-1.38,-1.39,-1.41,13.63,13.63,13.63
37.43,15.01,1.39,15.01,1.39,-1.39,-1.41,-1.43,13.61,13.61,13.61
37.81,15.01,1.41,15.01,1.41,-1.41,-1.44,-1.44,13.59,13.59,13.60
38.19,15.01,1.44,15.01,1.44,-1.44,-1.46,-1.46,13.57,13.57,13.57
38.57,15.01,1.46,15.01,1.46,-1.46,-1.49,-1.48,13.55,13.55,13.55
38.95,15.01,1.48,15.01,1.48,-1.48,-1.51,-1.50,13.53,13.52,13.53
39.34,15.01,1.51,15.01,1.51,-1.51,-1.54,-1.53,13.50,13.50,13.50
39.74,15.01,1.54,15.01,1.53,-1.53,-1.56,-1.55,13.48,13.48,13.47
40.14,15.01,1.56,15.01,1.56,-1.56,-1.59,-1.57,13.45,13.45,13.45
40.54,15.01,1.58,15.01,1.58,-1.58,-1.62,-1.60,13.43,13.43,13.43
40.94,15.01,1.61,15.01,1.61,-1.61,-1.64,-1.62,13.40,13.40,13.40
41.35,15.01,1.63,15.01,1.63,-1.63,-1.67,-1.65,13.38,13.38,13.37
41.76,15.01,1.67,15.01,1.66,-1.66,-1.70,-1.68,13.35,13.35,13.34
42.18,15.01,1.68,15.01,1.68,-1.68,-1.73,-1.71,13.32,13.32,13.33
42.60,15.01,1.71,15.01,1.71,-1.71,-1.75,-1.74,13.30,13.30,13.30
43.03,15.01,1.74,15.01,1.74,-1.74,-1.78,-1.77,13.27,13.27,13.27
43.46,15.01,1.77,15.01,1.77,-1.77,-1.81,-1.81,13.24,13.24,13.24
43.90,15.01,1.79,15.01,1.79,-1.79,-1.84,-1.84,13.21,13.21,13.22
44.33,15.01,1.83,15.01,1.83,-1.83,-1.87,-1.88,13.18,13.18,13.18
44.78,15.01,1.85,15.01,1.86,-1.86,-1.90,-1.92,13.15,13.15,13.15
45.23,15.01,1.88,15.01,1.89,-1.89,-1.93,-1.95,13.12,13.12,13.13
45.68,15.01,1.93,15.01,1.93,-1.93,-1.96,-2.00,13.08,13.08,13.08
46.13,15.01,1.97,15.01,1.97,-1.97,-2.00,-2.04,13.04,13.04,13.04
46.60,15.01,2.00,15.01,2.00,-2.00,-2.03,-2.08,13.00,13.00,13.01
47.06,15.01,2.04,15.01,2.05,-2.05,-2.06,-2.13,12.96,12.96,12.97
47.53,15.01,2.08,15.01,2.09,-2.09,-2.09,-2.17,12.92,12.92,12.93
48.01,15.01,2.14,15.01,2.14,-2.14,-2.12,-2.22,12.87,12.87,12.87
48.49,15.01,2.18,15.01,2.18,-2.18,-2.16,-2.27,12.82,12.83,12.83
48.97,15.01,2.23,15.02,2.23,-2.23,-2.19,-2.32,12.78,12.78,12.78
49.46,15.01,2.28,15.02,2.28,-2.28,-2.23,-2.37,12.73,12.74,12.73
49.96,15.01,2.34,15.02,2.33,-2.33,-2.26,-2.42,12.68,12.69,12.67
50.46,15.02,2.38,15.02,2.38,-2.38,-2.30,-2.47,12.64,12.64,12.64
50.96,15.03,2.44,15.03,2.43,-2.43,-2.33,-2.52,12.60,12.59,12.59
51.47,15.03,2.48,15.03,2.48,-2.48,-2.37,-2.58,12.55,12.55,12.55
51.99,15.04,2.55,15.03,2.53,-2.53,-2.40,-2.63,12.51,12.50,12.49
52.51,15.04,2.58,15.03,2.58,-2.58,-2.44,-2.68,12.46,12.45,12.46
53.03,15.04,2.62,15.03,2.63,-2.63,-2.48,-2.74,12.41,12.41,12.42
53.56,15.03,2.66,15.03,2.67,-2.67,-2.51,-2.79,12.36,12.36,12.37
54.10,15.03,2.72,15.03,2.71,-2.71,-2.55,-2.85,12.32,12.31,12.31
54.64,15.02,2.75,15.02,2.75,-2.75,-2.59,-2.90,12.27,12.27,12.27
55.18,15.02,2.80,15.01,2.79,-2.79,-2.63,-2.95,12.23,12.23,12.22
55.74,15.01,2.84,15.00,2.82,-2.82,-2.66,-3.01,12.19,12.18,12.17
56.29,14.99,2.86,14.99,2.86,-2.86,-2.70,-3.06,12.13,12.14,12.13
56.86,14.98,2.89,14.98,2.89,-2.89,-2.74,-3.11,12.09,12.09,12.09
57.42,14.97,2.94,14.96,2.92,-2.92,-2.78,-3.16,12.05,12.04,12.03
58.00,14.95,2.96,14.95,2.95,-2.95,-2.82,-3.20,12.00,11.99,11.99
58.58,14.93,2.98,14.93,2.99,-2.99,-2.86,-3.25,11.94,11.94,11.95
59.16,14.91,3.00,14.91,3.02,-3.02,-2.90,-3.29,11.89,11.89,11.91
59.76,14.89,3.03,14.89,3.06,-3.06,-2.95,-3.33,11.83,11.83,11.86
60.35,14.87,3.07,14.87,3.09,-3.09,-2.99,-3.37,11.78,11.78,11.80
60.96,14.85,3.11,14.85,3.13,-3.13,-3.03,-3.41,11.72,11.72,11.74
61.57,14.83,3.17,14.83,3.17,-3.17,-3.07,-3.44,11.66,11.66,11.66
62.18,14.81,3.21,14.82,3.21,-3.21,-3.11,-3.47,11.60,11.60,11.60
62.80,14.79,3.26,14.80,3.26,-3.26,-3.16,-3.50,11.53,11.54,11.53
63.43,14.78,3.31,14.78,3.30,-3.30,-3.20,-3.53,11.48,11.48,11.46
64.07,14.76,3.35,14.76,3.34,-3.34,-3.24,-3.55,11.42,11.42,11.41
64.71,14.75,3.40,14.75,3.39,-3.39,-3.29,-3.57,11.36,11.35,11.35
65.35,14.73,3.44,14.73,3.44,-3.44,-3.33,-3.59,11.29,11.29,11.29
66.01,14.72,3.50,14.71,3.49,-3.49,-3.38,-3.61,11.23,11.23,11.22
66.67,14.70,3.53,14.70,3.54,-3.54,-3.42,-3.62,11.16,11.16,11.17
67.33,14.68,3.58,14.68,3.58,-3.58,-3.47,-3.64,11.10,11.10,11.10
68.01,14.66,3.62,14.67,3.63,-3.63,-3.51,-3.65,11.03,11.03,11.04
68.69,14.65,3.68,14.65,3.68,-3.68,-3.56,-3.66,10.97,10.97,10.97
69.37,14.63,3.71,14.63,3.73,-3.73,-3.60,-3.67,10.90,10.90,10.91
70.07,14.62,3.77,14.61,3.78,-3.78,-3.65,-3.68,10.84,10.84,10.84
70.77,14.60,3.83,14.60,3.82,-3.82,-3.70,-3.69,10.78,10.77,10.77
71.48,14.59,3.88,14.58,3.87,-3.87,-3.74,-3.70,10.72,10.70,10.71
72.19,14.56,3.92,14.56,3.92,-3.92,-3.79,-3.71,10.64,10.64,10.64
72.91,14.54,3.98,14.54,3.97,-3.97,-3.84,-3.72,10.57,10.57,10.56
73.64,14.52,4.02,14.52,4.02,-4.02,-3.89,-3.73,10.50,10.50,10.50
74.38,14.50,4.07,14.50,4.06,-4.06,-3.93,-3.74,10.44,10.44,10.43
75.12,14.48,4.11,14.48,4.11,-4.11,-3.98,-3.75,10.37,10.37,10.37
75.87,14.46,4.15,14.46,4.15,-4.15,-4.03,-3.77,10.31,10.31,10.31
76.63,14.44,4.20,14.44,4.19,-4.19,-4.08,-3.78,10.25,10.25,10.24
77.40,14.42,4.23,14.42,4.24,-4.24,-4.13,-3.80,10.18,10.18,10.19
78.17,14.40,4.29,14.40,4.28,-4.28,-4.18,-3.82,10.12,10.12,10.11
78.95,14.38,4.31,14.38,4.32,-4.32,-4.22,-3.84,10.06,10.06,10.07
79.74,14.36,4.36,14.36,4.36,-4.36,-4.27,-3.86,10.00,10.00,10.00
80.54,14.33,4.39,14.34,4.40,-4.40,-4.32,-3.89,9.93,9.94,9.94
81.35,14.31,4.44,14.32,4.44,-4.44,-4.37,-3.92,9.87,9.88,9.87
82.16,14.29,4.46,14.30,4.48,-4.48,-4.42,-3.95,9.81,9.81,9.82
82.98,14.27,4.52,14.27,4.52,-4.52,-4.47,-3.98,9.75,9.75,9.75
83.81,14.25,4.56,14.25,4.56,-4.56,-4.52,-4.02,9.68,9.69,9.69
84.65,14.23,4.61,14.23,4.60,-4.60,-4.57,-4.06,9.62,9.62,9.62
85.50,14.21,4.65,14.20,4.64,-4.64,-4.62,-4.10,9.57,9.56,9.55
86.35,14.18,4.69,14.17,4.68,-4.68,-4.67,-4.15,9.50,9.49,9.49
87.22,14.16,4.74,14.15,4.72,-4.72,-4.72,-4.20,9.44,9.43,9.42
88.09,14.14,4.78,14.12,4.76,-4.76,-4.77,-4.25,9.38,9.36,9.36
88.97,14.10,4.81,14.09,4.80,-4.80,-4.82,-4.31,9.30,9.29,9.29
89.86,14.07,4.85,14.07,4.85,-4.85,-4.86,-4.37,9.22,9.22,9.22
90.76,14.03,4.88,14.04,4.89,-4.89,-4.91,-4.43,9.14,9.15,9.15
91.66,13.99,4.92,14.01,4.93,-4.93,-4.96,-4.49,9.05,9.08,9.07
92.58,13.96,4.95,13.98,4.98,-4.98,-5.01,-4.56,8.98,9.00,9.01
93.51,13.93,4.99,13.95,5.02,-5.02,-5.06,-4.63,8.91,8.93,8.94
94.44,13.91,5.04,13.92,5.06,-5.06,-5.11,-4.71,8.85,8.86,8.87
95.39,13.89,5.10,13.88,5.10,-5.10,-5.16,-4.79,8.79,8.78,8.78
96.34,13.87,5.16,13.85,5.14,-5.14,-5.21,-4.87,8.73,8.71,8.71
97.30,13.85,5.21,13.82,5.18,-5.18,-5.25,-4.95,8.67,8.64,8.64
98.28,13.81,5.26,13.78,5.22,-5.22,-5.30,-5.04,8.59,8.56,8.55
99.26,13.76,5.28,13.75,5.26,-5.26,-5.35,-5.13,8.50,8.49,8.48
100.25,13.72,5.31,13.72,5.30,-5.30,-5.40,-5.22,8.41,8.42,8.41
101.25,13.67,5.33,13.69,5.35,-5.35,-5.44,-5.31,8.32,8.35,8.34
102.27,13.63,5.35,13.66,5.39,-5.39,-5.49,-5.40,8.24,8.28,8.28
103.29,13.61,5.41,13.63,5.42,-5.42,-5.54,-5.50,8.19,8.21,8.20
104.32,13.58,5.44,13.59,5.46,-5.46,-5.58,-5.59,8.12,8.14,8.13
105.37,13.55,5.48,13.56,5.49,-5.49,-5.63,-5.69,8.06,8.07,8.07
106.42,13.54,5.54,13.52,5.53,-5.53,-5.67,-5.78,8.01,8.00,8.00
107.48,13.52,5.59,13.49,5.56,-5.56,-5.72,-5.88,7.96,7.93,7.93
108.56,13.49,5.63,13.46,5.60,-5.60,-5.76,-5.97,7.89,7.86,7.86
109.64,13.44,5.64,13.43,5.64,-5.64,-5.80,-6.06,7.79,7.79,7.80
110.74,13.40,5.68,13.40,5.69,-5.69,-5.85,-6.15,7.71,7.72,7.72
111.85,13.36,5.71,13.37,5.73,-5.73,-5.89,-6.24,7.63,7.65,7.65
112.97,13.32,5.74,13.34,5.77,-5.77,-5.93,-6.33,7.55,7.57,7.58
114.10,13.28,5.77,13.31,5.81,-5.81,-5.97,-6.41,7.47,7.50,7.51
115.24,13.27,5.84,13.27,5.84,-5.84,-6.01,-6.48,7.43,7.43,7.43
116.39,13.26,5.91,13.24,5.87,-5.87,-6.05,-6.55,7.38,7.36,7.35
117.55,13.23,5.95,13.20,5.91,-5.91,-6.09,-6.62,7.32,7.29,7.28
118.73,13.19,5.98,13.16,5.94,-5.94,-6.12,-6.68,7.25,7.22,7.21
119.92,13.13,5.98,13.13,5.97,-5.97,-6.16,-6.73,7.16,7.15,7.15
121.12,13.08,5.99,13.09,6.01,-6.01,-6.20,-6.77,7.07,7.08,7.09
122.33,13.05,6.03,13.05,6.04,-6.04,-6.23,-6.81,7.01,7.01,7.02
123.55,13.01,6.05,13.01,6.07,-6.07,-6.27,-6.84,6.94,6.95,6.96
124.79,12.96,6.07,12.97,6.09,-6.09,-6.30,-6.86,6.86,6.88,6.89
126.03,12.92,6.10,12.93,6.12,-6.12,-6.33,-6.87,6.80,6.81,6.82
127.29,12.89,6.14,12.89,6.15,-6.15,-6.36,-6.87,6.74,6.74,6.75
128.57,12.86,6.18,12.85,6.17,-6.17,-6.39,-6.87,6.69,6.68,6.68
129.85,12.82,6.21,12.80,6.20,-6.20,-6.42,-6.86,6.62,6.61,6.61
131.15,12.76,6.22,12.76,6.22,-6.22,-6.45,-6.84,6.54,6.54,6.54
132.46,12.72,6.25,12.72,6.25,-6.25,-6.48,-6.82,6.47,6.47,6.47
133.79,12.68,6.28,12.68,6.27,-6.27,-6.50,-6.79,6.41,6.41,6.40
135.12,12.63,6.29,12.64,6.30,-6.30,-6.53,-6.75,6.33,6.34,6.34
136.48,12.60,6.32,12.60,6.32,-6.32,-6.55,-6.71,6.28,6.28,6.28
137.84,12.55,6.34,12.55,6.34,-6.34,-6.57,-6.66,6.21,6.21,6.21
139.22,12.52,6.38,12.51,6.36,-6.36,-6.59,-6.61,6.16,6.15,6.14
140.61,12.48,6.39,12.47,6.38,-6.38,-6.61,-6.55,6.10,6.09,6.09
142.02,12.41,6.39,12.42,6.39,-6.39,-6.63,-6.50,6.02,6.03,6.02
143.44,12.38,6.41,12.38,6.41,-6.41,-6.65,-6.44,5.97,5.97,5.97
144.87,12.33,6.42,12.33,6.42,-6.42,-6.66,-6.38,5.91,5.91,5.91
146.32,12.29,6.44,12.29,6.43,-6.43,-6.68,-6.32,5.86,5.86,5.85
147.78,12.24,6.44,12.24,6.44,-6.44,-6.69,-6.25,5.79,5.80,5.80
149.26,12.20,6.46,12.20,6.45,-6.45,-6.70,-6.19,5.74,5.74,5.74
150.75,12.15,6.46,12.15,6.47,-6.47,-6.71,-6.13,5.68,5.69,5.68
152.26,12.11,6.47,12.11,6.48,-6.48,-6.72,-6.07,5.63,5.63,5.64
153.78,12.07,6.49,12.07,6.49,-6.49,-6.72,-6.02,5.58,5.58,5.58
155.32,12.03,6.50,12.02,6.49,-6.49,-6.73,-5.96,5.54,5.53,5.53
156.88,11.97,6.49,11.97,6.50,-6.50,-6.73,-5.91,5.47,5.47,5.48
158.44,11.92,6.50,11.92,6.51,-6.51,-6.73,-5.86,5.41,5.42,5.41
160.03,11.85,6.48,11.87,6.51,-6.51,-6.73,-5.81,5.33,5.36,5.36
161.63,11.83,6.52,11.82,6.52,-6.52,-6.73,-5.77,5.31,5.30,5.31
163.24,11.80,6.55,11.77,6.52,-6.52,-6.73,-5.73,5.27,5.25,5.25
164.88,11.74,6.55,11.72,6.53,-6.53,-6.73,-5.69,5.21,5.19,5.19
166.53,11.68,6.55,11.67,6.53,-6.53,-6.72,-5.66,5.15,5.13,5.13
168.19,11.62,6.54,11.62,6.54,-6.54,-6.71,-5.63,5.08,5.08,5.08
169.87,11.55,6.53,11.56,6.54,-6.54,-6.71,-5.61,5.01,5.02,5.02
171.57,11.49,6.53,11.51,6.55,-6.55,-6.70,-5.58,4.94,4.96,4.96
173.29,11.45,6.54,11.46,6.55,-6.55,-6.68,-5.57,4.90,4.91,4.91
175.02,11.40,6.55,11.40,6.56,-6.56,-6.67,-5.56,4.84,4.85,4.85
176.77,11.35,6.56,11.35,6.56,-6.56,-6.66,-5.55,4.79,4.79,4.79
178.54,11.29,6.55,11.30,6.56,-6.56,-6.64,-5.54,4.73,4.74,4.74
180.32,11.25,6.58,11.24,6.56,-6.56,-6.62,-5.54,4.69,4.68,4.67
182.13,11.20,6.57,11.19,6.56,-6.56,-6.60,-5.55,4.64,4.63,4.63
183.95,11.13,6.55,11.14,6.56,-6.56,-6.58,-5.56,4.56,4.57,4.58
185.79,11.09,6.57,11.08,6.57,-6.57,-6.56,-5.57,4.52,4.52,4.52
187.65,11.04,6.57,11.03,6.57,-6.57,-6.54,-5.59,4.47,4.47,4.47
189.52,10.98,6.56,10.98,6.56,-6.56,-6.51,-5.61,4.42,4.41,4.42
191.42,10.91,6.54,10.92,6.56,-6.56,-6.49,-5.63,4.35,4.36,4.37
193.33,10.86,6.54,10.86,6.55,-6.55,-6.46,-5.66,4.31,4.32,4.32
195.27,10.81,6.54,10.81,6.54,-6.54,-6.43,-5.69,4.27,4.27,4.27
197.22,10.76,6.55,10.75,6.52,-6.52,-6.40,-5.73,4.24,4.22,4.21
199.19,10.70,6.52,10.69,6.51,-6.51,-6.37,-5.76,4.19,4.18,4.18
201.18,10.63,6.50,10.63,6.49,-6.49,-6.33,-5.80,4.14,4.14,4.12
203.19,10.57,6.48,10.57,6.47,-6.47,-6.30,-5.85,4.10,4.10,4.09
205.23,10.50,6.44,10.51,6.45,-6.45,-6.26,-5.89,4.05,4.06,4.06
207.28,10.44,6.42,10.45,6.43,-6.43,-6.23,-5.94,4.01,4.02,4.02
209.35,10.38,6.40,10.39,6.41,-6.41,-6.19,-5.98,3.97,3.98,3.98
211.44,10.32,6.37,10.33,6.38,-6.38,-6.15,-6.03,3.94,3.94,3.95
213.56,10.26,6.34,10.26,6.35,-6.35,-6.11,-6.08,3.91,3.91,3.92
215.69,10.20,6.32,10.20,6.32,-6.32,-6.07,-6.13,3.88,3.88,3.88
217.85,10.13,6.28,10.14,6.29,-6.29,-6.03,-6.17,3.84,3.85,3.85
220.03,10.09,6.28,10.07,6.26,-6.26,-5.98,-6.22,3.83,3.81,3.81
222.23,10.03,6.25,10.01,6.22,-6.22,-5.94,-6.26,3.80,3.79,3.78
224.45,9.96,6.20,9.95,6.19,-6.19,-5.89,-6.30,3.77,3.76,3.76
226.70,9.88,6.16,9.88,6.16,-6.16,-5.85,-6.34,3.72,3.73,3.72
228.96,9.81,6.10,9.82,6.12,-6.12,-5.80,-6.37,3.69,3.70,3.71
231.25,9.76,6.08,9.76,6.08,-6.08,-5.75,-6.40,3.68,3.68,3.68
233.57,9.69,6.03,9.70,6.03,-6.03,-5.70,-6.42,3.65,3.66,3.66
235.90,9.62,5.98,9.63,5.99,-5.99,-5.65,-6.44,3.63,3.64,3.64
238.26,9.57,5.96,9.57,5.95,-5.95,-5.60,-6.45,3.62,3.62,3.61
240.64,9.50,5.88,9.51,5.90,-5.90,-5.55,-6.45,3.60,3.61,3.61
243.05,9.45,5.85,9.44,5.85,-5.85,-5.50,-6.45,3.60,3.60,3.60
245.48,9.39,5.81,9.38,5.80,-5.80,-5.44,-6.44,3.59,3.58,3.58
247.93,9.32,5.76,9.32,5.75,-5.75,-5.39,-6.42,3.57,3.57,3.56
250.41,9.27,5.70,9.26,5.69,-5.69,-5.33,-6.39,3.57,3.57,3.57
252.92,9.19,5.63,9.20,5.64,-5.64,-5.28,-6.35,3.55,3.56,3.56
255.45,9.13,5.58,9.14,5.59,-5.59,-5.22,-6.31,3.54,3.55,3.55
258.00,9.08,5.54,9.07,5.53,-5.53,-5.17,-6.26,3.55,3.54,3.54
260.58,9.02,5.48,9.01,5.48,-5.48,-5.11,-6.19,3.54,3.54,3.54
263.19,8.96,5.42,8.95,5.42,-5.42,-5.05,-6.13,3.54,3.53,3.54
265.82,8.88,5.35,8.88,5.36,-5.36,-4.99,-6.05,3.52,3.52,3.52
268.48,8.81,5.29,8.82,5.30,-5.30,-4.93,-5.97,3.51,3.52,3.52
271.16,8.76,5.24,8.75,5.24,-5.24,-4.87,-5.88,3.52,3.51,3.52
273.87,8.68,5.17,8.69,5.18,-5.18,-4.81,-5.79,3.50,3.51,3.51
276.61,8.62,5.11,8.62,5.11,-5.11,-4.75,-5.69,3.51,3.50,3.51
279.38,8.55,5.06,8.55,5.05,-5.05,-4.69,-5.58,3.50,3.50,3.49
282.17,8.48,4.99,8.48,4.98,-4.98,-4.63,-5.47,3.50,3.50,3.49
284.99,8.42,4.92,8.41,4.91,-4.91,-4.57,-5.36,3.51,3.50,3.50
287.84,8.34,4.84,8.34,4.84,-4.84,-4.51,-5.25,3.50,3.50,3.50
290.72,8.27,4.78,8.27,4.77,-4.77,-4.45,-5.13,3.50,3.50,3.49
293.63,8.19,4.69,8.19,4.70,-4.70,-4.38,-5.02,3.49,3.50,3.50
296.57,8.12,4.62,8.12,4.62,-4.62,-4.32,-4.90,3.50,3.50,3.50
299.53,8.05,4.55,8.05,4.55,-4.55,-4.26,-4.78,3.50,3.50,3.50
302.53,7.98,4.46,7.98,4.47,-4.47,-4.19,-4.66,3.51,3.51,3.52
305.55,7.90,4.39,7.90,4.39,-4.39,-4.13,-4.54,3.51,3.51,3.51
308.61,7.82,4.30,7.83,4.31,-4.31,-4.06,-4.42,3.51,3.52,3.52
311.69,7.75,4.23,7.75,4.23,-4.23,-4.00,-4.30,3.52,3.52,3.52
314.81,7.68,4.15,7.68,4.15,-4.15,-3.94,-4.19,3.53,3.53,3.53
317.96,7.61,4.08,7.60,4.07,-4.07,-3.87,-4.07,3.54,3.53,3.53
321.14,7.53,3.99,7.53,3.99,-3.99,-3.81,-3.96,3.54,3.54,3.54
324.35,7.45,3.91,7.45,3.90,-3.90,-3.74,-3.84,3.55,3.55,3.54
327.59,7.37,3.81,7.37,3.82,-3.82,-3.67,-3.73,3.55,3.55,3.56
330.87,7.30,3.74,7.30,3.74,-3.74,-3.61,-3.62,3.56,3.56,3.56
334.18,7.22,3.66,7.22,3.66,-3.66,-3.54,-3.52,3.56,3.56,3.56
337.52,7.14,3.57,7.15,3.58,-3.58,-3.48,-3.41,3.56,3.57,3.57
340.90,7.07,3.49,7.07,3.49,-3.49,-3.41,-3.31,3.58,3.58,3.58
344.30,7.00,3.41,6.99,3.41,-3.41,-3.35,-3.21,3.59,3.58,3.59
347.75,6.92,3.33,6.91,3.32,-3.32,-3.28,-3.11,3.60,3.59,3.59
351.23,6.84,3.25,6.84,3.24,-3.24,-3.21,-3.02,3.60,3.60,3.59
354.74,6.77,3.16,6.76,3.16,-3.16,-3.15,-2.93,3.61,3.60,3.61
358.28,6.69,3.08,6.68,3.07,-3.07,-3.08,-2.83,3.62,3.61,3.61
361.87,6.62,3.00,6.61,2.99,-2.99,-3.01,-2.75,3.63,3.62,3.62
365.49,6.53,2.91,6.53,2.91,-2.91,-2.95,-2.66,3.62,3.62,3.62
369.14,6.45,2.81,6.46,2.83,-2.83,-2.88,-2.58,3.62,3.63,3.64
372.83,6.38,2.73,6.39,2.75,-2.75,-2.81,-2.49,3.63,3.64,3.64
376.56,6.31,2.67,6.32,2.67,-2.67,-2.75,-2.41,3.64,3.65,3.64
380.33,6.25,2.60,6.25,2.60,-2.60,-2.68,-2.34,3.65,3.66,3.65
384.13,6.19,2.52,6.19,2.52,-2.52,-2.61,-2.26,3.67,3.66,3.66
387.97,6.12,2.45,6.12,2.45,-2.45,-2.54,-2.19,3.67,3.67,3.67
391.85,6.06,2.38,6.06,2.38,-2.38,-2.48,-2.11,3.68,3.68,3.68
395.77,6.00,2.31,6.00,2.31,-2.31,-2.41,-2.04,3.69,3.69,3.69
399.73,5.94,2.25,5.95,2.25,-2.25,-2.34,-1.97,3.69,3.70,3.69
403.72,5.89,2.17,5.89,2.19,-2.19,-2.28,-1.91,3.70,3.71,3.72
407.76,5.85,2.13,5.84,2.12,-2.12,-2.21,-1.84,3.72,3.72,3.72
411.84,5.80,2.07,5.79,2.06,-2.06,-2.14,-1.78,3.73,3.73,3.73
415.96,5.75,2.01,5.74,2.01,-2.01,-2.07,-1.72,3.74,3.74,3.74
420.12,5.68,1.94,5.69,1.95,-1.95,-2.01,-1.65,3.73,3.74,3.74
424.32,5.64,1.89,5.64,1.89,-1.89,-1.94,-1.59,3.75,3.75,3.75
428.56,5.60,1.83,5.60,1.84,-1.84,-1.87,-1.53,3.76,3.76,3.77
432.85,5.56,1.78,5.55,1.78,-1.78,-1.81,-1.48,3.78,3.77,3.78
437.18,5.50,1.73,5.50,1.72,-1.72,-1.74,-1.42,3.78,3.78,3.77
441.55,5.45,1.67,5.45,1.66,-1.66,-1.67,-1.36,3.78,3.79,3.78
445.96,5.39,1.60,5.40,1.61,-1.61,-1.60,-1.31,3.78,3.79,3.79
450.42,5.35,1.55,5.35,1.55,-1.55,-1.54,-1.25,3.80,3.80,3.80
454.93,5.31,1.50,5.30,1.49,-1.49,-1.47,-1.19,3.82,3.81,3.81
459.48,5.26,1.44,5.25,1.43,-1.43,-1.40,-1.14,3.83,3.82,3.82
464.07,5.20,1.37,5.19,1.37,-1.37,-1.33,-1.09,3.83,3.83,3.83
468.71,5.14,1.30,5.14,1.30,-1.30,-1.27,-1.03,3.84,3.84,3.84
