frequency,raw,error,smoothed,error_smoothed,equalization,parametric_eq,fixed_band_eq,equalized_raw,equalized_smoothed,target
20.00,3.31,-3.41,3.31,-3.41,3.40,2.78,1.32,6.71,6.71,6.71
20.20,3.33,-3.38,3.33,-3.38,3.37,2.78,1.36,6.70,6.70,6.70
20.40,3.35,-3.35,3.35,-3.34,3.34,2.78,1.40,6.69,6.69,6.69
20.61,3.38,-3.31,3.37,-3.31,3.31,2.78,1.45,6.69,6.68,6.68
20.81,3.40,-3.27,3.40,-3.27,3.28,2.78,1.49,6.68,6.68,6.66
21.02,3.42,-3.24,3.42,-3.24,3.25,2.77,1.53,6.67,6.67,6.65
21.23,3.44,-3.21,3.44,-3.21,3.22,2.77,1.58,6.65,6.65,6.64
21.44,3.46,-3.20,3.46,-3.19,3.18,2.77,1.63,6.64,6.64,6.65
21.66,3.48,-3.16,3.48,-3.16,3.15,2.77,1.68,6.63,6.63,6.63
21.87,3.51,-3.13,3.50,-3.13,3.12,2.77,1.73,6.63,6.62,6.63
22.09,3.53,-3.09,3.53,-3.09,3.09,2.76,1.78,6.61,6.61,6.61
22.31,3.55,-3.06,3.55,-3.05,3.05,2.76,1.83,6.60,6.60,6.60
22.54,3.58,-3.02,3.58,-3.02,3.02,2.76,1.88,6.60,6.60,6.59
22.76,3.61,-2.99,3.61,-2.98,2.98,2.76,1.94,6.59,6.59,6.59
22.99,3.64,-2.95,3.63,-2.95,2.95,2.76,2.00,6.59,6.59,6.58
23.22,3.66,-2.92,3.66,-2.92,2.92,2.75,2.05,6.58,6.58,6.57
23.45,3.68,-2.91,3.68,-2.90,2.90,2.75,2.11,6.58,6.58,6.58
23.69,3.70,-2.88,3.70,-2.88,2.88,2.75,2.17,6.58,6.58,6.57
23.92,3.72,-2.85,3.71,-2.86,2.87,2.75,2.24,6.58,6.58,6.56
24.16,3.72,-2.86,3.72,-2.85,2.86,2.75,2.30,6.57,6.58,6.57
24.40,3.72,-2.86,3.72,-2.85,2.85,2.74,2.36,6.57,6.57,6.57
24.65,3.72,-2.85,3.72,-2.85,2.85,2.74,2.43,6.57,6.56,6.56
24.89,3.71,-2.86,3.71,-2.85,2.85,2.74,2.49,6.56,6.56,6.56
25.14,3.71,-2.85,3.70,-2.85,2.85,2.74,2.56,6.56,6.56,6.55
25.39,3.70,-2.86,3.70,-2.85,2.85,2.73,2.62,6.55,6.55,6.55
25.65,3.70,-2.86,3.70,-2.86,2.86,2.73,2.69,6.55,6.55,6.55
25.91,3.70,-2.86,3.70,-2.86,2.86,2.73,2.76,6.55,6.55,6.55
26.16,3.70,-2.87,3.70,-2.86,2.86,2.73,2.82,6.56,6.56,6.56
26.43,3.70,-2.86,3.70,-2.86,2.86,2.72,2.89,6.56,6.56,6.55
26.69,3.70,-2.86,3.70,-2.86,2.86,2.72,2.95,6.56,6.56,6.55
26.96,3.70,-2.86,3.70,-2.86,2.86,2.72,3.01,6.56,6.56,6.55
27.23,3.70,-2.86,3.70,-2.86,2.86,2.71,3.07,6.56,6.56,6.55
27.50,3.70,-2.86,3.70,-2.86,2.86,2.71,3.13,6.56,6.56,6.55
27.77,3.70,-2.87,3.70,-2.86,2.86,2.71,3.19,6.56,6.56,6.56
28.05,3.70,-2.86,3.70,-2.86,2.86,2.71,3.25,6.56,6.56,6.55
28.33,3.70,-2.87,3.70,-2.87,2.87,2.70,3.30,6.57,6.57,6.56
28.62,3.70,-2.87,3.70,-2.87,2.87,2.70,3.35,6.57,6.57,6.56
28.90,3.70,-2.88,3.70,-2.87,2.87,2.70,3.39,6.57,6.57,6.57
29.19,3.70,-2.88,3.70,-2.87,2.87,2.69,3.43,6.57,6.57,6.57
29.48,3.70,-2.87,3.70,-2.87,2.87,2.69,3.47,6.57,6.57,6.56
29.78,3.70,-2.87,3.70,-2.87,2.87,2.68,3.50,6.56,6.56,6.56
30.08,3.70,-2.87,3.70,-2.86,2.86,2.68,3.53,6.56,6.56,6.56
30.38,3.70,-2.85,3.70,-2.85,2.86,2.68,3.55,6.56,6.56,6.54
30.68,3.70,-2.85,3.70,-2.85,2.85,2.67,3.57,6.55,6.55,6.54
30.99,3.70,-2.85,3.70,-2.85,2.85,2.67,3.58,6.54,6.54,6.54
31.30,3.70,-2.85,3.70,-2.84,2.84,2.66,3.59,6.54,6.54,6.54
31.61,3.70,-2.84,3.70,-2.84,2.83,2.66,3.59,6.53,6.53,6.53
31.93,3.70,-2.82,3.70,-2.83,2.83,2.66,3.58,6.52,6.52,6.51
32.24,3.70,-2.83,3.70,-2.82,2.82,2.65,3.57,6.52,6.52,6.52
32.57,3.70,-2.81,3.70,-2.81,2.81,2.65,3.56,6.51,6.51,6.50
32.89,3.70,-2.81,3.70,-2.81,2.81,2.64,3.54,6.50,6.50,6.50
33.22,3.70,-2.80,3.70,-2.80,2.80,2.64,3.52,6.50,6.50,6.49
33.55,3.70,-2.80,3.70,-2.79,2.79,2.63,3.49,6.49,6.49,6.49
33.89,3.70,-2.79,3.70,-2.78,2.78,2.63,3.45,6.48,6.48,6.48
34.23,3.70,-2.77,3.70,-2.77,2.78,2.62,3.42,6.47,6.47,6.46
34.57,3.70,-2.77,3.70,-2.76,2.77,2.62,3.38,6.47,6.47,6.46
34.92,3.70,-2.75,3.70,-2.76,2.76,2.61,3.34,6.46,6.46,6.44
35.27,3.70,-2.77,3.70,-2.75,2.75,2.61,3.29,6.45,6.45,6.46
35.62,3.70,-2.74,3.70,-2.75,2.74,2.60,3.24,6.44,6.44,6.43
35.97,3.70,-2.74,3.70,-2.73,2.73,2.60,3.19,6.42,6.42,6.43
36.33,3.70,-2.72,3.70,-2.72,2.71,2.59,3.14,6.41,6.41,6.41
36.70,3.70,-2.70,3.70,-2.70,2.70,2.59,3.09,6.40,6.40,6.39
37.06,3.70,-2.68,3.70,-2.68,2.68,2.58,3.03,6.38,6.38,6.37
37.43,3.70,-2.66,3.70,-2.66,2.66,2.57,2.98,6.36,6.36,6.35
37.81,3.70,-2.65,3.70,-2.64,2.64,2.57,2.92,6.34,6.34,6.34
38.19,3.70,-2.62,3.70,-2.62,2.62,2.56,2.87,6.32,6.32,6.31
38.57,3.70,-2.60,3.70,-2.60,2.60,2.55,2.82,6.30,6.29,6.29
38.95,3.70,-2.59,3.70,-2.58,2.57,2.55,2.76,6.27,6.27,6.28
39.34,3.70,-2.56,3.70,-2.55,2.55,2.54,2.71,6.24,6.25,6.25
39.74,3.71,-2.52,3.70,-2.53,2.52,2.53,2.66,6.23,6.22,6.22
40.14,3.71,-2.50,3.71,-2.49,2.49,2.52,2.60,6.20,6.21,6.20
40.54,3.72,-2.47,3.72,-2.46,2.47,2.52,2.55,6.19,6.19,6.18
40.94,3.73,-2.43,3.72,-2.44,2.45,2.51,2.50,6.17,6.17,6.15
41.35,3.72,-2.43,3.72,-2.42,2.43,2.50,2.46,6.15,6.15,6.14
41.76,3.71,-2.41,3.71,-2.41,2.41,2.49,2.41,6.12,6.12,6.11
42.18,3.70,-2.41,3.69,-2.41,2.40,2.49,2.37,6.10,6.10,6.10
42.60,3.68,-2.40,3.68,-2.40,2.40,2.48,2.32,6.08,6.07,6.07
43.03,3.65,-2.41,3.65,-2.40,2.40,2.47,2.28,6.04,6.05,6.05
43.46,3.63,-2.39,3.63,-2.39,2.40,2.46,2.24,6.03,6.02,6.01
43.90,3.60,-2.40,3.60,-2.39,2.40,2.45,2.20,6.00,6.00,5.99
44.33,3.57,-2.40,3.57,-2.40,2.41,2.44,2.17,5.97,5.97,5.96
44.78,3.54,-2.41,3.53,-2.41,2.41,2.43,2.13,5.95,5.94,5.94
45.23,3.50,-2.43,3.50,-2.41,2.41,2.42,2.10,5.91,5.91,5.92
45.68,3.47,-2.41,3.47,-2.41,2.41,2.41,2.07,5.87,5.88,5.87
46.13,3.45,-2.40,3.44,-2.40,2.40,2.40,2.04,5.85,5.84,5.84
46.60,3.42,-2.39,3.42,-2.39,2.38,2.39,2.01,5.80,5.80,5.81
47.06,3.40,-2.38,3.40,-2.37,2.36,2.38,1.98,5.76,5.76,5.77
47.53,3.39,-2.35,3.39,-2.35,2.33,2.37,1.96,5.72,5.72,5.73
48.01,3.38,-2.31,3.38,-2.31,2.30,2.36,1.93,5.68,5.68,5.68
48.49,3.38,-2.27,3.38,-2.27,2.26,2.35,1.91,5.64,5.64,5.64
48.97,3.38,-2.22,3.38,-2.22,2.23,2.33,1.89,5.60,5.60,5.59
49.46,3.38,-2.19,3.38,-2.18,2.19,2.32,1.87,5.57,5.56,5.56
49.96,3.37,-2.14,3.37,-2.14,2.16,2.31,1.86,5.52,5.53,5.51
50.46,3.36,-2.12,3.36,-2.12,2.13,2.30,1.84,5.49,5.48,5.47
50.96,3.34,-2.10,3.34,-2.10,2.11,2.28,1.82,5.44,5.44,5.43
51.47,3.31,-2.09,3.31,-2.08,2.09,2.27,1.81,5.40,5.40,5.39
51.99,3.28,-2.07,3.28,-2.07,2.07,2.26,1.79,5.35,5.35,5.35
52.51,3.25,-2.07,3.25,-2.07,2.06,2.24,1.78,5.31,5.31,5.31
53.03,3.22,-2.07,3.22,-2.06,2.05,2.23,1.77,5.27,5.27,5.28
53.56,3.19,-2.05,3.19,-2.05,2.04,2.21,1.76,5.23,5.23,5.23
54.10,3.16,-2.03,3.16,-2.03,2.03,2.20,1.75,5.19,5.19,5.19
54.64,3.13,-2.02,3.13,-2.01,2.02,2.18,1.73,5.14,5.15,5.14
55.18,3.11,-2.00,3.11,-2.00,2.00,2.16,1.72,5.10,5.10,5.10
55.74,3.09,-1.97,3.09,-1.98,1.97,2.15,1.71,5.06,5.06,5.06
56.29,3.07,-1.97,3.07,-1.96,1.95,2.13,1.70,5.02,5.02,5.03
56.86,3.06,-1.94,3.06,-1.93,1.92,2.11,1.69,4.98,4.99,4.99
57.42,3.06,-1.89,3.05,-1.90,1.90,2.10,1.68,4.95,4.95,4.94
58.00,3.05,-1.86,3.05,-1.86,1.87,2.08,1.67,4.92,4.92,4.90
58.58,3.04,-1.84,3.04,-1.83,1.84,2.06,1.65,4.88,4.88,4.87
59.16,3.04,-1.81,3.03,-1.81,1.81,2.04,1.64,4.84,4.84,4.84
59.76,3.02,-1.78,3.02,-1.78,1.77,2.02,1.62,4.79,4.79,4.80
60.35,3.00,-1.75,3.00,-1.74,1.74,2.00,1.61,4.74,4.74,4.74
60.96,2.98,-1.71,2.97,-1.71,1.71,1.98,1.59,4.68,4.68,4.68
61.57,2.95,-1.68,2.95,-1.68,1.67,1.96,1.57,4.62,4.62,4.62
62.18,2.92,-1.65,2.92,-1.64,1.64,1.94,1.55,4.56,4.57,4.56
62.80,2.90,-1.61,2.90,-1.61,1.61,1.92,1.53,4.51,4.51,4.50
63.43,2.88,-1.58,2.87,-1.58,1.59,1.90,1.51,4.47,4.46,4.45
64.07,2.85,-1.56,2.85,-1.56,1.56,1.87,1.49,4.41,4.41,4.40
64.71,2.81,-1.55,2.81,-1.54,1.54,1.85,1.46,4.35,4.36,4.35
65.35,2.78,-1.52,2.78,-1.53,1.53,1.83,1.44,4.30,4.30,4.29
66.01,2.74,-1.51,2.74,-1.51,1.51,1.80,1.41,4.25,4.25,4.24
66.67,2.70,-1.51,2.70,-1.50,1.49,1.78,1.38,4.19,4.19,4.20
67.33,2.66,-1.48,2.66,-1.48,1.48,1.75,1.35,4.13,4.14,4.13
68.01,2.63,-1.46,2.63,-1.46,1.46,1.73,1.32,4.08,4.08,4.08
68.69,2.60,-1.44,2.60,-1.44,1.43,1.70,1.29,4.03,4.03,4.03
69.37,2.57,-1.42,2.57,-1.41,1.41,1.67,1.26,3.97,3.98,3.98
70.07,2.55,-1.38,2.54,-1.38,1.38,1.64,1.23,3.92,3.92,3.92
70.77,2.52,-1.34,2.52,-1.34,1.34,1.62,1.20,3.86,3.86,3.85
71.48,2.50,-1.31,2.50,-1.31,1.30,1.59,1.16,3.80,3.80,3.80
72.19,2.47,-1.28,2.47,-1.27,1.27,1.56,1.13,3.73,3.74,3.74
72.91,2.46,-1.22,2.45,-1.23,1.23,1.53,1.09,3.69,3.68,3.67
73.64,2.44,-1.19,2.44,-1.19,1.19,1.50,1.06,3.63,3.63,3.62
74.38,2.42,-1.15,2.42,-1.15,1.15,1.47,1.02,3.57,3.57,3.56
75.12,2.40,-1.12,2.40,-1.12,1.12,1.44,0.99,3.51,3.51,3.51
75.87,2.38,-1.09,2.38,-1.08,1.08,1.40,0.95,3.46,3.46,3.46
76.63,2.36,-1.05,2.36,-1.05,1.05,1.37,0.92,3.40,3.41,3.40
77.40,2.35,-1.02,2.35,-1.01,1.02,1.34,0.88,3.36,3.36,3.36
78.17,2.33,-0.98,2.33,-0.98,0.99,1.30,0.85,3.32,3.32,3.30
78.95,2.31,-0.96,2.30,-0.96,0.96,1.27,0.81,3.27,3.27,3.26
79.74,2.28,-0.94,2.28,-0.93,0.93,1.23,0.78,3.21,3.21,3.21
80.54,2.25,-0.92,2.25,-0.91,0.91,1.20,0.74,3.16,3.16,3.16
81.35,2.23,-0.88,2.22,-0.89,0.89,1.16,0.71,3.11,3.11,3.10
82.16,2.20,-0.88,2.20,-0.86,0.86,1.13,0.67,3.06,3.06,3.07
82.98,2.18,-0.84,2.18,-0.84,0.84,1.09,0.64,3.02,3.02,3.01
83.81,2.15,-0.82,2.14,-0.82,0.82,1.05,0.61,2.97,2.97,2.96
84.65,2.11,-0.80,2.11,-0.79,0.80,1.01,0.57,2.91,2.91,2.90
85.50,2.07,-0.78,2.07,-0.78,0.78,0.97,0.54,2.85,2.85,2.84
86.35,2.04,-0.76,2.03,-0.76,0.76,0.93,0.51,2.80,2.79,2.79
87.22,2.00,-0.75,2.00,-0.74,0.73,0.89,0.47,2.73,2.73,2.74
88.09,1.97,-0.72,1.97,-0.71,0.70,0.85,0.44,2.67,2.67,2.68
88.97,1.95,-0.68,1.95,-0.68,0.67,0.81,0.41,2.62,2.62,2.62
89.86,1.93,-0.65,1.93,-0.64,0.64,0.77,0.38,2.57,2.57,2.57
90.76,1.91,-0.61,1.91,-0.60,0.61,0.73,0.35,2.52,2.52,2.51
91.66,1.89,-0.56,1.89,-0.56,0.58,0.69,0.32,2.46,2.46,2.44
92.58,1.87,-0.53,1.86,-0.53,0.54,0.65,0.29,2.41,2.41,2.39
93.51,1.84,-0.51,1.84,-0.50,0.51,0.60,0.26,2.35,2.34,2.34
94.44,1.80,-0.49,1.80,-0.48,0.48,0.56,0.23,2.27,2.28,2.28
95.39,1.77,-0.45,1.76,-0.45,0.44,0.52,0.20,2.21,2.21,2.21
96.34,1.73,-0.42,1.73,-0.42,0.41,0.47,0.17,2.14,2.14,2.14
97.30,1.70,-0.39,1.70,-0.38,0.38,0.43,0.14,2.08,2.08,2.08
98.28,1.67,-0.35,1.67,-0.35,0.35,0.38,0.11,2.02,2.02,2.01
99.26,1.64,-0.32,1.64,-0.32,0.32,0.34,0.08,1.96,1.96,1.95
100.25,1.62,-0.28,1.61,-0.28,0.29,0.30,0.05,1.90,1.90,1.89
101.25,1.59,-0.26,1.59,-0.25,0.26,0.25,0.03,1.84,1.85,1.84
102.27,1.57,-0.22,1.57,-0.22,0.23,0.21,-0.00,1.79,1.79,1.78
103.29,1.54,-0.19,1.54,-0.19,0.20,0.16,-0.03,1.73,1.73,1.72
104.32,1.51,-0.17,1.51,-0.16,0.17,0.12,-0.06,1.67,1.67,1.67
105.37,1.48,-0.14,1.48,-0.14,0.13,0.07,-0.08,1.61,1.61,1.61
106.42,1.46,-0.11,1.46,-0.11,0.10,0.03,-0.11,1.55,1.55,1.56
107.48,1.44,-0.07,1.44,-0.06,0.05,-0.02,-0.14,1.49,1.50,1.50
108.56,1.44,-0.02,1.44,-0.02,0.01,-0.07,-0.16,1.45,1.44,1.45
109.64,1.44,0.04,1.43,0.04,-0.04,-0.11,-0.19,1.40,1.39,1.39
110.74,1.43,0.09,1.43,0.10,-0.09,-0.16,-0.21,1.33,1.34,1.33
111.85,1.43,0.15,1.43,0.15,-0.15,-0.20,-0.24,1.28,1.28,1.27
112.97,1.43,0.20,1.43,0.20,-0.20,-0.25,-0.26,1.23,1.22,1.22
114.10,1.42,0.25,1.41,0.26,-0.25,-0.29,-0.28,1.17,1.16,1.16
115.24,1.40,0.31,1.40,0.30,-0.30,-0.33,-0.31,1.10,1.10,1.08
116.39,1.37,0.34,1.37,0.35,-0.34,-0.38,-0.33,1.03,1.03,1.02
117.55,1.35,0.38,1.34,0.38,-0.38,-0.42,-0.35,0.97,0.97,0.96
118.73,1.32,0.41,1.32,0.41,-0.41,-0.47,-0.37,0.91,0.91,0.90
119.92,1.30,0.43,1.30,0.44,-0.44,-0.51,-0.39,0.86,0.86,0.86
121.12,1.28,0.46,1.27,0.46,-0.46,-0.55,-0.42,0.81,0.81,0.81
122.33,1.25,0.49,1.25,0.49,-0.48,-0.59,-0.44,0.77,0.76,0.75
123.55,1.21,0.50,1.21,0.50,-0.50,-0.64,-0.46,0.71,0.71,0.70
124.79,1.17,0.51,1.17,0.52,-0.52,-0.68,-0.47,0.65,0.65,0.65
126.03,1.13,0.53,1.13,0.53,-0.53,-0.72,-0.49,0.60,0.60,0.59
127.29,1.09,0.54,1.08,0.55,-0.55,-0.76,-0.51,0.54,0.54,0.54
128.57,1.04,0.56,1.04,0.56,-0.57,-0.80,-0.53,0.47,0.48,0.47
129.85,1.01,0.58,1.00,0.58,-0.59,-0.84,-0.55,0.42,0.41,0.42
131.15,0.97,0.60,0.97,0.60,-0.61,-0.88,-0.56,0.35,0.36,0.36
132.46,0.94,0.62,0.94,0.63,-0.64,-0.92,-0.58,0.30,0.30,0.31
133.79,0.93,0.67,0.92,0.67,-0.67,-0.96,-0.60,0.26,0.26,0.25
135.12,0.91,0.70,0.91,0.70,-0.70,-0.99,-0.61,0.21,0.21,0.20
136.48,0.89,0.73,0.89,0.73,-0.72,-1.03,-0.63,0.16,0.16,0.15
137.84,0.86,0.75,0.86,0.75,-0.75,-1.07,-0.64,0.11,0.11,0.10
139.22,0.83,0.78,0.83,0.78,-0.77,-1.10,-0.66,0.06,0.06,0.04
140.61,0.79,0.78,0.79,0.79,-0.79,-1.14,-0.68,-0.00,0.00,0.00
142.02,0.76,0.81,0.75,0.80,-0.81,-1.17,-0.69,-0.05,-0.05,-0.06
143.44,0.72,0.81,0.72,0.81,-0.82,-1.21,-0.71,-0.10,-0.10,-0.10
144.87,0.69,0.82,0.69,0.83,-0.84,-1.24,-0.72,-0.15,-0.15,-0.14
146.32,0.66,0.84,0.66,0.84,-0.85,-1.27,-0.74,-0.19,-0.19,-0.19
147.78,0.64,0.86,0.64,0.87,-0.86,-1.30,-0.76,-0.23,-0.23,-0.23
149.26,0.62,0.89,0.61,0.89,-0.88,-1.33,-0.77,-0.26,-0.26,-0.28
150.75,0.59,0.90,0.59,0.90,-0.89,-1.36,-0.79,-0.31,-0.31,-0.32
152.26,0.56,0.91,0.56,0.91,-0.91,-1.39,-0.81,-0.35,-0.35,-0.36
153.78,0.53,0.92,0.53,0.92,-0.93,-1.42,-0.83,-0.40,-0.40,-0.40
155.32,0.51,0.94,0.50,0.94,-0.95,-1.45,-0.85,-0.44,-0.44,-0.44
156.88,0.48,0.96,0.48,0.96,-0.97,-1.47,-0.87,-0.49,-0.49,-0.49
158.44,0.46,0.99,0.46,0.99,-0.99,-1.50,-0.89,-0.54,-0.53,-0.54
160.03,0.45,1.02,0.45,1.02,-1.03,-1.52,-0.91,-0.58,-0.58,-0.58
161.63,0.44,1.05,0.44,1.06,-1.06,-1.55,-0.93,-0.63,-0.63,-0.62
163.24,0.44,1.10,0.44,1.10,-1.11,-1.57,-0.95,-0.67,-0.67,-0.67
164.88,0.44,1.15,0.44,1.15,-1.15,-1.59,-0.97,-0.72,-0.71,-0.72
166.53,0.45,1.21,0.45,1.21,-1.20,-1.61,-1.00,-0.76,-0.76,-0.77
168.19,0.46,1.25,0.45,1.26,-1.25,-1.64,-1.02,-0.80,-0.80,-0.80
169.87,0.46,1.31,0.46,1.31,-1.30,-1.66,-1.05,-0.85,-0.85,-0.86
171.57,0.46,1.36,0.46,1.36,-1.36,-1.67,-1.08,-0.90,-0.90,-0.91
173.29,0.46,1.40,0.46,1.41,-1.41,-1.69,-1.10,-0.95,-0.95,-0.95
175.02,0.46,1.45,0.46,1.45,-1.45,-1.71,-1.13,-1.00,-1.00,-1.00
176.77,0.46,1.50,0.46,1.50,-1.50,-1.73,-1.16,-1.04,-1.04,-1.05
178.54,0.46,1.54,0.46,1.55,-1.55,-1.74,-1.19,-1.09,-1.09,-1.09
180.32,0.46,1.60,0.46,1.59,-1.60,-1.76,-1.23,-1.14,-1.14,-1.15
182.13,0.46,1.63,0.46,1.64,-1.65,-1.77,-1.26,-1.19,-1.19,-1.18
183.95,0.47,1.69,0.46,1.69,-1.70,-1.78,-1.29,-1.23,-1.23,-1.23
185.79,0.47,1.74,0.47,1.74,-1.74,-1.80,-1.33,-1.27,-1.27,-1.28
187.65,0.48,1.79,0.48,1.79,-1.79,-1.81,-1.36,-1.31,-1.31,-1.32
189.52,0.48,1.83,0.48,1.83,-1.83,-1.82,-1.40,-1.35,-1.35,-1.36
191.42,0.48,1.87,0.47,1.87,-1.87,-1.83,-1.43,-1.39,-1.40,-1.40
193.33,0.46,1.89,0.46,1.90,-1.90,-1.84,-1.47,-1.44,-1.44,-1.44
195.27,0.45,1.93,0.45,1.93,-1.93,-1.85,-1.51,-1.48,-1.48,-1.49
197.22,0.43,1.96,0.42,1.95,-1.95,-1.85,-1.55,-1.52,-1.52,-1.54
199.19,0.40,1.96,0.40,1.97,-1.96,-1.86,-1.59,-1.56,-1.56,-1.57
201.18,0.38,1.98,0.37,1.98,-1.97,-1.87,-1.63,-1.59,-1.60,-1.61
203.19,0.35,1.98,0.34,1.97,-1.97,-1.87,-1.66,-1.63,-1.63,-1.64
205.23,0.31,1.96,0.31,1.97,-1.98,-1.87,-1.70,-1.67,-1.66,-1.66
207.28,0.28,1.96,0.28,1.97,-1.97,-1.88,-1.74,-1.70,-1.70,-1.69
209.35,0.25,1.97,0.25,1.97,-1.97,-1.88,-1.78,-1.72,-1.72,-1.73
211.44,0.22,1.97,0.22,1.97,-1.97,-1.88,-1.82,-1.75,-1.75,-1.76
213.56,0.20,1.97,0.19,1.97,-1.97,-1.88,-1.86,-1.78,-1.78,-1.78
215.69,0.17,1.97,0.17,1.98,-1.98,-1.89,-1.90,-1.81,-1.81,-1.81
217.85,0.15,1.98,0.15,1.99,-1.99,-1.89,-1.93,-1.84,-1.84,-1.84
220.03,0.14,2.00,0.14,2.00,-2.01,-1.89,-1.97,-1.87,-1.87,-1.87
222.23,0.13,2.02,0.13,2.02,-2.02,-1.88,-2.00,-1.90,-1.89,-1.90
224.45,0.13,2.03,0.13,2.04,-2.04,-1.88,-2.03,-1.92,-1.92,-1.91
226.70,0.13,2.06,0.13,2.06,-2.06,-1.88,-2.06,-1.94,-1.93,-1.94
228.96,0.14,2.08,0.14,2.08,-2.08,-1.88,-2.09,-1.95,-1.95,-1.95
231.25,0.14,2.10,0.14,2.10,-2.10,-1.87,-2.12,-1.96,-1.96,-1.97
233.57,0.14,2.12,0.14,2.12,-2.11,-1.87,-2.14,-1.97,-1.97,-1.99
235.90,0.13,2.12,0.13,2.13,-2.12,-1.86,-2.16,-1.99,-1.99,-2.00
238.26,0.11,2.13,0.11,2.12,-2.12,-1.86,-2.17,-2.01,-2.01,-2.03
240.64,0.09,2.10,0.08,2.11,-2.11,-1.85,-2.19,-2.02,-2.02,-2.02
243.05,0.06,2.09,0.06,2.10,-2.09,-1.84,-2.20,-2.04,-2.03,-2.04
245.48,0.03,2.07,0.03,2.07,-2.07,-1.84,-2.20,-2.05,-2.04,-2.05
247.93,0.01,2.06,0.00,2.05,-2.05,-1.83,-2.21,-2.04,-2.05,-2.06
250.41,-0.03,2.01,-0.03,2.02,-2.02,-1.82,-2.21,-2.06,-2.06,-2.05
252.92,-0.06,1.99,-0.06,2.00,-2.00,-1.81,-2.20,-2.06,-2.06,-2.06
255.45,-0.09,1.97,-0.09,1.97,-1.97,-1.80,-2.20,-2.06,-2.06,-2.07
258.00,-0.11,1.95,-0.12,1.95,-1.95,-1.79,-2.19,-2.06,-2.06,-2.07
260.58,-0.14,1.92,-0.14,1.93,-1.92,-1.78,-2.17,-2.07,-2.07,-2.07
263.19,-0.16,1.90,-0.16,1.90,-1.91,-1.77,-2.15,-2.07,-2.07,-2.07
265.82,-0.18,1.89,-0.18,1.89,-1.89,-1.76,-2.13,-2.08,-2.08,-2.08
268.48,-0.20,1.87,-0.20,1.88,-1.88,-1.75,-2.11,-2.09,-2.08,-2.08
271.16,-0.20,1.87,-0.20,1.87,-1.88,-1.74,-2.08,-2.08,-2.08,-2.08
273.87,-0.20,1.87,-0.20,1.87,-1.88,-1.73,-2.05,-2.08,-2.08,-2.08
276.61,-0.20,1.87,-0.20,1.88,-1.88,-1.71,-2.02,-2.08,-2.08,-2.08
279.38,-0.20,1.89,-0.20,1.89,-1.88,-1.70,-1.99,-2.08,-2.08,-2.10
282.17,-0.20,1.89,-0.20,1.89,-1.88,-1.69,-1.95,-2.09,-2.08,-2.10
284.99,-0.19,1.89,-0.20,1.89,-1.89,-1.67,-1.91,-2.08,-2.08,-2.09
287.84,-0.19,1.88,-0.19,1.89,-1.89,-1.66,-1.87,-2.08,-2.08,-2.08
290.72,-0.19,1.89,-0.19,1.89,-1.89,-1.65,-1.83,-2.08,-2.08,-2.09
293.63,-0.19,1.88,-0.19,1.88,-1.88,-1.63,-1.79,-2.07,-2.07,-2.08
296.57,-0.19,1.87,-0.19,1.88,-1.88,-1.62,-1.75,-2.07,-2.07,-2.07
299.53,-0.19,1.87,-0.19,1.87,-1.87,-1.60,-1.71,-2.06,-2.06,-2.07
302.53,-0.19,1.85,-0.19,1.86,-1.86,-1.59,-1.66,-2.06,-2.06,-2.05
305.55,-0.19,1.86,-0.19,1.86,-1.86,-1.57,-1.62,-2.05,-2.05,-2.06
308.61,-0.19,1.85,-0.19,1.85,-1.85,-1.56,-1.57,-2.04,-2.04,-2.05
311.69,-0.19,1.84,-0.19,1.85,-1.84,-1.54,-1.53,-2.04,-2.04,-2.04
314.81,-0.19,1.84,-0.19,1.84,-1.84,-1.53,-1.49,-2.03,-2.03,-2.04
317.96,-0.19,1.83,-0.19,1.83,-1.83,-1.51,-1.44,-2.02,-2.02,-2.03
321.14,-0.19,1.82,-0.19,1.82,-1.83,-1.50,-1.40,-2.02,-2.02,-2.02
324.35,-0.19,1.82,-0.19,1.81,-1.82,-1.48,-1.36,-2.02,-2.02,-2.02
327.59,-0.19,1.79,-0.19,1.81,-1.82,-1.46,-1.31,-2.01,-2.01,-1.99
330.87,-0.18,1.81,-0.18,1.81,-1.81,-1.45,-1.27,-2.00,-2.00,-2.00
334.18,-0.17,1.81,-0.17,1.81,-1.81,-1.43,-1.23,-1.98,-1.98,-1.99
337.52,-0.16,1.82,-0.17,1.81,-1.80,-1.42,-1.19,-1.96,-1.97,-1.99
340.90,-0.17,1.79,-0.17,1.80,-1.79,-1.40,-1.15,-1.96,-1.96,-1.97
344.30,-0.18,1.77,-0.18,1.78,-1.78,-1.38,-1.11,-1.96,-1.96,-1.96
347.75,-0.19,1.76,-0.19,1.76,-1.76,-1.37,-1.07,-1.95,-1.95,-1.96
351.23,-0.21,1.74,-0.21,1.73,-1.73,-1.35,-1.03,-1.94,-1.94,-1.96
354.74,-0.23,1.69,-0.23,1.70,-1.70,-1.33,-0.99,-1.93,-1.94,-1.93
358.28,-0.26,1.67,-0.26,1.67,-1.67,-1.32,-0.96,-1.93,-1.93,-1.94
361.87,-0.29,1.63,-0.29,1.63,-1.63,-1.30,-0.92,-1.92,-1.92,-1.93
365.49,-0.32,1.59,-0.32,1.59,-1.59,-1.28,-0.89,-1.91,-1.91,-1.92
369.14,-0.35,1.54,-0.35,1.55,-1.55,-1.27,-0.85,-1.91,-1.91,-1.90
372.83,-0.38,1.51,-0.38,1.51,-1.52,-1.25,-0.82,-1.90,-1.90,-1.90
376.56,-0.41,1.48,-0.41,1.48,-1.48,-1.23,-0.79,-1.89,-1.89,-1.90
380.33,-0.44,1.44,-0.44,1.44,-1.45,-1.22,-0.76,-1.89,-1.89,-1.89
384.13,-0.46,1.40,-0.46,1.41,-1.41,-1.20,-0.73,-1.88,-1.88,-1.87
387.97,-0.48,1.38,-0.48,1.38,-1.39,-1.18,-0.70,-1.87,-1.87,-1.87
391.85,-0.49,1.36,-0.49,1.36,-1.36,-1.17,-0.67,-1.85,-1.85,-1.86
395.77,-0.50,1.34,-0.50,1.34,-1.34,-1.15,-0.64,-1.84,-1.84,-1.85
399.73,-0.51,1.32,-0.52,1.31,-1.32,-1.13,-0.61,-1.83,-1.83,-1.84
403.72,-0.53,1.27,-0.53,1.29,-1.29,-1.12,-0.58,-1.83,-1.82,-1.81
407.76,-0.54,1.27,-0.54,1.27,-1.27,-1.10,-0.56,-1.81,-1.81,-1.82
411.84,-0.55,1.25,-0.55,1.25,-1.24,-1.08,-0.53,-1.80,-1.80,-1.81
415.96,-0.56,1.22,-0.57,1.23,-1.21,-1.07,-0.51,-1.78,-1.78,-1.79
420.12,-0.59,1.19,-0.59,1.19,-1.18,-1.05,-0.49,-1.77,-1.77,-1.79
424.32,-0.62,1.15,-0.62,1.15,-1.15,-1.04,-0.46,-1.77,-1.77,-1.78
428.56,-0.65,1.10,-0.65,1.11,-1.11,-1.02,-0.44,-1.77,-1.77,-1.76
432.85,-0.68,1.06,-0.68,1.07,-1.08,-1.00,-0.42,-1.76,-1.76,-1.75
437.18,-0.71,1.04,-0.71,1.04,-1.04,-0.99,-0.40,-1.75,-1.75,-1.76
441.55,-0.74,1.00,-0.74,1.00,-1.00,-0.97,-0.38,-1.74,-1.74,-1.75
445.96,-0.77,0.96,-0.77,0.96,-0.96,-0.95,-0.37,-1.73,-1.73,-1.74
450.42,-0.80,0.92,-0.80,0.93,-0.92,-0.94,-0.35,-1.73,-1.72,-1.73
454.93,-0.82,0.89,-0.82,0.89,-0.89,-0.92,-0.34,-1.72,-1.72,-1.72
459.48,-0.84,0.86,-0.84,0.86,-0.87,-0.91,-0.33,-1.71,-1.71,-1.71
464.07,-0.85,0.83,-0.85,0.83,-0.84,-0.89,-0.31,-1.70,-1.70,-1.69
468.71,-0.86,0.81,-0.86,0.82,-0.83,-0.87,-0.30,-1.69,-1.69,-1.68
473.40,-0.86,0.81,-0.86,0.81,-0.82,-0.86,-0.29,-1.68,-1.68,-1.68
478.13,-0.85,0.81,-0.86,0.81,-0.81,-0.84,-0.29,-1.66,-1.67,-1.67
482.91,-0.85,0.80,-0.85,0.81,-0.81,-0.82,-0.28,-1.66,-1.66,-1.66
487.74,-0.84,0.80,-0.84,0.80,-0.81,-0.81,-0.28,-1.65,-1.65,-1.65
492.62,-0.83,0.80,-0.83,0.80,-0.80,-0.79,-0.27,-1.64,-1.64,-1.64
497.55,-0.82,0.80,-0.82,0.80,-0.80,-0.77,-0.27,-1.62,-1.62,-1.63
502.52,-0.81,0.80,-0.81,0.80,-0.79,-0.76,-0.27,-1.60,-1.60,-1.62
507.55,-0.81,0.78,-0.81,0.78,-0.78,-0.74,-0.28,-1.59,-1.59,-1.60
512.62,-0.82,0.76,-0.82,0.76,-0.76,-0.72,-0.28,-1.58,-1.58,-1.59
