frequency,raw,error,smoothed,error_smoothed,equalization,parametric_eq,fixed_band_eq,equalized_raw,equalized_smoothed,target
20.00,-8.25,-8.12,-8.25,-8.15,8.15,6.79,1.07,-0.10,-0.10,-0.13
20.20,-8.06,-8.02,-8.06,-8.04,8.04,7.03,1.10,-0.02,-0.02,-0.04
20.40,-7.87,-7.91,-7.87,-7.92,7.92,7.24,1.13,0.05,0.05,0.04
20.61,-7.67,-7.79,-7.67,-7.79,7.79,7.44,1.17,0.12,0.12,0.11
20.81,-7.48,-7.68,-7.48,-7.67,7.67,7.60,1.21,0.19,0.19,0.20
21.02,-7.29,-7.57,-7.29,-7.54,7.54,7.74,1.24,0.25,0.26,0.28
21.23,-7.10,-7.44,-7.09,-7.41,7.41,7.84,1.28,0.31,0.32,0.34
21.44,-6.90,-7.30,-6.90,-7.28,7.28,7.90,1.32,0.38,0.38,0.40
21.66,-6.71,-7.17,-6.70,-7.15,7.15,7.93,1.36,0.43,0.44,0.45
21.87,-6.51,-7.01,-6.51,-7.01,7.01,7.91,1.41,0.50,0.50,0.50
22.09,-6.32,-6.87,-6.32,-6.87,6.87,7.85,1.45,0.55,0.55,0.55
22.31,-6.12,-6.72,-6.12,-6.72,6.72,7.75,1.49,0.61,0.60,0.60
22.54,-5.93,-6.58,-5.93,-6.57,6.57,7.61,1.54,0.64,0.64,0.64
22.76,-5.73,-6.41,-5.73,-6.42,6.42,7.44,1.59,0.69,0.69,0.68
22.99,-5.54,-6.25,-5.54,-6.26,6.26,7.25,1.63,0.72,0.73,0.71
23.22,-5.34,-6.09,-5.34,-6.11,6.11,7.03,1.68,0.77,0.76,0.75
23.45,-5.15,-5.94,-5.15,-5.95,5.95,6.80,1.73,0.80,0.80,0.79
23.69,-4.96,-5.80,-4.95,-5.79,5.79,6.55,1.78,0.83,0.84,0.83
23.92,-4.76,-5.63,-4.76,-5.64,5.64,6.29,1.84,0.88,0.87,0.87
24.16,-4.57,-5.49,-4.57,-5.48,5.48,6.03,1.89,0.91,0.91,0.92
24.40,-4.38,-5.33,-4.38,-5.32,5.32,5.76,1.94,0.94,0.94,0.95
24.65,-4.18,-5.16,-4.18,-5.16,5.16,5.49,1.99,0.98,0.98,0.97
24.89,-3.99,-4.99,-3.99,-5.00,5.00,5.23,2.05,1.02,1.01,1.00
25.14,-3.80,-4.84,-3.80,-4.84,4.84,4.97,2.10,1.05,1.04,1.04
25.39,-3.61,-4.68,-3.61,-4.69,4.69,4.71,2.16,1.08,1.08,1.07
25.65,-3.42,-4.53,-3.42,-4.53,4.53,4.46,2.21,1.11,1.11,1.11
25.91,-3.23,-4.37,-3.23,-4.37,4.37,4.21,2.26,1.13,1.14,1.13
26.16,-3.04,-4.20,-3.04,-4.21,4.21,3.97,2.31,1.17,1.17,1.16
26.43,-2.85,-4.06,-2.85,-4.05,4.05,3.74,2.37,1.19,1.20,1.20
26.69,-2.66,-3.89,-2.66,-3.89,3.89,3.52,2.42,1.23,1.23,1.23
26.96,-2.47,-3.74,-2.47,-3.73,3.73,3.30,2.46,1.26,1.26,1.26
27.23,-2.28,-3.58,-2.28,-3.57,3.57,3.10,2.51,1.29,1.29,1.29
27.50,-2.10,-3.42,-2.10,-3.42,3.42,2.90,2.55,1.32,1.32,1.32
27.77,-1.91,-3.25,-1.91,-3.26,3.26,2.70,2.59,1.35,1.35,1.34
28.05,-1.73,-3.11,-1.72,-3.11,3.11,2.52,2.63,1.38,1.38,1.38
28.33,-1.54,-2.94,-1.54,-2.95,2.95,2.34,2.67,1.41,1.41,1.40
28.62,-1.36,-2.80,-1.36,-2.80,2.80,2.16,2.70,1.44,1.44,1.43
28.90,-1.18,-2.65,-1.18,-2.65,2.65,2.00,2.72,1.47,1.47,1.47
29.19,-1.00,-2.49,-1.00,-2.50,2.50,1.84,2.75,1.50,1.50,1.49
29.48,-0.82,-2.36,-0.83,-2.35,2.35,1.69,2.76,1.53,1.53,1.54
29.78,-0.64,-2.20,-0.65,-2.21,2.21,1.54,2.78,1.56,1.56,1.55
30.08,-0.47,-2.06,-0.48,-2.06,2.06,1.39,2.78,1.59,1.58,1.58
30.38,-0.30,-1.92,-0.31,-1.92,1.92,1.26,2.78,1.62,1.61,1.61
30.68,-0.14,-1.78,-0.14,-1.78,1.78,1.12,2.78,1.64,1.64,1.64
30.99,0.02,-1.65,0.03,-1.64,1.64,1.00,2.77,1.66,1.66,1.66
31.30,0.19,-1.50,0.19,-1.50,1.50,0.87,2.75,1.69,1.69,1.68
31.61,0.35,-1.36,0.35,-1.36,1.36,0.75,2.73,1.71,1.71,1.71
31.93,0.51,-1.23,0.52,-1.22,1.22,0.64,2.70,1.73,1.74,1.73
32.24,0.67,-1.08,0.67,-1.09,1.09,0.52,2.67,1.76,1.76,1.75
32.57,0.83,-0.95,0.83,-0.95,0.95,0.41,2.62,1.78,1.78,1.78
32.89,0.99,-0.81,0.99,-0.81,0.81,0.31,2.58,1.80,1.80,1.80
33.22,1.14,-0.68,1.14,-0.68,0.68,0.21,2.53,1.82,1.82,1.82
33.55,1.30,-0.54,1.30,-0.54,0.54,0.10,2.47,1.84,1.84,1.84
33.89,1.45,-0.40,1.45,-0.41,0.41,0.01,2.41,1.85,1.86,1.85
34.23,1.60,-0.27,1.60,-0.27,0.27,-0.09,2.34,1.87,1.87,1.87
34.57,1.75,-0.13,1.75,-0.14,0.14,-0.18,2.27,1.89,1.88,1.88
34.92,1.89,-0.01,1.89,-0.01,0.01,-0.28,2.20,1.89,1.89,1.89
35.27,2.03,0.11,2.03,0.13,-0.13,-0.37,2.12,1.90,1.90,1.91
35.62,2.17,0.27,2.17,0.25,-0.25,-0.46,2.04,1.91,1.91,1.90
35.97,2.31,0.40,2.30,0.38,-0.38,-0.54,1.95,1.93,1.92,1.91
36.33,2.43,0.50,2.43,0.51,-0.51,-0.63,1.87,1.92,1.92,1.93
36.70,2.56,0.64,2.56,0.63,-0.63,-0.72,1.78,1.92,1.92,1.92
37.06,2.68,0.76,2.68,0.76,-0.76,-0.81,1.69,1.92,1.93,1.92
37.43,2.80,0.88,2.81,0.88,-0.88,-0.89,1.59,1.92,1.93,1.92
37.81,2.92,1.00,2.92,1.00,-1.00,-0.98,1.50,1.92,1.92,1.92
38.19,3.03,1.11,3.04,1.11,-1.11,-1.07,1.40,1.91,1.92,1.92
38.57,3.15,1.23,3.15,1.23,-1.23,-1.15,1.30,1.92,1.92,1.92
38.95,3.26,1.34,3.26,1.34,-1.34,-1.24,1.20,1.92,1.92,1.92
39.34,3.36,1.46,3.36,1.45,-1.45,-1.33,1.11,1.91,1.91,1.90
39.74,3.46,1.56,3.46,1.55,-1.55,-1.42,1.01,1.91,1.91,1.90
40.14,3.56,1.67,3.56,1.66,-1.66,-1.51,0.90,1.90,1.90,1.89
40.54,3.65,1.76,3.65,1.76,-1.76,-1.60,0.80,1.89,1.89,1.89
40.94,3.74,1.86,3.74,1.85,-1.85,-1.69,0.70,1.89,1.89,1.88
41.35,3.82,1.94,3.82,1.94,-1.94,-1.78,0.60,1.88,1.88,1.88
41.76,3.90,2.03,3.90,2.03,-2.03,-1.87,0.50,1.87,1.87,1.87
42.18,3.98,2.12,3.98,2.12,-2.12,-1.97,0.40,1.86,1.86,1.86
42.60,4.05,2.20,4.05,2.20,-2.20,-2.06,0.29,1.85,1.85,1.85
43.03,4.12,2.27,4.12,2.27,-2.27,-2.16,0.19,1.85,1.84,1.85
43.46,4.18,2.34,4.18,2.35,-2.35,-2.25,0.09,1.84,1.83,1.84
43.90,4.24,2.42,4.23,2.41,-2.41,-2.34,-0.01,1.83,1.82,1.82
44.33,4.28,2.48,4.28,2.47,-2.47,-2.43,-0.12,1.81,1.81,1.80
44.78,4.33,2.54,4.33,2.53,-2.53,-2.52,-0.22,1.80,1.80,1.79
45.23,4.37,2.59,4.37,2.58,-2.58,-2.60,-0.32,1.79,1.79,1.78
45.68,4.40,2.63,4.40,2.62,-2.62,-2.68,-0.43,1.78,1.78,1.77
46.13,4.43,2.67,4.43,2.66,-2.66,-2.75,-0.53,1.77,1.77,1.76
46.60,4.45,2.69,4.45,2.69,-2.69,-2.82,-0.63,1.76,1.76,1.76
47.06,4.47,2.72,4.47,2.72,-2.72,-2.87,-0.73,1.75,1.75,1.75
47.53,4.48,2.74,4.48,2.74,-2.74,-2.92,-0.84,1.74,1.74,1.74
48.01,4.49,2.75,4.49,2.75,-2.75,-2.96,-0.94,1.74,1.73,1.74
48.49,4.49,2.76,4.49,2.76,-2.76,-2.98,-1.04,1.73,1.73,1.73
48.97,4.49,2.77,4.49,2.77,-2.77,-3.00,-1.14,1.72,1.72,1.72
49.46,4.48,2.78,4.48,2.77,-2.77,-3.01,-1.24,1.71,1.72,1.70
49.96,4.46,2.77,4.47,2.76,-2.76,-3.00,-1.35,1.70,1.71,1.69
50.46,4.45,2.75,4.46,2.75,-2.75,-2.99,-1.45,1.70,1.71,1.70
50.96,4.44,2.74,4.44,2.74,-2.74,-2.96,-1.54,1.70,1.70,1.70
51.47,4.43,2.74,4.42,2.72,-2.72,-2.93,-1.64,1.71,1.70,1.69
51.99,4.41,2.72,4.40,2.70,-2.70,-2.89,-1.74,1.71,1.70,1.69
52.51,4.37,2.68,4.37,2.68,-2.68,-2.85,-1.84,1.69,1.69,1.69
53.03,4.34,2.65,4.34,2.65,-2.65,-2.80,-1.93,1.69,1.69,1.69
53.56,4.31,2.62,4.31,2.63,-2.63,-2.75,-2.02,1.68,1.68,1.69
54.10,4.27,2.59,4.27,2.60,-2.60,-2.70,-2.11,1.67,1.68,1.68
54.64,4.24,2.57,4.23,2.57,-2.57,-2.65,-2.20,1.68,1.67,1.67
55.18,4.20,2.54,4.19,2.53,-2.53,-2.60,-2.28,1.67,1.66,1.66
55.74,4.15,2.51,4.15,2.50,-2.50,-2.54,-2.36,1.65,1.65,1.64
56.29,4.11,2.47,4.11,2.47,-2.47,-2.49,-2.44,1.64,1.64,1.64
56.86,4.06,2.44,4.06,2.43,-2.43,-2.44,-2.51,1.63,1.63,1.62
57.42,4.01,2.41,4.02,2.40,-2.40,-2.39,-2.58,1.60,1.61,1.60
58.00,3.96,2.37,3.97,2.38,-2.38,-2.34,-2.65,1.58,1.59,1.59
58.58,3.91,2.34,3.92,2.35,-2.35,-2.29,-2.71,1.56,1.57,1.57
59.16,3.87,2.31,3.88,2.33,-2.33,-2.25,-2.76,1.54,1.55,1.56
59.76,3.83,2.29,3.83,2.30,-2.30,-2.20,-2.81,1.53,1.53,1.54
60.35,3.78,2.27,3.78,2.28,-2.28,-2.16,-2.85,1.50,1.51,1.51
60.96,3.73,2.23,3.73,2.25,-2.25,-2.12,-2.89,1.48,1.48,1.50
61.57,3.69,2.24,3.68,2.23,-2.23,-2.08,-2.92,1.46,1.46,1.45
62.18,3.65,2.23,3.64,2.20,-2.20,-2.05,-2.95,1.45,1.44,1.42
62.80,3.60,2.19,3.59,2.18,-2.18,-2.01,-2.97,1.42,1.41,1.41
63.43,3.54,2.17,3.54,2.15,-2.15,-1.98,-2.98,1.39,1.39,1.37
64.07,3.48,2.13,3.49,2.12,-2.12,-1.94,-2.99,1.36,1.37,1.35
64.71,3.43,2.09,3.43,2.08,-2.08,-1.91,-2.99,1.35,1.35,1.34
65.35,3.38,2.06,3.38,2.05,-2.05,-1.88,-2.98,1.33,1.33,1.32
66.01,3.32,2.01,3.33,2.01,-2.01,-1.85,-2.97,1.31,1.32,1.31
66.67,3.27,1.97,3.27,1.97,-1.97,-1.82,-2.96,1.30,1.31,1.30
67.33,3.22,1.93,3.22,1.93,-1.93,-1.79,-2.94,1.29,1.29,1.29
68.01,3.17,1.89,3.16,1.88,-1.88,-1.76,-2.91,1.29,1.28,1.28
68.69,3.11,1.84,3.11,1.83,-1.83,-1.73,-2.88,1.28,1.28,1.27
69.37,3.05,1.78,3.05,1.78,-1.78,-1.70,-2.85,1.27,1.27,1.27
70.07,2.99,1.73,2.99,1.73,-1.73,-1.67,-2.81,1.26,1.26,1.26
70.77,2.94,1.68,2.94,1.68,-1.68,-1.64,-2.77,1.26,1.25,1.26
71.48,2.88,1.63,2.88,1.63,-1.63,-1.60,-2.73,1.25,1.24,1.25
72.19,2.82,1.59,2.82,1.58,-1.58,-1.57,-2.68,1.24,1.23,1.23
72.91,2.76,1.53,2.76,1.53,-1.53,-1.54,-2.64,1.23,1.22,1.23
73.64,2.69,1.48,2.70,1.48,-1.48,-1.50,-2.59,1.21,1.21,1.21
74.38,2.63,1.43,2.63,1.43,-1.43,-1.47,-2.54,1.20,1.20,1.20
75.12,2.57,1.39,2.57,1.38,-1.38,-1.43,-2.49,1.19,1.19,1.18
75.87,2.51,1.34,2.50,1.33,-1.33,-1.39,-2.44,1.18,1.17,1.17
76.63,2.45,1.29,2.44,1.28,-1.28,-1.35,-2.38,1.17,1.16,1.16
77.40,2.38,1.24,2.38,1.23,-1.23,-1.31,-2.33,1.15,1.15,1.14
78.17,2.32,1.20,2.31,1.18,-1.18,-1.26,-2.28,1.14,1.14,1.12
78.95,2.25,1.13,2.25,1.13,-1.13,-1.21,-2.23,1.12,1.12,1.12
79.74,2.19,1.08,2.19,1.07,-1.07,-1.17,-2.18,1.12,1.12,1.11
80.54,2.12,1.02,2.13,1.02,-1.02,-1.11,-2.13,1.10,1.11,1.10
81.35,2.06,0.97,2.07,0.97,-0.97,-1.06,-2.08,1.09,1.10,1.09
82.16,2.00,0.92,2.01,0.92,-0.92,-1.00,-2.03,1.08,1.10,1.08
82.98,1.95,0.86,1.95,0.86,-0.86,-0.94,-1.98,1.09,1.09,1.09
83.81,1.90,0.82,1.90,0.81,-0.81,-0.88,-1.93,1.09,1.09,1.08
84.65,1.85,0.78,1.85,0.76,-0.76,-0.83,-1.89,1.09,1.09,1.07
85.50,1.80,0.72,1.79,0.71,-0.71,-0.77,-1.84,1.09,1.08,1.08
86.35,1.75,0.67,1.74,0.66,-0.66,-0.71,-1.80,1.09,1.08,1.08
87.22,1.71,0.64,1.70,0.62,-0.62,-0.65,-1.76,1.09,1.07,1.07
88.09,1.65,0.58,1.65,0.58,-0.58,-0.60,-1.72,1.07,1.07,1.07
88.97,1.60,0.54,1.61,0.55,-0.55,-0.56,-1.68,1.05,1.06,1.06
89.86,1.56,0.51,1.57,0.52,-0.52,-0.52,-1.64,1.04,1.05,1.05
90.76,1.52,0.49,1.53,0.50,-0.50,-0.49,-1.60,1.02,1.03,1.03
91.66,1.49,0.48,1.49,0.48,-0.48,-0.47,-1.57,1.01,1.01,1.01
92.58,1.46,0.48,1.46,0.47,-0.47,-0.46,-1.54,0.99,0.98,0.98
93.51,1.42,0.46,1.42,0.47,-0.47,-0.46,-1.50,0.95,0.96,0.96
94.44,1.39,0.46,1.40,0.47,-0.47,-0.47,-1.47,0.92,0.92,0.93
95.39,1.37,0.48,1.37,0.49,-0.49,-0.49,-1.44,0.88,0.88,0.89
96.34,1.35,0.50,1.35,0.51,-0.51,-0.52,-1.41,0.84,0.84,0.85
97.30,1.33,0.54,1.33,0.53,-0.53,-0.56,-1.39,0.80,0.79,0.79
98.28,1.31,0.57,1.31,0.57,-0.57,-0.60,-1.36,0.74,0.74,0.74
99.26,1.29,0.60,1.30,0.61,-0.61,-0.65,-1.34,0.68,0.69,0.69
100.25,1.27,0.64,1.28,0.65,-0.65,-0.71,-1.31,0.62,0.63,0.63
101.25,1.26,0.69,1.27,0.69,-0.69,-0.76,-1.29,0.57,0.58,0.57
102.27,1.25,0.74,1.26,0.74,-0.74,-0.82,-1.27,0.51,0.52,0.51
103.29,1.25,0.80,1.25,0.79,-0.79,-0.88,-1.25,0.46,0.46,0.45
104.32,1.25,0.85,1.24,0.84,-0.84,-0.93,-1.23,0.41,0.40,0.40
105.37,1.24,0.91,1.22,0.88,-0.88,-0.99,-1.21,0.36,0.34,0.33
106.42,1.22,0.95,1.21,0.93,-0.93,-1.04,-1.20,0.29,0.28,0.27
107.48,1.21,0.99,1.20,0.97,-0.97,-1.09,-1.18,0.24,0.22,0.22
108.56,1.19,1.03,1.18,1.02,-1.02,-1.14,-1.16,0.17,0.16,0.16
109.64,1.18,1.08,1.17,1.06,-1.06,-1.18,-1.15,0.12,0.11,0.10
110.74,1.16,1.11,1.15,1.10,-1.10,-1.22,-1.14,0.06,0.05,0.05
111.85,1.13,1.12,1.14,1.13,-1.13,-1.26,-1.13,-0.00,0.00,0.01
112.97,1.11,1.17,1.12,1.17,-1.17,-1.30,-1.12,-0.06,-0.05,-0.06
114.10,1.09,1.19,1.10,1.20,-1.20,-1.33,-1.11,-0.11,-0.10,-0.10
115.24,1.07,1.22,1.09,1.23,-1.23,-1.37,-1.10,-0.16,-0.14,-0.15
116.39,1.06,1.26,1.07,1.26,-1.26,-1.40,-1.09,-0.20,-0.19,-0.20
117.55,1.05,1.29,1.06,1.28,-1.28,-1.43,-1.08,-0.23,-0.23,-0.24
118.73,1.04,1.32,1.04,1.31,-1.31,-1.45,-1.08,-0.27,-0.26,-0.28
119.92,1.03,1.34,1.03,1.33,-1.33,-1.48,-1.07,-0.30,-0.30,-0.31
121.12,1.02,1.36,1.02,1.35,-1.35,-1.50,-1.06,-0.33,-0.33,-0.34
122.33,1.01,1.38,1.00,1.37,-1.37,-1.52,-1.06,-0.36,-0.37,-0.37
123.55,1.00,1.40,0.99,1.39,-1.39,-1.54,-1.06,-0.39,-0.40,-0.40
124.79,0.98,1.41,0.97,1.40,-1.40,-1.56,-1.05,-0.42,-0.43,-0.43
126.03,0.96,1.41,0.95,1.41,-1.41,-1.58,-1.05,-0.45,-0.46,-0.45
127.29,0.94,1.42,0.93,1.42,-1.42,-1.59,-1.05,-0.48,-0.48,-0.48
128.57,0.92,1.44,0.91,1.42,-1.42,-1.61,-1.05,-0.50,-0.51,-0.52
129.85,0.89,1.43,0.88,1.42,-1.42,-1.62,-1.05,-0.53,-0.54,-0.54
131.15,0.86,1.43,0.85,1.42,-1.42,-1.63,-1.05,-0.56,-0.57,-0.57
132.46,0.83,1.44,0.82,1.42,-1.42,-1.65,-1.06,-0.59,-0.60,-0.61
133.79,0.80,1.43,0.79,1.42,-1.42,-1.66,-1.06,-0.62,-0.63,-0.63
135.12,0.75,1.41,0.76,1.42,-1.42,-1.67,-1.06,-0.67,-0.66,-0.66
136.48,0.73,1.42,0.73,1.43,-1.43,-1.68,-1.07,-0.70,-0.69,-0.69
137.84,0.69,1.41,0.71,1.43,-1.43,-1.69,-1.07,-0.74,-0.72,-0.72
139.22,0.68,1.45,0.69,1.45,-1.45,-1.70,-1.08,-0.77,-0.76,-0.77
140.61,0.66,1.46,0.67,1.46,-1.46,-1.71,-1.08,-0.80,-0.79,-0.80
142.02,0.63,1.45,0.66,1.48,-1.48,-1.71,-1.09,-0.85,-0.82,-0.82
143.44,0.63,1.49,0.65,1.51,-1.51,-1.72,-1.10,-0.88,-0.86,-0.86
144.87,0.63,1.53,0.64,1.53,-1.53,-1.73,-1.11,-0.90,-0.89,-0.90
146.32,0.64,1.58,0.63,1.56,-1.56,-1.74,-1.12,-0.92,-0.93,-0.94
147.78,0.64,1.61,0.63,1.60,-1.60,-1.74,-1.13,-0.96,-0.97,-0.97
149.26,0.65,1.65,0.63,1.64,-1.64,-1.75,-1.14,-0.99,-1.01,-1.00
150.75,0.65,1.70,0.64,1.68,-1.68,-1.75,-1.16,-1.03,-1.05,-1.05
152.26,0.65,1.74,0.64,1.73,-1.73,-1.76,-1.17,-1.08,-1.09,-1.09
153.78,0.65,1.77,0.65,1.78,-1.78,-1.76,-1.19,-1.13,-1.13,-1.12
155.32,0.65,1.82,0.66,1.82,-1.82,-1.77,-1.20,-1.17,-1.17,-1.17
156.88,0.65,1.85,0.66,1.87,-1.87,-1.77,-1.22,-1.22,-1.21,-1.20
158.44,0.65,1.91,0.67,1.92,-1.92,-1.78,-1.24,-1.27,-1.25,-1.26
160.03,0.66,1.96,0.67,1.96,-1.96,-1.78,-1.26,-1.30,-1.30,-1.30
161.63,0.67,2.02,0.67,2.00,-2.00,-1.79,-1.28,-1.33,-1.34,-1.35
163.24,0.67,2.06,0.66,2.04,-2.04,-1.79,-1.30,-1.37,-1.38,-1.39
164.88,0.67,2.10,0.65,2.08,-2.08,-1.79,-1.32,-1.41,-1.42,-1.43
166.53,0.66,2.13,0.64,2.11,-2.11,-1.80,-1.34,-1.45,-1.47,-1.47
168.19,0.65,2.16,0.63,2.13,-2.13,-1.80,-1.37,-1.48,-1.51,-1.51
169.87,0.62,2.17,0.61,2.15,-2.15,-1.80,-1.40,-1.53,-1.55,-1.55
171.57,0.60,2.18,0.59,2.17,-2.17,-1.81,-1.42,-1.57,-1.58,-1.58
173.29,0.57,2.19,0.56,2.18,-2.18,-1.81,-1.45,-1.61,-1.62,-1.62
175.02,0.53,2.19,0.53,2.18,-2.18,-1.81,-1.48,-1.65,-1.65,-1.66
176.77,0.50,2.19,0.50,2.18,-2.18,-1.81,-1.51,-1.68,-1.68,-1.69
178.54,0.47,2.19,0.47,2.18,-2.18,-1.82,-1.54,-1.71,-1.71,-1.72
180.32,0.44,2.19,0.44,2.17,-2.17,-1.82,-1.57,-1.74,-1.74,-1.75
182.13,0.41,2.18,0.41,2.17,-2.17,-1.82,-1.61,-1.76,-1.76,-1.77
183.95,0.37,2.16,0.39,2.17,-2.17,-1.82,-1.64,-1.80,-1.78,-1.79
185.79,0.34,2.15,0.36,2.17,-2.17,-1.83,-1.68,-1.83,-1.81,-1.81
187.65,0.32,2.15,0.34,2.17,-2.17,-1.83,-1.72,-1.85,-1.82,-1.83
189.52,0.31,2.15,0.33,2.17,-2.17,-1.83,-1.75,-1.86,-1.84,-1.84
191.42,0.30,2.16,0.32,2.18,-2.18,-1.83,-1.79,-1.88,-1.86,-1.86
193.33,0.30,2.17,0.31,2.18,-2.18,-1.83,-1.83,-1.88,-1.87,-1.87
195.27,0.31,2.19,0.31,2.19,-2.19,-1.83,-1.87,-1.88,-1.88,-1.88
197.22,0.32,2.22,0.30,2.20,-2.20,-1.84,-1.92,-1.88,-1.90,-1.90
199.19,0.32,2.24,0.30,2.21,-2.21,-1.84,-1.96,-1.89,-1.91,-1.92
201.18,0.32,2.25,0.31,2.23,-2.23,-1.84,-2.00,-1.91,-1.92,-1.93
203.19,0.32,2.25,0.31,2.24,-2.24,-1.84,-2.04,-1.92,-1.93,-1.93
205.23,0.32,2.27,0.32,2.26,-2.26,-1.84,-2.09,-1.94,-1.95,-1.95
207.28,0.32,2.27,0.33,2.28,-2.28,-1.84,-2.13,-1.96,-1.96,-1.95
209.35,0.32,2.29,0.33,2.30,-2.30,-1.84,-2.17,-1.98,-1.97,-1.97
211.44,0.32,2.31,0.34,2.32,-2.32,-1.84,-2.21,-2.00,-1.98,-1.99
213.56,0.32,2.32,0.34,2.33,-2.33,-1.84,-2.26,-2.01,-1.99,-2.00
215.69,0.33,2.33,0.34,2.34,-2.34,-1.85,-2.30,-2.01,-2.00,-2.00
217.85,0.34,2.36,0.34,2.35,-2.35,-1.85,-2.34,-2.01,-2.01,-2.02
220.03,0.35,2.38,0.33,2.36,-2.36,-1.85,-2.38,-2.01,-2.03,-2.03
222.23,0.35,2.40,0.33,2.37,-2.37,-1.85,-2.41,-2.02,-2.04,-2.05
224.45,0.34,2.39,0.32,2.37,-2.37,-1.85,-2.45,-2.03,-2.05,-2.05
226.70,0.32,2.39,0.30,2.37,-2.37,-1.85,-2.48,-2.05,-2.07,-2.07
228.96,0.30,2.38,0.29,2.37,-2.37,-1.85,-2.52,-2.07,-2.08,-2.08
231.25,0.28,2.37,0.27,2.36,-2.36,-1.85,-2.54,-2.08,-2.10,-2.09
233.57,0.25,2.36,0.24,2.35,-2.35,-1.85,-2.57,-2.10,-2.11,-2.11
235.90,0.21,2.33,0.21,2.34,-2.34,-1.85,-2.59,-2.13,-2.13,-2.12
238.26,0.19,2.33,0.18,2.32,-2.32,-1.85,-2.62,-2.13,-2.14,-2.14
240.64,0.15,2.31,0.15,2.30,-2.30,-1.85,-2.63,-2.15,-2.15,-2.16
243.05,0.12,2.29,0.12,2.28,-2.28,-1.85,-2.65,-2.16,-2.16,-2.17
245.48,0.09,2.27,0.09,2.26,-2.26,-1.85,-2.66,-2.17,-2.17,-2.18
247.93,0.05,2.24,0.07,2.25,-2.25,-1.85,-2.66,-2.20,-2.18,-2.19
250.41,0.03,2.23,0.04,2.23,-2.23,-1.85,-2.67,-2.20,-2.18,-2.20
252.92,0.00,2.19,0.02,2.21,-2.21,-1.85,-2.67,-2.21,-2.18,-2.19
255.45,-0.01,2.18,0.01,2.19,-2.19,-1.85,-2.66,-2.20,-2.18,-2.19
258.00,-0.02,2.16,-0.01,2.17,-2.17,-1.85,-2.65,-2.19,-2.18,-2.18
260.58,-0.02,2.16,-0.01,2.16,-2.16,-1.85,-2.64,-2.18,-2.17,-2.18
263.19,-0.01,2.16,-0.02,2.14,-2.14,-1.85,-2.63,-2.15,-2.16,-2.17
265.82,-0.01,2.15,-0.02,2.13,-2.13,-1.85,-2.61,-2.14,-2.15,-2.16
268.48,-0.01,2.13,-0.02,2.11,-2.11,-1.85,-2.59,-2.12,-2.14,-2.14
271.16,-0.01,2.11,-0.02,2.10,-2.10,-1.85,-2.57,-2.11,-2.12,-2.12
273.87,-0.01,2.10,-0.01,2.10,-2.10,-1.85,-2.54,-2.11,-2.11,-2.11
276.61,-0.01,2.07,-0.00,2.09,-2.09,-1.85,-2.51,-2.10,-2.09,-2.08
279.38,-0.00,2.08,0.01,2.09,-2.09,-1.85,-2.48,-2.09,-2.08,-2.08
282.17,0.01,2.07,0.03,2.09,-2.09,-1.85,-2.45,-2.08,-2.06,-2.06
284.99,0.02,2.07,0.04,2.08,-2.08,-1.85,-2.42,-2.06,-2.05,-2.05
287.84,0.04,2.07,0.05,2.08,-2.08,-1.85,-2.38,-2.04,-2.03,-2.03
290.72,0.06,2.07,0.06,2.07,-2.07,-1.85,-2.35,-2.01,-2.01,-2.01
293.63,0.08,2.08,0.07,2.06,-2.06,-1.85,-2.31,-1.98,-1.99,-2.00
296.57,0.10,2.07,0.08,2.05,-2.05,-1.85,-2.27,-1.95,-1.97,-1.97
299.53,0.12,2.08,0.09,2.04,-2.04,-1.85,-2.24,-1.92,-1.95,-1.96
302.53,0.13,2.08,0.10,2.03,-2.03,-1.85,-2.20,-1.90,-1.93,-1.95
305.55,0.12,2.04,0.10,2.01,-2.01,-1.85,-2.16,-1.89,-1.91,-1.92
308.61,0.12,2.02,0.11,2.00,-2.00,-1.84,-2.12,-1.88,-1.89,-1.90
311.69,0.11,1.98,0.11,1.98,-1.98,-1.84,-2.08,-1.87,-1.87,-1.87
314.81,0.10,1.93,0.11,1.96,-1.96,-1.84,-2.05,-1.86,-1.85,-1.83
317.96,0.10,1.92,0.11,1.93,-1.93,-1.84,-2.01,-1.83,-1.82,-1.82
321.14,0.10,1.90,0.11,1.91,-1.91,-1.84,-1.98,-1.81,-1.80,-1.80
324.35,0.11,1.89,0.12,1.90,-1.90,-1.84,-1.94,-1.79,-1.78,-1.78
327.59,0.11,1.87,0.13,1.88,-1.88,-1.84,-1.91,-1.77,-1.75,-1.76
330.87,0.12,1.86,0.14,1.87,-1.87,-1.84,-1.87,-1.75,-1.73,-1.74
334.18,0.13,1.84,0.16,1.86,-1.86,-1.84,-1.84,-1.73,-1.71,-1.71
337.52,0.16,1.85,0.17,1.86,-1.86,-1.84,-1.81,-1.70,-1.68,-1.69
340.90,0.18,1.85,0.20,1.86,-1.86,-1.83,-1.78,-1.68,-1.66,-1.67
344.30,0.21,1.85,0.22,1.85,-1.85,-1.83,-1.76,-1.64,-1.64,-1.64
347.75,0.24,1.86,0.24,1.85,-1.85,-1.83,-1.73,-1.61,-1.61,-1.62
351.23,0.27,1.86,0.26,1.85,-1.85,-1.83,-1.70,-1.58,-1.59,-1.59
354.74,0.30,1.86,0.28,1.84,-1.84,-1.83,-1.68,-1.54,-1.56,-1.56
358.28,0.33,1.88,0.30,1.84,-1.84,-1.83,-1.66,-1.51,-1.54,-1.55
361.87,0.34,1.86,0.31,1.83,-1.83,-1.83,-1.63,-1.49,-1.52,-1.52
365.49,0.35,1.84,0.32,1.81,-1.81,-1.82,-1.61,-1.46,-1.49,-1.49
369.14,0.34,1.82,0.33,1.80,-1.80,-1.82,-1.60,-1.46,-1.47,-1.48
372.83,0.34,1.79,0.34,1.78,-1.78,-1.82,-1.58,-1.44,-1.45,-1.45
376.56,0.33,1.76,0.34,1.76,-1.76,-1.82,-1.56,-1.43,-1.42,-1.43
380.33,0.32,1.72,0.34,1.74,-1.74,-1.82,-1.55,-1.42,-1.40,-1.40
384.13,0.32,1.71,0.34,1.72,-1.72,-1.81,-1.53,-1.40,-1.38,-1.39
387.97,0.32,1.69,0.33,1.70,-1.70,-1.81,-1.52,-1.38,-1.37,-1.37
391.85,0.32,1.68,0.33,1.68,-1.68,-1.81,-1.51,-1.36,-1.35,-1.36
395.77,0.32,1.65,0.32,1.66,-1.66,-1.81,-1.50,-1.34,-1.34,-1.33
399.73,0.32,1.64,0.32,1.65,-1.65,-1.81,-1.49,-1.33,-1.33,-1.32
403.72,0.32,1.64,0.32,1.64,-1.64,-1.80,-1.48,-1.32,-1.32,-1.32
407.76,0.32,1.63,0.32,1.63,-1.63,-1.80,-1.47,-1.31,-1.31,-1.31
411.84,0.32,1.62,0.32,1.62,-1.62,-1.80,-1.47,-1.30,-1.31,-1.30
415.96,0.32,1.63,0.32,1.62,-1.62,-1.80,-1.46,-1.30,-1.31,-1.31
420.12,0.32,1.63,0.32,1.63,-1.63,-1.79,-1.45,-1.31,-1.31,-1.31
424.32,0.32,1.63,0.32,1.63,-1.63,-1.79,-1.45,-1.31,-1.31,-1.31
428.56,0.32,1.63,0.32,1.63,-1.63,-1.79,-1.45,-1.31,-1.31,-1.31
432.85,0.32,1.64,0.33,1.64,-1.64,-1.78,-1.44,-1.32,-1.31,-1.32
437.18,0.32,1.64,0.33,1.64,-1.64,-1.78,-1.44,-1.32,-1.31,-1.32
441.55,0.32,1.64,0.33,1.65,-1.65,-1.78,-1.44,-1.33,-1.32,-1.32
445.96,0.33,1.66,0.33,1.65,-1.65,-1.77,-1.43,-1.32,-1.32,-1.33
450.42,0.33,1.66,0.33,1.65,-1.65,-1.77,-1.43,-1.32,-1.32,-1.33
454.93,0.34,1.67,0.33,1.65,-1.65,-1.77,-1.43,-1.31,-1.33,-1.33
459.48,0.34,1.68,0.32,1.65,-1.65,-1.76,-1.43,-1.31,-1.33,-1.34
464.07,0.33,1.66,0.32,1.65,-1.65,-1.76,-1.43,-1.32,-1.33,-1.33
468.71,0.32,1.65,0.31,1.64,-1.64,-1.75,-1.43,-1.32,-1.33,-1.33
473.40,0.31,1.65,0.30,1.63,-1.63,-1.75,-1.42,-1.32,-1.33,-1.34
478.13,0.30,1.63,0.29,1.62,-1.62,-1.74,-1.42,-1.32,-1.33,-1.33
482.91,0.28,1.62,0.27,1.60,-1.60,-1.74,-1.42,-1.32,-1.33,-1.34
487.74,0.26,1.59,0.26,1.59,-1.59,-1.73,-1.42,-1.33,-1.33,-1.33
492.62,0.24,1.56,0.25,1.57,-1.57,-1.73,-1.41,-1.33,-1.33,-1.32
497.55,0.22,1.55,0.24,1.56,-1.56,-1.72,-1.41,-1.34,-1.32,-1.33
502.52,0.21,1.53,0.23,1.54,-1.54,-1.71,-1.40,-1.33,-1.32,-1.32
