frequency,raw,error,smoothed,error_smoothed,equalization,parametric_eq,fixed_band_eq,equalized_raw,equalized_smoothed,target
20.00,-10.70,-15.50,-10.64,-15.46,15.46,14.48,6.15,4.76,4.82,4.80
20.20,-10.64,-15.46,-10.56,-15.40,15.40,14.54,6.30,4.76,4.84,4.83
20.40,-10.58,-15.43,-10.48,-15.35,15.35,14.59,6.45,4.77,4.86,4.86
20.61,-10.45,-15.33,-10.41,-15.29,15.29,14.63,6.60,4.84,4.88,4.88
20.81,-10.31,-15.21,-10.34,-15.24,15.24,14.67,6.76,4.93,4.90,4.91
21.02,-10.20,-15.13,-10.27,-15.18,15.18,14.69,6.92,4.98,4.91,4.94
21.23,-10.10,-15.04,-10.20,-15.13,15.13,14.71,7.09,5.03,4.93,4.94
21.44,-10.01,-14.96,-10.14,-15.07,15.07,14.71,7.26,5.07,4.94,4.95
21.66,-9.94,-14.90,-10.07,-15.02,15.02,14.71,7.43,5.08,4.95,4.96
21.87,-9.88,-14.84,-10.01,-14.96,14.96,14.70,7.61,5.09,4.96,4.96
22.09,-9.87,-14.84,-9.95,-14.91,14.91,14.68,7.80,5.04,4.97,4.97
22.31,-9.87,-14.84,-9.89,-14.86,14.86,14.65,7.99,4.99,4.97,4.97
22.54,-9.87,-14.84,-9.85,-14.82,14.82,14.61,8.18,4.95,4.97,4.97
22.76,-9.87,-14.84,-9.81,-14.78,14.78,14.57,8.38,4.92,4.97,4.97
22.99,-9.82,-14.78,-9.78,-14.75,14.75,14.52,8.59,4.93,4.97,4.96
23.22,-9.80,-14.76,-9.74,-14.71,14.71,14.46,8.80,4.91,4.97,4.96
23.45,-9.75,-14.71,-9.69,-14.66,14.66,14.39,9.01,4.91,4.97,4.96
23.69,-9.67,-14.63,-9.63,-14.60,14.60,14.32,9.23,4.93,4.96,4.96
23.92,-9.60,-14.55,-9.56,-14.52,14.52,14.25,9.46,4.93,4.96,4.96
24.16,-9.50,-14.46,-9.48,-14.44,14.44,14.17,9.69,4.94,4.96,4.97
24.40,-9.41,-14.37,-9.39,-14.34,14.34,14.08,9.93,4.94,4.96,4.96
24.65,-9.30,-14.25,-9.28,-14.24,14.24,14.00,10.17,4.94,4.95,4.95
24.89,-9.19,-14.14,-9.17,-14.12,14.12,13.91,10.42,4.93,4.95,4.95
25.14,-9.06,-14.01,-9.05,-14.00,14.00,13.81,10.67,4.94,4.95,4.95
25.39,-8.93,-13.88,-8.93,-13.88,13.88,13.72,10.93,4.95,4.95,4.95
25.65,-8.80,-13.75,-8.81,-13.76,13.76,13.62,11.19,4.96,4.95,4.95
25.91,-8.68,-13.62,-8.70,-13.64,13.64,13.52,11.46,4.96,4.95,4.94
26.16,-8.55,-13.48,-8.59,-13.53,13.53,13.42,11.73,4.98,4.94,4.94
26.43,-8.45,-13.39,-8.48,-13.42,13.42,13.32,12.00,4.97,4.94,4.94
26.69,-8.34,-13.27,-8.38,-13.32,13.32,13.22,12.28,4.98,4.94,4.94
26.96,-8.25,-13.18,-8.29,-13.22,13.22,13.11,12.56,4.97,4.93,4.93
27.23,-8.17,-13.10,-8.21,-13.14,13.14,13.01,12.84,4.97,4.93,4.93
27.50,-8.11,-13.04,-8.13,-13.05,13.05,12.91,13.12,4.94,4.92,4.93
27.77,-8.06,-12.98,-8.05,-12.97,12.97,12.81,13.39,4.92,4.92,4.92
28.05,-8.00,-12.92,-7.98,-12.90,12.90,12.71,13.66,4.90,4.92,4.92
28.33,-7.94,-12.84,-7.92,-12.83,12.83,12.61,13.92,4.89,4.91,4.91
28.62,-7.89,-12.79,-7.85,-12.76,12.76,12.51,14.18,4.87,4.91,4.90
28.90,-7.81,-12.71,-7.79,-12.69,12.69,12.41,14.42,4.88,4.90,4.90
29.19,-7.74,-12.63,-7.72,-12.62,12.62,12.32,14.64,4.88,4.90,4.89
29.48,-7.66,-12.56,-7.65,-12.54,12.54,12.22,14.85,4.88,4.89,4.90
29.78,-7.58,-12.47,-7.57,-12.46,12.46,12.13,15.03,4.88,4.89,4.89
30.08,-7.51,-12.39,-7.50,-12.38,12.38,12.04,15.19,4.87,4.88,4.89
30.38,-7.41,-12.28,-7.42,-12.29,12.29,11.95,15.32,4.88,4.87,4.87
30.68,-7.35,-12.22,-7.33,-12.20,12.20,11.86,15.41,4.85,4.87,4.87
30.99,-7.25,-12.11,-7.25,-12.11,12.11,11.78,15.48,4.86,4.86,4.86
31.30,-7.18,-12.03,-7.16,-12.02,12.02,11.69,15.51,4.84,4.86,4.86
31.61,-7.07,-11.92,-7.08,-11.93,11.93,11.61,15.51,4.86,4.85,4.85
31.93,-7.01,-11.85,-6.99,-11.84,11.84,11.53,15.47,4.83,4.84,4.84
32.24,-6.90,-11.73,-6.92,-11.75,11.75,11.45,15.40,4.85,4.84,4.83
32.57,-6.83,-11.65,-6.84,-11.67,11.67,11.38,15.30,4.84,4.83,4.83
32.89,-6.75,-11.57,-6.77,-11.59,11.59,11.30,15.18,4.84,4.82,4.82
33.22,-6.68,-11.49,-6.70,-11.51,11.51,11.23,15.03,4.83,4.81,4.81
33.55,-6.62,-11.42,-6.63,-11.44,11.44,11.16,14.86,4.82,4.80,4.81
33.89,-6.56,-11.35,-6.57,-11.37,11.37,11.09,14.67,4.81,4.79,4.79
34.23,-6.49,-11.28,-6.51,-11.30,11.30,11.02,14.47,4.81,4.79,4.79
34.57,-6.46,-11.23,-6.46,-11.23,11.23,10.96,14.25,4.78,4.78,4.78
34.92,-6.41,-11.17,-6.40,-11.17,11.17,10.90,14.03,4.76,4.77,4.76
35.27,-6.38,-11.14,-6.35,-11.11,11.11,10.84,13.80,4.73,4.76,4.76
35.62,-6.32,-11.06,-6.30,-11.04,11.04,10.78,13.57,4.73,4.75,4.75
35.97,-6.27,-11.00,-6.25,-10.98,10.98,10.72,13.34,4.72,4.74,4.73
36.33,-6.22,-10.94,-6.20,-10.92,10.92,10.66,13.11,4.70,4.72,4.73
36.70,-6.16,-10.87,-6.15,-10.86,10.86,10.61,12.88,4.70,4.71,4.71
37.06,-6.09,-10.78,-6.10,-10.80,10.80,10.56,12.65,4.71,4.70,4.70
37.43,-6.03,-10.72,-6.04,-10.73,10.73,10.51,12.43,4.71,4.69,4.69
37.81,-5.98,-10.66,-5.99,-10.67,10.67,10.46,12.21,4.69,4.68,4.68
38.19,-5.93,-10.59,-5.94,-10.60,10.60,10.41,11.99,4.67,4.66,4.66
38.57,-5.88,-10.54,-5.88,-10.53,10.53,10.36,11.78,4.66,4.65,4.66
38.95,-5.83,-10.47,-5.83,-10.47,10.47,10.32,11.58,4.64,4.64,4.64
39.34,-5.78,-10.40,-5.77,-10.40,10.40,10.27,11.38,4.62,4.63,4.63
39.74,-5.72,-10.33,-5.71,-10.33,10.33,10.23,11.19,4.61,4.62,4.61
40.14,-5.69,-10.29,-5.66,-10.26,10.26,10.18,11.01,4.58,4.61,4.60
40.54,-5.62,-10.21,-5.60,-10.20,10.20,10.14,10.83,4.58,4.59,4.59
40.94,-5.56,-10.14,-5.55,-10.13,10.13,10.10,10.66,4.58,4.58,4.58
41.35,-5.50,-10.06,-5.50,-10.07,10.07,10.06,10.50,4.57,4.57,4.56
41.76,-5.44,-9.99,-5.45,-10.01,10.01,10.02,10.34,4.57,4.55,4.56
42.18,-5.38,-9.93,-5.40,-9.94,9.94,9.98,10.19,4.56,4.54,4.55
42.60,-5.34,-9.87,-5.35,-9.88,9.88,9.94,10.04,4.54,4.53,4.53
43.03,-5.29,-9.81,-5.30,-9.81,9.81,9.90,9.91,4.53,4.51,4.52
43.46,-5.26,-9.76,-5.26,-9.75,9.75,9.86,9.77,4.49,4.49,4.50
43.90,-5.23,-9.70,-5.21,-9.69,9.69,9.82,9.65,4.46,4.48,4.48
44.33,-5.17,-9.62,-5.17,-9.63,9.63,9.78,9.53,4.46,4.46,4.46
44.78,-5.14,-9.58,-5.13,-9.57,9.57,9.74,9.42,4.43,4.45,4.44
45.23,-5.11,-9.53,-5.09,-9.52,9.52,9.69,9.31,4.41,4.43,4.42
45.68,-5.05,-9.45,-5.05,-9.46,9.46,9.65,9.21,4.41,4.41,4.40
46.13,-5.02,-9.39,-5.02,-9.40,9.40,9.61,9.12,4.39,4.39,4.38
46.60,-4.97,-9.33,-4.98,-9.35,9.35,9.56,9.03,4.38,4.36,4.37
47.06,-4.94,-9.28,-4.95,-9.29,9.29,9.52,8.95,4.35,4.34,4.35
47.53,-4.91,-9.23,-4.91,-9.23,9.23,9.47,8.87,4.32,4.32,4.32
48.01,-4.88,-9.19,-4.88,-9.17,9.17,9.42,8.80,4.29,4.29,4.31
48.49,-4.84,-9.12,-4.84,-9.11,9.11,9.37,8.73,4.28,4.27,4.28
48.97,-4.81,-9.05,-4.81,-9.05,9.05,9.32,8.67,4.25,4.24,4.25
49.46,-4.79,-9.00,-4.77,-8.99,8.99,9.27,8.61,4.21,4.22,4.21
49.96,-4.75,-8.93,-4.74,-8.93,8.93,9.22,8.56,4.18,4.19,4.18
50.46,-4.72,-8.88,-4.70,-8.87,8.87,9.16,8.50,4.15,4.17,4.16
50.96,-4.69,-8.83,-4.67,-8.81,8.81,9.10,8.46,4.12,4.14,4.14
51.47,-4.63,-8.73,-4.63,-8.74,8.74,9.04,8.41,4.12,4.11,4.10
51.99,-4.60,-8.68,-4.59,-8.68,8.68,8.98,8.37,4.08,4.08,4.08
52.51,-4.55,-8.61,-4.56,-8.61,8.61,8.92,8.34,4.07,4.06,4.06
53.03,-4.52,-8.55,-4.52,-8.55,8.55,8.85,8.30,4.03,4.03,4.03
53.56,-4.46,-8.46,-4.48,-8.48,8.48,8.78,8.26,4.02,4.00,4.01
54.10,-4.43,-8.41,-4.44,-8.42,8.42,8.71,8.23,3.99,3.97,3.98
54.64,-4.40,-8.35,-4.40,-8.35,8.35,8.64,8.20,3.95,3.95,3.95
55.18,-4.37,-8.29,-4.36,-8.28,8.28,8.57,8.17,3.91,3.92,3.92
55.74,-4.32,-8.21,-4.32,-8.21,8.21,8.49,8.13,3.90,3.90,3.89
56.29,-4.28,-8.15,-4.28,-8.15,8.15,8.41,8.10,3.87,3.87,3.87
56.86,-4.25,-8.09,-4.23,-8.08,8.08,8.33,8.07,3.83,3.84,3.84
57.42,-4.20,-8.00,-4.19,-8.01,8.01,8.25,8.03,3.81,3.82,3.81
58.00,-4.16,-7.94,-4.15,-7.93,7.93,8.17,7.99,3.78,3.79,3.78
58.58,-4.11,-7.87,-4.10,-7.86,7.86,8.08,7.95,3.75,3.76,3.76
59.16,-4.06,-7.79,-4.06,-7.79,7.79,8.00,7.90,3.73,3.73,3.73
59.76,-4.02,-7.73,-4.02,-7.71,7.71,7.91,7.86,3.70,3.70,3.71
60.35,-3.97,-7.64,-3.97,-7.64,7.64,7.82,7.80,3.67,3.67,3.67
60.96,-3.92,-7.56,-3.93,-7.56,7.56,7.73,7.75,3.64,3.63,3.65
61.57,-3.89,-7.49,-3.88,-7.49,7.49,7.64,7.69,3.60,3.60,3.60
62.18,-3.83,-7.39,-3.84,-7.41,7.41,7.54,7.62,3.58,3.57,3.56
62.80,-3.80,-7.33,-3.80,-7.34,7.34,7.45,7.55,3.54,3.54,3.53
63.43,-3.76,-7.25,-3.76,-7.26,7.26,7.35,7.48,3.50,3.50,3.49
64.07,-3.72,-7.18,-3.72,-7.19,7.19,7.26,7.40,3.47,3.47,3.46
64.71,-3.69,-7.12,-3.69,-7.12,7.12,7.16,7.31,3.43,3.43,3.43
65.35,-3.65,-7.04,-3.65,-7.05,7.05,7.07,7.22,3.40,3.40,3.40
66.01,-3.62,-6.98,-3.62,-6.98,6.98,6.97,7.13,3.36,3.36,3.36
66.67,-3.57,-6.90,-3.58,-6.91,6.91,6.87,7.03,3.34,3.33,3.33
67.33,-3.56,-6.85,-3.55,-6.84,6.84,6.77,6.93,3.28,3.29,3.29
68.01,-3.53,-6.78,-3.51,-6.77,6.77,6.67,6.83,3.24,3.25,3.26
68.69,-3.48,-6.70,-3.48,-6.70,6.70,6.57,6.72,3.22,3.22,3.22
69.37,-3.44,-6.62,-3.45,-6.63,6.63,6.48,6.61,3.19,3.18,3.18
70.07,-3.41,-6.55,-3.41,-6.55,6.55,6.38,6.50,3.14,3.14,3.14
70.77,-3.38,-6.49,-3.37,-6.48,6.48,6.28,6.38,3.10,3.10,3.11
71.48,-3.34,-6.41,-3.33,-6.40,6.40,6.18,6.27,3.06,3.07,3.07
72.19,-3.30,-6.33,-3.30,-6.32,6.32,6.08,6.15,3.02,3.03,3.03
72.91,-3.26,-6.24,-3.26,-6.24,6.24,5.98,6.04,2.98,2.99,2.98
73.64,-3.22,-6.16,-3.21,-6.16,6.16,5.89,5.92,2.94,2.95,2.94
74.38,-3.18,-6.08,-3.17,-6.08,6.08,5.79,5.80,2.90,2.90,2.90
75.12,-3.13,-5.99,-3.13,-5.99,5.99,5.69,5.69,2.86,2.86,2.86
75.87,-3.09,-5.91,-3.08,-5.91,5.91,5.60,5.57,2.82,2.82,2.82
76.63,-3.04,-5.82,-3.04,-5.82,5.82,5.50,5.46,2.78,2.78,2.78
77.40,-2.99,-5.73,-2.99,-5.74,5.74,5.41,5.34,2.75,2.74,2.74
78.17,-2.95,-5.64,-2.95,-5.65,5.65,5.32,5.23,2.70,2.70,2.69
78.95,-2.90,-5.56,-2.90,-5.56,5.56,5.23,5.12,2.66,2.66,2.66
79.74,-2.85,-5.47,-2.85,-5.47,5.47,5.13,5.02,2.63,2.62,2.62
80.54,-2.81,-5.39,-2.81,-5.39,5.39,5.04,4.91,2.58,2.58,2.58
81.35,-2.76,-5.29,-2.76,-5.30,5.30,4.95,4.81,2.54,2.53,2.53
82.16,-2.73,-5.22,-2.72,-5.21,5.21,4.87,4.71,2.48,2.49,2.49
82.98,-2.67,-5.12,-2.67,-5.12,5.12,4.78,4.61,2.45,2.45,2.45
83.81,-2.64,-5.04,-2.63,-5.03,5.03,4.69,4.51,2.39,2.40,2.40
84.65,-2.59,-4.94,-2.58,-4.94,4.94,4.61,4.42,2.35,2.36,2.35
85.50,-2.56,-4.87,-2.54,-4.85,4.85,4.52,4.33,2.29,2.31,2.31
86.35,-2.50,-4.76,-2.50,-4.76,4.76,4.44,4.24,2.27,2.26,2.26
87.22,-2.47,-4.68,-2.46,-4.68,4.68,4.36,4.16,2.21,2.22,2.21
88.09,-2.42,-4.58,-2.42,-4.59,4.59,4.27,4.08,2.17,2.17,2.16
88.97,-2.39,-4.51,-2.39,-4.51,4.51,4.19,4.00,2.12,2.12,2.12
89.86,-2.35,-4.42,-2.36,-4.42,4.42,4.11,3.92,2.08,2.07,2.07
90.76,-2.32,-4.33,-2.33,-4.34,4.34,4.04,3.85,2.02,2.01,2.01
91.66,-2.29,-4.25,-2.30,-4.26,4.26,3.96,3.78,1.98,1.96,1.96
92.58,-2.27,-4.17,-2.28,-4.19,4.19,3.88,3.71,1.92,1.91,1.90
93.51,-2.27,-4.12,-2.26,-4.12,4.12,3.81,3.64,1.85,1.85,1.86
94.44,-2.27,-4.07,-2.25,-4.04,4.04,3.74,3.58,1.78,1.80,1.80
95.39,-2.22,-3.96,-2.24,-3.98,3.98,3.66,3.51,1.76,1.74,1.75
96.34,-2.22,-3.90,-2.23,-3.91,3.91,3.59,3.45,1.69,1.68,1.68
97.30,-2.22,-3.84,-2.22,-3.85,3.85,3.52,3.40,1.63,1.63,1.62
98.28,-2.22,-3.79,-2.22,-3.79,3.79,3.45,3.34,1.57,1.57,1.57
99.26,-2.22,-3.73,-2.21,-3.73,3.73,3.38,3.29,1.51,1.51,1.51
100.25,-2.22,-3.67,-2.21,-3.67,3.67,3.32,3.24,1.45,1.46,1.45
101.25,-2.22,-3.62,-2.21,-3.61,3.61,3.25,3.19,1.39,1.40,1.40
102.27,-2.22,-3.56,-2.21,-3.55,3.55,3.19,3.14,1.33,1.34,1.34
103.29,-2.22,-3.49,-2.21,-3.49,3.49,3.12,3.10,1.28,1.28,1.27
104.32,-2.22,-3.44,-2.21,-3.44,3.44,3.06,3.05,1.22,1.22,1.22
105.37,-2.22,-3.38,-2.22,-3.38,3.38,3.00,3.01,1.17,1.16,1.17
106.42,-2.22,-3.33,-2.22,-3.33,3.33,2.94,2.97,1.11,1.11,1.11
107.48,-2.22,-3.27,-2.23,-3.28,3.28,2.88,2.93,1.06,1.05,1.05
108.56,-2.22,-3.20,-2.23,-3.22,3.22,2.82,2.89,1.00,0.99,0.98
109.64,-2.22,-3.14,-2.24,-3.16,3.16,2.76,2.85,0.94,0.92,0.93
110.74,-2.25,-3.12,-2.24,-3.10,3.10,2.70,2.81,0.85,0.86,0.87
111.85,-2.27,-3.08,-2.24,-3.04,3.04,2.64,2.77,0.78,0.80,0.81
112.97,-2.27,-3.00,-2.25,-2.99,2.99,2.59,2.73,0.72,0.74,0.73
114.10,-2.27,-2.95,-2.26,-2.93,2.93,2.53,2.70,0.66,0.68,0.68
115.24,-2.27,-2.88,-2.26,-2.88,2.88,2.48,2.66,0.61,0.61,0.61
116.39,-2.27,-2.81,-2.27,-2.82,2.82,2.43,2.62,0.55,0.55,0.55
117.55,-2.27,-2.75,-2.28,-2.76,2.76,2.37,2.59,0.50,0.49,0.48
118.73,-2.27,-2.68,-2.28,-2.71,2.71,2.32,2.55,0.44,0.42,0.42
119.92,-2.27,-2.63,-2.29,-2.65,2.65,2.27,2.51,0.38,0.36,0.36
121.12,-2.29,-2.58,-2.30,-2.59,2.59,2.22,2.47,0.31,0.30,0.30
122.33,-2.31,-2.54,-2.30,-2.53,2.53,2.17,2.43,0.23,0.24,0.23
123.55,-2.32,-2.50,-2.30,-2.48,2.48,2.12,2.39,0.16,0.17,0.18
124.79,-2.32,-2.44,-2.30,-2.42,2.42,2.08,2.35,0.10,0.11,0.12
126.03,-2.32,-2.38,-2.31,-2.36,2.36,2.03,2.31,0.04,0.05,0.06
127.29,-2.32,-2.31,-2.31,-2.30,2.30,1.98,2.27,-0.02,-0.01,-0.00
128.57,-2.32,-2.24,-2.31,-2.25,2.25,1.93,2.23,-0.07,-0.07,-0.07
129.85,-2.32,-2.19,-2.32,-2.19,2.19,1.89,2.18,-0.13,-0.13,-0.13
131.15,-2.32,-2.13,-2.32,-2.13,2.13,1.84,2.14,-0.18,-0.19,-0.19
132.46,-2.32,-2.07,-2.32,-2.08,2.08,1.80,2.09,-0.24,-0.24,-0.25
133.79,-2.32,-2.02,-2.32,-2.02,2.02,1.75,2.05,-0.30,-0.30,-0.29
135.12,-2.32,-1.96,-2.32,-1.97,1.97,1.71,2.00,-0.35,-0.35,-0.36
136.48,-2.32,-1.91,-2.33,-1.92,1.92,1.67,1.95,-0.40,-0.41,-0.41
137.84,-2.32,-1.86,-2.33,-1.87,1.87,1.62,1.90,-0.44,-0.46,-0.46
139.22,-2.34,-1.82,-2.34,-1.83,1.83,1.58,1.85,-0.51,-0.51,-0.52
140.61,-2.36,-1.78,-2.35,-1.79,1.79,1.54,1.80,-0.57,-0.56,-0.57
142.02,-2.36,-1.75,-2.36,-1.75,1.75,1.50,1.75,-0.61,-0.61,-0.61
143.44,-2.36,-1.70,-2.36,-1.70,1.70,1.45,1.70,-0.65,-0.66,-0.66
144.87,-2.36,-1.65,-2.37,-1.66,1.66,1.41,1.65,-0.69,-0.70,-0.71
146.32,-2.39,-1.63,-2.38,-1.63,1.63,1.37,1.60,-0.76,-0.75,-0.75
147.78,-2.41,-1.62,-2.39,-1.59,1.59,1.33,1.55,-0.82,-0.80,-0.79
149.26,-2.41,-1.57,-2.40,-1.55,1.55,1.28,1.50,-0.86,-0.85,-0.84
150.75,-2.41,-1.51,-2.41,-1.51,1.51,1.24,1.45,-0.89,-0.89,-0.89
152.26,-2.41,-1.47,-2.42,-1.48,1.48,1.20,1.40,-0.93,-0.94,-0.94
153.78,-2.41,-1.43,-2.43,-1.44,1.44,1.16,1.35,-0.96,-0.99,-0.98
155.32,-2.41,-1.37,-2.44,-1.41,1.41,1.11,1.30,-1.00,-1.03,-1.03
156.88,-2.41,-1.33,-2.45,-1.37,1.37,1.07,1.25,-1.04,-1.08,-1.07
158.44,-2.43,-1.30,-2.46,-1.33,1.33,1.03,1.20,-1.10,-1.13,-1.13
160.03,-2.46,-1.28,-2.46,-1.29,1.29,0.98,1.15,-1.17,-1.17,-1.17
161.63,-2.46,-1.23,-2.45,-1.24,1.24,0.94,1.11,-1.22,-1.22,-1.22
163.24,-2.46,-1.19,-2.44,-1.18,1.18,0.89,1.06,-1.28,-1.26,-1.27
164.88,-2.46,-1.15,-2.42,-1.11,1.11,0.84,1.01,-1.35,-1.31,-1.31
166.53,-2.43,-1.07,-2.39,-1.04,1.04,0.79,0.96,-1.39,-1.35,-1.35
168.19,-2.40,-1.00,-2.35,-0.95,0.95,0.74,0.91,-1.45,-1.40,-1.40
169.87,-2.34,-0.90,-2.30,-0.85,0.85,0.69,0.87,-1.49,-1.44,-1.44
171.57,-2.29,-0.80,-2.23,-0.74,0.74,0.64,0.82,-1.54,-1.49,-1.48
173.29,-2.20,-0.67,-2.16,-0.63,0.63,0.58,0.77,-1.57,-1.53,-1.53
175.02,-2.11,-0.54,-2.08,-0.50,0.50,0.53,0.73,-1.60,-1.58,-1.57
176.77,-2.01,-0.39,-1.99,-0.37,0.37,0.47,0.68,-1.63,-1.62,-1.62
178.54,-1.90,-0.23,-1.91,-0.25,0.25,0.41,0.63,-1.65,-1.66,-1.67
180.32,-1.81,-0.10,-1.82,-0.12,0.12,0.35,0.59,-1.69,-1.70,-1.71
182.13,-1.70,0.05,-1.74,0.00,-0.00,0.28,0.54,-1.70,-1.75,-1.74
183.95,-1.63,0.16,-1.67,0.12,-0.12,0.21,0.50,-1.75,-1.79,-1.79
185.79,-1.55,0.28,-1.61,0.22,-0.22,0.15,0.46,-1.77,-1.83,-1.83
187.65,-1.50,0.37,-1.56,0.31,-0.31,0.07,0.41,-1.81,-1.87,-1.87
189.52,-1.48,0.43,-1.51,0.39,-0.39,0.00,0.37,-1.87,-1.91,-1.91
191.42,-1.48,0.46,-1.49,0.46,-0.46,-0.08,0.33,-1.93,-1.94,-1.94
193.33,-1.45,0.53,-1.47,0.51,-0.51,-0.15,0.28,-1.96,-1.98,-1.97
195.27,-1.46,0.55,-1.46,0.55,-0.55,-0.23,0.24,-2.00,-2.01,-2.01
197.22,-1.48,0.56,-1.47,0.57,-0.57,-0.30,0.20,-2.05,-2.04,-2.04
199.19,-1.48,0.60,-1.48,0.59,-0.59,-0.38,0.16,-2.07,-2.07,-2.08
201.18,-1.52,0.58,-1.49,0.60,-0.60,-0.45,0.12,-2.12,-2.10,-2.10
203.19,-1.52,0.60,-1.51,0.61,-0.61,-0.52,0.08,-2.12,-2.12,-2.12
205.23,-1.57,0.58,-1.54,0.61,-0.61,-0.58,0.04,-2.17,-2.14,-2.15
207.28,-1.57,0.59,-1.56,0.61,-0.61,-0.63,-0.00,-2.17,-2.17,-2.16
209.35,-1.61,0.58,-1.58,0.60,-0.60,-0.68,-0.04,-2.21,-2.19,-2.18
211.44,-1.62,0.59,-1.61,0.59,-0.59,-0.71,-0.08,-2.21,-2.20,-2.21
213.56,-1.64,0.58,-1.63,0.58,-0.58,-0.74,-0.11,-2.22,-2.22,-2.22
215.69,-1.66,0.57,-1.66,0.57,-0.57,-0.75,-0.15,-2.23,-2.23,-2.22
217.85,-1.67,0.57,-1.68,0.56,-0.56,-0.75,-0.18,-2.23,-2.24,-2.24
220.03,-1.71,0.55,-1.71,0.54,-0.54,-0.74,-0.22,-2.25,-2.25,-2.25
222.23,-1.71,0.56,-1.73,0.52,-0.52,-0.73,-0.25,-2.23,-2.26,-2.27
224.45,-1.76,0.51,-1.76,0.51,-0.51,-0.70,-0.28,-2.26,-2.26,-2.26
226.70,-1.77,0.50,-1.78,0.49,-0.49,-0.67,-0.31,-2.25,-2.27,-2.27
228.96,-1.80,0.47,-1.80,0.47,-0.47,-0.63,-0.34,-2.27,-2.27,-2.27
231.25,-1.85,0.41,-1.82,0.45,-0.45,-0.59,-0.36,-2.30,-2.27,-2.26
233.57,-1.85,0.42,-1.84,0.43,-0.43,-0.54,-0.39,-2.28,-2.27,-2.26
235.90,-1.87,0.40,-1.85,0.41,-0.41,-0.50,-0.41,-2.28,-2.27,-2.27
238.26,-1.90,0.37,-1.87,0.40,-0.40,-0.45,-0.43,-2.29,-2.26,-2.27
240.64,-1.90,0.36,-1.88,0.38,-0.38,-0.41,-0.45,-2.27,-2.26,-2.26
243.05,-1.90,0.35,-1.90,0.35,-0.35,-0.36,-0.47,-2.25,-2.25,-2.25
245.48,-1.90,0.34,-1.91,0.33,-0.33,-0.32,-0.48,-2.23,-2.24,-2.24
247.93,-1.90,0.33,-1.92,0.31,-0.31,-0.28,-0.49,-2.20,-2.23,-2.23
250.41,-1.90,0.33,-1.94,0.28,-0.28,-0.24,-0.50,-2.18,-2.22,-2.23
252.92,-1.90,0.31,-1.95,0.26,-0.26,-0.21,-0.51,-2.15,-2.21,-2.21
255.45,-1.93,0.26,-1.96,0.23,-0.23,-0.18,-0.52,-2.16,-2.19,-2.19
258.00,-1.94,0.24,-1.96,0.21,-0.21,-0.15,-0.52,-2.15,-2.18,-2.18
260.58,-1.94,0.23,-1.96,0.20,-0.20,-0.12,-0.52,-2.13,-2.16,-2.16
263.19,-1.98,0.16,-1.96,0.19,-0.19,-0.09,-0.52,-2.17,-2.14,-2.14
265.82,-1.99,0.14,-1.94,0.19,-0.19,-0.07,-0.52,-2.17,-2.13,-2.13
268.48,-1.98,0.13,-1.91,0.20,-0.20,-0.05,-0.51,-2.17,-2.11,-2.11
271.16,-1.94,0.15,-1.88,0.21,-0.21,-0.03,-0.51,-2.15,-2.09,-2.08
273.87,-1.92,0.15,-1.83,0.24,-0.24,-0.02,-0.50,-2.16,-2.07,-2.07
276.61,-1.84,0.21,-1.78,0.27,-0.27,0.00,-0.49,-2.11,-2.05,-2.05
279.38,-1.77,0.27,-1.72,0.32,-0.32,0.01,-0.48,-2.08,-2.03,-2.03
282.17,-1.67,0.35,-1.66,0.36,-0.36,0.03,-0.47,-2.03,-2.02,-2.02
284.99,-1.58,0.42,-1.59,0.41,-0.41,0.04,-0.46,-1.98,-2.00,-1.99
287.84,-1.50,0.48,-1.53,0.45,-0.45,0.05,-0.44,-1.95,-1.98,-1.98
290.72,-1.41,0.55,-1.47,0.49,-0.49,0.06,-0.43,-1.89,-1.96,-1.96
293.63,-1.35,0.59,-1.42,0.52,-0.52,0.06,-0.41,-1.86,-1.94,-1.94
296.57,-1.30,0.62,-1.38,0.53,-0.53,0.07,-0.39,-1.83,-1.92,-1.92
299.53,-1.29,0.61,-1.35,0.54,-0.54,0.08,-0.38,-1.83,-1.90,-1.90
302.53,-1.29,0.60,-1.33,0.54,-0.54,0.08,-0.36,-1.83,-1.87,-1.89
305.55,-1.30,0.55,-1.33,0.53,-0.53,0.09,-0.34,-1.82,-1.85,-1.85
308.61,-1.34,0.50,-1.33,0.50,-0.50,0.09,-0.32,-1.84,-1.83,-1.83
311.69,-1.37,0.44,-1.34,0.46,-0.46,0.09,-0.30,-1.83,-1.81,-1.81
314.81,-1.38,0.39,-1.36,0.42,-0.42,0.10,-0.28,-1.80,-1.79,-1.77
317.96,-1.43,0.33,-1.39,0.38,-0.38,0.10,-0.26,-1.80,-1.76,-1.76
321.14,-1.44,0.30,-1.41,0.33,-0.33,0.10,-0.24,-1.77,-1.74,-1.74
324.35,-1.48,0.25,-1.44,0.28,-0.28,0.10,-0.22,-1.76,-1.72,-1.72
327.59,-1.48,0.22,-1.46,0.24,-0.24,0.10,-0.20,-1.72,-1.70,-1.70
330.87,-1.48,0.20,-1.48,0.20,-0.20,0.10,-0.18,-1.68,-1.68,-1.68
334.18,-1.51,0.16,-1.49,0.16,-0.16,0.10,-0.16,-1.67,-1.66,-1.66
337.52,-1.52,0.13,-1.50,0.14,-0.14,0.10,-0.14,-1.65,-1.64,-1.65
340.90,-1.52,0.10,-1.51,0.11,-0.11,0.10,-0.12,-1.63,-1.62,-1.62
344.30,-1.52,0.08,-1.51,0.09,-0.09,0.10,-0.10,-1.61,-1.60,-1.60
347.75,-1.52,0.07,-1.52,0.07,-0.07,0.10,-0.08,-1.59,-1.59,-1.58
351.23,-1.52,0.05,-1.52,0.05,-0.05,0.10,-0.06,-1.57,-1.57,-1.57
354.74,-1.52,0.03,-1.52,0.03,-0.03,0.10,-0.04,-1.55,-1.55,-1.55
358.28,-1.52,0.01,-1.53,0.01,-0.01,0.10,-0.02,-1.52,-1.53,-1.53
361.87,-1.52,-0.00,-1.53,-0.02,0.02,0.10,-0.00,-1.50,-1.52,-1.51
365.49,-1.52,-0.02,-1.54,-0.04,0.04,0.10,0.02,-1.48,-1.50,-1.50
369.14,-1.52,-0.03,-1.55,-0.06,0.06,0.10,0.04,-1.45,-1.49,-1.49
372.83,-1.53,-0.06,-1.56,-0.08,0.08,0.09,0.05,-1.44,-1.47,-1.47
376.56,-1.57,-0.10,-1.56,-0.11,0.11,0.09,0.07,-1.46,-1.46,-1.46
380.33,-1.57,-0.13,-1.57,-0.12,0.12,0.09,0.09,-1.45,-1.44,-1.43
384.13,-1.57,-0.14,-1.57,-0.14,0.14,0.09,0.11,-1.43,-1.43,-1.43
387.97,-1.58,-0.16,-1.56,-0.14,0.14,0.09,0.13,-1.43,-1.42,-1.42
391.85,-1.62,-0.21,-1.56,-0.15,0.15,0.08,0.15,-1.47,-1.41,-1.41
395.77,-1.57,-0.18,-1.54,-0.15,0.15,0.08,0.17,-1.42,-1.39,-1.39
399.73,-1.57,-0.18,-1.53,-0.15,0.15,0.08,0.19,-1.42,-1.38,-1.38
403.72,-1.55,-0.17,-1.51,-0.14,0.14,0.08,0.20,-1.41,-1.37,-1.37
407.76,-1.51,-0.14,-1.49,-0.13,0.13,0.07,0.22,-1.38,-1.36,-1.37
411.84,-1.48,-0.13,-1.48,-0.12,0.12,0.07,0.24,-1.35,-1.35,-1.35
415.96,-1.43,-0.09,-1.46,-0.11,0.11,0.07,0.25,-1.31,-1.34,-1.34
420.12,-1.40,-0.07,-1.44,-0.10,0.10,0.07,0.27,-1.29,-1.33,-1.33
424.32,-1.38,-0.06,-1.42,-0.10,0.10,0.06,0.29,-1.28,-1.32,-1.32
428.56,-1.38,-0.07,-1.41,-0.10,0.10,0.06,0.30,-1.28,-1.31,-1.31
432.85,-1.37,-0.06,-1.40,-0.10,0.10,0.06,0.32,-1.27,-1.30,-1.30
437.18,-1.38,-0.08,-1.39,-0.10,0.10,0.05,0.33,-1.28,-1.29,-1.29
441.55,-1.38,-0.10,-1.39,-0.11,0.11,0.05,0.35,-1.27,-1.28,-1.28
445.96,-1.38,-0.11,-1.39,-0.12,0.12,0.05,0.36,-1.25,-1.27,-1.27
450.42,-1.43,-0.17,-1.39,-0.14,0.14,0.04,0.37,-1.29,-1.25,-1.26
454.93,-1.43,-0.19,-1.40,-0.16,0.16,0.04,0.39,-1.27,-1.24,-1.24
