frequency,raw,error,smoothed,error_smoothed,equalization,parametric_eq,fixed_band_eq,equalized_raw,equalized_smoothed,target
20.00,18.17,3.21,18.17,3.21,-3.21,-3.23,-1.73,14.96,14.96,14.95
20.20,18.19,3.24,18.19,3.24,-3.24,-3.25,-1.78,14.94,14.94,14.94
20.40,18.21,3.28,18.20,3.27,-3.27,-3.27,-1.83,14.93,14.93,14.93
20.61,18.23,3.31,18.22,3.31,-3.31,-3.30,-1.88,14.92,14.92,14.92
20.81,18.24,3.34,18.24,3.34,-3.34,-3.32,-1.93,14.90,14.91,14.90
21.02,18.26,3.37,18.26,3.37,-3.37,-3.34,-1.98,14.89,14.90,14.89
21.23,18.28,3.40,18.28,3.40,-3.40,-3.36,-2.04,14.88,14.89,14.88
21.44,18.30,3.41,18.30,3.42,-3.42,-3.38,-2.10,14.87,14.88,14.89
21.66,18.32,3.45,18.32,3.45,-3.45,-3.40,-2.15,14.87,14.87,14.87
21.87,18.34,3.47,18.34,3.48,-3.48,-3.43,-2.21,14.86,14.86,14.87
22.09,18.36,3.51,18.35,3.50,-3.50,-3.45,-2.28,14.85,14.85,14.85
22.31,18.38,3.53,18.37,3.53,-3.53,-3.47,-2.34,14.85,14.84,14.84
22.54,18.39,3.55,18.39,3.55,-3.55,-3.49,-2.40,14.83,14.84,14.83
22.76,18.41,3.58,18.41,3.58,-3.58,-3.51,-2.47,14.83,14.83,14.83
22.99,18.43,3.61,18.42,3.60,-3.60,-3.53,-2.54,14.83,14.82,14.82
23.22,18.45,3.64,18.44,3.62,-3.62,-3.55,-2.61,14.82,14.82,14.81
23.45,18.46,3.64,18.46,3.65,-3.65,-3.57,-2.68,14.81,14.81,14.82
23.69,18.48,3.67,18.48,3.67,-3.67,-3.59,-2.75,14.81,14.81,14.81
23.92,18.49,3.69,18.49,3.69,-3.69,-3.61,-2.82,14.80,14.80,14.80
24.16,18.51,3.70,18.51,3.71,-3.71,-3.63,-2.90,14.80,14.80,14.80
24.40,18.53,3.73,18.53,3.73,-3.73,-3.65,-2.98,14.80,14.80,14.80
24.65,18.55,3.75,18.54,3.75,-3.75,-3.67,-3.05,14.80,14.80,14.80
24.89,18.56,3.76,18.56,3.77,-3.77,-3.69,-3.13,14.79,14.79,14.80
25.14,18.58,3.79,18.58,3.79,-3.79,-3.71,-3.21,14.79,14.79,14.79
25.39,18.60,3.81,18.59,3.81,-3.81,-3.73,-3.29,14.79,14.79,14.79
25.65,18.62,3.83,18.61,3.82,-3.82,-3.75,-3.37,14.79,14.79,14.78
25.91,18.63,3.85,18.63,3.84,-3.84,-3.77,-3.45,14.79,14.79,14.78
26.16,18.65,3.86,18.64,3.86,-3.86,-3.79,-3.53,14.79,14.78,14.79
26.43,18.66,3.87,18.66,3.87,-3.87,-3.81,-3.61,14.78,14.78,14.79
26.69,18.67,3.88,18.67,3.89,-3.89,-3.83,-3.68,14.78,14.78,14.79
26.96,18.69,3.90,18.69,3.90,-3.90,-3.85,-3.76,14.78,14.78,14.78
27.23,18.70,3.92,18.70,3.91,-3.91,-3.87,-3.84,14.78,14.79,14.78
27.50,18.72,3.94,18.71,3.93,-3.93,-3.89,-3.91,14.79,14.79,14.78
27.77,18.73,3.94,18.73,3.94,-3.94,-3.91,-3.99,14.79,14.79,14.79
28.05,18.74,3.95,18.74,3.95,-3.95,-3.93,-4.06,14.79,14.79,14.78
28.33,18.75,3.96,18.75,3.96,-3.96,-3.95,-4.12,14.78,14.79,14.79
28.62,18.76,3.97,18.76,3.97,-3.97,-3.97,-4.19,14.78,14.79,14.79
28.90,18.78,3.98,18.77,3.99,-3.99,-3.98,-4.25,14.79,14.79,14.79
29.19,18.79,4.00,18.79,4.00,-4.00,-4.00,-4.31,14.79,14.79,14.79
29.48,18.80,4.01,18.80,4.01,-4.01,-4.02,-4.36,14.78,14.78,14.79
29.78,18.81,4.02,18.81,4.03,-4.03,-4.04,-4.41,14.78,14.78,14.78
30.08,18.82,4.04,18.82,4.04,-4.04,-4.06,-4.46,14.78,14.78,14.78
30.38,18.83,4.06,18.83,4.05,-4.05,-4.08,-4.50,14.77,14.77,14.77
30.68,18.84,4.07,18.83,4.07,-4.07,-4.10,-4.54,14.77,14.77,14.76
30.99,18.85,4.09,18.84,4.08,-4.08,-4.12,-4.57,14.77,14.76,14.76
31.30,18.86,4.10,18.85,4.09,-4.09,-4.13,-4.60,14.76,14.75,14.76
31.61,18.86,4.11,18.86,4.11,-4.11,-4.15,-4.62,14.75,14.75,14.75
31.93,18.87,4.14,18.86,4.12,-4.12,-4.17,-4.64,14.74,14.74,14.73
32.24,18.87,4.13,18.87,4.14,-4.14,-4.19,-4.65,14.73,14.73,14.73
32.57,18.87,4.15,18.87,4.15,-4.15,-4.21,-4.66,14.72,14.72,14.72
32.89,18.87,4.15,18.88,4.16,-4.16,-4.23,-4.66,14.71,14.71,14.71
33.22,18.87,4.16,18.88,4.17,-4.17,-4.24,-4.66,14.69,14.71,14.71
33.55,18.88,4.17,18.88,4.18,-4.18,-4.26,-4.66,14.69,14.70,14.70
33.89,18.89,4.20,18.89,4.20,-4.20,-4.28,-4.65,14.69,14.69,14.69
34.23,18.89,4.22,18.89,4.21,-4.21,-4.30,-4.64,14.68,14.68,14.67
34.57,18.90,4.23,18.89,4.22,-4.22,-4.32,-4.63,14.68,14.67,14.67
34.92,18.90,4.25,18.89,4.23,-4.23,-4.34,-4.61,14.67,14.66,14.65
35.27,18.90,4.23,18.89,4.24,-4.24,-4.35,-4.60,14.65,14.65,14.66
35.62,18.90,4.26,18.89,4.26,-4.26,-4.37,-4.58,14.64,14.63,14.64
35.97,18.90,4.27,18.89,4.27,-4.27,-4.39,-4.56,14.62,14.62,14.63
36.33,18.90,4.28,18.89,4.29,-4.29,-4.41,-4.54,14.61,14.60,14.61
36.70,18.89,4.30,18.90,4.31,-4.31,-4.43,-4.52,14.58,14.59,14.58
37.06,18.89,4.32,18.90,4.33,-4.33,-4.45,-4.50,14.56,14.57,14.57
37.43,18.89,4.34,18.90,4.35,-4.35,-4.46,-4.48,14.54,14.55,14.55
37.81,18.89,4.36,18.89,4.37,-4.37,-4.48,-4.46,14.52,14.53,14.53
38.19,18.89,4.39,18.89,4.39,-4.39,-4.50,-4.45,14.50,14.51,14.50
38.57,18.90,4.41,18.89,4.41,-4.41,-4.52,-4.43,14.49,14.48,14.48
38.95,18.90,4.43,18.89,4.43,-4.43,-4.54,-4.42,14.46,14.46,14.46
39.34,18.90,4.46,18.89,4.46,-4.46,-4.56,-4.41,14.44,14.43,14.43
39.74,18.90,4.49,18.89,4.48,-4.48,-4.58,-4.40,14.42,14.41,14.40
40.14,18.90,4.51,18.89,4.50,-4.50,-4.59,-4.39,14.39,14.39,14.38
40.54,18.89,4.52,18.89,4.53,-4.53,-4.61,-4.38,14.36,14.36,14.36
40.94,18.88,4.55,18.88,4.55,-4.55,-4.63,-4.38,14.33,14.34,14.33
41.35,18.88,4.57,18.88,4.57,-4.57,-4.65,-4.38,14.31,14.31,14.31
41.76,18.87,4.59,18.87,4.59,-4.59,-4.67,-4.38,14.28,14.29,14.28
42.18,18.87,4.60,18.86,4.60,-4.60,-4.69,-4.39,14.26,14.26,14.26
42.60,18.86,4.63,18.85,4.62,-4.62,-4.71,-4.40,14.24,14.23,14.23
43.03,18.85,4.64,18.84,4.64,-4.64,-4.73,-4.41,14.21,14.21,14.21
43.46,18.84,4.66,18.83,4.65,-4.65,-4.75,-4.43,14.18,14.18,14.17
43.90,18.82,4.67,18.82,4.67,-4.67,-4.77,-4.45,14.15,14.15,14.15
44.33,18.81,4.69,18.81,4.69,-4.69,-4.79,-4.47,14.12,14.12,14.11
44.78,18.80,4.71,18.79,4.71,-4.71,-4.81,-4.49,14.09,14.09,14.09
45.23,18.78,4.71,18.78,4.73,-4.73,-4.83,-4.52,14.05,14.05,14.06
45.68,18.76,4.74,18.77,4.76,-4.76,-4.85,-4.56,14.00,14.01,14.02
46.13,18.75,4.77,18.76,4.78,-4.78,-4.87,-4.59,13.97,13.98,13.98
46.60,18.74,4.80,18.74,4.81,-4.81,-4.89,-4.63,13.93,13.94,13.94
47.06,18.73,4.82,18.73,4.84,-4.84,-4.91,-4.67,13.89,13.89,13.90
47.53,18.72,4.85,18.72,4.86,-4.86,-4.93,-4.72,13.85,13.85,13.86
48.01,18.71,4.90,18.70,4.89,-4.89,-4.95,-4.77,13.81,13.81,13.80
48.49,18.70,4.93,18.69,4.92,-4.92,-4.97,-4.82,13.77,13.76,13.76
48.97,18.68,4.97,18.67,4.95,-4.95,-5.00,-4.87,13.72,13.72,13.71
49.46,18.66,4.99,18.65,4.98,-4.98,-5.02,-4.93,13.67,13.67,13.67
49.96,18.64,5.03,18.63,5.01,-5.01,-5.04,-4.99,13.63,13.62,13.61
50.46,18.62,5.04,18.62,5.04,-5.04,-5.06,-5.05,13.58,13.58,13.57
50.96,18.60,5.07,18.60,5.07,-5.07,-5.09,-5.11,13.53,13.53,13.53
51.47,18.58,5.09,18.57,5.09,-5.09,-5.11,-5.17,13.49,13.48,13.48
51.99,18.55,5.12,18.55,5.12,-5.12,-5.13,-5.24,13.43,13.43,13.43
52.51,18.53,5.14,18.53,5.14,-5.14,-5.16,-5.31,13.39,13.39,13.39
53.03,18.51,5.15,18.51,5.17,-5.17,-5.18,-5.38,13.34,13.34,13.35
53.56,18.49,5.18,18.49,5.19,-5.19,-5.20,-5.44,13.30,13.29,13.30
54.10,18.47,5.22,18.47,5.22,-5.22,-5.23,-5.51,13.25,13.25,13.24
54.64,18.44,5.23,18.45,5.25,-5.25,-5.25,-5.58,13.19,13.20,13.20
55.18,18.42,5.26,18.43,5.27,-5.27,-5.28,-5.65,13.14,13.16,13.15
55.74,18.41,5.31,18.42,5.30,-5.30,-5.30,-5.71,13.11,13.12,13.10
56.29,18.39,5.32,18.40,5.33,-5.33,-5.33,-5.78,13.06,13.07,13.07
56.86,18.38,5.36,18.39,5.36,-5.36,-5.35,-5.84,13.02,13.02,13.02
57.42,18.38,5.41,18.37,5.39,-5.39,-5.38,-5.90,12.98,12.98,12.97
58.00,18.37,5.45,18.35,5.43,-5.43,-5.41,-5.95,12.94,12.93,12.92
58.58,18.35,5.47,18.34,5.46,-5.46,-5.43,-6.00,12.89,12.88,12.88
59.16,18.34,5.49,18.32,5.50,-5.50,-5.46,-6.05,12.84,12.82,12.84
59.76,18.32,5.52,18.30,5.53,-5.53,-5.49,-6.10,12.79,12.77,12.79
60.35,18.29,5.55,18.28,5.56,-5.56,-5.51,-6.14,12.72,12.71,12.73
60.96,18.26,5.59,18.26,5.60,-5.60,-5.54,-6.17,12.66,12.66,12.67
61.57,18.24,5.64,18.24,5.64,-5.64,-5.57,-6.20,12.60,12.60,12.60
62.18,18.21,5.68,18.21,5.67,-5.67,-5.60,-6.23,12.53,12.54,12.53
62.80,18.19,5.72,18.19,5.71,-5.71,-5.63,-6.25,12.47,12.48,12.47
63.43,18.16,5.76,18.17,5.75,-5.75,-5.66,-6.26,12.40,12.42,12.40
64.07,18.14,5.80,18.15,5.80,-5.80,-5.69,-6.27,12.34,12.35,12.34
64.71,18.11,5.83,18.13,5.84,-5.84,-5.72,-6.27,12.27,12.29,12.28
65.35,18.09,5.87,18.11,5.88,-5.88,-5.75,-6.27,12.21,12.22,12.22
66.01,18.08,5.92,18.08,5.92,-5.92,-5.78,-6.27,12.15,12.16,12.16
66.67,18.07,5.96,18.06,5.97,-5.97,-5.81,-6.26,12.10,12.10,12.11
67.33,18.06,6.03,18.04,6.01,-6.01,-5.85,-6.25,12.05,12.03,12.03
68.01,18.05,6.07,18.02,6.05,-6.05,-5.88,-6.23,11.99,11.97,11.97
68.69,18.02,6.11,18.00,6.10,-6.10,-5.91,-6.21,11.92,11.90,11.91
69.37,17.99,6.14,17.98,6.14,-6.14,-5.94,-6.19,11.85,11.84,11.85
70.07,17.97,6.19,17.95,6.18,-6.18,-5.98,-6.17,11.79,11.77,11.78
70.77,17.93,6.22,17.93,6.23,-6.23,-6.01,-6.14,11.70,11.71,11.71
71.48,17.90,6.25,17.91,6.27,-6.27,-6.05,-6.12,11.63,11.64,11.65
72.19,17.87,6.29,17.88,6.31,-6.31,-6.08,-6.09,11.56,11.57,11.57
72.91,17.84,6.34,17.85,6.35,-6.35,-6.12,-6.07,11.49,11.51,11.50
73.64,17.82,6.39,17.82,6.38,-6.38,-6.15,-6.04,11.43,11.44,11.43
74.38,17.79,6.42,17.79,6.42,-6.42,-6.19,-6.02,11.37,11.37,11.36
75.12,17.77,6.46,17.76,6.45,-6.45,-6.22,-5.99,11.31,11.31,11.30
75.87,17.74,6.49,17.73,6.49,-6.49,-6.26,-5.97,11.25,11.24,11.24
76.63,17.71,6.53,17.70,6.52,-6.52,-6.30,-5.95,11.19,11.18,11.17
77.40,17.68,6.56,17.67,6.55,-6.55,-6.33,-5.94,11.13,11.12,11.12
78.17,17.65,6.60,17.63,6.58,-6.58,-6.37,-5.92,11.07,11.06,11.05
78.95,17.60,6.60,17.60,6.60,-6.60,-6.41,-5.91,10.99,10.99,11.00
79.74,17.56,6.62,17.56,6.63,-6.63,-6.45,-5.90,10.93,10.93,10.93
80.54,17.52,6.64,17.52,6.65,-6.65,-6.48,-5.90,10.86,10.87,10.88
81.35,17.49,6.68,17.49,6.68,-6.68,-6.52,-5.89,10.81,10.81,10.81
82.16,17.45,6.69,17.45,6.70,-6.70,-6.56,-5.90,10.75,10.75,10.76
82.98,17.41,6.72,17.41,6.73,-6.73,-6.60,-5.90,10.68,10.69,10.69
83.81,17.37,6.74,17.37,6.75,-6.75,-6.64,-5.91,10.62,10.62,10.63
84.65,17.33,6.77,17.33,6.78,-6.78,-6.68,-5.93,10.55,10.56,10.55
85.50,17.30,6.81,17.30,6.80,-6.80,-6.72,-5.95,10.49,10.49,10.49
86.35,17.26,6.83,17.26,6.83,-6.83,-6.76,-5.97,10.42,10.43,10.42
87.22,17.22,6.86,17.22,6.86,-6.86,-6.80,-6.00,10.35,10.36,10.36
88.09,17.19,6.90,17.19,6.90,-6.90,-6.84,-6.03,10.29,10.29,10.29
88.97,17.15,6.92,17.15,6.93,-6.93,-6.88,-6.07,10.22,10.22,10.22
89.86,17.12,6.96,17.11,6.96,-6.96,-6.92,-6.11,10.16,10.15,10.16
90.76,17.07,6.98,17.07,6.99,-6.99,-6.96,-6.15,10.08,10.08,10.09
91.66,17.03,7.02,17.03,7.02,-7.02,-6.99,-6.20,10.00,10.01,10.01
92.58,17.00,7.05,16.99,7.05,-7.05,-7.03,-6.26,9.94,9.94,9.95
93.51,16.97,7.09,16.95,7.08,-7.08,-7.07,-6.31,9.88,9.87,9.87
94.44,16.93,7.12,16.91,7.11,-7.11,-7.11,-6.38,9.81,9.79,9.80
95.39,16.88,7.16,16.86,7.14,-7.14,-7.15,-6.44,9.74,9.72,9.72
96.34,16.82,7.17,16.81,7.17,-7.17,-7.19,-6.52,9.65,9.64,9.65
97.30,16.76,7.18,16.77,7.20,-7.20,-7.22,-6.59,9.56,9.57,9.57
98.28,16.71,7.22,16.72,7.22,-7.22,-7.26,-6.67,9.49,9.50,9.49
99.26,16.66,7.24,16.67,7.24,-7.24,-7.30,-6.75,9.41,9.42,9.41
100.25,16.61,7.27,16.62,7.27,-7.27,-7.33,-6.84,9.34,9.35,9.34
101.25,16.56,7.28,16.57,7.29,-7.29,-7.37,-6.92,9.27,9.28,9.28
102.27,16.51,7.30,16.52,7.31,-7.31,-7.40,-7.01,9.20,9.21,9.21
103.29,16.47,7.33,16.46,7.32,-7.32,-7.44,-7.11,9.14,9.14,9.13
104.32,16.43,7.36,16.41,7.34,-7.34,-7.47,-7.20,9.09,9.07,9.07
105.37,16.36,7.35,16.35,7.35,-7.35,-7.50,-7.30,9.01,9.00,9.00
106.42,16.31,7.37,16.30,7.37,-7.37,-7.53,-7.39,8.94,8.93,8.94
107.48,16.26,7.39,16.25,7.38,-7.38,-7.56,-7.49,8.87,8.86,8.86
108.56,16.20,7.40,16.19,7.40,-7.40,-7.59,-7.59,8.80,8.79,8.80
109.64,16.14,7.40,16.13,7.41,-7.41,-7.62,-7.68,8.73,8.72,8.73
110.74,16.08,7.42,16.07,7.42,-7.42,-7.65,-7.77,8.65,8.65,8.66
111.85,16.01,7.42,16.02,7.44,-7.44,-7.67,-7.86,8.57,8.58,8.58
112.97,15.95,7.43,15.96,7.45,-7.45,-7.69,-7.95,8.50,8.51,8.52
114.10,15.90,7.45,15.90,7.46,-7.46,-7.72,-8.03,8.44,8.44,8.44
115.24,15.84,7.48,15.84,7.47,-7.47,-7.74,-8.11,8.36,8.37,8.36
116.39,15.80,7.51,15.78,7.49,-7.49,-7.76,-8.18,8.31,8.30,8.29
117.55,15.74,7.52,15.73,7.50,-7.50,-7.78,-8.25,8.23,8.23,8.21
118.73,15.67,7.52,15.67,7.52,-7.52,-7.79,-8.31,8.15,8.16,8.14
119.92,15.60,7.52,15.62,7.53,-7.53,-7.81,-8.36,8.06,8.09,8.08
121.12,15.56,7.54,15.57,7.55,-7.55,-7.82,-8.41,8.00,8.02,8.02
122.33,15.53,7.58,15.52,7.57,-7.57,-7.83,-8.44,7.95,7.95,7.95
123.55,15.49,7.60,15.47,7.59,-7.59,-7.85,-8.47,7.89,7.88,7.89
124.79,15.43,7.61,15.43,7.61,-7.61,-7.85,-8.48,7.81,7.81,7.82
126.03,15.37,7.61,15.38,7.64,-7.64,-7.86,-8.49,7.73,7.75,7.75
127.29,15.34,7.65,15.34,7.66,-7.66,-7.87,-8.49,7.68,7.68,7.69
128.57,15.30,7.69,15.29,7.68,-7.68,-7.87,-8.48,7.61,7.61,7.61
129.85,15.26,7.71,15.25,7.71,-7.71,-7.87,-8.47,7.55,7.54,7.55
131.15,15.21,7.74,15.21,7.73,-7.73,-7.87,-8.44,7.48,7.48,7.47
132.46,15.17,7.76,15.16,7.75,-7.75,-7.87,-8.41,7.41,7.41,7.41
133.79,15.12,7.78,15.12,7.77,-7.77,-7.87,-8.36,7.34,7.34,7.34
135.12,15.06,7.78,15.07,7.79,-7.79,-7.87,-8.32,7.26,7.28,7.27
136.48,15.03,7.81,15.02,7.81,-7.81,-7.86,-8.27,7.22,7.21,7.21
137.84,14.99,7.84,14.98,7.83,-7.83,-7.86,-8.21,7.16,7.15,7.15
139.22,14.95,7.87,14.93,7.85,-7.85,-7.85,-8.15,7.10,7.08,7.08
140.61,14.89,7.87,14.88,7.86,-7.86,-7.84,-8.08,7.03,7.02,7.02
142.02,14.81,7.85,14.83,7.87,-7.87,-7.83,-8.01,6.94,6.96,6.96
143.44,14.77,7.87,14.78,7.88,-7.88,-7.82,-7.94,6.89,6.90,6.90
144.87,14.72,7.87,14.73,7.88,-7.88,-7.80,-7.87,6.84,6.85,6.85
146.32,14.68,7.89,14.67,7.88,-7.88,-7.79,-7.80,6.79,6.79,6.79
147.78,14.63,7.89,14.62,7.89,-7.89,-7.77,-7.73,6.74,6.73,6.74
149.26,14.58,7.90,14.57,7.89,-7.89,-7.76,-7.66,6.69,6.68,6.68
150.75,14.51,7.89,14.51,7.89,-7.89,-7.74,-7.59,6.62,6.62,6.62
152.26,14.46,7.88,14.45,7.88,-7.88,-7.73,-7.53,6.57,6.57,6.57
153.78,14.39,7.87,14.39,7.88,-7.88,-7.71,-7.46,6.51,6.51,6.52
155.32,14.33,7.86,14.33,7.87,-7.87,-7.69,-7.40,6.46,6.46,6.46
156.88,14.27,7.86,14.27,7.87,-7.87,-7.67,-7.35,6.40,6.40,6.41
158.44,14.22,7.87,14.21,7.86,-7.86,-7.65,-7.29,6.36,6.35,6.35
160.03,14.13,7.83,14.14,7.84,-7.84,-7.64,-7.24,6.29,6.29,6.30
161.63,14.07,7.83,14.06,7.82,-7.82,-7.62,-7.19,6.24,6.24,6.24
163.24,14.01,7.82,13.99,7.80,-7.80,-7.60,-7.15,6.20,6.18,6.18
164.88,13.92,7.79,13.91,7.79,-7.79,-7.58,-7.12,6.13,6.13,6.13
166.53,13.84,7.78,13.83,7.76,-7.76,-7.56,-7.08,6.07,6.07,6.06
168.19,13.77,7.75,13.75,7.74,-7.74,-7.55,-7.06,6.03,6.01,6.02
169.87,13.67,7.71,13.67,7.71,-7.71,-7.53,-7.03,5.95,5.95,5.96
171.57,13.59,7.69,13.58,7.69,-7.69,-7.51,-7.01,5.90,5.90,5.89
173.29,13.51,7.66,13.50,7.66,-7.66,-7.50,-7.00,5.85,5.84,5.84
175.02,13.39,7.60,13.41,7.62,-7.62,-7.49,-7.00,5.76,5.78,5.79
176.77,13.31,7.58,13.32,7.59,-7.59,-7.47,-6.99,5.72,5.73,5.73
178.54,13.24,7.56,13.23,7.56,-7.56,-7.46,-7.00,5.68,5.67,5.67
180.32,13.16,7.55,13.14,7.52,-7.52,-7.45,-7.00,5.63,5.62,5.61
182.13,13.08,7.51,13.06,7.49,-7.49,-7.44,-7.02,5.58,5.56,5.56
183.95,12.97,7.46,12.98,7.47,-7.47,-7.43,-7.04,5.50,5.51,5.51
185.79,12.89,7.44,12.90,7.44,-7.44,-7.42,-7.06,5.44,5.45,5.45
187.65,12.81,7.41,12.82,7.42,-7.42,-7.42,-7.09,5.39,5.40,5.40
189.52,12.74,7.39,12.75,7.40,-7.40,-7.41,-7.12,5.33,5.35,5.35
191.42,12.68,7.37,12.69,7.39,-7.39,-7.41,-7.16,5.29,5.30,5.30
193.33,12.62,7.36,12.63,7.38,-7.38,-7.41,-7.21,5.24,5.25,5.26
195.27,12.57,7.37,12.57,7.37,-7.37,-7.41,-7.25,5.20,5.20,5.20
197.22,12.53,7.38,12.52,7.36,-7.36,-7.41,-7.30,5.17,5.16,5.15
199.19,12.49,7.38,12.48,7.36,-7.36,-7.42,-7.36,5.13,5.11,5.11
201.18,12.45,7.39,12.44,7.37,-7.37,-7.42,-7.42,5.08,5.07,5.06
203.19,12.41,7.38,12.41,7.38,-7.38,-7.43,-7.48,5.02,5.03,5.03
205.23,12.39,7.39,12.40,7.41,-7.41,-7.44,-7.54,4.98,4.99,5.00
207.28,12.38,7.42,12.38,7.43,-7.43,-7.45,-7.61,4.95,4.95,4.96
209.35,12.36,7.44,12.38,7.46,-7.46,-7.47,-7.68,4.89,4.91,4.92
211.44,12.34,7.46,12.38,7.50,-7.50,-7.48,-7.75,4.84,4.88,4.88
213.56,12.35,7.49,12.38,7.53,-7.53,-7.49,-7.82,4.81,4.84,4.85
215.69,12.38,7.56,12.39,7.58,-7.58,-7.51,-7.89,4.80,4.81,4.82
217.85,12.41,7.63,12.40,7.62,-7.62,-7.53,-7.96,4.79,4.78,4.78
220.03,12.43,7.68,12.41,7.66,-7.66,-7.55,-8.02,4.76,4.75,4.75
222.23,12.45,7.73,12.43,7.71,-7.71,-7.57,-8.09,4.74,4.72,4.71
224.45,12.46,7.77,12.45,7.76,-7.76,-7.59,-8.15,4.70,4.69,4.69
226.70,12.47,7.81,12.46,7.80,-7.80,-7.61,-8.21,4.67,4.66,4.66
228.96,12.48,7.83,12.48,7.84,-7.84,-7.63,-8.26,4.64,4.64,4.65
231.25,12.49,7.87,12.49,7.87,-7.87,-7.65,-8.31,4.62,4.62,4.62
233.57,12.50,7.90,12.49,7.90,-7.90,-7.67,-8.34,4.60,4.60,4.60
235.90,12.50,7.92,12.49,7.91,-7.91,-7.69,-8.38,4.58,4.58,4.58
238.26,12.50,7.95,12.48,7.92,-7.92,-7.70,-8.40,4.57,4.56,4.55
240.64,12.48,7.93,12.47,7.92,-7.92,-7.72,-8.41,4.55,4.54,4.55
243.05,12.47,7.94,12.45,7.92,-7.92,-7.73,-8.42,4.55,4.53,4.53
245.48,12.44,7.92,12.42,7.91,-7.91,-7.74,-8.41,4.53,4.52,4.51
247.93,12.40,7.90,12.40,7.89,-7.89,-7.75,-8.39,4.51,4.51,4.50
250.41,12.36,7.85,12.36,7.86,-7.86,-7.75,-8.36,4.50,4.50,4.50
252.92,12.30,7.80,12.32,7.83,-7.83,-7.75,-8.32,4.47,4.49,4.50
255.45,12.26,7.77,12.27,7.79,-7.79,-7.75,-8.27,4.47,4.48,4.48
258.00,12.22,7.74,12.22,7.74,-7.74,-7.74,-8.21,4.48,4.48,4.48
260.58,12.16,7.68,12.16,7.69,-7.69,-7.73,-8.14,4.47,4.47,4.47
263.19,12.11,7.64,12.09,7.63,-7.63,-7.71,-8.06,4.48,4.46,4.47
265.82,12.04,7.58,12.03,7.57,-7.57,-7.68,-7.97,4.47,4.46,4.46
268.48,11.96,7.50,11.95,7.50,-7.50,-7.65,-7.87,4.46,4.45,4.46
271.16,11.89,7.43,11.88,7.43,-7.43,-7.61,-7.76,4.46,4.45,4.45
273.87,11.80,7.35,11.80,7.35,-7.35,-7.57,-7.65,4.44,4.44,4.44
276.61,11.71,7.26,11.71,7.27,-7.27,-7.52,-7.53,4.43,4.44,4.44
279.38,11.63,7.21,11.63,7.19,-7.19,-7.46,-7.40,4.44,4.44,4.42
282.17,11.54,7.12,11.54,7.10,-7.10,-7.39,-7.27,4.43,4.43,4.42
284.99,11.46,7.02,11.44,7.01,-7.01,-7.32,-7.14,4.45,4.43,4.43
287.84,11.35,6.91,11.35,6.92,-6.92,-7.25,-7.00,4.43,4.43,4.43
290.72,11.25,6.82,11.25,6.82,-6.82,-7.16,-6.86,4.42,4.43,4.42
293.63,11.15,6.71,11.16,6.73,-6.73,-7.07,-6.72,4.42,4.43,4.43
296.57,11.06,6.62,11.07,6.63,-6.63,-6.98,-6.58,4.42,4.43,4.44
299.53,10.97,6.53,10.97,6.54,-6.54,-6.88,-6.43,4.43,4.44,4.44
302.53,10.88,6.43,10.88,6.44,-6.44,-6.77,-6.29,4.44,4.44,4.45
305.55,10.79,6.34,10.79,6.35,-6.35,-6.66,-6.15,4.44,4.45,4.44
308.61,10.70,6.24,10.70,6.25,-6.25,-6.55,-6.01,4.45,4.45,4.46
311.69,10.61,6.15,10.61,6.15,-6.15,-6.43,-5.87,4.45,4.46,4.46
314.81,10.53,6.07,10.52,6.06,-6.06,-6.31,-5.74,4.47,4.46,4.46
317.96,10.45,5.98,10.44,5.97,-5.97,-6.19,-5.60,4.48,4.47,4.47
321.14,10.36,5.88,10.35,5.88,-5.88,-6.06,-5.47,4.48,4.47,4.48
324.35,10.28,5.80,10.27,5.79,-5.79,-5.93,-5.34,4.49,4.48,4.47
327.59,10.18,5.68,10.19,5.70,-5.70,-5.81,-5.21,4.48,4.49,4.50
330.87,10.11,5.62,10.10,5.61,-5.61,-5.68,-5.09,4.50,4.49,4.49
334.18,10.03,5.53,10.02,5.52,-5.52,-5.54,-4.97,4.50,4.50,4.50
337.52,9.93,5.43,9.94,5.43,-5.43,-5.41,-4.86,4.49,4.51,4.50
340.90,9.85,5.33,9.86,5.34,-5.34,-5.28,-4.74,4.50,4.51,4.52
344.30,9.78,5.26,9.77,5.26,-5.26,-5.15,-4.63,4.52,4.52,4.52
347.75,9.70,5.17,9.69,5.16,-5.16,-5.02,-4.53,4.53,4.52,4.53
351.23,9.61,5.09,9.60,5.07,-5.07,-4.89,-4.42,4.53,4.53,4.52
354.74,9.53,4.98,9.52,4.98,-4.98,-4.76,-4.32,4.55,4.54,4.55
358.28,9.44,4.89,9.44,4.89,-4.89,-4.63,-4.22,4.55,4.55,4.54
361.87,9.36,4.81,9.35,4.80,-4.80,-4.51,-4.13,4.56,4.55,4.55
365.49,9.27,4.71,9.27,4.71,-4.71,-4.38,-4.04,4.56,4.56,4.56
369.14,9.19,4.61,9.18,4.62,-4.62,-4.26,-3.95,4.57,4.57,4.57
372.83,9.11,4.53,9.10,4.52,-4.52,-4.13,-3.87,4.58,4.57,4.58
376.56,9.01,4.43,9.01,4.43,-4.43,-4.01,-3.79,4.57,4.58,4.58
380.33,8.92,4.33,8.93,4.34,-4.34,-3.89,-3.71,4.58,4.59,4.58
384.13,8.83,4.23,8.84,4.25,-4.25,-3.78,-3.63,4.58,4.60,4.60
387.97,8.76,4.15,8.76,4.15,-4.15,-3.66,-3.56,4.60,4.61,4.61
391.85,8.68,4.06,8.68,4.06,-4.06,-3.55,-3.49,4.62,4.62,4.61
395.77,8.60,3.98,8.59,3.97,-3.97,-3.44,-3.42,4.63,4.62,4.62
399.73,8.52,3.89,8.51,3.88,-3.88,-3.33,-3.36,4.64,4.63,4.63
403.72,8.44,3.78,8.43,3.79,-3.79,-3.22,-3.30,4.65,4.64,4.66
407.76,8.36,3.70,8.35,3.69,-3.69,-3.11,-3.23,4.66,4.65,4.65
411.84,8.27,3.61,8.27,3.60,-3.60,-3.01,-3.17,4.66,4.66,4.66
415.96,8.18,3.50,8.18,3.52,-3.52,-2.90,-3.12,4.66,4.67,4.68
420.12,8.11,3.43,8.10,3.43,-3.43,-2.80,-3.06,4.68,4.68,4.68
424.32,8.02,3.33,8.02,3.34,-3.34,-2.70,-3.00,4.68,4.69,4.68
428.56,7.94,3.24,7.94,3.25,-3.25,-2.61,-2.95,4.69,4.69,4.70
432.85,7.86,3.15,7.86,3.16,-3.16,-2.51,-2.89,4.70,4.70,4.71
437.18,7.78,3.07,7.78,3.07,-3.07,-2.42,-2.84,4.71,4.71,4.71
441.55,7.71,2.99,7.70,2.98,-2.98,-2.32,-2.79,4.73,4.72,4.72
445.96,7.63,2.90,7.62,2.89,-2.89,-2.23,-2.74,4.74,4.73,4.72
450.42,7.54,2.80,7.54,2.80,-2.80,-2.14,-2.68,4.73,4.74,4.73
454.93,7.47,2.73,7.46,2.71,-2.71,-2.05,-2.63,4.75,4.75,4.74
459.48,7.38,2.63,7.38,2.63,-2.63,-1.97,-2.57,4.75,4.75,4.75
