frequency,raw,error,smoothed,error_smoothed,equalization,parametric_eq,fixed_band_eq,equalized_raw,equalized_smoothed,target
20.00,7.63,0.12,7.64,0.12,-0.12,-0.51,-0.49,7.52,7.52,7.52
20.20,7.64,0.14,7.64,0.14,-0.14,-0.52,-0.50,7.51,7.51,7.51
20.40,7.65,0.16,7.65,0.16,-0.16,-0.53,-0.52,7.50,7.50,7.50
20.61,7.66,0.18,7.66,0.18,-0.18,-0.54,-0.53,7.48,7.48,7.49
20.81,7.68,0.22,7.68,0.20,-0.20,-0.55,-0.54,7.48,7.47,7.47
21.02,7.69,0.24,7.69,0.23,-0.23,-0.56,-0.56,7.47,7.46,7.46
21.23,7.70,0.26,7.70,0.25,-0.25,-0.57,-0.57,7.45,7.45,7.45
21.44,7.72,0.27,7.72,0.28,-0.28,-0.58,-0.59,7.44,7.44,7.46
21.66,7.74,0.31,7.74,0.31,-0.31,-0.59,-0.61,7.44,7.43,7.44
21.87,7.76,0.33,7.76,0.33,-0.33,-0.60,-0.62,7.43,7.43,7.44
22.09,7.78,0.37,7.78,0.36,-0.36,-0.61,-0.64,7.42,7.42,7.42
22.31,7.80,0.40,7.80,0.39,-0.39,-0.62,-0.66,7.41,7.41,7.41
22.54,7.82,0.43,7.83,0.43,-0.43,-0.63,-0.67,7.40,7.40,7.40
22.76,7.85,0.46,7.86,0.46,-0.46,-0.64,-0.69,7.39,7.40,7.40
22.99,7.87,0.49,7.89,0.50,-0.50,-0.65,-0.71,7.38,7.39,7.39
23.22,7.90,0.53,7.92,0.53,-0.53,-0.67,-0.73,7.37,7.39,7.38
23.45,7.94,0.56,7.95,0.57,-0.57,-0.68,-0.75,7.38,7.38,7.39
23.69,7.98,0.61,7.98,0.60,-0.60,-0.69,-0.77,7.38,7.38,7.38
23.92,8.01,0.65,8.01,0.64,-0.64,-0.70,-0.79,7.37,7.37,7.37
24.16,8.05,0.68,8.05,0.68,-0.68,-0.71,-0.81,7.38,7.37,7.38
24.40,8.09,0.72,8.08,0.71,-0.71,-0.73,-0.83,7.38,7.37,7.38
24.65,8.12,0.76,8.11,0.75,-0.75,-0.74,-0.85,7.38,7.37,7.37
24.89,8.15,0.79,8.14,0.78,-0.78,-0.75,-0.88,7.37,7.36,7.37
25.14,8.17,0.82,8.17,0.81,-0.81,-0.76,-0.90,7.36,7.36,7.36
25.39,8.19,0.84,8.20,0.84,-0.84,-0.78,-0.92,7.36,7.36,7.36
25.65,8.22,0.87,8.22,0.86,-0.86,-0.79,-0.94,7.36,7.36,7.36
25.91,8.25,0.90,8.24,0.89,-0.89,-0.80,-0.96,7.37,7.36,7.36
26.16,8.27,0.91,8.26,0.91,-0.91,-0.82,-0.99,7.37,7.36,7.37
26.43,8.29,0.94,8.28,0.92,-0.92,-0.83,-1.01,7.37,7.36,7.36
26.69,8.30,0.95,8.29,0.94,-0.94,-0.84,-1.03,7.37,7.36,7.36
26.96,8.31,0.96,8.31,0.95,-0.95,-0.86,-1.05,7.36,7.36,7.36
27.23,8.32,0.97,8.32,0.96,-0.96,-0.87,-1.08,7.36,7.36,7.36
27.50,8.34,0.99,8.34,0.98,-0.98,-0.89,-1.10,7.36,7.36,7.36
27.77,8.35,0.99,8.36,0.99,-0.99,-0.90,-1.12,7.36,7.36,7.37
28.05,8.36,1.01,8.38,1.01,-1.01,-0.92,-1.14,7.35,7.37,7.36
28.33,8.37,1.01,8.40,1.03,-1.03,-0.93,-1.16,7.34,7.37,7.37
28.62,8.40,1.04,8.42,1.05,-1.05,-0.95,-1.18,7.35,7.37,7.37
28.90,8.42,1.05,8.44,1.08,-1.08,-0.96,-1.20,7.35,7.37,7.38
29.19,8.46,1.09,8.47,1.10,-1.10,-0.98,-1.22,7.36,7.37,7.38
29.48,8.49,1.13,8.50,1.13,-1.13,-0.99,-1.24,7.36,7.37,7.37
29.78,8.52,1.16,8.52,1.16,-1.16,-1.01,-1.25,7.36,7.36,7.37
30.08,8.55,1.19,8.55,1.19,-1.19,-1.03,-1.27,7.36,7.36,7.37
30.38,8.58,1.24,8.57,1.22,-1.22,-1.04,-1.29,7.36,7.36,7.35
30.68,8.60,1.26,8.60,1.24,-1.24,-1.06,-1.30,7.36,7.35,7.35
30.99,8.63,1.29,8.62,1.27,-1.27,-1.08,-1.31,7.36,7.35,7.35
31.30,8.65,1.31,8.63,1.29,-1.29,-1.09,-1.33,7.36,7.34,7.35
31.61,8.66,1.33,8.65,1.31,-1.31,-1.11,-1.34,7.35,7.33,7.34
31.93,8.67,1.36,8.66,1.33,-1.33,-1.13,-1.35,7.34,7.33,7.32
32.24,8.67,1.35,8.66,1.34,-1.34,-1.15,-1.36,7.33,7.32,7.33
32.57,8.67,1.37,8.67,1.35,-1.35,-1.16,-1.37,7.32,7.31,7.31
32.89,8.66,1.36,8.67,1.36,-1.36,-1.18,-1.38,7.30,7.31,7.31
33.22,8.65,1.36,8.67,1.37,-1.37,-1.20,-1.38,7.29,7.30,7.30
33.55,8.65,1.36,8.67,1.37,-1.37,-1.22,-1.39,7.28,7.29,7.30
33.89,8.65,1.37,8.66,1.38,-1.38,-1.24,-1.40,7.28,7.29,7.29
34.23,8.65,1.39,8.66,1.38,-1.38,-1.26,-1.40,7.27,7.28,7.27
34.57,8.65,1.39,8.66,1.39,-1.39,-1.27,-1.41,7.27,7.27,7.27
34.92,8.65,1.41,8.65,1.40,-1.40,-1.29,-1.41,7.26,7.26,7.25
35.27,8.65,1.39,8.65,1.40,-1.40,-1.31,-1.42,7.25,7.25,7.27
35.62,8.65,1.42,8.65,1.41,-1.41,-1.33,-1.42,7.24,7.24,7.24
35.97,8.65,1.42,8.65,1.43,-1.43,-1.35,-1.43,7.23,7.22,7.24
36.33,8.65,1.44,8.65,1.44,-1.44,-1.37,-1.43,7.21,7.21,7.22
36.70,8.65,1.46,8.65,1.46,-1.46,-1.39,-1.44,7.20,7.20,7.20
37.06,8.65,1.48,8.65,1.47,-1.47,-1.41,-1.45,7.18,7.18,7.18
37.43,8.65,1.50,8.65,1.49,-1.49,-1.43,-1.45,7.16,7.16,7.16
37.81,8.65,1.51,8.65,1.51,-1.51,-1.45,-1.46,7.14,7.14,7.15
38.19,8.65,1.54,8.65,1.53,-1.53,-1.47,-1.47,7.12,7.12,7.12
38.57,8.65,1.56,8.66,1.56,-1.56,-1.49,-1.47,7.10,7.10,7.10
38.95,8.65,1.57,8.66,1.58,-1.58,-1.51,-1.48,7.07,7.08,7.09
39.34,8.65,1.60,8.66,1.61,-1.61,-1.53,-1.49,7.05,7.06,7.06
39.74,8.65,1.63,8.66,1.63,-1.63,-1.55,-1.50,7.02,7.03,7.03
40.14,8.65,1.65,8.67,1.65,-1.65,-1.58,-1.51,7.00,7.01,7.01
40.54,8.66,1.68,8.67,1.68,-1.68,-1.60,-1.53,6.99,6.99,6.99
40.94,8.66,1.71,8.67,1.70,-1.70,-1.62,-1.54,6.96,6.97,6.96
41.35,8.67,1.73,8.66,1.72,-1.72,-1.64,-1.55,6.96,6.95,6.95
41.76,8.67,1.76,8.66,1.73,-1.73,-1.66,-1.57,6.94,6.92,6.92
42.18,8.66,1.76,8.65,1.75,-1.75,-1.68,-1.58,6.91,6.90,6.91
42.60,8.65,1.78,8.64,1.76,-1.76,-1.70,-1.60,6.89,6.88,6.88
43.03,8.63,1.78,8.62,1.77,-1.77,-1.73,-1.62,6.86,6.85,6.86
43.46,8.61,1.80,8.60,1.78,-1.78,-1.75,-1.64,6.84,6.83,6.82
43.90,8.58,1.79,8.58,1.78,-1.78,-1.77,-1.66,6.80,6.80,6.80
44.33,8.56,1.80,8.55,1.78,-1.78,-1.79,-1.68,6.78,6.77,6.77
44.78,8.53,1.79,8.53,1.78,-1.78,-1.81,-1.71,6.75,6.74,6.75
45.23,8.49,1.77,8.50,1.78,-1.78,-1.84,-1.73,6.71,6.71,6.73
45.68,8.46,1.79,8.47,1.79,-1.79,-1.86,-1.76,6.68,6.68,6.68
46.13,8.43,1.79,8.44,1.80,-1.80,-1.88,-1.79,6.64,6.64,6.65
46.60,8.40,1.80,8.41,1.81,-1.81,-1.90,-1.82,6.60,6.61,6.61
47.06,8.38,1.81,8.39,1.82,-1.82,-1.93,-1.85,6.56,6.57,6.58
47.53,8.35,1.82,8.37,1.85,-1.85,-1.95,-1.88,6.51,6.53,6.54
48.01,8.33,1.85,8.36,1.87,-1.87,-1.97,-1.91,6.46,6.49,6.49
48.49,8.32,1.88,8.35,1.90,-1.90,-1.99,-1.94,6.42,6.45,6.45
48.97,8.31,1.92,8.34,1.93,-1.93,-2.02,-1.97,6.38,6.41,6.40
49.46,8.31,1.95,8.33,1.97,-1.97,-2.04,-2.01,6.35,6.37,6.37
49.96,8.32,2.02,8.33,2.00,-2.00,-2.06,-2.05,6.32,6.32,6.31
50.46,8.33,2.06,8.32,2.04,-2.04,-2.08,-2.08,6.29,6.28,6.28
50.96,8.34,2.11,8.31,2.07,-2.07,-2.11,-2.12,6.27,6.24,6.24
51.47,8.33,2.14,8.30,2.11,-2.11,-2.13,-2.16,6.23,6.20,6.20
51.99,8.32,2.18,8.29,2.14,-2.14,-2.15,-2.19,6.19,6.15,6.15
52.51,8.30,2.19,8.28,2.16,-2.16,-2.18,-2.23,6.14,6.11,6.12
53.03,8.27,2.19,8.26,2.19,-2.19,-2.20,-2.27,6.08,6.07,6.09
53.56,8.24,2.21,8.24,2.21,-2.21,-2.22,-2.31,6.03,6.03,6.04
54.10,8.22,2.24,8.22,2.23,-2.23,-2.24,-2.35,5.99,5.99,5.99
54.64,8.18,2.24,8.20,2.24,-2.24,-2.27,-2.38,5.94,5.95,5.95
55.18,8.15,2.25,8.17,2.26,-2.26,-2.29,-2.42,5.90,5.91,5.91
55.74,8.12,2.27,8.14,2.27,-2.27,-2.31,-2.46,5.86,5.88,5.86
56.29,8.10,2.27,8.12,2.28,-2.28,-2.33,-2.49,5.83,5.84,5.84
56.86,8.08,2.29,8.09,2.29,-2.29,-2.36,-2.53,5.79,5.80,5.80
57.42,8.06,2.32,8.06,2.31,-2.31,-2.38,-2.56,5.75,5.76,5.75
58.00,8.04,2.34,8.04,2.33,-2.33,-2.40,-2.59,5.72,5.71,5.71
58.58,8.02,2.35,8.02,2.35,-2.35,-2.42,-2.62,5.67,5.67,5.68
59.16,7.99,2.35,8.00,2.37,-2.37,-2.45,-2.65,5.62,5.62,5.65
59.76,7.97,2.38,7.98,2.40,-2.40,-2.47,-2.68,5.57,5.58,5.60
60.35,7.95,2.41,7.96,2.43,-2.43,-2.49,-2.70,5.52,5.53,5.55
60.96,7.93,2.45,7.94,2.46,-2.46,-2.51,-2.73,5.48,5.48,5.49
61.57,7.90,2.48,7.91,2.48,-2.48,-2.54,-2.75,5.42,5.43,5.43
62.18,7.89,2.53,7.89,2.51,-2.51,-2.56,-2.76,5.38,5.38,5.37
62.80,7.87,2.57,7.86,2.54,-2.54,-2.58,-2.78,5.34,5.32,5.31
63.43,7.84,2.59,7.83,2.56,-2.56,-2.60,-2.79,5.29,5.27,5.26
64.07,7.81,2.61,7.79,2.58,-2.58,-2.62,-2.81,5.23,5.21,5.21
64.71,7.78,2.63,7.76,2.60,-2.60,-2.65,-2.82,5.18,5.16,5.16
65.35,7.74,2.65,7.73,2.63,-2.63,-2.67,-2.82,5.12,5.10,5.10
66.01,7.70,2.66,7.70,2.65,-2.65,-2.69,-2.83,5.05,5.05,5.05
66.67,7.65,2.65,7.67,2.67,-2.67,-2.71,-2.84,4.98,4.99,5.01
67.33,7.61,2.68,7.64,2.70,-2.70,-2.73,-2.84,4.92,4.94,4.94
68.01,7.57,2.69,7.60,2.72,-2.72,-2.75,-2.84,4.86,4.89,4.89
68.69,7.54,2.71,7.57,2.74,-2.74,-2.78,-2.84,4.80,4.83,4.84
69.37,7.51,2.73,7.54,2.76,-2.76,-2.80,-2.84,4.75,4.77,4.79
70.07,7.50,2.78,7.50,2.78,-2.78,-2.82,-2.84,4.72,4.72,4.73
70.77,7.49,2.84,7.47,2.81,-2.81,-2.84,-2.84,4.69,4.66,4.66
71.48,7.46,2.86,7.44,2.83,-2.83,-2.86,-2.84,4.63,4.60,4.61
72.19,7.43,2.89,7.41,2.86,-2.86,-2.88,-2.83,4.57,4.55,4.55
72.91,7.39,2.92,7.38,2.89,-2.89,-2.90,-2.83,4.50,4.49,4.48
73.64,7.35,2.93,7.35,2.92,-2.92,-2.93,-2.83,4.43,4.43,4.43
74.38,7.31,2.95,7.32,2.95,-2.95,-2.95,-2.83,4.37,4.38,4.37
75.12,7.27,2.96,7.30,2.97,-2.97,-2.97,-2.83,4.30,4.32,4.32
75.87,7.24,2.98,7.27,3.00,-3.00,-2.99,-2.83,4.24,4.27,4.27
76.63,7.21,3.01,7.24,3.02,-3.02,-3.01,-2.83,4.19,4.22,4.21
77.40,7.19,3.03,7.20,3.04,-3.04,-3.03,-2.84,4.15,4.16,4.17
78.17,7.18,3.08,7.17,3.06,-3.06,-3.05,-2.84,4.13,4.11,4.11
78.95,7.16,3.10,7.14,3.07,-3.07,-3.08,-2.85,4.09,4.06,4.07
79.74,7.13,3.12,7.11,3.09,-3.09,-3.10,-2.85,4.04,4.01,4.02
80.54,7.09,3.13,7.08,3.12,-3.12,-3.12,-2.86,3.98,3.96,3.97
81.35,7.06,3.16,7.05,3.14,-3.14,-3.14,-2.87,3.92,3.91,3.91
82.16,7.02,3.15,7.03,3.16,-3.16,-3.16,-2.89,3.86,3.86,3.88
82.98,6.98,3.17,7.00,3.19,-3.19,-3.18,-2.90,3.80,3.81,3.82
83.81,6.94,3.18,6.97,3.21,-3.21,-3.21,-2.92,3.73,3.76,3.77
84.65,6.91,3.21,6.94,3.23,-3.23,-3.23,-2.94,3.68,3.71,3.71
85.50,6.89,3.25,6.91,3.25,-3.25,-3.25,-2.96,3.64,3.65,3.65
86.35,6.87,3.28,6.87,3.27,-3.27,-3.27,-2.98,3.60,3.60,3.60
87.22,6.86,3.32,6.84,3.30,-3.30,-3.29,-3.01,3.57,3.54,3.55
88.09,6.83,3.35,6.81,3.32,-3.32,-3.31,-3.04,3.51,3.49,3.49
88.97,6.80,3.38,6.78,3.35,-3.35,-3.34,-3.07,3.46,3.43,3.43
89.86,6.76,3.39,6.75,3.38,-3.38,-3.36,-3.10,3.39,3.37,3.38
90.76,6.71,3.40,6.72,3.40,-3.40,-3.38,-3.14,3.31,3.32,3.32
91.66,6.67,3.43,6.69,3.44,-3.44,-3.40,-3.18,3.24,3.25,3.25
92.58,6.63,3.44,6.66,3.46,-3.46,-3.43,-3.22,3.17,3.19,3.20
93.51,6.60,3.46,6.62,3.49,-3.49,-3.45,-3.26,3.11,3.13,3.15
94.44,6.58,3.50,6.59,3.52,-3.52,-3.47,-3.30,3.07,3.07,3.09
95.39,6.55,3.54,6.55,3.54,-3.54,-3.49,-3.35,3.01,3.01,3.02
96.34,6.53,3.59,6.52,3.57,-3.57,-3.52,-3.40,2.97,2.95,2.95
97.30,6.50,3.62,6.48,3.59,-3.59,-3.54,-3.45,2.91,2.89,2.89
98.28,6.46,3.65,6.44,3.62,-3.62,-3.56,-3.50,2.85,2.83,2.82
99.26,6.41,3.66,6.41,3.64,-3.64,-3.59,-3.55,2.77,2.77,2.76
100.25,6.36,3.67,6.37,3.67,-3.67,-3.61,-3.61,2.70,2.71,2.70
101.25,6.32,3.68,6.34,3.69,-3.69,-3.64,-3.66,2.63,2.65,2.65
102.27,6.28,3.70,6.30,3.71,-3.71,-3.66,-3.72,2.57,2.59,2.59
103.29,6.25,3.73,6.26,3.73,-3.73,-3.68,-3.78,2.53,2.53,2.53
104.32,6.22,3.75,6.22,3.74,-3.74,-3.71,-3.84,2.48,2.48,2.48
105.37,6.18,3.77,6.18,3.76,-3.76,-3.73,-3.90,2.43,2.42,2.42
106.42,6.15,3.79,6.14,3.77,-3.77,-3.76,-3.96,2.38,2.36,2.37
107.48,6.11,3.81,6.10,3.79,-3.79,-3.78,-4.02,2.32,2.31,2.31
108.56,6.07,3.82,6.06,3.81,-3.81,-3.81,-4.08,2.26,2.25,2.26
109.64,6.02,3.83,6.03,3.84,-3.84,-3.83,-4.14,2.19,2.19,2.20
110.74,5.97,3.84,5.99,3.86,-3.86,-3.86,-4.19,2.11,2.13,2.14
111.85,5.93,3.86,5.96,3.89,-3.89,-3.88,-4.25,2.05,2.07,2.08
112.97,5.90,3.88,5.92,3.91,-3.91,-3.91,-4.30,2.00,2.01,2.03
114.10,5.88,3.92,5.88,3.93,-3.93,-3.93,-4.35,1.95,1.96,1.97
115.24,5.85,3.97,5.85,3.95,-3.95,-3.96,-4.40,1.90,1.90,1.89
116.39,5.83,4.01,5.81,3.97,-3.97,-3.99,-4.45,1.86,1.84,1.83
117.55,5.80,4.04,5.78,3.99,-3.99,-4.01,-4.49,1.81,1.78,1.77
118.73,5.76,4.06,5.75,4.02,-4.02,-4.04,-4.53,1.74,1.73,1.71
119.92,5.72,4.06,5.71,4.05,-4.05,-4.06,-4.57,1.68,1.67,1.67
121.12,5.67,4.06,5.68,4.07,-4.07,-4.09,-4.60,1.60,1.61,1.62
122.33,5.63,4.08,5.66,4.10,-4.10,-4.12,-4.63,1.53,1.56,1.56
123.55,5.60,4.10,5.63,4.13,-4.13,-4.14,-4.65,1.48,1.50,1.51
124.79,5.57,4.12,5.60,4.15,-4.15,-4.17,-4.67,1.42,1.45,1.46
126.03,5.55,4.16,5.56,4.18,-4.18,-4.20,-4.68,1.38,1.39,1.40
127.29,5.54,4.20,5.53,4.20,-4.20,-4.23,-4.69,1.35,1.34,1.35
128.57,5.52,4.25,5.50,4.22,-4.22,-4.25,-4.70,1.30,1.28,1.28
129.85,5.49,4.27,5.47,4.25,-4.25,-4.28,-4.70,1.25,1.23,1.23
131.15,5.46,4.30,5.45,4.27,-4.27,-4.31,-4.70,1.19,1.17,1.17
132.46,5.42,4.31,5.42,4.30,-4.30,-4.33,-4.69,1.12,1.12,1.12
133.79,5.39,4.34,5.39,4.33,-4.33,-4.36,-4.68,1.07,1.06,1.06
135.12,5.35,4.35,5.36,4.35,-4.35,-4.39,-4.67,1.00,1.01,1.01
136.48,5.32,4.37,5.33,4.38,-4.38,-4.42,-4.66,0.95,0.96,0.96
137.84,5.29,4.39,5.30,4.40,-4.40,-4.45,-4.64,0.89,0.90,0.91
139.22,5.27,4.43,5.27,4.42,-4.42,-4.47,-4.62,0.86,0.85,0.85
140.61,5.24,4.44,5.24,4.43,-4.43,-4.50,-4.60,0.81,0.80,0.81
142.02,5.22,4.48,5.21,4.45,-4.45,-4.53,-4.58,0.77,0.76,0.75
143.44,5.19,4.49,5.18,4.47,-4.47,-4.56,-4.55,0.72,0.71,0.71
144.87,5.16,4.50,5.16,4.49,-4.49,-4.58,-4.53,0.67,0.66,0.67
146.32,5.13,4.52,5.14,4.52,-4.52,-4.61,-4.51,0.62,0.62,0.62
147.78,5.11,4.54,5.12,4.55,-4.55,-4.64,-4.48,0.57,0.58,0.58
149.26,5.09,4.57,5.11,4.58,-4.58,-4.66,-4.46,0.52,0.53,0.53
150.75,5.07,4.59,5.10,4.61,-4.61,-4.69,-4.44,0.46,0.49,0.49
152.26,5.06,4.62,5.09,4.65,-4.65,-4.72,-4.42,0.42,0.44,0.45
153.78,5.06,4.66,5.09,4.69,-4.69,-4.74,-4.40,0.38,0.40,0.41
155.32,5.06,4.70,5.09,4.73,-4.73,-4.77,-4.38,0.34,0.36,0.37
156.88,5.08,4.77,5.08,4.77,-4.77,-4.80,-4.36,0.31,0.31,0.32
158.44,5.09,4.83,5.08,4.81,-4.81,-4.82,-4.35,0.28,0.27,0.27
160.03,5.10,4.88,5.08,4.86,-4.86,-4.85,-4.34,0.25,0.23,0.23
161.63,5.10,4.92,5.08,4.90,-4.90,-4.87,-4.33,0.20,0.18,0.19
163.24,5.10,4.97,5.08,4.94,-4.94,-4.90,-4.32,0.16,0.14,0.14
164.88,5.09,5.01,5.07,4.98,-4.98,-4.92,-4.32,0.11,0.09,0.09
166.53,5.07,5.04,5.06,5.02,-5.02,-4.95,-4.32,0.06,0.04,0.04
168.19,5.05,5.05,5.05,5.05,-5.05,-4.97,-4.32,0.00,-0.00,0.01
169.87,5.03,5.09,5.03,5.08,-5.08,-5.00,-4.33,-0.05,-0.05,-0.05
171.57,5.00,5.11,5.01,5.11,-5.11,-5.02,-4.34,-0.10,-0.10,-0.10
173.29,4.97,5.12,4.98,5.13,-5.13,-5.04,-4.35,-0.16,-0.15,-0.14
175.02,4.94,5.14,4.96,5.15,-5.15,-5.06,-4.37,-0.21,-0.19,-0.19
176.77,4.91,5.16,4.93,5.17,-5.17,-5.08,-4.39,-0.25,-0.24,-0.24
178.54,4.89,5.18,4.90,5.18,-5.18,-5.11,-4.41,-0.29,-0.29,-0.28
180.32,4.87,5.22,4.87,5.20,-5.20,-5.13,-4.43,-0.33,-0.33,-0.34
182.13,4.84,5.22,4.84,5.22,-5.22,-5.15,-4.46,-0.37,-0.38,-0.37
183.95,4.81,5.24,4.81,5.23,-5.23,-5.17,-4.50,-0.42,-0.42,-0.42
185.79,4.78,5.26,4.78,5.25,-5.25,-5.18,-4.53,-0.47,-0.47,-0.47
187.65,4.75,5.27,4.75,5.27,-5.27,-5.20,-4.57,-0.52,-0.51,-0.51
189.52,4.72,5.28,4.73,5.28,-5.28,-5.22,-4.61,-0.56,-0.56,-0.55
191.42,4.69,5.29,4.70,5.30,-5.30,-5.24,-4.66,-0.61,-0.60,-0.59
193.33,4.66,5.30,4.68,5.32,-5.32,-5.25,-4.70,-0.65,-0.64,-0.63
195.27,4.64,5.33,4.65,5.33,-5.33,-5.27,-4.76,-0.69,-0.68,-0.68
197.22,4.61,5.35,4.62,5.34,-5.34,-5.28,-4.81,-0.73,-0.72,-0.73
199.19,4.59,5.36,4.59,5.35,-5.35,-5.30,-4.86,-0.76,-0.76,-0.76
201.18,4.57,5.38,4.57,5.36,-5.36,-5.31,-4.92,-0.78,-0.79,-0.80
203.19,4.55,5.39,4.54,5.36,-5.36,-5.32,-4.98,-0.81,-0.83,-0.83
205.23,4.52,5.38,4.51,5.37,-5.37,-5.33,-5.04,-0.85,-0.86,-0.85
207.28,4.49,5.38,4.48,5.37,-5.37,-5.34,-5.10,-0.88,-0.89,-0.88
209.35,4.46,5.39,4.45,5.38,-5.38,-5.35,-5.16,-0.91,-0.92,-0.92
211.44,4.42,5.38,4.42,5.38,-5.38,-5.36,-5.23,-0.96,-0.95,-0.95
213.56,4.39,5.37,4.40,5.38,-5.38,-5.37,-5.29,-0.98,-0.98,-0.97
215.69,4.35,5.36,4.37,5.38,-5.38,-5.38,-5.35,-1.02,-1.01,-1.00
217.85,4.32,5.36,4.34,5.37,-5.37,-5.38,-5.41,-1.05,-1.03,-1.03
220.03,4.30,5.37,4.31,5.37,-5.37,-5.39,-5.47,-1.07,-1.06,-1.06
222.23,4.28,5.38,4.28,5.36,-5.36,-5.39,-5.53,-1.08,-1.08,-1.09
224.45,4.25,5.36,4.25,5.36,-5.36,-5.39,-5.59,-1.11,-1.11,-1.10
226.70,4.23,5.37,4.23,5.36,-5.36,-5.39,-5.64,-1.12,-1.13,-1.13
228.96,4.20,5.35,4.21,5.35,-5.35,-5.39,-5.69,-1.15,-1.15,-1.14
231.25,4.18,5.35,4.18,5.35,-5.35,-5.39,-5.73,-1.16,-1.17,-1.16
233.57,4.16,5.35,4.16,5.34,-5.34,-5.39,-5.78,-1.18,-1.18,-1.18
235.90,4.14,5.34,4.14,5.34,-5.34,-5.39,-5.81,-1.19,-1.20,-1.19
238.26,4.11,5.34,4.12,5.33,-5.33,-5.39,-5.84,-1.21,-1.21,-1.22
240.64,4.09,5.31,4.09,5.31,-5.31,-5.38,-5.86,-1.22,-1.22,-1.21
243.05,4.06,5.30,4.07,5.30,-5.30,-5.38,-5.88,-1.24,-1.23,-1.23
245.48,4.04,5.29,4.04,5.28,-5.28,-5.37,-5.89,-1.24,-1.24,-1.24
247.93,4.03,5.29,4.02,5.27,-5.27,-5.36,-5.90,-1.23,-1.25,-1.25
250.41,4.01,5.26,4.00,5.25,-5.25,-5.35,-5.89,-1.23,-1.25,-1.24
252.92,3.98,5.24,3.97,5.23,-5.23,-5.34,-5.88,-1.24,-1.25,-1.25
255.45,3.95,5.22,3.95,5.21,-5.21,-5.33,-5.87,-1.25,-1.26,-1.26
258.00,3.92,5.19,3.92,5.19,-5.19,-5.32,-5.84,-1.27,-1.26,-1.26
260.58,3.89,5.16,3.90,5.17,-5.17,-5.31,-5.81,-1.28,-1.27,-1.26
263.19,3.86,5.13,3.88,5.15,-5.15,-5.29,-5.78,-1.29,-1.27,-1.26
265.82,3.84,5.12,3.86,5.13,-5.13,-5.28,-5.73,-1.29,-1.27,-1.27
268.48,3.83,5.11,3.84,5.12,-5.12,-5.26,-5.69,-1.29,-1.28,-1.27
271.16,3.81,5.09,3.82,5.10,-5.10,-5.24,-5.63,-1.29,-1.28,-1.27
273.87,3.80,5.08,3.80,5.08,-5.08,-5.23,-5.57,-1.28,-1.28,-1.27
276.61,3.78,5.06,3.78,5.06,-5.06,-5.21,-5.51,-1.28,-1.28,-1.27
279.38,3.77,5.07,3.77,5.05,-5.05,-5.19,-5.45,-1.27,-1.28,-1.29
282.17,3.75,5.05,3.74,5.02,-5.02,-5.17,-5.38,-1.27,-1.28,-1.29
284.99,3.74,5.03,3.72,5.00,-5.00,-5.14,-5.31,-1.26,-1.28,-1.28
287.84,3.72,5.00,3.70,4.98,-4.98,-5.12,-5.24,-1.26,-1.28,-1.27
290.72,3.69,4.98,3.68,4.95,-4.95,-5.10,-5.16,-1.26,-1.27,-1.28
293.63,3.66,4.94,3.65,4.93,-4.93,-5.07,-5.09,-1.26,-1.27,-1.27
296.57,3.63,4.90,3.63,4.90,-4.90,-5.05,-5.01,-1.26,-1.27,-1.26
299.53,3.60,4.87,3.60,4.87,-4.87,-5.02,-4.94,-1.26,-1.26,-1.26
302.53,3.57,4.82,3.58,4.84,-4.84,-4.99,-4.87,-1.26,-1.26,-1.24
305.55,3.54,4.80,3.56,4.81,-4.81,-4.96,-4.79,-1.26,-1.25,-1.25
308.61,3.51,4.76,3.54,4.78,-4.78,-4.93,-4.72,-1.27,-1.24,-1.24
311.69,3.49,4.73,3.52,4.75,-4.75,-4.90,-4.65,-1.26,-1.23,-1.23
314.81,3.48,4.72,3.50,4.73,-4.73,-4.87,-4.58,-1.25,-1.23,-1.23
317.96,3.47,4.70,3.48,4.71,-4.71,-4.84,-4.51,-1.23,-1.22,-1.22
321.14,3.46,4.68,3.47,4.68,-4.68,-4.81,-4.44,-1.22,-1.21,-1.21
324.35,3.45,4.67,3.45,4.66,-4.66,-4.78,-4.38,-1.21,-1.21,-1.21
327.59,3.45,4.64,3.44,4.64,-4.64,-4.74,-4.32,-1.18,-1.20,-1.18
330.87,3.44,4.64,3.42,4.62,-4.62,-4.71,-4.26,-1.17,-1.19,-1.19
334.18,3.43,4.62,3.41,4.59,-4.59,-4.67,-4.20,-1.16,-1.18,-1.18
337.52,3.41,4.60,3.39,4.57,-4.57,-4.64,-4.15,-1.15,-1.18,-1.18
340.90,3.38,4.55,3.37,4.54,-4.54,-4.60,-4.10,-1.16,-1.17,-1.16
344.30,3.36,4.52,3.35,4.51,-4.51,-4.57,-4.05,-1.15,-1.16,-1.15
347.75,3.33,4.49,3.33,4.48,-4.48,-4.53,-4.01,-1.15,-1.15,-1.15
351.23,3.29,4.45,3.31,4.45,-4.45,-4.49,-3.97,-1.16,-1.14,-1.15
354.74,3.26,4.39,3.28,4.42,-4.42,-4.45,-3.93,-1.15,-1.14,-1.12
358.28,3.24,4.38,3.26,4.38,-4.38,-4.42,-3.90,-1.14,-1.13,-1.13
361.87,3.22,4.35,3.23,4.35,-4.35,-4.38,-3.87,-1.13,-1.12,-1.12
365.49,3.20,4.32,3.21,4.32,-4.32,-4.34,-3.84,-1.12,-1.11,-1.11
369.14,3.18,4.28,3.18,4.28,-4.28,-4.30,-3.81,-1.10,-1.10,-1.09
372.83,3.16,4.26,3.16,4.25,-4.25,-4.26,-3.79,-1.09,-1.10,-1.09
376.56,3.13,4.23,3.13,4.22,-4.22,-4.22,-3.77,-1.09,-1.09,-1.09
380.33,3.11,4.20,3.11,4.19,-4.19,-4.18,-3.75,-1.07,-1.08,-1.08
384.13,3.08,4.15,3.09,4.15,-4.15,-4.14,-3.73,-1.07,-1.07,-1.06
387.97,3.06,4.13,3.06,4.12,-4.12,-4.10,-3.72,-1.06,-1.06,-1.06
391.85,3.04,4.10,3.04,4.08,-4.08,-4.05,-3.71,-1.04,-1.05,-1.05
395.77,3.02,4.07,3.01,4.05,-4.05,-4.01,-3.70,-1.02,-1.04,-1.04
399.73,2.99,4.03,2.98,4.01,-4.01,-3.97,-3.70,-1.02,-1.03,-1.03
403.72,2.96,3.97,2.95,3.97,-3.97,-3.93,-3.70,-1.01,-1.02,-1.00
407.76,2.93,3.95,2.93,3.94,-3.94,-3.89,-3.69,-1.00,-1.01,-1.01
411.84,2.90,3.91,2.91,3.91,-3.91,-3.84,-3.69,-1.00,-1.00,-1.00
415.96,2.87,3.86,2.89,3.88,-3.88,-3.80,-3.69,-1.00,-0.99,-0.98
420.12,2.85,3.84,2.87,3.85,-3.85,-3.76,-3.70,-1.00,-0.98,-0.98
424.32,2.83,3.81,2.85,3.83,-3.83,-3.72,-3.70,-0.99,-0.97,-0.97
428.56,2.81,3.77,2.84,3.80,-3.80,-3.67,-3.70,-0.99,-0.96,-0.95
432.85,2.80,3.75,2.83,3.78,-3.78,-3.63,-3.70,-0.98,-0.95,-0.94
437.18,2.80,3.76,2.82,3.76,-3.76,-3.59,-3.71,-0.96,-0.94,-0.95
441.55,2.80,3.75,2.81,3.75,-3.75,-3.54,-3.71,-0.94,-0.94,-0.94
445.96,2.81,3.75,2.80,3.73,-3.73,-3.50,-3.71,-0.91,-0.93,-0.93
450.42,2.81,3.74,2.79,3.71,-3.71,-3.46,-3.71,-0.90,-0.92,-0.92
454.93,2.81,3.73,2.78,3.69,-3.69,-3.41,-3.71,-0.88,-0.91,-0.91
459.48,2.79,3.70,2.77,3.67,-3.67,-3.37,-3.71,-0.88,-0.90,-0.90
464.07,2.77,3.66,2.76,3.65,-3.65,-3.33,-3.71,-0.88,-0.89,-0.88
468.71,2.75,3.63,2.74,3.62,-3.62,-3.29,-3.70,-0.87,-0.88,-0.87
473.40,2.72,3.60,2.72,3.60,-3.60,-3.24,-3.69,-0.87,-0.87,-0.87
478.13,2.69,3.56,2.70,3.56,-3.56,-3.20,-3.68,-0.87,-0.86,-0.86
482.91,2.66,3.52,2.68,3.53,-3.53,-3.16,-3.67,-0.86,-0.85,-0.85
487.74,2.64,3.49,2.65,3.49,-3.49,-3.11,-3.65,-0.85,-0.84,-0.84
492.62,2.61,3.45,2.62,3.45,-3.45,-3.07,-3.63,-0.84,-0.83,-0.83
497.55,2.59,3.42,2.59,3.41,-3.41,-3.03,-3.60,-0.82,-0.82,-0.82
502.52,2.56,3.38,2.57,3.37,-3.37,-2.99,-3.58,-0.81,-0.81,-0.81
507.55,2.54,3.34,2.54,3.33,-3.33,-2.94,-3.55,-0.79,-0.79,-0.79
512.62,2.51,3.30,2.51,3.30,-3.30,-2.90,-3.51,-0.78,-0.78,-0.78
517.75,2.47,3.24,2.49,3.26,-3.26,-2.86,-3.47,-0.79,-0.77,-0.76
