frequency,raw,error,smoothed,error_smoothed,equalization,parametric_eq,fixed_band_eq,equalized_raw,equalized_smoothed,target
20.00,7.63,-1.57,7.64,-1.57,1.57,1.41,0.29,9.21,9.21,9.21
20.20,7.64,-1.55,7.64,-1.55,1.55,1.39,0.30,9.19,9.20,9.20
20.40,7.65,-1.53,7.65,-1.53,1.53,1.37,0.31,9.18,9.18,9.19
20.61,7.66,-1.51,7.66,-1.51,1.51,1.35,0.32,9.17,9.17,9.18
20.81,7.68,-1.47,7.68,-1.48,1.48,1.34,0.33,9.17,9.16,9.15
21.02,7.69,-1.45,7.69,-1.46,1.46,1.32,0.35,9.15,9.15,9.14
21.23,7.70,-1.43,7.70,-1.43,1.43,1.30,0.36,9.14,9.14,9.13
21.44,7.72,-1.42,7.72,-1.41,1.41,1.28,0.37,9.13,9.13,9.14
21.66,7.74,-1.38,7.74,-1.38,1.38,1.26,0.38,9.12,9.12,9.12
21.87,7.76,-1.36,7.76,-1.35,1.35,1.24,0.39,9.11,9.11,9.12
22.09,7.78,-1.32,7.78,-1.32,1.32,1.22,0.41,9.10,9.10,9.10
22.31,7.80,-1.29,7.80,-1.29,1.29,1.20,0.42,9.09,9.10,9.10
22.54,7.82,-1.26,7.83,-1.26,1.26,1.18,0.43,9.08,9.09,9.09
22.76,7.85,-1.23,7.86,-1.22,1.22,1.16,0.45,9.08,9.08,9.09
22.99,7.87,-1.20,7.89,-1.19,1.19,1.14,0.46,9.06,9.08,9.07
23.22,7.90,-1.16,7.92,-1.15,1.15,1.12,0.48,9.06,9.07,9.06
23.45,7.94,-1.13,7.95,-1.12,1.12,1.09,0.49,9.06,9.07,9.07
23.69,7.98,-1.08,7.98,-1.08,1.08,1.07,0.51,9.06,9.06,9.06
23.92,8.01,-1.04,8.01,-1.04,1.04,1.05,0.52,9.06,9.06,9.05
24.16,8.05,-1.00,8.05,-1.01,1.01,1.03,0.54,9.06,9.05,9.06
24.40,8.09,-0.96,8.08,-0.97,0.97,1.01,0.55,9.06,9.05,9.06
24.65,8.12,-0.93,8.11,-0.94,0.94,0.99,0.57,9.06,9.05,9.05
24.89,8.15,-0.90,8.14,-0.90,0.90,0.97,0.59,9.06,9.05,9.05
25.14,8.17,-0.87,8.17,-0.87,0.87,0.94,0.60,9.05,9.04,9.04
25.39,8.19,-0.85,8.20,-0.84,0.84,0.92,0.62,9.04,9.04,9.04
25.65,8.22,-0.81,8.22,-0.82,0.82,0.90,0.64,9.04,9.04,9.04
25.91,8.25,-0.78,8.24,-0.79,0.79,0.88,0.65,9.05,9.04,9.04
26.16,8.27,-0.77,8.26,-0.78,0.78,0.86,0.67,9.05,9.04,9.04
26.43,8.29,-0.75,8.28,-0.76,0.76,0.83,0.68,9.05,9.04,9.04
26.69,8.30,-0.74,8.29,-0.74,0.74,0.81,0.70,9.05,9.04,9.04
26.96,8.31,-0.72,8.31,-0.73,0.73,0.79,0.71,9.04,9.04,9.04
27.23,8.32,-0.71,8.32,-0.71,0.71,0.77,0.72,9.04,9.04,9.03
27.50,8.34,-0.69,8.34,-0.70,0.70,0.75,0.74,9.04,9.04,9.03
27.77,8.35,-0.69,8.36,-0.68,0.68,0.73,0.75,9.04,9.04,9.04
28.05,8.36,-0.67,8.38,-0.66,0.66,0.70,0.76,9.03,9.04,9.04
28.33,8.37,-0.67,8.40,-0.64,0.64,0.68,0.77,9.02,9.04,9.04
28.62,8.40,-0.64,8.42,-0.62,0.62,0.66,0.78,9.02,9.04,9.04
28.90,8.42,-0.62,8.44,-0.60,0.60,0.64,0.79,9.02,9.04,9.05
29.19,8.46,-0.58,8.47,-0.57,0.57,0.62,0.79,9.03,9.04,9.05
29.48,8.49,-0.55,8.50,-0.54,0.54,0.60,0.80,9.03,9.04,9.04
29.78,8.52,-0.52,8.52,-0.51,0.51,0.57,0.80,9.03,9.03,9.04
30.08,8.55,-0.48,8.55,-0.48,0.48,0.55,0.80,9.03,9.03,9.04
30.38,8.58,-0.44,8.57,-0.45,0.45,0.53,0.80,9.03,9.03,9.02
30.68,8.60,-0.41,8.60,-0.42,0.42,0.51,0.80,9.03,9.02,9.02
30.99,8.63,-0.38,8.62,-0.40,0.40,0.49,0.79,9.03,9.02,9.01
31.30,8.65,-0.36,8.63,-0.37,0.37,0.47,0.79,9.03,9.01,9.01
31.61,8.66,-0.34,8.65,-0.35,0.35,0.45,0.78,9.02,9.00,9.01
31.93,8.67,-0.31,8.66,-0.34,0.34,0.43,0.77,9.01,8.99,8.98
32.24,8.67,-0.31,8.66,-0.32,0.32,0.40,0.76,8.99,8.98,8.99
32.57,8.67,-0.30,8.67,-0.31,0.31,0.38,0.75,8.98,8.98,8.97
32.89,8.66,-0.30,8.67,-0.30,0.30,0.36,0.73,8.96,8.97,8.97
33.22,8.65,-0.31,8.67,-0.29,0.29,0.34,0.71,8.95,8.96,8.96
33.55,8.65,-0.30,8.67,-0.29,0.29,0.32,0.70,8.94,8.95,8.96
33.89,8.65,-0.29,8.66,-0.28,0.28,0.30,0.68,8.93,8.94,8.94
34.23,8.65,-0.27,8.66,-0.27,0.27,0.28,0.65,8.93,8.93,8.93
34.57,8.65,-0.27,8.66,-0.27,0.27,0.26,0.63,8.92,8.92,8.92
34.92,8.65,-0.25,8.65,-0.26,0.26,0.24,0.61,8.91,8.91,8.90
35.27,8.65,-0.26,8.65,-0.25,0.25,0.22,0.58,8.90,8.90,8.92
35.62,8.65,-0.24,8.65,-0.24,0.24,0.20,0.56,8.89,8.89,8.89
35.97,8.65,-0.23,8.65,-0.22,0.22,0.18,0.53,8.87,8.87,8.88
36.33,8.65,-0.21,8.65,-0.21,0.21,0.15,0.50,8.86,8.86,8.87
36.70,8.65,-0.19,8.65,-0.19,0.19,0.13,0.47,8.84,8.84,8.84
37.06,8.65,-0.17,8.65,-0.17,0.17,0.11,0.44,8.82,8.82,8.82
37.43,8.65,-0.15,8.65,-0.15,0.15,0.09,0.41,8.80,8.80,8.80
37.81,8.65,-0.13,8.65,-0.13,0.13,0.07,0.38,8.78,8.78,8.78
38.19,8.65,-0.10,8.65,-0.11,0.11,0.05,0.35,8.76,8.76,8.76
38.57,8.65,-0.08,8.66,-0.08,0.08,0.03,0.32,8.73,8.74,8.74
38.95,8.65,-0.06,8.66,-0.05,0.05,0.01,0.29,8.71,8.71,8.72
39.34,8.65,-0.03,8.66,-0.03,0.03,-0.01,0.26,8.68,8.69,8.69
39.74,8.65,-0.00,8.66,0.00,-0.00,-0.03,0.23,8.65,8.66,8.66
40.14,8.65,0.02,8.67,0.03,-0.03,-0.05,0.19,8.63,8.64,8.64
40.54,8.66,0.05,8.67,0.05,-0.05,-0.07,0.16,8.61,8.61,8.62
40.94,8.66,0.08,8.67,0.08,-0.08,-0.09,0.13,8.59,8.59,8.58
41.35,8.67,0.11,8.66,0.10,-0.10,-0.11,0.10,8.57,8.56,8.56
41.76,8.67,0.14,8.66,0.12,-0.12,-0.14,0.06,8.55,8.54,8.53
42.18,8.66,0.14,8.65,0.13,-0.13,-0.16,0.03,8.53,8.51,8.52
42.60,8.65,0.17,8.64,0.15,-0.15,-0.18,-0.00,8.50,8.49,8.49
43.03,8.63,0.17,8.62,0.16,-0.16,-0.20,-0.03,8.47,8.46,8.46
43.46,8.61,0.19,8.60,0.17,-0.17,-0.22,-0.07,8.44,8.43,8.43
43.90,8.58,0.18,8.58,0.18,-0.18,-0.24,-0.10,8.41,8.40,8.40
44.33,8.56,0.19,8.55,0.18,-0.18,-0.26,-0.13,8.38,8.37,8.37
44.78,8.53,0.19,8.53,0.19,-0.19,-0.28,-0.16,8.35,8.34,8.34
45.23,8.49,0.18,8.50,0.19,-0.19,-0.31,-0.20,8.30,8.30,8.32
45.68,8.46,0.19,8.47,0.20,-0.20,-0.33,-0.23,8.27,8.27,8.27
46.13,8.43,0.20,8.44,0.21,-0.21,-0.35,-0.26,8.23,8.23,8.23
46.60,8.40,0.21,8.41,0.22,-0.22,-0.37,-0.30,8.18,8.19,8.19
47.06,8.38,0.23,8.39,0.24,-0.24,-0.39,-0.33,8.14,8.15,8.16
47.53,8.35,0.24,8.37,0.27,-0.27,-0.42,-0.36,8.08,8.11,8.12
48.01,8.33,0.28,8.36,0.30,-0.30,-0.44,-0.39,8.03,8.06,8.06
48.49,8.32,0.31,8.35,0.33,-0.33,-0.46,-0.43,7.99,8.02,8.02
48.97,8.31,0.35,8.34,0.37,-0.37,-0.48,-0.46,7.94,7.97,7.96
49.46,8.31,0.39,8.33,0.41,-0.41,-0.51,-0.49,7.90,7.92,7.92
49.96,8.32,0.46,8.33,0.45,-0.45,-0.53,-0.52,7.87,7.88,7.86
50.46,8.33,0.51,8.32,0.49,-0.49,-0.55,-0.56,7.84,7.83,7.83
50.96,8.34,0.56,8.31,0.53,-0.53,-0.58,-0.59,7.81,7.78,7.78
51.47,8.33,0.60,8.30,0.57,-0.57,-0.60,-0.62,7.77,7.74,7.74
51.99,8.32,0.64,8.29,0.60,-0.60,-0.62,-0.66,7.72,7.69,7.68
52.51,8.30,0.66,8.28,0.64,-0.64,-0.65,-0.69,7.67,7.64,7.64
53.03,8.27,0.67,8.26,0.67,-0.67,-0.67,-0.72,7.61,7.59,7.61
53.56,8.24,0.69,8.24,0.69,-0.69,-0.69,-0.75,7.55,7.55,7.56
54.10,8.22,0.73,8.22,0.72,-0.72,-0.72,-0.78,7.50,7.50,7.50
54.64,8.18,0.73,8.20,0.74,-0.74,-0.74,-0.82,7.44,7.46,7.46
55.18,8.15,0.75,8.17,0.76,-0.76,-0.77,-0.85,7.40,7.41,7.41
55.74,8.12,0.77,8.14,0.77,-0.77,-0.79,-0.88,7.35,7.37,7.35
56.29,8.10,0.78,8.12,0.79,-0.79,-0.82,-0.91,7.31,7.32,7.32
56.86,8.08,0.81,8.09,0.81,-0.81,-0.85,-0.94,7.27,7.28,7.28
57.42,8.06,0.84,8.06,0.83,-0.83,-0.87,-0.97,7.23,7.23,7.22
58.00,8.04,0.87,8.04,0.86,-0.86,-0.90,-1.00,7.18,7.18,7.17
58.58,8.02,0.89,8.02,0.89,-0.89,-0.92,-1.02,7.13,7.13,7.14
59.16,7.99,0.90,8.00,0.92,-0.92,-0.95,-1.05,7.07,7.08,7.10
59.76,7.97,0.93,7.98,0.96,-0.96,-0.98,-1.08,7.02,7.02,7.05
60.35,7.95,0.97,7.96,0.99,-0.99,-1.01,-1.11,6.96,6.97,6.99
60.96,7.93,1.01,7.94,1.03,-1.03,-1.03,-1.13,6.91,6.91,6.92
61.57,7.90,1.05,7.91,1.06,-1.06,-1.06,-1.16,6.84,6.85,6.85
62.18,7.89,1.11,7.89,1.09,-1.09,-1.09,-1.18,6.80,6.79,6.79
62.80,7.87,1.15,7.86,1.13,-1.13,-1.12,-1.21,6.75,6.73,6.72
63.43,7.84,1.19,7.83,1.16,-1.16,-1.15,-1.23,6.69,6.67,6.65
64.07,7.81,1.22,7.79,1.19,-1.19,-1.18,-1.25,6.62,6.61,6.59
64.71,7.78,1.25,7.76,1.22,-1.22,-1.21,-1.27,6.56,6.54,6.54
65.35,7.74,1.27,7.73,1.25,-1.25,-1.24,-1.29,6.49,6.48,6.47
66.01,7.70,1.29,7.70,1.29,-1.29,-1.27,-1.31,6.42,6.41,6.41
66.67,7.65,1.29,7.67,1.32,-1.32,-1.30,-1.34,6.34,6.35,6.36
67.33,7.61,1.33,7.64,1.35,-1.35,-1.33,-1.36,6.26,6.29,6.28
68.01,7.57,1.34,7.60,1.38,-1.38,-1.36,-1.38,6.19,6.22,6.23
68.69,7.54,1.38,7.57,1.41,-1.41,-1.39,-1.40,6.13,6.16,6.16
69.37,7.51,1.41,7.54,1.44,-1.44,-1.42,-1.42,6.07,6.09,6.10
70.07,7.50,1.47,7.50,1.47,-1.47,-1.45,-1.44,6.03,6.03,6.03
70.77,7.49,1.53,7.47,1.51,-1.51,-1.49,-1.46,5.99,5.96,5.96
71.48,7.46,1.56,7.44,1.54,-1.54,-1.52,-1.48,5.92,5.89,5.90
72.19,7.43,1.61,7.41,1.58,-1.58,-1.55,-1.50,5.85,5.83,5.83
72.91,7.39,1.64,7.38,1.62,-1.62,-1.59,-1.52,5.77,5.76,5.75
73.64,7.35,1.67,7.35,1.66,-1.66,-1.62,-1.54,5.69,5.69,5.68
74.38,7.31,1.70,7.32,1.70,-1.70,-1.65,-1.56,5.62,5.63,5.62
75.12,7.27,1.71,7.30,1.73,-1.73,-1.69,-1.59,5.54,5.56,5.56
75.87,7.24,1.75,7.27,1.77,-1.77,-1.72,-1.61,5.47,5.50,5.50
76.63,7.21,1.79,7.24,1.80,-1.80,-1.76,-1.63,5.41,5.43,5.43
77.40,7.19,1.82,7.20,1.83,-1.83,-1.79,-1.66,5.36,5.37,5.37
78.17,7.18,1.88,7.17,1.86,-1.86,-1.83,-1.69,5.32,5.31,5.30
78.95,7.16,1.91,7.14,1.89,-1.89,-1.86,-1.71,5.27,5.25,5.25
79.74,7.13,1.94,7.11,1.92,-1.92,-1.90,-1.74,5.21,5.19,5.19
80.54,7.09,1.96,7.08,1.95,-1.95,-1.94,-1.77,5.14,5.13,5.13
81.35,7.06,2.00,7.05,1.99,-1.99,-1.97,-1.81,5.07,5.06,5.06
82.16,7.02,2.01,7.03,2.02,-2.02,-2.01,-1.84,5.00,5.00,5.01
82.98,6.98,2.04,7.00,2.06,-2.06,-2.05,-1.87,4.92,4.94,4.94
83.81,6.94,2.06,6.97,2.09,-2.09,-2.09,-1.91,4.85,4.87,4.88
84.65,6.91,2.11,6.94,2.13,-2.13,-2.12,-1.95,4.78,4.81,4.81
85.50,6.89,2.15,6.91,2.16,-2.16,-2.16,-1.98,4.73,4.75,4.74
86.35,6.87,2.20,6.87,2.19,-2.19,-2.20,-2.02,4.68,4.68,4.68
87.22,6.86,2.25,6.84,2.23,-2.23,-2.24,-2.07,4.64,4.61,4.61
88.09,6.83,2.29,6.81,2.26,-2.26,-2.27,-2.11,4.57,4.55,4.55
88.97,6.80,2.33,6.78,2.30,-2.30,-2.31,-2.15,4.50,4.48,4.48
89.86,6.76,2.35,6.75,2.34,-2.34,-2.35,-2.20,4.42,4.41,4.41
90.76,6.71,2.37,6.72,2.38,-2.38,-2.39,-2.25,4.33,4.34,4.34
91.66,6.67,2.41,6.69,2.43,-2.43,-2.43,-2.30,4.25,4.26,4.26
92.58,6.63,2.43,6.66,2.47,-2.47,-2.46,-2.35,4.17,4.19,4.20
93.51,6.60,2.48,6.62,2.50,-2.50,-2.50,-2.40,4.10,4.12,4.13
94.44,6.58,2.53,6.59,2.54,-2.54,-2.54,-2.46,4.04,4.05,4.06
95.39,6.55,2.58,6.55,2.58,-2.58,-2.58,-2.51,3.97,3.97,3.97
96.34,6.53,2.63,6.52,2.62,-2.62,-2.62,-2.57,3.92,3.90,3.90
97.30,6.50,2.68,6.48,2.65,-2.65,-2.66,-2.63,3.85,3.82,3.83
98.28,6.46,2.72,6.44,2.69,-2.69,-2.69,-2.69,3.77,3.75,3.74
99.26,6.41,2.74,6.41,2.73,-2.73,-2.73,-2.75,3.68,3.68,3.67
100.25,6.36,2.77,6.37,2.77,-2.77,-2.77,-2.81,3.60,3.61,3.59
101.25,6.32,2.79,6.34,2.80,-2.80,-2.81,-2.88,3.52,3.53,3.53
102.27,6.28,2.82,6.30,2.84,-2.84,-2.84,-2.94,3.45,3.46,3.46
103.29,6.25,2.86,6.26,2.87,-2.87,-2.88,-3.00,3.39,3.39,3.39
104.32,6.22,2.90,6.22,2.89,-2.89,-2.92,-3.07,3.33,3.32,3.32
105.37,6.18,2.93,6.18,2.92,-2.92,-2.96,-3.13,3.26,3.25,3.26
106.42,6.15,2.96,6.14,2.95,-2.95,-2.99,-3.19,3.20,3.19,3.19
107.48,6.11,3.00,6.10,2.98,-2.98,-3.03,-3.26,3.13,3.12,3.12
108.56,6.07,3.02,6.06,3.02,-3.02,-3.07,-3.32,3.06,3.05,3.05
109.64,6.02,3.04,6.03,3.05,-3.05,-3.11,-3.38,2.97,2.98,2.99
110.74,5.97,3.06,5.99,3.09,-3.09,-3.14,-3.44,2.88,2.91,2.91
111.85,5.93,3.10,5.96,3.12,-3.12,-3.18,-3.50,2.81,2.83,2.84
112.97,5.90,3.13,5.92,3.16,-3.16,-3.21,-3.56,2.74,2.76,2.77
114.10,5.88,3.19,5.88,3.19,-3.19,-3.25,-3.62,2.69,2.69,2.70
115.24,5.85,3.24,5.85,3.23,-3.23,-3.29,-3.67,2.63,2.62,2.61
116.39,5.83,3.29,5.81,3.26,-3.26,-3.32,-3.72,2.57,2.55,2.54
117.55,5.80,3.33,5.78,3.30,-3.30,-3.36,-3.77,2.51,2.48,2.47
118.73,5.76,3.37,5.75,3.33,-3.33,-3.40,-3.81,2.43,2.41,2.40
119.92,5.72,3.39,5.71,3.37,-3.37,-3.43,-3.85,2.35,2.34,2.33
121.12,5.67,3.40,5.68,3.41,-3.41,-3.47,-3.89,2.26,2.27,2.27
122.33,5.63,3.43,5.66,3.45,-3.45,-3.50,-3.92,2.18,2.20,2.20
123.55,5.60,3.46,5.63,3.49,-3.49,-3.54,-3.95,2.11,2.13,2.14
124.79,5.57,3.50,5.60,3.53,-3.53,-3.58,-3.98,2.04,2.07,2.08
126.03,5.55,3.55,5.56,3.57,-3.57,-3.61,-4.00,1.99,2.00,2.01
127.29,5.54,3.60,5.53,3.60,-3.60,-3.65,-4.02,1.94,1.93,1.94
128.57,5.52,3.66,5.50,3.64,-3.64,-3.69,-4.04,1.89,1.87,1.86
129.85,5.49,3.69,5.47,3.68,-3.68,-3.72,-4.05,1.82,1.80,1.80
131.15,5.46,3.74,5.45,3.71,-3.71,-3.76,-4.06,1.75,1.73,1.72
132.46,5.42,3.76,5.42,3.75,-3.75,-3.79,-4.06,1.67,1.66,1.66
133.79,5.39,3.80,5.39,3.79,-3.79,-3.83,-4.06,1.60,1.60,1.59
135.12,5.35,3.82,5.36,3.83,-3.83,-3.87,-4.06,1.52,1.53,1.53
136.48,5.32,3.85,5.33,3.87,-3.87,-3.90,-4.06,1.45,1.46,1.47
137.84,5.29,3.89,5.30,3.90,-3.90,-3.94,-4.06,1.39,1.40,1.40
139.22,5.27,3.94,5.27,3.93,-3.93,-3.97,-4.05,1.34,1.34,1.33
140.61,5.24,3.97,5.24,3.96,-3.96,-4.01,-4.04,1.28,1.28,1.27
142.02,5.22,4.01,5.21,3.99,-3.99,-4.05,-4.03,1.23,1.22,1.21
143.44,5.19,4.04,5.18,4.02,-4.02,-4.08,-4.02,1.17,1.16,1.16
144.87,5.16,4.06,5.16,4.06,-4.06,-4.12,-4.01,1.11,1.10,1.10
146.32,5.13,4.09,5.14,4.09,-4.09,-4.16,-4.00,1.04,1.04,1.04
147.78,5.11,4.12,5.12,4.13,-4.13,-4.19,-3.99,0.98,0.99,0.99
149.26,5.09,4.16,5.11,4.18,-4.18,-4.23,-3.98,0.92,0.93,0.93
150.75,5.07,4.20,5.10,4.22,-4.22,-4.26,-3.97,0.85,0.88,0.87
152.26,5.06,4.24,5.09,4.27,-4.27,-4.30,-3.97,0.79,0.82,0.83
153.78,5.06,4.29,5.09,4.32,-4.32,-4.33,-3.96,0.74,0.77,0.77
155.32,5.06,4.35,5.09,4.37,-4.37,-4.37,-3.96,0.69,0.71,0.72
156.88,5.08,4.42,5.08,4.43,-4.43,-4.40,-3.95,0.66,0.66,0.66
158.44,5.09,4.49,5.08,4.48,-4.48,-4.44,-3.95,0.61,0.60,0.60
160.03,5.10,4.55,5.08,4.53,-4.53,-4.47,-3.95,0.57,0.55,0.55
161.63,5.10,4.61,5.08,4.59,-4.59,-4.51,-3.96,0.52,0.49,0.49
163.24,5.10,4.67,5.08,4.64,-4.64,-4.54,-3.97,0.46,0.44,0.44
164.88,5.09,4.71,5.07,4.69,-4.69,-4.58,-3.98,0.40,0.38,0.38
166.53,5.07,4.76,5.06,4.74,-4.74,-4.61,-3.99,0.34,0.32,0.32
168.19,5.05,4.78,5.05,4.78,-4.78,-4.64,-4.00,0.27,0.27,0.27
169.87,5.03,4.82,5.03,4.82,-4.82,-4.68,-4.02,0.21,0.21,0.21
171.57,5.00,4.86,5.01,4.86,-4.86,-4.71,-4.04,0.15,0.15,0.15
173.29,4.97,4.87,4.98,4.89,-4.89,-4.74,-4.07,0.08,0.09,0.10
175.02,4.94,4.90,4.96,4.92,-4.92,-4.77,-4.09,0.02,0.04,0.04
176.77,4.91,4.93,4.93,4.95,-4.95,-4.80,-4.12,-0.03,-0.02,-0.02
178.54,4.89,4.97,4.90,4.97,-4.97,-4.83,-4.16,-0.08,-0.07,-0.07
180.32,4.87,5.01,4.87,5.00,-5.00,-4.86,-4.19,-0.12,-0.13,-0.14
182.13,4.84,5.03,4.84,5.02,-5.02,-4.89,-4.23,-0.18,-0.18,-0.18
183.95,4.81,5.05,4.81,5.05,-5.05,-4.92,-4.28,-0.24,-0.24,-0.23
185.79,4.78,5.08,4.78,5.07,-5.07,-4.95,-4.32,-0.29,-0.29,-0.30
187.65,4.75,5.10,4.75,5.10,-5.10,-4.98,-4.37,-0.35,-0.35,-0.35
189.52,4.72,5.12,4.73,5.12,-5.12,-5.00,-4.43,-0.40,-0.40,-0.40
191.42,4.69,5.14,4.70,5.15,-5.15,-5.03,-4.48,-0.46,-0.45,-0.44
193.33,4.66,5.15,4.68,5.17,-5.17,-5.05,-4.54,-0.51,-0.50,-0.49
195.27,4.64,5.19,4.65,5.19,-5.19,-5.08,-4.60,-0.55,-0.54,-0.55
197.22,4.61,5.21,4.62,5.21,-5.21,-5.10,-4.66,-0.60,-0.59,-0.60
199.19,4.59,5.23,4.59,5.23,-5.23,-5.12,-4.73,-0.63,-0.63,-0.63
201.18,4.57,5.26,4.57,5.24,-5.24,-5.15,-4.79,-0.67,-0.67,-0.69
203.19,4.55,5.27,4.54,5.25,-5.25,-5.17,-4.86,-0.70,-0.72,-0.72
205.23,4.52,5.27,4.51,5.27,-5.27,-5.19,-4.93,-0.74,-0.76,-0.75
207.28,4.49,5.28,4.48,5.28,-5.28,-5.21,-5.00,-0.78,-0.79,-0.79
209.35,4.46,5.29,4.45,5.28,-5.28,-5.22,-5.07,-0.82,-0.83,-0.83
211.44,4.42,5.29,4.42,5.29,-5.29,-5.24,-5.14,-0.87,-0.87,-0.87
213.56,4.39,5.29,4.40,5.30,-5.30,-5.26,-5.21,-0.90,-0.90,-0.89
215.69,4.35,5.28,4.37,5.30,-5.30,-5.27,-5.29,-0.95,-0.94,-0.93
217.85,4.32,5.29,4.34,5.31,-5.31,-5.29,-5.35,-0.98,-0.97,-0.97
220.03,4.30,5.30,4.31,5.31,-5.31,-5.30,-5.42,-1.01,-1.00,-1.00
222.23,4.28,5.32,4.28,5.31,-5.31,-5.31,-5.49,-1.03,-1.03,-1.03
224.45,4.25,5.31,4.25,5.31,-5.31,-5.32,-5.55,-1.06,-1.05,-1.06
226.70,4.23,5.32,4.23,5.31,-5.31,-5.33,-5.61,-1.08,-1.08,-1.09
228.96,4.20,5.30,4.21,5.31,-5.31,-5.34,-5.67,-1.11,-1.11,-1.10
231.25,4.18,5.31,4.18,5.31,-5.31,-5.35,-5.72,-1.13,-1.13,-1.13
233.57,4.16,5.31,4.16,5.31,-5.31,-5.35,-5.77,-1.15,-1.15,-1.15
235.90,4.14,5.31,4.14,5.31,-5.31,-5.36,-5.81,-1.17,-1.17,-1.17
238.26,4.11,5.31,4.12,5.30,-5.30,-5.36,-5.84,-1.19,-1.19,-1.20
240.64,4.09,5.29,4.09,5.30,-5.30,-5.37,-5.87,-1.20,-1.20,-1.20
243.05,4.06,5.28,4.07,5.29,-5.29,-5.37,-5.89,-1.22,-1.22,-1.22
245.48,4.04,5.28,4.04,5.27,-5.27,-5.37,-5.91,-1.23,-1.23,-1.23
247.93,4.03,5.28,4.02,5.26,-5.26,-5.37,-5.92,-1.23,-1.24,-1.25
250.41,4.01,5.26,4.00,5.24,-5.24,-5.36,-5.92,-1.23,-1.25,-1.24
252.92,3.98,5.23,3.97,5.23,-5.23,-5.36,-5.91,-1.24,-1.25,-1.25
255.45,3.95,5.22,3.95,5.21,-5.21,-5.36,-5.90,-1.26,-1.26,-1.26
258.00,3.92,5.19,3.92,5.19,-5.19,-5.35,-5.88,-1.27,-1.27,-1.27
260.58,3.89,5.16,3.90,5.18,-5.18,-5.34,-5.85,-1.29,-1.28,-1.27
263.19,3.86,5.14,3.88,5.16,-5.16,-5.34,-5.82,-1.30,-1.28,-1.27
265.82,3.84,5.13,3.86,5.15,-5.15,-5.33,-5.78,-1.31,-1.29,-1.29
268.48,3.83,5.12,3.84,5.14,-5.14,-5.32,-5.73,-1.30,-1.29,-1.29
271.16,3.81,5.10,3.82,5.12,-5.12,-5.30,-5.68,-1.31,-1.30,-1.29
273.87,3.80,5.11,3.80,5.11,-5.11,-5.29,-5.62,-1.30,-1.30,-1.30
276.61,3.78,5.09,3.78,5.09,-5.09,-5.28,-5.56,-1.31,-1.31,-1.30
279.38,3.77,5.10,3.77,5.08,-5.08,-5.26,-5.50,-1.30,-1.31,-1.32
282.17,3.75,5.08,3.74,5.06,-5.06,-5.25,-5.43,-1.31,-1.31,-1.32
284.99,3.74,5.06,3.72,5.04,-5.04,-5.23,-5.36,-1.29,-1.31,-1.31
287.84,3.72,5.04,3.70,5.02,-5.02,-5.21,-5.29,-1.29,-1.32,-1.31
290.72,3.69,5.02,3.68,4.99,-4.99,-5.19,-5.22,-1.30,-1.31,-1.32
293.63,3.66,4.97,3.65,4.97,-4.97,-5.17,-5.14,-1.30,-1.31,-1.31
296.57,3.63,4.94,3.63,4.94,-4.94,-5.15,-5.07,-1.31,-1.31,-1.31
299.53,3.60,4.91,3.60,4.91,-4.91,-5.13,-4.99,-1.31,-1.31,-1.31
302.53,3.57,4.87,3.58,4.88,-4.88,-5.10,-4.92,-1.31,-1.30,-1.30
305.55,3.54,4.85,3.56,4.86,-4.86,-5.08,-4.85,-1.31,-1.30,-1.30
308.61,3.51,4.80,3.54,4.83,-4.83,-5.06,-4.77,-1.32,-1.29,-1.29
311.69,3.49,4.78,3.52,4.81,-4.81,-5.03,-4.70,-1.31,-1.29,-1.29
314.81,3.48,4.77,3.50,4.78,-4.78,-5.00,-4.63,-1.30,-1.28,-1.28
317.96,3.47,4.75,3.48,4.76,-4.76,-4.98,-4.56,-1.29,-1.28,-1.28
321.14,3.46,4.73,3.47,4.74,-4.74,-4.95,-4.50,-1.28,-1.27,-1.27
324.35,3.45,4.73,3.45,4.72,-4.72,-4.92,-4.44,-1.27,-1.27,-1.27
327.59,3.45,4.70,3.44,4.70,-4.70,-4.89,-4.38,-1.25,-1.26,-1.25
330.87,3.44,4.70,3.42,4.68,-4.68,-4.86,-4.32,-1.23,-1.25,-1.25
334.18,3.43,4.68,3.41,4.66,-4.66,-4.83,-4.26,-1.22,-1.25,-1.25
337.52,3.41,4.66,3.39,4.63,-4.63,-4.79,-4.21,-1.22,-1.24,-1.25
340.90,3.38,4.61,3.37,4.61,-4.61,-4.76,-4.16,-1.22,-1.23,-1.23
344.30,3.36,4.59,3.35,4.58,-4.58,-4.73,-4.11,-1.22,-1.23,-1.23
347.75,3.33,4.55,3.33,4.55,-4.55,-4.70,-4.07,-1.22,-1.22,-1.22
351.23,3.29,4.52,3.31,4.52,-4.52,-4.66,-4.03,-1.23,-1.21,-1.22
354.74,3.26,4.46,3.28,4.49,-4.49,-4.63,-3.99,-1.23,-1.21,-1.20
358.28,3.24,4.45,3.26,4.46,-4.46,-4.59,-3.96,-1.22,-1.20,-1.20
361.87,3.22,4.42,3.23,4.43,-4.43,-4.56,-3.93,-1.20,-1.19,-1.20
365.49,3.20,4.39,3.21,4.39,-4.39,-4.52,-3.90,-1.19,-1.19,-1.19
369.14,3.18,4.36,3.18,4.36,-4.36,-4.49,-3.88,-1.18,-1.18,-1.17
372.83,3.16,4.33,3.16,4.33,-4.33,-4.45,-3.85,-1.17,-1.17,-1.17
376.56,3.13,4.30,3.13,4.30,-4.30,-4.41,-3.84,-1.17,-1.16,-1.17
380.33,3.11,4.28,3.11,4.27,-4.27,-4.38,-3.82,-1.15,-1.16,-1.16
384.13,3.08,4.23,3.09,4.23,-4.23,-4.34,-3.81,-1.15,-1.15,-1.15
387.97,3.06,4.20,3.06,4.20,-4.20,-4.30,-3.79,-1.14,-1.14,-1.14
391.85,3.04,4.18,3.04,4.17,-4.17,-4.26,-3.79,-1.12,-1.13,-1.13
395.77,3.02,4.15,3.01,4.13,-4.13,-4.23,-3.78,-1.11,-1.12,-1.13
399.73,2.99,4.11,2.98,4.09,-4.09,-4.19,-3.78,-1.10,-1.11,-1.12
403.72,2.96,4.05,2.95,4.06,-4.06,-4.15,-3.77,-1.09,-1.10,-1.09
407.76,2.93,4.03,2.93,4.02,-4.02,-4.11,-3.77,-1.09,-1.09,-1.09
411.84,2.90,3.99,2.91,3.99,-3.99,-4.08,-3.77,-1.09,-1.09,-1.09
415.96,2.87,3.94,2.89,3.96,-3.96,-4.04,-3.78,-1.09,-1.08,-1.07
420.12,2.85,3.92,2.87,3.94,-3.94,-4.00,-3.78,-1.08,-1.07,-1.07
424.32,2.83,3.90,2.85,3.91,-3.91,-3.97,-3.78,-1.08,-1.06,-1.06
428.56,2.81,3.86,2.84,3.89,-3.89,-3.93,-3.79,-1.08,-1.05,-1.04
432.85,2.80,3.84,2.83,3.87,-3.87,-3.89,-3.79,-1.07,-1.04,-1.04
437.18,2.80,3.84,2.82,3.85,-3.85,-3.85,-3.80,-1.05,-1.03,-1.04
441.55,2.80,3.83,2.81,3.84,-3.84,-3.82,-3.80,-1.03,-1.03,-1.03
445.96,2.81,3.84,2.80,3.82,-3.82,-3.78,-3.81,-1.01,-1.02,-1.02
450.42,2.81,3.83,2.79,3.80,-3.80,-3.74,-3.81,-0.99,-1.01,-1.01
454.93,2.81,3.82,2.78,3.78,-3.78,-3.71,-3.81,-0.97,-1.00,-1.01
459.48,2.79,3.79,2.77,3.76,-3.76,-3.67,-3.81,-0.97,-0.99,-1.00
464.07,2.77,3.75,2.76,3.74,-3.74,-3.63,-3.81,-0.97,-0.98,-0.98
468.71,2.75,3.72,2.74,3.72,-3.72,-3.60,-3.80,-0.96,-0.97,-0.97
473.40,2.72,3.68,2.72,3.69,-3.69,-3.56,-3.79,-0.96,-0.96,-0.96
478.13,2.69,3.65,2.70,3.66,-3.66,-3.52,-3.78,-0.96,-0.96,-0.95
482.91,2.66,3.61,2.68,3.62,-3.62,-3.48,-3.77,-0.96,-0.94,-0.94
487.74,2.64,3.58,2.65,3.58,-3.58,-3.45,-3.75,-0.94,-0.93,-0.93
492.62,2.61,3.54,2.62,3.54,-3.54,-3.41,-3.73,-0.93,-0.92,-0.93
497.55,2.59,3.51,2.59,3.51,-3.51,-3.37,-3.71,-0.91,-0.91,-0.92
502.52,2.56,3.47,2.57,3.47,-3.47,-3.33,-3.68,-0.90,-0.90,-0.91
507.55,2.54,3.43,2.54,3.43,-3.43,-3.29,-3.65,-0.89,-0.89,-0.89
512.62,2.51,3.39,2.51,3.39,-3.39,-3.25,-3.62,-0.88,-0.88,-0.88
517.75,2.47,3.33,2.49,3.36,-3.36,-3.21,-3.58,-0.88,-0.87,-0.86
522.93,2.44,3.30,2.46,3.32,-3.32,-3.16,-3.54,-0.87,-0.85,-0.85
