frequency,raw,error,smoothed,error_smoothed,equalization,parametric_eq,fixed_band_eq,equalized_raw,equalized_smoothed,target
20.00,-21.08,-17.18,-21.09,-17.21,17.21,17.45,8.14,-3.88,-3.88,-3.91
20.20,-21.00,-17.19,-21.00,-17.20,17.20,17.39,8.31,-3.80,-3.80,-3.82
20.40,-20.92,-17.19,-20.92,-17.19,17.19,17.34,8.49,-3.73,-3.73,-3.74
20.61,-20.85,-17.18,-20.84,-17.18,17.18,17.28,8.67,-3.66,-3.66,-3.67
20.81,-20.75,-17.18,-20.76,-17.17,17.17,17.23,8.86,-3.59,-3.59,-3.58
21.02,-20.67,-17.18,-20.68,-17.15,17.15,17.17,9.05,-3.52,-3.53,-3.50
21.23,-20.59,-17.16,-20.60,-17.13,17.13,17.12,9.25,-3.46,-3.46,-3.44
21.44,-20.51,-17.14,-20.51,-17.11,17.11,17.07,9.46,-3.40,-3.40,-3.38
21.66,-20.44,-17.11,-20.43,-17.09,17.09,17.02,9.66,-3.35,-3.34,-3.33
21.87,-20.35,-17.07,-20.35,-17.06,17.06,16.96,9.88,-3.29,-3.29,-3.28
22.09,-20.27,-17.04,-20.27,-17.03,17.03,16.91,10.10,-3.24,-3.24,-3.23
22.31,-20.18,-17.00,-20.19,-17.00,17.00,16.86,10.32,-3.18,-3.18,-3.18
22.54,-20.11,-16.96,-20.10,-16.96,16.96,16.81,10.55,-3.14,-3.14,-3.14
22.76,-20.02,-16.92,-20.02,-16.92,16.92,16.76,10.79,-3.10,-3.10,-3.10
22.99,-19.93,-16.86,-19.94,-16.88,16.88,16.72,11.04,-3.06,-3.06,-3.07
23.22,-19.85,-16.82,-19.86,-16.84,16.84,16.67,11.29,-3.02,-3.02,-3.03
23.45,-19.77,-16.78,-19.78,-16.79,16.79,16.62,11.55,-2.98,-2.99,-2.99
23.69,-19.70,-16.74,-19.69,-16.74,16.74,16.57,11.82,-2.95,-2.95,-2.96
23.92,-19.61,-16.70,-19.61,-16.70,16.70,16.53,12.09,-2.92,-2.91,-2.92
24.16,-19.53,-16.67,-19.53,-16.65,16.65,16.48,12.37,-2.88,-2.88,-2.87
24.40,-19.45,-16.62,-19.45,-16.60,16.60,16.43,12.66,-2.85,-2.84,-2.84
24.65,-19.37,-16.56,-19.37,-16.56,16.56,16.39,12.96,-2.81,-2.81,-2.81
24.89,-19.28,-16.50,-19.29,-16.51,16.51,16.34,13.27,-2.77,-2.78,-2.78
25.14,-19.20,-16.46,-19.21,-16.46,16.46,16.30,13.58,-2.74,-2.74,-2.74
25.39,-19.12,-16.41,-19.12,-16.41,16.41,16.25,13.91,-2.71,-2.71,-2.71
25.65,-19.05,-16.37,-19.04,-16.37,16.37,16.21,14.24,-2.68,-2.68,-2.67
25.91,-18.97,-16.31,-18.96,-16.32,16.32,16.17,14.59,-2.65,-2.65,-2.65
26.16,-18.88,-16.26,-18.88,-16.27,16.27,16.12,14.94,-2.62,-2.62,-2.63
26.43,-18.81,-16.22,-18.80,-16.22,16.22,16.08,15.30,-2.59,-2.59,-2.59
26.69,-18.72,-16.17,-18.72,-16.17,16.17,16.03,15.67,-2.56,-2.56,-2.56
26.96,-18.65,-16.12,-18.64,-16.12,16.12,15.99,16.05,-2.53,-2.53,-2.53
27.23,-18.57,-16.07,-18.56,-16.07,16.07,15.95,16.43,-2.50,-2.50,-2.49
27.50,-18.48,-16.02,-18.49,-16.02,16.02,15.90,16.82,-2.47,-2.47,-2.46
27.77,-18.40,-15.96,-18.41,-15.97,15.97,15.86,17.21,-2.44,-2.44,-2.44
28.05,-18.33,-15.93,-18.33,-15.92,15.92,15.82,17.60,-2.41,-2.41,-2.41
28.33,-18.25,-15.87,-18.25,-15.87,15.87,15.77,18.00,-2.38,-2.38,-2.39
28.62,-18.18,-15.82,-18.18,-15.83,15.83,15.73,18.38,-2.35,-2.35,-2.36
28.90,-18.10,-15.78,-18.10,-15.78,15.78,15.69,18.76,-2.32,-2.32,-2.32
29.19,-18.02,-15.72,-18.03,-15.74,15.74,15.64,19.12,-2.29,-2.29,-2.30
29.48,-17.95,-15.70,-17.96,-15.69,15.69,15.60,19.45,-2.26,-2.26,-2.25
29.78,-17.88,-15.64,-17.89,-15.65,15.65,15.56,19.76,-2.23,-2.24,-2.24
30.08,-17.81,-15.60,-17.82,-15.61,15.61,15.51,20.02,-2.20,-2.21,-2.21
30.38,-17.75,-15.56,-17.75,-15.57,15.57,15.47,20.24,-2.18,-2.18,-2.18
30.68,-17.68,-15.53,-17.68,-15.53,15.53,15.43,20.41,-2.16,-2.16,-2.15
30.99,-17.62,-15.48,-17.62,-15.49,15.49,15.38,20.52,-2.13,-2.13,-2.13
31.30,-17.56,-15.45,-17.55,-15.45,15.45,15.34,20.56,-2.11,-2.11,-2.11
31.61,-17.49,-15.42,-17.49,-15.41,15.41,15.29,20.55,-2.09,-2.08,-2.08
31.93,-17.43,-15.36,-17.43,-15.37,15.37,15.25,20.47,-2.06,-2.06,-2.06
32.24,-17.36,-15.32,-17.36,-15.33,15.33,15.20,20.34,-2.04,-2.04,-2.04
32.57,-17.31,-15.29,-17.30,-15.29,15.29,15.16,20.16,-2.02,-2.02,-2.02
32.89,-17.24,-15.25,-17.24,-15.24,15.24,15.11,19.94,-2.00,-2.00,-1.99
33.22,-17.18,-15.21,-17.18,-15.20,15.20,15.07,19.68,-1.99,-1.98,-1.97
33.55,-17.11,-15.16,-17.11,-15.15,15.15,15.02,19.41,-1.96,-1.96,-1.96
33.89,-17.04,-15.09,-17.05,-15.11,15.11,14.97,19.11,-1.94,-1.95,-1.95
34.23,-16.98,-15.06,-16.99,-15.06,15.06,14.93,18.80,-1.93,-1.93,-1.92
34.57,-16.92,-15.01,-16.93,-15.01,15.01,14.88,18.49,-1.92,-1.92,-1.92
34.92,-16.87,-14.95,-16.87,-14.96,14.96,14.83,18.17,-1.91,-1.91,-1.91
35.27,-16.81,-14.91,-16.80,-14.90,14.90,14.78,17.86,-1.90,-1.90,-1.89
35.62,-16.74,-14.85,-16.74,-14.85,14.85,14.74,17.55,-1.89,-1.89,-1.90
35.97,-16.67,-14.78,-16.68,-14.80,14.80,14.69,17.24,-1.88,-1.89,-1.89
36.33,-16.62,-14.75,-16.62,-14.74,14.74,14.64,16.95,-1.89,-1.88,-1.88
36.70,-16.57,-14.68,-16.56,-14.68,14.68,14.59,16.66,-1.89,-1.88,-1.88
37.06,-16.50,-14.62,-16.50,-14.62,14.62,14.54,16.38,-1.88,-1.88,-1.89
37.43,-16.44,-14.56,-16.44,-14.56,14.56,14.49,16.11,-1.88,-1.88,-1.88
37.81,-16.38,-14.50,-16.38,-14.50,14.50,14.44,15.85,-1.88,-1.88,-1.89
38.19,-16.33,-14.43,-16.32,-14.44,14.44,14.38,15.60,-1.89,-1.89,-1.89
38.57,-16.26,-14.38,-16.26,-14.37,14.37,14.33,15.36,-1.89,-1.89,-1.89
38.95,-16.20,-14.31,-16.20,-14.31,14.31,14.28,15.13,-1.90,-1.90,-1.89
39.34,-16.14,-14.24,-16.14,-14.24,14.24,14.23,14.92,-1.90,-1.90,-1.91
39.74,-16.08,-14.17,-16.08,-14.18,14.18,14.17,14.71,-1.91,-1.91,-1.91
40.14,-16.03,-14.11,-16.02,-14.11,14.11,14.12,14.51,-1.92,-1.91,-1.92
40.54,-15.97,-14.04,-15.96,-14.04,14.04,14.07,14.33,-1.93,-1.92,-1.93
40.94,-15.90,-13.97,-15.90,-13.97,13.97,14.01,14.15,-1.93,-1.93,-1.93
41.35,-15.84,-13.90,-15.84,-13.90,13.90,13.96,13.98,-1.94,-1.94,-1.94
41.76,-15.77,-13.83,-15.78,-13.83,13.83,13.90,13.83,-1.94,-1.95,-1.95
42.18,-15.71,-13.76,-15.72,-13.76,13.76,13.84,13.68,-1.95,-1.96,-1.95
42.60,-15.65,-13.68,-15.66,-13.69,13.69,13.79,13.54,-1.96,-1.97,-1.97
43.03,-15.60,-13.63,-15.60,-13.62,13.62,13.73,13.41,-1.99,-1.98,-1.97
43.46,-15.54,-13.56,-15.54,-13.55,13.55,13.67,13.29,-2.00,-2.00,-1.99
43.90,-15.48,-13.47,-15.48,-13.47,13.47,13.61,13.18,-2.00,-2.01,-2.01
44.33,-15.42,-13.40,-15.42,-13.40,13.40,13.55,13.08,-2.02,-2.02,-2.03
44.78,-15.37,-13.34,-15.36,-13.33,13.33,13.49,12.98,-2.04,-2.03,-2.04
45.23,-15.32,-13.26,-15.30,-13.26,13.26,13.43,12.89,-2.05,-2.04,-2.06
45.68,-15.25,-13.18,-15.25,-13.19,13.19,13.37,12.82,-2.06,-2.06,-2.07
46.13,-15.18,-13.11,-15.19,-13.12,13.12,13.31,12.74,-2.07,-2.07,-2.08
46.60,-15.13,-13.05,-15.13,-13.05,13.05,13.25,12.68,-2.08,-2.08,-2.08
47.06,-15.06,-12.98,-15.07,-12.98,12.98,13.19,12.62,-2.09,-2.09,-2.09
47.53,-15.01,-12.91,-15.01,-12.91,12.91,13.13,12.57,-2.11,-2.10,-2.10
48.01,-14.95,-12.85,-14.95,-12.84,12.84,13.06,12.53,-2.12,-2.11,-2.10
48.49,-14.89,-12.78,-14.89,-12.77,12.77,13.00,12.49,-2.12,-2.12,-2.11
48.97,-14.83,-12.71,-14.84,-12.71,12.71,12.94,12.46,-2.13,-2.13,-2.13
49.46,-14.78,-12.63,-14.78,-12.64,12.64,12.87,12.44,-2.14,-2.14,-2.15
49.96,-14.73,-12.56,-14.72,-12.58,12.58,12.81,12.42,-2.15,-2.14,-2.16
50.46,-14.67,-12.52,-14.67,-12.52,12.52,12.74,12.40,-2.16,-2.15,-2.16
50.96,-14.61,-12.46,-14.62,-12.46,12.46,12.68,12.40,-2.16,-2.16,-2.15
51.47,-14.56,-12.40,-14.56,-12.40,12.40,12.61,12.39,-2.16,-2.16,-2.17
51.99,-14.51,-12.33,-14.51,-12.34,12.34,12.54,12.39,-2.16,-2.17,-2.18
52.51,-14.46,-12.28,-14.47,-12.29,12.29,12.48,12.39,-2.17,-2.18,-2.17
53.03,-14.41,-12.24,-14.42,-12.23,12.23,12.41,12.39,-2.18,-2.19,-2.18
53.56,-14.36,-12.18,-14.38,-12.18,12.18,12.34,12.40,-2.18,-2.20,-2.19
54.10,-14.32,-12.13,-14.33,-12.13,12.13,12.27,12.41,-2.20,-2.20,-2.19
54.64,-14.29,-12.08,-14.29,-12.08,12.08,12.21,12.41,-2.22,-2.21,-2.21
55.18,-14.25,-12.03,-14.25,-12.02,12.02,12.14,12.42,-2.23,-2.22,-2.22
55.74,-14.21,-11.97,-14.21,-11.97,11.97,12.07,12.43,-2.24,-2.24,-2.24
56.29,-14.17,-11.92,-14.17,-11.92,11.92,12.00,12.43,-2.26,-2.25,-2.25
56.86,-14.14,-11.87,-14.13,-11.86,11.86,11.93,12.43,-2.28,-2.27,-2.28
57.42,-14.10,-11.81,-14.10,-11.81,11.81,11.86,12.43,-2.30,-2.29,-2.30
58.00,-14.06,-11.75,-14.06,-11.75,11.75,11.79,12.42,-2.31,-2.31,-2.31
58.58,-14.02,-11.69,-14.03,-11.69,11.69,11.72,12.41,-2.33,-2.34,-2.33
59.16,-13.98,-11.64,-14.00,-11.63,11.63,11.65,12.39,-2.35,-2.36,-2.35
59.76,-13.94,-11.57,-13.96,-11.57,11.57,11.57,12.36,-2.37,-2.39,-2.37
60.35,-13.92,-11.51,-13.93,-11.51,11.51,11.50,12.33,-2.41,-2.42,-2.41
60.96,-13.89,-11.47,-13.90,-11.45,11.45,11.43,12.28,-2.44,-2.44,-2.43
61.57,-13.86,-11.39,-13.86,-11.39,11.39,11.36,12.23,-2.47,-2.47,-2.47
62.18,-13.83,-11.32,-13.83,-11.33,11.33,11.29,12.17,-2.50,-2.50,-2.51
62.80,-13.81,-11.28,-13.80,-11.27,11.27,11.21,12.10,-2.54,-2.53,-2.53
63.43,-13.78,-11.21,-13.77,-11.22,11.22,11.14,12.02,-2.57,-2.56,-2.57
64.07,-13.75,-11.16,-13.74,-11.16,11.16,11.07,11.93,-2.59,-2.58,-2.59
64.71,-13.71,-11.10,-13.71,-11.11,11.11,10.99,11.83,-2.61,-2.60,-2.61
65.35,-13.67,-11.04,-13.68,-11.06,11.06,10.92,11.72,-2.62,-2.63,-2.64
66.01,-13.63,-10.98,-13.65,-11.00,11.00,10.85,11.61,-2.63,-2.65,-2.65
66.67,-13.60,-10.94,-13.62,-10.95,10.95,10.77,11.49,-2.65,-2.67,-2.67
67.33,-13.58,-10.90,-13.59,-10.90,10.90,10.70,11.36,-2.68,-2.68,-2.68
68.01,-13.56,-10.87,-13.55,-10.86,10.86,10.63,11.22,-2.71,-2.70,-2.70
68.69,-13.53,-10.82,-13.52,-10.81,10.81,10.55,11.08,-2.72,-2.71,-2.71
69.37,-13.49,-10.77,-13.49,-10.76,10.76,10.48,10.93,-2.73,-2.73,-2.72
70.07,-13.46,-10.72,-13.46,-10.72,10.72,10.40,10.79,-2.75,-2.74,-2.74
70.77,-13.41,-10.67,-13.42,-10.67,10.67,10.33,10.63,-2.75,-2.76,-2.74
71.48,-13.38,-10.62,-13.39,-10.62,10.62,10.25,10.48,-2.77,-2.77,-2.76
72.19,-13.34,-10.56,-13.35,-10.57,10.57,10.18,10.32,-2.78,-2.79,-2.79
72.91,-13.30,-10.51,-13.32,-10.51,10.51,10.10,10.17,-2.79,-2.81,-2.80
73.64,-13.28,-10.46,-13.28,-10.46,10.46,10.03,10.01,-2.83,-2.82,-2.82
74.38,-13.25,-10.42,-13.25,-10.40,10.40,9.95,9.86,-2.85,-2.84,-2.84
75.12,-13.21,-10.35,-13.21,-10.34,10.34,9.88,9.71,-2.87,-2.86,-2.86
75.87,-13.17,-10.29,-13.17,-10.28,10.28,9.80,9.56,-2.89,-2.88,-2.88
76.63,-13.12,-10.22,-13.13,-10.22,10.22,9.73,9.41,-2.90,-2.90,-2.90
77.40,-13.08,-10.16,-13.09,-10.16,10.16,9.65,9.26,-2.92,-2.92,-2.93
78.17,-13.03,-10.08,-13.04,-10.10,10.10,9.58,9.12,-2.94,-2.94,-2.96
78.95,-12.99,-10.03,-13.00,-10.04,10.04,9.50,8.98,-2.96,-2.96,-2.96
79.74,-12.95,-9.97,-12.96,-9.97,9.97,9.43,8.85,-2.98,-2.98,-2.98
80.54,-12.91,-9.91,-12.91,-9.91,9.91,9.35,8.72,-3.00,-3.00,-3.00
81.35,-12.86,-9.85,-12.86,-9.85,9.85,9.28,8.59,-3.02,-3.01,-3.02
82.16,-12.81,-9.78,-12.81,-9.78,9.78,9.21,8.47,-3.03,-3.02,-3.03
82.98,-12.75,-9.72,-12.76,-9.72,9.72,9.13,8.35,-3.04,-3.04,-3.04
83.81,-12.70,-9.65,-12.70,-9.66,9.66,9.06,8.24,-3.05,-3.05,-3.05
84.65,-12.65,-9.58,-12.65,-9.59,9.59,8.98,8.13,-3.06,-3.06,-3.07
85.50,-12.60,-9.53,-12.60,-9.53,9.53,8.91,8.03,-3.08,-3.07,-3.07
86.35,-12.54,-9.47,-12.54,-9.46,9.46,8.83,7.93,-3.08,-3.08,-3.08
87.22,-12.48,-9.39,-12.49,-9.39,9.39,8.76,7.84,-3.09,-3.10,-3.10
88.09,-12.42,-9.32,-12.43,-9.32,9.32,8.68,7.75,-3.11,-3.11,-3.11
88.97,-12.36,-9.24,-12.38,-9.25,9.25,8.61,7.67,-3.12,-3.13,-3.12
89.86,-12.32,-9.18,-12.32,-9.17,9.17,8.54,7.59,-3.16,-3.15,-3.14
90.76,-12.26,-9.09,-12.27,-9.09,9.09,8.46,7.52,-3.18,-3.18,-3.18
91.66,-12.21,-9.02,-12.21,-9.01,9.01,8.39,7.45,-3.21,-3.21,-3.20
92.58,-12.16,-8.92,-12.16,-8.92,8.92,8.31,7.39,-3.25,-3.24,-3.24
93.51,-12.10,-8.84,-12.10,-8.82,8.82,8.24,7.33,-3.28,-3.28,-3.27
94.44,-12.04,-8.73,-12.05,-8.73,8.73,8.17,7.28,-3.32,-3.32,-3.31
95.39,-11.98,-8.63,-12.00,-8.63,8.63,8.09,7.23,-3.36,-3.37,-3.36
96.34,-11.94,-8.53,-11.95,-8.53,8.53,8.02,7.18,-3.42,-3.42,-3.41
97.30,-11.89,-8.42,-11.90,-8.42,8.42,7.95,7.14,-3.47,-3.48,-3.48
98.28,-11.85,-8.32,-11.85,-8.31,8.31,7.88,7.10,-3.54,-3.54,-3.53
99.26,-11.79,-8.19,-11.80,-8.20,8.20,7.80,7.07,-3.59,-3.60,-3.60
100.25,-11.74,-8.08,-11.75,-8.09,8.09,7.73,7.04,-3.66,-3.67,-3.67
101.25,-11.69,-7.96,-11.71,-7.97,7.97,7.66,7.01,-3.72,-3.73,-3.74
102.27,-11.64,-7.84,-11.66,-7.86,7.86,7.59,6.99,-3.79,-3.80,-3.80
103.29,-11.62,-7.74,-11.61,-7.74,7.74,7.51,6.97,-3.89,-3.87,-3.88
104.32,-11.59,-7.66,-11.56,-7.62,7.62,7.44,6.95,-3.98,-3.94,-3.94
105.37,-11.53,-7.52,-11.51,-7.50,7.50,7.37,6.93,-4.04,-4.01,-4.02
106.42,-11.46,-7.38,-11.45,-7.37,7.37,7.30,6.92,-4.09,-4.08,-4.08
107.48,-11.40,-7.25,-11.40,-7.25,7.25,7.23,6.91,-4.15,-4.15,-4.15
108.56,-11.34,-7.12,-11.35,-7.13,7.13,7.16,6.89,-4.22,-4.22,-4.22
109.64,-11.28,-7.00,-11.29,-7.01,7.01,7.09,6.88,-4.28,-4.28,-4.29
110.74,-11.24,-6.90,-11.24,-6.89,6.89,7.02,6.86,-4.36,-4.35,-4.34
111.85,-11.18,-6.78,-11.18,-6.77,6.77,6.95,6.85,-4.41,-4.41,-4.40
112.97,-11.11,-6.64,-11.13,-6.66,6.66,6.88,6.83,-4.46,-4.47,-4.48
114.10,-11.05,-6.53,-11.08,-6.55,6.55,6.81,6.82,-4.51,-4.53,-4.53
115.24,-10.99,-6.40,-11.03,-6.44,6.44,6.74,6.80,-4.55,-4.58,-4.59
116.39,-10.97,-6.33,-10.98,-6.34,6.34,6.67,6.78,-4.63,-4.64,-4.65
117.55,-10.93,-6.24,-10.93,-6.25,6.25,6.60,6.75,-4.69,-4.69,-4.69
118.73,-10.88,-6.14,-10.89,-6.16,6.16,6.54,6.72,-4.73,-4.73,-4.75
119.92,-10.84,-6.06,-10.85,-6.07,6.07,6.47,6.69,-4.78,-4.78,-4.78
121.12,-10.80,-5.98,-10.80,-5.98,5.98,6.40,6.65,-4.83,-4.82,-4.83
122.33,-10.78,-5.92,-10.76,-5.90,5.90,6.33,6.61,-4.89,-4.87,-4.87
123.55,-10.75,-5.85,-10.72,-5.82,5.82,6.27,6.56,-4.94,-4.91,-4.90
124.79,-10.70,-5.76,-10.69,-5.74,5.74,6.20,6.51,-4.96,-4.95,-4.94
126.03,-10.64,-5.67,-10.65,-5.67,5.67,6.13,6.46,-4.98,-4.98,-4.98
127.29,-10.61,-5.60,-10.62,-5.60,5.60,6.07,6.40,-5.02,-5.02,-5.02
128.57,-10.57,-5.51,-10.58,-5.52,5.52,6.00,6.33,-5.05,-5.06,-5.07
129.85,-10.52,-5.43,-10.55,-5.45,5.45,5.94,6.26,-5.08,-5.10,-5.10
131.15,-10.48,-5.35,-10.51,-5.37,5.37,5.87,6.19,-5.11,-5.14,-5.13
132.46,-10.47,-5.29,-10.48,-5.30,5.30,5.81,6.11,-5.17,-5.18,-5.18
133.79,-10.44,-5.24,-10.44,-5.23,5.23,5.74,6.02,-5.22,-5.21,-5.21
135.12,-10.42,-5.17,-10.41,-5.15,5.15,5.68,5.94,-5.27,-5.25,-5.25
136.48,-10.39,-5.11,-10.38,-5.08,5.08,5.62,5.85,-5.31,-5.29,-5.29
137.84,-10.35,-5.02,-10.35,-5.01,5.01,5.55,5.75,-5.34,-5.34,-5.33
139.22,-10.32,-4.94,-10.32,-4.94,4.94,5.49,5.66,-5.38,-5.38,-5.39
140.61,-10.29,-4.87,-10.29,-4.87,4.87,5.43,5.56,-5.42,-5.42,-5.43
142.02,-10.24,-4.79,-10.27,-4.80,4.80,5.36,5.46,-5.44,-5.46,-5.46
143.44,-10.22,-4.73,-10.24,-4.73,4.73,5.30,5.36,-5.49,-5.50,-5.50
144.87,-10.19,-4.65,-10.21,-4.66,4.66,5.24,5.25,-5.53,-5.55,-5.55
146.32,-10.18,-4.59,-10.18,-4.59,4.59,5.18,5.15,-5.60,-5.59,-5.60
147.78,-10.15,-4.52,-10.15,-4.51,4.51,5.12,5.05,-5.65,-5.64,-5.63
149.26,-10.13,-4.45,-10.12,-4.43,4.43,5.06,4.94,-5.70,-5.69,-5.68
150.75,-10.10,-4.37,-10.09,-4.35,4.35,5.00,4.84,-5.75,-5.73,-5.74
152.26,-10.06,-4.28,-10.06,-4.27,4.27,4.94,4.73,-5.79,-5.78,-5.78
153.78,-10.03,-4.21,-10.03,-4.20,4.20,4.88,4.63,-5.84,-5.83,-5.82
155.32,-9.99,-4.12,-9.99,-4.11,4.11,4.82,4.53,-5.88,-5.88,-5.88
156.88,-9.94,-4.03,-9.96,-4.03,4.03,4.76,4.43,-5.91,-5.93,-5.92
158.44,-9.92,-3.95,-9.93,-3.95,3.95,4.71,4.33,-5.98,-5.98,-5.98
160.03,-9.88,-3.86,-9.89,-3.86,3.86,4.65,4.23,-6.02,-6.03,-6.03
161.63,-9.86,-3.78,-9.86,-3.78,3.78,4.59,4.14,-6.08,-6.08,-6.09
163.24,-9.84,-3.71,-9.83,-3.70,3.70,4.53,4.04,-6.15,-6.13,-6.13
164.88,-9.80,-3.62,-9.80,-3.62,3.62,4.48,3.95,-6.18,-6.18,-6.18
166.53,-9.77,-3.55,-9.77,-3.55,3.55,4.42,3.86,-6.23,-6.23,-6.23
168.19,-9.75,-3.48,-9.75,-3.48,3.48,4.37,3.78,-6.27,-6.27,-6.27
169.87,-9.71,-3.40,-9.74,-3.42,3.42,4.31,3.69,-6.29,-6.32,-6.32
171.57,-9.69,-3.34,-9.72,-3.36,3.36,4.26,3.61,-6.33,-6.36,-6.36
173.29,-9.68,-3.28,-9.72,-3.31,3.31,4.20,3.53,-6.37,-6.40,-6.40
175.02,-9.67,-3.23,-9.71,-3.27,3.27,4.15,3.45,-6.41,-6.44,-6.44
176.77,-9.67,-3.19,-9.70,-3.22,3.22,4.10,3.37,-6.45,-6.48,-6.48
178.54,-9.69,-3.17,-9.69,-3.18,3.18,4.04,3.30,-6.51,-6.51,-6.52
180.32,-9.70,-3.16,-9.69,-3.14,3.14,3.99,3.23,-6.56,-6.54,-6.55
182.13,-9.71,-3.14,-9.68,-3.11,3.11,3.94,3.16,-6.61,-6.57,-6.58
183.95,-9.70,-3.10,-9.67,-3.07,3.07,3.89,3.09,-6.64,-6.60,-6.60
185.79,-9.68,-3.05,-9.66,-3.03,3.03,3.84,3.03,-6.66,-6.63,-6.63
187.65,-9.66,-3.01,-9.64,-2.99,2.99,3.79,2.97,-6.67,-6.65,-6.66
189.52,-9.64,-2.97,-9.62,-2.95,2.95,3.73,2.91,-6.69,-6.67,-6.67
191.42,-9.61,-2.92,-9.60,-2.91,2.91,3.69,2.85,-6.71,-6.69,-6.69
193.33,-9.57,-2.87,-9.58,-2.87,2.87,3.64,2.79,-6.71,-6.71,-6.71
195.27,-9.54,-2.83,-9.55,-2.82,2.82,3.59,2.74,-6.72,-6.73,-6.72
197.22,-9.51,-2.77,-9.52,-2.78,2.78,3.54,2.69,-6.74,-6.75,-6.74
199.19,-9.48,-2.71,-9.50,-2.73,2.73,3.49,2.64,-6.75,-6.76,-6.77
201.18,-9.44,-2.66,-9.47,-2.69,2.69,3.44,2.59,-6.75,-6.78,-6.78
203.19,-9.42,-2.63,-9.45,-2.65,2.65,3.40,2.54,-6.77,-6.80,-6.79
205.23,-9.40,-2.59,-9.42,-2.61,2.61,3.35,2.50,-6.79,-6.81,-6.81
207.28,-9.38,-2.56,-9.40,-2.58,2.58,3.30,2.46,-6.81,-6.83,-6.82
209.35,-9.37,-2.54,-9.38,-2.54,2.54,3.26,2.42,-6.83,-6.84,-6.84
211.44,-9.36,-2.50,-9.36,-2.51,2.51,3.21,2.38,-6.86,-6.86,-6.86
213.56,-9.35,-2.48,-9.34,-2.47,2.47,3.17,2.34,-6.88,-6.87,-6.87
215.69,-9.34,-2.47,-9.32,-2.44,2.44,3.13,2.30,-6.91,-6.89,-6.88
217.85,-9.32,-2.42,-9.30,-2.40,2.40,3.08,2.27,-6.92,-6.90,-6.90
220.03,-9.30,-2.39,-9.28,-2.36,2.36,3.04,2.24,-6.94,-6.92,-6.92
222.23,-9.27,-2.33,-9.25,-2.32,2.32,3.00,2.20,-6.95,-6.93,-6.94
224.45,-9.24,-2.30,-9.23,-2.28,2.28,2.95,2.17,-6.97,-6.95,-6.95
226.70,-9.20,-2.24,-9.20,-2.23,2.23,2.91,2.15,-6.97,-6.97,-6.96
228.96,-9.16,-2.19,-9.17,-2.19,2.19,2.87,2.12,-6.98,-6.98,-6.97
231.25,-9.14,-2.16,-9.14,-2.14,2.14,2.83,2.09,-7.00,-7.00,-6.99
233.57,-9.11,-2.11,-9.12,-2.10,2.10,2.79,2.07,-7.01,-7.02,-7.01
235.90,-9.07,-2.04,-9.10,-2.06,2.06,2.75,2.04,-7.01,-7.03,-7.03
238.26,-9.05,-2.00,-9.07,-2.03,2.03,2.71,2.02,-7.03,-7.05,-7.05
240.64,-9.03,-1.96,-9.06,-1.99,1.99,2.68,2.00,-7.04,-7.06,-7.07
243.05,-9.02,-1.94,-9.05,-1.97,1.97,2.64,1.98,-7.06,-7.08,-7.08
245.48,-9.02,-1.93,-9.04,-1.95,1.95,2.60,1.96,-7.07,-7.09,-7.09
247.93,-9.02,-1.92,-9.04,-1.94,1.94,2.56,1.94,-7.09,-7.10,-7.10
250.41,-9.03,-1.91,-9.04,-1.93,1.93,2.53,1.92,-7.10,-7.10,-7.12
252.92,-9.04,-1.93,-9.04,-1.93,1.93,2.49,1.91,-7.11,-7.11,-7.11
255.45,-9.04,-1.93,-9.04,-1.93,1.93,2.46,1.89,-7.11,-7.11,-7.11
258.00,-9.04,-1.94,-9.05,-1.94,1.94,2.42,1.88,-7.10,-7.11,-7.11
260.58,-9.05,-1.95,-9.05,-1.95,1.95,2.39,1.86,-7.10,-7.10,-7.11
263.19,-9.06,-1.97,-9.05,-1.96,1.96,2.36,1.85,-7.10,-7.09,-7.09
265.82,-9.06,-1.97,-9.05,-1.97,1.97,2.32,1.84,-7.10,-7.08,-7.09
268.48,-9.06,-2.00,-9.05,-1.97,1.97,2.29,1.83,-7.09,-7.07,-7.07
271.16,-9.05,-2.00,-9.04,-1.98,1.98,2.26,1.82,-7.08,-7.06,-7.06
273.87,-9.03,-1.99,-9.02,-1.97,1.97,2.23,1.81,-7.06,-7.05,-7.04
276.61,-9.01,-1.99,-9.00,-1.97,1.97,2.20,1.81,-7.05,-7.03,-7.02
279.38,-8.99,-1.98,-8.98,-1.96,1.96,2.17,1.80,-7.03,-7.02,-7.02
282.17,-8.96,-1.96,-8.95,-1.95,1.95,2.14,1.80,-7.02,-7.00,-7.00
284.99,-8.93,-1.95,-8.92,-1.93,1.93,2.11,1.79,-7.00,-6.99,-6.99
287.84,-8.89,-1.92,-8.89,-1.92,1.92,2.09,1.79,-6.97,-6.97,-6.97
290.72,-8.85,-1.91,-8.86,-1.91,1.91,2.06,1.79,-6.95,-6.96,-6.95
293.63,-8.82,-1.88,-8.83,-1.89,1.89,2.04,1.79,-6.93,-6.94,-6.94
296.57,-8.79,-1.88,-8.80,-1.88,1.88,2.01,1.79,-6.91,-6.92,-6.92
299.53,-8.76,-1.86,-8.78,-1.88,1.88,1.99,1.80,-6.89,-6.90,-6.90
302.53,-8.73,-1.84,-8.76,-1.87,1.87,1.96,1.80,-6.86,-6.88,-6.90
305.55,-8.71,-1.85,-8.74,-1.88,1.88,1.94,1.81,-6.84,-6.86,-6.86
308.61,-8.70,-1.86,-8.72,-1.88,1.88,1.92,1.81,-6.82,-6.84,-6.85
311.69,-8.69,-1.87,-8.71,-1.89,1.89,1.90,1.82,-6.80,-6.82,-6.82
314.81,-8.69,-1.91,-8.71,-1.91,1.91,1.88,1.83,-6.79,-6.80,-6.79
317.96,-8.70,-1.94,-8.71,-1.93,1.93,1.86,1.84,-6.78,-6.78,-6.77
321.14,-8.71,-1.96,-8.70,-1.95,1.95,1.84,1.86,-6.77,-6.76,-6.75
324.35,-8.72,-1.99,-8.71,-1.97,1.97,1.83,1.87,-6.75,-6.73,-6.74
327.59,-8.72,-2.01,-8.71,-2.00,2.00,1.81,1.89,-6.73,-6.71,-6.71
330.87,-8.72,-2.03,-8.71,-2.02,2.02,1.80,1.91,-6.70,-6.69,-6.69
334.18,-8.72,-2.06,-8.72,-2.05,2.05,1.79,1.93,-6.67,-6.67,-6.67
337.52,-8.72,-2.08,-8.72,-2.08,2.08,1.78,1.95,-6.65,-6.64,-6.65
340.90,-8.72,-2.10,-8.72,-2.10,2.10,1.77,1.97,-6.62,-6.62,-6.62
344.30,-8.72,-2.13,-8.73,-2.13,2.13,1.76,1.99,-6.60,-6.60,-6.60
347.75,-8.72,-2.15,-8.73,-2.15,2.15,1.75,2.02,-6.57,-6.57,-6.58
351.23,-8.72,-2.17,-8.73,-2.18,2.18,1.75,2.05,-6.55,-6.55,-6.55
354.74,-8.72,-2.20,-8.73,-2.20,2.20,1.74,2.08,-6.53,-6.53,-6.52
358.28,-8.72,-2.22,-8.73,-2.22,2.22,1.74,2.11,-6.50,-6.50,-6.51
361.87,-8.72,-2.25,-8.72,-2.25,2.25,1.74,2.14,-6.48,-6.48,-6.48
365.49,-8.72,-2.27,-8.72,-2.27,2.27,1.75,2.18,-6.46,-6.46,-6.45
369.14,-8.72,-2.28,-8.72,-2.29,2.29,1.75,2.21,-6.43,-6.43,-6.44
372.83,-8.72,-2.31,-8.72,-2.31,2.31,1.76,2.25,-6.41,-6.41,-6.41
376.56,-8.72,-2.33,-8.72,-2.34,2.34,1.77,2.29,-6.39,-6.39,-6.40
