frequency,raw,error,smoothed,error_smoothed,equalization,parametric_eq,fixed_band_eq,equalized_raw,equalized_smoothed,target
20.00,-9.49,-12.41,-9.50,-12.41,12.43,12.63,4.90,2.94,2.93,2.91
20.20,-9.46,-12.41,-9.46,-12.40,12.41,12.57,5.03,2.94,2.95,2.94
20.40,-9.42,-12.40,-9.42,-12.39,12.38,12.50,5.15,2.96,2.97,2.97
20.61,-9.36,-12.36,-9.37,-12.37,12.35,12.44,5.29,2.99,2.99,2.99
20.81,-9.30,-12.33,-9.30,-12.33,12.32,12.37,5.42,3.02,3.01,3.02
21.02,-9.24,-12.30,-9.24,-12.29,12.28,12.31,5.56,3.04,3.04,3.05
21.23,-9.17,-12.24,-9.18,-12.24,12.24,12.24,5.70,3.07,3.06,3.06
21.44,-9.11,-12.19,-9.11,-12.19,12.19,12.18,5.85,3.08,3.08,3.07
21.66,-9.05,-12.14,-9.05,-12.13,12.14,12.11,6.00,3.08,3.09,3.08
21.87,-8.99,-12.08,-8.99,-12.08,12.08,12.05,6.16,3.09,3.09,3.08
22.09,-8.92,-12.02,-8.92,-12.02,12.02,11.98,6.32,3.10,3.10,3.09
22.31,-8.86,-11.96,-8.86,-11.96,11.96,11.91,6.48,3.10,3.10,3.09
22.54,-8.79,-11.89,-8.80,-11.89,11.90,11.85,6.65,3.10,3.10,3.09
22.76,-8.74,-11.84,-8.74,-11.83,11.83,11.78,6.82,3.09,3.09,3.09
22.99,-8.68,-11.77,-8.68,-11.77,11.77,11.71,7.00,3.08,3.09,3.08
23.22,-8.61,-11.70,-8.62,-11.70,11.70,11.64,7.18,3.09,3.08,3.08
23.45,-8.55,-11.64,-8.55,-11.63,11.63,11.58,7.37,3.08,3.09,3.08
23.69,-8.47,-11.56,-8.48,-11.56,11.56,11.51,7.56,3.09,3.09,3.08
23.92,-8.40,-11.49,-8.41,-11.49,11.49,11.44,7.75,3.09,3.09,3.08
24.16,-8.34,-11.43,-8.34,-11.42,11.42,11.37,7.96,3.08,3.08,3.08
24.40,-8.27,-11.36,-8.27,-11.35,11.35,11.30,8.16,3.07,3.08,3.08
24.65,-8.19,-11.27,-8.19,-11.27,11.27,11.23,8.37,3.07,3.07,3.07
24.89,-8.11,-11.19,-8.11,-11.19,11.19,11.16,8.58,3.08,3.08,3.07
25.14,-8.03,-11.11,-8.03,-11.11,11.11,11.09,8.80,3.08,3.08,3.07
25.39,-7.95,-11.03,-7.95,-11.03,11.03,11.02,9.02,3.08,3.07,3.07
25.65,-7.87,-10.95,-7.87,-10.94,10.95,10.95,9.24,3.07,3.07,3.07
25.91,-7.80,-10.87,-7.80,-10.87,10.86,10.88,9.47,3.06,3.06,3.06
26.16,-7.70,-10.77,-7.71,-10.78,10.78,10.81,9.70,3.08,3.06,3.06
26.43,-7.64,-10.71,-7.63,-10.69,10.69,10.74,9.93,3.05,3.07,3.06
26.69,-7.53,-10.60,-7.54,-10.61,10.61,10.67,10.16,3.08,3.07,3.06
26.96,-7.46,-10.53,-7.47,-10.53,10.53,10.60,10.39,3.06,3.06,3.06
27.23,-7.39,-10.45,-7.39,-10.44,10.44,10.53,10.62,3.05,3.06,3.05
27.50,-7.31,-10.37,-7.31,-10.37,10.36,10.46,10.85,3.05,3.05,3.05
27.77,-7.23,-10.28,-7.24,-10.28,10.29,10.39,11.07,3.05,3.05,3.04
28.05,-7.16,-10.21,-7.16,-10.21,10.21,10.32,11.29,3.05,3.05,3.04
28.33,-7.10,-10.14,-7.10,-10.14,10.14,10.24,11.49,3.04,3.05,3.03
28.62,-7.03,-10.07,-7.03,-10.07,10.07,10.17,11.69,3.04,3.04,3.03
28.90,-6.97,-10.01,-6.98,-10.01,10.01,10.10,11.88,3.03,3.03,3.03
29.19,-6.92,-9.95,-6.92,-9.95,9.94,10.03,12.06,3.02,3.02,3.02
29.48,-6.88,-9.91,-6.86,-9.89,9.88,9.96,12.21,3.00,3.02,3.02
29.78,-6.78,-9.80,-6.80,-9.82,9.82,9.88,12.35,3.04,3.02,3.01
30.08,-6.74,-9.76,-6.74,-9.76,9.76,9.81,12.46,3.02,3.02,3.01
30.38,-6.69,-9.70,-6.69,-9.70,9.70,9.74,12.56,3.01,3.01,3.00
30.68,-6.64,-9.65,-6.64,-9.64,9.64,9.66,12.63,2.99,3.00,3.00
30.99,-6.58,-9.58,-6.58,-9.58,9.57,9.59,12.68,2.99,2.99,2.99
31.30,-6.51,-9.50,-6.52,-9.51,9.50,9.52,12.69,2.99,2.98,2.98
31.61,-6.45,-9.44,-6.45,-9.43,9.43,9.45,12.69,2.98,2.98,2.98
31.93,-6.38,-9.36,-6.39,-9.36,9.36,9.37,12.65,2.97,2.97,2.97
32.24,-6.32,-9.29,-6.32,-9.29,9.28,9.30,12.59,2.96,2.96,2.96
32.57,-6.24,-9.21,-6.24,-9.20,9.21,9.23,12.50,2.96,2.96,2.96
32.89,-6.17,-9.13,-6.17,-9.12,9.13,9.15,12.40,2.96,2.96,2.95
33.22,-6.09,-9.04,-6.10,-9.05,9.05,9.08,12.27,2.96,2.96,2.94
33.55,-6.03,-8.98,-6.03,-8.97,8.98,9.01,12.13,2.95,2.95,2.94
33.89,-5.97,-8.91,-5.97,-8.91,8.90,8.93,11.97,2.93,2.93,2.93
34.23,-5.91,-8.84,-5.91,-8.84,8.83,8.86,11.80,2.92,2.92,2.92
34.57,-5.85,-8.77,-5.85,-8.77,8.76,8.79,11.61,2.91,2.91,2.91
34.92,-5.79,-8.70,-5.79,-8.69,8.70,8.71,11.42,2.90,2.91,2.90
35.27,-5.72,-8.62,-5.73,-8.62,8.63,8.64,11.22,2.91,2.90,2.89
35.62,-5.66,-8.55,-5.67,-8.55,8.56,8.57,11.02,2.90,2.89,2.88
35.97,-5.62,-8.50,-5.62,-8.49,8.50,8.49,10.81,2.88,2.88,2.87
36.33,-5.57,-8.44,-5.57,-8.44,8.43,8.42,10.60,2.86,2.86,2.86
36.70,-5.52,-8.38,-5.52,-8.37,8.37,8.35,10.39,2.84,2.85,2.85
37.06,-5.46,-8.31,-5.46,-8.31,8.30,8.27,10.18,2.84,2.84,2.84
37.43,-5.39,-8.23,-5.40,-8.23,8.23,8.20,9.97,2.84,2.83,2.83
37.81,-5.34,-8.17,-5.34,-8.16,8.16,8.13,9.76,2.82,2.83,2.82
38.19,-5.27,-8.09,-5.27,-8.09,8.09,8.05,9.56,2.82,2.82,2.81
38.57,-5.21,-8.02,-5.22,-8.02,8.02,7.98,9.36,2.81,2.80,2.80
38.95,-5.15,-7.95,-5.16,-7.95,7.95,7.91,9.16,2.80,2.79,2.79
39.34,-5.11,-7.89,-5.10,-7.88,7.88,7.83,8.97,2.77,2.78,2.77
39.74,-5.04,-7.81,-5.04,-7.81,7.81,7.76,8.78,2.77,2.77,2.76
40.14,-4.97,-7.73,-4.98,-7.74,7.74,7.69,8.60,2.77,2.76,2.75
40.54,-4.92,-7.67,-4.92,-7.67,7.67,7.62,8.42,2.75,2.75,2.74
40.94,-4.87,-7.61,-4.87,-7.61,7.61,7.54,8.24,2.73,2.73,2.73
41.35,-4.82,-7.55,-4.82,-7.54,7.54,7.47,8.08,2.71,2.72,2.72
41.76,-4.76,-7.48,-4.76,-7.47,7.47,7.40,7.91,2.71,2.71,2.71
42.18,-4.69,-7.40,-4.70,-7.40,7.40,7.33,7.75,2.71,2.70,2.70
42.60,-4.63,-7.33,-4.63,-7.33,7.33,7.25,7.60,2.69,2.69,2.69
43.03,-4.57,-7.26,-4.57,-7.25,7.26,7.18,7.45,2.68,2.69,2.68
43.46,-4.51,-7.18,-4.51,-7.18,7.18,7.11,7.31,2.67,2.67,2.66
43.90,-4.45,-7.10,-4.46,-7.11,7.11,7.04,7.17,2.66,2.65,2.64
44.33,-4.41,-7.04,-4.41,-7.03,7.03,6.97,7.04,2.62,2.62,2.62
44.78,-4.36,-6.97,-4.36,-6.96,6.96,6.89,6.91,2.60,2.60,2.60
45.23,-4.30,-6.89,-4.30,-6.89,6.89,6.82,6.79,2.58,2.58,2.58
45.68,-4.24,-6.82,-4.24,-6.82,6.82,6.75,6.67,2.57,2.57,2.57
46.13,-4.18,-6.74,-4.18,-6.74,6.74,6.68,6.56,2.56,2.56,2.55
46.60,-4.12,-6.67,-4.13,-6.67,6.67,6.61,6.45,2.55,2.55,2.54
47.06,-4.07,-6.60,-4.07,-6.59,6.60,6.54,6.34,2.52,2.53,2.52
47.53,-4.01,-6.52,-4.02,-6.53,6.52,6.47,6.24,2.51,2.50,2.50
48.01,-3.96,-6.46,-3.97,-6.45,6.45,6.40,6.15,2.48,2.48,2.49
48.49,-3.92,-6.39,-3.91,-6.38,6.37,6.33,6.06,2.45,2.46,2.46
48.97,-3.85,-6.29,-3.86,-6.29,6.29,6.26,5.97,2.44,2.44,2.43
49.46,-3.80,-6.21,-3.81,-6.21,6.22,6.19,5.88,2.42,2.41,2.40
49.96,-3.75,-6.13,-3.76,-6.13,6.14,6.12,5.80,2.39,2.39,2.37
50.46,-3.71,-6.07,-3.71,-6.06,6.07,6.05,5.72,2.35,2.36,2.35
50.96,-3.66,-6.00,-3.66,-5.99,5.99,5.98,5.65,2.33,2.33,2.33
51.47,-3.60,-5.91,-3.61,-5.92,5.92,5.91,5.57,2.31,2.30,2.30
51.99,-3.57,-5.86,-3.56,-5.85,5.84,5.84,5.50,2.27,2.28,2.28
52.51,-3.51,-5.78,-3.51,-5.78,5.77,5.77,5.44,2.25,2.26,2.26
53.03,-3.45,-5.70,-3.45,-5.70,5.69,5.70,5.37,2.24,2.24,2.24
53.56,-3.39,-5.61,-3.39,-5.61,5.62,5.63,5.31,2.22,2.22,2.21
54.10,-3.33,-5.53,-3.34,-5.53,5.54,5.56,5.24,2.21,2.20,2.19
54.64,-3.30,-5.47,-3.29,-5.46,5.47,5.49,5.18,2.16,2.17,2.16
55.18,-3.24,-5.39,-3.25,-5.39,5.39,5.42,5.12,2.15,2.14,2.14
55.74,-3.20,-5.32,-3.20,-5.32,5.32,5.35,5.07,2.12,2.12,2.11
56.29,-3.16,-5.26,-3.16,-5.25,5.25,5.28,5.01,2.09,2.10,2.09
56.86,-3.10,-5.18,-3.11,-5.18,5.19,5.21,4.95,2.08,2.07,2.07
57.42,-3.07,-5.12,-3.07,-5.12,5.12,5.14,4.89,2.05,2.05,2.04
58.00,-3.02,-5.05,-3.03,-5.05,5.06,5.08,4.83,2.03,2.03,2.02
58.58,-2.99,-5.00,-2.98,-4.99,4.99,5.01,4.77,2.00,2.00,2.00
59.16,-2.93,-4.92,-2.94,-4.93,4.92,4.94,4.71,1.99,1.98,1.98
59.76,-2.89,-4.86,-2.89,-4.86,4.85,4.87,4.65,1.95,1.95,1.96
60.35,-2.85,-4.79,-2.85,-4.78,4.77,4.80,4.59,1.92,1.93,1.93
60.96,-2.79,-4.70,-2.80,-4.70,4.70,4.73,4.53,1.90,1.90,1.90
61.57,-2.75,-4.62,-2.75,-4.62,4.62,4.66,4.46,1.86,1.87,1.86
62.18,-2.69,-4.53,-2.69,-4.53,4.54,4.59,4.39,1.84,1.84,1.83
62.80,-2.64,-4.45,-2.64,-4.45,4.45,4.52,4.33,1.81,1.81,1.80
63.43,-2.59,-4.37,-2.59,-4.37,4.37,4.45,4.26,1.78,1.78,1.77
64.07,-2.54,-4.29,-2.54,-4.29,4.29,4.38,4.18,1.75,1.75,1.74
64.71,-2.49,-4.22,-2.50,-4.22,4.22,4.31,4.11,1.72,1.72,1.72
65.35,-2.45,-4.15,-2.45,-4.14,4.14,4.25,4.04,1.69,1.69,1.69
66.01,-2.40,-4.07,-2.40,-4.07,4.06,4.18,3.96,1.66,1.66,1.66
66.67,-2.35,-3.99,-2.36,-3.99,3.99,4.11,3.88,1.64,1.63,1.63
67.33,-2.31,-3.92,-2.31,-3.91,3.92,4.04,3.80,1.60,1.61,1.60
68.01,-2.26,-3.84,-2.27,-3.84,3.84,3.97,3.72,1.58,1.58,1.57
68.69,-2.23,-3.78,-2.23,-3.77,3.77,3.90,3.63,1.54,1.55,1.54
69.37,-2.19,-3.71,-2.19,-3.71,3.71,3.82,3.55,1.52,1.51,1.51
70.07,-2.15,-3.64,-2.16,-3.65,3.65,3.75,3.47,1.50,1.49,1.48
70.77,-2.15,-3.61,-2.13,-3.59,3.59,3.68,3.38,1.44,1.46,1.45
71.48,-2.10,-3.53,-2.12,-3.54,3.54,3.61,3.29,1.44,1.43,1.42
72.19,-2.10,-3.49,-2.11,-3.49,3.50,3.54,3.21,1.39,1.39,1.38
72.91,-2.10,-3.46,-2.10,-3.45,3.46,3.47,3.12,1.35,1.36,1.35
73.64,-2.10,-3.42,-2.10,-3.42,3.42,3.40,3.03,1.32,1.32,1.31
74.38,-2.10,-3.39,-2.10,-3.38,3.39,3.33,2.95,1.28,1.28,1.28
75.12,-2.10,-3.35,-2.10,-3.35,3.35,3.26,2.86,1.25,1.25,1.24
75.87,-2.10,-3.32,-2.10,-3.32,3.32,3.18,2.77,1.22,1.22,1.21
76.63,-2.10,-3.29,-2.11,-3.29,3.29,3.11,2.69,1.18,1.18,1.18
77.40,-2.10,-3.26,-2.10,-3.25,3.25,3.04,2.60,1.14,1.15,1.15
78.17,-2.10,-3.22,-2.09,-3.21,3.20,2.97,2.52,1.10,1.11,1.11
78.95,-2.05,-3.14,-2.07,-3.15,3.15,2.90,2.43,1.09,1.08,1.08
79.74,-2.05,-3.11,-2.04,-3.09,3.08,2.82,2.35,1.03,1.05,1.05
80.54,-1.99,-3.01,-2.00,-3.02,3.02,2.75,2.26,1.02,1.02,1.01
81.35,-1.96,-2.95,-1.96,-2.95,2.94,2.68,2.18,0.98,0.98,0.98
82.16,-1.91,-2.86,-1.91,-2.86,2.86,2.61,2.10,0.95,0.95,0.94
82.98,-1.86,-2.78,-1.86,-2.77,2.78,2.53,2.02,0.91,0.91,0.91
83.81,-1.80,-2.68,-1.81,-2.68,2.69,2.46,1.94,0.89,0.88,0.87
84.65,-1.75,-2.59,-1.76,-2.60,2.60,2.39,1.86,0.85,0.84,0.83
85.50,-1.71,-2.52,-1.71,-2.51,2.51,2.31,1.79,0.80,0.80,0.80
86.35,-1.66,-2.43,-1.66,-2.43,2.43,2.24,1.71,0.76,0.76,0.76
87.22,-1.61,-2.34,-1.61,-2.34,2.34,2.17,1.63,0.73,0.72,0.72
88.09,-1.56,-2.25,-1.57,-2.25,2.25,2.09,1.56,0.69,0.69,0.68
88.97,-1.52,-2.17,-1.52,-2.16,2.17,2.02,1.48,0.64,0.64,0.64
89.86,-1.47,-2.08,-1.47,-2.08,2.08,1.94,1.41,0.61,0.60,0.60
90.76,-1.43,-1.99,-1.43,-1.99,1.99,1.87,1.34,0.56,0.56,0.55
91.66,-1.38,-1.90,-1.39,-1.90,1.90,1.80,1.27,0.52,0.51,0.51
92.58,-1.35,-1.82,-1.34,-1.81,1.81,1.72,1.20,0.46,0.47,0.46
93.51,-1.29,-1.72,-1.29,-1.72,1.72,1.65,1.13,0.42,0.42,0.42
94.44,-1.24,-1.63,-1.25,-1.63,1.62,1.58,1.06,0.38,0.38,0.38
95.39,-1.19,-1.53,-1.20,-1.53,1.53,1.50,0.99,0.34,0.33,0.33
96.34,-1.15,-1.44,-1.15,-1.43,1.43,1.43,0.93,0.28,0.28,0.28
97.30,-1.10,-1.34,-1.10,-1.34,1.34,1.35,0.86,0.23,0.24,0.23
98.28,-1.05,-1.24,-1.06,-1.24,1.24,1.28,0.80,0.19,0.18,0.18
99.26,-1.00,-1.15,-1.00,-1.15,1.14,1.21,0.73,0.14,0.14,0.14
100.25,-0.96,-1.06,-0.96,-1.05,1.05,1.13,0.67,0.09,0.09,0.09
101.25,-0.90,-0.95,-0.91,-0.95,0.96,1.06,0.60,0.06,0.05,0.04
102.27,-0.87,-0.87,-0.87,-0.86,0.87,0.99,0.54,-0.00,0.00,-0.01
103.29,-0.82,-0.77,-0.83,-0.78,0.78,0.92,0.48,-0.04,-0.05,-0.06
104.32,-0.80,-0.71,-0.80,-0.70,0.70,0.84,0.42,-0.10,-0.10,-0.10
105.37,-0.76,-0.62,-0.77,-0.62,0.62,0.77,0.36,-0.14,-0.15,-0.15
106.42,-0.75,-0.56,-0.74,-0.55,0.55,0.70,0.30,-0.21,-0.20,-0.20
107.48,-0.70,-0.46,-0.71,-0.47,0.47,0.63,0.25,-0.23,-0.24,-0.25
108.56,-0.70,-0.41,-0.69,-0.40,0.40,0.56,0.19,-0.30,-0.29,-0.30
109.64,-0.66,-0.32,-0.68,-0.33,0.33,0.48,0.14,-0.33,-0.34,-0.35
110.74,-0.66,-0.27,-0.66,-0.27,0.26,0.41,0.08,-0.40,-0.40,-0.40
111.85,-0.66,-0.22,-0.65,-0.20,0.19,0.34,0.03,-0.48,-0.46,-0.45
112.97,-0.61,-0.11,-0.63,-0.13,0.12,0.27,-0.02,-0.50,-0.51,-0.51
114.10,-0.61,-0.06,-0.60,-0.04,0.04,0.20,-0.07,-0.57,-0.56,-0.56
115.24,-0.56,0.05,-0.57,0.04,-0.03,0.13,-0.12,-0.60,-0.61,-0.62
116.39,-0.56,0.10,-0.56,0.11,-0.11,0.07,-0.17,-0.67,-0.66,-0.67
117.55,-0.53,0.19,-0.54,0.18,-0.18,-0.00,-0.21,-0.71,-0.72,-0.73
118.73,-0.52,0.25,-0.53,0.25,-0.25,-0.07,-0.26,-0.77,-0.78,-0.78
119.92,-0.52,0.30,-0.50,0.32,-0.32,-0.14,-0.30,-0.84,-0.82,-0.83
121.12,-0.47,0.40,-0.49,0.39,-0.38,-0.20,-0.34,-0.85,-0.87,-0.88
122.33,-0.47,0.45,-0.48,0.45,-0.44,-0.27,-0.38,-0.92,-0.92,-0.93
123.55,-0.47,0.50,-0.47,0.50,-0.51,-0.34,-0.42,-0.98,-0.98,-0.98
124.79,-0.47,0.55,-0.47,0.55,-0.57,-0.40,-0.45,-1.04,-1.04,-1.03
126.03,-0.47,0.60,-0.46,0.62,-0.63,-0.46,-0.49,-1.10,-1.08,-1.08
127.29,-0.42,0.70,-0.44,0.69,-0.69,-0.53,-0.52,-1.11,-1.13,-1.13
128.57,-0.42,0.76,-0.43,0.75,-0.75,-0.59,-0.55,-1.17,-1.18,-1.19
129.85,-0.42,0.81,-0.42,0.82,-0.81,-0.65,-0.58,-1.23,-1.23,-1.24
131.15,-0.42,0.86,-0.42,0.87,-0.87,-0.71,-0.61,-1.29,-1.29,-1.29
132.46,-0.40,0.93,-0.40,0.93,-0.93,-0.77,-0.64,-1.33,-1.33,-1.34
133.79,-0.38,0.99,-0.39,0.99,-0.98,-0.83,-0.66,-1.37,-1.37,-1.38
135.12,-0.38,1.04,-0.38,1.04,-1.04,-0.89,-0.69,-1.42,-1.42,-1.43
136.48,-0.38,1.08,-0.38,1.09,-1.09,-0.95,-0.71,-1.47,-1.47,-1.47
137.84,-0.38,1.13,-0.38,1.13,-1.14,-1.01,-0.74,-1.52,-1.52,-1.52
139.22,-0.38,1.18,-0.38,1.18,-1.18,-1.06,-0.76,-1.57,-1.57,-1.57
140.61,-0.38,1.22,-0.38,1.23,-1.23,-1.12,-0.78,-1.61,-1.60,-1.61
142.02,-0.36,1.27,-0.36,1.28,-1.27,-1.17,-0.80,-1.63,-1.63,-1.64
143.44,-0.35,1.32,-0.36,1.32,-1.31,-1.22,-0.83,-1.66,-1.67,-1.68
144.87,-0.35,1.36,-0.36,1.35,-1.34,-1.28,-0.85,-1.70,-1.71,-1.72
146.32,-0.38,1.37,-0.37,1.38,-1.38,-1.33,-0.87,-1.76,-1.75,-1.76
147.78,-0.38,1.40,-0.38,1.41,-1.42,-1.38,-0.89,-1.80,-1.80,-1.79
149.26,-0.38,1.44,-0.39,1.44,-1.45,-1.42,-0.91,-1.84,-1.84,-1.83
150.75,-0.38,1.48,-0.38,1.48,-1.49,-1.47,-0.93,-1.87,-1.87,-1.87
152.26,-0.38,1.52,-0.38,1.52,-1.52,-1.52,-0.95,-1.90,-1.90,-1.91
153.78,-0.38,1.56,-0.38,1.56,-1.55,-1.56,-0.98,-1.93,-1.93,-1.95
155.32,-0.38,1.60,-0.39,1.59,-1.59,-1.61,-1.00,-1.97,-1.98,-1.99
156.88,-0.40,1.62,-0.40,1.62,-1.62,-1.65,-1.02,-2.03,-2.03,-2.03
158.44,-0.42,1.64,-0.42,1.65,-1.66,-1.69,-1.05,-2.08,-2.07,-2.07
160.03,-0.42,1.68,-0.42,1.68,-1.69,-1.73,-1.07,-2.12,-2.12,-2.11
161.63,-0.42,1.72,-0.43,1.72,-1.73,-1.77,-1.10,-2.15,-2.15,-2.15
163.24,-0.42,1.76,-0.42,1.76,-1.76,-1.81,-1.12,-2.18,-2.18,-2.19
164.88,-0.42,1.79,-0.42,1.80,-1.79,-1.84,-1.15,-2.21,-2.21,-2.22
166.53,-0.42,1.83,-0.42,1.83,-1.82,-1.88,-1.18,-2.25,-2.25,-2.26
168.19,-0.42,1.87,-0.44,1.86,-1.85,-1.91,-1.21,-2.28,-2.29,-2.30
169.87,-0.46,1.87,-0.45,1.88,-1.88,-1.95,-1.24,-2.35,-2.34,-2.34
171.57,-0.47,1.90,-0.46,1.91,-1.91,-1.98,-1.27,-2.38,-2.37,-2.38
173.29,-0.47,1.93,-0.48,1.93,-1.93,-2.01,-1.30,-2.41,-2.41,-2.41
175.02,-0.47,1.97,-0.49,1.96,-1.96,-2.04,-1.34,-2.43,-2.45,-2.45
176.77,-0.52,1.96,-0.50,1.98,-1.98,-2.07,-1.37,-2.50,-2.48,-2.49
178.54,-0.52,2.00,-0.52,2.00,-2.00,-2.09,-1.41,-2.53,-2.53,-2.53
180.32,-0.52,2.04,-0.54,2.02,-2.03,-2.12,-1.45,-2.55,-2.57,-2.57
182.13,-0.56,2.03,-0.55,2.05,-2.05,-2.14,-1.48,-2.61,-2.60,-2.60
183.95,-0.56,2.07,-0.56,2.08,-2.07,-2.16,-1.52,-2.64,-2.63,-2.64
185.79,-0.56,2.10,-0.57,2.10,-2.10,-2.18,-1.57,-2.66,-2.67,-2.67
187.65,-0.56,2.14,-0.58,2.13,-2.12,-2.20,-1.61,-2.68,-2.70,-2.71
189.52,-0.60,2.13,-0.59,2.14,-2.14,-2.22,-1.65,-2.75,-2.74,-2.74
191.42,-0.61,2.15,-0.61,2.16,-2.16,-2.24,-1.70,-2.78,-2.77,-2.77
193.33,-0.61,2.18,-0.61,2.18,-2.18,-2.26,-1.74,-2.80,-2.80,-2.80
195.27,-0.61,2.21,-0.62,2.21,-2.20,-2.27,-1.79,-2.82,-2.82,-2.83
197.22,-0.61,2.24,-0.63,2.23,-2.22,-2.28,-1.83,-2.83,-2.85,-2.86
199.19,-0.66,2.22,-0.65,2.24,-2.24,-2.30,-1.88,-2.90,-2.88,-2.89
201.18,-0.66,2.24,-0.66,2.25,-2.25,-2.31,-1.93,-2.92,-2.91,-2.91
203.19,-0.66,2.26,-0.67,2.26,-2.27,-2.32,-1.98,-2.93,-2.94,-2.93
205.23,-0.66,2.28,-0.66,2.28,-2.28,-2.33,-2.02,-2.94,-2.94,-2.95
207.28,-0.66,2.29,-0.66,2.30,-2.29,-2.33,-2.07,-2.95,-2.96,-2.96
209.35,-0.66,2.31,-0.67,2.31,-2.30,-2.34,-2.12,-2.96,-2.97,-2.98
211.44,-0.68,2.31,-0.67,2.32,-2.31,-2.35,-2.17,-2.99,-2.98,-3.00
213.56,-0.68,2.32,-0.68,2.32,-2.32,-2.35,-2.22,-3.00,-3.00,-3.01
215.69,-0.68,2.32,-0.69,2.32,-2.33,-2.35,-2.26,-3.01,-3.02,-3.01
217.85,-0.70,2.31,-0.70,2.32,-2.33,-2.35,-2.31,-3.03,-3.03,-3.02
220.03,-0.70,2.32,-0.70,2.32,-2.33,-2.36,-2.35,-3.03,-3.03,-3.03
222.23,-0.70,2.33,-0.70,2.33,-2.33,-2.36,-2.39,-3.03,-3.03,-3.04
224.45,-0.70,2.33,-0.70,2.34,-2.32,-2.35,-2.43,-3.03,-3.02,-3.04
226.70,-0.70,2.33,-0.71,2.33,-2.32,-2.35,-2.47,-3.02,-3.02,-3.04
228.96,-0.70,2.33,-0.72,2.31,-2.31,-2.35,-2.50,-3.01,-3.03,-3.04
231.25,-0.75,2.27,-0.74,2.29,-2.30,-2.35,-2.54,-3.05,-3.04,-3.03
233.57,-0.75,2.27,-0.75,2.28,-2.29,-2.34,-2.57,-3.04,-3.04,-3.03
235.90,-0.75,2.27,-0.76,2.27,-2.27,-2.34,-2.59,-3.03,-3.03,-3.03
238.26,-0.75,2.26,-0.75,2.26,-2.26,-2.33,-2.61,-3.01,-3.01,-3.02
240.64,-0.75,2.25,-0.76,2.25,-2.24,-2.32,-2.63,-3.00,-3.00,-3.01
243.05,-0.77,2.22,-0.77,2.23,-2.23,-2.31,-2.65,-3.00,-2.99,-3.00
245.48,-0.77,2.21,-0.77,2.21,-2.21,-2.31,-2.66,-2.99,-2.99,-2.99
247.93,-0.77,2.20,-0.77,2.20,-2.20,-2.30,-2.67,-2.97,-2.98,-2.98
250.41,-0.77,2.19,-0.77,2.19,-2.19,-2.29,-2.67,-2.96,-2.96,-2.97
252.92,-0.77,2.17,-0.77,2.17,-2.17,-2.28,-2.67,-2.95,-2.95,-2.95
255.45,-0.77,2.15,-0.77,2.15,-2.16,-2.26,-2.66,-2.93,-2.93,-2.93
258.00,-0.77,2.14,-0.77,2.14,-2.14,-2.25,-2.65,-2.92,-2.91,-2.92
260.58,-0.77,2.12,-0.77,2.13,-2.13,-2.24,-2.64,-2.90,-2.89,-2.90
263.19,-0.75,2.12,-0.76,2.12,-2.11,-2.23,-2.62,-2.86,-2.87,-2.88
265.82,-0.75,2.10,-0.75,2.10,-2.09,-2.21,-2.60,-2.85,-2.85,-2.86
268.48,-0.75,2.08,-0.75,2.08,-2.08,-2.20,-2.57,-2.83,-2.83,-2.84
271.16,-0.75,2.06,-0.76,2.06,-2.07,-2.18,-2.54,-2.82,-2.83,-2.82
273.87,-0.75,2.04,-0.75,2.04,-2.06,-2.17,-2.51,-2.81,-2.81,-2.80
276.61,-0.75,2.02,-0.74,2.04,-2.04,-2.15,-2.48,-2.80,-2.78,-2.78
279.38,-0.70,2.05,-0.72,2.04,-2.03,-2.14,-2.44,-2.74,-2.75,-2.76
282.17,-0.70,2.03,-0.71,2.03,-2.02,-2.12,-2.40,-2.73,-2.73,-2.74
284.99,-0.70,2.01,-0.70,2.02,-2.01,-2.10,-2.36,-2.71,-2.71,-2.72
287.84,-0.70,1.99,-0.70,2.00,-2.00,-2.08,-2.32,-2.70,-2.69,-2.70
290.72,-0.68,1.99,-0.69,1.99,-1.99,-2.07,-2.28,-2.67,-2.67,-2.68
293.63,-0.68,1.97,-0.69,1.97,-1.97,-2.05,-2.23,-2.65,-2.66,-2.66
296.57,-0.69,1.94,-0.69,1.95,-1.94,-2.03,-2.19,-2.64,-2.64,-2.64
299.53,-0.70,1.91,-0.70,1.92,-1.92,-2.01,-2.14,-2.62,-2.62,-2.62
302.53,-0.70,1.89,-0.70,1.89,-1.89,-1.99,-2.09,-2.59,-2.59,-2.60
305.55,-0.70,1.86,-0.70,1.87,-1.85,-1.97,-2.05,-2.56,-2.56,-2.57
308.61,-0.70,1.84,-0.71,1.83,-1.82,-1.96,-2.00,-2.53,-2.54,-2.55
311.69,-0.73,1.78,-0.73,1.78,-1.79,-1.94,-1.95,-2.52,-2.52,-2.52
314.81,-0.75,1.73,-0.75,1.74,-1.76,-1.92,-1.91,-2.51,-2.50,-2.49
317.96,-0.75,1.71,-0.75,1.71,-1.72,-1.90,-1.86,-2.48,-2.48,-2.47
321.14,-0.75,1.69,-0.75,1.69,-1.69,-1.88,-1.82,-2.45,-2.45,-2.45
324.35,-0.75,1.67,-0.75,1.67,-1.66,-1.86,-1.77,-2.42,-2.41,-2.43
327.59,-0.75,1.65,-0.76,1.64,-1.63,-1.84,-1.73,-2.39,-2.40,-2.41
330.87,-0.78,1.60,-0.78,1.61,-1.60,-1.82,-1.69,-2.39,-2.38,-2.39
334.18,-0.80,1.56,-0.79,1.57,-1.58,-1.80,-1.64,-2.38,-2.37,-2.37
337.52,-0.80,1.54,-0.80,1.54,-1.55,-1.78,-1.60,-2.35,-2.35,-2.35
340.90,-0.80,1.52,-0.81,1.52,-1.52,-1.76,-1.56,-2.32,-2.32,-2.33
344.30,-0.80,1.50,-0.82,1.49,-1.49,-1.74,-1.52,-2.29,-2.30,-2.31
347.75,-0.84,1.44,-0.83,1.45,-1.46,-1.72,-1.49,-2.30,-2.29,-2.29
351.23,-0.84,1.42,-0.84,1.43,-1.43,-1.69,-1.45,-2.27,-2.27,-2.27
354.74,-0.84,1.40,-0.85,1.40,-1.40,-1.67,-1.41,-2.24,-2.24,-2.25
358.28,-0.84,1.39,-0.85,1.38,-1.37,-1.65,-1.38,-2.21,-2.22,-2.24
361.87,-0.87,1.34,-0.87,1.35,-1.34,-1.63,-1.34,-2.22,-2.21,-2.22
365.49,-0.89,1.30,-0.88,1.31,-1.32,-1.61,-1.31,-2.21,-2.20,-2.20
369.14,-0.89,1.29,-0.89,1.29,-1.30,-1.59,-1.28,-2.19,-2.19,-2.19
372.83,-0.89,1.27,-0.89,1.27,-1.28,-1.57,-1.25,-2.17,-2.17,-2.17
376.56,-0.89,1.26,-0.89,1.26,-1.26,-1.55,-1.22,-2.15,-2.15,-2.16
380.33,-0.89,1.24,-0.89,1.24,-1.24,-1.53,-1.19,-2.14,-2.14,-2.14
384.13,-0.89,1.23,-0.89,1.23,-1.23,-1.51,-1.17,-2.12,-2.12,-2.13
387.97,-0.89,1.22,-0.89,1.22,-1.22,-1.49,-1.14,-2.11,-2.11,-2.12
391.85,-0.89,1.21,-0.89,1.21,-1.20,-1.47,-1.12,-2.10,-2.10,-2.11
395.77,-0.89,1.19,-0.89,1.20,-1.19,-1.45,-1.09,-2.09,-2.08,-2.09
399.73,-0.89,1.18,-0.90,1.18,-1.18,-1.43,-1.07,-2.07,-2.08,-2.08
403.72,-0.89,1.17,-0.90,1.16,-1.17,-1.42,-1.05,-2.06,-2.07,-2.07
407.76,-0.91,1.14,-0.90,1.15,-1.16,-1.40,-1.03,-2.07,-2.06,-2.06
411.84,-0.90,1.14,-0.90,1.14,-1.15,-1.38,-1.01,-2.05,-2.05,-2.05
415.96,-0.89,1.14,-0.90,1.14,-1.14,-1.36,-0.99,-2.03,-2.03,-2.04
420.12,-0.89,1.13,-0.89,1.13,-1.13,-1.34,-0.97,-2.02,-2.02,-2.03
424.32,-0.89,1.12,-0.89,1.12,-1.12,-1.32,-0.95,-2.01,-2.01,-2.02
428.56,-0.89,1.11,-0.89,1.11,-1.11,-1.30,-0.94,-2.00,-2.00,-2.01
432.85,-0.89,1.10,-0.90,1.10,-1.11,-1.28,-0.92,-2.00,-2.00,-2.00
437.18,-0.89,1.09,-0.89,1.09,-1.10,-1.27,-0.91,-1.99,-1.99,-1.99
441.55,-0.89,1.07,-0.88,1.09,-1.10,-1.25,-0.89,-1.99,-1.97,-1.97
445.96,-0.84,1.11,-0.86,1.10,-1.09,-1.23,-0.88,-1.93,-1.95,-1.96
450.42,-0.84,1.10,-0.85,1.09,-1.09,-1.21,-0.86,-1.93,-1.94,-1.95
454.93,-0.84,1.08,-0.84,1.09,-1.09,-1.20,-0.85,-1.93,-1.93,-1.93
