frequency,raw,error,smoothed,error_smoothed,equalization,parametric_eq,fixed_band_eq,equalized_raw,equalized_smoothed,target
20.00,-9.57,-11.87,-9.58,-11.88,11.92,10.88,4.19,2.35,2.33,2.30
20.20,-9.56,-11.89,-9.54,-11.87,11.87,10.99,4.30,2.32,2.33,2.33
20.40,-9.51,-11.86,-9.48,-11.84,11.82,11.09,4.42,2.32,2.34,2.36
20.61,-9.41,-11.79,-9.41,-11.80,11.77,11.17,4.54,2.36,2.36,2.38
20.81,-9.31,-11.71,-9.32,-11.73,11.71,11.23,4.66,2.40,2.39,2.41
21.02,-9.23,-11.67,-9.22,-11.66,11.65,11.28,4.78,2.42,2.42,2.44
21.23,-9.15,-11.60,-9.13,-11.59,11.58,11.32,4.91,2.44,2.45,2.45
21.44,-9.04,-11.49,-9.05,-11.51,11.51,11.33,5.05,2.48,2.46,2.46
21.66,-8.96,-11.43,-8.95,-11.42,11.43,11.33,5.18,2.47,2.48,2.47
21.87,-8.87,-11.34,-8.87,-11.34,11.35,11.31,5.32,2.47,2.48,2.47
22.09,-8.78,-11.25,-8.79,-11.26,11.26,11.28,5.47,2.49,2.48,2.48
22.31,-8.71,-11.19,-8.70,-11.18,11.18,11.23,5.61,2.47,2.48,2.48
22.54,-8.62,-11.10,-8.62,-11.10,11.10,11.17,5.77,2.49,2.48,2.48
22.76,-8.55,-11.02,-8.54,-11.02,11.03,11.10,5.92,2.48,2.49,2.48
22.99,-8.46,-10.93,-8.46,-10.93,10.95,11.01,6.08,2.49,2.49,2.47
23.22,-8.39,-10.86,-8.39,-10.86,10.87,10.91,6.25,2.48,2.48,2.47
23.45,-8.33,-10.79,-8.32,-10.79,10.79,10.81,6.42,2.46,2.47,2.47
23.69,-8.25,-10.72,-8.24,-10.71,10.70,10.69,6.59,2.45,2.46,2.47
23.92,-8.14,-10.61,-8.15,-10.62,10.60,10.57,6.76,2.46,2.45,2.47
24.16,-8.05,-10.51,-8.04,-10.51,10.51,10.44,6.94,2.46,2.46,2.47
24.40,-7.93,-10.40,-7.93,-10.40,10.40,10.31,7.13,2.47,2.47,2.47
24.65,-7.82,-10.28,-7.82,-10.28,10.29,10.18,7.31,2.47,2.47,2.46
24.89,-7.70,-10.16,-7.70,-10.16,10.17,10.04,7.50,2.46,2.46,2.46
25.14,-7.57,-10.03,-7.58,-10.04,10.04,9.91,7.70,2.46,2.46,2.46
25.39,-7.46,-9.92,-7.45,-9.91,9.90,9.77,7.89,2.44,2.45,2.46
25.65,-7.31,-9.77,-7.32,-9.77,9.76,9.63,8.09,2.45,2.44,2.46
25.91,-7.18,-9.63,-7.17,-9.62,9.61,9.49,8.29,2.43,2.44,2.45
26.16,-7.01,-9.46,-7.01,-9.46,9.46,9.36,8.49,2.45,2.45,2.45
26.43,-6.86,-9.31,-6.86,-9.31,9.31,9.22,8.70,2.45,2.45,2.45
26.69,-6.71,-9.16,-6.71,-9.16,9.16,9.09,8.90,2.46,2.45,2.45
26.96,-6.58,-9.03,-6.57,-9.02,9.02,8.97,9.10,2.45,2.45,2.45
27.23,-6.44,-8.88,-6.44,-8.88,8.90,8.84,9.29,2.46,2.46,2.44
27.50,-6.34,-8.78,-6.33,-8.77,8.79,8.72,9.49,2.45,2.46,2.44
27.77,-6.24,-8.66,-6.24,-8.68,8.70,8.61,9.68,2.46,2.45,2.43
28.05,-6.19,-8.62,-6.18,-8.61,8.62,8.49,9.86,2.43,2.43,2.43
28.33,-6.14,-8.56,-6.14,-8.56,8.56,8.38,10.03,2.42,2.42,2.42
28.62,-6.11,-8.53,-6.10,-8.52,8.51,8.28,10.20,2.40,2.41,2.42
28.90,-6.07,-8.49,-6.06,-8.48,8.48,8.18,10.35,2.41,2.42,2.42
29.19,-6.03,-8.44,-6.04,-8.45,8.46,8.09,10.49,2.43,2.42,2.41
29.48,-6.03,-8.44,-6.02,-8.43,8.45,8.00,10.62,2.42,2.42,2.41
29.78,-6.03,-8.43,-6.02,-8.42,8.44,7.91,10.73,2.41,2.41,2.40
30.08,-6.03,-8.43,-6.03,-8.43,8.43,7.83,10.82,2.40,2.40,2.40
30.38,-6.03,-8.42,-6.03,-8.42,8.41,7.76,10.89,2.39,2.39,2.39
30.68,-6.03,-8.42,-6.02,-8.41,8.39,7.68,10.94,2.37,2.37,2.39
30.99,-6.00,-8.38,-6.00,-8.38,8.36,7.62,10.97,2.36,2.36,2.38
31.30,-5.97,-8.34,-5.96,-8.34,8.31,7.56,10.98,2.35,2.35,2.37
31.61,-5.91,-8.28,-5.91,-8.27,8.25,7.50,10.97,2.34,2.34,2.37
31.93,-5.83,-8.19,-5.83,-8.19,8.17,7.45,10.93,2.34,2.34,2.36
32.24,-5.74,-8.09,-5.73,-8.08,8.08,7.40,10.88,2.34,2.35,2.35
32.57,-5.62,-7.97,-5.63,-7.98,7.99,7.35,10.81,2.37,2.35,2.35
32.89,-5.54,-7.87,-5.54,-7.88,7.89,7.31,10.71,2.35,2.35,2.34
33.22,-5.46,-7.79,-5.45,-7.78,7.79,7.28,10.61,2.34,2.35,2.33
33.55,-5.37,-7.69,-5.37,-7.69,7.70,7.24,10.48,2.34,2.34,2.33
33.89,-5.30,-7.62,-5.29,-7.61,7.62,7.21,10.35,2.33,2.33,2.32
34.23,-5.23,-7.54,-5.23,-7.54,7.55,7.19,10.20,2.33,2.32,2.31
34.57,-5.19,-7.49,-5.19,-7.49,7.49,7.16,10.05,2.31,2.30,2.30
34.92,-5.16,-7.45,-5.15,-7.44,7.44,7.14,9.88,2.28,2.29,2.29
35.27,-5.12,-7.40,-5.11,-7.39,7.39,7.12,9.71,2.28,2.28,2.28
35.62,-5.08,-7.35,-5.08,-7.35,7.35,7.10,9.54,2.28,2.27,2.27
35.97,-5.05,-7.31,-5.05,-7.31,7.31,7.08,9.36,2.27,2.26,2.26
36.33,-5.03,-7.28,-5.03,-7.28,7.27,7.06,9.18,2.24,2.24,2.25
36.70,-5.01,-7.25,-5.00,-7.24,7.23,7.05,9.00,2.22,2.23,2.24
37.06,-4.96,-7.18,-4.96,-7.19,7.18,7.03,8.82,2.22,2.22,2.23
37.43,-4.91,-7.12,-4.91,-7.13,7.12,7.01,8.64,2.22,2.21,2.22
37.81,-4.86,-7.07,-4.85,-7.06,7.06,6.99,8.46,2.21,2.21,2.21
38.19,-4.80,-7.00,-4.80,-7.00,7.00,6.97,8.28,2.20,2.19,2.20
38.57,-4.75,-6.94,-4.74,-6.93,6.92,6.94,8.11,2.18,2.18,2.19
38.95,-4.68,-6.85,-4.67,-6.85,6.85,6.91,7.94,2.17,2.17,2.18
39.34,-4.61,-6.76,-4.61,-6.77,6.77,6.88,7.77,2.17,2.17,2.16
39.74,-4.54,-6.69,-4.54,-6.69,6.70,6.85,7.60,2.16,2.16,2.15
40.14,-4.48,-6.62,-4.48,-6.61,6.62,6.81,7.45,2.15,2.15,2.14
40.54,-4.42,-6.55,-4.42,-6.55,6.55,6.76,7.29,2.13,2.13,2.13
40.94,-4.36,-6.48,-4.36,-6.48,6.48,6.71,7.14,2.12,2.12,2.12
41.35,-4.31,-6.42,-4.30,-6.41,6.41,6.66,6.99,2.10,2.11,2.11
41.76,-4.24,-6.33,-4.24,-6.34,6.34,6.60,6.85,2.10,2.10,2.10
42.18,-4.18,-6.27,-4.18,-6.27,6.27,6.53,6.71,2.09,2.09,2.09
42.60,-4.12,-6.19,-4.11,-6.19,6.20,6.46,6.58,2.08,2.08,2.08
43.03,-4.06,-6.13,-4.06,-6.13,6.12,6.38,6.45,2.07,2.06,2.07
43.46,-4.01,-6.06,-4.01,-6.06,6.04,6.30,6.33,2.04,2.04,2.05
43.90,-3.96,-5.99,-3.94,-5.97,5.97,6.21,6.21,2.01,2.02,2.03
44.33,-3.88,-5.88,-3.88,-5.89,5.89,6.12,6.10,2.01,2.01,2.01
44.78,-3.81,-5.80,-3.82,-5.80,5.81,6.02,5.99,2.00,2.00,1.99
45.23,-3.76,-5.73,-3.75,-5.72,5.73,5.92,5.88,1.98,1.98,1.97
45.68,-3.70,-5.66,-3.69,-5.65,5.66,5.81,5.78,1.96,1.97,1.96
46.13,-3.64,-5.57,-3.64,-5.58,5.59,5.71,5.69,1.95,1.95,1.94
46.60,-3.58,-5.51,-3.58,-5.51,5.51,5.59,5.60,1.94,1.93,1.93
47.06,-3.54,-5.45,-3.54,-5.45,5.44,5.48,5.51,1.90,1.90,1.91
47.53,-3.50,-5.39,-3.49,-5.38,5.37,5.36,5.42,1.87,1.88,1.89
48.01,-3.44,-5.32,-3.44,-5.31,5.30,5.25,5.34,1.86,1.86,1.88
48.49,-3.38,-5.23,-3.38,-5.23,5.22,5.13,5.27,1.84,1.84,1.85
48.97,-3.32,-5.14,-3.32,-5.14,5.15,5.01,5.19,1.83,1.82,1.82
49.46,-3.28,-5.07,-3.28,-5.06,5.07,4.89,5.12,1.80,1.80,1.79
49.96,-3.24,-5.00,-3.23,-4.99,5.00,4.77,5.06,1.77,1.77,1.76
50.46,-3.19,-4.93,-3.19,-4.92,4.93,4.65,4.99,1.75,1.75,1.74
50.96,-3.14,-4.86,-3.14,-4.86,4.86,4.53,4.93,1.73,1.72,1.72
51.47,-3.11,-4.80,-3.10,-4.80,4.80,4.41,4.87,1.69,1.69,1.69
51.99,-3.08,-4.75,-3.07,-4.74,4.73,4.30,4.82,1.66,1.66,1.67
52.51,-3.03,-4.68,-3.03,-4.68,4.67,4.18,4.76,1.64,1.64,1.65
53.03,-3.00,-4.63,-2.99,-4.62,4.61,4.07,4.71,1.61,1.62,1.63
53.56,-2.95,-4.55,-2.94,-4.55,4.54,3.95,4.66,1.60,1.60,1.60
54.10,-2.90,-4.48,-2.90,-4.47,4.48,3.84,4.61,1.59,1.59,1.58
54.64,-2.86,-4.41,-2.86,-4.41,4.42,3.73,4.56,1.57,1.57,1.55
55.18,-2.82,-4.35,-2.83,-4.35,4.37,3.63,4.51,1.55,1.54,1.53
55.74,-2.82,-4.32,-2.80,-4.31,4.31,3.52,4.47,1.49,1.51,1.50
56.29,-2.78,-4.26,-2.78,-4.26,4.25,3.42,4.42,1.48,1.47,1.48
56.86,-2.75,-4.21,-2.75,-4.20,4.20,3.32,4.37,1.45,1.45,1.46
57.42,-2.72,-4.14,-2.71,-4.14,4.14,3.22,4.32,1.42,1.43,1.43
58.00,-2.67,-4.08,-2.67,-4.08,4.08,3.12,4.27,1.41,1.41,1.41
58.58,-2.63,-4.02,-2.62,-4.01,4.01,3.03,4.22,1.39,1.39,1.39
59.16,-2.58,-3.94,-2.58,-3.95,3.94,2.94,4.17,1.37,1.37,1.37
59.76,-2.53,-3.88,-2.53,-3.87,3.87,2.85,4.12,1.34,1.34,1.35
60.35,-2.48,-3.79,-2.48,-3.80,3.79,2.76,4.06,1.32,1.32,1.32
60.96,-2.43,-3.72,-2.43,-3.71,3.71,2.68,4.01,1.29,1.29,1.29
61.57,-2.38,-3.63,-2.38,-3.63,3.63,2.59,3.95,1.25,1.25,1.25
62.18,-2.33,-3.55,-2.33,-3.55,3.55,2.51,3.89,1.22,1.22,1.22
62.80,-2.28,-3.46,-2.27,-3.46,3.46,2.43,3.82,1.18,1.19,1.19
63.43,-2.22,-3.38,-2.21,-3.37,3.37,2.36,3.76,1.16,1.16,1.16
64.07,-2.15,-3.28,-2.16,-3.29,3.29,2.28,3.69,1.14,1.13,1.13
64.71,-2.11,-3.22,-2.10,-3.21,3.20,2.21,3.62,1.10,1.10,1.11
65.35,-2.07,-3.14,-2.05,-3.13,3.12,2.13,3.55,1.06,1.08,1.08
66.01,-1.99,-3.04,-2.00,-3.05,3.05,2.06,3.47,1.06,1.05,1.05
66.67,-1.96,-2.98,-1.96,-2.97,2.98,2.00,3.39,1.03,1.03,1.02
67.33,-1.93,-2.92,-1.93,-2.92,2.92,1.93,3.31,1.00,1.00,0.99
68.01,-1.92,-2.88,-1.92,-2.88,2.87,1.86,3.23,0.96,0.95,0.96
68.69,-1.92,-2.85,-1.91,-2.84,2.83,1.80,3.15,0.92,0.92,0.93
69.37,-1.92,-2.82,-1.91,-2.81,2.81,1.74,3.06,0.89,0.89,0.90
70.07,-1.92,-2.79,-1.93,-2.80,2.80,1.68,2.98,0.88,0.87,0.87
70.77,-1.96,-2.80,-1.95,-2.79,2.81,1.62,2.89,0.85,0.86,0.84
71.48,-2.01,-2.82,-2.01,-2.81,2.83,1.56,2.80,0.83,0.83,0.81
72.19,-2.08,-2.85,-2.09,-2.86,2.88,1.50,2.71,0.80,0.79,0.77
72.91,-2.20,-2.94,-2.19,-2.92,2.94,1.45,2.62,0.75,0.76,0.74
73.64,-2.30,-3.00,-2.30,-3.00,3.02,1.39,2.53,0.73,0.72,0.70
74.38,-2.43,-3.10,-2.43,-3.09,3.11,1.34,2.44,0.68,0.68,0.67
75.12,-2.56,-3.19,-2.56,-3.19,3.20,1.29,2.35,0.64,0.64,0.63
75.87,-2.68,-3.28,-2.68,-3.28,3.28,1.24,2.26,0.60,0.60,0.60
76.63,-2.79,-3.36,-2.79,-3.35,3.33,1.19,2.17,0.55,0.55,0.57
77.40,-2.86,-3.40,-2.86,-3.40,3.36,1.14,2.08,0.50,0.50,0.54
78.17,-2.91,-3.41,-2.89,-3.40,3.35,1.09,1.99,0.44,0.46,0.50
78.95,-2.88,-3.34,-2.87,-3.34,3.30,1.04,1.89,0.43,0.43,0.47
79.74,-2.81,-3.24,-2.81,-3.24,3.21,0.99,1.80,0.41,0.41,0.44
80.54,-2.70,-3.10,-2.70,-3.10,3.09,0.95,1.71,0.39,0.39,0.40
81.35,-2.57,-2.94,-2.56,-2.93,2.93,0.90,1.62,0.37,0.37,0.37
82.16,-2.41,-2.74,-2.41,-2.74,2.75,0.86,1.53,0.35,0.34,0.33
82.98,-2.25,-2.54,-2.25,-2.54,2.56,0.81,1.45,0.31,0.31,0.30
83.81,-2.09,-2.34,-2.09,-2.35,2.36,0.77,1.36,0.27,0.27,0.26
84.65,-1.93,-2.15,-1.92,-2.15,2.16,0.73,1.27,0.23,0.23,0.22
85.50,-1.77,-1.96,-1.76,-1.95,1.96,0.68,1.18,0.19,0.19,0.19
86.35,-1.61,-1.76,-1.61,-1.76,1.77,0.64,1.10,0.16,0.15,0.15
87.22,-1.48,-1.59,-1.48,-1.59,1.59,0.60,1.01,0.11,0.11,0.11
88.09,-1.36,-1.43,-1.35,-1.42,1.42,0.56,0.92,0.07,0.07,0.07
88.97,-1.24,-1.27,-1.24,-1.27,1.27,0.52,0.84,0.03,0.03,0.03
89.86,-1.13,-1.12,-1.14,-1.12,1.13,0.48,0.76,0.01,-0.00,-0.01
90.76,-1.06,-1.00,-1.05,-0.99,1.01,0.44,0.67,-0.05,-0.04,-0.06
91.66,-0.99,-0.88,-0.99,-0.88,0.90,0.40,0.59,-0.09,-0.09,-0.10
92.58,-0.94,-0.79,-0.94,-0.79,0.80,0.36,0.51,-0.14,-0.14,-0.15
93.51,-0.90,-0.71,-0.90,-0.71,0.70,0.32,0.42,-0.19,-0.20,-0.19
94.44,-0.87,-0.64,-0.86,-0.63,0.62,0.28,0.34,-0.25,-0.25,-0.23
95.39,-0.83,-0.55,-0.83,-0.55,0.53,0.24,0.26,-0.29,-0.29,-0.28
96.34,-0.79,-0.46,-0.79,-0.46,0.45,0.20,0.18,-0.33,-0.34,-0.33
97.30,-0.76,-0.38,-0.75,-0.37,0.37,0.16,0.10,-0.38,-0.38,-0.38
98.28,-0.73,-0.30,-0.72,-0.29,0.29,0.12,0.02,-0.44,-0.43,-0.43
99.26,-0.68,-0.21,-0.68,-0.21,0.21,0.09,-0.06,-0.47,-0.47,-0.47
100.25,-0.66,-0.14,-0.65,-0.13,0.13,0.05,-0.14,-0.52,-0.52,-0.52
101.25,-0.62,-0.05,-0.62,-0.05,0.05,0.01,-0.22,-0.56,-0.57,-0.57
102.27,-0.61,0.01,-0.60,0.02,-0.02,-0.03,-0.30,-0.63,-0.62,-0.62
103.29,-0.57,0.10,-0.57,0.09,-0.09,-0.07,-0.37,-0.66,-0.67,-0.67
104.32,-0.57,0.14,-0.55,0.16,-0.16,-0.11,-0.45,-0.73,-0.71,-0.71
105.37,-0.53,0.23,-0.54,0.22,-0.22,-0.15,-0.52,-0.75,-0.76,-0.76
106.42,-0.53,0.28,-0.53,0.28,-0.28,-0.19,-0.59,-0.81,-0.81,-0.81
107.48,-0.53,0.33,-0.51,0.35,-0.34,-0.23,-0.67,-0.87,-0.85,-0.86
108.56,-0.51,0.40,-0.51,0.40,-0.39,-0.27,-0.74,-0.90,-0.91,-0.91
109.64,-0.51,0.45,-0.51,0.45,-0.44,-0.31,-0.81,-0.95,-0.96,-0.96
110.74,-0.53,0.48,-0.52,0.49,-0.49,-0.35,-0.88,-1.02,-1.01,-1.01
111.85,-0.53,0.53,-0.53,0.54,-0.54,-0.40,-0.94,-1.07,-1.07,-1.06
112.97,-0.53,0.59,-0.53,0.59,-0.59,-0.44,-1.01,-1.12,-1.12,-1.12
114.10,-0.53,0.64,-0.53,0.64,-0.65,-0.48,-1.07,-1.17,-1.17,-1.17
115.24,-0.53,0.70,-0.53,0.70,-0.71,-0.52,-1.13,-1.23,-1.23,-1.23
116.39,-0.53,0.75,-0.52,0.76,-0.77,-0.57,-1.19,-1.30,-1.29,-1.28
117.55,-0.51,0.83,-0.51,0.83,-0.84,-0.61,-1.24,-1.35,-1.35,-1.34
118.73,-0.49,0.90,-0.48,0.91,-0.91,-0.66,-1.29,-1.40,-1.39,-1.39
119.92,-0.44,1.00,-0.44,1.00,-0.99,-0.70,-1.34,-1.43,-1.44,-1.44
121.12,-0.41,1.08,-0.41,1.08,-1.08,-0.75,-1.39,-1.48,-1.49,-1.49
122.33,-0.38,1.16,-0.37,1.17,-1.16,-0.79,-1.44,-1.54,-1.54,-1.54
123.55,-0.35,1.24,-0.34,1.25,-1.25,-0.84,-1.48,-1.60,-1.59,-1.59
124.79,-0.31,1.33,-0.31,1.33,-1.34,-0.89,-1.52,-1.64,-1.64,-1.64
126.03,-0.27,1.42,-0.27,1.42,-1.42,-0.94,-1.55,-1.69,-1.69,-1.69
127.29,-0.24,1.50,-0.24,1.51,-1.51,-0.99,-1.59,-1.74,-1.74,-1.74
128.57,-0.21,1.59,-0.20,1.59,-1.59,-1.04,-1.62,-1.79,-1.79,-1.80
129.85,-0.18,1.67,-0.18,1.67,-1.67,-1.09,-1.65,-1.84,-1.84,-1.85
131.15,-0.15,1.75,-0.15,1.75,-1.75,-1.15,-1.68,-1.89,-1.90,-1.90
132.46,-0.14,1.81,-0.13,1.82,-1.82,-1.20,-1.70,-1.96,-1.95,-1.95
133.79,-0.11,1.88,-0.11,1.89,-1.90,-1.26,-1.72,-2.00,-2.00,-1.99
135.12,-0.08,1.96,-0.07,1.96,-1.97,-1.31,-1.74,-2.05,-2.04,-2.04
136.48,-0.05,2.03,-0.05,2.04,-2.04,-1.37,-1.76,-2.09,-2.09,-2.08
137.84,-0.01,2.12,-0.02,2.12,-2.11,-1.43,-1.78,-2.12,-2.13,-2.13
139.22,-0.01,2.17,0.01,2.18,-2.18,-1.49,-1.79,-2.19,-2.17,-2.18
140.61,0.03,2.25,0.02,2.24,-2.24,-1.55,-1.81,-2.21,-2.22,-2.22
142.02,0.03,2.28,0.04,2.30,-2.30,-1.61,-1.82,-2.27,-2.26,-2.25
143.44,0.06,2.35,0.07,2.36,-2.35,-1.68,-1.83,-2.29,-2.29,-2.29
144.87,0.08,2.41,0.08,2.41,-2.39,-1.74,-1.84,-2.31,-2.32,-2.33
146.32,0.08,2.45,0.08,2.45,-2.43,-1.80,-1.86,-2.35,-2.35,-2.37
147.78,0.07,2.47,0.07,2.47,-2.47,-1.87,-1.87,-2.39,-2.40,-2.40
149.26,0.03,2.47,0.05,2.49,-2.50,-1.94,-1.88,-2.46,-2.45,-2.44
150.75,0.03,2.51,0.03,2.51,-2.53,-2.01,-1.89,-2.49,-2.49,-2.48
152.26,0.03,2.55,0.02,2.54,-2.56,-2.08,-1.91,-2.52,-2.53,-2.52
153.78,0.01,2.57,0.02,2.58,-2.59,-2.15,-1.92,-2.57,-2.57,-2.56
155.32,0.01,2.61,0.01,2.62,-2.62,-2.22,-1.93,-2.60,-2.60,-2.60
156.88,0.01,2.65,0.01,2.65,-2.65,-2.29,-1.95,-2.64,-2.64,-2.64
158.44,0.01,2.69,0.01,2.69,-2.69,-2.36,-1.96,-2.68,-2.68,-2.68
160.03,0.01,2.73,0.01,2.74,-2.73,-2.43,-1.98,-2.72,-2.72,-2.72
161.63,0.01,2.77,0.01,2.77,-2.77,-2.51,-2.00,-2.76,-2.76,-2.76
163.24,0.01,2.81,0.01,2.81,-2.81,-2.58,-2.02,-2.80,-2.80,-2.80
164.88,0.01,2.84,0.02,2.85,-2.85,-2.65,-2.04,-2.83,-2.83,-2.83
166.53,0.01,2.88,0.01,2.88,-2.88,-2.72,-2.06,-2.87,-2.87,-2.87
168.19,0.01,2.92,0.01,2.92,-2.92,-2.80,-2.09,-2.90,-2.91,-2.91
169.87,-0.01,2.94,0.00,2.95,-2.95,-2.87,-2.12,-2.96,-2.95,-2.95
171.57,-0.01,2.98,-0.01,2.98,-2.98,-2.94,-2.14,-2.99,-2.99,-2.99
173.29,-0.01,3.01,-0.02,3.01,-3.01,-3.01,-2.17,-3.01,-3.03,-3.02
175.02,-0.04,3.02,-0.03,3.03,-3.03,-3.07,-2.20,-3.07,-3.06,-3.06
176.77,-0.05,3.05,-0.04,3.06,-3.06,-3.14,-2.24,-3.11,-3.10,-3.10
178.54,-0.05,3.09,-0.05,3.09,-3.09,-3.20,-2.27,-3.13,-3.14,-3.14
180.32,-0.05,3.13,-0.06,3.11,-3.11,-3.26,-2.31,-3.16,-3.18,-3.18
182.13,-0.10,3.11,-0.08,3.13,-3.14,-3.32,-2.35,-3.23,-3.22,-3.21
183.95,-0.10,3.15,-0.09,3.16,-3.17,-3.38,-2.39,-3.26,-3.26,-3.25
185.79,-0.10,3.18,-0.10,3.18,-3.19,-3.43,-2.43,-3.29,-3.30,-3.28
187.65,-0.10,3.22,-0.10,3.22,-3.22,-3.47,-2.48,-3.32,-3.32,-3.32
189.52,-0.10,3.25,-0.09,3.26,-3.25,-3.52,-2.52,-3.34,-3.34,-3.35
191.42,-0.10,3.28,-0.10,3.28,-3.27,-3.56,-2.57,-3.37,-3.37,-3.38
193.33,-0.10,3.31,-0.11,3.30,-3.30,-3.59,-2.62,-3.39,-3.41,-3.41
195.27,-0.14,3.30,-0.12,3.32,-3.32,-3.62,-2.67,-3.46,-3.45,-3.44
197.22,-0.14,3.33,-0.13,3.34,-3.35,-3.65,-2.72,-3.48,-3.48,-3.47
199.19,-0.14,3.36,-0.14,3.36,-3.37,-3.67,-2.78,-3.50,-3.51,-3.50
201.18,-0.14,3.38,-0.14,3.39,-3.39,-3.68,-2.83,-3.52,-3.52,-3.52
203.19,-0.14,3.40,-0.14,3.41,-3.40,-3.69,-2.88,-3.54,-3.54,-3.54
205.23,-0.14,3.42,-0.13,3.42,-3.42,-3.69,-2.94,-3.55,-3.55,-3.56
207.28,-0.14,3.43,-0.14,3.43,-3.43,-3.69,-2.99,-3.56,-3.57,-3.57
209.35,-0.15,3.44,-0.15,3.44,-3.44,-3.69,-3.05,-3.58,-3.59,-3.59
211.44,-0.18,3.43,-0.16,3.44,-3.44,-3.68,-3.10,-3.62,-3.60,-3.61
213.56,-0.18,3.44,-0.18,3.44,-3.44,-3.67,-3.16,-3.62,-3.62,-3.62
215.69,-0.18,3.44,-0.19,3.43,-3.44,-3.65,-3.21,-3.61,-3.63,-3.62
217.85,-0.22,3.41,-0.21,3.43,-3.43,-3.63,-3.27,-3.65,-3.64,-3.63
220.03,-0.23,3.41,-0.22,3.42,-3.43,-3.60,-3.32,-3.65,-3.64,-3.64
222.23,-0.23,3.42,-0.23,3.42,-3.42,-3.57,-3.37,-3.64,-3.65,-3.65
224.45,-0.23,3.42,-0.24,3.41,-3.41,-3.54,-3.41,-3.64,-3.65,-3.65
226.70,-0.27,3.38,-0.25,3.40,-3.40,-3.51,-3.46,-3.67,-3.65,-3.65
228.96,-0.27,3.38,-0.26,3.39,-3.39,-3.47,-3.50,-3.65,-3.65,-3.65
231.25,-0.27,3.37,-0.27,3.37,-3.37,-3.43,-3.54,-3.64,-3.64,-3.64
233.57,-0.27,3.37,-0.28,3.37,-3.36,-3.39,-3.57,-3.62,-3.63,-3.64
235.90,-0.31,3.33,-0.29,3.34,-3.34,-3.35,-3.60,-3.64,-3.63,-3.64
238.26,-0.31,3.32,-0.32,3.31,-3.31,-3.31,-3.63,-3.62,-3.63,-3.63
240.64,-0.35,3.27,-0.34,3.28,-3.29,-3.27,-3.65,-3.64,-3.63,-3.62
243.05,-0.36,3.25,-0.35,3.26,-3.27,-3.23,-3.67,-3.62,-3.62,-3.61
245.48,-0.36,3.24,-0.37,3.23,-3.24,-3.18,-3.68,-3.60,-3.61,-3.60
247.93,-0.38,3.21,-0.38,3.22,-3.21,-3.14,-3.69,-3.59,-3.59,-3.59
250.41,-0.40,3.18,-0.39,3.19,-3.18,-3.09,-3.69,-3.58,-3.57,-3.58
252.92,-0.40,3.16,-0.40,3.16,-3.15,-3.05,-3.69,-3.55,-3.56,-3.56
255.45,-0.42,3.12,-0.41,3.13,-3.12,-3.01,-3.68,-3.54,-3.54,-3.54
258.00,-0.44,3.09,-0.43,3.10,-3.09,-2.97,-3.67,-3.53,-3.52,-3.53
260.58,-0.44,3.07,-0.45,3.06,-3.06,-2.92,-3.65,-3.50,-3.51,-3.51
263.19,-0.49,3.00,-0.47,3.02,-3.03,-2.88,-3.63,-3.51,-3.50,-3.49
265.82,-0.49,2.98,-0.48,2.99,-2.99,-2.84,-3.60,-3.48,-3.47,-3.47
268.48,-0.49,2.96,-0.49,2.96,-2.96,-2.81,-3.57,-3.44,-3.45,-3.45
271.16,-0.49,2.94,-0.50,2.93,-2.93,-2.77,-3.54,-3.41,-3.43,-3.43
273.87,-0.53,2.88,-0.51,2.90,-2.90,-2.73,-3.50,-3.42,-3.41,-3.41
276.61,-0.53,2.86,-0.52,2.87,-2.87,-2.70,-3.46,-3.40,-3.39,-3.39
279.38,-0.53,2.84,-0.53,2.84,-2.85,-2.66,-3.41,-3.37,-3.38,-3.37
282.17,-0.53,2.82,-0.53,2.82,-2.83,-2.63,-3.37,-3.35,-3.35,-3.35
284.99,-0.53,2.80,-0.53,2.80,-2.81,-2.60,-3.32,-3.34,-3.34,-3.33
287.84,-0.53,2.78,-0.52,2.79,-2.79,-2.56,-3.27,-3.32,-3.32,-3.31
290.72,-0.53,2.76,-0.51,2.78,-2.78,-2.54,-3.21,-3.31,-3.29,-3.29
293.63,-0.49,2.78,-0.50,2.77,-2.77,-2.51,-3.16,-3.25,-3.27,-3.27
296.57,-0.49,2.76,-0.49,2.76,-2.75,-2.48,-3.11,-3.24,-3.24,-3.25
299.53,-0.49,2.74,-0.48,2.75,-2.74,-2.45,-3.05,-3.22,-3.22,-3.23
302.53,-0.49,2.72,-0.49,2.72,-2.72,-2.43,-3.00,-3.20,-3.20,-3.21
305.55,-0.49,2.69,-0.49,2.70,-2.70,-2.40,-2.94,-3.18,-3.18,-3.18
308.61,-0.49,2.67,-0.49,2.67,-2.67,-2.38,-2.89,-3.16,-3.16,-3.16
311.69,-0.49,2.64,-0.49,2.64,-2.65,-2.36,-2.83,-3.13,-3.13,-3.13
314.81,-0.49,2.61,-0.49,2.62,-2.62,-2.34,-2.78,-3.11,-3.11,-3.10
317.96,-0.49,2.59,-0.49,2.59,-2.60,-2.32,-2.73,-3.08,-3.08,-3.08
321.14,-0.49,2.57,-0.49,2.57,-2.58,-2.30,-2.68,-3.06,-3.06,-3.06
324.35,-0.49,2.55,-0.49,2.55,-2.56,-2.28,-2.63,-3.04,-3.04,-3.04
327.59,-0.49,2.53,-0.49,2.53,-2.54,-2.26,-2.58,-3.02,-3.02,-3.02
330.87,-0.49,2.51,-0.49,2.51,-2.52,-2.25,-2.53,-3.00,-3.00,-3.00
334.18,-0.49,2.49,-0.49,2.49,-2.49,-2.23,-2.48,-2.98,-2.98,-2.98
337.52,-0.49,2.47,-0.48,2.48,-2.47,-2.22,-2.44,-2.96,-2.95,-2.96
340.90,-0.49,2.45,-0.49,2.45,-2.44,-2.20,-2.40,-2.93,-2.93,-2.94
344.30,-0.49,2.43,-0.50,2.42,-2.42,-2.19,-2.36,-2.91,-2.92,-2.92
347.75,-0.52,2.38,-0.51,2.39,-2.39,-2.18,-2.32,-2.91,-2.90,-2.90
351.23,-0.53,2.35,-0.52,2.36,-2.37,-2.16,-2.28,-2.90,-2.89,-2.88
354.74,-0.53,2.33,-0.53,2.34,-2.35,-2.15,-2.24,-2.87,-2.87,-2.86
358.28,-0.53,2.32,-0.53,2.32,-2.32,-2.14,-2.21,-2.85,-2.85,-2.85
361.87,-0.53,2.30,-0.53,2.30,-2.30,-2.13,-2.18,-2.83,-2.83,-2.83
365.49,-0.53,2.28,-0.53,2.29,-2.28,-2.12,-2.15,-2.81,-2.81,-2.81
369.14,-0.53,2.27,-0.53,2.27,-2.27,-2.11,-2.12,-2.80,-2.80,-2.80
372.83,-0.53,2.25,-0.53,2.26,-2.26,-2.10,-2.09,-2.78,-2.78,-2.78
376.56,-0.53,2.24,-0.53,2.24,-2.24,-2.09,-2.07,-2.77,-2.77,-2.77
380.33,-0.53,2.22,-0.53,2.23,-2.23,-2.08,-2.05,-2.75,-2.75,-2.75
384.13,-0.53,2.21,-0.53,2.22,-2.21,-2.08,-2.02,-2.74,-2.74,-2.74
387.97,-0.53,2.20,-0.53,2.20,-2.20,-2.07,-2.00,-2.73,-2.73,-2.73
391.85,-0.53,2.19,-0.53,2.19,-2.19,-2.06,-1.98,-2.72,-2.72,-2.72
395.77,-0.53,2.17,-0.53,2.18,-2.18,-2.05,-1.97,-2.71,-2.71,-2.70
399.73,-0.53,2.16,-0.53,2.17,-2.17,-2.04,-1.95,-2.70,-2.70,-2.69
403.72,-0.53,2.15,-0.53,2.15,-2.16,-2.04,-1.94,-2.68,-2.68,-2.68
407.76,-0.53,2.14,-0.53,2.14,-2.14,-2.03,-1.92,-2.67,-2.67,-2.67
411.84,-0.53,2.13,-0.52,2.14,-2.13,-2.02,-1.91,-2.66,-2.65,-2.66
415.96,-0.53,2.12,-0.53,2.12,-2.11,-2.02,-1.90,-2.64,-2.64,-2.65
420.12,-0.53,2.11,-0.54,2.10,-2.10,-2.01,-1.89,-2.63,-2.64,-2.64
424.32,-0.57,2.06,-0.55,2.08,-2.08,-2.00,-1.88,-2.65,-2.64,-2.63
428.56,-0.57,2.05,-0.56,2.06,-2.06,-2.00,-1.87,-2.63,-2.63,-2.62
432.85,-0.57,2.04,-0.57,2.04,-2.05,-1.99,-1.86,-2.61,-2.62,-2.61
437.18,-0.57,2.03,-0.57,2.02,-2.02,-1.98,-1.86,-2.59,-2.60,-2.60
441.55,-0.59,1.99,-0.58,2.01,-2.00,-1.98,-1.85,-2.59,-2.58,-2.58
445.96,-0.59,1.98,-0.59,1.98,-1.98,-1.97,-1.84,-2.57,-2.57,-2.57
450.42,-0.59,1.97,-0.60,1.96,-1.96,-1.96,-1.83,-2.55,-2.56,-2.56
454.93,-0.62,1.92,-0.60,1.94,-1.94,-1.96,-1.83,-2.55,-2.54,-2.54
459.48,-0.62,1.91,-0.62,1.91,-1.91,-1.95,-1.82,-2.53,-2.53,-2.53
