frequency,raw,error,smoothed,error_smoothed,equalization,parametric_eq,fixed_band_eq,equalized_raw,equalized_smoothed,target
20.00,4.43,-4.77,4.42,-4.78,4.77,4.24,0.61,9.20,9.19,9.20
20.20,4.56,-4.64,4.56,-4.64,4.64,4.16,0.63,9.20,9.20,9.20
20.40,4.69,-4.51,4.69,-4.51,4.51,4.09,0.65,9.20,9.20,9.20
20.61,4.81,-4.39,4.82,-4.38,4.38,4.01,0.67,9.20,9.20,9.20
20.81,4.95,-4.24,4.94,-4.25,4.26,3.94,0.69,9.21,9.20,9.19
21.02,5.07,-4.12,5.06,-4.13,4.14,3.86,0.71,9.20,9.20,9.19
21.23,5.18,-4.01,5.18,-4.01,4.02,3.79,0.74,9.19,9.20,9.19
21.44,5.30,-3.90,5.29,-3.90,3.90,3.71,0.76,9.19,9.19,9.20
21.66,5.40,-3.79,5.41,-3.79,3.78,3.63,0.79,9.19,9.19,9.19
21.87,5.52,-3.67,5.52,-3.67,3.67,3.56,0.81,9.19,9.19,9.19
22.09,5.62,-3.56,5.62,-3.56,3.56,3.48,0.84,9.18,9.18,9.18
22.31,5.73,-3.45,5.73,-3.45,3.45,3.41,0.87,9.18,9.18,9.18
22.54,5.82,-3.35,5.83,-3.34,3.34,3.33,0.89,9.17,9.17,9.17
22.76,5.94,-3.23,5.93,-3.23,3.23,3.26,0.92,9.17,9.16,9.17
22.99,6.04,-3.12,6.04,-3.12,3.12,3.18,0.95,9.16,9.16,9.16
23.22,6.14,-3.01,6.14,-3.01,3.01,3.11,0.98,9.15,9.15,9.15
23.45,6.25,-2.90,6.24,-2.90,2.90,3.03,1.01,9.15,9.15,9.15
23.69,6.34,-2.80,6.34,-2.80,2.80,2.95,1.04,9.15,9.15,9.14
23.92,6.44,-2.69,6.44,-2.69,2.70,2.88,1.08,9.14,9.14,9.13
24.16,6.54,-2.59,6.53,-2.60,2.60,2.80,1.11,9.14,9.14,9.13
24.40,6.62,-2.51,6.62,-2.51,2.51,2.73,1.14,9.13,9.13,9.13
24.65,6.71,-2.42,6.71,-2.43,2.42,2.65,1.17,9.13,9.13,9.13
24.89,6.79,-2.34,6.79,-2.34,2.33,2.58,1.21,9.12,9.12,9.13
25.14,6.87,-2.25,6.87,-2.25,2.25,2.50,1.24,9.12,9.12,9.12
25.39,6.95,-2.16,6.95,-2.17,2.17,2.43,1.27,9.12,9.12,9.11
25.65,7.03,-2.08,7.03,-2.08,2.09,2.35,1.30,9.11,9.12,9.11
25.91,7.10,-2.01,7.11,-2.01,2.01,2.28,1.34,9.11,9.11,9.11
26.16,7.19,-1.93,7.18,-1.93,1.93,2.21,1.37,9.12,9.12,9.12
26.43,7.25,-1.87,7.26,-1.86,1.86,2.13,1.40,9.11,9.12,9.12
26.69,7.34,-1.78,7.33,-1.78,1.78,2.06,1.43,9.12,9.12,9.12
26.96,7.41,-1.70,7.40,-1.71,1.71,1.98,1.46,9.12,9.11,9.11
27.23,7.48,-1.63,7.47,-1.64,1.64,1.91,1.48,9.11,9.11,9.11
27.50,7.54,-1.57,7.54,-1.57,1.57,1.84,1.51,9.11,9.11,9.11
27.77,7.62,-1.50,7.61,-1.50,1.50,1.76,1.53,9.12,9.11,9.12
28.05,7.68,-1.43,7.68,-1.43,1.43,1.69,1.56,9.11,9.11,9.11
28.33,7.74,-1.36,7.74,-1.36,1.36,1.62,1.58,9.10,9.10,9.10
28.62,7.80,-1.29,7.80,-1.30,1.30,1.54,1.59,9.10,9.10,9.09
28.90,7.86,-1.24,7.86,-1.23,1.23,1.47,1.61,9.09,9.09,9.10
29.19,7.93,-1.16,7.92,-1.17,1.17,1.40,1.62,9.09,9.09,9.09
29.48,7.98,-1.10,7.98,-1.10,1.10,1.33,1.63,9.08,9.08,9.08
29.78,8.04,-1.03,8.03,-1.04,1.04,1.26,1.63,9.08,9.08,9.07
30.08,8.09,-0.98,8.09,-0.98,0.98,1.19,1.63,9.07,9.07,9.07
30.38,8.14,-0.92,8.14,-0.92,0.93,1.12,1.63,9.06,9.06,9.06
30.68,8.19,-0.86,8.19,-0.87,0.87,1.04,1.62,9.06,9.06,9.05
30.99,8.24,-0.81,8.24,-0.82,0.82,0.97,1.61,9.05,9.05,9.05
31.30,8.29,-0.76,8.28,-0.77,0.77,0.90,1.59,9.05,9.05,9.05
31.61,8.33,-0.72,8.33,-0.72,0.72,0.83,1.58,9.04,9.04,9.05
31.93,8.38,-0.66,8.38,-0.67,0.67,0.77,1.55,9.04,9.05,9.04
32.24,8.43,-0.62,8.43,-0.62,0.62,0.70,1.53,9.05,9.05,9.05
32.57,8.48,-0.56,8.47,-0.57,0.57,0.63,1.49,9.05,9.05,9.04
32.89,8.52,-0.52,8.52,-0.53,0.53,0.56,1.46,9.04,9.04,9.04
33.22,8.56,-0.48,8.56,-0.48,0.48,0.49,1.42,9.03,9.03,9.04
33.55,8.60,-0.43,8.60,-0.43,0.43,0.43,1.38,9.03,9.03,9.03
33.89,8.64,-0.38,8.64,-0.38,0.38,0.36,1.33,9.02,9.02,9.02
34.23,8.68,-0.32,8.68,-0.33,0.33,0.29,1.29,9.01,9.01,9.00
34.57,8.72,-0.28,8.72,-0.28,0.28,0.23,1.23,9.00,9.00,9.00
34.92,8.76,-0.22,8.75,-0.23,0.23,0.16,1.18,8.99,8.98,8.98
35.27,8.79,-0.18,8.79,-0.18,0.18,0.10,1.12,8.96,8.96,8.97
35.62,8.83,-0.11,8.82,-0.12,0.12,0.03,1.06,8.95,8.94,8.94
35.97,8.85,-0.07,8.85,-0.07,0.06,-0.03,1.00,8.91,8.91,8.92
36.33,8.89,-0.00,8.88,-0.01,0.00,-0.09,0.94,8.89,8.89,8.89
36.70,8.92,0.06,8.91,0.05,-0.05,-0.16,0.87,8.86,8.86,8.86
37.06,8.95,0.12,8.95,0.12,-0.11,-0.22,0.80,8.83,8.83,8.83
37.43,8.98,0.18,8.98,0.18,-0.17,-0.28,0.74,8.80,8.80,8.80
37.81,9.01,0.24,9.00,0.24,-0.24,-0.34,0.67,8.77,8.77,8.77
38.19,9.03,0.30,9.03,0.29,-0.30,-0.40,0.59,8.73,8.73,8.73
38.57,9.06,0.35,9.06,0.35,-0.35,-0.46,0.52,8.70,8.70,8.71
38.95,9.09,0.41,9.08,0.41,-0.41,-0.52,0.45,8.68,8.67,8.68
39.34,9.12,0.48,9.11,0.47,-0.46,-0.58,0.38,8.65,8.65,8.64
39.74,9.14,0.53,9.14,0.52,-0.52,-0.64,0.30,8.62,8.62,8.61
40.14,9.17,0.58,9.16,0.57,-0.57,-0.69,0.23,8.60,8.59,8.59
40.54,9.18,0.61,9.18,0.62,-0.62,-0.75,0.15,8.56,8.56,8.57
40.94,9.21,0.67,9.20,0.67,-0.67,-0.81,0.07,8.54,8.54,8.54
41.35,9.23,0.72,9.22,0.71,-0.71,-0.86,-0.00,8.51,8.51,8.51
41.76,9.25,0.77,9.25,0.76,-0.76,-0.92,-0.08,8.49,8.49,8.48
42.18,9.27,0.80,9.27,0.80,-0.80,-0.97,-0.16,8.46,8.46,8.47
42.60,9.29,0.85,9.29,0.85,-0.85,-1.03,-0.23,8.44,8.44,8.44
43.03,9.31,0.90,9.31,0.89,-0.89,-1.08,-0.31,8.42,8.42,8.41
43.46,9.33,0.94,9.33,0.94,-0.93,-1.13,-0.39,8.39,8.39,8.39
43.90,9.35,0.98,9.34,0.98,-0.97,-1.18,-0.47,8.37,8.37,8.37
44.33,9.36,1.03,9.36,1.02,-1.02,-1.23,-0.55,8.34,8.34,8.33
44.78,9.37,1.06,9.37,1.05,-1.06,-1.28,-0.63,8.31,8.31,8.31
45.23,9.39,1.09,9.38,1.10,-1.10,-1.33,-0.71,8.28,8.28,8.30
45.68,9.40,1.14,9.40,1.14,-1.14,-1.38,-0.79,8.25,8.25,8.26
46.13,9.42,1.21,9.41,1.19,-1.19,-1.43,-0.87,8.23,8.22,8.21
46.60,9.43,1.24,9.43,1.24,-1.24,-1.48,-0.95,8.19,8.19,8.19
47.06,9.44,1.29,9.44,1.29,-1.28,-1.52,-1.03,8.15,8.15,8.15
47.53,9.45,1.33,9.45,1.33,-1.34,-1.57,-1.11,8.11,8.11,8.12
48.01,9.46,1.40,9.46,1.39,-1.39,-1.62,-1.19,8.07,8.07,8.06
48.49,9.47,1.44,9.47,1.44,-1.44,-1.66,-1.27,8.02,8.02,8.03
48.97,9.48,1.50,9.48,1.50,-1.50,-1.71,-1.35,7.98,7.98,7.98
49.46,9.49,1.55,9.49,1.55,-1.56,-1.75,-1.43,7.93,7.93,7.94
49.96,9.50,1.63,9.49,1.61,-1.61,-1.79,-1.52,7.88,7.88,7.87
50.46,9.50,1.67,9.50,1.67,-1.67,-1.84,-1.60,7.83,7.83,7.83
50.96,9.51,1.73,9.51,1.73,-1.72,-1.88,-1.68,7.78,7.79,7.78
51.47,9.52,1.78,9.52,1.78,-1.77,-1.92,-1.76,7.74,7.74,7.74
51.99,9.53,1.84,9.53,1.83,-1.83,-1.96,-1.84,7.70,7.70,7.69
52.51,9.54,1.89,9.53,1.88,-1.88,-2.00,-1.92,7.66,7.65,7.65
53.03,9.54,1.92,9.54,1.93,-1.93,-2.04,-2.00,7.61,7.61,7.62
53.56,9.54,1.97,9.54,1.97,-1.98,-2.08,-2.08,7.56,7.56,7.57
54.10,9.55,2.04,9.54,2.03,-2.03,-2.12,-2.15,7.51,7.51,7.51
54.64,9.55,2.08,9.55,2.09,-2.08,-2.16,-2.23,7.46,7.47,7.47
55.18,9.56,2.15,9.55,2.14,-2.13,-2.20,-2.31,7.42,7.42,7.41
55.74,9.56,2.19,9.56,2.18,-2.18,-2.24,-2.38,7.38,7.38,7.37
56.29,9.56,2.23,9.56,2.23,-2.23,-2.28,-2.45,7.33,7.33,7.33
56.86,9.56,2.27,9.56,2.27,-2.27,-2.32,-2.52,7.29,7.29,7.29
57.42,9.56,2.33,9.56,2.32,-2.31,-2.35,-2.58,7.24,7.24,7.23
58.00,9.56,2.37,9.55,2.36,-2.35,-2.39,-2.65,7.20,7.20,7.19
58.58,9.56,2.40,9.55,2.40,-2.40,-2.43,-2.71,7.16,7.16,7.16
59.16,9.55,2.43,9.55,2.43,-2.44,-2.47,-2.77,7.10,7.11,7.12
59.76,9.56,2.48,9.55,2.48,-2.49,-2.50,-2.82,7.06,7.06,7.08
60.35,9.55,2.54,9.55,2.53,-2.55,-2.54,-2.88,7.00,7.00,7.01
60.96,9.56,2.60,9.55,2.60,-2.60,-2.58,-2.93,6.95,6.95,6.96
61.57,9.55,2.67,9.55,2.66,-2.66,-2.61,-2.97,6.89,6.89,6.88
62.18,9.55,2.73,9.55,2.73,-2.72,-2.65,-3.02,6.83,6.83,6.82
62.80,9.55,2.79,9.54,2.79,-2.78,-2.69,-3.06,6.77,6.76,6.76
63.43,9.54,2.85,9.54,2.84,-2.84,-2.72,-3.09,6.70,6.70,6.69
64.07,9.54,2.90,9.54,2.90,-2.89,-2.76,-3.13,6.65,6.65,6.64
64.71,9.54,2.95,9.53,2.94,-2.94,-2.80,-3.16,6.59,6.59,6.59
65.35,9.53,2.99,9.53,2.99,-2.99,-2.84,-3.18,6.53,6.54,6.54
66.01,9.52,3.04,9.52,3.03,-3.04,-2.87,-3.21,6.48,6.48,6.48
66.67,9.52,3.08,9.51,3.08,-3.09,-2.91,-3.23,6.43,6.43,6.44
67.33,9.51,3.14,9.51,3.13,-3.13,-2.95,-3.25,6.38,6.38,6.37
68.01,9.50,3.18,9.50,3.18,-3.18,-2.99,-3.27,6.32,6.32,6.32
68.69,9.50,3.24,9.49,3.23,-3.22,-3.02,-3.28,6.27,6.27,6.26
69.37,9.48,3.27,9.48,3.27,-3.27,-3.06,-3.30,6.20,6.21,6.21
70.07,9.48,3.32,9.47,3.32,-3.32,-3.10,-3.31,6.15,6.15,6.16
70.77,9.47,3.37,9.46,3.37,-3.37,-3.14,-3.33,6.09,6.09,6.10
71.48,9.46,3.42,9.46,3.42,-3.42,-3.18,-3.34,6.03,6.04,6.04
72.19,9.45,3.48,9.45,3.47,-3.47,-3.22,-3.35,5.98,5.98,5.97
72.91,9.44,3.52,9.44,3.52,-3.52,-3.26,-3.36,5.92,5.92,5.92
73.64,9.43,3.58,9.42,3.57,-3.56,-3.30,-3.37,5.86,5.86,5.85
74.38,9.41,3.62,9.41,3.61,-3.61,-3.34,-3.38,5.80,5.80,5.79
75.12,9.40,3.66,9.40,3.66,-3.66,-3.38,-3.40,5.74,5.74,5.74
75.87,9.39,3.69,9.38,3.69,-3.70,-3.42,-3.41,5.69,5.69,5.70
76.63,9.38,3.74,9.37,3.74,-3.74,-3.46,-3.43,5.64,5.64,5.64
77.40,9.36,3.78,9.36,3.78,-3.78,-3.51,-3.44,5.58,5.58,5.58
78.17,9.35,3.83,9.34,3.81,-3.81,-3.55,-3.46,5.53,5.53,5.52
78.95,9.33,3.84,9.33,3.85,-3.85,-3.59,-3.48,5.48,5.48,5.49
79.74,9.32,3.89,9.31,3.89,-3.88,-3.63,-3.50,5.43,5.43,5.43
80.54,9.30,3.93,9.30,3.92,-3.92,-3.68,-3.53,5.37,5.38,5.37
81.35,9.29,3.96,9.28,3.96,-3.96,-3.72,-3.56,5.33,5.32,5.33
82.16,9.27,3.99,9.27,3.99,-3.99,-3.77,-3.58,5.27,5.27,5.28
82.98,9.25,4.03,9.25,4.03,-4.03,-3.81,-3.62,5.22,5.22,5.22
83.81,9.24,4.07,9.23,4.07,-4.07,-3.86,-3.65,5.17,5.17,5.17
84.65,9.23,4.12,9.22,4.11,-4.10,-3.90,-3.69,5.12,5.12,5.11
85.50,9.20,4.14,9.20,4.14,-4.14,-3.95,-3.73,5.06,5.06,5.06
86.35,9.19,4.18,9.18,4.17,-4.17,-3.99,-3.77,5.01,5.01,5.01
87.22,9.16,4.20,9.16,4.20,-4.21,-4.04,-3.81,4.95,4.95,4.96
88.09,9.15,4.25,9.14,4.24,-4.24,-4.08,-3.86,4.90,4.90,4.90
88.97,9.13,4.28,9.13,4.28,-4.28,-4.13,-3.91,4.85,4.85,4.85
89.86,9.11,4.32,9.11,4.32,-4.31,-4.18,-3.97,4.80,4.80,4.79
90.76,9.09,4.36,9.08,4.35,-4.35,-4.22,-4.03,4.74,4.74,4.73
91.66,9.06,4.38,9.06,4.38,-4.38,-4.27,-4.09,4.67,4.68,4.68
92.58,9.04,4.42,9.04,4.42,-4.42,-4.32,-4.15,4.62,4.62,4.62
93.51,9.02,4.46,9.02,4.45,-4.46,-4.37,-4.21,4.56,4.56,4.56
94.44,9.00,4.50,9.00,4.50,-4.50,-4.41,-4.28,4.49,4.49,4.50
95.39,8.98,4.55,8.97,4.54,-4.55,-4.46,-4.35,4.43,4.43,4.43
96.34,8.95,4.59,8.95,4.59,-4.59,-4.51,-4.43,4.35,4.36,4.36
97.30,8.93,4.63,8.93,4.64,-4.64,-4.56,-4.50,4.29,4.29,4.30
98.28,8.91,4.70,8.90,4.69,-4.68,-4.60,-4.58,4.23,4.22,4.21
99.26,8.88,4.74,8.88,4.73,-4.72,-4.65,-4.66,4.15,4.15,4.14
100.25,8.86,4.78,8.85,4.77,-4.77,-4.70,-4.75,4.09,4.09,4.08
101.25,8.82,4.80,8.82,4.80,-4.80,-4.75,-4.83,4.01,4.02,4.02
102.27,8.80,4.84,8.79,4.84,-4.84,-4.79,-4.92,3.96,3.95,3.96
103.29,8.77,4.88,8.77,4.87,-4.87,-4.84,-5.00,3.89,3.89,3.89
104.32,8.75,4.91,8.74,4.91,-4.91,-4.89,-5.09,3.84,3.84,3.84
105.37,8.72,4.94,8.72,4.94,-4.94,-4.93,-5.18,3.78,3.78,3.78
106.42,8.69,4.97,8.69,4.97,-4.97,-4.98,-5.27,3.72,3.72,3.72
107.48,8.66,5.01,8.66,5.00,-5.00,-5.02,-5.35,3.66,3.66,3.65
108.56,8.63,5.03,8.63,5.03,-5.03,-5.07,-5.44,3.60,3.60,3.60
109.64,8.60,5.05,8.60,5.06,-5.06,-5.11,-5.53,3.54,3.54,3.55
110.74,8.57,5.09,8.57,5.09,-5.09,-5.16,-5.61,3.48,3.48,3.48
111.85,8.55,5.13,8.54,5.12,-5.12,-5.20,-5.69,3.43,3.42,3.42
112.97,8.51,5.15,8.51,5.15,-5.15,-5.25,-5.77,3.36,3.36,3.36
114.10,8.48,5.18,8.47,5.18,-5.18,-5.29,-5.84,3.29,3.29,3.30
115.24,8.44,5.21,8.44,5.21,-5.22,-5.33,-5.91,3.22,3.22,3.23
116.39,8.41,5.26,8.41,5.25,-5.25,-5.37,-5.97,3.15,3.15,3.15
117.55,8.38,5.29,8.37,5.29,-5.29,-5.41,-6.03,3.09,3.09,3.09
118.73,8.34,5.33,8.34,5.33,-5.32,-5.46,-6.09,3.01,3.02,3.01
119.92,8.31,5.37,8.30,5.36,-5.36,-5.49,-6.13,2.95,2.95,2.94
121.12,8.27,5.39,8.27,5.39,-5.39,-5.53,-6.18,2.87,2.88,2.88
122.33,8.24,5.44,8.24,5.43,-5.43,-5.57,-6.21,2.81,2.81,2.80
123.55,8.20,5.46,8.20,5.46,-5.46,-5.61,-6.24,2.73,2.73,2.74
124.79,8.17,5.50,8.16,5.49,-5.50,-5.65,-6.26,2.67,2.66,2.67
126.03,8.12,5.52,8.12,5.53,-5.53,-5.68,-6.27,2.58,2.59,2.60
127.29,8.09,5.58,8.08,5.57,-5.57,-5.72,-6.28,2.51,2.51,2.51
128.57,8.05,5.61,8.04,5.61,-5.61,-5.75,-6.28,2.44,2.44,2.44
129.85,8.01,5.65,8.01,5.65,-5.64,-5.78,-6.27,2.37,2.37,2.36
131.15,7.97,5.68,7.97,5.68,-5.67,-5.81,-6.26,2.29,2.29,2.29
132.46,7.93,5.71,7.93,5.71,-5.70,-5.84,-6.23,2.23,2.23,2.22
133.79,7.89,5.73,7.88,5.73,-5.72,-5.87,-6.21,2.16,2.16,2.16
135.12,7.85,5.76,7.84,5.74,-5.75,-5.90,-6.18,2.10,2.10,2.09
136.48,7.80,5.75,7.80,5.76,-5.76,-5.93,-6.14,2.03,2.04,2.05
137.84,7.77,5.78,7.76,5.77,-5.78,-5.95,-6.10,1.99,1.98,1.99
139.22,7.72,5.80,7.71,5.78,-5.79,-5.98,-6.06,1.93,1.93,1.92
140.61,7.67,5.79,7.67,5.80,-5.79,-6.00,-6.01,1.87,1.88,1.88
142.02,7.63,5.80,7.63,5.80,-5.80,-6.03,-5.97,1.83,1.83,1.83
143.44,7.59,5.82,7.58,5.80,-5.81,-6.05,-5.92,1.78,1.78,1.77
144.87,7.54,5.81,7.54,5.81,-5.81,-6.07,-5.86,1.73,1.73,1.73
146.32,7.49,5.81,7.49,5.81,-5.81,-6.08,-5.81,1.68,1.68,1.68
147.78,7.45,5.82,7.44,5.81,-5.81,-6.10,-5.76,1.64,1.63,1.63
149.26,7.40,5.81,7.39,5.81,-5.81,-6.12,-5.71,1.59,1.58,1.59
150.75,7.34,5.81,7.34,5.81,-5.81,-6.13,-5.66,1.53,1.54,1.53
152.26,7.30,5.80,7.29,5.80,-5.80,-6.15,-5.61,1.49,1.49,1.50
153.78,7.25,5.81,7.24,5.80,-5.80,-6.16,-5.56,1.45,1.45,1.44
155.32,7.20,5.80,7.19,5.79,-5.79,-6.17,-5.51,1.40,1.40,1.40
156.88,7.14,5.79,7.14,5.79,-5.79,-6.18,-5.47,1.34,1.35,1.35
158.44,7.09,5.79,7.09,5.78,-5.79,-6.19,-5.43,1.30,1.30,1.30
160.03,7.04,5.79,7.03,5.78,-5.79,-6.19,-5.39,1.25,1.24,1.25
161.63,6.98,5.78,6.98,5.79,-5.78,-6.20,-5.35,1.19,1.20,1.20
163.24,6.93,5.80,6.93,5.79,-5.78,-6.20,-5.32,1.14,1.14,1.13
164.88,6.88,5.79,6.87,5.79,-5.78,-6.20,-5.29,1.10,1.09,1.09
166.53,6.82,5.79,6.82,5.78,-5.78,-6.21,-5.26,1.04,1.04,1.03
168.19,6.76,5.77,6.76,5.77,-5.78,-6.20,-5.24,0.98,0.98,0.99
169.87,6.71,5.77,6.70,5.77,-5.78,-6.20,-5.22,0.93,0.93,0.94
171.57,6.65,5.78,6.65,5.77,-5.77,-6.20,-5.21,0.87,0.88,0.87
173.29,6.61,5.79,6.60,5.78,-5.77,-6.20,-5.19,0.83,0.83,0.82
175.02,6.55,5.77,6.55,5.77,-5.77,-6.19,-5.19,0.78,0.78,0.78
176.77,6.50,5.77,6.50,5.77,-5.77,-6.18,-5.18,0.73,0.73,0.73
178.54,6.44,5.76,6.44,5.76,-5.76,-6.17,-5.19,0.67,0.68,0.68
180.32,6.40,5.78,6.39,5.76,-5.76,-6.17,-5.19,0.63,0.63,0.62
182.13,6.34,5.76,6.34,5.76,-5.76,-6.15,-5.20,0.58,0.58,0.58
183.95,6.29,5.75,6.29,5.76,-5.76,-6.14,-5.21,0.53,0.53,0.54
185.79,6.25,5.77,6.24,5.75,-5.76,-6.13,-5.23,0.49,0.48,0.48
187.65,6.20,5.76,6.20,5.76,-5.76,-6.11,-5.25,0.44,0.44,0.44
189.52,6.15,5.76,6.15,5.76,-5.76,-6.10,-5.28,0.38,0.39,0.39
191.42,6.11,5.77,6.10,5.76,-5.77,-6.08,-5.30,0.34,0.34,0.34
193.33,6.07,5.78,6.06,5.77,-5.77,-6.06,-5.33,0.29,0.29,0.29
195.27,6.02,5.78,6.02,5.78,-5.78,-6.05,-5.37,0.24,0.24,0.24
197.22,5.99,5.80,5.98,5.79,-5.78,-6.03,-5.41,0.20,0.20,0.19
199.19,5.95,5.79,5.95,5.79,-5.79,-6.01,-5.45,0.16,0.15,0.16
201.18,5.91,5.80,5.91,5.80,-5.80,-5.98,-5.49,0.11,0.12,0.11
203.19,5.89,5.81,5.88,5.80,-5.80,-5.96,-5.53,0.08,0.08,0.08
205.23,5.85,5.81,5.85,5.81,-5.81,-5.94,-5.58,0.04,0.04,0.04
207.28,5.82,5.81,5.81,5.81,-5.81,-5.91,-5.63,0.01,0.00,0.01
209.35,5.78,5.81,5.78,5.81,-5.81,-5.89,-5.68,-0.04,-0.04,-0.03
211.44,5.75,5.82,5.75,5.82,-5.82,-5.86,-5.72,-0.07,-0.07,-0.07
213.56,5.72,5.83,5.71,5.82,-5.82,-5.83,-5.77,-0.10,-0.11,-0.11
215.69,5.68,5.82,5.68,5.82,-5.82,-5.81,-5.82,-0.14,-0.14,-0.14
217.85,5.65,5.82,5.64,5.82,-5.81,-5.78,-5.87,-0.17,-0.17,-0.17
220.03,5.61,5.82,5.61,5.81,-5.81,-5.75,-5.92,-0.20,-0.20,-0.21
222.23,5.57,5.80,5.56,5.80,-5.80,-5.72,-5.96,-0.23,-0.23,-0.23
224.45,5.52,5.78,5.52,5.78,-5.78,-5.69,-6.01,-0.27,-0.26,-0.26
226.70,5.48,5.77,5.48,5.76,-5.77,-5.66,-6.04,-0.29,-0.29,-0.29
228.96,5.44,5.75,5.43,5.74,-5.75,-5.63,-6.08,-0.31,-0.31,-0.31
231.25,5.40,5.73,5.39,5.72,-5.73,-5.59,-6.11,-0.33,-0.34,-0.33
233.57,5.34,5.70,5.34,5.71,-5.70,-5.56,-6.14,-0.37,-0.36,-0.36
235.90,5.30,5.69,5.29,5.68,-5.68,-5.53,-6.15,-0.38,-0.39,-0.39
238.26,5.25,5.67,5.25,5.65,-5.66,-5.50,-6.17,-0.41,-0.41,-0.42
240.64,5.20,5.62,5.20,5.63,-5.63,-5.46,-6.17,-0.43,-0.43,-0.42
243.05,5.16,5.60,5.15,5.60,-5.60,-5.43,-6.18,-0.44,-0.45,-0.44
245.48,5.11,5.58,5.11,5.57,-5.57,-5.40,-6.17,-0.46,-0.46,-0.47
247.93,5.06,5.55,5.06,5.54,-5.54,-5.36,-6.15,-0.48,-0.48,-0.49
250.41,5.02,5.51,5.01,5.51,-5.50,-5.33,-6.13,-0.48,-0.49,-0.49
252.92,4.96,5.46,4.96,5.46,-5.46,-5.29,-6.10,-0.51,-0.50,-0.50
255.45,4.91,5.43,4.90,5.42,-5.42,-5.26,-6.06,-0.52,-0.52,-0.52
258.00,4.85,5.38,4.85,5.38,-5.38,-5.22,-6.02,-0.54,-0.54,-0.53
260.58,4.80,5.34,4.80,5.34,-5.34,-5.18,-5.96,-0.55,-0.55,-0.54
263.19,4.75,5.31,4.75,5.30,-5.30,-5.15,-5.90,-0.56,-0.56,-0.56
265.82,4.70,5.27,4.69,5.26,-5.26,-5.11,-5.83,-0.56,-0.57,-0.57
268.48,4.64,5.22,4.64,5.22,-5.22,-5.07,-5.76,-0.58,-0.58,-0.58
271.16,4.58,5.18,4.58,5.17,-5.17,-5.03,-5.68,-0.60,-0.60,-0.60
273.87,4.52,5.13,4.52,5.13,-5.13,-4.98,-5.60,-0.61,-0.61,-0.61
276.61,4.46,5.09,4.45,5.09,-5.08,-4.94,-5.51,-0.62,-0.63,-0.63
279.38,4.39,5.04,4.39,5.04,-5.03,-4.89,-5.42,-0.64,-0.64,-0.65
282.17,4.33,4.99,4.33,4.98,-4.98,-4.85,-5.32,-0.65,-0.65,-0.66
284.99,4.27,4.92,4.26,4.92,-4.93,-4.80,-5.22,-0.66,-0.66,-0.65
287.84,4.20,4.86,4.20,4.87,-4.87,-4.75,-5.12,-0.67,-0.67,-0.66
290.72,4.14,4.83,4.14,4.81,-4.81,-4.69,-5.01,-0.68,-0.68,-0.69
293.63,4.08,4.76,4.07,4.76,-4.75,-4.64,-4.91,-0.68,-0.68,-0.68
296.57,4.01,4.70,4.01,4.70,-4.69,-4.59,-4.80,-0.69,-0.69,-0.69
299.53,3.94,4.64,3.94,4.63,-4.63,-4.53,-4.69,-0.70,-0.70,-0.70
302.53,3.87,4.57,3.87,4.57,-4.57,-4.47,-4.58,-0.71,-0.71,-0.70
305.55,3.81,4.52,3.80,4.51,-4.51,-4.41,-4.48,-0.71,-0.71,-0.71
308.61,3.73,4.44,3.73,4.45,-4.45,-4.36,-4.37,-0.72,-0.71,-0.71
311.69,3.67,4.39,3.67,4.38,-4.38,-4.30,-4.26,-0.72,-0.72,-0.72
314.81,3.61,4.33,3.60,4.32,-4.32,-4.24,-4.16,-0.71,-0.72,-0.72
317.96,3.53,4.26,3.53,4.26,-4.25,-4.18,-4.05,-0.73,-0.72,-0.73
321.14,3.47,4.19,3.46,4.19,-4.19,-4.12,-3.95,-0.72,-0.73,-0.72
324.35,3.40,4.14,3.39,4.12,-4.13,-4.06,-3.85,-0.73,-0.73,-0.74
327.59,3.33,4.05,3.33,4.06,-4.06,-4.00,-3.75,-0.73,-0.73,-0.72
330.87,3.26,3.99,3.26,3.99,-3.99,-3.94,-3.66,-0.74,-0.73,-0.73
334.18,3.20,3.94,3.19,3.93,-3.93,-3.88,-3.56,-0.73,-0.73,-0.74
337.52,3.13,3.86,3.13,3.87,-3.86,-3.82,-3.47,-0.73,-0.73,-0.73
340.90,3.07,3.81,3.06,3.79,-3.79,-3.76,-3.38,-0.73,-0.73,-0.74
344.30,2.99,3.72,2.99,3.72,-3.73,-3.70,-3.29,-0.74,-0.73,-0.73
347.75,2.93,3.65,2.93,3.66,-3.66,-3.64,-3.20,-0.73,-0.73,-0.72
351.23,2.87,3.61,2.86,3.59,-3.59,-3.58,-3.12,-0.72,-0.73,-0.74
354.74,2.80,3.52,2.80,3.53,-3.52,-3.53,-3.04,-0.73,-0.73,-0.72
358.28,2.73,3.46,2.73,3.46,-3.46,-3.47,-2.96,-0.73,-0.73,-0.73
361.87,2.67,3.40,2.66,3.39,-3.39,-3.41,-2.89,-0.72,-0.73,-0.73
365.49,2.60,3.33,2.60,3.32,-3.32,-3.36,-2.81,-0.73,-0.73,-0.73
369.14,2.53,3.25,2.53,3.25,-3.26,-3.30,-2.74,-0.73,-0.73,-0.72
372.83,2.47,3.19,2.46,3.19,-3.19,-3.24,-2.67,-0.72,-0.73,-0.72
376.56,2.40,3.13,2.40,3.13,-3.12,-3.19,-2.60,-0.73,-0.72,-0.73
380.33,2.34,3.07,2.33,3.06,-3.06,-3.13,-2.54,-0.72,-0.72,-0.73
384.13,2.27,3.00,2.26,2.99,-2.99,-3.07,-2.47,-0.73,-0.73,-0.73
387.97,2.20,2.92,2.20,2.92,-2.93,-3.02,-2.41,-0.73,-0.73,-0.72
391.85,2.13,2.86,2.13,2.86,-2.86,-2.96,-2.35,-0.73,-0.73,-0.73
395.77,2.07,2.80,2.07,2.79,-2.79,-2.91,-2.30,-0.73,-0.73,-0.73
399.73,2.01,2.74,2.00,2.73,-2.73,-2.85,-2.24,-0.72,-0.72,-0.73
403.72,1.94,2.66,1.94,2.66,-2.66,-2.80,-2.19,-0.73,-0.72,-0.72
407.76,1.88,2.60,1.87,2.59,-2.60,-2.74,-2.14,-0.72,-0.72,-0.72
411.84,1.81,2.53,1.81,2.53,-2.53,-2.69,-2.08,-0.73,-0.72,-0.72
415.96,1.75,2.47,1.74,2.47,-2.47,-2.63,-2.04,-0.72,-0.72,-0.72
420.12,1.68,2.41,1.68,2.40,-2.40,-2.58,-1.99,-0.73,-0.73,-0.73
424.32,1.62,2.35,1.62,2.34,-2.34,-2.52,-1.94,-0.73,-0.72,-0.73
428.56,1.56,2.28,1.55,2.28,-2.28,-2.47,-1.90,-0.72,-0.73,-0.72
432.85,1.50,2.22,1.49,2.22,-2.22,-2.42,-1.85,-0.72,-0.73,-0.72
437.18,1.43,2.16,1.43,2.16,-2.16,-2.36,-1.81,-0.73,-0.73,-0.73
441.55,1.37,2.10,1.37,2.10,-2.10,-2.31,-1.76,-0.73,-0.73,-0.73
445.96,1.31,2.05,1.30,2.04,-2.04,-2.25,-1.72,-0.73,-0.73,-0.74
450.42,1.24,1.98,1.24,1.98,-1.97,-2.20,-1.68,-0.74,-0.73,-0.74
454.93,1.18,1.92,1.18,1.92,-1.91,-2.14,-1.64,-0.74,-0.74,-0.74
459.48,1.12,1.86,1.11,1.85,-1.85,-2.09,-1.60,-0.73,-0.74,-0.74
464.07,1.05,1.78,1.05,1.79,-1.79,-2.03,-1.56,-0.74,-0.73,-0.73
468.71,1.00,1.73,0.99,1.72,-1.73,-1.98,-1.52,-0.73,-0.73,-0.73
473.40,0.94,1.67,0.93,1.66,-1.66,-1.92,-1.48,-0.73,-0.73,-0.73
478.13,0.87,1.60,0.87,1.60,-1.60,-1.86,-1.44,-0.74,-0.73,-0.73
482.91,0.82,1.55,0.81,1.54,-1.54,-1.81,-1.40,-0.73,-0.73,-0.73
487.74,0.76,1.49,0.75,1.48,-1.48,-1.75,-1.36,-0.73,-0.73,-0.73
492.62,0.70,1.43,0.70,1.43,-1.42,-1.70,-1.32,-0.73,-0.73,-0.73
497.55,0.64,1.37,0.64,1.36,-1.36,-1.64,-1.28,-0.73,-0.73,-0.73
502.52,0.58,1.31,0.58,1.31,-1.30,-1.58,-1.24,-0.73,-0.72,-0.73
507.55,0.52,1.24,0.52,1.24,-1.24,-1.52,-1.20,-0.72,-0.72,-0.72
512.62,0.47,1.19,0.46,1.17,-1.18,-1.46,-1.16,-0.71,-0.72,-0.72
517.75,0.41,1.11,0.40,1.11,-1.12,-1.40,-1.12,-0.71,-0.71,-0.70
522.93,0.34,1.04,0.35,1.05,-1.05,-1.34,-1.08,-0.72,-0.70,-0.70
528.16,0.30,1.00,0.29,0.99,-0.99,-1.28,-1.04,-0.69,-0.70,-0.70
