frequency,raw,error,smoothed,error_smoothed,equalization,parametric_eq,fixed_band_eq,equalized_raw,equalized_smoothed,target
20.00,-0.36,-2.59,-0.34,-2.60,2.60,2.33,0.83,2.24,2.26,2.23
20.20,-0.32,-2.60,-0.31,-2.60,2.60,2.33,0.85,2.28,2.30,2.28
20.40,-0.28,-2.61,-0.27,-2.61,2.61,2.33,0.88,2.32,2.33,2.33
20.61,-0.24,-2.60,-0.24,-2.61,2.61,2.32,0.90,2.36,2.36,2.36
20.81,-0.21,-2.62,-0.21,-2.60,2.60,2.32,0.93,2.39,2.40,2.41
21.02,-0.17,-2.62,-0.18,-2.60,2.60,2.32,0.95,2.43,2.42,2.45
21.23,-0.13,-2.60,-0.15,-2.60,2.60,2.31,0.98,2.46,2.45,2.47
21.44,-0.09,-2.58,-0.12,-2.59,2.59,2.31,1.01,2.50,2.47,2.49
21.66,-0.05,-2.56,-0.08,-2.58,2.58,2.31,1.04,2.53,2.49,2.51
21.87,-0.01,-2.53,-0.05,-2.57,2.57,2.30,1.07,2.55,2.51,2.52
22.09,0.01,-2.53,-0.03,-2.55,2.55,2.30,1.10,2.56,2.53,2.54
22.31,0.02,-2.53,0.00,-2.54,2.54,2.30,1.13,2.55,2.54,2.55
22.54,0.02,-2.53,0.03,-2.52,2.52,2.29,1.16,2.53,2.55,2.55
22.76,0.03,-2.52,0.06,-2.49,2.49,2.29,1.19,2.52,2.55,2.55
22.99,0.03,-2.51,0.08,-2.47,2.47,2.28,1.22,2.50,2.55,2.54
23.22,0.07,-2.47,0.11,-2.44,2.44,2.28,1.26,2.51,2.55,2.54
23.45,0.12,-2.42,0.14,-2.42,2.42,2.28,1.29,2.54,2.55,2.54
23.69,0.16,-2.39,0.16,-2.39,2.39,2.27,1.33,2.55,2.55,2.55
23.92,0.21,-2.34,0.19,-2.36,2.36,2.27,1.36,2.57,2.55,2.55
24.16,0.24,-2.31,0.22,-2.33,2.33,2.26,1.40,2.57,2.55,2.55
24.40,0.26,-2.30,0.25,-2.30,2.30,2.26,1.44,2.56,2.55,2.56
24.65,0.29,-2.26,0.27,-2.28,2.28,2.26,1.48,2.56,2.55,2.55
24.89,0.31,-2.24,0.30,-2.25,2.25,2.25,1.52,2.56,2.55,2.55
25.14,0.33,-2.22,0.33,-2.23,2.23,2.25,1.55,2.56,2.55,2.55
25.39,0.36,-2.20,0.35,-2.21,2.21,2.24,1.59,2.56,2.55,2.56
25.65,0.38,-2.18,0.37,-2.19,2.19,2.24,1.63,2.56,2.55,2.56
25.91,0.40,-2.15,0.39,-2.17,2.17,2.23,1.67,2.57,2.55,2.55
26.16,0.41,-2.14,0.40,-2.15,2.15,2.23,1.71,2.56,2.55,2.55
26.43,0.41,-2.14,0.41,-2.14,2.14,2.23,1.75,2.55,2.55,2.55
26.69,0.41,-2.14,0.42,-2.13,2.13,2.22,1.79,2.53,2.55,2.55
26.96,0.41,-2.14,0.44,-2.11,2.11,2.22,1.83,2.52,2.55,2.55
27.23,0.43,-2.12,0.45,-2.10,2.10,2.21,1.87,2.53,2.55,2.55
27.50,0.46,-2.09,0.46,-2.08,2.08,2.21,1.91,2.54,2.54,2.55
27.77,0.49,-2.05,0.48,-2.07,2.07,2.21,1.95,2.56,2.54,2.54
28.05,0.51,-2.03,0.49,-2.05,2.05,2.20,1.98,2.56,2.54,2.54
28.33,0.51,-2.02,0.50,-2.04,2.04,2.20,2.02,2.54,2.54,2.53
28.62,0.51,-2.02,0.52,-2.02,2.02,2.19,2.05,2.53,2.54,2.53
28.90,0.51,-2.03,0.53,-2.00,2.00,2.19,2.09,2.51,2.54,2.54
29.19,0.53,-2.00,0.55,-1.99,1.99,2.19,2.12,2.52,2.54,2.53
29.48,0.56,-1.98,0.56,-1.97,1.97,2.18,2.15,2.53,2.53,2.54
29.78,0.59,-1.94,0.57,-1.96,1.96,2.18,2.18,2.55,2.53,2.53
30.08,0.61,-1.93,0.58,-1.95,1.95,2.18,2.20,2.55,2.53,2.54
30.38,0.61,-1.92,0.59,-1.94,1.94,2.17,2.23,2.55,2.53,2.53
30.68,0.61,-1.92,0.60,-1.93,1.93,2.17,2.25,2.54,2.53,2.53
30.99,0.61,-1.92,0.60,-1.92,1.92,2.17,2.27,2.53,2.53,2.53
31.30,0.61,-1.91,0.61,-1.92,1.92,2.16,2.29,2.52,2.52,2.52
31.61,0.61,-1.91,0.61,-1.91,1.91,2.16,2.31,2.52,2.52,2.52
31.93,0.61,-1.91,0.61,-1.90,1.90,2.16,2.32,2.51,2.52,2.52
32.24,0.61,-1.90,0.62,-1.90,1.90,2.15,2.33,2.51,2.51,2.51
32.57,0.61,-1.90,0.61,-1.90,1.90,2.15,2.35,2.50,2.51,2.51
32.89,0.61,-1.90,0.61,-1.89,1.89,2.15,2.36,2.50,2.50,2.51
33.22,0.61,-1.89,0.61,-1.89,1.89,2.15,2.36,2.50,2.50,2.50
33.55,0.61,-1.89,0.61,-1.88,1.88,2.14,2.37,2.49,2.50,2.50
33.89,0.61,-1.88,0.61,-1.88,1.88,2.14,2.38,2.49,2.49,2.49
34.23,0.61,-1.88,0.62,-1.87,1.87,2.14,2.38,2.48,2.49,2.49
34.57,0.61,-1.87,0.62,-1.87,1.87,2.14,2.38,2.48,2.48,2.48
34.92,0.61,-1.87,0.61,-1.87,1.87,2.14,2.39,2.47,2.48,2.48
35.27,0.61,-1.86,0.61,-1.86,1.86,2.13,2.39,2.47,2.47,2.47
35.62,0.61,-1.86,0.61,-1.86,1.86,2.13,2.39,2.47,2.47,2.47
35.97,0.61,-1.86,0.60,-1.87,1.87,2.13,2.39,2.48,2.47,2.47
36.33,0.61,-1.86,0.60,-1.87,1.87,2.13,2.39,2.48,2.47,2.47
36.70,0.61,-1.85,0.58,-1.88,1.88,2.13,2.40,2.49,2.47,2.46
37.06,0.60,-1.86,0.57,-1.90,1.90,2.13,2.40,2.49,2.47,2.46
37.43,0.57,-1.90,0.56,-1.91,1.91,2.13,2.40,2.48,2.47,2.47
37.81,0.53,-1.94,0.54,-1.93,1.93,2.13,2.41,2.46,2.47,2.47
38.19,0.51,-1.95,0.53,-1.94,1.94,2.14,2.41,2.45,2.47,2.46
38.57,0.51,-1.96,0.51,-1.96,1.96,2.14,2.42,2.47,2.47,2.47
38.95,0.51,-1.97,0.50,-1.97,1.97,2.14,2.42,2.48,2.47,2.48
39.34,0.48,-1.99,0.48,-1.99,1.99,2.14,2.43,2.47,2.47,2.47
39.74,0.44,-2.03,0.47,-2.00,2.00,2.14,2.44,2.44,2.47,2.47
40.14,0.41,-2.06,0.45,-2.02,2.02,2.15,2.45,2.43,2.47,2.47
40.54,0.41,-2.06,0.43,-2.04,2.04,2.15,2.47,2.45,2.47,2.47
40.94,0.41,-2.05,0.41,-2.05,2.05,2.15,2.48,2.46,2.46,2.46
41.35,0.41,-2.05,0.40,-2.06,2.06,2.16,2.50,2.47,2.46,2.46
41.76,0.41,-2.04,0.38,-2.07,2.07,2.16,2.52,2.48,2.45,2.45
42.18,0.40,-2.05,0.36,-2.08,2.08,2.17,2.54,2.48,2.44,2.45
42.60,0.37,-2.07,0.34,-2.09,2.09,2.18,2.56,2.46,2.43,2.44
43.03,0.34,-2.09,0.32,-2.10,2.10,2.18,2.58,2.44,2.42,2.43
43.46,0.28,-2.14,0.30,-2.11,2.11,2.19,2.61,2.39,2.41,2.42
43.90,0.23,-2.17,0.27,-2.13,2.13,2.20,2.64,2.36,2.40,2.40
44.33,0.22,-2.16,0.24,-2.14,2.14,2.21,2.67,2.36,2.39,2.38
44.78,0.22,-2.14,0.21,-2.16,2.16,2.22,2.70,2.38,2.37,2.36
45.23,0.20,-2.15,0.18,-2.18,2.18,2.23,2.74,2.38,2.36,2.35
45.68,0.15,-2.19,0.15,-2.20,2.20,2.24,2.77,2.35,2.35,2.34
46.13,0.11,-2.21,0.11,-2.22,2.22,2.25,2.81,2.33,2.33,2.32
46.60,0.08,-2.24,0.07,-2.24,2.24,2.26,2.85,2.32,2.32,2.32
47.06,0.04,-2.26,0.04,-2.27,2.27,2.28,2.89,2.30,2.30,2.30
47.53,-0.01,-2.30,-0.00,-2.29,2.29,2.29,2.94,2.28,2.29,2.29
48.01,-0.07,-2.36,-0.04,-2.31,2.31,2.30,2.98,2.24,2.27,2.29
48.49,-0.07,-2.34,-0.07,-2.33,2.33,2.32,3.03,2.26,2.26,2.27
48.97,-0.07,-2.32,-0.12,-2.37,2.37,2.34,3.08,2.29,2.25,2.25
49.46,-0.16,-2.39,-0.17,-2.40,2.40,2.36,3.13,2.24,2.23,2.23
49.96,-0.25,-2.46,-0.22,-2.44,2.44,2.37,3.18,2.19,2.22,2.21
50.46,-0.28,-2.48,-0.27,-2.48,2.48,2.39,3.24,2.20,2.21,2.20
50.96,-0.30,-2.49,-0.33,-2.52,2.52,2.42,3.29,2.22,2.19,2.19
51.47,-0.36,-2.53,-0.38,-2.56,2.56,2.44,3.35,2.20,2.18,2.17
51.99,-0.42,-2.58,-0.43,-2.60,2.60,2.46,3.40,2.18,2.17,2.16
52.51,-0.48,-2.63,-0.49,-2.64,2.64,2.49,3.46,2.16,2.15,2.15
53.03,-0.55,-2.70,-0.54,-2.69,2.69,2.51,3.51,2.13,2.14,2.15
53.56,-0.64,-2.77,-0.60,-2.73,2.73,2.54,3.57,2.09,2.13,2.13
54.10,-0.71,-2.83,-0.66,-2.78,2.78,2.57,3.62,2.07,2.12,2.12
54.64,-0.73,-2.83,-0.72,-2.83,2.83,2.60,3.68,2.10,2.11,2.10
55.18,-0.77,-2.87,-0.78,-2.87,2.87,2.63,3.73,2.10,2.10,2.10
55.74,-0.84,-2.92,-0.83,-2.92,2.92,2.66,3.78,2.08,2.09,2.08
56.29,-0.89,-2.96,-0.90,-2.97,2.97,2.69,3.83,2.08,2.07,2.07
56.86,-0.92,-2.98,-0.96,-3.02,3.02,2.73,3.87,2.10,2.06,2.06
57.42,-1.00,-3.03,-1.03,-3.07,3.07,2.77,3.91,2.06,2.04,2.03
58.00,-1.10,-3.12,-1.10,-3.12,3.12,2.80,3.95,2.02,2.02,2.02
58.58,-1.16,-3.17,-1.17,-3.17,3.17,2.84,3.99,2.01,2.00,2.01
59.16,-1.22,-3.21,-1.24,-3.22,3.22,2.89,4.02,1.99,1.97,1.99
59.76,-1.31,-3.28,-1.31,-3.26,3.26,2.93,4.05,1.95,1.95,1.97
60.35,-1.39,-3.32,-1.39,-3.31,3.31,2.97,4.07,1.92,1.92,1.93
60.96,-1.45,-3.34,-1.48,-3.36,3.36,3.02,4.09,1.91,1.88,1.89
61.57,-1.57,-3.42,-1.57,-3.41,3.41,3.07,4.11,1.84,1.85,1.85
62.18,-1.68,-3.49,-1.65,-3.46,3.46,3.12,4.12,1.78,1.81,1.81
62.80,-1.76,-3.52,-1.74,-3.51,3.51,3.17,4.12,1.75,1.77,1.76
63.43,-1.85,-3.57,-1.83,-3.56,3.56,3.22,4.13,1.70,1.73,1.72
64.07,-1.94,-3.61,-1.92,-3.60,3.60,3.28,4.12,1.66,1.68,1.67
64.71,-1.98,-3.61,-2.00,-3.64,3.64,3.33,4.11,1.66,1.64,1.63
65.35,-2.05,-3.64,-2.09,-3.68,3.68,3.39,4.10,1.63,1.59,1.59
66.01,-2.14,-3.68,-2.17,-3.72,3.72,3.45,4.08,1.58,1.54,1.54
66.67,-2.30,-3.79,-2.26,-3.76,3.76,3.51,4.06,1.45,1.49,1.49
67.33,-2.41,-3.85,-2.35,-3.80,3.80,3.58,4.04,1.39,1.45,1.44
68.01,-2.46,-3.86,-2.44,-3.84,3.84,3.64,4.01,1.38,1.40,1.40
68.69,-2.50,-3.85,-2.53,-3.88,3.88,3.71,3.98,1.37,1.35,1.35
69.37,-2.57,-3.87,-2.61,-3.91,3.91,3.78,3.94,1.34,1.30,1.30
70.07,-2.66,-3.91,-2.70,-3.95,3.95,3.84,3.91,1.29,1.24,1.25
70.77,-2.80,-4.00,-2.79,-3.98,3.98,3.92,3.87,1.18,1.19,1.20
71.48,-2.90,-4.05,-2.89,-4.02,4.02,3.99,3.83,1.12,1.14,1.15
72.19,-2.99,-4.07,-2.98,-4.06,4.06,4.06,3.79,1.07,1.08,1.08
72.91,-3.09,-4.11,-3.08,-4.11,4.11,4.13,3.75,1.01,1.02,1.02
73.64,-3.20,-4.17,-3.18,-4.15,4.15,4.21,3.71,0.95,0.97,0.97
74.38,-3.29,-4.20,-3.28,-4.19,4.19,4.28,3.67,0.90,0.91,0.91
75.12,-3.36,-4.21,-3.38,-4.24,4.24,4.36,3.63,0.87,0.86,0.85
75.87,-3.43,-4.22,-3.49,-4.29,4.29,4.43,3.59,0.86,0.80,0.79
76.63,-3.55,-4.29,-3.59,-4.34,4.34,4.51,3.55,0.79,0.75,0.74
77.40,-3.68,-4.37,-3.69,-4.38,4.38,4.58,3.51,0.70,0.69,0.69
78.17,-3.81,-4.44,-3.79,-4.42,4.42,4.66,3.47,0.61,0.64,0.63
78.95,-3.92,-4.51,-3.88,-4.47,4.47,4.73,3.43,0.55,0.59,0.59
79.74,-4.05,-4.59,-3.99,-4.53,4.53,4.80,3.40,0.48,0.54,0.54
80.54,-4.11,-4.60,-4.09,-4.58,4.58,4.87,3.37,0.47,0.49,0.49
81.35,-4.17,-4.61,-4.19,-4.63,4.63,4.94,3.34,0.46,0.44,0.44
82.16,-4.27,-4.66,-4.29,-4.68,4.68,5.01,3.31,0.41,0.39,0.39
82.98,-4.36,-4.71,-4.39,-4.73,4.73,5.07,3.28,0.37,0.35,0.35
83.81,-4.45,-4.75,-4.48,-4.78,4.78,5.13,3.26,0.33,0.30,0.30
84.65,-4.52,-4.77,-4.57,-4.82,4.82,5.19,3.24,0.30,0.25,0.25
85.50,-4.62,-4.83,-4.65,-4.85,4.85,5.24,3.22,0.23,0.20,0.21
86.35,-4.78,-4.94,-4.73,-4.88,4.88,5.29,3.20,0.10,0.15,0.16
87.22,-4.91,-5.02,-4.80,-4.91,4.91,5.33,3.19,-0.00,0.10,0.11
88.09,-4.93,-4.99,-4.88,-4.94,4.94,5.37,3.18,0.00,0.05,0.06
88.97,-4.90,-4.90,-4.97,-4.97,4.97,5.40,3.17,0.07,0.00,-0.00
89.86,-5.02,-4.97,-5.05,-5.00,5.00,5.42,3.16,-0.02,-0.05,-0.05
90.76,-5.16,-5.06,-5.13,-5.03,5.03,5.44,3.16,-0.13,-0.10,-0.10
91.66,-5.16,-5.01,-5.20,-5.05,5.05,5.45,3.16,-0.11,-0.15,-0.15
92.58,-5.21,-5.00,-5.26,-5.06,5.06,5.45,3.16,-0.15,-0.20,-0.21
93.51,-5.29,-5.03,-5.32,-5.07,5.07,5.45,3.16,-0.22,-0.25,-0.26
94.44,-5.34,-5.04,-5.39,-5.09,5.09,5.43,3.17,-0.26,-0.30,-0.30
95.39,-5.42,-5.07,-5.45,-5.10,5.10,5.41,3.18,-0.33,-0.35,-0.35
96.34,-5.55,-5.15,-5.49,-5.09,5.09,5.38,3.19,-0.46,-0.40,-0.40
97.30,-5.63,-5.18,-5.54,-5.09,5.09,5.34,3.20,-0.54,-0.45,-0.45
98.28,-5.60,-5.10,-5.58,-5.08,5.08,5.30,3.21,-0.52,-0.50,-0.50
99.26,-5.59,-5.05,-5.60,-5.06,5.06,5.24,3.23,-0.53,-0.54,-0.54
100.25,-5.61,-5.02,-5.62,-5.03,5.03,5.18,3.24,-0.58,-0.59,-0.59
101.25,-5.63,-4.99,-5.64,-5.00,5.00,5.11,3.26,-0.63,-0.64,-0.64
102.27,-5.65,-4.96,-5.65,-4.96,4.96,5.03,3.28,-0.69,-0.69,-0.69
103.29,-5.70,-4.96,-5.64,-4.90,4.90,4.95,3.30,-0.80,-0.74,-0.74
104.32,-5.71,-4.93,-5.63,-4.84,4.84,4.86,3.32,-0.87,-0.79,-0.78
105.37,-5.57,-4.74,-5.62,-4.78,4.78,4.76,3.34,-0.79,-0.84,-0.83
106.42,-5.47,-4.59,-5.60,-4.71,4.71,4.66,3.36,-0.76,-0.89,-0.88
107.48,-5.53,-4.59,-5.56,-4.62,4.62,4.55,3.38,-0.91,-0.94,-0.94
108.56,-5.49,-4.50,-5.53,-4.54,4.54,4.44,3.39,-0.95,-0.99,-0.99
109.64,-5.50,-4.46,-5.49,-4.45,4.45,4.32,3.41,-1.05,-1.05,-1.04
110.74,-5.52,-4.42,-5.44,-4.34,4.34,4.20,3.42,-1.18,-1.10,-1.10
111.85,-5.37,-4.23,-5.38,-4.23,4.23,4.08,3.44,-1.14,-1.15,-1.14
112.97,-5.24,-4.04,-5.31,-4.12,4.12,3.95,3.45,-1.12,-1.20,-1.20
114.10,-5.32,-4.07,-5.24,-4.00,4.00,3.82,3.45,-1.33,-1.25,-1.25
115.24,-5.30,-4.00,-5.16,-3.87,3.87,3.69,3.45,-1.43,-1.29,-1.30
116.39,-5.10,-3.75,-5.07,-3.73,3.73,3.56,3.45,-1.37,-1.34,-1.35
117.55,-4.89,-3.50,-4.97,-3.59,3.59,3.42,3.45,-1.30,-1.38,-1.39
118.73,-4.82,-3.39,-4.86,-3.44,3.44,3.29,3.44,-1.38,-1.42,-1.43
119.92,-4.77,-3.31,-4.73,-3.27,3.27,3.15,3.42,-1.50,-1.46,-1.46
121.12,-4.58,-3.08,-4.59,-3.10,3.10,3.02,3.40,-1.48,-1.49,-1.50
122.33,-4.47,-2.94,-4.45,-2.92,2.92,2.88,3.38,-1.55,-1.53,-1.53
123.55,-4.38,-2.82,-4.31,-2.75,2.75,2.75,3.35,-1.63,-1.56,-1.56
124.79,-4.24,-2.65,-4.18,-2.58,2.58,2.61,3.31,-1.66,-1.59,-1.59
126.03,-4.05,-2.43,-4.04,-2.42,2.42,2.48,3.27,-1.63,-1.62,-1.62
127.29,-3.86,-2.22,-3.90,-2.25,2.25,2.34,3.22,-1.61,-1.65,-1.64
128.57,-3.66,-1.98,-3.77,-2.08,2.08,2.21,3.16,-1.58,-1.68,-1.68
129.85,-3.62,-1.91,-3.65,-1.94,1.94,2.08,3.10,-1.68,-1.71,-1.71
131.15,-3.52,-1.78,-3.54,-1.80,1.80,1.95,3.03,-1.72,-1.74,-1.74
132.46,-3.35,-1.58,-3.44,-1.67,1.67,1.82,2.96,-1.68,-1.77,-1.77
133.79,-3.26,-1.46,-3.33,-1.54,1.54,1.69,2.89,-1.72,-1.80,-1.80
135.12,-3.30,-1.47,-3.25,-1.42,1.42,1.56,2.80,-1.88,-1.82,-1.83
136.48,-3.20,-1.35,-3.17,-1.32,1.32,1.44,2.72,-1.88,-1.85,-1.85
137.84,-3.14,-1.25,-3.10,-1.23,1.23,1.32,2.62,-1.92,-1.88,-1.89
139.22,-3.05,-1.13,-3.04,-1.13,1.13,1.20,2.53,-1.92,-1.91,-1.92
140.61,-2.90,-0.95,-2.97,-1.03,1.03,1.08,2.43,-1.87,-1.94,-1.95
142.02,-2.88,-0.91,-2.91,-0.94,0.94,0.96,2.33,-1.94,-1.97,-1.97
143.44,-3.00,-1.00,-2.85,-0.85,0.85,0.84,2.22,-2.15,-2.00,-2.00
144.87,-2.94,-0.90,-2.80,-0.75,0.75,0.73,2.11,-2.19,-2.04,-2.04
146.32,-2.75,-0.67,-2.77,-0.68,0.68,0.62,2.00,-2.07,-2.09,-2.08
147.78,-2.66,-0.55,-2.75,-0.62,0.62,0.51,1.89,-2.05,-2.14,-2.11
149.26,-2.78,-0.62,-2.74,-0.55,0.55,0.40,1.77,-2.24,-2.19,-2.16
150.75,-2.69,-0.47,-2.72,-0.48,0.48,0.29,1.66,-2.21,-2.25,-2.22
152.26,-2.53,-0.24,-2.73,-0.42,0.42,0.19,1.54,-2.11,-2.31,-2.29
153.78,-2.49,-0.13,-2.74,-0.36,0.36,0.08,1.42,-2.13,-2.38,-2.36
155.32,-2.66,-0.23,-2.76,-0.31,0.31,-0.02,1.30,-2.35,-2.44,-2.43
156.88,-2.77,-0.26,-2.78,-0.26,0.26,-0.12,1.17,-2.51,-2.51,-2.51
158.44,-2.79,-0.20,-2.79,-0.20,0.20,-0.22,1.05,-2.59,-2.58,-2.59
160.03,-2.92,-0.25,-2.79,-0.14,0.14,-0.32,0.93,-2.79,-2.65,-2.67
161.63,-2.97,-0.23,-2.79,-0.07,0.07,-0.42,0.80,-2.90,-2.72,-2.74
163.24,-2.88,-0.08,-2.77,0.01,-0.01,-0.51,0.68,-2.90,-2.78,-2.80
164.88,-2.70,0.15,-2.72,0.12,-0.12,-0.61,0.55,-2.82,-2.84,-2.85
166.53,-2.71,0.19,-2.65,0.24,-0.24,-0.70,0.43,-2.95,-2.88,-2.90
168.19,-2.67,0.27,-2.57,0.36,-0.36,-0.79,0.30,-3.03,-2.92,-2.94
169.87,-2.55,0.43,-2.47,0.49,-0.49,-0.88,0.18,-3.04,-2.96,-2.98
171.57,-2.41,0.59,-2.33,0.65,-0.65,-0.97,0.05,-3.06,-2.98,-3.00
173.29,-2.24,0.77,-2.17,0.83,-0.83,-1.06,-0.08,-3.07,-3.00,-3.01
175.02,-2.00,1.02,-2.00,1.01,-1.01,-1.15,-0.20,-3.01,-3.02,-3.02
176.77,-1.73,1.30,-1.83,1.19,-1.19,-1.24,-0.33,-2.92,-3.02,-3.03
178.54,-1.55,1.49,-1.66,1.37,-1.37,-1.33,-0.46,-2.93,-3.03,-3.04
180.32,-1.40,1.63,-1.49,1.55,-1.55,-1.42,-0.58,-2.95,-3.04,-3.03
182.13,-1.29,1.73,-1.35,1.70,-1.70,-1.51,-0.71,-2.99,-3.04,-3.02
183.95,-1.19,1.84,-1.20,1.85,-1.85,-1.60,-0.84,-3.04,-3.05,-3.03
185.79,-1.01,2.02,-1.05,2.01,-2.01,-1.68,-0.97,-3.02,-3.06,-3.03
187.65,-0.90,2.15,-0.92,2.15,-2.15,-1.77,-1.10,-3.05,-3.06,-3.05
189.52,-0.76,2.30,-0.81,2.26,-2.26,-1.86,-1.23,-3.03,-3.07,-3.06
191.42,-0.71,2.37,-0.72,2.37,-2.37,-1.95,-1.35,-3.08,-3.09,-3.08
193.33,-0.64,2.46,-0.64,2.46,-2.46,-2.04,-1.48,-3.11,-3.10,-3.10
195.27,-0.58,2.54,-0.56,2.56,-2.56,-2.13,-1.61,-3.14,-3.12,-3.12
197.22,-0.49,2.65,-0.50,2.64,-2.64,-2.22,-1.74,-3.13,-3.14,-3.14
199.19,-0.46,2.70,-0.44,2.71,-2.71,-2.31,-1.87,-3.17,-3.16,-3.16
201.18,-0.45,2.73,-0.39,2.79,-2.79,-2.40,-2.00,-3.24,-3.18,-3.18
203.19,-0.23,2.97,-0.34,2.86,-2.86,-2.49,-2.12,-3.09,-3.20,-3.20
205.23,-0.26,2.96,-0.29,2.93,-2.93,-2.58,-2.25,-3.19,-3.22,-3.22
207.28,-0.39,2.84,-0.25,2.99,-2.99,-2.67,-2.37,-3.38,-3.24,-3.23
209.35,-0.23,3.02,-0.21,3.05,-3.05,-2.76,-2.50,-3.28,-3.26,-3.25
211.44,-0.15,3.13,-0.18,3.09,-3.09,-2.84,-2.62,-3.24,-3.27,-3.28
213.56,-0.07,3.22,-0.15,3.14,-3.14,-2.93,-2.74,-3.21,-3.29,-3.29
215.69,-0.08,3.22,-0.12,3.19,-3.19,-3.02,-2.85,-3.27,-3.30,-3.30
217.85,-0.19,3.12,-0.08,3.24,-3.24,-3.10,-2.97,-3.43,-3.32,-3.31
220.03,-0.04,3.28,-0.04,3.28,-3.28,-3.18,-3.08,-3.32,-3.32,-3.32
222.23,0.02,3.37,-0.02,3.31,-3.31,-3.26,-3.19,-3.29,-3.33,-3.35
224.45,0.02,3.36,0.00,3.33,-3.33,-3.33,-3.29,-3.32,-3.33,-3.34
226.70,0.02,3.36,0.02,3.35,-3.35,-3.40,-3.39,-3.33,-3.33,-3.34
228.96,0.03,3.36,0.05,3.38,-3.38,-3.46,-3.48,-3.35,-3.33,-3.33
231.25,0.03,3.35,0.08,3.40,-3.40,-3.51,-3.57,-3.37,-3.32,-3.32
233.57,0.05,3.36,0.10,3.41,-3.41,-3.56,-3.65,-3.36,-3.31,-3.31
235.90,0.25,3.55,0.13,3.42,-3.42,-3.60,-3.72,-3.17,-3.29,-3.30
238.26,0.26,3.55,0.16,3.44,-3.44,-3.63,-3.79,-3.18,-3.28,-3.29
240.64,0.20,3.46,0.20,3.45,-3.45,-3.65,-3.85,-3.25,-3.26,-3.26
243.05,0.11,3.34,0.23,3.47,-3.47,-3.67,-3.91,-3.36,-3.24,-3.23
245.48,0.09,3.30,0.25,3.46,-3.46,-3.67,-3.95,-3.38,-3.21,-3.21
247.93,0.30,3.48,0.28,3.47,-3.47,-3.67,-3.99,-3.17,-3.19,-3.18
250.41,0.35,3.51,0.31,3.47,-3.47,-3.66,-4.02,-3.12,-3.17,-3.16
252.92,0.38,3.51,0.33,3.47,-3.47,-3.65,-4.04,-3.09,-3.14,-3.13
255.45,0.39,3.50,0.34,3.46,-3.46,-3.63,-4.06,-3.07,-3.12,-3.11
258.00,0.40,3.49,0.36,3.45,-3.45,-3.60,-4.06,-3.06,-3.09,-3.09
260.58,0.40,3.47,0.38,3.45,-3.45,-3.57,-4.06,-3.05,-3.07,-3.07
263.19,0.41,3.45,0.39,3.43,-3.43,-3.53,-4.06,-3.02,-3.04,-3.04
265.82,0.40,3.42,0.41,3.43,-3.43,-3.50,-4.04,-3.03,-3.02,-3.02
268.48,0.40,3.40,0.42,3.42,-3.42,-3.46,-4.02,-3.02,-2.99,-3.00
271.16,0.40,3.37,0.43,3.40,-3.40,-3.42,-4.00,-3.00,-2.97,-2.97
273.87,0.39,3.34,0.43,3.37,-3.37,-3.38,-3.96,-2.98,-2.94,-2.95
276.61,0.39,3.31,0.41,3.33,-3.33,-3.33,-3.93,-2.94,-2.92,-2.92
279.38,0.39,3.28,0.40,3.29,-3.29,-3.29,-3.89,-2.90,-2.89,-2.89
282.17,0.45,3.32,0.39,3.26,-3.26,-3.25,-3.84,-2.81,-2.86,-2.87
284.99,0.52,3.35,0.39,3.23,-3.23,-3.21,-3.79,-2.71,-2.84,-2.83
287.84,0.43,3.24,0.40,3.20,-3.20,-3.17,-3.74,-2.78,-2.81,-2.81
290.72,0.33,3.11,0.40,3.18,-3.18,-3.13,-3.69,-2.85,-2.78,-2.78
293.63,0.34,3.09,0.40,3.15,-3.15,-3.10,-3.63,-2.81,-2.75,-2.75
296.57,0.35,3.07,0.40,3.12,-3.12,-3.06,-3.58,-2.77,-2.72,-2.72
299.53,0.36,3.05,0.40,3.09,-3.09,-3.03,-3.52,-2.73,-2.69,-2.69
302.53,0.37,3.04,0.39,3.05,-3.05,-2.99,-3.46,-2.68,-2.66,-2.67
305.55,0.38,3.01,0.39,3.03,-3.03,-2.96,-3.40,-2.65,-2.64,-2.63
308.61,0.39,3.00,0.39,3.01,-3.01,-2.93,-3.35,-2.62,-2.61,-2.61
311.69,0.45,3.03,0.39,2.98,-2.98,-2.90,-3.29,-2.53,-2.59,-2.58
314.81,0.49,3.05,0.38,2.94,-2.94,-2.88,-3.23,-2.45,-2.57,-2.56
317.96,0.38,2.92,0.36,2.91,-2.91,-2.85,-3.17,-2.53,-2.55,-2.54
321.14,0.31,2.84,0.35,2.88,-2.88,-2.82,-3.12,-2.57,-2.53,-2.53
324.35,0.31,2.82,0.34,2.85,-2.85,-2.80,-3.07,-2.54,-2.51,-2.51
327.59,0.31,2.81,0.33,2.83,-2.83,-2.78,-3.01,-2.52,-2.50,-2.50
330.87,0.31,2.80,0.31,2.80,-2.80,-2.75,-2.96,-2.49,-2.48,-2.49
334.18,0.30,2.77,0.28,2.76,-2.76,-2.73,-2.91,-2.46,-2.47,-2.47
337.52,0.37,2.83,0.25,2.71,-2.71,-2.71,-2.87,-2.34,-2.46,-2.46
340.90,0.23,2.68,0.22,2.67,-2.67,-2.69,-2.82,-2.44,-2.45,-2.45
344.30,0.06,2.50,0.19,2.63,-2.63,-2.67,-2.78,-2.58,-2.45,-2.44
347.75,0.08,2.52,0.15,2.59,-2.59,-2.66,-2.74,-2.52,-2.44,-2.44
351.23,0.11,2.54,0.12,2.55,-2.55,-2.64,-2.70,-2.44,-2.44,-2.43
354.74,0.15,2.59,0.09,2.52,-2.52,-2.62,-2.66,-2.37,-2.43,-2.44
358.28,0.20,2.63,0.06,2.49,-2.49,-2.61,-2.63,-2.29,-2.43,-2.43
361.87,0.07,2.50,0.02,2.45,-2.45,-2.59,-2.60,-2.38,-2.43,-2.43
365.49,-0.13,2.29,-0.01,2.41,-2.41,-2.57,-2.57,-2.54,-2.43,-2.42
369.14,-0.12,2.31,-0.05,2.38,-2.38,-2.56,-2.54,-2.50,-2.43,-2.43
372.83,-0.07,2.36,-0.09,2.34,-2.34,-2.55,-2.51,-2.41,-2.43,-2.43
376.56,-0.04,2.40,-0.12,2.31,-2.31,-2.53,-2.49,-2.36,-2.43,-2.44
380.33,-0.11,2.32,-0.14,2.30,-2.30,-2.52,-2.46,-2.41,-2.43,-2.43
384.13,-0.22,2.21,-0.15,2.29,-2.29,-2.51,-2.44,-2.51,-2.44,-2.43
387.97,-0.22,2.22,-0.17,2.27,-2.27,-2.49,-2.43,-2.49,-2.44,-2.44
391.85,-0.15,2.30,-0.20,2.24,-2.24,-2.48,-2.41,-2.40,-2.45,-2.45
395.77,-0.20,2.24,-0.23,2.22,-2.22,-2.47,-2.40,-2.42,-2.45,-2.44
399.73,-0.32,2.13,-0.24,2.22,-2.22,-2.46,-2.38,-2.54,-2.46,-2.45
403.72,-0.27,2.18,-0.24,2.23,-2.23,-2.44,-2.37,-2.50,-2.46,-2.45
407.76,-0.23,2.24,-0.25,2.22,-2.22,-2.43,-2.36,-2.45,-2.47,-2.47
411.84,-0.22,2.25,-0.27,2.20,-2.20,-2.42,-2.35,-2.42,-2.47,-2.47
415.96,-0.22,2.25,-0.29,2.18,-2.18,-2.41,-2.34,-2.40,-2.47,-2.47
420.12,-0.22,2.25,-0.29,2.17,-2.17,-2.40,-2.34,-2.40,-2.47,-2.47
424.32,-0.22,2.25,-0.29,2.17,-2.17,-2.39,-2.33,-2.39,-2.46,-2.47
428.56,-0.36,2.10,-0.28,2.17,-2.17,-2.38,-2.33,-2.53,-2.45,-2.46
432.85,-0.41,2.04,-0.27,2.17,-2.17,-2.37,-2.32,-2.58,-2.44,-2.45
437.18,-0.21,2.23,-0.25,2.16,-2.16,-2.36,-2.32,-2.38,-2.42,-2.44
441.55,-0.11,2.29,-0.22,2.17,-2.17,-2.35,-2.32,-2.28,-2.39,-2.40
445.96,-0.30,2.07,-0.18,2.18,-2.18,-2.34,-2.31,-2.48,-2.36,-2.37
450.42,-0.35,1.99,-0.15,2.18,-2.18,-2.33,-2.31,-2.53,-2.32,-2.34
454.93,-0.12,2.17,-0.10,2.18,-2.18,-2.32,-2.31,-2.30,-2.28,-2.29
459.48,-0.01,2.24,-0.05,2.19,-2.19,-2.31,-2.30,-2.20,-2.24,-2.25
464.07,0.05,2.25,0.01,2.20,-2.20,-2.30,-2.30,-2.15,-2.19,-2.20
468.71,0.10,2.24,0.07,2.21,-2.21,-2.29,-2.29,-2.11,-2.15,-2.14
473.40,0.17,2.27,0.13,2.22,-2.22,-2.28,-2.29,-2.06,-2.10,-2.10
478.13,0.22,2.26,0.19,2.24,-2.24,-2.27,-2.28,-2.02,-2.05,-2.04
482.91,0.27,2.27,0.24,2.25,-2.25,-2.26,-2.28,-1.98,-2.00,-2.00
487.74,0.31,2.27,0.29,2.25,-2.25,-2.25,-2.27,-1.94,-1.96,-1.96
