frequency,raw,error,smoothed,error_smoothed,equalization,parametric_eq,fixed_band_eq,equalized_raw,equalized_smoothed,target
20.00,-0.36,-2.59,-0.36,-2.59,2.61,2.32,0.85,2.25,2.25,2.23
20.20,-0.32,-2.60,-0.32,-2.60,2.61,2.32,0.87,2.29,2.29,2.28
20.40,-0.28,-2.61,-0.28,-2.61,2.61,2.31,0.90,2.32,2.32,2.33
20.61,-0.24,-2.60,-0.24,-2.61,2.60,2.31,0.92,2.36,2.36,2.36
20.81,-0.21,-2.62,-0.21,-2.62,2.60,2.31,0.95,2.39,2.39,2.41
21.02,-0.17,-2.62,-0.17,-2.61,2.60,2.30,0.97,2.42,2.42,2.45
21.23,-0.13,-2.60,-0.13,-2.61,2.59,2.30,1.00,2.46,2.46,2.47
21.44,-0.09,-2.58,-0.09,-2.58,2.58,2.30,1.03,2.49,2.49,2.49
21.66,-0.05,-2.56,-0.05,-2.56,2.57,2.29,1.06,2.52,2.52,2.51
21.87,-0.01,-2.53,-0.02,-2.54,2.56,2.29,1.09,2.55,2.54,2.52
22.09,0.01,-2.53,0.01,-2.53,2.55,2.29,1.12,2.56,2.56,2.54
22.31,0.02,-2.53,0.02,-2.53,2.54,2.28,1.15,2.56,2.56,2.55
22.54,0.02,-2.53,0.02,-2.53,2.52,2.28,1.18,2.54,2.54,2.55
22.76,0.03,-2.52,0.02,-2.52,2.50,2.28,1.21,2.53,2.53,2.55
22.99,0.03,-2.51,0.04,-2.50,2.48,2.27,1.24,2.51,2.52,2.54
23.22,0.07,-2.47,0.07,-2.47,2.46,2.27,1.28,2.53,2.53,2.54
23.45,0.12,-2.42,0.11,-2.43,2.43,2.27,1.31,2.55,2.54,2.54
23.69,0.16,-2.39,0.16,-2.38,2.40,2.26,1.35,2.55,2.56,2.55
23.92,0.21,-2.34,0.20,-2.35,2.36,2.26,1.38,2.57,2.56,2.55
24.16,0.24,-2.31,0.24,-2.32,2.33,2.25,1.42,2.56,2.56,2.55
24.40,0.26,-2.30,0.26,-2.29,2.29,2.25,1.46,2.55,2.56,2.56
24.65,0.29,-2.26,0.29,-2.27,2.26,2.25,1.49,2.55,2.55,2.55
24.89,0.31,-2.24,0.31,-2.24,2.24,2.24,1.53,2.55,2.55,2.55
25.14,0.33,-2.22,0.33,-2.22,2.22,2.24,1.57,2.54,2.55,2.55
25.39,0.36,-2.20,0.36,-2.20,2.20,2.24,1.61,2.56,2.55,2.56
25.65,0.38,-2.18,0.38,-2.18,2.18,2.23,1.65,2.56,2.56,2.56
25.91,0.40,-2.15,0.40,-2.16,2.17,2.23,1.69,2.57,2.57,2.55
26.16,0.41,-2.14,0.41,-2.14,2.16,2.22,1.73,2.57,2.56,2.55
26.43,0.41,-2.14,0.41,-2.14,2.14,2.22,1.77,2.55,2.55,2.55
26.69,0.41,-2.14,0.41,-2.14,2.13,2.22,1.80,2.54,2.54,2.55
26.96,0.41,-2.14,0.41,-2.14,2.11,2.21,1.84,2.52,2.53,2.55
27.23,0.43,-2.12,0.43,-2.12,2.10,2.21,1.88,2.53,2.53,2.55
27.50,0.46,-2.09,0.46,-2.09,2.09,2.20,1.92,2.54,2.54,2.55
27.77,0.49,-2.05,0.49,-2.06,2.07,2.20,1.96,2.56,2.56,2.54
28.05,0.51,-2.03,0.50,-2.03,2.06,2.20,1.99,2.56,2.56,2.54
28.33,0.51,-2.02,0.51,-2.02,2.04,2.19,2.03,2.55,2.55,2.53
28.62,0.51,-2.02,0.51,-2.02,2.02,2.19,2.06,2.53,2.53,2.53
28.90,0.51,-2.03,0.51,-2.02,2.00,2.19,2.09,2.51,2.51,2.54
29.19,0.53,-2.00,0.53,-2.00,1.98,2.18,2.12,2.51,2.52,2.53
29.48,0.56,-1.98,0.56,-1.98,1.97,2.18,2.15,2.53,2.53,2.54
29.78,0.59,-1.94,0.59,-1.95,1.96,2.17,2.18,2.55,2.54,2.53
30.08,0.61,-1.93,0.60,-1.93,1.95,2.17,2.21,2.55,2.55,2.54
30.38,0.61,-1.92,0.61,-1.92,1.93,2.17,2.23,2.54,2.54,2.53
30.68,0.61,-1.92,0.61,-1.92,1.92,2.16,2.25,2.53,2.53,2.53
30.99,0.61,-1.92,0.61,-1.92,1.91,2.16,2.27,2.52,2.52,2.53
31.30,0.61,-1.91,0.61,-1.92,1.91,2.16,2.29,2.52,2.52,2.52
31.61,0.61,-1.91,0.61,-1.91,1.91,2.15,2.31,2.52,2.52,2.52
31.93,0.61,-1.91,0.61,-1.91,1.91,2.15,2.32,2.52,2.52,2.52
32.24,0.61,-1.90,0.61,-1.91,1.90,2.15,2.33,2.51,2.51,2.51
32.57,0.61,-1.90,0.61,-1.90,1.90,2.15,2.34,2.51,2.51,2.51
32.89,0.61,-1.90,0.61,-1.90,1.90,2.14,2.35,2.51,2.51,2.51
33.22,0.61,-1.89,0.61,-1.89,1.89,2.14,2.36,2.50,2.50,2.50
33.55,0.61,-1.89,0.61,-1.89,1.89,2.14,2.36,2.50,2.50,2.50
33.89,0.61,-1.88,0.61,-1.88,1.88,2.14,2.37,2.49,2.49,2.49
34.23,0.61,-1.88,0.61,-1.88,1.88,2.13,2.37,2.49,2.49,2.49
34.57,0.61,-1.87,0.61,-1.87,1.87,2.13,2.37,2.48,2.48,2.48
34.92,0.61,-1.87,0.61,-1.87,1.87,2.13,2.38,2.47,2.47,2.48
35.27,0.61,-1.86,0.61,-1.86,1.86,2.13,2.38,2.47,2.47,2.47
35.62,0.61,-1.86,0.61,-1.86,1.86,2.13,2.38,2.47,2.47,2.47
35.97,0.61,-1.86,0.61,-1.86,1.86,2.13,2.38,2.47,2.47,2.47
36.33,0.61,-1.86,0.61,-1.85,1.86,2.13,2.38,2.47,2.48,2.47
36.70,0.61,-1.85,0.61,-1.86,1.87,2.13,2.38,2.48,2.48,2.46
37.06,0.60,-1.86,0.59,-1.87,1.88,2.13,2.38,2.48,2.48,2.46
37.43,0.57,-1.90,0.56,-1.90,1.90,2.13,2.39,2.47,2.46,2.47
37.81,0.53,-1.94,0.54,-1.93,1.92,2.13,2.39,2.45,2.45,2.47
38.19,0.51,-1.95,0.52,-1.95,1.94,2.13,2.39,2.45,2.46,2.46
38.57,0.51,-1.96,0.51,-1.96,1.96,2.13,2.40,2.47,2.47,2.47
38.95,0.51,-1.97,0.50,-1.97,1.99,2.13,2.40,2.50,2.49,2.48
39.34,0.48,-1.99,0.47,-2.00,2.01,2.13,2.41,2.49,2.48,2.47
39.74,0.44,-2.03,0.44,-2.03,2.02,2.14,2.42,2.46,2.47,2.47
40.14,0.41,-2.06,0.42,-2.05,2.03,2.14,2.43,2.44,2.45,2.47
40.54,0.41,-2.06,0.41,-2.06,2.04,2.14,2.44,2.45,2.44,2.47
40.94,0.41,-2.05,0.41,-2.06,2.05,2.14,2.45,2.45,2.45,2.46
41.35,0.41,-2.05,0.41,-2.05,2.06,2.15,2.47,2.46,2.47,2.46
41.76,0.41,-2.04,0.41,-2.05,2.07,2.15,2.49,2.48,2.47,2.45
42.18,0.40,-2.05,0.40,-2.05,2.08,2.16,2.51,2.48,2.47,2.45
42.60,0.37,-2.07,0.37,-2.07,2.09,2.16,2.53,2.46,2.46,2.44
43.03,0.34,-2.09,0.33,-2.10,2.10,2.17,2.55,2.44,2.43,2.43
43.46,0.28,-2.14,0.28,-2.14,2.11,2.18,2.58,2.39,2.39,2.42
43.90,0.23,-2.17,0.24,-2.16,2.13,2.18,2.60,2.36,2.37,2.40
44.33,0.22,-2.16,0.22,-2.16,2.14,2.19,2.63,2.36,2.37,2.38
44.78,0.22,-2.14,0.21,-2.15,2.16,2.20,2.66,2.38,2.37,2.36
45.23,0.20,-2.15,0.19,-2.16,2.18,2.21,2.70,2.38,2.37,2.35
45.68,0.15,-2.19,0.16,-2.18,2.20,2.22,2.73,2.35,2.36,2.34
46.13,0.11,-2.21,0.12,-2.21,2.22,2.23,2.77,2.33,2.33,2.32
46.60,0.08,-2.24,0.08,-2.24,2.24,2.24,2.81,2.32,2.31,2.32
47.06,0.04,-2.26,0.03,-2.27,2.26,2.25,2.85,2.30,2.29,2.30
47.53,-0.01,-2.30,-0.02,-2.31,2.29,2.27,2.89,2.28,2.27,2.29
48.01,-0.07,-2.36,-0.04,-2.33,2.32,2.28,2.94,2.25,2.27,2.29
48.49,-0.07,-2.34,-0.07,-2.34,2.35,2.30,2.98,2.28,2.28,2.27
48.97,-0.07,-2.32,-0.11,-2.36,2.37,2.31,3.03,2.30,2.26,2.25
49.46,-0.16,-2.39,-0.16,-2.39,2.40,2.33,3.08,2.24,2.24,2.23
49.96,-0.25,-2.46,-0.22,-2.44,2.43,2.35,3.13,2.18,2.21,2.21
50.46,-0.28,-2.48,-0.28,-2.48,2.46,2.36,3.18,2.18,2.18,2.20
50.96,-0.30,-2.49,-0.32,-2.50,2.50,2.38,3.23,2.20,2.18,2.19
51.47,-0.36,-2.53,-0.36,-2.53,2.55,2.41,3.29,2.19,2.19,2.17
51.99,-0.42,-2.58,-0.42,-2.58,2.60,2.43,3.34,2.18,2.18,2.16
52.51,-0.48,-2.63,-0.49,-2.64,2.65,2.45,3.39,2.17,2.16,2.15
53.03,-0.55,-2.70,-0.56,-2.71,2.70,2.47,3.45,2.15,2.13,2.15
53.56,-0.64,-2.77,-0.63,-2.77,2.74,2.50,3.50,2.10,2.11,2.13
54.10,-0.71,-2.83,-0.69,-2.81,2.79,2.53,3.55,2.08,2.10,2.12
54.64,-0.73,-2.83,-0.74,-2.85,2.83,2.55,3.60,2.10,2.09,2.10
55.18,-0.77,-2.87,-0.79,-2.88,2.88,2.58,3.66,2.11,2.09,2.10
55.74,-0.84,-2.92,-0.83,-2.91,2.92,2.61,3.70,2.08,2.09,2.08
56.29,-0.89,-2.96,-0.88,-2.95,2.97,2.65,3.75,2.07,2.09,2.07
56.86,-0.92,-2.98,-0.94,-2.99,3.01,2.68,3.80,2.09,2.07,2.06
57.42,-1.00,-3.03,-1.01,-3.05,3.05,2.72,3.84,2.05,2.05,2.03
58.00,-1.10,-3.12,-1.08,-3.10,3.10,2.75,3.88,2.00,2.02,2.02
58.58,-1.16,-3.17,-1.16,-3.17,3.16,2.79,3.91,1.99,1.99,2.01
59.16,-1.22,-3.21,-1.24,-3.23,3.21,2.83,3.94,1.99,1.97,1.99
59.76,-1.31,-3.28,-1.30,-3.27,3.27,2.87,3.97,1.96,1.96,1.97
60.35,-1.39,-3.32,-1.38,-3.31,3.32,2.91,3.99,1.93,1.94,1.93
60.96,-1.45,-3.34,-1.47,-3.37,3.38,2.96,4.01,1.93,1.90,1.89
61.57,-1.57,-3.42,-1.57,-3.42,3.42,3.00,4.03,1.85,1.86,1.85
62.18,-1.68,-3.49,-1.67,-3.47,3.47,3.05,4.04,1.78,1.80,1.81
62.80,-1.76,-3.52,-1.77,-3.53,3.51,3.10,4.04,1.75,1.74,1.76
63.43,-1.85,-3.57,-1.85,-3.57,3.55,3.15,4.05,1.70,1.70,1.72
64.07,-1.94,-3.61,-1.92,-3.60,3.60,3.20,4.04,1.66,1.67,1.67
64.71,-1.98,-3.61,-1.98,-3.62,3.64,3.26,4.03,1.66,1.66,1.63
65.35,-2.05,-3.64,-2.06,-3.65,3.68,3.31,4.02,1.63,1.62,1.59
66.01,-2.14,-3.68,-2.17,-3.71,3.72,3.37,4.01,1.58,1.55,1.54
66.67,-2.30,-3.79,-2.29,-3.78,3.75,3.43,3.99,1.45,1.47,1.49
67.33,-2.41,-3.85,-2.39,-3.83,3.79,3.49,3.96,1.38,1.40,1.44
68.01,-2.46,-3.86,-2.46,-3.86,3.83,3.56,3.94,1.37,1.37,1.40
68.69,-2.50,-3.85,-2.51,-3.86,3.87,3.62,3.91,1.37,1.36,1.35
69.37,-2.57,-3.87,-2.58,-3.88,3.91,3.69,3.87,1.34,1.34,1.30
70.07,-2.66,-3.91,-2.67,-3.93,3.95,3.75,3.84,1.29,1.28,1.25
70.77,-2.80,-4.00,-2.79,-3.98,3.99,3.82,3.80,1.19,1.21,1.20
71.48,-2.90,-4.05,-2.89,-4.04,4.03,3.89,3.77,1.13,1.13,1.15
72.19,-2.99,-4.07,-3.00,-4.08,4.06,3.96,3.73,1.07,1.06,1.08
72.91,-3.09,-4.11,-3.10,-4.12,4.10,4.03,3.69,1.01,1.00,1.02
73.64,-3.20,-4.17,-3.20,-4.16,4.14,4.10,3.65,0.94,0.95,0.97
74.38,-3.29,-4.20,-3.28,-4.19,4.18,4.18,3.61,0.89,0.90,0.91
75.12,-3.36,-4.21,-3.36,-4.21,4.23,4.25,3.57,0.87,0.87,0.85
75.87,-3.43,-4.22,-3.45,-4.24,4.27,4.32,3.53,0.84,0.83,0.79
76.63,-3.55,-4.29,-3.55,-4.29,4.33,4.40,3.49,0.77,0.77,0.74
77.40,-3.68,-4.37,-3.68,-4.36,4.38,4.47,3.45,0.70,0.70,0.69
78.17,-3.81,-4.44,-3.81,-4.45,4.43,4.54,3.42,0.62,0.62,0.63
78.95,-3.92,-4.51,-3.93,-4.52,4.49,4.61,3.38,0.56,0.55,0.59
79.74,-4.05,-4.59,-4.03,-4.57,4.54,4.68,3.35,0.48,0.51,0.54
80.54,-4.11,-4.60,-4.11,-4.60,4.58,4.75,3.32,0.47,0.47,0.49
81.35,-4.17,-4.61,-4.19,-4.63,4.63,4.82,3.29,0.46,0.44,0.44
82.16,-4.27,-4.66,-4.27,-4.66,4.68,4.88,3.26,0.41,0.41,0.39
82.98,-4.36,-4.71,-4.36,-4.70,4.73,4.95,3.23,0.36,0.37,0.35
83.81,-4.45,-4.75,-4.44,-4.74,4.77,5.00,3.21,0.32,0.33,0.30
84.65,-4.52,-4.77,-4.53,-4.79,4.81,5.06,3.19,0.29,0.28,0.25
85.50,-4.62,-4.83,-4.65,-4.86,4.85,5.11,3.17,0.23,0.20,0.21
86.35,-4.78,-4.94,-4.78,-4.94,4.89,5.16,3.16,0.11,0.12,0.16
87.22,-4.91,-5.02,-4.86,-4.97,4.93,5.20,3.14,0.02,0.07,0.11
88.09,-4.93,-4.99,-4.92,-4.97,4.96,5.23,3.13,0.03,0.04,0.06
88.97,-4.90,-4.90,-4.97,-4.97,4.98,5.26,3.12,0.08,0.01,-0.00
89.86,-5.02,-4.97,-5.03,-4.98,4.99,5.28,3.12,-0.03,-0.03,-0.05
90.76,-5.16,-5.06,-5.10,-5.00,5.01,5.30,3.12,-0.15,-0.09,-0.10
91.66,-5.16,-5.01,-5.18,-5.03,5.02,5.31,3.11,-0.14,-0.16,-0.15
92.58,-5.21,-5.00,-5.23,-5.02,5.04,5.31,3.12,-0.18,-0.19,-0.21
93.51,-5.29,-5.03,-5.27,-5.01,5.06,5.30,3.12,-0.23,-0.21,-0.26
94.44,-5.34,-5.04,-5.35,-5.05,5.08,5.28,3.13,-0.26,-0.27,-0.30
95.39,-5.42,-5.07,-5.45,-5.10,5.09,5.26,3.13,-0.33,-0.36,-0.35
96.34,-5.55,-5.15,-5.54,-5.14,5.10,5.23,3.14,-0.46,-0.44,-0.40
97.30,-5.63,-5.18,-5.59,-5.14,5.10,5.19,3.16,-0.53,-0.50,-0.45
98.28,-5.60,-5.10,-5.62,-5.12,5.10,5.14,3.17,-0.51,-0.52,-0.50
99.26,-5.59,-5.05,-5.61,-5.07,5.09,5.08,3.18,-0.50,-0.52,-0.54
100.25,-5.61,-5.02,-5.61,-5.01,5.06,5.02,3.20,-0.55,-0.54,-0.59
101.25,-5.63,-4.99,-5.63,-4.99,5.02,4.95,3.22,-0.61,-0.61,-0.64
102.27,-5.65,-4.96,-5.68,-4.99,4.96,4.87,3.24,-0.69,-0.72,-0.69
103.29,-5.70,-4.96,-5.69,-4.96,4.90,4.78,3.26,-0.80,-0.79,-0.74
104.32,-5.71,-4.93,-5.65,-4.87,4.84,4.69,3.27,-0.88,-0.82,-0.78
105.37,-5.57,-4.74,-5.60,-4.76,4.77,4.59,3.29,-0.80,-0.83,-0.83
106.42,-5.47,-4.59,-5.53,-4.65,4.69,4.48,3.31,-0.78,-0.84,-0.88
107.48,-5.53,-4.59,-5.49,-4.55,4.61,4.37,3.33,-0.92,-0.88,-0.94
108.56,-5.49,-4.50,-5.51,-4.52,4.53,4.26,3.35,-0.97,-0.98,-0.99
109.64,-5.50,-4.46,-5.52,-4.47,4.44,4.14,3.36,-1.06,-1.08,-1.04
110.74,-5.52,-4.42,-5.45,-4.35,4.35,4.02,3.38,-1.18,-1.10,-1.10
111.85,-5.37,-4.23,-5.38,-4.24,4.25,3.89,3.39,-1.12,-1.14,-1.14
112.97,-5.24,-4.04,-5.34,-4.14,4.14,3.76,3.40,-1.10,-1.20,-1.20
114.10,-5.32,-4.07,-5.29,-4.04,4.02,3.63,3.41,-1.30,-1.27,-1.25
115.24,-5.30,-4.00,-5.22,-3.92,3.88,3.50,3.41,-1.42,-1.34,-1.30
116.39,-5.10,-3.75,-5.11,-3.76,3.74,3.36,3.41,-1.36,-1.37,-1.35
117.55,-4.89,-3.50,-4.96,-3.57,3.59,3.22,3.40,-1.30,-1.37,-1.39
118.73,-4.82,-3.39,-4.82,-3.39,3.44,3.09,3.39,-1.38,-1.38,-1.43
119.92,-4.77,-3.31,-4.71,-3.25,3.28,2.95,3.38,-1.49,-1.43,-1.46
121.12,-4.58,-3.08,-4.61,-3.12,3.11,2.81,3.36,-1.47,-1.50,-1.50
122.33,-4.47,-2.94,-4.49,-2.96,2.94,2.67,3.33,-1.53,-1.55,-1.53
123.55,-4.38,-2.82,-4.36,-2.80,2.76,2.54,3.30,-1.62,-1.60,-1.56
124.79,-4.24,-2.65,-4.23,-2.64,2.59,2.40,3.26,-1.65,-1.64,-1.59
126.03,-4.05,-2.43,-4.04,-2.43,2.41,2.26,3.22,-1.64,-1.63,-1.62
127.29,-3.86,-2.22,-3.86,-2.21,2.24,2.13,3.17,-1.62,-1.62,-1.64
128.57,-3.66,-1.98,-3.72,-2.04,2.07,1.99,3.12,-1.59,-1.65,-1.68
129.85,-3.62,-1.91,-3.59,-1.88,1.91,1.86,3.06,-1.71,-1.68,-1.71
131.15,-3.52,-1.78,-3.47,-1.73,1.77,1.73,2.99,-1.75,-1.71,-1.74
132.46,-3.35,-1.58,-3.39,-1.62,1.63,1.60,2.92,-1.72,-1.76,-1.77
133.79,-3.26,-1.46,-3.30,-1.51,1.51,1.47,2.84,-1.75,-1.80,-1.80
135.12,-3.30,-1.47,-3.25,-1.42,1.40,1.35,2.76,-1.90,-1.85,-1.83
136.48,-3.20,-1.35,-3.21,-1.36,1.31,1.22,2.67,-1.89,-1.91,-1.85
137.84,-3.14,-1.25,-3.13,-1.25,1.22,1.10,2.58,-1.92,-1.91,-1.89
139.22,-3.05,-1.13,-3.01,-1.09,1.14,0.98,2.49,-1.91,-1.87,-1.92
140.61,-2.90,-0.95,-2.95,-1.01,1.06,0.86,2.39,-1.84,-1.89,-1.95
142.02,-2.88,-0.91,-2.94,-0.97,0.98,0.74,2.29,-1.90,-1.96,-1.97
143.44,-3.00,-1.00,-2.93,-0.92,0.89,0.63,2.18,-2.11,-2.03,-2.00
144.87,-2.94,-0.90,-2.87,-0.84,0.80,0.51,2.07,-2.14,-2.08,-2.04
146.32,-2.75,-0.67,-2.81,-0.74,0.70,0.40,1.96,-2.05,-2.12,-2.08
147.78,-2.66,-0.55,-2.75,-0.63,0.60,0.29,1.85,-2.06,-2.15,-2.11
149.26,-2.78,-0.62,-2.69,-0.53,0.51,0.18,1.73,-2.27,-2.18,-2.16
150.75,-2.69,-0.47,-2.64,-0.41,0.43,0.08,1.62,-2.26,-2.21,-2.22
152.26,-2.53,-0.24,-2.58,-0.30,0.36,-0.03,1.50,-2.17,-2.23,-2.29
153.78,-2.49,-0.13,-2.56,-0.21,0.31,-0.13,1.38,-2.19,-2.26,-2.36
155.32,-2.66,-0.23,-2.62,-0.18,0.27,-0.23,1.26,-2.40,-2.35,-2.43
156.88,-2.77,-0.26,-2.73,-0.22,0.23,-0.33,1.14,-2.54,-2.50,-2.51
158.44,-2.79,-0.20,-2.85,-0.26,0.19,-0.42,1.02,-2.60,-2.66,-2.59
160.03,-2.92,-0.25,-2.92,-0.25,0.16,-0.52,0.89,-2.77,-2.76,-2.67
161.63,-2.97,-0.23,-2.91,-0.17,0.11,-0.61,0.77,-2.86,-2.80,-2.74
163.24,-2.88,-0.08,-2.87,-0.07,0.06,-0.70,0.64,-2.83,-2.81,-2.80
164.88,-2.70,0.15,-2.78,0.07,-0.03,-0.79,0.52,-2.73,-2.81,-2.85
166.53,-2.71,0.19,-2.70,0.20,-0.14,-0.88,0.40,-2.86,-2.85,-2.90
168.19,-2.67,0.27,-2.64,0.31,-0.30,-0.97,0.27,-2.97,-2.93,-2.94
169.87,-2.55,0.43,-2.56,0.41,-0.47,-1.06,0.14,-3.02,-3.03,-2.98
171.57,-2.41,0.59,-2.42,0.58,-0.65,-1.14,0.02,-3.06,-3.07,-3.00
173.29,-2.24,0.77,-2.22,0.80,-0.84,-1.23,-0.11,-3.08,-3.06,-3.01
175.02,-2.00,1.02,-1.99,1.03,-1.02,-1.31,-0.24,-3.03,-3.02,-3.02
176.77,-1.73,1.30,-1.76,1.27,-1.21,-1.39,-0.36,-2.94,-2.97,-3.03
178.54,-1.55,1.49,-1.56,1.48,-1.40,-1.48,-0.49,-2.95,-2.95,-3.04
180.32,-1.40,1.63,-1.41,1.62,-1.58,-1.56,-0.62,-2.98,-2.99,-3.03
182.13,-1.29,1.73,-1.29,1.74,-1.75,-1.64,-0.75,-3.04,-3.04,-3.02
183.95,-1.19,1.84,-1.16,1.86,-1.90,-1.72,-0.87,-3.09,-3.07,-3.03
185.79,-1.01,2.02,-1.03,2.01,-2.03,-1.80,-1.00,-3.05,-3.06,-3.03
187.65,-0.90,2.15,-0.90,2.15,-2.15,-1.88,-1.13,-3.05,-3.04,-3.05
189.52,-0.76,2.30,-0.78,2.28,-2.25,-1.97,-1.26,-3.02,-3.04,-3.06
191.42,-0.71,2.37,-0.71,2.37,-2.36,-2.05,-1.39,-3.07,-3.07,-3.08
193.33,-0.64,2.46,-0.63,2.47,-2.46,-2.13,-1.52,-3.11,-3.10,-3.10
195.27,-0.58,2.54,-0.57,2.55,-2.56,-2.22,-1.65,-3.14,-3.13,-3.12
197.22,-0.49,2.65,-0.53,2.61,-2.64,-2.30,-1.77,-3.13,-3.17,-3.14
199.19,-0.46,2.70,-0.45,2.71,-2.71,-2.39,-1.90,-3.17,-3.17,-3.16
201.18,-0.45,2.73,-0.36,2.82,-2.78,-2.48,-2.03,-3.24,-3.15,-3.18
203.19,-0.23,2.97,-0.33,2.87,-2.85,-2.57,-2.16,-3.09,-3.19,-3.20
205.23,-0.26,2.96,-0.30,2.91,-2.92,-2.66,-2.28,-3.18,-3.23,-3.22
207.28,-0.39,2.84,-0.28,2.96,-2.98,-2.75,-2.41,-3.37,-3.26,-3.23
209.35,-0.23,3.02,-0.25,3.00,-3.04,-2.84,-2.53,-3.27,-3.29,-3.25
211.44,-0.15,3.13,-0.16,3.11,-3.09,-2.94,-2.65,-3.25,-3.26,-3.28
213.56,-0.07,3.22,-0.11,3.18,-3.15,-3.03,-2.77,-3.22,-3.26,-3.29
215.69,-0.08,3.22,-0.11,3.19,-3.19,-3.12,-2.89,-3.28,-3.30,-3.30
217.85,-0.19,3.12,-0.09,3.22,-3.24,-3.20,-3.01,-3.43,-3.33,-3.31
220.03,-0.04,3.28,-0.07,3.26,-3.27,-3.29,-3.12,-3.31,-3.34,-3.32
222.23,0.02,3.37,-0.02,3.32,-3.30,-3.36,-3.22,-3.28,-3.32,-3.35
224.45,0.02,3.36,0.03,3.37,-3.34,-3.43,-3.33,-3.32,-3.31,-3.34
226.70,0.02,3.36,0.03,3.37,-3.37,-3.48,-3.42,-3.35,-3.34,-3.34
228.96,0.03,3.36,0.01,3.34,-3.39,-3.53,-3.52,-3.37,-3.39,-3.33
231.25,0.03,3.35,0.04,3.36,-3.41,-3.56,-3.61,-3.38,-3.37,-3.32
233.57,0.05,3.36,0.12,3.43,-3.42,-3.58,-3.69,-3.37,-3.30,-3.31
235.90,0.25,3.55,0.19,3.49,-3.42,-3.58,-3.76,-3.17,-3.23,-3.30
238.26,0.26,3.55,0.23,3.51,-3.43,-3.58,-3.83,-3.17,-3.20,-3.29
240.64,0.20,3.46,0.19,3.45,-3.43,-3.57,-3.89,-3.24,-3.25,-3.26
243.05,0.11,3.34,0.14,3.38,-3.45,-3.54,-3.94,-3.34,-3.31,-3.23
245.48,0.09,3.30,0.16,3.37,-3.46,-3.52,-3.99,-3.37,-3.30,-3.21
247.93,0.30,3.48,0.24,3.42,-3.46,-3.49,-4.03,-3.16,-3.22,-3.18
250.41,0.35,3.51,0.33,3.49,-3.46,-3.45,-4.06,-3.11,-3.13,-3.16
252.92,0.38,3.51,0.39,3.52,-3.46,-3.42,-4.08,-3.09,-3.07,-3.13
255.45,0.39,3.50,0.39,3.50,-3.47,-3.39,-4.09,-3.08,-3.08,-3.11
258.00,0.40,3.49,0.40,3.49,-3.48,-3.35,-4.10,-3.08,-3.08,-3.09
260.58,0.40,3.47,0.40,3.47,-3.47,-3.32,-4.10,-3.07,-3.07,-3.07
263.19,0.41,3.45,0.40,3.45,-3.45,-3.29,-4.09,-3.04,-3.05,-3.04
265.82,0.40,3.42,0.40,3.42,-3.43,-3.26,-4.08,-3.03,-3.02,-3.02
268.48,0.40,3.40,0.40,3.40,-3.40,-3.23,-4.06,-3.00,-3.00,-3.00
271.16,0.40,3.37,0.39,3.37,-3.38,-3.21,-4.03,-2.98,-2.98,-2.97
273.87,0.39,3.34,0.39,3.33,-3.36,-3.18,-4.00,-2.97,-2.98,-2.95
276.61,0.39,3.31,0.39,3.31,-3.34,-3.16,-3.96,-2.95,-2.95,-2.92
279.38,0.39,3.28,0.42,3.31,-3.31,-3.14,-3.92,-2.92,-2.89,-2.89
282.17,0.45,3.32,0.46,3.32,-3.28,-3.12,-3.87,-2.83,-2.82,-2.87
284.99,0.52,3.35,0.46,3.29,-3.24,-3.10,-3.82,-2.72,-2.79,-2.83
287.84,0.43,3.24,0.43,3.24,-3.20,-3.08,-3.77,-2.78,-2.78,-2.81
290.72,0.33,3.11,0.38,3.15,-3.17,-3.06,-3.72,-2.84,-2.79,-2.78
293.63,0.34,3.09,0.33,3.08,-3.13,-3.05,-3.66,-2.79,-2.80,-2.75
296.57,0.35,3.07,0.34,3.06,-3.10,-3.03,-3.60,-2.75,-2.76,-2.72
299.53,0.36,3.05,0.36,3.05,-3.07,-3.01,-3.54,-2.71,-2.71,-2.69
302.53,0.37,3.04,0.36,3.03,-3.04,-2.99,-3.48,-2.68,-2.68,-2.67
305.55,0.38,3.01,0.38,3.01,-3.02,-2.97,-3.42,-2.64,-2.64,-2.63
308.61,0.39,3.00,0.42,3.03,-3.00,-2.96,-3.36,-2.61,-2.58,-2.61
311.69,0.45,3.03,0.44,3.02,-2.98,-2.94,-3.31,-2.53,-2.53,-2.58
314.81,0.49,3.05,0.43,2.99,-2.95,-2.92,-3.25,-2.47,-2.52,-2.56
317.96,0.38,2.92,0.40,2.94,-2.93,-2.90,-3.19,-2.55,-2.54,-2.54
321.14,0.31,2.84,0.34,2.87,-2.91,-2.87,-3.13,-2.60,-2.56,-2.53
324.35,0.31,2.82,0.30,2.82,-2.87,-2.85,-3.08,-2.57,-2.57,-2.51
327.59,0.31,2.81,0.29,2.79,-2.83,-2.83,-3.03,-2.52,-2.54,-2.50
330.87,0.31,2.80,0.32,2.81,-2.78,-2.80,-2.97,-2.47,-2.46,-2.49
334.18,0.30,2.77,0.33,2.81,-2.73,-2.78,-2.92,-2.43,-2.40,-2.47
337.52,0.37,2.83,0.29,2.75,-2.70,-2.75,-2.88,-2.33,-2.41,-2.46
340.90,0.23,2.68,0.21,2.66,-2.67,-2.72,-2.83,-2.44,-2.46,-2.45
344.30,0.06,2.50,0.13,2.57,-2.64,-2.69,-2.79,-2.59,-2.51,-2.44
347.75,0.08,2.52,0.07,2.51,-2.60,-2.66,-2.74,-2.53,-2.53,-2.44
351.23,0.11,2.54,0.11,2.54,-2.56,-2.63,-2.70,-2.45,-2.45,-2.43
354.74,0.15,2.59,0.17,2.60,-2.52,-2.60,-2.67,-2.37,-2.35,-2.44
358.28,0.20,2.63,0.13,2.56,-2.48,-2.56,-2.63,-2.28,-2.35,-2.43
361.87,0.07,2.50,0.04,2.47,-2.45,-2.53,-2.60,-2.38,-2.41,-2.43
365.49,-0.13,2.29,-0.05,2.37,-2.42,-2.49,-2.56,-2.55,-2.47,-2.42
369.14,-0.12,2.31,-0.10,2.33,-2.39,-2.46,-2.53,-2.51,-2.50,-2.43
372.83,-0.07,2.36,-0.09,2.34,-2.36,-2.42,-2.51,-2.43,-2.45,-2.43
376.56,-0.04,2.40,-0.08,2.35,-2.32,-2.38,-2.48,-2.36,-2.40,-2.44
380.33,-0.11,2.32,-0.13,2.30,-2.28,-2.35,-2.46,-2.39,-2.41,-2.43
384.13,-0.22,2.21,-0.17,2.27,-2.26,-2.31,-2.44,-2.48,-2.43,-2.43
387.97,-0.22,2.22,-0.19,2.25,-2.24,-2.28,-2.42,-2.46,-2.43,-2.44
391.85,-0.15,2.30,-0.21,2.23,-2.23,-2.25,-2.40,-2.39,-2.45,-2.45
395.77,-0.20,2.24,-0.23,2.22,-2.23,-2.22,-2.38,-2.43,-2.46,-2.44
399.73,-0.32,2.13,-0.25,2.19,-2.22,-2.19,-2.37,-2.55,-2.48,-2.45
403.72,-0.27,2.18,-0.27,2.18,-2.22,-2.17,-2.36,-2.49,-2.49,-2.45
407.76,-0.23,2.24,-0.26,2.21,-2.22,-2.15,-2.35,-2.45,-2.47,-2.47
411.84,-0.22,2.25,-0.22,2.25,-2.21,-2.14,-2.34,-2.43,-2.43,-2.47
415.96,-0.22,2.25,-0.20,2.27,-2.21,-2.13,-2.33,-2.43,-2.41,-2.47
420.12,-0.22,2.25,-0.22,2.25,-2.21,-2.12,-2.32,-2.43,-2.43,-2.47
424.32,-0.22,2.25,-0.29,2.18,-2.20,-2.12,-2.31,-2.42,-2.49,-2.47
428.56,-0.36,2.10,-0.33,2.13,-2.18,-2.12,-2.31,-2.54,-2.51,-2.46
432.85,-0.41,2.04,-0.30,2.15,-2.16,-2.12,-2.30,-2.57,-2.46,-2.45
437.18,-0.21,2.23,-0.26,2.17,-2.14,-2.13,-2.30,-2.36,-2.40,-2.44
441.55,-0.11,2.29,-0.25,2.16,-2.14,-2.14,-2.29,-2.25,-2.38,-2.40
445.96,-0.30,2.07,-0.24,2.13,-2.14,-2.15,-2.29,-2.44,-2.38,-2.37
450.42,-0.35,1.99,-0.24,2.09,-2.15,-2.16,-2.29,-2.50,-2.39,-2.34
454.93,-0.12,2.17,-0.18,2.12,-2.17,-2.18,-2.28,-2.29,-2.35,-2.29
459.48,-0.01,2.24,-0.05,2.20,-2.19,-2.19,-2.28,-2.20,-2.24,-2.25
464.07,0.05,2.25,0.06,2.26,-2.21,-2.21,-2.27,-2.16,-2.15,-2.20
468.71,0.10,2.24,0.11,2.26,-2.23,-2.22,-2.27,-2.13,-2.12,-2.14
473.40,0.17,2.27,0.16,2.26,-2.24,-2.24,-2.26,-2.08,-2.08,-2.10
478.13,0.22,2.26,0.22,2.26,-2.26,-2.25,-2.26,-2.04,-2.04,-2.04
482.91,0.27,2.27,0.27,2.27,-2.27,-2.27,-2.25,-2.00,-2.00,-2.00
487.74,0.31,2.27,0.31,2.26,-2.27,-2.28,-2.24,-1.96,-1.96,-1.96
