frequency,raw,error,smoothed,error_smoothed,equalization,parametric_eq,fixed_band_eq,equalized_raw,equalized_smoothed,target
20.00,1.93,-2.06,1.93,-2.10,2.10,2.10,0.20,4.03,4.03,4.00
20.20,1.99,-2.05,1.98,-2.08,2.08,2.15,0.20,4.07,4.06,4.05
20.40,2.04,-2.05,2.04,-2.06,2.06,2.19,0.21,4.10,4.10,4.10
20.61,2.10,-2.02,2.10,-2.03,2.03,2.22,0.22,4.13,4.13,4.12
20.81,2.16,-2.01,2.15,-2.00,2.00,2.24,0.23,4.17,4.16,4.17
21.02,2.21,-2.00,2.21,-1.98,1.98,2.25,0.23,4.19,4.19,4.21
21.23,2.26,-1.97,2.26,-1.95,1.95,2.25,0.24,4.21,4.21,4.23
21.44,2.30,-1.95,2.32,-1.92,1.92,2.24,0.25,4.22,4.23,4.25
21.66,2.34,-1.93,2.37,-1.88,1.88,2.22,0.26,4.23,4.25,4.27
21.87,2.39,-1.89,2.42,-1.85,1.85,2.19,0.27,4.24,4.27,4.28
22.09,2.44,-1.86,2.47,-1.82,1.82,2.16,0.28,4.26,4.29,4.30
22.31,2.51,-1.80,2.52,-1.78,1.78,2.11,0.29,4.29,4.30,4.31
22.54,2.58,-1.73,2.57,-1.74,1.74,2.06,0.30,4.32,4.31,4.31
22.76,2.65,-1.66,2.62,-1.69,1.69,2.00,0.31,4.34,4.31,4.31
22.99,2.72,-1.58,2.66,-1.65,1.65,1.93,0.32,4.37,4.31,4.30
23.22,2.74,-1.56,2.71,-1.60,1.60,1.86,0.33,4.34,4.31,4.30
23.45,2.77,-1.52,2.76,-1.55,1.55,1.79,0.34,4.33,4.31,4.30
23.69,2.80,-1.50,2.80,-1.51,1.51,1.72,0.35,4.31,4.31,4.31
23.92,2.82,-1.48,2.85,-1.46,1.46,1.64,0.36,4.28,4.31,4.30
24.16,2.86,-1.45,2.90,-1.41,1.41,1.57,0.37,4.28,4.31,4.31
24.40,2.92,-1.40,2.94,-1.37,1.37,1.49,0.38,4.29,4.31,4.32
24.65,2.97,-1.34,2.98,-1.33,1.33,1.42,0.39,4.30,4.31,4.31
24.89,3.02,-1.29,3.02,-1.29,1.29,1.35,0.40,4.31,4.31,4.31
25.14,3.07,-1.24,3.07,-1.25,1.25,1.28,0.42,4.32,4.31,4.31
25.39,3.12,-1.20,3.11,-1.20,1.20,1.21,0.43,4.33,4.31,4.32
25.65,3.18,-1.14,3.16,-1.15,1.15,1.14,0.44,4.33,4.31,4.32
25.91,3.23,-1.08,3.22,-1.10,1.10,1.07,0.45,4.33,4.31,4.31
26.16,3.28,-1.02,3.27,-1.04,1.04,1.01,0.46,4.32,4.31,4.31
26.43,3.32,-0.98,3.34,-0.97,0.97,0.95,0.47,4.29,4.31,4.30
26.69,3.36,-0.94,3.40,-0.91,0.91,0.89,0.48,4.27,4.31,4.30
26.96,3.40,-0.91,3.46,-0.85,0.85,0.84,0.49,4.25,4.30,4.31
27.23,3.48,-0.83,3.51,-0.79,0.79,0.79,0.50,4.27,4.30,4.31
27.50,3.56,-0.75,3.57,-0.73,0.73,0.74,0.50,4.30,4.30,4.31
27.77,3.64,-0.66,3.62,-0.68,0.68,0.69,0.51,4.32,4.30,4.30
28.05,3.71,-0.58,3.67,-0.63,0.63,0.64,0.52,4.34,4.30,4.30
28.33,3.76,-0.52,3.72,-0.57,0.57,0.60,0.52,4.34,4.29,4.28
28.62,3.82,-0.46,3.77,-0.52,0.52,0.55,0.53,4.34,4.29,4.28
28.90,3.87,-0.42,3.82,-0.47,0.47,0.51,0.53,4.34,4.29,4.29
29.19,3.89,-0.39,3.87,-0.42,0.42,0.48,0.53,4.31,4.29,4.28
29.48,3.90,-0.40,3.92,-0.36,0.36,0.44,0.53,4.27,4.29,4.30
29.78,3.91,-0.37,3.97,-0.32,0.32,0.40,0.53,4.23,4.29,4.29
30.08,3.93,-0.36,4.01,-0.27,0.27,0.37,0.53,4.20,4.28,4.29
30.38,4.01,-0.27,4.05,-0.23,0.23,0.34,0.53,4.24,4.28,4.28
30.68,4.09,-0.19,4.09,-0.19,0.19,0.30,0.52,4.28,4.28,4.28
30.99,4.17,-0.11,4.13,-0.15,0.15,0.27,0.52,4.32,4.28,4.28
31.30,4.20,-0.07,4.17,-0.10,0.10,0.24,0.51,4.31,4.28,4.27
31.61,4.23,-0.04,4.21,-0.06,0.06,0.22,0.50,4.29,4.27,4.27
31.93,4.26,-0.01,4.25,-0.02,0.02,0.19,0.49,4.28,4.27,4.27
32.24,4.30,0.05,4.29,0.02,-0.02,0.16,0.48,4.28,4.26,4.26
32.57,4.33,0.07,4.33,0.07,-0.07,0.14,0.46,4.26,4.26,4.26
32.89,4.37,0.11,4.37,0.12,-0.12,0.11,0.45,4.25,4.25,4.26
33.22,4.40,0.15,4.41,0.16,-0.16,0.09,0.43,4.24,4.25,4.25
33.55,4.42,0.18,4.44,0.20,-0.20,0.07,0.41,4.22,4.24,4.24
33.89,4.45,0.22,4.47,0.23,-0.23,0.04,0.39,4.22,4.24,4.23
34.23,4.48,0.24,4.49,0.26,-0.26,0.02,0.37,4.22,4.23,4.24
34.57,4.52,0.30,4.52,0.29,-0.29,0.00,0.35,4.23,4.23,4.22
34.92,4.55,0.33,4.55,0.32,-0.32,-0.02,0.33,4.23,4.22,4.22
35.27,4.59,0.37,4.57,0.36,-0.36,-0.04,0.30,4.24,4.22,4.22
35.62,4.62,0.41,4.60,0.39,-0.39,-0.06,0.28,4.23,4.22,4.21
35.97,4.66,0.45,4.63,0.42,-0.42,-0.08,0.25,4.24,4.21,4.21
36.33,4.66,0.45,4.66,0.45,-0.45,-0.10,0.23,4.21,4.21,4.21
36.70,4.66,0.46,4.68,0.47,-0.47,-0.12,0.20,4.19,4.21,4.20
37.06,4.67,0.48,4.70,0.50,-0.50,-0.14,0.17,4.18,4.21,4.20
37.43,4.70,0.49,4.73,0.52,-0.52,-0.16,0.14,4.18,4.21,4.21
37.81,4.74,0.54,4.75,0.54,-0.54,-0.17,0.11,4.20,4.21,4.21
38.19,4.78,0.58,4.77,0.57,-0.57,-0.19,0.08,4.21,4.20,4.20
38.57,4.81,0.61,4.80,0.59,-0.59,-0.21,0.05,4.22,4.20,4.21
38.95,4.85,0.64,4.82,0.62,-0.62,-0.23,0.02,4.23,4.20,4.21
39.34,4.85,0.65,4.85,0.65,-0.65,-0.25,-0.01,4.21,4.20,4.20
39.74,4.85,0.65,4.87,0.67,-0.67,-0.26,-0.04,4.18,4.20,4.20
40.14,4.86,0.66,4.90,0.70,-0.70,-0.28,-0.07,4.16,4.20,4.20
40.54,4.90,0.71,4.93,0.73,-0.73,-0.30,-0.11,4.17,4.20,4.20
40.94,4.94,0.75,4.95,0.76,-0.76,-0.32,-0.14,4.18,4.19,4.19
41.35,4.98,0.80,4.97,0.79,-0.79,-0.33,-0.17,4.19,4.18,4.18
41.76,5.02,0.85,4.99,0.81,-0.81,-0.35,-0.20,4.21,4.18,4.17
42.18,5.04,0.86,5.00,0.84,-0.84,-0.37,-0.24,4.20,4.17,4.18
42.60,5.04,0.88,5.01,0.86,-0.86,-0.38,-0.27,4.18,4.15,4.16
43.03,5.04,0.89,5.02,0.88,-0.88,-0.40,-0.30,4.16,4.14,4.15
43.46,5.04,0.90,5.03,0.90,-0.90,-0.42,-0.34,4.14,4.13,4.14
43.90,5.04,0.93,5.04,0.93,-0.93,-0.44,-0.37,4.12,4.12,4.11
44.33,5.04,0.95,5.05,0.95,-0.95,-0.45,-0.41,4.09,4.10,4.10
44.78,5.04,0.97,5.06,0.97,-0.97,-0.47,-0.44,4.07,4.09,4.08
45.23,5.04,0.98,5.06,0.99,-0.99,-0.49,-0.48,4.05,4.07,4.07
45.68,5.03,0.99,5.07,1.01,-1.01,-0.51,-0.51,4.02,4.05,4.05
46.13,5.04,1.02,5.07,1.03,-1.03,-0.52,-0.55,4.01,4.04,4.03
46.60,5.05,1.03,5.08,1.06,-1.06,-0.54,-0.59,4.00,4.02,4.02
47.06,5.07,1.07,5.09,1.08,-1.08,-0.56,-0.62,3.99,4.01,4.00
47.53,5.11,1.12,5.10,1.11,-1.11,-0.58,-0.66,4.00,3.99,3.99
48.01,5.14,1.15,5.11,1.14,-1.14,-0.60,-0.69,4.00,3.97,3.99
48.49,5.14,1.17,5.13,1.17,-1.17,-0.61,-0.73,3.97,3.96,3.97
48.97,5.14,1.20,5.13,1.19,-1.19,-0.63,-0.77,3.95,3.94,3.94
49.46,5.14,1.22,5.14,1.21,-1.21,-0.65,-0.81,3.93,3.93,3.92
49.96,5.14,1.24,5.14,1.23,-1.23,-0.67,-0.84,3.91,3.91,3.90
50.46,5.14,1.25,5.14,1.25,-1.25,-0.69,-0.88,3.90,3.89,3.89
50.96,5.14,1.26,5.14,1.26,-1.26,-0.71,-0.92,3.88,3.88,3.88
51.47,5.14,1.29,5.13,1.27,-1.27,-0.73,-0.96,3.87,3.86,3.85
51.99,5.14,1.31,5.13,1.28,-1.28,-0.75,-0.99,3.86,3.85,3.84
52.51,5.13,1.30,5.12,1.29,-1.29,-0.77,-1.03,3.85,3.83,3.83
53.03,5.12,1.30,5.10,1.29,-1.29,-0.79,-1.07,3.83,3.82,3.82
53.56,5.05,1.25,5.09,1.29,-1.29,-0.81,-1.10,3.76,3.80,3.81
54.10,5.00,1.22,5.07,1.29,-1.29,-0.83,-1.14,3.71,3.79,3.79
54.64,5.03,1.26,5.06,1.28,-1.28,-0.86,-1.18,3.75,3.77,3.77
55.18,5.04,1.28,5.04,1.28,-1.28,-0.88,-1.21,3.76,3.76,3.76
55.74,5.04,1.30,5.02,1.27,-1.27,-0.90,-1.25,3.77,3.74,3.74
56.29,5.02,1.29,4.99,1.26,-1.26,-0.92,-1.28,3.76,3.73,3.73
56.86,4.98,1.28,4.96,1.25,-1.25,-0.94,-1.31,3.74,3.71,3.71
57.42,4.92,1.25,4.93,1.24,-1.24,-0.97,-1.34,3.68,3.69,3.67
58.00,4.86,1.20,4.89,1.23,-1.23,-0.99,-1.38,3.63,3.66,3.66
58.58,4.85,1.20,4.84,1.21,-1.21,-1.01,-1.41,3.64,3.64,3.65
59.16,4.83,1.21,4.78,1.17,-1.17,-1.04,-1.43,3.66,3.61,3.62
59.76,4.75,1.15,4.73,1.15,-1.15,-1.06,-1.46,3.60,3.58,3.60
60.35,4.70,1.15,4.67,1.13,-1.13,-1.09,-1.49,3.57,3.54,3.55
60.96,4.65,1.14,4.61,1.11,-1.11,-1.11,-1.51,3.55,3.50,3.51
61.57,4.52,1.05,4.56,1.09,-1.09,-1.14,-1.54,3.43,3.46,3.47
62.18,4.44,1.02,4.50,1.08,-1.08,-1.16,-1.56,3.36,3.42,3.42
62.80,4.49,1.12,4.43,1.06,-1.06,-1.19,-1.58,3.43,3.38,3.37
63.43,4.37,1.05,4.37,1.04,-1.04,-1.22,-1.60,3.33,3.33,3.32
64.07,4.18,0.91,4.30,1.03,-1.03,-1.24,-1.62,3.16,3.28,3.27
64.71,4.10,0.88,4.25,1.02,-1.02,-1.27,-1.64,3.08,3.23,3.22
65.35,4.17,1.00,4.20,1.03,-1.03,-1.30,-1.65,3.14,3.17,3.17
66.01,4.36,1.24,4.16,1.03,-1.03,-1.33,-1.67,3.33,3.12,3.12
66.67,4.19,1.13,4.11,1.04,-1.04,-1.36,-1.68,3.16,3.07,3.07
67.33,4.08,1.07,4.05,1.04,-1.04,-1.39,-1.70,3.04,3.02,3.01
68.01,4.02,1.06,4.01,1.05,-1.05,-1.42,-1.71,2.97,2.96,2.96
68.69,3.85,0.95,3.97,1.06,-1.06,-1.45,-1.72,2.79,2.90,2.91
69.37,3.83,0.98,3.92,1.07,-1.07,-1.48,-1.73,2.76,2.85,2.85
70.07,3.92,1.13,3.88,1.09,-1.09,-1.51,-1.75,2.83,2.79,2.79
70.77,3.99,1.25,3.85,1.12,-1.12,-1.54,-1.76,2.87,2.73,2.74
71.48,3.95,1.27,3.83,1.16,-1.16,-1.57,-1.77,2.79,2.67,2.68
72.19,3.84,1.24,3.81,1.20,-1.20,-1.60,-1.78,2.64,2.60,2.61
72.91,3.64,1.10,3.79,1.25,-1.25,-1.63,-1.79,2.39,2.54,2.54
73.64,3.69,1.21,3.80,1.32,-1.32,-1.67,-1.80,2.37,2.48,2.48
74.38,3.77,1.36,3.84,1.42,-1.42,-1.70,-1.82,2.35,2.41,2.41
75.12,3.83,1.48,3.88,1.53,-1.53,-1.73,-1.83,2.30,2.35,2.35
75.87,3.80,1.52,3.94,1.65,-1.65,-1.76,-1.84,2.15,2.29,2.28
76.63,3.91,1.69,4.00,1.77,-1.77,-1.80,-1.86,2.14,2.23,2.22
77.40,4.04,1.88,4.06,1.89,-1.89,-1.83,-1.88,2.15,2.17,2.16
78.17,4.16,2.07,4.12,2.01,-2.01,-1.87,-1.89,2.15,2.11,2.09
78.95,4.25,2.20,4.19,2.14,-2.14,-1.90,-1.91,2.11,2.05,2.05
79.74,4.33,2.34,4.26,2.27,-2.27,-1.94,-1.93,2.06,1.99,1.99
80.54,4.41,2.47,4.33,2.40,-2.40,-1.97,-1.95,2.02,1.93,1.94
81.35,4.46,2.59,4.38,2.51,-2.51,-2.01,-1.98,1.95,1.88,1.87
82.16,4.46,2.64,4.42,2.60,-2.60,-2.04,-2.00,1.86,1.82,1.82
82.98,4.48,2.71,4.44,2.68,-2.68,-2.08,-2.03,1.81,1.76,1.77
83.81,4.49,2.78,4.45,2.74,-2.74,-2.11,-2.05,1.75,1.71,1.71
84.65,4.41,2.76,4.44,2.79,-2.79,-2.15,-2.08,1.62,1.65,1.65
85.50,4.41,2.81,4.42,2.82,-2.82,-2.18,-2.11,1.59,1.59,1.60
86.35,4.41,2.87,4.38,2.84,-2.84,-2.22,-2.14,1.57,1.54,1.54
87.22,4.29,2.81,4.34,2.86,-2.86,-2.26,-2.18,1.43,1.48,1.48
88.09,4.22,2.80,4.29,2.87,-2.87,-2.29,-2.21,1.35,1.42,1.42
88.97,4.18,2.82,4.23,2.87,-2.87,-2.33,-2.25,1.31,1.36,1.36
89.86,4.18,2.88,4.16,2.86,-2.86,-2.36,-2.29,1.32,1.30,1.30
90.76,4.11,2.88,4.08,2.84,-2.84,-2.40,-2.33,1.28,1.24,1.24
91.66,3.98,2.80,3.99,2.81,-2.81,-2.43,-2.38,1.17,1.18,1.18
92.58,3.89,2.78,3.89,2.77,-2.77,-2.46,-2.42,1.12,1.12,1.11
93.51,3.83,2.78,3.80,2.74,-2.74,-2.50,-2.47,1.09,1.06,1.06
94.44,3.77,2.77,3.70,2.70,-2.70,-2.53,-2.52,1.07,1.00,1.00
95.39,3.69,2.75,3.60,2.65,-2.65,-2.56,-2.56,1.04,0.94,0.94
96.34,3.56,2.68,3.49,2.61,-2.61,-2.60,-2.62,0.95,0.88,0.88
97.30,3.39,2.57,3.39,2.57,-2.57,-2.63,-2.67,0.82,0.83,0.82
98.28,3.23,2.47,3.30,2.53,-2.53,-2.66,-2.72,0.70,0.77,0.77
99.26,3.08,2.37,3.21,2.50,-2.50,-2.69,-2.77,0.58,0.71,0.71
100.25,3.03,2.38,3.13,2.48,-2.48,-2.72,-2.83,0.55,0.65,0.65
101.25,3.04,2.45,3.06,2.47,-2.47,-2.75,-2.89,0.57,0.59,0.60
102.27,2.99,2.45,3.01,2.47,-2.47,-2.77,-2.94,0.52,0.54,0.54
103.29,2.93,2.46,2.98,2.50,-2.50,-2.80,-3.00,0.43,0.48,0.47
104.32,2.89,2.47,2.94,2.53,-2.53,-2.82,-3.05,0.36,0.42,0.42
105.37,2.89,2.53,2.92,2.56,-2.56,-2.85,-3.11,0.33,0.36,0.36
106.42,2.87,2.56,2.90,2.60,-2.60,-2.87,-3.16,0.27,0.30,0.31
107.48,2.88,2.64,2.88,2.65,-2.65,-2.89,-3.22,0.23,0.23,0.24
108.56,2.96,2.79,2.87,2.70,-2.70,-2.91,-3.27,0.26,0.17,0.17
109.64,2.95,2.84,2.86,2.75,-2.75,-2.93,-3.32,0.20,0.11,0.11
110.74,2.89,2.84,2.84,2.79,-2.79,-2.95,-3.36,0.10,0.05,0.05
111.85,2.86,2.86,2.83,2.84,-2.84,-2.96,-3.41,0.02,-0.01,-0.00
112.97,2.91,2.99,2.80,2.88,-2.88,-2.98,-3.45,0.04,-0.07,-0.08
114.10,2.91,3.05,2.79,2.93,-2.93,-2.99,-3.49,-0.01,-0.13,-0.13
115.24,2.61,2.80,2.78,2.97,-2.97,-3.00,-3.52,-0.35,-0.19,-0.19
116.39,2.61,2.87,2.75,2.99,-2.99,-3.01,-3.55,-0.38,-0.24,-0.26
117.55,2.63,2.93,2.72,3.02,-3.02,-3.01,-3.58,-0.39,-0.29,-0.30
118.73,2.66,3.02,2.70,3.05,-3.05,-3.02,-3.60,-0.39,-0.34,-0.36
119.92,2.66,3.05,2.67,3.07,-3.07,-3.02,-3.61,-0.41,-0.39,-0.39
121.12,2.67,3.12,2.64,3.08,-3.08,-3.02,-3.62,-0.41,-0.44,-0.44
122.33,2.68,3.17,2.62,3.10,-3.10,-3.02,-3.62,-0.42,-0.48,-0.49
123.55,2.63,3.15,2.60,3.12,-3.12,-3.02,-3.62,-0.49,-0.53,-0.52
124.79,2.60,3.16,2.56,3.12,-3.12,-3.02,-3.61,-0.52,-0.57,-0.56
126.03,2.59,3.20,2.51,3.12,-3.12,-3.01,-3.60,-0.52,-0.61,-0.60
127.29,2.41,3.05,2.47,3.12,-3.12,-3.00,-3.57,-0.71,-0.65,-0.63
128.57,2.38,3.07,2.45,3.13,-3.13,-2.99,-3.55,-0.75,-0.69,-0.68
129.85,2.52,3.25,2.40,3.12,-3.12,-2.98,-3.51,-0.60,-0.72,-0.72
131.15,2.36,3.12,2.34,3.10,-3.10,-2.97,-3.47,-0.74,-0.76,-0.76
132.46,2.20,3.00,2.26,3.06,-3.06,-2.96,-3.43,-0.86,-0.80,-0.80
133.79,2.18,3.02,2.19,3.03,-3.03,-2.94,-3.37,-0.84,-0.84,-0.84
135.12,2.15,3.03,2.12,2.99,-2.99,-2.92,-3.32,-0.84,-0.87,-0.88
136.48,1.98,2.89,2.06,2.97,-2.97,-2.90,-3.26,-0.98,-0.91,-0.91
137.84,1.85,2.80,2.00,2.94,-2.94,-2.88,-3.19,-1.09,-0.94,-0.95
139.22,1.96,2.96,1.92,2.90,-2.90,-2.86,-3.12,-0.94,-0.98,-0.99
140.61,1.98,3.02,1.84,2.86,-2.86,-2.83,-3.05,-0.88,-1.02,-1.04
142.02,1.79,2.85,1.76,2.83,-2.83,-2.81,-2.97,-1.03,-1.06,-1.06
143.44,1.63,2.73,1.68,2.78,-2.78,-2.78,-2.89,-1.15,-1.10,-1.10
144.87,1.46,2.61,1.59,2.74,-2.74,-2.75,-2.81,-1.28,-1.15,-1.15
146.32,1.50,2.70,1.51,2.71,-2.71,-2.72,-2.73,-1.21,-1.20,-1.20
147.78,1.53,2.76,1.43,2.69,-2.69,-2.69,-2.64,-1.16,-1.26,-1.23
149.26,1.42,2.71,1.32,2.64,-2.64,-2.66,-2.55,-1.22,-1.32,-1.29
150.75,1.25,2.62,1.20,2.59,-2.59,-2.62,-2.46,-1.34,-1.39,-1.36
152.26,1.02,2.46,1.08,2.53,-2.53,-2.59,-2.37,-1.51,-1.46,-1.44
153.78,0.89,2.40,0.95,2.48,-2.48,-2.55,-2.28,-1.58,-1.53,-1.51
155.32,0.87,2.47,0.81,2.42,-2.42,-2.52,-2.19,-1.55,-1.61,-1.60
156.88,0.83,2.51,0.69,2.38,-2.38,-2.48,-2.10,-1.55,-1.69,-1.68
158.44,0.62,2.39,0.59,2.35,-2.35,-2.44,-2.01,-1.73,-1.76,-1.77
160.03,0.44,2.30,0.49,2.33,-2.33,-2.40,-1.92,-1.88,-1.84,-1.86
161.63,0.39,2.33,0.38,2.30,-2.30,-2.36,-1.83,-1.90,-1.91,-1.94
163.24,0.20,2.20,0.28,2.26,-2.26,-2.32,-1.74,-2.06,-1.98,-2.00
164.88,-0.12,1.94,0.19,2.23,-2.23,-2.28,-1.65,-2.35,-2.04,-2.06
166.53,-0.08,2.04,0.11,2.21,-2.21,-2.24,-1.56,-2.29,-2.10,-2.11
168.19,0.04,2.20,0.04,2.19,-2.19,-2.19,-1.48,-2.14,-2.14,-2.16
169.87,0.09,2.29,-0.02,2.16,-2.16,-2.15,-1.39,-2.07,-2.18,-2.20
171.57,0.01,2.24,-0.10,2.11,-2.11,-2.11,-1.30,-2.10,-2.21,-2.23
173.29,-0.07,2.18,-0.18,2.06,-2.06,-2.06,-1.22,-2.13,-2.24,-2.25
175.02,-0.15,2.11,-0.24,2.01,-2.01,-2.02,-1.13,-2.16,-2.26,-2.26
176.77,-0.25,2.03,-0.30,1.98,-1.98,-1.98,-1.05,-2.23,-2.27,-2.28
178.54,-0.34,1.95,-0.35,1.93,-1.93,-1.93,-0.96,-2.27,-2.29,-2.29
180.32,-0.40,1.89,-0.42,1.88,-1.88,-1.89,-0.88,-2.28,-2.30,-2.29
182.13,-0.49,1.80,-0.47,1.83,-1.83,-1.84,-0.80,-2.32,-2.31,-2.29
183.95,-0.58,1.72,-0.53,1.79,-1.79,-1.79,-0.71,-2.37,-2.32,-2.30
185.79,-0.69,1.62,-0.61,1.72,-1.72,-1.75,-0.63,-2.41,-2.33,-2.31
187.65,-0.81,1.53,-0.71,1.64,-1.64,-1.70,-0.55,-2.45,-2.35,-2.33
189.52,-0.94,1.41,-0.80,1.56,-1.56,-1.65,-0.48,-2.50,-2.36,-2.35
191.42,-0.79,1.58,-0.87,1.51,-1.51,-1.60,-0.40,-2.30,-2.38,-2.37
193.33,-0.79,1.61,-0.93,1.46,-1.46,-1.56,-0.32,-2.25,-2.40,-2.40
195.27,-0.98,1.44,-1.00,1.42,-1.42,-1.51,-0.24,-2.39,-2.42,-2.42
197.22,-1.08,1.36,-1.06,1.38,-1.38,-1.46,-0.17,-2.45,-2.44,-2.44
199.19,-1.13,1.34,-1.13,1.33,-1.33,-1.41,-0.09,-2.46,-2.46,-2.47
201.18,-1.18,1.31,-1.21,1.28,-1.28,-1.36,-0.02,-2.45,-2.49,-2.49
203.19,-1.27,1.24,-1.30,1.21,-1.21,-1.31,0.05,-2.48,-2.51,-2.51
205.23,-1.47,1.07,-1.39,1.15,-1.15,-1.26,0.12,-2.61,-2.54,-2.54
207.28,-1.61,0.94,-1.47,1.09,-1.09,-1.21,0.19,-2.70,-2.56,-2.55
209.35,-1.48,1.10,-1.56,1.02,-1.02,-1.15,0.26,-2.50,-2.58,-2.58
211.44,-1.51,1.10,-1.66,0.95,-0.95,-1.10,0.33,-2.45,-2.60,-2.61
213.56,-1.70,0.92,-1.76,0.86,-0.86,-1.05,0.39,-2.56,-2.62,-2.62
215.69,-1.87,0.77,-1.85,0.79,-0.79,-0.99,0.46,-2.65,-2.64,-2.64
217.85,-1.97,0.68,-1.95,0.70,-0.70,-0.94,0.52,-2.67,-2.65,-2.65
220.03,-2.20,0.47,-2.07,0.60,-0.60,-0.88,0.58,-2.80,-2.66,-2.67
222.23,-2.32,0.37,-2.18,0.50,-0.50,-0.82,0.64,-2.82,-2.67,-2.69
224.45,-2.26,0.43,-2.27,0.41,-0.41,-0.76,0.69,-2.66,-2.68,-2.69
226.70,-2.20,0.49,-2.36,0.32,-0.32,-0.70,0.75,-2.52,-2.68,-2.69
228.96,-2.36,0.32,-2.46,0.22,-0.22,-0.64,0.80,-2.58,-2.68,-2.68
231.25,-2.55,0.13,-2.56,0.12,-0.12,-0.57,0.85,-2.67,-2.68,-2.67
233.57,-2.70,-0.03,-2.66,0.00,-0.00,-0.51,0.89,-2.70,-2.67,-2.67
235.90,-2.76,-0.10,-2.76,-0.10,0.10,-0.44,0.93,-2.65,-2.65,-2.66
238.26,-2.91,-0.26,-2.84,-0.20,0.20,-0.37,0.97,-2.71,-2.64,-2.65
240.64,-3.12,-0.49,-2.92,-0.30,0.30,-0.30,1.01,-2.82,-2.62,-2.63
243.05,-3.02,-0.42,-3.00,-0.39,0.39,-0.22,1.04,-2.62,-2.60,-2.60
245.48,-2.89,-0.31,-3.07,-0.49,0.49,-0.14,1.07,-2.40,-2.58,-2.58
247.93,-3.05,-0.50,-3.15,-0.58,0.58,-0.06,1.09,-2.47,-2.56,-2.55
250.41,-3.23,-0.69,-3.21,-0.67,0.67,0.02,1.12,-2.56,-2.54,-2.54
252.92,-3.36,-0.85,-3.27,-0.75,0.75,0.11,1.14,-2.61,-2.52,-2.51
255.45,-3.38,-0.89,-3.33,-0.83,0.83,0.20,1.15,-2.55,-2.50,-2.49
258.00,-3.47,-1.00,-3.38,-0.91,0.91,0.29,1.16,-2.56,-2.47,-2.47
260.58,-3.49,-1.03,-3.44,-0.99,0.99,0.39,1.17,-2.50,-2.45,-2.46
263.19,-3.47,-1.05,-3.50,-1.07,1.07,0.49,1.18,-2.40,-2.43,-2.42
265.82,-3.49,-1.08,-3.56,-1.16,1.16,0.60,1.18,-2.33,-2.40,-2.41
268.48,-3.51,-1.12,-3.63,-1.25,1.25,0.71,1.18,-2.26,-2.38,-2.39
271.16,-3.64,-1.28,-3.71,-1.35,1.35,0.83,1.18,-2.29,-2.36,-2.36
273.87,-3.71,-1.37,-3.78,-1.44,1.44,0.95,1.18,-2.27,-2.33,-2.34
276.61,-3.74,-1.43,-3.83,-1.52,1.52,1.07,1.17,-2.22,-2.31,-2.31
279.38,-4.00,-1.71,-3.88,-1.60,1.60,1.20,1.16,-2.40,-2.28,-2.28
282.17,-4.11,-1.85,-3.94,-1.68,1.68,1.34,1.15,-2.43,-2.26,-2.26
284.99,-4.05,-1.82,-4.00,-1.77,1.77,1.47,1.14,-2.28,-2.23,-2.23
287.84,-4.06,-1.85,-4.06,-1.85,1.85,1.61,1.12,-2.21,-2.20,-2.21
290.72,-4.10,-1.92,-4.12,-1.94,1.94,1.75,1.11,-2.16,-2.17,-2.18
293.63,-4.23,-2.08,-4.18,-2.03,2.03,1.90,1.09,-2.20,-2.15,-2.15
296.57,-4.23,-2.11,-4.22,-2.11,2.11,2.04,1.08,-2.12,-2.12,-2.12
299.53,-4.19,-2.10,-4.27,-2.17,2.17,2.18,1.06,-2.02,-2.09,-2.09
302.53,-4.23,-2.15,-4.30,-2.23,2.23,2.31,1.04,-2.00,-2.07,-2.08
305.55,-4.33,-2.30,-4.33,-2.29,2.29,2.44,1.02,-2.04,-2.04,-2.03
308.61,-4.39,-2.37,-4.36,-2.34,2.34,2.56,1.00,-2.05,-2.02,-2.02
311.69,-4.38,-2.39,-4.38,-2.38,2.38,2.67,0.99,-1.99,-2.00,-1.99
314.81,-4.42,-2.45,-4.41,-2.44,2.44,2.76,0.97,-1.98,-1.98,-1.96
317.96,-4.47,-2.52,-4.45,-2.50,2.50,2.83,0.95,-1.97,-1.96,-1.95
321.14,-4.49,-2.55,-4.49,-2.55,2.55,2.89,0.93,-1.94,-1.94,-1.94
324.35,-4.49,-2.56,-4.51,-2.59,2.59,2.93,0.91,-1.90,-1.92,-1.93
327.59,-4.49,-2.58,-4.54,-2.63,2.63,2.94,0.89,-1.86,-1.91,-1.91
330.87,-4.56,-2.66,-4.56,-2.67,2.67,2.94,0.88,-1.89,-1.90,-1.90
334.18,-4.59,-2.70,-4.58,-2.69,2.69,2.91,0.86,-1.89,-1.88,-1.89
337.52,-4.59,-2.71,-4.59,-2.72,2.72,2.86,0.84,-1.87,-1.87,-1.88
340.90,-4.64,-2.78,-4.60,-2.73,2.73,2.80,0.83,-1.91,-1.87,-1.86
344.30,-4.64,-2.78,-4.60,-2.74,2.74,2.72,0.81,-1.90,-1.86,-1.85
347.75,-4.60,-2.74,-4.60,-2.74,2.74,2.62,0.80,-1.86,-1.86,-1.86
351.23,-4.59,-2.74,-4.59,-2.74,2.74,2.52,0.79,-1.85,-1.85,-1.85
354.74,-4.59,-2.74,-4.57,-2.72,2.72,2.41,0.77,-1.86,-1.85,-1.85
358.28,-4.55,-2.70,-4.55,-2.71,2.71,2.29,0.76,-1.84,-1.85,-1.84
361.87,-4.50,-2.65,-4.53,-2.68,2.68,2.17,0.75,-1.82,-1.84,-1.85
365.49,-4.48,-2.64,-4.49,-2.65,2.65,2.05,0.74,-1.83,-1.84,-1.84
369.14,-4.47,-2.62,-4.45,-2.61,2.61,1.93,0.73,-1.86,-1.85,-1.85
372.83,-4.46,-2.61,-4.41,-2.56,2.56,1.81,0.72,-1.90,-1.85,-1.85
376.56,-4.37,-2.51,-4.37,-2.51,2.51,1.69,0.71,-1.85,-1.85,-1.85
380.33,-4.29,-2.44,-4.32,-2.47,2.47,1.58,0.70,-1.82,-1.85,-1.85
384.13,-4.26,-2.41,-4.28,-2.42,2.42,1.47,0.69,-1.84,-1.86,-1.85
387.97,-4.24,-2.38,-4.24,-2.38,2.38,1.36,0.69,-1.86,-1.86,-1.86
391.85,-4.17,-2.30,-4.19,-2.32,2.32,1.26,0.68,-1.84,-1.87,-1.87
395.77,-4.11,-2.24,-4.15,-2.27,2.27,1.16,0.67,-1.84,-1.87,-1.86
399.73,-4.06,-2.18,-4.10,-2.22,2.22,1.07,0.67,-1.84,-1.88,-1.88
403.72,-3.99,-2.11,-4.04,-2.15,2.15,0.98,0.66,-1.84,-1.89,-1.88
407.76,-3.95,-2.06,-3.97,-2.08,2.08,0.90,0.66,-1.87,-1.89,-1.89
411.84,-3.92,-2.03,-3.90,-2.01,2.01,0.82,0.65,-1.91,-1.89,-1.89
415.96,-3.88,-1.99,-3.82,-1.93,1.93,0.75,0.65,-1.95,-1.89,-1.89
420.12,-3.82,-1.93,-3.74,-1.84,1.84,0.67,0.64,-1.97,-1.89,-1.89
424.32,-3.69,-1.80,-3.64,-1.75,1.75,0.61,0.64,-1.94,-1.89,-1.89
428.56,-3.55,-1.66,-3.53,-1.65,1.65,0.54,0.63,-1.90,-1.88,-1.88
432.85,-3.44,-1.56,-3.40,-1.54,1.54,0.48,0.63,-1.90,-1.86,-1.88
437.18,-3.30,-1.43,-3.27,-1.43,1.43,0.43,0.62,-1.87,-1.84,-1.87
441.55,-3.11,-1.28,-3.13,-1.31,1.31,0.37,0.62,-1.80,-1.82,-1.83
445.96,-2.95,-1.15,-2.97,-1.19,1.19,0.32,0.61,-1.76,-1.78,-1.80
450.42,-2.83,-1.06,-2.82,-1.07,1.07,0.27,0.61,-1.76,-1.75,-1.77
454.93,-2.67,-0.95,-2.65,-0.94,0.94,0.22,0.60,-1.73,-1.71,-1.72
459.48,-2.46,-0.79,-2.47,-0.80,0.80,0.17,0.59,-1.65,-1.66,-1.67
464.07,-2.28,-0.66,-2.29,-0.67,0.67,0.13,0.58,-1.60,-1.62,-1.62
468.71,-2.12,-0.56,-2.12,-0.55,0.55,0.09,0.57,-1.57,-1.57,-1.56
473.40,-1.94,-0.41,-1.96,-0.43,0.43,0.05,0.56,-1.50,-1.52,-1.52
478.13,-1.78,-0.31,-1.80,-0.32,0.32,0.01,0.55,-1.46,-1.47,-1.46
482.91,-1.63,-0.20,-1.63,-0.20,0.20,-0.03,0.54,-1.43,-1.43,-1.43
487.74,-1.51,-0.12,-1.48,-0.09,0.09,-0.07,0.52,-1.42,-1.39,-1.39
492.62,-1.36,-0.02,-1.34,0.01,-0.01,-0.10,0.51,-1.37,-1.35,-1.34
497.55,-1.18,0.14,-1.21,0.12,-0.12,-0.14,0.49,-1.29,-1.32,-1.32
502.52,-1.02,0.27,-1.08,0.22,-0.22,-0.18,0.47,-1.24,-1.30,-1.29
