frequency,raw,error,smoothed,error_smoothed,equalization,parametric_eq,fixed_band_eq,equalized_raw,equalized_smoothed,target
20.00,-2.87,-8.73,-2.87,-8.73,8.73,6.09,1.85,5.87,5.87,5.87
20.20,-2.85,-8.75,-2.84,-8.75,8.76,6.07,1.92,5.91,5.91,5.91
20.40,-2.82,-8.76,-2.82,-8.77,8.77,6.05,1.99,5.96,5.95,5.95
20.61,-2.80,-8.77,-2.80,-8.78,8.78,6.04,2.06,5.99,5.99,5.98
20.81,-2.77,-8.78,-2.77,-8.79,8.79,6.02,2.13,6.02,6.02,6.02
21.02,-2.75,-8.80,-2.74,-8.79,8.78,6.02,2.21,6.04,6.04,6.06
21.23,-2.71,-8.78,-2.70,-8.78,8.78,6.02,2.28,6.07,6.07,6.08
21.44,-2.66,-8.75,-2.66,-8.76,8.76,6.04,2.36,6.10,6.10,6.10
21.66,-2.62,-8.73,-2.62,-8.73,8.74,6.05,2.44,6.12,6.12,6.12
21.87,-2.58,-8.70,-2.58,-8.71,8.71,6.08,2.53,6.13,6.13,6.13
22.09,-2.54,-8.68,-2.53,-8.68,8.68,6.12,2.62,6.14,6.15,6.15
22.31,-2.48,-8.63,-2.48,-8.64,8.63,6.18,2.71,6.16,6.16,6.16
22.54,-2.42,-8.59,-2.42,-8.59,8.59,6.24,2.80,6.17,6.17,6.17
22.76,-2.37,-8.54,-2.36,-8.54,8.54,6.33,2.90,6.17,6.18,6.18
22.99,-2.31,-8.48,-2.30,-8.48,8.49,6.43,3.00,6.18,6.18,6.18
23.22,-2.24,-8.42,-2.24,-8.43,8.43,6.57,3.10,6.19,6.19,6.19
23.45,-2.17,-8.36,-2.17,-8.36,8.37,6.71,3.20,6.20,6.20,6.20
23.69,-2.10,-8.31,-2.10,-8.30,8.31,6.90,3.31,6.21,6.21,6.21
23.92,-2.02,-8.23,-2.02,-8.24,8.24,7.10,3.42,6.22,6.22,6.22
24.16,-1.94,-8.17,-1.93,-8.17,8.16,7.37,3.53,6.23,6.23,6.24
24.40,-1.84,-8.09,-1.84,-8.09,8.08,7.65,3.65,6.25,6.24,6.26
24.65,-1.75,-8.00,-1.75,-8.00,8.00,8.02,3.77,6.25,6.25,6.25
24.89,-1.65,-7.91,-1.65,-7.91,7.91,8.40,3.88,6.26,6.26,6.26
25.14,-1.55,-7.81,-1.55,-7.81,7.82,8.86,4.00,6.27,6.27,6.27
25.39,-1.43,-7.71,-1.44,-7.72,7.72,9.31,4.12,6.28,6.28,6.28
25.65,-1.33,-7.63,-1.32,-7.62,7.61,9.73,4.25,6.29,6.29,6.30
25.91,-1.21,-7.51,-1.20,-7.51,7.51,10.09,4.37,6.30,6.30,6.30
26.16,-1.07,-7.38,-1.08,-7.39,7.39,10.07,4.49,6.32,6.31,6.31
26.43,-0.95,-7.27,-0.95,-7.27,7.27,9.98,4.61,6.32,6.32,6.32
26.69,-0.82,-7.14,-0.82,-7.15,7.15,9.42,4.73,6.33,6.33,6.33
26.96,-0.68,-7.03,-0.68,-7.02,7.02,8.84,4.85,6.34,6.34,6.35
27.23,-0.53,-6.89,-0.53,-6.88,6.88,8.12,4.96,6.35,6.35,6.36
27.50,-0.37,-6.73,-0.37,-6.74,6.73,7.41,5.07,6.36,6.36,6.36
27.77,-0.21,-6.57,-0.21,-6.58,6.58,6.75,5.17,6.36,6.37,6.36
28.05,-0.06,-6.43,-0.05,-6.42,6.42,6.12,5.26,6.37,6.37,6.38
28.33,0.13,-6.24,0.13,-6.25,6.26,5.57,5.34,6.39,6.38,6.38
28.62,0.31,-6.08,0.31,-6.08,6.08,5.03,5.42,6.39,6.39,6.39
28.90,0.49,-5.90,0.50,-5.90,5.90,4.56,5.48,6.40,6.40,6.40
29.19,0.69,-5.70,0.69,-5.71,5.72,4.10,5.53,6.41,6.41,6.40
29.48,0.90,-5.52,0.89,-5.52,5.52,3.69,5.56,6.42,6.41,6.43
29.78,1.10,-5.32,1.11,-5.32,5.31,3.29,5.58,6.41,6.42,6.42
30.08,1.32,-5.11,1.33,-5.10,5.09,2.93,5.57,6.41,6.42,6.43
30.38,1.58,-4.85,1.57,-4.86,4.86,2.57,5.55,6.43,6.43,6.43
30.68,1.83,-4.62,1.83,-4.61,4.61,2.25,5.49,6.44,6.43,6.45
30.99,2.09,-4.36,2.10,-4.35,4.35,1.93,5.43,6.44,6.44,6.45
31.30,2.38,-4.07,2.38,-4.07,4.07,1.63,5.34,6.45,6.45,6.45
31.61,2.68,-3.78,2.68,-3.78,3.78,1.33,5.23,6.46,6.46,6.46
31.93,2.98,-3.49,2.99,-3.48,3.48,1.05,5.09,6.46,6.47,6.47
32.24,3.31,-3.16,3.30,-3.17,3.17,0.77,4.94,6.48,6.48,6.47
32.57,3.63,-2.86,3.63,-2.86,2.85,0.51,4.75,6.49,6.48,6.49
32.89,3.96,-2.53,3.96,-2.53,2.53,0.24,4.56,6.49,6.49,6.49
33.22,4.29,-2.20,4.30,-2.20,2.20,-0.01,4.33,6.49,6.50,6.50
33.55,4.65,-1.86,4.64,-1.86,1.86,-0.27,4.10,6.51,6.51,6.51
33.89,4.99,-1.53,4.99,-1.52,1.53,-0.52,3.85,6.52,6.52,6.52
34.23,5.34,-1.18,5.34,-1.18,1.18,-0.77,3.59,6.52,6.52,6.52
34.57,5.69,-0.83,5.69,-0.83,0.84,-1.02,3.30,6.53,6.53,6.53
34.92,6.04,-0.49,6.04,-0.49,0.49,-1.26,3.02,6.53,6.53,6.53
35.27,6.40,-0.14,6.40,-0.14,0.14,-1.51,2.72,6.54,6.53,6.54
35.62,6.75,0.21,6.75,0.21,-0.21,-1.75,2.41,6.54,6.54,6.54
35.97,7.11,0.57,7.11,0.57,-0.57,-2.00,2.09,6.54,6.54,6.54
36.33,7.47,0.92,7.46,0.92,-0.92,-2.24,1.77,6.55,6.55,6.55
36.70,7.82,1.28,7.82,1.28,-1.27,-2.49,1.45,6.55,6.55,6.54
37.06,8.18,1.63,8.18,1.63,-1.63,-2.74,1.12,6.55,6.55,6.55
37.43,8.54,1.99,8.53,1.98,-1.99,-2.99,0.78,6.55,6.54,6.55
37.81,8.88,2.33,8.89,2.34,-2.35,-3.24,0.45,6.54,6.54,6.55
38.19,9.24,2.69,9.24,2.70,-2.71,-3.49,0.11,6.53,6.54,6.55
38.57,9.60,3.06,9.61,3.07,-3.07,-3.75,-0.23,6.53,6.54,6.54
38.95,9.98,3.44,9.97,3.44,-3.43,-4.01,-0.58,6.55,6.54,6.54
39.34,10.34,3.81,10.34,3.81,-3.79,-4.27,-0.92,6.54,6.54,6.53
39.74,10.69,4.16,10.69,4.16,-4.16,-4.53,-1.26,6.53,6.53,6.53
40.14,11.05,4.52,11.05,4.52,-4.52,-4.80,-1.61,6.53,6.52,6.53
40.54,11.40,4.87,11.40,4.88,-4.89,-5.07,-1.95,6.51,6.52,6.53
40.94,11.76,5.25,11.76,5.24,-5.25,-5.34,-2.30,6.52,6.52,6.52
41.35,12.12,5.61,12.12,5.61,-5.61,-5.62,-2.65,6.52,6.52,6.52
41.76,12.49,5.97,12.49,5.97,-5.97,-5.90,-3.00,6.52,6.52,6.52
42.18,12.85,6.33,12.85,6.33,-6.33,-6.18,-3.35,6.52,6.52,6.52
42.60,13.21,6.69,13.20,6.68,-6.69,-6.47,-3.70,6.52,6.52,6.52
43.03,13.55,7.04,13.56,7.04,-7.04,-6.77,-4.05,6.51,6.51,6.52
43.46,13.91,7.40,13.91,7.40,-7.40,-7.06,-4.40,6.51,6.51,6.52
43.90,14.26,7.76,14.26,7.76,-7.75,-7.37,-4.76,6.51,6.51,6.50
44.33,14.61,8.11,14.61,8.11,-8.11,-7.67,-5.11,6.50,6.50,6.50
44.78,14.95,8.46,14.95,8.46,-8.46,-7.99,-5.47,6.50,6.49,6.49
45.23,15.29,8.80,15.30,8.81,-8.80,-8.30,-5.83,6.49,6.49,6.49
45.68,15.64,9.15,15.64,9.15,-9.15,-8.62,-6.20,6.49,6.49,6.49
46.13,15.99,9.51,15.98,9.50,-9.50,-8.95,-6.56,6.49,6.48,6.48
46.60,16.32,9.83,16.32,9.84,-9.84,-9.28,-6.93,6.48,6.48,6.49
47.06,16.66,10.19,16.67,10.19,-10.19,-9.62,-7.31,6.47,6.47,6.48
47.53,17.01,10.55,17.01,10.54,-10.55,-9.96,-7.69,6.47,6.47,6.47
48.01,17.37,10.89,17.37,10.90,-10.90,-10.31,-8.07,6.47,6.46,6.48
48.49,17.71,11.25,17.72,11.26,-11.26,-10.66,-8.45,6.45,6.45,6.46
48.97,18.07,11.63,18.07,11.62,-11.63,-11.01,-8.85,6.44,6.44,6.44
49.46,18.41,11.99,18.42,11.99,-11.99,-11.37,-9.24,6.42,6.42,6.43
49.96,18.77,12.36,18.77,12.35,-12.36,-11.74,-9.65,6.41,6.41,6.41
50.46,19.12,12.71,19.12,12.72,-12.73,-12.11,-10.06,6.39,6.39,6.41
50.96,19.47,13.09,19.48,13.09,-13.10,-12.48,-10.47,6.38,6.38,6.39
51.47,19.82,13.47,19.82,13.45,-13.45,-12.85,-10.89,6.37,6.37,6.36
51.99,20.16,13.81,20.16,13.81,-13.80,-13.23,-11.32,6.36,6.36,6.35
52.51,20.48,14.14,20.48,14.15,-14.14,-13.60,-11.75,6.34,6.34,6.34
53.03,20.80,14.49,20.79,14.47,-14.47,-13.97,-12.20,6.34,6.33,6.32
53.56,21.07,14.77,21.08,14.78,-14.78,-14.34,-12.64,6.30,6.30,6.31
54.10,21.35,15.07,21.35,15.07,-15.07,-14.71,-13.10,6.28,6.28,6.28
54.64,21.60,15.33,21.60,15.34,-15.34,-15.06,-13.55,6.26,6.26,6.27
55.18,21.84,15.61,21.84,15.60,-15.60,-15.41,-14.01,6.25,6.24,6.24
55.74,22.05,15.84,22.05,15.83,-15.83,-15.74,-14.48,6.22,6.22,6.21
56.29,22.24,16.04,22.25,16.05,-16.05,-16.06,-14.94,6.19,6.20,6.21
56.86,22.42,16.24,22.42,16.25,-16.24,-16.35,-15.39,6.18,6.18,6.18
57.42,22.57,16.43,22.58,16.42,-16.42,-16.62,-15.84,6.16,6.16,6.15
58.00,22.71,16.58,22.70,16.58,-16.57,-16.86,-16.28,6.15,6.14,6.13
58.58,22.80,16.70,22.81,16.70,-16.69,-17.07,-16.69,6.11,6.11,6.11
59.16,22.89,16.81,22.89,16.80,-16.80,-17.24,-17.08,6.09,6.09,6.09
59.76,22.95,16.88,22.95,16.89,-16.90,-17.37,-17.43,6.06,6.06,6.07
60.35,22.99,16.96,23.00,16.96,-16.97,-17.47,-17.74,6.03,6.03,6.04
60.96,23.02,17.02,23.02,17.02,-17.02,-17.53,-18.00,6.00,6.00,6.01
61.57,23.01,17.06,23.02,17.06,-17.06,-17.54,-18.20,5.96,5.96,5.96
62.18,23.00,17.09,23.00,17.08,-17.07,-17.52,-18.33,5.93,5.93,5.92
62.80,22.97,17.08,22.97,17.08,-17.08,-17.47,-18.40,5.90,5.89,5.90
63.43,22.91,17.07,22.92,17.06,-17.06,-17.37,-18.40,5.85,5.85,5.85
64.07,22.84,17.04,22.84,17.03,-17.03,-17.26,-18.33,5.82,5.82,5.81
64.71,22.75,16.98,22.76,16.98,-16.98,-17.11,-18.21,5.78,5.78,5.78
65.35,22.65,16.91,22.65,16.91,-16.91,-16.94,-18.03,5.74,5.74,5.74
66.01,22.53,16.84,22.53,16.83,-16.83,-16.76,-17.81,5.70,5.70,5.70
66.67,22.39,16.73,22.40,16.73,-16.74,-16.56,-17.56,5.66,5.66,5.67
67.33,22.25,16.62,22.25,16.63,-16.63,-16.34,-17.28,5.62,5.62,5.63
68.01,22.10,16.52,22.10,16.51,-16.52,-16.12,-16.98,5.59,5.58,5.59
68.69,21.93,16.39,21.93,16.39,-16.39,-15.90,-16.67,5.55,5.55,5.55
69.37,21.75,16.24,21.76,16.25,-16.25,-15.66,-16.35,5.50,5.51,5.51
70.07,21.57,16.11,21.57,16.10,-16.10,-15.43,-16.03,5.48,5.47,5.47
70.77,21.37,15.95,21.37,15.94,-15.93,-15.19,-15.71,5.44,5.43,5.43
71.48,21.15,15.76,21.16,15.77,-15.76,-14.96,-15.39,5.39,5.40,5.40
72.19,20.93,15.58,20.93,15.58,-15.58,-14.72,-15.08,5.35,5.36,5.35
72.91,20.70,15.38,20.70,15.38,-15.38,-14.49,-14.77,5.32,5.31,5.32
73.64,20.46,15.18,20.46,15.18,-15.18,-14.26,-14.47,5.28,5.28,5.28
74.38,20.21,14.97,20.22,14.97,-14.97,-14.03,-14.18,5.24,5.24,5.25
75.12,19.97,14.76,19.97,14.76,-14.76,-13.80,-13.90,5.21,5.21,5.21
75.87,19.71,14.53,19.72,14.54,-14.54,-13.58,-13.62,5.17,5.18,5.18
76.63,19.46,14.31,19.46,14.32,-14.32,-13.36,-13.36,5.15,5.15,5.15
77.40,19.21,14.10,19.21,14.09,-14.09,-13.15,-13.10,5.12,5.12,5.12
78.17,18.95,13.86,18.95,13.86,-13.86,-12.94,-12.85,5.09,5.09,5.09
78.95,18.69,13.63,18.69,13.63,-13.63,-12.73,-12.61,5.06,5.06,5.06
79.74,18.43,13.39,18.44,13.40,-13.40,-12.53,-12.38,5.04,5.04,5.04
80.54,18.18,13.16,18.18,13.17,-13.16,-12.33,-12.16,5.02,5.01,5.02
81.35,17.92,12.94,17.92,12.93,-12.94,-12.14,-11.95,4.99,4.99,4.99
82.16,17.66,12.71,17.67,12.70,-12.71,-11.95,-11.74,4.95,4.96,4.96
82.98,17.42,12.47,17.42,12.48,-12.49,-11.76,-11.54,4.94,4.94,4.95
83.81,17.18,12.26,17.18,12.27,-12.27,-11.58,-11.35,4.91,4.92,4.92
84.65,16.95,12.07,16.95,12.06,-12.06,-11.40,-11.17,4.90,4.90,4.89
85.50,16.73,11.86,16.73,11.86,-11.85,-11.23,-10.99,4.88,4.88,4.88
86.35,16.51,11.65,16.51,11.66,-11.66,-11.06,-10.82,4.85,4.85,4.86
87.22,16.30,11.47,16.31,11.47,-11.47,-10.89,-10.66,4.83,4.83,4.84
88.09,16.10,11.29,16.11,11.29,-11.30,-10.73,-10.50,4.81,4.81,4.82
88.97,15.92,11.13,15.92,11.12,-11.13,-10.57,-10.35,4.80,4.80,4.80
89.86,15.74,10.96,15.74,10.96,-10.96,-10.41,-10.21,4.78,4.78,4.79
90.76,15.56,10.81,15.56,10.80,-10.80,-10.26,-10.07,4.76,4.76,4.76
91.66,15.38,10.64,15.39,10.65,-10.65,-10.11,-9.94,4.73,4.74,4.74
92.58,15.22,10.51,15.22,10.50,-10.50,-9.96,-9.81,4.72,4.72,4.72
93.51,15.06,10.36,15.06,10.35,-10.35,-9.82,-9.69,4.71,4.71,4.71
94.44,14.89,10.20,14.89,10.20,-10.20,-9.68,-9.57,4.70,4.69,4.69
95.39,14.71,10.05,14.71,10.05,-10.04,-9.54,-9.46,4.68,4.67,4.67
96.34,14.52,9.89,14.52,9.89,-9.88,-9.41,-9.35,4.65,4.65,4.64
97.30,14.33,9.72,14.34,9.73,-9.71,-9.28,-9.25,4.62,4.62,4.61
98.28,14.14,9.57,14.14,9.56,-9.55,-9.15,-9.15,4.59,4.59,4.58
99.26,13.95,9.40,13.95,9.39,-9.40,-9.02,-9.06,4.56,4.55,4.56
100.25,13.75,9.22,13.74,9.21,-9.25,-8.90,-8.97,4.51,4.49,4.53
101.25,13.54,9.04,13.55,9.06,-9.10,-8.78,-8.88,4.44,4.45,4.50
102.27,13.36,8.91,13.39,8.93,-8.95,-8.67,-8.80,4.41,4.44,4.46
103.29,13.26,8.84,13.25,8.82,-8.81,-8.55,-8.72,4.46,4.44,4.43
104.32,13.12,8.72,13.10,8.71,-8.66,-8.44,-8.64,4.46,4.44,4.40
105.37,12.91,8.56,12.92,8.56,-8.52,-8.33,-8.56,4.40,4.40,4.36
106.42,12.69,8.39,12.70,8.38,-8.37,-8.22,-8.49,4.32,4.33,4.31
107.48,12.47,8.19,12.48,8.21,-8.22,-8.12,-8.42,4.25,4.26,4.28
108.56,12.27,8.06,12.27,8.05,-8.07,-8.02,-8.35,4.21,4.21,4.22
109.64,12.07,7.90,12.07,7.90,-7.91,-7.92,-8.29,4.16,4.16,4.17
110.74,11.87,7.76,11.88,7.76,-7.76,-7.82,-8.22,4.11,4.12,4.12
111.85,11.68,7.62,11.68,7.62,-7.62,-7.73,-8.16,4.06,4.06,4.07
112.97,11.49,7.50,11.48,7.47,-7.49,-7.64,-8.09,4.00,3.99,4.00
114.10,11.28,7.34,11.29,7.35,-7.37,-7.54,-8.03,3.92,3.93,3.95
115.24,11.10,7.22,11.13,7.25,-7.25,-7.46,-7.96,3.85,3.88,3.89
116.39,10.99,7.18,10.98,7.16,-7.14,-7.37,-7.90,3.85,3.84,3.82
117.55,10.85,7.09,10.83,7.07,-7.04,-7.29,-7.83,3.81,3.79,3.76
118.73,10.65,6.96,10.66,6.96,-6.95,-7.20,-7.77,3.70,3.71,3.70
119.92,10.48,6.84,10.49,6.85,-6.86,-7.12,-7.70,3.62,3.63,3.65
121.12,10.33,6.75,10.35,6.76,-6.78,-7.04,-7.63,3.55,3.57,3.59
122.33,10.25,6.72,10.24,6.71,-6.71,-6.97,-7.56,3.54,3.53,3.54
123.55,10.15,6.67,10.13,6.65,-6.65,-6.89,-7.49,3.51,3.49,3.49
124.79,10.02,6.59,10.03,6.59,-6.59,-6.82,-7.42,3.44,3.44,3.44
126.03,9.89,6.51,9.92,6.53,-6.54,-6.75,-7.35,3.36,3.38,3.39
127.29,9.83,6.50,9.82,6.49,-6.49,-6.68,-7.27,3.34,3.33,3.34
128.57,9.74,6.47,9.73,6.44,-6.44,-6.61,-7.20,3.30,3.29,3.28
129.85,9.63,6.40,9.64,6.41,-6.39,-6.55,-7.12,3.24,3.25,3.24
131.15,9.52,6.34,9.54,6.35,-6.34,-6.48,-7.04,3.18,3.20,3.19
132.46,9.46,6.32,9.44,6.29,-6.29,-6.42,-6.95,3.18,3.15,3.15
133.79,9.34,6.24,9.34,6.23,-6.23,-6.36,-6.87,3.11,3.11,3.11
135.12,9.20,6.14,9.23,6.16,-6.17,-6.30,-6.79,3.04,3.06,3.07
136.48,9.14,6.12,9.12,6.09,-6.10,-6.25,-6.70,3.04,3.02,3.03
137.84,9.01,6.03,9.02,6.04,-6.03,-6.19,-6.62,2.98,2.99,2.99
139.22,8.92,5.99,8.92,5.97,-5.96,-6.14,-6.53,2.96,2.95,2.94
140.61,8.81,5.92,8.80,5.90,-5.89,-6.09,-6.45,2.92,2.91,2.90
142.02,8.66,5.79,8.69,5.82,-5.83,-6.04,-6.36,2.84,2.86,2.88
143.44,8.60,5.77,8.59,5.75,-5.76,-5.99,-6.28,2.84,2.82,2.84
144.87,8.48,5.69,8.49,5.70,-5.70,-5.95,-6.19,2.78,2.79,2.80
146.32,8.42,5.67,8.41,5.65,-5.65,-5.90,-6.11,2.77,2.77,2.76
147.78,8.32,5.60,8.32,5.60,-5.60,-5.86,-6.02,2.72,2.72,2.73
149.26,8.24,5.55,8.25,5.56,-5.56,-5.82,-5.94,2.68,2.69,2.70
150.75,8.16,5.53,8.16,5.52,-5.52,-5.78,-5.86,2.64,2.64,2.64
152.26,8.10,5.51,8.10,5.50,-5.50,-5.75,-5.78,2.61,2.60,2.60
153.78,8.02,5.46,8.03,5.48,-5.47,-5.72,-5.71,2.55,2.56,2.57
155.32,7.98,5.48,7.97,5.46,-5.46,-5.69,-5.63,2.53,2.52,2.51
156.88,7.91,5.44,7.92,5.44,-5.44,-5.66,-5.56,2.47,2.47,2.48
158.44,7.86,5.44,7.86,5.44,-5.43,-5.64,-5.49,2.43,2.43,2.43
160.03,7.80,5.43,7.81,5.43,-5.42,-5.61,-5.42,2.38,2.38,2.38
161.63,7.75,5.43,7.75,5.42,-5.42,-5.60,-5.36,2.33,2.33,2.33
163.24,7.71,5.43,7.71,5.42,-5.42,-5.58,-5.29,2.30,2.29,2.29
164.88,7.65,5.41,7.66,5.42,-5.42,-5.57,-5.23,2.24,2.25,2.25
166.53,7.62,5.43,7.62,5.42,-5.42,-5.56,-5.18,2.20,2.20,2.20
168.19,7.58,5.44,7.58,5.43,-5.43,-5.55,-5.12,2.16,2.15,2.15
169.87,7.53,5.44,7.54,5.44,-5.44,-5.55,-5.07,2.09,2.10,2.10
171.57,7.50,5.45,7.51,5.45,-5.46,-5.55,-5.02,2.04,2.05,2.06
173.29,7.48,5.49,7.48,5.48,-5.48,-5.55,-4.97,2.00,1.99,2.00
175.02,7.45,5.51,7.46,5.51,-5.51,-5.56,-4.93,1.94,1.94,1.95
176.77,7.43,5.55,7.44,5.55,-5.55,-5.57,-4.89,1.89,1.89,1.89
178.54,7.42,5.59,7.42,5.59,-5.59,-5.59,-4.85,1.84,1.84,1.84
180.32,7.41,5.64,7.41,5.63,-5.63,-5.60,-4.82,1.78,1.78,1.78
182.13,7.40,5.68,7.40,5.67,-5.67,-5.62,-4.79,1.73,1.73,1.73
183.95,7.38,5.72,7.39,5.72,-5.72,-5.65,-4.76,1.66,1.67,1.67
185.79,7.37,5.76,7.37,5.76,-5.77,-5.67,-4.73,1.61,1.61,1.62
187.65,7.35,5.81,7.36,5.81,-5.81,-5.70,-4.71,1.54,1.55,1.55
189.52,7.35,5.86,7.35,5.85,-5.85,-5.73,-4.69,1.50,1.50,1.50
191.42,7.34,5.90,7.34,5.89,-5.89,-5.76,-4.67,1.46,1.45,1.45
193.33,7.31,5.92,7.32,5.92,-5.92,-5.80,-4.65,1.40,1.40,1.40
195.27,7.28,5.94,7.29,5.94,-5.94,-5.83,-4.64,1.34,1.35,1.35
197.22,7.25,5.97,7.25,5.96,-5.95,-5.86,-4.62,1.30,1.29,1.29
199.19,7.20,5.97,7.21,5.97,-5.96,-5.88,-4.61,1.24,1.25,1.24
201.18,7.15,5.97,7.15,5.96,-5.96,-5.90,-4.60,1.20,1.20,1.19
203.19,7.09,5.94,7.09,5.94,-5.94,-5.92,-4.60,1.15,1.15,1.16
205.23,7.02,5.93,7.03,5.92,-5.92,-5.93,-4.59,1.10,1.11,1.10
207.28,6.95,5.88,6.95,5.89,-5.89,-5.93,-4.59,1.06,1.06,1.08
209.35,6.87,5.86,6.87,5.85,-5.85,-5.92,-4.58,1.02,1.02,1.02
211.44,6.77,5.81,6.78,5.80,-5.81,-5.91,-4.58,0.97,0.97,0.97
213.56,6.68,5.76,6.68,5.75,-5.75,-5.88,-4.58,0.93,0.93,0.93
215.69,6.58,5.68,6.58,5.68,-5.69,-5.84,-4.57,0.89,0.89,0.91
217.85,6.48,5.62,6.49,5.62,-5.62,-5.78,-4.57,0.87,0.87,0.87
220.03,6.38,5.56,6.38,5.55,-5.53,-5.72,-4.57,0.85,0.85,0.83
222.23,6.27,5.48,6.26,5.46,-5.44,-5.63,-4.56,0.83,0.82,0.80
224.45,6.12,5.35,6.12,5.35,-5.34,-5.54,-4.55,0.78,0.78,0.78
226.70,5.96,5.22,5.97,5.22,-5.24,-5.44,-4.55,0.73,0.73,0.75
228.96,5.81,5.10,5.84,5.11,-5.13,-5.33,-4.54,0.69,0.71,0.72
231.25,5.72,5.02,5.70,5.00,-5.01,-5.21,-4.52,0.71,0.69,0.71
233.57,5.59,4.91,5.58,4.89,-4.89,-5.08,-4.51,0.70,0.69,0.69
235.90,5.43,4.76,5.45,4.78,-4.77,-4.95,-4.49,0.66,0.68,0.68
238.26,5.33,4.67,5.32,4.65,-4.65,-4.81,-4.47,0.68,0.67,0.67
240.64,5.19,4.54,5.20,4.54,-4.53,-4.67,-4.44,0.66,0.67,0.66
243.05,5.08,4.43,5.07,4.42,-4.41,-4.53,-4.41,0.67,0.66,0.66
245.48,4.95,4.31,4.95,4.30,-4.30,-4.38,-4.38,0.66,0.65,0.65
247.93,4.80,4.16,4.82,4.18,-4.18,-4.24,-4.34,0.62,0.64,0.65
250.41,4.72,4.08,4.71,4.06,-4.07,-4.10,-4.30,0.65,0.63,0.65
252.92,4.60,3.95,4.61,3.96,-3.97,-3.96,-4.26,0.63,0.64,0.66
255.45,4.53,3.87,4.53,3.86,-3.87,-3.82,-4.21,0.67,0.66,0.67
258.00,4.45,3.78,4.45,3.77,-3.77,-3.69,-4.16,0.68,0.68,0.68
260.58,4.36,3.69,4.37,3.69,-3.67,-3.55,-4.10,0.69,0.69,0.68
263.19,4.28,3.60,4.28,3.59,-3.58,-3.42,-4.04,0.70,0.69,0.69
265.82,4.18,3.49,4.19,3.49,-3.49,-3.30,-3.97,0.69,0.70,0.70
268.48,4.10,3.39,4.11,3.40,-3.40,-3.18,-3.90,0.70,0.71,0.72
271.16,4.04,3.31,4.03,3.30,-3.31,-3.06,-3.83,0.74,0.72,0.74
273.87,3.95,3.22,3.95,3.21,-3.21,-2.94,-3.76,0.74,0.74,0.74
276.61,3.86,3.10,3.87,3.11,-3.12,-2.83,-3.68,0.75,0.76,0.77
279.38,3.79,3.03,3.79,3.02,-3.02,-2.72,-3.60,0.78,0.77,0.77
282.17,3.70,2.92,3.71,2.92,-2.91,-2.62,-3.52,0.79,0.79,0.79
284.99,3.62,2.83,3.61,2.82,-2.80,-2.52,-3.43,0.82,0.81,0.80
287.84,3.50,2.70,3.51,2.70,-2.69,-2.42,-3.35,0.81,0.82,0.81
290.72,3.39,2.58,3.39,2.57,-2.57,-2.33,-3.26,0.82,0.82,0.82
293.63,3.27,2.44,3.28,2.44,-2.44,-2.24,-3.17,0.83,0.83,0.84
296.57,3.16,2.31,3.16,2.31,-2.31,-2.15,-3.08,0.85,0.85,0.86
299.53,3.04,2.19,3.04,2.18,-2.18,-2.07,-2.99,0.86,0.86,0.86
302.53,2.92,2.06,2.92,2.05,-2.05,-1.98,-2.90,0.88,0.88,0.87
305.55,2.80,1.92,2.80,1.92,-1.91,-1.91,-2.81,0.89,0.89,0.89
308.61,2.67,1.78,2.68,1.78,-1.78,-1.83,-2.72,0.90,0.90,0.90
311.69,2.55,1.65,2.56,1.65,-1.64,-1.75,-2.63,0.91,0.92,0.91
314.81,2.45,1.52,2.44,1.52,-1.51,-1.68,-2.54,0.94,0.93,0.94
317.96,2.33,1.41,2.33,1.39,-1.39,-1.61,-2.45,0.94,0.94,0.93
321.14,2.20,1.27,2.20,1.27,-1.27,-1.54,-2.36,0.93,0.93,0.94
324.35,2.08,1.15,2.09,1.15,-1.16,-1.48,-2.27,0.92,0.93,0.94
327.59,1.98,1.04,1.99,1.05,-1.06,-1.41,-2.18,0.92,0.93,0.95
330.87,1.92,0.98,1.91,0.97,-0.97,-1.35,-2.09,0.95,0.94,0.95
334.18,1.85,0.91,1.84,0.89,-0.89,-1.29,-2.00,0.96,0.96,0.95
337.52,1.76,0.81,1.77,0.82,-0.81,-1.24,-1.92,0.95,0.96,0.96
340.90,1.71,0.76,1.71,0.75,-0.75,-1.18,-1.83,0.97,0.96,0.96
344.30,1.64,0.69,1.65,0.69,-0.69,-1.12,-1.75,0.96,0.96,0.96
347.75,1.60,0.65,1.60,0.64,-0.63,-1.07,-1.67,0.97,0.96,0.96
351.23,1.54,0.59,1.54,0.58,-0.58,-1.02,-1.58,0.96,0.96,0.96
354.74,1.48,0.53,1.49,0.54,-0.54,-0.97,-1.50,0.95,0.95,0.96
358.28,1.43,0.50,1.44,0.49,-0.50,-0.92,-1.42,0.94,0.94,0.94
361.87,1.40,0.47,1.40,0.46,-0.46,-0.87,-1.34,0.94,0.94,0.94
365.49,1.36,0.43,1.37,0.43,-0.43,-0.82,-1.26,0.93,0.93,0.94
369.14,1.33,0.41,1.34,0.40,-0.40,-0.78,-1.18,0.93,0.93,0.93
372.83,1.31,0.39,1.31,0.38,-0.38,-0.73,-1.11,0.93,0.93,0.93
376.56,1.28,0.37,1.28,0.37,-0.36,-0.69,-1.03,0.92,0.92,0.92
380.33,1.26,0.36,1.26,0.35,-0.35,-0.65,-0.96,0.91,0.91,0.91
384.13,1.23,0.34,1.24,0.34,-0.34,-0.61,-0.88,0.89,0.90,0.90
387.97,1.22,0.34,1.22,0.33,-0.34,-0.57,-0.81,0.88,0.88,0.89
391.85,1.21,0.34,1.21,0.33,-0.34,-0.53,-0.74,0.87,0.87,0.88
395.77,1.21,0.33,1.22,0.33,-0.35,-0.49,-0.67,0.86,0.87,0.89
399.73,1.22,0.35,1.23,0.35,-0.36,-0.45,-0.60,0.86,0.87,0.88
403.72,1.24,0.38,1.24,0.37,-0.37,-0.41,-0.53,0.87,0.87,0.87
407.76,1.25,0.40,1.25,0.39,-0.38,-0.38,-0.46,0.87,0.88,0.86
411.84,1.26,0.40,1.26,0.40,-0.39,-0.34,-0.39,0.88,0.87,0.87
415.96,1.25,0.41,1.25,0.40,-0.39,-0.31,-0.33,0.87,0.86,0.85
420.12,1.23,0.39,1.24,0.39,-0.38,-0.28,-0.26,0.85,0.85,0.85
424.32,1.21,0.37,1.21,0.37,-0.37,-0.24,-0.20,0.84,0.85,0.85
428.56,1.19,0.36,1.19,0.35,-0.35,-0.21,-0.14,0.84,0.84,0.84
432.85,1.16,0.33,1.16,0.33,-0.32,-0.18,-0.07,0.84,0.84,0.84
437.18,1.13,0.30,1.13,0.29,-0.29,-0.15,-0.02,0.84,0.84,0.84
441.55,1.10,0.26,1.10,0.26,-0.26,-0.12,0.04,0.84,0.84,0.85
445.96,1.06,0.22,1.06,0.22,-0.23,-0.09,0.10,0.84,0.84,0.85
450.42,1.02,0.19,1.03,0.19,-0.19,-0.06,0.15,0.83,0.84,0.84
454.93,1.00,0.16,1.00,0.16,-0.16,-0.04,0.20,0.84,0.84,0.85
459.48,0.98,0.14,0.98,0.13,-0.13,-0.01,0.25,0.85,0.85,0.85
464.07,0.96,0.11,0.96,0.10,-0.10,0.02,0.30,0.86,0.86,0.86
468.71,0.94,0.08,0.94,0.08,-0.07,0.04,0.35,0.87,0.86,0.87
473.40,0.90,0.05,0.91,0.04,-0.05,0.07,0.39,0.86,0.86,0.86
478.13,0.88,0.02,0.88,0.02,-0.02,0.09,0.43,0.86,0.86,0.87
482.91,0.85,-0.01,0.86,-0.01,0.00,0.12,0.47,0.86,0.86,0.87
487.74,0.84,-0.03,0.84,-0.04,0.03,0.14,0.51,0.87,0.87,0.88
492.62,0.82,-0.06,0.83,-0.06,0.06,0.16,0.54,0.88,0.89,0.89
497.55,0.81,-0.07,0.81,-0.09,0.10,0.19,0.57,0.91,0.90,0.89
