frequency,raw,error,smoothed,error_smoothed,equalization,parametric_eq,fixed_band_eq,equalized_raw,equalized_smoothed,target
20.00,-18.54,-19.85,-18.50,-19.84,19.84,20.48,8.01,1.29,1.34,1.31
20.20,-18.43,-19.79,-18.41,-19.78,19.78,20.36,8.18,1.35,1.38,1.36
20.40,-18.33,-19.74,-18.32,-19.73,19.73,20.24,8.35,1.40,1.41,1.41
20.61,-18.22,-19.66,-18.22,-19.67,19.67,20.12,8.53,1.44,1.45,1.44
20.81,-18.12,-19.61,-18.12,-19.60,19.60,19.99,8.71,1.48,1.48,1.49
21.02,-18.01,-19.54,-18.02,-19.53,19.53,19.85,8.89,1.51,1.50,1.53
21.23,-17.89,-19.44,-17.92,-19.45,19.45,19.71,9.08,1.56,1.53,1.55
21.44,-17.76,-19.33,-17.81,-19.36,19.36,19.57,9.28,1.60,1.55,1.57
21.66,-17.64,-19.23,-17.70,-19.28,19.28,19.43,9.48,1.63,1.57,1.59
21.87,-17.52,-19.12,-17.59,-19.18,19.18,19.28,9.68,1.66,1.59,1.60
22.09,-17.41,-19.03,-17.48,-19.08,19.08,19.14,9.89,1.67,1.61,1.62
22.31,-17.33,-18.96,-17.36,-18.98,18.98,18.99,10.11,1.65,1.62,1.63
22.54,-17.24,-18.87,-17.25,-18.87,18.87,18.85,10.33,1.63,1.63,1.63
22.76,-17.15,-18.78,-17.12,-18.76,18.76,18.70,10.56,1.60,1.63,1.63
22.99,-17.06,-18.68,-17.00,-18.63,18.63,18.55,10.79,1.57,1.63,1.62
23.22,-16.93,-18.55,-16.87,-18.50,18.50,18.41,11.03,1.57,1.63,1.62
23.45,-16.79,-18.41,-16.73,-18.37,18.37,18.27,11.28,1.58,1.63,1.62
23.69,-16.65,-18.29,-16.60,-18.23,18.23,18.12,11.54,1.58,1.63,1.63
23.92,-16.51,-18.14,-16.46,-18.10,18.10,17.98,11.80,1.59,1.63,1.63
24.16,-16.34,-17.97,-16.33,-17.96,17.96,17.84,12.07,1.62,1.63,1.63
24.40,-16.17,-17.81,-16.19,-17.82,17.82,17.70,12.35,1.65,1.63,1.64
24.65,-15.99,-17.62,-16.06,-17.69,17.69,17.57,12.63,1.69,1.63,1.63
24.89,-15.81,-17.44,-15.92,-17.56,17.56,17.43,12.92,1.75,1.63,1.63
25.14,-15.69,-17.32,-15.79,-17.43,17.43,17.30,13.22,1.73,1.63,1.63
25.39,-15.60,-17.24,-15.66,-17.29,17.29,17.17,13.53,1.69,1.63,1.64
25.65,-15.51,-17.15,-15.52,-17.16,17.16,17.04,13.85,1.65,1.64,1.64
25.91,-15.42,-17.05,-15.39,-17.03,17.03,16.91,14.18,1.61,1.63,1.63
26.16,-15.32,-16.95,-15.27,-16.91,16.91,16.78,14.52,1.58,1.63,1.63
26.43,-15.21,-16.84,-15.16,-16.79,16.79,16.66,14.86,1.57,1.63,1.63
26.69,-15.11,-16.74,-15.05,-16.68,16.68,16.54,15.21,1.56,1.63,1.63
26.96,-15.00,-16.63,-14.94,-16.57,16.57,16.41,15.57,1.56,1.63,1.63
27.23,-14.84,-16.48,-14.83,-16.46,16.46,16.29,15.93,1.61,1.63,1.63
27.50,-14.68,-16.31,-14.72,-16.34,16.34,16.17,16.30,1.66,1.63,1.63
27.77,-14.51,-16.13,-14.60,-16.22,16.22,16.06,16.68,1.71,1.62,1.62
28.05,-14.37,-15.99,-14.47,-16.09,16.09,15.94,17.05,1.72,1.62,1.62
28.33,-14.30,-15.91,-14.34,-15.96,15.96,15.82,17.42,1.66,1.62,1.61
28.62,-14.24,-15.85,-14.21,-15.83,15.83,15.71,17.78,1.58,1.62,1.61
28.90,-14.17,-15.79,-14.07,-15.69,15.69,15.59,18.14,1.52,1.62,1.62
29.19,-14.03,-15.64,-13.94,-15.56,15.56,15.48,18.47,1.53,1.62,1.61
29.48,-13.86,-15.48,-13.82,-15.43,15.43,15.37,18.78,1.57,1.61,1.62
29.78,-13.68,-15.29,-13.69,-15.30,15.30,15.26,19.06,1.62,1.61,1.61
30.08,-13.53,-15.15,-13.56,-15.17,15.17,15.15,19.30,1.65,1.61,1.62
30.38,-13.39,-15.01,-13.44,-15.05,15.05,15.04,19.49,1.65,1.61,1.61
30.68,-13.26,-14.87,-13.31,-14.92,14.92,14.93,19.63,1.66,1.61,1.61
30.99,-13.13,-14.74,-13.19,-14.79,14.79,14.82,19.71,1.66,1.61,1.61
31.30,-13.03,-14.63,-13.06,-14.66,14.66,14.71,19.73,1.63,1.60,1.60
31.61,-12.93,-14.53,-12.93,-14.53,14.53,14.60,19.68,1.60,1.60,1.60
31.93,-12.83,-14.43,-12.80,-14.39,14.39,14.49,19.57,1.56,1.60,1.60
32.24,-12.70,-14.29,-12.67,-14.26,14.26,14.38,19.41,1.56,1.59,1.59
32.57,-12.56,-14.15,-12.54,-14.13,14.13,14.27,19.19,1.57,1.59,1.59
32.89,-12.42,-14.01,-12.42,-14.01,14.01,14.16,18.94,1.59,1.59,1.59
33.22,-12.30,-13.88,-12.30,-13.88,13.88,14.05,18.65,1.58,1.58,1.58
33.55,-12.19,-13.77,-12.18,-13.76,13.76,13.94,18.34,1.57,1.58,1.58
33.89,-12.08,-13.65,-12.06,-13.63,13.63,13.83,18.00,1.55,1.57,1.57
34.23,-11.95,-13.52,-11.93,-13.50,13.50,13.71,17.66,1.55,1.57,1.57
34.57,-11.80,-13.36,-11.81,-13.37,13.37,13.60,17.30,1.57,1.56,1.56
34.92,-11.65,-13.21,-11.68,-13.24,13.24,13.49,16.95,1.58,1.56,1.56
35.27,-11.53,-13.08,-11.56,-13.12,13.12,13.38,16.59,1.58,1.56,1.55
35.62,-11.42,-12.97,-11.45,-13.00,13.00,13.26,16.23,1.58,1.55,1.55
35.97,-11.32,-12.87,-11.34,-12.89,12.89,13.15,15.88,1.57,1.55,1.55
36.33,-11.22,-12.77,-11.23,-12.78,12.78,13.03,15.54,1.56,1.55,1.55
36.70,-11.11,-12.65,-11.13,-12.68,12.68,12.91,15.20,1.57,1.55,1.54
37.06,-11.01,-12.55,-11.03,-12.58,12.58,12.79,14.87,1.57,1.55,1.54
37.43,-10.90,-12.45,-10.92,-12.47,12.47,12.67,14.55,1.57,1.55,1.55
37.81,-10.79,-12.34,-10.82,-12.36,12.36,12.56,14.24,1.57,1.55,1.55
38.19,-10.71,-12.25,-10.70,-12.25,12.25,12.43,13.94,1.54,1.55,1.54
38.57,-10.64,-12.19,-10.59,-12.14,12.14,12.31,13.64,1.49,1.55,1.55
38.95,-10.57,-12.13,-10.47,-12.02,12.02,12.19,13.36,1.45,1.55,1.56
39.34,-10.43,-11.98,-10.36,-11.91,11.91,12.07,13.08,1.48,1.55,1.55
39.74,-10.29,-11.84,-10.24,-11.80,11.80,11.94,12.81,1.50,1.55,1.55
40.14,-10.14,-11.69,-10.13,-11.68,11.68,11.82,12.55,1.54,1.55,1.55
40.54,-9.98,-11.53,-10.01,-11.56,11.56,11.69,12.30,1.58,1.55,1.55
40.94,-9.82,-11.36,-9.89,-11.44,11.44,11.56,12.06,1.62,1.54,1.54
41.35,-9.69,-11.23,-9.78,-11.31,11.31,11.43,11.82,1.62,1.54,1.54
41.76,-9.56,-11.09,-9.66,-11.19,11.19,11.31,11.60,1.63,1.53,1.53
42.18,-9.48,-11.01,-9.54,-11.07,11.07,11.18,11.38,1.58,1.52,1.53
42.60,-9.45,-10.97,-9.43,-10.94,10.94,11.05,11.16,1.49,1.51,1.52
43.03,-9.41,-10.92,-9.32,-10.82,10.82,10.92,10.96,1.41,1.50,1.51
43.46,-9.27,-10.77,-9.21,-10.70,10.70,10.78,10.76,1.43,1.49,1.50
43.90,-9.13,-10.61,-9.11,-10.59,10.59,10.65,10.56,1.45,1.48,1.48
44.33,-9.00,-10.46,-9.01,-10.48,10.48,10.52,10.38,1.48,1.47,1.46
44.78,-8.87,-10.31,-8.91,-10.37,10.37,10.39,10.19,1.49,1.45,1.44
45.23,-8.78,-10.21,-8.81,-10.25,10.25,10.25,10.02,1.47,1.44,1.43
45.68,-8.71,-10.13,-8.70,-10.13,10.13,10.12,9.85,1.42,1.43,1.42
46.13,-8.63,-10.03,-8.60,-10.01,10.01,9.98,9.69,1.38,1.41,1.40
46.60,-8.50,-9.90,-8.49,-9.88,9.88,9.85,9.53,1.38,1.40,1.40
47.06,-8.37,-9.75,-8.37,-9.75,9.75,9.71,9.37,1.38,1.38,1.38
47.53,-8.26,-9.63,-8.26,-9.62,9.62,9.58,9.22,1.36,1.37,1.37
48.01,-8.15,-9.52,-8.15,-9.50,9.50,9.45,9.08,1.35,1.35,1.37
48.49,-8.04,-9.39,-8.04,-9.38,9.38,9.31,8.94,1.34,1.34,1.35
48.97,-7.94,-9.27,-7.93,-9.26,9.26,9.18,8.80,1.32,1.33,1.33
49.46,-7.79,-9.10,-7.83,-9.14,9.14,9.04,8.67,1.35,1.31,1.31
49.96,-7.64,-8.93,-7.72,-9.02,9.02,8.91,8.54,1.38,1.30,1.29
50.46,-7.59,-8.87,-7.62,-8.90,8.90,8.77,8.42,1.31,1.29,1.28
50.96,-7.55,-8.82,-7.51,-8.78,8.78,8.64,8.30,1.23,1.27,1.27
51.47,-7.43,-8.68,-7.40,-8.66,8.66,8.51,8.18,1.22,1.26,1.25
51.99,-7.29,-8.53,-7.29,-8.53,8.53,8.37,8.07,1.24,1.25,1.24
52.51,-7.18,-8.41,-7.18,-8.41,8.41,8.24,7.95,1.23,1.23,1.23
53.03,-7.08,-8.31,-7.07,-8.29,8.29,8.11,7.85,1.21,1.22,1.23
53.56,-6.99,-8.20,-6.97,-8.18,8.18,7.98,7.74,1.18,1.21,1.21
54.10,-6.90,-8.10,-6.86,-8.06,8.06,7.84,7.63,1.16,1.20,1.20
54.64,-6.76,-7.94,-6.76,-7.95,7.95,7.71,7.53,1.19,1.19,1.18
55.18,-6.63,-7.81,-6.66,-7.84,7.84,7.58,7.43,1.21,1.18,1.18
55.74,-6.51,-7.67,-6.55,-7.72,7.72,7.46,7.33,1.21,1.17,1.16
56.29,-6.40,-7.55,-6.44,-7.60,7.60,7.33,7.23,1.20,1.15,1.15
56.86,-6.30,-7.44,-6.34,-7.48,7.48,7.20,7.13,1.18,1.14,1.14
57.42,-6.24,-7.35,-6.24,-7.36,7.36,7.07,7.03,1.12,1.12,1.11
58.00,-6.18,-7.28,-6.14,-7.25,7.25,6.95,6.94,1.06,1.10,1.10
58.58,-6.08,-7.17,-6.04,-7.12,7.12,6.82,6.84,1.04,1.08,1.09
59.16,-5.97,-7.04,-5.94,-7.00,7.00,6.70,6.74,1.03,1.06,1.07
59.76,-5.85,-6.90,-5.84,-6.87,6.87,6.58,6.64,1.02,1.03,1.05
60.35,-5.74,-6.75,-5.75,-6.75,6.75,6.45,6.54,1.01,1.00,1.01
60.96,-5.64,-6.61,-5.66,-6.63,6.63,6.33,6.45,0.98,0.97,0.97
61.57,-5.57,-6.50,-5.57,-6.50,6.50,6.21,6.35,0.93,0.93,0.93
62.18,-5.49,-6.38,-5.49,-6.38,6.38,6.09,6.25,0.89,0.89,0.89
62.80,-5.39,-6.23,-5.41,-6.25,6.25,5.97,6.14,0.86,0.85,0.84
63.43,-5.30,-6.10,-5.32,-6.13,6.13,5.86,6.04,0.82,0.81,0.80
64.07,-5.22,-5.97,-5.23,-5.99,5.99,5.74,5.94,0.77,0.76,0.75
64.71,-5.12,-5.83,-5.15,-5.87,5.87,5.63,5.83,0.74,0.72,0.71
65.35,-5.06,-5.73,-5.07,-5.74,5.74,5.51,5.73,0.68,0.67,0.67
66.01,-5.03,-5.65,-5.00,-5.63,5.63,5.40,5.62,0.59,0.62,0.62
66.67,-4.96,-5.53,-4.94,-5.51,5.51,5.29,5.51,0.55,0.57,0.57
67.33,-4.90,-5.42,-4.88,-5.40,5.40,5.18,5.41,0.50,0.53,0.52
68.01,-4.84,-5.32,-4.82,-5.29,5.29,5.07,5.30,0.45,0.48,0.48
68.69,-4.78,-5.21,-4.76,-5.19,5.19,4.96,5.19,0.41,0.43,0.43
69.37,-4.68,-5.06,-4.71,-5.08,5.08,4.86,5.08,0.40,0.38,0.38
70.07,-4.57,-4.90,-4.66,-4.98,4.98,4.75,4.97,0.41,0.33,0.33
70.77,-4.57,-4.85,-4.61,-4.88,4.88,4.65,4.86,0.31,0.27,0.28
71.48,-4.57,-4.80,-4.57,-4.79,4.79,4.54,4.74,0.21,0.22,0.23
72.19,-4.56,-4.72,-4.54,-4.70,4.70,4.44,4.63,0.13,0.16,0.16
72.91,-4.52,-4.62,-4.50,-4.61,4.61,4.34,4.52,0.09,0.10,0.10
73.64,-4.48,-4.53,-4.48,-4.53,4.53,4.24,4.41,0.04,0.05,0.05
74.38,-4.45,-4.44,-4.45,-4.45,4.45,4.14,4.30,-0.01,-0.01,-0.01
75.12,-4.41,-4.34,-4.43,-4.37,4.37,4.05,4.19,-0.05,-0.06,-0.07
75.87,-4.38,-4.25,-4.41,-4.29,4.29,3.95,4.08,-0.09,-0.12,-0.13
76.63,-4.37,-4.19,-4.40,-4.22,4.22,3.86,3.98,-0.15,-0.17,-0.18
77.40,-4.37,-4.14,-4.38,-4.15,4.15,3.76,3.87,-0.22,-0.23,-0.23
78.17,-4.37,-4.08,-4.37,-4.09,4.09,3.67,3.76,-0.29,-0.28,-0.29
78.95,-4.37,-4.04,-4.34,-4.01,4.01,3.58,3.66,-0.36,-0.33,-0.33
79.74,-4.34,-3.96,-4.32,-3.94,3.94,3.49,3.55,-0.40,-0.38,-0.38
80.54,-4.29,-3.86,-4.29,-3.86,3.86,3.40,3.45,-0.43,-0.43,-0.43
81.35,-4.23,-3.75,-4.25,-3.77,3.77,3.32,3.34,-0.46,-0.48,-0.48
82.16,-4.17,-3.64,-4.21,-3.68,3.68,3.23,3.24,-0.49,-0.53,-0.53
82.98,-4.17,-3.60,-4.16,-3.58,3.58,3.15,3.14,-0.59,-0.57,-0.57
83.81,-4.16,-3.54,-4.10,-3.48,3.48,3.06,3.04,-0.69,-0.62,-0.62
84.65,-4.07,-3.40,-4.03,-3.36,3.36,2.98,2.94,-0.71,-0.67,-0.67
85.50,-4.00,-3.29,-3.95,-3.23,3.23,2.90,2.84,-0.77,-0.72,-0.71
86.35,-3.92,-3.16,-3.86,-3.10,3.10,2.82,2.75,-0.83,-0.77,-0.76
87.22,-3.78,-2.97,-3.77,-2.95,2.95,2.74,2.65,-0.83,-0.82,-0.81
88.09,-3.64,-2.78,-3.67,-2.80,2.80,2.66,2.56,-0.84,-0.87,-0.86
88.97,-3.55,-2.63,-3.57,-2.66,2.66,2.58,2.46,-0.90,-0.92,-0.92
89.86,-3.47,-2.50,-3.49,-2.52,2.52,2.51,2.37,-0.96,-0.97,-0.97
90.76,-3.40,-2.38,-3.40,-2.38,2.38,2.43,2.28,-1.02,-1.02,-1.02
91.66,-3.28,-2.21,-3.31,-2.24,2.24,2.36,2.19,-1.04,-1.07,-1.07
92.58,-3.20,-2.07,-3.23,-2.11,2.11,2.29,2.10,-1.09,-1.12,-1.13
93.51,-3.12,-1.94,-3.16,-1.99,1.99,2.22,2.01,-1.14,-1.17,-1.18
94.44,-3.02,-1.80,-3.09,-1.87,1.87,2.15,1.92,-1.15,-1.22,-1.22
95.39,-2.96,-1.69,-3.03,-1.76,1.76,2.08,1.84,-1.20,-1.27,-1.27
96.34,-2.96,-1.64,-2.98,-1.66,1.66,2.01,1.75,-1.30,-1.32,-1.32
97.30,-2.97,-1.60,-2.94,-1.57,1.57,1.94,1.66,-1.40,-1.37,-1.37
98.28,-2.98,-1.56,-2.91,-1.49,1.49,1.88,1.58,-1.49,-1.42,-1.42
99.26,-2.96,-1.50,-2.88,-1.41,1.41,1.81,1.50,-1.55,-1.46,-1.46
100.25,-2.87,-1.36,-2.85,-1.34,1.34,1.75,1.42,-1.53,-1.51,-1.51
101.25,-2.83,-1.27,-2.84,-1.28,1.28,1.69,1.33,-1.55,-1.56,-1.56
102.27,-2.83,-1.22,-2.83,-1.23,1.23,1.63,1.25,-1.61,-1.61,-1.61
103.29,-2.79,-1.13,-2.83,-1.18,1.18,1.57,1.18,-1.62,-1.66,-1.66
104.32,-2.77,-1.07,-2.84,-1.13,1.13,1.51,1.10,-1.64,-1.71,-1.70
105.37,-2.79,-1.04,-2.85,-1.09,1.09,1.45,1.02,-1.70,-1.76,-1.75
106.42,-2.82,-1.02,-2.85,-1.04,1.04,1.39,0.95,-1.78,-1.81,-1.80
107.48,-2.84,-0.98,-2.86,-1.00,1.00,1.33,0.87,-1.85,-1.86,-1.86
108.56,-2.87,-0.96,-2.87,-0.95,0.95,1.28,0.80,-1.92,-1.91,-1.91
109.64,-2.89,-0.93,-2.87,-0.91,0.91,1.22,0.73,-1.98,-1.96,-1.96
110.74,-2.91,-0.89,-2.88,-0.87,0.87,1.17,0.66,-2.04,-2.02,-2.02
111.85,-2.93,-0.87,-2.89,-0.82,0.82,1.11,0.60,-2.11,-2.07,-2.06
112.97,-2.93,-0.81,-2.90,-0.78,0.78,1.06,0.53,-2.15,-2.12,-2.12
114.10,-2.94,-0.77,-2.89,-0.73,0.73,1.01,0.47,-2.21,-2.17,-2.17
115.24,-2.93,-0.71,-2.89,-0.68,0.68,0.96,0.41,-2.26,-2.21,-2.22
116.39,-2.87,-0.60,-2.87,-0.62,0.62,0.91,0.35,-2.26,-2.26,-2.27
117.55,-2.84,-0.53,-2.85,-0.55,0.55,0.86,0.29,-2.29,-2.30,-2.31
118.73,-2.83,-0.48,-2.83,-0.49,0.49,0.82,0.24,-2.35,-2.34,-2.35
119.92,-2.80,-0.42,-2.80,-0.42,0.42,0.77,0.18,-2.38,-2.38,-2.38
121.12,-2.72,-0.30,-2.76,-0.35,0.35,0.72,0.13,-2.37,-2.41,-2.42
122.33,-2.71,-0.26,-2.73,-0.28,0.28,0.68,0.09,-2.43,-2.45,-2.45
123.55,-2.70,-0.22,-2.70,-0.22,0.22,0.63,0.04,-2.48,-2.48,-2.48
124.79,-2.69,-0.18,-2.67,-0.16,0.16,0.59,-0.00,-2.53,-2.51,-2.51
126.03,-2.64,-0.10,-2.64,-0.10,0.10,0.55,-0.04,-2.54,-2.54,-2.54
127.29,-2.60,-0.04,-2.62,-0.05,0.05,0.50,-0.08,-2.55,-2.57,-2.56
128.57,-2.57,0.03,-2.60,0.00,-0.00,0.46,-0.11,-2.57,-2.60,-2.60
129.85,-2.57,0.06,-2.59,0.04,-0.04,0.42,-0.15,-2.62,-2.63,-2.63
131.15,-2.56,0.10,-2.57,0.09,-0.09,0.38,-0.18,-2.65,-2.66,-2.66
132.46,-2.56,0.13,-2.56,0.13,-0.13,0.34,-0.21,-2.69,-2.69,-2.69
133.79,-2.55,0.17,-2.55,0.16,-0.16,0.30,-0.23,-2.72,-2.72,-2.72
135.12,-2.55,0.20,-2.55,0.20,-0.20,0.27,-0.26,-2.75,-2.74,-2.75
136.48,-2.55,0.22,-2.54,0.23,-0.23,0.23,-0.28,-2.79,-2.77,-2.77
137.84,-2.54,0.27,-2.53,0.27,-0.27,0.19,-0.30,-2.81,-2.80,-2.81
139.22,-2.54,0.30,-2.53,0.29,-0.29,0.16,-0.32,-2.84,-2.83,-2.84
140.61,-2.54,0.33,-2.54,0.32,-0.32,0.12,-0.34,-2.86,-2.86,-2.87
142.02,-2.54,0.35,-2.54,0.35,-0.35,0.09,-0.36,-2.89,-2.89,-2.89
143.44,-2.54,0.38,-2.55,0.37,-0.37,0.06,-0.37,-2.92,-2.92,-2.92
144.87,-2.54,0.42,-2.56,0.41,-0.41,0.02,-0.39,-2.95,-2.96,-2.96
146.32,-2.54,0.46,-2.56,0.44,-0.44,-0.01,-0.41,-2.99,-3.01,-3.00
147.78,-2.54,0.49,-2.57,0.49,-0.49,-0.04,-0.42,-3.03,-3.06,-3.03
149.26,-2.55,0.53,-2.58,0.53,-0.53,-0.07,-0.43,-3.09,-3.11,-3.08
150.75,-2.60,0.54,-2.58,0.58,-0.58,-0.10,-0.45,-3.19,-3.17,-3.14
152.26,-2.63,0.58,-2.59,0.63,-0.63,-0.13,-0.46,-3.27,-3.23,-3.21
153.78,-2.64,0.64,-2.61,0.68,-0.68,-0.16,-0.48,-3.33,-3.29,-3.28
155.32,-2.64,0.71,-2.63,0.74,-0.74,-0.19,-0.49,-3.38,-3.36,-3.35
156.88,-2.64,0.79,-2.64,0.79,-0.79,-0.22,-0.50,-3.43,-3.43,-3.43
158.44,-2.64,0.87,-2.66,0.85,-0.85,-0.24,-0.52,-3.49,-3.50,-3.51
160.03,-2.64,0.95,-2.67,0.90,-0.90,-0.27,-0.53,-3.54,-3.57,-3.59
161.63,-2.64,1.02,-2.68,0.96,-0.96,-0.30,-0.55,-3.60,-3.64,-3.66
163.24,-2.65,1.07,-2.69,1.01,-1.01,-0.32,-0.56,-3.66,-3.70,-3.72
164.88,-2.71,1.06,-2.70,1.06,-1.06,-0.35,-0.58,-3.77,-3.75,-3.77
166.53,-2.74,1.08,-2.70,1.10,-1.10,-0.37,-0.59,-3.84,-3.80,-3.82
168.19,-2.76,1.10,-2.70,1.14,-1.14,-0.40,-0.61,-3.91,-3.84,-3.86
169.87,-2.76,1.14,-2.70,1.18,-1.18,-0.42,-0.63,-3.94,-3.88,-3.90
171.57,-2.69,1.23,-2.70,1.20,-1.20,-0.44,-0.65,-3.89,-3.90,-3.92
173.29,-2.68,1.25,-2.70,1.22,-1.22,-0.46,-0.67,-3.90,-3.92,-3.93
175.02,-2.68,1.26,-2.70,1.23,-1.23,-0.49,-0.69,-3.91,-3.93,-3.94
176.77,-2.68,1.27,-2.71,1.24,-1.24,-0.51,-0.71,-3.92,-3.94,-3.95
178.54,-2.68,1.28,-2.71,1.25,-1.25,-0.53,-0.73,-3.93,-3.95,-3.96
180.32,-2.68,1.27,-2.70,1.25,-1.25,-0.55,-0.75,-3.94,-3.96,-3.95
182.13,-2.68,1.26,-2.70,1.26,-1.26,-0.57,-0.78,-3.95,-3.96,-3.94
183.95,-2.67,1.28,-2.69,1.27,-1.27,-0.59,-0.80,-3.95,-3.97,-3.95
185.79,-2.67,1.28,-2.69,1.29,-1.29,-0.61,-0.83,-3.96,-3.97,-3.95
187.65,-2.73,1.24,-2.68,1.30,-1.30,-0.63,-0.85,-4.03,-3.98,-3.97
189.52,-2.72,1.26,-2.68,1.31,-1.31,-0.64,-0.88,-4.03,-3.99,-3.98
191.42,-2.71,1.29,-2.68,1.33,-1.33,-0.66,-0.91,-4.04,-4.01,-4.00
193.33,-2.70,1.32,-2.68,1.34,-1.34,-0.68,-0.94,-4.05,-4.02,-4.02
195.27,-2.68,1.36,-2.68,1.36,-1.36,-0.70,-0.96,-4.04,-4.04,-4.04
197.22,-2.67,1.39,-2.67,1.38,-1.38,-0.71,-0.99,-4.06,-4.06,-4.06
199.19,-2.66,1.42,-2.67,1.40,-1.40,-0.73,-1.02,-4.07,-4.07,-4.08
201.18,-2.65,1.45,-2.67,1.43,-1.43,-0.74,-1.05,-4.08,-4.10,-4.10
203.19,-2.64,1.48,-2.68,1.44,-1.44,-0.76,-1.08,-4.08,-4.12,-4.12
205.23,-2.64,1.50,-2.68,1.45,-1.45,-0.77,-1.11,-4.10,-4.14,-4.14
207.28,-2.64,1.51,-2.69,1.46,-1.46,-0.79,-1.14,-4.11,-4.16,-4.15
209.35,-2.69,1.48,-2.71,1.47,-1.47,-0.80,-1.17,-4.16,-4.18,-4.17
211.44,-2.74,1.46,-2.72,1.47,-1.47,-0.81,-1.21,-4.21,-4.19,-4.20
213.56,-2.75,1.46,-2.74,1.46,-1.46,-0.83,-1.24,-4.22,-4.21,-4.21
215.69,-2.75,1.47,-2.77,1.46,-1.46,-0.84,-1.26,-4.21,-4.22,-4.22
217.85,-2.76,1.47,-2.79,1.45,-1.45,-0.85,-1.29,-4.21,-4.23,-4.23
220.03,-2.83,1.41,-2.80,1.44,-1.44,-0.87,-1.32,-4.27,-4.24,-4.24
222.23,-2.86,1.41,-2.82,1.43,-1.43,-0.88,-1.35,-4.29,-4.25,-4.27
224.45,-2.87,1.39,-2.84,1.41,-1.41,-0.89,-1.37,-4.29,-4.25,-4.26
226.70,-2.86,1.40,-2.85,1.40,-1.40,-0.90,-1.40,-4.27,-4.25,-4.26
228.96,-2.86,1.39,-2.85,1.40,-1.40,-0.91,-1.42,-4.26,-4.25,-4.25
231.25,-2.85,1.39,-2.85,1.39,-1.39,-0.92,-1.44,-4.24,-4.24,-4.24
233.57,-2.84,1.39,-2.84,1.39,-1.39,-0.93,-1.46,-4.23,-4.23,-4.23
235.90,-2.83,1.39,-2.83,1.38,-1.38,-0.94,-1.48,-4.21,-4.21,-4.22
238.26,-2.82,1.39,-2.82,1.38,-1.38,-0.95,-1.49,-4.20,-4.20,-4.21
240.64,-2.80,1.38,-2.80,1.37,-1.37,-0.96,-1.51,-4.17,-4.18,-4.18
243.05,-2.79,1.36,-2.79,1.37,-1.37,-0.97,-1.52,-4.16,-4.16,-4.15
245.48,-2.77,1.36,-2.77,1.37,-1.37,-0.97,-1.53,-4.14,-4.13,-4.13
247.93,-2.74,1.36,-2.75,1.36,-1.36,-0.98,-1.53,-4.10,-4.11,-4.10
250.41,-2.72,1.36,-2.73,1.35,-1.35,-0.99,-1.53,-4.08,-4.09,-4.08
252.92,-2.70,1.35,-2.72,1.34,-1.34,-1.00,-1.54,-4.04,-4.06,-4.05
255.45,-2.69,1.34,-2.71,1.33,-1.33,-1.01,-1.53,-4.02,-4.04,-4.03
258.00,-2.68,1.33,-2.70,1.31,-1.31,-1.01,-1.53,-3.99,-4.01,-4.01
260.58,-2.68,1.31,-2.69,1.29,-1.29,-1.02,-1.52,-3.98,-3.99,-3.99
263.19,-2.67,1.29,-2.69,1.27,-1.27,-1.03,-1.51,-3.95,-3.96,-3.96
265.82,-2.68,1.26,-2.68,1.25,-1.25,-1.03,-1.50,-3.94,-3.94,-3.94
268.48,-2.68,1.24,-2.68,1.23,-1.23,-1.04,-1.49,-3.92,-3.91,-3.92
271.16,-2.68,1.21,-2.68,1.21,-1.21,-1.04,-1.47,-3.90,-3.89,-3.89
273.87,-2.69,1.18,-2.67,1.19,-1.19,-1.05,-1.46,-3.88,-3.86,-3.87
276.61,-2.69,1.15,-2.68,1.16,-1.16,-1.05,-1.44,-3.85,-3.84,-3.84
279.38,-2.69,1.12,-2.68,1.13,-1.13,-1.06,-1.42,-3.83,-3.81,-3.81
282.17,-2.69,1.10,-2.68,1.10,-1.10,-1.06,-1.39,-3.80,-3.78,-3.79
284.99,-2.68,1.07,-2.68,1.07,-1.07,-1.07,-1.37,-3.76,-3.75,-3.75
287.84,-2.67,1.06,-2.68,1.04,-1.04,-1.07,-1.35,-3.72,-3.73,-3.73
290.72,-2.66,1.04,-2.68,1.01,-1.01,-1.07,-1.32,-3.68,-3.70,-3.70
293.63,-2.65,1.02,-2.68,0.98,-0.98,-1.08,-1.30,-3.64,-3.67,-3.67
296.57,-2.64,1.00,-2.69,0.95,-0.95,-1.08,-1.27,-3.59,-3.64,-3.64
299.53,-2.70,0.91,-2.69,0.92,-0.92,-1.08,-1.24,-3.62,-3.61,-3.61
302.53,-2.71,0.88,-2.69,0.89,-0.89,-1.09,-1.22,-3.60,-3.58,-3.59
305.55,-2.70,0.85,-2.69,0.87,-0.87,-1.09,-1.19,-3.57,-3.56,-3.55
308.61,-2.69,0.84,-2.68,0.85,-0.85,-1.09,-1.16,-3.55,-3.53,-3.53
311.69,-2.69,0.81,-2.67,0.83,-0.83,-1.09,-1.14,-3.53,-3.51,-3.50
314.81,-2.68,0.80,-2.67,0.82,-0.82,-1.10,-1.11,-3.50,-3.49,-3.48
317.96,-2.68,0.78,-2.67,0.80,-0.80,-1.10,-1.08,-3.48,-3.47,-3.46
321.14,-2.68,0.77,-2.67,0.78,-0.78,-1.10,-1.05,-3.46,-3.45,-3.45
324.35,-2.68,0.75,-2.67,0.76,-0.76,-1.10,-1.03,-3.45,-3.43,-3.43
327.59,-2.68,0.74,-2.66,0.75,-0.75,-1.10,-1.00,-3.43,-3.42,-3.42
330.87,-2.61,0.80,-2.66,0.74,-0.74,-1.10,-0.98,-3.35,-3.40,-3.41
334.18,-2.58,0.81,-2.66,0.73,-0.73,-1.11,-0.95,-3.31,-3.39,-3.39
337.52,-2.59,0.79,-2.66,0.72,-0.72,-1.11,-0.93,-3.32,-3.38,-3.38
340.90,-2.66,0.71,-2.65,0.72,-0.72,-1.11,-0.90,-3.38,-3.37,-3.37
344.30,-2.69,0.67,-2.65,0.71,-0.71,-1.11,-0.88,-3.41,-3.37,-3.36
347.75,-2.69,0.67,-2.65,0.71,-0.71,-1.11,-0.86,-3.40,-3.36,-3.36
351.23,-2.69,0.66,-2.65,0.70,-0.70,-1.11,-0.84,-3.39,-3.35,-3.35
354.74,-2.68,0.68,-2.66,0.69,-0.69,-1.11,-0.82,-3.37,-3.35,-3.36
358.28,-2.68,0.67,-2.67,0.68,-0.68,-1.11,-0.80,-3.36,-3.35,-3.35
361.87,-2.68,0.67,-2.68,0.67,-0.67,-1.11,-0.78,-3.35,-3.35,-3.35
365.49,-2.67,0.67,-2.69,0.65,-0.65,-1.11,-0.76,-3.32,-3.35,-3.34
369.14,-2.66,0.69,-2.71,0.63,-0.63,-1.11,-0.74,-3.29,-3.35,-3.35
372.83,-2.65,0.70,-2.73,0.62,-0.62,-1.11,-0.72,-3.27,-3.35,-3.35
376.56,-2.71,0.65,-2.74,0.61,-0.61,-1.11,-0.70,-3.32,-3.35,-3.36
380.33,-2.74,0.61,-2.75,0.60,-0.60,-1.11,-0.69,-3.35,-3.35,-3.35
384.13,-2.76,0.59,-2.76,0.60,-0.60,-1.10,-0.67,-3.36,-3.36,-3.35
387.97,-2.81,0.55,-2.77,0.59,-0.59,-1.10,-0.66,-3.40,-3.36,-3.36
391.85,-2.82,0.55,-2.78,0.59,-0.59,-1.10,-0.64,-3.41,-3.37,-3.37
395.77,-2.82,0.54,-2.79,0.58,-0.58,-1.10,-0.63,-3.40,-3.37,-3.36
399.73,-2.82,0.55,-2.80,0.58,-0.58,-1.10,-0.62,-3.40,-3.38,-3.37
403.72,-2.83,0.54,-2.80,0.58,-0.58,-1.10,-0.61,-3.41,-3.38,-3.37
407.76,-2.82,0.57,-2.80,0.59,-0.59,-1.10,-0.59,-3.41,-3.39,-3.39
411.84,-2.76,0.63,-2.80,0.59,-0.59,-1.10,-0.58,-3.35,-3.39,-3.39
415.96,-2.73,0.66,-2.79,0.60,-0.60,-1.10,-0.57,-3.34,-3.39,-3.39
420.12,-2.73,0.66,-2.77,0.62,-0.62,-1.09,-0.57,-3.35,-3.39,-3.39
424.32,-2.73,0.66,-2.75,0.64,-0.64,-1.09,-0.56,-3.37,-3.38,-3.39
