frequency,raw,error,smoothed,error_smoothed,equalization,parametric_eq,fixed_band_eq,equalized_raw,equalized_smoothed,target
20.00,-20.44,-22.29,-20.44,-22.31,22.31,21.51,8.57,1.87,1.87,1.85
20.20,-20.28,-22.17,-20.28,-22.18,22.18,21.45,8.74,1.90,1.90,1.89
20.40,-20.11,-22.04,-20.11,-22.05,22.05,21.39,8.91,1.94,1.93,1.93
20.61,-19.95,-21.91,-19.95,-21.91,21.91,21.33,9.08,1.96,1.96,1.96
20.81,-19.79,-21.79,-19.79,-21.78,21.78,21.26,9.26,1.99,1.99,2.00
21.02,-19.62,-21.66,-19.62,-21.64,21.64,21.19,9.44,2.02,2.01,2.04
21.23,-19.46,-21.52,-19.46,-21.50,21.50,21.11,9.63,2.04,2.04,2.06
21.44,-19.29,-21.37,-19.29,-21.35,21.35,21.03,9.82,2.06,2.06,2.08
21.66,-19.12,-21.22,-19.12,-21.21,21.21,20.95,10.01,2.08,2.08,2.10
21.87,-18.96,-21.07,-18.96,-21.06,21.06,20.86,10.22,2.10,2.10,2.11
22.09,-18.79,-20.92,-18.79,-20.91,20.91,20.76,10.42,2.12,2.12,2.13
22.31,-18.62,-20.76,-18.62,-20.76,20.76,20.66,10.64,2.14,2.14,2.14
22.54,-18.45,-20.60,-18.45,-20.60,20.60,20.56,10.86,2.15,2.15,2.15
22.76,-18.28,-20.44,-18.28,-20.44,20.44,20.45,11.08,2.16,2.16,2.16
22.99,-18.11,-20.27,-18.11,-20.28,20.28,20.34,11.31,2.17,2.17,2.16
23.22,-17.93,-20.10,-17.94,-20.11,20.11,20.22,11.55,2.18,2.18,2.17
23.45,-17.76,-19.94,-17.76,-19.95,19.95,20.10,11.79,2.19,2.19,2.18
23.69,-17.59,-19.78,-17.59,-19.78,19.78,19.98,12.05,2.19,2.19,2.19
23.92,-17.42,-19.62,-17.42,-19.62,19.62,19.85,12.31,2.20,2.20,2.20
24.16,-17.24,-19.46,-17.24,-19.45,19.45,19.71,12.57,2.22,2.21,2.22
24.40,-17.07,-19.31,-17.07,-19.29,19.29,19.57,12.85,2.22,2.22,2.24
24.65,-16.89,-19.12,-16.89,-19.12,19.12,19.43,13.13,2.23,2.23,2.23
24.89,-16.71,-18.95,-16.71,-18.95,18.95,19.29,13.42,2.25,2.24,2.24
25.14,-16.54,-18.79,-16.53,-18.79,18.79,19.14,13.73,2.25,2.25,2.25
25.39,-16.36,-18.62,-16.36,-18.62,18.62,18.98,14.04,2.26,2.26,2.26
25.65,-16.18,-18.46,-16.18,-18.45,18.45,18.83,14.36,2.27,2.27,2.28
25.91,-16.00,-18.28,-16.00,-18.28,18.28,18.67,14.69,2.28,2.28,2.28
26.16,-15.81,-18.10,-15.82,-18.11,18.11,18.51,15.03,2.30,2.29,2.29
26.43,-15.63,-17.93,-15.63,-17.94,17.94,18.34,15.38,2.30,2.30,2.30
26.69,-15.45,-17.76,-15.45,-17.76,17.76,18.17,15.75,2.31,2.31,2.31
26.96,-15.27,-17.60,-15.27,-17.59,17.59,18.00,16.12,2.32,2.32,2.33
27.23,-15.09,-17.43,-15.09,-17.41,17.41,17.82,16.50,2.32,2.33,2.34
27.50,-14.90,-17.24,-14.90,-17.24,17.24,17.65,16.88,2.34,2.34,2.34
27.77,-14.72,-17.06,-14.72,-17.06,17.06,17.47,17.28,2.35,2.35,2.34
28.05,-14.54,-16.90,-14.53,-16.89,16.89,17.28,17.68,2.35,2.36,2.36
28.33,-14.35,-16.71,-14.35,-16.71,16.71,17.10,18.08,2.36,2.36,2.36
28.62,-14.17,-16.54,-14.17,-16.54,16.54,16.91,18.48,2.36,2.37,2.37
28.90,-13.98,-16.36,-13.98,-16.36,16.36,16.73,18.86,2.38,2.38,2.38
29.19,-13.80,-16.18,-13.80,-16.19,16.19,16.54,19.24,2.39,2.39,2.38
29.48,-13.61,-16.02,-13.62,-16.01,16.01,16.34,19.58,2.40,2.39,2.41
29.78,-13.43,-15.83,-13.44,-15.84,15.84,16.15,19.90,2.41,2.40,2.40
30.08,-13.25,-15.66,-13.26,-15.66,15.66,15.95,20.17,2.41,2.41,2.41
30.38,-13.07,-15.48,-13.08,-15.49,15.49,15.76,20.38,2.42,2.41,2.41
30.68,-12.89,-15.32,-12.90,-15.32,15.32,15.56,20.52,2.43,2.42,2.43
30.99,-12.72,-15.15,-12.72,-15.15,15.15,15.36,20.58,2.42,2.43,2.43
31.30,-12.54,-14.97,-12.54,-14.97,14.97,15.16,20.57,2.43,2.43,2.43
31.61,-12.36,-14.80,-12.36,-14.80,14.80,14.96,20.47,2.44,2.44,2.44
31.93,-12.18,-14.63,-12.18,-14.63,14.63,14.75,20.29,2.45,2.45,2.45
32.24,-12.00,-14.45,-12.00,-14.46,14.46,14.55,20.04,2.46,2.46,2.45
32.57,-11.82,-14.29,-11.82,-14.28,14.28,14.35,19.73,2.46,2.46,2.47
32.89,-11.64,-14.11,-11.64,-14.11,14.11,14.14,19.37,2.47,2.47,2.47
33.22,-11.46,-13.94,-11.46,-13.93,13.93,13.93,18.97,2.47,2.48,2.48
33.55,-11.27,-13.76,-11.27,-13.76,13.76,13.73,18.55,2.49,2.49,2.49
33.89,-11.09,-13.59,-11.08,-13.58,13.58,13.52,18.11,2.49,2.49,2.50
34.23,-10.90,-13.40,-10.90,-13.40,13.40,13.31,17.65,2.49,2.50,2.50
34.57,-10.71,-13.22,-10.71,-13.21,13.21,13.10,17.20,2.50,2.50,2.51
34.92,-10.53,-13.04,-10.52,-13.03,13.03,12.89,16.74,2.50,2.51,2.51
35.27,-10.33,-12.85,-10.33,-12.85,12.85,12.68,16.28,2.51,2.52,2.52
35.62,-10.14,-12.66,-10.14,-12.66,12.66,12.47,15.83,2.52,2.52,2.52
35.97,-9.94,-12.46,-9.95,-12.47,12.47,12.26,15.39,2.53,2.52,2.52
36.33,-9.75,-12.28,-9.76,-12.28,12.28,12.04,14.95,2.53,2.52,2.53
36.70,-9.56,-12.08,-9.56,-12.09,12.09,11.83,14.52,2.53,2.52,2.52
37.06,-9.37,-11.90,-9.37,-11.90,11.90,11.62,14.10,2.53,2.52,2.53
37.43,-9.18,-11.71,-9.18,-11.70,11.70,11.41,13.70,2.52,2.52,2.53
37.81,-8.99,-11.52,-8.98,-11.51,11.51,11.19,13.30,2.52,2.52,2.53
38.19,-8.79,-11.32,-8.79,-11.31,11.31,10.98,12.91,2.52,2.52,2.53
38.57,-8.60,-11.12,-8.60,-11.12,11.12,10.76,12.52,2.52,2.52,2.52
38.95,-8.40,-10.92,-8.41,-10.92,10.92,10.55,12.15,2.52,2.52,2.52
39.34,-8.21,-10.72,-8.21,-10.73,10.73,10.34,11.78,2.52,2.52,2.51
39.74,-8.02,-10.53,-8.02,-10.53,10.53,10.12,11.42,2.51,2.51,2.51
40.14,-7.83,-10.34,-7.83,-10.34,10.34,9.91,11.07,2.51,2.51,2.51
40.54,-7.64,-10.15,-7.64,-10.14,10.14,9.69,10.73,2.50,2.51,2.51
40.94,-7.44,-9.94,-7.44,-9.95,9.95,9.48,10.39,2.51,2.51,2.50
41.35,-7.25,-9.75,-7.25,-9.75,9.75,9.26,10.06,2.50,2.50,2.50
41.76,-7.06,-9.56,-7.06,-9.56,9.56,9.05,9.73,2.50,2.50,2.50
42.18,-6.86,-9.36,-6.86,-9.36,9.36,8.83,9.41,2.50,2.50,2.50
42.60,-6.66,-9.16,-6.67,-9.16,9.16,8.62,9.10,2.51,2.49,2.50
43.03,-6.47,-8.97,-6.48,-8.97,8.97,8.40,8.78,2.50,2.49,2.50
43.46,-6.28,-8.78,-6.28,-8.77,8.77,8.18,8.48,2.49,2.49,2.50
43.90,-6.09,-8.57,-6.08,-8.57,8.57,7.97,8.17,2.48,2.49,2.48
44.33,-5.89,-8.37,-5.89,-8.37,8.37,7.75,7.88,2.48,2.48,2.48
44.78,-5.69,-8.16,-5.68,-8.16,8.16,7.54,7.58,2.47,2.48,2.47
45.23,-5.49,-7.96,-5.48,-7.96,7.96,7.32,7.29,2.47,2.48,2.47
45.68,-5.28,-7.75,-5.28,-7.75,7.75,7.11,7.00,2.47,2.47,2.47
46.13,-5.08,-7.54,-5.07,-7.54,7.54,6.89,6.71,2.46,2.47,2.46
46.60,-4.86,-7.33,-4.86,-7.32,7.32,6.67,6.43,2.46,2.46,2.47
47.06,-4.65,-7.11,-4.65,-7.10,7.10,6.46,6.15,2.45,2.45,2.46
47.53,-4.43,-6.88,-4.43,-6.88,6.88,6.24,5.87,2.45,2.45,2.45
48.01,-4.22,-6.68,-4.21,-6.65,6.65,6.03,5.60,2.43,2.44,2.46
48.49,-3.99,-6.43,-3.99,-6.42,6.42,5.81,5.32,2.43,2.43,2.44
48.97,-3.77,-6.19,-3.77,-6.19,6.19,5.60,5.05,2.43,2.42,2.42
49.46,-3.55,-5.96,-3.55,-5.96,5.96,5.38,4.79,2.41,2.41,2.41
49.96,-3.32,-5.71,-3.33,-5.73,5.73,5.17,4.52,2.40,2.40,2.39
50.46,-3.09,-5.48,-3.10,-5.48,5.48,4.96,4.26,2.39,2.38,2.39
50.96,-2.87,-5.24,-2.87,-5.24,5.24,4.74,4.00,2.37,2.37,2.37
51.47,-2.65,-4.99,-2.65,-5.00,5.00,4.53,3.74,2.35,2.35,2.34
51.99,-2.43,-4.76,-2.41,-4.75,4.75,4.31,3.49,2.32,2.33,2.33
52.51,-2.20,-4.52,-2.18,-4.50,4.50,4.10,3.24,2.30,2.32,2.32
53.03,-1.97,-4.27,-1.95,-4.25,4.25,3.89,2.99,2.28,2.30,2.30
53.56,-1.73,-4.02,-1.72,-4.00,4.00,3.68,2.74,2.27,2.28,2.29
54.10,-1.49,-3.75,-1.49,-3.75,3.75,3.47,2.50,2.26,2.26,2.26
54.64,-1.25,-3.50,-1.26,-3.50,3.50,3.25,2.27,2.25,2.24,2.25
55.18,-1.01,-3.23,-1.03,-3.25,3.25,3.04,2.04,2.24,2.22,2.22
55.74,-0.79,-2.98,-0.80,-3.00,3.00,2.83,1.81,2.21,2.20,2.19
56.29,-0.56,-2.75,-0.57,-2.75,2.75,2.63,1.59,2.19,2.18,2.19
56.86,-0.34,-2.50,-0.35,-2.51,2.51,2.42,1.38,2.17,2.16,2.16
57.42,-0.12,-2.25,-0.13,-2.26,2.26,2.21,1.17,2.15,2.14,2.13
58.00,0.09,-2.02,0.09,-2.02,2.02,2.00,0.98,2.11,2.11,2.11
58.58,0.30,-1.79,0.30,-1.79,1.79,1.80,0.78,2.08,2.09,2.09
59.16,0.51,-1.56,0.51,-1.55,1.55,1.60,0.60,2.06,2.06,2.07
59.76,0.72,-1.33,0.71,-1.32,1.32,1.39,0.42,2.04,2.03,2.05
60.35,0.91,-1.11,0.91,-1.10,1.10,1.19,0.25,2.01,2.00,2.02
60.96,1.11,-0.88,1.10,-0.87,0.87,0.99,0.09,1.98,1.97,1.99
61.57,1.29,-0.65,1.29,-0.66,0.66,0.79,-0.06,1.94,1.94,1.94
62.18,1.47,-0.43,1.47,-0.44,0.44,0.60,-0.20,1.91,1.91,1.90
62.80,1.65,-0.23,1.65,-0.22,0.22,0.40,-0.33,1.87,1.87,1.88
63.43,1.83,0.00,1.83,-0.01,0.01,0.21,-0.46,1.84,1.84,1.83
64.07,2.00,0.21,2.00,0.20,-0.20,0.01,-0.57,1.80,1.80,1.79
64.71,2.16,0.40,2.17,0.41,-0.41,-0.18,-0.68,1.75,1.76,1.76
65.35,2.32,0.60,2.33,0.61,-0.61,-0.36,-0.78,1.71,1.72,1.72
66.01,2.49,0.81,2.49,0.81,-0.81,-0.55,-0.87,1.68,1.68,1.68
66.67,2.65,1.00,2.65,1.01,-1.01,-0.73,-0.96,1.64,1.64,1.65
67.33,2.81,1.20,2.81,1.21,-1.21,-0.91,-1.03,1.61,1.60,1.61
68.01,2.97,1.40,2.96,1.40,-1.40,-1.09,-1.11,1.57,1.56,1.57
68.69,3.12,1.59,3.12,1.59,-1.59,-1.26,-1.17,1.53,1.53,1.53
69.37,3.27,1.78,3.27,1.78,-1.78,-1.44,-1.23,1.49,1.49,1.49
70.07,3.41,1.96,3.42,1.97,-1.97,-1.60,-1.29,1.44,1.45,1.45
70.77,3.56,2.15,3.57,2.16,-2.16,-1.77,-1.34,1.40,1.41,1.41
71.48,3.71,2.33,3.72,2.34,-2.34,-1.93,-1.39,1.37,1.37,1.38
72.19,3.85,2.52,3.86,2.53,-2.53,-2.09,-1.44,1.32,1.33,1.33
72.91,4.00,2.70,4.00,2.70,-2.70,-2.25,-1.48,1.30,1.30,1.30
73.64,4.14,2.88,4.14,2.88,-2.88,-2.40,-1.52,1.26,1.26,1.26
74.38,4.28,3.05,4.28,3.05,-3.05,-2.54,-1.56,1.23,1.23,1.23
75.12,4.41,3.22,4.41,3.22,-3.22,-2.69,-1.61,1.19,1.19,1.19
75.87,4.54,3.38,4.54,3.38,-3.38,-2.83,-1.65,1.16,1.16,1.16
76.63,4.66,3.53,4.67,3.54,-3.54,-2.96,-1.69,1.12,1.13,1.13
77.40,4.78,3.68,4.79,3.69,-3.69,-3.09,-1.73,1.09,1.10,1.10
78.17,4.90,3.83,4.90,3.83,-3.83,-3.22,-1.77,1.07,1.07,1.07
78.95,5.01,3.97,5.01,3.97,-3.97,-3.34,-1.81,1.04,1.04,1.04
79.74,5.12,4.10,5.12,4.10,-4.10,-3.46,-1.86,1.02,1.02,1.02
80.54,5.22,4.22,5.21,4.22,-4.22,-3.57,-1.91,1.00,0.99,1.00
81.35,5.31,4.34,5.31,4.34,-4.34,-3.68,-1.95,0.97,0.97,0.97
82.16,5.40,4.46,5.39,4.45,-4.45,-3.78,-2.01,0.95,0.94,0.94
82.98,5.48,4.55,5.47,4.55,-4.55,-3.88,-2.06,0.93,0.92,0.93
83.81,5.54,4.64,5.54,4.65,-4.65,-3.97,-2.12,0.89,0.90,0.90
84.65,5.60,4.73,5.61,4.73,-4.73,-4.06,-2.18,0.87,0.88,0.87
85.50,5.65,4.79,5.66,4.81,-4.81,-4.14,-2.24,0.84,0.86,0.86
86.35,5.71,4.87,5.71,4.87,-4.87,-4.22,-2.30,0.84,0.84,0.84
87.22,5.76,4.94,5.75,4.93,-4.93,-4.30,-2.37,0.83,0.82,0.82
88.09,5.79,4.99,5.78,4.98,-4.98,-4.37,-2.44,0.81,0.80,0.80
88.97,5.82,5.04,5.80,5.02,-5.02,-4.43,-2.52,0.80,0.78,0.78
89.86,5.83,5.06,5.81,5.05,-5.05,-4.49,-2.59,0.78,0.76,0.77
90.76,5.82,5.08,5.82,5.07,-5.07,-4.55,-2.67,0.75,0.74,0.74
91.66,5.81,5.09,5.81,5.09,-5.09,-4.60,-2.76,0.72,0.72,0.72
92.58,5.80,5.10,5.80,5.09,-5.09,-4.65,-2.84,0.71,0.70,0.70
93.51,5.78,5.09,5.77,5.09,-5.09,-4.69,-2.93,0.69,0.68,0.69
94.44,5.75,5.08,5.74,5.08,-5.08,-4.73,-3.03,0.67,0.66,0.67
95.39,5.71,5.06,5.71,5.07,-5.07,-4.76,-3.12,0.64,0.64,0.65
96.34,5.67,5.05,5.66,5.05,-5.05,-4.80,-3.22,0.62,0.62,0.62
97.30,5.62,5.03,5.62,5.03,-5.03,-4.82,-3.32,0.59,0.59,0.59
98.28,5.57,5.01,5.57,5.00,-5.00,-4.85,-3.43,0.57,0.57,0.56
99.26,5.50,4.96,5.51,4.97,-4.97,-4.87,-3.53,0.53,0.54,0.54
100.25,5.43,4.92,5.45,4.95,-4.95,-4.89,-3.64,0.48,0.51,0.51
101.25,5.37,4.89,5.39,4.92,-4.92,-4.90,-3.75,0.45,0.48,0.48
102.27,5.30,4.86,5.33,4.88,-4.88,-4.91,-3.86,0.42,0.45,0.44
103.29,5.26,4.85,5.26,4.85,-4.85,-4.92,-3.97,0.41,0.41,0.41
104.32,5.20,4.82,5.18,4.81,-4.81,-4.93,-4.08,0.39,0.37,0.38
105.37,5.12,4.78,5.10,4.77,-4.77,-4.94,-4.19,0.35,0.33,0.34
106.42,5.05,4.76,5.03,4.74,-4.74,-4.94,-4.31,0.31,0.29,0.29
107.48,4.97,4.71,4.95,4.70,-4.70,-4.94,-4.42,0.27,0.24,0.26
108.56,4.89,4.69,4.87,4.67,-4.67,-4.93,-4.53,0.22,0.20,0.20
109.64,4.79,4.64,4.79,4.64,-4.64,-4.93,-4.63,0.15,0.15,0.15
110.74,4.69,4.59,4.70,4.61,-4.61,-4.92,-4.74,0.08,0.09,0.10
111.85,4.59,4.54,4.62,4.58,-4.58,-4.92,-4.84,0.01,0.04,0.05
112.97,4.50,4.52,4.53,4.55,-4.55,-4.91,-4.94,-0.05,-0.02,-0.02
114.10,4.42,4.49,4.44,4.52,-4.52,-4.90,-5.03,-0.10,-0.08,-0.07
115.24,4.33,4.46,4.35,4.49,-4.49,-4.89,-5.11,-0.16,-0.13,-0.13
116.39,4.28,4.48,4.27,4.46,-4.46,-4.87,-5.19,-0.18,-0.19,-0.20
117.55,4.22,4.48,4.18,4.43,-4.43,-4.86,-5.27,-0.21,-0.25,-0.26
118.73,4.12,4.44,4.09,4.40,-4.40,-4.84,-5.33,-0.28,-0.31,-0.32
119.92,4.01,4.38,4.01,4.38,-4.38,-4.83,-5.39,-0.37,-0.37,-0.37
121.12,3.90,4.33,3.93,4.35,-4.35,-4.81,-5.44,-0.45,-0.42,-0.43
122.33,3.85,4.33,3.85,4.33,-4.33,-4.79,-5.48,-0.48,-0.48,-0.48
123.55,3.78,4.31,3.77,4.30,-4.30,-4.77,-5.51,-0.52,-0.53,-0.53
124.79,3.69,4.27,3.68,4.27,-4.27,-4.75,-5.53,-0.58,-0.59,-0.58
126.03,3.58,4.21,3.60,4.24,-4.24,-4.73,-5.55,-0.66,-0.64,-0.63
127.29,3.53,4.21,3.53,4.21,-4.21,-4.71,-5.55,-0.68,-0.69,-0.68
128.57,3.46,4.20,3.45,4.18,-4.18,-4.69,-5.54,-0.72,-0.73,-0.74
129.85,3.36,4.14,3.37,4.15,-4.15,-4.67,-5.53,-0.79,-0.78,-0.78
131.15,3.28,4.11,3.30,4.12,-4.12,-4.65,-5.50,-0.84,-0.82,-0.83
132.46,3.24,4.11,3.23,4.10,-4.10,-4.63,-5.47,-0.86,-0.87,-0.87
133.79,3.16,4.07,3.16,4.08,-4.08,-4.60,-5.43,-0.92,-0.91,-0.91
135.12,3.07,4.02,3.09,4.05,-4.05,-4.58,-5.39,-0.98,-0.95,-0.95
136.48,3.03,4.02,3.03,4.02,-4.02,-4.56,-5.33,-0.99,-0.99,-0.99
137.84,2.97,4.00,2.96,3.99,-3.99,-4.53,-5.27,-1.02,-1.03,-1.03
139.22,2.92,4.00,2.90,3.97,-3.97,-4.51,-5.21,-1.05,-1.07,-1.08
140.61,2.85,3.97,2.83,3.94,-3.94,-4.49,-5.14,-1.09,-1.11,-1.12
142.02,2.75,3.89,2.77,3.91,-3.91,-4.47,-5.07,-1.16,-1.15,-1.14
143.44,2.71,3.89,2.70,3.89,-3.89,-4.44,-4.99,-1.18,-1.18,-1.18
144.87,2.64,3.86,2.64,3.87,-3.87,-4.42,-4.91,-1.23,-1.22,-1.22
146.32,2.58,3.84,2.58,3.84,-3.84,-4.40,-4.83,-1.26,-1.26,-1.26
147.78,2.51,3.80,2.52,3.82,-3.82,-4.37,-4.75,-1.31,-1.30,-1.29
149.26,2.46,3.78,2.46,3.80,-3.80,-4.35,-4.67,-1.34,-1.34,-1.32
150.75,2.39,3.77,2.40,3.78,-3.78,-4.33,-4.58,-1.39,-1.38,-1.38
152.26,2.34,3.76,2.34,3.76,-3.76,-4.30,-4.50,-1.42,-1.42,-1.42
153.78,2.27,3.72,2.28,3.74,-3.74,-4.28,-4.42,-1.47,-1.46,-1.45
155.32,2.23,3.74,2.22,3.72,-3.72,-4.26,-4.34,-1.49,-1.50,-1.51
156.88,2.16,3.70,2.16,3.71,-3.71,-4.24,-4.26,-1.55,-1.55,-1.54
158.44,2.11,3.70,2.11,3.70,-3.70,-4.21,-4.18,-1.59,-1.59,-1.59
160.03,2.04,3.68,2.05,3.69,-3.69,-4.19,-4.10,-1.65,-1.64,-1.64
161.63,1.99,3.68,1.99,3.67,-3.67,-4.17,-4.03,-1.68,-1.68,-1.69
163.24,1.94,3.67,1.93,3.66,-3.66,-4.15,-3.96,-1.72,-1.73,-1.73
164.88,1.88,3.65,1.88,3.65,-3.65,-4.13,-3.89,-1.77,-1.78,-1.77
166.53,1.82,3.64,1.82,3.64,-3.64,-4.11,-3.82,-1.82,-1.82,-1.82
168.19,1.77,3.64,1.76,3.63,-3.63,-4.08,-3.76,-1.86,-1.87,-1.87
169.87,1.70,3.62,1.70,3.62,-3.62,-4.06,-3.69,-1.92,-1.92,-1.92
171.57,1.64,3.60,1.64,3.61,-3.61,-4.04,-3.63,-1.97,-1.97,-1.96
173.29,1.59,3.61,1.57,3.60,-3.60,-4.02,-3.58,-2.01,-2.02,-2.02
175.02,1.50,3.57,1.51,3.59,-3.59,-4.00,-3.52,-2.09,-2.08,-2.07
176.77,1.45,3.58,1.45,3.58,-3.58,-3.98,-3.47,-2.13,-2.13,-2.13
178.54,1.39,3.57,1.39,3.57,-3.57,-3.96,-3.43,-2.18,-2.18,-2.18
180.32,1.32,3.56,1.33,3.56,-3.56,-3.94,-3.38,-2.24,-2.24,-2.24
182.13,1.27,3.56,1.26,3.56,-3.56,-3.92,-3.34,-2.29,-2.30,-2.29
183.95,1.19,3.54,1.20,3.56,-3.56,-3.91,-3.30,-2.37,-2.35,-2.35
185.79,1.15,3.55,1.15,3.55,-3.55,-3.89,-3.26,-2.40,-2.41,-2.40
187.65,1.10,3.57,1.09,3.55,-3.55,-3.87,-3.23,-2.45,-2.46,-2.47
189.52,1.04,3.56,1.04,3.56,-3.56,-3.85,-3.20,-2.52,-2.52,-2.52
191.42,0.98,3.55,0.99,3.56,-3.56,-3.83,-3.17,-2.58,-2.57,-2.57
193.33,0.92,3.54,0.94,3.56,-3.56,-3.81,-3.14,-2.64,-2.62,-2.62
195.27,0.87,3.54,0.89,3.57,-3.57,-3.80,-3.12,-2.70,-2.68,-2.67
197.22,0.84,3.57,0.85,3.57,-3.57,-3.78,-3.10,-2.73,-2.73,-2.73
199.19,0.81,3.59,0.80,3.58,-3.58,-3.76,-3.08,-2.77,-2.78,-2.78
201.18,0.77,3.60,0.76,3.59,-3.59,-3.75,-3.07,-2.82,-2.82,-2.83
203.19,0.73,3.59,0.72,3.59,-3.59,-3.73,-3.05,-2.86,-2.87,-2.86
205.23,0.69,3.61,0.68,3.60,-3.60,-3.71,-3.04,-2.91,-2.92,-2.92
207.28,0.64,3.58,0.64,3.60,-3.60,-3.70,-3.03,-2.96,-2.96,-2.94
209.35,0.60,3.60,0.60,3.60,-3.60,-3.68,-3.02,-3.00,-3.00,-3.00
211.44,0.56,3.61,0.56,3.61,-3.61,-3.66,-3.01,-3.05,-3.04,-3.05
213.56,0.52,3.61,0.52,3.61,-3.61,-3.65,-3.00,-3.09,-3.08,-3.09
215.69,0.48,3.59,0.48,3.60,-3.60,-3.63,-3.00,-3.12,-3.12,-3.11
217.85,0.43,3.58,0.44,3.59,-3.59,-3.62,-2.99,-3.16,-3.16,-3.15
220.03,0.40,3.59,0.39,3.58,-3.58,-3.60,-2.99,-3.18,-3.19,-3.19
222.23,0.37,3.59,0.35,3.57,-3.57,-3.59,-2.99,-3.20,-3.22,-3.22
224.45,0.31,3.55,0.31,3.55,-3.55,-3.58,-2.98,-3.24,-3.24,-3.24
226.70,0.27,3.54,0.26,3.53,-3.53,-3.56,-2.98,-3.26,-3.27,-3.27
228.96,0.21,3.51,0.22,3.51,-3.51,-3.55,-2.98,-3.30,-3.29,-3.30
231.25,0.17,3.48,0.17,3.48,-3.48,-3.53,-2.97,-3.31,-3.31,-3.31
233.57,0.12,3.45,0.12,3.45,-3.45,-3.52,-2.97,-3.33,-3.33,-3.33
235.90,0.06,3.40,0.07,3.41,-3.41,-3.51,-2.96,-3.35,-3.34,-3.34
238.26,0.02,3.37,0.02,3.38,-3.38,-3.49,-2.96,-3.36,-3.35,-3.35
240.64,-0.02,3.34,-0.03,3.33,-3.33,-3.48,-2.95,-3.35,-3.36,-3.36
243.05,-0.06,3.30,-0.08,3.29,-3.29,-3.47,-2.94,-3.35,-3.37,-3.36
245.48,-0.11,3.26,-0.13,3.24,-3.24,-3.45,-2.94,-3.35,-3.37,-3.37
247.93,-0.18,3.19,-0.18,3.19,-3.19,-3.44,-2.93,-3.37,-3.37,-3.37
250.41,-0.23,3.14,-0.23,3.13,-3.13,-3.43,-2.92,-3.36,-3.37,-3.37
252.92,-0.30,3.06,-0.28,3.08,-3.08,-3.42,-2.91,-3.38,-3.36,-3.36
255.45,-0.34,3.01,-0.33,3.03,-3.03,-3.40,-2.89,-3.37,-3.36,-3.35
258.00,-0.38,2.96,-0.38,2.97,-2.97,-3.39,-2.88,-3.35,-3.35,-3.34
260.58,-0.43,2.91,-0.43,2.91,-2.91,-3.38,-2.86,-3.34,-3.34,-3.34
263.19,-0.48,2.85,-0.47,2.85,-2.85,-3.37,-2.85,-3.33,-3.33,-3.33
265.82,-0.53,2.79,-0.52,2.80,-2.80,-3.36,-2.83,-3.33,-3.32,-3.32
268.48,-0.56,2.74,-0.57,2.74,-2.74,-3.35,-2.81,-3.30,-3.30,-3.30
271.16,-0.60,2.68,-0.61,2.68,-2.68,-3.33,-2.79,-3.28,-3.29,-3.28
273.87,-0.65,2.63,-0.65,2.62,-2.62,-3.32,-2.77,-3.27,-3.28,-3.28
276.61,-0.68,2.57,-0.69,2.57,-2.57,-3.31,-2.75,-3.25,-3.26,-3.25
279.38,-0.72,2.53,-0.73,2.52,-2.52,-3.30,-2.73,-3.24,-3.25,-3.25
282.17,-0.77,2.46,-0.77,2.47,-2.47,-3.29,-2.71,-3.24,-3.24,-3.23
284.99,-0.81,2.41,-0.81,2.42,-2.42,-3.28,-2.69,-3.23,-3.22,-3.22
287.84,-0.85,2.36,-0.84,2.37,-2.37,-3.27,-2.67,-3.22,-3.21,-3.21
290.72,-0.88,2.32,-0.88,2.32,-2.32,-3.26,-2.65,-3.20,-3.19,-3.20
293.63,-0.91,2.27,-0.91,2.27,-2.27,-3.25,-2.63,-3.18,-3.18,-3.18
296.57,-0.93,2.23,-0.93,2.24,-2.24,-3.24,-2.62,-3.17,-3.17,-3.16
299.53,-0.96,2.20,-0.96,2.20,-2.20,-3.23,-2.60,-3.16,-3.16,-3.16
302.53,-0.98,2.17,-0.97,2.17,-2.17,-3.22,-2.58,-3.15,-3.14,-3.15
305.55,-1.00,2.13,-0.99,2.14,-2.14,-3.21,-2.56,-3.14,-3.13,-3.13
308.61,-1.02,2.10,-1.00,2.12,-2.12,-3.20,-2.55,-3.14,-3.12,-3.12
311.69,-1.02,2.09,-1.01,2.10,-2.10,-3.19,-2.54,-3.12,-3.11,-3.11
314.81,-1.02,2.06,-1.01,2.09,-2.09,-3.18,-2.52,-3.11,-3.10,-3.08
317.96,-1.02,2.07,-1.01,2.08,-2.08,-3.17,-2.51,-3.10,-3.09,-3.09
321.14,-1.01,2.07,-1.02,2.07,-2.07,-3.16,-2.50,-3.08,-3.08,-3.08
324.35,-1.00,2.08,-1.02,2.06,-2.06,-3.15,-2.50,-3.06,-3.08,-3.08
327.59,-1.00,2.07,-1.02,2.05,-2.05,-3.14,-2.49,-3.05,-3.07,-3.07
330.87,-1.00,2.07,-1.02,2.05,-2.05,-3.13,-2.49,-3.05,-3.07,-3.07
334.18,-1.00,2.07,-1.02,2.05,-2.05,-3.12,-2.48,-3.05,-3.07,-3.07
337.52,-1.00,2.06,-1.02,2.04,-2.04,-3.12,-2.48,-3.04,-3.06,-3.06
340.90,-1.01,2.05,-1.02,2.05,-2.05,-3.11,-2.49,-3.06,-3.06,-3.06
344.30,-1.02,2.04,-1.02,2.05,-2.05,-3.10,-2.49,-3.07,-3.06,-3.06
347.75,-1.02,2.04,-1.01,2.05,-2.05,-3.09,-2.49,-3.07,-3.06,-3.06
351.23,-1.03,2.03,-1.01,2.06,-2.06,-3.08,-2.50,-3.09,-3.07,-3.06
354.74,-1.02,2.04,-1.00,2.07,-2.07,-3.07,-2.51,-3.09,-3.07,-3.06
358.28,-1.00,2.08,-1.00,2.08,-2.08,-3.06,-2.52,-3.08,-3.07,-3.08
361.87,-0.99,2.09,-0.98,2.10,-2.10,-3.05,-2.53,-3.09,-3.08,-3.08
365.49,-0.96,2.12,-0.97,2.12,-2.12,-3.05,-2.55,-3.08,-3.08,-3.08
369.14,-0.94,2.15,-0.94,2.15,-2.15,-3.04,-2.56,-3.09,-3.09,-3.09
372.83,-0.93,2.16,-0.92,2.18,-2.18,-3.03,-2.58,-3.11,-3.10,-3.09
376.56,-0.89,2.21,-0.89,2.22,-2.22,-3.02,-2.60,-3.11,-3.10,-3.10
380.33,-0.86,2.25,-0.85,2.26,-2.26,-3.01,-2.63,-3.12,-3.11,-3.11
384.13,-0.81,2.31,-0.81,2.31,-2.31,-3.00,-2.65,-3.12,-3.12,-3.12
387.97,-0.77,2.36,-0.77,2.36,-2.36,-2.99,-2.67,-3.13,-3.13,-3.13
391.85,-0.72,2.42,-0.72,2.41,-2.41,-2.99,-2.70,-3.13,-3.13,-3.14
395.77,-0.68,2.45,-0.67,2.47,-2.47,-2.98,-2.73,-3.15,-3.14,-3.13
399.73,-0.62,2.52,-0.62,2.53,-2.53,-2.97,-2.76,-3.15,-3.15,-3.14
403.72,-0.56,2.59,-0.57,2.59,-2.59,-2.96,-2.79,-3.15,-3.15,-3.15
407.76,-0.50,2.66,-0.51,2.65,-2.65,-2.95,-2.82,-3.15,-3.16,-3.16
411.84,-0.44,2.71,-0.45,2.71,-2.71,-2.94,-2.85,-3.15,-3.16,-3.15
415.96,-0.39,2.78,-0.39,2.78,-2.78,-2.94,-2.89,-3.17,-3.17,-3.17
420.12,-0.33,2.84,-0.33,2.84,-2.84,-2.93,-2.92,-3.17,-3.17,-3.17
424.32,-0.27,2.90,-0.26,2.91,-2.91,-2.92,-2.95,-3.18,-3.17,-3.17
428.56,-0.21,2.97,-0.20,2.97,-2.97,-2.91,-2.99,-3.18,-3.18,-3.18
432.85,-0.15,3.03,-0.14,3.04,-3.04,-2.90,-3.02,-3.19,-3.18,-3.18
437.18,-0.07,3.11,-0.07,3.11,-3.11,-2.90,-3.05,-3.18,-3.18,-3.18
441.55,-0.01,3.16,-0.01,3.17,-3.17,-2.89,-3.08,-3.18,-3.18,-3.17
445.96,0.06,3.23,0.06,3.23,-3.23,-2.88,-3.12,-3.17,-3.18,-3.17
450.42,0.13,3.31,0.12,3.30,-3.30,-2.87,-3.15,-3.17,-3.17,-3.18
454.93,0.20,3.37,0.19,3.36,-3.36,-2.86,-3.18,-3.16,-3.17,-3.17
