frequency,raw,error,smoothed,error_smoothed,equalization,parametric_eq,fixed_band_eq,equalized_raw,equalized_smoothed,target
20.00,-20.44,-23.42,-20.44,-23.45,23.45,22.46,9.83,3.01,3.01,2.98
20.20,-20.28,-23.30,-20.28,-23.32,23.32,22.42,10.00,3.04,3.04,3.02
20.40,-20.11,-23.17,-20.11,-23.18,23.18,22.38,10.18,3.07,3.07,3.06
20.61,-19.95,-23.05,-19.95,-23.05,23.05,22.33,10.36,3.09,3.10,3.09
20.81,-19.79,-22.92,-19.79,-22.91,22.91,22.28,10.54,3.12,3.12,3.13
21.02,-19.62,-22.79,-19.62,-22.77,22.77,22.23,10.73,3.15,3.15,3.17
21.23,-19.46,-22.65,-19.46,-22.63,22.63,22.16,10.92,3.17,3.17,3.19
21.44,-19.29,-22.50,-19.29,-22.48,22.48,22.10,11.12,3.20,3.19,3.21
21.66,-19.12,-22.35,-19.12,-22.34,22.34,22.03,11.32,3.22,3.21,3.23
21.87,-18.96,-22.20,-18.96,-22.19,22.19,21.95,11.53,3.23,3.23,3.24
22.09,-18.79,-22.05,-18.79,-22.04,22.04,21.87,11.74,3.25,3.25,3.26
22.31,-18.62,-21.89,-18.62,-21.89,21.89,21.78,11.96,3.27,3.27,3.27
22.54,-18.45,-21.73,-18.45,-21.73,21.73,21.68,12.19,3.28,3.28,3.28
22.76,-18.28,-21.57,-18.28,-21.57,21.57,21.59,12.42,3.29,3.29,3.29
22.99,-18.11,-21.40,-18.11,-21.40,21.40,21.48,12.66,3.29,3.30,3.29
23.22,-17.93,-21.23,-17.94,-21.24,21.24,21.37,12.90,3.31,3.31,3.30
23.45,-17.76,-21.06,-17.76,-21.08,21.08,21.26,13.15,3.32,3.31,3.31
23.69,-17.59,-20.91,-17.59,-20.91,20.91,21.14,13.41,3.32,3.32,3.31
23.92,-17.42,-20.74,-17.42,-20.75,20.75,21.01,13.68,3.33,3.33,3.32
24.16,-17.24,-20.58,-17.24,-20.58,20.58,20.88,13.95,3.34,3.34,3.34
24.40,-17.07,-20.43,-17.07,-20.42,20.42,20.75,14.23,3.35,3.35,3.36
24.65,-16.89,-20.25,-16.89,-20.25,20.25,20.61,14.52,3.36,3.36,3.36
24.89,-16.71,-20.08,-16.71,-20.08,20.08,20.46,14.83,3.37,3.37,3.37
25.14,-16.54,-19.92,-16.53,-19.91,19.91,20.31,15.14,3.38,3.38,3.38
25.39,-16.36,-19.75,-16.36,-19.75,19.75,20.16,15.46,3.39,3.39,3.39
25.65,-16.18,-19.59,-16.18,-19.58,19.58,20.00,15.79,3.40,3.40,3.41
25.91,-16.00,-19.41,-16.00,-19.41,19.41,19.84,16.13,3.40,3.41,3.41
26.16,-15.81,-19.22,-15.82,-19.24,19.24,19.67,16.48,3.43,3.42,3.42
26.43,-15.63,-19.06,-15.63,-19.06,19.06,19.50,16.85,3.43,3.43,3.42
26.69,-15.45,-18.88,-15.45,-18.89,18.89,19.33,17.23,3.44,3.44,3.43
26.96,-15.27,-18.72,-15.27,-18.71,18.71,19.15,17.61,3.44,3.45,3.45
27.23,-15.09,-18.55,-15.09,-18.54,18.54,18.97,18.01,3.45,3.45,3.46
27.50,-14.90,-18.37,-14.90,-18.37,18.37,18.79,18.42,3.46,3.46,3.47
27.77,-14.72,-18.18,-14.72,-18.19,18.19,18.60,18.84,3.47,3.47,3.47
28.05,-14.54,-18.02,-14.53,-18.01,18.01,18.42,19.27,3.47,3.48,3.49
28.33,-14.35,-17.83,-14.35,-17.84,17.84,18.22,19.70,3.49,3.49,3.48
28.62,-14.17,-17.66,-14.17,-17.66,17.66,18.03,20.14,3.49,3.49,3.49
28.90,-13.98,-17.48,-13.98,-17.49,17.49,17.84,20.57,3.51,3.50,3.50
29.19,-13.80,-17.30,-13.80,-17.31,17.31,17.64,20.98,3.51,3.51,3.50
29.48,-13.61,-17.14,-13.62,-17.14,17.14,17.44,21.38,3.53,3.52,3.53
29.78,-13.43,-16.96,-13.44,-16.96,16.96,17.24,21.74,3.53,3.52,3.52
30.08,-13.25,-16.79,-13.26,-16.78,16.78,17.04,22.05,3.53,3.53,3.53
30.38,-13.07,-16.60,-13.08,-16.61,16.61,16.83,22.31,3.54,3.53,3.53
30.68,-12.89,-16.44,-12.90,-16.44,16.44,16.63,22.49,3.55,3.54,3.55
30.99,-12.72,-16.27,-12.72,-16.27,16.27,16.42,22.58,3.54,3.55,3.55
31.30,-12.54,-16.10,-12.54,-16.09,16.09,16.21,22.57,3.55,3.56,3.55
31.61,-12.36,-15.92,-12.36,-15.92,15.92,16.00,22.47,3.56,3.56,3.56
31.93,-12.18,-15.75,-12.18,-15.75,15.75,15.79,22.28,3.57,3.57,3.57
32.24,-12.00,-15.56,-12.00,-15.58,15.58,15.58,22.00,3.58,3.58,3.57
32.57,-11.82,-15.40,-11.82,-15.40,15.40,15.37,21.66,3.58,3.58,3.58
32.89,-11.64,-15.23,-11.64,-15.23,15.23,15.16,21.25,3.59,3.59,3.59
33.22,-11.46,-15.06,-11.46,-15.05,15.05,14.94,20.81,3.59,3.60,3.60
33.55,-11.27,-14.87,-11.27,-14.87,14.87,14.73,20.34,3.60,3.60,3.60
33.89,-11.09,-14.70,-11.08,-14.69,14.69,14.51,19.85,3.60,3.61,3.61
34.23,-10.90,-14.52,-10.90,-14.51,14.51,14.30,19.36,3.61,3.61,3.62
34.57,-10.71,-14.33,-10.71,-14.33,14.33,14.08,18.86,3.62,3.62,3.62
34.92,-10.53,-14.15,-10.52,-14.14,14.14,13.87,18.36,3.61,3.62,3.62
35.27,-10.33,-13.96,-10.33,-13.96,13.96,13.65,17.87,3.63,3.63,3.63
35.62,-10.14,-13.77,-10.14,-13.77,13.77,13.44,17.38,3.63,3.63,3.63
35.97,-9.94,-13.57,-9.95,-13.58,13.58,13.22,16.91,3.64,3.63,3.63
36.33,-9.75,-13.38,-9.76,-13.39,13.39,13.00,16.44,3.64,3.63,3.63
36.70,-9.56,-13.19,-9.56,-13.20,13.20,12.78,15.99,3.64,3.63,3.63
37.06,-9.37,-13.00,-9.37,-13.00,13.00,12.57,15.54,3.64,3.63,3.64
37.43,-9.18,-12.82,-9.18,-12.81,12.81,12.35,15.11,3.63,3.63,3.64
37.81,-8.99,-12.63,-8.98,-12.61,12.61,12.13,14.68,3.62,3.63,3.64
38.19,-8.79,-12.42,-8.79,-12.42,12.42,11.92,14.27,3.63,3.63,3.63
38.57,-8.60,-12.23,-8.60,-12.22,12.22,11.70,13.87,3.62,3.62,3.62
38.95,-8.40,-12.02,-8.41,-12.03,12.03,11.48,13.47,3.63,3.62,3.62
39.34,-8.21,-11.82,-8.21,-11.83,11.83,11.26,13.09,3.62,3.62,3.61
39.74,-8.02,-11.63,-8.02,-11.64,11.64,11.05,12.71,3.61,3.61,3.61
40.14,-7.83,-11.44,-7.83,-11.44,11.44,10.83,12.34,3.61,3.61,3.61
40.54,-7.64,-11.25,-7.64,-11.24,11.24,10.61,11.97,3.60,3.61,3.60
40.94,-7.44,-11.04,-7.44,-11.05,11.05,10.40,11.62,3.61,3.60,3.60
41.35,-7.25,-10.84,-7.25,-10.85,10.85,10.18,11.27,3.60,3.60,3.59
41.76,-7.06,-10.65,-7.06,-10.65,10.65,9.96,10.92,3.59,3.59,3.59
42.18,-6.86,-10.46,-6.86,-10.45,10.45,9.75,10.58,3.59,3.59,3.60
42.60,-6.66,-10.25,-6.67,-10.26,10.26,9.53,10.25,3.60,3.58,3.59
43.03,-6.47,-10.06,-6.48,-10.06,10.06,9.31,9.92,3.59,3.58,3.59
43.46,-6.28,-9.86,-6.28,-9.86,9.86,9.10,9.59,3.58,3.58,3.58
43.90,-6.09,-9.66,-6.08,-9.66,9.66,8.88,9.27,3.56,3.57,3.56
44.33,-5.89,-9.45,-5.89,-9.45,9.45,8.67,8.95,3.56,3.57,3.56
44.78,-5.69,-9.25,-5.68,-9.25,9.25,8.45,8.63,3.56,3.56,3.56
45.23,-5.49,-9.04,-5.48,-9.04,9.04,8.23,8.32,3.55,3.56,3.55
45.68,-5.28,-8.83,-5.28,-8.83,8.83,8.02,8.01,3.55,3.55,3.55
46.13,-5.08,-8.61,-5.07,-8.61,8.61,7.81,7.71,3.54,3.54,3.53
46.60,-4.86,-8.41,-4.86,-8.40,8.40,7.59,7.40,3.53,3.54,3.54
47.06,-4.65,-8.18,-4.65,-8.17,8.17,7.38,7.10,3.52,3.53,3.53
47.53,-4.43,-7.95,-4.43,-7.95,7.95,7.16,6.80,3.52,3.52,3.52
48.01,-4.22,-7.75,-4.21,-7.72,7.72,6.95,6.51,3.50,3.51,3.53
48.49,-3.99,-7.50,-3.99,-7.49,7.49,6.74,6.21,3.50,3.50,3.51
48.97,-3.77,-7.25,-3.77,-7.26,7.26,6.52,5.92,3.49,3.49,3.48
49.46,-3.55,-7.02,-3.55,-7.02,7.02,6.31,5.63,3.48,3.47,3.47
49.96,-3.32,-6.77,-3.33,-6.79,6.79,6.10,5.35,3.46,3.46,3.45
50.46,-3.09,-6.53,-3.10,-6.54,6.54,5.89,5.06,3.45,3.44,3.44
50.96,-2.87,-6.30,-2.87,-6.30,6.30,5.68,4.78,3.43,3.42,3.43
51.47,-2.65,-6.04,-2.65,-6.05,6.05,5.47,4.50,3.40,3.40,3.39
51.99,-2.43,-5.81,-2.41,-5.80,5.80,5.26,4.22,3.37,3.38,3.38
52.51,-2.20,-5.57,-2.18,-5.55,5.55,5.05,3.95,3.34,3.36,3.37
53.03,-1.97,-5.31,-1.95,-5.29,5.29,4.84,3.68,3.32,3.34,3.34
53.56,-1.73,-5.05,-1.72,-5.04,5.04,4.63,3.41,3.31,3.32,3.32
54.10,-1.49,-4.79,-1.49,-4.78,4.78,4.42,3.15,3.29,3.30,3.30
54.64,-1.25,-4.53,-1.26,-4.53,4.53,4.22,2.89,3.28,3.27,3.28
55.18,-1.01,-4.26,-1.03,-4.28,4.28,4.01,2.64,3.27,3.25,3.25
55.74,-0.79,-4.01,-0.80,-4.03,4.03,3.80,2.39,3.23,3.23,3.22
56.29,-0.56,-3.77,-0.57,-3.77,3.77,3.60,2.15,3.22,3.20,3.21
56.86,-0.34,-3.52,-0.35,-3.53,3.53,3.40,1.92,3.18,3.18,3.18
57.42,-0.12,-3.26,-0.13,-3.28,3.28,3.19,1.69,3.16,3.15,3.14
58.00,0.09,-3.03,0.09,-3.03,3.03,2.99,1.48,3.12,3.12,3.12
58.58,0.30,-2.80,0.30,-2.79,2.79,2.79,1.27,3.09,3.09,3.10
59.16,0.51,-2.56,0.51,-2.55,2.55,2.59,1.06,3.07,3.06,3.07
59.76,0.72,-2.33,0.71,-2.32,2.32,2.39,0.87,3.04,3.03,3.05
60.35,0.91,-2.10,0.91,-2.09,2.09,2.20,0.69,3.00,3.00,3.01
60.96,1.11,-1.87,1.10,-1.86,1.86,2.00,0.52,2.97,2.96,2.97
61.57,1.29,-1.64,1.29,-1.64,1.64,1.81,0.35,2.93,2.93,2.93
62.18,1.47,-1.41,1.47,-1.42,1.42,1.61,0.20,2.89,2.89,2.88
62.80,1.65,-1.20,1.65,-1.20,1.20,1.42,0.06,2.85,2.85,2.85
63.43,1.83,-0.97,1.83,-0.98,0.98,1.23,-0.07,2.81,2.81,2.80
64.07,2.00,-0.76,2.00,-0.77,0.77,1.04,-0.19,2.77,2.76,2.76
64.71,2.16,-0.56,2.17,-0.56,0.56,0.86,-0.31,2.71,2.72,2.72
65.35,2.32,-0.35,2.33,-0.35,0.35,0.67,-0.41,2.67,2.68,2.67
66.01,2.49,-0.14,2.49,-0.14,0.14,0.49,-0.50,2.63,2.63,2.63
66.67,2.65,0.05,2.65,0.06,-0.06,0.31,-0.59,2.59,2.59,2.60
67.33,2.81,0.26,2.81,0.27,-0.27,0.13,-0.67,2.54,2.54,2.55
68.01,2.97,0.47,2.96,0.47,-0.47,-0.05,-0.74,2.50,2.50,2.50
68.69,3.12,0.66,3.12,0.67,-0.67,-0.22,-0.80,2.45,2.45,2.46
69.37,3.27,0.86,3.27,0.86,-0.86,-0.39,-0.86,2.41,2.41,2.41
70.07,3.41,1.05,3.42,1.06,-1.06,-0.56,-0.91,2.35,2.36,2.36
70.77,3.56,1.24,3.57,1.25,-1.25,-0.73,-0.96,2.31,2.32,2.32
71.48,3.71,1.43,3.72,1.44,-1.44,-0.89,-1.01,2.27,2.27,2.28
72.19,3.85,1.63,3.86,1.63,-1.63,-1.05,-1.05,2.22,2.23,2.22
72.91,4.00,1.82,4.00,1.82,-1.82,-1.21,-1.09,2.18,2.18,2.18
73.64,4.14,2.00,4.14,2.00,-2.00,-1.37,-1.12,2.14,2.14,2.14
74.38,4.28,2.18,4.28,2.18,-2.18,-1.52,-1.16,2.10,2.10,2.10
75.12,4.41,2.35,4.41,2.35,-2.35,-1.67,-1.19,2.06,2.06,2.06
75.87,4.54,2.52,4.54,2.52,-2.52,-1.81,-1.23,2.02,2.02,2.02
76.63,4.66,2.68,4.67,2.68,-2.68,-1.95,-1.26,1.98,1.98,1.98
77.40,4.78,2.84,4.79,2.84,-2.84,-2.09,-1.30,1.94,1.94,1.94
78.17,4.90,3.00,4.90,2.99,-2.99,-2.22,-1.33,1.91,1.91,1.90
78.95,5.01,3.14,5.01,3.14,-3.14,-2.35,-1.37,1.87,1.87,1.87
79.74,5.12,3.28,5.12,3.28,-3.28,-2.48,-1.41,1.84,1.84,1.84
80.54,5.22,3.41,5.21,3.41,-3.41,-2.60,-1.45,1.81,1.80,1.81
81.35,5.31,3.54,5.31,3.54,-3.54,-2.72,-1.50,1.77,1.77,1.77
82.16,5.40,3.66,5.39,3.65,-3.65,-2.84,-1.54,1.75,1.74,1.74
82.98,5.48,3.77,5.47,3.76,-3.76,-2.95,-1.59,1.72,1.71,1.71
83.81,5.54,3.86,5.54,3.87,-3.87,-3.05,-1.64,1.67,1.68,1.68
84.65,5.60,3.96,5.61,3.96,-3.96,-3.16,-1.70,1.64,1.65,1.64
85.50,5.65,4.03,5.66,4.05,-4.05,-3.26,-1.76,1.60,1.62,1.62
86.35,5.71,4.12,5.71,4.12,-4.12,-3.35,-1.82,1.59,1.59,1.59
87.22,5.76,4.20,5.75,4.19,-4.19,-3.44,-1.88,1.57,1.56,1.56
88.09,5.79,4.26,5.78,4.24,-4.24,-3.53,-1.95,1.55,1.54,1.53
88.97,5.82,4.31,5.80,4.29,-4.29,-3.61,-2.02,1.53,1.51,1.51
89.86,5.83,4.34,5.81,4.33,-4.33,-3.69,-2.09,1.50,1.48,1.49
90.76,5.82,4.37,5.82,4.36,-4.36,-3.76,-2.17,1.46,1.45,1.45
91.66,5.81,4.39,5.81,4.39,-4.39,-3.83,-2.25,1.42,1.42,1.42
92.58,5.80,4.41,5.80,4.40,-4.40,-3.90,-2.34,1.40,1.40,1.39
93.51,5.78,4.41,5.77,4.41,-4.41,-3.96,-2.42,1.37,1.37,1.37
94.44,5.75,4.41,5.74,4.41,-4.41,-4.02,-2.51,1.34,1.34,1.34
95.39,5.71,4.40,5.71,4.41,-4.41,-4.08,-2.61,1.31,1.30,1.31
96.34,5.67,4.40,5.66,4.40,-4.40,-4.13,-2.70,1.27,1.27,1.27
97.30,5.62,4.39,5.62,4.38,-4.38,-4.17,-2.80,1.24,1.24,1.23
98.28,5.57,4.37,5.57,4.37,-4.37,-4.22,-2.90,1.20,1.20,1.20
99.26,5.50,4.34,5.51,4.35,-4.35,-4.26,-3.01,1.15,1.16,1.16
100.25,5.43,4.31,5.45,4.33,-4.33,-4.30,-3.11,1.10,1.12,1.12
101.25,5.37,4.28,5.39,4.31,-4.31,-4.33,-3.22,1.06,1.08,1.08
102.27,5.30,4.26,5.33,4.29,-4.29,-4.36,-3.33,1.01,1.04,1.04
103.29,5.26,4.27,5.26,4.26,-4.26,-4.39,-3.44,1.00,0.99,0.99
104.32,5.20,4.25,5.18,4.24,-4.24,-4.42,-3.55,0.96,0.95,0.95
105.37,5.12,4.22,5.10,4.21,-4.21,-4.44,-3.66,0.91,0.90,0.90
106.42,5.05,4.20,5.03,4.18,-4.18,-4.46,-3.77,0.87,0.84,0.85
107.48,4.97,4.17,4.95,4.16,-4.16,-4.48,-3.88,0.81,0.79,0.80
108.56,4.89,4.16,4.87,4.14,-4.14,-4.50,-3.99,0.75,0.73,0.73
109.64,4.79,4.12,4.79,4.12,-4.12,-4.51,-4.10,0.67,0.67,0.67
110.74,4.69,4.07,4.70,4.10,-4.10,-4.52,-4.20,0.59,0.61,0.62
111.85,4.59,4.04,4.62,4.08,-4.08,-4.53,-4.30,0.51,0.54,0.55
112.97,4.50,4.03,4.53,4.06,-4.06,-4.54,-4.40,0.44,0.48,0.47
114.10,4.42,4.01,4.44,4.03,-4.03,-4.54,-4.49,0.39,0.41,0.42
115.24,4.33,3.99,4.35,4.01,-4.01,-4.55,-4.58,0.32,0.34,0.34
116.39,4.28,4.02,4.27,3.99,-3.99,-4.55,-4.66,0.29,0.27,0.26
117.55,4.22,4.02,4.18,3.98,-3.98,-4.55,-4.74,0.24,0.20,0.20
118.73,4.12,4.00,4.09,3.96,-3.96,-4.55,-4.81,0.16,0.14,0.12
119.92,4.01,3.94,4.01,3.94,-3.94,-4.55,-4.87,0.07,0.07,0.07
121.12,3.90,3.91,3.93,3.93,-3.93,-4.54,-4.92,-0.03,0.00,-0.01
122.33,3.85,3.92,3.85,3.91,-3.91,-4.54,-4.96,-0.06,-0.06,-0.07
123.55,3.78,3.90,3.77,3.89,-3.89,-4.53,-5.00,-0.11,-0.13,-0.12
124.79,3.69,3.87,3.68,3.87,-3.87,-4.53,-5.03,-0.18,-0.19,-0.18
126.03,3.58,3.82,3.60,3.85,-3.85,-4.52,-5.04,-0.27,-0.25,-0.24
127.29,3.53,3.84,3.53,3.84,-3.84,-4.51,-5.05,-0.31,-0.31,-0.31
128.57,3.46,3.84,3.45,3.82,-3.82,-4.50,-5.05,-0.35,-0.37,-0.38
129.85,3.36,3.78,3.37,3.79,-3.79,-4.49,-5.04,-0.43,-0.42,-0.42
131.15,3.28,3.76,3.30,3.78,-3.78,-4.48,-5.03,-0.50,-0.48,-0.48
132.46,3.24,3.77,3.23,3.76,-3.76,-4.47,-5.00,-0.52,-0.53,-0.53
133.79,3.16,3.74,3.16,3.75,-3.75,-4.46,-4.97,-0.58,-0.58,-0.58
135.12,3.07,3.70,3.09,3.73,-3.73,-4.44,-4.93,-0.66,-0.63,-0.63
136.48,3.03,3.71,3.03,3.71,-3.71,-4.43,-4.88,-0.68,-0.68,-0.68
137.84,2.97,3.70,2.96,3.69,-3.69,-4.42,-4.83,-0.72,-0.73,-0.73
139.22,2.92,3.70,2.90,3.67,-3.67,-4.40,-4.78,-0.75,-0.78,-0.78
140.61,2.85,3.69,2.83,3.65,-3.65,-4.39,-4.72,-0.81,-0.82,-0.84
142.02,2.75,3.62,2.77,3.64,-3.64,-4.37,-4.65,-0.89,-0.87,-0.87
143.44,2.71,3.62,2.70,3.62,-3.62,-4.36,-4.58,-0.91,-0.91,-0.91
144.87,2.64,3.60,2.64,3.60,-3.60,-4.34,-4.52,-0.96,-0.96,-0.96
146.32,2.58,3.59,2.58,3.59,-3.59,-4.32,-4.44,-1.01,-1.01,-1.01
147.78,2.51,3.55,2.52,3.57,-3.57,-4.31,-4.37,-1.06,-1.05,-1.04
149.26,2.46,3.55,2.46,3.56,-3.56,-4.29,-4.30,-1.10,-1.10,-1.09
150.75,2.39,3.55,2.40,3.55,-3.55,-4.28,-4.23,-1.16,-1.15,-1.16
152.26,2.34,3.54,2.34,3.54,-3.54,-4.26,-4.15,-1.20,-1.20,-1.20
153.78,2.27,3.51,2.28,3.53,-3.53,-4.24,-4.08,-1.26,-1.25,-1.24
155.32,2.23,3.54,2.22,3.52,-3.52,-4.23,-4.01,-1.29,-1.30,-1.31
156.88,2.16,3.51,2.16,3.51,-3.51,-4.21,-3.94,-1.35,-1.35,-1.35
158.44,2.11,3.51,2.11,3.51,-3.51,-4.19,-3.87,-1.40,-1.40,-1.40
160.03,2.04,3.50,2.05,3.50,-3.50,-4.18,-3.80,-1.46,-1.45,-1.46
161.63,1.99,3.51,1.99,3.50,-3.50,-4.16,-3.74,-1.51,-1.51,-1.52
163.24,1.94,3.50,1.93,3.49,-3.49,-4.14,-3.67,-1.55,-1.56,-1.56
164.88,1.88,3.49,1.88,3.49,-3.49,-4.13,-3.61,-1.61,-1.61,-1.61
166.53,1.82,3.49,1.82,3.48,-3.48,-4.11,-3.56,-1.66,-1.67,-1.67
168.19,1.77,3.49,1.76,3.48,-3.48,-4.09,-3.50,-1.71,-1.72,-1.72
169.87,1.70,3.47,1.70,3.47,-3.47,-4.08,-3.45,-1.77,-1.78,-1.77
171.57,1.64,3.47,1.64,3.47,-3.47,-4.06,-3.40,-1.83,-1.83,-1.83
173.29,1.59,3.48,1.57,3.47,-3.47,-4.04,-3.35,-1.88,-1.89,-1.89
175.02,1.50,3.44,1.51,3.46,-3.46,-4.03,-3.31,-1.96,-1.95,-1.94
176.77,1.45,3.46,1.45,3.46,-3.46,-4.01,-3.27,-2.01,-2.01,-2.01
178.54,1.39,3.46,1.39,3.46,-3.46,-4.00,-3.23,-2.07,-2.07,-2.07
180.32,1.32,3.45,1.33,3.45,-3.45,-3.98,-3.19,-2.13,-2.13,-2.13
182.13,1.27,3.46,1.26,3.45,-3.45,-3.96,-3.16,-2.18,-2.19,-2.19
183.95,1.19,3.44,1.20,3.46,-3.46,-3.95,-3.13,-2.27,-2.25,-2.25
185.79,1.15,3.46,1.15,3.46,-3.46,-3.93,-3.10,-2.31,-2.31,-2.31
187.65,1.10,3.48,1.09,3.47,-3.47,-3.92,-3.08,-2.37,-2.37,-2.38
189.52,1.04,3.48,1.04,3.47,-3.47,-3.90,-3.06,-2.43,-2.43,-2.44
191.42,0.98,3.47,0.99,3.48,-3.48,-3.89,-3.04,-2.50,-2.49,-2.49
193.33,0.92,3.47,0.94,3.49,-3.49,-3.87,-3.02,-2.57,-2.55,-2.55
195.27,0.87,3.47,0.89,3.50,-3.50,-3.86,-3.01,-2.63,-2.61,-2.60
197.22,0.84,3.50,0.85,3.51,-3.51,-3.84,-2.99,-2.67,-2.66,-2.66
199.19,0.81,3.53,0.80,3.52,-3.52,-3.83,-2.99,-2.71,-2.71,-2.72
201.18,0.77,3.54,0.76,3.53,-3.53,-3.81,-2.98,-2.76,-2.77,-2.77
203.19,0.73,3.54,0.72,3.54,-3.54,-3.80,-2.97,-2.81,-2.82,-2.81
205.23,0.69,3.56,0.68,3.55,-3.55,-3.78,-2.97,-2.86,-2.87,-2.87
207.28,0.64,3.54,0.64,3.55,-3.55,-3.77,-2.97,-2.91,-2.91,-2.90
209.35,0.60,3.56,0.60,3.56,-3.56,-3.76,-2.97,-2.96,-2.96,-2.96
211.44,0.56,3.57,0.56,3.57,-3.57,-3.74,-2.97,-3.01,-3.00,-3.01
213.56,0.52,3.57,0.52,3.57,-3.57,-3.73,-2.97,-3.05,-3.05,-3.05
215.69,0.48,3.56,0.48,3.57,-3.57,-3.72,-2.97,-3.09,-3.09,-3.08
217.85,0.43,3.55,0.44,3.56,-3.56,-3.70,-2.97,-3.13,-3.13,-3.12
220.03,0.40,3.57,0.39,3.55,-3.55,-3.69,-2.98,-3.15,-3.16,-3.17
222.23,0.37,3.57,0.35,3.54,-3.54,-3.68,-2.98,-3.17,-3.19,-3.20
224.45,0.31,3.54,0.31,3.53,-3.53,-3.66,-2.98,-3.22,-3.22,-3.23
226.70,0.27,3.52,0.26,3.52,-3.52,-3.65,-2.99,-3.25,-3.25,-3.25
228.96,0.21,3.49,0.22,3.50,-3.50,-3.64,-2.99,-3.29,-3.28,-3.28
231.25,0.17,3.47,0.17,3.47,-3.47,-3.63,-3.00,-3.30,-3.30,-3.30
233.57,0.12,3.44,0.12,3.44,-3.44,-3.61,-3.00,-3.32,-3.32,-3.32
235.90,0.06,3.40,0.07,3.41,-3.41,-3.60,-3.00,-3.35,-3.33,-3.34
238.26,0.02,3.37,0.02,3.37,-3.37,-3.59,-3.00,-3.35,-3.35,-3.35
240.64,-0.02,3.34,-0.03,3.33,-3.33,-3.58,-3.00,-3.35,-3.36,-3.36
243.05,-0.06,3.30,-0.08,3.29,-3.29,-3.57,-3.00,-3.35,-3.37,-3.36
245.48,-0.11,3.26,-0.13,3.24,-3.24,-3.56,-2.99,-3.35,-3.37,-3.37
247.93,-0.18,3.19,-0.18,3.19,-3.19,-3.54,-2.99,-3.37,-3.37,-3.37
250.41,-0.23,3.15,-0.23,3.14,-3.14,-3.53,-2.98,-3.37,-3.37,-3.38
252.92,-0.30,3.07,-0.28,3.09,-3.09,-3.52,-2.97,-3.39,-3.37,-3.37
255.45,-0.34,3.02,-0.33,3.04,-3.04,-3.51,-2.96,-3.38,-3.37,-3.36
258.00,-0.38,2.98,-0.38,2.98,-2.98,-3.50,-2.95,-3.36,-3.36,-3.36
260.58,-0.43,2.93,-0.43,2.93,-2.93,-3.49,-2.94,-3.36,-3.35,-3.36
263.19,-0.48,2.86,-0.47,2.87,-2.87,-3.48,-2.92,-3.35,-3.34,-3.34
265.82,-0.53,2.81,-0.52,2.81,-2.81,-3.47,-2.91,-3.34,-3.33,-3.34
268.48,-0.56,2.76,-0.57,2.76,-2.76,-3.46,-2.89,-3.32,-3.32,-3.32
271.16,-0.60,2.71,-0.61,2.70,-2.70,-3.45,-2.87,-3.30,-3.31,-3.31
273.87,-0.65,2.65,-0.65,2.65,-2.65,-3.44,-2.85,-3.30,-3.30,-3.30
276.61,-0.68,2.60,-0.69,2.60,-2.60,-3.43,-2.83,-3.28,-3.29,-3.28
279.38,-0.72,2.56,-0.73,2.54,-2.54,-3.42,-2.81,-3.26,-3.28,-3.28
282.17,-0.77,2.49,-0.77,2.49,-2.49,-3.41,-2.79,-3.26,-3.26,-3.26
284.99,-0.81,2.44,-0.81,2.44,-2.44,-3.40,-2.77,-3.25,-3.25,-3.25
287.84,-0.85,2.39,-0.84,2.39,-2.39,-3.39,-2.75,-3.24,-3.24,-3.24
290.72,-0.88,2.35,-0.88,2.35,-2.35,-3.38,-2.73,-3.23,-3.22,-3.23
293.63,-0.91,2.30,-0.91,2.31,-2.31,-3.37,-2.71,-3.22,-3.21,-3.21
296.57,-0.93,2.27,-0.93,2.27,-2.27,-3.36,-2.69,-3.20,-3.20,-3.20
299.53,-0.96,2.23,-0.96,2.23,-2.23,-3.35,-2.67,-3.19,-3.19,-3.19
302.53,-0.98,2.21,-0.97,2.20,-2.20,-3.34,-2.65,-3.18,-3.18,-3.19
305.55,-1.00,2.16,-0.99,2.18,-2.18,-3.33,-2.64,-3.18,-3.17,-3.16
308.61,-1.02,2.14,-1.00,2.16,-2.16,-3.32,-2.62,-3.18,-3.16,-3.16
311.69,-1.02,2.13,-1.01,2.14,-2.14,-3.31,-2.61,-3.16,-3.15,-3.15
314.81,-1.02,2.10,-1.01,2.13,-2.13,-3.30,-2.59,-3.15,-3.14,-3.12
317.96,-1.02,2.11,-1.01,2.12,-2.12,-3.29,-2.58,-3.14,-3.13,-3.13
321.14,-1.01,2.11,-1.02,2.11,-2.11,-3.29,-2.57,-3.12,-3.12,-3.12
324.35,-1.00,2.13,-1.02,2.10,-2.10,-3.28,-2.56,-3.10,-3.12,-3.13
327.59,-1.00,2.11,-1.02,2.09,-2.09,-3.27,-2.55,-3.09,-3.11,-3.11
330.87,-1.00,2.11,-1.02,2.09,-2.09,-3.26,-2.55,-3.09,-3.11,-3.11
334.18,-1.00,2.12,-1.02,2.09,-2.09,-3.25,-2.54,-3.09,-3.11,-3.12
337.52,-1.00,2.11,-1.02,2.09,-2.09,-3.24,-2.54,-3.09,-3.11,-3.11
340.90,-1.01,2.09,-1.02,2.09,-2.09,-3.23,-2.54,-3.10,-3.11,-3.10
344.30,-1.02,2.08,-1.02,2.09,-2.09,-3.22,-2.55,-3.11,-3.11,-3.10
347.75,-1.02,2.09,-1.01,2.10,-2.10,-3.22,-2.55,-3.12,-3.11,-3.11
351.23,-1.03,2.08,-1.01,2.10,-2.10,-3.21,-2.56,-3.13,-3.11,-3.11
354.74,-1.02,2.09,-1.00,2.11,-2.11,-3.20,-2.56,-3.13,-3.12,-3.11
358.28,-1.00,2.12,-1.00,2.13,-2.13,-3.19,-2.58,-3.13,-3.12,-3.12
361.87,-0.99,2.14,-0.98,2.14,-2.14,-3.18,-2.59,-3.13,-3.13,-3.13
365.49,-0.96,2.17,-0.97,2.17,-2.17,-3.17,-2.60,-3.13,-3.13,-3.13
369.14,-0.94,2.20,-0.94,2.19,-2.19,-3.17,-2.62,-3.13,-3.14,-3.14
372.83,-0.93,2.21,-0.92,2.23,-2.23,-3.16,-2.64,-3.16,-3.15,-3.14
376.56,-0.89,2.27,-0.89,2.27,-2.27,-3.15,-2.66,-3.16,-3.15,-3.16
380.33,-0.86,2.30,-0.85,2.31,-2.31,-3.14,-2.68,-3.17,-3.16,-3.16
384.13,-0.81,2.36,-0.81,2.36,-2.36,-3.13,-2.70,-3.17,-3.17,-3.17
387.97,-0.77,2.41,-0.77,2.41,-2.41,-3.12,-2.73,-3.18,-3.18,-3.18
391.85,-0.72,2.47,-0.72,2.46,-2.46,-3.12,-2.75,-3.18,-3.18,-3.19
395.77,-0.68,2.50,-0.67,2.52,-2.52,-3.11,-2.78,-3.20,-3.19,-3.18
399.73,-0.62,2.58,-0.62,2.58,-2.58,-3.10,-2.81,-3.20,-3.20,-3.20
403.72,-0.56,2.65,-0.57,2.64,-2.64,-3.09,-2.84,-3.20,-3.20,-3.21
407.76,-0.50,2.72,-0.51,2.70,-2.70,-3.08,-2.87,-3.20,-3.21,-3.22
411.84,-0.44,2.77,-0.45,2.76,-2.76,-3.08,-2.91,-3.20,-3.22,-3.21
415.96,-0.39,2.83,-0.39,2.83,-2.83,-3.07,-2.94,-3.22,-3.22,-3.22
420.12,-0.33,2.89,-0.33,2.90,-2.90,-3.06,-2.97,-3.23,-3.23,-3.22
424.32,-0.27,2.95,-0.26,2.96,-2.96,-3.05,-3.01,-3.23,-3.23,-3.22
428.56,-0.21,3.03,-0.20,3.03,-3.03,-3.04,-3.04,-3.24,-3.23,-3.24
432.85,-0.15,3.09,-0.14,3.10,-3.10,-3.04,-3.08,-3.25,-3.23,-3.24
437.18,-0.07,3.17,-0.07,3.16,-3.16,-3.03,-3.11,-3.23,-3.23,-3.24
441.55,-0.01,3.22,-0.01,3.23,-3.23,-3.02,-3.14,-3.24,-3.23,-3.23
445.96,0.06,3.29,0.06,3.29,-3.29,-3.01,-3.17,-3.23,-3.23,-3.23
450.42,0.13,3.37,0.12,3.35,-3.35,-3.00,-3.20,-3.22,-3.23,-3.24
454.93,0.20,3.43,0.19,3.42,-3.42,-2.99,-3.23,-3.22,-3.23,-3.23
