frequency,raw,error,smoothed,error_smoothed,equalization,parametric_eq,fixed_band_eq,equalized_raw,equalized_smoothed,target
20.00,-2.50,-4.25,-2.53,-4.30,4.30,3.95,1.43,1.80,1.77,1.75
20.20,-2.47,-4.25,-2.49,-4.28,4.28,3.94,1.47,1.81,1.80,1.78
20.40,-2.45,-4.26,-2.45,-4.26,4.26,3.93,1.51,1.81,1.82,1.81
20.61,-2.41,-4.24,-2.40,-4.24,4.24,3.92,1.55,1.83,1.84,1.83
20.81,-2.38,-4.24,-2.36,-4.21,4.21,3.91,1.60,1.83,1.85,1.86
21.02,-2.32,-4.21,-2.32,-4.19,4.19,3.89,1.65,1.87,1.87,1.89
21.23,-2.29,-4.19,-2.27,-4.16,4.16,3.88,1.69,1.87,1.89,1.90
21.44,-2.24,-4.15,-2.23,-4.13,4.13,3.87,1.74,1.89,1.90,1.91
21.66,-2.20,-4.12,-2.18,-4.09,4.09,3.85,1.80,1.89,1.91,1.92
21.87,-2.15,-4.07,-2.14,-4.06,4.06,3.84,1.85,1.91,1.92,1.92
22.09,-2.10,-4.03,-2.09,-4.02,4.02,3.82,1.90,1.92,1.93,1.93
22.31,-2.04,-3.97,-2.05,-3.98,3.98,3.81,1.96,1.94,1.93,1.93
22.54,-2.00,-3.93,-1.99,-3.93,3.93,3.79,2.02,1.93,1.93,1.93
22.76,-1.94,-3.87,-1.94,-3.88,3.88,3.78,2.07,1.94,1.93,1.93
22.99,-1.89,-3.81,-1.89,-3.83,3.83,3.76,2.13,1.94,1.93,1.92
23.22,-1.84,-3.76,-1.84,-3.77,3.77,3.75,2.20,1.93,1.93,1.92
23.45,-1.79,-3.71,-1.80,-3.73,3.73,3.73,2.26,1.94,1.93,1.92
23.69,-1.75,-3.67,-1.75,-3.68,3.68,3.71,2.32,1.92,1.93,1.92
23.92,-1.70,-3.62,-1.70,-3.63,3.63,3.70,2.39,1.93,1.92,1.92
24.16,-1.65,-3.57,-1.66,-3.58,3.58,3.68,2.45,1.93,1.92,1.92
24.40,-1.61,-3.53,-1.61,-3.53,3.53,3.66,2.52,1.92,1.92,1.92
24.65,-1.57,-3.48,-1.57,-3.49,3.49,3.65,2.59,1.92,1.92,1.91
24.89,-1.54,-3.45,-1.54,-3.45,3.45,3.63,2.66,1.91,1.92,1.91
25.14,-1.51,-3.42,-1.50,-3.42,3.42,3.61,2.73,1.91,1.91,1.91
25.39,-1.48,-3.39,-1.47,-3.38,3.38,3.59,2.80,1.90,1.91,1.91
25.65,-1.44,-3.35,-1.44,-3.35,3.35,3.57,2.87,1.91,1.91,1.91
25.91,-1.40,-3.30,-1.41,-3.32,3.32,3.55,2.94,1.92,1.91,1.90
26.16,-1.36,-3.26,-1.39,-3.29,3.29,3.53,3.00,1.93,1.91,1.90
26.43,-1.35,-3.25,-1.36,-3.26,3.26,3.51,3.07,1.91,1.90,1.90
26.69,-1.35,-3.25,-1.34,-3.24,3.24,3.49,3.14,1.89,1.90,1.90
26.96,-1.31,-3.21,-1.32,-3.22,3.22,3.47,3.21,1.91,1.90,1.90
27.23,-1.31,-3.20,-1.30,-3.20,3.20,3.45,3.27,1.89,1.89,1.89
27.50,-1.31,-3.20,-1.29,-3.18,3.18,3.43,3.33,1.87,1.89,1.89
27.77,-1.26,-3.14,-1.27,-3.16,3.16,3.41,3.39,1.90,1.89,1.88
28.05,-1.26,-3.14,-1.26,-3.14,3.14,3.38,3.45,1.88,1.88,1.88
28.33,-1.26,-3.13,-1.25,-3.13,3.13,3.36,3.50,1.87,1.88,1.87
28.62,-1.22,-3.09,-1.24,-3.11,3.11,3.34,3.55,1.89,1.88,1.87
28.90,-1.21,-3.08,-1.23,-3.10,3.10,3.32,3.60,1.89,1.87,1.87
29.19,-1.21,-3.07,-1.21,-3.08,3.08,3.29,3.64,1.87,1.87,1.86
29.48,-1.21,-3.07,-1.20,-3.06,3.06,3.27,3.68,1.85,1.86,1.86
29.78,-1.21,-3.06,-1.19,-3.04,3.04,3.24,3.71,1.83,1.86,1.85
30.08,-1.17,-3.02,-1.17,-3.02,3.02,3.22,3.74,1.85,1.85,1.85
30.38,-1.17,-3.01,-1.16,-3.00,3.00,3.20,3.76,1.83,1.85,1.84
30.68,-1.14,-2.98,-1.14,-2.98,2.98,3.17,3.77,1.84,1.84,1.84
30.99,-1.12,-2.95,-1.12,-2.96,2.96,3.15,3.78,1.84,1.83,1.83
31.30,-1.12,-2.94,-1.10,-2.93,2.93,3.12,3.78,1.81,1.83,1.82
31.61,-1.07,-2.89,-1.08,-2.91,2.91,3.09,3.78,1.84,1.82,1.82
31.93,-1.07,-2.88,-1.06,-2.88,2.88,3.07,3.77,1.81,1.82,1.81
32.24,-1.03,-2.83,-1.04,-2.85,2.85,3.04,3.76,1.82,1.81,1.80
32.57,-1.03,-2.83,-1.02,-2.82,2.82,3.01,3.74,1.79,1.80,1.80
32.89,-0.98,-2.77,-0.99,-2.79,2.79,2.99,3.71,1.81,1.79,1.79
33.22,-0.98,-2.76,-0.97,-2.76,2.76,2.96,3.68,1.78,1.79,1.78
33.55,-0.93,-2.71,-0.95,-2.72,2.72,2.93,3.64,1.79,1.78,1.78
33.89,-0.93,-2.70,-0.92,-2.69,2.69,2.90,3.60,1.76,1.77,1.77
34.23,-0.89,-2.65,-0.90,-2.66,2.66,2.87,3.56,1.77,1.76,1.76
34.57,-0.89,-2.64,-0.87,-2.63,2.63,2.85,3.51,1.74,1.75,1.75
34.92,-0.84,-2.58,-0.85,-2.59,2.59,2.82,3.45,1.75,1.74,1.74
35.27,-0.84,-2.57,-0.82,-2.56,2.56,2.79,3.40,1.72,1.73,1.73
35.62,-0.79,-2.51,-0.80,-2.53,2.53,2.76,3.34,1.74,1.73,1.72
35.97,-0.79,-2.50,-0.78,-2.49,2.49,2.73,3.28,1.70,1.72,1.71
36.33,-0.75,-2.45,-0.76,-2.46,2.46,2.70,3.22,1.71,1.71,1.70
36.70,-0.74,-2.43,-0.74,-2.43,2.43,2.67,3.15,1.69,1.69,1.69
37.06,-0.70,-2.38,-0.72,-2.40,2.40,2.63,3.09,1.70,1.68,1.68
37.43,-0.70,-2.37,-0.70,-2.37,2.37,2.60,3.02,1.67,1.67,1.67
37.81,-0.67,-2.33,-0.68,-2.34,2.34,2.57,2.96,1.67,1.66,1.66
38.19,-0.65,-2.30,-0.67,-2.32,2.32,2.54,2.89,1.67,1.65,1.65
38.57,-0.65,-2.29,-0.65,-2.29,2.29,2.51,2.82,1.64,1.64,1.64
38.95,-0.65,-2.28,-0.64,-2.27,2.27,2.48,2.76,1.62,1.63,1.63
39.34,-0.63,-2.24,-0.63,-2.25,2.25,2.44,2.69,1.62,1.62,1.61
39.74,-0.61,-2.21,-0.62,-2.23,2.23,2.41,2.63,1.62,1.61,1.60
40.14,-0.61,-2.20,-0.61,-2.20,2.20,2.38,2.57,1.59,1.60,1.59
40.54,-0.61,-2.19,-0.60,-2.19,2.19,2.34,2.50,1.58,1.59,1.58
40.94,-0.59,-2.16,-0.59,-2.16,2.16,2.31,2.44,1.57,1.58,1.57
41.35,-0.56,-2.12,-0.57,-2.14,2.14,2.28,2.38,1.58,1.57,1.56
41.76,-0.56,-2.11,-0.56,-2.11,2.11,2.24,2.32,1.55,1.55,1.55
42.18,-0.56,-2.10,-0.55,-2.09,2.09,2.21,2.27,1.53,1.54,1.54
42.60,-0.56,-2.09,-0.53,-2.06,2.06,2.17,2.21,1.50,1.53,1.53
43.03,-0.51,-2.03,-0.52,-2.03,2.03,2.14,2.16,1.52,1.51,1.52
43.46,-0.51,-2.01,-0.50,-2.00,2.00,2.10,2.10,1.49,1.50,1.50
43.90,-0.47,-1.95,-0.49,-1.97,1.97,2.07,2.05,1.50,1.48,1.48
44.33,-0.47,-1.93,-0.47,-1.94,1.94,2.03,2.00,1.47,1.47,1.46
44.78,-0.47,-1.91,-0.45,-1.91,1.91,2.00,1.96,1.44,1.45,1.44
45.23,-0.42,-1.84,-0.44,-1.87,1.87,1.96,1.91,1.45,1.44,1.42
45.68,-0.42,-1.83,-0.43,-1.85,1.85,1.92,1.87,1.43,1.42,1.41
46.13,-0.42,-1.81,-0.41,-1.81,1.81,1.89,1.82,1.39,1.40,1.39
46.60,-0.42,-1.80,-0.40,-1.78,1.78,1.85,1.78,1.36,1.38,1.38
47.06,-0.38,-1.74,-0.39,-1.75,1.75,1.81,1.74,1.37,1.36,1.36
47.53,-0.37,-1.71,-0.39,-1.72,1.72,1.78,1.71,1.35,1.34,1.34
48.01,-0.37,-1.70,-0.39,-1.70,1.70,1.74,1.67,1.33,1.32,1.33
48.49,-0.37,-1.67,-0.38,-1.68,1.68,1.70,1.63,1.31,1.29,1.30
48.97,-0.37,-1.64,-0.38,-1.65,1.65,1.67,1.60,1.28,1.27,1.27
49.46,-0.40,-1.64,-0.38,-1.63,1.63,1.63,1.57,1.23,1.25,1.24
49.96,-0.40,-1.61,-0.38,-1.61,1.61,1.59,1.54,1.21,1.23,1.21
50.46,-0.38,-1.57,-0.38,-1.58,1.58,1.55,1.51,1.20,1.20,1.19
50.96,-0.37,-1.54,-0.38,-1.56,1.56,1.51,1.48,1.19,1.18,1.17
51.47,-0.39,-1.53,-0.38,-1.53,1.53,1.48,1.45,1.14,1.15,1.14
51.99,-0.40,-1.52,-0.38,-1.51,1.51,1.44,1.42,1.11,1.13,1.12
52.51,-0.40,-1.50,-0.38,-1.49,1.49,1.40,1.39,1.09,1.10,1.10
53.03,-0.40,-1.48,-0.39,-1.46,1.46,1.36,1.37,1.06,1.08,1.08
53.56,-0.37,-1.42,-0.39,-1.44,1.44,1.32,1.34,1.07,1.05,1.05
54.10,-0.37,-1.40,-0.38,-1.41,1.41,1.28,1.32,1.04,1.03,1.03
54.64,-0.37,-1.37,-0.38,-1.39,1.39,1.24,1.29,1.02,1.01,1.00
55.18,-0.37,-1.35,-0.38,-1.36,1.36,1.21,1.27,0.99,0.98,0.98
55.74,-0.37,-1.32,-0.38,-1.34,1.34,1.17,1.25,0.97,0.96,0.95
56.29,-0.37,-1.30,-0.37,-1.31,1.31,1.13,1.22,0.94,0.94,0.93
56.86,-0.37,-1.28,-0.37,-1.28,1.28,1.09,1.20,0.91,0.92,0.91
57.42,-0.37,-1.25,-0.36,-1.25,1.25,1.05,1.17,0.88,0.89,0.88
58.00,-0.37,-1.23,-0.35,-1.22,1.22,1.01,1.15,0.85,0.87,0.86
58.58,-0.37,-1.21,-0.35,-1.19,1.19,0.97,1.12,0.82,0.84,0.84
59.16,-0.33,-1.15,-0.34,-1.16,1.16,0.93,1.10,0.83,0.82,0.82
59.76,-0.33,-1.13,-0.34,-1.13,1.13,0.89,1.07,0.80,0.79,0.80
60.35,-0.33,-1.10,-0.33,-1.09,1.09,0.85,1.05,0.76,0.76,0.77
60.96,-0.33,-1.07,-0.32,-1.06,1.06,0.82,1.02,0.73,0.74,0.74
61.57,-0.30,-1.00,-0.31,-1.02,1.02,0.78,0.99,0.72,0.71,0.70
62.18,-0.28,-0.95,-0.30,-0.98,0.98,0.74,0.96,0.70,0.68,0.67
62.80,-0.28,-0.92,-0.29,-0.94,0.94,0.70,0.93,0.66,0.65,0.64
63.43,-0.28,-0.89,-0.28,-0.90,0.90,0.66,0.90,0.62,0.62,0.61
64.07,-0.28,-0.86,-0.27,-0.86,0.86,0.62,0.87,0.58,0.59,0.58
64.71,-0.28,-0.84,-0.26,-0.82,0.82,0.58,0.84,0.54,0.56,0.56
65.35,-0.27,-0.80,-0.25,-0.79,0.79,0.54,0.81,0.52,0.53,0.53
66.01,-0.23,-0.73,-0.25,-0.75,0.75,0.50,0.77,0.52,0.50,0.50
66.67,-0.23,-0.70,-0.24,-0.71,0.71,0.46,0.74,0.48,0.47,0.47
67.33,-0.23,-0.67,-0.23,-0.68,0.68,0.43,0.70,0.45,0.44,0.44
68.01,-0.23,-0.64,-0.23,-0.64,0.64,0.39,0.66,0.41,0.41,0.41
68.69,-0.23,-0.61,-0.22,-0.60,0.60,0.35,0.63,0.37,0.38,0.38
69.37,-0.21,-0.56,-0.21,-0.57,0.57,0.31,0.59,0.36,0.35,0.35
70.07,-0.19,-0.51,-0.20,-0.52,0.52,0.27,0.55,0.33,0.32,0.32
70.77,-0.19,-0.48,-0.19,-0.48,0.48,0.23,0.51,0.29,0.29,0.29
71.48,-0.19,-0.45,-0.19,-0.44,0.44,0.20,0.47,0.25,0.26,0.26
72.19,-0.19,-0.41,-0.18,-0.40,0.40,0.16,0.43,0.21,0.22,0.22
72.91,-0.19,-0.38,-0.17,-0.36,0.36,0.12,0.39,0.17,0.19,0.19
73.64,-0.19,-0.34,-0.17,-0.33,0.33,0.08,0.35,0.14,0.16,0.15
74.38,-0.14,-0.26,-0.16,-0.29,0.29,0.04,0.30,0.15,0.12,0.12
75.12,-0.14,-0.22,-0.15,-0.25,0.25,0.01,0.26,0.11,0.09,0.08
75.87,-0.14,-0.19,-0.15,-0.21,0.21,-0.03,0.22,0.07,0.06,0.05
76.63,-0.14,-0.16,-0.15,-0.17,0.17,-0.07,0.17,0.03,0.02,0.02
77.40,-0.14,-0.13,-0.14,-0.13,0.13,-0.10,0.13,-0.01,-0.01,-0.01
78.17,-0.14,-0.09,-0.14,-0.10,0.10,-0.14,0.09,-0.04,-0.04,-0.05
78.95,-0.14,-0.06,-0.14,-0.06,0.06,-0.18,0.04,-0.08,-0.08,-0.08
79.74,-0.14,-0.03,-0.14,-0.03,0.03,-0.21,-0.00,-0.11,-0.11,-0.11
80.54,-0.14,0.01,-0.14,0.01,-0.01,-0.25,-0.05,-0.15,-0.14,-0.15
81.35,-0.14,0.04,-0.14,0.04,-0.04,-0.29,-0.10,-0.18,-0.18,-0.18
82.16,-0.14,0.08,-0.14,0.08,-0.08,-0.32,-0.14,-0.22,-0.21,-0.22
82.98,-0.14,0.11,-0.14,0.11,-0.11,-0.36,-0.19,-0.25,-0.25,-0.25
83.81,-0.14,0.15,-0.14,0.14,-0.14,-0.39,-0.23,-0.28,-0.28,-0.29
84.65,-0.14,0.19,-0.14,0.18,-0.18,-0.43,-0.28,-0.32,-0.32,-0.33
85.50,-0.14,0.22,-0.14,0.22,-0.22,-0.46,-0.33,-0.36,-0.36,-0.36
86.35,-0.14,0.26,-0.14,0.26,-0.26,-0.50,-0.38,-0.40,-0.40,-0.40
87.22,-0.14,0.30,-0.14,0.30,-0.30,-0.53,-0.42,-0.44,-0.44,-0.44
88.09,-0.14,0.34,-0.14,0.34,-0.34,-0.57,-0.47,-0.48,-0.48,-0.48
88.97,-0.14,0.38,-0.14,0.38,-0.38,-0.60,-0.52,-0.52,-0.52,-0.52
89.86,-0.14,0.42,-0.14,0.42,-0.42,-0.63,-0.57,-0.56,-0.56,-0.56
90.76,-0.14,0.47,-0.14,0.47,-0.47,-0.67,-0.62,-0.61,-0.60,-0.61
91.66,-0.14,0.51,-0.14,0.51,-0.51,-0.70,-0.67,-0.65,-0.65,-0.65
92.58,-0.14,0.56,-0.14,0.55,-0.55,-0.73,-0.72,-0.69,-0.69,-0.70
93.51,-0.14,0.60,-0.14,0.60,-0.60,-0.77,-0.77,-0.74,-0.74,-0.74
94.44,-0.14,0.64,-0.14,0.64,-0.64,-0.80,-0.82,-0.78,-0.78,-0.78
95.39,-0.14,0.69,-0.15,0.68,-0.68,-0.83,-0.88,-0.82,-0.83,-0.83
96.34,-0.14,0.74,-0.15,0.73,-0.73,-0.86,-0.93,-0.87,-0.88,-0.88
97.30,-0.14,0.79,-0.16,0.77,-0.77,-0.89,-0.98,-0.91,-0.92,-0.93
98.28,-0.16,0.82,-0.16,0.81,-0.81,-0.93,-1.03,-0.97,-0.97,-0.98
99.26,-0.16,0.86,-0.17,0.85,-0.85,-0.96,-1.08,-1.01,-1.02,-1.02
100.25,-0.19,0.88,-0.18,0.89,-0.89,-0.99,-1.14,-1.08,-1.07,-1.07
101.25,-0.19,0.93,-0.19,0.93,-0.93,-1.02,-1.19,-1.12,-1.11,-1.12
102.27,-0.19,0.98,-0.19,0.97,-0.97,-1.05,-1.24,-1.16,-1.16,-1.17
103.29,-0.21,1.01,-0.20,1.01,-1.01,-1.08,-1.29,-1.22,-1.21,-1.22
104.32,-0.23,1.03,-0.21,1.05,-1.05,-1.11,-1.35,-1.28,-1.26,-1.26
105.37,-0.23,1.08,-0.21,1.09,-1.09,-1.14,-1.40,-1.32,-1.31,-1.31
106.42,-0.23,1.13,-0.22,1.14,-1.14,-1.17,-1.45,-1.37,-1.36,-1.36
107.48,-0.23,1.18,-0.22,1.18,-1.18,-1.19,-1.50,-1.41,-1.41,-1.41
108.56,-0.21,1.25,-0.23,1.23,-1.23,-1.22,-1.55,-1.44,-1.46,-1.46
109.64,-0.23,1.28,-0.23,1.27,-1.27,-1.25,-1.60,-1.50,-1.51,-1.51
110.74,-0.23,1.33,-0.24,1.32,-1.32,-1.28,-1.65,-1.55,-1.56,-1.56
111.85,-0.23,1.38,-0.25,1.37,-1.37,-1.31,-1.69,-1.60,-1.61,-1.61
112.97,-0.23,1.44,-0.26,1.41,-1.41,-1.33,-1.74,-1.64,-1.67,-1.67
114.10,-0.28,1.44,-0.26,1.46,-1.46,-1.36,-1.78,-1.74,-1.72,-1.72
115.24,-0.28,1.50,-0.27,1.50,-1.50,-1.39,-1.82,-1.78,-1.77,-1.78
116.39,-0.28,1.55,-0.28,1.55,-1.55,-1.41,-1.86,-1.83,-1.82,-1.83
117.55,-0.28,1.61,-0.29,1.59,-1.59,-1.44,-1.90,-1.87,-1.88,-1.89
118.73,-0.28,1.66,-0.29,1.64,-1.64,-1.46,-1.94,-1.92,-1.93,-1.94
119.92,-0.33,1.66,-0.30,1.68,-1.68,-1.49,-1.97,-2.01,-1.98,-1.99
121.12,-0.33,1.71,-0.31,1.72,-1.72,-1.51,-2.00,-2.05,-2.04,-2.04
122.33,-0.33,1.76,-0.32,1.76,-1.76,-1.54,-2.03,-2.09,-2.09,-2.09
123.55,-0.33,1.81,-0.33,1.81,-1.81,-1.56,-2.05,-2.14,-2.14,-2.14
124.79,-0.33,1.86,-0.34,1.85,-1.85,-1.59,-2.08,-2.18,-2.19,-2.19
126.03,-0.33,1.91,-0.35,1.89,-1.89,-1.61,-2.10,-2.22,-2.24,-2.24
127.29,-0.37,1.92,-0.36,1.94,-1.94,-1.63,-2.12,-2.31,-2.29,-2.29
128.57,-0.37,1.98,-0.37,1.98,-1.98,-1.66,-2.13,-2.35,-2.34,-2.35
129.85,-0.37,2.03,-0.38,2.01,-2.01,-1.68,-2.15,-2.38,-2.39,-2.40
131.15,-0.37,2.08,-0.39,2.05,-2.05,-1.70,-2.16,-2.42,-2.44,-2.45
132.46,-0.41,2.09,-0.40,2.09,-2.09,-1.72,-2.17,-2.50,-2.49,-2.50
133.79,-0.42,2.12,-0.41,2.13,-2.13,-1.75,-2.17,-2.55,-2.54,-2.54
135.12,-0.42,2.17,-0.42,2.17,-2.17,-1.77,-2.18,-2.59,-2.58,-2.59
136.48,-0.42,2.21,-0.43,2.20,-2.20,-1.79,-2.18,-2.62,-2.63,-2.63
137.84,-0.42,2.26,-0.44,2.24,-2.24,-1.81,-2.18,-2.66,-2.67,-2.68
139.22,-0.47,2.26,-0.45,2.27,-2.27,-1.83,-2.19,-2.74,-2.72,-2.73
140.61,-0.47,2.30,-0.46,2.30,-2.30,-1.85,-2.19,-2.77,-2.76,-2.77
142.02,-0.47,2.33,-0.47,2.33,-2.33,-1.87,-2.19,-2.80,-2.80,-2.80
143.44,-0.47,2.37,-0.48,2.36,-2.36,-1.89,-2.18,-2.83,-2.84,-2.84
144.87,-0.47,2.41,-0.49,2.39,-2.39,-1.91,-2.18,-2.86,-2.88,-2.88
146.32,-0.51,2.41,-0.50,2.41,-2.41,-1.93,-2.18,-2.92,-2.91,-2.92
147.78,-0.51,2.44,-0.51,2.44,-2.44,-1.95,-2.18,-2.95,-2.95,-2.95
149.26,-0.51,2.48,-0.52,2.47,-2.47,-1.97,-2.18,-2.98,-2.99,-2.99
150.75,-0.53,2.50,-0.54,2.50,-2.50,-1.98,-2.18,-3.03,-3.03,-3.03
152.26,-0.56,2.51,-0.55,2.52,-2.52,-2.00,-2.17,-3.08,-3.07,-3.07
153.78,-0.56,2.55,-0.56,2.55,-2.55,-2.02,-2.17,-3.11,-3.11,-3.11
155.32,-0.56,2.59,-0.57,2.58,-2.58,-2.04,-2.17,-3.14,-3.15,-3.15
156.88,-0.59,2.60,-0.58,2.61,-2.61,-2.05,-2.18,-3.20,-3.19,-3.19
158.44,-0.61,2.62,-0.59,2.63,-2.63,-2.07,-2.18,-3.24,-3.22,-3.23
160.03,-0.61,2.66,-0.60,2.66,-2.66,-2.09,-2.18,-3.27,-3.26,-3.27
161.63,-0.61,2.70,-0.61,2.69,-2.69,-2.10,-2.19,-3.30,-3.30,-3.31
163.24,-0.61,2.74,-0.62,2.72,-2.72,-2.12,-2.20,-3.33,-3.34,-3.35
164.88,-0.64,2.74,-0.63,2.75,-2.75,-2.13,-2.20,-3.39,-3.38,-3.38
166.53,-0.65,2.77,-0.65,2.77,-2.77,-2.15,-2.21,-3.42,-3.42,-3.42
168.19,-0.65,2.81,-0.66,2.80,-2.80,-2.16,-2.22,-3.45,-3.46,-3.46
169.87,-0.65,2.85,-0.67,2.83,-2.83,-2.18,-2.24,-3.48,-3.50,-3.50
171.57,-0.66,2.88,-0.68,2.86,-2.86,-2.19,-2.25,-3.52,-3.53,-3.54
173.29,-0.70,2.87,-0.68,2.89,-2.89,-2.21,-2.27,-3.59,-3.57,-3.57
175.02,-0.70,2.91,-0.69,2.92,-2.92,-2.22,-2.29,-3.62,-3.61,-3.61
176.77,-0.70,2.95,-0.70,2.95,-2.95,-2.23,-2.31,-3.65,-3.65,-3.65
178.54,-0.72,2.97,-0.71,2.97,-2.97,-2.25,-2.33,-3.69,-3.68,-3.69
180.32,-0.72,3.01,-0.72,3.00,-3.00,-2.26,-2.35,-3.72,-3.72,-3.73
182.13,-0.75,3.01,-0.73,3.02,-3.02,-2.27,-2.38,-3.77,-3.76,-3.76
183.95,-0.75,3.05,-0.74,3.05,-3.05,-2.29,-2.41,-3.80,-3.79,-3.80
185.79,-0.75,3.08,-0.75,3.08,-3.08,-2.30,-2.44,-3.83,-3.83,-3.83
187.65,-0.75,3.12,-0.76,3.10,-3.10,-2.31,-2.47,-3.85,-3.86,-3.87
189.52,-0.75,3.15,-0.77,3.12,-3.12,-2.32,-2.50,-3.87,-3.90,-3.90
191.42,-0.79,3.14,-0.78,3.14,-3.14,-2.33,-2.53,-3.93,-3.93,-3.93
193.33,-0.79,3.17,-0.79,3.17,-3.17,-2.35,-2.57,-3.96,-3.96,-3.96
195.27,-0.79,3.20,-0.80,3.18,-3.18,-2.36,-2.61,-3.97,-3.99,-3.99
197.22,-0.83,3.19,-0.81,3.20,-3.20,-2.37,-2.65,-4.03,-4.01,-4.02
199.19,-0.84,3.21,-0.82,3.22,-3.22,-2.38,-2.68,-4.06,-4.04,-4.05
201.18,-0.84,3.23,-0.84,3.23,-3.23,-2.39,-2.72,-4.07,-4.06,-4.07
203.19,-0.84,3.25,-0.85,3.24,-3.24,-2.40,-2.77,-4.08,-4.08,-4.09
205.23,-0.85,3.26,-0.86,3.24,-3.24,-2.41,-2.81,-4.09,-4.10,-4.11
207.28,-0.89,3.23,-0.88,3.25,-3.25,-2.42,-2.85,-4.14,-4.12,-4.12
209.35,-0.89,3.25,-0.89,3.25,-3.25,-2.43,-2.89,-4.14,-4.14,-4.14
211.44,-0.89,3.27,-0.90,3.25,-3.25,-2.44,-2.93,-4.14,-4.15,-4.16
213.56,-0.90,3.27,-0.91,3.25,-3.25,-2.45,-2.98,-4.15,-4.16,-4.17
215.69,-0.93,3.24,-0.93,3.24,-3.24,-2.45,-3.02,-4.17,-4.17,-4.17
217.85,-0.93,3.25,-0.94,3.24,-3.24,-2.46,-3.06,-4.17,-4.18,-4.18
220.03,-0.98,3.21,-0.95,3.23,-3.23,-2.47,-3.10,-4.21,-4.19,-4.19
222.23,-0.98,3.22,-0.96,3.23,-3.23,-2.48,-3.14,-4.21,-4.19,-4.20
224.45,-0.98,3.22,-0.98,3.22,-3.22,-2.49,-3.17,-4.20,-4.19,-4.20
226.70,-0.98,3.22,-0.99,3.21,-3.21,-2.49,-3.21,-4.19,-4.19,-4.20
228.96,-0.98,3.22,-1.00,3.19,-3.19,-2.50,-3.24,-4.17,-4.19,-4.20
231.25,-1.03,3.16,-1.01,3.18,-3.18,-2.51,-3.27,-4.21,-4.19,-4.19
233.57,-1.03,3.16,-1.03,3.16,-3.16,-2.51,-3.29,-4.19,-4.19,-4.19
235.90,-1.03,3.16,-1.04,3.14,-3.14,-2.52,-3.32,-4.17,-4.18,-4.19
238.26,-1.03,3.15,-1.05,3.13,-3.13,-2.53,-3.33,-4.16,-4.18,-4.18
240.64,-1.05,3.12,-1.06,3.11,-3.11,-2.53,-3.35,-4.16,-4.17,-4.17
243.05,-1.07,3.09,-1.07,3.09,-3.09,-2.54,-3.36,-4.16,-4.16,-4.16
245.48,-1.07,3.08,-1.07,3.07,-3.07,-2.55,-3.37,-4.14,-4.15,-4.15
247.93,-1.09,3.05,-1.08,3.05,-3.05,-2.55,-3.37,-4.14,-4.13,-4.14
250.41,-1.12,3.01,-1.10,3.02,-3.02,-2.56,-3.37,-4.14,-4.12,-4.13
252.92,-1.12,2.99,-1.11,3.00,-3.00,-2.56,-3.36,-4.12,-4.11,-4.11
255.45,-1.12,2.97,-1.12,2.97,-2.97,-2.57,-3.35,-4.09,-4.09,-4.09
258.00,-1.12,2.96,-1.13,2.95,-2.95,-2.57,-3.34,-4.07,-4.07,-4.08
260.58,-1.12,2.94,-1.14,2.92,-2.92,-2.58,-3.32,-4.04,-4.05,-4.06
263.19,-1.12,2.92,-1.15,2.89,-2.89,-2.58,-3.30,-4.01,-4.04,-4.04
265.82,-1.16,2.86,-1.16,2.86,-2.86,-2.58,-3.27,-4.02,-4.02,-4.02
268.48,-1.17,2.83,-1.16,2.83,-2.83,-2.59,-3.24,-4.00,-4.00,-4.00
271.16,-1.17,2.81,-1.17,2.81,-2.81,-2.59,-3.21,-3.98,-3.98,-3.98
273.87,-1.19,2.77,-1.18,2.78,-2.78,-2.60,-3.18,-3.97,-3.96,-3.96
276.61,-1.21,2.73,-1.19,2.75,-2.75,-2.60,-3.14,-3.96,-3.94,-3.94
279.38,-1.21,2.71,-1.20,2.72,-2.72,-2.60,-3.10,-3.93,-3.92,-3.92
282.17,-1.21,2.69,-1.21,2.69,-2.69,-2.61,-3.05,-3.90,-3.90,-3.90
284.99,-1.21,2.67,-1.22,2.66,-2.66,-2.61,-3.01,-3.87,-3.88,-3.88
287.84,-1.21,2.65,-1.23,2.63,-2.63,-2.61,-2.96,-3.84,-3.86,-3.86
290.72,-1.21,2.63,-1.24,2.60,-2.60,-2.61,-2.91,-3.81,-3.84,-3.84
293.63,-1.26,2.56,-1.24,2.57,-2.57,-2.62,-2.87,-3.83,-3.81,-3.82
296.57,-1.26,2.54,-1.25,2.54,-2.54,-2.62,-2.82,-3.80,-3.79,-3.80
299.53,-1.26,2.52,-1.26,2.51,-2.51,-2.62,-2.77,-3.77,-3.77,-3.78
302.53,-1.26,2.50,-1.27,2.48,-2.48,-2.62,-2.72,-3.74,-3.75,-3.76
305.55,-1.26,2.47,-1.28,2.45,-2.45,-2.62,-2.67,-3.71,-3.72,-3.73
308.61,-1.30,2.41,-1.29,2.41,-2.41,-2.62,-2.62,-3.71,-3.70,-3.71
311.69,-1.31,2.37,-1.29,2.38,-2.38,-2.62,-2.57,-3.69,-3.68,-3.68
314.81,-1.31,2.34,-1.30,2.35,-2.35,-2.63,-2.52,-3.66,-3.66,-3.65
317.96,-1.31,2.32,-1.31,2.32,-2.32,-2.63,-2.47,-3.63,-3.63,-3.63
321.14,-1.31,2.30,-1.32,2.29,-2.29,-2.63,-2.43,-3.60,-3.61,-3.61
324.35,-1.32,2.27,-1.33,2.26,-2.26,-2.63,-2.38,-3.58,-3.59,-3.59
327.59,-1.35,2.22,-1.33,2.23,-2.23,-2.63,-2.34,-3.58,-3.57,-3.57
330.87,-1.35,2.20,-1.34,2.20,-2.20,-2.63,-2.29,-3.55,-3.54,-3.55
334.18,-1.35,2.18,-1.35,2.17,-2.17,-2.63,-2.25,-3.52,-3.52,-3.53
337.52,-1.35,2.16,-1.36,2.14,-2.14,-2.63,-2.21,-3.49,-3.50,-3.51
340.90,-1.35,2.14,-1.37,2.11,-2.11,-2.63,-2.17,-3.46,-3.48,-3.49
344.30,-1.35,2.12,-1.37,2.09,-2.09,-2.63,-2.14,-3.44,-3.47,-3.47
347.75,-1.40,2.05,-1.38,2.07,-2.07,-2.62,-2.10,-3.47,-3.45,-3.45
351.23,-1.40,2.03,-1.39,2.04,-2.04,-2.62,-2.07,-3.44,-3.43,-3.43
354.74,-1.41,2.00,-1.39,2.02,-2.02,-2.62,-2.03,-3.43,-3.41,-3.41
358.28,-1.42,1.98,-1.40,1.99,-1.99,-2.62,-2.00,-3.41,-3.39,-3.40
361.87,-1.42,1.96,-1.40,1.97,-1.97,-2.62,-1.97,-3.39,-3.38,-3.38
365.49,-1.40,1.96,-1.41,1.95,-1.95,-2.62,-1.95,-3.35,-3.36,-3.36
369.14,-1.40,1.95,-1.42,1.93,-1.93,-2.62,-1.92,-3.33,-3.34,-3.35
372.83,-1.40,1.93,-1.42,1.90,-1.90,-2.61,-1.89,-3.30,-3.33,-3.33
376.56,-1.40,1.92,-1.43,1.88,-1.88,-2.61,-1.87,-3.28,-3.31,-3.32
380.33,-1.42,1.88,-1.44,1.86,-1.86,-2.61,-1.85,-3.28,-3.30,-3.30
384.13,-1.45,1.84,-1.44,1.85,-1.85,-2.61,-1.83,-3.30,-3.29,-3.29
387.97,-1.45,1.83,-1.44,1.84,-1.84,-2.60,-1.81,-3.29,-3.27,-3.28
391.85,-1.45,1.82,-1.44,1.82,-1.82,-2.60,-1.79,-3.27,-3.26,-3.27
395.77,-1.45,1.80,-1.44,1.81,-1.81,-2.60,-1.78,-3.26,-3.25,-3.25
399.73,-1.45,1.79,-1.44,1.80,-1.80,-2.59,-1.76,-3.25,-3.24,-3.24
403.72,-1.45,1.78,-1.44,1.79,-1.79,-2.59,-1.75,-3.24,-3.23,-3.23
407.76,-1.45,1.77,-1.44,1.78,-1.78,-2.59,-1.74,-3.23,-3.22,-3.22
411.84,-1.45,1.76,-1.44,1.77,-1.77,-2.58,-1.72,-3.22,-3.21,-3.21
415.96,-1.42,1.78,-1.43,1.76,-1.76,-2.58,-1.71,-3.18,-3.20,-3.20
420.12,-1.40,1.79,-1.43,1.76,-1.76,-2.57,-1.70,-3.16,-3.19,-3.19
424.32,-1.40,1.78,-1.42,1.76,-1.76,-2.57,-1.70,-3.16,-3.17,-3.18
428.56,-1.40,1.77,-1.41,1.75,-1.75,-2.57,-1.69,-3.15,-3.16,-3.17
432.85,-1.40,1.76,-1.40,1.75,-1.75,-2.56,-1.68,-3.15,-3.15,-3.16
437.18,-1.40,1.75,-1.40,1.74,-1.74,-2.56,-1.68,-3.14,-3.14,-3.15
441.55,-1.40,1.73,-1.39,1.74,-1.74,-2.55,-1.67,-3.14,-3.13,-3.13
445.96,-1.40,1.72,-1.39,1.73,-1.73,-2.55,-1.66,-3.13,-3.12,-3.12
450.42,-1.40,1.71,-1.38,1.72,-1.72,-2.54,-1.66,-3.12,-3.10,-3.11
454.93,-1.40,1.69,-1.38,1.71,-1.71,-2.54,-1.66,-3.11,-3.09,-3.09
459.48,-1.35,1.73,-1.37,1.70,-1.70,-2.53,-1.65,-3.05,-3.08,-3.08
