frequency,raw,error,smoothed,error_smoothed,equalization,parametric_eq,fixed_band_eq,equalized_raw,equalized_smoothed,target
20.00,-11.36,-17.76,-11.35,-17.78,17.78,17.35,7.02,6.42,6.43,6.40
20.20,-11.24,-17.68,-11.24,-17.70,17.70,17.40,7.18,6.46,6.46,6.44
20.40,-11.11,-17.60,-11.12,-17.61,17.61,17.43,7.34,6.49,6.49,6.48
20.61,-11.01,-17.52,-11.00,-17.52,17.52,17.46,7.51,6.51,6.52,6.51
20.81,-10.88,-17.44,-10.88,-17.43,17.43,17.47,7.68,6.54,6.54,6.55
21.02,-10.77,-17.36,-10.77,-17.34,17.34,17.47,7.86,6.57,6.57,6.59
21.23,-10.65,-17.26,-10.65,-17.24,17.24,17.47,8.04,6.60,6.59,6.61
21.44,-10.52,-17.16,-10.53,-17.15,17.15,17.45,8.22,6.62,6.62,6.63
21.66,-10.42,-17.07,-10.41,-17.05,17.05,17.42,8.42,6.63,6.64,6.65
21.87,-10.29,-16.96,-10.29,-16.95,16.95,17.38,8.61,6.66,6.66,6.66
22.09,-10.17,-16.86,-10.17,-16.85,16.85,17.34,8.81,6.67,6.68,6.68
22.31,-10.05,-16.75,-10.05,-16.75,16.75,17.28,9.02,6.69,6.69,6.69
22.54,-9.94,-16.64,-9.93,-16.64,16.64,17.22,9.23,6.70,6.71,6.70
22.76,-9.81,-16.53,-9.81,-16.53,16.53,17.14,9.45,6.71,6.72,6.71
22.99,-9.70,-16.41,-9.69,-16.42,16.42,17.06,9.67,6.72,6.72,6.71
23.22,-9.57,-16.29,-9.57,-16.30,16.30,16.97,9.90,6.74,6.73,6.72
23.45,-9.44,-16.18,-9.45,-16.19,16.19,16.88,10.14,6.75,6.74,6.73
23.69,-9.33,-16.07,-9.33,-16.08,16.08,16.78,10.38,6.75,6.75,6.74
23.92,-9.20,-15.96,-9.21,-15.97,15.97,16.67,10.63,6.76,6.76,6.75
24.16,-9.08,-15.86,-9.08,-15.85,15.85,16.56,10.89,6.77,6.77,6.77
24.40,-8.96,-15.76,-8.96,-15.74,15.74,16.44,11.16,6.78,6.78,6.79
24.65,-8.85,-15.63,-8.84,-15.63,15.63,16.32,11.43,6.79,6.79,6.78
24.89,-8.72,-15.52,-8.72,-15.52,15.52,16.20,11.71,6.80,6.80,6.79
25.14,-8.60,-15.41,-8.60,-15.41,15.41,16.07,11.99,6.81,6.81,6.80
25.39,-8.48,-15.30,-8.48,-15.30,15.30,15.94,12.29,6.82,6.82,6.81
25.65,-8.37,-15.20,-8.37,-15.19,15.19,15.81,12.59,6.83,6.83,6.83
25.91,-8.25,-15.08,-8.25,-15.09,15.09,15.68,12.90,6.84,6.84,6.83
26.16,-8.12,-14.97,-8.13,-14.98,14.98,15.55,13.21,6.85,6.85,6.84
26.43,-8.02,-14.87,-8.01,-14.87,14.87,15.41,13.54,6.85,6.86,6.85
26.69,-7.90,-14.76,-7.89,-14.76,14.76,15.28,13.86,6.86,6.87,6.86
26.96,-7.78,-14.66,-7.77,-14.65,14.65,15.14,14.20,6.87,6.87,6.88
27.23,-7.66,-14.55,-7.66,-14.54,14.54,15.00,14.54,6.88,6.88,6.89
27.50,-7.54,-14.43,-7.54,-14.43,14.43,14.87,14.88,6.90,6.89,6.89
27.77,-7.42,-14.32,-7.42,-14.33,14.33,14.73,15.22,6.90,6.90,6.89
28.05,-7.30,-14.22,-7.31,-14.22,14.22,14.60,15.56,6.91,6.91,6.91
28.33,-7.19,-14.11,-7.19,-14.11,14.11,14.46,15.90,6.92,6.92,6.91
28.62,-7.08,-14.00,-7.08,-14.00,14.00,14.33,16.23,6.93,6.93,6.92
28.90,-6.96,-13.90,-6.96,-13.90,13.90,14.19,16.55,6.93,6.94,6.93
29.19,-6.86,-13.79,-6.85,-13.79,13.79,14.06,16.85,6.94,6.94,6.93
29.48,-6.74,-13.71,-6.74,-13.69,13.69,13.93,17.13,6.95,6.95,6.96
29.78,-6.63,-13.58,-6.63,-13.59,13.59,13.80,17.39,6.96,6.96,6.95
30.08,-6.52,-13.48,-6.52,-13.49,13.49,13.67,17.61,6.97,6.96,6.96
30.38,-6.42,-13.38,-6.42,-13.39,13.39,13.55,17.80,6.97,6.97,6.96
30.68,-6.31,-13.29,-6.31,-13.29,13.29,13.42,17.94,6.98,6.98,6.98
30.99,-6.20,-13.18,-6.21,-13.19,13.19,13.30,18.03,6.99,6.98,6.98
31.30,-6.11,-13.09,-6.10,-13.10,13.10,13.17,18.07,6.99,6.99,6.98
31.61,-6.01,-13.00,-6.00,-13.00,13.00,13.05,18.06,7.00,7.00,6.99
31.93,-5.91,-12.91,-5.90,-12.91,12.91,12.94,18.00,7.00,7.01,7.00
32.24,-5.80,-12.81,-5.80,-12.81,12.81,12.82,17.89,7.01,7.01,7.00
32.57,-5.71,-12.73,-5.70,-12.72,12.72,12.70,17.74,7.02,7.02,7.02
32.89,-5.60,-12.63,-5.61,-12.63,12.63,12.59,17.55,7.03,7.03,7.02
33.22,-5.51,-12.54,-5.51,-12.54,12.54,12.48,17.33,7.04,7.04,7.03
33.55,-5.41,-12.46,-5.41,-12.45,12.45,12.37,17.09,7.04,7.04,7.04
33.89,-5.32,-12.37,-5.32,-12.36,12.36,12.26,16.82,7.05,7.05,7.05
34.23,-5.23,-12.28,-5.22,-12.27,12.27,12.15,16.54,7.05,7.05,7.05
34.57,-5.13,-12.19,-5.12,-12.19,12.19,12.05,16.24,7.06,7.06,7.06
34.92,-5.03,-12.09,-5.03,-12.10,12.10,11.95,15.95,7.07,7.07,7.06
35.27,-4.94,-12.01,-4.94,-12.01,12.01,11.85,15.64,7.07,7.07,7.07
35.62,-4.85,-11.92,-4.84,-11.92,11.92,11.75,15.34,7.07,7.08,7.07
35.97,-4.75,-11.83,-4.75,-11.83,11.83,11.65,15.04,7.08,7.08,7.07
36.33,-4.66,-11.75,-4.66,-11.74,11.74,11.56,14.75,7.08,7.08,7.08
36.70,-4.57,-11.64,-4.57,-11.65,11.65,11.46,14.45,7.09,7.08,7.07
37.06,-4.48,-11.57,-4.49,-11.57,11.57,11.37,14.17,7.08,7.08,7.08
37.43,-4.39,-11.48,-4.40,-11.48,11.48,11.28,13.89,7.09,7.08,7.08
37.81,-4.32,-11.40,-4.32,-11.40,11.40,11.19,13.62,7.08,7.08,7.08
38.19,-4.24,-11.32,-4.23,-11.31,11.31,11.11,13.36,7.08,7.08,7.08
38.57,-4.16,-11.23,-4.16,-11.23,11.23,11.02,13.10,7.07,7.08,7.07
38.95,-4.07,-11.15,-4.08,-11.15,11.15,10.94,12.86,7.08,7.07,7.07
39.34,-3.99,-11.06,-4.00,-11.07,11.07,10.86,12.62,7.08,7.07,7.06
39.74,-3.93,-10.99,-3.93,-11.00,11.00,10.78,12.39,7.07,7.07,7.06
40.14,-3.86,-10.92,-3.85,-10.92,10.92,10.70,12.17,7.06,7.07,7.06
40.54,-3.78,-10.84,-3.78,-10.85,10.85,10.62,11.95,7.07,7.06,7.06
40.94,-3.71,-10.76,-3.71,-10.77,10.77,10.55,11.75,7.07,7.06,7.05
41.35,-3.64,-10.69,-3.64,-10.70,10.70,10.48,11.55,7.06,7.06,7.05
41.76,-3.57,-10.63,-3.57,-10.63,10.63,10.41,11.36,7.05,7.05,7.05
42.18,-3.51,-10.56,-3.50,-10.55,10.55,10.34,11.18,7.05,7.05,7.05
42.60,-3.43,-10.49,-3.43,-10.48,10.48,10.27,11.01,7.04,7.05,7.05
43.03,-3.37,-10.42,-3.36,-10.41,10.41,10.20,10.84,7.04,7.05,7.05
43.46,-3.30,-10.35,-3.29,-10.33,10.33,10.13,10.68,7.04,7.04,7.05
43.90,-3.23,-10.26,-3.22,-10.26,10.26,10.07,10.53,7.03,7.04,7.03
44.33,-3.14,-10.18,-3.14,-10.18,10.18,10.00,10.39,7.04,7.04,7.03
44.78,-3.08,-10.10,-3.07,-10.11,10.11,9.94,10.25,7.03,7.04,7.02
45.23,-3.00,-10.02,-3.00,-10.03,10.03,9.88,10.12,7.03,7.03,7.02
45.68,-2.92,-9.94,-2.92,-9.95,9.95,9.82,9.99,7.04,7.03,7.02
46.13,-2.84,-9.86,-2.85,-9.87,9.87,9.76,9.87,7.03,7.02,7.01
46.60,-2.77,-9.79,-2.77,-9.79,9.79,9.70,9.76,7.02,7.02,7.02
47.06,-2.70,-9.71,-2.70,-9.71,9.71,9.65,9.65,7.01,7.01,7.01
47.53,-2.62,-9.62,-2.62,-9.62,9.62,9.59,9.55,7.01,7.00,7.00
48.01,-2.55,-9.56,-2.54,-9.53,9.53,9.54,9.45,6.99,6.99,7.01
48.49,-2.47,-9.46,-2.46,-9.45,9.45,9.48,9.36,6.98,6.99,6.99
48.97,-2.39,-9.36,-2.38,-9.36,9.36,9.43,9.27,6.97,6.98,6.97
49.46,-2.32,-9.28,-2.31,-9.27,9.27,9.37,9.19,6.96,6.97,6.96
49.96,-2.24,-9.18,-2.23,-9.18,9.18,9.32,9.12,6.94,6.95,6.94
50.46,-2.15,-9.09,-2.15,-9.09,9.09,9.27,9.04,6.94,6.94,6.94
50.96,-2.07,-8.99,-2.07,-8.99,8.99,9.21,8.97,6.92,6.92,6.92
51.47,-1.99,-8.88,-1.99,-8.89,8.89,9.16,8.91,6.91,6.91,6.89
51.99,-1.91,-8.79,-1.91,-8.80,8.80,9.11,8.84,6.89,6.89,6.88
52.51,-1.83,-8.70,-1.83,-8.70,8.70,9.06,8.78,6.88,6.87,6.87
53.03,-1.76,-8.61,-1.75,-8.60,8.60,9.00,8.73,6.85,6.85,6.85
53.56,-1.68,-8.52,-1.67,-8.51,8.51,8.95,8.67,6.83,6.83,6.84
54.10,-1.61,-8.42,-1.60,-8.42,8.42,8.90,8.62,6.81,6.82,6.81
54.64,-1.53,-8.33,-1.53,-8.32,8.32,8.85,8.57,6.80,6.80,6.80
55.18,-1.46,-8.23,-1.46,-8.24,8.24,8.79,8.51,6.78,6.78,6.77
55.74,-1.39,-8.13,-1.39,-8.15,8.15,8.74,8.46,6.76,6.76,6.74
56.29,-1.33,-8.07,-1.33,-8.06,8.06,8.68,8.41,6.74,6.74,6.74
56.86,-1.27,-7.98,-1.27,-7.98,7.98,8.63,8.36,6.72,6.72,6.71
57.42,-1.21,-7.89,-1.21,-7.90,7.90,8.57,8.31,6.70,6.70,6.68
58.00,-1.16,-7.82,-1.16,-7.83,7.83,8.52,8.26,6.67,6.67,6.66
58.58,-1.11,-7.75,-1.11,-7.75,7.75,8.46,8.20,6.65,6.64,6.64
59.16,-1.07,-7.69,-1.06,-7.68,7.68,8.40,8.14,6.62,6.62,6.62
59.76,-1.03,-7.63,-1.03,-7.62,7.62,8.34,8.09,6.59,6.59,6.60
60.35,-0.99,-7.56,-0.99,-7.55,7.55,8.28,8.02,6.57,6.56,6.57
60.96,-0.96,-7.50,-0.97,-7.49,7.49,8.22,7.96,6.54,6.53,6.54
61.57,-0.94,-7.43,-0.94,-7.44,7.44,8.16,7.89,6.50,6.50,6.49
62.18,-0.92,-7.37,-0.92,-7.39,7.39,8.09,7.82,6.47,6.46,6.45
62.80,-0.91,-7.34,-0.91,-7.34,7.34,8.03,7.75,6.43,6.43,6.43
63.43,-0.90,-7.28,-0.90,-7.29,7.29,7.96,7.67,6.39,6.39,6.38
64.07,-0.90,-7.24,-0.89,-7.25,7.25,7.90,7.59,6.35,6.35,6.34
64.71,-0.89,-7.20,-0.89,-7.20,7.20,7.83,7.50,6.32,6.32,6.31
65.35,-0.89,-7.16,-0.89,-7.16,7.16,7.76,7.42,6.28,6.28,6.27
66.01,-0.90,-7.13,-0.89,-7.13,7.13,7.69,7.33,6.23,6.24,6.23
66.67,-0.90,-7.10,-0.89,-7.09,7.09,7.61,7.23,6.20,6.20,6.20
67.33,-0.90,-7.06,-0.90,-7.06,7.06,7.54,7.14,6.17,6.16,6.16
68.01,-0.91,-7.03,-0.91,-7.03,7.03,7.47,7.04,6.12,6.12,6.12
68.69,-0.92,-7.00,-0.91,-7.00,7.00,7.39,6.94,6.08,6.08,6.08
69.37,-0.92,-6.96,-0.92,-6.96,6.96,7.31,6.84,6.05,6.04,6.04
70.07,-0.93,-6.93,-0.93,-6.93,6.93,7.23,6.74,6.01,6.00,6.00
70.77,-0.94,-6.90,-0.93,-6.90,6.90,7.16,6.63,5.96,5.97,5.96
71.48,-0.94,-6.87,-0.93,-6.86,6.86,7.08,6.53,5.93,5.93,5.93
72.19,-0.95,-6.83,-0.94,-6.83,6.83,6.99,6.43,5.88,5.89,5.88
72.91,-0.95,-6.80,-0.93,-6.79,6.79,6.91,6.32,5.84,5.85,5.85
73.64,-0.94,-6.75,-0.93,-6.75,6.75,6.83,6.22,5.81,5.82,5.81
74.38,-0.93,-6.71,-0.92,-6.70,6.70,6.75,6.12,5.78,5.78,5.78
75.12,-0.92,-6.66,-0.91,-6.66,6.66,6.66,6.02,5.74,5.75,5.74
75.87,-0.90,-6.61,-0.89,-6.61,6.61,6.58,5.92,5.72,5.72,5.71
76.63,-0.89,-6.57,-0.88,-6.56,6.56,6.49,5.82,5.68,5.69,5.68
77.40,-0.87,-6.52,-0.86,-6.51,6.51,6.41,5.72,5.65,5.66,5.65
78.17,-0.84,-6.46,-0.84,-6.46,6.46,6.32,5.63,5.63,5.63,5.62
78.95,-0.82,-6.41,-0.81,-6.41,6.41,6.24,5.53,5.60,5.60,5.59
79.74,-0.79,-6.36,-0.79,-6.36,6.36,6.15,5.44,5.58,5.57,5.57
80.54,-0.76,-6.31,-0.77,-6.31,6.31,6.06,5.35,5.56,5.55,5.55
81.35,-0.74,-6.26,-0.74,-6.26,6.26,5.97,5.27,5.53,5.52,5.52
82.16,-0.72,-6.21,-0.72,-6.22,6.22,5.89,5.19,5.50,5.50,5.49
82.98,-0.69,-6.17,-0.70,-6.17,6.17,5.80,5.11,5.49,5.48,5.48
83.81,-0.67,-6.12,-0.68,-6.13,6.13,5.71,5.03,5.47,5.46,5.45
84.65,-0.66,-6.08,-0.66,-6.09,6.09,5.63,4.96,5.44,5.43,5.42
85.50,-0.64,-6.05,-0.64,-6.05,6.05,5.54,4.89,5.42,5.41,5.41
86.35,-0.61,-6.00,-0.62,-6.02,6.02,5.46,4.82,5.41,5.39,5.39
87.22,-0.59,-5.96,-0.60,-5.98,5.98,5.37,4.75,5.39,5.37,5.37
88.09,-0.58,-5.93,-0.58,-5.94,5.94,5.28,4.69,5.36,5.36,5.35
88.97,-0.56,-5.89,-0.56,-5.90,5.90,5.20,4.63,5.34,5.34,5.33
89.86,-0.55,-5.87,-0.54,-5.85,5.85,5.12,4.58,5.31,5.32,5.32
90.76,-0.53,-5.82,-0.50,-5.80,5.80,5.03,4.52,5.28,5.30,5.29
91.66,-0.49,-5.76,-0.47,-5.75,5.75,4.95,4.47,5.26,5.28,5.27
92.58,-0.46,-5.71,-0.43,-5.69,5.69,4.87,4.43,5.23,5.26,5.25
93.51,-0.41,-5.65,-0.38,-5.62,5.62,4.78,4.38,5.21,5.24,5.24
94.44,-0.36,-5.58,-0.33,-5.54,5.54,4.70,4.34,5.19,5.22,5.22
95.39,-0.30,-5.50,-0.27,-5.47,5.47,4.62,4.30,5.17,5.20,5.20
96.34,-0.23,-5.40,-0.22,-5.39,5.39,4.54,4.26,5.16,5.17,5.17
97.30,-0.16,-5.30,-0.16,-5.30,5.30,4.46,4.23,5.15,5.15,5.14
98.28,-0.08,-5.19,-0.09,-5.22,5.22,4.38,4.20,5.14,5.12,5.11
99.26,0.00,-5.09,-0.03,-5.12,5.12,4.31,4.17,5.13,5.09,5.09
100.25,0.07,-4.99,0.03,-5.03,5.03,4.23,4.14,5.11,5.06,5.06
101.25,0.12,-4.91,0.10,-4.94,4.94,4.15,4.11,5.06,5.03,5.03
102.27,0.17,-4.82,0.16,-4.84,4.84,4.08,4.09,5.02,5.00,4.99
103.29,0.20,-4.76,0.22,-4.75,4.75,4.00,4.06,4.95,4.97,4.96
104.32,0.24,-4.69,0.27,-4.66,4.66,3.93,4.04,4.90,4.93,4.93
105.37,0.30,-4.59,0.32,-4.56,4.56,3.86,4.02,4.87,4.89,4.89
106.42,0.37,-4.47,0.37,-4.47,4.47,3.79,4.00,4.85,4.85,4.84
107.48,0.42,-4.39,0.42,-4.38,4.38,3.72,3.98,4.81,4.80,4.81
108.56,0.47,-4.28,0.46,-4.29,4.29,3.65,3.96,4.76,4.75,4.75
109.64,0.51,-4.19,0.51,-4.20,4.20,3.58,3.94,4.71,4.70,4.70
110.74,0.55,-4.10,0.55,-4.10,4.10,3.51,3.92,4.65,4.65,4.65
111.85,0.59,-4.01,0.59,-4.00,4.00,3.44,3.90,4.60,4.59,4.60
112.97,0.62,-3.91,0.63,-3.90,3.90,3.37,3.88,4.53,4.54,4.53
114.10,0.66,-3.82,0.68,-3.80,3.80,3.31,3.86,4.47,4.48,4.48
115.24,0.71,-3.71,0.71,-3.71,3.71,3.24,3.84,4.42,4.42,4.42
116.39,0.73,-3.62,0.75,-3.61,3.61,3.18,3.81,4.35,4.36,4.35
117.55,0.77,-3.52,0.78,-3.52,3.52,3.12,3.78,4.30,4.30,4.29
118.73,0.82,-3.41,0.81,-3.43,3.43,3.06,3.76,4.26,4.25,4.23
119.92,0.87,-3.31,0.85,-3.34,3.34,2.99,3.72,4.22,4.19,4.18
121.12,0.89,-3.23,0.88,-3.26,3.26,2.93,3.69,4.15,4.13,4.12
122.33,0.90,-3.17,0.91,-3.17,3.17,2.87,3.65,4.07,4.08,4.07
123.55,0.92,-3.10,0.93,-3.09,3.09,2.81,3.62,4.01,4.02,4.02
124.79,0.95,-3.02,0.96,-3.01,3.01,2.76,3.57,3.96,3.97,3.97
126.03,0.98,-2.94,0.99,-2.93,2.93,2.70,3.53,3.92,3.92,3.92
127.29,1.00,-2.87,1.01,-2.86,2.86,2.64,3.48,3.86,3.87,3.87
128.57,1.03,-2.78,1.04,-2.78,2.78,2.59,3.43,3.82,3.82,3.81
129.85,1.07,-2.70,1.07,-2.71,2.71,2.53,3.38,3.79,3.78,3.77
131.15,1.09,-2.63,1.09,-2.64,2.64,2.48,3.32,3.73,3.73,3.72
132.46,1.10,-2.58,1.12,-2.57,2.57,2.42,3.26,3.67,3.69,3.68
133.79,1.13,-2.51,1.15,-2.49,2.49,2.37,3.20,3.63,3.64,3.64
135.12,1.16,-2.44,1.18,-2.42,2.42,2.32,3.14,3.59,3.60,3.60
136.48,1.19,-2.37,1.21,-2.35,2.35,2.26,3.07,3.55,3.56,3.56
137.84,1.23,-2.29,1.23,-2.29,2.29,2.21,3.00,3.52,3.52,3.52
139.22,1.25,-2.22,1.26,-2.23,2.23,2.16,2.93,3.48,3.48,3.47
140.61,1.28,-2.15,1.28,-2.17,2.17,2.11,2.86,3.45,3.45,3.43
142.02,1.32,-2.09,1.29,-2.12,2.12,2.06,2.78,3.44,3.41,3.41
143.44,1.33,-2.04,1.31,-2.06,2.06,2.01,2.71,3.40,3.37,3.37
144.87,1.36,-1.97,1.32,-2.01,2.01,1.96,2.63,3.38,3.33,3.33
146.32,1.36,-1.93,1.33,-1.96,1.96,1.91,2.56,3.33,3.30,3.29
147.78,1.35,-1.91,1.34,-1.91,1.91,1.86,2.48,3.27,3.26,3.26
149.26,1.34,-1.89,1.35,-1.86,1.86,1.81,2.40,3.21,3.22,3.23
150.75,1.33,-1.84,1.36,-1.81,1.81,1.76,2.32,3.15,3.18,3.17
152.26,1.34,-1.79,1.37,-1.76,1.76,1.72,2.24,3.11,3.14,3.13
153.78,1.35,-1.75,1.38,-1.71,1.71,1.67,2.16,3.07,3.09,3.10
155.32,1.36,-1.68,1.40,-1.65,1.65,1.62,2.09,3.02,3.05,3.04
156.88,1.40,-1.61,1.42,-1.59,1.59,1.57,2.01,3.00,3.01,3.01
158.44,1.42,-1.54,1.44,-1.53,1.53,1.52,1.93,2.95,2.96,2.96
160.03,1.46,-1.45,1.46,-1.46,1.46,1.48,1.85,2.92,2.92,2.91
161.63,1.48,-1.38,1.49,-1.38,1.38,1.43,1.77,2.87,2.87,2.86
163.24,1.51,-1.31,1.52,-1.31,1.31,1.38,1.69,2.82,2.83,2.82
164.88,1.56,-1.22,1.55,-1.23,1.23,1.33,1.62,2.79,2.78,2.78
166.53,1.58,-1.15,1.58,-1.15,1.15,1.28,1.54,2.74,2.73,2.73
168.19,1.61,-1.07,1.61,-1.08,1.08,1.23,1.46,2.69,2.68,2.68
169.87,1.65,-0.98,1.63,-1.01,1.01,1.18,1.39,2.66,2.63,2.63
171.57,1.67,-0.92,1.65,-0.94,0.94,1.13,1.31,2.61,2.58,2.59
173.29,1.68,-0.85,1.66,-0.87,0.87,1.08,1.24,2.55,2.53,2.53
175.02,1.69,-0.79,1.67,-0.81,0.81,1.03,1.17,2.50,2.48,2.48
176.77,1.69,-0.73,1.68,-0.74,0.74,0.98,1.09,2.44,2.43,2.42
178.54,1.68,-0.69,1.69,-0.69,0.69,0.92,1.02,2.37,2.37,2.37
180.32,1.67,-0.64,1.69,-0.63,0.63,0.87,0.95,2.30,2.32,2.31
182.13,1.67,-0.59,1.69,-0.57,0.57,0.81,0.88,2.25,2.26,2.26
183.95,1.67,-0.53,1.69,-0.52,0.52,0.76,0.81,2.19,2.20,2.20
185.79,1.67,-0.48,1.68,-0.46,0.46,0.70,0.74,2.14,2.15,2.15
187.65,1.67,-0.41,1.68,-0.41,0.41,0.64,0.67,2.09,2.09,2.08
189.52,1.67,-0.36,1.68,-0.36,0.36,0.58,0.60,2.04,2.04,2.03
191.42,1.67,-0.31,1.67,-0.31,0.31,0.52,0.53,1.99,1.99,1.98
193.33,1.67,-0.26,1.67,-0.26,0.26,0.45,0.46,1.93,1.93,1.93
195.27,1.67,-0.21,1.67,-0.21,0.21,0.39,0.40,1.88,1.88,1.88
197.22,1.67,-0.15,1.67,-0.16,0.16,0.32,0.33,1.83,1.83,1.82
199.19,1.67,-0.10,1.67,-0.11,0.11,0.26,0.27,1.78,1.78,1.77
201.18,1.67,-0.05,1.67,-0.06,0.06,0.19,0.20,1.73,1.73,1.72
203.19,1.67,-0.02,1.67,-0.01,0.01,0.12,0.14,1.68,1.68,1.69
205.23,1.67,0.04,1.67,0.03,-0.03,0.05,0.08,1.64,1.64,1.63
207.28,1.67,0.06,1.67,0.08,-0.08,-0.02,0.02,1.60,1.60,1.61
209.35,1.67,0.12,1.67,0.12,-0.12,-0.09,-0.04,1.55,1.55,1.55
211.44,1.67,0.17,1.67,0.16,-0.16,-0.15,-0.10,1.51,1.51,1.50
213.56,1.67,0.21,1.67,0.20,-0.20,-0.22,-0.16,1.47,1.47,1.46
215.69,1.67,0.23,1.67,0.24,-0.24,-0.28,-0.21,1.44,1.44,1.44
217.85,1.67,0.27,1.67,0.27,-0.27,-0.34,-0.26,1.40,1.40,1.40
220.03,1.67,0.31,1.67,0.31,-0.31,-0.40,-0.32,1.37,1.37,1.36
222.23,1.67,0.34,1.67,0.34,-0.34,-0.45,-0.36,1.34,1.34,1.33
224.45,1.67,0.36,1.67,0.36,-0.36,-0.50,-0.41,1.31,1.31,1.31
226.70,1.67,0.39,1.67,0.39,-0.39,-0.54,-0.45,1.29,1.29,1.28
228.96,1.67,0.42,1.67,0.41,-0.41,-0.57,-0.49,1.26,1.26,1.25
231.25,1.67,0.43,1.67,0.43,-0.43,-0.59,-0.53,1.24,1.24,1.24
233.57,1.67,0.45,1.67,0.45,-0.45,-0.61,-0.57,1.23,1.23,1.22
235.90,1.67,0.46,1.67,0.46,-0.46,-0.62,-0.60,1.22,1.22,1.21
238.26,1.67,0.47,1.67,0.47,-0.47,-0.62,-0.63,1.20,1.20,1.20
240.64,1.67,0.48,1.67,0.48,-0.48,-0.61,-0.65,1.20,1.20,1.19
243.05,1.67,0.48,1.67,0.48,-0.48,-0.60,-0.68,1.19,1.19,1.19
245.48,1.67,0.49,1.67,0.48,-0.48,-0.58,-0.69,1.19,1.19,1.18
247.93,1.67,0.49,1.67,0.49,-0.49,-0.56,-0.71,1.19,1.19,1.18
250.41,1.67,0.49,1.67,0.48,-0.48,-0.53,-0.72,1.19,1.19,1.18
252.92,1.67,0.48,1.68,0.48,-0.48,-0.50,-0.73,1.19,1.19,1.19
255.45,1.67,0.47,1.68,0.48,-0.48,-0.47,-0.73,1.20,1.20,1.20
258.00,1.67,0.46,1.68,0.47,-0.47,-0.43,-0.73,1.20,1.21,1.21
260.58,1.67,0.46,1.69,0.47,-0.47,-0.39,-0.73,1.21,1.22,1.21
263.19,1.67,0.45,1.69,0.46,-0.46,-0.36,-0.72,1.21,1.23,1.22
265.82,1.67,0.44,1.69,0.45,-0.45,-0.32,-0.71,1.22,1.24,1.23
268.48,1.68,0.43,1.69,0.44,-0.44,-0.28,-0.70,1.25,1.25,1.25
271.16,1.69,0.42,1.69,0.42,-0.42,-0.24,-0.68,1.27,1.27,1.27
273.87,1.69,0.42,1.68,0.40,-0.40,-0.21,-0.66,1.29,1.28,1.27
276.61,1.69,0.39,1.68,0.38,-0.38,-0.17,-0.64,1.31,1.29,1.30
279.38,1.68,0.38,1.66,0.36,-0.36,-0.14,-0.61,1.33,1.31,1.30
282.17,1.67,0.35,1.65,0.33,-0.33,-0.11,-0.59,1.35,1.32,1.32
284.99,1.65,0.32,1.63,0.30,-0.30,-0.08,-0.56,1.36,1.33,1.33
287.84,1.61,0.27,1.61,0.26,-0.26,-0.05,-0.52,1.35,1.35,1.34
290.72,1.58,0.23,1.58,0.22,-0.22,-0.02,-0.49,1.36,1.36,1.35
293.63,1.55,0.18,1.56,0.18,-0.18,0.00,-0.46,1.37,1.37,1.37
296.57,1.52,0.13,1.53,0.14,-0.14,0.03,-0.42,1.38,1.39,1.39
299.53,1.48,0.09,1.50,0.10,-0.10,0.05,-0.38,1.39,1.40,1.39
302.53,1.45,0.05,1.47,0.06,-0.06,0.07,-0.35,1.39,1.41,1.40
305.55,1.42,0.00,1.45,0.02,-0.02,0.09,-0.31,1.40,1.42,1.42
308.61,1.39,-0.04,1.42,-0.01,0.01,0.11,-0.27,1.41,1.43,1.43
311.69,1.38,-0.06,1.40,-0.05,0.05,0.13,-0.23,1.43,1.45,1.44
314.81,1.37,-0.10,1.38,-0.08,0.08,0.15,-0.18,1.45,1.45,1.47
317.96,1.35,-0.11,1.36,-0.10,0.10,0.16,-0.14,1.46,1.46,1.46
321.14,1.34,-0.13,1.34,-0.13,0.13,0.18,-0.10,1.48,1.47,1.47
324.35,1.32,-0.15,1.32,-0.16,0.16,0.19,-0.06,1.48,1.48,1.47
327.59,1.31,-0.17,1.30,-0.18,0.18,0.21,-0.01,1.50,1.48,1.48
330.87,1.30,-0.18,1.28,-0.21,0.21,0.22,0.03,1.51,1.49,1.48
334.18,1.28,-0.20,1.25,-0.24,0.24,0.23,0.08,1.52,1.49,1.48
337.52,1.24,-0.25,1.23,-0.26,0.26,0.24,0.12,1.51,1.49,1.49
340.90,1.21,-0.28,1.20,-0.29,0.29,0.25,0.17,1.51,1.49,1.49
344.30,1.18,-0.31,1.17,-0.32,0.32,0.27,0.21,1.50,1.49,1.49
347.75,1.14,-0.35,1.15,-0.34,0.34,0.28,0.26,1.49,1.49,1.49
351.23,1.11,-0.38,1.12,-0.37,0.37,0.29,0.30,1.48,1.49,1.49
354.74,1.08,-0.41,1.10,-0.38,0.38,0.30,0.35,1.47,1.49,1.49
358.28,1.05,-0.42,1.08,-0.40,0.40,0.31,0.39,1.45,1.48,1.47
361.87,1.03,-0.44,1.07,-0.41,0.41,0.32,0.44,1.45,1.48,1.47
365.49,1.01,-0.46,1.05,-0.42,0.42,0.33,0.48,1.43,1.47,1.47
369.14,1.01,-0.45,1.04,-0.42,0.42,0.33,0.53,1.44,1.47,1.46
372.83,1.01,-0.45,1.03,-0.43,0.43,0.34,0.58,1.44,1.46,1.46
376.56,1.02,-0.43,1.02,-0.43,0.43,0.35,0.62,1.45,1.45,1.45
380.33,1.03,-0.41,1.01,-0.43,0.43,0.36,0.67,1.47,1.44,1.44
384.13,1.03,-0.40,1.00,-0.43,0.43,0.37,0.72,1.47,1.44,1.43
387.97,1.02,-0.40,0.99,-0.44,0.44,0.38,0.76,1.46,1.43,1.42
391.85,1.01,-0.40,0.98,-0.45,0.45,0.39,0.81,1.46,1.42,1.41
395.77,0.98,-0.44,0.96,-0.46,0.46,0.40,0.85,1.44,1.42,1.42
399.73,0.95,-0.46,0.94,-0.47,0.47,0.41,0.90,1.42,1.41,1.41
403.72,0.92,-0.48,0.92,-0.48,0.48,0.42,0.95,1.41,1.40,1.40
407.76,0.89,-0.50,0.90,-0.50,0.50,0.43,0.99,1.40,1.40,1.39
411.84,0.85,-0.55,0.87,-0.52,0.52,0.44,1.04,1.38,1.39,1.40
415.96,0.82,-0.56,0.84,-0.55,0.55,0.45,1.08,1.37,1.39,1.38
420.12,0.79,-0.59,0.82,-0.57,0.57,0.46,1.13,1.36,1.39,1.38
424.32,0.76,-0.62,0.79,-0.59,0.59,0.48,1.17,1.36,1.38,1.38
428.56,0.75,-0.62,0.76,-0.62,0.62,0.49,1.21,1.37,1.38,1.37
432.85,0.73,-0.64,0.74,-0.64,0.64,0.50,1.26,1.37,1.38,1.37
437.18,0.71,-0.66,0.72,-0.66,0.66,0.51,1.30,1.38,1.38,1.37
441.55,0.70,-0.68,0.70,-0.68,0.68,0.53,1.34,1.39,1.38,1.38
445.96,0.68,-0.70,0.67,-0.71,0.71,0.54,1.38,1.39,1.38,1.38
450.42,0.66,-0.71,0.65,-0.73,0.73,0.56,1.41,1.39,1.38,1.37
454.93,0.64,-0.74,0.63,-0.75,0.75,0.57,1.45,1.40,1.38,1.38
459.48,0.61,-0.77,0.61,-0.78,0.78,0.59,1.48,1.39,1.39,1.38
464.07,0.59,-0.80,0.59,-0.81,0.81,0.61,1.52,1.40,1.39,1.39
468.71,0.56,-0.84,0.56,-0.84,0.84,0.63,1.55,1.40,1.40,1.40
473.40,0.52,-0.87,0.53,-0.87,0.87,0.65,1.58,1.39,1.40,1.39
478.13,0.50,-0.90,0.51,-0.90,0.90,0.67,1.60,1.40,1.41,1.40
482.91,0.47,-0.93,0.48,-0.93,0.93,0.69,1.63,1.40,1.41,1.40
487.74,0.45,-0.96,0.45,-0.96,0.96,0.71,1.65,1.42,1.42,1.41
492.62,0.42,-1.00,0.43,-0.99,0.99,0.74,1.67,1.42,1.42,1.42
497.55,0.39,-1.03,0.40,-1.03,1.03,0.76,1.68,1.42,1.43,1.42
502.52,0.35,-1.08,0.37,-1.06,1.06,0.79,1.70,1.41,1.43,1.43
507.55,0.32,-1.11,0.34,-1.09,1.09,0.82,1.71,1.42,1.43,1.43
