frequency,raw,error,smoothed,error_smoothed,equalization,parametric_eq,fixed_band_eq,equalized_raw,equalized_smoothed,target
20.00,1.99,-1.83,1.99,-1.85,1.85,1.79,0.68,3.84,3.84,3.82
20.20,2.00,-1.86,2.01,-1.87,1.87,1.80,0.71,3.87,3.87,3.86
20.40,2.02,-1.88,2.02,-1.88,1.88,1.81,0.73,3.91,3.90,3.90
20.61,2.03,-1.90,2.03,-1.90,1.90,1.82,0.75,3.93,3.93,3.93
20.81,2.05,-1.92,2.05,-1.91,1.91,1.83,0.77,3.97,3.96,3.97
21.02,2.06,-1.95,2.06,-1.93,1.93,1.84,0.80,3.99,3.99,4.01
21.23,2.07,-1.96,2.07,-1.94,1.94,1.85,0.82,4.01,4.01,4.03
21.44,2.09,-1.96,2.09,-1.95,1.95,1.86,0.85,4.04,4.03,4.05
21.66,2.10,-1.97,2.10,-1.95,1.95,1.87,0.87,4.05,4.05,4.07
21.87,2.11,-1.97,2.12,-1.96,1.96,1.87,0.90,4.07,4.07,4.08
22.09,2.13,-1.97,2.13,-1.96,1.96,1.88,0.93,4.09,4.09,4.10
22.31,2.14,-1.97,2.15,-1.96,1.96,1.88,0.96,4.11,4.11,4.11
22.54,2.16,-1.96,2.16,-1.96,1.96,1.89,0.99,4.12,4.12,4.12
22.76,2.17,-1.96,2.18,-1.96,1.96,1.89,1.02,4.13,4.13,4.13
22.99,2.19,-1.94,2.19,-1.95,1.95,1.90,1.05,4.14,4.14,4.13
23.22,2.21,-1.93,2.21,-1.94,1.94,1.90,1.08,4.15,4.15,4.14
23.45,2.22,-1.93,2.22,-1.93,1.93,1.90,1.11,4.16,4.16,4.15
23.69,2.24,-1.92,2.24,-1.93,1.93,1.90,1.14,4.17,4.17,4.16
23.92,2.25,-1.92,2.26,-1.92,1.92,1.90,1.18,4.17,4.18,4.17
24.16,2.27,-1.92,2.27,-1.91,1.91,1.90,1.21,4.18,4.18,4.19
24.40,2.29,-1.92,2.29,-1.90,1.90,1.90,1.25,4.20,4.19,4.21
24.65,2.31,-1.89,2.31,-1.90,1.90,1.90,1.28,4.21,4.20,4.20
24.89,2.32,-1.89,2.32,-1.89,1.89,1.90,1.32,4.21,4.21,4.21
25.14,2.34,-1.88,2.34,-1.88,1.88,1.90,1.35,4.23,4.22,4.22
25.39,2.35,-1.88,2.36,-1.88,1.88,1.89,1.39,4.23,4.23,4.23
25.65,2.37,-1.88,2.37,-1.87,1.87,1.89,1.42,4.24,4.24,4.25
25.91,2.38,-1.87,2.39,-1.87,1.87,1.89,1.46,4.25,4.25,4.25
26.16,2.40,-1.86,2.41,-1.86,1.86,1.88,1.49,4.26,4.26,4.26
26.43,2.42,-1.85,2.42,-1.85,1.85,1.88,1.53,4.27,4.27,4.27
26.69,2.44,-1.84,2.44,-1.84,1.84,1.87,1.56,4.28,4.28,4.28
26.96,2.46,-1.84,2.46,-1.83,1.83,1.86,1.60,4.30,4.29,4.30
27.23,2.47,-1.84,2.47,-1.83,1.83,1.85,1.63,4.30,4.30,4.31
27.50,2.49,-1.82,2.49,-1.82,1.82,1.85,1.66,4.31,4.31,4.31
27.77,2.51,-1.80,2.51,-1.81,1.81,1.84,1.69,4.32,4.32,4.31
28.05,2.52,-1.81,2.52,-1.80,1.80,1.83,1.72,4.32,4.33,4.33
28.33,2.54,-1.79,2.54,-1.79,1.79,1.82,1.75,4.34,4.34,4.33
28.62,2.56,-1.78,2.56,-1.78,1.78,1.81,1.77,4.35,4.34,4.34
28.90,2.57,-1.78,2.58,-1.77,1.77,1.80,1.80,4.35,4.35,4.35
29.19,2.59,-1.76,2.59,-1.76,1.76,1.79,1.82,4.36,4.36,4.35
29.48,2.61,-1.77,2.61,-1.75,1.75,1.78,1.84,4.37,4.36,4.38
29.78,2.63,-1.74,2.63,-1.74,1.74,1.76,1.86,4.37,4.37,4.37
30.08,2.64,-1.74,2.65,-1.73,1.73,1.75,1.87,4.37,4.38,4.38
30.38,2.66,-1.72,2.66,-1.72,1.72,1.74,1.89,4.38,4.38,4.38
30.68,2.68,-1.72,2.68,-1.71,1.71,1.72,1.90,4.39,4.39,4.40
30.99,2.70,-1.70,2.70,-1.70,1.70,1.71,1.91,4.40,4.40,4.40
31.30,2.72,-1.68,2.72,-1.69,1.69,1.70,1.91,4.41,4.41,4.40
31.61,2.74,-1.67,2.74,-1.68,1.68,1.68,1.91,4.42,4.41,4.41
31.93,2.76,-1.66,2.76,-1.66,1.66,1.67,1.91,4.43,4.42,4.42
32.24,2.77,-1.65,2.78,-1.65,1.65,1.65,1.91,4.43,4.43,4.42
32.57,2.79,-1.65,2.80,-1.64,1.64,1.64,1.90,4.43,4.44,4.44
32.89,2.81,-1.63,2.82,-1.63,1.63,1.62,1.90,4.44,4.44,4.44
33.22,2.83,-1.62,2.84,-1.61,1.61,1.60,1.89,4.45,4.45,4.45
33.55,2.85,-1.61,2.86,-1.60,1.60,1.59,1.87,4.45,4.46,4.46
33.89,2.87,-1.60,2.88,-1.59,1.59,1.57,1.86,4.46,4.46,4.47
34.23,2.90,-1.57,2.90,-1.57,1.57,1.55,1.84,4.47,4.47,4.47
34.57,2.92,-1.56,2.92,-1.56,1.56,1.54,1.82,4.48,4.48,4.48
34.92,2.94,-1.54,2.94,-1.54,1.54,1.52,1.80,4.49,4.48,4.48
35.27,2.96,-1.53,2.96,-1.53,1.53,1.50,1.78,4.49,4.49,4.49
35.62,2.98,-1.51,2.98,-1.51,1.51,1.49,1.76,4.49,4.49,4.49
35.97,3.00,-1.49,3.00,-1.50,1.50,1.47,1.74,4.50,4.49,4.49
36.33,3.01,-1.49,3.02,-1.48,1.48,1.45,1.71,4.49,4.50,4.50
36.70,3.03,-1.46,3.03,-1.46,1.46,1.43,1.69,4.50,4.50,4.49
37.06,3.04,-1.46,3.05,-1.45,1.45,1.42,1.66,4.49,4.50,4.50
37.43,3.06,-1.44,3.06,-1.43,1.43,1.40,1.64,4.50,4.50,4.50
37.81,3.08,-1.42,3.08,-1.42,1.42,1.38,1.61,4.50,4.50,4.50
38.19,3.09,-1.41,3.09,-1.41,1.41,1.36,1.59,4.50,4.49,4.50
38.57,3.10,-1.39,3.10,-1.39,1.39,1.34,1.56,4.49,4.49,4.49
38.95,3.11,-1.38,3.11,-1.38,1.38,1.33,1.54,4.49,4.49,4.49
39.34,3.12,-1.36,3.12,-1.37,1.37,1.31,1.51,4.49,4.49,4.48
39.74,3.12,-1.36,3.13,-1.36,1.36,1.29,1.49,4.48,4.49,4.48
40.14,3.13,-1.35,3.14,-1.35,1.35,1.27,1.46,4.48,4.48,4.48
40.54,3.14,-1.34,3.14,-1.34,1.34,1.25,1.44,4.48,4.48,4.48
40.94,3.15,-1.32,3.15,-1.33,1.33,1.24,1.42,4.48,4.48,4.47
41.35,3.15,-1.32,3.16,-1.32,1.32,1.22,1.40,4.47,4.47,4.47
41.76,3.16,-1.31,3.16,-1.31,1.31,1.20,1.38,4.47,4.47,4.47
42.18,3.16,-1.31,3.16,-1.31,1.31,1.18,1.36,4.47,4.47,4.47
42.60,3.17,-1.30,3.16,-1.30,1.30,1.17,1.34,4.47,4.46,4.47
43.03,3.17,-1.30,3.17,-1.29,1.29,1.15,1.32,4.47,4.46,4.47
43.46,3.17,-1.30,3.17,-1.29,1.29,1.13,1.30,4.46,4.46,4.47
43.90,3.17,-1.28,3.17,-1.29,1.29,1.11,1.29,4.46,4.46,4.45
44.33,3.17,-1.28,3.17,-1.28,1.28,1.10,1.27,4.45,4.45,4.45
44.78,3.16,-1.28,3.17,-1.28,1.28,1.08,1.26,4.44,4.45,4.44
45.23,3.16,-1.28,3.17,-1.28,1.28,1.06,1.25,4.44,4.45,4.44
45.68,3.17,-1.27,3.17,-1.27,1.27,1.05,1.23,4.44,4.44,4.44
46.13,3.17,-1.26,3.17,-1.27,1.27,1.03,1.22,4.44,4.44,4.43
46.60,3.17,-1.27,3.17,-1.26,1.26,1.01,1.21,4.44,4.43,4.44
47.06,3.17,-1.26,3.17,-1.26,1.26,1.00,1.20,4.43,4.43,4.43
47.53,3.18,-1.24,3.17,-1.25,1.25,0.98,1.19,4.43,4.42,4.42
48.01,3.18,-1.25,3.17,-1.24,1.24,0.97,1.19,4.42,4.41,4.43
48.49,3.18,-1.23,3.18,-1.22,1.22,0.95,1.18,4.41,4.40,4.41
48.97,3.17,-1.22,3.18,-1.21,1.21,0.93,1.17,4.38,4.39,4.39
49.46,3.18,-1.20,3.19,-1.19,1.19,0.92,1.17,4.37,4.38,4.38
49.96,3.19,-1.17,3.20,-1.17,1.17,0.90,1.16,4.36,4.37,4.36
50.46,3.20,-1.16,3.21,-1.14,1.14,0.89,1.16,4.35,4.35,4.36
50.96,3.21,-1.13,3.22,-1.12,1.12,0.87,1.16,4.33,4.34,4.34
51.47,3.22,-1.09,3.24,-1.09,1.09,0.86,1.15,4.31,4.32,4.31
51.99,3.24,-1.06,3.25,-1.06,1.06,0.84,1.15,4.30,4.31,4.30
52.51,3.26,-1.03,3.27,-1.02,1.02,0.83,1.15,4.28,4.29,4.29
53.03,3.28,-0.99,3.28,-0.99,0.99,0.81,1.14,4.27,4.27,4.27
53.56,3.30,-0.96,3.30,-0.95,0.95,0.80,1.14,4.26,4.25,4.26
54.10,3.32,-0.91,3.31,-0.92,0.92,0.78,1.14,4.24,4.23,4.23
54.64,3.33,-0.89,3.32,-0.89,0.89,0.77,1.13,4.22,4.21,4.22
55.18,3.34,-0.85,3.33,-0.86,0.86,0.76,1.13,4.21,4.19,4.19
55.74,3.35,-0.81,3.34,-0.84,0.84,0.74,1.13,4.19,4.18,4.16
56.29,3.35,-0.81,3.34,-0.81,0.81,0.73,1.12,4.16,4.15,4.16
56.86,3.35,-0.78,3.35,-0.79,0.79,0.72,1.11,4.14,4.13,4.13
57.42,3.35,-0.75,3.35,-0.76,0.76,0.70,1.11,4.11,4.11,4.10
58.00,3.35,-0.73,3.35,-0.74,0.74,0.69,1.10,4.09,4.09,4.08
58.58,3.34,-0.72,3.35,-0.71,0.71,0.68,1.09,4.05,4.06,4.06
59.16,3.33,-0.71,3.35,-0.68,0.68,0.66,1.08,4.01,4.03,4.04
59.76,3.33,-0.69,3.35,-0.65,0.65,0.65,1.07,3.99,4.01,4.02
60.35,3.33,-0.66,3.35,-0.63,0.63,0.64,1.05,3.96,3.98,3.99
60.96,3.34,-0.62,3.35,-0.60,0.60,0.62,1.04,3.94,3.94,3.96
61.57,3.35,-0.56,3.35,-0.57,0.57,0.61,1.02,3.92,3.91,3.91
62.18,3.35,-0.52,3.34,-0.53,0.53,0.60,1.00,3.89,3.88,3.87
62.80,3.35,-0.50,3.34,-0.50,0.50,0.59,0.98,3.85,3.84,3.85
63.43,3.35,-0.45,3.34,-0.47,0.47,0.58,0.96,3.82,3.81,3.80
64.07,3.34,-0.42,3.34,-0.43,0.43,0.56,0.93,3.78,3.77,3.76
64.71,3.33,-0.40,3.33,-0.40,0.40,0.55,0.91,3.73,3.73,3.73
65.35,3.32,-0.37,3.33,-0.37,0.37,0.54,0.88,3.69,3.69,3.69
66.01,3.31,-0.34,3.32,-0.34,0.34,0.53,0.85,3.65,3.65,3.65
66.67,3.30,-0.32,3.31,-0.31,0.31,0.52,0.82,3.61,3.61,3.62
67.33,3.28,-0.30,3.29,-0.28,0.28,0.50,0.79,3.57,3.58,3.58
68.01,3.27,-0.27,3.28,-0.26,0.26,0.49,0.75,3.53,3.54,3.54
68.69,3.26,-0.24,3.26,-0.24,0.24,0.48,0.71,3.50,3.50,3.50
69.37,3.24,-0.22,3.24,-0.22,0.22,0.47,0.68,3.46,3.46,3.46
70.07,3.22,-0.20,3.22,-0.21,0.21,0.46,0.64,3.43,3.42,3.42
70.77,3.19,-0.19,3.19,-0.19,0.19,0.45,0.60,3.38,3.38,3.38
71.48,3.16,-0.19,3.16,-0.18,0.18,0.44,0.56,3.34,3.34,3.35
72.19,3.13,-0.17,3.13,-0.17,0.17,0.42,0.51,3.31,3.31,3.30
72.91,3.10,-0.17,3.10,-0.17,0.17,0.41,0.47,3.27,3.27,3.27
73.64,3.06,-0.17,3.06,-0.17,0.17,0.40,0.43,3.23,3.23,3.23
74.38,3.02,-0.18,3.03,-0.17,0.17,0.39,0.38,3.19,3.20,3.20
75.12,2.98,-0.18,2.99,-0.18,0.18,0.38,0.33,3.16,3.16,3.16
75.87,2.94,-0.19,2.94,-0.19,0.19,0.37,0.29,3.13,3.13,3.13
76.63,2.89,-0.21,2.89,-0.21,0.21,0.36,0.24,3.10,3.10,3.10
77.40,2.83,-0.24,2.84,-0.23,0.23,0.35,0.19,3.06,3.07,3.07
78.17,2.78,-0.26,2.78,-0.26,0.26,0.33,0.14,3.04,3.04,3.04
78.95,2.72,-0.29,2.72,-0.29,0.29,0.32,0.09,3.02,3.01,3.01
79.74,2.67,-0.32,2.66,-0.33,0.33,0.31,0.04,3.00,2.99,2.99
80.54,2.61,-0.36,2.59,-0.38,0.38,0.30,-0.01,2.99,2.96,2.97
81.35,2.54,-0.40,2.51,-0.43,0.43,0.29,-0.06,2.97,2.94,2.94
82.16,2.46,-0.45,2.44,-0.48,0.48,0.27,-0.11,2.94,2.92,2.91
82.98,2.37,-0.53,2.36,-0.53,0.53,0.26,-0.16,2.90,2.89,2.90
83.81,2.28,-0.59,2.28,-0.59,0.59,0.25,-0.21,2.87,2.87,2.87
84.65,2.19,-0.65,2.21,-0.64,0.64,0.24,-0.27,2.84,2.85,2.84
85.50,2.12,-0.71,2.13,-0.70,0.70,0.23,-0.32,2.82,2.83,2.83
86.35,2.04,-0.77,2.06,-0.75,0.75,0.21,-0.37,2.79,2.81,2.81
87.22,1.97,-0.82,1.99,-0.80,0.80,0.20,-0.43,2.78,2.79,2.79
88.09,1.91,-0.86,1.92,-0.85,0.85,0.19,-0.48,2.76,2.77,2.77
88.97,1.85,-0.90,1.86,-0.89,0.89,0.17,-0.54,2.75,2.75,2.75
89.86,1.80,-0.94,1.80,-0.93,0.93,0.16,-0.59,2.73,2.73,2.74
90.76,1.76,-0.95,1.76,-0.96,0.96,0.15,-0.65,2.72,2.71,2.71
91.66,1.72,-0.97,1.72,-0.97,0.97,0.13,-0.71,2.69,2.70,2.69
92.58,1.69,-0.98,1.70,-0.98,0.98,0.12,-0.76,2.67,2.68,2.67
93.51,1.67,-0.99,1.68,-0.97,0.97,0.10,-0.82,2.65,2.66,2.66
94.44,1.66,-0.98,1.67,-0.96,0.96,0.09,-0.88,2.62,2.63,2.64
95.39,1.66,-0.96,1.67,-0.94,0.94,0.07,-0.93,2.60,2.61,2.62
96.34,1.65,-0.94,1.68,-0.91,0.91,0.05,-0.99,2.56,2.59,2.59
97.30,1.67,-0.89,1.69,-0.87,0.87,0.04,-1.05,2.55,2.56,2.56
98.28,1.71,-0.82,1.71,-0.83,0.83,0.02,-1.11,2.54,2.54,2.53
99.26,1.76,-0.75,1.75,-0.77,0.77,0.00,-1.17,2.53,2.51,2.51
100.25,1.80,-0.68,1.79,-0.69,0.69,-0.02,-1.22,2.50,2.48,2.48
101.25,1.84,-0.61,1.84,-0.61,0.61,-0.03,-1.28,2.46,2.45,2.45
102.27,1.89,-0.52,1.90,-0.52,0.52,-0.05,-1.34,2.41,2.42,2.41
103.29,1.93,-0.45,1.96,-0.42,0.42,-0.07,-1.40,2.35,2.38,2.38
104.32,1.98,-0.37,2.03,-0.32,0.32,-0.09,-1.45,2.30,2.34,2.35
105.37,2.06,-0.25,2.10,-0.20,0.20,-0.11,-1.51,2.27,2.30,2.31
106.42,2.15,-0.11,2.17,-0.09,0.09,-0.14,-1.56,2.24,2.26,2.26
107.48,2.24,0.01,2.24,0.02,-0.02,-0.16,-1.61,2.22,2.22,2.23
108.56,2.33,0.16,2.31,0.14,-0.14,-0.18,-1.66,2.19,2.17,2.17
109.64,2.42,0.30,2.37,0.26,-0.26,-0.21,-1.71,2.17,2.12,2.12
110.74,2.48,0.41,2.44,0.37,-0.37,-0.23,-1.76,2.11,2.06,2.07
111.85,2.54,0.52,2.50,0.49,-0.49,-0.26,-1.81,2.06,2.01,2.02
112.97,2.58,0.63,2.55,0.60,-0.60,-0.29,-1.85,1.99,1.95,1.95
114.10,2.61,0.71,2.60,0.70,-0.70,-0.32,-1.89,1.91,1.90,1.90
115.24,2.65,0.81,2.64,0.81,-0.81,-0.34,-1.92,1.84,1.84,1.84
116.39,2.67,0.90,2.68,0.91,-0.91,-0.38,-1.96,1.77,1.78,1.77
117.55,2.69,0.98,2.72,1.00,-1.00,-0.41,-1.99,1.70,1.72,1.71
118.73,2.72,1.07,2.75,1.09,-1.09,-0.44,-2.01,1.64,1.66,1.65
119.92,2.77,1.17,2.78,1.17,-1.17,-0.47,-2.03,1.60,1.60,1.60
121.12,2.80,1.26,2.80,1.26,-1.26,-0.51,-2.05,1.55,1.55,1.54
122.33,2.81,1.32,2.83,1.34,-1.34,-0.55,-2.06,1.47,1.49,1.49
123.55,2.83,1.39,2.86,1.42,-1.42,-0.59,-2.07,1.41,1.44,1.44
124.79,2.87,1.48,2.89,1.50,-1.50,-0.63,-2.08,1.37,1.39,1.39
126.03,2.91,1.57,2.91,1.58,-1.58,-0.67,-2.08,1.34,1.34,1.34
127.29,2.93,1.64,2.93,1.65,-1.65,-0.71,-2.07,1.28,1.29,1.29
128.57,2.96,1.73,2.95,1.72,-1.72,-0.76,-2.07,1.25,1.24,1.23
129.85,2.99,1.80,2.97,1.78,-1.78,-0.80,-2.05,1.22,1.19,1.19
131.15,3.01,1.87,2.98,1.83,-1.83,-0.85,-2.04,1.18,1.15,1.14
132.46,3.02,1.92,2.99,1.89,-1.89,-0.91,-2.01,1.14,1.10,1.10
133.79,3.02,1.96,2.99,1.94,-1.94,-0.96,-1.99,1.09,1.06,1.06
135.12,3.02,2.00,3.00,1.98,-1.98,-1.01,-1.96,1.04,1.02,1.02
136.48,3.01,2.03,3.00,2.03,-2.03,-1.07,-1.93,0.99,0.98,0.98
137.84,2.99,2.05,3.01,2.07,-2.07,-1.13,-1.89,0.92,0.94,0.94
139.22,2.98,2.09,3.01,2.11,-2.11,-1.19,-1.86,0.87,0.90,0.89
140.61,2.98,2.13,3.01,2.15,-2.15,-1.26,-1.82,0.83,0.86,0.85
142.02,2.99,2.16,3.02,2.19,-2.19,-1.32,-1.77,0.80,0.82,0.83
143.44,3.00,2.21,3.03,2.24,-2.24,-1.39,-1.73,0.76,0.79,0.79
144.87,3.03,2.28,3.05,2.30,-2.30,-1.46,-1.68,0.74,0.75,0.75
146.32,3.05,2.34,3.07,2.36,-2.36,-1.54,-1.63,0.70,0.71,0.71
147.78,3.08,2.40,3.10,2.42,-2.42,-1.62,-1.58,0.66,0.67,0.68
149.26,3.11,2.46,3.13,2.49,-2.49,-1.69,-1.53,0.62,0.63,0.65
150.75,3.15,2.56,3.16,2.57,-2.57,-1.78,-1.48,0.59,0.59,0.59
152.26,3.18,2.63,3.20,2.64,-2.64,-1.86,-1.43,0.54,0.55,0.55
153.78,3.22,2.70,3.23,2.72,-2.72,-1.94,-1.38,0.50,0.51,0.52
155.32,3.26,2.80,3.26,2.79,-2.79,-2.03,-1.32,0.47,0.47,0.46
156.88,3.30,2.87,3.29,2.86,-2.86,-2.12,-1.27,0.44,0.43,0.43
158.44,3.33,2.95,3.31,2.93,-2.93,-2.22,-1.22,0.41,0.38,0.38
160.03,3.35,3.02,3.32,2.99,-2.99,-2.31,-1.16,0.37,0.34,0.33
161.63,3.35,3.07,3.33,3.04,-3.04,-2.40,-1.11,0.32,0.29,0.28
163.24,3.35,3.11,3.32,3.08,-3.08,-2.50,-1.06,0.27,0.24,0.24
164.88,3.33,3.13,3.32,3.12,-3.12,-2.60,-1.00,0.21,0.20,0.20
166.53,3.31,3.16,3.30,3.15,-3.15,-2.69,-0.95,0.16,0.15,0.15
168.19,3.28,3.18,3.28,3.18,-3.18,-2.79,-0.90,0.11,0.10,0.10
169.87,3.23,3.18,3.24,3.19,-3.19,-2.88,-0.85,0.04,0.05,0.05
171.57,3.19,3.18,3.20,3.20,-3.20,-2.97,-0.80,-0.01,-0.00,0.01
173.29,3.15,3.20,3.16,3.21,-3.21,-3.06,-0.75,-0.06,-0.05,-0.05
175.02,3.09,3.19,3.11,3.21,-3.21,-3.15,-0.70,-0.12,-0.11,-0.10
176.77,3.04,3.20,3.05,3.21,-3.21,-3.23,-0.65,-0.17,-0.16,-0.16
178.54,2.99,3.20,3.00,3.21,-3.21,-3.31,-0.60,-0.22,-0.21,-0.21
180.32,2.94,3.21,2.94,3.20,-3.20,-3.38,-0.55,-0.26,-0.27,-0.27
182.13,2.88,3.20,2.87,3.20,-3.20,-3.44,-0.50,-0.31,-0.32,-0.32
183.95,2.79,3.17,2.81,3.19,-3.19,-3.49,-0.46,-0.39,-0.38,-0.38
185.79,2.72,3.15,2.74,3.17,-3.17,-3.53,-0.41,-0.45,-0.44,-0.43
187.65,2.65,3.15,2.66,3.15,-3.15,-3.56,-0.36,-0.50,-0.49,-0.50
189.52,2.59,3.14,2.59,3.13,-3.13,-3.58,-0.32,-0.54,-0.54,-0.55
191.42,2.51,3.11,2.51,3.10,-3.10,-3.58,-0.27,-0.59,-0.60,-0.60
193.33,2.42,3.07,2.42,3.07,-3.07,-3.57,-0.23,-0.65,-0.65,-0.65
195.27,2.33,3.03,2.33,3.03,-3.03,-3.54,-0.19,-0.70,-0.70,-0.70
197.22,2.23,2.99,2.23,2.99,-2.99,-3.49,-0.14,-0.75,-0.75,-0.76
199.19,2.14,2.95,2.13,2.93,-2.93,-3.43,-0.10,-0.79,-0.80,-0.81
201.18,2.03,2.89,2.02,2.88,-2.88,-3.35,-0.06,-0.84,-0.85,-0.86
203.19,1.92,2.81,1.92,2.82,-2.82,-3.25,-0.02,-0.89,-0.90,-0.89
205.23,1.80,2.75,1.81,2.75,-2.75,-3.14,0.03,-0.95,-0.94,-0.95
207.28,1.67,2.64,1.69,2.68,-2.68,-3.01,0.07,-1.01,-0.99,-0.97
209.35,1.55,2.58,1.56,2.60,-2.60,-2.86,0.11,-1.04,-1.03,-1.03
211.44,1.42,2.50,1.44,2.51,-2.51,-2.70,0.15,-1.09,-1.07,-1.08
213.56,1.29,2.41,1.30,2.41,-2.41,-2.53,0.19,-1.12,-1.11,-1.12
215.69,1.14,2.28,1.16,2.31,-2.31,-2.35,0.23,-1.17,-1.15,-1.14
217.85,0.99,2.17,1.01,2.20,-2.20,-2.15,0.27,-1.20,-1.18,-1.18
220.03,0.89,2.11,0.86,2.07,-2.07,-1.94,0.30,-1.18,-1.22,-1.22
222.23,0.74,1.99,0.70,1.94,-1.94,-1.73,0.34,-1.20,-1.25,-1.25
224.45,0.56,1.83,0.53,1.80,-1.80,-1.51,0.38,-1.24,-1.27,-1.27
226.70,0.36,1.66,0.35,1.65,-1.65,-1.28,0.41,-1.29,-1.30,-1.30
228.96,0.14,1.47,0.16,1.48,-1.48,-1.05,0.45,-1.34,-1.32,-1.33
231.25,-0.01,1.33,-0.03,1.31,-1.31,-0.82,0.49,-1.32,-1.34,-1.34
233.57,-0.22,1.14,-0.24,1.12,-1.12,-0.58,0.52,-1.34,-1.36,-1.36
235.90,-0.48,0.89,-0.45,0.92,-0.92,-0.35,0.56,-1.40,-1.37,-1.37
238.26,-0.66,0.72,-0.67,0.71,-0.71,-0.11,0.59,-1.37,-1.38,-1.38
240.64,-0.89,0.50,-0.89,0.49,-0.49,0.13,0.62,-1.38,-1.39,-1.39
243.05,-1.09,0.30,-1.13,0.27,-0.27,0.36,0.65,-1.35,-1.39,-1.39
245.48,-1.35,0.05,-1.36,0.03,-0.03,0.59,0.69,-1.38,-1.40,-1.40
247.93,-1.64,-0.24,-1.60,-0.20,0.20,0.82,0.72,-1.44,-1.40,-1.40
250.41,-1.84,-0.44,-1.84,-0.44,0.44,1.05,0.75,-1.40,-1.39,-1.40
252.92,-2.10,-0.71,-2.07,-0.68,0.68,1.27,0.78,-1.42,-1.39,-1.39
255.45,-2.31,-0.93,-2.31,-0.92,0.92,1.49,0.81,-1.39,-1.38,-1.38
258.00,-2.52,-1.15,-2.54,-1.16,1.16,1.70,0.84,-1.36,-1.38,-1.37
260.58,-2.79,-1.42,-2.76,-1.40,1.40,1.91,0.87,-1.39,-1.37,-1.37
263.19,-3.00,-1.64,-2.99,-1.63,1.63,2.11,0.90,-1.37,-1.36,-1.36
265.82,-3.25,-1.90,-3.21,-1.87,1.87,2.31,0.93,-1.38,-1.34,-1.35
268.48,-3.44,-2.11,-3.43,-2.09,2.09,2.50,0.96,-1.34,-1.33,-1.33
271.16,-3.61,-2.30,-3.64,-2.32,2.32,2.68,0.99,-1.29,-1.32,-1.31
273.87,-3.86,-2.55,-3.84,-2.54,2.54,2.86,1.01,-1.32,-1.30,-1.31
276.61,-4.05,-2.77,-4.04,-2.75,2.75,3.03,1.04,-1.30,-1.29,-1.28
279.38,-4.23,-2.95,-4.24,-2.96,2.96,3.20,1.07,-1.27,-1.28,-1.28
282.17,-4.41,-3.15,-4.44,-3.17,3.17,3.35,1.10,-1.24,-1.27,-1.26
284.99,-4.59,-3.34,-4.63,-3.38,3.38,3.50,1.13,-1.21,-1.25,-1.25
287.84,-4.82,-3.58,-4.81,-3.58,3.58,3.65,1.16,-1.24,-1.24,-1.24
290.72,-4.99,-3.76,-4.99,-3.77,3.77,3.78,1.19,-1.22,-1.22,-1.23
293.63,-5.16,-3.95,-5.17,-3.96,3.96,3.91,1.22,-1.20,-1.21,-1.21
296.57,-5.33,-4.14,-5.33,-4.14,4.14,4.03,1.26,-1.19,-1.20,-1.19
299.53,-5.49,-4.30,-5.50,-4.31,4.31,4.14,1.29,-1.18,-1.18,-1.19
302.53,-5.65,-4.47,-5.65,-4.47,4.47,4.24,1.32,-1.17,-1.17,-1.18
305.55,-5.80,-4.64,-5.78,-4.62,4.62,4.33,1.36,-1.17,-1.16,-1.16
308.61,-5.93,-4.78,-5.91,-4.76,4.76,4.42,1.39,-1.16,-1.15,-1.15
311.69,-6.07,-4.93,-6.03,-4.89,4.89,4.50,1.43,-1.18,-1.14,-1.14
314.81,-6.15,-5.04,-6.13,-5.00,5.00,4.57,1.47,-1.15,-1.13,-1.11
317.96,-6.23,-5.11,-6.22,-5.10,5.10,4.63,1.51,-1.13,-1.12,-1.12
321.14,-6.30,-5.19,-6.29,-5.18,5.18,4.69,1.55,-1.12,-1.11,-1.11
324.35,-6.36,-5.25,-6.35,-5.24,5.24,4.73,1.59,-1.12,-1.11,-1.11
327.59,-6.40,-5.30,-6.39,-5.29,5.29,4.77,1.63,-1.11,-1.10,-1.10
330.87,-6.43,-5.33,-6.42,-5.32,5.32,4.81,1.68,-1.11,-1.10,-1.10
334.18,-6.45,-5.35,-6.43,-5.34,5.34,4.83,1.72,-1.11,-1.09,-1.10
337.52,-6.44,-5.35,-6.44,-5.35,5.35,4.85,1.77,-1.09,-1.09,-1.09
340.90,-6.43,-5.34,-6.43,-5.34,5.34,4.86,1.82,-1.09,-1.09,-1.09
344.30,-6.41,-5.32,-6.41,-5.32,5.32,4.87,1.87,-1.08,-1.09,-1.09
347.75,-6.39,-5.30,-6.39,-5.29,5.29,4.87,1.92,-1.09,-1.09,-1.09
351.23,-6.34,-5.25,-6.35,-5.26,5.26,4.86,1.98,-1.08,-1.09,-1.09
354.74,-6.30,-5.21,-6.31,-5.21,5.21,4.85,2.03,-1.09,-1.10,-1.09
358.28,-6.26,-5.15,-6.26,-5.15,5.15,4.83,2.09,-1.10,-1.10,-1.11
361.87,-6.21,-5.10,-6.20,-5.09,5.09,4.81,2.15,-1.12,-1.11,-1.11
365.49,-6.14,-5.03,-6.14,-5.03,5.03,4.78,2.21,-1.11,-1.11,-1.11
369.14,-6.08,-4.96,-6.07,-4.95,4.95,4.74,2.27,-1.12,-1.12,-1.12
372.83,-6.02,-4.90,-6.00,-4.88,4.88,4.71,2.33,-1.14,-1.12,-1.12
376.56,-5.93,-4.80,-5.93,-4.80,4.80,4.67,2.40,-1.13,-1.13,-1.13
380.33,-5.85,-4.71,-5.86,-4.72,4.72,4.62,2.47,-1.13,-1.14,-1.14
384.13,-5.76,-4.61,-5.78,-4.63,4.63,4.57,2.53,-1.12,-1.15,-1.15
387.97,-5.69,-4.53,-5.70,-4.55,4.55,4.52,2.60,-1.14,-1.15,-1.16
391.85,-5.62,-4.45,-5.62,-4.46,4.46,4.47,2.67,-1.16,-1.16,-1.17
395.77,-5.54,-4.38,-5.54,-4.37,4.37,4.41,2.74,-1.16,-1.17,-1.16
399.73,-5.47,-4.30,-5.46,-4.29,4.29,4.35,2.81,-1.18,-1.17,-1.17
403.72,-5.39,-4.21,-5.38,-4.20,4.20,4.29,2.89,-1.19,-1.18,-1.18
407.76,-5.30,-4.11,-5.30,-4.12,4.12,4.23,2.96,-1.18,-1.19,-1.19
411.84,-5.22,-4.04,-5.22,-4.03,4.03,4.16,3.03,-1.18,-1.19,-1.18
415.96,-5.15,-3.95,-5.15,-3.95,3.95,4.10,3.10,-1.20,-1.20,-1.20
420.12,-5.07,-3.87,-5.07,-3.87,3.87,4.03,3.17,-1.20,-1.20,-1.20
424.32,-4.98,-3.78,-5.00,-3.79,3.79,3.96,3.24,-1.18,-1.20,-1.20
428.56,-4.92,-3.71,-4.92,-3.72,3.72,3.89,3.31,-1.20,-1.20,-1.21
432.85,-4.85,-3.64,-4.85,-3.64,3.64,3.82,3.38,-1.21,-1.20,-1.21
437.18,-4.77,-3.56,-4.77,-3.56,3.56,3.74,3.44,-1.20,-1.21,-1.21
441.55,-4.70,-3.50,-4.70,-3.49,3.49,3.67,3.50,-1.21,-1.21,-1.20
445.96,-4.64,-3.44,-4.62,-3.42,3.42,3.60,3.56,-1.22,-1.20,-1.20
450.42,-4.56,-3.35,-4.55,-3.35,3.35,3.52,3.62,-1.21,-1.20,-1.21
454.93,-4.49,-3.29,-4.48,-3.28,3.28,3.45,3.67,-1.21,-1.20,-1.20
459.48,-4.40,-3.20,-4.41,-3.21,3.21,3.37,3.71,-1.18,-1.20,-1.20
464.07,-4.33,-3.14,-4.34,-3.15,3.15,3.30,3.75,-1.18,-1.19,-1.19
468.71,-4.27,-3.09,-4.27,-3.08,3.08,3.22,3.79,-1.19,-1.19,-1.18
473.40,-4.19,-3.00,-4.20,-3.01,3.01,3.15,3.82,-1.18,-1.18,-1.19
478.13,-4.12,-2.94,-4.12,-2.94,2.94,3.07,3.84,-1.17,-1.18,-1.18
482.91,-4.06,-2.88,-4.05,-2.88,2.88,3.00,3.86,-1.18,-1.17,-1.18
487.74,-3.99,-2.82,-3.98,-2.81,2.81,2.92,3.87,-1.18,-1.17,-1.17
492.62,-3.92,-2.76,-3.91,-2.74,2.74,2.85,3.87,-1.18,-1.16,-1.16
497.55,-3.84,-2.68,-3.83,-2.67,2.67,2.77,3.86,-1.16,-1.16,-1.16
502.52,-3.75,-2.60,-3.76,-2.60,2.60,2.70,3.85,-1.14,-1.15,-1.15
507.55,-3.68,-2.53,-3.68,-2.53,2.53,2.63,3.83,-1.15,-1.15,-1.15
512.62,-3.61,-2.46,-3.61,-2.46,2.46,2.55,3.80,-1.15,-1.15,-1.15
517.75,-3.54,-2.40,-3.53,-2.39,2.39,2.48,3.77,-1.15,-1.14,-1.14
522.93,-3.46,-2.32,-3.45,-2.31,2.31,2.41,3.73,-1.15,-1.14,-1.14
