frequency,raw,error,smoothed,error_smoothed,equalization,parametric_eq,fixed_band_eq,equalized_raw,equalized_smoothed,target
20.00,3.75,-4.49,3.74,-4.50,4.50,4.57,1.14,8.25,8.24,8.24
20.20,3.75,-4.49,3.74,-4.50,4.50,4.57,1.18,8.24,8.24,8.24
20.40,3.76,-4.48,3.75,-4.49,4.49,4.58,1.21,8.24,8.24,8.24
20.61,3.77,-4.47,3.76,-4.47,4.47,4.57,1.25,8.24,8.24,8.24
20.81,3.78,-4.45,3.78,-4.46,4.46,4.57,1.29,8.23,8.24,8.23
21.02,3.80,-4.43,3.80,-4.44,4.44,4.56,1.33,8.23,8.23,8.23
21.23,3.81,-4.42,3.82,-4.41,4.41,4.55,1.36,8.22,8.23,8.23
21.44,3.83,-4.41,3.84,-4.39,4.39,4.53,1.41,8.22,8.23,8.24
21.66,3.86,-4.37,3.86,-4.36,4.36,4.51,1.45,8.22,8.22,8.23
21.87,3.89,-4.34,3.89,-4.33,4.33,4.49,1.49,8.21,8.22,8.23
22.09,3.93,-4.29,3.92,-4.29,4.29,4.46,1.54,8.22,8.22,8.22
22.31,3.96,-4.26,3.96,-4.25,4.25,4.43,1.58,8.21,8.21,8.22
22.54,4.00,-4.21,4.00,-4.21,4.21,4.39,1.63,8.21,8.21,8.21
22.76,4.04,-4.17,4.04,-4.17,4.17,4.36,1.68,8.20,8.20,8.21
22.99,4.09,-4.11,4.08,-4.12,4.12,4.32,1.73,8.20,8.20,8.20
23.22,4.14,-4.05,4.13,-4.06,4.06,4.28,1.78,8.20,8.19,8.19
23.45,4.19,-4.00,4.18,-4.01,4.01,4.23,1.83,8.19,8.19,8.19
23.69,4.24,-3.94,4.23,-3.95,3.95,4.18,1.88,8.18,8.18,8.18
23.92,4.29,-3.88,4.29,-3.89,3.89,4.13,1.93,8.18,8.18,8.17
24.16,4.35,-3.82,4.34,-3.83,3.83,4.08,1.99,8.18,8.17,8.17
24.40,4.40,-3.77,4.40,-3.77,3.77,4.03,2.04,8.16,8.17,8.17
24.65,4.46,-3.71,4.46,-3.70,3.70,3.97,2.10,8.16,8.17,8.17
24.89,4.52,-3.65,4.52,-3.64,3.64,3.92,2.15,8.15,8.16,8.17
25.14,4.59,-3.57,4.59,-3.57,3.57,3.86,2.21,8.16,8.16,8.16
25.39,4.65,-3.50,4.65,-3.51,3.51,3.80,2.27,8.15,8.16,8.15
25.65,4.72,-3.43,4.72,-3.44,3.44,3.74,2.32,8.16,8.16,8.15
25.91,4.78,-3.36,4.78,-3.37,3.37,3.68,2.38,8.16,8.16,8.15
26.16,4.86,-3.30,4.85,-3.30,3.30,3.62,2.44,8.16,8.16,8.16
26.43,4.92,-3.24,4.92,-3.24,3.24,3.56,2.49,8.15,8.15,8.16
26.69,4.99,-3.17,4.99,-3.17,3.17,3.50,2.55,8.15,8.15,8.16
26.96,5.06,-3.09,5.05,-3.10,3.10,3.44,2.60,8.15,8.15,8.15
27.23,5.13,-3.02,5.12,-3.03,3.03,3.38,2.65,8.16,8.15,8.15
27.50,5.19,-2.96,5.19,-2.96,2.96,3.31,2.70,8.15,8.15,8.15
27.77,5.25,-2.91,5.25,-2.90,2.90,3.25,2.75,8.14,8.15,8.16
28.05,5.32,-2.83,5.31,-2.83,2.83,3.19,2.80,8.15,8.14,8.15
28.33,5.38,-2.76,5.38,-2.76,2.76,3.13,2.84,8.14,8.14,8.14
28.62,5.44,-2.69,5.44,-2.70,2.70,3.07,2.88,8.14,8.14,8.13
28.90,5.50,-2.64,5.49,-2.64,2.64,3.01,2.92,8.13,8.13,8.14
29.19,5.56,-2.57,5.55,-2.58,2.58,2.95,2.95,8.13,8.12,8.13
29.48,5.61,-2.51,5.60,-2.52,2.52,2.89,2.98,8.12,8.12,8.12
29.78,5.66,-2.45,5.66,-2.46,2.46,2.84,3.01,8.11,8.11,8.11
30.08,5.71,-2.40,5.71,-2.40,2.40,2.78,3.03,8.11,8.11,8.11
30.38,5.76,-2.34,5.75,-2.35,2.35,2.72,3.04,8.11,8.10,8.10
30.68,5.80,-2.29,5.80,-2.30,2.30,2.67,3.06,8.10,8.10,8.09
30.99,5.85,-2.24,5.84,-2.25,2.25,2.61,3.06,8.10,8.10,8.09
31.30,5.89,-2.20,5.89,-2.21,2.21,2.56,3.07,8.09,8.09,8.09
31.61,5.93,-2.16,5.93,-2.16,2.16,2.51,3.07,8.09,8.09,8.09
31.93,5.97,-2.11,5.97,-2.12,2.12,2.45,3.06,8.09,8.09,8.08
32.24,6.01,-2.08,6.00,-2.08,2.08,2.40,3.05,8.09,8.08,8.09
32.57,6.04,-2.04,6.04,-2.04,2.04,2.35,3.03,8.08,8.08,8.08
32.89,6.08,-2.00,6.07,-2.00,2.00,2.31,3.01,8.08,8.08,8.08
33.22,6.11,-1.97,6.11,-1.97,1.97,2.26,2.99,8.07,8.07,8.08
33.55,6.13,-1.94,6.14,-1.93,1.93,2.21,2.96,8.05,8.07,8.07
33.89,6.17,-1.89,6.17,-1.89,1.89,2.16,2.93,8.06,8.06,8.06
34.23,6.20,-1.84,6.19,-1.85,1.85,2.12,2.89,8.05,8.05,8.04
34.57,6.23,-1.81,6.22,-1.81,1.81,2.08,2.85,8.04,8.03,8.04
34.92,6.25,-1.77,6.24,-1.77,1.77,2.03,2.81,8.02,8.02,8.02
35.27,6.27,-1.74,6.27,-1.73,1.73,1.99,2.77,7.99,8.00,8.01
35.62,6.30,-1.68,6.29,-1.69,1.69,1.95,2.72,7.98,7.98,7.98
35.97,6.31,-1.65,6.31,-1.64,1.64,1.91,2.68,7.95,7.95,7.96
36.33,6.33,-1.60,6.33,-1.60,1.60,1.87,2.63,7.93,7.93,7.93
36.70,6.34,-1.56,6.34,-1.56,1.56,1.83,2.58,7.89,7.90,7.90
37.06,6.36,-1.51,6.36,-1.51,1.51,1.80,2.53,7.87,7.87,7.87
37.43,6.37,-1.47,6.37,-1.47,1.47,1.76,2.48,7.84,7.84,7.84
37.81,6.38,-1.43,6.38,-1.43,1.43,1.72,2.42,7.81,7.81,7.81
38.19,6.39,-1.38,6.38,-1.39,1.39,1.69,2.37,7.78,7.78,7.77
38.57,6.40,-1.35,6.39,-1.36,1.36,1.66,2.32,7.75,7.75,7.75
38.95,6.40,-1.32,6.39,-1.32,1.32,1.62,2.27,7.72,7.72,7.72
39.34,6.40,-1.28,6.40,-1.29,1.29,1.59,2.22,7.69,7.69,7.68
39.74,6.40,-1.25,6.40,-1.26,1.26,1.56,2.17,7.66,7.66,7.65
40.14,6.40,-1.23,6.39,-1.24,1.24,1.53,2.12,7.63,7.63,7.63
40.54,6.39,-1.22,6.39,-1.21,1.21,1.50,2.07,7.60,7.60,7.61
40.94,6.39,-1.19,6.39,-1.19,1.19,1.47,2.02,7.58,7.58,7.58
41.35,6.38,-1.17,6.38,-1.18,1.18,1.45,1.97,7.55,7.55,7.55
41.76,6.37,-1.15,6.37,-1.16,1.16,1.42,1.93,7.53,7.53,7.52
42.18,6.36,-1.15,6.36,-1.15,1.15,1.39,1.88,7.50,7.50,7.51
42.60,6.34,-1.14,6.34,-1.14,1.14,1.37,1.84,7.47,7.48,7.48
43.03,6.34,-1.11,6.33,-1.13,1.13,1.35,1.80,7.46,7.46,7.45
43.46,6.32,-1.11,6.31,-1.12,1.12,1.32,1.75,7.43,7.43,7.43
43.90,6.30,-1.11,6.29,-1.11,1.11,1.30,1.71,7.41,7.41,7.41
44.33,6.28,-1.09,6.28,-1.10,1.10,1.28,1.68,7.38,7.38,7.37
44.78,6.25,-1.10,6.25,-1.10,1.10,1.26,1.64,7.34,7.35,7.35
45.23,6.23,-1.11,6.23,-1.09,1.09,1.24,1.60,7.32,7.32,7.34
45.68,6.21,-1.09,6.21,-1.08,1.08,1.22,1.57,7.29,7.29,7.30
46.13,6.19,-1.06,6.18,-1.08,1.08,1.20,1.54,7.26,7.26,7.25
46.60,6.16,-1.07,6.16,-1.07,1.07,1.18,1.50,7.22,7.22,7.23
47.06,6.14,-1.05,6.13,-1.06,1.06,1.16,1.47,7.19,7.18,7.19
47.53,6.10,-1.06,6.10,-1.05,1.05,1.15,1.44,7.14,7.14,7.16
48.01,6.07,-1.03,6.07,-1.04,1.04,1.13,1.42,7.10,7.10,7.10
48.49,6.04,-1.03,6.03,-1.03,1.03,1.12,1.39,7.06,7.06,7.07
48.97,6.00,-1.02,6.00,-1.02,1.02,1.10,1.36,7.01,7.02,7.02
49.46,5.97,-1.01,5.96,-1.01,1.01,1.09,1.34,6.97,6.97,6.98
49.96,5.93,-0.98,5.93,-1.00,1.00,1.08,1.32,6.92,6.93,6.91
50.46,5.89,-0.98,5.89,-0.99,0.99,1.07,1.29,6.88,6.88,6.87
50.96,5.85,-0.97,5.85,-0.98,0.98,1.05,1.27,6.83,6.83,6.82
51.47,5.81,-0.97,5.81,-0.98,0.98,1.04,1.25,6.78,6.79,6.78
51.99,5.77,-0.96,5.77,-0.97,0.97,1.03,1.23,6.74,6.74,6.73
52.51,5.73,-0.96,5.72,-0.97,0.97,1.03,1.21,6.70,6.69,6.69
53.03,5.68,-0.98,5.68,-0.97,0.97,1.02,1.20,6.64,6.64,6.66
53.56,5.63,-0.98,5.63,-0.97,0.97,1.01,1.18,6.59,6.60,6.61
54.10,5.59,-0.96,5.58,-0.97,0.97,1.00,1.16,6.56,6.55,6.55
54.64,5.53,-0.98,5.53,-0.98,0.98,1.00,1.15,6.50,6.51,6.51
55.18,5.49,-0.96,5.48,-0.98,0.98,0.99,1.13,6.47,6.46,6.45
55.74,5.43,-0.98,5.43,-1.00,1.00,0.99,1.12,6.42,6.42,6.41
56.29,5.38,-0.99,5.37,-1.01,1.01,0.98,1.11,6.38,6.38,6.37
56.86,5.32,-1.01,5.32,-1.02,1.02,0.98,1.09,6.33,6.33,6.33
57.42,5.26,-1.01,5.26,-1.03,1.03,0.98,1.08,6.28,6.29,6.27
58.00,5.21,-1.02,5.20,-1.03,1.03,0.98,1.07,6.24,6.24,6.23
58.58,5.15,-1.05,5.15,-1.04,1.04,0.98,1.06,6.19,6.19,6.20
59.16,5.09,-1.07,5.09,-1.05,1.05,0.98,1.05,6.13,6.14,6.16
59.76,5.03,-1.09,5.03,-1.05,1.05,0.98,1.04,6.08,6.09,6.12
60.35,4.97,-1.08,4.97,-1.06,1.06,0.98,1.03,6.03,6.03,6.05
60.96,4.92,-1.08,4.91,-1.07,1.07,0.99,1.02,5.98,5.98,6.00
61.57,4.85,-1.07,4.85,-1.07,1.07,0.99,1.01,5.92,5.92,5.92
62.18,4.79,-1.07,4.79,-1.08,1.08,1.00,1.00,5.86,5.87,5.86
62.80,4.74,-1.06,4.73,-1.08,1.08,1.00,0.99,5.82,5.81,5.80
63.43,4.67,-1.06,4.67,-1.09,1.09,1.01,0.98,5.75,5.75,5.73
64.07,4.61,-1.07,4.60,-1.09,1.09,1.02,0.97,5.70,5.70,5.68
64.71,4.55,-1.08,4.54,-1.10,1.10,1.03,0.96,5.65,5.64,5.63
65.35,4.48,-1.10,4.47,-1.11,1.11,1.04,0.95,5.58,5.58,5.58
66.01,4.41,-1.11,4.41,-1.11,1.11,1.05,0.95,5.52,5.52,5.52
66.67,4.35,-1.13,4.34,-1.12,1.12,1.06,0.94,5.47,5.47,5.48
67.33,4.27,-1.14,4.27,-1.14,1.14,1.08,0.93,5.40,5.41,5.41
68.01,4.21,-1.15,4.21,-1.15,1.15,1.09,0.92,5.35,5.35,5.36
68.69,4.14,-1.16,4.14,-1.16,1.16,1.11,0.92,5.30,5.30,5.30
69.37,4.07,-1.18,4.07,-1.18,1.18,1.13,0.91,5.24,5.24,5.25
70.07,4.00,-1.20,4.00,-1.19,1.19,1.14,0.90,5.19,5.19,5.20
70.77,3.93,-1.21,3.93,-1.20,1.20,1.16,0.90,5.13,5.13,5.14
71.48,3.87,-1.21,3.86,-1.22,1.22,1.19,0.89,5.08,5.07,5.08
72.19,3.79,-1.22,3.79,-1.23,1.23,1.21,0.89,5.02,5.01,5.01
72.91,3.72,-1.24,3.71,-1.24,1.24,1.23,0.88,4.96,4.96,4.96
73.64,3.65,-1.24,3.64,-1.26,1.26,1.26,0.88,4.90,4.90,4.89
74.38,3.57,-1.26,3.57,-1.27,1.27,1.28,0.88,4.84,4.84,4.83
75.12,3.50,-1.28,3.50,-1.29,1.29,1.31,0.87,4.78,4.79,4.78
75.87,3.43,-1.31,3.43,-1.31,1.31,1.33,0.87,4.73,4.73,4.74
76.63,3.36,-1.32,3.36,-1.32,1.32,1.36,0.87,4.68,4.68,4.68
77.40,3.29,-1.33,3.28,-1.34,1.34,1.39,0.87,4.63,4.62,4.62
78.17,3.22,-1.34,3.21,-1.36,1.36,1.42,0.87,4.57,4.57,4.56
78.95,3.14,-1.39,3.14,-1.38,1.38,1.45,0.87,4.51,4.52,4.53
79.74,3.07,-1.40,3.07,-1.40,1.40,1.48,0.87,4.46,4.47,4.47
80.54,3.00,-1.41,3.00,-1.42,1.42,1.51,0.88,4.42,4.42,4.41
81.35,2.93,-1.44,2.92,-1.44,1.44,1.54,0.88,4.37,4.36,4.37
82.16,2.86,-1.46,2.85,-1.46,1.46,1.57,0.88,4.31,4.31,4.32
82.98,2.78,-1.48,2.78,-1.48,1.48,1.60,0.89,4.25,4.26,4.26
83.81,2.72,-1.49,2.71,-1.49,1.49,1.63,0.89,4.21,4.21,4.21
84.65,2.65,-1.50,2.65,-1.51,1.51,1.66,0.90,4.16,4.15,4.15
85.50,2.58,-1.52,2.58,-1.53,1.53,1.68,0.91,4.10,4.10,4.10
86.35,2.52,-1.53,2.51,-1.54,1.54,1.71,0.91,4.06,4.05,4.05
87.22,2.44,-1.56,2.44,-1.55,1.55,1.73,0.92,3.99,4.00,4.00
88.09,2.38,-1.56,2.38,-1.57,1.57,1.75,0.93,3.94,3.94,3.94
88.97,2.31,-1.58,2.31,-1.58,1.58,1.76,0.94,3.88,3.89,3.89
89.86,2.26,-1.57,2.25,-1.59,1.59,1.78,0.95,3.84,3.83,3.83
90.76,2.19,-1.58,2.18,-1.59,1.59,1.79,0.97,3.78,3.77,3.77
91.66,2.12,-1.60,2.12,-1.59,1.59,1.79,0.98,3.71,3.71,3.72
92.58,2.06,-1.60,2.06,-1.60,1.60,1.79,0.99,3.65,3.65,3.66
93.51,2.00,-1.60,2.00,-1.59,1.59,1.79,1.00,3.59,3.59,3.60
94.44,1.94,-1.60,1.94,-1.59,1.59,1.79,1.02,3.53,3.53,3.54
95.39,1.88,-1.59,1.88,-1.58,1.58,1.77,1.03,3.46,3.46,3.47
96.34,1.82,-1.58,1.82,-1.58,1.58,1.76,1.05,3.39,3.40,3.40
97.30,1.76,-1.58,1.76,-1.57,1.57,1.74,1.07,3.32,3.33,3.34
98.28,1.71,-1.54,1.70,-1.56,1.56,1.71,1.08,3.26,3.26,3.25
99.26,1.65,-1.53,1.65,-1.55,1.55,1.69,1.10,3.19,3.20,3.18
100.25,1.61,-1.51,1.59,-1.54,1.54,1.65,1.11,3.14,3.13,3.12
101.25,1.55,-1.51,1.54,-1.52,1.52,1.62,1.13,3.07,3.07,3.06
102.27,1.49,-1.51,1.49,-1.51,1.51,1.58,1.15,3.00,3.00,3.00
103.29,1.45,-1.48,1.44,-1.50,1.50,1.54,1.16,2.94,2.94,2.93
104.32,1.40,-1.48,1.40,-1.48,1.48,1.49,1.18,2.88,2.88,2.88
105.37,1.35,-1.47,1.35,-1.47,1.47,1.45,1.19,2.81,2.82,2.82
106.42,1.31,-1.45,1.31,-1.45,1.45,1.40,1.21,2.76,2.76,2.76
107.48,1.27,-1.42,1.26,-1.44,1.44,1.34,1.22,2.70,2.70,2.69
108.56,1.22,-1.42,1.22,-1.42,1.42,1.29,1.24,2.63,2.64,2.64
109.64,1.18,-1.41,1.18,-1.40,1.40,1.24,1.25,2.57,2.58,2.59
110.74,1.15,-1.37,1.15,-1.37,1.37,1.18,1.26,2.52,2.52,2.52
111.85,1.12,-1.34,1.11,-1.34,1.34,1.13,1.26,2.46,2.45,2.46
112.97,1.08,-1.32,1.08,-1.31,1.31,1.07,1.27,2.39,2.39,2.40
114.10,1.05,-1.29,1.05,-1.28,1.28,1.01,1.27,2.33,2.33,2.34
115.24,1.02,-1.25,1.02,-1.25,1.25,0.96,1.27,2.26,2.26,2.27
116.39,0.99,-1.20,0.99,-1.21,1.21,0.90,1.27,2.19,2.20,2.19
117.55,0.97,-1.16,0.96,-1.17,1.17,0.84,1.27,2.13,2.13,2.13
118.73,0.94,-1.11,0.94,-1.12,1.12,0.79,1.26,2.06,2.06,2.05
119.92,0.92,-1.06,0.91,-1.07,1.07,0.73,1.25,1.99,1.99,1.98
121.12,0.89,-1.03,0.89,-1.02,1.02,0.68,1.24,1.91,1.92,1.92
122.33,0.88,-0.96,0.87,-0.97,0.97,0.62,1.22,1.85,1.84,1.84
123.55,0.86,-0.92,0.85,-0.92,0.92,0.57,1.20,1.77,1.77,1.78
124.79,0.84,-0.87,0.84,-0.86,0.86,0.52,1.17,1.70,1.70,1.71
126.03,0.82,-0.82,0.82,-0.80,0.80,0.46,1.15,1.62,1.62,1.64
127.29,0.81,-0.74,0.81,-0.74,0.74,0.41,1.12,1.55,1.55,1.55
128.57,0.80,-0.68,0.80,-0.68,0.68,0.36,1.08,1.48,1.48,1.48
129.85,0.79,-0.61,0.79,-0.62,0.62,0.31,1.04,1.41,1.41,1.40
131.15,0.79,-0.54,0.78,-0.56,0.56,0.26,1.00,1.35,1.34,1.33
132.46,0.77,-0.49,0.77,-0.50,0.50,0.21,0.95,1.27,1.27,1.26
133.79,0.77,-0.43,0.77,-0.44,0.44,0.16,0.90,1.21,1.21,1.20
135.12,0.77,-0.36,0.77,-0.38,0.38,0.12,0.85,1.14,1.14,1.13
136.48,0.77,-0.32,0.77,-0.32,0.32,0.07,0.79,1.08,1.08,1.09
137.84,0.77,-0.26,0.77,-0.26,0.26,0.02,0.74,1.02,1.02,1.03
139.22,0.78,-0.18,0.77,-0.20,0.20,-0.02,0.67,0.98,0.97,0.96
140.61,0.77,-0.15,0.77,-0.14,0.14,-0.07,0.61,0.91,0.92,0.92
142.02,0.78,-0.09,0.78,-0.09,0.09,-0.11,0.54,0.86,0.86,0.87
143.44,0.79,-0.02,0.78,-0.03,0.03,-0.16,0.47,0.82,0.81,0.81
144.87,0.79,0.02,0.79,0.02,-0.02,-0.20,0.40,0.76,0.77,0.77
146.32,0.80,0.08,0.80,0.08,-0.08,-0.25,0.33,0.72,0.72,0.72
147.78,0.82,0.15,0.81,0.14,-0.14,-0.29,0.25,0.68,0.67,0.67
149.26,0.83,0.20,0.82,0.19,-0.19,-0.33,0.18,0.63,0.62,0.63
150.75,0.83,0.26,0.83,0.25,-0.25,-0.38,0.10,0.57,0.58,0.57
152.26,0.85,0.31,0.84,0.32,-0.32,-0.42,0.02,0.53,0.53,0.54
153.78,0.86,0.38,0.86,0.38,-0.38,-0.46,-0.06,0.48,0.48,0.48
155.32,0.88,0.44,0.88,0.44,-0.44,-0.51,-0.15,0.43,0.43,0.44
156.88,0.89,0.50,0.90,0.51,-0.51,-0.55,-0.23,0.37,0.38,0.39
158.44,0.92,0.58,0.91,0.58,-0.58,-0.59,-0.32,0.34,0.33,0.34
160.03,0.94,0.65,0.94,0.65,-0.65,-0.64,-0.40,0.28,0.28,0.29
161.63,0.96,0.72,0.96,0.73,-0.73,-0.68,-0.49,0.23,0.23,0.24
163.24,0.99,0.82,0.98,0.80,-0.80,-0.72,-0.58,0.18,0.18,0.17
164.88,1.01,0.88,1.01,0.88,-0.88,-0.77,-0.67,0.12,0.13,0.13
166.53,1.05,0.98,1.04,0.96,-0.96,-0.81,-0.76,0.08,0.08,0.07
168.19,1.07,1.04,1.07,1.05,-1.05,-0.86,-0.85,0.02,0.02,0.03
169.87,1.10,1.12,1.10,1.13,-1.13,-0.90,-0.95,-0.03,-0.03,-0.02
171.57,1.13,1.22,1.13,1.21,-1.21,-0.95,-1.04,-0.09,-0.08,-0.09
173.29,1.17,1.31,1.16,1.30,-1.30,-1.00,-1.14,-0.13,-0.13,-0.14
175.02,1.20,1.38,1.20,1.38,-1.38,-1.04,-1.23,-0.18,-0.18,-0.18
176.77,1.24,1.47,1.23,1.46,-1.46,-1.09,-1.33,-0.22,-0.23,-0.23
178.54,1.27,1.55,1.26,1.54,-1.54,-1.14,-1.43,-0.28,-0.28,-0.28
180.32,1.31,1.65,1.29,1.63,-1.63,-1.19,-1.53,-0.32,-0.33,-0.34
182.13,1.33,1.71,1.33,1.71,-1.71,-1.24,-1.63,-0.38,-0.38,-0.38
183.95,1.36,1.78,1.36,1.79,-1.79,-1.29,-1.73,-0.44,-0.43,-0.42
185.79,1.40,1.88,1.39,1.88,-1.88,-1.34,-1.83,-0.48,-0.48,-0.48
187.65,1.43,1.95,1.43,1.96,-1.96,-1.39,-1.94,-0.53,-0.53,-0.52
189.52,1.46,2.03,1.46,2.04,-2.04,-1.44,-2.04,-0.58,-0.58,-0.57
191.42,1.49,2.11,1.49,2.11,-2.11,-1.49,-2.14,-0.63,-0.62,-0.62
193.33,1.53,2.20,1.52,2.19,-2.19,-1.55,-2.25,-0.67,-0.67,-0.67
195.27,1.56,2.28,1.56,2.27,-2.27,-1.60,-2.36,-0.71,-0.71,-0.72
197.22,1.60,2.37,1.59,2.34,-2.34,-1.66,-2.46,-0.75,-0.76,-0.77
199.19,1.62,2.42,1.62,2.42,-2.42,-1.72,-2.57,-0.80,-0.80,-0.80
201.18,1.66,2.51,1.65,2.49,-2.49,-1.77,-2.68,-0.83,-0.84,-0.85
203.19,1.69,2.57,1.68,2.56,-2.56,-1.83,-2.78,-0.88,-0.88,-0.88
205.23,1.71,2.63,1.71,2.63,-2.63,-1.89,-2.89,-0.93,-0.92,-0.92
207.28,1.75,2.70,1.74,2.70,-2.70,-1.95,-3.00,-0.96,-0.96,-0.95
209.35,1.77,2.76,1.77,2.77,-2.77,-2.01,-3.10,-1.01,-1.00,-0.99
211.44,1.81,2.84,1.81,2.84,-2.84,-2.08,-3.20,-1.03,-1.03,-1.03
213.56,1.84,2.91,1.84,2.90,-2.90,-2.14,-3.31,-1.07,-1.07,-1.07
215.69,1.87,2.97,1.87,2.97,-2.97,-2.21,-3.41,-1.10,-1.10,-1.10
217.85,1.90,3.03,1.90,3.03,-3.03,-2.27,-3.51,-1.14,-1.13,-1.13
220.03,1.94,3.11,1.94,3.10,-3.10,-2.34,-3.60,-1.16,-1.16,-1.17
222.23,1.97,3.16,1.97,3.16,-3.16,-2.41,-3.69,-1.20,-1.19,-1.19
224.45,2.01,3.23,2.00,3.23,-3.23,-2.48,-3.78,-1.22,-1.22,-1.22
226.70,2.04,3.29,2.04,3.29,-3.29,-2.55,-3.87,-1.25,-1.25,-1.25
228.96,2.08,3.35,2.07,3.35,-3.35,-2.62,-3.95,-1.27,-1.28,-1.27
231.25,2.12,3.41,2.11,3.41,-3.41,-2.69,-4.02,-1.29,-1.30,-1.29
233.57,2.14,3.46,2.14,3.46,-3.46,-2.76,-4.09,-1.33,-1.32,-1.32
235.90,2.18,3.53,2.17,3.52,-3.52,-2.83,-4.15,-1.34,-1.35,-1.35
238.26,2.21,3.59,2.20,3.57,-3.57,-2.91,-4.21,-1.36,-1.37,-1.38
240.64,2.24,3.62,2.23,3.62,-3.62,-2.98,-4.26,-1.38,-1.39,-1.38
243.05,2.27,3.67,2.26,3.67,-3.67,-3.06,-4.30,-1.40,-1.40,-1.40
245.48,2.30,3.73,2.29,3.71,-3.71,-3.13,-4.34,-1.42,-1.42,-1.43
247.93,2.32,3.77,2.32,3.76,-3.76,-3.21,-4.37,-1.44,-1.44,-1.45
250.41,2.35,3.80,2.34,3.80,-3.80,-3.28,-4.39,-1.45,-1.45,-1.45
252.92,2.37,3.83,2.37,3.84,-3.84,-3.36,-4.41,-1.47,-1.47,-1.46
255.45,2.39,3.87,2.39,3.88,-3.88,-3.43,-4.42,-1.49,-1.48,-1.48
258.00,2.42,3.91,2.42,3.91,-3.91,-3.51,-4.42,-1.50,-1.50,-1.49
260.58,2.44,3.94,2.44,3.95,-3.95,-3.58,-4.41,-1.51,-1.51,-1.50
263.19,2.46,3.98,2.46,3.98,-3.98,-3.66,-4.40,-1.52,-1.52,-1.52
265.82,2.49,4.02,2.48,4.01,-4.01,-3.73,-4.38,-1.53,-1.54,-1.53
268.48,2.50,4.04,2.50,4.05,-4.05,-3.80,-4.35,-1.55,-1.55,-1.54
271.16,2.52,4.08,2.51,4.07,-4.07,-3.87,-4.32,-1.56,-1.56,-1.56
273.87,2.53,4.10,2.53,4.10,-4.10,-3.94,-4.29,-1.58,-1.57,-1.57
276.61,2.55,4.14,2.54,4.13,-4.13,-4.01,-4.25,-1.58,-1.59,-1.59
279.38,2.56,4.17,2.56,4.15,-4.15,-4.07,-4.20,-1.60,-1.60,-1.61
282.17,2.57,4.19,2.57,4.18,-4.18,-4.13,-4.15,-1.61,-1.61,-1.62
284.99,2.58,4.19,2.58,4.20,-4.20,-4.19,-4.10,-1.62,-1.62,-1.61
287.84,2.58,4.20,2.58,4.21,-4.21,-4.24,-4.05,-1.64,-1.63,-1.62
290.72,2.60,4.25,2.59,4.23,-4.23,-4.30,-4.00,-1.63,-1.64,-1.65
293.63,2.60,4.24,2.59,4.24,-4.24,-4.34,-3.94,-1.64,-1.65,-1.64
296.57,2.60,4.25,2.59,4.25,-4.25,-4.39,-3.88,-1.65,-1.65,-1.65
299.53,2.60,4.26,2.59,4.25,-4.25,-4.43,-3.83,-1.65,-1.66,-1.66
302.53,2.59,4.25,2.59,4.25,-4.25,-4.46,-3.77,-1.67,-1.66,-1.66
305.55,2.59,4.26,2.58,4.25,-4.25,-4.49,-3.71,-1.67,-1.67,-1.67
308.61,2.57,4.24,2.57,4.25,-4.25,-4.52,-3.65,-1.68,-1.67,-1.67
311.69,2.57,4.25,2.56,4.24,-4.24,-4.54,-3.60,-1.68,-1.68,-1.68
314.81,2.56,4.24,2.55,4.23,-4.23,-4.55,-3.54,-1.68,-1.68,-1.68
317.96,2.54,4.23,2.54,4.22,-4.22,-4.56,-3.49,-1.69,-1.69,-1.69
321.14,2.53,4.21,2.52,4.21,-4.21,-4.56,-3.43,-1.68,-1.69,-1.68
324.35,2.50,4.20,2.50,4.19,-4.19,-4.56,-3.38,-1.69,-1.69,-1.70
327.59,2.48,4.16,2.48,4.17,-4.17,-4.55,-3.33,-1.69,-1.69,-1.68
330.87,2.46,4.15,2.46,4.15,-4.15,-4.54,-3.28,-1.69,-1.69,-1.69
334.18,2.44,4.14,2.43,4.13,-4.13,-4.52,-3.24,-1.69,-1.69,-1.70
337.52,2.41,4.10,2.41,4.10,-4.10,-4.50,-3.19,-1.70,-1.69,-1.69
340.90,2.39,4.09,2.38,4.07,-4.07,-4.47,-3.15,-1.69,-1.69,-1.70
344.30,2.35,4.04,2.35,4.05,-4.05,-4.44,-3.11,-1.70,-1.69,-1.69
347.75,2.33,4.01,2.32,4.02,-4.02,-4.40,-3.08,-1.69,-1.69,-1.68
351.23,2.30,4.00,2.29,3.99,-3.99,-4.36,-3.04,-1.69,-1.69,-1.70
354.74,2.27,3.95,2.26,3.95,-3.95,-4.31,-3.01,-1.69,-1.69,-1.68
358.28,2.23,3.92,2.23,3.92,-3.92,-4.26,-2.98,-1.69,-1.69,-1.69
361.87,2.21,3.90,2.20,3.89,-3.89,-4.21,-2.96,-1.68,-1.69,-1.69
365.49,2.17,3.86,2.17,3.85,-3.85,-4.15,-2.93,-1.69,-1.69,-1.69
369.14,2.13,3.81,2.13,3.82,-3.82,-4.10,-2.91,-1.69,-1.69,-1.68
372.83,2.10,3.78,2.10,3.78,-3.78,-4.03,-2.89,-1.69,-1.69,-1.68
376.56,2.06,3.75,2.06,3.75,-3.75,-3.97,-2.87,-1.69,-1.69,-1.69
380.33,2.03,3.72,2.02,3.71,-3.71,-3.90,-2.86,-1.68,-1.69,-1.69
384.13,1.99,3.68,1.99,3.67,-3.67,-3.83,-2.84,-1.69,-1.69,-1.69
387.97,1.95,3.63,1.95,3.63,-3.63,-3.76,-2.83,-1.69,-1.69,-1.68
391.85,1.91,3.60,1.91,3.59,-3.59,-3.69,-2.82,-1.69,-1.69,-1.69
395.77,1.87,3.56,1.87,3.56,-3.56,-3.62,-2.81,-1.69,-1.69,-1.69
399.73,1.84,3.53,1.83,3.51,-3.51,-3.54,-2.81,-1.68,-1.68,-1.69
403.72,1.79,3.47,1.79,3.47,-3.47,-3.47,-2.80,-1.69,-1.68,-1.68
407.76,1.75,3.43,1.75,3.43,-3.43,-3.40,-2.80,-1.69,-1.68,-1.68
411.84,1.71,3.39,1.71,3.39,-3.39,-3.32,-2.80,-1.69,-1.69,-1.68
415.96,1.67,3.35,1.66,3.35,-3.35,-3.25,-2.80,-1.68,-1.69,-1.68
420.12,1.62,3.31,1.62,3.31,-3.31,-3.17,-2.80,-1.69,-1.69,-1.69
424.32,1.58,3.27,1.58,3.26,-3.26,-3.10,-2.80,-1.69,-1.69,-1.69
428.56,1.54,3.22,1.53,3.22,-3.22,-3.02,-2.80,-1.68,-1.69,-1.68
432.85,1.49,3.17,1.48,3.17,-3.17,-2.95,-2.80,-1.69,-1.69,-1.68
437.18,1.44,3.13,1.44,3.13,-3.13,-2.88,-2.80,-1.69,-1.69,-1.69
441.55,1.40,3.09,1.39,3.08,-3.08,-2.80,-2.80,-1.69,-1.69,-1.69
445.96,1.35,3.05,1.34,3.04,-3.04,-2.73,-2.80,-1.69,-1.69,-1.70
450.42,1.30,3.00,1.30,2.99,-2.99,-2.66,-2.80,-1.69,-1.69,-1.70
454.93,1.25,2.95,1.25,2.94,-2.94,-2.59,-2.80,-1.70,-1.69,-1.70
459.48,1.20,2.90,1.20,2.90,-2.90,-2.52,-2.79,-1.70,-1.70,-1.70
464.07,1.15,2.84,1.15,2.85,-2.85,-2.46,-2.79,-1.70,-1.70,-1.69
468.71,1.10,2.79,1.10,2.80,-2.80,-2.39,-2.78,-1.70,-1.70,-1.69
473.40,1.06,2.75,1.06,2.75,-2.75,-2.32,-2.77,-1.70,-1.70,-1.69
478.13,1.01,2.70,1.01,2.70,-2.70,-2.26,-2.76,-1.70,-1.69,-1.69
482.91,0.97,2.66,0.96,2.65,-2.65,-2.20,-2.74,-1.69,-1.69,-1.69
487.74,0.92,2.61,0.91,2.60,-2.60,-2.13,-2.73,-1.69,-1.69,-1.69
492.62,0.86,2.55,0.86,2.55,-2.55,-2.07,-2.71,-1.69,-1.69,-1.69
497.55,0.82,2.51,0.81,2.50,-2.50,-2.01,-2.68,-1.68,-1.69,-1.69
502.52,0.77,2.46,0.76,2.45,-2.45,-1.95,-2.66,-1.68,-1.68,-1.69
507.55,0.71,2.39,0.71,2.39,-2.39,-1.90,-2.63,-1.69,-1.68,-1.68
512.62,0.67,2.35,0.66,2.34,-2.34,-1.84,-2.60,-1.67,-1.68,-1.68
517.75,0.62,2.28,0.61,2.28,-2.28,-1.79,-2.56,-1.66,-1.67,-1.66
522.93,0.56,2.22,0.56,2.22,-2.22,-1.73,-2.53,-1.67,-1.67,-1.66
528.16,0.51,2.17,0.50,2.16,-2.16,-1.68,-2.49,-1.66,-1.66,-1.66
533.44,0.46,2.12,0.45,2.10,-2.10,-1.63,-2.44,-1.65,-1.65,-1.66
