frequency,raw,error,smoothed,error_smoothed,equalization,parametric_eq,fixed_band_eq,equalized_raw,equalized_smoothed,target
20.00,4.74,-0.38,4.73,-0.42,0.42,-0.43,-0.54,5.16,5.15,5.13
20.20,4.76,-0.36,4.76,-0.38,0.38,-0.44,-0.55,5.15,5.14,5.13
20.40,4.78,-0.34,4.78,-0.35,0.35,-0.44,-0.56,5.13,5.13,5.13
20.61,4.80,-0.33,4.81,-0.31,0.31,-0.45,-0.58,5.12,5.13,5.13
20.81,4.83,-0.29,4.84,-0.28,0.28,-0.46,-0.59,5.11,5.12,5.13
21.02,4.85,-0.27,4.86,-0.24,0.24,-0.47,-0.61,5.09,5.10,5.13
21.23,4.89,-0.21,4.89,-0.20,0.20,-0.48,-0.62,5.10,5.09,5.11
21.44,4.91,-0.18,4.92,-0.16,0.16,-0.49,-0.64,5.08,5.08,5.10
21.66,4.94,-0.14,4.94,-0.12,0.12,-0.50,-0.65,5.07,5.07,5.08
21.87,4.96,-0.09,4.97,-0.08,0.08,-0.51,-0.67,5.05,5.05,5.06
22.09,5.00,-0.04,4.99,-0.04,0.04,-0.51,-0.69,5.04,5.03,5.05
22.31,5.02,0.01,5.02,0.00,-0.00,-0.52,-0.70,5.02,5.02,5.02
22.54,5.04,0.04,5.05,0.05,-0.05,-0.53,-0.72,4.99,5.00,5.00
22.76,5.08,0.11,5.07,0.10,-0.10,-0.54,-0.74,4.98,4.97,4.98
22.99,5.10,0.16,5.10,0.15,-0.15,-0.55,-0.76,4.95,4.95,4.95
23.22,5.12,0.21,5.13,0.20,-0.20,-0.56,-0.78,4.92,4.93,4.92
23.45,5.15,0.27,5.15,0.25,-0.25,-0.57,-0.80,4.90,4.91,4.89
23.69,5.18,0.30,5.18,0.30,-0.30,-0.59,-0.82,4.89,4.88,4.88
23.92,5.21,0.36,5.21,0.34,-0.34,-0.60,-0.84,4.87,4.86,4.86
24.16,5.23,0.39,5.23,0.39,-0.39,-0.61,-0.86,4.84,4.84,4.85
24.40,5.25,0.43,5.26,0.43,-0.43,-0.62,-0.88,4.82,4.82,4.83
24.65,5.28,0.47,5.29,0.48,-0.48,-0.63,-0.90,4.80,4.81,4.81
24.89,5.31,0.53,5.31,0.52,-0.52,-0.64,-0.92,4.79,4.79,4.79
25.14,5.33,0.56,5.34,0.57,-0.57,-0.65,-0.94,4.77,4.77,4.78
25.39,5.36,0.61,5.36,0.61,-0.61,-0.66,-0.96,4.76,4.75,4.76
25.65,5.39,0.64,5.39,0.65,-0.65,-0.68,-0.98,4.74,4.74,4.75
25.91,5.41,0.69,5.41,0.69,-0.69,-0.69,-1.00,4.72,4.72,4.72
26.16,5.44,0.74,5.44,0.73,-0.73,-0.70,-1.02,4.71,4.71,4.71
26.43,5.46,0.76,5.46,0.77,-0.77,-0.71,-1.05,4.69,4.69,4.70
26.69,5.49,0.83,5.49,0.81,-0.81,-0.73,-1.07,4.68,4.68,4.67
26.96,5.51,0.85,5.51,0.85,-0.85,-0.74,-1.09,4.66,4.66,4.66
27.23,5.53,0.88,5.54,0.89,-0.89,-0.75,-1.11,4.64,4.65,4.65
27.50,5.55,0.92,5.56,0.93,-0.93,-0.77,-1.13,4.62,4.63,4.64
27.77,5.58,0.97,5.58,0.96,-0.96,-0.78,-1.15,4.62,4.62,4.62
28.05,5.60,1.00,5.60,1.00,-1.00,-0.79,-1.17,4.60,4.60,4.61
28.33,5.62,1.04,5.63,1.04,-1.04,-0.81,-1.19,4.59,4.59,4.59
28.62,5.65,1.07,5.65,1.07,-1.07,-0.82,-1.21,4.58,4.58,4.58
28.90,5.67,1.12,5.67,1.11,-1.11,-0.84,-1.22,4.57,4.56,4.56
29.19,5.68,1.15,5.69,1.14,-1.14,-0.85,-1.24,4.54,4.55,4.54
29.48,5.71,1.18,5.71,1.18,-1.18,-0.86,-1.26,4.54,4.54,4.54
29.78,5.73,1.20,5.73,1.21,-1.21,-0.88,-1.27,4.52,4.52,4.53
30.08,5.75,1.23,5.75,1.24,-1.24,-0.90,-1.29,4.51,4.51,4.52
30.38,5.76,1.26,5.77,1.27,-1.27,-0.91,-1.30,4.49,4.49,4.50
30.68,5.79,1.31,5.78,1.30,-1.30,-0.93,-1.31,4.49,4.48,4.49
30.99,5.80,1.34,5.79,1.33,-1.33,-0.94,-1.32,4.47,4.46,4.46
31.30,5.81,1.36,5.81,1.36,-1.36,-0.96,-1.34,4.45,4.45,4.45
31.61,5.82,1.39,5.82,1.39,-1.39,-0.98,-1.35,4.43,4.43,4.44
31.93,5.82,1.40,5.83,1.42,-1.42,-0.99,-1.35,4.41,4.41,4.42
32.24,5.83,1.45,5.83,1.44,-1.44,-1.01,-1.36,4.39,4.39,4.39
32.57,5.84,1.47,5.84,1.47,-1.47,-1.03,-1.37,4.37,4.37,4.37
32.89,5.84,1.49,5.85,1.49,-1.49,-1.04,-1.38,4.35,4.35,4.36
33.22,5.85,1.53,5.85,1.52,-1.52,-1.06,-1.38,4.33,4.33,4.33
33.55,5.85,1.54,5.85,1.54,-1.54,-1.08,-1.39,4.31,4.31,4.32
33.89,5.85,1.57,5.86,1.57,-1.57,-1.10,-1.39,4.29,4.29,4.29
34.23,5.85,1.59,5.86,1.59,-1.59,-1.12,-1.40,4.26,4.27,4.27
34.57,5.86,1.62,5.86,1.61,-1.61,-1.13,-1.40,4.25,4.25,4.25
34.92,5.86,1.63,5.86,1.63,-1.63,-1.15,-1.41,4.23,4.23,4.23
35.27,5.86,1.65,5.86,1.65,-1.65,-1.17,-1.41,4.21,4.21,4.21
35.62,5.86,1.68,5.86,1.67,-1.67,-1.19,-1.41,4.19,4.19,4.19
35.97,5.86,1.70,5.86,1.70,-1.70,-1.21,-1.42,4.17,4.17,4.17
36.33,5.86,1.72,5.86,1.72,-1.72,-1.23,-1.42,4.15,4.15,4.15
36.70,5.85,1.73,5.86,1.74,-1.74,-1.25,-1.43,4.12,4.12,4.13
37.06,5.86,1.76,5.86,1.75,-1.75,-1.27,-1.43,4.11,4.10,4.11
37.43,5.86,1.78,5.86,1.77,-1.77,-1.29,-1.44,4.09,4.08,4.09
37.81,5.85,1.79,5.85,1.79,-1.79,-1.31,-1.45,4.06,4.06,4.07
38.19,5.85,1.81,5.85,1.81,-1.81,-1.34,-1.45,4.04,4.04,4.04
38.57,5.85,1.83,5.85,1.83,-1.83,-1.36,-1.46,4.03,4.02,4.03
38.95,5.84,1.85,5.84,1.84,-1.84,-1.38,-1.47,4.00,4.00,4.00
39.34,5.84,1.87,5.84,1.86,-1.86,-1.40,-1.48,3.98,3.98,3.98
39.74,5.83,1.88,5.84,1.87,-1.87,-1.42,-1.49,3.96,3.96,3.96
40.14,5.83,1.89,5.83,1.89,-1.89,-1.45,-1.50,3.95,3.94,3.95
40.54,5.82,1.90,5.83,1.90,-1.90,-1.47,-1.51,3.92,3.93,3.93
40.94,5.82,1.92,5.82,1.91,-1.91,-1.49,-1.53,3.91,3.91,3.91
41.35,5.81,1.94,5.81,1.92,-1.92,-1.51,-1.54,3.89,3.89,3.88
41.76,5.81,1.94,5.81,1.94,-1.94,-1.54,-1.56,3.88,3.87,3.88
42.18,5.80,1.95,5.80,1.95,-1.95,-1.56,-1.57,3.85,3.85,3.86
42.60,5.79,1.96,5.80,1.96,-1.96,-1.59,-1.59,3.83,3.83,3.84
43.03,5.78,1.96,5.79,1.98,-1.98,-1.61,-1.61,3.81,3.81,3.83
43.46,5.78,1.99,5.78,1.99,-1.99,-1.64,-1.63,3.79,3.80,3.80
43.90,5.78,2.00,5.78,2.00,-2.00,-1.66,-1.65,3.78,3.78,3.78
44.33,5.77,2.02,5.77,2.01,-2.01,-1.69,-1.68,3.76,3.76,3.76
44.78,5.76,2.03,5.77,2.03,-2.03,-1.71,-1.70,3.74,3.74,3.74
45.23,5.76,2.05,5.76,2.04,-2.04,-1.74,-1.73,3.72,3.72,3.71
45.68,5.75,2.07,5.75,2.05,-2.05,-1.76,-1.76,3.70,3.70,3.69
46.13,5.75,2.08,5.75,2.07,-2.07,-1.79,-1.78,3.69,3.68,3.68
46.60,5.74,2.08,5.74,2.08,-2.08,-1.82,-1.81,3.66,3.66,3.67
47.06,5.74,2.10,5.74,2.10,-2.10,-1.84,-1.84,3.65,3.64,3.65
47.53,5.73,2.11,5.73,2.11,-2.11,-1.87,-1.88,3.62,3.62,3.63
48.01,5.72,2.11,5.73,2.13,-2.13,-1.90,-1.91,3.59,3.60,3.62
48.49,5.72,2.14,5.72,2.14,-2.14,-1.92,-1.95,3.58,3.58,3.59
48.97,5.71,2.16,5.71,2.16,-2.16,-1.95,-1.98,3.55,3.56,3.56
49.46,5.70,2.18,5.71,2.17,-2.17,-1.98,-2.02,3.53,3.53,3.53
49.96,5.70,2.21,5.70,2.19,-2.19,-2.01,-2.05,3.51,3.51,3.50
50.46,5.70,2.22,5.70,2.21,-2.21,-2.04,-2.09,3.49,3.49,3.49
50.96,5.69,2.23,5.69,2.23,-2.23,-2.07,-2.13,3.47,3.47,3.47
51.47,5.69,2.26,5.69,2.25,-2.25,-2.09,-2.17,3.45,3.44,3.44
51.99,5.68,2.27,5.68,2.27,-2.27,-2.12,-2.21,3.42,3.42,3.42
52.51,5.68,2.29,5.68,2.29,-2.29,-2.15,-2.25,3.40,3.39,3.40
53.03,5.67,2.30,5.68,2.31,-2.31,-2.18,-2.29,3.37,3.37,3.38
53.56,5.67,2.33,5.67,2.33,-2.33,-2.21,-2.33,3.34,3.35,3.35
54.10,5.67,2.35,5.67,2.35,-2.35,-2.24,-2.37,3.33,3.32,3.33
54.64,5.66,2.37,5.67,2.37,-2.37,-2.27,-2.41,3.29,3.30,3.30
55.18,5.66,2.39,5.66,2.39,-2.39,-2.30,-2.45,3.27,3.28,3.28
55.74,5.66,2.41,5.66,2.41,-2.41,-2.33,-2.49,3.25,3.25,3.25
56.29,5.65,2.43,5.66,2.43,-2.43,-2.37,-2.53,3.22,3.23,3.23
56.86,5.66,2.46,5.66,2.45,-2.45,-2.40,-2.57,3.21,3.20,3.20
57.42,5.65,2.48,5.65,2.47,-2.47,-2.43,-2.61,3.18,3.18,3.18
58.00,5.65,2.50,5.65,2.50,-2.50,-2.46,-2.64,3.16,3.16,3.16
58.58,5.65,2.53,5.65,2.52,-2.52,-2.49,-2.67,3.13,3.13,3.13
59.16,5.65,2.55,5.65,2.55,-2.55,-2.52,-2.71,3.11,3.10,3.11
59.76,5.64,2.56,5.65,2.57,-2.57,-2.56,-2.74,3.07,3.08,3.09
60.35,5.64,2.59,5.64,2.59,-2.59,-2.59,-2.77,3.05,3.05,3.06
60.96,5.63,2.60,5.64,2.62,-2.62,-2.62,-2.79,3.01,3.02,3.04
61.57,5.64,2.64,5.64,2.64,-2.64,-2.65,-2.82,3.00,3.00,3.00
62.18,5.64,2.68,5.64,2.67,-2.67,-2.69,-2.84,2.98,2.97,2.97
62.80,5.63,2.70,5.63,2.69,-2.69,-2.72,-2.86,2.94,2.94,2.94
63.43,5.63,2.73,5.63,2.71,-2.71,-2.75,-2.88,2.92,2.92,2.91
64.07,5.62,2.75,5.62,2.73,-2.73,-2.78,-2.90,2.89,2.89,2.88
64.71,5.62,2.77,5.62,2.75,-2.75,-2.82,-2.91,2.87,2.86,2.86
65.35,5.61,2.78,5.61,2.77,-2.77,-2.85,-2.93,2.84,2.84,2.84
66.01,5.60,2.79,5.61,2.79,-2.79,-2.88,-2.94,2.81,2.81,2.82
66.67,5.60,2.82,5.60,2.81,-2.81,-2.92,-2.95,2.79,2.79,2.79
67.33,5.60,2.84,5.60,2.83,-2.83,-2.95,-2.96,2.77,2.76,2.77
68.01,5.58,2.85,5.59,2.85,-2.85,-2.99,-2.97,2.73,2.74,2.74
68.69,5.58,2.87,5.58,2.87,-2.87,-3.02,-2.97,2.72,2.71,2.72
69.37,5.57,2.89,5.57,2.89,-2.89,-3.05,-2.98,2.69,2.69,2.69
70.07,5.56,2.91,5.56,2.90,-2.90,-3.09,-2.99,2.66,2.66,2.66
70.77,5.55,2.92,5.56,2.92,-2.92,-3.12,-2.99,2.63,2.63,2.64
71.48,5.55,2.95,5.55,2.94,-2.94,-3.16,-3.00,2.61,2.60,2.61
72.19,5.53,2.96,5.54,2.97,-2.97,-3.19,-3.00,2.57,2.57,2.58
72.91,5.53,3.00,5.53,2.99,-2.99,-3.22,-3.01,2.54,2.54,2.54
73.64,5.52,3.02,5.52,3.01,-3.01,-3.26,-3.01,2.51,2.51,2.51
74.38,5.50,3.03,5.51,3.04,-3.04,-3.29,-3.02,2.47,2.47,2.48
75.12,5.50,3.08,5.50,3.06,-3.06,-3.33,-3.03,2.44,2.44,2.43
75.87,5.49,3.10,5.49,3.09,-3.09,-3.36,-3.04,2.40,2.40,2.40
76.63,5.48,3.12,5.48,3.12,-3.12,-3.39,-3.05,2.36,2.36,2.37
77.40,5.46,3.14,5.47,3.15,-3.15,-3.43,-3.06,2.32,2.32,2.33
78.17,5.45,3.19,5.46,3.18,-3.18,-3.46,-3.08,2.28,2.28,2.27
78.95,5.45,3.21,5.45,3.21,-3.21,-3.50,-3.09,2.25,2.24,2.25
79.74,5.43,3.23,5.44,3.24,-3.24,-3.53,-3.11,2.20,2.20,2.21
80.54,5.42,3.27,5.42,3.27,-3.27,-3.56,-3.13,2.15,2.16,2.16
81.35,5.41,3.30,5.41,3.30,-3.30,-3.60,-3.15,2.11,2.11,2.12
82.16,5.40,3.34,5.40,3.33,-3.33,-3.63,-3.18,2.07,2.07,2.07
82.98,5.39,3.37,5.39,3.36,-3.36,-3.66,-3.20,2.03,2.02,2.03
83.81,5.37,3.41,5.37,3.39,-3.39,-3.70,-3.23,1.98,1.98,1.97
84.65,5.35,3.43,5.36,3.43,-3.43,-3.73,-3.26,1.93,1.93,1.93
85.50,5.34,3.46,5.34,3.46,-3.46,-3.76,-3.30,1.88,1.88,1.89
86.35,5.33,3.50,5.33,3.49,-3.49,-3.80,-3.33,1.84,1.83,1.84
87.22,5.30,3.52,5.31,3.52,-3.52,-3.83,-3.37,1.78,1.79,1.79
88.09,5.29,3.57,5.29,3.56,-3.56,-3.86,-3.41,1.74,1.73,1.73
88.97,5.27,3.59,5.27,3.59,-3.59,-3.89,-3.46,1.68,1.69,1.69
89.86,5.25,3.62,5.26,3.62,-3.62,-3.92,-3.50,1.63,1.63,1.64
90.76,5.24,3.67,5.24,3.66,-3.66,-3.96,-3.55,1.59,1.58,1.58
91.66,5.22,3.70,5.22,3.69,-3.69,-3.99,-3.61,1.53,1.53,1.53
92.58,5.19,3.73,5.20,3.72,-3.72,-4.02,-3.66,1.47,1.48,1.47
93.51,5.17,3.75,5.18,3.76,-3.76,-4.05,-3.72,1.42,1.42,1.43
94.44,5.16,3.79,5.16,3.79,-3.79,-4.08,-3.78,1.37,1.37,1.38
95.39,5.14,3.83,5.14,3.83,-3.83,-4.11,-3.84,1.31,1.31,1.32
96.34,5.11,3.87,5.12,3.86,-3.86,-4.14,-3.90,1.25,1.25,1.25
97.30,5.09,3.90,5.09,3.90,-3.90,-4.17,-3.97,1.19,1.19,1.20
98.28,5.07,3.94,5.07,3.94,-3.94,-4.20,-4.04,1.14,1.14,1.14
99.26,5.05,3.99,5.05,3.97,-3.97,-4.23,-4.11,1.08,1.08,1.07
100.25,5.02,4.01,5.02,4.01,-4.01,-4.26,-4.18,1.01,1.01,1.02
101.25,5.00,4.05,5.00,4.05,-4.05,-4.28,-4.25,0.96,0.95,0.96
102.27,4.97,4.09,4.98,4.08,-4.08,-4.31,-4.33,0.89,0.89,0.89
103.29,4.95,4.14,4.95,4.12,-4.12,-4.34,-4.40,0.83,0.83,0.82
104.32,4.92,4.16,4.92,4.16,-4.16,-4.36,-4.48,0.76,0.76,0.77
105.37,4.90,4.20,4.90,4.20,-4.20,-4.39,-4.55,0.71,0.70,0.71
106.42,4.86,4.23,4.87,4.24,-4.24,-4.42,-4.63,0.63,0.63,0.64
107.48,4.84,4.28,4.84,4.27,-4.27,-4.44,-4.70,0.57,0.57,0.57
108.56,4.81,4.32,4.81,4.31,-4.31,-4.46,-4.78,0.50,0.50,0.50
109.64,4.78,4.35,4.79,4.35,-4.35,-4.49,-4.85,0.43,0.43,0.44
110.74,4.76,4.39,4.76,4.39,-4.39,-4.51,-4.92,0.37,0.37,0.38
111.85,4.73,4.43,4.73,4.43,-4.43,-4.53,-4.98,0.30,0.30,0.31
112.97,4.69,4.47,4.70,4.47,-4.47,-4.56,-5.04,0.23,0.23,0.23
114.10,4.66,4.50,4.67,4.50,-4.50,-4.58,-5.10,0.16,0.16,0.17
115.24,4.64,4.55,4.64,4.54,-4.54,-4.60,-5.16,0.10,0.10,0.10
116.39,4.61,4.59,4.60,4.57,-4.57,-4.62,-5.21,0.04,0.03,0.03
117.55,4.57,4.62,4.57,4.61,-4.61,-4.64,-5.25,-0.03,-0.03,-0.04
118.73,4.54,4.65,4.54,4.64,-4.64,-4.66,-5.29,-0.09,-0.10,-0.10
119.92,4.50,4.67,4.51,4.67,-4.67,-4.67,-5.33,-0.16,-0.16,-0.16
121.12,4.47,4.70,4.47,4.69,-4.69,-4.69,-5.35,-0.22,-0.22,-0.22
122.33,4.43,4.73,4.44,4.72,-4.72,-4.71,-5.37,-0.29,-0.29,-0.29
123.55,4.40,4.75,4.40,4.75,-4.75,-4.72,-5.39,-0.35,-0.35,-0.34
124.79,4.36,4.77,4.37,4.77,-4.77,-4.74,-5.39,-0.41,-0.41,-0.40
126.03,4.33,4.79,4.33,4.80,-4.80,-4.75,-5.39,-0.46,-0.46,-0.45
127.29,4.29,4.81,4.29,4.82,-4.82,-4.76,-5.38,-0.52,-0.52,-0.51
128.57,4.25,4.84,4.26,4.84,-4.84,-4.78,-5.37,-0.58,-0.58,-0.58
129.85,4.22,4.86,4.22,4.85,-4.85,-4.79,-5.34,-0.63,-0.63,-0.63
131.15,4.18,4.87,4.18,4.87,-4.87,-4.80,-5.31,-0.68,-0.68,-0.68
132.46,4.15,4.90,4.15,4.88,-4.88,-4.81,-5.28,-0.73,-0.73,-0.74
133.79,4.11,4.90,4.11,4.89,-4.89,-4.81,-5.24,-0.78,-0.78,-0.78
135.12,4.07,4.92,4.07,4.90,-4.90,-4.82,-5.19,-0.83,-0.83,-0.84
136.48,4.03,4.91,4.03,4.91,-4.91,-4.83,-5.14,-0.87,-0.87,-0.87
137.84,3.99,4.91,3.99,4.91,-4.91,-4.83,-5.08,-0.92,-0.92,-0.91
139.22,3.95,4.92,3.95,4.91,-4.91,-4.84,-5.03,-0.96,-0.95,-0.96
140.61,3.91,4.92,3.91,4.91,-4.91,-4.84,-4.96,-0.99,-0.99,-1.00
142.02,3.87,4.90,3.87,4.90,-4.90,-4.84,-4.90,-1.03,-1.03,-1.02
143.44,3.83,4.89,3.83,4.89,-4.89,-4.84,-4.83,-1.06,-1.06,-1.05
144.87,3.79,4.89,3.79,4.88,-4.88,-4.84,-4.76,-1.09,-1.09,-1.09
146.32,3.76,4.89,3.75,4.87,-4.87,-4.84,-4.69,-1.11,-1.12,-1.12
147.78,3.71,4.86,3.71,4.86,-4.86,-4.84,-4.62,-1.15,-1.15,-1.14
149.26,3.67,4.85,3.67,4.85,-4.85,-4.83,-4.54,-1.18,-1.18,-1.17
150.75,3.62,4.84,3.63,4.83,-4.83,-4.83,-4.47,-1.21,-1.21,-1.21
152.26,3.58,4.82,3.59,4.82,-4.82,-4.82,-4.40,-1.24,-1.23,-1.23
153.78,3.54,4.81,3.54,4.81,-4.81,-4.81,-4.33,-1.26,-1.26,-1.26
155.32,3.50,4.79,3.50,4.79,-4.79,-4.80,-4.26,-1.29,-1.29,-1.28
156.88,3.46,4.78,3.46,4.78,-4.78,-4.79,-4.19,-1.32,-1.32,-1.31
158.44,3.41,4.76,3.42,4.77,-4.77,-4.78,-4.12,-1.35,-1.34,-1.34
160.03,3.38,4.76,3.38,4.75,-4.75,-4.77,-4.06,-1.37,-1.37,-1.37
161.63,3.33,4.74,3.34,4.74,-4.74,-4.75,-4.00,-1.41,-1.40,-1.40
163.24,3.30,4.74,3.30,4.72,-4.72,-4.74,-3.94,-1.42,-1.43,-1.43
164.88,3.26,4.72,3.26,4.71,-4.71,-4.72,-3.88,-1.45,-1.45,-1.45
166.53,3.22,4.70,3.22,4.70,-4.70,-4.70,-3.82,-1.48,-1.48,-1.47
168.19,3.17,4.69,3.18,4.69,-4.69,-4.68,-3.77,-1.51,-1.51,-1.51
169.87,3.13,4.68,3.13,4.68,-4.68,-4.66,-3.72,-1.54,-1.54,-1.54
171.57,3.09,4.67,3.09,4.66,-4.66,-4.64,-3.67,-1.57,-1.57,-1.57
173.29,3.04,4.64,3.04,4.65,-4.65,-4.61,-3.63,-1.61,-1.61,-1.59
175.02,3.00,4.64,3.00,4.64,-4.64,-4.59,-3.58,-1.64,-1.64,-1.63
176.77,2.94,4.62,2.95,4.62,-4.62,-4.56,-3.54,-1.68,-1.68,-1.67
178.54,2.90,4.62,2.90,4.60,-4.60,-4.53,-3.51,-1.70,-1.71,-1.71
180.32,2.84,4.59,2.84,4.59,-4.59,-4.50,-3.48,-1.74,-1.74,-1.74
182.13,2.79,4.57,2.79,4.57,-4.57,-4.46,-3.44,-1.77,-1.78,-1.77
183.95,2.73,4.55,2.73,4.55,-4.55,-4.43,-3.42,-1.81,-1.81,-1.81
185.79,2.68,4.54,2.68,4.52,-4.52,-4.39,-3.39,-1.84,-1.85,-1.85
187.65,2.62,4.52,2.62,4.50,-4.50,-4.36,-3.37,-1.87,-1.88,-1.89
189.52,2.55,4.48,2.56,4.47,-4.47,-4.32,-3.35,-1.92,-1.91,-1.92
191.42,2.49,4.44,2.49,4.44,-4.44,-4.28,-3.33,-1.94,-1.94,-1.94
193.33,2.43,4.40,2.43,4.40,-4.40,-4.23,-3.31,-1.97,-1.97,-1.96
195.27,2.36,4.36,2.36,4.36,-4.36,-4.19,-3.30,-2.00,-2.00,-1.99
197.22,2.29,4.32,2.30,4.32,-4.32,-4.14,-3.29,-2.03,-2.03,-2.02
199.19,2.22,4.30,2.23,4.28,-4.28,-4.09,-3.28,-2.06,-2.05,-2.07
201.18,2.16,4.25,2.16,4.24,-4.24,-4.05,-3.27,-2.07,-2.08,-2.08
203.19,2.08,4.19,2.09,4.19,-4.19,-3.99,-3.26,-2.11,-2.10,-2.10
205.23,2.01,4.14,2.02,4.14,-4.14,-3.94,-3.26,-2.13,-2.12,-2.12
207.28,1.94,4.08,1.95,4.09,-4.09,-3.88,-3.25,-2.15,-2.14,-2.13
209.35,1.87,4.04,1.87,4.04,-4.04,-3.83,-3.25,-2.17,-2.16,-2.16
211.44,1.80,3.99,1.80,3.98,-3.98,-3.77,-3.24,-2.18,-2.18,-2.18
213.56,1.72,3.93,1.73,3.92,-3.92,-3.71,-3.24,-2.20,-2.20,-2.20
215.69,1.65,3.86,1.65,3.86,-3.86,-3.65,-3.23,-2.21,-2.21,-2.20
217.85,1.57,3.79,1.57,3.80,-3.80,-3.58,-3.22,-2.22,-2.22,-2.21
220.03,1.50,3.75,1.50,3.73,-3.73,-3.51,-3.22,-2.23,-2.23,-2.24
222.23,1.42,3.68,1.42,3.65,-3.65,-3.45,-3.21,-2.23,-2.24,-2.25
224.45,1.34,3.59,1.33,3.58,-3.58,-3.37,-3.20,-2.24,-2.24,-2.24
226.70,1.25,3.51,1.25,3.50,-3.50,-3.30,-3.18,-2.25,-2.25,-2.25
228.96,1.17,3.43,1.17,3.41,-3.41,-3.23,-3.17,-2.24,-2.25,-2.25
231.25,1.08,3.33,1.08,3.33,-3.33,-3.15,-3.15,-2.24,-2.25,-2.24
233.57,0.99,3.23,0.99,3.23,-3.23,-3.07,-3.12,-2.24,-2.24,-2.23
235.90,0.90,3.14,0.91,3.14,-3.14,-2.99,-3.09,-2.24,-2.23,-2.23
238.26,0.82,3.06,0.82,3.04,-3.04,-2.91,-3.06,-2.22,-2.22,-2.23
240.64,0.72,2.94,0.73,2.94,-2.94,-2.83,-3.03,-2.22,-2.21,-2.21
243.05,0.64,2.84,0.64,2.84,-2.84,-2.74,-2.98,-2.20,-2.20,-2.19
245.48,0.54,2.72,0.56,2.73,-2.73,-2.65,-2.94,-2.19,-2.18,-2.17
247.93,0.46,2.63,0.47,2.63,-2.63,-2.56,-2.88,-2.17,-2.16,-2.16
250.41,0.38,2.53,0.39,2.53,-2.53,-2.47,-2.83,-2.15,-2.14,-2.15
252.92,0.30,2.42,0.30,2.42,-2.42,-2.37,-2.76,-2.12,-2.12,-2.11
255.45,0.21,2.31,0.22,2.32,-2.32,-2.28,-2.70,-2.11,-2.10,-2.09
258.00,0.13,2.21,0.13,2.21,-2.21,-2.18,-2.62,-2.08,-2.08,-2.07
260.58,0.05,2.11,0.05,2.10,-2.10,-2.08,-2.54,-2.05,-2.05,-2.05
263.19,-0.04,2.00,-0.04,2.00,-2.00,-1.97,-2.46,-2.03,-2.03,-2.03
265.82,-0.12,1.90,-0.12,1.89,-1.89,-1.87,-2.37,-2.00,-2.01,-2.01
268.48,-0.21,1.78,-0.21,1.78,-1.78,-1.76,-2.27,-1.98,-1.98,-1.98
271.16,-0.29,1.67,-0.30,1.66,-1.66,-1.65,-2.17,-1.95,-1.96,-1.95
273.87,-0.39,1.54,-0.39,1.55,-1.55,-1.54,-2.07,-1.93,-1.93,-1.93
276.61,-0.48,1.43,-0.48,1.43,-1.43,-1.42,-1.96,-1.90,-1.91,-1.90
279.38,-0.57,1.32,-0.58,1.31,-1.31,-1.31,-1.85,-1.87,-1.89,-1.88
282.17,-0.68,1.19,-0.68,1.18,-1.18,-1.19,-1.73,-1.86,-1.86,-1.86
284.99,-0.78,1.05,-0.78,1.05,-1.05,-1.07,-1.61,-1.83,-1.83,-1.83
287.84,-0.89,0.92,-0.88,0.92,-0.92,-0.95,-1.49,-1.81,-1.81,-1.81
290.72,-0.98,0.80,-0.99,0.79,-0.79,-0.82,-1.37,-1.77,-1.78,-1.77
293.63,-1.10,0.66,-1.10,0.65,-0.65,-0.70,-1.24,-1.75,-1.75,-1.75
296.57,-1.21,0.52,-1.21,0.51,-0.51,-0.57,-1.11,-1.72,-1.72,-1.72
299.53,-1.32,0.38,-1.32,0.37,-0.37,-0.44,-0.97,-1.69,-1.69,-1.69
302.53,-1.43,0.25,-1.43,0.23,-0.23,-0.30,-0.84,-1.66,-1.66,-1.67
305.55,-1.55,0.08,-1.54,0.09,-0.09,-0.17,-0.70,-1.63,-1.62,-1.62
308.61,-1.66,-0.06,-1.65,-0.06,0.06,-0.03,-0.56,-1.60,-1.59,-1.59
311.69,-1.77,-0.22,-1.77,-0.21,0.21,0.10,-0.42,-1.56,-1.56,-1.55
314.81,-1.88,-0.35,-1.88,-0.35,0.35,0.25,-0.28,-1.53,-1.53,-1.52
317.96,-2.00,-0.50,-1.99,-0.50,0.50,0.39,-0.14,-1.50,-1.50,-1.49
321.14,-2.11,-0.64,-2.11,-0.64,0.64,0.53,0.00,-1.47,-1.47,-1.46
324.35,-2.23,-0.78,-2.22,-0.78,0.78,0.68,0.15,-1.45,-1.44,-1.44
327.59,-2.34,-0.93,-2.33,-0.92,0.92,0.82,0.29,-1.42,-1.41,-1.40
330.87,-2.46,-1.08,-2.44,-1.06,1.06,0.97,0.44,-1.39,-1.38,-1.37
334.18,-2.58,-1.22,-2.56,-1.21,1.21,1.12,0.59,-1.37,-1.35,-1.35
337.52,-2.69,-1.35,-2.68,-1.35,1.35,1.27,0.74,-1.33,-1.33,-1.33
340.90,-2.81,-1.50,-2.81,-1.50,1.50,1.43,0.89,-1.31,-1.30,-1.30
344.30,-2.93,-1.65,-2.94,-1.65,1.65,1.58,1.04,-1.27,-1.28,-1.28
347.75,-3.05,-1.79,-3.07,-1.81,1.81,1.74,1.19,-1.24,-1.26,-1.25
351.23,-3.16,-1.92,-3.21,-1.97,1.97,1.89,1.35,-1.19,-1.24,-1.23
354.74,-3.30,-2.07,-3.35,-2.13,2.13,2.05,1.50,-1.16,-1.22,-1.22
358.28,-3.47,-2.27,-3.50,-2.30,2.30,2.21,1.66,-1.17,-1.20,-1.20
361.87,-3.64,-2.45,-3.65,-2.47,2.47,2.36,1.82,-1.17,-1.18,-1.18
365.49,-3.81,-2.65,-3.80,-2.64,2.64,2.52,1.97,-1.17,-1.16,-1.15
369.14,-3.97,-2.82,-3.95,-2.81,2.81,2.68,2.13,-1.16,-1.14,-1.14
372.83,-4.13,-2.99,-4.10,-2.98,2.98,2.84,2.29,-1.15,-1.12,-1.13
376.56,-4.27,-3.15,-4.25,-3.14,3.14,2.99,2.46,-1.12,-1.10,-1.11
380.33,-4.42,-3.33,-4.39,-3.31,3.31,3.15,2.62,-1.11,-1.08,-1.08
384.13,-4.55,-3.48,-4.53,-3.47,3.47,3.30,2.78,-1.08,-1.06,-1.06
387.97,-4.68,-3.63,-4.66,-3.62,3.62,3.46,2.95,-1.06,-1.04,-1.04
391.85,-4.80,-3.77,-4.79,-3.77,3.77,3.61,3.11,-1.03,-1.02,-1.02
395.77,-4.92,-3.92,-4.91,-3.91,3.91,3.76,3.28,-1.01,-1.00,-0.99
399.73,-5.02,-4.04,-5.02,-4.04,4.04,3.90,3.44,-0.97,-0.98,-0.97
403.72,-5.13,-4.16,-5.13,-4.17,4.17,4.04,3.61,-0.95,-0.96,-0.96
407.76,-5.23,-4.28,-5.23,-4.30,4.30,4.18,3.77,-0.93,-0.94,-0.94
411.84,-5.33,-4.41,-5.33,-4.42,4.42,4.32,3.94,-0.91,-0.91,-0.91
415.96,-5.41,-4.51,-5.42,-4.53,4.53,4.45,4.10,-0.88,-0.89,-0.89
420.12,-5.50,-4.62,-5.51,-4.64,4.64,4.58,4.26,-0.86,-0.87,-0.87
424.32,-5.59,-4.74,-5.59,-4.74,4.74,4.70,4.42,-0.84,-0.85,-0.84
428.56,-5.67,-4.84,-5.67,-4.84,4.84,4.82,4.58,-0.82,-0.82,-0.82
432.85,-5.74,-4.93,-5.74,-4.94,4.94,4.93,4.73,-0.80,-0.80,-0.80
437.18,-5.80,-5.02,-5.80,-5.02,5.02,5.03,4.88,-0.77,-0.78,-0.77
441.55,-5.87,-5.12,-5.86,-5.11,5.11,5.13,5.03,-0.76,-0.75,-0.74
445.96,-5.93,-5.20,-5.91,-5.18,5.18,5.22,5.17,-0.75,-0.73,-0.72
450.42,-5.96,-5.24,-5.95,-5.25,5.25,5.31,5.31,-0.71,-0.70,-0.71
454.93,-5.99,-5.31,-5.98,-5.31,5.31,5.38,5.43,-0.68,-0.67,-0.67
459.48,-6.01,-5.35,-6.01,-5.36,5.36,5.45,5.55,-0.65,-0.65,-0.65
464.07,-6.03,-5.40,-6.03,-5.41,5.41,5.51,5.67,-0.62,-0.62,-0.62
468.71,-6.04,-5.45,-6.03,-5.44,5.44,5.56,5.77,-0.59,-0.59,-0.58
473.40,-6.04,-5.47,-6.04,-5.47,5.47,5.60,5.86,-0.56,-0.56,-0.56
478.13,-6.03,-5.49,-6.03,-5.50,5.50,5.64,5.94,-0.53,-0.53,-0.53
482.91,-6.03,-5.52,-6.02,-5.51,5.51,5.66,6.01,-0.51,-0.50,-0.50
487.74,-6.00,-5.52,-6.00,-5.52,5.52,5.68,6.07,-0.47,-0.48,-0.47
492.62,-5.98,-5.53,-5.98,-5.53,5.53,5.69,6.12,-0.45,-0.45,-0.44
497.55,-5.94,-5.51,-5.95,-5.53,5.53,5.69,6.15,-0.41,-0.42,-0.42
