frequency,raw,error,smoothed,error_smoothed,equalization,parametric_eq,fixed_band_eq,equalized_raw,equalized_smoothed,target
20.00,-16.60,-18.08,-16.69,-18.19,18.19,18.00,6.38,1.58,1.50,1.48
20.20,-16.48,-17.96,-16.50,-17.99,17.99,17.98,6.53,1.51,1.49,1.48
20.40,-16.35,-17.83,-16.32,-17.80,17.80,17.94,6.69,1.45,1.49,1.48
20.61,-16.21,-17.68,-16.14,-17.61,17.61,17.88,6.84,1.41,1.48,1.48
20.81,-16.02,-17.50,-15.96,-17.43,17.43,17.81,7.01,1.41,1.47,1.48
21.02,-15.84,-17.32,-15.79,-17.24,17.24,17.71,7.17,1.40,1.45,1.48
21.23,-15.63,-17.09,-15.62,-17.06,17.06,17.60,7.34,1.43,1.44,1.46
21.44,-15.44,-16.89,-15.46,-16.88,16.88,17.48,7.52,1.44,1.43,1.45
21.66,-15.26,-16.68,-15.29,-16.71,16.71,17.35,7.70,1.45,1.41,1.43
21.87,-15.08,-16.49,-15.13,-16.53,16.53,17.20,7.88,1.45,1.40,1.41
22.09,-14.92,-16.32,-14.98,-16.36,16.36,17.05,8.07,1.44,1.38,1.39
22.31,-14.78,-16.15,-14.83,-16.19,16.19,16.88,8.27,1.41,1.37,1.36
22.54,-14.66,-16.01,-14.67,-16.01,16.01,16.71,8.47,1.35,1.34,1.34
22.76,-14.53,-15.85,-14.52,-15.84,15.84,16.54,8.68,1.31,1.32,1.32
22.99,-14.41,-15.71,-14.38,-15.68,15.68,16.36,8.89,1.26,1.30,1.29
23.22,-14.29,-15.55,-14.24,-15.52,15.52,16.17,9.11,1.22,1.28,1.26
23.45,-14.15,-15.39,-14.11,-15.37,15.37,15.99,9.33,1.22,1.25,1.24
23.69,-14.02,-15.25,-13.99,-15.23,15.23,15.80,9.56,1.21,1.23,1.23
23.92,-13.87,-15.08,-13.87,-15.09,15.09,15.61,9.80,1.22,1.21,1.21
24.16,-13.72,-14.92,-13.76,-14.95,14.95,15.42,10.04,1.23,1.19,1.20
24.40,-13.60,-14.78,-13.65,-14.82,14.82,15.23,10.29,1.22,1.17,1.18
24.65,-13.48,-14.64,-13.53,-14.69,14.69,15.05,10.54,1.20,1.15,1.16
24.89,-13.38,-14.52,-13.42,-14.55,14.55,14.86,10.81,1.17,1.14,1.14
25.14,-13.29,-14.42,-13.30,-14.42,14.42,14.68,11.07,1.13,1.12,1.12
25.39,-13.20,-14.30,-13.19,-14.29,14.29,14.49,11.35,1.09,1.10,1.10
25.65,-13.11,-14.21,-13.08,-14.16,14.16,14.31,11.63,1.05,1.09,1.09
25.91,-13.01,-14.08,-12.96,-14.03,14.03,14.14,11.91,1.02,1.07,1.06
26.16,-12.90,-13.95,-12.85,-13.91,13.91,13.96,12.21,1.01,1.05,1.05
26.43,-12.78,-13.81,-12.74,-13.78,13.78,13.79,12.50,1.00,1.04,1.04
26.69,-12.63,-13.65,-12.63,-13.65,13.65,13.62,12.80,1.02,1.02,1.02
26.96,-12.50,-13.51,-12.51,-13.52,13.52,13.46,13.11,1.01,1.01,1.01
27.23,-12.37,-13.37,-12.39,-13.38,13.38,13.29,13.41,1.01,0.99,0.99
27.50,-12.25,-13.24,-12.27,-13.24,13.24,13.13,13.72,0.99,0.98,0.98
27.77,-12.13,-13.09,-12.15,-13.11,13.11,12.98,14.02,0.98,0.96,0.96
28.05,-12.02,-12.97,-12.02,-12.97,12.97,12.82,14.32,0.95,0.95,0.95
28.33,-11.91,-12.84,-11.90,-12.84,12.84,12.68,14.62,0.93,0.93,0.93
28.62,-11.80,-12.71,-11.79,-12.71,12.71,12.53,14.90,0.92,0.92,0.92
28.90,-11.67,-12.58,-11.68,-12.59,12.59,12.39,15.17,0.92,0.91,0.90
29.19,-11.56,-12.45,-11.57,-12.47,12.47,12.25,15.43,0.90,0.89,0.88
29.48,-11.44,-12.32,-11.47,-12.35,12.35,12.11,15.66,0.91,0.88,0.88
29.78,-11.34,-12.21,-11.37,-12.24,12.24,11.98,15.87,0.89,0.87,0.87
30.08,-11.25,-12.11,-11.27,-12.12,12.12,11.85,16.04,0.87,0.85,0.86
30.38,-11.18,-12.02,-11.18,-12.01,12.01,11.72,16.18,0.83,0.83,0.84
30.68,-11.10,-11.93,-11.08,-11.90,11.90,11.60,16.28,0.80,0.82,0.82
30.99,-11.02,-11.83,-10.99,-11.80,11.80,11.48,16.34,0.77,0.80,0.80
31.30,-10.93,-11.72,-10.90,-11.69,11.69,11.36,16.36,0.76,0.79,0.79
31.61,-10.82,-11.60,-10.82,-11.58,11.58,11.25,16.34,0.76,0.77,0.78
31.93,-10.73,-11.49,-10.73,-11.48,11.48,11.14,16.27,0.75,0.75,0.75
32.24,-10.64,-11.36,-10.65,-11.38,11.38,11.03,16.17,0.74,0.73,0.72
32.57,-10.55,-11.26,-10.57,-11.28,11.28,10.92,16.02,0.73,0.71,0.71
32.89,-10.48,-11.18,-10.49,-11.18,11.18,10.82,15.85,0.70,0.69,0.69
33.22,-10.40,-11.06,-10.42,-11.09,11.09,10.72,15.65,0.68,0.67,0.66
33.55,-10.34,-10.99,-10.35,-10.99,10.99,10.63,15.43,0.65,0.65,0.65
33.89,-10.27,-10.90,-10.28,-10.90,10.90,10.53,15.18,0.63,0.62,0.63
34.23,-10.19,-10.80,-10.21,-10.82,10.82,10.44,14.93,0.62,0.60,0.60
34.57,-10.12,-10.70,-10.15,-10.73,10.73,10.35,14.66,0.61,0.58,0.58
34.92,-10.07,-10.63,-10.09,-10.65,10.65,10.26,14.39,0.58,0.56,0.56
35.27,-10.02,-10.57,-10.03,-10.57,10.57,10.18,14.11,0.55,0.54,0.54
35.62,-9.97,-10.49,-9.97,-10.49,10.49,10.10,13.83,0.51,0.52,0.52
35.97,-9.92,-10.42,-9.90,-10.40,10.40,10.02,13.55,0.48,0.50,0.49
36.33,-9.85,-10.33,-9.83,-10.31,10.31,9.94,13.27,0.46,0.47,0.48
36.70,-9.79,-10.25,-9.76,-10.21,10.21,9.86,13.00,0.42,0.45,0.45
37.06,-9.72,-10.15,-9.69,-10.12,10.12,9.79,12.73,0.40,0.43,0.43
37.43,-9.64,-10.06,-9.61,-10.02,10.02,9.72,12.47,0.37,0.41,0.41
37.81,-9.55,-9.94,-9.52,-9.91,9.91,9.65,12.21,0.36,0.39,0.39
38.19,-9.45,-9.82,-9.44,-9.80,9.80,9.58,11.96,0.35,0.37,0.37
38.57,-9.35,-9.70,-9.35,-9.70,9.70,9.51,11.71,0.34,0.35,0.35
38.95,-9.24,-9.57,-9.26,-9.59,9.59,9.44,11.47,0.35,0.32,0.32
39.34,-9.14,-9.44,-9.18,-9.48,9.48,9.38,11.24,0.34,0.30,0.30
39.74,-9.05,-9.33,-9.09,-9.37,9.37,9.31,11.01,0.32,0.28,0.27
40.14,-8.97,-9.24,-9.00,-9.27,9.27,9.25,10.80,0.29,0.26,0.27
40.54,-8.90,-9.14,-8.92,-9.16,9.16,9.19,10.59,0.26,0.24,0.24
40.94,-8.82,-9.05,-8.84,-9.06,9.06,9.13,10.38,0.24,0.22,0.22
41.35,-8.76,-8.96,-8.76,-8.97,8.97,9.06,10.19,0.20,0.20,0.20
41.76,-8.69,-8.88,-8.69,-8.87,8.87,9.00,10.00,0.18,0.18,0.19
42.18,-8.64,-8.81,-8.62,-8.78,8.78,8.94,9.81,0.14,0.16,0.17
42.60,-8.57,-8.72,-8.56,-8.70,8.70,8.88,9.64,0.13,0.14,0.14
43.03,-8.50,-8.64,-8.49,-8.61,8.61,8.82,9.47,0.11,0.12,0.14
43.46,-8.42,-8.53,-8.43,-8.53,8.53,8.76,9.30,0.11,0.10,0.11
43.90,-8.34,-8.42,-8.36,-8.45,8.45,8.70,9.15,0.10,0.08,0.08
44.33,-8.28,-8.34,-8.30,-8.36,8.36,8.64,9.00,0.08,0.06,0.06
44.78,-8.23,-8.27,-8.23,-8.27,8.27,8.58,8.85,0.04,0.04,0.04
45.23,-8.17,-8.18,-8.16,-8.18,8.18,8.51,8.71,0.01,0.02,0.01
45.68,-8.11,-8.10,-8.09,-8.09,8.09,8.45,8.58,-0.02,-0.00,-0.01
46.13,-8.04,-8.01,-8.02,-8.00,8.00,8.39,8.45,-0.05,-0.02,-0.03
46.60,-7.96,-7.92,-7.95,-7.90,7.90,8.32,8.33,-0.06,-0.05,-0.04
47.06,-7.88,-7.82,-7.88,-7.81,7.81,8.25,8.21,-0.08,-0.07,-0.06
47.53,-7.81,-7.73,-7.81,-7.72,7.72,8.19,8.10,-0.10,-0.09,-0.08
48.01,-7.74,-7.65,-7.74,-7.63,7.63,8.12,7.99,-0.12,-0.12,-0.10
48.49,-7.67,-7.54,-7.68,-7.54,7.54,8.05,7.89,-0.13,-0.14,-0.13
48.97,-7.59,-7.43,-7.61,-7.45,7.45,7.97,7.79,-0.14,-0.16,-0.16
49.46,-7.53,-7.34,-7.55,-7.37,7.37,7.90,7.70,-0.17,-0.19,-0.20
49.96,-7.48,-7.25,-7.50,-7.29,7.29,7.83,7.61,-0.20,-0.21,-0.23
50.46,-7.43,-7.20,-7.45,-7.21,7.21,7.75,7.52,-0.22,-0.24,-0.23
50.96,-7.39,-7.13,-7.40,-7.14,7.14,7.67,7.44,-0.26,-0.26,-0.26
51.47,-7.35,-7.06,-7.36,-7.07,7.07,7.59,7.36,-0.28,-0.29,-0.29
51.99,-7.32,-7.00,-7.35,-7.03,7.03,7.51,7.28,-0.29,-0.32,-0.32
52.51,-7.30,-6.97,-7.35,-7.01,7.01,7.43,7.21,-0.29,-0.34,-0.34
53.03,-7.26,-6.90,-7.34,-6.97,6.97,7.34,7.13,-0.29,-0.37,-0.36
53.56,-7.21,-6.82,-7.28,-6.88,6.88,7.26,7.06,-0.33,-0.40,-0.39
54.10,-7.19,-6.77,-7.19,-6.77,6.77,7.17,7.00,-0.42,-0.42,-0.42
54.64,-7.24,-6.79,-7.13,-6.68,6.68,7.08,6.93,-0.56,-0.45,-0.45
55.18,-7.23,-6.76,-7.08,-6.61,6.61,7.00,6.86,-0.63,-0.47,-0.48
55.74,-7.17,-6.67,-7.03,-6.53,6.53,6.91,6.80,-0.64,-0.50,-0.51
56.29,-7.14,-6.61,-6.97,-6.44,6.44,6.81,6.73,-0.70,-0.53,-0.53
56.86,-7.17,-6.61,-6.91,-6.35,6.35,6.72,6.67,-0.82,-0.56,-0.56
57.42,-7.09,-6.50,-6.87,-6.28,6.28,6.63,6.60,-0.81,-0.59,-0.59
58.00,-6.67,-6.06,-6.84,-6.23,6.23,6.54,6.54,-0.45,-0.62,-0.62
58.58,-6.20,-5.56,-6.83,-6.18,6.18,6.44,6.47,-0.02,-0.65,-0.65
59.16,-6.21,-5.53,-6.83,-6.15,6.15,6.35,6.40,-0.06,-0.68,-0.67
59.76,-6.73,-6.03,-6.84,-6.13,6.13,6.25,6.34,-0.60,-0.71,-0.70
60.35,-7.18,-6.45,-6.87,-6.13,6.13,6.16,6.26,-1.05,-0.74,-0.73
60.96,-7.08,-6.33,-6.90,-6.13,6.13,6.06,6.19,-0.95,-0.77,-0.75
61.57,-6.81,-6.02,-6.95,-6.15,6.15,5.97,6.12,-0.66,-0.80,-0.80
62.18,-6.86,-6.03,-7.02,-6.18,6.18,5.87,6.04,-0.68,-0.83,-0.84
62.80,-7.19,-6.33,-7.08,-6.22,6.22,5.78,5.96,-0.97,-0.86,-0.87
63.43,-7.39,-6.49,-7.15,-6.26,6.26,5.68,5.88,-1.14,-0.89,-0.91
64.07,-7.35,-6.42,-7.22,-6.30,6.30,5.59,5.80,-1.05,-0.93,-0.94
64.71,-7.30,-6.34,-7.29,-6.33,6.33,5.49,5.71,-0.97,-0.96,-0.96
65.35,-7.33,-6.34,-7.32,-6.33,6.33,5.40,5.62,-1.00,-0.99,-0.99
66.01,-7.35,-6.34,-7.30,-6.28,6.28,5.31,5.53,-1.07,-1.02,-1.02
66.67,-7.30,-6.25,-7.25,-6.20,6.20,5.21,5.44,-1.11,-1.05,-1.05
67.33,-7.24,-6.17,-7.20,-6.12,6.12,5.12,5.34,-1.12,-1.08,-1.08
68.01,-7.19,-6.08,-7.17,-6.06,6.06,5.03,5.25,-1.13,-1.11,-1.11
68.69,-7.10,-5.96,-7.12,-5.98,5.98,4.94,5.15,-1.12,-1.14,-1.14
69.37,-7.00,-5.83,-7.04,-5.87,5.87,4.85,5.05,-1.13,-1.17,-1.18
70.07,-6.90,-5.70,-6.95,-5.74,5.74,4.76,4.95,-1.16,-1.21,-1.21
70.77,-6.81,-5.58,-6.86,-5.62,5.62,4.67,4.85,-1.20,-1.24,-1.24
71.48,-6.74,-5.47,-6.78,-5.50,5.50,4.59,4.75,-1.24,-1.28,-1.28
72.19,-6.70,-5.39,-6.70,-5.38,5.38,4.50,4.65,-1.32,-1.32,-1.31
72.91,-6.62,-5.27,-6.61,-5.26,5.26,4.42,4.54,-1.36,-1.36,-1.35
73.64,-6.53,-5.14,-6.53,-5.14,5.14,4.33,4.44,-1.40,-1.40,-1.40
74.38,-6.45,-5.02,-6.46,-5.02,5.02,4.25,4.34,-1.43,-1.44,-1.43
75.12,-6.38,-4.89,-6.38,-4.91,4.91,4.17,4.24,-1.48,-1.48,-1.49
75.87,-6.31,-4.79,-6.32,-4.79,4.79,4.09,4.14,-1.52,-1.52,-1.53
76.63,-6.24,-4.68,-6.25,-4.68,4.68,4.01,4.04,-1.56,-1.57,-1.56
77.40,-6.18,-4.57,-6.19,-4.58,4.58,3.94,3.94,-1.60,-1.61,-1.61
78.17,-6.13,-4.46,-6.13,-4.47,4.47,3.86,3.84,-1.66,-1.66,-1.67
78.95,-6.06,-4.36,-6.08,-4.37,4.37,3.78,3.74,-1.70,-1.71,-1.70
79.74,-6.02,-4.27,-6.02,-4.26,4.26,3.71,3.65,-1.76,-1.76,-1.76
80.54,-5.98,-4.17,-5.97,-4.16,4.16,3.64,3.56,-1.83,-1.81,-1.81
81.35,-5.92,-4.06,-5.92,-4.06,4.06,3.56,3.46,-1.87,-1.86,-1.86
82.16,-5.87,-3.96,-5.88,-3.96,3.96,3.49,3.37,-1.91,-1.92,-1.92
82.98,-5.84,-3.88,-5.83,-3.86,3.86,3.43,3.28,-1.98,-1.97,-1.96
83.81,-5.80,-3.77,-5.79,-3.77,3.77,3.36,3.19,-2.03,-2.02,-2.03
84.65,-5.76,-3.68,-5.76,-3.68,3.68,3.29,3.11,-2.08,-2.08,-2.09
85.50,-5.71,-3.58,-5.73,-3.59,3.59,3.22,3.02,-2.12,-2.14,-2.14
86.35,-5.68,-3.49,-5.70,-3.50,3.50,3.16,2.94,-2.18,-2.19,-2.19
87.22,-5.66,-3.41,-5.67,-3.42,3.42,3.10,2.86,-2.24,-2.25,-2.25
88.09,-5.64,-3.33,-5.65,-3.34,3.34,3.03,2.78,-2.30,-2.31,-2.31
88.97,-5.62,-3.26,-5.63,-3.26,3.26,2.97,2.70,-2.36,-2.37,-2.37
89.86,-5.60,-3.18,-5.61,-3.18,3.18,2.91,2.62,-2.42,-2.43,-2.43
90.76,-5.59,-3.09,-5.60,-3.11,3.11,2.85,2.55,-2.48,-2.49,-2.50
91.66,-5.59,-3.04,-5.59,-3.04,3.04,2.80,2.48,-2.55,-2.55,-2.55
92.58,-5.60,-2.98,-5.58,-2.97,2.97,2.74,2.40,-2.64,-2.61,-2.63
93.51,-5.58,-2.91,-5.57,-2.90,2.90,2.68,2.33,-2.69,-2.68,-2.67
94.44,-5.55,-2.82,-5.57,-2.82,2.82,2.63,2.27,-2.73,-2.74,-2.74
95.39,-5.56,-2.76,-5.56,-2.75,2.75,2.57,2.20,-2.81,-2.81,-2.80
96.34,-5.56,-2.69,-5.55,-2.67,2.67,2.52,2.13,-2.89,-2.88,-2.88
97.30,-5.55,-2.61,-5.54,-2.60,2.60,2.47,2.07,-2.96,-2.94,-2.94
98.28,-5.54,-2.53,-5.53,-2.52,2.52,2.42,2.01,-3.03,-3.01,-3.01
99.26,-5.54,-2.46,-5.52,-2.44,2.44,2.37,1.94,-3.11,-3.08,-3.09
100.25,-5.52,-2.37,-5.51,-2.35,2.35,2.32,1.88,-3.17,-3.15,-3.15
101.25,-5.48,-2.26,-5.50,-2.27,2.27,2.27,1.82,-3.21,-3.22,-3.22
102.27,-5.46,-2.17,-5.49,-2.19,2.19,2.23,1.77,-3.27,-3.30,-3.30
103.29,-5.47,-2.10,-5.48,-2.11,2.11,2.18,1.71,-3.36,-3.37,-3.38
104.32,-5.46,-2.02,-5.47,-2.03,2.03,2.13,1.66,-3.43,-3.44,-3.44
105.37,-5.43,-1.92,-5.47,-1.95,1.95,2.09,1.60,-3.49,-3.52,-3.51
106.42,-5.44,-1.85,-5.46,-1.87,1.87,2.05,1.55,-3.58,-3.59,-3.59
107.48,-5.44,-1.78,-5.45,-1.78,1.78,2.00,1.50,-3.66,-3.67,-3.67
108.56,-5.45,-1.71,-5.45,-1.70,1.70,1.96,1.45,-3.75,-3.74,-3.74
109.64,-5.46,-1.64,-5.45,-1.63,1.63,1.92,1.40,-3.84,-3.82,-3.82
110.74,-5.46,-1.57,-5.45,-1.55,1.55,1.88,1.35,-3.92,-3.90,-3.89
111.85,-5.45,-1.49,-5.45,-1.47,1.47,1.84,1.30,-3.98,-3.98,-3.97
112.97,-5.45,-1.39,-5.45,-1.39,1.39,1.80,1.26,-4.06,-4.05,-4.06
114.10,-5.44,-1.31,-5.44,-1.31,1.31,1.76,1.21,-4.13,-4.13,-4.13
115.24,-5.43,-1.23,-5.43,-1.22,1.22,1.73,1.17,-4.21,-4.21,-4.21
116.39,-5.43,-1.14,-5.42,-1.14,1.14,1.69,1.13,-4.30,-4.28,-4.29
117.55,-5.42,-1.06,-5.41,-1.05,1.05,1.65,1.09,-4.37,-4.36,-4.37
118.73,-5.42,-0.98,-5.40,-0.96,0.96,1.62,1.05,-4.46,-4.43,-4.44
119.92,-5.42,-0.92,-5.39,-0.88,0.88,1.58,1.01,-4.54,-4.51,-4.51
121.12,-5.40,-0.82,-5.38,-0.80,0.80,1.55,0.97,-4.60,-4.58,-4.58
122.33,-5.38,-0.73,-5.38,-0.73,0.73,1.51,0.93,-4.65,-4.65,-4.65
123.55,-5.36,-0.65,-5.38,-0.66,0.66,1.48,0.90,-4.71,-4.72,-4.72
124.79,-5.30,-0.51,-5.39,-0.60,0.60,1.45,0.86,-4.71,-4.79,-4.79
126.03,-5.31,-0.46,-5.40,-0.54,0.54,1.42,0.83,-4.77,-4.86,-4.85
127.29,-5.39,-0.47,-5.41,-0.49,0.49,1.39,0.80,-4.91,-4.93,-4.92
128.57,-5.44,-0.44,-5.43,-0.44,0.44,1.36,0.76,-5.00,-4.99,-5.00
129.85,-5.46,-0.40,-5.46,-0.40,0.40,1.33,0.73,-5.06,-5.06,-5.06
131.15,-5.50,-0.38,-5.48,-0.37,0.37,1.30,0.70,-5.14,-5.12,-5.12
132.46,-5.52,-0.34,-5.51,-0.33,0.33,1.27,0.67,-5.19,-5.18,-5.19
133.79,-5.55,-0.32,-5.54,-0.31,0.31,1.24,0.64,-5.25,-5.24,-5.23
135.12,-5.58,-0.29,-5.57,-0.28,0.28,1.21,0.62,-5.30,-5.29,-5.30
136.48,-5.61,-0.27,-5.60,-0.26,0.26,1.18,0.59,-5.35,-5.34,-5.34
137.84,-5.65,-0.27,-5.63,-0.24,0.24,1.16,0.56,-5.41,-5.39,-5.39
139.22,-5.68,-0.23,-5.66,-0.22,0.22,1.13,0.54,-5.47,-5.44,-5.45
140.61,-5.70,-0.20,-5.68,-0.19,0.19,1.10,0.51,-5.51,-5.49,-5.50
142.02,-5.70,-0.18,-5.69,-0.17,0.17,1.08,0.49,-5.54,-5.53,-5.52
143.44,-5.71,-0.15,-5.71,-0.14,0.14,1.05,0.46,-5.57,-5.57,-5.56
144.87,-5.72,-0.11,-5.73,-0.13,0.13,1.03,0.44,-5.60,-5.61,-5.61
146.32,-5.73,-0.08,-5.76,-0.11,0.11,1.01,0.41,-5.63,-5.65,-5.65
147.78,-5.75,-0.07,-5.78,-0.09,0.09,0.98,0.39,-5.66,-5.69,-5.68
149.26,-5.77,-0.06,-5.80,-0.08,0.08,0.96,0.37,-5.70,-5.72,-5.72
150.75,-5.80,-0.04,-5.82,-0.07,0.07,0.93,0.35,-5.74,-5.76,-5.76
152.26,-5.83,-0.04,-5.85,-0.06,0.06,0.91,0.32,-5.78,-5.79,-5.80
153.78,-5.87,-0.04,-5.87,-0.05,0.05,0.89,0.30,-5.83,-5.83,-5.83
155.32,-5.90,-0.04,-5.90,-0.04,0.04,0.87,0.28,-5.87,-5.86,-5.86
156.88,-5.93,-0.04,-5.93,-0.03,0.03,0.85,0.26,-5.91,-5.90,-5.89
158.44,-5.96,-0.03,-5.95,-0.02,0.02,0.82,0.23,-5.95,-5.93,-5.93
160.03,-5.98,-0.01,-5.97,-0.00,0.00,0.80,0.21,-5.98,-5.97,-5.97
161.63,-6.00,0.01,-5.98,0.02,-0.02,0.78,0.19,-6.02,-6.00,-6.01
163.24,-6.01,0.03,-6.00,0.04,-0.04,0.76,0.17,-6.05,-6.04,-6.04
164.88,-6.02,0.04,-6.00,0.07,-0.07,0.74,0.15,-6.09,-6.07,-6.07
166.53,-6.02,0.08,-6.01,0.10,-0.10,0.72,0.12,-6.12,-6.11,-6.10
168.19,-6.02,0.12,-6.01,0.13,-0.13,0.70,0.10,-6.15,-6.14,-6.15
169.87,-6.01,0.17,-6.01,0.17,-0.17,0.68,0.08,-6.18,-6.18,-6.18
171.57,-5.99,0.22,-6.00,0.22,-0.22,0.67,0.06,-6.21,-6.22,-6.21
173.29,-5.98,0.26,-5.99,0.26,-0.26,0.65,0.03,-6.25,-6.26,-6.24
175.02,-5.96,0.32,-5.98,0.31,-0.31,0.63,0.01,-6.28,-6.30,-6.29
176.77,-5.96,0.37,-5.97,0.36,-0.36,0.61,-0.01,-6.32,-6.34,-6.34
178.54,-5.96,0.41,-5.97,0.41,-0.41,0.59,-0.04,-6.37,-6.37,-6.38
180.32,-5.97,0.44,-5.96,0.45,-0.45,0.57,-0.06,-6.43,-6.41,-6.41
182.13,-5.97,0.48,-5.95,0.50,-0.50,0.56,-0.08,-6.47,-6.45,-6.45
183.95,-5.96,0.54,-5.95,0.54,-0.54,0.54,-0.11,-6.50,-6.49,-6.50
185.79,-5.92,0.61,-5.96,0.58,-0.58,0.52,-0.13,-6.50,-6.53,-6.53
187.65,-5.92,0.66,-5.96,0.61,-0.61,0.51,-0.16,-6.53,-6.57,-6.58
189.52,-5.96,0.65,-5.97,0.64,-0.64,0.49,-0.18,-6.60,-6.61,-6.61
191.42,-5.97,0.68,-5.99,0.66,-0.66,0.47,-0.20,-6.63,-6.64,-6.65
193.33,-5.99,0.68,-6.00,0.68,-0.68,0.46,-0.23,-6.67,-6.68,-6.67
195.27,-6.01,0.69,-6.02,0.69,-0.69,0.44,-0.25,-6.71,-6.71,-6.70
197.22,-6.03,0.70,-6.04,0.71,-0.71,0.43,-0.28,-6.74,-6.74,-6.74
199.19,-6.05,0.73,-6.06,0.72,-0.72,0.41,-0.30,-6.77,-6.77,-6.79
201.18,-6.07,0.73,-6.08,0.73,-0.73,0.39,-0.33,-6.80,-6.80,-6.81
203.19,-6.10,0.72,-6.10,0.73,-0.73,0.38,-0.35,-6.84,-6.83,-6.83
205.23,-6.12,0.73,-6.11,0.74,-0.74,0.36,-0.38,-6.86,-6.85,-6.86
207.28,-6.12,0.74,-6.13,0.75,-0.75,0.35,-0.40,-6.88,-6.88,-6.86
209.35,-6.14,0.76,-6.13,0.77,-0.77,0.33,-0.42,-6.91,-6.90,-6.90
211.44,-6.14,0.79,-6.13,0.79,-0.79,0.32,-0.45,-6.93,-6.92,-6.93
213.56,-6.15,0.79,-6.13,0.81,-0.81,0.30,-0.47,-6.97,-6.94,-6.95
215.69,-6.14,0.81,-6.12,0.84,-0.84,0.29,-0.50,-6.98,-6.96,-6.95
217.85,-6.12,0.84,-6.10,0.87,-0.87,0.27,-0.52,-7.00,-6.97,-6.97
220.03,-6.09,0.90,-6.08,0.91,-0.91,0.26,-0.54,-7.00,-6.99,-6.99
222.23,-6.06,0.94,-6.05,0.95,-0.95,0.24,-0.56,-7.01,-7.00,-7.01
224.45,-6.02,0.98,-6.02,0.99,-0.99,0.23,-0.58,-7.01,-7.00,-7.00
226.70,-5.98,1.03,-5.98,1.03,-1.03,0.22,-0.60,-7.01,-7.01,-7.01
228.96,-5.94,1.07,-5.95,1.07,-1.07,0.20,-0.62,-7.01,-7.01,-7.02
231.25,-5.91,1.10,-5.91,1.10,-1.10,0.19,-0.64,-7.01,-7.01,-7.01
233.57,-5.87,1.13,-5.88,1.13,-1.13,0.17,-0.65,-7.00,-7.01,-7.00
235.90,-5.83,1.17,-5.85,1.16,-1.16,0.16,-0.67,-6.99,-7.00,-7.00
238.26,-5.79,1.21,-5.82,1.18,-1.18,0.15,-0.68,-6.97,-7.00,-7.01
240.64,-5.76,1.22,-5.80,1.19,-1.19,0.13,-0.70,-6.95,-6.99,-6.99
243.05,-5.74,1.23,-5.78,1.20,-1.20,0.12,-0.71,-6.94,-6.98,-6.98
245.48,-5.75,1.20,-5.77,1.19,-1.19,0.10,-0.72,-6.95,-6.96,-6.96
247.93,-5.75,1.19,-5.76,1.19,-1.19,0.09,-0.73,-6.94,-6.95,-6.95
250.41,-5.75,1.18,-5.75,1.17,-1.17,0.08,-0.74,-6.93,-6.93,-6.94
252.92,-5.76,1.14,-5.75,1.16,-1.16,0.06,-0.74,-6.92,-6.91,-6.91
255.45,-5.77,1.11,-5.75,1.14,-1.14,0.05,-0.75,-6.91,-6.89,-6.88
258.00,-5.77,1.09,-5.76,1.11,-1.11,0.03,-0.75,-6.88,-6.87,-6.86
260.58,-5.77,1.08,-5.77,1.08,-1.08,0.02,-0.75,-6.86,-6.85,-6.85
263.19,-5.79,1.04,-5.78,1.05,-1.05,0.01,-0.75,-6.84,-6.83,-6.83
265.82,-5.80,1.00,-5.79,1.02,-1.02,-0.01,-0.75,-6.82,-6.80,-6.81
268.48,-5.81,0.97,-5.80,0.98,-0.98,-0.02,-0.75,-6.80,-6.78,-6.78
271.16,-5.81,0.94,-5.82,0.94,-0.94,-0.04,-0.75,-6.76,-6.76,-6.75
273.87,-5.83,0.90,-5.83,0.90,-0.90,-0.05,-0.74,-6.74,-6.74,-6.74
276.61,-5.84,0.86,-5.85,0.86,-0.86,-0.07,-0.74,-6.70,-6.71,-6.70
279.38,-5.85,0.84,-5.88,0.81,-0.81,-0.08,-0.73,-6.66,-6.69,-6.69
282.17,-5.89,0.77,-5.91,0.75,-0.75,-0.09,-0.72,-6.65,-6.67,-6.67
284.99,-5.93,0.71,-5.95,0.69,-0.69,-0.11,-0.72,-6.63,-6.64,-6.64
287.84,-5.97,0.64,-5.99,0.63,-0.63,-0.12,-0.71,-6.60,-6.61,-6.62
290.72,-6.01,0.57,-6.03,0.55,-0.55,-0.14,-0.70,-6.57,-6.59,-6.58
293.63,-6.07,0.50,-6.08,0.48,-0.48,-0.15,-0.69,-6.55,-6.56,-6.57
296.57,-6.12,0.41,-6.13,0.40,-0.40,-0.17,-0.68,-6.53,-6.53,-6.53
299.53,-6.18,0.33,-6.18,0.32,-0.32,-0.18,-0.67,-6.51,-6.50,-6.51
302.53,-6.24,0.24,-6.23,0.24,-0.24,-0.20,-0.66,-6.49,-6.47,-6.48
305.55,-6.30,0.13,-6.28,0.16,-0.16,-0.21,-0.65,-6.46,-6.44,-6.44
308.61,-6.34,0.07,-6.33,0.08,-0.08,-0.23,-0.64,-6.42,-6.41,-6.41
311.69,-6.39,-0.02,-6.37,0.00,-0.00,-0.24,-0.63,-6.40,-6.38,-6.38
314.81,-6.42,-0.08,-6.42,-0.07,0.07,-0.26,-0.62,-6.35,-6.35,-6.34
317.96,-6.46,-0.15,-6.46,-0.14,0.14,-0.28,-0.61,-6.32,-6.32,-6.31
321.14,-6.49,-0.21,-6.49,-0.20,0.20,-0.29,-0.60,-6.29,-6.29,-6.29
324.35,-6.52,-0.26,-6.52,-0.27,0.27,-0.31,-0.59,-6.26,-6.26,-6.26
327.59,-6.55,-0.33,-6.55,-0.32,0.32,-0.33,-0.58,-6.23,-6.23,-6.22
330.87,-6.57,-0.38,-6.58,-0.37,0.37,-0.34,-0.57,-6.20,-6.20,-6.20
334.18,-6.60,-0.42,-6.60,-0.42,0.42,-0.36,-0.57,-6.18,-6.18,-6.18
337.52,-6.61,-0.46,-6.62,-0.46,0.46,-0.38,-0.56,-6.15,-6.15,-6.15
340.90,-6.63,-0.51,-6.63,-0.50,0.50,-0.40,-0.55,-6.13,-6.13,-6.13
344.30,-6.64,-0.53,-6.65,-0.54,0.54,-0.41,-0.54,-6.11,-6.11,-6.11
347.75,-6.66,-0.58,-6.65,-0.57,0.57,-0.43,-0.53,-6.10,-6.09,-6.08
351.23,-6.66,-0.60,-6.66,-0.60,0.60,-0.45,-0.53,-6.07,-6.07,-6.07
354.74,-6.67,-0.63,-6.67,-0.62,0.62,-0.47,-0.52,-6.05,-6.05,-6.05
358.28,-6.68,-0.65,-6.68,-0.65,0.65,-0.49,-0.51,-6.03,-6.03,-6.03
361.87,-6.68,-0.67,-6.68,-0.67,0.67,-0.51,-0.51,-6.01,-6.01,-6.01
365.49,-6.68,-0.70,-6.69,-0.70,0.70,-0.53,-0.50,-5.99,-5.99,-5.98
369.14,-6.67,-0.70,-6.69,-0.72,0.72,-0.55,-0.49,-5.96,-5.97,-5.98
372.83,-6.66,-0.70,-6.69,-0.74,0.74,-0.57,-0.49,-5.93,-5.95,-5.96
376.56,-6.65,-0.71,-6.69,-0.75,0.75,-0.59,-0.49,-5.90,-5.93,-5.94
380.33,-6.67,-0.76,-6.68,-0.76,0.76,-0.61,-0.48,-5.91,-5.92,-5.91
384.13,-6.67,-0.78,-6.67,-0.77,0.77,-0.64,-0.48,-5.90,-5.90,-5.89
387.97,-6.67,-0.80,-6.65,-0.78,0.78,-0.66,-0.47,-5.90,-5.88,-5.88
391.85,-6.65,-0.80,-6.63,-0.78,0.78,-0.68,-0.47,-5.88,-5.85,-5.86
395.77,-6.63,-0.80,-6.61,-0.77,0.77,-0.70,-0.47,-5.86,-5.83,-5.83
399.73,-6.59,-0.78,-6.58,-0.76,0.76,-0.73,-0.47,-5.83,-5.81,-5.81
403.72,-6.55,-0.76,-6.54,-0.75,0.75,-0.75,-0.47,-5.81,-5.79,-5.79
407.76,-6.50,-0.73,-6.50,-0.73,0.73,-0.78,-0.47,-5.78,-5.77,-5.77
411.84,-6.46,-0.72,-6.45,-0.70,0.70,-0.80,-0.47,-5.76,-5.75,-5.75
415.96,-6.39,-0.67,-6.40,-0.67,0.67,-0.83,-0.47,-5.72,-5.73,-5.73
420.12,-6.33,-0.63,-6.34,-0.64,0.64,-0.86,-0.47,-5.70,-5.71,-5.71
424.32,-6.27,-0.59,-6.28,-0.60,0.60,-0.88,-0.48,-5.68,-5.68,-5.68
428.56,-6.20,-0.54,-6.22,-0.56,0.56,-0.91,-0.48,-5.65,-5.66,-5.66
