frequency,raw,error,smoothed,error_smoothed,equalization,parametric_eq,fixed_band_eq,equalized_raw,equalized_smoothed,target
20.00,-2.63,-11.54,-2.66,-11.57,11.57,10.18,4.81,8.93,8.91,8.91
20.20,-2.61,-11.53,-2.61,-11.53,11.53,10.31,4.94,8.91,8.92,8.91
20.40,-2.58,-11.51,-2.56,-11.49,11.49,10.43,5.06,8.91,8.92,8.92
20.61,-2.52,-11.46,-2.52,-11.45,11.45,10.54,5.19,8.92,8.93,8.93
20.81,-2.47,-11.40,-2.47,-11.41,11.41,10.65,5.33,8.93,8.94,8.93
21.02,-2.42,-11.36,-2.42,-11.37,11.37,10.75,5.46,8.94,8.95,8.94
21.23,-2.37,-11.32,-2.37,-11.32,11.32,10.85,5.60,8.95,8.95,8.95
21.44,-2.33,-11.30,-2.32,-11.28,11.28,10.94,5.75,8.95,8.96,8.97
21.66,-2.28,-11.25,-2.28,-11.24,11.24,11.02,5.90,8.96,8.97,8.97
21.87,-2.23,-11.21,-2.23,-11.20,11.20,11.10,6.05,8.97,8.97,8.98
22.09,-2.17,-11.15,-2.18,-11.16,11.16,11.16,6.21,8.99,8.98,8.98
22.31,-2.13,-11.12,-2.13,-11.12,11.12,11.22,6.37,8.98,8.98,8.99
22.54,-2.08,-11.07,-2.08,-11.07,11.07,11.27,6.53,8.99,8.99,8.98
22.76,-2.03,-11.03,-2.04,-11.03,11.03,11.32,6.70,8.99,8.99,8.99
22.99,-1.98,-10.97,-1.99,-10.98,10.98,11.35,6.88,9.00,8.99,8.99
23.22,-1.94,-10.93,-1.94,-10.94,10.94,11.37,7.06,9.00,9.00,8.99
23.45,-1.89,-10.89,-1.90,-10.90,10.90,11.39,7.24,9.00,9.00,9.00
23.69,-1.85,-10.85,-1.85,-10.85,10.85,11.40,7.43,9.00,9.00,9.00
23.92,-1.81,-10.81,-1.80,-10.81,10.81,11.40,7.62,8.99,9.00,9.00
24.16,-1.76,-10.77,-1.76,-10.76,10.76,11.39,7.81,9.00,9.00,9.01
24.40,-1.71,-10.73,-1.71,-10.72,10.72,11.37,8.01,9.01,9.01,9.01
24.65,-1.66,-10.68,-1.67,-10.68,10.68,11.34,8.22,9.01,9.01,9.01
24.89,-1.63,-10.64,-1.62,-10.63,10.63,11.31,8.42,9.00,9.01,9.01
25.14,-1.58,-10.59,-1.58,-10.59,10.59,11.27,8.63,9.00,9.01,9.01
25.39,-1.53,-10.54,-1.53,-10.54,10.54,11.22,8.85,9.01,9.01,9.01
25.65,-1.48,-10.49,-1.49,-10.50,10.50,11.17,9.07,9.02,9.01,9.01
25.91,-1.45,-10.46,-1.45,-10.46,10.46,11.11,9.29,9.00,9.01,9.00
26.16,-1.39,-10.40,-1.41,-10.41,10.41,11.05,9.51,9.02,9.01,9.01
26.43,-1.37,-10.38,-1.36,-10.37,10.37,10.98,9.73,9.00,9.01,9.01
26.69,-1.31,-10.32,-1.32,-10.33,10.33,10.91,9.95,9.02,9.01,9.01
26.96,-1.28,-10.29,-1.28,-10.29,10.29,10.84,10.18,9.01,9.01,9.01
27.23,-1.24,-10.25,-1.25,-10.25,10.25,10.76,10.40,9.01,9.01,9.00
27.50,-1.20,-10.20,-1.21,-10.21,10.21,10.69,10.62,9.01,9.01,9.00
27.77,-1.17,-10.18,-1.17,-10.17,10.17,10.61,10.83,9.00,9.01,9.01
28.05,-1.14,-10.15,-1.13,-10.14,10.14,10.52,11.04,9.00,9.01,9.01
28.33,-1.09,-10.09,-1.10,-10.10,10.10,10.44,11.24,9.01,9.00,9.00
28.62,-1.06,-10.06,-1.06,-10.07,10.07,10.36,11.43,9.00,9.00,9.00
28.90,-1.03,-10.04,-1.02,-10.03,10.03,10.27,11.61,9.00,9.00,9.01
29.19,-0.98,-9.99,-0.99,-9.99,9.99,10.19,11.78,9.01,9.00,9.00
29.48,-0.95,-9.95,-0.95,-9.95,9.95,10.11,11.93,9.00,9.00,9.00
29.78,-0.92,-9.92,-0.92,-9.92,9.92,10.03,12.06,8.99,9.00,9.00
30.08,-0.88,-9.89,-0.88,-9.88,9.88,9.95,12.17,8.99,8.99,9.00
30.38,-0.84,-9.83,-0.85,-9.84,9.84,9.87,12.27,8.99,8.99,8.99
30.68,-0.81,-9.80,-0.81,-9.80,9.80,9.80,12.34,8.98,8.99,8.99
30.99,-0.77,-9.75,-0.77,-9.75,9.75,9.72,12.39,8.98,8.98,8.98
31.30,-0.73,-9.71,-0.73,-9.71,9.71,9.65,12.41,8.98,8.98,8.98
31.61,-0.70,-9.68,-0.70,-9.67,9.67,9.58,12.41,8.97,8.97,8.97
31.93,-0.66,-9.62,-0.66,-9.63,9.63,9.51,12.39,8.96,8.97,8.96
32.24,-0.62,-9.59,-0.62,-9.58,9.58,9.45,12.34,8.96,8.96,8.96
32.57,-0.59,-9.54,-0.59,-9.54,9.54,9.39,12.28,8.95,8.95,8.95
32.89,-0.55,-9.50,-0.55,-9.50,9.50,9.33,12.19,8.95,8.95,8.95
33.22,-0.50,-9.44,-0.51,-9.45,9.45,9.27,12.08,8.95,8.94,8.94
33.55,-0.47,-9.41,-0.48,-9.41,9.41,9.22,11.96,8.94,8.93,8.93
33.89,-0.44,-9.37,-0.44,-9.37,9.37,9.17,11.82,8.92,8.93,8.93
34.23,-0.40,-9.32,-0.40,-9.32,9.32,9.12,11.67,8.92,8.92,8.91
34.57,-0.36,-9.27,-0.37,-9.27,9.27,9.08,11.51,8.91,8.91,8.91
34.92,-0.33,-9.22,-0.33,-9.23,9.23,9.04,11.35,8.89,8.90,8.89
35.27,-0.29,-9.19,-0.30,-9.18,9.18,9.00,11.17,8.89,8.88,8.89
35.62,-0.27,-9.14,-0.26,-9.13,9.13,8.97,11.00,8.86,8.87,8.87
35.97,-0.23,-9.09,-0.23,-9.09,9.09,8.94,10.81,8.85,8.86,8.86
36.33,-0.19,-9.04,-0.20,-9.04,9.04,8.91,10.63,8.85,8.84,8.84
36.70,-0.16,-8.99,-0.16,-8.99,8.99,8.88,10.45,8.83,8.83,8.83
37.06,-0.13,-8.94,-0.13,-8.94,8.94,8.86,10.26,8.81,8.81,8.81
37.43,-0.10,-8.89,-0.10,-8.89,8.89,8.84,10.08,8.79,8.79,8.79
37.81,-0.05,-8.82,-0.07,-8.84,8.84,8.82,9.90,8.79,8.77,8.77
38.19,-0.04,-8.80,-0.04,-8.79,8.79,8.81,9.72,8.75,8.75,8.75
38.57,-0.01,-8.75,-0.01,-8.74,8.74,8.79,9.55,8.73,8.73,8.73
38.95,0.03,-8.69,0.02,-8.69,8.69,8.78,9.38,8.72,8.71,8.72
39.34,0.05,-8.64,0.05,-8.64,8.64,8.77,9.21,8.69,8.69,8.69
39.74,0.08,-8.59,0.08,-8.59,8.59,8.76,9.05,8.67,8.67,8.67
40.14,0.12,-8.53,0.11,-8.54,8.54,8.75,8.90,8.66,8.65,8.65
40.54,0.14,-8.49,0.13,-8.49,8.49,8.74,8.75,8.63,8.62,8.62
40.94,0.16,-8.44,0.16,-8.44,8.44,8.73,8.60,8.60,8.59,8.59
41.35,0.18,-8.39,0.18,-8.39,8.39,8.72,8.46,8.57,8.57,8.57
41.76,0.21,-8.33,0.20,-8.34,8.34,8.71,8.33,8.55,8.54,8.54
42.18,0.23,-8.29,0.23,-8.29,8.29,8.70,8.20,8.51,8.51,8.52
42.60,0.25,-8.24,0.25,-8.23,8.23,8.69,8.07,8.48,8.48,8.48
43.03,0.27,-8.18,0.27,-8.18,8.18,8.67,7.96,8.45,8.45,8.45
43.46,0.29,-8.13,0.29,-8.13,8.13,8.65,7.84,8.41,8.42,8.42
43.90,0.31,-8.07,0.31,-8.07,8.07,8.62,7.74,8.38,8.38,8.38
44.33,0.34,-8.01,0.34,-8.01,8.01,8.60,7.64,8.35,8.35,8.35
44.78,0.35,-7.96,0.36,-7.96,7.96,8.56,7.54,8.30,8.31,8.31
45.23,0.38,-7.91,0.38,-7.90,7.90,8.53,7.45,8.27,8.28,8.28
45.68,0.41,-7.83,0.40,-7.83,7.83,8.48,7.36,8.24,8.24,8.24
46.13,0.42,-7.77,0.42,-7.77,7.77,8.44,7.28,8.19,8.19,8.19
46.60,0.45,-7.71,0.45,-7.71,7.71,8.38,7.21,8.15,8.15,8.15
47.06,0.47,-7.65,0.47,-7.64,7.64,8.32,7.14,8.11,8.11,8.11
47.53,0.50,-7.58,0.49,-7.58,7.58,8.26,7.07,8.07,8.06,8.07
48.01,0.51,-7.51,0.51,-7.51,7.51,8.18,7.01,8.02,8.02,8.02
48.49,0.54,-7.44,0.53,-7.44,7.44,8.10,6.95,7.98,7.97,7.97
48.97,0.55,-7.37,0.55,-7.37,7.37,8.02,6.90,7.92,7.93,7.92
49.46,0.58,-7.30,0.57,-7.31,7.31,7.93,6.85,7.88,7.88,7.88
49.96,0.60,-7.22,0.59,-7.24,7.24,7.83,6.80,7.84,7.83,7.82
50.46,0.60,-7.18,0.61,-7.17,7.17,7.73,6.76,7.77,7.78,7.77
50.96,0.64,-7.09,0.63,-7.10,7.10,7.63,6.72,7.74,7.73,7.73
51.47,0.64,-7.05,0.65,-7.03,7.03,7.51,6.69,7.67,7.68,7.68
51.99,0.68,-6.95,0.67,-6.96,6.96,7.40,6.65,7.64,7.63,7.63
52.51,0.68,-6.90,0.69,-6.89,6.89,7.28,6.62,7.57,7.58,7.58
53.03,0.73,-6.82,0.71,-6.82,6.82,7.15,6.59,7.55,7.53,7.54
53.56,0.73,-6.76,0.72,-6.75,6.75,7.03,6.56,7.48,7.48,7.49
54.10,0.73,-6.70,0.74,-6.68,6.68,6.90,6.53,7.41,7.43,7.43
54.64,0.77,-6.61,0.76,-6.62,6.62,6.77,6.51,7.38,7.38,7.38
55.18,0.77,-6.55,0.78,-6.55,6.55,6.63,6.48,7.32,7.33,7.31
55.74,0.81,-6.45,0.79,-6.48,6.48,6.50,6.45,7.29,7.28,7.26
56.29,0.81,-6.41,0.81,-6.42,6.42,6.37,6.42,7.23,7.23,7.22
56.86,0.81,-6.37,0.82,-6.35,6.35,6.23,6.39,7.16,7.18,7.17
57.42,0.86,-6.25,0.84,-6.28,6.28,6.09,6.36,7.14,7.12,7.11
58.00,0.86,-6.20,0.85,-6.21,6.21,5.96,6.33,7.07,7.07,7.06
58.58,0.86,-6.17,0.87,-6.14,6.14,5.82,6.29,7.00,7.01,7.02
59.16,0.90,-6.08,0.88,-6.07,6.07,5.69,6.25,6.97,6.95,6.97
59.76,0.90,-6.03,0.90,-6.00,6.00,5.56,6.21,6.89,6.90,6.93
60.35,0.90,-5.96,0.92,-5.92,5.92,5.42,6.16,6.82,6.84,6.85
60.96,0.94,-5.85,0.93,-5.85,5.85,5.29,6.11,6.79,6.78,6.79
61.57,0.94,-5.78,0.94,-5.78,5.78,5.16,6.06,6.71,6.72,6.72
62.18,0.94,-5.71,0.96,-5.70,5.70,5.04,6.00,6.64,6.66,6.64
62.80,0.99,-5.59,0.97,-5.62,5.62,4.91,5.93,6.61,6.59,6.58
63.43,0.99,-5.52,0.98,-5.55,5.55,4.79,5.86,6.54,6.53,6.51
64.07,0.99,-5.47,0.99,-5.47,5.47,4.66,5.79,6.46,6.47,6.45
64.71,1.01,-5.39,1.00,-5.40,5.40,4.55,5.71,6.40,6.40,6.39
65.35,1.03,-5.30,1.02,-5.32,5.32,4.43,5.63,6.34,6.33,6.33
66.01,1.03,-5.24,1.03,-5.24,5.24,4.31,5.55,6.27,6.27,6.27
66.67,1.03,-5.19,1.04,-5.17,5.17,4.20,5.46,6.19,6.20,6.22
67.33,1.04,-5.10,1.05,-5.09,5.09,4.09,5.36,6.13,6.14,6.14
68.01,1.07,-5.01,1.06,-5.01,5.01,3.98,5.27,6.08,6.07,6.08
68.69,1.07,-4.94,1.07,-4.94,4.94,3.87,5.17,6.01,6.01,6.01
69.37,1.07,-4.88,1.08,-4.86,4.86,3.77,5.06,5.93,5.94,5.95
70.07,1.10,-4.78,1.09,-4.78,4.78,3.67,4.96,5.88,5.87,5.88
70.77,1.12,-4.69,1.10,-4.70,4.70,3.57,4.85,5.82,5.80,5.81
71.48,1.12,-4.62,1.11,-4.62,4.62,3.47,4.74,5.74,5.73,5.74
72.19,1.12,-4.55,1.12,-4.54,4.54,3.38,4.63,5.66,5.66,5.66
72.91,1.12,-4.47,1.13,-4.46,4.46,3.28,4.52,5.58,5.59,5.59
73.64,1.16,-4.36,1.14,-4.38,4.38,3.19,4.41,5.54,5.52,5.51
74.38,1.16,-4.29,1.15,-4.30,4.30,3.11,4.30,5.46,5.45,5.45
75.12,1.16,-4.22,1.16,-4.22,4.22,3.02,4.19,5.38,5.39,5.38
75.87,1.16,-4.16,1.17,-4.14,4.14,2.93,4.08,5.30,5.32,5.32
76.63,1.20,-4.05,1.19,-4.06,4.06,2.85,3.97,5.26,5.25,5.24
77.40,1.20,-3.98,1.20,-3.98,3.98,2.77,3.86,5.18,5.18,5.18
78.17,1.20,-3.91,1.21,-3.91,3.91,2.69,3.75,5.11,5.11,5.11
78.95,1.20,-3.85,1.22,-3.83,3.83,2.61,3.64,5.03,5.05,5.05
79.74,1.25,-3.74,1.23,-3.76,3.76,2.54,3.53,5.00,4.98,4.99
80.54,1.25,-3.67,1.24,-3.68,3.68,2.46,3.43,4.93,4.92,4.92
81.35,1.25,-3.60,1.25,-3.60,3.60,2.39,3.32,4.85,4.85,4.85
82.16,1.25,-3.54,1.26,-3.53,3.53,2.32,3.22,4.77,4.78,4.79
82.98,1.27,-3.45,1.27,-3.45,3.45,2.25,3.12,4.72,4.72,4.72
83.81,1.29,-3.36,1.28,-3.37,3.37,2.18,3.02,4.66,4.65,4.65
84.65,1.29,-3.29,1.28,-3.29,3.29,2.12,2.92,4.58,4.58,4.58
85.50,1.29,-3.21,1.29,-3.22,3.22,2.05,2.83,4.51,4.51,4.50
86.35,1.29,-3.15,1.30,-3.14,3.14,1.99,2.73,4.43,4.44,4.44
87.22,1.29,-3.08,1.31,-3.06,3.06,1.92,2.64,4.35,4.37,4.37
88.09,1.33,-2.97,1.31,-2.98,2.98,1.86,2.55,4.31,4.30,4.29
88.97,1.33,-2.90,1.32,-2.90,2.90,1.80,2.46,4.23,4.22,4.23
89.86,1.33,-2.82,1.33,-2.82,2.82,1.74,2.37,4.15,4.15,4.15
90.76,1.33,-2.75,1.34,-2.74,2.74,1.69,2.29,4.07,4.08,4.08
91.66,1.33,-2.67,1.34,-2.66,2.66,1.63,2.20,3.99,4.00,4.00
92.58,1.34,-2.59,1.35,-2.58,2.58,1.57,2.12,3.92,3.93,3.93
93.51,1.36,-2.50,1.35,-2.50,2.50,1.52,2.04,3.85,3.85,3.86
94.44,1.38,-2.41,1.36,-2.41,2.41,1.46,1.96,3.79,3.77,3.78
95.39,1.38,-2.32,1.37,-2.33,2.33,1.41,1.89,3.71,3.70,3.70
96.34,1.38,-2.24,1.37,-2.25,2.25,1.36,1.81,3.62,3.62,3.62
97.30,1.38,-2.17,1.38,-2.16,2.16,1.31,1.74,3.54,3.54,3.54
98.28,1.38,-2.08,1.38,-2.08,2.08,1.26,1.66,3.46,3.47,3.46
99.26,1.38,-2.00,1.39,-2.00,2.00,1.21,1.59,3.38,3.39,3.38
100.25,1.38,-1.92,1.39,-1.92,1.92,1.16,1.52,3.30,3.31,3.30
101.25,1.38,-1.86,1.40,-1.84,1.84,1.11,1.46,3.22,3.24,3.24
102.27,1.42,-1.74,1.40,-1.76,1.76,1.06,1.39,3.18,3.16,3.16
103.29,1.42,-1.67,1.41,-1.69,1.69,1.01,1.32,3.10,3.09,3.09
104.32,1.42,-1.60,1.41,-1.61,1.61,0.97,1.26,3.03,3.02,3.02
105.37,1.42,-1.53,1.41,-1.53,1.53,0.92,1.19,2.95,2.94,2.95
106.42,1.42,-1.46,1.42,-1.45,1.45,0.87,1.13,2.87,2.87,2.88
107.48,1.42,-1.38,1.42,-1.38,1.38,0.83,1.07,2.79,2.80,2.79
108.56,1.42,-1.31,1.43,-1.30,1.30,0.78,1.01,2.71,2.72,2.73
109.64,1.44,-1.22,1.43,-1.22,1.22,0.74,0.95,2.66,2.65,2.65
110.74,1.44,-1.14,1.44,-1.14,1.14,0.69,0.89,2.58,2.58,2.58
111.85,1.44,-1.07,1.44,-1.06,1.06,0.65,0.83,2.49,2.50,2.50
112.97,1.46,-0.97,1.45,-0.98,0.98,0.60,0.78,2.43,2.42,2.43
114.10,1.46,-0.90,1.45,-0.90,0.90,0.56,0.72,2.35,2.35,2.36
115.24,1.46,-0.81,1.46,-0.81,0.81,0.52,0.66,2.27,2.27,2.27
116.39,1.46,-0.73,1.47,-0.73,0.73,0.47,0.61,2.19,2.20,2.19
117.55,1.46,-0.66,1.47,-0.65,0.65,0.43,0.56,2.11,2.12,2.12
118.73,1.46,-0.58,1.48,-0.57,0.57,0.39,0.50,2.02,2.05,2.03
119.92,1.51,-0.46,1.49,-0.49,0.49,0.34,0.45,1.99,1.97,1.96
121.12,1.51,-0.39,1.49,-0.40,0.40,0.30,0.40,1.91,1.90,1.90
122.33,1.51,-0.31,1.50,-0.33,0.33,0.25,0.35,1.83,1.82,1.82
123.55,1.51,-0.24,1.50,-0.25,0.25,0.21,0.30,1.75,1.75,1.75
124.79,1.51,-0.18,1.50,-0.17,0.17,0.17,0.25,1.68,1.67,1.68
126.03,1.51,-0.10,1.51,-0.09,0.09,0.12,0.20,1.60,1.60,1.61
127.29,1.51,-0.02,1.51,-0.02,0.02,0.08,0.15,1.52,1.52,1.53
128.57,1.51,0.06,1.51,0.06,-0.06,0.03,0.10,1.45,1.45,1.45
129.85,1.51,0.13,1.51,0.13,-0.13,-0.01,0.06,1.37,1.38,1.38
131.15,1.51,0.20,1.51,0.21,-0.21,-0.05,0.01,1.30,1.31,1.30
132.46,1.51,0.28,1.51,0.28,-0.28,-0.10,-0.04,1.23,1.23,1.23
133.79,1.51,0.35,1.51,0.35,-0.35,-0.15,-0.09,1.16,1.16,1.16
135.12,1.51,0.42,1.51,0.42,-0.42,-0.19,-0.13,1.09,1.09,1.09
136.48,1.51,0.48,1.51,0.48,-0.48,-0.24,-0.18,1.02,1.02,1.03
137.84,1.51,0.55,1.51,0.55,-0.55,-0.29,-0.23,0.96,0.96,0.96
139.22,1.51,0.63,1.51,0.62,-0.62,-0.33,-0.28,0.89,0.89,0.88
140.61,1.51,0.68,1.51,0.68,-0.68,-0.38,-0.32,0.83,0.82,0.82
142.02,1.51,0.75,1.51,0.75,-0.75,-0.43,-0.37,0.76,0.76,0.76
143.44,1.51,0.81,1.51,0.81,-0.81,-0.48,-0.42,0.70,0.70,0.69
144.87,1.51,0.87,1.51,0.87,-0.87,-0.53,-0.47,0.64,0.64,0.64
146.32,1.51,0.93,1.51,0.93,-0.93,-0.59,-0.51,0.57,0.58,0.58
147.78,1.51,0.99,1.51,1.00,-1.00,-0.64,-0.56,0.51,0.52,0.52
149.26,1.51,1.05,1.51,1.06,-1.06,-0.69,-0.61,0.45,0.46,0.46
150.75,1.51,1.12,1.52,1.12,-1.12,-0.75,-0.66,0.39,0.40,0.39
152.26,1.53,1.18,1.52,1.18,-1.18,-0.80,-0.72,0.35,0.34,0.34
153.78,1.53,1.25,1.52,1.24,-1.24,-0.86,-0.77,0.29,0.28,0.28
155.32,1.53,1.30,1.52,1.30,-1.30,-0.92,-0.82,0.23,0.22,0.23
156.88,1.53,1.37,1.52,1.37,-1.37,-0.98,-0.87,0.16,0.16,0.16
158.44,1.53,1.43,1.53,1.43,-1.43,-1.04,-0.93,0.10,0.10,0.10
160.03,1.53,1.49,1.53,1.49,-1.49,-1.10,-0.98,0.04,0.04,0.04
161.63,1.53,1.55,1.53,1.55,-1.55,-1.16,-1.04,-0.02,-0.02,-0.02
163.24,1.53,1.61,1.53,1.61,-1.61,-1.23,-1.10,-0.08,-0.08,-0.09
164.88,1.53,1.67,1.53,1.67,-1.67,-1.29,-1.16,-0.14,-0.14,-0.14
166.53,1.53,1.73,1.53,1.73,-1.73,-1.36,-1.22,-0.20,-0.20,-0.21
168.19,1.53,1.79,1.53,1.79,-1.79,-1.43,-1.28,-0.26,-0.26,-0.26
169.87,1.53,1.85,1.52,1.85,-1.85,-1.50,-1.34,-0.32,-0.32,-0.32
171.57,1.53,1.91,1.52,1.90,-1.90,-1.57,-1.40,-0.38,-0.38,-0.38
173.29,1.53,1.97,1.52,1.96,-1.96,-1.64,-1.47,-0.43,-0.44,-0.44
175.02,1.52,2.02,1.52,2.02,-2.02,-1.72,-1.53,-0.50,-0.50,-0.50
176.77,1.51,2.07,1.52,2.08,-2.08,-1.79,-1.60,-0.57,-0.56,-0.56
178.54,1.51,2.12,1.51,2.13,-2.13,-1.87,-1.67,-0.62,-0.62,-0.62
180.32,1.51,2.19,1.51,2.19,-2.19,-1.95,-1.74,-0.68,-0.68,-0.68
182.13,1.51,2.24,1.51,2.24,-2.24,-2.03,-1.81,-0.74,-0.73,-0.73
183.95,1.51,2.29,1.51,2.30,-2.30,-2.10,-1.88,-0.79,-0.79,-0.79
185.79,1.51,2.36,1.51,2.35,-2.35,-2.18,-1.96,-0.85,-0.85,-0.85
187.65,1.51,2.41,1.51,2.41,-2.41,-2.26,-2.03,-0.90,-0.90,-0.90
189.52,1.51,2.47,1.51,2.46,-2.46,-2.35,-2.11,-0.96,-0.96,-0.96
191.42,1.51,2.51,1.51,2.52,-2.52,-2.43,-2.19,-1.01,-1.01,-1.01
193.33,1.51,2.57,1.51,2.57,-2.57,-2.51,-2.27,-1.07,-1.06,-1.06
195.27,1.51,2.63,1.51,2.63,-2.63,-2.58,-2.35,-1.12,-1.12,-1.12
197.22,1.51,2.68,1.51,2.68,-2.68,-2.66,-2.43,-1.17,-1.17,-1.17
199.19,1.51,2.72,1.51,2.72,-2.72,-2.74,-2.51,-1.22,-1.21,-1.22
201.18,1.51,2.78,1.51,2.77,-2.77,-2.81,-2.59,-1.26,-1.26,-1.27
203.19,1.51,2.82,1.50,2.81,-2.81,-2.89,-2.68,-1.30,-1.31,-1.31
205.23,1.51,2.86,1.50,2.85,-2.85,-2.96,-2.76,-1.35,-1.35,-1.35
207.28,1.51,2.90,1.50,2.89,-2.89,-3.02,-2.84,-1.39,-1.40,-1.39
209.35,1.51,2.95,1.49,2.93,-2.93,-3.08,-2.92,-1.42,-1.44,-1.44
211.44,1.51,2.99,1.49,2.97,-2.97,-3.14,-3.00,-1.46,-1.48,-1.48
213.56,1.49,3.00,1.48,3.00,-3.00,-3.20,-3.08,-1.51,-1.52,-1.52
215.69,1.46,3.01,1.48,3.04,-3.04,-3.25,-3.16,-1.58,-1.56,-1.55
217.85,1.46,3.04,1.48,3.07,-3.07,-3.29,-3.24,-1.61,-1.59,-1.59
220.03,1.46,3.09,1.47,3.10,-3.10,-3.33,-3.31,-1.64,-1.63,-1.63
222.23,1.46,3.12,1.47,3.13,-3.13,-3.37,-3.39,-1.67,-1.66,-1.67
224.45,1.46,3.16,1.46,3.16,-3.16,-3.40,-3.46,-1.70,-1.69,-1.70
226.70,1.46,3.19,1.46,3.18,-3.18,-3.42,-3.52,-1.72,-1.73,-1.73
228.96,1.46,3.21,1.45,3.21,-3.21,-3.44,-3.59,-1.75,-1.76,-1.75
231.25,1.46,3.24,1.45,3.23,-3.23,-3.46,-3.64,-1.77,-1.79,-1.78
233.57,1.46,3.27,1.44,3.26,-3.26,-3.47,-3.70,-1.80,-1.81,-1.81
235.90,1.46,3.30,1.44,3.28,-3.28,-3.47,-3.75,-1.82,-1.84,-1.84
238.26,1.44,3.31,1.44,3.30,-3.30,-3.47,-3.79,-1.87,-1.86,-1.87
240.64,1.42,3.30,1.44,3.32,-3.32,-3.47,-3.83,-1.91,-1.89,-1.88
243.05,1.42,3.32,1.43,3.34,-3.34,-3.47,-3.87,-1.92,-1.91,-1.91
245.48,1.42,3.35,1.43,3.36,-3.36,-3.46,-3.89,-1.94,-1.93,-1.93
247.93,1.42,3.38,1.42,3.37,-3.37,-3.45,-3.92,-1.95,-1.95,-1.96
250.41,1.42,3.38,1.42,3.38,-3.38,-3.44,-3.93,-1.97,-1.97,-1.97
252.92,1.42,3.40,1.41,3.40,-3.40,-3.42,-3.94,-1.98,-1.99,-1.98
255.45,1.42,3.42,1.40,3.41,-3.41,-3.41,-3.94,-1.99,-2.00,-2.01
258.00,1.40,3.42,1.40,3.42,-3.42,-3.39,-3.94,-2.02,-2.02,-2.02
260.58,1.38,3.41,1.39,3.42,-3.42,-3.37,-3.94,-2.05,-2.03,-2.03
263.19,1.38,3.42,1.38,3.43,-3.43,-3.36,-3.92,-2.05,-2.05,-2.05
265.82,1.38,3.44,1.38,3.44,-3.44,-3.34,-3.90,-2.06,-2.06,-2.06
268.48,1.38,3.45,1.37,3.44,-3.44,-3.32,-3.88,-2.07,-2.07,-2.07
271.16,1.38,3.46,1.36,3.45,-3.45,-3.31,-3.85,-2.07,-2.09,-2.08
273.87,1.35,3.44,1.35,3.45,-3.45,-3.29,-3.82,-2.10,-2.10,-2.09
276.61,1.33,3.43,1.34,3.45,-3.45,-3.27,-3.79,-2.12,-2.10,-2.11
279.38,1.33,3.45,1.34,3.45,-3.45,-3.26,-3.75,-2.12,-2.11,-2.13
282.17,1.33,3.45,1.33,3.45,-3.45,-3.25,-3.71,-2.12,-2.12,-2.13
284.99,1.33,3.45,1.32,3.45,-3.45,-3.23,-3.66,-2.12,-2.13,-2.13
287.84,1.32,3.44,1.31,3.45,-3.45,-3.22,-3.62,-2.13,-2.13,-2.13
290.72,1.29,3.43,1.30,3.44,-3.44,-3.21,-3.57,-2.16,-2.14,-2.14
293.63,1.29,3.43,1.30,3.44,-3.44,-3.21,-3.52,-2.15,-2.14,-2.14
296.57,1.29,3.43,1.29,3.43,-3.43,-3.20,-3.47,-2.15,-2.15,-2.14
299.53,1.29,3.44,1.28,3.43,-3.43,-3.19,-3.42,-2.14,-2.15,-2.15
302.53,1.29,3.44,1.27,3.42,-3.42,-3.18,-3.37,-2.13,-2.15,-2.15
305.55,1.25,3.40,1.26,3.42,-3.42,-3.18,-3.32,-2.17,-2.15,-2.16
308.61,1.25,3.40,1.25,3.41,-3.41,-3.18,-3.27,-2.16,-2.16,-2.15
311.69,1.25,3.41,1.24,3.40,-3.40,-3.17,-3.23,-2.15,-2.16,-2.16
314.81,1.25,3.40,1.23,3.39,-3.39,-3.17,-3.18,-2.14,-2.16,-2.16
317.96,1.22,3.38,1.22,3.38,-3.38,-3.17,-3.13,-2.16,-2.16,-2.16
321.14,1.20,3.36,1.21,3.37,-3.37,-3.17,-3.09,-2.17,-2.16,-2.16
324.35,1.20,3.36,1.20,3.36,-3.36,-3.17,-3.04,-2.16,-2.16,-2.17
327.59,1.20,3.35,1.19,3.35,-3.35,-3.17,-3.00,-2.15,-2.16,-2.15
330.87,1.16,3.31,1.18,3.33,-3.33,-3.17,-2.96,-2.18,-2.16,-2.16
334.18,1.16,3.32,1.16,3.32,-3.32,-3.17,-2.92,-2.16,-2.16,-2.16
337.52,1.16,3.31,1.15,3.31,-3.31,-3.17,-2.89,-2.15,-2.15,-2.16
340.90,1.16,3.31,1.14,3.29,-3.29,-3.17,-2.85,-2.14,-2.15,-2.15
344.30,1.12,3.26,1.13,3.28,-3.28,-3.17,-2.82,-2.16,-2.15,-2.15
347.75,1.12,3.26,1.12,3.26,-3.26,-3.17,-2.79,-2.14,-2.14,-2.14
351.23,1.12,3.26,1.10,3.25,-3.25,-3.16,-2.76,-2.13,-2.14,-2.15
354.74,1.09,3.22,1.09,3.23,-3.23,-3.16,-2.74,-2.14,-2.14,-2.13
358.28,1.07,3.20,1.08,3.21,-3.21,-3.16,-2.72,-2.14,-2.13,-2.13
361.87,1.07,3.20,1.06,3.19,-3.19,-3.16,-2.70,-2.12,-2.13,-2.13
365.49,1.07,3.19,1.05,3.17,-3.17,-3.16,-2.68,-2.10,-2.12,-2.12
369.14,1.03,3.14,1.04,3.15,-3.15,-3.15,-2.66,-2.13,-2.12,-2.12
372.83,1.03,3.14,1.02,3.13,-3.13,-3.15,-2.65,-2.10,-2.11,-2.11
376.56,0.99,3.10,1.00,3.11,-3.11,-3.14,-2.63,-2.12,-2.11,-2.11
380.33,0.99,3.09,0.99,3.09,-3.09,-3.13,-2.62,-2.10,-2.10,-2.11
384.13,0.99,3.09,0.97,3.07,-3.07,-3.13,-2.61,-2.08,-2.10,-2.10
387.97,0.94,3.03,0.96,3.05,-3.05,-3.12,-2.61,-2.11,-2.09,-2.09
391.85,0.94,3.02,0.94,3.03,-3.03,-3.11,-2.60,-2.09,-2.09,-2.08
395.77,0.94,3.03,0.93,3.01,-3.01,-3.10,-2.60,-2.07,-2.08,-2.09
399.73,0.90,2.98,0.91,2.99,-2.99,-3.08,-2.60,-2.09,-2.08,-2.08
403.72,0.90,2.96,0.89,2.96,-2.96,-3.07,-2.60,-2.07,-2.07,-2.06
407.76,0.90,2.96,0.88,2.94,-2.94,-3.06,-2.60,-2.05,-2.06,-2.07
411.84,0.86,2.92,0.86,2.92,-2.92,-3.04,-2.60,-2.07,-2.06,-2.06
415.96,0.86,2.91,0.85,2.90,-2.90,-3.02,-2.60,-2.04,-2.05,-2.05
420.12,0.83,2.88,0.83,2.88,-2.88,-3.00,-2.61,-2.05,-2.05,-2.05
424.32,0.81,2.85,0.82,2.86,-2.86,-2.98,-2.61,-2.05,-2.04,-2.04
428.56,0.81,2.83,0.80,2.83,-2.83,-2.96,-2.62,-2.02,-2.03,-2.03
432.85,0.77,2.79,0.78,2.81,-2.81,-2.94,-2.62,-2.04,-2.03,-2.02
437.18,0.77,2.79,0.76,2.78,-2.78,-2.91,-2.63,-2.01,-2.02,-2.02
441.55,0.75,2.76,0.74,2.75,-2.75,-2.89,-2.63,-2.01,-2.01,-2.01
445.96,0.73,2.73,0.73,2.73,-2.73,-2.86,-2.63,-2.00,-2.00,-2.00
450.42,0.73,2.72,0.71,2.70,-2.70,-2.84,-2.64,-1.97,-1.99,-2.00
454.93,0.68,2.66,0.69,2.67,-2.67,-2.81,-2.64,-2.00,-1.98,-1.99
459.48,0.68,2.66,0.67,2.65,-2.65,-2.78,-2.64,-1.97,-1.97,-1.98
464.07,0.64,2.60,0.65,2.62,-2.62,-2.75,-2.64,-1.98,-1.97,-1.96
468.71,0.64,2.59,0.63,2.59,-2.59,-2.72,-2.64,-1.95,-1.96,-1.95
473.40,0.61,2.55,0.61,2.56,-2.56,-2.68,-2.64,-1.95,-1.95,-1.94
478.13,0.60,2.53,0.59,2.53,-2.53,-2.65,-2.63,-1.93,-1.94,-1.93
482.91,0.58,2.50,0.58,2.50,-2.50,-2.62,-2.62,-1.92,-1.93,-1.93
487.74,0.55,2.46,0.55,2.47,-2.47,-2.58,-2.61,-1.92,-1.92,-1.92
492.62,0.55,2.46,0.54,2.44,-2.44,-2.55,-2.60,-1.89,-1.90,-1.91
497.55,0.51,2.41,0.52,2.41,-2.41,-2.51,-2.59,-1.90,-1.89,-1.90
502.52,0.51,2.40,0.50,2.38,-2.38,-2.47,-2.57,-1.87,-1.88,-1.89
