frequency,raw,error,smoothed,error_smoothed,equalization,parametric_eq,fixed_band_eq,equalized_raw,equalized_smoothed,target
20.00,15.34,0.09,15.34,0.09,-0.09,-0.70,-0.61,15.25,15.25,15.25
20.20,15.38,0.14,15.37,0.14,-0.14,-0.71,-0.62,15.24,15.24,15.24
20.40,15.42,0.19,15.41,0.19,-0.19,-0.73,-0.64,15.23,15.22,15.23
20.61,15.46,0.24,15.45,0.24,-0.24,-0.74,-0.66,15.21,15.21,15.22
20.81,15.49,0.29,15.49,0.29,-0.29,-0.75,-0.67,15.20,15.20,15.20
21.02,15.53,0.34,15.53,0.34,-0.34,-0.77,-0.69,15.19,15.19,15.19
21.23,15.57,0.39,15.57,0.39,-0.39,-0.78,-0.71,15.18,15.18,15.18
21.44,15.61,0.42,15.61,0.44,-0.44,-0.80,-0.73,15.17,15.17,15.19
21.66,15.65,0.48,15.65,0.48,-0.48,-0.81,-0.75,15.16,15.16,15.17
21.87,15.69,0.52,15.68,0.53,-0.53,-0.83,-0.77,15.16,15.15,15.17
22.09,15.73,0.58,15.72,0.58,-0.58,-0.84,-0.79,15.15,15.15,15.15
22.31,15.76,0.62,15.76,0.62,-0.62,-0.86,-0.81,15.13,15.14,15.14
22.54,15.80,0.67,15.80,0.67,-0.67,-0.87,-0.83,15.13,15.13,15.13
22.76,15.84,0.71,15.84,0.71,-0.71,-0.89,-0.85,15.13,15.13,15.13
22.99,15.88,0.76,15.87,0.75,-0.75,-0.91,-0.88,15.12,15.12,15.12
23.22,15.92,0.81,15.91,0.80,-0.80,-0.92,-0.90,15.12,15.12,15.11
23.45,15.95,0.83,15.95,0.84,-0.84,-0.94,-0.92,15.11,15.11,15.12
23.69,15.99,0.88,15.99,0.88,-0.88,-0.96,-0.95,15.10,15.11,15.11
23.92,16.03,0.93,16.02,0.92,-0.92,-0.98,-0.97,15.10,15.10,15.10
24.16,16.06,0.95,16.06,0.96,-0.96,-0.99,-1.00,15.09,15.10,15.11
24.40,16.10,0.99,16.10,1.00,-1.00,-1.01,-1.02,15.10,15.10,15.11
24.65,16.14,1.04,16.13,1.04,-1.04,-1.03,-1.05,15.10,15.09,15.10
24.89,16.17,1.07,16.17,1.08,-1.08,-1.05,-1.08,15.09,15.09,15.10
25.14,16.21,1.12,16.21,1.12,-1.12,-1.07,-1.10,15.09,15.09,15.09
25.39,16.25,1.16,16.24,1.15,-1.15,-1.09,-1.13,15.09,15.09,15.09
25.65,16.28,1.19,16.28,1.19,-1.19,-1.11,-1.16,15.09,15.09,15.09
25.91,16.32,1.23,16.31,1.23,-1.23,-1.13,-1.18,15.09,15.09,15.09
26.16,16.35,1.25,16.35,1.26,-1.26,-1.15,-1.21,15.08,15.09,15.10
26.43,16.39,1.30,16.38,1.30,-1.30,-1.17,-1.24,15.09,15.09,15.09
26.69,16.42,1.33,16.42,1.33,-1.33,-1.19,-1.27,15.09,15.09,15.09
26.96,16.45,1.36,16.45,1.36,-1.36,-1.21,-1.30,15.08,15.09,15.09
27.23,16.49,1.40,16.48,1.39,-1.39,-1.24,-1.33,15.09,15.09,15.09
27.50,16.52,1.43,16.52,1.42,-1.42,-1.26,-1.35,15.09,15.09,15.09
27.77,16.55,1.45,16.55,1.45,-1.45,-1.28,-1.38,15.09,15.09,15.10
28.05,16.58,1.49,16.58,1.48,-1.48,-1.30,-1.41,15.09,15.09,15.09
28.33,16.61,1.51,16.61,1.51,-1.51,-1.33,-1.44,15.09,15.09,15.10
28.62,16.64,1.54,16.64,1.54,-1.54,-1.35,-1.46,15.09,15.10,15.10
28.90,16.67,1.56,16.67,1.57,-1.57,-1.38,-1.49,15.10,15.10,15.11
29.19,16.70,1.59,16.69,1.60,-1.60,-1.40,-1.52,15.10,15.09,15.11
29.48,16.72,1.62,16.72,1.63,-1.63,-1.43,-1.54,15.09,15.09,15.10
29.78,16.75,1.65,16.74,1.65,-1.65,-1.45,-1.57,15.09,15.09,15.10
30.08,16.78,1.68,16.77,1.68,-1.68,-1.48,-1.59,15.10,15.09,15.10
30.38,16.80,1.72,16.79,1.71,-1.71,-1.50,-1.62,15.09,15.09,15.08
30.68,16.82,1.74,16.82,1.73,-1.73,-1.53,-1.64,15.08,15.08,15.08
30.99,16.84,1.76,16.84,1.76,-1.76,-1.56,-1.66,15.07,15.08,15.08
31.30,16.86,1.78,16.86,1.79,-1.79,-1.58,-1.68,15.07,15.07,15.08
31.61,16.88,1.81,16.88,1.81,-1.81,-1.61,-1.70,15.06,15.06,15.07
31.93,16.90,1.85,16.90,1.84,-1.84,-1.64,-1.72,15.06,15.06,15.05
32.24,16.91,1.85,16.91,1.87,-1.87,-1.67,-1.74,15.04,15.05,15.06
32.57,16.93,1.89,16.93,1.89,-1.89,-1.70,-1.76,15.04,15.04,15.04
32.89,16.95,1.91,16.94,1.91,-1.91,-1.73,-1.78,15.04,15.04,15.04
33.22,16.97,1.94,16.96,1.93,-1.93,-1.76,-1.80,15.04,15.03,15.03
33.55,16.98,1.95,16.97,1.95,-1.95,-1.79,-1.82,15.03,15.02,15.03
33.89,16.99,1.97,16.98,1.97,-1.97,-1.82,-1.84,15.02,15.01,15.02
34.23,17.00,2.00,16.99,1.99,-1.99,-1.85,-1.86,15.01,15.01,15.00
34.57,17.01,2.01,17.00,2.01,-2.01,-1.88,-1.87,15.00,15.00,15.00
34.92,17.02,2.04,17.01,2.03,-2.03,-1.91,-1.89,14.99,14.99,14.98
35.27,17.03,2.03,17.02,2.05,-2.05,-1.94,-1.91,14.98,14.98,15.00
35.62,17.03,2.06,17.03,2.07,-2.07,-1.98,-1.93,14.96,14.97,14.97
35.97,17.04,2.07,17.04,2.09,-2.09,-2.01,-1.95,14.95,14.95,14.97
36.33,17.05,2.10,17.05,2.11,-2.11,-2.04,-1.97,14.94,14.94,14.95
36.70,17.06,2.13,17.06,2.13,-2.13,-2.08,-1.99,14.92,14.92,14.93
37.06,17.07,2.16,17.07,2.16,-2.16,-2.11,-2.01,14.91,14.91,14.91
37.43,17.08,2.19,17.08,2.19,-2.19,-2.14,-2.03,14.89,14.89,14.89
37.81,17.09,2.21,17.09,2.22,-2.22,-2.18,-2.06,14.87,14.87,14.88
38.19,17.10,2.25,17.10,2.25,-2.25,-2.22,-2.08,14.85,14.85,14.85
38.57,17.11,2.28,17.11,2.28,-2.28,-2.25,-2.11,14.82,14.83,14.83
38.95,17.12,2.30,17.13,2.32,-2.32,-2.29,-2.13,14.80,14.81,14.82
39.34,17.14,2.35,17.14,2.36,-2.36,-2.32,-2.16,14.78,14.78,14.79
39.74,17.16,2.40,17.15,2.39,-2.39,-2.36,-2.19,14.76,14.76,14.76
40.14,17.18,2.44,17.17,2.43,-2.43,-2.40,-2.22,14.75,14.74,14.74
40.54,17.19,2.47,17.18,2.47,-2.47,-2.44,-2.25,14.72,14.72,14.72
40.94,17.21,2.52,17.20,2.50,-2.50,-2.48,-2.29,14.70,14.70,14.69
41.35,17.22,2.54,17.21,2.54,-2.54,-2.51,-2.32,14.68,14.67,14.68
41.76,17.23,2.58,17.23,2.58,-2.58,-2.55,-2.36,14.65,14.65,14.65
42.18,17.25,2.61,17.24,2.62,-2.62,-2.59,-2.40,14.63,14.63,14.64
42.60,17.26,2.65,17.26,2.65,-2.65,-2.63,-2.44,14.60,14.60,14.61
43.03,17.28,2.69,17.27,2.69,-2.69,-2.67,-2.49,14.59,14.58,14.59
43.46,17.29,2.74,17.28,2.73,-2.73,-2.71,-2.53,14.56,14.55,14.55
43.90,17.30,2.77,17.29,2.77,-2.77,-2.75,-2.58,14.53,14.53,14.53
44.33,17.31,2.81,17.31,2.81,-2.81,-2.80,-2.63,14.50,14.50,14.50
44.78,17.32,2.84,17.32,2.85,-2.85,-2.84,-2.68,14.47,14.47,14.48
45.23,17.33,2.87,17.33,2.89,-2.89,-2.88,-2.73,14.43,14.44,14.46
45.68,17.34,2.93,17.34,2.94,-2.94,-2.92,-2.79,14.40,14.41,14.41
46.13,17.36,2.98,17.36,2.99,-2.99,-2.96,-2.84,14.37,14.37,14.38
46.60,17.37,3.03,17.37,3.04,-3.04,-3.01,-2.90,14.33,14.33,14.34
47.06,17.39,3.08,17.39,3.09,-3.09,-3.05,-2.96,14.30,14.30,14.31
47.53,17.41,3.14,17.40,3.15,-3.15,-3.09,-3.02,14.26,14.26,14.27
48.01,17.42,3.20,17.42,3.20,-3.20,-3.14,-3.09,14.22,14.22,14.22
48.49,17.43,3.25,17.43,3.26,-3.26,-3.18,-3.15,14.17,14.18,14.18
48.97,17.45,3.32,17.45,3.31,-3.31,-3.23,-3.22,14.13,14.14,14.13
49.46,17.46,3.36,17.46,3.37,-3.37,-3.27,-3.29,14.09,14.09,14.10
49.96,17.48,3.44,17.48,3.43,-3.43,-3.31,-3.36,14.05,14.05,14.04
50.46,17.49,3.48,17.49,3.48,-3.48,-3.36,-3.43,14.01,14.01,14.01
50.96,17.51,3.54,17.50,3.53,-3.53,-3.40,-3.50,13.98,13.97,13.97
51.47,17.51,3.58,17.50,3.58,-3.58,-3.45,-3.57,13.93,13.92,13.93
51.99,17.52,3.64,17.51,3.62,-3.62,-3.49,-3.65,13.89,13.88,13.88
52.51,17.52,3.67,17.51,3.66,-3.66,-3.54,-3.72,13.85,13.84,13.85
53.03,17.52,3.70,17.50,3.70,-3.70,-3.59,-3.79,13.81,13.80,13.82
53.56,17.51,3.74,17.50,3.74,-3.74,-3.63,-3.86,13.77,13.76,13.77
54.10,17.50,3.78,17.49,3.77,-3.77,-3.68,-3.94,13.73,13.72,13.72
54.64,17.48,3.80,17.48,3.80,-3.80,-3.72,-4.01,13.68,13.68,13.68
55.18,17.46,3.82,17.47,3.82,-3.82,-3.77,-4.08,13.63,13.64,13.64
55.74,17.45,3.86,17.45,3.84,-3.84,-3.81,-4.14,13.60,13.61,13.59
56.29,17.43,3.86,17.43,3.87,-3.87,-3.86,-4.21,13.56,13.57,13.57
56.86,17.41,3.88,17.41,3.89,-3.89,-3.90,-4.27,13.52,13.53,13.53
57.42,17.40,3.92,17.39,3.91,-3.91,-3.95,-4.33,13.49,13.48,13.48
58.00,17.38,3.94,17.37,3.93,-3.93,-4.00,-4.39,13.44,13.44,13.44
58.58,17.36,3.95,17.35,3.96,-3.96,-4.04,-4.45,13.40,13.40,13.41
59.16,17.34,3.96,17.33,3.98,-3.98,-4.09,-4.50,13.36,13.35,13.38
59.76,17.32,3.99,17.31,4.01,-4.01,-4.13,-4.54,13.31,13.30,13.33
60.35,17.30,4.02,17.29,4.03,-4.03,-4.17,-4.58,13.26,13.26,13.28
60.96,17.28,4.06,17.27,4.07,-4.07,-4.22,-4.62,13.21,13.21,13.22
61.57,17.26,4.10,17.26,4.10,-4.10,-4.26,-4.66,13.16,13.16,13.16
62.18,17.23,4.13,17.24,4.13,-4.13,-4.31,-4.69,13.09,13.10,13.10
62.80,17.22,4.18,17.22,4.17,-4.17,-4.35,-4.71,13.04,13.05,13.04
63.43,17.20,4.21,17.21,4.21,-4.21,-4.39,-4.73,12.98,13.00,12.99
64.07,17.19,4.25,17.20,4.25,-4.25,-4.44,-4.74,12.93,12.94,12.94
64.71,17.18,4.29,17.18,4.30,-4.30,-4.48,-4.76,12.88,12.89,12.89
65.35,17.18,4.35,17.17,4.34,-4.34,-4.52,-4.76,12.84,12.83,12.83
66.01,17.17,4.39,17.17,4.39,-4.39,-4.56,-4.76,12.78,12.78,12.78
66.67,17.16,4.42,17.16,4.43,-4.43,-4.60,-4.76,12.72,12.72,12.74
67.33,17.15,4.48,17.15,4.48,-4.48,-4.64,-4.76,12.67,12.67,12.67
68.01,17.14,4.52,17.14,4.52,-4.52,-4.68,-4.75,12.61,12.61,12.62
68.69,17.13,4.56,17.13,4.57,-4.57,-4.72,-4.74,12.56,12.56,12.57
69.37,17.13,4.61,17.12,4.61,-4.61,-4.76,-4.73,12.51,12.50,12.52
70.07,17.12,4.66,17.10,4.66,-4.66,-4.79,-4.71,12.46,12.45,12.46
70.77,17.10,4.71,17.09,4.70,-4.70,-4.83,-4.70,12.40,12.39,12.39
71.48,17.09,4.75,17.07,4.74,-4.74,-4.87,-4.68,12.35,12.33,12.34
72.19,17.06,4.78,17.05,4.78,-4.78,-4.90,-4.66,12.28,12.27,12.28
72.91,17.04,4.83,17.03,4.81,-4.81,-4.94,-4.65,12.22,12.22,12.21
73.64,17.01,4.85,17.01,4.85,-4.85,-4.97,-4.63,12.16,12.16,12.16
74.38,16.99,4.89,16.99,4.88,-4.88,-5.00,-4.61,12.10,12.10,12.10
75.12,16.97,4.92,16.97,4.92,-4.92,-5.04,-4.60,12.05,12.05,12.05
75.87,16.94,4.94,16.94,4.95,-4.95,-5.07,-4.58,11.99,12.00,12.00
76.63,16.91,4.97,16.92,4.98,-4.98,-5.10,-4.57,11.93,11.94,11.94
77.40,16.89,4.99,16.90,5.01,-5.01,-5.13,-4.55,11.88,11.89,11.90
78.17,16.88,5.04,16.88,5.04,-5.04,-5.16,-4.54,11.84,11.84,11.84
78.95,16.87,5.07,16.86,5.07,-5.07,-5.18,-4.54,11.79,11.79,11.80
79.74,16.86,5.11,16.85,5.10,-5.10,-5.21,-4.53,11.75,11.74,11.75
80.54,16.83,5.13,16.83,5.14,-5.14,-5.24,-4.53,11.69,11.69,11.70
81.35,16.81,5.17,16.81,5.17,-5.17,-5.26,-4.53,11.64,11.64,11.64
82.16,16.80,5.19,16.80,5.21,-5.21,-5.29,-4.53,11.59,11.59,11.61
82.98,16.78,5.23,16.78,5.24,-5.24,-5.31,-4.53,11.54,11.54,11.55
83.81,16.77,5.27,16.77,5.28,-5.28,-5.33,-4.54,11.49,11.49,11.50
84.65,16.76,5.32,16.75,5.31,-5.31,-5.35,-4.56,11.44,11.43,11.44
85.50,16.74,5.36,16.73,5.35,-5.35,-5.37,-4.57,11.39,11.38,11.38
86.35,16.71,5.38,16.71,5.38,-5.38,-5.39,-4.59,11.33,11.33,11.33
87.22,16.69,5.41,16.68,5.41,-5.41,-5.41,-4.61,11.28,11.27,11.28
88.09,16.67,5.45,16.66,5.44,-5.44,-5.43,-4.64,11.23,11.22,11.22
88.97,16.64,5.48,16.63,5.47,-5.47,-5.45,-4.67,11.17,11.16,11.16
89.86,16.61,5.50,16.60,5.50,-5.50,-5.46,-4.70,11.11,11.10,11.11
90.76,16.59,5.54,16.57,5.53,-5.53,-5.48,-4.74,11.06,11.04,11.05
91.66,16.55,5.57,16.54,5.56,-5.56,-5.50,-4.78,10.98,10.98,10.98
92.58,16.51,5.58,16.51,5.59,-5.59,-5.51,-4.82,10.92,10.92,10.93
93.51,16.47,5.59,16.48,5.62,-5.62,-5.52,-4.87,10.85,10.86,10.88
94.44,16.43,5.61,16.45,5.65,-5.65,-5.53,-4.92,10.78,10.80,10.82
95.39,16.40,5.65,16.42,5.68,-5.68,-5.55,-4.97,10.72,10.74,10.75
96.34,16.38,5.70,16.38,5.70,-5.70,-5.56,-5.02,10.67,10.68,10.68
97.30,16.36,5.74,16.35,5.73,-5.73,-5.57,-5.08,10.62,10.62,10.62
98.28,16.34,5.79,16.32,5.76,-5.76,-5.58,-5.15,10.58,10.56,10.55
99.26,16.30,5.81,16.28,5.78,-5.78,-5.59,-5.21,10.51,10.50,10.49
100.25,16.25,5.82,16.25,5.81,-5.81,-5.60,-5.28,10.44,10.44,10.43
101.25,16.20,5.82,16.21,5.83,-5.83,-5.61,-5.35,10.36,10.38,10.38
102.27,16.16,5.84,16.17,5.85,-5.85,-5.61,-5.42,10.30,10.32,10.32
103.29,16.14,5.88,16.13,5.87,-5.87,-5.62,-5.49,10.26,10.26,10.26
104.32,16.11,5.90,16.09,5.89,-5.89,-5.63,-5.57,10.22,10.20,10.21
105.37,16.06,5.91,16.04,5.90,-5.90,-5.64,-5.64,10.16,10.15,10.15
106.42,16.01,5.91,16.00,5.91,-5.91,-5.64,-5.71,10.10,10.09,10.10
107.48,15.96,5.92,15.95,5.92,-5.92,-5.65,-5.79,10.04,10.03,10.04
108.56,15.91,5.92,15.90,5.93,-5.93,-5.66,-5.86,9.98,9.98,9.99
109.64,15.86,5.93,15.86,5.94,-5.94,-5.66,-5.94,9.92,9.92,9.93
110.74,15.81,5.94,15.81,5.95,-5.95,-5.67,-6.01,9.86,9.86,9.87
111.85,15.76,5.95,15.76,5.96,-5.96,-5.68,-6.08,9.80,9.80,9.81
112.97,15.70,5.94,15.72,5.97,-5.97,-5.68,-6.15,9.72,9.74,9.76
114.10,15.64,5.94,15.67,5.98,-5.98,-5.69,-6.21,9.66,9.68,9.70
115.24,15.60,5.98,15.62,5.99,-5.99,-5.70,-6.28,9.61,9.63,9.62
116.39,15.57,6.01,15.57,6.00,-6.00,-5.70,-6.33,9.57,9.57,9.56
117.55,15.54,6.04,15.52,6.01,-6.01,-5.71,-6.38,9.53,9.51,9.50
118.73,15.48,6.04,15.47,6.01,-6.01,-5.72,-6.43,9.46,9.45,9.44
119.92,15.42,6.02,15.41,6.02,-6.02,-5.73,-6.47,9.40,9.40,9.40
121.12,15.36,6.01,15.36,6.02,-6.02,-5.73,-6.51,9.34,9.34,9.35
122.33,15.32,6.03,15.30,6.02,-6.02,-5.74,-6.54,9.30,9.28,9.29
123.55,15.26,6.02,15.24,6.01,-6.01,-5.75,-6.56,9.24,9.23,9.24
124.79,15.19,6.00,15.18,6.01,-6.01,-5.76,-6.58,9.18,9.17,9.19
126.03,15.11,5.98,15.11,5.99,-5.99,-5.77,-6.59,9.11,9.12,9.13
127.29,15.06,5.98,15.04,5.98,-5.98,-5.78,-6.60,9.08,9.06,9.08
128.57,14.98,5.97,14.97,5.96,-5.96,-5.79,-6.59,9.02,9.01,9.01
129.85,14.88,5.92,14.89,5.93,-5.93,-5.81,-6.59,8.95,8.96,8.96
131.15,14.78,5.88,14.80,5.90,-5.90,-5.82,-6.57,8.88,8.90,8.90
132.46,14.73,5.88,14.71,5.87,-5.87,-5.83,-6.55,8.86,8.85,8.85
133.79,14.65,5.86,14.62,5.83,-5.83,-5.85,-6.53,8.81,8.79,8.79
135.12,14.54,5.80,14.53,5.79,-5.79,-5.86,-6.50,8.74,8.74,8.74
136.48,14.47,5.78,14.44,5.75,-5.75,-5.88,-6.47,8.72,8.68,8.69
137.84,14.35,5.71,14.34,5.71,-5.71,-5.90,-6.43,8.64,8.63,8.64
139.22,14.27,5.69,14.24,5.66,-5.66,-5.91,-6.39,8.61,8.58,8.58
140.61,14.17,5.63,14.15,5.61,-5.61,-5.93,-6.35,8.55,8.53,8.54
142.02,14.03,5.55,14.05,5.57,-5.57,-5.95,-6.30,8.46,8.49,8.48
143.44,13.97,5.53,13.96,5.52,-5.52,-5.97,-6.26,8.44,8.44,8.44
144.87,13.86,5.46,13.88,5.49,-5.49,-6.00,-6.21,8.37,8.39,8.40
146.32,13.80,5.45,13.80,5.45,-5.45,-6.02,-6.16,8.34,8.35,8.35
147.78,13.73,5.42,13.73,5.42,-5.42,-6.04,-6.12,8.30,8.30,8.31
149.26,13.67,5.41,13.67,5.41,-5.41,-6.07,-6.07,8.26,8.26,8.26
150.75,13.60,5.38,13.62,5.40,-5.40,-6.09,-6.03,8.19,8.22,8.22
152.26,13.56,5.38,13.58,5.41,-5.41,-6.12,-5.98,8.15,8.17,8.18
153.78,13.53,5.39,13.55,5.42,-5.42,-6.15,-5.94,8.10,8.13,8.14
155.32,13.53,5.43,13.54,5.45,-5.45,-6.17,-5.91,8.08,8.09,8.10
156.88,13.53,5.48,13.54,5.49,-5.49,-6.20,-5.87,8.03,8.04,8.05
158.44,13.54,5.54,13.55,5.55,-5.55,-6.23,-5.84,7.99,8.00,8.00
160.03,13.58,5.62,13.57,5.62,-5.62,-6.26,-5.81,7.96,7.95,7.96
161.63,13.61,5.69,13.61,5.70,-5.70,-6.29,-5.78,7.91,7.91,7.92
163.24,13.64,5.77,13.65,5.79,-5.79,-6.32,-5.76,7.85,7.86,7.87
164.88,13.70,5.88,13.71,5.89,-5.89,-6.36,-5.74,7.80,7.82,7.82
166.53,13.76,5.99,13.78,6.00,-6.00,-6.39,-5.72,7.75,7.77,7.77
168.19,13.82,6.08,13.85,6.13,-6.13,-6.42,-5.71,7.69,7.72,7.74
169.87,13.92,6.24,13.93,6.25,-6.25,-6.46,-5.70,7.66,7.68,7.68
171.57,14.00,6.37,14.01,6.38,-6.38,-6.49,-5.70,7.61,7.63,7.63
173.29,14.08,6.49,14.09,6.51,-6.51,-6.53,-5.70,7.56,7.58,7.59
175.02,14.20,6.66,14.18,6.64,-6.64,-6.56,-5.71,7.56,7.54,7.54
176.77,14.27,6.78,14.25,6.77,-6.77,-6.59,-5.72,7.50,7.49,7.49
178.54,14.35,6.90,14.33,6.88,-6.88,-6.63,-5.73,7.46,7.44,7.45
180.32,14.42,7.03,14.39,6.99,-6.99,-6.66,-5.75,7.42,7.40,7.39
182.13,14.48,7.12,14.44,7.09,-7.09,-6.69,-5.77,7.38,7.35,7.36
183.95,14.53,7.22,14.49,7.18,-7.18,-6.73,-5.80,7.34,7.30,7.31
185.79,14.55,7.29,14.52,7.26,-7.26,-6.76,-5.83,7.29,7.26,7.26
187.65,14.56,7.34,14.53,7.32,-7.32,-6.79,-5.87,7.24,7.21,7.22
189.52,14.56,7.38,14.53,7.36,-7.36,-6.82,-5.91,7.19,7.17,7.18
191.42,14.55,7.41,14.53,7.40,-7.40,-6.85,-5.95,7.15,7.13,7.14
193.33,14.52,7.42,14.50,7.42,-7.42,-6.87,-6.00,7.10,7.09,7.10
195.27,14.48,7.43,14.47,7.42,-7.42,-6.90,-6.05,7.05,7.05,7.05
197.22,14.42,7.42,14.43,7.42,-7.42,-6.92,-6.11,7.00,7.01,7.00
199.19,14.37,7.40,14.38,7.41,-7.41,-6.94,-6.16,6.96,6.97,6.97
201.18,14.32,7.39,14.33,7.39,-7.39,-6.96,-6.22,6.93,6.94,6.93
203.19,14.26,7.36,14.27,7.37,-7.37,-6.98,-6.29,6.89,6.90,6.90
205.23,14.20,7.32,14.21,7.34,-7.34,-6.99,-6.35,6.86,6.87,6.88
207.28,14.14,7.29,14.14,7.31,-7.31,-7.00,-6.42,6.83,6.84,6.85
209.35,14.07,7.26,14.07,7.27,-7.27,-7.01,-6.48,6.80,6.80,6.81
211.44,14.00,7.22,14.00,7.23,-7.23,-7.01,-6.55,6.77,6.77,6.78
213.56,13.93,7.17,13.93,7.19,-7.19,-7.01,-6.62,6.74,6.75,6.76
215.69,13.86,7.13,13.86,7.14,-7.14,-7.01,-6.68,6.71,6.72,6.73
217.85,13.79,7.09,13.79,7.09,-7.09,-7.00,-6.75,6.69,6.69,6.70
220.03,13.74,7.07,13.71,7.04,-7.04,-6.99,-6.81,6.69,6.67,6.67
222.23,13.66,7.02,13.64,6.99,-6.99,-6.97,-6.87,6.66,6.65,6.64
224.45,13.57,6.94,13.56,6.94,-6.94,-6.96,-6.93,6.62,6.62,6.63
226.70,13.48,6.88,13.49,6.89,-6.89,-6.93,-6.98,6.59,6.60,6.60
228.96,13.40,6.81,13.41,6.83,-6.83,-6.90,-7.03,6.57,6.58,6.59
231.25,13.34,6.77,13.33,6.77,-6.77,-6.87,-7.07,6.57,6.56,6.57
233.57,13.26,6.71,13.26,6.71,-6.71,-6.84,-7.10,6.55,6.55,6.55
235.90,13.16,6.62,13.18,6.65,-6.65,-6.80,-7.13,6.51,6.53,6.54
238.26,13.10,6.59,13.10,6.58,-6.58,-6.75,-7.15,6.51,6.52,6.51
240.64,13.02,6.50,13.02,6.51,-6.51,-6.70,-7.15,6.50,6.51,6.52
243.05,12.96,6.46,12.94,6.44,-6.44,-6.65,-7.15,6.51,6.50,6.50
245.48,12.88,6.39,12.86,6.37,-6.37,-6.59,-7.14,6.51,6.49,6.49
247.93,12.78,6.30,12.78,6.30,-6.30,-6.53,-7.12,6.48,6.48,6.48
250.41,12.71,6.22,12.70,6.22,-6.22,-6.46,-7.09,6.48,6.48,6.49
252.92,12.62,6.14,12.62,6.15,-6.15,-6.40,-7.05,6.47,6.47,6.48
255.45,12.55,6.08,12.54,6.07,-6.07,-6.32,-6.99,6.48,6.47,6.47
258.00,12.47,6.00,12.45,5.99,-5.99,-6.25,-6.93,6.48,6.46,6.47
260.58,12.37,5.90,12.37,5.91,-5.91,-6.17,-6.86,6.45,6.46,6.47
263.19,12.29,5.82,12.29,5.83,-5.83,-6.09,-6.77,6.46,6.46,6.47
265.82,12.20,5.74,12.20,5.75,-5.75,-6.00,-6.68,6.45,6.46,6.46
268.48,12.12,5.66,12.12,5.67,-5.67,-5.91,-6.58,6.45,6.45,6.46
271.16,12.04,5.58,12.04,5.59,-5.59,-5.82,-6.47,6.45,6.45,6.46
273.87,11.95,5.49,11.96,5.51,-5.51,-5.73,-6.35,6.44,6.45,6.46
276.61,11.88,5.42,11.87,5.42,-5.42,-5.64,-6.23,6.45,6.45,6.46
279.38,11.79,5.35,11.79,5.34,-5.34,-5.54,-6.10,6.45,6.45,6.44
282.17,11.70,5.26,11.70,5.26,-5.26,-5.44,-5.97,6.44,6.45,6.44
284.99,11.63,5.18,11.62,5.17,-5.17,-5.34,-5.83,6.46,6.45,6.45
287.84,11.54,5.08,11.53,5.08,-5.08,-5.24,-5.69,6.45,6.45,6.46
290.72,11.45,5.00,11.45,4.99,-4.99,-5.14,-5.54,6.45,6.45,6.45
293.63,11.38,4.92,11.36,4.91,-4.91,-5.03,-5.40,6.47,6.46,6.46
296.57,11.29,4.82,11.28,4.81,-4.81,-4.93,-5.25,6.47,6.46,6.47
299.53,11.20,4.73,11.19,4.72,-4.72,-4.83,-5.10,6.47,6.47,6.47
302.53,11.10,4.61,11.10,4.63,-4.63,-4.72,-4.95,6.47,6.47,6.49
305.55,11.00,4.52,11.01,4.53,-4.53,-4.61,-4.80,6.46,6.48,6.48
308.61,10.92,4.43,10.92,4.44,-4.44,-4.51,-4.65,6.48,6.49,6.49
311.69,10.82,4.32,10.83,4.34,-4.34,-4.40,-4.50,6.48,6.49,6.50
314.81,10.75,4.25,10.74,4.24,-4.24,-4.29,-4.36,6.51,6.50,6.50
317.96,10.66,4.15,10.64,4.14,-4.14,-4.19,-4.21,6.52,6.51,6.51
321.14,10.57,4.05,10.55,4.03,-4.03,-4.08,-4.06,6.53,6.51,6.52
324.35,10.46,3.94,10.46,3.93,-3.93,-3.97,-3.92,6.52,6.52,6.52
327.59,10.36,3.81,10.36,3.83,-3.83,-3.87,-3.78,6.52,6.53,6.55
330.87,10.29,3.75,10.27,3.74,-3.74,-3.76,-3.64,6.55,6.54,6.54
334.18,10.20,3.65,10.18,3.64,-3.64,-3.65,-3.50,6.56,6.54,6.55
337.52,10.09,3.54,10.10,3.54,-3.54,-3.55,-3.36,6.54,6.55,6.55
340.90,10.00,3.43,10.01,3.45,-3.45,-3.44,-3.23,6.55,6.56,6.57
344.30,9.90,3.32,9.93,3.36,-3.36,-3.34,-3.10,6.54,6.57,6.58
347.75,9.84,3.26,9.84,3.27,-3.27,-3.23,-2.97,6.57,6.58,6.58
351.23,9.76,3.18,9.76,3.18,-3.18,-3.13,-2.84,6.58,6.59,6.58
354.74,9.69,3.08,9.69,3.09,-3.09,-3.03,-2.71,6.59,6.59,6.61
358.28,9.62,3.02,9.61,3.01,-3.01,-2.93,-2.59,6.61,6.60,6.60
361.87,9.55,2.94,9.53,2.93,-2.93,-2.82,-2.47,6.62,6.61,6.61
365.49,9.46,2.84,9.46,2.85,-2.85,-2.72,-2.35,6.61,6.62,6.62
369.14,9.39,2.75,9.39,2.76,-2.76,-2.62,-2.23,6.62,6.63,6.64
372.83,9.33,2.69,9.32,2.69,-2.69,-2.52,-2.12,6.64,6.63,6.64
376.56,9.25,2.61,9.25,2.61,-2.61,-2.42,-2.00,6.64,6.64,6.64
380.33,9.18,2.53,9.18,2.52,-2.52,-2.32,-1.89,6.65,6.65,6.65
384.13,9.11,2.44,9.10,2.44,-2.44,-2.22,-1.78,6.66,6.66,6.67
387.97,9.03,2.36,9.02,2.36,-2.36,-2.12,-1.67,6.67,6.67,6.67
391.85,8.95,2.27,8.95,2.27,-2.27,-2.03,-1.57,6.68,6.68,6.68
395.77,8.87,2.18,8.87,2.18,-2.18,-1.93,-1.46,6.69,6.69,6.69
399.73,8.81,2.11,8.79,2.09,-2.09,-1.83,-1.36,6.72,6.70,6.70
403.72,8.73,2.00,8.71,2.00,-2.00,-1.74,-1.26,6.73,6.71,6.73
407.76,8.64,1.92,8.63,1.91,-1.91,-1.64,-1.16,6.73,6.72,6.72
411.84,8.54,1.81,8.55,1.82,-1.82,-1.54,-1.06,6.72,6.73,6.73
415.96,8.45,1.70,8.46,1.72,-1.72,-1.45,-0.96,6.72,6.74,6.75
420.12,8.37,1.62,8.38,1.63,-1.63,-1.35,-0.87,6.74,6.75,6.75
424.32,8.28,1.52,8.29,1.53,-1.53,-1.26,-0.77,6.74,6.76,6.76
428.56,8.20,1.42,8.20,1.44,-1.44,-1.17,-0.68,6.76,6.77,6.78
432.85,8.12,1.33,8.11,1.34,-1.34,-1.07,-0.59,6.78,6.78,6.79
437.18,8.03,1.25,8.02,1.24,-1.24,-0.98,-0.50,6.79,6.78,6.78
441.55,7.95,1.16,7.93,1.14,-1.14,-0.88,-0.41,6.81,6.79,6.79
445.96,7.85,1.05,7.84,1.03,-1.03,-0.79,-0.32,6.81,6.80,6.80
450.42,7.74,0.93,7.74,0.93,-0.93,-0.70,-0.23,6.80,6.81,6.81
454.93,7.66,0.84,7.65,0.83,-0.83,-0.60,-0.15,6.82,6.82,6.82
