frequency,raw,error,smoothed,error_smoothed,equalization,parametric_eq,fixed_band_eq,equalized_raw,equalized_smoothed,target
20.00,2.65,-6.44,2.63,-6.46,6.46,5.71,2.66,9.10,9.09,9.09
20.20,2.68,-6.40,2.67,-6.41,6.41,5.76,2.73,9.08,9.08,9.08
20.40,2.72,-6.35,2.71,-6.36,6.36,5.81,2.81,9.07,9.07,9.07
20.61,2.74,-6.31,2.74,-6.31,6.31,5.86,2.89,9.06,9.06,9.06
20.81,2.78,-6.26,2.78,-6.27,6.27,5.90,2.97,9.04,9.04,9.04
21.02,2.80,-6.23,2.81,-6.23,6.23,5.94,3.05,9.02,9.03,9.03
21.23,2.83,-6.19,2.84,-6.19,6.19,5.98,3.14,9.01,9.02,9.02
21.44,2.86,-6.17,2.86,-6.15,6.15,6.01,3.23,9.01,9.01,9.03
21.66,2.88,-6.13,2.89,-6.12,6.12,6.04,3.32,8.99,9.01,9.01
21.87,2.91,-6.10,2.91,-6.08,6.08,6.07,3.41,8.99,9.00,9.01
22.09,2.93,-6.06,2.94,-6.05,6.05,6.09,3.51,8.98,8.99,8.99
22.31,2.95,-6.03,2.96,-6.03,6.03,6.11,3.61,8.97,8.98,8.98
22.54,2.97,-5.99,2.98,-6.00,6.00,6.12,3.71,8.98,8.98,8.97
22.76,3.01,-5.96,2.99,-5.98,5.98,6.13,3.81,8.98,8.97,8.97
22.99,3.03,-5.93,3.01,-5.96,5.96,6.14,3.92,8.98,8.96,8.96
23.22,3.05,-5.90,3.02,-5.94,5.94,6.14,4.03,8.99,8.96,8.95
23.45,3.06,-5.90,3.03,-5.92,5.92,6.13,4.14,8.98,8.95,8.96
23.69,3.06,-5.89,3.04,-5.91,5.91,6.13,4.25,8.96,8.95,8.95
23.92,3.06,-5.88,3.05,-5.89,5.89,6.12,4.37,8.95,8.94,8.94
24.16,3.06,-5.89,3.06,-5.88,5.88,6.10,4.48,8.94,8.94,8.95
24.40,3.06,-5.89,3.07,-5.87,5.87,6.09,4.60,8.92,8.94,8.95
24.65,3.06,-5.88,3.08,-5.85,5.85,6.07,4.72,8.91,8.94,8.94
24.89,3.08,-5.86,3.10,-5.84,5.84,6.05,4.84,8.91,8.94,8.94
25.14,3.10,-5.83,3.11,-5.82,5.82,6.02,4.97,8.92,8.93,8.93
25.39,3.12,-5.81,3.13,-5.80,5.80,5.99,5.09,8.92,8.93,8.93
25.65,3.15,-5.78,3.15,-5.78,5.78,5.96,5.22,8.92,8.93,8.93
25.91,3.17,-5.75,3.18,-5.75,5.75,5.93,5.34,8.93,8.93,8.93
26.16,3.21,-5.73,3.21,-5.72,5.72,5.90,5.46,8.93,8.93,8.94
26.43,3.23,-5.69,3.24,-5.69,5.69,5.86,5.59,8.93,8.93,8.93
26.69,3.27,-5.66,3.26,-5.67,5.67,5.82,5.71,8.93,8.93,8.93
26.96,3.30,-5.63,3.29,-5.64,5.64,5.79,5.83,8.93,8.93,8.93
27.23,3.32,-5.60,3.32,-5.62,5.62,5.75,5.95,8.94,8.93,8.93
27.50,3.36,-5.57,3.34,-5.60,5.60,5.71,6.06,8.95,8.94,8.93
27.77,3.38,-5.56,3.36,-5.58,5.58,5.67,6.17,8.96,8.94,8.94
28.05,3.39,-5.54,3.37,-5.57,5.57,5.63,6.28,8.95,8.94,8.93
28.33,3.41,-5.53,3.38,-5.56,5.56,5.59,6.38,8.96,8.94,8.94
28.62,3.41,-5.53,3.39,-5.55,5.55,5.55,6.47,8.95,8.94,8.94
28.90,3.41,-5.54,3.40,-5.54,5.54,5.51,6.56,8.95,8.94,8.95
29.19,3.40,-5.55,3.40,-5.54,5.54,5.47,6.64,8.93,8.94,8.95
29.48,3.39,-5.55,3.40,-5.54,5.54,5.43,6.72,8.92,8.94,8.94
29.78,3.39,-5.55,3.40,-5.54,5.54,5.39,6.78,8.92,8.94,8.94
30.08,3.39,-5.55,3.40,-5.54,5.54,5.35,6.83,8.92,8.93,8.94
30.38,3.39,-5.53,3.39,-5.54,5.54,5.32,6.88,8.92,8.93,8.92
30.68,3.39,-5.53,3.39,-5.53,5.53,5.28,6.91,8.92,8.92,8.92
30.99,3.39,-5.53,3.39,-5.53,5.53,5.25,6.94,8.92,8.92,8.92
31.30,3.39,-5.53,3.39,-5.53,5.53,5.22,6.95,8.91,8.91,8.92
31.61,3.39,-5.52,3.38,-5.52,5.52,5.18,6.96,8.91,8.91,8.91
31.93,3.39,-5.50,3.38,-5.52,5.52,5.16,6.95,8.90,8.90,8.89
32.24,3.39,-5.51,3.38,-5.51,5.51,5.13,6.94,8.89,8.89,8.90
32.57,3.39,-5.49,3.38,-5.50,5.50,5.11,6.91,8.89,8.89,8.88
32.89,3.39,-5.49,3.39,-5.49,5.49,5.08,6.87,8.88,8.88,8.88
33.22,3.39,-5.48,3.39,-5.49,5.49,5.06,6.83,8.87,8.87,8.87
33.55,3.39,-5.48,3.39,-5.48,5.48,5.04,6.78,8.87,8.87,8.87
33.89,3.39,-5.47,3.39,-5.47,5.47,5.03,6.72,8.86,8.86,8.86
34.23,3.39,-5.45,3.39,-5.47,5.47,5.01,6.65,8.85,8.85,8.84
34.57,3.39,-5.45,3.39,-5.46,5.46,5.00,6.58,8.84,8.84,8.84
34.92,3.39,-5.43,3.39,-5.45,5.45,4.99,6.50,8.83,8.83,8.82
35.27,3.39,-5.45,3.39,-5.44,5.44,4.99,6.42,8.82,8.82,8.84
35.62,3.39,-5.42,3.39,-5.42,5.42,4.98,6.34,8.81,8.81,8.81
35.97,3.39,-5.42,3.39,-5.41,5.41,4.98,6.25,8.80,8.80,8.81
36.33,3.39,-5.40,3.39,-5.40,5.40,4.98,6.16,8.78,8.78,8.79
36.70,3.39,-5.38,3.39,-5.38,5.38,4.98,6.06,8.77,8.77,8.77
37.06,3.39,-5.36,3.39,-5.37,5.37,4.98,5.97,8.75,8.75,8.75
37.43,3.39,-5.34,3.39,-5.35,5.35,4.99,5.88,8.73,8.73,8.73
37.81,3.39,-5.33,3.39,-5.33,5.33,5.00,5.78,8.71,8.71,8.72
38.19,3.39,-5.30,3.39,-5.31,5.31,5.01,5.69,8.69,8.69,8.69
38.57,3.39,-5.28,3.39,-5.29,5.29,5.02,5.60,8.67,8.67,8.67
38.95,3.39,-5.27,3.39,-5.27,5.27,5.03,5.51,8.65,8.65,8.66
39.34,3.39,-5.24,3.39,-5.24,5.24,5.05,5.42,8.63,8.63,8.63
39.74,3.39,-5.21,3.39,-5.22,5.22,5.06,5.33,8.61,8.61,8.60
40.14,3.39,-5.19,3.39,-5.20,5.20,5.08,5.25,8.58,8.58,8.58
40.54,3.39,-5.17,3.39,-5.18,5.18,5.09,5.17,8.56,8.56,8.56
40.94,3.39,-5.14,3.39,-5.15,5.15,5.11,5.09,8.54,8.54,8.53
41.35,3.39,-5.13,3.39,-5.13,5.13,5.12,5.01,8.52,8.52,8.52
41.76,3.39,-5.10,3.39,-5.11,5.11,5.14,4.94,8.49,8.49,8.49
42.18,3.39,-5.09,3.39,-5.09,5.09,5.15,4.87,8.47,8.47,8.48
42.60,3.39,-5.06,3.39,-5.06,5.06,5.17,4.80,8.45,8.45,8.45
43.03,3.39,-5.04,3.39,-5.04,5.04,5.18,4.73,8.42,8.42,8.43
43.46,3.39,-5.00,3.39,-5.01,5.01,5.19,4.67,8.40,8.40,8.39
43.90,3.39,-4.98,3.39,-4.99,4.99,5.19,4.62,8.37,8.37,8.37
44.33,3.39,-4.95,3.39,-4.96,4.96,5.20,4.56,8.34,8.34,8.34
44.78,3.39,-4.93,3.39,-4.93,4.93,5.20,4.51,8.32,8.32,8.32
45.23,3.39,-4.91,3.39,-4.90,4.90,5.20,4.46,8.28,8.28,8.30
45.68,3.39,-4.86,3.39,-4.86,4.86,5.19,4.42,8.25,8.25,8.25
46.13,3.39,-4.83,3.39,-4.83,4.83,5.18,4.38,8.21,8.21,8.22
46.60,3.39,-4.79,3.39,-4.79,4.79,5.16,4.34,8.18,8.18,8.18
47.06,3.39,-4.76,3.39,-4.75,4.75,5.14,4.31,8.14,8.14,8.15
47.53,3.39,-4.72,3.39,-4.71,4.71,5.12,4.28,8.10,8.10,8.11
48.01,3.39,-4.67,3.39,-4.67,4.67,5.09,4.25,8.06,8.06,8.06
48.49,3.39,-4.63,3.38,-4.64,4.64,5.06,4.23,8.02,8.02,8.02
48.97,3.39,-4.58,3.38,-4.60,4.60,5.02,4.20,7.98,7.98,7.97
49.46,3.39,-4.55,3.38,-4.56,4.56,4.97,4.18,7.94,7.94,7.94
49.96,3.39,-4.49,3.38,-4.52,4.52,4.92,4.16,7.90,7.90,7.88
50.46,3.39,-4.46,3.38,-4.48,4.48,4.87,4.15,7.86,7.85,7.85
50.96,3.39,-4.42,3.38,-4.43,4.43,4.82,4.14,7.82,7.81,7.81
51.47,3.38,-4.39,3.38,-4.39,4.39,4.76,4.12,7.77,7.77,7.77
51.99,3.38,-4.34,3.38,-4.35,4.35,4.69,4.11,7.72,7.73,7.72
52.51,3.37,-4.32,3.38,-4.30,4.30,4.63,4.10,7.67,7.68,7.69
53.03,3.37,-4.29,3.39,-4.25,4.25,4.56,4.10,7.62,7.64,7.66
53.56,3.38,-4.23,3.40,-4.21,4.21,4.48,4.09,7.58,7.60,7.61
54.10,3.40,-4.16,3.41,-4.16,4.16,4.41,4.08,7.55,7.56,7.56
54.64,3.42,-4.10,3.41,-4.11,4.11,4.33,4.07,7.53,7.53,7.52
55.18,3.43,-4.05,3.42,-4.06,4.06,4.26,4.07,7.49,7.49,7.48
55.74,3.45,-3.98,3.43,-4.02,4.02,4.18,4.06,7.46,7.45,7.43
56.29,3.46,-3.95,3.44,-3.97,3.97,4.10,4.05,7.42,7.41,7.41
56.86,3.46,-3.91,3.45,-3.92,3.92,4.02,4.04,7.37,7.37,7.37
57.42,3.47,-3.85,3.46,-3.87,3.87,3.95,4.03,7.33,7.33,7.32
58.00,3.48,-3.80,3.47,-3.82,3.82,3.87,4.01,7.29,7.29,7.28
58.58,3.48,-3.77,3.47,-3.77,3.77,3.79,4.00,7.25,7.24,7.25
59.16,3.48,-3.74,3.47,-3.73,3.73,3.72,3.98,7.20,7.20,7.22
59.76,3.47,-3.70,3.46,-3.69,3.69,3.65,3.96,7.15,7.15,7.17
60.35,3.47,-3.65,3.46,-3.65,3.65,3.57,3.93,7.11,7.10,7.12
60.96,3.46,-3.60,3.45,-3.61,3.61,3.50,3.91,7.06,7.05,7.06
61.57,3.45,-3.55,3.44,-3.56,3.56,3.44,3.88,7.01,7.00,7.00
62.18,3.44,-3.50,3.43,-3.52,3.52,3.37,3.84,6.96,6.95,6.94
62.80,3.42,-3.46,3.42,-3.48,3.48,3.30,3.80,6.89,6.89,6.88
63.43,3.41,-3.42,3.41,-3.43,3.43,3.24,3.76,6.84,6.84,6.83
64.07,3.39,-3.39,3.40,-3.39,3.39,3.18,3.72,6.77,6.79,6.78
64.71,3.37,-3.36,3.39,-3.34,3.34,3.13,3.67,6.71,6.73,6.73
65.35,3.36,-3.31,3.39,-3.29,3.29,3.07,3.62,6.65,6.68,6.67
66.01,3.37,-3.25,3.38,-3.24,3.24,3.02,3.56,6.61,6.62,6.62
66.67,3.38,-3.20,3.38,-3.19,3.19,2.97,3.50,6.57,6.57,6.58
67.33,3.39,-3.12,3.38,-3.14,3.14,2.92,3.44,6.52,6.51,6.51
68.01,3.39,-3.07,3.37,-3.08,3.08,2.88,3.38,6.47,6.46,6.46
68.69,3.39,-3.02,3.38,-3.03,3.03,2.84,3.31,6.41,6.40,6.41
69.37,3.39,-2.97,3.38,-2.97,2.97,2.80,3.24,6.35,6.35,6.36
70.07,3.39,-2.91,3.38,-2.91,2.91,2.76,3.17,6.30,6.29,6.30
70.77,3.39,-2.84,3.38,-2.85,2.85,2.72,3.10,6.23,6.23,6.23
71.48,3.39,-2.79,3.39,-2.79,2.79,2.68,3.03,6.17,6.17,6.18
72.19,3.39,-2.73,3.39,-2.73,2.73,2.65,2.95,6.12,6.12,6.12
72.91,3.39,-2.66,3.39,-2.67,2.67,2.61,2.87,6.06,6.06,6.05
73.64,3.39,-2.61,3.39,-2.62,2.62,2.58,2.80,6.00,6.00,6.00
74.38,3.39,-2.55,3.39,-2.56,2.56,2.54,2.72,5.95,5.95,5.94
75.12,3.39,-2.50,3.39,-2.51,2.51,2.51,2.64,5.89,5.89,5.89
75.87,3.39,-2.45,3.39,-2.46,2.46,2.47,2.56,5.84,5.84,5.84
76.63,3.39,-2.39,3.39,-2.40,2.40,2.43,2.49,5.79,5.79,5.78
77.40,3.39,-2.35,3.39,-2.35,2.35,2.39,2.41,5.74,5.74,5.74
78.17,3.39,-2.29,3.39,-2.30,2.30,2.35,2.33,5.69,5.69,5.68
78.95,3.39,-2.25,3.39,-2.25,2.25,2.30,2.25,5.64,5.64,5.64
79.74,3.39,-2.20,3.39,-2.20,2.20,2.25,2.18,5.59,5.59,5.59
80.54,3.39,-2.15,3.39,-2.15,2.15,2.20,2.10,5.54,5.54,5.54
81.35,3.39,-2.09,3.39,-2.10,2.10,2.15,2.03,5.49,5.49,5.48
82.16,3.39,-2.06,3.39,-2.05,2.05,2.09,1.95,5.44,5.44,5.45
82.98,3.39,-2.00,3.39,-2.00,2.00,2.04,1.88,5.38,5.38,5.39
83.81,3.39,-1.95,3.39,-1.95,1.95,1.98,1.81,5.33,5.33,5.34
84.65,3.39,-1.89,3.39,-1.89,1.89,1.91,1.74,5.28,5.28,5.28
85.50,3.39,-1.83,3.39,-1.84,1.84,1.85,1.67,5.23,5.23,5.22
86.35,3.39,-1.78,3.39,-1.79,1.79,1.78,1.60,5.17,5.17,5.17
87.22,3.39,-1.73,3.39,-1.73,1.73,1.72,1.53,5.12,5.12,5.12
88.09,3.39,-1.67,3.39,-1.68,1.68,1.65,1.46,5.06,5.06,5.06
88.97,3.39,-1.61,3.39,-1.62,1.62,1.58,1.40,5.00,5.00,5.00
89.86,3.39,-1.56,3.39,-1.56,1.56,1.51,1.33,4.95,4.95,4.95
90.76,3.39,-1.50,3.39,-1.50,1.50,1.44,1.27,4.89,4.89,4.89
91.66,3.39,-1.43,3.39,-1.44,1.44,1.38,1.21,4.83,4.83,4.82
92.58,3.39,-1.38,3.39,-1.38,1.38,1.31,1.15,4.77,4.77,4.77
93.51,3.39,-1.33,3.39,-1.32,1.32,1.24,1.09,4.71,4.71,4.72
94.44,3.39,-1.27,3.39,-1.26,1.26,1.18,1.03,4.65,4.65,4.66
95.39,3.39,-1.20,3.39,-1.20,1.20,1.11,0.97,4.58,4.58,4.59
96.34,3.39,-1.13,3.39,-1.14,1.14,1.05,0.91,4.52,4.52,4.52
97.30,3.39,-1.07,3.39,-1.08,1.08,0.99,0.85,4.46,4.46,4.46
98.28,3.39,-1.00,3.39,-1.01,1.01,0.93,0.80,4.40,4.40,4.39
99.26,3.39,-0.94,3.39,-0.95,0.95,0.87,0.74,4.34,4.34,4.33
100.25,3.39,-0.88,3.39,-0.89,0.89,0.81,0.69,4.28,4.28,4.27
101.25,3.39,-0.83,3.38,-0.84,0.84,0.76,0.64,4.22,4.22,4.22
102.27,3.39,-0.77,3.38,-0.78,0.78,0.70,0.58,4.16,4.16,4.16
103.29,3.39,-0.71,3.38,-0.72,0.72,0.65,0.53,4.11,4.10,4.10
104.32,3.39,-0.66,3.38,-0.66,0.66,0.59,0.48,4.05,4.05,4.05
105.37,3.39,-0.60,3.39,-0.61,0.61,0.54,0.43,3.99,3.99,3.99
106.42,3.39,-0.55,3.39,-0.55,0.55,0.49,0.38,3.93,3.94,3.94
107.48,3.39,-0.49,3.39,-0.49,0.49,0.44,0.34,3.87,3.88,3.88
108.56,3.39,-0.44,3.39,-0.43,0.43,0.39,0.29,3.81,3.82,3.83
109.64,3.39,-0.38,3.40,-0.37,0.37,0.35,0.24,3.75,3.76,3.77
110.74,3.39,-0.32,3.40,-0.31,0.31,0.30,0.20,3.69,3.70,3.71
111.85,3.39,-0.26,3.40,-0.25,0.25,0.26,0.15,3.63,3.65,3.65
112.97,3.40,-0.20,3.40,-0.19,0.19,0.21,0.11,3.58,3.59,3.60
114.10,3.41,-0.13,3.40,-0.13,0.13,0.17,0.07,3.54,3.53,3.54
115.24,3.41,-0.05,3.39,-0.08,0.08,0.12,0.03,3.48,3.47,3.46
116.39,3.41,0.01,3.39,-0.03,0.03,0.08,-0.01,3.43,3.41,3.40
117.55,3.40,0.06,3.38,0.02,-0.02,0.04,-0.05,3.37,3.36,3.34
118.73,3.38,0.10,3.36,0.06,-0.06,-0.00,-0.09,3.31,3.30,3.28
119.92,3.36,0.12,3.34,0.10,-0.10,-0.05,-0.12,3.25,3.24,3.24
121.12,3.34,0.15,3.32,0.14,-0.14,-0.09,-0.16,3.20,3.18,3.19
122.33,3.31,0.18,3.30,0.17,-0.17,-0.13,-0.20,3.13,3.13,3.13
123.55,3.28,0.20,3.27,0.20,-0.20,-0.17,-0.23,3.07,3.07,3.08
124.79,3.25,0.22,3.24,0.23,-0.23,-0.21,-0.26,3.02,3.02,3.03
126.03,3.22,0.25,3.21,0.25,-0.25,-0.25,-0.29,2.96,2.96,2.97
127.29,3.18,0.26,3.18,0.27,-0.27,-0.28,-0.32,2.90,2.91,2.92
128.57,3.15,0.30,3.15,0.30,-0.30,-0.32,-0.35,2.85,2.85,2.85
129.85,3.13,0.33,3.13,0.33,-0.33,-0.36,-0.38,2.80,2.80,2.80
131.15,3.10,0.36,3.11,0.36,-0.36,-0.40,-0.41,2.73,2.74,2.74
132.46,3.08,0.39,3.09,0.40,-0.40,-0.44,-0.44,2.68,2.69,2.69
133.79,3.06,0.43,3.07,0.44,-0.44,-0.48,-0.46,2.62,2.63,2.63
135.12,3.05,0.47,3.06,0.48,-0.48,-0.51,-0.49,2.57,2.58,2.58
136.48,3.04,0.51,3.05,0.52,-0.52,-0.55,-0.51,2.51,2.53,2.53
137.84,3.04,0.56,3.04,0.57,-0.57,-0.59,-0.54,2.47,2.48,2.48
139.22,3.05,0.63,3.04,0.62,-0.62,-0.63,-0.56,2.43,2.43,2.42
140.61,3.05,0.67,3.05,0.67,-0.67,-0.66,-0.59,2.38,2.38,2.38
142.02,3.06,0.74,3.05,0.72,-0.72,-0.70,-0.61,2.33,2.33,2.32
143.44,3.06,0.78,3.05,0.77,-0.77,-0.74,-0.63,2.28,2.28,2.28
144.87,3.06,0.82,3.06,0.82,-0.82,-0.78,-0.66,2.23,2.24,2.24
146.32,3.06,0.87,3.06,0.87,-0.87,-0.81,-0.68,2.18,2.19,2.19
147.78,3.07,0.92,3.07,0.92,-0.92,-0.85,-0.71,2.14,2.15,2.15
149.26,3.08,0.98,3.07,0.97,-0.97,-0.89,-0.73,2.11,2.10,2.10
150.75,3.09,1.03,3.07,1.01,-1.01,-0.93,-0.75,2.08,2.06,2.06
152.26,3.08,1.06,3.06,1.05,-1.05,-0.96,-0.78,2.03,2.02,2.02
153.78,3.08,1.10,3.06,1.08,-1.08,-1.00,-0.80,1.99,1.97,1.98
155.32,3.06,1.12,3.04,1.11,-1.11,-1.04,-0.83,1.94,1.93,1.94
156.88,3.04,1.15,3.03,1.14,-1.14,-1.07,-0.86,1.90,1.89,1.89
158.44,3.02,1.18,3.01,1.16,-1.16,-1.11,-0.88,1.85,1.84,1.84
160.03,3.00,1.20,2.98,1.19,-1.19,-1.15,-0.91,1.81,1.80,1.80
161.63,2.97,1.21,2.96,1.21,-1.21,-1.19,-0.94,1.76,1.75,1.76
163.24,2.94,1.23,2.93,1.22,-1.22,-1.22,-0.97,1.71,1.71,1.71
164.88,2.91,1.25,2.90,1.24,-1.24,-1.26,-1.00,1.67,1.66,1.66
166.53,2.87,1.26,2.87,1.25,-1.25,-1.30,-1.03,1.61,1.62,1.61
168.19,2.84,1.26,2.84,1.27,-1.27,-1.33,-1.06,1.56,1.57,1.58
169.87,2.81,1.29,2.81,1.29,-1.29,-1.37,-1.10,1.51,1.52,1.52
171.57,2.79,1.32,2.79,1.32,-1.32,-1.41,-1.13,1.47,1.47,1.47
173.29,2.76,1.33,2.77,1.35,-1.35,-1.44,-1.17,1.41,1.43,1.43
175.02,2.74,1.36,2.75,1.37,-1.37,-1.48,-1.20,1.36,1.38,1.38
176.77,2.73,1.40,2.74,1.41,-1.41,-1.51,-1.24,1.32,1.33,1.33
178.54,2.72,1.43,2.73,1.44,-1.44,-1.55,-1.28,1.27,1.29,1.29
180.32,2.71,1.48,2.72,1.48,-1.48,-1.58,-1.32,1.22,1.24,1.23
182.13,2.72,1.52,2.72,1.53,-1.53,-1.62,-1.36,1.19,1.19,1.20
183.95,2.73,1.58,2.72,1.57,-1.57,-1.65,-1.40,1.16,1.15,1.15
185.79,2.73,1.63,2.72,1.62,-1.62,-1.69,-1.44,1.11,1.10,1.10
187.65,2.74,1.68,2.72,1.66,-1.66,-1.72,-1.49,1.07,1.06,1.06
189.52,2.74,1.72,2.72,1.71,-1.71,-1.75,-1.53,1.03,1.02,1.02
191.42,2.74,1.76,2.73,1.75,-1.75,-1.78,-1.58,0.98,0.97,0.98
193.33,2.74,1.80,2.73,1.80,-1.80,-1.82,-1.62,0.94,0.93,0.94
195.27,2.74,1.85,2.73,1.84,-1.84,-1.85,-1.67,0.89,0.89,0.89
197.22,2.74,1.90,2.73,1.88,-1.88,-1.88,-1.72,0.85,0.85,0.84
199.19,2.74,1.93,2.74,1.92,-1.92,-1.91,-1.76,0.82,0.82,0.81
201.18,2.74,1.97,2.74,1.95,-1.95,-1.93,-1.81,0.78,0.78,0.77
203.19,2.74,2.00,2.74,1.99,-1.99,-1.96,-1.86,0.75,0.75,0.74
205.23,2.74,2.02,2.74,2.02,-2.02,-1.99,-1.91,0.71,0.71,0.72
207.28,2.74,2.05,2.74,2.06,-2.06,-2.01,-1.96,0.68,0.68,0.69
209.35,2.74,2.09,2.74,2.09,-2.09,-2.04,-2.00,0.64,0.65,0.65
211.44,2.74,2.12,2.74,2.12,-2.12,-2.06,-2.05,0.61,0.62,0.62
213.56,2.74,2.14,2.75,2.16,-2.16,-2.08,-2.10,0.58,0.59,0.60
215.69,2.74,2.17,2.75,2.19,-2.19,-2.10,-2.14,0.55,0.56,0.57
217.85,2.74,2.20,2.75,2.21,-2.21,-2.12,-2.19,0.52,0.54,0.54
220.03,2.75,2.24,2.75,2.24,-2.24,-2.14,-2.23,0.51,0.51,0.51
222.23,2.76,2.28,2.75,2.26,-2.26,-2.15,-2.27,0.50,0.49,0.48
224.45,2.76,2.29,2.74,2.28,-2.28,-2.17,-2.31,0.48,0.47,0.47
226.70,2.76,2.32,2.74,2.29,-2.29,-2.18,-2.35,0.46,0.44,0.44
228.96,2.75,2.32,2.73,2.30,-2.30,-2.19,-2.38,0.44,0.42,0.43
231.25,2.73,2.32,2.71,2.31,-2.31,-2.21,-2.41,0.42,0.41,0.41
233.57,2.71,2.32,2.69,2.30,-2.30,-2.21,-2.44,0.40,0.39,0.39
235.90,2.69,2.31,2.67,2.30,-2.30,-2.22,-2.47,0.39,0.38,0.38
238.26,2.66,2.31,2.65,2.29,-2.29,-2.23,-2.49,0.37,0.36,0.35
240.64,2.63,2.27,2.62,2.27,-2.27,-2.23,-2.51,0.35,0.35,0.36
243.05,2.60,2.26,2.59,2.25,-2.25,-2.23,-2.52,0.34,0.34,0.34
245.48,2.57,2.24,2.57,2.23,-2.23,-2.23,-2.53,0.33,0.33,0.33
247.93,2.54,2.22,2.54,2.21,-2.21,-2.23,-2.54,0.32,0.33,0.32
250.41,2.51,2.18,2.51,2.19,-2.19,-2.23,-2.54,0.31,0.32,0.33
252.92,2.48,2.16,2.49,2.17,-2.17,-2.23,-2.53,0.30,0.32,0.32
255.45,2.46,2.15,2.47,2.16,-2.16,-2.22,-2.53,0.30,0.31,0.31
258.00,2.43,2.12,2.46,2.15,-2.15,-2.21,-2.51,0.28,0.31,0.31
260.58,2.42,2.11,2.44,2.14,-2.14,-2.20,-2.50,0.28,0.31,0.31
263.19,2.41,2.10,2.43,2.13,-2.13,-2.19,-2.48,0.28,0.30,0.31
265.82,2.41,2.11,2.42,2.12,-2.12,-2.18,-2.46,0.29,0.30,0.30
268.48,2.42,2.12,2.41,2.11,-2.11,-2.17,-2.43,0.30,0.30,0.30
271.16,2.42,2.12,2.40,2.10,-2.10,-2.15,-2.40,0.31,0.29,0.30
273.87,2.41,2.11,2.39,2.09,-2.09,-2.14,-2.37,0.31,0.29,0.30
276.61,2.41,2.11,2.38,2.08,-2.08,-2.12,-2.33,0.32,0.29,0.30
279.38,2.39,2.11,2.36,2.07,-2.07,-2.10,-2.29,0.32,0.29,0.28
282.17,2.37,2.09,2.34,2.05,-2.05,-2.08,-2.25,0.31,0.29,0.28
284.99,2.34,2.05,2.32,2.03,-2.03,-2.06,-2.21,0.31,0.29,0.29
287.84,2.31,2.01,2.30,2.00,-2.00,-2.04,-2.16,0.30,0.29,0.30
290.72,2.28,1.99,2.27,1.98,-1.98,-2.01,-2.12,0.30,0.30,0.29
293.63,2.25,1.95,2.25,1.95,-1.95,-1.99,-2.07,0.30,0.30,0.30
296.57,2.22,1.91,2.22,1.91,-1.91,-1.96,-2.02,0.30,0.31,0.31
299.53,2.19,1.88,2.19,1.88,-1.88,-1.94,-1.97,0.30,0.31,0.31
302.53,2.16,1.83,2.17,1.86,-1.86,-1.91,-1.93,0.30,0.32,0.33
305.55,2.13,1.81,2.15,1.83,-1.83,-1.88,-1.88,0.30,0.32,0.32
308.61,2.11,1.78,2.13,1.80,-1.80,-1.85,-1.83,0.30,0.33,0.33
311.69,2.10,1.76,2.12,1.78,-1.78,-1.82,-1.78,0.31,0.34,0.34
314.81,2.09,1.75,2.10,1.76,-1.76,-1.79,-1.73,0.33,0.34,0.34
317.96,2.09,1.74,2.09,1.74,-1.74,-1.76,-1.68,0.34,0.35,0.35
321.14,2.09,1.73,2.08,1.72,-1.72,-1.73,-1.63,0.36,0.36,0.36
324.35,2.09,1.73,2.07,1.70,-1.70,-1.70,-1.58,0.39,0.37,0.36
327.59,2.08,1.69,2.05,1.68,-1.68,-1.67,-1.53,0.40,0.37,0.39
330.87,2.07,1.69,2.04,1.66,-1.66,-1.64,-1.49,0.41,0.38,0.38
334.18,2.05,1.66,2.02,1.63,-1.63,-1.60,-1.44,0.41,0.39,0.39
337.52,2.02,1.63,2.00,1.61,-1.61,-1.57,-1.40,0.41,0.40,0.39
340.90,2.00,1.59,1.98,1.58,-1.58,-1.54,-1.35,0.42,0.41,0.41
344.30,1.97,1.55,1.96,1.55,-1.55,-1.51,-1.31,0.42,0.41,0.42
347.75,1.93,1.51,1.94,1.51,-1.51,-1.47,-1.27,0.41,0.42,0.42
351.23,1.90,1.48,1.91,1.48,-1.48,-1.44,-1.22,0.41,0.43,0.42
354.74,1.87,1.42,1.88,1.45,-1.45,-1.41,-1.18,0.42,0.44,0.45
358.28,1.85,1.41,1.86,1.41,-1.41,-1.37,-1.14,0.43,0.44,0.44
361.87,1.83,1.38,1.83,1.38,-1.38,-1.34,-1.11,0.44,0.45,0.45
365.49,1.81,1.35,1.81,1.35,-1.35,-1.31,-1.07,0.45,0.46,0.46
369.14,1.79,1.31,1.79,1.32,-1.32,-1.27,-1.03,0.46,0.47,0.48
372.83,1.77,1.29,1.77,1.29,-1.29,-1.24,-1.00,0.47,0.48,0.48
376.56,1.75,1.27,1.75,1.26,-1.26,-1.21,-0.96,0.49,0.49,0.48
380.33,1.73,1.24,1.72,1.23,-1.23,-1.17,-0.93,0.50,0.49,0.49
384.13,1.72,1.21,1.70,1.20,-1.20,-1.14,-0.89,0.52,0.50,0.51
387.97,1.70,1.19,1.68,1.17,-1.17,-1.11,-0.86,0.53,0.51,0.51
391.85,1.68,1.16,1.66,1.13,-1.13,-1.07,-0.83,0.54,0.52,0.52
395.77,1.65,1.12,1.64,1.10,-1.10,-1.04,-0.80,0.54,0.53,0.53
399.73,1.62,1.08,1.61,1.07,-1.07,-1.01,-0.77,0.55,0.54,0.54
403.72,1.59,1.02,1.59,1.03,-1.03,-0.97,-0.74,0.55,0.55,0.57
407.76,1.56,1.00,1.56,1.00,-1.00,-0.94,-0.71,0.55,0.56,0.56
411.84,1.53,0.96,1.54,0.97,-0.97,-0.91,-0.69,0.56,0.57,0.57
415.96,1.51,0.92,1.52,0.94,-0.94,-0.88,-0.66,0.57,0.58,0.59
420.12,1.49,0.90,1.50,0.91,-0.91,-0.84,-0.63,0.58,0.59,0.59
424.32,1.48,0.88,1.48,0.88,-0.88,-0.81,-0.61,0.60,0.60,0.60
428.56,1.46,0.84,1.45,0.84,-0.84,-0.78,-0.58,0.61,0.61,0.62
432.85,1.44,0.81,1.43,0.82,-0.82,-0.75,-0.56,0.62,0.62,0.63
437.18,1.42,0.80,1.42,0.79,-0.79,-0.72,-0.53,0.63,0.63,0.62
441.55,1.40,0.77,1.40,0.76,-0.76,-0.68,-0.51,0.63,0.64,0.63
445.96,1.38,0.74,1.38,0.73,-0.73,-0.65,-0.48,0.64,0.64,0.64
450.42,1.37,0.72,1.36,0.70,-0.70,-0.62,-0.46,0.66,0.65,0.65
454.93,1.34,0.68,1.33,0.67,-0.67,-0.59,-0.44,0.67,0.66,0.66
459.48,1.32,0.65,1.31,0.64,-0.64,-0.56,-0.41,0.68,0.67,0.67
464.07,1.29,0.60,1.28,0.60,-0.60,-0.53,-0.39,0.68,0.68,0.69
468.71,1.27,0.57,1.25,0.56,-0.56,-0.50,-0.37,0.70,0.69,0.70
473.40,1.24,0.54,1.22,0.53,-0.53,-0.46,-0.35,0.71,0.70,0.70
478.13,1.21,0.50,1.20,0.49,-0.49,-0.43,-0.32,0.72,0.71,0.71
482.91,1.17,0.45,1.17,0.45,-0.45,-0.40,-0.30,0.72,0.72,0.72
487.74,1.13,0.40,1.14,0.41,-0.41,-0.37,-0.28,0.72,0.73,0.73
492.62,1.09,0.35,1.11,0.36,-0.36,-0.34,-0.26,0.72,0.74,0.74
497.55,1.06,0.31,1.08,0.32,-0.32,-0.31,-0.24,0.73,0.75,0.75
502.52,1.03,0.27,1.04,0.28,-0.28,-0.28,-0.21,0.75,0.77,0.76
507.55,1.01,0.23,1.01,0.23,-0.23,-0.24,-0.19,0.77,0.78,0.78
512.62,0.99,0.20,0.97,0.18,-0.18,-0.21,-0.17,0.80,0.79,0.79
517.75,0.96,0.15,0.93,0.13,-0.13,-0.18,-0.15,0.82,0.80,0.81
522.93,0.93,0.11,0.89,0.08,-0.08,-0.15,-0.12,0.85,0.81,0.82
528.16,0.88,0.05,0.85,0.03,-0.03,-0.11,-0.10,0.85,0.83,0.83
533.44,0.84,-0.00,0.81,-0.02,0.02,-0.08,-0.08,0.86,0.84,0.84
538.77,0.79,-0.06,0.78,-0.07,0.07,-0.05,-0.05,0.86,0.85,0.85
544.16,0.74,-0.12,0.74,-0.12,0.12,-0.01,-0.03,0.86,0.86,0.86
549.60,0.69,-0.18,0.70,-0.17,0.17,0.02,-0.01,0.86,0.87,0.87
555.10,0.64,-0.25,0.66,-0.22,0.22,0.05,0.02,0.85,0.88,0.89
560.65,0.61,-0.29,0.63,-0.26,0.26,0.09,0.04,0.87,0.89,0.90
