frequency,raw,error,smoothed,error_smoothed,equalization,parametric_eq,fixed_band_eq,equalized_raw,equalized_smoothed,target
20.00,-3.70,-10.55,-3.70,-10.55,10.55,9.87,3.98,6.85,6.85,6.85
20.20,-3.64,-10.48,-3.64,-10.47,10.47,9.85,4.08,6.83,6.83,6.84
20.40,-3.58,-10.40,-3.58,-10.40,10.40,9.83,4.19,6.82,6.82,6.82
20.61,-3.52,-10.33,-3.52,-10.33,10.33,9.80,4.31,6.81,6.81,6.81
20.81,-3.46,-10.25,-3.45,-10.25,10.25,9.78,4.42,6.79,6.80,6.79
21.02,-3.39,-10.17,-3.39,-10.18,10.18,9.75,4.54,6.79,6.79,6.78
21.23,-3.33,-10.10,-3.33,-10.11,10.11,9.73,4.66,6.78,6.78,6.77
21.44,-3.27,-10.05,-3.27,-10.04,10.04,9.70,4.79,6.77,6.77,6.78
21.66,-3.21,-9.97,-3.21,-9.97,9.97,9.68,4.92,6.76,6.76,6.76
21.87,-3.15,-9.91,-3.15,-9.90,9.90,9.65,5.06,6.75,6.75,6.76
22.09,-3.09,-9.83,-3.09,-9.83,9.83,9.62,5.19,6.74,6.74,6.74
22.31,-3.03,-9.76,-3.03,-9.76,9.76,9.59,5.33,6.74,6.73,6.74
22.54,-2.97,-9.70,-2.97,-9.70,9.70,9.56,5.48,6.73,6.73,6.73
22.76,-2.91,-9.63,-2.91,-9.63,9.63,9.53,5.63,6.72,6.72,6.72
22.99,-2.85,-9.56,-2.85,-9.57,9.57,9.50,5.78,6.72,6.72,6.71
23.22,-2.79,-9.49,-2.79,-9.50,9.50,9.47,5.94,6.71,6.71,6.70
23.45,-2.74,-9.45,-2.74,-9.44,9.44,9.43,6.10,6.70,6.71,6.71
23.69,-2.68,-9.38,-2.68,-9.38,9.38,9.40,6.26,6.69,6.70,6.70
23.92,-2.62,-9.31,-2.62,-9.31,9.31,9.37,6.43,6.69,6.70,6.69
24.16,-2.56,-9.26,-2.56,-9.25,9.25,9.33,6.60,6.69,6.69,6.70
24.40,-2.50,-9.19,-2.50,-9.19,9.19,9.29,6.77,6.69,6.69,6.69
24.65,-2.44,-9.13,-2.44,-9.13,9.13,9.26,6.95,6.69,6.69,6.69
24.89,-2.38,-9.07,-2.38,-9.07,9.07,9.22,7.13,6.69,6.68,6.69
25.14,-2.33,-9.01,-2.33,-9.01,9.01,9.18,7.32,6.68,6.68,6.68
25.39,-2.27,-8.95,-2.27,-8.95,8.95,9.15,7.50,6.68,6.68,6.68
25.65,-2.21,-8.89,-2.21,-8.89,8.89,9.11,7.69,6.68,6.68,6.68
25.91,-2.15,-8.82,-2.15,-8.83,8.83,9.07,7.88,6.68,6.68,6.67
26.16,-2.09,-8.77,-2.09,-8.77,8.77,9.03,8.07,6.68,6.68,6.68
26.43,-2.04,-8.72,-2.04,-8.71,8.71,8.99,8.26,6.67,6.68,6.68
26.69,-1.98,-8.66,-1.98,-8.66,8.66,8.95,8.45,6.68,6.68,6.68
26.96,-1.93,-8.61,-1.93,-8.60,8.60,8.90,8.63,6.67,6.68,6.68
27.23,-1.87,-8.54,-1.87,-8.55,8.55,8.86,8.82,6.68,6.68,6.67
27.50,-1.82,-8.49,-1.82,-8.50,8.50,8.82,9.00,6.68,6.68,6.67
27.77,-1.76,-8.44,-1.76,-8.44,8.44,8.77,9.18,6.68,6.68,6.68
28.05,-1.71,-8.38,-1.71,-8.39,8.39,8.73,9.35,6.68,6.68,6.68
28.33,-1.66,-8.34,-1.66,-8.34,8.34,8.68,9.51,6.68,6.68,6.68
28.62,-1.61,-8.29,-1.61,-8.29,8.29,8.64,9.66,6.68,6.68,6.68
28.90,-1.56,-8.25,-1.56,-8.24,8.24,8.59,9.80,6.68,6.68,6.69
29.19,-1.51,-8.19,-1.51,-8.19,8.19,8.54,9.93,6.68,6.68,6.68
29.48,-1.46,-8.14,-1.46,-8.14,8.14,8.50,10.05,6.68,6.68,6.68
29.78,-1.41,-8.09,-1.42,-8.09,8.09,8.45,10.15,6.68,6.67,6.68
30.08,-1.36,-8.03,-1.37,-8.04,8.04,8.40,10.24,6.68,6.67,6.67
30.38,-1.32,-7.98,-1.33,-8.00,8.00,8.35,10.30,6.67,6.66,6.66
30.68,-1.29,-7.95,-1.29,-7.95,7.95,8.30,10.35,6.66,6.66,6.66
30.99,-1.25,-7.90,-1.25,-7.90,7.90,8.25,10.38,6.65,6.65,6.65
31.30,-1.21,-7.86,-1.20,-7.85,7.85,8.20,10.39,6.64,6.65,6.65
31.61,-1.17,-7.81,-1.16,-7.80,7.80,8.15,10.38,6.63,6.64,6.64
31.93,-1.13,-7.75,-1.12,-7.75,7.75,8.09,10.35,6.62,6.63,6.62
32.24,-1.09,-7.71,-1.08,-7.70,7.70,8.04,10.31,6.62,6.62,6.62
32.57,-1.05,-7.66,-1.04,-7.66,7.66,7.99,10.24,6.61,6.61,6.61
32.89,-1.00,-7.61,-1.00,-7.61,7.61,7.93,10.16,6.61,6.61,6.61
33.22,-0.96,-7.56,-0.96,-7.56,7.56,7.88,10.06,6.60,6.60,6.60
33.55,-0.92,-7.51,-0.92,-7.51,7.51,7.82,9.95,6.59,6.59,6.59
33.89,-0.88,-7.46,-0.88,-7.47,7.47,7.77,9.83,6.59,6.58,6.58
34.23,-0.84,-7.40,-0.84,-7.42,7.42,7.71,9.70,6.58,6.57,6.56
34.57,-0.81,-7.37,-0.81,-7.37,7.37,7.65,9.56,6.56,6.56,6.56
34.92,-0.77,-7.31,-0.77,-7.32,7.32,7.60,9.41,6.55,6.55,6.54
35.27,-0.73,-7.29,-0.73,-7.27,7.27,7.54,9.25,6.54,6.54,6.55
35.62,-0.70,-7.23,-0.70,-7.23,7.23,7.48,9.09,6.53,6.53,6.53
35.97,-0.66,-7.18,-0.67,-7.18,7.18,7.42,8.93,6.52,6.51,6.52
36.33,-0.63,-7.13,-0.63,-7.13,7.13,7.36,8.77,6.50,6.50,6.50
36.70,-0.60,-7.08,-0.60,-7.08,7.08,7.30,8.60,6.48,6.48,6.48
37.06,-0.57,-7.03,-0.57,-7.03,7.03,7.24,8.43,6.46,6.46,6.46
37.43,-0.54,-6.98,-0.54,-6.98,6.98,7.18,8.27,6.44,6.44,6.44
37.81,-0.52,-6.94,-0.51,-6.93,6.93,7.12,8.10,6.41,6.42,6.42
38.19,-0.49,-6.88,-0.48,-6.88,6.88,7.06,7.94,6.39,6.40,6.39
38.57,-0.46,-6.83,-0.45,-6.83,6.83,6.99,7.78,6.37,6.38,6.37
38.95,-0.43,-6.78,-0.43,-6.78,6.78,6.93,7.62,6.35,6.35,6.36
39.34,-0.40,-6.73,-0.40,-6.72,6.72,6.87,7.47,6.32,6.33,6.33
39.74,-0.37,-6.67,-0.37,-6.67,6.67,6.80,7.32,6.30,6.30,6.30
40.14,-0.34,-6.62,-0.34,-6.62,6.62,6.74,7.17,6.28,6.28,6.28
40.54,-0.31,-6.56,-0.32,-6.57,6.57,6.68,7.03,6.26,6.25,6.25
40.94,-0.28,-6.50,-0.29,-6.52,6.52,6.61,6.89,6.24,6.23,6.22
41.35,-0.26,-6.46,-0.26,-6.46,6.46,6.55,6.76,6.20,6.20,6.20
41.76,-0.23,-6.40,-0.23,-6.41,6.41,6.48,6.63,6.18,6.18,6.17
42.18,-0.21,-6.37,-0.20,-6.36,6.36,6.41,6.50,6.15,6.15,6.16
42.60,-0.18,-6.30,-0.18,-6.30,6.30,6.35,6.38,6.12,6.12,6.12
43.03,-0.16,-6.26,-0.15,-6.25,6.25,6.28,6.27,6.09,6.10,6.10
43.46,-0.13,-6.20,-0.13,-6.20,6.20,6.21,6.16,6.07,6.07,6.07
43.90,-0.11,-6.15,-0.10,-6.14,6.14,6.15,6.05,6.03,6.04,6.04
44.33,-0.08,-6.09,-0.08,-6.09,6.09,6.08,5.95,6.01,6.01,6.01
44.78,-0.05,-6.03,-0.06,-6.03,6.03,6.01,5.85,5.98,5.98,5.98
45.23,-0.03,-5.99,-0.03,-5.98,5.98,5.94,5.75,5.95,5.94,5.95
45.68,-0.01,-5.92,-0.01,-5.92,5.92,5.87,5.66,5.91,5.91,5.91
46.13,0.01,-5.86,0.01,-5.86,5.86,5.80,5.58,5.87,5.87,5.87
46.60,0.03,-5.80,0.02,-5.81,5.81,5.74,5.50,5.84,5.83,5.83
47.06,0.04,-5.75,0.04,-5.75,5.75,5.67,5.42,5.79,5.79,5.79
47.53,0.06,-5.69,0.05,-5.69,5.69,5.60,5.35,5.75,5.74,5.75
48.01,0.07,-5.63,0.07,-5.63,5.63,5.53,5.28,5.70,5.70,5.70
48.49,0.08,-5.57,0.08,-5.58,5.58,5.46,5.21,5.66,5.65,5.65
48.97,0.09,-5.51,0.09,-5.52,5.52,5.38,5.15,5.61,5.61,5.60
49.46,0.10,-5.46,0.10,-5.46,5.46,5.31,5.09,5.56,5.56,5.56
49.96,0.11,-5.39,0.11,-5.40,5.40,5.24,5.03,5.51,5.52,5.50
50.46,0.12,-5.34,0.13,-5.34,5.34,5.17,4.98,5.46,5.47,5.46
50.96,0.13,-5.29,0.14,-5.28,5.28,5.10,4.93,5.41,5.42,5.42
51.47,0.14,-5.23,0.15,-5.22,5.22,5.03,4.88,5.36,5.37,5.38
51.99,0.16,-5.16,0.17,-5.16,5.16,4.96,4.84,5.32,5.33,5.32
52.51,0.18,-5.10,0.18,-5.10,5.10,4.88,4.79,5.28,5.28,5.28
53.03,0.20,-5.04,0.20,-5.04,5.04,4.81,4.75,5.24,5.23,5.24
53.56,0.22,-4.98,0.21,-4.97,4.97,4.74,4.71,5.19,5.19,5.20
54.10,0.23,-4.91,0.23,-4.91,4.91,4.67,4.67,5.14,5.14,5.14
54.64,0.26,-4.84,0.25,-4.85,4.85,4.59,4.63,5.11,5.10,5.10
55.18,0.27,-4.77,0.26,-4.79,4.79,4.52,4.59,5.06,5.05,5.04
55.74,0.28,-4.71,0.28,-4.73,4.73,4.45,4.55,5.01,5.01,4.99
56.29,0.30,-4.66,0.30,-4.67,4.67,4.37,4.51,4.97,4.96,4.96
56.86,0.31,-4.60,0.31,-4.60,4.60,4.30,4.47,4.91,4.92,4.91
57.42,0.32,-4.54,0.33,-4.54,4.54,4.23,4.43,4.86,4.87,4.86
58.00,0.34,-4.47,0.35,-4.47,4.47,4.15,4.39,4.81,4.82,4.81
58.58,0.36,-4.41,0.37,-4.40,4.40,4.08,4.35,4.76,4.77,4.77
59.16,0.38,-4.35,0.39,-4.33,4.33,4.01,4.31,4.71,4.71,4.74
59.76,0.40,-4.29,0.40,-4.26,4.26,3.93,4.26,4.66,4.66,4.69
60.35,0.42,-4.20,0.42,-4.19,4.19,3.86,4.21,4.61,4.61,4.62
60.96,0.44,-4.12,0.43,-4.12,4.12,3.79,4.16,4.56,4.55,4.56
61.57,0.46,-4.03,0.45,-4.04,4.04,3.71,4.11,4.50,4.49,4.49
62.18,0.47,-3.95,0.46,-3.97,3.97,3.64,4.05,4.44,4.43,4.42
62.80,0.49,-3.87,0.47,-3.90,3.90,3.56,4.00,4.39,4.37,4.36
63.43,0.49,-3.80,0.48,-3.82,3.82,3.49,3.93,4.31,4.31,4.29
64.07,0.50,-3.73,0.49,-3.75,3.75,3.42,3.87,4.25,4.24,4.23
64.71,0.50,-3.67,0.50,-3.68,3.68,3.34,3.80,4.18,4.18,4.17
65.35,0.50,-3.61,0.51,-3.61,3.61,3.27,3.74,4.11,4.12,4.11
66.01,0.50,-3.55,0.51,-3.54,3.54,3.20,3.66,4.04,4.05,4.05
66.67,0.51,-3.49,0.52,-3.47,3.47,3.12,3.59,3.98,3.99,4.00
67.33,0.52,-3.40,0.52,-3.41,3.41,3.05,3.51,3.93,3.92,3.92
68.01,0.53,-3.34,0.52,-3.34,3.34,2.98,3.43,3.87,3.86,3.87
68.69,0.53,-3.27,0.53,-3.27,3.27,2.90,3.35,3.80,3.80,3.80
69.37,0.53,-3.21,0.53,-3.20,3.20,2.83,3.27,3.73,3.73,3.74
70.07,0.54,-3.13,0.54,-3.13,3.13,2.76,3.19,3.67,3.67,3.67
70.77,0.55,-3.05,0.55,-3.05,3.05,2.69,3.10,3.60,3.60,3.60
71.48,0.55,-2.99,0.56,-2.97,2.97,2.61,3.02,3.52,3.53,3.54
72.19,0.56,-2.90,0.57,-2.89,2.89,2.54,2.93,3.45,3.46,3.46
72.91,0.57,-2.82,0.58,-2.82,2.82,2.47,2.84,3.39,3.40,3.39
73.64,0.59,-2.73,0.60,-2.74,2.74,2.40,2.75,3.33,3.33,3.32
74.38,0.61,-2.65,0.61,-2.65,2.65,2.32,2.66,3.26,3.26,3.26
75.12,0.62,-2.58,0.63,-2.57,2.57,2.25,2.57,3.19,3.20,3.20
75.87,0.65,-2.49,0.64,-2.49,2.49,2.18,2.48,3.14,3.14,3.14
76.63,0.66,-2.40,0.66,-2.41,2.41,2.11,2.39,3.07,3.07,3.06
77.40,0.68,-2.33,0.68,-2.33,2.33,2.04,2.30,3.01,3.01,3.01
78.17,0.70,-2.24,0.69,-2.25,2.25,1.97,2.22,2.95,2.95,2.94
78.95,0.72,-2.17,0.71,-2.17,2.17,1.90,2.13,2.89,2.89,2.89
79.74,0.73,-2.10,0.73,-2.10,2.10,1.83,2.04,2.83,2.83,2.83
80.54,0.75,-2.02,0.75,-2.02,2.02,1.76,1.95,2.77,2.76,2.77
81.35,0.77,-1.93,0.76,-1.94,1.94,1.69,1.86,2.71,2.70,2.70
82.16,0.78,-1.87,0.78,-1.86,1.86,1.62,1.78,2.64,2.64,2.65
82.98,0.78,-1.80,0.79,-1.79,1.79,1.55,1.69,2.57,2.58,2.58
83.81,0.79,-1.73,0.80,-1.71,1.71,1.48,1.61,2.50,2.51,2.52
84.65,0.80,-1.65,0.81,-1.64,1.64,1.41,1.53,2.44,2.45,2.45
85.50,0.81,-1.57,0.82,-1.57,1.57,1.34,1.44,2.38,2.38,2.38
86.35,0.83,-1.49,0.82,-1.50,1.50,1.27,1.36,2.33,2.32,2.32
87.22,0.85,-1.40,0.83,-1.43,1.43,1.21,1.28,2.28,2.25,2.25
88.09,0.85,-1.33,0.83,-1.36,1.36,1.14,1.20,2.21,2.18,2.18
88.97,0.84,-1.28,0.83,-1.29,1.29,1.07,1.12,2.13,2.12,2.12
89.86,0.83,-1.22,0.83,-1.22,1.22,1.01,1.04,2.05,2.05,2.05
90.76,0.82,-1.16,0.83,-1.14,1.14,0.94,0.96,1.96,1.98,1.98
91.66,0.82,-1.08,0.83,-1.07,1.07,0.87,0.88,1.89,1.90,1.90
92.58,0.82,-1.02,0.83,-1.00,1.00,0.81,0.81,1.82,1.83,1.84
93.51,0.82,-0.95,0.83,-0.93,0.93,0.74,0.73,1.75,1.76,1.77
94.44,0.82,-0.87,0.82,-0.86,0.86,0.68,0.66,1.68,1.68,1.69
95.39,0.82,-0.79,0.82,-0.79,0.79,0.61,0.58,1.61,1.61,1.61
96.34,0.82,-0.72,0.82,-0.72,0.72,0.55,0.51,1.54,1.54,1.54
97.30,0.82,-0.64,0.82,-0.65,0.65,0.49,0.43,1.47,1.46,1.46
98.28,0.82,-0.56,0.82,-0.57,0.57,0.42,0.36,1.39,1.39,1.38
99.26,0.82,-0.49,0.82,-0.50,0.50,0.36,0.29,1.32,1.32,1.31
100.25,0.82,-0.41,0.82,-0.42,0.42,0.30,0.22,1.24,1.24,1.23
101.25,0.82,-0.35,0.82,-0.35,0.35,0.24,0.15,1.17,1.17,1.17
102.27,0.82,-0.28,0.82,-0.28,0.28,0.18,0.08,1.10,1.10,1.10
103.29,0.82,-0.21,0.82,-0.21,0.21,0.11,0.01,1.03,1.03,1.03
104.32,0.82,-0.14,0.82,-0.14,0.14,0.05,-0.06,0.96,0.96,0.96
105.37,0.82,-0.08,0.82,-0.08,0.08,-0.01,-0.13,0.90,0.89,0.90
106.42,0.82,-0.01,0.82,-0.01,0.01,-0.06,-0.19,0.83,0.82,0.83
107.48,0.82,0.07,0.82,0.07,-0.07,-0.12,-0.26,0.75,0.75,0.75
108.56,0.82,0.13,0.82,0.14,-0.14,-0.18,-0.32,0.68,0.68,0.69
109.64,0.82,0.20,0.83,0.21,-0.21,-0.24,-0.38,0.61,0.61,0.62
110.74,0.82,0.27,0.83,0.29,-0.29,-0.30,-0.45,0.53,0.54,0.55
111.85,0.82,0.35,0.83,0.36,-0.36,-0.36,-0.51,0.46,0.47,0.47
112.97,0.82,0.41,0.84,0.44,-0.44,-0.41,-0.57,0.38,0.40,0.41
114.10,0.83,0.49,0.84,0.51,-0.51,-0.47,-0.63,0.32,0.33,0.34
115.24,0.84,0.59,0.84,0.58,-0.58,-0.52,-0.68,0.26,0.26,0.25
116.39,0.85,0.67,0.83,0.65,-0.65,-0.58,-0.74,0.20,0.19,0.18
117.55,0.85,0.74,0.83,0.71,-0.71,-0.63,-0.79,0.14,0.12,0.11
118.73,0.84,0.81,0.82,0.77,-0.77,-0.69,-0.85,0.07,0.05,0.03
119.92,0.82,0.85,0.80,0.82,-0.82,-0.74,-0.90,-0.00,-0.02,-0.03
121.12,0.80,0.89,0.79,0.88,-0.88,-0.79,-0.95,-0.08,-0.09,-0.09
122.33,0.78,0.94,0.77,0.92,-0.92,-0.85,-0.99,-0.14,-0.16,-0.16
123.55,0.75,0.97,0.74,0.97,-0.97,-0.90,-1.04,-0.22,-0.23,-0.22
124.79,0.72,1.01,0.71,1.01,-1.01,-0.95,-1.08,-0.29,-0.29,-0.29
126.03,0.67,1.02,0.68,1.04,-1.04,-1.00,-1.13,-0.37,-0.36,-0.35
127.29,0.65,1.07,0.65,1.08,-1.08,-1.05,-1.17,-0.43,-0.43,-0.42
128.57,0.62,1.12,0.62,1.11,-1.11,-1.10,-1.21,-0.49,-0.50,-0.50
129.85,0.58,1.14,0.59,1.15,-1.15,-1.15,-1.25,-0.57,-0.56,-0.56
131.15,0.54,1.18,0.56,1.19,-1.19,-1.20,-1.28,-0.65,-0.63,-0.64
132.46,0.53,1.23,0.54,1.24,-1.24,-1.25,-1.32,-0.71,-0.70,-0.70
133.79,0.50,1.27,0.52,1.29,-1.29,-1.30,-1.36,-0.79,-0.77,-0.77
135.12,0.48,1.31,0.51,1.34,-1.34,-1.34,-1.39,-0.86,-0.83,-0.83
136.48,0.47,1.36,0.50,1.39,-1.39,-1.39,-1.42,-0.92,-0.90,-0.89
137.84,0.48,1.44,0.49,1.45,-1.45,-1.44,-1.46,-0.97,-0.96,-0.96
139.22,0.48,1.51,0.48,1.51,-1.51,-1.48,-1.49,-1.03,-1.02,-1.03
140.61,0.49,1.58,0.48,1.57,-1.57,-1.53,-1.52,-1.08,-1.09,-1.09
142.02,0.50,1.65,0.48,1.63,-1.63,-1.57,-1.55,-1.13,-1.15,-1.15
143.44,0.50,1.71,0.48,1.69,-1.69,-1.62,-1.58,-1.19,-1.20,-1.21
144.87,0.50,1.76,0.49,1.75,-1.75,-1.66,-1.61,-1.25,-1.26,-1.26
146.32,0.50,1.82,0.49,1.81,-1.81,-1.70,-1.65,-1.31,-1.32,-1.32
147.78,0.50,1.87,0.50,1.87,-1.87,-1.75,-1.68,-1.37,-1.37,-1.37
149.26,0.50,1.93,0.50,1.93,-1.93,-1.79,-1.71,-1.43,-1.43,-1.43
150.75,0.50,1.99,0.50,1.99,-1.99,-1.83,-1.75,-1.49,-1.48,-1.49
152.26,0.50,2.04,0.50,2.04,-2.04,-1.87,-1.78,-1.54,-1.54,-1.54
153.78,0.50,2.09,0.50,2.09,-2.09,-1.91,-1.81,-1.59,-1.59,-1.59
155.32,0.50,2.14,0.50,2.15,-2.15,-1.95,-1.85,-1.65,-1.65,-1.64
156.88,0.50,2.20,0.50,2.20,-2.20,-1.99,-1.89,-1.70,-1.70,-1.70
158.44,0.50,2.26,0.50,2.26,-2.26,-2.03,-1.93,-1.76,-1.76,-1.76
160.03,0.50,2.31,0.50,2.31,-2.31,-2.07,-1.97,-1.81,-1.81,-1.81
161.63,0.50,2.37,0.50,2.37,-2.37,-2.11,-2.01,-1.87,-1.87,-1.87
163.24,0.50,2.43,0.50,2.43,-2.43,-2.15,-2.05,-1.93,-1.93,-1.93
164.88,0.50,2.48,0.50,2.48,-2.48,-2.18,-2.10,-1.98,-1.98,-1.98
166.53,0.50,2.55,0.50,2.54,-2.54,-2.22,-2.14,-2.04,-2.04,-2.05
168.19,0.50,2.59,0.50,2.60,-2.60,-2.25,-2.19,-2.10,-2.10,-2.09
169.87,0.50,2.65,0.50,2.65,-2.65,-2.29,-2.24,-2.15,-2.15,-2.15
171.57,0.50,2.71,0.50,2.71,-2.71,-2.33,-2.29,-2.21,-2.21,-2.21
173.29,0.50,2.76,0.50,2.77,-2.77,-2.36,-2.35,-2.27,-2.27,-2.26
175.02,0.50,2.82,0.50,2.82,-2.82,-2.39,-2.40,-2.32,-2.32,-2.32
176.77,0.50,2.88,0.49,2.87,-2.87,-2.43,-2.46,-2.37,-2.38,-2.38
178.54,0.50,2.94,0.49,2.93,-2.93,-2.46,-2.52,-2.43,-2.44,-2.44
180.32,0.50,3.00,0.49,2.98,-2.98,-2.49,-2.58,-2.48,-2.49,-2.50
182.13,0.50,3.04,0.48,3.03,-3.03,-2.53,-2.65,-2.53,-2.55,-2.54
183.95,0.49,3.09,0.48,3.08,-3.08,-2.56,-2.71,-2.59,-2.60,-2.60
185.79,0.48,3.14,0.48,3.14,-3.14,-2.59,-2.78,-2.66,-2.65,-2.66
187.65,0.48,3.19,0.49,3.20,-3.20,-2.62,-2.85,-2.72,-2.71,-2.71
189.52,0.48,3.24,0.49,3.25,-3.25,-2.65,-2.92,-2.77,-2.76,-2.76
191.42,0.49,3.30,0.50,3.31,-3.31,-2.68,-3.00,-2.82,-2.81,-2.81
193.33,0.50,3.35,0.52,3.37,-3.37,-2.71,-3.07,-2.87,-2.86,-2.85
195.27,0.51,3.42,0.53,3.44,-3.44,-2.74,-3.15,-2.93,-2.90,-2.91
197.22,0.54,3.50,0.56,3.51,-3.51,-2.77,-3.22,-2.97,-2.95,-2.96
199.19,0.57,3.57,0.58,3.57,-3.57,-2.79,-3.30,-3.00,-2.99,-3.00
201.18,0.60,3.65,0.61,3.64,-3.64,-2.82,-3.38,-3.04,-3.04,-3.05
203.19,0.63,3.71,0.64,3.72,-3.72,-2.85,-3.46,-3.09,-3.08,-3.08
205.23,0.67,3.78,0.67,3.79,-3.79,-2.87,-3.54,-3.12,-3.12,-3.11
207.28,0.71,3.86,0.70,3.86,-3.86,-2.90,-3.63,-3.15,-3.16,-3.15
209.35,0.74,3.93,0.73,3.92,-3.92,-2.93,-3.71,-3.18,-3.19,-3.19
211.44,0.77,4.00,0.76,3.99,-3.99,-2.95,-3.79,-3.22,-3.23,-3.23
213.56,0.80,4.06,0.78,4.05,-4.05,-2.98,-3.87,-3.25,-3.26,-3.26
215.69,0.82,4.11,0.80,4.10,-4.10,-3.00,-3.95,-3.28,-3.30,-3.29
217.85,0.84,4.17,0.82,4.15,-4.15,-3.02,-4.02,-3.31,-3.33,-3.33
220.03,0.85,4.21,0.84,4.20,-4.20,-3.05,-4.10,-3.35,-3.36,-3.36
222.23,0.85,4.25,0.85,4.24,-4.24,-3.07,-4.17,-3.39,-3.39,-3.40
224.45,0.84,4.26,0.85,4.27,-4.27,-3.09,-4.25,-3.43,-3.42,-3.42
226.70,0.84,4.29,0.86,4.30,-4.30,-3.12,-4.31,-3.46,-3.44,-3.45
228.96,0.84,4.30,0.85,4.32,-4.32,-3.14,-4.38,-3.48,-3.47,-3.46
231.25,0.85,4.34,0.85,4.34,-4.34,-3.16,-4.44,-3.49,-3.49,-3.49
233.57,0.84,4.35,0.83,4.35,-4.35,-3.18,-4.49,-3.51,-3.51,-3.51
235.90,0.83,4.36,0.82,4.35,-4.35,-3.20,-4.54,-3.52,-3.53,-3.53
238.26,0.81,4.37,0.80,4.35,-4.35,-3.22,-4.59,-3.54,-3.55,-3.56
240.64,0.79,4.35,0.78,4.34,-4.34,-3.24,-4.63,-3.55,-3.56,-3.56
243.05,0.77,4.35,0.75,4.33,-4.33,-3.26,-4.66,-3.56,-3.58,-3.58
245.48,0.74,4.33,0.72,4.31,-4.31,-3.28,-4.69,-3.57,-3.59,-3.59
247.93,0.69,4.30,0.70,4.29,-4.29,-3.30,-4.71,-3.60,-3.60,-3.61
250.41,0.67,4.28,0.66,4.27,-4.27,-3.32,-4.72,-3.60,-3.61,-3.61
252.92,0.63,4.24,0.63,4.25,-4.25,-3.34,-4.73,-3.62,-3.62,-3.61
255.45,0.60,4.23,0.61,4.23,-4.23,-3.36,-4.73,-3.63,-3.62,-3.63
258.00,0.57,4.20,0.58,4.21,-4.21,-3.37,-4.73,-3.64,-3.63,-3.63
260.58,0.54,4.17,0.55,4.19,-4.19,-3.39,-4.72,-3.65,-3.64,-3.63
263.19,0.52,4.16,0.53,4.18,-4.18,-3.41,-4.70,-3.66,-3.64,-3.64
265.82,0.49,4.14,0.52,4.17,-4.17,-3.42,-4.68,-3.68,-3.65,-3.65
268.48,0.48,4.13,0.50,4.16,-4.16,-3.44,-4.66,-3.68,-3.66,-3.65
271.16,0.48,4.13,0.49,4.15,-4.15,-3.45,-4.63,-3.67,-3.66,-3.65
273.87,0.48,4.14,0.49,4.15,-4.15,-3.47,-4.59,-3.67,-3.66,-3.66
276.61,0.49,4.16,0.49,4.15,-4.15,-3.48,-4.55,-3.66,-3.67,-3.67
279.38,0.50,4.19,0.49,4.16,-4.16,-3.50,-4.51,-3.66,-3.67,-3.69
282.17,0.50,4.19,0.49,4.16,-4.16,-3.51,-4.47,-3.66,-3.68,-3.69
284.99,0.50,4.18,0.50,4.17,-4.17,-3.53,-4.42,-3.67,-3.68,-3.68
287.84,0.50,4.18,0.50,4.18,-4.18,-3.54,-4.37,-3.68,-3.68,-3.68
290.72,0.50,4.18,0.51,4.18,-4.18,-3.55,-4.32,-3.68,-3.68,-3.68
293.63,0.50,4.17,0.51,4.19,-4.19,-3.57,-4.27,-3.69,-3.68,-3.67
296.57,0.51,4.18,0.52,4.19,-4.19,-3.58,-4.22,-3.68,-3.67,-3.67
299.53,0.52,4.19,0.52,4.19,-4.19,-3.59,-4.16,-3.67,-3.67,-3.67
302.53,0.52,4.18,0.51,4.18,-4.18,-3.61,-4.11,-3.66,-3.67,-3.66
305.55,0.52,4.19,0.50,4.16,-4.16,-3.62,-4.06,-3.64,-3.66,-3.67
308.61,0.51,4.16,0.49,4.15,-4.15,-3.63,-4.01,-3.64,-3.66,-3.65
311.69,0.49,4.14,0.48,4.13,-4.13,-3.64,-3.96,-3.64,-3.65,-3.65
314.81,0.48,4.13,0.46,4.10,-4.10,-3.65,-3.91,-3.62,-3.64,-3.65
317.96,0.45,4.09,0.44,4.08,-4.08,-3.66,-3.87,-3.63,-3.64,-3.64
321.14,0.42,4.05,0.41,4.05,-4.05,-3.67,-3.82,-3.63,-3.63,-3.63
324.35,0.39,4.03,0.38,4.01,-4.01,-3.68,-3.78,-3.62,-3.63,-3.64
327.59,0.35,3.96,0.35,3.97,-3.97,-3.69,-3.74,-3.62,-3.62,-3.61
330.87,0.32,3.94,0.32,3.94,-3.94,-3.70,-3.70,-3.62,-3.62,-3.62
334.18,0.29,3.90,0.29,3.90,-3.90,-3.71,-3.66,-3.61,-3.61,-3.61
337.52,0.25,3.86,0.26,3.87,-3.87,-3.72,-3.63,-3.62,-3.60,-3.61
340.90,0.23,3.82,0.24,3.83,-3.83,-3.73,-3.60,-3.60,-3.60,-3.59
344.30,0.20,3.79,0.22,3.81,-3.81,-3.73,-3.57,-3.61,-3.59,-3.59
347.75,0.18,3.76,0.20,3.78,-3.78,-3.74,-3.55,-3.60,-3.58,-3.58
351.23,0.16,3.75,0.18,3.76,-3.76,-3.75,-3.52,-3.60,-3.58,-3.59
354.74,0.15,3.71,0.18,3.74,-3.74,-3.76,-3.50,-3.59,-3.57,-3.56
358.28,0.15,3.71,0.17,3.73,-3.73,-3.76,-3.49,-3.58,-3.56,-3.56
361.87,0.16,3.72,0.16,3.72,-3.72,-3.77,-3.47,-3.56,-3.56,-3.56
365.49,0.17,3.72,0.16,3.71,-3.71,-3.78,-3.46,-3.54,-3.55,-3.55
369.14,0.18,3.72,0.16,3.70,-3.70,-3.78,-3.45,-3.52,-3.54,-3.54
372.83,0.18,3.71,0.16,3.69,-3.69,-3.79,-3.44,-3.51,-3.53,-3.53
376.56,0.18,3.71,0.16,3.68,-3.68,-3.79,-3.44,-3.50,-3.53,-3.53
380.33,0.18,3.71,0.16,3.68,-3.68,-3.80,-3.44,-3.50,-3.52,-3.53
384.13,0.18,3.69,0.16,3.67,-3.67,-3.80,-3.44,-3.49,-3.51,-3.51
387.97,0.17,3.67,0.16,3.66,-3.66,-3.81,-3.44,-3.49,-3.50,-3.50
391.85,0.16,3.65,0.16,3.65,-3.65,-3.81,-3.45,-3.49,-3.49,-3.49
395.77,0.15,3.64,0.16,3.65,-3.65,-3.82,-3.46,-3.50,-3.48,-3.49
399.73,0.15,3.63,0.17,3.64,-3.64,-3.82,-3.47,-3.49,-3.47,-3.48
403.72,0.16,3.61,0.18,3.64,-3.64,-3.82,-3.48,-3.48,-3.46,-3.45
407.76,0.17,3.63,0.19,3.65,-3.65,-3.82,-3.49,-3.48,-3.46,-3.46
411.84,0.19,3.64,0.21,3.65,-3.65,-3.83,-3.51,-3.46,-3.45,-3.45
415.96,0.21,3.64,0.23,3.67,-3.67,-3.83,-3.52,-3.46,-3.44,-3.43
420.12,0.24,3.67,0.25,3.68,-3.68,-3.83,-3.54,-3.44,-3.43,-3.43
424.32,0.27,3.69,0.28,3.70,-3.70,-3.83,-3.56,-3.43,-3.42,-3.42
428.56,0.31,3.72,0.31,3.72,-3.72,-3.83,-3.58,-3.41,-3.41,-3.41
432.85,0.34,3.74,0.34,3.75,-3.75,-3.84,-3.60,-3.41,-3.40,-3.40
437.18,0.38,3.78,0.37,3.77,-3.77,-3.84,-3.61,-3.39,-3.40,-3.40
441.55,0.41,3.80,0.40,3.79,-3.79,-3.84,-3.63,-3.38,-3.39,-3.39
445.96,0.44,3.82,0.43,3.81,-3.81,-3.84,-3.65,-3.37,-3.38,-3.38
450.42,0.47,3.85,0.45,3.82,-3.82,-3.84,-3.67,-3.35,-3.37,-3.38
454.93,0.49,3.86,0.47,3.83,-3.83,-3.83,-3.69,-3.34,-3.36,-3.37
459.48,0.51,3.87,0.49,3.84,-3.84,-3.83,-3.70,-3.33,-3.35,-3.36
464.07,0.52,3.86,0.50,3.84,-3.84,-3.83,-3.71,-3.32,-3.35,-3.34
468.71,0.52,3.85,0.51,3.84,-3.84,-3.83,-3.73,-3.32,-3.34,-3.33
473.40,0.52,3.84,0.51,3.84,-3.84,-3.83,-3.74,-3.32,-3.33,-3.32
478.13,0.51,3.82,0.52,3.83,-3.83,-3.82,-3.74,-3.32,-3.32,-3.31
482.91,0.50,3.81,0.52,3.82,-3.82,-3.82,-3.75,-3.32,-3.31,-3.31
487.74,0.50,3.80,0.52,3.81,-3.81,-3.81,-3.75,-3.31,-3.30,-3.30
492.62,0.50,3.79,0.52,3.80,-3.80,-3.81,-3.75,-3.30,-3.28,-3.29
497.55,0.50,3.78,0.52,3.79,-3.79,-3.80,-3.75,-3.29,-3.27,-3.28
502.52,0.50,3.77,0.52,3.78,-3.78,-3.80,-3.74,-3.28,-3.26,-3.27
