frequency,raw,error,smoothed,error_smoothed,equalization,parametric_eq,fixed_band_eq,equalized_raw,equalized_smoothed,target
20.00,-18.59,-22.14,-18.59,-22.14,22.15,18.67,8.69,3.56,3.56,3.55
20.20,-18.48,-22.03,-18.48,-22.03,22.03,19.11,8.86,3.55,3.55,3.55
20.40,-18.37,-21.92,-18.37,-21.92,21.92,19.54,9.03,3.55,3.55,3.55
20.61,-18.25,-21.80,-18.25,-21.81,21.80,19.95,9.21,3.55,3.55,3.55
20.81,-18.13,-21.68,-18.13,-21.68,21.68,20.33,9.39,3.55,3.55,3.55
21.02,-18.01,-21.56,-18.01,-21.55,21.55,20.67,9.57,3.54,3.54,3.55
21.23,-17.88,-21.41,-17.88,-21.42,21.42,20.96,9.76,3.54,3.54,3.53
21.44,-17.76,-21.28,-17.76,-21.28,21.28,21.20,9.96,3.53,3.52,3.52
21.66,-17.64,-21.14,-17.64,-21.14,21.15,21.38,10.16,3.50,3.51,3.50
21.87,-17.52,-21.00,-17.52,-21.00,21.00,21.49,10.36,3.49,3.49,3.48
22.09,-17.39,-20.86,-17.39,-20.86,20.86,21.53,10.57,3.47,3.47,3.47
22.31,-17.27,-20.71,-17.27,-20.71,20.71,21.52,10.78,3.44,3.44,3.44
22.54,-17.14,-20.56,-17.14,-20.56,20.56,21.44,11.00,3.41,3.42,3.42
22.76,-17.01,-20.41,-17.01,-20.41,20.40,21.31,11.23,3.39,3.39,3.40
22.99,-16.87,-20.24,-16.87,-20.24,20.24,21.14,11.46,3.37,3.37,3.37
23.22,-16.74,-20.08,-16.74,-20.08,20.08,20.93,11.70,3.34,3.34,3.34
23.45,-16.59,-19.90,-16.59,-19.91,19.92,20.70,11.95,3.33,3.32,3.31
23.69,-16.45,-19.75,-16.45,-19.75,19.75,20.46,12.20,3.30,3.31,3.30
23.92,-16.30,-19.58,-16.30,-19.58,19.59,20.20,12.46,3.29,3.29,3.28
24.16,-16.15,-19.42,-16.16,-19.43,19.42,19.94,12.73,3.27,3.27,3.27
24.40,-16.02,-19.27,-16.01,-19.26,19.26,19.68,13.00,3.24,3.25,3.25
24.65,-15.87,-19.10,-15.87,-19.10,19.10,19.42,13.29,3.23,3.23,3.23
24.89,-15.72,-18.93,-15.72,-18.93,18.93,19.16,13.58,3.22,3.22,3.21
25.14,-15.57,-18.77,-15.57,-18.77,18.77,18.92,13.88,3.20,3.20,3.20
25.39,-15.42,-18.60,-15.42,-18.61,18.61,18.68,14.19,3.19,3.18,3.18
25.65,-15.28,-18.45,-15.28,-18.44,18.44,18.44,14.50,3.16,3.16,3.17
25.91,-15.13,-18.28,-15.13,-18.28,18.27,18.22,14.83,3.14,3.14,3.14
26.16,-14.98,-18.11,-14.98,-18.11,18.11,18.00,15.17,3.13,3.13,3.13
26.43,-14.82,-17.94,-14.82,-17.94,17.94,17.80,15.51,3.12,3.12,3.12
26.69,-14.67,-17.76,-14.67,-17.77,17.77,17.59,15.87,3.10,3.10,3.09
26.96,-14.52,-17.60,-14.52,-17.60,17.60,17.40,16.23,3.08,3.09,3.08
27.23,-14.36,-17.43,-14.36,-17.43,17.43,17.21,16.60,3.07,3.07,3.07
27.50,-14.21,-17.27,-14.21,-17.27,17.26,17.03,16.97,3.05,3.06,3.06
27.77,-14.05,-17.09,-14.05,-17.09,17.09,16.85,17.35,3.04,3.04,3.04
28.05,-13.89,-16.92,-13.89,-16.92,16.92,16.68,17.74,3.03,3.03,3.03
28.33,-13.74,-16.75,-13.73,-16.75,16.75,16.50,18.12,3.01,3.01,3.01
28.62,-13.57,-16.57,-13.58,-16.57,16.57,16.33,18.49,3.00,3.00,3.00
28.90,-13.41,-16.39,-13.41,-16.40,16.40,16.16,18.86,2.99,2.98,2.98
29.19,-13.26,-16.22,-13.25,-16.22,16.22,15.99,19.21,2.96,2.97,2.96
29.48,-13.08,-16.04,-13.09,-16.04,16.04,15.82,19.54,2.97,2.96,2.96
29.78,-12.92,-15.87,-12.92,-15.87,15.87,15.65,19.84,2.94,2.95,2.95
30.08,-12.75,-15.69,-12.75,-15.69,15.69,15.48,20.09,2.94,2.93,2.94
30.38,-12.59,-15.51,-12.59,-15.51,15.51,15.30,20.30,2.92,2.92,2.92
30.68,-12.42,-15.33,-12.42,-15.33,15.33,15.13,20.44,2.91,2.91,2.91
30.99,-12.25,-15.13,-12.26,-15.15,15.15,14.95,20.52,2.90,2.90,2.88
31.30,-12.10,-14.97,-12.10,-14.97,14.98,14.77,20.52,2.87,2.88,2.87
31.61,-11.94,-14.80,-11.94,-14.80,14.80,14.59,20.46,2.86,2.86,2.86
31.93,-11.78,-14.62,-11.78,-14.62,14.62,14.40,20.32,2.84,2.83,2.84
32.24,-11.63,-14.44,-11.62,-14.44,14.44,14.22,20.12,2.81,2.81,2.81
32.57,-11.46,-14.25,-11.47,-14.26,14.26,14.04,19.87,2.80,2.79,2.79
32.89,-11.31,-14.09,-11.30,-14.08,14.08,13.85,19.56,2.77,2.78,2.78
33.22,-11.14,-13.89,-11.14,-13.90,13.90,13.66,19.22,2.76,2.76,2.75
33.55,-10.98,-13.72,-10.98,-13.72,13.71,13.47,18.85,2.74,2.73,2.74
33.89,-10.82,-13.53,-10.82,-13.53,13.53,13.29,18.46,2.71,2.72,2.71
34.23,-10.65,-13.34,-10.65,-13.35,13.35,13.10,18.06,2.70,2.69,2.69
34.57,-10.49,-13.16,-10.49,-13.16,13.17,12.91,17.65,2.68,2.67,2.67
34.92,-10.33,-12.98,-10.33,-12.98,12.98,12.72,17.23,2.65,2.65,2.65
35.27,-10.17,-12.80,-10.17,-12.80,12.80,12.53,16.82,2.63,2.63,2.63
35.62,-10.00,-12.61,-10.01,-12.62,12.62,12.34,16.41,2.62,2.61,2.61
35.97,-9.85,-12.44,-9.84,-12.44,12.44,12.15,16.01,2.59,2.59,2.59
36.33,-9.68,-12.25,-9.68,-12.26,12.26,11.96,15.61,2.58,2.57,2.57
36.70,-9.53,-12.08,-9.52,-12.08,12.07,11.77,15.22,2.54,2.55,2.55
37.06,-9.36,-11.89,-9.36,-11.89,11.89,11.59,14.83,2.53,2.53,2.53
37.43,-9.20,-11.71,-9.20,-11.71,11.71,11.40,14.46,2.51,2.51,2.51
37.81,-9.04,-11.53,-9.04,-11.53,11.53,11.21,14.09,2.49,2.49,2.49
38.19,-8.88,-11.34,-8.88,-11.35,11.35,11.03,13.73,2.46,2.46,2.46
38.57,-8.72,-11.17,-8.72,-11.16,11.16,10.85,13.38,2.44,2.44,2.45
38.95,-8.56,-10.98,-8.56,-10.98,10.98,10.66,13.04,2.42,2.43,2.42
39.34,-8.39,-10.79,-8.39,-10.80,10.80,10.48,12.71,2.41,2.41,2.40
39.74,-8.23,-10.61,-8.23,-10.62,10.62,10.31,12.38,2.39,2.38,2.38
40.14,-8.07,-10.44,-8.07,-10.44,10.44,10.13,12.06,2.36,2.37,2.37
40.54,-7.91,-10.26,-7.91,-10.26,10.26,9.95,11.75,2.34,2.35,2.35
40.94,-7.74,-10.07,-7.74,-10.07,10.08,9.78,11.44,2.34,2.33,2.33
41.35,-7.58,-9.88,-7.58,-9.89,9.90,9.61,11.15,2.32,2.32,2.30
41.76,-7.42,-9.72,-7.42,-9.71,9.72,9.44,10.85,2.30,2.30,2.30
42.18,-7.26,-9.54,-7.26,-9.54,9.54,9.27,10.57,2.28,2.28,2.28
42.60,-7.10,-9.36,-7.10,-9.37,9.36,9.10,10.29,2.26,2.26,2.26
43.03,-6.94,-9.19,-6.94,-9.18,9.17,8.93,10.01,2.23,2.24,2.25
43.46,-6.77,-8.99,-6.77,-8.99,8.99,8.77,9.74,2.22,2.22,2.22
43.90,-6.60,-8.80,-6.60,-8.81,8.81,8.60,9.48,2.21,2.20,2.20
44.33,-6.44,-8.62,-6.44,-8.62,8.62,8.44,9.22,2.19,2.18,2.18
44.78,-6.28,-8.44,-6.28,-8.44,8.44,8.27,8.96,2.16,2.16,2.16
45.23,-6.12,-8.25,-6.12,-8.25,8.26,8.11,8.71,2.14,2.14,2.13
45.68,-5.96,-8.07,-5.96,-8.08,8.08,7.94,8.46,2.12,2.12,2.11
46.13,-5.80,-7.90,-5.80,-7.90,7.91,7.78,8.22,2.11,2.10,2.10
46.60,-5.64,-7.73,-5.64,-7.73,7.73,7.62,7.98,2.09,2.09,2.09
47.06,-5.49,-7.56,-5.49,-7.56,7.56,7.46,7.74,2.07,2.07,2.07
47.53,-5.33,-7.38,-5.34,-7.39,7.39,7.29,7.51,2.06,2.05,2.05
48.01,-5.19,-7.23,-5.19,-7.22,7.21,7.13,7.28,2.02,2.03,2.04
48.49,-5.04,-7.05,-5.04,-7.05,7.04,6.97,7.05,2.00,2.01,2.01
48.97,-4.89,-6.87,-4.89,-6.88,6.88,6.80,6.83,1.99,1.98,1.98
49.46,-4.75,-6.70,-4.75,-6.70,6.71,6.64,6.61,1.96,1.96,1.95
49.96,-4.61,-6.53,-4.60,-6.53,6.54,6.48,6.39,1.93,1.94,1.92
50.46,-4.46,-6.37,-4.46,-6.37,6.38,6.32,6.18,1.91,1.91,1.91
50.96,-4.32,-6.21,-4.32,-6.21,6.21,6.15,5.97,1.89,1.89,1.89
51.47,-4.19,-6.05,-4.19,-6.05,6.05,5.99,5.76,1.86,1.86,1.86
51.99,-4.05,-5.89,-4.05,-5.90,5.89,5.83,5.55,1.84,1.84,1.84
52.51,-3.92,-5.74,-3.92,-5.74,5.73,5.66,5.35,1.81,1.82,1.82
53.03,-3.78,-5.58,-3.78,-5.58,5.58,5.50,5.16,1.80,1.80,1.80
53.56,-3.65,-5.42,-3.65,-5.42,5.42,5.34,4.96,1.77,1.77,1.77
54.10,-3.51,-5.26,-3.52,-5.27,5.27,5.18,4.77,1.76,1.75,1.75
54.64,-3.39,-5.11,-3.39,-5.11,5.11,5.02,4.58,1.72,1.73,1.72
55.18,-3.26,-4.96,-3.26,-4.96,4.96,4.86,4.40,1.70,1.70,1.70
55.74,-3.13,-4.80,-3.13,-4.81,4.81,4.70,4.22,1.68,1.67,1.67
56.29,-3.01,-4.66,-3.01,-4.66,4.66,4.54,4.05,1.65,1.65,1.65
56.86,-2.89,-4.51,-2.89,-4.51,4.51,4.38,3.88,1.62,1.63,1.62
57.42,-2.77,-4.37,-2.77,-4.37,4.37,4.22,3.71,1.60,1.60,1.60
58.00,-2.65,-4.23,-2.65,-4.23,4.23,4.07,3.55,1.58,1.58,1.58
58.58,-2.54,-4.09,-2.54,-4.09,4.09,3.91,3.40,1.55,1.56,1.55
59.16,-2.42,-3.95,-2.42,-3.95,3.96,3.76,3.25,1.54,1.54,1.53
59.76,-2.31,-3.82,-2.31,-3.82,3.82,3.61,3.10,1.51,1.51,1.51
60.35,-2.20,-3.68,-2.20,-3.69,3.68,3.46,2.96,1.48,1.48,1.48
60.96,-2.10,-3.56,-2.09,-3.55,3.54,3.31,2.83,1.44,1.45,1.46
61.57,-1.98,-3.40,-1.98,-3.41,3.40,3.16,2.70,1.42,1.42,1.42
62.18,-1.87,-3.26,-1.87,-3.26,3.27,3.01,2.58,1.40,1.39,1.39
62.80,-1.76,-3.12,-1.76,-3.12,3.13,2.87,2.46,1.37,1.37,1.36
63.43,-1.65,-2.98,-1.65,-2.98,2.99,2.73,2.35,1.34,1.34,1.33
64.07,-1.54,-2.84,-1.54,-2.84,2.84,2.59,2.24,1.30,1.31,1.30
64.71,-1.42,-2.70,-1.42,-2.70,2.70,2.45,2.14,1.28,1.28,1.28
65.35,-1.30,-2.56,-1.30,-2.56,2.56,2.31,2.04,1.26,1.26,1.26
66.01,-1.18,-2.42,-1.18,-2.42,2.41,2.18,1.95,1.23,1.24,1.24
66.67,-1.05,-2.26,-1.05,-2.27,2.27,2.04,1.86,1.22,1.21,1.21
67.33,-0.93,-2.12,-0.93,-2.12,2.12,1.91,1.78,1.19,1.19,1.19
68.01,-0.81,-1.97,-0.81,-1.97,1.97,1.78,1.70,1.16,1.17,1.16
68.69,-0.68,-1.82,-0.68,-1.82,1.82,1.66,1.62,1.14,1.14,1.14
69.37,-0.56,-1.67,-0.56,-1.67,1.67,1.53,1.55,1.11,1.11,1.11
70.07,-0.44,-1.52,-0.44,-1.52,1.53,1.41,1.48,1.09,1.09,1.08
70.77,-0.32,-1.38,-0.32,-1.38,1.38,1.29,1.42,1.06,1.06,1.06
71.48,-0.20,-1.23,-0.20,-1.23,1.23,1.17,1.35,1.03,1.03,1.03
72.19,-0.09,-1.09,-0.09,-1.09,1.09,1.06,1.29,1.00,1.00,1.00
72.91,0.02,-0.94,0.02,-0.95,0.95,0.94,1.23,0.97,0.97,0.96
73.64,0.13,-0.80,0.13,-0.81,0.81,0.83,1.18,0.94,0.93,0.93
74.38,0.22,-0.68,0.23,-0.67,0.67,0.72,1.12,0.89,0.90,0.90
75.12,0.33,-0.52,0.33,-0.53,0.54,0.61,1.07,0.87,0.86,0.85
75.87,0.42,-0.40,0.42,-0.41,0.41,0.51,1.01,0.83,0.82,0.82
76.63,0.50,-0.29,0.50,-0.28,0.28,0.41,0.96,0.78,0.79,0.79
77.40,0.58,-0.17,0.58,-0.16,0.16,0.31,0.90,0.74,0.74,0.75
78.17,0.66,-0.03,0.66,-0.05,0.04,0.21,0.85,0.71,0.71,0.69
78.95,0.74,0.07,0.73,0.07,-0.07,0.11,0.80,0.67,0.67,0.67
79.74,0.80,0.17,0.80,0.18,-0.18,0.02,0.74,0.62,0.63,0.63
80.54,0.86,0.28,0.86,0.28,-0.28,-0.07,0.69,0.58,0.58,0.58
81.35,0.92,0.38,0.92,0.38,-0.38,-0.16,0.64,0.54,0.54,0.54
82.16,0.97,0.48,0.97,0.48,-0.47,-0.24,0.58,0.50,0.50,0.49
82.98,1.01,0.56,1.01,0.57,-0.56,-0.33,0.52,0.45,0.45,0.45
83.81,1.05,0.66,1.05,0.65,-0.64,-0.41,0.47,0.41,0.40,0.39
84.65,1.07,0.72,1.07,0.72,-0.72,-0.49,0.41,0.35,0.36,0.35
85.50,1.10,0.79,1.10,0.79,-0.79,-0.56,0.35,0.31,0.31,0.31
86.35,1.11,0.85,1.11,0.85,-0.86,-0.64,0.29,0.25,0.26,0.26
87.22,1.12,0.91,1.12,0.91,-0.92,-0.71,0.23,0.20,0.21,0.21
88.09,1.13,0.98,1.13,0.97,-0.97,-0.78,0.17,0.16,0.16,0.15
88.97,1.13,1.02,1.13,1.02,-1.02,-0.84,0.10,0.11,0.11,0.11
89.86,1.13,1.07,1.13,1.07,-1.07,-0.91,0.04,0.06,0.06,0.06
90.76,1.12,1.12,1.12,1.11,-1.11,-0.97,-0.03,0.01,0.01,0.00
91.66,1.10,1.15,1.10,1.15,-1.15,-1.02,-0.09,-0.05,-0.05,-0.05
92.58,1.08,1.19,1.08,1.18,-1.18,-1.08,-0.16,-0.10,-0.10,-0.11
93.51,1.06,1.21,1.06,1.21,-1.22,-1.13,-0.23,-0.16,-0.15,-0.15
94.44,1.04,1.24,1.04,1.24,-1.24,-1.18,-0.30,-0.20,-0.21,-0.20
95.39,1.01,1.27,1.01,1.27,-1.27,-1.23,-0.37,-0.26,-0.26,-0.26
96.34,0.97,1.30,0.97,1.29,-1.29,-1.28,-0.45,-0.32,-0.32,-0.33
97.30,0.93,1.31,0.93,1.32,-1.32,-1.32,-0.52,-0.39,-0.38,-0.38
98.28,0.90,1.34,0.90,1.34,-1.34,-1.36,-0.60,-0.44,-0.44,-0.44
99.26,0.85,1.36,0.85,1.35,-1.35,-1.40,-0.67,-0.50,-0.50,-0.51
100.25,0.81,1.37,0.81,1.37,-1.37,-1.44,-0.75,-0.56,-0.56,-0.56
101.25,0.75,1.37,0.75,1.38,-1.38,-1.47,-0.82,-0.63,-0.62,-0.62
102.27,0.70,1.39,0.70,1.39,-1.38,-1.50,-0.90,-0.68,-0.68,-0.69
103.29,0.64,1.40,0.64,1.39,-1.39,-1.53,-0.98,-0.75,-0.75,-0.76
104.32,0.58,1.39,0.58,1.39,-1.39,-1.56,-1.05,-0.81,-0.81,-0.81
105.37,0.52,1.39,0.51,1.39,-1.39,-1.58,-1.13,-0.87,-0.87,-0.87
106.42,0.44,1.38,0.45,1.38,-1.39,-1.60,-1.20,-0.95,-0.94,-0.94
107.48,0.38,1.39,0.38,1.38,-1.38,-1.62,-1.28,-1.00,-1.01,-1.01
108.56,0.31,1.39,0.31,1.38,-1.38,-1.64,-1.35,-1.07,-1.07,-1.08
109.64,0.24,1.38,0.24,1.38,-1.38,-1.66,-1.42,-1.14,-1.14,-1.14
110.74,0.18,1.38,0.18,1.38,-1.38,-1.67,-1.49,-1.20,-1.21,-1.20
111.85,0.11,1.38,0.11,1.38,-1.39,-1.68,-1.56,-1.28,-1.28,-1.27
112.97,0.05,1.40,0.05,1.39,-1.40,-1.69,-1.62,-1.35,-1.35,-1.35
114.10,-0.01,1.40,-0.01,1.40,-1.41,-1.70,-1.68,-1.42,-1.41,-1.41
115.24,-0.06,1.42,-0.06,1.42,-1.42,-1.71,-1.74,-1.48,-1.48,-1.48
116.39,-0.11,1.44,-0.11,1.43,-1.43,-1.71,-1.80,-1.54,-1.55,-1.55
117.55,-0.17,1.45,-0.16,1.45,-1.45,-1.72,-1.85,-1.62,-1.61,-1.62
118.73,-0.21,1.47,-0.21,1.46,-1.46,-1.72,-1.89,-1.67,-1.68,-1.68
119.92,-0.26,1.48,-0.26,1.48,-1.48,-1.72,-1.94,-1.74,-1.74,-1.74
121.12,-0.31,1.49,-0.31,1.50,-1.49,-1.72,-1.97,-1.80,-1.80,-1.80
122.33,-0.35,1.52,-0.35,1.51,-1.51,-1.72,-2.01,-1.86,-1.86,-1.87
123.55,-0.40,1.52,-0.40,1.52,-1.52,-1.71,-2.04,-1.92,-1.92,-1.92
124.79,-0.45,1.53,-0.45,1.53,-1.53,-1.71,-2.06,-1.98,-1.98,-1.98
126.03,-0.50,1.53,-0.50,1.53,-1.54,-1.70,-2.08,-2.04,-2.04,-2.03
127.29,-0.55,1.54,-0.55,1.54,-1.55,-1.69,-2.09,-2.10,-2.10,-2.09
128.57,-0.60,1.56,-0.60,1.55,-1.55,-1.69,-2.10,-2.15,-2.15,-2.16
129.85,-0.64,1.57,-0.65,1.56,-1.56,-1.68,-2.10,-2.20,-2.21,-2.21
131.15,-0.70,1.56,-0.70,1.57,-1.56,-1.67,-2.10,-2.26,-2.26,-2.26
132.46,-0.75,1.57,-0.75,1.56,-1.56,-1.65,-2.10,-2.31,-2.31,-2.32
133.79,-0.80,1.56,-0.80,1.56,-1.56,-1.64,-2.09,-2.36,-2.36,-2.36
135.12,-0.86,1.56,-0.86,1.55,-1.55,-1.63,-2.08,-2.41,-2.41,-2.42
136.48,-0.91,1.54,-0.91,1.54,-1.54,-1.62,-2.06,-2.45,-2.45,-2.45
137.84,-0.97,1.52,-0.97,1.53,-1.53,-1.60,-2.04,-2.50,-2.49,-2.49
139.22,-1.02,1.52,-1.02,1.51,-1.51,-1.59,-2.02,-2.53,-2.53,-2.54
140.61,-1.08,1.50,-1.08,1.49,-1.49,-1.57,-1.99,-2.57,-2.57,-2.58
142.02,-1.13,1.47,-1.13,1.47,-1.47,-1.56,-1.97,-2.60,-2.60,-2.60
143.44,-1.18,1.45,-1.18,1.45,-1.46,-1.54,-1.94,-2.64,-2.64,-2.63
144.87,-1.23,1.44,-1.23,1.44,-1.44,-1.52,-1.90,-2.67,-2.67,-2.67
146.32,-1.27,1.43,-1.27,1.42,-1.43,-1.50,-1.87,-2.70,-2.70,-2.70
147.78,-1.31,1.41,-1.31,1.42,-1.42,-1.49,-1.84,-2.73,-2.73,-2.72
149.26,-1.34,1.41,-1.34,1.41,-1.41,-1.47,-1.80,-2.75,-2.75,-2.75
150.75,-1.38,1.41,-1.38,1.40,-1.40,-1.45,-1.76,-2.78,-2.78,-2.79
152.26,-1.41,1.40,-1.41,1.40,-1.40,-1.43,-1.73,-2.81,-2.81,-2.81
153.78,-1.43,1.41,-1.43,1.40,-1.40,-1.41,-1.69,-2.83,-2.84,-2.84
155.32,-1.46,1.40,-1.46,1.40,-1.41,-1.40,-1.66,-2.87,-2.86,-2.86
156.88,-1.48,1.41,-1.48,1.41,-1.41,-1.38,-1.62,-2.89,-2.89,-2.89
158.44,-1.51,1.41,-1.51,1.41,-1.41,-1.36,-1.58,-2.92,-2.92,-2.92
160.03,-1.53,1.42,-1.53,1.42,-1.41,-1.34,-1.55,-2.94,-2.94,-2.95
161.63,-1.56,1.42,-1.56,1.42,-1.41,-1.32,-1.52,-2.97,-2.97,-2.98
163.24,-1.59,1.42,-1.59,1.42,-1.41,-1.30,-1.48,-3.00,-3.00,-3.01
164.88,-1.62,1.41,-1.62,1.41,-1.41,-1.28,-1.45,-3.03,-3.03,-3.03
166.53,-1.65,1.40,-1.65,1.40,-1.40,-1.26,-1.42,-3.05,-3.06,-3.05
168.19,-1.69,1.40,-1.69,1.40,-1.40,-1.24,-1.39,-3.09,-3.08,-3.09
169.87,-1.73,1.39,-1.73,1.39,-1.39,-1.22,-1.36,-3.12,-3.12,-3.12
171.57,-1.76,1.39,-1.77,1.38,-1.38,-1.20,-1.33,-3.14,-3.15,-3.15
173.29,-1.81,1.36,-1.80,1.37,-1.37,-1.18,-1.31,-3.18,-3.18,-3.17
175.02,-1.84,1.37,-1.84,1.37,-1.37,-1.17,-1.28,-3.21,-3.21,-3.21
176.77,-1.88,1.37,-1.88,1.37,-1.36,-1.15,-1.26,-3.24,-3.25,-3.25
178.54,-1.92,1.37,-1.92,1.37,-1.36,-1.13,-1.23,-3.28,-3.28,-3.29
180.32,-1.96,1.36,-1.96,1.36,-1.36,-1.11,-1.21,-3.32,-3.32,-3.32
182.13,-2.00,1.35,-2.00,1.35,-1.36,-1.09,-1.19,-3.36,-3.36,-3.35
183.95,-2.04,1.35,-2.04,1.35,-1.36,-1.07,-1.17,-3.40,-3.39,-3.39
185.79,-2.07,1.36,-2.07,1.36,-1.36,-1.05,-1.16,-3.43,-3.43,-3.43
187.65,-2.10,1.37,-2.10,1.36,-1.35,-1.04,-1.14,-3.45,-3.46,-3.47
189.52,-2.14,1.36,-2.14,1.36,-1.35,-1.02,-1.12,-3.49,-3.49,-3.50
191.42,-2.17,1.35,-2.17,1.35,-1.35,-1.00,-1.11,-3.52,-3.52,-3.52
193.33,-2.20,1.34,-2.20,1.34,-1.35,-0.98,-1.10,-3.55,-3.55,-3.54
195.27,-2.24,1.33,-2.24,1.33,-1.34,-0.97,-1.08,-3.58,-3.58,-3.57
197.22,-2.27,1.33,-2.27,1.34,-1.33,-0.95,-1.07,-3.60,-3.60,-3.60
199.19,-2.30,1.35,-2.30,1.33,-1.33,-0.93,-1.06,-3.63,-3.63,-3.65
201.18,-2.33,1.33,-2.33,1.33,-1.32,-0.92,-1.05,-3.65,-3.65,-3.66
203.19,-2.37,1.31,-2.37,1.31,-1.31,-0.90,-1.05,-3.68,-3.68,-3.68
205.23,-2.41,1.29,-2.40,1.29,-1.30,-0.88,-1.04,-3.71,-3.70,-3.70
207.28,-2.43,1.28,-2.44,1.28,-1.29,-0.87,-1.03,-3.72,-3.72,-3.71
209.35,-2.47,1.27,-2.47,1.27,-1.27,-0.85,-1.03,-3.74,-3.74,-3.74
211.44,-2.49,1.27,-2.49,1.26,-1.26,-0.84,-1.02,-3.75,-3.75,-3.76
213.56,-2.53,1.25,-2.53,1.24,-1.24,-0.82,-1.01,-3.77,-3.77,-3.78
215.69,-2.56,1.22,-2.56,1.22,-1.23,-0.81,-1.01,-3.79,-3.79,-3.78
217.85,-2.60,1.19,-2.59,1.20,-1.21,-0.79,-1.00,-3.81,-3.80,-3.79
220.03,-2.62,1.20,-2.62,1.19,-1.19,-0.78,-1.00,-3.81,-3.81,-3.82
222.23,-2.64,1.19,-2.65,1.18,-1.17,-0.76,-0.99,-3.81,-3.82,-3.83
224.45,-2.67,1.15,-2.67,1.16,-1.15,-0.75,-0.99,-3.82,-3.82,-3.82
226.70,-2.70,1.13,-2.70,1.13,-1.12,-0.73,-0.98,-3.82,-3.82,-3.83
228.96,-2.72,1.11,-2.73,1.10,-1.10,-0.72,-0.98,-3.82,-3.83,-3.83
231.25,-2.76,1.06,-2.75,1.06,-1.07,-0.71,-0.97,-3.83,-3.83,-3.82
233.57,-2.78,1.03,-2.78,1.03,-1.04,-0.69,-0.96,-3.82,-3.82,-3.81
235.90,-2.80,1.01,-2.80,1.01,-1.01,-0.68,-0.96,-3.81,-3.81,-3.81
238.26,-2.82,0.99,-2.82,0.98,-0.98,-0.67,-0.95,-3.80,-3.80,-3.81
240.64,-2.84,0.95,-2.84,0.95,-0.94,-0.65,-0.94,-3.78,-3.78,-3.79
243.05,-2.85,0.92,-2.86,0.91,-0.91,-0.64,-0.93,-3.76,-3.77,-3.77
245.48,-2.88,0.87,-2.88,0.88,-0.88,-0.63,-0.92,-3.76,-3.75,-3.75
247.93,-2.90,0.84,-2.90,0.84,-0.84,-0.62,-0.90,-3.74,-3.74,-3.74
250.41,-2.91,0.82,-2.92,0.80,-0.80,-0.61,-0.89,-3.71,-3.72,-3.73
252.92,-2.93,0.76,-2.93,0.76,-0.77,-0.59,-0.88,-3.70,-3.70,-3.69
255.45,-2.95,0.72,-2.95,0.72,-0.73,-0.58,-0.86,-3.68,-3.67,-3.67
258.00,-2.96,0.69,-2.96,0.69,-0.69,-0.57,-0.85,-3.65,-3.65,-3.65
260.58,-2.97,0.66,-2.97,0.65,-0.65,-0.56,-0.83,-3.62,-3.63,-3.63
263.19,-2.99,0.62,-2.99,0.62,-0.61,-0.55,-0.81,-3.60,-3.60,-3.61
265.82,-3.01,0.58,-3.01,0.58,-0.57,-0.54,-0.79,-3.58,-3.58,-3.59
268.48,-3.02,0.54,-3.02,0.54,-0.54,-0.53,-0.77,-3.56,-3.56,-3.56
271.16,-3.03,0.50,-3.03,0.50,-0.50,-0.52,-0.75,-3.53,-3.54,-3.53
273.87,-3.04,0.47,-3.04,0.47,-0.47,-0.51,-0.72,-3.51,-3.51,-3.51
276.61,-3.04,0.44,-3.04,0.44,-0.44,-0.50,-0.70,-3.48,-3.48,-3.48
279.38,-3.04,0.42,-3.04,0.42,-0.42,-0.49,-0.68,-3.46,-3.46,-3.46
282.17,-3.04,0.40,-3.04,0.40,-0.40,-0.48,-0.65,-3.44,-3.44,-3.44
284.99,-3.03,0.38,-3.03,0.38,-0.38,-0.47,-0.63,-3.41,-3.41,-3.41
287.84,-3.02,0.37,-3.02,0.37,-0.37,-0.46,-0.60,-3.39,-3.39,-3.39
290.72,-2.99,0.36,-2.99,0.36,-0.37,-0.45,-0.57,-3.36,-3.36,-3.35
293.63,-2.97,0.36,-2.97,0.36,-0.36,-0.44,-0.55,-3.33,-3.33,-3.33
296.57,-2.94,0.36,-2.94,0.36,-0.35,-0.43,-0.52,-3.29,-3.30,-3.30
299.53,-2.92,0.35,-2.92,0.35,-0.35,-0.42,-0.49,-3.27,-3.27,-3.27
302.53,-2.89,0.36,-2.89,0.35,-0.34,-0.42,-0.46,-3.23,-3.23,-3.25
305.55,-2.87,0.33,-2.87,0.34,-0.33,-0.41,-0.43,-3.20,-3.20,-3.20
308.61,-2.84,0.33,-2.84,0.32,-0.32,-0.40,-0.41,-3.16,-3.16,-3.17
311.69,-2.83,0.30,-2.83,0.30,-0.30,-0.39,-0.38,-3.13,-3.13,-3.13
314.81,-2.81,0.29,-2.81,0.28,-0.28,-0.38,-0.35,-3.09,-3.10,-3.10
317.96,-2.81,0.26,-2.81,0.26,-0.26,-0.38,-0.32,-3.07,-3.07,-3.07
321.14,-2.80,0.24,-2.80,0.24,-0.24,-0.37,-0.29,-3.04,-3.04,-3.04
324.35,-2.80,0.22,-2.80,0.21,-0.21,-0.36,-0.26,-3.01,-3.01,-3.02
327.59,-2.80,0.18,-2.80,0.18,-0.19,-0.36,-0.23,-2.99,-2.98,-2.98
330.87,-2.80,0.15,-2.80,0.15,-0.16,-0.35,-0.20,-2.96,-2.96,-2.95
334.18,-2.80,0.13,-2.80,0.13,-0.13,-0.34,-0.17,-2.93,-2.93,-2.93
337.52,-2.80,0.11,-2.80,0.10,-0.10,-0.33,-0.15,-2.90,-2.90,-2.91
340.90,-2.81,0.07,-2.81,0.07,-0.07,-0.33,-0.12,-2.88,-2.88,-2.88
344.30,-2.82,0.04,-2.82,0.04,-0.04,-0.32,-0.09,-2.86,-2.85,-2.86
347.75,-2.83,-0.00,-2.83,0.00,-0.00,-0.32,-0.06,-2.83,-2.83,-2.83
351.23,-2.84,-0.03,-2.84,-0.03,0.03,-0.31,-0.03,-2.81,-2.81,-2.81
354.74,-2.85,-0.05,-2.85,-0.06,0.06,-0.30,-0.00,-2.79,-2.79,-2.80
358.28,-2.86,-0.08,-2.86,-0.08,0.09,-0.30,0.03,-2.77,-2.78,-2.78
361.87,-2.87,-0.11,-2.87,-0.12,0.11,-0.29,0.06,-2.76,-2.76,-2.76
365.49,-2.88,-0.15,-2.88,-0.14,0.13,-0.29,0.09,-2.75,-2.74,-2.73
369.14,-2.88,-0.16,-2.88,-0.16,0.15,-0.28,0.12,-2.73,-2.72,-2.72
372.83,-2.87,-0.16,-2.87,-0.17,0.17,-0.27,0.14,-2.70,-2.70,-2.71
376.56,-2.86,-0.17,-2.86,-0.18,0.18,-0.27,0.17,-2.68,-2.68,-2.69
380.33,-2.86,-0.20,-2.85,-0.19,0.19,-0.26,0.20,-2.67,-2.66,-2.66
384.13,-2.84,-0.20,-2.84,-0.20,0.20,-0.26,0.23,-2.64,-2.64,-2.64
387.97,-2.83,-0.21,-2.83,-0.21,0.21,-0.25,0.26,-2.62,-2.62,-2.62
391.85,-2.81,-0.21,-2.81,-0.22,0.21,-0.25,0.29,-2.60,-2.60,-2.60
395.77,-2.80,-0.23,-2.79,-0.22,0.22,-0.24,0.31,-2.58,-2.57,-2.57
399.73,-2.77,-0.22,-2.78,-0.22,0.23,-0.24,0.34,-2.54,-2.55,-2.55
403.72,-2.76,-0.22,-2.76,-0.23,0.23,-0.23,0.37,-2.53,-2.53,-2.54
407.76,-2.75,-0.23,-2.75,-0.23,0.24,-0.23,0.40,-2.51,-2.51,-2.52
411.84,-2.74,-0.25,-2.74,-0.24,0.25,-0.23,0.42,-2.49,-2.49,-2.49
415.96,-2.72,-0.25,-2.72,-0.25,0.25,-0.22,0.45,-2.47,-2.47,-2.47
420.12,-2.70,-0.25,-2.70,-0.26,0.26,-0.22,0.47,-2.44,-2.45,-2.45
424.32,-2.69,-0.27,-2.69,-0.27,0.26,-0.21,0.50,-2.43,-2.43,-2.42
428.56,-2.67,-0.27,-2.67,-0.27,0.26,-0.21,0.52,-2.41,-2.41,-2.40
432.85,-2.65,-0.27,-2.65,-0.27,0.27,-0.20,0.54,-2.38,-2.38,-2.38
437.18,-2.62,-0.27,-2.62,-0.27,0.27,-0.20,0.57,-2.35,-2.35,-2.35
