frequency,raw,error,smoothed,error_smoothed,equalization,parametric_eq,fixed_band_eq,equalized_raw,equalized_smoothed,target
20.00,-2.44,-9.86,-2.39,-9.82,9.82,9.75,3.91,7.38,7.42,7.42
20.20,-2.38,-9.79,-2.35,-9.76,9.76,9.72,4.02,7.38,7.41,7.41
20.40,-2.32,-9.72,-2.30,-9.71,9.71,9.69,4.12,7.39,7.40,7.40
20.61,-2.26,-9.66,-2.26,-9.65,9.65,9.66,4.23,7.39,7.39,7.40
20.81,-2.20,-9.58,-2.21,-9.60,9.60,9.63,4.35,7.40,7.39,7.38
21.02,-2.14,-9.52,-2.17,-9.55,9.55,9.60,4.47,7.41,7.38,7.38
21.23,-2.09,-9.46,-2.13,-9.50,9.50,9.57,4.59,7.41,7.37,7.37
21.44,-2.05,-9.43,-2.09,-9.45,9.45,9.53,4.71,7.40,7.36,7.38
21.66,-2.01,-9.38,-2.05,-9.41,9.41,9.50,4.84,7.40,7.36,7.37
21.87,-1.96,-9.32,-2.01,-9.36,9.36,9.47,4.97,7.40,7.35,7.36
22.09,-1.94,-9.29,-1.97,-9.32,9.32,9.44,5.10,7.38,7.35,7.35
22.31,-1.93,-9.28,-1.94,-9.28,9.28,9.40,5.24,7.35,7.34,7.35
22.54,-1.92,-9.26,-1.91,-9.24,9.24,9.37,5.38,7.32,7.34,7.34
22.76,-1.91,-9.24,-1.88,-9.21,9.21,9.33,5.53,7.30,7.33,7.33
22.99,-1.90,-9.22,-1.85,-9.18,9.18,9.30,5.68,7.28,7.33,7.32
23.22,-1.86,-9.17,-1.82,-9.14,9.14,9.27,5.83,7.28,7.32,7.31
23.45,-1.81,-9.13,-1.79,-9.11,9.11,9.23,5.98,7.30,7.32,7.32
23.69,-1.77,-9.08,-1.76,-9.07,9.07,9.20,6.14,7.30,7.32,7.31
23.92,-1.72,-9.03,-1.72,-9.04,9.04,9.16,6.30,7.32,7.32,7.31
24.16,-1.68,-9.00,-1.69,-9.01,9.01,9.13,6.47,7.33,7.32,7.32
24.40,-1.64,-8.97,-1.65,-8.97,8.97,9.09,6.64,7.33,7.32,7.33
24.65,-1.60,-8.93,-1.61,-8.93,8.93,9.06,6.81,7.34,7.32,7.33
24.89,-1.56,-8.89,-1.58,-8.90,8.90,9.03,6.98,7.34,7.32,7.33
25.14,-1.53,-8.85,-1.54,-8.86,8.86,8.99,7.16,7.33,7.32,7.32
25.39,-1.50,-8.82,-1.50,-8.83,8.83,8.96,7.33,7.33,7.33,7.32
25.65,-1.47,-8.79,-1.47,-8.80,8.80,8.92,7.51,7.33,7.33,7.32
25.91,-1.45,-8.78,-1.44,-8.77,8.77,8.89,7.69,7.32,7.33,7.33
26.16,-1.42,-8.76,-1.41,-8.75,8.75,8.86,7.87,7.33,7.33,7.34
26.43,-1.39,-8.73,-1.39,-8.72,8.72,8.82,8.05,7.33,7.33,7.34
26.69,-1.36,-8.70,-1.36,-8.69,8.69,8.79,8.23,7.33,7.33,7.34
26.96,-1.33,-8.66,-1.33,-8.66,8.66,8.75,8.41,7.33,7.33,7.33
27.23,-1.31,-8.64,-1.30,-8.63,8.63,8.72,8.58,7.32,7.33,7.33
27.50,-1.28,-8.61,-1.27,-8.60,8.60,8.69,8.76,7.32,7.33,7.33
27.77,-1.25,-8.59,-1.24,-8.58,8.58,8.65,8.92,7.33,7.33,7.34
28.05,-1.22,-8.56,-1.21,-8.55,8.55,8.62,9.08,7.33,7.33,7.34
28.33,-1.19,-8.51,-1.19,-8.52,8.52,8.59,9.24,7.33,7.33,7.32
28.62,-1.15,-8.47,-1.16,-8.49,8.49,8.55,9.38,7.34,7.33,7.32
28.90,-1.11,-8.44,-1.13,-8.45,8.45,8.52,9.52,7.35,7.33,7.33
29.19,-1.09,-8.42,-1.10,-8.42,8.42,8.49,9.64,7.34,7.32,7.33
29.48,-1.07,-8.39,-1.07,-8.39,8.39,8.45,9.75,7.32,7.32,7.32
29.78,-1.05,-8.37,-1.04,-8.36,8.36,8.42,9.85,7.31,7.32,7.32
30.08,-1.02,-8.35,-1.01,-8.32,8.32,8.39,9.94,7.30,7.31,7.33
30.38,-0.99,-8.31,-0.98,-8.29,8.29,8.36,10.01,7.30,7.31,7.32
30.68,-0.96,-8.26,-0.95,-8.25,8.25,8.32,10.06,7.29,7.30,7.30
30.99,-0.93,-8.23,-0.92,-8.22,8.22,8.29,10.09,7.29,7.29,7.30
31.30,-0.90,-8.19,-0.90,-8.18,8.18,8.26,10.11,7.29,7.29,7.29
31.61,-0.87,-8.15,-0.87,-8.15,8.15,8.22,10.11,7.28,7.28,7.28
31.93,-0.84,-8.11,-0.85,-8.12,8.12,8.19,10.10,7.28,7.28,7.27
32.24,-0.81,-8.08,-0.82,-8.09,8.09,8.16,10.07,7.28,7.27,7.27
32.57,-0.77,-8.02,-0.79,-8.05,8.05,8.12,10.02,7.29,7.26,7.25
32.89,-0.74,-7.99,-0.76,-8.02,8.02,8.09,9.96,7.28,7.26,7.25
33.22,-0.73,-7.98,-0.74,-7.99,7.99,8.06,9.88,7.26,7.25,7.25
33.55,-0.73,-7.97,-0.71,-7.96,7.96,8.02,9.79,7.23,7.24,7.24
33.89,-0.73,-7.98,-0.69,-7.93,7.93,7.99,9.69,7.20,7.24,7.25
34.23,-0.70,-7.93,-0.67,-7.90,7.90,7.95,9.58,7.20,7.24,7.23
34.57,-0.66,-7.89,-0.64,-7.87,7.87,7.92,9.47,7.22,7.23,7.23
34.92,-0.61,-7.83,-0.62,-7.84,7.84,7.88,9.34,7.24,7.22,7.22
35.27,-0.58,-7.81,-0.60,-7.82,7.82,7.85,9.21,7.24,7.22,7.23
35.62,-0.56,-7.77,-0.58,-7.79,7.79,7.81,9.07,7.23,7.21,7.21
35.97,-0.53,-7.74,-0.56,-7.76,7.76,7.78,8.94,7.23,7.20,7.21
36.33,-0.53,-7.72,-0.54,-7.73,7.73,7.74,8.79,7.20,7.19,7.19
36.70,-0.53,-7.71,-0.52,-7.69,7.69,7.70,8.65,7.17,7.17,7.18
37.06,-0.52,-7.68,-0.50,-7.65,7.65,7.67,8.51,7.14,7.15,7.16
37.43,-0.49,-7.63,-0.48,-7.61,7.61,7.63,8.36,7.12,7.13,7.14
37.81,-0.45,-7.57,-0.45,-7.57,7.57,7.59,8.22,7.12,7.11,7.12
38.19,-0.43,-7.52,-0.43,-7.52,7.52,7.55,8.08,7.09,7.09,7.09
38.57,-0.43,-7.50,-0.41,-7.48,7.48,7.51,7.94,7.05,7.06,7.07
38.95,-0.43,-7.47,-0.39,-7.43,7.43,7.47,7.81,7.00,7.04,7.04
39.34,-0.40,-7.40,-0.37,-7.38,7.38,7.43,7.67,6.98,7.01,7.00
39.74,-0.36,-7.34,-0.34,-7.33,7.33,7.39,7.54,6.97,6.98,6.98
40.14,-0.32,-7.27,-0.32,-7.28,7.28,7.35,7.42,6.96,6.96,6.95
40.54,-0.28,-7.21,-0.30,-7.23,7.23,7.31,7.30,6.95,6.93,6.93
40.94,-0.24,-7.14,-0.29,-7.19,7.19,7.27,7.18,6.95,6.90,6.90
41.35,-0.23,-7.11,-0.28,-7.15,7.15,7.23,7.06,6.92,6.88,6.88
41.76,-0.23,-7.07,-0.27,-7.11,7.11,7.18,6.95,6.89,6.85,6.84
42.18,-0.23,-7.05,-0.25,-7.07,7.07,7.14,6.85,6.84,6.82,6.82
42.60,-0.23,-7.03,-0.23,-7.03,7.03,7.09,6.75,6.80,6.79,6.80
43.03,-0.23,-7.00,-0.22,-6.98,6.98,7.05,6.65,6.76,6.77,6.77
43.46,-0.23,-6.97,-0.20,-6.94,6.94,7.00,6.56,6.71,6.74,6.74
43.90,-0.23,-6.95,-0.18,-6.90,6.90,6.96,6.47,6.67,6.71,6.72
44.33,-0.23,-6.91,-0.17,-6.85,6.85,6.91,6.39,6.62,6.68,6.68
44.78,-0.23,-6.88,-0.15,-6.81,6.81,6.86,6.31,6.58,6.65,6.65
45.23,-0.18,-6.82,-0.14,-6.76,6.76,6.81,6.24,6.58,6.62,6.64
45.68,-0.09,-6.68,-0.12,-6.71,6.71,6.76,6.17,6.62,6.59,6.59
46.13,-0.03,-6.58,-0.10,-6.65,6.65,6.71,6.10,6.63,6.55,6.55
46.60,-0.03,-6.55,-0.09,-6.60,6.60,6.66,6.04,6.57,6.51,6.52
47.06,-0.03,-6.51,-0.07,-6.55,6.55,6.61,5.99,6.52,6.47,6.48
47.53,-0.03,-6.48,-0.06,-6.49,6.49,6.56,5.93,6.46,6.43,6.45
48.01,-0.03,-6.42,-0.04,-6.43,6.43,6.51,5.88,6.40,6.39,6.39
48.49,-0.03,-6.37,-0.03,-6.37,6.37,6.45,5.84,6.34,6.34,6.34
48.97,-0.03,-6.33,-0.01,-6.31,6.31,6.40,5.80,6.29,6.30,6.30
49.46,-0.03,-6.29,-0.01,-6.26,6.26,6.34,5.76,6.23,6.25,6.26
49.96,-0.03,-6.22,-0.00,-6.21,6.21,6.29,5.73,6.18,6.21,6.19
50.46,-0.03,-6.18,0.00,-6.16,6.16,6.23,5.70,6.13,6.16,6.15
50.96,-0.03,-6.14,0.01,-6.10,6.10,6.18,5.67,6.08,6.12,6.11
51.47,0.02,-6.05,0.02,-6.05,6.05,6.12,5.64,6.07,6.07,6.07
51.99,0.07,-5.95,0.04,-5.98,5.98,6.06,5.62,6.05,6.02,6.02
52.51,0.07,-5.91,0.05,-5.92,5.92,6.00,5.59,5.99,5.97,5.98
53.03,0.07,-5.88,0.07,-5.86,5.86,5.94,5.57,5.93,5.93,5.95
53.56,0.07,-5.82,0.08,-5.80,5.80,5.88,5.55,5.87,5.88,5.89
54.10,0.08,-5.76,0.10,-5.74,5.74,5.82,5.53,5.82,5.84,5.84
54.64,0.13,-5.67,0.12,-5.68,5.68,5.76,5.51,5.81,5.79,5.80
55.18,0.17,-5.57,0.14,-5.62,5.62,5.70,5.49,5.79,5.75,5.74
55.74,0.17,-5.52,0.16,-5.56,5.56,5.64,5.48,5.73,5.71,5.69
56.29,0.17,-5.49,0.17,-5.50,5.50,5.58,5.46,5.67,5.67,5.66
56.86,0.17,-5.45,0.19,-5.44,5.44,5.51,5.43,5.61,5.62,5.62
57.42,0.17,-5.39,0.20,-5.38,5.38,5.45,5.41,5.55,5.58,5.56
58.00,0.17,-5.36,0.21,-5.32,5.32,5.39,5.39,5.49,5.53,5.53
58.58,0.22,-5.28,0.23,-5.26,5.26,5.32,5.36,5.48,5.48,5.50
59.16,0.26,-5.20,0.24,-5.20,5.20,5.26,5.33,5.46,5.44,5.46
59.76,0.27,-5.15,0.25,-5.14,5.14,5.19,5.30,5.41,5.39,5.42
60.35,0.27,-5.08,0.25,-5.08,5.08,5.13,5.26,5.35,5.34,5.35
60.96,0.27,-5.03,0.26,-5.02,5.02,5.06,5.22,5.29,5.28,5.30
61.57,0.27,-4.96,0.26,-4.96,4.96,5.00,5.18,5.24,5.23,5.23
62.18,0.27,-4.89,0.27,-4.90,4.90,4.93,5.13,5.17,5.17,5.16
62.80,0.27,-4.83,0.28,-4.84,4.84,4.87,5.08,5.11,5.11,5.10
63.43,0.27,-4.77,0.28,-4.78,4.78,4.80,5.02,5.05,5.06,5.04
64.07,0.27,-4.72,0.28,-4.72,4.72,4.73,4.96,4.99,5.00,4.99
64.71,0.27,-4.66,0.28,-4.66,4.66,4.67,4.90,4.93,4.93,4.93
65.35,0.27,-4.60,0.27,-4.60,4.60,4.60,4.83,4.87,4.87,4.87
66.01,0.27,-4.54,0.27,-4.54,4.54,4.53,4.76,4.81,4.81,4.81
66.67,0.27,-4.50,0.27,-4.48,4.48,4.46,4.68,4.75,4.75,4.77
67.33,0.27,-4.42,0.27,-4.43,4.43,4.40,4.60,4.70,4.69,4.69
68.01,0.27,-4.37,0.26,-4.37,4.37,4.33,4.52,4.64,4.63,4.64
68.69,0.27,-4.30,0.26,-4.31,4.31,4.26,4.44,4.59,4.57,4.57
69.37,0.27,-4.25,0.26,-4.25,4.25,4.19,4.35,4.52,4.51,4.52
70.07,0.27,-4.18,0.26,-4.18,4.18,4.12,4.27,4.45,4.44,4.45
70.77,0.27,-4.12,0.27,-4.11,4.11,4.06,4.17,4.38,4.38,4.39
71.48,0.27,-4.05,0.29,-4.03,4.03,3.99,4.08,4.30,4.32,4.32
72.19,0.27,-3.98,0.30,-3.95,3.95,3.92,3.99,4.22,4.25,4.25
72.91,0.27,-3.92,0.32,-3.87,3.87,3.85,3.90,4.14,4.19,4.19
73.64,0.27,-3.85,0.34,-3.79,3.79,3.78,3.80,4.06,4.13,4.12
74.38,0.30,-3.76,0.36,-3.71,3.71,3.71,3.71,4.01,4.06,4.06
75.12,0.37,-3.62,0.38,-3.63,3.63,3.65,3.61,4.00,4.01,3.99
75.87,0.46,-3.49,0.40,-3.55,3.55,3.58,3.52,4.01,3.95,3.95
76.63,0.48,-3.40,0.42,-3.47,3.47,3.51,3.42,3.95,3.89,3.88
77.40,0.48,-3.35,0.44,-3.40,3.40,3.44,3.33,3.88,3.83,3.83
78.17,0.48,-3.29,0.45,-3.32,3.32,3.37,3.24,3.81,3.78,3.77
78.95,0.48,-3.25,0.47,-3.25,3.25,3.31,3.14,3.74,3.72,3.73
79.74,0.48,-3.19,0.48,-3.19,3.19,3.24,3.05,3.67,3.66,3.67
80.54,0.48,-3.13,0.49,-3.12,3.12,3.17,2.96,3.61,3.61,3.61
81.35,0.48,-3.08,0.49,-3.06,3.06,3.10,2.88,3.54,3.55,3.56
82.16,0.47,-3.04,0.49,-3.01,3.01,3.03,2.79,3.48,3.50,3.51
82.98,0.47,-2.98,0.49,-2.95,2.95,2.97,2.70,3.43,3.44,3.45
83.81,0.47,-2.92,0.48,-2.90,2.90,2.90,2.62,3.37,3.39,3.39
84.65,0.47,-2.86,0.48,-2.85,2.85,2.83,2.54,3.32,3.33,3.33
85.50,0.47,-2.79,0.48,-2.79,2.79,2.77,2.45,3.26,3.27,3.26
86.35,0.48,-2.72,0.48,-2.73,2.73,2.70,2.38,3.21,3.21,3.20
87.22,0.48,-2.67,0.48,-2.67,2.67,2.63,2.30,3.15,3.15,3.15
88.09,0.48,-2.60,0.48,-2.61,2.61,2.57,2.22,3.09,3.08,3.08
88.97,0.48,-2.55,0.48,-2.54,2.54,2.50,2.15,3.02,3.02,3.03
89.86,0.48,-2.47,0.48,-2.47,2.47,2.43,2.07,2.96,2.96,2.95
90.76,0.48,-2.41,0.48,-2.41,2.41,2.37,2.00,2.89,2.89,2.89
91.66,0.48,-2.34,0.49,-2.34,2.34,2.30,1.93,2.82,2.82,2.82
92.58,0.48,-2.28,0.49,-2.27,2.27,2.24,1.86,2.75,2.75,2.76
93.51,0.48,-2.21,0.48,-2.20,2.20,2.17,1.79,2.68,2.68,2.69
94.44,0.48,-2.14,0.48,-2.12,2.12,2.10,1.73,2.60,2.60,2.62
95.39,0.48,-2.06,0.48,-2.05,2.05,2.04,1.66,2.53,2.53,2.54
96.34,0.48,-1.98,0.48,-1.97,1.97,1.97,1.60,2.45,2.45,2.46
97.30,0.47,-1.91,0.47,-1.90,1.90,1.91,1.54,2.37,2.37,2.38
98.28,0.46,-1.83,0.46,-1.83,1.83,1.84,1.48,2.29,2.29,2.29
99.26,0.45,-1.75,0.45,-1.77,1.77,1.78,1.42,2.22,2.21,2.20
100.25,0.43,-1.69,0.43,-1.70,1.70,1.72,1.36,2.13,2.13,2.12
101.25,0.41,-1.64,0.41,-1.64,1.64,1.65,1.31,2.05,2.05,2.05
102.27,0.40,-1.56,0.38,-1.59,1.59,1.59,1.25,1.99,1.96,1.96
103.29,0.39,-1.49,0.35,-1.53,1.53,1.52,1.19,1.92,1.88,1.88
104.32,0.37,-1.44,0.32,-1.48,1.48,1.46,1.14,1.85,1.80,1.81
105.37,0.31,-1.42,0.29,-1.43,1.43,1.40,1.09,1.74,1.72,1.73
106.42,0.22,-1.42,0.26,-1.38,1.38,1.33,1.04,1.60,1.64,1.64
107.48,0.19,-1.36,0.23,-1.33,1.33,1.27,0.99,1.52,1.56,1.55
108.56,0.17,-1.32,0.20,-1.28,1.28,1.21,0.94,1.45,1.48,1.49
109.64,0.15,-1.25,0.17,-1.23,1.23,1.15,0.89,1.38,1.40,1.40
110.74,0.13,-1.19,0.15,-1.18,1.18,1.08,0.84,1.31,1.33,1.32
111.85,0.11,-1.14,0.13,-1.12,1.12,1.02,0.79,1.23,1.25,1.25
112.97,0.10,-1.08,0.11,-1.06,1.06,0.96,0.75,1.16,1.17,1.18
114.10,0.10,-1.01,0.10,-1.00,1.00,0.90,0.70,1.10,1.10,1.11
115.24,0.10,-0.93,0.10,-0.93,0.93,0.84,0.66,1.03,1.03,1.03
116.39,0.10,-0.85,0.10,-0.86,0.86,0.78,0.61,0.96,0.96,0.95
117.55,0.10,-0.79,0.10,-0.79,0.79,0.72,0.57,0.89,0.89,0.89
118.73,0.11,-0.70,0.11,-0.72,0.72,0.66,0.53,0.83,0.83,0.81
119.92,0.11,-0.64,0.11,-0.65,0.65,0.59,0.49,0.76,0.76,0.75
121.12,0.12,-0.58,0.12,-0.58,0.58,0.53,0.45,0.70,0.69,0.70
122.33,0.13,-0.50,0.13,-0.50,0.50,0.47,0.41,0.64,0.63,0.63
123.55,0.14,-0.44,0.13,-0.43,0.43,0.41,0.37,0.57,0.57,0.58
124.79,0.14,-0.38,0.14,-0.36,0.36,0.35,0.33,0.51,0.51,0.52
126.03,0.15,-0.30,0.15,-0.30,0.30,0.30,0.29,0.45,0.44,0.45
127.29,0.16,-0.23,0.16,-0.23,0.23,0.24,0.25,0.39,0.38,0.39
128.57,0.16,-0.17,0.16,-0.16,0.16,0.18,0.21,0.32,0.32,0.33
129.85,0.17,-0.09,0.17,-0.10,0.10,0.12,0.17,0.27,0.27,0.26
131.15,0.17,-0.03,0.17,-0.03,0.03,0.06,0.14,0.20,0.20,0.20
132.46,0.18,0.04,0.18,0.04,-0.04,0.00,0.10,0.15,0.15,0.14
133.79,0.18,0.10,0.19,0.10,-0.10,-0.06,0.06,0.08,0.08,0.08
135.12,0.19,0.17,0.20,0.17,-0.17,-0.11,0.02,0.02,0.03,0.02
136.48,0.19,0.21,0.20,0.24,-0.24,-0.17,-0.01,-0.04,-0.03,-0.02
137.84,0.19,0.27,0.21,0.30,-0.30,-0.23,-0.05,-0.11,-0.09,-0.08
139.22,0.20,0.36,0.21,0.36,-0.36,-0.28,-0.09,-0.16,-0.15,-0.16
140.61,0.20,0.40,0.20,0.41,-0.41,-0.34,-0.12,-0.21,-0.21,-0.20
142.02,0.20,0.46,0.19,0.46,-0.46,-0.40,-0.16,-0.26,-0.26,-0.26
143.44,0.20,0.53,0.18,0.50,-0.50,-0.45,-0.20,-0.30,-0.32,-0.33
144.87,0.20,0.58,0.17,0.55,-0.55,-0.51,-0.23,-0.34,-0.38,-0.38
146.32,0.20,0.63,0.15,0.59,-0.59,-0.56,-0.27,-0.38,-0.43,-0.43
147.78,0.18,0.67,0.14,0.62,-0.62,-0.62,-0.31,-0.44,-0.49,-0.49
149.26,0.13,0.67,0.12,0.66,-0.66,-0.67,-0.35,-0.53,-0.54,-0.54
150.75,0.10,0.71,0.10,0.70,-0.70,-0.72,-0.38,-0.60,-0.60,-0.61
152.26,0.04,0.69,0.08,0.74,-0.74,-0.78,-0.42,-0.70,-0.66,-0.65
153.78,0.00,0.71,0.06,0.77,-0.77,-0.83,-0.46,-0.77,-0.71,-0.71
155.32,0.00,0.76,0.04,0.81,-0.81,-0.88,-0.50,-0.81,-0.77,-0.76
156.88,0.00,0.82,0.03,0.85,-0.85,-0.93,-0.54,-0.85,-0.83,-0.82
158.44,0.00,0.88,0.01,0.90,-0.90,-0.98,-0.58,-0.90,-0.89,-0.88
160.03,0.00,0.94,-0.00,0.94,-0.94,-1.03,-0.63,-0.94,-0.94,-0.94
161.63,0.00,1.00,-0.01,0.99,-0.99,-1.08,-0.67,-0.99,-1.00,-1.00
163.24,-0.01,1.06,-0.02,1.04,-1.04,-1.13,-0.71,-1.05,-1.07,-1.07
164.88,-0.01,1.11,-0.02,1.10,-1.10,-1.18,-0.76,-1.11,-1.13,-1.12
166.53,-0.01,1.18,-0.02,1.17,-1.17,-1.23,-0.80,-1.17,-1.19,-1.19
168.19,-0.02,1.22,-0.02,1.23,-1.23,-1.28,-0.85,-1.25,-1.25,-1.24
169.87,-0.03,1.27,-0.02,1.29,-1.29,-1.33,-0.89,-1.32,-1.31,-1.30
171.57,-0.03,1.34,-0.02,1.34,-1.34,-1.37,-0.94,-1.37,-1.37,-1.37
173.29,-0.04,1.39,-0.03,1.39,-1.39,-1.42,-0.99,-1.43,-1.42,-1.43
175.02,-0.04,1.44,-0.04,1.44,-1.44,-1.46,-1.04,-1.47,-1.48,-1.48
176.77,-0.05,1.48,-0.06,1.48,-1.48,-1.51,-1.09,-1.52,-1.53,-1.53
178.54,-0.05,1.54,-0.07,1.52,-1.52,-1.55,-1.14,-1.56,-1.59,-1.59
180.32,-0.05,1.60,-0.09,1.55,-1.55,-1.59,-1.19,-1.60,-1.64,-1.65
182.13,-0.05,1.64,-0.10,1.59,-1.59,-1.63,-1.25,-1.64,-1.69,-1.69
183.95,-0.09,1.65,-0.11,1.63,-1.63,-1.67,-1.30,-1.72,-1.74,-1.74
185.79,-0.13,1.66,-0.12,1.67,-1.67,-1.71,-1.36,-1.80,-1.79,-1.79
187.65,-0.19,1.64,-0.13,1.71,-1.71,-1.75,-1.41,-1.90,-1.84,-1.83
189.52,-0.19,1.69,-0.13,1.75,-1.75,-1.79,-1.47,-1.94,-1.88,-1.88
191.42,-0.18,1.73,-0.13,1.79,-1.79,-1.83,-1.53,-1.97,-1.92,-1.91
193.33,-0.16,1.80,-0.13,1.84,-1.84,-1.86,-1.58,-2.00,-1.97,-1.96
195.27,-0.15,1.86,-0.13,1.88,-1.88,-1.90,-1.64,-2.03,-2.01,-2.01
197.22,-0.13,1.93,-0.13,1.92,-1.92,-1.93,-1.70,-2.05,-2.05,-2.06
199.19,-0.12,1.97,-0.13,1.96,-1.96,-1.96,-1.76,-2.08,-2.09,-2.09
201.18,-0.11,2.03,-0.13,2.00,-2.00,-1.99,-1.82,-2.11,-2.13,-2.14
203.19,-0.11,2.06,-0.14,2.03,-2.03,-2.02,-1.88,-2.14,-2.17,-2.17
205.23,-0.11,2.10,-0.14,2.07,-2.07,-2.05,-1.94,-2.18,-2.21,-2.21
207.28,-0.11,2.13,-0.15,2.10,-2.10,-2.08,-2.00,-2.21,-2.25,-2.24
209.35,-0.11,2.17,-0.17,2.12,-2.12,-2.11,-2.06,-2.23,-2.29,-2.28
211.44,-0.12,2.21,-0.19,2.14,-2.14,-2.13,-2.12,-2.26,-2.33,-2.33
213.56,-0.20,2.16,-0.21,2.16,-2.16,-2.16,-2.18,-2.36,-2.37,-2.36
215.69,-0.26,2.14,-0.23,2.17,-2.17,-2.18,-2.23,-2.43,-2.40,-2.40
217.85,-0.32,2.11,-0.25,2.19,-2.19,-2.20,-2.29,-2.51,-2.44,-2.43
220.03,-0.33,2.15,-0.26,2.20,-2.20,-2.22,-2.34,-2.53,-2.47,-2.48
222.23,-0.33,2.17,-0.28,2.22,-2.22,-2.24,-2.40,-2.55,-2.50,-2.50
224.45,-0.33,2.20,-0.30,2.23,-2.23,-2.26,-2.44,-2.56,-2.53,-2.53
226.70,-0.33,2.23,-0.31,2.24,-2.24,-2.27,-2.49,-2.57,-2.55,-2.56
228.96,-0.33,2.25,-0.32,2.25,-2.25,-2.29,-2.54,-2.58,-2.58,-2.58
231.25,-0.32,2.27,-0.33,2.26,-2.26,-2.30,-2.58,-2.58,-2.60,-2.59
233.57,-0.31,2.31,-0.34,2.27,-2.27,-2.32,-2.61,-2.58,-2.61,-2.62
235.90,-0.30,2.33,-0.34,2.28,-2.28,-2.33,-2.65,-2.58,-2.63,-2.63
238.26,-0.28,2.37,-0.34,2.30,-2.30,-2.34,-2.68,-2.57,-2.64,-2.65
240.64,-0.30,2.34,-0.34,2.31,-2.31,-2.35,-2.70,-2.61,-2.65,-2.64
243.05,-0.34,2.31,-0.34,2.32,-2.32,-2.35,-2.72,-2.66,-2.66,-2.65
245.48,-0.40,2.27,-0.34,2.33,-2.33,-2.36,-2.74,-2.73,-2.67,-2.67
247.93,-0.40,2.28,-0.33,2.34,-2.34,-2.36,-2.75,-2.74,-2.67,-2.68
250.41,-0.38,2.29,-0.33,2.35,-2.35,-2.37,-2.76,-2.72,-2.68,-2.67
252.92,-0.37,2.30,-0.34,2.35,-2.35,-2.37,-2.76,-2.72,-2.69,-2.67
255.45,-0.36,2.33,-0.35,2.35,-2.35,-2.37,-2.76,-2.71,-2.70,-2.69
258.00,-0.35,2.35,-0.36,2.35,-2.35,-2.37,-2.76,-2.70,-2.71,-2.70
260.58,-0.34,2.37,-0.37,2.34,-2.34,-2.37,-2.75,-2.68,-2.72,-2.71
263.19,-0.34,2.38,-0.38,2.34,-2.34,-2.37,-2.73,-2.68,-2.73,-2.72
265.82,-0.34,2.40,-0.40,2.34,-2.34,-2.37,-2.71,-2.68,-2.74,-2.74
268.48,-0.34,2.40,-0.41,2.34,-2.34,-2.36,-2.69,-2.68,-2.75,-2.74
271.16,-0.38,2.38,-0.42,2.34,-2.34,-2.36,-2.67,-2.72,-2.76,-2.76
273.87,-0.45,2.32,-0.44,2.33,-2.33,-2.35,-2.64,-2.78,-2.78,-2.77
276.61,-0.52,2.27,-0.46,2.32,-2.32,-2.34,-2.61,-2.84,-2.79,-2.79
279.38,-0.55,2.27,-0.48,2.31,-2.31,-2.33,-2.57,-2.86,-2.80,-2.82
282.17,-0.55,2.27,-0.50,2.31,-2.31,-2.32,-2.54,-2.86,-2.81,-2.82
284.99,-0.55,2.27,-0.52,2.30,-2.30,-2.31,-2.50,-2.85,-2.82,-2.82
287.84,-0.54,2.28,-0.53,2.29,-2.29,-2.30,-2.46,-2.83,-2.82,-2.82
290.72,-0.53,2.31,-0.55,2.27,-2.27,-2.29,-2.41,-2.80,-2.83,-2.84
293.63,-0.61,2.22,-0.57,2.26,-2.26,-2.28,-2.37,-2.87,-2.83,-2.83
296.57,-0.60,2.23,-0.59,2.25,-2.25,-2.26,-2.33,-2.85,-2.84,-2.83
299.53,-0.59,2.25,-0.60,2.24,-2.24,-2.25,-2.28,-2.82,-2.84,-2.84
302.53,-0.58,2.25,-0.62,2.23,-2.23,-2.23,-2.24,-2.81,-2.84,-2.83
305.55,-0.57,2.27,-0.62,2.22,-2.22,-2.22,-2.19,-2.79,-2.84,-2.84
308.61,-0.56,2.27,-0.63,2.21,-2.21,-2.20,-2.15,-2.77,-2.84,-2.83
311.69,-0.63,2.22,-0.65,2.20,-2.20,-2.18,-2.10,-2.83,-2.85,-2.85
314.81,-0.72,2.12,-0.67,2.18,-2.18,-2.17,-2.05,-2.90,-2.85,-2.84
317.96,-0.75,2.11,-0.69,2.16,-2.16,-2.15,-2.01,-2.91,-2.85,-2.86
321.14,-0.75,2.10,-0.71,2.14,-2.14,-2.13,-1.97,-2.89,-2.85,-2.85
324.35,-0.75,2.11,-0.73,2.13,-2.13,-2.11,-1.92,-2.87,-2.86,-2.86
327.59,-0.75,2.10,-0.74,2.12,-2.12,-2.09,-1.88,-2.87,-2.86,-2.85
330.87,-0.75,2.11,-0.76,2.10,-2.10,-2.07,-1.84,-2.85,-2.86,-2.86
334.18,-0.75,2.12,-0.78,2.08,-2.08,-2.05,-1.80,-2.83,-2.86,-2.87
337.52,-0.78,2.08,-0.80,2.06,-2.06,-2.03,-1.76,-2.84,-2.86,-2.86
340.90,-0.84,2.03,-0.82,2.04,-2.04,-2.01,-1.72,-2.88,-2.86,-2.87
344.30,-0.86,2.00,-0.84,2.02,-2.02,-1.99,-1.69,-2.88,-2.86,-2.86
347.75,-0.86,1.99,-0.85,2.01,-2.01,-1.96,-1.65,-2.86,-2.86,-2.85
351.23,-0.86,2.01,-0.87,1.99,-1.99,-1.94,-1.62,-2.85,-2.86,-2.87
354.74,-0.85,2.00,-0.89,1.97,-1.97,-1.92,-1.59,-2.81,-2.85,-2.85
358.28,-0.85,2.00,-0.91,1.94,-1.94,-1.90,-1.55,-2.79,-2.85,-2.85
361.87,-0.90,1.95,-0.93,1.91,-1.91,-1.88,-1.52,-2.81,-2.84,-2.85
365.49,-1.01,1.83,-0.95,1.89,-1.89,-1.85,-1.50,-2.90,-2.84,-2.84
369.14,-1.03,1.80,-0.96,1.87,-1.87,-1.83,-1.47,-2.90,-2.84,-2.83
372.83,-1.02,1.80,-0.98,1.86,-1.86,-1.81,-1.44,-2.87,-2.83,-2.82
376.56,-1.02,1.81,-0.99,1.84,-1.84,-1.78,-1.42,-2.86,-2.83,-2.83
380.33,-1.01,1.82,-1.01,1.82,-1.82,-1.76,-1.39,-2.83,-2.83,-2.83
384.13,-1.00,1.82,-1.03,1.80,-1.80,-1.74,-1.37,-2.80,-2.83,-2.82
387.97,-1.05,1.77,-1.06,1.78,-1.78,-1.71,-1.35,-2.83,-2.83,-2.82
391.85,-1.08,1.75,-1.08,1.76,-1.76,-1.69,-1.33,-2.83,-2.84,-2.83
395.77,-1.09,1.75,-1.11,1.73,-1.73,-1.67,-1.31,-2.82,-2.84,-2.84
399.73,-1.09,1.75,-1.14,1.71,-1.71,-1.64,-1.29,-2.80,-2.85,-2.84
403.72,-1.10,1.73,-1.17,1.68,-1.68,-1.62,-1.27,-2.78,-2.85,-2.83
407.76,-1.17,1.68,-1.20,1.66,-1.66,-1.60,-1.26,-2.82,-2.86,-2.85
411.84,-1.24,1.62,-1.23,1.63,-1.63,-1.58,-1.24,-2.86,-2.86,-2.86
415.96,-1.29,1.57,-1.26,1.60,-1.60,-1.55,-1.23,-2.88,-2.86,-2.86
420.12,-1.30,1.57,-1.29,1.56,-1.56,-1.53,-1.21,-2.86,-2.86,-2.87
424.32,-1.36,1.50,-1.32,1.53,-1.53,-1.51,-1.20,-2.89,-2.85,-2.86
428.56,-1.38,1.46,-1.34,1.49,-1.49,-1.48,-1.19,-2.87,-2.84,-2.84
432.85,-1.39,1.43,-1.36,1.46,-1.46,-1.46,-1.17,-2.85,-2.82,-2.82
437.18,-1.43,1.38,-1.37,1.42,-1.42,-1.44,-1.16,-2.85,-2.79,-2.81
441.55,-1.41,1.37,-1.37,1.39,-1.39,-1.42,-1.15,-2.80,-2.76,-2.78
445.96,-1.37,1.37,-1.36,1.36,-1.36,-1.40,-1.14,-2.73,-2.72,-2.74
450.42,-1.32,1.38,-1.35,1.33,-1.33,-1.37,-1.13,-2.65,-2.68,-2.70
454.93,-1.29,1.36,-1.33,1.31,-1.31,-1.35,-1.12,-2.59,-2.63,-2.65
459.48,-1.29,1.30,-1.30,1.28,-1.28,-1.33,-1.11,-2.57,-2.58,-2.59
464.07,-1.31,1.21,-1.28,1.25,-1.25,-1.31,-1.10,-2.56,-2.53,-2.52
468.71,-1.28,1.19,-1.24,1.23,-1.23,-1.29,-1.09,-2.51,-2.48,-2.47
473.40,-1.22,1.19,-1.21,1.21,-1.21,-1.27,-1.08,-2.43,-2.42,-2.41
478.13,-1.17,1.18,-1.18,1.19,-1.19,-1.25,-1.06,-2.36,-2.37,-2.35
482.91,-1.12,1.18,-1.15,1.17,-1.17,-1.23,-1.05,-2.29,-2.32,-2.30
487.74,-1.09,1.18,-1.11,1.16,-1.16,-1.21,-1.04,-2.25,-2.27,-2.27
492.62,-1.12,1.11,-1.09,1.14,-1.14,-1.19,-1.03,-2.26,-2.23,-2.23
