frequency,raw,error,smoothed,error_smoothed,equalization,parametric_eq,fixed_band_eq,equalized_raw,equalized_smoothed,target
20.00,7.08,-5.14,7.08,-5.16,5.16,5.10,1.17,12.24,12.25,12.22
20.20,7.17,-5.09,7.17,-5.11,5.11,5.08,1.21,12.28,12.28,12.26
20.40,7.25,-5.05,7.25,-5.06,5.06,5.05,1.24,12.30,12.31,12.30
20.61,7.34,-4.99,7.34,-5.00,5.00,5.01,1.28,12.33,12.33,12.33
20.81,7.42,-4.95,7.42,-4.94,4.94,4.97,1.32,12.36,12.36,12.37
21.02,7.51,-4.90,7.51,-4.88,4.88,4.93,1.36,12.39,12.39,12.41
21.23,7.59,-4.84,7.59,-4.82,4.82,4.88,1.41,12.41,12.41,12.43
21.44,7.68,-4.77,7.68,-4.75,4.75,4.83,1.45,12.43,12.43,12.45
21.66,7.76,-4.71,7.76,-4.69,4.69,4.78,1.49,12.45,12.45,12.47
21.87,7.85,-4.63,7.85,-4.62,4.62,4.72,1.54,12.47,12.47,12.48
22.09,7.94,-4.56,7.93,-4.56,4.56,4.66,1.59,12.49,12.49,12.50
22.31,8.02,-4.49,8.02,-4.49,4.49,4.60,1.64,12.50,12.50,12.51
22.54,8.11,-4.41,8.10,-4.41,4.41,4.53,1.69,12.52,12.52,12.52
22.76,8.19,-4.34,8.19,-4.33,4.33,4.46,1.74,12.52,12.53,12.52
22.99,8.28,-4.25,8.28,-4.26,4.26,4.39,1.79,12.54,12.53,12.52
23.22,8.36,-4.18,8.36,-4.18,4.18,4.32,1.84,12.54,12.54,12.53
23.45,8.45,-4.09,8.45,-4.10,4.10,4.25,1.90,12.55,12.55,12.54
23.69,8.54,-4.02,8.54,-4.02,4.02,4.17,1.95,12.56,12.56,12.55
23.92,8.62,-3.94,8.62,-3.95,3.95,4.09,2.01,12.57,12.57,12.56
24.16,8.71,-3.87,8.71,-3.87,3.87,4.02,2.06,12.58,12.58,12.58
24.40,8.80,-3.80,8.79,-3.79,3.79,3.94,2.12,12.59,12.59,12.60
24.65,8.88,-3.72,8.88,-3.72,3.72,3.86,2.18,12.59,12.60,12.60
24.89,8.97,-3.64,8.97,-3.64,3.64,3.77,2.24,12.61,12.61,12.61
25.14,9.06,-3.56,9.05,-3.56,3.56,3.69,2.30,12.62,12.62,12.62
25.39,9.14,-3.49,9.14,-3.49,3.49,3.61,2.35,12.63,12.63,12.63
25.65,9.23,-3.42,9.23,-3.41,3.41,3.53,2.41,12.64,12.64,12.64
25.91,9.31,-3.34,9.31,-3.34,3.34,3.45,2.47,12.64,12.65,12.64
26.16,9.40,-3.25,9.40,-3.26,3.26,3.36,2.53,12.66,12.66,12.65
26.43,9.48,-3.18,9.48,-3.18,3.18,3.28,2.58,12.66,12.67,12.66
26.69,9.57,-3.10,9.57,-3.11,3.11,3.20,2.64,12.68,12.67,12.67
26.96,9.66,-3.03,9.65,-3.03,3.03,3.12,2.69,12.69,12.68,12.69
27.23,9.74,-2.96,9.73,-2.96,2.96,3.04,2.74,12.69,12.69,12.70
27.50,9.82,-2.89,9.82,-2.88,2.88,2.96,2.79,12.70,12.70,12.71
27.77,9.90,-2.80,9.90,-2.81,2.81,2.87,2.83,12.71,12.71,12.70
28.05,9.99,-2.73,9.99,-2.73,2.73,2.79,2.88,12.72,12.72,12.72
28.33,10.07,-2.65,10.07,-2.66,2.66,2.71,2.92,12.72,12.72,12.72
28.62,10.15,-2.58,10.15,-2.58,2.58,2.64,2.95,12.73,12.73,12.73
28.90,10.23,-2.51,10.23,-2.51,2.51,2.56,2.98,12.74,12.74,12.74
29.19,10.31,-2.43,10.31,-2.43,2.43,2.48,3.01,12.74,12.75,12.74
29.48,10.40,-2.36,10.39,-2.36,2.36,2.40,3.03,12.76,12.75,12.76
29.78,10.48,-2.28,10.47,-2.28,2.28,2.33,3.04,12.76,12.76,12.76
30.08,10.56,-2.21,10.56,-2.21,2.21,2.25,3.05,12.77,12.77,12.77
30.38,10.64,-2.13,10.64,-2.14,2.14,2.18,3.06,12.77,12.77,12.77
30.68,10.72,-2.07,10.72,-2.06,2.06,2.10,3.06,12.78,12.78,12.79
30.99,10.80,-1.99,10.80,-1.99,1.99,2.03,3.05,12.79,12.79,12.78
31.30,10.87,-1.92,10.88,-1.92,1.92,1.96,3.04,12.78,12.79,12.79
31.61,10.95,-1.85,10.95,-1.85,1.85,1.89,3.02,12.79,12.80,12.80
31.93,11.03,-1.78,11.03,-1.78,1.78,1.81,2.99,12.80,12.81,12.81
32.24,11.11,-1.69,11.11,-1.71,1.71,1.74,2.96,12.82,12.81,12.80
32.57,11.19,-1.63,11.18,-1.64,1.64,1.68,2.92,12.83,12.82,12.82
32.89,11.26,-1.57,11.26,-1.57,1.57,1.61,2.88,12.83,12.83,12.83
33.22,11.34,-1.50,11.33,-1.50,1.50,1.54,2.83,12.84,12.83,12.83
33.55,11.41,-1.43,11.40,-1.44,1.44,1.47,2.77,12.85,12.84,12.84
33.89,11.48,-1.37,11.47,-1.37,1.37,1.41,2.71,12.85,12.85,12.85
34.23,11.54,-1.32,11.54,-1.31,1.31,1.34,2.65,12.85,12.85,12.85
34.57,11.61,-1.25,11.61,-1.25,1.25,1.28,2.58,12.85,12.86,12.86
34.92,11.67,-1.19,11.68,-1.18,1.18,1.21,2.51,12.85,12.86,12.86
35.27,11.74,-1.13,11.74,-1.12,1.12,1.15,2.44,12.86,12.86,12.86
35.62,11.81,-1.06,11.81,-1.06,1.06,1.09,2.36,12.87,12.87,12.87
35.97,11.88,-0.99,11.87,-1.00,1.00,1.03,2.28,12.88,12.87,12.87
36.33,11.93,-0.94,11.93,-0.94,0.94,0.97,2.19,12.87,12.87,12.87
36.70,11.99,-0.88,11.99,-0.88,0.88,0.90,2.11,12.87,12.87,12.87
37.06,12.05,-0.82,12.05,-0.82,0.82,0.84,2.02,12.87,12.87,12.87
37.43,12.11,-0.77,12.10,-0.76,0.76,0.79,1.93,12.87,12.87,12.88
37.81,12.16,-0.71,12.16,-0.70,0.70,0.73,1.84,12.86,12.87,12.87
38.19,12.22,-0.65,12.22,-0.64,0.64,0.67,1.75,12.86,12.86,12.87
38.57,12.27,-0.59,12.27,-0.59,0.59,0.61,1.66,12.85,12.86,12.86
38.95,12.32,-0.54,12.33,-0.53,0.53,0.55,1.57,12.85,12.86,12.86
39.34,12.38,-0.47,12.38,-0.48,0.48,0.50,1.48,12.85,12.86,12.85
39.74,12.43,-0.42,12.43,-0.42,0.42,0.44,1.38,12.85,12.85,12.84
40.14,12.49,-0.36,12.48,-0.37,0.37,0.39,1.29,12.85,12.85,12.85
40.54,12.54,-0.30,12.53,-0.31,0.31,0.33,1.20,12.85,12.84,12.84
40.94,12.59,-0.25,12.58,-0.26,0.26,0.28,1.10,12.85,12.84,12.84
41.35,12.64,-0.19,12.63,-0.21,0.21,0.22,1.01,12.85,12.84,12.83
41.76,12.68,-0.15,12.67,-0.16,0.16,0.17,0.92,12.83,12.83,12.83
42.18,12.72,-0.12,12.72,-0.10,0.10,0.11,0.83,12.82,12.83,12.83
42.60,12.76,-0.07,12.77,-0.06,0.06,0.06,0.73,12.81,12.82,12.83
43.03,12.80,-0.03,12.81,-0.01,0.01,0.01,0.64,12.80,12.82,12.83
43.46,12.85,0.03,12.85,0.04,-0.04,-0.05,0.55,12.81,12.81,12.82
43.90,12.90,0.10,12.90,0.09,-0.09,-0.10,0.46,12.81,12.81,12.80
44.33,12.94,0.14,12.94,0.13,-0.13,-0.15,0.37,12.81,12.80,12.80
44.78,12.98,0.19,12.98,0.18,-0.18,-0.20,0.28,12.80,12.80,12.79
45.23,13.02,0.24,13.02,0.22,-0.22,-0.25,0.19,12.80,12.79,12.78
45.68,13.06,0.28,13.05,0.27,-0.27,-0.31,0.10,12.79,12.79,12.78
46.13,13.10,0.33,13.09,0.31,-0.31,-0.36,0.01,12.79,12.78,12.77
46.60,13.14,0.36,13.13,0.36,-0.36,-0.41,-0.08,12.78,12.77,12.78
47.06,13.17,0.40,13.17,0.40,-0.40,-0.46,-0.17,12.76,12.76,12.77
47.53,13.21,0.45,13.21,0.45,-0.45,-0.51,-0.25,12.76,12.76,12.76
48.01,13.24,0.47,13.24,0.50,-0.50,-0.56,-0.34,12.74,12.74,12.77
48.49,13.27,0.52,13.28,0.54,-0.54,-0.61,-0.43,12.72,12.73,12.74
48.97,13.31,0.59,13.31,0.59,-0.59,-0.66,-0.52,12.72,12.72,12.72
49.46,13.35,0.64,13.35,0.64,-0.64,-0.71,-0.60,12.71,12.71,12.71
49.96,13.39,0.70,13.39,0.69,-0.69,-0.77,-0.69,12.69,12.69,12.68
50.46,13.42,0.74,13.42,0.75,-0.75,-0.82,-0.77,12.67,12.68,12.68
50.96,13.46,0.79,13.46,0.80,-0.80,-0.87,-0.86,12.66,12.66,12.66
51.47,13.50,0.87,13.50,0.86,-0.86,-0.92,-0.94,12.64,12.64,12.63
51.99,13.54,0.93,13.54,0.92,-0.92,-0.97,-1.03,12.62,12.62,12.61
52.51,13.58,0.97,13.57,0.97,-0.97,-1.02,-1.11,12.60,12.60,12.61
53.03,13.61,1.03,13.61,1.03,-1.03,-1.07,-1.19,12.58,12.58,12.58
53.56,13.64,1.08,13.64,1.09,-1.09,-1.12,-1.27,12.55,12.55,12.56
54.10,13.68,1.14,13.68,1.15,-1.15,-1.17,-1.35,12.53,12.53,12.53
54.64,13.71,1.19,13.71,1.20,-1.20,-1.22,-1.43,12.51,12.51,12.51
55.18,13.75,1.26,13.74,1.25,-1.25,-1.27,-1.51,12.50,12.49,12.48
55.74,13.78,1.32,13.77,1.30,-1.30,-1.32,-1.58,12.48,12.47,12.45
56.29,13.80,1.35,13.80,1.35,-1.35,-1.38,-1.66,12.44,12.44,12.44
56.86,13.83,1.42,13.82,1.40,-1.40,-1.43,-1.73,12.42,12.42,12.41
57.42,13.85,1.47,13.84,1.45,-1.45,-1.48,-1.80,12.40,12.39,12.38
58.00,13.87,1.51,13.86,1.50,-1.50,-1.53,-1.87,12.37,12.36,12.36
58.58,13.89,1.55,13.88,1.55,-1.55,-1.58,-1.94,12.34,12.33,12.33
59.16,13.90,1.59,13.90,1.60,-1.60,-1.64,-2.00,12.30,12.30,12.31
59.76,13.92,1.63,13.92,1.65,-1.65,-1.69,-2.07,12.26,12.27,12.28
60.35,13.94,1.69,13.94,1.71,-1.71,-1.74,-2.13,12.23,12.23,12.25
60.96,13.96,1.75,13.96,1.76,-1.76,-1.79,-2.19,12.20,12.20,12.21
61.57,13.97,1.80,13.97,1.81,-1.81,-1.85,-2.24,12.16,12.16,12.16
62.18,13.99,1.87,13.99,1.86,-1.86,-1.90,-2.30,12.12,12.12,12.12
62.80,14.00,1.91,14.00,1.92,-1.92,-1.95,-2.35,12.08,12.08,12.09
63.43,14.02,1.98,14.02,1.97,-1.97,-2.01,-2.40,12.04,12.04,12.04
64.07,14.04,2.04,14.03,2.03,-2.03,-2.06,-2.45,12.01,12.00,12.00
64.71,14.06,2.10,14.05,2.09,-2.09,-2.12,-2.49,11.97,11.96,11.95
65.35,14.08,2.17,14.06,2.15,-2.15,-2.17,-2.54,11.93,11.91,11.91
66.01,14.09,2.22,14.08,2.21,-2.21,-2.23,-2.58,11.88,11.87,11.87
66.67,14.10,2.27,14.10,2.27,-2.27,-2.28,-2.62,11.82,11.82,11.83
67.33,14.11,2.32,14.12,2.34,-2.34,-2.34,-2.66,11.77,11.78,11.79
68.01,14.12,2.38,14.14,2.40,-2.40,-2.39,-2.70,11.72,11.74,11.74
68.69,14.15,2.45,14.16,2.47,-2.47,-2.45,-2.73,11.68,11.69,11.69
69.37,14.18,2.53,14.18,2.54,-2.54,-2.51,-2.77,11.64,11.65,11.64
70.07,14.20,2.60,14.21,2.61,-2.61,-2.56,-2.81,11.59,11.60,11.60
70.77,14.24,2.68,14.24,2.68,-2.68,-2.62,-2.84,11.56,11.56,11.56
71.48,14.27,2.75,14.27,2.76,-2.76,-2.68,-2.88,11.51,11.51,11.51
72.19,14.30,2.84,14.30,2.83,-2.83,-2.74,-2.91,11.47,11.47,11.46
72.91,14.34,2.92,14.33,2.91,-2.91,-2.80,-2.95,11.43,11.42,11.42
73.64,14.37,2.99,14.37,2.99,-2.99,-2.86,-2.98,11.38,11.38,11.37
74.38,14.41,3.07,14.41,3.07,-3.07,-2.92,-3.02,11.34,11.34,11.34
75.12,14.45,3.16,14.45,3.15,-3.15,-2.98,-3.06,11.30,11.30,11.29
75.87,14.49,3.23,14.49,3.23,-3.23,-3.04,-3.10,11.26,11.26,11.26
76.63,14.53,3.31,14.53,3.31,-3.31,-3.10,-3.14,11.22,11.22,11.22
77.40,14.57,3.39,14.57,3.39,-3.39,-3.16,-3.18,11.18,11.18,11.18
78.17,14.61,3.47,14.61,3.46,-3.46,-3.22,-3.22,11.14,11.14,11.14
78.95,14.65,3.54,14.65,3.54,-3.54,-3.28,-3.27,11.11,11.11,11.11
79.74,14.69,3.61,14.69,3.61,-3.61,-3.34,-3.32,11.07,11.07,11.08
80.54,14.73,3.69,14.73,3.69,-3.69,-3.41,-3.37,11.04,11.04,11.04
81.35,14.77,3.76,14.77,3.76,-3.76,-3.47,-3.42,11.01,11.01,11.01
82.16,14.81,3.83,14.81,3.83,-3.83,-3.54,-3.47,10.98,10.98,10.97
82.98,14.85,3.90,14.85,3.90,-3.90,-3.60,-3.53,10.95,10.95,10.95
83.81,14.88,3.97,14.88,3.97,-3.97,-3.66,-3.59,10.91,10.91,10.91
84.65,14.92,4.04,14.92,4.04,-4.04,-3.73,-3.65,10.88,10.89,10.88
85.50,14.96,4.10,14.96,4.10,-4.10,-3.80,-3.72,10.86,10.86,10.86
86.35,14.99,4.16,14.99,4.16,-4.16,-3.86,-3.78,10.82,10.83,10.83
87.22,15.03,4.23,15.03,4.22,-4.22,-3.93,-3.85,10.80,10.80,10.80
88.09,15.06,4.29,15.06,4.28,-4.28,-3.99,-3.93,10.77,10.77,10.77
88.97,15.10,4.35,15.09,4.34,-4.34,-4.06,-4.00,10.76,10.75,10.75
89.86,15.13,4.40,15.11,4.40,-4.40,-4.13,-4.08,10.73,10.72,10.73
90.76,15.16,4.48,15.14,4.45,-4.45,-4.20,-4.17,10.70,10.69,10.68
91.66,15.18,4.52,15.17,4.51,-4.51,-4.27,-4.25,10.67,10.66,10.66
92.58,15.20,4.57,15.20,4.56,-4.56,-4.34,-4.34,10.63,10.63,10.63
93.51,15.21,4.60,15.22,4.62,-4.62,-4.41,-4.43,10.59,10.60,10.61
94.44,15.23,4.65,15.25,4.68,-4.68,-4.48,-4.52,10.55,10.57,10.58
95.39,15.26,4.71,15.27,4.73,-4.73,-4.55,-4.62,10.53,10.54,10.55
96.34,15.29,4.78,15.29,4.79,-4.79,-4.62,-4.72,10.50,10.51,10.51
97.30,15.32,4.85,15.32,4.84,-4.84,-4.69,-4.82,10.47,10.47,10.47
98.28,15.35,4.92,15.34,4.90,-4.90,-4.76,-4.93,10.44,10.44,10.43
99.26,15.38,4.98,15.37,4.97,-4.97,-4.83,-5.03,10.41,10.40,10.40
100.25,15.40,5.04,15.39,5.03,-5.03,-4.91,-5.14,10.37,10.36,10.36
101.25,15.42,5.10,15.42,5.10,-5.10,-4.98,-5.25,10.32,10.32,10.32
102.27,15.44,5.16,15.45,5.17,-5.17,-5.05,-5.36,10.27,10.28,10.27
103.29,15.46,5.23,15.48,5.25,-5.25,-5.13,-5.47,10.21,10.23,10.23
104.32,15.48,5.29,15.50,5.32,-5.32,-5.20,-5.59,10.16,10.18,10.19
105.37,15.52,5.38,15.53,5.39,-5.39,-5.27,-5.70,10.12,10.13,10.14
106.42,15.55,5.46,15.55,5.47,-5.47,-5.35,-5.82,10.08,10.08,10.08
107.48,15.58,5.54,15.57,5.54,-5.54,-5.42,-5.93,10.04,10.03,10.04
108.56,15.61,5.64,15.58,5.62,-5.62,-5.50,-6.04,9.99,9.97,9.97
109.64,15.63,5.72,15.60,5.69,-5.69,-5.57,-6.15,9.94,9.91,9.91
110.74,15.64,5.79,15.61,5.77,-5.77,-5.65,-6.26,9.87,9.84,9.85
111.85,15.64,5.85,15.62,5.84,-5.84,-5.73,-6.37,9.80,9.78,9.79
112.97,15.63,5.92,15.63,5.91,-5.91,-5.80,-6.47,9.71,9.71,9.71
114.10,15.62,5.97,15.63,5.99,-5.99,-5.88,-6.57,9.63,9.65,9.65
115.24,15.62,6.04,15.63,6.05,-6.05,-5.95,-6.67,9.56,9.58,9.58
116.39,15.62,6.12,15.63,6.12,-6.12,-6.03,-6.76,9.50,9.51,9.50
117.55,15.62,6.18,15.63,6.19,-6.19,-6.11,-6.84,9.43,9.44,9.43
118.73,15.62,6.26,15.63,6.25,-6.25,-6.18,-6.92,9.37,9.37,9.36
119.92,15.62,6.31,15.62,6.32,-6.32,-6.26,-6.99,9.30,9.30,9.31
121.12,15.62,6.39,15.62,6.38,-6.38,-6.34,-7.06,9.24,9.24,9.23
122.33,15.62,6.45,15.62,6.44,-6.44,-6.41,-7.12,9.17,9.17,9.17
123.55,15.62,6.50,15.62,6.51,-6.51,-6.49,-7.17,9.11,9.11,9.12
124.79,15.62,6.56,15.62,6.57,-6.57,-6.57,-7.21,9.05,9.05,9.05
126.03,15.62,6.63,15.62,6.63,-6.63,-6.64,-7.25,8.99,8.99,8.99
127.29,15.62,6.69,15.62,6.69,-6.69,-6.72,-7.28,8.93,8.93,8.93
128.57,15.62,6.76,15.62,6.75,-6.75,-6.79,-7.30,8.87,8.87,8.86
129.85,15.62,6.81,15.62,6.80,-6.80,-6.87,-7.31,8.82,8.82,8.81
131.15,15.62,6.86,15.62,6.86,-6.86,-6.95,-7.32,8.76,8.76,8.75
132.46,15.62,6.91,15.62,6.91,-6.91,-7.02,-7.32,8.71,8.71,8.71
133.79,15.62,6.96,15.62,6.96,-6.96,-7.09,-7.32,8.65,8.65,8.66
135.12,15.62,7.01,15.62,7.01,-7.01,-7.17,-7.31,8.61,8.61,8.60
136.48,15.62,7.06,15.62,7.06,-7.06,-7.24,-7.30,8.56,8.56,8.56
137.84,15.62,7.11,15.62,7.11,-7.11,-7.31,-7.28,8.51,8.51,8.51
139.22,15.62,7.17,15.62,7.16,-7.16,-7.38,-7.26,8.46,8.46,8.45
140.61,15.62,7.22,15.62,7.20,-7.20,-7.45,-7.24,8.41,8.41,8.40
142.02,15.62,7.25,15.62,7.25,-7.25,-7.52,-7.21,8.37,8.37,8.37
143.44,15.62,7.29,15.62,7.30,-7.30,-7.59,-7.19,8.32,8.32,8.33
144.87,15.62,7.34,15.62,7.34,-7.34,-7.66,-7.16,8.28,8.28,8.28
146.32,15.62,7.39,15.62,7.39,-7.39,-7.73,-7.13,8.23,8.23,8.23
147.78,15.62,7.42,15.62,7.43,-7.43,-7.79,-7.10,8.18,8.18,8.19
149.26,15.62,7.47,15.62,7.48,-7.48,-7.86,-7.08,8.14,8.13,8.15
150.75,15.62,7.54,15.62,7.53,-7.53,-7.92,-7.05,8.09,8.09,8.08
152.26,15.62,7.58,15.62,7.58,-7.58,-7.98,-7.03,8.04,8.04,8.04
153.78,15.62,7.62,15.62,7.63,-7.63,-8.04,-7.01,7.99,7.99,7.99
155.32,15.62,7.69,15.62,7.68,-7.68,-8.10,-6.99,7.93,7.94,7.93
156.88,15.62,7.73,15.63,7.74,-7.74,-8.15,-6.98,7.88,7.89,7.89
158.44,15.62,7.78,15.63,7.79,-7.79,-8.21,-6.97,7.82,7.84,7.84
160.03,15.62,7.84,15.63,7.85,-7.85,-8.26,-6.96,7.77,7.78,7.78
161.63,15.62,7.90,15.63,7.90,-7.90,-8.31,-6.96,7.72,7.73,7.72
163.24,15.63,7.95,15.63,7.95,-7.95,-8.36,-6.96,7.68,7.68,7.67
164.88,15.64,8.01,15.62,8.00,-8.00,-8.41,-6.96,7.64,7.62,7.63
166.53,15.64,8.07,15.62,8.05,-8.05,-8.45,-6.97,7.59,7.57,7.57
168.19,15.63,8.11,15.61,8.09,-8.09,-8.49,-6.99,7.54,7.52,7.52
169.87,15.61,8.15,15.59,8.13,-8.13,-8.53,-7.01,7.47,7.46,7.46
171.57,15.59,8.18,15.58,8.18,-8.18,-8.57,-7.04,7.41,7.40,7.41
173.29,15.58,8.23,15.56,8.22,-8.22,-8.60,-7.07,7.36,7.35,7.35
175.02,15.54,8.24,15.54,8.25,-8.25,-8.64,-7.10,7.28,7.29,7.30
176.77,15.50,8.27,15.51,8.29,-8.29,-8.66,-7.14,7.21,7.23,7.23
178.54,15.48,8.31,15.49,8.32,-8.32,-8.69,-7.19,7.16,7.17,7.17
180.32,15.45,8.34,15.46,8.35,-8.35,-8.71,-7.24,7.10,7.11,7.11
182.13,15.43,8.38,15.42,8.38,-8.38,-8.73,-7.30,7.05,7.05,7.05
183.95,15.40,8.41,15.39,8.41,-8.41,-8.75,-7.36,6.99,6.99,6.98
185.79,15.36,8.43,15.36,8.44,-8.44,-8.76,-7.43,6.92,6.92,6.93
187.65,15.33,8.48,15.33,8.47,-8.47,-8.77,-7.50,6.86,6.86,6.85
189.52,15.30,8.50,15.30,8.50,-8.50,-8.78,-7.58,6.80,6.80,6.80
191.42,15.26,8.51,15.27,8.53,-8.53,-8.79,-7.66,6.73,6.75,6.74
193.33,15.22,8.53,15.24,8.55,-8.55,-8.79,-7.75,6.66,6.69,6.69
195.27,15.20,8.56,15.21,8.58,-8.58,-8.79,-7.84,6.62,6.63,6.64
197.22,15.18,8.60,15.18,8.60,-8.60,-8.78,-7.94,6.58,6.58,6.58
199.19,15.16,8.64,15.14,8.62,-8.62,-8.77,-8.04,6.54,6.52,6.52
201.18,15.13,8.66,15.11,8.64,-8.64,-8.76,-8.14,6.49,6.47,6.47
203.19,15.10,8.67,15.07,8.65,-8.65,-8.75,-8.25,6.45,6.42,6.43
205.23,15.05,8.68,15.04,8.67,-8.67,-8.73,-8.36,6.38,6.37,6.37
207.28,15.00,8.66,15.00,8.68,-8.68,-8.71,-8.48,6.32,6.32,6.34
209.35,14.95,8.67,14.96,8.68,-8.68,-8.68,-8.59,6.27,6.28,6.28
211.44,14.91,8.69,14.92,8.69,-8.69,-8.65,-8.71,6.22,6.23,6.22
213.56,14.87,8.68,14.88,8.69,-8.69,-8.62,-8.82,6.18,6.19,6.19
215.69,14.82,8.66,14.83,8.68,-8.68,-8.59,-8.94,6.14,6.15,6.16
217.85,14.77,8.65,14.78,8.67,-8.67,-8.55,-9.05,6.10,6.11,6.11
220.03,14.74,8.67,14.73,8.66,-8.66,-8.51,-9.17,6.08,6.08,6.07
222.23,14.71,8.67,14.68,8.64,-8.64,-8.47,-9.27,6.07,6.04,6.04
224.45,14.65,8.64,14.64,8.62,-8.62,-8.42,-9.38,6.03,6.01,6.01
226.70,14.60,8.61,14.59,8.60,-8.60,-8.37,-9.47,6.00,5.98,5.99
228.96,14.53,8.57,14.54,8.58,-8.58,-8.32,-9.56,5.95,5.96,5.95
231.25,14.48,8.54,14.49,8.55,-8.55,-8.27,-9.64,5.93,5.94,5.94
233.57,14.43,8.51,14.44,8.52,-8.52,-8.21,-9.71,5.91,5.92,5.92
235.90,14.37,8.47,14.39,8.48,-8.48,-8.15,-9.76,5.88,5.90,5.90
238.26,14.34,8.45,14.34,8.45,-8.45,-8.09,-9.81,5.89,5.89,5.89
240.64,14.29,8.41,14.29,8.41,-8.41,-8.03,-9.83,5.88,5.88,5.88
243.05,14.25,8.37,14.23,8.36,-8.36,-7.96,-9.84,5.89,5.87,5.88
245.48,14.19,8.32,14.18,8.31,-8.31,-7.90,-9.84,5.87,5.87,5.86
247.93,14.11,8.24,14.13,8.26,-8.26,-7.83,-9.81,5.84,5.86,5.87
250.41,14.07,8.21,14.08,8.21,-8.21,-7.75,-9.77,5.86,5.86,5.86
252.92,14.01,8.14,14.02,8.16,-8.16,-7.68,-9.71,5.85,5.87,5.87
255.45,13.98,8.10,13.97,8.10,-8.10,-7.60,-9.63,5.88,5.87,5.88
258.00,13.93,8.05,13.91,8.04,-8.04,-7.53,-9.53,5.89,5.88,5.88
260.58,13.86,7.98,13.85,7.97,-7.97,-7.45,-9.42,5.89,5.88,5.88
263.19,13.80,7.91,13.79,7.90,-7.90,-7.36,-9.29,5.90,5.89,5.89
265.82,13.72,7.82,13.73,7.82,-7.82,-7.28,-9.14,5.89,5.90,5.90
268.48,13.66,7.74,13.66,7.75,-7.75,-7.20,-8.99,5.91,5.91,5.92
271.16,13.60,7.67,13.59,7.67,-7.67,-7.11,-8.81,5.93,5.93,5.93
273.87,13.51,7.57,13.52,7.58,-7.58,-7.03,-8.63,5.93,5.94,5.93
276.61,13.45,7.49,13.44,7.49,-7.49,-6.94,-8.44,5.95,5.95,5.96
279.38,13.37,7.41,13.36,7.40,-7.40,-6.85,-8.24,5.97,5.96,5.96
282.17,13.28,7.30,13.27,7.30,-7.30,-6.76,-8.03,5.98,5.97,5.98
284.99,13.21,7.22,13.18,7.20,-7.20,-6.67,-7.82,6.01,5.99,5.99
287.84,13.10,7.10,13.09,7.09,-7.09,-6.57,-7.60,6.00,6.00,5.99
290.72,13.00,6.99,13.00,6.99,-6.99,-6.48,-7.37,6.01,6.01,6.01
293.63,12.90,6.87,12.90,6.88,-6.88,-6.38,-7.15,6.02,6.02,6.02
296.57,12.80,6.76,12.80,6.76,-6.76,-6.29,-6.92,6.03,6.04,6.04
299.53,12.69,6.64,12.70,6.65,-6.65,-6.19,-6.69,6.04,6.05,6.04
302.53,12.59,6.54,12.59,6.53,-6.53,-6.09,-6.46,6.06,6.06,6.05
305.55,12.48,6.40,12.48,6.41,-6.41,-6.00,-6.23,6.07,6.07,6.07
308.61,12.37,6.29,12.37,6.29,-6.29,-5.90,-6.01,6.07,6.08,6.08
311.69,12.25,6.16,12.26,6.17,-6.17,-5.80,-5.78,6.07,6.09,6.09
314.81,12.16,6.05,12.15,6.06,-6.06,-5.70,-5.55,6.10,6.10,6.11
317.96,12.05,5.94,12.04,5.94,-5.94,-5.59,-5.33,6.11,6.11,6.11
321.14,11.93,5.81,11.93,5.82,-5.82,-5.49,-5.10,6.11,6.11,6.11
324.35,11.81,5.70,11.82,5.70,-5.70,-5.39,-4.88,6.11,6.12,6.11
327.59,11.69,5.56,11.70,5.58,-5.58,-5.29,-4.66,6.11,6.12,6.13
330.87,11.59,5.46,11.59,5.46,-5.46,-5.18,-4.45,6.13,6.13,6.12
334.18,11.47,5.35,11.47,5.34,-5.34,-5.08,-4.23,6.13,6.13,6.12
337.52,11.35,5.22,11.35,5.22,-5.22,-4.97,-4.02,6.13,6.13,6.13
340.90,11.24,5.10,11.22,5.09,-5.09,-4.86,-3.81,6.15,6.13,6.14
344.30,11.09,4.96,11.10,4.97,-4.97,-4.76,-3.60,6.12,6.13,6.13
347.75,10.98,4.85,10.96,4.84,-4.84,-4.65,-3.39,6.14,6.13,6.13
351.23,10.84,4.71,10.83,4.70,-4.70,-4.54,-3.19,6.14,6.12,6.13
354.74,10.71,4.58,10.69,4.57,-4.57,-4.43,-2.99,6.14,6.12,6.12
358.28,10.56,4.45,10.55,4.43,-4.43,-4.32,-2.79,6.12,6.12,6.11
361.87,10.41,4.30,10.41,4.30,-4.30,-4.21,-2.59,6.11,6.11,6.11
365.49,10.25,4.14,10.26,4.16,-4.16,-4.10,-2.40,6.09,6.11,6.11
369.14,10.11,4.01,10.11,4.01,-4.01,-3.98,-2.20,6.09,6.10,6.10
372.83,9.97,3.87,9.96,3.87,-3.87,-3.87,-2.01,6.10,6.09,6.09
376.56,9.80,3.72,9.81,3.73,-3.73,-3.76,-1.82,6.07,6.08,6.08
380.33,9.64,3.56,9.66,3.58,-3.58,-3.64,-1.64,6.06,6.07,6.08
384.13,9.48,3.41,9.50,3.43,-3.43,-3.53,-1.45,6.04,6.07,6.07
387.97,9.35,3.29,9.34,3.28,-3.28,-3.41,-1.27,6.06,6.06,6.06
391.85,9.20,3.15,9.19,3.13,-3.13,-3.29,-1.08,6.06,6.05,6.04
395.77,9.05,3.00,9.03,2.98,-2.98,-3.17,-0.90,6.07,6.05,6.05
399.73,8.88,2.84,8.87,2.83,-2.83,-3.05,-0.73,6.05,6.04,6.04
403.72,8.71,2.68,8.71,2.67,-2.67,-2.93,-0.55,6.03,6.03,6.03
407.76,8.54,2.52,8.54,2.52,-2.52,-2.80,-0.38,6.02,6.03,6.02
411.84,8.38,2.35,8.38,2.36,-2.36,-2.68,-0.20,6.02,6.02,6.03
415.96,8.20,2.18,8.21,2.19,-2.19,-2.55,-0.03,6.00,6.02,6.02
420.12,8.04,2.02,8.04,2.03,-2.03,-2.43,0.13,6.01,6.01,6.01
424.32,7.87,1.86,7.87,1.86,-1.86,-2.30,0.30,6.00,6.01,6.01
428.56,7.72,1.72,7.70,1.70,-1.70,-2.17,0.46,6.02,6.01,6.00
432.85,7.53,1.53,7.53,1.53,-1.53,-2.04,0.62,6.00,6.00,6.00
437.18,7.34,1.34,7.36,1.35,-1.35,-1.90,0.78,5.98,6.00,6.00
441.55,7.19,1.18,7.19,1.18,-1.18,-1.77,0.93,6.00,6.00,6.01
445.96,7.01,1.00,7.01,1.01,-1.01,-1.63,1.08,6.00,6.00,6.01
450.42,6.82,0.82,6.83,0.83,-0.83,-1.49,1.22,5.99,6.01,6.00
454.93,6.67,0.66,6.65,0.65,-0.65,-1.34,1.36,6.02,6.01,6.01
459.48,6.47,0.46,6.47,0.46,-0.46,-1.20,1.50,6.01,6.01,6.00
464.07,6.30,0.28,6.29,0.28,-0.28,-1.05,1.63,6.02,6.01,6.01
468.71,6.14,0.12,6.11,0.09,-0.09,-0.90,1.76,6.05,6.02,6.02
