frequency,raw,error,smoothed,error_smoothed,equalization,parametric_eq,fixed_band_eq,equalized_raw,equalized_smoothed,target
20.00,-11.69,-17.52,-11.69,-17.55,17.55,16.35,7.40,5.86,5.86,5.84
20.20,-11.59,-17.46,-11.59,-17.48,17.48,16.46,7.56,5.89,5.89,5.88
20.40,-11.48,-17.40,-11.49,-17.41,17.41,16.56,7.73,5.92,5.92,5.92
20.61,-11.39,-17.33,-11.38,-17.34,17.34,16.64,7.90,5.95,5.95,5.95
20.81,-11.28,-17.27,-11.28,-17.26,17.26,16.72,8.07,5.98,5.98,5.99
21.02,-11.19,-17.21,-11.18,-17.18,17.18,16.78,8.25,6.00,6.00,6.03
21.23,-11.09,-17.13,-11.08,-17.11,17.11,16.83,8.43,6.02,6.03,6.05
21.44,-10.97,-17.04,-10.98,-17.03,17.03,16.87,8.62,6.05,6.05,6.07
21.66,-10.88,-16.96,-10.88,-16.95,16.95,16.90,8.82,6.07,6.07,6.08
21.87,-10.77,-16.87,-10.77,-16.86,16.86,16.91,9.01,6.09,6.09,6.09
22.09,-10.67,-16.79,-10.67,-16.78,16.78,16.91,9.22,6.10,6.11,6.11
22.31,-10.56,-16.69,-10.57,-16.69,16.69,16.90,9.43,6.13,6.12,6.12
22.54,-10.47,-16.60,-10.47,-16.60,16.60,16.87,9.64,6.13,6.13,6.13
22.76,-10.36,-16.51,-10.36,-16.51,16.51,16.83,9.86,6.14,6.14,6.14
22.99,-10.26,-16.40,-10.26,-16.41,16.41,16.78,10.09,6.16,6.15,6.14
23.22,-10.16,-16.31,-10.16,-16.32,16.32,16.72,10.32,6.16,6.16,6.15
23.45,-10.05,-16.21,-10.05,-16.22,16.22,16.65,10.56,6.17,6.17,6.16
23.69,-9.96,-16.13,-9.95,-16.13,16.13,16.57,10.80,6.17,6.18,6.17
23.92,-9.84,-16.02,-9.85,-16.03,16.03,16.48,11.05,6.19,6.19,6.18
24.16,-9.74,-15.94,-9.74,-15.94,15.94,16.38,11.31,6.19,6.19,6.20
24.40,-9.63,-15.85,-9.64,-15.84,15.84,16.28,11.57,6.21,6.20,6.22
24.65,-9.54,-15.75,-9.53,-15.75,15.75,16.17,11.84,6.21,6.21,6.22
24.89,-9.42,-15.65,-9.43,-15.65,15.65,16.05,12.12,6.23,6.22,6.22
25.14,-9.32,-15.56,-9.32,-15.56,15.56,15.93,12.41,6.23,6.23,6.23
25.39,-9.21,-15.46,-9.22,-15.46,15.46,15.80,12.70,6.25,6.24,6.24
25.65,-9.12,-15.38,-9.11,-15.37,15.37,15.67,12.99,6.25,6.25,6.26
25.91,-9.01,-15.27,-9.01,-15.27,15.27,15.54,13.30,6.26,6.26,6.26
26.16,-8.89,-15.16,-8.90,-15.17,15.17,15.40,13.61,6.28,6.27,6.27
26.43,-8.80,-15.07,-8.79,-15.08,15.08,15.27,13.92,6.28,6.28,6.28
26.69,-8.69,-14.97,-8.69,-14.98,14.98,15.13,14.24,6.29,6.29,6.29
26.96,-8.59,-14.89,-8.58,-14.88,14.88,14.99,14.57,6.29,6.30,6.30
27.23,-8.48,-14.79,-8.47,-14.78,14.78,14.85,14.90,6.31,6.31,6.31
27.50,-8.37,-14.69,-8.37,-14.68,14.68,14.71,15.22,6.32,6.32,6.32
27.77,-8.26,-14.58,-8.26,-14.59,14.59,14.57,15.55,6.32,6.33,6.32
28.05,-8.15,-14.49,-8.16,-14.49,14.49,14.44,15.87,6.33,6.33,6.34
28.33,-8.05,-14.39,-8.05,-14.39,14.39,14.30,16.19,6.34,6.34,6.34
28.62,-7.95,-14.29,-7.95,-14.29,14.29,14.16,16.50,6.35,6.35,6.35
28.90,-7.84,-14.20,-7.84,-14.20,14.20,14.03,16.79,6.36,6.36,6.35
29.19,-7.74,-14.09,-7.74,-14.11,14.11,13.90,17.06,6.37,6.36,6.35
29.48,-7.63,-14.02,-7.64,-14.01,14.01,13.77,17.32,6.38,6.37,6.38
29.78,-7.54,-13.91,-7.54,-13.92,13.92,13.64,17.54,6.38,6.38,6.38
30.08,-7.44,-13.82,-7.44,-13.82,13.82,13.51,17.73,6.39,6.38,6.39
30.38,-7.34,-13.72,-7.34,-13.73,13.73,13.39,17.88,6.40,6.39,6.38
30.68,-7.25,-13.65,-7.25,-13.64,13.64,13.27,17.99,6.40,6.40,6.40
30.99,-7.15,-13.55,-7.15,-13.55,13.55,13.15,18.06,6.41,6.40,6.40
31.30,-7.06,-13.46,-7.05,-13.46,13.46,13.03,18.08,6.41,6.41,6.41
31.61,-6.97,-13.38,-6.96,-13.37,13.37,12.92,18.05,6.41,6.42,6.41
31.93,-6.87,-13.29,-6.86,-13.28,13.28,12.81,17.98,6.42,6.42,6.42
32.24,-6.76,-13.18,-6.76,-13.19,13.19,12.70,17.87,6.43,6.43,6.42
32.57,-6.67,-13.10,-6.66,-13.10,13.10,12.60,17.72,6.43,6.44,6.44
32.89,-6.56,-13.01,-6.56,-13.01,13.01,12.49,17.54,6.44,6.44,6.44
33.22,-6.46,-12.92,-6.46,-12.92,12.92,12.39,17.33,6.45,6.45,6.45
33.55,-6.36,-12.82,-6.36,-12.82,12.82,12.30,17.09,6.46,6.46,6.46
33.89,-6.27,-12.73,-6.26,-12.72,12.72,12.20,16.84,6.46,6.46,6.46
34.23,-6.17,-12.64,-6.16,-12.63,12.63,12.11,16.58,6.46,6.47,6.47
34.57,-6.06,-12.53,-6.06,-12.53,12.53,12.02,16.30,6.47,6.47,6.48
34.92,-5.96,-12.43,-5.95,-12.43,12.43,11.94,16.02,6.47,6.48,6.47
35.27,-5.85,-12.33,-5.85,-12.33,12.33,11.86,15.74,6.48,6.48,6.48
35.62,-5.75,-12.23,-5.74,-12.23,12.23,11.78,15.46,6.48,6.48,6.49
35.97,-5.64,-12.13,-5.64,-12.13,12.13,11.70,15.18,6.48,6.49,6.48
36.33,-5.54,-12.03,-5.54,-12.02,12.02,11.63,14.90,6.48,6.49,6.49
36.70,-5.44,-11.92,-5.43,-11.92,11.92,11.56,14.62,6.49,6.49,6.48
37.06,-5.33,-11.82,-5.33,-11.82,11.82,11.49,14.36,6.49,6.49,6.49
37.43,-5.23,-11.73,-5.23,-11.72,11.72,11.43,14.09,6.49,6.49,6.49
37.81,-5.14,-11.62,-5.14,-11.62,11.62,11.36,13.84,6.48,6.48,6.49
38.19,-5.04,-11.52,-5.04,-11.52,11.52,11.30,13.59,6.49,6.48,6.48
38.57,-4.95,-11.42,-4.95,-11.43,11.43,11.25,13.35,6.48,6.48,6.48
38.95,-4.85,-11.33,-4.86,-11.34,11.34,11.19,13.12,6.48,6.47,6.47
39.34,-4.77,-11.24,-4.78,-11.25,11.25,11.14,12.89,6.48,6.47,6.47
39.74,-4.70,-11.16,-4.70,-11.17,11.17,11.09,12.68,6.47,6.47,6.46
40.14,-4.63,-11.09,-4.62,-11.09,11.09,11.04,12.47,6.46,6.47,6.47
40.54,-4.55,-11.00,-4.55,-11.01,11.01,11.00,12.27,6.46,6.46,6.46
40.94,-4.48,-10.93,-4.48,-10.94,10.94,10.95,12.08,6.46,6.46,6.45
41.35,-4.42,-10.86,-4.42,-10.87,10.87,10.91,11.89,6.45,6.45,6.45
41.76,-4.35,-10.80,-4.36,-10.80,10.80,10.87,11.71,6.45,6.45,6.45
42.18,-4.30,-10.76,-4.30,-10.74,10.74,10.84,11.54,6.44,6.44,6.45
42.60,-4.24,-10.69,-4.25,-10.69,10.69,10.80,11.38,6.44,6.44,6.44
43.03,-4.20,-10.64,-4.20,-10.63,10.63,10.76,11.22,6.44,6.43,6.44
43.46,-4.15,-10.58,-4.15,-10.58,10.58,10.73,11.08,6.44,6.43,6.44
43.90,-4.11,-10.52,-4.11,-10.54,10.54,10.70,10.93,6.43,6.43,6.42
44.33,-4.08,-10.49,-4.07,-10.49,10.49,10.67,10.80,6.42,6.42,6.42
44.78,-4.05,-10.45,-4.04,-10.45,10.45,10.63,10.67,6.41,6.42,6.41
45.23,-4.01,-10.40,-4.00,-10.41,10.41,10.60,10.55,6.41,6.41,6.40
45.68,-3.98,-10.37,-3.97,-10.38,10.38,10.57,10.43,6.40,6.40,6.40
46.13,-3.94,-10.32,-3.94,-10.34,10.34,10.54,10.33,6.40,6.40,6.39
46.60,-3.91,-10.30,-3.91,-10.30,10.30,10.51,10.22,6.40,6.39,6.40
47.06,-3.89,-10.27,-3.89,-10.27,10.27,10.48,10.12,6.38,6.38,6.39
47.53,-3.86,-10.23,-3.86,-10.23,10.23,10.45,10.03,6.38,6.37,6.38
48.01,-3.84,-10.22,-3.84,-10.20,10.20,10.41,9.95,6.36,6.36,6.38
48.49,-3.82,-10.18,-3.81,-10.17,10.17,10.38,9.86,6.35,6.35,6.36
48.97,-3.79,-10.12,-3.79,-10.13,10.13,10.34,9.79,6.34,6.34,6.34
49.46,-3.77,-10.09,-3.76,-10.09,10.09,10.30,9.72,6.32,6.33,6.32
49.96,-3.74,-10.04,-3.74,-10.05,10.05,10.26,9.65,6.31,6.31,6.30
50.46,-3.72,-10.01,-3.71,-10.00,10.00,10.22,9.59,6.29,6.29,6.30
50.96,-3.69,-9.97,-3.68,-9.95,9.95,10.17,9.53,6.27,6.28,6.28
51.47,-3.66,-9.90,-3.65,-9.90,9.90,10.12,9.47,6.25,6.26,6.25
51.99,-3.62,-9.85,-3.61,-9.85,9.85,10.07,9.42,6.23,6.24,6.23
52.51,-3.58,-9.80,-3.57,-9.79,9.79,10.01,9.36,6.21,6.22,6.22
53.03,-3.55,-9.74,-3.53,-9.72,9.72,9.95,9.32,6.18,6.19,6.20
53.56,-3.49,-9.66,-3.48,-9.65,9.65,9.89,9.27,6.17,6.17,6.18
54.10,-3.44,-9.59,-3.44,-9.59,9.59,9.83,9.22,6.15,6.15,6.15
54.64,-3.39,-9.52,-3.39,-9.51,9.51,9.75,9.18,6.13,6.13,6.13
55.18,-3.34,-9.44,-3.33,-9.44,9.44,9.68,9.13,6.10,6.11,6.10
55.74,-3.29,-9.36,-3.28,-9.36,9.36,9.60,9.09,6.08,6.08,6.07
56.29,-3.23,-9.29,-3.23,-9.28,9.28,9.52,9.04,6.06,6.06,6.06
56.86,-3.17,-9.19,-3.17,-9.20,9.20,9.43,9.00,6.04,6.03,6.03
57.42,-3.10,-9.10,-3.11,-9.12,9.12,9.34,8.95,6.02,6.01,6.00
58.00,-3.05,-9.02,-3.06,-9.04,9.04,9.25,8.90,5.99,5.98,5.97
58.58,-3.00,-8.95,-3.00,-8.95,8.95,9.15,8.85,5.96,5.95,5.95
59.16,-2.94,-8.87,-2.95,-8.87,8.87,9.05,8.79,5.92,5.92,5.93
59.76,-2.90,-8.80,-2.89,-8.78,8.78,8.95,8.73,5.88,5.89,5.90
60.35,-2.85,-8.71,-2.84,-8.69,8.69,8.84,8.67,5.84,5.85,5.86
60.96,-2.79,-8.61,-2.78,-8.60,8.60,8.73,8.60,5.81,5.82,5.83
61.57,-2.73,-8.51,-2.73,-8.51,8.51,8.62,8.53,5.78,5.78,5.78
62.18,-2.68,-8.41,-2.68,-8.42,8.42,8.50,8.45,5.74,5.74,5.73
62.80,-2.63,-8.33,-2.63,-8.33,8.33,8.39,8.37,5.70,5.70,5.70
63.43,-2.58,-8.23,-2.58,-8.24,8.24,8.27,8.28,5.66,5.66,5.65
64.07,-2.53,-8.14,-2.52,-8.14,8.14,8.15,8.19,5.62,5.62,5.61
64.71,-2.48,-8.05,-2.47,-8.05,8.05,8.02,8.09,5.57,5.58,5.57
65.35,-2.42,-7.94,-2.42,-7.95,7.95,7.90,7.99,5.54,5.53,5.53
66.01,-2.37,-7.85,-2.37,-7.86,7.86,7.77,7.89,5.49,5.49,5.48
66.67,-2.32,-7.76,-2.32,-7.76,7.76,7.65,7.78,5.45,5.44,5.45
67.33,-2.28,-7.68,-2.27,-7.66,7.66,7.52,7.67,5.39,5.40,5.40
68.01,-2.23,-7.58,-2.22,-7.57,7.57,7.39,7.55,5.34,5.35,5.36
68.69,-2.17,-7.48,-2.16,-7.47,7.47,7.27,7.43,5.31,5.31,5.31
69.37,-2.11,-7.37,-2.11,-7.37,7.37,7.14,7.31,5.27,5.26,5.26
70.07,-2.06,-7.27,-2.05,-7.27,7.27,7.01,7.19,5.21,5.22,5.21
70.77,-2.01,-7.18,-2.00,-7.17,7.17,6.89,7.06,5.16,5.17,5.17
71.48,-1.95,-7.08,-1.94,-7.07,7.07,6.76,6.94,5.12,5.13,5.13
72.19,-1.89,-6.96,-1.88,-6.97,6.97,6.63,6.81,5.08,5.08,5.08
72.91,-1.83,-6.86,-1.82,-6.86,6.86,6.51,6.68,5.04,5.04,5.04
73.64,-1.76,-6.75,-1.76,-6.76,6.76,6.39,6.56,5.00,5.00,4.99
74.38,-1.70,-6.65,-1.70,-6.65,6.65,6.26,6.43,4.96,4.95,4.96
75.12,-1.65,-6.56,-1.64,-6.55,6.55,6.14,6.30,4.91,4.91,4.91
75.87,-1.58,-6.45,-1.57,-6.45,6.45,6.02,6.18,4.87,4.87,4.87
76.63,-1.52,-6.35,-1.51,-6.35,6.35,5.90,6.05,4.83,4.84,4.83
77.40,-1.46,-6.25,-1.45,-6.24,6.24,5.78,5.93,4.79,4.80,4.80
78.17,-1.40,-6.15,-1.38,-6.14,6.14,5.67,5.81,4.75,4.76,4.76
78.95,-1.32,-6.05,-1.32,-6.04,6.04,5.55,5.69,4.72,4.73,4.72
79.74,-1.25,-5.95,-1.26,-5.95,5.95,5.44,5.57,4.69,4.69,4.69
80.54,-1.19,-5.85,-1.20,-5.85,5.85,5.33,5.46,4.67,4.66,4.66
81.35,-1.13,-5.75,-1.14,-5.76,5.76,5.22,5.34,4.64,4.62,4.63
82.16,-1.07,-5.66,-1.08,-5.67,5.67,5.11,5.23,4.61,4.59,4.59
82.98,-1.02,-5.58,-1.02,-5.59,5.59,5.00,5.13,4.57,4.56,4.57
83.81,-0.97,-5.49,-0.97,-5.50,5.50,4.90,5.02,4.54,4.53,4.53
84.65,-0.92,-5.41,-0.92,-5.42,5.42,4.79,4.92,4.51,4.50,4.49
85.50,-0.88,-5.35,-0.87,-5.34,5.34,4.69,4.82,4.47,4.47,4.47
86.35,-0.84,-5.28,-0.82,-5.27,5.27,4.59,4.72,4.43,4.44,4.45
87.22,-0.80,-5.21,-0.78,-5.20,5.20,4.49,4.63,4.40,4.42,4.42
88.09,-0.74,-5.12,-0.74,-5.13,5.13,4.40,4.54,4.40,4.39,4.38
88.97,-0.69,-5.05,-0.70,-5.06,5.06,4.30,4.45,4.38,4.36,4.36
89.86,-0.66,-5.00,-0.67,-5.00,5.00,4.21,4.37,4.34,4.33,4.34
90.76,-0.62,-4.91,-0.63,-4.93,4.93,4.11,4.28,4.32,4.31,4.30
91.66,-0.59,-4.86,-0.59,-4.87,4.87,4.02,4.20,4.28,4.28,4.28
92.58,-0.56,-4.80,-0.55,-4.80,4.80,3.94,4.13,4.24,4.25,4.24
93.51,-0.53,-4.75,-0.51,-4.73,4.73,3.85,4.05,4.20,4.22,4.23
94.44,-0.50,-4.69,-0.47,-4.66,4.66,3.76,3.98,4.17,4.19,4.19
95.39,-0.46,-4.62,-0.43,-4.59,4.59,3.68,3.91,4.13,4.16,4.17
96.34,-0.42,-4.54,-0.40,-4.52,4.52,3.59,3.84,4.11,4.12,4.12
97.30,-0.37,-4.45,-0.36,-4.45,4.45,3.51,3.78,4.09,4.09,4.09
98.28,-0.33,-4.38,-0.33,-4.39,4.39,3.43,3.72,4.06,4.05,4.05
99.26,-0.29,-4.30,-0.30,-4.32,4.32,3.36,3.65,4.03,4.02,4.01
100.25,-0.24,-4.21,-0.27,-4.24,4.24,3.28,3.60,4.01,3.98,3.98
101.25,-0.20,-4.13,-0.23,-4.17,4.17,3.20,3.54,3.98,3.94,3.94
102.27,-0.19,-4.08,-0.20,-4.10,4.10,3.13,3.48,3.91,3.89,3.89
103.29,-0.18,-4.02,-0.17,-4.02,4.02,3.06,3.43,3.84,3.85,3.84
104.32,-0.16,-3.96,-0.14,-3.94,3.94,2.98,3.38,3.79,3.80,3.81
105.37,-0.14,-3.89,-0.11,-3.86,3.86,2.91,3.33,3.73,3.75,3.76
106.42,-0.12,-3.82,-0.08,-3.78,3.78,2.84,3.28,3.67,3.70,3.70
107.48,-0.08,-3.73,-0.06,-3.70,3.70,2.78,3.23,3.63,3.64,3.65
108.56,-0.04,-3.62,-0.03,-3.62,3.62,2.71,3.18,3.58,3.58,3.58
109.64,0.00,-3.52,-0.01,-3.53,3.53,2.64,3.14,3.54,3.52,3.53
110.74,0.02,-3.45,0.02,-3.44,3.44,2.58,3.09,3.47,3.46,3.47
111.85,0.06,-3.34,0.05,-3.35,3.35,2.51,3.05,3.41,3.40,3.40
112.97,0.08,-3.24,0.07,-3.25,3.25,2.45,3.00,3.34,3.33,3.33
114.10,0.11,-3.15,0.11,-3.16,3.16,2.39,2.96,3.27,3.26,3.27
115.24,0.13,-3.06,0.14,-3.06,3.06,2.33,2.91,3.19,3.19,3.19
116.39,0.15,-2.96,0.17,-2.96,2.96,2.27,2.86,3.11,3.13,3.12
117.55,0.17,-2.88,0.20,-2.86,2.86,2.21,2.82,3.04,3.06,3.05
118.73,0.21,-2.76,0.22,-2.76,2.76,2.15,2.77,2.98,2.99,2.98
119.92,0.25,-2.67,0.25,-2.67,2.67,2.09,2.72,2.92,2.92,2.92
121.12,0.29,-2.55,0.28,-2.57,2.57,2.04,2.68,2.87,2.86,2.85
122.33,0.31,-2.47,0.31,-2.48,2.48,1.98,2.63,2.79,2.79,2.79
123.55,0.34,-2.39,0.35,-2.38,2.38,1.93,2.58,2.72,2.73,2.73
124.79,0.37,-2.30,0.38,-2.29,2.29,1.87,2.52,2.66,2.67,2.67
126.03,0.40,-2.20,0.41,-2.20,2.20,1.82,2.47,2.60,2.61,2.61
127.29,0.42,-2.12,0.44,-2.11,2.11,1.76,2.42,2.53,2.55,2.55
128.57,0.45,-2.02,0.47,-2.02,2.02,1.71,2.36,2.48,2.49,2.48
129.85,0.49,-1.93,0.49,-1.94,1.94,1.66,2.31,2.44,2.43,2.43
131.15,0.53,-1.84,0.51,-1.86,1.86,1.61,2.25,2.40,2.38,2.37
132.46,0.55,-1.77,0.53,-1.79,1.79,1.56,2.19,2.35,2.32,2.32
133.79,0.58,-1.69,0.55,-1.72,1.72,1.51,2.13,2.31,2.27,2.28
135.12,0.58,-1.64,0.56,-1.66,1.66,1.46,2.07,2.24,2.22,2.22
136.48,0.59,-1.58,0.58,-1.59,1.59,1.41,2.01,2.19,2.17,2.18
137.84,0.59,-1.53,0.59,-1.53,1.53,1.36,1.95,2.13,2.12,2.12
139.22,0.59,-1.47,0.61,-1.47,1.47,1.31,1.89,2.06,2.08,2.07
140.61,0.59,-1.42,0.62,-1.41,1.41,1.26,1.82,2.00,2.03,2.02
142.02,0.61,-1.37,0.64,-1.34,1.34,1.21,1.76,1.96,1.98,1.99
143.44,0.62,-1.32,0.66,-1.28,1.28,1.17,1.69,1.91,1.94,1.95
144.87,0.66,-1.23,0.68,-1.21,1.21,1.12,1.63,1.88,1.89,1.90
146.32,0.68,-1.16,0.70,-1.15,1.15,1.07,1.56,1.83,1.85,1.85
147.78,0.71,-1.10,0.73,-1.07,1.07,1.02,1.49,1.79,1.80,1.81
149.26,0.75,-1.01,0.76,-1.00,1.00,0.98,1.42,1.75,1.75,1.76
150.75,0.78,-0.91,0.78,-0.92,0.92,0.93,1.36,1.70,1.70,1.70
152.26,0.81,-0.84,0.81,-0.84,0.84,0.88,1.29,1.66,1.65,1.65
153.78,0.85,-0.76,0.84,-0.77,0.77,0.83,1.22,1.62,1.61,1.61
155.32,0.87,-0.67,0.86,-0.69,0.69,0.79,1.15,1.57,1.56,1.55
156.88,0.90,-0.60,0.88,-0.62,0.62,0.74,1.09,1.53,1.50,1.51
158.44,0.91,-0.54,0.90,-0.55,0.55,0.69,1.02,1.47,1.45,1.46
160.03,0.93,-0.46,0.91,-0.49,0.49,0.65,0.95,1.42,1.40,1.40
161.63,0.94,-0.39,0.92,-0.43,0.43,0.60,0.88,1.37,1.35,1.34
163.24,0.93,-0.36,0.93,-0.37,0.37,0.55,0.81,1.30,1.29,1.29
164.88,0.92,-0.32,0.93,-0.31,0.31,0.50,0.74,1.24,1.24,1.24
166.53,0.91,-0.27,0.93,-0.26,0.26,0.45,0.68,1.17,1.19,1.19
168.19,0.91,-0.22,0.93,-0.20,0.20,0.40,0.61,1.12,1.13,1.13
169.87,0.91,-0.16,0.93,-0.15,0.15,0.36,0.54,1.06,1.08,1.08
171.57,0.91,-0.11,0.92,-0.10,0.10,0.31,0.47,1.01,1.02,1.03
173.29,0.91,-0.05,0.92,-0.04,0.04,0.26,0.40,0.96,0.96,0.96
175.02,0.91,0.00,0.92,0.01,-0.01,0.21,0.33,0.90,0.90,0.91
176.77,0.91,0.07,0.91,0.07,-0.07,0.15,0.27,0.84,0.84,0.84
178.54,0.91,0.13,0.91,0.13,-0.13,0.10,0.20,0.79,0.78,0.78
180.32,0.91,0.19,0.91,0.19,-0.19,0.05,0.13,0.73,0.72,0.73
182.13,0.91,0.25,0.91,0.25,-0.25,-0.00,0.06,0.66,0.66,0.67
183.95,0.91,0.31,0.91,0.31,-0.31,-0.05,-0.01,0.60,0.60,0.60
185.79,0.91,0.37,0.91,0.37,-0.37,-0.11,-0.08,0.54,0.54,0.54
187.65,0.91,0.45,0.91,0.43,-0.43,-0.16,-0.15,0.48,0.48,0.47
189.52,0.91,0.50,0.91,0.49,-0.49,-0.22,-0.21,0.42,0.42,0.41
191.42,0.91,0.55,0.91,0.55,-0.55,-0.27,-0.28,0.36,0.36,0.36
193.33,0.91,0.61,0.91,0.61,-0.61,-0.33,-0.35,0.30,0.30,0.31
195.27,0.91,0.66,0.91,0.67,-0.67,-0.39,-0.42,0.25,0.25,0.26
197.22,0.91,0.72,0.91,0.72,-0.72,-0.44,-0.49,0.19,0.19,0.19
199.19,0.91,0.78,0.91,0.77,-0.77,-0.50,-0.55,0.14,0.14,0.13
201.18,0.91,0.83,0.91,0.83,-0.83,-0.56,-0.62,0.09,0.09,0.08
203.19,0.91,0.87,0.91,0.88,-0.88,-0.62,-0.69,0.04,0.04,0.04
205.23,0.91,0.93,0.91,0.93,-0.93,-0.68,-0.75,-0.01,-0.01,-0.02
207.28,0.91,0.96,0.91,0.98,-0.98,-0.74,-0.82,-0.06,-0.06,-0.05
209.35,0.91,1.02,0.91,1.02,-1.02,-0.79,-0.88,-0.11,-0.11,-0.10
211.44,0.91,1.07,0.91,1.07,-1.07,-0.85,-0.95,-0.15,-0.15,-0.16
213.56,0.91,1.11,0.91,1.11,-1.11,-0.91,-1.01,-0.19,-0.19,-0.20
215.69,0.91,1.14,0.91,1.15,-1.15,-0.97,-1.07,-0.23,-0.23,-0.22
217.85,0.91,1.18,0.91,1.19,-1.19,-1.03,-1.13,-0.27,-0.27,-0.27
220.03,0.91,1.23,0.91,1.22,-1.22,-1.08,-1.19,-0.31,-0.31,-0.31
222.23,0.91,1.26,0.91,1.25,-1.25,-1.14,-1.24,-0.34,-0.34,-0.35
224.45,0.91,1.29,0.91,1.28,-1.28,-1.19,-1.30,-0.37,-0.37,-0.37
226.70,0.91,1.31,0.91,1.31,-1.31,-1.24,-1.35,-0.40,-0.40,-0.40
228.96,0.91,1.34,0.91,1.34,-1.34,-1.29,-1.40,-0.42,-0.42,-0.43
231.25,0.91,1.36,0.91,1.36,-1.36,-1.33,-1.44,-0.45,-0.45,-0.44
233.57,0.91,1.38,0.91,1.38,-1.38,-1.38,-1.49,-0.46,-0.46,-0.46
235.90,0.91,1.40,0.91,1.39,-1.39,-1.42,-1.52,-0.48,-0.48,-0.49
238.26,0.91,1.41,0.91,1.41,-1.41,-1.45,-1.56,-0.49,-0.49,-0.50
240.64,0.91,1.42,0.91,1.42,-1.42,-1.49,-1.59,-0.50,-0.50,-0.51
243.05,0.91,1.42,0.91,1.43,-1.43,-1.52,-1.62,-0.51,-0.51,-0.51
245.48,0.91,1.43,0.91,1.43,-1.43,-1.54,-1.65,-0.52,-0.52,-0.52
247.93,0.91,1.43,0.91,1.43,-1.43,-1.57,-1.67,-0.52,-0.52,-0.52
250.41,0.91,1.44,0.91,1.43,-1.43,-1.58,-1.69,-0.52,-0.52,-0.53
252.92,0.91,1.43,0.91,1.43,-1.43,-1.60,-1.70,-0.52,-0.52,-0.52
255.45,0.91,1.42,0.91,1.43,-1.43,-1.61,-1.71,-0.51,-0.51,-0.51
258.00,0.91,1.42,0.91,1.42,-1.42,-1.61,-1.72,-0.51,-0.51,-0.50
260.58,0.91,1.42,0.91,1.41,-1.41,-1.61,-1.72,-0.50,-0.50,-0.50
263.19,0.91,1.40,0.91,1.40,-1.40,-1.61,-1.72,-0.49,-0.49,-0.49
265.82,0.91,1.40,0.91,1.39,-1.39,-1.61,-1.72,-0.48,-0.48,-0.49
268.48,0.91,1.38,0.91,1.38,-1.38,-1.60,-1.71,-0.47,-0.47,-0.46
271.16,0.91,1.37,0.91,1.37,-1.37,-1.59,-1.70,-0.46,-0.46,-0.45
273.87,0.91,1.36,0.91,1.36,-1.36,-1.57,-1.69,-0.45,-0.45,-0.45
276.61,0.91,1.34,0.91,1.35,-1.35,-1.55,-1.67,-0.43,-0.43,-0.43
279.38,0.91,1.34,0.91,1.34,-1.34,-1.53,-1.65,-0.42,-0.42,-0.42
282.17,0.91,1.32,0.91,1.32,-1.32,-1.51,-1.63,-0.41,-0.41,-0.41
284.99,0.91,1.31,0.91,1.31,-1.31,-1.49,-1.61,-0.40,-0.40,-0.39
287.84,0.91,1.30,0.91,1.30,-1.30,-1.46,-1.59,-0.38,-0.38,-0.39
290.72,0.91,1.29,0.91,1.29,-1.29,-1.44,-1.57,-0.37,-0.37,-0.37
293.63,0.91,1.27,0.91,1.27,-1.27,-1.41,-1.54,-0.36,-0.36,-0.36
296.57,0.91,1.26,0.91,1.26,-1.26,-1.38,-1.51,-0.35,-0.35,-0.34
299.53,0.91,1.25,0.91,1.25,-1.25,-1.36,-1.49,-0.34,-0.34,-0.34
302.53,0.91,1.25,0.91,1.24,-1.24,-1.33,-1.46,-0.32,-0.32,-0.33
305.55,0.91,1.22,0.91,1.23,-1.23,-1.30,-1.43,-0.31,-0.31,-0.31
308.61,0.91,1.22,0.91,1.22,-1.22,-1.27,-1.40,-0.30,-0.30,-0.30
311.69,0.91,1.21,0.91,1.21,-1.21,-1.24,-1.38,-0.29,-0.29,-0.30
314.81,0.91,1.19,0.91,1.20,-1.20,-1.22,-1.35,-0.29,-0.29,-0.27
317.96,0.91,1.19,0.91,1.19,-1.19,-1.19,-1.32,-0.28,-0.28,-0.27
321.14,0.91,1.18,0.91,1.19,-1.19,-1.17,-1.30,-0.27,-0.27,-0.27
324.35,0.91,1.19,0.91,1.18,-1.18,-1.14,-1.27,-0.26,-0.26,-0.27
327.59,0.91,1.17,0.91,1.18,-1.18,-1.12,-1.24,-0.26,-0.26,-0.26
330.87,0.91,1.17,0.91,1.17,-1.17,-1.09,-1.22,-0.26,-0.26,-0.26
334.18,0.91,1.18,0.91,1.17,-1.17,-1.07,-1.19,-0.25,-0.25,-0.26
337.52,0.91,1.17,0.91,1.17,-1.17,-1.05,-1.17,-0.25,-0.25,-0.25
340.90,0.91,1.16,0.91,1.17,-1.17,-1.03,-1.15,-0.25,-0.25,-0.25
344.30,0.91,1.17,0.91,1.17,-1.17,-1.01,-1.13,-0.25,-0.25,-0.25
347.75,0.91,1.17,0.92,1.17,-1.17,-0.99,-1.10,-0.26,-0.26,-0.25
351.23,0.91,1.17,0.92,1.18,-1.18,-0.97,-1.08,-0.26,-0.26,-0.26
354.74,0.91,1.17,0.92,1.18,-1.18,-0.95,-1.06,-0.27,-0.26,-0.26
358.28,0.91,1.19,0.92,1.19,-1.19,-0.94,-1.05,-0.28,-0.27,-0.27
361.87,0.91,1.19,0.93,1.20,-1.20,-0.92,-1.03,-0.29,-0.27,-0.27
365.49,0.91,1.19,0.93,1.21,-1.21,-0.91,-1.01,-0.29,-0.28,-0.28
369.14,0.92,1.21,0.93,1.22,-1.22,-0.90,-1.00,-0.29,-0.28,-0.29
372.83,0.93,1.22,0.93,1.22,-1.22,-0.88,-0.98,-0.29,-0.29,-0.29
376.56,0.93,1.24,0.93,1.23,-1.23,-0.87,-0.97,-0.29,-0.30,-0.30
380.33,0.93,1.24,0.92,1.23,-1.23,-0.86,-0.96,-0.29,-0.31,-0.30
384.13,0.92,1.24,0.91,1.23,-1.23,-0.85,-0.94,-0.30,-0.32,-0.32
387.97,0.91,1.24,0.90,1.22,-1.22,-0.84,-0.93,-0.31,-0.32,-0.33
391.85,0.90,1.24,0.88,1.21,-1.21,-0.83,-0.92,-0.31,-0.33,-0.34
395.77,0.87,1.21,0.86,1.20,-1.20,-0.82,-0.91,-0.32,-0.34,-0.33
399.73,0.84,1.19,0.84,1.18,-1.18,-0.81,-0.91,-0.34,-0.34,-0.34
403.72,0.81,1.17,0.81,1.16,-1.16,-0.81,-0.90,-0.35,-0.35,-0.35
407.76,0.78,1.15,0.78,1.14,-1.14,-0.80,-0.89,-0.35,-0.36,-0.36
411.84,0.74,1.10,0.75,1.11,-1.11,-0.79,-0.88,-0.37,-0.36,-0.36
415.96,0.71,1.08,0.72,1.09,-1.09,-0.79,-0.88,-0.37,-0.37,-0.37
420.12,0.68,1.05,0.69,1.06,-1.06,-0.78,-0.87,-0.38,-0.37,-0.37
424.32,0.65,1.02,0.66,1.04,-1.04,-0.78,-0.87,-0.38,-0.37,-0.37
428.56,0.62,1.01,0.64,1.02,-1.02,-0.77,-0.86,-0.39,-0.38,-0.38
432.85,0.60,0.99,0.62,1.00,-1.00,-0.77,-0.86,-0.40,-0.38,-0.38
437.18,0.58,0.97,0.61,0.98,-0.98,-0.77,-0.85,-0.40,-0.38,-0.38
441.55,0.57,0.95,0.59,0.97,-0.97,-0.76,-0.85,-0.40,-0.38,-0.37
445.96,0.57,0.95,0.58,0.96,-0.96,-0.76,-0.85,-0.39,-0.38,-0.38
450.42,0.57,0.96,0.58,0.96,-0.96,-0.76,-0.84,-0.38,-0.38,-0.39
454.93,0.58,0.96,0.58,0.95,-0.95,-0.76,-0.84,-0.37,-0.38,-0.38
459.48,0.58,0.96,0.58,0.95,-0.95,-0.75,-0.84,-0.37,-0.37,-0.38
464.07,0.59,0.96,0.59,0.95,-0.95,-0.75,-0.84,-0.36,-0.37,-0.37
468.71,0.59,0.95,0.59,0.96,-0.96,-0.75,-0.83,-0.36,-0.36,-0.36
473.40,0.59,0.96,0.60,0.96,-0.96,-0.75,-0.83,-0.36,-0.36,-0.36
