frequency,raw,error,smoothed,error_smoothed,equalization,parametric_eq,fixed_band_eq,equalized_raw,equalized_smoothed,target
20.00,-3.85,-9.42,-3.85,-9.44,9.44,9.19,3.11,5.59,5.59,5.57
20.20,-3.76,-9.37,-3.76,-9.38,9.38,9.15,3.20,5.62,5.62,5.61
20.40,-3.67,-9.31,-3.67,-9.32,9.32,9.10,3.29,5.65,5.65,5.65
20.61,-3.59,-9.27,-3.59,-9.26,9.26,9.05,3.38,5.67,5.68,5.67
20.81,-3.50,-9.21,-3.50,-9.20,9.20,9.00,3.47,5.70,5.70,5.71
21.02,-3.41,-9.16,-3.41,-9.14,9.14,8.94,3.57,5.73,5.73,5.75
21.23,-3.32,-9.09,-3.32,-9.07,9.07,8.88,3.67,5.75,5.75,5.77
21.44,-3.23,-9.02,-3.23,-9.00,9.00,8.82,3.77,5.78,5.78,5.79
21.66,-3.14,-8.95,-3.14,-8.94,8.94,8.76,3.88,5.80,5.80,5.81
21.87,-3.05,-8.87,-3.05,-8.86,8.86,8.69,3.99,5.82,5.82,5.82
22.09,-2.96,-8.80,-2.96,-8.79,8.79,8.62,4.10,5.83,5.83,5.84
22.31,-2.87,-8.72,-2.87,-8.72,8.72,8.55,4.22,5.85,5.85,5.85
22.54,-2.78,-8.64,-2.78,-8.64,8.64,8.47,4.33,5.86,5.86,5.86
22.76,-2.69,-8.56,-2.68,-8.55,8.55,8.39,4.45,5.87,5.87,5.87
22.99,-2.59,-8.46,-2.59,-8.47,8.47,8.31,4.58,5.88,5.88,5.87
23.22,-2.50,-8.38,-2.50,-8.39,8.39,8.23,4.70,5.89,5.89,5.88
23.45,-2.41,-8.30,-2.41,-8.30,8.30,8.15,4.83,5.89,5.90,5.89
23.69,-2.31,-8.21,-2.31,-8.22,8.22,8.07,4.97,5.91,5.90,5.90
23.92,-2.22,-8.12,-2.22,-8.13,8.13,7.98,5.10,5.92,5.91,5.91
24.16,-2.13,-8.05,-2.13,-8.05,8.05,7.89,5.24,5.92,5.92,5.92
24.40,-2.03,-7.97,-2.03,-7.96,7.96,7.80,5.38,5.94,5.93,5.94
24.65,-1.94,-7.88,-1.94,-7.88,7.88,7.71,5.52,5.94,5.94,5.94
24.89,-1.85,-7.80,-1.84,-7.80,7.80,7.62,5.66,5.95,5.95,5.95
25.14,-1.75,-7.71,-1.75,-7.71,7.71,7.53,5.81,5.96,5.96,5.96
25.39,-1.66,-7.63,-1.65,-7.63,7.63,7.44,5.95,5.97,5.97,5.97
25.65,-1.56,-7.55,-1.56,-7.54,7.54,7.34,6.10,5.98,5.98,5.99
25.91,-1.47,-7.46,-1.46,-7.46,7.46,7.25,6.24,5.99,5.99,5.99
26.16,-1.37,-7.36,-1.37,-7.37,7.37,7.16,6.39,6.00,6.00,6.00
26.43,-1.27,-7.28,-1.27,-7.28,7.28,7.06,6.54,6.01,6.01,6.00
26.69,-1.17,-7.18,-1.18,-7.19,7.19,6.96,6.68,6.02,6.02,6.01
26.96,-1.08,-7.11,-1.08,-7.10,7.10,6.87,6.82,6.02,6.03,6.03
27.23,-0.98,-7.02,-0.98,-7.02,7.02,6.77,6.96,6.04,6.04,6.04
27.50,-0.88,-6.93,-0.88,-6.93,6.93,6.67,7.09,6.05,6.04,6.05
27.77,-0.79,-6.84,-0.79,-6.84,6.84,6.58,7.22,6.05,6.05,6.05
28.05,-0.69,-6.76,-0.69,-6.75,6.75,6.48,7.35,6.06,6.06,6.07
28.33,-0.59,-6.65,-0.59,-6.66,6.66,6.38,7.46,6.07,6.07,6.07
28.62,-0.49,-6.56,-0.49,-6.56,6.56,6.28,7.57,6.07,6.08,6.07
28.90,-0.39,-6.47,-0.39,-6.47,6.47,6.18,7.67,6.08,6.08,6.08
29.19,-0.29,-6.37,-0.29,-6.38,6.38,6.09,7.76,6.09,6.09,6.08
29.48,-0.19,-6.30,-0.19,-6.29,6.29,5.99,7.83,6.10,6.10,6.11
29.78,-0.09,-6.20,-0.09,-6.19,6.19,5.89,7.89,6.10,6.10,6.11
30.08,0.01,-6.10,0.01,-6.10,6.10,5.79,7.94,6.11,6.11,6.11
30.38,0.11,-6.00,0.11,-6.00,6.00,5.69,7.98,6.11,6.12,6.11
30.68,0.21,-5.92,0.21,-5.91,5.91,5.60,8.00,6.12,6.12,6.13
30.99,0.32,-5.81,0.31,-5.82,5.82,5.50,8.00,6.14,6.13,6.13
31.30,0.41,-5.73,0.41,-5.73,5.73,5.40,7.99,6.14,6.14,6.13
31.61,0.51,-5.63,0.51,-5.64,5.64,5.31,7.97,6.15,6.14,6.14
31.93,0.61,-5.54,0.60,-5.55,5.55,5.21,7.92,6.16,6.15,6.15
32.24,0.70,-5.45,0.70,-5.46,5.46,5.12,7.87,6.16,6.16,6.15
32.57,0.80,-5.36,0.80,-5.37,5.37,5.02,7.79,6.17,6.16,6.16
32.89,0.89,-5.28,0.89,-5.28,5.28,4.92,7.71,6.17,6.17,6.17
33.22,0.99,-5.19,0.99,-5.19,5.19,4.83,7.61,6.18,6.18,6.18
33.55,1.08,-5.10,1.09,-5.10,5.10,4.74,7.50,6.18,6.18,6.19
33.89,1.18,-5.01,1.18,-5.01,5.01,4.64,7.38,6.19,6.19,6.19
34.23,1.27,-4.93,1.28,-4.92,4.92,4.55,7.25,6.19,6.19,6.20
34.57,1.37,-4.83,1.37,-4.83,4.83,4.45,7.11,6.20,6.20,6.21
34.92,1.47,-4.73,1.47,-4.73,4.73,4.36,6.97,6.20,6.21,6.20
35.27,1.57,-4.64,1.57,-4.64,4.64,4.27,6.81,6.21,6.21,6.21
35.62,1.66,-4.55,1.67,-4.55,4.55,4.18,6.66,6.21,6.21,6.21
35.97,1.76,-4.45,1.76,-4.45,4.45,4.09,6.49,6.21,6.21,6.21
36.33,1.86,-4.35,1.86,-4.35,4.35,4.00,6.33,6.22,6.21,6.22
36.70,1.95,-4.26,1.96,-4.26,4.26,3.91,6.16,6.21,6.22,6.21
37.06,2.05,-4.16,2.05,-4.16,4.16,3.82,5.99,6.22,6.21,6.22
37.43,2.14,-4.08,2.14,-4.07,4.07,3.73,5.82,6.21,6.21,6.22
37.81,2.24,-3.98,2.24,-3.98,3.98,3.64,5.64,6.22,6.21,6.22
38.19,2.33,-3.88,2.32,-3.88,3.88,3.55,5.47,6.21,6.21,6.21
38.57,2.42,-3.79,2.41,-3.79,3.79,3.46,5.30,6.21,6.21,6.21
38.95,2.50,-3.70,2.50,-3.71,3.71,3.37,5.13,6.21,6.20,6.20
39.34,2.58,-3.61,2.58,-3.62,3.62,3.29,4.96,6.20,6.20,6.19
39.74,2.66,-3.53,2.66,-3.54,3.54,3.20,4.79,6.20,6.20,6.19
40.14,2.74,-3.45,2.74,-3.46,3.46,3.12,4.62,6.20,6.19,6.19
40.54,2.81,-3.38,2.81,-3.38,3.38,3.03,4.45,6.19,6.19,6.19
40.94,2.89,-3.29,2.88,-3.30,3.30,2.95,4.29,6.19,6.18,6.18
41.35,2.96,-3.21,2.95,-3.23,3.23,2.86,4.12,6.19,6.18,6.17
41.76,3.02,-3.15,3.03,-3.15,3.15,2.78,3.96,6.17,6.17,6.18
42.18,3.09,-3.09,3.10,-3.07,3.07,2.69,3.81,6.17,6.17,6.18
42.60,3.16,-3.01,3.17,-3.00,3.00,2.61,3.65,6.16,6.17,6.17
43.03,3.23,-2.94,3.24,-2.93,2.93,2.53,3.50,6.16,6.16,6.17
43.46,3.30,-2.86,3.31,-2.85,2.85,2.45,3.35,6.15,6.16,6.16
43.90,3.36,-2.78,3.37,-2.78,2.78,2.37,3.20,6.14,6.15,6.14
44.33,3.44,-2.70,3.45,-2.70,2.70,2.29,3.05,6.14,6.15,6.15
44.78,3.51,-2.63,3.52,-2.63,2.63,2.21,2.91,6.14,6.14,6.14
45.23,3.59,-2.54,3.59,-2.55,2.55,2.13,2.76,6.14,6.14,6.13
45.68,3.67,-2.46,3.66,-2.47,2.47,2.05,2.62,6.14,6.13,6.13
46.13,3.74,-2.37,3.73,-2.40,2.40,1.97,2.49,6.14,6.13,6.12
46.60,3.80,-2.32,3.80,-2.31,2.31,1.89,2.35,6.11,6.12,6.13
47.06,3.87,-2.24,3.88,-2.23,2.23,1.81,2.22,6.10,6.11,6.11
47.53,3.95,-2.15,3.95,-2.15,2.15,1.74,2.09,6.10,6.10,6.10
48.01,4.02,-2.09,4.03,-2.06,2.06,1.66,1.96,6.08,6.09,6.11
48.49,4.09,-2.00,4.10,-1.98,1.98,1.58,1.83,6.07,6.08,6.09
48.97,4.17,-1.89,4.17,-1.89,1.89,1.51,1.70,6.06,6.07,6.06
49.46,4.24,-1.81,4.25,-1.81,1.81,1.43,1.58,6.05,6.05,6.05
49.96,4.32,-1.71,4.32,-1.72,1.72,1.36,1.46,6.04,6.04,6.03
50.46,4.40,-1.62,4.39,-1.63,1.63,1.28,1.34,6.03,6.02,6.02
50.96,4.47,-1.54,4.46,-1.54,1.54,1.21,1.22,6.01,6.00,6.01
51.47,4.54,-1.43,4.53,-1.45,1.45,1.14,1.11,5.99,5.98,5.97
51.99,4.61,-1.35,4.60,-1.36,1.36,1.06,1.00,5.97,5.96,5.96
52.51,4.67,-1.28,4.67,-1.27,1.27,0.99,0.88,5.94,5.94,5.95
53.03,4.73,-1.19,4.74,-1.18,1.18,0.92,0.78,5.92,5.92,5.92
53.56,4.80,-1.10,4.80,-1.10,1.10,0.85,0.67,5.90,5.90,5.91
54.10,4.86,-1.02,4.87,-1.01,1.01,0.78,0.57,5.87,5.88,5.88
54.64,4.92,-0.94,4.93,-0.93,0.93,0.71,0.46,5.85,5.86,5.86
55.18,4.98,-0.85,4.99,-0.85,0.85,0.64,0.37,5.83,5.83,5.83
55.74,5.04,-0.76,5.04,-0.77,0.77,0.57,0.27,5.81,5.81,5.80
56.29,5.10,-0.69,5.10,-0.69,0.69,0.50,0.18,5.79,5.79,5.79
56.86,5.15,-0.61,5.15,-0.61,0.61,0.43,0.08,5.76,5.76,5.76
57.42,5.20,-0.52,5.20,-0.53,0.53,0.36,-0.00,5.73,5.73,5.72
58.00,5.25,-0.45,5.25,-0.46,0.46,0.29,-0.09,5.71,5.71,5.70
58.58,5.30,-0.38,5.29,-0.39,0.39,0.23,-0.17,5.69,5.68,5.68
59.16,5.34,-0.31,5.33,-0.32,0.32,0.16,-0.25,5.66,5.65,5.65
59.76,5.38,-0.25,5.37,-0.25,0.25,0.09,-0.32,5.63,5.61,5.63
60.35,5.41,-0.18,5.40,-0.18,0.18,0.03,-0.40,5.59,5.58,5.59
60.96,5.44,-0.11,5.43,-0.11,0.11,-0.04,-0.47,5.55,5.54,5.56
61.57,5.46,-0.05,5.46,-0.05,0.05,-0.10,-0.53,5.51,5.51,5.51
62.18,5.48,0.02,5.48,0.02,-0.02,-0.17,-0.59,5.47,5.47,5.46
62.80,5.50,0.07,5.51,0.08,-0.08,-0.23,-0.65,5.42,5.43,5.43
63.43,5.52,0.14,5.53,0.15,-0.15,-0.30,-0.71,5.37,5.39,5.38
64.07,5.54,0.20,5.56,0.21,-0.21,-0.36,-0.76,5.33,5.35,5.34
64.71,5.58,0.28,5.58,0.28,-0.28,-0.42,-0.81,5.30,5.30,5.30
65.35,5.60,0.35,5.61,0.35,-0.35,-0.49,-0.86,5.25,5.26,5.25
66.01,5.63,0.42,5.63,0.42,-0.42,-0.55,-0.90,5.21,5.21,5.21
66.67,5.65,0.47,5.66,0.49,-0.49,-0.61,-0.94,5.16,5.17,5.18
67.33,5.68,0.55,5.68,0.56,-0.56,-0.67,-0.98,5.12,5.12,5.13
68.01,5.71,0.63,5.70,0.63,-0.63,-0.73,-1.02,5.09,5.08,5.08
68.69,5.74,0.70,5.73,0.69,-0.69,-0.79,-1.05,5.05,5.03,5.04
69.37,5.77,0.78,5.75,0.76,-0.76,-0.85,-1.09,5.01,4.99,4.99
70.07,5.79,0.85,5.78,0.83,-0.83,-0.91,-1.12,4.96,4.94,4.94
70.77,5.81,0.91,5.80,0.90,-0.90,-0.97,-1.15,4.91,4.90,4.90
71.48,5.82,0.96,5.82,0.97,-0.97,-1.03,-1.18,4.85,4.85,4.86
72.19,5.83,1.02,5.85,1.04,-1.04,-1.09,-1.21,4.79,4.81,4.81
72.91,5.85,1.09,5.87,1.11,-1.11,-1.15,-1.24,4.74,4.77,4.76
73.64,5.88,1.16,5.90,1.17,-1.17,-1.20,-1.26,4.71,4.72,4.72
74.38,5.91,1.23,5.92,1.24,-1.24,-1.26,-1.29,4.67,4.68,4.68
75.12,5.94,1.30,5.95,1.31,-1.31,-1.32,-1.32,4.63,4.64,4.64
75.87,5.97,1.37,5.98,1.37,-1.37,-1.37,-1.34,4.60,4.60,4.60
76.63,6.01,1.45,6.00,1.44,-1.44,-1.43,-1.37,4.57,4.56,4.56
77.40,6.04,1.52,6.03,1.50,-1.50,-1.48,-1.40,4.54,4.52,4.52
78.17,6.07,1.59,6.06,1.57,-1.57,-1.54,-1.42,4.50,4.49,4.48
78.95,6.10,1.65,6.09,1.63,-1.63,-1.59,-1.45,4.47,4.45,4.45
79.74,6.11,1.69,6.12,1.70,-1.70,-1.65,-1.48,4.41,4.42,4.42
80.54,6.14,1.75,6.14,1.76,-1.76,-1.70,-1.51,4.38,4.38,4.39
81.35,6.16,1.81,6.17,1.82,-1.82,-1.75,-1.54,4.34,4.35,4.35
82.16,6.18,1.86,6.19,1.87,-1.87,-1.80,-1.58,4.31,4.32,4.32
82.98,6.21,1.92,6.22,1.93,-1.93,-1.86,-1.61,4.29,4.29,4.29
83.81,6.23,1.97,6.23,1.97,-1.97,-1.91,-1.64,4.26,4.26,4.26
84.65,6.25,2.03,6.25,2.02,-2.02,-1.96,-1.68,4.23,4.23,4.22
85.50,6.27,2.07,6.26,2.06,-2.06,-2.01,-1.72,4.21,4.20,4.20
86.35,6.29,2.12,6.27,2.10,-2.10,-2.06,-1.76,4.19,4.17,4.17
87.22,6.30,2.16,6.28,2.14,-2.14,-2.11,-1.80,4.16,4.14,4.14
88.09,6.31,2.20,6.29,2.17,-2.17,-2.16,-1.84,4.14,4.12,4.11
88.97,6.31,2.22,6.30,2.21,-2.21,-2.21,-1.88,4.10,4.09,4.09
89.86,6.30,2.23,6.30,2.24,-2.24,-2.25,-1.93,4.06,4.06,4.07
90.76,6.29,2.26,6.31,2.28,-2.28,-2.30,-1.98,4.02,4.03,4.03
91.66,6.29,2.29,6.31,2.31,-2.31,-2.35,-2.02,3.99,4.01,4.00
92.58,6.29,2.32,6.31,2.33,-2.33,-2.40,-2.07,3.96,3.98,3.97
93.51,6.29,2.34,6.31,2.36,-2.36,-2.44,-2.13,3.93,3.95,3.96
94.44,6.29,2.37,6.31,2.39,-2.39,-2.49,-2.18,3.90,3.92,3.92
95.39,6.30,2.41,6.30,2.42,-2.42,-2.53,-2.23,3.88,3.88,3.90
96.34,6.31,2.46,6.29,2.44,-2.44,-2.58,-2.29,3.87,3.85,3.85
97.30,6.31,2.50,6.29,2.47,-2.47,-2.62,-2.35,3.84,3.82,3.81
98.28,6.30,2.52,6.28,2.50,-2.50,-2.66,-2.40,3.80,3.78,3.78
99.26,6.28,2.54,6.27,2.53,-2.53,-2.71,-2.46,3.76,3.74,3.74
100.25,6.26,2.56,6.26,2.55,-2.55,-2.75,-2.52,3.71,3.70,3.70
101.25,6.23,2.56,6.24,2.58,-2.58,-2.79,-2.59,3.65,3.66,3.67
102.27,6.21,2.59,6.22,2.60,-2.60,-2.83,-2.65,3.61,3.62,3.62
103.29,6.19,2.62,6.20,2.62,-2.62,-2.88,-2.71,3.57,3.58,3.57
104.32,6.17,2.64,6.17,2.64,-2.64,-2.92,-2.77,3.53,3.53,3.53
105.37,6.14,2.66,6.14,2.66,-2.66,-2.96,-2.83,3.48,3.48,3.49
106.42,6.12,2.69,6.11,2.68,-2.68,-2.99,-2.90,3.44,3.43,3.43
107.48,6.09,2.71,6.07,2.70,-2.70,-3.03,-2.96,3.39,3.37,3.38
108.56,6.05,2.74,6.04,2.73,-2.73,-3.07,-3.02,3.32,3.31,3.31
109.64,6.01,2.76,6.01,2.75,-2.75,-3.11,-3.08,3.26,3.25,3.25
110.74,5.97,2.77,5.97,2.78,-2.78,-3.15,-3.14,3.19,3.19,3.20
111.85,5.93,2.80,5.94,2.82,-2.82,-3.18,-3.19,3.11,3.12,3.13
112.97,5.88,2.83,5.91,2.85,-2.85,-3.22,-3.25,3.03,3.06,3.05
114.10,5.85,2.85,5.87,2.88,-2.88,-3.25,-3.30,2.97,2.99,3.00
115.24,5.82,2.90,5.84,2.92,-2.92,-3.29,-3.35,2.90,2.92,2.92
116.39,5.81,2.97,5.81,2.96,-2.96,-3.32,-3.39,2.85,2.85,2.84
117.55,5.78,3.00,5.78,2.99,-2.99,-3.36,-3.44,2.79,2.78,2.78
118.73,5.76,3.06,5.75,3.03,-3.03,-3.39,-3.48,2.73,2.72,2.70
119.92,5.73,3.08,5.72,3.07,-3.07,-3.42,-3.51,2.66,2.65,2.65
121.12,5.70,3.13,5.70,3.12,-3.12,-3.45,-3.55,2.59,2.58,2.58
122.33,5.68,3.17,5.67,3.16,-3.16,-3.48,-3.57,2.52,2.52,2.51
123.55,5.65,3.19,5.65,3.20,-3.20,-3.51,-3.60,2.45,2.45,2.46
124.79,5.62,3.22,5.63,3.23,-3.23,-3.54,-3.62,2.39,2.39,2.40
126.03,5.58,3.24,5.60,3.27,-3.27,-3.57,-3.63,2.31,2.33,2.34
127.29,5.56,3.28,5.57,3.30,-3.30,-3.60,-3.64,2.26,2.27,2.28
128.57,5.54,3.33,5.54,3.33,-3.33,-3.63,-3.65,2.21,2.22,2.21
129.85,5.52,3.36,5.51,3.35,-3.35,-3.66,-3.65,2.17,2.16,2.16
131.15,5.50,3.40,5.47,3.37,-3.37,-3.68,-3.65,2.13,2.11,2.10
132.46,5.47,3.42,5.44,3.39,-3.39,-3.71,-3.65,2.08,2.05,2.05
133.79,5.43,3.43,5.41,3.41,-3.41,-3.73,-3.64,2.02,2.00,2.00
135.12,5.37,3.42,5.37,3.42,-3.42,-3.76,-3.63,1.95,1.95,1.95
136.48,5.33,3.43,5.34,3.44,-3.44,-3.78,-3.62,1.89,1.90,1.90
137.84,5.29,3.44,5.30,3.45,-3.45,-3.80,-3.60,1.84,1.85,1.85
139.22,5.25,3.45,5.26,3.46,-3.46,-3.83,-3.58,1.79,1.80,1.80
140.61,5.20,3.46,5.23,3.47,-3.47,-3.85,-3.56,1.73,1.76,1.74
142.02,5.15,3.44,5.19,3.47,-3.47,-3.87,-3.54,1.68,1.71,1.71
143.44,5.14,3.47,5.15,3.48,-3.48,-3.89,-3.52,1.66,1.67,1.67
144.87,5.12,3.50,5.11,3.49,-3.49,-3.91,-3.50,1.63,1.62,1.62
146.32,5.10,3.53,5.07,3.50,-3.50,-3.93,-3.47,1.60,1.57,1.58
147.78,5.06,3.52,5.04,3.51,-3.51,-3.94,-3.45,1.55,1.53,1.54
149.26,5.02,3.53,5.01,3.53,-3.53,-3.96,-3.42,1.49,1.48,1.49
150.75,4.97,3.54,4.97,3.54,-3.54,-3.98,-3.40,1.43,1.43,1.43
152.26,4.93,3.55,4.94,3.56,-3.56,-3.99,-3.38,1.37,1.38,1.38
153.78,4.88,3.54,4.91,3.57,-3.57,-4.00,-3.36,1.31,1.33,1.34
155.32,4.85,3.58,4.87,3.59,-3.59,-4.02,-3.34,1.26,1.28,1.28
156.88,4.83,3.60,4.84,3.61,-3.61,-4.03,-3.32,1.22,1.23,1.23
158.44,4.82,3.64,4.80,3.62,-3.62,-4.04,-3.30,1.20,1.18,1.18
160.03,4.78,3.66,4.77,3.64,-3.64,-4.05,-3.29,1.14,1.13,1.12
161.63,4.75,3.69,4.73,3.66,-3.66,-4.06,-3.27,1.09,1.08,1.07
163.24,4.71,3.69,4.70,3.68,-3.68,-4.07,-3.26,1.03,1.02,1.02
164.88,4.65,3.68,4.66,3.70,-3.70,-4.08,-3.25,0.95,0.97,0.97
166.53,4.62,3.71,4.63,3.72,-3.72,-4.09,-3.25,0.91,0.91,0.92
168.19,4.59,3.73,4.59,3.73,-3.73,-4.10,-3.24,0.86,0.86,0.86
169.87,4.54,3.73,4.55,3.75,-3.75,-4.10,-3.24,0.79,0.80,0.81
171.57,4.52,3.77,4.52,3.77,-3.77,-4.11,-3.24,0.75,0.75,0.75
173.29,4.49,3.80,4.47,3.78,-3.78,-4.11,-3.24,0.71,0.69,0.69
175.02,4.44,3.80,4.43,3.80,-3.80,-4.11,-3.25,0.64,0.63,0.64
176.77,4.40,3.83,4.39,3.82,-3.82,-4.11,-3.26,0.58,0.57,0.57
178.54,4.34,3.83,4.35,3.83,-3.83,-4.11,-3.27,0.51,0.51,0.51
180.32,4.30,3.85,4.30,3.85,-3.85,-4.11,-3.28,0.45,0.45,0.45
182.13,4.26,3.87,4.26,3.87,-3.87,-4.11,-3.30,0.39,0.39,0.39
183.95,4.20,3.87,4.22,3.89,-3.89,-4.11,-3.32,0.31,0.33,0.33
185.79,4.16,3.89,4.17,3.90,-3.90,-4.11,-3.34,0.26,0.27,0.27
187.65,4.13,3.93,4.13,3.92,-3.92,-4.10,-3.36,0.21,0.21,0.20
189.52,4.09,3.95,4.09,3.94,-3.94,-4.10,-3.39,0.15,0.15,0.14
191.42,4.04,3.95,4.04,3.95,-3.95,-4.09,-3.42,0.09,0.09,0.09
193.33,4.00,3.97,4.00,3.97,-3.97,-4.08,-3.45,0.03,0.03,0.03
195.27,3.95,3.97,3.96,3.98,-3.98,-4.07,-3.48,-0.03,-0.02,-0.02
197.22,3.91,3.99,3.92,3.99,-3.99,-4.06,-3.52,-0.08,-0.08,-0.08
199.19,3.87,4.01,3.87,4.01,-4.01,-4.05,-3.55,-0.14,-0.13,-0.14
201.18,3.84,4.03,3.83,4.02,-4.02,-4.04,-3.59,-0.18,-0.19,-0.19
203.19,3.80,4.03,3.79,4.03,-4.03,-4.02,-3.63,-0.23,-0.24,-0.23
205.23,3.77,4.06,3.75,4.04,-4.04,-4.01,-3.67,-0.27,-0.29,-0.29
207.28,3.72,4.04,3.71,4.05,-4.05,-3.99,-3.70,-0.33,-0.33,-0.32
209.35,3.67,4.05,3.67,4.05,-4.05,-3.97,-3.74,-0.38,-0.38,-0.38
211.44,3.62,4.05,3.64,4.06,-4.06,-3.95,-3.78,-0.44,-0.42,-0.43
213.56,3.58,4.05,3.60,4.06,-4.06,-3.93,-3.82,-0.48,-0.47,-0.47
215.69,3.54,4.04,3.56,4.06,-4.06,-3.91,-3.86,-0.52,-0.51,-0.50
217.85,3.51,4.05,3.52,4.06,-4.06,-3.89,-3.89,-0.55,-0.54,-0.54
220.03,3.49,4.08,3.48,4.06,-4.06,-3.86,-3.93,-0.57,-0.58,-0.59
222.23,3.46,4.08,3.44,4.06,-4.06,-3.84,-3.96,-0.60,-0.61,-0.62
224.45,3.41,4.06,3.41,4.05,-4.05,-3.81,-3.98,-0.64,-0.64,-0.64
226.70,3.37,4.04,3.37,4.04,-4.04,-3.78,-4.01,-0.67,-0.67,-0.67
228.96,3.32,4.02,3.34,4.03,-4.03,-3.75,-4.03,-0.71,-0.70,-0.70
231.25,3.29,4.00,3.30,4.02,-4.02,-3.72,-4.04,-0.73,-0.72,-0.71
233.57,3.25,3.99,3.26,4.00,-4.00,-3.68,-4.05,-0.74,-0.74,-0.74
235.90,3.20,3.96,3.22,3.97,-3.97,-3.64,-4.06,-0.77,-0.75,-0.76
238.26,3.18,3.95,3.17,3.94,-3.94,-3.61,-4.06,-0.76,-0.77,-0.77
240.64,3.15,3.93,3.13,3.91,-3.91,-3.57,-4.05,-0.75,-0.78,-0.78
243.05,3.11,3.89,3.08,3.86,-3.86,-3.53,-4.03,-0.75,-0.78,-0.78
245.48,3.04,3.83,3.03,3.81,-3.81,-3.48,-4.01,-0.77,-0.79,-0.79
247.93,2.96,3.75,2.97,3.76,-3.76,-3.44,-3.98,-0.80,-0.79,-0.79
250.41,2.91,3.71,2.91,3.70,-3.70,-3.39,-3.95,-0.79,-0.79,-0.80
252.92,2.84,3.63,2.85,3.64,-3.64,-3.34,-3.90,-0.80,-0.79,-0.79
255.45,2.78,3.56,2.79,3.57,-3.57,-3.29,-3.85,-0.79,-0.78,-0.78
258.00,2.73,3.51,2.72,3.50,-3.50,-3.24,-3.80,-0.77,-0.78,-0.78
260.58,2.65,3.43,2.65,3.42,-3.42,-3.18,-3.73,-0.77,-0.77,-0.77
263.19,2.59,3.35,2.58,3.34,-3.34,-3.12,-3.66,-0.75,-0.76,-0.76
265.82,2.49,3.25,2.50,3.25,-3.25,-3.06,-3.58,-0.76,-0.75,-0.76
268.48,2.41,3.15,2.42,3.16,-3.16,-3.00,-3.49,-0.75,-0.74,-0.74
271.16,2.34,3.07,2.34,3.07,-3.07,-2.94,-3.40,-0.73,-0.73,-0.72
273.87,2.24,2.96,2.26,2.97,-2.97,-2.87,-3.31,-0.73,-0.72,-0.72
276.61,2.17,2.87,2.17,2.88,-2.88,-2.80,-3.20,-0.71,-0.71,-0.70
279.38,2.10,2.79,2.08,2.78,-2.78,-2.73,-3.10,-0.68,-0.69,-0.69
282.17,2.01,2.69,1.99,2.68,-2.68,-2.65,-2.99,-0.67,-0.68,-0.68
284.99,1.91,2.58,1.90,2.57,-2.57,-2.58,-2.87,-0.66,-0.67,-0.67
287.84,1.80,2.46,1.81,2.47,-2.47,-2.50,-2.75,-0.67,-0.66,-0.66
290.72,1.72,2.37,1.72,2.36,-2.36,-2.41,-2.63,-0.64,-0.64,-0.65
293.63,1.62,2.25,1.63,2.26,-2.26,-2.33,-2.51,-0.64,-0.63,-0.63
296.57,1.52,2.14,1.53,2.15,-2.15,-2.24,-2.38,-0.63,-0.62,-0.62
299.53,1.43,2.04,1.44,2.05,-2.05,-2.15,-2.25,-0.62,-0.61,-0.61
302.53,1.34,1.95,1.35,1.95,-1.95,-2.05,-2.12,-0.61,-0.60,-0.61
305.55,1.25,1.83,1.26,1.84,-1.84,-1.95,-1.99,-0.59,-0.59,-0.58
308.61,1.15,1.73,1.17,1.74,-1.74,-1.85,-1.85,-0.59,-0.58,-0.58
311.69,1.06,1.63,1.07,1.64,-1.64,-1.75,-1.72,-0.58,-0.57,-0.57
314.81,0.99,1.53,0.98,1.54,-1.54,-1.64,-1.58,-0.55,-0.56,-0.54
317.96,0.89,1.44,0.89,1.44,-1.44,-1.53,-1.45,-0.55,-0.55,-0.55
321.14,0.80,1.34,0.79,1.34,-1.34,-1.41,-1.31,-0.54,-0.54,-0.54
324.35,0.69,1.24,0.70,1.24,-1.24,-1.30,-1.17,-0.55,-0.54,-0.54
327.59,0.60,1.13,0.60,1.13,-1.13,-1.17,-1.03,-0.53,-0.53,-0.53
330.87,0.51,1.04,0.50,1.03,-1.03,-1.05,-0.90,-0.52,-0.53,-0.53
334.18,0.40,0.94,0.40,0.92,-0.92,-0.92,-0.76,-0.52,-0.53,-0.53
337.52,0.28,0.81,0.29,0.81,-0.81,-0.79,-0.62,-0.53,-0.53,-0.53
340.90,0.17,0.69,0.18,0.70,-0.70,-0.65,-0.48,-0.53,-0.53,-0.52
344.30,0.04,0.56,0.06,0.58,-0.58,-0.51,-0.34,-0.54,-0.53,-0.52
347.75,-0.07,0.46,-0.07,0.46,-0.46,-0.37,-0.20,-0.53,-0.53,-0.53
351.23,-0.20,0.33,-0.21,0.33,-0.33,-0.22,-0.07,-0.52,-0.53,-0.53
354.74,-0.33,0.20,-0.35,0.19,-0.19,-0.07,0.07,-0.52,-0.54,-0.53
358.28,-0.48,0.06,-0.49,0.04,-0.04,0.09,0.21,-0.52,-0.54,-0.54
361.87,-0.63,-0.08,-0.65,-0.11,0.11,0.25,0.35,-0.52,-0.54,-0.55
365.49,-0.81,-0.26,-0.81,-0.26,0.26,0.41,0.49,-0.55,-0.55,-0.55
369.14,-0.98,-0.42,-0.99,-0.43,0.43,0.58,0.63,-0.55,-0.56,-0.56
372.83,-1.15,-0.59,-1.16,-0.60,0.60,0.75,0.77,-0.55,-0.56,-0.56
376.56,-1.37,-0.80,-1.35,-0.78,0.78,0.92,0.91,-0.59,-0.57,-0.57
380.33,-1.56,-0.98,-1.55,-0.97,0.97,1.09,1.05,-0.59,-0.58,-0.58
384.13,-1.75,-1.16,-1.76,-1.17,1.17,1.27,1.18,-0.58,-0.59,-0.59
387.97,-1.96,-1.36,-1.97,-1.37,1.37,1.45,1.32,-0.58,-0.60,-0.60
391.85,-2.18,-1.57,-2.19,-1.59,1.59,1.64,1.46,-0.59,-0.60,-0.61
395.77,-2.39,-1.79,-2.42,-1.81,1.81,1.82,1.60,-0.58,-0.61,-0.60
399.73,-2.62,-2.00,-2.65,-2.03,2.03,2.00,1.73,-0.59,-0.62,-0.61
403.72,-2.85,-2.22,-2.88,-2.26,2.26,2.19,1.87,-0.59,-0.62,-0.63
407.76,-3.10,-2.46,-3.11,-2.48,2.48,2.37,2.00,-0.62,-0.63,-0.64
411.84,-3.34,-2.71,-3.35,-2.71,2.71,2.56,2.14,-0.63,-0.63,-0.63
415.96,-3.58,-2.94,-3.58,-2.94,2.94,2.74,2.27,-0.64,-0.64,-0.64
420.12,-3.82,-3.18,-3.81,-3.16,3.16,2.92,2.40,-0.66,-0.64,-0.64
424.32,-4.05,-3.41,-4.03,-3.38,3.38,3.09,2.52,-0.67,-0.65,-0.64
428.56,-4.25,-3.60,-4.24,-3.59,3.59,3.26,2.65,-0.65,-0.65,-0.65
432.85,-4.45,-3.79,-4.45,-3.80,3.80,3.42,2.77,-0.65,-0.65,-0.66
437.18,-4.65,-3.99,-4.63,-3.98,3.98,3.58,2.89,-0.67,-0.65,-0.66
441.55,-4.80,-4.15,-4.81,-4.15,4.15,3.72,3.00,-0.64,-0.65,-0.65
445.96,-4.96,-4.31,-4.96,-4.31,4.31,3.86,3.11,-0.65,-0.65,-0.65
450.42,-5.12,-4.46,-5.10,-4.45,4.45,3.98,3.21,-0.67,-0.65,-0.66
454.93,-5.23,-4.58,-5.21,-4.56,4.56,4.09,3.31,-0.67,-0.65,-0.65
459.48,-5.32,-4.67,-5.29,-4.65,4.65,4.19,3.40,-0.67,-0.65,-0.65
464.07,-5.38,-4.74,-5.36,-4.72,4.72,4.27,3.48,-0.66,-0.64,-0.64
468.71,-5.42,-4.79,-5.40,-4.76,4.76,4.33,3.56,-0.66,-0.64,-0.63
473.40,-5.44,-4.81,-5.42,-4.78,4.78,4.38,3.62,-0.66,-0.63,-0.63
478.13,-5.43,-4.80,-5.41,-4.78,4.78,4.41,3.68,-0.65,-0.63,-0.62
482.91,-5.40,-4.77,-5.37,-4.75,4.75,4.42,3.74,-0.65,-0.62,-0.63
487.74,-5.34,-4.72,-5.32,-4.70,4.70,4.41,3.78,-0.64,-0.62,-0.62
492.62,-5.25,-4.64,-5.24,-4.62,4.62,4.39,3.81,-0.63,-0.61,-0.61
497.55,-5.14,-4.53,-5.13,-4.53,4.53,4.35,3.83,-0.61,-0.61,-0.61
502.52,-5.02,-4.42,-5.01,-4.41,4.41,4.30,3.85,-0.61,-0.60,-0.60
507.55,-4.89,-4.29,-4.87,-4.27,4.27,4.23,3.85,-0.62,-0.60,-0.60
512.62,-4.74,-4.14,-4.72,-4.12,4.12,4.15,3.84,-0.62,-0.60,-0.60
517.75,-4.57,-3.98,-4.55,-3.96,3.96,4.05,3.83,-0.61,-0.59,-0.59
