frequency,raw,error,smoothed,error_smoothed,equalization,parametric_eq,fixed_band_eq,equalized_raw,equalized_smoothed,target
20.00,-5.30,-9.84,-5.32,-9.89,9.89,9.37,3.69,4.59,4.56,4.54
20.20,-5.27,-9.86,-5.29,-9.89,9.89,9.42,3.79,4.62,4.60,4.59
20.40,-5.23,-9.87,-5.25,-9.89,9.89,9.46,3.89,4.66,4.64,4.64
20.61,-5.20,-9.87,-5.21,-9.88,9.88,9.50,4.00,4.68,4.67,4.67
20.81,-5.17,-9.89,-5.17,-9.87,9.87,9.52,4.12,4.70,4.70,4.72
21.02,-5.14,-9.90,-5.12,-9.85,9.85,9.55,4.23,4.71,4.73,4.76
21.23,-5.09,-9.87,-5.08,-9.83,9.83,9.57,4.35,4.74,4.76,4.78
21.44,-5.04,-9.84,-5.02,-9.80,9.80,9.58,4.47,4.76,4.78,4.80
21.66,-4.99,-9.81,-4.97,-9.77,9.77,9.58,4.60,4.78,4.80,4.82
21.87,-4.95,-9.78,-4.92,-9.73,9.73,9.58,4.73,4.78,4.82,4.83
22.09,-4.89,-9.74,-4.86,-9.69,9.69,9.57,4.86,4.80,4.83,4.85
22.31,-4.82,-9.68,-4.80,-9.65,9.65,9.56,5.00,4.82,4.85,4.86
22.54,-4.75,-9.61,-4.73,-9.58,9.58,9.54,5.14,4.83,4.85,4.86
22.76,-4.67,-9.53,-4.66,-9.51,9.51,9.52,5.28,4.84,4.86,4.86
22.99,-4.60,-9.45,-4.58,-9.44,9.44,9.49,5.43,4.84,4.86,4.85
23.22,-4.51,-9.36,-4.51,-9.37,9.37,9.46,5.58,4.86,4.86,4.85
23.45,-4.41,-9.26,-4.44,-9.30,9.30,9.42,5.73,4.89,4.86,4.85
23.69,-4.32,-9.18,-4.37,-9.23,9.23,9.37,5.89,4.90,4.86,4.86
23.92,-4.22,-9.08,-4.29,-9.15,9.15,9.33,6.05,4.93,4.86,4.86
24.16,-4.17,-9.03,-4.22,-9.08,9.08,9.27,6.22,4.91,4.86,4.86
24.40,-4.13,-9.00,-4.15,-9.01,9.01,9.22,6.39,4.88,4.86,4.87
24.65,-4.10,-8.96,-4.09,-8.94,8.94,9.16,6.56,4.84,4.86,4.86
24.89,-4.06,-8.92,-4.02,-8.88,8.88,9.09,6.73,4.82,4.86,4.86
25.14,-4.00,-8.86,-3.96,-8.82,8.82,9.03,6.91,4.82,4.86,4.86
25.39,-3.91,-8.78,-3.89,-8.75,8.75,8.96,7.09,4.84,4.86,4.87
25.65,-3.83,-8.70,-3.82,-8.68,8.68,8.89,7.27,4.85,4.86,4.87
25.91,-3.74,-8.60,-3.75,-8.61,8.61,8.81,7.45,4.86,4.86,4.86
26.16,-3.67,-8.53,-3.67,-8.53,8.53,8.74,7.64,4.86,4.86,4.86
26.43,-3.62,-8.48,-3.60,-8.46,8.46,8.66,7.82,4.83,4.86,4.86
26.69,-3.56,-8.42,-3.52,-8.38,8.38,8.58,8.00,4.82,4.86,4.86
26.96,-3.50,-8.36,-3.45,-8.31,8.31,8.50,8.19,4.80,4.85,4.86
27.23,-3.40,-8.26,-3.39,-8.24,8.24,8.42,8.36,4.83,4.85,4.86
27.50,-3.29,-8.15,-3.33,-8.18,8.18,8.34,8.54,4.88,4.85,4.86
27.77,-3.18,-8.03,-3.27,-8.12,8.12,8.26,8.71,4.94,4.85,4.85
28.05,-3.09,-7.94,-3.22,-8.07,8.07,8.17,8.88,4.98,4.85,4.85
28.33,-3.09,-7.93,-3.17,-8.01,8.01,8.09,9.04,4.92,4.85,4.84
28.62,-3.08,-7.92,-3.12,-7.96,7.96,8.01,9.19,4.88,4.84,4.84
28.90,-3.08,-7.93,-3.06,-7.91,7.91,7.93,9.33,4.82,4.84,4.85
29.19,-3.07,-7.91,-3.01,-7.85,7.85,7.85,9.46,4.78,4.84,4.84
29.48,-3.05,-7.90,-2.95,-7.79,7.79,7.77,9.58,4.74,4.84,4.85
29.78,-3.03,-7.87,-2.91,-7.75,7.75,7.69,9.68,4.71,4.84,4.84
30.08,-2.98,-7.83,-2.87,-7.71,7.71,7.61,9.77,4.73,4.84,4.85
30.38,-2.87,-7.71,-2.85,-7.69,7.69,7.53,9.85,4.81,4.84,4.84
30.68,-2.76,-7.60,-2.83,-7.66,7.66,7.45,9.90,4.90,4.83,4.84
30.99,-2.65,-7.49,-2.79,-7.63,7.63,7.38,9.94,4.97,4.83,4.84
31.30,-2.64,-7.47,-2.76,-7.59,7.59,7.30,9.97,4.94,4.83,4.83
31.61,-2.62,-7.45,-2.72,-7.55,7.55,7.23,9.97,4.92,4.83,4.83
31.93,-2.60,-7.43,-2.68,-7.50,7.50,7.16,9.96,4.90,4.82,4.83
32.24,-2.64,-7.46,-2.65,-7.47,7.47,7.09,9.93,4.82,4.82,4.82
32.57,-2.69,-7.51,-2.61,-7.43,7.43,7.03,9.88,4.74,4.82,4.82
32.89,-2.74,-7.56,-2.58,-7.39,7.39,6.96,9.82,4.65,4.81,4.82
33.22,-2.67,-7.48,-2.54,-7.35,7.35,6.90,9.74,4.68,4.81,4.81
33.55,-2.55,-7.36,-2.51,-7.31,7.31,6.84,9.65,4.76,4.80,4.81
33.89,-2.42,-7.22,-2.48,-7.27,7.27,6.78,9.55,4.85,4.80,4.80
34.23,-2.38,-7.18,-2.44,-7.24,7.24,6.72,9.44,4.85,4.79,4.80
34.57,-2.39,-7.18,-2.41,-7.20,7.20,6.67,9.32,4.81,4.79,4.79
34.92,-2.39,-7.18,-2.38,-7.16,7.16,6.61,9.20,4.77,4.79,4.79
35.27,-2.33,-7.11,-2.33,-7.11,7.11,6.56,9.06,4.78,4.78,4.78
35.62,-2.24,-7.02,-2.27,-7.05,7.05,6.52,8.93,4.81,4.78,4.78
35.97,-2.16,-6.94,-2.21,-6.98,6.98,6.47,8.78,4.82,4.78,4.78
36.33,-2.13,-6.91,-2.16,-6.94,6.94,6.43,8.64,4.80,4.78,4.78
36.70,-2.10,-6.87,-2.13,-6.90,6.90,6.39,8.50,4.80,4.77,4.77
37.06,-2.08,-6.85,-2.09,-6.87,6.87,6.35,8.35,4.79,4.77,4.77
37.43,-2.10,-6.88,-2.05,-6.83,6.83,6.31,8.21,4.72,4.77,4.78
37.81,-2.11,-6.89,-2.01,-6.78,6.78,6.28,8.06,4.67,4.77,4.78
38.19,-2.04,-6.81,-1.97,-6.74,6.74,6.25,7.92,4.70,4.78,4.77
38.57,-1.89,-6.67,-1.93,-6.71,6.71,6.22,7.78,4.81,4.78,4.78
38.95,-1.74,-6.53,-1.89,-6.67,6.67,6.19,7.64,4.93,4.78,4.79
39.34,-1.81,-6.59,-1.86,-6.64,6.64,6.17,7.51,4.83,4.78,4.78
39.74,-1.92,-6.70,-1.83,-6.61,6.61,6.15,7.38,4.69,4.78,4.78
40.14,-1.93,-6.71,-1.80,-6.58,6.58,6.13,7.25,4.65,4.78,4.78
40.54,-1.74,-6.52,-1.77,-6.55,6.55,6.11,7.13,4.80,4.77,4.78
40.94,-1.55,-6.32,-1.75,-6.52,6.52,6.10,7.01,4.96,4.77,4.77
41.35,-1.63,-6.40,-1.72,-6.48,6.48,6.08,6.90,4.85,4.77,4.77
41.76,-1.77,-6.53,-1.69,-6.45,6.45,6.07,6.79,4.67,4.76,4.76
42.18,-1.79,-6.55,-1.67,-6.42,6.42,6.06,6.68,4.63,4.75,4.76
42.60,-1.68,-6.43,-1.66,-6.40,6.40,6.06,6.58,4.72,4.74,4.75
43.03,-1.57,-6.31,-1.66,-6.38,6.38,6.05,6.48,4.81,4.73,4.74
43.46,-1.60,-6.33,-1.63,-6.35,6.35,6.04,6.39,4.75,4.72,4.73
43.90,-1.63,-6.34,-1.59,-6.30,6.30,6.04,6.31,4.66,4.70,4.71
44.33,-1.60,-6.29,-1.56,-6.25,6.25,6.04,6.23,4.65,4.69,4.69
44.78,-1.55,-6.22,-1.54,-6.22,6.22,6.04,6.15,4.67,4.68,4.67
45.23,-1.51,-6.17,-1.53,-6.20,6.20,6.03,6.08,4.69,4.67,4.66
45.68,-1.49,-6.14,-1.51,-6.17,6.17,6.03,6.01,4.67,4.65,4.65
46.13,-1.47,-6.10,-1.47,-6.11,6.11,6.03,5.95,4.64,4.64,4.63
46.60,-1.48,-6.11,-1.42,-6.04,6.04,6.03,5.89,4.56,4.62,4.63
47.06,-1.46,-6.07,-1.38,-5.99,5.99,6.02,5.83,4.53,4.61,4.61
47.53,-1.30,-5.90,-1.36,-5.95,5.95,6.02,5.78,4.65,4.59,4.60
48.01,-1.15,-5.75,-1.32,-5.90,5.90,6.01,5.73,4.75,4.58,4.60
48.49,-1.27,-5.85,-1.28,-5.84,5.84,6.00,5.69,4.57,4.57,4.58
48.97,-1.38,-5.94,-1.25,-5.80,5.80,5.99,5.65,4.42,4.55,4.56
49.46,-1.29,-5.83,-1.22,-5.76,5.76,5.98,5.61,4.47,4.54,4.54
49.96,-1.19,-5.71,-1.19,-5.72,5.72,5.96,5.58,4.52,4.53,4.52
50.46,-1.07,-5.58,-1.15,-5.66,5.66,5.94,5.55,4.59,4.51,4.51
50.96,-0.96,-5.46,-1.11,-5.61,5.61,5.92,5.52,4.64,4.50,4.50
51.47,-1.04,-5.52,-1.07,-5.56,5.56,5.89,5.50,4.51,4.49,4.48
51.99,-1.14,-5.61,-1.04,-5.51,5.51,5.86,5.48,4.37,4.47,4.47
52.51,-1.05,-5.51,-1.01,-5.47,5.47,5.83,5.46,4.42,4.46,4.46
53.03,-0.97,-5.43,-0.99,-5.43,5.43,5.79,5.44,4.46,4.45,4.46
53.56,-1.03,-5.47,-0.95,-5.39,5.39,5.75,5.42,4.36,4.44,4.44
54.10,-1.03,-5.46,-0.91,-5.34,5.34,5.70,5.40,4.31,4.42,4.43
54.64,-0.81,-5.22,-0.88,-5.30,5.30,5.65,5.38,4.48,4.41,4.41
55.18,-0.69,-5.10,-0.86,-5.26,5.26,5.59,5.37,4.57,4.40,4.41
55.74,-0.74,-5.13,-0.83,-5.22,5.22,5.53,5.35,4.48,4.39,4.39
56.29,-0.80,-5.18,-0.80,-5.18,5.18,5.47,5.33,4.38,4.38,4.38
56.86,-0.86,-5.23,-0.76,-5.13,5.13,5.40,5.31,4.26,4.37,4.37
57.42,-0.78,-5.12,-0.71,-5.06,5.06,5.33,5.29,4.28,4.35,4.34
58.00,-0.67,-5.00,-0.67,-5.00,5.00,5.25,5.27,4.33,4.33,4.33
58.58,-0.67,-4.99,-0.64,-4.95,4.95,5.17,5.24,4.28,4.31,4.32
59.16,-0.65,-4.95,-0.61,-4.89,4.89,5.09,5.21,4.24,4.28,4.30
59.76,-0.59,-4.87,-0.57,-4.83,4.83,5.00,5.18,4.23,4.25,4.28
60.35,-0.53,-4.77,-0.54,-4.77,4.77,4.92,5.15,4.24,4.22,4.24
60.96,-0.47,-4.67,-0.53,-4.72,4.72,4.83,5.11,4.25,4.19,4.20
61.57,-0.47,-4.63,-0.51,-4.67,4.67,4.74,5.07,4.19,4.15,4.16
62.18,-0.47,-4.59,-0.48,-4.60,4.60,4.65,5.02,4.13,4.12,4.12
62.80,-0.47,-4.54,-0.46,-4.54,4.54,4.55,4.97,4.06,4.08,4.07
63.43,-0.47,-4.50,-0.45,-4.48,4.48,4.46,4.92,4.01,4.03,4.03
64.07,-0.47,-4.45,-0.46,-4.45,4.45,4.36,4.86,3.98,3.99,3.98
64.71,-0.46,-4.40,-0.49,-4.43,4.43,4.27,4.80,3.97,3.94,3.94
65.35,-0.47,-4.37,-0.52,-4.42,4.42,4.17,4.73,3.95,3.90,3.90
66.01,-0.50,-4.35,-0.56,-4.41,4.41,4.08,4.66,3.91,3.85,3.85
66.67,-0.65,-4.45,-0.62,-4.42,4.42,3.98,4.59,3.76,3.80,3.80
67.33,-0.69,-4.44,-0.67,-4.43,4.43,3.89,4.51,3.74,3.75,3.75
68.01,-0.63,-4.34,-0.74,-4.45,4.45,3.80,4.43,3.81,3.70,3.71
68.69,-0.71,-4.37,-0.81,-4.47,4.47,3.70,4.35,3.76,3.65,3.66
69.37,-0.84,-4.45,-0.89,-4.49,4.49,3.61,4.26,3.65,3.60,3.61
70.07,-1.02,-4.58,-0.96,-4.51,4.51,3.52,4.17,3.49,3.55,3.56
70.77,-1.09,-4.60,-1.03,-4.52,4.52,3.43,4.09,3.43,3.50,3.51
71.48,-1.14,-4.60,-1.08,-4.53,4.53,3.35,3.99,3.38,3.44,3.46
72.19,-1.16,-4.55,-1.13,-4.52,4.52,3.26,3.90,3.36,3.39,3.39
72.91,-1.12,-4.45,-1.17,-4.50,4.50,3.17,3.81,3.38,3.33,3.33
73.64,-1.21,-4.49,-1.18,-4.46,4.46,3.09,3.72,3.24,3.27,3.28
74.38,-1.27,-4.49,-1.18,-4.40,4.40,3.01,3.62,3.12,3.22,3.22
75.12,-1.26,-4.42,-1.16,-4.32,4.32,2.93,3.53,3.06,3.16,3.16
75.87,-1.18,-4.28,-1.12,-4.23,4.23,2.85,3.43,3.05,3.11,3.10
76.63,-1.07,-4.12,-1.06,-4.11,4.11,2.77,3.34,3.04,3.05,3.05
77.40,-0.98,-3.98,-0.98,-3.98,3.98,2.70,3.24,3.00,3.00,3.00
78.17,-0.92,-3.86,-0.89,-3.83,3.83,2.62,3.15,2.91,2.95,2.94
78.95,-0.82,-3.72,-0.79,-3.69,3.69,2.55,3.06,2.86,2.89,2.90
79.74,-0.71,-3.56,-0.70,-3.55,3.55,2.48,2.97,2.84,2.85,2.85
80.54,-0.56,-3.36,-0.61,-3.41,3.41,2.41,2.88,2.85,2.80,2.80
81.35,-0.44,-3.19,-0.52,-3.27,3.27,2.34,2.79,2.82,2.75,2.75
82.16,-0.37,-3.07,-0.42,-3.12,3.12,2.28,2.70,2.75,2.70,2.70
82.98,-0.24,-2.90,-0.32,-2.98,2.98,2.21,2.62,2.73,2.65,2.66
83.81,-0.18,-2.79,-0.24,-2.85,2.85,2.15,2.53,2.66,2.61,2.61
84.65,-0.14,-2.70,-0.17,-2.73,2.73,2.09,2.45,2.58,2.56,2.56
85.50,-0.10,-2.62,-0.11,-2.62,2.62,2.03,2.37,2.52,2.51,2.52
86.35,-0.07,-2.54,-0.06,-2.52,2.52,1.97,2.28,2.44,2.46,2.47
87.22,-0.08,-2.50,-0.01,-2.42,2.42,1.91,2.21,2.34,2.41,2.42
88.09,-0.08,-2.45,0.03,-2.33,2.33,1.85,2.13,2.25,2.36,2.37
88.97,0.12,-2.19,0.05,-2.25,2.25,1.79,2.05,2.37,2.31,2.31
89.86,0.17,-2.09,0.08,-2.18,2.18,1.74,1.98,2.34,2.26,2.26
90.76,0.15,-2.06,0.11,-2.10,2.10,1.69,1.90,2.24,2.21,2.21
91.66,0.14,-2.02,0.13,-2.02,2.02,1.63,1.83,2.16,2.16,2.16
92.58,0.13,-1.97,0.15,-1.95,1.95,1.58,1.76,2.08,2.11,2.10
93.51,0.11,-1.94,0.18,-1.88,1.88,1.53,1.69,1.99,2.06,2.05
94.44,0.16,-1.85,0.20,-1.80,1.80,1.48,1.63,1.96,2.01,2.01
95.39,0.23,-1.73,0.22,-1.73,1.73,1.44,1.56,1.96,1.96,1.96
96.34,0.24,-1.67,0.24,-1.66,1.66,1.39,1.49,1.90,1.91,1.91
97.30,0.25,-1.61,0.26,-1.60,1.60,1.34,1.43,1.84,1.86,1.86
98.28,0.30,-1.51,0.27,-1.54,1.54,1.30,1.37,1.83,1.81,1.81
99.26,0.33,-1.44,0.28,-1.49,1.49,1.25,1.31,1.81,1.76,1.77
100.25,0.28,-1.44,0.29,-1.43,1.43,1.21,1.25,1.71,1.71,1.72
101.25,0.26,-1.41,0.29,-1.38,1.38,1.16,1.19,1.63,1.67,1.67
102.27,0.32,-1.30,0.29,-1.32,1.32,1.12,1.13,1.64,1.62,1.62
103.29,0.33,-1.24,0.29,-1.28,1.28,1.08,1.08,1.60,1.57,1.57
104.32,0.33,-1.20,0.29,-1.23,1.23,1.04,1.02,1.56,1.52,1.53
105.37,0.31,-1.17,0.28,-1.19,1.19,1.00,0.97,1.50,1.47,1.48
106.42,0.28,-1.15,0.27,-1.15,1.15,0.96,0.91,1.42,1.42,1.43
107.48,0.26,-1.11,0.26,-1.10,1.10,0.92,0.86,1.36,1.37,1.37
108.56,0.23,-1.09,0.25,-1.06,1.06,0.88,0.81,1.29,1.31,1.32
109.64,0.20,-1.07,0.24,-1.02,1.02,0.84,0.76,1.22,1.26,1.27
110.74,0.18,-1.03,0.24,-0.97,0.97,0.80,0.72,1.15,1.21,1.21
111.85,0.22,-0.95,0.24,-0.92,0.92,0.76,0.67,1.14,1.16,1.17
112.97,0.27,-0.84,0.24,-0.87,0.87,0.72,0.62,1.13,1.11,1.11
114.10,0.26,-0.80,0.24,-0.82,0.82,0.69,0.58,1.08,1.06,1.06
115.24,0.26,-0.75,0.25,-0.77,0.77,0.65,0.53,1.02,1.01,1.01
116.39,0.26,-0.70,0.26,-0.71,0.71,0.61,0.49,0.97,0.97,0.96
117.55,0.26,-0.66,0.28,-0.65,0.65,0.57,0.45,0.91,0.93,0.92
118.73,0.27,-0.61,0.30,-0.59,0.59,0.54,0.41,0.85,0.89,0.88
119.92,0.32,-0.53,0.32,-0.53,0.53,0.50,0.37,0.84,0.85,0.85
121.12,0.40,-0.41,0.35,-0.47,0.47,0.46,0.33,0.86,0.81,0.81
122.33,0.39,-0.39,0.37,-0.41,0.41,0.43,0.30,0.80,0.78,0.78
123.55,0.38,-0.37,0.39,-0.35,0.35,0.39,0.26,0.73,0.75,0.75
124.79,0.39,-0.33,0.41,-0.30,0.30,0.36,0.23,0.69,0.71,0.72
126.03,0.39,-0.30,0.43,-0.25,0.25,0.32,0.19,0.64,0.68,0.69
127.29,0.47,-0.20,0.45,-0.20,0.20,0.28,0.16,0.67,0.65,0.67
128.57,0.53,-0.10,0.48,-0.15,0.15,0.25,0.13,0.68,0.62,0.63
129.85,0.53,-0.07,0.49,-0.10,0.10,0.21,0.10,0.63,0.60,0.60
131.15,0.48,-0.09,0.51,-0.06,0.06,0.17,0.07,0.54,0.57,0.57
132.46,0.52,-0.02,0.52,-0.02,0.02,0.14,0.04,0.53,0.54,0.54
133.79,0.55,0.04,0.53,0.02,-0.02,0.10,0.01,0.53,0.51,0.51
135.12,0.55,0.07,0.54,0.05,-0.05,0.06,-0.01,0.49,0.48,0.48
136.48,0.55,0.09,0.54,0.09,-0.09,0.03,-0.04,0.46,0.46,0.46
137.84,0.56,0.14,0.55,0.12,-0.12,-0.01,-0.07,0.44,0.43,0.42
139.22,0.56,0.17,0.55,0.15,-0.15,-0.05,-0.09,0.40,0.40,0.39
140.61,0.56,0.20,0.56,0.19,-0.19,-0.09,-0.12,0.37,0.37,0.36
142.02,0.56,0.22,0.56,0.22,-0.22,-0.13,-0.14,0.33,0.34,0.34
143.44,0.56,0.25,0.57,0.27,-0.27,-0.17,-0.17,0.29,0.30,0.31
144.87,0.56,0.29,0.58,0.31,-0.31,-0.21,-0.19,0.24,0.26,0.27
146.32,0.56,0.33,0.59,0.37,-0.37,-0.25,-0.22,0.19,0.22,0.23
147.78,0.56,0.36,0.59,0.42,-0.42,-0.29,-0.24,0.14,0.17,0.20
149.26,0.56,0.41,0.60,0.48,-0.48,-0.33,-0.27,0.08,0.12,0.15
150.75,0.58,0.49,0.59,0.53,-0.53,-0.37,-0.29,0.04,0.06,0.09
152.26,0.63,0.61,0.59,0.59,-0.59,-0.41,-0.31,0.04,-0.00,0.02
153.78,0.66,0.71,0.58,0.65,-0.65,-0.45,-0.34,0.01,-0.07,-0.05
155.32,0.66,0.78,0.57,0.71,-0.71,-0.50,-0.36,-0.05,-0.14,-0.12
156.88,0.62,0.82,0.57,0.78,-0.78,-0.54,-0.39,-0.16,-0.21,-0.20
158.44,0.58,0.86,0.57,0.85,-0.85,-0.58,-0.41,-0.27,-0.28,-0.28
160.03,0.56,0.92,0.57,0.91,-0.91,-0.63,-0.44,-0.35,-0.35,-0.36
161.63,0.56,0.99,0.56,0.97,-0.97,-0.67,-0.47,-0.42,-0.41,-0.43
163.24,0.50,0.99,0.56,1.03,-1.03,-0.72,-0.49,-0.54,-0.47,-0.49
164.88,0.46,1.00,0.56,1.09,-1.09,-0.77,-0.52,-0.63,-0.53,-0.54
166.53,0.48,1.07,0.56,1.13,-1.13,-0.81,-0.55,-0.66,-0.58,-0.59
168.19,0.53,1.16,0.56,1.17,-1.17,-0.86,-0.58,-0.65,-0.62,-0.63
169.87,0.59,1.26,0.56,1.21,-1.21,-0.91,-0.61,-0.62,-0.65,-0.67
171.57,0.62,1.31,0.56,1.24,-1.24,-0.95,-0.64,-0.62,-0.67,-0.69
173.29,0.63,1.33,0.57,1.27,-1.27,-1.00,-0.67,-0.64,-0.69,-0.70
175.02,0.62,1.33,0.59,1.29,-1.29,-1.05,-0.70,-0.68,-0.71,-0.71
176.77,0.62,1.34,0.60,1.32,-1.32,-1.10,-0.73,-0.70,-0.72,-0.72
178.54,0.62,1.35,0.61,1.34,-1.34,-1.15,-0.76,-0.72,-0.73,-0.73
180.32,0.62,1.34,0.63,1.36,-1.36,-1.19,-0.80,-0.74,-0.73,-0.72
182.13,0.63,1.34,0.64,1.38,-1.38,-1.24,-0.83,-0.75,-0.74,-0.71
183.95,0.64,1.36,0.66,1.40,-1.40,-1.29,-0.87,-0.76,-0.74,-0.72
185.79,0.65,1.37,0.66,1.41,-1.41,-1.34,-0.90,-0.77,-0.75,-0.72
187.65,0.66,1.40,0.67,1.43,-1.43,-1.38,-0.94,-0.77,-0.76,-0.74
189.52,0.68,1.43,0.68,1.44,-1.44,-1.43,-0.97,-0.77,-0.77,-0.75
191.42,0.69,1.46,0.69,1.47,-1.47,-1.47,-1.01,-0.78,-0.78,-0.77
193.33,0.70,1.49,0.70,1.49,-1.49,-1.51,-1.05,-0.80,-0.79,-0.79
195.27,0.72,1.53,0.71,1.52,-1.52,-1.55,-1.09,-0.81,-0.81,-0.81
197.22,0.73,1.56,0.72,1.55,-1.55,-1.59,-1.13,-0.83,-0.83,-0.83
199.19,0.75,1.60,0.73,1.58,-1.58,-1.63,-1.16,-0.83,-0.85,-0.85
201.18,0.75,1.62,0.74,1.61,-1.61,-1.67,-1.20,-0.86,-0.87,-0.87
203.19,0.76,1.65,0.75,1.64,-1.64,-1.70,-1.24,-0.88,-0.89,-0.89
205.23,0.76,1.67,0.75,1.66,-1.66,-1.73,-1.28,-0.90,-0.91,-0.91
207.28,0.76,1.68,0.75,1.68,-1.68,-1.76,-1.32,-0.93,-0.93,-0.92
209.35,0.76,1.70,0.75,1.70,-1.70,-1.78,-1.36,-0.95,-0.95,-0.94
211.44,0.76,1.73,0.76,1.72,-1.72,-1.80,-1.40,-0.97,-0.97,-0.97
213.56,0.75,1.73,0.76,1.74,-1.74,-1.82,-1.43,-0.99,-0.98,-0.98
215.69,0.75,1.74,0.75,1.75,-1.75,-1.84,-1.47,-1.00,-1.00,-0.99
217.85,0.74,1.74,0.75,1.76,-1.76,-1.85,-1.50,-1.02,-1.01,-1.00
220.03,0.74,1.75,0.74,1.76,-1.76,-1.86,-1.54,-1.02,-1.02,-1.01
222.23,0.74,1.78,0.74,1.76,-1.76,-1.86,-1.57,-1.02,-1.02,-1.04
224.45,0.74,1.77,0.73,1.76,-1.76,-1.86,-1.60,-1.02,-1.03,-1.03
226.70,0.74,1.77,0.73,1.75,-1.75,-1.86,-1.63,-1.01,-1.02,-1.03
228.96,0.74,1.76,0.72,1.74,-1.74,-1.86,-1.66,-1.01,-1.02,-1.02
231.25,0.75,1.76,0.73,1.74,-1.74,-1.85,-1.69,-0.99,-1.01,-1.01
233.57,0.75,1.75,0.73,1.73,-1.73,-1.84,-1.71,-0.98,-1.00,-1.00
235.90,0.68,1.67,0.73,1.72,-1.72,-1.82,-1.73,-1.04,-0.99,-0.99
238.26,0.69,1.67,0.73,1.70,-1.70,-1.80,-1.75,-1.02,-0.97,-0.98
240.64,0.71,1.66,0.74,1.69,-1.69,-1.78,-1.76,-0.98,-0.95,-0.95
243.05,0.72,1.64,0.74,1.67,-1.67,-1.76,-1.77,-0.95,-0.93,-0.92
245.48,0.74,1.64,0.74,1.65,-1.65,-1.73,-1.78,-0.91,-0.91,-0.90
247.93,0.77,1.64,0.74,1.63,-1.63,-1.71,-1.79,-0.86,-0.88,-0.87
250.41,0.79,1.64,0.75,1.60,-1.60,-1.68,-1.79,-0.82,-0.86,-0.85
252.92,0.80,1.62,0.75,1.58,-1.58,-1.65,-1.79,-0.78,-0.83,-0.82
255.45,0.79,1.59,0.74,1.56,-1.56,-1.61,-1.78,-0.77,-0.81,-0.80
258.00,0.74,1.52,0.74,1.53,-1.53,-1.58,-1.78,-0.79,-0.79,-0.78
260.58,0.73,1.49,0.74,1.50,-1.50,-1.54,-1.77,-0.78,-0.76,-0.76
263.19,0.73,1.46,0.75,1.48,-1.48,-1.51,-1.75,-0.76,-0.74,-0.73
265.82,0.73,1.44,0.75,1.46,-1.46,-1.47,-1.74,-0.73,-0.71,-0.71
268.48,0.72,1.41,0.74,1.43,-1.43,-1.44,-1.72,-0.71,-0.69,-0.69
271.16,0.72,1.38,0.74,1.40,-1.40,-1.40,-1.70,-0.68,-0.66,-0.66
273.87,0.72,1.36,0.73,1.37,-1.37,-1.36,-1.67,-0.65,-0.64,-0.64
276.61,0.71,1.32,0.72,1.33,-1.33,-1.32,-1.65,-0.62,-0.61,-0.61
279.38,0.71,1.29,0.71,1.29,-1.29,-1.28,-1.62,-0.58,-0.58,-0.58
282.17,0.72,1.28,0.70,1.25,-1.25,-1.25,-1.59,-0.54,-0.56,-0.56
284.99,0.72,1.24,0.69,1.22,-1.22,-1.21,-1.56,-0.50,-0.53,-0.52
287.84,0.73,1.23,0.68,1.18,-1.18,-1.17,-1.53,-0.45,-0.50,-0.50
290.72,0.74,1.21,0.67,1.14,-1.14,-1.14,-1.49,-0.40,-0.47,-0.47
293.63,0.67,1.11,0.66,1.10,-1.10,-1.10,-1.46,-0.44,-0.44,-0.44
296.57,0.63,1.04,0.65,1.06,-1.06,-1.07,-1.42,-0.44,-0.41,-0.41
299.53,0.59,0.97,0.64,1.03,-1.03,-1.03,-1.39,-0.44,-0.38,-0.38
302.53,0.59,0.95,0.64,0.99,-0.99,-1.00,-1.35,-0.41,-0.36,-0.36
305.55,0.60,0.92,0.63,0.96,-0.96,-0.96,-1.32,-0.37,-0.33,-0.32
308.61,0.61,0.91,0.63,0.93,-0.93,-0.93,-1.28,-0.33,-0.31,-0.30
311.69,0.62,0.89,0.62,0.90,-0.90,-0.90,-1.24,-0.28,-0.28,-0.27
314.81,0.62,0.87,0.61,0.87,-0.87,-0.87,-1.20,-0.25,-0.26,-0.25
317.96,0.62,0.85,0.60,0.84,-0.84,-0.84,-1.17,-0.23,-0.24,-0.23
321.14,0.62,0.84,0.60,0.82,-0.82,-0.81,-1.13,-0.20,-0.22,-0.22
324.35,0.62,0.82,0.60,0.80,-0.80,-0.78,-1.10,-0.18,-0.20,-0.20
327.59,0.62,0.81,0.60,0.79,-0.79,-0.75,-1.06,-0.17,-0.19,-0.19
330.87,0.62,0.80,0.59,0.76,-0.76,-0.72,-1.03,-0.15,-0.18,-0.18
334.18,0.62,0.78,0.58,0.74,-0.74,-0.69,-0.99,-0.13,-0.16,-0.16
337.52,0.56,0.71,0.57,0.72,-0.72,-0.67,-0.96,-0.16,-0.15,-0.15
340.90,0.52,0.66,0.55,0.70,-0.70,-0.64,-0.92,-0.18,-0.15,-0.14
344.30,0.51,0.64,0.53,0.67,-0.67,-0.62,-0.89,-0.17,-0.14,-0.13
347.75,0.51,0.64,0.52,0.65,-0.65,-0.59,-0.86,-0.14,-0.13,-0.13
351.23,0.52,0.64,0.50,0.62,-0.62,-0.57,-0.83,-0.11,-0.13,-0.12
354.74,0.50,0.63,0.48,0.60,-0.60,-0.55,-0.80,-0.10,-0.13,-0.13
358.28,0.44,0.56,0.46,0.58,-0.58,-0.52,-0.77,-0.14,-0.12,-0.12
361.87,0.43,0.55,0.44,0.56,-0.56,-0.50,-0.74,-0.13,-0.12,-0.12
365.49,0.43,0.54,0.42,0.54,-0.54,-0.48,-0.71,-0.12,-0.12,-0.11
369.14,0.44,0.56,0.41,0.53,-0.53,-0.46,-0.68,-0.09,-0.12,-0.12
372.83,0.41,0.53,0.40,0.53,-0.53,-0.44,-0.65,-0.12,-0.12,-0.12
376.56,0.36,0.49,0.40,0.53,-0.53,-0.42,-0.63,-0.17,-0.12,-0.13
380.33,0.36,0.48,0.39,0.52,-0.52,-0.40,-0.60,-0.16,-0.13,-0.12
384.13,0.37,0.49,0.39,0.52,-0.52,-0.38,-0.57,-0.15,-0.13,-0.12
387.97,0.37,0.50,0.38,0.52,-0.52,-0.37,-0.55,-0.15,-0.14,-0.13
391.85,0.38,0.52,0.38,0.52,-0.52,-0.35,-0.53,-0.14,-0.14,-0.14
395.77,0.38,0.51,0.38,0.52,-0.52,-0.33,-0.50,-0.15,-0.15,-0.13
399.73,0.38,0.52,0.37,0.52,-0.52,-0.31,-0.48,-0.14,-0.15,-0.14
403.72,0.37,0.51,0.35,0.51,-0.51,-0.30,-0.46,-0.14,-0.16,-0.14
407.76,0.37,0.53,0.33,0.49,-0.49,-0.28,-0.44,-0.12,-0.16,-0.16
411.84,0.37,0.53,0.30,0.46,-0.46,-0.27,-0.41,-0.09,-0.16,-0.16
415.96,0.29,0.45,0.27,0.44,-0.44,-0.25,-0.39,-0.15,-0.16,-0.16
420.12,0.25,0.41,0.25,0.41,-0.41,-0.24,-0.37,-0.16,-0.16,-0.16
424.32,0.27,0.43,0.21,0.36,-0.36,-0.22,-0.35,-0.09,-0.16,-0.16
428.56,0.22,0.37,0.16,0.31,-0.31,-0.21,-0.33,-0.09,-0.15,-0.15
432.85,0.14,0.28,0.12,0.25,-0.25,-0.19,-0.32,-0.11,-0.13,-0.14
437.18,0.02,0.15,0.08,0.19,-0.19,-0.18,-0.30,-0.18,-0.11,-0.13
441.55,-0.02,0.07,0.06,0.14,-0.14,-0.17,-0.28,-0.16,-0.08,-0.09
445.96,0.01,0.07,0.03,0.08,-0.08,-0.15,-0.26,-0.07,-0.05,-0.06
450.42,0.01,0.04,0.01,0.03,-0.03,-0.14,-0.25,-0.02,-0.02,-0.03
454.93,0.01,-0.01,0.01,-0.01,0.01,-0.13,-0.23,0.02,0.02,0.02
459.48,0.02,-0.04,0.03,-0.04,0.04,-0.12,-0.21,0.06,0.07,0.06
464.07,-0.03,-0.14,0.05,-0.06,0.06,-0.10,-0.20,0.03,0.11,0.11
468.71,-0.01,-0.18,0.08,-0.08,0.08,-0.09,-0.18,0.06,0.16,0.17
473.40,0.07,-0.14,0.13,-0.09,0.09,-0.08,-0.17,0.15,0.21,0.21
478.13,0.20,-0.07,0.18,-0.08,0.08,-0.07,-0.15,0.28,0.26,0.27
482.91,0.26,-0.05,0.23,-0.07,0.07,-0.06,-0.14,0.33,0.30,0.31
487.74,0.29,-0.06,0.29,-0.05,0.05,-0.04,-0.12,0.34,0.35,0.35
492.62,0.34,-0.06,0.34,-0.04,0.04,-0.03,-0.11,0.38,0.38,0.40
497.55,0.46,0.04,0.39,-0.02,0.02,-0.02,-0.10,0.48,0.41,0.42
502.52,0.52,0.07,0.43,-0.00,0.00,-0.01,-0.09,0.52,0.44,0.45
507.55,0.51,0.05,0.47,0.02,-0.02,0.00,-0.07,0.49,0.45,0.46
