frequency,raw,error,smoothed,error_smoothed,equalization,parametric_eq,fixed_band_eq,equalized_raw,equalized_smoothed,target
20.00,-3.11,-10.90,-3.12,-10.91,10.93,10.71,3.99,7.83,7.81,7.79
20.20,-3.10,-10.90,-3.08,-10.88,10.88,10.66,4.10,7.78,7.80,7.80
20.40,-3.03,-10.84,-3.02,-10.83,10.82,10.61,4.21,7.79,7.80,7.81
20.61,-2.96,-10.78,-2.96,-10.78,10.76,10.56,4.33,7.80,7.80,7.82
20.81,-2.88,-10.70,-2.88,-10.71,10.70,10.52,4.44,7.82,7.82,7.82
21.02,-2.81,-10.64,-2.81,-10.64,10.64,10.47,4.56,7.83,7.83,7.83
21.23,-2.74,-10.58,-2.74,-10.58,10.58,10.42,4.68,7.84,7.84,7.84
21.44,-2.67,-10.52,-2.66,-10.51,10.51,10.37,4.81,7.85,7.85,7.85
21.66,-2.59,-10.44,-2.59,-10.45,10.44,10.32,4.94,7.86,7.85,7.85
21.87,-2.52,-10.38,-2.52,-10.38,10.38,10.27,5.08,7.86,7.86,7.86
22.09,-2.45,-10.31,-2.44,-10.31,10.31,10.22,5.21,7.86,7.86,7.86
22.31,-2.37,-10.24,-2.37,-10.24,10.24,10.17,5.36,7.87,7.87,7.87
22.54,-2.30,-10.17,-2.30,-10.17,10.17,10.11,5.50,7.87,7.88,7.87
22.76,-2.23,-10.11,-2.22,-10.10,10.11,10.06,5.65,7.88,7.88,7.88
22.99,-2.15,-10.03,-2.16,-10.04,10.04,10.01,5.80,7.89,7.88,7.88
23.22,-2.09,-9.97,-2.09,-9.97,9.97,9.96,5.96,7.88,7.88,7.88
23.45,-2.03,-9.92,-2.02,-9.91,9.90,9.90,6.12,7.88,7.88,7.89
23.69,-1.95,-9.84,-1.95,-9.84,9.84,9.85,6.29,7.89,7.88,7.89
23.92,-1.88,-9.77,-1.88,-9.77,9.77,9.80,6.45,7.89,7.89,7.89
24.16,-1.81,-9.70,-1.80,-9.70,9.70,9.74,6.62,7.89,7.90,7.89
24.40,-1.73,-9.63,-1.73,-9.63,9.63,9.69,6.80,7.90,7.90,7.90
24.65,-1.66,-9.56,-1.66,-9.56,9.56,9.63,6.98,7.90,7.90,7.90
24.89,-1.59,-9.49,-1.59,-9.49,9.49,9.57,7.16,7.91,7.90,7.90
25.14,-1.53,-9.43,-1.52,-9.42,9.42,9.52,7.34,7.90,7.90,7.90
25.39,-1.46,-9.36,-1.46,-9.36,9.35,9.46,7.53,7.90,7.90,7.90
25.65,-1.39,-9.29,-1.39,-9.29,9.29,9.41,7.72,7.90,7.90,7.90
25.91,-1.32,-9.22,-1.32,-9.22,9.22,9.35,7.91,7.90,7.90,7.90
26.16,-1.25,-9.15,-1.25,-9.15,9.15,9.29,8.10,7.91,7.90,7.90
26.43,-1.19,-9.09,-1.19,-9.09,9.09,9.23,8.29,7.90,7.90,7.90
26.69,-1.12,-9.02,-1.12,-9.02,9.03,9.17,8.48,7.91,7.90,7.90
26.96,-1.07,-8.97,-1.06,-8.96,8.96,9.12,8.67,7.89,7.90,7.90
27.23,-1.00,-8.90,-1.00,-8.90,8.90,9.06,8.85,7.90,7.90,7.90
27.50,-0.94,-8.84,-0.94,-8.84,8.84,9.00,9.04,7.90,7.90,7.90
27.77,-0.88,-8.78,-0.88,-8.78,8.78,8.94,9.22,7.90,7.90,7.90
28.05,-0.82,-8.72,-0.82,-8.72,8.72,8.88,9.39,7.90,7.90,7.90
28.33,-0.76,-8.66,-0.76,-8.66,8.66,8.82,9.55,7.90,7.90,7.90
28.62,-0.70,-8.60,-0.70,-8.60,8.60,8.76,9.71,7.90,7.90,7.90
28.90,-0.64,-8.54,-0.64,-8.54,8.54,8.69,9.86,7.91,7.90,7.90
29.19,-0.59,-8.49,-0.58,-8.48,8.49,8.63,9.99,7.90,7.90,7.90
29.48,-0.53,-8.43,-0.53,-8.43,8.43,8.57,10.11,7.90,7.90,7.90
29.78,-0.47,-8.37,-0.47,-8.37,8.37,8.51,10.22,7.91,7.90,7.90
30.08,-0.42,-8.32,-0.42,-8.32,8.32,8.45,10.31,7.90,7.90,7.90
30.38,-0.38,-8.27,-0.37,-8.26,8.26,8.38,10.38,7.88,7.89,7.89
30.68,-0.31,-8.20,-0.31,-8.20,8.20,8.32,10.43,7.89,7.89,7.89
30.99,-0.25,-8.14,-0.26,-8.14,8.14,8.26,10.47,7.89,7.88,7.89
31.30,-0.21,-8.09,-0.20,-8.08,8.08,8.19,10.48,7.88,7.88,7.88
31.61,-0.15,-8.03,-0.15,-8.02,8.03,8.13,10.48,7.88,7.88,7.88
31.93,-0.09,-7.96,-0.09,-7.96,7.97,8.07,10.45,7.88,7.88,7.87
32.24,-0.03,-7.90,-0.04,-7.90,7.91,8.00,10.41,7.88,7.87,7.87
32.57,0.01,-7.85,0.01,-7.85,7.85,7.94,10.34,7.86,7.87,7.86
32.89,0.05,-7.81,0.06,-7.80,7.79,7.87,10.27,7.85,7.85,7.86
33.22,0.11,-7.74,0.11,-7.74,7.74,7.81,10.17,7.85,7.85,7.85
33.55,0.16,-7.69,0.17,-7.68,7.68,7.74,10.06,7.84,7.85,7.85
33.89,0.22,-7.62,0.22,-7.62,7.62,7.67,9.94,7.85,7.84,7.84
34.23,0.27,-7.56,0.27,-7.56,7.57,7.61,9.81,7.84,7.84,7.83
34.57,0.31,-7.51,0.32,-7.51,7.51,7.54,9.66,7.82,7.83,7.82
34.92,0.36,-7.45,0.36,-7.45,7.45,7.48,9.51,7.81,7.81,7.81
35.27,0.41,-7.40,0.41,-7.39,7.39,7.41,9.35,7.80,7.80,7.81
35.62,0.46,-7.33,0.46,-7.33,7.33,7.34,9.19,7.79,7.79,7.79
35.97,0.50,-7.28,0.51,-7.27,7.27,7.28,9.02,7.77,7.78,7.78
36.33,0.56,-7.21,0.56,-7.21,7.21,7.21,8.85,7.77,7.77,7.77
36.70,0.60,-7.15,0.60,-7.15,7.15,7.14,8.67,7.75,7.75,7.75
37.06,0.65,-7.09,0.66,-7.08,7.09,7.07,8.50,7.74,7.74,7.74
37.43,0.70,-7.02,0.70,-7.02,7.02,7.00,8.33,7.73,7.72,7.72
37.81,0.75,-6.95,0.75,-6.96,6.96,6.94,8.16,7.71,7.71,7.70
38.19,0.78,-6.91,0.79,-6.90,6.90,6.87,7.99,7.68,7.69,7.69
38.57,0.83,-6.84,0.83,-6.84,6.84,6.80,7.82,7.67,7.67,7.67
38.95,0.86,-6.79,0.87,-6.79,6.78,6.73,7.65,7.65,7.65,7.65
39.34,0.91,-6.72,0.91,-6.72,6.72,6.66,7.49,7.64,7.63,7.63
39.74,0.94,-6.67,0.95,-6.67,6.66,6.59,7.33,7.60,7.61,7.61
40.14,0.99,-6.60,0.99,-6.60,6.60,6.53,7.17,7.59,7.59,7.59
40.54,1.02,-6.55,1.03,-6.54,6.54,6.46,7.02,7.56,7.57,7.57
40.94,1.07,-6.47,1.07,-6.47,6.48,6.39,6.87,7.55,7.54,7.54
41.35,1.11,-6.41,1.11,-6.41,6.41,6.32,6.73,7.52,7.52,7.52
41.76,1.14,-6.35,1.15,-6.34,6.34,6.25,6.59,7.49,7.49,7.49
42.18,1.19,-6.28,1.19,-6.28,6.28,6.18,6.45,7.47,7.47,7.47
42.60,1.22,-6.22,1.23,-6.21,6.21,6.11,6.32,7.44,7.44,7.44
43.03,1.27,-6.14,1.27,-6.15,6.15,6.04,6.19,7.42,7.41,7.41
43.46,1.30,-6.08,1.30,-6.08,6.08,5.97,6.07,7.38,7.38,7.38
43.90,1.33,-6.02,1.34,-6.01,6.01,5.90,5.95,7.35,7.35,7.35
44.33,1.38,-5.94,1.38,-5.95,5.95,5.83,5.84,7.33,7.32,7.32
44.78,1.41,-5.88,1.41,-5.88,5.88,5.76,5.73,7.29,7.29,7.29
45.23,1.44,-5.82,1.45,-5.81,5.81,5.69,5.62,7.25,7.25,7.26
45.68,1.47,-5.75,1.48,-5.74,5.74,5.62,5.52,7.21,7.22,7.22
46.13,1.52,-5.66,1.52,-5.67,5.67,5.55,5.42,7.19,7.19,7.18
46.60,1.55,-5.59,1.55,-5.59,5.60,5.48,5.33,7.15,7.15,7.14
47.06,1.58,-5.53,1.58,-5.52,5.52,5.41,5.24,7.11,7.11,7.11
47.53,1.61,-5.46,1.61,-5.46,5.45,5.34,5.15,7.06,7.06,7.07
48.01,1.64,-5.38,1.65,-5.38,5.37,5.27,5.07,7.01,7.02,7.02
48.49,1.68,-5.30,1.68,-5.30,5.29,5.20,4.99,6.98,6.98,6.98
48.97,1.72,-5.21,1.72,-5.21,5.22,5.13,4.91,6.94,6.94,6.93
49.46,1.75,-5.14,1.75,-5.14,5.14,5.06,4.84,6.89,6.89,6.89
49.96,1.78,-5.06,1.78,-5.06,5.07,4.99,4.77,6.85,6.85,6.84
50.46,1.81,-4.99,1.82,-4.99,4.99,4.92,4.70,6.80,6.80,6.80
50.96,1.85,-4.91,1.84,-4.92,4.91,4.85,4.64,6.77,6.76,6.76
51.47,1.87,-4.85,1.88,-4.84,4.84,4.78,4.58,6.71,6.72,6.72
51.99,1.90,-4.77,1.91,-4.77,4.77,4.71,4.52,6.67,6.67,6.67
52.51,1.94,-4.69,1.93,-4.70,4.69,4.64,4.46,6.63,6.63,6.63
53.03,1.96,-4.63,1.97,-4.62,4.62,4.57,4.41,6.58,6.58,6.59
53.56,1.99,-4.55,2.00,-4.54,4.54,4.50,4.35,6.53,6.54,6.54
54.10,2.03,-4.46,2.02,-4.47,4.47,4.43,4.30,6.50,6.49,6.49
54.64,2.05,-4.39,2.05,-4.39,4.39,4.36,4.25,6.44,6.44,6.44
55.18,2.07,-4.32,2.08,-4.31,4.32,4.29,4.20,6.39,6.39,6.39
55.74,2.11,-4.23,2.10,-4.24,4.24,4.22,4.15,6.35,6.35,6.34
56.29,2.12,-4.18,2.13,-4.17,4.17,4.15,4.10,6.29,6.30,6.30
56.86,2.16,-4.10,2.16,-4.10,4.10,4.08,4.04,6.26,6.26,6.26
57.42,2.18,-4.03,2.18,-4.03,4.04,4.01,3.99,6.22,6.22,6.21
58.00,2.20,-3.97,2.21,-3.96,3.97,3.94,3.94,6.17,6.18,6.17
58.58,2.24,-3.89,2.23,-3.90,3.90,3.87,3.89,6.14,6.13,6.13
59.16,2.24,-3.85,2.26,-3.84,3.83,3.80,3.84,6.07,6.09,6.09
59.76,2.29,-3.76,2.28,-3.76,3.76,3.73,3.78,6.05,6.04,6.05
60.35,2.29,-3.70,2.30,-3.69,3.68,3.66,3.73,5.97,5.98,5.99
60.96,2.33,-3.60,2.33,-3.61,3.60,3.59,3.67,5.94,5.93,5.93
61.57,2.33,-3.54,2.34,-3.53,3.52,3.52,3.61,5.86,5.86,5.87
62.18,2.37,-3.43,2.36,-3.44,3.44,3.46,3.55,5.82,5.81,5.80
62.80,2.37,-3.37,2.38,-3.36,3.37,3.39,3.49,5.74,5.75,5.74
63.43,2.41,-3.27,2.41,-3.28,3.29,3.32,3.42,5.70,5.69,5.68
64.07,2.42,-3.21,2.42,-3.21,3.21,3.25,3.36,5.64,5.64,5.63
64.71,2.44,-3.14,2.44,-3.14,3.14,3.18,3.29,5.58,5.58,5.58
65.35,2.46,-3.07,2.46,-3.07,3.07,3.11,3.22,5.53,5.53,5.53
66.01,2.47,-3.01,2.48,-3.01,3.00,3.04,3.14,5.47,5.47,5.48
66.67,2.50,-2.93,2.49,-2.93,2.93,2.97,3.07,5.43,5.42,5.43
67.33,2.50,-2.87,2.52,-2.85,2.85,2.90,2.99,5.36,5.37,5.37
68.01,2.54,-2.77,2.53,-2.78,2.78,2.83,2.92,5.33,5.31,5.31
68.69,2.55,-2.70,2.55,-2.71,2.71,2.76,2.84,5.26,5.26,5.25
69.37,2.55,-2.65,2.57,-2.63,2.63,2.69,2.76,5.19,5.20,5.20
70.07,2.59,-2.55,2.58,-2.56,2.56,2.62,2.67,5.15,5.14,5.14
70.77,2.59,-2.49,2.60,-2.48,2.48,2.55,2.59,5.07,5.08,5.08
71.48,2.61,-2.41,2.61,-2.41,2.40,2.48,2.51,5.02,5.02,5.02
72.19,2.63,-2.33,2.62,-2.33,2.33,2.41,2.42,4.96,4.95,4.96
72.91,2.63,-2.26,2.64,-2.25,2.25,2.34,2.34,4.89,4.90,4.89
73.64,2.66,-2.17,2.66,-2.17,2.18,2.27,2.25,4.84,4.84,4.83
74.38,2.68,-2.09,2.67,-2.10,2.10,2.20,2.17,4.79,4.77,4.77
75.12,2.68,-2.03,2.69,-2.03,2.03,2.13,2.08,4.71,4.72,4.71
75.87,2.68,-1.98,2.70,-1.96,1.96,2.06,1.99,4.64,4.66,4.66
76.63,2.72,-1.88,2.71,-1.90,1.89,1.99,1.91,4.61,4.60,4.60
77.40,2.72,-1.83,2.72,-1.83,1.83,1.92,1.82,4.55,4.55,4.55
78.17,2.72,-1.77,2.74,-1.75,1.76,1.85,1.73,4.48,4.50,4.49
78.95,2.76,-1.68,2.75,-1.69,1.69,1.78,1.65,4.46,4.44,4.44
79.74,2.76,-1.63,2.76,-1.63,1.63,1.71,1.56,4.39,4.38,4.39
80.54,2.76,-1.57,2.77,-1.56,1.56,1.64,1.48,4.32,4.33,4.33
81.35,2.76,-1.51,2.78,-1.50,1.49,1.56,1.39,4.25,4.27,4.27
82.16,2.81,-1.41,2.80,-1.42,1.42,1.49,1.31,4.24,4.22,4.22
82.98,2.81,-1.35,2.81,-1.35,1.36,1.42,1.22,4.17,4.16,4.16
83.81,2.81,-1.29,2.82,-1.28,1.29,1.35,1.14,4.10,4.11,4.10
84.65,2.81,-1.23,2.82,-1.22,1.22,1.28,1.05,4.03,4.04,4.04
85.50,2.83,-1.15,2.83,-1.15,1.15,1.21,0.97,3.99,3.99,3.98
86.35,2.85,-1.08,2.84,-1.08,1.09,1.14,0.89,3.94,3.93,3.93
87.22,2.85,-1.02,2.85,-1.02,1.02,1.07,0.81,3.87,3.87,3.87
88.09,2.85,-0.96,2.86,-0.96,0.95,1.00,0.72,3.80,3.80,3.81
88.97,2.85,-0.90,2.87,-0.89,0.88,0.93,0.64,3.73,3.75,3.75
89.86,2.89,-0.80,2.88,-0.81,0.81,0.85,0.56,3.70,3.69,3.69
90.76,2.89,-0.74,2.89,-0.74,0.75,0.78,0.48,3.64,3.64,3.63
91.66,2.89,-0.67,2.90,-0.67,0.68,0.71,0.40,3.57,3.57,3.56
92.58,2.89,-0.61,2.89,-0.61,0.61,0.64,0.32,3.50,3.50,3.50
93.51,2.89,-0.55,2.89,-0.55,0.55,0.57,0.24,3.44,3.44,3.44
94.44,2.89,-0.49,2.89,-0.49,0.48,0.50,0.16,3.37,3.37,3.38
95.39,2.89,-0.42,2.89,-0.42,0.41,0.43,0.08,3.31,3.31,3.31
96.34,2.89,-0.35,2.89,-0.35,0.35,0.36,0.00,3.24,3.24,3.24
97.30,2.89,-0.29,2.89,-0.29,0.29,0.29,-0.08,3.18,3.18,3.18
98.28,2.89,-0.22,2.89,-0.22,0.22,0.22,-0.15,3.11,3.11,3.11
99.26,2.89,-0.15,2.89,-0.15,0.15,0.15,-0.23,3.05,3.05,3.04
100.25,2.89,-0.08,2.89,-0.09,0.09,0.08,-0.31,2.98,2.98,2.97
101.25,2.89,-0.03,2.89,-0.02,0.02,0.01,-0.39,2.92,2.92,2.92
102.27,2.89,0.03,2.90,0.04,-0.04,-0.06,-0.46,2.85,2.86,2.86
103.29,2.91,0.11,2.91,0.10,-0.10,-0.13,-0.54,2.81,2.80,2.80
104.32,2.91,0.17,2.91,0.17,-0.16,-0.20,-0.61,2.75,2.75,2.74
105.37,2.91,0.23,2.91,0.23,-0.23,-0.27,-0.68,2.68,2.69,2.68
106.42,2.91,0.28,2.91,0.29,-0.29,-0.33,-0.76,2.62,2.62,2.63
107.48,2.91,0.35,2.91,0.35,-0.36,-0.40,-0.83,2.55,2.56,2.56
108.56,2.91,0.41,2.92,0.42,-0.42,-0.47,-0.90,2.49,2.50,2.50
109.64,2.94,0.50,2.93,0.49,-0.49,-0.54,-0.96,2.45,2.44,2.44
110.74,2.94,0.56,2.94,0.56,-0.55,-0.60,-1.03,2.39,2.39,2.38
111.85,2.94,0.62,2.95,0.63,-0.62,-0.67,-1.10,2.32,2.32,2.32
112.97,2.94,0.69,2.94,0.69,-0.69,-0.74,-1.16,2.25,2.25,2.25
114.10,2.94,0.75,2.94,0.75,-0.76,-0.80,-1.22,2.19,2.19,2.19
115.24,2.94,0.82,2.94,0.82,-0.82,-0.87,-1.28,2.12,2.12,2.12
116.39,2.94,0.89,2.94,0.89,-0.89,-0.93,-1.34,2.05,2.05,2.05
117.55,2.94,0.95,2.94,0.96,-0.95,-0.99,-1.39,1.99,1.99,1.99
118.73,2.94,1.02,2.94,1.02,-1.02,-1.06,-1.44,1.92,1.92,1.92
119.92,2.94,1.08,2.95,1.08,-1.08,-1.12,-1.49,1.86,1.86,1.86
121.12,2.95,1.14,2.95,1.15,-1.14,-1.18,-1.54,1.81,1.81,1.81
122.33,2.96,1.21,2.96,1.21,-1.20,-1.24,-1.58,1.76,1.76,1.75
123.55,2.96,1.27,2.96,1.27,-1.26,-1.30,-1.62,1.70,1.70,1.69
124.79,2.96,1.33,2.96,1.32,-1.32,-1.36,-1.66,1.64,1.63,1.63
126.03,2.94,1.37,2.95,1.38,-1.38,-1.42,-1.69,1.56,1.57,1.57
127.29,2.94,1.43,2.94,1.44,-1.44,-1.48,-1.73,1.50,1.50,1.51
128.57,2.94,1.50,2.94,1.50,-1.50,-1.54,-1.76,1.44,1.44,1.44
129.85,2.94,1.56,2.94,1.56,-1.56,-1.59,-1.78,1.38,1.38,1.38
131.15,2.94,1.62,2.94,1.62,-1.62,-1.65,-1.81,1.32,1.32,1.32
132.46,2.94,1.68,2.95,1.69,-1.67,-1.71,-1.83,1.27,1.27,1.26
133.79,2.94,1.74,2.94,1.74,-1.73,-1.76,-1.85,1.21,1.21,1.20
135.12,2.94,1.80,2.93,1.79,-1.78,-1.81,-1.87,1.16,1.15,1.14
136.48,2.91,1.82,2.92,1.83,-1.83,-1.87,-1.88,1.08,1.08,1.09
137.84,2.89,1.86,2.90,1.87,-1.88,-1.92,-1.90,1.01,1.02,1.03
139.22,2.89,1.92,2.89,1.92,-1.92,-1.97,-1.91,0.97,0.97,0.97
140.61,2.89,1.97,2.89,1.97,-1.97,-2.02,-1.92,0.93,0.93,0.92
142.02,2.89,2.02,2.89,2.02,-2.01,-2.07,-1.94,0.88,0.88,0.87
143.44,2.89,2.07,2.88,2.05,-2.05,-2.12,-1.95,0.84,0.83,0.82
144.87,2.85,2.07,2.87,2.09,-2.09,-2.17,-1.96,0.76,0.77,0.78
146.32,2.85,2.12,2.85,2.12,-2.13,-2.21,-1.97,0.72,0.72,0.73
147.78,2.85,2.17,2.85,2.17,-2.17,-2.26,-1.98,0.68,0.68,0.68
149.26,2.85,2.22,2.85,2.22,-2.21,-2.30,-1.99,0.64,0.64,0.63
150.75,2.85,2.27,2.84,2.25,-2.25,-2.35,-2.00,0.60,0.59,0.58
152.26,2.81,2.27,2.83,2.29,-2.29,-2.39,-2.01,0.52,0.54,0.54
153.78,2.81,2.32,2.82,2.33,-2.33,-2.43,-2.02,0.48,0.49,0.49
155.32,2.81,2.37,2.81,2.37,-2.37,-2.47,-2.03,0.44,0.44,0.44
156.88,2.81,2.42,2.80,2.41,-2.41,-2.51,-2.04,0.40,0.40,0.39
158.44,2.79,2.45,2.79,2.45,-2.45,-2.55,-2.06,0.35,0.34,0.34
160.03,2.76,2.47,2.77,2.48,-2.49,-2.59,-2.07,0.28,0.29,0.29
161.63,2.76,2.52,2.77,2.52,-2.53,-2.62,-2.09,0.24,0.24,0.24
163.24,2.76,2.57,2.76,2.57,-2.57,-2.66,-2.11,0.20,0.19,0.19
164.88,2.76,2.62,2.75,2.61,-2.61,-2.69,-2.13,0.16,0.14,0.14
166.53,2.72,2.63,2.74,2.64,-2.65,-2.73,-2.15,0.08,0.09,0.09
168.19,2.72,2.68,2.73,2.69,-2.69,-2.76,-2.17,0.04,0.04,0.04
169.87,2.72,2.73,2.72,2.73,-2.73,-2.80,-2.20,-0.00,-0.01,-0.01
171.57,2.72,2.78,2.71,2.77,-2.77,-2.83,-2.22,-0.04,-0.06,-0.06
173.29,2.68,2.79,2.70,2.81,-2.80,-2.86,-2.25,-0.12,-0.11,-0.11
175.02,2.68,2.84,2.69,2.85,-2.84,-2.89,-2.28,-0.16,-0.16,-0.16
176.77,2.68,2.89,2.67,2.88,-2.88,-2.92,-2.31,-0.20,-0.21,-0.21
178.54,2.66,2.92,2.66,2.92,-2.92,-2.94,-2.35,-0.26,-0.26,-0.26
180.32,2.63,2.94,2.65,2.95,-2.95,-2.97,-2.38,-0.32,-0.31,-0.31
182.13,2.63,2.99,2.63,2.99,-2.99,-3.00,-2.42,-0.36,-0.36,-0.36
183.95,2.63,3.03,2.62,3.02,-3.03,-3.02,-2.46,-0.39,-0.40,-0.40
185.79,2.61,3.06,2.61,3.06,-3.06,-3.05,-2.50,-0.45,-0.45,-0.45
187.65,2.59,3.09,2.60,3.10,-3.10,-3.07,-2.55,-0.51,-0.50,-0.50
189.52,2.59,3.14,2.59,3.14,-3.14,-3.10,-2.59,-0.54,-0.55,-0.55
191.42,2.59,3.18,2.58,3.17,-3.17,-3.12,-2.64,-0.58,-0.59,-0.59
193.33,2.55,3.19,2.57,3.20,-3.21,-3.14,-2.69,-0.65,-0.64,-0.64
195.27,2.55,3.23,2.56,3.24,-3.24,-3.16,-2.74,-0.69,-0.68,-0.68
197.22,2.55,3.28,2.55,3.27,-3.27,-3.18,-2.79,-0.72,-0.72,-0.73
199.19,2.55,3.32,2.54,3.31,-3.30,-3.20,-2.84,-0.75,-0.77,-0.77
201.18,2.50,3.31,2.52,3.33,-3.33,-3.22,-2.89,-0.83,-0.81,-0.81
203.19,2.50,3.35,2.51,3.35,-3.36,-3.24,-2.94,-0.85,-0.85,-0.85
205.23,2.50,3.38,2.50,3.38,-3.38,-3.26,-3.00,-0.88,-0.89,-0.88
207.28,2.50,3.42,2.49,3.41,-3.41,-3.28,-3.05,-0.90,-0.92,-0.92
209.35,2.46,3.42,2.48,3.43,-3.43,-3.29,-3.11,-0.97,-0.95,-0.96
211.44,2.46,3.45,2.46,3.45,-3.45,-3.31,-3.16,-0.99,-0.99,-0.99
213.56,2.45,3.47,2.44,3.46,-3.47,-3.33,-3.22,-1.02,-1.03,-1.02
215.69,2.42,3.47,2.44,3.49,-3.49,-3.34,-3.27,-1.07,-1.05,-1.05
217.85,2.42,3.50,2.42,3.50,-3.50,-3.36,-3.32,-1.08,-1.08,-1.08
220.03,2.42,3.54,2.40,3.52,-3.52,-3.37,-3.37,-1.10,-1.11,-1.12
222.23,2.37,3.52,2.39,3.54,-3.53,-3.38,-3.42,-1.16,-1.14,-1.15
224.45,2.37,3.55,2.37,3.55,-3.54,-3.40,-3.47,-1.17,-1.17,-1.18
226.70,2.36,3.56,2.35,3.55,-3.56,-3.41,-3.52,-1.19,-1.20,-1.20
228.96,2.33,3.55,2.34,3.56,-3.57,-3.42,-3.56,-1.23,-1.22,-1.22
231.25,2.33,3.58,2.32,3.57,-3.57,-3.43,-3.60,-1.24,-1.25,-1.25
233.57,2.30,3.57,2.31,3.58,-3.58,-3.44,-3.63,-1.28,-1.27,-1.27
235.90,2.29,3.59,2.30,3.59,-3.59,-3.45,-3.66,-1.29,-1.29,-1.30
238.26,2.29,3.61,2.28,3.59,-3.59,-3.46,-3.69,-1.30,-1.31,-1.32
240.64,2.25,3.58,2.26,3.60,-3.59,-3.46,-3.71,-1.34,-1.33,-1.33
243.05,2.24,3.59,2.24,3.59,-3.60,-3.47,-3.73,-1.35,-1.35,-1.35
245.48,2.23,3.60,2.23,3.59,-3.60,-3.47,-3.74,-1.36,-1.37,-1.37
247.93,2.20,3.59,2.21,3.60,-3.59,-3.48,-3.75,-1.39,-1.38,-1.39
250.41,2.20,3.60,2.19,3.59,-3.59,-3.48,-3.75,-1.39,-1.40,-1.40
252.92,2.16,3.57,2.17,3.59,-3.59,-3.49,-3.75,-1.42,-1.41,-1.41
255.45,2.16,3.59,2.16,3.58,-3.58,-3.49,-3.74,-1.42,-1.42,-1.43
258.00,2.13,3.57,2.13,3.57,-3.57,-3.49,-3.73,-1.44,-1.44,-1.44
260.58,2.11,3.56,2.11,3.56,-3.56,-3.49,-3.72,-1.45,-1.45,-1.45
263.19,2.09,3.55,2.09,3.55,-3.56,-3.48,-3.70,-1.46,-1.46,-1.46
265.82,2.07,3.54,2.07,3.54,-3.54,-3.48,-3.67,-1.47,-1.47,-1.47
268.48,2.05,3.53,2.05,3.53,-3.53,-3.47,-3.64,-1.48,-1.48,-1.48
271.16,2.03,3.52,2.03,3.52,-3.52,-3.47,-3.61,-1.48,-1.49,-1.49
273.87,1.99,3.49,2.00,3.50,-3.50,-3.46,-3.57,-1.51,-1.49,-1.50
276.61,1.98,3.49,1.97,3.48,-3.48,-3.45,-3.53,-1.49,-1.50,-1.51
279.38,1.94,3.46,1.94,3.46,-3.45,-3.44,-3.49,-1.51,-1.51,-1.52
282.17,1.90,3.42,1.91,3.43,-3.43,-3.42,-3.45,-1.52,-1.52,-1.52
284.99,1.87,3.39,1.87,3.39,-3.40,-3.41,-3.40,-1.53,-1.52,-1.52
287.84,1.84,3.36,1.84,3.36,-3.37,-3.39,-3.35,-1.52,-1.52,-1.52
290.72,1.81,3.34,1.81,3.33,-3.33,-3.37,-3.30,-1.52,-1.53,-1.53
293.63,1.77,3.30,1.77,3.30,-3.30,-3.34,-3.25,-1.53,-1.53,-1.53
296.57,1.73,3.26,1.74,3.27,-3.27,-3.32,-3.20,-1.53,-1.53,-1.53
299.53,1.70,3.23,1.70,3.23,-3.23,-3.29,-3.15,-1.53,-1.53,-1.53
302.53,1.67,3.20,1.67,3.20,-3.20,-3.26,-3.10,-1.53,-1.53,-1.53
305.55,1.64,3.17,1.63,3.16,-3.16,-3.23,-3.04,-1.52,-1.53,-1.53
308.61,1.59,3.12,1.60,3.13,-3.13,-3.19,-2.99,-1.54,-1.53,-1.53
311.69,1.56,3.09,1.57,3.10,-3.10,-3.16,-2.94,-1.54,-1.53,-1.53
314.81,1.55,3.08,1.54,3.07,-3.07,-3.12,-2.89,-1.52,-1.53,-1.53
317.96,1.51,3.04,1.52,3.05,-3.04,-3.09,-2.84,-1.53,-1.53,-1.53
321.14,1.49,3.02,1.49,3.02,-3.02,-3.05,-2.80,-1.52,-1.52,-1.53
324.35,1.46,2.99,1.46,2.99,-2.99,-3.02,-2.75,-1.53,-1.53,-1.53
327.59,1.45,2.97,1.45,2.97,-2.97,-2.99,-2.71,-1.52,-1.52,-1.52
330.87,1.42,2.94,1.43,2.95,-2.95,-2.96,-2.66,-1.53,-1.52,-1.52
334.18,1.42,2.94,1.41,2.93,-2.93,-2.94,-2.62,-1.51,-1.52,-1.52
337.52,1.39,2.91,1.40,2.91,-2.91,-2.92,-2.58,-1.52,-1.52,-1.52
340.90,1.38,2.89,1.39,2.90,-2.89,-2.90,-2.55,-1.51,-1.50,-1.51
344.30,1.38,2.89,1.38,2.88,-2.88,-2.89,-2.51,-1.50,-1.50,-1.51
347.75,1.38,2.88,1.36,2.87,-2.86,-2.87,-2.48,-1.48,-1.50,-1.50
351.23,1.33,2.83,1.35,2.85,-2.85,-2.86,-2.44,-1.52,-1.50,-1.50
354.74,1.33,2.82,1.33,2.83,-2.84,-2.85,-2.41,-1.50,-1.50,-1.49
358.28,1.33,2.82,1.33,2.81,-2.82,-2.84,-2.39,-1.49,-1.50,-1.49
361.87,1.33,2.81,1.33,2.81,-2.81,-2.82,-2.36,-1.48,-1.48,-1.48
365.49,1.33,2.80,1.33,2.81,-2.80,-2.81,-2.33,-1.47,-1.47,-1.47
369.14,1.33,2.80,1.32,2.79,-2.79,-2.79,-2.31,-1.45,-1.46,-1.47
372.83,1.31,2.77,1.31,2.77,-2.77,-2.78,-2.29,-1.46,-1.46,-1.46
376.56,1.29,2.75,1.30,2.76,-2.76,-2.76,-2.27,-1.47,-1.46,-1.46
380.33,1.29,2.74,1.29,2.74,-2.74,-2.74,-2.26,-1.45,-1.45,-1.45
384.13,1.29,2.74,1.28,2.73,-2.72,-2.72,-2.24,-1.43,-1.44,-1.45
387.97,1.25,2.69,1.26,2.70,-2.70,-2.69,-2.23,-1.45,-1.43,-1.44
391.85,1.25,2.68,1.24,2.67,-2.68,-2.67,-2.21,-1.42,-1.43,-1.43
395.77,1.21,2.64,1.22,2.65,-2.65,-2.65,-2.20,-1.44,-1.43,-1.43
399.73,1.20,2.62,1.20,2.62,-2.63,-2.62,-2.19,-1.42,-1.42,-1.42
403.72,1.19,2.60,1.18,2.60,-2.60,-2.60,-2.19,-1.41,-1.42,-1.41
407.76,1.16,2.57,1.17,2.57,-2.57,-2.57,-2.18,-1.41,-1.41,-1.41
411.84,1.15,2.55,1.15,2.55,-2.55,-2.54,-2.17,-1.39,-1.39,-1.40
415.96,1.12,2.51,1.13,2.52,-2.52,-2.52,-2.17,-1.40,-1.39,-1.39
420.12,1.12,2.51,1.11,2.49,-2.49,-2.49,-2.16,-1.37,-1.38,-1.39
424.32,1.07,2.45,1.08,2.46,-2.46,-2.46,-2.16,-1.39,-1.38,-1.38
428.56,1.06,2.43,1.06,2.43,-2.43,-2.43,-2.15,-1.37,-1.37,-1.37
432.85,1.03,2.39,1.04,2.40,-2.40,-2.40,-2.15,-1.37,-1.37,-1.36
437.18,1.02,2.38,1.02,2.37,-2.37,-2.38,-2.15,-1.35,-1.35,-1.36
441.55,0.99,2.34,0.99,2.34,-2.34,-2.35,-2.14,-1.34,-1.34,-1.35
445.96,0.96,2.30,0.97,2.31,-2.30,-2.32,-2.14,-1.34,-1.34,-1.34
450.42,0.94,2.27,0.94,2.27,-2.27,-2.28,-2.14,-1.33,-1.33,-1.33
454.93,0.90,2.22,0.91,2.23,-2.23,-2.25,-2.13,-1.33,-1.32,-1.32
459.48,0.89,2.20,0.89,2.20,-2.20,-2.22,-2.12,-1.30,-1.31,-1.31
464.07,0.86,2.16,0.86,2.16,-2.16,-2.19,-2.12,-1.30,-1.30,-1.30
468.71,0.83,2.12,0.84,2.12,-2.12,-2.15,-2.11,-1.29,-1.29,-1.29
473.40,0.81,2.09,0.81,2.09,-2.09,-2.12,-2.10,-1.28,-1.28,-1.28
478.13,0.77,2.04,0.78,2.05,-2.05,-2.08,-2.09,-1.28,-1.27,-1.27
482.91,0.76,2.02,0.76,2.02,-2.02,-2.04,-2.08,-1.25,-1.26,-1.26
487.74,0.73,1.98,0.73,1.98,-1.98,-2.01,-2.06,-1.24,-1.25,-1.25
492.62,0.70,1.94,0.70,1.94,-1.94,-1.97,-2.05,-1.24,-1.23,-1.24
497.55,0.67,1.90,0.67,1.90,-1.90,-1.93,-2.03,-1.23,-1.23,-1.23
502.52,0.64,1.86,0.64,1.86,-1.86,-1.89,-2.01,-1.22,-1.22,-1.22
507.55,0.61,1.81,0.61,1.81,-1.82,-1.85,-1.99,-1.21,-1.21,-1.20
512.62,0.58,1.77,0.58,1.77,-1.78,-1.81,-1.97,-1.20,-1.20,-1.19
517.75,0.55,1.73,0.55,1.73,-1.74,-1.76,-1.94,-1.18,-1.18,-1.18
