frequency,raw,error,smoothed,error_smoothed,equalization,parametric_eq,fixed_band_eq,equalized_raw,equalized_smoothed,target
20.00,-3.11,-12.59,-3.15,-12.63,12.63,12.61,4.97,9.52,9.48,9.48
20.20,-3.10,-12.59,-3.08,-12.57,12.57,12.56,5.10,9.47,9.49,9.49
20.40,-3.03,-12.53,-3.01,-12.51,12.51,12.51,5.23,9.48,9.50,9.50
20.61,-2.96,-12.47,-2.94,-12.45,12.45,12.46,5.37,9.49,9.51,9.51
20.81,-2.88,-12.38,-2.87,-12.39,12.39,12.41,5.50,9.51,9.51,9.51
21.02,-2.81,-12.32,-2.80,-12.32,12.32,12.36,5.64,9.52,9.52,9.52
21.23,-2.74,-12.26,-2.73,-12.26,12.26,12.30,5.79,9.52,9.53,9.53
21.44,-2.67,-12.21,-2.66,-12.20,12.20,12.24,5.94,9.53,9.53,9.54
21.66,-2.59,-12.13,-2.59,-12.13,12.13,12.18,6.09,9.54,9.54,9.54
21.87,-2.52,-12.07,-2.52,-12.07,12.07,12.12,6.25,9.55,9.55,9.55
22.09,-2.45,-12.00,-2.45,-12.00,12.00,12.06,6.41,9.55,9.55,9.55
22.31,-2.37,-11.93,-2.38,-11.93,11.93,12.00,6.58,9.57,9.56,9.56
22.54,-2.30,-11.86,-2.30,-11.86,11.86,11.94,6.75,9.56,9.56,9.56
22.76,-2.23,-11.80,-2.23,-11.79,11.79,11.88,6.93,9.57,9.56,9.57
22.99,-2.15,-11.71,-2.16,-11.73,11.73,11.81,7.10,9.58,9.57,9.57
23.22,-2.09,-11.65,-2.09,-11.66,11.66,11.75,7.29,9.57,9.57,9.57
23.45,-2.03,-11.60,-2.01,-11.59,11.59,11.69,7.48,9.56,9.57,9.57
23.69,-1.95,-11.52,-1.94,-11.52,11.52,11.62,7.67,9.57,9.58,9.57
23.92,-1.88,-11.45,-1.87,-11.45,11.45,11.56,7.87,9.57,9.58,9.57
24.16,-1.81,-11.39,-1.80,-11.38,11.38,11.49,8.07,9.57,9.58,9.58
24.40,-1.73,-11.32,-1.73,-11.31,11.31,11.43,8.28,9.59,9.58,9.59
24.65,-1.66,-11.25,-1.66,-11.24,11.24,11.37,8.49,9.59,9.58,9.59
24.89,-1.59,-11.17,-1.59,-11.18,11.18,11.30,8.71,9.59,9.58,9.59
25.14,-1.53,-11.11,-1.52,-11.11,11.11,11.24,8.93,9.58,9.58,9.58
25.39,-1.46,-11.04,-1.46,-11.04,11.04,11.17,9.15,9.58,9.58,9.58
25.65,-1.39,-10.97,-1.39,-10.97,10.97,11.11,9.38,9.58,9.58,9.58
25.91,-1.32,-10.90,-1.32,-10.90,10.90,11.05,9.61,9.58,9.58,9.58
26.16,-1.25,-10.83,-1.25,-10.84,10.84,10.98,9.84,9.59,9.58,9.59
26.43,-1.19,-10.77,-1.19,-10.77,10.77,10.92,10.07,9.58,9.58,9.58
26.69,-1.12,-10.70,-1.12,-10.71,10.71,10.86,10.31,9.59,9.58,9.58
26.96,-1.07,-10.65,-1.06,-10.64,10.64,10.80,10.54,9.57,9.58,9.58
27.23,-1.00,-10.58,-1.00,-10.58,10.58,10.73,10.78,9.58,9.58,9.58
27.50,-0.94,-10.51,-0.94,-10.52,10.52,10.67,11.01,9.58,9.58,9.57
27.77,-0.88,-10.46,-0.88,-10.46,10.46,10.61,11.23,9.58,9.58,9.58
28.05,-0.82,-10.40,-0.82,-10.40,10.40,10.55,11.45,9.58,9.58,9.58
28.33,-0.76,-10.33,-0.76,-10.34,10.34,10.49,11.67,9.58,9.58,9.58
28.62,-0.70,-10.27,-0.70,-10.28,10.28,10.43,11.87,9.58,9.58,9.57
28.90,-0.64,-10.22,-0.64,-10.22,10.22,10.37,12.06,9.58,9.58,9.58
29.19,-0.59,-10.17,-0.59,-10.16,10.16,10.31,12.24,9.57,9.58,9.58
29.48,-0.53,-10.10,-0.53,-10.10,10.10,10.25,12.40,9.58,9.57,9.57
29.78,-0.47,-10.04,-0.47,-10.04,10.04,10.19,12.54,9.58,9.57,9.57
30.08,-0.42,-10.00,-0.42,-9.99,9.99,10.13,12.66,9.57,9.57,9.58
30.38,-0.38,-9.94,-0.36,-9.93,9.93,10.07,12.76,9.55,9.57,9.56
30.68,-0.31,-9.87,-0.31,-9.87,9.87,10.02,12.83,9.56,9.56,9.56
30.99,-0.25,-9.80,-0.25,-9.81,9.81,9.96,12.87,9.56,9.56,9.56
31.30,-0.21,-9.76,-0.20,-9.75,9.75,9.90,12.89,9.54,9.55,9.55
31.61,-0.15,-9.70,-0.15,-9.69,9.69,9.84,12.89,9.55,9.55,9.55
31.93,-0.09,-9.62,-0.09,-9.64,9.64,9.78,12.85,9.55,9.54,9.53
32.24,-0.03,-9.57,-0.04,-9.58,9.58,9.73,12.79,9.55,9.54,9.54
32.57,0.01,-9.51,0.01,-9.52,9.52,9.67,12.71,9.53,9.53,9.52
32.89,0.05,-9.47,0.06,-9.46,9.46,9.61,12.60,9.51,9.52,9.52
33.22,0.11,-9.40,0.11,-9.40,9.40,9.56,12.48,9.51,9.52,9.51
33.55,0.16,-9.35,0.17,-9.34,9.34,9.50,12.33,9.50,9.51,9.51
33.89,0.22,-9.28,0.22,-9.28,9.28,9.44,12.17,9.51,9.50,9.50
34.23,0.27,-9.22,0.27,-9.22,9.22,9.38,12.00,9.50,9.49,9.49
34.57,0.31,-9.17,0.32,-9.17,9.17,9.33,11.82,9.48,9.48,9.48
34.92,0.36,-9.10,0.37,-9.10,9.10,9.27,11.63,9.47,9.47,9.47
35.27,0.41,-9.06,0.41,-9.04,9.04,9.21,11.43,9.46,9.46,9.47
35.62,0.46,-8.98,0.46,-8.98,8.98,9.15,11.22,9.45,9.45,9.44
35.97,0.50,-8.93,0.51,-8.92,8.92,9.10,11.02,9.42,9.43,9.44
36.33,0.56,-8.86,0.56,-8.86,8.86,9.04,10.81,9.42,9.42,9.42
36.70,0.60,-8.80,0.61,-8.80,8.80,8.98,10.60,9.40,9.40,9.40
37.06,0.65,-8.73,0.65,-8.73,8.73,8.92,10.39,9.39,9.38,9.38
37.43,0.70,-8.66,0.70,-8.67,8.67,8.86,10.19,9.37,9.37,9.37
37.81,0.75,-8.59,0.74,-8.61,8.61,8.80,9.98,9.36,9.35,9.35
38.19,0.78,-8.55,0.78,-8.55,8.55,8.74,9.78,9.33,9.33,9.33
38.57,0.83,-8.48,0.83,-8.48,8.48,8.68,9.58,9.31,9.31,9.31
38.95,0.86,-8.43,0.87,-8.42,8.42,8.62,9.39,9.28,9.29,9.29
39.34,0.91,-8.35,0.91,-8.35,8.35,8.56,9.20,9.27,9.27,9.26
39.74,0.94,-8.30,0.95,-8.29,8.29,8.50,9.02,9.23,9.24,9.24
40.14,0.99,-8.23,0.99,-8.23,8.23,8.44,8.84,9.22,9.22,9.22
40.54,1.02,-8.18,1.03,-8.16,8.16,8.38,8.67,9.19,9.19,9.20
40.94,1.07,-8.09,1.07,-8.10,8.10,8.31,8.50,9.17,9.17,9.17
41.35,1.11,-8.03,1.11,-8.03,8.03,8.25,8.33,9.15,9.14,9.15
41.76,1.14,-7.97,1.15,-7.97,7.97,8.18,8.18,9.11,9.12,9.11
42.18,1.19,-7.90,1.19,-7.90,7.90,8.12,8.02,9.09,9.09,9.09
42.60,1.22,-7.83,1.23,-7.83,7.83,8.05,7.88,9.05,9.06,9.06
43.03,1.27,-7.75,1.26,-7.76,7.76,7.99,7.73,9.03,9.02,9.02
43.46,1.30,-7.69,1.30,-7.69,7.69,7.92,7.60,8.99,8.99,8.99
43.90,1.33,-7.62,1.34,-7.62,7.62,7.85,7.47,8.95,8.96,8.96
44.33,1.38,-7.54,1.37,-7.55,7.55,7.79,7.34,8.93,8.92,8.92
44.78,1.41,-7.47,1.41,-7.48,7.48,7.72,7.22,8.89,8.89,8.89
45.23,1.44,-7.42,1.45,-7.40,7.40,7.65,7.10,8.85,8.85,8.86
45.68,1.47,-7.34,1.48,-7.33,7.33,7.58,6.99,8.80,8.81,8.81
46.13,1.52,-7.24,1.52,-7.25,7.25,7.51,6.89,8.78,8.77,8.76
46.60,1.55,-7.18,1.55,-7.18,7.18,7.44,6.78,8.73,8.73,8.73
47.06,1.58,-7.11,1.58,-7.10,7.10,7.36,6.69,8.68,8.68,8.69
47.53,1.61,-7.04,1.62,-7.02,7.02,7.29,6.59,8.63,8.64,8.65
48.01,1.64,-6.95,1.65,-6.94,6.94,7.22,6.51,8.58,8.59,8.59
48.49,1.68,-6.87,1.68,-6.86,6.86,7.14,6.42,8.55,8.55,8.55
48.97,1.72,-6.77,1.72,-6.78,6.78,7.07,6.34,8.51,8.50,8.50
49.46,1.75,-6.70,1.75,-6.70,6.70,6.99,6.26,8.46,8.45,8.45
49.96,1.78,-6.61,1.78,-6.62,6.62,6.92,6.19,8.41,8.41,8.39
50.46,1.81,-6.54,1.81,-6.54,6.54,6.84,6.12,8.35,8.36,8.35
50.96,1.85,-6.45,1.85,-6.46,6.46,6.76,6.05,8.31,8.31,8.30
51.47,1.87,-6.39,1.88,-6.38,6.38,6.69,5.99,8.25,8.26,8.26
51.99,1.90,-6.30,1.91,-6.30,6.30,6.61,5.93,8.20,8.21,8.20
52.51,1.94,-6.21,1.94,-6.22,6.22,6.53,5.87,8.16,8.15,8.16
53.03,1.96,-6.16,1.97,-6.14,6.14,6.45,5.81,8.10,8.10,8.12
53.56,1.99,-6.07,1.99,-6.06,6.06,6.37,5.76,8.05,8.05,8.06
54.10,2.03,-5.97,2.02,-5.98,5.98,6.29,5.70,8.01,8.00,8.00
54.64,2.05,-5.90,2.05,-5.90,5.90,6.21,5.65,7.95,7.95,7.95
55.18,2.07,-5.82,2.08,-5.82,5.82,6.13,5.60,7.90,7.90,7.89
55.74,2.11,-5.72,2.11,-5.75,5.75,6.05,5.54,7.86,7.85,7.84
56.29,2.12,-5.67,2.13,-5.67,5.67,5.96,5.49,7.79,7.80,7.79
56.86,2.16,-5.59,2.16,-5.59,5.59,5.88,5.44,7.75,7.75,7.75
57.42,2.18,-5.50,2.18,-5.51,5.51,5.80,5.39,7.70,7.70,7.68
58.00,2.20,-5.43,2.21,-5.43,5.43,5.71,5.33,7.64,7.64,7.64
58.58,2.24,-5.36,2.23,-5.36,5.36,5.63,5.28,7.60,7.59,7.60
59.16,2.24,-5.31,2.26,-5.27,5.27,5.55,5.22,7.52,7.53,7.55
59.76,2.29,-5.21,2.28,-5.19,5.19,5.46,5.16,7.49,7.47,7.50
60.35,2.29,-5.14,2.30,-5.11,5.11,5.38,5.10,7.41,7.41,7.43
60.96,2.33,-5.03,2.32,-5.03,5.03,5.29,5.04,7.36,7.35,7.37
61.57,2.33,-4.96,2.34,-4.95,4.95,5.21,4.97,7.28,7.29,7.29
62.18,2.37,-4.85,2.36,-4.87,4.87,5.12,4.90,7.24,7.23,7.22
62.80,2.37,-4.78,2.38,-4.78,4.78,5.03,4.83,7.16,7.17,7.15
63.43,2.41,-4.67,2.40,-4.70,4.70,4.95,4.76,7.11,7.10,7.09
64.07,2.42,-4.61,2.42,-4.62,4.62,4.86,4.68,7.04,7.04,7.03
64.71,2.44,-4.53,2.44,-4.53,4.53,4.78,4.60,6.97,6.97,6.97
65.35,2.46,-4.44,2.46,-4.45,4.45,4.69,4.52,6.91,6.91,6.91
66.01,2.47,-4.37,2.48,-4.36,4.36,4.60,4.44,6.84,6.84,6.84
66.67,2.50,-4.29,2.50,-4.28,4.28,4.52,4.35,6.79,6.78,6.79
67.33,2.50,-4.21,2.51,-4.20,4.20,4.43,4.26,6.70,6.71,6.72
68.01,2.54,-4.11,2.53,-4.12,4.12,4.34,4.17,6.66,6.65,6.65
68.69,2.55,-4.03,2.55,-4.03,4.03,4.26,4.08,6.59,6.58,6.58
69.37,2.55,-3.97,2.56,-3.95,3.95,4.17,3.99,6.50,6.52,6.53
70.07,2.59,-3.86,2.58,-3.87,3.87,4.08,3.89,6.46,6.45,6.46
70.77,2.59,-3.79,2.60,-3.78,3.78,4.00,3.79,6.37,6.38,6.38
71.48,2.61,-3.70,2.61,-3.70,3.70,3.91,3.69,6.31,6.31,6.31
72.19,2.63,-3.61,2.63,-3.61,3.61,3.82,3.59,6.24,6.24,6.24
72.91,2.63,-3.53,2.64,-3.52,3.52,3.74,3.50,6.16,6.17,6.16
73.64,2.66,-3.42,2.66,-3.44,3.44,3.65,3.40,6.10,6.10,6.09
74.38,2.68,-3.34,2.67,-3.36,3.36,3.57,3.30,6.04,6.03,6.02
75.12,2.68,-3.27,2.68,-3.28,3.28,3.48,3.20,5.96,5.96,5.95
75.87,2.68,-3.21,2.70,-3.19,3.19,3.39,3.10,5.88,5.89,5.89
76.63,2.72,-3.10,2.71,-3.11,3.11,3.31,3.00,5.83,5.82,5.82
77.40,2.72,-3.03,2.72,-3.03,3.03,3.22,2.90,5.75,5.76,5.76
78.17,2.72,-2.96,2.73,-2.95,2.95,3.14,2.80,5.68,5.69,5.68
78.95,2.76,-2.87,2.75,-2.87,2.87,3.05,2.70,5.64,5.62,5.63
79.74,2.76,-2.80,2.76,-2.80,2.80,2.97,2.60,5.56,5.56,5.56
80.54,2.76,-2.73,2.77,-2.72,2.72,2.88,2.51,5.48,5.49,5.49
81.35,2.76,-2.66,2.78,-2.64,2.64,2.80,2.41,5.41,5.42,5.42
82.16,2.81,-2.55,2.79,-2.57,2.57,2.71,2.32,5.38,5.36,5.37
82.98,2.81,-2.48,2.80,-2.49,2.49,2.63,2.22,5.30,5.29,5.29
83.81,2.81,-2.41,2.81,-2.41,2.41,2.54,2.13,5.22,5.22,5.22
84.65,2.81,-2.34,2.83,-2.33,2.33,2.46,2.04,5.14,5.15,5.15
85.50,2.83,-2.24,2.83,-2.25,2.25,2.37,1.95,5.08,5.08,5.08
86.35,2.85,-2.16,2.84,-2.17,2.17,2.29,1.86,5.02,5.01,5.01
87.22,2.85,-2.09,2.85,-2.09,2.09,2.21,1.77,4.94,4.94,4.94
88.09,2.85,-2.02,2.86,-2.01,2.01,2.12,1.68,4.86,4.87,4.87
88.97,2.85,-1.95,2.87,-1.93,1.93,2.04,1.59,4.78,4.80,4.80
89.86,2.89,-1.83,2.88,-1.85,1.85,1.96,1.51,4.74,4.72,4.72
90.76,2.89,-1.76,2.88,-1.77,1.77,1.88,1.43,4.66,4.65,4.65
91.66,2.89,-1.68,2.88,-1.69,1.69,1.79,1.34,4.58,4.57,4.57
92.58,2.89,-1.61,2.89,-1.61,1.61,1.71,1.26,4.50,4.50,4.50
93.51,2.89,-1.54,2.89,-1.53,1.53,1.63,1.18,4.43,4.42,4.43
94.44,2.89,-1.47,2.89,-1.46,1.46,1.55,1.10,4.35,4.35,4.36
95.39,2.89,-1.38,2.89,-1.38,1.38,1.47,1.02,4.27,4.27,4.28
96.34,2.89,-1.30,2.89,-1.30,1.30,1.39,0.94,4.19,4.19,4.19
97.30,2.89,-1.23,2.90,-1.22,1.22,1.31,0.86,4.11,4.12,4.12
98.28,2.89,-1.14,2.90,-1.14,1.14,1.23,0.78,4.04,4.04,4.04
99.26,2.89,-1.06,2.90,-1.07,1.07,1.15,0.71,3.96,3.96,3.95
100.25,2.89,-0.98,2.90,-0.99,0.99,1.07,0.63,3.89,3.89,3.88
101.25,2.89,-0.92,2.90,-0.92,0.92,0.99,0.56,3.81,3.81,3.81
102.27,2.89,-0.84,2.90,-0.84,0.84,0.91,0.49,3.73,3.74,3.74
103.29,2.91,-0.75,2.90,-0.76,0.76,0.83,0.41,3.67,3.66,3.66
104.32,2.91,-0.68,2.91,-0.68,0.68,0.75,0.34,3.60,3.59,3.60
105.37,2.91,-0.61,2.91,-0.61,0.61,0.67,0.27,3.52,3.52,3.52
106.42,2.91,-0.54,2.92,-0.53,0.53,0.60,0.20,3.44,3.45,3.45
107.48,2.91,-0.46,2.92,-0.45,0.45,0.52,0.13,3.36,3.37,3.37
108.56,2.91,-0.39,2.92,-0.37,0.37,0.44,0.07,3.29,3.30,3.30
109.64,2.94,-0.29,2.93,-0.30,0.30,0.36,0.00,3.24,3.23,3.23
110.74,2.94,-0.21,2.93,-0.22,0.22,0.29,-0.06,3.16,3.15,3.15
111.85,2.94,-0.14,2.93,-0.14,0.14,0.21,-0.13,3.08,3.07,3.08
112.97,2.94,-0.06,2.94,-0.06,0.06,0.14,-0.19,3.00,3.00,3.00
114.10,2.94,0.01,2.94,0.02,-0.02,0.06,-0.25,2.92,2.92,2.93
115.24,2.94,0.10,2.94,0.10,-0.10,-0.01,-0.31,2.85,2.85,2.85
116.39,2.94,0.18,2.95,0.17,-0.17,-0.09,-0.37,2.77,2.77,2.76
117.55,2.94,0.25,2.95,0.25,-0.25,-0.16,-0.42,2.69,2.70,2.69
118.73,2.94,0.33,2.95,0.33,-0.33,-0.24,-0.48,2.61,2.62,2.61
119.92,2.94,0.41,2.95,0.40,-0.40,-0.31,-0.53,2.54,2.55,2.54
121.12,2.95,0.48,2.95,0.48,-0.48,-0.38,-0.58,2.47,2.47,2.48
122.33,2.96,0.57,2.95,0.55,-0.55,-0.46,-0.63,2.41,2.40,2.40
123.55,2.96,0.64,2.95,0.63,-0.63,-0.53,-0.68,2.33,2.32,2.33
124.79,2.96,0.70,2.95,0.71,-0.71,-0.60,-0.72,2.26,2.25,2.26
126.03,2.94,0.76,2.95,0.78,-0.78,-0.67,-0.77,2.16,2.17,2.18
127.29,2.94,0.84,2.95,0.85,-0.85,-0.74,-0.81,2.09,2.10,2.10
128.57,2.94,0.92,2.95,0.92,-0.92,-0.81,-0.85,2.02,2.03,2.03
129.85,2.94,0.99,2.95,0.99,-0.99,-0.88,-0.89,1.95,1.95,1.95
131.15,2.94,1.06,2.94,1.06,-1.06,-0.95,-0.93,1.88,1.88,1.88
132.46,2.94,1.14,2.94,1.13,-1.13,-1.02,-0.97,1.81,1.81,1.80
133.79,2.94,1.21,2.93,1.19,-1.19,-1.09,-1.01,1.75,1.74,1.73
135.12,2.94,1.28,2.92,1.26,-1.26,-1.16,-1.04,1.69,1.67,1.66
136.48,2.91,1.31,2.92,1.32,-1.32,-1.22,-1.07,1.59,1.60,1.60
137.84,2.89,1.36,2.91,1.38,-1.38,-1.29,-1.11,1.51,1.53,1.53
139.22,2.89,1.44,2.90,1.44,-1.44,-1.36,-1.14,1.45,1.46,1.45
140.61,2.89,1.49,2.89,1.50,-1.50,-1.42,-1.17,1.40,1.40,1.40
142.02,2.89,1.56,2.89,1.55,-1.55,-1.49,-1.21,1.34,1.34,1.33
143.44,2.89,1.62,2.88,1.61,-1.61,-1.55,-1.24,1.29,1.27,1.27
144.87,2.85,1.64,2.87,1.66,-1.66,-1.62,-1.27,1.19,1.21,1.21
146.32,2.85,1.70,2.86,1.71,-1.71,-1.68,-1.30,1.14,1.15,1.15
147.78,2.85,1.76,2.85,1.76,-1.76,-1.74,-1.33,1.09,1.09,1.09
149.26,2.85,1.82,2.84,1.81,-1.81,-1.80,-1.37,1.04,1.03,1.03
150.75,2.85,1.89,2.84,1.86,-1.86,-1.87,-1.40,0.99,0.97,0.97
152.26,2.81,1.89,2.83,1.92,-1.92,-1.93,-1.43,0.90,0.91,0.92
153.78,2.81,1.96,2.82,1.96,-1.96,-1.99,-1.47,0.85,0.85,0.85
155.32,2.81,2.01,2.81,2.01,-2.01,-2.04,-1.50,0.80,0.79,0.80
156.88,2.81,2.08,2.80,2.06,-2.06,-2.10,-1.54,0.75,0.73,0.74
158.44,2.79,2.12,2.79,2.11,-2.11,-2.16,-1.58,0.68,0.67,0.68
160.03,2.76,2.15,2.78,2.16,-2.16,-2.22,-1.62,0.60,0.61,0.62
161.63,2.76,2.21,2.77,2.22,-2.22,-2.27,-1.66,0.54,0.55,0.56
163.24,2.76,2.27,2.76,2.27,-2.27,-2.33,-1.70,0.50,0.49,0.49
164.88,2.76,2.33,2.75,2.32,-2.32,-2.38,-1.74,0.45,0.43,0.43
166.53,2.72,2.35,2.74,2.37,-2.37,-2.43,-1.79,0.36,0.37,0.37
168.19,2.72,2.41,2.73,2.42,-2.42,-2.48,-1.83,0.31,0.31,0.31
169.87,2.72,2.47,2.72,2.47,-2.47,-2.53,-1.88,0.26,0.25,0.25
171.57,2.72,2.53,2.70,2.51,-2.51,-2.58,-1.93,0.21,0.19,0.19
173.29,2.68,2.55,2.69,2.56,-2.56,-2.63,-1.98,0.12,0.13,0.13
175.02,2.68,2.61,2.68,2.61,-2.61,-2.68,-2.03,0.07,0.07,0.07
176.77,2.68,2.67,2.67,2.66,-2.66,-2.73,-2.09,0.03,0.01,0.01
178.54,2.66,2.70,2.66,2.70,-2.70,-2.77,-2.14,-0.04,-0.04,-0.04
180.32,2.63,2.74,2.65,2.75,-2.75,-2.82,-2.20,-0.12,-0.10,-0.11
182.13,2.63,2.79,2.64,2.80,-2.80,-2.86,-2.26,-0.16,-0.16,-0.16
183.95,2.63,2.84,2.62,2.84,-2.84,-2.90,-2.32,-0.21,-0.22,-0.21
185.79,2.61,2.89,2.61,2.89,-2.89,-2.94,-2.39,-0.27,-0.27,-0.27
187.65,2.59,2.92,2.60,2.93,-2.93,-2.98,-2.45,-0.34,-0.33,-0.32
189.52,2.59,2.98,2.59,2.97,-2.97,-3.02,-2.52,-0.38,-0.38,-0.38
191.42,2.59,3.02,2.58,3.01,-3.01,-3.06,-2.58,-0.42,-0.44,-0.43
193.33,2.55,3.04,2.57,3.06,-3.06,-3.09,-2.65,-0.51,-0.49,-0.49
195.27,2.55,3.10,2.56,3.10,-3.10,-3.13,-2.72,-0.54,-0.54,-0.54
197.22,2.55,3.15,2.54,3.13,-3.13,-3.16,-2.79,-0.58,-0.59,-0.60
199.19,2.55,3.19,2.53,3.17,-3.17,-3.19,-2.87,-0.62,-0.64,-0.64
201.18,2.50,3.20,2.52,3.21,-3.21,-3.22,-2.94,-0.71,-0.69,-0.69
203.19,2.50,3.24,2.51,3.24,-3.24,-3.25,-3.01,-0.74,-0.73,-0.74
205.23,2.50,3.28,2.50,3.28,-3.28,-3.28,-3.09,-0.77,-0.78,-0.78
207.28,2.50,3.32,2.49,3.31,-3.31,-3.31,-3.16,-0.81,-0.82,-0.82
209.35,2.46,3.33,2.47,3.34,-3.34,-3.33,-3.24,-0.88,-0.86,-0.87
211.44,2.46,3.37,2.46,3.36,-3.36,-3.36,-3.31,-0.90,-0.90,-0.90
213.56,2.45,3.39,2.45,3.39,-3.39,-3.38,-3.38,-0.94,-0.94,-0.94
215.69,2.42,3.40,2.43,3.41,-3.41,-3.40,-3.45,-0.99,-0.98,-0.98
217.85,2.42,3.43,2.42,3.44,-3.44,-3.42,-3.52,-1.01,-1.02,-1.01
220.03,2.42,3.48,2.40,3.46,-3.46,-3.44,-3.59,-1.03,-1.05,-1.06
222.23,2.37,3.46,2.39,3.48,-3.48,-3.46,-3.66,-1.10,-1.09,-1.09
224.45,2.37,3.50,2.37,3.49,-3.49,-3.47,-3.72,-1.12,-1.12,-1.12
226.70,2.36,3.52,2.36,3.51,-3.51,-3.49,-3.78,-1.15,-1.15,-1.16
228.96,2.33,3.51,2.34,3.52,-3.52,-3.50,-3.84,-1.19,-1.18,-1.18
231.25,2.33,3.54,2.33,3.54,-3.54,-3.51,-3.89,-1.21,-1.21,-1.21
233.57,2.30,3.54,2.31,3.55,-3.55,-3.52,-3.94,-1.25,-1.24,-1.24
235.90,2.29,3.56,2.29,3.56,-3.56,-3.53,-3.98,-1.27,-1.27,-1.27
238.26,2.29,3.59,2.28,3.57,-3.57,-3.54,-4.02,-1.28,-1.29,-1.30
240.64,2.25,3.56,2.26,3.57,-3.57,-3.55,-4.05,-1.32,-1.31,-1.31
243.05,2.24,3.57,2.24,3.58,-3.58,-3.55,-4.08,-1.34,-1.34,-1.33
245.48,2.23,3.59,2.23,3.58,-3.58,-3.56,-4.10,-1.35,-1.36,-1.36
247.93,2.20,3.59,2.21,3.59,-3.59,-3.56,-4.11,-1.38,-1.38,-1.39
250.41,2.20,3.59,2.19,3.59,-3.59,-3.56,-4.12,-1.38,-1.39,-1.39
252.92,2.16,3.57,2.17,3.59,-3.59,-3.56,-4.12,-1.42,-1.41,-1.41
255.45,2.16,3.59,2.16,3.59,-3.59,-3.56,-4.12,-1.42,-1.43,-1.43
258.00,2.13,3.58,2.14,3.58,-3.58,-3.56,-4.11,-1.45,-1.45,-1.45
260.58,2.11,3.57,2.12,3.58,-3.58,-3.56,-4.09,-1.46,-1.46,-1.46
263.19,2.09,3.56,2.09,3.57,-3.57,-3.55,-4.07,-1.48,-1.47,-1.47
265.82,2.07,3.56,2.07,3.56,-3.56,-3.55,-4.04,-1.49,-1.49,-1.48
268.48,2.05,3.55,2.05,3.55,-3.55,-3.54,-4.01,-1.50,-1.50,-1.50
271.16,2.03,3.54,2.02,3.53,-3.53,-3.53,-3.97,-1.50,-1.51,-1.51
273.87,1.99,3.51,1.99,3.52,-3.52,-3.53,-3.93,-1.52,-1.52,-1.52
276.61,1.98,3.51,1.97,3.50,-3.50,-3.52,-3.89,-1.52,-1.53,-1.53
279.38,1.94,3.49,1.94,3.48,-3.48,-3.51,-3.84,-1.53,-1.54,-1.55
282.17,1.90,3.45,1.91,3.45,-3.45,-3.49,-3.79,-1.55,-1.55,-1.55
284.99,1.87,3.42,1.87,3.43,-3.43,-3.48,-3.74,-1.55,-1.55,-1.55
287.84,1.84,3.39,1.84,3.40,-3.40,-3.47,-3.68,-1.56,-1.56,-1.55
290.72,1.81,3.38,1.81,3.37,-3.37,-3.46,-3.62,-1.56,-1.56,-1.57
293.63,1.77,3.34,1.77,3.34,-3.34,-3.44,-3.57,-1.57,-1.57,-1.57
296.57,1.73,3.30,1.74,3.31,-3.31,-3.43,-3.51,-1.58,-1.57,-1.57
299.53,1.70,3.28,1.70,3.28,-3.28,-3.41,-3.45,-1.58,-1.58,-1.58
302.53,1.67,3.25,1.67,3.25,-3.25,-3.39,-3.39,-1.57,-1.58,-1.57
305.55,1.64,3.22,1.64,3.22,-3.22,-3.38,-3.33,-1.57,-1.58,-1.58
308.61,1.59,3.17,1.60,3.18,-3.18,-3.36,-3.27,-1.59,-1.58,-1.58
311.69,1.56,3.15,1.57,3.16,-3.16,-3.34,-3.21,-1.59,-1.58,-1.59
314.81,1.55,3.13,1.55,3.13,-3.13,-3.32,-3.15,-1.58,-1.58,-1.58
317.96,1.51,3.10,1.52,3.11,-3.11,-3.30,-3.09,-1.59,-1.59,-1.59
321.14,1.49,3.08,1.49,3.08,-3.08,-3.28,-3.04,-1.59,-1.59,-1.59
324.35,1.46,3.05,1.47,3.06,-3.06,-3.25,-2.98,-1.59,-1.59,-1.59
327.59,1.45,3.03,1.45,3.03,-3.03,-3.23,-2.93,-1.58,-1.58,-1.58
330.87,1.42,3.00,1.43,3.01,-3.01,-3.21,-2.88,-1.59,-1.58,-1.58
334.18,1.42,3.01,1.41,3.00,-3.00,-3.19,-2.83,-1.57,-1.58,-1.59
337.52,1.39,2.98,1.40,2.98,-2.98,-3.16,-2.78,-1.59,-1.58,-1.58
340.90,1.38,2.96,1.39,2.96,-2.96,-3.14,-2.73,-1.58,-1.58,-1.58
344.30,1.38,2.95,1.37,2.95,-2.95,-3.11,-2.69,-1.57,-1.57,-1.57
347.75,1.38,2.95,1.36,2.93,-2.93,-3.09,-2.65,-1.55,-1.57,-1.57
351.23,1.33,2.90,1.36,2.92,-2.92,-3.06,-2.61,-1.59,-1.57,-1.57
354.74,1.33,2.89,1.35,2.91,-2.91,-3.03,-2.57,-1.58,-1.56,-1.56
358.28,1.33,2.89,1.34,2.90,-2.90,-3.01,-2.53,-1.57,-1.56,-1.56
361.87,1.33,2.89,1.33,2.89,-2.89,-2.98,-2.50,-1.55,-1.55,-1.55
365.49,1.33,2.88,1.32,2.87,-2.87,-2.95,-2.47,-1.54,-1.55,-1.55
369.14,1.33,2.87,1.32,2.86,-2.86,-2.92,-2.44,-1.53,-1.54,-1.54
372.83,1.31,2.85,1.31,2.85,-2.85,-2.89,-2.41,-1.53,-1.54,-1.53
376.56,1.29,2.83,1.30,2.83,-2.83,-2.87,-2.39,-1.54,-1.53,-1.54
380.33,1.29,2.82,1.28,2.81,-2.81,-2.84,-2.36,-1.52,-1.53,-1.53
384.13,1.29,2.82,1.27,2.80,-2.80,-2.81,-2.34,-1.50,-1.52,-1.52
387.97,1.25,2.77,1.26,2.78,-2.78,-2.78,-2.32,-1.53,-1.52,-1.52
391.85,1.25,2.76,1.24,2.76,-2.76,-2.74,-2.30,-1.51,-1.51,-1.51
395.77,1.21,2.73,1.23,2.74,-2.74,-2.71,-2.29,-1.52,-1.51,-1.51
399.73,1.20,2.71,1.21,2.71,-2.71,-2.68,-2.27,-1.51,-1.50,-1.51
403.72,1.19,2.68,1.19,2.69,-2.69,-2.65,-2.26,-1.49,-1.50,-1.49
407.76,1.16,2.65,1.17,2.66,-2.66,-2.62,-2.24,-1.50,-1.49,-1.49
411.84,1.15,2.64,1.15,2.63,-2.63,-2.58,-2.23,-1.48,-1.48,-1.48
415.96,1.12,2.60,1.13,2.61,-2.61,-2.55,-2.22,-1.48,-1.48,-1.48
420.12,1.12,2.60,1.11,2.58,-2.58,-2.52,-2.21,-1.46,-1.47,-1.48
424.32,1.07,2.54,1.08,2.55,-2.55,-2.48,-2.20,-1.48,-1.47,-1.47
428.56,1.06,2.51,1.06,2.52,-2.52,-2.45,-2.19,-1.46,-1.46,-1.45
432.85,1.03,2.48,1.04,2.49,-2.49,-2.41,-2.19,-1.46,-1.45,-1.44
437.18,1.02,2.47,1.01,2.46,-2.46,-2.38,-2.18,-1.43,-1.44,-1.45
441.55,0.99,2.43,0.99,2.42,-2.42,-2.34,-2.17,-1.43,-1.43,-1.44
445.96,0.96,2.39,0.96,2.39,-2.39,-2.31,-2.16,-1.43,-1.43,-1.43
450.42,0.94,2.36,0.94,2.36,-2.36,-2.27,-2.15,-1.42,-1.42,-1.42
454.93,0.90,2.31,0.91,2.32,-2.32,-2.24,-2.15,-1.42,-1.41,-1.41
459.48,0.89,2.30,0.89,2.29,-2.29,-2.20,-2.14,-1.40,-1.40,-1.40
464.07,0.86,2.25,0.86,2.25,-2.25,-2.16,-2.13,-1.39,-1.39,-1.39
468.71,0.83,2.21,0.84,2.22,-2.22,-2.13,-2.12,-1.39,-1.38,-1.38
473.40,0.81,2.18,0.81,2.18,-2.18,-2.09,-2.10,-1.37,-1.37,-1.37
478.13,0.77,2.13,0.78,2.14,-2.14,-2.05,-2.09,-1.37,-1.36,-1.36
482.91,0.76,2.11,0.75,2.11,-2.11,-2.01,-2.08,-1.34,-1.35,-1.35
487.74,0.73,2.07,0.73,2.07,-2.07,-1.98,-2.06,-1.33,-1.34,-1.34
492.62,0.70,2.04,0.70,2.03,-2.03,-1.94,-2.04,-1.33,-1.33,-1.33
497.55,0.67,2.00,0.67,1.99,-1.99,-1.90,-2.02,-1.32,-1.32,-1.32
502.52,0.64,1.96,0.64,1.95,-1.95,-1.86,-2.00,-1.31,-1.31,-1.32
507.55,0.61,1.91,0.61,1.91,-1.91,-1.82,-1.98,-1.30,-1.30,-1.30
