frequency,raw,error,smoothed,error_smoothed,equalization,parametric_eq,fixed_band_eq,equalized_raw,equalized_smoothed,target
20.00,-5.92,-4.73,-6.02,-4.85,4.85,4.73,1.18,-1.06,-1.17,-1.19
20.20,-5.88,-4.73,-5.94,-4.80,4.80,4.66,1.21,-1.08,-1.14,-1.15
20.40,-5.83,-4.71,-5.85,-4.74,4.74,4.59,1.25,-1.09,-1.11,-1.12
20.61,-5.79,-4.70,-5.77,-4.68,4.68,4.52,1.29,-1.10,-1.08,-1.09
20.81,-5.74,-4.69,-5.68,-4.62,4.62,4.45,1.32,-1.11,-1.06,-1.05
21.02,-5.69,-4.68,-5.59,-4.56,4.56,4.37,1.36,-1.13,-1.03,-1.01
21.23,-5.59,-4.59,-5.51,-4.50,4.50,4.30,1.40,-1.09,-1.01,-1.00
21.44,-5.48,-4.50,-5.42,-4.43,4.43,4.22,1.44,-1.05,-0.99,-0.98
21.66,-5.38,-4.42,-5.33,-4.36,4.36,4.14,1.49,-1.02,-0.97,-0.96
21.87,-5.28,-4.33,-5.24,-4.29,4.29,4.07,1.53,-0.99,-0.96,-0.95
22.09,-5.17,-4.24,-5.16,-4.21,4.21,3.99,1.58,-0.95,-0.94,-0.93
22.31,-5.07,-4.13,-5.07,-4.14,4.14,3.91,1.62,-0.93,-0.93,-0.93
22.54,-4.96,-4.04,-4.96,-4.04,4.04,3.84,1.67,-0.92,-0.92,-0.92
22.76,-4.85,-3.93,-4.86,-3.95,3.95,3.76,1.72,-0.90,-0.91,-0.91
22.99,-4.74,-3.82,-4.76,-3.85,3.85,3.69,1.77,-0.88,-0.90,-0.91
23.22,-4.65,-3.74,-4.66,-3.76,3.76,3.61,1.82,-0.88,-0.89,-0.90
23.45,-4.55,-3.65,-4.57,-3.68,3.68,3.54,1.87,-0.87,-0.89,-0.90
23.69,-4.46,-3.57,-4.48,-3.60,3.60,3.47,1.92,-0.86,-0.88,-0.89
23.92,-4.36,-3.48,-4.40,-3.52,3.52,3.39,1.97,-0.83,-0.88,-0.88
24.16,-4.30,-3.43,-4.33,-3.45,3.45,3.32,2.03,-0.85,-0.88,-0.87
24.40,-4.25,-3.39,-4.25,-3.38,3.38,3.26,2.08,-0.87,-0.88,-0.86
24.65,-4.21,-3.34,-4.18,-3.31,3.31,3.19,2.14,-0.90,-0.87,-0.87
24.89,-4.16,-3.29,-4.12,-3.25,3.25,3.12,2.20,-0.91,-0.87,-0.87
25.14,-4.10,-3.23,-4.06,-3.19,3.19,3.06,2.25,-0.91,-0.87,-0.87
25.39,-4.03,-3.15,-4.00,-3.13,3.13,3.00,2.31,-0.89,-0.87,-0.87
25.65,-3.96,-3.08,-3.95,-3.08,3.08,2.94,2.37,-0.88,-0.87,-0.87
25.91,-3.90,-3.01,-3.90,-3.03,3.03,2.88,2.42,-0.87,-0.87,-0.88
26.16,-3.84,-2.96,-3.85,-2.98,2.98,2.82,2.48,-0.86,-0.87,-0.88
26.43,-3.80,-2.92,-3.82,-2.94,2.94,2.76,2.54,-0.86,-0.88,-0.88
26.69,-3.76,-2.88,-3.78,-2.90,2.90,2.71,2.59,-0.85,-0.88,-0.88
26.96,-3.72,-2.84,-3.75,-2.87,2.87,2.65,2.64,-0.85,-0.88,-0.88
27.23,-3.69,-2.81,-3.72,-2.83,2.83,2.60,2.70,-0.86,-0.89,-0.88
27.50,-3.67,-2.79,-3.69,-2.80,2.80,2.55,2.75,-0.87,-0.89,-0.88
27.77,-3.66,-2.76,-3.66,-2.77,2.77,2.50,2.80,-0.89,-0.89,-0.89
28.05,-3.64,-2.74,-3.63,-2.74,2.74,2.46,2.84,-0.90,-0.89,-0.90
28.33,-3.64,-2.73,-3.61,-2.71,2.71,2.41,2.89,-0.92,-0.90,-0.91
28.62,-3.64,-2.74,-3.59,-2.69,2.69,2.37,2.93,-0.95,-0.90,-0.90
28.90,-3.64,-2.74,-3.57,-2.67,2.67,2.32,2.97,-0.97,-0.90,-0.90
29.19,-3.60,-2.68,-3.56,-2.65,2.65,2.28,3.00,-0.95,-0.90,-0.91
29.48,-3.53,-2.62,-3.55,-2.64,2.64,2.24,3.04,-0.89,-0.91,-0.90
29.78,-3.47,-2.56,-3.54,-2.62,2.62,2.21,3.06,-0.85,-0.91,-0.91
30.08,-3.42,-2.51,-3.52,-2.60,2.60,2.17,3.09,-0.82,-0.92,-0.91
30.38,-3.42,-2.50,-3.49,-2.57,2.57,2.13,3.11,-0.85,-0.92,-0.92
30.68,-3.42,-2.49,-3.46,-2.53,2.53,2.10,3.12,-0.89,-0.93,-0.92
30.99,-3.42,-2.48,-3.42,-2.49,2.49,2.07,3.13,-0.93,-0.93,-0.94
31.30,-3.42,-2.48,-3.37,-2.43,2.43,2.04,3.14,-0.99,-0.94,-0.94
31.61,-3.42,-2.48,-3.31,-2.37,2.37,2.00,3.14,-1.05,-0.94,-0.94
31.93,-3.42,-2.47,-3.25,-2.30,2.30,1.98,3.14,-1.12,-0.95,-0.95
32.24,-3.31,-2.34,-3.19,-2.23,2.23,1.95,3.13,-1.07,-0.96,-0.97
32.57,-3.17,-2.20,-3.12,-2.16,2.16,1.92,3.12,-1.01,-0.96,-0.97
32.89,-3.03,-2.06,-3.05,-2.08,2.08,1.90,3.11,-0.95,-0.97,-0.97
33.22,-2.92,-1.94,-2.97,-2.00,2.00,1.87,3.09,-0.92,-0.97,-0.97
33.55,-2.84,-1.86,-2.89,-1.91,1.91,1.85,3.07,-0.93,-0.98,-0.98
33.89,-2.76,-1.78,-2.81,-1.82,1.82,1.83,3.04,-0.94,-0.98,-0.98
34.23,-2.69,-1.70,-2.73,-1.74,1.74,1.81,3.02,-0.95,-0.99,-0.98
34.57,-2.64,-1.64,-2.66,-1.67,1.67,1.79,2.98,-0.97,-1.00,-1.00
34.92,-2.58,-1.58,-2.61,-1.61,1.61,1.77,2.95,-0.97,-1.00,-1.00
35.27,-2.55,-1.54,-2.57,-1.56,1.56,1.75,2.92,-0.99,-1.01,-1.00
35.62,-2.53,-1.51,-2.55,-1.53,1.53,1.73,2.88,-0.99,-1.01,-1.02
35.97,-2.51,-1.48,-2.54,-1.52,1.52,1.72,2.84,-0.99,-1.02,-1.02
36.33,-2.51,-1.48,-2.55,-1.52,1.52,1.70,2.80,-0.99,-1.03,-1.03
36.70,-2.51,-1.48,-2.56,-1.53,1.53,1.69,2.76,-0.98,-1.04,-1.03
37.06,-2.52,-1.47,-2.57,-1.53,1.53,1.67,2.72,-0.99,-1.04,-1.05
37.43,-2.61,-1.56,-2.59,-1.54,1.54,1.66,2.68,-1.07,-1.05,-1.05
37.81,-2.69,-1.63,-2.60,-1.55,1.55,1.65,2.64,-1.14,-1.06,-1.06
38.19,-2.73,-1.66,-2.63,-1.56,1.56,1.64,2.60,-1.17,-1.07,-1.07
38.57,-2.73,-1.65,-2.66,-1.58,1.58,1.63,2.56,-1.15,-1.07,-1.08
38.95,-2.73,-1.65,-2.68,-1.60,1.60,1.62,2.52,-1.13,-1.08,-1.08
39.34,-2.73,-1.63,-2.70,-1.62,1.62,1.61,2.48,-1.11,-1.09,-1.10
39.74,-2.73,-1.61,-2.73,-1.63,1.63,1.61,2.44,-1.09,-1.10,-1.11
40.14,-2.73,-1.62,-2.76,-1.66,1.66,1.60,2.40,-1.07,-1.11,-1.11
40.54,-2.73,-1.61,-2.79,-1.68,1.68,1.60,2.36,-1.05,-1.12,-1.12
40.94,-2.73,-1.61,-2.83,-1.70,1.70,1.59,2.33,-1.03,-1.13,-1.12
41.35,-2.81,-1.67,-2.86,-1.71,1.71,1.59,2.29,-1.09,-1.15,-1.14
41.76,-2.91,-1.75,-2.89,-1.73,1.73,1.58,2.26,-1.18,-1.17,-1.16
42.18,-2.96,-1.78,-2.93,-1.74,1.74,1.58,2.23,-1.22,-1.19,-1.17
42.60,-2.96,-1.76,-2.97,-1.76,1.76,1.58,2.20,-1.20,-1.21,-1.20
43.03,-2.97,-1.75,-3.01,-1.77,1.77,1.58,2.17,-1.20,-1.24,-1.22
43.46,-3.07,-1.82,-3.05,-1.78,1.78,1.58,2.14,-1.29,-1.27,-1.25
43.90,-3.17,-1.87,-3.08,-1.78,1.78,1.58,2.12,-1.38,-1.30,-1.30
44.33,-3.19,-1.86,-3.11,-1.79,1.79,1.58,2.10,-1.40,-1.32,-1.33
44.78,-3.19,-1.82,-3.13,-1.78,1.78,1.58,2.07,-1.41,-1.35,-1.37
45.23,-3.19,-1.79,-3.16,-1.78,1.78,1.58,2.05,-1.41,-1.38,-1.40
45.68,-3.19,-1.76,-3.18,-1.77,1.77,1.58,2.04,-1.42,-1.41,-1.43
46.13,-3.19,-1.74,-3.19,-1.76,1.76,1.58,2.02,-1.43,-1.43,-1.45
46.60,-3.19,-1.73,-3.20,-1.75,1.75,1.59,2.00,-1.44,-1.45,-1.46
47.06,-3.19,-1.71,-3.22,-1.75,1.75,1.59,1.99,-1.44,-1.47,-1.48
47.53,-3.19,-1.70,-3.25,-1.76,1.76,1.59,1.98,-1.43,-1.48,-1.49
48.01,-3.19,-1.70,-3.26,-1.77,1.77,1.60,1.97,-1.42,-1.49,-1.49
48.49,-3.25,-1.74,-3.28,-1.78,1.78,1.60,1.96,-1.47,-1.50,-1.50
48.97,-3.32,-1.80,-3.31,-1.80,1.80,1.61,1.95,-1.52,-1.51,-1.52
49.46,-3.37,-1.84,-3.35,-1.83,1.83,1.62,1.94,-1.53,-1.51,-1.53
49.96,-3.42,-1.88,-3.40,-1.88,1.88,1.62,1.94,-1.54,-1.52,-1.54
50.46,-3.44,-1.91,-3.44,-1.92,1.92,1.63,1.93,-1.52,-1.53,-1.53
50.96,-3.46,-1.93,-3.49,-1.95,1.95,1.64,1.93,-1.51,-1.54,-1.52
51.47,-3.55,-2.01,-3.54,-1.98,1.98,1.64,1.93,-1.56,-1.55,-1.54
51.99,-3.64,-2.08,-3.59,-2.02,2.02,1.65,1.92,-1.62,-1.57,-1.56
52.51,-3.64,-2.07,-3.65,-2.05,2.05,1.66,1.92,-1.58,-1.59,-1.57
53.03,-3.65,-2.05,-3.70,-2.08,2.08,1.67,1.92,-1.57,-1.62,-1.60
53.56,-3.77,-2.13,-3.75,-2.09,2.09,1.67,1.92,-1.68,-1.66,-1.64
54.10,-3.87,-2.18,-3.79,-2.10,2.10,1.68,1.92,-1.77,-1.69,-1.69
54.64,-3.87,-2.13,-3.83,-2.10,2.10,1.69,1.92,-1.77,-1.74,-1.73
55.18,-3.87,-2.08,-3.88,-2.10,2.10,1.70,1.92,-1.77,-1.78,-1.78
55.74,-3.87,-2.02,-3.93,-2.09,2.09,1.71,1.92,-1.77,-1.84,-1.84
56.29,-3.94,-2.04,-3.97,-2.08,2.08,1.72,1.92,-1.86,-1.90,-1.89
56.86,-4.07,-2.11,-4.01,-2.06,2.06,1.73,1.92,-2.01,-1.96,-1.96
57.42,-4.10,-2.07,-4.06,-2.04,2.04,1.74,1.92,-2.06,-2.02,-2.03
58.00,-4.10,-2.01,-4.10,-2.01,2.01,1.75,1.92,-2.08,-2.08,-2.09
58.58,-4.10,-1.94,-4.15,-1.99,1.99,1.75,1.92,-2.10,-2.15,-2.15
59.16,-4.14,-1.93,-4.19,-1.97,1.97,1.76,1.91,-2.17,-2.22,-2.21
59.76,-4.27,-1.99,-4.23,-1.94,1.94,1.77,1.91,-2.32,-2.28,-2.27
60.35,-4.32,-1.97,-4.27,-1.93,1.93,1.78,1.90,-2.39,-2.35,-2.35
60.96,-4.33,-1.92,-4.33,-1.91,1.91,1.79,1.90,-2.42,-2.41,-2.41
61.57,-4.33,-1.84,-4.37,-1.90,1.90,1.80,1.89,-2.43,-2.48,-2.48
62.18,-4.37,-1.82,-4.42,-1.88,1.88,1.80,1.88,-2.48,-2.54,-2.55
62.80,-4.52,-1.92,-4.47,-1.87,1.87,1.81,1.87,-2.64,-2.60,-2.60
63.43,-4.56,-1.90,-4.52,-1.87,1.87,1.82,1.86,-2.69,-2.66,-2.66
64.07,-4.56,-1.84,-4.58,-1.87,1.87,1.83,1.85,-2.69,-2.71,-2.71
64.71,-4.60,-1.83,-4.64,-1.88,1.88,1.83,1.84,-2.72,-2.76,-2.76
65.35,-4.67,-1.85,-4.70,-1.89,1.89,1.84,1.82,-2.78,-2.81,-2.82
66.01,-4.78,-1.92,-4.75,-1.89,1.89,1.84,1.80,-2.89,-2.86,-2.86
66.67,-4.78,-1.87,-4.79,-1.89,1.89,1.85,1.79,-2.89,-2.90,-2.91
67.33,-4.81,-1.87,-4.84,-1.90,1.90,1.85,1.77,-2.91,-2.94,-2.94
68.01,-4.88,-1.90,-4.88,-1.90,1.90,1.86,1.75,-2.98,-2.98,-2.98
68.69,-4.97,-1.95,-4.92,-1.90,1.90,1.86,1.73,-3.07,-3.02,-3.02
69.37,-5.01,-1.95,-4.95,-1.89,1.89,1.86,1.71,-3.11,-3.05,-3.05
70.07,-5.01,-1.92,-4.97,-1.88,1.88,1.87,1.69,-3.13,-3.09,-3.09
70.77,-5.01,-1.89,-4.99,-1.86,1.86,1.87,1.67,-3.14,-3.13,-3.11
71.48,-5.01,-1.85,-5.01,-1.84,1.84,1.87,1.65,-3.16,-3.16,-3.15
72.19,-5.01,-1.82,-5.02,-1.82,1.82,1.87,1.63,-3.19,-3.20,-3.19
72.91,-5.01,-1.78,-5.02,-1.79,1.79,1.87,1.61,-3.22,-3.23,-3.23
73.64,-5.01,-1.74,-5.02,-1.75,1.75,1.87,1.58,-3.26,-3.27,-3.26
74.38,-5.01,-1.71,-5.02,-1.71,1.71,1.87,1.56,-3.30,-3.31,-3.30
75.12,-5.01,-1.66,-5.01,-1.66,1.66,1.86,1.54,-3.34,-3.34,-3.35
75.87,-5.01,-1.63,-5.00,-1.62,1.62,1.86,1.52,-3.39,-3.38,-3.38
76.63,-5.01,-1.59,-4.99,-1.58,1.58,1.85,1.50,-3.43,-3.41,-3.42
77.40,-5.01,-1.56,-5.00,-1.55,1.55,1.85,1.48,-3.46,-3.45,-3.45
78.17,-5.01,-1.52,-5.01,-1.53,1.53,1.84,1.46,-3.48,-3.48,-3.49
78.95,-5.01,-1.50,-5.02,-1.51,1.51,1.84,1.44,-3.49,-3.51,-3.51
79.74,-5.01,-1.48,-5.04,-1.50,1.50,1.83,1.42,-3.50,-3.53,-3.53
80.54,-5.01,-1.44,-5.05,-1.49,1.49,1.82,1.41,-3.52,-3.56,-3.57
81.35,-5.01,-1.42,-5.06,-1.49,1.49,1.81,1.39,-3.52,-3.58,-3.59
82.16,-5.03,-1.42,-5.08,-1.49,1.49,1.80,1.37,-3.54,-3.60,-3.60
82.98,-5.12,-1.51,-5.11,-1.50,1.50,1.79,1.36,-3.62,-3.61,-3.61
83.81,-5.22,-1.59,-5.14,-1.51,1.51,1.78,1.35,-3.70,-3.62,-3.63
84.65,-5.24,-1.59,-5.17,-1.54,1.54,1.77,1.33,-3.70,-3.63,-3.64
85.50,-5.24,-1.60,-5.20,-1.56,1.56,1.76,1.32,-3.68,-3.64,-3.64
86.35,-5.24,-1.59,-5.24,-1.59,1.59,1.75,1.31,-3.65,-3.65,-3.65
87.22,-5.24,-1.58,-5.27,-1.61,1.61,1.73,1.30,-3.63,-3.66,-3.66
88.09,-5.24,-1.57,-5.29,-1.63,1.63,1.72,1.29,-3.61,-3.66,-3.67
88.97,-5.24,-1.58,-5.32,-1.65,1.65,1.70,1.29,-3.59,-3.67,-3.66
89.86,-5.39,-1.71,-5.36,-1.67,1.67,1.69,1.28,-3.72,-3.68,-3.67
90.76,-5.46,-1.76,-5.39,-1.69,1.69,1.67,1.27,-3.77,-3.70,-3.70
91.66,-5.47,-1.77,-5.42,-1.71,1.71,1.66,1.27,-3.76,-3.71,-3.70
92.58,-5.47,-1.74,-5.44,-1.71,1.71,1.64,1.26,-3.76,-3.73,-3.73
93.51,-5.47,-1.73,-5.46,-1.71,1.71,1.62,1.26,-3.75,-3.75,-3.74
94.44,-5.47,-1.71,-5.49,-1.72,1.72,1.61,1.26,-3.74,-3.77,-3.76
95.39,-5.47,-1.68,-5.53,-1.74,1.74,1.59,1.26,-3.73,-3.79,-3.79
96.34,-5.50,-1.67,-5.57,-1.75,1.75,1.57,1.26,-3.75,-3.82,-3.83
97.30,-5.61,-1.75,-5.61,-1.76,1.76,1.55,1.26,-3.85,-3.85,-3.86
98.28,-5.70,-1.80,-5.65,-1.76,1.76,1.53,1.26,-3.94,-3.89,-3.90
99.26,-5.70,-1.77,-5.68,-1.75,1.75,1.51,1.26,-3.95,-3.93,-3.93
100.25,-5.70,-1.73,-5.70,-1.73,1.73,1.49,1.27,-3.97,-3.97,-3.97
101.25,-5.70,-1.68,-5.73,-1.71,1.71,1.47,1.27,-3.99,-4.02,-4.02
102.27,-5.73,-1.66,-5.76,-1.70,1.70,1.45,1.27,-4.03,-4.07,-4.06
103.29,-5.84,-1.72,-5.80,-1.68,1.68,1.43,1.28,-4.16,-4.12,-4.12
104.32,-5.92,-1.75,-5.84,-1.66,1.66,1.41,1.28,-4.26,-4.18,-4.17
105.37,-5.92,-1.69,-5.88,-1.63,1.63,1.39,1.28,-4.29,-4.24,-4.23
106.42,-5.92,-1.62,-5.90,-1.59,1.59,1.37,1.29,-4.33,-4.31,-4.30
107.48,-5.92,-1.54,-5.93,-1.54,1.54,1.35,1.29,-4.37,-4.38,-4.37
108.56,-5.92,-1.46,-5.95,-1.49,1.49,1.33,1.30,-4.43,-4.46,-4.46
109.64,-5.92,-1.38,-5.98,-1.45,1.45,1.31,1.30,-4.47,-4.54,-4.54
110.74,-5.93,-1.31,-6.02,-1.40,1.40,1.29,1.31,-4.53,-4.62,-4.62
111.85,-6.12,-1.42,-6.06,-1.36,1.36,1.27,1.31,-4.76,-4.70,-4.69
112.97,-6.15,-1.36,-6.09,-1.31,1.31,1.25,1.31,-4.84,-4.79,-4.79
114.10,-6.15,-1.28,-6.12,-1.25,1.25,1.23,1.31,-4.90,-4.87,-4.87
115.24,-6.15,-1.20,-6.15,-1.20,1.20,1.21,1.32,-4.95,-4.95,-4.95
116.39,-6.15,-1.11,-6.19,-1.16,1.16,1.19,1.32,-4.99,-5.02,-5.04
117.55,-6.16,-1.04,-6.23,-1.13,1.13,1.17,1.31,-5.03,-5.10,-5.11
118.73,-6.32,-1.13,-6.27,-1.11,1.11,1.15,1.31,-5.21,-5.16,-5.19
119.92,-6.38,-1.13,-6.31,-1.08,1.08,1.13,1.31,-5.29,-5.23,-5.24
121.12,-6.38,-1.07,-6.35,-1.06,1.06,1.10,1.31,-5.32,-5.29,-5.31
122.33,-6.38,-1.02,-6.38,-1.04,1.04,1.08,1.30,-5.34,-5.35,-5.36
123.55,-6.38,-0.99,-6.42,-1.02,1.02,1.07,1.29,-5.36,-5.40,-5.39
124.79,-6.38,-0.93,-6.45,-1.01,1.01,1.05,1.28,-5.37,-5.45,-5.44
126.03,-6.53,-1.04,-6.50,-1.01,1.01,1.03,1.27,-5.52,-5.49,-5.49
127.29,-6.58,-1.05,-6.54,-1.00,1.00,1.01,1.26,-5.58,-5.54,-5.53
128.57,-6.61,-1.03,-6.57,-1.00,1.00,0.99,1.25,-5.61,-5.58,-5.58
129.85,-6.61,-0.99,-6.61,-0.99,0.99,0.97,1.23,-5.62,-5.62,-5.62
131.15,-6.61,-0.95,-6.64,-0.98,0.98,0.95,1.22,-5.63,-5.66,-5.65
132.46,-6.61,-0.91,-6.67,-0.96,0.96,0.93,1.20,-5.65,-5.70,-5.70
133.79,-6.75,-1.01,-6.71,-0.96,0.96,0.91,1.18,-5.79,-5.75,-5.74
135.12,-6.84,-1.04,-6.75,-0.97,0.97,0.89,1.16,-5.87,-5.79,-5.79
136.48,-6.84,-1.01,-6.80,-0.97,0.97,0.88,1.14,-5.86,-5.83,-5.83
137.84,-6.84,-0.96,-6.85,-0.97,0.97,0.86,1.12,-5.87,-5.87,-5.87
139.22,-6.84,-0.90,-6.89,-0.97,0.97,0.84,1.10,-5.87,-5.92,-5.94
140.61,-6.84,-0.85,-6.93,-0.96,0.96,0.82,1.07,-5.87,-5.97,-5.99
142.02,-6.95,-0.93,-6.99,-0.97,0.97,0.81,1.05,-5.98,-6.02,-6.02
143.44,-7.03,-0.96,-7.04,-0.97,0.97,0.79,1.02,-6.06,-6.07,-6.07
144.87,-7.06,-0.94,-7.10,-0.97,0.97,0.77,1.00,-6.09,-6.13,-6.12
146.32,-7.21,-1.03,-7.16,-0.97,0.97,0.76,0.97,-6.24,-6.19,-6.18
147.78,-7.29,-1.06,-7.22,-0.95,0.95,0.74,0.95,-6.33,-6.26,-6.22
149.26,-7.29,-0.99,-7.27,-0.93,0.93,0.72,0.92,-6.36,-6.33,-6.30
150.75,-7.29,-0.90,-7.32,-0.92,0.92,0.71,0.89,-6.37,-6.41,-6.39
152.26,-7.30,-0.84,-7.38,-0.90,0.90,0.69,0.87,-6.40,-6.48,-6.46
153.78,-7.45,-0.90,-7.43,-0.87,0.87,0.68,0.84,-6.58,-6.56,-6.54
155.32,-7.51,-0.86,-7.46,-0.82,0.82,0.66,0.81,-6.69,-6.64,-6.65
156.88,-7.52,-0.79,-7.48,-0.76,0.76,0.65,0.79,-6.75,-6.72,-6.73
158.44,-7.52,-0.71,-7.49,-0.69,0.69,0.63,0.76,-6.82,-6.80,-6.81
160.03,-7.52,-0.63,-7.48,-0.61,0.61,0.62,0.73,-6.91,-6.87,-6.89
161.63,-7.52,-0.56,-7.47,-0.53,0.53,0.60,0.71,-6.99,-6.93,-6.96
163.24,-7.52,-0.50,-7.45,-0.46,0.46,0.59,0.68,-7.06,-6.99,-7.01
164.88,-7.52,-0.46,-7.44,-0.39,0.39,0.58,0.65,-7.13,-7.04,-7.06
166.53,-7.48,-0.37,-7.43,-0.34,0.34,0.56,0.63,-7.14,-7.08,-7.11
168.19,-7.36,-0.22,-7.42,-0.30,0.30,0.55,0.60,-7.06,-7.12,-7.14
169.87,-7.29,-0.12,-7.40,-0.26,0.26,0.54,0.58,-7.03,-7.14,-7.17
171.57,-7.29,-0.11,-7.39,-0.23,0.23,0.52,0.55,-7.06,-7.16,-7.18
173.29,-7.29,-0.11,-7.39,-0.21,0.21,0.51,0.53,-7.07,-7.17,-7.18
175.02,-7.29,-0.12,-7.39,-0.21,0.21,0.50,0.51,-7.08,-7.18,-7.17
176.77,-7.29,-0.11,-7.40,-0.21,0.21,0.49,0.48,-7.08,-7.19,-7.18
178.54,-7.47,-0.29,-7.41,-0.21,0.21,0.47,0.46,-7.26,-7.19,-7.18
180.32,-7.52,-0.34,-7.42,-0.22,0.22,0.46,0.44,-7.30,-7.20,-7.18
182.13,-7.52,-0.34,-7.44,-0.23,0.23,0.45,0.42,-7.29,-7.20,-7.18
183.95,-7.52,-0.33,-7.46,-0.24,0.24,0.44,0.39,-7.27,-7.21,-7.18
185.79,-7.52,-0.32,-7.48,-0.26,0.26,0.43,0.37,-7.26,-7.22,-7.20
187.65,-7.52,-0.29,-7.50,-0.27,0.27,0.41,0.35,-7.25,-7.23,-7.23
189.52,-7.52,-0.27,-7.52,-0.27,0.27,0.40,0.33,-7.25,-7.25,-7.25
191.42,-7.52,-0.24,-7.53,-0.26,0.26,0.39,0.31,-7.26,-7.27,-7.27
193.33,-7.52,-0.22,-7.54,-0.25,0.25,0.38,0.29,-7.27,-7.29,-7.30
195.27,-7.52,-0.21,-7.54,-0.22,0.22,0.37,0.27,-7.29,-7.31,-7.31
197.22,-7.52,-0.19,-7.53,-0.20,0.20,0.36,0.25,-7.32,-7.33,-7.33
199.19,-7.52,-0.14,-7.52,-0.16,0.16,0.35,0.23,-7.35,-7.36,-7.37
201.18,-7.52,-0.13,-7.52,-0.14,0.14,0.34,0.22,-7.38,-7.38,-7.38
203.19,-7.52,-0.11,-7.52,-0.11,0.11,0.33,0.20,-7.40,-7.40,-7.40
205.23,-7.52,-0.09,-7.52,-0.09,0.09,0.32,0.18,-7.43,-7.43,-7.43
207.28,-7.52,-0.08,-7.52,-0.07,0.07,0.31,0.16,-7.45,-7.45,-7.44
209.35,-7.52,-0.05,-7.52,-0.05,0.05,0.30,0.15,-7.47,-7.47,-7.47
211.44,-7.52,-0.02,-7.52,-0.03,0.03,0.29,0.13,-7.48,-7.48,-7.50
213.56,-7.52,-0.02,-7.52,-0.02,0.02,0.28,0.11,-7.50,-7.50,-7.50
215.69,-7.52,-0.01,-7.52,0.00,-0.00,0.27,0.10,-7.52,-7.52,-7.51
217.85,-7.52,0.02,-7.52,0.02,-0.02,0.26,0.08,-7.54,-7.54,-7.53
220.03,-7.52,0.03,-7.52,0.03,-0.03,0.25,0.07,-7.55,-7.55,-7.55
222.23,-7.52,0.06,-7.52,0.05,-0.05,0.24,0.06,-7.56,-7.56,-7.57
224.45,-7.52,0.06,-7.52,0.06,-0.06,0.23,0.04,-7.57,-7.57,-7.58
226.70,-7.52,0.06,-7.52,0.07,-0.07,0.22,0.03,-7.59,-7.59,-7.58
228.96,-7.52,0.08,-7.52,0.08,-0.08,0.21,0.02,-7.59,-7.59,-7.59
231.25,-7.52,0.08,-7.52,0.09,-0.09,0.20,0.00,-7.60,-7.60,-7.60
233.57,-7.52,0.09,-7.51,0.10,-0.10,0.20,-0.01,-7.62,-7.61,-7.61
235.90,-7.52,0.10,-7.50,0.11,-0.11,0.19,-0.02,-7.63,-7.61,-7.62
238.26,-7.52,0.10,-7.50,0.12,-0.12,0.18,-0.03,-7.63,-7.61,-7.62
240.64,-7.52,0.10,-7.50,0.11,-0.11,0.17,-0.04,-7.63,-7.62,-7.62
243.05,-7.52,0.10,-7.51,0.11,-0.11,0.16,-0.04,-7.62,-7.62,-7.61
245.48,-7.52,0.10,-7.52,0.09,-0.09,0.15,-0.05,-7.61,-7.61,-7.61
247.93,-7.52,0.09,-7.54,0.07,-0.07,0.14,-0.06,-7.59,-7.61,-7.60
250.41,-7.52,0.09,-7.56,0.04,-0.04,0.14,-0.07,-7.56,-7.61,-7.61
252.92,-7.52,0.08,-7.59,0.02,-0.02,0.13,-0.07,-7.53,-7.60,-7.60
255.45,-7.52,0.06,-7.61,-0.01,0.01,0.12,-0.08,-7.51,-7.59,-7.58
258.00,-7.52,0.06,-7.62,-0.04,0.04,0.11,-0.08,-7.48,-7.59,-7.58
260.58,-7.66,-0.08,-7.63,-0.06,0.06,0.10,-0.09,-7.60,-7.58,-7.58
263.19,-7.74,-0.17,-7.64,-0.08,0.08,0.09,-0.09,-7.66,-7.56,-7.57
265.82,-7.75,-0.19,-7.65,-0.10,0.10,0.09,-0.09,-7.65,-7.55,-7.56
268.48,-7.75,-0.21,-7.65,-0.11,0.11,0.08,-0.09,-7.64,-7.54,-7.54
271.16,-7.75,-0.22,-7.65,-0.13,0.13,0.07,-0.10,-7.62,-7.52,-7.53
273.87,-7.75,-0.23,-7.64,-0.14,0.14,0.06,-0.10,-7.61,-7.50,-7.51
276.61,-7.62,-0.14,-7.64,-0.15,0.15,0.05,-0.10,-7.46,-7.48,-7.48
279.38,-7.54,-0.07,-7.63,-0.17,0.17,0.05,-0.10,-7.37,-7.46,-7.47
282.17,-7.52,-0.08,-7.62,-0.18,0.18,0.04,-0.10,-7.33,-7.44,-7.44
284.99,-7.52,-0.10,-7.60,-0.19,0.19,0.03,-0.10,-7.33,-7.42,-7.42
287.84,-7.52,-0.12,-7.58,-0.19,0.19,0.02,-0.10,-7.33,-7.39,-7.39
290.72,-7.52,-0.16,-7.54,-0.18,0.18,0.01,-0.09,-7.34,-7.36,-7.36
293.63,-7.52,-0.18,-7.51,-0.17,0.17,0.01,-0.09,-7.34,-7.34,-7.33
296.57,-7.52,-0.21,-7.48,-0.17,0.17,-0.00,-0.09,-7.35,-7.31,-7.31
299.53,-7.52,-0.23,-7.46,-0.17,0.17,-0.01,-0.09,-7.35,-7.29,-7.28
302.53,-7.52,-0.25,-7.44,-0.17,0.17,-0.02,-0.08,-7.35,-7.27,-7.27
305.55,-7.52,-0.28,-7.42,-0.17,0.17,-0.03,-0.08,-7.35,-7.25,-7.23
308.61,-7.46,-0.24,-7.41,-0.18,0.18,-0.04,-0.08,-7.27,-7.23,-7.22
311.69,-7.31,-0.11,-7.40,-0.19,0.19,-0.04,-0.07,-7.12,-7.21,-7.20
314.81,-7.29,-0.11,-7.38,-0.18,0.18,-0.05,-0.07,-7.11,-7.20,-7.18
317.96,-7.29,-0.11,-7.36,-0.17,0.17,-0.06,-0.07,-7.12,-7.19,-7.18
321.14,-7.29,-0.10,-7.33,-0.15,0.15,-0.07,-0.06,-7.14,-7.18,-7.18
324.35,-7.29,-0.11,-7.30,-0.13,0.13,-0.08,-0.06,-7.16,-7.17,-7.18
327.59,-7.29,-0.12,-7.27,-0.11,0.11,-0.09,-0.05,-7.18,-7.16,-7.17
330.87,-7.29,-0.12,-7.25,-0.09,0.09,-0.09,-0.05,-7.20,-7.15,-7.16
334.18,-7.29,-0.13,-7.23,-0.08,0.08,-0.10,-0.04,-7.21,-7.14,-7.16
337.52,-7.29,-0.14,-7.21,-0.08,0.08,-0.11,-0.04,-7.21,-7.13,-7.15
340.90,-7.29,-0.16,-7.19,-0.07,0.07,-0.12,-0.03,-7.22,-7.12,-7.12
344.30,-7.11,0.01,-7.17,-0.06,0.06,-0.13,-0.03,-7.04,-7.11,-7.12
347.75,-7.06,0.04,-7.15,-0.06,0.06,-0.14,-0.02,-7.00,-7.09,-7.10
351.23,-7.06,0.01,-7.12,-0.05,0.05,-0.15,-0.01,-7.01,-7.07,-7.07
354.74,-7.06,-0.00,-7.08,-0.03,0.03,-0.16,-0.01,-7.02,-7.05,-7.05
358.28,-7.06,-0.03,-7.05,-0.02,0.02,-0.17,-0.00,-7.04,-7.03,-7.03
361.87,-7.06,-0.05,-7.02,-0.01,0.01,-0.18,0.00,-7.04,-7.00,-7.01
365.49,-7.06,-0.08,-6.99,-0.01,0.01,-0.18,0.01,-7.05,-6.98,-6.98
369.14,-7.04,-0.08,-6.97,-0.01,0.01,-0.19,0.01,-7.03,-6.96,-6.96
372.83,-6.90,0.04,-6.94,-0.00,0.00,-0.20,0.02,-6.90,-6.94,-6.93
376.56,-6.84,0.08,-6.91,0.01,-0.01,-0.21,0.03,-6.84,-6.92,-6.92
380.33,-6.84,0.05,-6.89,0.01,-0.01,-0.22,0.03,-6.85,-6.90,-6.89
384.13,-6.84,0.03,-6.87,0.02,-0.02,-0.23,0.04,-6.85,-6.88,-6.87
387.97,-6.84,0.02,-6.84,0.03,-0.03,-0.24,0.04,-6.87,-6.87,-6.86
391.85,-6.84,0.02,-6.80,0.05,-0.05,-0.25,0.05,-6.89,-6.85,-6.85
395.77,-6.84,0.01,-6.77,0.07,-0.07,-0.27,0.05,-6.91,-6.84,-6.85
399.73,-6.84,-0.00,-6.75,0.09,-0.09,-0.28,0.06,-6.92,-6.83,-6.84
403.72,-6.75,0.08,-6.73,0.10,-0.10,-0.29,0.06,-6.85,-6.83,-6.83
407.76,-6.64,0.18,-6.71,0.11,-0.11,-0.30,0.07,-6.75,-6.82,-6.82
411.84,-6.61,0.20,-6.69,0.13,-0.13,-0.31,0.07,-6.74,-6.82,-6.81
415.96,-6.61,0.20,-6.67,0.14,-0.14,-0.32,0.07,-6.75,-6.81,-6.80
420.12,-6.61,0.20,-6.65,0.16,-0.16,-0.33,0.07,-6.76,-6.81,-6.80
424.32,-6.61,0.20,-6.63,0.18,-0.18,-0.35,0.07,-6.79,-6.81,-6.81
428.56,-6.61,0.20,-6.59,0.21,-0.21,-0.36,0.07,-6.82,-6.80,-6.81
432.85,-6.61,0.20,-6.57,0.23,-0.23,-0.37,0.07,-6.84,-6.80,-6.81
437.18,-6.61,0.19,-6.54,0.26,-0.26,-0.38,0.07,-6.87,-6.80,-6.80
441.55,-6.61,0.18,-6.50,0.29,-0.29,-0.40,0.06,-6.90,-6.79,-6.79
