frequency,raw,error,smoothed,error_smoothed,equalization,parametric_eq,fixed_band_eq,equalized_raw,equalized_smoothed,target
20.00,-2.96,-7.67,-2.96,-7.70,7.70,7.05,3.00,4.74,4.73,4.71
20.20,-2.92,-7.67,-2.91,-7.68,7.68,7.12,3.08,4.76,4.76,4.75
20.40,-2.87,-7.65,-2.87,-7.66,7.66,7.18,3.17,4.79,4.79,4.78
20.61,-2.83,-7.64,-2.82,-7.64,7.64,7.24,3.26,4.81,4.82,4.81
20.81,-2.77,-7.62,-2.77,-7.61,7.61,7.30,3.36,4.85,4.84,4.85
21.02,-2.73,-7.62,-2.73,-7.59,7.59,7.35,3.46,4.86,4.86,4.89
21.23,-2.68,-7.58,-2.68,-7.57,7.57,7.39,3.56,4.89,4.89,4.90
21.44,-2.63,-7.55,-2.64,-7.55,7.55,7.43,3.66,4.92,4.91,4.92
21.66,-2.59,-7.53,-2.60,-7.52,7.52,7.47,3.77,4.93,4.92,4.94
21.87,-2.54,-7.49,-2.55,-7.49,7.49,7.50,3.87,4.95,4.94,4.95
22.09,-2.50,-7.46,-2.51,-7.47,7.47,7.52,3.99,4.97,4.96,4.96
22.31,-2.46,-7.42,-2.47,-7.44,7.44,7.54,4.10,4.98,4.97,4.96
22.54,-2.44,-7.41,-2.43,-7.41,7.41,7.56,4.22,4.97,4.98,4.97
22.76,-2.40,-7.38,-2.39,-7.38,7.38,7.56,4.34,4.98,4.99,4.98
22.99,-2.37,-7.35,-2.35,-7.34,7.34,7.56,4.47,4.97,5.00,4.98
23.22,-2.33,-7.32,-2.31,-7.31,7.31,7.56,4.59,4.98,5.00,4.99
23.45,-2.27,-7.27,-2.27,-7.28,7.28,7.55,4.72,5.01,5.01,5.00
23.69,-2.23,-7.24,-2.24,-7.25,7.25,7.54,4.86,5.02,5.01,5.01
23.92,-2.18,-7.20,-2.20,-7.22,7.22,7.52,4.99,5.04,5.02,5.02
24.16,-2.14,-7.17,-2.16,-7.19,7.19,7.50,5.13,5.05,5.02,5.03
24.40,-2.12,-7.16,-2.13,-7.15,7.15,7.47,5.27,5.03,5.02,5.04
24.65,-2.09,-7.12,-2.09,-7.12,7.12,7.43,5.42,5.03,5.03,5.03
24.89,-2.06,-7.09,-2.05,-7.08,7.08,7.40,5.56,5.02,5.03,5.03
25.14,-2.03,-7.06,-2.01,-7.05,7.05,7.35,5.71,5.02,5.03,5.03
25.39,-1.99,-7.02,-1.98,-7.01,7.01,7.31,5.86,5.02,5.03,5.03
25.65,-1.95,-6.98,-1.94,-6.97,6.97,7.26,6.01,5.02,5.03,5.03
25.91,-1.91,-6.92,-1.90,-6.93,6.93,7.21,6.16,5.02,5.03,5.01
26.16,-1.86,-6.88,-1.87,-6.90,6.90,7.15,6.31,5.04,5.03,5.02
26.43,-1.83,-6.85,-1.83,-6.86,6.86,7.10,6.46,5.03,5.02,5.02
26.69,-1.79,-6.81,-1.80,-6.82,6.82,7.04,6.61,5.03,5.02,5.02
26.96,-1.75,-6.77,-1.76,-6.78,6.78,6.98,6.76,5.02,5.02,5.02
27.23,-1.71,-6.73,-1.72,-6.73,6.73,6.91,6.91,5.02,5.02,5.02
27.50,-1.67,-6.69,-1.67,-6.69,6.69,6.85,7.05,5.02,5.01,5.02
27.77,-1.63,-6.64,-1.63,-6.64,6.64,6.79,7.19,5.01,5.01,5.01
28.05,-1.60,-6.61,-1.59,-6.60,6.60,6.72,7.32,5.00,5.01,5.01
28.33,-1.56,-6.55,-1.54,-6.55,6.55,6.65,7.45,4.99,5.01,4.99
28.62,-1.53,-6.53,-1.50,-6.51,6.51,6.59,7.57,4.98,5.01,5.00
28.90,-1.49,-6.49,-1.47,-6.47,6.47,6.52,7.68,4.98,5.00,5.00
29.19,-1.44,-6.43,-1.43,-6.43,6.43,6.45,7.79,4.99,5.00,4.99
29.48,-1.38,-6.38,-1.40,-6.40,6.40,6.39,7.88,5.02,5.00,5.00
29.78,-1.33,-6.33,-1.37,-6.37,6.37,6.32,7.96,5.04,4.99,5.00
30.08,-1.28,-6.28,-1.34,-6.33,6.33,6.26,8.04,5.05,4.99,5.00
30.38,-1.27,-6.25,-1.31,-6.30,6.30,6.19,8.09,5.03,4.98,4.98
30.68,-1.27,-6.25,-1.28,-6.26,6.26,6.13,8.14,4.99,4.98,4.98
30.99,-1.26,-6.23,-1.25,-6.22,6.22,6.07,8.17,4.96,4.97,4.97
31.30,-1.26,-6.23,-1.22,-6.19,6.19,6.01,8.19,4.93,4.97,4.97
31.61,-1.25,-6.22,-1.19,-6.16,6.16,5.96,8.20,4.91,4.97,4.97
31.93,-1.25,-6.20,-1.17,-6.13,6.13,5.90,8.19,4.88,4.96,4.95
32.24,-1.19,-6.13,-1.16,-6.11,6.11,5.85,8.17,4.92,4.95,4.94
32.57,-1.13,-6.07,-1.14,-6.09,6.09,5.80,8.13,4.96,4.95,4.94
32.89,-1.04,-5.98,-1.12,-6.06,6.06,5.75,8.09,5.02,4.94,4.94
33.22,-1.02,-5.96,-1.09,-6.03,6.03,5.70,8.03,5.01,4.94,4.94
33.55,-1.02,-5.95,-1.06,-6.00,6.00,5.66,7.96,4.98,4.93,4.93
33.89,-1.02,-5.95,-1.03,-5.96,5.96,5.61,7.89,4.94,4.93,4.93
34.23,-1.02,-5.95,-1.00,-5.92,5.92,5.58,7.80,4.90,4.92,4.93
34.57,-1.03,-5.95,-0.97,-5.88,5.88,5.54,7.71,4.85,4.92,4.92
34.92,-1.02,-5.93,-0.94,-5.85,5.85,5.51,7.61,4.83,4.91,4.91
35.27,-0.97,-5.88,-0.91,-5.82,5.82,5.48,7.51,4.85,4.91,4.91
35.62,-0.89,-5.79,-0.89,-5.79,5.79,5.45,7.40,4.90,4.90,4.90
35.97,-0.80,-5.69,-0.87,-5.77,5.77,5.43,7.29,4.97,4.90,4.89
36.33,-0.80,-5.69,-0.86,-5.75,5.75,5.41,7.17,4.95,4.89,4.89
36.70,-0.80,-5.69,-0.85,-5.73,5.73,5.39,7.06,4.93,4.88,4.89
37.06,-0.80,-5.67,-0.83,-5.71,5.71,5.38,6.94,4.91,4.88,4.87
37.43,-0.79,-5.66,-0.81,-5.68,5.68,5.37,6.82,4.89,4.87,4.87
37.81,-0.80,-5.66,-0.80,-5.66,5.66,5.36,6.71,4.86,4.86,4.86
38.19,-0.80,-5.65,-0.78,-5.64,5.64,5.36,6.59,4.84,4.86,4.85
38.57,-0.80,-5.65,-0.76,-5.61,5.61,5.36,6.48,4.81,4.85,4.85
38.95,-0.79,-5.63,-0.75,-5.59,5.59,5.36,6.37,4.80,4.84,4.84
39.34,-0.79,-5.62,-0.74,-5.58,5.58,5.37,6.26,4.79,4.84,4.83
39.74,-0.79,-5.60,-0.74,-5.57,5.57,5.38,6.15,4.78,4.83,4.81
40.14,-0.77,-5.59,-0.74,-5.56,5.56,5.39,6.05,4.79,4.82,4.82
40.54,-0.73,-5.54,-0.74,-5.55,5.55,5.40,5.95,4.82,4.81,4.81
40.94,-0.68,-5.49,-0.73,-5.53,5.53,5.42,5.85,4.85,4.80,4.81
41.35,-0.68,-5.47,-0.74,-5.52,5.52,5.44,5.76,4.84,4.78,4.79
41.76,-0.68,-5.45,-0.74,-5.51,5.51,5.46,5.67,4.83,4.77,4.77
42.18,-0.70,-5.46,-0.75,-5.50,5.50,5.49,5.58,4.80,4.75,4.76
42.60,-0.75,-5.48,-0.77,-5.49,5.49,5.51,5.50,4.74,4.72,4.73
43.03,-0.80,-5.52,-0.79,-5.49,5.49,5.54,5.42,4.69,4.70,4.72
43.46,-0.85,-5.54,-0.82,-5.49,5.49,5.57,5.35,4.64,4.67,4.69
43.90,-0.90,-5.54,-0.86,-5.50,5.50,5.60,5.28,4.60,4.65,4.64
44.33,-0.91,-5.52,-0.89,-5.51,5.51,5.62,5.21,4.60,4.62,4.61
44.78,-0.91,-5.49,-0.94,-5.53,5.53,5.65,5.15,4.62,4.59,4.58
45.23,-0.94,-5.49,-0.98,-5.55,5.55,5.68,5.09,4.61,4.57,4.55
45.68,-1.01,-5.53,-1.03,-5.57,5.57,5.70,5.04,4.56,4.54,4.52
46.13,-1.07,-5.57,-1.06,-5.58,5.58,5.72,4.99,4.51,4.52,4.50
46.60,-1.10,-5.59,-1.09,-5.59,5.59,5.73,4.94,4.49,4.50,4.49
47.06,-1.14,-5.61,-1.11,-5.59,5.59,5.74,4.90,4.45,4.48,4.47
47.53,-1.16,-5.63,-1.12,-5.60,5.60,5.75,4.86,4.44,4.47,4.47
48.01,-1.16,-5.63,-1.13,-5.59,5.59,5.75,4.82,4.43,4.46,4.47
48.49,-1.17,-5.62,-1.13,-5.59,5.59,5.74,4.79,4.42,4.46,4.45
48.97,-1.18,-5.62,-1.14,-5.59,5.59,5.73,4.76,4.41,4.46,4.44
49.46,-1.16,-5.59,-1.14,-5.59,5.59,5.70,4.74,4.43,4.45,4.43
49.96,-1.14,-5.57,-1.13,-5.58,5.58,5.67,4.71,4.44,4.45,4.43
50.46,-1.09,-5.53,-1.13,-5.57,5.57,5.64,4.69,4.48,4.44,4.44
50.96,-1.03,-5.48,-1.11,-5.55,5.55,5.59,4.67,4.52,4.44,4.45
51.47,-1.02,-5.46,-1.10,-5.52,5.52,5.54,4.66,4.50,4.42,4.44
51.99,-1.02,-5.44,-1.07,-5.48,5.48,5.48,4.64,4.46,4.41,4.42
52.51,-1.03,-5.44,-1.04,-5.43,5.43,5.41,4.63,4.40,4.39,4.41
53.03,-1.03,-5.41,-1.01,-5.37,5.37,5.33,4.62,4.34,4.36,4.38
53.56,-1.03,-5.38,-0.97,-5.31,5.31,5.25,4.60,4.28,4.33,4.35
54.10,-1.02,-5.33,-0.93,-5.23,5.23,5.16,4.59,4.21,4.30,4.31
54.64,-0.96,-5.22,-0.89,-5.15,5.15,5.07,4.58,4.19,4.26,4.26
55.18,-0.89,-5.10,-0.84,-5.05,5.05,4.97,4.57,4.16,4.21,4.21
55.74,-0.83,-4.99,-0.78,-4.95,4.95,4.86,4.56,4.12,4.16,4.16
56.29,-0.73,-4.84,-0.73,-4.84,4.84,4.76,4.55,4.11,4.11,4.11
56.86,-0.61,-4.66,-0.67,-4.72,4.72,4.65,4.54,4.11,4.05,4.05
57.42,-0.57,-4.55,-0.61,-4.60,4.60,4.54,4.52,4.03,3.99,3.98
58.00,-0.57,-4.49,-0.56,-4.49,4.49,4.43,4.51,3.92,3.93,3.92
58.58,-0.51,-4.37,-0.51,-4.38,4.38,4.31,4.49,3.87,3.87,3.86
59.16,-0.44,-4.25,-0.48,-4.28,4.28,4.20,4.47,3.84,3.81,3.81
59.76,-0.38,-4.13,-0.45,-4.19,4.19,4.09,4.44,3.81,3.74,3.75
60.35,-0.35,-4.03,-0.44,-4.12,4.12,3.97,4.41,3.77,3.68,3.68
60.96,-0.35,-3.98,-0.44,-4.06,4.06,3.86,4.38,3.71,3.62,3.63
61.57,-0.41,-3.97,-0.45,-4.01,4.01,3.75,4.35,3.60,3.56,3.56
62.18,-0.46,-3.95,-0.47,-3.97,3.97,3.64,4.31,3.51,3.51,3.49
62.80,-0.46,-3.91,-0.49,-3.94,3.94,3.53,4.27,3.48,3.45,3.45
63.43,-0.51,-3.90,-0.51,-3.91,3.91,3.43,4.22,3.40,3.40,3.39
64.07,-0.57,-3.92,-0.52,-3.87,3.87,3.32,4.17,3.30,3.35,3.35
64.71,-0.57,-3.87,-0.52,-3.83,3.83,3.22,4.12,3.26,3.31,3.30
65.35,-0.57,-3.82,-0.52,-3.79,3.79,3.12,4.06,3.22,3.26,3.25
66.01,-0.57,-3.79,-0.51,-3.73,3.73,3.03,4.00,3.16,3.22,3.22
66.67,-0.57,-3.75,-0.48,-3.67,3.67,2.94,3.93,3.10,3.19,3.18
67.33,-0.51,-3.66,-0.44,-3.59,3.59,2.84,3.86,3.08,3.15,3.15
68.01,-0.41,-3.53,-0.38,-3.49,3.49,2.76,3.79,3.08,3.12,3.12
68.69,-0.35,-3.44,-0.30,-3.39,3.39,2.67,3.72,3.04,3.09,3.09
69.37,-0.23,-3.28,-0.23,-3.28,3.28,2.59,3.64,3.05,3.06,3.05
70.07,-0.11,-3.13,-0.14,-3.17,3.17,2.50,3.57,3.06,3.03,3.02
70.77,-0.03,-3.04,-0.06,-3.05,3.05,2.43,3.49,3.02,3.00,3.01
71.48,0.05,-2.92,0.03,-2.93,2.93,2.35,3.40,2.98,2.97,2.97
72.19,0.16,-2.79,0.12,-2.82,2.82,2.28,3.32,2.98,2.94,2.95
72.91,0.32,-2.59,0.21,-2.70,2.70,2.20,3.24,3.02,2.91,2.91
73.64,0.34,-2.54,0.29,-2.59,2.59,2.13,3.15,2.93,2.88,2.88
74.38,0.37,-2.48,0.36,-2.48,2.48,2.07,3.07,2.85,2.85,2.85
75.12,0.43,-2.39,0.43,-2.39,2.39,2.00,2.98,2.82,2.82,2.82
75.87,0.45,-2.34,0.49,-2.31,2.31,1.94,2.89,2.76,2.79,2.79
76.63,0.51,-2.25,0.54,-2.23,2.23,1.88,2.81,2.74,2.76,2.76
77.40,0.56,-2.17,0.58,-2.16,2.16,1.82,2.72,2.72,2.74,2.73
78.17,0.62,-2.08,0.62,-2.09,2.09,1.76,2.64,2.71,2.71,2.70
78.95,0.68,-2.01,0.66,-2.03,2.03,1.70,2.55,2.71,2.69,2.69
79.74,0.69,-1.98,0.70,-1.98,1.98,1.65,2.47,2.67,2.67,2.67
80.54,0.73,-1.92,0.73,-1.93,1.93,1.59,2.39,2.66,2.66,2.65
81.35,0.77,-1.86,0.75,-1.89,1.89,1.54,2.30,2.66,2.65,2.63
82.16,0.80,-1.83,0.78,-1.85,1.85,1.49,2.22,2.65,2.64,2.63
82.98,0.80,-1.83,0.81,-1.82,1.82,1.44,2.14,2.62,2.63,2.63
83.81,0.80,-1.82,0.84,-1.78,1.78,1.40,2.06,2.59,2.63,2.62
84.65,0.88,-1.73,0.87,-1.76,1.76,1.35,1.99,2.64,2.62,2.61
85.50,0.91,-1.71,0.89,-1.73,1.73,1.31,1.91,2.64,2.62,2.62
86.35,0.92,-1.70,0.91,-1.71,1.71,1.26,1.83,2.63,2.63,2.62
87.22,0.92,-1.70,0.93,-1.70,1.70,1.22,1.76,2.62,2.63,2.62
88.09,0.92,-1.70,0.95,-1.68,1.68,1.18,1.69,2.60,2.63,2.62
88.97,0.92,-1.72,0.97,-1.66,1.66,1.14,1.61,2.58,2.63,2.64
89.86,0.99,-1.65,0.98,-1.65,1.65,1.10,1.54,2.64,2.63,2.64
90.76,1.02,-1.60,0.99,-1.63,1.63,1.06,1.47,2.65,2.62,2.62
91.66,1.03,-1.60,1.01,-1.61,1.61,1.02,1.41,2.64,2.62,2.63
92.58,1.03,-1.57,1.01,-1.60,1.60,0.99,1.34,2.63,2.61,2.60
93.51,1.03,-1.58,1.02,-1.58,1.58,0.95,1.27,2.61,2.60,2.61
94.44,1.03,-1.56,1.02,-1.57,1.57,0.91,1.21,2.60,2.59,2.59
95.39,1.03,-1.55,1.02,-1.55,1.55,0.88,1.14,2.58,2.57,2.58
96.34,1.03,-1.51,1.02,-1.53,1.53,0.84,1.08,2.56,2.55,2.54
97.30,1.02,-1.50,1.02,-1.51,1.51,0.81,1.02,2.53,2.53,2.52
98.28,1.02,-1.48,1.02,-1.48,1.48,0.78,0.96,2.50,2.51,2.50
99.26,1.03,-1.44,1.03,-1.45,1.45,0.75,0.90,2.48,2.48,2.47
100.25,1.02,-1.42,1.03,-1.41,1.41,0.71,0.84,2.43,2.44,2.44
101.25,1.02,-1.39,1.04,-1.36,1.36,0.68,0.78,2.38,2.41,2.41
102.27,1.02,-1.35,1.06,-1.31,1.31,0.65,0.73,2.33,2.37,2.37
103.29,1.03,-1.29,1.08,-1.24,1.24,0.62,0.67,2.27,2.32,2.32
104.32,1.05,-1.23,1.10,-1.17,1.17,0.59,0.62,2.22,2.27,2.28
105.37,1.11,-1.12,1.12,-1.10,1.10,0.56,0.56,2.21,2.22,2.23
106.42,1.14,-1.04,1.14,-1.02,1.02,0.53,0.51,2.16,2.16,2.18
107.48,1.19,-0.92,1.16,-0.94,0.94,0.50,0.46,2.13,2.10,2.11
108.56,1.25,-0.78,1.19,-0.85,0.85,0.47,0.41,2.10,2.03,2.03
109.64,1.25,-0.71,1.20,-0.76,0.76,0.44,0.36,2.01,1.96,1.96
110.74,1.25,-0.65,1.22,-0.67,0.67,0.41,0.31,1.92,1.89,1.90
111.85,1.25,-0.58,1.24,-0.58,0.58,0.38,0.26,1.83,1.82,1.83
112.97,1.25,-0.49,1.25,-0.50,0.50,0.35,0.22,1.75,1.75,1.74
114.10,1.25,-0.43,1.26,-0.42,0.42,0.32,0.17,1.67,1.68,1.68
115.24,1.26,-0.34,1.26,-0.34,0.34,0.29,0.13,1.60,1.61,1.60
116.39,1.25,-0.27,1.26,-0.28,0.28,0.26,0.09,1.53,1.54,1.52
117.55,1.25,-0.21,1.26,-0.22,0.22,0.23,0.05,1.47,1.48,1.46
118.73,1.25,-0.14,1.26,-0.16,0.16,0.20,0.01,1.41,1.42,1.39
119.92,1.25,-0.10,1.25,-0.11,0.11,0.17,-0.03,1.36,1.36,1.35
121.12,1.25,-0.04,1.25,-0.06,0.06,0.14,-0.07,1.31,1.31,1.29
122.33,1.25,-0.00,1.25,-0.02,0.02,0.11,-0.10,1.27,1.27,1.25
123.55,1.25,0.02,1.24,0.02,-0.02,0.08,-0.13,1.23,1.22,1.23
124.79,1.25,0.06,1.24,0.06,-0.06,0.05,-0.17,1.19,1.18,1.19
126.03,1.25,0.10,1.24,0.09,-0.09,0.01,-0.20,1.16,1.15,1.15
127.29,1.25,0.13,1.25,0.13,-0.13,-0.02,-0.23,1.12,1.11,1.12
128.57,1.25,0.17,1.25,0.17,-0.17,-0.05,-0.26,1.08,1.08,1.08
129.85,1.25,0.20,1.26,0.21,-0.21,-0.09,-0.29,1.04,1.05,1.05
131.15,1.25,0.23,1.27,0.25,-0.25,-0.13,-0.31,1.00,1.02,1.02
132.46,1.25,0.26,1.28,0.29,-0.29,-0.16,-0.34,0.96,0.98,0.99
133.79,1.25,0.29,1.29,0.34,-0.34,-0.20,-0.36,0.91,0.95,0.96
135.12,1.26,0.35,1.30,0.38,-0.38,-0.24,-0.39,0.88,0.92,0.91
136.48,1.33,0.45,1.31,0.42,-0.42,-0.28,-0.41,0.91,0.89,0.88
137.84,1.36,0.51,1.32,0.47,-0.47,-0.32,-0.44,0.89,0.85,0.85
139.22,1.36,0.56,1.33,0.51,-0.51,-0.37,-0.46,0.85,0.82,0.80
140.61,1.36,0.61,1.34,0.56,-0.56,-0.41,-0.48,0.80,0.78,0.75
142.02,1.36,0.63,1.35,0.62,-0.62,-0.46,-0.50,0.74,0.73,0.73
143.44,1.36,0.67,1.36,0.68,-0.68,-0.51,-0.52,0.68,0.69,0.69
144.87,1.37,0.72,1.37,0.73,-0.73,-0.56,-0.54,0.64,0.64,0.65
146.32,1.36,0.76,1.38,0.80,-0.80,-0.61,-0.56,0.56,0.58,0.60
147.78,1.36,0.80,1.38,0.86,-0.86,-0.66,-0.58,0.50,0.52,0.56
149.26,1.36,0.87,1.38,0.92,-0.92,-0.72,-0.61,0.44,0.46,0.49
150.75,1.36,0.95,1.37,0.97,-0.97,-0.78,-0.63,0.39,0.39,0.41
152.26,1.36,1.02,1.35,1.02,-1.02,-0.84,-0.65,0.34,0.32,0.34
153.78,1.36,1.09,1.33,1.08,-1.08,-0.90,-0.67,0.28,0.25,0.27
155.32,1.36,1.19,1.31,1.13,-1.13,-0.97,-0.69,0.23,0.18,0.17
156.88,1.36,1.26,1.29,1.18,-1.18,-1.03,-0.71,0.18,0.11,0.10
158.44,1.28,1.25,1.27,1.23,-1.23,-1.10,-0.74,0.05,0.04,0.03
160.03,1.26,1.31,1.25,1.27,-1.27,-1.17,-0.76,-0.01,-0.02,-0.05
161.63,1.25,1.36,1.23,1.32,-1.32,-1.24,-0.78,-0.07,-0.08,-0.11
163.24,1.18,1.34,1.22,1.36,-1.36,-1.30,-0.81,-0.18,-0.14,-0.16
164.88,1.14,1.34,1.21,1.40,-1.40,-1.37,-0.84,-0.25,-0.18,-0.20
166.53,1.14,1.38,1.21,1.43,-1.43,-1.44,-0.86,-0.29,-0.21,-0.24
168.19,1.14,1.41,1.21,1.45,-1.45,-1.50,-0.89,-0.31,-0.24,-0.27
169.87,1.17,1.45,1.22,1.48,-1.48,-1.55,-0.92,-0.31,-0.26,-0.28
171.57,1.24,1.53,1.23,1.50,-1.50,-1.61,-0.95,-0.26,-0.27,-0.29
173.29,1.25,1.54,1.24,1.52,-1.52,-1.65,-0.98,-0.27,-0.28,-0.29
175.02,1.26,1.53,1.26,1.54,-1.54,-1.69,-1.01,-0.28,-0.28,-0.27
176.77,1.35,1.63,1.28,1.57,-1.57,-1.73,-1.04,-0.22,-0.28,-0.28
178.54,1.36,1.63,1.30,1.58,-1.58,-1.75,-1.07,-0.22,-0.28,-0.27
180.32,1.36,1.62,1.32,1.60,-1.60,-1.77,-1.10,-0.24,-0.28,-0.26
182.13,1.36,1.62,1.34,1.63,-1.63,-1.79,-1.14,-0.27,-0.28,-0.26
183.95,1.36,1.62,1.36,1.64,-1.64,-1.79,-1.17,-0.28,-0.28,-0.26
185.79,1.36,1.63,1.37,1.66,-1.66,-1.80,-1.21,-0.30,-0.29,-0.27
187.65,1.37,1.66,1.37,1.67,-1.67,-1.79,-1.24,-0.30,-0.30,-0.29
189.52,1.36,1.67,1.37,1.68,-1.68,-1.79,-1.28,-0.32,-0.31,-0.31
191.42,1.36,1.69,1.37,1.69,-1.69,-1.78,-1.32,-0.33,-0.32,-0.33
193.33,1.36,1.71,1.37,1.71,-1.71,-1.77,-1.36,-0.35,-0.34,-0.35
195.27,1.37,1.72,1.37,1.72,-1.72,-1.76,-1.40,-0.35,-0.35,-0.35
197.22,1.36,1.73,1.36,1.73,-1.73,-1.75,-1.44,-0.37,-0.37,-0.37
199.19,1.36,1.77,1.36,1.75,-1.75,-1.74,-1.48,-0.39,-0.39,-0.41
201.18,1.36,1.77,1.36,1.77,-1.77,-1.73,-1.52,-0.41,-0.41,-0.41
203.19,1.36,1.79,1.36,1.79,-1.79,-1.72,-1.56,-0.43,-0.43,-0.43
205.23,1.36,1.82,1.36,1.81,-1.81,-1.71,-1.60,-0.45,-0.45,-0.46
207.28,1.36,1.82,1.36,1.83,-1.83,-1.71,-1.64,-0.47,-0.46,-0.46
209.35,1.36,1.84,1.36,1.84,-1.84,-1.71,-1.69,-0.48,-0.48,-0.48
211.44,1.36,1.87,1.36,1.86,-1.86,-1.71,-1.73,-0.50,-0.49,-0.51
213.56,1.37,1.88,1.36,1.87,-1.87,-1.71,-1.77,-0.50,-0.51,-0.51
215.69,1.36,1.87,1.36,1.88,-1.88,-1.71,-1.81,-0.52,-0.52,-0.51
217.85,1.36,1.90,1.36,1.90,-1.90,-1.72,-1.84,-0.54,-0.54,-0.54
220.03,1.36,1.91,1.36,1.91,-1.91,-1.73,-1.88,-0.55,-0.55,-0.55
222.23,1.36,1.93,1.36,1.92,-1.92,-1.73,-1.92,-0.56,-0.56,-0.57
224.45,1.36,1.93,1.36,1.93,-1.93,-1.75,-1.95,-0.57,-0.57,-0.57
226.70,1.36,1.93,1.36,1.93,-1.93,-1.76,-1.98,-0.57,-0.57,-0.57
228.96,1.36,1.94,1.36,1.94,-1.94,-1.77,-2.01,-0.58,-0.58,-0.58
231.25,1.36,1.94,1.36,1.95,-1.95,-1.78,-2.04,-0.59,-0.59,-0.58
233.57,1.36,1.95,1.36,1.95,-1.95,-1.79,-2.06,-0.59,-0.59,-0.59
235.90,1.36,1.96,1.36,1.95,-1.95,-1.81,-2.08,-0.59,-0.59,-0.60
238.26,1.36,1.96,1.36,1.95,-1.95,-1.82,-2.10,-0.59,-0.59,-0.60
240.64,1.36,1.96,1.36,1.95,-1.95,-1.83,-2.12,-0.59,-0.59,-0.60
243.05,1.36,1.95,1.36,1.95,-1.95,-1.85,-2.13,-0.59,-0.59,-0.59
245.48,1.36,1.94,1.36,1.94,-1.94,-1.86,-2.14,-0.58,-0.58,-0.58
247.93,1.36,1.93,1.37,1.94,-1.94,-1.87,-2.15,-0.58,-0.58,-0.57
250.41,1.36,1.94,1.37,1.94,-1.94,-1.88,-2.15,-0.58,-0.57,-0.58
252.92,1.36,1.93,1.37,1.93,-1.93,-1.88,-2.15,-0.57,-0.56,-0.57
255.45,1.36,1.90,1.37,1.92,-1.92,-1.89,-2.14,-0.56,-0.56,-0.54
258.00,1.36,1.90,1.36,1.91,-1.91,-1.89,-2.13,-0.55,-0.55,-0.54
260.58,1.37,1.91,1.36,1.89,-1.89,-1.89,-2.12,-0.52,-0.53,-0.54
263.19,1.36,1.88,1.35,1.87,-1.87,-1.89,-2.11,-0.51,-0.52,-0.52
265.82,1.37,1.89,1.34,1.85,-1.85,-1.89,-2.09,-0.48,-0.51,-0.52
268.48,1.36,1.85,1.33,1.82,-1.82,-1.88,-2.07,-0.46,-0.49,-0.49
271.16,1.36,1.84,1.32,1.79,-1.79,-1.87,-2.04,-0.43,-0.47,-0.48
273.87,1.32,1.79,1.31,1.76,-1.76,-1.86,-2.02,-0.44,-0.45,-0.47
276.61,1.26,1.69,1.30,1.73,-1.73,-1.84,-1.99,-0.47,-0.43,-0.43
279.38,1.26,1.68,1.30,1.70,-1.70,-1.83,-1.96,-0.44,-0.41,-0.42
282.17,1.25,1.64,1.29,1.67,-1.67,-1.81,-1.93,-0.42,-0.38,-0.39
284.99,1.25,1.61,1.28,1.64,-1.64,-1.79,-1.89,-0.39,-0.36,-0.36
287.84,1.25,1.59,1.27,1.60,-1.60,-1.77,-1.86,-0.35,-0.33,-0.34
290.72,1.25,1.55,1.26,1.56,-1.56,-1.74,-1.82,-0.31,-0.30,-0.30
293.63,1.26,1.54,1.24,1.52,-1.52,-1.71,-1.78,-0.26,-0.28,-0.28
296.57,1.26,1.51,1.23,1.48,-1.48,-1.68,-1.74,-0.22,-0.25,-0.25
299.53,1.25,1.47,1.22,1.45,-1.45,-1.65,-1.71,-0.20,-0.22,-0.22
302.53,1.25,1.46,1.21,1.42,-1.42,-1.62,-1.67,-0.17,-0.20,-0.21
305.55,1.25,1.42,1.21,1.39,-1.39,-1.59,-1.63,-0.14,-0.18,-0.17
308.61,1.23,1.38,1.20,1.36,-1.36,-1.55,-1.59,-0.13,-0.16,-0.15
311.69,1.15,1.29,1.19,1.34,-1.34,-1.52,-1.55,-0.19,-0.15,-0.14
314.81,1.14,1.25,1.18,1.31,-1.31,-1.48,-1.51,-0.17,-0.13,-0.11
317.96,1.14,1.25,1.17,1.29,-1.29,-1.45,-1.47,-0.15,-0.12,-0.11
321.14,1.14,1.26,1.16,1.27,-1.27,-1.41,-1.43,-0.13,-0.11,-0.12
324.35,1.14,1.25,1.15,1.25,-1.25,-1.37,-1.39,-0.11,-0.10,-0.11
327.59,1.14,1.24,1.14,1.23,-1.23,-1.33,-1.36,-0.09,-0.09,-0.10
330.87,1.14,1.23,1.14,1.22,-1.22,-1.30,-1.32,-0.08,-0.08,-0.09
334.18,1.14,1.23,1.13,1.21,-1.21,-1.26,-1.29,-0.07,-0.07,-0.09
337.52,1.14,1.22,1.13,1.19,-1.19,-1.22,-1.25,-0.05,-0.06,-0.08
340.90,1.14,1.19,1.13,1.18,-1.18,-1.18,-1.22,-0.04,-0.05,-0.05
344.30,1.14,1.18,1.14,1.17,-1.17,-1.15,-1.18,-0.03,-0.03,-0.04
347.75,1.14,1.17,1.14,1.16,-1.16,-1.11,-1.15,-0.02,-0.02,-0.03
351.23,1.14,1.14,1.14,1.14,-1.14,-1.08,-1.12,0.00,0.00,0.00
354.74,1.14,1.12,1.14,1.11,-1.11,-1.04,-1.09,0.03,0.03,0.02
358.28,1.14,1.09,1.14,1.09,-1.09,-1.00,-1.06,0.05,0.05,0.05
361.87,1.14,1.07,1.14,1.07,-1.07,-0.97,-1.03,0.07,0.07,0.07
365.49,1.14,1.05,1.14,1.05,-1.05,-0.94,-1.00,0.09,0.09,0.09
369.14,1.14,1.03,1.14,1.03,-1.03,-0.90,-0.98,0.11,0.12,0.11
372.83,1.14,1.00,1.15,1.01,-1.01,-0.87,-0.95,0.13,0.14,0.14
376.56,1.14,0.98,1.15,0.99,-0.99,-0.84,-0.93,0.15,0.16,0.16
380.33,1.14,0.95,1.15,0.97,-0.97,-0.81,-0.90,0.17,0.18,0.19
384.13,1.14,0.93,1.14,0.95,-0.95,-0.78,-0.88,0.19,0.20,0.21
387.97,1.14,0.92,1.14,0.93,-0.93,-0.75,-0.86,0.21,0.21,0.22
391.85,1.14,0.92,1.13,0.91,-0.91,-0.72,-0.83,0.23,0.23,0.22
395.77,1.14,0.91,1.13,0.89,-0.89,-0.69,-0.81,0.25,0.24,0.23
399.73,1.14,0.90,1.12,0.87,-0.87,-0.66,-0.79,0.27,0.25,0.24
403.72,1.14,0.89,1.11,0.85,-0.85,-0.64,-0.77,0.29,0.26,0.25
407.76,1.14,0.88,1.10,0.84,-0.84,-0.61,-0.75,0.30,0.26,0.26
411.84,1.08,0.81,1.09,0.83,-0.83,-0.58,-0.74,0.25,0.27,0.27
415.96,1.04,0.76,1.08,0.81,-0.81,-0.56,-0.72,0.23,0.27,0.28
420.12,1.03,0.75,1.07,0.80,-0.80,-0.53,-0.70,0.23,0.27,0.28
424.32,1.03,0.75,1.06,0.78,-0.78,-0.51,-0.68,0.25,0.28,0.28
428.56,1.03,0.75,1.04,0.76,-0.76,-0.49,-0.67,0.27,0.28,0.28
432.85,1.03,0.76,1.03,0.75,-0.75,-0.47,-0.65,0.28,0.28,0.27
437.18,1.03,0.75,1.01,0.73,-0.73,-0.44,-0.63,0.30,0.29,0.28
441.55,1.03,0.74,1.00,0.71,-0.71,-0.42,-0.62,0.32,0.29,0.29
445.96,1.03,0.74,0.99,0.69,-0.69,-0.40,-0.60,0.34,0.30,0.29
450.42,1.03,0.73,0.98,0.68,-0.68,-0.38,-0.58,0.35,0.31,0.30
454.93,0.94,0.63,0.97,0.65,-0.65,-0.36,-0.57,0.29,0.32,0.31
459.48,0.92,0.60,0.96,0.63,-0.63,-0.34,-0.55,0.29,0.33,0.32
464.07,0.92,0.58,0.95,0.60,-0.60,-0.32,-0.54,0.32,0.35,0.34
468.71,0.92,0.56,0.93,0.57,-0.57,-0.30,-0.52,0.35,0.36,0.36
473.40,0.91,0.54,0.92,0.53,-0.53,-0.28,-0.51,0.38,0.38,0.37
478.13,0.92,0.52,0.90,0.49,-0.49,-0.26,-0.49,0.43,0.40,0.40
482.91,0.92,0.50,0.88,0.46,-0.46,-0.25,-0.47,0.46,0.43,0.42
487.74,0.91,0.46,0.87,0.42,-0.42,-0.23,-0.46,0.49,0.45,0.45
492.62,0.87,0.39,0.85,0.38,-0.38,-0.21,-0.44,0.49,0.47,0.48
497.55,0.82,0.32,0.84,0.34,-0.34,-0.19,-0.42,0.48,0.50,0.50
502.52,0.80,0.27,0.83,0.31,-0.31,-0.18,-0.40,0.49,0.52,0.53
507.55,0.80,0.26,0.83,0.28,-0.28,-0.16,-0.38,0.52,0.55,0.54
512.62,0.80,0.23,0.82,0.25,-0.25,-0.14,-0.36,0.55,0.57,0.57
517.75,0.80,0.21,0.81,0.22,-0.22,-0.13,-0.34,0.58,0.59,0.59
