frequency,raw,error,smoothed,error_smoothed,equalization,parametric_eq,fixed_band_eq,equalized_raw,equalized_smoothed,target
20.00,-2.96,-8.81,-2.96,-8.83,8.83,8.26,3.63,5.87,5.86,5.85
20.20,-2.92,-8.81,-2.91,-8.81,8.81,8.32,3.73,5.89,5.89,5.89
20.40,-2.87,-8.79,-2.87,-8.79,8.79,8.37,3.83,5.92,5.92,5.92
20.61,-2.83,-8.77,-2.82,-8.77,8.77,8.42,3.94,5.94,5.95,5.94
20.81,-2.77,-8.75,-2.77,-8.75,8.75,8.47,4.05,5.98,5.97,5.98
21.02,-2.73,-8.75,-2.73,-8.73,8.73,8.51,4.16,6.00,6.00,6.02
21.23,-2.68,-8.71,-2.68,-8.70,8.70,8.54,4.27,6.02,6.02,6.03
21.44,-2.63,-8.68,-2.64,-8.68,8.68,8.57,4.39,6.05,6.04,6.05
21.66,-2.59,-8.66,-2.60,-8.65,8.65,8.60,4.51,6.06,6.06,6.07
21.87,-2.54,-8.62,-2.55,-8.63,8.63,8.61,4.63,6.09,6.08,6.08
22.09,-2.50,-8.60,-2.51,-8.60,8.60,8.62,4.76,6.10,6.09,6.10
22.31,-2.46,-8.56,-2.47,-8.57,8.57,8.63,4.89,6.11,6.11,6.10
22.54,-2.44,-8.55,-2.43,-8.54,8.54,8.63,5.03,6.10,6.12,6.11
22.76,-2.40,-8.52,-2.39,-8.51,8.51,8.62,5.17,6.11,6.12,6.12
22.99,-2.37,-8.49,-2.35,-8.48,8.48,8.61,5.31,6.11,6.13,6.12
23.22,-2.33,-8.46,-2.31,-8.45,8.45,8.59,5.45,6.12,6.14,6.13
23.45,-2.27,-8.41,-2.27,-8.42,8.42,8.56,5.60,6.15,6.14,6.14
23.69,-2.23,-8.38,-2.24,-8.38,8.38,8.54,5.76,6.15,6.15,6.15
23.92,-2.18,-8.33,-2.20,-8.35,8.35,8.50,5.91,6.17,6.15,6.16
24.16,-2.14,-8.30,-2.16,-8.32,8.32,8.46,6.07,6.18,6.15,6.16
24.40,-2.12,-8.29,-2.13,-8.28,8.28,8.42,6.23,6.17,6.16,6.17
24.65,-2.09,-8.25,-2.09,-8.25,8.25,8.37,6.40,6.16,6.16,6.16
24.89,-2.06,-8.22,-2.05,-8.21,8.21,8.32,6.57,6.15,6.16,6.16
25.14,-2.03,-8.19,-2.01,-8.18,8.18,8.27,6.74,6.15,6.16,6.16
25.39,-1.99,-8.15,-1.98,-8.14,8.14,8.21,6.91,6.15,6.16,6.16
25.65,-1.95,-8.11,-1.94,-8.10,8.10,8.15,7.08,6.15,6.16,6.16
25.91,-1.91,-8.06,-1.90,-8.06,8.06,8.09,7.26,6.15,6.16,6.15
26.16,-1.86,-8.02,-1.87,-8.03,8.03,8.02,7.43,6.17,6.16,6.16
26.43,-1.83,-7.99,-1.83,-7.99,7.99,7.95,7.61,6.16,6.15,6.15
26.69,-1.79,-7.94,-1.80,-7.95,7.95,7.89,7.78,6.16,6.15,6.15
26.96,-1.75,-7.90,-1.76,-7.91,7.91,7.82,7.96,6.16,6.15,6.15
27.23,-1.71,-7.86,-1.72,-7.86,7.86,7.74,8.13,6.15,6.15,6.15
27.50,-1.67,-7.82,-1.67,-7.82,7.82,7.67,8.30,6.15,6.14,6.15
27.77,-1.63,-7.77,-1.63,-7.77,7.77,7.60,8.46,6.14,6.14,6.14
28.05,-1.60,-7.74,-1.59,-7.72,7.72,7.53,8.62,6.13,6.14,6.14
28.33,-1.56,-7.68,-1.54,-7.68,7.68,7.45,8.77,6.12,6.14,6.12
28.62,-1.53,-7.66,-1.50,-7.64,7.64,7.38,8.91,6.11,6.13,6.13
28.90,-1.49,-7.62,-1.47,-7.60,7.60,7.31,9.05,6.11,6.13,6.13
29.19,-1.44,-7.56,-1.43,-7.56,7.56,7.24,9.17,6.12,6.13,6.12
29.48,-1.38,-7.51,-1.40,-7.53,7.53,7.16,9.28,6.15,6.12,6.13
29.78,-1.33,-7.46,-1.37,-7.49,7.49,7.09,9.38,6.16,6.12,6.13
30.08,-1.28,-7.40,-1.34,-7.46,7.46,7.02,9.46,6.18,6.11,6.12
30.38,-1.27,-7.38,-1.31,-7.42,7.42,6.96,9.53,6.15,6.11,6.11
30.68,-1.27,-7.38,-1.28,-7.39,7.39,6.89,9.58,6.12,6.10,6.11
30.99,-1.26,-7.36,-1.25,-7.35,7.35,6.83,9.62,6.09,6.10,6.10
31.30,-1.26,-7.35,-1.22,-7.31,7.31,6.76,9.64,6.05,6.09,6.09
31.61,-1.25,-7.34,-1.19,-7.28,7.28,6.70,9.64,6.03,6.09,6.09
31.93,-1.25,-7.33,-1.17,-7.26,7.26,6.64,9.63,6.01,6.08,6.08
32.24,-1.19,-7.26,-1.16,-7.23,7.23,6.59,9.60,6.05,6.08,6.07
32.57,-1.13,-7.19,-1.14,-7.21,7.21,6.53,9.55,6.08,6.07,6.06
32.89,-1.04,-7.10,-1.12,-7.18,7.18,6.48,9.49,6.14,6.06,6.06
33.22,-1.02,-7.08,-1.09,-7.15,7.15,6.43,9.42,6.13,6.06,6.06
33.55,-1.02,-7.08,-1.06,-7.11,7.11,6.38,9.34,6.09,6.05,6.06
33.89,-1.02,-7.07,-1.03,-7.08,7.08,6.34,9.24,6.06,6.05,6.05
34.23,-1.02,-7.07,-1.00,-7.04,7.04,6.30,9.14,6.02,6.04,6.05
34.57,-1.03,-7.06,-0.97,-7.00,7.00,6.26,9.02,5.97,6.04,6.03
34.92,-1.02,-7.05,-0.94,-6.97,6.97,6.22,8.90,5.95,6.03,6.03
35.27,-0.97,-7.00,-0.91,-6.93,6.93,6.19,8.78,5.96,6.02,6.03
35.62,-0.89,-6.90,-0.89,-6.91,6.91,6.16,8.65,6.02,6.02,6.01
35.97,-0.80,-6.81,-0.87,-6.88,6.88,6.13,8.52,6.08,6.01,6.01
36.33,-0.80,-6.81,-0.86,-6.86,6.86,6.11,8.38,6.06,6.00,6.01
36.70,-0.80,-6.80,-0.85,-6.84,6.84,6.09,8.25,6.04,6.00,6.00
37.06,-0.80,-6.79,-0.83,-6.82,6.82,6.07,8.11,6.02,5.99,5.99
37.43,-0.79,-6.77,-0.81,-6.79,6.79,6.06,7.98,6.00,5.98,5.98
37.81,-0.80,-6.78,-0.80,-6.77,6.77,6.04,7.84,5.97,5.97,5.98
38.19,-0.80,-6.76,-0.78,-6.74,6.74,6.04,7.71,5.94,5.97,5.96
38.57,-0.80,-6.76,-0.76,-6.72,6.72,6.03,7.58,5.92,5.96,5.96
38.95,-0.79,-6.74,-0.75,-6.70,6.70,6.03,7.45,5.91,5.95,5.95
39.34,-0.79,-6.72,-0.74,-6.69,6.69,6.03,7.33,5.90,5.94,5.93
39.74,-0.79,-6.71,-0.74,-6.67,6.67,6.04,7.21,5.88,5.94,5.92
40.14,-0.77,-6.69,-0.74,-6.66,6.66,6.04,7.09,5.89,5.93,5.92
40.54,-0.73,-6.65,-0.74,-6.65,6.65,6.05,6.98,5.92,5.91,5.92
40.94,-0.68,-6.59,-0.73,-6.63,6.63,6.07,6.87,5.95,5.90,5.91
41.35,-0.68,-6.57,-0.74,-6.62,6.62,6.08,6.77,5.94,5.88,5.89
41.76,-0.68,-6.56,-0.74,-6.61,6.61,6.10,6.67,5.93,5.86,5.87
42.18,-0.70,-6.56,-0.75,-6.59,6.59,6.12,6.58,5.89,5.84,5.86
42.60,-0.75,-6.58,-0.77,-6.59,6.59,6.15,6.49,5.84,5.82,5.83
43.03,-0.80,-6.61,-0.79,-6.58,6.58,6.17,6.40,5.78,5.79,5.81
43.46,-0.85,-6.63,-0.82,-6.59,6.59,6.20,6.32,5.74,5.76,5.78
43.90,-0.90,-6.63,-0.86,-6.59,6.59,6.23,6.25,5.69,5.74,5.73
44.33,-0.91,-6.62,-0.89,-6.60,6.60,6.26,6.18,5.69,5.71,5.71
44.78,-0.91,-6.58,-0.94,-6.62,6.62,6.29,6.11,5.71,5.68,5.67
45.23,-0.94,-6.58,-0.98,-6.64,6.64,6.32,6.05,5.70,5.65,5.64
45.68,-1.01,-6.62,-1.03,-6.65,6.65,6.35,5.99,5.64,5.62,5.61
46.13,-1.07,-6.66,-1.06,-6.66,6.66,6.38,5.94,5.59,5.60,5.59
46.60,-1.10,-6.67,-1.09,-6.67,6.67,6.40,5.90,5.57,5.58,5.57
47.06,-1.14,-6.69,-1.11,-6.67,6.67,6.43,5.85,5.53,5.56,5.55
47.53,-1.16,-6.70,-1.12,-6.67,6.67,6.45,5.81,5.51,5.55,5.54
48.01,-1.16,-6.70,-1.13,-6.67,6.67,6.47,5.78,5.51,5.54,5.54
48.49,-1.17,-6.70,-1.13,-6.66,6.66,6.49,5.75,5.49,5.53,5.53
48.97,-1.18,-6.69,-1.14,-6.66,6.66,6.50,5.72,5.48,5.52,5.51
49.46,-1.16,-6.66,-1.14,-6.66,6.66,6.51,5.70,5.50,5.52,5.50
49.96,-1.14,-6.64,-1.13,-6.65,6.65,6.51,5.68,5.51,5.51,5.50
50.46,-1.09,-6.59,-1.13,-6.63,6.63,6.50,5.66,5.54,5.50,5.50
50.96,-1.03,-6.54,-1.11,-6.61,6.61,6.49,5.64,5.58,5.49,5.51
51.47,-1.02,-6.51,-1.10,-6.58,6.58,6.47,5.63,5.56,5.48,5.49
51.99,-1.02,-6.50,-1.07,-6.53,6.53,6.45,5.62,5.51,5.46,5.48
52.51,-1.03,-6.49,-1.04,-6.48,6.48,6.42,5.61,5.45,5.44,5.46
53.03,-1.03,-6.46,-1.01,-6.42,6.42,6.38,5.60,5.39,5.41,5.43
53.56,-1.03,-6.43,-0.97,-6.35,6.35,6.33,5.60,5.32,5.38,5.40
54.10,-1.02,-6.37,-0.93,-6.27,6.27,6.27,5.59,5.25,5.34,5.35
54.64,-0.96,-6.26,-0.89,-6.18,6.18,6.21,5.59,5.22,5.30,5.30
55.18,-0.89,-6.14,-0.84,-6.09,6.09,6.14,5.58,5.20,5.25,5.25
55.74,-0.83,-6.02,-0.78,-5.98,5.98,6.06,5.57,5.15,5.20,5.19
56.29,-0.73,-5.87,-0.73,-5.86,5.86,5.98,5.56,5.14,5.14,5.14
56.86,-0.61,-5.69,-0.67,-5.75,5.75,5.89,5.55,5.14,5.08,5.08
57.42,-0.57,-5.57,-0.61,-5.62,5.62,5.80,5.54,5.05,5.01,5.00
58.00,-0.57,-5.51,-0.56,-5.51,5.51,5.70,5.53,4.94,4.95,4.94
58.58,-0.51,-5.39,-0.51,-5.39,5.39,5.60,5.51,4.88,4.88,4.88
59.16,-0.44,-5.26,-0.48,-5.29,5.29,5.49,5.49,4.85,4.81,4.82
59.76,-0.38,-5.14,-0.45,-5.20,5.20,5.38,5.46,4.82,4.75,4.76
60.35,-0.35,-5.03,-0.44,-5.12,5.12,5.27,5.43,4.77,4.68,4.68
60.96,-0.35,-4.98,-0.44,-5.06,5.06,5.15,5.40,4.71,4.62,4.63
61.57,-0.41,-4.96,-0.45,-5.00,5.00,5.04,5.36,4.59,4.55,4.55
62.18,-0.46,-4.94,-0.47,-4.96,4.96,4.92,5.32,4.50,4.49,4.48
62.80,-0.46,-4.89,-0.49,-4.92,4.92,4.80,5.27,4.46,4.43,4.43
63.43,-0.51,-4.88,-0.51,-4.88,4.88,4.69,5.22,4.37,4.38,4.37
64.07,-0.57,-4.89,-0.52,-4.84,4.84,4.57,5.16,4.27,4.32,4.32
64.71,-0.57,-4.84,-0.52,-4.79,4.79,4.45,5.10,4.22,4.27,4.27
65.35,-0.57,-4.78,-0.52,-4.75,4.75,4.34,5.03,4.18,4.22,4.21
66.01,-0.57,-4.74,-0.51,-4.69,4.69,4.22,4.96,4.12,4.18,4.17
66.67,-0.57,-4.70,-0.48,-4.61,4.61,4.11,4.88,4.04,4.13,4.13
67.33,-0.51,-4.60,-0.44,-4.53,4.53,4.00,4.80,4.02,4.09,4.09
68.01,-0.41,-4.46,-0.38,-4.43,4.43,3.89,4.72,4.02,4.05,4.05
68.69,-0.35,-4.37,-0.30,-4.32,4.32,3.78,4.63,3.97,4.02,4.02
69.37,-0.23,-4.21,-0.23,-4.21,4.21,3.68,4.54,3.98,3.98,3.98
70.07,-0.11,-4.05,-0.14,-4.09,4.09,3.57,4.45,3.98,3.94,3.94
70.77,-0.03,-3.95,-0.06,-3.96,3.96,3.47,4.35,3.93,3.91,3.92
71.48,0.05,-3.83,0.03,-3.84,3.84,3.37,4.26,3.88,3.87,3.88
72.19,0.16,-3.69,0.12,-3.71,3.71,3.28,4.16,3.87,3.83,3.85
72.91,0.32,-3.48,0.21,-3.59,3.59,3.18,4.06,3.91,3.80,3.80
73.64,0.34,-3.43,0.29,-3.47,3.47,3.09,3.96,3.81,3.76,3.77
74.38,0.37,-3.36,0.36,-3.36,3.36,3.00,3.86,3.73,3.72,3.73
75.12,0.43,-3.26,0.43,-3.26,3.26,2.92,3.76,3.69,3.69,3.69
75.87,0.45,-3.20,0.49,-3.17,3.17,2.83,3.66,3.62,3.65,3.65
76.63,0.51,-3.10,0.54,-3.08,3.08,2.75,3.56,3.59,3.62,3.61
77.40,0.56,-3.02,0.58,-3.00,3.00,2.67,3.46,3.56,3.58,3.58
78.17,0.62,-2.92,0.62,-2.93,2.93,2.59,3.36,3.55,3.55,3.54
78.95,0.68,-2.84,0.66,-2.86,2.86,2.51,3.26,3.54,3.52,3.52
79.74,0.69,-2.81,0.70,-2.80,2.80,2.44,3.16,3.49,3.50,3.50
80.54,0.73,-2.74,0.73,-2.75,2.75,2.37,3.06,3.48,3.47,3.47
81.35,0.77,-2.67,0.75,-2.70,2.70,2.30,2.97,3.47,3.45,3.44
82.16,0.80,-2.63,0.78,-2.65,2.65,2.23,2.87,3.45,3.44,3.43
82.98,0.80,-2.62,0.81,-2.61,2.61,2.16,2.78,3.41,3.42,3.42
83.81,0.80,-2.61,0.84,-2.57,2.57,2.10,2.69,3.37,3.41,3.41
84.65,0.88,-2.51,0.87,-2.53,2.53,2.03,2.60,3.41,3.40,3.39
85.50,0.91,-2.48,0.89,-2.50,2.50,1.97,2.51,3.41,3.39,3.39
86.35,0.92,-2.46,0.91,-2.47,2.47,1.91,2.43,3.39,3.38,3.38
87.22,0.92,-2.45,0.93,-2.45,2.45,1.85,2.34,3.37,3.38,3.37
88.09,0.92,-2.44,0.95,-2.42,2.42,1.80,2.26,3.34,3.37,3.36
88.97,0.92,-2.45,0.97,-2.39,2.39,1.74,2.18,3.31,3.36,3.37
89.86,0.99,-2.37,0.98,-2.37,2.37,1.69,2.10,3.36,3.35,3.36
90.76,1.02,-2.32,0.99,-2.34,2.34,1.64,2.02,3.36,3.34,3.34
91.66,1.03,-2.30,1.01,-2.32,2.32,1.58,1.94,3.35,3.32,3.33
92.58,1.03,-2.27,1.01,-2.29,2.29,1.53,1.87,3.32,3.31,3.30
93.51,1.03,-2.27,1.02,-2.27,2.27,1.48,1.79,3.30,3.29,3.30
94.44,1.03,-2.24,1.02,-2.25,2.25,1.44,1.72,3.28,3.26,3.27
95.39,1.03,-2.22,1.02,-2.22,2.22,1.39,1.65,3.25,3.24,3.25
96.34,1.03,-2.17,1.02,-2.19,2.19,1.34,1.58,3.22,3.21,3.20
97.30,1.02,-2.15,1.02,-2.16,2.16,1.30,1.51,3.18,3.18,3.17
98.28,1.02,-2.12,1.02,-2.12,2.12,1.26,1.45,3.14,3.14,3.14
99.26,1.03,-2.07,1.03,-2.08,2.08,1.21,1.38,3.11,3.10,3.10
100.25,1.02,-2.04,1.03,-2.03,2.03,1.17,1.32,3.05,3.06,3.06
101.25,1.02,-2.00,1.04,-1.97,1.97,1.13,1.26,2.99,3.02,3.02
102.27,1.02,-1.95,1.06,-1.90,1.90,1.09,1.20,2.92,2.96,2.97
103.29,1.03,-1.88,1.08,-1.83,1.83,1.05,1.14,2.86,2.91,2.91
104.32,1.05,-1.81,1.10,-1.75,1.75,1.01,1.08,2.80,2.85,2.86
105.37,1.11,-1.70,1.12,-1.67,1.67,0.97,1.02,2.78,2.79,2.81
106.42,1.14,-1.60,1.14,-1.58,1.58,0.93,0.96,2.72,2.72,2.74
107.48,1.19,-1.47,1.16,-1.48,1.48,0.89,0.91,2.67,2.65,2.66
108.56,1.25,-1.32,1.19,-1.39,1.39,0.86,0.85,2.64,2.57,2.57
109.64,1.25,-1.24,1.20,-1.29,1.29,0.82,0.80,2.54,2.49,2.49
110.74,1.25,-1.17,1.22,-1.19,1.19,0.78,0.75,2.44,2.41,2.42
111.85,1.25,-1.09,1.24,-1.09,1.09,0.75,0.70,2.34,2.33,2.34
112.97,1.25,-0.99,1.25,-1.00,1.00,0.71,0.65,2.25,2.25,2.24
114.10,1.25,-0.92,1.26,-0.91,0.91,0.68,0.60,2.16,2.16,2.17
115.24,1.26,-0.82,1.26,-0.82,0.82,0.64,0.55,2.08,2.09,2.08
116.39,1.25,-0.74,1.26,-0.74,0.74,0.61,0.51,1.99,2.01,1.99
117.55,1.25,-0.67,1.26,-0.67,0.67,0.57,0.46,1.92,1.94,1.92
118.73,1.25,-0.59,1.26,-0.61,0.61,0.54,0.42,1.86,1.87,1.84
119.92,1.25,-0.54,1.25,-0.55,0.55,0.50,0.38,1.80,1.80,1.79
121.12,1.25,-0.48,1.25,-0.49,0.49,0.47,0.34,1.74,1.74,1.73
122.33,1.25,-0.42,1.25,-0.44,0.44,0.43,0.30,1.69,1.69,1.67
123.55,1.25,-0.39,1.24,-0.39,0.39,0.40,0.26,1.64,1.63,1.64
124.79,1.25,-0.34,1.24,-0.34,0.34,0.36,0.22,1.59,1.59,1.59
126.03,1.25,-0.30,1.24,-0.30,0.30,0.32,0.18,1.55,1.54,1.55
127.29,1.25,-0.26,1.25,-0.25,0.25,0.29,0.15,1.50,1.50,1.51
128.57,1.25,-0.21,1.25,-0.20,0.20,0.25,0.11,1.45,1.45,1.46
129.85,1.25,-0.17,1.26,-0.15,0.15,0.22,0.08,1.40,1.41,1.42
131.15,1.25,-0.13,1.27,-0.10,0.10,0.18,0.04,1.35,1.37,1.38
132.46,1.25,-0.08,1.28,-0.05,0.05,0.14,0.01,1.30,1.33,1.33
133.79,1.25,-0.04,1.29,0.00,-0.00,0.10,-0.02,1.25,1.29,1.29
135.12,1.26,0.02,1.30,0.05,-0.05,0.06,-0.05,1.21,1.25,1.24
136.48,1.33,0.13,1.31,0.11,-0.11,0.02,-0.08,1.22,1.20,1.20
137.84,1.36,0.20,1.32,0.16,-0.16,-0.02,-0.11,1.20,1.16,1.16
139.22,1.36,0.26,1.33,0.22,-0.22,-0.06,-0.14,1.14,1.11,1.10
140.61,1.36,0.32,1.34,0.27,-0.27,-0.11,-0.17,1.09,1.07,1.04
142.02,1.36,0.35,1.35,0.34,-0.34,-0.15,-0.20,1.02,1.01,1.01
143.44,1.36,0.40,1.36,0.40,-0.40,-0.20,-0.23,0.96,0.96,0.96
144.87,1.37,0.46,1.37,0.47,-0.47,-0.24,-0.26,0.90,0.90,0.91
146.32,1.36,0.51,1.38,0.54,-0.54,-0.29,-0.29,0.82,0.84,0.85
147.78,1.36,0.55,1.38,0.61,-0.61,-0.34,-0.32,0.75,0.77,0.81
149.26,1.36,0.63,1.38,0.68,-0.68,-0.39,-0.35,0.68,0.70,0.73
150.75,1.36,0.71,1.37,0.74,-0.74,-0.45,-0.37,0.62,0.63,0.65
152.26,1.36,0.79,1.35,0.80,-0.80,-0.50,-0.40,0.56,0.55,0.57
153.78,1.36,0.87,1.33,0.86,-0.86,-0.56,-0.43,0.50,0.47,0.49
155.32,1.36,0.97,1.31,0.92,-0.92,-0.62,-0.46,0.44,0.39,0.39
156.88,1.36,1.06,1.29,0.98,-0.98,-0.68,-0.49,0.38,0.31,0.30
158.44,1.28,1.06,1.27,1.03,-1.03,-0.75,-0.52,0.25,0.24,0.22
160.03,1.26,1.12,1.25,1.08,-1.08,-0.81,-0.56,0.18,0.16,0.14
161.63,1.25,1.17,1.23,1.13,-1.13,-0.88,-0.59,0.12,0.10,0.08
163.24,1.18,1.16,1.22,1.18,-1.18,-0.95,-0.62,-0.00,0.04,0.02
164.88,1.14,1.17,1.21,1.23,-1.23,-1.02,-0.65,-0.09,-0.01,-0.03
166.53,1.14,1.21,1.21,1.26,-1.26,-1.09,-0.69,-0.12,-0.05,-0.07
168.19,1.14,1.25,1.21,1.30,-1.30,-1.16,-0.72,-0.16,-0.08,-0.11
169.87,1.17,1.30,1.22,1.33,-1.33,-1.23,-0.76,-0.16,-0.11,-0.13
171.57,1.24,1.39,1.23,1.36,-1.36,-1.30,-0.79,-0.12,-0.13,-0.15
173.29,1.25,1.40,1.24,1.38,-1.38,-1.37,-0.83,-0.13,-0.14,-0.15
175.02,1.26,1.40,1.26,1.41,-1.41,-1.43,-0.87,-0.15,-0.15,-0.14
176.77,1.35,1.50,1.28,1.44,-1.44,-1.50,-0.90,-0.09,-0.16,-0.15
178.54,1.36,1.51,1.30,1.46,-1.46,-1.56,-0.94,-0.10,-0.16,-0.15
180.32,1.36,1.51,1.32,1.49,-1.49,-1.61,-0.98,-0.13,-0.17,-0.15
182.13,1.36,1.51,1.34,1.52,-1.52,-1.66,-1.02,-0.16,-0.17,-0.15
183.95,1.36,1.51,1.36,1.54,-1.54,-1.71,-1.07,-0.18,-0.18,-0.15
185.79,1.36,1.53,1.37,1.56,-1.56,-1.74,-1.11,-0.20,-0.19,-0.17
187.65,1.37,1.56,1.37,1.57,-1.57,-1.77,-1.15,-0.20,-0.20,-0.19
189.52,1.36,1.58,1.37,1.59,-1.59,-1.80,-1.20,-0.23,-0.22,-0.22
191.42,1.36,1.60,1.37,1.61,-1.61,-1.81,-1.24,-0.25,-0.24,-0.24
193.33,1.36,1.63,1.37,1.63,-1.63,-1.82,-1.28,-0.27,-0.26,-0.27
195.27,1.37,1.65,1.37,1.65,-1.65,-1.83,-1.33,-0.28,-0.28,-0.28
197.22,1.36,1.66,1.36,1.66,-1.66,-1.83,-1.38,-0.30,-0.30,-0.30
199.19,1.36,1.70,1.36,1.69,-1.69,-1.82,-1.42,-0.33,-0.33,-0.34
201.18,1.36,1.71,1.36,1.71,-1.71,-1.81,-1.47,-0.35,-0.35,-0.35
203.19,1.36,1.73,1.36,1.73,-1.73,-1.80,-1.52,-0.37,-0.37,-0.37
205.23,1.36,1.76,1.36,1.76,-1.76,-1.79,-1.56,-0.40,-0.39,-0.40
207.28,1.36,1.77,1.36,1.78,-1.78,-1.78,-1.61,-0.42,-0.41,-0.41
209.35,1.36,1.80,1.36,1.79,-1.79,-1.76,-1.66,-0.43,-0.43,-0.44
211.44,1.36,1.82,1.36,1.81,-1.81,-1.75,-1.70,-0.45,-0.45,-0.46
213.56,1.37,1.84,1.36,1.83,-1.83,-1.74,-1.75,-0.46,-0.47,-0.47
215.69,1.36,1.84,1.36,1.85,-1.85,-1.73,-1.79,-0.49,-0.49,-0.48
217.85,1.36,1.86,1.36,1.86,-1.86,-1.72,-1.83,-0.50,-0.50,-0.50
220.03,1.36,1.88,1.36,1.88,-1.88,-1.71,-1.87,-0.52,-0.52,-0.52
222.23,1.36,1.90,1.36,1.89,-1.89,-1.71,-1.91,-0.53,-0.53,-0.54
224.45,1.36,1.90,1.36,1.90,-1.90,-1.70,-1.95,-0.54,-0.54,-0.54
226.70,1.36,1.91,1.36,1.91,-1.91,-1.70,-1.99,-0.55,-0.55,-0.55
228.96,1.36,1.92,1.36,1.92,-1.92,-1.70,-2.02,-0.56,-0.56,-0.56
231.25,1.36,1.92,1.36,1.93,-1.93,-1.70,-2.05,-0.57,-0.57,-0.56
233.57,1.36,1.94,1.36,1.94,-1.94,-1.71,-2.08,-0.58,-0.58,-0.58
235.90,1.36,1.95,1.36,1.94,-1.94,-1.71,-2.11,-0.58,-0.58,-0.59
238.26,1.36,1.95,1.36,1.94,-1.94,-1.72,-2.13,-0.58,-0.58,-0.59
240.64,1.36,1.95,1.36,1.94,-1.94,-1.73,-2.15,-0.58,-0.58,-0.59
243.05,1.36,1.94,1.36,1.94,-1.94,-1.74,-2.16,-0.58,-0.58,-0.58
245.48,1.36,1.94,1.36,1.94,-1.94,-1.74,-2.17,-0.58,-0.58,-0.58
247.93,1.36,1.93,1.37,1.95,-1.95,-1.75,-2.18,-0.59,-0.58,-0.57
250.41,1.36,1.94,1.37,1.94,-1.94,-1.76,-2.19,-0.58,-0.58,-0.58
252.92,1.36,1.93,1.37,1.94,-1.94,-1.77,-2.19,-0.58,-0.57,-0.57
255.45,1.36,1.91,1.37,1.93,-1.93,-1.78,-2.18,-0.57,-0.56,-0.55
258.00,1.36,1.91,1.36,1.92,-1.92,-1.79,-2.18,-0.56,-0.55,-0.55
260.58,1.37,1.91,1.36,1.90,-1.90,-1.80,-2.17,-0.53,-0.54,-0.54
263.19,1.36,1.89,1.35,1.88,-1.88,-1.80,-2.15,-0.52,-0.53,-0.53
265.82,1.37,1.90,1.34,1.86,-1.86,-1.81,-2.14,-0.49,-0.52,-0.53
268.48,1.36,1.87,1.33,1.84,-1.84,-1.81,-2.12,-0.48,-0.51,-0.51
271.16,1.36,1.85,1.32,1.81,-1.81,-1.81,-2.09,-0.45,-0.49,-0.49
273.87,1.32,1.80,1.31,1.78,-1.78,-1.81,-2.07,-0.46,-0.47,-0.48
276.61,1.26,1.71,1.30,1.75,-1.75,-1.81,-2.04,-0.49,-0.45,-0.45
279.38,1.26,1.69,1.30,1.72,-1.72,-1.80,-2.01,-0.46,-0.43,-0.43
282.17,1.25,1.66,1.29,1.69,-1.69,-1.80,-1.98,-0.44,-0.41,-0.41
284.99,1.25,1.64,1.28,1.66,-1.66,-1.79,-1.94,-0.41,-0.38,-0.39
287.84,1.25,1.61,1.27,1.62,-1.62,-1.77,-1.91,-0.37,-0.36,-0.36
290.72,1.25,1.58,1.26,1.58,-1.58,-1.76,-1.87,-0.33,-0.33,-0.33
293.63,1.26,1.56,1.24,1.55,-1.55,-1.74,-1.83,-0.29,-0.30,-0.30
296.57,1.26,1.54,1.23,1.51,-1.51,-1.72,-1.79,-0.25,-0.28,-0.28
299.53,1.25,1.50,1.22,1.48,-1.48,-1.70,-1.76,-0.23,-0.26,-0.25
302.53,1.25,1.49,1.21,1.45,-1.45,-1.68,-1.72,-0.20,-0.23,-0.24
305.55,1.25,1.45,1.21,1.42,-1.42,-1.66,-1.68,-0.17,-0.21,-0.20
308.61,1.23,1.42,1.20,1.40,-1.40,-1.63,-1.64,-0.17,-0.20,-0.19
311.69,1.15,1.32,1.19,1.37,-1.37,-1.60,-1.60,-0.22,-0.18,-0.17
314.81,1.14,1.28,1.18,1.35,-1.35,-1.57,-1.56,-0.21,-0.17,-0.14
317.96,1.14,1.29,1.17,1.33,-1.33,-1.54,-1.52,-0.19,-0.16,-0.15
321.14,1.14,1.29,1.16,1.31,-1.31,-1.51,-1.48,-0.17,-0.15,-0.15
324.35,1.14,1.28,1.15,1.29,-1.29,-1.47,-1.44,-0.15,-0.14,-0.14
327.59,1.14,1.28,1.14,1.27,-1.27,-1.44,-1.40,-0.13,-0.13,-0.14
330.87,1.14,1.27,1.14,1.26,-1.26,-1.40,-1.37,-0.12,-0.12,-0.13
334.18,1.14,1.26,1.13,1.25,-1.25,-1.37,-1.33,-0.11,-0.11,-0.12
337.52,1.14,1.26,1.13,1.23,-1.23,-1.33,-1.30,-0.09,-0.10,-0.12
340.90,1.14,1.23,1.13,1.22,-1.22,-1.29,-1.26,-0.08,-0.09,-0.09
344.30,1.14,1.22,1.14,1.21,-1.21,-1.26,-1.23,-0.07,-0.08,-0.08
347.75,1.14,1.21,1.14,1.20,-1.20,-1.22,-1.20,-0.06,-0.06,-0.07
351.23,1.14,1.18,1.14,1.18,-1.18,-1.18,-1.16,-0.04,-0.04,-0.04
354.74,1.14,1.16,1.14,1.16,-1.16,-1.15,-1.13,-0.02,-0.02,-0.02
358.28,1.14,1.13,1.14,1.13,-1.13,-1.11,-1.10,0.01,0.01,0.01
361.87,1.14,1.12,1.14,1.11,-1.11,-1.08,-1.08,0.03,0.03,0.02
365.49,1.14,1.09,1.14,1.09,-1.09,-1.04,-1.05,0.05,0.05,0.05
369.14,1.14,1.07,1.14,1.07,-1.07,-1.01,-1.02,0.07,0.07,0.07
372.83,1.14,1.04,1.15,1.05,-1.05,-0.97,-1.00,0.09,0.09,0.10
376.56,1.14,1.02,1.15,1.04,-1.04,-0.94,-0.97,0.10,0.11,0.12
380.33,1.14,1.00,1.15,1.02,-1.02,-0.90,-0.95,0.12,0.13,0.14
384.13,1.14,0.98,1.14,1.00,-1.00,-0.87,-0.92,0.14,0.15,0.16
387.97,1.14,0.97,1.14,0.98,-0.98,-0.84,-0.90,0.16,0.16,0.17
391.85,1.14,0.96,1.13,0.96,-0.96,-0.81,-0.88,0.18,0.18,0.18
395.77,1.14,0.95,1.13,0.94,-0.94,-0.78,-0.86,0.20,0.19,0.19
399.73,1.14,0.94,1.12,0.92,-0.92,-0.75,-0.84,0.22,0.20,0.20
403.72,1.14,0.94,1.11,0.90,-0.90,-0.72,-0.82,0.24,0.21,0.20
407.76,1.14,0.93,1.10,0.89,-0.89,-0.69,-0.80,0.25,0.21,0.21
411.84,1.08,0.86,1.09,0.88,-0.88,-0.66,-0.78,0.20,0.22,0.22
415.96,1.04,0.81,1.08,0.86,-0.86,-0.63,-0.77,0.18,0.22,0.23
420.12,1.03,0.80,1.07,0.85,-0.85,-0.61,-0.75,0.18,0.22,0.23
424.32,1.03,0.80,1.06,0.83,-0.83,-0.58,-0.73,0.20,0.22,0.23
428.56,1.03,0.80,1.04,0.82,-0.82,-0.56,-0.72,0.21,0.23,0.23
432.85,1.03,0.81,1.03,0.80,-0.80,-0.53,-0.70,0.23,0.23,0.22
437.18,1.03,0.80,1.01,0.78,-0.78,-0.51,-0.69,0.25,0.24,0.23
441.55,1.03,0.79,1.00,0.76,-0.76,-0.48,-0.67,0.27,0.24,0.24
445.96,1.03,0.79,0.99,0.74,-0.74,-0.46,-0.65,0.29,0.25,0.24
450.42,1.03,0.78,0.98,0.73,-0.73,-0.44,-0.64,0.30,0.25,0.25
454.93,0.94,0.68,0.97,0.71,-0.71,-0.42,-0.62,0.23,0.26,0.26
459.48,0.92,0.65,0.96,0.69,-0.69,-0.39,-0.61,0.23,0.28,0.27
464.07,0.92,0.63,0.95,0.66,-0.66,-0.37,-0.59,0.26,0.29,0.29
468.71,0.92,0.61,0.93,0.63,-0.63,-0.35,-0.58,0.29,0.31,0.31
473.40,0.91,0.59,0.92,0.59,-0.59,-0.33,-0.56,0.32,0.33,0.32
478.13,0.92,0.57,0.90,0.55,-0.55,-0.31,-0.55,0.37,0.35,0.35
482.91,0.92,0.56,0.88,0.51,-0.51,-0.29,-0.53,0.41,0.37,0.36
487.74,0.91,0.52,0.87,0.47,-0.47,-0.28,-0.51,0.44,0.39,0.39
492.62,0.87,0.45,0.85,0.43,-0.43,-0.26,-0.50,0.44,0.42,0.42
497.55,0.82,0.38,0.84,0.40,-0.40,-0.24,-0.48,0.42,0.44,0.44
502.52,0.80,0.33,0.83,0.36,-0.36,-0.22,-0.46,0.44,0.47,0.47
507.55,0.80,0.31,0.83,0.33,-0.33,-0.20,-0.44,0.47,0.49,0.49
512.62,0.80,0.28,0.82,0.30,-0.30,-0.19,-0.42,0.50,0.52,0.52
517.75,0.80,0.26,0.81,0.27,-0.27,-0.17,-0.40,0.53,0.54,0.54
