frequency,raw,error,smoothed,error_smoothed,equalization,parametric_eq,fixed_band_eq,equalized_raw,equalized_smoothed,target
20.00,-2.13,-10.84,-2.13,-10.84,10.84,9.97,4.24,8.71,8.72,8.71
20.20,-2.09,-10.79,-2.08,-10.78,10.78,10.04,4.35,8.70,8.70,8.70
20.40,-2.04,-10.73,-2.04,-10.73,10.73,10.11,4.47,8.69,8.69,8.69
20.61,-2.00,-10.68,-1.99,-10.67,10.67,10.17,4.59,8.67,8.68,8.68
20.81,-1.95,-10.61,-1.95,-10.62,10.62,10.22,4.71,8.67,8.67,8.66
21.02,-1.91,-10.56,-1.91,-10.56,10.56,10.27,4.84,8.65,8.66,8.65
21.23,-1.86,-10.50,-1.87,-10.51,10.51,10.31,4.97,8.65,8.64,8.64
21.44,-1.82,-10.47,-1.82,-10.46,10.46,10.35,5.11,8.64,8.64,8.65
21.66,-1.78,-10.41,-1.78,-10.41,10.41,10.37,5.25,8.63,8.63,8.63
21.87,-1.73,-10.35,-1.74,-10.36,10.36,10.39,5.39,8.63,8.62,8.63
22.09,-1.69,-10.29,-1.70,-10.31,10.31,10.41,5.53,8.62,8.61,8.60
22.31,-1.65,-10.25,-1.66,-10.26,10.26,10.41,5.68,8.61,8.60,8.60
22.54,-1.61,-10.20,-1.62,-10.21,10.21,10.41,5.84,8.60,8.59,8.59
22.76,-1.57,-10.16,-1.58,-10.17,10.17,10.40,6.00,8.60,8.59,8.59
22.99,-1.54,-10.12,-1.54,-10.12,10.12,10.39,6.16,8.58,8.58,8.58
23.22,-1.51,-10.08,-1.50,-10.08,10.08,10.36,6.33,8.57,8.58,8.57
23.45,-1.47,-10.05,-1.46,-10.03,10.03,10.34,6.50,8.57,8.57,8.58
23.69,-1.44,-10.01,-1.42,-9.99,9.99,10.30,6.67,8.55,8.57,8.57
23.92,-1.39,-9.94,-1.38,-9.95,9.95,10.26,6.85,8.56,8.56,8.56
24.16,-1.35,-9.91,-1.34,-9.90,9.90,10.22,7.03,8.55,8.56,8.56
24.40,-1.30,-9.86,-1.30,-9.86,9.86,10.17,7.22,8.56,8.56,8.56
24.65,-1.25,-9.81,-1.26,-9.81,9.81,10.11,7.41,8.56,8.56,8.56
24.89,-1.21,-9.77,-1.21,-9.77,9.77,10.05,7.61,8.56,8.55,8.56
25.14,-1.17,-9.72,-1.17,-9.72,9.72,9.99,7.80,8.55,8.55,8.55
25.39,-1.13,-9.67,-1.12,-9.67,9.67,9.92,8.00,8.54,8.55,8.55
25.65,-1.08,-9.62,-1.07,-9.62,9.62,9.85,8.21,8.54,8.55,8.54
25.91,-1.04,-9.58,-1.02,-9.57,9.57,9.78,8.41,8.53,8.55,8.54
26.16,-0.98,-9.53,-0.98,-9.52,9.52,9.70,8.62,8.54,8.54,8.55
26.43,-0.93,-9.48,-0.93,-9.47,9.47,9.63,8.83,8.54,8.54,8.55
26.69,-0.88,-9.42,-0.89,-9.43,9.43,9.55,9.03,8.55,8.54,8.55
26.96,-0.83,-9.37,-0.84,-9.39,9.39,9.47,9.24,8.56,8.54,8.54
27.23,-0.79,-9.33,-0.80,-9.35,9.35,9.39,9.45,8.56,8.54,8.54
27.50,-0.75,-9.29,-0.76,-9.31,9.31,9.30,9.65,8.56,8.55,8.54
27.77,-0.71,-9.25,-0.72,-9.27,9.27,9.22,9.84,8.56,8.55,8.55
28.05,-0.67,-9.21,-0.68,-9.23,9.23,9.14,10.04,8.56,8.55,8.54
28.33,-0.64,-9.19,-0.64,-9.19,9.19,9.06,10.22,8.55,8.55,8.55
28.62,-0.61,-9.16,-0.60,-9.15,9.15,8.98,10.40,8.54,8.55,8.55
28.90,-0.58,-9.13,-0.57,-9.12,9.12,8.90,10.56,8.54,8.55,8.55
29.19,-0.56,-9.11,-0.54,-9.08,9.08,8.82,10.71,8.53,8.55,8.55
29.48,-0.52,-9.07,-0.51,-9.05,9.05,8.74,10.85,8.53,8.54,8.55
29.78,-0.48,-9.02,-0.48,-9.02,9.02,8.66,10.97,8.54,8.54,8.54
30.08,-0.44,-8.98,-0.45,-8.99,8.99,8.59,11.08,8.55,8.54,8.54
30.38,-0.40,-8.93,-0.42,-8.95,8.95,8.51,11.16,8.55,8.53,8.53
30.68,-0.37,-8.89,-0.39,-8.92,8.92,8.44,11.23,8.55,8.53,8.52
30.99,-0.34,-8.86,-0.36,-8.88,8.88,8.37,11.28,8.54,8.52,8.52
31.30,-0.33,-8.85,-0.32,-8.84,8.84,8.30,11.30,8.51,8.51,8.52
31.61,-0.31,-8.82,-0.29,-8.79,8.79,8.23,11.30,8.48,8.51,8.51
31.93,-0.28,-8.77,-0.25,-8.75,8.75,8.17,11.28,8.47,8.50,8.49
32.24,-0.24,-8.73,-0.22,-8.71,8.71,8.11,11.24,8.47,8.49,8.49
32.57,-0.20,-8.68,-0.19,-8.67,8.67,8.05,11.18,8.47,8.48,8.48
32.89,-0.16,-8.63,-0.16,-8.63,8.63,7.99,11.11,8.47,8.47,8.47
33.22,-0.12,-8.59,-0.13,-8.59,8.59,7.94,11.01,8.48,8.47,8.47
33.55,-0.08,-8.54,-0.10,-8.56,8.56,7.88,10.90,8.48,8.46,8.46
33.89,-0.04,-8.49,-0.07,-8.52,8.52,7.84,10.78,8.48,8.45,8.45
34.23,-0.01,-8.44,-0.04,-8.48,8.48,7.79,10.65,8.47,8.44,8.43
34.57,0.01,-8.41,-0.00,-8.43,8.43,7.75,10.51,8.44,8.43,8.43
34.92,0.02,-8.39,0.03,-8.39,8.39,7.71,10.35,8.41,8.42,8.41
35.27,0.04,-8.38,0.06,-8.35,8.35,7.67,10.20,8.39,8.41,8.42
35.62,0.06,-8.34,0.09,-8.31,8.31,7.63,10.04,8.37,8.39,8.40
35.97,0.10,-8.29,0.12,-8.26,8.26,7.60,9.87,8.36,8.38,8.39
36.33,0.13,-8.24,0.14,-8.22,8.22,7.57,9.70,8.35,8.36,8.37
36.70,0.17,-8.17,0.17,-8.18,8.18,7.54,9.53,8.35,8.35,8.34
37.06,0.20,-8.13,0.20,-8.13,8.13,7.52,9.37,8.33,8.33,8.33
37.43,0.24,-8.07,0.23,-8.08,8.08,7.50,9.20,8.32,8.31,8.31
37.81,0.27,-8.02,0.26,-8.03,8.03,7.48,9.03,8.30,8.29,8.29
38.19,0.29,-7.97,0.29,-7.98,7.98,7.46,8.87,8.27,8.27,8.26
38.57,0.31,-7.93,0.32,-7.92,7.92,7.45,8.71,8.23,8.24,8.24
38.95,0.34,-7.88,0.35,-7.87,7.87,7.44,8.56,8.21,8.22,8.22
39.34,0.37,-7.82,0.38,-7.81,7.81,7.43,8.40,8.18,8.19,8.19
39.74,0.40,-7.76,0.41,-7.77,7.77,7.42,8.26,8.17,8.17,8.16
40.14,0.42,-7.72,0.42,-7.72,7.72,7.41,8.11,8.14,8.15,8.14
40.54,0.45,-7.67,0.44,-7.68,7.68,7.40,7.97,8.13,8.12,8.12
40.94,0.47,-7.62,0.45,-7.64,7.64,7.40,7.84,8.11,8.10,8.09
41.35,0.49,-7.58,0.46,-7.61,7.61,7.40,7.71,8.10,8.07,8.07
41.76,0.50,-7.54,0.47,-7.58,7.58,7.39,7.59,8.08,8.05,8.04
42.18,0.50,-7.52,0.47,-7.54,7.54,7.39,7.47,8.05,8.02,8.02
42.60,0.50,-7.49,0.48,-7.51,7.51,7.39,7.36,8.02,7.99,7.99
43.03,0.48,-7.49,0.48,-7.49,7.49,7.39,7.25,7.97,7.97,7.97
43.46,0.47,-7.46,0.48,-7.46,7.46,7.38,7.15,7.93,7.94,7.93
43.90,0.46,-7.45,0.48,-7.42,7.42,7.38,7.05,7.89,7.91,7.91
44.33,0.46,-7.41,0.49,-7.39,7.39,7.37,6.96,7.85,7.88,7.87
44.78,0.47,-7.38,0.49,-7.35,7.35,7.36,6.87,7.82,7.85,7.85
45.23,0.48,-7.34,0.50,-7.31,7.31,7.35,6.79,7.79,7.81,7.82
45.68,0.50,-7.28,0.52,-7.26,7.26,7.34,6.71,7.76,7.77,7.78
46.13,0.52,-7.22,0.53,-7.20,7.20,7.32,6.64,7.72,7.74,7.74
46.60,0.55,-7.15,0.56,-7.14,7.14,7.30,6.57,7.69,7.70,7.70
47.06,0.58,-7.08,0.58,-7.07,7.07,7.28,6.51,7.65,7.65,7.66
47.53,0.61,-7.01,0.61,-7.00,7.00,7.25,6.45,7.61,7.61,7.62
48.01,0.64,-6.92,0.64,-6.93,6.93,7.22,6.40,7.57,7.57,7.56
48.49,0.67,-6.85,0.67,-6.85,6.85,7.18,6.35,7.52,7.52,7.52
48.97,0.70,-6.77,0.70,-6.78,6.78,7.14,6.30,7.48,7.48,7.47
49.46,0.73,-6.70,0.73,-6.70,6.70,7.09,6.26,7.44,7.43,7.43
49.96,0.76,-6.61,0.75,-6.63,6.63,7.04,6.22,7.40,7.38,7.37
50.46,0.78,-6.55,0.77,-6.57,6.57,6.99,6.19,7.35,7.34,7.33
50.96,0.80,-6.49,0.78,-6.50,6.50,6.92,6.15,7.30,7.29,7.29
51.47,0.81,-6.43,0.80,-6.44,6.44,6.86,6.12,7.25,7.24,7.24
51.99,0.82,-6.37,0.81,-6.39,6.39,6.79,6.10,7.21,7.19,7.19
52.51,0.83,-6.32,0.81,-6.33,6.33,6.71,6.07,7.16,7.15,7.15
53.03,0.82,-6.29,0.82,-6.28,6.28,6.63,6.05,7.10,7.10,7.11
53.56,0.81,-6.25,0.82,-6.24,6.24,6.54,6.03,7.05,7.05,7.06
54.10,0.81,-6.19,0.81,-6.20,6.20,6.45,6.00,7.01,7.01,7.00
54.64,0.80,-6.16,0.81,-6.16,6.16,6.36,5.98,6.96,6.96,6.96
55.18,0.80,-6.11,0.80,-6.12,6.12,6.26,5.96,6.92,6.92,6.91
55.74,0.80,-6.06,0.80,-6.08,6.08,6.16,5.94,6.88,6.88,6.86
56.29,0.80,-6.03,0.79,-6.04,6.04,6.05,5.92,6.84,6.83,6.83
56.86,0.79,-5.99,0.79,-5.99,5.99,5.95,5.90,6.79,6.78,6.78
57.42,0.78,-5.95,0.79,-5.95,5.95,5.84,5.87,6.73,6.74,6.73
58.00,0.78,-5.90,0.79,-5.89,5.89,5.73,5.84,6.67,6.69,6.68
58.58,0.78,-5.86,0.80,-5.83,5.83,5.62,5.81,6.61,6.64,6.64
59.16,0.80,-5.80,0.81,-5.77,5.77,5.51,5.78,6.57,6.58,6.60
59.76,0.81,-5.74,0.83,-5.70,5.70,5.39,5.75,6.51,6.53,6.55
60.35,0.84,-5.65,0.85,-5.63,5.63,5.28,5.71,6.47,6.47,6.49
60.96,0.86,-5.57,0.87,-5.55,5.55,5.16,5.66,6.41,6.42,6.43
61.57,0.89,-5.47,0.89,-5.46,5.46,5.05,5.62,6.36,6.36,6.36
62.18,0.92,-5.37,0.92,-5.38,5.38,4.94,5.56,6.30,6.30,6.29
62.80,0.95,-5.28,0.95,-5.29,5.29,4.83,5.51,6.24,6.24,6.23
63.43,0.98,-5.18,0.98,-5.19,5.19,4.71,5.45,6.17,6.17,6.16
64.07,1.01,-5.09,1.01,-5.10,5.10,4.60,5.38,6.11,6.11,6.10
64.71,1.04,-5.00,1.04,-5.01,5.01,4.49,5.32,6.05,6.05,6.04
65.35,1.07,-4.91,1.06,-4.92,4.92,4.38,5.24,5.99,5.98,5.98
66.01,1.10,-4.82,1.08,-4.84,4.84,4.28,5.17,5.94,5.92,5.92
66.67,1.12,-4.74,1.10,-4.75,4.75,4.17,5.09,5.87,5.86,5.87
67.33,1.13,-4.66,1.12,-4.68,4.68,4.07,5.00,5.81,5.79,5.79
68.01,1.15,-4.58,1.13,-4.60,4.60,3.96,4.91,5.75,5.73,5.73
68.69,1.15,-4.52,1.14,-4.53,4.53,3.86,4.82,5.68,5.66,5.67
69.37,1.15,-4.46,1.14,-4.46,4.46,3.76,4.73,5.61,5.60,5.61
70.07,1.14,-4.40,1.14,-4.39,4.39,3.67,4.64,5.53,5.53,5.54
70.77,1.13,-4.34,1.15,-4.32,4.32,3.57,4.54,5.45,5.47,5.47
71.48,1.13,-4.28,1.14,-4.26,4.26,3.48,4.44,5.39,5.40,5.41
72.19,1.13,-4.20,1.14,-4.19,4.19,3.39,4.34,5.32,5.33,5.33
72.91,1.13,-4.13,1.14,-4.13,4.13,3.30,4.24,5.26,5.27,5.26
73.64,1.13,-4.06,1.14,-4.06,4.06,3.21,4.14,5.19,5.20,5.19
74.38,1.13,-3.99,1.13,-4.00,4.00,3.12,4.04,5.13,5.13,5.12
75.12,1.13,-3.93,1.13,-3.94,3.94,3.04,3.94,5.07,5.07,5.06
75.87,1.13,-3.87,1.13,-3.87,3.87,2.95,3.84,5.01,5.00,5.00
76.63,1.13,-3.80,1.13,-3.81,3.81,2.87,3.74,4.94,4.94,4.93
77.40,1.13,-3.75,1.13,-3.75,3.75,2.80,3.64,4.88,4.88,4.88
78.17,1.13,-3.68,1.13,-3.69,3.69,2.72,3.54,4.82,4.82,4.81
78.95,1.13,-3.63,1.13,-3.62,3.62,2.64,3.44,4.75,4.75,4.76
79.74,1.13,-3.56,1.13,-3.56,3.56,2.57,3.34,4.69,4.69,4.69
80.54,1.13,-3.51,1.13,-3.50,3.50,2.50,3.25,4.63,4.63,4.64
81.35,1.13,-3.44,1.13,-3.44,3.44,2.43,3.15,4.57,4.57,4.57
82.16,1.13,-3.39,1.13,-3.38,3.38,2.36,3.06,4.51,4.51,4.52
82.98,1.13,-3.32,1.13,-3.31,3.31,2.29,2.97,4.45,4.45,4.45
83.81,1.13,-3.26,1.13,-3.25,3.25,2.22,2.88,4.38,4.38,4.39
84.65,1.13,-3.18,1.13,-3.19,3.19,2.16,2.79,4.32,4.32,4.31
85.50,1.13,-3.12,1.13,-3.12,3.12,2.10,2.70,4.25,4.25,4.25
86.35,1.13,-3.05,1.13,-3.06,3.06,2.03,2.62,4.19,4.19,4.18
87.22,1.13,-2.99,1.13,-2.99,2.99,1.97,2.54,4.12,4.12,4.12
88.09,1.13,-2.92,1.13,-2.92,2.92,1.91,2.46,4.05,4.05,4.05
88.97,1.13,-2.85,1.13,-2.85,2.85,1.86,2.38,3.98,3.98,3.98
89.86,1.13,-2.78,1.13,-2.78,2.78,1.80,2.30,3.91,3.91,3.92
90.76,1.13,-2.72,1.13,-2.71,2.71,1.74,2.22,3.84,3.84,3.85
91.66,1.13,-2.64,1.13,-2.64,2.64,1.69,2.15,3.77,3.77,3.77
92.58,1.13,-2.57,1.13,-2.57,2.57,1.63,2.08,3.70,3.70,3.71
93.51,1.13,-2.50,1.13,-2.50,2.50,1.58,2.01,3.63,3.63,3.63
94.44,1.13,-2.43,1.13,-2.42,2.42,1.53,1.94,3.55,3.55,3.56
95.39,1.13,-2.35,1.13,-2.35,2.35,1.48,1.87,3.48,3.48,3.48
96.34,1.13,-2.28,1.13,-2.27,2.27,1.43,1.80,3.40,3.40,3.41
97.30,1.13,-2.20,1.13,-2.20,2.20,1.38,1.74,3.33,3.33,3.33
98.28,1.13,-2.12,1.13,-2.13,2.13,1.33,1.67,3.26,3.26,3.25
99.26,1.13,-2.04,1.13,-2.05,2.05,1.29,1.61,3.18,3.18,3.17
100.25,1.13,-1.97,1.13,-1.98,1.98,1.24,1.55,3.11,3.11,3.10
101.25,1.13,-1.90,1.13,-1.91,1.91,1.19,1.49,3.04,3.04,3.03
102.27,1.13,-1.84,1.13,-1.84,1.84,1.15,1.43,2.97,2.97,2.97
103.29,1.13,-1.76,1.13,-1.77,1.77,1.10,1.38,2.90,2.90,2.89
104.32,1.13,-1.70,1.13,-1.70,1.70,1.06,1.32,2.83,2.83,2.83
105.37,1.13,-1.63,1.13,-1.63,1.63,1.02,1.27,2.76,2.76,2.76
106.42,1.13,-1.57,1.13,-1.56,1.56,0.98,1.21,2.69,2.69,2.70
107.48,1.13,-1.49,1.13,-1.49,1.49,0.93,1.16,2.62,2.62,2.62
108.56,1.13,-1.43,1.13,-1.42,1.42,0.89,1.11,2.55,2.55,2.56
109.64,1.13,-1.36,1.13,-1.35,1.35,0.85,1.06,2.48,2.48,2.49
110.74,1.13,-1.29,1.13,-1.28,1.28,0.81,1.01,2.41,2.41,2.42
111.85,1.13,-1.21,1.13,-1.21,1.21,0.77,0.96,2.34,2.34,2.34
112.97,1.13,-1.15,1.13,-1.14,1.14,0.73,0.91,2.27,2.27,2.28
114.10,1.13,-1.07,1.13,-1.07,1.07,0.69,0.86,2.20,2.20,2.20
115.24,1.13,-0.99,1.13,-1.00,1.00,0.65,0.81,2.13,2.13,2.12
116.39,1.13,-0.92,1.13,-0.93,0.93,0.61,0.77,2.06,2.06,2.05
117.55,1.13,-0.84,1.13,-0.86,0.86,0.58,0.72,1.99,1.99,1.97
118.73,1.13,-0.77,1.13,-0.79,0.79,0.54,0.68,1.92,1.92,1.90
119.92,1.13,-0.71,1.13,-0.72,0.72,0.50,0.63,1.85,1.85,1.84
121.12,1.13,-0.65,1.13,-0.65,0.65,0.46,0.59,1.78,1.78,1.78
122.33,1.13,-0.58,1.13,-0.58,0.58,0.43,0.54,1.71,1.71,1.71
123.55,1.13,-0.52,1.13,-0.51,0.51,0.39,0.50,1.64,1.64,1.65
124.79,1.13,-0.45,1.13,-0.44,0.44,0.35,0.46,1.57,1.57,1.58
126.03,1.13,-0.38,1.13,-0.37,0.37,0.31,0.41,1.51,1.51,1.51
127.29,1.13,-0.32,1.13,-0.31,0.31,0.28,0.37,1.44,1.44,1.45
128.57,1.13,-0.24,1.13,-0.24,0.24,0.24,0.33,1.37,1.37,1.37
129.85,1.13,-0.17,1.13,-0.17,0.17,0.20,0.29,1.30,1.30,1.31
131.15,1.13,-0.10,1.13,-0.11,0.11,0.17,0.25,1.24,1.24,1.23
132.46,1.13,-0.04,1.13,-0.04,0.04,0.13,0.21,1.17,1.17,1.17
133.79,1.13,0.04,1.13,0.03,-0.03,0.09,0.16,1.10,1.10,1.10
135.12,1.13,0.10,1.13,0.09,-0.09,0.05,0.12,1.04,1.04,1.03
136.48,1.13,0.16,1.13,0.16,-0.16,0.02,0.08,0.97,0.97,0.97
137.84,1.13,0.23,1.13,0.22,-0.22,-0.02,0.04,0.91,0.91,0.91
139.22,1.13,0.29,1.13,0.29,-0.29,-0.06,-0.00,0.84,0.84,0.84
140.61,1.13,0.35,1.13,0.35,-0.35,-0.10,-0.04,0.78,0.78,0.78
142.02,1.13,0.41,1.13,0.41,-0.41,-0.13,-0.09,0.72,0.72,0.72
143.44,1.13,0.47,1.13,0.47,-0.47,-0.17,-0.13,0.66,0.66,0.66
144.87,1.13,0.52,1.13,0.52,-0.52,-0.21,-0.17,0.61,0.61,0.61
146.32,1.13,0.58,1.13,0.58,-0.58,-0.25,-0.21,0.55,0.55,0.55
147.78,1.13,0.63,1.13,0.64,-0.64,-0.29,-0.26,0.49,0.49,0.50
149.26,1.13,0.69,1.13,0.69,-0.69,-0.33,-0.30,0.44,0.44,0.44
150.75,1.13,0.75,1.13,0.75,-0.75,-0.37,-0.34,0.38,0.38,0.38
152.26,1.13,0.80,1.14,0.81,-0.81,-0.41,-0.39,0.32,0.33,0.33
153.78,1.13,0.85,1.14,0.86,-0.86,-0.45,-0.43,0.27,0.27,0.28
155.32,1.13,0.91,1.14,0.92,-0.92,-0.49,-0.48,0.21,0.22,0.22
156.88,1.13,0.96,1.14,0.98,-0.98,-0.53,-0.52,0.15,0.16,0.17
158.44,1.13,1.02,1.14,1.03,-1.03,-0.58,-0.57,0.10,0.11,0.11
160.03,1.14,1.08,1.14,1.09,-1.09,-0.62,-0.62,0.05,0.05,0.06
161.63,1.15,1.15,1.14,1.14,-1.14,-0.66,-0.67,0.01,-0.00,-0.00
163.24,1.15,1.21,1.13,1.19,-1.19,-0.71,-0.72,-0.04,-0.06,-0.06
164.88,1.14,1.25,1.13,1.24,-1.24,-0.75,-0.77,-0.10,-0.11,-0.11
166.53,1.13,1.31,1.11,1.29,-1.29,-0.79,-0.82,-0.15,-0.17,-0.18
168.19,1.11,1.33,1.10,1.33,-1.33,-0.84,-0.87,-0.22,-0.23,-0.22
169.87,1.09,1.38,1.08,1.37,-1.37,-0.89,-0.92,-0.28,-0.29,-0.28
171.57,1.07,1.42,1.06,1.40,-1.40,-0.93,-0.98,-0.33,-0.34,-0.35
173.29,1.04,1.44,1.04,1.44,-1.44,-0.98,-1.03,-0.39,-0.40,-0.40
175.02,1.01,1.46,1.01,1.46,-1.46,-1.03,-1.09,-0.45,-0.46,-0.45
176.77,0.98,1.49,0.98,1.49,-1.49,-1.08,-1.14,-0.51,-0.51,-0.51
178.54,0.95,1.52,0.95,1.52,-1.52,-1.13,-1.20,-0.57,-0.57,-0.57
180.32,0.91,1.54,0.92,1.54,-1.54,-1.18,-1.26,-0.63,-0.62,-0.63
182.13,0.89,1.57,0.89,1.57,-1.57,-1.23,-1.32,-0.68,-0.68,-0.68
183.95,0.86,1.59,0.87,1.60,-1.60,-1.28,-1.38,-0.74,-0.73,-0.73
185.79,0.83,1.62,0.85,1.63,-1.63,-1.33,-1.44,-0.80,-0.79,-0.79
187.65,0.81,1.65,0.83,1.67,-1.67,-1.38,-1.50,-0.86,-0.84,-0.84
189.52,0.80,1.69,0.81,1.70,-1.70,-1.44,-1.57,-0.90,-0.89,-0.89
191.42,0.78,1.72,0.80,1.74,-1.74,-1.49,-1.63,-0.96,-0.94,-0.94
193.33,0.78,1.76,0.79,1.78,-1.78,-1.54,-1.70,-1.00,-0.99,-0.98
195.27,0.78,1.82,0.79,1.83,-1.83,-1.60,-1.76,-1.05,-1.04,-1.04
197.22,0.79,1.89,0.79,1.87,-1.87,-1.65,-1.83,-1.08,-1.08,-1.09
199.19,0.80,1.93,0.79,1.91,-1.91,-1.71,-1.90,-1.11,-1.13,-1.13
201.18,0.80,1.98,0.79,1.96,-1.96,-1.76,-1.96,-1.16,-1.17,-1.18
203.19,0.80,2.01,0.79,2.00,-2.00,-1.81,-2.03,-1.20,-1.21,-1.21
205.23,0.80,2.04,0.79,2.04,-2.04,-1.87,-2.10,-1.24,-1.25,-1.24
207.28,0.80,2.08,0.80,2.08,-2.08,-1.92,-2.16,-1.28,-1.29,-1.28
209.35,0.80,2.12,0.80,2.12,-2.12,-1.98,-2.23,-1.32,-1.33,-1.32
211.44,0.80,2.16,0.80,2.16,-2.16,-2.03,-2.29,-1.36,-1.36,-1.36
213.56,0.80,2.19,0.80,2.20,-2.20,-2.09,-2.36,-1.40,-1.40,-1.39
215.69,0.80,2.22,0.80,2.23,-2.23,-2.14,-2.42,-1.43,-1.43,-1.42
217.85,0.80,2.26,0.80,2.26,-2.26,-2.19,-2.48,-1.46,-1.46,-1.46
220.03,0.80,2.29,0.80,2.29,-2.29,-2.24,-2.54,-1.49,-1.49,-1.49
222.23,0.80,2.33,0.80,2.32,-2.32,-2.29,-2.60,-1.52,-1.52,-1.53
224.45,0.80,2.35,0.80,2.35,-2.35,-2.34,-2.65,-1.55,-1.55,-1.55
226.70,0.80,2.38,0.80,2.38,-2.38,-2.39,-2.70,-1.58,-1.58,-1.58
228.96,0.80,2.39,0.80,2.40,-2.40,-2.44,-2.75,-1.60,-1.60,-1.59
231.25,0.80,2.43,0.80,2.42,-2.42,-2.48,-2.80,-1.62,-1.62,-1.62
233.57,0.80,2.45,0.80,2.44,-2.44,-2.52,-2.84,-1.64,-1.65,-1.65
235.90,0.80,2.47,0.80,2.46,-2.46,-2.56,-2.87,-1.66,-1.66,-1.66
238.26,0.80,2.49,0.80,2.48,-2.48,-2.60,-2.91,-1.68,-1.68,-1.69
240.64,0.80,2.49,0.80,2.50,-2.50,-2.63,-2.93,-1.70,-1.70,-1.69
243.05,0.80,2.51,0.80,2.51,-2.51,-2.66,-2.96,-1.71,-1.71,-1.71
245.48,0.80,2.53,0.80,2.53,-2.53,-2.69,-2.97,-1.72,-1.72,-1.73
247.93,0.80,2.54,0.81,2.54,-2.54,-2.72,-2.99,-1.74,-1.73,-1.74
250.41,0.80,2.54,0.81,2.55,-2.55,-2.74,-2.99,-1.75,-1.74,-1.74
252.92,0.80,2.54,0.81,2.56,-2.56,-2.76,-3.00,-1.76,-1.75,-1.74
255.45,0.80,2.56,0.82,2.57,-2.57,-2.78,-2.99,-1.77,-1.76,-1.76
258.00,0.81,2.57,0.82,2.58,-2.58,-2.79,-2.99,-1.77,-1.76,-1.76
260.58,0.82,2.59,0.82,2.59,-2.59,-2.80,-2.97,-1.77,-1.77,-1.77
263.19,0.83,2.60,0.82,2.59,-2.59,-2.80,-2.96,-1.76,-1.78,-1.77
265.82,0.83,2.61,0.81,2.59,-2.59,-2.81,-2.93,-1.76,-1.78,-1.78
268.48,0.82,2.60,0.80,2.59,-2.59,-2.80,-2.91,-1.77,-1.79,-1.78
271.16,0.81,2.60,0.79,2.59,-2.59,-2.80,-2.88,-1.78,-1.79,-1.79
273.87,0.79,2.59,0.78,2.58,-2.58,-2.79,-2.84,-1.78,-1.80,-1.80
276.61,0.77,2.57,0.76,2.56,-2.56,-2.78,-2.81,-1.79,-1.80,-1.80
279.38,0.74,2.56,0.74,2.54,-2.54,-2.76,-2.77,-1.80,-1.80,-1.82
282.17,0.72,2.54,0.71,2.52,-2.52,-2.74,-2.72,-1.80,-1.81,-1.82
284.99,0.69,2.50,0.69,2.49,-2.49,-2.72,-2.68,-1.80,-1.81,-1.81
287.84,0.66,2.47,0.66,2.47,-2.47,-2.70,-2.63,-1.80,-1.81,-1.81
290.72,0.62,2.44,0.63,2.43,-2.43,-2.67,-2.58,-1.81,-1.81,-1.82
293.63,0.59,2.40,0.60,2.40,-2.40,-2.64,-2.53,-1.81,-1.81,-1.81
296.57,0.56,2.36,0.57,2.37,-2.37,-2.61,-2.48,-1.81,-1.81,-1.80
299.53,0.54,2.34,0.54,2.34,-2.34,-2.58,-2.43,-1.80,-1.80,-1.80
302.53,0.51,2.30,0.52,2.32,-2.32,-2.54,-2.37,-1.81,-1.80,-1.79
305.55,0.49,2.29,0.50,2.30,-2.30,-2.51,-2.32,-1.81,-1.79,-1.80
308.61,0.47,2.26,0.49,2.28,-2.28,-2.47,-2.27,-1.81,-1.79,-1.78
311.69,0.46,2.24,0.48,2.26,-2.26,-2.43,-2.21,-1.80,-1.78,-1.78
314.81,0.45,2.23,0.47,2.25,-2.25,-2.39,-2.16,-1.80,-1.78,-1.78
317.96,0.46,2.24,0.47,2.24,-2.24,-2.35,-2.11,-1.78,-1.77,-1.78
321.14,0.46,2.22,0.47,2.24,-2.24,-2.30,-2.05,-1.78,-1.77,-1.76
324.35,0.47,2.24,0.48,2.24,-2.24,-2.26,-2.00,-1.77,-1.76,-1.77
327.59,0.48,2.22,0.48,2.23,-2.23,-2.22,-1.95,-1.75,-1.75,-1.74
330.87,0.49,2.24,0.48,2.23,-2.23,-2.17,-1.90,-1.74,-1.75,-1.75
334.18,0.50,2.24,0.48,2.23,-2.23,-2.13,-1.85,-1.73,-1.74,-1.74
337.52,0.50,2.24,0.48,2.22,-2.22,-2.09,-1.81,-1.72,-1.74,-1.74
340.90,0.50,2.22,0.48,2.21,-2.21,-2.04,-1.76,-1.71,-1.73,-1.72
344.30,0.49,2.21,0.47,2.20,-2.20,-2.00,-1.71,-1.71,-1.72,-1.72
347.75,0.48,2.19,0.46,2.18,-2.18,-1.95,-1.67,-1.70,-1.72,-1.71
351.23,0.46,2.18,0.45,2.16,-2.16,-1.91,-1.63,-1.69,-1.71,-1.72
354.74,0.43,2.12,0.43,2.13,-2.13,-1.87,-1.59,-1.70,-1.70,-1.69
358.28,0.41,2.11,0.40,2.10,-2.10,-1.83,-1.55,-1.69,-1.69,-1.70
361.87,0.38,2.07,0.38,2.06,-2.06,-1.78,-1.51,-1.68,-1.69,-1.69
365.49,0.35,2.03,0.35,2.03,-2.03,-1.74,-1.47,-1.68,-1.68,-1.68
369.14,0.32,1.99,0.32,1.99,-1.99,-1.70,-1.43,-1.67,-1.67,-1.67
372.83,0.28,1.94,0.29,1.95,-1.95,-1.66,-1.40,-1.67,-1.67,-1.66
376.56,0.25,1.92,0.26,1.92,-1.92,-1.62,-1.36,-1.67,-1.66,-1.66
380.33,0.23,1.89,0.24,1.89,-1.89,-1.58,-1.33,-1.66,-1.65,-1.66
384.13,0.20,1.84,0.22,1.86,-1.86,-1.55,-1.30,-1.66,-1.64,-1.64
387.97,0.18,1.81,0.20,1.83,-1.83,-1.51,-1.27,-1.65,-1.63,-1.63
391.85,0.16,1.79,0.19,1.81,-1.81,-1.47,-1.24,-1.65,-1.62,-1.63
395.77,0.15,1.77,0.17,1.79,-1.79,-1.44,-1.21,-1.64,-1.62,-1.62
399.73,0.14,1.75,0.16,1.77,-1.77,-1.41,-1.19,-1.63,-1.61,-1.61
403.72,0.15,1.74,0.16,1.75,-1.75,-1.37,-1.16,-1.60,-1.60,-1.58
407.76,0.16,1.75,0.15,1.74,-1.74,-1.34,-1.14,-1.58,-1.59,-1.59
411.84,0.16,1.74,0.14,1.72,-1.72,-1.31,-1.11,-1.56,-1.58,-1.58
415.96,0.16,1.72,0.14,1.71,-1.71,-1.28,-1.09,-1.55,-1.57,-1.56
420.12,0.15,1.71,0.13,1.69,-1.69,-1.25,-1.07,-1.54,-1.56,-1.56
424.32,0.13,1.69,0.12,1.67,-1.67,-1.22,-1.05,-1.54,-1.55,-1.56
428.56,0.10,1.64,0.10,1.65,-1.65,-1.19,-1.03,-1.55,-1.55,-1.54
432.85,0.08,1.61,0.08,1.62,-1.62,-1.16,-1.01,-1.54,-1.54,-1.53
437.18,0.06,1.59,0.06,1.59,-1.59,-1.14,-0.99,-1.53,-1.53,-1.53
441.55,0.04,1.56,0.03,1.55,-1.55,-1.11,-0.97,-1.51,-1.52,-1.52
445.96,0.01,1.53,-0.01,1.51,-1.51,-1.08,-0.96,-1.50,-1.51,-1.52
450.42,-0.03,1.48,-0.04,1.46,-1.46,-1.06,-0.94,-1.49,-1.50,-1.51
454.93,-0.07,1.43,-0.08,1.41,-1.41,-1.04,-0.93,-1.48,-1.49,-1.50
459.48,-0.12,1.37,-0.12,1.36,-1.36,-1.01,-0.91,-1.48,-1.49,-1.49
464.07,-0.17,1.30,-0.17,1.31,-1.31,-0.99,-0.90,-1.48,-1.48,-1.47
468.71,-0.21,1.25,-0.21,1.26,-1.26,-0.97,-0.89,-1.47,-1.47,-1.46
473.40,-0.26,1.20,-0.25,1.21,-1.21,-0.95,-0.88,-1.47,-1.46,-1.45
478.13,-0.30,1.15,-0.29,1.16,-1.16,-0.93,-0.87,-1.46,-1.45,-1.45
482.91,-0.34,1.10,-0.32,1.11,-1.11,-0.91,-0.85,-1.45,-1.44,-1.44
487.74,-0.37,1.06,-0.36,1.07,-1.07,-0.89,-0.84,-1.44,-1.43,-1.43
492.62,-0.40,1.02,-0.39,1.03,-1.03,-0.87,-0.84,-1.43,-1.42,-1.42
497.55,-0.42,0.99,-0.41,0.99,-0.99,-0.86,-0.83,-1.41,-1.41,-1.41
502.52,-0.44,0.96,-0.43,0.96,-0.96,-0.84,-0.82,-1.40,-1.40,-1.40
507.55,-0.46,0.92,-0.45,0.93,-0.93,-0.82,-0.81,-1.39,-1.38,-1.38
512.62,-0.48,0.89,-0.46,0.91,-0.91,-0.81,-0.80,-1.39,-1.37,-1.37
