frequency,raw,error,smoothed,error_smoothed,equalization,parametric_eq,fixed_band_eq,equalized_raw,equalized_smoothed,target
20.00,-8.23,-15.17,-8.35,-15.32,15.32,13.87,3.39,7.09,6.97,6.94
20.20,-8.05,-14.99,-8.09,-15.05,15.05,13.98,3.48,7.00,6.96,6.94
20.40,-7.87,-14.81,-7.82,-14.77,14.77,14.05,3.58,6.91,6.95,6.94
20.61,-7.65,-14.60,-7.57,-14.51,14.51,14.09,3.68,6.85,6.94,6.94
20.81,-7.40,-14.34,-7.31,-14.24,14.24,14.09,3.78,6.84,6.93,6.94
21.02,-7.14,-14.08,-7.06,-13.98,13.98,14.04,3.89,6.84,6.92,6.94
21.23,-6.85,-13.77,-6.81,-13.71,13.71,13.96,4.00,6.87,6.91,6.92
21.44,-6.56,-13.47,-6.56,-13.46,13.46,13.84,4.11,6.90,6.89,6.91
21.66,-6.29,-13.18,-6.32,-13.20,13.20,13.69,4.22,6.91,6.88,6.89
21.87,-6.03,-12.90,-6.08,-12.95,12.95,13.51,4.34,6.92,6.86,6.87
22.09,-5.78,-12.64,-5.85,-12.69,12.69,13.30,4.46,6.92,6.85,6.86
22.31,-5.56,-12.39,-5.62,-12.45,12.45,13.07,4.59,6.89,6.83,6.83
22.54,-5.35,-12.16,-5.38,-12.19,12.19,12.82,4.72,6.83,6.81,6.81
22.76,-5.14,-11.93,-5.15,-11.93,11.93,12.56,4.85,6.79,6.79,6.79
22.99,-4.95,-11.71,-4.92,-11.69,11.69,12.29,4.98,6.74,6.76,6.76
23.22,-4.75,-11.48,-4.71,-11.45,11.45,12.01,5.12,6.70,6.74,6.73
23.45,-4.54,-11.24,-4.50,-11.22,11.22,11.73,5.26,6.68,6.72,6.70
23.69,-4.33,-11.03,-4.30,-10.99,10.99,11.45,5.40,6.66,6.70,6.69
23.92,-4.11,-10.78,-4.10,-10.77,10.77,11.16,5.55,6.67,6.68,6.67
24.16,-3.89,-10.55,-3.90,-10.55,10.55,10.88,5.70,6.67,6.66,6.66
24.40,-3.69,-10.33,-3.70,-10.34,10.34,10.60,5.85,6.65,6.64,6.64
24.65,-3.49,-10.11,-3.50,-10.12,10.12,10.32,6.01,6.63,6.62,6.62
24.89,-3.29,-9.89,-3.31,-9.91,9.91,10.05,6.16,6.62,6.60,6.60
25.14,-3.11,-9.70,-3.12,-9.70,9.70,9.79,6.32,6.59,6.58,6.59
25.39,-2.92,-9.48,-2.92,-9.49,9.49,9.53,6.48,6.57,6.57,6.57
25.65,-2.74,-9.30,-2.74,-9.29,9.29,9.27,6.65,6.55,6.55,6.56
25.91,-2.56,-9.09,-2.55,-9.09,9.09,9.02,6.81,6.52,6.54,6.53
26.16,-2.38,-8.89,-2.37,-8.89,8.89,8.78,6.97,6.51,6.52,6.51
26.43,-2.20,-8.71,-2.20,-8.70,8.70,8.54,7.13,6.49,6.50,6.50
26.69,-2.02,-8.50,-2.02,-8.51,8.51,8.32,7.30,6.49,6.49,6.48
26.96,-1.85,-8.32,-1.85,-8.32,8.32,8.09,7.45,6.47,6.47,6.47
27.23,-1.68,-8.14,-1.68,-8.13,8.13,7.87,7.61,6.45,6.46,6.46
27.50,-1.52,-7.97,-1.51,-7.95,7.95,7.66,7.76,6.43,6.44,6.45
27.77,-1.35,-7.77,-1.35,-7.78,7.78,7.46,7.91,6.43,6.43,6.43
28.05,-1.18,-7.59,-1.19,-7.60,7.60,7.26,8.05,6.42,6.41,6.41
28.33,-1.02,-7.41,-1.03,-7.43,7.43,7.07,8.18,6.41,6.40,6.39
28.62,-0.86,-7.24,-0.87,-7.26,7.26,6.88,8.31,6.40,6.38,6.38
28.90,-0.71,-7.08,-0.72,-7.09,7.09,6.70,8.42,6.38,6.37,6.37
29.19,-0.56,-6.91,-0.56,-6.92,6.92,6.52,8.52,6.36,6.36,6.35
29.48,-0.41,-6.75,-0.41,-6.75,6.75,6.35,8.61,6.35,6.34,6.35
29.78,-0.27,-6.61,-0.26,-6.59,6.59,6.18,8.69,6.32,6.33,6.33
30.08,-0.13,-6.45,-0.11,-6.42,6.42,6.02,8.75,6.29,6.31,6.32
30.38,0.01,-6.29,0.04,-6.26,6.26,5.86,8.80,6.26,6.30,6.30
30.68,0.17,-6.12,0.19,-6.09,6.09,5.71,8.82,6.26,6.28,6.29
30.99,0.34,-5.93,0.34,-5.93,5.93,5.56,8.83,6.27,6.27,6.27
31.30,0.49,-5.76,0.49,-5.76,5.76,5.41,8.83,6.25,6.25,6.25
31.61,0.65,-5.59,0.63,-5.60,5.60,5.27,8.80,6.25,6.23,6.24
31.93,0.79,-5.43,0.78,-5.43,5.43,5.13,8.76,6.22,6.21,6.22
32.24,0.92,-5.26,0.92,-5.27,5.27,5.00,8.70,6.20,6.19,6.18
32.57,1.06,-5.11,1.06,-5.12,5.12,4.87,8.62,6.17,6.17,6.17
32.89,1.19,-4.97,1.19,-4.96,4.96,4.75,8.53,6.15,6.15,6.16
33.22,1.33,-4.80,1.32,-4.81,4.81,4.62,8.43,6.14,6.13,6.13
33.55,1.45,-4.66,1.44,-4.67,4.67,4.50,8.31,6.12,6.11,6.11
33.89,1.57,-4.52,1.56,-4.53,4.53,4.39,8.18,6.10,6.09,6.09
34.23,1.69,-4.38,1.66,-4.40,4.40,4.27,8.04,6.09,6.07,6.07
34.57,1.79,-4.25,1.77,-4.28,4.28,4.16,7.88,6.07,6.05,6.04
34.92,1.88,-4.14,1.87,-4.15,4.15,4.06,7.72,6.03,6.02,6.02
35.27,1.97,-4.04,1.97,-4.04,4.04,3.95,7.56,6.00,6.00,6.01
35.62,2.05,-3.93,2.06,-3.92,3.92,3.85,7.39,5.97,5.98,5.98
35.97,2.14,-3.82,2.16,-3.80,3.80,3.75,7.21,5.94,5.96,5.96
36.33,2.23,-3.71,2.25,-3.69,3.69,3.65,7.03,5.92,5.94,5.94
36.70,2.32,-3.60,2.34,-3.58,3.58,3.56,6.85,5.90,5.92,5.92
37.06,2.41,-3.48,2.43,-3.47,3.47,3.46,6.66,5.88,5.90,5.89
37.43,2.51,-3.37,2.51,-3.36,3.36,3.37,6.47,5.87,5.87,5.88
37.81,2.60,-3.25,2.60,-3.25,3.25,3.28,6.29,5.85,5.85,5.85
38.19,2.70,-3.13,2.69,-3.14,3.14,3.20,6.10,5.84,5.83,5.83
38.57,2.79,-3.02,2.79,-3.02,3.02,3.11,5.92,5.81,5.81,5.81
38.95,2.88,-2.91,2.88,-2.91,2.91,3.03,5.73,5.79,5.79,5.79
39.34,2.96,-2.80,2.96,-2.80,2.80,2.95,5.55,5.76,5.77,5.76
39.74,3.05,-2.69,3.05,-2.70,2.70,2.87,5.36,5.75,5.75,5.74
40.14,3.13,-2.60,3.14,-2.59,2.59,2.79,5.18,5.72,5.73,5.73
40.54,3.21,-2.49,3.22,-2.49,2.49,2.71,5.01,5.70,5.71,5.70
40.94,3.30,-2.39,3.30,-2.39,2.39,2.64,4.83,5.69,5.69,5.69
41.35,3.39,-2.27,3.38,-2.29,2.29,2.57,4.66,5.68,5.67,5.66
41.76,3.47,-2.18,3.45,-2.19,2.19,2.49,4.49,5.67,5.65,5.65
42.18,3.53,-2.11,3.52,-2.10,2.10,2.42,4.32,5.63,5.63,5.64
42.60,3.59,-2.02,3.59,-2.02,2.02,2.36,4.15,5.61,5.61,5.61
43.03,3.64,-1.96,3.66,-1.93,1.93,2.29,3.99,5.57,5.59,5.60
43.46,3.71,-1.86,3.72,-1.85,1.85,2.22,3.83,5.56,5.57,5.57
43.90,3.78,-1.76,3.77,-1.77,1.77,2.16,3.67,5.55,5.55,5.54
44.33,3.84,-1.68,3.83,-1.70,1.70,2.09,3.51,5.54,5.53,5.52
44.78,3.88,-1.62,3.87,-1.63,1.63,2.03,3.36,5.51,5.51,5.50
45.23,3.92,-1.56,3.92,-1.57,1.57,1.97,3.21,5.49,5.49,5.47
45.68,3.95,-1.50,3.95,-1.51,1.51,1.91,3.06,5.46,5.46,5.45
46.13,3.99,-1.44,3.99,-1.45,1.45,1.85,2.92,5.44,5.44,5.43
46.60,4.03,-1.39,4.02,-1.40,1.40,1.79,2.77,5.43,5.42,5.42
47.06,4.07,-1.33,4.05,-1.34,1.34,1.73,2.63,5.41,5.40,5.40
47.53,4.09,-1.29,4.08,-1.29,1.29,1.67,2.49,5.38,5.37,5.38
48.01,4.10,-1.27,4.11,-1.24,1.24,1.62,2.36,5.34,5.35,5.37
48.49,4.12,-1.22,4.13,-1.20,1.20,1.56,2.22,5.32,5.33,5.34
48.97,4.13,-1.17,4.15,-1.15,1.15,1.51,2.09,5.28,5.30,5.30
49.46,4.15,-1.12,4.17,-1.11,1.11,1.45,1.96,5.26,5.28,5.27
49.96,4.17,-1.07,4.19,-1.07,1.07,1.40,1.83,5.24,5.25,5.24
50.46,4.20,-1.03,4.20,-1.03,1.03,1.35,1.71,5.23,5.23,5.23
50.96,4.22,-0.99,4.22,-0.98,0.98,1.29,1.58,5.20,5.20,5.21
51.47,4.23,-0.94,4.23,-0.95,0.95,1.24,1.46,5.18,5.18,5.17
51.99,4.25,-0.89,4.24,-0.91,0.91,1.19,1.35,5.16,5.15,5.14
52.51,4.25,-0.88,4.24,-0.88,0.88,1.14,1.23,5.13,5.12,5.13
53.03,4.26,-0.84,4.25,-0.85,0.85,1.09,1.12,5.11,5.10,5.10
53.56,4.27,-0.80,4.25,-0.81,0.81,1.04,1.00,5.08,5.07,5.07
54.10,4.27,-0.78,4.26,-0.78,0.78,0.99,0.90,5.05,5.04,5.05
54.64,4.25,-0.77,4.26,-0.76,0.76,0.95,0.79,5.01,5.02,5.02
55.18,4.25,-0.74,4.26,-0.73,0.73,0.90,0.69,4.98,4.99,4.99
55.74,4.24,-0.72,4.25,-0.71,0.71,0.85,0.59,4.95,4.96,4.96
56.29,4.22,-0.72,4.24,-0.70,0.70,0.80,0.49,4.92,4.93,4.94
56.86,4.20,-0.70,4.22,-0.68,0.68,0.76,0.39,4.88,4.91,4.90
57.42,4.18,-0.69,4.21,-0.67,0.67,0.71,0.30,4.85,4.88,4.87
58.00,4.19,-0.66,4.18,-0.67,0.67,0.67,0.21,4.86,4.85,4.85
58.58,4.20,-0.62,4.16,-0.66,0.66,0.62,0.13,4.86,4.82,4.82
59.16,4.20,-0.59,4.13,-0.66,0.66,0.58,0.05,4.86,4.79,4.79
59.76,4.13,-0.64,4.10,-0.66,0.66,0.53,-0.03,4.79,4.76,4.77
60.35,4.07,-0.66,4.06,-0.66,0.66,0.49,-0.10,4.73,4.73,4.73
60.96,4.02,-0.69,4.03,-0.67,0.67,0.44,-0.17,4.69,4.70,4.71
61.57,4.00,-0.67,3.99,-0.67,0.67,0.40,-0.24,4.67,4.66,4.67
62.18,3.96,-0.67,3.96,-0.67,0.67,0.36,-0.30,4.63,4.63,4.63
62.80,3.91,-0.69,3.93,-0.67,0.67,0.31,-0.36,4.58,4.60,4.60
63.43,3.87,-0.69,3.90,-0.67,0.67,0.27,-0.42,4.54,4.57,4.56
64.07,3.86,-0.67,3.88,-0.66,0.66,0.23,-0.47,4.52,4.54,4.53
64.71,3.85,-0.66,3.86,-0.65,0.65,0.19,-0.52,4.50,4.51,4.51
65.35,3.83,-0.64,3.85,-0.63,0.63,0.15,-0.56,4.46,4.48,4.47
66.01,3.81,-0.64,3.85,-0.60,0.60,0.10,-0.61,4.41,4.45,4.45
66.67,3.82,-0.59,3.86,-0.56,0.56,0.06,-0.65,4.38,4.41,4.41
67.33,3.85,-0.54,3.87,-0.51,0.51,0.02,-0.68,4.36,4.38,4.39
68.01,3.88,-0.47,3.89,-0.46,0.46,-0.02,-0.72,4.34,4.35,4.35
68.69,3.92,-0.41,3.91,-0.41,0.41,-0.06,-0.75,4.33,4.32,4.33
69.37,3.95,-0.34,3.94,-0.35,0.35,-0.10,-0.78,4.30,4.29,4.29
70.07,3.98,-0.28,3.97,-0.28,0.28,-0.14,-0.81,4.26,4.26,4.26
70.77,4.02,-0.21,4.01,-0.22,0.22,-0.18,-0.83,4.24,4.22,4.23
71.48,4.06,-0.13,4.04,-0.15,0.15,-0.23,-0.86,4.21,4.19,4.19
72.19,4.07,-0.08,4.07,-0.08,0.08,-0.27,-0.88,4.15,4.15,4.15
72.91,4.11,-0.00,4.09,-0.02,0.02,-0.31,-0.90,4.13,4.11,4.11
73.64,4.13,0.06,4.12,0.05,-0.05,-0.35,-0.92,4.08,4.07,4.07
74.38,4.16,0.13,4.14,0.11,-0.11,-0.39,-0.94,4.05,4.03,4.03
75.12,4.17,0.19,4.16,0.17,-0.17,-0.43,-0.96,4.00,3.98,3.98
75.87,4.18,0.24,4.17,0.23,-0.23,-0.47,-0.98,3.95,3.94,3.94
76.63,4.18,0.28,4.19,0.29,-0.29,-0.51,-1.00,3.89,3.90,3.90
77.40,4.19,0.34,4.20,0.35,-0.35,-0.55,-1.02,3.84,3.85,3.85
78.17,4.20,0.41,4.21,0.41,-0.41,-0.59,-1.04,3.79,3.80,3.79
78.95,4.21,0.45,4.22,0.47,-0.47,-0.62,-1.06,3.74,3.75,3.76
79.74,4.22,0.51,4.23,0.53,-0.53,-0.66,-1.08,3.69,3.70,3.71
80.54,4.23,0.57,4.24,0.59,-0.59,-0.70,-1.10,3.64,3.65,3.66
81.35,4.25,0.65,4.25,0.65,-0.65,-0.74,-1.12,3.60,3.60,3.60
82.16,4.25,0.70,4.26,0.71,-0.71,-0.78,-1.15,3.54,3.55,3.55
82.98,4.26,0.76,4.26,0.76,-0.76,-0.82,-1.17,3.50,3.50,3.50
83.81,4.26,0.83,4.26,0.82,-0.82,-0.86,-1.19,3.44,3.44,3.43
84.65,4.26,0.88,4.26,0.87,-0.87,-0.90,-1.22,3.39,3.38,3.38
85.50,4.27,0.94,4.25,0.93,-0.93,-0.94,-1.24,3.34,3.33,3.33
86.35,4.27,1.00,4.24,0.97,-0.97,-0.98,-1.27,3.30,3.27,3.27
87.22,4.25,1.04,4.23,1.02,-1.02,-1.02,-1.30,3.23,3.21,3.21
88.09,4.23,1.08,4.22,1.06,-1.06,-1.06,-1.33,3.17,3.15,3.15
88.97,4.20,1.10,4.20,1.10,-1.10,-1.09,-1.36,3.10,3.09,3.10
89.86,4.17,1.13,4.17,1.14,-1.14,-1.13,-1.39,3.03,3.03,3.04
90.76,4.14,1.18,4.14,1.17,-1.17,-1.17,-1.43,2.97,2.97,2.96
91.66,4.11,1.20,4.12,1.20,-1.20,-1.21,-1.46,2.91,2.91,2.91
92.58,4.08,1.24,4.09,1.24,-1.24,-1.25,-1.49,2.84,2.85,2.84
93.51,4.05,1.26,4.06,1.27,-1.27,-1.29,-1.53,2.78,2.79,2.79
94.44,4.03,1.30,4.03,1.31,-1.31,-1.33,-1.57,2.72,2.72,2.73
95.39,4.00,1.34,4.00,1.34,-1.34,-1.36,-1.61,2.66,2.65,2.66
96.34,3.97,1.38,3.97,1.38,-1.38,-1.40,-1.65,2.59,2.59,2.59
97.30,3.94,1.42,3.95,1.43,-1.43,-1.44,-1.69,2.51,2.52,2.52
98.28,3.91,1.46,3.93,1.48,-1.48,-1.48,-1.73,2.43,2.45,2.46
99.26,3.89,1.51,3.91,1.53,-1.53,-1.51,-1.77,2.36,2.38,2.38
100.25,3.88,1.57,3.89,1.58,-1.58,-1.55,-1.82,2.30,2.31,2.31
101.25,3.87,1.63,3.87,1.63,-1.63,-1.59,-1.86,2.24,2.24,2.24
102.27,3.86,1.69,3.86,1.69,-1.69,-1.63,-1.90,2.17,2.17,2.17
103.29,3.85,1.76,3.84,1.75,-1.75,-1.66,-1.95,2.10,2.10,2.09
104.32,3.84,1.82,3.83,1.81,-1.81,-1.70,-1.99,2.03,2.02,2.02
105.37,3.83,1.88,3.82,1.87,-1.87,-1.74,-2.04,1.96,1.95,1.95
106.42,3.81,1.93,3.81,1.93,-1.93,-1.78,-2.08,1.88,1.87,1.88
107.48,3.79,1.99,3.80,2.00,-2.00,-1.81,-2.13,1.79,1.80,1.80
108.56,3.78,2.06,3.78,2.06,-2.06,-1.85,-2.17,1.72,1.72,1.72
109.64,3.76,2.12,3.77,2.13,-2.13,-1.88,-2.22,1.63,1.64,1.64
110.74,3.75,2.18,3.76,2.19,-2.19,-1.92,-2.26,1.56,1.57,1.57
111.85,3.73,2.23,3.74,2.25,-2.25,-1.96,-2.30,1.48,1.49,1.50
112.97,3.72,2.32,3.72,2.31,-2.31,-1.99,-2.34,1.41,1.41,1.40
114.10,3.70,2.37,3.70,2.36,-2.36,-2.03,-2.38,1.34,1.33,1.33
115.24,3.68,2.42,3.67,2.42,-2.42,-2.06,-2.41,1.26,1.26,1.26
116.39,3.66,2.49,3.64,2.46,-2.46,-2.10,-2.45,1.20,1.18,1.17
117.55,3.62,2.52,3.61,2.51,-2.51,-2.13,-2.48,1.11,1.10,1.10
118.73,3.59,2.57,3.58,2.55,-2.55,-2.16,-2.51,1.04,1.03,1.02
119.92,3.55,2.59,3.54,2.58,-2.58,-2.20,-2.53,0.97,0.96,0.96
121.12,3.51,2.63,3.50,2.61,-2.61,-2.23,-2.56,0.90,0.88,0.88
122.33,3.45,2.64,3.45,2.64,-2.64,-2.26,-2.58,0.81,0.81,0.81
123.55,3.40,2.65,3.40,2.66,-2.66,-2.30,-2.60,0.74,0.74,0.75
124.79,3.35,2.67,3.35,2.68,-2.68,-2.33,-2.61,0.67,0.67,0.68
126.03,3.29,2.68,3.30,2.69,-2.69,-2.36,-2.62,0.60,0.60,0.61
127.29,3.24,2.70,3.24,2.71,-2.71,-2.39,-2.63,0.53,0.54,0.54
128.57,3.18,2.72,3.19,2.72,-2.72,-2.42,-2.64,0.46,0.47,0.46
129.85,3.13,2.73,3.13,2.72,-2.72,-2.45,-2.64,0.41,0.41,0.40
131.15,3.08,2.73,3.08,2.73,-2.73,-2.48,-2.64,0.35,0.35,0.35
132.46,3.03,2.75,3.03,2.74,-2.74,-2.51,-2.64,0.29,0.29,0.28
133.79,2.98,2.75,2.98,2.75,-2.75,-2.54,-2.64,0.23,0.23,0.23
135.12,2.92,2.75,2.93,2.76,-2.76,-2.57,-2.63,0.16,0.17,0.17
136.48,2.87,2.75,2.89,2.76,-2.76,-2.59,-2.62,0.11,0.12,0.12
137.84,2.82,2.74,2.84,2.77,-2.77,-2.62,-2.61,0.05,0.07,0.08
139.22,2.78,2.77,2.80,2.77,-2.77,-2.65,-2.60,0.01,0.02,0.01
140.61,2.75,2.79,2.75,2.78,-2.78,-2.67,-2.59,-0.03,-0.02,-0.04
142.02,2.72,2.78,2.71,2.78,-2.78,-2.70,-2.57,-0.06,-0.06,-0.06
143.44,2.68,2.78,2.67,2.77,-2.77,-2.72,-2.56,-0.09,-0.11,-0.10
144.87,2.64,2.79,2.63,2.77,-2.77,-2.75,-2.54,-0.13,-0.15,-0.15
146.32,2.60,2.79,2.58,2.77,-2.77,-2.77,-2.53,-0.17,-0.18,-0.19
147.78,2.55,2.76,2.54,2.76,-2.76,-2.79,-2.51,-0.21,-0.22,-0.21
149.26,2.50,2.75,2.49,2.75,-2.75,-2.81,-2.50,-0.25,-0.26,-0.25
150.75,2.44,2.74,2.44,2.74,-2.74,-2.83,-2.48,-0.30,-0.29,-0.30
152.26,2.40,2.73,2.40,2.73,-2.73,-2.85,-2.46,-0.33,-0.33,-0.33
153.78,2.35,2.71,2.35,2.71,-2.71,-2.87,-2.45,-0.36,-0.36,-0.36
155.32,2.29,2.69,2.29,2.69,-2.69,-2.89,-2.44,-0.40,-0.40,-0.40
156.88,2.24,2.67,2.24,2.68,-2.68,-2.91,-2.43,-0.44,-0.43,-0.43
158.44,2.19,2.66,2.19,2.66,-2.66,-2.92,-2.41,-0.47,-0.47,-0.47
160.03,2.15,2.66,2.14,2.65,-2.65,-2.94,-2.41,-0.50,-0.50,-0.51
161.63,2.09,2.64,2.09,2.63,-2.63,-2.96,-2.40,-0.54,-0.54,-0.55
163.24,2.05,2.62,2.05,2.62,-2.62,-2.97,-2.39,-0.57,-0.57,-0.57
164.88,2.01,2.61,2.01,2.62,-2.62,-2.98,-2.39,-0.61,-0.61,-0.60
166.53,1.97,2.61,1.97,2.62,-2.62,-2.99,-2.38,-0.65,-0.64,-0.64
168.19,1.93,2.61,1.94,2.62,-2.62,-3.00,-2.38,-0.69,-0.68,-0.68
169.87,1.89,2.61,1.91,2.62,-2.62,-3.01,-2.38,-0.73,-0.72,-0.72
171.57,1.87,2.62,1.88,2.64,-2.64,-3.02,-2.38,-0.77,-0.75,-0.75
173.29,1.85,2.63,1.86,2.65,-2.65,-3.03,-2.39,-0.80,-0.79,-0.78
175.02,1.83,2.65,1.84,2.67,-2.67,-3.04,-2.39,-0.84,-0.83,-0.82
176.77,1.81,2.68,1.82,2.70,-2.70,-3.04,-2.40,-0.89,-0.87,-0.87
178.54,1.81,2.72,1.81,2.72,-2.72,-3.05,-2.41,-0.91,-0.91,-0.91
180.32,1.81,2.76,1.80,2.75,-2.75,-3.05,-2.42,-0.94,-0.95,-0.95
182.13,1.79,2.78,1.78,2.77,-2.77,-3.06,-2.44,-0.98,-0.99,-0.99
183.95,1.78,2.81,1.77,2.80,-2.80,-3.06,-2.45,-1.02,-1.03,-1.03
185.79,1.77,2.84,1.76,2.83,-2.83,-3.06,-2.47,-1.06,-1.07,-1.07
187.65,1.76,2.88,1.75,2.86,-2.86,-3.06,-2.49,-1.09,-1.11,-1.12
189.52,1.74,2.89,1.74,2.88,-2.88,-3.06,-2.51,-1.14,-1.14,-1.15
191.42,1.73,2.91,1.72,2.90,-2.90,-3.05,-2.53,-1.17,-1.18,-1.18
193.33,1.71,2.92,1.70,2.92,-2.92,-3.05,-2.56,-1.21,-1.21,-1.21
195.27,1.68,2.92,1.69,2.94,-2.94,-3.05,-2.58,-1.26,-1.25,-1.24
197.22,1.66,2.93,1.67,2.95,-2.95,-3.04,-2.61,-1.29,-1.28,-1.27
199.19,1.65,2.97,1.65,2.95,-2.95,-3.03,-2.64,-1.30,-1.31,-1.32
201.18,1.63,2.97,1.62,2.96,-2.96,-3.03,-2.67,-1.33,-1.34,-1.34
203.19,1.60,2.96,1.60,2.97,-2.97,-3.02,-2.70,-1.37,-1.36,-1.36
205.23,1.58,2.97,1.58,2.97,-2.97,-3.01,-2.73,-1.39,-1.39,-1.39
207.28,1.57,2.97,1.56,2.97,-2.97,-3.00,-2.76,-1.40,-1.41,-1.40
209.35,1.54,2.98,1.54,2.97,-2.97,-2.99,-2.79,-1.43,-1.44,-1.44
211.44,1.52,2.98,1.52,2.97,-2.97,-2.97,-2.82,-1.45,-1.46,-1.46
213.56,1.49,2.97,1.49,2.97,-2.97,-2.96,-2.85,-1.48,-1.48,-1.48
215.69,1.47,2.96,1.48,2.97,-2.97,-2.94,-2.88,-1.50,-1.50,-1.49
217.85,1.45,2.95,1.46,2.97,-2.97,-2.93,-2.91,-1.52,-1.51,-1.50
220.03,1.44,2.97,1.44,2.97,-2.97,-2.91,-2.94,-1.53,-1.52,-1.53
222.23,1.43,2.97,1.43,2.96,-2.96,-2.89,-2.97,-1.53,-1.53,-1.54
224.45,1.42,2.96,1.42,2.96,-2.96,-2.87,-2.99,-1.54,-1.54,-1.54
226.70,1.40,2.95,1.41,2.96,-2.96,-2.86,-3.02,-1.56,-1.55,-1.55
228.96,1.40,2.95,1.41,2.95,-2.95,-2.83,-3.04,-1.55,-1.55,-1.55
231.25,1.39,2.94,1.40,2.95,-2.95,-2.81,-3.05,-1.56,-1.55,-1.55
233.57,1.39,2.93,1.40,2.94,-2.94,-2.79,-3.07,-1.55,-1.54,-1.54
235.90,1.39,2.93,1.40,2.94,-2.94,-2.77,-3.08,-1.55,-1.54,-1.54
238.26,1.40,2.94,1.39,2.93,-2.93,-2.74,-3.09,-1.53,-1.53,-1.54
240.64,1.39,2.91,1.39,2.91,-2.91,-2.72,-3.09,-1.52,-1.52,-1.52
243.05,1.40,2.91,1.39,2.90,-2.90,-2.69,-3.09,-1.50,-1.51,-1.51
245.48,1.39,2.88,1.38,2.88,-2.88,-2.67,-3.09,-1.49,-1.50,-1.49
247.93,1.39,2.87,1.38,2.86,-2.86,-2.64,-3.08,-1.47,-1.48,-1.48
250.41,1.39,2.86,1.37,2.83,-2.83,-2.61,-3.07,-1.44,-1.46,-1.47
252.92,1.38,2.82,1.36,2.81,-2.81,-2.58,-3.05,-1.43,-1.45,-1.44
255.45,1.35,2.77,1.35,2.78,-2.78,-2.55,-3.03,-1.43,-1.43,-1.42
258.00,1.34,2.74,1.34,2.75,-2.75,-2.52,-3.00,-1.41,-1.41,-1.40
260.58,1.33,2.72,1.33,2.72,-2.72,-2.49,-2.97,-1.39,-1.39,-1.39
263.19,1.30,2.66,1.32,2.68,-2.68,-2.46,-2.94,-1.38,-1.36,-1.36
265.82,1.29,2.63,1.31,2.65,-2.65,-2.43,-2.90,-1.36,-1.34,-1.34
268.48,1.28,2.60,1.30,2.62,-2.62,-2.39,-2.86,-1.34,-1.32,-1.32
271.16,1.28,2.57,1.29,2.58,-2.58,-2.36,-2.82,-1.30,-1.30,-1.29
273.87,1.27,2.54,1.28,2.55,-2.55,-2.32,-2.77,-1.28,-1.27,-1.27
276.61,1.26,2.50,1.27,2.52,-2.52,-2.29,-2.72,-1.26,-1.25,-1.24
279.38,1.26,2.49,1.26,2.48,-2.48,-2.25,-2.66,-1.22,-1.23,-1.23
282.17,1.25,2.45,1.25,2.45,-2.45,-2.22,-2.61,-1.20,-1.20,-1.20
284.99,1.24,2.42,1.24,2.41,-2.41,-2.18,-2.55,-1.17,-1.18,-1.18
287.84,1.23,2.38,1.22,2.37,-2.37,-2.14,-2.49,-1.14,-1.15,-1.15
290.72,1.22,2.34,1.21,2.33,-2.33,-2.11,-2.43,-1.11,-1.12,-1.12
293.63,1.20,2.30,1.19,2.29,-2.29,-2.07,-2.37,-1.09,-1.10,-1.10
296.57,1.18,2.25,1.17,2.24,-2.24,-2.03,-2.30,-1.06,-1.07,-1.07
299.53,1.15,2.19,1.15,2.18,-2.18,-1.99,-2.24,-1.03,-1.04,-1.04
302.53,1.12,2.14,1.12,2.13,-2.13,-1.95,-2.17,-1.01,-1.01,-1.02
305.55,1.09,2.06,1.09,2.07,-2.07,-1.91,-2.11,-0.98,-0.98,-0.97
308.61,1.06,2.01,1.06,2.00,-2.00,-1.87,-2.04,-0.94,-0.95,-0.95
311.69,1.03,1.94,1.02,1.93,-1.93,-1.83,-1.98,-0.90,-0.91,-0.91
314.81,0.99,1.87,0.98,1.87,-1.87,-1.79,-1.91,-0.88,-0.88,-0.88
317.96,0.94,1.79,0.94,1.80,-1.80,-1.75,-1.85,-0.86,-0.85,-0.85
321.14,0.90,1.72,0.90,1.72,-1.72,-1.71,-1.78,-0.82,-0.82,-0.82
324.35,0.85,1.65,0.86,1.65,-1.65,-1.66,-1.72,-0.80,-0.79,-0.80
327.59,0.81,1.57,0.82,1.58,-1.58,-1.62,-1.66,-0.77,-0.77,-0.76
330.87,0.77,1.50,0.77,1.51,-1.51,-1.58,-1.59,-0.74,-0.74,-0.73
334.18,0.73,1.45,0.73,1.45,-1.45,-1.54,-1.53,-0.72,-0.71,-0.72
337.52,0.69,1.38,0.69,1.38,-1.38,-1.49,-1.47,-0.69,-0.69,-0.69
340.90,0.65,1.31,0.65,1.32,-1.32,-1.45,-1.41,-0.67,-0.67,-0.66
344.30,0.61,1.26,0.61,1.25,-1.25,-1.41,-1.35,-0.64,-0.64,-0.65
347.75,0.57,1.19,0.57,1.20,-1.20,-1.36,-1.29,-0.63,-0.62,-0.62
351.23,0.54,1.14,0.54,1.14,-1.14,-1.32,-1.23,-0.60,-0.60,-0.60
354.74,0.50,1.08,0.50,1.09,-1.09,-1.28,-1.18,-0.59,-0.58,-0.58
358.28,0.46,1.03,0.47,1.03,-1.03,-1.23,-1.12,-0.57,-0.56,-0.57
361.87,0.44,0.99,0.44,0.98,-0.98,-1.19,-1.07,-0.54,-0.55,-0.55
365.49,0.41,0.93,0.41,0.94,-0.94,-1.14,-1.01,-0.53,-0.53,-0.52
369.14,0.38,0.89,0.38,0.89,-0.89,-1.10,-0.96,-0.51,-0.51,-0.51
372.83,0.35,0.84,0.36,0.84,-0.84,-1.05,-0.91,-0.49,-0.49,-0.49
376.56,0.34,0.82,0.33,0.80,-0.80,-1.01,-0.86,-0.46,-0.47,-0.48
380.33,0.31,0.76,0.31,0.76,-0.76,-0.96,-0.80,-0.45,-0.45,-0.45
384.13,0.29,0.72,0.29,0.72,-0.72,-0.92,-0.76,-0.43,-0.43,-0.43
387.97,0.27,0.68,0.27,0.68,-0.68,-0.87,-0.71,-0.41,-0.41,-0.41
391.85,0.25,0.64,0.26,0.65,-0.65,-0.83,-0.66,-0.40,-0.39,-0.39
395.77,0.24,0.61,0.25,0.62,-0.62,-0.79,-0.61,-0.38,-0.37,-0.37
399.73,0.23,0.58,0.23,0.58,-0.58,-0.74,-0.57,-0.35,-0.35,-0.35
403.72,0.22,0.55,0.22,0.55,-0.55,-0.70,-0.52,-0.33,-0.33,-0.33
407.76,0.21,0.52,0.21,0.52,-0.52,-0.65,-0.48,-0.31,-0.31,-0.31
411.84,0.20,0.48,0.20,0.49,-0.49,-0.61,-0.43,-0.29,-0.28,-0.28
415.96,0.20,0.46,0.20,0.46,-0.46,-0.56,-0.39,-0.26,-0.26,-0.26
420.12,0.19,0.43,0.19,0.43,-0.43,-0.52,-0.35,-0.24,-0.24,-0.24
424.32,0.18,0.39,0.18,0.40,-0.40,-0.47,-0.31,-0.22,-0.22,-0.21
428.56,0.17,0.37,0.17,0.36,-0.36,-0.43,-0.27,-0.19,-0.20,-0.20
432.85,0.16,0.34,0.16,0.33,-0.33,-0.39,-0.23,-0.17,-0.17,-0.18
437.18,0.15,0.30,0.15,0.29,-0.29,-0.34,-0.19,-0.14,-0.15,-0.15
441.55,0.14,0.26,0.13,0.26,-0.26,-0.30,-0.15,-0.12,-0.12,-0.12
445.96,0.12,0.22,0.12,0.21,-0.21,-0.26,-0.11,-0.09,-0.10,-0.10
450.42,0.11,0.19,0.10,0.17,-0.17,-0.22,-0.08,-0.06,-0.07,-0.08
454.93,0.08,0.12,0.08,0.13,-0.13,-0.17,-0.05,-0.05,-0.05,-0.04
459.48,0.07,0.09,0.06,0.08,-0.08,-0.13,-0.01,-0.01,-0.02,-0.02
464.07,0.04,0.03,0.04,0.03,-0.03,-0.09,0.02,0.01,0.01,0.01
468.71,0.02,-0.03,0.02,-0.01,0.01,-0.05,0.05,0.03,0.04,0.05
473.40,0.00,-0.06,0.00,-0.06,0.06,-0.01,0.08,0.06,0.06,0.06
478.13,-0.02,-0.11,-0.02,-0.11,0.11,0.03,0.11,0.09,0.09,0.09
482.91,-0.04,-0.16,-0.04,-0.16,0.16,0.07,0.14,0.12,0.12,0.12
487.74,-0.06,-0.21,-0.06,-0.21,0.21,0.11,0.16,0.15,0.15,0.15
492.62,-0.08,-0.26,-0.08,-0.26,0.26,0.15,0.19,0.18,0.18,0.18
497.55,-0.09,-0.29,-0.10,-0.30,0.30,0.18,0.21,0.21,0.21,0.20
502.52,-0.11,-0.35,-0.11,-0.35,0.35,0.22,0.23,0.24,0.23,0.24
507.55,-0.13,-0.39,-0.13,-0.39,0.39,0.26,0.26,0.26,0.26,0.26
