frequency,raw,error,smoothed,error_smoothed,equalization,parametric_eq,fixed_band_eq,equalized_raw,equalized_smoothed,target
20.00,-8.23,-14.04,-8.35,-14.18,14.18,13.14,2.86,5.95,5.83,5.81
20.20,-8.05,-13.86,-8.09,-13.91,13.91,13.46,2.94,5.86,5.82,5.81
20.40,-7.87,-13.68,-7.82,-13.64,13.64,13.73,3.02,5.77,5.82,5.81
20.61,-7.65,-13.46,-7.57,-13.37,13.37,13.94,3.11,5.72,5.81,5.81
20.81,-7.40,-13.21,-7.31,-13.11,13.11,14.08,3.20,5.71,5.80,5.81
21.02,-7.14,-12.95,-7.06,-12.84,12.84,14.14,3.29,5.70,5.79,5.81
21.23,-6.85,-12.64,-6.81,-12.58,12.58,14.11,3.38,5.73,5.77,5.79
21.44,-6.56,-12.34,-6.56,-12.32,12.32,14.00,3.48,5.77,5.76,5.78
21.66,-6.29,-12.05,-6.32,-12.07,12.07,13.82,3.58,5.77,5.75,5.76
21.87,-6.03,-11.76,-6.08,-11.82,11.82,13.57,3.68,5.79,5.73,5.74
22.09,-5.78,-11.51,-5.85,-11.56,11.56,13.26,3.78,5.79,5.72,5.73
22.31,-5.56,-11.26,-5.62,-11.32,11.32,12.91,3.89,5.76,5.70,5.70
22.54,-5.35,-11.03,-5.38,-11.06,11.06,12.53,4.00,5.70,5.68,5.68
22.76,-5.14,-10.80,-5.15,-10.80,10.80,12.14,4.11,5.66,5.65,5.66
22.99,-4.95,-10.58,-4.92,-10.56,10.56,11.73,4.22,5.60,5.63,5.63
23.22,-4.75,-10.35,-4.71,-10.32,10.32,11.32,4.34,5.57,5.61,5.60
23.45,-4.54,-10.11,-4.50,-10.09,10.09,10.91,4.46,5.55,5.59,5.57
23.69,-4.33,-9.89,-4.30,-9.86,9.86,10.51,4.59,5.53,5.57,5.56
23.92,-4.11,-9.65,-4.10,-9.64,9.64,10.12,4.71,5.54,5.55,5.54
24.16,-3.89,-9.42,-3.90,-9.42,9.42,9.73,4.84,5.54,5.53,5.53
24.40,-3.69,-9.20,-3.70,-9.21,9.21,9.36,4.97,5.52,5.51,5.51
24.65,-3.49,-8.98,-3.50,-8.99,8.99,9.00,5.10,5.50,5.49,5.49
24.89,-3.29,-8.76,-3.31,-8.78,8.78,8.66,5.23,5.49,5.47,5.47
25.14,-3.11,-8.57,-3.12,-8.57,8.57,8.32,5.36,5.46,5.45,5.46
25.39,-2.92,-8.36,-2.92,-8.36,8.36,8.00,5.50,5.44,5.44,5.44
25.65,-2.74,-8.17,-2.74,-8.16,8.16,7.69,5.63,5.42,5.42,5.43
25.91,-2.56,-7.96,-2.55,-7.96,7.96,7.40,5.77,5.39,5.41,5.40
26.16,-2.38,-7.77,-2.37,-7.76,7.76,7.12,5.90,5.39,5.39,5.39
26.43,-2.20,-7.58,-2.20,-7.57,7.57,6.85,6.04,5.37,5.37,5.38
26.69,-2.02,-7.37,-2.02,-7.38,7.38,6.59,6.17,5.36,5.36,5.35
26.96,-1.85,-7.19,-1.85,-7.19,7.19,6.34,6.30,5.34,5.34,5.34
27.23,-1.68,-7.01,-1.68,-7.01,7.01,6.10,6.43,5.32,5.33,5.33
27.50,-1.52,-6.84,-1.51,-6.83,6.83,5.87,6.55,5.30,5.31,5.32
27.77,-1.35,-6.65,-1.35,-6.65,6.65,5.65,6.67,5.30,5.30,5.30
28.05,-1.18,-6.47,-1.19,-6.47,6.47,5.44,6.78,5.30,5.29,5.29
28.33,-1.02,-6.29,-1.03,-6.30,6.30,5.24,6.88,5.28,5.27,5.27
28.62,-0.86,-6.12,-0.87,-6.13,6.13,5.04,6.98,5.27,5.26,5.26
28.90,-0.71,-5.95,-0.72,-5.96,5.96,4.85,7.07,5.26,5.25,5.24
29.19,-0.56,-5.78,-0.56,-5.80,5.80,4.68,7.14,5.24,5.23,5.22
29.48,-0.41,-5.63,-0.41,-5.63,5.63,4.50,7.21,5.22,5.22,5.22
29.78,-0.27,-5.48,-0.26,-5.47,5.47,4.34,7.26,5.19,5.21,5.21
30.08,-0.13,-5.33,-0.11,-5.30,5.30,4.18,7.30,5.17,5.19,5.20
30.38,0.01,-5.17,0.04,-5.13,5.13,4.03,7.33,5.14,5.18,5.18
30.68,0.17,-5.00,0.19,-4.97,4.97,3.88,7.35,5.14,5.16,5.17
30.99,0.34,-4.80,0.34,-4.81,4.81,3.74,7.35,5.14,5.14,5.14
31.30,0.49,-4.64,0.49,-4.64,4.64,3.60,7.33,5.13,5.13,5.13
31.61,0.65,-4.47,0.63,-4.48,4.48,3.47,7.31,5.13,5.11,5.12
31.93,0.79,-4.31,0.78,-4.31,4.31,3.34,7.26,5.10,5.09,5.10
32.24,0.92,-4.15,0.92,-4.15,4.15,3.22,7.21,5.08,5.07,5.07
32.57,1.06,-3.99,1.06,-4.00,4.00,3.10,7.13,5.06,5.05,5.05
32.89,1.19,-3.85,1.19,-3.84,3.84,2.99,7.05,5.03,5.03,5.04
33.22,1.33,-3.68,1.32,-3.69,3.69,2.88,6.96,5.02,5.01,5.01
33.55,1.45,-3.55,1.44,-3.55,3.55,2.77,6.85,5.00,4.99,5.00
33.89,1.57,-3.40,1.56,-3.42,3.42,2.67,6.73,4.99,4.97,4.97
34.23,1.69,-3.26,1.66,-3.29,3.29,2.57,6.61,4.98,4.95,4.95
34.57,1.79,-3.14,1.77,-3.16,3.16,2.48,6.47,4.95,4.93,4.93
34.92,1.88,-3.03,1.87,-3.04,3.04,2.38,6.33,4.92,4.91,4.91
35.27,1.97,-2.92,1.97,-2.92,2.92,2.29,6.18,4.89,4.89,4.89
35.62,2.05,-2.82,2.06,-2.81,2.81,2.21,6.03,4.86,4.87,4.87
35.97,2.14,-2.71,2.16,-2.69,2.69,2.12,5.87,4.83,4.85,4.85
36.33,2.23,-2.60,2.25,-2.58,2.58,2.04,5.71,4.81,4.83,4.83
36.70,2.32,-2.49,2.34,-2.47,2.47,1.96,5.55,4.79,4.81,4.81
37.06,2.41,-2.38,2.43,-2.36,2.36,1.89,5.38,4.77,4.79,4.79
37.43,2.51,-2.26,2.51,-2.25,2.25,1.81,5.21,4.76,4.77,4.77
37.81,2.60,-2.15,2.60,-2.14,2.14,1.74,5.04,4.74,4.74,4.75
38.19,2.70,-2.02,2.69,-2.03,2.03,1.67,4.87,4.73,4.72,4.72
38.57,2.79,-1.92,2.79,-1.92,1.92,1.60,4.70,4.71,4.70,4.71
38.95,2.88,-1.80,2.88,-1.81,1.81,1.53,4.53,4.69,4.68,4.68
39.34,2.96,-1.70,2.96,-1.70,1.70,1.47,4.36,4.66,4.66,4.66
39.74,3.05,-1.59,3.05,-1.59,1.59,1.41,4.19,4.64,4.65,4.64
40.14,3.13,-1.50,3.14,-1.49,1.49,1.35,4.03,4.62,4.63,4.63
40.54,3.21,-1.40,3.22,-1.39,1.39,1.29,3.86,4.60,4.61,4.61
40.94,3.30,-1.29,3.30,-1.29,1.29,1.23,3.70,4.59,4.59,4.59
41.35,3.39,-1.17,3.38,-1.19,1.19,1.17,3.53,4.58,4.57,4.56
41.76,3.47,-1.09,3.45,-1.10,1.10,1.11,3.37,4.57,4.55,4.56
42.18,3.53,-1.01,3.52,-1.01,1.01,1.06,3.21,4.54,4.53,4.54
42.60,3.59,-0.93,3.59,-0.92,0.92,1.01,3.06,4.51,4.51,4.52
43.03,3.64,-0.87,3.66,-0.84,0.84,0.96,2.90,4.48,4.49,4.51
43.46,3.71,-0.77,3.72,-0.76,0.76,0.91,2.75,4.47,4.48,4.48
43.90,3.78,-0.68,3.77,-0.68,0.68,0.86,2.59,4.46,4.46,4.46
44.33,3.84,-0.60,3.83,-0.61,0.61,0.81,2.44,4.45,4.44,4.44
44.78,3.88,-0.54,3.87,-0.55,0.55,0.76,2.30,4.43,4.42,4.42
45.23,3.92,-0.47,3.92,-0.49,0.49,0.71,2.15,4.41,4.40,4.39
45.68,3.95,-0.42,3.95,-0.43,0.43,0.67,2.00,4.38,4.38,4.37
46.13,3.99,-0.37,3.99,-0.37,0.37,0.62,1.86,4.36,4.36,4.36
46.60,4.03,-0.32,4.02,-0.32,0.32,0.58,1.72,4.35,4.34,4.35
47.06,4.07,-0.26,4.05,-0.27,0.27,0.53,1.58,4.34,4.32,4.33
47.53,4.09,-0.22,4.08,-0.22,0.22,0.49,1.44,4.31,4.30,4.31
48.01,4.10,-0.20,4.11,-0.17,0.17,0.45,1.31,4.27,4.28,4.30
48.49,4.12,-0.15,4.13,-0.13,0.13,0.41,1.17,4.25,4.26,4.27
48.97,4.13,-0.11,4.15,-0.09,0.09,0.37,1.04,4.22,4.24,4.24
49.46,4.15,-0.06,4.17,-0.05,0.05,0.33,0.91,4.20,4.22,4.21
49.96,4.17,-0.01,4.19,-0.01,0.01,0.29,0.78,4.18,4.19,4.18
50.46,4.20,0.03,4.20,0.03,-0.03,0.25,0.65,4.17,4.17,4.17
50.96,4.22,0.07,4.22,0.07,-0.07,0.21,0.53,4.15,4.15,4.15
51.47,4.23,0.11,4.23,0.11,-0.11,0.17,0.40,4.12,4.12,4.12
51.99,4.25,0.15,4.24,0.14,-0.14,0.14,0.28,4.11,4.10,4.10
52.51,4.25,0.17,4.24,0.17,-0.17,0.10,0.16,4.08,4.08,4.08
53.03,4.26,0.20,4.25,0.20,-0.20,0.06,0.04,4.06,4.05,4.06
53.56,4.27,0.24,4.25,0.23,-0.23,0.03,-0.07,4.04,4.03,4.03
54.10,4.27,0.26,4.26,0.25,-0.25,-0.01,-0.18,4.02,4.00,4.01
54.64,4.25,0.27,4.26,0.28,-0.28,-0.05,-0.29,3.97,3.98,3.98
55.18,4.25,0.29,4.26,0.30,-0.30,-0.08,-0.40,3.95,3.96,3.96
55.74,4.24,0.31,4.25,0.31,-0.31,-0.12,-0.50,3.93,3.93,3.93
56.29,4.22,0.31,4.24,0.33,-0.33,-0.15,-0.60,3.89,3.91,3.91
56.86,4.20,0.32,4.22,0.34,-0.34,-0.19,-0.69,3.86,3.89,3.88
57.42,4.18,0.32,4.21,0.34,-0.34,-0.22,-0.79,3.84,3.86,3.86
58.00,4.19,0.35,4.18,0.35,-0.35,-0.25,-0.87,3.84,3.84,3.84
58.58,4.20,0.39,4.16,0.35,-0.35,-0.29,-0.96,3.85,3.81,3.81
59.16,4.20,0.41,4.13,0.34,-0.34,-0.32,-1.04,3.85,3.78,3.79
59.76,4.13,0.36,4.10,0.34,-0.34,-0.35,-1.11,3.79,3.76,3.77
60.35,4.07,0.33,4.06,0.33,-0.33,-0.39,-1.19,3.74,3.73,3.74
60.96,4.02,0.30,4.03,0.32,-0.32,-0.42,-1.25,3.70,3.71,3.72
61.57,4.00,0.32,3.99,0.31,-0.31,-0.45,-1.31,3.69,3.68,3.68
62.18,3.96,0.31,3.96,0.31,-0.31,-0.49,-1.37,3.65,3.65,3.65
62.80,3.91,0.29,3.93,0.30,-0.30,-0.52,-1.42,3.61,3.63,3.62
63.43,3.87,0.28,3.90,0.30,-0.30,-0.55,-1.47,3.57,3.60,3.59
64.07,3.86,0.30,3.88,0.30,-0.30,-0.58,-1.52,3.56,3.57,3.56
64.71,3.85,0.31,3.86,0.31,-0.31,-0.62,-1.56,3.54,3.55,3.54
65.35,3.83,0.31,3.85,0.33,-0.33,-0.65,-1.59,3.50,3.52,3.52
66.01,3.81,0.31,3.85,0.35,-0.35,-0.68,-1.62,3.46,3.49,3.50
66.67,3.82,0.35,3.86,0.39,-0.39,-0.71,-1.65,3.43,3.47,3.47
67.33,3.85,0.40,3.87,0.43,-0.43,-0.75,-1.67,3.43,3.44,3.45
68.01,3.88,0.46,3.89,0.47,-0.47,-0.78,-1.69,3.41,3.42,3.42
68.69,3.92,0.52,3.91,0.52,-0.52,-0.81,-1.71,3.40,3.39,3.40
69.37,3.95,0.58,3.94,0.57,-0.57,-0.84,-1.73,3.38,3.37,3.37
70.07,3.98,0.64,3.97,0.63,-0.63,-0.88,-1.74,3.35,3.34,3.34
70.77,4.02,0.70,4.01,0.69,-0.69,-0.91,-1.75,3.33,3.31,3.32
71.48,4.06,0.77,4.04,0.75,-0.75,-0.94,-1.76,3.31,3.28,3.29
72.19,4.07,0.81,4.07,0.81,-0.81,-0.97,-1.77,3.26,3.25,3.26
72.91,4.11,0.89,4.09,0.87,-0.87,-1.01,-1.77,3.24,3.22,3.22
73.64,4.13,0.94,4.12,0.93,-0.93,-1.04,-1.78,3.20,3.19,3.19
74.38,4.16,1.00,4.14,0.99,-0.99,-1.07,-1.78,3.17,3.15,3.16
75.12,4.17,1.06,4.16,1.04,-1.04,-1.10,-1.78,3.13,3.12,3.11
75.87,4.18,1.10,4.17,1.09,-1.09,-1.14,-1.79,3.09,3.08,3.08
76.63,4.18,1.13,4.19,1.14,-1.14,-1.17,-1.79,3.04,3.04,3.05
77.40,4.19,1.18,4.20,1.20,-1.20,-1.20,-1.79,2.99,3.00,3.01
78.17,4.20,1.25,4.21,1.25,-1.25,-1.23,-1.80,2.95,2.96,2.95
78.95,4.21,1.28,4.22,1.30,-1.30,-1.27,-1.80,2.91,2.92,2.93
79.74,4.22,1.33,4.23,1.35,-1.35,-1.30,-1.80,2.87,2.88,2.89
80.54,4.23,1.39,4.24,1.40,-1.40,-1.33,-1.81,2.83,2.84,2.84
81.35,4.25,1.45,4.25,1.45,-1.45,-1.36,-1.82,2.80,2.80,2.80
82.16,4.25,1.50,4.26,1.50,-1.50,-1.40,-1.83,2.75,2.75,2.75
82.98,4.26,1.55,4.26,1.55,-1.55,-1.43,-1.83,2.71,2.71,2.71
83.81,4.26,1.61,4.26,1.60,-1.60,-1.46,-1.84,2.66,2.66,2.65
84.65,4.26,1.65,4.26,1.65,-1.65,-1.50,-1.86,2.61,2.61,2.61
85.50,4.27,1.70,4.25,1.69,-1.69,-1.53,-1.87,2.58,2.56,2.57
86.35,4.27,1.75,4.24,1.73,-1.73,-1.56,-1.88,2.54,2.52,2.52
87.22,4.25,1.78,4.23,1.76,-1.76,-1.59,-1.90,2.49,2.47,2.47
88.09,4.23,1.82,4.22,1.80,-1.80,-1.63,-1.92,2.43,2.42,2.41
88.97,4.20,1.83,4.20,1.83,-1.83,-1.66,-1.94,2.37,2.37,2.37
89.86,4.17,1.85,4.17,1.86,-1.86,-1.69,-1.96,2.31,2.32,2.32
90.76,4.14,1.88,4.14,1.88,-1.88,-1.73,-1.98,2.26,2.26,2.26
91.66,4.11,1.90,4.12,1.91,-1.91,-1.76,-2.01,2.20,2.21,2.21
92.58,4.08,1.93,4.09,1.93,-1.93,-1.79,-2.03,2.15,2.16,2.15
93.51,4.05,1.94,4.06,1.95,-1.95,-1.83,-2.06,2.10,2.10,2.11
94.44,4.03,1.97,4.03,1.98,-1.98,-1.86,-2.09,2.05,2.05,2.06
95.39,4.00,2.00,4.00,2.01,-2.01,-1.89,-2.12,1.99,1.99,2.00
96.34,3.97,2.04,3.97,2.04,-2.04,-1.93,-2.15,1.93,1.93,1.93
97.30,3.94,2.06,3.95,2.07,-2.07,-1.96,-2.18,1.87,1.88,1.88
98.28,3.91,2.09,3.93,2.11,-2.11,-1.99,-2.22,1.80,1.82,1.82
99.26,3.89,2.14,3.91,2.15,-2.15,-2.03,-2.25,1.74,1.76,1.75
100.25,3.88,2.18,3.89,2.19,-2.19,-2.06,-2.29,1.69,1.70,1.70
101.25,3.87,2.23,3.87,2.24,-2.24,-2.09,-2.33,1.63,1.64,1.64
102.27,3.86,2.29,3.86,2.29,-2.29,-2.13,-2.37,1.57,1.57,1.57
103.29,3.85,2.35,3.84,2.33,-2.33,-2.16,-2.41,1.52,1.51,1.50
104.32,3.84,2.39,3.83,2.39,-2.39,-2.19,-2.45,1.45,1.44,1.45
105.37,3.83,2.44,3.82,2.44,-2.44,-2.22,-2.49,1.39,1.38,1.39
106.42,3.81,2.49,3.81,2.49,-2.49,-2.26,-2.53,1.32,1.32,1.32
107.48,3.79,2.54,3.80,2.55,-2.55,-2.29,-2.56,1.24,1.25,1.25
108.56,3.78,2.60,3.78,2.60,-2.60,-2.32,-2.60,1.18,1.18,1.18
109.64,3.76,2.64,3.77,2.65,-2.65,-2.35,-2.64,1.11,1.12,1.12
110.74,3.75,2.69,3.76,2.71,-2.71,-2.38,-2.68,1.04,1.05,1.06
111.85,3.73,2.74,3.74,2.76,-2.76,-2.42,-2.72,0.97,0.98,0.99
112.97,3.72,2.81,3.72,2.81,-2.81,-2.45,-2.75,0.91,0.91,0.91
114.10,3.70,2.85,3.70,2.85,-2.85,-2.48,-2.78,0.85,0.85,0.85
115.24,3.68,2.90,3.67,2.89,-2.89,-2.51,-2.82,0.79,0.78,0.78
116.39,3.66,2.95,3.64,2.93,-2.93,-2.54,-2.85,0.73,0.71,0.71
117.55,3.62,2.98,3.61,2.96,-2.96,-2.57,-2.87,0.66,0.65,0.64
118.73,3.59,3.01,3.58,2.99,-2.99,-2.60,-2.90,0.60,0.58,0.58
119.92,3.55,3.03,3.54,3.02,-3.02,-2.63,-2.92,0.53,0.52,0.52
121.12,3.51,3.05,3.50,3.04,-3.04,-2.66,-2.94,0.47,0.46,0.46
122.33,3.45,3.06,3.45,3.06,-3.06,-2.69,-2.95,0.39,0.39,0.39
123.55,3.40,3.06,3.40,3.07,-3.07,-2.71,-2.97,0.33,0.33,0.34
124.79,3.35,3.07,3.35,3.08,-3.08,-2.74,-2.98,0.27,0.27,0.28
126.03,3.29,3.06,3.30,3.08,-3.08,-2.77,-2.98,0.21,0.22,0.23
127.29,3.24,3.07,3.24,3.08,-3.08,-2.79,-2.99,0.16,0.16,0.17
128.57,3.18,3.08,3.19,3.08,-3.08,-2.82,-2.99,0.10,0.10,0.10
129.85,3.13,3.08,3.13,3.08,-3.08,-2.85,-2.98,0.05,0.05,0.05
131.15,3.08,3.08,3.08,3.08,-3.08,-2.87,-2.98,-0.00,-0.00,-0.00
132.46,3.03,3.09,3.03,3.08,-3.08,-2.89,-2.97,-0.05,-0.05,-0.06
133.79,2.98,3.08,2.98,3.08,-3.08,-2.92,-2.96,-0.10,-0.10,-0.10
135.12,2.92,3.08,2.93,3.08,-3.08,-2.94,-2.95,-0.16,-0.15,-0.16
136.48,2.87,3.06,2.89,3.08,-3.08,-2.96,-2.93,-0.21,-0.19,-0.19
137.84,2.82,3.05,2.84,3.07,-3.07,-2.99,-2.91,-0.25,-0.23,-0.23
139.22,2.78,3.06,2.80,3.07,-3.07,-3.01,-2.89,-0.29,-0.27,-0.28
140.61,2.75,3.07,2.75,3.07,-3.07,-3.03,-2.87,-0.32,-0.31,-0.32
142.02,2.72,3.06,2.71,3.06,-3.06,-3.05,-2.85,-0.34,-0.34,-0.34
143.44,2.68,3.05,2.67,3.05,-3.05,-3.06,-2.83,-0.37,-0.38,-0.37
144.87,2.64,3.05,2.63,3.03,-3.03,-3.08,-2.81,-0.39,-0.41,-0.41
146.32,2.60,3.04,2.58,3.02,-3.02,-3.10,-2.78,-0.42,-0.44,-0.44
147.78,2.55,3.01,2.54,3.00,-3.00,-3.11,-2.76,-0.45,-0.47,-0.46
149.26,2.50,2.99,2.49,2.99,-2.99,-3.13,-2.74,-0.49,-0.50,-0.49
150.75,2.44,2.97,2.44,2.97,-2.97,-3.14,-2.72,-0.53,-0.53,-0.53
152.26,2.40,2.95,2.40,2.95,-2.95,-3.16,-2.69,-0.55,-0.55,-0.55
153.78,2.35,2.93,2.35,2.93,-2.93,-3.17,-2.67,-0.58,-0.58,-0.58
155.32,2.29,2.89,2.29,2.90,-2.90,-3.18,-2.65,-0.61,-0.61,-0.60
156.88,2.24,2.87,2.24,2.88,-2.88,-3.19,-2.63,-0.64,-0.63,-0.63
158.44,2.19,2.85,2.19,2.85,-2.85,-3.20,-2.61,-0.66,-0.66,-0.66
160.03,2.15,2.84,2.14,2.83,-2.83,-3.21,-2.60,-0.68,-0.69,-0.69
161.63,2.09,2.81,2.09,2.81,-2.81,-3.22,-2.58,-0.72,-0.72,-0.72
163.24,2.05,2.80,2.05,2.79,-2.79,-3.22,-2.57,-0.74,-0.74,-0.75
164.88,2.01,2.78,2.01,2.78,-2.78,-3.23,-2.56,-0.77,-0.77,-0.77
166.53,1.97,2.76,1.97,2.77,-2.77,-3.23,-2.55,-0.80,-0.80,-0.79
168.19,1.93,2.76,1.94,2.77,-2.77,-3.24,-2.54,-0.84,-0.83,-0.83
169.87,1.89,2.75,1.91,2.77,-2.77,-3.24,-2.53,-0.88,-0.86,-0.86
171.57,1.87,2.76,1.88,2.78,-2.78,-3.24,-2.53,-0.91,-0.89,-0.89
173.29,1.85,2.76,1.86,2.79,-2.79,-3.24,-2.53,-0.94,-0.93,-0.91
175.02,1.83,2.78,1.84,2.80,-2.80,-3.24,-2.52,-0.97,-0.96,-0.95
176.77,1.81,2.80,1.82,2.82,-2.82,-3.24,-2.53,-1.01,-0.99,-0.99
178.54,1.81,2.84,1.81,2.84,-2.84,-3.23,-2.53,-1.03,-1.03,-1.03
180.32,1.81,2.87,1.80,2.86,-2.86,-3.23,-2.54,-1.05,-1.06,-1.06
182.13,1.79,2.88,1.78,2.88,-2.88,-3.22,-2.54,-1.09,-1.10,-1.09
183.95,1.78,2.91,1.77,2.90,-2.90,-3.22,-2.55,-1.12,-1.13,-1.13
185.79,1.77,2.94,1.76,2.93,-2.93,-3.21,-2.56,-1.16,-1.17,-1.17
187.65,1.76,2.97,1.75,2.95,-2.95,-3.20,-2.58,-1.19,-1.20,-1.21
189.52,1.74,2.98,1.74,2.97,-2.97,-3.19,-2.59,-1.23,-1.23,-1.24
191.42,1.73,2.99,1.72,2.98,-2.98,-3.18,-2.61,-1.25,-1.26,-1.26
193.33,1.71,2.99,1.70,3.00,-3.00,-3.17,-2.63,-1.29,-1.29,-1.28
195.27,1.68,2.99,1.69,3.01,-3.01,-3.16,-2.65,-1.33,-1.32,-1.31
197.22,1.66,3.00,1.67,3.01,-3.01,-3.14,-2.67,-1.35,-1.35,-1.34
199.19,1.65,3.04,1.65,3.02,-3.02,-3.13,-2.69,-1.37,-1.37,-1.39
201.18,1.63,3.03,1.62,3.02,-3.02,-3.11,-2.72,-1.39,-1.40,-1.40
203.19,1.60,3.02,1.60,3.02,-3.02,-3.09,-2.74,-1.42,-1.42,-1.42
205.23,1.58,3.02,1.58,3.02,-3.02,-3.08,-2.77,-1.44,-1.44,-1.44
207.28,1.57,3.02,1.56,3.02,-3.02,-3.06,-2.79,-1.45,-1.46,-1.45
209.35,1.54,3.02,1.54,3.02,-3.02,-3.04,-2.82,-1.48,-1.48,-1.48
211.44,1.52,3.02,1.52,3.02,-3.02,-3.02,-2.84,-1.50,-1.50,-1.50
213.56,1.49,3.01,1.49,3.01,-3.01,-3.00,-2.87,-1.52,-1.52,-1.52
215.69,1.47,2.99,1.48,3.01,-3.01,-2.97,-2.90,-1.54,-1.53,-1.52
217.85,1.45,2.98,1.46,3.00,-3.00,-2.95,-2.92,-1.55,-1.54,-1.53
220.03,1.44,3.00,1.44,3.00,-3.00,-2.93,-2.95,-1.56,-1.55,-1.56
222.23,1.43,3.00,1.43,2.99,-2.99,-2.90,-2.97,-1.56,-1.56,-1.57
224.45,1.42,2.98,1.42,2.98,-2.98,-2.88,-2.99,-1.56,-1.56,-1.56
226.70,1.40,2.97,1.41,2.98,-2.98,-2.85,-3.01,-1.58,-1.57,-1.57
228.96,1.40,2.97,1.41,2.97,-2.97,-2.82,-3.02,-1.57,-1.57,-1.57
231.25,1.39,2.95,1.40,2.96,-2.96,-2.80,-3.04,-1.57,-1.56,-1.56
233.57,1.39,2.94,1.40,2.96,-2.96,-2.77,-3.05,-1.57,-1.56,-1.55
235.90,1.39,2.94,1.40,2.95,-2.95,-2.74,-3.06,-1.56,-1.55,-1.55
238.26,1.40,2.95,1.39,2.93,-2.93,-2.71,-3.06,-1.53,-1.54,-1.55
240.64,1.39,2.92,1.39,2.92,-2.92,-2.68,-3.06,-1.53,-1.53,-1.53
243.05,1.40,2.91,1.39,2.90,-2.90,-2.65,-3.06,-1.50,-1.51,-1.51
245.48,1.39,2.88,1.38,2.88,-2.88,-2.62,-3.06,-1.49,-1.50,-1.49
247.93,1.39,2.87,1.38,2.86,-2.86,-2.59,-3.04,-1.47,-1.48,-1.48
250.41,1.39,2.86,1.37,2.83,-2.83,-2.55,-3.03,-1.44,-1.46,-1.47
252.92,1.38,2.81,1.36,2.80,-2.80,-2.52,-3.01,-1.42,-1.44,-1.43
255.45,1.35,2.76,1.35,2.77,-2.77,-2.49,-2.99,-1.42,-1.42,-1.41
258.00,1.34,2.73,1.34,2.74,-2.74,-2.45,-2.96,-1.40,-1.40,-1.39
260.58,1.33,2.70,1.33,2.70,-2.70,-2.42,-2.93,-1.37,-1.37,-1.37
263.19,1.30,2.65,1.32,2.67,-2.67,-2.38,-2.90,-1.37,-1.35,-1.35
265.82,1.29,2.62,1.31,2.63,-2.63,-2.35,-2.86,-1.34,-1.33,-1.33
268.48,1.28,2.58,1.30,2.60,-2.60,-2.31,-2.81,-1.32,-1.30,-1.30
271.16,1.28,2.55,1.29,2.56,-2.56,-2.27,-2.77,-1.28,-1.28,-1.27
273.87,1.27,2.52,1.28,2.53,-2.53,-2.24,-2.72,-1.26,-1.25,-1.25
276.61,1.26,2.48,1.27,2.50,-2.50,-2.20,-2.67,-1.24,-1.23,-1.22
279.38,1.26,2.46,1.26,2.46,-2.46,-2.16,-2.62,-1.20,-1.20,-1.20
282.17,1.25,2.43,1.25,2.43,-2.43,-2.13,-2.56,-1.18,-1.18,-1.18
284.99,1.24,2.39,1.24,2.39,-2.39,-2.09,-2.50,-1.15,-1.15,-1.15
287.84,1.23,2.36,1.22,2.35,-2.35,-2.05,-2.44,-1.12,-1.12,-1.13
290.72,1.22,2.31,1.21,2.30,-2.30,-2.01,-2.38,-1.08,-1.10,-1.09
293.63,1.20,2.27,1.19,2.26,-2.26,-1.97,-2.32,-1.06,-1.07,-1.07
296.57,1.18,2.22,1.17,2.21,-2.21,-1.93,-2.25,-1.03,-1.04,-1.04
299.53,1.15,2.16,1.15,2.15,-2.15,-1.90,-2.19,-1.00,-1.01,-1.01
302.53,1.12,2.11,1.12,2.09,-2.09,-1.86,-2.13,-0.97,-0.98,-0.99
305.55,1.09,2.03,1.09,2.03,-2.03,-1.82,-2.06,-0.94,-0.94,-0.94
308.61,1.06,1.97,1.06,1.97,-1.97,-1.78,-2.00,-0.91,-0.91,-0.91
311.69,1.03,1.90,1.02,1.90,-1.90,-1.74,-1.93,-0.87,-0.88,-0.87
314.81,0.99,1.83,0.98,1.83,-1.83,-1.70,-1.87,-0.84,-0.85,-0.84
317.96,0.94,1.75,0.94,1.76,-1.76,-1.66,-1.80,-0.82,-0.82,-0.81
321.14,0.90,1.68,0.90,1.69,-1.69,-1.62,-1.74,-0.79,-0.78,-0.78
324.35,0.85,1.61,0.86,1.61,-1.61,-1.58,-1.67,-0.76,-0.75,-0.76
327.59,0.81,1.53,0.82,1.54,-1.54,-1.54,-1.61,-0.73,-0.73,-0.72
330.87,0.77,1.46,0.77,1.47,-1.47,-1.49,-1.55,-0.70,-0.70,-0.69
334.18,0.73,1.40,0.73,1.40,-1.40,-1.45,-1.49,-0.67,-0.67,-0.67
337.52,0.69,1.34,0.69,1.34,-1.34,-1.41,-1.42,-0.65,-0.65,-0.65
340.90,0.65,1.27,0.65,1.27,-1.27,-1.37,-1.36,-0.62,-0.62,-0.62
344.30,0.61,1.21,0.61,1.21,-1.21,-1.33,-1.30,-0.60,-0.60,-0.60
347.75,0.57,1.14,0.57,1.15,-1.15,-1.29,-1.25,-0.58,-0.58,-0.57
351.23,0.54,1.09,0.54,1.10,-1.10,-1.25,-1.19,-0.56,-0.56,-0.55
354.74,0.50,1.04,0.50,1.04,-1.04,-1.21,-1.13,-0.54,-0.54,-0.54
358.28,0.46,0.98,0.47,0.99,-0.99,-1.17,-1.08,-0.53,-0.52,-0.52
361.87,0.44,0.94,0.44,0.94,-0.94,-1.12,-1.02,-0.50,-0.50,-0.50
365.49,0.41,0.88,0.41,0.89,-0.89,-1.08,-0.97,-0.48,-0.48,-0.47
369.14,0.38,0.84,0.38,0.84,-0.84,-1.04,-0.91,-0.46,-0.46,-0.46
372.83,0.35,0.80,0.36,0.80,-0.80,-1.00,-0.86,-0.45,-0.44,-0.45
376.56,0.34,0.77,0.33,0.75,-0.75,-0.96,-0.81,-0.41,-0.42,-0.43
380.33,0.31,0.71,0.31,0.71,-0.71,-0.92,-0.76,-0.40,-0.40,-0.40
384.13,0.29,0.67,0.29,0.67,-0.67,-0.88,-0.71,-0.38,-0.38,-0.38
387.97,0.27,0.63,0.27,0.64,-0.64,-0.83,-0.66,-0.37,-0.36,-0.36
391.85,0.25,0.59,0.26,0.60,-0.60,-0.79,-0.61,-0.35,-0.34,-0.34
395.77,0.24,0.55,0.25,0.57,-0.57,-0.75,-0.56,-0.33,-0.32,-0.31
399.73,0.23,0.52,0.23,0.53,-0.53,-0.71,-0.52,-0.30,-0.30,-0.29
403.72,0.22,0.50,0.22,0.50,-0.50,-0.67,-0.47,-0.28,-0.28,-0.28
407.76,0.21,0.47,0.21,0.47,-0.47,-0.63,-0.43,-0.26,-0.26,-0.26
411.84,0.20,0.43,0.20,0.44,-0.44,-0.59,-0.38,-0.24,-0.23,-0.23
415.96,0.20,0.41,0.20,0.40,-0.40,-0.54,-0.34,-0.20,-0.21,-0.21
420.12,0.19,0.38,0.19,0.37,-0.37,-0.50,-0.30,-0.18,-0.19,-0.19
424.32,0.18,0.34,0.18,0.34,-0.34,-0.46,-0.25,-0.16,-0.17,-0.16
428.56,0.17,0.31,0.17,0.31,-0.31,-0.42,-0.21,-0.14,-0.14,-0.14
432.85,0.16,0.28,0.16,0.28,-0.28,-0.38,-0.17,-0.12,-0.12,-0.12
437.18,0.15,0.24,0.15,0.24,-0.24,-0.34,-0.13,-0.09,-0.09,-0.09
441.55,0.14,0.20,0.13,0.20,-0.20,-0.30,-0.10,-0.06,-0.07,-0.06
445.96,0.12,0.16,0.12,0.16,-0.16,-0.26,-0.06,-0.04,-0.04,-0.04
450.42,0.11,0.14,0.10,0.12,-0.12,-0.22,-0.02,-0.01,-0.02,-0.03
454.93,0.08,0.07,0.08,0.07,-0.07,-0.18,0.01,0.01,0.01,0.01
459.48,0.07,0.04,0.06,0.03,-0.03,-0.14,0.04,0.04,0.04,0.03
464.07,0.04,-0.02,0.04,-0.02,0.02,-0.10,0.08,0.06,0.06,0.06
468.71,0.02,-0.08,0.02,-0.07,0.07,-0.06,0.11,0.09,0.09,0.10
473.40,0.00,-0.12,0.00,-0.12,0.12,-0.02,0.14,0.12,0.12,0.12
478.13,-0.02,-0.17,-0.02,-0.17,0.17,0.02,0.17,0.15,0.15,0.15
482.91,-0.04,-0.22,-0.04,-0.22,0.22,0.06,0.20,0.18,0.18,0.18
487.74,-0.06,-0.27,-0.06,-0.27,0.27,0.10,0.22,0.21,0.21,0.21
492.62,-0.08,-0.32,-0.08,-0.31,0.31,0.13,0.25,0.23,0.23,0.24
497.55,-0.09,-0.35,-0.10,-0.36,0.36,0.17,0.27,0.27,0.26,0.26
502.52,-0.11,-0.41,-0.11,-0.41,0.41,0.21,0.29,0.30,0.29,0.30
507.55,-0.13,-0.45,-0.13,-0.45,0.45,0.25,0.32,0.32,0.32,0.32
