frequency,raw,error,smoothed,error_smoothed,equalization,parametric_eq,fixed_band_eq,equalized_raw,equalized_smoothed,target
20.00,-8.38,-16.23,-8.44,-16.30,16.30,15.85,6.64,7.92,7.85,7.85
20.20,-8.34,-16.18,-8.37,-16.21,16.21,15.81,6.80,7.87,7.84,7.84
20.40,-8.30,-16.13,-8.30,-16.13,16.13,15.78,6.95,7.83,7.83,7.83
20.61,-8.26,-16.09,-8.22,-16.04,16.04,15.74,7.11,7.78,7.82,7.83
20.81,-8.22,-16.03,-8.14,-15.96,15.96,15.69,7.28,7.74,7.81,7.81
21.02,-8.17,-15.98,-8.07,-15.87,15.87,15.65,7.45,7.70,7.81,7.81
21.23,-8.04,-15.84,-7.99,-15.79,15.79,15.61,7.62,7.75,7.80,7.80
21.44,-7.91,-15.71,-7.91,-15.70,15.70,15.56,7.80,7.79,7.79,7.80
21.66,-7.78,-15.58,-7.84,-15.62,15.62,15.51,7.98,7.84,7.78,7.79
21.87,-7.65,-15.43,-7.76,-15.53,15.53,15.46,8.17,7.88,7.78,7.78
22.09,-7.56,-15.33,-7.68,-15.45,15.45,15.41,8.37,7.89,7.77,7.77
22.31,-7.53,-15.30,-7.60,-15.36,15.36,15.36,8.56,7.83,7.77,7.77
22.54,-7.50,-15.26,-7.51,-15.27,15.27,15.30,8.77,7.77,7.76,7.76
22.76,-7.48,-15.24,-7.42,-15.18,15.18,15.25,8.98,7.70,7.76,7.76
22.99,-7.45,-15.20,-7.34,-15.09,15.09,15.19,9.19,7.64,7.75,7.75
23.22,-7.34,-15.08,-7.25,-15.00,15.00,15.13,9.41,7.66,7.75,7.74
23.45,-7.22,-14.97,-7.17,-14.92,14.92,15.08,9.64,7.70,7.74,7.74
23.69,-7.10,-14.84,-7.10,-14.84,14.84,15.02,9.87,7.74,7.74,7.73
23.92,-6.99,-14.72,-7.03,-14.76,14.76,14.95,10.11,7.77,7.74,7.73
24.16,-6.90,-14.64,-6.95,-14.69,14.69,14.89,10.36,7.79,7.74,7.74
24.40,-6.83,-14.58,-6.87,-14.61,14.61,14.83,10.61,7.78,7.74,7.75
24.65,-6.76,-14.51,-6.79,-14.53,14.53,14.76,10.87,7.77,7.74,7.75
24.89,-6.69,-14.44,-6.71,-14.45,14.45,14.70,11.13,7.76,7.74,7.75
25.14,-6.62,-14.36,-6.62,-14.37,14.37,14.63,11.40,7.75,7.74,7.74
25.39,-6.56,-14.30,-6.55,-14.30,14.30,14.56,11.68,7.74,7.75,7.74
25.65,-6.50,-14.24,-6.48,-14.23,14.23,14.49,11.96,7.73,7.75,7.74
25.91,-6.43,-14.18,-6.42,-14.17,14.17,14.42,12.25,7.74,7.75,7.75
26.16,-6.37,-14.13,-6.37,-14.12,14.12,14.35,12.54,7.75,7.75,7.76
26.43,-6.31,-14.07,-6.32,-14.07,14.07,14.28,12.84,7.76,7.75,7.75
26.69,-6.24,-13.99,-6.27,-14.02,14.02,14.20,13.14,7.78,7.75,7.75
26.96,-6.18,-13.93,-6.21,-13.96,13.96,14.13,13.45,7.78,7.75,7.75
27.23,-6.14,-13.89,-6.16,-13.91,13.91,14.06,13.76,7.76,7.75,7.75
27.50,-6.10,-13.85,-6.10,-13.85,13.85,13.98,14.07,7.75,7.75,7.74
27.77,-6.06,-13.81,-6.04,-13.79,13.79,13.90,14.37,7.73,7.75,7.75
28.05,-6.02,-13.77,-5.98,-13.73,13.73,13.83,14.68,7.71,7.75,7.75
28.33,-5.95,-13.69,-5.92,-13.67,13.67,13.75,14.97,7.72,7.75,7.74
28.62,-5.89,-13.63,-5.86,-13.60,13.60,13.67,15.26,7.71,7.74,7.73
28.90,-5.82,-13.56,-5.79,-13.53,13.53,13.59,15.53,7.71,7.74,7.74
29.19,-5.74,-13.48,-5.73,-13.47,13.47,13.51,15.79,7.72,7.74,7.74
29.48,-5.65,-13.39,-5.66,-13.39,13.39,13.43,16.02,7.74,7.73,7.73
29.78,-5.57,-13.30,-5.59,-13.32,13.32,13.35,16.23,7.75,7.73,7.73
30.08,-5.48,-13.22,-5.52,-13.24,13.24,13.27,16.41,7.76,7.72,7.74
30.38,-5.42,-13.15,-5.45,-13.16,13.16,13.18,16.55,7.74,7.72,7.72
30.68,-5.36,-13.07,-5.37,-13.08,13.08,13.10,16.65,7.72,7.71,7.71
30.99,-5.30,-13.01,-5.30,-13.00,13.00,13.02,16.72,7.70,7.70,7.71
31.30,-5.24,-12.94,-5.23,-12.93,12.93,12.93,16.74,7.69,7.70,7.69
31.61,-5.17,-12.86,-5.17,-12.86,12.86,12.85,16.72,7.69,7.69,7.69
31.93,-5.11,-12.79,-5.11,-12.79,12.79,12.76,16.65,7.68,7.68,7.67
32.24,-5.04,-12.71,-5.05,-12.73,12.73,12.68,16.55,7.69,7.67,7.67
32.57,-4.98,-12.64,-5.00,-12.66,12.66,12.59,16.41,7.68,7.66,7.65
32.89,-4.92,-12.57,-4.93,-12.59,12.59,12.50,16.24,7.67,7.66,7.65
33.22,-4.86,-12.51,-4.87,-12.52,12.52,12.42,16.04,7.66,7.65,7.64
33.55,-4.81,-12.45,-4.81,-12.45,12.45,12.33,15.82,7.64,7.64,7.64
33.89,-4.76,-12.41,-4.75,-12.38,12.38,12.24,15.58,7.62,7.64,7.64
34.23,-4.71,-12.34,-4.68,-12.32,12.32,12.15,15.33,7.60,7.63,7.63
34.57,-4.65,-12.27,-4.62,-12.25,12.25,12.06,15.06,7.59,7.63,7.62
34.92,-4.60,-12.22,-4.56,-12.17,12.17,11.97,14.79,7.57,7.62,7.62
35.27,-4.50,-12.12,-4.49,-12.10,12.10,11.88,14.52,7.60,7.61,7.62
35.62,-4.38,-11.99,-4.42,-12.02,12.02,11.79,14.24,7.64,7.60,7.60
35.97,-4.27,-11.87,-4.35,-11.94,11.94,11.70,13.96,7.66,7.59,7.60
36.33,-4.24,-11.82,-4.27,-11.84,11.84,11.61,13.69,7.60,7.57,7.58
36.70,-4.21,-11.77,-4.19,-11.75,11.75,11.52,13.42,7.53,7.56,7.56
37.06,-4.17,-11.71,-4.12,-11.65,11.65,11.43,13.15,7.48,7.54,7.54
37.43,-4.08,-11.60,-4.05,-11.57,11.57,11.33,12.89,7.48,7.51,7.52
37.81,-4.00,-11.50,-3.98,-11.47,11.47,11.24,12.63,7.47,7.49,7.50
38.19,-3.90,-11.37,-3.91,-11.38,11.38,11.15,12.38,7.47,7.47,7.47
38.57,-3.81,-11.25,-3.84,-11.28,11.28,11.05,12.14,7.46,7.44,7.44
38.95,-3.72,-11.13,-3.77,-11.18,11.18,10.96,11.91,7.46,7.41,7.41
39.34,-3.65,-11.02,-3.70,-11.08,11.08,10.87,11.68,7.43,7.38,7.37
39.74,-3.59,-10.94,-3.63,-10.98,10.98,10.77,11.46,7.39,7.35,7.35
40.14,-3.55,-10.87,-3.55,-10.87,10.87,10.68,11.24,7.32,7.32,7.32
40.54,-3.54,-10.83,-3.47,-10.76,10.76,10.58,11.04,7.22,7.29,7.29
40.94,-3.54,-10.80,-3.40,-10.66,10.66,10.49,10.84,7.12,7.26,7.26
41.35,-3.39,-10.63,-3.33,-10.57,10.57,10.39,10.65,7.17,7.23,7.24
41.76,-3.21,-10.40,-3.27,-10.47,10.47,10.29,10.46,7.26,7.20,7.19
42.18,-3.11,-10.28,-3.21,-10.38,10.38,10.20,10.28,7.27,7.17,7.17
42.60,-3.10,-10.25,-3.16,-10.30,10.30,10.10,10.11,7.20,7.14,7.15
43.03,-3.09,-10.21,-3.11,-10.23,10.23,10.00,9.95,7.14,7.12,7.11
43.46,-3.00,-10.08,-3.05,-10.14,10.14,9.91,9.79,7.14,7.09,7.08
43.90,-2.90,-9.96,-2.98,-10.04,10.04,9.81,9.64,7.14,7.06,7.06
44.33,-2.92,-9.94,-2.92,-9.95,9.95,9.71,9.49,7.02,7.02,7.02
44.78,-2.97,-9.96,-2.87,-9.86,9.86,9.61,9.35,6.89,6.99,6.99
45.23,-2.92,-9.89,-2.82,-9.78,9.78,9.52,9.22,6.85,6.95,6.97
45.68,-2.79,-9.71,-2.78,-9.69,9.69,9.42,9.09,6.90,6.92,6.92
46.13,-2.71,-9.59,-2.74,-9.61,9.61,9.32,8.97,6.90,6.88,6.88
46.60,-2.73,-9.57,-2.69,-9.53,9.53,9.22,8.86,6.80,6.83,6.84
47.06,-2.72,-9.52,-2.64,-9.43,9.43,9.12,8.75,6.71,6.79,6.80
47.53,-2.51,-9.27,-2.59,-9.33,9.33,9.02,8.64,6.82,6.74,6.76
48.01,-2.30,-9.00,-2.52,-9.22,9.22,8.92,8.54,6.92,6.70,6.70
48.49,-2.44,-9.09,-2.46,-9.11,9.11,8.82,8.44,6.67,6.65,6.65
48.97,-2.58,-9.18,-2.40,-9.00,9.00,8.72,8.35,6.42,6.60,6.60
49.46,-2.43,-8.99,-2.33,-8.89,8.89,8.62,8.26,6.46,6.55,6.56
49.96,-2.25,-8.74,-2.28,-8.78,8.78,8.52,8.18,6.53,6.50,6.48
50.46,-2.19,-8.63,-2.23,-8.68,8.68,8.42,8.10,6.48,6.45,6.44
50.96,-2.14,-8.54,-2.16,-8.56,8.56,8.32,8.02,6.42,6.40,6.39
51.47,-2.09,-8.44,-2.10,-8.45,8.45,8.21,7.95,6.36,6.35,6.35
51.99,-2.04,-8.34,-2.05,-8.34,8.34,8.11,7.88,6.30,6.30,6.29
52.51,-1.95,-8.20,-2.00,-8.24,8.24,8.01,7.81,6.29,6.24,6.25
53.03,-1.87,-8.08,-1.95,-8.15,8.15,7.91,7.75,6.27,6.19,6.21
53.56,-1.93,-8.08,-1.91,-8.05,8.05,7.80,7.68,6.12,6.14,6.15
54.10,-1.96,-8.05,-1.84,-7.93,7.93,7.70,7.62,5.97,6.09,6.09
54.64,-1.83,-7.87,-1.78,-7.82,7.82,7.60,7.55,5.99,6.04,6.04
55.18,-1.70,-7.68,-1.73,-7.72,7.72,7.49,7.49,6.02,5.99,5.98
55.74,-1.57,-7.50,-1.68,-7.63,7.63,7.39,7.43,6.06,5.94,5.93
56.29,-1.57,-7.45,-1.64,-7.54,7.54,7.29,7.36,5.96,5.89,5.88
56.86,-1.70,-7.54,-1.59,-7.44,7.44,7.18,7.30,5.73,5.84,5.84
57.42,-1.63,-7.40,-1.53,-7.32,7.32,7.08,7.23,5.69,5.79,5.77
58.00,-1.50,-7.24,-1.48,-7.22,7.22,6.97,7.16,5.72,5.74,5.74
58.58,-1.44,-7.14,-1.43,-7.12,7.12,6.87,7.09,5.68,5.68,5.70
59.16,-1.36,-7.01,-1.39,-7.01,7.01,6.76,7.02,5.65,5.63,5.65
59.76,-1.23,-6.83,-1.33,-6.90,6.90,6.66,6.94,5.67,5.57,5.60
60.35,-1.20,-6.73,-1.29,-6.80,6.80,6.55,6.86,5.60,5.51,5.53
60.96,-1.23,-6.70,-1.26,-6.71,6.71,6.44,6.78,5.48,5.45,5.47
61.57,-1.28,-6.67,-1.21,-6.60,6.60,6.34,6.69,5.32,5.39,5.39
62.18,-1.23,-6.55,-1.15,-6.48,6.48,6.23,6.59,5.25,5.33,5.32
62.80,-0.98,-6.22,-1.09,-6.35,6.35,6.12,6.50,5.37,5.26,5.24
63.43,-1.02,-6.20,-1.04,-6.23,6.23,6.02,6.40,5.21,5.19,5.18
64.07,-1.16,-6.28,-0.99,-6.12,6.12,5.91,6.29,4.96,5.13,5.12
64.71,-1.01,-6.06,-0.94,-6.00,6.00,5.80,6.18,4.98,5.06,5.05
65.35,-0.90,-5.89,-0.88,-5.87,5.87,5.69,6.07,4.97,4.99,4.99
66.01,-0.84,-5.76,-0.83,-5.75,5.75,5.58,5.95,4.91,4.92,4.92
66.67,-0.77,-5.63,-0.79,-5.64,5.64,5.48,5.83,4.87,4.85,4.86
67.33,-0.66,-5.44,-0.74,-5.52,5.52,5.37,5.70,4.86,4.78,4.78
68.01,-0.49,-5.20,-0.68,-5.39,5.39,5.26,5.57,4.90,4.71,4.71
68.69,-0.69,-5.33,-0.64,-5.27,5.27,5.15,5.44,4.58,4.64,4.63
69.37,-0.70,-5.28,-0.60,-5.17,5.17,5.04,5.31,4.47,4.57,4.58
70.07,-0.54,-5.04,-0.57,-5.06,5.06,4.93,5.17,4.52,4.49,4.50
70.77,-0.39,-4.82,-0.53,-4.94,4.94,4.82,5.03,4.55,4.42,4.42
71.48,-0.42,-4.77,-0.48,-4.82,4.82,4.71,4.89,4.40,4.35,4.35
72.19,-0.52,-4.79,-0.44,-4.72,4.72,4.60,4.75,4.19,4.27,4.27
72.91,-0.56,-4.75,-0.41,-4.60,4.60,4.49,4.60,4.04,4.20,4.19
73.64,-0.42,-4.54,-0.37,-4.49,4.49,4.38,4.46,4.07,4.13,4.12
74.38,-0.29,-4.34,-0.33,-4.38,4.38,4.26,4.31,4.09,4.05,4.05
75.12,-0.24,-4.21,-0.28,-4.26,4.26,4.15,4.17,4.02,3.98,3.97
75.87,-0.33,-4.24,-0.23,-4.14,4.14,4.04,4.02,3.81,3.91,3.91
76.63,-0.20,-4.04,-0.17,-4.01,4.01,3.93,3.88,3.81,3.85,3.84
77.40,-0.08,-3.86,-0.12,-3.89,3.89,3.81,3.73,3.81,3.78,3.78
78.17,-0.01,-3.71,-0.07,-3.78,3.78,3.70,3.59,3.77,3.71,3.70
78.95,0.07,-3.58,-0.02,-3.66,3.66,3.59,3.44,3.73,3.64,3.65
79.74,0.07,-3.51,0.04,-3.53,3.53,3.47,3.30,3.60,3.58,3.58
80.54,0.09,-3.43,0.11,-3.40,3.40,3.36,3.16,3.49,3.51,3.51
81.35,0.13,-3.32,0.16,-3.29,3.29,3.25,3.02,3.42,3.44,3.45
82.16,0.19,-3.20,0.20,-3.18,3.18,3.13,2.88,3.37,3.38,3.39
82.98,0.27,-3.05,0.24,-3.07,3.07,3.02,2.74,3.33,3.31,3.31
83.81,0.27,-2.97,0.29,-2.95,2.95,2.90,2.60,3.22,3.24,3.24
84.65,0.34,-2.83,0.34,-2.83,2.83,2.79,2.46,3.17,3.17,3.17
85.50,0.37,-2.72,0.37,-2.72,2.72,2.67,2.33,3.09,3.10,3.09
86.35,0.41,-2.61,0.41,-2.61,2.61,2.56,2.19,3.02,3.03,3.02
87.22,0.47,-2.49,0.46,-2.50,2.50,2.44,2.06,2.96,2.95,2.95
88.09,0.48,-2.40,0.50,-2.38,2.38,2.32,1.92,2.85,2.88,2.88
88.97,0.57,-2.24,0.55,-2.25,2.25,2.21,1.79,2.82,2.80,2.81
89.86,0.58,-2.14,0.60,-2.13,2.13,2.09,1.66,2.71,2.73,2.72
90.76,0.66,-1.99,0.64,-2.00,2.00,1.97,1.53,2.66,2.65,2.65
91.66,0.68,-1.88,0.69,-1.88,1.88,1.85,1.40,2.56,2.57,2.56
92.58,0.71,-1.78,0.73,-1.76,1.76,1.74,1.28,2.47,2.49,2.49
93.51,0.77,-1.64,0.77,-1.63,1.63,1.62,1.15,2.40,2.40,2.41
94.44,0.84,-1.49,0.82,-1.50,1.50,1.50,1.03,2.34,2.32,2.33
95.39,0.88,-1.36,0.86,-1.37,1.37,1.38,0.90,2.25,2.23,2.24
96.34,0.89,-1.25,0.89,-1.25,1.25,1.26,0.78,2.14,2.14,2.14
97.30,0.92,-1.13,0.92,-1.13,1.13,1.14,0.65,2.05,2.05,2.05
98.28,0.97,-0.99,0.95,-1.00,1.00,1.02,0.53,1.97,1.95,1.96
99.26,1.00,-0.85,0.99,-0.87,0.87,0.90,0.41,1.87,1.86,1.85
100.25,1.03,-0.73,1.01,-0.76,0.76,0.78,0.29,1.79,1.77,1.76
101.25,1.03,-0.64,1.03,-0.64,0.64,0.66,0.17,1.67,1.67,1.67
102.27,1.06,-0.52,1.06,-0.51,0.51,0.54,0.05,1.57,1.58,1.58
103.29,1.12,-0.36,1.10,-0.38,0.38,0.42,-0.06,1.50,1.48,1.48
104.32,1.15,-0.25,1.13,-0.26,0.26,0.30,-0.18,1.41,1.39,1.40
105.37,1.08,-0.22,1.15,-0.15,0.15,0.18,-0.30,1.23,1.30,1.30
106.42,1.06,-0.15,1.17,-0.03,0.03,0.06,-0.41,1.09,1.20,1.20
107.48,1.26,0.16,1.21,0.09,-0.09,-0.06,-0.53,1.16,1.11,1.10
108.56,1.37,0.34,1.24,0.22,-0.22,-0.19,-0.64,1.15,1.02,1.02
109.64,1.22,0.29,1.27,0.34,-0.34,-0.31,-0.75,0.88,0.93,0.93
110.74,1.16,0.32,1.30,0.46,-0.46,-0.43,-0.86,0.69,0.84,0.83
111.85,1.47,0.72,1.35,0.60,-0.60,-0.56,-0.97,0.87,0.75,0.75
112.97,1.53,0.86,1.39,0.73,-0.73,-0.68,-1.08,0.80,0.66,0.66
114.10,1.39,0.81,1.42,0.84,-0.84,-0.80,-1.18,0.54,0.57,0.58
115.24,1.31,0.82,1.46,0.97,-0.97,-0.93,-1.29,0.34,0.49,0.49
116.39,1.42,1.02,1.51,1.10,-1.10,-1.05,-1.39,0.32,0.41,0.39
117.55,1.62,1.30,1.56,1.24,-1.24,-1.18,-1.49,0.38,0.33,0.32
118.73,1.67,1.44,1.61,1.36,-1.36,-1.30,-1.59,0.31,0.25,0.23
119.92,1.62,1.46,1.65,1.48,-1.48,-1.42,-1.69,0.14,0.17,0.16
121.12,1.72,1.62,1.70,1.61,-1.61,-1.55,-1.79,0.10,0.09,0.10
122.33,1.79,1.77,1.76,1.75,-1.75,-1.68,-1.88,0.04,0.01,0.02
123.55,1.82,1.87,1.81,1.87,-1.87,-1.80,-1.98,-0.05,-0.06,-0.05
124.79,1.75,1.87,1.85,1.98,-1.98,-1.93,-2.07,-0.23,-0.13,-0.12
126.03,1.89,2.09,1.92,2.12,-2.12,-2.05,-2.16,-0.23,-0.21,-0.20
127.29,2.08,2.36,1.99,2.27,-2.27,-2.18,-2.25,-0.19,-0.28,-0.28
128.57,2.13,2.48,2.05,2.40,-2.40,-2.31,-2.34,-0.27,-0.35,-0.35
129.85,2.08,2.51,2.08,2.51,-2.51,-2.43,-2.42,-0.43,-0.42,-0.43
131.15,2.04,2.54,2.13,2.63,-2.63,-2.56,-2.51,-0.59,-0.50,-0.50
132.46,2.20,2.77,2.18,2.75,-2.75,-2.69,-2.59,-0.55,-0.57,-0.58
133.79,2.29,2.94,2.23,2.87,-2.87,-2.81,-2.68,-0.58,-0.64,-0.65
135.12,2.19,2.91,2.27,2.99,-2.99,-2.94,-2.76,-0.80,-0.71,-0.72
136.48,2.34,3.12,2.33,3.12,-3.12,-3.07,-2.84,-0.78,-0.79,-0.78
137.84,2.49,3.34,2.40,3.26,-3.26,-3.20,-2.92,-0.77,-0.86,-0.85
139.22,2.52,3.45,2.45,3.38,-3.38,-3.33,-3.01,-0.86,-0.93,-0.94
140.61,2.44,3.43,2.50,3.49,-3.49,-3.45,-3.09,-1.05,-1.00,-0.99
142.02,2.39,3.46,2.54,3.61,-3.61,-3.58,-3.17,-1.22,-1.07,-1.07
143.44,2.55,3.69,2.60,3.73,-3.73,-3.71,-3.26,-1.18,-1.13,-1.14
144.87,2.70,3.90,2.66,3.86,-3.86,-3.84,-3.34,-1.16,-1.20,-1.20
146.32,2.71,3.97,2.71,3.98,-3.98,-3.97,-3.43,-1.28,-1.27,-1.27
147.78,2.79,4.13,2.76,4.10,-4.10,-4.10,-3.51,-1.31,-1.34,-1.34
149.26,2.95,4.35,2.83,4.23,-4.23,-4.23,-3.60,-1.28,-1.41,-1.41
150.75,3.02,4.50,2.89,4.36,-4.36,-4.35,-3.69,-1.34,-1.47,-1.48
152.26,2.87,4.41,2.94,4.48,-4.48,-4.48,-3.78,-1.62,-1.54,-1.54
153.78,2.86,4.47,3.00,4.61,-4.61,-4.61,-3.88,-1.75,-1.61,-1.61
155.32,3.03,4.70,3.06,4.74,-4.74,-4.74,-3.98,-1.71,-1.68,-1.67
156.88,3.11,4.85,3.12,4.87,-4.87,-4.87,-4.08,-1.76,-1.75,-1.74
158.44,3.18,4.99,3.17,4.99,-4.99,-5.00,-4.18,-1.81,-1.82,-1.81
160.03,3.23,5.11,3.22,5.11,-5.11,-5.13,-4.28,-1.88,-1.89,-1.88
161.63,3.30,5.25,3.27,5.23,-5.23,-5.26,-4.39,-1.93,-1.96,-1.95
163.24,3.37,5.40,3.32,5.35,-5.35,-5.39,-4.50,-1.98,-2.03,-2.03
164.88,3.41,5.51,3.35,5.45,-5.45,-5.51,-4.62,-2.04,-2.10,-2.10
166.53,3.40,5.57,3.41,5.58,-5.58,-5.64,-4.73,-2.18,-2.17,-2.17
168.19,3.45,5.68,3.47,5.70,-5.70,-5.77,-4.86,-2.26,-2.24,-2.24
169.87,3.49,5.80,3.52,5.83,-5.83,-5.90,-4.98,-2.34,-2.31,-2.31
171.57,3.56,5.94,3.56,5.94,-5.94,-6.03,-5.11,-2.38,-2.38,-2.38
173.29,3.62,6.07,3.61,6.05,-6.05,-6.15,-5.24,-2.43,-2.44,-2.45
175.02,3.67,6.18,3.66,6.17,-6.17,-6.28,-5.38,-2.50,-2.51,-2.51
176.77,3.74,6.31,3.70,6.28,-6.28,-6.41,-5.52,-2.54,-2.57,-2.57
178.54,3.73,6.37,3.76,6.40,-6.40,-6.53,-5.66,-2.67,-2.64,-2.64
180.32,3.69,6.39,3.83,6.53,-6.53,-6.66,-5.81,-2.84,-2.70,-2.71
182.13,3.90,6.66,3.89,6.65,-6.65,-6.78,-5.97,-2.75,-2.76,-2.76
183.95,4.09,6.90,3.96,6.77,-6.77,-6.91,-6.12,-2.69,-2.81,-2.81
185.79,3.92,6.79,4.03,6.90,-6.90,-7.03,-6.29,-2.98,-2.87,-2.87
187.65,4.00,6.92,4.09,7.02,-7.02,-7.15,-6.45,-3.02,-2.93,-2.92
189.52,4.26,7.24,4.15,7.13,-7.13,-7.28,-6.62,-2.87,-2.98,-2.98
191.42,4.34,7.36,4.22,7.25,-7.25,-7.40,-6.80,-2.91,-3.03,-3.02
193.33,4.22,7.30,4.29,7.37,-7.37,-7.52,-6.97,-3.16,-3.08,-3.08
195.27,4.37,7.50,4.37,7.50,-7.50,-7.64,-7.16,-3.14,-3.13,-3.13
197.22,4.55,7.74,4.44,7.62,-7.62,-7.75,-7.34,-3.07,-3.18,-3.19
199.19,4.48,7.71,4.50,7.73,-7.73,-7.87,-7.53,-3.25,-3.23,-3.23
201.18,4.46,7.74,4.56,7.84,-7.84,-7.99,-7.72,-3.38,-3.28,-3.28
203.19,4.56,7.88,4.61,7.93,-7.93,-8.10,-7.92,-3.37,-3.32,-3.33
205.23,4.67,8.04,4.66,8.03,-8.03,-8.21,-8.12,-3.36,-3.37,-3.37
207.28,4.73,8.14,4.71,8.13,-8.13,-8.32,-8.32,-3.40,-3.42,-3.41
209.35,4.79,8.24,4.74,8.21,-8.21,-8.43,-8.52,-3.42,-3.46,-3.46
211.44,4.90,8.40,4.78,8.29,-8.29,-8.54,-8.72,-3.39,-3.51,-3.50
213.56,4.99,8.53,4.84,8.39,-8.39,-8.65,-8.92,-3.40,-3.55,-3.54
215.69,4.85,8.44,4.91,8.50,-8.50,-8.75,-9.12,-3.65,-3.59,-3.59
217.85,4.80,8.42,4.95,8.58,-8.58,-8.85,-9.32,-3.78,-3.63,-3.62
220.03,4.94,8.62,4.99,8.66,-8.66,-8.95,-9.52,-3.72,-3.67,-3.68
222.23,5.02,8.73,5.05,8.75,-8.75,-9.05,-9.71,-3.73,-3.70,-3.71
224.45,5.08,8.82,5.10,8.84,-8.84,-9.14,-9.90,-3.76,-3.74,-3.74
226.70,5.14,8.91,5.16,8.93,-8.93,-9.23,-10.08,-3.79,-3.77,-3.78
228.96,5.12,8.92,5.21,9.01,-9.01,-9.32,-10.26,-3.89,-3.79,-3.80
231.25,5.36,9.18,5.27,9.09,-9.09,-9.41,-10.42,-3.73,-3.82,-3.82
233.57,5.49,9.34,5.33,9.17,-9.17,-9.49,-10.57,-3.68,-3.84,-3.85
235.90,5.46,9.33,5.39,9.25,-9.25,-9.57,-10.71,-3.79,-3.86,-3.87
238.26,5.39,9.27,5.45,9.33,-9.33,-9.64,-10.83,-3.94,-3.88,-3.89
240.64,5.39,9.27,5.53,9.42,-9.42,-9.72,-10.94,-4.03,-3.89,-3.88
243.05,5.53,9.43,5.58,9.49,-9.49,-9.79,-11.03,-3.96,-3.90,-3.90
245.48,5.69,9.61,5.63,9.55,-9.55,-9.85,-11.11,-3.86,-3.92,-3.92
247.93,5.81,9.74,5.68,9.61,-9.61,-9.92,-11.16,-3.80,-3.93,-3.94
250.41,5.74,9.67,5.73,9.67,-9.67,-9.97,-11.20,-3.93,-3.94,-3.93
252.92,5.68,9.61,5.78,9.73,-9.73,-10.03,-11.21,-4.05,-3.95,-3.94
255.45,5.84,9.80,5.82,9.78,-9.78,-10.08,-11.21,-3.95,-3.96,-3.96
258.00,5.89,9.85,5.85,9.83,-9.83,-10.13,-11.19,-3.94,-3.97,-3.97
260.58,5.89,9.87,5.89,9.88,-9.88,-10.17,-11.15,-3.99,-3.99,-3.98
263.19,5.90,9.89,5.94,9.94,-9.94,-10.21,-11.09,-4.04,-4.00,-3.99
265.82,5.98,9.99,5.98,9.99,-9.99,-10.24,-11.02,-4.02,-4.02,-4.01
268.48,5.99,10.02,6.00,10.04,-10.04,-10.27,-10.94,-4.05,-4.03,-4.03
271.16,6.05,10.10,6.02,10.07,-10.07,-10.30,-10.85,-4.02,-4.05,-4.05
273.87,6.08,10.14,6.03,10.10,-10.10,-10.32,-10.74,-4.02,-4.06,-4.06
276.61,6.08,10.16,6.05,10.13,-10.13,-10.34,-10.62,-4.05,-4.08,-4.08
279.38,6.08,10.19,6.08,10.17,-10.17,-10.35,-10.50,-4.09,-4.09,-4.11
282.17,6.08,10.19,6.09,10.20,-10.20,-10.36,-10.37,-4.12,-4.10,-4.11
284.99,6.09,10.21,6.10,10.21,-10.21,-10.37,-10.24,-4.12,-4.11,-4.12
287.84,6.10,10.22,6.11,10.23,-10.23,-10.37,-10.11,-4.13,-4.12,-4.12
290.72,6.11,10.25,6.13,10.26,-10.26,-10.36,-9.97,-4.16,-4.13,-4.14
293.63,6.12,10.26,6.15,10.29,-10.29,-10.35,-9.83,-4.17,-4.14,-4.14
296.57,6.13,10.27,6.16,10.30,-10.30,-10.34,-9.69,-4.17,-4.14,-4.14
299.53,6.14,10.28,6.16,10.31,-10.31,-10.33,-9.56,-4.17,-4.15,-4.15
302.53,6.16,10.30,6.16,10.32,-10.32,-10.31,-9.42,-4.16,-4.15,-4.14
305.55,6.17,10.32,6.17,10.32,-10.32,-10.29,-9.29,-4.15,-4.16,-4.15
308.61,6.17,10.32,6.16,10.32,-10.32,-10.26,-9.17,-4.15,-4.16,-4.15
311.69,6.18,10.34,6.15,10.31,-10.31,-10.23,-9.04,-4.14,-4.16,-4.17
314.81,6.19,10.35,6.13,10.30,-10.30,-10.19,-8.92,-4.11,-4.17,-4.16
317.96,6.22,10.40,6.11,10.28,-10.28,-10.16,-8.81,-4.07,-4.17,-4.18
321.14,6.21,10.38,6.09,10.26,-10.26,-10.12,-8.70,-4.06,-4.17,-4.17
324.35,5.99,10.17,6.06,10.24,-10.24,-10.07,-8.59,-4.25,-4.18,-4.18
327.59,5.93,10.10,6.03,10.22,-10.22,-10.03,-8.49,-4.29,-4.18,-4.18
330.87,5.97,10.15,5.99,10.18,-10.18,-9.98,-8.40,-4.21,-4.19,-4.18
334.18,5.95,10.15,5.95,10.14,-10.14,-9.92,-8.31,-4.19,-4.19,-4.20
337.52,5.89,10.08,5.91,10.10,-10.10,-9.87,-8.22,-4.21,-4.19,-4.19
340.90,5.81,10.01,5.86,10.05,-10.05,-9.81,-8.15,-4.24,-4.19,-4.20
344.30,5.78,9.97,5.81,10.00,-10.00,-9.75,-8.07,-4.22,-4.19,-4.19
347.75,5.78,9.97,5.77,9.96,-9.96,-9.69,-8.01,-4.18,-4.19,-4.19
351.23,5.77,9.97,5.72,9.91,-9.91,-9.63,-7.95,-4.14,-4.19,-4.20
354.74,5.71,9.89,5.67,9.86,-9.86,-9.56,-7.90,-4.15,-4.19,-4.19
358.28,5.64,9.83,5.63,9.81,-9.81,-9.49,-7.85,-4.17,-4.18,-4.19
361.87,5.59,9.77,5.58,9.77,-9.77,-9.42,-7.81,-4.18,-4.18,-4.18
365.49,5.45,9.63,5.53,9.71,-9.71,-9.35,-7.77,-4.26,-4.18,-4.18
369.14,5.50,9.67,5.48,9.66,-9.66,-9.28,-7.74,-4.16,-4.17,-4.17
372.83,5.51,9.67,5.43,9.61,-9.61,-9.20,-7.71,-4.10,-4.17,-4.16
376.56,5.31,9.48,5.38,9.55,-9.55,-9.13,-7.69,-4.24,-4.17,-4.17
380.33,5.31,9.48,5.30,9.47,-9.47,-9.05,-7.68,-4.17,-4.17,-4.17
384.13,5.29,9.45,5.23,9.40,-9.40,-8.97,-7.67,-4.11,-4.17,-4.16
387.97,5.11,9.28,5.15,9.33,-9.33,-8.89,-7.66,-4.22,-4.18,-4.17
391.85,5.01,9.18,5.07,9.25,-9.25,-8.81,-7.66,-4.24,-4.18,-4.17
395.77,5.03,9.21,4.99,9.17,-9.17,-8.73,-7.66,-4.14,-4.19,-4.18
399.73,5.03,9.21,4.90,9.09,-9.09,-8.65,-7.67,-4.06,-4.19,-4.19
403.72,4.89,9.07,4.81,9.01,-9.01,-8.57,-7.68,-4.12,-4.20,-4.18
407.76,4.76,8.96,4.72,8.92,-8.92,-8.49,-7.70,-4.16,-4.20,-4.20
411.84,4.61,8.81,4.62,8.83,-8.83,-8.40,-7.72,-4.22,-4.21,-4.20
415.96,4.41,8.61,4.53,8.74,-8.74,-8.32,-7.74,-4.33,-4.21,-4.21
420.12,4.38,8.60,4.46,8.67,-8.67,-8.23,-7.76,-4.29,-4.20,-4.22
424.32,4.44,8.65,4.39,8.59,-8.59,-8.15,-7.78,-4.15,-4.20,-4.21
428.56,4.28,8.47,4.33,8.51,-8.51,-8.06,-7.80,-4.23,-4.18,-4.19
432.85,4.17,8.34,4.27,8.43,-8.43,-7.98,-7.83,-4.26,-4.17,-4.17
437.18,4.15,8.31,4.19,8.34,-8.34,-7.89,-7.85,-4.19,-4.14,-4.17
441.55,4.11,8.24,4.12,8.23,-8.23,-7.80,-7.88,-4.12,-4.11,-4.13
445.96,4.08,8.17,4.06,8.14,-8.14,-7.72,-7.90,-4.06,-4.07,-4.09
450.42,4.07,8.12,4.03,8.06,-8.06,-7.63,-7.92,-3.99,-4.03,-4.05
454.93,4.04,8.04,3.99,7.97,-7.97,-7.54,-7.93,-3.93,-3.98,-4.00
459.48,4.04,7.98,3.94,7.88,-7.88,-7.45,-7.94,-3.84,-3.93,-3.94
