frequency,raw,error,smoothed,error_smoothed,equalization,parametric_eq,fixed_band_eq,equalized_raw,equalized_smoothed,target
20.00,-8.38,-14.54,-8.37,-14.53,14.61,14.75,5.93,6.23,6.24,6.16
20.20,-8.34,-14.49,-8.35,-14.50,14.52,14.67,6.07,6.18,6.18,6.15
20.40,-8.30,-14.44,-8.32,-14.46,14.44,14.59,6.21,6.14,6.12,6.14
20.61,-8.26,-14.40,-8.27,-14.40,14.35,14.51,6.36,6.09,6.09,6.14
20.81,-8.22,-14.34,-8.22,-14.35,14.27,14.43,6.51,6.05,6.05,6.12
21.02,-8.17,-14.29,-8.15,-14.27,14.19,14.35,6.67,6.01,6.04,6.12
21.23,-8.04,-14.15,-8.05,-14.16,14.10,14.27,6.83,6.06,6.05,6.11
21.44,-7.91,-14.03,-7.92,-14.03,14.02,14.19,7.00,6.11,6.10,6.12
21.66,-7.78,-13.89,-7.77,-13.88,13.91,14.11,7.17,6.13,6.14,6.11
21.87,-7.65,-13.75,-7.66,-13.76,13.82,14.03,7.34,6.17,6.16,6.10
22.09,-7.56,-13.65,-7.58,-13.67,13.73,13.96,7.52,6.17,6.16,6.09
22.31,-7.53,-13.62,-7.52,-13.61,13.65,13.88,7.71,6.12,6.13,6.09
22.54,-7.50,-13.58,-7.51,-13.58,13.57,13.80,7.90,6.07,6.07,6.08
22.76,-7.48,-13.55,-7.48,-13.55,13.50,13.72,8.09,6.02,6.02,6.07
22.99,-7.45,-13.51,-7.43,-13.49,13.43,13.64,8.29,5.97,6.00,6.06
23.22,-7.34,-13.39,-7.34,-13.40,13.35,13.56,8.49,6.01,6.01,6.05
23.45,-7.22,-13.28,-7.23,-13.28,13.27,13.48,8.70,6.05,6.04,6.06
23.69,-7.10,-13.15,-7.10,-13.15,13.18,13.41,8.92,6.08,6.08,6.05
23.92,-6.99,-13.04,-7.00,-13.05,13.09,13.33,9.14,6.10,6.09,6.05
24.16,-6.90,-12.96,-6.91,-12.96,12.99,13.25,9.36,6.09,6.08,6.06
24.40,-6.83,-12.90,-6.83,-12.89,12.90,13.17,9.59,6.07,6.07,6.07
24.65,-6.76,-12.83,-6.76,-12.83,12.82,13.10,9.83,6.06,6.06,6.07
24.89,-6.69,-12.76,-6.69,-12.76,12.75,13.02,10.07,6.06,6.06,6.07
25.14,-6.62,-12.68,-6.62,-12.69,12.68,12.95,10.32,6.06,6.06,6.06
25.39,-6.56,-12.62,-6.56,-12.62,12.62,12.87,10.57,6.06,6.06,6.06
25.65,-6.50,-12.56,-6.50,-12.56,12.56,12.79,10.82,6.06,6.06,6.06
25.91,-6.43,-12.50,-6.44,-12.50,12.50,12.72,11.08,6.06,6.06,6.07
26.16,-6.37,-12.45,-6.37,-12.45,12.44,12.64,11.35,6.07,6.07,6.08
26.43,-6.31,-12.39,-6.31,-12.38,12.38,12.57,11.61,6.07,6.07,6.08
26.69,-6.24,-12.32,-6.24,-12.32,12.33,12.49,11.88,6.09,6.08,6.08
26.96,-6.18,-12.25,-6.19,-12.26,12.28,12.42,12.15,6.09,6.09,6.07
27.23,-6.14,-12.21,-6.14,-12.21,12.23,12.34,12.42,6.08,6.09,6.07
27.50,-6.10,-12.17,-6.10,-12.18,12.18,12.27,12.69,6.07,6.07,6.07
27.77,-6.06,-12.14,-6.06,-12.14,12.12,12.20,12.96,6.06,6.06,6.08
28.05,-6.02,-12.10,-6.01,-12.08,12.07,12.12,13.22,6.05,6.06,6.08
28.33,-5.95,-12.01,-5.96,-12.02,12.01,12.05,13.47,6.06,6.05,6.06
28.62,-5.89,-11.95,-5.89,-11.96,11.95,11.97,13.72,6.05,6.05,6.06
28.90,-5.82,-11.89,-5.82,-11.88,11.88,11.90,13.95,6.05,6.06,6.07
29.19,-5.74,-11.81,-5.74,-11.80,11.80,11.82,14.16,6.06,6.06,6.07
29.48,-5.65,-11.71,-5.65,-11.72,11.72,11.75,14.36,6.07,6.07,6.06
29.78,-5.57,-11.63,-5.57,-11.63,11.64,11.68,14.53,6.07,6.07,6.06
30.08,-5.48,-11.55,-5.49,-11.55,11.56,11.60,14.68,6.08,6.07,6.07
30.38,-5.42,-11.48,-5.42,-11.48,11.48,11.53,14.79,6.06,6.06,6.06
30.68,-5.36,-11.40,-5.36,-11.41,11.41,11.45,14.88,6.05,6.05,6.04
30.99,-5.30,-11.34,-5.30,-11.34,11.33,11.38,14.93,6.03,6.03,6.04
31.30,-5.24,-11.27,-5.24,-11.27,11.26,11.30,14.95,6.02,6.02,6.03
31.61,-5.17,-11.19,-5.17,-11.20,11.19,11.23,14.94,6.02,6.01,6.02
31.93,-5.11,-11.12,-5.11,-11.12,11.12,11.15,14.89,6.00,6.01,6.01
32.24,-5.04,-11.05,-5.04,-11.04,11.05,11.08,14.81,6.01,6.00,6.01
32.57,-4.98,-10.97,-4.98,-10.98,10.98,11.00,14.69,6.00,6.00,5.99
32.89,-4.92,-10.91,-4.92,-10.91,10.92,10.92,14.56,6.00,6.00,5.99
33.22,-4.86,-10.85,-4.86,-10.85,10.86,10.85,14.39,6.00,6.00,5.99
33.55,-4.81,-10.79,-4.81,-10.80,10.80,10.77,14.21,5.99,5.99,5.98
33.89,-4.76,-10.75,-4.76,-10.74,10.74,10.69,14.00,5.98,5.98,5.99
34.23,-4.71,-10.68,-4.71,-10.68,10.67,10.61,13.79,5.96,5.96,5.97
34.57,-4.65,-10.62,-4.66,-10.63,10.60,10.53,13.56,5.94,5.94,5.97
34.92,-4.60,-10.56,-4.59,-10.55,10.52,10.46,13.32,5.92,5.93,5.96
35.27,-4.50,-10.47,-4.49,-10.45,10.45,10.38,13.08,5.94,5.96,5.97
35.62,-4.38,-10.33,-4.39,-10.34,10.37,10.30,12.83,5.99,5.98,5.95
35.97,-4.27,-10.22,-4.30,-10.24,10.29,10.22,12.58,6.02,5.99,5.95
36.33,-4.24,-10.17,-4.24,-10.17,10.20,10.13,12.33,5.96,5.96,5.93
36.70,-4.21,-10.13,-4.20,-10.12,10.11,10.05,12.08,5.90,5.91,5.92
37.06,-4.17,-10.07,-4.16,-10.06,10.02,9.97,11.83,5.85,5.86,5.90
37.43,-4.08,-9.96,-4.09,-9.97,9.92,9.89,11.59,5.84,5.84,5.88
37.81,-4.00,-9.86,-4.00,-9.86,9.83,9.81,11.35,5.82,5.83,5.86
38.19,-3.90,-9.73,-3.90,-9.74,9.73,9.72,11.11,5.83,5.83,5.83
38.57,-3.81,-9.62,-3.81,-9.62,9.63,9.64,10.88,5.82,5.82,5.81
38.95,-3.72,-9.50,-3.72,-9.50,9.54,9.55,10.66,5.82,5.82,5.78
39.34,-3.65,-9.39,-3.65,-9.39,9.45,9.47,10.44,5.79,5.80,5.74
39.74,-3.59,-9.31,-3.59,-9.31,9.35,9.38,10.22,5.76,5.75,5.72
40.14,-3.55,-9.24,-3.57,-9.26,9.25,9.29,10.02,5.70,5.68,5.69
40.54,-3.54,-9.21,-3.55,-9.22,9.15,9.21,9.81,5.61,5.60,5.67
40.94,-3.54,-9.18,-3.49,-9.13,9.06,9.12,9.62,5.52,5.57,5.64
41.35,-3.39,-9.01,-3.38,-8.99,8.96,9.03,9.43,5.57,5.58,5.62
41.76,-3.21,-8.79,-3.25,-8.83,8.86,8.94,9.24,5.64,5.61,5.58
42.18,-3.11,-8.67,-3.14,-8.70,8.76,8.85,9.06,5.64,5.61,5.56
42.60,-3.10,-8.64,-3.09,-8.63,8.66,8.76,8.89,5.56,5.57,5.54
43.03,-3.09,-8.60,-3.05,-8.56,8.57,8.67,8.72,5.48,5.52,5.51
43.46,-3.00,-8.48,-2.99,-8.48,8.49,8.58,8.56,5.49,5.49,5.48
43.90,-2.90,-8.36,-2.95,-8.40,8.42,8.48,8.41,5.52,5.47,5.46
44.33,-2.92,-8.34,-2.94,-8.36,8.36,8.39,8.26,5.44,5.42,5.42
44.78,-2.97,-8.36,-2.93,-8.33,8.30,8.30,8.11,5.33,5.37,5.39
45.23,-2.92,-8.30,-2.89,-8.25,8.22,8.20,7.98,5.30,5.33,5.38
45.68,-2.79,-8.12,-2.82,-8.15,8.13,8.11,7.84,5.34,5.31,5.33
46.13,-2.71,-8.00,-2.77,-8.06,8.04,8.01,7.71,5.32,5.27,5.29
46.60,-2.73,-7.99,-2.72,-7.98,7.95,7.92,7.59,5.21,5.22,5.26
47.06,-2.72,-7.94,-2.62,-7.84,7.85,7.82,7.47,5.13,5.23,5.22
47.53,-2.51,-7.70,-2.51,-7.69,7.75,7.72,7.35,5.24,5.25,5.19
48.01,-2.30,-7.43,-2.45,-7.58,7.65,7.63,7.24,5.34,5.20,5.13
48.49,-2.44,-7.52,-2.44,-7.53,7.54,7.53,7.14,5.10,5.10,5.08
48.97,-2.58,-7.62,-2.46,-7.49,7.44,7.43,7.04,4.86,4.98,5.04
49.46,-2.43,-7.43,-2.43,-7.42,7.33,7.33,6.94,4.90,4.90,5.00
49.96,-2.25,-7.18,-2.31,-7.25,7.22,7.23,6.84,4.97,4.90,4.93
50.46,-2.19,-7.08,-2.19,-7.08,7.11,7.13,6.75,4.92,4.92,4.89
50.96,-2.14,-6.99,-2.13,-6.98,7.02,7.03,6.66,4.87,4.88,4.85
51.47,-2.09,-6.90,-2.09,-6.90,6.92,6.93,6.58,4.83,4.83,4.81
51.99,-2.04,-6.80,-2.02,-6.78,6.81,6.83,6.49,4.77,4.80,4.76
52.51,-1.95,-6.67,-1.95,-6.68,6.71,6.73,6.41,4.75,4.75,4.72
53.03,-1.87,-6.56,-1.93,-6.61,6.60,6.63,6.33,4.73,4.67,4.69
53.56,-1.93,-6.56,-1.92,-6.56,6.51,6.52,6.26,4.57,4.58,4.63
54.10,-1.96,-6.54,-1.90,-6.49,6.41,6.42,6.18,4.45,4.51,4.58
54.64,-1.83,-6.37,-1.83,-6.36,6.33,6.32,6.11,4.49,4.50,4.54
55.18,-1.70,-6.18,-1.70,-6.18,6.24,6.21,6.03,4.54,4.54,4.48
55.74,-1.57,-6.00,-1.62,-6.06,6.15,6.11,5.96,4.58,4.53,4.43
56.29,-1.57,-5.97,-1.62,-6.01,6.05,6.01,5.89,4.48,4.44,4.40
56.86,-1.70,-6.06,-1.62,-5.97,5.95,5.90,5.81,4.25,4.33,4.36
57.42,-1.63,-5.93,-1.61,-5.92,5.84,5.80,5.74,4.21,4.23,4.30
58.00,-1.50,-5.77,-1.55,-5.82,5.75,5.69,5.66,4.25,4.20,4.27
58.58,-1.44,-5.68,-1.43,-5.67,5.66,5.59,5.59,4.22,4.23,4.24
59.16,-1.36,-5.56,-1.33,-5.53,5.57,5.48,5.51,4.21,4.24,4.20
59.76,-1.23,-5.39,-1.26,-5.41,5.47,5.37,5.43,4.24,4.21,4.16
60.35,-1.20,-5.29,-1.23,-5.32,5.36,5.27,5.35,4.16,4.13,4.09
60.96,-1.23,-5.27,-1.25,-5.28,5.25,5.16,5.26,4.02,4.00,4.04
61.57,-1.28,-5.25,-1.23,-5.19,5.15,5.06,5.18,3.87,3.93,3.97
62.18,-1.23,-5.13,-1.15,-5.06,5.06,4.95,5.09,3.83,3.91,3.90
62.80,-0.98,-4.82,-1.11,-4.94,4.97,4.84,4.99,3.99,3.87,3.84
63.43,-1.02,-4.80,-1.07,-4.85,4.87,4.74,4.90,3.85,3.80,3.78
64.07,-1.16,-4.89,-1.04,-4.76,4.75,4.63,4.80,3.59,3.71,3.73
64.71,-1.01,-4.68,-1.03,-4.69,4.63,4.52,4.70,3.62,3.60,3.67
65.35,-0.90,-4.51,-0.95,-4.56,4.50,4.41,4.60,3.60,3.56,3.61
66.01,-0.84,-4.39,-0.84,-4.39,4.39,4.31,4.49,3.55,3.55,3.55
66.67,-0.77,-4.28,-0.72,-4.22,4.27,4.20,4.38,3.50,3.55,3.51
67.33,-0.66,-4.09,-0.65,-4.08,4.15,4.09,4.27,3.49,3.50,3.43
68.01,-0.49,-3.87,-0.63,-4.00,4.03,3.98,4.16,3.54,3.40,3.38
68.69,-0.69,-4.00,-0.63,-3.94,3.92,3.88,4.05,3.23,3.29,3.31
69.37,-0.70,-3.96,-0.61,-3.86,3.82,3.77,3.93,3.12,3.21,3.26
70.07,-0.54,-3.73,-0.56,-3.75,3.73,3.66,3.81,3.19,3.17,3.19
70.77,-0.39,-3.52,-0.46,-3.59,3.64,3.55,3.69,3.25,3.18,3.13
71.48,-0.42,-3.48,-0.45,-3.51,3.55,3.44,3.57,3.13,3.10,3.06
72.19,-0.52,-3.51,-0.49,-3.48,3.46,3.34,3.45,2.94,2.97,2.99
72.91,-0.56,-3.49,-0.50,-3.42,3.36,3.23,3.32,2.80,2.87,2.93
73.64,-0.42,-3.28,-0.42,-3.28,3.26,3.12,3.20,2.84,2.84,2.86
74.38,-0.29,-3.09,-0.35,-3.14,3.15,3.01,3.07,2.86,2.80,2.80
75.12,-0.24,-2.97,-0.29,-3.02,3.04,2.90,2.95,2.79,2.75,2.73
75.87,-0.33,-3.02,-0.25,-2.93,2.92,2.80,2.82,2.59,2.67,2.69
76.63,-0.20,-2.82,-0.20,-2.82,2.80,2.69,2.70,2.60,2.60,2.62
77.40,-0.08,-2.65,-0.11,-2.68,2.67,2.58,2.57,2.59,2.56,2.57
78.17,-0.01,-2.52,-0.00,-2.52,2.56,2.47,2.45,2.55,2.55,2.51
78.95,0.07,-2.40,0.05,-2.41,2.45,2.36,2.33,2.52,2.50,2.47
79.74,0.07,-2.34,0.07,-2.33,2.35,2.26,2.20,2.41,2.42,2.41
80.54,0.09,-2.26,0.10,-2.26,2.24,2.15,2.08,2.33,2.34,2.35
81.35,0.13,-2.17,0.14,-2.16,2.14,2.04,1.95,2.27,2.28,2.30
82.16,0.19,-2.06,0.19,-2.06,2.04,1.93,1.83,2.23,2.23,2.25
82.98,0.27,-1.92,0.24,-1.95,1.94,1.82,1.71,2.21,2.19,2.19
83.81,0.27,-1.86,0.29,-1.84,1.85,1.71,1.59,2.12,2.14,2.13
84.65,0.34,-1.73,0.33,-1.73,1.74,1.61,1.47,2.08,2.07,2.07
85.50,0.37,-1.63,0.37,-1.63,1.64,1.50,1.35,2.00,2.01,2.00
86.35,0.41,-1.53,0.41,-1.53,1.53,1.39,1.23,1.94,1.94,1.94
87.22,0.47,-1.42,0.46,-1.43,1.42,1.28,1.11,1.89,1.88,1.89
88.09,0.48,-1.34,0.50,-1.32,1.32,1.17,0.99,1.80,1.82,1.82
88.97,0.57,-1.20,0.55,-1.21,1.21,1.07,0.87,1.78,1.76,1.77
89.86,0.58,-1.11,0.60,-1.10,1.10,0.96,0.75,1.68,1.70,1.69
90.76,0.66,-0.97,0.64,-0.99,0.99,0.85,0.63,1.65,1.63,1.63
91.66,0.68,-0.88,0.68,-0.88,0.88,0.74,0.52,1.56,1.55,1.56
92.58,0.71,-0.79,0.72,-0.77,0.77,0.63,0.40,1.47,1.49,1.50
93.51,0.77,-0.66,0.77,-0.65,0.65,0.52,0.28,1.42,1.42,1.43
94.44,0.84,-0.52,0.83,-0.53,0.53,0.42,0.17,1.37,1.36,1.36
95.39,0.88,-0.40,0.87,-0.41,0.42,0.31,0.05,1.30,1.28,1.28
96.34,0.89,-0.31,0.90,-0.30,0.30,0.20,-0.06,1.19,1.20,1.20
97.30,0.92,-0.20,0.93,-0.19,0.18,0.09,-0.18,1.10,1.11,1.12
98.28,0.97,-0.06,0.96,-0.06,0.06,-0.02,-0.29,1.03,1.03,1.03
99.26,1.00,0.06,1.00,0.05,-0.05,-0.12,-0.41,0.95,0.95,0.94
100.25,1.03,0.17,1.02,0.16,-0.15,-0.23,-0.52,0.88,0.87,0.86
101.25,1.03,0.24,1.04,0.26,-0.26,-0.34,-0.63,0.77,0.78,0.79
102.27,1.06,0.36,1.08,0.38,-0.36,-0.45,-0.75,0.70,0.72,0.70
103.29,1.12,0.50,1.11,0.48,-0.47,-0.56,-0.86,0.65,0.64,0.62
104.32,1.15,0.60,1.10,0.55,-0.57,-0.67,-0.97,0.58,0.52,0.55
105.37,1.08,0.61,1.10,0.64,-0.68,-0.78,-1.08,0.40,0.42,0.47
106.42,1.06,0.68,1.16,0.78,-0.79,-0.88,-1.19,0.27,0.37,0.38
107.48,1.26,0.97,1.22,0.92,-0.91,-0.99,-1.30,0.35,0.31,0.29
108.56,1.37,1.14,1.24,1.02,-1.02,-1.10,-1.41,0.34,0.21,0.23
109.64,1.22,1.08,1.27,1.13,-1.13,-1.21,-1.52,0.09,0.14,0.14
110.74,1.16,1.10,1.32,1.25,-1.24,-1.32,-1.62,-0.08,0.07,0.06
111.85,1.47,1.48,1.37,1.39,-1.35,-1.43,-1.73,0.11,0.02,-0.01
112.97,1.53,1.61,1.43,1.51,-1.47,-1.54,-1.83,0.06,-0.04,-0.08
114.10,1.39,1.54,1.42,1.58,-1.58,-1.65,-1.93,-0.19,-0.16,-0.15
115.24,1.31,1.54,1.39,1.62,-1.69,-1.76,-2.03,-0.39,-0.31,-0.23
116.39,1.42,1.73,1.45,1.75,-1.81,-1.87,-2.13,-0.39,-0.36,-0.31
117.55,1.62,1.99,1.54,1.92,-1.92,-1.97,-2.23,-0.30,-0.38,-0.37
118.73,1.67,2.12,1.63,2.08,-2.03,-2.08,-2.32,-0.36,-0.40,-0.45
119.92,1.62,2.13,1.69,2.19,-2.14,-2.19,-2.41,-0.52,-0.46,-0.51
121.12,1.72,2.28,1.72,2.29,-2.26,-2.30,-2.50,-0.54,-0.54,-0.56
122.33,1.79,2.42,1.75,2.37,-2.39,-2.41,-2.59,-0.60,-0.64,-0.63
123.55,1.82,2.50,1.78,2.46,-2.52,-2.52,-2.68,-0.70,-0.74,-0.68
124.79,1.75,2.49,1.83,2.57,-2.63,-2.63,-2.76,-0.88,-0.80,-0.74
126.03,1.89,2.70,1.92,2.73,-2.74,-2.74,-2.84,-0.85,-0.82,-0.81
127.29,2.08,2.95,2.02,2.89,-2.85,-2.86,-2.93,-0.77,-0.83,-0.87
128.57,2.13,3.06,2.08,3.02,-2.96,-2.97,-3.00,-0.83,-0.88,-0.93
129.85,2.08,3.08,2.10,3.10,-3.08,-3.08,-3.08,-1.00,-0.98,-1.00
131.15,2.04,3.10,2.13,3.19,-3.20,-3.19,-3.16,-1.16,-1.07,-1.06
132.46,2.20,3.32,2.15,3.28,-3.32,-3.30,-3.23,-1.12,-1.17,-1.12
133.79,2.29,3.47,2.21,3.39,-3.43,-3.41,-3.30,-1.14,-1.22,-1.18
135.12,2.19,3.43,2.29,3.52,-3.53,-3.52,-3.37,-1.34,-1.24,-1.24
136.48,2.34,3.62,2.36,3.65,-3.62,-3.63,-3.44,-1.28,-1.26,-1.28
137.84,2.49,3.83,2.43,3.78,-3.72,-3.74,-3.52,-1.23,-1.29,-1.34
139.22,2.52,3.94,2.47,3.88,-3.83,-3.86,-3.59,-1.31,-1.36,-1.42
140.61,2.44,3.90,2.45,3.92,-3.95,-3.97,-3.66,-1.51,-1.49,-1.46
142.02,2.39,3.91,2.47,4.00,-4.07,-4.08,-3.73,-1.68,-1.60,-1.52
143.44,2.55,4.14,2.53,4.12,-4.19,-4.19,-3.80,-1.64,-1.66,-1.59
144.87,2.70,4.34,2.63,4.27,-4.30,-4.31,-3.87,-1.61,-1.68,-1.64
146.32,2.71,4.40,2.74,4.44,-4.41,-4.42,-3.94,-1.71,-1.67,-1.69
147.78,2.79,4.54,2.85,4.60,-4.52,-4.53,-4.02,-1.73,-1.68,-1.75
149.26,2.95,4.75,2.91,4.72,-4.64,-4.64,-4.09,-1.69,-1.73,-1.80
150.75,3.02,4.89,2.93,4.79,-4.75,-4.76,-4.17,-1.73,-1.82,-1.87
152.26,2.87,4.78,2.93,4.84,-4.87,-4.87,-4.25,-2.00,-1.94,-1.91
153.78,2.86,4.83,2.93,4.90,-4.97,-4.98,-4.33,-2.11,-2.04,-1.97
155.32,3.03,5.05,2.98,5.01,-5.08,-5.10,-4.41,-2.05,-2.10,-2.02
156.88,3.11,5.19,3.09,5.17,-5.19,-5.21,-4.50,-2.08,-2.10,-2.08
158.44,3.18,5.32,3.18,5.32,-5.30,-5.32,-4.59,-2.12,-2.12,-2.14
160.03,3.23,5.43,3.24,5.44,-5.42,-5.44,-4.68,-2.19,-2.18,-2.20
161.63,3.30,5.56,3.31,5.57,-5.53,-5.55,-4.78,-2.24,-2.23,-2.26
163.24,3.37,5.70,3.35,5.68,-5.65,-5.66,-4.88,-2.29,-2.30,-2.33
164.88,3.41,5.79,3.39,5.78,-5.77,-5.78,-4.98,-2.36,-2.38,-2.38
166.53,3.40,5.85,3.42,5.86,-5.88,-5.89,-5.09,-2.48,-2.46,-2.45
168.19,3.45,5.95,3.45,5.95,-5.98,-6.00,-5.20,-2.53,-2.54,-2.50
169.87,3.49,6.05,3.49,6.06,-6.08,-6.12,-5.31,-2.59,-2.59,-2.56
171.57,3.56,6.19,3.55,6.18,-6.18,-6.23,-5.43,-2.62,-2.63,-2.63
173.29,3.62,6.31,3.62,6.31,-6.28,-6.34,-5.55,-2.66,-2.66,-2.69
175.02,3.67,6.41,3.68,6.43,-6.39,-6.45,-5.68,-2.72,-2.70,-2.74
176.77,3.74,6.53,3.69,6.49,-6.50,-6.57,-5.81,-2.76,-2.80,-2.79
178.54,3.73,6.58,3.71,6.56,-6.61,-6.68,-5.94,-2.88,-2.89,-2.85
180.32,3.69,6.60,3.80,6.71,-6.72,-6.79,-6.08,-3.03,-2.91,-2.91
182.13,3.90,6.85,3.88,6.83,-6.83,-6.90,-6.22,-2.93,-2.95,-2.95
183.95,4.09,7.09,3.93,6.94,-6.95,-7.02,-6.37,-2.86,-3.01,-3.00
185.79,3.92,6.97,4.02,7.07,-7.06,-7.13,-6.52,-3.15,-3.05,-3.05
187.65,4.00,7.09,4.10,7.19,-7.19,-7.24,-6.68,-3.19,-3.09,-3.09
189.52,4.26,7.40,4.16,7.29,-7.32,-7.35,-6.84,-3.06,-3.16,-3.14
191.42,4.34,7.51,4.26,7.43,-7.43,-7.46,-7.00,-3.09,-3.17,-3.17
193.33,4.22,7.44,4.34,7.57,-7.54,-7.57,-7.17,-3.32,-3.19,-3.22
195.27,4.37,7.64,4.39,7.66,-7.64,-7.67,-7.35,-3.27,-3.25,-3.27
197.22,4.55,7.87,4.44,7.75,-7.74,-7.78,-7.52,-3.19,-3.30,-3.32
199.19,4.48,7.83,4.50,7.85,-7.84,-7.89,-7.70,-3.36,-3.35,-3.35
201.18,4.46,7.86,4.52,7.92,-7.95,-7.99,-7.89,-3.49,-3.43,-3.40
203.19,4.56,7.99,4.55,7.99,-8.05,-8.10,-8.07,-3.49,-3.50,-3.43
205.23,4.67,8.14,4.64,8.11,-8.15,-8.20,-8.26,-3.48,-3.51,-3.47
207.28,4.73,8.23,4.73,8.24,-8.23,-8.30,-8.46,-3.50,-3.50,-3.50
209.35,4.79,8.33,4.83,8.38,-8.32,-8.40,-8.65,-3.53,-3.49,-3.54
211.44,4.90,8.49,4.89,8.48,-8.40,-8.50,-8.84,-3.50,-3.51,-3.59
213.56,4.99,8.61,4.90,8.52,-8.48,-8.60,-9.04,-3.49,-3.58,-3.62
215.69,4.85,8.51,4.88,8.55,-8.55,-8.70,-9.23,-3.70,-3.67,-3.66
217.85,4.80,8.49,4.88,8.57,-8.63,-8.79,-9.42,-3.83,-3.75,-3.69
220.03,4.94,8.68,4.90,8.64,-8.70,-8.89,-9.61,-3.76,-3.80,-3.74
222.23,5.02,8.78,5.01,8.77,-8.79,-8.98,-9.80,-3.77,-3.78,-3.76
224.45,5.08,8.87,5.06,8.86,-8.87,-9.07,-9.98,-3.80,-3.81,-3.79
226.70,5.14,8.96,5.12,8.93,-8.96,-9.16,-10.15,-3.82,-3.84,-3.82
228.96,5.12,8.96,5.22,9.06,-9.05,-9.24,-10.32,-3.93,-3.83,-3.84
231.25,5.36,9.21,5.33,9.19,-9.13,-9.32,-10.48,-3.77,-3.80,-3.85
233.57,5.49,9.37,5.42,9.30,-9.22,-9.40,-10.62,-3.73,-3.80,-3.88
235.90,5.46,9.35,5.45,9.34,-9.30,-9.48,-10.75,-3.84,-3.85,-3.89
238.26,5.39,9.30,5.42,9.32,-9.37,-9.56,-10.87,-3.99,-3.96,-3.91
240.64,5.39,9.29,5.43,9.34,-9.44,-9.63,-10.97,-4.05,-4.01,-3.90
243.05,5.53,9.44,5.54,9.46,-9.50,-9.70,-11.06,-3.97,-3.96,-3.91
245.48,5.69,9.62,5.67,9.60,-9.55,-9.76,-11.13,-3.86,-3.88,-3.93
247.93,5.81,9.75,5.73,9.67,-9.61,-9.82,-11.18,-3.80,-3.87,-3.94
250.41,5.74,9.67,5.75,9.69,-9.66,-9.88,-11.21,-3.92,-3.91,-3.93
252.92,5.68,9.61,5.77,9.71,-9.72,-9.94,-11.22,-4.04,-3.95,-3.93
255.45,5.84,9.79,5.80,9.74,-9.78,-9.99,-11.22,-3.94,-3.98,-3.95
258.00,5.89,9.85,5.85,9.81,-9.83,-10.04,-11.19,-3.94,-3.98,-3.96
260.58,5.89,9.86,5.91,9.88,-9.87,-10.09,-11.15,-3.98,-3.96,-3.97
263.19,5.90,9.88,5.92,9.91,-9.91,-10.13,-11.09,-4.02,-3.99,-3.98
265.82,5.98,9.98,5.95,9.95,-9.96,-10.16,-11.02,-3.98,-4.01,-4.00
268.48,5.99,9.99,6.00,10.01,-10.01,-10.20,-10.94,-4.02,-4.01,-4.00
271.16,6.05,10.07,6.05,10.06,-10.05,-10.23,-10.84,-4.01,-4.01,-4.02
273.87,6.08,10.11,6.07,10.10,-10.09,-10.25,-10.73,-4.01,-4.02,-4.03
276.61,6.08,10.13,6.08,10.14,-10.12,-10.27,-10.61,-4.04,-4.04,-4.05
279.38,6.08,10.16,6.08,10.15,-10.14,-10.29,-10.49,-4.07,-4.06,-4.08
282.17,6.08,10.16,6.08,10.16,-10.17,-10.30,-10.36,-4.09,-4.09,-4.08
284.99,6.09,10.17,6.09,10.17,-10.18,-10.31,-10.23,-4.09,-4.09,-4.08
287.84,6.10,10.18,6.10,10.19,-10.19,-10.31,-10.09,-4.10,-4.10,-4.08
290.72,6.11,10.21,6.11,10.20,-10.20,-10.31,-9.95,-4.10,-4.10,-4.10
293.63,6.12,10.21,6.12,10.21,-10.21,-10.31,-9.82,-4.09,-4.09,-4.09
296.57,6.13,10.22,6.13,10.23,-10.22,-10.30,-9.68,-4.10,-4.09,-4.09
299.53,6.14,10.24,6.14,10.24,-10.24,-10.29,-9.54,-4.10,-4.10,-4.10
302.53,6.16,10.25,6.15,10.25,-10.26,-10.27,-9.41,-4.11,-4.11,-4.09
305.55,6.17,10.27,6.16,10.26,-10.28,-10.25,-9.27,-4.11,-4.12,-4.10
308.61,6.17,10.26,6.17,10.27,-10.29,-10.23,-9.14,-4.12,-4.12,-4.09
311.69,6.18,10.29,6.18,10.29,-10.29,-10.20,-9.02,-4.11,-4.10,-4.11
314.81,6.19,10.29,6.22,10.32,-10.27,-10.17,-8.90,-4.08,-4.06,-4.10
317.96,6.22,10.34,6.20,10.32,-10.25,-10.14,-8.78,-4.03,-4.05,-4.12
321.14,6.21,10.32,6.13,10.25,-10.22,-10.10,-8.67,-4.02,-4.09,-4.11
324.35,5.99,10.11,6.05,10.17,-10.19,-10.06,-8.56,-4.20,-4.14,-4.12
327.59,5.93,10.04,5.98,10.09,-10.14,-10.01,-8.46,-4.21,-4.17,-4.11
330.87,5.97,10.09,5.94,10.06,-10.09,-9.96,-8.37,-4.12,-4.16,-4.12
334.18,5.95,10.08,5.93,10.05,-10.05,-9.91,-8.28,-4.10,-4.12,-4.13
337.52,5.89,10.01,5.89,10.01,-10.00,-9.86,-8.19,-4.12,-4.12,-4.12
340.90,5.81,9.94,5.83,9.95,-9.96,-9.80,-8.11,-4.15,-4.14,-4.13
344.30,5.78,9.90,5.79,9.92,-9.93,-9.74,-8.04,-4.15,-4.14,-4.12
347.75,5.78,9.89,5.77,9.90,-9.89,-9.68,-7.97,-4.11,-4.12,-4.11
351.23,5.77,9.90,5.75,9.87,-9.85,-9.62,-7.91,-4.08,-4.10,-4.13
354.74,5.71,9.82,5.72,9.83,-9.80,-9.55,-7.86,-4.09,-4.08,-4.11
358.28,5.64,9.75,5.64,9.75,-9.75,-9.48,-7.81,-4.11,-4.11,-4.11
361.87,5.59,9.70,5.56,9.66,-9.70,-9.41,-7.76,-4.11,-4.14,-4.11
365.49,5.45,9.55,5.53,9.63,-9.64,-9.34,-7.72,-4.19,-4.12,-4.10
369.14,5.50,9.59,5.48,9.57,-9.58,-9.26,-7.69,-4.08,-4.10,-4.09
372.83,5.51,9.59,5.42,9.51,-9.51,-9.19,-7.66,-4.00,-4.08,-4.08
376.56,5.31,9.40,5.40,9.48,-9.44,-9.11,-7.64,-4.13,-4.05,-4.09
380.33,5.31,9.40,5.31,9.40,-9.38,-9.03,-7.62,-4.07,-4.07,-4.09
384.13,5.29,9.37,5.21,9.30,-9.33,-8.95,-7.61,-4.04,-4.12,-4.08
387.97,5.11,9.19,5.14,9.22,-9.26,-8.87,-7.61,-4.16,-4.13,-4.08
391.85,5.01,9.10,5.07,9.16,-9.19,-8.79,-7.60,-4.18,-4.12,-4.09
395.77,5.03,9.13,5.02,9.11,-9.11,-8.71,-7.61,-4.08,-4.09,-4.10
399.73,5.03,9.13,4.98,9.08,-9.02,-8.62,-7.61,-3.99,-4.04,-4.10
403.72,4.89,8.98,4.91,9.01,-8.93,-8.54,-7.62,-4.04,-4.02,-4.09
407.76,4.76,8.87,4.75,8.86,-8.84,-8.45,-7.63,-4.08,-4.09,-4.11
411.84,4.61,8.73,4.58,8.70,-8.75,-8.36,-7.65,-4.14,-4.17,-4.12
415.96,4.41,8.53,4.48,8.61,-8.65,-8.28,-7.67,-4.24,-4.18,-4.12
420.12,4.38,8.51,4.41,8.53,-8.55,-8.19,-7.69,-4.18,-4.15,-4.13
424.32,4.44,8.56,4.34,8.46,-8.46,-8.10,-7.71,-4.02,-4.11,-4.12
428.56,4.28,8.38,4.29,8.40,-8.37,-8.01,-7.73,-4.09,-4.08,-4.10
432.85,4.17,8.25,4.21,8.30,-8.29,-7.92,-7.75,-4.13,-4.08,-4.08
437.18,4.15,8.22,4.13,8.20,-8.23,-7.83,-7.77,-4.09,-4.10,-4.07
441.55,4.11,8.15,4.10,8.14,-8.18,-7.75,-7.79,-4.07,-4.07,-4.04
445.96,4.08,8.08,4.08,8.09,-8.10,-7.66,-7.81,-4.03,-4.02,-4.00
450.42,4.07,8.03,4.07,8.03,-8.01,-7.57,-7.83,-3.95,-3.95,-3.96
454.93,4.04,7.95,4.05,7.96,-7.91,-7.48,-7.84,-3.87,-3.86,-3.91
459.48,4.04,7.89,4.03,7.88,-7.80,-7.39,-7.85,-3.76,-3.77,-3.85
464.07,3.98,7.76,3.97,7.76,-7.69,-7.30,-7.86,-3.71,-3.72,-3.78
