frequency,raw,error,smoothed,error_smoothed,equalization,parametric_eq,fixed_band_eq,equalized_raw,equalized_smoothed,target
20.00,-22.32,-25.12,-22.39,-25.21,25.21,24.44,10.36,2.89,2.82,2.80
20.20,-22.18,-25.02,-22.21,-25.06,25.06,24.35,10.54,2.88,2.85,2.84
20.40,-22.05,-24.92,-22.03,-24.91,24.91,24.27,10.73,2.86,2.88,2.87
20.61,-21.91,-24.81,-21.85,-24.75,24.75,24.18,10.93,2.84,2.91,2.90
20.81,-21.77,-24.71,-21.67,-24.60,24.60,24.09,11.13,2.83,2.93,2.94
21.02,-21.63,-24.61,-21.49,-24.44,24.44,23.99,11.33,2.82,2.95,2.98
21.23,-21.38,-24.37,-21.31,-24.29,24.29,23.89,11.54,2.91,2.97,2.99
21.44,-21.13,-24.15,-21.14,-24.14,24.14,23.79,11.76,3.00,2.99,3.01
21.66,-20.89,-23.92,-20.97,-23.98,23.98,23.69,11.98,3.09,3.01,3.03
21.87,-20.64,-23.69,-20.80,-23.83,23.83,23.58,12.21,3.18,3.03,3.04
22.09,-20.46,-23.51,-20.63,-23.67,23.67,23.46,12.44,3.22,3.05,3.05
22.31,-20.35,-23.40,-20.46,-23.52,23.52,23.35,12.68,3.17,3.06,3.05
22.54,-20.24,-23.30,-20.29,-23.36,23.36,23.22,12.93,3.12,3.07,3.06
22.76,-20.13,-23.20,-20.13,-23.20,23.20,23.10,13.18,3.08,3.08,3.07
22.99,-20.02,-23.09,-19.96,-23.05,23.05,22.97,13.45,3.03,3.09,3.07
23.22,-19.87,-22.95,-19.80,-22.89,22.89,22.83,13.72,3.02,3.09,3.08
23.45,-19.72,-22.81,-19.64,-22.74,22.74,22.70,14.00,3.02,3.10,3.09
23.69,-19.57,-22.67,-19.48,-22.59,22.59,22.55,14.28,3.02,3.10,3.10
23.92,-19.42,-22.53,-19.33,-22.43,22.43,22.41,14.58,3.02,3.11,3.11
24.16,-19.23,-22.35,-19.17,-22.28,22.28,22.26,14.89,3.05,3.11,3.12
24.40,-19.00,-22.14,-19.01,-22.12,22.12,22.11,15.21,3.12,3.11,3.13
24.65,-18.80,-21.92,-18.84,-21.96,21.96,21.95,15.54,3.16,3.12,3.12
24.89,-18.58,-21.71,-18.67,-21.79,21.79,21.79,15.88,3.20,3.12,3.12
25.14,-18.42,-21.54,-18.50,-21.62,21.62,21.63,16.24,3.20,3.12,3.12
25.39,-18.27,-21.39,-18.32,-21.44,21.44,21.46,16.61,3.18,3.12,3.12
25.65,-18.12,-21.24,-18.14,-21.26,21.26,21.29,16.99,3.14,3.12,3.12
25.91,-17.97,-21.07,-17.97,-21.09,21.09,21.12,17.39,3.11,3.12,3.10
26.16,-17.83,-20.94,-17.80,-20.92,20.92,20.95,17.81,3.09,3.12,3.11
26.43,-17.69,-20.80,-17.64,-20.76,20.76,20.77,18.24,3.07,3.11,3.11
26.69,-17.55,-20.66,-17.50,-20.61,20.61,20.59,18.70,3.06,3.11,3.11
26.96,-17.40,-20.51,-17.36,-20.47,20.47,20.41,19.18,3.07,3.11,3.11
27.23,-17.21,-20.32,-17.21,-20.32,20.32,20.23,19.67,3.11,3.10,3.11
27.50,-17.02,-20.13,-17.06,-20.16,20.16,20.05,20.20,3.14,3.10,3.11
27.77,-16.82,-19.92,-16.90,-20.00,20.00,19.87,20.74,3.19,3.10,3.10
28.05,-16.65,-19.75,-16.74,-19.84,19.84,19.68,21.31,3.20,3.10,3.10
28.33,-16.58,-19.66,-16.59,-19.69,19.69,19.50,21.91,3.11,3.10,3.08
28.62,-16.51,-19.60,-16.44,-19.54,19.54,19.31,22.53,3.03,3.10,3.09
28.90,-16.43,-19.52,-16.29,-19.38,19.38,19.13,23.17,2.95,3.09,3.09
29.19,-16.24,-19.32,-16.13,-19.22,19.22,18.94,23.82,2.98,3.09,3.08
29.48,-15.98,-19.07,-15.96,-19.05,19.05,18.75,24.48,3.07,3.09,3.09
29.78,-15.72,-18.81,-15.80,-18.88,18.88,18.57,25.13,3.16,3.08,3.09
30.08,-15.50,-18.59,-15.64,-18.71,18.71,18.38,25.74,3.21,3.08,3.09
30.38,-15.43,-18.50,-15.48,-18.55,18.55,18.20,26.28,3.12,3.07,3.07
30.68,-15.35,-18.42,-15.31,-18.38,18.38,18.01,26.70,3.03,3.07,3.07
30.99,-15.27,-18.33,-15.15,-18.21,18.21,17.83,26.98,2.94,3.06,3.06
31.30,-15.04,-18.10,-14.97,-18.03,18.03,17.64,27.07,2.99,3.06,3.06
31.61,-14.80,-17.86,-14.80,-17.86,17.86,17.46,26.96,3.06,3.05,3.06
31.93,-14.56,-17.60,-14.64,-17.69,17.69,17.28,26.67,3.13,3.05,3.04
32.24,-14.41,-17.44,-14.48,-17.53,17.53,17.10,26.23,3.12,3.04,3.03
32.57,-14.30,-17.33,-14.33,-17.37,17.37,16.92,25.69,3.07,3.04,3.03
32.89,-14.19,-17.22,-14.18,-17.21,17.21,16.74,25.08,3.03,3.03,3.03
33.22,-14.04,-17.07,-14.03,-17.05,17.05,16.56,24.44,3.02,3.03,3.03
33.55,-13.88,-16.90,-13.87,-16.89,16.89,16.38,23.78,3.02,3.02,3.02
33.89,-13.72,-16.74,-13.71,-16.73,16.73,16.21,23.14,3.01,3.02,3.02
34.23,-13.58,-16.60,-13.56,-16.57,16.57,16.04,22.51,3.00,3.01,3.02
34.57,-13.45,-16.46,-13.42,-16.42,16.42,15.86,21.90,2.98,3.01,3.01
34.92,-13.31,-16.31,-13.28,-16.28,16.28,15.69,21.32,2.97,3.00,3.00
35.27,-13.14,-16.14,-13.14,-16.14,16.14,15.52,20.76,3.00,3.00,3.00
35.62,-12.96,-15.95,-12.99,-15.99,15.99,15.35,20.22,3.03,2.99,2.99
35.97,-12.78,-15.76,-12.84,-15.83,15.83,15.19,19.71,3.05,2.99,2.98
36.33,-12.68,-15.66,-12.69,-15.67,15.67,15.02,19.22,3.00,2.98,2.98
36.70,-12.58,-15.56,-12.55,-15.52,15.52,14.86,18.76,2.94,2.97,2.98
37.06,-12.47,-15.43,-12.40,-15.37,15.37,14.70,18.31,2.90,2.97,2.96
37.43,-12.29,-15.25,-12.26,-15.22,15.22,14.53,17.89,2.94,2.96,2.96
37.81,-12.12,-15.07,-12.12,-15.07,15.07,14.38,17.48,2.95,2.95,2.95
38.19,-11.95,-14.89,-11.97,-14.92,14.92,14.22,17.09,2.97,2.95,2.94
38.57,-11.80,-14.74,-11.83,-14.77,14.77,14.06,16.72,2.97,2.94,2.94
38.95,-11.64,-14.57,-11.68,-14.62,14.62,13.91,16.36,2.98,2.93,2.93
39.34,-11.53,-14.45,-11.54,-14.47,14.47,13.75,16.01,2.94,2.93,2.92
39.74,-11.43,-14.33,-11.40,-14.32,14.32,13.60,15.68,2.89,2.92,2.90
40.14,-11.30,-14.21,-11.25,-14.16,14.16,13.45,15.36,2.86,2.91,2.91
40.54,-11.13,-14.03,-11.09,-13.99,13.99,13.30,15.06,2.86,2.90,2.90
40.94,-10.96,-13.86,-10.94,-13.83,13.83,13.16,14.76,2.87,2.89,2.90
41.35,-10.79,-13.67,-10.79,-13.66,13.66,13.01,14.47,2.88,2.87,2.88
41.76,-10.63,-13.49,-10.64,-13.50,13.50,12.87,14.20,2.87,2.85,2.86
42.18,-10.48,-13.33,-10.50,-13.34,13.34,12.72,13.93,2.86,2.83,2.85
42.60,-10.36,-13.18,-10.35,-13.16,13.16,12.58,13.67,2.80,2.81,2.82
43.03,-10.24,-13.05,-10.19,-12.98,12.98,12.44,13.42,2.74,2.79,2.81
43.46,-10.04,-12.82,-10.04,-12.80,12.80,12.30,13.18,2.77,2.76,2.78
43.90,-9.85,-12.58,-9.90,-12.63,12.63,12.16,12.94,2.78,2.74,2.73
44.33,-9.72,-12.42,-9.76,-12.47,12.47,12.03,12.72,2.75,2.71,2.70
44.78,-9.62,-12.29,-9.62,-12.30,12.30,11.89,12.49,2.68,2.68,2.67
45.23,-9.50,-12.14,-9.49,-12.14,12.14,11.76,12.28,2.64,2.66,2.64
45.68,-9.37,-11.98,-9.36,-11.98,11.98,11.63,12.07,2.62,2.63,2.61
46.13,-9.23,-11.82,-9.23,-11.83,11.83,11.50,11.87,2.61,2.61,2.59
46.60,-9.05,-11.63,-9.10,-11.69,11.69,11.37,11.67,2.64,2.59,2.58
47.06,-8.89,-11.45,-8.97,-11.54,11.54,11.24,11.48,2.65,2.57,2.56
47.53,-8.86,-11.42,-8.83,-11.40,11.40,11.12,11.29,2.54,2.56,2.56
48.01,-8.84,-11.40,-8.71,-11.26,11.26,10.99,11.11,2.42,2.55,2.56
48.49,-8.64,-11.18,-8.58,-11.13,11.13,10.87,10.93,2.49,2.55,2.54
48.97,-8.44,-10.97,-8.46,-11.00,11.00,10.74,10.76,2.56,2.54,2.53
49.46,-8.32,-10.84,-8.33,-10.87,10.87,10.62,10.59,2.55,2.54,2.52
49.96,-8.21,-10.73,-8.19,-10.73,10.73,10.50,10.43,2.52,2.54,2.52
50.46,-8.08,-10.61,-8.07,-10.60,10.60,10.38,10.27,2.52,2.53,2.53
50.96,-7.94,-10.48,-7.96,-10.48,10.48,10.26,10.11,2.54,2.52,2.54
51.47,-7.80,-10.33,-7.84,-10.36,10.36,10.15,9.96,2.56,2.51,2.53
51.99,-7.65,-10.16,-7.73,-10.23,10.23,10.03,9.81,2.58,2.50,2.51
52.51,-7.58,-10.08,-7.61,-10.09,10.09,9.92,9.67,2.51,2.48,2.50
53.03,-7.51,-9.98,-7.48,-9.94,9.94,9.80,9.53,2.43,2.45,2.47
53.56,-7.39,-9.83,-7.36,-9.79,9.79,9.69,9.39,2.40,2.42,2.44
54.10,-7.27,-9.67,-7.26,-9.65,9.65,9.58,9.25,2.38,2.39,2.40
54.64,-7.14,-9.49,-7.15,-9.50,9.50,9.47,9.12,2.36,2.35,2.35
55.18,-7.06,-9.36,-7.04,-9.34,9.34,9.36,8.98,2.28,2.30,2.30
55.74,-7.06,-9.31,-6.92,-9.18,9.18,9.25,8.86,2.12,2.25,2.25
56.29,-6.93,-9.13,-6.82,-9.01,9.01,9.15,8.73,2.09,2.20,2.20
56.86,-6.67,-8.81,-6.71,-8.85,8.85,9.04,8.61,2.18,2.14,2.14
57.42,-6.51,-8.58,-6.60,-8.68,8.68,8.94,8.48,2.18,2.08,2.07
58.00,-6.38,-8.39,-6.50,-8.52,8.52,8.83,8.36,2.14,2.02,2.01
58.58,-6.38,-8.33,-6.39,-8.35,8.35,8.73,8.24,1.97,1.96,1.95
59.16,-6.34,-8.24,-6.29,-8.19,8.19,8.63,8.13,1.85,1.90,1.90
59.76,-6.21,-8.05,-6.19,-8.02,8.02,8.53,8.01,1.81,1.83,1.84
60.35,-6.07,-7.84,-6.09,-7.86,7.86,8.43,7.90,1.79,1.77,1.77
60.96,-5.93,-7.65,-6.00,-7.71,7.71,8.33,7.79,1.78,1.71,1.72
61.57,-5.92,-7.57,-5.90,-7.55,7.55,8.23,7.68,1.63,1.65,1.65
62.18,-5.88,-7.46,-5.80,-7.40,7.40,8.13,7.57,1.52,1.60,1.58
62.80,-5.74,-7.28,-5.72,-7.27,7.27,8.04,7.46,1.53,1.54,1.54
63.43,-5.66,-7.14,-5.64,-7.14,7.14,7.94,7.35,1.48,1.49,1.48
64.07,-5.59,-7.03,-5.55,-7.00,7.00,7.85,7.25,1.41,1.44,1.44
64.71,-5.47,-6.86,-5.46,-6.86,6.86,7.75,7.14,1.39,1.40,1.39
65.35,-5.36,-6.70,-5.36,-6.72,6.72,7.66,7.04,1.36,1.35,1.34
66.01,-5.24,-6.55,-5.27,-6.58,6.58,7.57,6.94,1.34,1.31,1.31
66.67,-5.24,-6.51,-5.18,-6.45,6.45,7.48,6.83,1.22,1.28,1.27
67.33,-5.16,-6.40,-5.10,-6.34,6.34,7.39,6.73,1.18,1.24,1.24
68.01,-5.01,-6.22,-5.03,-6.24,6.24,7.30,6.63,1.23,1.21,1.21
68.69,-5.00,-6.18,-4.96,-6.14,6.14,7.21,6.54,1.14,1.18,1.18
69.37,-4.91,-6.05,-4.91,-6.05,6.05,7.12,6.44,1.15,1.15,1.14
70.07,-4.78,-5.89,-4.87,-5.99,5.99,7.04,6.34,1.21,1.12,1.11
70.77,-4.78,-5.88,-4.84,-5.93,5.93,6.95,6.25,1.15,1.09,1.10
71.48,-4.78,-5.84,-4.82,-5.88,5.88,6.87,6.16,1.10,1.06,1.06
72.19,-4.78,-5.82,-4.83,-5.85,5.85,6.78,6.07,1.07,1.03,1.04
72.91,-4.78,-5.78,-4.85,-5.85,5.85,6.70,5.98,1.07,1.00,1.00
73.64,-4.93,-5.90,-4.89,-5.86,5.86,6.62,5.89,0.93,0.97,0.97
74.38,-5.01,-5.95,-4.95,-5.89,5.89,6.54,5.80,0.88,0.94,0.94
75.12,-5.01,-5.92,-5.03,-5.94,5.94,6.46,5.71,0.93,0.91,0.91
75.87,-5.01,-5.89,-5.12,-6.00,6.00,6.38,5.63,1.00,0.88,0.88
76.63,-5.12,-5.97,-5.22,-6.07,6.07,6.30,5.55,0.95,0.85,0.85
77.40,-5.23,-6.05,-5.31,-6.13,6.13,6.22,5.47,0.91,0.83,0.82
78.17,-5.33,-6.12,-5.39,-6.19,6.19,6.14,5.39,0.86,0.80,0.79
78.95,-5.46,-6.24,-5.45,-6.23,6.23,6.06,5.31,0.77,0.78,0.78
79.74,-5.64,-6.40,-5.49,-6.25,6.25,5.99,5.23,0.62,0.76,0.76
80.54,-5.70,-6.44,-5.52,-6.27,6.27,5.91,5.16,0.57,0.75,0.74
81.35,-5.70,-6.42,-5.53,-6.27,6.27,5.84,5.08,0.57,0.73,0.72
82.16,-5.68,-6.40,-5.51,-6.24,6.24,5.76,5.01,0.56,0.73,0.72
82.98,-5.59,-6.31,-5.48,-6.20,6.20,5.69,4.94,0.61,0.72,0.72
83.81,-5.49,-6.20,-5.43,-6.14,6.14,5.62,4.87,0.66,0.71,0.71
84.65,-5.32,-6.02,-5.36,-6.07,6.07,5.55,4.81,0.76,0.71,0.70
85.50,-5.18,-5.89,-5.27,-5.98,5.98,5.48,4.74,0.81,0.71,0.71
86.35,-5.07,-5.78,-5.17,-5.89,5.89,5.41,4.68,0.82,0.71,0.71
87.22,-5.00,-5.71,-5.06,-5.78,5.78,5.34,4.62,0.78,0.72,0.71
88.09,-4.94,-5.65,-4.94,-5.66,5.66,5.27,4.56,0.72,0.72,0.71
88.97,-4.79,-5.52,-4.83,-5.54,5.54,5.20,4.50,0.76,0.72,0.73
89.86,-4.63,-5.36,-4.72,-5.44,5.44,5.13,4.44,0.81,0.72,0.73
90.76,-4.57,-5.28,-4.62,-5.33,5.33,5.07,4.39,0.76,0.71,0.71
91.66,-4.56,-5.28,-4.52,-5.23,5.23,5.00,4.33,0.67,0.71,0.72
92.58,-4.48,-5.17,-4.43,-5.13,5.13,4.94,4.28,0.65,0.70,0.69
93.51,-4.37,-5.07,-4.35,-5.04,5.04,4.87,4.23,0.67,0.69,0.70
94.44,-4.33,-5.01,-4.28,-4.96,4.96,4.81,4.18,0.63,0.68,0.68
95.39,-4.23,-4.90,-4.22,-4.88,4.88,4.74,4.13,0.65,0.66,0.67
96.34,-4.10,-4.73,-4.15,-4.79,4.79,4.68,4.08,0.70,0.64,0.63
97.30,-4.10,-4.71,-4.09,-4.71,4.71,4.62,4.04,0.61,0.62,0.61
98.28,-4.05,-4.64,-4.03,-4.62,4.62,4.56,4.00,0.58,0.60,0.59
99.26,-3.90,-4.46,-3.97,-4.54,4.54,4.50,3.95,0.64,0.57,0.56
100.25,-3.87,-4.40,-3.92,-4.45,4.45,4.44,3.91,0.59,0.53,0.53
101.25,-3.87,-4.37,-3.87,-4.37,4.37,4.38,3.87,0.50,0.50,0.50
102.27,-3.87,-4.33,-3.82,-4.28,4.28,4.32,3.83,0.41,0.46,0.46
103.29,-3.87,-4.28,-3.78,-4.19,4.19,4.27,3.79,0.33,0.41,0.41
104.32,-3.82,-4.19,-3.75,-4.11,4.11,4.21,3.76,0.29,0.36,0.37
105.37,-3.70,-4.02,-3.72,-4.03,4.03,4.15,3.72,0.33,0.31,0.32
106.42,-3.64,-3.91,-3.70,-3.95,3.95,4.10,3.68,0.31,0.25,0.27
107.48,-3.64,-3.84,-3.68,-3.87,3.87,4.04,3.65,0.23,0.19,0.20
108.56,-3.64,-3.76,-3.66,-3.79,3.79,3.99,3.61,0.15,0.12,0.12
109.64,-3.64,-3.69,-3.65,-3.70,3.70,3.94,3.58,0.07,0.05,0.05
110.74,-3.64,-3.63,-3.64,-3.63,3.63,3.88,3.55,-0.01,-0.02,-0.01
111.85,-3.64,-3.56,-3.63,-3.54,3.54,3.83,3.51,-0.10,-0.09,-0.08
112.97,-3.64,-3.47,-3.62,-3.46,3.46,3.78,3.48,-0.18,-0.16,-0.17
114.10,-3.64,-3.41,-3.62,-3.39,3.39,3.73,3.45,-0.25,-0.23,-0.23
115.24,-3.64,-3.33,-3.62,-3.32,3.32,3.68,3.41,-0.32,-0.30,-0.31
116.39,-3.64,-3.25,-3.63,-3.26,3.26,3.63,3.38,-0.38,-0.37,-0.39
117.55,-3.64,-3.19,-3.63,-3.20,3.20,3.58,3.35,-0.44,-0.43,-0.45
118.73,-3.64,-3.12,-3.64,-3.15,3.15,3.53,3.32,-0.49,-0.49,-0.52
119.92,-3.64,-3.08,-3.64,-3.09,3.09,3.48,3.28,-0.55,-0.55,-0.56
121.12,-3.64,-3.02,-3.64,-3.04,3.04,3.44,3.25,-0.60,-0.60,-0.62
122.33,-3.64,-2.98,-3.64,-3.00,3.00,3.39,3.21,-0.64,-0.64,-0.66
123.55,-3.64,-2.96,-3.65,-2.96,2.96,3.35,3.18,-0.68,-0.69,-0.68
124.79,-3.64,-2.92,-3.65,-2.93,2.93,3.30,3.14,-0.71,-0.73,-0.72
126.03,-3.64,-2.88,-3.65,-2.89,2.89,3.26,3.11,-0.74,-0.76,-0.76
127.29,-3.64,-2.85,-3.65,-2.85,2.85,3.21,3.07,-0.78,-0.80,-0.79
128.57,-3.64,-2.81,-3.64,-2.81,2.81,3.17,3.04,-0.83,-0.83,-0.83
129.85,-3.64,-2.78,-3.63,-2.77,2.77,3.13,3.00,-0.87,-0.86,-0.86
131.15,-3.64,-2.75,-3.61,-2.72,2.72,3.09,2.96,-0.92,-0.89,-0.89
132.46,-3.64,-2.72,-3.60,-2.67,2.67,3.05,2.93,-0.97,-0.93,-0.92
133.79,-3.64,-2.69,-3.58,-2.62,2.62,3.01,2.89,-1.02,-0.96,-0.95
135.12,-3.64,-2.64,-3.56,-2.57,2.57,2.97,2.85,-1.07,-0.99,-1.00
136.48,-3.59,-2.56,-3.54,-2.51,2.51,2.93,2.81,-1.08,-1.02,-1.03
137.84,-3.44,-2.38,-3.51,-2.45,2.45,2.89,2.77,-0.98,-1.06,-1.06
139.22,-3.42,-2.31,-3.49,-2.40,2.40,2.85,2.73,-1.02,-1.10,-1.11
140.61,-3.42,-2.26,-3.47,-2.34,2.34,2.81,2.70,-1.08,-1.13,-1.16
142.02,-3.42,-2.24,-3.45,-2.28,2.28,2.78,2.66,-1.14,-1.18,-1.18
143.44,-3.42,-2.20,-3.44,-2.21,2.21,2.74,2.62,-1.20,-1.22,-1.22
144.87,-3.42,-2.16,-3.42,-2.15,2.15,2.71,2.58,-1.27,-1.27,-1.26
146.32,-3.42,-2.11,-3.40,-2.08,2.08,2.67,2.54,-1.34,-1.33,-1.31
147.78,-3.42,-2.07,-3.39,-2.00,2.00,2.64,2.51,-1.42,-1.39,-1.35
149.26,-3.42,-2.00,-3.38,-1.93,1.93,2.60,2.47,-1.49,-1.45,-1.42
150.75,-3.42,-1.92,-3.39,-1.87,1.87,2.57,2.44,-1.55,-1.52,-1.50
152.26,-3.42,-1.85,-3.40,-1.81,1.81,2.54,2.40,-1.60,-1.59,-1.57
153.78,-3.42,-1.78,-3.42,-1.76,1.76,2.51,2.37,-1.66,-1.66,-1.64
155.32,-3.42,-1.68,-3.43,-1.70,1.70,2.47,2.33,-1.71,-1.73,-1.74
156.88,-3.42,-1.61,-3.45,-1.65,1.65,2.44,2.30,-1.77,-1.80,-1.81
158.44,-3.42,-1.54,-3.47,-1.60,1.60,2.41,2.27,-1.82,-1.87,-1.88
160.03,-3.42,-1.46,-3.49,-1.55,1.55,2.39,2.23,-1.87,-1.94,-1.96
161.63,-3.42,-1.40,-3.51,-1.51,1.51,2.36,2.20,-1.90,-1.99,-2.02
163.24,-3.56,-1.49,-3.53,-1.48,1.48,2.33,2.17,-2.07,-2.05,-2.07
164.88,-3.64,-1.53,-3.55,-1.46,1.46,2.30,2.14,-2.18,-2.09,-2.11
166.53,-3.64,-1.49,-3.56,-1.43,1.43,2.27,2.12,-2.20,-2.13,-2.15
168.19,-3.64,-1.46,-3.57,-1.42,1.42,2.25,2.09,-2.21,-2.15,-2.18
169.87,-3.64,-1.45,-3.59,-1.42,1.42,2.22,2.06,-2.21,-2.17,-2.19
171.57,-3.64,-1.44,-3.61,-1.43,1.43,2.20,2.04,-2.21,-2.18,-2.20
173.29,-3.64,-1.44,-3.63,-1.44,1.44,2.17,2.02,-2.20,-2.19,-2.20
175.02,-3.64,-1.46,-3.64,-1.45,1.45,2.15,1.99,-2.19,-2.19,-2.18
176.77,-3.64,-1.45,-3.67,-1.47,1.47,2.13,1.97,-2.17,-2.19,-2.19
178.54,-3.64,-1.46,-3.69,-1.50,1.50,2.10,1.95,-2.14,-2.19,-2.18
180.32,-3.64,-1.47,-3.71,-1.51,1.51,2.08,1.93,-2.12,-2.19,-2.17
182.13,-3.64,-1.47,-3.72,-1.53,1.53,2.06,1.91,-2.11,-2.19,-2.17
183.95,-3.73,-1.56,-3.75,-1.56,1.56,2.04,1.89,-2.17,-2.19,-2.17
185.79,-3.86,-1.68,-3.80,-1.60,1.60,2.02,1.88,-2.26,-2.20,-2.18
187.65,-3.87,-1.67,-3.85,-1.64,1.64,2.00,1.86,-2.23,-2.21,-2.20
189.52,-3.87,-1.65,-3.90,-1.68,1.68,1.98,1.85,-2.19,-2.22,-2.22
191.42,-3.93,-1.69,-3.96,-1.72,1.72,1.96,1.83,-2.20,-2.23,-2.24
193.33,-4.05,-1.79,-4.01,-1.76,1.76,1.94,1.82,-2.28,-2.25,-2.26
195.27,-4.10,-1.84,-4.07,-1.80,1.80,1.93,1.81,-2.30,-2.27,-2.26
197.22,-4.10,-1.82,-4.12,-1.84,1.84,1.91,1.80,-2.26,-2.28,-2.28
199.19,-4.11,-1.79,-4.17,-1.87,1.87,1.89,1.79,-2.24,-2.30,-2.32
201.18,-4.24,-1.92,-4.21,-1.89,1.89,1.88,1.78,-2.35,-2.32,-2.32
203.19,-4.33,-1.99,-4.25,-1.91,1.91,1.86,1.77,-2.42,-2.34,-2.34
205.23,-4.33,-1.96,-4.27,-1.91,1.91,1.85,1.76,-2.41,-2.36,-2.37
207.28,-4.33,-1.96,-4.29,-1.92,1.92,1.84,1.75,-2.41,-2.38,-2.37
209.35,-4.33,-1.94,-4.32,-1.93,1.93,1.82,1.75,-2.40,-2.39,-2.39
211.44,-4.33,-1.91,-4.33,-1.93,1.93,1.81,1.74,-2.40,-2.41,-2.42
213.56,-4.33,-1.91,-4.34,-1.92,1.92,1.80,1.74,-2.41,-2.42,-2.42
215.69,-4.33,-1.91,-4.34,-1.91,1.91,1.79,1.73,-2.42,-2.43,-2.42
217.85,-4.33,-1.88,-4.34,-1.90,1.90,1.78,1.73,-2.43,-2.45,-2.45
220.03,-4.33,-1.87,-4.35,-1.89,1.89,1.77,1.73,-2.44,-2.46,-2.46
222.23,-4.33,-1.85,-4.34,-1.87,1.87,1.76,1.72,-2.45,-2.47,-2.48
224.45,-4.33,-1.85,-4.33,-1.86,1.86,1.75,1.72,-2.47,-2.48,-2.48
226.70,-4.33,-1.85,-4.33,-1.85,1.85,1.74,1.72,-2.48,-2.48,-2.48
228.96,-4.33,-1.84,-4.34,-1.85,1.85,1.73,1.72,-2.48,-2.49,-2.49
231.25,-4.33,-1.84,-4.35,-1.85,1.85,1.73,1.72,-2.48,-2.50,-2.49
233.57,-4.33,-1.83,-4.35,-1.85,1.85,1.72,1.71,-2.48,-2.50,-2.50
235.90,-4.33,-1.82,-4.34,-1.84,1.84,1.72,1.71,-2.49,-2.50,-2.51
238.26,-4.33,-1.82,-4.33,-1.83,1.83,1.71,1.71,-2.50,-2.50,-2.51
240.64,-4.33,-1.82,-4.32,-1.82,1.82,1.71,1.71,-2.51,-2.50,-2.51
243.05,-4.33,-1.83,-4.30,-1.81,1.81,1.70,1.71,-2.52,-2.50,-2.50
245.48,-4.33,-1.84,-4.29,-1.79,1.79,1.70,1.71,-2.53,-2.49,-2.49
247.93,-4.33,-1.85,-4.27,-1.78,1.78,1.70,1.71,-2.55,-2.49,-2.48
250.41,-4.33,-1.84,-4.24,-1.76,1.76,1.70,1.71,-2.57,-2.48,-2.49
252.92,-4.28,-1.80,-4.22,-1.75,1.75,1.70,1.71,-2.53,-2.48,-2.48
255.45,-4.13,-1.68,-4.20,-1.73,1.73,1.70,1.71,-2.40,-2.47,-2.45
258.00,-4.10,-1.65,-4.18,-1.72,1.72,1.70,1.71,-2.38,-2.46,-2.45
260.58,-4.10,-1.65,-4.16,-1.71,1.71,1.70,1.71,-2.39,-2.44,-2.45
263.19,-4.10,-1.67,-4.14,-1.71,1.71,1.70,1.72,-2.39,-2.43,-2.43
265.82,-4.10,-1.67,-4.12,-1.70,1.70,1.70,1.72,-2.40,-2.42,-2.43
268.48,-4.10,-1.70,-4.10,-1.70,1.70,1.70,1.72,-2.40,-2.40,-2.40
271.16,-4.10,-1.71,-4.09,-1.71,1.71,1.71,1.72,-2.39,-2.38,-2.39
273.87,-4.10,-1.72,-4.08,-1.72,1.72,1.71,1.72,-2.38,-2.36,-2.38
276.61,-4.10,-1.76,-4.08,-1.74,1.74,1.72,1.73,-2.36,-2.34,-2.34
279.38,-4.10,-1.77,-4.08,-1.76,1.76,1.72,1.73,-2.34,-2.32,-2.33
282.17,-4.10,-1.80,-4.09,-1.79,1.79,1.73,1.73,-2.31,-2.30,-2.30
284.99,-4.10,-1.83,-4.10,-1.83,1.83,1.74,1.74,-2.27,-2.27,-2.27
287.84,-4.10,-1.85,-4.10,-1.86,1.86,1.74,1.74,-2.24,-2.24,-2.25
290.72,-4.10,-1.89,-4.09,-1.88,1.88,1.75,1.75,-2.22,-2.21,-2.21
293.63,-4.10,-1.91,-4.08,-1.90,1.90,1.76,1.76,-2.20,-2.19,-2.19
296.57,-4.10,-1.94,-4.09,-1.93,1.93,1.77,1.76,-2.17,-2.16,-2.16
299.53,-4.10,-1.97,-4.10,-1.96,1.96,1.78,1.77,-2.13,-2.14,-2.13
302.53,-4.10,-1.98,-4.11,-2.00,2.00,1.79,1.78,-2.10,-2.11,-2.12
305.55,-4.10,-2.02,-4.12,-2.02,2.02,1.80,1.80,-2.07,-2.09,-2.08
308.61,-4.10,-2.04,-4.12,-2.05,2.05,1.82,1.81,-2.05,-2.08,-2.06
311.69,-4.10,-2.05,-4.13,-2.07,2.07,1.83,1.82,-2.03,-2.06,-2.05
314.81,-4.10,-2.08,-4.12,-2.08,2.08,1.85,1.84,-2.02,-2.05,-2.02
317.96,-4.10,-2.08,-4.12,-2.09,2.09,1.86,1.85,-2.01,-2.03,-2.02
321.14,-4.11,-2.08,-4.12,-2.10,2.10,1.88,1.87,-2.01,-2.02,-2.03
324.35,-4.28,-2.26,-4.13,-2.11,2.11,1.89,1.89,-2.16,-2.01,-2.02
327.59,-4.30,-2.29,-4.14,-2.13,2.13,1.91,1.91,-2.16,-2.00,-2.01
330.87,-4.15,-2.15,-4.15,-2.15,2.15,1.93,1.93,-1.99,-1.99,-2.00
334.18,-4.10,-2.10,-4.16,-2.18,2.18,1.94,1.95,-1.92,-1.98,-2.00
337.52,-4.10,-2.11,-4.18,-2.21,2.21,1.96,1.98,-1.89,-1.97,-1.99
340.90,-4.10,-2.14,-4.19,-2.23,2.23,1.98,2.00,-1.86,-1.96,-1.96
344.30,-4.10,-2.15,-4.21,-2.26,2.26,2.00,2.03,-1.83,-1.94,-1.95
347.75,-4.16,-2.22,-4.22,-2.30,2.30,2.02,2.06,-1.86,-1.93,-1.94
351.23,-4.29,-2.38,-4.24,-2.33,2.33,2.05,2.09,-1.96,-1.91,-1.91
354.74,-4.33,-2.44,-4.25,-2.37,2.37,2.07,2.13,-1.96,-1.88,-1.89
358.28,-4.33,-2.47,-4.26,-2.40,2.40,2.09,2.16,-1.92,-1.86,-1.86
361.87,-4.33,-2.49,-4.27,-2.44,2.44,2.11,2.20,-1.89,-1.84,-1.84
365.49,-4.33,-2.51,-4.29,-2.48,2.48,2.14,2.23,-1.85,-1.82,-1.82
369.14,-4.33,-2.53,-4.33,-2.53,2.53,2.16,2.27,-1.80,-1.79,-1.80
372.83,-4.33,-2.56,-4.35,-2.58,2.58,2.19,2.31,-1.75,-1.77,-1.77
376.56,-4.33,-2.58,-4.36,-2.61,2.61,2.21,2.35,-1.72,-1.75,-1.75
380.33,-4.33,-2.61,-4.36,-2.63,2.63,2.24,2.39,-1.70,-1.73,-1.72
384.13,-4.33,-2.63,-4.35,-2.64,2.64,2.26,2.44,-1.69,-1.72,-1.70
387.97,-4.33,-2.64,-4.34,-2.64,2.64,2.29,2.48,-1.69,-1.70,-1.69
391.85,-4.33,-2.64,-4.31,-2.63,2.63,2.32,2.53,-1.70,-1.68,-1.69
395.77,-4.33,-2.65,-4.30,-2.62,2.62,2.34,2.58,-1.71,-1.67,-1.68
399.73,-4.33,-2.66,-4.28,-2.61,2.61,2.37,2.62,-1.71,-1.66,-1.67
403.72,-4.33,-2.67,-4.26,-2.60,2.60,2.40,2.67,-1.73,-1.66,-1.66
407.76,-4.33,-2.68,-4.23,-2.59,2.59,2.42,2.72,-1.74,-1.65,-1.65
411.84,-4.19,-2.55,-4.21,-2.57,2.57,2.45,2.77,-1.62,-1.64,-1.64
415.96,-4.11,-2.48,-4.19,-2.55,2.55,2.48,2.82,-1.56,-1.64,-1.63
420.12,-4.10,-2.47,-4.17,-2.53,2.53,2.50,2.87,-1.57,-1.64,-1.63
424.32,-4.10,-2.47,-4.15,-2.51,2.51,2.53,2.91,-1.59,-1.64,-1.63
428.56,-4.10,-2.47,-4.13,-2.50,2.50,2.56,2.96,-1.60,-1.63,-1.63
432.85,-4.10,-2.46,-4.11,-2.48,2.48,2.58,3.01,-1.61,-1.63,-1.64
437.18,-4.10,-2.47,-4.10,-2.47,2.47,2.61,3.05,-1.62,-1.62,-1.63
