frequency,raw,error,smoothed,error_smoothed,equalization,parametric_eq,fixed_band_eq,equalized_raw,equalized_smoothed,target
20.00,-22.32,-25.12,-22.30,-25.10,25.21,25.36,10.37,2.90,2.91,2.80
20.20,-22.18,-25.02,-22.19,-25.03,25.07,25.19,10.56,2.89,2.88,2.84
20.40,-22.05,-24.92,-22.06,-24.93,24.92,25.02,10.75,2.87,2.85,2.87
20.61,-21.91,-24.81,-21.92,-24.83,24.76,24.85,10.94,2.85,2.85,2.90
20.81,-21.77,-24.71,-21.77,-24.71,24.61,24.68,11.14,2.84,2.84,2.94
21.02,-21.63,-24.61,-21.60,-24.57,24.45,24.52,11.34,2.83,2.86,2.98
21.23,-21.38,-24.37,-21.38,-24.38,24.30,24.35,11.55,2.92,2.91,2.99
21.44,-21.13,-24.15,-21.14,-24.15,24.14,24.19,11.77,3.00,3.00,3.01
21.66,-20.89,-23.92,-20.88,-23.91,23.95,24.03,11.99,3.06,3.07,3.03
21.87,-20.64,-23.69,-20.66,-23.70,23.77,23.87,12.21,3.12,3.11,3.04
22.09,-20.46,-23.51,-20.48,-23.53,23.60,23.71,12.45,3.14,3.12,3.05
22.31,-20.35,-23.40,-20.34,-23.39,23.44,23.55,12.68,3.09,3.10,3.05
22.54,-20.24,-23.30,-20.23,-23.29,23.30,23.40,12.93,3.06,3.06,3.06
22.76,-20.13,-23.20,-20.13,-23.20,23.17,23.24,13.18,3.04,3.04,3.07
22.99,-20.02,-23.09,-20.01,-23.08,23.06,23.08,13.44,3.04,3.05,3.07
23.22,-19.87,-22.95,-19.87,-22.95,22.94,22.93,13.71,3.07,3.07,3.08
23.45,-19.72,-22.81,-19.73,-22.82,22.80,22.77,13.98,3.09,3.08,3.09
23.69,-19.57,-22.67,-19.57,-22.67,22.66,22.61,14.27,3.08,3.08,3.10
23.92,-19.42,-22.53,-19.41,-22.52,22.49,22.46,14.56,3.07,3.08,3.11
24.16,-19.23,-22.35,-19.22,-22.34,22.31,22.30,14.86,3.08,3.09,3.12
24.40,-19.00,-22.14,-19.01,-22.14,22.12,22.14,15.18,3.12,3.11,3.13
24.65,-18.80,-21.92,-18.80,-21.92,21.94,21.99,15.50,3.14,3.14,3.12
24.89,-18.58,-21.71,-18.60,-21.72,21.75,21.83,15.83,3.17,3.16,3.12
25.14,-18.42,-21.54,-18.42,-21.54,21.57,21.67,16.18,3.16,3.15,3.12
25.39,-18.27,-21.39,-18.26,-21.38,21.40,21.51,16.54,3.14,3.14,3.12
25.65,-18.12,-21.24,-18.12,-21.23,21.24,21.36,16.92,3.12,3.13,3.12
25.91,-17.97,-21.07,-17.97,-21.08,21.09,21.20,17.31,3.12,3.12,3.10
26.16,-17.83,-20.94,-17.83,-20.94,20.94,21.04,17.71,3.11,3.11,3.11
26.43,-17.69,-20.80,-17.69,-20.80,20.78,20.88,18.13,3.09,3.09,3.11
26.69,-17.55,-20.66,-17.55,-20.66,20.62,20.72,18.57,3.07,3.07,3.11
26.96,-17.40,-20.51,-17.39,-20.50,20.45,20.55,19.02,3.05,3.06,3.11
27.23,-17.21,-20.32,-17.21,-20.32,20.30,20.39,19.49,3.09,3.09,3.11
27.50,-17.02,-20.13,-17.01,-20.12,20.15,20.23,19.98,3.13,3.14,3.11
27.77,-16.82,-19.92,-16.82,-19.92,20.00,20.07,20.49,3.19,3.18,3.10
28.05,-16.65,-19.75,-16.68,-19.77,19.86,19.90,21.02,3.21,3.18,3.10
28.33,-16.58,-19.66,-16.58,-19.67,19.70,19.74,21.56,3.12,3.12,3.08
28.62,-16.51,-19.60,-16.51,-19.59,19.53,19.57,22.12,3.03,3.03,3.09
28.90,-16.43,-19.52,-16.40,-19.49,19.37,19.41,22.68,2.94,2.97,3.09
29.19,-16.24,-19.32,-16.22,-19.31,19.22,19.24,23.25,2.98,3.00,3.08
29.48,-15.98,-19.07,-15.98,-19.07,19.07,19.08,23.80,3.09,3.09,3.09
29.78,-15.72,-18.81,-15.73,-18.82,18.91,18.91,24.33,3.19,3.18,3.09
30.08,-15.50,-18.59,-15.54,-18.63,18.74,18.74,24.82,3.24,3.20,3.09
30.38,-15.43,-18.50,-15.43,-18.51,18.56,18.57,25.23,3.13,3.13,3.07
30.68,-15.35,-18.42,-15.34,-18.41,18.37,18.41,25.54,3.02,3.03,3.07
30.99,-15.27,-18.33,-15.23,-18.29,18.19,18.24,25.72,2.92,2.96,3.06
31.30,-15.04,-18.10,-15.04,-18.10,18.02,18.07,25.77,2.98,2.98,3.06
31.61,-14.80,-17.86,-14.81,-17.86,17.86,17.90,25.67,3.06,3.05,3.06
31.93,-14.56,-17.60,-14.58,-17.63,17.69,17.73,25.43,3.13,3.11,3.04
32.24,-14.41,-17.44,-14.42,-17.45,17.53,17.56,25.08,3.12,3.11,3.03
32.57,-14.30,-17.33,-14.29,-17.32,17.35,17.40,24.64,3.05,3.06,3.03
32.89,-14.19,-17.22,-14.17,-17.20,17.19,17.23,24.14,3.00,3.02,3.03
33.22,-14.04,-17.07,-14.03,-17.06,17.03,17.06,23.61,3.00,3.00,3.03
33.55,-13.88,-16.90,-13.88,-16.90,16.89,16.89,23.05,3.01,3.01,3.02
33.89,-13.72,-16.74,-13.72,-16.75,16.75,16.72,22.49,3.03,3.02,3.02
34.23,-13.58,-16.60,-13.58,-16.60,16.60,16.55,21.94,3.02,3.01,3.02
34.57,-13.45,-16.46,-13.45,-16.46,16.44,16.38,21.39,2.99,2.99,3.01
34.92,-13.31,-16.31,-13.30,-16.31,16.28,16.22,20.87,2.97,2.98,3.00
35.27,-13.14,-16.14,-13.13,-16.13,16.13,16.05,20.35,2.99,3.00,3.00
35.62,-12.96,-15.95,-12.96,-15.95,15.98,15.88,19.86,3.02,3.02,2.99
35.97,-12.78,-15.76,-12.80,-15.79,15.83,15.72,19.38,3.05,3.03,2.98
36.33,-12.68,-15.66,-12.68,-15.66,15.68,15.55,18.93,3.00,3.00,2.98
36.70,-12.58,-15.56,-12.57,-15.54,15.52,15.38,18.49,2.95,2.96,2.98
37.06,-12.47,-15.43,-12.45,-15.41,15.37,15.22,18.07,2.90,2.92,2.96
37.43,-12.29,-15.25,-12.29,-15.25,15.21,15.05,17.66,2.93,2.92,2.96
37.81,-12.12,-15.07,-12.12,-15.07,15.07,14.89,17.27,2.95,2.94,2.95
38.19,-11.95,-14.89,-11.95,-14.89,14.92,14.73,16.90,2.97,2.97,2.94
38.57,-11.80,-14.74,-11.79,-14.73,14.77,14.56,16.54,2.97,2.98,2.94
38.95,-11.64,-14.57,-11.65,-14.58,14.62,14.40,16.19,2.98,2.97,2.93
39.34,-11.53,-14.45,-11.53,-14.45,14.46,14.24,15.86,2.94,2.93,2.92
39.74,-11.43,-14.33,-11.42,-14.33,14.31,14.08,15.54,2.88,2.89,2.90
40.14,-11.30,-14.21,-11.29,-14.19,14.16,13.92,15.23,2.86,2.87,2.91
40.54,-11.13,-14.03,-11.13,-14.04,14.01,13.76,14.93,2.88,2.87,2.90
40.94,-10.96,-13.86,-10.96,-13.86,13.85,13.60,14.64,2.90,2.89,2.90
41.35,-10.79,-13.67,-10.79,-13.67,13.69,13.45,14.36,2.90,2.91,2.88
41.76,-10.63,-13.49,-10.63,-13.49,13.52,13.29,14.09,2.89,2.89,2.86
42.18,-10.48,-13.33,-10.49,-13.34,13.34,13.14,13.83,2.86,2.85,2.85
42.60,-10.36,-13.18,-10.36,-13.19,13.16,12.98,13.58,2.80,2.80,2.82
43.03,-10.24,-13.05,-10.21,-13.01,12.98,12.83,13.33,2.74,2.78,2.81
43.46,-10.04,-12.82,-10.04,-12.81,12.81,12.68,13.09,2.77,2.77,2.78
43.90,-9.85,-12.58,-9.87,-12.61,12.63,12.52,12.86,2.78,2.76,2.73
44.33,-9.72,-12.42,-9.72,-12.43,12.46,12.37,12.64,2.74,2.73,2.70
44.78,-9.62,-12.29,-9.61,-12.28,12.28,12.22,12.42,2.66,2.67,2.67
45.23,-9.50,-12.14,-9.50,-12.14,12.11,12.07,12.21,2.61,2.62,2.64
45.68,-9.37,-11.98,-9.37,-11.98,11.96,11.93,12.00,2.59,2.59,2.61
46.13,-9.23,-11.82,-9.20,-11.80,11.82,11.78,11.80,2.59,2.61,2.59
46.60,-9.05,-11.63,-9.05,-11.63,11.68,11.63,11.61,2.63,2.63,2.58
47.06,-8.89,-11.45,-8.94,-11.51,11.54,11.49,11.42,2.65,2.60,2.56
47.53,-8.86,-11.42,-8.86,-11.42,11.41,11.35,11.23,2.55,2.54,2.56
48.01,-8.84,-11.40,-8.77,-11.32,11.27,11.20,11.05,2.43,2.51,2.56
48.49,-8.64,-11.18,-8.64,-11.18,11.14,11.06,10.88,2.50,2.50,2.54
48.97,-8.44,-10.97,-8.48,-11.01,11.01,10.92,10.71,2.57,2.53,2.53
49.46,-8.32,-10.84,-8.32,-10.84,10.87,10.78,10.54,2.56,2.56,2.52
49.96,-8.21,-10.73,-8.19,-10.72,10.74,10.64,10.38,2.53,2.55,2.52
50.46,-8.08,-10.61,-8.08,-10.61,10.60,10.50,10.22,2.53,2.53,2.53
50.96,-7.94,-10.48,-7.93,-10.47,10.47,10.36,10.06,2.53,2.53,2.54
51.47,-7.80,-10.33,-7.79,-10.32,10.33,10.23,9.91,2.53,2.54,2.53
51.99,-7.65,-10.16,-7.68,-10.19,10.20,10.09,9.76,2.55,2.52,2.51
52.51,-7.58,-10.08,-7.58,-10.07,10.07,9.96,9.62,2.50,2.50,2.50
53.03,-7.51,-9.98,-7.49,-9.96,9.95,9.82,9.48,2.44,2.46,2.47
53.56,-7.39,-9.83,-7.39,-9.83,9.82,9.69,9.34,2.44,2.44,2.44
54.10,-7.27,-9.67,-7.26,-9.66,9.68,9.56,9.20,2.41,2.42,2.40
54.64,-7.14,-9.49,-7.16,-9.51,9.53,9.42,9.07,2.39,2.37,2.35
55.18,-7.06,-9.36,-7.10,-9.40,9.37,9.29,8.94,2.31,2.27,2.30
55.74,-7.06,-9.31,-7.01,-9.26,9.20,9.16,8.81,2.14,2.19,2.25
56.29,-6.93,-9.13,-6.88,-9.08,9.02,9.03,8.69,2.10,2.14,2.20
56.86,-6.67,-8.81,-6.70,-8.84,8.85,8.90,8.56,2.18,2.15,2.14
57.42,-6.51,-8.58,-6.52,-8.60,8.67,8.77,8.44,2.17,2.15,2.07
58.00,-6.38,-8.39,-6.41,-8.43,8.50,8.64,8.32,2.12,2.09,2.01
58.58,-6.38,-8.33,-6.36,-8.32,8.32,8.50,8.20,1.95,1.96,1.95
59.16,-6.34,-8.24,-6.30,-8.20,8.16,8.37,8.09,1.82,1.85,1.90
59.76,-6.21,-8.05,-6.20,-8.04,8.00,8.24,7.97,1.79,1.80,1.84
60.35,-6.07,-7.84,-6.07,-7.85,7.85,8.11,7.86,1.79,1.78,1.77
60.96,-5.93,-7.65,-5.98,-7.69,7.71,7.97,7.75,1.79,1.74,1.72
61.57,-5.92,-7.57,-5.90,-7.55,7.57,7.83,7.64,1.66,1.67,1.65
62.18,-5.88,-7.46,-5.83,-7.42,7.43,7.70,7.53,1.55,1.59,1.58
62.80,-5.74,-7.28,-5.77,-7.30,7.28,7.56,7.42,1.54,1.51,1.54
63.43,-5.66,-7.14,-5.67,-7.15,7.13,7.41,7.31,1.47,1.46,1.48
64.07,-5.59,-7.03,-5.57,-7.01,6.99,7.27,7.21,1.41,1.43,1.44
64.71,-5.47,-6.86,-5.46,-6.85,6.86,7.12,7.10,1.40,1.40,1.39
65.35,-5.36,-6.70,-5.36,-6.71,6.73,6.97,7.00,1.38,1.37,1.34
66.01,-5.24,-6.55,-5.28,-6.59,6.60,6.82,6.90,1.36,1.32,1.31
66.67,-5.24,-6.51,-5.20,-6.47,6.47,6.67,6.80,1.24,1.27,1.27
67.33,-5.16,-6.40,-5.13,-6.37,6.35,6.52,6.70,1.19,1.22,1.24
68.01,-5.01,-6.22,-5.07,-6.28,6.23,6.37,6.60,1.22,1.17,1.21
68.69,-5.00,-6.18,-4.96,-6.14,6.13,6.23,6.50,1.13,1.16,1.18
69.37,-4.91,-6.05,-4.88,-6.03,6.03,6.09,6.40,1.13,1.15,1.14
70.07,-4.78,-5.89,-4.82,-5.94,5.96,5.97,6.31,1.18,1.13,1.11
70.77,-4.78,-5.88,-4.78,-5.87,5.90,5.87,6.21,1.12,1.13,1.10
71.48,-4.78,-5.84,-4.75,-5.82,5.86,5.79,6.12,1.08,1.11,1.06
72.19,-4.78,-5.82,-4.78,-5.81,5.84,5.73,6.03,1.06,1.06,1.04
72.91,-4.78,-5.78,-4.83,-5.83,5.83,5.69,5.94,1.05,1.00,1.00
73.64,-4.93,-5.90,-4.90,-5.88,5.84,5.68,5.85,0.91,0.93,0.97
74.38,-5.01,-5.95,-4.96,-5.90,5.86,5.69,5.77,0.85,0.89,0.94
75.12,-5.01,-5.92,-5.01,-5.92,5.90,5.72,5.68,0.89,0.88,0.91
75.87,-5.01,-5.89,-5.05,-5.93,5.96,5.76,5.60,0.95,0.91,0.88
76.63,-5.12,-5.97,-5.11,-5.96,6.03,5.80,5.51,0.91,0.92,0.85
77.40,-5.23,-6.05,-5.21,-6.03,6.10,5.85,5.43,0.88,0.89,0.82
78.17,-5.33,-6.12,-5.35,-6.14,6.18,5.90,5.35,0.85,0.84,0.79
78.95,-5.46,-6.24,-5.48,-6.26,6.26,5.94,5.28,0.80,0.77,0.78
79.74,-5.64,-6.40,-5.60,-6.36,6.32,5.97,5.20,0.68,0.72,0.76
80.54,-5.70,-6.44,-5.69,-6.43,6.36,5.99,5.13,0.66,0.67,0.74
81.35,-5.70,-6.42,-5.71,-6.44,6.36,5.99,5.05,0.67,0.65,0.72
82.16,-5.68,-6.40,-5.67,-6.39,6.34,5.97,4.98,0.66,0.66,0.72
82.98,-5.59,-6.31,-5.59,-6.30,6.28,5.94,4.91,0.69,0.69,0.72
83.81,-5.49,-6.20,-5.47,-6.18,6.19,5.89,4.84,0.70,0.72,0.71
84.65,-5.32,-6.02,-5.33,-6.03,6.08,5.83,4.78,0.76,0.75,0.70
85.50,-5.18,-5.89,-5.19,-5.90,5.95,5.75,4.71,0.78,0.76,0.71
86.35,-5.07,-5.78,-5.08,-5.79,5.83,5.66,4.65,0.76,0.74,0.71
87.22,-5.00,-5.71,-5.00,-5.71,5.71,5.56,4.59,0.71,0.71,0.71
88.09,-4.94,-5.65,-4.90,-5.62,5.60,5.46,4.53,0.66,0.70,0.71
88.97,-4.79,-5.52,-4.78,-5.50,5.50,5.36,4.47,0.72,0.72,0.73
89.86,-4.63,-5.36,-4.67,-5.40,5.41,5.25,4.41,0.78,0.74,0.73
90.76,-4.57,-5.28,-4.58,-5.31,5.33,5.14,4.36,0.76,0.74,0.71
91.66,-4.56,-5.28,-4.52,-5.23,5.24,5.04,4.30,0.69,0.72,0.72
92.58,-4.48,-5.17,-4.47,-5.17,5.15,4.93,4.25,0.68,0.68,0.69
93.51,-4.37,-5.07,-4.40,-5.10,5.06,4.83,4.20,0.69,0.66,0.70
94.44,-4.33,-5.01,-4.30,-4.98,4.97,4.73,4.15,0.64,0.67,0.68
95.39,-4.23,-4.90,-4.21,-4.88,4.88,4.64,4.10,0.65,0.66,0.67
96.34,-4.10,-4.73,-4.15,-4.79,4.78,4.55,4.06,0.69,0.63,0.63
97.30,-4.10,-4.71,-4.07,-4.69,4.69,4.46,4.01,0.60,0.62,0.61
98.28,-4.05,-4.64,-4.00,-4.59,4.61,4.37,3.97,0.56,0.61,0.59
99.26,-3.90,-4.46,-3.94,-4.50,4.53,4.29,3.93,0.63,0.59,0.56
100.25,-3.87,-4.40,-3.88,-4.41,4.45,4.21,3.88,0.58,0.57,0.53
101.25,-3.87,-4.37,-3.86,-4.36,4.37,4.13,3.84,0.51,0.51,0.50
102.27,-3.87,-4.33,-3.87,-4.33,4.29,4.06,3.80,0.42,0.42,0.46
103.29,-3.87,-4.28,-3.85,-4.27,4.21,3.98,3.77,0.34,0.36,0.41
104.32,-3.82,-4.19,-3.79,-4.16,4.13,3.91,3.73,0.31,0.33,0.37
105.37,-3.70,-4.02,-3.72,-4.04,4.04,3.84,3.69,0.34,0.32,0.32
106.42,-3.64,-3.91,-3.66,-3.92,3.96,3.78,3.66,0.32,0.30,0.27
107.48,-3.64,-3.84,-3.63,-3.83,3.87,3.71,3.62,0.23,0.24,0.20
108.56,-3.64,-3.76,-3.63,-3.76,3.78,3.65,3.59,0.14,0.15,0.12
109.64,-3.64,-3.69,-3.64,-3.69,3.69,3.59,3.55,0.05,0.05,0.05
110.74,-3.64,-3.63,-3.64,-3.62,3.61,3.53,3.52,-0.03,-0.03,-0.01
111.85,-3.64,-3.56,-3.64,-3.55,3.54,3.47,3.49,-0.10,-0.10,-0.08
112.97,-3.64,-3.47,-3.64,-3.48,3.47,3.42,3.45,-0.17,-0.17,-0.17
114.10,-3.64,-3.41,-3.64,-3.40,3.40,3.36,3.42,-0.24,-0.24,-0.23
115.24,-3.64,-3.33,-3.64,-3.33,3.33,3.31,3.39,-0.31,-0.31,-0.31
116.39,-3.64,-3.25,-3.64,-3.25,3.26,3.26,3.36,-0.38,-0.38,-0.39
117.55,-3.64,-3.19,-3.64,-3.19,3.19,3.21,3.32,-0.45,-0.45,-0.45
118.73,-3.64,-3.12,-3.64,-3.13,3.13,3.16,3.29,-0.51,-0.51,-0.52
119.92,-3.64,-3.08,-3.64,-3.07,3.08,3.11,3.26,-0.56,-0.56,-0.56
121.12,-3.64,-3.02,-3.64,-3.02,3.03,3.06,3.22,-0.61,-0.61,-0.62
122.33,-3.64,-2.98,-3.64,-2.99,2.99,3.01,3.19,-0.65,-0.65,-0.66
123.55,-3.64,-2.96,-3.64,-2.95,2.95,2.97,3.16,-0.69,-0.69,-0.68
124.79,-3.64,-2.92,-3.64,-2.92,2.91,2.92,3.12,-0.73,-0.73,-0.72
126.03,-3.64,-2.88,-3.64,-2.88,2.88,2.88,3.09,-0.76,-0.76,-0.76
127.29,-3.64,-2.85,-3.64,-2.85,2.85,2.84,3.05,-0.78,-0.78,-0.79
128.57,-3.64,-2.81,-3.64,-2.81,2.83,2.80,3.01,-0.81,-0.81,-0.83
129.85,-3.64,-2.78,-3.64,-2.78,2.80,2.76,2.98,-0.84,-0.84,-0.86
131.15,-3.64,-2.75,-3.64,-2.75,2.76,2.72,2.94,-0.88,-0.88,-0.89
132.46,-3.64,-2.72,-3.64,-2.72,2.70,2.68,2.90,-0.93,-0.94,-0.92
133.79,-3.64,-2.69,-3.65,-2.69,2.64,2.64,2.87,-0.99,-1.01,-0.95
135.12,-3.64,-2.64,-3.62,-2.63,2.58,2.61,2.83,-1.06,-1.04,-1.00
136.48,-3.59,-2.56,-3.55,-2.53,2.51,2.57,2.79,-1.08,-1.04,-1.03
137.84,-3.44,-2.38,-3.48,-2.41,2.44,2.53,2.75,-1.00,-1.04,-1.06
139.22,-3.42,-2.31,-3.43,-2.32,2.37,2.50,2.72,-1.04,-1.05,-1.11
140.61,-3.42,-2.26,-3.40,-2.26,2.31,2.47,2.68,-1.11,-1.10,-1.16
142.02,-3.42,-2.24,-3.42,-2.23,2.25,2.43,2.64,-1.17,-1.17,-1.18
143.44,-3.42,-2.20,-3.42,-2.20,2.19,2.40,2.60,-1.23,-1.23,-1.22
144.87,-3.42,-2.16,-3.42,-2.16,2.14,2.37,2.56,-1.28,-1.28,-1.26
146.32,-3.42,-2.11,-3.42,-2.11,2.09,2.34,2.53,-1.32,-1.32,-1.31
147.78,-3.42,-2.07,-3.42,-2.06,2.05,2.31,2.49,-1.37,-1.37,-1.35
149.26,-3.42,-2.00,-3.42,-2.00,1.99,2.28,2.46,-1.43,-1.43,-1.42
150.75,-3.42,-1.92,-3.42,-1.93,1.92,2.25,2.42,-1.50,-1.50,-1.50
152.26,-3.42,-1.85,-3.42,-1.85,1.84,2.23,2.38,-1.58,-1.58,-1.57
153.78,-3.42,-1.78,-3.42,-1.77,1.75,2.20,2.35,-1.66,-1.66,-1.64
155.32,-3.42,-1.68,-3.42,-1.69,1.68,2.17,2.32,-1.74,-1.74,-1.74
156.88,-3.42,-1.61,-3.42,-1.61,1.61,2.15,2.28,-1.81,-1.81,-1.81
158.44,-3.42,-1.54,-3.40,-1.52,1.56,2.13,2.25,-1.86,-1.84,-1.88
160.03,-3.42,-1.46,-3.42,-1.46,1.52,2.10,2.22,-1.90,-1.90,-1.96
161.63,-3.42,-1.40,-3.47,-1.45,1.49,2.08,2.19,-1.93,-1.98,-2.02
163.24,-3.56,-1.49,-3.54,-1.47,1.47,2.06,2.16,-2.09,-2.07,-2.07
164.88,-3.64,-1.53,-3.60,-1.49,1.45,2.03,2.13,-2.18,-2.15,-2.11
166.53,-3.64,-1.49,-3.65,-1.50,1.45,2.01,2.10,-2.19,-2.20,-2.15
168.19,-3.64,-1.46,-3.65,-1.47,1.45,1.99,2.08,-2.18,-2.19,-2.18
169.87,-3.64,-1.45,-3.64,-1.44,1.45,1.97,2.05,-2.18,-2.18,-2.19
171.57,-3.64,-1.44,-3.64,-1.44,1.45,1.96,2.03,-2.19,-2.19,-2.20
173.29,-3.64,-1.44,-3.64,-1.44,1.44,1.94,2.00,-2.19,-2.19,-2.20
175.02,-3.64,-1.46,-3.64,-1.45,1.44,1.92,1.98,-2.20,-2.20,-2.18
176.77,-3.64,-1.45,-3.64,-1.46,1.45,1.90,1.96,-2.19,-2.19,-2.19
178.54,-3.64,-1.46,-3.63,-1.45,1.47,1.89,1.94,-2.17,-2.16,-2.18
180.32,-3.64,-1.47,-3.63,-1.46,1.49,1.87,1.92,-2.14,-2.14,-2.17
182.13,-3.64,-1.47,-3.67,-1.51,1.52,1.86,1.90,-2.11,-2.15,-2.17
183.95,-3.73,-1.56,-3.74,-1.57,1.56,1.84,1.88,-2.17,-2.18,-2.17
185.79,-3.86,-1.68,-3.81,-1.63,1.60,1.83,1.87,-2.26,-2.21,-2.18
187.65,-3.87,-1.67,-3.86,-1.66,1.64,1.81,1.85,-2.23,-2.22,-2.20
189.52,-3.87,-1.65,-3.90,-1.68,1.68,1.80,1.84,-2.19,-2.22,-2.22
191.42,-3.93,-1.69,-3.95,-1.71,1.72,1.79,1.82,-2.20,-2.23,-2.24
193.33,-4.05,-1.79,-4.02,-1.77,1.77,1.78,1.81,-2.28,-2.25,-2.26
195.27,-4.10,-1.84,-4.07,-1.80,1.81,1.77,1.80,-2.29,-2.26,-2.26
197.22,-4.10,-1.82,-4.11,-1.82,1.84,1.76,1.79,-2.26,-2.27,-2.28
199.19,-4.11,-1.79,-4.16,-1.85,1.87,1.75,1.78,-2.23,-2.28,-2.32
201.18,-4.24,-1.92,-4.22,-1.90,1.90,1.74,1.77,-2.34,-2.32,-2.32
203.19,-4.33,-1.99,-4.29,-1.95,1.92,1.73,1.76,-2.40,-2.37,-2.34
205.23,-4.33,-1.96,-4.34,-1.98,1.94,1.72,1.75,-2.39,-2.40,-2.37
207.28,-4.33,-1.96,-4.34,-1.96,1.94,1.72,1.75,-2.39,-2.39,-2.37
209.35,-4.33,-1.94,-4.33,-1.93,1.94,1.71,1.74,-2.39,-2.39,-2.39
211.44,-4.33,-1.91,-4.33,-1.92,1.93,1.70,1.73,-2.39,-2.39,-2.42
213.56,-4.33,-1.91,-4.33,-1.91,1.92,1.70,1.73,-2.41,-2.41,-2.42
215.69,-4.33,-1.91,-4.33,-1.90,1.90,1.69,1.72,-2.43,-2.43,-2.42
217.85,-4.33,-1.88,-4.33,-1.88,1.88,1.69,1.72,-2.44,-2.44,-2.45
220.03,-4.33,-1.87,-4.33,-1.87,1.87,1.69,1.72,-2.46,-2.46,-2.46
222.23,-4.33,-1.85,-4.33,-1.85,1.86,1.68,1.72,-2.47,-2.47,-2.48
224.45,-4.33,-1.85,-4.33,-1.85,1.85,1.68,1.71,-2.48,-2.48,-2.48
226.70,-4.33,-1.85,-4.33,-1.84,1.84,1.68,1.71,-2.48,-2.48,-2.48
228.96,-4.33,-1.84,-4.33,-1.84,1.84,1.68,1.71,-2.49,-2.49,-2.49
231.25,-4.33,-1.84,-4.33,-1.84,1.83,1.68,1.71,-2.50,-2.50,-2.49
233.57,-4.33,-1.83,-4.33,-1.83,1.83,1.68,1.71,-2.50,-2.50,-2.50
235.90,-4.33,-1.82,-4.33,-1.82,1.83,1.68,1.71,-2.50,-2.50,-2.51
238.26,-4.33,-1.82,-4.33,-1.82,1.84,1.68,1.71,-2.49,-2.49,-2.51
240.64,-4.33,-1.82,-4.33,-1.82,1.84,1.68,1.71,-2.49,-2.49,-2.51
243.05,-4.33,-1.83,-4.33,-1.83,1.84,1.69,1.71,-2.49,-2.49,-2.50
245.48,-4.33,-1.84,-4.33,-1.84,1.82,1.69,1.71,-2.51,-2.51,-2.49
247.93,-4.33,-1.85,-4.34,-1.85,1.80,1.69,1.71,-2.52,-2.54,-2.48
250.41,-4.33,-1.84,-4.31,-1.83,1.78,1.70,1.71,-2.55,-2.53,-2.49
252.92,-4.28,-1.80,-4.24,-1.77,1.76,1.70,1.71,-2.52,-2.49,-2.48
255.45,-4.13,-1.68,-4.17,-1.71,1.73,1.71,1.71,-2.40,-2.44,-2.45
258.00,-4.10,-1.65,-4.11,-1.66,1.71,1.71,1.71,-2.39,-2.40,-2.45
260.58,-4.10,-1.65,-4.08,-1.64,1.69,1.72,1.71,-2.41,-2.40,-2.45
263.19,-4.10,-1.67,-4.09,-1.66,1.67,1.73,1.71,-2.43,-2.42,-2.43
265.82,-4.10,-1.67,-4.10,-1.68,1.67,1.73,1.71,-2.43,-2.43,-2.43
268.48,-4.10,-1.70,-4.10,-1.69,1.68,1.74,1.71,-2.42,-2.42,-2.40
271.16,-4.10,-1.71,-4.10,-1.71,1.70,1.75,1.71,-2.40,-2.40,-2.39
273.87,-4.10,-1.72,-4.10,-1.73,1.72,1.76,1.72,-2.37,-2.37,-2.38
276.61,-4.10,-1.76,-4.10,-1.75,1.75,1.77,1.72,-2.35,-2.35,-2.34
279.38,-4.10,-1.77,-4.10,-1.77,1.78,1.78,1.72,-2.32,-2.32,-2.33
282.17,-4.10,-1.80,-4.10,-1.80,1.80,1.79,1.73,-2.30,-2.30,-2.30
284.99,-4.10,-1.83,-4.10,-1.83,1.83,1.80,1.73,-2.27,-2.27,-2.27
287.84,-4.10,-1.85,-4.10,-1.86,1.85,1.81,1.74,-2.24,-2.24,-2.25
290.72,-4.10,-1.89,-4.10,-1.88,1.88,1.83,1.75,-2.22,-2.22,-2.21
293.63,-4.10,-1.91,-4.10,-1.91,1.91,1.84,1.75,-2.19,-2.19,-2.19
296.57,-4.10,-1.94,-4.10,-1.94,1.94,1.85,1.76,-2.16,-2.16,-2.16
299.53,-4.10,-1.97,-4.10,-1.96,1.96,1.87,1.77,-2.14,-2.14,-2.13
302.53,-4.10,-1.98,-4.10,-1.99,1.98,1.88,1.78,-2.12,-2.12,-2.12
305.55,-4.10,-2.02,-4.10,-2.01,2.00,1.90,1.79,-2.09,-2.09,-2.08
308.61,-4.10,-2.04,-4.10,-2.04,2.03,1.91,1.80,-2.06,-2.06,-2.06
311.69,-4.10,-2.05,-4.10,-2.06,2.07,1.93,1.82,-2.03,-2.03,-2.05
314.81,-4.10,-2.08,-4.08,-2.05,2.10,1.95,1.83,-2.00,-1.98,-2.02
317.96,-4.10,-2.08,-4.11,-2.08,2.12,1.96,1.85,-1.97,-1.98,-2.02
321.14,-4.11,-2.08,-4.18,-2.16,2.14,1.98,1.87,-1.97,-2.04,-2.03
324.35,-4.28,-2.26,-4.22,-2.21,2.14,2.00,1.89,-2.14,-2.08,-2.02
327.59,-4.30,-2.29,-4.23,-2.22,2.14,2.02,1.91,-2.15,-2.09,-2.01
330.87,-4.15,-2.15,-4.20,-2.19,2.15,2.04,1.93,-2.00,-2.05,-2.00
334.18,-4.10,-2.10,-4.12,-2.13,2.15,2.06,1.95,-1.94,-1.97,-2.00
337.52,-4.10,-2.11,-4.08,-2.10,2.17,2.08,1.98,-1.93,-1.91,-1.99
340.90,-4.10,-2.14,-4.08,-2.12,2.19,2.10,2.00,-1.90,-1.89,-1.96
344.30,-4.10,-2.15,-4.12,-2.17,2.22,2.12,2.03,-1.88,-1.90,-1.95
347.75,-4.16,-2.22,-4.18,-2.25,2.26,2.14,2.06,-1.90,-1.92,-1.94
351.23,-4.29,-2.38,-4.25,-2.34,2.31,2.16,2.09,-1.98,-1.94,-1.91
354.74,-4.33,-2.44,-4.31,-2.43,2.37,2.18,2.12,-1.96,-1.94,-1.89
358.28,-4.33,-2.47,-4.34,-2.48,2.43,2.20,2.16,-1.90,-1.91,-1.86
361.87,-4.33,-2.49,-4.33,-2.49,2.48,2.22,2.19,-1.85,-1.85,-1.84
365.49,-4.33,-2.51,-4.33,-2.51,2.52,2.25,2.23,-1.81,-1.81,-1.82
369.14,-4.33,-2.53,-4.33,-2.53,2.55,2.27,2.27,-1.78,-1.78,-1.80
372.83,-4.33,-2.56,-4.33,-2.56,2.57,2.29,2.31,-1.76,-1.76,-1.77
376.56,-4.33,-2.58,-4.33,-2.58,2.59,2.31,2.35,-1.74,-1.74,-1.75
380.33,-4.33,-2.61,-4.33,-2.61,2.60,2.34,2.40,-1.72,-1.72,-1.72
384.13,-4.33,-2.63,-4.33,-2.63,2.63,2.36,2.44,-1.70,-1.70,-1.70
387.97,-4.33,-2.64,-4.33,-2.64,2.65,2.38,2.49,-1.68,-1.68,-1.69
391.85,-4.33,-2.64,-4.33,-2.64,2.66,2.41,2.53,-1.67,-1.67,-1.69
395.77,-4.33,-2.65,-4.33,-2.65,2.66,2.43,2.58,-1.67,-1.67,-1.68
399.73,-4.33,-2.66,-4.34,-2.67,2.64,2.45,2.63,-1.68,-1.70,-1.67
403.72,-4.33,-2.67,-4.33,-2.67,2.62,2.48,2.67,-1.71,-1.71,-1.66
407.76,-4.33,-2.68,-4.28,-2.63,2.60,2.50,2.72,-1.73,-1.68,-1.65
411.84,-4.19,-2.55,-4.21,-2.57,2.57,2.52,2.77,-1.62,-1.64,-1.64
415.96,-4.11,-2.48,-4.14,-2.51,2.54,2.55,2.82,-1.57,-1.60,-1.63
420.12,-4.10,-2.47,-4.09,-2.46,2.51,2.57,2.87,-1.59,-1.58,-1.63
424.32,-4.10,-2.47,-4.09,-2.46,2.49,2.59,2.92,-1.61,-1.60,-1.63
428.56,-4.10,-2.47,-4.10,-2.46,2.47,2.61,2.96,-1.63,-1.63,-1.63
432.85,-4.10,-2.46,-4.10,-2.47,2.46,2.63,3.01,-1.64,-1.64,-1.64
437.18,-4.10,-2.47,-4.10,-2.47,2.46,2.65,3.05,-1.64,-1.64,-1.63
