frequency,raw,error,smoothed,error_smoothed,equalization,parametric_eq,fixed_band_eq,equalized_raw,equalized_smoothed,target
20.00,-7.72,-13.51,-7.79,-13.60,13.60,13.39,4.18,5.87,5.81,5.79
20.20,-7.65,-13.47,-7.66,-13.49,13.49,13.32,4.29,5.84,5.83,5.82
20.40,-7.56,-13.41,-7.53,-13.39,13.39,13.24,4.40,5.82,5.85,5.85
20.61,-7.45,-13.31,-7.41,-13.28,13.28,13.16,4.52,5.83,5.87,5.87
20.81,-7.29,-13.19,-7.28,-13.17,13.17,13.07,4.64,5.87,5.89,5.90
21.02,-7.15,-13.08,-7.15,-13.06,13.06,12.97,4.77,5.90,5.90,5.93
21.23,-7.04,-12.98,-7.02,-12.94,12.94,12.87,4.89,5.90,5.92,5.94
21.44,-6.90,-12.85,-6.89,-12.82,12.82,12.76,5.02,5.92,5.93,5.95
21.66,-6.77,-12.72,-6.76,-12.70,12.70,12.65,5.16,5.94,5.94,5.96
21.87,-6.62,-12.58,-6.63,-12.58,12.58,12.54,5.30,5.96,5.95,5.96
22.09,-6.50,-12.47,-6.50,-12.46,12.46,12.41,5.44,5.96,5.96,5.96
22.31,-6.36,-12.33,-6.37,-12.34,12.34,12.29,5.58,5.97,5.96,5.96
22.54,-6.23,-12.19,-6.24,-12.20,12.20,12.16,5.73,5.97,5.96,5.96
22.76,-6.11,-12.08,-6.10,-12.06,12.06,12.03,5.89,5.95,5.96,5.96
22.99,-5.96,-11.92,-5.97,-11.93,11.93,11.90,6.04,5.96,5.96,5.95
23.22,-5.83,-11.78,-5.84,-11.80,11.80,11.77,6.20,5.97,5.96,5.95
23.45,-5.71,-11.66,-5.70,-11.66,11.66,11.63,6.37,5.95,5.96,5.95
23.69,-5.57,-11.52,-5.57,-11.52,11.52,11.50,6.54,5.96,5.96,5.95
23.92,-5.43,-11.38,-5.44,-11.39,11.39,11.36,6.71,5.96,5.95,5.95
24.16,-5.31,-11.27,-5.30,-11.26,11.26,11.22,6.89,5.94,5.95,5.96
24.40,-5.17,-11.13,-5.17,-11.12,11.12,11.08,7.07,5.95,5.95,5.96
24.65,-5.04,-10.98,-5.04,-10.99,10.99,10.94,7.25,5.95,5.95,5.95
24.89,-4.92,-10.87,-4.91,-10.86,10.86,10.80,7.44,5.93,5.95,5.95
25.14,-4.77,-10.72,-4.78,-10.72,10.72,10.66,7.63,5.95,5.94,5.94
25.39,-4.63,-10.58,-4.65,-10.59,10.59,10.53,7.82,5.96,5.94,5.94
25.65,-4.53,-10.47,-4.52,-10.46,10.46,10.39,8.01,5.93,5.94,5.94
25.91,-4.39,-10.32,-4.39,-10.33,10.33,10.25,8.21,5.94,5.94,5.93
26.16,-4.27,-10.20,-4.26,-10.19,10.19,10.11,8.41,5.92,5.93,5.93
26.43,-4.14,-10.07,-4.13,-10.06,10.06,9.98,8.60,5.93,5.93,5.93
26.69,-3.99,-9.92,-4.00,-9.93,9.93,9.84,8.80,5.94,5.93,5.93
26.96,-3.89,-9.81,-3.88,-9.80,9.80,9.71,9.00,5.91,5.92,5.93
27.23,-3.75,-9.67,-3.75,-9.67,9.67,9.58,9.19,5.92,5.92,5.92
27.50,-3.64,-9.56,-3.62,-9.54,9.54,9.44,9.38,5.90,5.92,5.92
27.77,-3.48,-9.39,-3.50,-9.41,9.41,9.31,9.57,5.93,5.91,5.91
28.05,-3.38,-9.29,-3.37,-9.28,9.28,9.19,9.75,5.90,5.91,5.91
28.33,-3.23,-9.13,-3.25,-9.15,9.15,9.06,9.92,5.92,5.90,5.90
28.62,-3.14,-9.03,-3.12,-9.02,9.02,8.93,10.08,5.89,5.90,5.90
28.90,-3.00,-8.90,-3.00,-8.90,8.90,8.81,10.23,5.89,5.90,5.90
29.19,-2.88,-8.77,-2.88,-8.77,8.77,8.68,10.37,5.89,5.89,5.88
29.48,-2.75,-8.64,-2.76,-8.64,8.64,8.56,10.49,5.89,5.88,5.89
29.78,-2.64,-8.52,-2.64,-8.52,8.52,8.44,10.60,5.88,5.88,5.88
30.08,-2.53,-8.40,-2.52,-8.40,8.40,8.32,10.70,5.87,5.87,5.88
30.38,-2.41,-8.27,-2.41,-8.27,8.27,8.21,10.77,5.87,5.87,5.87
30.68,-2.30,-8.17,-2.29,-8.15,8.15,8.09,10.82,5.85,5.86,5.86
30.99,-2.18,-8.03,-2.18,-8.03,8.03,7.98,10.86,5.86,5.85,5.85
31.30,-2.06,-7.90,-2.07,-7.91,7.91,7.87,10.87,5.86,5.85,5.85
31.61,-1.95,-7.80,-1.96,-7.80,7.80,7.76,10.87,5.84,5.84,5.85
31.93,-1.85,-7.68,-1.85,-7.68,7.68,7.65,10.84,5.83,5.83,5.83
32.24,-1.74,-7.56,-1.74,-7.57,7.57,7.54,10.79,5.83,5.83,5.82
32.57,-1.65,-7.46,-1.64,-7.46,7.46,7.43,10.73,5.81,5.82,5.82
32.89,-1.53,-7.35,-1.54,-7.35,7.35,7.33,10.65,5.81,5.81,5.81
33.22,-1.43,-7.24,-1.44,-7.24,7.24,7.23,10.55,5.81,5.80,5.80
33.55,-1.33,-7.13,-1.34,-7.14,7.14,7.13,10.43,5.80,5.80,5.80
33.89,-1.24,-7.03,-1.25,-7.03,7.03,7.03,10.31,5.79,5.79,5.79
34.23,-1.15,-6.93,-1.15,-6.93,6.93,6.93,10.17,5.79,5.78,5.78
34.57,-1.06,-6.83,-1.06,-6.83,6.83,6.83,10.03,5.77,5.77,5.77
34.92,-0.99,-6.74,-0.98,-6.73,6.73,6.74,9.87,5.75,5.76,5.76
35.27,-0.89,-6.64,-0.89,-6.64,6.64,6.65,9.71,5.75,5.75,5.75
35.62,-0.82,-6.56,-0.81,-6.55,6.55,6.56,9.55,5.72,5.74,5.74
35.97,-0.71,-6.44,-0.73,-6.45,6.45,6.47,9.38,5.74,5.73,5.72
36.33,-0.64,-6.36,-0.65,-6.36,6.36,6.38,9.21,5.72,5.72,5.72
36.70,-0.58,-6.28,-0.57,-6.27,6.27,6.29,9.04,5.70,5.70,5.70
37.06,-0.49,-6.18,-0.49,-6.19,6.19,6.21,8.86,5.69,5.69,5.69
37.43,-0.42,-6.11,-0.42,-6.10,6.10,6.13,8.69,5.68,5.68,5.69
37.81,-0.35,-6.03,-0.35,-6.02,6.02,6.04,8.52,5.66,5.67,5.67
38.19,-0.29,-5.94,-0.28,-5.94,5.94,5.97,8.36,5.65,5.66,5.66
38.57,-0.20,-5.85,-0.21,-5.86,5.86,5.89,8.19,5.65,5.64,5.65
38.95,-0.15,-5.79,-0.15,-5.78,5.78,5.81,8.03,5.63,5.63,5.63
39.34,-0.08,-5.70,-0.09,-5.71,5.71,5.74,7.87,5.62,5.62,5.62
39.74,-0.02,-5.62,-0.03,-5.64,5.64,5.66,7.71,5.62,5.61,5.60
40.14,0.03,-5.56,0.03,-5.57,5.57,5.59,7.56,5.60,5.60,5.60
40.54,0.08,-5.50,0.09,-5.50,5.50,5.52,7.42,5.57,5.59,5.58
40.94,0.13,-5.45,0.14,-5.44,5.44,5.46,7.27,5.56,5.57,5.57
41.35,0.19,-5.37,0.18,-5.38,5.38,5.39,7.14,5.56,5.56,5.56
41.76,0.23,-5.32,0.23,-5.32,5.32,5.33,7.00,5.55,5.55,5.55
42.18,0.27,-5.28,0.26,-5.27,5.27,5.26,6.87,5.53,5.53,5.54
42.60,0.31,-5.22,0.30,-5.22,5.22,5.20,6.75,5.52,5.52,5.52
43.03,0.34,-5.18,0.33,-5.17,5.17,5.14,6.63,5.51,5.50,5.52
43.46,0.36,-5.14,0.35,-5.13,5.13,5.09,6.52,5.49,5.49,5.50
43.90,0.39,-5.07,0.37,-5.10,5.10,5.03,6.41,5.50,5.47,5.47
44.33,0.40,-5.05,0.39,-5.07,5.07,4.98,6.30,5.47,5.45,5.45
44.78,0.40,-5.03,0.40,-5.04,5.04,4.93,6.20,5.44,5.44,5.43
45.23,0.40,-5.01,0.40,-5.02,5.02,4.88,6.10,5.41,5.42,5.41
45.68,0.40,-4.99,0.40,-5.00,5.00,4.83,6.01,5.39,5.40,5.39
46.13,0.40,-4.97,0.40,-4.98,4.98,4.78,5.93,5.37,5.38,5.37
46.60,0.40,-4.96,0.39,-4.97,4.97,4.74,5.84,5.36,5.36,5.36
47.06,0.40,-4.94,0.38,-4.95,4.95,4.70,5.76,5.35,5.33,5.34
47.53,0.36,-4.96,0.37,-4.94,4.94,4.66,5.69,5.30,5.31,5.32
48.01,0.36,-4.95,0.35,-4.93,4.93,4.62,5.62,5.29,5.28,5.30
48.49,0.34,-4.94,0.33,-4.93,4.93,4.59,5.55,5.26,5.26,5.27
48.97,0.32,-4.92,0.31,-4.92,4.92,4.56,5.49,5.24,5.24,5.24
49.46,0.31,-4.90,0.30,-4.91,4.91,4.53,5.43,5.22,5.21,5.20
49.96,0.27,-4.91,0.28,-4.90,4.90,4.50,5.37,5.17,5.19,5.17
50.46,0.27,-4.89,0.27,-4.89,4.89,4.47,5.32,5.16,5.16,5.16
50.96,0.23,-4.91,0.25,-4.88,4.88,4.45,5.27,5.11,5.13,5.13
51.47,0.23,-4.87,0.24,-4.87,4.87,4.43,5.22,5.09,5.10,5.10
51.99,0.23,-4.85,0.22,-4.85,4.85,4.41,5.17,5.08,5.08,5.07
52.51,0.22,-4.84,0.21,-4.84,4.84,4.39,5.13,5.05,5.05,5.05
53.03,0.19,-4.84,0.20,-4.82,4.82,4.38,5.09,5.00,5.02,5.03
53.56,0.19,-4.81,0.19,-4.80,4.80,4.37,5.05,4.99,4.99,5.00
54.10,0.19,-4.79,0.18,-4.79,4.79,4.36,5.01,4.98,4.97,4.97
54.64,0.19,-4.76,0.17,-4.78,4.78,4.35,4.97,4.96,4.94,4.94
55.18,0.19,-4.73,0.15,-4.76,4.76,4.35,4.93,4.95,4.92,4.91
55.74,0.14,-4.75,0.14,-4.75,4.75,4.35,4.89,4.89,4.89,4.88
56.29,0.14,-4.73,0.12,-4.74,4.74,4.35,4.86,4.88,4.86,4.86
56.86,0.14,-4.69,0.11,-4.73,4.73,4.35,4.82,4.86,4.84,4.83
57.42,0.10,-4.70,0.09,-4.71,4.71,4.36,4.78,4.81,4.81,4.80
58.00,0.10,-4.68,0.08,-4.70,4.70,4.36,4.74,4.79,4.78,4.77
58.58,0.07,-4.69,0.07,-4.68,4.68,4.37,4.70,4.74,4.75,4.75
59.16,0.06,-4.67,0.07,-4.65,4.65,4.38,4.66,4.70,4.72,4.73
59.76,0.06,-4.65,0.07,-4.61,4.61,4.40,4.61,4.67,4.69,4.70
60.35,0.06,-4.61,0.08,-4.57,4.57,4.41,4.57,4.63,4.66,4.67
60.96,0.06,-4.58,0.10,-4.52,4.52,4.42,4.52,4.58,4.63,4.64
61.57,0.10,-4.50,0.13,-4.46,4.46,4.43,4.47,4.56,4.59,4.59
62.18,0.13,-4.43,0.17,-4.40,4.40,4.45,4.42,4.52,4.56,4.55
62.80,0.17,-4.36,0.21,-4.32,4.32,4.46,4.36,4.49,4.53,4.52
63.43,0.21,-4.28,0.25,-4.24,4.24,4.47,4.30,4.45,4.49,4.48
64.07,0.27,-4.18,0.30,-4.16,4.16,4.47,4.24,4.44,4.46,4.45
64.71,0.34,-4.09,0.34,-4.09,4.09,4.48,4.18,4.42,4.42,4.42
65.35,0.38,-4.01,0.37,-4.02,4.02,4.48,4.12,4.39,4.39,4.39
66.01,0.43,-3.93,0.40,-3.96,3.96,4.48,4.05,4.38,4.35,4.35
66.67,0.46,-3.86,0.41,-3.91,3.91,4.47,3.98,4.36,4.32,4.32
67.33,0.49,-3.80,0.40,-3.88,3.88,4.46,3.90,4.36,4.28,4.28
68.01,0.47,-3.78,0.38,-3.86,3.86,4.44,3.83,4.33,4.25,4.25
68.69,0.43,-3.79,0.34,-3.87,3.87,4.41,3.75,4.30,4.21,4.21
69.37,0.35,-3.82,0.28,-3.89,3.89,4.38,3.67,4.25,4.17,4.17
70.07,0.27,-3.87,0.21,-3.93,3.93,4.35,3.59,4.20,4.14,4.13
70.77,0.16,-3.95,0.12,-3.98,3.98,4.30,3.51,4.14,4.10,4.10
71.48,0.04,-4.03,0.02,-4.04,4.04,4.26,3.43,4.07,4.06,4.06
72.19,-0.07,-4.08,-0.08,-4.10,4.10,4.20,3.35,4.03,4.02,4.02
72.91,-0.22,-4.19,-0.18,-4.16,4.16,4.14,3.27,3.94,3.98,3.98
73.64,-0.33,-4.26,-0.28,-4.21,4.21,4.07,3.18,3.89,3.94,3.93
74.38,-0.42,-4.32,-0.36,-4.26,4.26,4.00,3.10,3.83,3.90,3.90
75.12,-0.50,-4.36,-0.43,-4.28,4.28,3.93,3.02,3.78,3.86,3.85
75.87,-0.56,-4.38,-0.48,-4.29,4.29,3.85,2.93,3.73,3.82,3.81
76.63,-0.59,-4.37,-0.51,-4.28,4.28,3.77,2.85,3.69,3.78,3.78
77.40,-0.58,-4.32,-0.52,-4.26,4.26,3.68,2.77,3.67,3.74,3.74
78.17,-0.55,-4.24,-0.51,-4.21,4.21,3.59,2.68,3.65,3.69,3.69
78.95,-0.50,-4.16,-0.49,-4.14,4.14,3.50,2.60,3.64,3.65,3.66
79.74,-0.45,-4.07,-0.45,-4.06,4.06,3.42,2.52,3.61,3.61,3.61
80.54,-0.38,-3.96,-0.40,-3.97,3.97,3.33,2.44,3.59,3.57,3.57
81.35,-0.30,-3.83,-0.34,-3.87,3.87,3.24,2.36,3.57,3.53,3.53
82.16,-0.23,-3.72,-0.28,-3.76,3.76,3.15,2.28,3.53,3.48,3.48
82.98,-0.18,-3.63,-0.21,-3.65,3.65,3.06,2.21,3.47,3.44,3.45
83.81,-0.10,-3.49,-0.14,-3.54,3.54,2.97,2.13,3.43,3.39,3.39
84.65,-0.05,-3.40,-0.08,-3.42,3.42,2.88,2.06,3.37,3.35,3.34
85.50,-0.00,-3.31,-0.01,-3.31,3.31,2.80,1.98,3.31,3.30,3.30
86.35,0.06,-3.20,0.05,-3.21,3.21,2.71,1.91,3.26,3.26,3.26
87.22,0.12,-3.09,0.11,-3.10,3.10,2.63,1.84,3.22,3.21,3.21
88.09,0.17,-2.99,0.16,-3.00,3.00,2.55,1.77,3.16,3.16,3.16
88.97,0.21,-2.91,0.21,-2.90,2.90,2.47,1.70,3.10,3.11,3.11
89.86,0.26,-2.81,0.26,-2.79,2.79,2.40,1.63,3.05,3.06,3.06
90.76,0.31,-2.70,0.31,-2.69,2.69,2.32,1.56,3.00,3.01,3.00
91.66,0.36,-2.60,0.36,-2.59,2.59,2.25,1.50,2.95,2.95,2.96
92.58,0.41,-2.49,0.41,-2.49,2.49,2.18,1.43,2.89,2.90,2.89
93.51,0.46,-2.39,0.46,-2.39,2.39,2.11,1.37,2.84,2.85,2.85
94.44,0.51,-2.29,0.51,-2.28,2.28,2.04,1.30,2.79,2.79,2.79
95.39,0.56,-2.18,0.55,-2.18,2.18,1.97,1.24,2.73,2.73,2.74
96.34,0.60,-2.08,0.60,-2.08,2.08,1.91,1.18,2.67,2.68,2.67
97.30,0.64,-1.98,0.65,-1.97,1.97,1.85,1.12,2.61,2.62,2.62
98.28,0.69,-1.88,0.69,-1.87,1.87,1.79,1.06,2.56,2.56,2.56
99.26,0.73,-1.78,0.73,-1.77,1.77,1.73,1.01,2.50,2.51,2.50
100.25,0.77,-1.68,0.77,-1.67,1.67,1.67,0.95,2.44,2.45,2.45
101.25,0.81,-1.58,0.81,-1.58,1.58,1.61,0.90,2.39,2.39,2.39
102.27,0.84,-1.50,0.84,-1.50,1.50,1.56,0.84,2.33,2.33,2.33
103.29,0.87,-1.40,0.86,-1.41,1.41,1.50,0.79,2.28,2.27,2.26
104.32,0.88,-1.34,0.88,-1.34,1.34,1.45,0.74,2.22,2.22,2.22
105.37,0.89,-1.27,0.88,-1.27,1.27,1.40,0.69,2.16,2.16,2.16
106.42,0.92,-1.19,0.88,-1.22,1.22,1.35,0.64,2.13,2.10,2.10
107.48,0.92,-1.13,0.87,-1.17,1.17,1.29,0.59,2.09,2.04,2.04
108.56,0.88,-1.10,0.85,-1.13,1.13,1.24,0.55,2.01,1.98,1.98
109.64,0.86,-1.06,0.82,-1.10,1.10,1.20,0.50,1.95,1.92,1.92
110.74,0.82,-1.05,0.78,-1.07,1.07,1.15,0.46,1.89,1.85,1.86
111.85,0.77,-1.04,0.74,-1.05,1.05,1.10,0.42,1.82,1.79,1.80
112.97,0.73,-1.00,0.70,-1.03,1.03,1.05,0.38,1.76,1.73,1.73
114.10,0.66,-1.01,0.66,-1.01,1.01,1.01,0.35,1.66,1.67,1.67
115.24,0.60,-1.01,0.62,-0.98,0.98,0.96,0.31,1.58,1.61,1.60
116.39,0.55,-0.99,0.59,-0.95,0.95,0.91,0.28,1.50,1.54,1.54
117.55,0.50,-0.98,0.56,-0.92,0.92,0.87,0.25,1.41,1.48,1.47
118.73,0.49,-0.92,0.54,-0.87,0.87,0.82,0.22,1.36,1.42,1.41
119.92,0.49,-0.87,0.54,-0.82,0.82,0.77,0.20,1.30,1.35,1.35
121.12,0.49,-0.80,0.54,-0.75,0.75,0.73,0.18,1.24,1.29,1.29
122.33,0.53,-0.70,0.55,-0.68,0.68,0.68,0.16,1.21,1.23,1.23
123.55,0.56,-0.62,0.56,-0.60,0.60,0.64,0.14,1.16,1.17,1.17
124.79,0.60,-0.52,0.58,-0.52,0.52,0.59,0.12,1.12,1.10,1.11
126.03,0.64,-0.41,0.61,-0.44,0.44,0.54,0.11,1.07,1.04,1.05
127.29,0.67,-0.32,0.63,-0.35,0.35,0.50,0.10,1.01,0.98,0.99
128.57,0.71,-0.21,0.66,-0.26,0.26,0.45,0.09,0.97,0.92,0.92
129.85,0.71,-0.15,0.69,-0.18,0.18,0.40,0.08,0.88,0.86,0.86
131.15,0.75,-0.06,0.71,-0.10,0.10,0.36,0.08,0.84,0.81,0.80
132.46,0.75,0.00,0.73,-0.02,0.02,0.31,0.08,0.76,0.75,0.74
133.79,0.75,0.05,0.74,0.05,-0.05,0.26,0.08,0.70,0.69,0.70
135.12,0.75,0.11,0.75,0.11,-0.11,0.21,0.08,0.63,0.64,0.63
136.48,0.75,0.16,0.75,0.17,-0.17,0.16,0.09,0.58,0.58,0.59
137.84,0.75,0.21,0.75,0.22,-0.22,0.11,0.09,0.52,0.53,0.53
139.22,0.75,0.28,0.75,0.27,-0.27,0.06,0.10,0.47,0.48,0.47
140.61,0.75,0.33,0.75,0.32,-0.32,0.01,0.11,0.43,0.43,0.42
142.02,0.75,0.36,0.74,0.36,-0.36,-0.05,0.13,0.38,0.38,0.39
143.44,0.75,0.41,0.74,0.40,-0.40,-0.10,0.14,0.34,0.33,0.34
144.87,0.74,0.45,0.73,0.44,-0.44,-0.15,0.15,0.29,0.29,0.29
146.32,0.71,0.47,0.72,0.48,-0.48,-0.21,0.17,0.22,0.24,0.24
147.78,0.71,0.50,0.72,0.52,-0.52,-0.26,0.19,0.18,0.19,0.20
149.26,0.71,0.55,0.71,0.56,-0.56,-0.32,0.21,0.14,0.15,0.15
150.75,0.71,0.61,0.70,0.60,-0.60,-0.37,0.22,0.11,0.10,0.10
152.26,0.71,0.65,0.69,0.64,-0.64,-0.43,0.24,0.07,0.05,0.05
153.78,0.67,0.65,0.68,0.67,-0.67,-0.48,0.27,-0.01,0.01,0.01
155.32,0.66,0.70,0.67,0.71,-0.71,-0.54,0.29,-0.05,-0.04,-0.04
156.88,0.66,0.74,0.66,0.74,-0.74,-0.60,0.31,-0.09,-0.09,-0.08
158.44,0.66,0.79,0.64,0.78,-0.78,-0.65,0.33,-0.12,-0.13,-0.13
160.03,0.62,0.80,0.63,0.81,-0.81,-0.71,0.36,-0.19,-0.18,-0.18
161.63,0.62,0.85,0.62,0.84,-0.84,-0.76,0.38,-0.23,-0.22,-0.23
163.24,0.62,0.89,0.60,0.87,-0.87,-0.81,0.41,-0.26,-0.27,-0.28
164.88,0.58,0.89,0.58,0.90,-0.90,-0.86,0.43,-0.32,-0.32,-0.32
166.53,0.58,0.94,0.56,0.92,-0.92,-0.91,0.46,-0.34,-0.36,-0.36
168.19,0.53,0.93,0.54,0.94,-0.94,-0.96,0.48,-0.42,-0.41,-0.41
169.87,0.52,0.96,0.51,0.96,-0.96,-1.00,0.51,-0.45,-0.45,-0.45
171.57,0.49,0.98,0.48,0.98,-0.98,-1.04,0.54,-0.50,-0.50,-0.49
173.29,0.45,0.98,0.45,0.99,-0.99,-1.08,0.56,-0.55,-0.54,-0.53
175.02,0.43,1.00,0.42,1.01,-1.01,-1.11,0.59,-0.58,-0.58,-0.58
176.77,0.38,1.00,0.39,1.01,-1.01,-1.14,0.62,-0.64,-0.63,-0.63
178.54,0.35,1.02,0.35,1.02,-1.02,-1.16,0.65,-0.67,-0.67,-0.68
180.32,0.31,1.02,0.30,1.02,-1.02,-1.18,0.68,-0.71,-0.71,-0.71
182.13,0.27,1.02,0.26,1.01,-1.01,-1.19,0.71,-0.75,-0.75,-0.75
183.95,0.22,1.01,0.21,1.01,-1.01,-1.19,0.74,-0.79,-0.80,-0.80
185.79,0.17,1.00,0.16,0.99,-0.99,-1.18,0.77,-0.83,-0.84,-0.83
187.65,0.11,0.99,0.10,0.98,-0.98,-1.17,0.80,-0.87,-0.88,-0.88
189.52,0.05,0.96,0.04,0.96,-0.96,-1.15,0.83,-0.91,-0.91,-0.91
191.42,-0.01,0.93,-0.02,0.93,-0.93,-1.12,0.86,-0.95,-0.95,-0.95
193.33,-0.08,0.90,-0.08,0.90,-0.90,-1.08,0.89,-0.99,-0.98,-0.98
195.27,-0.15,0.86,-0.15,0.87,-0.87,-1.03,0.92,-1.02,-1.02,-1.01
197.22,-0.23,0.81,-0.22,0.82,-0.82,-0.97,0.95,-1.06,-1.05,-1.05
199.19,-0.30,0.78,-0.30,0.78,-0.78,-0.90,0.98,-1.08,-1.08,-1.09
201.18,-0.37,0.73,-0.38,0.73,-0.73,-0.82,1.01,-1.10,-1.10,-1.11
203.19,-0.45,0.67,-0.46,0.67,-0.67,-0.74,1.05,-1.12,-1.13,-1.13
205.23,-0.54,0.61,-0.55,0.61,-0.61,-0.64,1.08,-1.15,-1.15,-1.16
207.28,-0.64,0.52,-0.64,0.54,-0.54,-0.54,1.11,-1.18,-1.17,-1.16
209.35,-0.72,0.47,-0.73,0.47,-0.47,-0.44,1.14,-1.19,-1.19,-1.19
211.44,-0.82,0.39,-0.83,0.38,-0.38,-0.32,1.17,-1.21,-1.21,-1.22
213.56,-0.93,0.29,-0.93,0.30,-0.30,-0.20,1.20,-1.23,-1.23,-1.23
215.69,-1.03,0.20,-1.04,0.20,-0.20,-0.08,1.23,-1.24,-1.24,-1.23
217.85,-1.13,0.11,-1.15,0.10,-0.10,0.05,1.26,-1.24,-1.25,-1.25
220.03,-1.24,0.02,-1.26,-0.00,0.00,0.19,1.28,-1.24,-1.26,-1.26
222.23,-1.36,-0.09,-1.38,-0.12,0.12,0.32,1.31,-1.25,-1.27,-1.28
224.45,-1.51,-0.24,-1.51,-0.24,0.24,0.46,1.34,-1.28,-1.27,-1.27
226.70,-1.62,-0.35,-1.64,-0.36,0.36,0.59,1.36,-1.26,-1.28,-1.27
228.96,-1.76,-0.49,-1.77,-0.49,0.49,0.73,1.38,-1.27,-1.28,-1.28
231.25,-1.90,-0.63,-1.90,-0.63,0.63,0.87,1.41,-1.28,-1.28,-1.27
233.57,-2.04,-0.77,-2.04,-0.76,0.76,1.00,1.43,-1.28,-1.28,-1.27
235.90,-2.17,-0.90,-2.18,-0.91,0.91,1.14,1.44,-1.27,-1.27,-1.27
238.26,-2.32,-1.05,-2.32,-1.05,1.05,1.27,1.46,-1.28,-1.27,-1.28
240.64,-2.45,-1.19,-2.45,-1.19,1.19,1.40,1.47,-1.27,-1.26,-1.27
243.05,-2.59,-1.34,-2.59,-1.33,1.33,1.52,1.49,-1.26,-1.26,-1.26
245.48,-2.73,-1.49,-2.72,-1.47,1.47,1.64,1.50,-1.26,-1.25,-1.25
247.93,-2.84,-1.61,-2.85,-1.61,1.61,1.75,1.51,-1.23,-1.24,-1.24
250.41,-2.97,-1.74,-2.97,-1.75,1.75,1.86,1.51,-1.23,-1.23,-1.24
252.92,-3.09,-1.88,-3.09,-1.88,1.88,1.97,1.52,-1.21,-1.21,-1.22
255.45,-3.22,-2.03,-3.21,-2.01,2.01,2.06,1.52,-1.21,-1.20,-1.19
258.00,-3.32,-2.14,-3.32,-2.14,2.14,2.16,1.52,-1.19,-1.18,-1.18
260.58,-3.42,-2.25,-3.43,-2.26,2.26,2.24,1.52,-1.17,-1.17,-1.17
263.19,-3.50,-2.36,-3.53,-2.38,2.38,2.32,1.51,-1.13,-1.15,-1.15
265.82,-3.61,-2.48,-3.62,-2.49,2.49,2.39,1.51,-1.13,-1.13,-1.14
268.48,-3.71,-2.60,-3.71,-2.60,2.60,2.46,1.50,-1.12,-1.12,-1.11
271.16,-3.77,-2.68,-3.80,-2.70,2.70,2.52,1.49,-1.08,-1.10,-1.09
273.87,-3.86,-2.79,-3.87,-2.79,2.79,2.57,1.48,-1.07,-1.08,-1.08
276.61,-3.91,-2.86,-3.94,-2.88,2.88,2.62,1.47,-1.04,-1.06,-1.05
279.38,-3.98,-2.94,-3.99,-2.95,2.95,2.66,1.46,-1.03,-1.04,-1.04
282.17,-4.03,-3.01,-4.03,-3.01,3.01,2.69,1.44,-1.03,-1.02,-1.03
284.99,-4.06,-3.06,-4.06,-3.05,3.05,2.72,1.43,-1.01,-1.01,-1.00
287.84,-4.10,-3.12,-4.07,-3.08,3.08,2.74,1.42,-1.02,-0.99,-0.99
290.72,-4.10,-3.14,-4.06,-3.09,3.09,2.76,1.40,-1.01,-0.96,-0.96
293.63,-4.09,-3.15,-4.03,-3.09,3.09,2.77,1.38,-1.01,-0.94,-0.95
296.57,-4.05,-3.13,-3.99,-3.06,3.06,2.77,1.37,-0.99,-0.92,-0.92
299.53,-3.99,-3.09,-3.93,-3.03,3.03,2.77,1.35,-0.97,-0.90,-0.91
302.53,-3.91,-3.02,-3.86,-2.98,2.98,2.77,1.33,-0.93,-0.88,-0.89
305.55,-3.82,-2.97,-3.78,-2.93,2.93,2.76,1.32,-0.90,-0.86,-0.86
308.61,-3.70,-2.86,-3.71,-2.87,2.87,2.75,1.30,-0.84,-0.84,-0.84
311.69,-3.58,-2.77,-3.62,-2.81,2.81,2.73,1.29,-0.78,-0.82,-0.82
314.81,-3.47,-2.69,-3.54,-2.75,2.75,2.71,1.27,-0.73,-0.79,-0.78
317.96,-3.39,-2.63,-3.47,-2.70,2.70,2.69,1.25,-0.70,-0.77,-0.76
321.14,-3.30,-2.56,-3.40,-2.65,2.65,2.67,1.24,-0.66,-0.75,-0.75
324.35,-3.25,-2.52,-3.34,-2.61,2.61,2.64,1.23,-0.64,-0.73,-0.73
327.59,-3.20,-2.50,-3.29,-2.58,2.58,2.61,1.21,-0.62,-0.71,-0.70
330.87,-3.19,-2.51,-3.24,-2.56,2.56,2.58,1.20,-0.64,-0.69,-0.69
334.18,-3.19,-2.52,-3.20,-2.54,2.54,2.54,1.19,-0.66,-0.67,-0.67
337.52,-3.19,-2.54,-3.17,-2.52,2.52,2.51,1.18,-0.67,-0.65,-0.65
340.90,-3.19,-2.57,-3.14,-2.51,2.51,2.47,1.17,-0.68,-0.63,-0.63
344.30,-3.15,-2.54,-3.11,-2.50,2.50,2.43,1.16,-0.66,-0.61,-0.61
347.75,-3.13,-2.54,-3.07,-2.48,2.48,2.39,1.15,-0.65,-0.59,-0.59
351.23,-3.08,-2.51,-3.03,-2.46,2.46,2.35,1.14,-0.63,-0.58,-0.58
354.74,-3.03,-2.48,-2.99,-2.43,2.43,2.31,1.13,-0.61,-0.56,-0.56
358.28,-2.95,-2.41,-2.93,-2.39,2.39,2.27,1.13,-0.56,-0.54,-0.54
361.87,-2.87,-2.35,-2.87,-2.34,2.34,2.22,1.12,-0.53,-0.52,-0.52
365.49,-2.77,-2.27,-2.80,-2.29,2.29,2.18,1.12,-0.49,-0.51,-0.50
369.14,-2.71,-2.22,-2.72,-2.22,2.22,2.14,1.11,-0.49,-0.49,-0.50
372.83,-2.61,-2.14,-2.63,-2.15,2.15,2.10,1.11,-0.46,-0.48,-0.48
376.56,-2.54,-2.07,-2.55,-2.08,2.08,2.06,1.11,-0.46,-0.46,-0.47
380.33,-2.44,-2.00,-2.46,-2.01,2.01,2.01,1.11,-0.44,-0.45,-0.44
384.13,-2.37,-1.94,-2.38,-1.94,1.94,1.97,1.11,-0.44,-0.44,-0.43
387.97,-2.28,-1.86,-2.29,-1.86,1.86,1.93,1.11,-0.42,-0.43,-0.43
391.85,-2.19,-1.78,-2.21,-1.79,1.79,1.89,1.11,-0.40,-0.41,-0.42
395.77,-2.12,-1.73,-2.13,-1.72,1.72,1.85,1.11,-0.40,-0.40,-0.40
399.73,-2.04,-1.65,-2.05,-1.66,1.66,1.81,1.11,-0.39,-0.39,-0.39
403.72,-1.97,-1.59,-1.98,-1.59,1.59,1.77,1.12,-0.38,-0.38,-0.38
407.76,-1.89,-1.52,-1.90,-1.53,1.53,1.73,1.12,-0.36,-0.37,-0.37
411.84,-1.83,-1.48,-1.83,-1.48,1.48,1.69,1.12,-0.36,-0.36,-0.36
415.96,-1.77,-1.43,-1.77,-1.42,1.42,1.65,1.13,-0.35,-0.35,-0.35
420.12,-1.70,-1.37,-1.71,-1.37,1.37,1.61,1.13,-0.33,-0.34,-0.34
424.32,-1.64,-1.32,-1.65,-1.32,1.32,1.57,1.14,-0.32,-0.33,-0.33
428.56,-1.57,-1.25,-1.60,-1.28,1.28,1.54,1.14,-0.30,-0.32,-0.32
432.85,-1.52,-1.21,-1.54,-1.24,1.24,1.50,1.15,-0.29,-0.31,-0.31
437.18,-1.48,-1.18,-1.49,-1.19,1.19,1.46,1.15,-0.29,-0.30,-0.30
441.55,-1.44,-1.16,-1.44,-1.15,1.15,1.43,1.16,-0.29,-0.29,-0.28
445.96,-1.39,-1.12,-1.38,-1.11,1.11,1.40,1.16,-0.29,-0.27,-0.27
450.42,-1.33,-1.07,-1.33,-1.07,1.07,1.36,1.17,-0.27,-0.26,-0.27
454.93,-1.30,-1.06,-1.27,-1.03,1.03,1.33,1.17,-0.28,-0.25,-0.25
459.48,-1.24,-1.01,-1.22,-0.98,0.98,1.30,1.18,-0.26,-0.23,-0.24
464.07,-1.18,-0.97,-1.16,-0.94,0.94,1.27,1.18,-0.24,-0.22,-0.22
468.71,-1.11,-0.92,-1.10,-0.90,0.90,1.23,1.18,-0.22,-0.20,-0.20
473.40,-1.04,-0.85,-1.05,-0.86,0.86,1.20,1.18,-0.19,-0.19,-0.19
478.13,-0.98,-0.81,-0.99,-0.82,0.82,1.17,1.18,-0.17,-0.17,-0.17
482.91,-0.91,-0.75,-0.94,-0.78,0.78,1.15,1.18,-0.14,-0.16,-0.16
487.74,-0.86,-0.72,-0.88,-0.74,0.74,1.12,1.18,-0.13,-0.14,-0.14
492.62,-0.81,-0.69,-0.83,-0.70,0.70,1.09,1.18,-0.11,-0.13,-0.12
497.55,-0.76,-0.65,-0.78,-0.67,0.67,1.06,1.18,-0.10,-0.11,-0.11
502.52,-0.72,-0.63,-0.73,-0.64,0.64,1.04,1.17,-0.09,-0.10,-0.09
