frequency,raw,error,smoothed,error_smoothed,equalization,parametric_eq,fixed_band_eq,equalized_raw,equalized_smoothed,target
20.00,2.59,-5.92,2.59,-5.92,5.92,5.84,2.09,8.51,8.51,8.51
20.20,2.62,-5.88,2.62,-5.88,5.88,5.82,2.15,8.50,8.50,8.50
20.40,2.66,-5.83,2.65,-5.84,5.83,5.81,2.22,8.49,8.49,8.49
20.61,2.69,-5.79,2.69,-5.79,5.79,5.79,2.28,8.48,8.48,8.48
20.81,2.72,-5.74,2.72,-5.74,5.75,5.77,2.35,8.47,8.47,8.46
21.02,2.75,-5.70,2.75,-5.70,5.71,5.76,2.42,8.46,8.46,8.45
21.23,2.79,-5.65,2.79,-5.66,5.66,5.74,2.49,8.45,8.45,8.44
21.44,2.82,-5.63,2.82,-5.62,5.62,5.71,2.57,8.44,8.44,8.45
21.66,2.85,-5.58,2.85,-5.59,5.58,5.69,2.64,8.43,8.43,8.43
21.87,2.88,-5.55,2.88,-5.55,5.54,5.67,2.72,8.42,8.42,8.43
22.09,2.91,-5.50,2.91,-5.50,5.50,5.64,2.80,8.41,8.41,8.41
22.31,2.95,-5.45,2.94,-5.46,5.46,5.62,2.89,8.41,8.40,8.40
22.54,2.98,-5.41,2.98,-5.42,5.42,5.59,2.97,8.40,8.40,8.39
22.76,3.01,-5.38,3.01,-5.37,5.38,5.57,3.06,8.39,8.39,8.39
22.99,3.05,-5.33,3.04,-5.34,5.34,5.54,3.15,8.39,8.38,8.38
23.22,3.08,-5.29,3.08,-5.30,5.30,5.51,3.24,8.38,8.38,8.37
23.45,3.11,-5.27,3.11,-5.26,5.26,5.48,3.33,8.37,8.38,8.38
23.69,3.15,-5.22,3.15,-5.23,5.23,5.45,3.43,8.38,8.37,8.37
23.92,3.18,-5.18,3.18,-5.19,5.19,5.42,3.53,8.37,8.37,8.36
24.16,3.21,-5.16,3.21,-5.16,5.16,5.39,3.62,8.37,8.37,8.37
24.40,3.24,-5.13,3.24,-5.13,5.12,5.36,3.72,8.36,8.36,8.37
24.65,3.27,-5.09,3.27,-5.09,5.09,5.32,3.83,8.36,8.36,8.36
24.89,3.31,-5.05,3.31,-5.05,5.05,5.29,3.93,8.36,8.36,8.36
25.14,3.34,-5.01,3.34,-5.02,5.02,5.26,4.03,8.36,8.36,8.35
25.39,3.37,-4.98,3.37,-4.98,4.99,5.22,4.14,8.35,8.36,8.35
25.65,3.40,-4.95,3.40,-4.95,4.95,5.19,4.24,8.35,8.35,8.35
25.91,3.44,-4.91,3.43,-4.92,4.92,5.15,4.35,8.36,8.35,8.35
26.16,3.47,-4.89,3.47,-4.89,4.88,5.12,4.45,8.35,8.35,8.36
26.43,3.50,-4.85,3.50,-4.86,4.85,5.08,4.56,8.35,8.35,8.35
26.69,3.53,-4.82,3.53,-4.82,4.82,5.05,4.66,8.35,8.35,8.35
26.96,3.56,-4.79,3.56,-4.79,4.79,5.01,4.76,8.35,8.35,8.35
27.23,3.60,-4.75,3.59,-4.76,4.76,4.98,4.86,8.36,8.35,8.35
27.50,3.63,-4.72,3.63,-4.73,4.73,4.94,4.96,8.36,8.36,8.35
27.77,3.66,-4.70,3.66,-4.70,4.70,4.91,5.05,8.36,8.36,8.36
28.05,3.69,-4.66,3.69,-4.67,4.67,4.87,5.14,8.36,8.36,8.35
28.33,3.72,-4.64,3.72,-4.64,4.64,4.84,5.22,8.36,8.36,8.36
28.62,3.75,-4.61,3.75,-4.61,4.62,4.80,5.30,8.36,8.36,8.36
28.90,3.78,-4.59,3.78,-4.59,4.59,4.76,5.37,8.37,8.37,8.37
29.19,3.81,-4.56,3.81,-4.56,4.56,4.73,5.44,8.37,8.36,8.37
29.48,3.83,-4.53,3.83,-4.53,4.53,4.69,5.49,8.36,8.36,8.36
29.78,3.86,-4.50,3.86,-4.50,4.50,4.66,5.54,8.36,8.36,8.36
30.08,3.89,-4.47,3.88,-4.47,4.47,4.62,5.59,8.36,8.35,8.36
30.38,3.91,-4.43,3.91,-4.44,4.44,4.59,5.62,8.35,8.35,8.34
30.68,3.94,-4.40,3.94,-4.41,4.41,4.55,5.64,8.35,8.35,8.34
30.99,3.97,-4.37,3.96,-4.38,4.38,4.52,5.66,8.34,8.34,8.34
31.30,3.99,-4.35,3.99,-4.35,4.34,4.48,5.67,8.33,8.33,8.34
31.61,4.02,-4.31,4.02,-4.31,4.31,4.45,5.66,8.33,8.33,8.33
31.93,4.04,-4.27,4.04,-4.28,4.28,4.41,5.65,8.32,8.32,8.31
32.24,4.07,-4.25,4.07,-4.25,4.25,4.38,5.63,8.32,8.32,8.32
32.57,4.09,-4.21,4.09,-4.22,4.22,4.35,5.60,8.31,8.31,8.30
32.89,4.11,-4.19,4.11,-4.19,4.19,4.31,5.56,8.30,8.30,8.30
33.22,4.14,-4.15,4.13,-4.16,4.16,4.28,5.51,8.29,8.29,8.29
33.55,4.16,-4.13,4.16,-4.13,4.12,4.25,5.46,8.28,8.28,8.29
33.89,4.18,-4.10,4.18,-4.10,4.10,4.21,5.39,8.27,8.28,8.28
34.23,4.21,-4.05,4.21,-4.06,4.07,4.18,5.33,8.27,8.27,8.26
34.57,4.23,-4.03,4.23,-4.03,4.04,4.15,5.25,8.27,8.27,8.26
34.92,4.25,-3.99,4.25,-4.00,4.01,4.12,5.17,8.26,8.26,8.24
35.27,4.27,-3.99,4.27,-3.98,3.98,4.08,5.09,8.24,8.24,8.26
35.62,4.29,-3.94,4.29,-3.95,3.94,4.05,5.00,8.23,8.23,8.23
35.97,4.31,-3.92,4.31,-3.92,3.91,4.02,4.91,8.22,8.22,8.23
36.33,4.33,-3.88,4.33,-3.88,3.88,3.99,4.82,8.21,8.21,8.21
36.70,4.35,-3.84,4.35,-3.84,3.84,3.96,4.73,8.19,8.19,8.19
37.06,4.37,-3.80,4.37,-3.80,3.81,3.92,4.63,8.18,8.18,8.17
37.43,4.39,-3.76,4.39,-3.77,3.77,3.89,4.53,8.16,8.16,8.15
37.81,4.41,-3.73,4.41,-3.73,3.73,3.86,4.44,8.14,8.14,8.14
38.19,4.42,-3.69,4.42,-3.70,3.70,3.83,4.34,8.12,8.12,8.11
38.57,4.43,-3.66,4.43,-3.67,3.66,3.80,4.24,8.09,8.09,8.09
38.95,4.44,-3.64,4.44,-3.63,3.63,3.76,4.14,8.07,8.07,8.08
39.34,4.45,-3.60,4.45,-3.60,3.60,3.73,4.05,8.05,8.05,8.05
39.74,4.46,-3.56,4.46,-3.57,3.57,3.70,3.95,8.02,8.02,8.02
40.14,4.47,-3.53,4.47,-3.53,3.53,3.67,3.86,8.00,8.00,8.00
40.54,4.48,-3.50,4.48,-3.50,3.50,3.63,3.77,7.98,7.98,7.98
40.94,4.49,-3.46,4.49,-3.47,3.47,3.60,3.68,7.96,7.96,7.95
41.35,4.50,-3.44,4.50,-3.44,3.44,3.56,3.59,7.94,7.94,7.94
41.76,4.51,-3.40,4.51,-3.41,3.41,3.53,3.50,7.92,7.92,7.91
42.18,4.51,-3.39,4.51,-3.39,3.38,3.49,3.42,7.89,7.89,7.90
42.60,4.52,-3.35,4.52,-3.35,3.34,3.46,3.34,7.86,7.86,7.87
43.03,4.53,-3.32,4.53,-3.32,3.31,3.42,3.26,7.84,7.84,7.85
43.46,4.55,-3.26,4.55,-3.27,3.27,3.38,3.18,7.82,7.82,7.81
43.90,4.57,-3.22,4.56,-3.23,3.23,3.34,3.11,7.80,7.80,7.79
44.33,4.58,-3.18,4.58,-3.19,3.19,3.30,3.04,7.77,7.77,7.76
44.78,4.59,-3.15,4.59,-3.15,3.15,3.26,2.97,7.74,7.74,7.74
45.23,4.61,-3.11,4.60,-3.11,3.10,3.22,2.90,7.71,7.71,7.72
45.68,4.62,-3.05,4.62,-3.06,3.06,3.18,2.84,7.68,7.68,7.67
46.13,4.63,-3.01,4.63,-3.01,3.01,3.14,2.77,7.64,7.64,7.64
46.60,4.65,-2.95,4.65,-2.96,2.96,3.10,2.71,7.61,7.61,7.60
47.06,4.66,-2.91,4.66,-2.91,2.91,3.05,2.66,7.57,7.57,7.57
47.53,4.67,-2.86,4.67,-2.86,2.86,3.01,2.60,7.53,7.53,7.53
48.01,4.68,-2.80,4.68,-2.81,2.80,2.96,2.55,7.48,7.48,7.48
48.49,4.69,-2.75,4.69,-2.75,2.75,2.91,2.49,7.44,7.44,7.44
48.97,4.71,-2.68,4.71,-2.69,2.69,2.86,2.44,7.40,7.40,7.39
49.46,4.72,-2.64,4.72,-2.63,2.63,2.82,2.40,7.35,7.35,7.36
49.96,4.74,-2.56,4.74,-2.57,2.58,2.77,2.35,7.31,7.31,7.30
50.46,4.75,-2.52,4.75,-2.52,2.52,2.72,2.31,7.27,7.27,7.27
50.96,4.77,-2.46,4.77,-2.46,2.46,2.66,2.26,7.23,7.23,7.23
51.47,4.79,-2.40,4.79,-2.40,2.40,2.61,2.22,7.19,7.19,7.19
51.99,4.81,-2.33,4.81,-2.34,2.34,2.56,2.18,7.15,7.15,7.14
52.51,4.83,-2.28,4.83,-2.29,2.29,2.51,2.14,7.12,7.11,7.11
53.03,4.84,-2.24,4.84,-2.23,2.23,2.45,2.10,7.07,7.07,7.08
53.56,4.85,-2.18,4.85,-2.18,2.18,2.40,2.07,7.03,7.03,7.03
54.10,4.86,-2.12,4.86,-2.13,2.12,2.34,2.03,6.98,6.98,6.98
54.64,4.87,-2.07,4.87,-2.07,2.07,2.29,1.99,6.94,6.94,6.94
55.18,4.88,-2.02,4.88,-2.02,2.02,2.23,1.96,6.90,6.90,6.90
55.74,4.89,-1.96,4.89,-1.97,1.97,2.17,1.92,6.86,6.86,6.85
56.29,4.90,-1.93,4.90,-1.93,1.93,2.12,1.89,6.83,6.83,6.83
56.86,4.91,-1.88,4.91,-1.88,1.89,2.06,1.85,6.79,6.79,6.79
57.42,4.91,-1.83,4.91,-1.84,1.85,2.00,1.82,6.76,6.76,6.74
58.00,4.91,-1.79,4.91,-1.80,1.81,1.95,1.78,6.72,6.72,6.70
58.58,4.90,-1.77,4.90,-1.77,1.77,1.89,1.75,6.67,6.67,6.67
59.16,4.90,-1.74,4.89,-1.74,1.73,1.83,1.71,6.63,6.63,6.64
59.76,4.88,-1.71,4.88,-1.71,1.69,1.77,1.67,6.57,6.58,6.59
60.35,4.88,-1.66,4.88,-1.66,1.65,1.72,1.63,6.52,6.53,6.54
60.96,4.88,-1.60,4.88,-1.61,1.60,1.66,1.59,6.48,6.47,6.48
61.57,4.88,-1.54,4.88,-1.54,1.55,1.60,1.55,6.42,6.42,6.42
62.18,4.88,-1.48,4.88,-1.48,1.49,1.54,1.51,6.37,6.37,6.36
62.80,4.88,-1.42,4.88,-1.43,1.44,1.49,1.47,6.31,6.31,6.30
63.43,4.88,-1.37,4.88,-1.37,1.38,1.43,1.43,6.26,6.26,6.25
64.07,4.88,-1.32,4.88,-1.32,1.32,1.37,1.38,6.20,6.20,6.20
64.71,4.88,-1.27,4.88,-1.27,1.27,1.31,1.34,6.15,6.15,6.15
65.35,4.88,-1.21,4.88,-1.22,1.22,1.26,1.29,6.09,6.09,6.09
66.01,4.88,-1.16,4.88,-1.17,1.16,1.20,1.24,6.04,6.04,6.04
66.67,4.88,-1.12,4.88,-1.11,1.11,1.14,1.19,5.99,5.99,6.00
67.33,4.88,-1.05,4.88,-1.06,1.06,1.09,1.14,5.94,5.94,5.93
68.01,4.88,-1.00,4.88,-1.01,1.01,1.03,1.09,5.88,5.88,5.88
68.69,4.88,-0.95,4.88,-0.95,0.95,0.98,1.03,5.83,5.83,5.83
69.37,4.88,-0.90,4.88,-0.90,0.89,0.92,0.98,5.77,5.77,5.78
70.07,4.88,-0.84,4.88,-0.84,0.84,0.86,0.92,5.72,5.72,5.72
70.77,4.88,-0.77,4.88,-0.78,0.78,0.81,0.87,5.66,5.66,5.65
71.48,4.88,-0.72,4.88,-0.72,0.72,0.75,0.81,5.60,5.60,5.60
72.19,4.88,-0.66,4.88,-0.66,0.66,0.70,0.75,5.54,5.54,5.54
72.91,4.88,-0.59,4.88,-0.60,0.60,0.65,0.70,5.48,5.48,5.47
73.64,4.88,-0.54,4.88,-0.54,0.54,0.59,0.64,5.42,5.42,5.42
74.38,4.88,-0.48,4.88,-0.49,0.49,0.54,0.58,5.37,5.37,5.36
75.12,4.88,-0.43,4.88,-0.43,0.43,0.48,0.52,5.31,5.31,5.31
75.87,4.88,-0.38,4.88,-0.38,0.38,0.43,0.45,5.26,5.26,5.26
76.63,4.88,-0.32,4.88,-0.33,0.33,0.38,0.39,5.21,5.21,5.20
77.40,4.88,-0.28,4.88,-0.28,0.28,0.32,0.33,5.16,5.16,5.16
78.17,4.88,-0.22,4.88,-0.23,0.23,0.27,0.27,5.11,5.11,5.10
78.95,4.88,-0.18,4.88,-0.18,0.18,0.22,0.21,5.06,5.06,5.06
79.74,4.88,-0.13,4.88,-0.13,0.13,0.16,0.14,5.01,5.01,5.01
80.54,4.88,-0.08,4.88,-0.08,0.08,0.11,0.08,4.96,4.96,4.96
81.35,4.88,-0.02,4.88,-0.03,0.03,0.06,0.02,4.91,4.91,4.90
82.16,4.88,0.01,4.88,0.02,-0.02,0.01,-0.05,4.86,4.86,4.87
82.98,4.88,0.07,4.88,0.07,-0.07,-0.04,-0.11,4.81,4.81,4.81
83.81,4.88,0.12,4.88,0.12,-0.12,-0.10,-0.18,4.76,4.76,4.76
84.65,4.88,0.18,4.88,0.18,-0.18,-0.15,-0.24,4.70,4.70,4.70
85.50,4.88,0.24,4.88,0.23,-0.23,-0.20,-0.31,4.65,4.65,4.64
86.35,4.88,0.29,4.88,0.29,-0.29,-0.25,-0.38,4.59,4.59,4.59
87.22,4.88,0.34,4.88,0.34,-0.34,-0.30,-0.44,4.54,4.54,4.54
88.09,4.88,0.40,4.88,0.40,-0.40,-0.35,-0.51,4.48,4.48,4.48
88.97,4.88,0.46,4.88,0.45,-0.45,-0.40,-0.58,4.42,4.42,4.42
89.86,4.88,0.51,4.88,0.51,-0.51,-0.46,-0.64,4.37,4.37,4.37
90.76,4.88,0.57,4.88,0.57,-0.57,-0.51,-0.71,4.31,4.31,4.31
91.66,4.88,0.64,4.88,0.63,-0.63,-0.56,-0.78,4.25,4.25,4.24
92.58,4.88,0.69,4.88,0.69,-0.68,-0.61,-0.85,4.19,4.19,4.19
93.51,4.88,0.74,4.88,0.74,-0.75,-0.66,-0.92,4.13,4.13,4.14
94.44,4.88,0.80,4.88,0.80,-0.81,-0.71,-0.99,4.07,4.07,4.08
95.39,4.88,0.87,4.88,0.87,-0.87,-0.76,-1.06,4.01,4.01,4.01
96.34,4.88,0.94,4.88,0.93,-0.93,-0.81,-1.13,3.94,3.94,3.94
97.30,4.88,1.00,4.88,1.00,-1.00,-0.87,-1.20,3.88,3.88,3.88
98.28,4.88,1.07,4.88,1.07,-1.06,-0.92,-1.28,3.82,3.82,3.81
99.26,4.88,1.13,4.88,1.13,-1.12,-0.97,-1.35,3.76,3.76,3.75
100.25,4.88,1.19,4.88,1.18,-1.18,-1.02,-1.42,3.70,3.70,3.69
101.25,4.88,1.24,4.88,1.24,-1.24,-1.07,-1.49,3.64,3.64,3.64
102.27,4.88,1.30,4.88,1.30,-1.30,-1.12,-1.56,3.58,3.58,3.58
103.29,4.88,1.36,4.88,1.35,-1.35,-1.17,-1.63,3.52,3.52,3.52
104.32,4.88,1.41,4.88,1.41,-1.41,-1.23,-1.70,3.47,3.47,3.47
105.37,4.88,1.47,4.88,1.47,-1.46,-1.28,-1.77,3.41,3.41,3.41
106.42,4.88,1.52,4.88,1.52,-1.52,-1.33,-1.84,3.36,3.36,3.36
107.48,4.88,1.58,4.88,1.57,-1.57,-1.38,-1.91,3.30,3.30,3.30
108.56,4.88,1.63,4.88,1.63,-1.63,-1.43,-1.98,3.25,3.25,3.25
109.64,4.88,1.69,4.88,1.69,-1.69,-1.49,-2.05,3.19,3.19,3.19
110.74,4.88,1.75,4.88,1.75,-1.75,-1.54,-2.11,3.13,3.13,3.13
111.85,4.88,1.81,4.88,1.80,-1.81,-1.59,-2.18,3.07,3.07,3.07
112.97,4.88,1.86,4.88,1.86,-1.87,-1.64,-2.24,3.01,3.01,3.02
114.10,4.88,1.92,4.88,1.92,-1.93,-1.70,-2.30,2.95,2.95,2.96
115.24,4.88,2.00,4.88,1.99,-1.99,-1.75,-2.36,2.89,2.89,2.88
116.39,4.88,2.06,4.88,2.06,-2.05,-1.80,-2.41,2.83,2.83,2.82
117.55,4.88,2.12,4.88,2.12,-2.11,-1.86,-2.46,2.77,2.77,2.76
118.73,4.88,2.18,4.88,2.17,-2.16,-1.91,-2.51,2.71,2.71,2.70
119.92,4.88,2.22,4.88,2.22,-2.22,-1.96,-2.56,2.66,2.66,2.66
121.12,4.88,2.27,4.88,2.27,-2.27,-2.02,-2.60,2.60,2.60,2.61
122.33,4.88,2.33,4.88,2.32,-2.33,-2.07,-2.64,2.55,2.55,2.55
123.55,4.88,2.38,4.88,2.38,-2.38,-2.12,-2.68,2.50,2.50,2.50
124.79,4.88,2.43,4.88,2.43,-2.43,-2.18,-2.72,2.45,2.45,2.45
126.03,4.88,2.49,4.88,2.48,-2.49,-2.23,-2.75,2.39,2.39,2.39
127.29,4.88,2.54,4.88,2.54,-2.54,-2.28,-2.78,2.33,2.33,2.34
128.57,4.88,2.61,4.88,2.60,-2.60,-2.34,-2.80,2.28,2.28,2.27
129.85,4.88,2.66,4.88,2.66,-2.66,-2.39,-2.82,2.22,2.22,2.22
131.15,4.88,2.72,4.88,2.72,-2.71,-2.45,-2.84,2.17,2.17,2.16
132.46,4.88,2.77,4.88,2.77,-2.77,-2.50,-2.86,2.11,2.11,2.11
133.79,4.88,2.83,4.88,2.82,-2.82,-2.55,-2.87,2.05,2.05,2.05
135.12,4.88,2.88,4.88,2.88,-2.88,-2.61,-2.88,2.00,2.00,2.00
136.48,4.88,2.93,4.88,2.93,-2.93,-2.66,-2.89,1.95,1.95,1.95
137.84,4.88,2.98,4.88,2.98,-2.98,-2.72,-2.90,1.90,1.90,1.90
139.22,4.88,3.04,4.88,3.03,-3.03,-2.77,-2.91,1.85,1.85,1.84
140.61,4.88,3.08,4.88,3.08,-3.08,-2.82,-2.91,1.80,1.80,1.80
142.02,4.88,3.14,4.88,3.13,-3.13,-2.88,-2.92,1.75,1.75,1.74
143.44,4.88,3.18,4.88,3.18,-3.18,-2.93,-2.92,1.70,1.70,1.70
144.87,4.88,3.22,4.88,3.22,-3.23,-2.98,-2.92,1.65,1.65,1.66
146.32,4.89,3.28,4.89,3.28,-3.28,-3.04,-2.93,1.61,1.61,1.61
147.78,4.90,3.33,4.90,3.33,-3.33,-3.09,-2.93,1.57,1.57,1.57
149.26,4.91,3.39,4.90,3.38,-3.37,-3.14,-2.93,1.54,1.53,1.52
150.75,4.90,3.42,4.90,3.42,-3.41,-3.19,-2.94,1.49,1.49,1.48
152.26,4.90,3.46,4.90,3.46,-3.45,-3.25,-2.94,1.45,1.45,1.44
153.78,4.88,3.48,4.88,3.48,-3.48,-3.30,-2.95,1.40,1.40,1.40
155.32,4.87,3.51,4.86,3.50,-3.50,-3.35,-2.96,1.36,1.36,1.36
156.88,4.83,3.52,4.83,3.52,-3.52,-3.40,-2.97,1.30,1.31,1.31
158.44,4.81,3.55,4.80,3.54,-3.54,-3.45,-2.98,1.27,1.26,1.26
160.03,4.77,3.55,4.78,3.55,-3.55,-3.50,-2.99,1.22,1.22,1.22
161.63,4.75,3.57,4.75,3.57,-3.57,-3.55,-3.00,1.18,1.18,1.18
163.24,4.72,3.59,4.71,3.58,-3.58,-3.60,-3.02,1.14,1.13,1.13
164.88,4.67,3.59,4.68,3.59,-3.59,-3.64,-3.04,1.08,1.09,1.08
166.53,4.64,3.61,4.64,3.60,-3.60,-3.69,-3.06,1.04,1.04,1.03
168.19,4.61,3.61,4.61,3.61,-3.62,-3.74,-3.08,0.99,0.99,1.00
169.87,4.58,3.64,4.58,3.64,-3.64,-3.78,-3.11,0.94,0.94,0.94
171.57,4.56,3.67,4.56,3.66,-3.67,-3.82,-3.13,0.89,0.89,0.89
173.29,4.55,3.70,4.54,3.70,-3.70,-3.87,-3.16,0.85,0.84,0.85
175.02,4.53,3.73,4.53,3.73,-3.74,-3.91,-3.20,0.79,0.79,0.80
176.77,4.53,3.78,4.53,3.78,-3.78,-3.95,-3.23,0.74,0.75,0.75
178.54,4.54,3.83,4.54,3.83,-3.83,-3.99,-3.27,0.71,0.71,0.71
180.32,4.55,3.90,4.55,3.89,-3.88,-4.03,-3.31,0.67,0.67,0.65
182.13,4.56,3.94,4.56,3.94,-3.93,-4.07,-3.35,0.63,0.63,0.62
183.95,4.56,3.99,4.56,3.99,-3.98,-4.11,-3.40,0.58,0.58,0.57
185.79,4.56,4.04,4.56,4.03,-4.03,-4.14,-3.45,0.53,0.53,0.52
187.65,4.56,4.08,4.56,4.08,-4.08,-4.18,-3.50,0.48,0.48,0.48
189.52,4.56,4.12,4.56,4.12,-4.13,-4.21,-3.55,0.43,0.43,0.44
191.42,4.57,4.17,4.57,4.17,-4.18,-4.24,-3.60,0.39,0.39,0.40
193.33,4.58,4.22,4.58,4.22,-4.22,-4.27,-3.66,0.36,0.35,0.36
195.27,4.58,4.27,4.58,4.27,-4.26,-4.30,-3.72,0.32,0.32,0.31
197.22,4.57,4.31,4.57,4.30,-4.29,-4.32,-3.78,0.28,0.28,0.26
199.19,4.56,4.33,4.56,4.33,-4.32,-4.35,-3.84,0.24,0.24,0.23
201.18,4.54,4.35,4.54,4.35,-4.34,-4.37,-3.91,0.20,0.20,0.19
203.19,4.52,4.36,4.52,4.35,-4.35,-4.39,-3.97,0.17,0.17,0.16
205.23,4.49,4.35,4.49,4.35,-4.35,-4.41,-4.04,0.14,0.13,0.14
207.28,4.45,4.34,4.45,4.35,-4.35,-4.43,-4.10,0.10,0.10,0.11
209.35,4.42,4.35,4.42,4.34,-4.34,-4.45,-4.17,0.07,0.08,0.07
211.44,4.39,4.35,4.38,4.34,-4.34,-4.46,-4.24,0.05,0.05,0.04
213.56,4.35,4.33,4.35,4.33,-4.33,-4.48,-4.30,0.02,0.02,0.02
215.69,4.31,4.32,4.31,4.32,-4.33,-4.49,-4.37,-0.02,-0.01,-0.01
217.85,4.28,4.32,4.28,4.32,-4.32,-4.50,-4.43,-0.05,-0.04,-0.04
220.03,4.26,4.33,4.26,4.32,-4.33,-4.50,-4.49,-0.07,-0.07,-0.07
222.23,4.24,4.34,4.24,4.33,-4.34,-4.51,-4.55,-0.10,-0.10,-0.10
224.45,4.22,4.33,4.22,4.34,-4.35,-4.51,-4.61,-0.13,-0.13,-0.11
226.70,4.22,4.36,4.22,4.35,-4.37,-4.51,-4.66,-0.15,-0.15,-0.14
228.96,4.23,4.38,4.23,4.38,-4.39,-4.51,-4.71,-0.16,-0.16,-0.15
231.25,4.24,4.41,4.24,4.41,-4.40,-4.51,-4.76,-0.16,-0.16,-0.17
233.57,4.25,4.44,4.24,4.43,-4.42,-4.51,-4.80,-0.17,-0.17,-0.19
235.90,4.24,4.44,4.24,4.44,-4.43,-4.50,-4.84,-0.19,-0.19,-0.20
238.26,4.22,4.45,4.22,4.44,-4.43,-4.50,-4.87,-0.21,-0.21,-0.23
240.64,4.20,4.42,4.20,4.43,-4.42,-4.49,-4.89,-0.22,-0.22,-0.22
243.05,4.18,4.42,4.17,4.41,-4.41,-4.47,-4.91,-0.23,-0.23,-0.24
245.48,4.15,4.40,4.14,4.39,-4.39,-4.46,-4.92,-0.24,-0.24,-0.25
247.93,4.10,4.36,4.11,4.36,-4.36,-4.45,-4.93,-0.26,-0.25,-0.26
250.41,4.08,4.33,4.07,4.33,-4.33,-4.43,-4.93,-0.25,-0.26,-0.25
252.92,4.03,4.29,4.04,4.30,-4.30,-4.41,-4.92,-0.27,-0.27,-0.26
255.45,4.01,4.28,4.01,4.27,-4.28,-4.39,-4.90,-0.27,-0.27,-0.27
258.00,3.98,4.25,3.98,4.24,-4.25,-4.37,-4.88,-0.27,-0.27,-0.27
260.58,3.95,4.22,3.95,4.22,-4.23,-4.35,-4.86,-0.28,-0.27,-0.27
263.19,3.94,4.21,3.93,4.21,-4.21,-4.33,-4.82,-0.27,-0.28,-0.27
265.82,3.92,4.20,3.92,4.20,-4.20,-4.30,-4.78,-0.28,-0.28,-0.28
268.48,3.91,4.19,3.91,4.19,-4.19,-4.27,-4.74,-0.28,-0.28,-0.28
271.16,3.90,4.18,3.90,4.17,-4.18,-4.24,-4.69,-0.28,-0.28,-0.28
273.87,3.88,4.16,3.88,4.16,-4.16,-4.22,-4.63,-0.29,-0.28,-0.28
276.61,3.87,4.15,3.87,4.15,-4.15,-4.18,-4.57,-0.28,-0.28,-0.28
279.38,3.85,4.15,3.85,4.14,-4.13,-4.15,-4.51,-0.28,-0.28,-0.30
282.17,3.83,4.13,3.83,4.12,-4.10,-4.12,-4.45,-0.28,-0.28,-0.30
284.99,3.80,4.09,3.80,4.09,-4.08,-4.09,-4.38,-0.28,-0.28,-0.29
287.84,3.76,4.04,3.76,4.05,-4.04,-4.05,-4.31,-0.28,-0.28,-0.28
290.72,3.72,4.01,3.72,4.00,-4.01,-4.01,-4.23,-0.29,-0.29,-0.29
293.63,3.69,3.97,3.69,3.97,-3.97,-3.98,-4.16,-0.28,-0.29,-0.28
296.57,3.66,3.93,3.66,3.93,-3.94,-3.94,-4.09,-0.28,-0.28,-0.27
299.53,3.63,3.90,3.64,3.90,-3.91,-3.90,-4.01,-0.28,-0.27,-0.27
302.53,3.62,3.87,3.62,3.88,-3.88,-3.86,-3.94,-0.26,-0.27,-0.25
305.55,3.61,3.87,3.60,3.86,-3.86,-3.82,-3.86,-0.25,-0.26,-0.26
308.61,3.59,3.84,3.59,3.84,-3.84,-3.78,-3.79,-0.25,-0.25,-0.25
311.69,3.58,3.82,3.58,3.82,-3.82,-3.74,-3.71,-0.24,-0.24,-0.24
314.81,3.57,3.81,3.57,3.80,-3.80,-3.70,-3.64,-0.23,-0.23,-0.24
317.96,3.55,3.78,3.55,3.78,-3.77,-3.66,-3.57,-0.22,-0.22,-0.23
321.14,3.54,3.76,3.53,3.75,-3.75,-3.61,-3.50,-0.21,-0.21,-0.22
324.35,3.51,3.73,3.51,3.72,-3.71,-3.57,-3.43,-0.21,-0.21,-0.22
327.59,3.48,3.67,3.48,3.68,-3.68,-3.53,-3.36,-0.20,-0.20,-0.19
330.87,3.45,3.65,3.45,3.64,-3.64,-3.48,-3.30,-0.20,-0.20,-0.20
334.18,3.42,3.61,3.42,3.60,-3.61,-3.44,-3.24,-0.19,-0.19,-0.19
337.52,3.38,3.57,3.38,3.57,-3.57,-3.40,-3.18,-0.19,-0.19,-0.19
340.90,3.36,3.53,3.36,3.53,-3.54,-3.35,-3.12,-0.18,-0.18,-0.17
344.30,3.33,3.49,3.33,3.50,-3.50,-3.31,-3.06,-0.17,-0.17,-0.16
347.75,3.32,3.48,3.32,3.47,-3.47,-3.26,-3.01,-0.15,-0.15,-0.16
351.23,3.30,3.46,3.29,3.44,-3.44,-3.22,-2.96,-0.14,-0.15,-0.16
354.74,3.27,3.40,3.27,3.41,-3.41,-3.17,-2.91,-0.14,-0.14,-0.13
358.28,3.24,3.38,3.25,3.38,-3.38,-3.13,-2.86,-0.14,-0.13,-0.14
361.87,3.23,3.36,3.22,3.35,-3.35,-3.08,-2.82,-0.12,-0.13,-0.13
365.49,3.20,3.32,3.20,3.32,-3.32,-3.04,-2.77,-0.12,-0.12,-0.12
369.14,3.18,3.28,3.18,3.29,-3.29,-2.99,-2.73,-0.11,-0.11,-0.10
372.83,3.16,3.26,3.16,3.26,-3.26,-2.95,-2.70,-0.10,-0.10,-0.10
376.56,3.13,3.23,3.13,3.22,-3.23,-2.90,-2.66,-0.10,-0.09,-0.10
380.33,3.11,3.20,3.11,3.19,-3.19,-2.86,-2.63,-0.08,-0.08,-0.09
384.13,3.08,3.15,3.08,3.16,-3.15,-2.81,-2.59,-0.07,-0.07,-0.07
387.97,3.05,3.12,3.05,3.12,-3.11,-2.77,-2.56,-0.06,-0.06,-0.07
391.85,3.02,3.08,3.02,3.08,-3.06,-2.73,-2.54,-0.05,-0.05,-0.06
395.77,2.98,3.03,2.98,3.03,-3.02,-2.68,-2.51,-0.04,-0.04,-0.05
399.73,2.94,2.98,2.94,2.97,-2.97,-2.64,-2.48,-0.03,-0.03,-0.04
403.72,2.89,2.90,2.89,2.91,-2.92,-2.60,-2.46,-0.03,-0.03,-0.01
407.76,2.85,2.87,2.85,2.86,-2.87,-2.55,-2.44,-0.02,-0.02,-0.02
411.84,2.82,2.83,2.82,2.82,-2.83,-2.51,-2.42,-0.01,-0.01,-0.01
415.96,2.79,2.78,2.79,2.79,-2.79,-2.47,-2.40,0.00,-0.00,0.01
420.12,2.76,2.75,2.76,2.75,-2.75,-2.43,-2.38,0.01,0.01,0.01
424.32,2.74,2.72,2.74,2.71,-2.71,-2.38,-2.37,0.02,0.02,0.02
428.56,2.72,2.68,2.72,2.68,-2.68,-2.34,-2.35,0.04,0.04,0.04
432.85,2.70,2.65,2.70,2.65,-2.65,-2.30,-2.33,0.05,0.05,0.05
437.18,2.67,2.63,2.67,2.62,-2.61,-2.26,-2.32,0.06,0.06,0.04
441.55,2.64,2.59,2.64,2.59,-2.58,-2.22,-2.30,0.06,0.06,0.05
445.96,2.61,2.55,2.61,2.55,-2.54,-2.18,-2.29,0.07,0.06,0.06
450.42,2.57,2.50,2.57,2.50,-2.51,-2.14,-2.27,0.06,0.06,0.07
454.93,2.54,2.46,2.54,2.46,-2.47,-2.10,-2.26,0.07,0.07,0.08
459.48,2.51,2.42,2.52,2.42,-2.43,-2.06,-2.24,0.07,0.08,0.09
464.07,2.50,2.39,2.50,2.39,-2.40,-2.02,-2.22,0.10,0.10,0.11
468.71,2.49,2.37,2.48,2.36,-2.36,-1.98,-2.21,0.13,0.12,0.12
473.40,2.45,2.33,2.45,2.33,-2.32,-1.94,-2.19,0.13,0.14,0.12
478.13,2.42,2.29,2.42,2.29,-2.27,-1.90,-2.17,0.15,0.15,0.13
482.91,2.38,2.24,2.38,2.23,-2.22,-1.87,-2.15,0.15,0.15,0.14
487.74,2.33,2.18,2.33,2.18,-2.17,-1.83,-2.12,0.16,0.16,0.15
492.62,2.28,2.12,2.28,2.12,-2.12,-1.79,-2.10,0.16,0.16,0.16
497.55,2.23,2.06,2.23,2.06,-2.06,-1.75,-2.08,0.16,0.16,0.17
502.52,2.18,2.00,2.18,2.00,-2.01,-1.72,-2.05,0.17,0.17,0.18
507.55,2.15,1.95,2.15,1.95,-1.96,-1.68,-2.02,0.19,0.19,0.20
512.62,2.12,1.91,2.12,1.90,-1.91,-1.65,-1.99,0.21,0.20,0.21
517.75,2.09,1.86,2.09,1.86,-1.87,-1.61,-1.96,0.22,0.23,0.23
522.93,2.07,1.83,2.07,1.83,-1.82,-1.57,-1.93,0.25,0.25,0.24
528.16,2.05,1.80,2.04,1.79,-1.78,-1.54,-1.89,0.27,0.26,0.25
533.44,2.01,1.75,2.01,1.75,-1.73,-1.50,-1.86,0.27,0.28,0.26
538.77,1.97,1.70,1.97,1.70,-1.69,-1.47,-1.82,0.28,0.28,0.27
544.16,1.93,1.65,1.93,1.65,-1.65,-1.44,-1.78,0.28,0.28,0.28
