frequency,raw,error,smoothed,error_smoothed,equalization,parametric_eq,fixed_band_eq,equalized_raw,equalized_smoothed,target
20.00,-15.50,-21.95,-15.53,-22.00,22.00,20.64,8.87,6.50,6.47,6.45
20.20,-15.36,-21.85,-15.38,-21.87,21.87,20.72,9.04,6.51,6.50,6.49
20.40,-15.22,-21.74,-15.22,-21.75,21.75,20.78,9.22,6.53,6.53,6.52
20.61,-15.08,-21.63,-15.07,-21.62,21.62,20.82,9.40,6.54,6.55,6.55
20.81,-14.94,-21.53,-14.92,-21.50,21.50,20.82,9.58,6.56,6.58,6.59
21.02,-14.80,-21.43,-14.77,-21.37,21.37,20.81,9.77,6.57,6.60,6.63
21.23,-14.65,-21.29,-14.62,-21.24,21.24,20.77,9.97,6.59,6.62,6.64
21.44,-14.50,-21.16,-14.48,-21.12,21.12,20.71,10.17,6.62,6.64,6.66
21.66,-14.35,-21.03,-14.33,-20.99,20.99,20.63,10.37,6.64,6.66,6.68
21.87,-14.20,-20.89,-14.19,-20.86,20.86,20.53,10.58,6.67,6.68,6.69
22.09,-14.04,-20.74,-14.04,-20.74,20.74,20.42,10.80,6.70,6.69,6.70
22.31,-13.88,-20.58,-13.90,-20.61,20.61,20.29,11.02,6.73,6.71,6.70
22.54,-13.73,-20.44,-13.76,-20.48,20.48,20.16,11.25,6.75,6.72,6.71
22.76,-13.57,-20.29,-13.62,-20.35,20.35,20.01,11.48,6.78,6.72,6.72
22.99,-13.41,-20.13,-13.49,-20.22,20.22,19.86,11.72,6.81,6.73,6.72
23.22,-13.31,-20.04,-13.35,-20.09,20.09,19.70,11.97,6.78,6.74,6.73
23.45,-13.21,-19.95,-13.21,-19.96,19.96,19.54,12.22,6.75,6.74,6.74
23.69,-13.12,-19.87,-13.08,-19.83,19.83,19.37,12.48,6.70,6.75,6.75
23.92,-13.02,-19.78,-12.94,-19.70,19.70,19.20,12.75,6.68,6.75,6.76
24.16,-12.88,-19.65,-12.81,-19.56,19.56,19.04,13.02,6.69,6.76,6.77
24.40,-12.71,-19.49,-12.67,-19.43,19.43,18.87,13.31,6.73,6.76,6.78
24.65,-12.55,-19.32,-12.54,-19.30,19.30,18.71,13.60,6.75,6.76,6.77
24.89,-12.38,-19.15,-12.40,-19.17,19.17,18.54,13.90,6.79,6.77,6.77
25.14,-12.23,-19.00,-12.26,-19.03,19.03,18.38,14.21,6.80,6.77,6.77
25.39,-12.09,-18.86,-12.12,-18.89,18.89,18.22,14.53,6.80,6.77,6.77
25.65,-11.96,-18.73,-11.98,-18.74,18.74,18.07,14.86,6.78,6.77,6.77
25.91,-11.82,-18.57,-11.83,-18.59,18.59,17.92,15.19,6.77,6.77,6.75
26.16,-11.68,-18.44,-11.68,-18.44,18.44,17.77,15.54,6.76,6.76,6.76
26.43,-11.54,-18.30,-11.54,-18.30,18.30,17.62,15.89,6.75,6.76,6.76
26.69,-11.40,-18.16,-11.40,-18.15,18.15,17.48,16.26,6.75,6.76,6.76
26.96,-11.25,-18.01,-11.26,-18.02,18.02,17.34,16.63,6.76,6.75,6.76
27.23,-11.11,-17.87,-11.12,-17.87,17.87,17.21,17.01,6.76,6.75,6.76
27.50,-10.97,-17.73,-10.98,-17.73,17.73,17.08,17.40,6.76,6.75,6.76
27.77,-10.83,-17.58,-10.84,-17.58,17.58,16.95,17.79,6.76,6.75,6.75
28.05,-10.69,-17.44,-10.69,-17.43,17.43,16.83,18.19,6.75,6.75,6.75
28.33,-10.56,-17.29,-10.54,-17.28,17.28,16.71,18.58,6.72,6.74,6.73
28.62,-10.43,-17.17,-10.39,-17.13,17.13,16.59,18.97,6.70,6.74,6.74
28.90,-10.30,-17.04,-10.24,-16.98,16.98,16.47,19.35,6.68,6.74,6.74
29.19,-10.13,-16.86,-10.09,-16.83,16.83,16.36,19.72,6.70,6.74,6.73
29.48,-9.93,-16.67,-9.94,-16.67,16.67,16.25,20.06,6.74,6.73,6.74
29.78,-9.74,-16.48,-9.79,-16.51,16.51,16.14,20.37,6.77,6.73,6.74
30.08,-9.56,-16.30,-9.63,-16.36,16.36,16.03,20.64,6.79,6.72,6.74
30.38,-9.44,-16.16,-9.48,-16.20,16.20,15.92,20.86,6.76,6.72,6.72
30.68,-9.32,-16.04,-9.32,-16.04,16.04,15.81,21.02,6.72,6.71,6.72
30.99,-9.20,-15.91,-9.17,-15.88,15.88,15.71,21.12,6.68,6.71,6.71
31.30,-9.03,-15.74,-9.01,-15.72,15.72,15.60,21.14,6.68,6.71,6.71
31.61,-8.87,-15.58,-8.85,-15.55,15.55,15.50,21.09,6.68,6.70,6.71
31.93,-8.70,-15.39,-8.70,-15.39,15.39,15.39,20.98,6.69,6.70,6.69
32.24,-8.55,-15.23,-8.54,-15.24,15.24,15.28,20.80,6.69,6.69,6.68
32.57,-8.41,-15.09,-8.40,-15.08,15.08,15.18,20.56,6.67,6.68,6.68
32.89,-8.27,-14.95,-8.25,-14.93,14.93,15.07,20.28,6.66,6.68,6.68
33.22,-8.11,-14.79,-8.10,-14.78,14.78,14.96,19.96,6.67,6.67,6.68
33.55,-7.96,-14.63,-7.97,-14.63,14.63,14.84,19.61,6.68,6.67,6.67
33.89,-7.80,-14.47,-7.83,-14.49,14.49,14.73,19.24,6.69,6.66,6.67
34.23,-7.66,-14.33,-7.70,-14.36,14.36,14.61,18.86,6.70,6.66,6.67
34.57,-7.53,-14.19,-7.57,-14.22,14.22,14.49,18.48,6.69,6.65,6.66
34.92,-7.39,-14.04,-7.44,-14.09,14.09,14.37,18.09,6.70,6.65,6.65
35.27,-7.28,-13.93,-7.32,-13.96,13.96,14.24,17.70,6.68,6.64,6.65
35.62,-7.18,-13.82,-7.19,-13.83,13.83,14.12,17.31,6.65,6.64,6.64
35.97,-7.08,-13.71,-7.06,-13.69,13.69,13.98,16.94,6.61,6.63,6.63
36.33,-6.98,-13.61,-6.93,-13.55,13.55,13.85,16.57,6.58,6.63,6.63
36.70,-6.89,-13.52,-6.80,-13.42,13.42,13.71,16.20,6.53,6.62,6.63
37.06,-6.78,-13.39,-6.67,-13.28,13.28,13.57,15.85,6.51,6.61,6.61
37.43,-6.60,-13.21,-6.55,-13.16,13.16,13.43,15.51,6.56,6.61,6.61
37.81,-6.42,-13.02,-6.43,-13.03,13.03,13.28,15.17,6.61,6.60,6.60
38.19,-6.25,-12.84,-6.30,-12.89,12.89,13.13,14.84,6.64,6.59,6.59
38.57,-6.10,-12.69,-6.17,-12.76,12.76,12.98,14.53,6.66,6.59,6.59
38.95,-5.95,-12.53,-6.05,-12.63,12.63,12.83,14.22,6.68,6.58,6.58
39.34,-5.85,-12.42,-5.92,-12.50,12.50,12.67,13.92,6.65,6.57,6.57
39.74,-5.76,-12.31,-5.79,-12.36,12.36,12.51,13.64,6.60,6.57,6.55
40.14,-5.67,-12.23,-5.66,-12.22,12.22,12.35,13.36,6.55,6.56,6.56
40.54,-5.58,-12.13,-5.53,-12.07,12.07,12.18,13.08,6.49,6.55,6.55
40.94,-5.48,-12.03,-5.39,-11.92,11.92,12.02,12.82,6.44,6.53,6.55
41.35,-5.33,-11.86,-5.25,-11.77,11.77,11.85,12.57,6.44,6.52,6.53
41.76,-5.16,-11.67,-5.12,-11.63,11.63,11.69,12.32,6.47,6.50,6.51
42.18,-5.02,-11.52,-5.00,-11.48,11.48,11.52,12.08,6.46,6.48,6.50
42.60,-4.90,-11.37,-4.88,-11.34,11.34,11.35,11.84,6.44,6.46,6.47
43.03,-4.78,-11.24,-4.75,-11.18,11.18,11.18,11.61,6.40,6.43,6.46
43.46,-4.58,-11.01,-4.62,-11.03,11.03,11.01,11.39,6.45,6.41,6.43
43.90,-4.38,-10.76,-4.48,-10.87,10.87,10.84,11.18,6.48,6.38,6.38
44.33,-4.25,-10.60,-4.35,-10.70,10.70,10.67,10.97,6.46,6.36,6.35
44.78,-4.15,-10.47,-4.22,-10.54,10.54,10.50,10.77,6.39,6.33,6.32
45.23,-4.09,-10.38,-4.09,-10.39,10.39,10.33,10.57,6.30,6.30,6.29
45.68,-4.06,-10.32,-3.98,-10.26,10.26,10.16,10.38,6.20,6.28,6.26
46.13,-3.99,-10.23,-3.88,-10.13,10.13,9.99,10.19,6.14,6.25,6.24
46.60,-3.81,-10.04,-3.78,-10.02,10.02,9.83,10.01,6.20,6.24,6.23
47.06,-3.64,-9.85,-3.68,-9.90,9.90,9.66,9.83,6.26,6.22,6.21
47.53,-3.53,-9.74,-3.58,-9.79,9.79,9.50,9.66,6.26,6.21,6.21
48.01,-3.42,-9.63,-3.49,-9.69,9.69,9.33,9.49,6.27,6.20,6.21
48.49,-3.36,-9.55,-3.40,-9.59,9.59,9.17,9.33,6.23,6.19,6.19
48.97,-3.29,-9.47,-3.31,-9.50,9.50,9.01,9.17,6.21,6.19,6.18
49.46,-3.24,-9.41,-3.21,-9.40,9.40,8.86,9.01,6.16,6.19,6.17
49.96,-3.19,-9.36,-3.11,-9.29,9.29,8.70,8.86,6.10,6.18,6.17
50.46,-3.07,-9.25,-3.00,-9.18,9.18,8.55,8.71,6.11,6.18,6.18
50.96,-2.93,-9.12,-2.90,-9.07,9.07,8.39,8.57,6.14,6.17,6.19
51.47,-2.78,-8.96,-2.80,-8.96,8.96,8.24,8.43,6.18,6.16,6.18
51.99,-2.63,-8.79,-2.70,-8.85,8.85,8.09,8.29,6.21,6.15,6.16
52.51,-2.57,-8.72,-2.60,-8.72,8.72,7.95,8.15,6.15,6.13,6.15
53.03,-2.50,-8.62,-2.49,-8.59,8.59,7.80,8.02,6.09,6.10,6.12
53.56,-2.38,-8.47,-2.37,-8.44,8.44,7.66,7.89,6.06,6.07,6.09
54.10,-2.26,-8.31,-2.24,-8.28,8.28,7.52,7.76,6.02,6.04,6.05
54.64,-2.13,-8.13,-2.11,-8.11,8.11,7.38,7.64,5.98,5.99,6.00
55.18,-2.01,-7.96,-1.98,-7.93,7.93,7.25,7.51,5.92,5.95,5.95
55.74,-1.88,-7.78,-1.86,-7.76,7.76,7.11,7.39,5.88,5.90,5.90
56.29,-1.76,-7.61,-1.74,-7.59,7.59,6.98,7.27,5.83,5.84,5.85
56.86,-1.63,-7.42,-1.63,-7.42,7.42,6.85,7.15,5.79,5.79,5.79
57.42,-1.50,-7.22,-1.52,-7.24,7.24,6.72,7.04,5.75,5.73,5.72
58.00,-1.37,-7.03,-1.40,-7.06,7.06,6.60,6.92,5.69,5.67,5.66
58.58,-1.24,-6.84,-1.27,-6.88,6.88,6.48,6.81,5.64,5.60,5.60
59.16,-1.10,-6.65,-1.15,-6.69,6.69,6.36,6.70,5.60,5.54,5.55
59.76,-0.97,-6.46,-1.04,-6.52,6.52,6.24,6.58,5.55,5.48,5.49
60.35,-0.92,-6.34,-0.93,-6.35,6.35,6.12,6.47,5.43,5.42,5.42
60.96,-0.91,-6.28,-0.82,-6.18,6.18,6.01,6.36,5.27,5.36,5.37
61.57,-0.78,-6.08,-0.71,-6.01,6.01,5.89,6.25,5.23,5.30,5.30
62.18,-0.64,-5.87,-0.61,-5.85,5.85,5.78,6.14,5.21,5.24,5.23
62.80,-0.50,-5.69,-0.50,-5.69,5.69,5.67,6.03,5.19,5.19,5.19
63.43,-0.36,-5.49,-0.39,-5.53,5.53,5.57,5.93,5.17,5.14,5.13
64.07,-0.23,-5.32,-0.29,-5.38,5.38,5.46,5.82,5.15,5.09,5.09
64.71,-0.19,-5.23,-0.19,-5.23,5.23,5.36,5.71,5.04,5.04,5.04
65.35,-0.12,-5.11,-0.09,-5.09,5.09,5.26,5.60,4.97,5.00,4.99
66.01,-0.00,-4.96,0.02,-4.94,4.94,5.16,5.49,4.94,4.96,4.96
66.67,0.15,-4.77,0.13,-4.79,4.79,5.06,5.39,4.94,4.92,4.92
67.33,0.26,-4.63,0.24,-4.65,4.65,4.97,5.28,4.91,4.89,4.89
68.01,0.33,-4.53,0.35,-4.51,4.51,4.88,5.18,4.83,4.85,4.86
68.69,0.43,-4.40,0.45,-4.37,4.37,4.78,5.07,4.80,4.82,4.83
69.37,0.56,-4.23,0.55,-4.25,4.25,4.69,4.96,4.81,4.79,4.79
70.07,0.68,-4.08,0.65,-4.12,4.12,4.61,4.86,4.80,4.76,4.76
70.77,0.68,-4.07,0.75,-3.98,3.98,4.52,4.76,4.66,4.73,4.75
71.48,0.79,-3.92,0.85,-3.85,3.85,4.44,4.65,4.64,4.70,4.71
72.19,0.96,-3.73,0.96,-3.72,3.72,4.35,4.55,4.68,4.67,4.69
72.91,1.12,-3.53,1.05,-3.60,3.60,4.27,4.45,4.72,4.64,4.65
73.64,1.14,-3.48,1.13,-3.48,3.48,4.19,4.34,4.62,4.61,4.62
74.38,1.20,-3.39,1.22,-3.37,3.37,4.11,4.24,4.57,4.58,4.59
75.12,1.32,-3.24,1.30,-3.25,3.25,4.04,4.14,4.57,4.55,4.56
75.87,1.36,-3.17,1.37,-3.15,3.15,3.96,4.04,4.52,4.53,4.53
76.63,1.48,-3.02,1.44,-3.06,3.06,3.89,3.94,4.54,4.50,4.50
77.40,1.57,-2.90,1.50,-2.98,2.98,3.82,3.84,4.55,4.47,4.47
78.17,1.60,-2.84,1.56,-2.89,2.89,3.75,3.74,4.49,4.45,4.44
78.95,1.60,-2.83,1.62,-2.80,2.80,3.68,3.65,4.40,4.43,4.43
79.74,1.60,-2.81,1.68,-2.73,2.73,3.61,3.55,4.33,4.41,4.41
80.54,1.68,-2.71,1.72,-2.68,2.68,3.54,3.46,4.36,4.39,4.39
81.35,1.77,-2.60,1.76,-2.62,2.62,3.48,3.36,4.39,4.38,4.37
82.16,1.82,-2.55,1.80,-2.57,2.57,3.41,3.27,4.39,4.37,4.37
82.98,1.82,-2.55,1.85,-2.52,2.52,3.35,3.17,4.34,4.37,4.37
83.81,1.82,-2.54,1.89,-2.47,2.47,3.29,3.08,4.29,4.36,4.36
84.65,1.97,-2.38,1.94,-2.42,2.42,3.23,2.99,4.39,4.36,4.35
85.50,2.05,-2.31,1.98,-2.38,2.38,3.17,2.90,4.43,4.36,4.36
86.35,2.05,-2.31,2.02,-2.34,2.34,3.11,2.81,4.39,4.36,4.36
87.22,2.05,-2.31,2.07,-2.29,2.29,3.06,2.72,4.34,4.36,4.36
88.09,2.05,-2.31,2.11,-2.25,2.25,3.00,2.63,4.30,4.36,4.36
88.97,2.05,-2.33,2.15,-2.22,2.22,2.95,2.54,4.27,4.36,4.38
89.86,2.21,-2.17,2.17,-2.20,2.20,2.90,2.45,4.41,4.36,4.38
90.76,2.27,-2.09,2.19,-2.17,2.17,2.84,2.36,4.44,4.36,4.36
91.66,2.28,-2.09,2.21,-2.14,2.14,2.79,2.28,4.42,4.35,4.37
92.58,2.28,-2.06,2.24,-2.11,2.11,2.74,2.19,4.39,4.35,4.34
93.51,2.28,-2.07,2.26,-2.07,2.07,2.69,2.10,4.35,4.34,4.35
94.44,2.28,-2.05,2.28,-2.04,2.04,2.65,2.02,4.32,4.32,4.33
95.39,2.28,-2.04,2.31,-2.00,2.00,2.60,1.93,4.28,4.31,4.32
96.34,2.28,-2.00,2.34,-1.95,1.95,2.55,1.85,4.23,4.29,4.28
97.30,2.28,-1.98,2.36,-1.91,1.91,2.51,1.77,4.19,4.27,4.26
98.28,2.28,-1.96,2.38,-1.86,1.86,2.47,1.69,4.14,4.24,4.24
99.26,2.34,-1.87,2.40,-1.81,1.81,2.42,1.61,4.15,4.21,4.21
100.25,2.50,-1.68,2.42,-1.76,1.76,2.38,1.53,4.26,4.18,4.18
101.25,2.51,-1.64,2.43,-1.71,1.71,2.34,1.45,4.22,4.14,4.15
102.27,2.51,-1.60,2.45,-1.65,1.65,2.30,1.37,4.16,4.10,4.11
103.29,2.51,-1.55,2.47,-1.58,1.58,2.26,1.29,4.09,4.06,4.06
104.32,2.51,-1.51,2.49,-1.52,1.52,2.22,1.22,4.03,4.01,4.02
105.37,2.51,-1.46,2.51,-1.45,1.45,2.18,1.14,3.96,3.95,3.97
106.42,2.51,-1.41,2.52,-1.38,1.38,2.15,1.07,3.89,3.90,3.92
107.48,2.51,-1.34,2.53,-1.31,1.31,2.11,1.00,3.82,3.84,3.85
108.56,2.51,-1.26,2.53,-1.24,1.24,2.08,0.93,3.75,3.77,3.77
109.64,2.51,-1.19,2.53,-1.17,1.17,2.04,0.86,3.68,3.70,3.70
110.74,2.51,-1.13,2.54,-1.09,1.09,2.01,0.80,3.60,3.63,3.64
111.85,2.51,-1.06,2.53,-1.03,1.03,1.98,0.73,3.54,3.56,3.57
112.97,2.51,-0.97,2.53,-0.96,0.96,1.95,0.67,3.47,3.48,3.48
114.10,2.51,-0.91,2.52,-0.89,0.89,1.91,0.62,3.40,3.41,3.42
115.24,2.51,-0.83,2.51,-0.84,0.84,1.88,0.56,3.35,3.34,3.34
116.39,2.51,-0.75,2.49,-0.78,0.78,1.85,0.51,3.29,3.28,3.26
117.55,2.51,-0.69,2.48,-0.74,0.74,1.82,0.46,3.25,3.21,3.20
118.73,2.51,-0.62,2.47,-0.69,0.69,1.80,0.41,3.20,3.15,3.13
119.92,2.51,-0.58,2.45,-0.65,0.65,1.77,0.37,3.16,3.10,3.09
121.12,2.50,-0.53,2.43,-0.62,0.62,1.74,0.33,3.12,3.05,3.03
122.33,2.36,-0.63,2.40,-0.60,0.60,1.72,0.30,2.96,3.00,2.99
123.55,2.28,-0.69,2.37,-0.59,0.59,1.69,0.27,2.87,2.96,2.97
124.79,2.28,-0.65,2.35,-0.57,0.57,1.67,0.24,2.85,2.92,2.93
126.03,2.28,-0.61,2.32,-0.57,0.57,1.64,0.21,2.85,2.89,2.89
127.29,2.28,-0.58,2.28,-0.56,0.56,1.62,0.19,2.84,2.85,2.86
128.57,2.28,-0.54,2.25,-0.57,0.57,1.59,0.17,2.85,2.82,2.82
129.85,2.28,-0.51,2.21,-0.58,0.58,1.57,0.16,2.86,2.78,2.79
131.15,2.23,-0.53,2.16,-0.59,0.59,1.55,0.15,2.82,2.75,2.76
132.46,2.10,-0.63,2.13,-0.59,0.59,1.53,0.14,2.69,2.72,2.73
133.79,2.05,-0.65,2.09,-0.59,0.59,1.51,0.14,2.64,2.69,2.70
135.12,2.05,-0.60,2.06,-0.59,0.59,1.49,0.14,2.64,2.66,2.65
136.48,2.05,-0.57,2.03,-0.59,0.59,1.47,0.14,2.64,2.62,2.62
137.84,2.05,-0.54,1.99,-0.59,0.59,1.45,0.15,2.64,2.59,2.59
139.22,1.93,-0.61,1.95,-0.60,0.60,1.43,0.15,2.53,2.55,2.54
140.61,1.84,-0.65,1.91,-0.60,0.60,1.41,0.16,2.44,2.51,2.49
142.02,1.82,-0.65,1.88,-0.59,0.59,1.40,0.18,2.41,2.47,2.47
143.44,1.82,-0.61,1.83,-0.59,0.59,1.38,0.19,2.41,2.42,2.43
144.87,1.82,-0.57,1.79,-0.58,0.58,1.36,0.21,2.40,2.37,2.39
146.32,1.82,-0.52,1.76,-0.56,0.56,1.35,0.23,2.38,2.32,2.34
147.78,1.77,-0.53,1.73,-0.53,0.53,1.33,0.25,2.30,2.26,2.30
149.26,1.66,-0.57,1.69,-0.51,0.51,1.32,0.27,2.17,2.20,2.23
150.75,1.60,-0.55,1.65,-0.48,0.48,1.30,0.29,2.08,2.13,2.15
152.26,1.60,-0.48,1.60,-0.46,0.46,1.29,0.31,2.06,2.06,2.08
153.78,1.60,-0.41,1.56,-0.43,0.43,1.28,0.34,2.03,1.99,2.01
155.32,1.55,-0.36,1.51,-0.41,0.41,1.26,0.36,1.96,1.92,1.91
156.88,1.39,-0.45,1.45,-0.39,0.39,1.25,0.39,1.78,1.85,1.84
158.44,1.37,-0.40,1.40,-0.38,0.38,1.24,0.41,1.75,1.78,1.77
160.03,1.37,-0.32,1.34,-0.37,0.37,1.23,0.44,1.74,1.71,1.69
161.63,1.37,-0.26,1.28,-0.37,0.37,1.22,0.47,1.74,1.65,1.63
163.24,1.23,-0.35,1.21,-0.39,0.39,1.21,0.50,1.62,1.60,1.58
164.88,1.14,-0.40,1.15,-0.40,0.40,1.20,0.52,1.54,1.56,1.54
166.53,1.10,-0.40,1.09,-0.43,0.43,1.19,0.55,1.53,1.52,1.50
168.19,0.98,-0.49,1.03,-0.46,0.46,1.18,0.58,1.44,1.50,1.47
169.87,0.91,-0.55,0.97,-0.51,0.51,1.17,0.61,1.42,1.48,1.46
171.57,0.91,-0.54,0.91,-0.55,0.55,1.17,0.64,1.46,1.46,1.45
173.29,0.91,-0.54,0.86,-0.59,0.59,1.16,0.67,1.50,1.46,1.45
175.02,0.91,-0.56,0.82,-0.63,0.63,1.15,0.70,1.54,1.45,1.47
176.77,0.72,-0.74,0.78,-0.67,0.67,1.15,0.73,1.39,1.45,1.46
178.54,0.68,-0.79,0.74,-0.71,0.71,1.14,0.76,1.39,1.45,1.47
180.32,0.68,-0.80,0.72,-0.74,0.74,1.13,0.79,1.42,1.45,1.48
182.13,0.68,-0.80,0.70,-0.75,0.75,1.13,0.82,1.43,1.45,1.48
183.95,0.68,-0.80,0.70,-0.75,0.75,1.12,0.85,1.43,1.45,1.48
185.79,0.68,-0.79,0.69,-0.75,0.75,1.12,0.88,1.43,1.45,1.47
187.65,0.68,-0.77,0.69,-0.75,0.75,1.12,0.92,1.43,1.44,1.45
189.52,0.68,-0.75,0.68,-0.75,0.75,1.11,0.95,1.43,1.43,1.43
191.42,0.68,-0.73,0.67,-0.75,0.75,1.11,0.98,1.43,1.42,1.41
193.33,0.68,-0.71,0.66,-0.74,0.74,1.11,1.01,1.42,1.40,1.39
195.27,0.68,-0.71,0.65,-0.73,0.73,1.11,1.04,1.41,1.38,1.39
197.22,0.68,-0.69,0.65,-0.72,0.72,1.10,1.07,1.40,1.36,1.37
199.19,0.68,-0.65,0.64,-0.71,0.71,1.10,1.11,1.39,1.34,1.33
201.18,0.68,-0.65,0.62,-0.70,0.70,1.10,1.14,1.38,1.33,1.33
203.19,0.64,-0.67,0.60,-0.71,0.71,1.10,1.17,1.35,1.31,1.31
205.23,0.52,-0.76,0.57,-0.72,0.72,1.10,1.20,1.24,1.29,1.28
207.28,0.46,-0.82,0.54,-0.73,0.73,1.10,1.23,1.19,1.27,1.28
209.35,0.46,-0.80,0.51,-0.75,0.75,1.10,1.26,1.21,1.26,1.26
211.44,0.46,-0.77,0.49,-0.76,0.76,1.11,1.29,1.22,1.24,1.23
213.56,0.46,-0.77,0.46,-0.77,0.77,1.11,1.32,1.23,1.23,1.23
215.69,0.46,-0.77,0.42,-0.79,0.79,1.11,1.35,1.25,1.21,1.23
217.85,0.46,-0.74,0.38,-0.82,0.82,1.11,1.38,1.28,1.20,1.20
220.03,0.37,-0.82,0.34,-0.85,0.85,1.12,1.41,1.22,1.19,1.19
222.23,0.26,-0.91,0.30,-0.88,0.88,1.12,1.44,1.14,1.18,1.17
224.45,0.23,-0.94,0.28,-0.89,0.89,1.12,1.47,1.12,1.17,1.17
226.70,0.23,-0.94,0.25,-0.91,0.91,1.13,1.50,1.14,1.16,1.17
228.96,0.23,-0.93,0.22,-0.94,0.94,1.13,1.52,1.17,1.16,1.16
231.25,0.23,-0.93,0.18,-0.97,0.97,1.14,1.55,1.20,1.15,1.16
233.57,0.20,-0.95,0.14,-1.00,1.00,1.15,1.57,1.20,1.15,1.15
235.90,0.01,-1.13,0.10,-1.04,1.04,1.15,1.59,1.05,1.15,1.14
238.26,0.00,-1.14,0.06,-1.08,1.08,1.16,1.61,1.08,1.15,1.14
240.64,0.00,-1.14,0.02,-1.13,1.13,1.17,1.63,1.13,1.15,1.14
243.05,0.00,-1.15,-0.02,-1.17,1.17,1.17,1.65,1.17,1.15,1.15
245.48,0.00,-1.16,-0.06,-1.22,1.22,1.18,1.67,1.22,1.15,1.16
247.93,-0.00,-1.17,-0.10,-1.26,1.26,1.19,1.68,1.26,1.16,1.17
250.41,-0.19,-1.35,-0.14,-1.31,1.31,1.20,1.70,1.12,1.16,1.16
252.92,-0.23,-1.40,-0.19,-1.37,1.37,1.21,1.71,1.14,1.17,1.17
255.45,-0.23,-1.43,-0.24,-1.42,1.42,1.22,1.72,1.19,1.18,1.20
258.00,-0.23,-1.43,-0.28,-1.47,1.47,1.23,1.73,1.24,1.19,1.20
260.58,-0.37,-1.57,-0.32,-1.52,1.52,1.24,1.74,1.15,1.20,1.20
263.19,-0.45,-1.67,-0.36,-1.57,1.57,1.25,1.75,1.12,1.22,1.22
265.82,-0.46,-1.68,-0.41,-1.64,1.64,1.27,1.76,1.18,1.23,1.22
268.48,-0.46,-1.71,-0.46,-1.70,1.70,1.28,1.76,1.24,1.25,1.25
271.16,-0.46,-1.72,-0.51,-1.78,1.78,1.29,1.77,1.32,1.26,1.26
273.87,-0.54,-1.81,-0.56,-1.85,1.85,1.30,1.77,1.31,1.28,1.27
276.61,-0.66,-1.97,-0.62,-1.92,1.92,1.32,1.78,1.26,1.30,1.31
279.38,-0.68,-2.00,-0.67,-2.00,2.00,1.33,1.78,1.32,1.33,1.32
282.17,-0.68,-2.03,-0.75,-2.10,2.10,1.35,1.78,1.42,1.35,1.35
284.99,-0.74,-2.12,-0.83,-2.21,2.21,1.36,1.79,1.47,1.38,1.38
287.84,-0.90,-2.30,-0.92,-2.33,2.33,1.38,1.79,1.43,1.41,1.40
290.72,-0.98,-2.42,-1.03,-2.46,2.46,1.40,1.79,1.48,1.43,1.44
293.63,-1.12,-2.58,-1.15,-2.61,2.61,1.41,1.79,1.49,1.46,1.46
296.57,-1.14,-2.63,-1.28,-2.76,2.76,1.43,1.80,1.62,1.49,1.49
299.53,-1.31,-2.83,-1.40,-2.91,2.91,1.45,1.80,1.60,1.51,1.52
302.53,-1.37,-2.90,-1.51,-3.05,3.05,1.47,1.80,1.68,1.53,1.53
305.55,-1.57,-3.14,-1.59,-3.15,3.15,1.49,1.81,1.58,1.55,1.57
308.61,-1.65,-3.24,-1.64,-3.21,3.21,1.51,1.81,1.56,1.57,1.59
311.69,-1.80,-3.40,-1.64,-3.23,3.23,1.53,1.82,1.43,1.59,1.60
314.81,-1.82,-3.45,-1.61,-3.21,3.21,1.55,1.83,1.39,1.60,1.63
317.96,-1.82,-3.45,-1.54,-3.15,3.15,1.57,1.83,1.33,1.61,1.63
321.14,-1.81,-3.43,-1.43,-3.06,3.06,1.59,1.84,1.25,1.62,1.62
324.35,-1.62,-3.25,-1.30,-2.94,2.94,1.61,1.85,1.32,1.63,1.63
327.59,-1.34,-2.98,-1.16,-2.80,2.80,1.64,1.87,1.46,1.64,1.64
330.87,-1.01,-2.66,-1.00,-2.65,2.65,1.66,1.88,1.64,1.65,1.65
334.18,-0.66,-2.31,-0.82,-2.48,2.48,1.69,1.89,1.82,1.66,1.65
337.52,-0.35,-2.01,-0.65,-2.32,2.32,1.71,1.91,1.97,1.68,1.66
340.90,-0.09,-1.78,-0.47,-2.16,2.16,1.74,1.92,2.07,1.69,1.69
344.30,0.00,-1.70,-0.31,-2.01,2.01,1.76,1.94,2.01,1.70,1.70
347.75,0.00,-1.71,-0.16,-1.88,1.88,1.79,1.96,1.88,1.72,1.71
351.23,0.00,-1.74,-0.05,-1.79,1.79,1.81,1.98,1.79,1.74,1.74
354.74,0.00,-1.76,0.03,-1.73,1.73,1.84,2.01,1.73,1.76,1.76
358.28,0.00,-1.79,0.07,-1.71,1.71,1.87,2.03,1.71,1.78,1.79
361.87,0.00,-1.81,0.08,-1.73,1.73,1.90,2.06,1.73,1.81,1.81
365.49,0.00,-1.83,0.06,-1.77,1.77,1.93,2.08,1.77,1.83,1.83
369.14,0.00,-1.85,0.03,-1.82,1.82,1.96,2.11,1.82,1.85,1.85
372.83,0.00,-1.88,-0.01,-1.88,1.88,1.99,2.14,1.88,1.87,1.88
376.56,-0.00,-1.90,-0.05,-1.94,1.94,2.02,2.17,1.94,1.89,1.90
380.33,-0.09,-2.02,-0.09,-2.00,2.00,2.05,2.21,1.91,1.91,1.93
384.13,-0.20,-2.15,-0.12,-2.05,2.05,2.08,2.24,1.85,1.93,1.95
387.97,-0.23,-2.19,-0.15,-2.10,2.10,2.11,2.27,1.87,1.95,1.96
391.85,-0.23,-2.19,-0.19,-2.15,2.15,2.14,2.31,1.92,1.96,1.96
395.77,-0.23,-2.20,-0.23,-2.20,2.20,2.18,2.35,1.97,1.97,1.97
399.73,-0.23,-2.21,-0.26,-2.25,2.25,2.21,2.39,2.02,1.98,1.98
403.72,-0.23,-2.22,-0.30,-2.29,2.29,2.24,2.43,2.06,1.99,1.99
407.76,-0.23,-2.23,-0.33,-2.33,2.33,2.28,2.47,2.10,2.00,2.00
411.84,-0.36,-2.37,-0.36,-2.36,2.36,2.31,2.51,2.00,2.00,2.01
415.96,-0.45,-2.47,-0.38,-2.39,2.39,2.35,2.55,1.94,2.01,2.02
420.12,-0.46,-2.48,-0.39,-2.40,2.40,2.38,2.59,1.94,2.01,2.02
424.32,-0.46,-2.48,-0.40,-2.41,2.41,2.42,2.63,1.95,2.01,2.02
428.56,-0.46,-2.48,-0.41,-2.43,2.43,2.45,2.67,1.97,2.01,2.02
432.85,-0.46,-2.47,-0.44,-2.45,2.45,2.49,2.71,1.99,2.02,2.01
437.18,-0.46,-2.48,-0.46,-2.48,2.48,2.53,2.75,2.02,2.02,2.02
441.55,-0.46,-2.49,-0.48,-2.51,2.51,2.56,2.79,2.05,2.03,2.03
445.96,-0.46,-2.49,-0.50,-2.54,2.54,2.60,2.83,2.08,2.03,2.03
450.42,-0.46,-2.50,-0.52,-2.56,2.56,2.64,2.87,2.10,2.04,2.04
454.93,-0.46,-2.51,-0.54,-2.59,2.59,2.67,2.90,2.13,2.05,2.05
459.48,-0.46,-2.52,-0.55,-2.62,2.62,2.71,2.94,2.16,2.07,2.06
464.07,-0.55,-2.63,-0.57,-2.65,2.65,2.75,2.97,2.10,2.08,2.08
468.71,-0.65,-2.75,-0.59,-2.68,2.68,2.78,3.00,2.03,2.10,2.10
473.40,-0.68,-2.79,-0.61,-2.73,2.73,2.82,3.03,2.05,2.12,2.11
478.13,-0.68,-2.82,-0.63,-2.77,2.77,2.86,3.05,2.09,2.14,2.14
482.91,-0.68,-2.84,-0.65,-2.81,2.81,2.89,3.08,2.13,2.16,2.16
487.74,-0.68,-2.87,-0.66,-2.85,2.85,2.93,3.10,2.17,2.19,2.19
492.62,-0.68,-2.90,-0.68,-2.89,2.89,2.97,3.11,2.21,2.21,2.22
497.55,-0.68,-2.92,-0.69,-2.92,2.92,3.00,3.13,2.24,2.23,2.24
