frequency,raw,error,smoothed,error_smoothed,equalization,parametric_eq,fixed_band_eq,equalized_raw,equalized_smoothed,target
20.00,-15.68,-19.71,-15.68,-19.73,19.73,18.57,8.11,4.05,4.05,4.03
20.20,-15.56,-19.63,-15.56,-19.64,19.64,18.64,8.28,4.09,4.08,4.07
20.40,-15.44,-19.55,-15.44,-19.55,19.55,18.69,8.45,4.12,4.11,4.11
20.61,-15.33,-19.47,-15.32,-19.46,19.46,18.74,8.63,4.13,4.14,4.14
20.81,-15.21,-19.38,-15.21,-19.37,19.37,18.76,8.81,4.17,4.17,4.18
21.02,-15.09,-19.30,-15.09,-19.28,19.28,18.78,9.00,4.19,4.19,4.22
21.23,-14.97,-19.20,-14.97,-19.18,19.18,18.78,9.19,4.22,4.22,4.24
21.44,-14.85,-19.10,-14.85,-19.09,19.09,18.77,9.39,4.24,4.24,4.26
21.66,-14.73,-19.00,-14.73,-18.99,18.99,18.74,9.59,4.26,4.26,4.28
21.87,-14.61,-18.89,-14.61,-18.89,18.89,18.70,9.80,4.28,4.28,4.29
22.09,-14.49,-18.79,-14.49,-18.78,18.78,18.65,10.01,4.30,4.30,4.30
22.31,-14.37,-18.68,-14.37,-18.68,18.68,18.58,10.23,4.31,4.31,4.31
22.54,-14.25,-18.57,-14.25,-18.57,18.57,18.51,10.46,4.32,4.32,4.32
22.76,-14.13,-18.46,-14.12,-18.46,18.46,18.42,10.69,4.33,4.33,4.33
22.99,-14.01,-18.34,-14.00,-18.34,18.34,18.33,10.93,4.33,4.34,4.33
23.22,-13.88,-18.22,-13.88,-18.23,18.23,18.23,11.17,4.35,4.35,4.34
23.45,-13.76,-18.11,-13.76,-18.11,18.11,18.12,11.42,4.36,4.36,4.35
23.69,-13.63,-17.99,-13.63,-18.00,18.00,18.00,11.68,4.37,4.37,4.36
23.92,-13.51,-17.87,-13.51,-17.89,17.89,17.88,11.95,4.38,4.38,4.37
24.16,-13.39,-17.77,-13.39,-17.77,17.77,17.76,12.22,4.39,4.39,4.39
24.40,-13.27,-17.67,-13.26,-17.66,17.66,17.62,12.50,4.39,4.39,4.41
24.65,-13.14,-17.54,-13.14,-17.54,17.54,17.49,12.79,4.41,4.40,4.41
24.89,-13.02,-17.43,-13.02,-17.43,17.43,17.35,13.09,4.42,4.41,4.41
25.14,-12.90,-17.32,-12.89,-17.32,17.32,17.22,13.40,4.42,4.42,4.42
25.39,-12.77,-17.20,-12.77,-17.20,17.20,17.08,13.71,4.44,4.43,4.43
25.65,-12.65,-17.10,-12.65,-17.09,17.09,16.93,14.04,4.44,4.45,4.45
25.91,-12.53,-16.98,-12.52,-16.98,16.98,16.79,14.37,4.45,4.45,4.45
26.16,-12.40,-16.86,-12.40,-16.86,16.86,16.65,14.71,4.47,4.46,4.46
26.43,-12.28,-16.75,-12.28,-16.75,16.75,16.51,15.06,4.47,4.47,4.47
26.69,-12.15,-16.62,-12.15,-16.63,16.63,16.37,15.41,4.49,4.48,4.48
26.96,-12.03,-16.52,-12.03,-16.52,16.52,16.23,15.78,4.49,4.49,4.50
27.23,-11.91,-16.41,-11.91,-16.40,16.40,16.09,16.15,4.49,4.50,4.50
27.50,-11.78,-16.29,-11.78,-16.29,16.29,15.95,16.53,4.51,4.51,4.51
27.77,-11.66,-16.17,-11.66,-16.18,16.18,15.81,16.90,4.52,4.52,4.51
28.05,-11.54,-16.07,-11.54,-16.06,16.06,15.68,17.28,4.52,4.52,4.53
28.33,-11.42,-15.94,-11.41,-15.95,15.95,15.55,17.66,4.53,4.53,4.53
28.62,-11.29,-15.83,-11.29,-15.83,15.83,15.41,18.03,4.54,4.54,4.54
28.90,-11.17,-15.71,-11.17,-15.71,15.71,15.29,18.39,4.55,4.55,4.54
29.19,-11.05,-15.59,-11.05,-15.60,15.60,15.16,18.73,4.55,4.55,4.54
29.48,-10.93,-15.50,-10.92,-15.48,15.48,15.03,19.05,4.56,4.56,4.57
29.78,-10.81,-15.38,-10.80,-15.37,15.37,14.91,19.34,4.56,4.57,4.57
30.08,-10.69,-15.27,-10.68,-15.25,15.25,14.79,19.59,4.56,4.57,4.58
30.38,-10.56,-15.13,-10.56,-15.14,15.14,14.67,19.79,4.58,4.58,4.57
30.68,-10.43,-15.02,-10.44,-15.02,15.02,14.56,19.93,4.60,4.59,4.59
30.99,-10.31,-14.90,-10.32,-14.91,14.91,14.45,20.02,4.60,4.59,4.59
31.30,-10.19,-14.79,-10.20,-14.80,14.80,14.34,20.04,4.61,4.60,4.60
31.61,-10.08,-14.68,-10.08,-14.69,14.69,14.23,20.01,4.61,4.61,4.61
31.93,-9.97,-14.58,-9.97,-14.58,14.58,14.12,19.91,4.61,4.61,4.61
32.24,-9.85,-14.46,-9.85,-14.47,14.47,14.02,19.75,4.63,4.62,4.61
32.57,-9.74,-14.37,-9.74,-14.36,14.36,13.92,19.55,4.63,4.63,4.63
32.89,-9.63,-14.26,-9.63,-14.26,14.26,13.82,19.31,4.63,4.63,4.63
33.22,-9.52,-14.16,-9.52,-14.16,14.16,13.72,19.03,4.64,4.64,4.64
33.55,-9.41,-14.06,-9.41,-14.05,14.05,13.63,18.73,4.65,4.65,4.65
33.89,-9.30,-13.95,-9.30,-13.95,13.95,13.53,18.41,4.65,4.65,4.66
34.23,-9.19,-13.85,-9.19,-13.85,13.85,13.44,18.07,4.66,4.66,4.66
34.57,-9.08,-13.75,-9.08,-13.75,13.75,13.35,17.73,4.67,4.66,4.67
34.92,-8.98,-13.64,-8.98,-13.65,13.65,13.27,17.39,4.67,4.67,4.66
35.27,-8.87,-13.54,-8.87,-13.54,13.54,13.18,17.04,4.67,4.67,4.67
35.62,-8.77,-13.45,-8.77,-13.44,13.44,13.10,16.70,4.67,4.68,4.68
35.97,-8.67,-13.34,-8.66,-13.34,13.34,13.02,16.36,4.67,4.68,4.67
36.33,-8.56,-13.24,-8.55,-13.23,13.23,12.94,16.03,4.67,4.68,4.68
36.70,-8.45,-13.12,-8.45,-13.13,13.13,12.86,15.71,4.68,4.68,4.67
37.06,-8.34,-13.02,-8.34,-13.02,13.02,12.78,15.40,4.68,4.68,4.68
37.43,-8.24,-12.92,-8.23,-12.91,12.91,12.71,15.09,4.67,4.68,4.68
37.81,-8.13,-12.81,-8.13,-12.80,12.80,12.63,14.80,4.67,4.67,4.68
38.19,-8.03,-12.70,-8.02,-12.69,12.69,12.56,14.51,4.66,4.67,4.67
38.57,-7.92,-12.59,-7.91,-12.58,12.58,12.48,14.24,4.66,4.67,4.67
38.95,-7.81,-12.47,-7.81,-12.47,12.47,12.41,13.97,4.66,4.67,4.66
39.34,-7.70,-12.35,-7.70,-12.36,12.36,12.34,13.71,4.66,4.66,4.66
39.74,-7.59,-12.24,-7.59,-12.25,12.25,12.27,13.46,4.66,4.66,4.65
40.14,-7.48,-12.13,-7.48,-12.14,12.14,12.20,13.22,4.66,4.66,4.66
40.54,-7.38,-12.03,-7.38,-12.03,12.03,12.13,12.99,4.65,4.65,4.65
40.94,-7.27,-11.91,-7.27,-11.92,11.92,12.06,12.77,4.65,4.65,4.64
41.35,-7.17,-11.80,-7.17,-11.81,11.81,11.99,12.56,4.64,4.64,4.64
41.76,-7.07,-11.70,-7.06,-11.70,11.70,11.93,12.35,4.63,4.64,4.64
42.18,-6.97,-11.61,-6.96,-11.59,11.59,11.86,12.15,4.63,4.63,4.64
42.60,-6.86,-11.49,-6.86,-11.49,11.49,11.79,11.96,4.63,4.63,4.63
43.03,-6.76,-11.39,-6.76,-11.38,11.38,11.72,11.78,4.62,4.62,4.63
43.46,-6.66,-11.28,-6.66,-11.28,11.28,11.65,11.61,4.62,4.62,4.63
43.90,-6.56,-11.17,-6.56,-11.18,11.18,11.58,11.44,4.62,4.62,4.61
44.33,-6.47,-11.08,-6.47,-11.08,11.08,11.50,11.28,4.61,4.61,4.61
44.78,-6.38,-10.98,-6.37,-10.98,10.98,11.43,11.13,4.60,4.61,4.60
45.23,-6.29,-10.88,-6.28,-10.89,10.89,11.36,10.98,4.60,4.60,4.59
45.68,-6.20,-10.79,-6.20,-10.79,10.79,11.28,10.84,4.59,4.60,4.59
46.13,-6.12,-10.70,-6.11,-10.70,10.70,11.21,10.70,4.59,4.59,4.58
46.60,-6.03,-10.62,-6.04,-10.62,10.62,11.13,10.58,4.59,4.58,4.59
47.06,-5.95,-10.52,-5.96,-10.53,10.53,11.05,10.45,4.59,4.57,4.58
47.53,-5.89,-10.45,-5.89,-10.45,10.45,10.97,10.34,4.57,4.56,4.57
48.01,-5.82,-10.39,-5.83,-10.38,10.38,10.89,10.22,4.56,4.55,4.57
48.49,-5.77,-10.32,-5.77,-10.31,10.31,10.80,10.12,4.54,4.54,4.55
48.97,-5.71,-10.24,-5.71,-10.24,10.24,10.72,10.01,4.53,4.53,4.53
49.46,-5.66,-10.17,-5.66,-10.18,10.18,10.63,9.92,4.52,4.52,4.51
49.96,-5.61,-10.10,-5.61,-10.12,10.12,10.54,9.82,4.51,4.50,4.49
50.46,-5.57,-10.05,-5.57,-10.06,10.06,10.45,9.73,4.49,4.48,4.49
50.96,-5.53,-10.00,-5.54,-10.00,10.00,10.36,9.65,4.48,4.47,4.47
51.47,-5.51,-9.94,-5.50,-9.95,9.95,10.26,9.56,4.44,4.45,4.44
51.99,-5.48,-9.90,-5.48,-9.90,9.90,10.17,9.48,4.42,4.43,4.42
52.51,-5.45,-9.86,-5.45,-9.86,9.86,10.07,9.41,4.41,4.41,4.41
53.03,-5.42,-9.80,-5.42,-9.81,9.81,9.97,9.33,4.39,4.38,4.39
53.56,-5.40,-9.77,-5.40,-9.76,9.76,9.86,9.26,4.37,4.36,4.37
54.10,-5.38,-9.72,-5.38,-9.72,9.72,9.76,9.19,4.34,4.34,4.34
54.64,-5.35,-9.67,-5.36,-9.68,9.68,9.65,9.12,4.33,4.32,4.32
55.18,-5.33,-9.62,-5.34,-9.63,9.63,9.54,9.05,4.31,4.30,4.29
55.74,-5.32,-9.58,-5.31,-9.59,9.59,9.43,8.98,4.27,4.27,4.26
56.29,-5.30,-9.55,-5.29,-9.54,9.54,9.32,8.91,4.24,4.25,4.25
56.86,-5.27,-9.49,-5.26,-9.48,9.48,9.21,8.84,4.21,4.22,4.22
57.42,-5.23,-9.41,-5.22,-9.42,9.42,9.09,8.77,4.19,4.20,4.19
58.00,-5.20,-9.36,-5.19,-9.36,9.36,8.97,8.70,4.16,4.17,4.16
58.58,-5.15,-9.29,-5.14,-9.28,9.28,8.85,8.62,4.13,4.14,4.14
59.16,-5.10,-9.21,-5.09,-9.20,9.20,8.73,8.54,4.10,4.11,4.12
59.76,-5.04,-9.13,-5.03,-9.11,9.11,8.61,8.46,4.07,4.08,4.09
60.35,-4.98,-9.03,-4.97,-9.01,9.01,8.49,8.38,4.03,4.04,4.06
60.96,-4.91,-8.93,-4.90,-8.90,8.90,8.37,8.29,4.00,4.01,4.02
61.57,-4.83,-8.80,-4.82,-8.79,8.79,8.24,8.20,3.96,3.97,3.97
62.18,-4.74,-8.66,-4.73,-8.66,8.66,8.12,8.11,3.92,3.93,3.92
62.80,-4.64,-8.53,-4.63,-8.53,8.53,7.99,8.01,3.89,3.89,3.89
63.43,-4.54,-8.38,-4.53,-8.38,8.38,7.87,7.91,3.85,3.85,3.84
64.07,-4.43,-8.23,-4.42,-8.23,8.23,7.74,7.81,3.80,3.81,3.80
64.71,-4.31,-8.07,-4.31,-8.07,8.07,7.61,7.70,3.76,3.77,3.76
65.35,-4.19,-7.90,-4.19,-7.91,7.91,7.48,7.58,3.72,3.72,3.72
66.01,-4.07,-7.74,-4.06,-7.74,7.74,7.36,7.47,3.67,3.68,3.67
66.67,-3.94,-7.58,-3.93,-7.56,7.56,7.23,7.35,3.62,3.63,3.64
67.33,-3.80,-7.39,-3.80,-7.38,7.38,7.10,7.23,3.59,3.59,3.59
68.01,-3.67,-7.22,-3.66,-7.20,7.20,6.97,7.10,3.53,3.54,3.55
68.69,-3.53,-7.03,-3.52,-7.02,7.02,6.84,6.97,3.49,3.50,3.50
69.37,-3.39,-6.84,-3.39,-6.84,6.84,6.72,6.84,3.45,3.45,3.45
70.07,-3.25,-6.65,-3.25,-6.66,6.66,6.59,6.71,3.41,3.41,3.40
70.77,-3.11,-6.47,-3.12,-6.48,6.48,6.46,6.58,3.37,3.36,3.36
71.48,-2.98,-6.30,-2.99,-6.30,6.30,6.34,6.44,3.33,3.32,3.32
72.19,-2.85,-6.12,-2.86,-6.13,6.13,6.21,6.31,3.28,3.27,3.27
72.91,-2.72,-5.94,-2.73,-5.96,5.96,6.08,6.17,3.25,3.23,3.23
73.64,-2.61,-5.79,-2.61,-5.80,5.80,5.96,6.04,3.19,3.19,3.18
74.38,-2.50,-5.64,-2.50,-5.64,5.64,5.84,5.90,3.15,3.14,3.15
75.12,-2.39,-5.49,-2.39,-5.49,5.49,5.71,5.76,3.11,3.10,3.10
75.87,-2.29,-5.35,-2.29,-5.35,5.35,5.59,5.63,3.06,3.06,3.06
76.63,-2.19,-5.21,-2.19,-5.21,5.21,5.47,5.49,3.03,3.03,3.03
77.40,-2.10,-5.08,-2.10,-5.08,5.08,5.35,5.36,2.99,2.99,2.99
78.17,-2.01,-4.95,-2.01,-4.96,4.96,5.23,5.23,2.95,2.95,2.95
78.95,-1.92,-4.83,-1.93,-4.84,4.84,5.11,5.09,2.93,2.92,2.92
79.74,-1.85,-4.73,-1.85,-4.73,4.73,5.00,4.96,2.89,2.88,2.88
80.54,-1.78,-4.63,-1.78,-4.63,4.63,4.88,4.84,2.85,2.85,2.85
81.35,-1.71,-4.52,-1.71,-4.52,4.52,4.77,4.71,2.82,2.82,2.82
82.16,-1.64,-4.42,-1.64,-4.43,4.43,4.65,4.58,2.79,2.78,2.78
82.98,-1.58,-4.33,-1.58,-4.33,4.33,4.54,4.46,2.75,2.75,2.76
83.81,-1.53,-4.25,-1.52,-4.24,4.24,4.43,4.34,2.71,2.72,2.72
84.65,-1.47,-4.15,-1.46,-4.15,4.15,4.32,4.22,2.69,2.69,2.68
85.50,-1.42,-4.08,-1.41,-4.07,4.07,4.21,4.10,2.65,2.66,2.66
86.35,-1.37,-4.00,-1.36,-3.99,3.99,4.10,3.99,2.62,2.64,2.64
87.22,-1.31,-3.91,-1.31,-3.91,3.91,4.00,3.87,2.61,2.61,2.61
88.09,-1.25,-3.82,-1.26,-3.84,3.84,3.89,3.76,2.59,2.58,2.58
88.97,-1.20,-3.75,-1.21,-3.76,3.76,3.79,3.65,2.56,2.55,2.55
89.86,-1.16,-3.69,-1.16,-3.69,3.69,3.69,3.55,2.53,2.52,2.53
90.76,-1.11,-3.60,-1.11,-3.61,3.61,3.59,3.44,2.50,2.50,2.49
91.66,-1.07,-3.53,-1.07,-3.53,3.53,3.49,3.34,2.47,2.47,2.47
92.58,-1.04,-3.47,-1.02,-3.46,3.46,3.39,3.23,2.42,2.44,2.43
93.51,-0.99,-3.41,-0.97,-3.38,3.38,3.29,3.13,2.39,2.41,2.42
94.44,-0.94,-3.32,-0.93,-3.30,3.30,3.20,3.04,2.37,2.38,2.38
95.39,-0.89,-3.25,-0.88,-3.23,3.23,3.10,2.94,2.34,2.35,2.36
96.34,-0.84,-3.15,-0.84,-3.16,3.16,3.01,2.84,2.32,2.31,2.31
97.30,-0.80,-3.07,-0.80,-3.08,3.08,2.92,2.75,2.29,2.28,2.28
98.28,-0.76,-3.00,-0.76,-3.01,3.01,2.83,2.66,2.25,2.24,2.24
99.26,-0.71,-2.91,-0.73,-2.93,2.93,2.74,2.57,2.23,2.21,2.20
100.25,-0.67,-2.83,-0.69,-2.86,2.86,2.65,2.48,2.19,2.17,2.17
101.25,-0.63,-2.76,-0.65,-2.78,2.78,2.57,2.40,2.15,2.13,2.13
102.27,-0.62,-2.70,-0.62,-2.70,2.70,2.48,2.31,2.09,2.08,2.08
103.29,-0.60,-2.63,-0.59,-2.62,2.62,2.40,2.23,2.03,2.04,2.03
104.32,-0.58,-2.57,-0.55,-2.54,2.54,2.32,2.15,1.97,1.99,2.00
105.37,-0.55,-2.50,-0.52,-2.46,2.46,2.23,2.07,1.92,1.94,1.95
106.42,-0.51,-2.40,-0.49,-2.38,2.38,2.16,1.99,1.87,1.89,1.89
107.48,-0.47,-2.31,-0.46,-2.29,2.29,2.08,1.91,1.83,1.83,1.84
108.56,-0.43,-2.20,-0.43,-2.20,2.20,2.00,1.84,1.78,1.77,1.78
109.64,-0.40,-2.12,-0.40,-2.11,2.11,1.92,1.76,1.71,1.71,1.72
110.74,-0.37,-2.03,-0.37,-2.02,2.02,1.85,1.69,1.65,1.65,1.66
111.85,-0.34,-1.93,-0.34,-1.92,1.92,1.77,1.62,1.58,1.59,1.59
112.97,-0.31,-1.82,-0.31,-1.82,1.82,1.70,1.55,1.52,1.52,1.52
114.10,-0.28,-1.74,-0.28,-1.73,1.73,1.63,1.48,1.45,1.45,1.46
115.24,-0.25,-1.63,-0.26,-1.64,1.64,1.56,1.41,1.39,1.38,1.38
116.39,-0.23,-1.54,-0.24,-1.55,1.55,1.49,1.35,1.33,1.32,1.31
117.55,-0.21,-1.45,-0.22,-1.47,1.47,1.42,1.29,1.26,1.25,1.24
118.73,-0.19,-1.35,-0.22,-1.40,1.40,1.36,1.22,1.21,1.18,1.17
119.92,-0.18,-1.29,-0.21,-1.32,1.32,1.29,1.16,1.14,1.11,1.11
121.12,-0.19,-1.23,-0.21,-1.25,1.25,1.23,1.10,1.06,1.05,1.04
122.33,-0.19,-1.16,-0.20,-1.18,1.18,1.16,1.05,1.00,0.98,0.98
123.55,-0.20,-1.12,-0.20,-1.12,1.12,1.10,0.99,0.92,0.92,0.92
124.79,-0.22,-1.08,-0.20,-1.06,1.06,1.04,0.94,0.84,0.86,0.86
126.03,-0.23,-1.03,-0.20,-0.99,0.99,0.98,0.88,0.77,0.80,0.80
127.29,-0.22,-0.96,-0.19,-0.93,0.93,0.92,0.83,0.71,0.74,0.74
128.57,-0.21,-0.88,-0.18,-0.86,0.86,0.86,0.78,0.66,0.68,0.67
129.85,-0.20,-0.82,-0.17,-0.80,0.80,0.81,0.73,0.60,0.62,0.62
131.15,-0.17,-0.73,-0.16,-0.73,0.73,0.75,0.68,0.56,0.57,0.56
132.46,-0.16,-0.67,-0.14,-0.65,0.65,0.69,0.63,0.49,0.51,0.51
133.79,-0.13,-0.60,-0.11,-0.58,0.58,0.64,0.59,0.45,0.46,0.47
135.12,-0.08,-0.49,-0.08,-0.50,0.50,0.59,0.54,0.42,0.41,0.41
136.48,-0.06,-0.42,-0.05,-0.42,0.42,0.53,0.50,0.36,0.36,0.37
137.84,-0.02,-0.33,-0.02,-0.34,0.34,0.48,0.46,0.32,0.31,0.31
139.22,0.01,-0.25,0.01,-0.26,0.26,0.43,0.41,0.27,0.27,0.26
140.61,0.04,-0.16,0.04,-0.18,0.18,0.38,0.37,0.23,0.22,0.21
142.02,0.08,-0.09,0.06,-0.11,0.11,0.33,0.33,0.20,0.18,0.18
143.44,0.09,-0.04,0.08,-0.05,0.05,0.29,0.29,0.14,0.13,0.14
144.87,0.12,0.04,0.10,0.02,-0.02,0.24,0.25,0.10,0.08,0.09
146.32,0.13,0.09,0.11,0.08,-0.08,0.19,0.20,0.05,0.04,0.04
147.78,0.15,0.15,0.13,0.14,-0.14,0.15,0.16,0.02,-0.01,0.00
149.26,0.14,0.19,0.13,0.19,-0.19,0.10,0.12,-0.05,-0.06,-0.05
150.75,0.13,0.24,0.14,0.24,-0.24,0.06,0.08,-0.11,-0.11,-0.11
152.26,0.13,0.29,0.14,0.29,-0.29,0.01,0.04,-0.16,-0.15,-0.16
153.78,0.12,0.32,0.14,0.34,-0.34,-0.03,0.00,-0.22,-0.20,-0.20
155.32,0.12,0.38,0.14,0.39,-0.39,-0.07,-0.04,-0.27,-0.25,-0.26
156.88,0.12,0.43,0.13,0.44,-0.44,-0.11,-0.08,-0.32,-0.31,-0.30
158.44,0.12,0.48,0.13,0.49,-0.49,-0.15,-0.12,-0.36,-0.36,-0.35
160.03,0.12,0.54,0.13,0.54,-0.54,-0.19,-0.17,-0.41,-0.41,-0.41
161.63,0.12,0.59,0.12,0.58,-0.58,-0.23,-0.21,-0.46,-0.46,-0.47
163.24,0.12,0.64,0.12,0.64,-0.64,-0.27,-0.25,-0.51,-0.51,-0.52
164.88,0.12,0.69,0.12,0.69,-0.69,-0.30,-0.29,-0.57,-0.57,-0.57
166.53,0.12,0.74,0.12,0.74,-0.74,-0.34,-0.34,-0.62,-0.62,-0.62
168.19,0.12,0.80,0.12,0.80,-0.80,-0.37,-0.38,-0.67,-0.68,-0.68
169.87,0.12,0.85,0.12,0.85,-0.85,-0.41,-0.43,-0.73,-0.73,-0.73
171.57,0.12,0.91,0.12,0.91,-0.91,-0.44,-0.47,-0.79,-0.79,-0.78
173.29,0.12,0.97,0.13,0.97,-0.97,-0.48,-0.52,-0.85,-0.85,-0.85
175.02,0.12,1.02,0.13,1.03,-1.03,-0.51,-0.57,-0.91,-0.91,-0.90
176.77,0.12,1.09,0.13,1.10,-1.10,-0.54,-0.62,-0.97,-0.97,-0.97
178.54,0.12,1.15,0.13,1.16,-1.16,-0.58,-0.67,-1.04,-1.02,-1.03
180.32,0.12,1.21,0.14,1.22,-1.22,-0.61,-0.72,-1.10,-1.09,-1.08
182.13,0.13,1.27,0.14,1.28,-1.28,-0.64,-0.77,-1.15,-1.15,-1.14
183.95,0.13,1.34,0.14,1.34,-1.34,-0.67,-0.82,-1.21,-1.21,-1.21
185.79,0.14,1.41,0.13,1.40,-1.40,-0.70,-0.87,-1.26,-1.27,-1.27
187.65,0.14,1.48,0.13,1.46,-1.46,-0.73,-0.92,-1.32,-1.33,-1.34
189.52,0.13,1.53,0.12,1.51,-1.51,-0.76,-0.98,-1.38,-1.39,-1.40
191.42,0.12,1.57,0.11,1.56,-1.56,-0.78,-1.03,-1.43,-1.45,-1.45
193.33,0.11,1.61,0.09,1.60,-1.60,-0.81,-1.09,-1.49,-1.51,-1.50
195.27,0.09,1.65,0.07,1.63,-1.63,-0.84,-1.14,-1.54,-1.56,-1.55
197.22,0.06,1.68,0.05,1.66,-1.66,-0.87,-1.20,-1.60,-1.62,-1.62
199.19,0.03,1.71,0.02,1.69,-1.69,-0.89,-1.25,-1.66,-1.67,-1.68
201.18,0.00,1.73,-0.01,1.72,-1.72,-0.92,-1.31,-1.71,-1.72,-1.73
203.19,-0.04,1.73,-0.04,1.74,-1.74,-0.94,-1.37,-1.78,-1.77,-1.77
205.23,-0.07,1.76,-0.06,1.76,-1.76,-0.97,-1.42,-1.83,-1.82,-1.83
207.28,-0.11,1.75,-0.09,1.78,-1.78,-0.99,-1.48,-1.89,-1.87,-1.85
209.35,-0.14,1.77,-0.11,1.80,-1.80,-1.01,-1.53,-1.94,-1.92,-1.91
211.44,-0.16,1.81,-0.13,1.83,-1.83,-1.04,-1.59,-1.98,-1.96,-1.97
213.56,-0.19,1.82,-0.15,1.85,-1.85,-1.06,-1.64,-2.04,-2.00,-2.01
215.69,-0.20,1.83,-0.17,1.87,-1.87,-1.08,-1.69,-2.07,-2.04,-2.03
217.85,-0.21,1.87,-0.18,1.90,-1.90,-1.10,-1.75,-2.11,-2.08,-2.08
220.03,-0.20,1.93,-0.20,1.92,-1.92,-1.12,-1.80,-2.12,-2.12,-2.12
222.23,-0.20,1.96,-0.21,1.94,-1.94,-1.14,-1.84,-2.14,-2.15,-2.16
224.45,-0.20,1.98,-0.22,1.96,-1.96,-1.16,-1.89,-2.16,-2.18,-2.18
226.70,-0.21,2.00,-0.24,1.97,-1.97,-1.18,-1.93,-2.18,-2.21,-2.21
228.96,-0.23,2.01,-0.25,1.98,-1.98,-1.20,-1.98,-2.21,-2.23,-2.24
231.25,-0.25,2.00,-0.27,1.99,-1.99,-1.22,-2.02,-2.23,-2.26,-2.25
233.57,-0.27,2.01,-0.29,1.98,-1.98,-1.24,-2.05,-2.25,-2.27,-2.27
235.90,-0.31,1.99,-0.32,1.97,-1.97,-1.26,-2.08,-2.28,-2.29,-2.29
238.26,-0.34,1.97,-0.35,1.96,-1.96,-1.28,-2.11,-2.30,-2.30,-2.31
240.64,-0.37,1.95,-0.37,1.94,-1.94,-1.29,-2.14,-2.31,-2.31,-2.32
243.05,-0.41,1.91,-0.40,1.92,-1.92,-1.31,-2.16,-2.33,-2.32,-2.32
245.48,-0.44,1.89,-0.43,1.89,-1.89,-1.33,-2.18,-2.33,-2.33,-2.33
247.93,-0.48,1.85,-0.46,1.87,-1.87,-1.34,-2.19,-2.35,-2.33,-2.33
250.41,-0.50,1.84,-0.48,1.85,-1.85,-1.36,-2.20,-2.35,-2.33,-2.34
252.92,-0.53,1.80,-0.50,1.83,-1.83,-1.37,-2.21,-2.35,-2.33,-2.33
255.45,-0.54,1.78,-0.52,1.81,-1.81,-1.39,-2.21,-2.34,-2.32,-2.32
258.00,-0.55,1.77,-0.53,1.79,-1.79,-1.40,-2.21,-2.34,-2.32,-2.31
260.58,-0.55,1.76,-0.54,1.77,-1.77,-1.42,-2.21,-2.32,-2.31,-2.31
263.19,-0.54,1.76,-0.54,1.76,-1.76,-1.43,-2.20,-2.30,-2.30,-2.30
265.82,-0.53,1.77,-0.54,1.75,-1.75,-1.45,-2.19,-2.27,-2.29,-2.30
268.48,-0.53,1.75,-0.54,1.74,-1.74,-1.46,-2.17,-2.26,-2.28,-2.27
271.16,-0.53,1.73,-0.54,1.72,-1.72,-1.47,-2.15,-2.25,-2.27,-2.26
273.87,-0.53,1.73,-0.54,1.72,-1.72,-1.48,-2.13,-2.24,-2.26,-2.26
276.61,-0.53,1.71,-0.53,1.71,-1.71,-1.50,-2.11,-2.24,-2.24,-2.23
279.38,-0.53,1.70,-0.53,1.70,-1.70,-1.51,-2.08,-2.23,-2.23,-2.23
282.17,-0.53,1.69,-0.52,1.70,-1.70,-1.52,-2.05,-2.22,-2.22,-2.22
284.99,-0.53,1.68,-0.52,1.69,-1.69,-1.53,-2.02,-2.22,-2.21,-2.20
287.84,-0.53,1.67,-0.52,1.68,-1.68,-1.54,-1.99,-2.21,-2.19,-2.20
290.72,-0.53,1.66,-0.51,1.67,-1.67,-1.55,-1.96,-2.20,-2.18,-2.18
293.63,-0.53,1.64,-0.51,1.66,-1.66,-1.56,-1.92,-2.19,-2.17,-2.17
296.57,-0.52,1.64,-0.51,1.65,-1.65,-1.57,-1.89,-2.16,-2.16,-2.15
299.53,-0.51,1.64,-0.51,1.63,-1.63,-1.58,-1.85,-2.14,-2.14,-2.15
302.53,-0.50,1.65,-0.51,1.62,-1.62,-1.58,-1.82,-2.12,-2.13,-2.14
305.55,-0.51,1.61,-0.52,1.60,-1.60,-1.59,-1.78,-2.11,-2.12,-2.12
308.61,-0.52,1.59,-0.53,1.58,-1.58,-1.60,-1.75,-2.10,-2.11,-2.11
311.69,-0.53,1.58,-0.55,1.56,-1.56,-1.61,-1.71,-2.08,-2.10,-2.11
314.81,-0.55,1.53,-0.57,1.53,-1.53,-1.61,-1.67,-2.08,-2.10,-2.08
317.96,-0.57,1.52,-0.59,1.50,-1.50,-1.62,-1.64,-2.07,-2.09,-2.08
321.14,-0.60,1.48,-0.61,1.47,-1.47,-1.63,-1.60,-2.06,-2.08,-2.08
324.35,-0.64,1.44,-0.64,1.43,-1.43,-1.63,-1.57,-2.07,-2.07,-2.08
327.59,-0.68,1.39,-0.67,1.40,-1.40,-1.64,-1.53,-2.08,-2.07,-2.07
330.87,-0.71,1.36,-0.70,1.36,-1.36,-1.64,-1.50,-2.07,-2.07,-2.07
334.18,-0.74,1.33,-0.73,1.33,-1.33,-1.65,-1.47,-2.07,-2.06,-2.07
337.52,-0.78,1.29,-0.76,1.30,-1.30,-1.65,-1.44,-2.08,-2.06,-2.06
340.90,-0.80,1.26,-0.79,1.28,-1.28,-1.65,-1.41,-2.08,-2.06,-2.06
344.30,-0.83,1.23,-0.81,1.26,-1.26,-1.66,-1.38,-2.08,-2.06,-2.06
347.75,-0.84,1.23,-0.83,1.24,-1.24,-1.66,-1.35,-2.08,-2.07,-2.06
351.23,-0.86,1.21,-0.84,1.23,-1.23,-1.66,-1.32,-2.09,-2.07,-2.07
354.74,-0.87,1.20,-0.85,1.22,-1.22,-1.66,-1.30,-2.09,-2.07,-2.07
358.28,-0.87,1.21,-0.86,1.22,-1.22,-1.66,-1.27,-2.09,-2.08,-2.08
361.87,-0.86,1.23,-0.86,1.22,-1.22,-1.66,-1.25,-2.08,-2.08,-2.08
365.49,-0.85,1.24,-0.86,1.23,-1.23,-1.66,-1.22,-2.07,-2.09,-2.09
369.14,-0.85,1.25,-0.86,1.23,-1.23,-1.66,-1.20,-2.08,-2.09,-2.10
372.83,-0.85,1.25,-0.86,1.24,-1.24,-1.66,-1.18,-2.09,-2.10,-2.10
376.56,-0.85,1.26,-0.86,1.25,-1.25,-1.66,-1.16,-2.10,-2.11,-2.11
380.33,-0.85,1.27,-0.85,1.26,-1.26,-1.66,-1.14,-2.11,-2.12,-2.11
384.13,-0.85,1.28,-0.85,1.27,-1.27,-1.65,-1.13,-2.12,-2.13,-2.12
387.97,-0.85,1.29,-0.85,1.28,-1.28,-1.65,-1.11,-2.13,-2.13,-2.14
391.85,-0.85,1.30,-0.85,1.29,-1.29,-1.64,-1.09,-2.14,-2.14,-2.15
395.77,-0.85,1.29,-0.85,1.30,-1.30,-1.64,-1.08,-2.15,-2.15,-2.14
399.73,-0.85,1.30,-0.85,1.31,-1.31,-1.63,-1.07,-2.16,-2.15,-2.15
403.72,-0.85,1.32,-0.85,1.31,-1.31,-1.63,-1.05,-2.16,-2.16,-2.16
407.76,-0.85,1.33,-0.85,1.32,-1.32,-1.62,-1.04,-2.17,-2.17,-2.17
411.84,-0.85,1.32,-0.85,1.32,-1.32,-1.61,-1.03,-2.17,-2.17,-2.17
415.96,-0.85,1.33,-0.85,1.33,-1.33,-1.61,-1.02,-2.18,-2.18,-2.18
420.12,-0.85,1.33,-0.85,1.33,-1.33,-1.60,-1.01,-2.18,-2.18,-2.18
424.32,-0.85,1.33,-0.85,1.34,-1.34,-1.59,-1.00,-2.18,-2.18,-2.18
428.56,-0.85,1.34,-0.85,1.34,-1.34,-1.58,-1.00,-2.19,-2.19,-2.19
432.85,-0.85,1.34,-0.85,1.34,-1.34,-1.57,-0.99,-2.19,-2.19,-2.19
437.18,-0.85,1.35,-0.85,1.34,-1.34,-1.55,-0.98,-2.19,-2.19,-2.19
441.55,-0.85,1.34,-0.85,1.34,-1.34,-1.54,-0.98,-2.19,-2.19,-2.18
445.96,-0.85,1.34,-0.85,1.34,-1.34,-1.53,-0.97,-2.19,-2.19,-2.19
