frequency,raw,error,smoothed,error_smoothed,equalization,parametric_eq,fixed_band_eq,equalized_raw,equalized_smoothed,target
20.00,-1.65,-0.78,-1.65,-0.78,0.78,-0.11,0.13,-0.87,-0.87,-0.87
20.20,-1.58,-0.80,-1.58,-0.80,0.80,-0.11,0.13,-0.78,-0.78,-0.78
20.40,-1.52,-0.82,-1.52,-0.82,0.82,-0.11,0.14,-0.70,-0.70,-0.70
20.61,-1.45,-0.82,-1.45,-0.84,0.84,-0.12,0.14,-0.61,-0.61,-0.63
20.81,-1.39,-0.85,-1.39,-0.85,0.85,-0.12,0.15,-0.54,-0.54,-0.54
21.02,-1.32,-0.86,-1.32,-0.86,0.86,-0.12,0.15,-0.46,-0.47,-0.46
21.23,-1.26,-0.86,-1.26,-0.87,0.86,-0.12,0.16,-0.40,-0.40,-0.40
21.44,-1.20,-0.86,-1.20,-0.86,0.86,-0.12,0.17,-0.34,-0.34,-0.34
21.66,-1.14,-0.85,-1.14,-0.85,0.85,-0.13,0.17,-0.29,-0.29,-0.29
21.87,-1.08,-0.84,-1.08,-0.84,0.84,-0.13,0.18,-0.24,-0.23,-0.24
22.09,-1.01,-0.82,-1.01,-0.83,0.83,-0.13,0.18,-0.18,-0.19,-0.19
22.31,-0.95,-0.81,-0.95,-0.81,0.81,-0.14,0.19,-0.14,-0.14,-0.14
22.54,-0.89,-0.79,-0.89,-0.79,0.79,-0.14,0.20,-0.10,-0.10,-0.10
22.76,-0.83,-0.77,-0.83,-0.77,0.77,-0.14,0.21,-0.06,-0.06,-0.06
22.99,-0.76,-0.73,-0.76,-0.74,0.75,-0.14,0.21,-0.02,-0.02,-0.03
23.22,-0.70,-0.71,-0.70,-0.71,0.72,-0.15,0.22,0.02,0.02,0.01
23.45,-0.64,-0.69,-0.64,-0.69,0.70,-0.15,0.23,0.06,0.06,0.05
23.69,-0.58,-0.67,-0.58,-0.68,0.68,-0.15,0.24,0.09,0.09,0.09
23.92,-0.52,-0.65,-0.52,-0.66,0.65,-0.16,0.25,0.13,0.13,0.13
24.16,-0.46,-0.64,-0.46,-0.64,0.63,-0.16,0.25,0.17,0.17,0.18
24.40,-0.40,-0.61,-0.40,-0.61,0.60,-0.16,0.26,0.20,0.20,0.21
24.65,-0.34,-0.57,-0.34,-0.58,0.58,-0.17,0.27,0.24,0.24,0.23
24.89,-0.28,-0.54,-0.28,-0.55,0.55,-0.17,0.28,0.27,0.27,0.26
25.14,-0.22,-0.52,-0.22,-0.52,0.53,-0.17,0.29,0.31,0.30,0.30
25.39,-0.16,-0.49,-0.16,-0.50,0.50,-0.18,0.29,0.34,0.33,0.33
25.65,-0.11,-0.48,-0.11,-0.47,0.47,-0.18,0.30,0.36,0.37,0.37
25.91,-0.05,-0.44,-0.05,-0.45,0.45,-0.18,0.31,0.39,0.40,0.39
26.16,0.01,-0.41,0.00,-0.42,0.42,-0.19,0.32,0.43,0.43,0.42
26.43,0.06,-0.40,0.06,-0.40,0.40,-0.19,0.33,0.46,0.46,0.46
26.69,0.12,-0.37,0.11,-0.38,0.38,-0.19,0.33,0.49,0.49,0.49
26.96,0.17,-0.35,0.17,-0.36,0.35,-0.20,0.34,0.52,0.52,0.52
27.23,0.22,-0.33,0.22,-0.33,0.33,-0.20,0.35,0.54,0.55,0.55
27.50,0.28,-0.30,0.27,-0.31,0.30,-0.21,0.35,0.58,0.58,0.58
27.77,0.33,-0.27,0.33,-0.28,0.28,-0.21,0.36,0.61,0.61,0.60
28.05,0.38,-0.26,0.38,-0.25,0.26,-0.21,0.36,0.64,0.64,0.64
28.33,0.43,-0.23,0.43,-0.24,0.24,-0.22,0.37,0.67,0.67,0.66
28.62,0.48,-0.21,0.47,-0.22,0.22,-0.22,0.37,0.70,0.70,0.69
28.90,0.52,-0.21,0.52,-0.20,0.20,-0.23,0.37,0.72,0.73,0.73
29.19,0.57,-0.18,0.57,-0.19,0.19,-0.23,0.37,0.76,0.76,0.75
29.48,0.62,-0.18,0.62,-0.18,0.17,-0.24,0.38,0.79,0.79,0.80
29.78,0.66,-0.15,0.66,-0.16,0.15,-0.24,0.37,0.81,0.81,0.81
30.08,0.71,-0.13,0.71,-0.14,0.14,-0.25,0.37,0.84,0.84,0.84
30.38,0.75,-0.12,0.75,-0.12,0.12,-0.25,0.37,0.87,0.87,0.87
30.68,0.80,-0.10,0.80,-0.10,0.11,-0.26,0.37,0.91,0.90,0.90
30.99,0.84,-0.08,0.83,-0.09,0.09,-0.26,0.36,0.93,0.93,0.92
31.30,0.87,-0.07,0.87,-0.08,0.08,-0.27,0.36,0.95,0.95,0.94
31.61,0.90,-0.07,0.90,-0.07,0.07,-0.27,0.35,0.97,0.97,0.97
31.93,0.93,-0.06,0.93,-0.06,0.06,-0.28,0.34,0.99,0.99,0.99
32.24,0.96,-0.05,0.96,-0.05,0.05,-0.28,0.33,1.01,1.01,1.01
32.57,1.00,-0.04,1.00,-0.04,0.04,-0.29,0.32,1.04,1.04,1.04
32.89,1.03,-0.03,1.03,-0.04,0.04,-0.30,0.31,1.06,1.06,1.06
33.22,1.06,-0.02,1.06,-0.03,0.03,-0.30,0.30,1.08,1.08,1.08
33.55,1.08,-0.02,1.08,-0.02,0.02,-0.31,0.28,1.10,1.10,1.10
33.89,1.11,-0.00,1.11,-0.01,0.01,-0.31,0.27,1.12,1.11,1.11
34.23,1.13,-0.00,1.13,0.00,-0.00,-0.32,0.25,1.13,1.13,1.13
34.57,1.15,0.01,1.15,0.01,-0.01,-0.33,0.24,1.14,1.15,1.14
34.92,1.18,0.03,1.17,0.02,-0.01,-0.33,0.22,1.16,1.16,1.15
35.27,1.19,0.02,1.19,0.03,-0.02,-0.34,0.20,1.17,1.17,1.17
35.62,1.20,0.04,1.20,0.03,-0.03,-0.35,0.18,1.17,1.17,1.16
35.97,1.21,0.04,1.21,0.03,-0.03,-0.36,0.16,1.18,1.18,1.17
36.33,1.22,0.03,1.22,0.04,-0.04,-0.36,0.14,1.18,1.18,1.19
36.70,1.23,0.05,1.23,0.04,-0.05,-0.37,0.12,1.18,1.18,1.18
37.06,1.24,0.06,1.24,0.06,-0.06,-0.38,0.10,1.18,1.18,1.18
37.43,1.26,0.08,1.26,0.08,-0.08,-0.38,0.08,1.18,1.18,1.18
37.81,1.28,0.10,1.28,0.10,-0.09,-0.39,0.06,1.19,1.19,1.18
38.19,1.30,0.12,1.30,0.11,-0.11,-0.40,0.03,1.19,1.19,1.18
38.57,1.31,0.13,1.31,0.13,-0.13,-0.41,0.01,1.18,1.18,1.18
38.95,1.32,0.14,1.32,0.14,-0.14,-0.42,-0.01,1.18,1.18,1.18
39.34,1.33,0.17,1.33,0.16,-0.16,-0.43,-0.03,1.17,1.17,1.16
39.74,1.33,0.17,1.33,0.17,-0.17,-0.43,-0.06,1.16,1.16,1.16
40.14,1.34,0.19,1.34,0.19,-0.18,-0.44,-0.08,1.15,1.16,1.15
40.54,1.35,0.20,1.35,0.20,-0.20,-0.45,-0.11,1.15,1.15,1.15
40.94,1.36,0.22,1.36,0.21,-0.21,-0.46,-0.13,1.15,1.15,1.14
41.35,1.36,0.22,1.36,0.22,-0.22,-0.47,-0.15,1.14,1.14,1.14
41.76,1.37,0.24,1.37,0.23,-0.24,-0.48,-0.18,1.13,1.13,1.13
42.18,1.37,0.25,1.37,0.25,-0.25,-0.49,-0.20,1.12,1.12,1.12
42.60,1.38,0.27,1.38,0.26,-0.27,-0.50,-0.23,1.11,1.11,1.11
43.03,1.39,0.28,1.39,0.28,-0.28,-0.51,-0.25,1.10,1.10,1.11
43.46,1.40,0.30,1.40,0.30,-0.30,-0.52,-0.28,1.10,1.10,1.10
43.90,1.41,0.33,1.41,0.32,-0.32,-0.53,-0.30,1.09,1.09,1.08
44.33,1.41,0.35,1.41,0.35,-0.34,-0.54,-0.33,1.07,1.07,1.06
44.78,1.42,0.37,1.42,0.36,-0.36,-0.55,-0.35,1.06,1.06,1.05
45.23,1.42,0.38,1.42,0.38,-0.38,-0.57,-0.38,1.04,1.04,1.04
45.68,1.43,0.40,1.43,0.40,-0.40,-0.58,-0.40,1.03,1.03,1.03
46.13,1.44,0.42,1.44,0.41,-0.42,-0.59,-0.43,1.02,1.02,1.02
46.60,1.46,0.44,1.46,0.44,-0.44,-0.60,-0.46,1.02,1.02,1.02
47.06,1.47,0.46,1.47,0.46,-0.46,-0.61,-0.48,1.01,1.01,1.01
47.53,1.49,0.49,1.49,0.48,-0.48,-0.63,-0.51,1.01,1.01,1.00
48.01,1.50,0.50,1.50,0.50,-0.50,-0.64,-0.54,1.00,1.00,1.00
48.49,1.51,0.52,1.51,0.52,-0.52,-0.65,-0.56,0.99,0.99,0.99
48.97,1.52,0.54,1.52,0.54,-0.53,-0.67,-0.59,0.98,0.98,0.98
49.46,1.52,0.56,1.52,0.56,-0.55,-0.68,-0.62,0.97,0.97,0.96
49.96,1.53,0.58,1.53,0.57,-0.57,-0.69,-0.64,0.96,0.96,0.95
50.46,1.54,0.58,1.54,0.58,-0.58,-0.71,-0.67,0.95,0.96,0.96
50.96,1.56,0.60,1.55,0.60,-0.60,-0.72,-0.70,0.96,0.95,0.96
51.47,1.57,0.62,1.57,0.62,-0.62,-0.74,-0.73,0.95,0.96,0.95
51.99,1.59,0.64,1.59,0.64,-0.63,-0.75,-0.75,0.96,0.96,0.95
52.51,1.61,0.66,1.61,0.65,-0.65,-0.77,-0.78,0.96,0.95,0.95
53.03,1.62,0.67,1.62,0.67,-0.67,-0.78,-0.81,0.95,0.95,0.95
53.56,1.64,0.69,1.64,0.69,-0.69,-0.80,-0.84,0.95,0.95,0.95
54.10,1.65,0.71,1.65,0.71,-0.71,-0.82,-0.87,0.94,0.94,0.94
54.64,1.68,0.75,1.67,0.74,-0.74,-0.83,-0.89,0.94,0.93,0.93
55.18,1.69,0.77,1.69,0.77,-0.77,-0.85,-0.92,0.92,0.92,0.92
55.74,1.70,0.80,1.70,0.79,-0.80,-0.87,-0.95,0.90,0.90,0.90
56.29,1.72,0.82,1.72,0.83,-0.83,-0.89,-0.98,0.89,0.89,0.90
56.86,1.75,0.87,1.75,0.87,-0.86,-0.90,-1.00,0.88,0.88,0.88
57.42,1.78,0.92,1.78,0.91,-0.90,-0.92,-1.03,0.88,0.88,0.86
58.00,1.80,0.95,1.79,0.95,-0.93,-0.94,-1.06,0.87,0.87,0.85
58.58,1.81,0.98,1.81,0.97,-0.96,-0.96,-1.08,0.85,0.84,0.83
59.16,1.81,0.99,1.81,1.00,-1.00,-0.98,-1.11,0.81,0.82,0.82
59.76,1.83,1.03,1.83,1.02,-1.04,-1.00,-1.14,0.79,0.79,0.80
60.35,1.84,1.07,1.84,1.06,-1.08,-1.02,-1.16,0.76,0.76,0.77
60.96,1.87,1.11,1.87,1.12,-1.13,-1.04,-1.19,0.74,0.74,0.76
61.57,1.89,1.18,1.89,1.17,-1.17,-1.06,-1.21,0.71,0.72,0.71
62.18,1.92,1.24,1.92,1.23,-1.23,-1.09,-1.24,0.69,0.69,0.68
62.80,1.95,1.28,1.95,1.29,-1.28,-1.11,-1.26,0.67,0.67,0.67
63.43,1.98,1.35,1.98,1.34,-1.34,-1.13,-1.28,0.64,0.64,0.63
64.07,2.01,1.40,2.01,1.39,-1.39,-1.15,-1.31,0.62,0.62,0.61
64.71,2.04,1.44,2.04,1.44,-1.44,-1.18,-1.33,0.60,0.60,0.60
65.35,2.07,1.49,2.07,1.48,-1.48,-1.20,-1.36,0.59,0.59,0.58
66.01,2.10,1.53,2.10,1.52,-1.52,-1.23,-1.38,0.58,0.58,0.57
66.67,2.12,1.56,2.12,1.56,-1.55,-1.25,-1.40,0.56,0.57,0.56
67.33,2.14,1.59,2.14,1.59,-1.58,-1.28,-1.43,0.55,0.55,0.55
68.01,2.16,1.62,2.16,1.61,-1.61,-1.30,-1.45,0.55,0.54,0.54
68.69,2.17,1.64,2.17,1.64,-1.64,-1.33,-1.47,0.53,0.53,0.53
69.37,2.19,1.66,2.19,1.66,-1.66,-1.36,-1.50,0.52,0.53,0.53
70.07,2.21,1.69,2.21,1.68,-1.69,-1.39,-1.52,0.52,0.52,0.52
70.77,2.23,1.71,2.23,1.71,-1.71,-1.41,-1.55,0.52,0.52,0.52
71.48,2.25,1.74,2.25,1.74,-1.73,-1.44,-1.57,0.52,0.51,0.51
72.19,2.26,1.77,2.26,1.76,-1.76,-1.47,-1.60,0.50,0.50,0.49
72.91,2.27,1.78,2.27,1.78,-1.78,-1.50,-1.63,0.49,0.49,0.49
73.64,2.28,1.81,2.28,1.80,-1.81,-1.53,-1.65,0.47,0.47,0.47
74.38,2.29,1.83,2.29,1.83,-1.83,-1.56,-1.68,0.46,0.46,0.46
75.12,2.30,1.86,2.30,1.86,-1.86,-1.60,-1.71,0.44,0.45,0.44
75.87,2.32,1.89,2.32,1.88,-1.88,-1.63,-1.74,0.44,0.43,0.43
76.63,2.33,1.91,2.33,1.91,-1.91,-1.66,-1.78,0.42,0.42,0.42
77.40,2.34,1.94,2.34,1.94,-1.94,-1.70,-1.81,0.40,0.40,0.40
78.17,2.35,1.97,2.35,1.96,-1.96,-1.73,-1.84,0.38,0.39,0.38
78.95,2.37,1.99,2.37,1.99,-2.00,-1.77,-1.88,0.37,0.37,0.38
79.74,2.39,2.02,2.39,2.02,-2.03,-1.80,-1.92,0.36,0.37,0.37
80.54,2.42,2.06,2.42,2.06,-2.06,-1.84,-1.96,0.36,0.36,0.36
81.35,2.45,2.10,2.45,2.09,-2.09,-1.88,-2.00,0.36,0.36,0.35
82.16,2.47,2.13,2.47,2.12,-2.12,-1.91,-2.04,0.35,0.36,0.34
82.98,2.50,2.15,2.50,2.15,-2.14,-1.95,-2.08,0.35,0.35,0.35
83.81,2.52,2.18,2.52,2.18,-2.17,-1.99,-2.13,0.35,0.35,0.34
84.65,2.54,2.21,2.54,2.20,-2.20,-2.03,-2.18,0.34,0.34,0.33
85.50,2.56,2.22,2.56,2.22,-2.23,-2.07,-2.22,0.33,0.33,0.34
86.35,2.59,2.25,2.59,2.25,-2.26,-2.11,-2.27,0.33,0.33,0.34
87.22,2.62,2.29,2.62,2.28,-2.28,-2.16,-2.33,0.33,0.33,0.33
88.09,2.65,2.32,2.65,2.32,-2.32,-2.20,-2.38,0.33,0.33,0.33
88.97,2.68,2.36,2.68,2.36,-2.35,-2.24,-2.44,0.33,0.33,0.32
89.86,2.71,2.40,2.70,2.39,-2.39,-2.29,-2.50,0.32,0.31,0.31
90.76,2.73,2.44,2.73,2.44,-2.43,-2.33,-2.56,0.29,0.29,0.29
91.66,2.75,2.48,2.75,2.48,-2.48,-2.38,-2.62,0.27,0.27,0.27
92.58,2.78,2.54,2.78,2.53,-2.53,-2.43,-2.68,0.25,0.24,0.24
93.51,2.81,2.59,2.80,2.58,-2.59,-2.47,-2.75,0.22,0.21,0.22
94.44,2.83,2.64,2.83,2.64,-2.65,-2.52,-2.81,0.18,0.18,0.19
95.39,2.86,2.71,2.86,2.71,-2.72,-2.57,-2.88,0.14,0.14,0.15
96.34,2.89,2.78,2.89,2.78,-2.78,-2.62,-2.95,0.10,0.10,0.11
97.30,2.92,2.87,2.92,2.86,-2.85,-2.67,-3.02,0.07,0.06,0.05
98.28,2.94,2.94,2.94,2.93,-2.92,-2.72,-3.10,0.02,0.02,0.00
99.26,2.95,3.00,2.95,3.00,-2.98,-2.77,-3.17,-0.04,-0.04,-0.05
100.25,2.95,3.06,2.95,3.06,-3.05,-2.83,-3.25,-0.10,-0.10,-0.11
101.25,2.95,3.12,2.95,3.12,-3.11,-2.88,-3.32,-0.16,-0.16,-0.17
102.27,2.95,3.18,2.94,3.17,-3.17,-2.93,-3.40,-0.22,-0.23,-0.23
103.29,2.94,3.23,2.94,3.23,-3.23,-2.99,-3.48,-0.30,-0.29,-0.29
104.32,2.94,3.28,2.94,3.29,-3.30,-3.04,-3.55,-0.36,-0.36,-0.34
105.37,2.96,3.37,2.96,3.36,-3.37,-3.10,-3.63,-0.42,-0.42,-0.41
106.42,2.98,3.45,2.98,3.44,-3.45,-3.16,-3.71,-0.47,-0.47,-0.47
107.48,3.01,3.53,3.01,3.53,-3.53,-3.21,-3.78,-0.53,-0.52,-0.52
108.56,3.05,3.63,3.04,3.62,-3.62,-3.27,-3.86,-0.57,-0.58,-0.58
109.64,3.08,3.72,3.08,3.71,-3.71,-3.33,-3.93,-0.63,-0.63,-0.64
110.74,3.12,3.81,3.12,3.81,-3.80,-3.39,-4.00,-0.69,-0.68,-0.69
111.85,3.16,3.89,3.15,3.89,-3.89,-3.45,-4.07,-0.73,-0.74,-0.73
112.97,3.19,3.99,3.19,3.98,-3.98,-3.51,-4.14,-0.79,-0.79,-0.80
114.10,3.22,4.06,3.22,4.06,-4.06,-3.57,-4.20,-0.84,-0.84,-0.84
115.24,3.25,4.14,3.24,4.13,-4.13,-3.63,-4.27,-0.88,-0.88,-0.89
116.39,3.26,4.20,3.26,4.20,-4.19,-3.69,-4.32,-0.93,-0.93,-0.94
117.55,3.28,4.26,3.28,4.26,-4.25,-3.75,-4.38,-0.97,-0.97,-0.98
118.73,3.29,4.31,3.29,4.30,-4.30,-3.81,-4.43,-1.01,-1.01,-1.02
119.92,3.29,4.34,3.29,4.34,-4.34,-3.87,-4.47,-1.05,-1.05,-1.05
121.12,3.29,4.37,3.29,4.37,-4.38,-3.93,-4.51,-1.09,-1.09,-1.08
122.33,3.29,4.40,3.29,4.40,-4.41,-3.99,-4.54,-1.12,-1.12,-1.11
123.55,3.29,4.43,3.29,4.43,-4.43,-4.06,-4.57,-1.15,-1.14,-1.14
124.79,3.30,4.47,3.29,4.46,-4.46,-4.12,-4.60,-1.16,-1.17,-1.17
126.03,3.29,4.48,3.29,4.48,-4.48,-4.18,-4.62,-1.19,-1.19,-1.19
127.29,3.28,4.50,3.28,4.50,-4.49,-4.24,-4.63,-1.22,-1.21,-1.22
128.57,3.27,4.53,3.26,4.51,-4.50,-4.30,-4.64,-1.24,-1.25,-1.26
129.85,3.23,4.51,3.23,4.52,-4.51,-4.35,-4.64,-1.28,-1.28,-1.28
131.15,3.20,4.51,3.21,4.52,-4.51,-4.41,-4.64,-1.31,-1.31,-1.31
132.46,3.18,4.53,3.17,4.51,-4.51,-4.47,-4.63,-1.33,-1.34,-1.35
133.79,3.15,4.52,3.14,4.51,-4.51,-4.53,-4.62,-1.36,-1.37,-1.37
135.12,3.10,4.50,3.11,4.50,-4.51,-4.58,-4.61,-1.41,-1.41,-1.40
136.48,3.08,4.51,3.07,4.50,-4.51,-4.64,-4.59,-1.44,-1.44,-1.43
137.84,3.04,4.50,3.05,4.51,-4.52,-4.69,-4.57,-1.48,-1.47,-1.46
139.22,3.03,4.54,3.03,4.53,-4.52,-4.74,-4.55,-1.49,-1.50,-1.51
140.61,3.01,4.55,3.00,4.54,-4.53,-4.79,-4.52,-1.52,-1.53,-1.54
142.02,2.98,4.54,2.98,4.55,-4.54,-4.84,-4.50,-1.56,-1.56,-1.56
143.44,2.96,4.56,2.96,4.55,-4.56,-4.88,-4.47,-1.60,-1.60,-1.60
144.87,2.93,4.57,2.93,4.57,-4.57,-4.93,-4.44,-1.65,-1.64,-1.64
146.32,2.91,4.59,2.91,4.58,-4.59,-4.97,-4.41,-1.68,-1.68,-1.68
147.78,2.89,4.60,2.89,4.60,-4.61,-5.01,-4.38,-1.72,-1.72,-1.71
149.26,2.88,4.62,2.88,4.62,-4.62,-5.05,-4.35,-1.74,-1.75,-1.74
150.75,2.86,4.65,2.86,4.64,-4.63,-5.09,-4.32,-1.78,-1.78,-1.79
152.26,2.84,4.67,2.84,4.66,-4.64,-5.12,-4.29,-1.81,-1.81,-1.83
153.78,2.80,4.66,2.80,4.66,-4.65,-5.15,-4.27,-1.85,-1.85,-1.86
155.32,2.76,4.67,2.76,4.66,-4.65,-5.18,-4.24,-1.89,-1.89,-1.91
156.88,2.70,4.64,2.70,4.65,-4.65,-5.20,-4.22,-1.95,-1.95,-1.94
158.44,2.65,4.65,2.64,4.64,-4.64,-5.23,-4.20,-1.99,-2.00,-2.00
160.03,2.58,4.62,2.59,4.63,-4.63,-5.25,-4.18,-2.05,-2.04,-2.04
161.63,2.54,4.63,2.54,4.62,-4.63,-5.26,-4.16,-2.09,-2.09,-2.09
163.24,2.50,4.63,2.49,4.62,-4.63,-5.28,-4.15,-2.13,-2.14,-2.13
164.88,2.44,4.61,2.45,4.62,-4.63,-5.29,-4.14,-2.19,-2.18,-2.17
166.53,2.42,4.63,2.42,4.63,-4.63,-5.30,-4.13,-2.21,-2.22,-2.21
168.19,2.40,4.65,2.39,4.64,-4.64,-5.30,-4.12,-2.24,-2.25,-2.25
169.87,2.37,4.66,2.37,4.66,-4.65,-5.30,-4.12,-2.28,-2.28,-2.29
171.57,2.35,4.67,2.35,4.67,-4.66,-5.30,-4.12,-2.32,-2.32,-2.32
173.29,2.33,4.69,2.32,4.68,-4.68,-5.30,-4.12,-2.35,-2.36,-2.36
175.02,2.29,4.69,2.29,4.69,-4.69,-5.29,-4.13,-2.40,-2.39,-2.40
176.77,2.26,4.69,2.26,4.69,-4.69,-5.28,-4.14,-2.43,-2.43,-2.43
178.54,2.24,4.70,2.24,4.69,-4.69,-5.26,-4.15,-2.45,-2.46,-2.46
180.32,2.21,4.70,2.21,4.70,-4.69,-5.25,-4.17,-2.48,-2.48,-2.49
182.13,2.19,4.70,2.18,4.69,-4.69,-5.23,-4.19,-2.50,-2.50,-2.51
183.95,2.15,4.68,2.15,4.68,-4.68,-5.21,-4.21,-2.53,-2.52,-2.53
185.79,2.12,4.67,2.12,4.67,-4.67,-5.18,-4.24,-2.55,-2.55,-2.55
187.65,2.10,4.67,2.09,4.66,-4.66,-5.16,-4.26,-2.56,-2.57,-2.57
189.52,2.06,4.64,2.06,4.65,-4.65,-5.13,-4.30,-2.59,-2.58,-2.58
191.42,2.04,4.64,2.04,4.63,-4.64,-5.10,-4.33,-2.60,-2.60,-2.60
193.33,2.02,4.63,2.02,4.62,-4.63,-5.07,-4.37,-2.61,-2.62,-2.61
195.27,2.00,4.62,2.00,4.62,-4.63,-5.03,-4.41,-2.63,-2.63,-2.62
197.22,1.99,4.63,1.98,4.62,-4.63,-4.99,-4.45,-2.64,-2.64,-2.64
199.19,1.97,4.63,1.97,4.62,-4.62,-4.96,-4.49,-2.66,-2.65,-2.66
201.18,1.96,4.63,1.96,4.62,-4.62,-4.92,-4.54,-2.66,-2.66,-2.67
203.19,1.95,4.62,1.95,4.62,-4.62,-4.88,-4.59,-2.67,-2.67,-2.67
205.23,1.93,4.62,1.93,4.61,-4.61,-4.84,-4.63,-2.68,-2.68,-2.69
207.28,1.92,4.61,1.91,4.61,-4.60,-4.79,-4.68,-2.68,-2.69,-2.69
209.35,1.89,4.60,1.89,4.60,-4.59,-4.75,-4.73,-2.70,-2.70,-2.71
211.44,1.85,4.58,1.85,4.57,-4.57,-4.71,-4.78,-2.72,-2.72,-2.73
213.56,1.82,4.56,1.81,4.55,-4.55,-4.66,-4.83,-2.73,-2.74,-2.74
215.69,1.78,4.52,1.78,4.52,-4.54,-4.62,-4.88,-2.76,-2.75,-2.74
217.85,1.75,4.51,1.75,4.51,-4.52,-4.57,-4.93,-2.77,-2.77,-2.76
220.03,1.73,4.50,1.73,4.50,-4.50,-4.53,-4.97,-2.77,-2.77,-2.77
222.23,1.71,4.50,1.71,4.49,-4.49,-4.49,-5.01,-2.78,-2.78,-2.79
224.45,1.69,4.48,1.69,4.48,-4.47,-4.44,-5.05,-2.79,-2.79,-2.79
226.70,1.66,4.47,1.66,4.47,-4.46,-4.40,-5.09,-2.81,-2.80,-2.81
228.96,1.64,4.46,1.64,4.46,-4.46,-4.36,-5.12,-2.82,-2.82,-2.82
231.25,1.62,4.45,1.61,4.45,-4.45,-4.32,-5.15,-2.83,-2.84,-2.83
233.57,1.59,4.44,1.59,4.44,-4.44,-4.28,-5.17,-2.85,-2.85,-2.85
235.90,1.57,4.43,1.57,4.43,-4.43,-4.24,-5.18,-2.86,-2.86,-2.86
238.26,1.55,4.43,1.55,4.43,-4.42,-4.21,-5.19,-2.87,-2.87,-2.88
240.64,1.53,4.43,1.52,4.42,-4.41,-4.18,-5.20,-2.88,-2.88,-2.90
243.05,1.49,4.40,1.49,4.40,-4.39,-4.15,-5.19,-2.90,-2.90,-2.91
245.48,1.46,4.38,1.46,4.38,-4.38,-4.12,-5.18,-2.92,-2.92,-2.92
247.93,1.42,4.35,1.42,4.35,-4.36,-4.10,-5.16,-2.94,-2.93,-2.93
250.41,1.40,4.34,1.40,4.33,-4.34,-4.08,-5.13,-2.94,-2.94,-2.94
252.92,1.38,4.31,1.38,4.31,-4.31,-4.06,-5.10,-2.93,-2.94,-2.93
255.45,1.36,4.29,1.36,4.29,-4.29,-4.04,-5.05,-2.93,-2.93,-2.93
258.00,1.35,4.27,1.34,4.26,-4.26,-4.03,-5.00,-2.91,-2.92,-2.92
260.58,1.32,4.24,1.32,4.24,-4.23,-4.02,-4.94,-2.91,-2.91,-2.92
263.19,1.30,4.21,1.30,4.20,-4.20,-4.02,-4.87,-2.90,-2.90,-2.91
265.82,1.27,4.17,1.27,4.17,-4.16,-4.02,-4.80,-2.90,-2.89,-2.90
268.48,1.25,4.13,1.25,4.13,-4.13,-4.02,-4.72,-2.88,-2.88,-2.88
271.16,1.24,4.10,1.23,4.09,-4.09,-4.02,-4.63,-2.85,-2.86,-2.86
273.87,1.20,4.05,1.20,4.04,-4.05,-4.02,-4.54,-2.85,-2.85,-2.85
276.61,1.17,3.99,1.17,4.00,-4.01,-4.02,-4.44,-2.84,-2.83,-2.82
279.38,1.14,3.96,1.15,3.96,-3.96,-4.02,-4.34,-2.82,-2.82,-2.82
282.17,1.13,3.93,1.12,3.92,-3.91,-4.01,-4.23,-2.79,-2.79,-2.80
284.99,1.10,3.89,1.09,3.88,-3.87,-3.99,-4.12,-2.77,-2.77,-2.79
287.84,1.06,3.83,1.06,3.83,-3.82,-3.97,-4.01,-2.76,-2.76,-2.77
290.72,1.02,3.77,1.02,3.77,-3.77,-3.94,-3.89,-2.76,-2.76,-2.75
293.63,0.98,3.72,0.98,3.71,-3.73,-3.89,-3.77,-2.75,-2.75,-2.74
296.57,0.95,3.66,0.95,3.67,-3.68,-3.84,-3.65,-2.73,-2.73,-2.71
299.53,0.93,3.63,0.93,3.63,-3.63,-3.77,-3.53,-2.70,-2.70,-2.70
302.53,0.91,3.60,0.91,3.59,-3.58,-3.70,-3.41,-2.67,-2.67,-2.69
305.55,0.88,3.54,0.88,3.54,-3.53,-3.61,-3.29,-2.65,-2.65,-2.66
308.61,0.85,3.49,0.84,3.48,-3.47,-3.52,-3.16,-2.62,-2.63,-2.64
311.69,0.80,3.41,0.81,3.41,-3.41,-3.42,-3.04,-2.61,-2.60,-2.61
314.81,0.77,3.34,0.77,3.35,-3.34,-3.31,-2.91,-2.57,-2.57,-2.57
317.96,0.73,3.29,0.72,3.27,-3.27,-3.21,-2.79,-2.54,-2.55,-2.56
321.14,0.66,3.20,0.66,3.19,-3.19,-3.10,-2.66,-2.53,-2.53,-2.54
324.35,0.59,3.11,0.59,3.11,-3.11,-2.99,-2.54,-2.52,-2.52,-2.52
327.59,0.52,3.02,0.52,3.02,-3.03,-2.89,-2.42,-2.51,-2.51,-2.50
330.87,0.47,2.95,0.46,2.94,-2.95,-2.79,-2.29,-2.48,-2.48,-2.48
334.18,0.41,2.86,0.41,2.86,-2.86,-2.69,-2.17,-2.45,-2.45,-2.45
337.52,0.35,2.78,0.35,2.78,-2.78,-2.59,-2.05,-2.43,-2.42,-2.43
340.90,0.30,2.71,0.29,2.70,-2.69,-2.50,-1.93,-2.39,-2.40,-2.41
344.30,0.23,2.61,0.23,2.61,-2.60,-2.41,-1.82,-2.37,-2.37,-2.38
347.75,0.16,2.52,0.16,2.52,-2.52,-2.33,-1.70,-2.36,-2.35,-2.36
351.23,0.10,2.43,0.09,2.42,-2.43,-2.25,-1.58,-2.33,-2.34,-2.33
354.74,0.03,2.33,0.03,2.33,-2.34,-2.17,-1.47,-2.31,-2.32,-2.30
358.28,-0.04,2.25,-0.03,2.25,-2.25,-2.09,-1.35,-2.30,-2.29,-2.29
361.87,-0.09,2.17,-0.09,2.17,-2.17,-2.02,-1.24,-2.26,-2.26,-2.26
365.49,-0.14,2.09,-0.15,2.09,-2.08,-1.95,-1.13,-2.22,-2.23,-2.23
369.14,-0.21,2.01,-0.21,2.00,-1.99,-1.88,-1.02,-2.20,-2.20,-2.22
372.83,-0.27,1.92,-0.28,1.91,-1.91,-1.82,-0.91,-2.18,-2.19,-2.19
376.56,-0.35,1.82,-0.35,1.82,-1.82,-1.75,-0.80,-2.17,-2.17,-2.17
380.33,-0.42,1.72,-0.41,1.73,-1.74,-1.69,-0.69,-2.16,-2.15,-2.14
384.13,-0.47,1.66,-0.48,1.65,-1.65,-1.63,-0.59,-2.12,-2.13,-2.13
387.97,-0.53,1.58,-0.54,1.57,-1.57,-1.57,-0.48,-2.10,-2.11,-2.11
391.85,-0.61,1.49,-0.61,1.48,-1.48,-1.52,-0.38,-2.09,-2.09,-2.10
395.77,-0.68,1.39,-0.68,1.40,-1.40,-1.46,-0.28,-2.08,-2.08,-2.07
399.73,-0.74,1.32,-0.74,1.32,-1.32,-1.41,-0.18,-2.06,-2.06,-2.06
403.72,-0.80,1.26,-0.81,1.24,-1.24,-1.35,-0.08,-2.05,-2.05,-2.06
407.76,-0.87,1.18,-0.87,1.17,-1.17,-1.30,0.02,-2.04,-2.04,-2.05
411.84,-0.95,1.09,-0.95,1.10,-1.10,-1.25,0.12,-2.05,-2.05,-2.04
415.96,-1.02,1.03,-1.02,1.02,-1.03,-1.19,0.21,-2.05,-2.05,-2.05
420.12,-1.09,0.96,-1.09,0.96,-0.96,-1.14,0.30,-2.06,-2.05,-2.05
424.32,-1.15,0.90,-1.15,0.90,-0.90,-1.09,0.39,-2.05,-2.05,-2.05
428.56,-1.21,0.84,-1.21,0.84,-0.84,-1.04,0.48,-2.05,-2.05,-2.05
432.85,-1.27,0.79,-1.28,0.78,-0.77,-0.98,0.56,-2.04,-2.05,-2.06
437.18,-1.35,0.71,-1.34,0.71,-0.71,-0.93,0.64,-2.06,-2.05,-2.06
441.55,-1.41,0.65,-1.42,0.64,-0.64,-0.88,0.72,-2.05,-2.06,-2.06
445.96,-1.49,0.58,-1.49,0.57,-0.57,-0.82,0.79,-2.06,-2.06,-2.07
450.42,-1.58,0.49,-1.57,0.49,-0.49,-0.76,0.86,-2.07,-2.06,-2.07
454.93,-1.65,0.42,-1.66,0.41,-0.41,-0.71,0.93,-2.06,-2.07,-2.07
459.48,-1.75,0.33,-1.75,0.32,-0.33,-0.65,0.99,-2.08,-2.07,-2.08
464.07,-1.83,0.24,-1.83,0.24,-0.24,-0.59,1.05,-2.08,-2.07,-2.07
468.71,-1.91,0.16,-1.92,0.15,-0.16,-0.53,1.10,-2.07,-2.08,-2.07
473.40,-2.00,0.08,-2.00,0.07,-0.07,-0.46,1.14,-2.07,-2.07,-2.08
478.13,-2.09,-0.02,-2.09,-0.01,0.01,-0.39,1.19,-2.08,-2.07,-2.07
482.91,-2.17,-0.09,-2.17,-0.10,0.10,-0.32,1.22,-2.07,-2.07,-2.08
487.74,-2.25,-0.18,-2.25,-0.18,0.19,-0.25,1.25,-2.07,-2.07,-2.07
492.62,-2.33,-0.27,-2.34,-0.27,0.27,-0.17,1.28,-2.06,-2.06,-2.06
