frequency,raw,error,smoothed,error_smoothed,equalization,parametric_eq,fixed_band_eq,equalized_raw,equalized_smoothed,target
20.00,-6.10,-10.46,-6.10,-10.46,10.47,9.60,4.33,4.37,4.37,4.36
20.20,-6.05,-10.40,-6.05,-10.40,10.41,9.67,4.45,4.36,4.35,4.35
20.40,-6.01,-10.36,-6.01,-10.35,10.35,9.73,4.56,4.34,4.34,4.35
20.61,-5.96,-10.31,-5.96,-10.30,10.29,9.79,4.69,4.33,4.33,4.35
20.81,-5.91,-10.24,-5.91,-10.25,10.23,9.84,4.81,4.33,4.32,4.33
21.02,-5.87,-10.20,-5.87,-10.20,10.18,9.89,4.94,4.32,4.32,4.33
21.23,-5.82,-10.15,-5.82,-10.15,10.14,9.94,5.07,4.32,4.32,4.33
21.44,-5.77,-10.11,-5.77,-10.10,10.10,9.98,5.21,4.33,4.33,4.34
21.66,-5.72,-10.05,-5.72,-10.05,10.06,10.02,5.35,4.34,4.34,4.33
21.87,-5.67,-10.01,-5.67,-10.01,10.02,10.05,5.49,4.35,4.35,4.34
22.09,-5.64,-9.97,-5.64,-9.98,10.00,10.08,5.64,4.36,4.35,4.33
22.31,-5.63,-9.97,-5.63,-9.96,9.97,10.11,5.79,4.34,4.34,4.34
22.54,-5.62,-9.95,-5.62,-9.95,9.94,10.13,5.94,4.33,4.32,4.33
22.76,-5.61,-9.94,-5.61,-9.94,9.92,10.14,6.10,4.31,4.31,4.33
22.99,-5.60,-9.93,-5.59,-9.92,9.89,10.15,6.26,4.29,4.30,4.33
23.22,-5.56,-9.89,-5.56,-9.89,9.87,10.16,6.43,4.31,4.31,4.33
23.45,-5.52,-9.86,-5.52,-9.85,9.85,10.16,6.60,4.33,4.33,4.34
23.69,-5.48,-9.82,-5.47,-9.81,9.83,10.15,6.78,4.35,4.36,4.34
23.92,-5.43,-9.77,-5.44,-9.78,9.82,10.14,6.96,4.39,4.38,4.34
24.16,-5.42,-9.77,-5.42,-9.77,9.80,10.13,7.14,4.38,4.38,4.35
24.40,-5.42,-9.78,-5.42,-9.77,9.78,10.12,7.33,4.36,4.36,4.36
24.65,-5.42,-9.78,-5.42,-9.78,9.75,10.10,7.52,4.33,4.33,4.36
24.89,-5.42,-9.78,-5.41,-9.77,9.73,10.07,7.71,4.31,4.31,4.36
25.14,-5.39,-9.74,-5.38,-9.74,9.70,10.05,7.91,4.31,4.32,4.35
25.39,-5.33,-9.69,-5.33,-9.68,9.68,10.02,8.10,4.35,4.35,4.36
25.65,-5.27,-9.63,-5.27,-9.62,9.65,9.98,8.31,4.38,4.38,4.36
25.91,-5.21,-9.56,-5.22,-9.58,9.62,9.95,8.51,4.41,4.40,4.35
26.16,-5.19,-9.55,-5.19,-9.55,9.59,9.91,8.71,4.40,4.39,4.36
26.43,-5.19,-9.55,-5.19,-9.54,9.55,9.87,8.92,4.36,4.36,4.36
26.69,-5.19,-9.55,-5.19,-9.54,9.51,9.83,9.12,4.32,4.32,4.36
26.96,-5.19,-9.53,-5.18,-9.52,9.48,9.78,9.32,4.29,4.30,4.34
27.23,-5.14,-9.48,-5.13,-9.47,9.44,9.73,9.53,4.30,4.31,4.34
27.50,-5.07,-9.41,-5.07,-9.41,9.41,9.68,9.72,4.34,4.34,4.34
27.77,-5.01,-9.36,-5.01,-9.35,9.38,9.63,9.92,4.37,4.36,4.35
28.05,-4.96,-9.30,-4.97,-9.31,9.35,9.58,10.10,4.39,4.37,4.34
28.33,-4.96,-9.29,-4.96,-9.29,9.32,9.53,10.28,4.36,4.36,4.33
28.62,-4.96,-9.28,-4.95,-9.28,9.30,9.48,10.45,4.34,4.34,4.32
28.90,-4.96,-9.29,-4.96,-9.28,9.28,9.42,10.61,4.32,4.32,4.33
29.19,-4.96,-9.28,-4.96,-9.27,9.26,9.37,10.76,4.30,4.30,4.32
29.48,-4.96,-9.26,-4.96,-9.27,9.24,9.32,10.90,4.28,4.28,4.30
29.78,-4.96,-9.26,-4.96,-9.25,9.21,9.26,11.01,4.25,4.26,4.30
30.08,-4.94,-9.24,-4.93,-9.22,9.18,9.21,11.12,4.24,4.25,4.30
30.38,-4.87,-9.15,-4.87,-9.15,9.13,9.15,11.20,4.26,4.27,4.28
30.68,-4.80,-9.07,-4.80,-9.07,9.09,9.10,11.26,4.29,4.29,4.27
30.99,-4.73,-8.99,-4.75,-9.01,9.05,9.05,11.31,4.32,4.30,4.26
31.30,-4.73,-8.98,-4.73,-8.97,9.01,8.99,11.33,4.28,4.28,4.25
31.61,-4.73,-8.97,-4.72,-8.96,8.98,8.94,11.34,4.25,4.25,4.24
31.93,-4.73,-8.95,-4.73,-8.96,8.96,8.89,11.32,4.23,4.23,4.22
32.24,-4.73,-8.96,-4.73,-8.95,8.95,8.84,11.28,4.22,4.22,4.23
32.57,-4.73,-8.94,-4.73,-8.94,8.95,8.79,11.23,4.22,4.22,4.21
32.89,-4.73,-8.94,-4.73,-8.94,8.94,8.74,11.16,4.21,4.21,4.21
33.22,-4.73,-8.94,-4.73,-8.94,8.93,8.70,11.07,4.20,4.19,4.21
33.55,-4.73,-8.93,-4.73,-8.94,8.90,8.65,10.97,4.18,4.17,4.20
33.89,-4.73,-8.94,-4.72,-8.92,8.87,8.61,10.86,4.15,4.16,4.21
34.23,-4.68,-8.87,-4.67,-8.86,8.84,8.56,10.73,4.16,4.17,4.19
34.57,-4.60,-8.80,-4.60,-8.80,8.80,8.52,10.60,4.20,4.20,4.20
34.92,-4.52,-8.71,-4.54,-8.73,8.76,8.48,10.46,4.24,4.23,4.19
35.27,-4.50,-8.70,-4.50,-8.69,8.73,8.44,10.31,4.23,4.23,4.20
35.62,-4.50,-8.67,-4.49,-8.67,8.70,8.41,10.16,4.20,4.20,4.17
35.97,-4.50,-8.67,-4.50,-8.66,8.67,8.37,10.01,4.17,4.18,4.17
36.33,-4.50,-8.66,-4.50,-8.65,8.65,8.34,9.85,4.16,4.16,4.16
36.70,-4.50,-8.64,-4.50,-8.64,8.64,8.30,9.70,4.14,4.14,4.14
37.06,-4.50,-8.62,-4.50,-8.62,8.61,8.27,9.54,4.11,4.11,4.12
37.43,-4.50,-8.61,-4.51,-8.61,8.57,8.24,9.38,4.07,4.07,4.11
37.81,-4.50,-8.58,-4.49,-8.57,8.53,8.22,9.23,4.03,4.04,4.08
38.19,-4.46,-8.52,-4.44,-8.50,8.47,8.19,9.08,4.01,4.03,4.06
38.57,-4.37,-8.41,-4.37,-8.41,8.41,8.16,8.93,4.04,4.03,4.04
38.95,-4.29,-8.30,-4.31,-8.31,8.35,8.14,8.79,4.06,4.03,4.01
39.34,-4.28,-8.24,-4.28,-8.24,8.29,8.12,8.65,4.01,4.01,3.96
39.74,-4.28,-8.21,-4.27,-8.20,8.23,8.10,8.51,3.95,3.96,3.93
40.14,-4.28,-8.18,-4.28,-8.18,8.18,8.07,8.38,3.90,3.90,3.90
40.54,-4.28,-8.16,-4.28,-8.15,8.14,8.06,8.25,3.86,3.86,3.88
40.94,-4.28,-8.12,-4.28,-8.12,8.11,8.04,8.13,3.83,3.83,3.84
41.35,-4.28,-8.10,-4.28,-8.10,8.09,8.02,8.01,3.81,3.81,3.82
41.76,-4.28,-8.07,-4.28,-8.07,8.07,8.00,7.90,3.79,3.79,3.79
42.18,-4.28,-8.05,-4.28,-8.04,8.04,7.98,7.79,3.76,3.76,3.77
42.60,-4.28,-8.02,-4.28,-8.02,8.02,7.97,7.69,3.74,3.74,3.74
43.03,-4.28,-7.99,-4.28,-7.99,8.00,7.95,7.60,3.72,3.72,3.71
43.46,-4.28,-7.96,-4.28,-7.96,7.97,7.93,7.51,3.69,3.69,3.68
43.90,-4.28,-7.94,-4.28,-7.93,7.94,7.92,7.42,3.66,3.66,3.66
44.33,-4.28,-7.90,-4.28,-7.90,7.90,7.90,7.34,3.62,3.62,3.62
44.78,-4.28,-7.87,-4.28,-7.87,7.85,7.88,7.27,3.57,3.57,3.59
45.23,-4.26,-7.84,-4.26,-7.82,7.79,7.86,7.20,3.53,3.53,3.58
45.68,-4.23,-7.76,-4.23,-7.76,7.73,7.85,7.13,3.50,3.50,3.53
46.13,-4.19,-7.68,-4.17,-7.67,7.66,7.83,7.08,3.47,3.49,3.49
46.60,-4.11,-7.57,-4.12,-7.57,7.59,7.80,7.02,3.48,3.48,3.46
47.06,-4.05,-7.48,-4.07,-7.50,7.53,7.78,6.97,3.48,3.46,3.43
47.53,-4.05,-7.45,-4.04,-7.43,7.46,7.76,6.93,3.41,3.41,3.40
48.01,-4.05,-7.39,-4.04,-7.39,7.40,7.73,6.89,3.35,3.35,3.34
48.49,-4.05,-7.35,-4.05,-7.35,7.34,7.70,6.85,3.29,3.29,3.30
48.97,-4.05,-7.31,-4.05,-7.30,7.29,7.67,6.82,3.24,3.24,3.26
49.46,-4.05,-7.27,-4.05,-7.26,7.25,7.64,6.79,3.20,3.20,3.22
49.96,-4.05,-7.21,-4.05,-7.21,7.21,7.60,6.77,3.16,3.16,3.16
50.46,-4.05,-7.17,-4.05,-7.17,7.18,7.56,6.75,3.13,3.13,3.12
50.96,-4.05,-7.14,-4.05,-7.13,7.14,7.52,6.73,3.09,3.09,3.09
51.47,-4.05,-7.10,-4.05,-7.09,7.09,7.47,6.72,3.04,3.04,3.05
51.99,-4.05,-7.05,-4.05,-7.05,7.05,7.43,6.70,3.00,3.00,3.00
52.51,-4.05,-7.01,-4.05,-7.01,7.00,7.38,6.69,2.95,2.95,2.96
53.03,-4.05,-6.98,-4.05,-6.96,6.96,7.32,6.68,2.91,2.91,2.93
53.56,-4.05,-6.91,-4.05,-6.92,6.92,7.27,6.67,2.87,2.87,2.86
54.10,-4.05,-6.86,-4.05,-6.86,6.88,7.21,6.67,2.83,2.83,2.81
54.64,-4.05,-6.82,-4.05,-6.81,6.83,7.14,6.66,2.78,2.78,2.77
55.18,-4.05,-6.76,-4.05,-6.76,6.77,7.08,6.65,2.72,2.72,2.71
55.74,-4.05,-6.71,-4.06,-6.72,6.70,7.01,6.64,2.65,2.64,2.66
56.29,-4.05,-6.67,-4.06,-6.68,6.63,6.94,6.64,2.58,2.57,2.62
56.86,-4.05,-6.64,-4.01,-6.59,6.55,6.86,6.62,2.50,2.54,2.59
57.42,-3.95,-6.48,-3.94,-6.47,6.48,6.78,6.61,2.53,2.54,2.53
58.00,-3.82,-6.31,-3.87,-6.36,6.40,6.70,6.59,2.58,2.53,2.49
58.58,-3.82,-6.28,-3.82,-6.27,6.33,6.62,6.57,2.51,2.51,2.46
59.16,-3.82,-6.25,-3.81,-6.23,6.25,6.54,6.55,2.43,2.44,2.43
59.76,-3.82,-6.20,-3.82,-6.19,6.18,6.45,6.52,2.36,2.36,2.38
60.35,-3.82,-6.13,-3.82,-6.14,6.11,6.36,6.49,2.29,2.29,2.31
60.96,-3.82,-6.08,-3.82,-6.07,6.06,6.27,6.46,2.24,2.24,2.26
61.57,-3.82,-6.01,-3.82,-6.01,6.00,6.18,6.42,2.18,2.18,2.19
62.18,-3.82,-5.94,-3.82,-5.94,5.95,6.08,6.37,2.13,2.13,2.12
62.80,-3.82,-5.89,-3.82,-5.88,5.89,5.99,6.32,2.07,2.07,2.07
63.43,-3.82,-5.83,-3.82,-5.83,5.83,5.89,6.26,2.01,2.01,2.01
64.07,-3.82,-5.78,-3.82,-5.78,5.77,5.80,6.20,1.95,1.95,1.96
64.71,-3.82,-5.73,-3.82,-5.72,5.72,5.70,6.13,1.90,1.90,1.91
65.35,-3.82,-5.66,-3.82,-5.66,5.66,5.60,6.06,1.84,1.84,1.84
66.01,-3.82,-5.60,-3.82,-5.60,5.60,5.50,5.98,1.78,1.78,1.78
66.67,-3.82,-5.55,-3.82,-5.54,5.54,5.41,5.90,1.72,1.72,1.73
67.33,-3.82,-5.48,-3.82,-5.48,5.48,5.31,5.82,1.66,1.66,1.66
68.01,-3.82,-5.43,-3.82,-5.42,5.42,5.21,5.73,1.60,1.60,1.61
68.69,-3.82,-5.36,-3.82,-5.36,5.36,5.11,5.63,1.54,1.54,1.54
69.37,-3.82,-5.31,-3.82,-5.30,5.30,5.01,5.54,1.48,1.48,1.49
70.07,-3.82,-5.24,-3.82,-5.24,5.23,4.92,5.44,1.41,1.41,1.42
70.77,-3.82,-5.18,-3.82,-5.17,5.17,4.82,5.34,1.35,1.35,1.36
71.48,-3.82,-5.10,-3.82,-5.10,5.10,4.72,5.24,1.28,1.28,1.28
72.19,-3.82,-5.04,-3.82,-5.04,5.04,4.63,5.13,1.22,1.22,1.22
72.91,-3.82,-4.98,-3.82,-4.97,4.97,4.53,5.03,1.15,1.15,1.16
73.64,-3.82,-4.90,-3.82,-4.90,4.91,4.44,4.92,1.09,1.09,1.08
74.38,-3.82,-4.84,-3.82,-4.84,4.85,4.35,4.82,1.03,1.03,1.02
75.12,-3.82,-4.78,-3.82,-4.78,4.79,4.25,4.71,0.97,0.97,0.96
75.87,-3.82,-4.75,-3.82,-4.73,4.73,4.16,4.61,0.91,0.91,0.93
76.63,-3.82,-4.68,-3.82,-4.68,4.68,4.07,4.51,0.86,0.86,0.86
77.40,-3.82,-4.63,-3.82,-4.63,4.63,3.98,4.40,0.81,0.81,0.81
78.17,-3.82,-4.58,-3.82,-4.58,4.58,3.90,4.30,0.76,0.76,0.76
78.95,-3.82,-4.54,-3.82,-4.53,4.53,3.81,4.20,0.71,0.71,0.72
79.74,-3.82,-4.48,-3.82,-4.48,4.48,3.73,4.10,0.66,0.66,0.66
80.54,-3.82,-4.43,-3.82,-4.43,4.43,3.64,4.01,0.61,0.61,0.61
81.35,-3.82,-4.38,-3.82,-4.38,4.38,3.56,3.91,0.56,0.56,0.56
82.16,-3.82,-4.34,-3.82,-4.33,4.33,3.48,3.82,0.52,0.52,0.52
82.98,-3.82,-4.28,-3.82,-4.28,4.28,3.40,3.73,0.47,0.47,0.46
83.81,-3.82,-4.22,-3.82,-4.22,4.23,3.32,3.64,0.41,0.41,0.40
84.65,-3.82,-4.16,-3.82,-4.15,4.16,3.24,3.55,0.34,0.34,0.34
85.50,-3.82,-4.09,-3.82,-4.10,4.08,3.17,3.47,0.26,0.25,0.27
86.35,-3.82,-4.03,-3.83,-4.04,3.99,3.09,3.39,0.17,0.16,0.21
87.22,-3.81,-3.96,-3.79,-3.93,3.89,3.02,3.31,0.08,0.10,0.15
88.09,-3.75,-3.83,-3.72,-3.80,3.79,2.95,3.23,0.04,0.07,0.08
88.97,-3.60,-3.62,-3.65,-3.66,3.69,2.88,3.16,0.09,0.04,0.02
89.86,-3.59,-3.54,-3.59,-3.54,3.59,2.81,3.08,0.01,0.00,-0.05
90.76,-3.59,-3.47,-3.58,-3.46,3.50,2.74,3.01,-0.09,-0.07,-0.12
91.66,-3.59,-3.41,-3.59,-3.40,3.41,2.67,2.95,-0.18,-0.18,-0.18
92.58,-3.59,-3.35,-3.59,-3.34,3.33,2.61,2.88,-0.26,-0.26,-0.24
93.51,-3.59,-3.28,-3.59,-3.28,3.26,2.54,2.82,-0.33,-0.33,-0.31
94.44,-3.59,-3.22,-3.59,-3.21,3.19,2.48,2.76,-0.40,-0.40,-0.37
95.39,-3.59,-3.14,-3.59,-3.14,3.13,2.41,2.70,-0.46,-0.46,-0.45
96.34,-3.59,-3.06,-3.59,-3.06,3.06,2.35,2.64,-0.53,-0.53,-0.53
97.30,-3.59,-3.00,-3.59,-2.99,2.99,2.29,2.58,-0.60,-0.60,-0.59
98.28,-3.59,-2.91,-3.59,-2.91,2.92,2.23,2.53,-0.67,-0.67,-0.68
99.26,-3.59,-2.84,-3.59,-2.84,2.85,2.17,2.48,-0.74,-0.74,-0.75
100.25,-3.59,-2.78,-3.59,-2.77,2.78,2.12,2.43,-0.81,-0.81,-0.81
101.25,-3.59,-2.72,-3.59,-2.71,2.71,2.06,2.38,-0.88,-0.88,-0.87
102.27,-3.59,-2.65,-3.59,-2.65,2.65,2.00,2.33,-0.94,-0.94,-0.94
103.29,-3.59,-2.59,-3.59,-2.59,2.59,1.95,2.29,-1.00,-1.00,-1.00
104.32,-3.59,-2.54,-3.59,-2.53,2.53,1.90,2.24,-1.06,-1.06,-1.05
105.37,-3.59,-2.48,-3.59,-2.47,2.47,1.84,2.20,-1.12,-1.12,-1.11
106.42,-3.59,-2.42,-3.59,-2.42,2.42,1.79,2.16,-1.17,-1.17,-1.17
107.48,-3.59,-2.35,-3.59,-2.36,2.36,1.74,2.11,-1.23,-1.23,-1.24
108.56,-3.59,-2.31,-3.59,-2.30,2.30,1.69,2.07,-1.29,-1.29,-1.28
109.64,-3.59,-2.25,-3.59,-2.24,2.25,1.64,2.03,-1.34,-1.34,-1.34
110.74,-3.59,-2.19,-3.59,-2.19,2.19,1.59,1.99,-1.40,-1.40,-1.40
111.85,-3.59,-2.13,-3.59,-2.13,2.13,1.54,1.96,-1.46,-1.46,-1.46
112.97,-3.59,-2.08,-3.59,-2.07,2.07,1.50,1.92,-1.52,-1.52,-1.51
114.10,-3.59,-2.02,-3.59,-2.01,2.01,1.45,1.88,-1.58,-1.58,-1.57
115.24,-3.59,-1.95,-3.59,-1.95,1.95,1.40,1.84,-1.64,-1.64,-1.64
116.39,-3.59,-1.88,-3.59,-1.88,1.88,1.36,1.80,-1.71,-1.71,-1.71
117.55,-3.59,-1.82,-3.59,-1.81,1.82,1.31,1.76,-1.77,-1.77,-1.77
118.73,-3.59,-1.75,-3.59,-1.75,1.75,1.27,1.72,-1.84,-1.84,-1.84
119.92,-3.59,-1.68,-3.59,-1.68,1.69,1.23,1.69,-1.90,-1.90,-1.91
121.12,-3.59,-1.63,-3.59,-1.62,1.62,1.18,1.65,-1.97,-1.97,-1.96
122.33,-3.59,-1.55,-3.59,-1.56,1.55,1.14,1.61,-2.03,-2.03,-2.04
123.55,-3.59,-1.50,-3.59,-1.49,1.49,1.10,1.57,-2.10,-2.10,-2.09
124.79,-3.59,-1.43,-3.59,-1.42,1.42,1.06,1.52,-2.17,-2.17,-2.16
126.03,-3.59,-1.36,-3.59,-1.36,1.36,1.02,1.48,-2.23,-2.23,-2.23
127.29,-3.59,-1.29,-3.59,-1.29,1.29,0.98,1.44,-2.30,-2.30,-2.30
128.57,-3.59,-1.23,-3.59,-1.22,1.22,0.94,1.40,-2.37,-2.37,-2.36
129.85,-3.59,-1.15,-3.59,-1.15,1.15,0.90,1.35,-2.44,-2.44,-2.44
131.15,-3.59,-1.09,-3.59,-1.09,1.09,0.86,1.31,-2.50,-2.50,-2.50
132.46,-3.59,-1.02,-3.59,-1.02,1.02,0.82,1.26,-2.57,-2.57,-2.57
133.79,-3.59,-0.96,-3.59,-0.95,0.96,0.78,1.21,-2.63,-2.63,-2.63
135.12,-3.59,-0.89,-3.59,-0.90,0.90,0.74,1.17,-2.69,-2.69,-2.70
136.48,-3.59,-0.85,-3.59,-0.84,0.84,0.70,1.12,-2.75,-2.75,-2.74
137.84,-3.59,-0.79,-3.59,-0.78,0.78,0.66,1.07,-2.81,-2.81,-2.80
139.22,-3.59,-0.72,-3.59,-0.73,0.72,0.63,1.02,-2.87,-2.87,-2.87
140.61,-3.59,-0.67,-3.59,-0.67,0.67,0.59,0.97,-2.92,-2.92,-2.92
142.02,-3.59,-0.62,-3.59,-0.61,0.62,0.55,0.92,-2.97,-2.97,-2.97
143.44,-3.59,-0.56,-3.59,-0.56,0.56,0.51,0.87,-3.03,-3.03,-3.03
144.87,-3.59,-0.52,-3.59,-0.51,0.51,0.48,0.82,-3.08,-3.08,-3.07
146.32,-3.59,-0.47,-3.59,-0.46,0.46,0.44,0.77,-3.13,-3.13,-3.12
147.78,-3.59,-0.41,-3.59,-0.41,0.41,0.40,0.71,-3.18,-3.18,-3.18
149.26,-3.59,-0.37,-3.59,-0.36,0.36,0.37,0.66,-3.23,-3.23,-3.22
150.75,-3.59,-0.31,-3.59,-0.31,0.32,0.33,0.61,-3.27,-3.27,-3.28
152.26,-3.59,-0.28,-3.59,-0.27,0.27,0.29,0.55,-3.32,-3.32,-3.31
153.78,-3.59,-0.22,-3.59,-0.22,0.22,0.26,0.50,-3.37,-3.37,-3.37
155.32,-3.59,-0.18,-3.59,-0.18,0.17,0.22,0.45,-3.42,-3.42,-3.41
156.88,-3.59,-0.13,-3.59,-0.13,0.12,0.19,0.39,-3.47,-3.47,-3.46
158.44,-3.59,-0.08,-3.59,-0.08,0.07,0.15,0.34,-3.51,-3.51,-3.51
160.03,-3.59,-0.03,-3.59,-0.03,0.03,0.11,0.28,-3.56,-3.56,-3.56
161.63,-3.59,0.02,-3.59,0.03,-0.02,0.08,0.23,-3.61,-3.61,-3.61
163.24,-3.59,0.08,-3.59,0.08,-0.07,0.04,0.17,-3.66,-3.66,-3.67
164.88,-3.59,0.12,-3.59,0.13,-0.12,0.00,0.12,-3.71,-3.71,-3.71
166.53,-3.59,0.18,-3.59,0.17,-0.17,-0.03,0.06,-3.76,-3.76,-3.77
168.19,-3.59,0.21,-3.59,0.22,-0.22,-0.07,0.00,-3.81,-3.81,-3.80
169.87,-3.59,0.26,-3.59,0.27,-0.27,-0.11,-0.05,-3.86,-3.86,-3.85
171.57,-3.59,0.32,-3.59,0.32,-0.32,-0.15,-0.11,-3.91,-3.91,-3.91
173.29,-3.59,0.37,-3.59,0.37,-0.37,-0.18,-0.17,-3.96,-3.96,-3.96
175.02,-3.59,0.42,-3.59,0.42,-0.42,-0.22,-0.22,-4.01,-4.01,-4.01
176.77,-3.59,0.47,-3.59,0.47,-0.48,-0.26,-0.28,-4.06,-4.06,-4.06
178.54,-3.59,0.52,-3.59,0.53,-0.53,-0.30,-0.34,-4.12,-4.12,-4.11
180.32,-3.59,0.58,-3.59,0.58,-0.58,-0.33,-0.40,-4.17,-4.17,-4.17
182.13,-3.59,0.63,-3.59,0.63,-0.63,-0.37,-0.46,-4.22,-4.22,-4.22
183.95,-3.59,0.68,-3.59,0.69,-0.68,-0.41,-0.51,-4.27,-4.27,-4.27
185.79,-3.59,0.74,-3.59,0.74,-0.73,-0.45,-0.57,-4.32,-4.32,-4.33
187.65,-3.59,0.78,-3.59,0.79,-0.78,-0.49,-0.63,-4.37,-4.37,-4.37
189.52,-3.59,0.83,-3.59,0.83,-0.83,-0.53,-0.69,-4.42,-4.42,-4.42
191.42,-3.59,0.87,-3.59,0.88,-0.88,-0.57,-0.75,-4.47,-4.47,-4.46
193.33,-3.59,0.92,-3.59,0.93,-0.93,-0.61,-0.81,-4.52,-4.52,-4.51
195.27,-3.59,0.97,-3.59,0.97,-0.97,-0.65,-0.87,-4.56,-4.56,-4.56
197.22,-3.59,1.02,-3.59,1.02,-1.01,-0.69,-0.93,-4.60,-4.60,-4.61
199.19,-3.59,1.05,-3.59,1.06,-1.05,-0.73,-0.99,-4.64,-4.64,-4.64
201.18,-3.59,1.10,-3.59,1.10,-1.09,-0.77,-1.05,-4.68,-4.68,-4.69
203.19,-3.59,1.13,-3.59,1.13,-1.13,-0.81,-1.11,-4.72,-4.72,-4.72
205.23,-3.59,1.16,-3.59,1.16,-1.17,-0.85,-1.17,-4.76,-4.76,-4.75
207.28,-3.59,1.19,-3.59,1.20,-1.20,-0.89,-1.23,-4.79,-4.79,-4.78
209.35,-3.59,1.23,-3.59,1.23,-1.24,-0.94,-1.29,-4.82,-4.82,-4.82
211.44,-3.59,1.27,-3.59,1.27,-1.27,-0.98,-1.35,-4.86,-4.86,-4.86
213.56,-3.59,1.30,-3.59,1.30,-1.30,-1.02,-1.40,-4.89,-4.89,-4.89
215.69,-3.59,1.33,-3.59,1.33,-1.34,-1.06,-1.46,-4.92,-4.92,-4.92
217.85,-3.59,1.36,-3.59,1.37,-1.37,-1.10,-1.51,-4.96,-4.96,-4.95
220.03,-3.59,1.40,-3.59,1.40,-1.40,-1.14,-1.57,-4.99,-4.99,-4.99
222.23,-3.59,1.43,-3.59,1.43,-1.43,-1.19,-1.62,-5.02,-5.02,-5.02
224.45,-3.59,1.46,-3.59,1.47,-1.46,-1.23,-1.67,-5.05,-5.05,-5.05
226.70,-3.59,1.49,-3.59,1.49,-1.49,-1.27,-1.71,-5.08,-5.08,-5.08
228.96,-3.59,1.52,-3.59,1.52,-1.52,-1.31,-1.76,-5.11,-5.11,-5.11
231.25,-3.59,1.54,-3.59,1.55,-1.55,-1.35,-1.80,-5.14,-5.14,-5.13
233.57,-3.59,1.57,-3.59,1.57,-1.57,-1.39,-1.84,-5.16,-5.16,-5.16
235.90,-3.59,1.59,-3.59,1.60,-1.60,-1.43,-1.87,-5.19,-5.19,-5.18
238.26,-3.59,1.63,-3.59,1.62,-1.62,-1.47,-1.91,-5.21,-5.21,-5.22
240.64,-3.59,1.63,-3.59,1.64,-1.64,-1.51,-1.94,-5.23,-5.23,-5.22
243.05,-3.59,1.65,-3.59,1.66,-1.66,-1.55,-1.96,-5.25,-5.25,-5.24
245.48,-3.59,1.68,-3.59,1.68,-1.68,-1.58,-1.99,-5.27,-5.27,-5.27
247.93,-3.59,1.70,-3.59,1.70,-1.70,-1.62,-2.01,-5.29,-5.29,-5.29
250.41,-3.59,1.70,-3.59,1.71,-1.71,-1.65,-2.02,-5.30,-5.30,-5.29
252.92,-3.59,1.72,-3.59,1.73,-1.73,-1.69,-2.03,-5.32,-5.32,-5.31
255.45,-3.59,1.74,-3.59,1.74,-1.74,-1.72,-2.04,-5.33,-5.33,-5.33
258.00,-3.59,1.76,-3.59,1.76,-1.76,-1.75,-2.05,-5.35,-5.35,-5.35
260.58,-3.59,1.77,-3.59,1.77,-1.77,-1.78,-2.05,-5.36,-5.36,-5.36
263.19,-3.59,1.78,-3.59,1.78,-1.78,-1.81,-2.05,-5.37,-5.37,-5.37
265.82,-3.59,1.79,-3.59,1.79,-1.79,-1.84,-2.04,-5.38,-5.38,-5.38
268.48,-3.59,1.79,-3.59,1.79,-1.80,-1.86,-2.03,-5.39,-5.39,-5.38
271.16,-3.59,1.79,-3.59,1.80,-1.80,-1.89,-2.02,-5.39,-5.39,-5.38
273.87,-3.59,1.80,-3.59,1.80,-1.81,-1.91,-2.01,-5.40,-5.40,-5.39
276.61,-3.59,1.81,-3.59,1.82,-1.82,-1.93,-2.00,-5.40,-5.40,-5.40
279.38,-3.59,1.83,-3.59,1.83,-1.82,-1.95,-1.98,-5.41,-5.41,-5.42
282.17,-3.59,1.83,-3.59,1.83,-1.82,-1.97,-1.96,-5.41,-5.41,-5.42
284.99,-3.59,1.82,-3.59,1.83,-1.83,-1.98,-1.94,-5.42,-5.42,-5.41
287.84,-3.59,1.82,-3.59,1.83,-1.83,-1.99,-1.92,-5.42,-5.42,-5.41
290.72,-3.59,1.83,-3.59,1.82,-1.83,-2.00,-1.90,-5.42,-5.42,-5.42
293.63,-3.59,1.82,-3.59,1.83,-1.83,-2.01,-1.87,-5.42,-5.42,-5.41
296.57,-3.59,1.82,-3.59,1.83,-1.82,-2.02,-1.85,-5.41,-5.41,-5.41
299.53,-3.59,1.83,-3.59,1.82,-1.82,-2.02,-1.82,-5.41,-5.41,-5.42
302.53,-3.59,1.81,-3.59,1.82,-1.82,-2.03,-1.80,-5.41,-5.41,-5.40
305.55,-3.59,1.82,-3.59,1.82,-1.82,-2.03,-1.77,-5.41,-5.41,-5.41
308.61,-3.59,1.81,-3.59,1.82,-1.82,-2.03,-1.75,-5.41,-5.41,-5.40
311.69,-3.59,1.82,-3.59,1.82,-1.82,-2.03,-1.72,-5.41,-5.41,-5.41
314.81,-3.59,1.81,-3.59,1.82,-1.82,-2.02,-1.70,-5.41,-5.41,-5.40
317.96,-3.59,1.82,-3.59,1.82,-1.82,-2.02,-1.67,-5.41,-5.41,-5.41
321.14,-3.59,1.81,-3.59,1.82,-1.81,-2.01,-1.65,-5.40,-5.40,-5.40
324.35,-3.59,1.82,-3.59,1.81,-1.81,-2.00,-1.62,-5.40,-5.40,-5.41
327.59,-3.59,1.79,-3.59,1.81,-1.81,-1.99,-1.60,-5.40,-5.40,-5.38
330.87,-3.59,1.80,-3.59,1.80,-1.80,-1.98,-1.58,-5.39,-5.39,-5.39
334.18,-3.59,1.80,-3.59,1.80,-1.80,-1.97,-1.56,-5.39,-5.39,-5.39
337.52,-3.59,1.79,-3.59,1.79,-1.79,-1.96,-1.54,-5.38,-5.38,-5.38
340.90,-3.59,1.78,-3.59,1.78,-1.78,-1.94,-1.52,-5.37,-5.37,-5.37
344.30,-3.59,1.77,-3.59,1.78,-1.78,-1.93,-1.51,-5.37,-5.37,-5.36
347.75,-3.59,1.76,-3.59,1.77,-1.77,-1.91,-1.49,-5.36,-5.36,-5.35
351.23,-3.59,1.77,-3.59,1.76,-1.76,-1.90,-1.47,-5.35,-5.35,-5.36
354.74,-3.59,1.74,-3.59,1.75,-1.75,-1.88,-1.46,-5.34,-5.34,-5.33
358.28,-3.59,1.74,-3.59,1.75,-1.75,-1.86,-1.45,-5.33,-5.33,-5.33
361.87,-3.59,1.74,-3.59,1.74,-1.74,-1.85,-1.44,-5.33,-5.33,-5.33
365.49,-3.59,1.73,-3.59,1.73,-1.73,-1.83,-1.43,-5.32,-5.32,-5.32
369.14,-3.59,1.72,-3.59,1.73,-1.73,-1.81,-1.42,-5.31,-5.31,-5.31
372.83,-3.59,1.71,-3.59,1.72,-1.72,-1.80,-1.41,-5.31,-5.31,-5.30
376.56,-3.59,1.72,-3.59,1.72,-1.72,-1.78,-1.40,-5.31,-5.31,-5.31
380.33,-3.59,1.71,-3.59,1.71,-1.71,-1.76,-1.40,-5.30,-5.30,-5.30
384.13,-3.59,1.70,-3.59,1.71,-1.71,-1.74,-1.39,-5.30,-5.30,-5.29
387.97,-3.59,1.70,-3.59,1.70,-1.70,-1.73,-1.39,-5.29,-5.29,-5.29
391.85,-3.59,1.70,-3.59,1.71,-1.69,-1.71,-1.38,-5.28,-5.28,-5.29
395.77,-3.59,1.71,-3.59,1.71,-1.69,-1.69,-1.38,-5.27,-5.27,-5.30
399.73,-3.59,1.70,-3.59,1.70,-1.68,-1.68,-1.38,-5.27,-5.27,-5.29
403.72,-3.59,1.68,-3.59,1.69,-1.69,-1.66,-1.38,-5.28,-5.28,-5.27
407.76,-3.59,1.68,-3.61,1.66,-1.71,-1.64,-1.38,-5.30,-5.32,-5.27
411.84,-3.59,1.67,-3.59,1.68,-1.73,-1.63,-1.39,-5.32,-5.32,-5.26
415.96,-3.59,1.66,-3.53,1.73,-1.75,-1.62,-1.39,-5.34,-5.28,-5.25
420.12,-3.41,1.84,-3.45,1.79,-1.78,-1.60,-1.39,-5.19,-5.23,-5.25
424.32,-3.36,1.87,-3.38,1.85,-1.80,-1.59,-1.40,-5.16,-5.19,-5.23
428.56,-3.36,1.85,-3.34,1.87,-1.82,-1.57,-1.40,-5.18,-5.17,-5.21
432.85,-3.36,1.84,-3.35,1.85,-1.84,-1.56,-1.41,-5.20,-5.19,-5.20
437.18,-3.36,1.83,-3.36,1.84,-1.84,-1.55,-1.41,-5.20,-5.20,-5.19
441.55,-3.36,1.83,-3.36,1.83,-1.84,-1.54,-1.42,-5.20,-5.20,-5.19
445.96,-3.36,1.81,-3.36,1.82,-1.83,-1.53,-1.43,-5.18,-5.18,-5.17
450.42,-3.36,1.80,-3.36,1.80,-1.81,-1.52,-1.43,-5.17,-5.17,-5.16
454.93,-3.36,1.78,-3.36,1.79,-1.79,-1.51,-1.44,-5.15,-5.15,-5.14
459.48,-3.36,1.77,-3.36,1.77,-1.77,-1.50,-1.45,-5.13,-5.13,-5.13
464.07,-3.36,1.75,-3.36,1.75,-1.75,-1.49,-1.46,-5.11,-5.11,-5.11
