frequency,raw,error,smoothed,error_smoothed,equalization,parametric_eq,fixed_band_eq,equalized_raw,equalized_smoothed,target
20.00,6.96,-5.33,6.96,-5.33,5.33,5.03,1.63,12.29,12.29,12.29
20.20,7.01,-5.27,7.01,-5.27,5.27,5.00,1.68,12.28,12.28,12.28
20.40,7.06,-5.21,7.06,-5.21,5.21,4.96,1.73,12.27,12.27,12.27
20.61,7.11,-5.15,7.11,-5.15,5.14,4.93,1.78,12.25,12.25,12.26
20.81,7.16,-5.08,7.16,-5.08,5.08,4.89,1.83,12.24,12.24,12.24
21.02,7.22,-5.01,7.22,-5.02,5.02,4.85,1.88,12.24,12.24,12.23
21.23,7.27,-4.95,7.27,-4.95,4.96,4.82,1.94,12.23,12.23,12.22
21.44,7.32,-4.91,7.32,-4.90,4.90,4.78,2.00,12.22,12.22,12.23
21.66,7.38,-4.83,7.38,-4.84,4.83,4.74,2.06,12.21,12.21,12.21
21.87,7.43,-4.78,7.43,-4.78,4.77,4.70,2.12,12.20,12.20,12.21
22.09,7.48,-4.71,7.48,-4.71,4.71,4.66,2.18,12.19,12.19,12.19
22.31,7.53,-4.65,7.53,-4.65,4.65,4.62,2.24,12.18,12.18,12.18
22.54,7.58,-4.59,7.58,-4.59,4.59,4.58,2.31,12.17,12.17,12.17
22.76,7.64,-4.53,7.64,-4.53,4.53,4.54,2.38,12.17,12.17,12.17
22.99,7.69,-4.47,7.69,-4.47,4.47,4.49,2.44,12.16,12.16,12.16
23.22,7.74,-4.41,7.74,-4.42,4.42,4.45,2.51,12.16,12.16,12.15
23.45,7.79,-4.37,7.79,-4.36,4.36,4.41,2.59,12.15,12.15,12.16
23.69,7.84,-4.31,7.84,-4.31,4.31,4.36,2.66,12.15,12.15,12.15
23.92,7.89,-4.25,7.89,-4.26,4.25,4.32,2.73,12.14,12.14,12.14
24.16,7.94,-4.21,7.94,-4.20,4.20,4.27,2.81,12.14,12.14,12.15
24.40,8.00,-4.15,8.00,-4.15,4.15,4.23,2.89,12.15,12.14,12.15
24.65,8.05,-4.09,8.05,-4.09,4.09,4.18,2.97,12.14,12.14,12.14
24.89,8.10,-4.04,8.10,-4.04,4.04,4.13,3.04,12.14,12.14,12.14
25.14,8.15,-3.98,8.15,-3.98,3.99,4.09,3.12,12.14,12.14,12.13
25.39,8.20,-3.93,8.20,-3.93,3.94,4.04,3.20,12.14,12.13,12.13
25.65,8.24,-3.89,8.24,-3.89,3.89,3.99,3.28,12.13,12.13,12.13
25.91,8.29,-3.84,8.29,-3.84,3.84,3.94,3.36,12.13,12.13,12.13
26.16,8.34,-3.80,8.34,-3.80,3.79,3.89,3.44,12.13,12.13,12.14
26.43,8.39,-3.74,8.39,-3.74,3.74,3.85,3.51,12.13,12.13,12.13
26.69,8.44,-3.69,8.44,-3.69,3.69,3.80,3.59,12.13,12.13,12.13
26.96,8.49,-3.64,8.49,-3.64,3.64,3.75,3.66,12.13,12.13,12.13
27.23,8.54,-3.59,8.54,-3.59,3.59,3.70,3.74,12.13,12.13,12.13
27.50,8.59,-3.54,8.59,-3.54,3.54,3.64,3.80,12.13,12.13,12.13
27.77,8.64,-3.50,8.64,-3.49,3.50,3.59,3.87,12.14,12.13,12.14
28.05,8.69,-3.44,8.69,-3.44,3.45,3.54,3.93,12.14,12.14,12.13
28.33,8.74,-3.40,8.74,-3.40,3.40,3.49,3.99,12.14,12.14,12.14
28.62,8.79,-3.35,8.79,-3.36,3.36,3.44,4.04,12.15,12.14,12.14
28.90,8.83,-3.32,8.83,-3.31,3.31,3.39,4.09,12.14,12.14,12.15
29.19,8.88,-3.27,8.88,-3.27,3.26,3.33,4.13,12.14,12.14,12.15
29.48,8.92,-3.22,8.92,-3.22,3.22,3.28,4.17,12.14,12.14,12.14
29.78,8.97,-3.17,8.97,-3.17,3.17,3.23,4.19,12.14,12.14,12.14
30.08,9.01,-3.13,9.01,-3.12,3.13,3.17,4.22,12.13,12.13,12.14
30.38,9.05,-3.07,9.05,-3.07,3.08,3.12,4.23,12.13,12.13,12.12
30.68,9.10,-3.02,9.10,-3.03,3.03,3.07,4.24,12.13,12.12,12.12
30.99,9.14,-2.98,9.14,-2.98,2.98,3.01,4.24,12.12,12.12,12.12
31.30,9.18,-2.94,9.18,-2.93,2.93,2.96,4.23,12.11,12.11,12.12
31.61,9.22,-2.89,9.22,-2.89,2.89,2.91,4.21,12.11,12.11,12.11
31.93,9.26,-2.83,9.26,-2.84,2.84,2.85,4.19,12.10,12.10,12.09
32.24,9.30,-2.80,9.30,-2.79,2.79,2.80,4.15,12.09,12.09,12.10
32.57,9.34,-2.74,9.34,-2.74,2.75,2.74,4.12,12.09,12.09,12.08
32.89,9.38,-2.70,9.38,-2.70,2.70,2.69,4.07,12.08,12.08,12.08
33.22,9.41,-2.66,9.41,-2.66,2.66,2.63,4.01,12.07,12.07,12.07
33.55,9.45,-2.62,9.45,-2.62,2.61,2.58,3.95,12.06,12.06,12.07
33.89,9.49,-2.57,9.49,-2.57,2.57,2.52,3.89,12.06,12.06,12.06
34.23,9.53,-2.51,9.53,-2.52,2.52,2.47,3.82,12.05,12.05,12.04
34.57,9.56,-2.48,9.56,-2.48,2.48,2.41,3.74,12.04,12.04,12.04
34.92,9.60,-2.42,9.60,-2.43,2.44,2.35,3.66,12.04,12.03,12.02
35.27,9.63,-2.41,9.63,-2.39,2.39,2.30,3.57,12.02,12.02,12.04
35.62,9.67,-2.34,9.67,-2.35,2.35,2.24,3.48,12.02,12.01,12.01
35.97,9.70,-2.31,9.70,-2.31,2.30,2.19,3.39,12.00,12.00,12.01
36.33,9.73,-2.26,9.73,-2.26,2.26,2.13,3.30,11.98,11.99,11.99
36.70,9.76,-2.21,9.76,-2.21,2.21,2.08,3.20,11.97,11.97,11.97
37.06,9.80,-2.15,9.80,-2.16,2.16,2.02,3.10,11.96,11.95,11.95
37.43,9.83,-2.10,9.83,-2.10,2.11,1.96,3.00,11.94,11.94,11.93
37.81,9.86,-2.06,9.86,-2.05,2.05,1.91,2.90,11.91,11.92,11.92
38.19,9.90,-1.99,9.90,-2.00,2.00,1.85,2.80,11.90,11.89,11.89
38.57,9.93,-1.94,9.93,-1.95,1.94,1.79,2.70,11.87,11.87,11.87
38.95,9.96,-1.90,9.96,-1.89,1.89,1.74,2.60,11.85,11.85,11.86
39.34,9.99,-1.84,9.99,-1.84,1.83,1.68,2.50,11.82,11.83,11.83
39.74,10.03,-1.77,10.03,-1.78,1.78,1.62,2.39,11.81,11.80,11.80
40.14,10.06,-1.72,10.06,-1.72,1.72,1.57,2.29,11.78,11.78,11.78
40.54,10.09,-1.67,10.09,-1.67,1.67,1.51,2.19,11.76,11.76,11.76
40.94,10.12,-1.61,10.12,-1.62,1.62,1.45,2.09,11.74,11.74,11.73
41.35,10.15,-1.57,10.15,-1.56,1.57,1.40,1.99,11.72,11.72,11.72
41.76,10.18,-1.51,10.18,-1.51,1.52,1.34,1.90,11.70,11.70,11.69
42.18,10.21,-1.47,10.21,-1.47,1.47,1.28,1.80,11.68,11.68,11.68
42.60,10.23,-1.42,10.23,-1.42,1.42,1.22,1.70,11.65,11.65,11.65
43.03,10.25,-1.38,10.25,-1.38,1.37,1.17,1.61,11.62,11.62,11.63
43.46,10.27,-1.32,10.27,-1.33,1.32,1.11,1.52,11.59,11.59,11.59
43.90,10.29,-1.28,10.29,-1.28,1.27,1.05,1.42,11.56,11.57,11.57
44.33,10.32,-1.22,10.32,-1.22,1.22,1.00,1.33,11.54,11.54,11.54
44.78,10.35,-1.17,10.35,-1.17,1.17,0.94,1.24,11.52,11.52,11.52
45.23,10.38,-1.12,10.38,-1.11,1.11,0.88,1.15,11.49,11.49,11.50
45.68,10.40,-1.05,10.40,-1.05,1.06,0.82,1.07,11.46,11.46,11.45
46.13,10.43,-0.99,10.43,-0.99,1.00,0.77,0.98,11.43,11.42,11.42
46.60,10.45,-0.93,10.45,-0.93,0.93,0.71,0.90,11.38,11.38,11.38
47.06,10.47,-0.88,10.47,-0.87,0.87,0.65,0.81,11.34,11.34,11.35
47.53,10.50,-0.81,10.50,-0.81,0.80,0.59,0.73,11.30,11.30,11.31
48.01,10.53,-0.73,10.53,-0.74,0.73,0.54,0.65,11.26,11.26,11.26
48.49,10.55,-0.67,10.55,-0.67,0.67,0.48,0.57,11.22,11.22,11.22
48.97,10.58,-0.59,10.58,-0.60,0.60,0.42,0.49,11.18,11.18,11.17
49.46,10.60,-0.54,10.60,-0.53,0.54,0.36,0.41,11.14,11.14,11.14
49.96,10.63,-0.45,10.62,-0.46,0.47,0.31,0.33,11.10,11.09,11.08
50.46,10.64,-0.41,10.64,-0.41,0.41,0.25,0.25,11.04,11.05,11.05
50.96,10.66,-0.35,10.66,-0.35,0.34,0.19,0.18,11.00,11.00,11.01
51.47,10.68,-0.29,10.68,-0.29,0.28,0.13,0.10,10.96,10.96,10.97
51.99,10.71,-0.21,10.71,-0.22,0.22,0.07,0.03,10.93,10.93,10.92
52.51,10.73,-0.16,10.73,-0.16,0.16,0.02,-0.04,10.89,10.89,10.89
53.03,10.75,-0.11,10.75,-0.10,0.10,-0.04,-0.11,10.85,10.85,10.86
53.56,10.77,-0.04,10.77,-0.04,0.04,-0.10,-0.18,10.81,10.81,10.81
54.10,10.78,0.02,10.78,0.02,-0.01,-0.16,-0.25,10.77,10.77,10.76
54.64,10.79,0.07,10.79,0.07,-0.06,-0.22,-0.32,10.73,10.73,10.72
55.18,10.80,0.12,10.80,0.12,-0.11,-0.27,-0.39,10.69,10.68,10.68
55.74,10.80,0.17,10.80,0.16,-0.16,-0.33,-0.45,10.64,10.64,10.63
56.29,10.81,0.20,10.81,0.21,-0.21,-0.39,-0.52,10.60,10.60,10.61
56.86,10.82,0.25,10.82,0.25,-0.26,-0.45,-0.58,10.56,10.56,10.57
57.42,10.83,0.31,10.83,0.31,-0.31,-0.51,-0.64,10.52,10.53,10.52
58.00,10.85,0.37,10.85,0.36,-0.36,-0.56,-0.70,10.49,10.49,10.48
58.58,10.87,0.42,10.87,0.42,-0.42,-0.62,-0.76,10.45,10.45,10.45
59.16,10.88,0.46,10.88,0.47,-0.48,-0.68,-0.82,10.40,10.41,10.42
59.76,10.90,0.53,10.90,0.53,-0.54,-0.74,-0.88,10.36,10.36,10.37
60.35,10.92,0.60,10.92,0.60,-0.61,-0.80,-0.93,10.31,10.31,10.32
60.96,10.94,0.68,10.94,0.67,-0.67,-0.86,-0.98,10.27,10.26,10.26
61.57,10.95,0.75,10.95,0.75,-0.74,-0.92,-1.04,10.21,10.21,10.20
62.18,10.96,0.82,10.96,0.82,-0.81,-0.97,-1.09,10.14,10.15,10.14
62.80,10.98,0.90,10.98,0.89,-0.89,-1.03,-1.14,10.09,10.09,10.08
63.43,10.99,0.96,10.99,0.96,-0.96,-1.09,-1.18,10.03,10.03,10.03
64.07,11.01,1.03,11.01,1.03,-1.03,-1.15,-1.23,9.97,9.97,9.98
64.71,11.03,1.10,11.03,1.10,-1.11,-1.21,-1.28,9.92,9.92,9.93
65.35,11.05,1.18,11.05,1.18,-1.18,-1.27,-1.32,9.87,9.87,9.87
66.01,11.08,1.26,11.08,1.25,-1.25,-1.33,-1.36,9.83,9.82,9.82
66.67,11.10,1.32,11.10,1.33,-1.33,-1.39,-1.41,9.77,9.77,9.78
67.33,11.12,1.41,11.12,1.40,-1.40,-1.44,-1.45,9.72,9.72,9.71
68.01,11.14,1.48,11.14,1.48,-1.48,-1.50,-1.49,9.66,9.66,9.66
68.69,11.16,1.55,11.16,1.55,-1.55,-1.56,-1.53,9.61,9.61,9.61
69.37,11.18,1.62,11.18,1.62,-1.63,-1.62,-1.57,9.55,9.55,9.56
70.07,11.19,1.69,11.19,1.70,-1.70,-1.68,-1.61,9.49,9.49,9.50
70.77,11.21,1.78,11.20,1.77,-1.77,-1.74,-1.65,9.44,9.44,9.43
71.48,11.21,1.83,11.21,1.84,-1.84,-1.80,-1.69,9.37,9.38,9.38
72.19,11.22,1.90,11.22,1.91,-1.90,-1.86,-1.73,9.32,9.32,9.32
72.91,11.23,1.98,11.22,1.97,-1.96,-1.92,-1.77,9.27,9.26,9.25
73.64,11.22,2.02,11.22,2.03,-2.02,-1.98,-1.81,9.20,9.21,9.20
74.38,11.22,2.08,11.22,2.07,-2.07,-2.04,-1.86,9.15,9.15,9.14
75.12,11.21,2.12,11.21,2.12,-2.12,-2.10,-1.90,9.09,9.09,9.09
75.87,11.20,2.16,11.20,2.17,-2.17,-2.16,-1.94,9.03,9.03,9.04
76.63,11.20,2.22,11.20,2.21,-2.22,-2.22,-1.99,8.98,8.98,8.98
77.40,11.20,2.26,11.20,2.26,-2.27,-2.27,-2.04,8.93,8.93,8.94
78.17,11.20,2.32,11.20,2.31,-2.31,-2.33,-2.08,8.89,8.89,8.88
78.95,11.20,2.36,11.20,2.36,-2.36,-2.39,-2.13,8.84,8.84,8.84
79.74,11.20,2.41,11.20,2.41,-2.41,-2.45,-2.18,8.79,8.79,8.79
80.54,11.20,2.46,11.20,2.46,-2.46,-2.51,-2.23,8.74,8.74,8.74
81.35,11.20,2.52,11.20,2.51,-2.51,-2.57,-2.29,8.69,8.69,8.68
82.16,11.20,2.55,11.20,2.56,-2.56,-2.63,-2.34,8.64,8.64,8.65
82.98,11.20,2.61,11.20,2.61,-2.61,-2.69,-2.40,8.59,8.59,8.59
83.81,11.20,2.66,11.20,2.66,-2.66,-2.75,-2.46,8.53,8.53,8.54
84.65,11.20,2.72,11.20,2.72,-2.72,-2.81,-2.52,8.48,8.48,8.48
85.50,11.20,2.78,11.20,2.77,-2.77,-2.87,-2.58,8.43,8.43,8.42
86.35,11.20,2.83,11.20,2.83,-2.83,-2.93,-2.65,8.37,8.37,8.37
87.22,11.20,2.88,11.20,2.88,-2.88,-2.99,-2.72,8.32,8.32,8.32
88.09,11.20,2.94,11.20,2.94,-2.94,-3.05,-2.79,8.26,8.26,8.26
88.97,11.20,3.00,11.20,2.99,-3.00,-3.11,-2.86,8.20,8.20,8.20
89.86,11.20,3.05,11.20,3.05,-3.05,-3.16,-2.93,8.15,8.15,8.15
90.76,11.20,3.11,11.20,3.11,-3.11,-3.22,-3.01,8.09,8.09,8.09
91.66,11.20,3.18,11.20,3.17,-3.17,-3.28,-3.09,8.03,8.03,8.02
92.58,11.20,3.23,11.20,3.23,-3.23,-3.34,-3.17,7.97,7.97,7.97
93.51,11.20,3.28,11.20,3.28,-3.29,-3.40,-3.25,7.91,7.91,7.92
94.44,11.20,3.34,11.20,3.34,-3.35,-3.46,-3.33,7.85,7.85,7.86
95.39,11.20,3.41,11.20,3.41,-3.41,-3.52,-3.42,7.79,7.79,7.79
96.34,11.20,3.48,11.20,3.48,-3.48,-3.58,-3.51,7.72,7.72,7.72
97.30,11.20,3.54,11.20,3.54,-3.54,-3.63,-3.60,7.66,7.66,7.66
98.28,11.20,3.61,11.20,3.61,-3.60,-3.69,-3.69,7.60,7.60,7.59
99.26,11.20,3.67,11.20,3.67,-3.66,-3.75,-3.78,7.54,7.54,7.53
100.25,11.20,3.73,11.20,3.73,-3.73,-3.81,-3.88,7.47,7.47,7.47
101.25,11.20,3.78,11.20,3.78,-3.78,-3.86,-3.97,7.42,7.42,7.42
102.27,11.20,3.84,11.20,3.84,-3.84,-3.92,-4.07,7.36,7.36,7.36
103.29,11.20,3.90,11.20,3.90,-3.90,-3.98,-4.17,7.30,7.30,7.30
104.32,11.20,3.95,11.20,3.95,-3.95,-4.04,-4.26,7.25,7.25,7.25
105.37,11.20,4.01,11.20,4.01,-4.01,-4.09,-4.36,7.19,7.19,7.19
106.42,11.20,4.06,11.20,4.06,-4.06,-4.15,-4.46,7.14,7.14,7.14
107.48,11.20,4.12,11.20,4.12,-4.12,-4.20,-4.55,7.08,7.08,7.08
108.56,11.20,4.17,11.20,4.17,-4.17,-4.26,-4.65,7.03,7.03,7.03
109.64,11.20,4.23,11.20,4.23,-4.23,-4.32,-4.74,6.97,6.97,6.97
110.74,11.20,4.29,11.20,4.29,-4.29,-4.37,-4.83,6.91,6.91,6.91
111.85,11.20,4.35,11.20,4.34,-4.35,-4.43,-4.92,6.85,6.85,6.85
112.97,11.20,4.40,11.20,4.40,-4.41,-4.48,-5.00,6.79,6.79,6.80
114.10,11.20,4.46,11.20,4.47,-4.47,-4.53,-5.09,6.73,6.73,6.74
115.24,11.20,4.54,11.20,4.53,-4.53,-4.59,-5.16,6.67,6.67,6.66
116.39,11.20,4.60,11.20,4.60,-4.59,-4.64,-5.24,6.61,6.61,6.60
117.55,11.20,4.66,11.20,4.66,-4.65,-4.69,-5.31,6.55,6.55,6.54
118.73,11.20,4.72,11.20,4.71,-4.71,-4.75,-5.37,6.49,6.49,6.48
119.92,11.20,4.76,11.20,4.77,-4.77,-4.80,-5.43,6.43,6.43,6.44
121.12,11.21,4.82,11.21,4.82,-4.83,-4.85,-5.48,6.38,6.38,6.39
122.33,11.21,4.88,11.21,4.88,-4.89,-4.90,-5.53,6.32,6.33,6.33
123.55,11.22,4.94,11.22,4.94,-4.94,-4.95,-5.56,6.28,6.28,6.28
124.79,11.23,5.00,11.22,5.00,-4.99,-5.00,-5.60,6.24,6.23,6.23
126.03,11.22,5.05,11.22,5.05,-5.04,-5.05,-5.62,6.18,6.18,6.17
127.29,11.21,5.09,11.21,5.10,-5.09,-5.10,-5.64,6.12,6.12,6.12
128.57,11.20,5.15,11.19,5.13,-5.13,-5.15,-5.66,6.07,6.06,6.05
129.85,11.16,5.16,11.16,5.17,-5.16,-5.19,-5.67,6.00,6.00,6.00
131.15,11.13,5.19,11.14,5.20,-5.19,-5.24,-5.67,5.94,5.94,5.94
132.46,11.11,5.22,11.10,5.22,-5.22,-5.29,-5.66,5.89,5.89,5.89
133.79,11.08,5.25,11.07,5.24,-5.24,-5.33,-5.66,5.84,5.83,5.83
135.12,11.03,5.25,11.04,5.26,-5.26,-5.38,-5.64,5.77,5.78,5.78
136.48,11.01,5.28,11.00,5.28,-5.28,-5.42,-5.63,5.73,5.72,5.73
137.84,10.97,5.29,10.97,5.30,-5.30,-5.46,-5.60,5.67,5.68,5.68
139.22,10.95,5.33,10.95,5.32,-5.32,-5.51,-5.58,5.63,5.63,5.62
140.61,10.92,5.34,10.92,5.34,-5.34,-5.55,-5.55,5.58,5.58,5.58
142.02,10.89,5.37,10.90,5.37,-5.37,-5.59,-5.53,5.52,5.53,5.52
143.44,10.88,5.40,10.87,5.39,-5.40,-5.63,-5.50,5.48,5.47,5.48
144.87,10.86,5.42,10.86,5.42,-5.43,-5.67,-5.46,5.43,5.43,5.44
146.32,10.85,5.46,10.86,5.46,-5.47,-5.70,-5.43,5.37,5.38,5.39
147.78,10.86,5.51,10.86,5.51,-5.52,-5.74,-5.40,5.34,5.34,5.35
149.26,10.87,5.57,10.87,5.57,-5.57,-5.78,-5.37,5.30,5.30,5.30
150.75,10.88,5.62,10.88,5.62,-5.62,-5.81,-5.34,5.26,5.26,5.26
152.26,10.89,5.67,10.89,5.67,-5.67,-5.85,-5.31,5.22,5.23,5.22
153.78,10.90,5.72,10.90,5.72,-5.71,-5.88,-5.28,5.19,5.18,5.18
155.32,10.90,5.76,10.90,5.76,-5.76,-5.91,-5.26,5.14,5.14,5.14
156.88,10.89,5.80,10.89,5.80,-5.79,-5.94,-5.23,5.10,5.10,5.09
158.44,10.88,5.84,10.88,5.83,-5.82,-5.97,-5.21,5.05,5.05,5.04
160.03,10.85,5.85,10.85,5.85,-5.85,-6.00,-5.19,5.00,5.00,5.00
161.63,10.83,5.87,10.83,5.87,-5.87,-6.03,-5.18,4.96,4.95,4.96
163.24,10.80,5.89,10.80,5.89,-5.89,-6.05,-5.17,4.91,4.91,4.91
164.88,10.76,5.90,10.77,5.91,-5.90,-6.08,-5.16,4.85,4.86,4.86
166.53,10.74,5.93,10.73,5.92,-5.92,-6.10,-5.15,4.82,4.82,4.81
168.19,10.71,5.93,10.70,5.93,-5.94,-6.13,-5.15,4.77,4.77,4.78
169.87,10.66,5.94,10.67,5.95,-5.95,-6.15,-5.15,4.71,4.72,4.72
171.57,10.64,5.97,10.64,5.97,-5.97,-6.17,-5.16,4.67,4.67,4.67
173.29,10.62,5.99,10.62,5.99,-5.99,-6.19,-5.17,4.63,4.62,4.63
175.02,10.60,6.02,10.60,6.01,-6.02,-6.21,-5.18,4.58,4.58,4.58
176.77,10.57,6.04,10.57,6.04,-6.04,-6.22,-5.20,4.53,4.53,4.53
178.54,10.55,6.06,10.55,6.07,-6.07,-6.24,-5.22,4.48,4.48,4.49
180.32,10.54,6.11,10.53,6.09,-6.09,-6.25,-5.25,4.45,4.44,4.43
182.13,10.51,6.11,10.51,6.12,-6.12,-6.26,-5.28,4.39,4.39,4.40
183.95,10.49,6.14,10.49,6.15,-6.14,-6.28,-5.31,4.35,4.35,4.35
185.79,10.47,6.17,10.47,6.16,-6.16,-6.28,-5.35,4.31,4.31,4.30
187.65,10.45,6.19,10.44,6.18,-6.18,-6.29,-5.39,4.27,4.27,4.26
189.52,10.41,6.19,10.41,6.19,-6.19,-6.30,-5.44,4.22,4.22,4.22
191.42,10.38,6.20,10.38,6.20,-6.21,-6.31,-5.49,4.17,4.17,4.18
193.33,10.35,6.21,10.35,6.21,-6.22,-6.31,-5.54,4.12,4.12,4.14
195.27,10.32,6.23,10.32,6.23,-6.24,-6.31,-5.60,4.08,4.08,4.09
197.22,10.30,6.26,10.30,6.25,-6.25,-6.32,-5.66,4.05,4.05,4.04
199.19,10.28,6.27,10.28,6.27,-6.27,-6.32,-5.72,4.01,4.01,4.01
201.18,10.26,6.29,10.26,6.29,-6.28,-6.31,-5.78,3.98,3.98,3.97
203.19,10.24,6.30,10.24,6.29,-6.29,-6.31,-5.85,3.95,3.95,3.94
205.23,10.21,6.29,10.21,6.30,-6.30,-6.31,-5.92,3.91,3.91,3.92
207.28,10.19,6.30,10.19,6.31,-6.31,-6.30,-5.98,3.88,3.88,3.89
209.35,10.17,6.32,10.17,6.31,-6.32,-6.30,-6.05,3.85,3.85,3.85
211.44,10.15,6.33,10.15,6.32,-6.32,-6.29,-6.13,3.83,3.82,3.82
213.56,10.12,6.32,10.12,6.32,-6.33,-6.28,-6.20,3.79,3.79,3.80
215.69,10.09,6.32,10.09,6.32,-6.33,-6.27,-6.27,3.76,3.76,3.77
217.85,10.06,6.32,10.07,6.33,-6.33,-6.25,-6.34,3.73,3.74,3.74
220.03,10.05,6.34,10.04,6.33,-6.32,-6.24,-6.40,3.73,3.72,3.71
222.23,10.02,6.34,10.02,6.33,-6.31,-6.23,-6.47,3.71,3.70,3.68
224.45,9.98,6.31,9.98,6.31,-6.30,-6.21,-6.53,3.68,3.68,3.67
226.70,9.93,6.29,9.93,6.28,-6.29,-6.19,-6.59,3.64,3.64,3.64
228.96,9.88,6.25,9.89,6.26,-6.27,-6.17,-6.64,3.61,3.62,3.63
231.25,9.85,6.24,9.85,6.24,-6.25,-6.15,-6.69,3.60,3.59,3.61
233.57,9.82,6.23,9.81,6.22,-6.24,-6.13,-6.73,3.58,3.58,3.59
235.90,9.78,6.20,9.79,6.21,-6.22,-6.11,-6.77,3.56,3.57,3.58
238.26,9.76,6.21,9.76,6.20,-6.20,-6.08,-6.79,3.56,3.56,3.55
240.64,9.74,6.18,9.74,6.19,-6.18,-6.06,-6.81,3.56,3.56,3.56
243.05,9.72,6.18,9.71,6.17,-6.15,-6.03,-6.82,3.57,3.56,3.54
245.48,9.68,6.15,9.68,6.14,-6.13,-6.00,-6.83,3.55,3.55,3.53
247.93,9.62,6.10,9.63,6.10,-6.09,-5.98,-6.82,3.53,3.53,3.52
250.41,9.58,6.05,9.57,6.05,-6.06,-5.95,-6.81,3.52,3.51,3.53
252.92,9.52,6.00,9.53,6.01,-6.03,-5.91,-6.78,3.49,3.50,3.52
255.45,9.49,5.98,9.49,5.98,-5.99,-5.88,-6.75,3.50,3.50,3.51
258.00,9.46,5.95,9.46,5.95,-5.95,-5.85,-6.71,3.51,3.50,3.51
260.58,9.43,5.92,9.43,5.92,-5.92,-5.81,-6.65,3.51,3.51,3.51
263.19,9.40,5.89,9.40,5.89,-5.88,-5.78,-6.60,3.51,3.51,3.51
265.82,9.36,5.86,9.36,5.86,-5.85,-5.74,-6.53,3.51,3.51,3.50
268.48,9.33,5.83,9.33,5.83,-5.82,-5.70,-6.45,3.51,3.50,3.50
271.16,9.29,5.79,9.29,5.79,-5.79,-5.67,-6.37,3.50,3.49,3.50
273.87,9.24,5.74,9.25,5.75,-5.75,-5.63,-6.29,3.48,3.49,3.50
276.61,9.21,5.71,9.21,5.71,-5.72,-5.59,-6.19,3.49,3.49,3.50
279.38,9.17,5.69,9.17,5.68,-5.67,-5.54,-6.09,3.50,3.49,3.48
282.17,9.12,5.64,9.12,5.64,-5.63,-5.50,-5.99,3.49,3.50,3.48
284.99,9.08,5.59,9.07,5.59,-5.58,-5.46,-5.89,3.50,3.49,3.49
287.84,9.02,5.52,9.02,5.53,-5.53,-5.41,-5.78,3.49,3.49,3.50
290.72,8.97,5.48,8.97,5.47,-5.48,-5.37,-5.67,3.49,3.49,3.49
293.63,8.92,5.42,8.92,5.42,-5.42,-5.32,-5.56,3.50,3.50,3.50
296.57,8.87,5.36,8.87,5.37,-5.37,-5.27,-5.45,3.50,3.51,3.51
299.53,8.83,5.32,8.83,5.31,-5.31,-5.23,-5.33,3.52,3.51,3.51
302.53,8.78,5.25,8.78,5.26,-5.26,-5.18,-5.22,3.52,3.52,3.53
305.55,8.73,5.21,8.73,5.20,-5.21,-5.13,-5.11,3.52,3.52,3.52
308.61,8.69,5.16,8.69,5.16,-5.16,-5.08,-5.00,3.53,3.52,3.53
311.69,8.64,5.10,8.65,5.11,-5.11,-5.03,-4.89,3.52,3.53,3.54
314.81,8.62,5.08,8.61,5.07,-5.07,-4.98,-4.78,3.55,3.55,3.54
317.96,8.58,5.03,8.58,5.03,-5.02,-4.93,-4.67,3.56,3.56,3.55
321.14,8.54,4.98,8.54,4.98,-4.97,-4.87,-4.57,3.57,3.56,3.56
324.35,8.49,4.93,8.49,4.92,-4.93,-4.82,-4.46,3.56,3.57,3.56
327.59,8.45,4.86,8.45,4.87,-4.88,-4.76,-4.36,3.57,3.57,3.59
330.87,8.40,4.82,8.40,4.82,-4.82,-4.71,-4.26,3.57,3.58,3.58
334.18,8.36,4.77,8.36,4.77,-4.77,-4.65,-4.17,3.59,3.59,3.59
337.52,8.32,4.73,8.32,4.72,-4.71,-4.60,-4.08,3.61,3.61,3.59
340.90,8.27,4.66,8.26,4.66,-4.65,-4.54,-3.99,3.62,3.62,3.61
344.30,8.20,4.58,8.20,4.59,-4.59,-4.48,-3.90,3.61,3.62,3.62
347.75,8.14,4.52,8.14,4.52,-4.52,-4.43,-3.81,3.62,3.62,3.62
351.23,8.08,4.46,8.08,4.45,-4.46,-4.37,-3.73,3.62,3.62,3.62
354.74,8.02,4.37,8.02,4.38,-4.39,-4.31,-3.65,3.63,3.63,3.65
358.28,7.96,4.32,7.96,4.32,-4.32,-4.25,-3.58,3.64,3.64,3.64
361.87,7.91,4.26,7.91,4.25,-4.25,-4.19,-3.51,3.66,3.65,3.65
365.49,7.85,4.19,7.85,4.19,-4.19,-4.13,-3.44,3.66,3.66,3.66
369.14,7.79,4.11,7.79,4.12,-4.12,-4.07,-3.37,3.67,3.67,3.68
372.83,7.74,4.06,7.74,4.06,-4.06,-4.01,-3.30,3.68,3.68,3.68
376.56,7.68,4.00,7.68,4.00,-4.00,-3.95,-3.24,3.68,3.69,3.68
380.33,7.63,3.94,7.63,3.94,-3.93,-3.88,-3.18,3.70,3.70,3.69
384.13,7.57,3.86,7.57,3.87,-3.87,-3.82,-3.12,3.70,3.70,3.71
387.97,7.52,3.81,7.52,3.80,-3.80,-3.76,-3.07,3.71,3.71,3.71
391.85,7.46,3.74,7.46,3.74,-3.74,-3.69,-3.02,3.72,3.72,3.72
395.77,7.41,3.68,7.41,3.68,-3.68,-3.63,-2.97,3.73,3.73,3.73
399.73,7.35,3.61,7.35,3.61,-3.61,-3.56,-2.92,3.74,3.74,3.74
403.72,7.30,3.53,7.30,3.54,-3.54,-3.50,-2.87,3.76,3.76,3.77
407.76,7.24,3.48,7.24,3.47,-3.47,-3.43,-2.82,3.77,3.77,3.76
411.84,7.18,3.41,7.18,3.41,-3.40,-3.37,-2.78,3.78,3.78,3.77
415.96,7.12,3.33,7.11,3.33,-3.33,-3.30,-2.74,3.79,3.79,3.79
420.12,7.05,3.26,7.05,3.26,-3.26,-3.23,-2.70,3.79,3.79,3.79
424.32,6.98,3.18,6.99,3.18,-3.19,-3.17,-2.66,3.79,3.80,3.80
428.56,6.93,3.11,6.92,3.11,-3.12,-3.10,-2.62,3.81,3.81,3.82
432.85,6.87,3.04,6.87,3.04,-3.05,-3.03,-2.58,3.82,3.82,3.83
437.18,6.80,2.98,6.81,2.98,-2.98,-2.96,-2.54,3.82,3.83,3.82
441.55,6.75,2.92,6.74,2.91,-2.90,-2.89,-2.50,3.85,3.84,3.83
445.96,6.68,2.84,6.67,2.84,-2.83,-2.82,-2.46,3.85,3.84,3.84
450.42,6.60,2.75,6.61,2.76,-2.76,-2.75,-2.42,3.84,3.85,3.85
454.93,6.54,2.68,6.54,2.68,-2.68,-2.68,-2.38,3.86,3.86,3.86
459.48,6.48,2.61,6.48,2.60,-2.61,-2.61,-2.34,3.87,3.87,3.87
464.07,6.42,2.53,6.41,2.53,-2.53,-2.54,-2.30,3.89,3.88,3.89
468.71,6.35,2.45,6.35,2.45,-2.46,-2.46,-2.26,3.89,3.89,3.90
473.40,6.27,2.37,6.28,2.38,-2.38,-2.39,-2.21,3.89,3.90,3.90
478.13,6.22,2.31,6.22,2.31,-2.30,-2.32,-2.17,3.92,3.91,3.91
482.91,6.16,2.24,6.15,2.23,-2.23,-2.24,-2.12,3.93,3.92,3.92
487.74,6.08,2.15,6.08,2.15,-2.15,-2.17,-2.07,3.93,3.93,3.93
492.62,6.00,2.06,6.00,2.07,-2.06,-2.09,-2.02,3.93,3.94,3.94
