frequency,raw,error,smoothed,error_smoothed,equalization,parametric_eq,fixed_band_eq,equalized_raw,equalized_smoothed,target
20.00,-7.18,-13.40,-7.18,-13.40,13.40,13.26,5.10,6.22,6.22,6.22
20.20,-7.11,-13.32,-7.11,-13.33,13.32,13.19,5.23,6.21,6.21,6.21
20.40,-7.05,-13.25,-7.05,-13.25,13.25,13.13,5.37,6.20,6.20,6.20
20.61,-6.98,-13.17,-6.98,-13.17,13.17,13.06,5.50,6.19,6.19,6.19
20.81,-6.91,-13.08,-6.91,-13.09,13.09,13.00,5.64,6.18,6.18,6.17
21.02,-6.84,-13.00,-6.84,-13.01,13.02,12.93,5.79,6.18,6.17,6.16
21.23,-6.78,-12.93,-6.78,-12.93,12.94,12.87,5.93,6.16,6.16,6.15
21.44,-6.71,-12.87,-6.71,-12.86,12.86,12.80,6.09,6.15,6.15,6.16
21.66,-6.64,-12.78,-6.64,-12.79,12.78,12.74,6.24,6.14,6.14,6.14
21.87,-6.58,-12.72,-6.58,-12.71,12.71,12.67,6.40,6.13,6.13,6.14
22.09,-6.51,-12.63,-6.51,-12.63,12.63,12.61,6.56,6.12,6.12,6.12
22.31,-6.44,-12.55,-6.44,-12.56,12.56,12.54,6.73,6.12,6.12,6.11
22.54,-6.37,-12.47,-6.37,-12.47,12.48,12.47,6.90,6.11,6.11,6.10
22.76,-6.30,-12.40,-6.30,-12.40,12.40,12.41,7.08,6.11,6.10,6.10
22.99,-6.23,-12.32,-6.23,-12.33,12.33,12.34,7.27,6.10,6.10,6.09
23.22,-6.17,-12.25,-6.17,-12.26,12.26,12.27,7.45,6.09,6.09,6.08
23.45,-6.10,-12.19,-6.10,-12.18,12.18,12.20,7.64,6.08,6.08,6.09
23.69,-6.03,-12.11,-6.03,-12.11,12.11,12.13,7.84,6.08,6.08,6.08
23.92,-5.96,-12.03,-5.96,-12.04,12.04,12.07,8.04,6.08,6.08,6.07
24.16,-5.89,-11.97,-5.89,-11.97,11.97,12.00,8.25,6.08,6.08,6.08
24.40,-5.82,-11.90,-5.82,-11.90,11.90,11.93,8.46,6.08,6.08,6.08
24.65,-5.75,-11.82,-5.75,-11.83,11.82,11.86,8.68,6.07,6.07,6.07
24.89,-5.68,-11.75,-5.68,-11.75,11.75,11.78,8.89,6.07,6.07,6.07
25.14,-5.61,-11.67,-5.61,-11.67,11.68,11.71,9.12,6.07,6.07,6.06
25.39,-5.54,-11.60,-5.54,-11.60,11.61,11.64,9.35,6.07,6.07,6.06
25.65,-5.47,-11.53,-5.47,-11.54,11.54,11.57,9.58,6.07,6.06,6.06
25.91,-5.41,-11.47,-5.40,-11.47,11.47,11.50,9.81,6.05,6.06,6.06
26.16,-5.33,-11.40,-5.33,-11.40,11.39,11.43,10.05,6.07,6.06,6.07
26.43,-5.26,-11.32,-5.26,-11.33,11.32,11.35,10.29,6.06,6.06,6.06
26.69,-5.19,-11.25,-5.19,-11.25,11.26,11.28,10.53,6.07,6.07,6.06
26.96,-5.12,-11.18,-5.12,-11.18,11.19,11.21,10.77,6.07,6.07,6.06
27.23,-5.05,-11.11,-5.05,-11.12,11.12,11.13,11.01,6.07,6.07,6.06
27.50,-4.98,-11.04,-4.98,-11.05,11.05,11.06,11.24,6.07,6.07,6.06
27.77,-4.92,-10.99,-4.92,-10.98,10.98,10.99,11.48,6.06,6.07,6.07
28.05,-4.85,-10.91,-4.85,-10.92,10.92,10.91,11.70,6.07,6.07,6.06
28.33,-4.78,-10.85,-4.78,-10.85,10.85,10.84,11.92,6.07,6.07,6.07
28.62,-4.71,-10.78,-4.71,-10.78,10.78,10.76,12.13,6.07,6.08,6.07
28.90,-4.63,-10.71,-4.64,-10.72,10.71,10.69,12.33,6.09,6.08,6.08
29.19,-4.57,-10.65,-4.57,-10.65,10.65,10.62,12.52,6.08,6.08,6.08
29.48,-4.50,-10.57,-4.50,-10.58,10.57,10.54,12.68,6.08,6.08,6.07
29.78,-4.43,-10.50,-4.43,-10.50,10.50,10.47,12.83,6.07,6.07,6.07
30.08,-4.36,-10.43,-4.36,-10.43,10.43,10.39,12.95,6.07,6.07,6.07
30.38,-4.30,-10.35,-4.30,-10.36,10.36,10.32,13.05,6.06,6.06,6.05
30.68,-4.23,-10.28,-4.23,-10.29,10.29,10.24,13.12,6.06,6.06,6.05
30.99,-4.16,-10.21,-4.16,-10.22,10.22,10.16,13.17,6.06,6.05,6.05
31.30,-4.10,-10.15,-4.10,-10.15,10.14,10.09,13.19,6.04,6.05,6.05
31.61,-4.03,-10.07,-4.03,-10.08,10.07,10.01,13.18,6.04,6.04,6.04
31.93,-3.97,-9.99,-3.97,-10.00,10.00,9.94,13.14,6.03,6.03,6.02
32.24,-3.90,-9.93,-3.90,-9.92,9.93,9.86,13.08,6.03,6.03,6.03
32.57,-3.83,-9.84,-3.83,-9.85,9.85,9.79,12.99,6.02,6.02,6.01
32.89,-3.76,-9.77,-3.76,-9.77,9.78,9.71,12.88,6.02,6.02,6.01
33.22,-3.70,-9.70,-3.70,-9.70,9.70,9.63,12.75,6.00,6.01,6.00
33.55,-3.63,-9.63,-3.63,-9.63,9.63,9.56,12.60,6.00,6.00,6.00
33.89,-3.57,-9.56,-3.57,-9.56,9.56,9.48,12.43,5.99,5.99,5.99
34.23,-3.50,-9.47,-3.50,-9.48,9.48,9.40,12.25,5.98,5.98,5.97
34.57,-3.44,-9.41,-3.44,-9.41,9.41,9.33,12.05,5.97,5.97,5.97
34.92,-3.37,-9.32,-3.37,-9.33,9.33,9.25,11.85,5.96,5.96,5.95
35.27,-3.30,-9.27,-3.30,-9.26,9.26,9.17,11.64,5.96,5.96,5.97
35.62,-3.23,-9.17,-3.23,-9.18,9.18,9.10,11.43,5.95,5.95,5.94
35.97,-3.16,-9.10,-3.17,-9.11,9.11,9.02,11.21,5.95,5.94,5.94
36.33,-3.11,-9.03,-3.11,-9.03,9.03,8.94,11.00,5.92,5.92,5.92
36.70,-3.05,-8.95,-3.05,-8.95,8.95,8.87,10.78,5.90,5.90,5.90
37.06,-2.99,-8.87,-2.99,-8.87,8.87,8.79,10.56,5.88,5.88,5.88
37.43,-2.93,-8.79,-2.93,-8.79,8.79,8.71,10.34,5.86,5.87,5.86
37.81,-2.86,-8.71,-2.86,-8.71,8.71,8.64,10.13,5.85,5.85,5.85
38.19,-2.80,-8.62,-2.80,-8.63,8.63,8.56,9.92,5.83,5.83,5.82
38.57,-2.74,-8.54,-2.74,-8.55,8.55,8.48,9.71,5.81,5.81,5.80
38.95,-2.69,-8.48,-2.69,-8.47,8.47,8.40,9.51,5.78,5.78,5.79
39.34,-2.63,-8.39,-2.63,-8.39,8.39,8.33,9.31,5.76,5.76,5.76
39.74,-2.57,-8.30,-2.57,-8.31,8.31,8.25,9.12,5.74,5.73,5.73
40.14,-2.51,-8.22,-2.51,-8.22,8.23,8.17,8.93,5.71,5.71,5.71
40.54,-2.45,-8.14,-2.45,-8.14,8.14,8.09,8.75,5.69,5.70,5.69
40.94,-2.39,-8.05,-2.39,-8.06,8.06,8.02,8.57,5.67,5.67,5.66
41.35,-2.33,-7.98,-2.33,-7.98,7.98,7.94,8.40,5.65,5.65,5.65
41.76,-2.28,-7.90,-2.28,-7.90,7.90,7.86,8.24,5.62,5.63,5.62
42.18,-2.22,-7.83,-2.22,-7.83,7.82,7.78,8.07,5.60,5.60,5.61
42.60,-2.16,-7.74,-2.16,-7.75,7.74,7.71,7.92,5.58,5.58,5.58
43.03,-2.11,-7.67,-2.11,-7.66,7.67,7.63,7.77,5.56,5.56,5.56
43.46,-2.05,-7.57,-2.05,-7.58,7.59,7.55,7.62,5.54,5.54,5.52
43.90,-2.00,-7.50,-2.00,-7.50,7.51,7.47,7.48,5.51,5.51,5.50
44.33,-1.96,-7.43,-1.96,-7.43,7.43,7.40,7.35,5.47,5.48,5.47
44.78,-1.91,-7.36,-1.91,-7.36,7.36,7.32,7.22,5.45,5.45,5.45
45.23,-1.86,-7.29,-1.86,-7.28,7.28,7.24,7.09,5.41,5.41,5.43
45.68,-1.81,-7.19,-1.81,-7.20,7.19,7.16,6.97,5.38,5.38,5.38
46.13,-1.76,-7.11,-1.76,-7.11,7.11,7.09,6.86,5.35,5.35,5.35
46.60,-1.71,-7.02,-1.71,-7.03,7.03,7.01,6.75,5.32,5.32,5.31
47.06,-1.66,-6.94,-1.66,-6.94,6.94,6.93,6.64,5.28,5.28,5.28
47.53,-1.62,-6.86,-1.62,-6.86,6.86,6.85,6.54,5.24,5.24,5.24
48.01,-1.57,-6.76,-1.58,-6.77,6.77,6.77,6.44,5.20,5.20,5.19
48.49,-1.54,-6.69,-1.54,-6.69,6.69,6.70,6.35,5.15,5.15,5.15
48.97,-1.50,-6.60,-1.50,-6.60,6.61,6.62,6.26,5.11,5.11,5.10
49.46,-1.46,-6.53,-1.46,-6.53,6.53,6.54,6.18,5.07,5.07,5.07
49.96,-1.42,-6.43,-1.42,-6.45,6.45,6.46,6.09,5.03,5.02,5.01
50.46,-1.39,-6.37,-1.39,-6.37,6.37,6.38,6.02,4.98,4.98,4.98
50.96,-1.35,-6.29,-1.35,-6.29,6.29,6.31,5.94,4.94,4.94,4.94
51.47,-1.31,-6.21,-1.31,-6.21,6.21,6.23,5.87,4.90,4.90,4.90
51.99,-1.26,-6.11,-1.26,-6.13,6.13,6.15,5.80,4.87,4.86,4.85
52.51,-1.22,-6.04,-1.22,-6.05,6.05,6.07,5.73,4.83,4.82,4.82
53.03,-1.19,-5.98,-1.18,-5.97,5.97,5.99,5.66,4.78,4.78,4.79
53.56,-1.15,-5.89,-1.15,-5.89,5.89,5.92,5.60,4.74,4.74,4.74
54.10,-1.11,-5.80,-1.11,-5.81,5.81,5.84,5.54,4.70,4.70,4.69
54.64,-1.08,-5.73,-1.08,-5.73,5.74,5.76,5.47,4.66,4.66,4.65
55.18,-1.05,-5.66,-1.05,-5.66,5.66,5.68,5.41,4.61,4.61,4.61
55.74,-1.01,-5.57,-1.01,-5.59,5.58,5.60,5.35,4.57,4.57,4.56
56.29,-0.97,-5.51,-0.98,-5.51,5.51,5.52,5.29,4.54,4.53,4.54
56.86,-0.94,-5.44,-0.94,-5.43,5.43,5.44,5.24,4.49,4.50,4.50
57.42,-0.90,-5.35,-0.90,-5.35,5.36,5.37,5.18,4.46,4.46,4.45
58.00,-0.85,-5.26,-0.86,-5.28,5.28,5.29,5.12,4.43,4.42,4.41
58.58,-0.82,-5.20,-0.82,-5.20,5.20,5.21,5.05,4.38,4.38,4.38
59.16,-0.78,-5.13,-0.78,-5.13,5.12,5.13,4.99,4.34,4.34,4.35
59.76,-0.74,-5.04,-0.74,-5.04,5.03,5.05,4.93,4.29,4.29,4.30
60.35,-0.70,-4.95,-0.70,-4.95,4.95,4.97,4.87,4.25,4.25,4.25
60.96,-0.66,-4.85,-0.66,-4.86,4.86,4.89,4.80,4.20,4.19,4.19
61.57,-0.63,-4.76,-0.63,-4.76,4.77,4.81,4.73,4.14,4.14,4.13
62.18,-0.60,-4.67,-0.60,-4.67,4.68,4.73,4.66,4.08,4.08,4.07
62.80,-0.56,-4.57,-0.56,-4.58,4.59,4.65,4.59,4.03,4.02,4.01
63.43,-0.53,-4.49,-0.53,-4.49,4.49,4.57,4.51,3.97,3.96,3.96
64.07,-0.50,-4.41,-0.50,-4.41,4.40,4.49,4.44,3.90,3.91,3.91
64.71,-0.46,-4.32,-0.46,-4.32,4.31,4.41,4.36,3.85,3.85,3.86
65.35,-0.42,-4.22,-0.42,-4.23,4.22,4.33,4.28,3.80,3.80,3.80
66.01,-0.38,-4.13,-0.38,-4.14,4.13,4.25,4.20,3.75,3.76,3.75
66.67,-0.34,-4.05,-0.34,-4.04,4.05,4.17,4.11,3.71,3.71,3.71
67.33,-0.30,-3.94,-0.30,-3.95,3.96,4.09,4.03,3.66,3.66,3.64
68.01,-0.27,-3.86,-0.27,-3.86,3.87,4.01,3.94,3.60,3.60,3.59
68.69,-0.24,-3.78,-0.24,-3.78,3.78,3.93,3.85,3.54,3.54,3.54
69.37,-0.21,-3.70,-0.21,-3.70,3.70,3.85,3.76,3.49,3.49,3.49
70.07,-0.19,-3.62,-0.19,-3.62,3.61,3.77,3.67,3.42,3.43,3.43
70.77,-0.16,-3.52,-0.16,-3.53,3.53,3.69,3.58,3.37,3.37,3.36
71.48,-0.14,-3.45,-0.14,-3.45,3.45,3.61,3.48,3.31,3.31,3.31
72.19,-0.11,-3.36,-0.11,-3.36,3.37,3.53,3.39,3.26,3.25,3.25
72.91,-0.09,-3.27,-0.09,-3.28,3.28,3.45,3.30,3.19,3.19,3.18
73.64,-0.07,-3.20,-0.07,-3.20,3.20,3.37,3.20,3.13,3.13,3.13
74.38,-0.05,-3.12,-0.05,-3.12,3.12,3.29,3.11,3.07,3.07,3.07
75.12,-0.02,-3.04,-0.02,-3.04,3.03,3.21,3.01,3.02,3.02,3.02
75.87,0.01,-2.96,0.01,-2.96,2.95,3.13,2.92,2.96,2.97,2.97
76.63,0.05,-2.86,0.05,-2.87,2.87,3.05,2.83,2.92,2.92,2.91
77.40,0.08,-2.79,0.08,-2.79,2.79,2.96,2.73,2.87,2.87,2.87
78.17,0.11,-2.70,0.11,-2.71,2.72,2.88,2.64,2.83,2.82,2.81
78.95,0.13,-2.64,0.13,-2.64,2.64,2.80,2.55,2.77,2.77,2.77
79.74,0.15,-2.57,0.16,-2.56,2.57,2.72,2.46,2.72,2.72,2.72
80.54,0.18,-2.49,0.18,-2.50,2.49,2.64,2.37,2.68,2.67,2.67
81.35,0.20,-2.41,0.20,-2.43,2.42,2.56,2.28,2.62,2.62,2.61
82.16,0.21,-2.37,0.22,-2.36,2.35,2.48,2.19,2.56,2.57,2.58
82.98,0.24,-2.28,0.24,-2.29,2.28,2.40,2.10,2.52,2.52,2.52
83.81,0.26,-2.21,0.26,-2.21,2.21,2.31,2.01,2.47,2.47,2.47
84.65,0.28,-2.13,0.28,-2.13,2.14,2.23,1.93,2.42,2.42,2.41
85.50,0.29,-2.06,0.29,-2.06,2.07,2.15,1.84,2.36,2.36,2.35
86.35,0.31,-1.99,0.31,-2.00,2.00,2.07,1.76,2.31,2.31,2.30
87.22,0.32,-1.93,0.32,-1.93,1.93,1.99,1.67,2.25,2.25,2.25
88.09,0.33,-1.86,0.33,-1.86,1.86,1.91,1.59,2.19,2.19,2.19
88.97,0.35,-1.78,0.35,-1.79,1.79,1.83,1.51,2.14,2.14,2.13
89.86,0.37,-1.71,0.36,-1.71,1.71,1.75,1.43,2.08,2.08,2.08
90.76,0.38,-1.64,0.38,-1.64,1.64,1.66,1.35,2.02,2.02,2.02
91.66,0.40,-1.55,0.40,-1.56,1.56,1.58,1.27,1.96,1.96,1.95
92.58,0.43,-1.47,0.43,-1.48,1.47,1.50,1.19,1.90,1.90,1.90
93.51,0.46,-1.39,0.46,-1.39,1.38,1.42,1.12,1.84,1.84,1.85
94.44,0.49,-1.30,0.49,-1.30,1.29,1.34,1.04,1.78,1.78,1.79
95.39,0.52,-1.20,0.52,-1.21,1.20,1.26,0.97,1.72,1.72,1.72
96.34,0.55,-1.10,0.55,-1.11,1.10,1.18,0.89,1.65,1.65,1.65
97.30,0.58,-1.01,0.58,-1.01,1.01,1.10,0.82,1.59,1.59,1.59
98.28,0.61,-0.91,0.61,-0.91,0.92,1.02,0.74,1.53,1.53,1.52
99.26,0.64,-0.82,0.63,-0.83,0.84,0.94,0.67,1.48,1.47,1.46
100.25,0.65,-0.75,0.65,-0.75,0.76,0.86,0.60,1.41,1.41,1.40
101.25,0.66,-0.69,0.66,-0.69,0.69,0.78,0.53,1.35,1.35,1.35
102.27,0.67,-0.62,0.67,-0.63,0.63,0.71,0.46,1.30,1.30,1.29
103.29,0.67,-0.56,0.67,-0.57,0.57,0.63,0.39,1.24,1.24,1.23
104.32,0.67,-0.51,0.67,-0.51,0.51,0.55,0.33,1.18,1.18,1.18
105.37,0.66,-0.46,0.66,-0.47,0.46,0.47,0.26,1.12,1.12,1.12
106.42,0.65,-0.42,0.65,-0.42,0.41,0.39,0.19,1.06,1.07,1.07
107.48,0.65,-0.36,0.65,-0.37,0.36,0.32,0.13,1.01,1.01,1.01
108.56,0.65,-0.31,0.65,-0.31,0.31,0.24,0.07,0.96,0.96,0.96
109.64,0.65,-0.25,0.65,-0.25,0.25,0.16,0.00,0.90,0.90,0.90
110.74,0.65,-0.19,0.65,-0.19,0.20,0.09,-0.06,0.85,0.85,0.84
111.85,0.65,-0.13,0.65,-0.14,0.14,0.01,-0.12,0.79,0.79,0.78
112.97,0.65,-0.08,0.65,-0.08,0.07,-0.06,-0.17,0.72,0.72,0.73
114.10,0.65,-0.02,0.65,-0.02,0.01,-0.14,-0.23,0.66,0.66,0.67
115.24,0.65,0.06,0.65,0.05,-0.05,-0.21,-0.29,0.60,0.60,0.59
116.39,0.65,0.12,0.65,0.12,-0.11,-0.29,-0.34,0.54,0.54,0.53
117.55,0.65,0.18,0.65,0.18,-0.17,-0.36,-0.39,0.48,0.48,0.47
118.73,0.65,0.24,0.65,0.23,-0.22,-0.43,-0.44,0.43,0.43,0.41
119.92,0.65,0.28,0.65,0.28,-0.28,-0.50,-0.49,0.37,0.37,0.37
121.12,0.65,0.33,0.65,0.33,-0.33,-0.58,-0.54,0.32,0.32,0.32
122.33,0.65,0.39,0.65,0.38,-0.39,-0.65,-0.58,0.26,0.26,0.26
123.55,0.65,0.44,0.65,0.44,-0.44,-0.72,-0.63,0.21,0.21,0.21
124.79,0.65,0.49,0.65,0.49,-0.49,-0.79,-0.67,0.16,0.16,0.16
126.03,0.65,0.55,0.65,0.54,-0.54,-0.86,-0.71,0.11,0.11,0.10
127.29,0.64,0.59,0.64,0.59,-0.59,-0.92,-0.74,0.05,0.05,0.05
128.57,0.64,0.66,0.64,0.65,-0.65,-0.99,-0.78,-0.01,-0.01,-0.02
129.85,0.63,0.70,0.63,0.70,-0.70,-1.06,-0.82,-0.07,-0.07,-0.07
131.15,0.63,0.76,0.63,0.76,-0.76,-1.12,-0.85,-0.13,-0.13,-0.13
132.46,0.64,0.82,0.64,0.82,-0.82,-1.19,-0.88,-0.18,-0.18,-0.18
133.79,0.65,0.89,0.65,0.88,-0.89,-1.25,-0.91,-0.24,-0.24,-0.24
135.12,0.67,0.96,0.67,0.95,-0.96,-1.32,-0.94,-0.29,-0.29,-0.29
136.48,0.68,1.02,0.69,1.03,-1.03,-1.38,-0.97,-0.35,-0.34,-0.34
137.84,0.72,1.11,0.71,1.10,-1.11,-1.44,-1.00,-0.39,-0.39,-0.39
139.22,0.74,1.19,0.74,1.18,-1.18,-1.50,-1.03,-0.44,-0.44,-0.45
140.61,0.77,1.26,0.78,1.27,-1.27,-1.56,-1.06,-0.50,-0.49,-0.49
142.02,0.82,1.37,0.81,1.35,-1.35,-1.62,-1.08,-0.53,-0.54,-0.55
143.44,0.84,1.43,0.84,1.43,-1.43,-1.68,-1.11,-0.59,-0.59,-0.59
144.87,0.88,1.51,0.88,1.51,-1.52,-1.74,-1.13,-0.64,-0.64,-0.63
146.32,0.91,1.59,0.91,1.59,-1.60,-1.79,-1.16,-0.69,-0.68,-0.68
147.78,0.95,1.67,0.95,1.67,-1.67,-1.85,-1.19,-0.72,-0.72,-0.72
149.26,0.98,1.75,0.98,1.74,-1.73,-1.90,-1.21,-0.75,-0.75,-0.77
150.75,1.00,1.81,1.00,1.80,-1.79,-1.95,-1.24,-0.79,-0.79,-0.81
152.26,1.00,1.85,1.00,1.85,-1.83,-2.00,-1.27,-0.83,-0.83,-0.85
153.78,0.99,1.88,0.99,1.87,-1.87,-2.05,-1.29,-0.88,-0.88,-0.89
155.32,0.97,1.90,0.97,1.90,-1.90,-2.10,-1.32,-0.93,-0.93,-0.93
156.88,0.93,1.91,0.94,1.91,-1.92,-2.15,-1.35,-0.99,-0.98,-0.98
158.44,0.91,1.94,0.90,1.92,-1.93,-2.20,-1.38,-1.02,-1.03,-1.03
160.03,0.86,1.93,0.87,1.94,-1.94,-2.24,-1.41,-1.08,-1.07,-1.07
161.63,0.84,1.95,0.84,1.95,-1.95,-2.29,-1.44,-1.11,-1.11,-1.11
163.24,0.81,1.97,0.80,1.96,-1.96,-2.33,-1.48,-1.15,-1.16,-1.16
164.88,0.76,1.97,0.77,1.98,-1.97,-2.37,-1.51,-1.21,-1.20,-1.21
166.53,0.74,2.00,0.74,1.99,-1.98,-2.41,-1.55,-1.24,-1.25,-1.26
168.19,0.71,2.00,0.70,2.00,-2.00,-2.45,-1.59,-1.29,-1.30,-1.29
169.87,0.67,2.02,0.68,2.02,-2.02,-2.49,-1.62,-1.35,-1.35,-1.35
171.57,0.65,2.05,0.65,2.04,-2.05,-2.53,-1.66,-1.40,-1.40,-1.40
173.29,0.64,2.08,0.64,2.08,-2.09,-2.56,-1.70,-1.45,-1.45,-1.44
175.02,0.63,2.12,0.63,2.12,-2.12,-2.59,-1.75,-1.49,-1.49,-1.49
176.77,0.63,2.17,0.63,2.16,-2.17,-2.63,-1.79,-1.54,-1.54,-1.54
178.54,0.63,2.21,0.63,2.22,-2.21,-2.66,-1.84,-1.58,-1.58,-1.58
180.32,0.64,2.28,0.64,2.27,-2.26,-2.69,-1.89,-1.62,-1.62,-1.64
182.13,0.65,2.32,0.65,2.32,-2.31,-2.72,-1.94,-1.66,-1.67,-1.67
183.95,0.65,2.37,0.65,2.37,-2.36,-2.74,-1.99,-1.71,-1.71,-1.72
185.79,0.65,2.42,0.65,2.41,-2.41,-2.77,-2.04,-1.76,-1.76,-1.77
187.65,0.65,2.46,0.65,2.46,-2.46,-2.79,-2.09,-1.81,-1.81,-1.81
189.52,0.65,2.50,0.65,2.50,-2.50,-2.82,-2.15,-1.85,-1.85,-1.85
191.42,0.65,2.54,0.65,2.54,-2.54,-2.84,-2.20,-1.89,-1.89,-1.89
193.33,0.65,2.58,0.65,2.58,-2.59,-2.86,-2.26,-1.94,-1.94,-1.93
195.27,0.65,2.63,0.65,2.63,-2.63,-2.88,-2.32,-1.98,-1.98,-1.98
197.22,0.65,2.68,0.65,2.67,-2.66,-2.90,-2.38,-2.01,-2.01,-2.03
199.19,0.65,2.71,0.65,2.71,-2.70,-2.91,-2.44,-2.05,-2.05,-2.06
201.18,0.65,2.75,0.65,2.74,-2.74,-2.93,-2.50,-2.09,-2.09,-2.10
203.19,0.65,2.78,0.65,2.77,-2.77,-2.94,-2.56,-2.12,-2.12,-2.13
205.23,0.65,2.80,0.65,2.80,-2.81,-2.95,-2.62,-2.16,-2.16,-2.15
207.28,0.65,2.83,0.65,2.83,-2.84,-2.97,-2.68,-2.19,-2.19,-2.18
209.35,0.65,2.87,0.65,2.87,-2.87,-2.98,-2.74,-2.22,-2.22,-2.22
211.44,0.66,2.91,0.66,2.90,-2.91,-2.99,-2.80,-2.25,-2.25,-2.25
213.56,0.67,2.94,0.67,2.94,-2.94,-2.99,-2.87,-2.27,-2.27,-2.27
215.69,0.67,2.97,0.67,2.96,-2.96,-3.00,-2.92,-2.29,-2.29,-2.30
217.85,0.66,2.99,0.66,2.99,-2.98,-3.01,-2.98,-2.32,-2.32,-2.33
220.03,0.65,3.01,0.65,3.01,-3.00,-3.01,-3.04,-2.35,-2.34,-2.36
222.23,0.64,3.03,0.63,3.02,-3.01,-3.01,-3.09,-2.37,-2.37,-2.39
224.45,0.61,3.01,0.61,3.01,-3.01,-3.02,-3.15,-2.40,-2.40,-2.40
226.70,0.57,3.00,0.58,3.00,-3.00,-3.02,-3.20,-2.43,-2.42,-2.43
228.96,0.54,2.98,0.54,2.98,-2.99,-3.02,-3.24,-2.45,-2.44,-2.44
231.25,0.52,2.98,0.51,2.97,-2.97,-3.02,-3.28,-2.45,-2.46,-2.46
233.57,0.48,2.96,0.48,2.96,-2.96,-3.01,-3.33,-2.48,-2.48,-2.48
235.90,0.44,2.93,0.45,2.94,-2.94,-3.01,-3.36,-2.50,-2.49,-2.49
238.26,0.42,2.94,0.42,2.92,-2.92,-3.01,-3.39,-2.50,-2.50,-2.52
240.64,0.39,2.90,0.39,2.90,-2.90,-3.00,-3.42,-2.51,-2.51,-2.51
243.05,0.36,2.89,0.36,2.89,-2.89,-3.00,-3.44,-2.53,-2.52,-2.53
245.48,0.34,2.88,0.33,2.87,-2.87,-2.99,-3.46,-2.53,-2.54,-2.54
247.93,0.31,2.86,0.31,2.85,-2.86,-2.99,-3.47,-2.55,-2.55,-2.55
250.41,0.30,2.84,0.30,2.85,-2.86,-2.98,-3.48,-2.56,-2.56,-2.54
252.92,0.30,2.85,0.30,2.85,-2.86,-2.97,-3.48,-2.56,-2.56,-2.55
255.45,0.31,2.87,0.31,2.86,-2.86,-2.96,-3.48,-2.55,-2.55,-2.56
258.00,0.32,2.88,0.32,2.87,-2.86,-2.95,-3.47,-2.54,-2.55,-2.56
260.58,0.32,2.88,0.32,2.88,-2.87,-2.94,-3.46,-2.55,-2.55,-2.56
263.19,0.32,2.88,0.32,2.88,-2.88,-2.93,-3.44,-2.56,-2.55,-2.56
265.82,0.32,2.89,0.32,2.88,-2.88,-2.92,-3.42,-2.56,-2.56,-2.57
268.48,0.32,2.89,0.32,2.89,-2.89,-2.91,-3.39,-2.57,-2.57,-2.57
271.16,0.32,2.89,0.32,2.89,-2.89,-2.89,-3.36,-2.57,-2.57,-2.57
273.87,0.32,2.89,0.32,2.89,-2.89,-2.88,-3.33,-2.57,-2.57,-2.57
276.61,0.32,2.89,0.32,2.89,-2.89,-2.87,-3.29,-2.57,-2.57,-2.57
279.38,0.32,2.91,0.32,2.90,-2.90,-2.85,-3.26,-2.58,-2.58,-2.59
282.17,0.32,2.91,0.32,2.90,-2.90,-2.84,-3.21,-2.58,-2.58,-2.59
284.99,0.32,2.90,0.32,2.90,-2.90,-2.82,-3.17,-2.58,-2.58,-2.58
287.84,0.32,2.89,0.32,2.89,-2.89,-2.81,-3.12,-2.57,-2.57,-2.57
290.72,0.32,2.90,0.32,2.89,-2.89,-2.79,-3.08,-2.57,-2.57,-2.58
293.63,0.32,2.89,0.32,2.89,-2.89,-2.78,-3.03,-2.57,-2.57,-2.57
296.57,0.32,2.88,0.32,2.88,-2.88,-2.76,-2.98,-2.56,-2.56,-2.56
299.53,0.32,2.88,0.32,2.87,-2.88,-2.75,-2.93,-2.56,-2.56,-2.56
302.53,0.33,2.87,0.33,2.87,-2.88,-2.73,-2.88,-2.55,-2.56,-2.54
305.55,0.33,2.88,0.33,2.87,-2.88,-2.72,-2.83,-2.55,-2.54,-2.55
308.61,0.34,2.88,0.34,2.88,-2.88,-2.70,-2.78,-2.54,-2.53,-2.54
311.69,0.35,2.88,0.34,2.88,-2.87,-2.69,-2.74,-2.52,-2.52,-2.53
314.81,0.34,2.87,0.34,2.87,-2.86,-2.67,-2.69,-2.52,-2.51,-2.53
317.96,0.33,2.85,0.33,2.85,-2.84,-2.66,-2.64,-2.51,-2.51,-2.52
321.14,0.32,2.83,0.31,2.82,-2.82,-2.64,-2.59,-2.50,-2.50,-2.51
324.35,0.29,2.80,0.29,2.79,-2.79,-2.62,-2.55,-2.50,-2.50,-2.51
327.59,0.26,2.74,0.27,2.75,-2.76,-2.61,-2.51,-2.50,-2.49,-2.48
330.87,0.24,2.73,0.24,2.72,-2.72,-2.59,-2.46,-2.48,-2.49,-2.49
334.18,0.21,2.69,0.21,2.68,-2.68,-2.58,-2.42,-2.47,-2.48,-2.48
337.52,0.17,2.65,0.17,2.65,-2.64,-2.57,-2.38,-2.47,-2.47,-2.48
340.90,0.14,2.60,0.14,2.60,-2.60,-2.55,-2.35,-2.46,-2.46,-2.46
344.30,0.11,2.56,0.11,2.56,-2.56,-2.54,-2.31,-2.45,-2.45,-2.45
347.75,0.08,2.53,0.08,2.52,-2.52,-2.52,-2.28,-2.44,-2.44,-2.45
351.23,0.05,2.50,0.05,2.49,-2.48,-2.51,-2.25,-2.43,-2.44,-2.45
354.74,0.02,2.44,0.02,2.45,-2.45,-2.50,-2.21,-2.43,-2.43,-2.42
358.28,-0.01,2.42,-0.00,2.42,-2.43,-2.49,-2.19,-2.44,-2.43,-2.43
361.87,-0.02,2.40,-0.02,2.39,-2.41,-2.47,-2.16,-2.43,-2.43,-2.42
365.49,-0.02,2.39,-0.02,2.38,-2.39,-2.46,-2.13,-2.41,-2.41,-2.41
369.14,-0.02,2.37,-0.02,2.38,-2.38,-2.45,-2.11,-2.40,-2.40,-2.39
372.83,-0.01,2.38,-0.01,2.38,-2.37,-2.44,-2.09,-2.38,-2.38,-2.39
376.56,0.00,2.39,-0.00,2.38,-2.37,-2.43,-2.07,-2.37,-2.37,-2.39
380.33,0.00,2.38,0.00,2.37,-2.36,-2.41,-2.05,-2.36,-2.36,-2.38
384.13,0.00,2.36,0.00,2.37,-2.36,-2.40,-2.03,-2.36,-2.36,-2.36
387.97,0.00,2.36,-0.00,2.35,-2.35,-2.39,-2.02,-2.35,-2.35,-2.36
391.85,0.00,2.35,-0.00,2.35,-2.34,-2.38,-2.00,-2.34,-2.34,-2.35
395.77,0.00,2.34,-0.00,2.33,-2.33,-2.37,-1.99,-2.33,-2.33,-2.34
399.73,0.00,2.33,-0.00,2.32,-2.32,-2.36,-1.98,-2.32,-2.32,-2.33
403.72,0.00,2.30,-0.00,2.31,-2.31,-2.34,-1.97,-2.31,-2.31,-2.30
407.76,0.00,2.31,-0.00,2.30,-2.30,-2.33,-1.96,-2.30,-2.31,-2.31
411.84,0.00,2.30,-0.00,2.29,-2.30,-2.32,-1.95,-2.30,-2.30,-2.30
415.96,0.00,2.28,0.00,2.29,-2.29,-2.30,-1.95,-2.29,-2.29,-2.28
420.12,0.01,2.29,0.01,2.28,-2.29,-2.29,-1.94,-2.28,-2.28,-2.28
424.32,0.02,2.29,0.02,2.28,-2.28,-2.27,-1.94,-2.26,-2.26,-2.27
428.56,0.02,2.27,0.02,2.27,-2.27,-2.26,-1.93,-2.25,-2.25,-2.25
432.85,0.02,2.26,0.02,2.26,-2.26,-2.24,-1.93,-2.24,-2.24,-2.24
437.18,0.00,2.25,0.01,2.25,-2.24,-2.22,-1.93,-2.24,-2.23,-2.25
441.55,-0.01,2.23,-0.01,2.22,-2.21,-2.20,-1.92,-2.22,-2.23,-2.24
445.96,-0.03,2.20,-0.04,2.19,-2.18,-2.18,-1.92,-2.21,-2.22,-2.23
450.42,-0.07,2.15,-0.06,2.16,-2.15,-2.15,-1.92,-2.22,-2.21,-2.22
454.93,-0.09,2.12,-0.10,2.11,-2.11,-2.13,-1.92,-2.20,-2.21,-2.21
459.48,-0.13,2.07,-0.13,2.07,-2.07,-2.11,-1.92,-2.20,-2.20,-2.20
464.07,-0.16,2.02,-0.16,2.02,-2.03,-2.08,-1.91,-2.19,-2.19,-2.18
468.71,-0.19,1.98,-0.19,1.98,-1.98,-2.06,-1.91,-2.17,-2.18,-2.17
473.40,-0.23,1.94,-0.22,1.94,-1.94,-2.03,-1.91,-2.17,-2.16,-2.17
478.13,-0.25,1.91,-0.25,1.90,-1.90,-2.00,-1.90,-2.15,-2.15,-2.16
482.91,-0.28,1.87,-0.28,1.86,-1.86,-1.98,-1.90,-2.14,-2.15,-2.15
