frequency,raw,error,smoothed,error_smoothed,equalization,parametric_eq,fixed_band_eq,equalized_raw,equalized_smoothed,target
20.00,-19.14,-19.66,-19.03,-19.57,19.57,19.35,8.13,0.43,0.54,0.52
20.20,-19.00,-19.56,-18.93,-19.50,19.50,19.48,8.30,0.50,0.57,0.56
20.40,-18.85,-19.44,-18.83,-19.43,19.43,19.58,8.47,0.58,0.60,0.59
20.61,-18.71,-19.34,-18.72,-19.35,19.35,19.65,8.65,0.64,0.63,0.62
20.81,-18.56,-19.22,-18.62,-19.28,19.28,19.70,8.84,0.72,0.65,0.66
21.02,-18.42,-19.12,-18.52,-19.20,19.20,19.72,9.02,0.78,0.68,0.70
21.23,-18.33,-19.04,-18.42,-19.11,19.11,19.72,9.22,0.79,0.70,0.71
21.44,-18.23,-18.96,-18.31,-19.03,19.03,19.68,9.41,0.80,0.72,0.73
21.66,-18.14,-18.89,-18.21,-18.95,18.95,19.63,9.62,0.81,0.74,0.75
21.87,-18.04,-18.80,-18.11,-18.86,18.86,19.55,9.83,0.82,0.75,0.76
22.09,-17.97,-18.74,-18.00,-18.77,18.77,19.45,10.04,0.80,0.77,0.77
22.31,-17.91,-18.68,-17.90,-18.68,18.68,19.33,10.26,0.77,0.78,0.77
22.54,-17.85,-18.63,-17.81,-18.60,18.60,19.20,10.48,0.75,0.79,0.78
22.76,-17.79,-18.58,-17.71,-18.51,18.51,19.05,10.72,0.72,0.80,0.79
22.99,-17.73,-18.52,-17.61,-18.42,18.42,18.89,10.95,0.69,0.81,0.79
23.22,-17.59,-18.39,-17.51,-18.32,18.32,18.72,11.20,0.73,0.81,0.80
23.45,-17.44,-18.25,-17.40,-18.22,18.22,18.55,11.45,0.78,0.82,0.81
23.69,-17.29,-18.12,-17.29,-18.12,18.12,18.36,11.71,0.83,0.83,0.82
23.92,-17.14,-17.97,-17.18,-18.01,18.01,18.18,11.98,0.87,0.83,0.83
24.16,-17.02,-17.86,-17.07,-17.90,17.90,17.99,12.25,0.89,0.83,0.84
24.40,-16.91,-17.76,-16.96,-17.80,17.80,17.80,12.53,0.89,0.84,0.85
24.65,-16.80,-17.64,-16.86,-17.70,17.70,17.61,12.82,0.89,0.84,0.84
24.89,-16.69,-17.53,-16.75,-17.59,17.59,17.42,13.12,0.90,0.84,0.84
25.14,-16.59,-17.43,-16.65,-17.49,17.49,17.24,13.42,0.90,0.84,0.84
25.39,-16.52,-17.36,-16.54,-17.38,17.38,17.05,13.74,0.86,0.84,0.84
25.65,-16.44,-17.28,-16.43,-17.27,17.27,16.87,14.06,0.83,0.84,0.84
25.91,-16.36,-17.19,-16.32,-17.16,17.16,16.69,14.39,0.80,0.84,0.82
26.16,-16.27,-17.10,-16.21,-17.05,17.05,16.52,14.74,0.78,0.84,0.83
26.43,-16.17,-17.01,-16.10,-16.93,16.93,16.35,15.08,0.76,0.84,0.83
26.69,-16.07,-16.90,-15.98,-16.82,16.82,16.18,15.44,0.75,0.83,0.83
26.96,-15.97,-16.80,-15.87,-16.70,16.70,16.02,15.81,0.73,0.83,0.83
27.23,-15.80,-16.64,-15.75,-16.58,16.58,15.87,16.18,0.78,0.83,0.83
27.50,-15.62,-16.45,-15.64,-16.47,16.47,15.71,16.55,0.85,0.83,0.83
27.77,-15.44,-16.26,-15.53,-16.35,16.35,15.57,16.93,0.92,0.82,0.82
28.05,-15.28,-16.10,-15.42,-16.24,16.24,15.42,17.31,0.96,0.82,0.82
28.33,-15.21,-16.01,-15.31,-16.12,16.12,15.28,17.69,0.92,0.82,0.80
28.62,-15.14,-15.95,-15.20,-16.01,16.01,15.15,18.06,0.87,0.82,0.81
28.90,-15.07,-15.88,-15.09,-15.91,15.91,15.02,18.42,0.84,0.82,0.81
29.19,-15.00,-15.80,-14.99,-15.81,15.81,14.90,18.76,0.81,0.81,0.80
29.48,-14.93,-15.74,-14.90,-15.71,15.71,14.78,19.08,0.78,0.81,0.81
29.78,-14.86,-15.67,-14.81,-15.61,15.61,14.66,19.37,0.75,0.80,0.81
30.08,-14.78,-15.59,-14.72,-15.52,15.52,14.55,19.62,0.74,0.80,0.81
30.38,-14.67,-15.47,-14.63,-15.42,15.42,14.45,19.82,0.75,0.80,0.79
30.68,-14.55,-15.34,-14.54,-15.33,15.33,14.34,19.96,0.78,0.79,0.79
30.99,-14.44,-15.23,-14.44,-15.23,15.23,14.25,20.05,0.79,0.79,0.78
31.30,-14.34,-15.12,-14.34,-15.12,15.12,14.15,20.08,0.78,0.78,0.78
31.61,-14.25,-15.03,-14.23,-15.01,15.01,14.06,20.04,0.76,0.78,0.78
31.93,-14.15,-14.92,-14.13,-14.90,14.90,13.97,19.94,0.75,0.77,0.76
32.24,-14.02,-14.77,-14.02,-14.79,14.79,13.89,19.79,0.77,0.77,0.75
32.57,-13.88,-14.63,-13.92,-14.68,14.68,13.81,19.58,0.80,0.76,0.75
32.89,-13.75,-14.50,-13.81,-14.56,14.56,13.73,19.34,0.81,0.75,0.75
33.22,-13.64,-14.39,-13.70,-14.45,14.45,13.66,19.06,0.81,0.75,0.75
33.55,-13.56,-14.30,-13.59,-14.33,14.33,13.58,18.76,0.77,0.75,0.74
33.89,-13.48,-14.22,-13.48,-14.22,14.22,13.51,18.44,0.74,0.74,0.74
34.23,-13.40,-14.14,-13.37,-14.10,14.10,13.45,18.11,0.70,0.74,0.74
34.57,-13.32,-14.05,-13.26,-13.99,13.99,13.38,17.76,0.67,0.73,0.73
34.92,-13.24,-13.96,-13.15,-13.87,13.87,13.32,17.42,0.63,0.73,0.72
35.27,-13.10,-13.83,-13.04,-13.76,13.76,13.25,17.08,0.66,0.72,0.72
35.62,-12.94,-13.65,-12.93,-13.65,13.65,13.19,16.74,0.70,0.72,0.71
35.97,-12.78,-13.48,-12.82,-13.53,13.53,13.13,16.40,0.75,0.71,0.70
36.33,-12.68,-13.38,-12.72,-13.43,13.43,13.07,16.07,0.75,0.70,0.70
36.70,-12.59,-13.29,-12.63,-13.32,13.32,13.01,15.75,0.73,0.70,0.70
37.06,-12.50,-13.18,-12.54,-13.23,13.23,12.95,15.44,0.73,0.69,0.68
37.43,-12.42,-13.10,-12.46,-13.14,13.14,12.89,15.13,0.72,0.68,0.68
37.81,-12.35,-13.02,-12.38,-13.06,13.06,12.83,14.84,0.71,0.68,0.67
38.19,-12.27,-12.93,-12.31,-12.97,12.97,12.77,14.55,0.70,0.67,0.66
38.57,-12.18,-12.84,-12.23,-12.89,12.89,12.71,14.28,0.71,0.66,0.66
38.95,-12.09,-12.74,-12.16,-12.82,12.82,12.65,14.01,0.73,0.66,0.65
39.34,-12.08,-12.72,-12.10,-12.75,12.75,12.58,13.75,0.67,0.65,0.64
39.74,-12.08,-12.70,-12.03,-12.67,12.67,12.52,13.50,0.59,0.64,0.62
40.14,-12.05,-12.68,-11.94,-12.57,12.57,12.45,13.27,0.52,0.63,0.63
40.54,-11.96,-12.58,-11.84,-12.47,12.47,12.38,13.04,0.50,0.62,0.62
40.94,-11.86,-12.48,-11.74,-12.35,12.35,12.30,12.81,0.49,0.61,0.62
41.35,-11.71,-12.31,-11.64,-12.23,12.23,12.23,12.60,0.53,0.60,0.60
41.76,-11.54,-12.12,-11.53,-12.11,12.11,12.15,12.40,0.57,0.58,0.58
42.18,-11.40,-11.97,-11.43,-11.98,11.98,12.06,12.20,0.58,0.56,0.57
42.60,-11.28,-11.82,-11.30,-11.84,11.84,11.98,12.01,0.56,0.53,0.54
43.03,-11.16,-11.69,-11.17,-11.68,11.68,11.89,11.83,0.52,0.51,0.53
43.46,-10.96,-11.46,-11.04,-11.52,11.52,11.80,11.66,0.56,0.48,0.50
43.90,-10.76,-11.22,-10.89,-11.35,11.35,11.70,11.49,0.59,0.46,0.45
44.33,-10.71,-11.13,-10.76,-11.19,11.19,11.60,11.33,0.48,0.43,0.42
44.78,-10.71,-11.10,-10.64,-11.05,11.05,11.50,11.18,0.34,0.40,0.39
45.23,-10.64,-11.00,-10.53,-10.91,10.91,11.39,11.03,0.27,0.38,0.36
45.68,-10.51,-10.84,-10.43,-10.78,10.78,11.28,10.89,0.27,0.35,0.33
46.13,-10.37,-10.68,-10.33,-10.66,10.66,11.17,10.76,0.29,0.33,0.31
46.60,-10.19,-10.50,-10.24,-10.55,10.55,11.05,10.63,0.36,0.31,0.30
47.06,-10.03,-10.31,-10.15,-10.45,10.45,10.93,10.51,0.42,0.30,0.28
47.53,-10.03,-10.31,-10.07,-10.36,10.36,10.81,10.39,0.33,0.28,0.28
48.01,-10.03,-10.31,-10.03,-10.30,10.30,10.68,10.28,0.27,0.28,0.28
48.49,-10.03,-10.29,-10.01,-10.28,10.28,10.55,10.17,0.25,0.27,0.26
48.97,-10.03,-10.28,-9.99,-10.26,10.26,10.42,10.07,0.23,0.27,0.25
49.46,-9.92,-10.16,-9.98,-10.25,10.25,10.29,9.98,0.33,0.26,0.24
49.96,-9.81,-10.05,-9.98,-10.24,10.24,10.15,9.88,0.43,0.26,0.24
50.46,-9.82,-10.07,-10.00,-10.25,10.25,10.01,9.79,0.43,0.26,0.25
50.96,-9.85,-10.11,-10.01,-10.26,10.26,9.87,9.71,0.41,0.25,0.26
51.47,-9.94,-10.19,-10.01,-10.25,10.25,9.73,9.63,0.31,0.24,0.25
51.99,-10.03,-10.26,-9.99,-10.21,10.21,9.59,9.55,0.18,0.22,0.23
52.51,-10.15,-10.37,-9.95,-10.15,10.15,9.45,9.47,0.00,0.20,0.22
53.03,-10.25,-10.44,-9.88,-10.06,10.06,9.30,9.39,-0.19,0.18,0.19
53.56,-10.03,-10.19,-9.80,-9.95,9.95,9.16,9.32,-0.08,0.15,0.16
54.10,-9.82,-9.95,-9.70,-9.81,9.81,9.01,9.25,-0.01,0.11,0.12
54.64,-9.67,-9.74,-9.58,-9.66,9.66,8.87,9.18,-0.02,0.07,0.07
55.18,-9.49,-9.51,-9.45,-9.47,9.47,8.72,9.11,-0.01,0.03,0.02
55.74,-9.24,-9.22,-9.29,-9.26,9.26,8.58,9.04,0.02,-0.02,-0.03
56.29,-8.98,-8.90,-9.10,-9.02,9.02,8.43,8.96,0.04,-0.08,-0.08
56.86,-8.72,-8.59,-8.89,-8.76,8.76,8.28,8.89,0.04,-0.14,-0.14
57.42,-8.56,-8.35,-8.68,-8.48,8.48,8.14,8.82,-0.08,-0.20,-0.21
58.00,-8.43,-8.16,-8.46,-8.20,8.20,8.00,8.74,-0.23,-0.26,-0.27
58.58,-8.30,-7.97,-8.24,-7.92,7.92,7.85,8.66,-0.38,-0.32,-0.33
59.16,-8.13,-7.75,-8.04,-7.66,7.66,7.71,8.58,-0.47,-0.38,-0.38
59.76,-7.87,-7.44,-7.86,-7.42,7.42,7.57,8.50,-0.45,-0.44,-0.44
60.35,-7.67,-7.16,-7.69,-7.18,7.18,7.43,8.41,-0.49,-0.51,-0.51
60.96,-7.53,-6.97,-7.52,-6.95,6.95,7.29,8.32,-0.58,-0.57,-0.56
61.57,-7.39,-6.76,-7.36,-6.73,6.73,7.15,8.22,-0.66,-0.62,-0.63
62.18,-7.25,-6.55,-7.22,-6.53,6.53,7.02,8.12,-0.71,-0.68,-0.70
62.80,-7.11,-6.37,-7.09,-6.35,6.35,6.88,8.02,-0.76,-0.73,-0.74
63.43,-7.03,-6.23,-6.98,-6.19,6.19,6.75,7.91,-0.84,-0.79,-0.80
64.07,-6.96,-6.12,-6.90,-6.07,6.07,6.62,7.79,-0.89,-0.83,-0.84
64.71,-6.88,-5.99,-6.87,-5.99,5.99,6.49,7.68,-0.89,-0.88,-0.89
65.35,-6.84,-5.90,-6.89,-5.97,5.97,6.36,7.55,-0.87,-0.92,-0.94
66.01,-6.84,-5.87,-6.97,-6.00,6.00,6.23,7.43,-0.84,-0.96,-0.97
66.67,-6.84,-5.83,-7.10,-6.09,6.09,6.11,7.30,-0.75,-1.00,-1.01
67.33,-6.95,-5.91,-7.26,-6.22,6.22,5.98,7.17,-0.73,-1.04,-1.04
68.01,-7.16,-6.09,-7.46,-6.39,6.39,5.86,7.03,-0.77,-1.07,-1.07
68.69,-7.44,-6.34,-7.70,-6.59,6.59,5.74,6.89,-0.84,-1.10,-1.10
69.37,-7.77,-6.64,-7.94,-6.81,6.81,5.62,6.75,-0.96,-1.13,-1.14
70.07,-8.17,-7.00,-8.19,-7.03,7.03,5.50,6.60,-1.14,-1.16,-1.17
70.77,-8.60,-7.42,-8.42,-7.23,7.23,5.39,6.46,-1.37,-1.19,-1.18
71.48,-8.92,-7.70,-8.64,-7.42,7.42,5.28,6.31,-1.50,-1.22,-1.22
72.19,-9.16,-7.92,-8.83,-7.58,7.58,5.16,6.16,-1.58,-1.25,-1.24
72.91,-9.32,-8.04,-8.99,-7.71,7.71,5.05,6.01,-1.61,-1.28,-1.28
73.64,-9.34,-8.03,-9.10,-7.79,7.79,4.94,5.86,-1.55,-1.31,-1.31
74.38,-9.34,-8.00,-9.17,-7.83,7.83,4.84,5.71,-1.51,-1.34,-1.34
75.12,-9.32,-7.95,-9.17,-7.80,7.80,4.73,5.56,-1.52,-1.37,-1.37
75.87,-9.17,-7.77,-9.11,-7.71,7.71,4.63,5.41,-1.46,-1.40,-1.40
76.63,-8.87,-7.44,-9.00,-7.58,7.58,4.52,5.26,-1.29,-1.43,-1.43
77.40,-8.67,-7.21,-8.85,-7.40,7.40,4.42,5.11,-1.27,-1.45,-1.46
78.17,-8.57,-7.08,-8.67,-7.19,7.19,4.32,4.96,-1.38,-1.47,-1.49
78.95,-8.44,-6.94,-8.46,-6.97,6.97,4.22,4.81,-1.47,-1.50,-1.50
79.74,-8.23,-6.71,-8.24,-6.72,6.72,4.13,4.66,-1.50,-1.51,-1.52
80.54,-7.98,-6.44,-8.01,-6.48,6.48,4.03,4.51,-1.50,-1.53,-1.54
81.35,-7.76,-6.20,-7.77,-6.22,6.22,3.94,4.37,-1.54,-1.54,-1.56
82.16,-7.55,-5.99,-7.53,-5.97,5.97,3.84,4.23,-1.58,-1.55,-1.56
82.98,-7.20,-5.64,-7.29,-5.73,5.73,3.75,4.08,-1.47,-1.56,-1.56
83.81,-7.09,-5.52,-7.06,-5.50,5.50,3.66,3.94,-1.59,-1.56,-1.57
84.65,-6.89,-5.31,-6.84,-5.28,5.28,3.57,3.80,-1.61,-1.56,-1.58
85.50,-6.64,-5.07,-6.63,-5.06,5.06,3.48,3.67,-1.58,-1.56,-1.57
86.35,-6.41,-4.84,-6.41,-4.85,4.85,3.40,3.53,-1.56,-1.56,-1.57
87.22,-6.19,-4.62,-6.19,-4.63,4.63,3.31,3.40,-1.56,-1.56,-1.57
88.09,-5.86,-4.29,-5.99,-4.43,4.43,3.23,3.26,-1.43,-1.56,-1.57
88.97,-5.71,-4.16,-5.80,-4.24,4.24,3.14,3.13,-1.47,-1.56,-1.55
89.86,-5.54,-3.99,-5.62,-4.06,4.06,3.06,3.00,-1.48,-1.56,-1.55
90.76,-5.46,-3.89,-5.44,-3.88,3.88,2.97,2.87,-1.58,-1.56,-1.57
91.66,-5.31,-3.75,-5.27,-3.70,3.70,2.89,2.75,-1.61,-1.57,-1.56
92.58,-5.16,-3.57,-5.10,-3.52,3.52,2.81,2.62,-1.64,-1.58,-1.59
93.51,-4.97,-3.39,-4.94,-3.35,3.35,2.73,2.50,-1.62,-1.59,-1.58
94.44,-4.80,-3.20,-4.79,-3.19,3.19,2.65,2.38,-1.61,-1.60,-1.60
95.39,-4.69,-3.08,-4.65,-3.03,3.03,2.57,2.26,-1.66,-1.62,-1.61
96.34,-4.52,-2.87,-4.51,-2.88,2.88,2.49,2.14,-1.64,-1.64,-1.65
97.30,-4.41,-2.74,-4.39,-2.73,2.73,2.41,2.02,-1.68,-1.66,-1.67
98.28,-4.28,-2.59,-4.26,-2.58,2.58,2.34,1.90,-1.70,-1.68,-1.69
99.26,-4.07,-2.35,-4.13,-2.42,2.42,2.26,1.79,-1.65,-1.71,-1.72
100.25,-3.88,-2.13,-4.01,-2.27,2.27,2.18,1.67,-1.61,-1.75,-1.75
101.25,-3.87,-2.09,-3.89,-2.11,2.11,2.10,1.56,-1.76,-1.78,-1.78
102.27,-3.84,-2.02,-3.78,-1.96,1.96,2.02,1.45,-1.88,-1.82,-1.82
103.29,-3.73,-1.86,-3.69,-1.82,1.82,1.95,1.35,-1.91,-1.87,-1.87
104.32,-3.60,-1.69,-3.59,-1.67,1.67,1.87,1.24,-1.93,-1.92,-1.91
105.37,-3.48,-1.52,-3.50,-1.53,1.53,1.79,1.14,-1.95,-1.97,-1.96
106.42,-3.42,-1.41,-3.41,-1.38,1.38,1.71,1.03,-2.04,-2.03,-2.01
107.48,-3.32,-1.24,-3.33,-1.24,1.24,1.63,0.93,-2.08,-2.09,-2.08
108.56,-3.20,-1.04,-3.25,-1.09,1.09,1.55,0.84,-2.11,-2.15,-2.16
109.64,-3.19,-0.96,-3.17,-0.94,0.94,1.47,0.74,-2.25,-2.22,-2.23
110.74,-3.18,-0.89,-3.09,-0.80,0.80,1.39,0.65,-2.38,-2.30,-2.29
111.85,-2.99,-0.63,-3.01,-0.64,0.64,1.31,0.56,-2.35,-2.37,-2.36
112.97,-2.96,-0.51,-2.93,-0.49,0.49,1.23,0.47,-2.47,-2.44,-2.45
114.10,-2.92,-0.41,-2.85,-0.34,0.34,1.14,0.39,-2.58,-2.51,-2.51
115.24,-2.74,-0.15,-2.79,-0.21,0.21,1.06,0.31,-2.53,-2.58,-2.59
116.39,-2.74,-0.07,-2.73,-0.08,0.08,0.97,0.23,-2.66,-2.65,-2.67
117.55,-2.72,0.01,-2.68,0.03,-0.03,0.88,0.16,-2.75,-2.71,-2.73
118.73,-2.56,0.24,-2.63,0.14,-0.14,0.80,0.09,-2.70,-2.77,-2.80
119.92,-2.51,0.33,-2.59,0.23,-0.23,0.70,0.02,-2.74,-2.82,-2.84
121.12,-2.51,0.39,-2.56,0.32,-0.32,0.61,-0.04,-2.83,-2.87,-2.90
122.33,-2.51,0.43,-2.53,0.39,-0.39,0.52,-0.10,-2.90,-2.92,-2.94
123.55,-2.51,0.45,-2.51,0.46,-0.46,0.42,-0.15,-2.97,-2.96,-2.96
124.79,-2.51,0.49,-2.50,0.50,-0.50,0.33,-0.20,-3.01,-3.00,-3.00
126.03,-2.51,0.53,-2.49,0.55,-0.55,0.23,-0.25,-3.06,-3.04,-3.04
127.29,-2.51,0.56,-2.49,0.59,-0.59,0.13,-0.29,-3.10,-3.07,-3.07
128.57,-2.51,0.60,-2.49,0.61,-0.61,0.02,-0.33,-3.12,-3.11,-3.11
129.85,-2.51,0.63,-2.49,0.65,-0.65,-0.08,-0.37,-3.16,-3.14,-3.14
131.15,-2.51,0.66,-2.50,0.67,-0.67,-0.18,-0.40,-3.18,-3.17,-3.17
132.46,-2.51,0.69,-2.51,0.70,-0.70,-0.29,-0.43,-3.21,-3.20,-3.20
133.79,-2.51,0.72,-2.51,0.73,-0.73,-0.40,-0.45,-3.24,-3.24,-3.23
135.12,-2.51,0.77,-2.51,0.76,-0.76,-0.51,-0.47,-3.27,-3.27,-3.28
136.48,-2.51,0.80,-2.51,0.79,-0.79,-0.61,-0.49,-3.30,-3.30,-3.31
137.84,-2.51,0.83,-2.51,0.83,-0.83,-0.72,-0.51,-3.34,-3.34,-3.34
139.22,-2.51,0.88,-2.51,0.86,-0.86,-0.83,-0.52,-3.37,-3.37,-3.39
140.61,-2.51,0.93,-2.51,0.90,-0.90,-0.93,-0.53,-3.41,-3.41,-3.44
142.02,-2.51,0.95,-2.50,0.95,-0.95,-1.03,-0.54,-3.46,-3.45,-3.46
143.44,-2.51,0.99,-2.49,1.01,-1.01,-1.13,-0.55,-3.52,-3.50,-3.50
144.87,-2.51,1.03,-2.49,1.06,-1.06,-1.22,-0.56,-3.57,-3.55,-3.54
146.32,-2.51,1.08,-2.49,1.12,-1.12,-1.31,-0.56,-3.63,-3.61,-3.59
147.78,-2.51,1.12,-2.49,1.18,-1.18,-1.39,-0.57,-3.69,-3.67,-3.63
149.26,-2.51,1.19,-2.50,1.23,-1.23,-1.46,-0.57,-3.74,-3.73,-3.70
150.75,-2.51,1.27,-2.51,1.28,-1.28,-1.52,-0.57,-3.79,-3.79,-3.78
152.26,-2.51,1.34,-2.54,1.33,-1.33,-1.58,-0.57,-3.84,-3.86,-3.85
153.78,-2.51,1.41,-2.56,1.38,-1.38,-1.62,-0.58,-3.89,-3.94,-3.92
155.32,-2.51,1.51,-2.59,1.42,-1.42,-1.66,-0.58,-3.93,-4.01,-4.02
156.88,-2.53,1.56,-2.62,1.45,-1.45,-1.68,-0.58,-3.98,-4.08,-4.09
158.44,-2.68,1.48,-2.67,1.48,-1.48,-1.69,-0.58,-4.16,-4.15,-4.16
160.03,-2.74,1.50,-2.72,1.49,-1.49,-1.70,-0.58,-4.23,-4.21,-4.24
161.63,-2.74,1.56,-2.78,1.50,-1.50,-1.69,-0.58,-4.24,-4.27,-4.30
163.24,-2.88,1.47,-2.83,1.49,-1.49,-1.67,-0.58,-4.37,-4.32,-4.35
164.88,-2.96,1.43,-2.89,1.48,-1.48,-1.65,-0.59,-4.44,-4.37,-4.39
166.53,-2.96,1.47,-2.93,1.47,-1.47,-1.62,-0.59,-4.43,-4.40,-4.43
168.19,-2.96,1.50,-2.98,1.45,-1.45,-1.58,-0.59,-4.41,-4.43,-4.46
169.87,-3.01,1.46,-3.02,1.42,-1.42,-1.54,-0.60,-4.43,-4.45,-4.47
171.57,-3.15,1.33,-3.07,1.39,-1.39,-1.49,-0.60,-4.54,-4.46,-4.48
173.29,-3.19,1.29,-3.11,1.36,-1.36,-1.44,-0.61,-4.55,-4.47,-4.48
175.02,-3.19,1.27,-3.15,1.32,-1.32,-1.39,-0.61,-4.51,-4.47,-4.46
176.77,-3.19,1.28,-3.19,1.28,-1.28,-1.34,-0.62,-4.47,-4.47,-4.47
178.54,-3.19,1.27,-3.24,1.23,-1.23,-1.28,-0.63,-4.42,-4.47,-4.46
180.32,-3.19,1.26,-3.28,1.19,-1.19,-1.22,-0.63,-4.38,-4.47,-4.45
182.13,-3.19,1.26,-3.32,1.15,-1.15,-1.17,-0.64,-4.34,-4.47,-4.45
183.95,-3.28,1.17,-3.37,1.10,-1.10,-1.11,-0.65,-4.38,-4.47,-4.45
185.79,-3.41,1.05,-3.42,1.06,-1.06,-1.06,-0.66,-4.47,-4.48,-4.46
187.65,-3.42,1.06,-3.46,1.02,-1.02,-1.01,-0.68,-4.44,-4.48,-4.48
189.52,-3.60,0.90,-3.50,1.00,-1.00,-0.96,-0.69,-4.60,-4.50,-4.50
191.42,-3.65,0.87,-3.53,0.98,-0.98,-0.91,-0.70,-4.63,-4.51,-4.52
193.33,-3.65,0.89,-3.57,0.96,-0.96,-0.86,-0.71,-4.61,-4.53,-4.54
195.27,-3.65,0.89,-3.59,0.95,-0.95,-0.82,-0.73,-4.60,-4.54,-4.54
197.22,-3.65,0.91,-3.61,0.95,-0.95,-0.78,-0.74,-4.60,-4.56,-4.56
199.19,-3.65,0.95,-3.63,0.95,-0.95,-0.74,-0.76,-4.60,-4.58,-4.60
201.18,-3.65,0.95,-3.64,0.96,-0.96,-0.70,-0.77,-4.61,-4.60,-4.60
203.19,-3.65,0.97,-3.66,0.96,-0.96,-0.67,-0.79,-4.61,-4.62,-4.62
205.23,-3.65,1.00,-3.66,0.98,-0.98,-0.64,-0.81,-4.63,-4.64,-4.65
207.28,-3.65,1.00,-3.66,0.99,-0.99,-0.61,-0.82,-4.64,-4.65,-4.65
209.35,-3.65,1.02,-3.68,0.99,-0.99,-0.58,-0.84,-4.64,-4.67,-4.67
211.44,-3.65,1.05,-3.70,0.98,-0.98,-0.55,-0.86,-4.63,-4.68,-4.70
213.56,-3.65,1.05,-3.75,0.95,-0.95,-0.53,-0.87,-4.60,-4.70,-4.70
215.69,-3.65,1.05,-3.81,0.90,-0.90,-0.50,-0.89,-4.55,-4.71,-4.70
217.85,-3.85,0.88,-3.88,0.85,-0.85,-0.48,-0.91,-4.70,-4.72,-4.73
220.03,-3.96,0.78,-3.96,0.78,-0.78,-0.46,-0.92,-4.74,-4.74,-4.74
222.23,-4.07,0.69,-4.05,0.70,-0.70,-0.45,-0.94,-4.77,-4.75,-4.76
224.45,-4.10,0.66,-4.14,0.61,-0.61,-0.43,-0.95,-4.71,-4.75,-4.76
226.70,-4.10,0.66,-4.23,0.53,-0.53,-0.42,-0.97,-4.63,-4.76,-4.76
228.96,-4.26,0.51,-4.31,0.46,-0.46,-0.40,-0.98,-4.72,-4.77,-4.77
231.25,-4.49,0.28,-4.38,0.40,-0.40,-0.39,-0.99,-4.89,-4.77,-4.77
233.57,-4.56,0.22,-4.43,0.35,-0.35,-0.38,-1.01,-4.91,-4.78,-4.78
235.90,-4.56,0.23,-4.46,0.32,-0.32,-0.37,-1.02,-4.88,-4.78,-4.79
238.26,-4.56,0.23,-4.47,0.31,-0.31,-0.36,-1.03,-4.87,-4.78,-4.79
240.64,-4.56,0.23,-4.45,0.33,-0.33,-0.36,-1.03,-4.89,-4.78,-4.79
243.05,-4.56,0.22,-4.40,0.38,-0.38,-0.35,-1.04,-4.94,-4.77,-4.78
245.48,-4.40,0.37,-4.34,0.43,-0.43,-0.34,-1.05,-4.83,-4.77,-4.77
247.93,-4.33,0.43,-4.27,0.49,-0.49,-0.34,-1.05,-4.82,-4.77,-4.76
250.41,-4.14,0.63,-4.20,0.56,-0.56,-0.34,-1.05,-4.70,-4.76,-4.77
252.92,-4.06,0.70,-4.10,0.65,-0.65,-0.33,-1.05,-4.71,-4.75,-4.76
255.45,-3.90,0.83,-4.00,0.75,-0.75,-0.33,-1.05,-4.65,-4.74,-4.73
258.00,-3.87,0.86,-3.90,0.83,-0.83,-0.33,-1.05,-4.70,-4.73,-4.73
260.58,-3.73,1.00,-3.83,0.90,-0.90,-0.33,-1.04,-4.63,-4.72,-4.73
263.19,-3.66,1.05,-3.77,0.94,-0.94,-0.33,-1.04,-4.60,-4.71,-4.71
265.82,-3.65,1.06,-3.72,0.97,-0.97,-0.33,-1.03,-4.62,-4.69,-4.71
268.48,-3.65,1.03,-3.69,0.99,-0.99,-0.33,-1.02,-4.64,-4.68,-4.68
271.16,-3.65,1.02,-3.67,0.99,-0.99,-0.33,-1.02,-4.64,-4.66,-4.67
273.87,-3.65,1.01,-3.69,0.95,-0.95,-0.34,-1.00,-4.60,-4.64,-4.66
276.61,-3.65,0.97,-3.71,0.91,-0.91,-0.34,-0.99,-4.56,-4.62,-4.62
279.38,-3.65,0.96,-3.73,0.86,-0.86,-0.34,-0.98,-4.51,-4.60,-4.61
282.17,-3.81,0.77,-3.75,0.82,-0.82,-0.35,-0.97,-4.63,-4.57,-4.58
284.99,-3.87,0.68,-3.77,0.77,-0.77,-0.35,-0.95,-4.64,-4.55,-4.55
287.84,-3.87,0.66,-3.79,0.73,-0.73,-0.36,-0.94,-4.60,-4.52,-4.53
290.72,-3.87,0.62,-3.81,0.68,-0.68,-0.36,-0.93,-4.55,-4.49,-4.49
293.63,-3.87,0.60,-3.82,0.64,-0.64,-0.37,-0.91,-4.51,-4.46,-4.47
296.57,-3.87,0.57,-3.82,0.61,-0.61,-0.37,-0.90,-4.48,-4.44,-4.44
299.53,-3.87,0.54,-3.81,0.60,-0.60,-0.38,-0.88,-4.47,-4.41,-4.41
302.53,-3.87,0.53,-3.80,0.59,-0.59,-0.39,-0.86,-4.46,-4.39,-4.40
305.55,-3.68,0.68,-3.78,0.59,-0.59,-0.39,-0.85,-4.27,-4.37,-4.36
308.61,-3.65,0.69,-3.75,0.61,-0.61,-0.40,-0.83,-4.26,-4.35,-4.34
311.69,-3.65,0.68,-3.70,0.63,-0.63,-0.41,-0.82,-4.28,-4.34,-4.33
314.81,-3.65,0.65,-3.65,0.68,-0.68,-0.42,-0.80,-4.33,-4.32,-4.30
317.96,-3.65,0.65,-3.60,0.72,-0.72,-0.42,-0.79,-4.37,-4.31,-4.30
321.14,-3.64,0.67,-3.54,0.76,-0.76,-0.43,-0.77,-4.40,-4.30,-4.31
324.35,-3.47,0.83,-3.49,0.80,-0.80,-0.44,-0.76,-4.27,-4.29,-4.30
327.59,-3.42,0.87,-3.44,0.84,-0.84,-0.45,-0.74,-4.26,-4.28,-4.29
330.87,-3.42,0.86,-3.40,0.87,-0.87,-0.46,-0.73,-4.29,-4.27,-4.28
334.18,-3.42,0.86,-3.35,0.91,-0.91,-0.47,-0.72,-4.33,-4.26,-4.28
337.52,-3.29,0.98,-3.32,0.93,-0.93,-0.48,-0.70,-4.22,-4.25,-4.27
340.90,-3.21,1.03,-3.29,0.95,-0.95,-0.49,-0.69,-4.16,-4.24,-4.24
344.30,-3.19,1.04,-3.26,0.96,-0.96,-0.50,-0.68,-4.15,-4.22,-4.23
347.75,-3.19,1.03,-3.23,0.98,-0.98,-0.51,-0.67,-4.17,-4.20,-4.22
351.23,-3.19,1.00,-3.20,0.98,-0.98,-0.52,-0.66,-4.17,-4.18,-4.19
354.74,-3.19,0.98,-3.19,0.98,-0.98,-0.53,-0.65,-4.17,-4.16,-4.17
358.28,-3.19,0.95,-3.18,0.96,-0.96,-0.55,-0.64,-4.15,-4.14,-4.14
361.87,-3.19,0.93,-3.18,0.94,-0.94,-0.56,-0.63,-4.13,-4.12,-4.12
365.49,-3.19,0.91,-3.17,0.92,-0.92,-0.57,-0.62,-4.11,-4.09,-4.10
369.14,-3.19,0.89,-3.17,0.90,-0.90,-0.58,-0.61,-4.09,-4.07,-4.08
372.83,-3.19,0.86,-3.18,0.87,-0.87,-0.59,-0.60,-4.06,-4.05,-4.05
376.56,-3.19,0.84,-3.18,0.85,-0.85,-0.60,-0.59,-4.04,-4.03,-4.03
380.33,-3.19,0.81,-3.19,0.82,-0.82,-0.62,-0.59,-4.01,-4.01,-4.00
384.13,-3.19,0.79,-3.19,0.80,-0.80,-0.63,-0.58,-3.99,-3.99,-3.98
387.97,-3.19,0.78,-3.19,0.79,-0.79,-0.64,-0.58,-3.98,-3.98,-3.97
391.85,-3.19,0.78,-3.20,0.77,-0.77,-0.65,-0.57,-3.96,-3.96,-3.97
395.77,-3.19,0.77,-3.20,0.75,-0.75,-0.67,-0.57,-3.94,-3.95,-3.96
399.73,-3.19,0.76,-3.20,0.74,-0.74,-0.68,-0.56,-3.93,-3.94,-3.95
403.72,-3.19,0.75,-3.19,0.74,-0.74,-0.69,-0.56,-3.93,-3.93,-3.94
407.76,-3.19,0.74,-3.19,0.73,-0.73,-0.71,-0.56,-3.92,-3.93,-3.93
411.84,-3.19,0.73,-3.19,0.73,-0.73,-0.72,-0.55,-3.92,-3.92,-3.92
