frequency,raw,error,smoothed,error_smoothed,equalization,parametric_eq,fixed_band_eq,equalized_raw,equalized_smoothed,target
20.00,-5.29,-13.36,-5.31,-13.38,13.38,12.75,5.88,8.09,8.07,8.06
20.20,-5.26,-13.31,-5.27,-13.33,13.33,12.80,6.02,8.07,8.06,8.05
20.40,-5.24,-13.28,-5.23,-13.28,13.28,12.84,6.17,8.04,8.05,8.04
20.61,-5.21,-13.25,-5.19,-13.23,13.23,12.88,6.32,8.02,8.04,8.04
20.81,-5.18,-13.20,-5.15,-13.18,13.18,12.92,6.48,8.00,8.03,8.02
21.02,-5.15,-13.17,-5.11,-13.13,13.13,12.95,6.64,7.98,8.02,8.02
21.23,-5.10,-13.11,-5.08,-13.09,13.09,12.98,6.81,7.99,8.01,8.01
21.44,-5.05,-13.07,-5.04,-13.05,13.05,13.00,6.97,8.00,8.00,8.02
21.66,-4.99,-13.00,-5.01,-13.00,13.00,13.02,7.15,8.01,8.00,8.01
21.87,-4.94,-12.94,-4.97,-12.96,12.96,13.03,7.33,8.02,7.99,8.00
22.09,-4.90,-12.89,-4.94,-12.93,12.93,13.04,7.51,8.02,7.99,7.99
22.31,-4.87,-12.85,-4.91,-12.89,12.89,13.05,7.70,8.02,7.98,7.98
22.54,-4.84,-12.81,-4.88,-12.85,12.85,13.05,7.89,8.01,7.97,7.97
22.76,-4.82,-12.79,-4.85,-12.82,12.82,13.05,8.09,8.00,7.97,7.97
22.99,-4.79,-12.75,-4.82,-12.79,12.79,13.04,8.30,8.00,7.97,7.96
23.22,-4.79,-12.74,-4.79,-12.76,12.76,13.03,8.50,7.96,7.96,7.95
23.45,-4.79,-12.75,-4.76,-12.72,12.72,13.02,8.72,7.93,7.96,7.96
23.69,-4.79,-12.74,-4.74,-12.69,12.69,13.00,8.94,7.90,7.96,7.95
23.92,-4.79,-12.74,-4.71,-12.66,12.66,12.98,9.17,7.87,7.95,7.95
24.16,-4.75,-12.70,-4.68,-12.64,12.64,12.95,9.40,7.89,7.95,7.95
24.40,-4.68,-12.64,-4.66,-12.61,12.61,12.93,9.64,7.93,7.95,7.96
24.65,-4.61,-12.57,-4.63,-12.58,12.58,12.90,9.88,7.97,7.96,7.96
24.89,-4.55,-12.51,-4.60,-12.55,12.55,12.86,10.13,8.00,7.96,7.96
25.14,-4.51,-12.47,-4.57,-12.52,12.52,12.83,10.39,8.01,7.96,7.96
25.39,-4.49,-12.45,-4.53,-12.49,12.49,12.79,10.65,8.00,7.96,7.96
25.65,-4.47,-12.43,-4.50,-12.46,12.46,12.75,10.91,7.99,7.96,7.95
25.91,-4.46,-12.42,-4.47,-12.43,12.43,12.71,11.18,7.97,7.96,7.96
26.16,-4.44,-12.41,-4.44,-12.40,12.40,12.67,11.45,7.96,7.96,7.97
26.43,-4.42,-12.39,-4.40,-12.37,12.37,12.62,11.73,7.95,7.96,7.97
26.69,-4.40,-12.37,-4.38,-12.34,12.34,12.57,12.01,7.94,7.96,7.97
26.96,-4.38,-12.34,-4.35,-12.31,12.31,12.53,12.29,7.93,7.96,7.96
27.23,-4.35,-12.31,-4.33,-12.29,12.29,12.48,12.58,7.94,7.96,7.96
27.50,-4.31,-12.27,-4.30,-12.26,12.26,12.43,12.86,7.95,7.96,7.96
27.77,-4.27,-12.24,-4.28,-12.24,12.24,12.37,13.14,7.97,7.96,7.97
28.05,-4.23,-12.19,-4.24,-12.21,12.21,12.32,13.41,7.98,7.96,7.96
28.33,-4.21,-12.16,-4.21,-12.17,12.17,12.27,13.68,7.96,7.96,7.95
28.62,-4.18,-12.13,-4.18,-12.13,12.13,12.21,13.94,7.95,7.96,7.95
28.90,-4.15,-12.11,-4.14,-12.10,12.10,12.16,14.19,7.95,7.95,7.96
29.19,-4.12,-12.07,-4.12,-12.07,12.07,12.11,14.42,7.95,7.95,7.95
29.48,-4.09,-12.04,-4.10,-12.04,12.04,12.05,14.63,7.95,7.95,7.95
29.78,-4.06,-12.01,-4.07,-12.02,12.02,12.00,14.82,7.96,7.94,7.95
30.08,-4.03,-11.98,-4.05,-11.99,11.99,11.94,14.98,7.96,7.94,7.95
30.38,-4.01,-11.95,-4.03,-11.96,11.96,11.89,15.12,7.95,7.93,7.94
30.68,-3.99,-11.92,-4.01,-11.94,11.94,11.84,15.23,7.95,7.92,7.92
30.99,-3.96,-11.88,-4.00,-11.92,11.92,11.78,15.30,7.95,7.92,7.92
31.30,-3.98,-11.89,-3.98,-11.89,11.89,11.73,15.34,7.91,7.91,7.91
31.61,-4.00,-11.90,-3.97,-11.87,11.87,11.68,15.35,7.87,7.90,7.90
31.93,-4.02,-11.91,-3.95,-11.85,11.85,11.63,15.32,7.83,7.89,7.89
32.24,-3.98,-11.86,-3.94,-11.82,11.82,11.58,15.26,7.84,7.89,7.88
32.57,-3.92,-11.79,-3.92,-11.80,11.80,11.53,15.18,7.88,7.88,7.87
32.89,-3.87,-11.73,-3.90,-11.77,11.77,11.48,15.06,7.90,7.87,7.86
33.22,-3.85,-11.71,-3.88,-11.74,11.74,11.43,14.92,7.89,7.86,7.86
33.55,-3.85,-11.70,-3.86,-11.71,11.71,11.38,14.76,7.86,7.86,7.85
33.89,-3.85,-11.71,-3.83,-11.68,11.68,11.33,14.59,7.83,7.85,7.86
34.23,-3.83,-11.67,-3.80,-11.65,11.65,11.29,14.40,7.82,7.85,7.84
34.57,-3.79,-11.63,-3.78,-11.62,11.62,11.25,14.20,7.83,7.84,7.84
34.92,-3.76,-11.59,-3.75,-11.58,11.58,11.20,13.99,7.82,7.83,7.83
35.27,-3.73,-11.56,-3.73,-11.55,11.55,11.16,13.78,7.82,7.82,7.83
35.62,-3.69,-11.51,-3.72,-11.53,11.53,11.12,13.56,7.84,7.81,7.82
35.97,-3.66,-11.47,-3.71,-11.52,11.52,11.08,13.35,7.86,7.80,7.81
36.33,-3.66,-11.45,-3.71,-11.49,11.49,11.04,13.13,7.83,7.79,7.79
36.70,-3.66,-11.44,-3.69,-11.46,11.46,11.00,12.92,7.80,7.77,7.78
37.06,-3.66,-11.42,-3.68,-11.43,11.43,10.97,12.71,7.77,7.75,7.76
37.43,-3.66,-11.39,-3.66,-11.39,11.39,10.93,12.50,7.73,7.73,7.73
37.81,-3.66,-11.37,-3.64,-11.35,11.35,10.90,12.30,7.69,7.71,7.71
38.19,-3.67,-11.35,-3.63,-11.31,11.31,10.86,12.11,7.64,7.68,7.68
38.57,-3.69,-11.34,-3.61,-11.26,11.26,10.83,11.92,7.57,7.65,7.65
38.95,-3.72,-11.34,-3.59,-11.22,11.22,10.80,11.73,7.50,7.63,7.62
39.34,-3.63,-11.21,-3.58,-11.17,11.17,10.77,11.56,7.54,7.60,7.58
39.74,-3.52,-11.09,-3.56,-11.13,11.13,10.74,11.39,7.61,7.57,7.56
40.14,-3.45,-10.99,-3.55,-11.09,11.09,10.71,11.23,7.63,7.54,7.53
40.54,-3.46,-10.96,-3.54,-11.04,11.04,10.68,11.07,7.58,7.51,7.50
40.94,-3.47,-10.94,-3.52,-11.00,11.00,10.66,10.93,7.53,7.48,7.47
41.35,-3.47,-10.92,-3.51,-10.95,10.95,10.63,10.79,7.48,7.45,7.45
41.76,-3.47,-10.88,-3.49,-10.91,10.91,10.60,10.65,7.44,7.42,7.41
42.18,-3.47,-10.86,-3.48,-10.87,10.87,10.58,10.53,7.40,7.39,7.39
42.60,-3.47,-10.83,-3.47,-10.83,10.83,10.55,10.41,7.36,7.36,7.36
43.03,-3.47,-10.80,-3.45,-10.78,10.78,10.53,10.30,7.31,7.33,7.33
43.46,-3.50,-10.80,-3.44,-10.74,10.74,10.51,10.20,7.24,7.30,7.29
43.90,-3.52,-10.79,-3.43,-10.70,10.70,10.48,10.10,7.18,7.27,7.27
44.33,-3.48,-10.72,-3.42,-10.66,10.66,10.46,10.02,7.18,7.24,7.23
44.78,-3.41,-10.61,-3.41,-10.61,10.61,10.44,9.93,7.20,7.20,7.20
45.23,-3.37,-10.55,-3.39,-10.55,10.55,10.41,9.86,7.18,7.17,7.18
45.68,-3.37,-10.51,-3.36,-10.49,10.49,10.39,9.79,7.12,7.13,7.14
46.13,-3.35,-10.44,-3.35,-10.44,10.44,10.37,9.73,7.09,7.09,7.09
46.60,-3.28,-10.33,-3.33,-10.38,10.38,10.34,9.68,7.10,7.05,7.05
47.06,-3.22,-10.23,-3.32,-10.32,10.32,10.32,9.63,7.10,7.00,7.01
47.53,-3.25,-10.22,-3.31,-10.26,10.26,10.29,9.58,7.01,6.96,6.97
48.01,-3.28,-10.19,-3.29,-10.20,10.20,10.26,9.55,6.92,6.91,6.91
48.49,-3.28,-10.14,-3.28,-10.14,10.14,10.23,9.52,6.86,6.86,6.86
48.97,-3.28,-10.09,-3.27,-10.08,10.08,10.21,9.49,6.80,6.82,6.81
49.46,-3.28,-10.05,-3.26,-10.03,10.03,10.18,9.47,6.75,6.77,6.77
49.96,-3.28,-9.98,-3.26,-9.97,9.97,10.14,9.45,6.69,6.72,6.70
50.46,-3.30,-9.95,-3.25,-9.91,9.91,10.11,9.44,6.61,6.66,6.65
50.96,-3.33,-9.94,-3.24,-9.86,9.86,10.08,9.43,6.53,6.61,6.61
51.47,-3.26,-9.82,-3.24,-9.80,9.80,10.04,9.43,6.54,6.56,6.56
51.99,-3.18,-9.69,-3.24,-9.75,9.75,10.00,9.43,6.57,6.51,6.51
52.51,-3.18,-9.64,-3.23,-9.69,9.69,9.96,9.43,6.51,6.46,6.46
53.03,-3.18,-9.60,-3.22,-9.62,9.62,9.92,9.43,6.44,6.40,6.42
53.56,-3.18,-9.55,-3.20,-9.56,9.56,9.88,9.44,6.38,6.35,6.36
54.10,-3.18,-9.49,-3.19,-9.49,9.49,9.83,9.44,6.31,6.30,6.30
54.64,-3.18,-9.44,-3.17,-9.43,9.43,9.78,9.45,6.24,6.25,6.25
55.18,-3.18,-9.37,-3.16,-9.36,9.36,9.73,9.46,6.18,6.21,6.19
55.74,-3.18,-9.32,-3.14,-9.30,9.30,9.68,9.46,6.12,6.16,6.14
56.29,-3.17,-9.27,-3.13,-9.24,9.24,9.62,9.46,6.07,6.11,6.10
56.86,-3.16,-9.21,-3.13,-9.19,9.19,9.56,9.46,6.03,6.06,6.05
57.42,-3.11,-9.10,-3.13,-9.13,9.13,9.50,9.46,6.02,6.01,5.99
58.00,-3.04,-8.99,-3.12,-9.07,9.07,9.44,9.45,6.03,5.95,5.95
58.58,-3.06,-8.97,-3.11,-9.01,9.01,9.37,9.44,5.95,5.90,5.91
59.16,-3.08,-8.94,-3.10,-8.94,8.94,9.30,9.42,5.86,5.84,5.86
59.76,-3.08,-8.89,-3.08,-8.87,8.87,9.23,9.40,5.79,5.78,5.81
60.35,-3.09,-8.83,-3.07,-8.80,8.80,9.16,9.36,5.71,5.73,5.74
60.96,-3.11,-8.79,-3.06,-8.73,8.73,9.08,9.33,5.61,5.67,5.68
61.57,-3.10,-8.71,-3.05,-8.65,8.65,9.00,9.28,5.55,5.61,5.61
62.18,-3.08,-8.61,-3.04,-8.58,8.58,8.92,9.23,5.50,5.54,5.53
62.80,-3.01,-8.47,-3.03,-8.51,8.51,8.84,9.16,5.49,5.47,5.46
63.43,-2.99,-8.38,-3.02,-8.43,8.43,8.76,9.09,5.44,5.41,5.39
64.07,-2.99,-8.32,-3.02,-8.36,8.36,8.67,9.02,5.37,5.34,5.33
64.71,-2.99,-8.25,-3.01,-8.28,8.28,8.59,8.93,5.29,5.27,5.26
65.35,-2.99,-8.19,-3.00,-8.20,8.20,8.50,8.84,5.21,5.20,5.20
66.01,-2.99,-8.12,-3.00,-8.13,8.13,8.41,8.74,5.14,5.13,5.13
66.67,-2.99,-8.07,-2.99,-8.05,8.05,8.32,8.63,5.06,5.06,5.08
67.33,-2.99,-7.98,-2.98,-7.98,7.98,8.22,8.52,4.99,4.99,4.99
68.01,-2.99,-7.92,-2.98,-7.90,7.90,8.13,8.40,4.91,4.92,4.93
68.69,-2.99,-7.84,-2.98,-7.83,7.83,8.03,8.28,4.84,4.85,4.85
69.37,-2.99,-7.78,-2.99,-7.76,7.76,7.94,8.15,4.77,4.78,4.79
70.07,-2.99,-7.70,-2.99,-7.70,7.70,7.84,8.02,4.71,4.71,4.71
70.77,-2.99,-7.63,-2.99,-7.62,7.62,7.74,7.89,4.63,4.63,4.64
71.48,-2.99,-7.56,-2.99,-7.55,7.55,7.65,7.75,4.56,4.56,4.57
72.19,-2.99,-7.47,-3.00,-7.48,7.48,7.55,7.61,4.49,4.49,4.48
72.91,-2.99,-7.40,-3.00,-7.41,7.41,7.45,7.48,4.42,4.41,4.41
73.64,-2.99,-7.32,-3.00,-7.34,7.34,7.36,7.34,4.35,4.34,4.33
74.38,-2.99,-7.25,-3.00,-7.27,7.27,7.26,7.20,4.28,4.27,4.26
75.12,-2.99,-7.18,-3.00,-7.19,7.19,7.16,7.06,4.20,4.20,4.18
75.87,-2.99,-7.12,-2.99,-7.12,7.12,7.07,6.92,4.12,4.13,4.12
76.63,-2.99,-7.04,-2.98,-7.04,7.04,6.97,6.79,4.05,4.06,4.05
77.40,-2.99,-6.98,-2.96,-6.95,6.95,6.87,6.66,3.96,3.99,3.99
78.17,-2.99,-6.91,-2.95,-6.87,6.87,6.78,6.52,3.88,3.92,3.92
78.95,-2.99,-6.85,-2.93,-6.79,6.79,6.69,6.40,3.80,3.86,3.86
79.74,-2.92,-6.72,-2.91,-6.70,6.70,6.59,6.27,3.78,3.79,3.80
80.54,-2.89,-6.62,-2.90,-6.62,6.62,6.50,6.15,3.73,3.72,3.73
81.35,-2.86,-6.52,-2.88,-6.53,6.53,6.41,6.03,3.67,3.66,3.66
82.16,-2.80,-6.40,-2.86,-6.45,6.45,6.32,5.91,3.65,3.59,3.60
82.98,-2.80,-6.33,-2.84,-6.36,6.36,6.23,5.80,3.56,3.52,3.53
83.81,-2.80,-6.26,-2.83,-6.28,6.28,6.15,5.68,3.48,3.45,3.46
84.65,-2.80,-6.18,-2.81,-6.20,6.20,6.06,5.58,3.39,3.38,3.38
85.50,-2.80,-6.10,-2.80,-6.11,6.11,5.98,5.48,3.31,3.31,3.30
86.35,-2.80,-6.04,-2.79,-6.03,6.03,5.90,5.38,3.23,3.24,3.23
87.22,-2.80,-5.97,-2.79,-5.95,5.95,5.82,5.28,3.15,3.17,3.17
88.09,-2.80,-5.89,-2.78,-5.88,5.88,5.74,5.19,3.08,3.09,3.09
88.97,-2.79,-5.82,-2.78,-5.80,5.80,5.66,5.10,3.01,3.02,3.02
89.86,-2.79,-5.73,-2.78,-5.73,5.73,5.58,5.01,2.94,2.94,2.94
90.76,-2.79,-5.66,-2.79,-5.65,5.65,5.51,4.93,2.86,2.86,2.87
91.66,-2.79,-5.57,-2.79,-5.57,5.57,5.44,4.86,2.78,2.78,2.78
92.58,-2.79,-5.50,-2.79,-5.49,5.49,5.36,4.78,2.70,2.70,2.71
93.51,-2.79,-5.42,-2.79,-5.41,5.41,5.29,4.71,2.61,2.62,2.62
94.44,-2.79,-5.33,-2.79,-5.32,5.32,5.22,4.64,2.53,2.53,2.54
95.39,-2.79,-5.24,-2.79,-5.24,5.24,5.16,4.58,2.45,2.44,2.45
96.34,-2.79,-5.15,-2.80,-5.15,5.15,5.09,4.52,2.36,2.35,2.36
97.30,-2.80,-5.06,-2.81,-5.07,5.07,5.02,4.46,2.27,2.26,2.26
98.28,-2.81,-4.98,-2.82,-4.98,4.98,4.96,4.40,2.17,2.17,2.17
99.26,-2.82,-4.89,-2.83,-4.90,4.90,4.89,4.35,2.08,2.08,2.07
100.25,-2.84,-4.81,-2.84,-4.82,4.82,4.83,4.30,1.98,1.98,1.97
101.25,-2.86,-4.75,-2.86,-4.74,4.74,4.76,4.25,1.88,1.89,1.89
102.27,-2.87,-4.66,-2.87,-4.67,4.67,4.70,4.20,1.79,1.79,1.79
103.29,-2.88,-4.58,-2.89,-4.59,4.59,4.63,4.16,1.71,1.70,1.70
104.32,-2.90,-4.51,-2.91,-4.52,4.52,4.57,4.12,1.62,1.60,1.61
105.37,-2.93,-4.45,-2.94,-4.45,4.45,4.50,4.08,1.51,1.51,1.51
106.42,-2.95,-4.37,-2.96,-4.37,4.37,4.43,4.04,1.42,1.42,1.42
107.48,-2.98,-4.29,-2.98,-4.30,4.30,4.37,4.00,1.32,1.33,1.31
108.56,-3.00,-4.24,-3.00,-4.23,4.23,4.30,3.96,1.23,1.23,1.24
109.64,-3.02,-4.16,-3.02,-4.16,4.16,4.22,3.92,1.14,1.14,1.14
110.74,-3.04,-4.09,-3.03,-4.08,4.08,4.15,3.89,1.04,1.05,1.05
111.85,-3.06,-4.02,-3.04,-4.01,4.01,4.08,3.85,0.95,0.96,0.96
112.97,-3.07,-3.95,-3.06,-3.93,3.93,4.00,3.82,0.86,0.87,0.88
114.10,-3.07,-3.87,-3.06,-3.85,3.85,3.92,3.78,0.78,0.79,0.79
115.24,-3.08,-3.78,-3.07,-3.77,3.77,3.84,3.74,0.69,0.70,0.70
116.39,-3.07,-3.68,-3.07,-3.69,3.69,3.76,3.70,0.62,0.62,0.61
117.55,-3.07,-3.61,-3.07,-3.61,3.61,3.68,3.66,0.54,0.54,0.54
118.73,-3.07,-3.51,-3.07,-3.53,3.53,3.60,3.62,0.46,0.46,0.44
119.92,-3.06,-3.43,-3.06,-3.45,3.45,3.51,3.58,0.38,0.38,0.37
121.12,-3.05,-3.36,-3.06,-3.36,3.36,3.43,3.53,0.31,0.31,0.31
122.33,-3.04,-3.27,-3.05,-3.28,3.28,3.34,3.49,0.24,0.23,0.23
123.55,-3.04,-3.20,-3.04,-3.19,3.19,3.25,3.44,0.15,0.15,0.16
124.79,-3.03,-3.12,-3.03,-3.11,3.11,3.17,3.39,0.08,0.08,0.09
126.03,-3.02,-3.04,-3.02,-3.03,3.03,3.08,3.33,0.01,0.01,0.01
127.29,-3.01,-2.95,-3.02,-2.95,2.95,2.99,3.28,-0.06,-0.07,-0.06
128.57,-3.01,-2.87,-3.01,-2.87,2.87,2.91,3.22,-0.14,-0.14,-0.14
129.85,-3.00,-2.79,-3.00,-2.79,2.79,2.82,3.16,-0.21,-0.21,-0.21
131.15,-3.00,-2.71,-3.00,-2.71,2.71,2.73,3.10,-0.29,-0.28,-0.29
132.46,-2.99,-2.63,-2.99,-2.64,2.64,2.65,3.03,-0.35,-0.36,-0.36
133.79,-2.99,-2.56,-2.99,-2.56,2.56,2.57,2.97,-0.43,-0.43,-0.43
135.12,-2.98,-2.48,-2.98,-2.48,2.48,2.48,2.90,-0.50,-0.50,-0.50
136.48,-2.98,-2.42,-2.98,-2.41,2.41,2.40,2.83,-0.57,-0.57,-0.56
137.84,-2.98,-2.35,-2.98,-2.34,2.34,2.32,2.76,-0.64,-0.64,-0.63
139.22,-2.98,-2.26,-2.98,-2.26,2.26,2.24,2.69,-0.72,-0.71,-0.72
140.61,-2.98,-2.20,-2.98,-2.19,2.19,2.16,2.61,-0.79,-0.78,-0.78
142.02,-2.97,-2.12,-2.98,-2.12,2.12,2.08,2.54,-0.85,-0.85,-0.85
143.44,-2.97,-2.04,-2.98,-2.06,2.06,2.00,2.46,-0.92,-0.92,-0.93
144.87,-2.97,-1.98,-2.97,-1.99,1.99,1.93,2.38,-0.98,-0.99,-0.99
146.32,-2.97,-1.92,-2.97,-1.92,1.92,1.85,2.30,-1.05,-1.06,-1.05
147.78,-2.98,-1.86,-2.97,-1.85,1.85,1.78,2.23,-1.13,-1.12,-1.12
149.26,-2.98,-1.79,-2.97,-1.78,1.78,1.71,2.15,-1.20,-1.19,-1.19
150.75,-2.98,-1.71,-2.97,-1.71,1.71,1.64,2.07,-1.27,-1.26,-1.27
152.26,-2.97,-1.64,-2.97,-1.64,1.64,1.57,1.99,-1.33,-1.33,-1.33
153.78,-2.97,-1.58,-2.97,-1.57,1.57,1.50,1.91,-1.40,-1.40,-1.39
155.32,-2.97,-1.51,-2.97,-1.51,1.51,1.43,1.83,-1.46,-1.46,-1.46
156.88,-2.97,-1.44,-2.97,-1.44,1.44,1.36,1.75,-1.53,-1.53,-1.53
158.44,-2.97,-1.37,-2.97,-1.37,1.37,1.30,1.67,-1.60,-1.60,-1.60
160.03,-2.97,-1.30,-2.98,-1.30,1.30,1.23,1.59,-1.67,-1.67,-1.67
161.63,-2.97,-1.23,-2.98,-1.23,1.23,1.17,1.51,-1.74,-1.74,-1.74
163.24,-2.98,-1.16,-2.98,-1.17,1.17,1.10,1.44,-1.81,-1.81,-1.82
164.88,-2.98,-1.10,-2.99,-1.10,1.10,1.04,1.36,-1.88,-1.88,-1.88
166.53,-2.98,-1.02,-2.99,-1.04,1.04,0.98,1.28,-1.95,-1.95,-1.96
168.19,-2.99,-0.97,-3.00,-0.97,0.97,0.92,1.20,-2.02,-2.02,-2.02
169.87,-3.00,-0.91,-3.00,-0.91,0.91,0.86,1.13,-2.09,-2.09,-2.09
171.57,-3.00,-0.84,-3.01,-0.84,0.84,0.80,1.05,-2.16,-2.16,-2.17
173.29,-3.01,-0.78,-3.01,-0.78,0.78,0.74,0.98,-2.23,-2.23,-2.23
175.02,-3.02,-0.73,-3.01,-0.72,0.72,0.68,0.90,-2.30,-2.30,-2.29
176.77,-3.02,-0.66,-3.01,-0.65,0.65,0.62,0.83,-2.37,-2.36,-2.36
178.54,-3.02,-0.59,-3.01,-0.59,0.59,0.56,0.75,-2.43,-2.42,-2.43
180.32,-3.02,-0.53,-3.01,-0.53,0.53,0.51,0.68,-2.50,-2.48,-2.49
182.13,-3.01,-0.47,-3.00,-0.46,0.46,0.45,0.61,-2.55,-2.54,-2.55
183.95,-3.00,-0.40,-2.99,-0.39,0.39,0.40,0.53,-2.61,-2.60,-2.60
185.79,-2.99,-0.33,-2.98,-0.33,0.33,0.34,0.46,-2.66,-2.66,-2.66
187.65,-2.97,-0.26,-2.97,-0.26,0.26,0.29,0.39,-2.71,-2.71,-2.71
189.52,-2.96,-0.19,-2.96,-0.19,0.19,0.24,0.32,-2.77,-2.77,-2.77
191.42,-2.95,-0.14,-2.95,-0.13,0.13,0.18,0.25,-2.82,-2.82,-2.81
193.33,-2.93,-0.07,-2.93,-0.07,0.07,0.13,0.18,-2.87,-2.87,-2.86
195.27,-2.92,-0.00,-2.92,-0.00,0.00,0.08,0.11,-2.92,-2.92,-2.92
197.22,-2.90,0.07,-2.91,0.06,-0.06,0.03,0.04,-2.96,-2.97,-2.97
199.19,-2.89,0.13,-2.90,0.11,-0.11,-0.02,-0.03,-3.00,-3.02,-3.02
201.18,-2.88,0.19,-2.89,0.17,-0.17,-0.07,-0.10,-3.05,-3.06,-3.07
203.19,-2.88,0.23,-2.89,0.22,-0.22,-0.12,-0.16,-3.10,-3.11,-3.11
205.23,-2.88,0.27,-2.88,0.27,-0.27,-0.17,-0.23,-3.15,-3.16,-3.15
207.28,-2.88,0.31,-2.88,0.32,-0.32,-0.21,-0.29,-3.20,-3.20,-3.19
209.35,-2.88,0.36,-2.88,0.36,-0.36,-0.26,-0.36,-3.25,-3.25,-3.24
211.44,-2.88,0.41,-2.89,0.41,-0.41,-0.30,-0.42,-3.29,-3.29,-3.29
213.56,-2.88,0.45,-2.89,0.45,-0.45,-0.35,-0.48,-3.33,-3.33,-3.33
215.69,-2.89,0.48,-2.88,0.49,-0.49,-0.39,-0.54,-3.38,-3.38,-3.37
217.85,-2.89,0.52,-2.88,0.53,-0.53,-0.44,-0.60,-3.42,-3.42,-3.41
220.03,-2.90,0.56,-2.89,0.57,-0.57,-0.48,-0.66,-3.47,-3.45,-3.46
222.23,-2.90,0.60,-2.89,0.60,-0.60,-0.52,-0.71,-3.50,-3.49,-3.50
224.45,-2.90,0.63,-2.89,0.63,-0.63,-0.56,-0.77,-3.53,-3.52,-3.53
226.70,-2.90,0.66,-2.89,0.66,-0.66,-0.60,-0.82,-3.56,-3.55,-3.56
228.96,-2.89,0.69,-2.90,0.69,-0.69,-0.64,-0.87,-3.58,-3.58,-3.58
231.25,-2.89,0.71,-2.90,0.71,-0.71,-0.67,-0.91,-3.60,-3.61,-3.60
233.57,-2.87,0.76,-2.89,0.73,-0.73,-0.71,-0.96,-3.60,-3.63,-3.63
235.90,-2.83,0.82,-2.89,0.76,-0.76,-0.74,-1.00,-3.59,-3.65,-3.65
238.26,-2.88,0.79,-2.89,0.78,-0.78,-0.78,-1.03,-3.66,-3.66,-3.67
240.64,-2.92,0.75,-2.88,0.80,-0.80,-0.81,-1.07,-3.72,-3.68,-3.67
243.05,-2.92,0.77,-2.87,0.82,-0.82,-0.84,-1.10,-3.74,-3.69,-3.69
245.48,-2.90,0.80,-2.87,0.84,-0.84,-0.87,-1.13,-3.74,-3.70,-3.70
247.93,-2.87,0.85,-2.86,0.86,-0.86,-0.90,-1.16,-3.73,-3.71,-3.72
250.41,-2.85,0.87,-2.85,0.87,-0.87,-0.92,-1.18,-3.72,-3.72,-3.72
252.92,-2.83,0.89,-2.84,0.89,-0.89,-0.95,-1.20,-3.72,-3.74,-3.72
255.45,-2.82,0.93,-2.84,0.91,-0.91,-0.97,-1.21,-3.73,-3.75,-3.75
258.00,-2.81,0.94,-2.83,0.93,-0.93,-1.00,-1.23,-3.74,-3.76,-3.75
260.58,-2.81,0.95,-2.83,0.94,-0.94,-1.02,-1.24,-3.75,-3.77,-3.76
263.19,-2.80,0.98,-2.82,0.96,-0.96,-1.04,-1.24,-3.76,-3.79,-3.78
265.82,-2.81,0.99,-2.82,0.99,-0.99,-1.06,-1.25,-3.80,-3.80,-3.80
268.48,-2.81,1.00,-2.81,1.01,-1.01,-1.07,-1.25,-3.82,-3.82,-3.81
271.16,-2.81,1.02,-2.81,1.02,-1.02,-1.09,-1.25,-3.84,-3.83,-3.83
273.87,-2.82,1.03,-2.81,1.04,-1.04,-1.10,-1.25,-3.86,-3.85,-3.85
276.61,-2.82,1.05,-2.81,1.05,-1.05,-1.12,-1.24,-3.87,-3.86,-3.87
279.38,-2.82,1.08,-2.81,1.07,-1.07,-1.13,-1.23,-3.89,-3.88,-3.90
282.17,-2.81,1.09,-2.80,1.09,-1.09,-1.14,-1.23,-3.90,-3.89,-3.90
284.99,-2.81,1.10,-2.79,1.11,-1.11,-1.15,-1.22,-3.92,-3.90,-3.91
287.84,-2.80,1.11,-2.78,1.12,-1.12,-1.16,-1.20,-3.92,-3.91,-3.91
290.72,-2.79,1.14,-2.78,1.14,-1.14,-1.16,-1.19,-3.93,-3.92,-3.93
293.63,-2.78,1.14,-2.77,1.15,-1.15,-1.17,-1.18,-3.93,-3.92,-3.92
296.57,-2.76,1.16,-2.76,1.17,-1.17,-1.17,-1.16,-3.93,-3.93,-3.92
299.53,-2.75,1.18,-2.76,1.17,-1.17,-1.18,-1.15,-3.92,-3.93,-3.93
302.53,-2.74,1.19,-2.76,1.18,-1.18,-1.18,-1.13,-3.92,-3.94,-3.93
305.55,-2.73,1.21,-2.76,1.19,-1.19,-1.18,-1.12,-3.92,-3.94,-3.94
308.61,-2.70,1.23,-2.76,1.19,-1.19,-1.18,-1.10,-3.89,-3.94,-3.93
311.69,-2.70,1.25,-2.76,1.19,-1.19,-1.18,-1.09,-3.89,-3.95,-3.95
314.81,-2.78,1.17,-2.76,1.19,-1.19,-1.18,-1.07,-3.97,-3.95,-3.95
317.96,-2.80,1.16,-2.77,1.19,-1.19,-1.18,-1.06,-3.99,-3.96,-3.96
321.14,-2.80,1.16,-2.78,1.19,-1.19,-1.18,-1.04,-3.99,-3.96,-3.96
324.35,-2.80,1.17,-2.78,1.18,-1.18,-1.17,-1.03,-3.98,-3.96,-3.97
327.59,-2.81,1.15,-2.79,1.18,-1.18,-1.17,-1.01,-3.99,-3.97,-3.96
330.87,-2.81,1.16,-2.80,1.17,-1.17,-1.17,-1.00,-3.98,-3.97,-3.97
334.18,-2.81,1.17,-2.80,1.17,-1.17,-1.16,-0.99,-3.98,-3.98,-3.98
337.52,-2.81,1.17,-2.81,1.17,-1.17,-1.16,-0.98,-3.98,-3.98,-3.98
340.90,-2.81,1.17,-2.81,1.17,-1.17,-1.15,-0.96,-3.98,-3.98,-3.98
344.30,-2.81,1.17,-2.81,1.16,-1.16,-1.15,-0.95,-3.98,-3.98,-3.98
347.75,-2.81,1.16,-2.81,1.16,-1.16,-1.14,-0.94,-3.97,-3.98,-3.97
351.23,-2.81,1.18,-2.81,1.16,-1.16,-1.13,-0.93,-3.97,-3.97,-3.99
354.74,-2.81,1.16,-2.81,1.16,-1.16,-1.13,-0.92,-3.97,-3.97,-3.97
358.28,-2.81,1.16,-2.82,1.15,-1.15,-1.12,-0.92,-3.96,-3.97,-3.98
361.87,-2.80,1.17,-2.82,1.15,-1.15,-1.11,-0.91,-3.95,-3.97,-3.97
365.49,-2.79,1.17,-2.82,1.14,-1.14,-1.11,-0.90,-3.93,-3.96,-3.96
369.14,-2.79,1.17,-2.83,1.14,-1.14,-1.10,-0.90,-3.93,-3.96,-3.96
372.83,-2.85,1.10,-2.83,1.13,-1.13,-1.09,-0.89,-3.98,-3.96,-3.95
376.56,-2.87,1.08,-2.83,1.13,-1.13,-1.09,-0.89,-4.00,-3.96,-3.95
380.33,-2.86,1.10,-2.83,1.13,-1.13,-1.08,-0.89,-3.99,-3.96,-3.96
384.13,-2.85,1.10,-2.83,1.12,-1.12,-1.07,-0.89,-3.98,-3.96,-3.95
387.97,-2.85,1.10,-2.84,1.12,-1.12,-1.07,-0.88,-3.97,-3.96,-3.95
391.85,-2.84,1.12,-2.85,1.12,-1.12,-1.06,-0.88,-3.96,-3.97,-3.96
395.77,-2.84,1.13,-2.86,1.11,-1.11,-1.06,-0.88,-3.95,-3.97,-3.97
399.73,-2.84,1.13,-2.87,1.11,-1.11,-1.05,-0.88,-3.95,-3.98,-3.97
403.72,-2.85,1.11,-2.88,1.10,-1.10,-1.04,-0.88,-3.95,-3.98,-3.96
407.76,-2.85,1.14,-2.89,1.09,-1.09,-1.04,-0.89,-3.95,-3.99,-3.99
411.84,-2.85,1.14,-2.90,1.09,-1.09,-1.03,-0.89,-3.94,-3.99,-3.99
415.96,-2.89,1.10,-2.90,1.09,-1.09,-1.03,-0.89,-3.98,-3.99,-3.99
420.12,-2.94,1.06,-2.90,1.09,-1.09,-1.02,-0.89,-4.03,-3.99,-4.00
424.32,-2.94,1.05,-2.89,1.09,-1.09,-1.02,-0.90,-4.03,-3.98,-4.00
428.56,-2.93,1.05,-2.89,1.08,-1.08,-1.01,-0.90,-4.01,-3.97,-3.98
432.85,-2.92,1.04,-2.87,1.08,-1.08,-1.01,-0.91,-4.00,-3.95,-3.96
437.18,-2.89,1.06,-2.85,1.07,-1.07,-1.01,-0.91,-3.96,-3.93,-3.95
441.55,-2.86,1.05,-2.83,1.06,-1.06,-1.00,-0.91,-3.93,-3.90,-3.91
445.96,-2.81,1.06,-2.80,1.06,-1.06,-1.00,-0.92,-3.87,-3.86,-3.87
