frequency,raw,error,smoothed,error_smoothed,equalization,parametric_eq,fixed_band_eq,equalized_raw,equalized_smoothed,target
20.00,16.88,6.77,16.88,6.77,-6.77,-7.14,-2.48,10.11,10.11,10.11
20.20,16.85,6.74,16.85,6.74,-6.74,-7.10,-2.55,10.11,10.11,10.11
20.40,16.82,6.71,16.82,6.71,-6.71,-7.05,-2.62,10.10,10.10,10.10
20.61,16.79,6.68,16.79,6.69,-6.69,-7.00,-2.69,10.10,10.10,10.10
20.81,16.77,6.67,16.76,6.66,-6.66,-6.95,-2.77,10.11,10.10,10.09
21.02,16.74,6.64,16.73,6.63,-6.63,-6.90,-2.84,10.11,10.10,10.09
21.23,16.70,6.60,16.70,6.60,-6.60,-6.85,-2.92,10.09,10.09,10.09
21.44,16.66,6.56,16.66,6.57,-6.57,-6.80,-3.01,10.08,10.09,10.10
21.66,16.63,6.54,16.63,6.55,-6.55,-6.75,-3.09,10.08,10.09,10.09
21.87,16.60,6.51,16.60,6.52,-6.52,-6.70,-3.18,10.08,10.08,10.09
22.09,16.57,6.49,16.57,6.49,-6.49,-6.65,-3.27,10.08,10.08,10.08
22.31,16.54,6.46,16.53,6.46,-6.46,-6.60,-3.36,10.08,10.07,10.08
22.54,16.50,6.43,16.50,6.43,-6.43,-6.55,-3.46,10.06,10.07,10.07
22.76,16.47,6.40,16.47,6.40,-6.40,-6.50,-3.55,10.06,10.06,10.06
22.99,16.44,6.37,16.43,6.37,-6.37,-6.45,-3.65,10.06,10.06,10.06
23.22,16.40,6.34,16.40,6.34,-6.34,-6.41,-3.75,10.05,10.05,10.05
23.45,16.37,6.32,16.36,6.31,-6.31,-6.36,-3.86,10.05,10.05,10.05
23.69,16.33,6.29,16.33,6.29,-6.29,-6.31,-3.96,10.04,10.04,10.04
23.92,16.30,6.27,16.29,6.26,-6.26,-6.26,-4.07,10.04,10.03,10.03
24.16,16.26,6.23,16.25,6.22,-6.22,-6.22,-4.18,10.03,10.03,10.03
24.40,16.22,6.19,16.22,6.19,-6.19,-6.17,-4.29,10.03,10.03,10.02
24.65,16.18,6.15,16.18,6.16,-6.16,-6.13,-4.40,10.02,10.02,10.02
24.89,16.14,6.11,16.14,6.12,-6.12,-6.08,-4.51,10.01,10.02,10.02
25.14,16.10,6.08,16.10,6.09,-6.09,-6.04,-4.63,10.01,10.02,10.02
25.39,16.07,6.06,16.06,6.05,-6.05,-5.99,-4.75,10.02,10.01,10.01
25.65,16.03,6.02,16.02,6.01,-6.01,-5.95,-4.86,10.01,10.01,10.01
25.91,15.99,5.98,15.98,5.97,-5.97,-5.90,-4.98,10.01,10.01,10.00
26.16,15.95,5.93,15.94,5.94,-5.94,-5.86,-5.09,10.01,10.01,10.01
26.43,15.91,5.90,15.91,5.90,-5.90,-5.82,-5.21,10.01,10.01,10.01
26.69,15.87,5.86,15.86,5.86,-5.86,-5.78,-5.32,10.01,10.01,10.01
26.96,15.83,5.82,15.82,5.82,-5.82,-5.73,-5.44,10.01,10.01,10.01
27.23,15.79,5.78,15.78,5.78,-5.78,-5.69,-5.55,10.01,10.00,10.00
27.50,15.74,5.74,15.74,5.74,-5.74,-5.65,-5.65,10.00,10.00,10.00
27.77,15.70,5.69,15.70,5.70,-5.70,-5.61,-5.76,9.99,10.00,10.01
28.05,15.66,5.66,15.66,5.66,-5.66,-5.57,-5.86,9.99,9.99,10.00
28.33,15.62,5.62,15.61,5.62,-5.62,-5.53,-5.95,9.99,9.99,9.99
28.62,15.58,5.60,15.57,5.59,-5.59,-5.50,-6.04,9.99,9.98,9.98
28.90,15.53,5.54,15.53,5.55,-5.55,-5.46,-6.12,9.98,9.98,9.99
29.19,15.49,5.51,15.48,5.51,-5.51,-5.42,-6.20,9.97,9.97,9.97
29.48,15.44,5.47,15.44,5.47,-5.47,-5.38,-6.27,9.96,9.97,9.96
29.78,15.40,5.44,15.39,5.43,-5.43,-5.35,-6.33,9.96,9.96,9.96
30.08,15.35,5.39,15.35,5.40,-5.40,-5.31,-6.38,9.95,9.95,9.95
30.38,15.31,5.37,15.30,5.36,-5.36,-5.28,-6.42,9.95,9.95,9.94
30.68,15.26,5.32,15.26,5.31,-5.31,-5.24,-6.46,9.94,9.94,9.94
30.99,15.21,5.27,15.21,5.27,-5.27,-5.21,-6.48,9.93,9.94,9.93
31.30,15.17,5.24,15.16,5.23,-5.23,-5.17,-6.49,9.94,9.93,9.93
31.61,15.12,5.19,15.12,5.19,-5.19,-5.14,-6.50,9.93,9.93,9.92
31.93,15.07,5.15,15.07,5.14,-5.14,-5.11,-6.49,9.92,9.93,9.92
32.24,15.03,5.10,15.02,5.10,-5.10,-5.08,-6.48,9.92,9.92,9.93
32.57,14.98,5.07,14.98,5.06,-5.06,-5.04,-6.46,9.92,9.92,9.91
32.89,14.93,5.01,14.93,5.02,-5.02,-5.01,-6.43,9.91,9.91,9.92
33.22,14.89,4.97,14.88,4.97,-4.97,-4.98,-6.39,9.91,9.91,9.91
33.55,14.83,4.92,14.83,4.93,-4.93,-4.95,-6.34,9.89,9.90,9.91
33.89,14.79,4.90,14.78,4.90,-4.90,-4.92,-6.28,9.89,9.89,9.89
34.23,14.74,4.86,14.73,4.86,-4.86,-4.89,-6.22,9.88,9.88,9.87
34.57,14.69,4.82,14.68,4.82,-4.82,-4.87,-6.16,9.86,9.86,9.87
34.92,14.64,4.79,14.63,4.79,-4.79,-4.84,-6.09,9.85,9.84,9.84
35.27,14.59,4.75,14.58,4.76,-4.76,-4.81,-6.01,9.83,9.82,9.84
35.62,14.54,4.74,14.53,4.73,-4.73,-4.78,-5.93,9.80,9.80,9.80
35.97,14.48,4.69,14.48,4.71,-4.71,-4.76,-5.85,9.77,9.77,9.78
36.33,14.43,4.67,14.43,4.68,-4.68,-4.73,-5.77,9.74,9.75,9.75
36.70,14.38,4.66,14.38,4.66,-4.66,-4.71,-5.68,9.72,9.72,9.72
37.06,14.33,4.64,14.32,4.64,-4.64,-4.68,-5.60,9.69,9.69,9.69
37.43,14.27,4.61,14.27,4.62,-4.62,-4.66,-5.51,9.65,9.66,9.65
37.81,14.22,4.59,14.22,4.60,-4.60,-4.63,-5.42,9.62,9.62,9.62
38.19,14.17,4.58,14.17,4.58,-4.58,-4.61,-5.34,9.59,9.59,9.58
38.57,14.12,4.56,14.11,4.56,-4.56,-4.58,-5.25,9.56,9.56,9.56
38.95,14.07,4.54,14.06,4.53,-4.53,-4.56,-5.17,9.53,9.53,9.53
39.34,14.01,4.52,14.01,4.51,-4.51,-4.54,-5.08,9.49,9.49,9.49
39.74,13.96,4.50,13.96,4.49,-4.49,-4.52,-5.00,9.46,9.46,9.46
40.14,13.91,4.48,13.90,4.47,-4.47,-4.50,-4.92,9.44,9.43,9.43
40.54,13.85,4.44,13.85,4.45,-4.45,-4.48,-4.85,9.40,9.40,9.41
40.94,13.80,4.42,13.79,4.42,-4.42,-4.46,-4.77,9.37,9.37,9.37
41.35,13.74,4.39,13.74,4.39,-4.39,-4.44,-4.70,9.34,9.35,9.34
41.76,13.69,4.38,13.69,4.37,-4.37,-4.42,-4.63,9.32,9.32,9.31
42.18,13.64,4.34,13.63,4.34,-4.34,-4.40,-4.57,9.30,9.29,9.30
42.60,13.57,4.30,13.57,4.31,-4.31,-4.38,-4.51,9.26,9.26,9.26
43.03,13.53,4.30,13.52,4.28,-4.28,-4.36,-4.45,9.24,9.24,9.23
43.46,13.47,4.26,13.46,4.25,-4.25,-4.34,-4.39,9.21,9.21,9.21
43.90,13.41,4.22,13.41,4.22,-4.22,-4.33,-4.34,9.18,9.18,9.18
44.33,13.35,4.20,13.35,4.20,-4.20,-4.31,-4.29,9.15,9.15,9.15
44.78,13.29,4.16,13.29,4.17,-4.17,-4.29,-4.24,9.12,9.12,9.12
45.23,13.24,4.13,13.24,4.15,-4.15,-4.28,-4.20,9.09,9.09,9.11
45.68,13.18,4.12,13.18,4.12,-4.12,-4.26,-4.16,9.05,9.05,9.06
46.13,13.13,4.11,13.12,4.10,-4.10,-4.24,-4.12,9.02,9.02,9.01
46.60,13.07,4.08,13.06,4.09,-4.09,-4.23,-4.08,8.98,8.98,8.98
47.06,13.01,4.06,13.01,4.07,-4.07,-4.22,-4.05,8.94,8.94,8.94
47.53,12.95,4.04,12.95,4.06,-4.06,-4.20,-4.03,8.89,8.89,8.91
48.01,12.89,4.04,12.89,4.04,-4.04,-4.19,-4.00,8.84,8.85,8.85
48.49,12.84,4.03,12.83,4.03,-4.03,-4.17,-3.98,8.80,8.80,8.81
48.97,12.78,4.02,12.78,4.02,-4.02,-4.16,-3.96,8.75,8.75,8.75
49.46,12.72,4.00,12.72,4.01,-4.01,-4.15,-3.94,8.70,8.70,8.71
49.96,12.67,4.03,12.66,4.01,-4.01,-4.14,-3.93,8.66,8.65,8.64
50.46,12.60,4.00,12.60,4.00,-4.00,-4.13,-3.91,8.60,8.60,8.60
50.96,12.54,4.00,12.54,3.99,-3.99,-4.11,-3.90,8.54,8.55,8.54
51.47,12.49,3.99,12.48,3.99,-3.99,-4.10,-3.90,8.50,8.50,8.50
51.99,12.43,3.99,12.43,3.98,-3.98,-4.09,-3.89,8.45,8.45,8.44
52.51,12.38,3.98,12.37,3.97,-3.97,-4.08,-3.89,8.40,8.39,8.39
53.03,12.31,3.95,12.31,3.97,-3.97,-4.07,-3.88,8.34,8.34,8.36
53.56,12.25,3.95,12.25,3.96,-3.96,-4.06,-3.88,8.28,8.29,8.30
54.10,12.20,3.96,12.19,3.95,-3.95,-4.05,-3.88,8.24,8.24,8.24
54.64,12.13,3.94,12.13,3.95,-3.95,-4.05,-3.88,8.18,8.19,8.19
55.18,12.08,3.95,12.07,3.94,-3.94,-4.04,-3.88,8.14,8.14,8.12
55.74,12.01,3.93,12.01,3.92,-3.92,-4.03,-3.89,8.08,8.09,8.07
56.29,11.96,3.93,11.95,3.92,-3.92,-4.02,-3.89,8.04,8.04,8.03
56.86,11.89,3.90,11.89,3.91,-3.91,-4.01,-3.89,7.98,7.99,7.98
57.42,11.84,3.92,11.83,3.90,-3.90,-4.01,-3.89,7.93,7.93,7.92
58.00,11.78,3.90,11.78,3.90,-3.90,-4.00,-3.90,7.88,7.88,7.87
58.58,11.73,3.89,11.72,3.89,-3.89,-3.99,-3.90,7.83,7.82,7.83
59.16,11.66,3.87,11.66,3.89,-3.89,-3.99,-3.90,7.76,7.76,7.79
59.76,11.60,3.86,11.60,3.89,-3.89,-3.98,-3.90,7.71,7.71,7.74
60.35,11.54,3.87,11.54,3.89,-3.89,-3.98,-3.90,7.64,7.65,7.66
60.96,11.48,3.87,11.48,3.89,-3.89,-3.97,-3.89,7.58,7.58,7.60
61.57,11.42,3.90,11.42,3.89,-3.89,-3.97,-3.89,7.52,7.52,7.52
62.18,11.36,3.91,11.36,3.90,-3.90,-3.97,-3.89,7.46,7.46,7.44
62.80,11.30,3.92,11.30,3.91,-3.91,-3.96,-3.88,7.39,7.39,7.38
63.43,11.24,3.93,11.24,3.91,-3.91,-3.96,-3.87,7.32,7.33,7.30
64.07,11.18,3.93,11.18,3.92,-3.92,-3.96,-3.86,7.26,7.26,7.24
64.71,11.12,3.93,11.12,3.92,-3.92,-3.96,-3.85,7.19,7.19,7.18
65.35,11.06,3.93,11.06,3.93,-3.93,-3.95,-3.84,7.12,7.13,7.12
66.01,11.00,3.93,11.00,3.94,-3.94,-3.95,-3.83,7.06,7.06,7.06
66.67,10.95,3.94,10.94,3.94,-3.94,-3.95,-3.82,7.00,7.00,7.01
67.33,10.88,3.94,10.88,3.95,-3.95,-3.95,-3.80,6.93,6.93,6.93
68.01,10.82,3.95,10.82,3.95,-3.95,-3.95,-3.79,6.86,6.87,6.87
68.69,10.77,3.97,10.76,3.96,-3.96,-3.95,-3.77,6.81,6.80,6.80
69.37,10.70,3.95,10.70,3.96,-3.96,-3.95,-3.76,6.73,6.74,6.74
70.07,10.64,3.95,10.64,3.97,-3.97,-3.95,-3.74,6.67,6.67,6.68
70.77,10.59,3.98,10.58,3.98,-3.98,-3.95,-3.73,6.61,6.60,6.61
71.48,10.53,3.99,10.52,3.99,-3.99,-3.95,-3.71,6.54,6.54,6.54
72.19,10.46,3.99,10.46,3.99,-3.99,-3.96,-3.70,6.46,6.47,6.46
72.91,10.41,4.01,10.40,4.00,-4.00,-3.96,-3.69,6.40,6.40,6.40
73.64,10.35,4.02,10.34,4.01,-4.01,-3.96,-3.67,6.33,6.33,6.32
74.38,10.28,4.02,10.28,4.02,-4.02,-3.96,-3.66,6.26,6.26,6.26
75.12,10.23,4.04,10.22,4.02,-4.02,-3.97,-3.65,6.20,6.20,6.19
75.87,10.17,4.03,10.16,4.03,-4.03,-3.97,-3.64,6.14,6.13,6.14
76.63,10.11,4.04,10.10,4.04,-4.04,-3.98,-3.64,6.07,6.07,6.07
77.40,10.05,4.04,10.05,4.04,-4.04,-3.98,-3.63,6.00,6.00,6.00
78.17,9.99,4.06,9.99,4.05,-4.05,-3.99,-3.63,5.94,5.94,5.93
78.95,9.93,4.04,9.93,4.05,-4.05,-3.99,-3.63,5.87,5.88,5.88
79.74,9.88,4.06,9.87,4.06,-4.06,-4.00,-3.63,5.82,5.81,5.82
80.54,9.81,4.06,9.81,4.06,-4.06,-4.01,-3.63,5.74,5.75,5.75
81.35,9.76,4.07,9.75,4.07,-4.07,-4.01,-3.64,5.69,5.69,5.69
82.16,9.70,4.06,9.70,4.07,-4.07,-4.02,-3.65,5.62,5.63,5.63
82.98,9.64,4.08,9.64,4.08,-4.08,-4.03,-3.66,5.56,5.56,5.56
83.81,9.59,4.09,9.58,4.09,-4.09,-4.04,-3.67,5.50,5.50,5.50
84.65,9.54,4.11,9.53,4.09,-4.09,-4.05,-3.69,5.44,5.43,5.43
85.50,9.47,4.10,9.47,4.10,-4.10,-4.06,-3.71,5.36,5.37,5.36
86.35,9.42,4.11,9.42,4.11,-4.11,-4.07,-3.73,5.31,5.31,5.31
87.22,9.36,4.12,9.36,4.12,-4.12,-4.08,-3.75,5.24,5.24,5.24
88.09,9.31,4.13,9.30,4.13,-4.13,-4.09,-3.78,5.18,5.17,5.17
88.97,9.25,4.14,9.25,4.14,-4.14,-4.10,-3.81,5.11,5.11,5.11
89.86,9.20,4.16,9.19,4.15,-4.15,-4.11,-3.84,5.04,5.04,5.04
90.76,9.14,4.17,9.13,4.17,-4.17,-4.12,-3.88,4.97,4.97,4.97
91.66,9.08,4.18,9.08,4.18,-4.18,-4.14,-3.92,4.89,4.90,4.90
92.58,9.02,4.19,9.02,4.20,-4.20,-4.15,-3.96,4.82,4.82,4.83
93.51,8.97,4.21,8.97,4.22,-4.22,-4.16,-4.00,4.75,4.75,4.76
94.44,8.91,4.22,8.91,4.24,-4.24,-4.18,-4.05,4.67,4.67,4.68
95.39,8.86,4.25,8.85,4.26,-4.26,-4.19,-4.10,4.60,4.59,4.60
96.34,8.80,4.28,8.80,4.28,-4.28,-4.21,-4.15,4.51,4.52,4.52
97.30,8.75,4.30,8.74,4.30,-4.30,-4.22,-4.20,4.44,4.44,4.45
98.28,8.70,4.34,8.69,4.33,-4.33,-4.24,-4.26,4.37,4.36,4.35
99.26,8.63,4.36,8.63,4.35,-4.35,-4.26,-4.32,4.27,4.28,4.27
100.25,8.59,4.39,8.58,4.37,-4.37,-4.27,-4.38,4.21,4.20,4.19
101.25,8.52,4.40,8.52,4.40,-4.40,-4.29,-4.44,4.12,4.13,4.12
102.27,8.47,4.42,8.47,4.42,-4.42,-4.31,-4.50,4.05,4.05,4.04
103.29,8.42,4.45,8.41,4.44,-4.44,-4.33,-4.56,3.98,3.97,3.97
104.32,8.36,4.45,8.36,4.46,-4.46,-4.35,-4.63,3.90,3.90,3.90
105.37,8.31,4.48,8.31,4.48,-4.48,-4.37,-4.69,3.83,3.83,3.83
106.42,8.25,4.49,8.25,4.49,-4.49,-4.39,-4.76,3.75,3.76,3.76
107.48,8.20,4.52,8.20,4.51,-4.51,-4.41,-4.82,3.68,3.68,3.68
108.56,8.15,4.54,8.14,4.53,-4.53,-4.43,-4.88,3.61,3.61,3.61
109.64,8.09,4.54,8.09,4.55,-4.55,-4.45,-4.95,3.53,3.54,3.55
110.74,8.04,4.57,8.04,4.57,-4.57,-4.47,-5.01,3.46,3.46,3.47
111.85,7.99,4.59,7.98,4.59,-4.59,-4.49,-5.07,3.39,3.39,3.40
112.97,7.94,4.62,7.93,4.62,-4.62,-4.52,-5.12,3.32,3.31,3.32
114.10,7.89,4.64,7.88,4.64,-4.64,-4.54,-5.18,3.25,3.24,3.25
115.24,7.82,4.65,7.82,4.67,-4.67,-4.56,-5.22,3.15,3.16,3.16
116.39,7.77,4.70,7.77,4.69,-4.69,-4.59,-5.27,3.07,3.08,3.07
117.55,7.72,4.72,7.72,4.72,-4.72,-4.61,-5.31,3.00,3.00,3.00
118.73,7.67,4.76,7.66,4.75,-4.75,-4.63,-5.35,2.92,2.92,2.91
119.92,7.61,4.78,7.61,4.77,-4.77,-4.66,-5.38,2.83,2.83,2.82
121.12,7.55,4.79,7.55,4.81,-4.81,-4.68,-5.41,2.74,2.75,2.75
122.33,7.50,4.83,7.50,4.84,-4.84,-4.71,-5.43,2.66,2.66,2.66
123.55,7.45,4.86,7.44,4.87,-4.87,-4.73,-5.44,2.58,2.58,2.58
124.79,7.39,4.88,7.39,4.90,-4.90,-4.76,-5.45,2.49,2.49,2.50
126.03,7.33,4.91,7.33,4.93,-4.93,-4.78,-5.46,2.40,2.40,2.42
127.29,7.28,4.96,7.27,4.95,-4.95,-4.81,-5.45,2.32,2.32,2.32
128.57,7.23,4.99,7.22,4.98,-4.98,-4.84,-5.45,2.24,2.24,2.23
129.85,7.16,5.01,7.16,5.01,-5.01,-4.86,-5.43,2.15,2.15,2.15
131.15,7.11,5.04,7.10,5.03,-5.03,-4.89,-5.41,2.08,2.07,2.06
132.46,7.05,5.07,7.05,5.05,-5.05,-4.91,-5.39,1.99,1.99,1.98
133.79,6.99,5.08,6.99,5.07,-5.07,-4.94,-5.36,1.91,1.92,1.91
135.12,6.93,5.10,6.93,5.09,-5.09,-4.96,-5.33,1.84,1.84,1.83
136.48,6.87,5.10,6.87,5.10,-5.10,-4.99,-5.29,1.76,1.77,1.77
137.84,6.82,5.12,6.81,5.12,-5.12,-5.01,-5.25,1.70,1.70,1.70
139.22,6.76,5.14,6.75,5.13,-5.13,-5.04,-5.21,1.63,1.63,1.62
140.61,6.69,5.12,6.70,5.13,-5.13,-5.06,-5.16,1.55,1.56,1.56
142.02,6.64,5.14,6.64,5.14,-5.14,-5.09,-5.12,1.50,1.50,1.50
143.44,6.58,5.14,6.57,5.14,-5.14,-5.11,-5.07,1.44,1.44,1.43
144.87,6.52,5.13,6.51,5.14,-5.14,-5.13,-5.02,1.38,1.38,1.38
146.32,6.46,5.14,6.45,5.14,-5.14,-5.15,-4.97,1.32,1.32,1.32
147.78,6.40,5.14,6.39,5.13,-5.13,-5.18,-4.92,1.26,1.26,1.26
149.26,6.34,5.14,6.33,5.13,-5.13,-5.20,-4.87,1.21,1.20,1.20
150.75,6.27,5.13,6.27,5.13,-5.13,-5.22,-4.82,1.14,1.14,1.13
152.26,6.21,5.12,6.20,5.12,-5.12,-5.24,-4.77,1.08,1.08,1.09
153.78,6.14,5.12,6.14,5.12,-5.12,-5.25,-4.72,1.02,1.02,1.02
155.32,6.08,5.11,6.08,5.12,-5.12,-5.27,-4.67,0.96,0.96,0.97
156.88,6.01,5.10,6.01,5.11,-5.11,-5.29,-4.63,0.89,0.90,0.90
158.44,5.95,5.10,5.95,5.11,-5.11,-5.30,-4.58,0.84,0.84,0.84
160.03,5.89,5.10,5.89,5.11,-5.11,-5.32,-4.54,0.78,0.78,0.78
161.63,5.82,5.09,5.82,5.11,-5.11,-5.33,-4.51,0.71,0.71,0.72
163.24,5.76,5.11,5.76,5.10,-5.10,-5.34,-4.47,0.65,0.65,0.65
164.88,5.70,5.11,5.69,5.10,-5.10,-5.35,-4.44,0.59,0.59,0.59
166.53,5.64,5.11,5.63,5.10,-5.10,-5.36,-4.41,0.54,0.53,0.52
168.19,5.57,5.10,5.57,5.10,-5.10,-5.36,-4.38,0.47,0.47,0.47
169.87,5.51,5.10,5.50,5.10,-5.10,-5.37,-4.36,0.41,0.40,0.41
171.57,5.44,5.10,5.44,5.10,-5.10,-5.37,-4.34,0.34,0.34,0.34
173.29,5.38,5.10,5.37,5.09,-5.09,-5.37,-4.32,0.28,0.28,0.28
175.02,5.31,5.09,5.31,5.09,-5.09,-5.37,-4.31,0.22,0.22,0.22
176.77,5.25,5.08,5.24,5.08,-5.08,-5.37,-4.30,0.16,0.16,0.16
178.54,5.18,5.07,5.18,5.08,-5.08,-5.37,-4.29,0.10,0.10,0.11
180.32,5.12,5.08,5.12,5.07,-5.07,-5.36,-4.29,0.04,0.04,0.04
182.13,5.05,5.06,5.05,5.07,-5.07,-5.35,-4.29,-0.02,-0.01,-0.01
183.95,4.99,5.05,4.99,5.06,-5.06,-5.34,-4.29,-0.07,-0.07,-0.07
185.79,4.93,5.05,4.92,5.05,-5.05,-5.33,-4.29,-0.13,-0.13,-0.13
187.65,4.87,5.04,4.86,5.04,-5.04,-5.32,-4.30,-0.18,-0.19,-0.18
189.52,4.79,5.02,4.79,5.03,-5.03,-5.30,-4.31,-0.25,-0.24,-0.24
191.42,4.73,5.02,4.73,5.02,-5.02,-5.29,-4.33,-0.30,-0.30,-0.29
193.33,4.67,5.02,4.66,5.01,-5.01,-5.27,-4.35,-0.34,-0.35,-0.35
195.27,4.60,5.00,4.60,5.00,-5.00,-5.25,-4.37,-0.40,-0.40,-0.41
197.22,4.54,5.00,4.53,4.98,-4.98,-5.22,-4.39,-0.45,-0.45,-0.46
199.19,4.47,4.97,4.47,4.97,-4.97,-5.20,-4.41,-0.50,-0.50,-0.51
201.18,4.40,4.95,4.40,4.95,-4.95,-5.17,-4.44,-0.55,-0.55,-0.56
203.19,4.34,4.94,4.34,4.93,-4.93,-5.14,-4.47,-0.60,-0.60,-0.60
205.23,4.27,4.91,4.27,4.91,-4.91,-5.11,-4.50,-0.65,-0.64,-0.64
207.28,4.21,4.89,4.20,4.89,-4.89,-5.08,-4.53,-0.69,-0.69,-0.68
209.35,4.14,4.87,4.14,4.87,-4.87,-5.05,-4.56,-0.73,-0.73,-0.73
211.44,4.08,4.84,4.07,4.85,-4.85,-5.01,-4.59,-0.77,-0.77,-0.77
213.56,4.01,4.82,4.01,4.82,-4.82,-4.97,-4.63,-0.81,-0.81,-0.81
215.69,3.95,4.80,3.94,4.79,-4.79,-4.94,-4.66,-0.85,-0.85,-0.85
217.85,3.88,4.76,3.88,4.77,-4.77,-4.90,-4.69,-0.89,-0.89,-0.89
220.03,3.82,4.75,3.81,4.74,-4.74,-4.85,-4.72,-0.92,-0.92,-0.93
222.23,3.76,4.72,3.75,4.71,-4.71,-4.81,-4.75,-0.95,-0.96,-0.96
224.45,3.69,4.68,3.69,4.68,-4.68,-4.77,-4.78,-1.00,-0.99,-1.00
226.70,3.62,4.65,3.62,4.65,-4.65,-4.72,-4.80,-1.04,-1.03,-1.03
228.96,3.56,4.61,3.56,4.62,-4.62,-4.67,-4.82,-1.07,-1.06,-1.05
231.25,3.51,4.59,3.50,4.59,-4.59,-4.63,-4.84,-1.08,-1.09,-1.08
233.57,3.44,4.55,3.44,4.56,-4.56,-4.58,-4.86,-1.12,-1.12,-1.11
235.90,3.38,4.53,3.38,4.52,-4.52,-4.53,-4.87,-1.14,-1.14,-1.15
238.26,3.32,4.50,3.32,4.48,-4.48,-4.48,-4.88,-1.17,-1.17,-1.18
240.64,3.26,4.44,3.26,4.45,-4.45,-4.43,-4.88,-1.19,-1.19,-1.19
243.05,3.20,4.41,3.20,4.41,-4.41,-4.38,-4.87,-1.22,-1.22,-1.22
245.48,3.14,4.38,3.14,4.37,-4.37,-4.32,-4.87,-1.24,-1.24,-1.24
247.93,3.08,4.35,3.08,4.33,-4.33,-4.27,-4.85,-1.26,-1.26,-1.27
250.41,3.03,4.30,3.02,4.30,-4.30,-4.22,-4.83,-1.27,-1.28,-1.27
252.92,2.96,4.25,2.96,4.26,-4.26,-4.16,-4.81,-1.30,-1.30,-1.29
255.45,2.90,4.21,2.90,4.22,-4.22,-4.11,-4.77,-1.32,-1.32,-1.31
258.00,2.85,4.18,2.85,4.18,-4.18,-4.05,-4.74,-1.33,-1.33,-1.33
260.58,2.79,4.13,2.79,4.14,-4.14,-4.00,-4.69,-1.35,-1.35,-1.34
263.19,2.74,4.10,2.73,4.10,-4.10,-3.94,-4.65,-1.36,-1.36,-1.37
265.82,2.68,4.05,2.68,4.06,-4.06,-3.89,-4.60,-1.38,-1.38,-1.38
268.48,2.62,4.01,2.62,4.02,-4.02,-3.83,-4.54,-1.40,-1.40,-1.39
271.16,2.57,3.98,2.56,3.98,-3.98,-3.78,-4.48,-1.41,-1.41,-1.41
273.87,2.51,3.93,2.51,3.93,-3.93,-3.72,-4.41,-1.43,-1.43,-1.42
276.61,2.46,3.90,2.45,3.89,-3.89,-3.67,-4.34,-1.44,-1.44,-1.44
279.38,2.39,3.85,2.40,3.85,-3.85,-3.61,-4.27,-1.47,-1.46,-1.47
282.17,2.35,3.82,2.34,3.81,-3.81,-3.56,-4.20,-1.46,-1.47,-1.48
284.99,2.29,3.76,2.28,3.76,-3.76,-3.50,-4.12,-1.48,-1.48,-1.48
287.84,2.23,3.71,2.23,3.72,-3.72,-3.45,-4.04,-1.49,-1.49,-1.48
290.72,2.18,3.69,2.17,3.67,-3.67,-3.39,-3.96,-1.50,-1.50,-1.51
293.63,2.12,3.63,2.11,3.63,-3.63,-3.34,-3.88,-1.51,-1.51,-1.51
296.57,2.06,3.58,2.06,3.58,-3.58,-3.29,-3.79,-1.53,-1.52,-1.52
299.53,2.01,3.54,2.00,3.53,-3.53,-3.23,-3.71,-1.53,-1.53,-1.53
302.53,1.95,3.48,1.95,3.48,-3.48,-3.18,-3.63,-1.54,-1.54,-1.54
305.55,1.89,3.43,1.89,3.43,-3.43,-3.13,-3.55,-1.55,-1.55,-1.54
308.61,1.83,3.38,1.83,3.38,-3.38,-3.07,-3.46,-1.56,-1.55,-1.55
311.69,1.78,3.34,1.78,3.33,-3.33,-3.02,-3.38,-1.56,-1.56,-1.56
314.81,1.73,3.29,1.72,3.28,-3.28,-2.97,-3.30,-1.56,-1.56,-1.57
317.96,1.67,3.24,1.66,3.23,-3.23,-2.92,-3.22,-1.57,-1.57,-1.57
321.14,1.61,3.17,1.61,3.18,-3.18,-2.87,-3.14,-1.57,-1.57,-1.57
324.35,1.55,3.13,1.55,3.13,-3.13,-2.82,-3.06,-1.58,-1.58,-1.58
327.59,1.50,3.07,1.50,3.08,-3.08,-2.77,-2.99,-1.58,-1.58,-1.57
330.87,1.44,3.01,1.44,3.02,-3.02,-2.72,-2.91,-1.59,-1.58,-1.58
334.18,1.39,2.98,1.39,2.97,-2.97,-2.68,-2.84,-1.59,-1.58,-1.59
337.52,1.34,2.92,1.33,2.92,-2.92,-2.63,-2.77,-1.58,-1.59,-1.59
340.90,1.29,2.88,1.28,2.87,-2.87,-2.58,-2.70,-1.58,-1.59,-1.59
344.30,1.23,2.81,1.23,2.82,-2.82,-2.54,-2.63,-1.59,-1.59,-1.59
347.75,1.18,2.76,1.18,2.76,-2.76,-2.49,-2.57,-1.59,-1.59,-1.58
351.23,1.13,2.72,1.12,2.71,-2.71,-2.45,-2.50,-1.59,-1.59,-1.60
354.74,1.08,2.66,1.07,2.66,-2.66,-2.40,-2.44,-1.58,-1.59,-1.58
358.28,1.02,2.61,1.02,2.61,-2.61,-2.36,-2.38,-1.59,-1.59,-1.59
361.87,0.98,2.56,0.97,2.56,-2.56,-2.31,-2.32,-1.58,-1.59,-1.59
365.49,0.92,2.51,0.92,2.51,-2.51,-2.27,-2.26,-1.59,-1.59,-1.59
369.14,0.87,2.45,0.87,2.46,-2.46,-2.23,-2.21,-1.59,-1.59,-1.58
372.83,0.83,2.41,0.82,2.41,-2.41,-2.19,-2.16,-1.58,-1.59,-1.59
376.56,0.77,2.36,0.77,2.36,-2.36,-2.15,-2.11,-1.59,-1.59,-1.59
380.33,0.72,2.31,0.72,2.31,-2.31,-2.11,-2.06,-1.59,-1.59,-1.60
384.13,0.67,2.26,0.67,2.26,-2.26,-2.07,-2.01,-1.60,-1.59,-1.60
387.97,0.62,2.21,0.62,2.21,-2.21,-2.03,-1.96,-1.60,-1.59,-1.59
391.85,0.57,2.16,0.57,2.16,-2.16,-1.99,-1.92,-1.60,-1.59,-1.59
395.77,0.53,2.12,0.52,2.12,-2.12,-1.95,-1.87,-1.59,-1.59,-1.60
399.73,0.48,2.08,0.48,2.07,-2.07,-1.92,-1.83,-1.59,-1.59,-1.60
403.72,0.43,2.02,0.43,2.02,-2.02,-1.88,-1.79,-1.60,-1.59,-1.59
407.76,0.39,1.98,0.38,1.98,-1.98,-1.84,-1.75,-1.59,-1.60,-1.59
411.84,0.34,1.93,0.34,1.93,-1.93,-1.81,-1.71,-1.60,-1.60,-1.60
415.96,0.30,1.89,0.29,1.89,-1.89,-1.77,-1.68,-1.59,-1.60,-1.59
420.12,0.24,1.84,0.24,1.84,-1.84,-1.74,-1.64,-1.61,-1.60,-1.60
424.32,0.20,1.80,0.20,1.80,-1.80,-1.71,-1.61,-1.60,-1.60,-1.60
428.56,0.16,1.75,0.15,1.75,-1.75,-1.67,-1.57,-1.60,-1.60,-1.60
432.85,0.11,1.70,0.10,1.71,-1.71,-1.64,-1.54,-1.60,-1.60,-1.60
437.18,0.06,1.67,0.06,1.66,-1.66,-1.61,-1.51,-1.61,-1.61,-1.61
441.55,0.02,1.63,0.01,1.62,-1.62,-1.58,-1.48,-1.60,-1.61,-1.61
445.96,-0.03,1.58,-0.03,1.57,-1.57,-1.55,-1.45,-1.61,-1.61,-1.61
450.42,-0.08,1.53,-0.08,1.53,-1.53,-1.52,-1.42,-1.61,-1.61,-1.61
454.93,-0.12,1.49,-0.13,1.49,-1.49,-1.49,-1.39,-1.61,-1.61,-1.62
459.48,-0.17,1.44,-0.17,1.44,-1.44,-1.46,-1.36,-1.62,-1.61,-1.62
464.07,-0.22,1.39,-0.22,1.40,-1.40,-1.43,-1.33,-1.62,-1.61,-1.61
468.71,-0.26,1.35,-0.26,1.35,-1.35,-1.40,-1.30,-1.62,-1.61,-1.61
473.40,-0.30,1.31,-0.31,1.31,-1.31,-1.37,-1.27,-1.61,-1.61,-1.61
478.13,-0.35,1.26,-0.35,1.26,-1.26,-1.34,-1.24,-1.61,-1.61,-1.61
482.91,-0.39,1.22,-0.40,1.21,-1.21,-1.32,-1.21,-1.61,-1.61,-1.61
487.74,-0.43,1.17,-0.44,1.17,-1.17,-1.29,-1.18,-1.60,-1.61,-1.61
