frequency,raw,error,smoothed,error_smoothed,equalization,parametric_eq,fixed_band_eq,equalized_raw,equalized_smoothed,target
20.00,-15.71,-21.08,-15.71,-21.08,21.08,18.44,5.88,5.36,5.36,5.36
20.20,-15.58,-21.04,-15.58,-21.03,21.03,18.41,6.03,5.45,5.45,5.45
20.40,-15.44,-20.98,-15.45,-20.98,20.99,18.38,6.17,5.54,5.54,5.54
20.61,-15.32,-20.92,-15.32,-20.93,20.93,18.35,6.32,5.62,5.62,5.60
20.81,-15.18,-20.88,-15.18,-20.88,20.87,18.32,6.48,5.69,5.69,5.70
21.02,-15.05,-20.83,-15.05,-20.82,20.81,18.28,6.64,5.76,5.76,5.77
21.23,-14.91,-20.75,-14.92,-20.75,20.74,18.25,6.80,5.83,5.83,5.83
21.44,-14.78,-20.68,-14.78,-20.68,20.67,18.21,6.97,5.89,5.89,5.90
21.66,-14.65,-20.59,-14.65,-20.59,20.59,18.18,7.14,5.95,5.95,5.94
21.87,-14.51,-20.51,-14.51,-20.51,20.51,18.14,7.32,6.00,6.00,6.00
22.09,-14.37,-20.42,-14.37,-20.42,20.42,18.11,7.50,6.05,6.05,6.05
22.31,-14.23,-20.33,-14.23,-20.33,20.33,18.07,7.69,6.09,6.09,6.10
22.54,-14.10,-20.23,-14.10,-20.23,20.23,18.03,7.88,6.13,6.13,6.13
22.76,-13.96,-20.14,-13.96,-20.13,20.13,18.00,8.08,6.17,6.17,6.17
22.99,-13.82,-20.03,-13.82,-20.03,20.03,17.96,8.28,6.21,6.21,6.20
23.22,-13.68,-19.93,-13.68,-19.93,19.93,17.92,8.49,6.25,6.25,6.24
23.45,-13.54,-19.83,-13.55,-19.83,19.83,17.88,8.70,6.29,6.29,6.28
23.69,-13.41,-19.73,-13.40,-19.73,19.73,17.83,8.92,6.32,6.33,6.32
23.92,-13.26,-19.63,-13.26,-19.63,19.62,17.79,9.14,6.36,6.36,6.37
24.16,-13.11,-19.53,-13.12,-19.52,19.52,17.75,9.37,6.41,6.40,6.41
24.40,-12.97,-19.42,-12.97,-19.41,19.41,17.71,9.61,6.44,6.44,6.44
24.65,-12.84,-19.30,-12.83,-19.30,19.30,17.66,9.85,6.47,6.47,6.46
24.89,-12.69,-19.19,-12.69,-19.19,19.19,17.62,10.09,6.50,6.50,6.50
25.14,-12.55,-19.09,-12.55,-19.08,19.08,17.57,10.34,6.53,6.53,6.53
25.39,-12.40,-18.97,-12.41,-18.97,18.97,17.52,10.60,6.57,6.57,6.57
25.65,-12.26,-18.87,-12.26,-18.86,18.86,17.47,10.86,6.60,6.60,6.60
25.91,-12.12,-18.74,-12.12,-18.74,18.75,17.42,11.12,6.63,6.63,6.62
26.16,-11.97,-18.63,-11.98,-18.64,18.64,17.37,11.39,6.67,6.66,6.66
26.43,-11.84,-18.53,-11.83,-18.52,18.53,17.32,11.66,6.69,6.69,6.69
26.69,-11.69,-18.42,-11.69,-18.42,18.41,17.27,11.94,6.72,6.72,6.72
26.96,-11.55,-18.30,-11.55,-18.31,18.30,17.22,12.21,6.75,6.75,6.75
27.23,-11.41,-18.19,-11.40,-18.19,18.18,17.16,12.49,6.77,6.78,6.78
27.50,-11.25,-18.07,-11.25,-18.07,18.06,17.11,12.77,6.81,6.81,6.81
27.77,-11.10,-17.94,-11.10,-17.95,17.95,17.05,13.04,6.85,6.84,6.84
28.05,-10.95,-17.83,-10.96,-17.82,17.83,16.99,13.30,6.88,6.87,6.87
28.33,-10.81,-17.71,-10.81,-17.71,17.71,16.94,13.56,6.90,6.90,6.89
28.62,-10.67,-17.59,-10.67,-17.59,17.60,16.88,13.82,6.93,6.93,6.92
28.90,-10.52,-17.49,-10.52,-17.48,17.48,16.82,14.05,6.96,6.96,6.96
29.19,-10.37,-17.36,-10.38,-17.37,17.36,16.75,14.28,6.99,6.99,6.98
29.48,-10.23,-17.27,-10.23,-17.25,17.25,16.69,14.48,7.02,7.02,7.03
29.78,-10.09,-17.13,-10.08,-17.13,17.14,16.63,14.67,7.05,7.05,7.04
30.08,-9.94,-17.01,-9.94,-17.02,17.02,16.56,14.82,7.09,7.08,7.07
30.38,-9.81,-16.91,-9.80,-16.91,16.91,16.49,14.96,7.10,7.11,7.10
30.68,-9.66,-16.80,-9.66,-16.79,16.79,16.43,15.06,7.13,7.13,7.13
30.99,-9.53,-16.68,-9.52,-16.68,16.67,16.36,15.14,7.14,7.15,7.15
31.30,-9.38,-16.55,-9.38,-16.55,16.55,16.29,15.17,7.17,7.17,7.17
31.61,-9.22,-16.43,-9.23,-16.43,16.43,16.21,15.19,7.20,7.20,7.20
31.93,-9.08,-16.30,-9.07,-16.30,16.30,16.14,15.16,7.23,7.23,7.22
32.24,-8.92,-16.17,-8.92,-16.17,16.18,16.07,15.11,7.25,7.25,7.24
32.57,-8.78,-16.05,-8.77,-16.04,16.05,15.99,15.02,7.27,7.28,7.27
32.89,-8.62,-15.92,-8.62,-15.92,15.92,15.91,14.92,7.30,7.30,7.29
33.22,-8.47,-15.79,-8.48,-15.79,15.79,15.83,14.78,7.32,7.32,7.31
33.55,-8.33,-15.67,-8.33,-15.66,15.66,15.75,14.64,7.33,7.33,7.33
33.89,-8.19,-15.54,-8.19,-15.54,15.54,15.67,14.47,7.34,7.35,7.34
34.23,-8.04,-15.41,-8.05,-15.41,15.41,15.59,14.29,7.36,7.36,7.36
34.57,-7.90,-15.28,-7.90,-15.28,15.28,15.50,14.10,7.37,7.37,7.37
34.92,-7.76,-15.14,-7.76,-15.15,15.14,15.41,13.90,7.39,7.39,7.38
35.27,-7.62,-15.02,-7.61,-15.01,15.01,15.32,13.69,7.40,7.40,7.40
35.62,-7.47,-14.87,-7.47,-14.88,14.88,15.23,13.49,7.41,7.41,7.39
35.97,-7.33,-14.74,-7.34,-14.75,14.75,15.14,13.27,7.42,7.41,7.40
36.33,-7.20,-14.63,-7.20,-14.61,14.61,15.05,13.06,7.41,7.41,7.42
36.70,-7.06,-14.48,-7.07,-14.48,14.48,14.95,12.86,7.41,7.41,7.41
37.06,-6.93,-14.35,-6.93,-14.35,14.34,14.85,12.65,7.41,7.41,7.41
37.43,-6.79,-14.21,-6.79,-14.21,14.21,14.75,12.45,7.41,7.41,7.41
37.81,-6.65,-14.07,-6.65,-14.07,14.07,14.65,12.25,7.41,7.42,7.41
38.19,-6.51,-13.93,-6.51,-13.93,13.93,14.55,12.06,7.41,7.41,7.41
38.57,-6.37,-13.79,-6.38,-13.79,13.79,14.44,11.87,7.41,7.41,7.41
38.95,-6.24,-13.66,-6.24,-13.65,13.65,14.34,11.69,7.41,7.41,7.41
39.34,-6.10,-13.50,-6.10,-13.51,13.51,14.23,11.52,7.41,7.40,7.39
39.74,-5.97,-13.37,-5.97,-13.36,13.37,14.12,11.35,7.39,7.40,7.39
40.14,-5.84,-13.22,-5.84,-13.22,13.23,14.00,11.19,7.39,7.39,7.38
40.54,-5.70,-13.09,-5.70,-13.09,13.09,13.89,11.04,7.38,7.38,7.38
40.94,-5.57,-12.95,-5.57,-12.95,12.95,13.77,10.89,7.37,7.38,7.37
41.35,-5.43,-12.81,-5.44,-12.81,12.81,13.65,10.75,7.37,7.37,7.37
41.76,-5.30,-12.67,-5.30,-12.66,12.66,13.53,10.62,7.36,7.36,7.36
42.18,-5.16,-12.52,-5.16,-12.52,12.52,13.41,10.49,7.36,7.36,7.35
42.60,-5.03,-12.38,-5.03,-12.38,12.38,13.28,10.38,7.35,7.35,7.34
43.03,-4.89,-12.24,-4.90,-12.24,12.23,13.15,10.27,7.34,7.34,7.34
43.46,-4.76,-12.10,-4.76,-12.09,12.09,13.02,10.16,7.32,7.32,7.33
43.90,-4.63,-11.94,-4.63,-11.94,11.94,12.89,10.07,7.31,7.31,7.31
44.33,-4.49,-11.79,-4.49,-11.79,11.79,12.76,9.98,7.30,7.30,7.29
44.78,-4.35,-11.64,-4.35,-11.64,11.64,12.62,9.90,7.29,7.29,7.28
45.23,-4.22,-11.49,-4.22,-11.49,11.50,12.48,9.82,7.28,7.28,7.27
45.68,-4.08,-11.35,-4.08,-11.35,11.35,12.34,9.75,7.27,7.27,7.26
46.13,-3.94,-11.20,-3.95,-11.20,11.21,12.20,9.69,7.26,7.26,7.25
46.60,-3.81,-11.07,-3.81,-11.06,11.06,12.05,9.63,7.25,7.25,7.25
47.06,-3.67,-10.92,-3.68,-10.92,10.92,11.90,9.58,7.25,7.24,7.24
47.53,-3.54,-10.78,-3.54,-10.78,10.78,11.75,9.54,7.23,7.23,7.23
48.01,-3.41,-10.65,-3.41,-10.64,10.64,11.60,9.50,7.22,7.23,7.23
48.49,-3.27,-10.50,-3.28,-10.50,10.49,11.45,9.47,7.22,7.22,7.22
48.97,-3.14,-10.36,-3.14,-10.35,10.35,11.29,9.44,7.21,7.21,7.21
49.46,-3.00,-10.20,-3.01,-10.20,10.21,11.13,9.41,7.21,7.21,7.19
49.96,-2.87,-10.06,-2.88,-10.07,10.07,10.97,9.39,7.20,7.20,7.18
50.46,-2.74,-9.94,-2.74,-9.93,9.93,10.81,9.38,7.19,7.19,7.19
50.96,-2.61,-9.81,-2.61,-9.80,9.80,10.64,9.37,7.18,7.19,7.19
51.47,-2.47,-9.66,-2.47,-9.66,9.66,10.48,9.36,7.19,7.19,7.18
51.99,-2.34,-9.52,-2.34,-9.52,9.53,10.31,9.36,7.19,7.19,7.18
52.51,-2.20,-9.39,-2.20,-9.39,9.39,10.14,9.36,7.19,7.19,7.18
53.03,-2.07,-9.26,-2.07,-9.26,9.26,9.97,9.36,7.19,7.19,7.18
53.56,-1.94,-9.13,-1.95,-9.13,9.13,9.79,9.36,7.18,7.18,7.18
54.10,-1.82,-9.00,-1.82,-9.00,8.99,9.62,9.36,7.16,7.17,7.17
54.64,-1.69,-8.86,-1.69,-8.86,8.85,9.44,9.36,7.16,7.16,7.16
55.18,-1.56,-8.72,-1.56,-8.71,8.71,9.26,9.36,7.15,7.15,7.15
55.74,-1.42,-8.56,-1.43,-8.57,8.57,9.09,9.36,7.15,7.14,7.13
56.29,-1.30,-8.44,-1.30,-8.43,8.43,8.91,9.35,7.13,7.13,7.13
56.86,-1.17,-8.29,-1.17,-8.29,8.29,8.73,9.35,7.11,7.12,7.11
57.42,-1.04,-8.14,-1.04,-8.14,8.15,8.55,9.34,7.10,7.10,7.09
58.00,-0.91,-8.00,-0.92,-8.00,8.00,8.36,9.32,7.09,7.09,7.08
58.58,-0.79,-7.86,-0.79,-7.86,7.86,8.18,9.30,7.07,7.07,7.06
59.16,-0.67,-7.73,-0.67,-7.72,7.72,8.00,9.27,7.04,7.05,7.05
59.76,-0.54,-7.58,-0.55,-7.58,7.57,7.82,9.24,7.03,7.02,7.03
60.35,-0.42,-7.43,-0.42,-7.44,7.43,7.64,9.20,7.00,7.00,7.00
60.96,-0.30,-7.30,-0.30,-7.28,7.28,7.46,9.14,6.97,6.98,6.99
61.57,-0.17,-7.12,-0.18,-7.13,7.13,7.28,9.09,6.95,6.95,6.94
62.18,-0.05,-6.97,-0.06,-6.98,6.98,7.10,9.02,6.93,6.92,6.91
62.80,0.06,-6.85,0.06,-6.83,6.84,6.92,8.94,6.89,6.90,6.90
63.43,0.18,-6.69,0.18,-6.69,6.69,6.75,8.86,6.87,6.87,6.86
64.07,0.30,-6.55,0.30,-6.55,6.56,6.57,8.77,6.85,6.85,6.84
64.71,0.42,-6.42,0.41,-6.42,6.42,6.40,8.66,6.84,6.84,6.83
65.35,0.53,-6.29,0.52,-6.29,6.30,6.23,8.55,6.82,6.82,6.81
66.01,0.63,-6.18,0.63,-6.17,6.17,6.06,8.44,6.80,6.80,6.80
66.67,0.74,-6.06,0.74,-6.06,6.05,5.90,8.31,6.79,6.79,6.79
67.33,0.85,-5.94,0.85,-5.94,5.93,5.74,8.18,6.78,6.78,6.78
68.01,0.96,-5.82,0.95,-5.82,5.82,5.58,8.04,6.78,6.78,6.77
68.69,1.06,-5.71,1.06,-5.71,5.71,5.43,7.89,6.77,6.77,6.76
69.37,1.16,-5.61,1.16,-5.60,5.61,5.28,7.74,6.77,6.77,6.76
70.07,1.26,-5.50,1.25,-5.50,5.51,5.14,7.59,6.76,6.76,6.75
70.77,1.35,-5.41,1.35,-5.40,5.41,4.99,7.43,6.75,6.75,6.75
71.48,1.44,-5.31,1.43,-5.31,5.31,4.86,7.27,6.74,6.74,6.74
72.19,1.52,-5.21,1.52,-5.22,5.21,4.73,7.11,6.73,6.73,6.72
72.91,1.60,-5.13,1.60,-5.12,5.11,4.60,6.94,6.71,6.71,6.72
73.64,1.69,-5.02,1.69,-5.02,5.01,4.48,6.77,6.70,6.70,6.70
74.38,1.78,-4.92,1.77,-4.92,4.92,4.36,6.61,6.69,6.69,6.69
75.12,1.86,-4.82,1.86,-4.82,4.82,4.25,6.44,6.67,6.68,6.67
75.87,1.95,-4.72,1.95,-4.72,4.72,4.14,6.27,6.67,6.67,6.66
76.63,2.03,-4.63,2.03,-4.62,4.63,4.03,6.10,6.65,6.65,6.65
77.40,2.11,-4.53,2.10,-4.53,4.54,3.94,5.94,6.64,6.64,6.63
78.17,2.18,-4.44,2.18,-4.44,4.45,3.84,5.77,6.62,6.62,6.61
78.95,2.25,-4.37,2.25,-4.36,4.36,3.76,5.61,6.61,6.61,6.61
79.74,2.32,-4.29,2.32,-4.29,4.28,3.67,5.45,6.60,6.60,6.60
80.54,2.39,-4.21,2.39,-4.21,4.20,3.59,5.29,6.59,6.59,6.59
81.35,2.46,-4.13,2.46,-4.13,4.13,3.51,5.13,6.59,6.59,6.58
82.16,2.53,-4.05,2.52,-4.06,4.06,3.44,4.98,6.59,6.58,6.57
82.98,2.59,-4.00,2.59,-3.98,3.99,3.38,4.82,6.58,6.58,6.58
83.81,2.66,-3.92,2.65,-3.92,3.93,3.31,4.67,6.58,6.58,6.57
84.65,2.72,-3.85,2.71,-3.86,3.86,3.25,4.52,6.58,6.57,6.56
85.50,2.77,-3.81,2.77,-3.80,3.80,3.20,4.38,6.57,6.57,6.57
86.35,2.82,-3.76,2.82,-3.75,3.74,3.14,4.24,6.56,6.56,6.57
87.22,2.89,-3.68,2.88,-3.69,3.68,3.09,4.10,6.57,6.56,6.56
88.09,2.95,-3.62,2.94,-3.62,3.62,3.04,3.96,6.57,6.56,6.56
88.97,3.00,-3.56,3.00,-3.56,3.56,2.99,3.82,6.56,6.56,6.55
89.86,3.05,-3.50,3.05,-3.50,3.50,2.95,3.69,6.55,6.55,6.54
90.76,3.10,-3.43,3.09,-3.43,3.44,2.91,3.56,6.53,6.53,6.52
91.66,3.14,-3.37,3.13,-3.37,3.37,2.87,3.43,6.51,6.51,6.50
92.58,3.17,-3.31,3.17,-3.31,3.31,2.83,3.31,6.47,6.48,6.47
93.51,3.21,-3.25,3.21,-3.24,3.24,2.79,3.18,6.45,6.45,6.45
94.44,3.25,-3.18,3.25,-3.18,3.17,2.76,3.06,6.41,6.41,6.42
95.39,3.30,-3.09,3.29,-3.10,3.09,2.72,2.94,6.38,6.38,6.38
96.34,3.33,-3.02,3.33,-3.01,3.00,2.69,2.83,6.33,6.33,6.34
97.30,3.37,-2.92,3.37,-2.92,2.91,2.65,2.71,6.28,6.28,6.28
98.28,3.41,-2.83,3.41,-2.83,2.83,2.62,2.60,6.23,6.23,6.23
99.26,3.46,-2.73,3.45,-2.73,2.74,2.59,2.49,6.19,6.19,6.18
100.25,3.50,-2.63,3.49,-2.63,2.65,2.56,2.39,6.14,6.14,6.12
101.25,3.53,-2.54,3.52,-2.54,2.56,2.53,2.28,6.09,6.08,6.06
102.27,3.55,-2.46,3.54,-2.46,2.47,2.50,2.18,6.02,6.02,6.00
103.29,3.56,-2.39,3.56,-2.39,2.38,2.47,2.08,5.94,5.94,5.94
104.32,3.58,-2.32,3.58,-2.31,2.29,2.43,1.99,5.87,5.87,5.89
105.37,3.60,-2.23,3.60,-2.22,2.20,2.40,1.89,5.80,5.81,5.82
106.42,3.65,-2.12,3.64,-2.13,2.11,2.37,1.80,5.76,5.76,5.76
107.48,3.70,-2.02,3.69,-2.02,2.02,2.34,1.71,5.71,5.71,5.71
108.56,3.74,-1.92,3.74,-1.91,1.92,2.31,1.62,5.66,5.66,5.65
109.64,3.79,-1.81,3.78,-1.82,1.83,2.28,1.54,5.61,5.61,5.59
110.74,3.82,-1.73,3.82,-1.73,1.73,2.24,1.46,5.55,5.55,5.54
111.85,3.86,-1.65,3.85,-1.64,1.64,2.21,1.38,5.50,5.50,5.50
112.97,3.88,-1.56,3.88,-1.56,1.56,2.18,1.31,5.44,5.44,5.43
114.10,3.91,-1.49,3.91,-1.48,1.48,2.15,1.23,5.39,5.39,5.39
115.24,3.94,-1.41,3.93,-1.41,1.41,2.11,1.16,5.34,5.34,5.34
116.39,3.96,-1.34,3.96,-1.34,1.34,2.08,1.10,5.29,5.29,5.29
117.55,3.98,-1.28,3.98,-1.27,1.28,2.04,1.04,5.25,5.26,5.25
118.73,4.00,-1.22,4.00,-1.22,1.22,2.01,0.97,5.22,5.22,5.21
119.92,4.03,-1.16,4.02,-1.17,1.18,1.98,0.92,5.20,5.20,5.18
121.12,4.03,-1.13,4.03,-1.13,1.14,1.94,0.87,5.16,5.17,5.15
122.33,4.03,-1.10,4.03,-1.10,1.10,1.90,0.82,5.13,5.13,5.12
123.55,4.02,-1.08,4.02,-1.08,1.07,1.87,0.77,5.09,5.09,5.09
124.79,4.01,-1.06,4.01,-1.06,1.05,1.83,0.73,5.05,5.06,5.06
126.03,4.01,-1.04,4.01,-1.03,1.02,1.79,0.69,5.03,5.03,5.04
127.29,4.01,-1.01,4.01,-1.01,1.00,1.76,0.66,5.01,5.00,5.01
128.57,4.01,-0.97,4.01,-0.98,0.97,1.72,0.62,4.98,4.98,4.97
129.85,4.01,-0.95,4.01,-0.94,0.95,1.68,0.60,4.95,4.95,4.95
131.15,4.01,-0.92,4.01,-0.91,0.92,1.65,0.57,4.93,4.93,4.92
132.46,4.01,-0.88,4.01,-0.89,0.89,1.61,0.55,4.89,4.89,4.88
133.79,4.01,-0.86,4.01,-0.86,0.86,1.57,0.53,4.86,4.86,4.86
135.12,4.01,-0.83,4.01,-0.83,0.82,1.53,0.51,4.83,4.83,4.83
136.48,4.01,-0.80,4.01,-0.80,0.79,1.49,0.50,4.79,4.79,4.80
137.84,4.01,-0.77,4.01,-0.76,0.75,1.45,0.49,4.76,4.76,4.77
139.22,4.02,-0.71,4.02,-0.72,0.72,1.42,0.48,4.73,4.73,4.72
140.61,4.03,-0.67,4.02,-0.68,0.68,1.38,0.47,4.71,4.70,4.69
142.02,4.03,-0.65,4.02,-0.64,0.65,1.34,0.46,4.67,4.67,4.67
143.44,4.02,-0.62,4.02,-0.61,0.62,1.30,0.46,4.64,4.64,4.63
144.87,4.01,-0.59,4.01,-0.59,0.59,1.26,0.46,4.60,4.60,4.59
146.32,4.00,-0.56,3.99,-0.57,0.57,1.23,0.46,4.57,4.56,4.55
147.78,3.97,-0.56,3.97,-0.56,0.56,1.19,0.46,4.53,4.53,4.52
149.26,3.94,-0.56,3.94,-0.55,0.55,1.15,0.47,4.49,4.49,4.49
150.75,3.91,-0.54,3.91,-0.54,0.54,1.11,0.47,4.45,4.45,4.44
152.26,3.88,-0.53,3.87,-0.53,0.54,1.08,0.48,4.41,4.41,4.40
153.78,3.84,-0.54,3.84,-0.53,0.53,1.04,0.48,4.37,4.37,4.37
155.32,3.81,-0.52,3.80,-0.52,0.52,1.01,0.49,4.33,4.33,4.32
156.88,3.77,-0.53,3.77,-0.52,0.51,0.97,0.50,4.28,4.28,4.29
158.44,3.75,-0.49,3.74,-0.50,0.49,0.94,0.51,4.24,4.23,4.23
160.03,3.71,-0.49,3.71,-0.48,0.47,0.90,0.52,4.18,4.18,4.19
161.63,3.69,-0.46,3.69,-0.45,0.45,0.87,0.53,4.13,4.14,4.14
163.24,3.69,-0.42,3.68,-0.42,0.41,0.83,0.54,4.10,4.10,4.10
164.88,3.69,-0.38,3.68,-0.38,0.38,0.80,0.55,4.07,4.06,4.06
166.53,3.68,-0.35,3.68,-0.34,0.35,0.77,0.57,4.02,4.03,4.02
168.19,3.68,-0.31,3.68,-0.31,0.31,0.74,0.58,3.99,3.99,3.98
169.87,3.68,-0.27,3.67,-0.28,0.28,0.71,0.59,3.96,3.96,3.94
171.57,3.66,-0.26,3.66,-0.25,0.26,0.68,0.60,3.92,3.92,3.91
173.29,3.65,-0.23,3.64,-0.24,0.24,0.65,0.62,3.89,3.88,3.87
175.02,3.61,-0.23,3.61,-0.23,0.23,0.62,0.63,3.84,3.84,3.83
176.77,3.57,-0.24,3.57,-0.23,0.23,0.59,0.65,3.80,3.81,3.80
178.54,3.55,-0.23,3.54,-0.23,0.24,0.57,0.66,3.78,3.78,3.77
180.32,3.51,-0.24,3.51,-0.24,0.24,0.54,0.67,3.75,3.75,3.74
182.13,3.48,-0.25,3.47,-0.25,0.25,0.51,0.69,3.73,3.73,3.72
183.95,3.44,-0.27,3.44,-0.26,0.26,0.49,0.70,3.70,3.70,3.70
185.79,3.41,-0.28,3.41,-0.28,0.27,0.47,0.72,3.67,3.68,3.68
187.65,3.39,-0.28,3.38,-0.28,0.27,0.45,0.74,3.66,3.66,3.66
189.52,3.37,-0.29,3.37,-0.28,0.27,0.42,0.75,3.64,3.64,3.65
191.42,3.37,-0.27,3.36,-0.28,0.27,0.40,0.77,3.63,3.63,3.63
193.33,3.36,-0.27,3.36,-0.27,0.26,0.38,0.78,3.62,3.62,3.62
195.27,3.35,-0.27,3.35,-0.26,0.26,0.37,0.80,3.60,3.61,3.61
197.22,3.35,-0.25,3.34,-0.25,0.26,0.35,0.81,3.60,3.60,3.59
199.19,3.34,-0.24,3.34,-0.24,0.26,0.33,0.83,3.59,3.59,3.57
201.18,3.33,-0.24,3.32,-0.24,0.26,0.32,0.85,3.59,3.58,3.56
203.19,3.30,-0.27,3.30,-0.26,0.27,0.30,0.86,3.57,3.57,3.56
205.23,3.27,-0.28,3.27,-0.29,0.29,0.29,0.88,3.55,3.55,3.54
207.28,3.23,-0.32,3.23,-0.31,0.31,0.28,0.90,3.53,3.54,3.54
209.35,3.20,-0.33,3.19,-0.33,0.33,0.27,0.91,3.52,3.52,3.52
211.44,3.16,-0.35,3.16,-0.35,0.35,0.26,0.93,3.51,3.51,3.50
213.56,3.13,-0.37,3.12,-0.37,0.37,0.25,0.95,3.50,3.49,3.49
215.69,3.09,-0.41,3.09,-0.40,0.39,0.24,0.96,3.47,3.48,3.49
217.85,3.07,-0.41,3.07,-0.41,0.40,0.23,0.98,3.46,3.47,3.47
220.03,3.06,-0.41,3.05,-0.41,0.40,0.23,0.99,3.46,3.45,3.46
222.23,3.04,-0.41,3.04,-0.41,0.41,0.22,1.01,3.44,3.45,3.44
224.45,3.04,-0.41,3.03,-0.41,0.40,0.22,1.02,3.44,3.44,3.44
226.70,3.03,-0.40,3.03,-0.40,0.40,0.21,1.04,3.43,3.43,3.42
228.96,3.02,-0.40,3.02,-0.39,0.40,0.21,1.05,3.41,3.42,3.41
231.25,3.02,-0.39,3.01,-0.39,0.40,0.21,1.07,3.41,3.41,3.40
233.57,3.00,-0.39,2.99,-0.39,0.40,0.21,1.08,3.39,3.39,3.38
235.90,2.97,-0.41,2.97,-0.40,0.41,0.21,1.09,3.37,3.38,3.37
238.26,2.95,-0.41,2.94,-0.41,0.42,0.21,1.10,3.36,3.36,3.35
240.64,2.91,-0.43,2.91,-0.43,0.43,0.22,1.11,3.34,3.34,3.33
243.05,2.88,-0.45,2.87,-0.45,0.45,0.22,1.13,3.33,3.33,3.32
245.48,2.84,-0.48,2.84,-0.48,0.48,0.22,1.13,3.31,3.31,3.31
247.93,2.80,-0.51,2.80,-0.50,0.50,0.23,1.14,3.29,3.30,3.30
250.41,2.78,-0.52,2.77,-0.53,0.52,0.24,1.15,3.30,3.29,3.29
252.92,2.75,-0.56,2.75,-0.55,0.54,0.24,1.16,3.29,3.29,3.30
255.45,2.74,-0.57,2.74,-0.57,0.56,0.25,1.17,3.30,3.30,3.30
258.00,2.73,-0.59,2.72,-0.59,0.59,0.26,1.17,3.31,3.31,3.31
260.58,2.71,-0.61,2.71,-0.61,0.61,0.27,1.18,3.31,3.32,3.31
263.19,2.70,-0.63,2.70,-0.63,0.63,0.28,1.18,3.33,3.33,3.32
265.82,2.69,-0.65,2.69,-0.65,0.66,0.29,1.19,3.34,3.34,3.33
268.48,2.68,-0.68,2.68,-0.68,0.69,0.30,1.19,3.36,3.36,3.35
271.16,2.67,-0.71,2.66,-0.72,0.72,0.32,1.20,3.39,3.38,3.37
273.87,2.63,-0.76,2.63,-0.76,0.76,0.33,1.20,3.39,3.39,3.38
276.61,2.60,-0.82,2.60,-0.81,0.81,0.34,1.20,3.40,3.40,3.41
279.38,2.57,-0.85,2.57,-0.85,0.85,0.36,1.21,3.42,3.42,3.41
282.17,2.54,-0.90,2.53,-0.90,0.90,0.38,1.21,3.44,3.44,3.43
284.99,2.50,-0.95,2.50,-0.95,0.95,0.39,1.21,3.45,3.45,3.44
287.84,2.46,-1.01,2.46,-1.00,1.00,0.41,1.21,3.46,3.46,3.46
290.72,2.43,-1.06,2.43,-1.05,1.05,0.43,1.22,3.47,3.48,3.48
293.63,2.41,-1.09,2.40,-1.10,1.09,0.44,1.22,3.50,3.49,3.49
296.57,2.39,-1.14,2.38,-1.13,1.13,0.46,1.22,3.51,3.51,3.52
299.53,2.37,-1.17,2.37,-1.17,1.16,0.48,1.23,3.53,3.53,3.53
302.53,2.36,-1.19,2.36,-1.19,1.19,0.50,1.23,3.55,3.55,3.54
305.55,2.36,-1.22,2.36,-1.21,1.21,0.52,1.24,3.57,3.57,3.57
308.61,2.37,-1.23,2.37,-1.23,1.24,0.55,1.24,3.60,3.60,3.59
311.69,2.38,-1.25,2.38,-1.25,1.25,0.57,1.25,3.63,3.63,3.62
314.81,2.39,-1.28,2.38,-1.27,1.27,0.59,1.25,3.66,3.66,3.66
317.96,2.39,-1.29,2.39,-1.29,1.29,0.61,1.26,3.68,3.68,3.67
321.14,2.39,-1.31,2.39,-1.31,1.31,0.64,1.27,3.70,3.70,3.69
324.35,2.39,-1.33,2.39,-1.33,1.33,0.66,1.28,3.72,3.72,3.71
327.59,2.39,-1.35,2.39,-1.35,1.35,0.68,1.29,3.74,3.74,3.73
330.87,2.39,-1.37,2.39,-1.37,1.37,0.71,1.30,3.76,3.76,3.75
334.18,2.39,-1.40,2.39,-1.39,1.39,0.74,1.31,3.78,3.78,3.78
337.52,2.39,-1.42,2.39,-1.42,1.41,0.76,1.32,3.80,3.80,3.80
340.90,2.39,-1.44,2.39,-1.44,1.43,0.79,1.33,3.82,3.82,3.82
344.30,2.40,-1.46,2.40,-1.45,1.45,0.81,1.35,3.85,3.85,3.85
347.75,2.41,-1.47,2.40,-1.48,1.48,0.84,1.36,3.88,3.88,3.87
351.23,2.41,-1.50,2.40,-1.50,1.50,0.87,1.38,3.91,3.91,3.90
354.74,2.40,-1.54,2.40,-1.53,1.53,0.90,1.39,3.93,3.93,3.93
358.28,2.39,-1.56,2.39,-1.56,1.57,0.93,1.41,3.96,3.96,3.94
361.87,2.38,-1.60,2.37,-1.60,1.61,0.96,1.43,3.99,3.98,3.97
365.49,2.35,-1.66,2.35,-1.65,1.66,0.99,1.45,4.00,4.01,4.00
369.14,2.32,-1.70,2.32,-1.70,1.71,1.02,1.47,4.02,4.03,4.01
372.83,2.29,-1.76,2.28,-1.76,1.76,1.05,1.49,4.05,4.04,4.04
376.56,2.25,-1.82,2.25,-1.82,1.81,1.08,1.52,4.06,4.06,4.06
380.33,2.22,-1.88,2.22,-1.87,1.87,1.11,1.54,4.08,4.08,4.09
384.13,2.19,-1.92,2.18,-1.92,1.91,1.14,1.57,4.10,4.10,4.10
387.97,2.16,-1.97,2.16,-1.96,1.96,1.17,1.59,4.12,4.12,4.12
391.85,2.14,-2.00,2.14,-2.01,2.00,1.20,1.62,4.14,4.14,4.13
395.77,2.12,-2.05,2.12,-2.04,2.04,1.24,1.65,4.16,4.16,4.16
399.73,2.10,-2.08,2.10,-2.07,2.08,1.27,1.68,4.17,4.17,4.17
403.72,2.08,-2.10,2.07,-2.11,2.11,1.30,1.70,4.18,4.18,4.17
407.76,2.05,-2.14,2.05,-2.13,2.13,1.34,1.73,4.18,4.18,4.18
411.84,2.03,-2.17,2.03,-2.16,2.16,1.37,1.77,4.19,4.19,4.19
415.96,2.01,-2.18,2.00,-2.19,2.18,1.41,1.80,4.19,4.19,4.18
420.12,1.98,-2.21,1.98,-2.21,2.21,1.44,1.83,4.19,4.19,4.18
424.32,1.96,-2.23,1.95,-2.23,2.24,1.48,1.86,4.19,4.19,4.18
428.56,1.93,-2.26,1.93,-2.26,2.26,1.51,1.89,4.19,4.19,4.18
432.85,1.90,-2.28,1.89,-2.28,2.29,1.55,1.92,4.19,4.18,4.17
437.18,1.86,-2.32,1.86,-2.31,2.32,1.59,1.96,4.18,4.18,4.17
441.55,1.83,-2.35,1.83,-2.34,2.35,1.62,1.99,4.17,4.17,4.17
445.96,1.80,-2.37,1.79,-2.38,2.38,1.66,2.02,4.17,4.17,4.16
450.42,1.76,-2.41,1.76,-2.40,2.40,1.70,2.05,4.15,4.16,4.16
454.93,1.74,-2.43,1.74,-2.42,2.41,1.74,2.08,4.15,4.15,4.16
459.48,1.73,-2.43,1.72,-2.44,2.42,1.78,2.11,4.15,4.15,4.15
464.07,1.72,-2.45,1.72,-2.44,2.43,1.82,2.14,4.14,4.15,4.16
468.71,1.72,-2.45,1.72,-2.44,2.43,1.86,2.17,4.14,4.15,4.16
473.40,1.74,-2.42,1.73,-2.43,2.43,1.90,2.20,4.16,4.16,4.15
478.13,1.75,-2.42,1.75,-2.41,2.42,1.94,2.23,4.17,4.17,4.16
482.91,1.76,-2.40,1.75,-2.41,2.42,1.98,2.26,4.18,4.18,4.15
487.74,1.75,-2.42,1.75,-2.42,2.43,2.02,2.28,4.18,4.18,4.16
492.62,1.74,-2.44,1.74,-2.43,2.44,2.06,2.31,4.18,4.18,4.17
497.55,1.72,-2.45,1.71,-2.46,2.46,2.10,2.33,4.18,4.17,4.16
502.52,1.69,-2.49,1.69,-2.48,2.49,2.14,2.35,4.17,4.17,4.17
507.55,1.66,-2.52,1.66,-2.52,2.52,2.19,2.37,4.17,4.17,4.17
