frequency,raw,error,smoothed,error_smoothed,equalization,parametric_eq,fixed_band_eq,equalized_raw,equalized_smoothed,target
20.00,-15.01,-17.01,-15.01,-17.02,16.94,16.26,6.42,1.93,1.93,2.00
20.20,-14.82,-16.87,-14.81,-16.87,16.85,16.32,6.57,2.03,2.03,2.05
20.40,-14.64,-16.74,-14.63,-16.73,16.74,16.35,6.72,2.11,2.12,2.11
20.61,-14.45,-16.58,-14.44,-16.59,16.64,16.36,6.88,2.19,2.19,2.13
20.81,-14.27,-16.45,-14.26,-16.45,16.52,16.35,7.04,2.25,2.25,2.19
21.02,-14.09,-16.31,-14.10,-16.32,16.39,16.32,7.20,2.31,2.29,2.22
21.23,-13.97,-16.21,-13.96,-16.21,16.26,16.27,7.37,2.30,2.30,2.24
21.44,-13.85,-16.11,-13.85,-16.12,16.12,16.20,7.55,2.28,2.27,2.26
21.66,-13.74,-16.02,-13.74,-16.02,15.98,16.11,7.73,2.24,2.24,2.28
21.87,-13.61,-15.91,-13.60,-15.90,15.82,16.01,7.91,2.21,2.22,2.30
22.09,-13.44,-15.76,-13.43,-15.74,15.65,15.89,8.10,2.21,2.22,2.31
22.31,-13.21,-15.54,-13.22,-15.54,15.48,15.76,8.30,2.26,2.26,2.32
22.54,-12.98,-15.31,-12.97,-15.29,15.30,15.63,8.50,2.32,2.34,2.32
22.76,-12.75,-15.07,-12.74,-15.06,15.14,15.48,8.70,2.40,2.41,2.32
22.99,-12.51,-14.82,-12.56,-14.88,14.99,15.33,8.91,2.48,2.43,2.31
23.22,-12.46,-14.77,-12.45,-14.77,14.86,15.17,9.13,2.40,2.41,2.31
23.45,-12.42,-14.73,-12.40,-14.72,14.75,15.01,9.35,2.33,2.34,2.31
23.69,-12.38,-14.70,-12.38,-14.70,14.65,14.85,9.58,2.27,2.27,2.32
23.92,-12.34,-14.66,-12.33,-14.65,14.58,14.68,9.81,2.24,2.25,2.32
24.16,-12.26,-14.58,-12.26,-14.58,14.52,14.52,10.05,2.26,2.26,2.32
24.40,-12.17,-14.50,-12.16,-14.49,14.46,14.35,10.30,2.30,2.30,2.33
24.65,-12.07,-14.39,-12.06,-14.39,14.41,14.19,10.55,2.34,2.35,2.32
24.89,-11.97,-14.29,-11.98,-14.31,14.36,14.03,10.81,2.39,2.38,2.32
25.14,-11.92,-14.24,-11.93,-14.26,14.31,13.87,11.08,2.39,2.38,2.32
25.39,-11.91,-14.24,-11.90,-14.23,14.26,13.72,11.35,2.36,2.36,2.33
25.65,-11.90,-14.23,-11.89,-14.22,14.23,13.57,11.63,2.33,2.34,2.33
25.91,-11.88,-14.20,-11.87,-14.20,14.20,13.42,11.91,2.32,2.32,2.32
26.16,-11.84,-14.16,-11.84,-14.16,14.16,13.27,12.20,2.32,2.32,2.32
26.43,-11.79,-14.11,-11.80,-14.12,14.10,13.13,12.50,2.31,2.30,2.32
26.69,-11.73,-14.05,-11.74,-14.06,14.02,13.00,12.79,2.29,2.28,2.32
26.96,-11.67,-13.99,-11.64,-13.96,13.91,12.87,13.09,2.24,2.27,2.32
27.23,-11.49,-13.81,-11.49,-13.81,13.77,12.74,13.40,2.28,2.28,2.32
27.50,-11.30,-13.62,-11.31,-13.63,13.60,12.62,13.70,2.30,2.29,2.32
27.77,-11.09,-13.41,-11.10,-13.42,13.42,12.50,14.00,2.32,2.32,2.31
28.05,-10.91,-13.22,-10.91,-13.22,13.23,12.38,14.30,2.32,2.32,2.31
28.33,-10.72,-13.02,-10.71,-13.02,13.05,12.27,14.59,2.33,2.34,2.30
28.62,-10.54,-12.84,-10.53,-12.83,12.88,12.17,14.87,2.34,2.35,2.30
28.90,-10.35,-12.66,-10.37,-12.68,12.74,12.06,15.14,2.39,2.36,2.31
29.19,-10.26,-12.56,-10.26,-12.57,12.62,11.97,15.39,2.37,2.36,2.30
29.48,-10.20,-12.51,-10.19,-12.50,12.54,11.87,15.61,2.34,2.35,2.31
29.78,-10.15,-12.45,-10.14,-12.45,12.47,11.78,15.81,2.32,2.33,2.30
30.08,-10.10,-12.41,-10.10,-12.41,12.40,11.69,15.98,2.30,2.30,2.31
30.38,-10.05,-12.35,-10.06,-12.37,12.32,11.61,16.12,2.28,2.26,2.30
30.68,-10.01,-12.31,-10.01,-12.32,12.23,11.53,16.22,2.23,2.22,2.30
30.99,-9.96,-12.26,-9.92,-12.22,12.13,11.45,16.27,2.17,2.21,2.30
31.30,-9.77,-12.06,-9.77,-12.07,12.01,11.37,16.28,2.24,2.24,2.29
31.61,-9.58,-11.87,-9.59,-11.88,11.89,11.30,16.25,2.31,2.30,2.29
31.93,-9.39,-11.68,-9.41,-11.70,11.78,11.23,16.18,2.39,2.36,2.29
32.24,-9.29,-11.57,-9.28,-11.57,11.68,11.16,16.07,2.39,2.40,2.28
32.57,-9.21,-11.49,-9.19,-11.48,11.59,11.09,15.92,2.38,2.40,2.28
32.89,-9.14,-11.42,-9.15,-11.43,11.51,11.02,15.74,2.37,2.36,2.28
33.22,-9.13,-11.40,-9.15,-11.43,11.41,10.96,15.53,2.29,2.26,2.27
33.55,-9.15,-11.42,-9.16,-11.43,11.31,10.89,15.30,2.16,2.16,2.27
33.89,-9.16,-11.42,-9.10,-11.37,11.20,10.83,15.05,2.04,2.09,2.26
34.23,-8.97,-11.23,-8.94,-11.20,11.07,10.76,14.79,2.10,2.13,2.26
34.57,-8.68,-10.93,-8.69,-10.94,10.92,10.70,14.52,2.25,2.24,2.25
34.92,-8.38,-10.64,-8.43,-10.68,10.78,10.63,14.24,2.40,2.35,2.25
35.27,-8.23,-10.47,-8.24,-10.48,10.62,10.57,13.95,2.39,2.39,2.24
35.62,-8.14,-10.38,-8.11,-10.36,10.47,10.50,13.66,2.33,2.36,2.24
35.97,-8.04,-10.28,-8.05,-10.29,10.33,10.43,13.37,2.29,2.28,2.24
36.33,-7.99,-10.23,-8.00,-10.24,10.20,10.36,13.09,2.22,2.20,2.24
36.70,-7.95,-10.18,-7.94,-10.18,10.10,10.28,12.80,2.15,2.16,2.23
37.06,-7.88,-10.11,-7.85,-10.09,10.01,10.21,12.52,2.13,2.16,2.23
37.43,-7.71,-9.96,-7.72,-9.96,9.92,10.13,12.25,2.20,2.20,2.24
37.81,-7.56,-9.80,-7.58,-9.82,9.82,10.05,11.98,2.27,2.25,2.24
38.19,-7.44,-9.67,-7.45,-9.69,9.74,9.97,11.71,2.30,2.29,2.23
38.57,-7.37,-9.61,-7.36,-9.60,9.66,9.88,11.46,2.29,2.30,2.24
38.95,-7.29,-9.54,-7.29,-9.54,9.60,9.79,11.21,2.31,2.30,2.25
39.34,-7.25,-9.49,-7.24,-9.49,9.54,9.70,10.96,2.29,2.30,2.24
39.74,-7.21,-9.45,-7.20,-9.45,9.48,9.60,10.72,2.27,2.27,2.24
40.14,-7.18,-9.42,-7.21,-9.45,9.41,9.50,10.49,2.23,2.20,2.24
40.54,-7.19,-9.43,-7.20,-9.44,9.33,9.40,10.27,2.15,2.13,2.24
40.94,-7.20,-9.43,-7.12,-9.35,9.25,9.29,10.05,2.05,2.13,2.23
41.35,-6.97,-9.20,-6.95,-9.18,9.15,9.18,9.84,2.18,2.20,2.23
41.76,-6.70,-8.92,-6.74,-8.97,9.03,9.07,9.64,2.33,2.29,2.22
42.18,-6.53,-8.75,-6.57,-8.80,8.88,8.96,9.44,2.35,2.31,2.22
42.60,-6.49,-8.70,-6.47,-8.69,8.71,8.84,9.25,2.22,2.24,2.21
43.03,-6.44,-8.64,-6.40,-8.60,8.54,8.72,9.06,2.10,2.14,2.20
43.46,-6.28,-8.47,-6.29,-8.48,8.39,8.60,8.88,2.11,2.10,2.19
43.90,-6.13,-8.30,-6.11,-8.28,8.28,8.47,8.71,2.15,2.17,2.17
44.33,-5.94,-8.09,-5.91,-8.07,8.20,8.34,8.54,2.26,2.29,2.15
44.78,-5.75,-7.88,-5.81,-7.94,8.12,8.22,8.37,2.37,2.31,2.13
45.23,-5.75,-7.87,-5.83,-7.95,8.03,8.09,8.22,2.28,2.20,2.12
45.68,-5.95,-8.06,-5.90,-8.01,7.94,7.96,8.06,1.99,2.04,2.11
46.13,-6.04,-8.13,-5.95,-8.05,7.87,7.82,7.92,1.83,1.92,2.09
46.60,-5.85,-7.94,-5.87,-7.96,7.81,7.69,7.78,1.96,1.94,2.09
47.06,-5.66,-7.73,-5.64,-7.72,7.75,7.56,7.64,2.09,2.11,2.07
47.53,-5.44,-7.50,-5.42,-7.49,7.66,7.42,7.50,2.22,2.23,2.06
48.01,-5.23,-7.29,-5.40,-7.46,7.52,7.29,7.38,2.30,2.13,2.06
48.49,-5.41,-7.45,-5.42,-7.46,7.37,7.16,7.25,1.96,1.95,2.04
48.97,-5.58,-7.61,-5.32,-7.35,7.21,7.02,7.13,1.63,1.89,2.02
49.46,-5.14,-7.15,-5.13,-7.14,7.07,6.89,7.01,1.92,1.93,2.00
49.96,-4.67,-6.65,-4.89,-6.88,6.94,6.76,6.90,2.27,2.05,1.98
50.46,-4.71,-6.68,-4.71,-6.69,6.85,6.63,6.79,2.14,2.14,1.97
50.96,-4.80,-6.76,-4.68,-6.64,6.75,6.50,6.69,1.95,2.07,1.96
51.47,-4.69,-6.63,-4.68,-6.63,6.63,6.37,6.58,1.94,1.95,1.94
51.99,-4.56,-6.49,-4.63,-6.57,6.51,6.24,6.48,1.95,1.88,1.93
52.51,-4.57,-6.49,-4.56,-6.49,6.41,6.11,6.39,1.85,1.85,1.92
53.03,-4.56,-6.48,-4.52,-6.44,6.34,5.99,6.29,1.78,1.82,1.92
53.56,-4.43,-6.33,-4.42,-6.32,6.28,5.86,6.20,1.85,1.86,1.90
54.10,-4.28,-6.17,-4.22,-6.12,6.20,5.74,6.11,1.92,1.98,1.89
54.64,-4.03,-5.90,-4.10,-5.98,6.10,5.62,6.02,2.07,2.01,1.87
55.18,-3.95,-5.82,-4.09,-5.95,5.99,5.50,5.93,2.04,1.90,1.87
55.74,-4.20,-6.06,-4.08,-5.94,5.88,5.38,5.85,1.67,1.80,1.85
56.29,-4.17,-6.01,-4.06,-5.90,5.78,5.26,5.76,1.62,1.73,1.84
56.86,-3.86,-5.69,-3.95,-5.78,5.70,5.15,5.68,1.84,1.75,1.83
57.42,-3.74,-5.54,-3.76,-5.58,5.64,5.04,5.60,1.90,1.88,1.80
58.00,-3.68,-5.47,-3.64,-5.43,5.58,4.93,5.51,1.91,1.95,1.79
58.58,-3.62,-5.40,-3.65,-5.43,5.51,4.82,5.43,1.89,1.86,1.78
59.16,-3.63,-5.39,-3.70,-5.47,5.43,4.71,5.35,1.80,1.73,1.76
59.76,-3.81,-5.55,-3.71,-5.45,5.35,4.61,5.27,1.54,1.64,1.74
60.35,-3.74,-5.44,-3.67,-5.38,5.28,4.50,5.18,1.55,1.61,1.70
60.96,-3.50,-5.16,-3.59,-5.26,5.22,4.40,5.10,1.73,1.63,1.66
61.57,-3.48,-5.10,-3.49,-5.11,5.17,4.30,5.02,1.69,1.68,1.62
62.18,-3.48,-5.06,-3.46,-5.04,5.11,4.20,4.93,1.63,1.65,1.58
62.80,-3.48,-5.01,-3.48,-5.01,5.04,4.11,4.84,1.56,1.56,1.53
63.43,-3.48,-4.97,-3.48,-4.97,4.97,4.01,4.76,1.49,1.49,1.49
64.07,-3.48,-4.92,-3.48,-4.93,4.92,3.92,4.67,1.44,1.44,1.45
64.71,-3.48,-4.88,-3.48,-4.88,4.88,3.83,4.58,1.40,1.40,1.40
65.35,-3.48,-4.84,-3.48,-4.84,4.85,3.74,4.49,1.37,1.37,1.36
66.01,-3.48,-4.79,-3.48,-4.79,4.81,3.65,4.40,1.33,1.33,1.31
66.67,-3.48,-4.74,-3.48,-4.75,4.75,3.57,4.31,1.27,1.26,1.26
67.33,-3.48,-4.69,-3.48,-4.70,4.67,3.48,4.22,1.19,1.19,1.21
68.01,-3.48,-4.65,-3.46,-4.63,4.59,3.40,4.13,1.11,1.13,1.17
68.69,-3.41,-4.53,-3.43,-4.55,4.49,3.32,4.04,1.08,1.06,1.12
69.37,-3.34,-4.41,-3.31,-4.38,4.38,3.24,3.95,1.04,1.07,1.07
70.07,-3.25,-4.27,-3.17,-4.20,4.25,3.16,3.85,1.00,1.08,1.02
70.77,-2.96,-3.93,-3.14,-4.12,4.12,3.09,3.76,1.16,0.98,0.97
71.48,-3.10,-4.02,-3.09,-4.01,4.01,3.01,3.67,0.91,0.92,0.92
72.19,-3.25,-4.10,-3.02,-3.88,3.90,2.94,3.57,0.65,0.88,0.85
72.91,-2.86,-3.65,-2.98,-3.78,3.81,2.87,3.48,0.95,0.83,0.79
73.64,-2.83,-3.57,-2.91,-3.65,3.72,2.80,3.39,0.90,0.81,0.74
74.38,-2.92,-3.60,-2.89,-3.57,3.64,2.73,3.30,0.73,0.76,0.68
75.12,-3.04,-3.66,-2.98,-3.60,3.55,2.66,3.20,0.52,0.58,0.62
75.87,-2.95,-3.51,-3.00,-3.57,3.44,2.59,3.11,0.50,0.44,0.56
76.63,-2.96,-3.47,-2.90,-3.41,3.33,2.53,3.02,0.37,0.43,0.51
77.40,-2.80,-3.26,-2.78,-3.25,3.21,2.46,2.93,0.41,0.42,0.46
78.17,-2.55,-2.95,-2.66,-3.07,3.09,2.40,2.84,0.54,0.42,0.40
78.95,-2.63,-2.99,-2.51,-2.87,2.96,2.34,2.75,0.33,0.45,0.36
79.74,-2.39,-2.70,-2.41,-2.72,2.81,2.28,2.67,0.42,0.40,0.31
80.54,-2.30,-2.56,-2.36,-2.62,2.65,2.22,2.58,0.35,0.30,0.26
81.35,-2.31,-2.52,-2.31,-2.53,2.51,2.16,2.49,0.20,0.20,0.21
82.16,-2.32,-2.48,-2.29,-2.45,2.38,2.10,2.41,0.06,0.09,0.16
82.98,-2.26,-2.38,-2.19,-2.31,2.25,2.04,2.33,-0.01,0.06,0.12
83.81,-2.00,-2.07,-2.03,-2.11,2.11,1.99,2.24,0.12,0.08,0.07
84.65,-1.85,-1.87,-1.90,-1.92,1.97,1.93,2.16,0.12,0.07,0.02
85.50,-1.81,-1.79,-1.84,-1.82,1.82,1.88,2.08,0.01,-0.02,-0.02
86.35,-1.84,-1.77,-1.80,-1.74,1.68,1.82,2.00,-0.16,-0.12,-0.07
87.22,-1.80,-1.68,-1.70,-1.58,1.55,1.77,1.92,-0.24,-0.14,-0.12
88.09,-1.54,-1.37,-1.58,-1.41,1.45,1.72,1.84,-0.09,-0.13,-0.17
88.97,-1.39,-1.16,-1.50,-1.28,1.36,1.67,1.77,-0.03,-0.14,-0.23
89.86,-1.55,-1.27,-1.51,-1.23,1.29,1.62,1.69,-0.25,-0.21,-0.28
90.76,-1.64,-1.31,-1.60,-1.27,1.24,1.57,1.61,-0.39,-0.36,-0.33
91.66,-1.68,-1.30,-1.68,-1.30,1.21,1.52,1.54,-0.46,-0.46,-0.38
92.58,-1.71,-1.27,-1.69,-1.26,1.22,1.47,1.47,-0.49,-0.47,-0.44
93.51,-1.71,-1.22,-1.72,-1.24,1.27,1.42,1.39,-0.44,-0.45,-0.49
94.44,-1.77,-1.24,-1.80,-1.27,1.35,1.37,1.32,-0.42,-0.45,-0.53
95.39,-1.94,-1.36,-1.93,-1.36,1.44,1.33,1.25,-0.49,-0.49,-0.58
96.34,-2.14,-1.51,-2.13,-1.50,1.54,1.28,1.18,-0.59,-0.59,-0.63
97.30,-2.34,-1.66,-2.35,-1.67,1.65,1.23,1.11,-0.69,-0.70,-0.68
98.28,-2.57,-1.84,-2.56,-1.84,1.76,1.18,1.04,-0.80,-0.80,-0.73
99.26,-2.74,-1.97,-2.73,-1.96,1.88,1.14,0.97,-0.86,-0.85,-0.77
100.25,-2.89,-2.07,-2.87,-2.05,2.00,1.09,0.90,-0.89,-0.87,-0.82
101.25,-2.95,-2.08,-2.96,-2.10,2.10,1.05,0.84,-0.85,-0.86,-0.87
102.27,-3.06,-2.14,-3.05,-2.14,2.19,1.00,0.77,-0.87,-0.86,-0.92
103.29,-3.15,-2.18,-3.17,-2.21,2.27,0.96,0.71,-0.88,-0.90,-0.97
104.32,-3.30,-2.29,-3.30,-2.30,2.34,0.91,0.64,-0.96,-0.97,-1.01
105.37,-3.49,-2.43,-3.43,-2.38,2.40,0.87,0.58,-1.09,-1.03,-1.06
106.42,-3.53,-2.42,-3.57,-2.46,2.45,0.82,0.52,-1.08,-1.12,-1.11
107.48,-3.67,-2.50,-3.68,-2.51,2.48,0.77,0.46,-1.19,-1.20,-1.17
108.56,-3.78,-2.56,-3.74,-2.52,2.48,0.73,0.40,-1.29,-1.26,-1.22
109.64,-3.78,-2.51,-3.79,-2.52,2.46,0.68,0.34,-1.32,-1.33,-1.27
110.74,-3.76,-2.43,-3.76,-2.44,2.40,0.64,0.28,-1.36,-1.37,-1.33
111.85,-3.72,-2.35,-3.69,-2.32,2.32,0.59,0.22,-1.40,-1.38,-1.37
112.97,-3.60,-2.17,-3.61,-2.18,2.22,0.54,0.17,-1.38,-1.39,-1.43
114.10,-3.51,-2.03,-3.52,-2.05,2.10,0.50,0.11,-1.41,-1.42,-1.48
115.24,-3.44,-1.91,-3.44,-1.91,1.98,0.45,0.06,-1.46,-1.46,-1.53
116.39,-3.40,-1.82,-3.37,-1.80,1.84,0.40,0.01,-1.56,-1.53,-1.58
117.55,-3.29,-1.67,-3.34,-1.72,1.70,0.35,-0.04,-1.59,-1.64,-1.62
118.73,-3.26,-1.60,-3.26,-1.60,1.56,0.30,-0.09,-1.70,-1.70,-1.66
119.92,-3.22,-1.53,-3.13,-1.44,1.41,0.25,-0.13,-1.81,-1.72,-1.69
121.12,-2.92,-1.19,-2.97,-1.25,1.24,0.20,-0.18,-1.68,-1.73,-1.73
122.33,-2.76,-1.00,-2.80,-1.04,1.05,0.15,-0.22,-1.71,-1.75,-1.76
123.55,-2.64,-0.85,-2.63,-0.85,0.85,0.10,-0.26,-1.79,-1.79,-1.79
124.79,-2.52,-0.70,-2.48,-0.67,0.63,0.04,-0.30,-1.89,-1.85,-1.82
126.03,-2.30,-0.45,-2.27,-0.43,0.41,-0.01,-0.34,-1.89,-1.87,-1.85
127.29,-2.02,-0.15,-2.04,-0.17,0.19,-0.07,-0.38,-1.83,-1.85,-1.87
128.57,-1.80,0.11,-1.82,0.08,-0.03,-0.13,-0.42,-1.82,-1.85,-1.91
129.85,-1.65,0.29,-1.66,0.27,-0.24,-0.19,-0.45,-1.88,-1.90,-1.94
131.15,-1.55,0.42,-1.52,0.45,-0.44,-0.25,-0.48,-1.99,-1.96,-1.97
132.46,-1.39,0.61,-1.37,0.63,-0.65,-0.31,-0.52,-2.04,-2.02,-2.00
133.79,-1.19,0.84,-1.21,0.82,-0.85,-0.38,-0.55,-2.04,-2.06,-2.03
135.12,-1.04,1.02,-1.05,1.00,-1.03,-0.44,-0.58,-2.07,-2.08,-2.06
136.48,-0.91,1.17,-0.89,1.19,-1.20,-0.51,-0.61,-2.10,-2.09,-2.08
137.84,-0.78,1.34,-0.74,1.38,-1.35,-0.59,-0.63,-2.13,-2.09,-2.12
139.22,-0.56,1.59,-0.59,1.55,-1.50,-0.66,-0.66,-2.06,-2.09,-2.15
140.61,-0.46,1.72,-0.48,1.69,-1.64,-0.74,-0.69,-2.10,-2.12,-2.18
142.02,-0.44,1.76,-0.43,1.77,-1.77,-0.82,-0.71,-2.21,-2.20,-2.20
143.44,-0.40,1.83,-0.39,1.84,-1.89,-0.91,-0.74,-2.28,-2.27,-2.23
144.87,-0.35,1.92,-0.32,1.94,-1.99,-0.99,-0.77,-2.34,-2.31,-2.27
146.32,-0.21,2.10,-0.23,2.07,-2.08,-1.09,-0.79,-2.29,-2.31,-2.31
147.78,-0.14,2.20,-0.14,2.20,-2.18,-1.18,-0.82,-2.31,-2.32,-2.34
149.26,-0.08,2.31,-0.08,2.30,-2.28,-1.28,-0.84,-2.35,-2.36,-2.39
150.75,-0.06,2.39,-0.08,2.36,-2.38,-1.39,-0.87,-2.44,-2.46,-2.45
152.26,-0.10,2.42,-0.08,2.44,-2.48,-1.49,-0.90,-2.58,-2.55,-2.52
153.78,-0.09,2.50,-0.04,2.54,-2.57,-1.61,-0.92,-2.66,-2.62,-2.59
155.32,0.02,2.68,0.00,2.66,-2.66,-1.72,-0.95,-2.63,-2.66,-2.66
156.88,0.07,2.81,0.03,2.76,-2.73,-1.84,-0.98,-2.65,-2.70,-2.74
158.44,0.00,2.82,0.01,2.83,-2.78,-1.97,-1.01,-2.77,-2.77,-2.82
160.03,-0.07,2.83,-0.05,2.85,-2.81,-2.10,-1.04,-2.88,-2.86,-2.90
161.63,-0.11,2.86,-0.09,2.87,-2.84,-2.24,-1.07,-2.95,-2.94,-2.97
163.24,-0.12,2.91,-0.13,2.90,-2.87,-2.37,-1.10,-2.98,-3.00,-3.03
164.88,-0.16,2.92,-0.18,2.89,-2.90,-2.51,-1.13,-3.06,-3.09,-3.08
166.53,-0.24,2.89,-0.24,2.88,-2.95,-2.66,-1.17,-3.18,-3.19,-3.13
168.19,-0.31,2.86,-0.26,2.91,-3.01,-2.80,-1.20,-3.31,-3.27,-3.17
169.87,-0.23,2.98,-0.21,2.99,-3.08,-2.95,-1.24,-3.31,-3.29,-3.21
171.57,-0.07,3.16,-0.09,3.13,-3.16,-3.10,-1.28,-3.22,-3.25,-3.23
173.29,0.05,3.29,0.07,3.31,-3.24,-3.24,-1.31,-3.18,-3.16,-3.24
175.02,0.20,3.45,0.18,3.43,-3.32,-3.38,-1.35,-3.12,-3.14,-3.25
176.77,0.26,3.52,0.21,3.47,-3.40,-3.51,-1.40,-3.14,-3.19,-3.26
178.54,0.19,3.46,0.22,3.48,-3.47,-3.64,-1.44,-3.28,-3.26,-3.27
180.32,0.17,3.43,0.22,3.48,-3.53,-3.75,-1.48,-3.36,-3.31,-3.26
182.13,0.26,3.51,0.25,3.50,-3.56,-3.86,-1.53,-3.30,-3.31,-3.25
183.95,0.34,3.60,0.32,3.57,-3.58,-3.94,-1.57,-3.24,-3.26,-3.26
185.79,0.35,3.61,0.36,3.62,-3.59,-4.02,-1.62,-3.24,-3.23,-3.26
187.65,0.37,3.65,0.34,3.61,-3.60,-4.07,-1.67,-3.22,-3.26,-3.28
189.52,0.29,3.58,0.32,3.60,-3.60,-4.10,-1.72,-3.31,-3.29,-3.29
191.42,0.26,3.57,0.29,3.60,-3.61,-4.12,-1.77,-3.34,-3.31,-3.31
193.33,0.30,3.63,0.26,3.59,-3.60,-4.11,-1.82,-3.29,-3.33,-3.33
195.27,0.24,3.59,0.25,3.59,-3.57,-4.08,-1.87,-3.33,-3.32,-3.35
197.22,0.18,3.55,0.19,3.56,-3.54,-4.04,-1.93,-3.35,-3.34,-3.37
199.19,0.14,3.53,0.11,3.50,-3.50,-3.98,-1.98,-3.36,-3.39,-3.39
201.18,0.03,3.44,0.07,3.48,-3.47,-3.90,-2.03,-3.44,-3.40,-3.41
203.19,-0.01,3.42,0.01,3.44,-3.45,-3.81,-2.09,-3.46,-3.44,-3.43
205.23,0.02,3.47,-0.06,3.38,-3.42,-3.71,-2.14,-3.40,-3.48,-3.45
207.28,-0.15,3.31,-0.09,3.37,-3.39,-3.61,-2.20,-3.54,-3.48,-3.46
209.35,-0.17,3.31,-0.10,3.38,-3.36,-3.49,-2.25,-3.53,-3.47,-3.48
211.44,-0.05,3.46,-0.13,3.37,-3.35,-3.38,-2.31,-3.40,-3.48,-3.51
213.56,-0.12,3.40,-0.14,3.38,-3.35,-3.26,-2.36,-3.46,-3.49,-3.52
215.69,-0.23,3.30,-0.18,3.34,-3.35,-3.14,-2.41,-3.57,-3.53,-3.53
217.85,-0.25,3.29,-0.25,3.29,-3.35,-3.02,-2.46,-3.60,-3.60,-3.54
220.03,-0.26,3.29,-0.26,3.29,-3.35,-2.90,-2.51,-3.60,-3.60,-3.55
222.23,-0.26,3.32,-0.22,3.34,-3.33,-2.78,-2.56,-3.59,-3.55,-3.58
224.45,-0.19,3.38,-0.22,3.35,-3.31,-2.67,-2.60,-3.50,-3.53,-3.57
226.70,-0.20,3.37,-0.25,3.32,-3.27,-2.56,-2.64,-3.46,-3.51,-3.57
228.96,-0.36,3.20,-0.30,3.25,-3.20,-2.46,-2.68,-3.56,-3.51,-3.56
231.25,-0.41,3.14,-0.39,3.16,-3.13,-2.36,-2.72,-3.53,-3.52,-3.55
233.57,-0.45,3.09,-0.47,3.06,-3.04,-2.27,-2.75,-3.49,-3.52,-3.54
235.90,-0.56,2.97,-0.57,2.95,-2.95,-2.18,-2.78,-3.51,-3.52,-3.53
238.26,-0.68,2.84,-0.70,2.81,-2.86,-2.09,-2.81,-3.53,-3.56,-3.52
240.64,-0.85,2.64,-0.79,2.69,-2.77,-2.01,-2.83,-3.62,-3.57,-3.49
243.05,-0.85,2.61,-0.82,2.64,-2.71,-1.94,-2.84,-3.55,-3.53,-3.46
245.48,-0.78,2.66,-0.80,2.63,-2.65,-1.87,-2.85,-3.43,-3.45,-3.44
247.93,-0.75,2.66,-0.78,2.63,-2.60,-1.80,-2.86,-3.34,-3.38,-3.41
250.41,-0.81,2.58,-0.80,2.59,-2.54,-1.74,-2.86,-3.35,-3.34,-3.39
252.92,-0.86,2.50,-0.84,2.52,-2.48,-1.68,-2.86,-3.34,-3.32,-3.36
255.45,-0.88,2.46,-0.87,2.46,-2.42,-1.62,-2.85,-3.30,-3.30,-3.34
258.00,-0.91,2.41,-0.92,2.40,-2.36,-1.57,-2.84,-3.27,-3.28,-3.32
260.58,-0.98,2.32,-1.03,2.26,-2.29,-1.52,-2.83,-3.27,-3.32,-3.30
263.19,-1.14,2.13,-1.13,2.14,-2.21,-1.48,-2.81,-3.35,-3.34,-3.27
265.82,-1.29,1.96,-1.17,2.07,-2.13,-1.43,-2.78,-3.41,-3.30,-3.25
268.48,-1.16,2.07,-1.20,2.02,-2.03,-1.40,-2.75,-3.19,-3.24,-3.23
271.16,-1.13,2.07,-1.22,1.98,-1.94,-1.36,-2.72,-3.06,-3.15,-3.20
273.87,-1.33,1.85,-1.26,1.91,-1.83,-1.33,-2.68,-3.16,-3.09,-3.18
276.61,-1.39,1.76,-1.38,1.76,-1.72,-1.30,-2.64,-3.11,-3.11,-3.15
279.38,-1.50,1.62,-1.52,1.59,-1.61,-1.27,-2.60,-3.10,-3.13,-3.12
282.17,-1.64,1.46,-1.64,1.45,-1.47,-1.24,-2.56,-3.11,-3.11,-3.10
284.99,-1.78,1.28,-1.74,1.32,-1.33,-1.22,-2.51,-3.11,-3.07,-3.06
287.84,-1.85,1.19,-1.83,1.20,-1.19,-1.19,-2.46,-3.04,-3.02,-3.04
290.72,-1.87,1.14,-1.93,1.07,-1.06,-1.17,-2.41,-2.93,-2.99,-3.01
293.63,-2.05,0.93,-2.04,0.93,-0.95,-1.15,-2.36,-3.00,-2.99,-2.98
296.57,-2.19,0.76,-2.15,0.80,-0.86,-1.14,-2.31,-3.05,-3.01,-2.95
299.53,-2.22,0.70,-2.20,0.72,-0.78,-1.12,-2.25,-3.00,-2.98,-2.92
302.53,-2.19,0.71,-2.20,0.69,-0.71,-1.11,-2.20,-2.89,-2.91,-2.90
305.55,-2.16,0.70,-2.19,0.67,-0.63,-1.09,-2.14,-2.79,-2.82,-2.86
308.61,-2.23,0.61,-2.21,0.63,-0.56,-1.08,-2.09,-2.79,-2.77,-2.84
311.69,-2.26,0.55,-2.26,0.55,-0.50,-1.07,-2.04,-2.75,-2.75,-2.81
314.81,-2.32,0.47,-2.34,0.45,-0.43,-1.06,-1.98,-2.75,-2.77,-2.79
317.96,-2.42,0.35,-2.42,0.34,-0.36,-1.05,-1.93,-2.78,-2.78,-2.77
321.14,-2.53,0.23,-2.50,0.25,-0.28,-1.05,-1.87,-2.81,-2.79,-2.76
324.35,-2.58,0.16,-2.56,0.18,-0.21,-1.04,-1.82,-2.78,-2.76,-2.74
327.59,-2.57,0.16,-2.60,0.13,-0.14,-1.04,-1.77,-2.70,-2.73,-2.73
330.87,-2.62,0.10,-2.63,0.08,-0.08,-1.03,-1.72,-2.69,-2.70,-2.72
334.18,-2.68,0.02,-2.66,0.04,-0.03,-1.03,-1.66,-2.71,-2.69,-2.70
337.52,-2.70,-0.01,-2.69,-0.01,0.00,-1.03,-1.61,-2.69,-2.69,-2.69
340.90,-2.70,-0.02,-2.70,-0.03,0.02,-1.03,-1.57,-2.67,-2.68,-2.68
344.30,-2.70,-0.03,-2.70,-0.03,0.04,-1.03,-1.52,-2.66,-2.66,-2.67
347.75,-2.70,-0.03,-2.70,-0.04,0.04,-1.03,-1.47,-2.66,-2.66,-2.67
351.23,-2.70,-0.04,-2.70,-0.04,0.03,-1.03,-1.42,-2.67,-2.68,-2.66
354.74,-2.69,-0.02,-2.68,-0.02,0.00,-1.03,-1.38,-2.68,-2.68,-2.67
358.28,-2.67,-0.01,-2.63,0.02,-0.03,-1.03,-1.34,-2.70,-2.66,-2.66
361.87,-2.56,0.10,-2.59,0.06,-0.07,-1.04,-1.29,-2.62,-2.66,-2.66
365.49,-2.52,0.13,-2.55,0.10,-0.10,-1.04,-1.25,-2.62,-2.65,-2.65
369.14,-2.56,0.10,-2.49,0.17,-0.14,-1.04,-1.21,-2.70,-2.63,-2.66
372.83,-2.44,0.22,-2.45,0.21,-0.18,-1.05,-1.17,-2.62,-2.63,-2.66
376.56,-2.37,0.30,-2.43,0.23,-0.22,-1.05,-1.13,-2.58,-2.64,-2.67
380.33,-2.44,0.22,-2.42,0.24,-0.25,-1.06,-1.10,-2.68,-2.66,-2.66
384.13,-2.44,0.22,-2.40,0.26,-0.27,-1.07,-1.06,-2.71,-2.67,-2.66
387.97,-2.40,0.27,-2.37,0.29,-0.29,-1.07,-1.03,-2.69,-2.66,-2.67
391.85,-2.27,0.41,-2.35,0.31,-0.31,-1.08,-0.99,-2.58,-2.67,-2.68
395.77,-2.35,0.32,-2.34,0.33,-0.33,-1.09,-0.96,-2.67,-2.67,-2.67
399.73,-2.42,0.26,-2.33,0.35,-0.34,-1.10,-0.93,-2.76,-2.67,-2.68
403.72,-2.29,0.39,-2.32,0.36,-0.36,-1.11,-0.90,-2.65,-2.68,-2.68
407.76,-2.24,0.46,-2.30,0.39,-0.39,-1.12,-0.87,-2.63,-2.69,-2.70
411.84,-2.30,0.40,-2.28,0.42,-0.42,-1.13,-0.84,-2.72,-2.70,-2.70
415.96,-2.32,0.38,-2.27,0.43,-0.46,-1.14,-0.81,-2.78,-2.73,-2.70
420.12,-2.23,0.47,-2.23,0.46,-0.49,-1.15,-0.79,-2.72,-2.72,-2.70
424.32,-2.14,0.56,-2.17,0.52,-0.52,-1.16,-0.76,-2.66,-2.69,-2.70
428.56,-2.12,0.57,-2.11,0.57,-0.54,-1.17,-0.74,-2.66,-2.66,-2.69
432.85,-2.11,0.57,-2.07,0.60,-0.56,-1.19,-0.72,-2.66,-2.63,-2.68
437.18,-2.04,0.63,-2.06,0.60,-0.56,-1.20,-0.69,-2.60,-2.62,-2.67
441.55,-2.02,0.61,-2.05,0.58,-0.56,-1.21,-0.68,-2.58,-2.61,-2.63
