frequency,raw,error,smoothed,error_smoothed,equalization,parametric_eq,fixed_band_eq,equalized_raw,equalized_smoothed,target
20.00,-5.47,-10.64,-5.47,-10.64,10.66,10.75,4.47,5.20,5.20,5.18
20.20,-5.42,-10.58,-5.42,-10.59,10.59,10.72,4.59,5.18,5.17,5.17
20.40,-5.38,-10.54,-5.37,-10.54,10.53,10.69,4.71,5.15,5.16,5.17
20.61,-5.33,-10.49,-5.33,-10.49,10.47,10.65,4.83,5.14,5.14,5.17
20.81,-5.28,-10.42,-5.28,-10.43,10.42,10.62,4.96,5.14,5.13,5.15
21.02,-5.24,-10.38,-5.23,-10.38,10.37,10.59,5.09,5.13,5.13,5.15
21.23,-5.19,-10.33,-5.19,-10.33,10.32,10.55,5.22,5.13,5.14,5.15
21.44,-5.14,-10.29,-5.14,-10.29,10.28,10.52,5.36,5.14,5.15,5.16
21.66,-5.09,-10.23,-5.08,-10.23,10.25,10.48,5.50,5.16,5.16,5.15
21.87,-5.04,-10.19,-5.04,-10.19,10.22,10.45,5.65,5.18,5.17,5.16
22.09,-5.01,-10.15,-5.02,-10.17,10.19,10.42,5.80,5.18,5.18,5.15
22.31,-5.01,-10.16,-5.00,-10.15,10.17,10.38,5.95,5.16,5.17,5.16
22.54,-5.01,-10.15,-5.01,-10.16,10.15,10.35,6.11,5.14,5.14,5.15
22.76,-5.01,-10.15,-5.01,-10.16,10.13,10.31,6.27,5.12,5.12,5.15
22.99,-5.01,-10.15,-4.99,-10.14,10.11,10.28,6.43,5.10,5.12,5.15
23.22,-4.96,-10.10,-4.96,-10.11,10.08,10.24,6.60,5.13,5.13,5.15
23.45,-4.90,-10.05,-4.91,-10.06,10.05,10.21,6.78,5.15,5.14,5.16
23.69,-4.85,-10.00,-4.85,-10.00,10.01,10.18,6.95,5.16,5.16,5.16
23.92,-4.80,-9.95,-4.80,-9.96,9.96,10.14,7.13,5.17,5.17,5.16
24.16,-4.75,-9.91,-4.75,-9.91,9.92,10.11,7.32,5.17,5.17,5.17
24.40,-4.70,-9.87,-4.70,-9.87,9.87,10.07,7.51,5.18,5.18,5.18
24.65,-4.66,-9.83,-4.65,-9.83,9.84,10.04,7.70,5.18,5.18,5.18
24.89,-4.61,-9.78,-4.62,-9.79,9.81,10.01,7.89,5.20,5.19,5.18
25.14,-4.59,-9.75,-4.59,-9.76,9.78,9.97,8.09,5.19,5.19,5.17
25.39,-4.58,-9.75,-4.58,-9.75,9.76,9.94,8.29,5.18,5.18,5.18
25.65,-4.57,-9.74,-4.57,-9.74,9.73,9.91,8.49,5.16,5.16,5.18
25.91,-4.56,-9.72,-4.55,-9.73,9.70,9.87,8.70,5.14,5.15,5.17
26.16,-4.53,-9.70,-4.53,-9.70,9.67,9.84,8.90,5.15,5.15,5.18
26.43,-4.49,-9.66,-4.48,-9.66,9.64,9.81,9.11,5.16,5.16,5.18
26.69,-4.44,-9.61,-4.44,-9.61,9.61,9.78,9.31,5.18,5.17,5.18
26.96,-4.40,-9.55,-4.40,-9.57,9.58,9.74,9.52,5.18,5.18,5.16
27.23,-4.38,-9.53,-4.38,-9.53,9.55,9.71,9.72,5.18,5.18,5.16
27.50,-4.36,-9.51,-4.35,-9.51,9.53,9.68,9.92,5.17,5.18,5.16
27.77,-4.34,-9.50,-4.34,-9.50,9.51,9.65,10.11,5.18,5.17,5.17
28.05,-4.33,-9.48,-4.33,-9.48,9.49,9.62,10.30,5.17,5.16,5.16
28.33,-4.33,-9.47,-4.33,-9.48,9.47,9.58,10.48,5.14,5.14,5.15
28.62,-4.33,-9.46,-4.33,-9.47,9.45,9.55,10.65,5.12,5.11,5.14
28.90,-4.33,-9.47,-4.32,-9.45,9.41,9.52,10.81,5.09,5.10,5.15
29.19,-4.29,-9.42,-4.28,-9.41,9.38,9.49,10.96,5.09,5.10,5.14
29.48,-4.22,-9.33,-4.22,-9.34,9.34,9.46,11.09,5.12,5.12,5.12
29.78,-4.15,-9.26,-4.15,-9.27,9.30,9.43,11.21,5.15,5.14,5.12
30.08,-4.10,-9.21,-4.11,-9.22,9.26,9.39,11.31,5.16,5.15,5.12
30.38,-4.10,-9.19,-4.09,-9.19,9.23,9.36,11.40,5.13,5.14,5.10
30.68,-4.10,-9.18,-4.09,-9.18,9.20,9.33,11.46,5.10,5.11,5.09
30.99,-4.10,-9.17,-4.10,-9.17,9.17,9.30,11.50,5.07,5.07,5.08
31.30,-4.10,-9.16,-4.10,-9.17,9.14,9.27,11.53,5.05,5.04,5.07
31.61,-4.10,-9.15,-4.10,-9.16,9.11,9.24,11.53,5.02,5.01,5.06
31.93,-4.10,-9.13,-4.08,-9.13,9.08,9.20,11.51,4.98,5.00,5.04
32.24,-4.04,-9.08,-4.03,-9.07,9.04,9.17,11.48,5.01,5.01,5.05
32.57,-3.97,-8.99,-3.97,-9.00,9.01,9.14,11.42,5.04,5.04,5.03
32.89,-3.89,-8.91,-3.91,-8.93,8.97,9.11,11.35,5.09,5.07,5.03
33.22,-3.87,-8.89,-3.87,-8.89,8.94,9.08,11.26,5.08,5.07,5.03
33.55,-3.87,-8.88,-3.86,-8.88,8.92,9.04,11.16,5.05,5.06,5.02
33.89,-3.87,-8.89,-3.87,-8.88,8.89,9.01,11.04,5.02,5.03,5.03
34.23,-3.87,-8.87,-3.87,-8.89,8.87,8.98,10.92,5.00,4.99,5.01
34.57,-3.87,-8.88,-3.87,-8.89,8.84,8.94,10.78,4.97,4.97,5.02
34.92,-3.87,-8.87,-3.85,-8.86,8.81,8.91,10.64,4.94,4.96,5.01
35.27,-3.81,-8.82,-3.80,-8.80,8.78,8.88,10.49,4.97,4.98,5.02
35.62,-3.73,-8.71,-3.73,-8.73,8.74,8.84,10.34,5.01,5.00,4.99
35.97,-3.66,-8.64,-3.68,-8.66,8.70,8.81,10.18,5.04,5.02,4.99
36.33,-3.65,-8.62,-3.64,-8.61,8.65,8.77,10.02,5.01,5.01,4.98
36.70,-3.64,-8.59,-3.63,-8.59,8.61,8.74,9.86,4.98,4.98,4.96
37.06,-3.64,-8.57,-3.64,-8.58,8.58,8.70,9.70,4.94,4.94,4.94
37.43,-3.64,-8.56,-3.64,-8.56,8.55,8.67,9.54,4.91,4.91,4.93
37.81,-3.64,-8.53,-3.64,-8.54,8.52,8.63,9.39,4.89,4.89,4.90
38.19,-3.64,-8.51,-3.64,-8.52,8.50,8.59,9.23,4.87,4.87,4.88
38.57,-3.64,-8.49,-3.64,-8.49,8.49,8.56,9.08,4.85,4.85,4.86
38.95,-3.64,-8.46,-3.64,-8.46,8.46,8.52,8.93,4.83,4.83,4.82
39.34,-3.64,-8.41,-3.64,-8.42,8.43,8.48,8.79,4.80,4.80,4.78
39.74,-3.64,-8.38,-3.64,-8.39,8.40,8.44,8.65,4.76,4.76,4.75
40.14,-3.64,-8.35,-3.65,-8.36,8.35,8.40,8.52,4.71,4.70,4.72
40.54,-3.64,-8.33,-3.64,-8.33,8.29,8.36,8.38,4.65,4.65,4.70
40.94,-3.64,-8.29,-3.61,-8.27,8.23,8.32,8.26,4.60,4.62,4.66
41.35,-3.56,-8.19,-3.55,-8.19,8.17,8.28,8.14,4.62,4.62,4.64
41.76,-3.47,-8.07,-3.48,-8.09,8.11,8.24,8.02,4.65,4.63,4.61
42.18,-3.42,-8.00,-3.43,-8.01,8.06,8.20,7.91,4.64,4.62,4.59
42.60,-3.42,-7.97,-3.41,-7.97,8.00,8.15,7.81,4.58,4.59,4.56
43.03,-3.42,-7.94,-3.41,-7.94,7.95,8.11,7.71,4.53,4.54,4.53
43.46,-3.42,-7.91,-3.42,-7.92,7.91,8.07,7.61,4.49,4.49,4.50
43.90,-3.42,-7.89,-3.42,-7.88,7.88,8.02,7.52,4.46,4.46,4.48
44.33,-3.42,-7.85,-3.42,-7.86,7.85,7.98,7.44,4.43,4.43,4.44
44.78,-3.42,-7.82,-3.42,-7.83,7.83,7.93,7.36,4.41,4.41,4.41
45.23,-3.42,-7.81,-3.42,-7.80,7.81,7.88,7.29,4.39,4.39,4.40
45.68,-3.42,-7.76,-3.42,-7.77,7.78,7.83,7.22,4.36,4.36,4.35
46.13,-3.42,-7.72,-3.42,-7.73,7.74,7.79,7.16,4.32,4.32,4.31
46.60,-3.42,-7.69,-3.42,-7.69,7.69,7.74,7.10,4.27,4.27,4.28
47.06,-3.42,-7.66,-3.42,-7.66,7.62,7.69,7.04,4.21,4.21,4.25
47.53,-3.39,-7.60,-3.40,-7.60,7.55,7.64,6.99,4.17,4.16,4.22
48.01,-3.37,-7.52,-3.34,-7.50,7.48,7.59,6.95,4.11,4.14,4.16
48.49,-3.28,-7.39,-3.28,-7.40,7.40,7.53,6.91,4.13,4.13,4.12
48.97,-3.19,-7.26,-3.22,-7.29,7.33,7.48,6.87,4.14,4.11,4.08
49.46,-3.19,-7.22,-3.18,-7.21,7.26,7.43,6.84,4.07,4.07,4.04
49.96,-3.19,-7.16,-3.18,-7.16,7.19,7.37,6.81,4.00,4.01,3.98
50.46,-3.19,-7.12,-3.19,-7.13,7.13,7.32,6.79,3.94,3.94,3.94
50.96,-3.19,-7.09,-3.19,-7.09,7.08,7.27,6.76,3.89,3.89,3.91
51.47,-3.19,-7.05,-3.19,-7.05,7.04,7.21,6.74,3.85,3.85,3.87
51.99,-3.19,-7.00,-3.19,-7.01,7.00,7.15,6.73,3.81,3.81,3.82
52.51,-3.19,-6.96,-3.19,-6.97,6.96,7.10,6.71,3.77,3.77,3.78
53.03,-3.19,-6.93,-3.19,-6.92,6.91,7.04,6.70,3.73,3.73,3.75
53.56,-3.19,-6.86,-3.19,-6.87,6.87,6.98,6.68,3.68,3.68,3.68
54.10,-3.19,-6.81,-3.19,-6.82,6.82,6.92,6.67,3.63,3.63,3.63
54.64,-3.19,-6.77,-3.19,-6.76,6.77,6.86,6.66,3.58,3.58,3.59
55.18,-3.19,-6.71,-3.19,-6.71,6.73,6.80,6.65,3.54,3.54,3.53
55.74,-3.19,-6.66,-3.19,-6.67,6.68,6.74,6.64,3.50,3.50,3.48
56.29,-3.19,-6.62,-3.19,-6.62,6.64,6.68,6.62,3.45,3.45,3.44
56.86,-3.19,-6.59,-3.19,-6.58,6.59,6.62,6.61,3.41,3.41,3.41
57.42,-3.19,-6.53,-3.19,-6.54,6.54,6.56,6.59,3.35,3.35,3.35
58.00,-3.19,-6.49,-3.20,-6.51,6.47,6.49,6.57,3.29,3.27,3.31
58.58,-3.19,-6.46,-3.17,-6.45,6.40,6.43,6.55,3.21,3.23,3.28
59.16,-3.15,-6.39,-3.12,-6.35,6.32,6.37,6.52,3.17,3.20,3.25
59.76,-3.02,-6.21,-3.05,-6.24,6.24,6.30,6.49,3.22,3.19,3.20
60.35,-2.97,-6.09,-2.98,-6.12,6.15,6.24,6.46,3.18,3.17,3.13
60.96,-2.96,-6.03,-2.95,-6.02,6.06,6.18,6.42,3.11,3.11,3.08
61.57,-2.96,-5.96,-2.95,-5.96,5.98,6.11,6.38,3.02,3.03,3.01
62.18,-2.96,-5.89,-2.96,-5.90,5.90,6.04,6.33,2.95,2.95,2.94
62.80,-2.96,-5.84,-2.96,-5.84,5.84,5.98,6.28,2.88,2.88,2.89
63.43,-2.96,-5.78,-2.96,-5.79,5.78,5.91,6.22,2.82,2.82,2.83
64.07,-2.96,-5.73,-2.96,-5.73,5.72,5.85,6.16,2.76,2.76,2.78
64.71,-2.96,-5.68,-2.96,-5.68,5.67,5.78,6.09,2.71,2.71,2.73
65.35,-2.96,-5.61,-2.96,-5.62,5.62,5.71,6.02,2.66,2.66,2.66
66.01,-2.96,-5.55,-2.96,-5.56,5.56,5.65,5.94,2.60,2.60,2.60
66.67,-2.96,-5.50,-2.96,-5.50,5.50,5.58,5.86,2.54,2.54,2.55
67.33,-2.96,-5.43,-2.96,-5.44,5.44,5.51,5.77,2.48,2.48,2.48
68.01,-2.96,-5.38,-2.96,-5.38,5.38,5.44,5.68,2.42,2.42,2.43
68.69,-2.96,-5.31,-2.96,-5.32,5.32,5.37,5.59,2.36,2.36,2.36
69.37,-2.96,-5.26,-2.96,-5.26,5.25,5.31,5.49,2.30,2.30,2.30
70.07,-2.96,-5.19,-2.96,-5.19,5.19,5.24,5.40,2.23,2.23,2.24
70.77,-2.96,-5.13,-2.96,-5.13,5.12,5.17,5.30,2.17,2.17,2.18
71.48,-2.96,-5.05,-2.96,-5.06,5.06,5.10,5.19,2.10,2.10,2.10
72.19,-2.96,-4.99,-2.96,-4.99,4.99,5.03,5.09,2.03,2.03,2.04
72.91,-2.96,-4.93,-2.96,-4.92,4.93,4.96,4.99,1.97,1.97,1.98
73.64,-2.96,-4.85,-2.96,-4.86,4.86,4.90,4.88,1.91,1.91,1.90
74.38,-2.96,-4.79,-2.96,-4.80,4.80,4.83,4.78,1.85,1.85,1.84
75.12,-2.96,-4.73,-2.96,-4.74,4.75,4.76,4.68,1.79,1.79,1.78
75.87,-2.96,-4.70,-2.96,-4.69,4.70,4.69,4.57,1.74,1.74,1.75
76.63,-2.96,-4.63,-2.96,-4.64,4.65,4.62,4.47,1.69,1.69,1.68
77.40,-2.96,-4.58,-2.96,-4.59,4.59,4.55,4.37,1.63,1.63,1.63
78.17,-2.96,-4.53,-2.97,-4.54,4.52,4.48,4.27,1.56,1.56,1.58
78.95,-2.96,-4.49,-2.96,-4.49,4.45,4.41,4.17,1.49,1.49,1.54
79.74,-2.96,-4.43,-2.93,-4.41,4.37,4.34,4.07,1.41,1.44,1.48
80.54,-2.88,-4.30,-2.87,-4.30,4.29,4.28,3.97,1.41,1.42,1.43
81.35,-2.79,-4.16,-2.80,-4.18,4.20,4.21,3.88,1.41,1.40,1.38
82.16,-2.73,-4.06,-2.74,-4.07,4.11,4.14,3.79,1.39,1.37,1.34
82.98,-2.73,-4.00,-2.72,-4.00,4.03,4.07,3.70,1.30,1.31,1.28
83.81,-2.73,-3.94,-2.72,-3.94,3.95,4.00,3.61,1.22,1.23,1.22
84.65,-2.73,-3.88,-2.73,-3.88,3.87,3.93,3.52,1.15,1.15,1.16
85.50,-2.73,-3.81,-2.73,-3.82,3.81,3.86,3.44,1.08,1.08,1.09
86.35,-2.73,-3.75,-2.73,-3.75,3.74,3.80,3.36,1.02,1.02,1.03
87.22,-2.73,-3.69,-2.73,-3.69,3.68,3.73,3.28,0.96,0.96,0.97
88.09,-2.73,-3.62,-2.73,-3.63,3.62,3.66,3.20,0.90,0.90,0.90
88.97,-2.73,-3.56,-2.73,-3.56,3.56,3.59,3.13,0.83,0.83,0.84
89.86,-2.73,-3.49,-2.73,-3.49,3.50,3.53,3.06,0.77,0.77,0.77
90.76,-2.73,-3.42,-2.73,-3.43,3.43,3.46,2.99,0.70,0.70,0.70
91.66,-2.73,-3.36,-2.73,-3.36,3.37,3.39,2.92,0.64,0.64,0.64
92.58,-2.73,-3.30,-2.73,-3.30,3.30,3.32,2.85,0.57,0.57,0.58
93.51,-2.73,-3.23,-2.73,-3.24,3.23,3.26,2.79,0.50,0.50,0.51
94.44,-2.73,-3.17,-2.73,-3.17,3.16,3.19,2.73,0.43,0.43,0.45
95.39,-2.73,-3.09,-2.73,-3.10,3.09,3.13,2.67,0.36,0.36,0.37
96.34,-2.73,-3.01,-2.73,-3.02,3.02,3.06,2.61,0.29,0.29,0.29
97.30,-2.73,-2.95,-2.73,-2.94,2.95,2.99,2.56,0.22,0.22,0.23
98.28,-2.73,-2.86,-2.73,-2.87,2.87,2.93,2.50,0.15,0.15,0.14
99.26,-2.73,-2.79,-2.73,-2.80,2.80,2.86,2.45,0.08,0.08,0.07
100.25,-2.73,-2.73,-2.73,-2.73,2.74,2.80,2.40,0.01,0.01,0.01
101.25,-2.73,-2.67,-2.73,-2.67,2.67,2.73,2.35,-0.06,-0.06,-0.05
102.27,-2.73,-2.60,-2.73,-2.61,2.61,2.67,2.30,-0.12,-0.12,-0.12
103.29,-2.73,-2.54,-2.73,-2.55,2.55,2.60,2.26,-0.18,-0.18,-0.18
104.32,-2.73,-2.49,-2.73,-2.49,2.49,2.54,2.21,-0.24,-0.24,-0.23
105.37,-2.73,-2.43,-2.73,-2.43,2.43,2.47,2.17,-0.30,-0.30,-0.29
106.42,-2.73,-2.37,-2.73,-2.37,2.37,2.41,2.13,-0.36,-0.36,-0.35
107.48,-2.73,-2.30,-2.73,-2.31,2.32,2.34,2.08,-0.41,-0.41,-0.42
108.56,-2.73,-2.26,-2.73,-2.26,2.26,2.28,2.04,-0.47,-0.47,-0.46
109.64,-2.73,-2.20,-2.73,-2.20,2.20,2.22,2.00,-0.53,-0.53,-0.52
110.74,-2.73,-2.14,-2.73,-2.15,2.14,2.15,1.96,-0.58,-0.58,-0.58
111.85,-2.73,-2.08,-2.73,-2.09,2.09,2.09,1.92,-0.64,-0.64,-0.64
112.97,-2.73,-2.03,-2.73,-2.03,2.03,2.03,1.89,-0.70,-0.70,-0.69
114.10,-2.73,-1.97,-2.73,-1.97,1.96,1.97,1.85,-0.76,-0.76,-0.75
115.24,-2.73,-1.90,-2.73,-1.91,1.90,1.90,1.81,-0.83,-0.83,-0.82
116.39,-2.73,-1.83,-2.73,-1.84,1.84,1.84,1.77,-0.89,-0.89,-0.89
117.55,-2.73,-1.77,-2.73,-1.77,1.77,1.78,1.73,-0.95,-0.95,-0.95
118.73,-2.73,-1.70,-2.73,-1.70,1.71,1.72,1.69,-1.02,-1.02,-1.02
119.92,-2.73,-1.63,-2.73,-1.64,1.64,1.66,1.65,-1.09,-1.09,-1.09
121.12,-2.73,-1.58,-2.73,-1.57,1.58,1.60,1.61,-1.15,-1.15,-1.14
122.33,-2.73,-1.50,-2.73,-1.51,1.51,1.54,1.57,-1.22,-1.22,-1.22
123.55,-2.73,-1.45,-2.73,-1.45,1.45,1.48,1.53,-1.28,-1.28,-1.27
124.79,-2.73,-1.38,-2.73,-1.38,1.38,1.42,1.49,-1.35,-1.35,-1.34
126.03,-2.73,-1.31,-2.73,-1.32,1.31,1.36,1.45,-1.42,-1.42,-1.41
127.29,-2.73,-1.24,-2.73,-1.25,1.24,1.30,1.41,-1.48,-1.48,-1.48
128.57,-2.73,-1.18,-2.73,-1.18,1.18,1.24,1.36,-1.55,-1.55,-1.54
129.85,-2.73,-1.10,-2.73,-1.11,1.11,1.18,1.32,-1.62,-1.62,-1.62
131.15,-2.73,-1.04,-2.73,-1.04,1.04,1.12,1.28,-1.68,-1.68,-1.68
132.46,-2.73,-0.97,-2.73,-0.97,0.98,1.06,1.23,-1.75,-1.75,-1.75
133.79,-2.73,-0.91,-2.73,-0.91,0.91,1.00,1.18,-1.81,-1.81,-1.81
135.12,-2.73,-0.84,-2.73,-0.85,0.85,0.94,1.14,-1.88,-1.88,-1.88
136.48,-2.73,-0.80,-2.73,-0.80,0.79,0.89,1.09,-1.93,-1.93,-1.92
137.84,-2.73,-0.74,-2.73,-0.74,0.74,0.83,1.04,-1.99,-1.99,-1.98
139.22,-2.73,-0.67,-2.73,-0.68,0.68,0.77,0.99,-2.05,-2.05,-2.05
140.61,-2.73,-0.62,-2.73,-0.62,0.63,0.71,0.94,-2.10,-2.10,-2.10
142.02,-2.73,-0.57,-2.73,-0.57,0.57,0.66,0.89,-2.16,-2.16,-2.15
143.44,-2.73,-0.51,-2.73,-0.52,0.52,0.60,0.84,-2.21,-2.21,-2.21
144.87,-2.73,-0.47,-2.73,-0.47,0.47,0.54,0.79,-2.26,-2.26,-2.25
146.32,-2.73,-0.42,-2.73,-0.42,0.42,0.49,0.74,-2.31,-2.31,-2.30
147.78,-2.73,-0.36,-2.73,-0.37,0.37,0.43,0.69,-2.36,-2.36,-2.36
149.26,-2.73,-0.32,-2.73,-0.32,0.32,0.38,0.64,-2.41,-2.41,-2.40
150.75,-2.73,-0.26,-2.73,-0.27,0.27,0.32,0.59,-2.45,-2.45,-2.46
152.26,-2.73,-0.23,-2.73,-0.22,0.23,0.27,0.53,-2.50,-2.50,-2.49
153.78,-2.73,-0.17,-2.73,-0.18,0.18,0.21,0.48,-2.55,-2.55,-2.55
155.32,-2.73,-0.13,-2.73,-0.13,0.13,0.16,0.43,-2.60,-2.60,-2.59
156.88,-2.73,-0.08,-2.73,-0.08,0.08,0.11,0.37,-2.65,-2.65,-2.64
158.44,-2.73,-0.03,-2.73,-0.04,0.03,0.05,0.32,-2.70,-2.70,-2.69
160.03,-2.73,0.02,-2.73,0.02,-0.02,-0.00,0.27,-2.75,-2.75,-2.74
161.63,-2.73,0.07,-2.73,0.07,-0.07,-0.05,0.21,-2.80,-2.80,-2.79
163.24,-2.73,0.13,-2.73,0.12,-0.12,-0.10,0.16,-2.84,-2.84,-2.85
164.88,-2.73,0.17,-2.73,0.17,-0.17,-0.16,0.10,-2.89,-2.89,-2.89
166.53,-2.73,0.23,-2.73,0.22,-0.22,-0.21,0.05,-2.94,-2.94,-2.95
168.19,-2.73,0.26,-2.73,0.26,-0.27,-0.26,-0.01,-2.99,-2.99,-2.98
169.87,-2.73,0.31,-2.73,0.31,-0.32,-0.31,-0.06,-3.04,-3.04,-3.03
171.57,-2.73,0.37,-2.73,0.36,-0.36,-0.36,-0.12,-3.09,-3.09,-3.09
173.29,-2.73,0.42,-2.73,0.42,-0.42,-0.41,-0.18,-3.14,-3.14,-3.14
175.02,-2.73,0.47,-2.73,0.47,-0.47,-0.46,-0.23,-3.19,-3.19,-3.19
176.77,-2.73,0.52,-2.73,0.52,-0.52,-0.51,-0.29,-3.25,-3.25,-3.24
178.54,-2.73,0.57,-2.73,0.57,-0.57,-0.55,-0.35,-3.30,-3.30,-3.29
180.32,-2.73,0.63,-2.73,0.62,-0.62,-0.60,-0.41,-3.35,-3.35,-3.35
182.13,-2.73,0.68,-2.73,0.68,-0.68,-0.65,-0.46,-3.40,-3.40,-3.40
183.95,-2.73,0.73,-2.73,0.73,-0.73,-0.69,-0.52,-3.46,-3.46,-3.45
185.79,-2.73,0.79,-2.73,0.78,-0.78,-0.74,-0.58,-3.51,-3.51,-3.51
187.65,-2.73,0.83,-2.73,0.83,-0.83,-0.79,-0.64,-3.56,-3.56,-3.55
189.52,-2.73,0.88,-2.73,0.87,-0.88,-0.83,-0.70,-3.60,-3.60,-3.60
191.42,-2.73,0.92,-2.73,0.92,-0.93,-0.87,-0.76,-3.65,-3.65,-3.64
193.33,-2.73,0.97,-2.73,0.97,-0.97,-0.92,-0.82,-3.70,-3.70,-3.69
195.27,-2.73,1.02,-2.73,1.01,-1.02,-0.96,-0.88,-3.74,-3.74,-3.74
197.22,-2.73,1.07,-2.73,1.06,-1.06,-1.00,-0.94,-3.79,-3.79,-3.79
199.19,-2.73,1.10,-2.73,1.10,-1.10,-1.04,-1.00,-3.83,-3.83,-3.82
201.18,-2.73,1.15,-2.73,1.14,-1.14,-1.08,-1.06,-3.87,-3.87,-3.87
203.19,-2.73,1.18,-2.73,1.17,-1.18,-1.12,-1.12,-3.90,-3.90,-3.90
205.23,-2.73,1.21,-2.73,1.21,-1.21,-1.16,-1.18,-3.94,-3.94,-3.93
207.28,-2.73,1.24,-2.73,1.24,-1.25,-1.20,-1.23,-3.97,-3.97,-3.96
209.35,-2.73,1.28,-2.73,1.28,-1.28,-1.24,-1.29,-4.01,-4.01,-4.00
211.44,-2.73,1.32,-2.73,1.31,-1.31,-1.27,-1.35,-4.04,-4.04,-4.04
213.56,-2.73,1.35,-2.73,1.35,-1.35,-1.31,-1.41,-4.07,-4.07,-4.07
215.69,-2.73,1.38,-2.73,1.38,-1.38,-1.34,-1.46,-4.11,-4.11,-4.10
217.85,-2.73,1.41,-2.73,1.41,-1.41,-1.38,-1.52,-4.14,-4.14,-4.13
220.03,-2.73,1.45,-2.73,1.44,-1.44,-1.41,-1.57,-4.17,-4.17,-4.17
222.23,-2.73,1.48,-2.73,1.48,-1.48,-1.44,-1.62,-4.20,-4.20,-4.20
224.45,-2.73,1.51,-2.73,1.51,-1.51,-1.47,-1.67,-4.23,-4.23,-4.23
226.70,-2.73,1.54,-2.73,1.54,-1.54,-1.50,-1.71,-4.26,-4.26,-4.26
228.96,-2.73,1.57,-2.73,1.56,-1.56,-1.53,-1.76,-4.29,-4.29,-4.29
231.25,-2.73,1.59,-2.73,1.59,-1.59,-1.56,-1.80,-4.32,-4.32,-4.31
233.57,-2.73,1.62,-2.73,1.62,-1.62,-1.58,-1.84,-4.34,-4.34,-4.34
235.90,-2.73,1.64,-2.73,1.64,-1.64,-1.61,-1.88,-4.37,-4.37,-4.36
238.26,-2.73,1.68,-2.73,1.66,-1.66,-1.64,-1.91,-4.39,-4.39,-4.40
240.64,-2.73,1.68,-2.73,1.68,-1.68,-1.66,-1.94,-4.41,-4.41,-4.40
243.05,-2.73,1.70,-2.73,1.70,-1.70,-1.68,-1.97,-4.43,-4.43,-4.42
245.48,-2.73,1.73,-2.73,1.72,-1.72,-1.70,-1.99,-4.45,-4.45,-4.45
247.93,-2.73,1.75,-2.73,1.74,-1.74,-1.73,-2.01,-4.47,-4.47,-4.47
250.41,-2.73,1.75,-2.73,1.75,-1.76,-1.74,-2.03,-4.48,-4.48,-4.47
252.92,-2.73,1.77,-2.73,1.77,-1.77,-1.76,-2.04,-4.50,-4.50,-4.49
255.45,-2.73,1.79,-2.73,1.79,-1.79,-1.78,-2.05,-4.52,-4.52,-4.51
258.00,-2.73,1.81,-2.73,1.80,-1.80,-1.80,-2.06,-4.53,-4.53,-4.53
260.58,-2.73,1.82,-2.73,1.82,-1.81,-1.81,-2.06,-4.54,-4.54,-4.54
263.19,-2.73,1.83,-2.73,1.83,-1.82,-1.83,-2.06,-4.55,-4.55,-4.55
265.82,-2.73,1.84,-2.73,1.83,-1.83,-1.84,-2.06,-4.56,-4.56,-4.56
268.48,-2.73,1.84,-2.73,1.84,-1.84,-1.85,-2.05,-4.57,-4.57,-4.56
271.16,-2.73,1.84,-2.73,1.84,-1.85,-1.87,-2.04,-4.58,-4.58,-4.56
273.87,-2.73,1.85,-2.73,1.85,-1.85,-1.88,-2.03,-4.58,-4.58,-4.57
276.61,-2.73,1.86,-2.73,1.86,-1.86,-1.89,-2.02,-4.59,-4.59,-4.58
279.38,-2.73,1.88,-2.73,1.87,-1.86,-1.89,-2.00,-4.59,-4.59,-4.60
282.17,-2.73,1.88,-2.73,1.87,-1.87,-1.90,-1.98,-4.60,-4.60,-4.60
284.99,-2.73,1.87,-2.73,1.87,-1.87,-1.91,-1.97,-4.60,-4.60,-4.59
287.84,-2.73,1.87,-2.73,1.87,-1.87,-1.91,-1.95,-4.60,-4.60,-4.59
290.72,-2.73,1.88,-2.73,1.87,-1.87,-1.92,-1.93,-4.60,-4.60,-4.60
293.63,-2.73,1.87,-2.73,1.87,-1.87,-1.92,-1.90,-4.60,-4.60,-4.59
296.57,-2.73,1.87,-2.73,1.87,-1.87,-1.92,-1.88,-4.60,-4.60,-4.59
299.53,-2.73,1.88,-2.73,1.87,-1.87,-1.93,-1.86,-4.59,-4.59,-4.60
302.53,-2.73,1.86,-2.73,1.86,-1.87,-1.93,-1.84,-4.59,-4.59,-4.58
305.55,-2.73,1.87,-2.73,1.86,-1.87,-1.93,-1.81,-4.59,-4.59,-4.59
308.61,-2.73,1.86,-2.73,1.86,-1.86,-1.93,-1.79,-4.59,-4.59,-4.58
311.69,-2.73,1.87,-2.73,1.86,-1.86,-1.93,-1.77,-4.59,-4.59,-4.59
314.81,-2.73,1.86,-2.73,1.86,-1.86,-1.92,-1.75,-4.59,-4.59,-4.58
317.96,-2.73,1.87,-2.73,1.86,-1.86,-1.92,-1.73,-4.59,-4.59,-4.59
321.14,-2.73,1.86,-2.73,1.86,-1.86,-1.92,-1.70,-4.59,-4.59,-4.58
324.35,-2.73,1.87,-2.73,1.86,-1.86,-1.91,-1.69,-4.58,-4.58,-4.59
327.59,-2.73,1.84,-2.73,1.85,-1.85,-1.91,-1.67,-4.58,-4.58,-4.56
330.87,-2.73,1.85,-2.73,1.85,-1.85,-1.90,-1.65,-4.57,-4.57,-4.57
334.18,-2.73,1.85,-2.73,1.84,-1.84,-1.90,-1.63,-4.57,-4.57,-4.57
337.52,-2.73,1.84,-2.73,1.84,-1.83,-1.89,-1.62,-4.56,-4.56,-4.56
340.90,-2.73,1.83,-2.73,1.83,-1.83,-1.88,-1.60,-4.55,-4.55,-4.55
344.30,-2.73,1.82,-2.73,1.82,-1.82,-1.88,-1.59,-4.55,-4.55,-4.54
347.75,-2.73,1.81,-2.73,1.81,-1.81,-1.87,-1.57,-4.54,-4.54,-4.53
351.23,-2.73,1.82,-2.73,1.80,-1.80,-1.86,-1.56,-4.53,-4.53,-4.54
354.74,-2.73,1.79,-2.73,1.80,-1.80,-1.85,-1.55,-4.52,-4.52,-4.51
358.28,-2.73,1.79,-2.73,1.79,-1.79,-1.84,-1.55,-4.52,-4.52,-4.51
361.87,-2.73,1.79,-2.73,1.78,-1.78,-1.83,-1.54,-4.51,-4.51,-4.51
365.49,-2.73,1.78,-2.73,1.78,-1.78,-1.82,-1.53,-4.50,-4.50,-4.50
369.14,-2.73,1.77,-2.73,1.77,-1.77,-1.81,-1.53,-4.50,-4.50,-4.49
372.83,-2.73,1.76,-2.73,1.76,-1.76,-1.80,-1.52,-4.49,-4.49,-4.48
376.56,-2.73,1.77,-2.73,1.76,-1.76,-1.79,-1.52,-4.49,-4.49,-4.49
380.33,-2.73,1.76,-2.73,1.76,-1.76,-1.78,-1.52,-4.48,-4.48,-4.48
384.13,-2.73,1.75,-2.73,1.75,-1.75,-1.77,-1.52,-4.48,-4.48,-4.47
387.97,-2.73,1.75,-2.73,1.75,-1.75,-1.76,-1.52,-4.48,-4.48,-4.47
391.85,-2.73,1.75,-2.73,1.75,-1.75,-1.75,-1.52,-4.48,-4.48,-4.47
395.77,-2.73,1.76,-2.73,1.75,-1.74,-1.74,-1.53,-4.47,-4.47,-4.48
399.73,-2.73,1.75,-2.73,1.74,-1.74,-1.73,-1.53,-4.47,-4.47,-4.47
403.72,-2.73,1.73,-2.73,1.74,-1.73,-1.71,-1.53,-4.46,-4.46,-4.45
407.76,-2.73,1.73,-2.73,1.72,-1.72,-1.70,-1.54,-4.45,-4.45,-4.45
411.84,-2.73,1.72,-2.73,1.72,-1.71,-1.69,-1.55,-4.43,-4.43,-4.44
415.96,-2.73,1.71,-2.73,1.71,-1.70,-1.68,-1.55,-4.42,-4.42,-4.43
420.12,-2.73,1.71,-2.73,1.70,-1.69,-1.67,-1.56,-4.42,-4.42,-4.43
424.32,-2.73,1.69,-2.74,1.68,-1.70,-1.66,-1.57,-4.43,-4.44,-4.41
428.56,-2.73,1.67,-2.73,1.67,-1.72,-1.64,-1.58,-4.44,-4.45,-4.39
432.85,-2.73,1.66,-2.69,1.69,-1.74,-1.63,-1.59,-4.46,-4.43,-4.38
437.18,-2.63,1.75,-2.63,1.75,-1.76,-1.62,-1.59,-4.38,-4.39,-4.37
441.55,-2.54,1.84,-2.56,1.81,-1.78,-1.61,-1.60,-4.31,-4.34,-4.37
445.96,-2.51,1.85,-2.51,1.84,-1.79,-1.60,-1.61,-4.30,-4.31,-4.35
450.42,-2.51,1.84,-2.50,1.84,-1.81,-1.59,-1.62,-4.31,-4.31,-4.34
454.93,-2.51,1.82,-2.50,1.82,-1.81,-1.58,-1.63,-4.32,-4.32,-4.32
459.48,-2.51,1.81,-2.51,1.80,-1.81,-1.57,-1.64,-4.32,-4.32,-4.31
464.07,-2.51,1.79,-2.51,1.79,-1.80,-1.56,-1.64,-4.31,-4.31,-4.29
