frequency,raw,error,smoothed,error_smoothed,equalization,parametric_eq,fixed_band_eq,equalized_raw,equalized_smoothed,target
20.00,-10.75,-16.43,-10.80,-16.51,16.51,15.50,6.66,5.76,5.71,5.68
20.20,-10.64,-16.36,-10.67,-16.41,16.41,15.63,6.81,5.78,5.75,5.73
20.40,-10.52,-16.30,-10.54,-16.32,16.32,15.74,6.97,5.79,5.78,5.78
20.61,-10.41,-16.22,-10.41,-16.22,16.22,15.84,7.13,5.82,5.81,5.81
20.81,-10.29,-16.15,-10.29,-16.13,16.13,15.93,7.30,5.84,5.84,5.86
21.02,-10.19,-16.08,-10.17,-16.04,16.04,16.00,7.47,5.85,5.87,5.90
21.23,-10.09,-16.00,-10.05,-15.95,15.95,16.06,7.64,5.86,5.89,5.92
21.44,-9.99,-15.93,-9.94,-15.86,15.86,16.10,7.82,5.86,5.92,5.94
21.66,-9.90,-15.85,-9.83,-15.77,15.77,16.13,8.01,5.87,5.94,5.96
21.87,-9.80,-15.77,-9.72,-15.68,15.68,16.15,8.20,5.87,5.96,5.97
22.09,-9.68,-15.67,-9.62,-15.59,15.59,16.15,8.39,5.91,5.97,5.98
22.31,-9.54,-15.54,-9.52,-15.50,15.50,16.13,8.59,5.96,5.98,5.99
22.54,-9.41,-15.40,-9.42,-15.41,15.41,16.10,8.79,6.00,5.99,5.99
22.76,-9.26,-15.26,-9.32,-15.31,15.31,16.06,9.01,6.05,5.99,5.99
22.99,-9.13,-15.11,-9.23,-15.23,15.23,16.00,9.22,6.10,5.99,5.98
23.22,-9.07,-15.05,-9.15,-15.14,15.14,15.94,9.44,6.08,6.00,5.98
23.45,-9.01,-14.99,-9.07,-15.06,15.06,15.86,9.67,6.06,6.00,5.98
23.69,-8.96,-14.95,-8.99,-14.98,14.98,15.77,9.91,6.03,6.00,5.99
23.92,-8.91,-14.89,-8.91,-14.91,14.91,15.67,10.15,6.00,6.00,5.99
24.16,-8.85,-14.84,-8.84,-14.83,14.83,15.57,10.39,5.99,6.00,6.00
24.40,-8.80,-14.80,-8.76,-14.76,14.76,15.45,10.64,5.96,5.99,6.01
24.65,-8.75,-14.74,-8.69,-14.68,14.68,15.34,10.90,5.94,5.99,6.00
24.89,-8.68,-14.68,-8.61,-14.60,14.60,15.21,11.17,5.92,5.99,5.99
25.14,-8.59,-14.59,-8.53,-14.52,14.52,15.08,11.44,5.93,6.00,5.99
25.39,-8.48,-14.49,-8.44,-14.43,14.43,14.95,11.72,5.95,6.00,6.00
25.65,-8.37,-14.37,-8.34,-14.34,14.34,14.82,12.00,5.97,6.00,6.00
25.91,-8.25,-14.24,-8.23,-14.23,14.23,14.68,12.29,5.98,6.00,5.99
26.16,-8.12,-14.11,-8.12,-14.12,14.12,14.54,12.59,5.99,6.00,5.99
26.43,-8.00,-13.99,-8.00,-14.00,14.00,14.41,12.89,6.00,5.99,5.99
26.69,-7.87,-13.85,-7.89,-13.88,13.88,14.27,13.19,6.01,5.99,5.99
26.96,-7.74,-13.73,-7.77,-13.76,13.76,14.13,13.50,6.02,5.99,6.00
27.23,-7.64,-13.63,-7.67,-13.65,13.65,13.99,13.81,6.02,5.99,5.99
27.50,-7.54,-13.53,-7.57,-13.56,13.56,13.86,14.12,6.02,5.98,5.99
27.77,-7.44,-13.43,-7.48,-13.47,13.47,13.72,14.43,6.02,5.98,5.98
28.05,-7.36,-13.33,-7.40,-13.39,13.39,13.59,14.73,6.03,5.98,5.98
28.33,-7.29,-13.25,-7.33,-13.31,13.31,13.46,15.03,6.02,5.98,5.97
28.62,-7.22,-13.18,-7.26,-13.23,13.23,13.33,15.32,6.02,5.98,5.97
28.90,-7.14,-13.11,-7.18,-13.16,13.16,13.21,15.60,6.02,5.98,5.97
29.19,-7.10,-13.06,-7.10,-13.08,13.08,13.09,15.85,5.98,5.97,5.96
29.48,-7.08,-13.06,-7.02,-12.99,12.99,12.97,16.09,5.92,5.97,5.98
29.78,-7.05,-13.02,-6.93,-12.90,12.90,12.85,16.30,5.86,5.97,5.97
30.08,-6.99,-12.96,-6.84,-12.81,12.81,12.74,16.48,5.82,5.97,5.98
30.38,-6.86,-12.82,-6.74,-12.70,12.70,12.63,16.62,5.85,5.96,5.96
30.68,-6.72,-12.68,-6.65,-12.61,12.61,12.52,16.73,5.90,5.96,5.96
30.99,-6.58,-12.54,-6.57,-12.53,12.53,12.42,16.80,5.95,5.96,5.96
31.30,-6.44,-12.40,-6.50,-12.46,12.46,12.32,16.82,6.02,5.96,5.96
31.61,-6.31,-12.26,-6.42,-12.37,12.37,12.22,16.80,6.07,5.96,5.96
31.93,-6.18,-12.13,-6.33,-12.29,12.29,12.13,16.74,6.11,5.95,5.95
32.24,-6.11,-12.05,-6.25,-12.19,12.19,12.03,16.63,6.09,5.95,5.94
32.57,-6.06,-12.00,-6.16,-12.10,12.10,11.95,16.50,6.04,5.94,5.95
32.89,-6.01,-11.95,-6.08,-12.01,12.01,11.86,16.33,6.01,5.94,5.94
33.22,-6.02,-11.95,-6.00,-11.93,11.93,11.78,16.13,5.91,5.93,5.93
33.55,-6.06,-11.98,-5.92,-11.85,11.85,11.70,15.91,5.79,5.93,5.93
33.89,-6.11,-12.02,-5.85,-11.77,11.77,11.63,15.68,5.67,5.92,5.92
34.23,-5.97,-11.89,-5.78,-11.70,11.70,11.56,15.43,5.73,5.92,5.92
34.57,-5.75,-11.65,-5.70,-11.62,11.62,11.49,15.16,5.87,5.91,5.91
34.92,-5.52,-11.42,-5.62,-11.53,11.53,11.42,14.90,6.01,5.91,5.90
35.27,-5.45,-11.35,-5.54,-11.44,11.44,11.36,14.62,6.00,5.90,5.90
35.62,-5.41,-11.30,-5.46,-11.36,11.36,11.30,14.35,5.95,5.90,5.90
35.97,-5.37,-11.27,-5.37,-11.27,11.27,11.24,14.08,5.89,5.90,5.89
36.33,-5.27,-11.17,-5.28,-11.18,11.18,11.18,13.80,5.90,5.89,5.90
36.70,-5.16,-11.04,-5.20,-11.09,11.09,11.13,13.54,5.93,5.89,5.88
37.06,-5.05,-10.93,-5.11,-11.00,11.00,11.08,13.27,5.94,5.89,5.88
37.43,-4.97,-10.87,-5.01,-10.90,10.90,11.03,13.01,5.93,5.89,5.89
37.81,-4.91,-10.80,-4.92,-10.81,10.81,10.98,12.76,5.91,5.89,5.89
38.19,-4.85,-10.73,-4.85,-10.74,10.74,10.93,12.52,5.89,5.89,5.88
38.57,-4.82,-10.71,-4.78,-10.67,10.67,10.88,12.28,5.85,5.89,5.89
38.95,-4.78,-10.68,-4.71,-10.60,10.60,10.83,12.04,5.81,5.89,5.89
39.34,-4.70,-10.59,-4.63,-10.52,10.52,10.79,11.82,5.81,5.89,5.89
39.74,-4.63,-10.51,-4.55,-10.43,10.43,10.74,11.60,5.81,5.89,5.88
40.14,-4.51,-10.39,-4.46,-10.34,10.34,10.70,11.39,5.83,5.88,5.89
40.54,-4.35,-10.23,-4.38,-10.25,10.25,10.65,11.19,5.91,5.88,5.88
40.94,-4.18,-10.05,-4.31,-10.18,10.18,10.61,10.99,6.01,5.87,5.87
41.35,-4.16,-10.02,-4.24,-10.11,10.11,10.56,10.80,5.95,5.87,5.87
41.76,-4.16,-10.01,-4.17,-10.03,10.03,10.51,10.62,5.88,5.86,5.86
42.18,-4.12,-9.98,-4.10,-9.95,9.95,10.46,10.45,5.84,5.85,5.86
42.60,-4.03,-9.88,-4.02,-9.86,9.86,10.41,10.28,5.82,5.84,5.84
43.03,-3.95,-9.78,-3.93,-9.76,9.76,10.35,10.12,5.81,5.83,5.83
43.46,-3.84,-9.66,-3.86,-9.67,9.67,10.30,9.96,5.83,5.81,5.83
43.90,-3.74,-9.53,-3.80,-9.60,9.60,10.24,9.82,5.86,5.80,5.80
44.33,-3.77,-9.55,-3.75,-9.53,9.53,10.18,9.67,5.77,5.78,5.78
44.78,-3.84,-9.59,-3.70,-9.47,9.47,10.11,9.54,5.64,5.77,5.76
45.23,-3.78,-9.53,-3.64,-9.39,9.39,10.05,9.41,5.62,5.75,5.75
45.68,-3.57,-9.30,-3.56,-9.30,9.30,9.98,9.29,5.73,5.74,5.73
46.13,-3.38,-9.09,-3.48,-9.20,9.20,9.90,9.17,5.82,5.72,5.71
46.60,-3.29,-8.99,-3.41,-9.11,9.11,9.83,9.06,5.83,5.71,5.71
47.06,-3.21,-8.89,-3.34,-9.03,9.03,9.74,8.95,5.82,5.69,5.69
47.53,-3.33,-9.00,-3.27,-8.95,8.95,9.66,8.85,5.62,5.67,5.68
48.01,-3.44,-9.11,-3.21,-8.87,8.87,9.57,8.76,5.43,5.66,5.67
48.49,-3.25,-8.90,-3.15,-8.79,8.79,9.48,8.66,5.54,5.64,5.65
48.97,-3.05,-8.68,-3.08,-8.71,8.71,9.38,8.58,5.65,5.62,5.63
49.46,-2.87,-8.48,-3.01,-8.62,8.62,9.28,8.50,5.74,5.61,5.60
49.96,-2.71,-8.29,-2.94,-8.53,8.53,9.18,8.42,5.82,5.59,5.58
50.46,-2.84,-8.42,-2.88,-8.45,8.45,9.08,8.34,5.61,5.58,5.58
50.96,-3.02,-8.58,-2.82,-8.38,8.38,8.97,8.27,5.36,5.56,5.56
51.47,-2.87,-8.40,-2.76,-8.31,8.31,8.85,8.20,5.45,5.55,5.54
51.99,-2.70,-8.22,-2.72,-8.25,8.25,8.74,8.14,5.55,5.53,5.52
52.51,-2.67,-8.18,-2.66,-8.17,8.17,8.62,8.08,5.51,5.51,5.51
53.03,-2.63,-8.13,-2.59,-8.08,8.08,8.50,8.01,5.46,5.50,5.51
53.56,-2.53,-8.01,-2.53,-8.02,8.02,8.38,7.96,5.49,5.48,5.49
54.10,-2.44,-7.91,-2.50,-7.97,7.97,8.25,7.90,5.53,5.47,5.47
54.64,-2.39,-7.84,-2.47,-7.92,7.92,8.13,7.84,5.54,5.46,5.45
55.18,-2.35,-7.79,-2.43,-7.87,7.87,8.00,7.79,5.52,5.44,5.44
55.74,-2.35,-7.77,-2.38,-7.81,7.81,7.87,7.73,5.46,5.43,5.42
56.29,-2.40,-7.81,-2.33,-7.74,7.74,7.74,7.67,5.34,5.41,5.41
56.86,-2.49,-7.87,-2.28,-7.67,7.67,7.61,7.62,5.18,5.39,5.39
57.42,-2.28,-7.64,-2.24,-7.62,7.62,7.48,7.56,5.33,5.37,5.36
58.00,-1.99,-7.33,-2.20,-7.55,7.55,7.35,7.50,5.57,5.35,5.34
58.58,-2.16,-7.49,-2.16,-7.48,7.48,7.22,7.43,5.33,5.32,5.33
59.16,-2.24,-7.55,-2.13,-7.42,7.42,7.09,7.37,5.18,5.29,5.31
59.76,-2.12,-7.40,-2.11,-7.37,7.37,6.96,7.30,5.25,5.26,5.28
60.35,-2.06,-7.29,-2.08,-7.31,7.31,6.83,7.23,5.25,5.23,5.24
60.96,-2.05,-7.24,-2.04,-7.23,7.23,6.70,7.16,5.18,5.19,5.20
61.57,-1.99,-7.14,-1.99,-7.14,7.14,6.57,7.08,5.15,5.15,5.15
62.18,-1.93,-7.03,-1.95,-7.06,7.06,6.45,7.00,5.13,5.10,5.10
62.80,-1.87,-6.92,-1.92,-6.98,6.98,6.32,6.92,5.12,5.06,5.05
63.43,-1.85,-6.85,-1.89,-6.90,6.90,6.19,6.83,5.05,5.01,5.00
64.07,-1.86,-6.81,-1.86,-6.82,6.82,6.07,6.73,4.97,4.96,4.95
64.71,-1.95,-6.85,-1.84,-6.75,6.75,5.95,6.64,4.80,4.91,4.90
65.35,-1.89,-6.75,-1.78,-6.64,6.64,5.82,6.54,4.75,4.86,4.86
66.01,-1.75,-6.55,-1.73,-6.54,6.54,5.70,6.43,4.79,4.81,4.80
66.67,-1.59,-6.34,-1.70,-6.45,6.45,5.59,6.33,4.87,4.75,4.75
67.33,-1.57,-6.26,-1.67,-6.37,6.37,5.47,6.22,4.80,4.70,4.69
68.01,-1.70,-6.34,-1.64,-6.28,6.28,5.35,6.11,4.58,4.64,4.65
68.69,-1.71,-6.30,-1.59,-6.17,6.17,5.24,5.99,4.47,4.59,4.59
69.37,-1.55,-6.09,-1.54,-6.07,6.07,5.13,5.87,4.51,4.53,4.53
70.07,-1.32,-5.79,-1.50,-5.97,5.97,5.02,5.75,4.65,4.47,4.47
70.77,-1.52,-5.94,-1.44,-5.85,5.85,4.91,5.63,4.33,4.41,4.42
71.48,-1.40,-5.76,-1.38,-5.73,5.73,4.80,5.51,4.33,4.35,4.36
72.19,-1.23,-5.52,-1.33,-5.62,5.62,4.70,5.39,4.39,4.29,4.29
72.91,-1.32,-5.54,-1.28,-5.50,5.50,4.59,5.26,4.19,4.22,4.23
73.64,-1.36,-5.52,-1.22,-5.38,5.38,4.49,5.14,4.03,4.16,4.16
74.38,-1.24,-5.33,-1.15,-5.25,5.25,4.39,5.01,4.02,4.10,4.10
75.12,-1.00,-5.03,-1.09,-5.12,5.12,4.30,4.89,4.13,4.04,4.03
75.87,-0.92,-4.88,-1.02,-5.00,5.00,4.20,4.77,4.08,3.97,3.96
76.63,-1.08,-4.98,-0.97,-4.88,4.88,4.10,4.64,3.81,3.91,3.91
77.40,-0.99,-4.83,-0.92,-4.77,4.77,4.01,4.52,3.78,3.85,3.85
78.17,-0.73,-4.50,-0.87,-4.66,4.66,3.92,4.40,3.93,3.79,3.78
78.95,-0.86,-4.60,-0.80,-4.53,4.53,3.83,4.28,3.67,3.73,3.74
79.74,-0.71,-4.39,-0.75,-4.42,4.42,3.74,4.16,3.71,3.67,3.67
80.54,-0.57,-4.19,-0.69,-4.31,4.31,3.66,4.04,3.74,3.62,3.62
81.35,-0.55,-4.10,-0.63,-4.19,4.19,3.57,3.93,3.65,3.56,3.56
82.16,-0.65,-4.15,-0.58,-4.09,4.09,3.49,3.81,3.44,3.50,3.50
82.98,-0.72,-4.17,-0.54,-3.99,3.99,3.41,3.70,3.28,3.45,3.46
83.81,-0.55,-3.94,-0.50,-3.89,3.89,3.32,3.59,3.35,3.39,3.39
84.65,-0.42,-3.75,-0.45,-3.79,3.79,3.25,3.48,3.37,3.34,3.33
85.50,-0.37,-3.65,-0.40,-3.68,3.68,3.17,3.37,3.32,3.28,3.28
86.35,-0.35,-3.57,-0.36,-3.58,3.58,3.09,3.27,3.23,3.22,3.23
87.22,-0.32,-3.48,-0.31,-3.47,3.47,3.02,3.16,3.15,3.16,3.17
88.09,-0.24,-3.34,-0.26,-3.36,3.36,2.94,3.06,3.12,3.10,3.11
88.97,-0.23,-3.27,-0.22,-3.26,3.26,2.87,2.96,3.03,3.04,3.04
89.86,-0.21,-3.19,-0.17,-3.16,3.16,2.80,2.86,2.95,2.98,2.98
90.76,-0.15,-3.07,-0.12,-3.05,3.05,2.73,2.77,2.90,2.92,2.92
91.66,-0.08,-2.94,-0.08,-2.94,2.94,2.66,2.67,2.86,2.86,2.87
92.58,-0.04,-2.83,-0.04,-2.84,2.84,2.59,2.58,2.81,2.80,2.79
93.51,-0.03,-2.76,-0.01,-2.75,2.75,2.52,2.49,2.73,2.74,2.74
94.44,0.09,-2.59,0.02,-2.66,2.66,2.46,2.40,2.75,2.68,2.68
95.39,0.20,-2.42,0.06,-2.56,2.56,2.39,2.31,2.77,2.62,2.63
96.34,0.07,-2.49,0.10,-2.47,2.47,2.33,2.22,2.54,2.57,2.56
97.30,-0.03,-2.53,0.13,-2.38,2.38,2.27,2.14,2.35,2.51,2.51
98.28,0.13,-2.32,0.16,-2.29,2.29,2.21,2.05,2.43,2.45,2.45
99.26,0.15,-2.24,0.18,-2.21,2.21,2.14,1.97,2.37,2.39,2.39
100.25,0.17,-2.16,0.20,-2.14,2.14,2.08,1.89,2.31,2.34,2.34
101.25,0.22,-2.05,0.20,-2.08,2.08,2.02,1.81,2.30,2.28,2.28
102.27,0.26,-1.96,0.20,-2.02,2.02,1.97,1.73,2.28,2.22,2.22
103.29,0.27,-1.88,0.20,-1.96,1.96,1.91,1.66,2.23,2.16,2.15
104.32,0.26,-1.84,0.20,-1.90,1.90,1.85,1.58,2.16,2.10,2.11
105.37,0.24,-1.80,0.20,-1.84,1.84,1.79,1.51,2.08,2.04,2.05
106.42,0.21,-1.78,0.21,-1.77,1.77,1.74,1.44,1.99,1.98,1.99
107.48,0.19,-1.73,0.22,-1.70,1.70,1.68,1.37,1.89,1.92,1.92
108.56,0.16,-1.69,0.23,-1.63,1.63,1.62,1.30,1.79,1.86,1.86
109.64,0.14,-1.65,0.21,-1.59,1.59,1.57,1.23,1.73,1.79,1.80
110.74,0.12,-1.61,0.20,-1.54,1.54,1.51,1.17,1.66,1.73,1.73
111.85,0.19,-1.49,0.20,-1.48,1.48,1.46,1.11,1.67,1.67,1.68
112.97,0.20,-1.40,0.20,-1.41,1.41,1.41,1.04,1.61,1.61,1.61
114.10,0.26,-1.29,0.22,-1.34,1.34,1.35,0.98,1.60,1.55,1.55
115.24,0.29,-1.20,0.24,-1.26,1.26,1.30,0.93,1.55,1.50,1.49
116.39,0.29,-1.13,0.27,-1.17,1.17,1.25,0.87,1.47,1.44,1.43
117.55,0.29,-1.09,0.30,-1.09,1.09,1.19,0.82,1.38,1.39,1.38
118.73,0.30,-1.02,0.34,-1.00,1.00,1.14,0.76,1.31,1.34,1.33
119.92,0.25,-1.04,0.37,-0.92,0.92,1.09,0.71,1.17,1.29,1.29
121.12,0.20,-1.03,0.41,-0.84,0.84,1.03,0.66,1.04,1.25,1.24
122.33,0.50,-0.69,0.44,-0.76,0.76,0.98,0.62,1.26,1.20,1.20
123.55,0.64,-0.52,0.47,-0.69,0.69,0.93,0.57,1.33,1.16,1.16
124.79,0.56,-0.56,0.49,-0.63,0.63,0.88,0.53,1.19,1.12,1.12
126.03,0.54,-0.54,0.52,-0.56,0.56,0.82,0.49,1.11,1.08,1.08
127.29,0.55,-0.49,0.54,-0.50,0.50,0.77,0.45,1.05,1.04,1.05
128.57,0.56,-0.43,0.56,-0.44,0.44,0.71,0.41,1.00,1.00,1.00
129.85,0.56,-0.40,0.57,-0.39,0.39,0.66,0.37,0.96,0.96,0.96
131.15,0.57,-0.35,0.58,-0.34,0.34,0.61,0.34,0.92,0.92,0.92
132.46,0.57,-0.31,0.59,-0.30,0.30,0.55,0.30,0.87,0.89,0.88
133.79,0.58,-0.26,0.59,-0.26,0.26,0.50,0.27,0.84,0.85,0.85
135.12,0.58,-0.22,0.59,-0.22,0.22,0.44,0.24,0.81,0.81,0.80
136.48,0.58,-0.19,0.58,-0.20,0.20,0.38,0.21,0.79,0.78,0.78
137.84,0.59,-0.14,0.58,-0.16,0.16,0.33,0.18,0.76,0.74,0.73
139.22,0.59,-0.10,0.59,-0.11,0.11,0.27,0.16,0.70,0.70,0.69
140.61,0.57,-0.07,0.61,-0.06,0.06,0.21,0.13,0.63,0.66,0.65
142.02,0.47,-0.15,0.63,0.00,-0.00,0.15,0.10,0.47,0.62,0.63
143.44,0.57,-0.01,0.64,0.06,-0.06,0.09,0.08,0.52,0.58,0.59
144.87,0.68,0.15,0.64,0.11,-0.11,0.03,0.05,0.58,0.53,0.54
146.32,0.69,0.21,0.64,0.16,-0.16,-0.03,0.03,0.54,0.48,0.49
147.78,0.69,0.24,0.65,0.22,-0.22,-0.09,0.01,0.47,0.42,0.45
149.26,0.69,0.30,0.66,0.29,-0.29,-0.15,-0.02,0.40,0.36,0.39
150.75,0.69,0.38,0.66,0.37,-0.37,-0.21,-0.04,0.33,0.30,0.32
152.26,0.69,0.45,0.67,0.44,-0.44,-0.28,-0.06,0.25,0.23,0.24
153.78,0.69,0.52,0.66,0.51,-0.51,-0.34,-0.08,0.18,0.15,0.17
155.32,0.69,0.61,0.66,0.58,-0.58,-0.40,-0.11,0.11,0.08,0.09
156.88,0.59,0.59,0.65,0.65,-0.65,-0.47,-0.13,-0.06,-0.00,0.01
158.44,0.50,0.59,0.64,0.72,-0.72,-0.53,-0.15,-0.21,-0.08,-0.08
160.03,0.55,0.73,0.62,0.77,-0.77,-0.59,-0.17,-0.22,-0.15,-0.17
161.63,0.65,0.91,0.59,0.82,-0.82,-0.66,-0.20,-0.17,-0.23,-0.25
163.24,0.69,1.01,0.57,0.86,-0.86,-0.72,-0.22,-0.17,-0.30,-0.32
164.88,0.58,0.96,0.54,0.90,-0.90,-0.78,-0.24,-0.31,-0.36,-0.38
166.53,0.50,0.94,0.51,0.93,-0.93,-0.84,-0.27,-0.42,-0.41,-0.43
168.19,0.47,0.95,0.49,0.95,-0.95,-0.91,-0.29,-0.48,-0.46,-0.48
169.87,0.47,0.99,0.47,0.97,-0.97,-0.96,-0.32,-0.50,-0.50,-0.52
171.57,0.46,1.01,0.46,0.99,-0.99,-1.02,-0.34,-0.52,-0.53,-0.54
173.29,0.45,1.02,0.46,1.01,-1.01,-1.08,-0.37,-0.56,-0.55,-0.57
175.02,0.45,1.03,0.47,1.04,-1.04,-1.13,-0.40,-0.59,-0.57,-0.58
176.77,0.45,1.05,0.47,1.06,-1.06,-1.18,-0.43,-0.61,-0.59,-0.60
178.54,0.36,0.97,0.48,1.08,-1.08,-1.22,-0.45,-0.72,-0.60,-0.61
180.32,0.33,0.94,0.49,1.10,-1.10,-1.27,-0.48,-0.77,-0.61,-0.60
182.13,0.46,1.07,0.50,1.13,-1.13,-1.30,-0.51,-0.66,-0.63,-0.60
183.95,0.56,1.18,0.51,1.15,-1.15,-1.34,-0.54,-0.59,-0.64,-0.62
185.79,0.58,1.21,0.53,1.18,-1.18,-1.37,-0.57,-0.60,-0.65,-0.63
187.65,0.59,1.24,0.55,1.21,-1.21,-1.39,-0.60,-0.62,-0.66,-0.65
189.52,0.67,1.34,0.56,1.23,-1.23,-1.41,-0.63,-0.56,-0.68,-0.67
191.42,0.68,1.37,0.57,1.26,-1.26,-1.43,-0.66,-0.58,-0.69,-0.69
193.33,0.59,1.31,0.58,1.29,-1.29,-1.44,-0.70,-0.69,-0.71,-0.71
195.27,0.55,1.29,0.58,1.31,-1.31,-1.45,-0.73,-0.76,-0.73,-0.73
197.22,0.56,1.32,0.57,1.33,-1.33,-1.45,-0.76,-0.77,-0.76,-0.76
199.19,0.50,1.29,0.56,1.34,-1.34,-1.44,-0.79,-0.84,-0.78,-0.79
201.18,0.41,1.22,0.55,1.35,-1.35,-1.44,-0.83,-0.94,-0.80,-0.81
203.19,0.49,1.32,0.51,1.34,-1.34,-1.42,-0.86,-0.85,-0.83,-0.83
205.23,0.57,1.43,0.48,1.33,-1.33,-1.41,-0.89,-0.76,-0.85,-0.86
207.28,0.48,1.35,0.46,1.33,-1.33,-1.39,-0.92,-0.85,-0.88,-0.86
209.35,0.41,1.31,0.43,1.33,-1.33,-1.36,-0.96,-0.91,-0.90,-0.89
211.44,0.45,1.38,0.39,1.31,-1.31,-1.33,-0.99,-0.86,-0.92,-0.93
213.56,0.38,1.32,0.36,1.30,-1.30,-1.31,-1.02,-0.92,-0.94,-0.94
215.69,0.28,1.24,0.34,1.30,-1.30,-1.27,-1.05,-1.01,-0.95,-0.95
217.85,0.27,1.24,0.32,1.29,-1.29,-1.24,-1.08,-1.02,-0.97,-0.97
220.03,0.31,1.30,0.29,1.28,-1.28,-1.20,-1.10,-0.96,-0.98,-0.98
222.23,0.27,1.28,0.27,1.26,-1.26,-1.17,-1.13,-0.98,-0.99,-1.01
224.45,0.18,1.19,0.23,1.22,-1.22,-1.13,-1.15,-1.04,-1.00,-1.00
226.70,0.19,1.20,0.18,1.18,-1.18,-1.09,-1.18,-0.99,-1.00,-1.01
228.96,0.20,1.20,0.15,1.14,-1.14,-1.05,-1.20,-0.94,-1.00,-1.00
231.25,0.10,1.10,0.12,1.12,-1.12,-1.01,-1.22,-1.01,-0.99,-0.99
233.57,0.09,1.08,0.10,1.08,-1.08,-0.98,-1.23,-0.99,-0.98,-0.98
235.90,0.12,1.10,0.07,1.04,-1.04,-0.94,-1.24,-0.92,-0.97,-0.97
238.26,0.10,1.07,0.06,1.01,-1.01,-0.90,-1.26,-0.91,-0.96,-0.97
240.64,0.01,0.96,0.04,0.98,-0.98,-0.86,-1.26,-0.96,-0.94,-0.95
243.05,-0.04,0.88,0.01,0.93,-0.93,-0.82,-1.27,-0.97,-0.92,-0.92
245.48,-0.10,0.80,-0.01,0.89,-0.89,-0.79,-1.27,-0.99,-0.90,-0.90
247.93,-0.11,0.76,-0.02,0.86,-0.86,-0.75,-1.27,-0.97,-0.88,-0.87
250.41,0.00,0.86,-0.02,0.83,-0.83,-0.72,-1.26,-0.83,-0.86,-0.86
252.92,0.05,0.88,-0.03,0.81,-0.81,-0.68,-1.26,-0.75,-0.84,-0.83
255.45,0.01,0.82,-0.03,0.78,-0.78,-0.65,-1.24,-0.77,-0.81,-0.81
258.00,-0.06,0.73,-0.03,0.76,-0.76,-0.62,-1.23,-0.82,-0.79,-0.78
260.58,-0.07,0.71,-0.03,0.73,-0.73,-0.58,-1.21,-0.80,-0.77,-0.77
263.19,-0.06,0.68,-0.04,0.71,-0.71,-0.55,-1.19,-0.76,-0.74,-0.74
265.82,-0.05,0.68,-0.04,0.68,-0.68,-0.52,-1.17,-0.73,-0.72,-0.73
268.48,-0.05,0.66,-0.04,0.66,-0.66,-0.50,-1.14,-0.70,-0.70,-0.70
271.16,0.06,0.74,-0.04,0.63,-0.63,-0.47,-1.11,-0.57,-0.67,-0.67
273.87,-0.02,0.64,-0.05,0.60,-0.60,-0.44,-1.08,-0.61,-0.65,-0.66
276.61,-0.06,0.57,-0.06,0.56,-0.56,-0.42,-1.05,-0.62,-0.63,-0.62
279.38,-0.04,0.57,-0.08,0.52,-0.52,-0.39,-1.01,-0.56,-0.60,-0.60
282.17,-0.12,0.46,-0.09,0.49,-0.49,-0.37,-0.97,-0.60,-0.58,-0.58
284.99,-0.15,0.40,-0.09,0.46,-0.46,-0.34,-0.93,-0.61,-0.55,-0.54
287.84,-0.14,0.39,-0.08,0.44,-0.44,-0.32,-0.89,-0.57,-0.52,-0.53
290.72,-0.13,0.37,-0.08,0.41,-0.41,-0.30,-0.85,-0.53,-0.49,-0.49
293.63,-0.12,0.35,-0.09,0.38,-0.38,-0.28,-0.81,-0.49,-0.46,-0.47
296.57,-0.11,0.33,-0.09,0.35,-0.35,-0.25,-0.76,-0.45,-0.44,-0.43
299.53,-0.10,0.31,-0.08,0.33,-0.33,-0.23,-0.71,-0.42,-0.41,-0.41
302.53,-0.08,0.32,-0.08,0.30,-0.30,-0.21,-0.67,-0.38,-0.38,-0.39
305.55,-0.07,0.28,-0.08,0.28,-0.28,-0.20,-0.62,-0.35,-0.36,-0.35
308.61,-0.07,0.27,-0.08,0.26,-0.26,-0.18,-0.57,-0.32,-0.34,-0.33
311.69,-0.05,0.26,-0.08,0.23,-0.23,-0.16,-0.52,-0.28,-0.31,-0.31
314.81,-0.01,0.27,-0.09,0.20,-0.20,-0.14,-0.47,-0.21,-0.29,-0.28
317.96,-0.08,0.19,-0.10,0.17,-0.17,-0.12,-0.42,-0.24,-0.27,-0.26
321.14,-0.14,0.12,-0.13,0.12,-0.12,-0.11,-0.37,-0.26,-0.25,-0.26
324.35,-0.15,0.10,-0.16,0.08,-0.08,-0.09,-0.32,-0.23,-0.24,-0.24
327.59,-0.12,0.11,-0.19,0.04,-0.04,-0.07,-0.27,-0.15,-0.22,-0.23
330.87,-0.18,0.04,-0.22,-0.01,0.01,-0.06,-0.21,-0.17,-0.21,-0.22
334.18,-0.34,-0.13,-0.25,-0.05,0.05,-0.04,-0.16,-0.28,-0.20,-0.20
337.52,-0.39,-0.19,-0.29,-0.09,0.09,-0.02,-0.11,-0.29,-0.19,-0.19
340.90,-0.34,-0.16,-0.32,-0.14,0.14,-0.01,-0.06,-0.20,-0.18,-0.18
344.30,-0.35,-0.18,-0.36,-0.18,0.18,0.01,-0.01,-0.16,-0.18,-0.17
347.75,-0.43,-0.25,-0.39,-0.22,0.22,0.02,0.05,-0.20,-0.17,-0.17
351.23,-0.46,-0.29,-0.42,-0.26,0.26,0.04,0.10,-0.20,-0.17,-0.17
354.74,-0.46,-0.29,-0.45,-0.29,0.29,0.05,0.15,-0.17,-0.16,-0.17
358.28,-0.44,-0.28,-0.48,-0.32,0.32,0.07,0.20,-0.11,-0.16,-0.16
361.87,-0.45,-0.28,-0.51,-0.35,0.35,0.08,0.25,-0.09,-0.16,-0.16
365.49,-0.52,-0.36,-0.54,-0.38,0.38,0.10,0.31,-0.14,-0.16,-0.16
369.14,-0.54,-0.37,-0.55,-0.39,0.39,0.11,0.36,-0.15,-0.16,-0.17
372.83,-0.58,-0.41,-0.56,-0.39,0.39,0.13,0.41,-0.18,-0.16,-0.17
376.56,-0.63,-0.45,-0.57,-0.41,0.41,0.15,0.46,-0.22,-0.17,-0.17
380.33,-0.62,-0.45,-0.59,-0.42,0.42,0.16,0.52,-0.20,-0.17,-0.16
384.13,-0.59,-0.42,-0.60,-0.43,0.43,0.18,0.57,-0.16,-0.17,-0.16
387.97,-0.66,-0.48,-0.61,-0.44,0.44,0.20,0.62,-0.22,-0.18,-0.18
391.85,-0.69,-0.50,-0.62,-0.44,0.44,0.21,0.67,-0.24,-0.18,-0.19
395.77,-0.65,-0.47,-0.64,-0.45,0.45,0.23,0.72,-0.20,-0.19,-0.18
399.73,-0.61,-0.41,-0.65,-0.45,0.45,0.25,0.78,-0.15,-0.20,-0.19
403.72,-0.60,-0.40,-0.66,-0.46,0.46,0.26,0.83,-0.14,-0.20,-0.19
407.76,-0.60,-0.39,-0.66,-0.46,0.46,0.28,0.88,-0.14,-0.21,-0.20
411.84,-0.64,-0.43,-0.67,-0.46,0.46,0.30,0.93,-0.17,-0.21,-0.21
415.96,-0.70,-0.49,-0.67,-0.46,0.46,0.32,0.98,-0.23,-0.21,-0.21
420.12,-0.71,-0.50,-0.68,-0.47,0.47,0.34,1.03,-0.24,-0.21,-0.21
424.32,-0.70,-0.49,-0.68,-0.48,0.48,0.36,1.08,-0.22,-0.20,-0.21
428.56,-0.69,-0.48,-0.68,-0.49,0.49,0.39,1.12,-0.20,-0.19,-0.20
432.85,-0.70,-0.50,-0.68,-0.50,0.50,0.41,1.17,-0.19,-0.18,-0.19
437.18,-0.73,-0.54,-0.68,-0.52,0.52,0.43,1.21,-0.20,-0.16,-0.18
441.55,-0.72,-0.57,-0.68,-0.54,0.54,0.46,1.26,-0.17,-0.13,-0.14
445.96,-0.67,-0.55,-0.67,-0.57,0.57,0.48,1.30,-0.09,-0.10,-0.12
450.42,-0.65,-0.56,-0.66,-0.59,0.59,0.51,1.34,-0.05,-0.07,-0.09
454.93,-0.65,-0.61,-0.64,-0.62,0.62,0.53,1.38,-0.03,-0.02,-0.04
459.48,-0.60,-0.61,-0.62,-0.64,0.64,0.56,1.41,0.05,0.02,0.01
464.07,-0.61,-0.67,-0.60,-0.67,0.67,0.59,1.45,0.06,0.06,0.06
468.71,-0.61,-0.73,-0.58,-0.70,0.70,0.63,1.48,0.09,0.11,0.12
