frequency,raw,error,smoothed,error_smoothed,equalization,parametric_eq,fixed_band_eq,equalized_raw,equalized_smoothed,target
20.00,19.11,8.78,19.11,8.77,-8.78,-8.76,-3.57,10.33,10.33,10.33
20.20,19.09,8.76,19.09,8.76,-8.76,-8.75,-3.67,10.33,10.33,10.33
20.40,19.07,8.74,19.07,8.75,-8.74,-8.74,-3.77,10.33,10.33,10.33
20.61,19.06,8.73,19.06,8.73,-8.73,-8.72,-3.88,10.33,10.33,10.33
20.81,19.04,8.72,19.04,8.72,-8.71,-8.71,-3.99,10.33,10.33,10.32
21.02,19.02,8.70,19.02,8.69,-8.69,-8.70,-4.10,10.33,10.33,10.32
21.23,18.99,8.67,18.99,8.67,-8.67,-8.69,-4.21,10.32,10.32,10.32
21.44,18.97,8.64,18.97,8.65,-8.66,-8.67,-4.33,10.31,10.32,10.33
21.66,18.96,8.64,18.95,8.63,-8.64,-8.66,-4.45,10.32,10.32,10.32
21.87,18.94,8.62,18.94,8.62,-8.62,-8.64,-4.57,10.32,10.32,10.32
22.09,18.92,8.61,18.92,8.61,-8.60,-8.63,-4.70,10.32,10.32,10.31
22.31,18.90,8.59,18.90,8.59,-8.59,-8.61,-4.83,10.31,10.31,10.31
22.54,18.88,8.58,18.88,8.58,-8.57,-8.60,-4.96,10.31,10.31,10.30
22.76,18.86,8.56,18.86,8.56,-8.56,-8.58,-5.10,10.30,10.30,10.30
22.99,18.83,8.54,18.83,8.54,-8.55,-8.57,-5.24,10.28,10.29,10.29
23.22,18.81,8.53,18.81,8.52,-8.53,-8.55,-5.39,10.28,10.28,10.28
23.45,18.79,8.51,18.79,8.51,-8.51,-8.53,-5.53,10.28,10.28,10.28
23.69,18.77,8.50,18.77,8.50,-8.49,-8.51,-5.68,10.28,10.28,10.27
23.92,18.75,8.49,18.75,8.48,-8.47,-8.50,-5.84,10.27,10.27,10.26
24.16,18.72,8.46,18.72,8.46,-8.45,-8.48,-5.99,10.26,10.27,10.26
24.40,18.69,8.43,18.69,8.43,-8.43,-8.46,-6.15,10.25,10.26,10.26
24.65,18.67,8.41,18.67,8.41,-8.41,-8.44,-6.32,10.26,10.25,10.26
24.89,18.64,8.38,18.64,8.38,-8.39,-8.42,-6.48,10.25,10.25,10.26
25.14,18.62,8.37,18.62,8.37,-8.37,-8.40,-6.65,10.25,10.25,10.25
25.39,18.59,8.35,18.59,8.35,-8.34,-8.38,-6.82,10.25,10.25,10.24
25.65,18.57,8.33,18.57,8.33,-8.32,-8.36,-6.99,10.25,10.25,10.24
25.91,18.54,8.30,18.54,8.30,-8.29,-8.34,-7.16,10.25,10.25,10.24
26.16,18.51,8.26,18.51,8.27,-8.27,-8.32,-7.34,10.24,10.25,10.25
26.43,18.49,8.24,18.48,8.24,-8.24,-8.30,-7.51,10.25,10.24,10.25
26.69,18.46,8.21,18.46,8.21,-8.21,-8.28,-7.68,10.25,10.25,10.25
26.96,18.43,8.19,18.43,8.19,-8.19,-8.26,-7.85,10.24,10.25,10.24
27.23,18.41,8.17,18.40,8.16,-8.16,-8.24,-8.02,10.25,10.24,10.24
27.50,18.37,8.13,18.37,8.13,-8.13,-8.22,-8.18,10.24,10.24,10.24
27.77,18.34,8.09,18.34,8.10,-8.10,-8.20,-8.35,10.24,10.24,10.25
28.05,18.32,8.08,18.31,8.07,-8.08,-8.18,-8.50,10.24,10.24,10.24
28.33,18.28,8.05,18.28,8.05,-8.05,-8.15,-8.65,10.23,10.23,10.23
28.62,18.26,8.04,18.26,8.03,-8.03,-8.13,-8.79,10.23,10.23,10.22
28.90,18.22,7.99,18.22,8.00,-8.00,-8.11,-8.93,10.22,10.22,10.23
29.19,18.20,7.98,18.19,7.98,-7.98,-8.09,-9.05,10.22,10.22,10.22
29.48,18.16,7.95,18.16,7.95,-7.95,-8.07,-9.17,10.21,10.21,10.21
29.78,18.13,7.93,18.13,7.93,-7.93,-8.04,-9.27,10.20,10.21,10.20
30.08,18.10,7.90,18.10,7.90,-7.90,-8.02,-9.36,10.20,10.20,10.20
30.38,18.06,7.87,18.06,7.87,-7.87,-8.00,-9.44,10.19,10.19,10.19
30.68,18.03,7.85,18.03,7.84,-7.84,-7.97,-9.50,10.19,10.19,10.18
30.99,17.99,7.81,17.99,7.81,-7.81,-7.95,-9.55,10.18,10.18,10.18
31.30,17.96,7.78,17.96,7.78,-7.78,-7.93,-9.58,10.18,10.18,10.18
31.61,17.93,7.75,17.93,7.75,-7.75,-7.91,-9.60,10.18,10.18,10.18
31.93,17.89,7.72,17.89,7.72,-7.71,-7.88,-9.60,10.18,10.18,10.17
32.24,17.86,7.68,17.86,7.68,-7.68,-7.86,-9.59,10.18,10.17,10.18
32.57,17.82,7.65,17.82,7.65,-7.65,-7.84,-9.56,10.17,10.17,10.17
32.89,17.79,7.62,17.79,7.62,-7.62,-7.82,-9.52,10.17,10.17,10.17
33.22,17.76,7.59,17.75,7.58,-7.59,-7.79,-9.47,10.17,10.17,10.17
33.55,17.71,7.55,17.72,7.56,-7.56,-7.77,-9.41,10.15,10.16,10.16
33.89,17.68,7.53,17.68,7.53,-7.53,-7.75,-9.34,10.15,10.15,10.15
34.23,17.64,7.51,17.64,7.50,-7.50,-7.73,-9.26,10.14,10.14,10.13
34.57,17.61,7.48,17.61,7.48,-7.48,-7.70,-9.17,10.13,10.13,10.13
34.92,17.57,7.46,17.57,7.46,-7.46,-7.68,-9.08,10.11,10.11,10.11
35.27,17.53,7.43,17.53,7.43,-7.44,-7.66,-8.98,10.09,10.09,10.10
35.62,17.49,7.42,17.49,7.41,-7.42,-7.64,-8.87,10.07,10.07,10.07
35.97,17.44,7.39,17.45,7.40,-7.40,-7.61,-8.76,10.04,10.04,10.05
36.33,17.41,7.39,17.41,7.39,-7.39,-7.59,-8.65,10.02,10.02,10.02
36.70,17.37,7.38,17.37,7.37,-7.37,-7.57,-8.54,10.00,9.99,9.99
37.06,17.33,7.37,17.33,7.37,-7.36,-7.55,-8.43,9.97,9.96,9.96
37.43,17.28,7.35,17.29,7.36,-7.35,-7.53,-8.32,9.92,9.93,9.93
37.81,17.25,7.35,17.24,7.35,-7.35,-7.50,-8.21,9.90,9.90,9.90
38.19,17.20,7.34,17.20,7.33,-7.34,-7.48,-8.10,9.86,9.87,9.86
38.57,17.16,7.32,17.16,7.32,-7.32,-7.46,-8.00,9.83,9.84,9.84
38.95,17.12,7.31,17.12,7.31,-7.31,-7.44,-7.89,9.81,9.81,9.81
39.34,17.08,7.31,17.08,7.31,-7.30,-7.42,-7.79,9.78,9.78,9.77
39.74,17.04,7.30,17.03,7.29,-7.29,-7.40,-7.70,9.75,9.75,9.74
40.14,16.99,7.27,16.99,7.27,-7.27,-7.38,-7.60,9.72,9.72,9.72
40.54,16.94,7.24,16.95,7.25,-7.25,-7.36,-7.51,9.69,9.69,9.70
40.94,16.91,7.24,16.90,7.23,-7.24,-7.34,-7.43,9.67,9.67,9.67
41.35,16.86,7.22,16.86,7.22,-7.22,-7.32,-7.35,9.64,9.64,9.64
41.76,16.82,7.21,16.82,7.20,-7.20,-7.30,-7.27,9.62,9.62,9.61
42.18,16.77,7.17,16.77,7.18,-7.18,-7.28,-7.20,9.59,9.59,9.60
42.60,16.72,7.15,16.72,7.15,-7.15,-7.26,-7.14,9.56,9.57,9.57
43.03,16.68,7.14,16.68,7.13,-7.13,-7.24,-7.08,9.55,9.55,9.54
43.46,16.63,7.11,16.63,7.11,-7.11,-7.22,-7.02,9.52,9.52,9.52
43.90,16.59,7.09,16.58,7.09,-7.09,-7.20,-6.97,9.50,9.50,9.50
44.33,16.53,7.07,16.53,7.06,-7.06,-7.18,-6.93,9.47,9.47,9.46
44.78,16.48,7.04,16.48,7.04,-7.04,-7.17,-6.89,9.44,9.44,9.44
45.23,16.44,7.01,16.43,7.02,-7.02,-7.15,-6.85,9.42,9.41,9.43
45.68,16.39,7.00,16.39,7.00,-7.00,-7.13,-6.82,9.39,9.38,9.39
46.13,16.34,7.00,16.34,6.99,-6.99,-7.11,-6.80,9.35,9.35,9.34
46.60,16.29,6.97,16.29,6.98,-6.97,-7.10,-6.78,9.32,9.32,9.32
47.06,16.25,6.97,16.24,6.96,-6.96,-7.08,-6.76,9.29,9.28,9.28
47.53,16.19,6.94,16.19,6.95,-6.95,-7.06,-6.75,9.24,9.24,9.25
48.01,16.14,6.95,16.14,6.94,-6.94,-7.05,-6.74,9.20,9.20,9.19
48.49,16.09,6.93,16.09,6.93,-6.94,-7.03,-6.74,9.15,9.15,9.16
48.97,16.04,6.93,16.04,6.93,-6.93,-7.01,-6.74,9.11,9.11,9.11
49.46,15.99,6.92,15.99,6.93,-6.93,-7.00,-6.75,9.06,9.06,9.07
49.96,15.94,6.94,15.94,6.93,-6.92,-6.98,-6.76,9.02,9.01,9.00
50.46,15.88,6.92,15.88,6.92,-6.92,-6.97,-6.77,8.96,8.96,8.96
50.96,15.83,6.92,15.83,6.92,-6.91,-6.95,-6.78,8.92,8.92,8.91
51.47,15.78,6.91,15.78,6.91,-6.91,-6.94,-6.80,8.87,8.87,8.87
51.99,15.73,6.91,15.73,6.91,-6.90,-6.93,-6.82,8.83,8.83,8.82
52.51,15.68,6.90,15.67,6.89,-6.89,-6.91,-6.85,8.79,8.78,8.78
53.03,15.62,6.87,15.62,6.88,-6.88,-6.90,-6.87,8.74,8.74,8.75
53.56,15.56,6.86,15.57,6.87,-6.87,-6.89,-6.90,8.68,8.69,8.70
54.10,15.52,6.88,15.51,6.86,-6.87,-6.87,-6.92,8.65,8.64,8.64
54.64,15.45,6.85,15.46,6.86,-6.86,-6.86,-6.95,8.59,8.60,8.60
55.18,15.40,6.86,15.40,6.86,-6.85,-6.85,-6.98,8.55,8.55,8.54
55.74,15.35,6.85,15.34,6.84,-6.84,-6.84,-7.00,8.51,8.50,8.50
56.29,15.29,6.83,15.29,6.83,-6.83,-6.83,-7.03,8.46,8.46,8.46
56.86,15.23,6.81,15.23,6.82,-6.82,-6.82,-7.05,8.41,8.42,8.42
57.42,15.18,6.82,15.18,6.81,-6.80,-6.80,-7.07,8.37,8.37,8.36
58.00,15.13,6.81,15.13,6.80,-6.79,-6.79,-7.09,8.34,8.33,8.32
58.58,15.07,6.78,15.07,6.78,-6.78,-6.78,-7.11,8.29,8.29,8.29
59.16,15.01,6.76,15.01,6.76,-6.77,-6.77,-7.12,8.24,8.24,8.25
59.76,14.95,6.74,14.95,6.75,-6.76,-6.76,-7.13,8.19,8.19,8.21
60.35,14.90,6.76,14.90,6.75,-6.76,-6.76,-7.14,8.14,8.14,8.14
60.96,14.84,6.75,14.84,6.75,-6.76,-6.75,-7.14,8.08,8.08,8.09
61.57,14.78,6.77,14.78,6.76,-6.76,-6.74,-7.13,8.02,8.02,8.01
62.18,14.72,6.77,14.72,6.77,-6.77,-6.73,-7.12,7.95,7.96,7.95
62.80,14.67,6.78,14.67,6.78,-6.77,-6.72,-7.11,7.90,7.90,7.89
63.43,14.61,6.79,14.61,6.78,-6.77,-6.71,-7.09,7.84,7.84,7.82
64.07,14.55,6.78,14.55,6.78,-6.77,-6.70,-7.06,7.78,7.78,7.77
64.71,14.49,6.77,14.49,6.77,-6.77,-6.70,-7.03,7.72,7.72,7.72
65.35,14.42,6.75,14.43,6.76,-6.76,-6.69,-7.00,7.66,7.66,7.67
66.01,14.37,6.76,14.36,6.75,-6.76,-6.68,-6.96,7.61,7.61,7.61
66.67,14.31,6.74,14.30,6.74,-6.75,-6.68,-6.92,7.56,7.56,7.57
67.33,14.24,6.74,14.25,6.74,-6.74,-6.67,-6.87,7.50,7.51,7.50
68.01,14.19,6.74,14.19,6.74,-6.73,-6.66,-6.82,7.46,7.45,7.45
68.69,14.13,6.74,14.12,6.73,-6.73,-6.66,-6.77,7.40,7.40,7.39
69.37,14.06,6.72,14.06,6.72,-6.72,-6.65,-6.71,7.34,7.34,7.34
70.07,14.00,6.71,14.00,6.71,-6.72,-6.65,-6.66,7.28,7.28,7.29
70.77,13.94,6.71,13.94,6.71,-6.72,-6.64,-6.60,7.22,7.22,7.23
71.48,13.88,6.71,13.88,6.71,-6.71,-6.64,-6.54,7.17,7.16,7.17
72.19,13.81,6.71,13.82,6.71,-6.71,-6.63,-6.48,7.10,7.11,7.10
72.91,13.76,6.71,13.75,6.71,-6.71,-6.63,-6.43,7.05,7.05,7.05
73.64,13.69,6.71,13.69,6.71,-6.70,-6.62,-6.37,6.99,6.99,6.98
74.38,13.63,6.71,13.63,6.70,-6.70,-6.62,-6.31,6.93,6.93,6.92
75.12,13.57,6.70,13.56,6.69,-6.69,-6.62,-6.25,6.88,6.87,6.87
75.87,13.50,6.67,13.50,6.68,-6.68,-6.61,-6.20,6.82,6.82,6.83
76.63,13.44,6.67,13.44,6.67,-6.67,-6.61,-6.15,6.77,6.77,6.77
77.40,13.38,6.67,13.37,6.66,-6.66,-6.60,-6.10,6.72,6.71,6.71
78.17,13.31,6.66,13.31,6.65,-6.65,-6.60,-6.05,6.66,6.66,6.65
78.95,13.24,6.62,13.24,6.63,-6.63,-6.60,-6.01,6.60,6.61,6.62
79.74,13.18,6.62,13.18,6.62,-6.62,-6.59,-5.97,6.56,6.56,6.56
80.54,13.12,6.62,13.12,6.61,-6.61,-6.59,-5.93,6.51,6.51,6.50
81.35,13.06,6.60,13.06,6.60,-6.60,-6.59,-5.90,6.46,6.46,6.46
82.16,12.99,6.58,12.99,6.58,-6.58,-6.59,-5.87,6.40,6.40,6.41
82.98,12.92,6.57,12.92,6.57,-6.57,-6.58,-5.84,6.35,6.35,6.35
83.81,12.86,6.56,12.86,6.56,-6.56,-6.58,-5.82,6.30,6.30,6.30
84.65,12.80,6.56,12.79,6.55,-6.55,-6.58,-5.80,6.25,6.25,6.24
85.50,12.72,6.53,12.73,6.54,-6.53,-6.57,-5.79,6.19,6.19,6.19
86.35,12.67,6.53,12.66,6.52,-6.52,-6.57,-5.78,6.15,6.14,6.14
87.22,12.59,6.50,12.59,6.50,-6.51,-6.57,-5.77,6.08,6.08,6.09
88.09,12.53,6.50,12.53,6.49,-6.50,-6.57,-5.77,6.03,6.03,6.03
88.97,12.46,6.48,12.46,6.48,-6.48,-6.56,-5.77,5.98,5.98,5.98
89.86,12.40,6.48,12.40,6.48,-6.47,-6.56,-5.78,5.93,5.93,5.92
90.76,12.33,6.47,12.33,6.46,-6.46,-6.56,-5.79,5.87,5.87,5.86
91.66,12.26,6.45,12.26,6.45,-6.45,-6.56,-5.81,5.81,5.81,5.81
92.58,12.19,6.44,12.19,6.44,-6.44,-6.55,-5.83,5.75,5.75,5.75
93.51,12.12,6.43,12.12,6.43,-6.44,-6.55,-5.85,5.68,5.69,5.69
94.44,12.06,6.43,12.06,6.43,-6.43,-6.55,-5.88,5.63,5.62,5.63
95.39,11.99,6.43,11.99,6.42,-6.43,-6.55,-5.91,5.56,5.56,5.56
96.34,11.92,6.43,11.92,6.43,-6.43,-6.54,-5.94,5.49,5.49,5.49
97.30,11.85,6.42,11.85,6.43,-6.43,-6.54,-5.98,5.42,5.42,5.43
98.28,11.79,6.45,11.78,6.44,-6.43,-6.54,-6.03,5.36,5.35,5.34
99.26,11.71,6.44,11.71,6.44,-6.43,-6.54,-6.07,5.28,5.29,5.27
100.25,11.65,6.44,11.64,6.43,-6.43,-6.53,-6.12,5.22,5.22,5.21
101.25,11.57,6.42,11.57,6.42,-6.42,-6.53,-6.17,5.15,5.15,5.15
102.27,11.50,6.41,11.50,6.41,-6.42,-6.53,-6.22,5.08,5.08,5.09
103.29,11.43,6.41,11.43,6.40,-6.41,-6.52,-6.28,5.02,5.02,5.02
104.32,11.37,6.40,11.37,6.40,-6.40,-6.52,-6.34,4.97,4.97,4.97
105.37,11.30,6.39,11.30,6.39,-6.39,-6.51,-6.39,4.91,4.91,4.91
106.42,11.23,6.38,11.23,6.38,-6.38,-6.51,-6.45,4.85,4.85,4.85
107.48,11.16,6.38,11.16,6.37,-6.36,-6.51,-6.51,4.79,4.79,4.78
108.56,11.08,6.35,11.08,6.35,-6.35,-6.50,-6.57,4.73,4.73,4.73
109.64,11.01,6.33,11.01,6.34,-6.34,-6.50,-6.63,4.67,4.67,4.68
110.74,10.94,6.33,10.94,6.33,-6.33,-6.49,-6.68,4.61,4.61,4.61
111.85,10.88,6.33,10.87,6.32,-6.32,-6.49,-6.74,4.56,4.55,4.55
112.97,10.80,6.31,10.80,6.31,-6.31,-6.48,-6.79,4.49,4.49,4.49
114.10,10.73,6.30,10.73,6.30,-6.30,-6.47,-6.83,4.42,4.42,4.43
115.24,10.65,6.29,10.65,6.30,-6.30,-6.47,-6.88,4.35,4.35,4.36
116.39,10.59,6.31,10.58,6.30,-6.30,-6.46,-6.92,4.29,4.29,4.28
117.55,10.51,6.29,10.51,6.30,-6.29,-6.45,-6.95,4.22,4.22,4.22
118.73,10.44,6.30,10.44,6.30,-6.29,-6.45,-6.98,4.15,4.15,4.14
119.92,10.37,6.30,10.37,6.29,-6.29,-6.44,-7.00,4.08,4.08,4.07
121.12,10.29,6.28,10.29,6.29,-6.29,-6.43,-7.02,4.00,4.01,4.01
122.33,10.22,6.29,10.22,6.28,-6.28,-6.42,-7.03,3.93,3.94,3.93
123.55,10.15,6.28,10.15,6.28,-6.29,-6.41,-7.03,3.86,3.86,3.87
124.79,10.08,6.28,10.08,6.28,-6.29,-6.41,-7.02,3.79,3.79,3.80
126.03,10.00,6.27,10.01,6.28,-6.29,-6.40,-7.01,3.71,3.72,3.73
127.29,9.94,6.30,9.94,6.29,-6.29,-6.39,-6.99,3.65,3.65,3.64
128.57,9.87,6.30,9.87,6.30,-6.29,-6.38,-6.96,3.58,3.57,3.57
129.85,9.79,6.30,9.79,6.30,-6.29,-6.36,-6.93,3.50,3.50,3.49
131.15,9.72,6.30,9.72,6.29,-6.29,-6.35,-6.89,3.43,3.42,3.42
132.46,9.64,6.29,9.64,6.29,-6.29,-6.34,-6.84,3.35,3.35,3.35
133.79,9.57,6.28,9.57,6.28,-6.28,-6.33,-6.79,3.29,3.29,3.29
135.12,9.50,6.28,9.50,6.27,-6.27,-6.32,-6.73,3.23,3.23,3.22
136.48,9.42,6.24,9.43,6.25,-6.25,-6.30,-6.67,3.17,3.17,3.18
137.84,9.36,6.24,9.35,6.24,-6.24,-6.29,-6.60,3.12,3.12,3.12
139.22,9.28,6.23,9.28,6.21,-6.22,-6.27,-6.53,3.06,3.06,3.05
140.61,9.20,6.19,9.20,6.20,-6.20,-6.26,-6.45,3.00,3.01,3.01
142.02,9.13,6.17,9.13,6.17,-6.17,-6.24,-6.38,2.96,2.96,2.96
143.44,9.06,6.16,9.05,6.15,-6.15,-6.23,-6.30,2.91,2.91,2.90
144.87,8.98,6.12,8.98,6.13,-6.13,-6.21,-6.22,2.85,2.86,2.86
146.32,8.91,6.10,8.91,6.10,-6.10,-6.19,-6.14,2.81,2.81,2.81
147.78,8.84,6.08,8.83,6.07,-6.07,-6.18,-6.06,2.77,2.76,2.76
149.26,8.76,6.04,8.76,6.05,-6.05,-6.16,-5.98,2.71,2.72,2.72
150.75,8.69,6.03,8.69,6.02,-6.02,-6.14,-5.90,2.67,2.67,2.66
152.26,8.62,5.99,8.62,5.99,-5.99,-6.12,-5.82,2.63,2.62,2.63
153.78,8.54,5.97,8.54,5.97,-5.96,-6.10,-5.74,2.57,2.58,2.57
155.32,8.47,5.94,8.47,5.94,-5.94,-6.08,-5.66,2.53,2.53,2.53
156.88,8.39,5.91,8.39,5.91,-5.91,-6.06,-5.59,2.47,2.48,2.48
158.44,8.32,5.89,8.32,5.89,-5.89,-6.03,-5.52,2.43,2.43,2.43
160.03,8.25,5.87,8.24,5.87,-5.87,-6.01,-5.45,2.38,2.38,2.38
161.63,8.17,5.84,8.17,5.85,-5.85,-5.99,-5.39,2.32,2.32,2.33
163.24,8.10,5.84,8.10,5.83,-5.83,-5.96,-5.32,2.27,2.27,2.26
164.88,8.03,5.81,8.03,5.81,-5.81,-5.94,-5.27,2.22,2.22,2.22
166.53,7.96,5.80,7.96,5.79,-5.79,-5.91,-5.21,2.17,2.17,2.16
168.19,7.89,5.77,7.89,5.77,-5.77,-5.89,-5.16,2.12,2.11,2.12
169.87,7.81,5.74,7.81,5.75,-5.75,-5.86,-5.11,2.06,2.06,2.07
171.57,7.74,5.74,7.74,5.73,-5.73,-5.83,-5.06,2.01,2.01,2.00
173.29,7.67,5.72,7.67,5.71,-5.71,-5.80,-5.02,1.96,1.96,1.95
175.02,7.60,5.69,7.60,5.69,-5.69,-5.77,-4.99,1.91,1.91,1.91
176.77,7.53,5.67,7.53,5.67,-5.67,-5.74,-4.95,1.86,1.86,1.86
178.54,7.45,5.64,7.45,5.64,-5.64,-5.71,-4.92,1.81,1.81,1.81
180.32,7.38,5.63,7.38,5.62,-5.62,-5.68,-4.90,1.76,1.76,1.75
182.13,7.30,5.59,7.30,5.59,-5.59,-5.65,-4.87,1.71,1.71,1.71
183.95,7.23,5.56,7.23,5.57,-5.57,-5.62,-4.86,1.66,1.66,1.67
185.79,7.16,5.55,7.15,5.54,-5.54,-5.58,-4.84,1.62,1.62,1.61
187.65,7.08,5.51,7.08,5.51,-5.51,-5.55,-4.83,1.57,1.57,1.57
189.52,7.00,5.48,7.00,5.48,-5.49,-5.51,-4.82,1.51,1.52,1.52
191.42,6.93,5.46,6.92,5.45,-5.46,-5.48,-4.82,1.47,1.47,1.47
193.33,6.85,5.43,6.85,5.43,-5.43,-5.44,-4.81,1.42,1.42,1.42
195.27,6.77,5.40,6.77,5.40,-5.40,-5.40,-4.82,1.37,1.38,1.37
197.22,6.70,5.38,6.69,5.37,-5.37,-5.36,-4.82,1.33,1.33,1.32
199.19,6.62,5.33,6.62,5.34,-5.33,-5.32,-4.83,1.29,1.29,1.29
201.18,6.54,5.30,6.54,5.30,-5.30,-5.28,-4.83,1.24,1.25,1.24
203.19,6.47,5.26,6.47,5.26,-5.26,-5.24,-4.84,1.21,1.21,1.21
205.23,6.39,5.22,6.39,5.22,-5.22,-5.20,-4.86,1.17,1.17,1.17
207.28,6.31,5.17,6.31,5.17,-5.18,-5.16,-4.87,1.13,1.13,1.14
209.35,6.23,5.13,6.23,5.13,-5.14,-5.12,-4.88,1.09,1.10,1.10
211.44,6.16,5.10,6.16,5.09,-5.10,-5.07,-4.90,1.06,1.06,1.06
213.56,6.08,5.06,6.08,5.05,-5.05,-5.03,-4.92,1.03,1.02,1.02
215.69,6.00,5.01,6.00,5.01,-5.01,-4.98,-4.93,0.99,0.99,0.99
217.85,5.92,4.96,5.92,4.97,-4.96,-4.94,-4.95,0.96,0.96,0.96
220.03,5.85,4.93,5.85,4.92,-4.92,-4.89,-4.96,0.93,0.93,0.92
222.23,5.77,4.87,5.77,4.87,-4.87,-4.84,-4.97,0.90,0.90,0.90
224.45,5.69,4.82,5.69,4.82,-4.82,-4.79,-4.98,0.87,0.87,0.87
226.70,5.60,4.76,5.61,4.76,-4.77,-4.74,-4.99,0.83,0.84,0.84
228.96,5.53,4.71,5.53,4.71,-4.71,-4.69,-5.00,0.82,0.82,0.82
231.25,5.46,4.66,5.45,4.65,-4.66,-4.64,-5.00,0.80,0.79,0.80
233.57,5.37,4.60,5.37,4.60,-4.60,-4.59,-5.00,0.77,0.77,0.77
235.90,5.29,4.55,5.29,4.55,-4.55,-4.54,-4.99,0.74,0.74,0.74
238.26,5.21,4.50,5.21,4.49,-4.49,-4.48,-4.98,0.72,0.72,0.71
240.64,5.13,4.42,5.13,4.43,-4.43,-4.43,-4.96,0.70,0.70,0.71
243.05,5.06,4.37,5.05,4.37,-4.37,-4.38,-4.94,0.69,0.68,0.69
245.48,4.98,4.32,4.98,4.31,-4.31,-4.32,-4.91,0.67,0.67,0.66
247.93,4.90,4.26,4.90,4.26,-4.25,-4.26,-4.88,0.65,0.65,0.64
250.41,4.83,4.19,4.82,4.19,-4.19,-4.21,-4.84,0.64,0.64,0.64
252.92,4.75,4.12,4.75,4.12,-4.13,-4.15,-4.80,0.62,0.62,0.63
255.45,4.67,4.06,4.67,4.06,-4.06,-4.09,-4.74,0.61,0.61,0.61
258.00,4.60,4.00,4.60,4.00,-4.00,-4.03,-4.69,0.60,0.60,0.60
260.58,4.53,3.94,4.53,3.94,-3.94,-3.97,-4.62,0.59,0.59,0.59
263.19,4.46,3.89,4.46,3.88,-3.88,-3.91,-4.56,0.58,0.58,0.57
265.82,4.38,3.82,4.38,3.82,-3.82,-3.85,-4.48,0.56,0.56,0.56
268.48,4.31,3.76,4.31,3.76,-3.76,-3.79,-4.40,0.55,0.54,0.55
271.16,4.24,3.71,4.24,3.70,-3.71,-3.73,-4.32,0.53,0.53,0.53
273.87,4.16,3.64,4.17,3.65,-3.65,-3.66,-4.23,0.51,0.52,0.52
276.61,4.10,3.60,4.10,3.60,-3.59,-3.60,-4.14,0.51,0.50,0.50
279.38,4.03,3.55,4.03,3.54,-3.54,-3.54,-4.04,0.49,0.49,0.48
282.17,3.96,3.49,3.96,3.48,-3.48,-3.47,-3.94,0.48,0.48,0.47
284.99,3.89,3.41,3.89,3.42,-3.43,-3.41,-3.84,0.46,0.47,0.48
287.84,3.83,3.36,3.83,3.36,-3.37,-3.34,-3.73,0.46,0.46,0.47
290.72,3.77,3.33,3.77,3.31,-3.31,-3.27,-3.63,0.46,0.45,0.44
293.63,3.70,3.25,3.70,3.26,-3.25,-3.21,-3.52,0.45,0.45,0.45
296.57,3.64,3.20,3.64,3.20,-3.19,-3.14,-3.41,0.45,0.44,0.44
299.53,3.57,3.14,3.57,3.13,-3.14,-3.07,-3.30,0.43,0.43,0.43
302.53,3.50,3.07,3.50,3.07,-3.08,-3.00,-3.19,0.42,0.43,0.43
305.55,3.44,3.02,3.44,3.01,-3.02,-2.93,-3.08,0.42,0.42,0.42
308.61,3.37,2.95,3.37,2.95,-2.96,-2.86,-2.96,0.41,0.41,0.42
311.69,3.31,2.90,3.31,2.90,-2.90,-2.79,-2.85,0.41,0.41,0.41
314.81,3.25,2.84,3.25,2.84,-2.83,-2.72,-2.74,0.42,0.41,0.41
317.96,3.18,2.78,3.18,2.78,-2.77,-2.65,-2.63,0.41,0.41,0.40
321.14,3.11,2.70,3.11,2.71,-2.70,-2.58,-2.52,0.40,0.41,0.41
324.35,3.04,2.65,3.04,2.63,-2.64,-2.51,-2.41,0.40,0.40,0.39
327.59,2.97,2.56,2.97,2.57,-2.57,-2.44,-2.30,0.40,0.40,0.41
330.87,2.89,2.49,2.90,2.50,-2.50,-2.36,-2.19,0.39,0.40,0.40
334.18,2.83,2.44,2.82,2.43,-2.43,-2.29,-2.08,0.40,0.40,0.39
337.52,2.75,2.35,2.75,2.36,-2.35,-2.22,-1.98,0.40,0.40,0.40
340.90,2.68,2.29,2.68,2.28,-2.28,-2.14,-1.87,0.40,0.40,0.39
344.30,2.60,2.20,2.60,2.20,-2.20,-2.07,-1.77,0.40,0.40,0.40
347.75,2.52,2.11,2.52,2.12,-2.12,-1.99,-1.66,0.40,0.40,0.41
351.23,2.45,2.06,2.44,2.04,-2.04,-1.92,-1.56,0.40,0.40,0.39
354.74,2.37,1.96,2.37,1.96,-1.96,-1.85,-1.46,0.41,0.40,0.41
358.28,2.28,1.88,2.29,1.89,-1.88,-1.77,-1.36,0.40,0.41,0.40
361.87,2.21,1.81,2.20,1.80,-1.80,-1.70,-1.26,0.41,0.40,0.40
365.49,2.12,1.72,2.12,1.72,-1.72,-1.62,-1.16,0.40,0.40,0.40
369.14,2.03,1.62,2.04,1.63,-1.63,-1.54,-1.07,0.40,0.40,0.41
372.83,1.96,1.55,1.95,1.54,-1.55,-1.47,-0.97,0.41,0.40,0.41
376.56,1.87,1.47,1.87,1.46,-1.46,-1.39,-0.88,0.40,0.40,0.40
380.33,1.78,1.38,1.78,1.38,-1.38,-1.32,-0.78,0.40,0.41,0.40
384.13,1.70,1.30,1.70,1.29,-1.29,-1.24,-0.69,0.41,0.40,0.40
387.97,1.61,1.20,1.61,1.20,-1.20,-1.16,-0.60,0.41,0.41,0.41
391.85,1.52,1.12,1.52,1.12,-1.12,-1.09,-0.51,0.40,0.41,0.40
395.77,1.43,1.03,1.43,1.03,-1.03,-1.01,-0.42,0.40,0.40,0.40
399.73,1.34,0.94,1.34,0.94,-0.94,-0.94,-0.33,0.40,0.40,0.40
403.72,1.25,0.84,1.25,0.84,-0.85,-0.86,-0.24,0.40,0.40,0.41
407.76,1.16,0.75,1.16,0.75,-0.76,-0.78,-0.16,0.40,0.41,0.41
411.84,1.08,0.67,1.08,0.66,-0.67,-0.71,-0.07,0.41,0.41,0.41
415.96,0.99,0.58,0.99,0.58,-0.57,-0.63,0.01,0.41,0.41,0.41
420.12,0.89,0.49,0.89,0.49,-0.48,-0.56,0.09,0.40,0.41,0.40
424.32,0.80,0.40,0.80,0.40,-0.40,-0.48,0.17,0.40,0.41,0.40
428.56,0.71,0.30,0.71,0.31,-0.31,-0.41,0.25,0.40,0.40,0.41
432.85,0.63,0.22,0.62,0.21,-0.22,-0.33,0.33,0.41,0.40,0.41
437.18,0.53,0.13,0.53,0.13,-0.13,-0.26,0.41,0.40,0.40,0.40
441.55,0.44,0.04,0.44,0.04,-0.04,-0.18,0.48,0.40,0.40,0.40
445.96,0.35,-0.04,0.35,-0.04,0.05,-0.11,0.55,0.40,0.40,0.39
450.42,0.26,-0.13,0.26,-0.13,0.14,-0.03,0.62,0.40,0.40,0.39
454.93,0.17,-0.22,0.17,-0.22,0.23,0.04,0.69,0.40,0.40,0.39
459.48,0.07,-0.32,0.07,-0.32,0.32,0.12,0.76,0.39,0.39,0.39
464.07,-0.02,-0.42,-0.02,-0.42,0.41,0.19,0.82,0.39,0.39,0.40
468.71,-0.11,-0.51,-0.11,-0.51,0.50,0.26,0.88,0.39,0.39,0.40
473.40,-0.19,-0.59,-0.20,-0.60,0.59,0.33,0.94,0.40,0.40,0.40
478.13,-0.29,-0.69,-0.28,-0.68,0.69,0.41,1.00,0.39,0.40,0.40
482.91,-0.37,-0.77,-0.37,-0.77,0.78,0.48,1.05,0.41,0.40,0.40
487.74,-0.46,-0.86,-0.46,-0.86,0.87,0.55,1.10,0.41,0.40,0.40
492.62,-0.56,-0.96,-0.55,-0.95,0.96,0.62,1.15,0.40,0.41,0.40
497.55,-0.64,-1.04,-0.65,-1.05,1.06,0.69,1.19,0.41,0.41,0.40
