frequency,raw,error,smoothed,error_smoothed,equalization,parametric_eq,fixed_band_eq,equalized_raw,equalized_smoothed,target
20.00,17.24,12.04,17.23,12.01,-12.01,-11.99,-4.38,5.23,5.22,5.20
20.20,17.17,11.93,17.17,11.91,-11.91,-11.92,-4.50,5.26,5.25,5.24
20.40,17.10,11.82,17.10,11.82,-11.82,-11.84,-4.62,5.28,5.28,5.28
20.61,17.04,11.73,17.04,11.73,-11.73,-11.77,-4.74,5.31,5.31,5.31
20.81,16.98,11.63,16.98,11.64,-11.64,-11.69,-4.87,5.34,5.34,5.35
21.02,16.92,11.53,16.92,11.55,-11.55,-11.62,-5.00,5.37,5.36,5.39
21.23,16.85,11.44,16.86,11.47,-11.47,-11.55,-5.14,5.38,5.39,5.41
21.44,16.79,11.36,16.79,11.39,-11.39,-11.47,-5.27,5.40,5.41,5.43
21.66,16.73,11.28,16.74,11.31,-11.31,-11.40,-5.42,5.43,5.43,5.45
21.87,16.67,11.21,16.68,11.23,-11.23,-11.32,-5.56,5.44,5.45,5.46
22.09,16.62,11.14,16.62,11.15,-11.15,-11.25,-5.71,5.47,5.47,5.48
22.31,16.56,11.07,16.56,11.08,-11.08,-11.17,-5.87,5.48,5.48,5.48
22.54,16.50,11.01,16.51,11.01,-11.01,-11.09,-6.03,5.49,5.49,5.49
22.76,16.44,10.94,16.45,10.95,-10.95,-11.02,-6.19,5.49,5.50,5.50
22.99,16.39,10.89,16.40,10.88,-10.88,-10.94,-6.36,5.51,5.51,5.50
23.22,16.35,10.84,16.34,10.82,-10.82,-10.87,-6.53,5.53,5.52,5.51
23.45,16.29,10.77,16.29,10.76,-10.76,-10.79,-6.70,5.53,5.53,5.52
23.69,16.24,10.71,16.23,10.69,-10.69,-10.71,-6.88,5.55,5.54,5.53
23.92,16.18,10.64,16.18,10.63,-10.63,-10.64,-7.07,5.55,5.55,5.54
24.16,16.13,10.57,16.13,10.57,-10.57,-10.56,-7.25,5.56,5.56,5.56
24.40,16.07,10.49,16.07,10.51,-10.51,-10.48,-7.45,5.56,5.57,5.58
24.65,16.02,10.44,16.02,10.44,-10.44,-10.41,-7.64,5.58,5.57,5.58
24.89,15.96,10.37,15.96,10.38,-10.38,-10.33,-7.84,5.58,5.58,5.59
25.14,15.90,10.30,15.91,10.31,-10.31,-10.25,-8.04,5.59,5.59,5.59
25.39,15.84,10.24,15.85,10.24,-10.24,-10.18,-8.25,5.59,5.61,5.60
25.65,15.79,10.17,15.79,10.18,-10.18,-10.10,-8.46,5.62,5.62,5.62
25.91,15.74,10.12,15.73,10.11,-10.11,-10.02,-8.67,5.64,5.63,5.62
26.16,15.68,10.05,15.67,10.04,-10.04,-9.94,-8.88,5.64,5.64,5.63
26.43,15.61,9.97,15.61,9.97,-9.97,-9.87,-9.10,5.65,5.64,5.64
26.69,15.55,9.90,15.55,9.89,-9.89,-9.79,-9.31,5.66,5.65,5.65
26.96,15.48,9.81,15.48,9.82,-9.82,-9.71,-9.52,5.66,5.66,5.67
27.23,15.42,9.75,15.42,9.75,-9.75,-9.63,-9.74,5.67,5.67,5.67
27.50,15.35,9.67,15.35,9.67,-9.67,-9.55,-9.94,5.68,5.68,5.68
27.77,15.28,9.60,15.28,9.59,-9.59,-9.48,-10.15,5.69,5.69,5.68
28.05,15.21,9.51,15.21,9.51,-9.51,-9.40,-10.35,5.70,5.69,5.70
28.33,15.13,9.43,15.13,9.43,-9.43,-9.32,-10.54,5.70,5.70,5.70
28.62,15.06,9.35,15.06,9.35,-9.35,-9.24,-10.72,5.71,5.71,5.71
28.90,14.99,9.27,14.98,9.26,-9.26,-9.16,-10.89,5.73,5.72,5.72
29.19,14.91,9.20,14.91,9.18,-9.18,-9.08,-11.04,5.73,5.72,5.71
29.48,14.83,9.09,14.83,9.10,-9.10,-9.00,-11.18,5.73,5.73,5.74
29.78,14.75,9.01,14.76,9.02,-9.02,-8.92,-11.30,5.73,5.74,5.74
30.08,14.67,8.92,14.68,8.94,-8.94,-8.85,-11.41,5.73,5.74,5.75
30.38,14.60,8.86,14.61,8.86,-8.86,-8.77,-11.49,5.74,5.75,5.75
30.68,14.53,8.77,14.54,8.78,-8.78,-8.69,-11.55,5.75,5.76,5.76
30.99,14.46,8.70,14.46,8.70,-8.70,-8.61,-11.59,5.76,5.76,5.76
31.30,14.38,8.61,14.39,8.62,-8.62,-8.53,-11.61,5.76,5.77,5.77
31.61,14.31,8.53,14.31,8.54,-8.54,-8.45,-11.60,5.77,5.78,5.78
31.93,14.25,8.47,14.24,8.46,-8.46,-8.37,-11.57,5.80,5.78,5.78
32.24,14.17,8.39,14.17,8.37,-8.37,-8.29,-11.51,5.79,5.79,5.78
32.57,14.10,8.30,14.09,8.29,-8.29,-8.21,-11.44,5.81,5.80,5.80
32.89,14.02,8.21,14.02,8.21,-8.21,-8.13,-11.34,5.81,5.80,5.81
33.22,13.95,8.14,13.94,8.13,-8.13,-8.06,-11.23,5.82,5.81,5.81
33.55,13.87,8.05,13.86,8.04,-8.04,-7.98,-11.10,5.83,5.82,5.82
33.89,13.79,7.96,13.78,7.96,-7.96,-7.90,-10.95,5.83,5.82,5.83
34.23,13.70,7.87,13.70,7.87,-7.87,-7.82,-10.79,5.83,5.83,5.83
34.57,13.62,7.78,13.62,7.79,-7.79,-7.74,-10.63,5.83,5.83,5.84
34.92,13.54,7.71,13.54,7.71,-7.71,-7.66,-10.45,5.83,5.84,5.84
35.27,13.46,7.62,13.47,7.62,-7.62,-7.59,-10.27,5.84,5.84,5.84
35.62,13.38,7.53,13.39,7.54,-7.54,-7.51,-10.08,5.84,5.85,5.85
35.97,13.30,7.46,13.31,7.46,-7.46,-7.43,-9.89,5.84,5.85,5.84
36.33,13.23,7.38,13.24,7.39,-7.39,-7.36,-9.70,5.84,5.85,5.85
36.70,13.16,7.32,13.16,7.31,-7.31,-7.28,-9.50,5.85,5.85,5.84
37.06,13.08,7.23,13.09,7.24,-7.24,-7.20,-9.31,5.84,5.85,5.85
37.43,13.01,7.15,13.01,7.17,-7.17,-7.13,-9.12,5.84,5.85,5.86
37.81,12.95,7.10,12.94,7.10,-7.10,-7.05,-8.92,5.85,5.84,5.85
38.19,12.88,7.04,12.87,7.03,-7.03,-6.98,-8.73,5.85,5.84,5.85
38.57,12.80,6.96,12.80,6.96,-6.96,-6.90,-8.55,5.84,5.84,5.84
38.95,12.73,6.89,12.73,6.89,-6.89,-6.83,-8.36,5.84,5.84,5.83
39.34,12.66,6.83,12.66,6.82,-6.82,-6.75,-8.18,5.84,5.83,5.83
39.74,12.59,6.77,12.58,6.75,-6.75,-6.68,-8.01,5.84,5.83,5.82
40.14,12.51,6.68,12.51,6.68,-6.68,-6.61,-7.84,5.83,5.83,5.83
40.54,12.43,6.61,12.43,6.61,-6.61,-6.53,-7.67,5.82,5.82,5.82
40.94,12.36,6.55,12.36,6.54,-6.54,-6.46,-7.50,5.82,5.82,5.81
41.35,12.29,6.48,12.28,6.47,-6.47,-6.39,-7.35,5.82,5.81,5.81
41.76,12.21,6.40,12.20,6.39,-6.39,-6.32,-7.19,5.82,5.81,5.81
42.18,12.12,6.31,12.12,6.32,-6.32,-6.25,-7.04,5.80,5.80,5.81
42.60,12.04,6.24,12.05,6.25,-6.25,-6.18,-6.90,5.79,5.80,5.80
43.03,11.97,6.16,11.97,6.17,-6.17,-6.11,-6.76,5.80,5.79,5.81
43.46,11.89,6.09,11.89,6.10,-6.10,-6.04,-6.62,5.79,5.79,5.80
43.90,11.82,6.04,11.82,6.03,-6.03,-5.98,-6.49,5.79,5.79,5.78
44.33,11.73,5.95,11.74,5.96,-5.96,-5.91,-6.37,5.77,5.78,5.78
44.78,11.66,5.89,11.67,5.89,-5.89,-5.84,-6.25,5.77,5.78,5.77
45.23,11.59,5.83,11.60,5.82,-5.82,-5.78,-6.13,5.77,5.77,5.76
45.68,11.52,5.76,11.53,5.76,-5.76,-5.71,-6.02,5.76,5.77,5.76
46.13,11.45,5.70,11.45,5.69,-5.69,-5.65,-5.91,5.76,5.76,5.75
46.60,11.39,5.63,11.38,5.63,-5.63,-5.59,-5.81,5.76,5.75,5.76
47.06,11.33,5.58,11.32,5.57,-5.57,-5.52,-5.71,5.76,5.74,5.75
47.53,11.25,5.51,11.25,5.51,-5.51,-5.46,-5.61,5.74,5.73,5.74
48.01,11.18,5.44,11.18,5.45,-5.45,-5.40,-5.52,5.73,5.72,5.74
48.49,11.10,5.38,11.11,5.39,-5.39,-5.34,-5.43,5.71,5.71,5.72
48.97,11.03,5.33,11.04,5.34,-5.34,-5.28,-5.35,5.69,5.70,5.70
49.46,10.97,5.28,10.97,5.28,-5.28,-5.22,-5.27,5.69,5.69,5.69
49.96,10.90,5.24,10.90,5.22,-5.22,-5.17,-5.19,5.68,5.67,5.66
50.46,10.82,5.16,10.82,5.17,-5.17,-5.11,-5.12,5.65,5.66,5.66
50.96,10.75,5.11,10.75,5.11,-5.11,-5.05,-5.05,5.64,5.64,5.64
51.47,10.68,5.07,10.67,5.05,-5.05,-5.00,-4.98,5.63,5.62,5.61
51.99,10.60,5.01,10.59,5.00,-5.00,-4.94,-4.92,5.60,5.60,5.59
52.51,10.52,4.94,10.52,4.94,-4.94,-4.89,-4.86,5.58,5.58,5.58
53.03,10.44,4.88,10.44,4.88,-4.88,-4.84,-4.80,5.56,5.56,5.56
53.56,10.37,4.83,10.36,4.83,-4.83,-4.79,-4.74,5.54,5.53,5.54
54.10,10.29,4.78,10.28,4.77,-4.77,-4.74,-4.69,5.52,5.51,5.51
54.64,10.20,4.71,10.20,4.71,-4.71,-4.69,-4.63,5.49,5.49,5.49
55.18,10.11,4.65,10.12,4.66,-4.66,-4.64,-4.58,5.45,5.47,5.46
55.74,10.03,4.60,10.04,4.60,-4.60,-4.59,-4.54,5.43,5.44,5.43
56.29,9.96,4.54,9.96,4.55,-4.55,-4.54,-4.49,5.41,5.42,5.42
56.86,9.89,4.50,9.89,4.49,-4.49,-4.50,-4.44,5.40,5.39,5.39
57.42,9.81,4.45,9.81,4.44,-4.44,-4.45,-4.40,5.37,5.37,5.36
58.00,9.73,4.39,9.73,4.39,-4.39,-4.41,-4.36,5.34,5.34,5.34
58.58,9.66,4.35,9.65,4.34,-4.34,-4.37,-4.31,5.32,5.31,5.31
59.16,9.58,4.29,9.58,4.30,-4.30,-4.32,-4.27,5.28,5.28,5.29
59.76,9.50,4.24,9.50,4.25,-4.25,-4.28,-4.23,5.25,5.25,5.26
60.35,9.42,4.19,9.43,4.22,-4.22,-4.24,-4.19,5.20,5.21,5.23
60.96,9.35,4.16,9.36,4.18,-4.18,-4.20,-4.15,5.17,5.18,5.19
61.57,9.28,4.14,9.29,4.15,-4.15,-4.17,-4.11,5.14,5.14,5.14
62.18,9.21,4.12,9.22,4.11,-4.11,-4.13,-4.07,5.10,5.10,5.09
62.80,9.14,4.08,9.14,4.08,-4.08,-4.09,-4.03,5.06,5.06,5.06
63.43,9.07,4.06,9.07,4.05,-4.05,-4.06,-4.00,5.02,5.02,5.01
64.07,9.01,4.04,9.01,4.03,-4.03,-4.02,-3.96,4.98,4.98,4.97
64.71,8.94,4.01,8.94,4.00,-4.00,-3.99,-3.92,4.94,4.94,4.93
65.35,8.87,3.98,8.87,3.97,-3.97,-3.96,-3.88,4.90,4.89,4.89
66.01,8.81,3.97,8.80,3.95,-3.95,-3.93,-3.84,4.86,4.85,4.85
66.67,8.74,3.93,8.73,3.92,-3.92,-3.90,-3.81,4.82,4.80,4.81
67.33,8.66,3.89,8.66,3.90,-3.90,-3.87,-3.77,4.76,4.76,4.77
68.01,8.59,3.87,8.59,3.87,-3.87,-3.84,-3.73,4.72,4.71,4.72
68.69,8.52,3.85,8.52,3.85,-3.85,-3.81,-3.70,4.67,4.67,4.67
69.37,8.45,3.83,8.45,3.82,-3.82,-3.79,-3.66,4.63,4.62,4.62
70.07,8.38,3.81,8.38,3.80,-3.80,-3.76,-3.63,4.58,4.58,4.57
70.77,8.30,3.77,8.31,3.78,-3.78,-3.74,-3.60,4.52,4.53,4.53
71.48,8.23,3.74,8.24,3.75,-3.75,-3.72,-3.56,4.48,4.49,4.49
72.19,8.17,3.73,8.17,3.73,-3.73,-3.69,-3.53,4.44,4.44,4.44
72.91,8.11,3.71,8.11,3.71,-3.71,-3.67,-3.50,4.40,4.40,4.40
73.64,8.05,3.70,8.05,3.69,-3.69,-3.65,-3.47,4.36,4.36,4.35
74.38,7.99,3.67,7.99,3.67,-3.67,-3.63,-3.45,4.32,4.31,4.32
75.12,7.93,3.66,7.93,3.66,-3.66,-3.61,-3.42,4.27,4.27,4.27
75.87,7.87,3.64,7.88,3.64,-3.64,-3.60,-3.40,4.23,4.24,4.23
76.63,7.82,3.62,7.83,3.63,-3.63,-3.58,-3.37,4.19,4.20,4.20
77.40,7.76,3.60,7.78,3.62,-3.62,-3.57,-3.35,4.14,4.16,4.16
78.17,7.71,3.59,7.73,3.61,-3.61,-3.55,-3.34,4.10,4.12,4.12
78.95,7.68,3.59,7.69,3.60,-3.60,-3.54,-3.32,4.08,4.09,4.09
79.74,7.65,3.60,7.64,3.59,-3.59,-3.53,-3.30,4.06,4.05,4.05
80.54,7.61,3.59,7.60,3.58,-3.58,-3.51,-3.29,4.03,4.02,4.02
81.35,7.57,3.58,7.55,3.57,-3.57,-3.50,-3.28,4.00,3.99,3.99
82.16,7.53,3.58,7.51,3.56,-3.56,-3.49,-3.27,3.97,3.95,3.95
82.98,7.49,3.56,7.48,3.55,-3.55,-3.48,-3.27,3.94,3.92,3.93
83.81,7.45,3.56,7.44,3.55,-3.55,-3.48,-3.26,3.90,3.89,3.89
84.65,7.41,3.56,7.41,3.54,-3.54,-3.47,-3.26,3.87,3.86,3.85
85.50,7.36,3.52,7.37,3.54,-3.54,-3.46,-3.26,3.82,3.83,3.84
86.35,7.32,3.51,7.34,3.53,-3.53,-3.46,-3.26,3.79,3.81,3.81
87.22,7.28,3.50,7.31,3.53,-3.53,-3.45,-3.27,3.75,3.78,3.78
88.09,7.25,3.50,7.27,3.52,-3.52,-3.45,-3.28,3.73,3.75,3.75
88.97,7.24,3.51,7.24,3.51,-3.51,-3.45,-3.29,3.73,3.72,3.73
89.86,7.22,3.52,7.21,3.51,-3.51,-3.45,-3.30,3.71,3.70,3.70
90.76,7.20,3.54,7.18,3.51,-3.51,-3.45,-3.31,3.69,3.67,3.66
91.66,7.17,3.53,7.15,3.51,-3.51,-3.44,-3.33,3.66,3.64,3.64
92.58,7.13,3.53,7.12,3.51,-3.51,-3.45,-3.35,3.62,3.61,3.60
93.51,7.10,3.51,7.10,3.52,-3.52,-3.45,-3.37,3.58,3.58,3.59
94.44,7.06,3.51,7.07,3.52,-3.52,-3.45,-3.39,3.54,3.55,3.55
95.39,7.03,3.50,7.05,3.53,-3.53,-3.45,-3.42,3.50,3.52,3.53
96.34,7.00,3.52,7.02,3.54,-3.54,-3.46,-3.44,3.46,3.48,3.48
97.30,6.99,3.54,7.00,3.54,-3.54,-3.46,-3.47,3.45,3.45,3.45
98.28,6.97,3.56,6.97,3.55,-3.55,-3.46,-3.50,3.42,3.42,3.41
99.26,6.95,3.58,6.94,3.56,-3.56,-3.47,-3.53,3.39,3.38,3.37
100.25,6.92,3.58,6.91,3.57,-3.57,-3.48,-3.57,3.35,3.34,3.34
101.25,6.89,3.59,6.88,3.58,-3.58,-3.48,-3.60,3.31,3.30,3.30
102.27,6.85,3.60,6.85,3.59,-3.59,-3.49,-3.64,3.26,3.25,3.25
103.29,6.81,3.61,6.82,3.61,-3.61,-3.50,-3.67,3.20,3.21,3.20
104.32,6.78,3.61,6.78,3.62,-3.62,-3.51,-3.71,3.16,3.16,3.17
105.37,6.75,3.63,6.75,3.64,-3.64,-3.52,-3.75,3.11,3.11,3.12
106.42,6.71,3.65,6.71,3.65,-3.65,-3.53,-3.79,3.06,3.06,3.06
107.48,6.66,3.65,6.67,3.67,-3.67,-3.54,-3.82,2.99,3.00,3.01
108.56,6.62,3.67,6.63,3.68,-3.68,-3.55,-3.86,2.94,2.95,2.95
109.64,6.58,3.69,6.58,3.70,-3.70,-3.56,-3.90,2.88,2.89,2.89
110.74,6.55,3.72,6.54,3.71,-3.71,-3.57,-3.93,2.84,2.82,2.83
111.85,6.50,3.74,6.49,3.73,-3.73,-3.58,-3.96,2.77,2.76,2.76
112.97,6.45,3.76,6.44,3.75,-3.75,-3.59,-4.00,2.70,2.69,2.69
114.10,6.39,3.76,6.39,3.77,-3.77,-3.60,-4.03,2.62,2.62,2.63
115.24,6.34,3.79,6.34,3.79,-3.79,-3.61,-4.05,2.55,2.56,2.55
116.39,6.28,3.80,6.29,3.80,-3.80,-3.63,-4.08,2.48,2.49,2.48
117.55,6.23,3.82,6.23,3.81,-3.81,-3.64,-4.10,2.42,2.42,2.41
118.73,6.16,3.82,6.18,3.82,-3.82,-3.65,-4.12,2.34,2.35,2.34
119.92,6.11,3.83,6.12,3.83,-3.83,-3.66,-4.13,2.28,2.28,2.28
121.12,6.06,3.85,6.06,3.84,-3.84,-3.68,-4.14,2.22,2.22,2.21
122.33,6.01,3.86,5.99,3.84,-3.84,-3.69,-4.15,2.17,2.15,2.15
123.55,5.94,3.85,5.93,3.84,-3.84,-3.70,-4.15,2.10,2.09,2.09
124.79,5.86,3.83,5.86,3.84,-3.84,-3.71,-4.15,2.02,2.03,2.03
126.03,5.79,3.82,5.80,3.83,-3.83,-3.73,-4.15,1.96,1.97,1.97
127.29,5.73,3.82,5.73,3.82,-3.82,-3.74,-4.14,1.91,1.91,1.91
128.57,5.66,3.82,5.66,3.81,-3.81,-3.75,-4.13,1.85,1.85,1.84
129.85,5.59,3.80,5.58,3.79,-3.79,-3.76,-4.11,1.80,1.79,1.79
131.15,5.51,3.78,5.51,3.77,-3.77,-3.77,-4.09,1.74,1.74,1.73
132.46,5.44,3.76,5.44,3.75,-3.75,-3.78,-4.07,1.69,1.69,1.68
133.79,5.36,3.72,5.37,3.73,-3.73,-3.79,-4.04,1.63,1.63,1.64
135.12,5.29,3.71,5.29,3.71,-3.71,-3.80,-4.01,1.58,1.58,1.58
136.48,5.22,3.68,5.22,3.69,-3.69,-3.81,-3.98,1.53,1.53,1.54
137.84,5.15,3.67,5.15,3.66,-3.66,-3.82,-3.94,1.49,1.49,1.48
139.22,5.07,3.64,5.08,3.64,-3.64,-3.82,-3.91,1.43,1.44,1.43
140.61,5.00,3.62,5.01,3.62,-3.62,-3.83,-3.87,1.38,1.39,1.38
142.02,4.94,3.59,4.94,3.59,-3.59,-3.84,-3.83,1.35,1.35,1.35
143.44,4.88,3.57,4.87,3.57,-3.57,-3.84,-3.79,1.31,1.30,1.31
144.87,4.81,3.55,4.81,3.55,-3.55,-3.85,-3.74,1.26,1.25,1.26
146.32,4.74,3.53,4.74,3.53,-3.53,-3.85,-3.70,1.21,1.21,1.21
147.78,4.67,3.50,4.68,3.52,-3.52,-3.85,-3.66,1.15,1.16,1.17
149.26,4.61,3.48,4.62,3.50,-3.50,-3.85,-3.62,1.11,1.11,1.13
150.75,4.57,3.51,4.56,3.49,-3.49,-3.85,-3.57,1.08,1.06,1.06
152.26,4.50,3.48,4.50,3.48,-3.48,-3.85,-3.53,1.02,1.02,1.02
153.78,4.44,3.47,4.44,3.48,-3.48,-3.85,-3.49,0.96,0.97,0.97
155.32,4.38,3.47,4.39,3.47,-3.47,-3.85,-3.45,0.91,0.92,0.91
156.88,4.32,3.45,4.33,3.47,-3.47,-3.85,-3.41,0.85,0.87,0.87
158.44,4.28,3.46,4.28,3.47,-3.47,-3.84,-3.37,0.81,0.81,0.82
160.03,4.23,3.47,4.23,3.47,-3.47,-3.83,-3.34,0.76,0.76,0.76
161.63,4.18,3.48,4.18,3.47,-3.47,-3.83,-3.30,0.71,0.71,0.70
163.24,4.14,3.49,4.13,3.47,-3.47,-3.82,-3.27,0.67,0.66,0.65
164.88,4.09,3.48,4.08,3.47,-3.47,-3.81,-3.24,0.62,0.60,0.61
166.53,4.03,3.48,4.03,3.48,-3.48,-3.80,-3.21,0.55,0.55,0.55
168.19,3.97,3.48,3.98,3.48,-3.48,-3.79,-3.19,0.49,0.49,0.49
169.87,3.92,3.48,3.93,3.49,-3.49,-3.77,-3.16,0.43,0.44,0.44
171.57,3.87,3.48,3.88,3.50,-3.50,-3.76,-3.14,0.37,0.38,0.39
173.29,3.84,3.51,3.84,3.51,-3.51,-3.74,-3.12,0.33,0.32,0.33
175.02,3.79,3.52,3.79,3.52,-3.52,-3.73,-3.11,0.27,0.26,0.27
176.77,3.74,3.54,3.74,3.53,-3.53,-3.71,-3.09,0.21,0.21,0.20
178.54,3.69,3.55,3.69,3.54,-3.54,-3.69,-3.08,0.15,0.15,0.15
180.32,3.64,3.55,3.64,3.56,-3.56,-3.67,-3.07,0.08,0.09,0.09
182.13,3.59,3.56,3.60,3.57,-3.57,-3.65,-3.06,0.02,0.02,0.03
183.95,3.55,3.59,3.55,3.59,-3.59,-3.63,-3.06,-0.04,-0.04,-0.04
185.79,3.51,3.60,3.50,3.60,-3.60,-3.60,-3.05,-0.09,-0.10,-0.09
187.65,3.46,3.63,3.46,3.62,-3.62,-3.58,-3.05,-0.16,-0.16,-0.17
189.52,3.41,3.63,3.41,3.63,-3.63,-3.55,-3.05,-0.22,-0.22,-0.22
191.42,3.35,3.63,3.36,3.63,-3.63,-3.53,-3.06,-0.28,-0.28,-0.28
193.33,3.30,3.63,3.30,3.64,-3.64,-3.50,-3.06,-0.34,-0.33,-0.33
195.27,3.26,3.64,3.25,3.64,-3.64,-3.47,-3.07,-0.38,-0.39,-0.38
197.22,3.21,3.66,3.20,3.65,-3.65,-3.44,-3.08,-0.44,-0.44,-0.45
199.19,3.15,3.66,3.15,3.65,-3.65,-3.41,-3.09,-0.50,-0.50,-0.51
201.18,3.10,3.66,3.09,3.65,-3.65,-3.38,-3.10,-0.55,-0.55,-0.56
203.19,3.04,3.64,3.04,3.64,-3.64,-3.35,-3.11,-0.60,-0.60,-0.60
205.23,2.98,3.64,2.98,3.63,-3.63,-3.32,-3.12,-0.65,-0.65,-0.66
207.28,2.92,3.60,2.92,3.62,-3.62,-3.29,-3.14,-0.70,-0.70,-0.68
209.35,2.85,3.59,2.86,3.61,-3.61,-3.25,-3.15,-0.76,-0.74,-0.74
211.44,2.80,3.60,2.80,3.59,-3.59,-3.22,-3.17,-0.79,-0.79,-0.80
213.56,2.75,3.59,2.74,3.57,-3.57,-3.18,-3.18,-0.82,-0.83,-0.84
215.69,2.69,3.55,2.68,3.55,-3.55,-3.15,-3.20,-0.86,-0.87,-0.86
217.85,2.62,3.53,2.61,3.53,-3.53,-3.11,-3.21,-0.91,-0.91,-0.91
220.03,2.55,3.50,2.55,3.50,-3.50,-3.08,-3.23,-0.95,-0.95,-0.95
222.23,2.48,3.47,2.49,3.47,-3.47,-3.04,-3.24,-0.99,-0.98,-0.99
224.45,2.42,3.43,2.42,3.43,-3.43,-3.01,-3.25,-1.01,-1.01,-1.01
226.70,2.36,3.39,2.36,3.40,-3.40,-2.97,-3.26,-1.04,-1.04,-1.03
228.96,2.31,3.38,2.30,3.36,-3.36,-2.93,-3.27,-1.05,-1.06,-1.07
231.25,2.24,3.32,2.24,3.32,-3.32,-2.90,-3.28,-1.08,-1.09,-1.08
233.57,2.18,3.28,2.18,3.28,-3.28,-2.86,-3.28,-1.10,-1.10,-1.10
235.90,2.11,3.23,2.12,3.24,-3.24,-2.82,-3.28,-1.13,-1.12,-1.12
238.26,2.06,3.20,2.06,3.19,-3.19,-2.78,-3.28,-1.13,-1.13,-1.14
240.64,2.00,3.15,2.01,3.15,-3.15,-2.75,-3.27,-1.15,-1.14,-1.15
243.05,1.94,3.09,1.95,3.10,-3.10,-2.71,-3.26,-1.16,-1.15,-1.15
245.48,1.89,3.05,1.90,3.06,-3.06,-2.67,-3.25,-1.17,-1.15,-1.16
247.93,1.85,3.01,1.86,3.01,-3.01,-2.63,-3.23,-1.16,-1.16,-1.16
250.41,1.81,2.98,1.81,2.97,-2.97,-2.60,-3.21,-1.16,-1.16,-1.17
252.92,1.77,2.93,1.76,2.92,-2.92,-2.56,-3.19,-1.15,-1.16,-1.16
255.45,1.72,2.86,1.71,2.87,-2.87,-2.52,-3.16,-1.15,-1.15,-1.14
258.00,1.67,2.81,1.67,2.82,-2.82,-2.48,-3.13,-1.15,-1.14,-1.14
260.58,1.62,2.76,1.63,2.77,-2.77,-2.45,-3.09,-1.15,-1.14,-1.14
263.19,1.59,2.72,1.59,2.72,-2.72,-2.41,-3.06,-1.13,-1.13,-1.13
265.82,1.56,2.69,1.55,2.67,-2.67,-2.37,-3.01,-1.11,-1.12,-1.13
268.48,1.52,2.62,1.51,2.62,-2.62,-2.34,-2.97,-1.10,-1.11,-1.10
271.16,1.47,2.56,1.47,2.56,-2.56,-2.30,-2.92,-1.09,-1.10,-1.09
273.87,1.42,2.51,1.43,2.51,-2.51,-2.26,-2.87,-1.09,-1.08,-1.09
276.61,1.37,2.43,1.38,2.45,-2.45,-2.23,-2.81,-1.08,-1.07,-1.06
279.38,1.33,2.39,1.34,2.40,-2.40,-2.19,-2.76,-1.07,-1.06,-1.06
282.17,1.31,2.36,1.30,2.34,-2.34,-2.16,-2.70,-1.03,-1.05,-1.05
284.99,1.27,2.30,1.25,2.29,-2.29,-2.12,-2.64,-1.02,-1.04,-1.03
287.84,1.22,2.25,1.21,2.23,-2.23,-2.09,-2.58,-1.01,-1.02,-1.03
290.72,1.16,2.17,1.16,2.17,-2.17,-2.05,-2.51,-1.01,-1.01,-1.01
293.63,1.10,2.10,1.11,2.11,-2.11,-2.02,-2.45,-1.01,-1.00,-1.00
296.57,1.05,2.03,1.06,2.05,-2.05,-1.98,-2.38,-1.00,-0.99,-0.98
299.53,1.01,1.99,1.01,1.99,-1.99,-1.95,-2.32,-0.98,-0.97,-0.98
302.53,0.97,1.94,0.97,1.93,-1.93,-1.92,-2.25,-0.96,-0.96,-0.97
305.55,0.93,1.88,0.92,1.87,-1.87,-1.89,-2.18,-0.94,-0.95,-0.95
308.61,0.88,1.82,0.87,1.81,-1.81,-1.85,-2.12,-0.93,-0.94,-0.94
311.69,0.82,1.76,0.82,1.75,-1.75,-1.82,-2.05,-0.93,-0.93,-0.94
314.81,0.76,1.67,0.76,1.69,-1.69,-1.79,-1.99,-0.93,-0.92,-0.91
317.96,0.70,1.61,0.71,1.63,-1.63,-1.76,-1.92,-0.93,-0.92,-0.91
321.14,0.65,1.56,0.66,1.57,-1.57,-1.73,-1.85,-0.92,-0.91,-0.91
324.35,0.61,1.52,0.61,1.51,-1.51,-1.70,-1.79,-0.90,-0.90,-0.91
327.59,0.57,1.46,0.56,1.46,-1.46,-1.67,-1.73,-0.89,-0.90,-0.89
330.87,0.52,1.42,0.51,1.41,-1.41,-1.64,-1.66,-0.89,-0.90,-0.90
334.18,0.47,1.37,0.46,1.36,-1.36,-1.61,-1.60,-0.89,-0.89,-0.90
337.52,0.41,1.30,0.42,1.31,-1.31,-1.58,-1.54,-0.90,-0.89,-0.89
340.90,0.36,1.25,0.37,1.26,-1.26,-1.55,-1.48,-0.90,-0.89,-0.89
344.30,0.31,1.20,0.33,1.22,-1.22,-1.53,-1.42,-0.91,-0.89,-0.89
347.75,0.27,1.16,0.28,1.18,-1.18,-1.50,-1.36,-0.91,-0.89,-0.89
351.23,0.24,1.13,0.24,1.14,-1.14,-1.47,-1.30,-0.90,-0.90,-0.89
354.74,0.20,1.10,0.20,1.10,-1.10,-1.45,-1.24,-0.90,-0.90,-0.90
358.28,0.16,1.07,0.15,1.06,-1.06,-1.42,-1.18,-0.90,-0.91,-0.91
361.87,0.12,1.03,0.11,1.02,-1.02,-1.39,-1.13,-0.90,-0.91,-0.91
365.49,0.07,0.98,0.06,0.98,-0.98,-1.37,-1.07,-0.91,-0.92,-0.91
369.14,0.03,0.96,0.02,0.95,-0.95,-1.34,-1.02,-0.92,-0.92,-0.93
372.83,-0.00,0.93,-0.02,0.91,-0.91,-1.32,-0.97,-0.91,-0.93,-0.93
376.56,-0.05,0.89,-0.06,0.88,-0.88,-1.30,-0.91,-0.93,-0.94,-0.94
380.33,-0.09,0.85,-0.09,0.86,-0.86,-1.27,-0.86,-0.95,-0.95,-0.94
384.13,-0.14,0.81,-0.13,0.83,-0.83,-1.25,-0.81,-0.97,-0.95,-0.95
387.97,-0.18,0.79,-0.16,0.80,-0.80,-1.23,-0.76,-0.98,-0.96,-0.97
391.85,-0.21,0.77,-0.19,0.78,-0.78,-1.20,-0.72,-0.99,-0.97,-0.98
395.77,-0.24,0.73,-0.22,0.76,-0.76,-1.18,-0.67,-1.00,-0.98,-0.97
399.73,-0.26,0.72,-0.25,0.74,-0.74,-1.16,-0.62,-1.00,-0.98,-0.98
403.72,-0.27,0.72,-0.27,0.72,-0.72,-1.14,-0.58,-0.99,-0.99,-0.99
407.76,-0.29,0.71,-0.29,0.71,-0.71,-1.12,-0.53,-1.00,-1.00,-1.00
411.84,-0.30,0.70,-0.31,0.69,-0.69,-1.10,-0.49,-0.99,-1.00,-1.00
415.96,-0.32,0.69,-0.33,0.68,-0.68,-1.08,-0.45,-1.00,-1.01,-1.01
420.12,-0.34,0.67,-0.35,0.66,-0.66,-1.06,-0.41,-1.00,-1.01,-1.01
424.32,-0.36,0.65,-0.36,0.65,-0.65,-1.04,-0.37,-1.01,-1.01,-1.01
428.56,-0.38,0.64,-0.38,0.63,-0.63,-1.02,-0.33,-1.01,-1.02,-1.02
432.85,-0.40,0.62,-0.40,0.61,-0.61,-1.00,-0.29,-1.01,-1.02,-1.02
437.18,-0.41,0.61,-0.43,0.59,-0.59,-0.98,-0.26,-1.00,-1.02,-1.02
441.55,-0.44,0.57,-0.45,0.57,-0.57,-0.96,-0.22,-1.01,-1.02,-1.01
445.96,-0.47,0.54,-0.48,0.54,-0.54,-0.94,-0.19,-1.01,-1.02,-1.01
450.42,-0.50,0.53,-0.51,0.51,-0.51,-0.93,-0.16,-1.01,-1.02,-1.03
454.93,-0.53,0.49,-0.54,0.48,-0.48,-0.91,-0.13,-1.01,-1.01,-1.02
459.48,-0.56,0.46,-0.56,0.45,-0.45,-0.89,-0.10,-1.01,-1.01,-1.02
464.07,-0.59,0.42,-0.59,0.42,-0.42,-0.88,-0.08,-1.01,-1.01,-1.01
468.71,-0.62,0.38,-0.61,0.39,-0.39,-0.86,-0.06,-1.01,-1.00,-1.00
473.40,-0.64,0.36,-0.63,0.37,-0.37,-0.85,-0.04,-1.01,-1.00,-1.00
478.13,-0.66,0.33,-0.64,0.35,-0.35,-0.83,-0.02,-1.01,-0.99,-0.99
482.91,-0.68,0.31,-0.66,0.33,-0.33,-0.82,0.00,-1.01,-0.99,-0.99
487.74,-0.69,0.29,-0.66,0.32,-0.32,-0.80,0.02,-1.01,-0.98,-0.98
