frequency,raw,error,smoothed,error_smoothed,equalization,parametric_eq,fixed_band_eq,equalized_raw,equalized_smoothed,target
20.00,12.23,0.97,12.24,0.97,-0.97,-0.98,-0.20,11.26,11.27,11.26
20.20,12.21,0.96,12.22,0.97,-0.97,-0.97,-0.20,11.25,11.25,11.25
20.40,12.19,0.95,12.20,0.96,-0.96,-0.96,-0.21,11.23,11.24,11.24
20.61,12.18,0.95,12.18,0.95,-0.95,-0.94,-0.21,11.23,11.23,11.23
20.81,12.16,0.95,12.16,0.95,-0.95,-0.93,-0.22,11.22,11.22,11.21
21.02,12.14,0.94,12.14,0.94,-0.94,-0.92,-0.22,11.21,11.20,11.20
21.23,12.12,0.94,12.12,0.93,-0.93,-0.90,-0.23,11.20,11.19,11.19
21.44,12.10,0.91,12.10,0.92,-0.92,-0.89,-0.24,11.19,11.18,11.20
21.66,12.09,0.92,12.08,0.91,-0.91,-0.88,-0.24,11.19,11.18,11.18
21.87,12.07,0.90,12.06,0.90,-0.90,-0.86,-0.25,11.18,11.17,11.18
22.09,12.05,0.90,12.04,0.88,-0.88,-0.85,-0.26,11.17,11.16,11.15
22.31,12.03,0.88,12.02,0.87,-0.87,-0.83,-0.27,11.16,11.15,11.15
22.54,12.00,0.86,12.00,0.86,-0.86,-0.82,-0.27,11.15,11.14,11.14
22.76,11.97,0.83,11.98,0.84,-0.84,-0.80,-0.28,11.13,11.14,11.14
22.99,11.95,0.82,11.95,0.82,-0.82,-0.79,-0.29,11.13,11.13,11.13
23.22,11.92,0.81,11.93,0.80,-0.80,-0.78,-0.30,11.12,11.13,11.12
23.45,11.90,0.78,11.91,0.79,-0.79,-0.76,-0.31,11.12,11.12,11.13
23.69,11.88,0.77,11.89,0.77,-0.77,-0.75,-0.31,11.11,11.12,11.12
23.92,11.86,0.76,11.87,0.76,-0.76,-0.74,-0.32,11.11,11.11,11.10
24.16,11.84,0.73,11.85,0.74,-0.74,-0.72,-0.33,11.10,11.11,11.11
24.40,11.83,0.72,11.83,0.73,-0.73,-0.71,-0.34,11.11,11.11,11.11
24.65,11.81,0.70,11.81,0.71,-0.71,-0.70,-0.35,11.10,11.10,11.11
24.89,11.80,0.70,11.80,0.70,-0.70,-0.69,-0.36,11.11,11.10,11.11
25.14,11.78,0.69,11.78,0.68,-0.68,-0.67,-0.37,11.10,11.10,11.10
25.39,11.77,0.68,11.77,0.67,-0.67,-0.66,-0.38,11.10,11.10,11.09
25.65,11.75,0.66,11.76,0.66,-0.66,-0.65,-0.38,11.09,11.10,11.09
25.91,11.74,0.65,11.74,0.65,-0.65,-0.64,-0.39,11.10,11.10,11.09
26.16,11.73,0.63,11.73,0.64,-0.64,-0.63,-0.40,11.10,11.09,11.10
26.43,11.71,0.62,11.72,0.62,-0.62,-0.62,-0.41,11.09,11.09,11.10
26.69,11.70,0.61,11.70,0.61,-0.61,-0.61,-0.42,11.10,11.09,11.09
26.96,11.69,0.60,11.69,0.60,-0.60,-0.60,-0.43,11.10,11.09,11.09
27.23,11.67,0.58,11.68,0.58,-0.58,-0.59,-0.44,11.09,11.09,11.09
27.50,11.66,0.58,11.66,0.57,-0.57,-0.58,-0.45,11.10,11.10,11.09
27.77,11.64,0.55,11.65,0.55,-0.55,-0.57,-0.46,11.09,11.10,11.10
28.05,11.63,0.54,11.63,0.54,-0.54,-0.56,-0.46,11.10,11.10,11.09
28.33,11.62,0.52,11.62,0.52,-0.52,-0.55,-0.47,11.10,11.10,11.10
28.62,11.60,0.51,11.61,0.51,-0.51,-0.54,-0.48,11.10,11.10,11.10
28.90,11.59,0.49,11.59,0.50,-0.50,-0.54,-0.48,11.10,11.10,11.10
29.19,11.57,0.47,11.58,0.48,-0.48,-0.53,-0.49,11.09,11.09,11.10
29.48,11.56,0.47,11.56,0.47,-0.47,-0.52,-0.50,11.09,11.09,11.10
29.78,11.55,0.46,11.55,0.46,-0.46,-0.51,-0.50,11.09,11.09,11.09
30.08,11.53,0.44,11.54,0.45,-0.45,-0.51,-0.51,11.08,11.09,11.09
30.38,11.52,0.45,11.52,0.44,-0.44,-0.50,-0.51,11.08,11.08,11.08
30.68,11.50,0.43,11.51,0.43,-0.43,-0.50,-0.52,11.07,11.08,11.07
30.99,11.49,0.42,11.49,0.42,-0.42,-0.49,-0.52,11.07,11.07,11.07
31.30,11.48,0.42,11.48,0.42,-0.42,-0.48,-0.52,11.07,11.06,11.07
31.61,11.46,0.40,11.46,0.41,-0.41,-0.48,-0.52,11.05,11.06,11.06
31.93,11.45,0.42,11.45,0.40,-0.40,-0.47,-0.53,11.05,11.05,11.04
32.24,11.43,0.39,11.44,0.40,-0.40,-0.47,-0.53,11.04,11.04,11.04
32.57,11.42,0.40,11.42,0.39,-0.39,-0.46,-0.53,11.03,11.03,11.03
32.89,11.40,0.38,11.41,0.38,-0.38,-0.46,-0.53,11.02,11.02,11.02
33.22,11.39,0.38,11.39,0.38,-0.38,-0.46,-0.53,11.02,11.02,11.02
33.55,11.38,0.37,11.38,0.37,-0.37,-0.45,-0.53,11.01,11.01,11.01
33.89,11.36,0.37,11.37,0.37,-0.37,-0.45,-0.52,10.99,11.00,11.00
34.23,11.35,0.37,11.36,0.37,-0.37,-0.44,-0.52,10.99,10.99,10.98
34.57,11.33,0.36,11.35,0.37,-0.37,-0.44,-0.52,10.97,10.98,10.97
34.92,11.32,0.36,11.33,0.37,-0.37,-0.44,-0.52,10.96,10.97,10.96
35.27,11.31,0.34,11.32,0.36,-0.36,-0.44,-0.52,10.95,10.96,10.97
35.62,11.30,0.36,11.31,0.36,-0.36,-0.43,-0.51,10.94,10.94,10.95
35.97,11.29,0.36,11.29,0.36,-0.36,-0.43,-0.51,10.93,10.93,10.94
36.33,11.28,0.36,11.27,0.36,-0.36,-0.43,-0.51,10.92,10.91,10.92
36.70,11.27,0.38,11.25,0.36,-0.36,-0.43,-0.50,10.92,10.90,10.89
37.06,11.25,0.38,11.23,0.36,-0.36,-0.43,-0.50,10.90,10.88,10.88
37.43,11.22,0.37,11.21,0.35,-0.35,-0.43,-0.50,10.87,10.86,10.86
37.81,11.19,0.35,11.19,0.35,-0.35,-0.42,-0.49,10.84,10.84,10.84
38.19,11.16,0.35,11.17,0.35,-0.35,-0.42,-0.49,10.81,10.82,10.81
38.57,11.13,0.34,11.14,0.35,-0.35,-0.42,-0.49,10.79,10.79,10.79
38.95,11.10,0.33,11.11,0.34,-0.34,-0.42,-0.48,10.76,10.77,10.77
39.34,11.07,0.33,11.08,0.34,-0.34,-0.42,-0.48,10.73,10.74,10.74
39.74,11.04,0.33,11.05,0.33,-0.33,-0.42,-0.48,10.71,10.72,10.71
40.14,11.02,0.33,11.02,0.33,-0.33,-0.42,-0.48,10.69,10.69,10.69
40.54,11.00,0.33,11.00,0.33,-0.33,-0.42,-0.48,10.68,10.67,10.67
40.94,10.97,0.33,10.97,0.32,-0.32,-0.42,-0.47,10.65,10.65,10.64
41.35,10.94,0.33,10.94,0.32,-0.32,-0.42,-0.47,10.62,10.62,10.62
41.76,10.91,0.33,10.92,0.32,-0.32,-0.43,-0.47,10.59,10.59,10.59
42.18,10.88,0.31,10.89,0.32,-0.32,-0.43,-0.47,10.56,10.57,10.57
42.60,10.85,0.31,10.87,0.32,-0.32,-0.43,-0.47,10.53,10.54,10.54
43.03,10.82,0.31,10.84,0.33,-0.33,-0.43,-0.47,10.50,10.52,10.52
43.46,10.80,0.32,10.81,0.33,-0.33,-0.43,-0.47,10.48,10.49,10.48
43.90,10.78,0.33,10.78,0.33,-0.33,-0.43,-0.47,10.46,10.46,10.46
44.33,10.76,0.34,10.75,0.33,-0.33,-0.44,-0.47,10.44,10.43,10.42
44.78,10.74,0.35,10.72,0.33,-0.33,-0.44,-0.47,10.42,10.40,10.40
45.23,10.71,0.34,10.69,0.33,-0.33,-0.44,-0.47,10.39,10.36,10.37
45.68,10.67,0.35,10.66,0.33,-0.33,-0.45,-0.47,10.34,10.32,10.33
46.13,10.63,0.35,10.63,0.34,-0.34,-0.45,-0.48,10.29,10.29,10.29
46.60,10.59,0.34,10.59,0.35,-0.35,-0.45,-0.48,10.25,10.25,10.25
47.06,10.54,0.33,10.56,0.36,-0.36,-0.46,-0.48,10.19,10.20,10.21
47.53,10.50,0.33,10.52,0.36,-0.36,-0.46,-0.49,10.14,10.16,10.17
48.01,10.46,0.35,10.49,0.37,-0.37,-0.46,-0.49,10.09,10.12,10.11
48.49,10.43,0.36,10.45,0.38,-0.38,-0.47,-0.49,10.05,10.07,10.07
48.97,10.41,0.39,10.42,0.39,-0.39,-0.47,-0.50,10.02,10.03,10.02
49.46,10.39,0.42,10.38,0.40,-0.40,-0.48,-0.50,9.99,9.98,9.98
49.96,10.36,0.45,10.35,0.42,-0.42,-0.48,-0.51,9.95,9.93,9.92
50.46,10.33,0.45,10.32,0.43,-0.43,-0.49,-0.51,9.90,9.88,9.88
50.96,10.28,0.45,10.28,0.44,-0.44,-0.49,-0.52,9.84,9.84,9.84
51.47,10.24,0.45,10.25,0.46,-0.46,-0.50,-0.52,9.79,9.79,9.79
51.99,10.21,0.48,10.21,0.47,-0.47,-0.50,-0.53,9.74,9.74,9.74
52.51,10.17,0.47,10.18,0.48,-0.48,-0.51,-0.53,9.69,9.70,9.70
53.03,10.14,0.48,10.14,0.49,-0.49,-0.52,-0.54,9.65,9.65,9.66
53.56,10.10,0.49,10.10,0.50,-0.50,-0.52,-0.55,9.61,9.60,9.61
54.10,10.06,0.51,10.06,0.50,-0.50,-0.53,-0.55,9.56,9.56,9.55
54.64,10.02,0.51,10.02,0.50,-0.50,-0.54,-0.56,9.52,9.51,9.51
55.18,9.97,0.51,9.97,0.50,-0.50,-0.54,-0.57,9.47,9.47,9.46
55.74,9.93,0.52,9.93,0.51,-0.51,-0.55,-0.57,9.43,9.43,9.41
56.29,9.88,0.51,9.89,0.51,-0.51,-0.56,-0.58,9.37,9.38,9.38
56.86,9.84,0.51,9.85,0.52,-0.52,-0.56,-0.59,9.33,9.33,9.33
57.42,9.80,0.53,9.81,0.52,-0.52,-0.57,-0.59,9.28,9.29,9.28
58.00,9.76,0.53,9.76,0.53,-0.53,-0.58,-0.60,9.24,9.24,9.23
58.58,9.71,0.52,9.72,0.54,-0.54,-0.59,-0.61,9.18,9.18,9.19
59.16,9.67,0.52,9.68,0.55,-0.55,-0.60,-0.62,9.12,9.13,9.15
59.76,9.63,0.53,9.64,0.56,-0.56,-0.61,-0.62,9.07,9.08,9.10
60.35,9.60,0.56,9.60,0.58,-0.58,-0.62,-0.63,9.02,9.02,9.04
60.96,9.56,0.58,9.57,0.60,-0.60,-0.63,-0.64,8.96,8.97,8.98
61.57,9.53,0.63,9.53,0.62,-0.62,-0.64,-0.64,8.91,8.91,8.91
62.18,9.49,0.65,9.49,0.64,-0.64,-0.65,-0.65,8.85,8.85,8.84
62.80,9.44,0.67,9.45,0.66,-0.66,-0.66,-0.66,8.78,8.79,8.78
63.43,9.40,0.70,9.41,0.68,-0.68,-0.67,-0.67,8.72,8.72,8.71
64.07,9.36,0.71,9.36,0.70,-0.70,-0.68,-0.67,8.66,8.66,8.65
64.71,9.33,0.74,9.32,0.72,-0.72,-0.69,-0.68,8.61,8.60,8.59
65.35,9.29,0.76,9.28,0.74,-0.74,-0.70,-0.69,8.55,8.53,8.53
66.01,9.24,0.78,9.23,0.76,-0.76,-0.71,-0.69,8.48,8.47,8.47
66.67,9.19,0.78,9.18,0.78,-0.78,-0.72,-0.70,8.42,8.41,8.41
67.33,9.13,0.79,9.13,0.79,-0.79,-0.74,-0.71,8.34,8.34,8.34
68.01,9.07,0.79,9.08,0.80,-0.80,-0.75,-0.72,8.27,8.28,8.28
68.69,9.01,0.80,9.03,0.82,-0.82,-0.76,-0.72,8.20,8.21,8.22
69.37,8.96,0.81,8.98,0.83,-0.83,-0.78,-0.73,8.13,8.15,8.16
70.07,8.92,0.84,8.93,0.85,-0.85,-0.79,-0.74,8.08,8.08,8.09
70.77,8.88,0.87,8.88,0.86,-0.86,-0.80,-0.75,8.02,8.02,8.02
71.48,8.84,0.89,8.83,0.88,-0.88,-0.82,-0.76,7.96,7.95,7.96
72.19,8.78,0.90,8.78,0.90,-0.90,-0.83,-0.76,7.88,7.88,7.88
72.91,8.72,0.92,8.73,0.92,-0.92,-0.85,-0.77,7.81,7.81,7.81
73.64,8.67,0.93,8.69,0.94,-0.94,-0.86,-0.78,7.73,7.75,7.74
74.38,8.63,0.96,8.64,0.96,-0.96,-0.88,-0.79,7.67,7.68,7.67
75.12,8.60,0.99,8.60,0.98,-0.98,-0.89,-0.80,7.62,7.62,7.61
75.87,8.56,1.01,8.56,1.00,-1.00,-0.91,-0.82,7.56,7.55,7.55
76.63,8.51,1.03,8.51,1.02,-1.02,-0.92,-0.83,7.49,7.49,7.48
77.40,8.46,1.03,8.47,1.04,-1.04,-0.94,-0.84,7.42,7.43,7.43
78.17,8.41,1.06,8.42,1.06,-1.06,-0.96,-0.85,7.36,7.37,7.36
78.95,8.37,1.06,8.37,1.07,-1.07,-0.97,-0.87,7.30,7.30,7.31
79.74,8.34,1.10,8.33,1.09,-1.09,-0.99,-0.88,7.26,7.24,7.24
80.54,8.29,1.11,8.28,1.10,-1.10,-1.01,-0.89,7.19,7.18,7.19
81.35,8.24,1.13,8.23,1.11,-1.11,-1.03,-0.91,7.13,7.12,7.12
82.16,8.18,1.12,8.18,1.12,-1.12,-1.04,-0.93,7.06,7.06,7.07
82.98,8.12,1.13,8.13,1.13,-1.13,-1.06,-0.94,6.99,6.99,7.00
83.81,8.06,1.13,8.07,1.14,-1.14,-1.08,-0.96,6.92,6.93,6.94
84.65,8.01,1.15,8.02,1.15,-1.15,-1.10,-0.98,6.86,6.87,6.86
85.50,7.96,1.17,7.96,1.16,-1.16,-1.12,-1.00,6.80,6.80,6.80
86.35,7.91,1.18,7.91,1.17,-1.17,-1.14,-1.02,6.74,6.74,6.73
87.22,7.85,1.19,7.85,1.18,-1.18,-1.16,-1.04,6.67,6.67,6.67
88.09,7.79,1.19,7.79,1.19,-1.19,-1.18,-1.06,6.60,6.60,6.60
88.97,7.73,1.20,7.74,1.21,-1.21,-1.20,-1.09,6.53,6.53,6.53
89.86,7.68,1.22,7.68,1.22,-1.22,-1.22,-1.11,6.46,6.46,6.46
90.76,7.62,1.23,7.63,1.24,-1.24,-1.24,-1.13,6.39,6.39,6.40
91.66,7.57,1.26,7.57,1.25,-1.25,-1.26,-1.16,6.32,6.32,6.32
92.58,7.52,1.27,7.52,1.27,-1.27,-1.28,-1.19,6.25,6.25,6.25
93.51,7.46,1.28,7.47,1.29,-1.29,-1.30,-1.21,6.17,6.18,6.18
94.44,7.41,1.30,7.42,1.31,-1.31,-1.32,-1.24,6.10,6.10,6.11
95.39,7.35,1.33,7.36,1.34,-1.34,-1.34,-1.27,6.02,6.03,6.03
96.34,7.31,1.36,7.31,1.36,-1.36,-1.36,-1.30,5.95,5.95,5.96
97.30,7.26,1.38,7.26,1.38,-1.38,-1.38,-1.33,5.88,5.88,5.88
98.28,7.21,1.42,7.21,1.41,-1.41,-1.40,-1.36,5.81,5.81,5.80
99.26,7.16,1.44,7.16,1.43,-1.43,-1.42,-1.39,5.74,5.73,5.72
100.25,7.11,1.46,7.11,1.45,-1.45,-1.45,-1.42,5.66,5.66,5.65
101.25,7.06,1.48,7.06,1.47,-1.47,-1.47,-1.45,5.59,5.59,5.58
102.27,7.01,1.49,7.01,1.49,-1.49,-1.49,-1.48,5.52,5.52,5.52
103.29,6.96,1.52,6.96,1.51,-1.51,-1.51,-1.51,5.45,5.45,5.44
104.32,6.91,1.54,6.91,1.53,-1.53,-1.53,-1.55,5.38,5.38,5.38
105.37,6.85,1.54,6.86,1.55,-1.55,-1.55,-1.58,5.31,5.31,5.31
106.42,6.80,1.56,6.81,1.56,-1.56,-1.57,-1.61,5.24,5.24,5.25
107.48,6.74,1.57,6.75,1.58,-1.58,-1.59,-1.64,5.16,5.17,5.17
108.56,6.69,1.59,6.70,1.60,-1.60,-1.61,-1.67,5.10,5.10,5.11
109.64,6.64,1.60,6.64,1.61,-1.61,-1.63,-1.70,5.03,5.03,5.04
110.74,6.59,1.63,6.59,1.63,-1.63,-1.65,-1.73,4.97,4.96,4.97
111.85,6.53,1.64,6.53,1.64,-1.64,-1.67,-1.75,4.89,4.89,4.89
112.97,6.48,1.66,6.47,1.66,-1.66,-1.69,-1.78,4.83,4.82,4.83
114.10,6.42,1.67,6.42,1.67,-1.67,-1.70,-1.81,4.76,4.75,4.75
115.24,6.35,1.68,6.36,1.68,-1.68,-1.72,-1.83,4.67,4.68,4.67
116.39,6.29,1.70,6.30,1.70,-1.70,-1.74,-1.85,4.60,4.61,4.60
117.55,6.23,1.71,6.24,1.71,-1.71,-1.75,-1.87,4.53,4.54,4.52
118.73,6.18,1.73,6.18,1.72,-1.72,-1.77,-1.89,4.47,4.47,4.45
119.92,6.12,1.73,6.12,1.73,-1.73,-1.79,-1.90,4.40,4.40,4.39
121.12,6.06,1.73,6.06,1.74,-1.74,-1.80,-1.92,4.33,4.33,4.33
122.33,6.00,1.74,6.00,1.75,-1.75,-1.81,-1.93,4.26,4.26,4.26
123.55,5.94,1.74,5.94,1.75,-1.75,-1.83,-1.94,4.19,4.19,4.20
124.79,5.88,1.75,5.88,1.76,-1.76,-1.84,-1.94,4.12,4.12,4.13
126.03,5.83,1.77,5.82,1.77,-1.77,-1.85,-1.95,4.07,4.05,4.06
127.29,5.77,1.78,5.76,1.77,-1.77,-1.86,-1.95,4.00,3.99,4.00
128.57,5.70,1.78,5.70,1.78,-1.78,-1.87,-1.95,3.92,3.92,3.92
129.85,5.63,1.78,5.64,1.79,-1.79,-1.88,-1.94,3.84,3.85,3.85
131.15,5.57,1.79,5.58,1.80,-1.80,-1.89,-1.94,3.78,3.79,3.78
132.46,5.51,1.80,5.52,1.80,-1.80,-1.89,-1.93,3.71,3.72,3.72
133.79,5.46,1.82,5.46,1.81,-1.81,-1.90,-1.92,3.66,3.65,3.65
135.12,5.40,1.82,5.40,1.81,-1.81,-1.90,-1.91,3.59,3.59,3.58
136.48,5.33,1.81,5.34,1.82,-1.82,-1.91,-1.90,3.51,3.52,3.52
137.84,5.27,1.82,5.28,1.82,-1.82,-1.91,-1.88,3.45,3.46,3.46
139.22,5.22,1.84,5.22,1.83,-1.83,-1.91,-1.86,3.40,3.39,3.39
140.61,5.17,1.84,5.16,1.83,-1.83,-1.91,-1.85,3.35,3.33,3.33
142.02,5.10,1.84,5.10,1.83,-1.83,-1.91,-1.83,3.28,3.27,3.27
143.44,5.03,1.82,5.04,1.83,-1.83,-1.91,-1.81,3.21,3.21,3.21
144.87,4.97,1.82,4.98,1.83,-1.83,-1.91,-1.79,3.15,3.16,3.16
146.32,4.91,1.82,4.92,1.82,-1.82,-1.90,-1.77,3.09,3.10,3.10
147.78,4.86,1.82,4.86,1.82,-1.82,-1.90,-1.75,3.04,3.04,3.05
149.26,4.81,1.83,4.80,1.82,-1.82,-1.89,-1.73,3.00,2.99,2.99
150.75,4.74,1.81,4.75,1.81,-1.81,-1.89,-1.71,2.93,2.93,2.93
152.26,4.68,1.80,4.69,1.81,-1.81,-1.88,-1.69,2.87,2.88,2.88
153.78,4.62,1.80,4.63,1.80,-1.80,-1.87,-1.67,2.82,2.82,2.83
155.32,4.57,1.80,4.56,1.79,-1.79,-1.86,-1.65,2.78,2.77,2.77
156.88,4.51,1.79,4.50,1.79,-1.79,-1.85,-1.63,2.73,2.71,2.72
158.44,4.44,1.79,4.44,1.78,-1.78,-1.84,-1.61,2.66,2.66,2.66
160.03,4.37,1.77,4.38,1.78,-1.78,-1.82,-1.59,2.60,2.60,2.61
161.63,4.31,1.76,4.32,1.77,-1.77,-1.81,-1.58,2.55,2.55,2.55
163.24,4.25,1.76,4.25,1.76,-1.76,-1.80,-1.56,2.49,2.49,2.49
164.88,4.19,1.76,4.19,1.75,-1.75,-1.78,-1.55,2.44,2.43,2.44
166.53,4.12,1.75,4.12,1.74,-1.74,-1.77,-1.53,2.38,2.38,2.37
168.19,4.04,1.72,4.06,1.73,-1.73,-1.75,-1.52,2.31,2.32,2.33
169.87,3.98,1.72,3.99,1.73,-1.73,-1.73,-1.51,2.26,2.26,2.26
171.57,3.92,1.72,3.92,1.72,-1.72,-1.71,-1.50,2.21,2.21,2.20
173.29,3.86,1.71,3.86,1.71,-1.71,-1.70,-1.49,2.16,2.15,2.15
175.02,3.79,1.70,3.79,1.70,-1.70,-1.68,-1.48,2.09,2.09,2.10
176.77,3.72,1.69,3.73,1.69,-1.69,-1.66,-1.47,2.03,2.04,2.04
178.54,3.65,1.67,3.66,1.68,-1.68,-1.64,-1.47,1.97,1.98,1.98
180.32,3.58,1.67,3.59,1.67,-1.67,-1.62,-1.46,1.92,1.93,1.92
182.13,3.52,1.65,3.52,1.65,-1.65,-1.59,-1.46,1.87,1.87,1.87
183.95,3.46,1.64,3.46,1.64,-1.64,-1.57,-1.46,1.82,1.82,1.82
185.79,3.39,1.63,3.39,1.62,-1.62,-1.55,-1.46,1.77,1.76,1.76
187.65,3.32,1.61,3.32,1.61,-1.61,-1.53,-1.46,1.72,1.71,1.71
189.52,3.24,1.58,3.25,1.59,-1.59,-1.51,-1.46,1.66,1.66,1.66
191.42,3.17,1.56,3.17,1.57,-1.57,-1.48,-1.46,1.61,1.61,1.61
193.33,3.10,1.54,3.10,1.54,-1.54,-1.46,-1.46,1.56,1.56,1.57
195.27,3.02,1.51,3.03,1.52,-1.52,-1.44,-1.47,1.51,1.51,1.51
197.22,2.94,1.49,2.95,1.48,-1.48,-1.42,-1.47,1.46,1.47,1.45
199.19,2.87,1.45,2.87,1.45,-1.45,-1.39,-1.48,1.42,1.42,1.42
201.18,2.80,1.44,2.79,1.41,-1.41,-1.37,-1.48,1.39,1.38,1.37
203.19,2.72,1.39,2.71,1.37,-1.37,-1.35,-1.49,1.35,1.34,1.34
205.23,2.64,1.34,2.62,1.32,-1.32,-1.32,-1.49,1.32,1.30,1.31
207.28,2.55,1.29,2.54,1.28,-1.28,-1.30,-1.50,1.28,1.26,1.27
209.35,2.47,1.25,2.46,1.23,-1.23,-1.28,-1.51,1.24,1.22,1.23
211.44,2.39,1.20,2.38,1.19,-1.19,-1.25,-1.52,1.21,1.19,1.19
213.56,2.31,1.15,2.30,1.14,-1.14,-1.23,-1.52,1.17,1.15,1.16
215.69,2.21,1.09,2.22,1.10,-1.10,-1.20,-1.53,1.11,1.12,1.13
217.85,2.13,1.04,2.15,1.06,-1.06,-1.18,-1.54,1.07,1.09,1.09
220.03,2.07,1.02,2.09,1.03,-1.03,-1.16,-1.54,1.04,1.06,1.06
222.23,2.01,0.99,2.04,1.01,-1.01,-1.14,-1.55,1.01,1.03,1.02
224.45,1.96,0.96,1.99,0.99,-0.99,-1.11,-1.55,0.97,1.00,1.00
226.70,1.93,0.97,1.96,0.98,-0.98,-1.09,-1.55,0.95,0.97,0.97
228.96,1.91,0.96,1.93,0.99,-0.99,-1.07,-1.56,0.93,0.95,0.96
231.25,1.90,0.98,1.92,1.00,-1.00,-1.04,-1.56,0.91,0.93,0.92
233.57,1.90,1.00,1.92,1.02,-1.02,-1.02,-1.55,0.89,0.90,0.90
235.90,1.90,1.02,1.93,1.04,-1.04,-1.00,-1.55,0.86,0.89,0.88
238.26,1.92,1.07,1.94,1.08,-1.08,-0.98,-1.55,0.85,0.87,0.86
240.64,1.96,1.11,1.97,1.11,-1.11,-0.96,-1.54,0.85,0.85,0.86
243.05,1.99,1.15,1.99,1.15,-1.15,-0.93,-1.53,0.84,0.84,0.84
245.48,2.02,1.20,2.02,1.19,-1.19,-0.91,-1.52,0.84,0.83,0.82
247.93,2.06,1.26,2.04,1.23,-1.23,-0.89,-1.50,0.84,0.82,0.81
250.41,2.09,1.28,2.07,1.26,-1.26,-0.87,-1.49,0.83,0.81,0.81
252.92,2.12,1.32,2.10,1.29,-1.29,-0.85,-1.47,0.83,0.80,0.81
255.45,2.14,1.35,2.12,1.33,-1.33,-0.83,-1.45,0.82,0.79,0.79
258.00,2.15,1.37,2.14,1.35,-1.35,-0.81,-1.42,0.80,0.79,0.79
260.58,2.16,1.38,2.15,1.37,-1.37,-0.79,-1.40,0.79,0.78,0.78
263.19,2.16,1.38,2.17,1.39,-1.39,-0.77,-1.37,0.77,0.77,0.78
265.82,2.16,1.40,2.17,1.41,-1.41,-0.75,-1.34,0.76,0.77,0.77
268.48,2.16,1.40,2.18,1.42,-1.42,-0.73,-1.31,0.75,0.76,0.77
271.16,2.16,1.40,2.18,1.42,-1.42,-0.71,-1.27,0.74,0.76,0.76
273.87,2.16,1.41,2.17,1.42,-1.42,-0.69,-1.24,0.75,0.75,0.75
276.61,2.15,1.40,2.16,1.41,-1.41,-0.67,-1.20,0.74,0.75,0.75
279.38,2.14,1.41,2.15,1.40,-1.40,-0.65,-1.16,0.74,0.74,0.73
282.17,2.13,1.40,2.13,1.39,-1.39,-0.63,-1.12,0.75,0.74,0.73
284.99,2.12,1.38,2.11,1.37,-1.37,-0.61,-1.08,0.76,0.74,0.74
287.84,2.10,1.36,2.08,1.34,-1.34,-0.59,-1.03,0.76,0.74,0.74
290.72,2.07,1.34,2.05,1.31,-1.31,-0.58,-0.99,0.76,0.74,0.73
293.63,2.03,1.29,2.02,1.28,-1.28,-0.56,-0.94,0.75,0.74,0.74
296.57,1.98,1.24,1.98,1.24,-1.24,-0.54,-0.90,0.75,0.74,0.75
299.53,1.93,1.19,1.94,1.19,-1.19,-0.52,-0.85,0.74,0.75,0.75
302.53,1.89,1.13,1.89,1.14,-1.14,-0.50,-0.80,0.75,0.75,0.76
305.55,1.84,1.09,1.84,1.09,-1.09,-0.49,-0.75,0.76,0.76,0.75
308.61,1.79,1.03,1.79,1.03,-1.03,-0.47,-0.71,0.76,0.76,0.76
311.69,1.73,0.97,1.74,0.97,-0.97,-0.45,-0.66,0.76,0.77,0.77
314.81,1.68,0.91,1.69,0.91,-0.91,-0.43,-0.61,0.77,0.77,0.77
317.96,1.62,0.85,1.63,0.85,-0.85,-0.42,-0.56,0.77,0.78,0.77
321.14,1.56,0.78,1.58,0.80,-0.80,-0.40,-0.51,0.77,0.78,0.79
324.35,1.51,0.73,1.53,0.74,-0.74,-0.38,-0.46,0.77,0.79,0.78
327.59,1.46,0.66,1.48,0.69,-0.69,-0.37,-0.41,0.78,0.80,0.81
330.87,1.43,0.63,1.44,0.64,-0.64,-0.35,-0.36,0.80,0.80,0.80
334.18,1.39,0.59,1.39,0.58,-0.58,-0.33,-0.31,0.81,0.81,0.81
337.52,1.34,0.53,1.34,0.53,-0.53,-0.32,-0.26,0.81,0.81,0.81
340.90,1.29,0.47,1.30,0.47,-0.47,-0.30,-0.21,0.82,0.82,0.83
344.30,1.24,0.41,1.25,0.42,-0.42,-0.28,-0.16,0.82,0.83,0.83
347.75,1.21,0.38,1.20,0.37,-0.37,-0.27,-0.11,0.85,0.83,0.84
351.23,1.17,0.34,1.15,0.31,-0.31,-0.25,-0.05,0.86,0.84,0.83
354.74,1.13,0.28,1.11,0.26,-0.26,-0.23,-0.00,0.88,0.85,0.86
358.28,1.07,0.22,1.06,0.20,-0.20,-0.22,0.05,0.87,0.85,0.85
361.87,1.01,0.15,1.01,0.15,-0.15,-0.20,0.10,0.87,0.86,0.86
365.49,0.95,0.09,0.96,0.09,-0.09,-0.18,0.15,0.86,0.87,0.87
369.14,0.89,0.01,0.91,0.03,-0.03,-0.17,0.20,0.86,0.88,0.88
372.83,0.84,-0.04,0.86,-0.02,0.02,-0.15,0.25,0.87,0.88,0.89
376.56,0.79,-0.09,0.81,-0.08,0.08,-0.13,0.30,0.87,0.89,0.88
380.33,0.75,-0.14,0.76,-0.14,0.14,-0.12,0.35,0.89,0.90,0.89
384.13,0.71,-0.19,0.72,-0.19,0.19,-0.10,0.40,0.91,0.91,0.91
387.97,0.67,-0.24,0.67,-0.25,0.25,-0.08,0.45,0.92,0.92,0.92
391.85,0.63,-0.29,0.63,-0.30,0.30,-0.07,0.50,0.93,0.93,0.92
395.77,0.59,-0.34,0.59,-0.35,0.35,-0.05,0.55,0.94,0.93,0.93
399.73,0.55,-0.38,0.55,-0.39,0.39,-0.03,0.60,0.94,0.94,0.94
403.72,0.51,-0.45,0.52,-0.43,0.43,-0.01,0.64,0.95,0.95,0.96
407.76,0.48,-0.48,0.49,-0.47,0.47,0.00,0.69,0.96,0.96,0.96
411.84,0.44,-0.53,0.46,-0.51,0.51,0.02,0.74,0.96,0.97,0.97
415.96,0.41,-0.57,0.43,-0.55,0.55,0.04,0.79,0.97,0.98,0.99
420.12,0.38,-0.60,0.40,-0.59,0.59,0.06,0.84,0.98,0.99,0.99
424.32,0.36,-0.63,0.36,-0.63,0.63,0.08,0.88,1.00,1.00,0.99
428.56,0.34,-0.67,0.33,-0.67,0.67,0.10,0.93,1.02,1.00,1.01
432.85,0.32,-0.70,0.30,-0.71,0.71,0.12,0.97,1.04,1.01,1.02
437.18,0.29,-0.72,0.27,-0.75,0.75,0.14,1.02,1.05,1.02,1.02
441.55,0.25,-0.77,0.23,-0.80,0.80,0.16,1.06,1.05,1.03,1.03
445.96,0.21,-0.82,0.20,-0.84,0.84,0.18,1.10,1.05,1.04,1.03
450.42,0.17,-0.87,0.17,-0.88,0.88,0.20,1.14,1.05,1.05,1.04
454.93,0.12,-0.93,0.14,-0.92,0.92,0.22,1.18,1.04,1.05,1.05
459.48,0.08,-0.98,0.10,-0.96,0.96,0.24,1.22,1.05,1.06,1.06
464.07,0.05,-1.02,0.07,-1.01,1.01,0.26,1.25,1.06,1.07,1.08
468.71,0.02,-1.06,0.03,-1.05,1.05,0.29,1.29,1.07,1.08,1.09
473.40,0.00,-1.09,-0.00,-1.09,1.09,0.31,1.32,1.10,1.09,1.09
478.13,-0.03,-1.13,-0.03,-1.13,1.13,0.33,1.35,1.10,1.10,1.10
482.91,-0.05,-1.16,-0.05,-1.17,1.17,0.36,1.37,1.12,1.11,1.11
487.74,-0.08,-1.20,-0.07,-1.20,1.20,0.38,1.40,1.12,1.12,1.12
492.62,-0.10,-1.23,-0.09,-1.22,1.22,0.41,1.42,1.13,1.13,1.13
497.55,-0.13,-1.26,-0.10,-1.24,1.24,0.43,1.44,1.12,1.14,1.14
502.52,-0.14,-1.28,-0.11,-1.26,1.26,0.46,1.46,1.13,1.15,1.15
507.55,-0.15,-1.31,-0.12,-1.28,1.28,0.49,1.47,1.14,1.17,1.17
