frequency,raw,error,smoothed,error_smoothed,equalization,parametric_eq,fixed_band_eq,equalized_raw,equalized_smoothed,target
20.00,12.23,2.66,12.23,2.66,-2.66,-2.70,-0.97,9.58,9.58,9.57
20.20,12.21,2.65,12.22,2.65,-2.65,-2.69,-0.99,9.56,9.56,9.56
20.40,12.19,2.64,12.20,2.65,-2.65,-2.68,-1.02,9.55,9.55,9.55
20.61,12.18,2.64,12.18,2.64,-2.64,-2.67,-1.05,9.54,9.54,9.54
20.81,12.16,2.64,12.16,2.64,-2.64,-2.66,-1.08,9.53,9.53,9.52
21.02,12.14,2.63,12.14,2.63,-2.63,-2.65,-1.11,9.52,9.52,9.51
21.23,12.12,2.62,12.12,2.62,-2.62,-2.64,-1.14,9.50,9.51,9.50
21.44,12.10,2.59,12.11,2.60,-2.61,-2.63,-1.18,9.49,9.50,9.51
21.66,12.09,2.60,12.09,2.59,-2.60,-2.62,-1.21,9.49,9.49,9.49
21.87,12.07,2.58,12.07,2.59,-2.59,-2.61,-1.25,9.49,9.49,9.49
22.09,12.05,2.58,12.06,2.58,-2.57,-2.60,-1.28,9.48,9.48,9.47
22.31,12.03,2.57,12.03,2.57,-2.56,-2.59,-1.32,9.47,9.47,9.46
22.54,12.00,2.55,12.00,2.55,-2.54,-2.58,-1.36,9.46,9.46,9.45
22.76,11.97,2.52,11.98,2.53,-2.53,-2.57,-1.39,9.45,9.45,9.45
22.99,11.95,2.51,11.95,2.51,-2.51,-2.56,-1.43,9.44,9.44,9.44
23.22,11.92,2.49,11.93,2.49,-2.49,-2.55,-1.47,9.43,9.44,9.43
23.45,11.90,2.46,11.90,2.47,-2.47,-2.54,-1.52,9.43,9.43,9.44
23.69,11.88,2.45,11.88,2.45,-2.45,-2.52,-1.56,9.43,9.43,9.43
23.92,11.86,2.44,11.86,2.43,-2.43,-2.51,-1.60,9.43,9.43,9.42
24.16,11.84,2.41,11.85,2.42,-2.42,-2.50,-1.64,9.42,9.43,9.43
24.40,11.83,2.40,11.83,2.40,-2.41,-2.49,-1.69,9.43,9.43,9.43
24.65,11.81,2.39,11.82,2.39,-2.39,-2.48,-1.73,9.42,9.42,9.42
24.89,11.80,2.38,11.80,2.38,-2.38,-2.46,-1.78,9.42,9.42,9.42
25.14,11.78,2.37,11.79,2.37,-2.37,-2.45,-1.82,9.42,9.42,9.41
25.39,11.77,2.36,11.77,2.36,-2.35,-2.44,-1.87,9.42,9.42,9.41
25.65,11.75,2.34,11.76,2.34,-2.34,-2.43,-1.92,9.41,9.41,9.41
25.91,11.74,2.33,11.74,2.33,-2.33,-2.42,-1.96,9.41,9.41,9.41
26.16,11.73,2.31,11.73,2.31,-2.32,-2.40,-2.01,9.42,9.41,9.42
26.43,11.71,2.30,11.72,2.30,-2.30,-2.39,-2.05,9.41,9.41,9.41
26.69,11.70,2.29,11.70,2.29,-2.29,-2.38,-2.10,9.41,9.41,9.41
26.96,11.69,2.28,11.69,2.28,-2.28,-2.37,-2.14,9.42,9.41,9.41
27.23,11.67,2.26,11.68,2.26,-2.26,-2.36,-2.19,9.41,9.42,9.41
27.50,11.66,2.25,11.66,2.25,-2.25,-2.34,-2.23,9.42,9.41,9.41
27.77,11.64,2.22,11.65,2.23,-2.23,-2.33,-2.27,9.41,9.42,9.42
28.05,11.63,2.22,11.63,2.22,-2.21,-2.32,-2.31,9.42,9.42,9.41
28.33,11.62,2.20,11.62,2.20,-2.20,-2.31,-2.35,9.43,9.42,9.42
28.62,11.60,2.18,11.61,2.18,-2.18,-2.30,-2.38,9.42,9.43,9.42
28.90,11.59,2.16,11.59,2.16,-2.17,-2.28,-2.41,9.43,9.43,9.43
29.19,11.57,2.14,11.58,2.15,-2.15,-2.27,-2.44,9.42,9.42,9.43
29.48,11.56,2.14,11.56,2.13,-2.14,-2.26,-2.47,9.42,9.42,9.42
29.78,11.55,2.13,11.55,2.13,-2.13,-2.25,-2.50,9.43,9.42,9.42
30.08,11.53,2.11,11.54,2.12,-2.12,-2.24,-2.52,9.42,9.42,9.42
30.38,11.52,2.12,11.52,2.11,-2.11,-2.23,-2.54,9.42,9.41,9.40
30.68,11.50,2.10,11.51,2.10,-2.10,-2.22,-2.55,9.40,9.41,9.40
30.99,11.49,2.09,11.49,2.09,-2.09,-2.21,-2.57,9.40,9.40,9.40
31.30,11.48,2.08,11.48,2.08,-2.08,-2.20,-2.57,9.40,9.40,9.40
31.61,11.46,2.07,11.47,2.07,-2.08,-2.19,-2.58,9.39,9.39,9.39
31.93,11.45,2.08,11.45,2.07,-2.07,-2.17,-2.58,9.39,9.38,9.37
32.24,11.43,2.05,11.44,2.06,-2.06,-2.16,-2.58,9.37,9.38,9.38
32.57,11.42,2.06,11.42,2.05,-2.05,-2.15,-2.58,9.37,9.37,9.36
32.89,11.40,2.04,11.41,2.04,-2.05,-2.15,-2.57,9.36,9.36,9.36
33.22,11.39,2.04,11.39,2.04,-2.04,-2.14,-2.56,9.35,9.35,9.35
33.55,11.38,2.03,11.38,2.03,-2.03,-2.13,-2.54,9.35,9.35,9.35
33.89,11.36,2.02,11.37,2.03,-2.03,-2.12,-2.53,9.34,9.34,9.34
34.23,11.35,2.03,11.35,2.02,-2.02,-2.11,-2.51,9.33,9.33,9.32
34.57,11.33,2.01,11.34,2.02,-2.01,-2.10,-2.49,9.32,9.32,9.32
34.92,11.32,2.02,11.32,2.01,-2.01,-2.09,-2.47,9.31,9.31,9.30
35.27,11.31,1.99,11.31,2.00,-2.01,-2.08,-2.45,9.30,9.30,9.32
35.62,11.30,2.01,11.30,2.00,-2.01,-2.07,-2.42,9.29,9.29,9.29
35.97,11.29,2.00,11.29,2.00,-2.01,-2.07,-2.40,9.28,9.28,9.29
36.33,11.28,2.01,11.29,2.01,-2.01,-2.06,-2.37,9.27,9.27,9.27
36.70,11.27,2.02,11.27,2.02,-2.01,-2.05,-2.34,9.26,9.26,9.25
37.06,11.25,2.02,11.25,2.02,-2.01,-2.05,-2.32,9.25,9.24,9.23
37.43,11.22,2.01,11.23,2.01,-2.00,-2.04,-2.29,9.22,9.22,9.21
37.81,11.19,1.99,11.19,2.00,-2.00,-2.03,-2.26,9.20,9.20,9.20
38.19,11.16,1.99,11.16,1.99,-1.99,-2.03,-2.24,9.17,9.17,9.17
38.57,11.13,1.98,11.13,1.98,-1.98,-2.02,-2.21,9.15,9.15,9.15
38.95,11.10,1.96,11.10,1.97,-1.98,-2.01,-2.18,9.13,9.13,9.14
39.34,11.07,1.96,11.07,1.96,-1.97,-2.01,-2.16,9.10,9.10,9.11
39.74,11.04,1.96,11.05,1.96,-1.96,-2.00,-2.13,9.08,9.08,9.08
40.14,11.02,1.96,11.02,1.96,-1.96,-2.00,-2.11,9.07,9.07,9.06
40.54,11.00,1.96,11.00,1.96,-1.95,-1.99,-2.09,9.05,9.05,9.04
40.94,10.97,1.96,10.97,1.96,-1.95,-1.99,-2.07,9.03,9.03,9.01
41.35,10.94,1.94,10.94,1.95,-1.94,-1.99,-2.05,9.00,9.00,9.00
41.76,10.91,1.94,10.91,1.94,-1.94,-1.98,-2.03,8.98,8.98,8.97
42.18,10.88,1.92,10.88,1.92,-1.93,-1.98,-2.01,8.95,8.95,8.96
42.60,10.85,1.92,10.85,1.92,-1.93,-1.98,-2.00,8.92,8.92,8.93
43.03,10.82,1.91,10.83,1.92,-1.93,-1.97,-1.98,8.90,8.90,8.91
43.46,10.80,1.93,10.80,1.93,-1.93,-1.97,-1.97,8.88,8.88,8.87
43.90,10.78,1.93,10.78,1.93,-1.93,-1.97,-1.96,8.85,8.85,8.85
44.33,10.76,1.94,10.77,1.94,-1.93,-1.97,-1.95,8.83,8.83,8.82
44.78,10.74,1.94,10.74,1.94,-1.93,-1.97,-1.94,8.81,8.81,8.80
45.23,10.71,1.93,10.71,1.94,-1.93,-1.96,-1.93,8.78,8.78,8.78
45.68,10.67,1.94,10.68,1.94,-1.93,-1.96,-1.93,8.74,8.75,8.73
46.13,10.63,1.93,10.63,1.93,-1.93,-1.96,-1.92,8.71,8.71,8.70
46.60,10.59,1.93,10.59,1.92,-1.92,-1.96,-1.92,8.67,8.67,8.66
47.06,10.54,1.91,10.55,1.92,-1.92,-1.96,-1.92,8.62,8.62,8.63
47.53,10.50,1.91,10.50,1.91,-1.93,-1.96,-1.92,8.58,8.58,8.59
48.01,10.46,1.92,10.47,1.92,-1.93,-1.96,-1.92,8.53,8.53,8.54
48.49,10.43,1.93,10.44,1.93,-1.94,-1.96,-1.93,8.49,8.49,8.50
48.97,10.41,1.96,10.41,1.96,-1.95,-1.97,-1.93,8.46,8.46,8.45
49.46,10.39,1.97,10.39,1.98,-1.97,-1.97,-1.94,8.43,8.43,8.42
49.96,10.36,2.00,10.36,1.99,-1.98,-1.97,-1.95,8.39,8.39,8.36
50.46,10.33,2.00,10.33,2.00,-1.99,-1.97,-1.95,8.35,8.34,8.33
50.96,10.28,1.99,10.29,2.00,-2.00,-1.97,-1.96,8.29,8.29,8.29
51.47,10.24,1.99,10.25,2.00,-2.00,-1.98,-1.97,8.24,8.25,8.25
51.99,10.21,2.01,10.21,2.00,-2.01,-1.98,-1.98,8.21,8.20,8.20
52.51,10.17,2.00,10.18,2.00,-2.01,-1.98,-1.99,8.16,8.17,8.17
53.03,10.14,2.00,10.14,2.01,-2.01,-1.99,-2.01,8.13,8.13,8.14
53.56,10.10,2.01,10.10,2.01,-2.01,-1.99,-2.02,8.09,8.09,8.09
54.10,10.06,2.02,10.06,2.02,-2.01,-1.99,-2.03,8.05,8.05,8.04
54.64,10.02,2.02,10.02,2.02,-2.01,-2.00,-2.04,8.01,8.01,8.00
55.18,9.97,2.01,9.98,2.02,-2.01,-2.00,-2.06,7.96,7.96,7.96
55.74,9.93,2.02,9.93,2.01,-2.01,-2.01,-2.07,7.93,7.92,7.91
56.29,9.88,1.99,9.89,2.00,-2.00,-2.01,-2.08,7.88,7.88,7.89
56.86,9.84,1.99,9.85,2.00,-2.00,-2.02,-2.09,7.85,7.85,7.85
57.42,9.80,2.00,9.80,1.99,-1.99,-2.02,-2.10,7.81,7.81,7.80
58.00,9.76,2.00,9.76,1.99,-1.99,-2.03,-2.11,7.78,7.77,7.76
58.58,9.71,1.98,9.72,1.98,-1.99,-2.04,-2.12,7.73,7.73,7.73
59.16,9.67,1.97,9.67,1.98,-1.99,-2.04,-2.13,7.68,7.68,7.70
59.76,9.63,1.98,9.64,1.98,-2.00,-2.05,-2.13,7.64,7.64,7.65
60.35,9.60,2.00,9.60,2.00,-2.01,-2.05,-2.14,7.59,7.59,7.60
60.96,9.56,2.02,9.57,2.02,-2.02,-2.06,-2.14,7.54,7.55,7.54
61.57,9.53,2.05,9.53,2.05,-2.04,-2.07,-2.15,7.49,7.49,7.48
62.18,9.49,2.07,9.49,2.07,-2.06,-2.08,-2.15,7.44,7.43,7.42
62.80,9.44,2.08,9.45,2.08,-2.08,-2.08,-2.15,7.37,7.37,7.36
63.43,9.40,2.09,9.40,2.09,-2.10,-2.09,-2.15,7.31,7.31,7.31
64.07,9.36,2.10,9.37,2.11,-2.11,-2.10,-2.14,7.25,7.26,7.26
64.71,9.33,2.12,9.33,2.12,-2.12,-2.11,-2.14,7.21,7.21,7.21
65.35,9.29,2.14,9.29,2.13,-2.13,-2.11,-2.14,7.17,7.17,7.15
66.01,9.24,2.14,9.25,2.14,-2.13,-2.12,-2.13,7.12,7.12,7.10
66.67,9.19,2.13,9.19,2.14,-2.13,-2.13,-2.12,7.06,7.06,7.06
67.33,9.13,2.14,9.13,2.13,-2.13,-2.14,-2.11,7.00,7.00,6.99
68.01,9.07,2.13,9.07,2.13,-2.14,-2.15,-2.10,6.94,6.94,6.94
68.69,9.01,2.12,9.02,2.12,-2.14,-2.15,-2.09,6.88,6.88,6.89
69.37,8.96,2.12,8.97,2.13,-2.14,-2.16,-2.08,6.82,6.82,6.84
70.07,8.92,2.14,8.92,2.14,-2.15,-2.17,-2.07,6.78,6.78,6.78
70.77,8.88,2.17,8.88,2.16,-2.16,-2.18,-2.06,6.73,6.73,6.71
71.48,8.84,2.18,8.84,2.18,-2.17,-2.19,-2.05,6.68,6.67,6.66
72.19,8.78,2.18,8.78,2.18,-2.18,-2.20,-2.03,6.60,6.60,6.60
72.91,8.72,2.19,8.73,2.19,-2.19,-2.21,-2.02,6.53,6.53,6.53
73.64,8.67,2.19,8.68,2.20,-2.21,-2.22,-2.01,6.47,6.47,6.48
74.38,8.63,2.21,8.64,2.21,-2.22,-2.22,-2.00,6.42,6.42,6.42
75.12,8.60,2.23,8.60,2.23,-2.22,-2.23,-1.99,6.38,6.38,6.37
75.87,8.56,2.24,8.56,2.24,-2.23,-2.24,-1.98,6.33,6.33,6.32
76.63,8.51,2.25,8.51,2.25,-2.24,-2.25,-1.97,6.27,6.27,6.26
77.40,8.46,2.24,8.46,2.25,-2.25,-2.26,-1.96,6.21,6.21,6.22
78.17,8.41,2.25,8.42,2.25,-2.26,-2.27,-1.95,6.16,6.16,6.16
78.95,8.37,2.25,8.38,2.26,-2.26,-2.28,-1.94,6.11,6.12,6.12
79.74,8.34,2.27,8.34,2.27,-2.26,-2.28,-1.94,6.08,6.08,6.07
80.54,8.29,2.27,8.29,2.27,-2.26,-2.29,-1.93,6.03,6.03,6.02
81.35,8.24,2.28,8.24,2.27,-2.26,-2.30,-1.93,5.98,5.98,5.96
82.16,8.18,2.25,8.18,2.26,-2.26,-2.31,-1.93,5.92,5.92,5.93
82.98,8.12,2.25,8.12,2.25,-2.26,-2.32,-1.93,5.86,5.86,5.87
83.81,8.06,2.24,8.07,2.25,-2.26,-2.32,-1.93,5.81,5.81,5.82
84.65,8.01,2.25,8.01,2.25,-2.25,-2.33,-1.93,5.76,5.76,5.76
85.50,7.96,2.26,7.96,2.26,-2.25,-2.34,-1.93,5.71,5.71,5.70
86.35,7.91,2.26,7.91,2.26,-2.25,-2.35,-1.94,5.66,5.66,5.65
87.22,7.85,2.25,7.85,2.26,-2.25,-2.35,-1.94,5.60,5.60,5.60
88.09,7.79,2.25,7.80,2.25,-2.25,-2.36,-1.95,5.54,5.54,5.54
88.97,7.73,2.25,7.74,2.25,-2.25,-2.37,-1.96,5.48,5.48,5.48
89.86,7.68,2.25,7.68,2.25,-2.25,-2.37,-1.97,5.43,5.43,5.43
90.76,7.62,2.25,7.63,2.26,-2.26,-2.38,-1.99,5.37,5.37,5.37
91.66,7.57,2.27,7.57,2.26,-2.26,-2.38,-2.00,5.32,5.32,5.30
92.58,7.52,2.27,7.52,2.27,-2.26,-2.39,-2.01,5.26,5.26,5.25
93.51,7.46,2.26,7.47,2.27,-2.27,-2.39,-2.03,5.19,5.19,5.20
94.44,7.41,2.27,7.41,2.27,-2.28,-2.40,-2.05,5.13,5.13,5.14
95.39,7.35,2.28,7.36,2.28,-2.29,-2.40,-2.07,5.06,5.07,5.07
96.34,7.31,2.31,7.31,2.30,-2.31,-2.41,-2.09,5.01,5.00,5.00
97.30,7.26,2.32,7.26,2.32,-2.32,-2.41,-2.11,4.94,4.94,4.94
98.28,7.21,2.34,7.21,2.34,-2.33,-2.41,-2.13,4.88,4.88,4.87
99.26,7.16,2.35,7.16,2.35,-2.35,-2.42,-2.16,4.82,4.82,4.81
100.25,7.11,2.36,7.11,2.36,-2.36,-2.42,-2.18,4.76,4.76,4.75
101.25,7.06,2.36,7.06,2.37,-2.37,-2.42,-2.21,4.70,4.70,4.70
102.27,7.01,2.37,7.01,2.37,-2.37,-2.42,-2.24,4.64,4.64,4.64
103.29,6.96,2.38,6.96,2.38,-2.38,-2.43,-2.26,4.59,4.59,4.58
104.32,6.91,2.38,6.91,2.38,-2.38,-2.43,-2.29,4.54,4.53,4.53
105.37,6.85,2.38,6.86,2.38,-2.38,-2.43,-2.32,4.47,4.48,4.47
106.42,6.80,2.38,6.80,2.38,-2.38,-2.43,-2.34,4.42,4.42,4.42
107.48,6.74,2.38,6.75,2.38,-2.39,-2.43,-2.37,4.36,4.36,4.36
108.56,6.69,2.38,6.70,2.38,-2.39,-2.43,-2.40,4.31,4.31,4.31
109.64,6.64,2.39,6.64,2.39,-2.39,-2.43,-2.42,4.25,4.25,4.25
110.74,6.59,2.40,6.59,2.40,-2.39,-2.43,-2.45,4.20,4.20,4.19
111.85,6.53,2.40,6.54,2.40,-2.40,-2.42,-2.47,4.14,4.14,4.13
112.97,6.48,2.40,6.48,2.40,-2.40,-2.42,-2.49,4.08,4.08,4.08
114.10,6.42,2.40,6.42,2.40,-2.41,-2.42,-2.52,4.02,4.01,4.02
115.24,6.35,2.41,6.36,2.41,-2.41,-2.42,-2.53,3.94,3.95,3.94
116.39,6.29,2.41,6.29,2.41,-2.41,-2.41,-2.55,3.88,3.88,3.88
117.55,6.23,2.41,6.24,2.42,-2.41,-2.41,-2.57,3.83,3.83,3.82
118.73,6.18,2.42,6.18,2.41,-2.41,-2.40,-2.58,3.78,3.77,3.76
119.92,6.12,2.40,6.12,2.40,-2.40,-2.40,-2.59,3.72,3.72,3.72
121.12,6.06,2.39,6.06,2.40,-2.40,-2.39,-2.60,3.67,3.67,3.67
122.33,6.00,2.39,6.00,2.38,-2.39,-2.39,-2.60,3.61,3.61,3.61
123.55,5.94,2.38,5.94,2.38,-2.39,-2.38,-2.60,3.56,3.56,3.56
124.79,5.88,2.37,5.89,2.38,-2.38,-2.37,-2.60,3.50,3.51,3.51
126.03,5.83,2.38,5.83,2.38,-2.37,-2.37,-2.60,3.46,3.46,3.45
127.29,5.77,2.37,5.77,2.37,-2.37,-2.36,-2.59,3.41,3.40,3.40
128.57,5.70,2.37,5.70,2.37,-2.36,-2.35,-2.58,3.34,3.34,3.33
129.85,5.63,2.35,5.64,2.36,-2.36,-2.34,-2.57,3.28,3.28,3.28
131.15,5.57,2.35,5.57,2.35,-2.35,-2.33,-2.56,3.22,3.22,3.22
132.46,5.51,2.34,5.52,2.35,-2.35,-2.32,-2.54,3.17,3.17,3.17
133.79,5.46,2.35,5.46,2.34,-2.34,-2.31,-2.52,3.12,3.12,3.11
135.12,5.40,2.34,5.40,2.33,-2.34,-2.30,-2.49,3.07,3.06,3.06
136.48,5.33,2.32,5.34,2.33,-2.33,-2.29,-2.47,3.00,3.01,3.01
137.84,5.27,2.31,5.28,2.32,-2.32,-2.28,-2.44,2.95,2.96,2.96
139.22,5.22,2.32,5.22,2.32,-2.31,-2.27,-2.42,2.91,2.91,2.90
140.61,5.17,2.31,5.17,2.31,-2.30,-2.25,-2.39,2.87,2.87,2.86
142.02,5.10,2.30,5.10,2.30,-2.29,-2.24,-2.36,2.81,2.81,2.80
143.44,5.03,2.27,5.04,2.27,-2.28,-2.23,-2.32,2.76,2.76,2.76
144.87,4.97,2.25,4.97,2.25,-2.26,-2.22,-2.29,2.71,2.71,2.72
146.32,4.91,2.24,4.92,2.24,-2.25,-2.20,-2.26,2.67,2.67,2.67
147.78,4.86,2.23,4.86,2.23,-2.23,-2.19,-2.23,2.63,2.63,2.63
149.26,4.81,2.23,4.81,2.22,-2.22,-2.17,-2.19,2.60,2.59,2.58
150.75,4.74,2.20,4.75,2.20,-2.20,-2.16,-2.16,2.54,2.55,2.54
152.26,4.68,2.18,4.69,2.18,-2.18,-2.14,-2.12,2.50,2.50,2.50
153.78,4.62,2.16,4.63,2.16,-2.17,-2.13,-2.09,2.46,2.46,2.46
155.32,4.57,2.15,4.57,2.15,-2.15,-2.11,-2.06,2.42,2.42,2.42
156.88,4.51,2.14,4.51,2.14,-2.13,-2.09,-2.03,2.38,2.38,2.37
158.44,4.44,2.12,4.44,2.12,-2.12,-2.08,-2.00,2.33,2.33,2.32
160.03,4.37,2.09,4.38,2.09,-2.10,-2.06,-1.97,2.28,2.28,2.28
161.63,4.31,2.07,4.31,2.08,-2.08,-2.04,-1.94,2.24,2.24,2.24
163.24,4.25,2.06,4.25,2.06,-2.06,-2.03,-1.91,2.19,2.19,2.19
164.88,4.19,2.05,4.19,2.04,-2.04,-2.01,-1.88,2.15,2.15,2.14
166.53,4.12,2.03,4.12,2.02,-2.02,-1.99,-1.86,2.10,2.10,2.09
168.19,4.04,1.98,4.05,2.00,-2.00,-1.97,-1.83,2.04,2.05,2.06
169.87,3.98,1.98,3.98,1.98,-1.98,-1.95,-1.81,2.00,2.00,2.00
171.57,3.92,1.97,3.92,1.96,-1.97,-1.93,-1.79,1.96,1.96,1.95
173.29,3.86,1.95,3.86,1.95,-1.95,-1.92,-1.77,1.92,1.91,1.91
175.02,3.79,1.93,3.79,1.93,-1.93,-1.90,-1.75,1.87,1.87,1.86
176.77,3.72,1.91,3.72,1.91,-1.91,-1.88,-1.73,1.81,1.81,1.81
178.54,3.65,1.88,3.65,1.89,-1.89,-1.86,-1.71,1.76,1.76,1.77
180.32,3.58,1.87,3.59,1.87,-1.87,-1.84,-1.70,1.71,1.72,1.71
182.13,3.52,1.84,3.52,1.85,-1.85,-1.82,-1.68,1.67,1.67,1.68
183.95,3.46,1.83,3.46,1.83,-1.83,-1.80,-1.67,1.64,1.64,1.63
185.79,3.39,1.81,3.39,1.81,-1.80,-1.78,-1.66,1.59,1.59,1.58
187.65,3.32,1.78,3.32,1.78,-1.77,-1.75,-1.65,1.55,1.55,1.54
189.52,3.24,1.74,3.25,1.75,-1.75,-1.73,-1.64,1.50,1.50,1.50
191.42,3.17,1.71,3.17,1.71,-1.72,-1.71,-1.63,1.45,1.46,1.46
193.33,3.10,1.68,3.10,1.68,-1.69,-1.69,-1.63,1.42,1.41,1.42
195.27,3.02,1.65,3.02,1.65,-1.65,-1.67,-1.62,1.37,1.37,1.37
197.22,2.94,1.62,2.95,1.62,-1.62,-1.65,-1.61,1.33,1.33,1.32
199.19,2.87,1.58,2.87,1.59,-1.58,-1.63,-1.61,1.30,1.30,1.29
201.18,2.80,1.55,2.80,1.55,-1.54,-1.61,-1.61,1.27,1.26,1.25
203.19,2.72,1.50,2.72,1.50,-1.49,-1.58,-1.61,1.23,1.23,1.22
205.23,2.64,1.44,2.64,1.44,-1.44,-1.56,-1.60,1.20,1.20,1.20
207.28,2.55,1.38,2.56,1.39,-1.39,-1.54,-1.60,1.16,1.17,1.17
209.35,2.47,1.34,2.48,1.34,-1.33,-1.52,-1.60,1.14,1.14,1.13
211.44,2.39,1.29,2.39,1.29,-1.28,-1.50,-1.60,1.12,1.11,1.10
213.56,2.31,1.23,2.31,1.23,-1.22,-1.48,-1.60,1.09,1.08,1.08
215.69,2.21,1.16,2.22,1.17,-1.17,-1.45,-1.60,1.04,1.05,1.05
217.85,2.13,1.11,2.14,1.12,-1.12,-1.43,-1.60,1.01,1.02,1.02
220.03,2.07,1.08,2.07,1.07,-1.08,-1.41,-1.60,0.99,0.99,0.99
222.23,2.01,1.05,2.01,1.05,-1.05,-1.39,-1.60,0.97,0.96,0.96
224.45,1.96,1.01,1.97,1.02,-1.02,-1.36,-1.59,0.94,0.94,0.95
226.70,1.93,1.01,1.93,1.01,-1.01,-1.34,-1.59,0.92,0.92,0.92
228.96,1.91,1.00,1.91,1.00,-1.01,-1.32,-1.59,0.91,0.91,0.91
231.25,1.90,1.01,1.90,1.01,-1.01,-1.30,-1.58,0.89,0.89,0.89
233.57,1.90,1.03,1.90,1.03,-1.03,-1.27,-1.57,0.87,0.87,0.87
235.90,1.90,1.04,1.91,1.05,-1.06,-1.25,-1.56,0.85,0.85,0.86
238.26,1.92,1.09,1.93,1.08,-1.09,-1.23,-1.55,0.83,0.84,0.83
240.64,1.96,1.12,1.96,1.12,-1.13,-1.21,-1.54,0.84,0.83,0.84
243.05,1.99,1.17,1.99,1.17,-1.17,-1.18,-1.53,0.83,0.83,0.82
245.48,2.02,1.21,2.03,1.21,-1.21,-1.16,-1.51,0.82,0.82,0.81
247.93,2.06,1.26,2.06,1.25,-1.25,-1.14,-1.49,0.82,0.81,0.80
250.41,2.09,1.28,2.09,1.29,-1.28,-1.12,-1.47,0.81,0.81,0.81
252.92,2.12,1.32,2.12,1.32,-1.31,-1.09,-1.45,0.81,0.81,0.80
255.45,2.14,1.35,2.14,1.34,-1.34,-1.07,-1.43,0.81,0.80,0.79
258.00,2.15,1.36,2.16,1.36,-1.36,-1.05,-1.40,0.80,0.80,0.79
260.58,2.16,1.37,2.16,1.37,-1.37,-1.03,-1.37,0.79,0.79,0.79
263.19,2.16,1.37,2.16,1.37,-1.38,-1.00,-1.34,0.79,0.79,0.79
265.82,2.16,1.38,2.16,1.38,-1.38,-0.98,-1.31,0.78,0.78,0.78
268.48,2.16,1.38,2.16,1.38,-1.39,-0.96,-1.28,0.78,0.78,0.78
271.16,2.16,1.38,2.16,1.38,-1.39,-0.94,-1.24,0.78,0.78,0.78
273.87,2.16,1.38,2.16,1.38,-1.39,-0.91,-1.20,0.78,0.77,0.78
276.61,2.15,1.37,2.15,1.38,-1.38,-0.89,-1.16,0.77,0.77,0.78
279.38,2.14,1.38,2.15,1.38,-1.38,-0.87,-1.12,0.77,0.77,0.76
282.17,2.13,1.37,2.14,1.37,-1.36,-0.85,-1.08,0.77,0.77,0.76
284.99,2.12,1.35,2.12,1.35,-1.34,-0.82,-1.04,0.78,0.78,0.77
287.84,2.10,1.32,2.10,1.33,-1.32,-0.80,-0.99,0.79,0.79,0.78
290.72,2.07,1.30,2.07,1.29,-1.28,-0.78,-0.95,0.79,0.79,0.77
293.63,2.03,1.25,2.03,1.25,-1.25,-0.75,-0.90,0.79,0.79,0.78
296.57,1.98,1.19,1.99,1.20,-1.20,-0.73,-0.86,0.78,0.79,0.79
299.53,1.93,1.14,1.94,1.14,-1.15,-0.71,-0.81,0.79,0.79,0.79
302.53,1.89,1.08,1.89,1.09,-1.09,-0.69,-0.76,0.80,0.80,0.81
305.55,1.84,1.04,1.84,1.03,-1.03,-0.66,-0.71,0.81,0.81,0.80
308.61,1.79,0.98,1.79,0.98,-0.97,-0.64,-0.66,0.82,0.82,0.81
311.69,1.73,0.91,1.74,0.92,-0.91,-0.62,-0.61,0.82,0.83,0.82
314.81,1.68,0.86,1.68,0.85,-0.85,-0.59,-0.56,0.83,0.83,0.82
317.96,1.62,0.79,1.62,0.79,-0.79,-0.57,-0.51,0.83,0.83,0.83
321.14,1.56,0.72,1.57,0.72,-0.73,-0.55,-0.46,0.83,0.83,0.84
324.35,1.51,0.67,1.51,0.66,-0.67,-0.52,-0.41,0.84,0.84,0.84
327.59,1.46,0.59,1.47,0.61,-0.62,-0.50,-0.36,0.85,0.85,0.87
330.87,1.43,0.57,1.43,0.56,-0.56,-0.47,-0.31,0.87,0.87,0.86
334.18,1.39,0.52,1.39,0.52,-0.51,-0.45,-0.26,0.88,0.88,0.87
337.52,1.34,0.47,1.34,0.46,-0.46,-0.43,-0.21,0.88,0.88,0.87
340.90,1.29,0.40,1.29,0.40,-0.41,-0.40,-0.16,0.88,0.88,0.89
344.30,1.24,0.34,1.25,0.35,-0.36,-0.38,-0.11,0.88,0.89,0.90
347.75,1.21,0.31,1.21,0.31,-0.31,-0.35,-0.06,0.90,0.90,0.90
351.23,1.17,0.27,1.17,0.26,-0.25,-0.33,-0.00,0.92,0.92,0.90
354.74,1.13,0.20,1.13,0.21,-0.19,-0.30,0.05,0.94,0.93,0.93
358.28,1.07,0.15,1.07,0.15,-0.13,-0.27,0.10,0.94,0.94,0.92
361.87,1.01,0.08,1.01,0.08,-0.07,-0.25,0.15,0.94,0.94,0.93
365.49,0.95,0.01,0.95,0.01,-0.01,-0.22,0.20,0.94,0.94,0.94
369.14,0.89,-0.07,0.90,-0.06,0.05,-0.20,0.25,0.94,0.94,0.96
372.83,0.84,-0.12,0.84,-0.12,0.11,-0.17,0.30,0.95,0.95,0.96
376.56,0.79,-0.17,0.80,-0.17,0.17,-0.14,0.35,0.96,0.96,0.96
380.33,0.75,-0.22,0.75,-0.22,0.22,-0.11,0.40,0.98,0.98,0.97
384.13,0.71,-0.28,0.71,-0.27,0.28,-0.09,0.46,0.99,0.99,0.99
387.97,0.67,-0.32,0.67,-0.32,0.33,-0.06,0.51,1.00,1.00,0.99
391.85,0.63,-0.37,0.63,-0.37,0.38,-0.03,0.56,1.01,1.01,1.00
395.77,0.59,-0.42,0.59,-0.42,0.42,0.00,0.61,1.02,1.02,1.01
399.73,0.55,-0.47,0.55,-0.47,0.47,0.03,0.66,1.03,1.03,1.02
403.72,0.51,-0.54,0.52,-0.52,0.52,0.06,0.71,1.03,1.04,1.05
407.76,0.48,-0.56,0.48,-0.57,0.57,0.09,0.76,1.05,1.05,1.04
411.84,0.44,-0.61,0.45,-0.61,0.61,0.12,0.81,1.05,1.05,1.05
415.96,0.41,-0.66,0.41,-0.65,0.65,0.15,0.86,1.06,1.06,1.07
420.12,0.38,-0.69,0.39,-0.69,0.68,0.19,0.91,1.07,1.07,1.07
424.32,0.36,-0.72,0.36,-0.73,0.72,0.22,0.96,1.08,1.08,1.08
428.56,0.34,-0.76,0.34,-0.75,0.75,0.26,1.00,1.10,1.10,1.10
432.85,0.32,-0.79,0.32,-0.78,0.79,0.29,1.05,1.11,1.11,1.11
437.18,0.29,-0.81,0.29,-0.82,0.83,0.33,1.09,1.12,1.12,1.10
441.55,0.25,-0.86,0.26,-0.86,0.87,0.36,1.14,1.13,1.13,1.11
445.96,0.21,-0.91,0.21,-0.91,0.92,0.40,1.18,1.13,1.13,1.12
450.42,0.17,-0.96,0.17,-0.96,0.96,0.44,1.22,1.14,1.13,1.13
454.93,0.12,-1.02,0.13,-1.02,1.01,0.48,1.26,1.13,1.14,1.14
459.48,0.08,-1.07,0.09,-1.07,1.06,0.52,1.30,1.14,1.14,1.15
464.07,0.05,-1.12,0.05,-1.12,1.10,0.56,1.34,1.16,1.16,1.17
468.71,0.02,-1.16,0.03,-1.15,1.15,0.60,1.37,1.17,1.17,1.18
473.40,0.00,-1.18,0.00,-1.19,1.19,0.64,1.40,1.19,1.19,1.18
478.13,-0.03,-1.22,-0.02,-1.22,1.23,0.69,1.43,1.20,1.20,1.19
482.91,-0.05,-1.25,-0.05,-1.25,1.26,0.73,1.46,1.21,1.21,1.20
487.74,-0.08,-1.29,-0.08,-1.29,1.29,0.78,1.49,1.22,1.22,1.21
492.62,-0.10,-1.32,-0.10,-1.32,1.32,0.83,1.51,1.23,1.22,1.22
497.55,-0.13,-1.36,-0.12,-1.36,1.35,0.87,1.53,1.22,1.23,1.23
502.52,-0.14,-1.38,-0.14,-1.38,1.37,0.92,1.55,1.24,1.24,1.24
507.55,-0.15,-1.41,-0.14,-1.40,1.39,0.98,1.56,1.24,1.25,1.26
512.62,-0.14,-1.41,-0.14,-1.42,1.41,1.03,1.58,1.27,1.27,1.27
517.75,-0.14,-1.43,-0.13,-1.42,1.42,1.08,1.59,1.28,1.29,1.29
522.93,-0.13,-1.43,-0.13,-1.43,1.43,1.14,1.60,1.31,1.31,1.30
528.16,-0.13,-1.44,-0.13,-1.44,1.45,1.19,1.60,1.32,1.32,1.31
