frequency,raw,error,smoothed,error_smoothed,equalization,parametric_eq,fixed_band_eq,equalized_raw,equalized_smoothed,target
20.00,-2.70,-6.63,-2.70,-6.63,6.63,6.40,2.62,3.93,3.93,3.93
20.20,-2.67,-6.59,-2.67,-6.59,6.59,6.39,2.70,3.92,3.92,3.92
20.40,-2.65,-6.56,-2.65,-6.56,6.56,6.38,2.77,3.90,3.91,3.91
20.61,-2.62,-6.52,-2.62,-6.52,6.52,6.37,2.85,3.90,3.90,3.90
20.81,-2.59,-6.47,-2.59,-6.48,6.48,6.36,2.94,3.89,3.89,3.88
21.02,-2.57,-6.44,-2.57,-6.44,6.45,6.34,3.02,3.88,3.88,3.87
21.23,-2.54,-6.40,-2.54,-6.41,6.41,6.33,3.11,3.87,3.87,3.86
21.44,-2.52,-6.39,-2.52,-6.38,6.38,6.31,3.20,3.86,3.86,3.87
21.66,-2.50,-6.35,-2.50,-6.35,6.35,6.29,3.29,3.84,3.85,3.85
21.87,-2.47,-6.32,-2.47,-6.32,6.31,6.28,3.38,3.84,3.84,3.85
22.09,-2.45,-6.28,-2.45,-6.28,6.28,6.26,3.48,3.83,3.83,3.83
22.31,-2.43,-6.25,-2.43,-6.25,6.25,6.24,3.58,3.82,3.82,3.82
22.54,-2.40,-6.21,-2.40,-6.21,6.22,6.22,3.68,3.81,3.82,3.81
22.76,-2.37,-6.18,-2.37,-6.18,6.19,6.20,3.79,3.82,3.81,3.81
22.99,-2.35,-6.15,-2.35,-6.15,6.16,6.18,3.90,3.81,3.81,3.80
23.22,-2.33,-6.12,-2.33,-6.13,6.13,6.16,4.01,3.80,3.80,3.79
23.45,-2.32,-6.12,-2.32,-6.11,6.11,6.13,4.12,3.79,3.80,3.80
23.69,-2.30,-6.09,-2.30,-6.09,6.10,6.11,4.23,3.79,3.79,3.79
23.92,-2.29,-6.07,-2.29,-6.08,6.08,6.09,4.35,3.79,3.79,3.78
24.16,-2.27,-6.06,-2.27,-6.06,6.06,6.07,4.47,3.79,3.79,3.79
24.40,-2.26,-6.05,-2.26,-6.05,6.04,6.05,4.59,3.78,3.78,3.79
24.65,-2.25,-6.03,-2.25,-6.03,6.02,6.02,4.71,3.77,3.77,3.78
24.89,-2.23,-6.01,-2.23,-6.01,6.00,6.00,4.83,3.77,3.77,3.78
25.14,-2.20,-5.97,-2.20,-5.97,5.97,5.98,4.96,3.77,3.77,3.77
25.39,-2.17,-5.94,-2.17,-5.94,5.94,5.95,5.09,3.77,3.77,3.77
25.65,-2.14,-5.91,-2.14,-5.91,5.91,5.93,5.21,3.77,3.77,3.77
25.91,-2.11,-5.88,-2.11,-5.88,5.88,5.91,5.34,3.77,3.77,3.77
26.16,-2.08,-5.86,-2.08,-5.85,5.86,5.88,5.47,3.78,3.78,3.78
26.43,-2.05,-5.82,-2.05,-5.83,5.83,5.86,5.59,3.78,3.78,3.77
26.69,-2.03,-5.80,-2.03,-5.80,5.81,5.84,5.72,3.78,3.78,3.77
26.96,-2.01,-5.78,-2.01,-5.78,5.79,5.82,5.84,3.78,3.78,3.77
27.23,-2.00,-5.77,-2.00,-5.77,5.77,5.79,5.96,3.77,3.77,3.77
27.50,-1.99,-5.76,-1.99,-5.76,5.76,5.77,6.08,3.77,3.77,3.77
27.77,-1.97,-5.75,-1.97,-5.75,5.75,5.75,6.20,3.78,3.77,3.78
28.05,-1.96,-5.73,-1.96,-5.73,5.74,5.73,6.30,3.77,3.78,3.77
28.33,-1.94,-5.72,-1.94,-5.72,5.72,5.71,6.41,3.78,3.78,3.78
28.62,-1.92,-5.70,-1.93,-5.71,5.71,5.69,6.51,3.78,3.78,3.78
28.90,-1.91,-5.70,-1.90,-5.69,5.68,5.67,6.60,3.77,3.78,3.79
29.19,-1.88,-5.67,-1.88,-5.67,5.66,5.65,6.68,3.78,3.78,3.79
29.48,-1.85,-5.63,-1.85,-5.64,5.63,5.63,6.76,3.78,3.78,3.78
29.78,-1.82,-5.60,-1.82,-5.60,5.60,5.61,6.83,3.78,3.78,3.78
30.08,-1.79,-5.57,-1.79,-5.56,5.57,5.59,6.88,3.78,3.78,3.78
30.38,-1.76,-5.52,-1.76,-5.53,5.53,5.57,6.93,3.77,3.77,3.76
30.68,-1.73,-5.49,-1.73,-5.49,5.50,5.55,6.97,3.77,3.77,3.76
30.99,-1.70,-5.46,-1.70,-5.46,5.46,5.53,6.99,3.76,3.76,3.76
31.30,-1.68,-5.44,-1.68,-5.43,5.43,5.51,7.01,3.75,3.75,3.76
31.61,-1.66,-5.41,-1.66,-5.41,5.41,5.49,7.02,3.75,3.75,3.75
31.93,-1.64,-5.37,-1.64,-5.38,5.39,5.47,7.01,3.75,3.74,3.73
32.24,-1.63,-5.37,-1.63,-5.36,5.37,5.46,6.99,3.74,3.74,3.74
32.57,-1.62,-5.34,-1.62,-5.35,5.36,5.44,6.97,3.74,3.74,3.72
32.89,-1.62,-5.34,-1.62,-5.34,5.35,5.42,6.93,3.73,3.73,3.72
33.22,-1.63,-5.34,-1.63,-5.34,5.34,5.41,6.88,3.71,3.71,3.71
33.55,-1.64,-5.35,-1.64,-5.35,5.34,5.39,6.83,3.70,3.70,3.71
33.89,-1.65,-5.35,-1.65,-5.35,5.34,5.37,6.77,3.69,3.69,3.70
34.23,-1.65,-5.33,-1.65,-5.34,5.33,5.36,6.70,3.68,3.68,3.68
34.57,-1.65,-5.33,-1.65,-5.33,5.33,5.34,6.62,3.68,3.68,3.68
34.92,-1.65,-5.31,-1.65,-5.32,5.33,5.32,6.54,3.67,3.67,3.66
35.27,-1.65,-5.33,-1.65,-5.32,5.32,5.31,6.46,3.67,3.67,3.68
35.62,-1.65,-5.30,-1.65,-5.31,5.31,5.29,6.37,3.66,3.66,3.65
35.97,-1.65,-5.30,-1.65,-5.30,5.29,5.27,6.28,3.64,3.64,3.65
36.33,-1.65,-5.28,-1.65,-5.28,5.28,5.26,6.18,3.63,3.63,3.63
36.70,-1.65,-5.26,-1.65,-5.26,5.26,5.24,6.09,3.61,3.61,3.61
37.06,-1.65,-5.24,-1.65,-5.24,5.25,5.22,5.99,3.59,3.59,3.59
37.43,-1.65,-5.22,-1.65,-5.22,5.23,5.21,5.89,3.58,3.58,3.57
37.81,-1.65,-5.21,-1.65,-5.20,5.21,5.19,5.79,3.56,3.56,3.56
38.19,-1.65,-5.18,-1.65,-5.19,5.19,5.17,5.69,3.53,3.53,3.53
38.57,-1.65,-5.16,-1.65,-5.17,5.16,5.16,5.60,3.51,3.51,3.51
38.95,-1.65,-5.15,-1.65,-5.14,5.14,5.14,5.50,3.49,3.49,3.50
39.34,-1.65,-5.12,-1.65,-5.12,5.12,5.12,5.41,3.47,3.47,3.47
39.74,-1.65,-5.09,-1.65,-5.10,5.10,5.10,5.32,3.45,3.45,3.44
40.14,-1.65,-5.07,-1.65,-5.07,5.07,5.08,5.23,3.42,3.42,3.42
40.54,-1.65,-5.05,-1.65,-5.05,5.05,5.06,5.14,3.40,3.40,3.40
40.94,-1.65,-5.02,-1.65,-5.03,5.03,5.04,5.06,3.38,3.38,3.37
41.35,-1.65,-5.01,-1.65,-5.01,5.01,5.02,4.97,3.36,3.36,3.36
41.76,-1.65,-4.98,-1.65,-4.99,4.98,5.00,4.90,3.33,3.33,3.33
42.18,-1.65,-4.97,-1.65,-4.97,4.96,4.97,4.82,3.31,3.31,3.32
42.60,-1.65,-4.94,-1.65,-4.94,4.94,4.95,4.75,3.29,3.29,3.29
43.03,-1.65,-4.92,-1.65,-4.92,4.92,4.93,4.68,3.26,3.26,3.27
43.46,-1.65,-4.88,-1.65,-4.89,4.89,4.90,4.62,3.24,3.24,3.23
43.90,-1.65,-4.86,-1.65,-4.86,4.86,4.88,4.55,3.21,3.21,3.21
44.33,-1.65,-4.83,-1.65,-4.84,4.84,4.85,4.49,3.19,3.19,3.18
44.78,-1.65,-4.81,-1.65,-4.81,4.81,4.82,4.44,3.16,3.16,3.16
45.23,-1.65,-4.79,-1.65,-4.78,4.78,4.79,4.39,3.13,3.13,3.14
45.68,-1.65,-4.74,-1.65,-4.75,4.75,4.77,4.34,3.10,3.10,3.09
46.13,-1.65,-4.71,-1.66,-4.72,4.72,4.74,4.29,3.07,3.06,3.06
46.60,-1.66,-4.68,-1.66,-4.69,4.68,4.70,4.25,3.02,3.02,3.02
47.06,-1.67,-4.66,-1.66,-4.65,4.64,4.67,4.21,2.97,2.98,2.99
47.53,-1.66,-4.61,-1.66,-4.61,4.59,4.64,4.18,2.93,2.93,2.95
48.01,-1.64,-4.54,-1.65,-4.55,4.54,4.61,4.14,2.90,2.89,2.90
48.49,-1.63,-4.49,-1.63,-4.49,4.49,4.57,4.11,2.86,2.86,2.86
48.97,-1.61,-4.42,-1.61,-4.42,4.43,4.53,4.09,2.82,2.82,2.81
49.46,-1.59,-4.37,-1.59,-4.37,4.37,4.50,4.06,2.78,2.78,2.78
49.96,-1.58,-4.30,-1.58,-4.31,4.32,4.46,4.04,2.74,2.74,2.72
50.46,-1.57,-4.26,-1.57,-4.26,4.27,4.42,4.02,2.69,2.69,2.69
50.96,-1.57,-4.22,-1.57,-4.21,4.22,4.38,4.00,2.65,2.65,2.65
51.47,-1.56,-4.17,-1.56,-4.17,4.17,4.34,3.98,2.61,2.61,2.61
51.99,-1.56,-4.12,-1.56,-4.13,4.13,4.30,3.97,2.57,2.57,2.56
52.51,-1.56,-4.09,-1.56,-4.09,4.09,4.26,3.95,2.53,2.53,2.53
53.03,-1.56,-4.06,-1.56,-4.05,4.05,4.21,3.94,2.49,2.49,2.50
53.56,-1.56,-4.01,-1.56,-4.01,4.01,4.17,3.93,2.45,2.45,2.45
54.10,-1.57,-3.97,-1.57,-3.98,3.98,4.12,3.92,2.41,2.41,2.40
54.64,-1.58,-3.94,-1.58,-3.94,3.95,4.08,3.91,2.37,2.37,2.36
55.18,-1.59,-3.91,-1.59,-3.91,3.92,4.03,3.90,2.33,2.33,2.32
55.74,-1.60,-3.87,-1.60,-3.89,3.89,3.98,3.88,2.29,2.29,2.27
56.29,-1.62,-3.87,-1.62,-3.86,3.87,3.93,3.87,2.25,2.25,2.25
56.86,-1.64,-3.85,-1.64,-3.84,3.84,3.88,3.86,2.20,2.20,2.21
57.42,-1.65,-3.81,-1.66,-3.82,3.81,3.83,3.84,2.16,2.16,2.16
58.00,-1.67,-3.79,-1.67,-3.79,3.78,3.78,3.83,2.11,2.12,2.12
58.58,-1.67,-3.76,-1.67,-3.76,3.75,3.73,3.81,2.08,2.08,2.09
59.16,-1.66,-3.72,-1.66,-3.72,3.71,3.68,3.79,2.05,2.05,2.06
59.76,-1.65,-3.66,-1.65,-3.67,3.66,3.63,3.76,2.01,2.01,2.01
60.35,-1.65,-3.61,-1.65,-3.61,3.61,3.58,3.74,1.96,1.96,1.96
60.96,-1.65,-3.55,-1.65,-3.55,3.55,3.53,3.71,1.90,1.90,1.90
61.57,-1.65,-3.49,-1.65,-3.49,3.50,3.47,3.68,1.84,1.84,1.84
62.18,-1.65,-3.43,-1.65,-3.43,3.44,3.42,3.64,1.79,1.79,1.78
62.80,-1.65,-3.37,-1.65,-3.37,3.38,3.36,3.60,1.73,1.73,1.72
63.43,-1.65,-3.32,-1.65,-3.32,3.32,3.31,3.56,1.67,1.67,1.67
64.07,-1.65,-3.27,-1.65,-3.27,3.27,3.26,3.52,1.62,1.62,1.62
64.71,-1.65,-3.22,-1.65,-3.22,3.22,3.20,3.47,1.57,1.57,1.57
65.35,-1.65,-3.16,-1.65,-3.17,3.16,3.15,3.42,1.51,1.51,1.51
66.01,-1.65,-3.11,-1.65,-3.11,3.11,3.09,3.36,1.46,1.46,1.46
66.67,-1.65,-3.07,-1.65,-3.06,3.06,3.04,3.31,1.41,1.41,1.42
67.33,-1.65,-3.00,-1.65,-3.01,3.01,2.98,3.25,1.36,1.36,1.35
68.01,-1.65,-2.95,-1.65,-2.95,2.95,2.93,3.18,1.30,1.30,1.30
68.69,-1.65,-2.90,-1.65,-2.90,2.90,2.87,3.12,1.25,1.25,1.25
69.37,-1.65,-2.85,-1.65,-2.85,2.84,2.81,3.05,1.19,1.19,1.20
70.07,-1.65,-2.79,-1.65,-2.79,2.79,2.76,2.98,1.13,1.13,1.14
70.77,-1.65,-2.72,-1.65,-2.73,2.73,2.70,2.91,1.08,1.08,1.07
71.48,-1.65,-2.67,-1.65,-2.67,2.67,2.65,2.84,1.02,1.02,1.02
72.19,-1.65,-2.61,-1.65,-2.61,2.61,2.59,2.77,0.96,0.96,0.96
72.91,-1.65,-2.54,-1.65,-2.55,2.55,2.54,2.69,0.90,0.90,0.89
73.64,-1.65,-2.49,-1.65,-2.49,2.49,2.48,2.62,0.84,0.84,0.84
74.38,-1.65,-2.43,-1.65,-2.43,2.44,2.43,2.54,0.78,0.78,0.78
75.12,-1.65,-2.38,-1.65,-2.38,2.38,2.37,2.47,0.73,0.73,0.73
75.87,-1.65,-2.33,-1.65,-2.33,2.33,2.32,2.39,0.68,0.68,0.68
76.63,-1.65,-2.27,-1.65,-2.28,2.28,2.26,2.32,0.63,0.63,0.62
77.40,-1.65,-2.23,-1.65,-2.23,2.23,2.21,2.24,0.58,0.58,0.58
78.17,-1.65,-2.17,-1.65,-2.18,2.18,2.16,2.17,0.53,0.53,0.52
78.95,-1.65,-2.13,-1.65,-2.13,2.13,2.10,2.09,0.48,0.48,0.48
79.74,-1.65,-2.08,-1.65,-2.08,2.08,2.05,2.02,0.43,0.43,0.43
80.54,-1.65,-2.03,-1.65,-2.03,2.03,1.99,1.94,0.38,0.38,0.38
81.35,-1.65,-1.97,-1.65,-1.98,1.98,1.94,1.87,0.33,0.33,0.32
82.16,-1.65,-1.94,-1.65,-1.93,1.93,1.89,1.80,0.28,0.28,0.29
82.98,-1.65,-1.88,-1.65,-1.88,1.88,1.83,1.73,0.23,0.23,0.23
83.81,-1.65,-1.83,-1.65,-1.83,1.83,1.78,1.66,0.18,0.18,0.18
84.65,-1.65,-1.77,-1.65,-1.77,1.77,1.73,1.59,0.12,0.12,0.12
85.50,-1.65,-1.71,-1.65,-1.72,1.72,1.68,1.52,0.07,0.07,0.06
86.35,-1.65,-1.66,-1.65,-1.66,1.66,1.63,1.45,0.01,0.01,0.01
87.22,-1.65,-1.61,-1.65,-1.61,1.61,1.57,1.38,-0.04,-0.04,-0.04
88.09,-1.65,-1.55,-1.65,-1.55,1.55,1.52,1.32,-0.10,-0.10,-0.10
88.97,-1.65,-1.49,-1.65,-1.50,1.49,1.47,1.25,-0.16,-0.16,-0.16
89.86,-1.65,-1.44,-1.65,-1.44,1.44,1.42,1.19,-0.21,-0.21,-0.21
90.76,-1.65,-1.38,-1.65,-1.38,1.38,1.37,1.13,-0.27,-0.27,-0.27
91.66,-1.65,-1.31,-1.65,-1.32,1.32,1.32,1.07,-0.33,-0.33,-0.34
92.58,-1.65,-1.26,-1.65,-1.26,1.26,1.27,1.00,-0.39,-0.39,-0.39
93.51,-1.65,-1.21,-1.65,-1.21,1.20,1.22,0.94,-0.45,-0.45,-0.44
94.44,-1.65,-1.15,-1.65,-1.15,1.14,1.17,0.88,-0.51,-0.51,-0.50
95.39,-1.65,-1.08,-1.65,-1.08,1.08,1.12,0.83,-0.57,-0.57,-0.57
96.34,-1.65,-1.01,-1.65,-1.01,1.02,1.07,0.77,-0.64,-0.64,-0.64
97.30,-1.65,-0.95,-1.65,-0.95,0.95,1.02,0.71,-0.70,-0.70,-0.70
98.28,-1.65,-0.88,-1.65,-0.88,0.89,0.97,0.66,-0.76,-0.76,-0.77
99.26,-1.65,-0.82,-1.65,-0.82,0.83,0.92,0.60,-0.82,-0.83,-0.83
100.25,-1.65,-0.76,-1.65,-0.76,0.76,0.87,0.55,-0.89,-0.89,-0.89
101.25,-1.65,-0.71,-1.65,-0.70,0.70,0.82,0.49,-0.95,-0.95,-0.94
102.27,-1.64,-0.64,-1.64,-0.65,0.64,0.77,0.44,-1.00,-1.01,-1.00
103.29,-1.64,-0.58,-1.64,-0.58,0.58,0.73,0.39,-1.06,-1.06,-1.06
104.32,-1.63,-0.52,-1.63,-0.52,0.52,0.68,0.34,-1.11,-1.11,-1.11
105.37,-1.62,-0.45,-1.62,-0.46,0.46,0.63,0.29,-1.16,-1.16,-1.17
106.42,-1.62,-0.40,-1.62,-0.40,0.41,0.58,0.24,-1.21,-1.21,-1.22
107.48,-1.63,-0.35,-1.63,-0.36,0.36,0.53,0.19,-1.27,-1.27,-1.28
108.56,-1.65,-0.32,-1.65,-0.32,0.32,0.49,0.15,-1.33,-1.33,-1.33
109.64,-1.67,-0.28,-1.67,-0.28,0.28,0.44,0.10,-1.39,-1.39,-1.39
110.74,-1.69,-0.24,-1.69,-0.25,0.24,0.39,0.06,-1.45,-1.45,-1.45
111.85,-1.72,-0.21,-1.72,-0.21,0.21,0.34,0.01,-1.51,-1.51,-1.51
112.97,-1.74,-0.18,-1.74,-0.18,0.18,0.30,-0.03,-1.56,-1.57,-1.56
114.10,-1.77,-0.15,-1.77,-0.15,0.14,0.25,-0.07,-1.63,-1.63,-1.62
115.24,-1.81,-0.11,-1.81,-0.11,0.12,0.20,-0.11,-1.70,-1.69,-1.70
116.39,-1.84,-0.08,-1.84,-0.08,0.09,0.16,-0.15,-1.75,-1.75,-1.76
117.55,-1.87,-0.05,-1.87,-0.05,0.06,0.11,-0.18,-1.81,-1.81,-1.82
118.73,-1.90,-0.02,-1.90,-0.03,0.03,0.06,-0.22,-1.87,-1.87,-1.88
119.92,-1.92,-0.00,-1.93,-0.00,0.00,0.01,-0.25,-1.92,-1.92,-1.92
121.12,-1.95,0.02,-1.95,0.03,-0.03,-0.03,-0.29,-1.98,-1.98,-1.97
122.33,-1.97,0.06,-1.97,0.06,-0.06,-0.08,-0.32,-2.04,-2.03,-2.03
123.55,-1.98,0.10,-1.98,0.10,-0.11,-0.12,-0.35,-2.09,-2.09,-2.08
124.79,-1.99,0.14,-1.99,0.14,-0.15,-0.17,-0.38,-2.14,-2.14,-2.13
126.03,-1.99,0.20,-1.99,0.20,-0.20,-0.22,-0.41,-2.19,-2.20,-2.19
127.29,-1.99,0.25,-1.99,0.26,-0.26,-0.26,-0.43,-2.25,-2.25,-2.24
128.57,-1.98,0.33,-1.98,0.32,-0.32,-0.31,-0.46,-2.30,-2.30,-2.31
129.85,-1.97,0.39,-1.97,0.39,-0.38,-0.36,-0.48,-2.35,-2.35,-2.36
131.15,-1.97,0.45,-1.97,0.45,-0.44,-0.40,-0.50,-2.41,-2.41,-2.42
132.46,-1.97,0.50,-1.97,0.50,-0.50,-0.45,-0.52,-2.47,-2.47,-2.47
133.79,-1.97,0.56,-1.97,0.56,-0.56,-0.49,-0.54,-2.53,-2.53,-2.53
135.12,-1.97,0.61,-1.97,0.61,-0.62,-0.54,-0.56,-2.59,-2.59,-2.58
136.48,-1.97,0.66,-1.97,0.66,-0.67,-0.58,-0.58,-2.64,-2.64,-2.63
137.84,-1.96,0.72,-1.96,0.72,-0.73,-0.63,-0.60,-2.69,-2.69,-2.68
139.22,-1.95,0.79,-1.95,0.78,-0.78,-0.67,-0.62,-2.73,-2.73,-2.74
140.61,-1.95,0.83,-1.95,0.84,-0.83,-0.72,-0.63,-2.78,-2.78,-2.78
142.02,-1.95,0.89,-1.95,0.88,-0.87,-0.76,-0.65,-2.82,-2.82,-2.84
143.44,-1.96,0.92,-1.96,0.92,-0.91,-0.80,-0.67,-2.87,-2.87,-2.88
144.87,-1.97,0.95,-1.97,0.95,-0.95,-0.85,-0.68,-2.92,-2.92,-2.92
146.32,-1.99,0.98,-1.99,0.97,-0.97,-0.89,-0.70,-2.97,-2.97,-2.97
147.78,-2.02,0.99,-2.02,1.00,-1.00,-0.93,-0.71,-3.02,-3.01,-3.01
149.26,-2.04,1.02,-2.04,1.01,-1.01,-0.97,-0.73,-3.05,-3.06,-3.06
150.75,-2.07,1.03,-2.07,1.03,-1.02,-1.01,-0.74,-3.10,-3.10,-3.10
152.26,-2.10,1.04,-2.10,1.04,-1.04,-1.05,-0.76,-3.14,-3.14,-3.14
153.78,-2.13,1.05,-2.13,1.04,-1.05,-1.09,-0.77,-3.18,-3.18,-3.18
155.32,-2.17,1.05,-2.17,1.05,-1.06,-1.13,-0.79,-3.23,-3.23,-3.22
156.88,-2.20,1.07,-2.20,1.07,-1.07,-1.17,-0.81,-3.27,-3.27,-3.27
158.44,-2.23,1.09,-2.23,1.09,-1.09,-1.21,-0.82,-3.32,-3.32,-3.32
160.03,-2.25,1.11,-2.25,1.11,-1.11,-1.25,-0.84,-3.36,-3.36,-3.36
161.63,-2.27,1.13,-2.27,1.13,-1.13,-1.29,-0.86,-3.40,-3.40,-3.40
163.24,-2.29,1.16,-2.29,1.16,-1.16,-1.32,-0.88,-3.45,-3.45,-3.45
164.88,-2.31,1.19,-2.31,1.19,-1.20,-1.36,-0.90,-3.51,-3.51,-3.50
166.53,-2.32,1.23,-2.32,1.23,-1.24,-1.39,-0.92,-3.56,-3.56,-3.55
168.19,-2.31,1.27,-2.31,1.28,-1.29,-1.42,-0.94,-3.60,-3.60,-3.58
169.87,-2.30,1.34,-2.30,1.34,-1.34,-1.46,-0.96,-3.64,-3.64,-3.64
171.57,-2.28,1.41,-2.29,1.40,-1.39,-1.49,-0.98,-3.67,-3.68,-3.69
173.29,-2.28,1.45,-2.28,1.46,-1.44,-1.52,-1.00,-3.72,-3.72,-3.73
175.02,-2.28,1.50,-2.28,1.50,-1.48,-1.55,-1.03,-3.77,-3.77,-3.78
176.77,-2.29,1.54,-2.29,1.53,-1.53,-1.58,-1.05,-3.82,-3.82,-3.83
178.54,-2.31,1.56,-2.31,1.56,-1.56,-1.60,-1.08,-3.87,-3.87,-3.87
180.32,-2.34,1.59,-2.34,1.58,-1.59,-1.63,-1.10,-3.93,-3.92,-3.93
182.13,-2.36,1.60,-2.36,1.60,-1.61,-1.65,-1.13,-3.97,-3.97,-3.96
183.95,-2.39,1.62,-2.39,1.62,-1.62,-1.68,-1.16,-4.01,-4.01,-4.01
185.79,-2.42,1.64,-2.42,1.63,-1.63,-1.70,-1.19,-4.05,-4.05,-4.06
187.65,-2.45,1.65,-2.45,1.65,-1.65,-1.72,-1.22,-4.10,-4.10,-4.10
189.52,-2.48,1.66,-2.48,1.66,-1.66,-1.74,-1.25,-4.14,-4.14,-4.14
191.42,-2.51,1.67,-2.51,1.67,-1.67,-1.76,-1.28,-4.18,-4.19,-4.18
193.33,-2.54,1.68,-2.54,1.68,-1.69,-1.78,-1.31,-4.23,-4.23,-4.22
195.27,-2.57,1.70,-2.57,1.70,-1.70,-1.79,-1.34,-4.27,-4.27,-4.27
197.22,-2.59,1.73,-2.59,1.72,-1.72,-1.81,-1.38,-4.31,-4.31,-4.32
199.19,-2.61,1.74,-2.61,1.74,-1.74,-1.82,-1.41,-4.35,-4.35,-4.35
201.18,-2.63,1.76,-2.63,1.76,-1.76,-1.84,-1.44,-4.39,-4.39,-4.39
203.19,-2.64,1.78,-2.64,1.78,-1.78,-1.85,-1.48,-4.43,-4.42,-4.42
205.23,-2.64,1.80,-2.64,1.80,-1.81,-1.86,-1.51,-4.45,-4.45,-4.44
207.28,-2.64,1.83,-2.64,1.84,-1.84,-1.87,-1.55,-4.48,-4.48,-4.47
209.35,-2.63,1.88,-2.63,1.87,-1.87,-1.88,-1.58,-4.50,-4.50,-4.51
211.44,-2.62,1.92,-2.62,1.91,-1.90,-1.89,-1.62,-4.53,-4.53,-4.54
213.56,-2.62,1.94,-2.62,1.94,-1.94,-1.90,-1.66,-4.56,-4.56,-4.56
215.69,-2.62,1.97,-2.62,1.97,-1.97,-1.90,-1.69,-4.59,-4.59,-4.59
217.85,-2.62,2.00,-2.62,2.00,-2.00,-1.91,-1.73,-4.62,-4.62,-4.62
220.03,-2.62,2.03,-2.62,2.03,-2.03,-1.92,-1.76,-4.65,-4.65,-4.65
222.23,-2.62,2.06,-2.62,2.05,-2.05,-1.92,-1.79,-4.67,-4.67,-4.68
224.45,-2.62,2.07,-2.62,2.08,-2.07,-1.92,-1.83,-4.69,-4.69,-4.69
226.70,-2.62,2.10,-2.62,2.09,-2.10,-1.93,-1.86,-4.72,-4.72,-4.72
228.96,-2.62,2.11,-2.62,2.11,-2.12,-1.93,-1.89,-4.74,-4.74,-4.73
231.25,-2.62,2.13,-2.62,2.13,-2.14,-1.93,-1.92,-4.76,-4.76,-4.75
233.57,-2.61,2.16,-2.61,2.16,-2.16,-1.94,-1.95,-4.77,-4.77,-4.77
235.90,-2.60,2.18,-2.60,2.18,-2.18,-1.94,-1.98,-4.78,-4.78,-4.78
238.26,-2.60,2.21,-2.60,2.20,-2.19,-1.94,-2.00,-4.79,-4.79,-4.81
240.64,-2.60,2.20,-2.60,2.21,-2.20,-1.94,-2.03,-4.80,-4.80,-4.80
243.05,-2.60,2.22,-2.60,2.22,-2.21,-1.94,-2.05,-4.81,-4.81,-4.82
245.48,-2.62,2.21,-2.62,2.21,-2.20,-1.94,-2.07,-4.83,-4.82,-4.83
247.93,-2.63,2.21,-2.63,2.20,-2.20,-1.94,-2.09,-4.83,-4.83,-4.84
250.41,-2.66,2.17,-2.66,2.18,-2.18,-1.94,-2.10,-4.84,-4.84,-4.83
252.92,-2.68,2.16,-2.68,2.16,-2.16,-1.95,-2.12,-4.84,-4.84,-4.84
255.45,-2.71,2.14,-2.71,2.13,-2.14,-1.95,-2.13,-4.85,-4.85,-4.85
258.00,-2.74,2.11,-2.74,2.11,-2.11,-1.95,-2.14,-4.85,-4.85,-4.85
260.58,-2.77,2.08,-2.77,2.08,-2.08,-1.95,-2.15,-4.85,-4.85,-4.85
263.19,-2.80,2.05,-2.80,2.05,-2.05,-1.95,-2.16,-4.85,-4.85,-4.85
265.82,-2.83,2.03,-2.83,2.02,-2.02,-1.95,-2.17,-4.85,-4.86,-4.86
268.48,-2.86,2.00,-2.86,2.00,-2.00,-1.95,-2.17,-4.86,-4.86,-4.86
271.16,-2.89,1.97,-2.89,1.97,-1.97,-1.96,-2.18,-4.86,-4.86,-4.86
273.87,-2.91,1.95,-2.92,1.95,-1.95,-1.96,-2.18,-4.86,-4.87,-4.86
276.61,-2.94,1.92,-2.94,1.93,-1.93,-1.96,-2.18,-4.87,-4.87,-4.86
279.38,-2.95,1.93,-2.95,1.92,-1.92,-1.96,-2.18,-4.87,-4.87,-4.88
282.17,-2.96,1.92,-2.96,1.91,-1.91,-1.97,-2.19,-4.87,-4.88,-4.88
284.99,-2.97,1.90,-2.97,1.90,-1.91,-1.97,-2.19,-4.88,-4.88,-4.87
287.84,-2.97,1.89,-2.97,1.90,-1.91,-1.98,-2.19,-4.88,-4.87,-4.86
290.72,-2.96,1.91,-2.96,1.90,-1.90,-1.98,-2.19,-4.86,-4.86,-4.87
293.63,-2.95,1.91,-2.95,1.91,-1.90,-1.99,-2.19,-4.85,-4.85,-4.86
296.57,-2.94,1.91,-2.94,1.91,-1.89,-1.99,-2.19,-4.84,-4.84,-4.85
299.53,-2.94,1.91,-2.94,1.90,-1.89,-2.00,-2.19,-4.83,-4.83,-4.85
302.53,-2.95,1.88,-2.95,1.89,-1.88,-2.01,-2.19,-4.83,-4.83,-4.83
305.55,-2.96,1.88,-2.96,1.87,-1.87,-2.01,-2.20,-4.84,-4.84,-4.84
308.61,-2.97,1.86,-2.97,1.86,-1.87,-2.02,-2.20,-4.84,-4.84,-4.83
311.69,-2.97,1.85,-2.97,1.86,-1.86,-2.03,-2.20,-4.83,-4.83,-4.82
314.81,-2.96,1.86,-2.96,1.85,-1.86,-2.04,-2.21,-4.82,-4.82,-4.82
317.96,-2.95,1.86,-2.95,1.86,-1.86,-2.05,-2.22,-4.81,-4.81,-4.81
321.14,-2.93,1.87,-2.93,1.87,-1.87,-2.06,-2.23,-4.80,-4.80,-4.80
324.35,-2.91,1.89,-2.91,1.88,-1.88,-2.08,-2.24,-4.79,-4.79,-4.80
327.59,-2.88,1.89,-2.88,1.90,-1.90,-2.09,-2.25,-4.78,-4.78,-4.77
330.87,-2.85,1.93,-2.86,1.92,-1.91,-2.10,-2.26,-4.76,-4.77,-4.78
334.18,-2.83,1.94,-2.83,1.94,-1.93,-2.12,-2.28,-4.76,-4.76,-4.77
337.52,-2.81,1.96,-2.81,1.96,-1.95,-2.13,-2.29,-4.76,-4.76,-4.77
340.90,-2.78,1.97,-2.78,1.97,-1.98,-2.15,-2.31,-4.76,-4.76,-4.75
344.30,-2.75,1.99,-2.75,1.99,-2.00,-2.16,-2.33,-4.75,-4.75,-4.74
347.75,-2.72,2.02,-2.72,2.02,-2.03,-2.18,-2.35,-4.75,-4.75,-4.74
351.23,-2.68,2.06,-2.68,2.05,-2.05,-2.20,-2.38,-4.73,-4.73,-4.74
354.74,-2.64,2.07,-2.64,2.09,-2.08,-2.22,-2.40,-4.72,-4.72,-4.71
358.28,-2.59,2.13,-2.60,2.12,-2.11,-2.24,-2.43,-4.70,-4.71,-4.72
361.87,-2.56,2.15,-2.56,2.14,-2.14,-2.26,-2.46,-4.70,-4.70,-4.71
365.49,-2.53,2.17,-2.53,2.17,-2.16,-2.28,-2.49,-4.69,-4.69,-4.70
369.14,-2.50,2.18,-2.50,2.19,-2.19,-2.30,-2.52,-4.69,-4.69,-4.68
372.83,-2.47,2.21,-2.47,2.21,-2.21,-2.32,-2.56,-4.68,-4.68,-4.68
376.56,-2.44,2.24,-2.44,2.23,-2.24,-2.34,-2.60,-4.68,-4.68,-4.68
380.33,-2.41,2.26,-2.41,2.26,-2.26,-2.37,-2.63,-4.67,-4.67,-4.67
384.13,-2.37,2.28,-2.37,2.29,-2.29,-2.39,-2.67,-4.66,-4.66,-4.65
387.97,-2.33,2.32,-2.33,2.32,-2.32,-2.42,-2.71,-4.65,-4.65,-4.65
391.85,-2.28,2.36,-2.28,2.36,-2.35,-2.44,-2.76,-4.63,-4.64,-4.64
395.77,-2.24,2.39,-2.24,2.39,-2.39,-2.47,-2.80,-4.63,-4.63,-4.63
399.73,-2.19,2.43,-2.19,2.42,-2.42,-2.50,-2.85,-4.61,-4.61,-4.62
403.72,-2.14,2.45,-2.14,2.46,-2.46,-2.53,-2.89,-4.60,-4.60,-4.59
407.76,-2.09,2.51,-2.09,2.50,-2.49,-2.55,-2.94,-4.58,-4.59,-4.60
411.84,-2.05,2.54,-2.05,2.53,-2.53,-2.58,-2.99,-4.58,-4.58,-4.59
415.96,-2.01,2.56,-2.01,2.57,-2.57,-2.62,-3.04,-4.58,-4.58,-4.57
420.12,-1.97,2.60,-1.96,2.60,-2.61,-2.65,-3.09,-4.58,-4.57,-4.57
424.32,-1.91,2.65,-1.91,2.64,-2.65,-2.68,-3.14,-4.57,-4.56,-4.56
428.56,-1.84,2.70,-1.85,2.70,-2.70,-2.71,-3.19,-4.54,-4.55,-4.54
432.85,-1.79,2.74,-1.79,2.75,-2.75,-2.74,-3.23,-4.54,-4.54,-4.53
437.18,-1.73,2.81,-1.73,2.80,-2.80,-2.78,-3.28,-4.53,-4.53,-4.54
441.55,-1.67,2.86,-1.67,2.86,-2.85,-2.81,-3.33,-4.52,-4.52,-4.53
445.96,-1.61,2.91,-1.61,2.91,-2.90,-2.85,-3.38,-4.51,-4.51,-4.52
450.42,-1.55,2.96,-1.55,2.96,-2.95,-2.89,-3.42,-4.50,-4.51,-4.51
454.93,-1.50,3.00,-1.50,3.00,-3.00,-2.92,-3.46,-4.50,-4.50,-4.50
459.48,-1.44,3.05,-1.44,3.04,-3.05,-2.96,-3.50,-4.49,-4.49,-4.49
464.07,-1.38,3.09,-1.38,3.09,-3.10,-3.00,-3.54,-4.48,-4.48,-4.47
