frequency,raw,error,smoothed,error_smoothed,equalization,parametric_eq,fixed_band_eq,equalized_raw,equalized_smoothed,target
20.00,-2.73,-6.65,-2.73,-6.65,6.65,6.47,2.71,3.92,3.92,3.92
20.20,-2.70,-6.61,-2.70,-6.61,6.61,6.46,2.78,3.91,3.91,3.91
20.40,-2.68,-6.58,-2.68,-6.57,6.57,6.45,2.86,3.89,3.89,3.90
20.61,-2.65,-6.54,-2.65,-6.53,6.53,6.43,2.94,3.88,3.88,3.89
20.81,-2.62,-6.49,-2.63,-6.50,6.50,6.42,3.02,3.88,3.87,3.87
21.02,-2.60,-6.46,-2.60,-6.46,6.46,6.41,3.11,3.86,3.86,3.86
21.23,-2.57,-6.42,-2.58,-6.43,6.43,6.39,3.20,3.86,3.85,3.85
21.44,-2.55,-6.41,-2.55,-6.39,6.39,6.38,3.29,3.84,3.84,3.86
21.66,-2.53,-6.37,-2.53,-6.36,6.36,6.36,3.38,3.83,3.83,3.84
21.87,-2.50,-6.34,-2.50,-6.33,6.33,6.34,3.47,3.83,3.82,3.84
22.09,-2.48,-6.30,-2.48,-6.29,6.29,6.32,3.57,3.81,3.82,3.82
22.31,-2.46,-6.27,-2.45,-6.26,6.26,6.30,3.67,3.80,3.81,3.81
22.54,-2.43,-6.23,-2.43,-6.23,6.23,6.28,3.77,3.80,3.80,3.80
22.76,-2.41,-6.21,-2.41,-6.20,6.20,6.26,3.88,3.79,3.80,3.80
22.99,-2.38,-6.17,-2.38,-6.17,6.17,6.24,3.98,3.79,3.79,3.79
23.22,-2.36,-6.14,-2.36,-6.14,6.14,6.22,4.09,3.78,3.79,3.78
23.45,-2.33,-6.12,-2.33,-6.11,6.11,6.20,4.21,3.78,3.78,3.79
23.69,-2.30,-6.08,-2.31,-6.08,6.08,6.18,4.32,3.78,3.78,3.78
23.92,-2.28,-6.05,-2.28,-6.05,6.05,6.15,4.44,3.77,3.77,3.77
24.16,-2.26,-6.04,-2.26,-6.03,6.03,6.13,4.56,3.77,3.77,3.78
24.40,-2.23,-6.01,-2.24,-6.00,6.00,6.11,4.68,3.77,3.77,3.78
24.65,-2.21,-5.98,-2.21,-5.98,5.98,6.09,4.80,3.77,3.76,3.77
24.89,-2.19,-5.96,-2.19,-5.95,5.95,6.06,4.92,3.76,3.76,3.77
25.14,-2.17,-5.93,-2.17,-5.93,5.93,6.04,5.05,3.76,3.76,3.76
25.39,-2.14,-5.90,-2.14,-5.90,5.90,6.02,5.17,3.76,3.76,3.76
25.65,-2.12,-5.88,-2.12,-5.88,5.88,5.99,5.30,3.76,3.76,3.76
25.91,-2.10,-5.86,-2.10,-5.86,5.86,5.97,5.42,3.75,3.76,3.76
26.16,-2.08,-5.85,-2.08,-5.83,5.83,5.95,5.55,3.75,3.76,3.77
26.43,-2.06,-5.82,-2.06,-5.81,5.81,5.92,5.67,3.75,3.76,3.76
26.69,-2.03,-5.79,-2.04,-5.79,5.79,5.90,5.80,3.76,3.76,3.76
26.96,-2.01,-5.77,-2.02,-5.77,5.77,5.88,5.92,3.76,3.76,3.76
27.23,-1.99,-5.75,-2.00,-5.76,5.76,5.85,6.04,3.76,3.76,3.76
27.50,-1.97,-5.73,-1.98,-5.74,5.74,5.83,6.15,3.77,3.76,3.76
27.77,-1.96,-5.73,-1.96,-5.72,5.72,5.81,6.26,3.76,3.76,3.77
28.05,-1.94,-5.70,-1.94,-5.70,5.70,5.79,6.37,3.76,3.76,3.76
28.33,-1.92,-5.69,-1.92,-5.69,5.69,5.77,6.47,3.76,3.77,3.77
28.62,-1.90,-5.67,-1.90,-5.67,5.67,5.74,6.57,3.77,3.77,3.77
28.90,-1.89,-5.67,-1.88,-5.65,5.65,5.72,6.65,3.76,3.77,3.78
29.19,-1.87,-5.65,-1.87,-5.63,5.63,5.70,6.73,3.76,3.77,3.78
29.48,-1.85,-5.62,-1.85,-5.62,5.62,5.68,6.81,3.76,3.76,3.77
29.78,-1.83,-5.60,-1.84,-5.60,5.60,5.66,6.87,3.77,3.76,3.77
30.08,-1.82,-5.59,-1.82,-5.58,5.58,5.64,6.92,3.76,3.76,3.77
30.38,-1.80,-5.55,-1.80,-5.56,5.56,5.62,6.96,3.76,3.76,3.75
30.68,-1.79,-5.54,-1.79,-5.54,5.54,5.60,7.00,3.75,3.75,3.75
30.99,-1.77,-5.52,-1.77,-5.52,5.52,5.58,7.02,3.75,3.75,3.75
31.30,-1.76,-5.51,-1.76,-5.50,5.50,5.56,7.03,3.74,3.74,3.75
31.61,-1.75,-5.49,-1.75,-5.48,5.48,5.54,7.03,3.73,3.73,3.74
31.93,-1.73,-5.45,-1.73,-5.46,5.46,5.52,7.02,3.73,3.73,3.72
32.24,-1.72,-5.45,-1.72,-5.44,5.44,5.51,7.00,3.72,3.72,3.73
32.57,-1.71,-5.42,-1.71,-5.42,5.42,5.49,6.97,3.71,3.71,3.71
32.89,-1.70,-5.41,-1.70,-5.41,5.41,5.47,6.93,3.71,3.71,3.71
33.22,-1.69,-5.39,-1.69,-5.39,5.39,5.45,6.88,3.70,3.70,3.70
33.55,-1.68,-5.38,-1.68,-5.37,5.37,5.43,6.83,3.69,3.69,3.70
33.89,-1.67,-5.36,-1.67,-5.36,5.36,5.42,6.76,3.69,3.69,3.69
34.23,-1.67,-5.34,-1.67,-5.34,5.34,5.40,6.69,3.67,3.68,3.67
34.57,-1.66,-5.33,-1.66,-5.33,5.33,5.38,6.61,3.67,3.67,3.67
34.92,-1.65,-5.30,-1.66,-5.31,5.31,5.36,6.53,3.66,3.66,3.65
35.27,-1.65,-5.32,-1.65,-5.30,5.30,5.35,6.44,3.65,3.65,3.67
35.62,-1.65,-5.29,-1.65,-5.29,5.29,5.33,6.35,3.64,3.64,3.64
35.97,-1.65,-5.29,-1.65,-5.27,5.27,5.31,6.26,3.62,3.62,3.64
36.33,-1.65,-5.27,-1.64,-5.25,5.25,5.30,6.17,3.60,3.61,3.62
36.70,-1.64,-5.24,-1.64,-5.24,5.24,5.28,6.07,3.60,3.59,3.60
37.06,-1.64,-5.22,-1.64,-5.22,5.22,5.26,5.97,3.58,3.58,3.58
37.43,-1.64,-5.20,-1.64,-5.20,5.20,5.24,5.87,3.56,3.56,3.56
37.81,-1.64,-5.19,-1.64,-5.18,5.18,5.22,5.77,3.54,3.54,3.55
38.19,-1.64,-5.16,-1.64,-5.16,5.16,5.21,5.68,3.52,3.52,3.52
38.57,-1.64,-5.14,-1.64,-5.14,5.14,5.19,5.58,3.50,3.50,3.50
38.95,-1.64,-5.13,-1.65,-5.12,5.12,5.17,5.49,3.48,3.48,3.49
39.34,-1.64,-5.10,-1.65,-5.10,5.10,5.15,5.39,3.46,3.45,3.46
39.74,-1.65,-5.08,-1.65,-5.09,5.09,5.13,5.30,3.44,3.43,3.43
40.14,-1.65,-5.06,-1.66,-5.07,5.07,5.11,5.21,3.42,3.41,3.41
40.54,-1.66,-5.05,-1.66,-5.05,5.05,5.09,5.13,3.39,3.39,3.39
40.94,-1.66,-5.02,-1.66,-5.03,5.03,5.06,5.04,3.37,3.37,3.36
41.35,-1.67,-5.02,-1.67,-5.01,5.01,5.04,4.96,3.34,3.34,3.35
41.76,-1.68,-5.00,-1.67,-4.99,4.99,5.02,4.89,3.31,3.32,3.32
42.18,-1.68,-4.99,-1.67,-4.97,4.97,4.99,4.81,3.29,3.30,3.31
42.60,-1.68,-4.96,-1.67,-4.94,4.94,4.97,4.74,3.26,3.27,3.28
43.03,-1.68,-4.94,-1.67,-4.92,4.92,4.95,4.67,3.24,3.25,3.26
43.46,-1.67,-4.89,-1.67,-4.89,4.89,4.92,4.61,3.22,3.22,3.22
43.90,-1.66,-4.86,-1.67,-4.86,4.86,4.89,4.55,3.20,3.20,3.20
44.33,-1.66,-4.83,-1.66,-4.83,4.83,4.86,4.49,3.17,3.17,3.17
44.78,-1.65,-4.80,-1.66,-4.80,4.80,4.84,4.44,3.15,3.14,3.15
45.23,-1.65,-4.78,-1.65,-4.76,4.76,4.81,4.38,3.11,3.11,3.13
45.68,-1.64,-4.72,-1.65,-4.72,4.72,4.78,4.34,3.08,3.08,3.08
46.13,-1.64,-4.69,-1.64,-4.68,4.68,4.75,4.29,3.04,3.04,3.05
46.60,-1.63,-4.64,-1.64,-4.64,4.64,4.71,4.25,3.01,3.01,3.01
47.06,-1.63,-4.61,-1.63,-4.60,4.60,4.68,4.21,2.97,2.97,2.98
47.53,-1.63,-4.57,-1.63,-4.56,4.56,4.65,4.18,2.93,2.93,2.94
48.01,-1.63,-4.52,-1.63,-4.51,4.51,4.61,4.15,2.88,2.89,2.89
48.49,-1.63,-4.48,-1.62,-4.47,4.47,4.58,4.12,2.84,2.85,2.85
48.97,-1.62,-4.42,-1.62,-4.43,4.43,4.54,4.09,2.81,2.81,2.80
49.46,-1.62,-4.39,-1.62,-4.38,4.38,4.50,4.07,2.76,2.76,2.77
49.96,-1.62,-4.33,-1.62,-4.34,4.34,4.46,4.05,2.72,2.72,2.71
50.46,-1.62,-4.30,-1.62,-4.29,4.29,4.42,4.03,2.67,2.68,2.68
50.96,-1.61,-4.25,-1.61,-4.25,4.25,4.38,4.01,2.64,2.64,2.64
51.47,-1.61,-4.21,-1.61,-4.21,4.21,4.34,3.99,2.60,2.59,2.60
51.99,-1.61,-4.16,-1.61,-4.17,4.17,4.30,3.98,2.56,2.55,2.55
52.51,-1.61,-4.13,-1.61,-4.12,4.12,4.25,3.97,2.51,2.51,2.52
53.03,-1.61,-4.10,-1.61,-4.08,4.08,4.21,3.95,2.47,2.47,2.49
53.56,-1.61,-4.05,-1.61,-4.04,4.04,4.16,3.94,2.43,2.43,2.44
54.10,-1.61,-4.00,-1.61,-4.00,4.00,4.12,3.93,2.39,2.39,2.39
54.64,-1.62,-3.97,-1.62,-3.97,3.97,4.07,3.92,2.35,2.35,2.35
55.18,-1.62,-3.93,-1.62,-3.93,3.93,4.02,3.91,2.31,2.31,2.31
55.74,-1.62,-3.88,-1.62,-3.90,3.90,3.98,3.90,2.28,2.28,2.26
56.29,-1.62,-3.86,-1.63,-3.86,3.86,3.93,3.89,2.24,2.24,2.24
56.86,-1.63,-3.83,-1.63,-3.83,3.83,3.88,3.87,2.20,2.20,2.20
57.42,-1.63,-3.78,-1.64,-3.79,3.79,3.83,3.86,2.16,2.15,2.15
58.00,-1.64,-3.75,-1.64,-3.76,3.76,3.78,3.84,2.11,2.11,2.11
58.58,-1.65,-3.73,-1.65,-3.72,3.72,3.72,3.82,2.07,2.07,2.08
59.16,-1.65,-3.70,-1.65,-3.68,3.68,3.67,3.80,2.02,2.02,2.05
59.76,-1.66,-3.66,-1.66,-3.63,3.63,3.62,3.78,1.97,1.98,2.00
60.35,-1.66,-3.61,-1.66,-3.59,3.59,3.57,3.75,1.93,1.93,1.95
60.96,-1.67,-3.56,-1.66,-3.54,3.54,3.51,3.72,1.87,1.88,1.89
61.57,-1.68,-3.51,-1.67,-3.49,3.49,3.46,3.69,1.81,1.83,1.83
62.18,-1.68,-3.45,-1.67,-3.44,3.44,3.41,3.66,1.76,1.77,1.77
62.80,-1.67,-3.38,-1.67,-3.39,3.39,3.35,3.62,1.72,1.72,1.71
63.43,-1.67,-3.33,-1.67,-3.34,3.34,3.30,3.58,1.67,1.67,1.66
64.07,-1.66,-3.27,-1.67,-3.28,3.28,3.24,3.53,1.62,1.61,1.61
64.71,-1.66,-3.22,-1.67,-3.23,3.23,3.19,3.48,1.57,1.56,1.56
65.35,-1.66,-3.16,-1.67,-3.17,3.17,3.13,3.43,1.51,1.50,1.50
66.01,-1.66,-3.11,-1.66,-3.11,3.11,3.08,3.38,1.45,1.45,1.45
66.67,-1.66,-3.07,-1.66,-3.06,3.06,3.02,3.32,1.40,1.39,1.41
67.33,-1.66,-3.00,-1.66,-3.00,3.00,2.97,3.26,1.34,1.34,1.34
68.01,-1.66,-2.95,-1.66,-2.94,2.94,2.91,3.20,1.28,1.28,1.29
68.69,-1.66,-2.90,-1.66,-2.89,2.89,2.86,3.13,1.23,1.23,1.24
69.37,-1.66,-2.85,-1.66,-2.83,2.83,2.80,3.06,1.17,1.17,1.19
70.07,-1.66,-2.79,-1.66,-2.78,2.78,2.75,2.99,1.12,1.12,1.13
70.77,-1.66,-2.72,-1.66,-2.72,2.72,2.69,2.92,1.06,1.06,1.06
71.48,-1.66,-2.67,-1.66,-2.66,2.66,2.64,2.85,1.00,1.00,1.01
72.19,-1.66,-2.61,-1.66,-2.60,2.60,2.58,2.78,0.94,0.94,0.95
72.91,-1.66,-2.54,-1.66,-2.55,2.55,2.53,2.70,0.89,0.89,0.88
73.64,-1.66,-2.49,-1.66,-2.49,2.49,2.47,2.63,0.83,0.83,0.83
74.38,-1.66,-2.43,-1.66,-2.44,2.44,2.42,2.55,0.77,0.77,0.77
75.12,-1.66,-2.38,-1.66,-2.38,2.38,2.36,2.48,0.72,0.72,0.72
75.87,-1.66,-2.33,-1.66,-2.33,2.33,2.31,2.40,0.67,0.67,0.67
76.63,-1.66,-2.27,-1.66,-2.28,2.28,2.25,2.33,0.61,0.61,0.61
77.40,-1.66,-2.23,-1.66,-2.22,2.22,2.20,2.25,0.56,0.56,0.57
78.17,-1.66,-2.17,-1.66,-2.17,2.17,2.14,2.17,0.51,0.51,0.51
78.95,-1.66,-2.13,-1.66,-2.12,2.12,2.09,2.10,0.46,0.46,0.47
79.74,-1.66,-2.08,-1.66,-2.07,2.07,2.04,2.03,0.41,0.41,0.42
80.54,-1.66,-2.03,-1.66,-2.02,2.02,1.98,1.95,0.36,0.36,0.37
81.35,-1.66,-1.97,-1.66,-1.97,1.97,1.93,1.88,0.31,0.31,0.31
82.16,-1.66,-1.94,-1.66,-1.92,1.92,1.88,1.81,0.26,0.26,0.28
82.98,-1.66,-1.88,-1.66,-1.87,1.87,1.83,1.73,0.21,0.21,0.22
83.81,-1.66,-1.83,-1.66,-1.82,1.82,1.77,1.66,0.16,0.16,0.17
84.65,-1.66,-1.77,-1.66,-1.77,1.77,1.72,1.59,0.11,0.11,0.11
85.50,-1.66,-1.71,-1.66,-1.71,1.71,1.67,1.53,0.05,0.05,0.05
86.35,-1.66,-1.66,-1.66,-1.66,1.66,1.62,1.46,-0.00,-0.00,-0.00
87.22,-1.66,-1.61,-1.66,-1.60,1.60,1.57,1.39,-0.06,-0.06,-0.05
88.09,-1.66,-1.55,-1.66,-1.55,1.55,1.51,1.33,-0.11,-0.11,-0.11
88.97,-1.66,-1.49,-1.66,-1.49,1.49,1.46,1.26,-0.17,-0.17,-0.17
89.86,-1.66,-1.44,-1.66,-1.43,1.43,1.41,1.20,-0.23,-0.23,-0.22
90.76,-1.66,-1.38,-1.66,-1.37,1.37,1.36,1.13,-0.29,-0.29,-0.28
91.66,-1.66,-1.31,-1.66,-1.31,1.31,1.31,1.07,-0.35,-0.35,-0.35
92.58,-1.66,-1.26,-1.66,-1.25,1.25,1.26,1.01,-0.41,-0.41,-0.40
93.51,-1.66,-1.21,-1.66,-1.19,1.19,1.21,0.95,-0.47,-0.47,-0.45
94.44,-1.66,-1.15,-1.66,-1.13,1.13,1.16,0.89,-0.53,-0.53,-0.51
95.39,-1.66,-1.08,-1.66,-1.07,1.07,1.11,0.83,-0.59,-0.59,-0.58
96.34,-1.66,-1.01,-1.66,-1.01,1.01,1.06,0.78,-0.65,-0.65,-0.65
97.30,-1.66,-0.95,-1.66,-0.95,0.95,1.02,0.72,-0.71,-0.71,-0.71
98.28,-1.66,-0.88,-1.66,-0.89,0.89,0.97,0.66,-0.77,-0.77,-0.78
99.26,-1.66,-0.82,-1.66,-0.82,0.82,0.92,0.61,-0.84,-0.83,-0.84
100.25,-1.66,-0.76,-1.65,-0.76,0.76,0.87,0.55,-0.90,-0.89,-0.90
101.25,-1.66,-0.71,-1.65,-0.70,0.70,0.82,0.50,-0.96,-0.95,-0.95
102.27,-1.66,-0.65,-1.65,-0.64,0.64,0.77,0.45,-1.02,-1.01,-1.01
103.29,-1.66,-0.59,-1.65,-0.58,0.58,0.72,0.40,-1.08,-1.07,-1.07
104.32,-1.66,-0.54,-1.65,-0.52,0.52,0.68,0.35,-1.14,-1.13,-1.12
105.37,-1.65,-0.47,-1.65,-0.47,0.47,0.63,0.30,-1.18,-1.18,-1.18
106.42,-1.64,-0.41,-1.66,-0.42,0.42,0.58,0.25,-1.22,-1.24,-1.23
107.48,-1.64,-0.35,-1.66,-0.37,0.37,0.53,0.20,-1.27,-1.30,-1.29
108.56,-1.65,-0.31,-1.67,-0.32,0.32,0.49,0.15,-1.33,-1.35,-1.34
109.64,-1.66,-0.26,-1.69,-0.28,0.28,0.44,0.11,-1.38,-1.41,-1.40
110.74,-1.69,-0.23,-1.71,-0.24,0.24,0.39,0.06,-1.45,-1.47,-1.46
111.85,-1.72,-0.20,-1.73,-0.20,0.20,0.34,0.02,-1.52,-1.53,-1.52
112.97,-1.76,-0.19,-1.76,-0.17,0.17,0.30,-0.02,-1.59,-1.59,-1.57
114.10,-1.79,-0.16,-1.79,-0.14,0.14,0.25,-0.06,-1.65,-1.65,-1.63
115.24,-1.82,-0.11,-1.82,-0.11,0.11,0.20,-0.10,-1.71,-1.70,-1.71
116.39,-1.85,-0.08,-1.85,-0.09,0.09,0.16,-0.14,-1.76,-1.76,-1.77
117.55,-1.88,-0.05,-1.88,-0.06,0.06,0.11,-0.18,-1.82,-1.82,-1.83
118.73,-1.91,-0.02,-1.91,-0.03,0.03,0.06,-0.21,-1.88,-1.88,-1.89
119.92,-1.95,-0.02,-1.93,0.00,-0.00,0.02,-0.25,-1.95,-1.93,-1.93
121.12,-1.97,0.01,-1.95,0.04,-0.04,-0.03,-0.28,-2.01,-1.99,-1.98
122.33,-1.98,0.06,-1.97,0.08,-0.08,-0.08,-0.31,-2.06,-2.05,-2.04
123.55,-2.00,0.09,-1.98,0.12,-0.12,-0.12,-0.34,-2.12,-2.10,-2.09
124.79,-2.01,0.13,-1.99,0.16,-0.16,-0.17,-0.37,-2.17,-2.16,-2.14
126.03,-2.01,0.19,-2.00,0.21,-0.21,-0.21,-0.40,-2.22,-2.21,-2.20
127.29,-2.00,0.25,-2.00,0.26,-0.26,-0.26,-0.43,-2.26,-2.27,-2.25
128.57,-1.99,0.33,-2.01,0.31,-0.31,-0.31,-0.45,-2.30,-2.32,-2.32
129.85,-1.99,0.38,-2.00,0.37,-0.37,-0.35,-0.47,-2.36,-2.37,-2.37
131.15,-1.99,0.44,-2.00,0.43,-0.43,-0.40,-0.50,-2.42,-2.43,-2.43
132.46,-1.99,0.49,-1.99,0.49,-0.49,-0.44,-0.52,-2.48,-2.48,-2.48
133.79,-1.99,0.55,-1.99,0.55,-0.55,-0.49,-0.54,-2.54,-2.54,-2.54
135.12,-1.99,0.60,-1.98,0.61,-0.61,-0.53,-0.56,-2.60,-2.59,-2.59
136.48,-1.99,0.65,-1.97,0.67,-0.67,-0.58,-0.58,-2.66,-2.65,-2.64
137.84,-1.98,0.71,-1.97,0.73,-0.73,-0.62,-0.60,-2.71,-2.70,-2.69
139.22,-1.97,0.78,-1.97,0.78,-0.78,-0.67,-0.61,-2.75,-2.75,-2.75
140.61,-1.96,0.83,-1.97,0.82,-0.82,-0.71,-0.63,-2.78,-2.80,-2.79
142.02,-1.96,0.89,-1.98,0.86,-0.86,-0.76,-0.65,-2.82,-2.84,-2.85
143.44,-1.97,0.92,-1.99,0.90,-0.90,-0.80,-0.66,-2.87,-2.89,-2.89
144.87,-1.99,0.94,-2.00,0.93,-0.93,-0.84,-0.68,-2.93,-2.94,-2.93
146.32,-2.00,0.98,-2.02,0.96,-0.96,-0.88,-0.69,-2.96,-2.98,-2.98
147.78,-2.03,0.99,-2.04,0.99,-0.99,-0.93,-0.71,-3.02,-3.03,-3.02
149.26,-2.05,1.02,-2.07,1.00,-1.00,-0.97,-0.72,-3.05,-3.07,-3.07
150.75,-2.08,1.03,-2.09,1.02,-1.02,-1.01,-0.74,-3.10,-3.11,-3.11
152.26,-2.12,1.03,-2.12,1.03,-1.03,-1.05,-0.75,-3.15,-3.16,-3.15
153.78,-2.15,1.04,-2.16,1.04,-1.04,-1.09,-0.77,-3.19,-3.20,-3.19
155.32,-2.19,1.04,-2.19,1.05,-1.05,-1.13,-0.79,-3.24,-3.24,-3.23
156.88,-2.23,1.05,-2.22,1.07,-1.07,-1.17,-0.80,-3.30,-3.29,-3.28
158.44,-2.25,1.08,-2.24,1.09,-1.09,-1.21,-0.82,-3.34,-3.33,-3.33
160.03,-2.29,1.08,-2.26,1.11,-1.11,-1.25,-0.84,-3.40,-3.38,-3.37
161.63,-2.31,1.10,-2.28,1.14,-1.14,-1.28,-0.85,-3.45,-3.42,-3.41
163.24,-2.32,1.14,-2.29,1.17,-1.17,-1.32,-0.87,-3.49,-3.47,-3.46
164.88,-2.33,1.18,-2.30,1.21,-1.21,-1.36,-0.89,-3.54,-3.51,-3.51
166.53,-2.33,1.23,-2.31,1.25,-1.25,-1.39,-0.91,-3.58,-3.56,-3.56
168.19,-2.32,1.27,-2.31,1.30,-1.30,-1.42,-0.93,-3.62,-3.61,-3.59
169.87,-2.31,1.34,-2.31,1.34,-1.34,-1.46,-0.95,-3.65,-3.65,-3.65
171.57,-2.29,1.41,-2.31,1.39,-1.39,-1.49,-0.97,-3.68,-3.70,-3.70
173.29,-2.29,1.45,-2.32,1.43,-1.43,-1.52,-1.00,-3.72,-3.75,-3.74
175.02,-2.29,1.50,-2.32,1.47,-1.47,-1.55,-1.02,-3.76,-3.79,-3.79
176.77,-2.30,1.54,-2.33,1.51,-1.51,-1.58,-1.05,-3.81,-3.84,-3.84
178.54,-2.32,1.56,-2.34,1.54,-1.54,-1.60,-1.07,-3.87,-3.89,-3.88
180.32,-2.34,1.60,-2.36,1.57,-1.57,-1.63,-1.10,-3.92,-3.93,-3.94
182.13,-2.36,1.61,-2.38,1.60,-1.60,-1.65,-1.12,-3.96,-3.98,-3.97
183.95,-2.41,1.61,-2.40,1.62,-1.62,-1.68,-1.15,-4.03,-4.03,-4.02
185.79,-2.44,1.63,-2.43,1.64,-1.64,-1.70,-1.18,-4.08,-4.07,-4.07
187.65,-2.46,1.65,-2.46,1.65,-1.65,-1.72,-1.21,-4.11,-4.12,-4.11
189.52,-2.50,1.65,-2.50,1.66,-1.66,-1.74,-1.24,-4.16,-4.16,-4.15
191.42,-2.53,1.66,-2.53,1.67,-1.67,-1.76,-1.27,-4.21,-4.20,-4.19
193.33,-2.56,1.67,-2.55,1.69,-1.69,-1.78,-1.30,-4.25,-4.24,-4.23
195.27,-2.59,1.69,-2.58,1.70,-1.70,-1.80,-1.34,-4.29,-4.28,-4.28
197.22,-2.61,1.72,-2.60,1.72,-1.72,-1.81,-1.37,-4.33,-4.32,-4.33
199.19,-2.63,1.73,-2.61,1.74,-1.74,-1.83,-1.40,-4.37,-4.36,-4.36
201.18,-2.65,1.75,-2.63,1.77,-1.77,-1.84,-1.44,-4.42,-4.39,-4.40
203.19,-2.66,1.77,-2.64,1.79,-1.79,-1.85,-1.47,-4.45,-4.43,-4.43
205.23,-2.65,1.80,-2.64,1.82,-1.82,-1.87,-1.51,-4.47,-4.46,-4.45
207.28,-2.64,1.84,-2.65,1.85,-1.85,-1.88,-1.54,-4.49,-4.49,-4.48
209.35,-2.64,1.88,-2.65,1.88,-1.88,-1.89,-1.58,-4.52,-4.53,-4.52
211.44,-2.63,1.92,-2.65,1.91,-1.91,-1.89,-1.61,-4.54,-4.56,-4.55
213.56,-2.63,1.94,-2.64,1.94,-1.94,-1.90,-1.65,-4.57,-4.58,-4.57
215.69,-2.63,1.97,-2.64,1.97,-1.97,-1.91,-1.68,-4.60,-4.61,-4.60
217.85,-2.63,2.00,-2.64,2.00,-2.00,-1.91,-1.72,-4.63,-4.64,-4.63
220.03,-2.63,2.03,-2.63,2.03,-2.03,-1.92,-1.75,-4.66,-4.66,-4.66
222.23,-2.63,2.06,-2.63,2.05,-2.05,-1.92,-1.78,-4.68,-4.68,-4.69
224.45,-2.63,2.07,-2.63,2.08,-2.08,-1.93,-1.82,-4.71,-4.71,-4.70
226.70,-2.63,2.10,-2.62,2.11,-2.11,-1.93,-1.85,-4.74,-4.73,-4.73
228.96,-2.63,2.11,-2.62,2.13,-2.13,-1.93,-1.88,-4.76,-4.75,-4.74
231.25,-2.63,2.13,-2.62,2.15,-2.15,-1.94,-1.91,-4.78,-4.77,-4.76
233.57,-2.63,2.15,-2.62,2.16,-2.16,-1.94,-1.94,-4.79,-4.78,-4.78
235.90,-2.63,2.16,-2.62,2.18,-2.18,-1.94,-1.97,-4.81,-4.80,-4.79
238.26,-2.62,2.20,-2.62,2.19,-2.19,-1.94,-1.99,-4.81,-4.81,-4.82
240.64,-2.61,2.20,-2.63,2.19,-2.19,-1.94,-2.02,-4.80,-4.82,-4.81
243.05,-2.62,2.21,-2.64,2.19,-2.19,-1.94,-2.04,-4.81,-4.83,-4.83
245.48,-2.63,2.21,-2.65,2.19,-2.19,-1.95,-2.06,-4.82,-4.84,-4.84
247.93,-2.65,2.20,-2.66,2.18,-2.18,-1.95,-2.08,-4.83,-4.85,-4.85
250.41,-2.67,2.17,-2.68,2.17,-2.17,-1.95,-2.09,-4.84,-4.85,-4.84
252.92,-2.70,2.15,-2.71,2.15,-2.15,-1.95,-2.11,-4.85,-4.86,-4.85
255.45,-2.72,2.14,-2.73,2.13,-2.13,-1.95,-2.12,-4.85,-4.86,-4.86
258.00,-2.75,2.11,-2.76,2.11,-2.11,-1.95,-2.13,-4.86,-4.87,-4.86
260.58,-2.78,2.08,-2.79,2.08,-2.08,-1.95,-2.14,-4.86,-4.87,-4.86
263.19,-2.82,2.04,-2.82,2.05,-2.05,-1.95,-2.15,-4.87,-4.87,-4.86
265.82,-2.86,2.01,-2.85,2.02,-2.02,-1.95,-2.16,-4.88,-4.87,-4.87
268.48,-2.88,1.99,-2.88,2.00,-2.00,-1.96,-2.16,-4.88,-4.88,-4.87
271.16,-2.91,1.96,-2.90,1.98,-1.98,-1.96,-2.17,-4.89,-4.88,-4.87
273.87,-2.95,1.92,-2.92,1.96,-1.96,-1.96,-2.17,-4.91,-4.88,-4.87
276.61,-2.96,1.91,-2.94,1.94,-1.94,-1.96,-2.17,-4.90,-4.88,-4.87
279.38,-2.98,1.91,-2.95,1.93,-1.93,-1.97,-2.18,-4.91,-4.88,-4.89
282.17,-2.98,1.91,-2.96,1.92,-1.92,-1.97,-2.18,-4.90,-4.88,-4.89
284.99,-2.98,1.90,-2.97,1.91,-1.91,-1.97,-2.18,-4.89,-4.88,-4.88
287.84,-2.97,1.90,-2.98,1.90,-1.90,-1.98,-2.18,-4.87,-4.88,-4.87
290.72,-2.96,1.92,-2.98,1.90,-1.90,-1.98,-2.18,-4.86,-4.88,-4.88
293.63,-2.96,1.91,-2.98,1.89,-1.89,-1.99,-2.18,-4.85,-4.87,-4.87
296.57,-2.96,1.90,-2.98,1.88,-1.88,-2.00,-2.18,-4.85,-4.87,-4.86
299.53,-2.96,1.90,-2.98,1.88,-1.88,-2.00,-2.18,-4.84,-4.86,-4.86
302.53,-2.96,1.88,-2.98,1.88,-1.88,-2.01,-2.19,-4.84,-4.86,-4.84
305.55,-2.97,1.88,-2.98,1.87,-1.87,-2.02,-2.19,-4.84,-4.85,-4.85
308.61,-2.98,1.86,-2.97,1.87,-1.87,-2.03,-2.19,-4.85,-4.84,-4.84
311.69,-2.98,1.85,-2.97,1.87,-1.87,-2.04,-2.20,-4.85,-4.84,-4.83
314.81,-2.98,1.85,-2.96,1.87,-1.87,-2.05,-2.20,-4.85,-4.83,-4.83
317.96,-2.97,1.85,-2.95,1.87,-1.87,-2.06,-2.21,-4.84,-4.82,-4.82
321.14,-2.96,1.85,-2.94,1.88,-1.88,-2.07,-2.22,-4.84,-4.81,-4.81
324.35,-2.93,1.88,-2.92,1.88,-1.88,-2.08,-2.23,-4.81,-4.81,-4.81
327.59,-2.90,1.88,-2.90,1.90,-1.90,-2.09,-2.24,-4.80,-4.80,-4.78
330.87,-2.88,1.91,-2.88,1.91,-1.91,-2.11,-2.26,-4.79,-4.79,-4.79
334.18,-2.85,1.93,-2.85,1.93,-1.93,-2.12,-2.27,-4.78,-4.78,-4.78
337.52,-2.81,1.97,-2.82,1.95,-1.95,-2.13,-2.29,-4.76,-4.78,-4.78
340.90,-2.79,1.97,-2.79,1.98,-1.98,-2.15,-2.31,-4.77,-4.77,-4.76
344.30,-2.76,1.99,-2.76,2.00,-2.00,-2.17,-2.33,-4.76,-4.76,-4.75
347.75,-2.73,2.02,-2.73,2.03,-2.03,-2.18,-2.35,-4.76,-4.75,-4.75
351.23,-2.69,2.06,-2.69,2.05,-2.05,-2.20,-2.37,-4.74,-4.74,-4.75
354.74,-2.65,2.07,-2.66,2.08,-2.08,-2.22,-2.40,-4.73,-4.74,-4.72
358.28,-2.61,2.12,-2.62,2.10,-2.10,-2.24,-2.43,-4.71,-4.73,-4.73
361.87,-2.57,2.15,-2.59,2.13,-2.13,-2.26,-2.46,-4.70,-4.72,-4.72
365.49,-2.54,2.17,-2.56,2.16,-2.16,-2.28,-2.49,-4.70,-4.71,-4.71
369.14,-2.52,2.17,-2.52,2.18,-2.18,-2.30,-2.52,-4.70,-4.70,-4.69
372.83,-2.50,2.19,-2.49,2.21,-2.21,-2.32,-2.55,-4.71,-4.70,-4.69
376.56,-2.46,2.23,-2.45,2.24,-2.24,-2.35,-2.59,-4.70,-4.69,-4.69
380.33,-2.43,2.25,-2.41,2.27,-2.27,-2.37,-2.63,-4.70,-4.68,-4.68
384.13,-2.38,2.28,-2.37,2.30,-2.30,-2.40,-2.67,-4.68,-4.67,-4.66
387.97,-2.33,2.33,-2.34,2.32,-2.32,-2.42,-2.71,-4.65,-4.66,-4.66
391.85,-2.29,2.36,-2.30,2.35,-2.35,-2.45,-2.75,-4.64,-4.65,-4.65
395.77,-2.25,2.39,-2.26,2.38,-2.38,-2.48,-2.80,-4.64,-4.64,-4.64
399.73,-2.21,2.42,-2.21,2.42,-2.42,-2.50,-2.84,-4.63,-4.63,-4.63
403.72,-2.16,2.44,-2.17,2.45,-2.45,-2.53,-2.89,-4.61,-4.62,-4.60
407.76,-2.11,2.50,-2.12,2.49,-2.49,-2.56,-2.94,-4.60,-4.61,-4.61
411.84,-2.07,2.53,-2.07,2.53,-2.53,-2.59,-2.99,-4.60,-4.60,-4.60
415.96,-2.03,2.55,-2.02,2.57,-2.57,-2.62,-3.04,-4.60,-4.59,-4.58
420.12,-1.98,2.60,-1.97,2.61,-2.61,-2.65,-3.09,-4.60,-4.58,-4.58
424.32,-1.92,2.65,-1.91,2.66,-2.66,-2.69,-3.13,-4.58,-4.57,-4.57
428.56,-1.86,2.69,-1.86,2.70,-2.70,-2.72,-3.18,-4.56,-4.56,-4.55
432.85,-1.80,2.74,-1.81,2.75,-2.75,-2.75,-3.23,-4.55,-4.55,-4.54
437.18,-1.74,2.81,-1.75,2.80,-2.80,-2.79,-3.28,-4.54,-4.55,-4.55
441.55,-1.69,2.85,-1.69,2.85,-2.85,-2.82,-3.33,-4.54,-4.54,-4.54
445.96,-1.64,2.89,-1.63,2.90,-2.90,-2.86,-3.37,-4.54,-4.53,-4.53
450.42,-1.58,2.94,-1.57,2.95,-2.95,-2.89,-3.42,-4.53,-4.52,-4.52
454.93,-1.51,3.00,-1.51,3.00,-3.00,-2.93,-3.46,-4.51,-4.51,-4.51
459.48,-1.44,3.06,-1.45,3.05,-3.05,-2.97,-3.50,-4.49,-4.50,-4.50
464.07,-1.38,3.10,-1.39,3.10,-3.10,-3.00,-3.54,-4.49,-4.49,-4.48
