frequency,raw,error,smoothed,error_smoothed,equalization,parametric_eq,fixed_band_eq,equalized_raw,equalized_smoothed,target
20.00,1.07,-6.69,1.07,-6.69,6.69,6.52,2.54,7.77,7.77,7.77
20.20,1.09,-6.66,1.09,-6.66,6.66,6.51,2.61,7.75,7.75,7.76
20.40,1.11,-6.63,1.12,-6.63,6.62,6.49,2.69,7.74,7.74,7.75
20.61,1.14,-6.59,1.14,-6.59,6.59,6.47,2.76,7.73,7.73,7.74
20.81,1.16,-6.55,1.16,-6.55,6.56,6.46,2.84,7.72,7.72,7.72
21.02,1.18,-6.52,1.19,-6.52,6.52,6.44,2.93,7.71,7.71,7.71
21.23,1.21,-6.48,1.21,-6.49,6.49,6.42,3.01,7.71,7.70,7.70
21.44,1.23,-6.47,1.23,-6.46,6.46,6.40,3.10,7.69,7.69,7.71
21.66,1.25,-6.43,1.26,-6.43,6.43,6.39,3.19,7.68,7.69,7.69
21.87,1.28,-6.40,1.28,-6.40,6.40,6.37,3.28,7.68,7.68,7.68
22.09,1.30,-6.36,1.30,-6.36,6.37,6.35,3.37,7.67,7.67,7.67
22.31,1.32,-6.33,1.32,-6.33,6.34,6.33,3.47,7.66,7.66,7.66
22.54,1.34,-6.30,1.34,-6.30,6.31,6.31,3.57,7.65,7.65,7.65
22.76,1.36,-6.28,1.36,-6.28,6.28,6.29,3.67,7.64,7.64,7.65
22.99,1.38,-6.25,1.38,-6.25,6.25,6.27,3.77,7.63,7.63,7.64
23.22,1.40,-6.22,1.41,-6.23,6.22,6.26,3.88,7.63,7.63,7.63
23.45,1.43,-6.20,1.43,-6.20,6.20,6.24,3.99,7.63,7.63,7.64
23.69,1.45,-6.17,1.45,-6.17,6.17,6.22,4.10,7.63,7.63,7.63
23.92,1.47,-6.14,1.47,-6.15,6.15,6.20,4.21,7.62,7.63,7.62
24.16,1.49,-6.13,1.49,-6.13,6.13,6.18,4.33,7.62,7.62,7.63
24.40,1.51,-6.11,1.51,-6.11,6.10,6.16,4.45,7.62,7.62,7.63
24.65,1.53,-6.08,1.53,-6.09,6.08,6.14,4.57,7.61,7.61,7.62
24.89,1.55,-6.06,1.55,-6.06,6.06,6.12,4.69,7.61,7.61,7.62
25.14,1.57,-6.03,1.57,-6.03,6.04,6.10,4.81,7.61,7.61,7.61
25.39,1.59,-6.01,1.59,-6.01,6.02,6.08,4.93,7.61,7.61,7.61
25.65,1.61,-5.99,1.61,-5.99,5.99,6.06,5.06,7.61,7.61,7.61
25.91,1.63,-5.97,1.63,-5.98,5.97,6.04,5.18,7.60,7.60,7.61
26.16,1.65,-5.96,1.65,-5.95,5.95,6.02,5.31,7.60,7.60,7.62
26.43,1.67,-5.93,1.68,-5.93,5.93,5.99,5.43,7.60,7.60,7.61
26.69,1.70,-5.90,1.70,-5.91,5.91,5.97,5.55,7.61,7.61,7.61
26.96,1.72,-5.88,1.72,-5.88,5.89,5.95,5.67,7.61,7.61,7.61
27.23,1.74,-5.86,1.74,-5.86,5.87,5.93,5.79,7.61,7.61,7.61
27.50,1.76,-5.84,1.76,-5.85,5.85,5.91,5.91,7.61,7.61,7.61
27.77,1.77,-5.84,1.78,-5.83,5.83,5.89,6.02,7.61,7.61,7.62
28.05,1.79,-5.81,1.80,-5.82,5.82,5.87,6.13,7.61,7.61,7.61
28.33,1.81,-5.80,1.81,-5.80,5.80,5.84,6.23,7.62,7.61,7.62
28.62,1.83,-5.78,1.83,-5.79,5.79,5.82,6.33,7.62,7.62,7.62
28.90,1.84,-5.78,1.85,-5.78,5.77,5.80,6.42,7.61,7.62,7.63
29.19,1.86,-5.76,1.87,-5.76,5.75,5.78,6.50,7.62,7.62,7.63
29.48,1.88,-5.73,1.88,-5.74,5.73,5.76,6.58,7.62,7.62,7.62
29.78,1.90,-5.71,1.90,-5.71,5.71,5.73,6.64,7.62,7.61,7.62
30.08,1.91,-5.70,1.92,-5.69,5.69,5.71,6.70,7.61,7.61,7.62
30.38,1.93,-5.66,1.94,-5.67,5.67,5.69,6.75,7.60,7.61,7.60
30.68,1.95,-5.64,1.95,-5.64,5.65,5.66,6.78,7.60,7.60,7.60
30.99,1.97,-5.62,1.97,-5.62,5.63,5.64,6.81,7.60,7.60,7.60
31.30,1.98,-5.61,1.98,-5.61,5.60,5.62,6.83,7.59,7.59,7.60
31.61,1.99,-5.59,2.00,-5.59,5.58,5.60,6.84,7.58,7.58,7.59
31.93,2.01,-5.55,2.01,-5.56,5.57,5.57,6.83,7.58,7.58,7.57
32.24,2.02,-5.55,2.02,-5.54,5.55,5.55,6.82,7.57,7.57,7.58
32.57,2.03,-5.52,2.03,-5.52,5.53,5.52,6.79,7.56,7.56,7.56
32.89,2.04,-5.51,2.04,-5.51,5.51,5.50,6.76,7.55,7.55,7.56
33.22,2.05,-5.49,2.05,-5.49,5.49,5.48,6.72,7.54,7.54,7.55
33.55,2.06,-5.48,2.07,-5.47,5.47,5.45,6.67,7.53,7.54,7.55
33.89,2.08,-5.45,2.08,-5.45,5.45,5.43,6.61,7.53,7.53,7.54
34.23,2.09,-5.42,2.09,-5.43,5.43,5.40,6.55,7.53,7.53,7.52
34.57,2.10,-5.41,2.10,-5.41,5.42,5.38,6.47,7.52,7.52,7.52
34.92,2.11,-5.38,2.11,-5.39,5.40,5.36,6.40,7.51,7.51,7.50
35.27,2.11,-5.40,2.12,-5.38,5.38,5.33,6.32,7.50,7.50,7.52
35.62,2.12,-5.36,2.12,-5.37,5.37,5.31,6.23,7.49,7.49,7.49
35.97,2.12,-5.36,2.13,-5.36,5.35,5.28,6.14,7.47,7.47,7.49
36.33,2.13,-5.33,2.13,-5.33,5.33,5.26,6.06,7.46,7.46,7.47
36.70,2.13,-5.31,2.14,-5.31,5.31,5.23,5.96,7.44,7.45,7.45
37.06,2.14,-5.28,2.14,-5.28,5.29,5.21,5.87,7.43,7.43,7.43
37.43,2.14,-5.26,2.15,-5.26,5.26,5.18,5.78,7.41,7.41,7.41
37.81,2.15,-5.24,2.15,-5.24,5.24,5.16,5.69,7.39,7.39,7.40
38.19,2.15,-5.21,2.16,-5.21,5.21,5.13,5.59,7.37,7.37,7.37
38.57,2.16,-5.18,2.16,-5.19,5.19,5.11,5.50,7.35,7.35,7.35
38.95,2.16,-5.17,2.16,-5.16,5.16,5.08,5.41,7.33,7.33,7.33
39.34,2.16,-5.14,2.16,-5.14,5.14,5.05,5.33,7.30,7.30,7.30
39.74,2.16,-5.11,2.16,-5.12,5.12,5.03,5.24,7.28,7.28,7.28
40.14,2.16,-5.09,2.16,-5.09,5.10,5.00,5.16,7.26,7.26,7.26
40.54,2.16,-5.07,2.16,-5.07,5.08,4.97,5.08,7.24,7.24,7.24
40.94,2.16,-5.04,2.16,-5.05,5.06,4.95,5.00,7.22,7.22,7.21
41.35,2.15,-5.04,2.15,-5.04,5.04,4.92,4.93,7.19,7.19,7.20
41.76,2.14,-5.02,2.15,-5.02,5.02,4.89,4.85,7.16,7.17,7.17
42.18,2.14,-5.01,2.14,-5.01,5.00,4.87,4.79,7.14,7.14,7.16
42.60,2.14,-4.98,2.14,-4.98,4.98,4.84,4.72,7.12,7.12,7.13
43.03,2.14,-4.96,2.14,-4.96,4.96,4.81,4.66,7.10,7.10,7.11
43.46,2.14,-4.92,2.14,-4.93,4.93,4.79,4.60,7.08,7.08,7.07
43.90,2.14,-4.90,2.14,-4.90,4.91,4.76,4.55,7.05,7.05,7.05
44.33,2.14,-4.87,2.14,-4.88,4.88,4.73,4.49,7.02,7.02,7.02
44.78,2.14,-4.85,2.14,-4.85,4.85,4.70,4.45,6.99,6.99,7.00
45.23,2.14,-4.83,2.14,-4.82,4.82,4.67,4.40,6.96,6.96,6.98
45.68,2.14,-4.78,2.14,-4.79,4.79,4.64,4.36,6.93,6.93,6.93
46.13,2.14,-4.75,2.14,-4.75,4.75,4.62,4.32,6.90,6.90,6.89
46.60,2.14,-4.71,2.14,-4.71,4.72,4.59,4.29,6.86,6.86,6.86
47.06,2.14,-4.68,2.14,-4.68,4.68,4.56,4.26,6.82,6.82,6.83
47.53,2.14,-4.64,2.14,-4.64,4.64,4.53,4.23,6.78,6.78,6.79
48.01,2.14,-4.59,2.14,-4.59,4.59,4.50,4.20,6.74,6.74,6.74
48.49,2.14,-4.55,2.14,-4.55,4.55,4.47,4.18,6.69,6.69,6.70
48.97,2.14,-4.50,2.14,-4.51,4.51,4.44,4.16,6.65,6.65,6.65
49.46,2.14,-4.47,2.14,-4.46,4.47,4.41,4.15,6.61,6.61,6.62
49.96,2.14,-4.41,2.14,-4.42,4.42,4.37,4.13,6.57,6.57,6.56
50.46,2.14,-4.38,2.14,-4.38,4.38,4.34,4.12,6.52,6.52,6.53
50.96,2.14,-4.34,2.14,-4.34,4.34,4.31,4.11,6.48,6.48,6.49
51.47,2.14,-4.30,2.14,-4.30,4.30,4.28,4.10,6.44,6.44,6.45
51.99,2.14,-4.25,2.14,-4.26,4.26,4.25,4.09,6.40,6.40,6.40
52.51,2.14,-4.22,2.14,-4.22,4.22,4.21,4.09,6.36,6.36,6.37
53.03,2.14,-4.19,2.14,-4.18,4.18,4.18,4.08,6.32,6.32,6.34
53.56,2.14,-4.14,2.14,-4.14,4.14,4.15,4.08,6.28,6.28,6.29
54.10,2.14,-4.09,2.14,-4.10,4.10,4.11,4.07,6.24,6.24,6.24
54.64,2.14,-4.05,2.14,-4.05,4.06,4.08,4.07,6.20,6.20,6.20
55.18,2.14,-4.01,2.14,-4.01,4.01,4.04,4.06,6.16,6.16,6.15
55.74,2.14,-3.96,2.14,-3.97,3.97,4.01,4.06,6.12,6.12,6.11
56.29,2.14,-3.94,2.14,-3.93,3.93,3.97,4.05,6.08,6.08,6.09
56.86,2.14,-3.90,2.14,-3.90,3.90,3.94,4.04,6.04,6.04,6.05
57.42,2.14,-3.85,2.14,-3.86,3.86,3.90,4.03,6.00,6.00,6.00
58.00,2.14,-3.81,2.14,-3.82,3.82,3.86,4.02,5.97,5.97,5.96
58.58,2.14,-3.78,2.14,-3.78,3.78,3.82,4.01,5.93,5.93,5.93
59.16,2.14,-3.75,2.14,-3.75,3.74,3.78,3.99,5.88,5.88,5.89
59.76,2.14,-3.70,2.14,-3.70,3.69,3.75,3.97,5.83,5.83,5.85
60.35,2.14,-3.65,2.14,-3.65,3.64,3.71,3.95,5.79,5.79,5.79
60.96,2.14,-3.59,2.14,-3.59,3.59,3.67,3.92,5.73,5.73,5.74
61.57,2.14,-3.53,2.14,-3.53,3.53,3.63,3.89,5.68,5.68,5.68
62.18,2.14,-3.47,2.14,-3.47,3.48,3.58,3.86,5.62,5.62,5.62
62.80,2.14,-3.41,2.14,-3.41,3.42,3.54,3.82,5.57,5.57,5.55
63.43,2.14,-3.36,2.14,-3.36,3.37,3.50,3.78,5.51,5.51,5.51
64.07,2.14,-3.31,2.14,-3.31,3.31,3.46,3.73,5.45,5.45,5.46
64.71,2.14,-3.26,2.14,-3.26,3.26,3.41,3.68,5.40,5.40,5.41
65.35,2.14,-3.20,2.14,-3.21,3.20,3.37,3.63,5.35,5.35,5.34
66.01,2.14,-3.15,2.14,-3.15,3.15,3.32,3.57,5.30,5.30,5.30
66.67,2.14,-3.11,2.14,-3.10,3.10,3.28,3.51,5.25,5.25,5.26
67.33,2.14,-3.04,2.14,-3.05,3.05,3.23,3.45,5.19,5.19,5.18
68.01,2.14,-2.99,2.14,-2.99,2.99,3.18,3.38,5.14,5.14,5.14
68.69,2.14,-2.94,2.14,-2.94,2.94,3.13,3.31,5.08,5.08,5.09
69.37,2.14,-2.89,2.14,-2.89,2.88,3.08,3.24,5.03,5.03,5.03
70.07,2.14,-2.83,2.14,-2.83,2.83,3.03,3.17,4.97,4.97,4.98
70.77,2.14,-2.76,2.14,-2.77,2.77,2.98,3.09,4.91,4.91,4.91
71.48,2.14,-2.71,2.14,-2.71,2.71,2.93,3.01,4.85,4.85,4.86
72.19,2.14,-2.65,2.14,-2.65,2.65,2.88,2.93,4.79,4.79,4.80
72.91,2.14,-2.58,2.14,-2.59,2.59,2.83,2.85,4.73,4.73,4.73
73.64,2.14,-2.53,2.14,-2.53,2.53,2.78,2.77,4.68,4.68,4.68
74.38,2.14,-2.47,2.14,-2.47,2.48,2.72,2.69,4.62,4.62,4.62
75.12,2.14,-2.42,2.14,-2.42,2.42,2.67,2.61,4.56,4.56,4.57
75.87,2.14,-2.37,2.14,-2.37,2.37,2.61,2.53,4.51,4.51,4.51
76.63,2.14,-2.31,2.14,-2.32,2.32,2.55,2.44,4.46,4.46,4.46
77.40,2.14,-2.27,2.14,-2.27,2.27,2.50,2.36,4.41,4.41,4.42
78.17,2.14,-2.21,2.14,-2.22,2.22,2.44,2.28,4.36,4.36,4.36
78.95,2.14,-2.17,2.14,-2.17,2.17,2.38,2.20,4.31,4.31,4.31
79.74,2.14,-2.12,2.14,-2.12,2.12,2.32,2.11,4.26,4.26,4.27
80.54,2.14,-2.07,2.14,-2.07,2.07,2.26,2.03,4.21,4.21,4.22
81.35,2.14,-2.01,2.14,-2.02,2.02,2.20,1.95,4.16,4.16,4.16
82.16,2.14,-1.98,2.14,-1.97,1.97,2.14,1.87,4.11,4.11,4.13
82.98,2.14,-1.92,2.14,-1.92,1.92,2.08,1.79,4.06,4.06,4.07
83.81,2.14,-1.87,2.14,-1.87,1.87,2.02,1.72,4.01,4.01,4.02
84.65,2.14,-1.81,2.14,-1.81,1.81,1.96,1.64,3.96,3.96,3.96
85.50,2.14,-1.75,2.14,-1.76,1.76,1.89,1.56,3.90,3.90,3.90
86.35,2.14,-1.70,2.14,-1.70,1.70,1.83,1.49,3.85,3.85,3.85
87.22,2.14,-1.65,2.14,-1.65,1.65,1.76,1.41,3.79,3.79,3.80
88.09,2.14,-1.59,2.14,-1.59,1.59,1.70,1.34,3.73,3.73,3.74
88.97,2.14,-1.53,2.14,-1.54,1.53,1.63,1.27,3.68,3.68,3.68
89.86,2.14,-1.48,2.14,-1.48,1.48,1.57,1.20,3.62,3.62,3.63
90.76,2.14,-1.42,2.14,-1.42,1.42,1.50,1.13,3.57,3.57,3.57
91.66,2.14,-1.35,2.14,-1.36,1.36,1.44,1.06,3.51,3.51,3.50
92.58,2.14,-1.30,2.14,-1.30,1.30,1.37,0.99,3.45,3.45,3.45
93.51,2.14,-1.25,2.14,-1.25,1.24,1.30,0.92,3.39,3.39,3.40
94.44,2.14,-1.19,2.14,-1.19,1.18,1.23,0.86,3.32,3.32,3.34
95.39,2.14,-1.12,2.14,-1.12,1.12,1.17,0.79,3.26,3.26,3.27
96.34,2.14,-1.05,2.14,-1.05,1.05,1.10,0.72,3.20,3.20,3.20
97.30,2.14,-0.99,2.14,-0.99,0.99,1.03,0.66,3.14,3.14,3.14
98.28,2.14,-0.92,2.14,-0.92,0.93,0.96,0.60,3.07,3.07,3.07
99.26,2.14,-0.86,2.14,-0.86,0.87,0.90,0.54,3.01,3.01,3.01
100.25,2.14,-0.80,2.14,-0.80,0.81,0.83,0.47,2.95,2.95,2.95
101.25,2.14,-0.75,2.14,-0.75,0.75,0.76,0.41,2.89,2.89,2.90
102.27,2.14,-0.69,2.14,-0.69,0.69,0.69,0.35,2.83,2.83,2.84
103.29,2.14,-0.63,2.14,-0.63,0.64,0.63,0.30,2.78,2.78,2.78
104.32,2.14,-0.58,2.14,-0.58,0.58,0.56,0.24,2.72,2.72,2.73
105.37,2.14,-0.52,2.14,-0.52,0.52,0.49,0.18,2.67,2.66,2.67
106.42,2.14,-0.47,2.14,-0.47,0.46,0.43,0.13,2.61,2.61,2.62
107.48,2.14,-0.41,2.15,-0.41,0.40,0.36,0.07,2.55,2.55,2.56
108.56,2.15,-0.35,2.15,-0.35,0.35,0.29,0.02,2.50,2.50,2.51
109.64,2.15,-0.29,2.16,-0.29,0.29,0.23,-0.03,2.44,2.45,2.45
110.74,2.16,-0.22,2.16,-0.22,0.23,0.16,-0.08,2.39,2.39,2.39
111.85,2.16,-0.16,2.16,-0.17,0.17,0.10,-0.13,2.34,2.33,2.33
112.97,2.15,-0.12,2.15,-0.12,0.12,0.03,-0.18,2.27,2.27,2.28
114.10,2.13,-0.08,2.14,-0.07,0.07,-0.03,-0.23,2.20,2.21,2.22
115.24,2.11,-0.02,2.12,-0.03,0.03,-0.09,-0.27,2.14,2.14,2.14
116.39,2.09,0.02,2.09,0.02,-0.01,-0.15,-0.32,2.09,2.09,2.08
117.55,2.06,0.05,2.06,0.05,-0.04,-0.22,-0.36,2.03,2.03,2.02
118.73,2.03,0.08,2.03,0.07,-0.06,-0.28,-0.40,1.97,1.97,1.96
119.92,1.99,0.08,1.99,0.08,-0.09,-0.34,-0.44,1.91,1.91,1.92
121.12,1.95,0.09,1.96,0.10,-0.11,-0.39,-0.47,1.85,1.86,1.87
122.33,1.93,0.13,1.93,0.12,-0.12,-0.45,-0.51,1.81,1.81,1.81
123.55,1.90,0.15,1.90,0.14,-0.15,-0.51,-0.54,1.76,1.75,1.76
124.79,1.87,0.17,1.87,0.17,-0.17,-0.57,-0.57,1.70,1.70,1.71
126.03,1.83,0.19,1.84,0.19,-0.20,-0.62,-0.60,1.63,1.64,1.65
127.29,1.82,0.23,1.82,0.23,-0.24,-0.67,-0.63,1.59,1.58,1.60
128.57,1.80,0.28,1.80,0.27,-0.28,-0.73,-0.66,1.52,1.52,1.53
129.85,1.79,0.32,1.80,0.32,-0.33,-0.78,-0.68,1.46,1.47,1.48
131.15,1.79,0.38,1.80,0.38,-0.38,-0.83,-0.71,1.41,1.41,1.42
132.46,1.80,0.44,1.80,0.44,-0.44,-0.88,-0.73,1.37,1.37,1.37
133.79,1.81,0.51,1.81,0.50,-0.49,-0.93,-0.75,1.32,1.32,1.31
135.12,1.81,0.56,1.81,0.56,-0.55,-0.98,-0.77,1.26,1.26,1.26
136.48,1.81,0.61,1.81,0.61,-0.61,-1.02,-0.79,1.21,1.21,1.21
137.84,1.81,0.66,1.81,0.66,-0.66,-1.07,-0.81,1.15,1.15,1.16
139.22,1.81,0.72,1.81,0.71,-0.71,-1.11,-0.82,1.10,1.10,1.10
140.61,1.81,0.76,1.81,0.77,-0.76,-1.15,-0.84,1.05,1.05,1.06
142.02,1.81,0.82,1.81,0.81,-0.81,-1.20,-0.86,1.00,1.00,1.00
143.44,1.81,0.86,1.81,0.86,-0.86,-1.24,-0.87,0.96,0.96,0.96
144.87,1.81,0.90,1.81,0.90,-0.90,-1.28,-0.89,0.91,0.91,0.92
146.32,1.81,0.95,1.81,0.95,-0.95,-1.31,-0.90,0.87,0.87,0.87
147.78,1.81,0.99,1.81,0.99,-0.99,-1.35,-0.91,0.82,0.82,0.83
149.26,1.81,1.04,1.81,1.04,-1.04,-1.39,-0.93,0.78,0.78,0.78
150.75,1.81,1.08,1.82,1.08,-1.09,-1.42,-0.94,0.73,0.73,0.74
152.26,1.82,1.13,1.82,1.12,-1.13,-1.45,-0.96,0.69,0.69,0.70
153.78,1.82,1.17,1.83,1.17,-1.18,-1.49,-0.97,0.64,0.65,0.66
155.32,1.83,1.22,1.84,1.22,-1.22,-1.52,-0.99,0.61,0.61,0.62
156.88,1.84,1.28,1.84,1.27,-1.27,-1.54,-1.01,0.58,0.57,0.57
158.44,1.83,1.32,1.84,1.32,-1.31,-1.57,-1.02,0.53,0.53,0.52
160.03,1.82,1.35,1.82,1.35,-1.34,-1.60,-1.04,0.48,0.49,0.48
161.63,1.80,1.37,1.80,1.37,-1.37,-1.63,-1.06,0.43,0.43,0.44
163.24,1.78,1.40,1.78,1.40,-1.39,-1.65,-1.08,0.39,0.38,0.39
164.88,1.74,1.41,1.75,1.41,-1.42,-1.67,-1.10,0.33,0.34,0.34
166.53,1.72,1.44,1.72,1.43,-1.43,-1.70,-1.12,0.29,0.29,0.29
168.19,1.69,1.44,1.69,1.44,-1.45,-1.72,-1.14,0.25,0.24,0.26
169.87,1.65,1.46,1.66,1.46,-1.46,-1.74,-1.16,0.20,0.20,0.20
171.57,1.62,1.48,1.62,1.47,-1.47,-1.76,-1.18,0.15,0.15,0.15
173.29,1.59,1.49,1.59,1.49,-1.49,-1.77,-1.21,0.11,0.10,0.11
175.02,1.55,1.50,1.56,1.50,-1.50,-1.79,-1.23,0.05,0.05,0.06
176.77,1.52,1.52,1.53,1.52,-1.52,-1.81,-1.26,-0.00,0.00,0.01
178.54,1.50,1.54,1.50,1.54,-1.55,-1.82,-1.29,-0.05,-0.05,-0.03
180.32,1.49,1.59,1.49,1.57,-1.58,-1.83,-1.32,-0.09,-0.09,-0.09
182.13,1.47,1.60,1.48,1.61,-1.61,-1.85,-1.35,-0.14,-0.14,-0.12
183.95,1.47,1.65,1.47,1.65,-1.65,-1.86,-1.38,-0.18,-0.18,-0.17
185.79,1.47,1.70,1.48,1.70,-1.70,-1.87,-1.41,-0.22,-0.22,-0.22
187.65,1.48,1.75,1.48,1.75,-1.74,-1.88,-1.44,-0.26,-0.26,-0.26
189.52,1.49,1.80,1.49,1.79,-1.79,-1.89,-1.48,-0.30,-0.30,-0.30
191.42,1.49,1.84,1.49,1.84,-1.84,-1.90,-1.51,-0.35,-0.35,-0.34
193.33,1.49,1.88,1.50,1.89,-1.89,-1.91,-1.55,-0.40,-0.40,-0.38
195.27,1.50,1.94,1.50,1.94,-1.94,-1.91,-1.58,-0.44,-0.44,-0.43
197.22,1.50,1.99,1.51,1.99,-1.98,-1.92,-1.62,-0.48,-0.48,-0.48
199.19,1.51,2.03,1.51,2.03,-2.02,-1.92,-1.66,-0.51,-0.51,-0.51
201.18,1.51,2.07,1.51,2.06,-2.06,-1.93,-1.70,-0.54,-0.55,-0.55
203.19,1.50,2.09,1.51,2.09,-2.08,-1.93,-1.73,-0.58,-0.58,-0.58
205.23,1.49,2.10,1.50,2.11,-2.10,-1.93,-1.77,-0.61,-0.61,-0.60
207.28,1.48,2.12,1.48,2.12,-2.12,-1.94,-1.81,-0.63,-0.64,-0.63
209.35,1.45,2.13,1.46,2.13,-2.12,-1.94,-1.85,-0.67,-0.67,-0.67
211.44,1.42,2.13,1.43,2.13,-2.12,-1.94,-1.89,-0.70,-0.70,-0.70
213.56,1.39,2.12,1.39,2.12,-2.12,-1.94,-1.92,-0.73,-0.73,-0.72
215.69,1.35,2.11,1.35,2.11,-2.11,-1.94,-1.96,-0.76,-0.76,-0.75
217.85,1.31,2.10,1.32,2.10,-2.11,-1.94,-2.00,-0.79,-0.79,-0.78
220.03,1.28,2.10,1.28,2.10,-2.10,-1.94,-2.03,-0.81,-0.81,-0.81
222.23,1.25,2.10,1.25,2.09,-2.09,-1.94,-2.07,-0.83,-0.84,-0.84
224.45,1.22,2.08,1.22,2.08,-2.08,-1.94,-2.10,-0.86,-0.86,-0.85
226.70,1.19,2.08,1.20,2.08,-2.08,-1.94,-2.13,-0.88,-0.88,-0.88
228.96,1.17,2.07,1.17,2.07,-2.08,-1.94,-2.16,-0.90,-0.90,-0.89
231.25,1.15,2.07,1.15,2.07,-2.08,-1.93,-2.18,-0.93,-0.93,-0.91
233.57,1.14,2.08,1.15,2.08,-2.09,-1.93,-2.21,-0.95,-0.94,-0.93
235.90,1.14,2.09,1.15,2.10,-2.10,-1.93,-2.23,-0.96,-0.96,-0.94
238.26,1.15,2.13,1.15,2.12,-2.12,-1.93,-2.24,-0.97,-0.97,-0.97
240.64,1.16,2.13,1.16,2.14,-2.14,-1.92,-2.26,-0.97,-0.97,-0.96
243.05,1.17,2.16,1.18,2.16,-2.15,-1.92,-2.27,-0.98,-0.98,-0.98
245.48,1.18,2.18,1.18,2.18,-2.17,-1.92,-2.28,-0.98,-0.98,-0.99
247.93,1.19,2.20,1.19,2.19,-2.18,-1.91,-2.28,-0.98,-0.99,-1.00
250.41,1.18,2.18,1.18,2.19,-2.18,-1.91,-2.29,-1.00,-1.00,-0.99
252.92,1.17,2.18,1.17,2.18,-2.18,-1.91,-2.28,-1.00,-1.00,-1.00
255.45,1.15,2.17,1.16,2.17,-2.17,-1.90,-2.28,-1.01,-1.01,-1.01
258.00,1.14,2.16,1.14,2.15,-2.15,-1.90,-2.27,-1.01,-1.01,-1.01
260.58,1.11,2.13,1.11,2.13,-2.13,-1.90,-2.26,-1.01,-1.01,-1.01
263.19,1.08,2.10,1.08,2.10,-2.10,-1.89,-2.25,-1.01,-1.02,-1.01
265.82,1.04,2.07,1.05,2.07,-2.07,-1.89,-2.23,-1.02,-1.02,-1.02
268.48,1.01,2.04,1.01,2.04,-2.04,-1.89,-2.21,-1.02,-1.02,-1.02
271.16,0.98,2.01,0.98,2.00,-2.01,-1.88,-2.18,-1.02,-1.03,-1.02
273.87,0.94,1.97,0.95,1.97,-1.98,-1.88,-2.16,-1.03,-1.03,-1.02
276.61,0.91,1.94,0.91,1.95,-1.95,-1.88,-2.13,-1.04,-1.04,-1.02
279.38,0.88,1.93,0.89,1.93,-1.93,-1.87,-2.10,-1.05,-1.04,-1.04
282.17,0.87,1.92,0.87,1.91,-1.91,-1.87,-2.07,-1.04,-1.04,-1.04
284.99,0.85,1.89,0.85,1.89,-1.90,-1.86,-2.04,-1.04,-1.04,-1.03
287.84,0.84,1.87,0.84,1.88,-1.88,-1.86,-2.00,-1.04,-1.04,-1.02
290.72,0.83,1.87,0.84,1.86,-1.87,-1.85,-1.97,-1.03,-1.03,-1.03
293.63,0.83,1.86,0.83,1.86,-1.85,-1.85,-1.93,-1.02,-1.02,-1.02
296.57,0.82,1.84,0.82,1.84,-1.83,-1.84,-1.90,-1.01,-1.01,-1.01
299.53,0.81,1.83,0.81,1.82,-1.81,-1.83,-1.86,-0.99,-1.00,-1.01
302.53,0.78,1.78,0.79,1.79,-1.78,-1.82,-1.82,-1.00,-1.00,-0.99
305.55,0.75,1.76,0.75,1.75,-1.75,-1.81,-1.78,-1.00,-1.00,-1.00
308.61,0.72,1.72,0.72,1.71,-1.72,-1.80,-1.75,-1.00,-1.00,-0.99
311.69,0.68,1.67,0.69,1.68,-1.68,-1.78,-1.71,-1.00,-0.99,-0.98
314.81,0.66,1.65,0.66,1.64,-1.64,-1.77,-1.67,-0.98,-0.98,-0.98
317.96,0.63,1.61,0.63,1.61,-1.60,-1.75,-1.63,-0.97,-0.97,-0.97
321.14,0.60,1.57,0.60,1.57,-1.56,-1.74,-1.60,-0.96,-0.96,-0.96
324.35,0.57,1.54,0.57,1.53,-1.53,-1.72,-1.56,-0.95,-0.96,-0.96
327.59,0.53,1.47,0.54,1.49,-1.50,-1.70,-1.53,-0.96,-0.96,-0.93
330.87,0.52,1.47,0.52,1.46,-1.47,-1.67,-1.49,-0.95,-0.95,-0.94
334.18,0.50,1.44,0.51,1.44,-1.45,-1.65,-1.46,-0.95,-0.94,-0.93
337.52,0.50,1.44,0.50,1.43,-1.43,-1.63,-1.43,-0.93,-0.93,-0.93
340.90,0.50,1.42,0.50,1.42,-1.42,-1.60,-1.40,-0.92,-0.92,-0.91
344.30,0.50,1.41,0.51,1.42,-1.42,-1.58,-1.37,-0.91,-0.91,-0.90
347.75,0.51,1.42,0.51,1.41,-1.41,-1.55,-1.34,-0.90,-0.90,-0.90
351.23,0.51,1.42,0.52,1.41,-1.41,-1.53,-1.31,-0.89,-0.89,-0.90
354.74,0.52,1.40,0.52,1.41,-1.40,-1.50,-1.28,-0.88,-0.88,-0.87
358.28,0.52,1.41,0.52,1.40,-1.40,-1.47,-1.26,-0.88,-0.88,-0.88
361.87,0.52,1.40,0.52,1.40,-1.39,-1.45,-1.23,-0.87,-0.87,-0.87
365.49,0.52,1.39,0.52,1.39,-1.39,-1.42,-1.21,-0.86,-0.86,-0.86
369.14,0.52,1.37,0.52,1.38,-1.38,-1.39,-1.18,-0.86,-0.86,-0.84
372.83,0.52,1.37,0.52,1.37,-1.37,-1.37,-1.16,-0.85,-0.85,-0.84
376.56,0.52,1.37,0.52,1.36,-1.36,-1.34,-1.14,-0.84,-0.84,-0.84
380.33,0.52,1.36,0.52,1.36,-1.35,-1.31,-1.12,-0.83,-0.83,-0.83
384.13,0.52,1.34,0.52,1.35,-1.34,-1.29,-1.10,-0.82,-0.82,-0.81
387.97,0.52,1.34,0.52,1.34,-1.34,-1.26,-1.08,-0.81,-0.81,-0.81
391.85,0.52,1.33,0.52,1.33,-1.33,-1.24,-1.07,-0.80,-0.80,-0.80
395.77,0.52,1.32,0.52,1.32,-1.32,-1.22,-1.05,-0.79,-0.79,-0.79
399.73,0.52,1.31,0.52,1.30,-1.31,-1.19,-1.03,-0.78,-0.78,-0.78
403.72,0.52,1.28,0.52,1.29,-1.29,-1.17,-1.02,-0.77,-0.77,-0.75
407.76,0.52,1.29,0.52,1.28,-1.28,-1.14,-1.00,-0.76,-0.76,-0.76
411.84,0.52,1.28,0.52,1.27,-1.27,-1.12,-0.99,-0.75,-0.75,-0.75
415.96,0.52,1.26,0.52,1.27,-1.26,-1.10,-0.98,-0.74,-0.74,-0.73
420.12,0.52,1.26,0.52,1.25,-1.26,-1.08,-0.97,-0.73,-0.73,-0.73
424.32,0.52,1.25,0.52,1.24,-1.25,-1.05,-0.95,-0.73,-0.73,-0.72
428.56,0.52,1.23,0.53,1.24,-1.25,-1.03,-0.94,-0.72,-0.72,-0.70
432.85,0.53,1.23,0.53,1.24,-1.24,-1.01,-0.93,-0.71,-0.71,-0.69
437.18,0.54,1.25,0.54,1.24,-1.24,-0.99,-0.92,-0.69,-0.70,-0.70
441.55,0.54,1.24,0.54,1.24,-1.22,-0.97,-0.91,-0.68,-0.68,-0.69
445.96,0.53,1.22,0.54,1.22,-1.21,-0.95,-0.90,-0.67,-0.67,-0.68
450.42,0.52,1.20,0.52,1.20,-1.19,-0.93,-0.89,-0.66,-0.67,-0.67
454.93,0.50,1.17,0.50,1.17,-1.16,-0.91,-0.88,-0.66,-0.66,-0.66
459.48,0.47,1.13,0.48,1.13,-1.13,-0.89,-0.88,-0.66,-0.65,-0.65
464.07,0.45,1.09,0.45,1.09,-1.09,-0.87,-0.87,-0.64,-0.64,-0.63
468.71,0.42,1.05,0.42,1.05,-1.05,-0.85,-0.86,-0.63,-0.63,-0.62
473.40,0.38,1.01,0.39,1.01,-1.01,-0.83,-0.85,-0.63,-0.62,-0.62
478.13,0.36,0.98,0.36,0.97,-0.97,-0.81,-0.84,-0.61,-0.61,-0.61
482.91,0.32,0.93,0.33,0.93,-0.93,-0.79,-0.83,-0.61,-0.60,-0.60
487.74,0.29,0.89,0.29,0.89,-0.89,-0.77,-0.82,-0.59,-0.59,-0.59
492.62,0.26,0.85,0.26,0.85,-0.85,-0.76,-0.81,-0.58,-0.58,-0.58
497.55,0.23,0.81,0.24,0.81,-0.81,-0.74,-0.80,-0.57,-0.57,-0.57
502.52,0.21,0.78,0.21,0.77,-0.77,-0.72,-0.79,-0.56,-0.56,-0.56
507.55,0.19,0.74,0.19,0.74,-0.74,-0.70,-0.78,-0.55,-0.55,-0.54
512.62,0.17,0.71,0.18,0.71,-0.72,-0.68,-0.77,-0.55,-0.54,-0.53
517.75,0.17,0.69,0.17,0.69,-0.70,-0.66,-0.76,-0.53,-0.53,-0.51
522.93,0.17,0.68,0.17,0.68,-0.69,-0.64,-0.75,-0.52,-0.52,-0.50
528.16,0.18,0.68,0.18,0.68,-0.68,-0.63,-0.74,-0.50,-0.50,-0.49
533.44,0.19,0.68,0.20,0.68,-0.68,-0.61,-0.73,-0.48,-0.48,-0.48
