frequency,raw,error,smoothed,error_smoothed,equalization,parametric_eq,fixed_band_eq,equalized_raw,equalized_smoothed,target
20.00,6.47,-2.27,6.47,-2.27,2.27,1.89,0.54,8.74,8.74,8.74
20.20,6.50,-2.23,6.50,-2.23,2.23,1.87,0.56,8.72,8.73,8.73
20.40,6.54,-2.18,6.54,-2.18,2.18,1.86,0.57,8.72,8.72,8.72
20.61,6.57,-2.14,6.57,-2.13,2.13,1.84,0.59,8.70,8.70,8.71
20.81,6.61,-2.08,6.60,-2.09,2.09,1.83,0.61,8.70,8.69,8.69
21.02,6.64,-2.04,6.64,-2.04,2.04,1.81,0.63,8.68,8.68,8.68
21.23,6.68,-1.99,6.67,-2.00,2.00,1.80,0.65,8.68,8.67,8.67
21.44,6.71,-1.97,6.71,-1.96,1.96,1.78,0.67,8.66,8.66,8.68
21.66,6.74,-1.92,6.74,-1.91,1.91,1.77,0.69,8.65,8.65,8.66
21.87,6.77,-1.89,6.77,-1.87,1.87,1.75,0.72,8.64,8.65,8.66
22.09,6.80,-1.84,6.80,-1.83,1.83,1.73,0.74,8.63,8.64,8.64
22.31,6.84,-1.79,6.84,-1.79,1.79,1.72,0.76,8.63,8.63,8.63
22.54,6.87,-1.75,6.87,-1.75,1.75,1.70,0.79,8.62,8.62,8.62
22.76,6.90,-1.72,6.90,-1.72,1.72,1.68,0.81,8.61,8.62,8.62
22.99,6.94,-1.67,6.93,-1.68,1.68,1.67,0.84,8.62,8.61,8.61
23.22,6.97,-1.63,6.96,-1.64,1.64,1.65,0.86,8.61,8.61,8.60
23.45,7.00,-1.61,7.00,-1.61,1.61,1.63,0.89,8.60,8.60,8.61
23.69,7.03,-1.57,7.03,-1.57,1.57,1.61,0.92,8.60,8.60,8.60
23.92,7.06,-1.53,7.06,-1.53,1.53,1.60,0.94,8.59,8.59,8.59
24.16,7.09,-1.51,7.09,-1.50,1.50,1.58,0.97,8.59,8.59,8.60
24.40,7.12,-1.48,7.12,-1.47,1.47,1.56,1.00,8.59,8.59,8.60
24.65,7.15,-1.44,7.15,-1.44,1.44,1.54,1.03,8.58,8.59,8.59
24.89,7.18,-1.41,7.18,-1.40,1.40,1.52,1.06,8.58,8.58,8.59
25.14,7.21,-1.37,7.21,-1.37,1.37,1.50,1.09,8.58,8.58,8.58
25.39,7.24,-1.34,7.24,-1.34,1.34,1.48,1.11,8.58,8.58,8.58
25.65,7.27,-1.31,7.27,-1.31,1.31,1.46,1.14,8.58,8.58,8.58
25.91,7.30,-1.28,7.30,-1.28,1.28,1.44,1.17,8.58,8.58,8.58
26.16,7.33,-1.26,7.32,-1.25,1.25,1.42,1.20,8.58,8.58,8.59
26.43,7.35,-1.23,7.35,-1.23,1.23,1.40,1.23,8.57,8.58,8.58
26.69,7.38,-1.20,7.38,-1.20,1.20,1.38,1.25,8.58,8.58,8.58
26.96,7.41,-1.17,7.40,-1.18,1.18,1.36,1.28,8.58,8.58,8.58
27.23,7.43,-1.15,7.43,-1.15,1.15,1.34,1.30,8.58,8.58,8.58
27.50,7.46,-1.12,7.45,-1.13,1.13,1.32,1.33,8.59,8.58,8.58
27.77,7.48,-1.11,7.48,-1.11,1.11,1.30,1.35,8.59,8.58,8.59
28.05,7.50,-1.08,7.50,-1.09,1.09,1.27,1.37,8.58,8.59,8.58
28.33,7.52,-1.07,7.52,-1.06,1.06,1.25,1.39,8.58,8.59,8.59
28.62,7.54,-1.05,7.54,-1.05,1.05,1.23,1.41,8.58,8.59,8.59
28.90,7.56,-1.04,7.56,-1.03,1.03,1.21,1.42,8.58,8.59,8.60
29.19,7.58,-1.02,7.58,-1.01,1.01,1.18,1.44,8.59,8.59,8.60
29.48,7.60,-0.99,7.59,-0.99,0.99,1.16,1.45,8.59,8.59,8.59
29.78,7.62,-0.97,7.61,-0.97,0.97,1.14,1.46,8.59,8.58,8.59
30.08,7.64,-0.95,7.62,-0.96,0.96,1.11,1.46,8.59,8.58,8.59
30.38,7.65,-0.92,7.64,-0.94,0.94,1.09,1.46,8.59,8.58,8.57
30.68,7.65,-0.92,7.65,-0.92,0.92,1.07,1.46,8.57,8.57,8.57
30.99,7.66,-0.91,7.66,-0.90,0.90,1.04,1.46,8.56,8.57,8.57
31.30,7.67,-0.90,7.68,-0.89,0.89,1.02,1.45,8.55,8.56,8.57
31.61,7.68,-0.88,7.69,-0.87,0.87,0.99,1.44,8.54,8.55,8.56
31.93,7.70,-0.84,7.70,-0.85,0.85,0.97,1.43,8.55,8.55,8.54
32.24,7.71,-0.84,7.71,-0.83,0.83,0.94,1.42,8.54,8.54,8.55
32.57,7.72,-0.81,7.72,-0.81,0.81,0.92,1.40,8.53,8.53,8.53
32.89,7.73,-0.80,7.73,-0.80,0.80,0.89,1.38,8.53,8.53,8.53
33.22,7.74,-0.78,7.74,-0.78,0.78,0.87,1.35,8.52,8.52,8.52
33.55,7.75,-0.77,7.74,-0.77,0.77,0.84,1.33,8.52,8.51,8.52
33.89,7.76,-0.75,7.75,-0.75,0.75,0.82,1.30,8.51,8.51,8.51
34.23,7.76,-0.73,7.76,-0.74,0.74,0.79,1.27,8.50,8.50,8.49
34.57,7.77,-0.72,7.77,-0.72,0.72,0.76,1.23,8.49,8.49,8.49
34.92,7.78,-0.69,7.77,-0.71,0.71,0.74,1.20,8.49,8.48,8.47
35.27,7.78,-0.71,7.78,-0.69,0.69,0.71,1.16,8.47,8.47,8.49
35.62,7.78,-0.68,7.78,-0.68,0.68,0.68,1.12,8.46,8.46,8.46
35.97,7.78,-0.68,7.78,-0.66,0.66,0.65,1.08,8.44,8.44,8.46
36.33,7.78,-0.66,7.79,-0.64,0.64,0.63,1.04,8.42,8.43,8.44
36.70,7.79,-0.63,7.79,-0.63,0.63,0.60,1.00,8.41,8.42,8.42
37.06,7.79,-0.61,7.79,-0.61,0.61,0.57,0.95,8.40,8.40,8.40
37.43,7.79,-0.59,7.79,-0.59,0.59,0.54,0.91,8.38,8.38,8.38
37.81,7.80,-0.57,7.79,-0.57,0.57,0.51,0.86,8.37,8.36,8.37
38.19,7.80,-0.54,7.79,-0.55,0.55,0.48,0.82,8.35,8.34,8.34
38.57,7.80,-0.52,7.79,-0.53,0.53,0.45,0.77,8.33,8.32,8.32
38.95,7.80,-0.51,7.79,-0.51,0.51,0.43,0.72,8.31,8.30,8.31
39.34,7.80,-0.48,7.79,-0.49,0.49,0.40,0.68,8.28,8.28,8.28
39.74,7.79,-0.46,7.79,-0.47,0.47,0.37,0.63,8.25,8.25,8.25
40.14,7.79,-0.44,7.79,-0.44,0.44,0.34,0.58,8.23,8.23,8.23
40.54,7.78,-0.43,7.79,-0.42,0.42,0.31,0.54,8.20,8.21,8.21
40.94,7.78,-0.40,7.78,-0.40,0.40,0.28,0.49,8.18,8.19,8.18
41.35,7.78,-0.39,7.78,-0.38,0.38,0.24,0.44,8.16,8.17,8.17
41.76,7.78,-0.36,7.78,-0.36,0.36,0.21,0.40,8.14,8.14,8.14
42.18,7.78,-0.35,7.78,-0.34,0.34,0.18,0.35,8.12,8.12,8.13
42.60,7.78,-0.32,7.78,-0.32,0.32,0.15,0.30,8.10,8.10,8.10
43.03,7.78,-0.30,7.78,-0.29,0.29,0.12,0.26,8.07,8.07,8.08
43.46,7.78,-0.26,7.78,-0.27,0.27,0.09,0.21,8.05,8.05,8.04
43.90,7.78,-0.24,7.78,-0.24,0.24,0.06,0.16,8.02,8.02,8.02
44.33,7.78,-0.21,7.78,-0.22,0.22,0.02,0.12,7.99,7.99,7.99
44.78,7.78,-0.19,7.78,-0.19,0.19,-0.01,0.07,7.96,7.96,7.97
45.23,7.78,-0.17,7.78,-0.15,0.15,-0.04,0.03,7.93,7.93,7.95
45.68,7.78,-0.12,7.78,-0.12,0.12,-0.07,-0.02,7.90,7.90,7.90
46.13,7.78,-0.09,7.78,-0.08,0.08,-0.11,-0.06,7.86,7.86,7.87
46.60,7.78,-0.05,7.78,-0.05,0.05,-0.14,-0.11,7.83,7.83,7.83
47.06,7.78,-0.02,7.78,-0.01,0.01,-0.18,-0.15,7.79,7.79,7.80
47.53,7.78,0.02,7.78,0.03,-0.03,-0.21,-0.20,7.75,7.75,7.76
48.01,7.78,0.07,7.78,0.07,-0.07,-0.24,-0.24,7.71,7.71,7.71
48.49,7.78,0.11,7.78,0.11,-0.11,-0.28,-0.29,7.67,7.67,7.67
48.97,7.78,0.16,7.78,0.15,-0.15,-0.31,-0.33,7.63,7.63,7.62
49.46,7.78,0.19,7.78,0.19,-0.19,-0.35,-0.37,7.59,7.59,7.59
49.96,7.78,0.25,7.78,0.23,-0.23,-0.38,-0.42,7.54,7.54,7.53
50.46,7.78,0.28,7.78,0.28,-0.28,-0.42,-0.46,7.50,7.50,7.50
50.96,7.78,0.32,7.78,0.32,-0.32,-0.45,-0.50,7.46,7.46,7.46
51.47,7.78,0.36,7.78,0.36,-0.36,-0.49,-0.55,7.42,7.42,7.42
51.99,7.78,0.41,7.78,0.40,-0.40,-0.53,-0.59,7.37,7.37,7.37
52.51,7.78,0.44,7.78,0.45,-0.45,-0.56,-0.63,7.33,7.33,7.34
53.03,7.78,0.47,7.78,0.49,-0.49,-0.60,-0.68,7.29,7.29,7.31
53.56,7.78,0.52,7.78,0.53,-0.53,-0.64,-0.72,7.25,7.25,7.26
54.10,7.78,0.57,7.78,0.57,-0.57,-0.67,-0.76,7.21,7.21,7.21
54.64,7.78,0.61,7.78,0.60,-0.60,-0.71,-0.80,7.17,7.17,7.17
55.18,7.78,0.65,7.78,0.64,-0.64,-0.75,-0.84,7.13,7.13,7.13
55.74,7.78,0.70,7.78,0.68,-0.68,-0.79,-0.88,7.10,7.10,7.08
56.29,7.78,0.72,7.78,0.72,-0.72,-0.83,-0.92,7.06,7.06,7.06
56.86,7.78,0.76,7.78,0.76,-0.76,-0.86,-0.96,7.02,7.02,7.02
57.42,7.78,0.81,7.78,0.80,-0.80,-0.90,-1.00,6.98,6.98,6.97
58.00,7.78,0.85,7.78,0.84,-0.84,-0.94,-1.04,6.93,6.93,6.93
58.58,7.78,0.88,7.78,0.89,-0.89,-0.98,-1.08,6.89,6.89,6.90
59.16,7.78,0.91,7.78,0.93,-0.93,-1.02,-1.12,6.84,6.84,6.87
59.76,7.78,0.96,7.78,0.98,-0.98,-1.06,-1.15,6.80,6.80,6.82
60.35,7.78,1.01,7.78,1.03,-1.03,-1.10,-1.19,6.75,6.75,6.77
60.96,7.78,1.07,7.78,1.08,-1.08,-1.14,-1.22,6.70,6.70,6.71
61.57,7.78,1.13,7.78,1.13,-1.13,-1.18,-1.26,6.65,6.65,6.65
62.18,7.78,1.19,7.78,1.18,-1.18,-1.22,-1.29,6.60,6.60,6.59
62.80,7.78,1.25,7.78,1.24,-1.24,-1.27,-1.33,6.54,6.54,6.53
63.43,7.78,1.30,7.78,1.29,-1.29,-1.31,-1.36,6.49,6.49,6.48
64.07,7.78,1.35,7.78,1.34,-1.34,-1.35,-1.39,6.43,6.43,6.43
64.71,7.78,1.40,7.78,1.40,-1.40,-1.39,-1.43,6.38,6.38,6.38
65.35,7.78,1.46,7.78,1.45,-1.45,-1.43,-1.46,6.32,6.32,6.32
66.01,7.78,1.51,7.78,1.51,-1.51,-1.48,-1.49,6.27,6.27,6.27
66.67,7.78,1.55,7.78,1.56,-1.56,-1.52,-1.52,6.21,6.21,6.23
67.33,7.78,1.62,7.78,1.62,-1.62,-1.56,-1.55,6.16,6.16,6.16
68.01,7.78,1.67,7.78,1.67,-1.67,-1.61,-1.58,6.11,6.11,6.11
68.69,7.78,1.72,7.78,1.73,-1.73,-1.65,-1.61,6.05,6.05,6.06
69.37,7.78,1.77,7.78,1.78,-1.78,-1.69,-1.64,5.99,5.99,6.01
70.07,7.78,1.83,7.78,1.84,-1.84,-1.74,-1.67,5.94,5.94,5.95
70.77,7.78,1.90,7.78,1.90,-1.90,-1.78,-1.71,5.88,5.88,5.88
71.48,7.78,1.95,7.78,1.95,-1.95,-1.83,-1.74,5.82,5.82,5.83
72.19,7.78,2.01,7.78,2.01,-2.01,-1.87,-1.77,5.77,5.77,5.77
72.91,7.78,2.08,7.78,2.07,-2.07,-1.92,-1.80,5.71,5.71,5.70
73.64,7.78,2.13,7.78,2.13,-2.13,-1.96,-1.84,5.65,5.65,5.65
74.38,7.78,2.19,7.78,2.18,-2.18,-2.01,-1.87,5.59,5.60,5.59
75.12,7.78,2.24,7.78,2.24,-2.24,-2.06,-1.91,5.54,5.54,5.54
75.87,7.78,2.29,7.78,2.30,-2.30,-2.10,-1.95,5.48,5.49,5.49
76.63,7.78,2.35,7.79,2.35,-2.35,-2.15,-1.98,5.43,5.44,5.43
77.40,7.78,2.39,7.79,2.41,-2.41,-2.20,-2.02,5.37,5.38,5.39
78.17,7.78,2.45,7.79,2.46,-2.46,-2.24,-2.06,5.32,5.33,5.33
78.95,7.79,2.50,7.79,2.51,-2.51,-2.29,-2.11,5.28,5.28,5.29
79.74,7.80,2.56,7.79,2.56,-2.56,-2.34,-2.15,5.24,5.23,5.24
80.54,7.80,2.61,7.79,2.61,-2.61,-2.39,-2.20,5.19,5.18,5.19
81.35,7.80,2.67,7.79,2.65,-2.65,-2.44,-2.24,5.15,5.13,5.13
82.16,7.80,2.70,7.78,2.70,-2.70,-2.48,-2.29,5.10,5.08,5.10
82.98,7.78,2.74,7.77,2.74,-2.74,-2.53,-2.34,5.04,5.03,5.04
83.81,7.77,2.78,7.76,2.78,-2.78,-2.58,-2.39,4.99,4.98,4.99
84.65,7.75,2.82,7.74,2.81,-2.81,-2.63,-2.45,4.93,4.93,4.93
85.50,7.73,2.86,7.72,2.85,-2.85,-2.68,-2.50,4.88,4.87,4.87
86.35,7.71,2.89,7.70,2.88,-2.88,-2.73,-2.56,4.83,4.82,4.82
87.22,7.67,2.90,7.67,2.91,-2.91,-2.78,-2.62,4.76,4.76,4.77
88.09,7.65,2.94,7.64,2.93,-2.93,-2.83,-2.69,4.71,4.71,4.71
88.97,7.62,2.97,7.61,2.96,-2.96,-2.88,-2.75,4.66,4.65,4.65
89.86,7.59,2.99,7.58,2.99,-2.99,-2.93,-2.82,4.60,4.59,4.60
90.76,7.56,3.02,7.56,3.02,-3.02,-2.98,-2.88,4.54,4.54,4.54
91.66,7.53,3.06,7.53,3.06,-3.06,-3.03,-2.96,4.47,4.47,4.47
92.58,7.50,3.08,7.51,3.09,-3.09,-3.09,-3.03,4.40,4.41,4.42
93.51,7.48,3.11,7.49,3.13,-3.13,-3.14,-3.10,4.34,4.35,4.37
94.44,7.46,3.15,7.47,3.18,-3.18,-3.19,-3.18,4.28,4.29,4.31
95.39,7.44,3.20,7.46,3.23,-3.23,-3.24,-3.26,4.21,4.23,4.24
96.34,7.43,3.26,7.45,3.28,-3.28,-3.29,-3.34,4.15,4.17,4.17
97.30,7.43,3.32,7.44,3.33,-3.33,-3.35,-3.42,4.10,4.11,4.11
98.28,7.43,3.39,7.44,3.39,-3.39,-3.40,-3.50,4.04,4.05,4.04
99.26,7.44,3.46,7.43,3.45,-3.45,-3.45,-3.58,3.99,3.99,3.98
100.25,7.45,3.53,7.43,3.51,-3.51,-3.50,-3.67,3.94,3.93,3.92
101.25,7.45,3.58,7.43,3.57,-3.57,-3.55,-3.76,3.88,3.87,3.87
102.27,7.45,3.64,7.44,3.63,-3.63,-3.61,-3.84,3.82,3.81,3.81
103.29,7.45,3.70,7.44,3.69,-3.69,-3.66,-3.93,3.76,3.75,3.75
104.32,7.45,3.75,7.44,3.75,-3.75,-3.71,-4.02,3.70,3.70,3.70
105.37,7.45,3.81,7.45,3.81,-3.81,-3.77,-4.11,3.64,3.64,3.64
106.42,7.45,3.86,7.45,3.86,-3.86,-3.82,-4.20,3.58,3.58,3.59
107.48,7.45,3.92,7.45,3.92,-3.92,-3.87,-4.28,3.52,3.53,3.53
108.56,7.45,3.97,7.45,3.98,-3.98,-3.93,-4.37,3.47,3.47,3.48
109.64,7.45,4.03,7.45,4.04,-4.04,-3.98,-4.46,3.41,3.41,3.42
110.74,7.45,4.09,7.45,4.10,-4.10,-4.03,-4.54,3.35,3.35,3.36
111.85,7.45,4.15,7.45,4.15,-4.15,-4.08,-4.62,3.29,3.29,3.30
112.97,7.45,4.20,7.45,4.21,-4.21,-4.14,-4.70,3.24,3.23,3.25
114.10,7.45,4.26,7.45,4.27,-4.27,-4.19,-4.77,3.18,3.18,3.19
115.24,7.45,4.34,7.45,4.33,-4.33,-4.24,-4.84,3.12,3.12,3.11
116.39,7.45,4.40,7.45,4.39,-4.39,-4.30,-4.91,3.06,3.06,3.05
117.55,7.45,4.46,7.45,4.45,-4.45,-4.35,-4.97,3.00,3.00,2.99
118.73,7.45,4.52,7.46,4.51,-4.51,-4.40,-5.03,2.94,2.95,2.93
119.92,7.45,4.56,7.46,4.57,-4.57,-4.45,-5.09,2.88,2.89,2.89
121.12,7.45,4.61,7.46,4.63,-4.63,-4.51,-5.14,2.82,2.83,2.84
122.33,7.45,4.67,7.46,4.69,-4.69,-4.56,-5.18,2.76,2.78,2.78
123.55,7.46,4.73,7.46,4.74,-4.74,-4.61,-5.22,2.71,2.72,2.73
124.79,7.47,4.79,7.46,4.80,-4.80,-4.66,-5.25,2.67,2.66,2.68
126.03,7.48,4.86,7.46,4.85,-4.85,-4.71,-5.27,2.63,2.61,2.62
127.29,7.47,4.90,7.45,4.90,-4.90,-4.76,-5.29,2.57,2.56,2.57
128.57,7.46,4.96,7.44,4.94,-4.94,-4.81,-5.31,2.52,2.50,2.50
129.85,7.45,5.00,7.43,4.98,-4.98,-4.86,-5.32,2.47,2.45,2.45
131.15,7.42,5.03,7.41,5.02,-5.02,-4.91,-5.32,2.40,2.39,2.39
132.46,7.41,5.07,7.39,5.05,-5.05,-4.96,-5.32,2.36,2.34,2.34
133.79,7.38,5.10,7.36,5.08,-5.08,-5.01,-5.32,2.30,2.28,2.28
135.12,7.33,5.10,7.33,5.10,-5.10,-5.06,-5.31,2.22,2.23,2.23
136.48,7.31,5.13,7.30,5.13,-5.13,-5.11,-5.30,2.18,2.18,2.18
137.84,7.27,5.14,7.27,5.15,-5.15,-5.16,-5.28,2.12,2.12,2.13
139.22,7.24,5.17,7.24,5.17,-5.17,-5.20,-5.27,2.07,2.07,2.07
140.61,7.21,5.18,7.21,5.19,-5.19,-5.25,-5.25,2.02,2.02,2.03
142.02,7.17,5.20,7.19,5.21,-5.21,-5.30,-5.23,1.96,1.98,1.97
143.44,7.16,5.23,7.17,5.24,-5.24,-5.34,-5.20,1.92,1.93,1.93
144.87,7.13,5.24,7.15,5.26,-5.26,-5.39,-5.18,1.86,1.88,1.89
146.32,7.12,5.28,7.14,5.30,-5.30,-5.43,-5.15,1.82,1.84,1.84
147.78,7.10,5.30,7.13,5.33,-5.33,-5.47,-5.13,1.76,1.80,1.80
149.26,7.11,5.36,7.12,5.37,-5.37,-5.52,-5.11,1.74,1.75,1.75
150.75,7.12,5.41,7.12,5.42,-5.42,-5.56,-5.08,1.70,1.71,1.71
152.26,7.12,5.45,7.13,5.46,-5.46,-5.60,-5.06,1.66,1.66,1.67
153.78,7.13,5.50,7.13,5.51,-5.51,-5.64,-5.04,1.62,1.62,1.63
155.32,7.14,5.55,7.13,5.55,-5.55,-5.68,-5.03,1.59,1.58,1.59
156.88,7.15,5.61,7.13,5.60,-5.60,-5.72,-5.01,1.55,1.53,1.54
158.44,7.15,5.66,7.13,5.64,-5.64,-5.75,-5.00,1.51,1.49,1.49
160.03,7.15,5.70,7.13,5.68,-5.68,-5.79,-4.99,1.47,1.45,1.45
161.63,7.14,5.73,7.12,5.72,-5.72,-5.83,-4.98,1.42,1.40,1.41
163.24,7.13,5.77,7.10,5.75,-5.75,-5.86,-4.97,1.38,1.36,1.36
164.88,7.10,5.79,7.08,5.78,-5.78,-5.89,-4.97,1.32,1.31,1.31
166.53,7.08,5.82,7.06,5.80,-5.80,-5.93,-4.98,1.28,1.26,1.26
168.19,7.05,5.82,7.04,5.82,-5.82,-5.96,-4.98,1.23,1.22,1.23
169.87,7.01,5.84,7.01,5.84,-5.84,-5.99,-4.99,1.16,1.17,1.17
171.57,6.98,5.86,6.98,5.86,-5.86,-6.02,-5.00,1.12,1.12,1.12
173.29,6.95,5.87,6.95,5.88,-5.88,-6.05,-5.02,1.07,1.07,1.08
175.02,6.91,5.88,6.93,5.90,-5.90,-6.07,-5.04,1.01,1.03,1.03
176.77,6.87,5.89,6.90,5.92,-5.92,-6.10,-5.07,0.95,0.98,0.98
178.54,6.85,5.91,6.88,5.94,-5.94,-6.12,-5.09,0.91,0.93,0.94
180.32,6.84,5.96,6.85,5.97,-5.97,-6.14,-5.13,0.87,0.89,0.88
182.13,6.83,5.98,6.83,5.99,-5.99,-6.17,-5.16,0.84,0.84,0.85
183.95,6.81,6.01,6.81,6.02,-6.02,-6.19,-5.20,0.79,0.80,0.80
185.79,6.79,6.04,6.79,6.04,-6.04,-6.20,-5.25,0.75,0.75,0.75
187.65,6.78,6.07,6.77,6.07,-6.07,-6.22,-5.29,0.71,0.71,0.71
189.52,6.77,6.10,6.75,6.09,-6.09,-6.24,-5.35,0.68,0.66,0.67
191.42,6.76,6.13,6.73,6.11,-6.11,-6.25,-5.40,0.65,0.62,0.63
193.33,6.74,6.15,6.71,6.13,-6.13,-6.27,-5.46,0.61,0.58,0.59
195.27,6.70,6.16,6.69,6.15,-6.15,-6.28,-5.52,0.55,0.54,0.54
197.22,6.67,6.18,6.66,6.16,-6.16,-6.29,-5.58,0.51,0.50,0.49
199.19,6.64,6.18,6.64,6.17,-6.17,-6.30,-5.65,0.46,0.46,0.46
201.18,6.60,6.18,6.61,6.18,-6.18,-6.30,-5.72,0.41,0.43,0.42
203.19,6.57,6.18,6.59,6.20,-6.20,-6.31,-5.79,0.37,0.39,0.39
205.23,6.55,6.18,6.56,6.20,-6.20,-6.31,-5.86,0.34,0.36,0.37
207.28,6.53,6.19,6.54,6.21,-6.21,-6.32,-5.94,0.32,0.33,0.34
209.35,6.51,6.21,6.51,6.22,-6.22,-6.32,-6.01,0.29,0.30,0.30
211.44,6.49,6.22,6.49,6.22,-6.22,-6.32,-6.09,0.27,0.27,0.27
213.56,6.46,6.21,6.46,6.22,-6.22,-6.32,-6.17,0.24,0.24,0.25
215.69,6.44,6.22,6.44,6.23,-6.23,-6.31,-6.24,0.21,0.21,0.22
217.85,6.42,6.23,6.41,6.23,-6.23,-6.31,-6.32,0.19,0.19,0.19
220.03,6.41,6.25,6.39,6.23,-6.23,-6.30,-6.39,0.18,0.16,0.16
222.23,6.39,6.26,6.37,6.23,-6.23,-6.29,-6.46,0.16,0.14,0.13
224.45,6.35,6.23,6.34,6.23,-6.23,-6.28,-6.52,0.12,0.11,0.12
226.70,6.31,6.22,6.32,6.22,-6.22,-6.27,-6.59,0.08,0.09,0.09
228.96,6.28,6.20,6.29,6.22,-6.22,-6.26,-6.65,0.06,0.07,0.08
231.25,6.26,6.20,6.26,6.21,-6.21,-6.25,-6.70,0.05,0.05,0.06
233.57,6.24,6.20,6.23,6.19,-6.19,-6.23,-6.75,0.04,0.04,0.04
235.90,6.21,6.18,6.20,6.18,-6.18,-6.21,-6.79,0.03,0.02,0.03
238.26,6.18,6.18,6.18,6.17,-6.17,-6.20,-6.82,0.01,0.01,-0.00
240.64,6.15,6.14,6.15,6.15,-6.15,-6.18,-6.85,-0.00,-0.00,0.01
243.05,6.12,6.13,6.12,6.13,-6.13,-6.16,-6.87,-0.01,-0.01,-0.01
245.48,6.09,6.11,6.09,6.11,-6.11,-6.13,-6.88,-0.02,-0.02,-0.02
247.93,6.05,6.08,6.06,6.09,-6.09,-6.11,-6.88,-0.04,-0.03,-0.03
250.41,6.03,6.05,6.04,6.07,-6.07,-6.09,-6.87,-0.04,-0.03,-0.02
252.92,6.00,6.03,6.01,6.04,-6.04,-6.06,-6.85,-0.04,-0.04,-0.03
255.45,5.98,6.02,5.98,6.02,-6.02,-6.03,-6.83,-0.04,-0.04,-0.04
258.00,5.97,6.01,5.95,5.99,-5.99,-6.00,-6.79,-0.02,-0.04,-0.04
260.58,5.94,5.98,5.92,5.96,-5.96,-5.98,-6.75,-0.03,-0.05,-0.04
263.19,5.91,5.95,5.89,5.94,-5.94,-5.94,-6.70,-0.03,-0.05,-0.04
265.82,5.86,5.91,5.86,5.91,-5.91,-5.91,-6.64,-0.06,-0.05,-0.05
268.48,5.83,5.88,5.83,5.89,-5.89,-5.88,-6.57,-0.06,-0.06,-0.05
271.16,5.79,5.84,5.80,5.86,-5.86,-5.85,-6.50,-0.07,-0.06,-0.05
273.87,5.75,5.80,5.77,5.83,-5.83,-5.81,-6.43,-0.08,-0.06,-0.05
276.61,5.72,5.77,5.74,5.80,-5.80,-5.77,-6.34,-0.08,-0.06,-0.05
279.38,5.70,5.77,5.71,5.77,-5.77,-5.74,-6.25,-0.07,-0.06,-0.07
282.17,5.69,5.76,5.67,5.73,-5.73,-5.70,-6.16,-0.04,-0.06,-0.07
284.99,5.67,5.73,5.63,5.69,-5.69,-5.66,-6.07,-0.03,-0.06,-0.06
287.84,5.62,5.67,5.60,5.66,-5.66,-5.62,-5.97,-0.04,-0.06,-0.05
290.72,5.58,5.64,5.57,5.62,-5.62,-5.58,-5.87,-0.04,-0.05,-0.06
293.63,5.54,5.59,5.53,5.59,-5.59,-5.54,-5.77,-0.05,-0.05,-0.05
296.57,5.50,5.54,5.50,5.55,-5.55,-5.49,-5.67,-0.05,-0.05,-0.04
299.53,5.46,5.50,5.47,5.51,-5.51,-5.45,-5.57,-0.05,-0.04,-0.04
302.53,5.42,5.44,5.44,5.47,-5.47,-5.41,-5.47,-0.06,-0.04,-0.02
305.55,5.38,5.41,5.40,5.43,-5.43,-5.36,-5.37,-0.05,-0.03,-0.03
308.61,5.35,5.37,5.37,5.39,-5.39,-5.32,-5.27,-0.04,-0.02,-0.02
311.69,5.33,5.34,5.33,5.35,-5.35,-5.27,-5.17,-0.02,-0.01,-0.01
314.81,5.32,5.33,5.30,5.31,-5.31,-5.22,-5.08,0.01,-0.01,-0.01
317.96,5.29,5.29,5.27,5.27,-5.27,-5.18,-4.98,0.02,-0.00,-0.00
321.14,5.26,5.25,5.24,5.23,-5.23,-5.13,-4.89,0.02,0.01,0.01
324.35,5.21,5.20,5.21,5.19,-5.19,-5.08,-4.80,0.01,0.01,0.01
327.59,5.17,5.13,5.18,5.16,-5.16,-5.03,-4.72,0.01,0.02,0.04
330.87,5.13,5.10,5.14,5.12,-5.12,-4.98,-4.63,0.01,0.03,0.03
334.18,5.10,5.06,5.11,5.07,-5.07,-4.93,-4.55,0.02,0.04,0.04
337.52,5.07,5.03,5.08,5.03,-5.03,-4.88,-4.47,0.04,0.04,0.04
340.90,5.06,5.00,5.04,4.98,-4.98,-4.83,-4.40,0.07,0.05,0.06
344.30,5.02,4.95,5.00,4.94,-4.94,-4.78,-4.33,0.08,0.06,0.07
347.75,4.98,4.91,4.96,4.89,-4.89,-4.73,-4.26,0.09,0.07,0.07
351.23,4.93,4.86,4.92,4.84,-4.84,-4.68,-4.19,0.09,0.08,0.07
354.74,4.88,4.78,4.87,4.79,-4.79,-4.63,-4.13,0.09,0.08,0.10
358.28,4.82,4.73,4.83,4.74,-4.74,-4.58,-4.07,0.08,0.09,0.09
361.87,4.78,4.68,4.79,4.69,-4.69,-4.52,-4.02,0.09,0.10,0.10
365.49,4.74,4.63,4.75,4.64,-4.64,-4.47,-3.96,0.10,0.11,0.11
369.14,4.70,4.57,4.70,4.59,-4.59,-4.42,-3.91,0.11,0.12,0.13
372.83,4.66,4.53,4.66,4.53,-4.53,-4.37,-3.87,0.12,0.12,0.13
376.56,4.62,4.49,4.61,4.48,-4.48,-4.31,-3.82,0.14,0.13,0.13
380.33,4.57,4.43,4.57,4.43,-4.43,-4.26,-3.78,0.14,0.14,0.14
384.13,4.53,4.37,4.53,4.38,-4.38,-4.21,-3.75,0.15,0.15,0.16
387.97,4.48,4.32,4.49,4.32,-4.32,-4.15,-3.71,0.15,0.16,0.16
391.85,4.44,4.27,4.45,4.27,-4.27,-4.10,-3.68,0.16,0.17,0.17
395.77,4.41,4.23,4.40,4.22,-4.22,-4.04,-3.65,0.18,0.18,0.18
399.73,4.37,4.18,4.36,4.17,-4.17,-3.99,-3.62,0.20,0.19,0.19
403.72,4.33,4.11,4.32,4.12,-4.12,-3.94,-3.59,0.21,0.20,0.22
407.76,4.29,4.08,4.28,4.07,-4.07,-3.88,-3.57,0.22,0.21,0.21
411.84,4.25,4.03,4.24,4.02,-4.02,-3.83,-3.55,0.22,0.22,0.22
415.96,4.20,3.96,4.20,3.97,-3.97,-3.77,-3.52,0.22,0.23,0.24
420.12,4.16,3.92,4.16,3.93,-3.93,-3.72,-3.51,0.23,0.24,0.24
424.32,4.12,3.87,4.12,3.88,-3.88,-3.67,-3.49,0.24,0.25,0.25
428.56,4.08,3.81,4.08,3.83,-3.83,-3.61,-3.47,0.25,0.26,0.27
432.85,4.04,3.76,4.04,3.77,-3.77,-3.56,-3.45,0.26,0.27,0.28
437.18,4.00,3.73,4.00,3.72,-3.72,-3.51,-3.43,0.28,0.28,0.27
441.55,3.96,3.68,3.95,3.67,-3.67,-3.45,-3.42,0.29,0.28,0.28
445.96,3.92,3.63,3.91,3.61,-3.61,-3.40,-3.40,0.30,0.29,0.29
450.42,3.88,3.58,3.86,3.56,-3.56,-3.34,-3.38,0.32,0.30,0.30
454.93,3.82,3.51,3.82,3.51,-3.51,-3.29,-3.36,0.31,0.31,0.31
459.48,3.77,3.45,3.77,3.45,-3.45,-3.24,-3.34,0.32,0.32,0.32
464.07,3.71,3.37,3.72,3.39,-3.39,-3.18,-3.32,0.32,0.33,0.34
468.71,3.66,3.31,3.66,3.33,-3.33,-3.13,-3.30,0.33,0.34,0.35
473.40,3.61,3.26,3.61,3.27,-3.27,-3.08,-3.28,0.34,0.35,0.35
478.13,3.57,3.21,3.56,3.20,-3.20,-3.03,-3.25,0.36,0.36,0.36
482.91,3.52,3.15,3.51,3.14,-3.14,-2.97,-3.22,0.38,0.37,0.37
487.74,3.47,3.09,3.45,3.07,-3.07,-2.92,-3.19,0.40,0.38,0.38
492.62,3.40,3.01,3.40,3.01,-3.01,-2.87,-3.16,0.39,0.39,0.39
497.55,3.34,2.94,3.34,2.94,-2.94,-2.82,-3.12,0.40,0.40,0.40
502.52,3.28,2.87,3.29,2.88,-2.88,-2.76,-3.08,0.40,0.41,0.41
507.55,3.22,2.79,3.24,2.82,-2.82,-2.71,-3.04,0.40,0.43,0.43
512.62,3.19,2.75,3.19,2.76,-2.76,-2.66,-3.00,0.43,0.44,0.44
517.75,3.15,2.69,3.14,2.69,-2.69,-2.61,-2.95,0.45,0.45,0.46
522.93,3.10,2.63,3.09,2.63,-2.63,-2.56,-2.90,0.47,0.46,0.47
528.16,3.04,2.56,3.04,2.57,-2.57,-2.51,-2.85,0.47,0.47,0.48
533.44,2.99,2.50,3.00,2.51,-2.51,-2.45,-2.80,0.48,0.49,0.49
538.77,2.95,2.45,2.95,2.45,-2.45,-2.40,-2.74,0.50,0.50,0.50
544.16,2.92,2.41,2.90,2.39,-2.39,-2.35,-2.68,0.52,0.51,0.51
