frequency,raw,error,smoothed,error_smoothed,equalization,parametric_eq,fixed_band_eq,equalized_raw,equalized_smoothed,target
20.00,9.75,-0.87,9.75,-0.89,0.89,1.44,1.36,10.64,10.64,10.62
20.20,9.71,-0.95,9.71,-0.97,0.97,1.47,1.40,10.68,10.68,10.66
20.40,9.66,-1.04,9.66,-1.04,1.04,1.49,1.44,10.70,10.71,10.70
20.61,9.62,-1.11,9.62,-1.11,1.11,1.52,1.48,10.73,10.73,10.73
20.81,9.58,-1.19,9.58,-1.18,1.18,1.55,1.53,10.76,10.76,10.77
21.02,9.54,-1.27,9.53,-1.25,1.25,1.58,1.57,10.79,10.78,10.81
21.23,9.49,-1.34,9.49,-1.32,1.32,1.61,1.61,10.81,10.81,10.83
21.44,9.45,-1.40,9.45,-1.38,1.38,1.64,1.66,10.83,10.83,10.85
21.66,9.41,-1.46,9.41,-1.44,1.44,1.67,1.71,10.86,10.85,10.87
21.87,9.36,-1.52,9.36,-1.51,1.51,1.70,1.76,10.87,10.87,10.88
22.09,9.32,-1.58,9.32,-1.57,1.57,1.73,1.81,10.89,10.89,10.90
22.31,9.28,-1.63,9.28,-1.63,1.63,1.76,1.86,10.91,10.90,10.91
22.54,9.24,-1.67,9.24,-1.68,1.68,1.79,1.92,10.92,10.92,10.92
22.76,9.19,-1.74,9.19,-1.73,1.73,1.82,1.97,10.92,10.93,10.92
22.99,9.15,-1.77,9.15,-1.78,1.78,1.85,2.03,10.93,10.93,10.92
23.22,9.11,-1.82,9.11,-1.83,1.83,1.89,2.08,10.94,10.94,10.93
23.45,9.07,-1.87,9.07,-1.88,1.88,1.92,2.14,10.95,10.95,10.94
23.69,9.03,-1.92,9.03,-1.93,1.93,1.95,2.20,10.96,10.96,10.95
23.92,8.98,-1.98,8.98,-1.99,1.99,1.99,2.26,10.96,10.97,10.96
24.16,8.94,-2.04,8.94,-2.04,2.04,2.02,2.33,10.98,10.98,10.98
24.40,8.90,-2.10,8.90,-2.09,2.09,2.06,2.39,10.99,10.99,11.00
24.65,8.86,-2.14,8.86,-2.14,2.14,2.09,2.45,11.00,11.00,11.00
24.89,8.82,-2.19,8.82,-2.19,2.19,2.13,2.52,11.01,11.01,11.01
25.14,8.78,-2.24,8.78,-2.24,2.24,2.16,2.58,11.02,11.02,11.02
25.39,8.74,-2.29,8.74,-2.29,2.29,2.20,2.65,11.03,11.03,11.03
25.65,8.70,-2.34,8.70,-2.34,2.34,2.24,2.72,11.04,11.04,11.04
25.91,8.65,-2.39,8.66,-2.39,2.39,2.27,2.78,11.04,11.05,11.04
26.16,8.61,-2.44,8.62,-2.44,2.44,2.31,2.85,11.05,11.06,11.05
26.43,8.58,-2.48,8.58,-2.49,2.49,2.35,2.91,11.07,11.07,11.06
26.69,8.54,-2.53,8.54,-2.54,2.54,2.39,2.98,11.08,11.07,11.07
26.96,8.50,-2.59,8.50,-2.58,2.58,2.43,3.04,11.08,11.08,11.09
27.23,8.46,-2.64,8.46,-2.63,2.63,2.47,3.11,11.09,11.09,11.10
27.50,8.42,-2.68,8.42,-2.68,2.68,2.51,3.17,11.10,11.10,11.11
27.77,8.38,-2.72,8.38,-2.73,2.73,2.55,3.23,11.10,11.11,11.10
28.05,8.34,-2.78,8.34,-2.77,2.77,2.59,3.28,11.11,11.12,11.12
28.33,8.31,-2.81,8.31,-2.82,2.82,2.63,3.34,11.13,11.12,11.12
28.62,8.27,-2.86,8.27,-2.86,2.86,2.67,3.39,11.13,11.13,11.13
28.90,8.23,-2.91,8.23,-2.91,2.91,2.71,3.44,11.14,11.14,11.14
29.19,8.20,-2.94,8.20,-2.95,2.95,2.75,3.49,11.15,11.15,11.14
29.48,8.16,-3.00,8.16,-2.99,2.99,2.79,3.53,11.15,11.15,11.16
29.78,8.13,-3.03,8.12,-3.04,3.04,2.83,3.57,11.17,11.16,11.16
30.08,8.09,-3.08,8.09,-3.08,3.08,2.87,3.60,11.17,11.17,11.17
30.38,8.05,-3.12,8.05,-3.12,3.12,2.92,3.63,11.17,11.17,11.17
30.68,8.02,-3.16,8.02,-3.16,3.16,2.96,3.66,11.18,11.18,11.19
30.99,7.98,-3.20,7.98,-3.20,3.20,3.00,3.68,11.18,11.19,11.18
31.30,7.95,-3.24,7.95,-3.24,3.24,3.04,3.69,11.19,11.19,11.19
31.61,7.92,-3.28,7.92,-3.28,3.28,3.08,3.71,11.20,11.20,11.20
31.93,7.89,-3.31,7.89,-3.31,3.31,3.12,3.71,11.20,11.21,11.21
32.24,7.86,-3.34,7.87,-3.35,3.35,3.17,3.72,11.21,11.21,11.20
32.57,7.83,-3.39,7.84,-3.38,3.38,3.21,3.71,11.21,11.22,11.22
32.89,7.81,-3.42,7.82,-3.41,3.41,3.25,3.71,11.22,11.23,11.23
33.22,7.79,-3.44,7.80,-3.44,3.44,3.29,3.70,11.23,11.23,11.23
33.55,7.77,-3.47,7.78,-3.46,3.46,3.33,3.69,11.23,11.24,11.24
33.89,7.76,-3.49,7.76,-3.49,3.49,3.37,3.67,11.25,11.24,11.25
34.23,7.74,-3.51,7.74,-3.51,3.51,3.41,3.65,11.25,11.25,11.25
34.57,7.72,-3.54,7.72,-3.54,3.54,3.45,3.63,11.26,11.26,11.26
34.92,7.70,-3.56,7.70,-3.56,3.56,3.49,3.61,11.26,11.26,11.26
35.27,7.69,-3.57,7.68,-3.58,3.58,3.53,3.58,11.27,11.26,11.26
35.62,7.67,-3.60,7.66,-3.60,3.60,3.57,3.55,11.27,11.27,11.27
35.97,7.65,-3.62,7.64,-3.63,3.63,3.60,3.52,11.28,11.27,11.27
36.33,7.63,-3.64,7.62,-3.65,3.65,3.64,3.50,11.28,11.27,11.27
36.70,7.60,-3.67,7.60,-3.67,3.67,3.68,3.47,11.27,11.27,11.27
37.06,7.58,-3.69,7.58,-3.69,3.69,3.71,3.44,11.27,11.27,11.27
37.43,7.55,-3.73,7.55,-3.72,3.72,3.75,3.41,11.26,11.27,11.28
37.81,7.53,-3.74,7.53,-3.74,3.74,3.78,3.38,11.27,11.27,11.27
38.19,7.51,-3.76,7.50,-3.76,3.76,3.81,3.35,11.27,11.26,11.27
38.57,7.48,-3.78,7.48,-3.78,3.78,3.84,3.32,11.26,11.26,11.26
38.95,7.45,-3.81,7.45,-3.81,3.81,3.87,3.29,11.26,11.26,11.26
39.34,7.43,-3.82,7.43,-3.83,3.83,3.90,3.27,11.26,11.25,11.25
39.74,7.40,-3.84,7.40,-3.85,3.85,3.93,3.24,11.25,11.25,11.24
40.14,7.37,-3.88,7.38,-3.87,3.87,3.95,3.22,11.24,11.25,11.25
40.54,7.35,-3.89,7.36,-3.89,3.89,3.98,3.20,11.24,11.24,11.24
40.94,7.33,-3.90,7.34,-3.90,3.90,4.00,3.18,11.23,11.24,11.23
41.35,7.31,-3.92,7.32,-3.92,3.92,4.02,3.17,11.23,11.24,11.23
41.76,7.29,-3.94,7.30,-3.93,3.93,4.04,3.15,11.22,11.23,11.23
42.18,7.28,-3.95,7.28,-3.95,3.95,4.06,3.14,11.23,11.23,11.23
42.60,7.27,-3.96,7.26,-3.96,3.96,4.07,3.13,11.23,11.22,11.23
43.03,7.26,-3.97,7.25,-3.97,3.97,4.09,3.13,11.23,11.22,11.23
43.46,7.24,-3.98,7.23,-3.98,3.98,4.10,3.12,11.22,11.21,11.22
43.90,7.22,-3.98,7.22,-3.99,3.99,4.11,3.12,11.21,11.21,11.20
44.33,7.21,-3.99,7.21,-3.99,3.99,4.12,3.12,11.20,11.20,11.20
44.78,7.20,-3.99,7.20,-4.00,4.00,4.12,3.13,11.20,11.20,11.19
45.23,7.19,-3.99,7.19,-4.00,4.00,4.13,3.13,11.19,11.19,11.18
45.68,7.18,-4.00,7.18,-4.01,4.01,4.13,3.14,11.19,11.19,11.18
46.13,7.17,-4.00,7.17,-4.01,4.01,4.13,3.15,11.18,11.18,11.17
46.60,7.16,-4.02,7.17,-4.01,4.01,4.12,3.16,11.17,11.17,11.18
47.06,7.15,-4.02,7.16,-4.00,4.00,4.12,3.18,11.15,11.16,11.17
47.53,7.16,-4.00,7.16,-4.00,4.00,4.11,3.20,11.16,11.16,11.16
48.01,7.16,-4.01,7.16,-3.99,3.99,4.10,3.22,11.15,11.14,11.17
48.49,7.16,-3.98,7.16,-3.98,3.98,4.09,3.24,11.14,11.13,11.14
48.97,7.16,-3.96,7.16,-3.96,3.96,4.07,3.26,11.12,11.12,11.12
49.46,7.16,-3.95,7.17,-3.94,3.94,4.06,3.29,11.10,11.11,11.11
49.96,7.17,-3.91,7.17,-3.92,3.92,4.04,3.31,11.09,11.09,11.08
50.46,7.17,-3.91,7.18,-3.90,3.90,4.01,3.34,11.07,11.08,11.08
50.96,7.18,-3.88,7.19,-3.87,3.87,3.99,3.37,11.05,11.06,11.06
51.47,7.19,-3.84,7.20,-3.84,3.84,3.96,3.40,11.03,11.04,11.03
51.99,7.20,-3.81,7.21,-3.81,3.81,3.93,3.43,11.01,11.02,11.01
52.51,7.22,-3.79,7.21,-3.78,3.78,3.90,3.46,11.00,11.00,11.01
53.03,7.23,-3.75,7.22,-3.76,3.76,3.87,3.49,10.99,10.98,10.98
53.56,7.24,-3.72,7.23,-3.73,3.73,3.83,3.52,10.97,10.95,10.96
54.10,7.24,-3.69,7.23,-3.70,3.70,3.79,3.54,10.94,10.93,10.93
54.64,7.24,-3.67,7.23,-3.68,3.68,3.75,3.57,10.92,10.91,10.91
55.18,7.24,-3.64,7.24,-3.65,3.65,3.71,3.60,10.89,10.89,10.88
55.74,7.24,-3.61,7.23,-3.63,3.63,3.66,3.62,10.87,10.87,10.85
56.29,7.24,-3.60,7.23,-3.61,3.61,3.62,3.64,10.85,10.84,10.84
56.86,7.23,-3.58,7.23,-3.59,3.59,3.57,3.66,10.82,10.82,10.81
57.42,7.22,-3.56,7.22,-3.57,3.57,3.52,3.67,10.79,10.79,10.78
58.00,7.21,-3.55,7.22,-3.55,3.55,3.46,3.68,10.76,10.76,10.76
58.58,7.20,-3.53,7.21,-3.53,3.53,3.41,3.69,10.73,10.73,10.73
59.16,7.20,-3.51,7.20,-3.50,3.50,3.35,3.69,10.70,10.70,10.71
59.76,7.19,-3.49,7.19,-3.48,3.48,3.29,3.69,10.67,10.67,10.68
60.35,7.19,-3.46,7.18,-3.46,3.46,3.23,3.68,10.65,10.63,10.65
60.96,7.18,-3.43,7.17,-3.43,3.43,3.17,3.67,10.61,10.60,10.61
61.57,7.17,-3.39,7.16,-3.40,3.40,3.11,3.65,10.57,10.56,10.56
62.18,7.17,-3.35,7.16,-3.36,3.36,3.04,3.62,10.53,10.52,10.51
62.80,7.16,-3.33,7.16,-3.32,3.32,2.98,3.59,10.48,10.48,10.49
63.43,7.16,-3.28,7.17,-3.28,3.28,2.91,3.56,10.44,10.44,10.44
64.07,7.16,-3.23,7.18,-3.22,3.22,2.84,3.52,10.38,10.40,10.39
64.71,7.17,-3.18,7.19,-3.17,3.17,2.77,3.47,10.34,10.36,10.35
65.35,7.19,-3.12,7.21,-3.10,3.10,2.70,3.41,10.29,10.31,10.31
66.01,7.22,-3.05,7.24,-3.03,3.03,2.63,3.36,10.25,10.27,10.27
66.67,7.27,-2.96,7.27,-2.95,2.95,2.55,3.29,10.22,10.22,10.23
67.33,7.31,-2.88,7.31,-2.87,2.87,2.48,3.22,10.18,10.18,10.19
68.01,7.36,-2.78,7.35,-2.78,2.78,2.40,3.15,10.14,10.13,10.14
68.69,7.41,-2.68,7.40,-2.69,2.69,2.32,3.07,10.10,10.09,10.09
69.37,7.46,-2.58,7.46,-2.59,2.59,2.24,2.99,10.05,10.05,10.04
70.07,7.52,-2.48,7.52,-2.48,2.48,2.16,2.90,10.00,10.00,10.00
70.77,7.58,-2.38,7.59,-2.37,2.37,2.08,2.81,9.95,9.96,9.96
71.48,7.65,-2.26,7.65,-2.26,2.26,1.99,2.72,9.91,9.91,9.91
72.19,7.72,-2.14,7.73,-2.14,2.14,1.91,2.63,9.86,9.87,9.86
72.91,7.80,-2.02,7.80,-2.02,2.02,1.82,2.53,9.82,9.82,9.82
73.64,7.88,-1.89,7.88,-1.90,1.90,1.73,2.43,9.78,9.78,9.77
74.38,7.96,-1.78,7.96,-1.78,1.78,1.64,2.33,9.74,9.74,9.74
75.12,8.04,-1.65,8.04,-1.65,1.65,1.55,2.23,9.69,9.70,9.69
75.87,8.13,-1.53,8.13,-1.53,1.53,1.46,2.12,9.66,9.66,9.66
76.63,8.20,-1.42,8.22,-1.40,1.40,1.37,2.02,9.60,9.62,9.62
77.40,8.29,-1.29,8.30,-1.28,1.28,1.27,1.91,9.57,9.58,9.58
78.17,8.38,-1.16,8.39,-1.16,1.16,1.18,1.81,9.54,9.54,9.54
78.95,8.47,-1.04,8.47,-1.04,1.04,1.09,1.70,9.51,9.51,9.51
79.74,8.56,-0.92,8.55,-0.92,0.92,1.00,1.60,9.48,9.47,9.48
80.54,8.64,-0.80,8.63,-0.81,0.81,0.92,1.49,9.45,9.44,9.44
81.35,8.71,-0.70,8.70,-0.71,0.71,0.84,1.38,9.42,9.41,9.41
82.16,8.77,-0.60,8.77,-0.61,0.61,0.77,1.28,9.38,9.38,9.37
82.98,8.85,-0.50,8.83,-0.51,0.51,0.70,1.17,9.36,9.35,9.35
83.81,8.91,-0.40,8.89,-0.43,0.43,0.64,1.07,9.34,9.31,9.31
84.65,8.95,-0.33,8.94,-0.35,0.35,0.57,0.96,9.30,9.28,9.28
85.50,8.98,-0.28,8.98,-0.27,0.27,0.51,0.86,9.25,9.26,9.26
86.35,9.02,-0.21,9.02,-0.21,0.21,0.45,0.75,9.23,9.23,9.23
87.22,9.05,-0.15,9.04,-0.16,0.16,0.39,0.65,9.21,9.20,9.20
88.09,9.07,-0.10,9.07,-0.11,0.11,0.32,0.54,9.18,9.17,9.17
88.97,9.09,-0.06,9.08,-0.06,0.06,0.26,0.44,9.15,9.14,9.15
89.86,9.10,-0.02,9.09,-0.03,0.03,0.19,0.33,9.13,9.12,9.12
90.76,9.10,0.02,9.10,0.01,-0.01,0.13,0.23,9.09,9.09,9.08
91.66,9.11,0.05,9.10,0.04,-0.04,0.06,0.13,9.07,9.06,9.06
92.58,9.10,0.07,9.10,0.06,-0.06,-0.00,0.02,9.04,9.03,9.03
93.51,9.09,0.08,9.09,0.09,-0.09,-0.07,-0.08,9.00,9.00,9.01
94.44,9.09,0.11,9.09,0.12,-0.12,-0.14,-0.18,8.97,8.97,8.98
95.39,9.08,0.13,9.08,0.14,-0.14,-0.21,-0.28,8.94,8.94,8.95
96.34,9.07,0.16,9.08,0.17,-0.17,-0.28,-0.38,8.90,8.91,8.91
97.30,9.07,0.20,9.08,0.20,-0.20,-0.35,-0.48,8.87,8.87,8.87
98.28,9.06,0.23,9.08,0.24,-0.24,-0.41,-0.58,8.82,8.84,8.83
99.26,9.06,0.26,9.08,0.28,-0.28,-0.48,-0.68,8.78,8.80,8.80
100.25,9.08,0.32,9.09,0.33,-0.33,-0.55,-0.78,8.75,8.76,8.76
101.25,9.10,0.38,9.10,0.38,-0.38,-0.62,-0.88,8.72,8.72,8.72
102.27,9.11,0.44,9.12,0.44,-0.44,-0.68,-0.98,8.67,8.68,8.67
103.29,9.12,0.49,9.14,0.51,-0.51,-0.75,-1.07,8.61,8.63,8.63
104.32,9.14,0.55,9.16,0.58,-0.58,-0.82,-1.17,8.56,8.58,8.59
105.37,9.17,0.63,9.19,0.66,-0.66,-0.88,-1.26,8.51,8.53,8.54
106.42,9.21,0.73,9.22,0.74,-0.74,-0.95,-1.35,8.47,8.48,8.48
107.48,9.25,0.81,9.25,0.83,-0.83,-1.01,-1.44,8.42,8.43,8.44
108.56,9.29,0.92,9.28,0.92,-0.92,-1.08,-1.53,8.37,8.37,8.37
109.64,9.32,1.01,9.31,1.01,-1.01,-1.14,-1.61,8.31,8.31,8.31
110.74,9.35,1.10,9.34,1.09,-1.09,-1.20,-1.69,8.26,8.24,8.25
111.85,9.39,1.20,9.36,1.18,-1.18,-1.26,-1.77,8.21,8.18,8.19
112.97,9.41,1.30,9.38,1.27,-1.27,-1.32,-1.85,8.14,8.11,8.11
114.10,9.42,1.37,9.40,1.35,-1.35,-1.38,-1.92,8.07,8.04,8.05
115.24,9.43,1.45,9.41,1.43,-1.43,-1.44,-1.99,8.00,7.98,7.98
116.39,9.43,1.53,9.42,1.51,-1.51,-1.50,-2.05,7.92,7.91,7.90
117.55,9.42,1.59,9.43,1.59,-1.59,-1.56,-2.11,7.83,7.84,7.83
118.73,9.41,1.65,9.43,1.66,-1.66,-1.62,-2.17,7.75,7.77,7.76
119.92,9.41,1.70,9.43,1.73,-1.73,-1.67,-2.22,7.68,7.70,7.71
121.12,9.41,1.78,9.43,1.80,-1.80,-1.73,-2.27,7.61,7.64,7.63
122.33,9.41,1.84,9.43,1.86,-1.86,-1.78,-2.31,7.55,7.57,7.57
123.55,9.41,1.89,9.43,1.92,-1.92,-1.83,-2.35,7.49,7.51,7.52
124.79,9.42,1.97,9.42,1.98,-1.98,-1.88,-2.38,7.44,7.45,7.45
126.03,9.43,2.04,9.42,2.03,-2.03,-1.93,-2.40,7.40,7.39,7.39
127.29,9.43,2.10,9.41,2.08,-2.08,-1.98,-2.43,7.35,7.33,7.33
128.57,9.42,2.16,9.40,2.12,-2.12,-2.03,-2.44,7.30,7.27,7.26
129.85,9.40,2.19,9.38,2.17,-2.17,-2.08,-2.45,7.23,7.22,7.21
131.15,9.38,2.23,9.37,2.21,-2.21,-2.12,-2.46,7.17,7.16,7.15
132.46,9.36,2.25,9.35,2.24,-2.24,-2.17,-2.47,7.12,7.11,7.11
133.79,9.33,2.27,9.33,2.27,-2.27,-2.21,-2.46,7.06,7.05,7.06
135.12,9.29,2.29,9.30,2.29,-2.29,-2.25,-2.46,6.99,7.00,7.00
136.48,9.26,2.30,9.27,2.31,-2.31,-2.29,-2.45,6.95,6.96,6.96
137.84,9.22,2.32,9.24,2.33,-2.33,-2.33,-2.44,6.89,6.91,6.90
139.22,9.21,2.36,9.21,2.35,-2.35,-2.36,-2.42,6.86,6.86,6.85
140.61,9.18,2.38,9.18,2.37,-2.37,-2.40,-2.41,6.81,6.81,6.80
142.02,9.15,2.38,9.15,2.38,-2.38,-2.43,-2.39,6.77,6.77,6.77
143.44,9.12,2.39,9.12,2.40,-2.40,-2.46,-2.37,6.72,6.72,6.73
144.87,9.08,2.40,9.09,2.42,-2.42,-2.50,-2.34,6.66,6.68,6.68
146.32,9.05,2.42,9.06,2.43,-2.43,-2.52,-2.32,6.62,6.63,6.63
147.78,9.02,2.43,9.04,2.45,-2.45,-2.55,-2.29,6.57,6.58,6.59
149.26,8.99,2.44,9.01,2.47,-2.47,-2.58,-2.27,6.52,6.53,6.55
150.75,8.98,2.50,8.98,2.49,-2.49,-2.60,-2.24,6.49,6.49,6.48
152.26,8.97,2.53,8.95,2.51,-2.51,-2.62,-2.21,6.46,6.44,6.44
153.78,8.94,2.55,8.91,2.52,-2.52,-2.65,-2.19,6.42,6.39,6.39
155.32,8.90,2.57,8.88,2.54,-2.54,-2.66,-2.16,6.36,6.34,6.33
156.88,8.85,2.56,8.84,2.56,-2.56,-2.68,-2.13,6.29,6.29,6.29
158.44,8.80,2.56,8.81,2.57,-2.57,-2.70,-2.11,6.23,6.24,6.24
160.03,8.75,2.57,8.77,2.59,-2.59,-2.71,-2.08,6.16,6.18,6.18
161.63,8.72,2.60,8.73,2.60,-2.60,-2.72,-2.06,6.12,6.13,6.12
163.24,8.69,2.62,8.69,2.61,-2.61,-2.73,-2.04,6.08,6.08,6.07
164.88,8.63,2.60,8.64,2.62,-2.62,-2.74,-2.02,6.01,6.02,6.03
166.53,8.58,2.61,8.59,2.62,-2.62,-2.75,-2.00,5.96,5.97,5.97
168.19,8.55,2.63,8.54,2.63,-2.63,-2.75,-1.98,5.92,5.92,5.92
169.87,8.50,2.64,8.49,2.63,-2.63,-2.75,-1.96,5.87,5.86,5.86
171.57,8.47,2.66,8.44,2.64,-2.64,-2.75,-1.95,5.83,5.80,5.81
173.29,8.42,2.67,8.39,2.65,-2.65,-2.75,-1.93,5.77,5.75,5.75
175.02,8.33,2.63,8.34,2.65,-2.65,-2.75,-1.92,5.68,5.69,5.70
176.77,8.27,2.64,8.29,2.66,-2.66,-2.74,-1.91,5.61,5.63,5.63
178.54,8.21,2.64,8.23,2.66,-2.66,-2.74,-1.90,5.55,5.57,5.57
180.32,8.17,2.66,8.17,2.66,-2.66,-2.73,-1.90,5.51,5.51,5.51
182.13,8.12,2.67,8.11,2.67,-2.67,-2.72,-1.89,5.45,5.45,5.45
183.95,8.05,2.67,8.05,2.67,-2.67,-2.71,-1.89,5.38,5.38,5.38
185.79,7.99,2.66,7.99,2.67,-2.67,-2.69,-1.89,5.32,5.32,5.33
187.65,7.93,2.68,7.93,2.67,-2.67,-2.67,-1.88,5.26,5.26,5.25
189.52,7.87,2.67,7.87,2.66,-2.66,-2.66,-1.89,5.21,5.20,5.20
191.42,7.80,2.66,7.81,2.66,-2.66,-2.64,-1.89,5.14,5.15,5.14
193.33,7.73,2.64,7.75,2.66,-2.66,-2.61,-1.89,5.07,5.09,5.09
195.27,7.68,2.64,7.68,2.65,-2.65,-2.59,-1.90,5.03,5.03,5.04
197.22,7.62,2.64,7.62,2.64,-2.64,-2.57,-1.90,4.98,4.98,4.98
199.19,7.56,2.64,7.55,2.63,-2.63,-2.54,-1.91,4.93,4.92,4.92
201.18,7.48,2.62,7.48,2.61,-2.61,-2.51,-1.91,4.87,4.87,4.86
203.19,7.41,2.58,7.41,2.59,-2.59,-2.48,-1.92,4.82,4.82,4.83
205.23,7.35,2.58,7.34,2.57,-2.57,-2.45,-1.93,4.78,4.77,4.77
207.28,7.29,2.55,7.27,2.55,-2.55,-2.41,-1.94,4.74,4.72,4.74
209.35,7.21,2.53,7.20,2.52,-2.52,-2.38,-1.95,4.69,4.68,4.68
211.44,7.12,2.50,7.12,2.49,-2.49,-2.34,-1.96,4.63,4.63,4.62
213.56,7.04,2.45,7.05,2.46,-2.46,-2.30,-1.97,4.58,4.59,4.59
215.69,6.95,2.39,6.97,2.42,-2.42,-2.26,-1.97,4.53,4.55,4.56
217.85,6.88,2.37,6.89,2.38,-2.38,-2.22,-1.98,4.50,4.51,4.51
220.03,6.82,2.35,6.81,2.33,-2.33,-2.17,-1.99,4.49,4.48,4.47
222.23,6.74,2.31,6.73,2.29,-2.29,-2.13,-1.99,4.45,4.44,4.43
224.45,6.65,2.24,6.65,2.24,-2.24,-2.08,-1.99,4.41,4.41,4.41
226.70,6.57,2.18,6.57,2.19,-2.19,-2.03,-1.99,4.38,4.38,4.39
228.96,6.48,2.13,6.49,2.13,-2.13,-1.99,-1.99,4.35,4.36,4.35
231.25,6.41,2.07,6.41,2.08,-2.08,-1.93,-1.99,4.33,4.34,4.34
233.57,6.34,2.02,6.34,2.02,-2.02,-1.88,-1.98,4.32,4.32,4.32
235.90,6.25,1.95,6.26,1.96,-1.96,-1.83,-1.97,4.29,4.30,4.30
238.26,6.19,1.90,6.19,1.90,-1.90,-1.77,-1.96,4.29,4.29,4.29
240.64,6.10,1.82,6.11,1.83,-1.83,-1.72,-1.94,4.27,4.28,4.28
243.05,6.04,1.77,6.04,1.76,-1.76,-1.66,-1.92,4.28,4.27,4.27
245.48,5.97,1.71,5.96,1.70,-1.70,-1.60,-1.90,4.27,4.27,4.26
247.93,5.89,1.63,5.90,1.63,-1.63,-1.54,-1.87,4.26,4.26,4.26
250.41,5.83,1.57,5.83,1.56,-1.56,-1.48,-1.84,4.27,4.26,4.26
252.92,5.75,1.48,5.76,1.49,-1.49,-1.42,-1.81,4.26,4.27,4.27
255.45,5.69,1.41,5.69,1.42,-1.42,-1.36,-1.77,4.27,4.27,4.28
258.00,5.63,1.35,5.63,1.35,-1.35,-1.30,-1.73,4.28,4.28,4.28
260.58,5.56,1.28,5.56,1.28,-1.28,-1.23,-1.68,4.28,4.28,4.28
263.19,5.50,1.21,5.50,1.21,-1.21,-1.17,-1.63,4.29,4.29,4.29
265.82,5.43,1.13,5.44,1.14,-1.14,-1.10,-1.57,4.29,4.30,4.30
268.48,5.38,1.06,5.38,1.07,-1.07,-1.03,-1.52,4.31,4.31,4.32
271.16,5.33,1.00,5.32,0.99,-0.99,-0.96,-1.46,4.34,4.33,4.33
273.87,5.25,0.92,5.26,0.92,-0.92,-0.89,-1.39,4.33,4.34,4.33
276.61,5.18,0.82,5.20,0.85,-0.85,-0.82,-1.32,4.33,4.35,4.36
279.38,5.12,0.76,5.13,0.77,-0.77,-0.75,-1.25,4.35,4.36,4.36
282.17,5.07,0.69,5.06,0.69,-0.69,-0.68,-1.18,4.38,4.37,4.38
284.99,5.01,0.62,4.99,0.61,-0.61,-0.61,-1.11,4.40,4.39,4.39
287.84,4.93,0.54,4.92,0.52,-0.52,-0.54,-1.03,4.41,4.40,4.39
290.72,4.86,0.45,4.85,0.43,-0.43,-0.47,-0.95,4.43,4.41,4.41
293.63,4.78,0.36,4.77,0.34,-0.34,-0.39,-0.87,4.44,4.42,4.42
296.57,4.70,0.26,4.69,0.25,-0.25,-0.32,-0.78,4.45,4.44,4.44
299.53,4.62,0.18,4.60,0.15,-0.15,-0.24,-0.70,4.47,4.45,4.44
302.53,4.53,0.08,4.51,0.05,-0.05,-0.17,-0.61,4.48,4.46,4.45
305.55,4.42,-0.05,4.42,-0.04,0.04,-0.09,-0.53,4.46,4.47,4.47
308.61,4.31,-0.17,4.33,-0.15,0.15,-0.01,-0.44,4.46,4.48,4.48
311.69,4.22,-0.27,4.24,-0.25,0.25,0.06,-0.35,4.47,4.49,4.49
314.81,4.15,-0.36,4.15,-0.35,0.35,0.14,-0.26,4.50,4.50,4.51
317.96,4.07,-0.44,4.06,-0.45,0.45,0.22,-0.17,4.52,4.50,4.51
321.14,3.97,-0.54,3.97,-0.55,0.55,0.29,-0.07,4.52,4.51,4.51
324.35,3.87,-0.64,3.88,-0.64,0.64,0.37,0.02,4.51,4.52,4.51
327.59,3.78,-0.75,3.79,-0.73,0.73,0.45,0.11,4.51,4.52,4.53
330.87,3.71,-0.81,3.71,-0.82,0.82,0.53,0.21,4.53,4.53,4.52
334.18,3.63,-0.89,3.63,-0.90,0.90,0.61,0.30,4.53,4.53,4.52
337.52,3.54,-0.99,3.56,-0.97,0.97,0.69,0.40,4.51,4.53,4.53
340.90,3.49,-1.04,3.49,-1.04,1.04,0.77,0.49,4.53,4.53,4.53
344.30,3.42,-1.11,3.42,-1.11,1.11,0.85,0.59,4.53,4.53,4.53
347.75,3.35,-1.18,3.36,-1.17,1.17,0.93,0.69,4.52,4.53,4.53
351.23,3.29,-1.24,3.29,-1.23,1.23,1.01,0.79,4.52,4.52,4.53
354.74,3.23,-1.29,3.24,-1.28,1.28,1.09,0.88,4.51,4.52,4.52
358.28,3.18,-1.33,3.18,-1.33,1.33,1.17,0.98,4.51,4.52,4.51
361.87,3.13,-1.38,3.13,-1.38,1.38,1.25,1.08,4.51,4.51,4.51
365.49,3.08,-1.43,3.09,-1.42,1.42,1.32,1.18,4.50,4.50,4.51
369.14,3.03,-1.47,3.04,-1.46,1.46,1.40,1.28,4.49,4.50,4.50
372.83,2.99,-1.50,2.99,-1.50,1.50,1.48,1.39,4.49,4.49,4.49
376.56,2.94,-1.54,2.95,-1.53,1.53,1.56,1.49,4.47,4.48,4.48
380.33,2.90,-1.58,2.90,-1.57,1.57,1.64,1.59,4.47,4.47,4.48
384.13,2.86,-1.61,2.85,-1.61,1.61,1.72,1.69,4.47,4.47,4.47
387.97,2.81,-1.65,2.80,-1.66,1.66,1.80,1.80,4.47,4.46,4.46
391.85,2.76,-1.68,2.75,-1.71,1.71,1.88,1.90,4.47,4.45,4.44
395.77,2.70,-1.75,2.69,-1.76,1.76,1.96,2.00,4.46,4.45,4.45
399.73,2.65,-1.79,2.62,-1.81,1.81,2.03,2.11,4.46,4.44,4.44
403.72,2.58,-1.85,2.56,-1.87,1.87,2.11,2.21,4.45,4.43,4.43
407.76,2.50,-1.92,2.49,-1.94,1.94,2.19,2.32,4.44,4.43,4.42
411.84,2.42,-2.01,2.41,-2.01,2.01,2.26,2.42,4.43,4.42,4.43
415.96,2.33,-2.09,2.33,-2.09,2.09,2.34,2.52,4.42,4.42,4.42
420.12,2.24,-2.17,2.25,-2.17,2.17,2.41,2.62,4.41,4.41,4.41
424.32,2.14,-2.27,2.16,-2.25,2.25,2.49,2.72,4.39,4.41,4.41
428.56,2.06,-2.34,2.07,-2.34,2.34,2.56,2.82,4.40,4.41,4.40
432.85,1.97,-2.43,1.97,-2.43,2.43,2.63,2.92,4.40,4.40,4.40
437.18,1.89,-2.51,1.88,-2.52,2.52,2.71,3.02,4.41,4.40,4.40
441.55,1.80,-2.61,1.79,-2.62,2.62,2.78,3.11,4.42,4.40,4.41
445.96,1.70,-2.71,1.69,-2.71,2.71,2.85,3.20,4.41,4.40,4.41
450.42,1.59,-2.81,1.60,-2.80,2.80,2.92,3.29,4.39,4.41,4.40
454.93,1.52,-2.89,1.51,-2.89,2.89,2.99,3.37,4.41,4.41,4.41
459.48,1.42,-2.98,1.43,-2.98,2.98,3.06,3.46,4.40,4.41,4.40
464.07,1.34,-3.07,1.34,-3.07,3.07,3.12,3.53,4.41,4.41,4.41
468.71,1.25,-3.17,1.26,-3.16,3.16,3.19,3.61,4.41,4.42,4.42
473.40,1.16,-3.26,1.18,-3.24,3.24,3.25,3.67,4.40,4.42,4.42
478.13,1.09,-3.34,1.10,-3.33,3.33,3.32,3.74,4.42,4.43,4.43
482.91,1.03,-3.40,1.02,-3.41,3.41,3.38,3.80,4.44,4.43,4.43
487.74,0.97,-3.47,0.95,-3.49,3.49,3.44,3.85,4.46,4.44,4.44
492.62,0.90,-3.55,0.88,-3.56,3.56,3.50,3.90,4.46,4.44,4.45
497.55,0.82,-3.63,0.82,-3.63,3.63,3.56,3.94,4.45,4.45,4.45
502.52,0.76,-3.70,0.76,-3.70,3.70,3.62,3.98,4.46,4.45,4.46
507.55,0.70,-3.76,0.70,-3.76,3.76,3.67,4.01,4.46,4.46,4.46
512.62,0.64,-3.82,0.65,-3.81,3.81,3.73,4.04,4.45,4.46,4.46
517.75,0.57,-3.90,0.60,-3.86,3.86,3.78,4.06,4.43,4.46,4.47
522.93,0.53,-3.94,0.55,-3.91,3.91,3.83,4.07,4.44,4.46,4.47
528.16,0.50,-3.96,0.50,-3.96,3.96,3.88,4.09,4.46,4.46,4.46
533.44,0.46,-4.00,0.46,-4.00,4.00,3.93,4.09,4.46,4.46,4.46
