frequency,raw,error,smoothed,error_smoothed,equalization,parametric_eq,fixed_band_eq,equalized_raw,equalized_smoothed,target
20.00,9.75,0.27,9.75,0.27,-0.27,0.68,0.88,9.48,9.48,9.48
20.20,9.71,0.19,9.71,0.18,-0.18,0.70,0.90,9.53,9.53,9.52
20.40,9.66,0.09,9.66,0.10,-0.10,0.71,0.93,9.56,9.57,9.57
20.61,9.62,0.03,9.62,0.02,-0.02,0.73,0.95,9.60,9.60,9.59
20.81,9.58,-0.06,9.58,-0.06,0.06,0.74,0.98,9.64,9.63,9.64
21.02,9.54,-0.14,9.54,-0.13,0.13,0.76,1.01,9.67,9.67,9.67
21.23,9.49,-0.21,9.49,-0.20,0.20,0.78,1.03,9.69,9.69,9.69
21.44,9.45,-0.27,9.45,-0.27,0.26,0.79,1.06,9.71,9.71,9.72
21.66,9.41,-0.32,9.41,-0.33,0.33,0.81,1.09,9.74,9.73,9.73
21.87,9.36,-0.39,9.36,-0.39,0.39,0.83,1.12,9.75,9.75,9.75
22.09,9.32,-0.45,9.32,-0.44,0.44,0.85,1.15,9.76,9.76,9.77
22.31,9.28,-0.50,9.28,-0.50,0.50,0.87,1.18,9.77,9.77,9.78
22.54,9.24,-0.54,9.24,-0.55,0.55,0.89,1.22,9.79,9.78,9.78
22.76,9.19,-0.61,9.19,-0.60,0.60,0.91,1.25,9.79,9.79,9.79
22.99,9.15,-0.64,9.15,-0.65,0.65,0.93,1.28,9.80,9.80,9.79
23.22,9.11,-0.69,9.11,-0.70,0.70,0.95,1.32,9.81,9.81,9.80
23.45,9.07,-0.75,9.07,-0.74,0.75,0.97,1.35,9.82,9.82,9.82
23.69,9.03,-0.79,9.03,-0.80,0.80,0.99,1.39,9.83,9.83,9.82
23.92,8.98,-0.86,8.98,-0.86,0.85,1.01,1.43,9.83,9.84,9.84
24.16,8.94,-0.92,8.94,-0.91,0.91,1.03,1.46,9.85,9.85,9.86
24.40,8.90,-0.98,8.90,-0.97,0.96,1.06,1.50,9.86,9.86,9.87
24.65,8.86,-1.00,8.86,-1.01,1.01,1.08,1.54,9.87,9.87,9.87
24.89,8.82,-1.06,8.82,-1.06,1.06,1.10,1.58,9.88,9.88,9.88
25.14,8.78,-1.11,8.78,-1.10,1.11,1.13,1.62,9.89,9.89,9.89
25.39,8.74,-1.16,8.74,-1.16,1.16,1.15,1.65,9.90,9.90,9.90
25.65,8.70,-1.21,8.70,-1.21,1.21,1.18,1.69,9.91,9.91,9.91
25.91,8.65,-1.26,8.65,-1.26,1.26,1.20,1.73,9.91,9.91,9.91
26.16,8.61,-1.32,8.61,-1.31,1.31,1.23,1.77,9.92,9.92,9.93
26.43,8.58,-1.35,8.58,-1.36,1.36,1.26,1.81,9.94,9.94,9.93
26.69,8.54,-1.40,8.54,-1.41,1.41,1.29,1.85,9.95,9.95,9.94
26.96,8.50,-1.46,8.50,-1.46,1.46,1.31,1.88,9.96,9.96,9.96
27.23,8.46,-1.51,8.46,-1.51,1.51,1.34,1.92,9.97,9.97,9.97
27.50,8.42,-1.55,8.42,-1.56,1.55,1.37,1.96,9.97,9.97,9.97
27.77,8.38,-1.60,8.38,-1.60,1.60,1.40,1.99,9.98,9.98,9.98
28.05,8.34,-1.66,8.34,-1.64,1.65,1.43,2.02,9.99,9.99,9.99
28.33,8.31,-1.69,8.31,-1.69,1.69,1.46,2.06,10.00,10.00,10.00
28.62,8.27,-1.73,8.27,-1.73,1.74,1.49,2.09,10.01,10.01,10.00
28.90,8.23,-1.79,8.23,-1.78,1.78,1.53,2.11,10.01,10.01,10.01
29.19,8.20,-1.82,8.20,-1.83,1.83,1.56,2.14,10.02,10.02,10.01
29.48,8.16,-1.89,8.16,-1.87,1.87,1.59,2.17,10.03,10.03,10.04
29.78,8.13,-1.90,8.13,-1.91,1.91,1.62,2.19,10.04,10.04,10.04
30.08,8.09,-1.95,8.09,-1.96,1.96,1.66,2.21,10.05,10.05,10.04
30.38,8.05,-1.99,8.05,-2.00,2.00,1.69,2.22,10.05,10.05,10.04
30.68,8.02,-2.04,8.02,-2.04,2.04,1.73,2.24,10.06,10.06,10.06
30.99,7.98,-2.08,7.98,-2.08,2.08,1.76,2.25,10.06,10.06,10.06
31.30,7.95,-2.11,7.95,-2.12,2.12,1.80,2.26,10.07,10.07,10.06
31.61,7.92,-2.15,7.92,-2.15,2.16,1.84,2.27,10.08,10.08,10.07
31.93,7.89,-2.19,7.89,-2.19,2.20,1.87,2.27,10.09,10.08,10.08
32.24,7.86,-2.23,7.86,-2.23,2.23,1.91,2.27,10.09,10.09,10.09
32.57,7.83,-2.27,7.83,-2.27,2.26,1.95,2.28,10.09,10.10,10.10
32.89,7.81,-2.30,7.81,-2.30,2.29,1.99,2.27,10.10,10.10,10.11
33.22,7.79,-2.33,7.79,-2.33,2.32,2.02,2.27,10.11,10.11,10.11
33.55,7.77,-2.36,7.77,-2.35,2.35,2.06,2.26,10.12,10.12,10.13
33.89,7.76,-2.37,7.76,-2.38,2.38,2.10,2.26,10.14,10.13,10.13
34.23,7.74,-2.39,7.74,-2.40,2.40,2.14,2.25,10.14,10.14,10.13
34.57,7.72,-2.42,7.72,-2.42,2.42,2.18,2.24,10.14,10.14,10.14
34.92,7.70,-2.44,7.70,-2.44,2.44,2.22,2.22,10.14,10.15,10.14
35.27,7.69,-2.46,7.69,-2.46,2.47,2.26,2.21,10.16,10.15,10.15
35.62,7.67,-2.48,7.67,-2.49,2.49,2.30,2.20,10.16,10.16,10.15
35.97,7.65,-2.51,7.65,-2.51,2.51,2.34,2.19,10.16,10.16,10.16
36.33,7.63,-2.54,7.63,-2.53,2.54,2.38,2.17,10.17,10.16,10.16
36.70,7.60,-2.55,7.60,-2.56,2.56,2.42,2.16,10.16,10.16,10.16
37.06,7.58,-2.59,7.58,-2.59,2.58,2.46,2.14,10.16,10.16,10.16
37.43,7.55,-2.62,7.55,-2.61,2.61,2.50,2.13,10.16,10.16,10.16
37.81,7.53,-2.63,7.53,-2.63,2.63,2.54,2.12,10.16,10.16,10.16
38.19,7.51,-2.65,7.51,-2.66,2.66,2.57,2.10,10.17,10.16,10.16
38.57,7.48,-2.67,7.48,-2.68,2.68,2.61,2.09,10.16,10.16,10.15
38.95,7.45,-2.71,7.45,-2.70,2.70,2.65,2.08,10.15,10.16,10.15
39.34,7.43,-2.72,7.43,-2.72,2.73,2.68,2.07,10.15,10.15,10.14
39.74,7.40,-2.74,7.40,-2.75,2.75,2.72,2.06,10.15,10.15,10.14
40.14,7.37,-2.77,7.37,-2.77,2.77,2.75,2.06,10.14,10.14,10.14
40.54,7.35,-2.79,7.35,-2.79,2.79,2.79,2.05,10.14,10.14,10.14
40.94,7.33,-2.81,7.33,-2.81,2.81,2.82,2.05,10.14,10.14,10.13
41.35,7.31,-2.83,7.31,-2.83,2.83,2.85,2.04,10.14,10.14,10.13
41.76,7.29,-2.85,7.29,-2.84,2.84,2.88,2.04,10.13,10.13,10.13
42.18,7.28,-2.86,7.28,-2.85,2.86,2.91,2.04,10.14,10.14,10.13
42.60,7.27,-2.87,7.27,-2.87,2.87,2.93,2.04,10.14,10.14,10.13
43.03,7.26,-2.87,7.26,-2.88,2.88,2.96,2.05,10.14,10.13,10.13
43.46,7.24,-2.89,7.24,-2.89,2.89,2.98,2.05,10.13,10.13,10.13
43.90,7.22,-2.89,7.22,-2.90,2.90,3.00,2.06,10.12,10.12,10.12
44.33,7.21,-2.90,7.21,-2.90,2.90,3.02,2.07,10.11,10.11,10.11
44.78,7.20,-2.90,7.20,-2.91,2.91,3.04,2.08,10.11,10.11,10.10
45.23,7.19,-2.91,7.19,-2.91,2.92,3.05,2.09,10.11,10.11,10.10
45.68,7.18,-2.92,7.18,-2.92,2.93,3.06,2.10,10.11,10.11,10.10
46.13,7.17,-2.93,7.17,-2.93,2.93,3.07,2.12,10.10,10.10,10.10
46.60,7.16,-2.94,7.16,-2.94,2.93,3.08,2.13,10.09,10.09,10.10
47.06,7.15,-2.94,7.16,-2.94,2.93,3.08,2.15,10.08,10.09,10.09
47.53,7.16,-2.92,7.16,-2.94,2.93,3.08,2.17,10.09,10.09,10.08
48.01,7.16,-2.93,7.16,-2.93,2.93,3.08,2.19,10.09,10.08,10.09
48.49,7.16,-2.92,7.16,-2.91,2.92,3.08,2.21,10.08,10.08,10.08
48.97,7.16,-2.89,7.16,-2.90,2.90,3.07,2.23,10.06,10.06,10.05
49.46,7.16,-2.88,7.16,-2.88,2.88,3.06,2.26,10.04,10.05,10.04
49.96,7.17,-2.86,7.17,-2.87,2.86,3.05,2.28,10.03,10.03,10.03
50.46,7.17,-2.85,7.17,-2.85,2.84,3.03,2.31,10.01,10.01,10.02
50.96,7.18,-2.82,7.18,-2.82,2.82,3.01,2.33,10.00,10.00,10.00
51.47,7.19,-2.78,7.19,-2.79,2.79,2.99,2.36,9.98,9.98,9.97
51.99,7.20,-2.77,7.20,-2.76,2.76,2.97,2.39,9.96,9.97,9.97
52.51,7.22,-2.74,7.22,-2.73,2.74,2.94,2.41,9.96,9.96,9.96
53.03,7.23,-2.70,7.23,-2.71,2.71,2.91,2.44,9.94,9.94,9.93
53.56,7.24,-2.68,7.24,-2.68,2.68,2.88,2.46,9.92,9.92,9.92
54.10,7.24,-2.66,7.24,-2.66,2.66,2.84,2.49,9.90,9.90,9.90
54.64,7.24,-2.64,7.24,-2.64,2.64,2.81,2.51,9.88,9.88,9.88
55.18,7.24,-2.61,7.24,-2.61,2.62,2.77,2.53,9.86,9.86,9.85
55.74,7.24,-2.59,7.24,-2.60,2.60,2.72,2.55,9.84,9.84,9.83
56.29,7.24,-2.58,7.24,-2.58,2.58,2.68,2.57,9.82,9.82,9.82
56.86,7.23,-2.57,7.23,-2.56,2.57,2.63,2.58,9.80,9.80,9.80
57.42,7.22,-2.54,7.22,-2.55,2.55,2.58,2.60,9.77,9.77,9.76
58.00,7.21,-2.53,7.21,-2.53,2.54,2.53,2.60,9.75,9.75,9.74
58.58,7.20,-2.52,7.20,-2.52,2.52,2.47,2.61,9.72,9.72,9.72
59.16,7.20,-2.50,7.20,-2.51,2.50,2.42,2.61,9.70,9.70,9.70
59.76,7.19,-2.50,7.19,-2.49,2.48,2.36,2.61,9.67,9.68,9.69
60.35,7.19,-2.46,7.19,-2.47,2.46,2.30,2.60,9.65,9.65,9.65
60.96,7.18,-2.45,7.18,-2.44,2.44,2.24,2.59,9.62,9.62,9.63
61.57,7.17,-2.41,7.17,-2.41,2.41,2.18,2.57,9.58,9.59,9.58
62.18,7.17,-2.36,7.17,-2.38,2.38,2.12,2.55,9.55,9.55,9.53
62.80,7.16,-2.35,7.16,-2.34,2.35,2.05,2.53,9.51,9.51,9.51
63.43,7.16,-2.30,7.16,-2.31,2.31,1.99,2.50,9.47,9.47,9.46
64.07,7.16,-2.27,7.16,-2.27,2.26,1.92,2.46,9.42,9.42,9.43
64.71,7.17,-2.23,7.17,-2.22,2.21,1.85,2.42,9.38,9.38,9.40
65.35,7.19,-2.16,7.19,-2.16,2.15,1.78,2.38,9.34,9.35,9.35
66.01,7.22,-2.10,7.22,-2.10,2.09,1.71,2.33,9.31,9.31,9.32
66.67,7.27,-2.02,7.26,-2.02,2.02,1.64,2.28,9.29,9.28,9.29
67.33,7.31,-1.93,7.31,-1.93,1.94,1.57,2.22,9.25,9.25,9.24
68.01,7.36,-1.85,7.36,-1.85,1.85,1.50,2.16,9.21,9.21,9.21
68.69,7.41,-1.76,7.41,-1.76,1.76,1.43,2.10,9.17,9.17,9.17
69.37,7.46,-1.66,7.46,-1.66,1.66,1.36,2.03,9.13,9.13,9.12
70.07,7.52,-1.57,7.52,-1.57,1.57,1.29,1.96,9.08,9.08,9.09
70.77,7.58,-1.47,7.58,-1.47,1.46,1.22,1.88,9.04,9.04,9.04
71.48,7.65,-1.37,7.65,-1.36,1.36,1.14,1.81,9.01,9.00,9.02
72.19,7.72,-1.24,7.72,-1.25,1.25,1.07,1.73,8.97,8.97,8.96
72.91,7.80,-1.13,7.80,-1.13,1.13,1.00,1.65,8.93,8.93,8.93
73.64,7.88,-1.01,7.88,-1.02,1.02,0.93,1.56,8.90,8.90,8.89
74.38,7.96,-0.91,7.96,-0.90,0.91,0.86,1.48,8.86,8.87,8.86
75.12,8.04,-0.78,8.04,-0.79,0.79,0.78,1.39,8.83,8.83,8.82
75.87,8.13,-0.66,8.12,-0.67,0.67,0.71,1.30,8.80,8.79,8.79
76.63,8.20,-0.56,8.21,-0.56,0.55,0.64,1.21,8.75,8.76,8.76
77.40,8.29,-0.45,8.29,-0.44,0.44,0.57,1.13,8.73,8.73,8.73
78.17,8.38,-0.32,8.38,-0.33,0.32,0.50,1.03,8.70,8.70,8.70
78.95,8.47,-0.20,8.47,-0.21,0.21,0.43,0.94,8.68,8.68,8.67
79.74,8.56,-0.09,8.56,-0.10,0.10,0.36,0.85,8.66,8.66,8.65
80.54,8.64,0.01,8.64,0.01,-0.01,0.29,0.76,8.63,8.63,8.63
81.35,8.71,0.10,8.71,0.10,-0.11,0.22,0.67,8.60,8.60,8.61
82.16,8.77,0.20,8.78,0.20,-0.20,0.15,0.58,8.57,8.58,8.57
82.98,8.85,0.29,8.85,0.29,-0.28,0.08,0.48,8.57,8.56,8.56
83.81,8.91,0.38,8.90,0.37,-0.36,0.01,0.39,8.55,8.54,8.53
84.65,8.95,0.45,8.95,0.44,-0.43,-0.06,0.30,8.52,8.52,8.50
85.50,8.98,0.48,8.99,0.50,-0.49,-0.13,0.20,8.49,8.49,8.49
86.35,9.02,0.55,9.02,0.54,-0.55,-0.19,0.11,8.47,8.47,8.47
87.22,9.05,0.59,9.05,0.59,-0.60,-0.26,0.02,8.45,8.45,8.46
88.09,9.07,0.63,9.07,0.64,-0.64,-0.33,-0.08,8.43,8.44,8.43
88.97,9.09,0.67,9.09,0.67,-0.67,-0.39,-0.17,8.42,8.42,8.41
89.86,9.10,0.70,9.10,0.70,-0.70,-0.46,-0.27,8.40,8.40,8.40
90.76,9.10,0.72,9.11,0.73,-0.72,-0.52,-0.36,8.38,8.38,8.38
91.66,9.11,0.76,9.10,0.75,-0.74,-0.59,-0.46,8.37,8.36,8.35
92.58,9.10,0.77,9.10,0.76,-0.76,-0.65,-0.55,8.34,8.34,8.33
93.51,9.09,0.77,9.10,0.77,-0.77,-0.71,-0.64,8.32,8.32,8.32
94.44,9.09,0.79,9.09,0.78,-0.79,-0.78,-0.74,8.30,8.30,8.30
95.39,9.08,0.80,9.08,0.80,-0.80,-0.84,-0.83,8.28,8.28,8.29
96.34,9.07,0.82,9.07,0.82,-0.82,-0.90,-0.93,8.25,8.25,8.25
97.30,9.07,0.85,9.06,0.84,-0.84,-0.96,-1.02,8.23,8.22,8.22
98.28,9.06,0.86,9.06,0.86,-0.87,-1.02,-1.12,8.19,8.19,8.20
99.26,9.06,0.89,9.07,0.89,-0.90,-1.08,-1.21,8.16,8.17,8.17
100.25,9.08,0.94,9.08,0.93,-0.93,-1.14,-1.30,8.15,8.14,8.14
101.25,9.10,0.99,9.09,0.98,-0.98,-1.20,-1.40,8.12,8.12,8.11
102.27,9.11,1.03,9.11,1.03,-1.02,-1.26,-1.49,8.09,8.08,8.08
103.29,9.12,1.08,9.12,1.08,-1.08,-1.31,-1.58,8.04,8.04,8.04
104.32,9.14,1.13,9.14,1.13,-1.14,-1.37,-1.67,8.00,8.00,8.01
105.37,9.17,1.19,9.17,1.20,-1.21,-1.43,-1.76,7.96,7.96,7.98
106.42,9.21,1.29,9.21,1.28,-1.28,-1.48,-1.84,7.93,7.93,7.92
107.48,9.25,1.36,9.25,1.36,-1.36,-1.54,-1.93,7.89,7.89,7.89
108.56,9.29,1.45,9.29,1.45,-1.45,-1.59,-2.01,7.84,7.84,7.84
109.64,9.32,1.54,9.32,1.53,-1.53,-1.64,-2.09,7.79,7.79,7.78
110.74,9.35,1.62,9.36,1.62,-1.62,-1.69,-2.17,7.73,7.74,7.73
111.85,9.39,1.70,9.38,1.70,-1.70,-1.75,-2.25,7.69,7.68,7.69
112.97,9.41,1.79,9.41,1.78,-1.78,-1.80,-2.32,7.63,7.63,7.62
114.10,9.42,1.85,9.42,1.86,-1.85,-1.85,-2.39,7.57,7.57,7.57
115.24,9.43,1.92,9.43,1.93,-1.92,-1.90,-2.45,7.51,7.51,7.51
116.39,9.43,2.00,9.43,1.99,-1.98,-1.94,-2.52,7.45,7.44,7.43
117.55,9.42,2.05,9.42,2.05,-2.04,-1.99,-2.57,7.38,7.38,7.37
118.73,9.41,2.10,9.41,2.10,-2.10,-2.04,-2.62,7.31,7.31,7.32
119.92,9.41,2.14,9.41,2.15,-2.15,-2.08,-2.67,7.26,7.26,7.27
121.12,9.41,2.20,9.41,2.20,-2.21,-2.13,-2.71,7.20,7.20,7.21
122.33,9.41,2.25,9.41,2.25,-2.26,-2.17,-2.75,7.15,7.15,7.16
123.55,9.41,2.31,9.41,2.31,-2.32,-2.21,-2.78,7.09,7.10,7.10
124.79,9.42,2.36,9.42,2.37,-2.37,-2.26,-2.81,7.05,7.05,7.06
126.03,9.43,2.43,9.43,2.42,-2.42,-2.30,-2.83,7.01,7.01,7.00
127.29,9.43,2.48,9.43,2.48,-2.47,-2.34,-2.85,6.96,6.96,6.95
128.57,9.42,2.52,9.42,2.52,-2.51,-2.38,-2.86,6.91,6.91,6.90
129.85,9.40,2.55,9.40,2.55,-2.54,-2.41,-2.86,6.86,6.86,6.85
131.15,9.38,2.58,9.38,2.58,-2.57,-2.45,-2.86,6.81,6.82,6.80
132.46,9.36,2.60,9.36,2.59,-2.59,-2.48,-2.86,6.77,6.77,6.76
133.79,9.33,2.61,9.33,2.60,-2.60,-2.52,-2.85,6.73,6.72,6.73
135.12,9.29,2.61,9.29,2.61,-2.62,-2.55,-2.84,6.67,6.68,6.68
136.48,9.26,2.62,9.26,2.61,-2.63,-2.58,-2.82,6.63,6.63,6.65
137.84,9.22,2.62,9.23,2.63,-2.64,-2.61,-2.80,6.58,6.59,6.60
139.22,9.21,2.66,9.20,2.64,-2.64,-2.64,-2.78,6.57,6.56,6.55
140.61,9.18,2.67,9.18,2.66,-2.65,-2.67,-2.75,6.53,6.53,6.51
142.02,9.15,2.66,9.15,2.66,-2.65,-2.69,-2.72,6.50,6.50,6.49
143.44,9.12,2.67,9.12,2.66,-2.66,-2.72,-2.69,6.46,6.46,6.46
144.87,9.08,2.67,9.08,2.67,-2.67,-2.74,-2.66,6.41,6.41,6.41
146.32,9.05,2.68,9.05,2.67,-2.68,-2.76,-2.63,6.37,6.37,6.37
147.78,9.02,2.68,9.02,2.67,-2.69,-2.78,-2.60,6.33,6.32,6.34
149.26,8.99,2.68,9.00,2.69,-2.71,-2.80,-2.56,6.28,6.29,6.31
150.75,8.98,2.73,8.98,2.72,-2.72,-2.82,-2.53,6.26,6.26,6.25
152.26,8.97,2.76,8.96,2.75,-2.73,-2.84,-2.49,6.24,6.23,6.21
153.78,8.94,2.76,8.94,2.76,-2.74,-2.85,-2.45,6.20,6.20,6.18
155.32,8.90,2.78,8.90,2.76,-2.75,-2.86,-2.42,6.15,6.15,6.12
156.88,8.85,2.76,8.85,2.76,-2.76,-2.87,-2.39,6.09,6.09,6.10
158.44,8.80,2.76,8.80,2.76,-2.77,-2.88,-2.35,6.03,6.03,6.04
160.03,8.75,2.76,8.76,2.76,-2.77,-2.89,-2.32,5.98,5.99,5.99
161.63,8.72,2.78,8.72,2.77,-2.77,-2.90,-2.29,5.95,5.95,5.94
163.24,8.69,2.78,8.68,2.77,-2.77,-2.90,-2.26,5.92,5.90,5.90
164.88,8.63,2.77,8.64,2.77,-2.78,-2.90,-2.23,5.85,5.86,5.87
166.53,8.58,2.77,8.59,2.77,-2.78,-2.90,-2.20,5.80,5.81,5.82
168.19,8.55,2.79,8.54,2.78,-2.78,-2.90,-2.18,5.77,5.76,5.76
169.87,8.50,2.79,8.51,2.79,-2.78,-2.90,-2.15,5.72,5.73,5.71
171.57,8.47,2.80,8.46,2.80,-2.78,-2.90,-2.13,5.69,5.68,5.67
173.29,8.42,2.81,8.41,2.79,-2.78,-2.89,-2.11,5.64,5.63,5.62
175.02,8.33,2.77,8.34,2.78,-2.78,-2.88,-2.09,5.55,5.56,5.56
176.77,8.27,2.77,8.27,2.77,-2.78,-2.87,-2.07,5.49,5.50,5.50
178.54,8.21,2.76,8.22,2.76,-2.77,-2.86,-2.05,5.44,5.44,5.45
180.32,8.17,2.78,8.17,2.77,-2.77,-2.85,-2.04,5.40,5.39,5.39
182.13,8.12,2.78,8.11,2.77,-2.77,-2.83,-2.03,5.35,5.35,5.35
183.95,8.05,2.77,8.05,2.77,-2.76,-2.81,-2.02,5.29,5.29,5.28
185.79,7.99,2.76,7.99,2.76,-2.76,-2.80,-2.01,5.23,5.23,5.23
187.65,7.93,2.77,7.93,2.76,-2.75,-2.77,-2.00,5.18,5.17,5.17
189.52,7.87,2.76,7.87,2.75,-2.75,-2.75,-1.99,5.12,5.12,5.11
191.42,7.80,2.74,7.80,2.74,-2.74,-2.73,-1.99,5.06,5.06,5.07
193.33,7.73,2.72,7.74,2.72,-2.73,-2.70,-1.99,5.00,5.01,5.01
195.27,7.68,2.72,7.68,2.72,-2.72,-2.67,-1.99,4.96,4.96,4.97
197.22,7.62,2.72,7.62,2.71,-2.71,-2.64,-1.99,4.91,4.91,4.91
199.19,7.56,2.71,7.55,2.70,-2.69,-2.61,-1.99,4.87,4.86,4.85
201.18,7.48,2.68,7.48,2.68,-2.67,-2.58,-1.99,4.81,4.81,4.80
203.19,7.41,2.64,7.42,2.65,-2.65,-2.55,-1.99,4.76,4.76,4.77
205.23,7.35,2.64,7.35,2.62,-2.63,-2.51,-1.99,4.72,4.72,4.72
207.28,7.29,2.60,7.28,2.60,-2.60,-2.47,-1.99,4.69,4.69,4.69
209.35,7.21,2.58,7.21,2.58,-2.56,-2.43,-2.00,4.65,4.64,4.63
211.44,7.12,2.53,7.12,2.53,-2.53,-2.39,-2.00,4.59,4.59,4.58
213.56,7.04,2.50,7.04,2.49,-2.49,-2.35,-2.00,4.55,4.54,4.54
215.69,6.95,2.43,6.96,2.44,-2.45,-2.31,-2.01,4.50,4.51,4.52
217.85,6.88,2.40,6.88,2.40,-2.41,-2.26,-2.01,4.47,4.48,4.48
220.03,6.82,2.38,6.81,2.36,-2.36,-2.21,-2.01,4.46,4.45,4.44
222.23,6.74,2.33,6.74,2.32,-2.31,-2.16,-2.01,4.43,4.43,4.41
224.45,6.65,2.26,6.65,2.27,-2.26,-2.11,-2.01,4.39,4.40,4.39
226.70,6.57,2.21,6.57,2.20,-2.20,-2.06,-2.00,4.37,4.36,4.36
228.96,6.48,2.14,6.49,2.15,-2.15,-2.01,-2.00,4.33,4.34,4.33
231.25,6.41,2.08,6.41,2.09,-2.09,-1.96,-1.99,4.32,4.32,4.32
233.57,6.34,2.04,6.33,2.03,-2.03,-1.90,-1.98,4.31,4.31,4.30
235.90,6.25,1.96,6.26,1.96,-1.96,-1.85,-1.97,4.29,4.29,4.29
238.26,6.19,1.91,6.18,1.90,-1.90,-1.79,-1.95,4.29,4.28,4.28
240.64,6.10,1.82,6.11,1.83,-1.83,-1.73,-1.93,4.27,4.28,4.27
243.05,6.04,1.77,6.04,1.77,-1.77,-1.67,-1.91,4.27,4.27,4.27
245.48,5.97,1.71,5.97,1.70,-1.70,-1.61,-1.88,4.27,4.27,4.26
247.93,5.89,1.62,5.90,1.63,-1.63,-1.55,-1.85,4.26,4.27,4.26
250.41,5.83,1.56,5.82,1.56,-1.55,-1.48,-1.82,4.28,4.27,4.26
252.92,5.75,1.48,5.76,1.48,-1.48,-1.42,-1.78,4.27,4.27,4.27
255.45,5.69,1.41,5.69,1.41,-1.41,-1.35,-1.74,4.28,4.28,4.28
258.00,5.63,1.34,5.63,1.33,-1.34,-1.29,-1.69,4.29,4.29,4.29
260.58,5.56,1.27,5.56,1.26,-1.27,-1.22,-1.65,4.29,4.30,4.29
263.19,5.50,1.20,5.50,1.19,-1.19,-1.15,-1.59,4.31,4.31,4.30
265.82,5.43,1.12,5.44,1.12,-1.12,-1.08,-1.54,4.31,4.32,4.31
268.48,5.38,1.05,5.38,1.05,-1.04,-1.01,-1.48,4.34,4.34,4.33
271.16,5.33,0.97,5.32,0.97,-0.97,-0.94,-1.42,4.36,4.35,4.35
273.87,5.25,0.89,5.25,0.89,-0.89,-0.87,-1.35,4.36,4.36,4.35
276.61,5.18,0.79,5.19,0.81,-0.82,-0.80,-1.29,4.36,4.37,4.38
279.38,5.12,0.74,5.12,0.73,-0.74,-0.73,-1.21,4.38,4.38,4.38
282.17,5.07,0.66,5.07,0.66,-0.66,-0.66,-1.14,4.41,4.40,4.40
284.99,5.01,0.59,5.00,0.59,-0.58,-0.58,-1.07,4.43,4.42,4.41
287.84,4.93,0.50,4.94,0.51,-0.50,-0.51,-0.99,4.43,4.43,4.42
290.72,4.86,0.42,4.86,0.42,-0.42,-0.43,-0.91,4.44,4.44,4.43
293.63,4.78,0.33,4.78,0.33,-0.33,-0.36,-0.83,4.45,4.45,4.45
296.57,4.70,0.23,4.70,0.24,-0.23,-0.28,-0.74,4.47,4.47,4.47
299.53,4.62,0.14,4.62,0.14,-0.13,-0.21,-0.66,4.49,4.49,4.47
302.53,4.53,0.05,4.52,0.03,-0.02,-0.13,-0.57,4.51,4.50,4.48
305.55,4.42,-0.09,4.42,-0.08,0.08,-0.05,-0.49,4.50,4.50,4.50
308.61,4.31,-0.20,4.32,-0.20,0.19,0.03,-0.40,4.50,4.50,4.51
311.69,4.22,-0.31,4.23,-0.30,0.29,0.10,-0.31,4.51,4.52,4.52
314.81,4.15,-0.40,4.15,-0.40,0.39,0.18,-0.22,4.54,4.54,4.55
317.96,4.07,-0.47,4.06,-0.49,0.49,0.26,-0.13,4.56,4.56,4.54
321.14,3.97,-0.58,3.97,-0.59,0.59,0.34,-0.03,4.56,4.56,4.55
324.35,3.87,-0.68,3.87,-0.68,0.69,0.42,0.06,4.56,4.56,4.55
327.59,3.78,-0.79,3.79,-0.77,0.77,0.50,0.15,4.55,4.56,4.56
330.87,3.71,-0.85,3.70,-0.86,0.86,0.58,0.25,4.57,4.56,4.56
334.18,3.63,-0.93,3.63,-0.94,0.94,0.66,0.34,4.57,4.57,4.56
337.52,3.54,-1.03,3.55,-1.02,1.02,0.74,0.44,4.56,4.57,4.57
340.90,3.49,-1.08,3.48,-1.09,1.09,0.82,0.53,4.58,4.57,4.57
344.30,3.42,-1.16,3.42,-1.16,1.16,0.90,0.63,4.58,4.58,4.57
347.75,3.35,-1.22,3.35,-1.22,1.22,0.98,0.73,4.57,4.58,4.57
351.23,3.29,-1.28,3.29,-1.28,1.28,1.06,0.83,4.57,4.57,4.57
354.74,3.23,-1.34,3.23,-1.34,1.33,1.14,0.93,4.56,4.57,4.57
358.28,3.18,-1.38,3.18,-1.38,1.38,1.22,1.02,4.56,4.56,4.55
361.87,3.13,-1.42,3.13,-1.43,1.43,1.30,1.12,4.56,4.56,4.55
365.49,3.08,-1.47,3.08,-1.47,1.47,1.38,1.23,4.55,4.55,4.55
369.14,3.03,-1.51,3.03,-1.52,1.51,1.46,1.33,4.54,4.54,4.54
372.83,2.99,-1.55,2.99,-1.56,1.55,1.54,1.43,4.54,4.54,4.54
376.56,2.94,-1.59,2.94,-1.59,1.59,1.62,1.53,4.53,4.53,4.53
380.33,2.90,-1.62,2.90,-1.62,1.62,1.70,1.63,4.52,4.52,4.52
384.13,2.86,-1.65,2.86,-1.66,1.66,1.77,1.74,4.52,4.52,4.51
387.97,2.81,-1.69,2.81,-1.70,1.70,1.85,1.84,4.51,4.51,4.50
391.85,2.76,-1.73,2.76,-1.74,1.75,1.93,1.95,4.51,4.50,4.49
395.77,2.70,-1.80,2.71,-1.79,1.79,2.01,2.05,4.49,4.50,4.50
399.73,2.65,-1.84,2.65,-1.85,1.85,2.09,2.16,4.50,4.50,4.49
403.72,2.58,-1.91,2.58,-1.91,1.92,2.16,2.26,4.50,4.49,4.48
407.76,2.50,-1.97,2.50,-1.98,1.99,2.24,2.37,4.49,4.49,4.47
411.84,2.42,-2.06,2.42,-2.06,2.06,2.32,2.47,4.48,4.48,4.48
415.96,2.33,-2.13,2.33,-2.14,2.14,2.39,2.57,4.47,4.47,4.46
420.12,2.24,-2.22,2.24,-2.23,2.22,2.47,2.68,4.46,4.46,4.46
424.32,2.14,-2.32,2.15,-2.31,2.31,2.54,2.78,4.45,4.45,4.46
428.56,2.06,-2.39,2.06,-2.40,2.40,2.61,2.88,4.46,4.45,4.45
432.85,1.97,-2.48,1.97,-2.48,2.49,2.69,2.98,4.46,4.46,4.45
437.18,1.89,-2.56,1.89,-2.57,2.58,2.76,3.07,4.47,4.47,4.45
441.55,1.80,-2.66,1.79,-2.67,2.67,2.83,3.17,4.47,4.46,4.46
445.96,1.70,-2.77,1.70,-2.76,2.76,2.90,3.26,4.46,4.46,4.46
450.42,1.59,-2.86,1.60,-2.86,2.86,2.97,3.35,4.45,4.46,4.45
454.93,1.52,-2.94,1.51,-2.95,2.95,3.04,3.43,4.47,4.46,4.46
459.48,1.42,-3.04,1.42,-3.04,3.05,3.11,3.51,4.47,4.47,4.46
464.07,1.34,-3.13,1.34,-3.14,3.14,3.17,3.59,4.48,4.47,4.47
468.71,1.25,-3.23,1.25,-3.23,3.22,3.24,3.67,4.47,4.47,4.48
473.40,1.16,-3.31,1.17,-3.31,3.31,3.30,3.73,4.47,4.47,4.47
478.13,1.09,-3.39,1.09,-3.39,3.39,3.37,3.80,4.48,4.48,4.48
482.91,1.03,-3.45,1.03,-3.46,3.46,3.43,3.86,4.49,4.49,4.48
487.74,0.97,-3.52,0.96,-3.53,3.54,3.49,3.91,4.51,4.50,4.49
492.62,0.90,-3.60,0.90,-3.60,3.61,3.55,3.96,4.51,4.51,4.50
497.55,0.82,-3.68,0.83,-3.68,3.68,3.61,4.00,4.50,4.51,4.50
502.52,0.76,-3.75,0.76,-3.75,3.75,3.67,4.04,4.51,4.51,4.51
507.55,0.70,-3.81,0.70,-3.82,3.82,3.72,4.07,4.52,4.51,4.51
512.62,0.64,-3.87,0.63,-3.88,3.88,3.78,4.10,4.52,4.51,4.51
517.75,0.57,-3.95,0.58,-3.94,3.93,3.83,4.12,4.50,4.51,4.52
522.93,0.53,-3.99,0.53,-3.99,3.98,3.88,4.14,4.51,4.52,4.52
528.16,0.50,-4.02,0.49,-4.03,4.03,3.93,4.15,4.53,4.52,4.52
533.44,0.46,-4.06,0.46,-4.07,4.07,3.98,4.16,4.53,4.53,4.52
538.77,0.42,-4.10,0.42,-4.10,4.10,4.02,4.16,4.52,4.53,4.52
544.16,0.39,-4.13,0.39,-4.13,4.14,4.07,4.16,4.53,4.53,4.52
549.60,0.36,-4.16,0.36,-4.16,4.17,4.11,4.16,4.53,4.53,4.52
