frequency,raw,error,smoothed,error_smoothed,equalization,parametric_eq,fixed_band_eq,equalized_raw,equalized_smoothed,target
20.00,8.36,-3.44,8.37,-3.44,3.44,3.27,1.20,11.80,11.80,11.80
20.20,8.38,-3.41,8.39,-3.41,3.41,3.26,1.24,11.79,11.79,11.79
20.40,8.40,-3.38,8.40,-3.37,3.37,3.26,1.27,11.78,11.78,11.78
20.61,8.42,-3.35,8.42,-3.34,3.34,3.25,1.31,11.77,11.77,11.77
20.81,8.44,-3.30,8.44,-3.31,3.31,3.24,1.36,11.76,11.75,11.75
21.02,8.46,-3.27,8.46,-3.28,3.28,3.23,1.40,11.75,11.74,11.74
21.23,8.48,-3.24,8.48,-3.25,3.25,3.22,1.44,11.74,11.73,11.73
21.44,8.50,-3.23,8.50,-3.22,3.22,3.21,1.49,11.73,11.72,11.74
21.66,8.51,-3.20,8.52,-3.19,3.19,3.20,1.53,11.71,11.71,11.72
21.87,8.53,-3.18,8.54,-3.17,3.17,3.19,1.58,11.70,11.71,11.71
22.09,8.55,-3.14,8.56,-3.14,3.14,3.17,1.63,11.70,11.70,11.69
22.31,8.57,-3.12,8.57,-3.12,3.12,3.16,1.68,11.69,11.69,11.69
22.54,8.58,-3.10,8.59,-3.09,3.09,3.15,1.73,11.68,11.68,11.68
22.76,8.60,-3.07,8.61,-3.07,3.07,3.14,1.78,11.67,11.68,11.68
22.99,8.62,-3.04,8.63,-3.05,3.05,3.13,1.83,11.67,11.67,11.67
23.22,8.64,-3.01,8.64,-3.02,3.02,3.12,1.89,11.67,11.67,11.66
23.45,8.66,-3.00,8.66,-3.00,3.00,3.10,1.95,11.67,11.66,11.67
23.69,8.68,-2.97,8.68,-2.98,2.98,3.09,2.00,11.66,11.66,11.65
23.92,8.69,-2.95,8.70,-2.96,2.96,3.08,2.06,11.65,11.65,11.64
24.16,8.71,-2.94,8.71,-2.94,2.94,3.06,2.12,11.65,11.65,11.65
24.40,8.72,-2.93,8.73,-2.92,2.92,3.05,2.18,11.64,11.65,11.65
24.65,8.74,-2.90,8.75,-2.90,2.90,3.03,2.24,11.64,11.64,11.65
24.89,8.75,-2.89,8.76,-2.88,2.88,3.02,2.30,11.63,11.64,11.65
25.14,8.77,-2.86,8.78,-2.86,2.86,3.01,2.36,11.64,11.64,11.64
25.39,8.80,-2.84,8.79,-2.84,2.84,2.99,2.42,11.64,11.64,11.63
25.65,8.81,-2.82,8.81,-2.83,2.83,2.97,2.49,11.64,11.64,11.63
25.91,8.82,-2.81,8.82,-2.81,2.81,2.96,2.55,11.63,11.63,11.63
26.16,8.84,-2.79,8.84,-2.79,2.79,2.94,2.61,11.64,11.63,11.64
26.43,8.85,-2.78,8.85,-2.78,2.78,2.93,2.67,11.63,11.63,11.64
26.69,8.86,-2.77,8.87,-2.76,2.76,2.91,2.73,11.63,11.63,11.63
26.96,8.88,-2.75,8.89,-2.75,2.75,2.89,2.79,11.63,11.63,11.63
27.23,8.89,-2.73,8.90,-2.73,2.73,2.88,2.84,11.63,11.63,11.63
27.50,8.91,-2.71,8.91,-2.72,2.72,2.86,2.90,11.63,11.63,11.63
27.77,8.93,-2.70,8.93,-2.71,2.71,2.84,2.95,11.64,11.63,11.63
28.05,8.94,-2.69,8.94,-2.69,2.69,2.82,3.00,11.64,11.64,11.63
28.33,8.95,-2.68,8.95,-2.68,2.68,2.80,3.04,11.64,11.64,11.64
28.62,8.96,-2.67,8.97,-2.67,2.67,2.78,3.08,11.63,11.64,11.64
28.90,8.98,-2.66,8.98,-2.65,2.65,2.76,3.12,11.64,11.63,11.64
29.19,8.99,-2.64,8.99,-2.64,2.64,2.74,3.16,11.63,11.63,11.64
29.48,9.00,-2.63,9.01,-2.62,2.62,2.72,3.19,11.63,11.63,11.64
29.78,9.01,-2.62,9.02,-2.61,2.61,2.70,3.21,11.62,11.63,11.63
30.08,9.02,-2.60,9.03,-2.59,2.59,2.68,3.23,11.62,11.62,11.63
30.38,9.04,-2.57,9.04,-2.58,2.58,2.66,3.25,11.62,11.62,11.62
30.68,9.05,-2.56,9.05,-2.56,2.56,2.64,3.26,11.62,11.62,11.61
30.99,9.06,-2.54,9.06,-2.54,2.54,2.62,3.26,11.61,11.61,11.61
31.30,9.07,-2.53,9.08,-2.53,2.53,2.59,3.26,11.60,11.60,11.60
31.61,9.08,-2.52,9.08,-2.51,2.51,2.57,3.26,11.59,11.59,11.60
31.93,9.10,-2.47,9.09,-2.49,2.49,2.55,3.25,11.60,11.59,11.58
32.24,9.10,-2.48,9.10,-2.48,2.48,2.53,3.23,11.58,11.58,11.58
32.57,9.11,-2.45,9.11,-2.46,2.46,2.50,3.21,11.58,11.57,11.57
32.89,9.11,-2.45,9.12,-2.45,2.45,2.48,3.18,11.56,11.56,11.56
33.22,9.11,-2.44,9.12,-2.43,2.43,2.45,3.15,11.55,11.55,11.56
33.55,9.12,-2.43,9.12,-2.42,2.42,2.43,3.11,11.55,11.55,11.55
33.89,9.12,-2.41,9.13,-2.41,2.41,2.40,3.07,11.54,11.54,11.54
34.23,9.12,-2.39,9.13,-2.40,2.40,2.38,3.02,11.52,11.53,11.52
34.57,9.13,-2.38,9.13,-2.39,2.39,2.35,2.97,11.52,11.52,11.51
34.92,9.13,-2.36,9.13,-2.38,2.38,2.32,2.92,11.51,11.51,11.50
35.27,9.13,-2.38,9.13,-2.37,2.37,2.30,2.87,11.50,11.49,11.51
35.62,9.12,-2.36,9.13,-2.35,2.35,2.27,2.81,11.48,11.48,11.48
35.97,9.12,-2.35,9.13,-2.34,2.34,2.24,2.75,11.47,11.47,11.48
36.33,9.12,-2.34,9.12,-2.33,2.33,2.21,2.69,11.45,11.45,11.46
36.70,9.12,-2.31,9.12,-2.31,2.31,2.18,2.63,11.44,11.43,11.43
37.06,9.12,-2.29,9.12,-2.30,2.30,2.15,2.56,11.42,11.42,11.41
37.43,9.12,-2.27,9.12,-2.28,2.28,2.12,2.50,11.40,11.40,11.40
37.81,9.11,-2.26,9.12,-2.26,2.26,2.09,2.43,11.37,11.38,11.38
38.19,9.11,-2.24,9.12,-2.24,2.24,2.06,2.37,11.35,11.35,11.35
38.57,9.11,-2.22,9.12,-2.21,2.21,2.03,2.30,11.33,11.33,11.33
38.95,9.11,-2.20,9.12,-2.19,2.19,2.00,2.23,11.30,11.31,11.31
39.34,9.11,-2.17,9.12,-2.16,2.16,1.97,2.17,11.27,11.28,11.28
39.74,9.12,-2.13,9.13,-2.13,2.13,1.94,2.10,11.25,11.26,11.25
40.14,9.12,-2.11,9.13,-2.10,2.10,1.90,2.04,11.22,11.23,11.23
40.54,9.14,-2.07,9.14,-2.07,2.07,1.87,1.97,11.21,11.21,11.21
40.94,9.15,-2.02,9.15,-2.03,2.03,1.84,1.91,11.19,11.18,11.18
41.35,9.16,-1.99,9.16,-2.00,2.00,1.80,1.85,11.16,11.16,11.16
41.76,9.17,-1.95,9.17,-1.96,1.96,1.77,1.79,11.14,11.13,11.13
42.18,9.18,-1.93,9.18,-1.92,1.92,1.73,1.72,11.11,11.11,11.11
42.60,9.19,-1.88,9.20,-1.88,1.88,1.70,1.67,11.08,11.08,11.08
43.03,9.20,-1.85,9.21,-1.84,1.84,1.66,1.61,11.05,11.05,11.06
43.46,9.22,-1.80,9.23,-1.80,1.80,1.63,1.55,11.02,11.03,11.02
43.90,9.24,-1.75,9.24,-1.76,1.76,1.59,1.49,11.00,11.00,11.00
44.33,9.25,-1.71,9.25,-1.71,1.71,1.55,1.44,10.97,10.97,10.96
44.78,9.26,-1.67,9.27,-1.66,1.66,1.51,1.38,10.93,10.93,10.94
45.23,9.28,-1.63,9.28,-1.62,1.62,1.48,1.33,10.90,10.90,10.91
45.68,9.30,-1.56,9.30,-1.56,1.56,1.44,1.28,10.87,10.86,10.86
46.13,9.31,-1.51,9.32,-1.51,1.51,1.40,1.23,10.82,10.82,10.83
46.60,9.33,-1.45,9.33,-1.45,1.45,1.36,1.18,10.79,10.78,10.79
47.06,9.34,-1.41,9.35,-1.40,1.40,1.32,1.13,10.74,10.74,10.75
47.53,9.36,-1.35,9.36,-1.34,1.34,1.28,1.09,10.70,10.70,10.71
48.01,9.37,-1.28,9.38,-1.28,1.28,1.24,1.04,10.65,10.65,10.65
48.49,9.38,-1.23,9.39,-1.22,1.22,1.20,0.99,10.60,10.61,10.61
48.97,9.40,-1.15,9.40,-1.16,1.16,1.15,0.95,10.56,10.56,10.56
49.46,9.41,-1.10,9.42,-1.10,1.10,1.11,0.91,10.52,10.52,10.52
49.96,9.43,-1.02,9.43,-1.04,1.04,1.07,0.87,10.48,10.47,10.45
50.46,9.44,-0.98,9.44,-0.98,0.98,1.03,0.82,10.43,10.42,10.42
50.96,9.45,-0.92,9.45,-0.93,0.93,0.98,0.78,10.38,10.38,10.38
51.47,9.45,-0.88,9.46,-0.87,0.87,0.94,0.74,10.33,10.33,10.33
51.99,9.46,-0.81,9.46,-0.82,0.82,0.90,0.70,10.28,10.28,10.28
52.51,9.47,-0.76,9.47,-0.77,0.77,0.85,0.66,10.24,10.24,10.24
53.03,9.47,-0.73,9.47,-0.72,0.72,0.81,0.63,10.19,10.19,10.20
53.56,9.47,-0.68,9.48,-0.67,0.67,0.76,0.59,10.14,10.14,10.15
54.10,9.47,-0.62,9.48,-0.62,0.62,0.71,0.55,10.09,10.10,10.09
54.64,9.47,-0.58,9.48,-0.57,0.57,0.67,0.51,10.05,10.05,10.05
55.18,9.47,-0.53,9.48,-0.53,0.53,0.62,0.48,10.00,10.01,10.00
55.74,9.47,-0.47,9.48,-0.49,0.49,0.57,0.44,9.96,9.96,9.95
56.29,9.47,-0.44,9.48,-0.44,0.44,0.53,0.40,9.92,9.92,9.91
56.86,9.47,-0.39,9.47,-0.40,0.40,0.48,0.37,9.87,9.87,9.87
57.42,9.47,-0.34,9.47,-0.35,0.35,0.43,0.33,9.83,9.82,9.81
58.00,9.46,-0.30,9.46,-0.31,0.31,0.38,0.29,9.78,9.77,9.77
58.58,9.45,-0.28,9.46,-0.27,0.27,0.33,0.26,9.72,9.72,9.73
59.16,9.45,-0.24,9.45,-0.22,0.22,0.28,0.22,9.68,9.67,9.69
59.76,9.43,-0.21,9.44,-0.18,0.18,0.23,0.18,9.62,9.62,9.64
60.35,9.42,-0.16,9.42,-0.14,0.14,0.18,0.15,9.56,9.56,9.58
60.96,9.41,-0.10,9.41,-0.10,0.10,0.13,0.11,9.51,9.50,9.52
61.57,9.39,-0.05,9.39,-0.05,0.05,0.08,0.07,9.45,9.45,9.44
62.18,9.37,-0.01,9.38,-0.01,0.01,0.03,0.03,9.39,9.39,9.38
62.80,9.36,0.05,9.36,0.03,-0.03,-0.03,-0.01,9.33,9.32,9.31
63.43,9.33,0.09,9.34,0.07,-0.07,-0.08,-0.04,9.26,9.26,9.25
64.07,9.31,0.13,9.31,0.11,-0.11,-0.13,-0.08,9.20,9.20,9.19
64.71,9.29,0.17,9.29,0.16,-0.16,-0.18,-0.13,9.14,9.14,9.13
65.35,9.27,0.21,9.27,0.20,-0.20,-0.24,-0.17,9.08,9.07,9.07
66.01,9.24,0.24,9.25,0.24,-0.24,-0.29,-0.21,9.01,9.01,9.01
66.67,9.22,0.27,9.23,0.28,-0.28,-0.34,-0.25,8.94,8.94,8.95
67.33,9.20,0.33,9.20,0.32,-0.32,-0.40,-0.29,8.88,8.88,8.88
68.01,9.18,0.36,9.18,0.37,-0.37,-0.45,-0.34,8.82,8.82,8.82
68.69,9.16,0.41,9.17,0.41,-0.41,-0.51,-0.38,8.75,8.75,8.76
69.37,9.14,0.45,9.15,0.46,-0.46,-0.56,-0.43,8.68,8.69,8.70
70.07,9.13,0.51,9.14,0.52,-0.52,-0.62,-0.47,8.62,8.62,8.63
70.77,9.11,0.56,9.13,0.57,-0.57,-0.67,-0.52,8.54,8.55,8.56
71.48,9.11,0.62,9.12,0.63,-0.63,-0.73,-0.57,8.48,8.49,8.49
72.19,9.10,0.68,9.11,0.69,-0.69,-0.79,-0.62,8.41,8.42,8.42
72.91,9.09,0.75,9.11,0.76,-0.76,-0.84,-0.67,8.34,8.35,8.35
73.64,9.10,0.83,9.11,0.82,-0.82,-0.90,-0.72,8.28,8.29,8.28
74.38,9.10,0.89,9.11,0.89,-0.89,-0.96,-0.77,8.22,8.22,8.21
75.12,9.11,0.96,9.11,0.95,-0.95,-1.01,-0.82,8.16,8.16,8.15
75.87,9.12,1.03,9.11,1.02,-1.02,-1.07,-0.88,8.11,8.09,8.09
76.63,9.12,1.10,9.11,1.09,-1.09,-1.13,-0.93,8.04,8.03,8.02
77.40,9.12,1.16,9.12,1.15,-1.15,-1.18,-0.98,7.97,7.97,7.97
78.17,9.12,1.23,9.12,1.22,-1.22,-1.24,-1.04,7.91,7.90,7.89
78.95,9.12,1.28,9.12,1.28,-1.28,-1.30,-1.10,7.84,7.84,7.85
79.74,9.12,1.34,9.12,1.34,-1.34,-1.36,-1.16,7.78,7.78,7.78
80.54,9.12,1.40,9.13,1.41,-1.41,-1.42,-1.22,7.72,7.72,7.73
81.35,9.12,1.47,9.13,1.47,-1.47,-1.47,-1.28,7.66,7.66,7.66
82.16,9.12,1.52,9.13,1.53,-1.53,-1.53,-1.34,7.60,7.60,7.61
82.98,9.12,1.59,9.12,1.59,-1.59,-1.59,-1.40,7.53,7.53,7.54
83.81,9.12,1.65,9.12,1.65,-1.65,-1.65,-1.47,7.47,7.47,7.47
84.65,9.12,1.72,9.12,1.72,-1.72,-1.71,-1.53,7.41,7.40,7.40
85.50,9.12,1.79,9.13,1.79,-1.79,-1.77,-1.60,7.34,7.34,7.34
86.35,9.12,1.85,9.13,1.85,-1.85,-1.82,-1.67,7.27,7.27,7.27
87.22,9.12,1.92,9.13,1.92,-1.92,-1.88,-1.74,7.20,7.21,7.21
88.09,9.12,1.99,9.13,1.99,-1.99,-1.94,-1.81,7.13,7.14,7.14
88.97,9.12,2.05,9.14,2.06,-2.06,-2.00,-1.88,7.06,7.07,7.07
89.86,9.12,2.12,9.14,2.14,-2.14,-2.06,-1.96,6.99,7.00,7.00
90.76,9.13,2.20,9.14,2.21,-2.21,-2.12,-2.03,6.93,6.93,6.93
91.66,9.13,2.28,9.14,2.28,-2.28,-2.18,-2.11,6.85,6.86,6.85
92.58,9.14,2.35,9.14,2.35,-2.35,-2.23,-2.19,6.80,6.79,6.79
93.51,9.14,2.42,9.13,2.41,-2.41,-2.29,-2.27,6.73,6.71,6.72
94.44,9.14,2.49,9.12,2.48,-2.48,-2.35,-2.35,6.67,6.64,6.65
95.39,9.12,2.56,9.11,2.54,-2.54,-2.41,-2.43,6.58,6.57,6.57
96.34,9.10,2.61,9.09,2.60,-2.60,-2.47,-2.51,6.50,6.49,6.49
97.30,9.08,2.66,9.08,2.66,-2.66,-2.52,-2.60,6.43,6.42,6.42
98.28,9.06,2.73,9.05,2.71,-2.71,-2.58,-2.68,6.36,6.35,6.34
99.26,9.03,2.77,9.03,2.76,-2.76,-2.64,-2.77,6.28,6.27,6.26
100.25,8.99,2.81,9.00,2.80,-2.80,-2.70,-2.86,6.19,6.20,6.19
101.25,8.96,2.84,8.97,2.84,-2.84,-2.75,-2.94,6.12,6.13,6.12
102.27,8.93,2.88,8.94,2.88,-2.88,-2.81,-3.03,6.05,6.06,6.06
103.29,8.91,2.93,8.91,2.92,-2.92,-2.87,-3.12,5.99,5.99,5.98
104.32,8.89,2.98,8.89,2.97,-2.97,-2.92,-3.21,5.93,5.92,5.92
105.37,8.86,3.01,8.86,3.01,-3.01,-2.98,-3.30,5.85,5.85,5.85
106.42,8.83,3.05,8.84,3.06,-3.06,-3.04,-3.38,5.77,5.78,5.79
107.48,8.80,3.09,8.83,3.12,-3.12,-3.09,-3.47,5.68,5.71,5.71
108.56,8.78,3.14,8.82,3.18,-3.18,-3.15,-3.55,5.61,5.64,5.65
109.64,8.77,3.19,8.81,3.24,-3.24,-3.20,-3.64,5.53,5.57,5.58
110.74,8.77,3.27,8.81,3.31,-3.31,-3.26,-3.72,5.47,5.50,5.51
111.85,8.79,3.36,8.80,3.37,-3.37,-3.31,-3.80,5.42,5.43,5.43
112.97,8.80,3.44,8.80,3.44,-3.44,-3.36,-3.87,5.36,5.36,5.37
114.10,8.81,3.52,8.80,3.51,-3.51,-3.42,-3.95,5.30,5.29,5.29
115.24,8.81,3.61,8.79,3.57,-3.57,-3.47,-4.02,5.24,5.22,5.21
116.39,8.81,3.68,8.78,3.64,-3.64,-3.52,-4.08,5.18,5.14,5.14
117.55,8.80,3.74,8.77,3.70,-3.70,-3.58,-4.15,5.11,5.07,5.06
118.73,8.78,3.79,8.76,3.76,-3.76,-3.63,-4.21,5.03,5.00,4.99
119.92,8.75,3.83,8.74,3.81,-3.81,-3.68,-4.26,4.95,4.94,4.93
121.12,8.72,3.86,8.72,3.86,-3.86,-3.73,-4.31,4.87,4.87,4.87
122.33,8.70,3.91,8.70,3.90,-3.90,-3.78,-4.35,4.80,4.80,4.80
123.55,8.67,3.94,8.67,3.94,-3.94,-3.83,-4.39,4.73,4.73,4.74
124.79,8.63,3.97,8.64,3.98,-3.98,-3.88,-4.43,4.65,4.66,4.67
126.03,8.59,3.99,8.61,4.02,-4.02,-3.93,-4.45,4.57,4.59,4.60
127.29,8.57,4.04,8.59,4.06,-4.06,-3.98,-4.48,4.51,4.53,4.53
128.57,8.54,4.09,8.56,4.10,-4.10,-4.03,-4.50,4.44,4.46,4.46
129.85,8.51,4.12,8.54,4.15,-4.15,-4.07,-4.51,4.37,4.39,4.39
131.15,8.49,4.18,8.52,4.20,-4.20,-4.12,-4.52,4.30,4.32,4.32
132.46,8.48,4.23,8.50,4.25,-4.25,-4.17,-4.53,4.24,4.26,4.26
133.79,8.48,4.30,8.48,4.29,-4.29,-4.21,-4.53,4.19,4.19,4.18
135.12,8.47,4.35,8.47,4.34,-4.34,-4.26,-4.52,4.13,4.12,4.12
136.48,8.46,4.40,8.45,4.39,-4.39,-4.30,-4.52,4.08,4.06,4.06
137.84,8.44,4.45,8.43,4.43,-4.43,-4.34,-4.51,4.01,3.99,3.99
139.22,8.43,4.51,8.41,4.48,-4.48,-4.39,-4.50,3.96,3.93,3.93
140.61,8.41,4.55,8.39,4.52,-4.52,-4.43,-4.49,3.89,3.87,3.87
142.02,8.37,4.57,8.37,4.56,-4.56,-4.47,-4.47,3.82,3.81,3.80
143.44,8.35,4.61,8.35,4.59,-4.59,-4.51,-4.45,3.76,3.75,3.75
144.87,8.31,4.62,8.32,4.63,-4.63,-4.55,-4.44,3.69,3.69,3.70
146.32,8.28,4.65,8.30,4.66,-4.66,-4.59,-4.42,3.63,3.64,3.63
147.78,8.25,4.67,8.27,4.69,-4.69,-4.63,-4.40,3.57,3.58,3.58
149.26,8.23,4.71,8.24,4.72,-4.72,-4.66,-4.39,3.52,3.53,3.53
150.75,8.20,4.74,8.22,4.75,-4.75,-4.70,-4.37,3.46,3.47,3.47
152.26,8.19,4.77,8.19,4.78,-4.78,-4.74,-4.35,3.42,3.42,3.42
153.78,8.16,4.80,8.17,4.81,-4.81,-4.77,-4.34,3.36,3.36,3.37
155.32,8.14,4.83,8.14,4.84,-4.84,-4.81,-4.33,3.31,3.31,3.31
156.88,8.11,4.86,8.12,4.87,-4.87,-4.84,-4.32,3.25,3.25,3.26
158.44,8.10,4.91,8.10,4.90,-4.90,-4.87,-4.31,3.20,3.20,3.20
160.03,8.07,4.93,8.07,4.93,-4.93,-4.90,-4.30,3.14,3.14,3.15
161.63,8.05,4.97,8.05,4.96,-4.96,-4.93,-4.30,3.09,3.09,3.09
163.24,8.03,5.00,8.02,4.99,-4.99,-4.96,-4.30,3.04,3.03,3.03
164.88,7.99,5.02,7.99,5.02,-5.02,-4.99,-4.30,2.97,2.97,2.97
166.53,7.97,5.07,7.96,5.05,-5.05,-5.02,-4.31,2.93,2.92,2.91
168.19,7.94,5.08,7.94,5.08,-5.08,-5.05,-4.32,2.87,2.86,2.87
169.87,7.90,5.10,7.91,5.10,-5.10,-5.07,-4.33,2.80,2.80,2.80
171.57,7.87,5.13,7.88,5.13,-5.13,-5.10,-4.34,2.74,2.75,2.74
173.29,7.83,5.14,7.84,5.15,-5.15,-5.12,-4.36,2.68,2.69,2.69
175.02,7.78,5.15,7.81,5.18,-5.18,-5.15,-4.38,2.61,2.63,2.63
176.77,7.75,5.18,7.77,5.20,-5.20,-5.17,-4.41,2.56,2.58,2.58
178.54,7.73,5.21,7.74,5.22,-5.22,-5.19,-4.44,2.52,2.52,2.52
180.32,7.71,5.26,7.70,5.24,-5.24,-5.21,-4.47,2.48,2.46,2.46
182.13,7.68,5.27,7.66,5.26,-5.26,-5.23,-4.50,2.43,2.41,2.41
183.95,7.63,5.28,7.63,5.27,-5.27,-5.25,-4.54,2.36,2.35,2.36
185.79,7.59,5.30,7.59,5.29,-5.29,-5.27,-4.58,2.31,2.30,2.30
187.65,7.54,5.30,7.54,5.30,-5.30,-5.28,-4.63,2.25,2.25,2.25
189.52,7.50,5.31,7.50,5.30,-5.30,-5.30,-4.68,2.20,2.20,2.20
191.42,7.45,5.30,7.46,5.31,-5.31,-5.31,-4.73,2.15,2.15,2.15
193.33,7.41,5.31,7.41,5.31,-5.31,-5.33,-4.78,2.10,2.10,2.10
195.27,7.36,5.32,7.36,5.31,-5.31,-5.34,-4.84,2.05,2.05,2.05
197.22,7.31,5.32,7.31,5.31,-5.31,-5.35,-4.90,2.01,2.01,1.99
199.19,7.26,5.31,7.26,5.30,-5.30,-5.36,-4.96,1.97,1.96,1.96
201.18,7.21,5.31,7.21,5.29,-5.29,-5.37,-5.02,1.92,1.92,1.91
203.19,7.16,5.29,7.16,5.29,-5.29,-5.38,-5.09,1.88,1.88,1.88
205.23,7.10,5.26,7.12,5.28,-5.28,-5.38,-5.16,1.82,1.84,1.84
207.28,7.05,5.25,7.07,5.27,-5.27,-5.39,-5.23,1.78,1.80,1.80
209.35,7.01,5.25,7.03,5.27,-5.27,-5.39,-5.29,1.75,1.76,1.77
211.44,6.98,5.26,6.98,5.26,-5.26,-5.40,-5.36,1.73,1.73,1.73
213.56,6.94,5.24,6.94,5.25,-5.25,-5.40,-5.43,1.70,1.69,1.70
215.69,6.90,5.24,6.90,5.24,-5.24,-5.40,-5.50,1.66,1.66,1.66
217.85,6.86,5.24,6.86,5.23,-5.23,-5.40,-5.57,1.63,1.63,1.63
220.03,6.83,5.24,6.82,5.23,-5.23,-5.40,-5.63,1.61,1.60,1.59
222.23,6.80,5.24,6.79,5.22,-5.22,-5.40,-5.70,1.59,1.57,1.56
224.45,6.75,5.22,6.75,5.21,-5.21,-5.40,-5.76,1.54,1.54,1.54
226.70,6.71,5.21,6.72,5.21,-5.21,-5.40,-5.81,1.51,1.51,1.51
228.96,6.67,5.18,6.68,5.20,-5.20,-5.39,-5.87,1.48,1.49,1.49
231.25,6.65,5.19,6.65,5.19,-5.19,-5.39,-5.91,1.47,1.46,1.46
233.57,6.63,5.19,6.62,5.18,-5.18,-5.38,-5.96,1.45,1.44,1.44
235.90,6.59,5.17,6.60,5.17,-5.17,-5.38,-5.99,1.42,1.42,1.42
238.26,6.57,5.18,6.57,5.17,-5.17,-5.37,-6.02,1.41,1.41,1.39
240.64,6.54,5.15,6.56,5.17,-5.17,-5.36,-6.04,1.38,1.39,1.40
243.05,6.53,5.16,6.54,5.16,-5.16,-5.35,-6.06,1.37,1.38,1.38
245.48,6.51,5.15,6.53,5.17,-5.17,-5.34,-6.07,1.35,1.37,1.36
247.93,6.50,5.16,6.53,5.17,-5.17,-5.32,-6.07,1.33,1.36,1.35
250.41,6.50,5.15,6.53,5.18,-5.18,-5.31,-6.06,1.33,1.35,1.35
252.92,6.51,5.17,6.53,5.19,-5.19,-5.29,-6.05,1.33,1.34,1.34
255.45,6.52,5.19,6.53,5.20,-5.20,-5.28,-6.02,1.33,1.33,1.33
258.00,6.53,5.21,6.53,5.21,-5.21,-5.26,-5.99,1.33,1.32,1.33
260.58,6.53,5.21,6.53,5.21,-5.21,-5.25,-5.95,1.32,1.32,1.32
263.19,6.54,5.23,6.53,5.22,-5.22,-5.23,-5.91,1.32,1.31,1.32
265.82,6.55,5.25,6.53,5.23,-5.23,-5.21,-5.85,1.33,1.31,1.31
268.48,6.54,5.24,6.53,5.23,-5.23,-5.19,-5.79,1.32,1.30,1.30
271.16,6.53,5.23,6.52,5.22,-5.22,-5.17,-5.73,1.31,1.29,1.30
273.87,6.52,5.23,6.51,5.21,-5.21,-5.14,-5.66,1.31,1.29,1.29
276.61,6.50,5.21,6.49,5.20,-5.20,-5.12,-5.58,1.30,1.29,1.29
279.38,6.48,5.21,6.47,5.19,-5.19,-5.10,-5.50,1.30,1.28,1.27
282.17,6.45,5.19,6.44,5.16,-5.16,-5.07,-5.42,1.29,1.28,1.27
284.99,6.42,5.14,6.42,5.14,-5.14,-5.04,-5.33,1.29,1.28,1.28
287.84,6.37,5.09,6.39,5.11,-5.11,-5.02,-5.24,1.26,1.28,1.28
290.72,6.34,5.07,6.36,5.08,-5.08,-4.99,-5.15,1.26,1.28,1.27
293.63,6.31,5.03,6.33,5.05,-5.05,-4.96,-5.06,1.26,1.28,1.28
296.57,6.28,5.00,6.30,5.02,-5.02,-4.93,-4.97,1.26,1.28,1.28
299.53,6.26,4.98,6.28,4.99,-4.99,-4.90,-4.88,1.27,1.29,1.29
302.53,6.24,4.95,6.25,4.96,-4.96,-4.87,-4.78,1.28,1.29,1.30
305.55,6.22,4.93,6.23,4.93,-4.93,-4.84,-4.69,1.29,1.29,1.29
308.61,6.19,4.89,6.21,4.91,-4.91,-4.80,-4.60,1.29,1.30,1.30
311.69,6.17,4.87,6.18,4.88,-4.88,-4.77,-4.51,1.30,1.31,1.31
314.81,6.16,4.86,6.16,4.85,-4.85,-4.73,-4.42,1.32,1.31,1.31
317.96,6.14,4.83,6.14,4.82,-4.82,-4.70,-4.33,1.32,1.32,1.31
321.14,6.12,4.80,6.11,4.79,-4.79,-4.66,-4.24,1.33,1.32,1.33
324.35,6.09,4.77,6.09,4.76,-4.76,-4.62,-4.16,1.34,1.33,1.32
327.59,6.07,4.73,6.06,4.73,-4.73,-4.59,-4.08,1.35,1.33,1.34
330.87,6.04,4.71,6.03,4.69,-4.69,-4.55,-4.00,1.36,1.34,1.34
334.18,6.00,4.66,5.99,4.65,-4.65,-4.51,-3.92,1.36,1.35,1.34
337.52,5.96,4.62,5.96,4.61,-4.61,-4.47,-3.85,1.36,1.35,1.35
340.90,5.91,4.55,5.92,4.56,-4.56,-4.42,-3.78,1.35,1.36,1.36
344.30,5.87,4.51,5.89,4.52,-4.52,-4.38,-3.71,1.35,1.37,1.37
347.75,5.83,4.46,5.84,4.47,-4.47,-4.34,-3.64,1.36,1.37,1.37
351.23,5.79,4.42,5.80,4.42,-4.42,-4.29,-3.58,1.37,1.38,1.37
354.74,5.75,4.36,5.75,4.37,-4.37,-4.25,-3.52,1.39,1.39,1.40
358.28,5.70,4.31,5.70,4.31,-4.31,-4.20,-3.46,1.39,1.39,1.39
361.87,5.65,4.26,5.66,4.26,-4.26,-4.16,-3.41,1.40,1.40,1.40
365.49,5.61,4.21,5.61,4.20,-4.20,-4.11,-3.35,1.41,1.41,1.40
369.14,5.57,4.15,5.56,4.14,-4.14,-4.06,-3.31,1.43,1.41,1.42
372.83,5.52,4.10,5.51,4.08,-4.08,-4.01,-3.26,1.44,1.42,1.43
376.56,5.45,4.03,5.45,4.02,-4.02,-3.96,-3.21,1.43,1.43,1.42
380.33,5.39,3.96,5.40,3.96,-3.96,-3.91,-3.17,1.43,1.44,1.43
384.13,5.33,3.89,5.35,3.90,-3.90,-3.86,-3.13,1.43,1.45,1.45
387.97,5.27,3.82,5.30,3.84,-3.84,-3.81,-3.09,1.43,1.45,1.45
391.85,5.23,3.77,5.24,3.78,-3.78,-3.76,-3.06,1.45,1.46,1.46
395.77,5.19,3.73,5.19,3.72,-3.72,-3.70,-3.03,1.47,1.47,1.47
399.73,5.14,3.67,5.14,3.66,-3.66,-3.65,-2.99,1.49,1.48,1.48
403.72,5.09,3.59,5.09,3.60,-3.60,-3.60,-2.96,1.50,1.49,1.50
407.76,5.03,3.53,5.04,3.54,-3.54,-3.54,-2.94,1.50,1.50,1.50
411.84,4.97,3.47,4.99,3.48,-3.48,-3.48,-2.91,1.50,1.51,1.51
415.96,4.93,3.41,4.94,3.42,-3.42,-3.43,-2.88,1.51,1.52,1.53
420.12,4.89,3.37,4.89,3.36,-3.36,-3.37,-2.86,1.53,1.53,1.52
424.32,4.84,3.31,4.84,3.30,-3.30,-3.31,-2.84,1.54,1.53,1.53
428.56,4.79,3.24,4.79,3.24,-3.24,-3.25,-2.81,1.55,1.54,1.55
432.85,4.73,3.18,4.73,3.18,-3.18,-3.19,-2.79,1.55,1.55,1.56
437.18,4.67,3.12,4.68,3.12,-3.12,-3.13,-2.77,1.56,1.56,1.56
441.55,4.62,3.06,4.62,3.05,-3.05,-3.07,-2.75,1.57,1.57,1.56
445.96,4.57,3.00,4.57,2.99,-2.99,-3.01,-2.72,1.58,1.58,1.57
450.42,4.52,2.94,4.51,2.93,-2.93,-2.95,-2.70,1.60,1.58,1.58
454.93,4.45,2.87,4.45,2.86,-2.86,-2.88,-2.68,1.59,1.59,1.59
459.48,4.38,2.79,4.39,2.79,-2.79,-2.82,-2.65,1.59,1.60,1.60
464.07,4.32,2.71,4.33,2.72,-2.72,-2.75,-2.62,1.60,1.61,1.62
468.71,4.27,2.65,4.27,2.65,-2.65,-2.69,-2.60,1.62,1.62,1.62
473.40,4.21,2.58,4.21,2.58,-2.58,-2.62,-2.57,1.63,1.63,1.63
478.13,4.14,2.50,4.15,2.51,-2.51,-2.55,-2.53,1.63,1.64,1.64
482.91,4.08,2.43,4.09,2.44,-2.44,-2.49,-2.50,1.64,1.65,1.65
487.74,4.03,2.38,4.03,2.37,-2.37,-2.42,-2.47,1.67,1.66,1.66
492.62,3.97,2.31,3.97,2.30,-2.30,-2.35,-2.43,1.68,1.67,1.67
497.55,3.90,2.23,3.91,2.23,-2.23,-2.28,-2.39,1.68,1.68,1.68
502.52,3.84,2.16,3.85,2.15,-2.15,-2.21,-2.34,1.69,1.69,1.69
507.55,3.78,2.08,3.79,2.08,-2.08,-2.14,-2.30,1.70,1.70,1.70
512.62,3.72,2.01,3.72,2.01,-2.01,-2.06,-2.25,1.72,1.72,1.71
517.75,3.66,1.93,3.66,1.93,-1.93,-1.99,-2.20,1.73,1.73,1.73
522.93,3.59,1.85,3.60,1.86,-1.86,-1.92,-2.15,1.73,1.74,1.74
528.16,3.53,1.78,3.54,1.79,-1.79,-1.84,-2.09,1.75,1.75,1.75
