frequency,raw,error,smoothed,error_smoothed,equalization,parametric_eq,fixed_band_eq,equalized_raw,equalized_smoothed,target
20.00,0.31,-1.42,0.34,-1.42,1.42,2.26,-0.06,1.73,1.76,1.73
20.20,0.37,-1.41,0.39,-1.41,1.41,2.24,-0.06,1.78,1.80,1.78
20.40,0.44,-1.40,0.44,-1.40,1.40,2.22,-0.06,1.83,1.83,1.83
20.61,0.49,-1.37,0.49,-1.38,1.38,2.19,-0.05,1.87,1.87,1.86
20.81,0.55,-1.36,0.53,-1.36,1.36,2.15,-0.05,1.92,1.90,1.91
21.02,0.60,-1.35,0.58,-1.34,1.34,2.10,-0.05,1.95,1.93,1.95
21.23,0.65,-1.32,0.63,-1.32,1.32,2.05,-0.05,1.98,1.95,1.97
21.44,0.69,-1.30,0.68,-1.30,1.30,2.00,-0.05,1.99,1.97,1.99
21.66,0.73,-1.28,0.73,-1.27,1.27,1.94,-0.04,2.00,1.99,2.01
21.87,0.79,-1.24,0.78,-1.24,1.24,1.87,-0.04,2.02,2.01,2.02
22.09,0.82,-1.22,0.83,-1.20,1.20,1.81,-0.04,2.03,2.03,2.04
22.31,0.87,-1.19,0.87,-1.17,1.17,1.74,-0.04,2.03,2.04,2.05
22.54,0.91,-1.14,0.92,-1.13,1.13,1.68,-0.04,2.04,2.05,2.05
22.76,0.95,-1.10,0.97,-1.08,1.08,1.61,-0.03,2.04,2.05,2.05
22.99,1.00,-1.04,1.02,-1.03,1.03,1.54,-0.03,2.04,2.05,2.04
23.22,1.05,-0.99,1.07,-0.98,0.98,1.47,-0.03,2.04,2.05,2.04
23.45,1.11,-0.93,1.12,-0.93,0.93,1.41,-0.02,2.05,2.05,2.04
23.69,1.17,-0.88,1.17,-0.88,0.88,1.34,-0.02,2.06,2.06,2.05
23.92,1.23,-0.83,1.22,-0.83,0.83,1.28,-0.02,2.06,2.05,2.05
24.16,1.28,-0.77,1.27,-0.78,0.78,1.22,-0.02,2.07,2.05,2.05
24.40,1.34,-0.73,1.32,-0.73,0.73,1.16,-0.01,2.07,2.05,2.06
24.65,1.38,-0.67,1.38,-0.67,0.67,1.10,-0.01,2.06,2.05,2.05
24.89,1.45,-0.61,1.43,-0.62,0.62,1.04,-0.01,2.07,2.05,2.05
25.14,1.49,-0.57,1.49,-0.57,0.57,0.98,-0.00,2.05,2.05,2.05
25.39,1.53,-0.54,1.53,-0.52,0.52,0.93,-0.00,2.05,2.06,2.06
25.65,1.55,-0.51,1.58,-0.48,0.48,0.88,0.00,2.04,2.06,2.06
25.91,1.59,-0.46,1.61,-0.44,0.44,0.83,0.01,2.04,2.06,2.05
26.16,1.65,-0.41,1.65,-0.41,0.41,0.78,0.01,2.05,2.05,2.05
26.43,1.70,-0.35,1.68,-0.37,0.37,0.74,0.01,2.07,2.05,2.05
26.69,1.76,-0.29,1.72,-0.33,0.33,0.69,0.01,2.09,2.05,2.05
26.96,1.82,-0.23,1.76,-0.29,0.29,0.65,0.01,2.11,2.05,2.05
27.23,1.82,-0.23,1.79,-0.25,0.25,0.61,0.01,2.08,2.05,2.05
27.50,1.81,-0.24,1.83,-0.22,0.22,0.57,0.02,2.03,2.05,2.05
27.77,1.81,-0.23,1.86,-0.19,0.19,0.53,0.02,2.00,2.04,2.04
28.05,1.81,-0.23,1.89,-0.15,0.15,0.49,0.02,1.96,2.04,2.04
28.33,1.88,-0.15,1.93,-0.11,0.11,0.45,0.02,2.00,2.04,2.03
28.62,1.95,-0.08,1.97,-0.07,0.07,0.42,0.01,2.03,2.04,2.03
28.90,2.03,-0.01,2.00,-0.04,0.04,0.38,0.01,2.07,2.04,2.04
29.19,2.07,0.04,2.04,0.00,-0.00,0.35,0.01,2.07,2.04,2.03
29.48,2.09,0.05,2.08,0.04,-0.04,0.32,0.01,2.05,2.04,2.04
29.78,2.11,0.08,2.12,0.09,-0.09,0.29,0.00,2.03,2.03,2.03
30.08,2.14,0.10,2.16,0.13,-0.13,0.25,-0.00,2.01,2.03,2.04
30.38,2.20,0.17,2.21,0.18,-0.18,0.22,-0.01,2.03,2.03,2.03
30.68,2.25,0.22,2.25,0.23,-0.23,0.19,-0.02,2.03,2.03,2.03
30.99,2.31,0.28,2.30,0.27,-0.27,0.17,-0.02,2.05,2.03,2.03
31.30,2.34,0.32,2.33,0.31,-0.31,0.14,-0.03,2.04,2.03,2.02
31.61,2.38,0.36,2.37,0.35,-0.35,0.11,-0.04,2.04,2.02,2.02
31.93,2.41,0.39,2.41,0.39,-0.39,0.08,-0.05,2.03,2.02,2.02
32.24,2.45,0.43,2.45,0.43,-0.43,0.06,-0.07,2.02,2.02,2.01
32.57,2.48,0.47,2.49,0.47,-0.47,0.03,-0.08,2.01,2.01,2.01
32.89,2.51,0.50,2.53,0.52,-0.52,0.00,-0.09,1.99,2.01,2.01
33.22,2.54,0.54,2.57,0.56,-0.56,-0.02,-0.11,1.98,2.00,2.00
33.55,2.58,0.58,2.60,0.61,-0.61,-0.05,-0.13,1.98,2.00,2.00
33.89,2.61,0.62,2.64,0.65,-0.65,-0.07,-0.14,1.97,1.99,1.99
34.23,2.66,0.67,2.68,0.69,-0.69,-0.10,-0.16,1.98,1.99,1.99
34.57,2.72,0.74,2.71,0.73,-0.73,-0.13,-0.18,2.00,1.98,1.98
34.92,2.78,0.80,2.74,0.76,-0.76,-0.15,-0.20,2.02,1.98,1.98
35.27,2.80,0.83,2.77,0.80,-0.80,-0.18,-0.22,2.01,1.98,1.97
35.62,2.81,0.84,2.80,0.83,-0.83,-0.20,-0.25,1.99,1.97,1.97
35.97,2.83,0.86,2.83,0.86,-0.86,-0.23,-0.27,1.98,1.97,1.97
36.33,2.86,0.89,2.86,0.89,-0.89,-0.25,-0.29,1.97,1.97,1.97
36.70,2.89,0.93,2.89,0.92,-0.92,-0.28,-0.32,1.97,1.97,1.96
37.06,2.92,0.96,2.92,0.95,-0.95,-0.30,-0.34,1.98,1.97,1.96
37.43,2.92,0.95,2.94,0.97,-0.97,-0.33,-0.37,1.95,1.97,1.97
37.81,2.92,0.95,2.96,0.99,-0.99,-0.36,-0.40,1.93,1.97,1.97
38.19,2.94,0.98,2.98,1.01,-1.01,-0.38,-0.43,1.93,1.97,1.96
38.57,2.99,1.02,3.01,1.04,-1.04,-0.41,-0.45,1.96,1.97,1.97
38.95,3.03,1.05,3.03,1.06,-1.06,-0.44,-0.48,1.97,1.97,1.98
39.34,3.07,1.10,3.06,1.09,-1.09,-0.47,-0.51,1.99,1.97,1.97
39.74,3.10,1.13,3.08,1.11,-1.11,-0.49,-0.55,1.99,1.97,1.97
40.14,3.12,1.15,3.11,1.14,-1.14,-0.52,-0.58,1.99,1.97,1.97
40.54,3.12,1.15,3.13,1.16,-1.16,-0.55,-0.61,1.96,1.97,1.97
40.94,3.12,1.16,3.15,1.18,-1.18,-0.58,-0.64,1.94,1.97,1.96
41.35,3.16,1.20,3.16,1.20,-1.20,-0.61,-0.68,1.96,1.96,1.96
41.76,3.20,1.25,3.18,1.23,-1.23,-0.64,-0.71,1.98,1.95,1.95
42.18,3.22,1.27,3.20,1.25,-1.25,-0.68,-0.75,1.97,1.94,1.95
42.60,3.22,1.28,3.21,1.27,-1.27,-0.71,-0.78,1.95,1.93,1.94
43.03,3.22,1.29,3.21,1.29,-1.29,-0.74,-0.82,1.93,1.92,1.93
43.46,3.22,1.30,3.22,1.31,-1.31,-0.77,-0.86,1.91,1.91,1.92
43.90,3.22,1.32,3.24,1.34,-1.34,-0.81,-0.89,1.89,1.90,1.90
44.33,3.22,1.34,3.25,1.36,-1.36,-0.84,-0.93,1.86,1.89,1.88
44.78,3.22,1.36,3.27,1.39,-1.39,-0.88,-0.97,1.83,1.87,1.86
45.23,3.24,1.39,3.28,1.42,-1.42,-0.92,-1.01,1.82,1.86,1.85
45.68,3.29,1.45,3.30,1.45,-1.45,-0.96,-1.05,1.84,1.85,1.84
46.13,3.32,1.50,3.31,1.48,-1.48,-1.00,-1.10,1.84,1.83,1.82
46.60,3.32,1.50,3.33,1.51,-1.51,-1.04,-1.14,1.81,1.82,1.82
47.06,3.33,1.53,3.35,1.54,-1.54,-1.08,-1.18,1.79,1.80,1.80
47.53,3.37,1.58,3.36,1.58,-1.58,-1.12,-1.23,1.80,1.79,1.79
48.01,3.42,1.63,3.38,1.61,-1.61,-1.16,-1.27,1.82,1.77,1.79
48.49,3.42,1.65,3.40,1.64,-1.64,-1.20,-1.31,1.79,1.76,1.77
48.97,3.42,1.67,3.41,1.66,-1.66,-1.25,-1.36,1.76,1.75,1.75
49.46,3.42,1.69,3.42,1.68,-1.68,-1.29,-1.40,1.74,1.73,1.73
49.96,3.42,1.71,3.43,1.71,-1.71,-1.34,-1.45,1.72,1.72,1.71
50.46,3.42,1.72,3.43,1.72,-1.72,-1.39,-1.50,1.70,1.71,1.70
50.96,3.42,1.73,3.43,1.74,-1.74,-1.43,-1.54,1.69,1.69,1.69
51.47,3.42,1.75,3.43,1.75,-1.75,-1.48,-1.59,1.67,1.68,1.67
51.99,3.42,1.76,3.43,1.76,-1.76,-1.53,-1.63,1.66,1.67,1.66
52.51,3.42,1.77,3.43,1.78,-1.78,-1.58,-1.68,1.65,1.66,1.65
53.03,3.42,1.77,3.43,1.79,-1.79,-1.63,-1.72,1.63,1.64,1.65
53.56,3.42,1.79,3.43,1.80,-1.80,-1.68,-1.77,1.62,1.63,1.63
54.10,3.42,1.80,3.43,1.81,-1.81,-1.73,-1.81,1.61,1.62,1.62
54.64,3.42,1.82,3.43,1.82,-1.82,-1.78,-1.86,1.61,1.61,1.60
55.18,3.42,1.82,3.42,1.82,-1.82,-1.83,-1.90,1.60,1.60,1.60
55.74,3.42,1.84,3.42,1.83,-1.83,-1.88,-1.94,1.60,1.59,1.58
56.29,3.42,1.85,3.41,1.83,-1.83,-1.93,-1.98,1.59,1.58,1.57
56.86,3.42,1.86,3.40,1.84,-1.84,-1.97,-2.02,1.58,1.56,1.56
57.42,3.42,1.89,3.39,1.85,-1.85,-2.02,-2.05,1.58,1.54,1.53
58.00,3.41,1.89,3.38,1.86,-1.86,-2.06,-2.09,1.56,1.52,1.52
58.58,3.36,1.85,3.37,1.87,-1.87,-2.11,-2.12,1.49,1.50,1.51
59.16,3.32,1.83,3.37,1.89,-1.89,-2.15,-2.15,1.43,1.48,1.49
59.76,3.32,1.85,3.36,1.91,-1.91,-2.19,-2.18,1.41,1.45,1.47
60.35,3.32,1.89,3.35,1.93,-1.93,-2.22,-2.20,1.39,1.42,1.43
60.96,3.32,1.93,3.34,1.95,-1.95,-2.25,-2.22,1.37,1.39,1.39
61.57,3.32,1.97,3.33,1.98,-1.98,-2.28,-2.24,1.34,1.35,1.35
62.18,3.32,2.01,3.32,2.01,-2.01,-2.31,-2.26,1.32,1.31,1.31
62.80,3.32,2.06,3.31,2.04,-2.04,-2.33,-2.27,1.28,1.27,1.26
63.43,3.32,2.10,3.31,2.08,-2.08,-2.35,-2.28,1.25,1.23,1.22
64.07,3.32,2.15,3.30,2.12,-2.12,-2.37,-2.29,1.21,1.18,1.17
64.71,3.31,2.18,3.29,2.15,-2.15,-2.38,-2.30,1.16,1.14,1.13
65.35,3.28,2.19,3.28,2.19,-2.19,-2.39,-2.30,1.09,1.09,1.09
66.01,3.22,2.18,3.27,2.22,-2.22,-2.39,-2.30,1.00,1.04,1.04
66.67,3.22,2.23,3.25,2.26,-2.26,-2.39,-2.30,0.97,1.00,0.99
67.33,3.22,2.28,3.23,2.28,-2.28,-2.39,-2.30,0.94,0.95,0.94
68.01,3.22,2.32,3.21,2.31,-2.31,-2.38,-2.30,0.91,0.90,0.90
68.69,3.22,2.37,3.18,2.33,-2.33,-2.37,-2.29,0.89,0.85,0.85
69.37,3.19,2.39,3.16,2.36,-2.36,-2.36,-2.28,0.83,0.80,0.80
70.07,3.13,2.38,3.13,2.38,-2.38,-2.34,-2.27,0.75,0.75,0.75
70.77,3.05,2.35,3.10,2.40,-2.40,-2.32,-2.26,0.65,0.69,0.70
71.48,3.02,2.37,3.06,2.43,-2.43,-2.30,-2.25,0.60,0.64,0.65
72.19,3.02,2.44,3.03,2.45,-2.45,-2.28,-2.24,0.58,0.58,0.58
72.91,3.02,2.50,3.00,2.47,-2.47,-2.25,-2.23,0.55,0.53,0.52
73.64,2.96,2.49,2.96,2.49,-2.49,-2.23,-2.21,0.47,0.47,0.47
74.38,2.89,2.48,2.91,2.50,-2.50,-2.20,-2.20,0.39,0.41,0.41
75.12,2.84,2.49,2.86,2.51,-2.51,-2.17,-2.19,0.34,0.36,0.35
75.87,2.82,2.53,2.81,2.51,-2.51,-2.14,-2.18,0.32,0.30,0.29
76.63,2.77,2.53,2.75,2.51,-2.51,-2.12,-2.16,0.27,0.25,0.24
77.40,2.71,2.52,2.70,2.51,-2.51,-2.09,-2.15,0.21,0.19,0.19
78.17,2.66,2.53,2.65,2.51,-2.51,-2.06,-2.14,0.16,0.14,0.13
78.95,2.59,2.50,2.59,2.50,-2.50,-2.03,-2.13,0.09,0.09,0.09
79.74,2.54,2.50,2.53,2.49,-2.49,-2.00,-2.12,0.06,0.04,0.04
80.54,2.45,2.46,2.46,2.46,-2.46,-1.97,-2.12,-0.01,-0.01,-0.01
81.35,2.35,2.41,2.38,2.44,-2.44,-1.95,-2.11,-0.09,-0.06,-0.06
82.16,2.25,2.36,2.31,2.42,-2.42,-1.92,-2.11,-0.16,-0.10,-0.11
82.98,2.22,2.37,2.24,2.39,-2.39,-1.89,-2.10,-0.17,-0.15,-0.15
83.81,2.16,2.36,2.17,2.37,-2.37,-1.87,-2.10,-0.20,-0.20,-0.20
84.65,2.10,2.35,2.09,2.34,-2.34,-1.85,-2.10,-0.23,-0.25,-0.25
85.50,2.05,2.34,2.01,2.31,-2.31,-1.83,-2.10,-0.25,-0.30,-0.29
86.35,1.97,2.31,1.93,2.28,-2.28,-1.81,-2.10,-0.30,-0.35,-0.34
87.22,1.84,2.22,1.85,2.25,-2.25,-1.79,-2.11,-0.41,-0.40,-0.39
88.09,1.69,2.13,1.77,2.21,-2.21,-1.77,-2.11,-0.52,-0.45,-0.44
88.97,1.62,2.12,1.68,2.18,-2.18,-1.75,-2.12,-0.55,-0.50,-0.50
89.86,1.60,2.15,1.59,2.13,-2.13,-1.74,-2.13,-0.53,-0.55,-0.55
90.76,1.49,2.09,1.49,2.08,-2.08,-1.73,-2.14,-0.59,-0.60,-0.60
91.66,1.39,2.04,1.37,2.02,-2.02,-1.72,-2.15,-0.63,-0.65,-0.65
92.58,1.26,1.97,1.25,1.95,-1.95,-1.71,-2.17,-0.68,-0.70,-0.71
93.51,1.12,1.88,1.11,1.86,-1.86,-1.70,-2.18,-0.74,-0.75,-0.76
94.44,1.00,1.80,0.97,1.77,-1.77,-1.69,-2.20,-0.76,-0.80,-0.80
95.39,0.88,1.73,0.82,1.67,-1.67,-1.69,-2.22,-0.78,-0.85,-0.85
96.34,0.71,1.61,0.66,1.56,-1.56,-1.68,-2.24,-0.84,-0.90,-0.90
97.30,0.53,1.48,0.50,1.44,-1.44,-1.68,-2.26,-0.91,-0.95,-0.95
98.28,0.36,1.35,0.32,1.32,-1.32,-1.68,-2.28,-0.96,-0.99,-1.00
99.26,0.12,1.16,0.14,1.18,-1.18,-1.68,-2.31,-1.06,-1.04,-1.04
100.25,-0.08,1.01,-0.04,1.05,-1.05,-1.69,-2.33,-1.12,-1.09,-1.09
101.25,-0.25,0.89,-0.23,0.91,-0.91,-1.69,-2.36,-1.15,-1.14,-1.14
102.27,-0.42,0.77,-0.42,0.77,-0.77,-1.70,-2.38,-1.18,-1.19,-1.19
103.29,-0.59,0.65,-0.60,0.64,-0.64,-1.71,-2.41,-1.22,-1.24,-1.24
104.32,-0.75,0.53,-0.76,0.52,-0.52,-1.72,-2.44,-1.27,-1.29,-1.28
105.37,-0.87,0.45,-0.92,0.42,-0.42,-1.73,-2.47,-1.30,-1.34,-1.33
106.42,-1.03,0.35,-1.05,0.34,-0.34,-1.74,-2.50,-1.36,-1.39,-1.38
107.48,-1.17,0.27,-1.16,0.28,-0.28,-1.76,-2.53,-1.45,-1.44,-1.44
108.56,-1.29,0.20,-1.25,0.25,-0.25,-1.77,-2.56,-1.53,-1.49,-1.49
109.64,-1.34,0.20,-1.29,0.25,-0.25,-1.79,-2.59,-1.59,-1.54,-1.54
110.74,-1.41,0.19,-1.31,0.29,-0.29,-1.81,-2.61,-1.69,-1.60,-1.60
111.85,-1.46,0.18,-1.30,0.35,-0.35,-1.83,-2.64,-1.80,-1.65,-1.64
112.97,-1.33,0.37,-1.26,0.44,-0.44,-1.86,-2.67,-1.76,-1.70,-1.70
114.10,-1.19,0.56,-1.19,0.55,-0.55,-1.88,-2.69,-1.74,-1.75,-1.75
115.24,-1.12,0.68,-1.10,0.69,-0.69,-1.91,-2.72,-1.81,-1.79,-1.80
116.39,-1.00,0.85,-0.97,0.87,-0.87,-1.94,-2.74,-1.86,-1.84,-1.85
117.55,-0.84,1.04,-0.81,1.07,-1.07,-1.97,-2.76,-1.92,-1.88,-1.89
118.73,-0.64,1.29,-0.62,1.30,-1.30,-2.00,-2.78,-1.94,-1.92,-1.93
119.92,-0.36,1.60,-0.41,1.54,-1.54,-2.03,-2.80,-1.90,-1.96,-1.96
121.12,-0.10,1.90,-0.18,1.81,-1.81,-2.07,-2.82,-1.91,-1.99,-2.00
122.33,0.02,2.05,0.06,2.08,-2.08,-2.11,-2.83,-2.06,-2.03,-2.03
123.55,0.22,2.28,0.30,2.36,-2.36,-2.15,-2.84,-2.14,-2.06,-2.06
124.79,0.46,2.55,0.55,2.64,-2.64,-2.19,-2.85,-2.17,-2.09,-2.09
126.03,0.68,2.79,0.78,2.90,-2.90,-2.23,-2.86,-2.23,-2.12,-2.12
127.29,1.04,3.17,1.01,3.16,-3.16,-2.28,-2.86,-2.13,-2.15,-2.14
128.57,1.32,3.50,1.24,3.42,-3.42,-2.33,-2.87,-2.10,-2.18,-2.18
129.85,1.52,3.73,1.44,3.65,-3.65,-2.38,-2.87,-2.13,-2.21,-2.21
131.15,1.64,3.88,1.62,3.86,-3.86,-2.43,-2.87,-2.21,-2.24,-2.24
132.46,1.82,4.09,1.77,4.03,-4.03,-2.48,-2.86,-2.21,-2.27,-2.27
133.79,2.01,4.31,1.89,4.18,-4.18,-2.54,-2.86,-2.17,-2.29,-2.30
135.12,2.02,4.35,1.98,4.31,-4.31,-2.60,-2.85,-2.28,-2.32,-2.33
136.48,2.09,4.44,2.06,4.40,-4.40,-2.66,-2.85,-2.31,-2.35,-2.35
137.84,2.14,4.53,2.09,4.46,-4.46,-2.72,-2.84,-2.32,-2.38,-2.39
139.22,2.12,4.54,2.08,4.49,-4.49,-2.78,-2.83,-2.37,-2.41,-2.42
140.61,2.05,4.50,2.05,4.49,-4.49,-2.85,-2.82,-2.43,-2.44,-2.45
142.02,2.01,4.48,1.98,4.45,-4.45,-2.92,-2.81,-2.44,-2.47,-2.47
143.44,1.84,4.34,1.89,4.39,-4.39,-2.99,-2.79,-2.55,-2.50,-2.50
144.87,1.72,4.26,1.78,4.33,-4.33,-3.06,-2.78,-2.60,-2.54,-2.54
146.32,1.65,4.23,1.66,4.24,-4.24,-3.13,-2.77,-2.59,-2.59,-2.58
147.78,1.53,4.14,1.51,4.14,-4.14,-3.20,-2.76,-2.61,-2.63,-2.61
149.26,1.38,4.04,1.35,4.04,-4.04,-3.28,-2.75,-2.65,-2.69,-2.66
150.75,1.18,3.90,1.17,3.92,-3.92,-3.36,-2.74,-2.74,-2.75,-2.72
152.26,0.98,3.77,0.98,3.79,-3.79,-3.44,-2.73,-2.80,-2.81,-2.79
153.78,0.84,3.70,0.77,3.64,-3.64,-3.52,-2.72,-2.80,-2.87,-2.86
155.32,0.63,3.56,0.55,3.50,-3.50,-3.60,-2.72,-2.86,-2.94,-2.93
156.88,0.42,3.42,0.35,3.36,-3.36,-3.68,-2.71,-2.94,-3.01,-3.01
158.44,0.22,3.31,0.16,3.25,-3.25,-3.76,-2.71,-3.02,-3.08,-3.09
160.03,0.10,3.27,0.01,3.16,-3.16,-3.84,-2.71,-3.06,-3.15,-3.17
161.63,-0.11,3.13,-0.12,3.10,-3.10,-3.91,-2.71,-3.21,-3.22,-3.24
163.24,-0.27,3.03,-0.20,3.08,-3.08,-3.99,-2.71,-3.34,-3.28,-3.30
164.88,-0.43,2.92,-0.24,3.10,-3.10,-4.07,-2.71,-3.52,-3.33,-3.35
166.53,-0.61,2.79,-0.23,3.15,-3.15,-4.15,-2.72,-3.76,-3.38,-3.40
168.19,-0.59,2.85,-0.19,3.24,-3.24,-4.22,-2.72,-3.82,-3.42,-3.44
169.87,-0.43,3.04,-0.11,3.35,-3.35,-4.29,-2.73,-3.78,-3.45,-3.48
171.57,-0.17,3.33,-0.00,3.48,-3.48,-4.36,-2.74,-3.65,-3.48,-3.50
173.29,0.15,3.66,0.13,3.63,-3.63,-4.42,-2.76,-3.48,-3.50,-3.51
175.02,0.44,3.96,0.28,3.79,-3.79,-4.48,-2.77,-3.35,-3.51,-3.52
176.77,0.64,4.17,0.43,3.96,-3.96,-4.53,-2.79,-3.31,-3.52,-3.53
178.54,0.84,4.38,0.60,4.13,-4.13,-4.58,-2.81,-3.28,-3.53,-3.54
180.32,1.00,4.53,0.75,4.29,-4.29,-4.62,-2.83,-3.29,-3.54,-3.53
182.13,1.08,4.60,0.89,4.44,-4.44,-4.66,-2.86,-3.35,-3.54,-3.52
183.95,1.11,4.64,1.01,4.56,-4.56,-4.69,-2.88,-3.45,-3.55,-3.53
185.79,1.12,4.65,1.10,4.66,-4.66,-4.72,-2.91,-3.53,-3.55,-3.53
187.65,1.14,4.69,1.16,4.72,-4.72,-4.73,-2.94,-3.57,-3.56,-3.55
189.52,1.15,4.71,1.18,4.75,-4.75,-4.74,-2.97,-3.59,-3.57,-3.56
191.42,1.10,4.68,1.17,4.76,-4.76,-4.75,-3.01,-3.65,-3.58,-3.58
193.33,1.07,4.67,1.14,4.74,-4.74,-4.74,-3.04,-3.67,-3.60,-3.60
195.27,1.09,4.71,1.10,4.72,-4.72,-4.73,-3.08,-3.63,-3.62,-3.62
197.22,1.09,4.73,1.06,4.70,-4.70,-4.71,-3.12,-3.61,-3.63,-3.64
199.19,0.97,4.63,1.02,4.68,-4.68,-4.68,-3.16,-3.70,-3.65,-3.66
201.18,0.91,4.59,0.97,4.65,-4.65,-4.65,-3.20,-3.73,-3.67,-3.68
203.19,0.92,4.62,0.93,4.63,-4.63,-4.61,-3.24,-3.70,-3.70,-3.70
205.23,0.91,4.63,0.89,4.60,-4.60,-4.56,-3.29,-3.69,-3.72,-3.72
207.28,0.85,4.58,0.84,4.57,-4.57,-4.51,-3.33,-3.72,-3.74,-3.73
209.35,0.78,4.53,0.79,4.54,-4.54,-4.46,-3.37,-3.76,-3.76,-3.75
211.44,0.71,4.49,0.73,4.51,-4.51,-4.39,-3.42,-3.79,-3.77,-3.78
213.56,0.61,4.40,0.68,4.47,-4.47,-4.33,-3.46,-3.85,-3.79,-3.79
215.69,0.59,4.39,0.61,4.41,-4.41,-4.26,-3.50,-3.82,-3.80,-3.80
217.85,0.65,4.46,0.54,4.35,-4.35,-4.19,-3.54,-3.70,-3.81,-3.81
220.03,0.49,4.31,0.47,4.30,-4.30,-4.11,-3.58,-3.80,-3.82,-3.82
222.23,0.40,4.25,0.42,4.25,-4.25,-4.03,-3.62,-3.84,-3.83,-3.85
224.45,0.40,4.24,0.36,4.19,-4.19,-3.95,-3.66,-3.79,-3.83,-3.84
226.70,0.31,4.15,0.30,4.13,-4.13,-3.87,-3.69,-3.81,-3.83,-3.84
228.96,0.18,4.01,0.24,4.06,-4.06,-3.79,-3.72,-3.88,-3.83,-3.83
231.25,0.15,3.97,0.18,4.00,-4.00,-3.71,-3.75,-3.84,-3.82,-3.82
233.57,0.08,3.89,0.13,3.94,-3.94,-3.62,-3.77,-3.85,-3.81,-3.81
235.90,-0.04,3.76,0.09,3.88,-3.88,-3.54,-3.79,-3.92,-3.79,-3.80
238.26,-0.05,3.74,0.05,3.82,-3.82,-3.46,-3.80,-3.87,-3.77,-3.79
240.64,0.05,3.81,-0.02,3.74,-3.74,-3.37,-3.81,-3.68,-3.76,-3.76
243.05,0.04,3.77,-0.08,3.66,-3.66,-3.29,-3.82,-3.62,-3.73,-3.73
245.48,-0.04,3.67,-0.11,3.60,-3.60,-3.21,-3.82,-3.64,-3.71,-3.71
247.93,-0.20,3.48,-0.15,3.53,-3.53,-3.13,-3.81,-3.73,-3.69,-3.68
250.41,-0.24,3.42,-0.21,3.46,-3.46,-3.05,-3.80,-3.69,-3.66,-3.66
252.92,-0.23,3.40,-0.26,3.38,-3.38,-2.98,-3.79,-3.61,-3.64,-3.63
255.45,-0.27,3.34,-0.31,3.31,-3.31,-2.90,-3.77,-3.57,-3.62,-3.61
258.00,-0.26,3.33,-0.37,3.22,-3.22,-2.83,-3.74,-3.48,-3.59,-3.59
260.58,-0.46,3.11,-0.43,3.13,-3.13,-2.76,-3.71,-3.59,-3.57,-3.57
263.19,-0.61,2.93,-0.50,3.05,-3.05,-2.69,-3.68,-3.65,-3.54,-3.54
265.82,-0.69,2.83,-0.56,2.96,-2.96,-2.62,-3.63,-3.64,-3.52,-3.52
268.48,-0.48,3.02,-0.63,2.86,-2.86,-2.55,-3.59,-3.34,-3.49,-3.50
271.16,-0.58,2.89,-0.68,2.79,-2.79,-2.49,-3.54,-3.36,-3.47,-3.47
273.87,-0.88,2.57,-0.72,2.72,-2.72,-2.42,-3.49,-3.60,-3.44,-3.45
276.61,-0.88,2.54,-0.78,2.64,-2.64,-2.36,-3.43,-3.51,-3.42,-3.42
279.38,-0.86,2.53,-0.85,2.54,-2.54,-2.30,-3.37,-3.40,-3.39,-3.39
282.17,-0.90,2.47,-0.91,2.45,-2.45,-2.25,-3.31,-3.35,-3.36,-3.37
284.99,-0.96,2.37,-0.97,2.37,-2.37,-2.19,-3.25,-3.32,-3.33,-3.33
287.84,-1.01,2.30,-1.01,2.29,-2.29,-2.14,-3.18,-3.30,-3.30,-3.31
290.72,-0.94,2.34,-1.04,2.24,-2.24,-2.08,-3.11,-3.18,-3.28,-3.28
293.63,-1.04,2.21,-1.08,2.16,-2.16,-2.03,-3.04,-3.20,-3.25,-3.25
296.57,-1.20,2.02,-1.14,2.07,-2.07,-1.99,-2.97,-3.27,-3.22,-3.22
299.53,-1.10,2.09,-1.20,1.99,-1.99,-1.94,-2.90,-3.08,-3.19,-3.19
302.53,-1.37,1.80,-1.24,1.92,-1.92,-1.89,-2.82,-3.28,-3.16,-3.17
305.55,-1.54,1.59,-1.29,1.85,-1.85,-1.85,-2.75,-3.39,-3.14,-3.13
308.61,-1.32,1.79,-1.35,1.76,-1.76,-1.81,-2.68,-3.08,-3.11,-3.11
311.69,-1.32,1.76,-1.42,1.67,-1.67,-1.77,-2.61,-2.98,-3.09,-3.08
314.81,-1.39,1.67,-1.49,1.58,-1.58,-1.73,-2.54,-2.97,-3.07,-3.06
317.96,-1.43,1.61,-1.56,1.49,-1.49,-1.69,-2.46,-2.91,-3.04,-3.04
321.14,-1.61,1.42,-1.65,1.38,-1.38,-1.65,-2.39,-2.99,-3.03,-3.03
324.35,-1.89,1.12,-1.73,1.27,-1.27,-1.62,-2.32,-3.16,-3.01,-3.01
327.59,-1.80,1.20,-1.80,1.19,-1.19,-1.59,-2.25,-2.99,-2.99,-3.00
330.87,-1.78,1.21,-1.88,1.10,-1.10,-1.55,-2.19,-2.88,-2.98,-2.99
334.18,-1.95,1.02,-1.97,1.00,-1.00,-1.52,-2.12,-2.94,-2.97,-2.97
337.52,-2.09,0.87,-2.05,0.91,-0.91,-1.49,-2.05,-3.00,-2.96,-2.96
340.90,-2.19,0.76,-2.14,0.81,-0.81,-1.47,-1.99,-3.00,-2.95,-2.95
344.30,-2.25,0.69,-2.24,0.71,-0.71,-1.44,-1.92,-2.95,-2.94,-2.94
347.75,-2.31,0.63,-2.32,0.62,-0.62,-1.41,-1.86,-2.93,-2.94,-2.94
351.23,-2.46,0.47,-2.38,0.55,-0.55,-1.39,-1.80,-3.01,-2.93,-2.93
354.74,-2.53,0.41,-2.44,0.49,-0.49,-1.36,-1.74,-3.01,-2.93,-2.94
358.28,-2.38,0.55,-2.49,0.44,-0.44,-1.34,-1.68,-2.81,-2.93,-2.93
361.87,-2.43,0.50,-2.52,0.41,-0.41,-1.32,-1.62,-2.83,-2.93,-2.93
365.49,-2.69,0.23,-2.55,0.37,-0.37,-1.30,-1.57,-3.06,-2.93,-2.92
369.14,-2.64,0.29,-2.57,0.35,-0.35,-1.28,-1.51,-2.99,-2.93,-2.93
372.83,-2.60,0.33,-2.58,0.35,-0.35,-1.26,-1.46,-2.94,-2.93,-2.93
376.56,-2.59,0.35,-2.58,0.35,-0.35,-1.24,-1.41,-2.94,-2.93,-2.94
380.33,-2.59,0.34,-2.57,0.36,-0.36,-1.23,-1.36,-2.94,-2.93,-2.93
384.13,-2.58,0.35,-2.56,0.37,-0.37,-1.21,-1.31,-2.95,-2.94,-2.93
387.97,-2.57,0.37,-2.55,0.39,-0.39,-1.19,-1.26,-2.96,-2.94,-2.94
391.85,-2.57,0.38,-2.53,0.42,-0.42,-1.18,-1.22,-2.98,-2.95,-2.95
395.77,-2.39,0.55,-2.51,0.44,-0.44,-1.17,-1.17,-2.82,-2.95,-2.94
399.73,-2.33,0.62,-2.50,0.46,-0.46,-1.15,-1.13,-2.78,-2.96,-2.95
403.72,-2.54,0.41,-2.47,0.49,-0.49,-1.14,-1.08,-3.03,-2.96,-2.95
407.76,-2.54,0.43,-2.44,0.52,-0.52,-1.13,-1.04,-3.06,-2.97,-2.97
411.84,-2.41,0.56,-2.43,0.54,-0.54,-1.12,-1.00,-2.95,-2.97,-2.97
415.96,-2.38,0.59,-2.41,0.56,-0.56,-1.11,-0.96,-2.93,-2.97,-2.97
420.12,-2.38,0.59,-2.40,0.57,-0.57,-1.10,-0.93,-2.95,-2.97,-2.97
424.32,-2.37,0.60,-2.38,0.58,-0.58,-1.09,-0.89,-2.95,-2.96,-2.97
428.56,-2.36,0.60,-2.35,0.60,-0.60,-1.09,-0.86,-2.95,-2.95,-2.96
432.85,-2.35,0.60,-2.32,0.62,-0.62,-1.08,-0.82,-2.96,-2.93,-2.95
437.18,-2.32,0.62,-2.27,0.64,-0.64,-1.07,-0.79,-2.96,-2.91,-2.94
441.55,-2.29,0.61,-2.24,0.65,-0.65,-1.07,-0.76,-2.94,-2.89,-2.90
445.96,-2.24,0.63,-2.19,0.66,-0.66,-1.06,-0.74,-2.90,-2.86,-2.87
450.42,-2.19,0.65,-2.15,0.67,-0.67,-1.06,-0.71,-2.86,-2.82,-2.84
454.93,-2.13,0.66,-2.11,0.67,-0.67,-1.06,-0.69,-2.80,-2.78,-2.79
459.48,-2.07,0.68,-2.07,0.67,-0.67,-1.05,-0.66,-2.73,-2.74,-2.75
464.07,-2.01,0.69,-2.02,0.67,-0.67,-1.05,-0.64,-2.67,-2.69,-2.70
468.71,-1.91,0.73,-1.98,0.66,-0.66,-1.05,-0.62,-2.57,-2.64,-2.64
473.40,-1.76,0.84,-1.93,0.66,-0.66,-1.05,-0.61,-2.42,-2.59,-2.60
478.13,-1.82,0.72,-1.89,0.66,-0.66,-1.05,-0.59,-2.47,-2.55,-2.54
482.91,-1.87,0.63,-1.85,0.65,-0.65,-1.05,-0.58,-2.52,-2.50,-2.50
487.74,-1.94,0.52,-1.81,0.65,-0.65,-1.05,-0.57,-2.58,-2.46,-2.46
