frequency,raw,error,smoothed,error_smoothed,equalization,parametric_eq,fixed_band_eq,equalized_raw,equalized_smoothed,target
20.00,0.71,-1.09,0.73,-1.10,1.10,-0.35,-0.14,1.81,1.83,1.80
20.20,0.78,-1.07,0.78,-1.08,1.08,-0.36,-0.15,1.86,1.87,1.85
20.40,0.84,-1.06,0.84,-1.06,1.06,-0.37,-0.15,1.90,1.90,1.90
20.61,0.91,-1.02,0.90,-1.04,1.04,-0.38,-0.15,1.95,1.93,1.93
20.81,0.97,-1.01,0.95,-1.01,1.01,-0.38,-0.16,1.98,1.96,1.98
21.02,1.03,-0.99,1.01,-0.98,0.98,-0.39,-0.16,2.01,1.99,2.02
21.23,1.08,-0.96,1.07,-0.95,0.95,-0.40,-0.16,2.03,2.02,2.04
21.44,1.12,-0.94,1.12,-0.92,0.92,-0.41,-0.17,2.04,2.04,2.06
21.66,1.16,-0.92,1.18,-0.89,0.89,-0.41,-0.17,2.05,2.06,2.08
21.87,1.21,-0.88,1.23,-0.85,0.85,-0.42,-0.17,2.06,2.08,2.09
22.09,1.25,-0.86,1.28,-0.81,0.81,-0.43,-0.18,2.06,2.10,2.11
22.31,1.31,-0.81,1.34,-0.77,0.77,-0.44,-0.18,2.08,2.11,2.12
22.54,1.37,-0.75,1.39,-0.72,0.72,-0.45,-0.18,2.09,2.12,2.12
22.76,1.43,-0.69,1.45,-0.67,0.67,-0.45,-0.19,2.11,2.12,2.12
22.99,1.49,-0.62,1.50,-0.62,0.62,-0.46,-0.19,2.12,2.12,2.11
23.22,1.55,-0.56,1.55,-0.57,0.57,-0.47,-0.19,2.12,2.12,2.11
23.45,1.61,-0.50,1.60,-0.52,0.52,-0.48,-0.20,2.14,2.12,2.11
23.69,1.68,-0.44,1.65,-0.47,0.47,-0.49,-0.20,2.15,2.12,2.12
23.92,1.74,-0.38,1.70,-0.42,0.42,-0.50,-0.21,2.16,2.12,2.12
24.16,1.78,-0.34,1.75,-0.37,0.37,-0.51,-0.21,2.15,2.12,2.12
24.40,1.80,-0.33,1.80,-0.32,0.32,-0.52,-0.22,2.13,2.12,2.13
24.65,1.83,-0.29,1.84,-0.28,0.28,-0.53,-0.22,2.11,2.12,2.12
24.89,1.85,-0.27,1.88,-0.24,0.24,-0.54,-0.23,2.09,2.12,2.12
25.14,1.89,-0.23,1.92,-0.20,0.20,-0.55,-0.23,2.09,2.12,2.12
25.39,1.94,-0.19,1.96,-0.17,0.17,-0.56,-0.24,2.11,2.12,2.13
25.65,1.99,-0.14,1.99,-0.13,0.13,-0.57,-0.24,2.13,2.12,2.13
25.91,2.04,-0.08,2.02,-0.10,0.10,-0.58,-0.25,2.14,2.12,2.12
26.16,2.08,-0.04,2.05,-0.07,0.07,-0.59,-0.25,2.15,2.12,2.12
26.43,2.10,-0.02,2.09,-0.03,0.03,-0.60,-0.26,2.14,2.12,2.12
26.69,2.13,0.01,2.12,0.00,-0.00,-0.61,-0.27,2.13,2.12,2.12
26.96,2.16,0.04,2.16,0.05,-0.05,-0.62,-0.27,2.12,2.12,2.12
27.23,2.18,0.06,2.20,0.09,-0.09,-0.63,-0.28,2.09,2.11,2.12
27.50,2.21,0.09,2.24,0.13,-0.13,-0.65,-0.29,2.08,2.11,2.12
27.77,2.24,0.13,2.28,0.17,-0.17,-0.66,-0.29,2.07,2.11,2.11
28.05,2.27,0.16,2.32,0.21,-0.21,-0.67,-0.30,2.06,2.11,2.11
28.33,2.34,0.24,2.36,0.25,-0.25,-0.68,-0.31,2.09,2.11,2.10
28.62,2.41,0.31,2.40,0.29,-0.29,-0.69,-0.32,2.12,2.11,2.10
28.90,2.48,0.37,2.43,0.33,-0.33,-0.71,-0.33,2.16,2.11,2.11
29.19,2.51,0.41,2.47,0.37,-0.37,-0.72,-0.34,2.15,2.10,2.10
29.48,2.53,0.42,2.51,0.41,-0.41,-0.73,-0.35,2.13,2.10,2.11
29.78,2.55,0.45,2.55,0.45,-0.45,-0.75,-0.36,2.11,2.10,2.10
30.08,2.57,0.46,2.58,0.48,-0.48,-0.76,-0.37,2.09,2.10,2.11
30.38,2.61,0.51,2.62,0.52,-0.52,-0.77,-0.38,2.09,2.10,2.10
30.68,2.65,0.55,2.65,0.56,-0.56,-0.79,-0.39,2.10,2.10,2.10
30.99,2.69,0.59,2.68,0.59,-0.59,-0.80,-0.40,2.10,2.10,2.10
31.30,2.71,0.62,2.71,0.62,-0.62,-0.82,-0.41,2.09,2.09,2.09
31.61,2.73,0.64,2.74,0.65,-0.65,-0.83,-0.43,2.09,2.09,2.09
31.93,2.75,0.66,2.77,0.68,-0.68,-0.85,-0.44,2.07,2.09,2.09
32.24,2.79,0.71,2.80,0.72,-0.72,-0.86,-0.46,2.07,2.08,2.08
32.57,2.83,0.75,2.84,0.76,-0.76,-0.88,-0.47,2.07,2.08,2.08
32.89,2.88,0.80,2.88,0.80,-0.80,-0.89,-0.49,2.08,2.07,2.08
33.22,2.91,0.84,2.91,0.84,-0.84,-0.91,-0.50,2.07,2.07,2.07
33.55,2.93,0.86,2.95,0.89,-0.89,-0.92,-0.52,2.05,2.06,2.07
33.89,2.95,0.89,2.99,0.93,-0.93,-0.94,-0.53,2.02,2.06,2.06
34.23,3.01,0.95,3.02,0.97,-0.97,-0.96,-0.55,2.04,2.06,2.06
34.57,3.07,1.02,3.06,1.01,-1.01,-0.97,-0.57,2.07,2.05,2.05
34.92,3.14,1.09,3.09,1.04,-1.04,-0.99,-0.59,2.10,2.05,2.05
35.27,3.16,1.12,3.12,1.08,-1.08,-1.01,-0.61,2.09,2.04,2.04
35.62,3.16,1.12,3.15,1.11,-1.11,-1.03,-0.63,2.06,2.04,2.04
35.97,3.16,1.12,3.17,1.14,-1.14,-1.04,-0.65,2.03,2.04,2.04
36.33,3.19,1.15,3.20,1.16,-1.16,-1.06,-0.67,2.03,2.04,2.04
36.70,3.23,1.20,3.23,1.19,-1.19,-1.08,-0.69,2.04,2.04,2.03
37.06,3.26,1.23,3.25,1.22,-1.22,-1.10,-0.72,2.05,2.04,2.03
37.43,3.26,1.22,3.28,1.24,-1.24,-1.12,-0.74,2.02,2.04,2.04
37.81,3.26,1.22,3.30,1.26,-1.26,-1.14,-0.76,2.00,2.04,2.04
38.19,3.28,1.25,3.32,1.28,-1.28,-1.16,-0.79,2.00,2.04,2.03
38.57,3.32,1.28,3.33,1.30,-1.30,-1.18,-0.81,2.03,2.04,2.04
38.95,3.37,1.32,3.35,1.31,-1.31,-1.20,-0.84,2.06,2.04,2.05
39.34,3.39,1.35,3.38,1.34,-1.34,-1.22,-0.87,2.06,2.04,2.04
39.74,3.41,1.37,3.40,1.36,-1.36,-1.24,-0.89,2.05,2.04,2.04
40.14,3.44,1.40,3.42,1.38,-1.38,-1.26,-0.92,2.06,2.04,2.04
40.54,3.45,1.41,3.44,1.40,-1.40,-1.28,-0.95,2.05,2.04,2.04
40.94,3.47,1.44,3.46,1.43,-1.43,-1.30,-0.98,2.05,2.03,2.03
41.35,3.47,1.44,3.48,1.45,-1.45,-1.32,-1.01,2.02,2.03,2.03
41.76,3.47,1.45,3.50,1.48,-1.48,-1.35,-1.04,1.99,2.02,2.02
42.18,3.49,1.47,3.52,1.51,-1.51,-1.37,-1.08,1.98,2.01,2.02
42.60,3.53,1.52,3.54,1.54,-1.54,-1.39,-1.11,1.99,2.00,2.01
43.03,3.57,1.57,3.56,1.57,-1.57,-1.42,-1.14,2.01,1.99,2.00
43.46,3.57,1.58,3.57,1.59,-1.59,-1.44,-1.18,1.98,1.98,1.99
43.90,3.57,1.60,3.58,1.62,-1.62,-1.46,-1.21,1.96,1.97,1.97
44.33,3.60,1.65,3.60,1.64,-1.64,-1.49,-1.25,1.96,1.95,1.95
44.78,3.63,1.70,3.61,1.67,-1.67,-1.51,-1.29,1.96,1.94,1.93
45.23,3.65,1.73,3.63,1.70,-1.70,-1.54,-1.33,1.95,1.93,1.92
45.68,3.66,1.75,3.65,1.73,-1.73,-1.56,-1.36,1.93,1.91,1.91
46.13,3.67,1.78,3.66,1.76,-1.76,-1.59,-1.40,1.91,1.90,1.89
46.60,3.67,1.78,3.68,1.79,-1.79,-1.61,-1.45,1.88,1.89,1.89
47.06,3.67,1.80,3.69,1.82,-1.82,-1.64,-1.49,1.85,1.87,1.87
47.53,3.67,1.81,3.70,1.85,-1.85,-1.66,-1.53,1.82,1.86,1.86
48.01,3.67,1.81,3.72,1.87,-1.87,-1.69,-1.57,1.80,1.84,1.86
48.49,3.72,1.88,3.73,1.90,-1.90,-1.72,-1.62,1.82,1.83,1.84
48.97,3.77,1.95,3.74,1.92,-1.92,-1.74,-1.66,1.85,1.82,1.82
49.46,3.77,1.97,3.75,1.94,-1.94,-1.77,-1.71,1.83,1.80,1.80
49.96,3.77,1.99,3.75,1.96,-1.96,-1.80,-1.75,1.81,1.79,1.78
50.46,3.77,2.00,3.76,1.99,-1.99,-1.83,-1.80,1.79,1.77,1.77
50.96,3.77,2.01,3.77,2.01,-2.01,-1.86,-1.85,1.77,1.76,1.76
51.47,3.77,2.03,3.77,2.02,-2.02,-1.89,-1.90,1.75,1.75,1.74
51.99,3.77,2.04,3.78,2.04,-2.04,-1.91,-1.94,1.73,1.74,1.73
52.51,3.77,2.05,3.78,2.06,-2.06,-1.94,-1.99,1.72,1.72,1.72
53.03,3.77,2.05,3.78,2.07,-2.07,-1.97,-2.04,1.70,1.71,1.72
53.56,3.77,2.07,3.78,2.08,-2.08,-2.00,-2.09,1.69,1.70,1.70
54.10,3.77,2.08,3.78,2.09,-2.09,-2.03,-2.13,1.68,1.69,1.69
54.64,3.77,2.10,3.77,2.10,-2.10,-2.07,-2.18,1.68,1.68,1.67
55.18,3.77,2.10,3.77,2.11,-2.11,-2.10,-2.23,1.67,1.67,1.67
55.74,3.77,2.12,3.77,2.12,-2.12,-2.13,-2.27,1.66,1.66,1.65
56.29,3.77,2.13,3.77,2.13,-2.13,-2.16,-2.32,1.64,1.64,1.64
56.86,3.77,2.14,3.77,2.14,-2.14,-2.19,-2.36,1.63,1.63,1.63
57.42,3.77,2.17,3.77,2.16,-2.16,-2.22,-2.41,1.61,1.61,1.60
58.00,3.77,2.18,3.77,2.18,-2.18,-2.26,-2.45,1.59,1.59,1.59
58.58,3.77,2.19,3.77,2.20,-2.20,-2.29,-2.49,1.57,1.57,1.58
59.16,3.77,2.21,3.77,2.23,-2.23,-2.32,-2.53,1.54,1.54,1.56
59.76,3.77,2.23,3.77,2.26,-2.26,-2.36,-2.56,1.52,1.52,1.54
60.35,3.77,2.27,3.77,2.29,-2.29,-2.39,-2.60,1.49,1.49,1.50
60.96,3.77,2.31,3.77,2.32,-2.32,-2.42,-2.63,1.45,1.45,1.46
61.57,3.77,2.35,3.78,2.36,-2.36,-2.46,-2.67,1.41,1.42,1.42
62.18,3.77,2.39,3.78,2.40,-2.40,-2.49,-2.70,1.37,1.38,1.38
62.80,3.77,2.44,3.78,2.45,-2.45,-2.53,-2.72,1.33,1.34,1.33
63.43,3.77,2.48,3.79,2.49,-2.49,-2.56,-2.75,1.28,1.29,1.29
64.07,3.77,2.53,3.78,2.53,-2.53,-2.60,-2.77,1.24,1.25,1.24
64.71,3.77,2.57,3.78,2.57,-2.57,-2.64,-2.80,1.20,1.20,1.20
65.35,3.77,2.61,3.77,2.61,-2.61,-2.67,-2.82,1.16,1.16,1.16
66.01,3.77,2.66,3.76,2.65,-2.65,-2.71,-2.84,1.13,1.11,1.11
66.67,3.77,2.71,3.74,2.68,-2.68,-2.75,-2.86,1.09,1.06,1.06
67.33,3.77,2.76,3.73,2.71,-2.71,-2.78,-2.88,1.06,1.02,1.01
68.01,3.77,2.80,3.71,2.74,-2.74,-2.82,-2.89,1.03,0.97,0.97
68.69,3.71,2.79,3.69,2.77,-2.77,-2.86,-2.91,0.94,0.92,0.92
69.37,3.66,2.79,3.67,2.80,-2.80,-2.90,-2.92,0.86,0.87,0.87
70.07,3.60,2.78,3.65,2.84,-2.84,-2.93,-2.94,0.77,0.81,0.82
70.77,3.58,2.81,3.63,2.87,-2.87,-2.97,-2.95,0.71,0.76,0.77
71.48,3.57,2.85,3.61,2.91,-2.91,-3.01,-2.97,0.66,0.70,0.72
72.19,3.57,2.92,3.60,2.95,-2.95,-3.05,-2.98,0.62,0.65,0.65
72.91,3.57,2.98,3.58,2.99,-2.99,-3.09,-3.00,0.58,0.59,0.59
73.64,3.57,3.03,3.57,3.04,-3.04,-3.13,-3.02,0.54,0.54,0.54
74.38,3.57,3.09,3.56,3.08,-3.08,-3.17,-3.03,0.49,0.48,0.48
75.12,3.57,3.15,3.56,3.14,-3.14,-3.21,-3.05,0.43,0.43,0.42
75.87,3.57,3.21,3.57,3.20,-3.20,-3.25,-3.07,0.37,0.37,0.36
76.63,3.57,3.26,3.58,3.26,-3.26,-3.29,-3.09,0.31,0.31,0.31
77.40,3.57,3.31,3.58,3.32,-3.32,-3.33,-3.11,0.25,0.26,0.26
78.17,3.57,3.37,3.58,3.37,-3.37,-3.37,-3.14,0.20,0.21,0.20
78.95,3.57,3.41,3.58,3.42,-3.42,-3.41,-3.16,0.15,0.16,0.16
79.74,3.57,3.46,3.57,3.46,-3.46,-3.45,-3.19,0.11,0.11,0.11
80.54,3.57,3.51,3.56,3.50,-3.50,-3.49,-3.22,0.07,0.06,0.06
81.35,3.57,3.56,3.55,3.54,-3.54,-3.53,-3.25,0.04,0.01,0.01
82.16,3.57,3.61,3.53,3.57,-3.57,-3.57,-3.29,0.01,-0.04,-0.04
82.98,3.57,3.65,3.51,3.59,-3.59,-3.62,-3.32,-0.02,-0.08,-0.08
83.81,3.49,3.62,3.49,3.62,-3.62,-3.66,-3.36,-0.13,-0.13,-0.13
84.65,3.44,3.62,3.47,3.65,-3.65,-3.70,-3.40,-0.21,-0.18,-0.18
85.50,3.40,3.62,3.44,3.67,-3.67,-3.74,-3.45,-0.27,-0.23,-0.22
86.35,3.37,3.64,3.41,3.69,-3.69,-3.78,-3.49,-0.32,-0.28,-0.27
87.22,3.37,3.69,3.38,3.71,-3.71,-3.83,-3.54,-0.34,-0.33,-0.32
88.09,3.37,3.74,3.35,3.73,-3.73,-3.87,-3.60,-0.36,-0.38,-0.37
88.97,3.35,3.78,3.32,3.75,-3.75,-3.91,-3.65,-0.40,-0.43,-0.43
89.86,3.26,3.74,3.30,3.78,-3.78,-3.95,-3.71,-0.51,-0.48,-0.48
90.76,3.27,3.80,3.27,3.80,-3.80,-3.99,-3.77,-0.53,-0.53,-0.53
91.66,3.28,3.86,3.25,3.83,-3.83,-4.04,-3.83,-0.55,-0.58,-0.58
92.58,3.23,3.87,3.23,3.86,-3.86,-4.08,-3.90,-0.63,-0.63,-0.64
93.51,3.18,3.87,3.21,3.89,-3.89,-4.12,-3.97,-0.71,-0.68,-0.69
94.44,3.17,3.90,3.19,3.93,-3.93,-4.16,-4.04,-0.75,-0.73,-0.73
95.39,3.17,3.95,3.18,3.96,-3.96,-4.21,-4.11,-0.79,-0.78,-0.78
96.34,3.17,4.00,3.17,4.00,-4.00,-4.25,-4.19,-0.83,-0.83,-0.83
97.30,3.16,4.04,3.15,4.03,-4.03,-4.29,-4.27,-0.87,-0.88,-0.88
98.28,3.15,4.08,3.14,4.07,-4.07,-4.33,-4.35,-0.92,-0.93,-0.93
99.26,3.14,4.11,3.13,4.11,-4.11,-4.38,-4.43,-0.96,-0.97,-0.97
100.25,3.12,4.14,3.12,4.15,-4.15,-4.42,-4.51,-1.02,-1.02,-1.02
101.25,3.10,4.17,3.11,4.19,-4.19,-4.46,-4.60,-1.08,-1.07,-1.07
102.27,3.10,4.22,3.11,4.23,-4.23,-4.50,-4.68,-1.13,-1.12,-1.12
103.29,3.14,4.31,3.12,4.29,-4.29,-4.54,-4.77,-1.14,-1.17,-1.17
104.32,3.16,4.37,3.13,4.34,-4.34,-4.58,-4.86,-1.18,-1.22,-1.21
105.37,3.13,4.39,3.13,4.40,-4.40,-4.63,-4.95,-1.27,-1.27,-1.26
106.42,3.11,4.42,3.14,4.46,-4.46,-4.67,-5.04,-1.34,-1.32,-1.31
107.48,3.10,4.47,3.14,4.51,-4.51,-4.71,-5.12,-1.41,-1.37,-1.37
108.56,3.12,4.54,3.16,4.58,-4.58,-4.75,-5.21,-1.46,-1.42,-1.42
109.64,3.16,4.63,3.18,4.65,-4.65,-4.79,-5.30,-1.49,-1.48,-1.47
110.74,3.21,4.74,3.20,4.73,-4.73,-4.83,-5.38,-1.52,-1.53,-1.53
111.85,3.26,4.83,3.23,4.80,-4.80,-4.87,-5.46,-1.54,-1.58,-1.57
112.97,3.30,4.93,3.25,4.88,-4.88,-4.91,-5.54,-1.58,-1.63,-1.63
114.10,3.29,4.97,3.29,4.97,-4.97,-4.95,-5.61,-1.67,-1.68,-1.68
115.24,3.29,5.02,3.32,5.05,-5.05,-4.99,-5.69,-1.76,-1.72,-1.73
116.39,3.29,5.07,3.36,5.13,-5.13,-5.03,-5.75,-1.84,-1.77,-1.78
117.55,3.33,5.15,3.40,5.21,-5.21,-5.07,-5.81,-1.88,-1.81,-1.82
118.73,3.46,5.32,3.44,5.29,-5.29,-5.11,-5.87,-1.83,-1.85,-1.86
119.92,3.51,5.40,3.48,5.37,-5.37,-5.14,-5.92,-1.85,-1.89,-1.89
121.12,3.51,5.44,3.50,5.43,-5.43,-5.18,-5.97,-1.92,-1.93,-1.93
122.33,3.52,5.48,3.53,5.49,-5.49,-5.22,-6.00,-1.96,-1.96,-1.96
123.55,3.55,5.54,3.55,5.54,-5.54,-5.26,-6.04,-1.99,-1.99,-1.99
124.79,3.63,5.65,3.56,5.59,-5.59,-5.29,-6.06,-1.95,-2.02,-2.02
126.03,3.64,5.69,3.57,5.63,-5.63,-5.33,-6.08,-1.99,-2.05,-2.05
127.29,3.59,5.66,3.58,5.67,-5.67,-5.36,-6.09,-2.07,-2.08,-2.07
128.57,3.56,5.67,3.58,5.69,-5.69,-5.40,-6.10,-2.13,-2.11,-2.11
129.85,3.56,5.70,3.57,5.71,-5.71,-5.43,-6.10,-2.15,-2.14,-2.14
131.15,3.57,5.74,3.55,5.72,-5.72,-5.47,-6.09,-2.15,-2.17,-2.17
132.46,3.53,5.73,3.53,5.73,-5.73,-5.50,-6.08,-2.20,-2.20,-2.20
133.79,3.49,5.72,3.51,5.74,-5.74,-5.53,-6.06,-2.25,-2.23,-2.23
135.12,3.48,5.74,3.49,5.75,-5.75,-5.57,-6.04,-2.26,-2.25,-2.26
136.48,3.48,5.76,3.47,5.75,-5.75,-5.60,-6.01,-2.27,-2.28,-2.28
137.84,3.43,5.75,3.45,5.76,-5.76,-5.63,-5.98,-2.33,-2.31,-2.32
139.22,3.40,5.75,3.43,5.77,-5.77,-5.66,-5.95,-2.37,-2.34,-2.35
140.61,3.39,5.77,3.42,5.79,-5.79,-5.69,-5.91,-2.39,-2.37,-2.38
142.02,3.39,5.79,3.41,5.81,-5.81,-5.72,-5.88,-2.42,-2.40,-2.40
143.44,3.39,5.82,3.40,5.84,-5.84,-5.75,-5.84,-2.45,-2.44,-2.43
144.87,3.39,5.86,3.40,5.87,-5.87,-5.77,-5.79,-2.48,-2.47,-2.47
146.32,3.39,5.90,3.40,5.92,-5.92,-5.80,-5.75,-2.53,-2.52,-2.51
147.78,3.39,5.93,3.41,5.97,-5.97,-5.83,-5.71,-2.58,-2.57,-2.54
149.26,3.39,5.98,3.41,6.03,-6.03,-5.85,-5.67,-2.64,-2.62,-2.59
150.75,3.41,6.06,3.41,6.09,-6.09,-5.88,-5.63,-2.68,-2.68,-2.65
152.26,3.40,6.12,3.41,6.15,-6.15,-5.90,-5.59,-2.75,-2.74,-2.72
153.78,3.39,6.18,3.40,6.21,-6.21,-5.92,-5.56,-2.82,-2.81,-2.79
155.32,3.39,6.25,3.38,6.25,-6.25,-5.95,-5.52,-2.86,-2.87,-2.86
156.88,3.39,6.33,3.34,6.29,-6.29,-5.97,-5.49,-2.90,-2.95,-2.94
158.44,3.39,6.41,3.30,6.31,-6.31,-5.99,-5.46,-2.92,-3.02,-3.02
160.03,3.36,6.46,3.24,6.33,-6.33,-6.01,-5.43,-2.97,-3.08,-3.10
161.63,3.30,6.47,3.19,6.34,-6.34,-6.03,-5.41,-3.04,-3.15,-3.17
163.24,3.20,6.43,3.15,6.36,-6.36,-6.04,-5.39,-3.16,-3.21,-3.23
164.88,3.11,6.39,3.11,6.37,-6.37,-6.06,-5.37,-3.26,-3.27,-3.28
166.53,3.03,6.36,3.07,6.38,-6.38,-6.08,-5.36,-3.35,-3.31,-3.33
168.19,2.93,6.30,3.04,6.39,-6.39,-6.09,-5.35,-3.46,-3.35,-3.37
169.87,2.82,6.23,3.01,6.40,-6.40,-6.11,-5.34,-3.58,-3.39,-3.41
171.57,2.85,6.28,3.00,6.41,-6.41,-6.12,-5.34,-3.56,-3.41,-3.43
173.29,2.87,6.31,2.99,6.42,-6.42,-6.13,-5.34,-3.55,-3.43,-3.44
175.02,2.90,6.35,2.99,6.43,-6.43,-6.14,-5.34,-3.53,-3.45,-3.45
176.77,3.06,6.52,3.00,6.45,-6.45,-6.15,-5.35,-3.39,-3.46,-3.46
178.54,3.13,6.60,3.02,6.49,-6.49,-6.16,-5.37,-3.35,-3.46,-3.47
180.32,3.15,6.61,3.06,6.53,-6.53,-6.17,-5.39,-3.38,-3.47,-3.46
182.13,3.15,6.60,3.10,6.57,-6.57,-6.18,-5.41,-3.42,-3.47,-3.45
183.95,3.16,6.62,3.14,6.62,-6.62,-6.18,-5.43,-3.45,-3.48,-3.46
185.79,3.17,6.63,3.17,6.66,-6.66,-6.19,-5.46,-3.48,-3.49,-3.46
187.65,3.19,6.67,3.19,6.69,-6.69,-6.19,-5.50,-3.50,-3.49,-3.48
189.52,3.20,6.69,3.21,6.71,-6.71,-6.19,-5.54,-3.51,-3.50,-3.49
191.42,3.21,6.72,3.21,6.73,-6.73,-6.19,-5.58,-3.52,-3.52,-3.51
193.33,3.23,6.76,3.21,6.74,-6.74,-6.19,-5.62,-3.51,-3.53,-3.53
195.27,3.25,6.80,3.21,6.75,-6.75,-6.19,-5.67,-3.50,-3.55,-3.55
197.22,3.25,6.82,3.19,6.76,-6.76,-6.19,-5.72,-3.51,-3.57,-3.57
199.19,3.17,6.76,3.18,6.76,-6.76,-6.19,-5.78,-3.59,-3.59,-3.59
201.18,3.09,6.70,3.16,6.77,-6.77,-6.19,-5.83,-3.68,-3.61,-3.61
203.19,3.08,6.71,3.14,6.77,-6.77,-6.18,-5.89,-3.69,-3.63,-3.63
205.23,3.08,6.73,3.12,6.77,-6.77,-6.18,-5.95,-3.68,-3.65,-3.65
207.28,3.08,6.74,3.10,6.77,-6.77,-6.17,-6.01,-3.68,-3.67,-3.66
209.35,3.08,6.76,3.07,6.76,-6.76,-6.16,-6.08,-3.68,-3.69,-3.68
211.44,3.08,6.79,3.04,6.75,-6.75,-6.15,-6.14,-3.67,-3.71,-3.71
213.56,3.08,6.80,3.01,6.73,-6.73,-6.14,-6.20,-3.65,-3.72,-3.72
215.69,3.04,6.77,2.98,6.71,-6.71,-6.13,-6.27,-3.67,-3.73,-3.73
217.85,2.89,6.63,2.95,6.69,-6.69,-6.12,-6.33,-3.80,-3.75,-3.74
220.03,2.87,6.62,2.92,6.68,-6.68,-6.10,-6.39,-3.80,-3.75,-3.75
222.23,2.86,6.64,2.90,6.66,-6.66,-6.09,-6.45,-3.79,-3.76,-3.78
224.45,2.86,6.63,2.87,6.63,-6.63,-6.07,-6.51,-3.77,-3.76,-3.77
226.70,2.86,6.63,2.84,6.60,-6.60,-6.06,-6.56,-3.74,-3.76,-3.77
228.96,2.86,6.62,2.80,6.56,-6.56,-6.04,-6.61,-3.70,-3.76,-3.76
231.25,2.73,6.48,2.77,6.52,-6.52,-6.02,-6.65,-3.79,-3.75,-3.75
233.57,2.68,6.42,2.74,6.47,-6.47,-6.00,-6.69,-3.79,-3.74,-3.74
235.90,2.69,6.42,2.71,6.43,-6.43,-5.98,-6.72,-3.74,-3.72,-3.73
238.26,2.71,6.43,2.68,6.39,-6.39,-5.96,-6.74,-3.68,-3.71,-3.72
240.64,2.69,6.38,2.67,6.35,-6.35,-5.93,-6.76,-3.66,-3.69,-3.69
243.05,2.65,6.31,2.65,6.32,-6.32,-5.91,-6.77,-3.66,-3.67,-3.66
245.48,2.59,6.23,2.62,6.27,-6.27,-5.88,-6.77,-3.68,-3.64,-3.64
247.93,2.59,6.20,2.60,6.22,-6.22,-5.86,-6.77,-3.63,-3.62,-3.61
250.41,2.57,6.16,2.57,6.17,-6.17,-5.83,-6.75,-3.60,-3.60,-3.59
252.92,2.52,6.08,2.55,6.13,-6.13,-5.80,-6.73,-3.60,-3.57,-3.56
255.45,2.53,6.07,2.53,6.08,-6.08,-5.77,-6.69,-3.55,-3.55,-3.54
258.00,2.54,6.06,2.51,6.04,-6.04,-5.74,-6.65,-3.50,-3.52,-3.52
260.58,2.50,6.00,2.49,5.99,-5.99,-5.71,-6.61,-3.48,-3.50,-3.50
263.19,2.46,5.93,2.46,5.93,-5.93,-5.67,-6.55,-3.47,-3.47,-3.47
265.82,2.45,5.90,2.42,5.87,-5.87,-5.64,-6.49,-3.42,-3.45,-3.45
268.48,2.37,5.80,2.39,5.82,-5.82,-5.60,-6.42,-3.44,-3.43,-3.43
271.16,2.34,5.74,2.36,5.76,-5.76,-5.57,-6.34,-3.42,-3.40,-3.40
273.87,2.34,5.72,2.32,5.70,-5.70,-5.53,-6.26,-3.36,-3.38,-3.38
276.61,2.31,5.66,2.28,5.63,-5.63,-5.49,-6.17,-3.32,-3.35,-3.35
279.38,2.25,5.57,2.25,5.57,-5.57,-5.45,-6.08,-3.32,-3.32,-3.32
282.17,2.17,5.47,2.20,5.50,-5.50,-5.41,-5.98,-3.33,-3.29,-3.30
284.99,2.14,5.40,2.16,5.43,-5.43,-5.36,-5.88,-3.28,-3.27,-3.26
287.84,2.10,5.34,2.11,5.35,-5.35,-5.32,-5.78,-3.25,-3.24,-3.24
290.72,2.06,5.27,2.07,5.27,-5.27,-5.27,-5.68,-3.21,-3.21,-3.21
293.63,1.98,5.16,2.02,5.20,-5.20,-5.22,-5.58,-3.21,-3.18,-3.18
296.57,1.99,5.14,1.97,5.12,-5.12,-5.17,-5.47,-3.12,-3.15,-3.15
299.53,1.92,5.04,1.91,5.03,-5.03,-5.12,-5.36,-3.11,-3.12,-3.12
302.53,1.88,4.98,1.86,4.95,-4.95,-5.07,-5.26,-3.07,-3.09,-3.10
305.55,1.83,4.89,1.80,4.87,-4.87,-5.01,-5.15,-3.03,-3.07,-3.06
308.61,1.74,4.78,1.74,4.79,-4.79,-4.95,-5.05,-3.04,-3.04,-3.04
311.69,1.68,4.69,1.68,4.70,-4.70,-4.89,-4.95,-3.02,-3.02,-3.01
314.81,1.62,4.61,1.62,4.62,-4.62,-4.82,-4.84,-3.00,-3.00,-2.99
317.96,1.51,4.48,1.56,4.54,-4.54,-4.76,-4.74,-3.02,-2.98,-2.97
321.14,1.45,4.41,1.49,4.45,-4.45,-4.68,-4.65,-3.00,-2.96,-2.96
324.35,1.43,4.37,1.42,4.36,-4.36,-4.61,-4.55,-2.93,-2.94,-2.94
327.59,1.32,4.25,1.34,4.27,-4.27,-4.53,-4.46,-2.95,-2.93,-2.93
330.87,1.25,4.17,1.26,4.18,-4.18,-4.45,-4.37,-2.92,-2.91,-2.92
334.18,1.23,4.13,1.18,4.08,-4.08,-4.36,-4.28,-2.85,-2.90,-2.90
337.52,1.14,4.03,1.09,3.99,-3.99,-4.26,-4.19,-2.84,-2.89,-2.89
340.90,1.02,3.90,1.01,3.89,-3.89,-4.16,-4.11,-2.87,-2.88,-2.88
344.30,0.90,3.77,0.91,3.79,-3.79,-4.06,-4.03,-2.89,-2.88,-2.87
347.75,0.85,3.72,0.81,3.68,-3.68,-3.94,-3.95,-2.83,-2.87,-2.87
351.23,0.74,3.60,0.71,3.58,-3.58,-3.82,-3.88,-2.84,-2.87,-2.86
354.74,0.60,3.47,0.61,3.48,-3.48,-3.69,-3.81,-2.87,-2.86,-2.87
358.28,0.46,3.32,0.51,3.37,-3.37,-3.55,-3.74,-2.91,-2.86,-2.86
361.87,0.40,3.26,0.41,3.27,-3.27,-3.41,-3.67,-2.87,-2.86,-2.86
365.49,0.32,3.17,0.32,3.17,-3.17,-3.25,-3.61,-2.85,-2.86,-2.85
369.14,0.18,3.04,0.22,3.08,-3.08,-3.10,-3.55,-2.90,-2.86,-2.86
372.83,0.12,2.98,0.13,2.99,-2.99,-2.94,-3.49,-2.86,-2.86,-2.86
376.56,-0.02,2.85,0.03,2.90,-2.90,-2.79,-3.44,-2.91,-2.86,-2.87
380.33,-0.10,2.76,-0.06,2.81,-2.81,-2.64,-3.38,-2.90,-2.87,-2.86
384.13,-0.12,2.74,-0.15,2.72,-2.72,-2.52,-3.33,-2.84,-2.87,-2.86
387.97,-0.19,2.68,-0.24,2.63,-2.63,-2.41,-3.29,-2.82,-2.87,-2.87
391.85,-0.27,2.61,-0.33,2.54,-2.54,-2.32,-3.24,-2.81,-2.88,-2.88
395.77,-0.32,2.55,-0.42,2.47,-2.47,-2.27,-3.20,-2.79,-2.88,-2.87
399.73,-0.40,2.48,-0.49,2.40,-2.40,-2.25,-3.16,-2.80,-2.89,-2.88
403.72,-0.51,2.37,-0.55,2.34,-2.34,-2.26,-3.12,-2.85,-2.89,-2.88
407.76,-0.60,2.30,-0.60,2.30,-2.30,-2.29,-3.09,-2.89,-2.90,-2.90
411.84,-0.71,2.19,-0.63,2.27,-2.27,-2.34,-3.05,-2.98,-2.90,-2.90
415.96,-0.75,2.15,-0.64,2.26,-2.26,-2.41,-3.02,-3.01,-2.90,-2.90
420.12,-0.73,2.17,-0.62,2.28,-2.28,-2.48,-2.99,-3.00,-2.90,-2.90
424.32,-0.72,2.18,-0.59,2.31,-2.31,-2.55,-2.96,-3.02,-2.89,-2.90
428.56,-0.65,2.24,-0.53,2.35,-2.35,-2.62,-2.94,-3.00,-2.88,-2.89
432.85,-0.55,2.33,-0.46,2.41,-2.41,-2.69,-2.91,-2.96,-2.87,-2.88
437.18,-0.39,2.48,-0.36,2.49,-2.49,-2.75,-2.89,-2.88,-2.85,-2.87
441.55,-0.25,2.58,-0.24,2.59,-2.59,-2.80,-2.87,-2.83,-2.82,-2.83
445.96,-0.10,2.70,-0.10,2.69,-2.69,-2.85,-2.84,-2.78,-2.79,-2.80
450.42,0.08,2.85,0.03,2.79,-2.79,-2.89,-2.82,-2.71,-2.75,-2.77
454.93,0.24,2.96,0.18,2.89,-2.89,-2.92,-2.80,-2.65,-2.71,-2.72
459.48,0.37,3.05,0.32,2.99,-2.99,-2.94,-2.78,-2.62,-2.67,-2.68
464.07,0.51,3.14,0.45,3.07,-3.07,-2.96,-2.76,-2.56,-2.62,-2.63
468.71,0.60,3.17,0.56,3.13,-3.13,-2.97,-2.74,-2.53,-2.58,-2.57
473.40,0.67,3.20,0.65,3.18,-3.18,-2.98,-2.73,-2.51,-2.53,-2.53
478.13,0.80,3.27,0.73,3.21,-3.21,-2.98,-2.71,-2.41,-2.48,-2.47
482.91,0.87,3.30,0.80,3.23,-3.23,-2.98,-2.69,-2.36,-2.43,-2.43
487.74,0.84,3.23,0.84,3.23,-3.23,-2.98,-2.67,-2.39,-2.39,-2.39
492.62,0.84,3.18,0.86,3.22,-3.22,-2.97,-2.65,-2.37,-2.36,-2.34
