frequency,raw,error,smoothed,error_smoothed,equalization,parametric_eq,fixed_band_eq,equalized_raw,equalized_smoothed,target
20.00,11.13,-0.43,11.12,-0.43,0.42,0.13,-0.07,11.54,11.54,11.56
20.20,11.17,-0.38,11.17,-0.38,0.37,0.14,-0.07,11.54,11.54,11.55
20.40,11.21,-0.33,11.21,-0.33,0.33,0.14,-0.06,11.54,11.54,11.54
20.61,11.25,-0.29,11.25,-0.28,0.29,0.14,-0.06,11.54,11.54,11.54
20.81,11.29,-0.23,11.29,-0.23,0.26,0.15,-0.06,11.54,11.55,11.52
21.02,11.33,-0.19,11.32,-0.20,0.23,0.15,-0.06,11.55,11.54,11.52
21.23,11.33,-0.18,11.33,-0.18,0.20,0.15,-0.06,11.53,11.53,11.51
21.44,11.33,-0.19,11.33,-0.18,0.18,0.15,-0.06,11.51,11.51,11.52
21.66,11.33,-0.18,11.33,-0.18,0.17,0.16,-0.05,11.50,11.50,11.51
21.87,11.33,-0.17,11.33,-0.17,0.17,0.16,-0.05,11.49,11.49,11.50
22.09,11.33,-0.16,11.33,-0.16,0.16,0.16,-0.05,11.49,11.49,11.49
22.31,11.33,-0.16,11.33,-0.16,0.16,0.16,-0.05,11.48,11.48,11.49
22.54,11.33,-0.15,11.33,-0.15,0.15,0.16,-0.04,11.47,11.47,11.48
22.76,11.33,-0.14,11.33,-0.14,0.13,0.16,-0.04,11.46,11.46,11.47
22.99,11.33,-0.13,11.33,-0.12,0.11,0.16,-0.04,11.44,11.45,11.46
23.22,11.35,-0.10,11.35,-0.10,0.10,0.16,-0.04,11.44,11.45,11.45
23.45,11.38,-0.08,11.37,-0.08,0.08,0.16,-0.03,11.46,11.45,11.46
23.69,11.40,-0.05,11.40,-0.05,0.07,0.16,-0.03,11.46,11.46,11.45
23.92,11.42,-0.03,11.42,-0.04,0.05,0.15,-0.03,11.47,11.47,11.45
24.16,11.43,-0.03,11.43,-0.03,0.04,0.15,-0.03,11.47,11.47,11.46
24.40,11.43,-0.04,11.43,-0.04,0.03,0.15,-0.02,11.46,11.46,11.47
24.65,11.43,-0.04,11.43,-0.04,0.03,0.14,-0.02,11.46,11.46,11.47
24.89,11.43,-0.04,11.43,-0.04,0.03,0.14,-0.02,11.46,11.46,11.47
25.14,11.43,-0.03,11.43,-0.03,0.04,0.14,-0.01,11.47,11.47,11.46
25.39,11.43,-0.03,11.43,-0.03,0.04,0.13,-0.01,11.46,11.46,11.46
25.65,11.43,-0.03,11.43,-0.03,0.03,0.12,-0.01,11.46,11.46,11.46
25.91,11.43,-0.04,11.43,-0.04,0.02,0.12,-0.01,11.45,11.45,11.47
26.16,11.45,-0.03,11.45,-0.03,0.01,0.11,-0.00,11.46,11.46,11.48
26.43,11.47,-0.01,11.47,-0.01,-0.00,0.10,-0.00,11.46,11.47,11.48
26.69,11.50,0.02,11.50,0.02,-0.02,0.09,-0.00,11.48,11.48,11.48
26.96,11.53,0.06,11.52,0.05,-0.03,0.08,0.00,11.50,11.49,11.47
27.23,11.53,0.06,11.53,0.06,-0.04,0.07,0.00,11.49,11.49,11.47
27.50,11.53,0.06,11.53,0.06,-0.05,0.06,0.00,11.48,11.48,11.47
27.77,11.53,0.05,11.53,0.05,-0.06,0.05,0.00,11.47,11.47,11.48
28.05,11.53,0.05,11.53,0.06,-0.06,0.04,0.00,11.47,11.47,11.48
28.33,11.53,0.07,11.53,0.06,-0.06,0.02,0.00,11.47,11.47,11.46
28.62,11.53,0.07,11.53,0.06,-0.06,0.01,0.00,11.47,11.47,11.46
28.90,11.53,0.06,11.53,0.07,-0.06,-0.00,-0.00,11.47,11.47,11.47
29.19,11.53,0.06,11.53,0.07,-0.07,-0.02,-0.00,11.46,11.46,11.47
29.48,11.54,0.08,11.54,0.07,-0.08,-0.03,-0.01,11.46,11.46,11.46
29.78,11.55,0.09,11.55,0.08,-0.10,-0.05,-0.01,11.45,11.45,11.46
30.08,11.56,0.09,11.56,0.10,-0.11,-0.07,-0.02,11.45,11.45,11.47
30.38,11.58,0.12,11.58,0.13,-0.13,-0.08,-0.02,11.45,11.45,11.46
30.68,11.61,0.17,11.61,0.16,-0.15,-0.10,-0.03,11.46,11.46,11.44
30.99,11.64,0.20,11.63,0.19,-0.17,-0.12,-0.04,11.47,11.46,11.44
31.30,11.64,0.21,11.63,0.21,-0.20,-0.14,-0.05,11.44,11.44,11.43
31.61,11.63,0.21,11.63,0.21,-0.22,-0.15,-0.06,11.40,11.41,11.42
31.93,11.63,0.22,11.64,0.23,-0.25,-0.17,-0.07,11.38,11.39,11.41
32.24,11.66,0.25,11.66,0.26,-0.27,-0.19,-0.08,11.39,11.39,11.41
32.57,11.69,0.30,11.69,0.30,-0.29,-0.21,-0.09,11.39,11.40,11.39
32.89,11.73,0.34,11.72,0.33,-0.31,-0.23,-0.11,11.41,11.41,11.39
33.22,11.74,0.35,11.74,0.35,-0.33,-0.25,-0.12,11.41,11.40,11.39
33.55,11.74,0.36,11.74,0.36,-0.35,-0.27,-0.14,11.39,11.39,11.38
33.89,11.74,0.35,11.74,0.36,-0.36,-0.29,-0.16,11.38,11.38,11.39
34.23,11.74,0.37,11.74,0.37,-0.37,-0.32,-0.17,11.37,11.37,11.37
34.57,11.74,0.37,11.74,0.37,-0.37,-0.34,-0.19,11.36,11.36,11.37
34.92,11.74,0.38,11.74,0.38,-0.38,-0.36,-0.21,11.36,11.36,11.36
35.27,11.74,0.37,11.74,0.38,-0.38,-0.38,-0.24,11.36,11.36,11.37
35.62,11.74,0.39,11.74,0.38,-0.39,-0.40,-0.26,11.35,11.35,11.35
35.97,11.74,0.39,11.74,0.39,-0.40,-0.43,-0.28,11.34,11.34,11.35
36.33,11.74,0.41,11.74,0.41,-0.41,-0.45,-0.30,11.33,11.33,11.33
36.70,11.74,0.42,11.74,0.42,-0.42,-0.47,-0.33,11.32,11.32,11.32
37.06,11.74,0.44,11.74,0.44,-0.44,-0.49,-0.35,11.30,11.30,11.30
37.43,11.74,0.46,11.74,0.46,-0.46,-0.52,-0.38,11.28,11.28,11.28
37.81,11.74,0.48,11.74,0.48,-0.49,-0.54,-0.41,11.25,11.25,11.26
38.19,11.74,0.51,11.74,0.50,-0.51,-0.56,-0.44,11.23,11.23,11.23
38.57,11.74,0.53,11.74,0.53,-0.54,-0.59,-0.46,11.20,11.20,11.21
38.95,11.74,0.56,11.74,0.56,-0.56,-0.61,-0.49,11.17,11.18,11.18
39.34,11.74,0.60,11.74,0.59,-0.59,-0.64,-0.52,11.15,11.15,11.14
39.74,11.74,0.62,11.74,0.62,-0.61,-0.66,-0.55,11.13,11.13,11.12
40.14,11.73,0.64,11.73,0.64,-0.62,-0.68,-0.59,11.11,11.10,11.09
40.54,11.71,0.64,11.71,0.64,-0.64,-0.71,-0.62,11.07,11.07,11.07
40.94,11.69,0.65,11.69,0.65,-0.65,-0.73,-0.65,11.04,11.04,11.04
41.35,11.67,0.65,11.67,0.65,-0.66,-0.76,-0.68,11.01,11.01,11.02
41.76,11.65,0.67,11.65,0.67,-0.67,-0.78,-0.72,10.97,10.98,10.98
42.18,11.64,0.68,11.64,0.68,-0.69,-0.81,-0.75,10.95,10.95,10.96
42.60,11.64,0.70,11.64,0.70,-0.71,-0.83,-0.79,10.93,10.93,10.94
43.03,11.64,0.73,11.64,0.73,-0.73,-0.86,-0.82,10.91,10.91,10.91
43.46,11.64,0.76,11.64,0.76,-0.75,-0.89,-0.86,10.88,10.88,10.88
43.90,11.64,0.78,11.64,0.79,-0.78,-0.91,-0.90,10.86,10.86,10.86
44.33,11.64,0.82,11.64,0.81,-0.81,-0.94,-0.93,10.83,10.83,10.82
44.78,11.64,0.85,11.64,0.84,-0.84,-0.97,-0.97,10.80,10.80,10.79
45.23,11.64,0.86,11.64,0.87,-0.87,-0.99,-1.01,10.76,10.76,10.78
45.68,11.64,0.91,11.64,0.91,-0.91,-1.02,-1.05,10.73,10.73,10.73
46.13,11.64,0.95,11.64,0.94,-0.94,-1.05,-1.09,10.70,10.70,10.69
46.60,11.64,0.98,11.64,0.98,-0.98,-1.07,-1.13,10.66,10.66,10.66
47.06,11.64,1.02,11.64,1.02,-1.02,-1.10,-1.18,10.62,10.62,10.62
47.53,11.64,1.05,11.64,1.06,-1.06,-1.13,-1.22,10.58,10.58,10.59
48.01,11.64,1.11,11.64,1.11,-1.11,-1.16,-1.26,10.53,10.53,10.53
48.49,11.64,1.16,11.64,1.15,-1.15,-1.18,-1.30,10.48,10.48,10.48
48.97,11.64,1.20,11.64,1.20,-1.20,-1.21,-1.35,10.44,10.44,10.44
49.46,11.64,1.24,11.64,1.25,-1.25,-1.24,-1.39,10.39,10.39,10.40
49.96,11.64,1.31,11.64,1.30,-1.30,-1.27,-1.44,10.34,10.34,10.33
50.46,11.64,1.35,11.64,1.35,-1.34,-1.30,-1.48,10.30,10.30,10.29
50.96,11.64,1.39,11.64,1.39,-1.39,-1.33,-1.53,10.25,10.25,10.25
51.47,11.64,1.43,11.64,1.43,-1.43,-1.36,-1.58,10.21,10.21,10.21
51.99,11.64,1.48,11.64,1.47,-1.48,-1.39,-1.62,10.16,10.16,10.16
52.51,11.64,1.52,11.64,1.52,-1.52,-1.42,-1.67,10.12,10.12,10.12
53.03,11.64,1.55,11.64,1.56,-1.57,-1.45,-1.72,10.07,10.07,10.09
53.56,11.64,1.61,11.64,1.60,-1.61,-1.48,-1.76,10.03,10.03,10.03
54.10,11.64,1.66,11.64,1.65,-1.66,-1.51,-1.81,9.98,9.98,9.98
54.64,11.64,1.70,11.64,1.71,-1.71,-1.54,-1.85,9.93,9.93,9.94
55.18,11.64,1.76,11.64,1.76,-1.76,-1.57,-1.90,9.88,9.88,9.88
55.74,11.64,1.81,11.64,1.80,-1.81,-1.61,-1.94,9.83,9.83,9.83
56.29,11.64,1.84,11.64,1.85,-1.84,-1.64,-1.99,9.80,9.80,9.80
56.86,11.64,1.88,11.64,1.89,-1.86,-1.67,-2.03,9.78,9.78,9.76
57.42,11.63,1.93,11.63,1.92,-1.88,-1.70,-2.07,9.75,9.75,9.70
58.00,11.62,1.95,11.59,1.92,-1.89,-1.74,-2.11,9.73,9.70,9.67
58.58,11.53,1.89,11.53,1.90,-1.90,-1.77,-2.15,9.63,9.63,9.64
59.16,11.46,1.86,11.48,1.88,-1.92,-1.81,-2.19,9.54,9.56,9.60
59.76,11.44,1.88,11.44,1.88,-1.94,-1.84,-2.23,9.50,9.50,9.56
60.35,11.43,1.94,11.43,1.93,-1.96,-1.87,-2.26,9.46,9.46,9.49
60.96,11.43,1.99,11.43,1.99,-2.00,-1.91,-2.30,9.43,9.43,9.44
61.57,11.43,2.06,11.43,2.06,-2.05,-1.94,-2.33,9.38,9.38,9.37
62.18,11.43,2.13,11.43,2.13,-2.11,-1.98,-2.36,9.32,9.32,9.30
62.80,11.43,2.19,11.43,2.19,-2.17,-2.02,-2.39,9.26,9.26,9.24
63.43,11.43,2.25,11.43,2.25,-2.24,-2.05,-2.42,9.19,9.19,9.18
64.07,11.43,2.30,11.43,2.30,-2.30,-2.09,-2.44,9.13,9.13,9.13
64.71,11.43,2.36,11.43,2.36,-2.36,-2.12,-2.47,9.06,9.06,9.07
65.35,11.43,2.42,11.43,2.42,-2.42,-2.16,-2.49,9.00,9.00,9.01
66.01,11.43,2.48,11.43,2.48,-2.49,-2.20,-2.51,8.94,8.94,8.95
66.67,11.43,2.52,11.43,2.53,-2.54,-2.24,-2.53,8.89,8.89,8.91
67.33,11.43,2.60,11.43,2.59,-2.59,-2.28,-2.55,8.83,8.84,8.83
68.01,11.43,2.65,11.43,2.66,-2.64,-2.31,-2.57,8.79,8.79,8.78
68.69,11.43,2.72,11.43,2.71,-2.68,-2.35,-2.59,8.75,8.74,8.71
69.37,11.41,2.75,11.40,2.74,-2.72,-2.39,-2.61,8.69,8.68,8.66
70.07,11.36,2.77,11.36,2.77,-2.76,-2.43,-2.63,8.60,8.60,8.59
70.77,11.30,2.77,11.30,2.78,-2.79,-2.47,-2.65,8.51,8.51,8.53
71.48,11.26,2.80,11.26,2.80,-2.83,-2.51,-2.66,8.43,8.43,8.46
72.19,11.23,2.84,11.23,2.84,-2.87,-2.55,-2.68,8.36,8.36,8.39
72.91,11.23,2.90,11.23,2.90,-2.91,-2.59,-2.70,8.31,8.31,8.33
73.64,11.23,2.97,11.23,2.97,-2.96,-2.63,-2.72,8.26,8.26,8.26
74.38,11.23,3.03,11.23,3.03,-3.02,-2.68,-2.74,8.21,8.21,8.20
75.12,11.23,3.10,11.23,3.09,-3.09,-2.72,-2.76,8.14,8.14,8.13
75.87,11.23,3.14,11.23,3.15,-3.15,-2.76,-2.79,8.07,8.07,8.09
76.63,11.23,3.21,11.23,3.21,-3.21,-2.80,-2.81,8.01,8.01,8.02
77.40,11.23,3.26,11.23,3.26,-3.26,-2.85,-2.84,7.97,7.97,7.97
78.17,11.23,3.32,11.24,3.32,-3.30,-2.89,-2.86,7.93,7.94,7.91
78.95,11.23,3.36,11.23,3.37,-3.33,-2.93,-2.89,7.90,7.90,7.87
79.74,11.23,3.42,11.20,3.39,-3.36,-2.98,-2.92,7.87,7.84,7.81
80.54,11.14,3.39,11.14,3.39,-3.38,-3.02,-2.95,7.76,7.76,7.75
81.35,11.06,3.36,11.08,3.38,-3.41,-3.07,-2.99,7.65,7.67,7.70
82.16,11.03,3.38,11.03,3.39,-3.43,-3.11,-3.03,7.59,7.60,7.65
82.98,11.03,3.44,11.02,3.43,-3.47,-3.15,-3.07,7.56,7.55,7.59
83.81,11.03,3.50,11.03,3.50,-3.51,-3.20,-3.11,7.51,7.51,7.53
84.65,11.03,3.56,11.03,3.56,-3.56,-3.25,-3.15,7.46,7.46,7.47
85.50,11.03,3.63,11.03,3.62,-3.62,-3.29,-3.20,7.41,7.41,7.40
86.35,11.03,3.69,11.03,3.69,-3.67,-3.34,-3.25,7.36,7.36,7.34
87.22,11.03,3.74,11.04,3.76,-3.72,-3.38,-3.30,7.31,7.33,7.29
88.09,11.03,3.81,11.02,3.80,-3.76,-3.43,-3.35,7.27,7.26,7.22
88.97,11.02,3.85,10.97,3.81,-3.79,-3.48,-3.41,7.22,7.18,7.17
89.86,10.88,3.79,10.91,3.82,-3.83,-3.52,-3.47,7.05,7.08,7.09
90.76,10.84,3.81,10.86,3.83,-3.87,-3.57,-3.53,6.97,6.99,7.03
91.66,10.84,3.88,10.83,3.87,-3.91,-3.62,-3.59,6.93,6.92,6.96
92.58,10.84,3.94,10.83,3.94,-3.96,-3.67,-3.66,6.88,6.87,6.90
93.51,10.84,4.01,10.84,4.01,-4.02,-3.72,-3.73,6.82,6.82,6.83
94.44,10.84,4.08,10.84,4.08,-4.08,-3.76,-3.80,6.76,6.75,6.76
95.39,10.84,4.16,10.84,4.16,-4.15,-3.81,-3.88,6.69,6.69,6.68
96.34,10.83,4.23,10.84,4.24,-4.21,-3.86,-3.95,6.62,6.63,6.60
97.30,10.83,4.31,10.82,4.30,-4.27,-3.91,-4.03,6.56,6.55,6.52
98.28,10.79,4.36,10.78,4.35,-4.32,-3.96,-4.11,6.47,6.46,6.43
99.26,10.70,4.36,10.71,4.37,-4.37,-4.00,-4.19,6.33,6.35,6.34
100.25,10.66,4.40,10.64,4.38,-4.41,-4.05,-4.28,6.25,6.23,6.26
101.25,10.57,4.38,10.59,4.41,-4.45,-4.10,-4.36,6.12,6.14,6.19
102.27,10.56,4.46,10.56,4.46,-4.48,-4.15,-4.45,6.08,6.08,6.10
103.29,10.54,4.52,10.54,4.51,-4.50,-4.20,-4.53,6.04,6.03,6.02
104.32,10.52,4.57,10.51,4.57,-4.53,-4.25,-4.62,5.99,5.98,5.95
105.37,10.47,4.60,10.45,4.59,-4.56,-4.30,-4.71,5.91,5.90,5.87
106.42,10.37,4.59,10.37,4.59,-4.59,-4.35,-4.80,5.78,5.78,5.78
107.48,10.29,4.60,10.29,4.59,-4.62,-4.39,-4.88,5.67,5.67,5.69
108.56,10.22,4.59,10.23,4.62,-4.65,-4.44,-4.97,5.57,5.59,5.63
109.64,10.20,4.66,10.20,4.66,-4.67,-4.49,-5.05,5.53,5.53,5.54
110.74,10.19,4.73,10.17,4.71,-4.70,-4.54,-5.13,5.49,5.47,5.46
111.85,10.15,4.76,10.13,4.74,-4.73,-4.59,-5.21,5.42,5.40,5.39
112.97,10.06,4.74,10.09,4.77,-4.77,-4.64,-5.29,5.29,5.32,5.32
114.10,10.05,4.80,10.05,4.81,-4.82,-4.68,-5.36,5.23,5.23,5.25
115.24,10.04,4.87,10.02,4.85,-4.87,-4.73,-5.43,5.17,5.15,5.17
116.39,9.99,4.90,9.99,4.90,-4.91,-4.78,-5.50,5.08,5.09,5.09
117.55,9.96,4.93,9.98,4.96,-4.95,-4.82,-5.56,5.01,5.03,5.03
118.73,9.96,5.01,9.96,5.01,-4.99,-4.87,-5.61,4.97,4.98,4.95
119.92,9.97,5.08,9.94,5.05,-5.02,-4.92,-5.66,4.95,4.92,4.89
121.12,9.91,5.07,9.91,5.07,-5.06,-4.96,-5.71,4.85,4.85,4.84
122.33,9.85,5.08,9.86,5.08,-5.09,-5.01,-5.74,4.75,4.76,4.77
123.55,9.80,5.08,9.82,5.10,-5.13,-5.05,-5.77,4.67,4.69,4.72
124.79,9.80,5.14,9.80,5.14,-5.16,-5.10,-5.80,4.64,4.64,4.66
126.03,9.80,5.21,9.77,5.18,-5.19,-5.14,-5.82,4.61,4.59,4.59
127.29,9.75,5.22,9.76,5.23,-5.22,-5.18,-5.83,4.53,4.54,4.53
128.57,9.71,5.24,9.73,5.26,-5.26,-5.23,-5.83,4.45,4.47,4.47
129.85,9.72,5.32,9.69,5.29,-5.30,-5.27,-5.83,4.42,4.40,4.40
131.15,9.66,5.32,9.67,5.33,-5.34,-5.31,-5.82,4.32,4.33,4.34
132.46,9.64,5.36,9.65,5.38,-5.37,-5.35,-5.81,4.27,4.28,4.28
133.79,9.63,5.41,9.63,5.41,-5.40,-5.39,-5.79,4.22,4.22,4.22
135.12,9.63,5.47,9.61,5.44,-5.43,-5.43,-5.77,4.20,4.18,4.16
136.48,9.57,5.45,9.58,5.47,-5.45,-5.47,-5.74,4.12,4.13,4.12
137.84,9.54,5.48,9.54,5.49,-5.47,-5.51,-5.71,4.06,4.06,4.06
139.22,9.49,5.51,9.49,5.49,-5.50,-5.54,-5.68,3.99,3.99,3.98
140.61,9.45,5.51,9.44,5.51,-5.52,-5.58,-5.64,3.93,3.92,3.94
142.02,9.38,5.50,9.39,5.52,-5.55,-5.61,-5.60,3.83,3.85,3.88
143.44,9.36,5.55,9.36,5.55,-5.57,-5.65,-5.56,3.79,3.80,3.81
144.87,9.35,5.59,9.35,5.59,-5.59,-5.68,-5.52,3.76,3.76,3.76
146.32,9.35,5.64,9.34,5.64,-5.61,-5.71,-5.47,3.73,3.73,3.71
147.78,9.32,5.67,9.31,5.66,-5.63,-5.74,-5.43,3.68,3.68,3.65
149.26,9.27,5.67,9.26,5.67,-5.65,-5.77,-5.39,3.62,3.61,3.60
150.75,9.19,5.66,9.21,5.67,-5.67,-5.80,-5.35,3.52,3.54,3.53
152.26,9.15,5.66,9.16,5.67,-5.68,-5.83,-5.31,3.47,3.48,3.49
153.78,9.13,5.70,9.11,5.68,-5.69,-5.86,-5.27,3.44,3.42,3.43
155.32,9.08,5.70,9.07,5.69,-5.70,-5.88,-5.23,3.38,3.37,3.38
156.88,9.01,5.69,9.02,5.70,-5.71,-5.90,-5.20,3.30,3.30,3.32
158.44,8.96,5.70,8.98,5.72,-5.73,-5.93,-5.17,3.23,3.25,3.26
160.03,8.95,5.75,8.95,5.75,-5.75,-5.95,-5.14,3.20,3.20,3.20
161.63,8.94,5.80,8.92,5.78,-5.77,-5.97,-5.11,3.17,3.15,3.14
163.24,8.88,5.81,8.88,5.80,-5.79,-5.99,-5.09,3.09,3.09,3.07
164.88,8.82,5.80,8.82,5.80,-5.81,-6.00,-5.07,3.01,3.00,3.02
166.53,8.75,5.80,8.77,5.81,-5.83,-6.02,-5.05,2.92,2.94,2.95
168.19,8.73,5.83,8.74,5.84,-5.84,-6.03,-5.04,2.89,2.89,2.90
169.87,8.72,5.88,8.69,5.86,-5.84,-6.04,-5.03,2.87,2.85,2.84
171.57,8.65,5.88,8.64,5.87,-5.84,-6.05,-5.02,2.81,2.80,2.77
173.29,8.55,5.84,8.58,5.87,-5.84,-6.06,-5.02,2.71,2.74,2.71
175.02,8.50,5.84,8.50,5.84,-5.84,-6.07,-5.02,2.66,2.66,2.66
176.77,8.46,5.85,8.42,5.82,-5.84,-6.08,-5.03,2.62,2.58,2.61
178.54,8.33,5.78,8.36,5.81,-5.84,-6.08,-5.03,2.48,2.51,2.55
180.32,8.30,5.81,8.32,5.82,-5.85,-6.09,-5.05,2.45,2.47,2.49
182.13,8.30,5.85,8.29,5.85,-5.86,-6.09,-5.07,2.44,2.43,2.45
183.95,8.31,5.91,8.29,5.89,-5.87,-6.09,-5.09,2.43,2.42,2.40
185.79,8.27,5.92,8.27,5.91,-5.89,-6.08,-5.11,2.37,2.37,2.35
187.65,8.23,5.92,8.22,5.92,-5.92,-6.08,-5.14,2.31,2.31,2.31
189.52,8.17,5.91,8.20,5.93,-5.93,-6.08,-5.17,2.23,2.26,2.26
191.42,8.17,5.94,8.17,5.95,-5.94,-6.07,-5.21,2.22,2.22,2.23
193.33,8.17,5.99,8.13,5.96,-5.95,-6.06,-5.25,2.22,2.19,2.18
195.27,8.08,5.95,8.09,5.96,-5.94,-6.05,-5.29,2.13,2.15,2.13
197.22,8.02,5.94,8.03,5.95,-5.94,-6.04,-5.33,2.08,2.09,2.08
199.19,7.98,5.93,7.97,5.93,-5.94,-6.03,-5.38,2.04,2.03,2.05
201.18,7.94,5.94,7.92,5.92,-5.94,-6.01,-5.43,2.00,1.98,2.00
203.19,7.87,5.90,7.88,5.91,-5.94,-6.00,-5.48,1.93,1.94,1.97
205.23,7.83,5.90,7.85,5.91,-5.93,-5.98,-5.53,1.90,1.91,1.93
207.28,7.83,5.93,7.82,5.93,-5.93,-5.96,-5.59,1.90,1.89,1.90
209.35,7.81,5.95,7.79,5.94,-5.92,-5.94,-5.64,1.89,1.87,1.86
211.44,7.75,5.94,7.75,5.94,-5.91,-5.92,-5.70,1.84,1.84,1.81
213.56,7.68,5.90,7.69,5.91,-5.89,-5.89,-5.76,1.78,1.79,1.78
215.69,7.63,5.89,7.61,5.88,-5.88,-5.87,-5.81,1.75,1.74,1.74
217.85,7.54,5.83,7.55,5.85,-5.85,-5.84,-5.87,1.69,1.70,1.71
220.03,7.48,5.82,7.48,5.81,-5.82,-5.81,-5.92,1.66,1.66,1.66
222.23,7.43,5.79,7.41,5.77,-5.79,-5.78,-5.97,1.64,1.62,1.64
224.45,7.34,5.73,7.37,5.76,-5.76,-5.75,-6.02,1.58,1.61,1.61
226.70,7.31,5.73,7.32,5.73,-5.73,-5.72,-6.06,1.58,1.59,1.58
228.96,7.31,5.75,7.25,5.69,-5.70,-5.69,-6.10,1.61,1.55,1.56
231.25,7.18,5.63,7.20,5.66,-5.67,-5.65,-6.14,1.50,1.53,1.55
233.57,7.13,5.61,7.16,5.64,-5.64,-5.61,-6.17,1.48,1.52,1.52
235.90,7.14,5.63,7.12,5.62,-5.62,-5.58,-6.19,1.52,1.51,1.51
238.26,7.13,5.64,7.10,5.61,-5.59,-5.54,-6.21,1.54,1.52,1.49
240.64,7.05,5.55,7.06,5.57,-5.55,-5.50,-6.22,1.50,1.51,1.50
243.05,7.00,5.51,7.00,5.52,-5.52,-5.46,-6.22,1.48,1.48,1.49
245.48,6.94,5.47,6.94,5.47,-5.49,-5.42,-6.21,1.45,1.45,1.47
247.93,6.92,5.46,6.91,5.44,-5.45,-5.37,-6.20,1.46,1.46,1.46
250.41,6.86,5.39,6.88,5.42,-5.42,-5.33,-6.18,1.44,1.47,1.47
252.92,6.87,5.40,6.84,5.38,-5.37,-5.29,-6.15,1.50,1.47,1.47
255.45,6.80,5.35,6.79,5.34,-5.33,-5.24,-6.11,1.47,1.47,1.45
258.00,6.72,5.28,6.75,5.31,-5.29,-5.19,-6.06,1.43,1.46,1.44
260.58,6.69,5.26,6.67,5.25,-5.24,-5.15,-6.01,1.44,1.43,1.43
263.19,6.63,5.21,6.60,5.19,-5.20,-5.10,-5.95,1.42,1.40,1.42
265.82,6.51,5.11,6.55,5.14,-5.16,-5.05,-5.88,1.35,1.39,1.40
268.48,6.49,5.09,6.49,5.10,-5.12,-5.00,-5.80,1.37,1.37,1.40
271.16,6.48,5.10,6.45,5.07,-5.08,-4.95,-5.72,1.40,1.37,1.38
273.87,6.41,5.04,6.42,5.05,-5.04,-4.90,-5.63,1.37,1.38,1.37
276.61,6.36,5.01,6.36,5.01,-4.99,-4.84,-5.54,1.37,1.37,1.35
279.38,6.29,4.97,6.29,4.96,-4.94,-4.79,-5.44,1.35,1.35,1.32
282.17,6.22,4.90,6.22,4.90,-4.89,-4.74,-5.34,1.33,1.33,1.32
284.99,6.17,4.85,6.15,4.84,-4.83,-4.68,-5.24,1.34,1.32,1.32
287.84,6.06,4.74,6.07,4.76,-4.78,-4.63,-5.13,1.28,1.30,1.32
290.72,6.01,4.71,6.00,4.69,-4.71,-4.57,-5.02,1.29,1.29,1.30
293.63,5.93,4.62,5.94,4.63,-4.65,-4.52,-4.91,1.28,1.29,1.31
296.57,5.89,4.58,5.89,4.58,-4.59,-4.46,-4.80,1.30,1.30,1.31
299.53,5.85,4.55,5.84,4.53,-4.52,-4.41,-4.68,1.33,1.32,1.30
302.53,5.78,4.47,5.79,4.49,-4.46,-4.35,-4.57,1.32,1.33,1.31
305.55,5.74,4.44,5.73,4.42,-4.40,-4.29,-4.46,1.34,1.32,1.30
308.61,5.66,4.35,5.64,4.34,-4.35,-4.23,-4.34,1.31,1.29,1.31
311.69,5.55,4.26,5.56,4.27,-4.30,-4.17,-4.23,1.25,1.26,1.29
314.81,5.48,4.18,5.50,4.21,-4.25,-4.12,-4.12,1.23,1.25,1.30
317.96,5.47,4.19,5.47,4.18,-4.20,-4.06,-4.01,1.27,1.27,1.28
321.14,5.47,4.18,5.44,4.16,-4.15,-4.00,-3.90,1.32,1.29,1.29
324.35,5.40,4.12,5.41,4.13,-4.10,-3.94,-3.80,1.30,1.31,1.28
327.59,5.35,4.06,5.35,4.07,-4.05,-3.88,-3.69,1.30,1.30,1.29
330.87,5.29,4.01,5.28,4.01,-3.99,-3.82,-3.59,1.30,1.29,1.28
334.18,5.20,3.93,5.21,3.94,-3.93,-3.75,-3.49,1.27,1.28,1.27
337.52,5.15,3.87,5.12,3.85,-3.85,-3.69,-3.39,1.30,1.27,1.28
340.90,5.02,3.75,5.04,3.76,-3.77,-3.63,-3.30,1.25,1.27,1.27
344.30,4.95,3.67,4.96,3.68,-3.68,-3.57,-3.20,1.27,1.28,1.28
347.75,4.89,3.60,4.88,3.61,-3.60,-3.51,-3.11,1.29,1.29,1.29
351.23,4.82,3.55,4.80,3.52,-3.52,-3.45,-3.02,1.30,1.28,1.27
354.74,4.72,3.43,4.70,3.42,-3.44,-3.38,-2.94,1.27,1.25,1.29
358.28,4.58,3.29,4.64,3.35,-3.37,-3.32,-2.85,1.21,1.27,1.29
361.87,4.58,3.29,4.59,3.30,-3.30,-3.26,-2.77,1.27,1.28,1.29
365.49,4.62,3.32,4.54,3.24,-3.23,-3.20,-2.69,1.38,1.30,1.30
369.14,4.47,3.16,4.51,3.20,-3.17,-3.13,-2.61,1.30,1.34,1.31
372.83,4.40,3.08,4.43,3.12,-3.10,-3.07,-2.54,1.30,1.33,1.32
376.56,4.40,3.09,4.35,3.03,-3.04,-3.01,-2.46,1.36,1.31,1.31
380.33,4.27,2.96,4.28,2.97,-2.98,-2.94,-2.39,1.29,1.31,1.31
384.13,4.19,2.87,4.20,2.89,-2.90,-2.88,-2.32,1.28,1.30,1.32
387.97,4.13,2.81,4.13,2.82,-2.83,-2.81,-2.25,1.30,1.30,1.32
391.85,4.08,2.77,4.08,2.77,-2.75,-2.75,-2.19,1.33,1.33,1.31
395.77,4.03,2.73,4.02,2.71,-2.68,-2.68,-2.13,1.35,1.34,1.30
399.73,3.94,2.64,3.92,2.61,-2.62,-2.62,-2.06,1.32,1.30,1.30
403.72,3.81,2.50,3.82,2.52,-2.55,-2.55,-2.00,1.25,1.27,1.31
407.76,3.70,2.41,3.75,2.45,-2.49,-2.49,-1.94,1.21,1.26,1.29
411.84,3.72,2.44,3.68,2.40,-2.42,-2.42,-1.89,1.30,1.26,1.28
415.96,3.66,2.38,3.64,2.37,-2.35,-2.36,-1.83,1.31,1.29,1.28
420.12,3.55,2.28,3.61,2.33,-2.27,-2.29,-1.78,1.28,1.33,1.27
424.32,3.56,2.28,3.52,2.23,-2.20,-2.23,-1.72,1.36,1.32,1.28
428.56,3.46,2.16,3.41,2.12,-2.13,-2.16,-1.67,1.33,1.29,1.30
432.85,3.28,1.96,3.35,2.03,-2.05,-2.09,-1.62,1.23,1.29,1.32
437.18,3.25,1.92,3.27,1.94,-1.98,-2.02,-1.57,1.27,1.30,1.33
441.55,3.30,1.94,3.23,1.87,-1.89,-1.96,-1.52,1.40,1.34,1.36
445.96,3.21,1.81,3.24,1.84,-1.82,-1.89,-1.47,1.39,1.42,1.40
450.42,3.19,1.75,3.20,1.76,-1.75,-1.82,-1.42,1.44,1.45,1.44
454.93,3.22,1.73,3.16,1.67,-1.69,-1.75,-1.37,1.53,1.47,1.49
459.48,3.10,1.55,3.18,1.63,-1.63,-1.68,-1.32,1.47,1.55,1.55
464.07,3.19,1.57,3.18,1.57,-1.57,-1.62,-1.27,1.61,1.61,1.62
468.71,3.25,1.58,3.16,1.49,-1.51,-1.55,-1.22,1.74,1.65,1.67
473.40,3.12,1.39,3.19,1.46,-1.44,-1.48,-1.17,1.68,1.75,1.73
478.13,3.14,1.35,3.18,1.39,-1.37,-1.41,-1.13,1.77,1.81,1.79
482.91,3.24,1.40,3.14,1.31,-1.29,-1.34,-1.08,1.94,1.85,1.84
487.74,3.09,1.22,3.10,1.23,-1.22,-1.26,-1.03,1.87,1.89,1.87
492.62,2.99,1.08,3.03,1.12,-1.13,-1.19,-0.98,1.86,1.90,1.91
