frequency,raw,error,smoothed,error_smoothed,equalization,parametric_eq,fixed_band_eq,equalized_raw,equalized_smoothed,target
20.00,11.13,-0.43,11.18,-0.38,0.38,-0.26,-0.06,11.51,11.56,11.56
20.20,11.17,-0.38,11.20,-0.35,0.35,-0.27,-0.06,11.52,11.55,11.55
20.40,11.21,-0.33,11.22,-0.33,0.33,-0.28,-0.05,11.53,11.54,11.54
20.61,11.25,-0.29,11.24,-0.30,0.30,-0.28,-0.05,11.55,11.53,11.54
20.81,11.29,-0.23,11.25,-0.27,0.27,-0.29,-0.05,11.56,11.53,11.52
21.02,11.33,-0.19,11.27,-0.25,0.25,-0.29,-0.05,11.58,11.52,11.52
21.23,11.33,-0.18,11.28,-0.23,0.23,-0.30,-0.05,11.56,11.51,11.51
21.44,11.33,-0.19,11.30,-0.21,0.21,-0.30,-0.05,11.53,11.50,11.52
21.66,11.33,-0.18,11.31,-0.19,0.19,-0.31,-0.05,11.51,11.50,11.51
21.87,11.33,-0.17,11.32,-0.17,0.17,-0.31,-0.05,11.50,11.49,11.50
22.09,11.33,-0.16,11.33,-0.15,0.15,-0.32,-0.05,11.48,11.49,11.49
22.31,11.33,-0.16,11.35,-0.13,0.13,-0.33,-0.05,11.46,11.48,11.49
22.54,11.33,-0.15,11.35,-0.12,0.12,-0.33,-0.04,11.45,11.48,11.48
22.76,11.33,-0.14,11.36,-0.11,0.11,-0.34,-0.04,11.44,11.47,11.47
22.99,11.33,-0.13,11.36,-0.10,0.10,-0.35,-0.04,11.43,11.47,11.46
23.22,11.35,-0.10,11.37,-0.10,0.10,-0.35,-0.04,11.44,11.46,11.45
23.45,11.38,-0.08,11.38,-0.08,0.08,-0.36,-0.04,11.46,11.46,11.46
23.69,11.40,-0.05,11.38,-0.07,0.07,-0.37,-0.04,11.47,11.46,11.45
23.92,11.42,-0.03,11.39,-0.07,0.07,-0.37,-0.04,11.48,11.46,11.45
24.16,11.43,-0.03,11.40,-0.06,0.06,-0.38,-0.04,11.49,11.46,11.46
24.40,11.43,-0.04,11.41,-0.05,0.05,-0.39,-0.03,11.48,11.46,11.47
24.65,11.43,-0.04,11.42,-0.04,0.04,-0.40,-0.03,11.47,11.46,11.47
24.89,11.43,-0.04,11.43,-0.03,0.03,-0.40,-0.03,11.46,11.46,11.47
25.14,11.43,-0.03,11.44,-0.03,0.03,-0.41,-0.03,11.45,11.46,11.46
25.39,11.43,-0.03,11.45,-0.02,0.02,-0.42,-0.03,11.45,11.47,11.46
25.65,11.43,-0.03,11.46,-0.01,0.01,-0.43,-0.03,11.44,11.47,11.46
25.91,11.43,-0.04,11.46,-0.01,0.01,-0.44,-0.03,11.44,11.47,11.47
26.16,11.45,-0.03,11.47,-0.00,0.00,-0.44,-0.03,11.45,11.47,11.48
26.43,11.47,-0.01,11.48,0.01,-0.01,-0.45,-0.03,11.46,11.47,11.48
26.69,11.50,0.02,11.49,0.01,-0.01,-0.46,-0.03,11.49,11.47,11.48
26.96,11.53,0.06,11.49,0.02,-0.02,-0.47,-0.03,11.51,11.47,11.47
27.23,11.53,0.06,11.50,0.03,-0.03,-0.48,-0.03,11.50,11.47,11.47
27.50,11.53,0.06,11.51,0.04,-0.04,-0.49,-0.03,11.49,11.47,11.47
27.77,11.53,0.05,11.51,0.04,-0.04,-0.50,-0.03,11.49,11.47,11.48
28.05,11.53,0.05,11.52,0.05,-0.05,-0.51,-0.03,11.48,11.47,11.48
28.33,11.53,0.07,11.53,0.06,-0.06,-0.52,-0.04,11.47,11.47,11.46
28.62,11.53,0.07,11.54,0.07,-0.07,-0.53,-0.04,11.46,11.47,11.46
28.90,11.53,0.06,11.54,0.08,-0.08,-0.54,-0.04,11.45,11.47,11.47
29.19,11.53,0.06,11.55,0.08,-0.08,-0.55,-0.05,11.44,11.46,11.47
29.48,11.54,0.08,11.55,0.09,-0.09,-0.56,-0.05,11.45,11.46,11.46
29.78,11.55,0.09,11.56,0.10,-0.10,-0.57,-0.06,11.45,11.46,11.46
30.08,11.56,0.09,11.57,0.11,-0.11,-0.58,-0.07,11.44,11.45,11.47
30.38,11.58,0.12,11.58,0.13,-0.13,-0.59,-0.07,11.44,11.45,11.46
30.68,11.61,0.17,11.60,0.15,-0.15,-0.60,-0.08,11.45,11.44,11.44
30.99,11.64,0.20,11.61,0.18,-0.18,-0.61,-0.09,11.46,11.43,11.44
31.30,11.64,0.21,11.63,0.20,-0.20,-0.62,-0.10,11.44,11.43,11.43
31.61,11.63,0.21,11.64,0.22,-0.22,-0.64,-0.11,11.41,11.42,11.42
31.93,11.63,0.22,11.66,0.25,-0.25,-0.65,-0.12,11.38,11.42,11.41
32.24,11.66,0.25,11.68,0.27,-0.27,-0.66,-0.14,11.39,11.41,11.41
32.57,11.69,0.30,11.69,0.29,-0.29,-0.67,-0.15,11.40,11.40,11.39
32.89,11.73,0.34,11.70,0.31,-0.31,-0.68,-0.17,11.42,11.40,11.39
33.22,11.74,0.35,11.71,0.32,-0.32,-0.70,-0.18,11.42,11.39,11.39
33.55,11.74,0.36,11.72,0.34,-0.34,-0.71,-0.20,11.40,11.38,11.38
33.89,11.74,0.35,11.73,0.35,-0.35,-0.72,-0.21,11.39,11.38,11.39
34.23,11.74,0.37,11.73,0.36,-0.36,-0.74,-0.23,11.38,11.38,11.37
34.57,11.74,0.37,11.74,0.37,-0.37,-0.75,-0.25,11.37,11.37,11.37
34.92,11.74,0.38,11.74,0.38,-0.38,-0.76,-0.27,11.36,11.36,11.36
35.27,11.74,0.37,11.75,0.39,-0.39,-0.78,-0.29,11.35,11.36,11.37
35.62,11.74,0.39,11.75,0.40,-0.40,-0.79,-0.31,11.34,11.35,11.35
35.97,11.74,0.39,11.74,0.41,-0.41,-0.81,-0.34,11.33,11.34,11.35
36.33,11.74,0.41,11.74,0.42,-0.42,-0.82,-0.36,11.32,11.33,11.33
36.70,11.74,0.42,11.74,0.43,-0.43,-0.84,-0.38,11.31,11.31,11.32
37.06,11.74,0.44,11.74,0.45,-0.45,-0.85,-0.41,11.29,11.29,11.30
37.43,11.74,0.46,11.74,0.47,-0.47,-0.87,-0.43,11.27,11.27,11.28
37.81,11.74,0.48,11.74,0.49,-0.49,-0.88,-0.46,11.25,11.25,11.26
38.19,11.74,0.51,11.74,0.51,-0.51,-0.90,-0.49,11.23,11.23,11.23
38.57,11.74,0.53,11.74,0.53,-0.53,-0.92,-0.51,11.21,11.20,11.21
38.95,11.74,0.56,11.73,0.55,-0.55,-0.93,-0.54,11.19,11.18,11.18
39.34,11.74,0.60,11.72,0.57,-0.57,-0.95,-0.57,11.17,11.15,11.14
39.74,11.74,0.62,11.72,0.59,-0.59,-0.97,-0.60,11.15,11.12,11.12
40.14,11.73,0.64,11.71,0.61,-0.61,-0.99,-0.63,11.12,11.10,11.09
40.54,11.71,0.64,11.70,0.63,-0.63,-1.00,-0.66,11.08,11.07,11.07
40.94,11.69,0.65,11.69,0.65,-0.65,-1.02,-0.69,11.04,11.04,11.04
41.35,11.67,0.65,11.68,0.66,-0.66,-1.04,-0.72,11.00,11.02,11.02
41.76,11.65,0.67,11.67,0.68,-0.68,-1.06,-0.75,10.97,10.99,10.98
42.18,11.64,0.68,11.66,0.70,-0.70,-1.08,-0.79,10.94,10.96,10.96
42.60,11.64,0.70,11.65,0.72,-0.72,-1.10,-0.82,10.92,10.93,10.94
43.03,11.64,0.73,11.65,0.74,-0.74,-1.12,-0.86,10.90,10.91,10.91
43.46,11.64,0.76,11.64,0.76,-0.76,-1.14,-0.89,10.88,10.88,10.88
43.90,11.64,0.78,11.64,0.78,-0.78,-1.16,-0.93,10.86,10.85,10.86
44.33,11.64,0.82,11.63,0.81,-0.81,-1.18,-0.96,10.83,10.82,10.82
44.78,11.64,0.85,11.63,0.84,-0.84,-1.20,-1.00,10.80,10.79,10.79
45.23,11.64,0.86,11.63,0.87,-0.87,-1.22,-1.04,10.77,10.76,10.78
45.68,11.64,0.91,11.64,0.91,-0.91,-1.24,-1.08,10.73,10.73,10.73
46.13,11.64,0.95,11.64,0.95,-0.95,-1.26,-1.12,10.69,10.69,10.69
46.60,11.64,0.98,11.64,0.98,-0.98,-1.29,-1.16,10.65,10.65,10.66
47.06,11.64,1.02,11.64,1.03,-1.03,-1.31,-1.20,10.61,10.61,10.62
47.53,11.64,1.05,11.64,1.07,-1.07,-1.33,-1.24,10.57,10.57,10.59
48.01,11.64,1.11,11.64,1.11,-1.11,-1.35,-1.28,10.53,10.53,10.53
48.49,11.64,1.16,11.64,1.15,-1.15,-1.38,-1.32,10.48,10.48,10.48
48.97,11.64,1.20,11.64,1.20,-1.20,-1.40,-1.36,10.44,10.44,10.44
49.46,11.64,1.24,11.64,1.24,-1.24,-1.43,-1.41,10.39,10.39,10.40
49.96,11.64,1.31,11.64,1.29,-1.29,-1.45,-1.45,10.35,10.35,10.33
50.46,11.64,1.35,11.64,1.34,-1.34,-1.48,-1.50,10.30,10.30,10.29
50.96,11.64,1.39,11.64,1.38,-1.38,-1.50,-1.54,10.26,10.26,10.25
51.47,11.64,1.43,11.64,1.43,-1.43,-1.53,-1.58,10.21,10.21,10.21
51.99,11.64,1.48,11.64,1.48,-1.48,-1.55,-1.63,10.16,10.16,10.16
52.51,11.64,1.52,11.64,1.53,-1.53,-1.58,-1.67,10.11,10.11,10.12
53.03,11.64,1.55,11.65,1.58,-1.58,-1.61,-1.72,10.06,10.07,10.09
53.56,11.64,1.61,11.65,1.63,-1.63,-1.63,-1.76,10.01,10.02,10.03
54.10,11.64,1.66,11.65,1.67,-1.67,-1.66,-1.81,9.97,9.98,9.98
54.64,11.64,1.70,11.65,1.71,-1.71,-1.69,-1.85,9.93,9.93,9.94
55.18,11.64,1.76,11.64,1.74,-1.74,-1.72,-1.90,9.89,9.89,9.88
55.74,11.64,1.81,11.62,1.77,-1.77,-1.75,-1.94,9.87,9.85,9.83
56.29,11.64,1.84,11.61,1.80,-1.80,-1.77,-1.98,9.84,9.81,9.80
56.86,11.64,1.88,11.59,1.83,-1.83,-1.80,-2.03,9.81,9.76,9.76
57.42,11.63,1.93,11.57,1.86,-1.86,-1.83,-2.07,9.77,9.72,9.70
58.00,11.62,1.95,11.55,1.88,-1.88,-1.86,-2.11,9.74,9.67,9.67
58.58,11.53,1.89,11.53,1.91,-1.91,-1.89,-2.15,9.62,9.62,9.64
59.16,11.46,1.86,11.51,1.94,-1.94,-1.93,-2.18,9.52,9.58,9.60
59.76,11.44,1.88,11.49,1.97,-1.97,-1.96,-2.22,9.47,9.53,9.56
60.35,11.43,1.94,11.48,2.00,-2.00,-1.99,-2.25,9.43,9.48,9.49
60.96,11.43,1.99,11.46,2.04,-2.04,-2.02,-2.29,9.39,9.42,9.44
61.57,11.43,2.06,11.44,2.07,-2.07,-2.05,-2.32,9.35,9.37,9.37
62.18,11.43,2.13,11.43,2.12,-2.12,-2.09,-2.35,9.31,9.31,9.30
62.80,11.43,2.19,11.43,2.17,-2.17,-2.12,-2.38,9.26,9.25,9.24
63.43,11.43,2.25,11.42,2.23,-2.23,-2.15,-2.41,9.20,9.20,9.18
64.07,11.43,2.30,11.43,2.29,-2.29,-2.19,-2.43,9.14,9.14,9.13
64.71,11.43,2.36,11.43,2.35,-2.35,-2.22,-2.46,9.07,9.07,9.07
65.35,11.43,2.42,11.43,2.42,-2.42,-2.26,-2.48,9.01,9.01,9.01
66.01,11.43,2.48,11.43,2.48,-2.48,-2.29,-2.50,8.95,8.95,8.95
66.67,11.43,2.52,11.42,2.53,-2.53,-2.33,-2.52,8.90,8.89,8.91
67.33,11.43,2.60,11.41,2.58,-2.58,-2.36,-2.54,8.85,8.83,8.83
68.01,11.43,2.65,11.39,2.62,-2.62,-2.40,-2.56,8.81,8.77,8.78
68.69,11.43,2.72,11.38,2.67,-2.67,-2.44,-2.58,8.76,8.71,8.71
69.37,11.41,2.75,11.36,2.71,-2.71,-2.48,-2.60,8.70,8.65,8.66
70.07,11.36,2.77,11.34,2.75,-2.75,-2.51,-2.62,8.60,8.58,8.59
70.77,11.30,2.77,11.32,2.80,-2.80,-2.55,-2.64,8.50,8.52,8.53
71.48,11.26,2.80,11.30,2.84,-2.84,-2.59,-2.66,8.41,8.46,8.46
72.19,11.23,2.84,11.29,2.89,-2.89,-2.63,-2.68,8.33,8.39,8.39
72.91,11.23,2.90,11.28,2.95,-2.95,-2.67,-2.69,8.28,8.33,8.33
73.64,11.23,2.97,11.26,3.00,-3.00,-2.71,-2.72,8.23,8.27,8.26
74.38,11.23,3.03,11.25,3.05,-3.05,-2.75,-2.74,8.18,8.20,8.20
75.12,11.23,3.10,11.24,3.09,-3.09,-2.79,-2.76,8.14,8.15,8.13
75.87,11.23,3.14,11.22,3.13,-3.13,-2.83,-2.78,8.09,8.09,8.09
76.63,11.23,3.21,11.21,3.18,-3.18,-2.87,-2.81,8.05,8.03,8.02
77.40,11.23,3.26,11.19,3.22,-3.22,-2.91,-2.83,8.01,7.97,7.97
78.17,11.23,3.32,11.18,3.26,-3.26,-2.95,-2.86,7.96,7.92,7.91
78.95,11.23,3.36,11.17,3.31,-3.31,-3.00,-2.89,7.92,7.86,7.87
79.74,11.23,3.42,11.15,3.35,-3.35,-3.04,-2.92,7.88,7.80,7.81
80.54,11.14,3.39,11.14,3.39,-3.39,-3.08,-2.96,7.75,7.75,7.75
81.35,11.06,3.36,11.13,3.43,-3.43,-3.12,-2.99,7.63,7.69,7.70
82.16,11.03,3.38,11.11,3.47,-3.47,-3.17,-3.03,7.56,7.64,7.65
82.98,11.03,3.44,11.09,3.51,-3.51,-3.21,-3.07,7.52,7.58,7.59
83.81,11.03,3.50,11.06,3.54,-3.54,-3.26,-3.11,7.49,7.53,7.53
84.65,11.03,3.56,11.04,3.57,-3.57,-3.30,-3.16,7.45,7.47,7.47
85.50,11.03,3.63,11.02,3.61,-3.61,-3.35,-3.20,7.42,7.41,7.40
86.35,11.03,3.69,10.99,3.64,-3.64,-3.39,-3.25,7.38,7.35,7.34
87.22,11.03,3.74,10.97,3.68,-3.68,-3.44,-3.30,7.35,7.29,7.29
88.09,11.03,3.81,10.95,3.73,-3.73,-3.48,-3.36,7.30,7.22,7.22
88.97,11.02,3.85,10.94,3.78,-3.78,-3.53,-3.42,7.24,7.16,7.17
89.86,10.88,3.79,10.93,3.84,-3.84,-3.57,-3.48,7.04,7.10,7.09
90.76,10.84,3.81,10.92,3.89,-3.89,-3.62,-3.54,6.94,7.03,7.03
91.66,10.84,3.88,10.91,3.95,-3.95,-3.67,-3.60,6.89,6.96,6.96
92.58,10.84,3.94,10.89,3.99,-3.99,-3.71,-3.67,6.84,6.89,6.90
93.51,10.84,4.01,10.86,4.04,-4.04,-3.76,-3.74,6.80,6.82,6.83
94.44,10.84,4.08,10.83,4.09,-4.09,-3.81,-3.81,6.75,6.74,6.76
95.39,10.84,4.16,10.81,4.14,-4.14,-3.85,-3.89,6.70,6.67,6.68
96.34,10.83,4.23,10.79,4.19,-4.19,-3.90,-3.97,6.63,6.59,6.60
97.30,10.83,4.31,10.76,4.25,-4.25,-3.95,-4.04,6.58,6.51,6.52
98.28,10.79,4.36,10.73,4.30,-4.30,-4.00,-4.13,6.49,6.43,6.43
99.26,10.70,4.36,10.70,4.35,-4.35,-4.04,-4.21,6.35,6.35,6.34
100.25,10.66,4.40,10.67,4.40,-4.40,-4.09,-4.29,6.26,6.27,6.26
101.25,10.57,4.38,10.63,4.44,-4.44,-4.14,-4.38,6.13,6.19,6.19
102.27,10.56,4.46,10.58,4.48,-4.48,-4.19,-4.47,6.08,6.10,6.10
103.29,10.54,4.52,10.53,4.51,-4.51,-4.24,-4.55,6.03,6.02,6.02
104.32,10.52,4.57,10.47,4.53,-4.53,-4.28,-4.64,5.98,5.94,5.95
105.37,10.47,4.60,10.42,4.56,-4.56,-4.33,-4.73,5.91,5.86,5.87
106.42,10.37,4.59,10.37,4.59,-4.59,-4.38,-4.82,5.78,5.78,5.78
107.48,10.29,4.60,10.31,4.61,-4.61,-4.43,-4.90,5.68,5.70,5.69
108.56,10.22,4.59,10.26,4.64,-4.64,-4.48,-4.99,5.58,5.62,5.63
109.64,10.20,4.66,10.22,4.68,-4.68,-4.52,-5.08,5.52,5.54,5.54
110.74,10.19,4.73,10.18,4.72,-4.72,-4.57,-5.16,5.47,5.47,5.46
111.85,10.15,4.76,10.14,4.75,-4.75,-4.62,-5.24,5.39,5.39,5.39
112.97,10.06,4.74,10.10,4.79,-4.79,-4.67,-5.32,5.27,5.31,5.32
114.10,10.05,4.80,10.06,4.82,-4.82,-4.71,-5.39,5.23,5.24,5.25
115.24,10.04,4.87,10.03,4.86,-4.86,-4.76,-5.46,5.18,5.17,5.17
116.39,9.99,4.90,9.99,4.89,-4.89,-4.81,-5.53,5.09,5.10,5.09
117.55,9.96,4.93,9.97,4.93,-4.93,-4.85,-5.59,5.02,5.03,5.03
118.73,9.96,5.01,9.94,4.98,-4.98,-4.90,-5.64,4.98,4.97,4.95
119.92,9.97,5.08,9.92,5.02,-5.02,-4.95,-5.69,4.95,4.90,4.89
121.12,9.91,5.07,9.89,5.05,-5.05,-4.99,-5.73,4.86,4.83,4.84
122.33,9.85,5.08,9.86,5.09,-5.09,-5.04,-5.77,4.76,4.77,4.77
123.55,9.80,5.08,9.83,5.12,-5.12,-5.08,-5.80,4.67,4.71,4.72
124.79,9.80,5.14,9.81,5.16,-5.16,-5.12,-5.83,4.64,4.65,4.66
126.03,9.80,5.21,9.79,5.20,-5.20,-5.17,-5.84,4.60,4.58,4.59
127.29,9.75,5.22,9.76,5.24,-5.24,-5.21,-5.85,4.51,4.52,4.53
128.57,9.71,5.24,9.73,5.27,-5.27,-5.25,-5.86,4.44,4.46,4.47
129.85,9.72,5.32,9.70,5.30,-5.30,-5.30,-5.86,4.42,4.40,4.40
131.15,9.66,5.32,9.67,5.33,-5.33,-5.34,-5.85,4.33,4.34,4.34
132.46,9.64,5.36,9.64,5.35,-5.35,-5.38,-5.84,4.28,4.29,4.28
133.79,9.63,5.41,9.61,5.39,-5.39,-5.42,-5.82,4.24,4.22,4.22
135.12,9.63,5.47,9.59,5.42,-5.42,-5.46,-5.79,4.21,4.17,4.16
136.48,9.57,5.45,9.56,5.45,-5.45,-5.49,-5.76,4.12,4.11,4.12
137.84,9.54,5.48,9.53,5.48,-5.48,-5.53,-5.73,4.06,4.05,4.06
139.22,9.49,5.51,9.49,5.51,-5.51,-5.57,-5.70,3.98,3.99,3.98
140.61,9.45,5.51,9.46,5.53,-5.53,-5.60,-5.66,3.92,3.93,3.94
142.02,9.38,5.50,9.43,5.55,-5.55,-5.64,-5.62,3.82,3.88,3.88
143.44,9.36,5.55,9.39,5.57,-5.57,-5.67,-5.58,3.78,3.82,3.81
144.87,9.35,5.59,9.35,5.59,-5.59,-5.70,-5.54,3.76,3.76,3.76
146.32,9.35,5.64,9.32,5.61,-5.61,-5.73,-5.49,3.74,3.71,3.71
147.78,9.32,5.67,9.28,5.62,-5.62,-5.77,-5.45,3.69,3.65,3.65
149.26,9.27,5.67,9.24,5.64,-5.64,-5.79,-5.41,3.63,3.60,3.60
150.75,9.19,5.66,9.20,5.66,-5.66,-5.82,-5.37,3.53,3.54,3.53
152.26,9.15,5.66,9.16,5.68,-5.68,-5.85,-5.32,3.47,3.48,3.49
153.78,9.13,5.70,9.12,5.69,-5.69,-5.88,-5.29,3.44,3.43,3.43
155.32,9.08,5.70,9.08,5.71,-5.71,-5.90,-5.25,3.37,3.37,3.38
156.88,9.01,5.69,9.04,5.73,-5.73,-5.92,-5.21,3.28,3.31,3.32
158.44,8.96,5.70,9.00,5.75,-5.75,-5.95,-5.18,3.21,3.25,3.26
160.03,8.95,5.75,8.96,5.76,-5.76,-5.97,-5.15,3.18,3.19,3.20
161.63,8.94,5.80,8.91,5.78,-5.78,-5.98,-5.12,3.16,3.14,3.14
163.24,8.88,5.81,8.86,5.79,-5.79,-6.00,-5.10,3.09,3.07,3.07
164.88,8.82,5.80,8.81,5.80,-5.80,-6.02,-5.08,3.02,3.01,3.02
166.53,8.75,5.80,8.76,5.81,-5.81,-6.03,-5.06,2.94,2.95,2.95
168.19,8.73,5.83,8.71,5.82,-5.82,-6.05,-5.05,2.91,2.89,2.90
169.87,8.72,5.88,8.66,5.83,-5.83,-6.06,-5.04,2.89,2.83,2.84
171.57,8.65,5.88,8.61,5.83,-5.83,-6.07,-5.03,2.82,2.77,2.77
173.29,8.55,5.84,8.56,5.84,-5.84,-6.08,-5.03,2.71,2.72,2.71
175.02,8.50,5.84,8.51,5.85,-5.85,-6.09,-5.03,2.65,2.66,2.66
176.77,8.46,5.85,8.46,5.86,-5.86,-6.09,-5.03,2.60,2.61,2.61
178.54,8.33,5.78,8.41,5.86,-5.86,-6.09,-5.04,2.47,2.55,2.55
180.32,8.30,5.81,8.37,5.87,-5.87,-6.10,-5.05,2.43,2.50,2.49
182.13,8.30,5.85,8.33,5.88,-5.88,-6.10,-5.07,2.42,2.45,2.45
183.95,8.31,5.91,8.29,5.89,-5.89,-6.10,-5.09,2.42,2.40,2.40
185.79,8.27,5.92,8.25,5.90,-5.90,-6.10,-5.12,2.37,2.35,2.35
187.65,8.23,5.92,8.21,5.90,-5.90,-6.09,-5.14,2.33,2.30,2.31
189.52,8.17,5.91,8.17,5.91,-5.91,-6.09,-5.18,2.26,2.26,2.26
191.42,8.17,5.94,8.14,5.92,-5.92,-6.08,-5.21,2.25,2.22,2.23
193.33,8.17,5.99,8.10,5.93,-5.93,-6.07,-5.25,2.24,2.17,2.18
195.27,8.08,5.95,8.07,5.94,-5.94,-6.06,-5.29,2.14,2.13,2.13
197.22,8.02,5.94,8.04,5.95,-5.95,-6.05,-5.33,2.07,2.09,2.08
199.19,7.98,5.93,8.00,5.95,-5.95,-6.03,-5.38,2.03,2.05,2.05
201.18,7.94,5.94,7.96,5.95,-5.95,-6.02,-5.43,1.99,2.01,2.00
203.19,7.87,5.90,7.91,5.94,-5.94,-6.00,-5.48,1.92,1.97,1.97
205.23,7.83,5.90,7.86,5.93,-5.93,-5.98,-5.53,1.90,1.93,1.93
207.28,7.83,5.93,7.81,5.93,-5.93,-5.96,-5.59,1.90,1.89,1.90
209.35,7.81,5.95,7.76,5.92,-5.92,-5.94,-5.64,1.89,1.85,1.86
211.44,7.75,5.94,7.71,5.90,-5.90,-5.92,-5.70,1.85,1.81,1.81
213.56,7.68,5.90,7.65,5.88,-5.88,-5.90,-5.76,1.80,1.77,1.78
215.69,7.63,5.89,7.60,5.86,-5.86,-5.87,-5.81,1.77,1.74,1.74
217.85,7.54,5.83,7.55,5.84,-5.84,-5.84,-5.86,1.70,1.70,1.71
220.03,7.48,5.82,7.49,5.82,-5.82,-5.81,-5.92,1.66,1.67,1.66
222.23,7.43,5.79,7.44,5.80,-5.80,-5.78,-5.97,1.63,1.64,1.64
224.45,7.34,5.73,7.38,5.77,-5.77,-5.75,-6.01,1.57,1.61,1.61
226.70,7.31,5.73,7.33,5.74,-5.74,-5.72,-6.06,1.57,1.59,1.58
228.96,7.31,5.75,7.27,5.71,-5.71,-5.69,-6.10,1.60,1.56,1.56
231.25,7.18,5.63,7.22,5.68,-5.68,-5.65,-6.13,1.50,1.54,1.55
233.57,7.13,5.61,7.17,5.64,-5.64,-5.61,-6.16,1.48,1.53,1.52
235.90,7.14,5.63,7.13,5.61,-5.61,-5.58,-6.19,1.53,1.51,1.51
238.26,7.13,5.64,7.09,5.59,-5.59,-5.54,-6.20,1.54,1.50,1.49
240.64,7.05,5.55,7.05,5.55,-5.55,-5.50,-6.21,1.49,1.49,1.50
243.05,7.00,5.51,7.00,5.52,-5.52,-5.46,-6.21,1.48,1.48,1.49
245.48,6.94,5.47,6.96,5.48,-5.48,-5.42,-6.21,1.46,1.47,1.47
247.93,6.92,5.46,6.91,5.45,-5.45,-5.37,-6.19,1.47,1.47,1.46
250.41,6.86,5.39,6.87,5.41,-5.41,-5.33,-6.17,1.45,1.46,1.47
252.92,6.87,5.40,6.82,5.37,-5.37,-5.28,-6.14,1.50,1.45,1.47
255.45,6.80,5.35,6.77,5.33,-5.33,-5.24,-6.10,1.47,1.44,1.45
258.00,6.72,5.28,6.73,5.30,-5.30,-5.19,-6.06,1.42,1.43,1.44
260.58,6.69,5.26,6.68,5.25,-5.25,-5.14,-6.00,1.43,1.42,1.43
263.19,6.63,5.21,6.62,5.21,-5.21,-5.09,-5.94,1.42,1.41,1.42
265.82,6.51,5.11,6.57,5.17,-5.17,-5.05,-5.87,1.34,1.40,1.40
268.48,6.49,5.09,6.51,5.13,-5.13,-5.00,-5.80,1.36,1.39,1.40
271.16,6.48,5.10,6.45,5.08,-5.08,-4.94,-5.71,1.40,1.38,1.38
273.87,6.41,5.04,6.39,5.03,-5.03,-4.89,-5.63,1.38,1.36,1.37
276.61,6.36,5.01,6.33,4.98,-4.98,-4.84,-5.53,1.38,1.35,1.35
279.38,6.29,4.97,6.27,4.93,-4.93,-4.79,-5.44,1.36,1.34,1.32
282.17,6.22,4.90,6.21,4.88,-4.88,-4.73,-5.34,1.34,1.33,1.32
284.99,6.17,4.85,6.15,4.83,-4.83,-4.68,-5.23,1.34,1.32,1.32
287.84,6.06,4.74,6.08,4.77,-4.77,-4.63,-5.12,1.29,1.32,1.32
290.72,6.01,4.71,6.02,4.71,-4.71,-4.57,-5.01,1.30,1.31,1.30
293.63,5.93,4.62,5.96,4.65,-4.65,-4.51,-4.90,1.28,1.31,1.31
296.57,5.89,4.58,5.89,4.59,-4.59,-4.46,-4.79,1.30,1.30,1.31
299.53,5.85,4.55,5.83,4.53,-4.53,-4.40,-4.68,1.32,1.30,1.30
302.53,5.78,4.47,5.77,4.47,-4.47,-4.34,-4.57,1.31,1.30,1.31
305.55,5.74,4.44,5.71,4.42,-4.42,-4.29,-4.45,1.32,1.30,1.30
308.61,5.66,4.35,5.66,4.36,-4.36,-4.23,-4.34,1.30,1.30,1.31
311.69,5.55,4.26,5.60,4.31,-4.31,-4.17,-4.23,1.24,1.29,1.29
314.81,5.48,4.18,5.55,4.26,-4.26,-4.11,-4.12,1.22,1.29,1.30
317.96,5.47,4.19,5.49,4.20,-4.20,-4.05,-4.01,1.26,1.29,1.28
321.14,5.47,4.18,5.44,4.15,-4.15,-3.99,-3.90,1.31,1.29,1.29
324.35,5.40,4.12,5.38,4.09,-4.09,-3.93,-3.79,1.31,1.28,1.28
327.59,5.35,4.06,5.31,4.03,-4.03,-3.87,-3.69,1.32,1.28,1.29
330.87,5.29,4.01,5.24,3.96,-3.96,-3.81,-3.59,1.33,1.28,1.28
334.18,5.20,3.93,5.17,3.90,-3.90,-3.75,-3.49,1.30,1.28,1.27
337.52,5.15,3.87,5.10,3.83,-3.83,-3.69,-3.39,1.32,1.28,1.28
340.90,5.02,3.75,5.04,3.76,-3.76,-3.63,-3.29,1.26,1.28,1.27
344.30,4.95,3.67,4.97,3.69,-3.69,-3.57,-3.20,1.26,1.28,1.28
347.75,4.89,3.60,4.90,3.62,-3.62,-3.51,-3.11,1.27,1.28,1.29
351.23,4.82,3.55,4.83,3.54,-3.54,-3.44,-3.02,1.28,1.28,1.27
354.74,4.72,3.43,4.75,3.46,-3.46,-3.38,-2.93,1.26,1.29,1.29
358.28,4.58,3.29,4.67,3.38,-3.38,-3.32,-2.85,1.20,1.29,1.29
361.87,4.58,3.29,4.61,3.31,-3.31,-3.26,-2.77,1.27,1.30,1.29
365.49,4.62,3.32,4.54,3.24,-3.24,-3.19,-2.69,1.38,1.30,1.30
369.14,4.47,3.16,4.47,3.17,-3.17,-3.13,-2.61,1.30,1.30,1.31
372.83,4.40,3.08,4.40,3.10,-3.10,-3.07,-2.53,1.30,1.31,1.32
376.56,4.40,3.09,4.34,3.03,-3.03,-3.01,-2.46,1.37,1.31,1.31
380.33,4.27,2.96,4.27,2.96,-2.96,-2.94,-2.39,1.31,1.31,1.31
384.13,4.19,2.87,4.20,2.89,-2.89,-2.88,-2.32,1.30,1.31,1.32
387.97,4.13,2.81,4.14,2.83,-2.83,-2.81,-2.25,1.30,1.31,1.32
391.85,4.08,2.77,4.07,2.77,-2.77,-2.75,-2.18,1.31,1.30,1.31
395.77,4.03,2.73,4.00,2.70,-2.70,-2.69,-2.12,1.33,1.30,1.30
399.73,3.94,2.64,3.92,2.63,-2.63,-2.62,-2.06,1.31,1.29,1.30
403.72,3.81,2.50,3.84,2.55,-2.55,-2.56,-2.00,1.26,1.29,1.31
407.76,3.70,2.41,3.76,2.48,-2.48,-2.49,-1.94,1.22,1.28,1.29
411.84,3.72,2.44,3.69,2.41,-2.41,-2.43,-1.88,1.30,1.28,1.28
415.96,3.66,2.38,3.62,2.34,-2.34,-2.36,-1.83,1.32,1.28,1.28
420.12,3.55,2.28,3.54,2.26,-2.26,-2.30,-1.77,1.29,1.28,1.27
424.32,3.56,2.28,3.49,2.19,-2.19,-2.23,-1.72,1.36,1.29,1.28
428.56,3.46,2.16,3.43,2.12,-2.12,-2.16,-1.66,1.34,1.30,1.30
432.85,3.28,1.96,3.37,2.04,-2.04,-2.10,-1.61,1.23,1.32,1.32
437.18,3.25,1.92,3.32,1.97,-1.97,-2.03,-1.56,1.28,1.35,1.33
441.55,3.30,1.94,3.29,1.91,-1.91,-1.96,-1.51,1.39,1.38,1.36
445.96,3.21,1.81,3.26,1.84,-1.84,-1.90,-1.46,1.36,1.42,1.40
450.42,3.19,1.75,3.24,1.78,-1.78,-1.83,-1.41,1.41,1.46,1.44
454.93,3.22,1.73,3.21,1.71,-1.71,-1.76,-1.36,1.51,1.51,1.49
459.48,3.10,1.55,3.19,1.63,-1.63,-1.69,-1.31,1.47,1.56,1.55
464.07,3.19,1.57,3.17,1.56,-1.56,-1.63,-1.26,1.63,1.61,1.62
468.71,3.25,1.58,3.16,1.49,-1.49,-1.56,-1.22,1.75,1.66,1.67
473.40,3.12,1.39,3.14,1.42,-1.42,-1.49,-1.17,1.69,1.72,1.73
478.13,3.14,1.35,3.13,1.36,-1.36,-1.42,-1.12,1.78,1.77,1.79
482.91,3.24,1.40,3.10,1.28,-1.28,-1.35,-1.07,1.96,1.82,1.84
487.74,3.09,1.22,3.07,1.21,-1.21,-1.28,-1.02,1.88,1.87,1.87
