frequency,raw,error,smoothed,error_smoothed,equalization,parametric_eq,fixed_band_eq,equalized_raw,equalized_smoothed,target
20.00,1.15,-8.22,1.15,-8.22,8.22,8.00,3.38,9.38,9.38,9.38
20.20,1.18,-8.18,1.18,-8.18,8.18,7.98,3.48,9.37,9.37,9.37
20.40,1.20,-8.15,1.21,-8.14,8.14,7.95,3.57,9.35,9.35,9.35
20.61,1.23,-8.11,1.23,-8.11,8.11,7.92,3.67,9.34,9.34,9.34
20.81,1.26,-8.06,1.26,-8.07,8.07,7.90,3.78,9.33,9.33,9.32
21.02,1.28,-8.03,1.29,-8.03,8.03,7.87,3.88,9.32,9.32,9.31
21.23,1.31,-7.99,1.31,-8.00,8.00,7.85,3.99,9.31,9.31,9.30
21.44,1.33,-7.98,1.34,-7.96,7.96,7.82,4.10,9.29,9.30,9.31
21.66,1.36,-7.93,1.36,-7.93,7.93,7.79,4.21,9.29,9.29,9.29
21.87,1.39,-7.89,1.39,-7.89,7.89,7.76,4.33,9.29,9.28,9.29
22.09,1.41,-7.85,1.41,-7.86,7.86,7.74,4.45,9.27,9.27,9.27
22.31,1.43,-7.83,1.44,-7.83,7.83,7.71,4.58,9.26,9.26,9.27
22.54,1.46,-7.79,1.46,-7.79,7.79,7.68,4.70,9.26,9.26,9.26
22.76,1.48,-7.77,1.49,-7.76,7.76,7.65,4.83,9.25,9.25,9.25
22.99,1.51,-7.73,1.51,-7.73,7.73,7.62,4.97,9.25,9.25,9.24
23.22,1.53,-7.70,1.54,-7.70,7.70,7.60,5.10,9.24,9.24,9.23
23.45,1.56,-7.68,1.56,-7.67,7.67,7.57,5.24,9.24,9.24,9.24
23.69,1.59,-7.64,1.59,-7.64,7.64,7.54,5.38,9.24,9.23,9.23
23.92,1.61,-7.60,1.61,-7.61,7.61,7.51,5.53,9.23,9.23,9.22
24.16,1.63,-7.59,1.64,-7.59,7.59,7.49,5.67,9.22,9.22,9.23
24.40,1.66,-7.56,1.66,-7.56,7.56,7.46,5.82,9.22,9.22,9.22
24.65,1.68,-7.54,1.68,-7.53,7.53,7.43,5.98,9.22,9.22,9.22
24.89,1.70,-7.52,1.71,-7.51,7.51,7.41,6.13,9.21,9.22,9.22
25.14,1.72,-7.49,1.73,-7.48,7.48,7.38,6.29,9.21,9.21,9.21
25.39,1.75,-7.45,1.75,-7.46,7.46,7.35,6.45,9.21,9.21,9.21
25.65,1.77,-7.43,1.77,-7.44,7.44,7.33,6.61,9.21,9.21,9.21
25.91,1.79,-7.41,1.80,-7.41,7.41,7.30,6.76,9.21,9.21,9.20
26.16,1.81,-7.40,1.82,-7.39,7.39,7.28,6.92,9.21,9.21,9.21
26.43,1.83,-7.38,1.84,-7.37,7.37,7.26,7.08,9.20,9.21,9.21
26.69,1.86,-7.34,1.86,-7.35,7.35,7.23,7.24,9.21,9.21,9.21
26.96,1.88,-7.32,1.88,-7.33,7.33,7.21,7.40,9.21,9.21,9.21
27.23,1.89,-7.31,1.89,-7.31,7.31,7.19,7.55,9.21,9.21,9.20
27.50,1.91,-7.29,1.91,-7.29,7.29,7.17,7.70,9.21,9.21,9.20
27.77,1.93,-7.27,1.93,-7.28,7.28,7.14,7.85,9.21,9.21,9.21
28.05,1.94,-7.26,1.95,-7.26,7.26,7.12,7.99,9.20,9.21,9.21
28.33,1.96,-7.25,1.97,-7.24,7.24,7.10,8.12,9.21,9.21,9.21
28.62,1.98,-7.23,1.98,-7.23,7.23,7.08,8.25,9.21,9.21,9.21
28.90,1.99,-7.22,2.00,-7.21,7.21,7.06,8.37,9.20,9.21,9.22
29.19,2.01,-7.20,2.02,-7.19,7.19,7.05,8.47,9.21,9.21,9.21
29.48,2.03,-7.18,2.03,-7.18,7.18,7.03,8.57,9.21,9.21,9.21
29.78,2.05,-7.15,2.04,-7.16,7.16,7.01,8.66,9.21,9.20,9.21
30.08,2.06,-7.14,2.06,-7.14,7.14,6.99,8.73,9.20,9.20,9.20
30.38,2.07,-7.12,2.07,-7.12,7.12,6.98,8.79,9.20,9.20,9.19
30.68,2.08,-7.10,2.08,-7.11,7.11,6.96,8.84,9.19,9.19,9.19
30.99,2.09,-7.09,2.09,-7.09,7.09,6.94,8.87,9.18,9.18,9.18
31.30,2.10,-7.07,2.11,-7.07,7.07,6.93,8.89,9.18,9.18,9.18
31.61,2.11,-7.06,2.11,-7.05,7.05,6.91,8.89,9.17,9.17,9.17
31.93,2.12,-7.03,2.12,-7.04,7.04,6.90,8.88,9.16,9.16,9.15
32.24,2.12,-7.03,2.13,-7.02,7.02,6.88,8.86,9.15,9.15,9.16
32.57,2.13,-7.01,2.14,-7.01,7.01,6.87,8.82,9.14,9.14,9.14
32.89,2.14,-6.99,2.14,-7.00,7.00,6.85,8.77,9.14,9.14,9.14
33.22,2.14,-6.99,2.15,-6.98,6.98,6.84,8.71,9.13,9.13,9.13
33.55,2.15,-6.97,2.15,-6.97,6.97,6.82,8.64,9.13,9.12,9.13
33.89,2.16,-6.95,2.15,-6.96,6.96,6.81,8.56,9.12,9.11,9.11
34.23,2.16,-6.93,2.15,-6.95,6.95,6.80,8.47,9.11,9.10,9.09
34.57,2.15,-6.93,2.15,-6.94,6.94,6.78,8.37,9.09,9.09,9.09
34.92,2.15,-6.92,2.15,-6.93,6.93,6.77,8.26,9.08,9.08,9.07
35.27,2.15,-6.93,2.15,-6.92,6.92,6.75,8.16,9.07,9.07,9.09
35.62,2.14,-6.92,2.15,-6.91,6.91,6.74,8.04,9.05,9.06,9.06
35.97,2.14,-6.91,2.15,-6.89,6.89,6.72,7.92,9.04,9.04,9.05
36.33,2.14,-6.89,2.15,-6.88,6.88,6.71,7.80,9.02,9.03,9.03
36.70,2.14,-6.86,2.14,-6.87,6.87,6.69,7.68,9.01,9.01,9.01
37.06,2.14,-6.85,2.14,-6.85,6.85,6.68,7.56,8.99,8.99,8.99
37.43,2.14,-6.83,2.14,-6.83,6.83,6.66,7.44,8.98,8.97,8.97
37.81,2.13,-6.82,2.13,-6.82,6.82,6.64,7.32,8.95,8.95,8.95
38.19,2.13,-6.79,2.13,-6.79,6.79,6.63,7.20,8.93,8.93,8.92
38.57,2.13,-6.77,2.14,-6.77,6.77,6.61,7.08,8.90,8.91,8.91
38.95,2.13,-6.75,2.14,-6.74,6.74,6.59,6.96,8.88,8.88,8.89
39.34,2.13,-6.72,2.14,-6.72,6.72,6.57,6.85,8.85,8.86,8.86
39.74,2.14,-6.68,2.14,-6.69,6.69,6.55,6.74,8.83,8.83,8.83
40.14,2.14,-6.66,2.15,-6.66,6.66,6.53,6.63,8.80,8.81,8.81
40.54,2.15,-6.63,2.16,-6.63,6.63,6.51,6.52,8.78,8.78,8.78
40.94,2.16,-6.59,2.17,-6.59,6.59,6.48,6.42,8.76,8.76,8.75
41.35,2.17,-6.56,2.17,-6.56,6.56,6.46,6.33,8.73,8.73,8.73
41.76,2.18,-6.52,2.19,-6.52,6.52,6.43,6.23,8.71,8.71,8.70
42.18,2.20,-6.48,2.20,-6.48,6.48,6.41,6.14,8.69,8.68,8.69
42.60,2.21,-6.44,2.21,-6.44,6.44,6.38,6.06,8.66,8.66,8.65
43.03,2.22,-6.41,2.23,-6.40,6.40,6.35,5.98,8.63,8.63,8.63
43.46,2.24,-6.35,2.24,-6.36,6.36,6.32,5.90,8.60,8.60,8.60
43.90,2.26,-6.31,2.26,-6.31,6.31,6.29,5.83,8.58,8.57,8.57
44.33,2.27,-6.26,2.28,-6.26,6.26,6.26,5.76,8.54,8.54,8.54
44.78,2.28,-6.23,2.29,-6.21,6.21,6.23,5.70,8.50,8.51,8.51
45.23,2.30,-6.18,2.31,-6.16,6.16,6.19,5.64,8.46,8.47,8.49
45.68,2.32,-6.11,2.33,-6.11,6.11,6.16,5.58,8.43,8.44,8.44
46.13,2.35,-6.05,2.35,-6.05,6.05,6.12,5.53,8.40,8.40,8.40
46.60,2.36,-6.00,2.37,-5.99,5.99,6.08,5.48,8.36,8.36,8.36
47.06,2.38,-5.94,2.38,-5.93,5.93,6.04,5.44,8.32,8.32,8.32
47.53,2.40,-5.88,2.40,-5.88,5.88,6.00,5.40,8.28,8.27,8.29
48.01,2.41,-5.81,2.41,-5.82,5.82,5.96,5.36,8.23,8.23,8.23
48.49,2.42,-5.76,2.42,-5.77,5.77,5.91,5.33,8.19,8.19,8.18
48.97,2.43,-5.70,2.43,-5.71,5.71,5.87,5.30,8.15,8.14,8.13
49.46,2.43,-5.66,2.43,-5.66,5.66,5.82,5.27,8.09,8.09,8.09
49.96,2.44,-5.59,2.43,-5.61,5.61,5.78,5.25,8.06,8.05,8.03
50.46,2.44,-5.55,2.43,-5.57,5.57,5.73,5.23,8.01,8.00,8.00
50.96,2.43,-5.52,2.43,-5.52,5.52,5.68,5.21,7.96,7.95,7.95
51.47,2.42,-5.48,2.42,-5.49,5.49,5.63,5.19,7.91,7.90,7.91
51.99,2.41,-5.44,2.41,-5.45,5.45,5.58,5.18,7.86,7.86,7.85
52.51,2.39,-5.42,2.40,-5.41,5.41,5.52,5.16,7.81,7.81,7.81
53.03,2.38,-5.39,2.39,-5.38,5.38,5.47,5.15,7.76,7.76,7.77
53.56,2.37,-5.35,2.37,-5.35,5.35,5.42,5.14,7.72,7.72,7.73
54.10,2.36,-5.30,2.36,-5.31,5.31,5.36,5.13,7.68,7.67,7.67
54.64,2.34,-5.28,2.35,-5.28,5.28,5.30,5.12,7.62,7.63,7.63
55.18,2.32,-5.25,2.33,-5.25,5.25,5.25,5.11,7.57,7.58,7.57
55.74,2.31,-5.21,2.32,-5.22,5.22,5.19,5.10,7.53,7.54,7.52
56.29,2.30,-5.18,2.31,-5.18,5.18,5.13,5.09,7.48,7.49,7.49
56.86,2.30,-5.14,2.31,-5.14,5.14,5.07,5.08,7.44,7.45,7.44
57.42,2.30,-5.08,2.30,-5.10,5.10,5.01,5.07,7.40,7.40,7.39
58.00,2.29,-5.05,2.30,-5.05,5.05,4.95,5.05,7.34,7.35,7.34
58.58,2.30,-5.00,2.30,-5.00,5.00,4.89,5.03,7.30,7.30,7.30
59.16,2.30,-4.96,2.30,-4.94,4.94,4.82,5.01,7.25,7.25,7.27
59.76,2.31,-4.90,2.31,-4.88,4.88,4.76,4.99,7.20,7.19,7.22
60.35,2.31,-4.84,2.32,-4.82,4.82,4.70,4.96,7.13,7.14,7.15
60.96,2.32,-4.77,2.33,-4.75,4.75,4.63,4.93,7.07,7.08,7.09
61.57,2.33,-4.69,2.35,-4.68,4.68,4.57,4.89,7.01,7.02,7.02
62.18,2.34,-4.61,2.36,-4.60,4.60,4.51,4.85,6.94,6.96,6.95
62.80,2.36,-4.52,2.38,-4.52,4.52,4.44,4.81,6.88,6.90,6.89
63.43,2.38,-4.44,2.40,-4.44,4.44,4.38,4.76,6.82,6.84,6.82
64.07,2.40,-4.36,2.42,-4.35,4.35,4.31,4.71,6.76,6.77,6.76
64.71,2.44,-4.26,2.44,-4.27,4.27,4.25,4.65,6.72,6.71,6.70
65.35,2.46,-4.18,2.45,-4.20,4.20,4.19,4.59,6.66,6.65,6.64
66.01,2.48,-4.10,2.46,-4.12,4.12,4.12,4.53,6.60,6.58,6.58
66.67,2.49,-4.03,2.47,-4.05,4.05,4.06,4.47,6.54,6.52,6.53
67.33,2.50,-3.95,2.47,-3.98,3.98,3.99,4.40,6.49,6.46,6.45
68.01,2.49,-3.90,2.47,-3.92,3.92,3.93,4.32,6.41,6.39,6.40
68.69,2.48,-3.85,2.47,-3.86,3.86,3.87,4.25,6.35,6.33,6.33
69.37,2.46,-3.81,2.45,-3.81,3.81,3.80,4.17,6.27,6.26,6.27
70.07,2.44,-3.76,2.44,-3.76,3.76,3.74,4.09,6.20,6.20,6.20
70.77,2.41,-3.72,2.42,-3.71,3.71,3.67,4.01,6.12,6.13,6.13
71.48,2.38,-3.68,2.40,-3.67,3.67,3.61,3.92,6.05,6.06,6.07
72.19,2.35,-3.64,2.37,-3.63,3.63,3.55,3.84,5.98,5.99,5.99
72.91,2.33,-3.59,2.34,-3.59,3.59,3.49,3.75,5.92,5.93,5.92
73.64,2.31,-3.54,2.31,-3.55,3.55,3.42,3.67,5.86,5.86,5.85
74.38,2.28,-3.50,2.29,-3.51,3.51,3.36,3.58,5.79,5.80,5.79
75.12,2.26,-3.46,2.26,-3.47,3.47,3.30,3.49,5.74,5.73,5.73
75.87,2.23,-3.43,2.23,-3.43,3.43,3.24,3.41,5.67,5.67,5.67
76.63,2.21,-3.38,2.21,-3.39,3.39,3.18,3.32,5.61,5.60,5.60
77.40,2.19,-3.35,2.19,-3.35,3.35,3.12,3.24,5.54,5.54,5.54
78.17,2.17,-3.30,2.18,-3.30,3.30,3.06,3.15,5.48,5.48,5.47
78.95,2.15,-3.27,2.16,-3.25,3.25,3.00,3.07,5.41,5.42,5.42
79.74,2.14,-3.21,2.15,-3.20,3.20,2.94,2.98,5.35,5.36,5.36
80.54,2.12,-3.18,2.14,-3.15,3.15,2.88,2.90,5.28,5.29,5.30
81.35,2.12,-3.11,2.14,-3.10,3.10,2.82,2.82,5.22,5.23,5.23
82.16,2.11,-3.07,2.13,-3.04,3.04,2.77,2.74,5.15,5.17,5.18
82.98,2.12,-2.99,2.13,-2.98,2.98,2.71,2.66,5.10,5.11,5.11
83.81,2.13,-2.91,2.13,-2.92,2.92,2.65,2.59,5.05,5.04,5.05
84.65,2.14,-2.83,2.13,-2.85,2.85,2.60,2.51,4.99,4.98,4.98
85.50,2.14,-2.77,2.13,-2.78,2.78,2.54,2.44,4.93,4.91,4.91
86.35,2.14,-2.70,2.13,-2.71,2.71,2.49,2.37,4.86,4.85,4.85
87.22,2.14,-2.64,2.14,-2.65,2.65,2.43,2.30,4.79,4.78,4.78
88.09,2.14,-2.57,2.14,-2.57,2.57,2.38,2.23,4.72,4.71,4.71
88.97,2.14,-2.50,2.14,-2.50,2.50,2.32,2.16,4.65,4.65,4.65
89.86,2.14,-2.43,2.14,-2.43,2.43,2.27,2.10,4.58,4.58,4.58
90.76,2.14,-2.36,2.15,-2.36,2.36,2.22,2.04,4.50,4.51,4.51
91.66,2.14,-2.28,2.15,-2.29,2.29,2.17,1.97,4.43,4.43,4.43
92.58,2.14,-2.22,2.15,-2.22,2.22,2.11,1.91,4.36,4.36,4.37
93.51,2.14,-2.15,2.14,-2.14,2.14,2.06,1.85,4.29,4.29,4.30
94.44,2.14,-2.08,2.14,-2.07,2.07,2.01,1.80,4.22,4.22,4.22
95.39,2.14,-2.00,2.14,-2.00,2.00,1.96,1.74,4.14,4.14,4.14
96.34,2.14,-1.93,2.14,-1.92,1.92,1.91,1.69,4.07,4.07,4.07
97.30,2.14,-1.85,2.14,-1.85,1.85,1.86,1.63,3.99,3.99,4.00
98.28,2.14,-1.77,2.14,-1.78,1.78,1.81,1.58,3.92,3.92,3.91
99.26,2.14,-1.69,2.15,-1.70,1.70,1.76,1.53,3.84,3.85,3.84
100.25,2.14,-1.62,2.15,-1.62,1.62,1.72,1.48,3.77,3.77,3.76
101.25,2.14,-1.55,2.15,-1.55,1.55,1.67,1.43,3.69,3.70,3.70
102.27,2.14,-1.49,2.16,-1.48,1.48,1.62,1.39,3.62,3.63,3.63
103.29,2.14,-1.41,2.16,-1.40,1.40,1.57,1.34,3.55,3.56,3.56
104.32,2.14,-1.35,2.16,-1.34,1.34,1.53,1.29,3.48,3.49,3.49
105.37,2.15,-1.27,2.15,-1.27,1.27,1.48,1.25,3.42,3.42,3.43
106.42,2.16,-1.20,2.15,-1.21,1.21,1.43,1.21,3.37,3.36,3.36
107.48,2.16,-1.12,2.14,-1.14,1.14,1.39,1.16,3.31,3.29,3.29
108.56,2.15,-1.07,2.13,-1.09,1.09,1.34,1.12,3.24,3.22,3.22
109.64,2.14,-1.01,2.11,-1.03,1.03,1.30,1.08,3.18,3.15,3.15
110.74,2.11,-0.97,2.09,-0.98,0.98,1.25,1.04,3.09,3.07,3.08
111.85,2.07,-0.93,2.07,-0.93,0.93,1.21,1.00,3.01,3.00,3.01
112.97,2.04,-0.90,2.04,-0.89,0.89,1.17,0.96,2.93,2.93,2.94
114.10,2.01,-0.85,2.01,-0.85,0.85,1.12,0.92,2.86,2.86,2.87
115.24,1.98,-0.80,1.98,-0.81,0.81,1.08,0.89,2.79,2.79,2.78
116.39,1.95,-0.76,1.95,-0.76,0.76,1.03,0.85,2.72,2.72,2.71
117.55,1.92,-0.71,1.93,-0.72,0.72,0.99,0.81,2.65,2.65,2.64
118.73,1.89,-0.67,1.90,-0.68,0.68,0.95,0.78,2.57,2.58,2.57
119.92,1.85,-0.65,1.88,-0.63,0.63,0.91,0.74,2.48,2.51,2.50
121.12,1.82,-0.62,1.86,-0.58,0.58,0.86,0.70,2.40,2.44,2.44
122.33,1.81,-0.56,1.85,-0.52,0.52,0.82,0.67,2.34,2.37,2.37
123.55,1.80,-0.51,1.84,-0.47,0.47,0.78,0.63,2.27,2.30,2.31
124.79,1.81,-0.43,1.83,-0.41,0.41,0.74,0.59,2.22,2.24,2.24
126.03,1.82,-0.35,1.81,-0.35,0.35,0.69,0.56,2.18,2.17,2.18
127.29,1.82,-0.29,1.80,-0.30,0.30,0.65,0.52,2.12,2.10,2.11
128.57,1.82,-0.21,1.79,-0.24,0.24,0.61,0.49,2.06,2.03,2.03
129.85,1.81,-0.15,1.78,-0.18,0.18,0.57,0.45,2.00,1.97,1.97
131.15,1.78,-0.11,1.77,-0.13,0.13,0.53,0.42,1.91,1.90,1.89
132.46,1.77,-0.06,1.75,-0.08,0.08,0.48,0.38,1.85,1.83,1.83
133.79,1.74,-0.01,1.73,-0.03,0.03,0.44,0.35,1.77,1.76,1.76
135.12,1.70,0.01,1.71,0.01,-0.01,0.40,0.31,1.69,1.70,1.70
136.48,1.68,0.05,1.69,0.05,-0.05,0.36,0.27,1.63,1.63,1.64
137.84,1.64,0.08,1.66,0.09,-0.09,0.32,0.24,1.56,1.57,1.57
139.22,1.62,0.12,1.62,0.12,-0.12,0.27,0.20,1.51,1.51,1.50
140.61,1.59,0.15,1.59,0.15,-0.15,0.23,0.16,1.45,1.44,1.44
142.02,1.54,0.17,1.56,0.17,-0.17,0.19,0.13,1.37,1.39,1.38
143.44,1.51,0.19,1.52,0.20,-0.20,0.15,0.09,1.32,1.33,1.32
144.87,1.47,0.20,1.49,0.22,-0.22,0.11,0.05,1.25,1.27,1.27
146.32,1.44,0.23,1.45,0.24,-0.24,0.06,0.01,1.20,1.21,1.21
147.78,1.41,0.25,1.41,0.26,-0.26,0.02,-0.02,1.16,1.16,1.16
149.26,1.37,0.27,1.37,0.27,-0.27,-0.02,-0.06,1.10,1.10,1.10
150.75,1.34,0.30,1.33,0.28,-0.28,-0.07,-0.10,1.06,1.05,1.04
152.26,1.30,0.31,1.28,0.29,-0.29,-0.11,-0.14,1.01,0.99,1.00
153.78,1.25,0.31,1.24,0.30,-0.30,-0.15,-0.18,0.95,0.94,0.94
155.32,1.21,0.33,1.18,0.30,-0.30,-0.20,-0.22,0.91,0.88,0.89
156.88,1.14,0.31,1.13,0.30,-0.30,-0.24,-0.26,0.84,0.83,0.83
158.44,1.09,0.32,1.08,0.31,-0.31,-0.28,-0.30,0.79,0.77,0.77
160.03,1.00,0.28,1.02,0.30,-0.30,-0.33,-0.34,0.70,0.72,0.72
161.63,0.95,0.29,0.96,0.30,-0.30,-0.37,-0.39,0.65,0.66,0.66
163.24,0.90,0.30,0.90,0.30,-0.30,-0.42,-0.43,0.61,0.61,0.61
164.88,0.83,0.29,0.84,0.29,-0.29,-0.46,-0.47,0.54,0.55,0.55
166.53,0.77,0.29,0.78,0.29,-0.29,-0.51,-0.52,0.48,0.49,0.48
168.19,0.74,0.30,0.73,0.29,-0.29,-0.55,-0.56,0.45,0.43,0.44
169.87,0.68,0.31,0.68,0.30,-0.30,-0.60,-0.61,0.39,0.38,0.38
171.57,0.63,0.32,0.63,0.31,-0.31,-0.64,-0.65,0.32,0.32,0.32
173.29,0.59,0.33,0.59,0.33,-0.33,-0.69,-0.70,0.26,0.26,0.27
175.02,0.54,0.34,0.56,0.36,-0.36,-0.73,-0.75,0.19,0.21,0.21
176.77,0.51,0.36,0.54,0.39,-0.39,-0.78,-0.80,0.12,0.15,0.15
178.54,0.50,0.41,0.52,0.43,-0.43,-0.83,-0.84,0.07,0.09,0.10
180.32,0.49,0.46,0.51,0.48,-0.48,-0.87,-0.89,0.02,0.04,0.03
182.13,0.49,0.51,0.51,0.53,-0.53,-0.92,-0.94,-0.04,-0.02,-0.01
183.95,0.51,0.58,0.52,0.59,-0.59,-0.97,-1.00,-0.08,-0.07,-0.07
185.79,0.54,0.67,0.54,0.66,-0.66,-1.02,-1.05,-0.12,-0.12,-0.13
187.65,0.56,0.74,0.56,0.74,-0.74,-1.06,-1.10,-0.17,-0.18,-0.18
189.52,0.59,0.82,0.59,0.82,-0.82,-1.11,-1.15,-0.23,-0.23,-0.23
191.42,0.62,0.90,0.63,0.91,-0.91,-1.16,-1.21,-0.28,-0.28,-0.27
193.33,0.66,0.99,0.67,1.00,-1.00,-1.20,-1.26,-0.33,-0.33,-0.32
195.27,0.70,1.08,0.72,1.09,-1.09,-1.25,-1.31,-0.39,-0.37,-0.38
197.22,0.75,1.19,0.76,1.18,-1.18,-1.30,-1.37,-0.43,-0.42,-0.43
199.19,0.80,1.27,0.81,1.27,-1.27,-1.34,-1.42,-0.47,-0.46,-0.47
201.18,0.86,1.38,0.86,1.37,-1.37,-1.39,-1.48,-0.50,-0.51,-0.52
203.19,0.91,1.46,0.91,1.45,-1.45,-1.44,-1.53,-0.54,-0.55,-0.55
205.23,0.96,1.54,0.95,1.54,-1.54,-1.48,-1.59,-0.58,-0.59,-0.58
207.28,1.01,1.63,1.00,1.62,-1.62,-1.53,-1.64,-0.61,-0.63,-0.62
209.35,1.05,1.71,1.04,1.70,-1.70,-1.57,-1.70,-0.65,-0.66,-0.66
211.44,1.08,1.78,1.07,1.77,-1.77,-1.61,-1.75,-0.69,-0.70,-0.70
213.56,1.11,1.84,1.10,1.83,-1.83,-1.66,-1.80,-0.72,-0.73,-0.72
215.69,1.13,1.89,1.13,1.89,-1.89,-1.70,-1.86,-0.76,-0.77,-0.76
217.85,1.15,1.95,1.15,1.94,-1.94,-1.74,-1.91,-0.79,-0.80,-0.80
220.03,1.16,1.99,1.16,1.99,-1.99,-1.78,-1.95,-0.83,-0.83,-0.83
222.23,1.18,2.05,1.17,2.03,-2.03,-1.82,-2.00,-0.84,-0.86,-0.86
224.45,1.19,2.08,1.18,2.06,-2.06,-1.86,-2.05,-0.87,-0.89,-0.89
226.70,1.18,2.10,1.18,2.09,-2.09,-1.89,-2.09,-0.91,-0.91,-0.92
228.96,1.17,2.11,1.18,2.12,-2.12,-1.93,-2.13,-0.94,-0.94,-0.93
231.25,1.17,2.14,1.18,2.14,-2.14,-1.96,-2.16,-0.97,-0.96,-0.96
233.57,1.16,2.15,1.18,2.16,-2.16,-1.99,-2.20,-1.00,-0.98,-0.98
235.90,1.16,2.17,1.18,2.18,-2.18,-2.02,-2.23,-1.02,-1.00,-1.00
238.26,1.16,2.19,1.18,2.20,-2.20,-2.05,-2.26,-1.04,-1.02,-1.03
240.64,1.16,2.19,1.18,2.22,-2.22,-2.08,-2.28,-1.05,-1.03,-1.03
243.05,1.16,2.21,1.18,2.23,-2.23,-2.10,-2.30,-1.07,-1.05,-1.05
245.48,1.17,2.24,1.18,2.24,-2.24,-2.12,-2.31,-1.07,-1.06,-1.06
247.93,1.18,2.26,1.18,2.25,-2.25,-2.14,-2.33,-1.07,-1.07,-1.08
250.41,1.19,2.27,1.18,2.26,-2.26,-2.16,-2.33,-1.06,-1.08,-1.08
252.92,1.19,2.27,1.17,2.26,-2.26,-2.18,-2.34,-1.06,-1.09,-1.08
255.45,1.18,2.28,1.16,2.26,-2.26,-2.19,-2.34,-1.07,-1.09,-1.10
258.00,1.17,2.27,1.15,2.25,-2.25,-2.20,-2.33,-1.08,-1.10,-1.10
260.58,1.14,2.25,1.13,2.24,-2.24,-2.21,-2.32,-1.10,-1.11,-1.10
263.19,1.13,2.24,1.11,2.23,-2.23,-2.22,-2.31,-1.09,-1.11,-1.11
265.82,1.09,2.21,1.09,2.21,-2.21,-2.22,-2.30,-1.11,-1.12,-1.12
268.48,1.06,2.18,1.06,2.19,-2.19,-2.22,-2.28,-1.12,-1.13,-1.12
271.16,1.03,2.16,1.03,2.16,-2.16,-2.22,-2.25,-1.13,-1.13,-1.12
273.87,0.99,2.13,1.00,2.13,-2.13,-2.22,-2.23,-1.14,-1.13,-1.13
276.61,0.96,2.10,0.97,2.10,-2.10,-2.21,-2.20,-1.14,-1.14,-1.14
279.38,0.93,2.09,0.94,2.08,-2.08,-2.21,-2.17,-1.15,-1.14,-1.16
282.17,0.90,2.06,0.91,2.06,-2.06,-2.20,-2.14,-1.15,-1.14,-1.16
284.99,0.87,2.02,0.89,2.04,-2.04,-2.19,-2.10,-1.16,-1.15,-1.15
287.84,0.84,1.99,0.88,2.02,-2.02,-2.17,-2.07,-1.18,-1.15,-1.15
290.72,0.83,1.99,0.87,2.01,-2.01,-2.16,-2.03,-1.18,-1.15,-1.15
293.63,0.82,1.97,0.86,2.00,-2.00,-2.14,-1.99,-1.18,-1.15,-1.14
296.57,0.82,1.97,0.85,1.99,-1.99,-2.12,-1.95,-1.17,-1.14,-1.14
299.53,0.83,1.97,0.85,1.99,-1.99,-2.10,-1.91,-1.15,-1.14,-1.14
302.53,0.85,1.98,0.84,1.98,-1.98,-2.08,-1.87,-1.13,-1.14,-1.13
305.55,0.86,2.00,0.84,1.97,-1.97,-2.06,-1.83,-1.11,-1.13,-1.13
308.61,0.86,1.99,0.84,1.96,-1.96,-2.03,-1.79,-1.10,-1.13,-1.12
311.69,0.86,1.98,0.83,1.95,-1.95,-2.01,-1.75,-1.09,-1.12,-1.12
314.81,0.85,1.97,0.82,1.94,-1.94,-1.98,-1.71,-1.08,-1.11,-1.12
317.96,0.83,1.95,0.81,1.92,-1.92,-1.95,-1.67,-1.08,-1.11,-1.11
321.14,0.80,1.90,0.79,1.89,-1.89,-1.93,-1.63,-1.09,-1.10,-1.10
324.35,0.77,1.88,0.77,1.86,-1.86,-1.90,-1.59,-1.09,-1.10,-1.10
327.59,0.74,1.82,0.74,1.83,-1.83,-1.87,-1.55,-1.09,-1.09,-1.08
330.87,0.71,1.80,0.71,1.80,-1.80,-1.84,-1.52,-1.08,-1.09,-1.09
334.18,0.68,1.77,0.68,1.76,-1.76,-1.81,-1.48,-1.08,-1.08,-1.08
337.52,0.64,1.72,0.66,1.73,-1.73,-1.78,-1.44,-1.08,-1.07,-1.08
340.90,0.61,1.68,0.63,1.69,-1.69,-1.75,-1.41,-1.08,-1.07,-1.06
344.30,0.58,1.64,0.61,1.66,-1.66,-1.71,-1.38,-1.08,-1.06,-1.06
347.75,0.55,1.60,0.58,1.64,-1.64,-1.68,-1.34,-1.08,-1.05,-1.05
351.23,0.53,1.59,0.57,1.61,-1.61,-1.65,-1.31,-1.08,-1.05,-1.06
354.74,0.52,1.55,0.55,1.59,-1.59,-1.62,-1.28,-1.06,-1.04,-1.03
358.28,0.52,1.56,0.53,1.57,-1.57,-1.59,-1.25,-1.04,-1.03,-1.03
361.87,0.52,1.55,0.52,1.54,-1.54,-1.56,-1.22,-1.02,-1.03,-1.03
365.49,0.51,1.54,0.50,1.52,-1.52,-1.52,-1.20,-1.01,-1.02,-1.02
369.14,0.51,1.52,0.49,1.50,-1.50,-1.49,-1.17,-0.98,-1.01,-1.01
372.83,0.50,1.50,0.47,1.47,-1.47,-1.46,-1.14,-0.97,-1.00,-1.00
376.56,0.47,1.48,0.45,1.45,-1.45,-1.43,-1.12,-0.97,-1.00,-1.00
380.33,0.45,1.45,0.43,1.42,-1.42,-1.40,-1.10,-0.96,-0.99,-1.00
384.13,0.41,1.39,0.40,1.38,-1.38,-1.37,-1.07,-0.97,-0.98,-0.98
387.97,0.38,1.36,0.38,1.35,-1.35,-1.34,-1.05,-0.96,-0.97,-0.97
391.85,0.35,1.32,0.35,1.31,-1.31,-1.31,-1.03,-0.96,-0.96,-0.96
395.77,0.31,1.27,0.32,1.27,-1.27,-1.28,-1.01,-0.96,-0.95,-0.96
399.73,0.28,1.23,0.29,1.23,-1.23,-1.26,-0.99,-0.95,-0.94,-0.95
403.72,0.25,1.18,0.26,1.20,-1.20,-1.23,-0.98,-0.95,-0.93,-0.92
407.76,0.22,1.15,0.24,1.17,-1.17,-1.20,-0.96,-0.94,-0.93,-0.92
411.84,0.20,1.12,0.23,1.14,-1.14,-1.17,-0.94,-0.94,-0.92,-0.92
415.96,0.18,1.08,0.21,1.12,-1.12,-1.15,-0.93,-0.94,-0.91,-0.90
420.12,0.17,1.08,0.20,1.10,-1.10,-1.12,-0.91,-0.93,-0.90,-0.90
424.32,0.17,1.07,0.20,1.09,-1.09,-1.10,-0.90,-0.92,-0.89,-0.89
428.56,0.18,1.06,0.20,1.08,-1.08,-1.07,-0.88,-0.90,-0.88,-0.88
432.85,0.19,1.06,0.20,1.07,-1.07,-1.05,-0.87,-0.88,-0.87,-0.87
437.18,0.20,1.07,0.20,1.06,-1.06,-1.02,-0.86,-0.86,-0.87,-0.87
441.55,0.21,1.08,0.20,1.05,-1.05,-1.00,-0.84,-0.84,-0.86,-0.86
445.96,0.22,1.08,0.19,1.04,-1.04,-0.98,-0.83,-0.82,-0.85,-0.85
450.42,0.21,1.06,0.19,1.03,-1.03,-0.95,-0.82,-0.82,-0.84,-0.84
454.93,0.20,1.04,0.18,1.01,-1.01,-0.93,-0.81,-0.81,-0.83,-0.84
459.48,0.18,1.01,0.17,0.99,-0.99,-0.91,-0.80,-0.81,-0.82,-0.83
464.07,0.16,0.97,0.15,0.97,-0.97,-0.89,-0.79,-0.80,-0.82,-0.81
468.71,0.14,0.94,0.13,0.94,-0.94,-0.87,-0.78,-0.79,-0.81,-0.80
473.40,0.10,0.90,0.11,0.90,-0.90,-0.85,-0.77,-0.80,-0.80,-0.79
478.13,0.08,0.87,0.08,0.86,-0.86,-0.83,-0.76,-0.78,-0.79,-0.78
482.91,0.05,0.83,0.05,0.82,-0.82,-0.81,-0.75,-0.77,-0.78,-0.77
487.74,0.01,0.78,0.02,0.78,-0.78,-0.79,-0.74,-0.77,-0.76,-0.77
492.62,-0.02,0.74,-0.01,0.74,-0.74,-0.77,-0.73,-0.76,-0.75,-0.76
497.55,-0.05,0.70,-0.04,0.70,-0.70,-0.75,-0.71,-0.75,-0.74,-0.75
502.52,-0.08,0.66,-0.07,0.67,-0.67,-0.74,-0.70,-0.74,-0.73,-0.74
507.55,-0.11,0.61,-0.09,0.63,-0.63,-0.72,-0.69,-0.74,-0.72,-0.72
512.62,-0.13,0.59,-0.11,0.60,-0.60,-0.70,-0.68,-0.73,-0.71,-0.71
517.75,-0.15,0.55,-0.12,0.58,-0.58,-0.69,-0.67,-0.72,-0.70,-0.69
522.93,-0.16,0.53,-0.13,0.56,-0.56,-0.67,-0.66,-0.71,-0.69,-0.68
528.16,-0.15,0.53,-0.14,0.54,-0.54,-0.66,-0.65,-0.68,-0.67,-0.67
533.44,-0.14,0.53,-0.14,0.52,-0.52,-0.64,-0.64,-0.66,-0.66,-0.66
