frequency,raw,error,smoothed,error_smoothed,equalization,parametric_eq,fixed_band_eq,equalized_raw,equalized_smoothed,target
20.00,5.84,1.60,5.83,1.57,-1.57,-1.74,-1.20,4.27,4.26,4.24
20.20,5.90,1.62,5.89,1.60,-1.60,-1.77,-1.24,4.30,4.29,4.28
20.40,5.95,1.63,5.95,1.63,-1.63,-1.80,-1.28,4.32,4.32,4.32
20.61,6.01,1.66,6.01,1.65,-1.65,-1.83,-1.31,4.35,4.35,4.35
20.81,6.06,1.67,6.06,1.69,-1.69,-1.86,-1.35,4.37,4.38,4.39
21.02,6.12,1.69,6.12,1.72,-1.72,-1.90,-1.39,4.40,4.40,4.43
21.23,6.18,1.73,6.18,1.75,-1.75,-1.93,-1.43,4.43,4.43,4.45
21.44,6.23,1.76,6.24,1.79,-1.79,-1.96,-1.47,4.44,4.45,4.47
21.66,6.29,1.80,6.30,1.82,-1.82,-1.99,-1.52,4.46,4.47,4.49
21.87,6.35,1.85,6.36,1.86,-1.86,-2.02,-1.56,4.49,4.49,4.50
22.09,6.40,1.88,6.42,1.90,-1.90,-2.05,-1.61,4.50,4.51,4.52
22.31,6.46,1.93,6.47,1.95,-1.95,-2.08,-1.65,4.51,4.53,4.53
22.54,6.53,1.99,6.54,2.00,-2.00,-2.11,-1.70,4.53,4.54,4.54
22.76,6.59,2.04,6.60,2.05,-2.05,-2.14,-1.75,4.54,4.55,4.55
22.99,6.66,2.11,6.66,2.10,-2.10,-2.18,-1.80,4.56,4.56,4.55
23.22,6.73,2.17,6.72,2.16,-2.16,-2.21,-1.85,4.57,4.57,4.56
23.45,6.79,2.22,6.79,2.21,-2.21,-2.24,-1.91,4.58,4.58,4.57
23.69,6.85,2.27,6.85,2.26,-2.26,-2.27,-1.96,4.59,4.59,4.58
23.92,6.90,2.31,6.90,2.31,-2.31,-2.29,-2.01,4.59,4.59,4.59
24.16,6.96,2.35,6.96,2.35,-2.35,-2.32,-2.07,4.61,4.60,4.61
24.40,7.01,2.38,7.00,2.39,-2.39,-2.35,-2.12,4.62,4.61,4.63
24.65,7.06,2.44,7.05,2.43,-2.43,-2.38,-2.18,4.63,4.62,4.62
24.89,7.10,2.47,7.09,2.46,-2.46,-2.41,-2.24,4.64,4.63,4.63
25.14,7.14,2.50,7.12,2.48,-2.48,-2.43,-2.29,4.66,4.64,4.64
25.39,7.18,2.53,7.15,2.50,-2.50,-2.46,-2.35,4.68,4.65,4.65
25.65,7.20,2.53,7.18,2.52,-2.52,-2.48,-2.41,4.68,4.66,4.67
25.91,7.21,2.54,7.20,2.53,-2.53,-2.51,-2.47,4.68,4.67,4.67
26.16,7.22,2.54,7.22,2.54,-2.54,-2.53,-2.52,4.68,4.68,4.68
26.43,7.23,2.54,7.24,2.55,-2.55,-2.55,-2.58,4.68,4.69,4.69
26.69,7.25,2.55,7.26,2.56,-2.56,-2.57,-2.63,4.69,4.70,4.70
26.96,7.27,2.55,7.28,2.57,-2.57,-2.59,-2.69,4.70,4.71,4.72
27.23,7.29,2.56,7.30,2.58,-2.58,-2.61,-2.74,4.71,4.72,4.73
27.50,7.31,2.58,7.32,2.59,-2.59,-2.63,-2.79,4.72,4.73,4.73
27.77,7.32,2.59,7.34,2.60,-2.60,-2.65,-2.84,4.72,4.74,4.73
28.05,7.35,2.60,7.36,2.62,-2.62,-2.66,-2.88,4.73,4.75,4.75
28.33,7.38,2.63,7.39,2.64,-2.64,-2.68,-2.93,4.74,4.75,4.75
28.62,7.41,2.65,7.42,2.66,-2.66,-2.69,-2.97,4.75,4.76,4.76
28.90,7.44,2.67,7.44,2.67,-2.67,-2.70,-3.00,4.77,4.77,4.77
29.19,7.47,2.70,7.47,2.69,-2.69,-2.71,-3.04,4.78,4.78,4.77
29.48,7.50,2.70,7.49,2.71,-2.71,-2.72,-3.07,4.79,4.78,4.80
29.78,7.53,2.74,7.52,2.73,-2.73,-2.73,-3.09,4.80,4.79,4.79
30.08,7.55,2.75,7.54,2.74,-2.74,-2.73,-3.11,4.81,4.80,4.80
30.38,7.57,2.77,7.55,2.75,-2.75,-2.74,-3.13,4.82,4.80,4.80
30.68,7.58,2.76,7.56,2.75,-2.75,-2.74,-3.14,4.83,4.81,4.82
30.99,7.59,2.77,7.58,2.76,-2.76,-2.75,-3.15,4.83,4.82,4.82
31.30,7.60,2.78,7.58,2.76,-2.76,-2.75,-3.15,4.84,4.83,4.82
31.61,7.59,2.76,7.59,2.75,-2.75,-2.75,-3.15,4.84,4.83,4.83
31.93,7.58,2.74,7.59,2.75,-2.75,-2.74,-3.14,4.83,4.84,4.84
32.24,7.58,2.74,7.59,2.74,-2.74,-2.74,-3.13,4.84,4.85,4.84
32.57,7.57,2.71,7.58,2.73,-2.73,-2.74,-3.11,4.84,4.85,4.86
32.89,7.57,2.71,7.58,2.72,-2.72,-2.73,-3.09,4.85,4.86,4.86
33.22,7.57,2.70,7.58,2.71,-2.71,-2.73,-3.07,4.86,4.87,4.87
33.55,7.57,2.69,7.57,2.70,-2.70,-2.72,-3.04,4.87,4.88,4.88
33.89,7.57,2.68,7.57,2.69,-2.69,-2.71,-3.01,4.88,4.88,4.89
34.23,7.57,2.68,7.57,2.68,-2.68,-2.70,-2.97,4.89,4.89,4.89
34.57,7.57,2.67,7.57,2.67,-2.67,-2.69,-2.93,4.90,4.90,4.90
34.92,7.57,2.67,7.57,2.67,-2.67,-2.68,-2.89,4.90,4.90,4.90
35.27,7.57,2.66,7.57,2.67,-2.67,-2.66,-2.85,4.90,4.91,4.91
35.62,7.57,2.66,7.58,2.67,-2.67,-2.65,-2.80,4.90,4.91,4.91
35.97,7.57,2.66,7.58,2.67,-2.67,-2.64,-2.75,4.90,4.91,4.91
36.33,7.57,2.65,7.58,2.67,-2.67,-2.62,-2.70,4.90,4.91,4.92
36.70,7.57,2.66,7.59,2.67,-2.67,-2.61,-2.65,4.90,4.92,4.91
37.06,7.58,2.66,7.59,2.67,-2.67,-2.59,-2.60,4.91,4.92,4.92
37.43,7.59,2.67,7.59,2.67,-2.67,-2.57,-2.55,4.92,4.91,4.92
37.81,7.60,2.68,7.58,2.67,-2.67,-2.56,-2.50,4.93,4.91,4.92
38.19,7.60,2.68,7.58,2.67,-2.67,-2.54,-2.44,4.93,4.91,4.92
38.57,7.59,2.68,7.57,2.66,-2.66,-2.52,-2.39,4.93,4.91,4.91
38.95,7.58,2.67,7.57,2.66,-2.66,-2.50,-2.34,4.92,4.91,4.91
39.34,7.56,2.66,7.55,2.65,-2.65,-2.48,-2.28,4.91,4.91,4.90
39.74,7.54,2.64,7.54,2.64,-2.64,-2.47,-2.23,4.90,4.90,4.90
40.14,7.52,2.62,7.52,2.62,-2.62,-2.45,-2.18,4.90,4.90,4.90
40.54,7.49,2.59,7.50,2.60,-2.60,-2.43,-2.13,4.89,4.90,4.90
40.94,7.47,2.58,7.47,2.58,-2.58,-2.41,-2.08,4.89,4.90,4.89
41.35,7.44,2.55,7.44,2.55,-2.55,-2.39,-2.03,4.89,4.89,4.89
41.76,7.42,2.53,7.41,2.52,-2.52,-2.37,-1.98,4.90,4.89,4.89
42.18,7.39,2.50,7.38,2.49,-2.49,-2.35,-1.94,4.90,4.89,4.89
42.60,7.36,2.47,7.34,2.46,-2.46,-2.33,-1.89,4.90,4.88,4.89
43.03,7.32,2.43,7.31,2.43,-2.43,-2.31,-1.85,4.89,4.88,4.89
43.46,7.28,2.39,7.28,2.40,-2.40,-2.30,-1.80,4.88,4.88,4.89
43.90,7.23,2.36,7.24,2.37,-2.37,-2.28,-1.76,4.86,4.88,4.87
44.33,7.19,2.32,7.21,2.34,-2.34,-2.26,-1.72,4.85,4.87,4.87
44.78,7.15,2.29,7.18,2.31,-2.31,-2.24,-1.68,4.84,4.87,4.86
45.23,7.12,2.26,7.14,2.28,-2.28,-2.22,-1.64,4.84,4.87,4.86
45.68,7.10,2.24,7.11,2.25,-2.25,-2.20,-1.61,4.85,4.86,4.86
46.13,7.08,2.23,7.08,2.22,-2.22,-2.19,-1.57,4.86,4.86,4.85
46.60,7.06,2.20,7.04,2.19,-2.19,-2.17,-1.53,4.87,4.85,4.86
47.06,7.04,2.19,7.01,2.17,-2.17,-2.15,-1.50,4.87,4.84,4.85
47.53,7.00,2.16,6.98,2.15,-2.15,-2.13,-1.47,4.85,4.84,4.84
48.01,6.96,2.11,6.95,2.13,-2.13,-2.12,-1.44,4.83,4.83,4.85
48.49,6.92,2.09,6.92,2.10,-2.10,-2.10,-1.41,4.81,4.82,4.83
48.97,6.88,2.07,6.90,2.08,-2.08,-2.09,-1.38,4.79,4.81,4.81
49.46,6.85,2.05,6.86,2.06,-2.06,-2.07,-1.35,4.79,4.80,4.80
49.96,6.82,2.04,6.83,2.04,-2.04,-2.05,-1.33,4.78,4.79,4.78
50.46,6.79,2.01,6.79,2.02,-2.02,-2.04,-1.30,4.77,4.77,4.78
50.96,6.75,1.99,6.75,1.99,-1.99,-2.02,-1.28,4.76,4.76,4.76
51.47,6.72,1.99,6.71,1.97,-1.97,-2.01,-1.26,4.75,4.74,4.73
51.99,6.68,1.96,6.66,1.94,-1.94,-1.99,-1.24,4.74,4.72,4.72
52.51,6.64,1.93,6.62,1.91,-1.91,-1.98,-1.22,4.73,4.71,4.71
53.03,6.59,1.90,6.58,1.89,-1.89,-1.96,-1.20,4.70,4.69,4.69
53.56,6.54,1.86,6.53,1.86,-1.86,-1.95,-1.18,4.68,4.67,4.68
54.10,6.48,1.83,6.48,1.83,-1.83,-1.93,-1.17,4.65,4.65,4.65
54.64,6.42,1.78,6.43,1.80,-1.80,-1.92,-1.15,4.62,4.63,4.64
55.18,6.36,1.75,6.38,1.77,-1.77,-1.90,-1.14,4.59,4.61,4.61
55.74,6.32,1.74,6.33,1.74,-1.74,-1.89,-1.13,4.58,4.59,4.58
56.29,6.28,1.70,6.28,1.71,-1.71,-1.87,-1.12,4.57,4.57,4.58
56.86,6.23,1.68,6.22,1.67,-1.67,-1.85,-1.11,4.56,4.55,4.55
57.42,6.18,1.66,6.17,1.64,-1.64,-1.84,-1.10,4.54,4.53,4.52
58.00,6.12,1.62,6.11,1.61,-1.61,-1.82,-1.10,4.51,4.50,4.50
58.58,6.06,1.58,6.06,1.58,-1.58,-1.80,-1.09,4.48,4.48,4.48
59.16,6.01,1.55,6.01,1.55,-1.55,-1.78,-1.09,4.45,4.45,4.46
59.76,5.95,1.51,5.95,1.53,-1.53,-1.76,-1.09,4.42,4.42,4.44
60.35,5.90,1.49,5.90,1.51,-1.51,-1.74,-1.09,4.39,4.39,4.41
60.96,5.84,1.46,5.85,1.48,-1.48,-1.72,-1.09,4.36,4.36,4.38
61.57,5.79,1.46,5.79,1.46,-1.46,-1.70,-1.10,4.33,4.33,4.33
62.18,5.73,1.44,5.73,1.43,-1.43,-1.67,-1.10,4.30,4.30,4.29
62.80,5.67,1.40,5.67,1.41,-1.41,-1.65,-1.11,4.26,4.26,4.27
63.43,5.61,1.39,5.62,1.39,-1.39,-1.62,-1.12,4.22,4.23,4.22
64.07,5.56,1.38,5.56,1.37,-1.37,-1.59,-1.13,4.19,4.19,4.18
64.71,5.51,1.36,5.50,1.35,-1.35,-1.55,-1.14,4.16,4.15,4.15
65.35,5.45,1.34,5.44,1.33,-1.33,-1.52,-1.15,4.12,4.11,4.11
66.01,5.39,1.32,5.38,1.31,-1.31,-1.48,-1.17,4.08,4.07,4.07
66.67,5.31,1.27,5.32,1.28,-1.28,-1.44,-1.19,4.03,4.03,4.04
67.33,5.24,1.24,5.25,1.26,-1.26,-1.40,-1.20,3.98,3.99,4.00
68.01,5.19,1.23,5.19,1.23,-1.23,-1.35,-1.22,3.96,3.96,3.96
68.69,5.13,1.21,5.12,1.20,-1.20,-1.30,-1.25,3.93,3.92,3.92
69.37,5.07,1.19,5.05,1.18,-1.18,-1.25,-1.27,3.89,3.88,3.88
70.07,5.00,1.16,4.99,1.15,-1.15,-1.19,-1.29,3.85,3.84,3.84
70.77,4.92,1.12,4.92,1.12,-1.12,-1.13,-1.32,3.80,3.80,3.80
71.48,4.85,1.08,4.85,1.09,-1.09,-1.07,-1.35,3.76,3.76,3.77
72.19,4.78,1.06,4.79,1.06,-1.06,-1.01,-1.38,3.72,3.72,3.72
72.91,4.72,1.03,4.72,1.03,-1.03,-0.95,-1.41,3.68,3.69,3.69
73.64,4.65,1.00,4.66,1.01,-1.01,-0.88,-1.44,3.64,3.65,3.65
74.38,4.59,0.97,4.60,0.98,-0.98,-0.82,-1.48,3.61,3.62,3.62
75.12,4.54,0.96,4.54,0.95,-0.95,-0.76,-1.51,3.59,3.58,3.58
75.87,4.49,0.94,4.48,0.93,-0.93,-0.70,-1.55,3.56,3.55,3.55
76.63,4.44,0.92,4.42,0.90,-0.90,-0.65,-1.59,3.54,3.52,3.52
77.40,4.38,0.89,4.37,0.88,-0.88,-0.61,-1.63,3.50,3.49,3.49
78.17,4.33,0.87,4.33,0.86,-0.86,-0.58,-1.67,3.46,3.46,3.46
78.95,4.27,0.84,4.28,0.85,-0.85,-0.56,-1.72,3.42,3.43,3.43
79.74,4.24,0.83,4.25,0.84,-0.84,-0.56,-1.76,3.40,3.41,3.41
80.54,4.21,0.82,4.22,0.83,-0.83,-0.57,-1.81,3.38,3.38,3.39
81.35,4.18,0.82,4.19,0.83,-0.83,-0.60,-1.86,3.35,3.36,3.36
82.16,4.17,0.84,4.17,0.83,-0.83,-0.64,-1.91,3.34,3.33,3.33
82.98,4.15,0.83,4.15,0.84,-0.84,-0.70,-1.96,3.31,3.31,3.32
83.81,4.14,0.85,4.14,0.85,-0.85,-0.78,-2.01,3.29,3.29,3.29
84.65,4.15,0.89,4.14,0.87,-0.87,-0.86,-2.07,3.28,3.27,3.26
85.50,4.16,0.91,4.15,0.90,-0.90,-0.96,-2.13,3.26,3.25,3.25
86.35,4.17,0.94,4.17,0.94,-0.94,-1.07,-2.18,3.23,3.23,3.23
87.22,4.18,0.97,4.20,0.99,-0.99,-1.18,-2.25,3.19,3.21,3.21
88.09,4.21,1.02,4.23,1.04,-1.04,-1.30,-2.31,3.17,3.19,3.19
88.97,4.25,1.08,4.27,1.10,-1.10,-1.42,-2.37,3.15,3.17,3.17
89.86,4.30,1.14,4.32,1.16,-1.16,-1.55,-2.44,3.14,3.15,3.16
90.76,4.37,1.24,4.37,1.24,-1.24,-1.67,-2.51,3.13,3.13,3.13
91.66,4.44,1.33,4.43,1.32,-1.32,-1.79,-2.58,3.12,3.11,3.11
92.58,4.51,1.42,4.50,1.41,-1.41,-1.90,-2.65,3.10,3.09,3.09
93.51,4.59,1.51,4.58,1.50,-1.50,-2.02,-2.72,3.09,3.07,3.08
94.44,4.67,1.61,4.66,1.61,-1.61,-2.13,-2.79,3.06,3.05,3.06
95.39,4.75,1.71,4.75,1.72,-1.72,-2.24,-2.87,3.03,3.03,3.04
96.34,4.84,1.83,4.84,1.83,-1.83,-2.34,-2.95,3.00,3.01,3.01
97.30,4.92,1.94,4.94,1.96,-1.96,-2.44,-3.03,2.96,2.98,2.98
98.28,5.03,2.08,5.04,2.09,-2.09,-2.54,-3.11,2.94,2.96,2.95
99.26,5.14,2.21,5.15,2.22,-2.22,-2.63,-3.19,2.92,2.93,2.93
100.25,5.25,2.35,5.26,2.36,-2.36,-2.72,-3.27,2.89,2.90,2.90
101.25,5.37,2.50,5.37,2.50,-2.50,-2.80,-3.35,2.87,2.87,2.87
102.27,5.48,2.65,5.49,2.65,-2.65,-2.89,-3.43,2.83,2.84,2.83
103.29,5.59,2.79,5.60,2.80,-2.80,-2.96,-3.51,2.79,2.80,2.80
104.32,5.71,2.94,5.72,2.95,-2.95,-3.04,-3.60,2.76,2.76,2.77
105.37,5.84,3.11,5.83,3.11,-3.11,-3.11,-3.68,2.73,2.72,2.73
106.42,5.95,3.27,5.94,3.26,-3.26,-3.18,-3.76,2.69,2.68,2.68
107.48,6.06,3.41,6.04,3.41,-3.41,-3.25,-3.84,2.65,2.63,2.65
108.56,6.15,3.56,6.14,3.56,-3.56,-3.32,-3.92,2.59,2.59,2.59
109.64,6.25,3.71,6.24,3.70,-3.70,-3.38,-3.99,2.55,2.54,2.54
110.74,6.33,3.84,6.32,3.84,-3.84,-3.44,-4.07,2.49,2.48,2.49
111.85,6.40,3.96,6.40,3.97,-3.97,-3.50,-4.14,2.43,2.43,2.44
112.97,6.47,4.10,6.46,4.09,-4.09,-3.55,-4.21,2.38,2.37,2.37
114.10,6.52,4.20,6.52,4.20,-4.20,-3.61,-4.27,2.31,2.31,2.32
115.24,6.57,4.31,6.56,4.31,-4.31,-3.66,-4.33,2.26,2.26,2.26
116.39,6.61,4.42,6.60,4.40,-4.40,-3.71,-4.39,2.21,2.20,2.19
117.55,6.63,4.50,6.62,4.48,-4.48,-3.75,-4.44,2.15,2.14,2.13
118.73,6.64,4.57,6.63,4.55,-4.55,-3.80,-4.48,2.09,2.08,2.07
119.92,6.64,4.62,6.63,4.61,-4.61,-3.84,-4.52,2.03,2.02,2.02
121.12,6.63,4.67,6.63,4.66,-4.66,-3.89,-4.55,1.97,1.97,1.96
122.33,6.61,4.70,6.61,4.70,-4.70,-3.92,-4.58,1.91,1.91,1.91
123.55,6.58,4.72,6.58,4.72,-4.72,-3.96,-4.60,1.86,1.86,1.86
124.79,6.54,4.73,6.54,4.74,-4.74,-4.00,-4.62,1.80,1.80,1.81
126.03,6.49,4.73,6.50,4.74,-4.74,-4.03,-4.62,1.75,1.75,1.76
127.29,6.44,4.73,6.44,4.74,-4.74,-4.06,-4.62,1.70,1.70,1.71
128.57,6.39,4.74,6.38,4.72,-4.72,-4.09,-4.62,1.67,1.66,1.65
129.85,6.32,4.71,6.31,4.70,-4.70,-4.12,-4.61,1.62,1.61,1.61
131.15,6.24,4.68,6.23,4.66,-4.66,-4.14,-4.59,1.57,1.57,1.56
132.46,6.16,4.64,6.15,4.63,-4.63,-4.17,-4.56,1.53,1.52,1.52
133.79,6.07,4.59,6.06,4.58,-4.58,-4.19,-4.54,1.49,1.48,1.48
135.12,5.98,4.54,5.97,4.53,-4.53,-4.21,-4.50,1.45,1.44,1.44
136.48,5.88,4.48,5.87,4.48,-4.48,-4.23,-4.46,1.40,1.40,1.40
137.84,5.78,4.42,5.78,4.42,-4.42,-4.24,-4.42,1.36,1.36,1.36
139.22,5.67,4.36,5.68,4.36,-4.36,-4.25,-4.37,1.31,1.32,1.31
140.61,5.58,4.31,5.58,4.30,-4.30,-4.27,-4.32,1.28,1.28,1.27
142.02,5.48,4.23,5.49,4.25,-4.25,-4.27,-4.27,1.23,1.24,1.25
143.44,5.40,4.19,5.40,4.20,-4.20,-4.28,-4.22,1.20,1.21,1.21
144.87,5.31,4.14,5.32,4.16,-4.16,-4.29,-4.16,1.15,1.17,1.17
146.32,5.23,4.10,5.25,4.12,-4.12,-4.29,-4.10,1.11,1.13,1.13
147.78,5.17,4.07,5.18,4.09,-4.09,-4.29,-4.05,1.08,1.09,1.10
149.26,5.11,4.04,5.13,4.07,-4.07,-4.29,-3.99,1.04,1.05,1.07
150.75,5.06,4.05,5.08,4.06,-4.06,-4.28,-3.93,0.99,1.01,1.01
152.26,5.02,4.05,5.04,4.07,-4.07,-4.28,-3.87,0.95,0.97,0.97
153.78,5.00,4.06,5.01,4.08,-4.08,-4.27,-3.81,0.92,0.93,0.94
155.32,4.98,4.10,4.99,4.10,-4.10,-4.26,-3.75,0.88,0.89,0.88
156.88,4.96,4.11,4.97,4.13,-4.13,-4.25,-3.69,0.83,0.84,0.85
158.44,4.96,4.16,4.96,4.16,-4.16,-4.24,-3.64,0.80,0.80,0.80
160.03,4.96,4.21,4.96,4.21,-4.21,-4.22,-3.59,0.75,0.75,0.75
161.63,4.95,4.25,4.96,4.25,-4.25,-4.21,-3.53,0.70,0.71,0.70
163.24,4.96,4.30,4.97,4.30,-4.30,-4.19,-3.48,0.66,0.66,0.66
164.88,4.97,4.35,4.97,4.36,-4.36,-4.17,-3.43,0.61,0.61,0.62
166.53,4.99,4.42,4.98,4.41,-4.41,-4.14,-3.39,0.58,0.57,0.57
168.19,5.00,4.48,4.98,4.46,-4.46,-4.12,-3.34,0.53,0.52,0.52
169.87,5.00,4.53,4.99,4.52,-4.52,-4.10,-3.30,0.48,0.47,0.47
171.57,5.00,4.57,4.99,4.57,-4.57,-4.07,-3.26,0.43,0.42,0.43
173.29,4.99,4.62,4.99,4.62,-4.62,-4.04,-3.22,0.37,0.37,0.37
175.02,4.98,4.66,4.98,4.67,-4.67,-4.01,-3.19,0.31,0.31,0.32
176.77,4.97,4.71,4.97,4.71,-4.71,-3.98,-3.16,0.26,0.26,0.26
178.54,4.95,4.74,4.95,4.74,-4.74,-3.95,-3.13,0.20,0.21,0.21
180.32,4.93,4.78,4.93,4.78,-4.78,-3.91,-3.10,0.15,0.15,0.15
182.13,4.90,4.80,4.89,4.80,-4.80,-3.88,-3.08,0.10,0.09,0.10
183.95,4.86,4.82,4.85,4.81,-4.81,-3.84,-3.05,0.04,0.04,0.04
185.79,4.82,4.83,4.81,4.82,-4.82,-3.80,-3.03,-0.00,-0.02,-0.01
187.65,4.76,4.84,4.75,4.82,-4.82,-3.77,-3.02,-0.06,-0.07,-0.08
189.52,4.69,4.82,4.69,4.81,-4.81,-3.73,-3.00,-0.12,-0.13,-0.13
191.42,4.62,4.80,4.62,4.80,-4.80,-3.69,-2.99,-0.18,-0.18,-0.18
193.33,4.55,4.78,4.54,4.77,-4.77,-3.64,-2.97,-0.22,-0.23,-0.23
195.27,4.46,4.74,4.45,4.73,-4.73,-3.60,-2.97,-0.27,-0.29,-0.28
197.22,4.36,4.70,4.35,4.69,-4.69,-3.56,-2.96,-0.33,-0.34,-0.34
199.19,4.25,4.64,4.25,4.64,-4.64,-3.52,-2.95,-0.39,-0.39,-0.39
201.18,4.14,4.58,4.14,4.57,-4.57,-3.47,-2.95,-0.43,-0.43,-0.44
203.19,4.02,4.49,4.02,4.51,-4.51,-3.43,-2.94,-0.49,-0.48,-0.47
205.23,3.91,4.44,3.90,4.43,-4.43,-3.38,-2.94,-0.52,-0.53,-0.53
207.28,3.79,4.34,3.78,4.35,-4.35,-3.34,-2.94,-0.56,-0.57,-0.55
209.35,3.66,4.27,3.65,4.26,-4.26,-3.29,-2.94,-0.60,-0.61,-0.61
211.44,3.52,4.18,3.52,4.17,-4.17,-3.24,-2.94,-0.65,-0.65,-0.66
213.56,3.38,4.08,3.38,4.08,-4.08,-3.19,-2.95,-0.70,-0.69,-0.70
215.69,3.24,3.96,3.25,3.98,-3.98,-3.15,-2.95,-0.74,-0.73,-0.72
217.85,3.12,3.88,3.12,3.88,-3.88,-3.10,-2.95,-0.76,-0.76,-0.76
220.03,2.98,3.78,2.98,3.78,-3.78,-3.05,-2.95,-0.80,-0.80,-0.80
222.23,2.85,3.68,2.85,3.68,-3.68,-3.00,-2.95,-0.83,-0.83,-0.83
224.45,2.72,3.57,2.72,3.58,-3.58,-2.95,-2.95,-0.86,-0.85,-0.85
226.70,2.59,3.47,2.60,3.48,-3.48,-2.90,-2.95,-0.89,-0.88,-0.88
228.96,2.47,3.38,2.47,3.38,-3.38,-2.85,-2.95,-0.91,-0.90,-0.91
231.25,2.35,3.27,2.35,3.28,-3.28,-2.80,-2.95,-0.93,-0.92,-0.92
233.57,2.23,3.17,2.24,3.18,-3.18,-2.75,-2.94,-0.95,-0.94,-0.94
235.90,2.12,3.07,2.13,3.08,-3.08,-2.70,-2.93,-0.97,-0.95,-0.95
238.26,2.03,2.99,2.03,2.99,-2.99,-2.65,-2.93,-0.96,-0.96,-0.96
240.64,1.94,2.91,1.93,2.90,-2.90,-2.60,-2.91,-0.96,-0.97,-0.97
243.05,1.84,2.81,1.84,2.81,-2.81,-2.55,-2.90,-0.98,-0.98,-0.97
245.48,1.74,2.72,1.75,2.73,-2.73,-2.49,-2.88,-0.99,-0.98,-0.98
247.93,1.66,2.64,1.67,2.65,-2.65,-2.44,-2.86,-0.99,-0.98,-0.98
250.41,1.59,2.57,1.59,2.57,-2.57,-2.39,-2.84,-0.98,-0.98,-0.98
252.92,1.51,2.48,1.52,2.49,-2.49,-2.33,-2.82,-0.98,-0.97,-0.97
255.45,1.44,2.40,1.45,2.41,-2.41,-2.28,-2.79,-0.97,-0.96,-0.96
258.00,1.38,2.33,1.38,2.34,-2.34,-2.23,-2.76,-0.96,-0.96,-0.95
260.58,1.31,2.26,1.31,2.26,-2.26,-2.17,-2.72,-0.95,-0.95,-0.95
263.19,1.25,2.19,1.25,2.18,-2.18,-2.12,-2.69,-0.93,-0.94,-0.94
265.82,1.18,2.11,1.18,2.11,-2.11,-2.06,-2.65,-0.93,-0.93,-0.93
268.48,1.12,2.03,1.12,2.03,-2.03,-2.00,-2.61,-0.91,-0.91,-0.91
271.16,1.07,1.96,1.05,1.95,-1.95,-1.95,-2.56,-0.88,-0.90,-0.89
273.87,1.00,1.89,0.98,1.87,-1.87,-1.89,-2.52,-0.87,-0.89,-0.89
276.61,0.92,1.78,0.92,1.79,-1.79,-1.83,-2.47,-0.87,-0.87,-0.86
279.38,0.85,1.71,0.85,1.70,-1.70,-1.77,-2.42,-0.86,-0.86,-0.86
282.17,0.78,1.62,0.77,1.62,-1.62,-1.71,-2.37,-0.84,-0.85,-0.84
284.99,0.70,1.53,0.70,1.53,-1.53,-1.65,-2.32,-0.83,-0.83,-0.83
287.84,0.62,1.44,0.62,1.44,-1.44,-1.58,-2.27,-0.82,-0.82,-0.82
290.72,0.54,1.35,0.54,1.35,-1.35,-1.52,-2.21,-0.81,-0.80,-0.81
293.63,0.47,1.26,0.46,1.25,-1.25,-1.45,-2.16,-0.78,-0.79,-0.79
296.57,0.39,1.16,0.38,1.16,-1.16,-1.38,-2.10,-0.77,-0.78,-0.77
299.53,0.30,1.07,0.29,1.06,-1.06,-1.31,-2.05,-0.76,-0.77,-0.77
302.53,0.21,0.97,0.21,0.96,-0.96,-1.24,-1.99,-0.75,-0.75,-0.76
305.55,0.12,0.86,0.13,0.87,-0.87,-1.16,-1.94,-0.75,-0.74,-0.74
308.61,0.04,0.77,0.04,0.77,-0.77,-1.08,-1.88,-0.73,-0.73,-0.73
311.69,-0.04,0.68,-0.04,0.68,-0.68,-1.00,-1.83,-0.72,-0.72,-0.72
314.81,-0.12,0.57,-0.12,0.59,-0.59,-0.92,-1.77,-0.71,-0.71,-0.69
317.96,-0.20,0.50,-0.20,0.50,-0.50,-0.84,-1.72,-0.70,-0.70,-0.70
321.14,-0.28,0.41,-0.28,0.41,-0.41,-0.75,-1.66,-0.69,-0.69,-0.69
324.35,-0.35,0.34,-0.36,0.33,-0.33,-0.66,-1.61,-0.68,-0.69,-0.69
327.59,-0.43,0.25,-0.43,0.25,-0.25,-0.57,-1.56,-0.68,-0.68,-0.68
330.87,-0.50,0.18,-0.50,0.18,-0.18,-0.48,-1.51,-0.68,-0.68,-0.68
334.18,-0.56,0.12,-0.56,0.12,-0.12,-0.38,-1.46,-0.68,-0.67,-0.68
337.52,-0.62,0.05,-0.61,0.06,-0.06,-0.29,-1.40,-0.68,-0.67,-0.67
340.90,-0.68,-0.01,-0.67,0.01,-0.01,-0.20,-1.35,-0.69,-0.67,-0.67
344.30,-0.73,-0.06,-0.71,-0.04,0.04,-0.11,-1.31,-0.69,-0.67,-0.67
347.75,-0.76,-0.09,-0.75,-0.08,0.08,-0.02,-1.26,-0.68,-0.67,-0.67
351.23,-0.79,-0.12,-0.79,-0.11,0.11,0.07,-1.21,-0.68,-0.68,-0.67
354.74,-0.82,-0.15,-0.81,-0.13,0.13,0.14,-1.16,-0.69,-0.68,-0.67
358.28,-0.84,-0.15,-0.84,-0.15,0.15,0.21,-1.12,-0.69,-0.68,-0.69
361.87,-0.85,-0.16,-0.85,-0.16,0.16,0.27,-1.07,-0.69,-0.69,-0.69
365.49,-0.86,-0.17,-0.86,-0.17,0.17,0.32,-1.03,-0.69,-0.69,-0.69
369.14,-0.87,-0.17,-0.87,-0.17,0.17,0.36,-0.99,-0.70,-0.70,-0.70
372.83,-0.88,-0.18,-0.88,-0.17,0.17,0.39,-0.95,-0.71,-0.71,-0.70
376.56,-0.88,-0.17,-0.88,-0.16,0.16,0.40,-0.91,-0.72,-0.71,-0.71
380.33,-0.88,-0.16,-0.88,-0.16,0.16,0.41,-0.87,-0.72,-0.72,-0.72
384.13,-0.87,-0.14,-0.88,-0.15,0.15,0.40,-0.83,-0.72,-0.73,-0.73
387.97,-0.86,-0.12,-0.87,-0.14,0.14,0.38,-0.79,-0.72,-0.74,-0.74
391.85,-0.86,-0.11,-0.87,-0.13,0.13,0.35,-0.75,-0.73,-0.74,-0.75
395.77,-0.86,-0.12,-0.87,-0.12,0.12,0.32,-0.71,-0.74,-0.75,-0.74
399.73,-0.86,-0.11,-0.87,-0.11,0.11,0.28,-0.68,-0.75,-0.76,-0.75
403.72,-0.86,-0.10,-0.87,-0.10,0.10,0.24,-0.64,-0.76,-0.76,-0.76
407.76,-0.86,-0.09,-0.87,-0.10,0.10,0.19,-0.61,-0.76,-0.77,-0.77
411.84,-0.86,-0.10,-0.87,-0.10,0.10,0.14,-0.58,-0.77,-0.77,-0.76
415.96,-0.86,-0.08,-0.87,-0.09,0.09,0.09,-0.54,-0.77,-0.78,-0.78
420.12,-0.86,-0.08,-0.87,-0.09,0.09,0.05,-0.51,-0.77,-0.78,-0.78
424.32,-0.86,-0.08,-0.87,-0.09,0.09,-0.00,-0.48,-0.77,-0.78,-0.78
428.56,-0.87,-0.08,-0.87,-0.09,0.09,-0.04,-0.45,-0.78,-0.78,-0.79
432.85,-0.88,-0.09,-0.87,-0.09,0.09,-0.09,-0.42,-0.79,-0.79,-0.79
437.18,-0.88,-0.09,-0.87,-0.08,0.08,-0.13,-0.40,-0.80,-0.79,-0.79
441.55,-0.88,-0.10,-0.87,-0.08,0.08,-0.17,-0.37,-0.80,-0.79,-0.78
445.96,-0.87,-0.09,-0.86,-0.07,0.07,-0.20,-0.34,-0.80,-0.79,-0.78
450.42,-0.86,-0.07,-0.85,-0.06,0.06,-0.23,-0.32,-0.80,-0.78,-0.79
454.93,-0.84,-0.06,-0.84,-0.05,0.05,-0.27,-0.30,-0.79,-0.78,-0.78
459.48,-0.81,-0.03,-0.82,-0.04,0.04,-0.29,-0.28,-0.77,-0.78,-0.78
464.07,-0.79,-0.02,-0.80,-0.02,0.02,-0.32,-0.25,-0.77,-0.77,-0.77
468.71,-0.77,-0.01,-0.77,-0.00,0.00,-0.35,-0.24,-0.77,-0.77,-0.76
473.40,-0.75,0.02,-0.74,0.02,-0.02,-0.37,-0.22,-0.77,-0.77,-0.77
478.13,-0.72,0.04,-0.71,0.05,-0.05,-0.39,-0.20,-0.77,-0.76,-0.76
482.91,-0.68,0.08,-0.67,0.08,-0.08,-0.41,-0.19,-0.76,-0.76,-0.76
487.74,-0.64,0.11,-0.64,0.11,-0.11,-0.43,-0.17,-0.75,-0.75,-0.75
492.62,-0.60,0.14,-0.60,0.15,-0.15,-0.45,-0.16,-0.75,-0.75,-0.74
497.55,-0.55,0.19,-0.56,0.18,-0.18,-0.46,-0.15,-0.73,-0.74,-0.74
502.52,-0.51,0.22,-0.52,0.22,-0.22,-0.48,-0.14,-0.73,-0.74,-0.73
507.55,-0.47,0.26,-0.48,0.25,-0.25,-0.49,-0.13,-0.73,-0.73,-0.73
