frequency,raw,error,smoothed,error_smoothed,equalization,parametric_eq,fixed_band_eq,equalized_raw,equalized_smoothed,target
20.00,3.13,-10.01,3.10,-10.05,10.05,9.14,4.16,13.17,13.14,13.14
20.20,3.13,-10.02,3.14,-10.01,10.01,9.22,4.27,13.14,13.15,13.15
20.40,3.17,-9.99,3.18,-9.98,9.98,9.30,4.39,13.15,13.16,13.16
20.61,3.22,-9.95,3.23,-9.94,9.94,9.37,4.51,13.16,13.17,13.17
20.81,3.27,-9.90,3.27,-9.91,9.91,9.43,4.63,13.18,13.18,13.17
21.02,3.30,-9.88,3.31,-9.87,9.87,9.49,4.75,13.17,13.18,13.18
21.23,3.35,-9.84,3.35,-9.84,9.84,9.54,4.88,13.19,13.19,13.19
21.44,3.40,-9.81,3.39,-9.80,9.80,9.58,5.01,13.20,13.20,13.21
21.66,3.43,-9.78,3.43,-9.77,9.77,9.62,5.14,13.20,13.20,13.21
21.87,3.48,-9.74,3.47,-9.73,9.73,9.65,5.28,13.21,13.21,13.21
22.09,3.52,-9.70,3.51,-9.70,9.70,9.67,5.42,13.22,13.21,13.21
22.31,3.56,-9.66,3.55,-9.66,9.66,9.68,5.57,13.22,13.22,13.22
22.54,3.59,-9.63,3.60,-9.63,9.63,9.68,5.72,13.21,13.22,13.22
22.76,3.64,-9.59,3.64,-9.59,9.59,9.68,5.87,13.23,13.23,13.23
22.99,3.67,-9.56,3.67,-9.56,9.56,9.66,6.03,13.22,13.23,13.23
23.22,3.71,-9.52,3.71,-9.52,9.52,9.64,6.19,13.23,13.23,13.23
23.45,3.76,-9.48,3.75,-9.49,9.49,9.62,6.35,13.24,13.24,13.24
23.69,3.79,-9.45,3.79,-9.45,9.45,9.58,6.52,13.24,13.24,13.23
23.92,3.82,-9.42,3.82,-9.42,9.42,9.54,6.69,13.24,13.24,13.23
24.16,3.87,-9.37,3.86,-9.38,9.38,9.50,6.87,13.25,13.24,13.24
24.40,3.90,-9.35,3.89,-9.35,9.35,9.45,7.05,13.25,13.24,13.25
24.65,3.93,-9.32,3.93,-9.32,9.32,9.39,7.23,13.24,13.24,13.25
24.89,3.96,-9.29,3.96,-9.28,9.28,9.33,7.42,13.24,13.24,13.25
25.14,4.00,-9.25,4.00,-9.25,9.25,9.26,7.61,13.25,13.24,13.25
25.39,4.02,-9.23,4.03,-9.22,9.22,9.19,7.80,13.23,13.24,13.24
25.65,4.06,-9.18,4.06,-9.18,9.18,9.12,7.99,13.24,13.25,13.24
25.91,4.10,-9.14,4.09,-9.15,9.15,9.04,8.19,13.25,13.24,13.24
26.16,4.13,-9.12,4.12,-9.12,9.12,8.96,8.39,13.25,13.24,13.25
26.43,4.16,-9.09,4.16,-9.09,9.09,8.88,8.58,13.25,13.24,13.25
26.69,4.19,-9.06,4.19,-9.06,9.06,8.80,8.78,13.24,13.24,13.24
26.96,4.22,-9.02,4.22,-9.03,9.03,8.71,8.97,13.24,13.24,13.24
27.23,4.25,-8.99,4.25,-8.99,8.99,8.63,9.17,13.24,13.24,13.24
27.50,4.28,-8.96,4.28,-8.96,8.96,8.54,9.36,13.24,13.24,13.24
27.77,4.31,-8.94,4.31,-8.94,8.94,8.46,9.54,13.24,13.24,13.24
28.05,4.34,-8.90,4.34,-8.91,8.91,8.37,9.72,13.24,13.24,13.24
28.33,4.36,-8.88,4.36,-8.88,8.88,8.29,9.89,13.24,13.24,13.24
28.62,4.40,-8.84,4.39,-8.85,8.85,8.20,10.06,13.25,13.24,13.24
28.90,4.41,-8.83,4.42,-8.82,8.82,8.12,10.21,13.23,13.24,13.24
29.19,4.45,-8.79,4.45,-8.79,8.79,8.04,10.35,13.24,13.24,13.24
29.48,4.48,-8.76,4.47,-8.76,8.76,7.96,10.48,13.24,13.24,13.24
29.78,4.49,-8.75,4.50,-8.73,8.73,7.88,10.60,13.22,13.23,13.23
30.08,4.54,-8.70,4.53,-8.70,8.70,7.80,10.69,13.24,13.23,13.24
30.38,4.55,-8.68,4.55,-8.67,8.67,7.72,10.77,13.22,13.23,13.23
30.68,4.58,-8.64,4.58,-8.65,8.65,7.65,10.84,13.22,13.22,13.22
30.99,4.61,-8.61,4.60,-8.62,8.62,7.58,10.88,13.22,13.22,13.22
31.30,4.62,-8.60,4.63,-8.59,8.59,7.51,10.90,13.20,13.21,13.21
31.61,4.67,-8.54,4.65,-8.56,8.56,7.45,10.91,13.22,13.21,13.21
31.93,4.67,-8.53,4.68,-8.53,8.53,7.38,10.89,13.20,13.20,13.20
32.24,4.71,-8.49,4.70,-8.50,8.50,7.32,10.86,13.21,13.20,13.20
32.57,4.72,-8.47,4.72,-8.47,8.47,7.27,10.81,13.19,13.19,13.19
32.89,4.75,-8.43,4.75,-8.44,8.44,7.21,10.74,13.19,13.18,13.18
33.22,4.76,-8.42,4.77,-8.41,8.41,7.16,10.65,13.17,13.18,13.18
33.55,4.80,-8.37,4.79,-8.38,8.38,7.11,10.56,13.18,13.17,13.17
33.89,4.80,-8.37,4.81,-8.35,8.35,7.07,10.45,13.15,13.16,13.17
34.23,4.84,-8.31,4.83,-8.32,8.32,7.03,10.32,13.16,13.15,13.15
34.57,4.86,-8.29,4.85,-8.29,8.29,6.99,10.19,13.15,13.14,13.14
34.92,4.88,-8.25,4.88,-8.26,8.26,6.96,10.06,13.13,13.13,13.13
35.27,4.89,-8.24,4.90,-8.23,8.23,6.92,9.91,13.11,13.12,13.13
35.62,4.93,-8.18,4.92,-8.19,8.19,6.90,9.76,13.12,13.11,13.10
35.97,4.93,-8.17,4.94,-8.16,8.16,6.87,9.61,13.09,13.09,13.10
36.33,4.97,-8.11,4.96,-8.12,8.12,6.85,9.46,13.09,13.08,13.08
36.70,4.97,-8.10,4.97,-8.09,8.09,6.83,9.30,13.06,13.06,13.06
37.06,5.00,-8.05,4.99,-8.05,8.05,6.82,9.15,13.05,13.05,13.04
37.43,5.01,-8.02,5.01,-8.02,8.02,6.81,8.99,13.03,13.03,13.03
37.81,5.02,-7.99,5.03,-7.98,7.98,6.80,8.84,13.00,13.01,13.01
38.19,5.06,-7.93,5.04,-7.95,7.95,6.80,8.68,13.00,12.99,12.99
38.57,5.06,-7.91,5.06,-7.91,7.91,6.80,8.54,12.97,12.97,12.97
38.95,5.08,-7.87,5.08,-7.87,7.87,6.80,8.39,12.95,12.95,12.95
39.34,5.10,-7.82,5.09,-7.83,7.83,6.80,8.25,12.93,12.93,12.92
39.74,5.10,-7.80,5.11,-7.80,7.80,6.81,8.11,12.89,12.91,12.90
40.14,5.14,-7.74,5.13,-7.75,7.75,6.82,7.97,12.89,12.88,12.88
40.54,5.14,-7.72,5.14,-7.71,7.71,6.83,7.85,12.85,12.86,12.86
40.94,5.15,-7.68,5.16,-7.67,7.67,6.84,7.72,12.82,12.83,12.83
41.35,5.19,-7.62,5.17,-7.63,7.63,6.86,7.60,12.82,12.80,12.81
41.76,5.19,-7.59,5.19,-7.59,7.59,6.87,7.48,12.78,12.78,12.78
42.18,5.19,-7.56,5.20,-7.55,7.55,6.89,7.37,12.74,12.75,12.75
42.60,5.23,-7.49,5.21,-7.50,7.50,6.90,7.27,12.73,12.72,12.72
43.03,5.23,-7.46,5.23,-7.46,7.46,6.92,7.17,12.69,12.69,12.69
43.46,5.23,-7.42,5.24,-7.41,7.41,6.94,7.07,12.64,12.65,12.65
43.90,5.27,-7.35,5.25,-7.37,7.37,6.95,6.98,12.64,12.62,12.62
44.33,5.27,-7.31,5.27,-7.32,7.32,6.97,6.90,12.59,12.59,12.58
44.78,5.27,-7.28,5.28,-7.27,7.27,6.98,6.82,12.54,12.55,12.55
45.23,5.27,-7.25,5.29,-7.22,7.22,6.99,6.74,12.49,12.51,12.52
45.68,5.32,-7.16,5.30,-7.17,7.17,6.99,6.67,12.49,12.47,12.47
46.13,5.32,-7.11,5.31,-7.12,7.12,6.99,6.61,12.44,12.43,12.43
46.60,5.32,-7.07,5.32,-7.07,7.07,6.99,6.55,12.38,12.39,12.39
47.06,5.34,-7.01,5.34,-7.01,7.01,6.98,6.49,12.35,12.35,12.35
47.53,5.36,-6.95,5.35,-6.95,6.95,6.97,6.44,12.31,12.30,12.31
48.01,5.36,-6.89,5.36,-6.90,6.90,6.95,6.39,12.25,12.25,12.25
48.49,5.36,-6.85,5.37,-6.84,6.84,6.93,6.35,12.20,12.21,12.21
48.97,5.38,-6.78,5.38,-6.78,6.78,6.90,6.31,12.16,12.16,12.16
49.46,5.40,-6.72,5.39,-6.72,6.72,6.86,6.27,12.12,12.12,12.12
49.96,5.40,-6.66,5.40,-6.66,6.66,6.82,6.24,12.06,12.07,12.05
50.46,5.40,-6.61,5.41,-6.61,6.61,6.77,6.21,12.00,12.02,12.01
50.96,5.42,-6.55,5.42,-6.55,6.55,6.71,6.18,11.97,11.97,11.97
51.47,5.45,-6.47,5.43,-6.49,6.49,6.64,6.16,11.94,11.92,11.92
51.99,5.45,-6.42,5.44,-6.43,6.43,6.57,6.14,11.87,11.87,11.87
52.51,5.45,-6.37,5.45,-6.36,6.36,6.49,6.12,11.81,11.82,11.82
53.03,5.45,-6.33,5.46,-6.30,6.30,6.41,6.10,11.75,11.76,11.78
53.56,5.48,-6.24,5.47,-6.25,6.25,6.32,6.08,11.72,11.71,11.72
54.10,5.49,-6.17,5.48,-6.19,6.19,6.22,6.06,11.67,11.66,11.66
54.64,5.49,-6.12,5.49,-6.13,6.13,6.12,6.05,11.62,11.61,11.61
55.18,5.49,-6.06,5.49,-6.07,6.07,6.01,6.03,11.56,11.56,11.55
55.74,5.49,-6.01,5.50,-6.01,6.01,5.90,6.01,11.50,11.51,11.50
56.29,5.52,-5.94,5.51,-5.95,5.95,5.79,5.99,11.47,11.46,11.45
56.86,5.53,-5.88,5.52,-5.89,5.89,5.67,5.97,11.42,11.41,11.41
57.42,5.53,-5.82,5.53,-5.83,5.83,5.56,5.95,11.36,11.36,11.34
58.00,5.53,-5.77,5.54,-5.77,5.77,5.43,5.93,11.30,11.30,11.30
58.58,5.53,-5.73,5.54,-5.70,5.70,5.31,5.90,11.23,11.25,11.26
59.16,5.56,-5.65,5.55,-5.64,5.64,5.19,5.87,11.20,11.19,11.21
59.76,5.58,-5.58,5.56,-5.57,5.57,5.06,5.83,11.15,11.13,11.16
60.35,5.58,-5.51,5.57,-5.51,5.51,4.94,5.79,11.09,11.08,11.09
60.96,5.58,-5.45,5.58,-5.44,5.44,4.82,5.75,11.02,11.02,11.03
61.57,5.58,-5.38,5.58,-5.37,5.37,4.69,5.70,10.95,10.96,10.95
62.18,5.58,-5.30,5.59,-5.30,5.30,4.57,5.65,10.88,10.89,10.88
62.80,5.59,-5.23,5.60,-5.23,5.23,4.45,5.59,10.82,10.83,10.81
63.43,5.62,-5.13,5.61,-5.16,5.16,4.32,5.53,10.78,10.77,10.75
64.07,5.62,-5.07,5.61,-5.09,5.09,4.20,5.47,10.71,10.70,10.69
64.71,5.62,-5.01,5.62,-5.02,5.02,4.09,5.39,10.64,10.64,10.63
65.35,5.62,-4.95,5.62,-4.95,4.95,3.97,5.32,10.57,10.57,10.57
66.01,5.62,-4.89,5.63,-4.88,4.88,3.85,5.24,10.50,10.51,10.51
66.67,5.64,-4.82,5.63,-4.81,4.81,3.74,5.15,10.44,10.44,10.45
67.33,5.66,-4.72,5.64,-4.73,4.73,3.63,5.06,10.39,10.38,10.38
68.01,5.66,-4.66,5.65,-4.66,4.66,3.52,4.97,10.32,10.31,10.31
68.69,5.66,-4.59,5.66,-4.59,4.59,3.42,4.87,10.24,10.24,10.25
69.37,5.66,-4.53,5.66,-4.51,4.51,3.31,4.78,10.17,10.18,10.19
70.07,5.66,-4.46,5.67,-4.44,4.44,3.21,4.67,10.10,10.11,10.12
70.77,5.66,-4.39,5.67,-4.37,4.37,3.11,4.57,10.02,10.04,10.05
71.48,5.67,-4.31,5.68,-4.29,4.29,3.01,4.47,9.96,9.97,9.97
72.19,5.71,-4.19,5.69,-4.21,4.21,2.92,4.36,9.92,9.90,9.90
72.91,5.71,-4.12,5.69,-4.14,4.14,2.82,4.25,9.84,9.83,9.83
73.64,5.71,-4.04,5.70,-4.06,4.06,2.73,4.14,9.77,9.76,9.75
74.38,5.71,-3.97,5.71,-3.98,3.98,2.64,4.03,9.69,9.69,9.68
75.12,5.71,-3.90,5.71,-3.91,3.91,2.56,3.92,9.62,9.62,9.61
75.87,5.71,-3.84,5.72,-3.83,3.83,2.47,3.81,9.54,9.55,9.55
76.63,5.71,-3.77,5.72,-3.76,3.76,2.39,3.70,9.47,9.49,9.48
77.40,5.73,-3.69,5.73,-3.69,3.69,2.31,3.60,9.42,9.42,9.42
78.17,5.75,-3.60,5.73,-3.62,3.62,2.23,3.49,9.37,9.35,9.34
78.95,5.75,-3.54,5.74,-3.55,3.55,2.15,3.38,9.30,9.28,9.29
79.74,5.75,-3.48,5.74,-3.48,3.48,2.07,3.27,9.23,9.22,9.22
80.54,5.75,-3.41,5.74,-3.41,3.41,2.00,3.17,9.16,9.15,9.16
81.35,5.75,-3.34,5.75,-3.34,3.34,1.93,3.07,9.09,9.09,9.09
82.16,5.75,-3.28,5.75,-3.27,3.27,1.86,2.96,9.01,9.02,9.03
82.98,5.75,-3.21,5.76,-3.19,3.19,1.79,2.86,8.94,8.95,8.96
83.81,5.75,-3.14,5.76,-3.12,3.12,1.72,2.76,8.87,8.88,8.88
84.65,5.75,-3.06,5.77,-3.05,3.05,1.65,2.67,8.79,8.81,8.81
85.50,5.77,-2.97,5.77,-2.98,2.98,1.59,2.57,8.74,8.74,8.74
86.35,5.79,-2.88,5.77,-2.90,2.90,1.53,2.48,8.69,8.67,8.67
87.22,5.79,-2.82,5.77,-2.83,2.83,1.46,2.38,8.62,8.60,8.61
88.09,5.79,-2.74,5.78,-2.76,2.76,1.40,2.29,8.54,8.53,8.53
88.97,5.79,-2.67,5.78,-2.68,2.68,1.34,2.20,8.47,8.46,8.46
89.86,5.79,-2.60,5.79,-2.60,2.60,1.29,2.12,8.39,8.39,8.38
90.76,5.79,-2.53,5.79,-2.52,2.52,1.23,2.03,8.31,8.31,8.31
91.66,5.79,-2.45,5.80,-2.44,2.44,1.17,1.94,8.23,8.24,8.23
92.58,5.79,-2.38,5.80,-2.36,2.36,1.12,1.86,8.15,8.16,8.16
93.51,5.79,-2.30,5.81,-2.28,2.28,1.06,1.78,8.07,8.09,8.09
94.44,5.80,-2.22,5.81,-2.20,2.20,1.01,1.70,8.00,8.01,8.02
95.39,5.82,-2.12,5.81,-2.12,2.12,0.96,1.62,7.94,7.93,7.94
96.34,5.82,-2.04,5.82,-2.04,2.04,0.91,1.54,7.86,7.86,7.85
97.30,5.84,-1.94,5.82,-1.96,1.96,0.86,1.47,7.80,7.78,7.78
98.28,5.84,-1.86,5.82,-1.88,1.88,0.81,1.39,7.72,7.70,7.70
99.26,5.84,-1.77,5.83,-1.80,1.80,0.76,1.32,7.64,7.63,7.61
100.25,5.84,-1.70,5.83,-1.72,1.72,0.71,1.25,7.56,7.55,7.54
101.25,5.84,-1.64,5.84,-1.64,1.64,0.66,1.18,7.48,7.48,7.47
102.27,5.84,-1.56,5.84,-1.56,1.56,0.62,1.11,7.40,7.40,7.40
103.29,5.84,-1.48,5.85,-1.48,1.48,0.57,1.04,7.32,7.33,7.32
104.32,5.84,-1.42,5.85,-1.40,1.40,0.53,0.97,7.24,7.25,7.26
105.37,5.84,-1.34,5.85,-1.33,1.33,0.48,0.91,7.16,7.18,7.18
106.42,5.85,-1.27,5.86,-1.25,1.25,0.44,0.84,7.10,7.11,7.12
107.48,5.86,-1.17,5.86,-1.18,1.18,0.39,0.78,7.03,7.03,7.03
108.56,5.88,-1.09,5.86,-1.10,1.10,0.35,0.71,6.98,6.96,6.97
109.64,5.88,-1.01,5.86,-1.02,1.02,0.31,0.65,6.90,6.89,6.89
110.74,5.88,-0.94,5.87,-0.94,0.94,0.26,0.59,6.82,6.81,6.82
111.85,5.88,-0.86,5.87,-0.87,0.87,0.22,0.53,6.74,6.74,6.74
112.97,5.88,-0.79,5.87,-0.79,0.79,0.18,0.48,6.66,6.66,6.67
114.10,5.88,-0.71,5.88,-0.71,0.71,0.14,0.42,6.58,6.59,6.59
115.24,5.88,-0.63,5.88,-0.63,0.63,0.10,0.36,6.51,6.51,6.51
116.39,5.88,-0.55,5.89,-0.55,0.55,0.06,0.31,6.43,6.43,6.43
117.55,5.88,-0.48,5.89,-0.47,0.47,0.01,0.25,6.35,6.36,6.35
118.73,5.88,-0.39,5.89,-0.39,0.39,-0.03,0.20,6.27,6.28,6.27
119.92,5.89,-0.31,5.89,-0.31,0.31,-0.07,0.15,6.20,6.21,6.20
121.12,5.90,-0.24,5.90,-0.24,0.24,-0.11,0.10,6.13,6.13,6.14
122.33,5.90,-0.16,5.90,-0.16,0.16,-0.15,0.05,6.05,6.06,6.06
123.55,5.92,-0.07,5.90,-0.08,0.08,-0.18,-0.00,6.00,5.98,5.99
124.79,5.92,-0.00,5.91,-0.00,0.00,-0.22,-0.05,5.92,5.91,5.92
126.03,5.92,0.08,5.91,0.08,-0.08,-0.26,-0.10,5.84,5.83,5.84
127.29,5.92,0.15,5.91,0.15,-0.15,-0.30,-0.14,5.76,5.76,5.76
128.57,5.92,0.23,5.92,0.23,-0.23,-0.34,-0.19,5.69,5.69,5.69
129.85,5.92,0.30,5.92,0.30,-0.30,-0.38,-0.23,5.61,5.62,5.61
131.15,5.92,0.38,5.92,0.38,-0.38,-0.42,-0.28,5.54,5.54,5.54
132.46,5.92,0.45,5.92,0.45,-0.45,-0.46,-0.32,5.47,5.47,5.47
133.79,5.92,0.52,5.92,0.52,-0.52,-0.50,-0.36,5.40,5.40,5.39
135.12,5.92,0.59,5.92,0.59,-0.59,-0.54,-0.41,5.33,5.33,5.32
136.48,5.92,0.66,5.92,0.66,-0.66,-0.57,-0.45,5.26,5.26,5.26
137.84,5.92,0.72,5.92,0.73,-0.73,-0.61,-0.49,5.19,5.19,5.19
139.22,5.92,0.80,5.92,0.79,-0.79,-0.65,-0.53,5.12,5.12,5.12
140.61,5.92,0.86,5.92,0.86,-0.86,-0.69,-0.57,5.06,5.06,5.06
142.02,5.92,0.92,5.92,0.92,-0.92,-0.73,-0.62,5.00,5.00,4.99
143.44,5.92,0.99,5.92,0.98,-0.98,-0.77,-0.66,4.93,4.93,4.93
144.87,5.92,1.04,5.92,1.04,-1.04,-0.81,-0.70,4.87,4.87,4.88
146.32,5.92,1.10,5.92,1.10,-1.10,-0.85,-0.74,4.81,4.81,4.82
147.78,5.92,1.16,5.92,1.16,-1.16,-0.89,-0.79,4.75,4.75,4.75
149.26,5.92,1.22,5.92,1.22,-1.22,-0.93,-0.83,4.69,4.69,4.70
150.75,5.92,1.29,5.92,1.28,-1.28,-0.96,-0.87,4.63,4.63,4.63
152.26,5.92,1.34,5.92,1.34,-1.34,-1.00,-0.92,4.57,4.57,4.58
153.78,5.92,1.40,5.92,1.40,-1.40,-1.04,-0.96,4.52,4.52,4.52
155.32,5.92,1.46,5.92,1.46,-1.46,-1.08,-1.01,4.46,4.46,4.46
156.88,5.92,1.52,5.92,1.52,-1.52,-1.12,-1.05,4.40,4.40,4.40
158.44,5.92,1.58,5.92,1.58,-1.58,-1.16,-1.10,4.34,4.34,4.34
160.03,5.92,1.64,5.92,1.64,-1.64,-1.20,-1.15,4.27,4.28,4.28
161.63,5.92,1.70,5.92,1.70,-1.70,-1.24,-1.20,4.21,4.22,4.22
163.24,5.92,1.77,5.92,1.77,-1.77,-1.29,-1.25,4.15,4.15,4.15
164.88,5.92,1.82,5.92,1.83,-1.83,-1.33,-1.30,4.09,4.09,4.09
166.53,5.92,1.89,5.92,1.89,-1.89,-1.37,-1.36,4.03,4.03,4.03
168.19,5.92,1.94,5.92,1.94,-1.94,-1.41,-1.41,3.97,3.97,3.98
169.87,5.92,2.00,5.92,2.00,-2.00,-1.45,-1.47,3.91,3.91,3.91
171.57,5.92,2.07,5.91,2.06,-2.06,-1.49,-1.52,3.86,3.85,3.85
173.29,5.92,2.13,5.91,2.12,-2.12,-1.53,-1.58,3.80,3.79,3.79
175.02,5.92,2.18,5.91,2.17,-2.17,-1.58,-1.64,3.75,3.73,3.73
176.77,5.92,2.24,5.90,2.23,-2.23,-1.62,-1.70,3.69,3.68,3.68
178.54,5.90,2.28,5.90,2.28,-2.28,-1.66,-1.77,3.62,3.62,3.62
180.32,5.90,2.34,5.90,2.34,-2.34,-1.70,-1.83,3.56,3.56,3.56
182.13,5.88,2.38,5.89,2.39,-2.39,-1.75,-1.90,3.49,3.50,3.50
183.95,5.88,2.43,5.89,2.45,-2.45,-1.79,-1.96,3.43,3.45,3.45
185.79,5.88,2.49,5.89,2.50,-2.50,-1.83,-2.03,3.38,3.39,3.39
187.65,5.88,2.54,5.88,2.55,-2.55,-1.88,-2.10,3.33,3.33,3.34
189.52,5.88,2.60,5.88,2.60,-2.60,-1.92,-2.17,3.28,3.28,3.28
191.42,5.88,2.65,5.88,2.65,-2.65,-1.96,-2.25,3.23,3.23,3.23
193.33,5.88,2.70,5.87,2.70,-2.70,-2.01,-2.32,3.18,3.17,3.17
195.27,5.88,2.76,5.87,2.75,-2.75,-2.05,-2.39,3.13,3.12,3.12
197.22,5.88,2.81,5.87,2.79,-2.79,-2.10,-2.47,3.08,3.07,3.06
199.19,5.88,2.86,5.86,2.84,-2.84,-2.14,-2.55,3.04,3.02,3.02
201.18,5.88,2.91,5.86,2.89,-2.89,-2.18,-2.62,2.99,2.97,2.97
203.19,5.85,2.92,5.86,2.93,-2.93,-2.23,-2.70,2.92,2.93,2.93
205.23,5.84,2.95,5.86,2.97,-2.97,-2.27,-2.78,2.86,2.88,2.88
207.28,5.84,2.99,5.85,3.01,-3.01,-2.32,-2.85,2.82,2.84,2.84
209.35,5.84,3.04,5.85,3.05,-3.05,-2.36,-2.93,2.79,2.80,2.80
211.44,5.84,3.08,5.84,3.09,-3.09,-2.41,-3.01,2.75,2.76,2.76
213.56,5.84,3.12,5.84,3.12,-3.12,-2.45,-3.08,2.72,2.72,2.72
215.69,5.84,3.15,5.83,3.15,-3.15,-2.50,-3.16,2.69,2.68,2.68
217.85,5.84,3.19,5.83,3.18,-3.18,-2.54,-3.23,2.65,2.64,2.65
220.03,5.84,3.23,5.82,3.21,-3.21,-2.59,-3.31,2.62,2.61,2.60
222.23,5.84,3.27,5.82,3.24,-3.24,-2.63,-3.38,2.59,2.57,2.57
224.45,5.82,3.28,5.82,3.27,-3.27,-2.68,-3.44,2.54,2.54,2.54
226.70,5.81,3.30,5.81,3.30,-3.30,-2.72,-3.51,2.50,2.51,2.51
228.96,5.79,3.30,5.81,3.33,-3.33,-2.77,-3.57,2.46,2.48,2.48
231.25,5.79,3.33,5.80,3.35,-3.35,-2.81,-3.63,2.44,2.45,2.45
233.57,5.79,3.36,5.80,3.37,-3.37,-2.86,-3.68,2.41,2.42,2.42
235.90,5.79,3.39,5.79,3.39,-3.39,-2.90,-3.73,2.39,2.40,2.39
238.26,5.79,3.42,5.79,3.41,-3.41,-2.94,-3.77,2.37,2.37,2.36
240.64,5.79,3.43,5.78,3.43,-3.43,-2.99,-3.82,2.35,2.35,2.36
243.05,5.79,3.46,5.78,3.45,-3.45,-3.03,-3.85,2.34,2.33,2.33
245.48,5.79,3.49,5.77,3.46,-3.46,-3.07,-3.88,2.32,2.31,2.30
247.93,5.77,3.49,5.76,3.48,-3.48,-3.11,-3.91,2.29,2.29,2.28
250.41,5.75,3.48,5.76,3.49,-3.49,-3.15,-3.93,2.25,2.27,2.27
252.92,5.75,3.49,5.76,3.51,-3.51,-3.19,-3.94,2.24,2.25,2.26
255.45,5.75,3.52,5.75,3.52,-3.52,-3.24,-3.95,2.23,2.23,2.23
258.00,5.75,3.53,5.74,3.53,-3.53,-3.27,-3.95,2.22,2.22,2.22
260.58,5.75,3.54,5.74,3.53,-3.53,-3.31,-3.95,2.21,2.20,2.20
263.19,5.73,3.54,5.73,3.54,-3.54,-3.35,-3.95,2.19,2.19,2.19
265.82,5.71,3.53,5.72,3.54,-3.54,-3.39,-3.94,2.16,2.17,2.18
268.48,5.71,3.54,5.71,3.55,-3.55,-3.43,-3.92,2.16,2.16,2.16
271.16,5.71,3.55,5.70,3.55,-3.55,-3.46,-3.91,2.16,2.15,2.15
273.87,5.71,3.57,5.69,3.55,-3.55,-3.50,-3.88,2.15,2.14,2.14
276.61,5.71,3.58,5.69,3.56,-3.56,-3.53,-3.86,2.15,2.13,2.13
279.38,5.68,3.57,5.68,3.56,-3.56,-3.56,-3.83,2.12,2.12,2.11
282.17,5.66,3.55,5.68,3.56,-3.56,-3.59,-3.80,2.10,2.11,2.11
284.99,5.66,3.55,5.67,3.56,-3.56,-3.63,-3.77,2.10,2.11,2.11
287.84,5.66,3.55,5.66,3.56,-3.56,-3.65,-3.74,2.10,2.10,2.11
290.72,5.66,3.57,5.66,3.56,-3.56,-3.68,-3.70,2.09,2.10,2.09
293.63,5.66,3.57,5.66,3.57,-3.57,-3.71,-3.67,2.09,2.09,2.09
296.57,5.66,3.56,5.66,3.57,-3.57,-3.73,-3.63,2.09,2.09,2.09
299.53,5.66,3.57,5.66,3.57,-3.57,-3.76,-3.60,2.09,2.09,2.09
302.53,5.66,3.57,5.66,3.57,-3.57,-3.78,-3.56,2.09,2.08,2.09
305.55,5.66,3.58,5.65,3.57,-3.57,-3.80,-3.53,2.08,2.08,2.08
308.61,5.66,3.57,5.66,3.58,-3.58,-3.82,-3.50,2.08,2.08,2.08
311.69,5.66,3.58,5.66,3.58,-3.58,-3.84,-3.46,2.08,2.08,2.08
314.81,5.66,3.58,5.66,3.58,-3.58,-3.86,-3.43,2.08,2.08,2.08
317.96,5.66,3.58,5.65,3.58,-3.58,-3.87,-3.40,2.08,2.08,2.07
321.14,5.66,3.58,5.65,3.58,-3.58,-3.88,-3.37,2.08,2.08,2.08
324.35,5.66,3.59,5.65,3.57,-3.57,-3.90,-3.35,2.09,2.08,2.07
327.59,5.65,3.56,5.65,3.57,-3.57,-3.91,-3.33,2.08,2.08,2.09
330.87,5.64,3.56,5.64,3.56,-3.56,-3.91,-3.30,2.07,2.08,2.08
334.18,5.64,3.56,5.64,3.56,-3.56,-3.92,-3.28,2.08,2.08,2.07
337.52,5.64,3.56,5.64,3.56,-3.56,-3.92,-3.27,2.08,2.08,2.08
340.90,5.64,3.55,5.63,3.55,-3.55,-3.93,-3.25,2.09,2.09,2.08
344.30,5.62,3.53,5.63,3.54,-3.54,-3.93,-3.24,2.07,2.09,2.09
347.75,5.62,3.52,5.63,3.54,-3.54,-3.93,-3.23,2.08,2.09,2.09
351.23,5.62,3.53,5.62,3.53,-3.53,-3.92,-3.23,2.09,2.10,2.09
354.74,5.62,3.51,5.62,3.52,-3.52,-3.92,-3.22,2.10,2.10,2.11
358.28,5.62,3.52,5.62,3.51,-3.51,-3.91,-3.22,2.11,2.10,2.10
361.87,5.62,3.51,5.61,3.51,-3.51,-3.91,-3.22,2.11,2.11,2.11
365.49,5.62,3.50,5.61,3.50,-3.50,-3.90,-3.22,2.12,2.11,2.11
369.14,5.62,3.50,5.60,3.49,-3.49,-3.89,-3.23,2.13,2.12,2.12
372.83,5.61,3.48,5.60,3.48,-3.48,-3.87,-3.24,2.13,2.12,2.13
376.56,5.58,3.45,5.59,3.47,-3.47,-3.86,-3.25,2.11,2.13,2.12
380.33,5.58,3.45,5.59,3.45,-3.45,-3.84,-3.26,2.12,2.13,2.13
384.13,5.58,3.44,5.58,3.44,-3.44,-3.82,-3.28,2.14,2.14,2.14
387.97,5.58,3.43,5.57,3.43,-3.43,-3.80,-3.30,2.15,2.14,2.14
391.85,5.58,3.43,5.56,3.42,-3.42,-3.78,-3.32,2.16,2.15,2.15
395.77,5.56,3.41,5.55,3.40,-3.40,-3.76,-3.34,2.16,2.15,2.15
399.73,5.53,3.37,5.54,3.39,-3.39,-3.73,-3.36,2.14,2.16,2.16
403.72,5.53,3.35,5.54,3.37,-3.37,-3.71,-3.38,2.16,2.17,2.17
407.76,5.53,3.36,5.53,3.35,-3.35,-3.68,-3.41,2.17,2.17,2.17
411.84,5.53,3.35,5.52,3.34,-3.34,-3.65,-3.43,2.19,2.18,2.18
415.96,5.50,3.31,5.51,3.32,-3.32,-3.62,-3.46,2.17,2.18,2.19
420.12,5.49,3.30,5.50,3.31,-3.31,-3.59,-3.49,2.18,2.19,2.18
424.32,5.49,3.30,5.48,3.29,-3.29,-3.56,-3.51,2.20,2.20,2.19
428.56,5.49,3.28,5.47,3.27,-3.27,-3.53,-3.54,2.22,2.20,2.21
432.85,5.45,3.23,5.46,3.25,-3.25,-3.49,-3.56,2.20,2.21,2.22
437.18,5.45,3.23,5.45,3.23,-3.23,-3.46,-3.59,2.22,2.22,2.22
441.55,5.45,3.22,5.44,3.21,-3.21,-3.42,-3.61,2.24,2.23,2.22
445.96,5.42,3.19,5.42,3.19,-3.19,-3.38,-3.63,2.23,2.24,2.23
450.42,5.40,3.16,5.41,3.16,-3.16,-3.34,-3.65,2.23,2.24,2.24
454.93,5.40,3.15,5.39,3.14,-3.14,-3.30,-3.66,2.26,2.25,2.25
459.48,5.38,3.12,5.38,3.12,-3.12,-3.26,-3.67,2.26,2.26,2.26
464.07,5.36,3.08,5.36,3.09,-3.09,-3.22,-3.68,2.27,2.27,2.28
468.71,5.36,3.07,5.35,3.07,-3.07,-3.18,-3.68,2.29,2.28,2.28
473.40,5.32,3.02,5.33,3.04,-3.04,-3.14,-3.68,2.28,2.29,2.29
478.13,5.32,3.02,5.31,3.01,-3.01,-3.09,-3.68,2.31,2.30,2.30
482.91,5.30,2.99,5.30,2.99,-2.99,-3.05,-3.67,2.31,2.31,2.31
487.74,5.27,2.95,5.28,2.96,-2.96,-3.01,-3.65,2.31,2.32,2.32
492.62,5.27,2.94,5.26,2.93,-2.93,-2.96,-3.63,2.34,2.33,2.33
497.55,5.23,2.89,5.24,2.90,-2.90,-2.92,-3.60,2.33,2.34,2.34
502.52,5.23,2.88,5.22,2.87,-2.87,-2.87,-3.57,2.36,2.35,2.35
507.55,5.19,2.82,5.20,2.84,-2.84,-2.82,-3.53,2.35,2.36,2.37
512.62,5.19,2.81,5.18,2.80,-2.80,-2.78,-3.48,2.39,2.38,2.37
517.75,5.17,2.77,5.16,2.77,-2.77,-2.73,-3.43,2.40,2.39,2.39
522.93,5.14,2.74,5.13,2.73,-2.73,-2.68,-3.37,2.40,2.40,2.40
528.16,5.11,2.70,5.11,2.70,-2.70,-2.63,-3.31,2.41,2.41,2.41
