frequency,raw,error,smoothed,error_smoothed,equalization,parametric_eq,fixed_band_eq,equalized_raw,equalized_smoothed,target
20.00,1.77,-2.17,1.71,-2.26,2.26,2.01,0.98,4.02,3.96,3.94
20.20,1.77,-2.21,1.74,-2.25,2.25,2.03,1.01,4.02,3.99,3.98
20.40,1.77,-2.24,1.77,-2.25,2.25,2.05,1.04,4.02,4.02,4.01
20.61,1.77,-2.27,1.80,-2.25,2.25,2.06,1.07,4.02,4.05,4.04
20.81,1.77,-2.31,1.82,-2.25,2.25,2.08,1.10,4.02,4.07,4.08
21.02,1.77,-2.35,1.85,-2.25,2.25,2.10,1.13,4.02,4.09,4.12
21.23,1.82,-2.31,1.87,-2.24,2.24,2.11,1.17,4.06,4.12,4.13
21.44,1.87,-2.28,1.89,-2.24,2.24,2.13,1.20,4.11,4.14,4.15
21.66,1.92,-2.25,1.91,-2.24,2.24,2.14,1.24,4.16,4.16,4.17
21.87,1.97,-2.21,1.93,-2.24,2.24,2.15,1.27,4.21,4.17,4.18
22.09,2.00,-2.20,1.95,-2.24,2.24,2.17,1.31,4.24,4.19,4.20
22.31,2.00,-2.20,1.96,-2.24,2.24,2.18,1.35,4.24,4.20,4.20
22.54,2.00,-2.21,1.98,-2.23,2.23,2.19,1.39,4.23,4.21,4.21
22.76,2.00,-2.22,1.99,-2.23,2.23,2.20,1.43,4.23,4.22,4.22
22.99,2.00,-2.22,2.00,-2.22,2.22,2.21,1.47,4.22,4.23,4.21
23.22,2.00,-2.22,2.01,-2.22,2.22,2.22,1.52,4.22,4.23,4.22
23.45,2.00,-2.23,2.01,-2.23,2.23,2.23,1.56,4.22,4.24,4.23
23.69,2.00,-2.24,2.01,-2.23,2.23,2.24,1.61,4.23,4.24,4.24
23.92,2.00,-2.25,2.01,-2.24,2.24,2.25,1.65,4.24,4.25,4.25
24.16,2.00,-2.26,2.00,-2.25,2.25,2.25,1.70,4.25,4.25,4.26
24.40,2.00,-2.27,2.00,-2.25,2.25,2.26,1.74,4.25,4.25,4.27
24.65,2.00,-2.26,2.00,-2.26,2.26,2.27,1.79,4.26,4.26,4.26
24.89,2.00,-2.26,2.00,-2.26,2.26,2.27,1.84,4.26,4.26,4.26
25.14,2.00,-2.26,2.00,-2.26,2.26,2.27,1.89,4.26,4.26,4.26
25.39,2.00,-2.26,2.00,-2.26,2.26,2.28,1.94,4.26,4.26,4.26
25.65,2.00,-2.26,2.00,-2.26,2.26,2.28,1.99,4.26,4.26,4.26
25.91,2.00,-2.24,2.00,-2.26,2.26,2.28,2.03,4.26,4.26,4.24
26.16,2.00,-2.25,2.00,-2.26,2.26,2.28,2.08,4.25,4.25,4.25
26.43,2.00,-2.25,2.00,-2.25,2.25,2.28,2.13,4.25,4.25,4.25
26.69,2.00,-2.25,2.00,-2.25,2.25,2.27,2.18,4.25,4.25,4.25
26.96,2.00,-2.25,2.00,-2.25,2.25,2.27,2.22,4.25,4.24,4.25
27.23,2.00,-2.25,1.99,-2.25,2.25,2.27,2.27,4.25,4.24,4.25
27.50,2.00,-2.25,1.99,-2.25,2.25,2.26,2.31,4.25,4.24,4.25
27.77,2.00,-2.24,1.98,-2.26,2.26,2.26,2.35,4.25,4.24,4.23
28.05,2.00,-2.23,1.98,-2.25,2.25,2.25,2.39,4.25,4.24,4.23
28.33,2.00,-2.22,1.99,-2.25,2.25,2.25,2.43,4.24,4.23,4.22
28.62,2.00,-2.23,2.00,-2.23,2.23,2.24,2.46,4.23,4.23,4.23
28.90,2.00,-2.23,2.01,-2.22,2.22,2.23,2.49,4.22,4.23,4.23
29.19,2.00,-2.22,2.03,-2.20,2.20,2.22,2.52,4.20,4.22,4.22
29.48,2.00,-2.23,2.04,-2.18,2.18,2.21,2.55,4.18,4.22,4.22
29.78,2.00,-2.22,2.06,-2.15,2.15,2.20,2.57,4.15,4.22,4.22
30.08,2.02,-2.20,2.08,-2.13,2.13,2.19,2.59,4.15,4.21,4.22
30.38,2.09,-2.12,2.11,-2.10,2.10,2.18,2.60,4.19,4.21,4.21
30.68,2.16,-2.05,2.13,-2.07,2.07,2.17,2.61,4.23,4.20,4.21
30.99,2.23,-1.97,2.15,-2.05,2.05,2.15,2.62,4.27,4.20,4.19
31.30,2.23,-1.96,2.17,-2.02,2.02,2.14,2.62,4.25,4.19,4.19
31.61,2.23,-1.96,2.19,-1.99,1.99,2.12,2.62,4.22,4.19,4.19
31.93,2.23,-1.95,2.21,-1.97,1.97,2.11,2.61,4.20,4.18,4.18
32.24,2.23,-1.93,2.22,-1.95,1.95,2.09,2.60,4.18,4.17,4.16
32.57,2.23,-1.93,2.23,-1.93,1.93,2.08,2.59,4.16,4.17,4.16
32.89,2.23,-1.93,2.24,-1.92,1.92,2.06,2.57,4.15,4.16,4.16
33.22,2.23,-1.93,2.25,-1.91,1.91,2.04,2.55,4.14,4.16,4.15
33.55,2.23,-1.92,2.24,-1.91,1.91,2.02,2.52,4.13,4.15,4.15
33.89,2.23,-1.92,2.24,-1.91,1.91,2.01,2.50,4.13,4.14,4.15
34.23,2.23,-1.92,2.23,-1.91,1.91,1.99,2.47,4.13,4.14,4.15
34.57,2.23,-1.90,2.23,-1.90,1.90,1.97,2.43,4.13,4.13,4.13
34.92,2.23,-1.90,2.23,-1.90,1.90,1.95,2.40,4.13,4.13,4.13
35.27,2.23,-1.89,2.23,-1.89,1.89,1.93,2.36,4.12,4.12,4.12
35.62,2.23,-1.88,2.23,-1.89,1.89,1.91,2.32,4.12,4.12,4.11
35.97,2.23,-1.88,2.23,-1.88,1.88,1.89,2.27,4.11,4.11,4.11
36.33,2.23,-1.87,2.23,-1.87,1.87,1.87,2.23,4.10,4.10,4.10
36.70,2.23,-1.87,2.23,-1.86,1.86,1.85,2.19,4.09,4.09,4.10
37.06,2.23,-1.85,2.23,-1.86,1.86,1.83,2.14,4.08,4.08,4.08
37.43,2.23,-1.85,2.23,-1.85,1.85,1.80,2.10,4.08,4.08,4.08
37.81,2.23,-1.84,2.23,-1.84,1.84,1.78,2.05,4.07,4.07,4.07
38.19,2.23,-1.83,2.23,-1.83,1.83,1.76,2.00,4.06,4.06,4.06
38.57,2.23,-1.82,2.23,-1.83,1.83,1.74,1.96,4.06,4.06,4.05
38.95,2.23,-1.82,2.23,-1.82,1.82,1.72,1.91,4.05,4.05,4.05
39.34,2.23,-1.80,2.23,-1.81,1.81,1.70,1.86,4.04,4.04,4.03
39.74,2.23,-1.79,2.23,-1.80,1.80,1.67,1.82,4.03,4.03,4.02
40.14,2.23,-1.79,2.23,-1.79,1.79,1.65,1.77,4.02,4.02,4.02
40.54,2.23,-1.78,2.23,-1.78,1.78,1.63,1.73,4.01,4.01,4.01
40.94,2.23,-1.78,2.23,-1.77,1.77,1.61,1.69,4.00,4.00,4.01
41.35,2.23,-1.76,2.23,-1.75,1.75,1.59,1.64,3.98,3.98,3.99
41.76,2.23,-1.74,2.23,-1.73,1.73,1.56,1.60,3.96,3.96,3.97
42.18,2.23,-1.72,2.23,-1.71,1.71,1.54,1.56,3.94,3.94,3.95
42.60,2.23,-1.70,2.23,-1.69,1.69,1.52,1.52,3.92,3.92,3.93
43.03,2.23,-1.68,2.23,-1.66,1.66,1.50,1.48,3.89,3.89,3.91
43.46,2.23,-1.65,2.23,-1.63,1.63,1.48,1.44,3.86,3.86,3.88
43.90,2.23,-1.60,2.23,-1.60,1.60,1.45,1.41,3.83,3.83,3.83
44.33,2.23,-1.57,2.23,-1.58,1.58,1.43,1.37,3.81,3.81,3.80
44.78,2.23,-1.53,2.23,-1.55,1.55,1.41,1.33,3.78,3.78,3.76
45.23,2.23,-1.50,2.23,-1.52,1.52,1.39,1.30,3.75,3.75,3.73
45.68,2.23,-1.47,2.23,-1.49,1.49,1.37,1.27,3.72,3.72,3.70
46.13,2.23,-1.45,2.23,-1.47,1.47,1.35,1.24,3.70,3.70,3.68
46.60,2.23,-1.44,2.23,-1.45,1.45,1.33,1.21,3.68,3.68,3.67
47.06,2.23,-1.42,2.24,-1.42,1.42,1.31,1.18,3.65,3.66,3.65
47.53,2.23,-1.41,2.24,-1.40,1.40,1.29,1.15,3.63,3.65,3.64
48.01,2.23,-1.41,2.25,-1.39,1.39,1.27,1.12,3.62,3.63,3.64
48.49,2.23,-1.39,2.25,-1.38,1.38,1.25,1.09,3.61,3.63,3.62
48.97,2.23,-1.38,2.25,-1.37,1.37,1.23,1.07,3.60,3.62,3.61
49.46,2.23,-1.37,2.25,-1.37,1.37,1.21,1.04,3.60,3.62,3.60
49.96,2.23,-1.36,2.24,-1.37,1.37,1.19,1.02,3.60,3.61,3.59
50.46,2.23,-1.37,2.23,-1.37,1.37,1.17,1.00,3.60,3.60,3.60
50.96,2.23,-1.38,2.20,-1.39,1.39,1.15,0.98,3.62,3.59,3.60
51.47,2.23,-1.36,2.17,-1.41,1.41,1.13,0.96,3.64,3.58,3.59
51.99,2.23,-1.34,2.12,-1.43,1.43,1.11,0.94,3.66,3.56,3.57
52.51,2.11,-1.45,2.07,-1.47,1.47,1.09,0.92,3.58,3.54,3.56
53.03,2.00,-1.53,2.00,-1.51,1.51,1.08,0.90,3.51,3.51,3.53
53.56,2.00,-1.49,1.93,-1.55,1.55,1.06,0.88,3.55,3.47,3.49
54.10,1.98,-1.46,1.86,-1.57,1.57,1.04,0.86,3.55,3.44,3.44
54.64,1.85,-1.55,1.82,-1.58,1.58,1.02,0.85,3.43,3.39,3.40
55.18,1.73,-1.62,1.77,-1.58,1.58,1.01,0.83,3.31,3.34,3.35
55.74,1.60,-1.69,1.72,-1.57,1.57,0.99,0.81,3.17,3.29,3.29
56.29,1.54,-1.69,1.69,-1.54,1.54,0.97,0.80,3.08,3.23,3.23
56.86,1.54,-1.63,1.67,-1.50,1.50,0.96,0.78,3.04,3.17,3.17
57.42,1.54,-1.56,1.66,-1.45,1.45,0.94,0.77,2.99,3.11,3.10
58.00,1.54,-1.50,1.67,-1.37,1.37,0.92,0.76,2.91,3.04,3.04
58.58,1.67,-1.31,1.69,-1.28,1.28,0.91,0.74,2.95,2.98,2.97
59.16,1.81,-1.11,1.72,-1.19,1.19,0.89,0.73,3.00,2.91,2.92
59.76,1.94,-0.92,1.76,-1.09,1.09,0.88,0.72,3.03,2.85,2.85
60.35,1.91,-0.87,1.80,-0.98,0.98,0.86,0.71,2.89,2.78,2.78
60.96,1.78,-0.94,1.85,-0.87,0.87,0.85,0.70,2.65,2.72,2.72
61.57,1.90,-0.75,1.89,-0.76,0.76,0.84,0.68,2.66,2.65,2.64
62.18,2.00,-0.58,1.93,-0.66,0.66,0.82,0.67,2.66,2.59,2.58
62.80,2.00,-0.53,1.97,-0.57,0.57,0.81,0.66,2.56,2.53,2.53
63.43,2.00,-0.47,1.99,-0.49,0.49,0.80,0.65,2.49,2.47,2.47
64.07,2.00,-0.42,2.00,-0.42,0.42,0.78,0.64,2.42,2.42,2.42
64.71,2.00,-0.36,2.01,-0.36,0.36,0.77,0.63,2.36,2.37,2.36
65.35,2.00,-0.31,2.01,-0.31,0.31,0.76,0.62,2.31,2.32,2.31
66.01,2.00,-0.27,2.00,-0.27,0.27,0.74,0.61,2.27,2.27,2.27
66.67,2.00,-0.22,2.00,-0.23,0.23,0.73,0.60,2.22,2.23,2.22
67.33,2.00,-0.19,2.01,-0.18,0.18,0.72,0.59,2.18,2.19,2.19
68.01,2.00,-0.15,2.01,-0.14,0.14,0.71,0.59,2.14,2.15,2.15
68.69,2.00,-0.11,2.00,-0.11,0.11,0.70,0.58,2.11,2.11,2.11
69.37,2.00,-0.08,2.00,-0.08,0.08,0.69,0.57,2.08,2.08,2.08
70.07,2.00,-0.04,2.00,-0.04,0.04,0.68,0.56,2.04,2.04,2.04
70.77,2.00,-0.02,2.00,-0.00,0.00,0.67,0.56,2.00,2.00,2.02
71.48,2.00,0.02,2.00,0.03,-0.03,0.66,0.55,1.97,1.97,1.97
72.19,2.00,0.06,2.00,0.07,-0.07,0.65,0.54,1.93,1.93,1.94
72.91,2.00,0.10,2.01,0.12,-0.12,0.64,0.54,1.88,1.89,1.90
73.64,2.00,0.13,2.02,0.16,-0.16,0.63,0.53,1.84,1.86,1.87
74.38,2.00,0.17,2.02,0.20,-0.20,0.62,0.52,1.80,1.82,1.83
75.12,2.00,0.22,2.03,0.24,-0.24,0.61,0.52,1.76,1.78,1.78
75.87,2.00,0.25,2.02,0.27,-0.27,0.60,0.51,1.73,1.75,1.75
76.63,2.00,0.29,2.01,0.29,-0.29,0.59,0.51,1.70,1.71,1.71
77.40,2.00,0.32,1.99,0.31,-0.31,0.59,0.51,1.69,1.68,1.68
78.17,2.00,0.36,1.97,0.32,-0.32,0.58,0.50,1.68,1.65,1.64
78.95,2.00,0.38,1.94,0.32,-0.32,0.57,0.50,1.68,1.62,1.62
79.74,2.00,0.40,1.91,0.32,-0.32,0.57,0.50,1.68,1.59,1.60
80.54,1.92,0.36,1.87,0.30,-0.30,0.56,0.50,1.62,1.57,1.56
81.35,1.82,0.28,1.83,0.28,-0.28,0.55,0.49,1.54,1.55,1.54
82.16,1.75,0.22,1.77,0.24,-0.24,0.55,0.49,1.51,1.53,1.53
82.98,1.67,0.15,1.71,0.19,-0.19,0.54,0.49,1.48,1.52,1.52
83.81,1.56,0.06,1.63,0.13,-0.13,0.53,0.49,1.43,1.51,1.50
84.65,1.54,0.05,1.55,0.05,-0.05,0.53,0.49,1.48,1.50,1.49
85.50,1.48,-0.01,1.46,-0.02,0.02,0.52,0.49,1.50,1.49,1.49
86.35,1.38,-0.10,1.37,-0.11,0.11,0.52,0.50,1.49,1.48,1.48
87.22,1.30,-0.17,1.27,-0.21,0.21,0.51,0.50,1.51,1.47,1.47
88.09,1.25,-0.21,1.16,-0.30,0.30,0.51,0.50,1.55,1.46,1.46
88.97,1.10,-0.37,1.06,-0.39,0.39,0.51,0.50,1.49,1.46,1.47
89.86,0.93,-0.53,0.97,-0.48,0.48,0.50,0.51,1.41,1.45,1.46
90.76,0.85,-0.58,0.87,-0.57,0.57,0.50,0.51,1.42,1.43,1.43
91.66,0.70,-0.73,0.76,-0.66,0.66,0.49,0.51,1.36,1.42,1.43
92.58,0.63,-0.77,0.65,-0.75,0.75,0.49,0.52,1.38,1.40,1.40
93.51,0.53,-0.86,0.54,-0.84,0.84,0.49,0.52,1.37,1.38,1.39
94.44,0.42,-0.95,0.42,-0.94,0.94,0.49,0.53,1.35,1.36,1.37
95.39,0.31,-1.03,0.31,-1.02,1.02,0.48,0.53,1.33,1.33,1.34
96.34,0.18,-1.12,0.20,-1.11,1.11,0.48,0.54,1.28,1.31,1.30
97.30,0.18,-1.09,0.09,-1.18,1.18,0.48,0.54,1.36,1.28,1.27
98.28,0.13,-1.10,-0.00,-1.25,1.25,0.48,0.55,1.37,1.24,1.23
99.26,-0.08,-1.28,-0.09,-1.29,1.29,0.48,0.56,1.21,1.20,1.20
100.25,-0.28,-1.44,-0.18,-1.34,1.34,0.47,0.56,1.06,1.16,1.16
101.25,-0.28,-1.39,-0.27,-1.38,1.38,0.47,0.57,1.10,1.11,1.11
102.27,-0.31,-1.38,-0.34,-1.40,1.40,0.47,0.57,1.09,1.06,1.06
103.29,-0.43,-1.44,-0.40,-1.41,1.41,0.47,0.58,0.98,1.01,1.01
104.32,-0.51,-1.47,-0.45,-1.40,1.40,0.47,0.58,0.89,0.95,0.96
105.37,-0.51,-1.41,-0.48,-1.36,1.36,0.47,0.59,0.85,0.88,0.90
106.42,-0.51,-1.34,-0.50,-1.31,1.31,0.47,0.59,0.80,0.82,0.83
107.48,-0.51,-1.27,-0.50,-1.24,1.24,0.46,0.59,0.73,0.75,0.76
108.56,-0.51,-1.18,-0.49,-1.15,1.15,0.46,0.60,0.64,0.67,0.67
109.64,-0.51,-1.10,-0.45,-1.04,1.04,0.46,0.60,0.53,0.59,0.59
110.74,-0.50,-1.01,-0.39,-0.90,0.90,0.46,0.60,0.40,0.51,0.51
111.85,-0.31,-0.75,-0.32,-0.75,0.75,0.46,0.59,0.44,0.43,0.44
112.97,-0.28,-0.62,-0.26,-0.60,0.60,0.46,0.59,0.32,0.34,0.34
114.10,-0.23,-0.49,-0.19,-0.45,0.45,0.45,0.59,0.22,0.26,0.26
115.24,-0.05,-0.23,-0.12,-0.30,0.30,0.45,0.58,0.25,0.18,0.18
116.39,-0.05,-0.14,-0.04,-0.15,0.15,0.45,0.57,0.10,0.11,0.09
117.55,-0.04,-0.06,0.02,-0.01,0.01,0.44,0.56,-0.03,0.03,0.02
118.73,0.12,0.18,0.06,0.09,-0.09,0.44,0.55,0.03,-0.04,-0.06
119.92,0.18,0.29,0.08,0.18,-0.18,0.44,0.53,-0.00,-0.10,-0.11
121.12,0.18,0.36,0.09,0.25,-0.25,0.43,0.52,-0.07,-0.16,-0.18
122.33,0.18,0.41,0.08,0.29,-0.29,0.42,0.50,-0.11,-0.22,-0.23
123.55,0.08,0.34,0.04,0.31,-0.31,0.42,0.48,-0.23,-0.27,-0.26
124.79,-0.04,0.28,-0.04,0.28,-0.28,0.41,0.45,-0.32,-0.32,-0.32
126.03,-0.05,0.31,-0.13,0.24,-0.24,0.40,0.42,-0.29,-0.36,-0.36
127.29,-0.13,0.27,-0.24,0.17,-0.17,0.39,0.39,-0.30,-0.41,-0.40
128.57,-0.28,0.17,-0.37,0.08,-0.08,0.37,0.36,-0.36,-0.45,-0.45
129.85,-0.54,-0.05,-0.50,-0.01,0.01,0.36,0.33,-0.53,-0.49,-0.49
131.15,-0.74,-0.22,-0.64,-0.11,0.11,0.34,0.29,-0.63,-0.53,-0.53
132.46,-0.74,-0.17,-0.78,-0.21,0.21,0.32,0.25,-0.53,-0.57,-0.57
133.79,-0.88,-0.27,-0.91,-0.30,0.30,0.30,0.21,-0.58,-0.62,-0.61
135.12,-1.12,-0.46,-1.04,-0.38,0.38,0.28,0.16,-0.74,-0.66,-0.67
136.48,-1.23,-0.53,-1.15,-0.45,0.45,0.25,0.12,-0.78,-0.70,-0.70
137.84,-1.40,-0.66,-1.25,-0.50,0.50,0.22,0.07,-0.90,-0.75,-0.74
139.22,-1.42,-0.61,-1.32,-0.53,0.53,0.19,0.01,-0.89,-0.79,-0.81
140.61,-1.42,-0.56,-1.38,-0.55,0.55,0.16,-0.04,-0.88,-0.84,-0.86
142.02,-1.42,-0.53,-1.42,-0.53,0.53,0.12,-0.10,-0.89,-0.89,-0.89
143.44,-1.42,-0.48,-1.43,-0.49,0.49,0.08,-0.15,-0.93,-0.94,-0.94
144.87,-1.42,-0.43,-1.43,-0.42,0.42,0.03,-0.21,-1.00,-1.00,-0.99
146.32,-1.42,-0.37,-1.42,-0.35,0.35,-0.02,-0.27,-1.07,-1.07,-1.05
147.78,-1.42,-0.32,-1.40,-0.27,0.27,-0.07,-0.34,-1.15,-1.13,-1.10
149.26,-1.42,-0.25,-1.39,-0.18,0.18,-0.13,-0.40,-1.24,-1.20,-1.17
150.75,-1.32,-0.06,-1.37,-0.09,0.09,-0.19,-0.47,-1.23,-1.28,-1.26
152.26,-1.23,0.10,-1.37,-0.01,0.01,-0.26,-0.53,-1.22,-1.35,-1.33
153.78,-1.19,0.22,-1.35,0.09,-0.09,-0.34,-0.60,-1.28,-1.43,-1.42
155.32,-1.19,0.33,-1.32,0.19,-0.19,-0.42,-0.67,-1.38,-1.51,-1.52
156.88,-1.19,0.41,-1.28,0.31,-0.31,-0.50,-0.74,-1.50,-1.59,-1.60
158.44,-1.19,0.49,-1.22,0.45,-0.45,-0.59,-0.82,-1.64,-1.67,-1.68
160.03,-1.19,0.57,-1.15,0.59,-0.59,-0.69,-0.89,-1.78,-1.74,-1.76
161.63,-1.19,0.64,-1.06,0.75,-0.75,-0.79,-0.97,-1.94,-1.80,-1.83
163.24,-1.19,0.69,-0.95,0.92,-0.92,-0.90,-1.04,-2.11,-1.86,-1.89
164.88,-1.19,0.74,-0.82,1.09,-1.09,-1.02,-1.12,-2.29,-1.91,-1.93
166.53,-0.89,1.09,-0.69,1.27,-1.27,-1.14,-1.20,-2.16,-1.96,-1.98
168.19,-0.57,1.44,-0.55,1.44,-1.44,-1.27,-1.28,-2.01,-1.99,-2.01
169.87,-0.25,1.79,-0.40,1.62,-1.62,-1.40,-1.36,-1.87,-2.01,-2.04
171.57,-0.09,1.96,-0.24,1.79,-1.79,-1.54,-1.45,-1.88,-2.03,-2.05
173.29,0.09,2.14,-0.07,1.98,-1.98,-1.68,-1.53,-1.89,-2.04,-2.05
175.02,0.18,2.22,0.10,2.16,-2.16,-1.83,-1.62,-1.98,-2.05,-2.04
176.77,0.37,2.42,0.26,2.32,-2.32,-1.99,-1.70,-1.95,-2.06,-2.05
178.54,0.57,2.62,0.42,2.48,-2.48,-2.15,-1.79,-1.92,-2.06,-2.05
180.32,0.63,2.68,0.57,2.64,-2.64,-2.31,-1.88,-2.01,-2.07,-2.05
182.13,0.63,2.68,0.69,2.77,-2.77,-2.47,-1.97,-2.14,-2.08,-2.05
183.95,0.72,2.77,0.80,2.88,-2.88,-2.63,-2.06,-2.16,-2.08,-2.06
185.79,0.85,2.92,0.87,2.96,-2.96,-2.79,-2.16,-2.11,-2.09,-2.07
187.65,0.86,2.96,0.94,3.04,-3.04,-2.95,-2.25,-2.18,-2.11,-2.10
189.52,1.04,3.16,1.00,3.13,-3.13,-3.10,-2.34,-2.09,-2.12,-2.12
191.42,1.09,3.23,1.07,3.21,-3.21,-3.25,-2.44,-2.12,-2.14,-2.15
193.33,1.09,3.26,1.14,3.30,-3.30,-3.39,-2.54,-2.21,-2.16,-2.17
195.27,1.19,3.37,1.20,3.38,-3.38,-3.51,-2.64,-2.20,-2.18,-2.18
197.22,1.29,3.49,1.26,3.46,-3.46,-3.63,-2.74,-2.17,-2.21,-2.20
199.19,1.31,3.55,1.31,3.54,-3.54,-3.73,-2.84,-2.23,-2.23,-2.24
201.18,1.31,3.56,1.36,3.61,-3.61,-3.82,-2.94,-2.30,-2.25,-2.25
203.19,1.36,3.63,1.41,3.68,-3.68,-3.89,-3.04,-2.32,-2.28,-2.27
205.23,1.48,3.78,1.44,3.73,-3.73,-3.94,-3.14,-2.25,-2.30,-2.30
207.28,1.54,3.85,1.46,3.78,-3.78,-3.98,-3.24,-2.24,-2.32,-2.31
209.35,1.54,3.88,1.48,3.82,-3.82,-4.01,-3.33,-2.28,-2.34,-2.34
211.44,1.54,3.91,1.50,3.86,-3.86,-4.03,-3.43,-2.32,-2.36,-2.37
213.56,1.54,3.91,1.52,3.90,-3.90,-4.03,-3.53,-2.36,-2.37,-2.37
215.69,1.54,3.92,1.55,3.94,-3.94,-4.02,-3.63,-2.40,-2.39,-2.38
217.85,1.54,3.94,1.57,3.97,-3.97,-4.01,-3.72,-2.43,-2.41,-2.40
220.03,1.54,3.96,1.59,4.01,-4.01,-3.99,-3.81,-2.47,-2.42,-2.42
222.23,1.54,3.98,1.61,4.04,-4.04,-3.97,-3.90,-2.50,-2.43,-2.44
224.45,1.54,3.99,1.63,4.08,-4.08,-3.94,-3.99,-2.54,-2.45,-2.45
226.70,1.54,3.99,1.64,4.10,-4.10,-3.92,-4.07,-2.56,-2.46,-2.45
228.96,1.70,4.16,1.65,4.11,-4.11,-3.89,-4.15,-2.41,-2.47,-2.46
231.25,1.75,4.22,1.66,4.14,-4.14,-3.87,-4.22,-2.39,-2.47,-2.47
233.57,1.77,4.25,1.69,4.17,-4.17,-3.84,-4.29,-2.40,-2.48,-2.48
235.90,1.77,4.26,1.72,4.21,-4.21,-3.82,-4.36,-2.44,-2.48,-2.49
238.26,1.77,4.26,1.75,4.24,-4.24,-3.80,-4.41,-2.47,-2.49,-2.49
240.64,1.77,4.26,1.78,4.27,-4.27,-3.79,-4.47,-2.50,-2.49,-2.49
243.05,1.77,4.25,1.80,4.29,-4.29,-3.78,-4.51,-2.52,-2.49,-2.48
245.48,1.77,4.25,1.82,4.31,-4.31,-3.77,-4.55,-2.54,-2.48,-2.48
247.93,1.77,4.24,1.85,4.33,-4.33,-3.77,-4.59,-2.56,-2.48,-2.47
250.41,1.77,4.25,1.86,4.33,-4.33,-3.77,-4.61,-2.56,-2.48,-2.48
252.92,1.82,4.29,1.86,4.34,-4.34,-3.77,-4.63,-2.52,-2.47,-2.47
255.45,1.97,4.42,1.86,4.32,-4.32,-3.78,-4.65,-2.35,-2.47,-2.45
258.00,2.00,4.45,1.85,4.30,-4.30,-3.79,-4.66,-2.31,-2.46,-2.45
260.58,1.86,4.31,1.83,4.28,-4.28,-3.80,-4.66,-2.42,-2.45,-2.45
263.19,1.78,4.22,1.80,4.24,-4.24,-3.82,-4.66,-2.46,-2.44,-2.44
265.82,1.77,4.20,1.77,4.19,-4.19,-3.84,-4.65,-2.42,-2.42,-2.43
268.48,1.77,4.18,1.72,4.13,-4.13,-3.86,-4.63,-2.36,-2.41,-2.41
271.16,1.77,4.17,1.67,4.06,-4.06,-3.89,-4.61,-2.29,-2.39,-2.40
273.87,1.69,4.07,1.61,3.99,-3.99,-3.92,-4.59,-2.30,-2.37,-2.38
276.61,1.56,3.91,1.56,3.92,-3.92,-3.95,-4.56,-2.36,-2.35,-2.35
279.38,1.54,3.88,1.50,3.84,-3.84,-3.98,-4.53,-2.30,-2.33,-2.34
282.17,1.37,3.68,1.45,3.76,-3.76,-4.01,-4.50,-2.39,-2.31,-2.31
284.99,1.31,3.60,1.40,3.69,-3.69,-4.04,-4.46,-2.38,-2.29,-2.29
287.84,1.31,3.57,1.38,3.64,-3.64,-4.08,-4.43,-2.33,-2.26,-2.27
290.72,1.31,3.54,1.38,3.61,-3.61,-4.12,-4.39,-2.30,-2.23,-2.23
293.63,1.31,3.52,1.39,3.59,-3.59,-4.15,-4.35,-2.28,-2.21,-2.21
296.57,1.31,3.49,1.40,3.58,-3.58,-4.19,-4.31,-2.27,-2.18,-2.18
299.53,1.49,3.64,1.44,3.60,-3.60,-4.23,-4.27,-2.11,-2.16,-2.16
302.53,1.54,3.68,1.50,3.63,-3.63,-4.27,-4.23,-2.09,-2.14,-2.14
305.55,1.54,3.64,1.58,3.69,-3.69,-4.30,-4.19,-2.16,-2.12,-2.10
308.61,1.60,3.69,1.67,3.77,-3.77,-4.34,-4.15,-2.17,-2.10,-2.09
311.69,1.75,3.82,1.76,3.85,-3.85,-4.38,-4.12,-2.10,-2.09,-2.07
314.81,1.91,3.96,1.86,3.93,-3.93,-4.42,-4.08,-2.02,-2.07,-2.05
317.96,1.99,4.04,1.95,4.01,-4.01,-4.45,-4.05,-2.03,-2.06,-2.05
321.14,2.01,4.06,2.04,4.10,-4.10,-4.49,-4.02,-2.09,-2.05,-2.05
324.35,2.18,4.23,2.13,4.18,-4.18,-4.52,-3.99,-2.00,-2.04,-2.05
327.59,2.26,4.30,2.22,4.26,-4.26,-4.56,-3.96,-2.00,-2.03,-2.04
330.87,2.40,4.43,2.30,4.32,-4.32,-4.59,-3.94,-1.93,-2.03,-2.03
334.18,2.45,4.48,2.37,4.38,-4.38,-4.62,-3.92,-1.93,-2.02,-2.03
337.52,2.45,4.47,2.44,4.44,-4.44,-4.65,-3.90,-1.99,-2.00,-2.02
340.90,2.45,4.44,2.51,4.50,-4.50,-4.67,-3.88,-2.05,-1.99,-1.99
344.30,2.45,4.44,2.56,4.54,-4.54,-4.70,-3.87,-2.09,-1.98,-1.99
347.75,2.51,4.48,2.59,4.55,-4.55,-4.72,-3.86,-2.04,-1.96,-1.97
351.23,2.64,4.58,2.62,4.56,-4.56,-4.74,-3.85,-1.92,-1.94,-1.94
354.74,2.68,4.60,2.63,4.56,-4.56,-4.76,-3.85,-1.88,-1.92,-1.92
358.28,2.68,4.58,2.64,4.54,-4.54,-4.78,-3.85,-1.86,-1.90,-1.90
361.87,2.68,4.56,2.64,4.51,-4.51,-4.79,-3.85,-1.83,-1.88,-1.88
365.49,2.68,4.53,2.63,4.48,-4.48,-4.80,-3.85,-1.80,-1.85,-1.85
369.14,2.68,4.51,2.61,4.45,-4.45,-4.81,-3.86,-1.77,-1.83,-1.83
372.83,2.68,4.49,2.60,4.41,-4.41,-4.81,-3.87,-1.73,-1.81,-1.81
376.56,2.63,4.42,2.59,4.38,-4.38,-4.82,-3.88,-1.75,-1.79,-1.79
380.33,2.48,4.24,2.57,4.34,-4.34,-4.82,-3.90,-1.86,-1.77,-1.76
384.13,2.45,4.19,2.55,4.30,-4.30,-4.82,-3.92,-1.85,-1.75,-1.74
387.97,2.45,4.18,2.51,4.25,-4.25,-4.81,-3.94,-1.80,-1.74,-1.73
391.85,2.45,4.17,2.48,4.20,-4.20,-4.80,-3.97,-1.75,-1.73,-1.72
395.77,2.45,4.17,2.45,4.17,-4.17,-4.79,-3.99,-1.72,-1.71,-1.72
399.73,2.45,4.16,2.43,4.14,-4.14,-4.78,-4.02,-1.69,-1.71,-1.71
403.72,2.45,4.15,2.42,4.11,-4.11,-4.76,-4.05,-1.66,-1.70,-1.70
407.76,2.45,4.14,2.42,4.11,-4.11,-4.75,-4.08,-1.66,-1.69,-1.69
411.84,2.45,4.13,2.43,4.11,-4.11,-4.72,-4.11,-1.66,-1.69,-1.68
415.96,2.45,4.12,2.45,4.14,-4.14,-4.70,-4.15,-1.69,-1.68,-1.67
420.12,2.45,4.12,2.49,4.17,-4.17,-4.67,-4.18,-1.72,-1.68,-1.68
424.32,2.45,4.13,2.53,4.21,-4.21,-4.65,-4.21,-1.76,-1.68,-1.68
428.56,2.45,4.13,2.57,4.25,-4.25,-4.62,-4.25,-1.80,-1.68,-1.68
432.85,2.54,4.22,2.61,4.29,-4.29,-4.58,-4.28,-1.75,-1.67,-1.68
437.18,2.66,4.33,2.66,4.33,-4.33,-4.55,-4.32,-1.67,-1.67,-1.67
441.55,2.68,4.34,2.70,4.36,-4.36,-4.51,-4.35,-1.69,-1.66,-1.66
445.96,2.84,4.50,2.74,4.40,-4.40,-4.47,-4.38,-1.56,-1.66,-1.66
450.42,2.91,4.56,2.79,4.44,-4.44,-4.43,-4.41,-1.53,-1.65,-1.65
454.93,2.91,4.55,2.83,4.46,-4.46,-4.39,-4.43,-1.55,-1.64,-1.64
459.48,2.91,4.54,2.87,4.50,-4.50,-4.34,-4.45,-1.59,-1.63,-1.63
464.07,2.91,4.52,2.91,4.52,-4.52,-4.30,-4.47,-1.61,-1.61,-1.62
468.71,2.91,4.51,2.93,4.53,-4.53,-4.25,-4.49,-1.62,-1.60,-1.60
473.40,2.91,4.50,2.94,4.52,-4.52,-4.20,-4.50,-1.61,-1.58,-1.59
478.13,2.91,4.47,2.94,4.50,-4.50,-4.15,-4.51,-1.59,-1.55,-1.56
482.91,2.91,4.45,2.93,4.46,-4.46,-4.10,-4.51,-1.55,-1.53,-1.54
487.74,2.91,4.42,2.91,4.42,-4.42,-4.05,-4.51,-1.51,-1.51,-1.51
492.62,2.91,4.39,2.89,4.37,-4.37,-4.00,-4.50,-1.47,-1.49,-1.48
497.55,2.91,4.37,2.87,4.33,-4.33,-3.94,-4.49,-1.42,-1.46,-1.46
502.52,2.91,4.34,2.85,4.29,-4.29,-3.89,-4.47,-1.38,-1.44,-1.43
507.55,2.91,4.32,2.83,4.24,-4.24,-3.83,-4.44,-1.33,-1.41,-1.41
512.62,2.74,4.12,2.80,4.19,-4.19,-3.78,-4.41,-1.45,-1.39,-1.38
517.75,2.68,4.04,2.78,4.15,-4.15,-3.72,-4.38,-1.47,-1.36,-1.36
