frequency,raw,error,smoothed,error_smoothed,equalization,parametric_eq,fixed_band_eq,equalized_raw,equalized_smoothed,target
20.00,-23.33,-18.93,-23.33,-18.93,18.93,19.62,7.30,-4.40,-4.40,-4.40
20.20,-23.17,-18.86,-23.17,-18.85,18.86,19.45,7.46,-4.31,-4.31,-4.31
20.40,-23.00,-18.77,-23.00,-18.77,18.78,19.29,7.62,-4.22,-4.23,-4.23
20.61,-22.84,-18.68,-22.84,-18.69,18.69,19.12,7.79,-4.15,-4.15,-4.16
20.81,-22.68,-18.61,-22.68,-18.61,18.61,18.96,7.96,-4.07,-4.07,-4.07
21.02,-22.51,-18.52,-22.51,-18.52,18.51,18.80,8.14,-4.00,-4.00,-3.99
21.23,-22.35,-18.42,-22.35,-18.42,18.42,18.64,8.32,-3.93,-3.93,-3.93
21.44,-22.19,-18.32,-22.19,-18.32,18.32,18.48,8.51,-3.87,-3.87,-3.87
21.66,-22.03,-18.21,-22.03,-18.21,18.21,18.32,8.70,-3.82,-3.82,-3.82
21.87,-21.86,-18.09,-21.86,-18.10,18.10,18.17,8.90,-3.76,-3.76,-3.77
22.09,-21.70,-17.98,-21.70,-17.98,17.98,18.01,9.10,-3.71,-3.72,-3.72
22.31,-21.54,-17.87,-21.53,-17.86,17.86,17.86,9.31,-3.67,-3.67,-3.67
22.54,-21.37,-17.74,-21.37,-17.75,17.74,17.71,9.52,-3.63,-3.63,-3.63
22.76,-21.21,-17.62,-21.21,-17.62,17.62,17.55,9.74,-3.59,-3.59,-3.59
22.99,-21.05,-17.49,-21.05,-17.49,17.50,17.41,9.97,-3.55,-3.55,-3.56
23.22,-20.88,-17.36,-20.88,-17.37,17.37,17.26,10.20,-3.51,-3.51,-3.52
23.45,-20.72,-17.24,-20.72,-17.24,17.25,17.11,10.44,-3.47,-3.47,-3.48
23.69,-20.56,-17.12,-20.56,-17.12,17.12,16.97,10.68,-3.44,-3.43,-3.44
23.92,-20.39,-16.99,-20.39,-17.00,16.99,16.82,10.93,-3.39,-3.40,-3.40
24.16,-20.23,-16.88,-20.23,-16.87,16.87,16.68,11.19,-3.36,-3.36,-3.35
24.40,-20.07,-16.75,-20.07,-16.74,16.74,16.54,11.45,-3.32,-3.32,-3.32
24.65,-19.91,-16.61,-19.91,-16.62,16.62,16.40,11.73,-3.29,-3.29,-3.30
24.89,-19.75,-16.48,-19.75,-16.48,16.49,16.26,12.01,-3.26,-3.26,-3.27
25.14,-19.59,-16.36,-19.59,-16.36,16.36,16.12,12.29,-3.23,-3.23,-3.23
25.39,-19.43,-16.23,-19.43,-16.23,16.23,15.99,12.59,-3.20,-3.20,-3.20
25.65,-19.27,-16.11,-19.27,-16.10,16.10,15.85,12.89,-3.17,-3.17,-3.16
25.91,-19.11,-15.97,-19.11,-15.98,15.98,15.72,13.20,-3.14,-3.13,-3.14
26.16,-18.95,-15.84,-18.95,-15.85,15.85,15.59,13.51,-3.10,-3.10,-3.11
26.43,-18.79,-15.72,-18.79,-15.72,15.72,15.46,13.83,-3.07,-3.07,-3.07
26.69,-18.63,-15.59,-18.63,-15.59,15.59,15.33,14.16,-3.04,-3.04,-3.04
26.96,-18.48,-15.47,-18.48,-15.47,15.47,15.20,14.50,-3.02,-3.01,-3.01
27.23,-18.32,-15.34,-18.32,-15.34,15.34,15.07,14.83,-2.98,-2.98,-2.98
27.50,-18.16,-15.21,-18.16,-15.21,15.21,14.95,15.17,-2.95,-2.95,-2.95
27.77,-18.01,-15.08,-18.00,-15.08,15.09,14.82,15.52,-2.92,-2.92,-2.93
28.05,-17.85,-14.96,-17.85,-14.96,14.96,14.70,15.86,-2.89,-2.89,-2.89
28.33,-17.70,-14.83,-17.70,-14.83,14.84,14.57,16.19,-2.86,-2.86,-2.87
28.62,-17.55,-14.71,-17.55,-14.71,14.71,14.45,16.52,-2.84,-2.83,-2.84
28.90,-17.40,-14.60,-17.40,-14.60,14.59,14.33,16.84,-2.80,-2.81,-2.80
29.19,-17.25,-14.47,-17.25,-14.48,14.47,14.21,17.14,-2.77,-2.77,-2.78
29.48,-17.10,-14.37,-17.10,-14.36,14.36,14.09,17.42,-2.74,-2.74,-2.73
29.78,-16.95,-14.23,-16.95,-14.24,14.24,13.97,17.67,-2.71,-2.71,-2.72
30.08,-16.80,-14.11,-16.81,-14.12,14.12,13.86,17.90,-2.68,-2.68,-2.69
30.38,-16.67,-14.01,-16.67,-14.01,14.01,13.74,18.08,-2.66,-2.66,-2.66
30.68,-16.53,-13.90,-16.53,-13.90,13.89,13.63,18.21,-2.64,-2.64,-2.63
30.99,-16.39,-13.78,-16.39,-13.78,13.78,13.51,18.30,-2.61,-2.61,-2.61
31.30,-16.25,-13.66,-16.25,-13.67,13.67,13.40,18.34,-2.58,-2.58,-2.59
31.61,-16.12,-13.56,-16.12,-13.56,13.56,13.29,18.33,-2.56,-2.56,-2.56
31.93,-15.99,-13.45,-15.99,-13.45,13.46,13.17,18.27,-2.53,-2.53,-2.54
32.24,-15.87,-13.35,-15.87,-13.35,13.35,13.06,18.16,-2.51,-2.51,-2.52
32.57,-15.74,-13.25,-15.74,-13.25,13.25,12.95,18.00,-2.49,-2.49,-2.49
32.89,-15.62,-13.15,-15.62,-13.15,13.15,12.84,17.81,-2.47,-2.47,-2.47
33.22,-15.50,-13.05,-15.50,-13.05,13.05,12.74,17.59,-2.45,-2.45,-2.45
33.55,-15.38,-12.95,-15.38,-12.95,12.95,12.63,17.34,-2.43,-2.43,-2.43
33.89,-15.26,-12.84,-15.26,-12.84,12.85,12.52,17.07,-2.41,-2.41,-2.42
34.23,-15.14,-12.74,-15.14,-12.74,12.74,12.41,16.78,-2.40,-2.40,-2.40
34.57,-15.03,-12.64,-15.03,-12.64,12.64,12.31,16.49,-2.39,-2.39,-2.39
34.92,-14.92,-12.54,-14.92,-12.54,12.54,12.20,16.18,-2.38,-2.38,-2.38
35.27,-14.80,-12.44,-14.80,-12.43,12.43,12.10,15.88,-2.37,-2.37,-2.36
35.62,-14.68,-12.31,-14.68,-12.32,12.33,12.00,15.57,-2.35,-2.36,-2.37
35.97,-14.57,-12.21,-14.57,-12.22,12.22,11.89,15.27,-2.35,-2.35,-2.36
36.33,-14.46,-12.12,-14.46,-12.11,12.11,11.79,14.97,-2.34,-2.35,-2.34
36.70,-14.36,-12.01,-14.36,-12.01,12.01,11.69,14.67,-2.35,-2.35,-2.35
37.06,-14.25,-11.90,-14.25,-11.90,11.90,11.59,14.38,-2.35,-2.35,-2.35
37.43,-14.14,-11.79,-14.14,-11.79,11.79,11.49,14.10,-2.35,-2.35,-2.35
37.81,-14.03,-11.68,-14.03,-11.68,11.68,11.39,13.82,-2.35,-2.35,-2.35
38.19,-13.92,-11.57,-13.92,-11.58,11.58,11.29,13.55,-2.34,-2.35,-2.35
38.57,-13.82,-11.47,-13.82,-11.47,11.46,11.19,13.29,-2.35,-2.35,-2.35
38.95,-13.71,-11.36,-13.71,-11.36,11.35,11.09,13.04,-2.35,-2.36,-2.35
39.34,-13.61,-11.24,-13.61,-11.24,11.24,10.99,12.79,-2.37,-2.36,-2.37
39.74,-13.50,-11.13,-13.50,-11.13,11.13,10.89,12.56,-2.37,-2.37,-2.37
40.14,-13.39,-11.01,-13.39,-11.02,11.02,10.79,12.33,-2.37,-2.37,-2.38
40.54,-13.29,-10.91,-13.29,-10.91,10.91,10.70,12.11,-2.38,-2.38,-2.38
40.94,-13.18,-10.79,-13.18,-10.80,10.80,10.60,11.90,-2.38,-2.38,-2.39
41.35,-13.08,-10.69,-13.08,-10.69,10.69,10.50,11.69,-2.39,-2.39,-2.39
41.76,-12.98,-10.58,-12.97,-10.58,10.57,10.41,11.50,-2.40,-2.40,-2.40
42.18,-12.87,-10.46,-12.87,-10.46,10.46,10.31,11.31,-2.41,-2.41,-2.41
42.60,-12.76,-10.34,-12.76,-10.35,10.34,10.22,11.13,-2.41,-2.42,-2.42
43.03,-12.65,-10.23,-12.65,-10.23,10.23,10.12,10.95,-2.42,-2.42,-2.42
43.46,-12.55,-10.12,-12.55,-10.11,10.11,10.03,10.78,-2.44,-2.44,-2.43
43.90,-12.44,-9.99,-12.44,-9.99,9.99,9.93,10.62,-2.45,-2.45,-2.45
44.33,-12.34,-9.87,-12.34,-9.87,9.88,9.83,10.47,-2.46,-2.46,-2.47
44.78,-12.23,-9.75,-12.23,-9.75,9.76,9.74,10.32,-2.47,-2.47,-2.48
45.23,-12.13,-9.64,-12.13,-9.64,9.65,9.64,10.18,-2.49,-2.49,-2.49
45.68,-12.03,-9.53,-12.03,-9.53,9.53,9.55,10.05,-2.50,-2.50,-2.50
46.13,-11.93,-9.42,-11.93,-9.42,9.42,9.45,9.92,-2.51,-2.50,-2.51
46.60,-11.82,-9.31,-11.82,-9.31,9.31,9.35,9.79,-2.51,-2.51,-2.51
47.06,-11.72,-9.20,-11.72,-9.20,9.20,9.26,9.68,-2.52,-2.52,-2.52
47.53,-11.62,-9.09,-11.62,-9.09,9.09,9.16,9.56,-2.53,-2.53,-2.53
48.01,-11.52,-8.99,-11.52,-8.99,8.98,9.06,9.46,-2.54,-2.54,-2.53
48.49,-11.42,-8.88,-11.42,-8.88,8.87,8.96,9.35,-2.55,-2.55,-2.54
48.97,-11.32,-8.77,-11.31,-8.76,8.76,8.86,9.26,-2.56,-2.55,-2.55
49.46,-11.21,-8.64,-11.21,-8.65,8.66,8.76,9.16,-2.55,-2.55,-2.57
49.96,-11.11,-8.53,-11.11,-8.54,8.55,8.66,9.08,-2.55,-2.56,-2.58
50.46,-11.02,-8.45,-11.02,-8.44,8.45,8.55,8.99,-2.57,-2.56,-2.57
50.96,-10.93,-8.36,-10.93,-8.36,8.36,8.45,8.91,-2.57,-2.57,-2.57
51.47,-10.84,-8.26,-10.84,-8.27,8.26,8.34,8.83,-2.58,-2.58,-2.58
51.99,-10.75,-8.17,-10.75,-8.17,8.17,8.23,8.76,-2.58,-2.58,-2.58
52.51,-10.66,-8.08,-10.66,-8.08,8.07,8.12,8.69,-2.59,-2.58,-2.58
53.03,-10.56,-7.98,-10.56,-7.98,7.98,8.01,8.62,-2.58,-2.58,-2.58
53.56,-10.47,-7.89,-10.47,-7.89,7.89,7.90,8.55,-2.58,-2.58,-2.58
54.10,-10.38,-7.79,-10.38,-7.79,7.80,7.79,8.49,-2.58,-2.58,-2.59
54.64,-10.30,-7.70,-10.30,-7.70,7.70,7.68,8.42,-2.60,-2.60,-2.60
55.18,-10.21,-7.60,-10.22,-7.61,7.61,7.57,8.36,-2.60,-2.61,-2.61
55.74,-10.14,-7.51,-10.14,-7.52,7.51,7.47,8.30,-2.63,-2.62,-2.63
56.29,-10.06,-7.43,-10.06,-7.42,7.42,7.37,8.24,-2.64,-2.64,-2.63
56.86,-9.98,-7.33,-9.98,-7.33,7.33,7.28,8.18,-2.65,-2.65,-2.65
57.42,-9.90,-7.23,-9.90,-7.24,7.24,7.19,8.12,-2.66,-2.66,-2.67
58.00,-9.82,-7.14,-9.82,-7.14,7.15,7.12,8.05,-2.67,-2.67,-2.68
58.58,-9.76,-7.06,-9.76,-7.06,7.06,7.05,7.99,-2.70,-2.69,-2.70
59.16,-9.69,-6.98,-9.69,-6.98,6.97,6.99,7.92,-2.71,-2.72,-2.71
59.76,-9.63,-6.90,-9.62,-6.90,6.89,6.94,7.85,-2.74,-2.74,-2.73
60.35,-9.56,-6.80,-9.56,-6.81,6.80,6.89,7.79,-2.76,-2.76,-2.76
60.96,-9.49,-6.72,-9.50,-6.71,6.71,6.85,7.71,-2.78,-2.78,-2.77
61.57,-9.44,-6.62,-9.44,-6.63,6.63,6.81,7.64,-2.81,-2.81,-2.82
62.18,-9.39,-6.54,-9.39,-6.55,6.55,6.77,7.56,-2.84,-2.84,-2.85
62.80,-9.34,-6.48,-9.34,-6.47,6.47,6.74,7.48,-2.86,-2.86,-2.86
63.43,-9.29,-6.39,-9.29,-6.40,6.41,6.70,7.40,-2.88,-2.89,-2.90
64.07,-9.26,-6.34,-9.26,-6.34,6.34,6.65,7.31,-2.91,-2.91,-2.92
64.71,-9.22,-6.29,-9.22,-6.29,6.29,6.61,7.22,-2.93,-2.93,-2.93
65.35,-9.19,-6.24,-9.19,-6.24,6.25,6.57,7.13,-2.94,-2.94,-2.95
66.01,-9.16,-6.20,-9.16,-6.20,6.21,6.52,7.04,-2.95,-2.95,-2.96
66.67,-9.14,-6.17,-9.14,-6.17,6.18,6.48,6.94,-2.96,-2.97,-2.97
67.33,-9.13,-6.15,-9.13,-6.15,6.15,6.43,6.85,-2.98,-2.98,-2.98
68.01,-9.12,-6.13,-9.11,-6.12,6.12,6.38,6.75,-3.00,-2.99,-2.99
68.69,-9.09,-6.09,-9.09,-6.10,6.10,6.32,6.65,-2.99,-3.00,-3.00
69.37,-9.07,-6.07,-9.07,-6.07,6.07,6.27,6.54,-3.00,-3.00,-3.00
70.07,-9.06,-6.05,-9.06,-6.05,6.05,6.22,6.44,-3.01,-3.01,-3.01
70.77,-9.04,-6.03,-9.04,-6.03,6.02,6.16,6.34,-3.02,-3.02,-3.01
71.48,-9.02,-6.00,-9.02,-6.00,5.99,6.11,6.23,-3.03,-3.03,-3.02
72.19,-8.99,-5.95,-8.99,-5.96,5.96,6.05,6.13,-3.03,-3.03,-3.04
72.91,-8.97,-5.93,-8.97,-5.93,5.93,5.99,6.02,-3.04,-3.04,-3.04
73.64,-8.95,-5.89,-8.95,-5.89,5.90,5.93,5.92,-3.05,-3.05,-3.06
74.38,-8.93,-5.86,-8.93,-5.86,5.86,5.88,5.81,-3.07,-3.07,-3.07
75.12,-8.92,-5.83,-8.91,-5.83,5.83,5.82,5.71,-3.09,-3.09,-3.09
75.87,-8.89,-5.79,-8.89,-5.79,5.79,5.76,5.61,-3.10,-3.10,-3.10
76.63,-8.87,-5.76,-8.87,-5.76,5.76,5.70,5.51,-3.11,-3.11,-3.11
77.40,-8.85,-5.72,-8.85,-5.72,5.73,5.64,5.41,-3.12,-3.12,-3.13
78.17,-8.84,-5.69,-8.84,-5.70,5.70,5.59,5.31,-3.14,-3.14,-3.15
78.95,-8.82,-5.67,-8.82,-5.67,5.66,5.53,5.22,-3.16,-3.15,-3.15
79.74,-8.80,-5.64,-8.80,-5.64,5.63,5.47,5.13,-3.17,-3.17,-3.16
80.54,-8.77,-5.60,-8.77,-5.60,5.60,5.41,5.04,-3.17,-3.17,-3.17
81.35,-8.75,-5.57,-8.75,-5.57,5.57,5.35,4.95,-3.18,-3.18,-3.18
82.16,-8.72,-5.53,-8.72,-5.54,5.54,5.29,4.86,-3.18,-3.18,-3.19
82.98,-8.69,-5.51,-8.69,-5.51,5.51,5.24,4.78,-3.18,-3.18,-3.18
83.81,-8.67,-5.48,-8.67,-5.48,5.49,5.18,4.70,-3.18,-3.18,-3.19
84.65,-8.65,-5.45,-8.65,-5.46,5.47,5.12,4.62,-3.18,-3.18,-3.20
85.50,-8.63,-5.44,-8.63,-5.44,5.44,5.06,4.54,-3.18,-3.18,-3.19
86.35,-8.61,-5.42,-8.61,-5.42,5.42,5.01,4.47,-3.19,-3.19,-3.19
87.22,-8.60,-5.40,-8.60,-5.40,5.40,4.95,4.40,-3.20,-3.20,-3.20
88.09,-8.58,-5.38,-8.58,-5.38,5.37,4.89,4.33,-3.21,-3.21,-3.20
88.97,-8.55,-5.34,-8.55,-5.34,5.33,4.84,4.26,-3.22,-3.22,-3.21
89.86,-8.52,-5.30,-8.52,-5.30,5.29,4.78,4.20,-3.23,-3.23,-3.22
90.76,-8.48,-5.24,-8.48,-5.24,5.24,4.73,4.14,-3.24,-3.24,-3.24
91.66,-8.44,-5.18,-8.44,-5.18,5.18,4.67,4.08,-3.26,-3.26,-3.26
92.58,-8.40,-5.11,-8.39,-5.11,5.12,4.62,4.02,-3.28,-3.28,-3.29
93.51,-8.35,-5.04,-8.35,-5.04,5.05,4.56,3.97,-3.30,-3.30,-3.31
94.44,-8.31,-4.97,-8.31,-4.97,4.97,4.51,3.92,-3.33,-3.34,-3.34
95.39,-8.28,-4.90,-8.28,-4.90,4.90,4.45,3.87,-3.38,-3.38,-3.38
96.34,-8.25,-4.83,-8.25,-4.82,4.82,4.40,3.82,-3.43,-3.42,-3.42
97.30,-8.22,-4.74,-8.22,-4.75,4.75,4.35,3.78,-3.47,-3.47,-3.48
98.28,-8.19,-4.66,-8.19,-4.67,4.67,4.30,3.74,-3.52,-3.52,-3.53
99.26,-8.17,-4.59,-8.17,-4.59,4.59,4.24,3.70,-3.58,-3.58,-3.58
100.25,-8.15,-4.51,-8.15,-4.51,4.51,4.19,3.66,-3.63,-3.63,-3.64
101.25,-8.13,-4.43,-8.13,-4.43,4.44,4.14,3.62,-3.69,-3.70,-3.70
102.27,-8.12,-4.36,-8.12,-4.36,4.36,4.09,3.59,-3.76,-3.76,-3.76
103.29,-8.10,-4.28,-8.10,-4.28,4.28,4.04,3.55,-3.82,-3.82,-3.82
104.32,-8.08,-4.21,-8.08,-4.20,4.20,3.99,3.52,-3.88,-3.88,-3.87
105.37,-8.05,-4.11,-8.05,-4.11,4.12,3.94,3.49,-3.93,-3.93,-3.94
106.42,-8.02,-4.02,-8.02,-4.03,4.03,3.89,3.46,-3.99,-3.99,-4.00
107.48,-8.00,-3.95,-8.00,-3.95,3.95,3.84,3.43,-4.05,-4.05,-4.05
108.56,-7.98,-3.87,-7.98,-3.87,3.86,3.79,3.40,-4.12,-4.11,-4.11
109.64,-7.95,-3.78,-7.95,-3.79,3.77,3.74,3.38,-4.18,-4.17,-4.17
110.74,-7.91,-3.69,-7.91,-3.69,3.69,3.70,3.35,-4.22,-4.22,-4.22
111.85,-7.87,-3.61,-7.87,-3.60,3.60,3.65,3.32,-4.27,-4.27,-4.26
112.97,-7.83,-3.50,-7.83,-3.51,3.52,3.60,3.30,-4.31,-4.32,-4.33
114.10,-7.80,-3.43,-7.80,-3.43,3.44,3.56,3.27,-4.36,-4.37,-4.37
115.24,-7.78,-3.36,-7.78,-3.36,3.37,3.51,3.25,-4.41,-4.42,-4.42
116.39,-7.77,-3.30,-7.76,-3.30,3.30,3.46,3.22,-4.47,-4.46,-4.47
117.55,-7.75,-3.24,-7.75,-3.24,3.25,3.42,3.19,-4.50,-4.49,-4.51
118.73,-7.73,-3.18,-7.74,-3.19,3.21,3.38,3.17,-4.52,-4.53,-4.55
119.92,-7.74,-3.16,-7.74,-3.16,3.18,3.33,3.14,-4.56,-4.56,-4.58
121.12,-7.76,-3.15,-7.75,-3.15,3.15,3.29,3.11,-4.61,-4.61,-4.61
122.33,-7.77,-3.13,-7.77,-3.13,3.12,3.24,3.08,-4.65,-4.65,-4.64
123.55,-7.78,-3.11,-7.77,-3.11,3.09,3.20,3.05,-4.69,-4.68,-4.67
124.79,-7.77,-3.07,-7.77,-3.08,3.06,3.16,3.02,-4.71,-4.71,-4.70
126.03,-7.75,-3.03,-7.76,-3.03,3.02,3.12,2.99,-4.73,-4.74,-4.72
127.29,-7.74,-2.99,-7.73,-2.98,2.98,3.08,2.95,-4.76,-4.76,-4.75
128.57,-7.71,-2.92,-7.71,-2.93,2.93,3.04,2.92,-4.78,-4.78,-4.79
129.85,-7.67,-2.86,-7.68,-2.86,2.87,3.00,2.88,-4.80,-4.81,-4.81
131.15,-7.64,-2.80,-7.64,-2.80,2.81,2.96,2.85,-4.83,-4.84,-4.84
132.46,-7.62,-2.74,-7.61,-2.74,2.74,2.92,2.81,-4.87,-4.87,-4.88
133.79,-7.58,-2.68,-7.58,-2.68,2.68,2.88,2.77,-4.90,-4.90,-4.90
135.12,-7.54,-2.61,-7.55,-2.62,2.61,2.84,2.73,-4.93,-4.94,-4.93
136.48,-7.52,-2.56,-7.51,-2.55,2.54,2.80,2.69,-4.98,-4.97,-4.96
137.84,-7.48,-2.49,-7.48,-2.49,2.48,2.77,2.65,-5.00,-5.00,-4.99
139.22,-7.45,-2.41,-7.45,-2.42,2.42,2.73,2.61,-5.03,-5.03,-5.04
140.61,-7.42,-2.35,-7.42,-2.35,2.36,2.69,2.57,-5.06,-5.05,-5.07
142.02,-7.39,-2.30,-7.40,-2.30,2.32,2.66,2.53,-5.07,-5.08,-5.09
143.44,-7.39,-2.26,-7.39,-2.26,2.28,2.62,2.49,-5.11,-5.11,-5.13
144.87,-7.41,-2.24,-7.40,-2.24,2.25,2.59,2.45,-5.16,-5.15,-5.17
146.32,-7.43,-2.22,-7.43,-2.23,2.23,2.55,2.41,-5.20,-5.20,-5.21
147.78,-7.46,-2.22,-7.46,-2.22,2.22,2.52,2.37,-5.24,-5.24,-5.24
149.26,-7.50,-2.23,-7.49,-2.22,2.21,2.49,2.33,-5.29,-5.28,-5.27
150.75,-7.53,-2.21,-7.53,-2.22,2.21,2.46,2.29,-5.32,-5.32,-5.32
152.26,-7.56,-2.20,-7.56,-2.21,2.21,2.42,2.25,-5.35,-5.35,-5.36
153.78,-7.60,-2.21,-7.60,-2.20,2.21,2.39,2.21,-5.39,-5.39,-5.39
155.32,-7.63,-2.19,-7.64,-2.20,2.20,2.36,2.17,-5.43,-5.44,-5.44
156.88,-7.68,-2.21,-7.67,-2.20,2.19,2.33,2.13,-5.49,-5.49,-5.47
158.44,-7.70,-2.17,-7.70,-2.18,2.17,2.30,2.09,-5.53,-5.53,-5.53
160.03,-7.73,-2.16,-7.73,-2.16,2.15,2.28,2.06,-5.58,-5.58,-5.57
161.63,-7.74,-2.12,-7.74,-2.12,2.12,2.25,2.02,-5.62,-5.62,-5.62
163.24,-7.75,-2.09,-7.75,-2.09,2.09,2.22,1.99,-5.66,-5.66,-5.66
164.88,-7.76,-2.06,-7.76,-2.06,2.06,2.19,1.95,-5.70,-5.70,-5.70
166.53,-7.76,-2.02,-7.76,-2.02,2.03,2.17,1.92,-5.73,-5.74,-5.74
168.19,-7.77,-1.99,-7.77,-1.99,2.00,2.14,1.89,-5.77,-5.77,-5.78
169.87,-7.78,-1.96,-7.78,-1.96,1.97,2.12,1.86,-5.81,-5.81,-5.82
171.57,-7.80,-1.95,-7.80,-1.94,1.95,2.10,1.83,-5.85,-5.85,-5.85
173.29,-7.81,-1.92,-7.82,-1.93,1.94,2.07,1.80,-5.87,-5.89,-5.89
175.02,-7.86,-1.93,-7.85,-1.93,1.93,2.05,1.77,-5.93,-5.92,-5.93
176.77,-7.89,-1.93,-7.88,-1.92,1.93,2.03,1.74,-5.96,-5.96,-5.96
178.54,-7.91,-1.92,-7.92,-1.93,1.93,2.01,1.72,-5.98,-5.99,-5.99
180.32,-7.95,-1.93,-7.95,-1.93,1.94,1.99,1.69,-6.01,-6.01,-6.02
182.13,-7.98,-1.94,-7.98,-1.94,1.95,1.97,1.67,-6.03,-6.04,-6.04
183.95,-8.02,-1.96,-8.02,-1.96,1.96,1.95,1.65,-6.06,-6.06,-6.06
185.79,-8.05,-1.97,-8.05,-1.97,1.97,1.94,1.62,-6.08,-6.08,-6.08
187.65,-8.07,-1.97,-8.07,-1.98,1.97,1.92,1.60,-6.10,-6.10,-6.10
189.52,-8.09,-1.98,-8.09,-1.98,1.97,1.91,1.59,-6.12,-6.12,-6.11
191.42,-8.10,-1.97,-8.10,-1.97,1.96,1.89,1.57,-6.14,-6.13,-6.13
193.33,-8.10,-1.96,-8.10,-1.96,1.95,1.88,1.55,-6.15,-6.15,-6.14
195.27,-8.10,-1.95,-8.10,-1.95,1.94,1.87,1.53,-6.16,-6.16,-6.15
197.22,-8.09,-1.92,-8.09,-1.92,1.92,1.86,1.52,-6.17,-6.17,-6.17
199.19,-8.08,-1.89,-8.08,-1.89,1.90,1.85,1.50,-6.18,-6.18,-6.19
201.18,-8.06,-1.86,-8.06,-1.87,1.88,1.85,1.49,-6.18,-6.19,-6.20
203.19,-8.06,-1.86,-8.06,-1.85,1.86,1.84,1.48,-6.20,-6.19,-6.20
205.23,-8.06,-1.84,-8.06,-1.85,1.85,1.84,1.47,-6.21,-6.21,-6.22
207.28,-8.07,-1.85,-8.07,-1.85,1.85,1.84,1.46,-6.22,-6.22,-6.22
209.35,-8.09,-1.85,-8.09,-1.85,1.85,1.84,1.45,-6.24,-6.23,-6.24
211.44,-8.11,-1.85,-8.11,-1.86,1.86,1.85,1.45,-6.25,-6.25,-6.26
213.56,-8.14,-1.87,-8.14,-1.88,1.88,1.85,1.44,-6.26,-6.26,-6.27
215.69,-8.18,-1.91,-8.18,-1.90,1.90,1.86,1.44,-6.28,-6.28,-6.27
217.85,-8.22,-1.93,-8.21,-1.92,1.92,1.87,1.43,-6.30,-6.29,-6.29
220.03,-8.24,-1.94,-8.24,-1.94,1.94,1.88,1.43,-6.29,-6.30,-6.30
222.23,-8.27,-1.95,-8.27,-1.96,1.97,1.90,1.43,-6.30,-6.31,-6.32
224.45,-8.31,-1.99,-8.31,-1.99,1.99,1.91,1.43,-6.32,-6.32,-6.32
226.70,-8.35,-2.01,-8.35,-2.01,2.01,1.93,1.43,-6.34,-6.34,-6.34
228.96,-8.38,-2.03,-8.38,-2.03,2.02,1.95,1.44,-6.36,-6.35,-6.35
231.25,-8.40,-2.04,-8.40,-2.04,2.03,1.97,1.44,-6.37,-6.37,-6.36
233.57,-8.42,-2.04,-8.42,-2.04,2.03,1.99,1.45,-6.39,-6.39,-6.38
235.90,-8.43,-2.04,-8.43,-2.04,2.02,2.01,1.46,-6.41,-6.40,-6.39
238.26,-8.43,-2.02,-8.43,-2.02,2.01,2.02,1.47,-6.42,-6.41,-6.41
240.64,-8.42,-1.99,-8.42,-2.00,2.00,2.03,1.48,-6.42,-6.42,-6.43
243.05,-8.41,-1.97,-8.41,-1.97,1.98,2.04,1.50,-6.43,-6.43,-6.44
245.48,-8.41,-1.96,-8.41,-1.96,1.97,2.04,1.51,-6.44,-6.44,-6.45
247.93,-8.41,-1.95,-8.41,-1.95,1.96,2.03,1.53,-6.45,-6.44,-6.46
250.41,-8.41,-1.94,-8.41,-1.95,1.96,2.03,1.55,-6.45,-6.45,-6.47
252.92,-8.41,-1.95,-8.41,-1.95,1.96,2.01,1.57,-6.45,-6.45,-6.46
255.45,-8.42,-1.96,-8.42,-1.96,1.96,2.00,1.59,-6.46,-6.46,-6.46
258.00,-8.43,-1.98,-8.43,-1.98,1.97,1.98,1.61,-6.46,-6.46,-6.45
260.58,-8.43,-1.98,-8.43,-1.98,1.97,1.96,1.64,-6.46,-6.46,-6.45
263.19,-8.42,-1.98,-8.42,-1.98,1.97,1.93,1.67,-6.44,-6.44,-6.44
265.82,-8.40,-1.97,-8.40,-1.98,1.97,1.91,1.70,-6.42,-6.43,-6.43
268.48,-8.38,-1.97,-8.38,-1.97,1.97,1.90,1.73,-6.41,-6.41,-6.41
271.16,-8.36,-1.97,-8.35,-1.96,1.96,1.88,1.77,-6.40,-6.39,-6.39
273.87,-8.32,-1.94,-8.32,-1.95,1.95,1.86,1.80,-6.37,-6.38,-6.38
276.61,-8.29,-1.94,-8.29,-1.94,1.93,1.85,1.84,-6.36,-6.36,-6.35
279.38,-8.27,-1.92,-8.26,-1.92,1.92,1.84,1.88,-6.35,-6.35,-6.35
282.17,-8.23,-1.90,-8.23,-1.90,1.90,1.84,1.92,-6.33,-6.33,-6.33
284.99,-8.20,-1.88,-8.20,-1.88,1.88,1.84,1.97,-6.32,-6.32,-6.32
287.84,-8.16,-1.86,-8.16,-1.86,1.87,1.84,2.01,-6.29,-6.30,-6.30
290.72,-8.13,-1.85,-8.13,-1.85,1.85,1.84,2.06,-6.28,-6.28,-6.28
293.63,-8.10,-1.83,-8.10,-1.84,1.84,1.85,2.11,-6.26,-6.26,-6.27
296.57,-8.08,-1.84,-8.08,-1.84,1.83,1.85,2.16,-6.25,-6.25,-6.24
299.53,-8.07,-1.84,-8.06,-1.83,1.84,1.87,2.22,-6.23,-6.23,-6.23
302.53,-8.05,-1.83,-8.05,-1.84,1.85,1.88,2.27,-6.20,-6.20,-6.22
305.55,-8.04,-1.85,-8.04,-1.85,1.86,1.90,2.33,-6.18,-6.18,-6.19
308.61,-8.04,-1.87,-8.04,-1.88,1.89,1.92,2.39,-6.15,-6.15,-6.17
311.69,-8.05,-1.91,-8.05,-1.91,1.91,1.94,2.45,-6.14,-6.13,-6.14
314.81,-8.06,-1.96,-8.06,-1.95,1.95,1.97,2.52,-6.11,-6.11,-6.10
317.96,-8.08,-1.99,-8.08,-1.99,1.98,1.99,2.58,-6.10,-6.10,-6.09
321.14,-8.10,-2.03,-8.10,-2.04,2.03,2.03,2.65,-6.07,-6.08,-6.07
324.35,-8.13,-2.08,-8.12,-2.07,2.07,2.06,2.73,-6.06,-6.05,-6.05
327.59,-8.15,-2.12,-8.14,-2.12,2.12,2.10,2.80,-6.03,-6.03,-6.03
330.87,-8.16,-2.15,-8.17,-2.16,2.17,2.13,2.88,-5.99,-6.00,-6.01
334.18,-8.20,-2.22,-8.20,-2.22,2.22,2.18,2.96,-5.98,-5.97,-5.98
337.52,-8.24,-2.28,-8.24,-2.28,2.28,2.22,3.04,-5.96,-5.95,-5.96
340.90,-8.28,-2.34,-8.28,-2.35,2.35,2.27,3.12,-5.93,-5.93,-5.94
344.30,-8.33,-2.42,-8.32,-2.41,2.42,2.32,3.21,-5.91,-5.91,-5.91
347.75,-8.37,-2.48,-8.37,-2.49,2.49,2.37,3.30,-5.88,-5.88,-5.89
351.23,-8.42,-2.56,-8.42,-2.57,2.57,2.43,3.39,-5.85,-5.86,-5.86
354.74,-8.48,-2.65,-8.48,-2.65,2.64,2.49,3.48,-5.84,-5.84,-5.83
358.28,-8.55,-2.73,-8.54,-2.73,2.72,2.55,3.58,-5.83,-5.82,-5.82
361.87,-8.60,-2.81,-8.60,-2.81,2.80,2.62,3.68,-5.80,-5.80,-5.79
365.49,-8.65,-2.89,-8.65,-2.88,2.88,2.69,3.78,-5.77,-5.77,-5.76
369.14,-8.70,-2.95,-8.70,-2.96,2.96,2.76,3.89,-5.74,-5.73,-5.75
372.83,-8.75,-3.03,-8.76,-3.04,3.05,2.84,3.99,-5.70,-5.71,-5.72
376.56,-8.82,-3.12,-8.82,-3.12,3.13,2.92,4.10,-5.69,-5.69,-5.70
380.33,-8.89,-3.22,-8.88,-3.21,3.21,3.00,4.21,-5.68,-5.67,-5.67
384.13,-8.95,-3.29,-8.95,-3.30,3.29,3.09,4.33,-5.66,-5.66,-5.66
387.97,-9.02,-3.38,-9.02,-3.38,3.38,3.18,4.44,-5.64,-5.64,-5.64
391.85,-9.09,-3.46,-9.08,-3.46,3.46,3.28,4.56,-5.63,-5.63,-5.63
395.77,-9.15,-3.55,-9.15,-3.54,3.54,3.38,4.68,-5.61,-5.60,-5.60
399.73,-9.21,-3.62,-9.21,-3.62,3.63,3.48,4.80,-5.58,-5.59,-5.59
403.72,-9.28,-3.69,-9.29,-3.70,3.71,3.59,4.92,-5.57,-5.58,-5.59
