frequency,raw,error,smoothed,error_smoothed,equalization,parametric_eq,fixed_band_eq,equalized_raw,equalized_smoothed,target
20.00,5.33,1.48,5.36,1.48,-1.48,-0.74,-0.72,3.84,3.88,3.85
20.20,5.37,1.47,5.39,1.48,-1.48,-0.76,-0.74,3.89,3.92,3.90
20.40,5.42,1.47,5.42,1.47,-1.47,-0.77,-0.77,3.95,3.95,3.95
20.61,5.46,1.48,5.45,1.46,-1.46,-0.78,-0.79,4.00,3.99,3.98
20.81,5.50,1.47,5.47,1.46,-1.46,-0.79,-0.82,4.04,4.02,4.03
21.02,5.54,1.47,5.50,1.45,-1.45,-0.81,-0.84,4.08,4.04,4.07
21.23,5.55,1.46,5.52,1.45,-1.45,-0.82,-0.87,4.10,4.07,4.09
21.44,5.57,1.46,5.54,1.45,-1.45,-0.83,-0.90,4.12,4.09,4.11
21.66,5.58,1.45,5.56,1.45,-1.45,-0.84,-0.93,4.13,4.11,4.13
21.87,5.59,1.45,5.58,1.45,-1.45,-0.86,-0.96,4.14,4.13,4.14
22.09,5.60,1.44,5.60,1.45,-1.45,-0.87,-0.99,4.14,4.15,4.16
22.31,5.61,1.44,5.62,1.46,-1.46,-0.89,-1.02,4.15,4.16,4.17
22.54,5.62,1.45,5.63,1.47,-1.47,-0.90,-1.05,4.15,4.17,4.17
22.76,5.62,1.45,5.65,1.48,-1.48,-0.91,-1.08,4.14,4.17,4.17
22.99,5.63,1.47,5.67,1.49,-1.49,-0.93,-1.11,4.13,4.17,4.16
23.22,5.65,1.49,5.68,1.51,-1.51,-0.94,-1.15,4.14,4.17,4.16
23.45,5.68,1.52,5.69,1.52,-1.52,-0.96,-1.18,4.16,4.17,4.16
23.69,5.70,1.53,5.69,1.52,-1.52,-0.97,-1.22,4.18,4.17,4.17
23.92,5.72,1.55,5.68,1.51,-1.51,-0.99,-1.26,4.21,4.17,4.17
24.16,5.73,1.56,5.67,1.50,-1.50,-1.00,-1.29,4.23,4.17,4.17
24.40,5.73,1.55,5.66,1.49,-1.49,-1.01,-1.33,4.24,4.17,4.18
24.65,5.73,1.56,5.65,1.48,-1.48,-1.03,-1.37,4.25,4.17,4.17
24.89,5.73,1.56,5.65,1.48,-1.48,-1.05,-1.41,4.25,4.17,4.17
25.14,5.69,1.52,5.65,1.48,-1.48,-1.06,-1.45,4.21,4.17,4.17
25.39,5.62,1.44,5.66,1.48,-1.48,-1.08,-1.49,4.14,4.17,4.18
25.65,5.55,1.37,5.66,1.49,-1.49,-1.09,-1.53,4.06,4.18,4.18
25.91,5.48,1.31,5.67,1.50,-1.50,-1.11,-1.57,3.98,4.17,4.17
26.16,5.51,1.34,5.68,1.51,-1.51,-1.12,-1.61,4.00,4.17,4.17
26.43,5.61,1.44,5.68,1.51,-1.51,-1.14,-1.65,4.10,4.17,4.17
26.69,5.71,1.54,5.68,1.51,-1.51,-1.16,-1.69,4.20,4.17,4.17
26.96,5.81,1.64,5.68,1.51,-1.51,-1.17,-1.73,4.30,4.17,4.17
27.23,5.83,1.66,5.68,1.52,-1.52,-1.19,-1.77,4.31,4.17,4.17
27.50,5.83,1.66,5.69,1.53,-1.53,-1.20,-1.81,4.30,4.17,4.17
27.77,5.83,1.67,5.71,1.55,-1.55,-1.22,-1.84,4.28,4.16,4.16
28.05,5.82,1.66,5.74,1.57,-1.57,-1.24,-1.88,4.24,4.16,4.16
28.33,5.74,1.59,5.76,1.60,-1.60,-1.26,-1.91,4.14,4.16,4.15
28.62,5.67,1.52,5.78,1.62,-1.62,-1.27,-1.95,4.05,4.16,4.15
28.90,5.60,1.44,5.80,1.64,-1.64,-1.29,-1.98,3.96,4.16,4.16
29.19,5.64,1.49,5.81,1.65,-1.65,-1.31,-2.01,3.99,4.16,4.15
29.48,5.75,1.59,5.81,1.66,-1.66,-1.32,-2.03,4.09,4.15,4.16
29.78,5.85,1.70,5.82,1.67,-1.67,-1.34,-2.06,4.18,4.15,4.15
30.08,5.93,1.77,5.83,1.67,-1.67,-1.36,-2.08,4.25,4.15,4.16
30.38,5.93,1.78,5.84,1.69,-1.69,-1.38,-2.10,4.24,4.15,4.15
30.68,5.93,1.78,5.85,1.70,-1.70,-1.39,-2.12,4.22,4.15,4.15
30.99,5.93,1.78,5.87,1.72,-1.72,-1.41,-2.13,4.20,4.15,4.15
31.30,5.93,1.79,5.89,1.75,-1.75,-1.43,-2.14,4.18,4.14,4.14
31.61,5.93,1.79,5.92,1.78,-1.78,-1.45,-2.15,4.15,4.14,4.14
31.93,5.93,1.79,5.94,1.80,-1.80,-1.46,-2.16,4.13,4.14,4.14
32.24,5.92,1.79,5.95,1.82,-1.82,-1.48,-2.16,4.10,4.13,4.13
32.57,5.90,1.77,5.96,1.82,-1.82,-1.50,-2.16,4.07,4.13,4.13
32.89,5.88,1.75,5.95,1.83,-1.83,-1.52,-2.16,4.05,4.13,4.13
33.22,5.91,1.79,5.96,1.84,-1.84,-1.54,-2.16,4.07,4.12,4.12
33.55,5.96,1.84,5.97,1.85,-1.85,-1.55,-2.16,4.11,4.12,4.12
33.89,6.01,1.90,5.98,1.87,-1.87,-1.57,-2.15,4.14,4.11,4.11
34.23,6.03,1.92,5.99,1.89,-1.89,-1.59,-2.14,4.14,4.11,4.11
34.57,6.03,1.93,6.00,1.90,-1.90,-1.61,-2.13,4.13,4.10,4.10
34.92,6.03,1.93,6.01,1.91,-1.91,-1.63,-2.11,4.11,4.10,4.10
35.27,6.03,1.94,6.02,1.92,-1.92,-1.64,-2.10,4.10,4.10,4.09
35.62,6.03,1.94,6.02,1.93,-1.93,-1.66,-2.09,4.10,4.09,4.09
35.97,6.03,1.94,6.02,1.93,-1.93,-1.68,-2.07,4.10,4.09,4.09
36.33,6.04,1.95,6.02,1.93,-1.93,-1.70,-2.05,4.11,4.09,4.09
36.70,6.04,1.96,6.01,1.93,-1.93,-1.72,-2.04,4.11,4.09,4.08
37.06,6.04,1.96,6.00,1.91,-1.91,-1.73,-2.02,4.13,4.09,4.08
37.43,6.00,1.91,5.98,1.89,-1.89,-1.75,-2.00,4.11,4.09,4.09
37.81,5.95,1.86,5.96,1.87,-1.87,-1.77,-1.98,4.07,4.09,4.09
38.19,5.93,1.85,5.96,1.87,-1.87,-1.79,-1.97,4.06,4.09,4.08
38.57,5.93,1.84,5.96,1.87,-1.87,-1.80,-1.95,4.05,4.09,4.09
38.95,5.93,1.83,5.97,1.88,-1.88,-1.82,-1.93,4.05,4.09,4.10
39.34,5.93,1.84,5.97,1.87,-1.87,-1.84,-1.92,4.05,4.09,4.09
39.74,5.93,1.84,5.96,1.87,-1.87,-1.85,-1.90,4.06,4.09,4.09
40.14,5.93,1.84,5.96,1.87,-1.87,-1.87,-1.89,4.06,4.09,4.09
40.54,5.93,1.84,5.95,1.86,-1.86,-1.89,-1.88,4.06,4.09,4.09
40.94,5.93,1.85,5.95,1.86,-1.86,-1.90,-1.86,4.07,4.08,4.08
41.35,6.00,1.92,5.94,1.86,-1.86,-1.92,-1.85,4.14,4.08,4.08
41.76,6.09,2.02,5.94,1.86,-1.86,-1.93,-1.84,4.22,4.07,4.07
42.18,6.08,2.01,5.93,1.87,-1.87,-1.95,-1.83,4.21,4.06,4.07
42.60,5.95,1.89,5.92,1.86,-1.86,-1.96,-1.83,4.08,4.05,4.06
43.03,5.83,1.78,5.91,1.86,-1.86,-1.98,-1.82,3.96,4.04,4.05
43.46,5.83,1.79,5.90,1.87,-1.87,-1.99,-1.82,3.96,4.03,4.04
43.90,5.83,1.81,5.89,1.87,-1.87,-2.00,-1.81,3.96,4.02,4.02
44.33,5.83,1.83,5.88,1.87,-1.87,-2.02,-1.81,3.95,4.01,4.00
44.78,5.83,1.85,5.87,1.87,-1.87,-2.03,-1.81,3.96,3.99,3.98
45.23,5.83,1.86,5.85,1.87,-1.87,-2.04,-1.81,3.96,3.98,3.97
45.68,5.83,1.87,5.83,1.87,-1.87,-2.05,-1.81,3.96,3.97,3.96
46.13,5.83,1.89,5.81,1.86,-1.86,-2.06,-1.81,3.97,3.95,3.94
46.60,5.84,1.90,5.80,1.86,-1.86,-2.07,-1.82,3.98,3.94,3.94
47.06,5.85,1.93,5.80,1.87,-1.87,-2.08,-1.83,3.97,3.92,3.92
47.53,5.86,1.95,5.81,1.90,-1.90,-2.08,-1.83,3.96,3.91,3.91
48.01,5.86,1.95,5.81,1.92,-1.92,-2.09,-1.84,3.94,3.89,3.91
48.49,5.80,1.91,5.80,1.92,-1.92,-2.09,-1.85,3.87,3.88,3.89
48.97,5.73,1.86,5.79,1.93,-1.93,-2.09,-1.86,3.80,3.87,3.87
49.46,5.73,1.88,5.78,1.93,-1.93,-2.10,-1.87,3.80,3.85,3.85
49.96,5.73,1.90,5.77,1.93,-1.93,-2.10,-1.89,3.80,3.84,3.83
50.46,5.73,1.91,5.75,1.93,-1.93,-2.09,-1.90,3.80,3.83,3.82
50.96,5.73,1.92,5.74,1.93,-1.93,-2.09,-1.92,3.80,3.81,3.81
51.47,5.79,2.00,5.74,1.94,-1.94,-2.09,-1.93,3.85,3.80,3.79
51.99,5.86,2.08,5.73,1.95,-1.95,-2.08,-1.95,3.91,3.79,3.78
52.51,5.74,1.97,5.72,1.94,-1.94,-2.07,-1.97,3.79,3.77,3.77
53.03,5.63,1.86,5.70,1.94,-1.94,-2.05,-1.98,3.69,3.76,3.77
53.56,5.63,1.88,5.68,1.93,-1.93,-2.04,-2.00,3.69,3.75,3.75
54.10,5.63,1.89,5.67,1.93,-1.93,-2.02,-2.02,3.70,3.74,3.74
54.64,5.64,1.92,5.65,1.92,-1.92,-2.00,-2.04,3.72,3.73,3.72
55.18,5.66,1.94,5.61,1.89,-1.89,-1.98,-2.06,3.76,3.72,3.72
55.74,5.69,1.99,5.58,1.87,-1.87,-1.95,-2.08,3.82,3.71,3.70
56.29,5.65,1.96,5.55,1.86,-1.86,-1.93,-2.10,3.79,3.69,3.69
56.86,5.55,1.87,5.53,1.85,-1.85,-1.90,-2.11,3.70,3.68,3.68
57.42,5.44,1.79,5.50,1.84,-1.84,-1.87,-2.13,3.60,3.66,3.65
58.00,5.32,1.68,5.47,1.83,-1.83,-1.84,-2.15,3.49,3.64,3.64
58.58,5.40,1.77,5.45,1.83,-1.83,-1.80,-2.16,3.57,3.62,3.63
59.16,5.43,1.82,5.42,1.83,-1.83,-1.78,-2.18,3.60,3.60,3.61
59.76,5.36,1.77,5.39,1.82,-1.82,-1.75,-2.20,3.54,3.57,3.59
60.35,5.33,1.78,5.35,1.81,-1.81,-1.73,-2.21,3.52,3.54,3.55
60.96,5.33,1.82,5.31,1.80,-1.80,-1.72,-2.22,3.53,3.51,3.51
61.57,5.39,1.92,5.28,1.81,-1.81,-1.71,-2.23,3.58,3.47,3.47
62.18,5.40,1.97,5.25,1.82,-1.82,-1.71,-2.25,3.58,3.43,3.43
62.80,5.25,1.87,5.23,1.84,-1.84,-1.72,-2.26,3.41,3.39,3.38
63.43,5.16,1.82,5.20,1.86,-1.86,-1.74,-2.26,3.30,3.35,3.34
64.07,5.10,1.81,5.18,1.88,-1.88,-1.77,-2.27,3.22,3.30,3.29
64.71,5.12,1.87,5.15,1.89,-1.89,-1.81,-2.28,3.22,3.26,3.25
65.35,5.09,1.88,5.11,1.90,-1.90,-1.86,-2.28,3.18,3.21,3.21
66.01,5.03,1.87,5.08,1.92,-1.92,-1.91,-2.29,3.11,3.16,3.16
66.67,5.03,1.92,5.05,1.94,-1.94,-1.97,-2.29,3.09,3.11,3.11
67.33,5.06,2.00,5.03,1.96,-1.96,-2.02,-2.30,3.10,3.07,3.06
68.01,5.13,2.11,5.00,1.99,-1.99,-2.08,-2.30,3.14,3.02,3.02
68.69,4.99,2.02,4.98,2.01,-2.01,-2.14,-2.30,2.98,2.97,2.97
69.37,4.93,2.01,4.96,2.04,-2.04,-2.20,-2.31,2.89,2.92,2.92
70.07,4.93,2.06,4.95,2.08,-2.08,-2.26,-2.31,2.85,2.87,2.87
70.77,4.93,2.11,4.94,2.13,-2.13,-2.32,-2.31,2.80,2.81,2.82
71.48,4.93,2.16,4.93,2.17,-2.17,-2.37,-2.31,2.76,2.76,2.77
72.19,4.93,2.23,4.92,2.22,-2.22,-2.43,-2.32,2.71,2.70,2.70
72.91,4.93,2.29,4.92,2.28,-2.28,-2.47,-2.32,2.65,2.64,2.64
73.64,4.93,2.34,4.93,2.34,-2.34,-2.52,-2.32,2.59,2.59,2.59
74.38,4.91,2.38,4.94,2.40,-2.40,-2.56,-2.33,2.51,2.53,2.53
75.12,4.88,2.41,4.94,2.46,-2.46,-2.61,-2.33,2.41,2.48,2.47
75.87,4.85,2.44,4.95,2.53,-2.53,-2.64,-2.34,2.32,2.42,2.41
76.63,4.96,2.60,4.96,2.59,-2.59,-2.68,-2.35,2.36,2.37,2.36
77.40,5.03,2.72,4.97,2.66,-2.66,-2.71,-2.36,2.37,2.31,2.31
78.17,5.03,2.78,4.98,2.72,-2.72,-2.75,-2.37,2.31,2.26,2.25
78.95,5.03,2.82,4.98,2.77,-2.77,-2.78,-2.38,2.25,2.21,2.21
79.74,5.07,2.91,4.99,2.83,-2.83,-2.80,-2.39,2.24,2.16,2.16
80.54,5.04,2.93,4.99,2.88,-2.88,-2.83,-2.41,2.16,2.11,2.11
81.35,4.97,2.91,4.99,2.93,-2.93,-2.86,-2.43,2.04,2.06,2.06
82.16,4.93,2.92,4.98,2.97,-2.97,-2.88,-2.44,1.96,2.01,2.01
82.98,4.93,2.96,4.97,3.01,-3.01,-2.90,-2.46,1.92,1.97,1.97
83.81,4.93,3.01,4.96,3.04,-3.04,-2.92,-2.49,1.89,1.92,1.92
84.65,4.93,3.06,4.94,3.07,-3.07,-2.94,-2.51,1.86,1.87,1.87
85.50,4.95,3.12,4.91,3.08,-3.08,-2.96,-2.54,1.86,1.82,1.83
86.35,4.95,3.17,4.88,3.11,-3.11,-2.98,-2.57,1.84,1.77,1.78
87.22,4.88,3.15,4.86,3.13,-3.13,-2.99,-2.60,1.75,1.72,1.73
88.09,4.83,3.15,4.83,3.16,-3.16,-3.01,-2.63,1.67,1.67,1.68
88.97,4.81,3.19,4.81,3.19,-3.19,-3.02,-2.66,1.62,1.62,1.62
89.86,4.71,3.14,4.79,3.22,-3.22,-3.03,-2.70,1.49,1.57,1.57
90.76,4.73,3.21,4.77,3.25,-3.25,-3.05,-2.74,1.48,1.52,1.52
91.66,4.76,3.29,4.74,3.27,-3.27,-3.06,-2.78,1.49,1.47,1.47
92.58,4.71,3.30,4.71,3.29,-3.29,-3.07,-2.82,1.42,1.42,1.41
93.51,4.64,3.28,4.67,3.30,-3.30,-3.08,-2.86,1.34,1.37,1.36
94.44,4.64,3.32,4.63,3.31,-3.31,-3.09,-2.91,1.33,1.32,1.32
95.39,4.65,3.38,4.59,3.32,-3.32,-3.10,-2.96,1.33,1.27,1.27
96.34,4.61,3.39,4.56,3.34,-3.34,-3.10,-3.01,1.27,1.22,1.22
97.30,4.53,3.36,4.52,3.35,-3.35,-3.11,-3.06,1.18,1.17,1.17
98.28,4.51,3.39,4.49,3.36,-3.36,-3.12,-3.11,1.15,1.12,1.12
99.26,4.45,3.37,4.44,3.37,-3.37,-3.12,-3.16,1.08,1.08,1.08
100.25,4.37,3.34,4.40,3.37,-3.37,-3.13,-3.22,1.00,1.03,1.03
101.25,4.29,3.31,4.35,3.36,-3.36,-3.14,-3.27,0.92,0.98,0.98
102.27,4.25,3.32,4.29,3.36,-3.36,-3.14,-3.33,0.89,0.93,0.93
103.29,4.24,3.36,4.24,3.35,-3.35,-3.14,-3.39,0.89,0.88,0.88
104.32,4.22,3.38,4.18,3.35,-3.35,-3.15,-3.44,0.87,0.83,0.84
105.37,4.18,3.39,4.13,3.34,-3.34,-3.15,-3.50,0.84,0.78,0.79
106.42,4.11,3.37,4.07,3.33,-3.33,-3.15,-3.55,0.77,0.73,0.74
107.48,4.02,3.34,4.01,3.33,-3.33,-3.16,-3.61,0.69,0.68,0.68
108.56,3.94,3.31,3.95,3.33,-3.33,-3.16,-3.66,0.61,0.63,0.63
109.64,3.90,3.32,3.90,3.32,-3.32,-3.16,-3.71,0.57,0.58,0.58
110.74,3.82,3.30,3.85,3.33,-3.33,-3.16,-3.76,0.49,0.52,0.52
111.85,3.77,3.29,3.80,3.33,-3.33,-3.16,-3.81,0.44,0.47,0.48
112.97,3.75,3.33,3.76,3.34,-3.34,-3.16,-3.85,0.41,0.42,0.42
114.10,3.74,3.37,3.72,3.35,-3.35,-3.16,-3.89,0.39,0.37,0.37
115.24,3.67,3.35,3.67,3.35,-3.35,-3.16,-3.93,0.32,0.33,0.32
116.39,3.60,3.33,3.63,3.35,-3.35,-3.16,-3.96,0.25,0.28,0.27
117.55,3.55,3.32,3.60,3.36,-3.36,-3.16,-3.99,0.19,0.24,0.23
118.73,3.55,3.36,3.57,3.37,-3.37,-3.15,-4.02,0.18,0.20,0.19
119.92,3.56,3.40,3.54,3.37,-3.37,-3.15,-4.03,0.18,0.16,0.16
121.12,3.56,3.44,3.51,3.38,-3.38,-3.15,-4.05,0.18,0.13,0.12
122.33,3.51,3.42,3.47,3.38,-3.38,-3.15,-4.05,0.13,0.09,0.09
123.55,3.48,3.42,3.44,3.38,-3.38,-3.14,-4.06,0.10,0.06,0.06
124.79,3.42,3.39,3.40,3.37,-3.37,-3.14,-4.05,0.04,0.03,0.03
126.03,3.31,3.31,3.36,3.36,-3.36,-3.13,-4.04,-0.06,-0.00,0.00
127.29,3.30,3.32,3.32,3.35,-3.35,-3.13,-4.02,-0.05,-0.03,-0.02
128.57,3.29,3.35,3.28,3.34,-3.34,-3.12,-4.00,-0.05,-0.06,-0.06
129.85,3.23,3.32,3.23,3.32,-3.32,-3.12,-3.97,-0.09,-0.09,-0.09
131.15,3.20,3.32,3.18,3.30,-3.30,-3.11,-3.94,-0.10,-0.12,-0.12
132.46,3.14,3.29,3.12,3.27,-3.27,-3.10,-3.90,-0.13,-0.15,-0.15
133.79,3.06,3.24,3.07,3.24,-3.24,-3.10,-3.85,-0.19,-0.18,-0.18
135.12,3.02,3.23,3.01,3.21,-3.21,-3.09,-3.80,-0.20,-0.20,-0.21
136.48,2.96,3.19,2.95,3.18,-3.18,-3.08,-3.75,-0.23,-0.23,-0.23
137.84,2.89,3.16,2.89,3.15,-3.15,-3.08,-3.69,-0.27,-0.26,-0.27
139.22,2.83,3.13,2.84,3.12,-3.12,-3.07,-3.63,-0.30,-0.29,-0.30
140.61,2.76,3.09,2.78,3.09,-3.09,-3.06,-3.56,-0.33,-0.32,-0.33
142.02,2.74,3.09,2.71,3.06,-3.06,-3.05,-3.49,-0.32,-0.35,-0.35
143.44,2.67,3.05,2.64,3.02,-3.02,-3.04,-3.42,-0.35,-0.38,-0.38
144.87,2.58,3.00,2.57,2.99,-2.99,-3.03,-3.35,-0.42,-0.42,-0.42
146.32,2.54,3.00,2.51,2.98,-2.98,-3.02,-3.28,-0.44,-0.47,-0.46
147.78,2.45,2.94,2.45,2.97,-2.97,-3.01,-3.20,-0.52,-0.52,-0.49
149.26,2.37,2.91,2.41,2.98,-2.98,-2.99,-3.12,-0.61,-0.57,-0.54
150.75,2.34,2.94,2.36,2.99,-2.99,-2.98,-3.05,-0.65,-0.63,-0.60
152.26,2.28,2.95,2.32,3.01,-3.01,-2.97,-2.97,-0.74,-0.69,-0.67
153.78,2.23,2.97,2.28,3.04,-3.04,-2.96,-2.89,-0.81,-0.75,-0.74
155.32,2.17,2.98,2.24,3.06,-3.06,-2.94,-2.81,-0.89,-0.82,-0.81
156.88,2.14,3.03,2.19,3.08,-3.08,-2.93,-2.74,-0.95,-0.89,-0.89
158.44,2.14,3.11,2.14,3.11,-3.11,-2.91,-2.66,-0.97,-0.96,-0.97
160.03,2.14,3.19,2.10,3.13,-3.13,-2.90,-2.58,-0.99,-1.03,-1.05
161.63,2.14,3.26,2.04,3.14,-3.14,-2.88,-2.51,-1.00,-1.10,-1.12
163.24,2.10,3.28,1.98,3.14,-3.14,-2.86,-2.43,-1.04,-1.16,-1.18
164.88,2.00,3.23,1.92,3.13,-3.13,-2.85,-2.36,-1.13,-1.21,-1.23
166.53,1.88,3.16,1.84,3.10,-3.10,-2.83,-2.28,-1.22,-1.26,-1.28
168.19,1.74,3.06,1.75,3.05,-3.05,-2.81,-2.21,-1.32,-1.30,-1.32
169.87,1.62,2.98,1.66,2.99,-2.99,-2.79,-2.14,-1.38,-1.34,-1.36
171.57,1.55,2.93,1.56,2.92,-2.92,-2.77,-2.07,-1.37,-1.36,-1.38
173.29,1.48,2.87,1.46,2.84,-2.84,-2.75,-2.01,-1.36,-1.38,-1.39
175.02,1.36,2.76,1.35,2.74,-2.74,-2.72,-1.94,-1.38,-1.39,-1.40
176.77,1.21,2.62,1.23,2.64,-2.64,-2.70,-1.88,-1.43,-1.40,-1.41
178.54,1.11,2.53,1.12,2.54,-2.54,-2.68,-1.81,-1.43,-1.41,-1.42
180.32,1.02,2.43,1.02,2.44,-2.44,-2.65,-1.75,-1.42,-1.42,-1.41
182.13,0.92,2.32,0.93,2.36,-2.36,-2.62,-1.69,-1.44,-1.42,-1.40
183.95,0.80,2.21,0.85,2.28,-2.28,-2.59,-1.63,-1.48,-1.43,-1.41
185.79,0.76,2.17,0.78,2.21,-2.21,-2.57,-1.57,-1.45,-1.43,-1.41
187.65,0.69,2.12,0.71,2.15,-2.15,-2.53,-1.52,-1.46,-1.44,-1.43
189.52,0.65,2.09,0.64,2.09,-2.09,-2.50,-1.46,-1.45,-1.45,-1.44
191.42,0.59,2.05,0.59,2.05,-2.05,-2.47,-1.41,-1.47,-1.47,-1.46
193.33,0.50,1.98,0.54,2.02,-2.02,-2.43,-1.36,-1.53,-1.48,-1.48
195.27,0.48,1.98,0.50,2.00,-2.00,-2.40,-1.31,-1.52,-1.50,-1.50
197.22,0.50,2.02,0.47,1.98,-1.98,-2.36,-1.26,-1.48,-1.52,-1.52
199.19,0.47,2.01,0.43,1.96,-1.96,-2.32,-1.21,-1.50,-1.53,-1.54
201.18,0.42,1.98,0.39,1.95,-1.95,-2.28,-1.16,-1.53,-1.56,-1.56
203.19,0.35,1.93,0.36,1.94,-1.94,-2.23,-1.12,-1.59,-1.58,-1.58
205.23,0.32,1.92,0.34,1.94,-1.94,-2.19,-1.07,-1.62,-1.60,-1.60
207.28,0.32,1.93,0.31,1.93,-1.93,-2.14,-1.03,-1.61,-1.62,-1.61
209.35,0.32,1.95,0.28,1.91,-1.91,-2.09,-0.99,-1.60,-1.64,-1.63
211.44,0.31,1.97,0.25,1.90,-1.90,-2.03,-0.95,-1.60,-1.65,-1.66
213.56,0.19,1.86,0.22,1.89,-1.89,-1.98,-0.91,-1.71,-1.67,-1.67
215.69,0.12,1.80,0.20,1.88,-1.88,-1.92,-0.88,-1.76,-1.68,-1.68
217.85,0.11,1.80,0.16,1.86,-1.86,-1.86,-0.84,-1.75,-1.69,-1.69
220.03,0.10,1.80,0.12,1.83,-1.83,-1.79,-0.81,-1.73,-1.70,-1.70
222.23,0.10,1.83,0.08,1.79,-1.79,-1.73,-0.77,-1.69,-1.71,-1.73
224.45,0.10,1.82,0.03,1.74,-1.74,-1.66,-0.74,-1.64,-1.71,-1.72
226.70,0.02,1.74,-0.03,1.68,-1.68,-1.59,-0.71,-1.67,-1.71,-1.72
228.96,-0.10,1.61,-0.09,1.62,-1.62,-1.51,-0.68,-1.72,-1.71,-1.71
231.25,-0.09,1.61,-0.16,1.54,-1.54,-1.43,-0.66,-1.64,-1.70,-1.70
233.57,-0.14,1.55,-0.22,1.46,-1.46,-1.35,-0.63,-1.60,-1.69,-1.69
235.90,-0.26,1.42,-0.29,1.38,-1.38,-1.27,-0.61,-1.64,-1.67,-1.68
238.26,-0.38,1.29,-0.36,1.29,-1.29,-1.18,-0.59,-1.67,-1.66,-1.67
240.64,-0.51,1.13,-0.45,1.19,-1.19,-1.09,-0.57,-1.70,-1.64,-1.64
243.05,-0.57,1.04,-0.54,1.08,-1.08,-0.99,-0.55,-1.65,-1.62,-1.61
245.48,-0.69,0.90,-0.63,0.96,-0.96,-0.90,-0.53,-1.66,-1.59,-1.59
247.93,-0.75,0.81,-0.72,0.85,-0.85,-0.80,-0.51,-1.60,-1.57,-1.56
250.41,-0.78,0.76,-0.81,0.74,-0.74,-0.70,-0.50,-1.52,-1.55,-1.54
252.92,-0.85,0.66,-0.89,0.63,-0.63,-0.59,-0.49,-1.48,-1.52,-1.51
255.45,-0.96,0.53,-0.97,0.53,-0.53,-0.49,-0.48,-1.49,-1.50,-1.49
258.00,-1.03,0.44,-1.05,0.42,-0.42,-0.38,-0.47,-1.45,-1.47,-1.47
260.58,-1.12,0.33,-1.12,0.32,-0.32,-0.27,-0.46,-1.45,-1.45,-1.45
263.19,-1.22,0.20,-1.20,0.23,-0.23,-0.16,-0.46,-1.45,-1.42,-1.42
265.82,-1.33,0.07,-1.27,0.13,-0.13,-0.06,-0.45,-1.46,-1.40,-1.40
268.48,-1.32,0.06,-1.34,0.03,-0.03,0.05,-0.45,-1.35,-1.37,-1.38
271.16,-1.36,-0.01,-1.42,-0.07,0.07,0.15,-0.45,-1.29,-1.35,-1.35
273.87,-1.51,-0.18,-1.49,-0.16,0.16,0.26,-0.45,-1.35,-1.32,-1.33
276.61,-1.53,-0.23,-1.56,-0.26,0.26,0.35,-0.45,-1.27,-1.30,-1.30
279.38,-1.55,-0.28,-1.63,-0.36,0.36,0.45,-0.45,-1.19,-1.27,-1.27
282.17,-1.67,-0.42,-1.70,-0.46,0.46,0.53,-0.46,-1.22,-1.24,-1.25
284.99,-1.76,-0.55,-1.76,-0.55,0.55,0.61,-0.46,-1.22,-1.21,-1.21
287.84,-1.82,-0.63,-1.82,-0.63,0.63,0.68,-0.47,-1.19,-1.19,-1.19
290.72,-1.90,-0.74,-1.86,-0.70,0.70,0.74,-0.48,-1.20,-1.16,-1.16
293.63,-1.90,-0.77,-1.89,-0.76,0.76,0.79,-0.48,-1.14,-1.13,-1.13
296.57,-1.88,-0.78,-1.91,-0.81,0.81,0.83,-0.49,-1.07,-1.10,-1.10
299.53,-1.95,-0.88,-1.92,-0.85,0.85,0.86,-0.50,-1.10,-1.07,-1.07
302.53,-1.96,-0.91,-1.91,-0.86,0.86,0.88,-0.51,-1.10,-1.04,-1.05
305.55,-1.95,-0.94,-1.88,-0.86,0.86,0.88,-0.52,-1.09,-1.02,-1.01
308.61,-1.92,-0.93,-1.85,-0.85,0.85,0.87,-0.54,-1.07,-0.99,-0.99
311.69,-1.88,-0.92,-1.80,-0.83,0.83,0.85,-0.55,-1.05,-0.97,-0.96
314.81,-1.75,-0.81,-1.74,-0.80,0.80,0.82,-0.56,-0.96,-0.95,-0.94
317.96,-1.63,-0.71,-1.68,-0.75,0.75,0.78,-0.58,-0.88,-0.93,-0.92
321.14,-1.55,-0.64,-1.61,-0.71,0.71,0.73,-0.59,-0.85,-0.91,-0.91
324.35,-1.49,-0.60,-1.54,-0.65,0.65,0.67,-0.61,-0.84,-0.89,-0.89
327.59,-1.38,-0.50,-1.47,-0.59,0.59,0.60,-0.63,-0.79,-0.88,-0.88
330.87,-1.31,-0.44,-1.39,-0.53,0.53,0.52,-0.64,-0.78,-0.86,-0.87
334.18,-1.26,-0.41,-1.31,-0.46,0.46,0.44,-0.66,-0.81,-0.85,-0.85
337.52,-1.22,-0.38,-1.22,-0.38,0.38,0.36,-0.68,-0.84,-0.84,-0.84
340.90,-1.20,-0.37,-1.14,-0.31,0.31,0.27,-0.70,-0.90,-0.83,-0.83
344.30,-1.11,-0.29,-1.07,-0.24,0.24,0.18,-0.72,-0.87,-0.83,-0.82
347.75,-1.05,-0.23,-1.00,-0.18,0.18,0.09,-0.74,-0.88,-0.82,-0.82
351.23,-0.94,-0.13,-0.92,-0.10,0.10,-0.01,-0.76,-0.84,-0.81,-0.81
354.74,-0.83,-0.01,-0.84,-0.02,0.02,-0.10,-0.78,-0.81,-0.81,-0.82
358.28,-0.74,0.07,-0.75,0.06,-0.06,-0.19,-0.80,-0.80,-0.81,-0.81
361.87,-0.67,0.14,-0.66,0.14,-0.14,-0.28,-0.83,-0.82,-0.81,-0.81
365.49,-0.58,0.22,-0.58,0.23,-0.23,-0.37,-0.85,-0.81,-0.81,-0.80
369.14,-0.44,0.37,-0.50,0.31,-0.31,-0.46,-0.87,-0.75,-0.81,-0.81
372.83,-0.39,0.42,-0.41,0.40,-0.40,-0.54,-0.90,-0.79,-0.81,-0.81
376.56,-0.39,0.43,-0.33,0.48,-0.48,-0.62,-0.92,-0.88,-0.81,-0.82
380.33,-0.28,0.53,-0.24,0.57,-0.57,-0.70,-0.95,-0.85,-0.81,-0.81
384.13,-0.08,0.73,-0.16,0.65,-0.65,-0.77,-0.97,-0.74,-0.82,-0.81
387.97,0.02,0.84,-0.09,0.73,-0.73,-0.84,-1.00,-0.72,-0.82,-0.82
391.85,-0.00,0.83,-0.02,0.80,-0.80,-0.91,-1.03,-0.81,-0.83,-0.83
395.77,-0.00,0.82,0.04,0.87,-0.87,-0.97,-1.05,-0.88,-0.83,-0.82
399.73,0.04,0.87,0.10,0.94,-0.94,-1.03,-1.08,-0.90,-0.84,-0.83
403.72,0.14,0.97,0.16,1.01,-1.01,-1.08,-1.11,-0.87,-0.84,-0.83
407.76,0.22,1.07,0.22,1.07,-1.07,-1.13,-1.13,-0.85,-0.85,-0.85
411.84,0.30,1.15,0.27,1.12,-1.12,-1.18,-1.16,-0.82,-0.85,-0.85
415.96,0.36,1.21,0.33,1.18,-1.18,-1.22,-1.18,-0.82,-0.85,-0.85
420.12,0.42,1.27,0.37,1.22,-1.22,-1.26,-1.21,-0.80,-0.85,-0.85
424.32,0.43,1.28,0.41,1.25,-1.25,-1.30,-1.24,-0.83,-0.84,-0.85
428.56,0.43,1.27,0.46,1.29,-1.29,-1.33,-1.26,-0.86,-0.83,-0.84
432.85,0.49,1.32,0.51,1.33,-1.33,-1.37,-1.29,-0.84,-0.82,-0.83
437.18,0.58,1.40,0.57,1.37,-1.37,-1.39,-1.31,-0.79,-0.80,-0.82
441.55,0.63,1.41,0.64,1.41,-1.41,-1.42,-1.33,-0.78,-0.77,-0.78
445.96,0.67,1.42,0.70,1.44,-1.44,-1.44,-1.35,-0.77,-0.74,-0.75
450.42,0.72,1.44,0.76,1.46,-1.46,-1.46,-1.38,-0.74,-0.70,-0.72
454.93,0.78,1.45,0.82,1.48,-1.48,-1.48,-1.39,-0.70,-0.66,-0.67
459.48,0.84,1.47,0.88,1.50,-1.50,-1.49,-1.41,-0.66,-0.62,-0.63
464.07,0.90,1.48,0.95,1.52,-1.52,-1.50,-1.43,-0.62,-0.57,-0.58
468.71,1.05,1.57,1.01,1.54,-1.54,-1.51,-1.44,-0.49,-0.52,-0.52
473.40,1.14,1.62,1.08,1.55,-1.55,-1.52,-1.45,-0.42,-0.48,-0.48
478.13,1.18,1.60,1.14,1.57,-1.57,-1.53,-1.46,-0.39,-0.43,-0.42
482.91,1.22,1.60,1.19,1.58,-1.58,-1.53,-1.47,-0.36,-0.38,-0.38
487.74,1.26,1.60,1.24,1.58,-1.58,-1.53,-1.48,-0.33,-0.34,-0.34
492.62,1.30,1.59,1.29,1.59,-1.59,-1.53,-1.48,-0.30,-0.30,-0.29
497.55,1.33,1.60,1.33,1.60,-1.60,-1.53,-1.48,-0.27,-0.27,-0.27
502.52,1.35,1.59,1.36,1.61,-1.61,-1.53,-1.48,-0.26,-0.25,-0.24
