frequency,raw,error,smoothed,error_smoothed,equalization,parametric_eq,fixed_band_eq,equalized_raw,equalized_smoothed,target
20.00,5.33,0.34,5.36,0.35,-0.35,-0.13,-0.27,4.98,5.02,4.99
20.20,5.37,0.33,5.39,0.34,-0.34,-0.13,-0.28,5.03,5.05,5.04
20.40,5.42,0.33,5.42,0.33,-0.33,-0.13,-0.28,5.09,5.09,5.09
20.61,5.46,0.34,5.45,0.33,-0.33,-0.13,-0.29,5.13,5.12,5.11
20.81,5.50,0.33,5.47,0.32,-0.32,-0.14,-0.30,5.17,5.15,5.17
21.02,5.54,0.33,5.50,0.32,-0.32,-0.14,-0.30,5.22,5.18,5.20
21.23,5.55,0.32,5.52,0.32,-0.32,-0.14,-0.31,5.23,5.20,5.22
21.44,5.57,0.32,5.54,0.32,-0.32,-0.14,-0.32,5.25,5.22,5.24
21.66,5.58,0.32,5.56,0.32,-0.32,-0.15,-0.33,5.26,5.24,5.26
21.87,5.59,0.32,5.58,0.32,-0.32,-0.15,-0.33,5.27,5.26,5.27
22.09,5.60,0.31,5.60,0.32,-0.32,-0.15,-0.34,5.27,5.28,5.29
22.31,5.61,0.31,5.62,0.33,-0.33,-0.16,-0.35,5.28,5.29,5.30
22.54,5.62,0.32,5.63,0.34,-0.34,-0.16,-0.36,5.28,5.30,5.30
22.76,5.62,0.32,5.65,0.35,-0.35,-0.16,-0.37,5.27,5.30,5.30
22.99,5.63,0.34,5.67,0.36,-0.36,-0.17,-0.37,5.26,5.30,5.29
23.22,5.65,0.36,5.68,0.38,-0.38,-0.17,-0.38,5.27,5.30,5.29
23.45,5.68,0.39,5.69,0.39,-0.39,-0.17,-0.39,5.29,5.30,5.29
23.69,5.70,0.40,5.69,0.39,-0.39,-0.18,-0.40,5.31,5.30,5.30
23.92,5.72,0.42,5.68,0.38,-0.38,-0.18,-0.41,5.34,5.30,5.30
24.16,5.73,0.42,5.67,0.37,-0.37,-0.18,-0.42,5.36,5.30,5.31
24.40,5.73,0.41,5.66,0.36,-0.36,-0.19,-0.43,5.37,5.30,5.31
24.65,5.73,0.42,5.65,0.35,-0.35,-0.19,-0.44,5.38,5.30,5.30
24.89,5.73,0.42,5.65,0.35,-0.35,-0.19,-0.45,5.38,5.30,5.30
25.14,5.69,0.39,5.65,0.35,-0.35,-0.20,-0.45,5.34,5.30,5.30
25.39,5.62,0.31,5.66,0.35,-0.35,-0.20,-0.46,5.27,5.30,5.31
25.65,5.55,0.24,5.66,0.36,-0.36,-0.21,-0.47,5.19,5.31,5.31
25.91,5.48,0.18,5.67,0.37,-0.37,-0.21,-0.48,5.11,5.30,5.30
26.16,5.51,0.21,5.68,0.38,-0.38,-0.22,-0.49,5.13,5.30,5.30
26.43,5.61,0.31,5.68,0.38,-0.38,-0.22,-0.50,5.23,5.30,5.30
26.69,5.71,0.41,5.68,0.38,-0.38,-0.22,-0.51,5.33,5.30,5.29
26.96,5.81,0.50,5.68,0.38,-0.38,-0.23,-0.52,5.43,5.29,5.30
27.23,5.83,0.53,5.68,0.39,-0.39,-0.23,-0.53,5.44,5.29,5.30
27.50,5.83,0.53,5.69,0.40,-0.40,-0.24,-0.54,5.43,5.29,5.30
27.77,5.83,0.54,5.71,0.42,-0.42,-0.24,-0.54,5.41,5.29,5.29
28.05,5.82,0.53,5.74,0.45,-0.45,-0.25,-0.55,5.37,5.29,5.29
28.33,5.74,0.46,5.76,0.47,-0.47,-0.25,-0.56,5.26,5.29,5.28
28.62,5.67,0.40,5.78,0.50,-0.50,-0.26,-0.57,5.17,5.28,5.27
28.90,5.60,0.32,5.80,0.52,-0.52,-0.26,-0.57,5.08,5.28,5.28
29.19,5.64,0.37,5.81,0.53,-0.53,-0.27,-0.58,5.11,5.28,5.27
29.48,5.75,0.46,5.81,0.54,-0.54,-0.27,-0.59,5.21,5.28,5.29
29.78,5.85,0.57,5.82,0.54,-0.54,-0.28,-0.59,5.30,5.28,5.28
30.08,5.93,0.64,5.83,0.55,-0.55,-0.29,-0.60,5.37,5.27,5.28
30.38,5.93,0.66,5.84,0.56,-0.56,-0.29,-0.60,5.36,5.27,5.27
30.68,5.93,0.66,5.85,0.58,-0.58,-0.30,-0.61,5.35,5.27,5.27
30.99,5.93,0.66,5.87,0.60,-0.60,-0.30,-0.61,5.32,5.27,5.27
31.30,5.93,0.66,5.89,0.63,-0.63,-0.31,-0.61,5.30,5.27,5.27
31.61,5.93,0.66,5.92,0.66,-0.66,-0.32,-0.61,5.27,5.26,5.26
31.93,5.93,0.67,5.94,0.68,-0.68,-0.32,-0.62,5.25,5.26,5.26
32.24,5.92,0.67,5.95,0.70,-0.70,-0.33,-0.62,5.22,5.25,5.25
32.57,5.90,0.64,5.96,0.71,-0.71,-0.34,-0.62,5.19,5.25,5.25
32.89,5.88,0.63,5.95,0.71,-0.71,-0.34,-0.62,5.17,5.24,5.25
33.22,5.91,0.67,5.96,0.72,-0.72,-0.35,-0.62,5.19,5.24,5.24
33.55,5.96,0.72,5.97,0.73,-0.73,-0.36,-0.62,5.23,5.23,5.24
33.89,6.01,0.79,5.98,0.75,-0.75,-0.36,-0.62,5.26,5.23,5.22
34.23,6.03,0.80,5.99,0.77,-0.77,-0.37,-0.62,5.26,5.22,5.23
34.57,6.03,0.81,6.00,0.79,-0.79,-0.38,-0.62,5.24,5.22,5.22
34.92,6.03,0.82,6.01,0.80,-0.80,-0.39,-0.62,5.23,5.21,5.21
35.27,6.03,0.82,6.02,0.81,-0.81,-0.39,-0.62,5.22,5.21,5.21
35.62,6.03,0.82,6.02,0.82,-0.82,-0.40,-0.62,5.21,5.21,5.20
35.97,6.03,0.83,6.02,0.82,-0.82,-0.41,-0.62,5.21,5.20,5.20
36.33,6.04,0.83,6.02,0.82,-0.82,-0.42,-0.61,5.22,5.20,5.21
36.70,6.04,0.85,6.01,0.82,-0.82,-0.43,-0.61,5.22,5.20,5.19
37.06,6.04,0.85,6.00,0.80,-0.80,-0.44,-0.61,5.24,5.20,5.19
37.43,6.00,0.80,5.98,0.78,-0.78,-0.45,-0.61,5.22,5.20,5.20
37.81,5.95,0.75,5.96,0.77,-0.77,-0.45,-0.61,5.18,5.20,5.20
38.19,5.93,0.74,5.96,0.76,-0.76,-0.46,-0.61,5.16,5.20,5.19
38.57,5.93,0.73,5.96,0.77,-0.77,-0.47,-0.61,5.16,5.20,5.20
38.95,5.93,0.73,5.97,0.77,-0.77,-0.48,-0.61,5.16,5.19,5.20
39.34,5.93,0.73,5.97,0.77,-0.77,-0.49,-0.62,5.16,5.19,5.20
39.74,5.93,0.74,5.96,0.77,-0.77,-0.50,-0.62,5.16,5.19,5.19
40.14,5.93,0.73,5.96,0.77,-0.77,-0.51,-0.62,5.16,5.19,5.19
40.54,5.93,0.74,5.95,0.77,-0.77,-0.52,-0.62,5.16,5.19,5.19
40.94,5.93,0.75,5.95,0.76,-0.76,-0.53,-0.62,5.16,5.18,5.18
41.35,6.00,0.83,5.94,0.77,-0.77,-0.55,-0.63,5.23,5.18,5.17
41.76,6.09,0.92,5.94,0.77,-0.77,-0.56,-0.63,5.32,5.17,5.17
42.18,6.08,0.91,5.93,0.77,-0.77,-0.57,-0.64,5.31,5.16,5.17
42.60,5.95,0.80,5.92,0.77,-0.77,-0.58,-0.64,5.17,5.15,5.15
43.03,5.83,0.69,5.91,0.77,-0.77,-0.59,-0.65,5.05,5.13,5.14
43.46,5.83,0.69,5.90,0.78,-0.78,-0.60,-0.65,5.05,5.12,5.13
43.90,5.83,0.72,5.89,0.78,-0.78,-0.62,-0.66,5.04,5.11,5.11
44.33,5.83,0.74,5.88,0.79,-0.79,-0.63,-0.67,5.04,5.09,5.09
44.78,5.83,0.76,5.87,0.79,-0.79,-0.64,-0.67,5.04,5.08,5.07
45.23,5.83,0.77,5.85,0.79,-0.79,-0.65,-0.68,5.04,5.06,5.06
45.68,5.83,0.79,5.83,0.79,-0.79,-0.67,-0.69,5.04,5.05,5.04
46.13,5.83,0.81,5.81,0.78,-0.78,-0.68,-0.70,5.04,5.03,5.02
46.60,5.84,0.82,5.80,0.78,-0.78,-0.70,-0.71,5.06,5.01,5.02
47.06,5.85,0.85,5.80,0.80,-0.80,-0.71,-0.72,5.05,5.00,4.99
47.53,5.86,0.87,5.81,0.83,-0.83,-0.72,-0.73,5.03,4.98,4.98
48.01,5.86,0.88,5.81,0.85,-0.85,-0.74,-0.74,5.01,4.96,4.98
48.49,5.80,0.84,5.80,0.86,-0.86,-0.75,-0.75,4.94,4.95,4.96
48.97,5.73,0.79,5.79,0.86,-0.86,-0.77,-0.77,4.86,4.93,4.94
49.46,5.73,0.82,5.78,0.87,-0.87,-0.78,-0.78,4.86,4.92,4.91
49.96,5.73,0.84,5.77,0.87,-0.87,-0.80,-0.79,4.86,4.90,4.89
50.46,5.73,0.84,5.75,0.87,-0.87,-0.82,-0.81,4.86,4.88,4.88
50.96,5.73,0.86,5.74,0.88,-0.88,-0.83,-0.82,4.85,4.87,4.87
51.47,5.79,0.94,5.74,0.88,-0.88,-0.85,-0.83,4.90,4.85,4.84
51.99,5.86,1.03,5.73,0.90,-0.90,-0.87,-0.85,4.96,4.84,4.83
52.51,5.74,0.92,5.72,0.90,-0.90,-0.89,-0.86,4.84,4.82,4.82
53.03,5.63,0.81,5.70,0.89,-0.89,-0.90,-0.88,4.73,4.81,4.81
53.56,5.63,0.83,5.68,0.89,-0.89,-0.92,-0.90,4.73,4.79,4.80
54.10,5.63,0.85,5.67,0.89,-0.89,-0.94,-0.91,4.74,4.78,4.78
54.64,5.64,0.88,5.65,0.88,-0.88,-0.96,-0.93,4.76,4.76,4.76
55.18,5.66,0.91,5.61,0.86,-0.86,-0.98,-0.95,4.80,4.75,4.75
55.74,5.69,0.96,5.58,0.84,-0.84,-1.00,-0.96,4.84,4.73,4.73
56.29,5.65,0.93,5.55,0.83,-0.83,-1.02,-0.98,4.81,4.72,4.72
56.86,5.55,0.85,5.53,0.83,-0.83,-1.04,-1.00,4.72,4.70,4.70
57.42,5.44,0.77,5.50,0.82,-0.82,-1.06,-1.01,4.62,4.68,4.66
58.00,5.32,0.67,5.47,0.82,-0.82,-1.08,-1.03,4.50,4.66,4.65
58.58,5.40,0.76,5.45,0.82,-0.82,-1.10,-1.05,4.58,4.63,4.64
59.16,5.43,0.81,5.42,0.83,-0.83,-1.12,-1.06,4.60,4.60,4.61
59.76,5.36,0.77,5.39,0.82,-0.82,-1.15,-1.08,4.54,4.57,4.59
60.35,5.33,0.79,5.35,0.82,-0.82,-1.17,-1.10,4.51,4.53,4.54
60.96,5.33,0.82,5.31,0.81,-0.81,-1.19,-1.11,4.52,4.50,4.51
61.57,5.39,0.93,5.28,0.82,-0.82,-1.21,-1.13,4.57,4.45,4.46
62.18,5.40,0.99,5.25,0.84,-0.84,-1.24,-1.15,4.56,4.41,4.41
62.80,5.25,0.89,5.23,0.86,-0.86,-1.26,-1.16,4.39,4.37,4.36
63.43,5.16,0.85,5.20,0.89,-0.89,-1.29,-1.18,4.27,4.32,4.31
64.07,5.10,0.84,5.18,0.91,-0.91,-1.31,-1.19,4.19,4.27,4.26
64.71,5.12,0.91,5.15,0.93,-0.93,-1.34,-1.21,4.19,4.22,4.21
65.35,5.09,0.92,5.11,0.95,-0.95,-1.36,-1.22,4.14,4.17,4.17
66.01,5.03,0.92,5.08,0.97,-0.97,-1.39,-1.24,4.06,4.11,4.11
66.67,5.03,0.97,5.05,0.99,-0.99,-1.42,-1.26,4.03,4.06,4.06
67.33,5.06,1.06,5.03,1.02,-1.02,-1.44,-1.27,4.04,4.01,4.00
68.01,5.13,1.17,5.00,1.05,-1.05,-1.47,-1.29,4.07,3.95,3.96
68.69,4.99,1.09,4.98,1.08,-1.08,-1.50,-1.31,3.91,3.90,3.90
69.37,4.93,1.09,4.96,1.12,-1.12,-1.53,-1.32,3.81,3.84,3.84
70.07,4.93,1.15,4.95,1.17,-1.17,-1.55,-1.34,3.76,3.78,3.78
70.77,4.93,1.20,4.94,1.22,-1.22,-1.58,-1.36,3.71,3.72,3.73
71.48,4.93,1.26,4.93,1.27,-1.27,-1.61,-1.37,3.66,3.66,3.67
72.19,4.93,1.33,4.92,1.33,-1.33,-1.64,-1.39,3.60,3.59,3.60
72.91,4.93,1.39,4.92,1.39,-1.39,-1.67,-1.41,3.53,3.53,3.53
73.64,4.93,1.46,4.93,1.46,-1.46,-1.70,-1.43,3.47,3.47,3.47
74.38,4.91,1.50,4.94,1.53,-1.53,-1.73,-1.45,3.38,3.41,3.40
75.12,4.88,1.54,4.94,1.60,-1.60,-1.76,-1.48,3.28,3.34,3.34
75.87,4.85,1.58,4.95,1.67,-1.67,-1.80,-1.50,3.18,3.28,3.27
76.63,4.96,1.75,4.96,1.74,-1.74,-1.83,-1.52,3.22,3.22,3.21
77.40,5.03,1.87,4.97,1.81,-1.81,-1.86,-1.55,3.22,3.16,3.15
78.17,5.03,1.94,4.98,1.88,-1.88,-1.89,-1.57,3.15,3.10,3.08
78.95,5.03,1.99,4.98,1.94,-1.94,-1.92,-1.60,3.08,3.04,3.04
79.74,5.07,2.09,4.99,2.01,-2.01,-1.96,-1.63,3.06,2.98,2.98
80.54,5.04,2.11,4.99,2.07,-2.07,-1.99,-1.66,2.97,2.92,2.93
81.35,4.97,2.10,4.99,2.12,-2.12,-2.02,-1.69,2.84,2.87,2.86
82.16,4.93,2.12,4.98,2.17,-2.17,-2.05,-1.72,2.76,2.81,2.81
82.98,4.93,2.16,4.97,2.22,-2.22,-2.09,-1.76,2.71,2.76,2.76
83.81,4.93,2.23,4.96,2.26,-2.26,-2.12,-1.79,2.67,2.70,2.70
84.65,4.93,2.29,4.94,2.30,-2.30,-2.15,-1.83,2.63,2.64,2.64
85.50,4.95,2.36,4.91,2.32,-2.32,-2.19,-1.87,2.63,2.58,2.59
86.35,4.95,2.41,4.88,2.35,-2.35,-2.22,-1.91,2.60,2.53,2.53
87.22,4.88,2.40,4.86,2.39,-2.39,-2.25,-1.95,2.49,2.47,2.47
88.09,4.83,2.42,4.83,2.42,-2.42,-2.29,-1.99,2.40,2.41,2.41
88.97,4.81,2.46,4.81,2.46,-2.46,-2.32,-2.03,2.35,2.35,2.35
89.86,4.71,2.42,4.79,2.50,-2.50,-2.35,-2.08,2.21,2.29,2.29
90.76,4.73,2.50,4.77,2.54,-2.54,-2.38,-2.13,2.19,2.23,2.23
91.66,4.76,2.58,4.74,2.57,-2.57,-2.42,-2.18,2.19,2.17,2.17
92.58,4.71,2.61,4.71,2.60,-2.60,-2.45,-2.23,2.11,2.11,2.10
93.51,4.64,2.59,4.67,2.62,-2.62,-2.48,-2.28,2.02,2.05,2.05
94.44,4.64,2.65,4.63,2.64,-2.64,-2.51,-2.33,2.00,1.99,1.99
95.39,4.65,2.71,4.59,2.66,-2.66,-2.54,-2.39,1.99,1.93,1.94
96.34,4.61,2.74,4.56,2.68,-2.68,-2.57,-2.44,1.92,1.87,1.87
97.30,4.53,2.71,4.52,2.71,-2.71,-2.60,-2.50,1.82,1.82,1.81
98.28,4.51,2.75,4.49,2.73,-2.73,-2.63,-2.56,1.78,1.76,1.76
99.26,4.45,2.75,4.44,2.74,-2.74,-2.66,-2.62,1.70,1.70,1.70
100.25,4.37,2.72,4.40,2.76,-2.76,-2.69,-2.68,1.61,1.64,1.64
101.25,4.29,2.70,4.35,2.76,-2.76,-2.71,-2.74,1.53,1.59,1.59
102.27,4.25,2.72,4.29,2.76,-2.76,-2.74,-2.80,1.49,1.53,1.53
103.29,4.24,2.78,4.24,2.77,-2.77,-2.77,-2.86,1.47,1.47,1.46
104.32,4.22,2.80,4.18,2.77,-2.77,-2.79,-2.92,1.44,1.41,1.41
105.37,4.18,2.82,4.13,2.78,-2.78,-2.81,-2.97,1.40,1.35,1.36
106.42,4.11,2.81,4.07,2.78,-2.78,-2.84,-3.03,1.33,1.29,1.30
107.48,4.02,2.79,4.01,2.78,-2.78,-2.86,-3.09,1.23,1.23,1.23
108.56,3.94,2.78,3.95,2.79,-2.79,-2.88,-3.15,1.15,1.16,1.16
109.64,3.90,2.79,3.90,2.80,-2.80,-2.90,-3.20,1.10,1.10,1.10
110.74,3.82,2.78,3.85,2.81,-2.81,-2.91,-3.25,1.01,1.04,1.04
111.85,3.77,2.78,3.80,2.83,-2.83,-2.93,-3.30,0.94,0.98,0.99
112.97,3.75,2.83,3.76,2.84,-2.84,-2.94,-3.35,0.90,0.92,0.91
114.10,3.74,2.88,3.72,2.86,-2.86,-2.96,-3.39,0.88,0.86,0.86
115.24,3.67,2.87,3.67,2.87,-2.87,-2.97,-3.43,0.80,0.80,0.80
116.39,3.60,2.86,3.63,2.88,-2.88,-2.98,-3.47,0.71,0.75,0.73
117.55,3.55,2.86,3.60,2.90,-2.90,-2.99,-3.50,0.65,0.70,0.69
118.73,3.55,2.91,3.57,2.92,-2.92,-3.00,-3.53,0.63,0.65,0.63
119.92,3.56,2.96,3.54,2.94,-2.94,-3.00,-3.55,0.62,0.60,0.60
121.12,3.56,3.01,3.51,2.95,-2.95,-3.01,-3.57,0.61,0.55,0.55
122.33,3.51,3.01,3.47,2.96,-2.96,-3.01,-3.58,0.54,0.51,0.50
123.55,3.48,3.01,3.44,2.97,-2.97,-3.01,-3.59,0.50,0.46,0.47
124.79,3.42,2.99,3.40,2.98,-2.98,-3.01,-3.59,0.44,0.42,0.43
126.03,3.31,2.92,3.36,2.98,-2.98,-3.01,-3.58,0.33,0.38,0.39
127.29,3.30,2.94,3.32,2.97,-2.97,-3.01,-3.57,0.32,0.34,0.36
128.57,3.29,2.98,3.28,2.97,-2.97,-3.00,-3.55,0.32,0.31,0.31
129.85,3.23,2.96,3.23,2.96,-2.96,-3.00,-3.53,0.26,0.27,0.27
131.15,3.20,2.97,3.18,2.95,-2.95,-2.99,-3.50,0.25,0.23,0.23
132.46,3.14,2.95,3.12,2.93,-2.93,-2.98,-3.47,0.21,0.19,0.19
133.79,3.06,2.90,3.07,2.91,-2.91,-2.97,-3.44,0.14,0.16,0.15
135.12,3.02,2.91,3.01,2.89,-2.89,-2.96,-3.39,0.13,0.12,0.11
136.48,2.96,2.87,2.95,2.87,-2.87,-2.94,-3.35,0.09,0.08,0.08
137.84,2.89,2.85,2.89,2.85,-2.85,-2.93,-3.30,0.04,0.05,0.04
139.22,2.83,2.83,2.84,2.83,-2.83,-2.91,-3.24,0.00,0.01,-0.00
140.61,2.76,2.80,2.78,2.80,-2.80,-2.89,-3.19,-0.05,-0.03,-0.05
142.02,2.74,2.80,2.71,2.78,-2.78,-2.87,-3.13,-0.04,-0.07,-0.07
143.44,2.67,2.77,2.64,2.75,-2.75,-2.85,-3.07,-0.08,-0.11,-0.11
144.87,2.58,2.73,2.57,2.73,-2.73,-2.83,-3.00,-0.15,-0.16,-0.16
146.32,2.54,2.74,2.51,2.72,-2.72,-2.81,-2.94,-0.18,-0.21,-0.20
147.78,2.45,2.69,2.45,2.72,-2.72,-2.79,-2.87,-0.28,-0.27,-0.24
149.26,2.37,2.67,2.41,2.74,-2.74,-2.76,-2.81,-0.37,-0.33,-0.30
150.75,2.34,2.71,2.36,2.76,-2.76,-2.73,-2.74,-0.42,-0.40,-0.37
152.26,2.28,2.73,2.32,2.79,-2.79,-2.71,-2.67,-0.51,-0.47,-0.45
153.78,2.23,2.75,2.28,2.82,-2.82,-2.68,-2.60,-0.59,-0.54,-0.52
155.32,2.17,2.77,2.24,2.85,-2.85,-2.65,-2.53,-0.69,-0.62,-0.60
156.88,2.14,2.82,2.19,2.89,-2.89,-2.62,-2.46,-0.75,-0.69,-0.69
158.44,2.14,2.91,2.14,2.92,-2.92,-2.59,-2.39,-0.78,-0.77,-0.78
160.03,2.14,3.00,2.10,2.94,-2.94,-2.56,-2.33,-0.81,-0.85,-0.87
161.63,2.14,3.08,2.04,2.96,-2.96,-2.53,-2.26,-0.82,-0.92,-0.94
163.24,2.10,3.11,1.98,2.97,-2.97,-2.50,-2.19,-0.87,-0.99,-1.01
164.88,2.00,3.07,1.92,2.97,-2.97,-2.47,-2.13,-0.97,-1.05,-1.07
166.53,1.88,3.00,1.84,2.94,-2.94,-2.43,-2.06,-1.07,-1.10,-1.12
168.19,1.74,2.91,1.75,2.90,-2.90,-2.40,-2.00,-1.17,-1.15,-1.17
169.87,1.62,2.83,1.66,2.85,-2.85,-2.37,-1.94,-1.23,-1.19,-1.21
171.57,1.55,2.78,1.56,2.78,-2.78,-2.33,-1.88,-1.23,-1.22,-1.24
173.29,1.48,2.74,1.46,2.70,-2.70,-2.30,-1.82,-1.23,-1.25,-1.26
175.02,1.36,2.63,1.35,2.62,-2.62,-2.26,-1.76,-1.26,-1.27,-1.27
176.77,1.21,2.50,1.23,2.52,-2.52,-2.23,-1.70,-1.31,-1.28,-1.29
178.54,1.11,2.41,1.12,2.42,-2.42,-2.19,-1.65,-1.31,-1.30,-1.30
180.32,1.02,2.31,1.02,2.33,-2.33,-2.16,-1.60,-1.31,-1.31,-1.30
182.13,0.92,2.21,0.93,2.25,-2.25,-2.12,-1.54,-1.33,-1.32,-1.29
183.95,0.80,2.11,0.85,2.18,-2.18,-2.09,-1.49,-1.38,-1.33,-1.31
185.79,0.76,2.08,0.78,2.12,-2.12,-2.05,-1.44,-1.36,-1.34,-1.32
187.65,0.69,2.03,0.71,2.06,-2.06,-2.02,-1.39,-1.37,-1.35,-1.34
189.52,0.65,2.01,0.64,2.01,-2.01,-1.98,-1.34,-1.36,-1.37,-1.36
191.42,0.59,1.97,0.59,1.97,-1.97,-1.94,-1.30,-1.39,-1.39,-1.38
193.33,0.50,1.90,0.54,1.95,-1.95,-1.91,-1.25,-1.45,-1.41,-1.40
195.27,0.48,1.91,0.50,1.93,-1.93,-1.87,-1.21,-1.45,-1.43,-1.43
197.22,0.50,1.95,0.47,1.92,-1.92,-1.83,-1.17,-1.42,-1.45,-1.45
199.19,0.47,1.95,0.43,1.90,-1.90,-1.80,-1.12,-1.43,-1.47,-1.48
201.18,0.42,1.92,0.39,1.89,-1.89,-1.76,-1.08,-1.47,-1.50,-1.50
203.19,0.35,1.87,0.36,1.89,-1.89,-1.72,-1.05,-1.54,-1.52,-1.52
205.23,0.32,1.87,0.34,1.88,-1.88,-1.69,-1.01,-1.57,-1.55,-1.55
207.28,0.32,1.88,0.31,1.88,-1.88,-1.65,-0.97,-1.56,-1.57,-1.56
209.35,0.32,1.90,0.28,1.87,-1.87,-1.61,-0.94,-1.55,-1.59,-1.59
211.44,0.31,1.93,0.25,1.86,-1.86,-1.57,-0.90,-1.55,-1.61,-1.62
213.56,0.19,1.82,0.22,1.86,-1.86,-1.53,-0.87,-1.67,-1.63,-1.63
215.69,0.12,1.76,0.20,1.85,-1.85,-1.50,-0.84,-1.73,-1.65,-1.65
217.85,0.11,1.77,0.16,1.82,-1.82,-1.46,-0.81,-1.72,-1.66,-1.66
220.03,0.10,1.77,0.12,1.80,-1.80,-1.42,-0.78,-1.70,-1.67,-1.68
222.23,0.10,1.80,0.08,1.76,-1.76,-1.38,-0.75,-1.66,-1.68,-1.70
224.45,0.10,1.79,0.03,1.72,-1.72,-1.33,-0.72,-1.62,-1.69,-1.69
226.70,0.02,1.72,-0.03,1.66,-1.66,-1.29,-0.70,-1.65,-1.69,-1.70
228.96,-0.10,1.59,-0.09,1.60,-1.60,-1.25,-0.68,-1.70,-1.69,-1.69
231.25,-0.09,1.59,-0.16,1.53,-1.53,-1.21,-0.65,-1.62,-1.68,-1.68
233.57,-0.14,1.53,-0.22,1.45,-1.45,-1.16,-0.63,-1.59,-1.67,-1.68
235.90,-0.26,1.41,-0.29,1.37,-1.37,-1.11,-0.61,-1.63,-1.66,-1.67
238.26,-0.38,1.28,-0.36,1.28,-1.28,-1.06,-0.59,-1.67,-1.65,-1.66
240.64,-0.51,1.13,-0.45,1.18,-1.18,-1.01,-0.58,-1.70,-1.63,-1.64
243.05,-0.57,1.04,-0.54,1.07,-1.07,-0.96,-0.56,-1.65,-1.61,-1.61
245.48,-0.69,0.90,-0.63,0.97,-0.97,-0.91,-0.55,-1.66,-1.59,-1.59
247.93,-0.75,0.81,-0.72,0.85,-0.85,-0.85,-0.54,-1.61,-1.57,-1.56
250.41,-0.78,0.77,-0.81,0.74,-0.74,-0.79,-0.52,-1.52,-1.55,-1.55
252.92,-0.85,0.67,-0.89,0.64,-0.64,-0.73,-0.52,-1.49,-1.53,-1.52
255.45,-0.96,0.54,-0.97,0.54,-0.54,-0.66,-0.51,-1.50,-1.51,-1.50
258.00,-1.03,0.44,-1.05,0.43,-0.43,-0.59,-0.50,-1.47,-1.48,-1.48
260.58,-1.12,0.34,-1.12,0.34,-0.34,-0.52,-0.50,-1.46,-1.46,-1.46
263.19,-1.22,0.21,-1.20,0.24,-0.24,-0.44,-0.49,-1.46,-1.44,-1.43
265.82,-1.33,0.09,-1.27,0.14,-0.14,-0.36,-0.49,-1.47,-1.41,-1.42
268.48,-1.32,0.07,-1.34,0.05,-0.05,-0.27,-0.49,-1.37,-1.39,-1.40
271.16,-1.36,0.00,-1.42,-0.05,0.05,-0.17,-0.49,-1.31,-1.37,-1.36
273.87,-1.51,-0.16,-1.49,-0.14,0.14,-0.08,-0.49,-1.37,-1.34,-1.35
276.61,-1.53,-0.21,-1.56,-0.24,0.24,0.03,-0.49,-1.29,-1.32,-1.32
279.38,-1.55,-0.26,-1.63,-0.34,0.34,0.13,-0.49,-1.21,-1.29,-1.29
282.17,-1.67,-0.40,-1.70,-0.43,0.43,0.24,-0.50,-1.24,-1.27,-1.27
284.99,-1.76,-0.53,-1.76,-0.52,0.52,0.36,-0.50,-1.24,-1.24,-1.24
287.84,-1.82,-0.60,-1.82,-0.60,0.60,0.47,-0.51,-1.22,-1.21,-1.22
290.72,-1.90,-0.72,-1.86,-0.67,0.67,0.58,-0.52,-1.23,-1.18,-1.19
293.63,-1.90,-0.74,-1.89,-0.73,0.73,0.68,-0.52,-1.17,-1.16,-1.16
296.57,-1.88,-0.76,-1.91,-0.78,0.78,0.77,-0.53,-1.10,-1.13,-1.13
299.53,-1.95,-0.85,-1.92,-0.82,0.82,0.85,-0.54,-1.14,-1.10,-1.10
302.53,-1.96,-0.88,-1.91,-0.83,0.83,0.91,-0.55,-1.13,-1.08,-1.09
305.55,-1.95,-0.91,-1.88,-0.83,0.83,0.95,-0.57,-1.12,-1.05,-1.04
308.61,-1.92,-0.90,-1.85,-0.82,0.82,0.97,-0.58,-1.10,-1.03,-1.03
311.69,-1.88,-0.88,-1.80,-0.79,0.79,0.96,-0.59,-1.09,-1.01,-1.00
314.81,-1.75,-0.78,-1.74,-0.76,0.76,0.93,-0.61,-0.99,-0.98,-0.97
317.96,-1.63,-0.68,-1.68,-0.72,0.72,0.88,-0.62,-0.92,-0.96,-0.96
321.14,-1.55,-0.60,-1.61,-0.67,0.67,0.81,-0.64,-0.89,-0.95,-0.95
324.35,-1.49,-0.56,-1.54,-0.61,0.61,0.72,-0.65,-0.88,-0.93,-0.93
327.59,-1.38,-0.46,-1.47,-0.55,0.55,0.63,-0.67,-0.83,-0.92,-0.92
330.87,-1.31,-0.40,-1.39,-0.49,0.49,0.52,-0.69,-0.83,-0.90,-0.91
334.18,-1.26,-0.37,-1.31,-0.41,0.41,0.41,-0.70,-0.85,-0.89,-0.89
337.52,-1.22,-0.34,-1.22,-0.34,0.34,0.30,-0.72,-0.89,-0.88,-0.89
340.90,-1.20,-0.33,-1.14,-0.26,0.26,0.19,-0.74,-0.94,-0.88,-0.87
344.30,-1.11,-0.25,-1.07,-0.20,0.20,0.09,-0.76,-0.92,-0.87,-0.86
347.75,-1.05,-0.19,-1.00,-0.13,0.13,-0.01,-0.78,-0.92,-0.87,-0.87
351.23,-0.94,-0.08,-0.92,-0.06,0.06,-0.11,-0.80,-0.88,-0.86,-0.86
354.74,-0.83,0.03,-0.84,0.02,-0.02,-0.20,-0.82,-0.85,-0.86,-0.86
358.28,-0.74,0.11,-0.75,0.11,-0.11,-0.29,-0.85,-0.85,-0.85,-0.85
361.87,-0.67,0.18,-0.66,0.19,-0.19,-0.38,-0.87,-0.86,-0.85,-0.86
365.49,-0.58,0.27,-0.58,0.27,-0.27,-0.46,-0.89,-0.85,-0.85,-0.85
369.14,-0.44,0.42,-0.50,0.36,-0.36,-0.53,-0.92,-0.80,-0.85,-0.86
372.83,-0.39,0.47,-0.41,0.45,-0.45,-0.60,-0.94,-0.84,-0.86,-0.86
376.56,-0.39,0.47,-0.33,0.53,-0.53,-0.67,-0.97,-0.93,-0.86,-0.86
380.33,-0.28,0.57,-0.24,0.62,-0.62,-0.73,-0.99,-0.90,-0.86,-0.86
384.13,-0.08,0.78,-0.16,0.70,-0.70,-0.79,-1.02,-0.79,-0.87,-0.86
387.97,0.02,0.89,-0.09,0.78,-0.78,-0.85,-1.04,-0.77,-0.87,-0.87
391.85,-0.00,0.88,-0.02,0.85,-0.85,-0.90,-1.07,-0.86,-0.88,-0.88
395.77,-0.00,0.87,0.04,0.92,-0.92,-0.96,-1.10,-0.93,-0.88,-0.87
399.73,0.04,0.92,0.10,0.99,-0.99,-1.01,-1.13,-0.96,-0.89,-0.88
403.72,0.14,1.02,0.16,1.06,-1.06,-1.05,-1.15,-0.92,-0.89,-0.89
407.76,0.22,1.11,0.22,1.12,-1.12,-1.10,-1.18,-0.90,-0.90,-0.90
411.84,0.30,1.20,0.27,1.17,-1.17,-1.15,-1.21,-0.88,-0.90,-0.90
415.96,0.36,1.26,0.33,1.23,-1.23,-1.19,-1.24,-0.87,-0.90,-0.90
420.12,0.42,1.32,0.37,1.27,-1.27,-1.23,-1.26,-0.86,-0.90,-0.90
424.32,0.43,1.33,0.41,1.31,-1.31,-1.27,-1.29,-0.88,-0.90,-0.90
428.56,0.43,1.32,0.46,1.34,-1.34,-1.31,-1.31,-0.91,-0.89,-0.89
432.85,0.49,1.37,0.51,1.38,-1.38,-1.34,-1.34,-0.89,-0.87,-0.88
437.18,0.58,1.45,0.57,1.42,-1.42,-1.38,-1.36,-0.85,-0.85,-0.88
441.55,0.63,1.46,0.64,1.46,-1.46,-1.41,-1.39,-0.83,-0.83,-0.84
445.96,0.67,1.48,0.70,1.49,-1.49,-1.44,-1.41,-0.82,-0.79,-0.81
450.42,0.72,1.50,0.76,1.51,-1.51,-1.47,-1.43,-0.80,-0.76,-0.78
454.93,0.78,1.51,0.82,1.54,-1.54,-1.50,-1.45,-0.76,-0.72,-0.73
459.48,0.84,1.52,0.88,1.55,-1.55,-1.53,-1.47,-0.72,-0.67,-0.68
464.07,0.90,1.53,0.95,1.57,-1.57,-1.55,-1.49,-0.68,-0.63,-0.63
468.71,1.05,1.62,1.01,1.59,-1.59,-1.57,-1.50,-0.54,-0.58,-0.57
473.40,1.14,1.67,1.08,1.61,-1.61,-1.60,-1.51,-0.47,-0.53,-0.53
478.13,1.18,1.65,1.14,1.62,-1.62,-1.61,-1.52,-0.45,-0.48,-0.47
482.91,1.22,1.65,1.19,1.63,-1.63,-1.63,-1.53,-0.41,-0.44,-0.43
487.74,1.26,1.65,1.24,1.64,-1.64,-1.64,-1.54,-0.38,-0.40,-0.40
492.62,1.30,1.64,1.29,1.65,-1.65,-1.66,-1.54,-0.35,-0.36,-0.35
497.55,1.33,1.65,1.33,1.66,-1.66,-1.67,-1.54,-0.33,-0.33,-0.33
502.52,1.35,1.65,1.36,1.67,-1.67,-1.68,-1.54,-0.32,-0.31,-0.30
