frequency,raw,error,smoothed,error_smoothed,equalization,parametric_eq,fixed_band_eq,equalized_raw,equalized_smoothed,target
20.00,6.36,-1.60,6.35,-1.63,1.63,1.62,0.10,7.98,7.98,7.95
20.20,6.43,-1.58,6.42,-1.59,1.59,1.63,0.10,8.02,8.02,8.00
20.40,6.49,-1.57,6.49,-1.56,1.56,1.64,0.11,8.05,8.05,8.05
20.61,6.55,-1.53,6.56,-1.53,1.53,1.64,0.11,8.08,8.09,8.08
20.81,6.63,-1.51,6.63,-1.49,1.49,1.64,0.12,8.12,8.12,8.13
21.02,6.70,-1.48,6.69,-1.45,1.45,1.64,0.12,8.15,8.15,8.17
21.23,6.76,-1.44,6.75,-1.42,1.42,1.63,0.13,8.17,8.17,8.19
21.44,6.82,-1.40,6.81,-1.38,1.38,1.62,0.13,8.20,8.20,8.21
21.66,6.88,-1.36,6.87,-1.34,1.34,1.61,0.14,8.22,8.22,8.23
21.87,6.94,-1.31,6.93,-1.31,1.31,1.59,0.14,8.24,8.23,8.24
22.09,7.00,-1.27,6.98,-1.27,1.27,1.57,0.15,8.26,8.25,8.26
22.31,7.04,-1.24,7.03,-1.23,1.23,1.55,0.15,8.26,8.26,8.27
22.54,7.08,-1.20,7.09,-1.18,1.18,1.52,0.16,8.26,8.27,8.27
22.76,7.12,-1.16,7.13,-1.14,1.14,1.50,0.17,8.25,8.27,8.27
22.99,7.16,-1.11,7.18,-1.10,1.10,1.47,0.17,8.25,8.27,8.26
23.22,7.21,-1.06,7.22,-1.06,1.06,1.43,0.18,8.26,8.28,8.26
23.45,7.27,-1.00,7.26,-1.02,1.02,1.40,0.18,8.28,8.28,8.26
23.69,7.33,-0.95,7.30,-0.97,0.97,1.36,0.19,8.30,8.28,8.27
23.92,7.38,-0.90,7.34,-0.93,0.93,1.33,0.20,8.31,8.28,8.27
24.16,7.41,-0.87,7.38,-0.89,0.89,1.29,0.21,8.30,8.28,8.27
24.40,7.43,-0.86,7.42,-0.85,0.85,1.25,0.21,8.28,8.27,8.28
24.65,7.45,-0.83,7.46,-0.81,0.81,1.21,0.22,8.26,8.27,8.27
24.89,7.47,-0.81,7.50,-0.78,0.78,1.17,0.23,8.24,8.27,8.27
25.14,7.51,-0.77,7.54,-0.74,0.74,1.13,0.23,8.25,8.28,8.27
25.39,7.56,-0.73,7.57,-0.70,0.70,1.09,0.24,8.26,8.28,8.28
25.65,7.62,-0.67,7.61,-0.66,0.66,1.04,0.25,8.28,8.28,8.28
25.91,7.67,-0.61,7.65,-0.62,0.62,1.00,0.25,8.29,8.28,8.27
26.16,7.71,-0.57,7.69,-0.59,0.59,0.96,0.26,8.29,8.28,8.27
26.43,7.74,-0.54,7.73,-0.54,0.54,0.92,0.27,8.28,8.27,8.27
26.69,7.77,-0.51,7.77,-0.50,0.50,0.87,0.27,8.27,8.27,8.27
26.96,7.80,-0.48,7.81,-0.46,0.46,0.83,0.28,8.25,8.27,8.27
27.23,7.84,-0.44,7.86,-0.41,0.41,0.79,0.28,8.25,8.27,8.27
27.50,7.90,-0.38,7.90,-0.37,0.37,0.75,0.29,8.26,8.27,8.27
27.77,7.95,-0.32,7.94,-0.33,0.33,0.71,0.29,8.27,8.27,8.26
28.05,8.00,-0.27,7.97,-0.29,0.29,0.67,0.29,8.29,8.26,8.26
28.33,8.02,-0.24,8.01,-0.26,0.26,0.63,0.30,8.27,8.26,8.25
28.62,8.05,-0.21,8.04,-0.22,0.22,0.59,0.30,8.27,8.26,8.25
28.90,8.08,-0.19,8.07,-0.19,0.19,0.55,0.30,8.27,8.26,8.26
29.19,8.11,-0.15,8.10,-0.16,0.16,0.52,0.30,8.26,8.26,8.25
29.48,8.14,-0.13,8.13,-0.12,0.12,0.48,0.30,8.26,8.26,8.26
29.78,8.17,-0.09,8.16,-0.09,0.09,0.44,0.29,8.26,8.26,8.25
30.08,8.19,-0.08,8.19,-0.06,0.06,0.41,0.29,8.25,8.25,8.26
30.38,8.21,-0.05,8.21,-0.04,0.04,0.37,0.29,8.24,8.25,8.25
30.68,8.22,-0.04,8.24,-0.01,0.01,0.34,0.28,8.23,8.25,8.25
30.99,8.23,-0.03,8.26,0.01,-0.01,0.30,0.28,8.22,8.25,8.25
31.30,8.28,0.03,8.28,0.04,-0.04,0.27,0.27,8.24,8.25,8.24
31.61,8.33,0.08,8.31,0.06,-0.06,0.24,0.26,8.26,8.24,8.24
31.93,8.38,0.13,8.33,0.09,-0.09,0.20,0.25,8.29,8.24,8.24
32.24,8.39,0.15,8.35,0.12,-0.12,0.17,0.24,8.27,8.24,8.23
32.57,8.39,0.15,8.38,0.15,-0.15,0.14,0.23,8.24,8.23,8.23
32.89,8.39,0.15,8.41,0.18,-0.18,0.11,0.21,8.20,8.23,8.23
33.22,8.41,0.18,8.44,0.21,-0.21,0.08,0.20,8.19,8.22,8.22
33.55,8.45,0.22,8.47,0.25,-0.25,0.05,0.18,8.20,8.22,8.22
33.89,8.48,0.26,8.49,0.28,-0.28,0.02,0.16,8.20,8.21,8.21
34.23,8.51,0.29,8.52,0.31,-0.31,-0.01,0.15,8.19,8.21,8.21
34.57,8.55,0.34,8.55,0.34,-0.34,-0.04,0.13,8.20,8.21,8.20
34.92,8.58,0.37,8.57,0.37,-0.37,-0.07,0.11,8.20,8.20,8.20
35.27,8.62,0.42,8.60,0.40,-0.40,-0.10,0.09,8.22,8.20,8.19
35.62,8.65,0.45,8.62,0.43,-0.43,-0.12,0.07,8.22,8.19,8.19
35.97,8.69,0.49,8.65,0.45,-0.45,-0.15,0.04,8.23,8.19,8.19
36.33,8.69,0.49,8.67,0.48,-0.48,-0.18,0.02,8.21,8.19,8.19
36.70,8.69,0.50,8.70,0.51,-0.51,-0.21,-0.00,8.18,8.19,8.18
37.06,8.70,0.51,8.72,0.53,-0.53,-0.23,-0.02,8.17,8.19,8.18
37.43,8.73,0.53,8.74,0.55,-0.55,-0.26,-0.05,8.18,8.19,8.19
37.81,8.76,0.56,8.76,0.57,-0.57,-0.29,-0.07,8.19,8.19,8.19
38.19,8.78,0.59,8.78,0.59,-0.59,-0.31,-0.10,8.19,8.19,8.18
38.57,8.79,0.59,8.80,0.60,-0.60,-0.34,-0.12,8.18,8.19,8.19
38.95,8.79,0.58,8.81,0.62,-0.62,-0.36,-0.15,8.17,8.19,8.20
39.34,8.82,0.62,8.82,0.63,-0.63,-0.39,-0.18,8.19,8.19,8.19
39.74,8.86,0.66,8.83,0.64,-0.64,-0.42,-0.20,8.22,8.19,8.19
40.14,8.89,0.69,8.84,0.65,-0.65,-0.44,-0.23,8.24,8.19,8.19
40.54,8.89,0.69,8.85,0.66,-0.66,-0.47,-0.26,8.22,8.19,8.19
40.94,8.89,0.70,8.86,0.68,-0.68,-0.49,-0.29,8.21,8.19,8.18
41.35,8.89,0.70,8.88,0.70,-0.70,-0.52,-0.31,8.19,8.18,8.18
41.76,8.89,0.71,8.89,0.72,-0.72,-0.54,-0.34,8.17,8.17,8.17
42.18,8.89,0.71,8.91,0.74,-0.74,-0.57,-0.37,8.15,8.17,8.17
42.60,8.89,0.72,8.92,0.77,-0.77,-0.60,-0.40,8.12,8.16,8.16
43.03,8.89,0.73,8.94,0.80,-0.80,-0.62,-0.43,8.09,8.14,8.15
43.46,8.91,0.76,8.96,0.82,-0.82,-0.65,-0.46,8.08,8.13,8.14
43.90,8.93,0.80,8.97,0.85,-0.85,-0.67,-0.49,8.08,8.12,8.12
44.33,8.99,0.88,8.98,0.87,-0.87,-0.70,-0.52,8.11,8.11,8.10
44.78,9.06,0.97,9.00,0.90,-0.90,-0.72,-0.55,8.15,8.10,8.08
45.23,9.09,1.01,9.02,0.94,-0.94,-0.75,-0.58,8.15,8.08,8.07
45.68,9.09,1.02,9.04,0.98,-0.98,-0.78,-0.61,8.11,8.07,8.06
46.13,9.09,1.04,9.07,1.01,-1.01,-0.80,-0.64,8.07,8.05,8.04
46.60,9.09,1.04,9.09,1.05,-1.05,-0.83,-0.67,8.04,8.04,8.04
47.06,9.09,1.06,9.11,1.08,-1.08,-0.86,-0.70,8.00,8.02,8.02
47.53,9.09,1.07,9.13,1.12,-1.12,-0.88,-0.73,7.97,8.01,8.01
48.01,9.09,1.07,9.14,1.15,-1.15,-0.91,-0.77,7.94,8.00,8.01
48.49,9.14,1.14,9.15,1.17,-1.17,-0.94,-0.80,7.96,7.98,7.99
48.97,9.20,1.22,9.16,1.20,-1.20,-0.96,-0.83,8.00,7.97,7.97
49.46,9.20,1.24,9.17,1.22,-1.22,-0.99,-0.86,7.98,7.96,7.95
49.96,9.20,1.26,9.18,1.24,-1.24,-1.02,-0.90,7.96,7.94,7.93
50.46,9.20,1.27,9.19,1.26,-1.26,-1.05,-0.93,7.94,7.93,7.92
50.96,9.20,1.28,9.20,1.28,-1.28,-1.07,-0.96,7.91,7.91,7.91
51.47,9.20,1.30,9.20,1.30,-1.30,-1.10,-1.00,7.90,7.90,7.89
51.99,9.20,1.31,9.20,1.31,-1.31,-1.13,-1.03,7.89,7.89,7.88
52.51,9.20,1.32,9.20,1.32,-1.32,-1.16,-1.07,7.87,7.88,7.87
53.03,9.20,1.32,9.20,1.33,-1.33,-1.19,-1.10,7.86,7.86,7.87
53.56,9.20,1.34,9.19,1.34,-1.34,-1.22,-1.14,7.86,7.85,7.85
54.10,9.20,1.35,9.17,1.33,-1.33,-1.25,-1.17,7.86,7.84,7.84
54.64,9.17,1.34,9.16,1.33,-1.33,-1.28,-1.21,7.84,7.83,7.82
55.18,9.15,1.32,9.15,1.33,-1.33,-1.31,-1.24,7.82,7.82,7.82
55.74,9.11,1.30,9.14,1.33,-1.33,-1.34,-1.28,7.78,7.81,7.80
56.29,9.09,1.29,9.12,1.32,-1.32,-1.37,-1.31,7.76,7.80,7.79
56.86,9.09,1.30,9.09,1.31,-1.31,-1.40,-1.35,7.77,7.78,7.78
57.42,9.09,1.33,9.07,1.30,-1.30,-1.43,-1.38,7.78,7.76,7.75
58.00,9.09,1.34,9.04,1.29,-1.29,-1.47,-1.42,7.79,7.75,7.74
58.58,9.03,1.29,9.01,1.29,-1.29,-1.50,-1.45,7.74,7.72,7.73
59.16,8.99,1.27,8.98,1.29,-1.29,-1.53,-1.49,7.70,7.70,7.71
59.76,8.98,1.28,8.95,1.28,-1.28,-1.56,-1.52,7.69,7.67,7.69
60.35,8.95,1.29,8.92,1.28,-1.28,-1.60,-1.56,7.66,7.64,7.65
60.96,8.89,1.27,8.90,1.29,-1.29,-1.63,-1.59,7.60,7.61,7.61
61.57,8.83,1.25,8.87,1.30,-1.30,-1.67,-1.63,7.53,7.57,7.57
62.18,8.79,1.25,8.84,1.30,-1.30,-1.70,-1.66,7.48,7.53,7.53
62.80,8.79,1.30,8.80,1.31,-1.31,-1.74,-1.70,7.47,7.49,7.48
63.43,8.79,1.34,8.77,1.32,-1.32,-1.77,-1.73,7.46,7.45,7.44
64.07,8.79,1.39,8.74,1.34,-1.34,-1.81,-1.76,7.45,7.40,7.39
64.71,8.77,1.41,8.73,1.37,-1.37,-1.85,-1.80,7.40,7.36,7.35
65.35,8.74,1.42,8.72,1.40,-1.40,-1.88,-1.83,7.33,7.31,7.31
66.01,8.69,1.42,8.71,1.45,-1.45,-1.92,-1.87,7.24,7.26,7.26
66.67,8.69,1.47,8.71,1.50,-1.50,-1.96,-1.90,7.19,7.22,7.21
67.33,8.69,1.52,8.72,1.55,-1.55,-2.00,-1.94,7.14,7.17,7.16
68.01,8.69,1.56,8.72,1.60,-1.60,-2.04,-1.97,7.08,7.12,7.12
68.69,8.69,1.61,8.74,1.67,-1.67,-2.07,-2.01,7.02,7.07,7.07
69.37,8.72,1.69,8.75,1.73,-1.73,-2.11,-2.04,6.98,7.02,7.02
70.07,8.79,1.81,8.77,1.81,-1.81,-2.15,-2.08,6.98,6.97,6.97
70.77,8.85,1.92,8.79,1.88,-1.88,-2.20,-2.12,6.97,6.91,6.92
71.48,8.88,2.00,8.82,1.96,-1.96,-2.24,-2.16,6.91,6.86,6.87
72.19,8.90,2.09,8.85,2.05,-2.05,-2.28,-2.20,6.84,6.80,6.80
72.91,8.89,2.14,8.89,2.14,-2.14,-2.32,-2.24,6.74,6.75,6.74
73.64,8.89,2.19,8.93,2.24,-2.24,-2.36,-2.28,6.65,6.69,6.69
74.38,8.93,2.29,8.96,2.33,-2.33,-2.41,-2.32,6.60,6.63,6.63
75.12,9.00,2.42,9.00,2.42,-2.42,-2.45,-2.37,6.58,6.58,6.57
75.87,9.06,2.54,9.03,2.51,-2.51,-2.50,-2.42,6.55,6.52,6.51
76.63,9.08,2.61,9.06,2.60,-2.60,-2.54,-2.46,6.48,6.47,6.46
77.40,9.09,2.67,9.10,2.68,-2.68,-2.59,-2.51,6.40,6.41,6.41
78.17,9.11,2.75,9.13,2.77,-2.77,-2.63,-2.56,6.34,6.36,6.35
78.95,9.20,2.88,9.16,2.85,-2.85,-2.68,-2.62,6.34,6.31,6.31
79.74,9.20,2.93,9.20,2.94,-2.94,-2.73,-2.67,6.25,6.26,6.26
80.54,9.22,3.00,9.24,3.03,-3.03,-2.78,-2.73,6.19,6.21,6.21
81.35,9.25,3.08,9.27,3.11,-3.11,-2.83,-2.79,6.14,6.16,6.16
82.16,9.30,3.18,9.31,3.19,-3.19,-2.88,-2.85,6.11,6.12,6.11
82.98,9.30,3.22,9.33,3.26,-3.26,-2.93,-2.91,6.04,6.07,6.07
83.81,9.36,3.33,9.35,3.32,-3.32,-2.98,-2.98,6.03,6.02,6.02
84.65,9.39,3.41,9.35,3.38,-3.38,-3.03,-3.05,6.01,5.97,5.97
85.50,9.40,3.46,9.35,3.43,-3.43,-3.08,-3.12,5.97,5.92,5.93
86.35,9.40,3.51,9.34,3.47,-3.47,-3.13,-3.19,5.93,5.88,5.88
87.22,9.40,3.56,9.33,3.50,-3.50,-3.19,-3.26,5.89,5.83,5.83
88.09,9.39,3.60,9.31,3.54,-3.54,-3.24,-3.34,5.85,5.78,5.78
88.97,9.31,3.58,9.30,3.58,-3.58,-3.29,-3.42,5.73,5.72,5.72
89.86,9.30,3.62,9.28,3.61,-3.61,-3.35,-3.50,5.69,5.67,5.67
90.76,9.26,3.63,9.26,3.64,-3.64,-3.40,-3.59,5.62,5.62,5.62
91.66,9.21,3.63,9.24,3.67,-3.67,-3.46,-3.68,5.53,5.57,5.57
92.58,9.14,3.62,9.23,3.71,-3.71,-3.52,-3.77,5.43,5.52,5.51
93.51,9.11,3.64,9.22,3.75,-3.75,-3.58,-3.86,5.36,5.47,5.46
94.44,9.16,3.73,9.22,3.80,-3.80,-3.63,-3.95,5.36,5.42,5.42
95.39,9.23,3.85,9.23,3.86,-3.86,-3.69,-4.05,5.37,5.37,5.37
96.34,9.28,3.95,9.24,3.92,-3.92,-3.75,-4.15,5.36,5.32,5.32
97.30,9.29,4.01,9.26,3.99,-3.99,-3.81,-4.25,5.30,5.27,5.27
98.28,9.29,4.06,9.29,4.07,-4.07,-3.87,-4.35,5.22,5.23,5.22
99.26,9.32,4.13,9.33,4.16,-4.16,-3.93,-4.46,5.16,5.18,5.18
100.25,9.40,4.26,9.37,4.24,-4.24,-4.00,-4.56,5.15,5.13,5.13
101.25,9.43,4.34,9.42,4.33,-4.33,-4.06,-4.67,5.09,5.08,5.08
102.27,9.44,4.40,9.46,4.43,-4.43,-4.12,-4.78,5.01,5.03,5.03
103.29,9.54,4.55,9.50,4.51,-4.51,-4.19,-4.89,5.02,4.99,4.98
104.32,9.59,4.64,9.53,4.60,-4.60,-4.25,-5.00,4.99,4.94,4.94
105.37,9.57,4.67,9.56,4.68,-4.68,-4.32,-5.11,4.89,4.88,4.89
106.42,9.57,4.72,9.59,4.75,-4.75,-4.38,-5.22,4.81,4.83,4.84
107.48,9.64,4.85,9.61,4.83,-4.83,-4.45,-5.33,4.80,4.78,4.78
108.56,9.69,4.95,9.64,4.91,-4.91,-4.52,-5.44,4.77,4.73,4.73
109.64,9.67,4.98,9.67,4.99,-4.99,-4.59,-5.54,4.68,4.68,4.68
110.74,9.66,5.03,9.69,5.07,-5.07,-4.66,-5.65,4.59,4.63,4.62
111.85,9.72,5.13,9.72,5.14,-5.14,-4.72,-5.75,4.58,4.57,4.58
112.97,9.73,5.20,9.74,5.22,-5.22,-4.79,-5.85,4.51,4.52,4.52
114.10,9.73,5.25,9.77,5.30,-5.30,-4.86,-5.95,4.43,4.48,4.47
115.24,9.82,5.39,9.80,5.37,-5.37,-4.94,-6.04,4.45,4.43,4.42
116.39,9.82,5.44,9.82,5.44,-5.44,-5.01,-6.12,4.38,4.38,4.37
117.55,9.83,5.49,9.86,5.52,-5.52,-5.08,-6.21,4.31,4.34,4.33
118.73,9.89,5.59,9.89,5.59,-5.59,-5.15,-6.28,4.30,4.30,4.29
119.92,9.94,5.67,9.92,5.66,-5.66,-5.23,-6.35,4.28,4.26,4.26
121.12,9.96,5.73,9.95,5.72,-5.72,-5.30,-6.42,4.23,4.23,4.22
122.33,10.02,5.82,9.98,5.79,-5.79,-5.37,-6.48,4.23,4.19,4.19
123.55,10.06,5.89,10.01,5.85,-5.85,-5.45,-6.53,4.20,4.16,4.16
124.79,10.07,5.93,10.04,5.91,-5.91,-5.52,-6.57,4.15,4.13,4.13
126.03,10.08,5.97,10.07,5.97,-5.97,-5.60,-6.61,4.10,4.10,4.10
127.29,10.08,5.99,10.10,6.04,-6.04,-5.67,-6.65,4.04,4.07,4.08
128.57,10.14,6.09,10.14,6.10,-6.10,-5.75,-6.67,4.04,4.04,4.04
129.85,10.20,6.18,10.18,6.16,-6.16,-5.83,-6.69,4.03,4.01,4.01
131.15,10.20,6.21,10.22,6.24,-6.24,-5.90,-6.70,3.96,3.98,3.98
132.46,10.21,6.25,10.26,6.30,-6.30,-5.98,-6.71,3.90,3.95,3.95
133.79,10.26,6.33,10.30,6.38,-6.38,-6.06,-6.71,3.88,3.93,3.92
135.12,10.33,6.43,10.35,6.45,-6.45,-6.14,-6.71,3.87,3.90,3.89
136.48,10.39,6.51,10.41,6.53,-6.53,-6.22,-6.71,3.85,3.87,3.87
137.84,10.46,6.62,10.46,6.62,-6.62,-6.29,-6.70,3.84,3.84,3.83
139.22,10.52,6.71,10.52,6.71,-6.71,-6.37,-6.68,3.81,3.82,3.80
140.61,10.60,6.82,10.58,6.79,-6.79,-6.45,-6.67,3.80,3.78,3.77
142.02,10.64,6.88,10.63,6.88,-6.88,-6.53,-6.65,3.76,3.75,3.75
143.44,10.70,6.97,10.68,6.97,-6.97,-6.61,-6.64,3.73,3.72,3.72
144.87,10.73,7.04,10.72,7.04,-7.04,-6.68,-6.62,3.68,3.68,3.68
146.32,10.73,7.08,10.75,7.12,-7.12,-6.76,-6.60,3.61,3.64,3.64
147.78,10.81,7.19,10.77,7.18,-7.18,-6.84,-6.58,3.62,3.59,3.61
149.26,10.83,7.26,10.77,7.23,-7.23,-6.92,-6.56,3.59,3.53,3.56
150.75,10.83,7.32,10.75,7.27,-7.27,-6.99,-6.55,3.55,3.47,3.50
152.26,10.80,7.36,10.71,7.30,-7.30,-7.07,-6.54,3.50,3.41,3.43
153.78,10.74,7.37,10.67,7.33,-7.33,-7.15,-6.52,3.41,3.35,3.36
155.32,10.72,7.42,10.64,7.36,-7.36,-7.22,-6.52,3.36,3.28,3.29
156.88,10.66,7.44,10.60,7.39,-7.39,-7.30,-6.51,3.26,3.21,3.21
158.44,10.56,7.42,10.56,7.43,-7.43,-7.37,-6.51,3.13,3.14,3.13
160.03,10.43,7.37,10.53,7.46,-7.46,-7.45,-6.51,2.97,3.07,3.05
161.63,10.39,7.40,10.50,7.50,-7.50,-7.52,-6.51,2.89,3.00,2.98
163.24,10.34,7.41,10.48,7.54,-7.54,-7.59,-6.52,2.80,2.94,2.92
164.88,10.32,7.44,10.47,7.58,-7.58,-7.66,-6.54,2.74,2.89,2.87
166.53,10.37,7.54,10.46,7.62,-7.62,-7.73,-6.55,2.74,2.84,2.82
168.19,10.47,7.68,10.47,7.67,-7.67,-7.80,-6.58,2.79,2.80,2.78
169.87,10.59,7.84,10.49,7.73,-7.73,-7.86,-6.60,2.86,2.77,2.74
171.57,10.60,7.87,10.52,7.78,-7.78,-7.93,-6.63,2.82,2.74,2.72
173.29,10.59,7.87,10.54,7.82,-7.82,-7.99,-6.67,2.77,2.72,2.71
175.02,10.59,7.88,10.57,7.87,-7.87,-8.05,-6.71,2.72,2.71,2.70
176.77,10.65,7.95,10.61,7.91,-7.91,-8.11,-6.76,2.74,2.70,2.69
178.54,10.68,7.99,10.63,7.94,-7.94,-8.17,-6.81,2.74,2.69,2.68
180.32,10.69,7.99,10.65,7.96,-7.96,-8.23,-6.87,2.72,2.68,2.69
182.13,10.69,7.98,10.66,7.98,-7.98,-8.28,-6.93,2.70,2.68,2.70
183.95,10.70,8.00,10.67,7.99,-7.99,-8.33,-6.99,2.70,2.67,2.69
185.79,10.71,8.01,10.66,7.99,-7.99,-8.38,-7.07,2.71,2.67,2.69
187.65,10.64,7.96,10.66,8.00,-8.00,-8.43,-7.14,2.64,2.66,2.67
189.52,10.64,7.97,10.66,8.01,-8.01,-8.47,-7.22,2.62,2.65,2.66
191.42,10.65,8.00,10.68,8.04,-8.04,-8.51,-7.31,2.60,2.64,2.64
193.33,10.67,8.04,10.70,8.08,-8.08,-8.55,-7.40,2.59,2.62,2.62
195.27,10.69,8.08,10.73,8.13,-8.13,-8.59,-7.50,2.56,2.60,2.60
197.22,10.70,8.11,10.77,8.18,-8.18,-8.62,-7.60,2.52,2.59,2.58
199.19,10.77,8.20,10.81,8.24,-8.24,-8.65,-7.70,2.52,2.57,2.56
201.18,10.82,8.27,10.86,8.31,-8.31,-8.68,-7.81,2.50,2.55,2.54
203.19,10.85,8.32,10.92,8.39,-8.39,-8.70,-7.92,2.46,2.52,2.52
205.23,10.97,8.46,10.97,8.47,-8.47,-8.72,-8.03,2.50,2.50,2.50
207.28,11.10,8.60,11.04,8.55,-8.55,-8.74,-8.14,2.54,2.48,2.49
209.35,11.16,8.68,11.10,8.63,-8.63,-8.75,-8.26,2.52,2.47,2.47
211.44,11.21,8.76,11.15,8.70,-8.70,-8.76,-8.38,2.50,2.45,2.44
213.56,11.22,8.78,11.20,8.77,-8.77,-8.77,-8.49,2.45,2.43,2.43
215.69,11.29,8.86,11.24,8.82,-8.82,-8.77,-8.61,2.47,2.42,2.42
217.85,11.31,8.89,11.27,8.86,-8.86,-8.77,-8.73,2.45,2.41,2.41
220.03,11.31,8.90,11.29,8.89,-8.89,-8.76,-8.84,2.42,2.40,2.40
222.23,11.31,8.93,11.30,8.91,-8.91,-8.76,-8.95,2.40,2.39,2.37
224.45,11.31,8.92,11.30,8.91,-8.91,-8.75,-9.06,2.39,2.39,2.38
226.70,11.31,8.92,11.30,8.91,-8.91,-8.73,-9.16,2.40,2.39,2.38
228.96,11.31,8.91,11.29,8.89,-8.89,-8.71,-9.25,2.41,2.40,2.39
231.25,11.24,8.83,11.27,8.87,-8.87,-8.69,-9.33,2.37,2.40,2.40
233.57,11.23,8.81,11.26,8.84,-8.84,-8.67,-9.41,2.39,2.41,2.41
235.90,11.21,8.78,11.24,8.81,-8.81,-8.64,-9.47,2.40,2.43,2.42
238.26,11.17,8.73,11.22,8.77,-8.77,-8.61,-9.53,2.39,2.45,2.43
240.64,11.17,8.70,11.19,8.73,-8.73,-8.57,-9.57,2.44,2.47,2.46
243.05,11.18,8.68,11.17,8.68,-8.68,-8.53,-9.59,2.49,2.49,2.49
245.48,11.15,8.63,11.14,8.63,-8.63,-8.49,-9.61,2.51,2.51,2.51
247.93,11.13,8.58,11.11,8.58,-8.58,-8.45,-9.60,2.55,2.53,2.54
250.41,11.13,8.56,11.07,8.51,-8.51,-8.40,-9.59,2.62,2.56,2.56
252.92,11.02,8.42,11.02,8.44,-8.44,-8.35,-9.55,2.58,2.58,2.59
255.45,10.99,8.37,10.96,8.36,-8.36,-8.30,-9.51,2.63,2.60,2.61
258.00,10.95,8.31,10.91,8.28,-8.28,-8.25,-9.44,2.67,2.63,2.63
260.58,10.90,8.24,10.85,8.19,-8.19,-8.19,-9.37,2.70,2.65,2.65
263.19,10.85,8.16,10.78,8.10,-8.10,-8.13,-9.28,2.75,2.68,2.68
265.82,10.72,8.01,10.71,8.01,-8.01,-8.07,-9.17,2.71,2.70,2.70
268.48,10.66,7.93,10.65,7.92,-7.92,-8.00,-9.06,2.73,2.73,2.72
271.16,10.53,7.77,10.59,7.84,-7.84,-7.93,-8.93,2.69,2.75,2.75
273.87,10.46,7.68,10.53,7.75,-7.75,-7.87,-8.80,2.70,2.78,2.77
276.61,10.39,7.58,10.48,7.67,-7.67,-7.80,-8.66,2.71,2.80,2.80
279.38,10.38,7.54,10.43,7.60,-7.60,-7.72,-8.51,2.78,2.83,2.83
282.17,10.38,7.52,10.39,7.53,-7.53,-7.65,-8.35,2.85,2.86,2.85
284.99,10.33,7.43,10.34,7.46,-7.46,-7.57,-8.19,2.87,2.89,2.89
287.84,10.29,7.37,10.31,7.39,-7.39,-7.50,-8.03,2.89,2.92,2.91
290.72,10.30,7.35,10.28,7.34,-7.34,-7.42,-7.87,2.96,2.95,2.94
293.63,10.32,7.34,10.26,7.28,-7.28,-7.34,-7.70,3.03,2.97,2.97
296.57,10.29,7.28,10.23,7.23,-7.23,-7.26,-7.53,3.06,3.00,3.00
299.53,10.18,7.14,10.20,7.17,-7.17,-7.18,-7.36,3.01,3.03,3.03
302.53,10.15,7.09,10.17,7.11,-7.11,-7.10,-7.19,3.04,3.06,3.05
305.55,10.14,7.04,10.12,7.04,-7.04,-7.01,-7.02,3.10,3.09,3.09
308.61,10.08,6.96,10.06,6.95,-6.95,-6.93,-6.86,3.12,3.11,3.11
311.69,10.03,6.88,10.00,6.86,-6.86,-6.84,-6.69,3.16,3.13,3.14
314.81,9.97,6.80,9.92,6.77,-6.77,-6.75,-6.53,3.20,3.16,3.16
317.96,9.90,6.71,9.84,6.66,-6.66,-6.67,-6.37,3.23,3.18,3.18
321.14,9.80,6.60,9.75,6.55,-6.55,-6.58,-6.22,3.24,3.20,3.19
324.35,9.66,6.44,9.65,6.44,-6.44,-6.49,-6.06,3.22,3.21,3.21
327.59,9.55,6.32,9.54,6.32,-6.32,-6.40,-5.91,3.23,3.23,3.22
330.87,9.43,6.19,9.44,6.20,-6.20,-6.31,-5.77,3.23,3.24,3.23
334.18,9.31,6.05,9.34,6.09,-6.09,-6.23,-5.62,3.22,3.25,3.25
337.52,9.19,5.92,9.24,5.97,-5.97,-6.14,-5.48,3.21,3.26,3.26
340.90,9.10,5.82,9.13,5.86,-5.86,-6.05,-5.35,3.24,3.27,3.27
344.30,9.06,5.77,9.02,5.75,-5.75,-5.95,-5.22,3.31,3.28,3.28
347.75,8.91,5.62,8.93,5.65,-5.65,-5.86,-5.09,3.26,3.28,3.28
351.23,8.81,5.51,8.84,5.55,-5.55,-5.77,-4.96,3.25,3.29,3.29
354.74,8.77,5.48,8.76,5.47,-5.47,-5.68,-4.84,3.30,3.29,3.28
358.28,8.64,5.34,8.68,5.39,-5.39,-5.59,-4.72,3.25,3.29,3.29
361.87,8.58,5.28,8.61,5.31,-5.31,-5.50,-4.61,3.26,3.29,3.29
365.49,8.59,5.28,8.54,5.25,-5.25,-5.41,-4.50,3.34,3.30,3.30
369.14,8.52,5.22,8.48,5.18,-5.18,-5.32,-4.39,3.33,3.30,3.29
372.83,8.42,5.12,8.42,5.13,-5.13,-5.23,-4.29,3.29,3.29,3.29
376.56,8.29,5.00,8.36,5.07,-5.07,-5.13,-4.19,3.21,3.29,3.28
380.33,8.31,5.01,8.30,5.02,-5.02,-5.04,-4.09,3.29,3.29,3.29
384.13,8.33,5.03,8.24,4.96,-4.96,-4.95,-3.99,3.37,3.28,3.29
387.97,8.17,4.88,8.18,4.90,-4.90,-4.86,-3.90,3.26,3.28,3.28
391.85,8.10,4.82,8.12,4.85,-4.85,-4.77,-3.81,3.25,3.28,3.27
395.77,8.07,4.78,8.05,4.78,-4.78,-4.67,-3.73,3.28,3.27,3.28
399.73,8.03,4.75,7.98,4.71,-4.71,-4.58,-3.64,3.31,3.26,3.27
403.72,7.96,4.68,7.90,4.65,-4.65,-4.49,-3.56,3.31,3.26,3.27
407.76,7.89,4.63,7.83,4.58,-4.58,-4.40,-3.48,3.31,3.25,3.25
411.84,7.80,4.54,7.77,4.52,-4.52,-4.30,-3.41,3.28,3.25,3.25
415.96,7.67,4.41,7.71,4.45,-4.45,-4.21,-3.33,3.21,3.25,3.25
420.12,7.60,4.34,7.64,4.39,-4.39,-4.12,-3.26,3.21,3.25,3.25
424.32,7.53,4.27,7.57,4.31,-4.31,-4.03,-3.19,3.22,3.26,3.25
428.56,7.46,4.19,7.51,4.24,-4.24,-3.93,-3.12,3.22,3.27,3.26
432.85,7.43,4.15,7.45,4.17,-4.17,-3.84,-3.05,3.26,3.29,3.27
437.18,7.31,4.02,7.39,4.09,-4.09,-3.75,-2.98,3.22,3.31,3.28
441.55,7.32,3.99,7.34,4.01,-4.01,-3.65,-2.92,3.31,3.33,3.32
445.96,7.39,4.03,7.28,3.92,-3.92,-3.56,-2.85,3.47,3.36,3.35
450.42,7.31,3.92,7.23,3.83,-3.83,-3.46,-2.79,3.47,3.40,3.38
454.93,7.18,3.74,7.18,3.74,-3.74,-3.37,-2.72,3.44,3.44,3.43
459.48,7.08,3.60,7.13,3.65,-3.65,-3.27,-2.66,3.43,3.48,3.47
464.07,7.09,3.56,7.08,3.55,-3.55,-3.18,-2.59,3.53,3.53,3.52
468.71,7.05,3.46,7.02,3.45,-3.45,-3.08,-2.53,3.60,3.58,3.58
473.40,6.95,3.32,6.95,3.33,-3.33,-2.99,-2.46,3.62,3.63,3.62
478.13,6.87,3.18,6.87,3.20,-3.20,-2.89,-2.40,3.67,3.67,3.68
482.91,6.81,3.08,6.79,3.07,-3.07,-2.79,-2.33,3.74,3.72,3.72
487.74,6.71,2.94,6.70,2.93,-2.93,-2.69,-2.26,3.77,3.76,3.76
492.62,6.61,2.79,6.59,2.80,-2.80,-2.59,-2.19,3.81,3.80,3.81
497.55,6.52,2.68,6.49,2.66,-2.66,-2.49,-2.13,3.85,3.83,3.83
502.52,6.42,2.55,6.38,2.53,-2.53,-2.39,-2.06,3.89,3.85,3.86
507.55,6.29,2.41,6.27,2.40,-2.40,-2.29,-1.98,3.89,3.87,3.87
512.62,6.10,2.21,6.14,2.27,-2.27,-2.19,-1.91,3.83,3.87,3.88
517.75,5.94,2.04,6.00,2.13,-2.13,-2.08,-1.84,3.80,3.87,3.89
522.93,5.80,1.91,5.85,2.00,-2.00,-1.97,-1.76,3.80,3.86,3.88
528.16,5.72,1.86,5.70,1.86,-1.86,-1.87,-1.69,3.86,3.84,3.85
533.44,5.58,1.75,5.53,1.72,-1.72,-1.76,-1.61,3.86,3.81,3.82
