frequency,raw,error,smoothed,error_smoothed,equalization,parametric_eq,fixed_band_eq,equalized_raw,equalized_smoothed,target
20.00,6.36,-1.60,6.36,-1.60,1.61,1.50,0.02,7.96,7.96,7.95
20.20,6.43,-1.58,6.42,-1.58,1.58,1.47,0.02,8.01,8.01,8.00
20.40,6.49,-1.57,6.49,-1.56,1.56,1.44,0.03,8.04,8.05,8.05
20.61,6.55,-1.53,6.56,-1.53,1.53,1.41,0.03,8.08,8.08,8.08
20.81,6.63,-1.51,6.63,-1.51,1.50,1.38,0.03,8.12,8.12,8.13
21.02,6.70,-1.48,6.69,-1.47,1.47,1.34,0.04,8.16,8.16,8.17
21.23,6.76,-1.44,6.76,-1.44,1.43,1.31,0.04,8.19,8.19,8.19
21.44,6.82,-1.40,6.82,-1.40,1.40,1.28,0.05,8.21,8.21,8.21
21.66,6.88,-1.36,6.88,-1.35,1.36,1.24,0.05,8.23,8.24,8.23
21.87,6.94,-1.31,6.94,-1.31,1.32,1.21,0.05,8.26,8.26,8.24
22.09,7.00,-1.27,6.99,-1.27,1.28,1.17,0.06,8.27,8.27,8.26
22.31,7.04,-1.24,7.04,-1.23,1.23,1.14,0.06,8.27,8.27,8.27
22.54,7.08,-1.20,7.08,-1.20,1.19,1.10,0.07,8.26,8.27,8.27
22.76,7.12,-1.16,7.11,-1.16,1.14,1.06,0.07,8.26,8.26,8.27
22.99,7.16,-1.11,7.16,-1.11,1.09,1.03,0.08,8.25,8.25,8.26
23.22,7.21,-1.06,7.21,-1.05,1.05,0.99,0.08,8.25,8.26,8.26
23.45,7.27,-1.00,7.27,-1.00,1.00,0.96,0.09,8.27,8.27,8.26
23.69,7.33,-0.95,7.32,-0.94,0.96,0.92,0.10,8.29,8.29,8.27
23.92,7.38,-0.90,7.37,-0.90,0.92,0.88,0.10,8.30,8.29,8.27
24.16,7.41,-0.87,7.41,-0.87,0.89,0.85,0.11,8.29,8.29,8.27
24.40,7.43,-0.86,7.43,-0.85,0.85,0.81,0.11,8.28,8.28,8.28
24.65,7.45,-0.83,7.45,-0.83,0.82,0.78,0.12,8.26,8.26,8.27
24.89,7.47,-0.81,7.47,-0.80,0.78,0.74,0.13,8.25,8.25,8.27
25.14,7.51,-0.77,7.51,-0.77,0.75,0.71,0.13,8.25,8.26,8.27
25.39,7.56,-0.73,7.56,-0.72,0.71,0.67,0.14,8.27,8.27,8.28
25.65,7.62,-0.67,7.61,-0.67,0.67,0.64,0.15,8.29,8.28,8.28
25.91,7.67,-0.61,7.66,-0.61,0.63,0.60,0.15,8.30,8.29,8.27
26.16,7.71,-0.57,7.70,-0.57,0.59,0.57,0.16,8.30,8.29,8.27
26.43,7.74,-0.54,7.74,-0.54,0.54,0.53,0.16,8.28,8.28,8.27
26.69,7.77,-0.51,7.76,-0.51,0.50,0.50,0.17,8.27,8.26,8.27
26.96,7.80,-0.48,7.80,-0.47,0.45,0.47,0.17,8.25,8.25,8.27
27.23,7.84,-0.44,7.84,-0.43,0.41,0.44,0.18,8.25,8.25,8.27
27.50,7.90,-0.38,7.89,-0.38,0.37,0.40,0.18,8.27,8.26,8.27
27.77,7.95,-0.32,7.95,-0.32,0.33,0.37,0.19,8.28,8.27,8.26
28.05,8.00,-0.27,7.99,-0.27,0.29,0.34,0.19,8.28,8.28,8.26
28.33,8.02,-0.24,8.02,-0.24,0.25,0.31,0.19,8.26,8.27,8.25
28.62,8.05,-0.21,8.05,-0.21,0.21,0.28,0.20,8.25,8.26,8.25
28.90,8.08,-0.19,8.08,-0.18,0.17,0.24,0.20,8.25,8.25,8.26
29.19,8.11,-0.15,8.11,-0.15,0.15,0.21,0.20,8.25,8.25,8.25
29.48,8.14,-0.13,8.14,-0.12,0.12,0.18,0.20,8.26,8.26,8.26
29.78,8.17,-0.09,8.16,-0.09,0.10,0.15,0.20,8.27,8.27,8.25
30.08,8.19,-0.08,8.19,-0.07,0.08,0.12,0.20,8.26,8.26,8.26
30.38,8.21,-0.05,8.20,-0.06,0.05,0.09,0.19,8.25,8.25,8.25
30.68,8.22,-0.04,8.21,-0.04,0.02,0.06,0.19,8.23,8.23,8.25
30.99,8.23,-0.03,8.24,-0.01,-0.01,0.03,0.19,8.21,8.23,8.25
31.30,8.28,0.03,8.28,0.03,-0.04,0.00,0.18,8.23,8.24,8.24
31.61,8.33,0.08,8.32,0.08,-0.07,-0.02,0.17,8.26,8.26,8.24
31.93,8.38,0.13,8.36,0.13,-0.10,-0.05,0.17,8.28,8.27,8.24
32.24,8.39,0.15,8.38,0.15,-0.12,-0.08,0.16,8.26,8.26,8.23
32.57,8.39,0.15,8.39,0.16,-0.15,-0.11,0.15,8.23,8.24,8.23
32.89,8.39,0.15,8.39,0.16,-0.18,-0.14,0.14,8.21,8.21,8.23
33.22,8.41,0.18,8.41,0.19,-0.21,-0.16,0.12,8.20,8.21,8.22
33.55,8.45,0.22,8.44,0.22,-0.23,-0.19,0.11,8.21,8.21,8.22
33.89,8.48,0.26,8.48,0.26,-0.27,-0.22,0.10,8.21,8.21,8.21
34.23,8.51,0.29,8.51,0.30,-0.30,-0.24,0.08,8.21,8.21,8.21
34.57,8.55,0.34,8.54,0.34,-0.34,-0.27,0.07,8.21,8.20,8.20
34.92,8.58,0.37,8.58,0.38,-0.38,-0.29,0.05,8.20,8.20,8.20
35.27,8.62,0.42,8.62,0.42,-0.41,-0.32,0.03,8.20,8.21,8.19
35.62,8.65,0.45,8.65,0.46,-0.44,-0.34,0.01,8.20,8.21,8.19
35.97,8.69,0.49,8.67,0.48,-0.47,-0.36,-0.01,8.22,8.20,8.19
36.33,8.69,0.49,8.68,0.50,-0.49,-0.39,-0.03,8.19,8.19,8.19
36.70,8.69,0.50,8.69,0.51,-0.51,-0.41,-0.05,8.17,8.18,8.18
37.06,8.70,0.51,8.70,0.52,-0.53,-0.43,-0.07,8.17,8.17,8.18
37.43,8.73,0.53,8.73,0.54,-0.54,-0.46,-0.09,8.18,8.18,8.19
37.81,8.76,0.56,8.75,0.56,-0.56,-0.48,-0.11,8.20,8.19,8.19
38.19,8.78,0.59,8.77,0.58,-0.58,-0.50,-0.13,8.20,8.20,8.18
38.57,8.79,0.59,8.78,0.59,-0.60,-0.52,-0.16,8.19,8.19,8.19
38.95,8.79,0.58,8.80,0.60,-0.62,-0.55,-0.18,8.17,8.18,8.20
39.34,8.82,0.62,8.82,0.63,-0.64,-0.57,-0.21,8.18,8.19,8.19
39.74,8.86,0.66,8.85,0.66,-0.65,-0.59,-0.23,8.20,8.20,8.19
40.14,8.89,0.69,8.88,0.69,-0.67,-0.61,-0.26,8.22,8.21,8.19
40.54,8.89,0.69,8.89,0.70,-0.68,-0.63,-0.28,8.20,8.21,8.19
40.94,8.89,0.70,8.89,0.70,-0.69,-0.65,-0.31,8.19,8.20,8.18
41.35,8.89,0.70,8.89,0.71,-0.70,-0.67,-0.33,8.19,8.19,8.18
41.76,8.89,0.71,8.89,0.71,-0.71,-0.70,-0.36,8.18,8.18,8.17
42.18,8.89,0.71,8.88,0.71,-0.72,-0.72,-0.39,8.17,8.17,8.17
42.60,8.89,0.72,8.89,0.72,-0.73,-0.74,-0.41,8.15,8.15,8.16
43.03,8.89,0.73,8.89,0.73,-0.76,-0.76,-0.44,8.12,8.13,8.15
43.46,8.91,0.76,8.90,0.76,-0.80,-0.78,-0.47,8.11,8.10,8.14
43.90,8.93,0.80,8.94,0.82,-0.84,-0.80,-0.50,8.09,8.10,8.12
44.33,8.99,0.88,8.99,0.89,-0.88,-0.83,-0.53,8.10,8.11,8.10
44.78,9.06,0.97,9.04,0.96,-0.93,-0.85,-0.55,8.13,8.11,8.08
45.23,9.09,1.01,9.08,1.01,-0.97,-0.87,-0.58,8.12,8.11,8.07
45.68,9.09,1.02,9.09,1.03,-1.00,-0.89,-0.61,8.09,8.09,8.06
46.13,9.09,1.04,9.09,1.04,-1.03,-0.92,-0.64,8.06,8.06,8.04
46.60,9.09,1.04,9.09,1.05,-1.06,-0.94,-0.67,8.03,8.03,8.04
47.06,9.09,1.06,9.08,1.06,-1.08,-0.96,-0.70,8.01,8.00,8.02
47.53,9.09,1.07,9.08,1.06,-1.10,-0.99,-0.74,7.98,7.98,8.01
48.01,9.09,1.07,9.11,1.10,-1.13,-1.01,-0.77,7.96,7.98,8.01
48.49,9.14,1.14,9.14,1.15,-1.15,-1.03,-0.80,7.98,7.98,7.99
48.97,9.20,1.22,9.17,1.20,-1.19,-1.06,-0.83,8.01,7.99,7.97
49.46,9.20,1.24,9.20,1.25,-1.22,-1.08,-0.86,7.98,7.98,7.95
49.96,9.20,1.26,9.20,1.27,-1.25,-1.11,-0.90,7.95,7.96,7.93
50.46,9.20,1.27,9.20,1.27,-1.27,-1.13,-0.93,7.92,7.92,7.92
50.96,9.20,1.28,9.20,1.29,-1.29,-1.16,-0.96,7.90,7.90,7.91
51.47,9.20,1.30,9.20,1.30,-1.31,-1.18,-1.00,7.89,7.89,7.89
51.99,9.20,1.31,9.20,1.31,-1.32,-1.21,-1.03,7.87,7.87,7.88
52.51,9.20,1.32,9.20,1.32,-1.33,-1.24,-1.07,7.87,7.87,7.87
53.03,9.20,1.32,9.20,1.33,-1.33,-1.26,-1.10,7.87,7.87,7.87
53.56,9.20,1.34,9.20,1.34,-1.33,-1.29,-1.13,7.86,7.87,7.85
54.10,9.20,1.35,9.19,1.35,-1.33,-1.32,-1.17,7.86,7.86,7.84
54.64,9.17,1.34,9.17,1.34,-1.33,-1.35,-1.20,7.84,7.84,7.82
55.18,9.15,1.32,9.14,1.32,-1.33,-1.37,-1.24,7.82,7.81,7.82
55.74,9.11,1.30,9.11,1.30,-1.33,-1.40,-1.28,7.78,7.78,7.80
56.29,9.09,1.29,9.09,1.30,-1.32,-1.43,-1.31,7.76,7.77,7.79
56.86,9.09,1.30,9.09,1.31,-1.32,-1.46,-1.35,7.77,7.77,7.78
57.42,9.09,1.33,9.09,1.33,-1.31,-1.49,-1.38,7.78,7.78,7.75
58.00,9.09,1.34,9.07,1.32,-1.30,-1.52,-1.42,7.78,7.76,7.74
58.58,9.03,1.29,9.04,1.31,-1.30,-1.55,-1.45,7.73,7.74,7.73
59.16,8.99,1.27,9.00,1.29,-1.29,-1.58,-1.49,7.70,7.72,7.71
59.76,8.98,1.28,8.97,1.28,-1.28,-1.62,-1.52,7.70,7.69,7.69
60.35,8.95,1.29,8.93,1.28,-1.28,-1.65,-1.56,7.67,7.66,7.65
60.96,8.89,1.27,8.88,1.27,-1.28,-1.68,-1.59,7.61,7.61,7.61
61.57,8.83,1.25,8.83,1.26,-1.28,-1.71,-1.63,7.54,7.55,7.57
62.18,8.79,1.25,8.80,1.27,-1.29,-1.75,-1.66,7.49,7.50,7.53
62.80,8.79,1.30,8.78,1.30,-1.31,-1.78,-1.70,7.47,7.47,7.48
63.43,8.79,1.34,8.78,1.34,-1.33,-1.82,-1.73,7.45,7.45,7.44
64.07,8.79,1.39,8.78,1.39,-1.36,-1.85,-1.76,7.43,7.43,7.39
64.71,8.77,1.41,8.76,1.41,-1.38,-1.89,-1.80,7.38,7.38,7.35
65.35,8.74,1.42,8.73,1.42,-1.41,-1.92,-1.83,7.32,7.32,7.31
66.01,8.69,1.42,8.70,1.44,-1.44,-1.96,-1.87,7.24,7.26,7.26
66.67,8.69,1.47,8.69,1.47,-1.48,-2.00,-1.90,7.21,7.20,7.21
67.33,8.69,1.52,8.68,1.51,-1.53,-2.03,-1.94,7.16,7.15,7.16
68.01,8.69,1.56,8.68,1.56,-1.58,-2.07,-1.97,7.10,7.10,7.12
68.69,8.69,1.61,8.69,1.62,-1.65,-2.11,-2.01,7.04,7.05,7.07
69.37,8.72,1.69,8.73,1.71,-1.72,-2.15,-2.05,6.99,7.01,7.02
70.07,8.79,1.81,8.78,1.81,-1.80,-2.19,-2.08,6.98,6.98,6.97
70.77,8.85,1.92,8.84,1.91,-1.88,-2.23,-2.12,6.96,6.95,6.92
71.48,8.88,2.00,8.88,2.01,-1.97,-2.27,-2.16,6.90,6.90,6.87
72.19,8.90,2.09,8.89,2.08,-2.06,-2.31,-2.20,6.83,6.82,6.80
72.91,8.89,2.14,8.89,2.14,-2.15,-2.35,-2.24,6.73,6.73,6.74
73.64,8.89,2.19,8.90,2.21,-2.24,-2.39,-2.28,6.64,6.66,6.69
74.38,8.93,2.29,8.94,2.31,-2.33,-2.44,-2.33,6.59,6.61,6.63
75.12,9.00,2.42,8.99,2.42,-2.42,-2.48,-2.37,6.58,6.57,6.57
75.87,9.06,2.54,9.04,2.53,-2.51,-2.52,-2.42,6.55,6.54,6.51
76.63,9.08,2.61,9.07,2.61,-2.59,-2.57,-2.46,6.48,6.47,6.46
77.40,9.09,2.67,9.10,2.69,-2.68,-2.61,-2.51,6.40,6.41,6.41
78.17,9.11,2.75,9.13,2.77,-2.77,-2.66,-2.56,6.33,6.36,6.35
78.95,9.20,2.88,9.16,2.85,-2.86,-2.71,-2.62,6.34,6.31,6.31
79.74,9.20,2.93,9.20,2.94,-2.94,-2.75,-2.67,6.26,6.26,6.26
80.54,9.22,3.00,9.23,3.02,-3.02,-2.80,-2.73,6.20,6.21,6.21
81.35,9.25,3.08,9.25,3.08,-3.10,-2.85,-2.79,6.15,6.15,6.16
82.16,9.30,3.18,9.28,3.16,-3.18,-2.90,-2.85,6.12,6.10,6.11
82.98,9.30,3.22,9.32,3.25,-3.25,-2.95,-2.91,6.04,6.06,6.07
83.81,9.36,3.33,9.35,3.33,-3.33,-3.00,-2.98,6.03,6.02,6.02
84.65,9.39,3.41,9.38,3.40,-3.40,-3.05,-3.05,5.99,5.98,5.97
85.50,9.40,3.46,9.40,3.47,-3.46,-3.10,-3.12,5.94,5.94,5.93
86.35,9.40,3.51,9.41,3.52,-3.51,-3.15,-3.19,5.89,5.90,5.88
87.22,9.40,3.56,9.39,3.56,-3.55,-3.20,-3.26,5.85,5.84,5.83
88.09,9.39,3.60,9.37,3.59,-3.57,-3.26,-3.34,5.81,5.79,5.78
88.97,9.31,3.58,9.33,3.61,-3.59,-3.31,-3.42,5.72,5.74,5.72
89.86,9.30,3.62,9.29,3.62,-3.60,-3.37,-3.50,5.69,5.69,5.67
90.76,9.26,3.63,9.25,3.62,-3.62,-3.42,-3.59,5.64,5.63,5.62
91.66,9.21,3.63,9.19,3.63,-3.64,-3.48,-3.67,5.57,5.55,5.57
92.58,9.14,3.62,9.14,3.63,-3.67,-3.53,-3.76,5.46,5.47,5.51
93.51,9.11,3.64,9.13,3.66,-3.71,-3.59,-3.86,5.39,5.42,5.46
94.44,9.16,3.73,9.16,3.74,-3.77,-3.65,-3.95,5.39,5.39,5.42
95.39,9.23,3.85,9.21,3.84,-3.83,-3.71,-4.05,5.40,5.39,5.37
96.34,9.28,3.95,9.26,3.94,-3.90,-3.77,-4.15,5.38,5.36,5.32
97.30,9.29,4.01,9.28,4.01,-3.98,-3.83,-4.25,5.30,5.30,5.27
98.28,9.29,4.06,9.30,4.08,-4.08,-3.89,-4.35,5.21,5.23,5.22
99.26,9.32,4.13,9.33,4.16,-4.17,-3.95,-4.45,5.15,5.17,5.18
100.25,9.40,4.26,9.37,4.24,-4.26,-4.01,-4.56,5.14,5.11,5.13
101.25,9.43,4.34,9.42,4.34,-4.34,-4.07,-4.67,5.08,5.07,5.08
102.27,9.44,4.40,9.48,4.44,-4.43,-4.14,-4.77,5.01,5.05,5.03
103.29,9.54,4.55,9.52,4.53,-4.52,-4.20,-4.88,5.02,5.00,4.98
104.32,9.59,4.64,9.55,4.61,-4.60,-4.26,-4.99,4.98,4.95,4.94
105.37,9.57,4.67,9.58,4.69,-4.69,-4.33,-5.10,4.88,4.89,4.89
106.42,9.57,4.72,9.60,4.76,-4.77,-4.40,-5.21,4.80,4.83,4.84
107.48,9.64,4.85,9.63,4.84,-4.84,-4.46,-5.32,4.79,4.79,4.78
108.56,9.69,4.95,9.65,4.92,-4.91,-4.53,-5.43,4.77,4.74,4.73
109.64,9.67,4.98,9.68,5.00,-4.99,-4.60,-5.54,4.68,4.69,4.68
110.74,9.66,5.03,9.69,5.06,-5.06,-4.67,-5.64,4.60,4.63,4.62
111.85,9.72,5.13,9.69,5.11,-5.13,-4.73,-5.74,4.58,4.56,4.58
112.97,9.73,5.20,9.72,5.20,-5.21,-4.80,-5.84,4.52,4.52,4.52
114.10,9.73,5.25,9.76,5.29,-5.28,-4.87,-5.94,4.44,4.48,4.47
115.24,9.82,5.39,9.78,5.36,-5.36,-4.94,-6.03,4.46,4.42,4.42
116.39,9.82,5.44,9.81,5.44,-5.44,-5.02,-6.12,4.38,4.38,4.37
117.55,9.83,5.49,9.85,5.52,-5.52,-5.09,-6.20,4.31,4.33,4.33
118.73,9.89,5.59,9.88,5.58,-5.60,-5.16,-6.28,4.29,4.28,4.29
119.92,9.94,5.67,9.92,5.66,-5.67,-5.23,-6.35,4.27,4.25,4.26
121.12,9.96,5.73,9.97,5.75,-5.74,-5.31,-6.41,4.22,4.24,4.22
122.33,10.02,5.82,10.01,5.82,-5.80,-5.38,-6.47,4.21,4.21,4.19
123.55,10.06,5.89,10.05,5.88,-5.87,-5.46,-6.52,4.19,4.18,4.16
124.79,10.07,5.93,10.06,5.93,-5.93,-5.53,-6.57,4.14,4.14,4.13
126.03,10.08,5.97,10.07,5.97,-5.98,-5.61,-6.61,4.09,4.09,4.10
127.29,10.08,5.99,10.10,6.02,-6.04,-5.68,-6.64,4.04,4.06,4.08
128.57,10.14,6.09,10.14,6.09,-6.09,-5.76,-6.67,4.05,4.05,4.04
129.85,10.20,6.18,10.17,6.16,-6.15,-5.83,-6.69,4.05,4.02,4.01
131.15,10.20,6.21,10.20,6.22,-6.21,-5.91,-6.70,3.99,3.99,3.98
132.46,10.21,6.25,10.22,6.27,-6.28,-5.99,-6.71,3.93,3.94,3.95
133.79,10.26,6.33,10.26,6.33,-6.36,-6.07,-6.71,3.90,3.90,3.92
135.12,10.33,6.43,10.32,6.42,-6.44,-6.14,-6.71,3.88,3.88,3.89
136.48,10.39,6.51,10.39,6.52,-6.53,-6.22,-6.70,3.86,3.86,3.87
137.84,10.46,6.62,10.46,6.62,-6.62,-6.30,-6.69,3.84,3.84,3.83
139.22,10.52,6.71,10.52,6.72,-6.70,-6.38,-6.68,3.81,3.82,3.80
140.61,10.60,6.82,10.59,6.81,-6.79,-6.46,-6.67,3.80,3.79,3.77
142.02,10.64,6.88,10.65,6.90,-6.88,-6.53,-6.65,3.75,3.76,3.75
143.44,10.70,6.97,10.68,6.97,-6.97,-6.61,-6.63,3.73,3.71,3.72
144.87,10.73,7.04,10.72,7.03,-7.05,-6.69,-6.62,3.68,3.67,3.68
146.32,10.73,7.08,10.76,7.11,-7.12,-6.77,-6.60,3.60,3.63,3.64
147.78,10.81,7.19,10.79,7.18,-7.19,-6.84,-6.58,3.61,3.60,3.61
149.26,10.83,7.26,10.82,7.26,-7.25,-6.92,-6.56,3.57,3.57,3.56
150.75,10.83,7.32,10.82,7.32,-7.31,-7.00,-6.55,3.52,3.51,3.50
152.26,10.80,7.36,10.79,7.36,-7.35,-7.07,-6.53,3.45,3.44,3.43
153.78,10.74,7.37,10.76,7.39,-7.38,-7.15,-6.52,3.36,3.38,3.36
155.32,10.72,7.42,10.71,7.42,-7.39,-7.23,-6.51,3.32,3.32,3.29
156.88,10.66,7.44,10.64,7.42,-7.39,-7.30,-6.51,3.26,3.24,3.21
158.44,10.56,7.42,10.55,7.42,-7.40,-7.38,-6.51,3.16,3.15,3.13
160.03,10.43,7.37,10.45,7.40,-7.41,-7.45,-6.51,3.02,3.05,3.05
161.63,10.39,7.40,10.37,7.39,-7.44,-7.52,-6.51,2.95,2.94,2.98
163.24,10.34,7.41,10.33,7.41,-7.48,-7.59,-6.52,2.86,2.85,2.92
164.88,10.32,7.44,10.33,7.46,-7.53,-7.66,-6.53,2.79,2.80,2.87
166.53,10.37,7.54,10.38,7.56,-7.59,-7.73,-6.55,2.78,2.79,2.82
168.19,10.47,7.68,10.47,7.69,-7.66,-7.80,-6.57,2.81,2.81,2.78
169.87,10.59,7.84,10.55,7.80,-7.73,-7.87,-6.60,2.85,2.81,2.74
171.57,10.60,7.87,10.59,7.86,-7.81,-7.93,-6.63,2.79,2.78,2.72
173.29,10.59,7.87,10.60,7.89,-7.87,-7.99,-6.67,2.71,2.73,2.71
175.02,10.59,7.88,10.61,7.91,-7.93,-8.06,-6.71,2.66,2.68,2.70
176.77,10.65,7.95,10.64,7.94,-7.96,-8.11,-6.76,2.68,2.67,2.69
178.54,10.68,7.99,10.67,7.98,-7.98,-8.17,-6.81,2.70,2.69,2.68
180.32,10.69,7.99,10.69,8.00,-7.98,-8.23,-6.87,2.70,2.70,2.69
182.13,10.69,7.98,10.70,8.00,-7.98,-8.28,-6.93,2.70,2.72,2.70
183.95,10.70,8.00,10.69,8.00,-7.98,-8.33,-6.99,2.71,2.71,2.69
185.79,10.71,8.01,10.68,7.99,-7.99,-8.38,-7.07,2.72,2.69,2.69
187.65,10.64,7.96,10.66,7.98,-7.99,-8.43,-7.14,2.64,2.66,2.67
189.52,10.64,7.97,10.64,7.98,-8.00,-8.47,-7.22,2.64,2.64,2.66
191.42,10.65,8.00,10.64,8.00,-8.01,-8.51,-7.31,2.63,2.63,2.64
193.33,10.67,8.04,10.66,8.04,-8.04,-8.55,-7.40,2.63,2.62,2.62
195.27,10.69,8.08,10.68,8.08,-8.08,-8.59,-7.50,2.61,2.60,2.60
197.22,10.70,8.11,10.72,8.13,-8.13,-8.62,-7.60,2.56,2.58,2.58
199.19,10.77,8.20,10.75,8.19,-8.21,-8.65,-7.70,2.56,2.55,2.56
201.18,10.82,8.27,10.80,8.26,-8.29,-8.68,-7.81,2.53,2.51,2.54
203.19,10.85,8.32,10.88,8.36,-8.38,-8.70,-7.92,2.47,2.50,2.52
205.23,10.97,8.46,10.97,8.46,-8.47,-8.72,-8.03,2.49,2.50,2.50
207.28,11.10,8.60,11.07,8.58,-8.56,-8.74,-8.14,2.53,2.51,2.49
209.35,11.16,8.68,11.15,8.68,-8.65,-8.75,-8.26,2.51,2.50,2.47
211.44,11.21,8.76,11.20,8.75,-8.73,-8.76,-8.38,2.48,2.47,2.44
213.56,11.22,8.78,11.24,8.81,-8.80,-8.77,-8.49,2.42,2.44,2.43
215.69,11.29,8.86,11.27,8.85,-8.86,-8.77,-8.61,2.43,2.42,2.42
217.85,11.31,8.89,11.30,8.89,-8.89,-8.77,-8.73,2.41,2.40,2.41
220.03,11.31,8.90,11.31,8.92,-8.92,-8.76,-8.84,2.39,2.39,2.40
222.23,11.31,8.93,11.31,8.92,-8.92,-8.76,-8.95,2.38,2.38,2.37
224.45,11.31,8.92,11.31,8.93,-8.92,-8.75,-9.06,2.39,2.39,2.38
226.70,11.31,8.92,11.30,8.92,-8.91,-8.73,-9.16,2.40,2.40,2.38
228.96,11.31,8.91,11.28,8.89,-8.89,-8.71,-9.25,2.42,2.40,2.39
231.25,11.24,8.83,11.26,8.86,-8.86,-8.69,-9.33,2.38,2.40,2.40
233.57,11.23,8.81,11.22,8.81,-8.83,-8.67,-9.41,2.40,2.40,2.41
235.90,11.21,8.78,11.19,8.77,-8.79,-8.64,-9.47,2.41,2.40,2.42
238.26,11.17,8.73,11.18,8.74,-8.76,-8.61,-9.53,2.41,2.43,2.43
240.64,11.17,8.70,11.17,8.71,-8.71,-8.57,-9.57,2.45,2.46,2.46
243.05,11.18,8.68,11.16,8.67,-8.67,-8.53,-9.59,2.51,2.49,2.49
245.48,11.15,8.63,11.16,8.64,-8.63,-8.49,-9.61,2.52,2.53,2.51
247.93,11.13,8.58,11.13,8.59,-8.58,-8.45,-9.60,2.55,2.56,2.54
250.41,11.13,8.56,11.09,8.52,-8.52,-8.40,-9.59,2.60,2.57,2.56
252.92,11.02,8.42,11.04,8.45,-8.46,-8.35,-9.55,2.55,2.58,2.59
255.45,10.99,8.37,10.99,8.38,-8.39,-8.30,-9.51,2.59,2.60,2.61
258.00,10.95,8.31,10.94,8.31,-8.31,-8.24,-9.44,2.64,2.63,2.63
260.58,10.90,8.24,10.89,8.24,-8.22,-8.19,-9.37,2.68,2.68,2.65
263.19,10.85,8.16,10.83,8.15,-8.11,-8.13,-9.28,2.73,2.71,2.68
265.82,10.72,8.01,10.74,8.04,-8.01,-8.07,-9.17,2.70,2.73,2.70
268.48,10.66,7.93,10.64,7.91,-7.91,-8.00,-9.06,2.75,2.73,2.72
271.16,10.53,7.77,10.53,7.79,-7.81,-7.93,-8.93,2.72,2.72,2.75
273.87,10.46,7.68,10.46,7.68,-7.72,-7.87,-8.80,2.74,2.74,2.77
276.61,10.39,7.58,10.40,7.60,-7.63,-7.80,-8.66,2.76,2.77,2.80
279.38,10.38,7.54,10.38,7.55,-7.56,-7.72,-8.51,2.82,2.82,2.83
282.17,10.38,7.52,10.35,7.49,-7.50,-7.65,-8.35,2.88,2.85,2.85
284.99,10.33,7.43,10.33,7.44,-7.44,-7.57,-8.19,2.88,2.88,2.89
287.84,10.29,7.37,10.31,7.39,-7.39,-7.50,-8.03,2.89,2.92,2.91
290.72,10.30,7.35,10.31,7.36,-7.35,-7.42,-7.86,2.95,2.96,2.94
293.63,10.32,7.34,10.29,7.32,-7.30,-7.34,-7.70,3.02,3.00,2.97
296.57,10.29,7.28,10.26,7.26,-7.24,-7.26,-7.53,3.05,3.02,3.00
299.53,10.18,7.14,10.21,7.18,-7.18,-7.18,-7.36,2.99,3.03,3.03
302.53,10.15,7.09,10.16,7.10,-7.12,-7.09,-7.19,3.03,3.04,3.05
305.55,10.14,7.04,10.11,7.03,-7.05,-7.01,-7.02,3.09,3.07,3.09
308.61,10.08,6.96,10.08,6.97,-6.97,-6.93,-6.85,3.11,3.11,3.11
311.69,10.03,6.88,10.03,6.89,-6.88,-6.84,-6.69,3.14,3.15,3.14
314.81,9.97,6.80,9.97,6.81,-6.79,-6.75,-6.53,3.18,3.18,3.16
317.96,9.90,6.71,9.89,6.71,-6.68,-6.67,-6.37,3.21,3.21,3.18
321.14,9.80,6.60,9.79,6.59,-6.57,-6.58,-6.21,3.23,3.22,3.19
324.35,9.66,6.44,9.67,6.46,-6.45,-6.49,-6.06,3.20,3.22,3.21
327.59,9.55,6.32,9.55,6.32,-6.33,-6.40,-5.91,3.22,3.22,3.22
330.87,9.43,6.19,9.42,6.18,-6.20,-6.31,-5.76,3.22,3.22,3.23
334.18,9.31,6.05,9.30,6.05,-6.08,-6.22,-5.62,3.23,3.23,3.25
337.52,9.19,5.92,9.20,5.94,-5.95,-6.13,-5.48,3.24,3.25,3.26
340.90,9.10,5.82,9.11,5.84,-5.83,-6.04,-5.34,3.26,3.28,3.27
344.30,9.06,5.77,9.01,5.73,-5.73,-5.95,-5.21,3.33,3.29,3.28
347.75,8.91,5.62,8.93,5.64,-5.63,-5.86,-5.08,3.28,3.30,3.28
351.23,8.81,5.51,8.83,5.54,-5.54,-5.77,-4.95,3.26,3.29,3.29
354.74,8.77,5.48,8.72,5.44,-5.46,-5.68,-4.83,3.31,3.26,3.28
358.28,8.64,5.34,8.66,5.37,-5.38,-5.59,-4.71,3.25,3.28,3.29
361.87,8.58,5.28,8.61,5.31,-5.31,-5.50,-4.60,3.27,3.30,3.29
365.49,8.59,5.28,8.56,5.26,-5.24,-5.41,-4.49,3.34,3.31,3.30
369.14,8.52,5.22,8.49,5.20,-5.18,-5.31,-4.38,3.33,3.31,3.29
372.83,8.42,5.12,8.41,5.12,-5.12,-5.22,-4.27,3.29,3.28,3.29
376.56,8.29,5.00,8.35,5.06,-5.07,-5.13,-4.17,3.22,3.28,3.28
380.33,8.31,5.01,8.30,5.01,-5.02,-5.04,-4.08,3.29,3.29,3.29
384.13,8.33,5.03,8.25,4.97,-4.96,-4.95,-3.98,3.36,3.29,3.29
387.97,8.17,4.88,8.20,4.91,-4.91,-4.86,-3.89,3.26,3.29,3.28
391.85,8.10,4.82,8.12,4.84,-4.85,-4.76,-3.80,3.24,3.27,3.27
395.77,8.07,4.78,8.05,4.78,-4.80,-4.67,-3.71,3.27,3.26,3.28
399.73,8.03,4.75,8.02,4.74,-4.74,-4.58,-3.63,3.29,3.28,3.27
403.72,7.96,4.68,7.96,4.70,-4.67,-4.49,-3.55,3.29,3.29,3.27
407.76,7.89,4.63,7.88,4.62,-4.60,-4.39,-3.47,3.29,3.28,3.25
411.84,7.80,4.54,7.78,4.53,-4.52,-4.30,-3.39,3.28,3.27,3.25
415.96,7.67,4.41,7.69,4.44,-4.44,-4.21,-3.32,3.23,3.25,3.25
420.12,7.60,4.34,7.59,4.34,-4.36,-4.12,-3.24,3.23,3.23,3.25
424.32,7.53,4.27,7.53,4.27,-4.29,-4.02,-3.17,3.24,3.24,3.25
428.56,7.46,4.19,7.46,4.20,-4.22,-3.93,-3.10,3.24,3.24,3.26
432.85,7.43,4.15,7.39,4.12,-4.15,-3.84,-3.03,3.28,3.24,3.27
437.18,7.31,4.02,7.36,4.06,-4.08,-3.74,-2.96,3.23,3.28,3.28
441.55,7.32,3.99,7.35,4.03,-4.01,-3.65,-2.90,3.31,3.34,3.32
445.96,7.39,4.03,7.33,3.98,-3.94,-3.55,-2.83,3.45,3.39,3.35
450.42,7.31,3.92,7.28,3.89,-3.86,-3.46,-2.77,3.45,3.43,3.38
454.93,7.18,3.74,7.20,3.77,-3.77,-3.37,-2.70,3.41,3.43,3.43
459.48,7.08,3.60,7.12,3.64,-3.67,-3.27,-2.64,3.41,3.45,3.47
464.07,7.09,3.56,7.06,3.54,-3.56,-3.17,-2.57,3.52,3.50,3.52
468.71,7.05,3.46,7.02,3.44,-3.44,-3.08,-2.51,3.60,3.57,3.58
473.40,6.95,3.32,6.96,3.33,-3.32,-2.98,-2.44,3.62,3.64,3.62
478.13,6.87,3.18,6.88,3.20,-3.20,-2.88,-2.38,3.67,3.68,3.68
482.91,6.81,3.08,6.79,3.07,-3.08,-2.79,-2.31,3.73,3.72,3.72
487.74,6.71,2.94,6.71,2.94,-2.95,-2.69,-2.24,3.76,3.76,3.76
492.62,6.61,2.79,6.62,2.81,-2.81,-2.59,-2.18,3.80,3.81,3.81
497.55,6.52,2.68,6.52,2.68,-2.66,-2.49,-2.11,3.85,3.86,3.83
502.52,6.42,2.55,6.41,2.55,-2.52,-2.39,-2.04,3.90,3.89,3.86
507.55,6.29,2.41,6.27,2.39,-2.38,-2.28,-1.97,3.91,3.89,3.87
512.62,6.10,2.21,6.10,2.22,-2.24,-2.18,-1.90,3.85,3.86,3.88
517.75,5.94,2.04,5.95,2.06,-2.11,-2.07,-1.82,3.83,3.84,3.89
522.93,5.80,1.91,5.81,1.94,-1.98,-1.97,-1.75,3.82,3.83,3.88
528.16,5.72,1.86,5.70,1.84,-1.85,-1.86,-1.67,3.87,3.85,3.85
533.44,5.58,1.75,5.57,1.75,-1.72,-1.75,-1.60,3.85,3.85,3.82
