frequency,raw,error,smoothed,error_smoothed,equalization,parametric_eq,fixed_band_eq,equalized_raw,equalized_smoothed,target
20.00,9.50,-1.30,9.49,-1.31,1.31,1.16,0.24,10.81,10.80,10.80
20.20,9.52,-1.29,9.52,-1.28,1.28,1.14,0.25,10.81,10.81,10.81
20.40,9.56,-1.26,9.56,-1.26,1.26,1.12,0.26,10.82,10.82,10.82
20.61,9.59,-1.24,9.60,-1.23,1.23,1.10,0.26,10.82,10.83,10.83
20.81,9.64,-1.19,9.64,-1.20,1.20,1.07,0.27,10.84,10.83,10.83
21.02,9.67,-1.17,9.67,-1.17,1.17,1.05,0.28,10.84,10.84,10.84
21.23,9.70,-1.15,9.71,-1.14,1.14,1.03,0.28,10.84,10.85,10.85
21.44,9.74,-1.12,9.74,-1.11,1.11,1.00,0.29,10.85,10.85,10.86
21.66,9.78,-1.08,9.78,-1.08,1.08,0.98,0.30,10.86,10.86,10.86
21.87,9.81,-1.06,9.81,-1.05,1.05,0.96,0.31,10.86,10.87,10.87
22.09,9.84,-1.03,9.85,-1.02,1.02,0.93,0.32,10.87,10.87,10.87
22.31,9.87,-1.01,9.88,-1.00,1.00,0.91,0.33,10.87,10.88,10.88
22.54,9.92,-0.96,9.91,-0.97,0.97,0.88,0.33,10.89,10.88,10.88
22.76,9.95,-0.94,9.95,-0.94,0.94,0.86,0.34,10.89,10.89,10.89
22.99,9.98,-0.91,9.98,-0.91,0.91,0.83,0.35,10.89,10.89,10.89
23.22,10.01,-0.88,10.01,-0.88,0.88,0.80,0.36,10.89,10.89,10.89
23.45,10.04,-0.86,10.04,-0.85,0.85,0.78,0.37,10.89,10.90,10.90
23.69,10.09,-0.81,10.07,-0.83,0.83,0.75,0.38,10.92,10.90,10.90
23.92,10.11,-0.79,10.10,-0.80,0.80,0.73,0.39,10.91,10.90,10.90
24.16,10.13,-0.77,10.13,-0.77,0.77,0.70,0.40,10.90,10.90,10.90
24.40,10.16,-0.75,10.16,-0.74,0.74,0.67,0.41,10.90,10.90,10.91
24.65,10.17,-0.74,10.19,-0.72,0.72,0.65,0.42,10.89,10.91,10.91
24.89,10.22,-0.69,10.22,-0.69,0.69,0.62,0.43,10.91,10.91,10.91
25.14,10.25,-0.66,10.24,-0.66,0.66,0.59,0.44,10.92,10.91,10.91
25.39,10.26,-0.65,10.27,-0.64,0.64,0.56,0.45,10.90,10.91,10.91
25.65,10.30,-0.61,10.30,-0.61,0.61,0.54,0.45,10.91,10.91,10.91
25.91,10.34,-0.57,10.33,-0.58,0.58,0.51,0.46,10.92,10.91,10.91
26.16,10.35,-0.56,10.35,-0.56,0.56,0.48,0.47,10.91,10.91,10.91
26.43,10.39,-0.52,10.38,-0.53,0.53,0.45,0.48,10.92,10.91,10.91
26.69,10.39,-0.52,10.41,-0.50,0.50,0.43,0.48,10.89,10.91,10.91
26.96,10.43,-0.48,10.44,-0.47,0.47,0.40,0.49,10.90,10.91,10.91
27.23,10.47,-0.44,10.47,-0.44,0.44,0.37,0.49,10.91,10.91,10.91
27.50,10.50,-0.41,10.50,-0.41,0.41,0.34,0.50,10.91,10.91,10.91
27.77,10.52,-0.39,10.53,-0.38,0.38,0.31,0.50,10.90,10.91,10.91
28.05,10.56,-0.35,10.56,-0.35,0.35,0.29,0.50,10.91,10.91,10.91
28.33,10.57,-0.34,10.59,-0.32,0.32,0.26,0.50,10.89,10.91,10.91
28.62,10.61,-0.30,10.62,-0.29,0.29,0.23,0.50,10.90,10.91,10.91
28.90,10.65,-0.26,10.65,-0.26,0.26,0.20,0.50,10.91,10.91,10.91
29.19,10.68,-0.23,10.68,-0.23,0.23,0.17,0.50,10.91,10.91,10.91
29.48,10.72,-0.19,10.71,-0.20,0.20,0.14,0.49,10.92,10.91,10.91
29.78,10.74,-0.17,10.74,-0.17,0.17,0.12,0.48,10.91,10.91,10.91
30.08,10.78,-0.13,10.76,-0.14,0.14,0.09,0.47,10.92,10.90,10.91
30.38,10.80,-0.10,10.79,-0.11,0.11,0.06,0.46,10.91,10.90,10.90
30.68,10.82,-0.08,10.81,-0.09,0.09,0.03,0.45,10.91,10.90,10.90
30.99,10.85,-0.05,10.84,-0.06,0.06,0.00,0.43,10.91,10.90,10.90
31.30,10.87,-0.02,10.86,-0.03,0.03,-0.03,0.42,10.90,10.89,10.89
31.61,10.87,-0.02,10.88,-0.01,0.01,-0.06,0.40,10.88,10.89,10.89
31.93,10.87,-0.01,10.90,0.01,-0.01,-0.09,0.38,10.86,10.88,10.88
32.24,10.91,0.03,10.91,0.03,-0.03,-0.11,0.35,10.88,10.88,10.88
32.57,10.91,0.04,10.93,0.06,-0.06,-0.14,0.33,10.85,10.87,10.87
32.89,10.95,0.08,10.95,0.08,-0.08,-0.17,0.30,10.87,10.87,10.87
33.22,10.96,0.10,10.97,0.11,-0.11,-0.20,0.27,10.85,10.86,10.86
33.55,11.00,0.14,10.99,0.13,-0.13,-0.23,0.24,10.87,10.85,10.86
33.89,11.00,0.15,11.01,0.16,-0.16,-0.26,0.21,10.84,10.85,10.85
34.23,11.04,0.20,11.03,0.19,-0.19,-0.29,0.18,10.85,10.84,10.84
34.57,11.04,0.21,11.05,0.22,-0.22,-0.32,0.14,10.82,10.83,10.83
34.92,11.04,0.22,11.07,0.25,-0.25,-0.35,0.11,10.79,10.82,10.82
35.27,11.08,0.26,11.09,0.28,-0.28,-0.38,0.07,10.80,10.81,10.82
35.62,11.12,0.32,11.11,0.31,-0.31,-0.41,0.03,10.82,10.80,10.80
35.97,11.13,0.34,11.12,0.33,-0.33,-0.44,-0.01,10.80,10.79,10.79
36.33,11.17,0.39,11.14,0.36,-0.36,-0.47,-0.05,10.81,10.77,10.78
36.70,11.17,0.41,11.15,0.39,-0.39,-0.51,-0.10,10.78,10.76,10.76
37.06,11.17,0.42,11.17,0.42,-0.42,-0.54,-0.14,10.75,10.75,10.75
37.43,11.17,0.44,11.18,0.45,-0.45,-0.57,-0.18,10.72,10.73,10.73
37.81,11.17,0.46,11.20,0.48,-0.48,-0.60,-0.23,10.69,10.71,10.71
38.19,11.20,0.50,11.21,0.51,-0.51,-0.63,-0.27,10.69,10.70,10.70
38.57,11.21,0.53,11.23,0.55,-0.55,-0.66,-0.32,10.66,10.68,10.68
38.95,11.22,0.56,11.24,0.58,-0.58,-0.70,-0.37,10.64,10.66,10.66
39.34,11.26,0.62,11.25,0.61,-0.61,-0.73,-0.42,10.65,10.64,10.64
39.74,11.26,0.64,11.26,0.64,-0.64,-0.76,-0.46,10.62,10.62,10.62
40.14,11.30,0.70,11.27,0.67,-0.67,-0.79,-0.51,10.63,10.60,10.60
40.54,11.30,0.72,11.28,0.71,-0.71,-0.83,-0.56,10.59,10.57,10.58
40.94,11.30,0.75,11.29,0.74,-0.74,-0.86,-0.61,10.56,10.55,10.55
41.35,11.30,0.77,11.30,0.78,-0.78,-0.90,-0.67,10.52,10.53,10.53
41.76,11.30,0.80,11.32,0.81,-0.81,-0.93,-0.72,10.49,10.50,10.50
42.18,11.33,0.85,11.33,0.85,-0.85,-0.96,-0.77,10.48,10.48,10.48
42.60,11.34,0.89,11.33,0.89,-0.89,-1.00,-0.82,10.45,10.45,10.45
43.03,11.34,0.92,11.34,0.92,-0.92,-1.03,-0.88,10.42,10.42,10.42
43.46,11.34,0.95,11.35,0.96,-0.96,-1.07,-0.93,10.38,10.39,10.39
43.90,11.34,0.98,11.36,1.00,-1.00,-1.11,-0.98,10.34,10.36,10.36
44.33,11.35,1.02,11.37,1.04,-1.04,-1.14,-1.04,10.31,10.33,10.33
44.78,11.39,1.09,11.38,1.08,-1.08,-1.18,-1.10,10.31,10.30,10.30
45.23,11.39,1.12,11.39,1.13,-1.13,-1.22,-1.15,10.27,10.26,10.27
45.68,11.39,1.16,11.40,1.17,-1.17,-1.26,-1.21,10.22,10.23,10.23
46.13,11.43,1.24,11.40,1.22,-1.22,-1.29,-1.27,10.22,10.19,10.19
46.60,11.43,1.28,11.41,1.26,-1.26,-1.33,-1.33,10.17,10.15,10.15
47.06,11.43,1.31,11.42,1.31,-1.31,-1.37,-1.38,10.12,10.11,10.12
47.53,11.43,1.35,11.43,1.36,-1.36,-1.41,-1.44,10.07,10.07,10.08
48.01,11.43,1.40,11.44,1.41,-1.41,-1.45,-1.50,10.02,10.03,10.03
48.49,11.43,1.44,11.45,1.47,-1.47,-1.49,-1.56,9.97,9.99,9.99
48.97,11.45,1.51,11.46,1.52,-1.52,-1.54,-1.63,9.93,9.95,9.94
49.46,11.47,1.57,11.47,1.57,-1.57,-1.58,-1.69,9.90,9.90,9.90
49.96,11.47,1.62,11.48,1.62,-1.62,-1.62,-1.75,9.85,9.86,9.85
50.46,11.47,1.66,11.49,1.67,-1.67,-1.66,-1.81,9.80,9.81,9.81
50.96,11.50,1.73,11.50,1.73,-1.73,-1.71,-1.87,9.77,9.77,9.77
51.47,11.52,1.79,11.50,1.78,-1.78,-1.75,-1.94,9.74,9.72,9.73
51.99,11.52,1.84,11.51,1.83,-1.83,-1.80,-2.00,9.69,9.68,9.68
52.51,11.52,1.88,11.51,1.88,-1.88,-1.84,-2.06,9.64,9.63,9.64
53.03,11.52,1.92,11.52,1.93,-1.93,-1.89,-2.12,9.59,9.59,9.60
53.56,11.52,1.97,11.52,1.98,-1.98,-1.94,-2.19,9.54,9.54,9.55
54.10,11.52,2.02,11.52,2.02,-2.02,-1.99,-2.25,9.50,9.50,9.50
54.64,11.52,2.07,11.52,2.06,-2.06,-2.03,-2.31,9.46,9.45,9.45
55.18,11.52,2.12,11.51,2.10,-2.10,-2.08,-2.37,9.42,9.41,9.40
55.74,11.52,2.17,11.51,2.14,-2.14,-2.13,-2.43,9.38,9.36,9.35
56.29,11.50,2.19,11.50,2.18,-2.18,-2.18,-2.48,9.32,9.32,9.31
56.86,11.47,2.20,11.49,2.22,-2.22,-2.23,-2.54,9.25,9.27,9.27
57.42,11.47,2.25,11.48,2.25,-2.25,-2.29,-2.59,9.22,9.23,9.22
58.00,11.47,2.29,11.48,2.29,-2.29,-2.34,-2.64,9.18,9.18,9.18
58.58,11.47,2.33,11.47,2.34,-2.34,-2.39,-2.70,9.13,9.13,9.14
59.16,11.47,2.37,11.46,2.38,-2.38,-2.44,-2.74,9.09,9.08,9.10
59.76,11.45,2.39,11.45,2.42,-2.42,-2.50,-2.79,9.03,9.03,9.06
60.35,11.45,2.45,11.45,2.47,-2.47,-2.55,-2.83,8.98,8.98,9.00
60.96,11.43,2.49,11.44,2.51,-2.51,-2.60,-2.87,8.92,8.93,8.94
61.57,11.43,2.55,11.44,2.56,-2.56,-2.66,-2.91,8.87,8.88,8.88
62.18,11.43,2.62,11.43,2.61,-2.61,-2.71,-2.95,8.82,8.82,8.81
62.80,11.43,2.68,11.43,2.67,-2.67,-2.76,-2.98,8.76,8.77,8.75
63.43,11.43,2.74,11.43,2.72,-2.72,-2.82,-3.02,8.71,8.71,8.69
64.07,11.43,2.79,11.43,2.78,-2.78,-2.87,-3.04,8.65,8.65,8.64
64.71,11.43,2.84,11.43,2.84,-2.84,-2.92,-3.07,8.59,8.60,8.59
65.35,11.43,2.89,11.43,2.89,-2.89,-2.97,-3.10,8.54,8.54,8.54
66.01,11.43,2.94,11.43,2.95,-2.95,-3.03,-3.12,8.48,8.48,8.49
66.67,11.43,2.99,11.43,3.01,-3.01,-3.08,-3.14,8.43,8.43,8.44
67.33,11.43,3.05,11.43,3.06,-3.06,-3.13,-3.16,8.37,8.37,8.38
68.01,11.43,3.11,11.43,3.11,-3.11,-3.17,-3.18,8.32,8.32,8.32
68.69,11.43,3.17,11.42,3.16,-3.16,-3.22,-3.19,8.27,8.26,8.26
69.37,11.43,3.22,11.41,3.21,-3.21,-3.27,-3.21,8.22,8.20,8.21
70.07,11.43,3.28,11.40,3.26,-3.26,-3.31,-3.22,8.17,8.14,8.15
70.77,11.41,3.32,11.39,3.31,-3.31,-3.36,-3.24,8.10,8.08,8.09
71.48,11.39,3.36,11.38,3.36,-3.36,-3.40,-3.25,8.03,8.02,8.03
72.19,11.35,3.38,11.37,3.41,-3.41,-3.44,-3.27,7.94,7.96,7.97
72.91,11.34,3.44,11.36,3.46,-3.46,-3.48,-3.28,7.88,7.90,7.90
73.64,11.34,3.50,11.35,3.51,-3.51,-3.52,-3.30,7.84,7.84,7.84
74.38,11.34,3.56,11.34,3.55,-3.55,-3.56,-3.31,7.79,7.79,7.78
75.12,11.32,3.60,11.33,3.60,-3.60,-3.60,-3.33,7.72,7.73,7.72
75.87,11.30,3.63,11.32,3.65,-3.65,-3.64,-3.35,7.65,7.67,7.67
76.63,11.30,3.69,11.31,3.69,-3.69,-3.67,-3.37,7.61,7.61,7.61
77.40,11.30,3.74,11.30,3.74,-3.74,-3.71,-3.39,7.56,7.56,7.56
78.17,11.30,3.80,11.29,3.79,-3.79,-3.75,-3.41,7.51,7.50,7.50
78.95,11.30,3.85,11.28,3.84,-3.84,-3.78,-3.43,7.47,7.44,7.45
79.74,11.26,3.86,11.27,3.88,-3.88,-3.82,-3.46,7.38,7.39,7.40
80.54,11.26,3.92,11.27,3.93,-3.93,-3.85,-3.49,7.33,7.33,7.34
81.35,11.26,3.98,11.26,3.98,-3.98,-3.89,-3.52,7.28,7.28,7.28
82.16,11.26,4.03,11.25,4.02,-4.02,-3.92,-3.55,7.24,7.22,7.23
82.98,11.21,4.04,11.23,4.07,-4.07,-3.96,-3.59,7.14,7.17,7.17
83.81,11.21,4.10,11.22,4.11,-4.11,-3.99,-3.63,7.10,7.11,7.11
84.65,11.21,4.16,11.21,4.16,-4.16,-4.03,-3.67,7.06,7.05,7.05
85.50,11.21,4.22,11.19,4.20,-4.20,-4.07,-3.71,7.01,6.99,6.99
86.35,11.19,4.25,11.17,4.24,-4.24,-4.10,-3.76,6.95,6.94,6.94
87.22,11.17,4.29,11.16,4.28,-4.28,-4.14,-3.81,6.89,6.88,6.88
88.09,11.14,4.32,11.14,4.32,-4.32,-4.18,-3.86,6.82,6.82,6.82
88.97,11.13,4.37,11.12,4.37,-4.37,-4.22,-3.92,6.76,6.76,6.76
89.86,11.08,4.38,11.10,4.41,-4.41,-4.26,-3.98,6.68,6.70,6.70
90.76,11.08,4.44,11.08,4.45,-4.45,-4.29,-4.04,6.63,6.63,6.64
91.66,11.04,4.47,11.06,4.49,-4.49,-4.33,-4.11,6.55,6.57,6.57
92.58,11.04,4.53,11.04,4.53,-4.53,-4.37,-4.17,6.51,6.51,6.51
93.51,11.01,4.56,11.02,4.58,-4.58,-4.41,-4.24,6.44,6.44,6.45
94.44,11.00,4.61,11.00,4.62,-4.62,-4.46,-4.32,6.38,6.38,6.39
95.39,10.99,4.67,10.97,4.66,-4.66,-4.50,-4.39,6.33,6.31,6.32
96.34,10.95,4.70,10.95,4.70,-4.70,-4.54,-4.47,6.25,6.25,6.25
97.30,10.93,4.74,10.93,4.74,-4.74,-4.58,-4.55,6.19,6.19,6.19
98.28,10.91,4.79,10.90,4.78,-4.78,-4.62,-4.63,6.13,6.12,6.12
99.26,10.87,4.82,10.88,4.82,-4.82,-4.67,-4.72,6.05,6.06,6.05
100.25,10.87,4.89,10.85,4.86,-4.86,-4.71,-4.81,6.01,5.99,5.98
101.25,10.83,4.90,10.83,4.90,-4.90,-4.75,-4.90,5.94,5.93,5.93
102.27,10.82,4.95,10.80,4.93,-4.93,-4.80,-4.99,5.89,5.87,5.87
103.29,10.78,4.97,10.78,4.97,-4.97,-4.84,-5.08,5.81,5.81,5.81
104.32,10.74,4.99,10.76,5.01,-5.01,-4.89,-5.17,5.73,5.75,5.75
105.37,10.71,5.02,10.73,5.04,-5.04,-4.93,-5.26,5.67,5.69,5.69
106.42,10.69,5.05,10.71,5.08,-5.08,-4.98,-5.35,5.61,5.63,5.64
107.48,10.67,5.10,10.69,5.12,-5.12,-5.02,-5.44,5.55,5.57,5.57
108.56,10.65,5.14,10.66,5.16,-5.16,-5.07,-5.53,5.49,5.51,5.51
109.64,10.65,5.20,10.64,5.20,-5.20,-5.11,-5.62,5.45,5.44,5.45
110.74,10.64,5.25,10.62,5.24,-5.24,-5.16,-5.71,5.40,5.38,5.39
111.85,10.61,5.28,10.60,5.28,-5.28,-5.20,-5.79,5.33,5.32,5.33
112.97,10.59,5.33,10.58,5.32,-5.32,-5.25,-5.87,5.27,5.26,5.26
114.10,10.56,5.36,10.56,5.37,-5.37,-5.29,-5.95,5.19,5.19,5.20
115.24,10.53,5.40,10.54,5.41,-5.41,-5.34,-6.02,5.12,5.13,5.13
116.39,10.52,5.46,10.52,5.46,-5.46,-5.38,-6.09,5.06,5.07,5.06
117.55,10.51,5.51,10.50,5.50,-5.50,-5.42,-6.15,5.01,5.00,5.00
118.73,10.48,5.55,10.49,5.54,-5.54,-5.47,-6.21,4.94,4.94,4.93
119.92,10.45,5.58,10.46,5.59,-5.59,-5.51,-6.26,4.87,4.88,4.87
121.12,10.43,5.61,10.44,5.63,-5.63,-5.56,-6.31,4.81,4.82,4.82
122.33,10.41,5.65,10.42,5.67,-5.67,-5.60,-6.34,4.75,4.75,4.76
123.55,10.39,5.69,10.40,5.70,-5.70,-5.64,-6.37,4.69,4.69,4.70
124.79,10.39,5.75,10.37,5.74,-5.74,-5.68,-6.40,4.65,4.63,4.64
126.03,10.35,5.77,10.34,5.77,-5.77,-5.72,-6.41,4.58,4.57,4.58
127.29,10.32,5.80,10.31,5.80,-5.80,-5.76,-6.42,4.52,4.51,4.52
128.57,10.30,5.85,10.28,5.83,-5.83,-5.80,-6.42,4.47,4.45,4.45
129.85,10.26,5.87,10.25,5.86,-5.86,-5.84,-6.41,4.40,4.39,4.39
131.15,10.23,5.90,10.21,5.88,-5.88,-5.88,-6.40,4.35,4.33,4.33
132.46,10.17,5.90,10.18,5.91,-5.91,-5.92,-6.38,4.26,4.27,4.27
133.79,10.14,5.93,10.14,5.93,-5.93,-5.96,-6.36,4.21,4.21,4.21
135.12,10.09,5.94,10.11,5.95,-5.95,-6.00,-6.33,4.14,4.15,4.15
136.48,10.04,5.94,10.07,5.97,-5.97,-6.03,-6.29,4.07,4.10,4.10
137.84,10.01,5.97,10.03,5.99,-5.99,-6.07,-6.25,4.02,4.04,4.04
139.22,10.00,6.02,9.99,6.00,-6.00,-6.10,-6.21,4.00,3.99,3.98
140.61,9.95,6.02,9.95,6.02,-6.02,-6.13,-6.17,3.93,3.93,3.93
142.02,9.92,6.04,9.91,6.03,-6.03,-6.16,-6.12,3.89,3.88,3.88
143.44,9.87,6.04,9.87,6.04,-6.04,-6.20,-6.07,3.83,3.83,3.83
144.87,9.84,6.05,9.83,6.05,-6.05,-6.23,-6.02,3.79,3.78,3.79
146.32,9.81,6.07,9.80,6.06,-6.06,-6.25,-5.97,3.75,3.73,3.74
147.78,9.76,6.07,9.76,6.07,-6.07,-6.28,-5.92,3.69,3.69,3.69
149.26,9.72,6.08,9.72,6.08,-6.08,-6.31,-5.86,3.64,3.64,3.64
150.75,9.68,6.09,9.68,6.09,-6.09,-6.33,-5.81,3.59,3.59,3.59
152.26,9.63,6.08,9.65,6.10,-6.10,-6.36,-5.76,3.53,3.54,3.55
153.78,9.60,6.10,9.61,6.11,-6.11,-6.38,-5.72,3.49,3.49,3.50
155.32,9.57,6.12,9.57,6.12,-6.12,-6.40,-5.67,3.45,3.45,3.45
156.88,9.52,6.12,9.53,6.13,-6.13,-6.42,-5.63,3.39,3.40,3.40
158.44,9.48,6.13,9.49,6.14,-6.14,-6.44,-5.59,3.34,3.35,3.35
160.03,9.45,6.15,9.45,6.15,-6.15,-6.46,-5.55,3.30,3.30,3.30
161.63,9.42,6.17,9.41,6.16,-6.16,-6.47,-5.52,3.26,3.25,3.25
163.24,9.37,6.17,9.37,6.17,-6.17,-6.48,-5.49,3.20,3.20,3.20
164.88,9.33,6.18,9.33,6.18,-6.18,-6.50,-5.46,3.15,3.15,3.15
166.53,9.29,6.19,9.28,6.18,-6.18,-6.51,-5.43,3.11,3.10,3.10
168.19,9.24,6.19,9.24,6.19,-6.19,-6.52,-5.41,3.05,3.05,3.05
169.87,9.20,6.20,9.20,6.20,-6.20,-6.52,-5.40,3.00,3.00,3.00
171.57,9.16,6.21,9.15,6.21,-6.21,-6.53,-5.39,2.95,2.95,2.95
173.29,9.10,6.20,9.11,6.21,-6.21,-6.54,-5.38,2.89,2.90,2.90
175.02,9.06,6.21,9.06,6.22,-6.22,-6.54,-5.37,2.84,2.85,2.85
176.77,9.00,6.20,9.02,6.22,-6.22,-6.54,-5.37,2.78,2.80,2.80
178.54,8.97,6.22,8.97,6.22,-6.22,-6.54,-5.38,2.75,2.75,2.75
180.32,8.92,6.22,8.92,6.22,-6.22,-6.54,-5.39,2.70,2.70,2.70
182.13,8.89,6.24,8.88,6.23,-6.23,-6.53,-5.40,2.67,2.65,2.65
183.95,8.84,6.23,8.83,6.23,-6.23,-6.53,-5.41,2.61,2.60,2.61
185.79,8.79,6.23,8.79,6.23,-6.23,-6.52,-5.43,2.56,2.55,2.56
187.65,8.74,6.23,8.74,6.24,-6.24,-6.51,-5.46,2.51,2.51,2.51
189.52,8.69,6.23,8.70,6.24,-6.24,-6.50,-5.49,2.45,2.46,2.46
191.42,8.64,6.22,8.66,6.24,-6.24,-6.49,-5.52,2.40,2.42,2.42
193.33,8.61,6.24,8.61,6.24,-6.24,-6.48,-5.55,2.37,2.37,2.37
195.27,8.55,6.22,8.57,6.24,-6.24,-6.46,-5.59,2.31,2.33,2.33
197.22,8.52,6.24,8.53,6.24,-6.24,-6.45,-5.63,2.28,2.28,2.28
199.19,8.49,6.25,8.48,6.24,-6.24,-6.43,-5.68,2.25,2.24,2.24
201.18,8.44,6.24,8.43,6.23,-6.23,-6.41,-5.73,2.21,2.20,2.20
203.19,8.41,6.25,8.39,6.22,-6.22,-6.39,-5.77,2.19,2.16,2.16
205.23,8.35,6.22,8.34,6.22,-6.22,-6.37,-5.83,2.13,2.12,2.13
207.28,8.29,6.20,8.30,6.21,-6.21,-6.34,-5.88,2.08,2.09,2.09
209.35,8.25,6.20,8.25,6.20,-6.20,-6.32,-5.93,2.06,2.05,2.05
211.44,8.20,6.18,8.20,6.18,-6.18,-6.29,-5.99,2.02,2.02,2.02
213.56,8.15,6.16,8.15,6.16,-6.16,-6.26,-6.04,1.99,1.98,1.99
215.69,8.09,6.13,8.10,6.14,-6.14,-6.23,-6.09,1.95,1.95,1.96
217.85,8.03,6.10,8.05,6.12,-6.12,-6.20,-6.15,1.91,1.92,1.93
220.03,7.99,6.10,7.99,6.10,-6.10,-6.17,-6.20,1.89,1.89,1.89
222.23,7.94,6.08,7.94,6.08,-6.08,-6.13,-6.25,1.86,1.86,1.86
224.45,7.89,6.06,7.89,6.05,-6.05,-6.10,-6.30,1.84,1.84,1.83
226.70,7.83,6.02,7.83,6.03,-6.03,-6.06,-6.34,1.80,1.81,1.81
228.96,7.77,5.98,7.78,6.00,-6.00,-6.02,-6.38,1.77,1.78,1.79
231.25,7.73,5.97,7.73,5.97,-5.97,-5.98,-6.41,1.76,1.76,1.76
233.57,7.68,5.94,7.67,5.94,-5.94,-5.94,-6.44,1.74,1.74,1.74
235.90,7.64,5.93,7.62,5.91,-5.91,-5.90,-6.46,1.73,1.71,1.71
238.26,7.58,5.89,7.57,5.88,-5.88,-5.86,-6.48,1.71,1.69,1.69
240.64,7.52,5.84,7.52,5.84,-5.84,-5.81,-6.49,1.68,1.67,1.68
243.05,7.46,5.80,7.47,5.81,-5.81,-5.77,-6.49,1.65,1.66,1.66
245.48,7.40,5.76,7.42,5.78,-5.78,-5.72,-6.49,1.63,1.64,1.64
247.93,7.34,5.72,7.36,5.74,-5.74,-5.68,-6.47,1.60,1.62,1.62
250.41,7.29,5.68,7.31,5.70,-5.70,-5.63,-6.45,1.59,1.61,1.61
252.92,7.26,5.66,7.26,5.67,-5.67,-5.58,-6.42,1.59,1.59,1.60
255.45,7.21,5.63,7.21,5.63,-5.63,-5.53,-6.38,1.58,1.58,1.58
258.00,7.16,5.59,7.16,5.59,-5.59,-5.48,-6.33,1.57,1.57,1.57
260.58,7.12,5.56,7.10,5.55,-5.55,-5.43,-6.28,1.57,1.56,1.56
263.19,7.07,5.52,7.05,5.51,-5.51,-5.38,-6.21,1.57,1.55,1.55
265.82,7.01,5.47,7.00,5.46,-5.46,-5.33,-6.14,1.55,1.54,1.54
268.48,6.95,5.42,6.94,5.42,-5.42,-5.28,-6.07,1.53,1.53,1.53
271.16,6.89,5.37,6.89,5.37,-5.37,-5.22,-5.99,1.52,1.52,1.52
273.87,6.82,5.31,6.83,5.32,-5.32,-5.17,-5.90,1.50,1.51,1.51
276.61,6.77,5.27,6.77,5.27,-5.27,-5.11,-5.80,1.50,1.50,1.50
279.38,6.71,5.22,6.71,5.22,-5.22,-5.06,-5.71,1.49,1.50,1.49
282.17,6.65,5.16,6.65,5.16,-5.16,-5.00,-5.60,1.49,1.49,1.49
284.99,6.59,5.10,6.59,5.10,-5.10,-4.95,-5.50,1.49,1.49,1.49
287.84,6.53,5.04,6.53,5.05,-5.05,-4.89,-5.39,1.48,1.48,1.49
290.72,6.47,4.99,6.47,4.99,-4.99,-4.83,-5.28,1.48,1.48,1.48
293.63,6.41,4.93,6.41,4.93,-4.93,-4.77,-5.17,1.48,1.48,1.48
296.57,6.34,4.86,6.35,4.87,-4.87,-4.72,-5.06,1.47,1.48,1.48
299.53,6.29,4.81,6.29,4.81,-4.81,-4.66,-4.95,1.48,1.48,1.48
302.53,6.23,4.75,6.23,4.75,-4.75,-4.60,-4.84,1.48,1.48,1.48
305.55,6.17,4.69,6.17,4.69,-4.69,-4.54,-4.72,1.48,1.48,1.48
308.61,6.10,4.62,6.11,4.63,-4.63,-4.48,-4.61,1.47,1.48,1.48
311.69,6.04,4.56,6.05,4.57,-4.57,-4.42,-4.50,1.47,1.48,1.48
314.81,5.99,4.51,5.99,4.51,-4.51,-4.36,-4.39,1.48,1.48,1.48
317.96,5.93,4.45,5.93,4.45,-4.45,-4.30,-4.28,1.48,1.48,1.48
321.14,5.87,4.39,5.87,4.39,-4.39,-4.24,-4.18,1.48,1.48,1.48
324.35,5.81,4.33,5.81,4.33,-4.33,-4.18,-4.07,1.48,1.48,1.48
327.59,5.75,4.26,5.75,4.27,-4.27,-4.11,-3.97,1.49,1.48,1.49
330.87,5.69,4.20,5.69,4.20,-4.20,-4.05,-3.87,1.49,1.49,1.49
334.18,5.63,4.14,5.63,4.14,-4.14,-3.99,-3.77,1.49,1.49,1.49
337.52,5.57,4.08,5.56,4.07,-4.07,-3.93,-3.68,1.50,1.49,1.49
340.90,5.51,4.01,5.50,4.00,-4.00,-3.87,-3.58,1.51,1.50,1.50
344.30,5.44,3.94,5.44,3.93,-3.93,-3.80,-3.49,1.51,1.50,1.50
347.75,5.37,3.86,5.37,3.86,-3.86,-3.74,-3.40,1.51,1.51,1.51
351.23,5.30,3.79,5.30,3.79,-3.79,-3.68,-3.32,1.51,1.51,1.51
354.74,5.23,3.71,5.24,3.72,-3.72,-3.62,-3.24,1.51,1.52,1.52
358.28,5.17,3.65,5.18,3.65,-3.65,-3.55,-3.16,1.52,1.52,1.52
361.87,5.10,3.57,5.11,3.58,-3.58,-3.49,-3.08,1.52,1.53,1.53
365.49,5.05,3.51,5.05,3.51,-3.51,-3.43,-3.00,1.54,1.53,1.54
369.14,4.97,3.43,4.98,3.44,-3.44,-3.36,-2.93,1.53,1.54,1.54
372.83,4.91,3.36,4.92,3.37,-3.37,-3.30,-2.86,1.54,1.54,1.55
376.56,4.87,3.32,4.85,3.30,-3.30,-3.24,-2.79,1.57,1.55,1.55
380.33,4.78,3.22,4.79,3.23,-3.23,-3.17,-2.72,1.55,1.56,1.56
384.13,4.74,3.18,4.73,3.17,-3.17,-3.11,-2.66,1.58,1.56,1.56
387.97,4.67,3.10,4.67,3.10,-3.10,-3.05,-2.59,1.57,1.57,1.57
391.85,4.61,3.03,4.60,3.03,-3.03,-2.98,-2.53,1.58,1.58,1.58
395.77,4.55,2.97,4.54,2.96,-2.96,-2.92,-2.48,1.59,1.58,1.58
399.73,4.47,2.88,4.48,2.89,-2.89,-2.85,-2.42,1.58,1.59,1.59
403.72,4.41,2.81,4.42,2.82,-2.82,-2.79,-2.36,1.59,1.59,1.60
407.76,4.35,2.75,4.35,2.75,-2.75,-2.72,-2.31,1.60,1.60,1.60
411.84,4.29,2.68,4.29,2.69,-2.69,-2.66,-2.26,1.60,1.61,1.61
415.96,4.23,2.61,4.23,2.62,-2.62,-2.60,-2.21,1.61,1.61,1.62
420.12,4.17,2.55,4.18,2.55,-2.55,-2.53,-2.16,1.62,1.62,1.62
424.32,4.11,2.48,4.12,2.49,-2.49,-2.47,-2.11,1.62,1.63,1.63
428.56,4.05,2.41,4.06,2.43,-2.43,-2.40,-2.06,1.63,1.64,1.64
432.85,4.00,2.35,4.01,2.36,-2.36,-2.34,-2.02,1.64,1.64,1.65
437.18,3.96,2.31,3.95,2.30,-2.30,-2.27,-1.97,1.66,1.65,1.65
441.55,3.89,2.23,3.89,2.23,-2.23,-2.20,-1.93,1.66,1.66,1.66
445.96,3.83,2.16,3.83,2.16,-2.16,-2.14,-1.88,1.67,1.67,1.67
450.42,3.78,2.10,3.78,2.10,-2.10,-2.07,-1.84,1.68,1.68,1.68
454.93,3.74,2.05,3.72,2.03,-2.03,-2.01,-1.79,1.71,1.69,1.69
459.48,3.66,1.96,3.66,1.96,-1.96,-1.94,-1.75,1.70,1.70,1.70
464.07,3.61,1.90,3.60,1.89,-1.89,-1.87,-1.70,1.72,1.71,1.71
468.71,3.53,1.81,3.53,1.82,-1.82,-1.81,-1.66,1.71,1.72,1.72
473.40,3.47,1.74,3.47,1.74,-1.74,-1.74,-1.61,1.73,1.73,1.73
478.13,3.39,1.65,3.41,1.67,-1.67,-1.67,-1.57,1.72,1.74,1.74
482.91,3.33,1.58,3.34,1.59,-1.59,-1.60,-1.52,1.74,1.75,1.75
487.74,3.27,1.51,3.28,1.52,-1.52,-1.54,-1.47,1.75,1.76,1.76
492.62,3.21,1.44,3.21,1.44,-1.44,-1.47,-1.43,1.77,1.77,1.77
497.55,3.15,1.37,3.15,1.36,-1.36,-1.40,-1.38,1.79,1.78,1.78
