frequency,raw,error,smoothed,error_smoothed,equalization,parametric_eq,fixed_band_eq,equalized_raw,equalized_smoothed,target
20.00,1.89,-4.78,1.88,-4.80,4.80,4.54,1.30,6.69,6.67,6.67
20.20,1.89,-4.79,1.93,-4.75,4.75,4.51,1.34,6.64,6.68,6.68
20.40,1.98,-4.71,1.99,-4.70,4.70,4.48,1.38,6.68,6.69,6.69
20.61,2.05,-4.65,2.05,-4.65,4.65,4.44,1.42,6.70,6.70,6.70
20.81,2.13,-4.57,2.11,-4.60,4.60,4.41,1.47,6.73,6.70,6.70
21.02,2.18,-4.53,2.17,-4.54,4.54,4.37,1.51,6.72,6.71,6.71
21.23,2.22,-4.50,2.23,-4.49,4.49,4.34,1.56,6.71,6.72,6.72
21.44,2.29,-4.44,2.29,-4.44,4.44,4.30,1.61,6.73,6.73,6.73
21.66,2.35,-4.38,2.35,-4.38,4.38,4.27,1.66,6.73,6.73,6.73
21.87,2.44,-4.30,2.41,-4.33,4.33,4.23,1.71,6.77,6.74,6.74
22.09,2.50,-4.24,2.47,-4.27,4.27,4.19,1.76,6.77,6.74,6.74
22.31,2.53,-4.22,2.53,-4.21,4.21,4.15,1.81,6.75,6.75,6.75
22.54,2.61,-4.14,2.60,-4.16,4.16,4.11,1.87,6.76,6.75,6.75
22.76,2.69,-4.07,2.66,-4.10,4.10,4.08,1.93,6.79,6.76,6.76
22.99,2.74,-4.02,2.72,-4.04,4.04,4.04,1.98,6.78,6.76,6.76
23.22,2.75,-4.01,2.78,-3.98,3.98,4.00,2.04,6.73,6.76,6.76
23.45,2.78,-3.99,2.85,-3.92,3.92,3.96,2.10,6.70,6.77,6.77
23.69,2.88,-3.89,2.92,-3.85,3.85,3.91,2.17,6.73,6.77,6.77
23.92,2.95,-3.82,2.98,-3.79,3.79,3.87,2.23,6.74,6.77,6.77
24.16,3.06,-3.71,3.05,-3.72,3.72,3.83,2.29,6.78,6.77,6.77
24.40,3.12,-3.66,3.12,-3.66,3.66,3.79,2.36,6.78,6.78,6.78
24.65,3.21,-3.57,3.19,-3.59,3.59,3.75,2.42,6.80,6.78,6.78
24.89,3.27,-3.51,3.26,-3.52,3.52,3.70,2.49,6.79,6.78,6.78
25.14,3.33,-3.45,3.32,-3.46,3.46,3.66,2.55,6.79,6.78,6.78
25.39,3.40,-3.38,3.39,-3.39,3.39,3.62,2.62,6.79,6.78,6.78
25.65,3.48,-3.30,3.46,-3.32,3.32,3.57,2.69,6.80,6.78,6.78
25.91,3.53,-3.25,3.52,-3.26,3.26,3.53,2.75,6.79,6.78,6.78
26.16,3.59,-3.19,3.58,-3.20,3.20,3.48,2.82,6.79,6.78,6.78
26.43,3.64,-3.14,3.64,-3.15,3.15,3.44,2.88,6.79,6.78,6.78
26.69,3.66,-3.12,3.69,-3.09,3.09,3.39,2.95,6.75,6.78,6.78
26.96,3.71,-3.07,3.73,-3.05,3.05,3.35,3.01,6.76,6.78,6.78
27.23,3.78,-3.00,3.78,-3.00,3.00,3.30,3.07,6.78,6.78,6.78
27.50,3.85,-2.93,3.83,-2.95,2.95,3.25,3.13,6.80,6.78,6.78
27.77,3.87,-2.91,3.87,-2.91,2.91,3.21,3.18,6.78,6.78,6.78
28.05,3.92,-2.86,3.91,-2.87,2.87,3.16,3.23,6.79,6.78,6.78
28.33,3.94,-2.84,3.95,-2.83,2.83,3.11,3.28,6.77,6.78,6.78
28.62,3.99,-2.79,3.99,-2.79,2.79,3.06,3.32,6.78,6.78,6.78
28.90,4.04,-2.74,4.02,-2.76,2.76,3.02,3.36,6.80,6.78,6.78
29.19,4.06,-2.72,4.06,-2.72,2.72,2.97,3.40,6.78,6.78,6.78
29.48,4.08,-2.70,4.09,-2.69,2.69,2.92,3.42,6.77,6.78,6.78
29.78,4.13,-2.65,4.12,-2.66,2.66,2.87,3.45,6.79,6.78,6.78
30.08,4.17,-2.61,4.15,-2.63,2.63,2.82,3.46,6.80,6.78,6.78
30.38,4.20,-2.57,4.18,-2.60,2.60,2.77,3.48,6.80,6.77,6.77
30.68,4.20,-2.57,4.21,-2.56,2.56,2.72,3.48,6.76,6.77,6.77
30.99,4.21,-2.56,4.25,-2.52,2.52,2.67,3.48,6.73,6.77,6.77
31.30,4.25,-2.51,4.29,-2.48,2.48,2.62,3.47,6.73,6.76,6.76
31.61,4.30,-2.46,4.33,-2.43,2.43,2.57,3.45,6.73,6.76,6.76
31.93,4.36,-2.39,4.36,-2.39,2.39,2.52,3.43,6.75,6.75,6.75
32.24,4.39,-2.36,4.40,-2.35,2.35,2.47,3.40,6.74,6.75,6.75
32.57,4.42,-2.32,4.44,-2.30,2.30,2.42,3.37,6.72,6.74,6.74
32.89,4.49,-2.25,4.49,-2.25,2.25,2.37,3.33,6.74,6.74,6.74
33.22,4.55,-2.18,4.53,-2.20,2.20,2.32,3.28,6.75,6.73,6.73
33.55,4.62,-2.11,4.58,-2.15,2.15,2.27,3.23,6.77,6.73,6.73
33.89,4.65,-2.07,4.62,-2.10,2.10,2.21,3.17,6.75,6.72,6.72
34.23,4.69,-2.02,4.67,-2.04,2.04,2.16,3.11,6.73,6.71,6.71
34.57,4.71,-1.99,4.72,-1.98,1.98,2.11,3.04,6.70,6.70,6.70
34.92,4.72,-1.97,4.76,-1.93,1.93,2.06,2.97,6.65,6.69,6.69
35.27,4.76,-1.93,4.80,-1.88,1.88,2.01,2.90,6.64,6.68,6.69
35.62,4.81,-1.86,4.83,-1.84,1.84,1.95,2.82,6.65,6.67,6.67
35.97,4.86,-1.80,4.86,-1.80,1.80,1.90,2.74,6.66,6.66,6.66
36.33,4.92,-1.73,4.89,-1.76,1.76,1.85,2.65,6.68,6.65,6.65
36.70,4.95,-1.68,4.91,-1.72,1.72,1.80,2.57,6.67,6.63,6.63
37.06,4.95,-1.67,4.93,-1.69,1.69,1.74,2.48,6.64,6.62,6.62
37.43,4.99,-1.61,4.95,-1.66,1.66,1.69,2.40,6.65,6.60,6.60
37.81,4.99,-1.59,4.97,-1.62,1.62,1.64,2.31,6.61,6.59,6.58
38.19,4.99,-1.58,4.99,-1.58,1.58,1.58,2.22,6.57,6.57,6.57
38.57,4.99,-1.56,5.01,-1.54,1.54,1.53,2.13,6.53,6.55,6.55
38.95,4.99,-1.54,5.03,-1.50,1.50,1.48,2.04,6.49,6.53,6.53
39.34,4.99,-1.52,5.05,-1.46,1.46,1.42,1.95,6.45,6.51,6.51
39.74,5.02,-1.47,5.07,-1.42,1.42,1.37,1.85,6.44,6.49,6.49
40.14,5.07,-1.40,5.09,-1.38,1.38,1.31,1.76,6.45,6.47,6.47
40.54,5.09,-1.36,5.10,-1.35,1.35,1.26,1.67,6.44,6.45,6.45
40.94,5.11,-1.31,5.11,-1.31,1.31,1.21,1.58,6.42,6.42,6.42
41.35,5.16,-1.24,5.12,-1.28,1.28,1.15,1.50,6.44,6.40,6.40
41.76,5.22,-1.15,5.13,-1.24,1.24,1.10,1.41,6.46,6.37,6.37
42.18,5.23,-1.12,5.15,-1.20,1.20,1.04,1.32,6.43,6.35,6.35
42.60,5.23,-1.09,5.17,-1.15,1.15,0.99,1.23,6.38,6.32,6.32
43.03,5.19,-1.10,5.19,-1.10,1.10,0.93,1.15,6.29,6.29,6.29
43.46,5.18,-1.08,5.22,-1.05,1.05,0.88,1.06,6.23,6.26,6.26
43.90,5.18,-1.05,5.24,-0.99,0.99,0.82,0.98,6.17,6.23,6.23
44.33,5.18,-1.02,5.27,-0.93,0.93,0.77,0.89,6.11,6.20,6.20
44.78,5.20,-0.97,5.30,-0.87,0.87,0.71,0.81,6.07,6.17,6.17
45.23,5.28,-0.86,5.33,-0.81,0.81,0.66,0.73,6.09,6.13,6.14
45.68,5.36,-0.74,5.36,-0.74,0.74,0.60,0.65,6.10,6.10,6.10
46.13,5.43,-0.63,5.40,-0.66,0.66,0.55,0.57,6.09,6.06,6.06
46.60,5.49,-0.53,5.44,-0.58,0.58,0.49,0.49,6.07,6.02,6.02
47.06,5.54,-0.45,5.49,-0.49,0.49,0.44,0.41,6.03,5.98,5.99
47.53,5.55,-0.40,5.54,-0.40,0.40,0.38,0.33,5.96,5.94,5.95
48.01,5.60,-0.30,5.58,-0.32,0.32,0.33,0.25,5.92,5.90,5.90
48.49,5.61,-0.25,5.62,-0.24,0.24,0.27,0.18,5.85,5.86,5.86
48.97,5.64,-0.17,5.65,-0.16,0.16,0.22,0.10,5.80,5.82,5.81
49.46,5.67,-0.10,5.68,-0.10,0.10,0.16,0.03,5.77,5.77,5.77
49.96,5.72,-0.00,5.70,-0.03,0.03,0.11,-0.05,5.75,5.73,5.72
50.46,5.74,0.06,5.71,0.02,-0.02,0.05,-0.12,5.72,5.69,5.68
50.96,5.76,0.12,5.71,0.07,-0.07,-0.01,-0.20,5.69,5.64,5.64
51.47,5.73,0.13,5.71,0.11,-0.11,-0.06,-0.27,5.62,5.60,5.60
51.99,5.70,0.15,5.71,0.16,-0.16,-0.12,-0.34,5.55,5.55,5.55
52.51,5.69,0.18,5.70,0.20,-0.20,-0.17,-0.41,5.49,5.50,5.51
53.03,5.69,0.22,5.70,0.25,-0.25,-0.23,-0.48,5.44,5.46,5.47
53.56,5.69,0.27,5.70,0.29,-0.29,-0.29,-0.55,5.40,5.41,5.42
54.10,5.69,0.32,5.71,0.34,-0.34,-0.34,-0.61,5.35,5.37,5.37
54.64,5.69,0.37,5.71,0.39,-0.39,-0.40,-0.68,5.30,5.32,5.32
55.18,5.69,0.42,5.72,0.44,-0.44,-0.45,-0.75,5.25,5.28,5.27
55.74,5.69,0.47,5.72,0.49,-0.49,-0.51,-0.81,5.20,5.24,5.22
56.29,5.69,0.51,5.73,0.54,-0.54,-0.57,-0.87,5.15,5.19,5.18
56.86,5.71,0.57,5.74,0.60,-0.60,-0.62,-0.93,5.11,5.15,5.14
57.42,5.76,0.67,5.75,0.65,-0.65,-0.68,-0.99,5.11,5.10,5.09
58.00,5.82,0.77,5.76,0.71,-0.71,-0.74,-1.05,5.11,5.05,5.05
58.58,5.83,0.82,5.77,0.77,-0.77,-0.79,-1.11,5.06,5.00,5.01
59.16,5.83,0.86,5.79,0.83,-0.83,-0.85,-1.16,5.00,4.95,4.97
59.76,5.83,0.90,5.80,0.89,-0.89,-0.91,-1.22,4.94,4.90,4.93
60.35,5.83,0.96,5.81,0.96,-0.96,-0.96,-1.27,4.87,4.85,4.87
60.96,5.79,0.98,5.82,1.02,-1.02,-1.02,-1.32,4.77,4.80,4.81
61.57,5.79,1.04,5.83,1.08,-1.08,-1.08,-1.37,4.71,4.75,4.75
62.18,5.79,1.11,5.84,1.14,-1.14,-1.13,-1.42,4.65,4.69,4.68
62.80,5.79,1.17,5.84,1.20,-1.20,-1.19,-1.46,4.59,4.64,4.62
63.43,5.82,1.26,5.84,1.25,-1.25,-1.25,-1.51,4.57,4.58,4.56
64.07,5.85,1.34,5.83,1.31,-1.31,-1.30,-1.55,4.54,4.52,4.51
64.71,5.88,1.42,5.83,1.37,-1.37,-1.36,-1.59,4.51,4.47,4.46
65.35,5.88,1.47,5.84,1.43,-1.43,-1.42,-1.63,4.45,4.41,4.41
66.01,5.88,1.52,5.85,1.49,-1.49,-1.47,-1.67,4.39,4.36,4.36
66.67,5.88,1.57,5.86,1.56,-1.56,-1.53,-1.71,4.32,4.30,4.31
67.33,5.84,1.59,5.87,1.62,-1.62,-1.59,-1.75,4.22,4.24,4.25
68.01,5.83,1.64,5.88,1.69,-1.69,-1.65,-1.79,4.14,4.19,4.19
68.69,5.83,1.70,5.89,1.76,-1.76,-1.70,-1.82,4.07,4.13,4.13
69.37,5.85,1.77,5.90,1.82,-1.82,-1.76,-1.86,4.03,4.07,4.08
70.07,5.90,1.88,5.90,1.88,-1.88,-1.82,-1.89,4.02,4.02,4.02
70.77,5.93,1.97,5.90,1.94,-1.94,-1.88,-1.93,3.99,3.96,3.96
71.48,5.93,2.03,5.90,2.00,-2.00,-1.93,-1.96,3.93,3.90,3.90
72.19,5.93,2.09,5.90,2.06,-2.06,-1.99,-2.00,3.87,3.84,3.84
72.91,5.93,2.16,5.90,2.12,-2.12,-2.05,-2.03,3.81,3.78,3.77
73.64,5.93,2.22,5.89,2.18,-2.18,-2.11,-2.07,3.75,3.72,3.71
74.38,5.93,2.28,5.89,2.23,-2.23,-2.16,-2.10,3.70,3.66,3.65
75.12,5.90,2.31,5.89,2.29,-2.29,-2.22,-2.14,3.61,3.60,3.59
75.87,5.84,2.30,5.88,2.34,-2.34,-2.28,-2.18,3.50,3.54,3.54
76.63,5.83,2.35,5.88,2.40,-2.40,-2.34,-2.22,3.43,3.49,3.48
77.40,5.87,2.44,5.89,2.46,-2.46,-2.39,-2.26,3.41,3.43,3.43
78.17,5.90,2.53,5.89,2.52,-2.52,-2.45,-2.30,3.38,3.37,3.37
78.95,5.86,2.54,5.90,2.58,-2.58,-2.51,-2.35,3.28,3.32,3.32
79.74,5.83,2.56,5.91,2.65,-2.65,-2.57,-2.39,3.18,3.26,3.27
80.54,5.86,2.65,5.92,2.71,-2.71,-2.62,-2.44,3.15,3.21,3.21
81.35,5.90,2.75,5.93,2.78,-2.78,-2.68,-2.49,3.12,3.15,3.15
82.16,5.96,2.86,5.94,2.84,-2.84,-2.74,-2.54,3.12,3.10,3.10
82.98,6.01,2.97,5.94,2.90,-2.90,-2.80,-2.59,3.11,3.04,3.04
83.81,6.02,3.04,5.95,2.96,-2.96,-2.85,-2.64,3.06,2.98,2.98
84.65,6.02,3.10,5.95,3.02,-3.02,-2.91,-2.70,3.00,2.92,2.92
85.50,6.00,3.14,5.94,3.07,-3.07,-2.97,-2.76,2.93,2.87,2.86
86.35,5.97,3.16,5.93,3.12,-3.12,-3.03,-2.82,2.85,2.81,2.81
87.22,5.92,3.17,5.92,3.17,-3.17,-3.08,-2.88,2.75,2.75,2.75
88.09,5.89,3.20,5.91,3.22,-3.22,-3.14,-2.94,2.67,2.69,2.69
88.97,5.83,3.20,5.90,3.27,-3.27,-3.20,-3.01,2.56,2.63,2.63
89.86,5.83,3.26,5.89,3.32,-3.32,-3.25,-3.08,2.51,2.57,2.57
90.76,5.83,3.32,5.88,3.37,-3.37,-3.31,-3.15,2.46,2.51,2.51
91.66,5.83,3.39,5.87,3.42,-3.42,-3.37,-3.23,2.41,2.44,2.44
92.58,5.83,3.45,5.85,3.47,-3.47,-3.43,-3.30,2.36,2.38,2.38
93.51,5.83,3.51,5.84,3.53,-3.53,-3.48,-3.38,2.31,2.32,2.32
94.44,5.86,3.60,5.83,3.58,-3.58,-3.54,-3.46,2.28,2.25,2.26
95.39,5.88,3.69,5.83,3.64,-3.64,-3.60,-3.55,2.24,2.19,2.19
96.34,5.88,3.76,5.83,3.71,-3.71,-3.65,-3.63,2.17,2.12,2.12
97.30,5.88,3.82,5.84,3.78,-3.78,-3.71,-3.72,2.10,2.06,2.06
98.28,5.88,3.89,5.84,3.85,-3.85,-3.77,-3.81,2.03,1.99,1.99
99.26,5.86,3.94,5.85,3.92,-3.92,-3.82,-3.90,1.94,1.93,1.92
100.25,5.81,3.96,5.85,3.98,-3.98,-3.88,-3.99,1.83,1.87,1.85
101.25,5.75,3.95,5.85,4.04,-4.04,-3.93,-4.08,1.71,1.80,1.80
102.27,5.76,4.02,5.84,4.10,-4.10,-3.99,-4.17,1.66,1.74,1.74
103.29,5.81,4.13,5.84,4.16,-4.16,-4.05,-4.27,1.65,1.68,1.68
104.32,5.87,4.25,5.84,4.22,-4.22,-4.10,-4.36,1.65,1.62,1.62
105.37,5.88,4.32,5.83,4.27,-4.27,-4.16,-4.46,1.61,1.56,1.56
106.42,5.88,4.37,5.82,4.32,-4.32,-4.21,-4.55,1.56,1.50,1.51
107.48,5.85,4.41,5.81,4.37,-4.37,-4.27,-4.64,1.48,1.44,1.44
108.56,5.83,4.45,5.80,4.42,-4.42,-4.32,-4.74,1.41,1.38,1.38
109.64,5.81,4.49,5.79,4.47,-4.47,-4.37,-4.83,1.34,1.32,1.32
110.74,5.76,4.50,5.78,4.53,-4.53,-4.43,-4.92,1.23,1.25,1.26
111.85,5.76,4.56,5.77,4.58,-4.58,-4.48,-5.00,1.18,1.19,1.20
112.97,5.79,4.66,5.76,4.63,-4.63,-4.54,-5.09,1.16,1.13,1.13
114.10,5.73,4.66,5.75,4.68,-4.68,-4.59,-5.17,1.05,1.06,1.07
115.24,5.68,4.68,5.73,4.73,-4.73,-4.64,-5.24,0.95,1.00,1.00
116.39,5.62,4.69,5.71,4.77,-4.77,-4.69,-5.32,0.85,0.94,0.93
117.55,5.66,4.79,5.70,4.82,-4.82,-4.75,-5.38,0.84,0.88,0.87
118.73,5.69,4.89,5.68,4.87,-4.87,-4.80,-5.45,0.82,0.81,0.80
119.92,5.69,4.95,5.67,4.92,-4.92,-4.85,-5.50,0.77,0.75,0.74
121.12,5.69,5.00,5.65,4.97,-4.97,-4.90,-5.56,0.72,0.69,0.69
122.33,5.69,5.06,5.64,5.01,-5.01,-4.95,-5.60,0.68,0.63,0.63
123.55,5.67,5.10,5.62,5.05,-5.05,-5.00,-5.64,0.62,0.56,0.57
124.79,5.64,5.13,5.59,5.09,-5.09,-5.05,-5.67,0.55,0.50,0.51
126.03,5.58,5.13,5.57,5.13,-5.13,-5.10,-5.70,0.45,0.44,0.45
127.29,5.55,5.16,5.55,5.17,-5.17,-5.15,-5.72,0.38,0.38,0.39
128.57,5.53,5.21,5.54,5.22,-5.22,-5.19,-5.74,0.31,0.32,0.32
129.85,5.47,5.21,5.53,5.27,-5.27,-5.24,-5.74,0.21,0.26,0.26
131.15,5.46,5.26,5.51,5.31,-5.31,-5.29,-5.75,0.15,0.20,0.20
132.46,5.46,5.32,5.50,5.36,-5.36,-5.33,-5.74,0.10,0.14,0.14
133.79,5.42,5.34,5.49,5.40,-5.40,-5.38,-5.74,0.02,0.08,0.08
135.12,5.42,5.40,5.47,5.45,-5.45,-5.43,-5.73,-0.02,0.02,0.02
136.48,5.44,5.47,5.46,5.49,-5.49,-5.47,-5.71,-0.05,-0.03,-0.03
137.84,5.46,5.55,5.44,5.53,-5.53,-5.51,-5.69,-0.07,-0.09,-0.09
139.22,5.49,5.64,5.43,5.57,-5.57,-5.56,-5.67,-0.08,-0.14,-0.15
140.61,5.51,5.71,5.41,5.60,-5.60,-5.60,-5.64,-0.09,-0.19,-0.20
142.02,5.46,5.71,5.38,5.63,-5.63,-5.64,-5.62,-0.17,-0.25,-0.25
143.44,5.43,5.73,5.35,5.65,-5.65,-5.68,-5.59,-0.22,-0.30,-0.30
144.87,5.35,5.69,5.33,5.67,-5.67,-5.72,-5.56,-0.32,-0.34,-0.34
146.32,5.28,5.67,5.30,5.70,-5.70,-5.76,-5.53,-0.42,-0.39,-0.39
147.78,5.22,5.66,5.28,5.72,-5.72,-5.80,-5.50,-0.50,-0.44,-0.44
149.26,5.18,5.67,5.25,5.74,-5.74,-5.83,-5.47,-0.56,-0.49,-0.49
150.75,5.18,5.72,5.22,5.76,-5.76,-5.87,-5.45,-0.58,-0.54,-0.54
152.26,5.15,5.73,5.19,5.78,-5.78,-5.91,-5.42,-0.63,-0.59,-0.58
153.78,5.10,5.73,5.16,5.80,-5.80,-5.94,-5.40,-0.70,-0.63,-0.63
155.32,5.09,5.77,5.14,5.82,-5.82,-5.97,-5.37,-0.73,-0.68,-0.68
156.88,5.11,5.84,5.11,5.85,-5.85,-6.01,-5.35,-0.73,-0.73,-0.73
158.44,5.14,5.92,5.10,5.88,-5.88,-6.04,-5.34,-0.74,-0.78,-0.78
160.03,5.18,6.01,5.08,5.91,-5.91,-6.07,-5.32,-0.73,-0.83,-0.83
161.63,5.15,6.03,5.07,5.95,-5.95,-6.10,-5.31,-0.80,-0.88,-0.88
163.24,5.07,6.00,5.06,5.99,-5.99,-6.13,-5.30,-0.91,-0.93,-0.93
164.88,5.02,6.00,5.04,6.02,-6.02,-6.15,-5.30,-1.00,-0.98,-0.98
166.53,4.99,6.02,5.02,6.05,-6.05,-6.18,-5.29,-1.05,-1.03,-1.03
168.19,4.98,6.06,4.99,6.07,-6.07,-6.21,-5.30,-1.09,-1.08,-1.08
169.87,4.95,6.08,4.97,6.10,-6.10,-6.23,-5.30,-1.15,-1.13,-1.13
171.57,4.95,6.13,4.94,6.13,-6.13,-6.25,-5.31,-1.17,-1.18,-1.18
173.29,4.91,6.14,4.92,6.15,-6.15,-6.27,-5.33,-1.24,-1.23,-1.23
175.02,4.88,6.16,4.89,6.17,-6.17,-6.29,-5.35,-1.29,-1.28,-1.28
176.77,4.85,6.18,4.86,6.19,-6.19,-6.31,-5.37,-1.34,-1.33,-1.33
178.54,4.81,6.19,4.83,6.20,-6.20,-6.33,-5.39,-1.39,-1.38,-1.38
180.32,4.81,6.24,4.80,6.23,-6.23,-6.35,-5.42,-1.42,-1.43,-1.43
182.13,4.78,6.26,4.78,6.26,-6.26,-6.36,-5.46,-1.48,-1.48,-1.48
183.95,4.78,6.30,4.76,6.29,-6.29,-6.38,-5.50,-1.51,-1.53,-1.52
185.79,4.76,6.33,4.75,6.32,-6.32,-6.39,-5.54,-1.56,-1.57,-1.57
187.65,4.76,6.38,4.73,6.35,-6.35,-6.40,-5.59,-1.59,-1.62,-1.62
189.52,4.70,6.37,4.71,6.38,-6.38,-6.41,-5.64,-1.68,-1.67,-1.67
191.42,4.67,6.38,4.70,6.41,-6.41,-6.42,-5.69,-1.74,-1.71,-1.71
193.33,4.60,6.36,4.68,6.44,-6.44,-6.43,-5.75,-1.84,-1.76,-1.76
195.27,4.59,6.39,4.66,6.46,-6.46,-6.44,-5.81,-1.87,-1.80,-1.80
197.22,4.64,6.49,4.63,6.48,-6.48,-6.45,-5.87,-1.84,-1.84,-1.85
199.19,4.67,6.56,4.61,6.49,-6.49,-6.45,-5.94,-1.82,-1.89,-1.89
201.18,4.66,6.59,4.58,6.50,-6.50,-6.45,-6.01,-1.84,-1.93,-1.93
203.19,4.60,6.57,4.55,6.51,-6.51,-6.45,-6.08,-1.91,-1.97,-1.97
205.23,4.55,6.55,4.51,6.52,-6.52,-6.46,-6.15,-1.97,-2.00,-2.00
207.28,4.50,6.54,4.48,6.52,-6.52,-6.45,-6.23,-2.02,-2.04,-2.04
209.35,4.44,6.52,4.45,6.53,-6.53,-6.45,-6.31,-2.09,-2.08,-2.08
211.44,4.38,6.49,4.42,6.53,-6.53,-6.45,-6.38,-2.15,-2.11,-2.11
213.56,4.31,6.45,4.39,6.53,-6.53,-6.45,-6.46,-2.22,-2.14,-2.14
215.69,4.29,6.46,4.36,6.53,-6.53,-6.44,-6.54,-2.24,-2.18,-2.17
217.85,4.29,6.49,4.32,6.52,-6.52,-6.43,-6.61,-2.23,-2.21,-2.20
220.03,4.29,6.53,4.27,6.51,-6.51,-6.43,-6.68,-2.22,-2.24,-2.24
222.23,4.25,6.52,4.24,6.50,-6.50,-6.42,-6.76,-2.25,-2.26,-2.27
224.45,4.22,6.52,4.20,6.49,-6.49,-6.41,-6.82,-2.27,-2.29,-2.30
226.70,4.19,6.51,4.17,6.49,-6.49,-6.40,-6.89,-2.30,-2.32,-2.32
228.96,4.16,6.50,4.13,6.48,-6.48,-6.38,-6.95,-2.32,-2.35,-2.34
231.25,4.13,6.50,4.10,6.47,-6.47,-6.37,-7.00,-2.34,-2.37,-2.37
233.57,4.09,6.48,4.06,6.45,-6.45,-6.35,-7.05,-2.36,-2.39,-2.39
235.90,4.02,6.44,4.02,6.43,-6.43,-6.34,-7.09,-2.41,-2.41,-2.42
238.26,3.96,6.40,3.98,6.41,-6.41,-6.32,-7.12,-2.45,-2.44,-2.44
240.64,3.90,6.35,3.94,6.39,-6.39,-6.30,-7.15,-2.49,-2.45,-2.45
243.05,3.87,6.34,3.89,6.36,-6.36,-6.28,-7.17,-2.49,-2.47,-2.47
245.48,3.87,6.36,3.85,6.34,-6.34,-6.26,-7.17,-2.47,-2.49,-2.49
247.93,3.80,6.31,3.81,6.31,-6.31,-6.24,-7.17,-2.51,-2.50,-2.51
250.41,3.76,6.28,3.77,6.29,-6.29,-6.22,-7.16,-2.53,-2.52,-2.52
252.92,3.71,6.24,3.73,6.26,-6.26,-6.20,-7.14,-2.55,-2.53,-2.53
255.45,3.67,6.22,3.69,6.24,-6.24,-6.17,-7.12,-2.57,-2.55,-2.55
258.00,3.64,6.20,3.66,6.22,-6.22,-6.15,-7.08,-2.58,-2.56,-2.56
260.58,3.64,6.21,3.62,6.20,-6.20,-6.12,-7.03,-2.55,-2.57,-2.57
263.19,3.63,6.21,3.59,6.17,-6.17,-6.10,-6.98,-2.54,-2.58,-2.58
265.82,3.57,6.16,3.56,6.15,-6.15,-6.07,-6.91,-2.58,-2.59,-2.59
268.48,3.52,6.12,3.52,6.13,-6.13,-6.04,-6.84,-2.60,-2.60,-2.60
271.16,3.48,6.09,3.49,6.10,-6.10,-6.01,-6.77,-2.62,-2.61,-2.61
273.87,3.43,6.05,3.44,6.06,-6.06,-5.98,-6.69,-2.63,-2.62,-2.62
276.61,3.40,6.03,3.40,6.03,-6.03,-5.95,-6.60,-2.63,-2.63,-2.63
279.38,3.37,6.01,3.36,5.99,-5.99,-5.92,-6.50,-2.62,-2.63,-2.64
282.17,3.34,5.98,3.32,5.96,-5.96,-5.89,-6.41,-2.61,-2.64,-2.64
284.99,3.29,5.93,3.28,5.92,-5.92,-5.85,-6.31,-2.63,-2.64,-2.64
287.84,3.24,5.88,3.24,5.88,-5.88,-5.82,-6.20,-2.64,-2.64,-2.64
290.72,3.18,5.83,3.20,5.85,-5.85,-5.79,-6.10,-2.67,-2.65,-2.65
293.63,3.17,5.82,3.16,5.81,-5.81,-5.75,-5.99,-2.64,-2.65,-2.65
296.57,3.10,5.75,3.12,5.77,-5.77,-5.72,-5.89,-2.67,-2.65,-2.65
299.53,3.02,5.67,3.08,5.73,-5.73,-5.68,-5.78,-2.71,-2.65,-2.65
302.53,2.99,5.64,3.04,5.69,-5.69,-5.64,-5.67,-2.70,-2.65,-2.65
305.55,2.99,5.64,2.99,5.64,-5.64,-5.60,-5.57,-2.65,-2.65,-2.65
308.61,2.99,5.64,2.95,5.60,-5.60,-5.57,-5.46,-2.61,-2.65,-2.65
311.69,2.98,5.63,2.90,5.55,-5.55,-5.53,-5.36,-2.57,-2.65,-2.65
314.81,2.91,5.56,2.86,5.51,-5.51,-5.49,-5.26,-2.59,-2.65,-2.65
317.96,2.85,5.50,2.81,5.46,-5.46,-5.45,-5.16,-2.61,-2.65,-2.65
321.14,2.75,5.40,2.77,5.42,-5.42,-5.41,-5.06,-2.67,-2.65,-2.65
324.35,2.68,5.33,2.74,5.38,-5.38,-5.37,-4.96,-2.70,-2.65,-2.65
327.59,2.64,5.28,2.69,5.34,-5.34,-5.32,-4.87,-2.70,-2.64,-2.64
330.87,2.61,5.25,2.65,5.29,-5.29,-5.28,-4.78,-2.68,-2.64,-2.64
334.18,2.57,5.21,2.60,5.24,-5.24,-5.24,-4.69,-2.67,-2.64,-2.64
337.52,2.57,5.21,2.56,5.19,-5.19,-5.20,-4.61,-2.62,-2.63,-2.64
340.90,2.52,5.15,2.51,5.14,-5.14,-5.15,-4.53,-2.62,-2.63,-2.63
344.30,2.48,5.11,2.47,5.09,-5.09,-5.11,-4.45,-2.61,-2.63,-2.63
347.75,2.47,5.09,2.43,5.05,-5.05,-5.06,-4.38,-2.58,-2.62,-2.62
351.23,2.42,5.04,2.39,5.01,-5.01,-5.02,-4.30,-2.59,-2.62,-2.62
354.74,2.35,4.96,2.35,4.96,-4.96,-4.97,-4.24,-2.61,-2.61,-2.61
358.28,2.29,4.90,2.30,4.91,-4.91,-4.93,-4.17,-2.62,-2.61,-2.61
361.87,2.20,4.80,2.26,4.86,-4.86,-4.88,-4.11,-2.66,-2.60,-2.60
365.49,2.20,4.79,2.21,4.80,-4.80,-4.83,-4.05,-2.60,-2.60,-2.59
369.14,2.20,4.79,2.16,4.75,-4.75,-4.78,-3.99,-2.55,-2.59,-2.59
372.83,2.14,4.72,2.11,4.69,-4.69,-4.74,-3.94,-2.55,-2.58,-2.58
376.56,2.09,4.67,2.06,4.63,-4.63,-4.69,-3.89,-2.54,-2.58,-2.58
380.33,2.01,4.58,2.01,4.58,-4.58,-4.64,-3.85,-2.57,-2.57,-2.57
384.13,1.92,4.49,1.96,4.52,-4.52,-4.59,-3.80,-2.60,-2.57,-2.57
387.97,1.85,4.41,1.91,4.47,-4.47,-4.54,-3.76,-2.62,-2.56,-2.56
391.85,1.82,4.37,1.86,4.41,-4.41,-4.49,-3.72,-2.59,-2.55,-2.55
395.77,1.81,4.36,1.81,4.36,-4.36,-4.44,-3.69,-2.55,-2.55,-2.55
399.73,1.78,4.32,1.77,4.31,-4.31,-4.39,-3.65,-2.52,-2.54,-2.54
403.72,1.73,4.26,1.72,4.25,-4.25,-4.34,-3.62,-2.52,-2.53,-2.53
407.76,1.70,4.23,1.67,4.20,-4.20,-4.29,-3.59,-2.50,-2.53,-2.53
411.84,1.64,4.16,1.62,4.14,-4.14,-4.23,-3.56,-2.50,-2.52,-2.52
415.96,1.57,4.08,1.58,4.09,-4.09,-4.18,-3.54,-2.52,-2.51,-2.51
420.12,1.53,4.04,1.54,4.04,-4.04,-4.13,-3.51,-2.51,-2.51,-2.51
424.32,1.48,3.98,1.49,3.99,-3.99,-4.08,-3.49,-2.51,-2.50,-2.50
428.56,1.43,3.92,1.45,3.94,-3.94,-4.02,-3.47,-2.51,-2.49,-2.49
432.85,1.40,3.88,1.40,3.88,-3.88,-3.97,-3.45,-2.48,-2.48,-2.48
437.18,1.36,3.84,1.35,3.82,-3.82,-3.91,-3.43,-2.46,-2.48,-2.48
441.55,1.33,3.80,1.30,3.76,-3.76,-3.86,-3.41,-2.43,-2.47,-2.47
445.96,1.25,3.71,1.25,3.71,-3.71,-3.80,-3.39,-2.46,-2.46,-2.46
450.42,1.20,3.65,1.20,3.65,-3.65,-3.75,-3.37,-2.45,-2.45,-2.45
454.93,1.15,3.59,1.16,3.60,-3.60,-3.69,-3.35,-2.45,-2.44,-2.44
459.48,1.09,3.52,1.12,3.55,-3.55,-3.64,-3.33,-2.46,-2.43,-2.43
464.07,1.06,3.48,1.07,3.49,-3.49,-3.58,-3.31,-2.43,-2.42,-2.42
468.71,1.01,3.42,1.02,3.43,-3.43,-3.52,-3.29,-2.42,-2.41,-2.41
473.40,0.95,3.35,0.97,3.37,-3.37,-3.47,-3.27,-2.42,-2.40,-2.40
478.13,0.94,3.33,0.93,3.32,-3.32,-3.41,-3.25,-2.38,-2.39,-2.39
482.91,0.91,3.29,0.88,3.26,-3.26,-3.35,-3.22,-2.35,-2.38,-2.38
487.74,0.86,3.23,0.84,3.20,-3.20,-3.29,-3.20,-2.34,-2.37,-2.37
492.62,0.80,3.16,0.79,3.15,-3.15,-3.23,-3.17,-2.35,-2.36,-2.36
497.55,0.77,3.12,0.74,3.09,-3.09,-3.17,-3.14,-2.32,-2.35,-2.35
502.52,0.69,3.03,0.70,3.03,-3.03,-3.12,-3.11,-2.34,-2.34,-2.34
507.55,0.62,2.94,0.65,2.98,-2.98,-3.06,-3.08,-2.36,-2.33,-2.32
512.62,0.56,2.87,0.61,2.92,-2.92,-3.00,-3.05,-2.36,-2.31,-2.31
517.75,0.56,2.86,0.56,2.86,-2.86,-2.94,-3.01,-2.30,-2.30,-2.30
