frequency,raw,error,smoothed,error_smoothed,equalization,parametric_eq,fixed_band_eq,equalized_raw,equalized_smoothed,target
20.00,12.12,2.80,12.14,2.82,-2.82,-2.20,-1.01,9.30,9.32,9.31
20.20,12.12,2.81,12.13,2.82,-2.82,-2.21,-1.04,9.30,9.31,9.30
20.40,12.11,2.81,12.12,2.82,-2.82,-2.21,-1.07,9.29,9.29,9.29
20.61,12.10,2.81,12.10,2.82,-2.82,-2.21,-1.10,9.28,9.28,9.29
20.81,12.10,2.83,12.09,2.82,-2.82,-2.22,-1.13,9.28,9.27,9.26
21.02,12.09,2.83,12.08,2.82,-2.82,-2.22,-1.17,9.27,9.26,9.25
21.23,12.07,2.82,12.06,2.81,-2.81,-2.22,-1.20,9.26,9.25,9.25
21.44,12.06,2.80,12.05,2.81,-2.81,-2.23,-1.24,9.25,9.24,9.25
21.66,12.04,2.80,12.03,2.80,-2.80,-2.23,-1.28,9.24,9.23,9.24
21.87,12.03,2.79,12.01,2.79,-2.79,-2.24,-1.32,9.24,9.22,9.23
22.09,12.01,2.79,11.99,2.78,-2.78,-2.24,-1.36,9.23,9.22,9.21
22.31,11.99,2.78,11.97,2.77,-2.77,-2.24,-1.40,9.22,9.21,9.20
22.54,11.96,2.76,11.95,2.75,-2.75,-2.25,-1.44,9.21,9.20,9.20
22.76,11.93,2.73,11.92,2.72,-2.72,-2.25,-1.48,9.20,9.20,9.19
22.99,11.90,2.71,11.89,2.70,-2.70,-2.26,-1.53,9.20,9.19,9.19
23.22,11.87,2.69,11.87,2.68,-2.68,-2.26,-1.57,9.19,9.19,9.18
23.45,11.84,2.65,11.85,2.67,-2.67,-2.27,-1.62,9.17,9.18,9.18
23.69,11.81,2.63,11.83,2.65,-2.65,-2.27,-1.66,9.16,9.17,9.18
23.92,11.79,2.62,11.81,2.64,-2.64,-2.27,-1.71,9.15,9.17,9.17
24.16,11.77,2.59,11.80,2.63,-2.63,-2.28,-1.76,9.14,9.17,9.17
24.40,11.75,2.57,11.79,2.62,-2.62,-2.28,-1.81,9.13,9.17,9.17
24.65,11.75,2.58,11.78,2.61,-2.61,-2.29,-1.86,9.14,9.16,9.17
24.89,11.75,2.58,11.77,2.61,-2.61,-2.29,-1.91,9.14,9.16,9.16
25.14,11.76,2.60,11.77,2.61,-2.61,-2.30,-1.96,9.15,9.16,9.15
25.39,11.78,2.62,11.76,2.60,-2.60,-2.30,-2.02,9.18,9.16,9.15
25.65,11.79,2.63,11.76,2.60,-2.60,-2.31,-2.07,9.19,9.16,9.15
25.91,11.78,2.62,11.75,2.59,-2.59,-2.32,-2.12,9.19,9.16,9.15
26.16,11.77,2.60,11.74,2.58,-2.58,-2.32,-2.17,9.18,9.16,9.16
26.43,11.75,2.59,11.73,2.57,-2.57,-2.33,-2.22,9.18,9.16,9.16
26.69,11.73,2.57,11.71,2.56,-2.56,-2.33,-2.28,9.17,9.16,9.15
26.96,11.70,2.54,11.69,2.54,-2.54,-2.34,-2.33,9.16,9.16,9.15
27.23,11.67,2.51,11.67,2.51,-2.51,-2.34,-2.38,9.16,9.16,9.15
27.50,11.64,2.48,11.64,2.48,-2.48,-2.35,-2.43,9.16,9.16,9.15
27.77,11.61,2.44,11.61,2.45,-2.45,-2.36,-2.47,9.16,9.16,9.16
28.05,11.58,2.42,11.58,2.42,-2.42,-2.36,-2.52,9.16,9.16,9.16
28.33,11.55,2.38,11.55,2.39,-2.39,-2.37,-2.57,9.16,9.16,9.16
28.62,11.52,2.35,11.52,2.36,-2.36,-2.37,-2.61,9.16,9.17,9.16
28.90,11.49,2.31,11.50,2.33,-2.33,-2.38,-2.65,9.16,9.16,9.17
29.19,11.47,2.29,11.48,2.31,-2.31,-2.39,-2.69,9.16,9.16,9.17
29.48,11.45,2.28,11.46,2.30,-2.30,-2.39,-2.72,9.15,9.16,9.16
29.78,11.43,2.26,11.45,2.29,-2.29,-2.40,-2.76,9.14,9.16,9.16
30.08,11.42,2.25,11.45,2.29,-2.29,-2.41,-2.79,9.13,9.16,9.16
30.38,11.42,2.27,11.44,2.29,-2.29,-2.42,-2.81,9.13,9.15,9.15
30.68,11.42,2.27,11.44,2.29,-2.29,-2.42,-2.84,9.13,9.15,9.14
30.99,11.43,2.28,11.44,2.30,-2.30,-2.43,-2.86,9.13,9.15,9.14
31.30,11.45,2.30,11.44,2.30,-2.30,-2.44,-2.87,9.15,9.14,9.14
31.61,11.46,2.32,11.44,2.31,-2.31,-2.44,-2.89,9.15,9.13,9.14
31.93,11.47,2.35,11.44,2.32,-2.32,-2.45,-2.90,9.15,9.13,9.12
32.24,11.46,2.33,11.44,2.32,-2.32,-2.46,-2.90,9.14,9.12,9.12
32.57,11.46,2.35,11.44,2.32,-2.32,-2.47,-2.91,9.14,9.11,9.11
32.89,11.45,2.34,11.43,2.32,-2.32,-2.48,-2.91,9.13,9.11,9.10
33.22,11.43,2.33,11.41,2.32,-2.32,-2.49,-2.91,9.11,9.10,9.09
33.55,11.40,2.30,11.40,2.30,-2.30,-2.49,-2.90,9.09,9.09,9.09
33.89,11.38,2.29,11.37,2.29,-2.29,-2.50,-2.90,9.09,9.08,9.09
34.23,11.35,2.28,11.35,2.27,-2.27,-2.51,-2.89,9.08,9.08,9.07
34.57,11.32,2.25,11.32,2.25,-2.25,-2.52,-2.88,9.07,9.07,9.06
34.92,11.29,2.24,11.29,2.23,-2.23,-2.53,-2.86,9.06,9.06,9.05
35.27,11.26,2.19,11.26,2.21,-2.21,-2.54,-2.85,9.05,9.05,9.06
35.62,11.23,2.19,11.23,2.19,-2.19,-2.55,-2.84,9.04,9.04,9.04
35.97,11.20,2.16,11.20,2.18,-2.18,-2.56,-2.82,9.02,9.02,9.03
36.33,11.17,2.15,11.18,2.17,-2.17,-2.57,-2.80,9.00,9.01,9.01
36.70,11.15,2.15,11.16,2.16,-2.16,-2.58,-2.79,8.99,8.99,9.00
37.06,11.12,2.14,11.14,2.16,-2.16,-2.59,-2.77,8.95,8.98,8.97
37.43,11.11,2.15,11.13,2.17,-2.17,-2.60,-2.75,8.94,8.96,8.95
37.81,11.10,2.15,11.12,2.18,-2.18,-2.61,-2.73,8.92,8.94,8.95
38.19,11.09,2.17,11.12,2.20,-2.20,-2.62,-2.72,8.89,8.92,8.92
38.57,11.10,2.20,11.12,2.22,-2.22,-2.63,-2.70,8.88,8.90,8.90
38.95,11.11,2.22,11.12,2.24,-2.24,-2.64,-2.68,8.87,8.88,8.88
39.34,11.12,2.26,11.12,2.26,-2.26,-2.65,-2.67,8.86,8.85,8.85
39.74,11.13,2.30,11.12,2.28,-2.28,-2.66,-2.66,8.85,8.83,8.83
40.14,11.14,2.33,11.12,2.31,-2.31,-2.67,-2.64,8.83,8.81,8.81
40.54,11.14,2.35,11.11,2.33,-2.33,-2.69,-2.63,8.81,8.79,8.79
40.94,11.13,2.37,11.11,2.34,-2.34,-2.70,-2.62,8.79,8.77,8.75
41.35,11.12,2.37,11.10,2.36,-2.36,-2.71,-2.62,8.76,8.74,8.74
41.76,11.10,2.38,11.09,2.37,-2.37,-2.72,-2.61,8.73,8.72,8.71
42.18,11.08,2.37,11.07,2.38,-2.38,-2.74,-2.61,8.70,8.70,8.70
42.60,11.06,2.38,11.05,2.38,-2.38,-2.75,-2.60,8.68,8.67,8.67
43.03,11.03,2.37,11.03,2.38,-2.38,-2.76,-2.60,8.65,8.65,8.65
43.46,11.00,2.38,11.00,2.37,-2.37,-2.77,-2.60,8.63,8.62,8.61
43.90,10.97,2.37,10.97,2.37,-2.37,-2.79,-2.61,8.60,8.60,8.60
44.33,10.94,2.37,10.94,2.37,-2.37,-2.80,-2.61,8.57,8.57,8.56
44.78,10.91,2.36,10.91,2.37,-2.37,-2.82,-2.62,8.54,8.54,8.55
45.23,10.88,2.35,10.88,2.37,-2.37,-2.83,-2.63,8.51,8.51,8.53
45.68,10.85,2.37,10.86,2.38,-2.38,-2.84,-2.64,8.47,8.48,8.48
46.13,10.82,2.37,10.84,2.40,-2.40,-2.86,-2.65,8.42,8.44,8.44
46.60,10.80,2.39,10.82,2.42,-2.42,-2.87,-2.66,8.38,8.40,8.41
47.06,10.79,2.41,10.81,2.44,-2.44,-2.89,-2.68,8.35,8.37,8.37
47.53,10.77,2.43,10.80,2.48,-2.48,-2.90,-2.70,8.29,8.33,8.33
48.01,10.77,2.48,10.80,2.51,-2.51,-2.92,-2.72,8.26,8.29,8.29
48.49,10.78,2.53,10.79,2.55,-2.55,-2.94,-2.74,8.23,8.25,8.25
48.97,10.79,2.59,10.79,2.59,-2.59,-2.95,-2.76,8.20,8.20,8.19
49.46,10.80,2.63,10.79,2.63,-2.63,-2.97,-2.79,8.17,8.16,8.16
49.96,10.81,2.70,10.79,2.67,-2.67,-2.98,-2.81,8.14,8.12,8.11
50.46,10.81,2.73,10.78,2.70,-2.70,-3.00,-2.84,8.10,8.08,8.08
50.96,10.80,2.76,10.78,2.74,-2.74,-3.02,-2.87,8.06,8.04,8.03
51.47,10.79,2.79,10.77,2.77,-2.77,-3.04,-2.90,8.02,7.99,7.99
51.99,10.77,2.82,10.75,2.80,-2.80,-3.05,-2.93,7.97,7.95,7.95
52.51,10.75,2.83,10.74,2.82,-2.82,-3.07,-2.96,7.92,7.91,7.92
53.03,10.72,2.83,10.71,2.85,-2.85,-3.09,-2.99,7.87,7.87,7.88
53.56,10.69,2.85,10.69,2.86,-2.86,-3.11,-3.02,7.83,7.83,7.83
54.10,10.66,2.87,10.66,2.87,-2.87,-3.13,-3.06,7.79,7.79,7.79
54.64,10.63,2.88,10.63,2.88,-2.88,-3.15,-3.09,7.75,7.75,7.75
55.18,10.60,2.89,10.60,2.89,-2.89,-3.16,-3.12,7.71,7.71,7.70
55.74,10.57,2.91,10.57,2.90,-2.90,-3.18,-3.16,7.67,7.67,7.66
56.29,10.54,2.90,10.55,2.91,-2.91,-3.20,-3.19,7.63,7.64,7.63
56.86,10.52,2.92,10.53,2.93,-2.93,-3.22,-3.22,7.59,7.60,7.60
57.42,10.49,2.94,10.51,2.96,-2.96,-3.25,-3.25,7.53,7.55,7.54
58.00,10.48,2.97,10.50,2.99,-2.99,-3.27,-3.28,7.49,7.51,7.51
58.58,10.46,2.98,10.49,3.02,-3.02,-3.29,-3.31,7.44,7.47,7.48
59.16,10.46,3.01,10.48,3.06,-3.06,-3.31,-3.34,7.40,7.42,7.44
59.76,10.46,3.06,10.48,3.10,-3.10,-3.33,-3.37,7.36,7.37,7.40
60.35,10.47,3.12,10.47,3.14,-3.14,-3.35,-3.39,7.33,7.33,7.34
60.96,10.48,3.19,10.47,3.19,-3.19,-3.37,-3.42,7.29,7.28,7.29
61.57,10.48,3.25,10.46,3.23,-3.23,-3.40,-3.44,7.25,7.23,7.23
62.18,10.48,3.31,10.45,3.28,-3.28,-3.42,-3.46,7.20,7.17,7.16
62.80,10.47,3.36,10.44,3.32,-3.32,-3.44,-3.48,7.15,7.12,7.10
63.43,10.45,3.39,10.43,3.36,-3.36,-3.47,-3.50,7.09,7.07,7.05
64.07,10.43,3.42,10.41,3.40,-3.40,-3.49,-3.51,7.03,7.01,7.01
64.71,10.40,3.44,10.39,3.44,-3.44,-3.52,-3.53,6.96,6.96,6.96
65.35,10.38,3.48,10.37,3.47,-3.47,-3.54,-3.54,6.91,6.90,6.89
66.01,10.35,3.50,10.34,3.50,-3.50,-3.57,-3.55,6.85,6.85,6.85
66.67,10.31,3.50,10.31,3.52,-3.52,-3.59,-3.56,6.79,6.79,6.81
67.33,10.28,3.54,10.28,3.55,-3.55,-3.62,-3.57,6.73,6.74,6.73
68.01,10.25,3.56,10.25,3.57,-3.57,-3.64,-3.58,6.68,6.68,6.69
68.69,10.22,3.58,10.23,3.60,-3.60,-3.67,-3.58,6.62,6.63,6.64
69.37,10.20,3.61,10.20,3.63,-3.63,-3.70,-3.59,6.57,6.57,6.58
70.07,10.17,3.64,10.18,3.67,-3.67,-3.72,-3.60,6.50,6.52,6.53
70.77,10.15,3.69,10.16,3.71,-3.71,-3.75,-3.60,6.44,6.46,6.46
71.48,10.14,3.73,10.15,3.75,-3.75,-3.78,-3.61,6.39,6.40,6.41
72.19,10.12,3.77,10.14,3.80,-3.80,-3.81,-3.62,6.32,6.34,6.34
72.91,10.12,3.84,10.14,3.85,-3.85,-3.83,-3.63,6.27,6.29,6.27
73.64,10.12,3.89,10.14,3.91,-3.91,-3.86,-3.64,6.21,6.23,6.22
74.38,10.13,3.96,10.14,3.96,-3.96,-3.89,-3.65,6.17,6.17,6.17
75.12,10.14,4.02,10.14,4.02,-4.02,-3.92,-3.66,6.12,6.12,6.11
75.87,10.15,4.08,10.14,4.08,-4.08,-3.95,-3.67,6.07,6.07,6.06
76.63,10.15,4.14,10.15,4.13,-4.13,-3.98,-3.69,6.02,6.01,6.00
77.40,10.16,4.19,10.15,4.19,-4.19,-4.01,-3.71,5.97,5.96,5.97
78.17,10.16,4.25,10.15,4.24,-4.24,-4.04,-3.72,5.92,5.91,5.90
78.95,10.17,4.30,10.15,4.29,-4.29,-4.07,-3.75,5.88,5.86,5.86
79.74,10.16,4.34,10.14,4.33,-4.33,-4.10,-3.77,5.83,5.81,5.81
80.54,10.15,4.38,10.13,4.37,-4.37,-4.14,-3.79,5.78,5.76,5.76
81.35,10.13,4.42,10.12,4.41,-4.41,-4.17,-3.82,5.72,5.71,5.71
82.16,10.11,4.43,10.10,4.44,-4.44,-4.20,-3.85,5.67,5.66,5.67
82.98,10.09,4.47,10.08,4.47,-4.47,-4.23,-3.89,5.62,5.61,5.61
83.81,10.06,4.49,10.05,4.50,-4.50,-4.27,-3.92,5.56,5.56,5.56
84.65,10.03,4.52,10.03,4.52,-4.52,-4.30,-3.96,5.51,5.50,5.50
85.50,10.00,4.55,10.00,4.55,-4.55,-4.33,-4.01,5.45,5.45,5.45
86.35,9.97,4.57,9.97,4.57,-4.57,-4.37,-4.05,5.40,5.40,5.39
87.22,9.94,4.59,9.94,4.60,-4.60,-4.40,-4.10,5.34,5.34,5.35
88.09,9.91,4.62,9.91,4.63,-4.63,-4.44,-4.15,5.28,5.29,5.29
88.97,9.88,4.65,9.89,4.66,-4.66,-4.47,-4.21,5.22,5.23,5.23
89.86,9.85,4.67,9.87,4.69,-4.69,-4.51,-4.26,5.16,5.17,5.18
90.76,9.83,4.71,9.85,4.73,-4.73,-4.54,-4.32,5.10,5.11,5.12
91.66,9.82,4.77,9.83,4.78,-4.78,-4.58,-4.39,5.04,5.05,5.04
92.58,9.81,4.81,9.82,4.83,-4.83,-4.61,-4.46,4.98,4.99,4.99
93.51,9.80,4.85,9.81,4.88,-4.88,-4.65,-4.53,4.92,4.93,4.95
94.44,9.80,4.91,9.81,4.94,-4.94,-4.69,-4.60,4.86,4.87,4.88
95.39,9.81,4.99,9.81,5.00,-5.00,-4.72,-4.67,4.81,4.81,4.82
96.34,9.81,5.06,9.81,5.06,-5.06,-4.76,-4.75,4.75,4.75,4.74
97.30,9.82,5.13,9.81,5.13,-5.13,-4.80,-4.83,4.69,4.69,4.68
98.28,9.82,5.20,9.82,5.19,-5.19,-4.84,-4.92,4.63,4.63,4.62
99.26,9.82,5.26,9.82,5.26,-5.26,-4.87,-5.00,4.56,4.57,4.56
100.25,9.83,5.33,9.83,5.32,-5.32,-4.91,-5.09,4.51,4.51,4.49
101.25,9.83,5.38,9.83,5.38,-5.38,-4.95,-5.18,4.44,4.45,4.44
102.27,9.84,5.45,9.83,5.44,-5.44,-4.99,-5.27,4.40,4.39,4.39
103.29,9.84,5.51,9.83,5.50,-5.50,-5.03,-5.36,4.34,4.33,4.33
104.32,9.84,5.56,9.82,5.55,-5.55,-5.07,-5.45,4.29,4.27,4.27
105.37,9.83,5.61,9.82,5.60,-5.60,-5.11,-5.55,4.23,4.22,4.22
106.42,9.81,5.64,9.80,5.64,-5.64,-5.14,-5.64,4.17,4.16,4.17
107.48,9.80,5.69,9.79,5.69,-5.69,-5.18,-5.73,4.11,4.10,4.10
108.56,9.77,5.71,9.77,5.73,-5.73,-5.22,-5.83,4.04,4.05,4.06
109.64,9.75,5.75,9.75,5.76,-5.76,-5.26,-5.92,3.99,3.99,3.99
110.74,9.72,5.78,9.73,5.80,-5.80,-5.30,-6.00,3.92,3.93,3.93
111.85,9.70,5.82,9.70,5.83,-5.83,-5.34,-6.09,3.87,3.87,3.88
112.97,9.67,5.84,9.67,5.86,-5.86,-5.38,-6.17,3.81,3.81,3.83
114.10,9.64,5.87,9.64,5.88,-5.88,-5.42,-6.25,3.76,3.75,3.77
115.24,9.61,5.92,9.60,5.91,-5.91,-5.46,-6.33,3.70,3.70,3.69
116.39,9.58,5.95,9.57,5.93,-5.93,-5.50,-6.40,3.64,3.64,3.63
117.55,9.54,5.97,9.54,5.96,-5.96,-5.54,-6.46,3.58,3.58,3.56
118.73,9.49,5.98,9.51,5.98,-5.98,-5.58,-6.52,3.50,3.52,3.51
119.92,9.46,5.99,9.47,6.01,-6.01,-5.62,-6.58,3.45,3.47,3.47
121.12,9.42,6.00,9.44,6.03,-6.03,-5.66,-6.62,3.39,3.41,3.42
122.33,9.40,6.04,9.40,6.05,-6.05,-5.70,-6.66,3.35,3.35,3.36
123.55,9.37,6.06,9.36,6.07,-6.07,-5.74,-6.69,3.30,3.30,3.31
124.79,9.34,6.08,9.33,6.08,-6.08,-5.78,-6.72,3.26,3.24,3.26
126.03,9.31,6.11,9.29,6.10,-6.10,-5.82,-6.74,3.21,3.19,3.19
127.29,9.27,6.12,9.25,6.12,-6.12,-5.86,-6.75,3.15,3.13,3.14
128.57,9.22,6.14,9.21,6.13,-6.13,-5.90,-6.75,3.09,3.08,3.08
129.85,9.17,6.14,9.17,6.15,-6.15,-5.94,-6.75,3.02,3.03,3.02
131.15,9.12,6.15,9.14,6.17,-6.17,-5.98,-6.74,2.95,2.97,2.96
132.46,9.08,6.16,9.10,6.18,-6.18,-6.02,-6.73,2.90,2.92,2.91
133.79,9.05,6.19,9.06,6.20,-6.20,-6.06,-6.70,2.85,2.86,2.86
135.12,9.01,6.20,9.02,6.21,-6.21,-6.10,-6.68,2.80,2.81,2.80
136.48,8.98,6.22,8.98,6.22,-6.22,-6.14,-6.65,2.76,2.75,2.76
137.84,8.95,6.24,8.94,6.24,-6.24,-6.17,-6.61,2.71,2.70,2.70
139.22,8.91,6.26,8.90,6.25,-6.25,-6.21,-6.57,2.66,2.65,2.65
140.61,8.87,6.26,8.87,6.27,-6.27,-6.25,-6.53,2.60,2.60,2.60
142.02,8.83,6.28,8.83,6.28,-6.28,-6.29,-6.49,2.55,2.55,2.55
143.44,8.79,6.28,8.80,6.29,-6.29,-6.32,-6.44,2.50,2.51,2.51
144.87,8.75,6.28,8.77,6.30,-6.30,-6.36,-6.40,2.44,2.46,2.46
146.32,8.73,6.31,8.73,6.31,-6.31,-6.39,-6.35,2.42,2.42,2.41
147.78,8.70,6.32,8.69,6.32,-6.32,-6.43,-6.31,2.38,2.37,2.37
149.26,8.67,6.34,8.65,6.32,-6.32,-6.46,-6.26,2.35,2.33,2.32
150.75,8.64,6.35,8.61,6.33,-6.33,-6.49,-6.22,2.31,2.29,2.28
152.26,8.60,6.35,8.58,6.33,-6.33,-6.53,-6.17,2.27,2.24,2.24
153.78,8.55,6.34,8.54,6.34,-6.34,-6.56,-6.13,2.21,2.20,2.20
155.32,8.51,6.34,8.50,6.35,-6.35,-6.59,-6.09,2.16,2.16,2.16
156.88,8.46,6.34,8.47,6.36,-6.36,-6.62,-6.06,2.10,2.11,2.12
158.44,8.41,6.34,8.43,6.37,-6.37,-6.65,-6.02,2.04,2.07,2.06
160.03,8.37,6.34,8.40,6.38,-6.38,-6.68,-5.99,1.99,2.02,2.03
161.63,8.34,6.35,8.36,6.39,-6.39,-6.71,-5.97,1.95,1.98,1.99
163.24,8.32,6.38,8.33,6.40,-6.40,-6.73,-5.94,1.92,1.93,1.93
164.88,8.30,6.41,8.30,6.41,-6.41,-6.76,-5.92,1.89,1.89,1.89
166.53,8.29,6.45,8.27,6.42,-6.42,-6.78,-5.91,1.87,1.84,1.84
168.19,8.26,6.45,8.23,6.44,-6.44,-6.81,-5.90,1.82,1.79,1.80
169.87,8.22,6.47,8.21,6.46,-6.46,-6.83,-5.89,1.76,1.75,1.74
171.57,8.19,6.49,8.18,6.48,-6.48,-6.85,-5.89,1.71,1.70,1.69
173.29,8.15,6.49,8.15,6.50,-6.50,-6.88,-5.89,1.65,1.65,1.66
175.02,8.12,6.51,8.13,6.52,-6.52,-6.90,-5.89,1.60,1.60,1.60
176.77,8.09,6.53,8.10,6.54,-6.54,-6.91,-5.90,1.55,1.56,1.55
178.54,8.06,6.54,8.07,6.56,-6.56,-6.93,-5.92,1.50,1.51,1.52
180.32,8.05,6.59,8.05,6.58,-6.58,-6.95,-5.94,1.47,1.47,1.45
182.13,8.02,6.59,8.02,6.60,-6.60,-6.96,-5.96,1.42,1.42,1.43
183.95,7.99,6.61,8.00,6.62,-6.62,-6.98,-5.99,1.37,1.37,1.38
185.79,7.97,6.64,7.97,6.64,-6.64,-6.99,-6.02,1.33,1.33,1.33
187.65,7.95,6.66,7.95,6.67,-6.67,-7.00,-6.06,1.28,1.28,1.29
189.52,7.93,6.68,7.93,6.69,-6.69,-7.01,-6.10,1.24,1.24,1.24
191.42,7.91,6.70,7.91,6.71,-6.71,-7.02,-6.15,1.20,1.20,1.21
193.33,7.89,6.72,7.88,6.73,-6.73,-7.03,-6.20,1.16,1.16,1.16
195.27,7.86,6.74,7.86,6.74,-6.74,-7.03,-6.25,1.11,1.12,1.12
197.22,7.84,6.77,7.84,6.76,-6.76,-7.04,-6.30,1.08,1.08,1.07
199.19,7.82,6.78,7.82,6.78,-6.78,-7.04,-6.36,1.04,1.04,1.04
201.18,7.80,6.80,7.79,6.79,-6.79,-7.04,-6.43,1.01,1.01,0.99
203.19,7.77,6.80,7.77,6.80,-6.80,-7.04,-6.49,0.97,0.97,0.96
205.23,7.75,6.80,7.75,6.81,-6.81,-7.04,-6.56,0.94,0.94,0.95
207.28,7.72,6.80,7.72,6.82,-6.82,-7.03,-6.63,0.90,0.91,0.92
209.35,7.70,6.82,7.70,6.82,-6.82,-7.03,-6.70,0.88,0.87,0.87
211.44,7.67,6.82,7.67,6.82,-6.82,-7.02,-6.77,0.84,0.84,0.84
213.56,7.65,6.82,7.64,6.83,-6.83,-7.01,-6.84,0.82,0.82,0.83
215.69,7.62,6.82,7.61,6.83,-6.83,-7.01,-6.91,0.79,0.79,0.79
217.85,7.59,6.82,7.59,6.82,-6.82,-6.99,-6.98,0.77,0.76,0.76
220.03,7.56,6.82,7.56,6.82,-6.82,-6.98,-7.05,0.74,0.74,0.74
222.23,7.53,6.82,7.53,6.81,-6.81,-6.97,-7.11,0.72,0.72,0.71
224.45,7.50,6.80,7.50,6.81,-6.81,-6.95,-7.18,0.69,0.69,0.69
226.70,7.47,6.80,7.47,6.80,-6.80,-6.93,-7.23,0.66,0.67,0.67
228.96,7.44,6.78,7.45,6.80,-6.80,-6.92,-7.29,0.64,0.65,0.65
231.25,7.42,6.78,7.42,6.79,-6.79,-6.89,-7.34,0.63,0.63,0.63
233.57,7.40,6.78,7.39,6.78,-6.78,-6.87,-7.38,0.62,0.62,0.62
235.90,7.37,6.76,7.37,6.77,-6.77,-6.85,-7.42,0.60,0.60,0.60
238.26,7.34,6.76,7.34,6.76,-6.76,-6.83,-7.45,0.58,0.59,0.58
240.64,7.32,6.73,7.32,6.74,-6.74,-6.80,-7.47,0.58,0.58,0.58
243.05,7.30,6.73,7.30,6.73,-6.73,-6.77,-7.48,0.57,0.57,0.57
245.48,7.28,6.72,7.28,6.72,-6.72,-6.74,-7.49,0.56,0.56,0.55
247.93,7.26,6.71,7.26,6.71,-6.71,-6.71,-7.48,0.55,0.55,0.55
250.41,7.24,6.68,7.24,6.70,-6.70,-6.68,-7.47,0.54,0.55,0.55
252.92,7.21,6.66,7.22,6.68,-6.68,-6.65,-7.44,0.53,0.54,0.55
255.45,7.19,6.65,7.20,6.66,-6.66,-6.61,-7.41,0.52,0.54,0.54
258.00,7.17,6.63,7.18,6.65,-6.65,-6.58,-7.37,0.52,0.53,0.53
260.58,7.16,6.62,7.16,6.63,-6.63,-6.54,-7.32,0.53,0.53,0.53
263.19,7.15,6.61,7.13,6.60,-6.60,-6.50,-7.26,0.54,0.53,0.53
265.82,7.12,6.59,7.10,6.58,-6.58,-6.46,-7.19,0.54,0.53,0.53
268.48,7.09,6.56,7.07,6.55,-6.55,-6.42,-7.12,0.54,0.52,0.52
271.16,7.05,6.52,7.03,6.51,-6.51,-6.38,-7.04,0.53,0.52,0.52
273.87,7.01,6.48,6.99,6.47,-6.47,-6.33,-6.95,0.53,0.52,0.52
276.61,6.96,6.43,6.95,6.43,-6.43,-6.29,-6.86,0.53,0.52,0.52
279.38,6.92,6.41,6.91,6.39,-6.39,-6.24,-6.76,0.53,0.52,0.51
282.17,6.86,6.35,6.86,6.34,-6.34,-6.20,-6.66,0.52,0.52,0.51
284.99,6.81,6.29,6.81,6.29,-6.29,-6.15,-6.56,0.52,0.52,0.52
287.84,6.75,6.22,6.75,6.23,-6.23,-6.10,-6.45,0.52,0.52,0.52
290.72,6.69,6.17,6.70,6.18,-6.18,-6.05,-6.34,0.51,0.52,0.52
293.63,6.63,6.10,6.65,6.12,-6.12,-6.00,-6.23,0.51,0.53,0.53
296.57,6.58,6.04,6.60,6.07,-6.07,-5.95,-6.12,0.51,0.53,0.53
299.53,6.53,5.99,6.55,6.01,-6.01,-5.90,-6.01,0.52,0.54,0.54
302.53,6.49,5.93,6.49,5.95,-5.95,-5.85,-5.90,0.54,0.54,0.55
305.55,6.46,5.91,6.45,5.90,-5.90,-5.79,-5.80,0.56,0.55,0.55
308.61,6.41,5.85,6.40,5.84,-5.84,-5.74,-5.69,0.57,0.55,0.55
311.69,6.36,5.79,6.35,5.79,-5.79,-5.69,-5.58,0.57,0.56,0.56
314.81,6.32,5.75,6.31,5.74,-5.74,-5.63,-5.48,0.58,0.57,0.57
317.96,6.27,5.69,6.28,5.70,-5.70,-5.57,-5.38,0.57,0.58,0.57
321.14,6.24,5.65,6.24,5.66,-5.66,-5.52,-5.28,0.58,0.58,0.58
324.35,6.20,5.61,6.21,5.61,-5.61,-5.46,-5.18,0.59,0.59,0.59
327.59,6.16,5.54,6.17,5.57,-5.57,-5.40,-5.09,0.59,0.60,0.61
330.87,6.12,5.51,6.14,5.53,-5.53,-5.35,-5.00,0.59,0.61,0.60
334.18,6.09,5.47,6.11,5.49,-5.49,-5.29,-4.91,0.60,0.61,0.61
337.52,6.07,5.45,6.07,5.45,-5.45,-5.23,-4.83,0.62,0.62,0.62
340.90,6.06,5.42,6.04,5.41,-5.41,-5.17,-4.74,0.65,0.63,0.63
344.30,6.04,5.39,6.02,5.38,-5.38,-5.11,-4.67,0.66,0.64,0.64
347.75,6.01,5.36,5.99,5.34,-5.34,-5.05,-4.59,0.67,0.65,0.64
351.23,5.97,5.32,5.96,5.31,-5.31,-4.99,-4.52,0.66,0.66,0.64
354.74,5.93,5.25,5.93,5.27,-5.27,-4.93,-4.46,0.66,0.66,0.67
358.28,5.89,5.22,5.91,5.24,-5.24,-4.87,-4.39,0.65,0.67,0.67
361.87,5.86,5.18,5.88,5.20,-5.20,-4.81,-4.33,0.66,0.68,0.67
365.49,5.84,5.15,5.85,5.16,-5.16,-4.74,-4.27,0.68,0.69,0.68
369.14,5.81,5.10,5.81,5.12,-5.12,-4.68,-4.22,0.69,0.69,0.70
372.83,5.78,5.07,5.78,5.07,-5.07,-4.62,-4.17,0.70,0.70,0.70
376.56,5.75,5.04,5.74,5.03,-5.03,-4.56,-4.12,0.72,0.71,0.71
380.33,5.72,5.00,5.70,4.98,-4.98,-4.50,-4.08,0.74,0.72,0.71
384.13,5.67,4.93,5.66,4.93,-4.93,-4.43,-4.04,0.74,0.73,0.73
387.97,5.63,4.89,5.62,4.88,-4.88,-4.37,-4.00,0.75,0.74,0.74
391.85,5.58,4.83,5.57,4.82,-4.82,-4.31,-3.96,0.76,0.75,0.75
395.77,5.52,4.76,5.53,4.77,-4.77,-4.25,-3.93,0.75,0.76,0.75
399.73,5.46,4.69,5.48,4.71,-4.71,-4.18,-3.90,0.75,0.77,0.76
403.72,5.42,4.62,5.43,4.65,-4.65,-4.12,-3.87,0.77,0.78,0.79
407.76,5.37,4.58,5.37,4.58,-4.58,-4.06,-3.84,0.78,0.79,0.79
411.84,5.31,4.51,5.32,4.52,-4.52,-4.00,-3.82,0.79,0.80,0.79
415.96,5.26,4.44,5.26,4.45,-4.45,-3.93,-3.79,0.81,0.81,0.81
420.12,5.21,4.39,5.20,4.38,-4.38,-3.87,-3.77,0.82,0.82,0.81
424.32,5.16,4.33,5.14,4.31,-4.31,-3.81,-3.75,0.85,0.83,0.82
428.56,5.09,4.24,5.08,4.24,-4.24,-3.75,-3.73,0.85,0.83,0.85
432.85,5.02,4.16,5.02,4.17,-4.17,-3.68,-3.71,0.85,0.84,0.85
437.18,4.95,4.10,4.95,4.10,-4.10,-3.62,-3.69,0.85,0.85,0.85
441.55,4.88,4.02,4.89,4.02,-4.02,-3.56,-3.67,0.86,0.86,0.85
445.96,4.82,3.95,4.82,3.95,-3.95,-3.50,-3.65,0.87,0.87,0.87
450.42,4.76,3.88,4.75,3.87,-3.87,-3.44,-3.63,0.89,0.88,0.88
454.93,4.68,3.79,4.68,3.79,-3.79,-3.37,-3.61,0.89,0.89,0.88
459.48,4.60,3.70,4.61,3.72,-3.72,-3.31,-3.58,0.88,0.90,0.89
464.07,4.53,3.61,4.54,3.64,-3.64,-3.25,-3.56,0.89,0.91,0.92
468.71,4.47,3.54,4.47,3.56,-3.56,-3.19,-3.53,0.91,0.92,0.92
473.40,4.41,3.48,4.40,3.48,-3.48,-3.13,-3.50,0.93,0.92,0.92
478.13,4.34,3.40,4.34,3.40,-3.40,-3.06,-3.47,0.94,0.93,0.94
482.91,4.27,3.32,4.27,3.32,-3.32,-3.00,-3.44,0.95,0.95,0.95
487.74,4.20,3.24,4.20,3.24,-3.24,-2.94,-3.40,0.96,0.96,0.96
492.62,4.14,3.17,4.13,3.16,-3.16,-2.88,-3.36,0.97,0.97,0.97
497.55,4.07,3.09,4.07,3.09,-3.09,-2.82,-3.32,0.98,0.98,0.97
502.52,4.00,3.01,4.00,3.01,-3.01,-2.76,-3.27,0.99,0.99,0.99
507.55,3.93,2.92,3.93,2.93,-2.93,-2.70,-3.23,1.00,1.00,1.00
512.62,3.86,2.84,3.87,2.85,-2.85,-2.64,-3.17,1.01,1.02,1.02
517.75,3.80,2.76,3.80,2.77,-2.77,-2.58,-3.12,1.03,1.03,1.03
522.93,3.74,2.69,3.73,2.69,-2.69,-2.52,-3.06,1.05,1.04,1.04
