frequency,raw,error,smoothed,error_smoothed,equalization,parametric_eq,fixed_band_eq,equalized_raw,equalized_smoothed,target
20.00,-13.53,-15.83,-13.60,-15.92,15.92,15.92,5.39,2.38,2.31,2.29
20.20,-13.48,-15.81,-13.47,-15.80,15.80,15.88,5.52,2.32,2.34,2.32
20.40,-13.37,-15.73,-13.33,-15.69,15.69,15.82,5.66,2.32,2.36,2.35
20.61,-13.23,-15.60,-13.20,-15.58,15.58,15.76,5.80,2.35,2.38,2.37
20.81,-13.06,-15.47,-13.06,-15.46,15.46,15.69,5.95,2.40,2.40,2.40
21.02,-12.93,-15.37,-12.93,-15.34,15.34,15.61,6.10,2.40,2.41,2.43
21.23,-12.78,-15.23,-12.79,-15.22,15.22,15.52,6.25,2.43,2.43,2.44
21.44,-12.65,-15.11,-12.66,-15.10,15.10,15.43,6.41,2.44,2.44,2.45
21.66,-12.52,-14.98,-12.52,-14.97,14.97,15.32,6.57,2.45,2.45,2.46
21.87,-12.37,-14.84,-12.38,-14.84,14.84,15.22,6.73,2.47,2.46,2.46
22.09,-12.25,-14.73,-12.25,-14.71,14.71,15.10,6.91,2.46,2.47,2.47
22.31,-12.12,-14.60,-12.11,-14.58,14.58,14.98,7.08,2.46,2.47,2.47
22.54,-11.97,-14.44,-11.96,-14.44,14.44,14.86,7.26,2.47,2.48,2.47
22.76,-11.83,-14.31,-11.82,-14.30,14.30,14.73,7.45,2.47,2.47,2.47
22.99,-11.69,-14.16,-11.69,-14.16,14.16,14.60,7.64,2.46,2.47,2.46
23.22,-11.55,-14.01,-11.55,-14.02,14.02,14.47,7.83,2.47,2.47,2.46
23.45,-11.41,-13.88,-11.41,-13.88,13.88,14.33,8.03,2.47,2.47,2.46
23.69,-11.26,-13.72,-11.27,-13.74,13.74,14.19,8.24,2.48,2.47,2.46
23.92,-11.12,-13.59,-11.14,-13.60,13.60,14.05,8.45,2.48,2.46,2.46
24.16,-10.99,-13.46,-11.00,-13.46,13.46,13.91,8.66,2.47,2.46,2.46
24.40,-10.84,-13.31,-10.86,-13.32,13.32,13.77,8.88,2.48,2.46,2.46
24.65,-10.73,-13.18,-10.72,-13.18,13.18,13.62,9.11,2.45,2.46,2.45
24.89,-10.59,-13.05,-10.59,-13.04,13.04,13.48,9.34,2.45,2.46,2.45
25.14,-10.45,-12.91,-10.45,-12.91,12.91,13.33,9.58,2.45,2.45,2.45
25.39,-10.32,-12.78,-10.31,-12.77,12.77,13.19,9.82,2.44,2.45,2.45
25.65,-10.20,-12.65,-10.18,-12.63,12.63,13.04,10.06,2.43,2.45,2.45
25.91,-10.06,-12.50,-10.04,-12.49,12.49,12.90,10.31,2.43,2.45,2.44
26.16,-9.90,-12.35,-9.91,-12.35,12.35,12.76,10.56,2.45,2.45,2.44
26.43,-9.78,-12.22,-9.77,-12.22,12.22,12.61,10.82,2.44,2.44,2.44
26.69,-9.62,-12.07,-9.64,-12.08,12.08,12.47,11.07,2.46,2.44,2.44
26.96,-9.51,-11.95,-9.51,-11.94,11.94,12.33,11.33,2.44,2.44,2.44
27.23,-9.37,-11.80,-9.37,-11.81,11.81,12.19,11.59,2.44,2.43,2.43
27.50,-9.23,-11.66,-9.24,-11.67,11.67,12.05,11.84,2.45,2.43,2.43
27.77,-9.11,-11.54,-9.11,-11.54,11.54,11.91,12.09,2.43,2.43,2.42
28.05,-8.96,-11.39,-8.98,-11.41,11.41,11.77,12.34,2.44,2.42,2.42
28.33,-8.86,-11.28,-8.86,-11.27,11.27,11.64,12.57,2.41,2.42,2.41
28.62,-8.74,-11.15,-8.73,-11.14,11.14,11.50,12.80,2.41,2.42,2.41
28.90,-8.61,-11.03,-8.60,-11.01,11.01,11.37,13.01,2.40,2.41,2.41
29.19,-8.48,-10.89,-8.48,-10.88,10.88,11.24,13.21,2.40,2.41,2.40
29.48,-8.36,-10.77,-8.35,-10.76,10.76,11.11,13.39,2.39,2.40,2.40
29.78,-8.23,-10.62,-8.23,-10.63,10.63,10.98,13.55,2.40,2.40,2.39
30.08,-8.12,-10.51,-8.11,-10.50,10.50,10.85,13.68,2.38,2.39,2.39
30.38,-7.98,-10.36,-7.98,-10.37,10.37,10.73,13.78,2.39,2.39,2.38
30.68,-7.86,-10.25,-7.86,-10.24,10.24,10.60,13.86,2.38,2.38,2.38
30.99,-7.75,-10.12,-7.74,-10.12,10.12,10.48,13.90,2.37,2.37,2.37
31.30,-7.62,-9.98,-7.62,-9.99,9.99,10.36,13.91,2.38,2.37,2.36
31.61,-7.49,-9.86,-7.50,-9.87,9.87,10.24,13.89,2.37,2.36,2.36
31.93,-7.40,-9.75,-7.39,-9.74,9.74,10.12,13.84,2.35,2.36,2.35
32.24,-7.26,-9.61,-7.27,-9.62,9.62,10.00,13.76,2.36,2.35,2.34
32.57,-7.16,-9.50,-7.16,-9.50,9.50,9.89,13.65,2.34,2.34,2.34
32.89,-7.03,-9.37,-7.05,-9.38,9.38,9.77,13.51,2.35,2.33,2.33
33.22,-6.93,-9.26,-6.94,-9.26,9.26,9.66,13.35,2.33,2.33,2.32
33.55,-6.83,-9.16,-6.83,-9.15,9.15,9.55,13.18,2.31,2.32,2.32
33.89,-6.72,-9.04,-6.72,-9.03,9.03,9.44,12.98,2.31,2.31,2.31
34.23,-6.63,-8.93,-6.61,-8.92,8.92,9.33,12.77,2.29,2.30,2.30
34.57,-6.50,-8.80,-6.51,-8.80,8.80,9.22,12.55,2.30,2.29,2.29
34.92,-6.40,-8.68,-6.41,-8.69,8.69,9.12,12.32,2.29,2.28,2.28
35.27,-6.30,-8.57,-6.30,-8.58,8.58,9.01,12.09,2.28,2.28,2.27
35.62,-6.22,-8.48,-6.20,-8.47,8.47,8.91,11.85,2.25,2.27,2.26
35.97,-6.11,-8.37,-6.10,-8.36,8.36,8.81,11.61,2.24,2.26,2.25
36.33,-6.00,-8.25,-6.00,-8.25,8.25,8.71,11.37,2.24,2.25,2.24
36.70,-5.91,-8.14,-5.90,-8.14,8.14,8.61,11.13,2.23,2.24,2.23
37.06,-5.80,-8.03,-5.81,-8.03,8.03,8.51,10.89,2.23,2.22,2.22
37.43,-5.69,-7.91,-5.71,-7.92,7.92,8.42,10.65,2.23,2.21,2.21
37.81,-5.61,-7.82,-5.62,-7.82,7.82,8.32,10.42,2.20,2.20,2.20
38.19,-5.52,-7.71,-5.52,-7.72,7.72,8.23,10.19,2.20,2.19,2.19
38.57,-5.42,-7.61,-5.43,-7.61,7.61,8.13,9.96,2.19,2.18,2.18
38.95,-5.35,-7.53,-5.34,-7.51,7.51,8.04,9.74,2.16,2.17,2.17
39.34,-5.24,-7.40,-5.26,-7.41,7.41,7.95,9.53,2.17,2.16,2.15
39.74,-5.18,-7.33,-5.17,-7.32,7.32,7.86,9.32,2.13,2.15,2.14
40.14,-5.09,-7.22,-5.08,-7.22,7.22,7.78,9.12,2.14,2.14,2.13
40.54,-5.02,-7.14,-5.00,-7.13,7.13,7.69,8.92,2.11,2.13,2.12
40.94,-4.92,-7.04,-4.91,-7.03,7.03,7.60,8.72,2.11,2.12,2.11
41.35,-4.81,-6.92,-4.83,-6.94,6.94,7.52,8.54,2.12,2.11,2.10
41.76,-4.75,-6.85,-4.75,-6.84,6.84,7.44,8.35,2.09,2.09,2.09
42.18,-4.66,-6.75,-4.67,-6.75,6.75,7.35,8.18,2.09,2.08,2.08
42.60,-4.59,-6.67,-4.59,-6.66,6.66,7.27,8.01,2.06,2.07,2.07
43.03,-4.51,-6.58,-4.51,-6.56,6.56,7.19,7.84,2.05,2.05,2.06
43.46,-4.43,-6.48,-4.43,-6.47,6.47,7.11,7.68,2.04,2.04,2.04
43.90,-4.37,-6.39,-4.36,-6.38,6.38,7.04,7.53,2.02,2.02,2.02
44.33,-4.27,-6.28,-4.28,-6.29,6.29,6.96,7.38,2.02,2.01,2.00
44.78,-4.22,-6.21,-4.21,-6.21,6.21,6.88,7.23,1.98,1.99,1.98
45.23,-4.15,-6.11,-4.14,-6.12,6.12,6.81,7.09,1.98,1.98,1.96
45.68,-4.08,-6.03,-4.08,-6.04,6.04,6.73,6.96,1.96,1.96,1.95
46.13,-4.00,-5.94,-4.01,-5.95,5.95,6.66,6.83,1.95,1.94,1.93
46.60,-3.96,-5.88,-3.95,-5.87,5.87,6.59,6.70,1.92,1.92,1.92
47.06,-3.88,-5.79,-3.89,-5.79,5.79,6.52,6.58,1.91,1.90,1.90
47.53,-3.82,-5.71,-3.83,-5.71,5.71,6.45,6.46,1.89,1.88,1.88
48.01,-3.77,-5.65,-3.78,-5.63,5.63,6.38,6.35,1.86,1.86,1.87
48.49,-3.73,-5.58,-3.72,-5.56,5.56,6.31,6.24,1.82,1.83,1.84
48.97,-3.69,-5.51,-3.67,-5.49,5.49,6.24,6.14,1.79,1.81,1.81
49.46,-3.63,-5.42,-3.63,-5.42,5.42,6.18,6.04,1.78,1.79,1.78
49.96,-3.59,-5.35,-3.59,-5.35,5.35,6.11,5.94,1.76,1.77,1.75
50.46,-3.54,-5.27,-3.55,-5.29,5.29,6.05,5.85,1.76,1.74,1.73
50.96,-3.50,-5.22,-3.52,-5.23,5.23,5.98,5.76,1.73,1.72,1.71
51.47,-3.47,-5.16,-3.49,-5.18,5.18,5.92,5.67,1.70,1.69,1.68
51.99,-3.45,-5.12,-3.46,-5.13,5.13,5.86,5.59,1.67,1.67,1.66
52.51,-3.42,-5.06,-3.44,-5.08,5.08,5.80,5.51,1.67,1.64,1.64
53.03,-3.41,-5.04,-3.42,-5.04,5.04,5.74,5.43,1.62,1.62,1.62
53.56,-3.41,-5.01,-3.41,-5.00,5.00,5.68,5.35,1.59,1.59,1.59
54.10,-3.41,-4.99,-3.40,-4.97,4.97,5.62,5.28,1.55,1.57,1.57
54.64,-3.40,-4.95,-3.39,-4.94,4.94,5.56,5.21,1.53,1.55,1.54
55.18,-3.38,-4.91,-3.39,-4.92,4.92,5.50,5.14,1.53,1.52,1.52
55.74,-3.38,-4.88,-3.39,-4.89,4.89,5.45,5.08,1.51,1.50,1.49
56.29,-3.41,-4.89,-3.40,-4.88,4.88,5.39,5.01,1.46,1.48,1.47
56.86,-3.41,-4.87,-3.41,-4.86,4.86,5.33,4.95,1.45,1.46,1.45
57.42,-3.41,-4.84,-3.41,-4.85,4.85,5.28,4.89,1.43,1.43,1.42
58.00,-3.41,-4.82,-3.43,-4.83,4.83,5.23,4.83,1.42,1.41,1.40
58.58,-3.41,-4.80,-3.44,-4.82,4.82,5.17,4.77,1.41,1.38,1.38
59.16,-3.45,-4.82,-3.45,-4.81,4.81,5.12,4.71,1.35,1.36,1.36
59.76,-3.45,-4.80,-3.47,-4.80,4.80,5.07,4.65,1.34,1.33,1.34
60.35,-3.49,-4.81,-3.48,-4.79,4.79,5.02,4.59,1.29,1.30,1.31
60.96,-3.49,-4.78,-3.50,-4.78,4.78,4.97,4.54,1.29,1.28,1.28
61.57,-3.54,-4.79,-3.52,-4.77,4.77,4.92,4.48,1.23,1.25,1.24
62.18,-3.54,-4.76,-3.54,-4.76,4.76,4.87,4.43,1.22,1.22,1.21
62.80,-3.54,-4.73,-3.55,-4.74,4.74,4.82,4.37,1.20,1.19,1.18
63.43,-3.58,-4.74,-3.56,-4.73,4.73,4.78,4.32,1.14,1.16,1.15
64.07,-3.58,-4.71,-3.58,-4.71,4.71,4.73,4.26,1.12,1.13,1.12
64.71,-3.58,-4.69,-3.59,-4.69,4.69,4.68,4.21,1.10,1.10,1.10
65.35,-3.60,-4.68,-3.59,-4.67,4.67,4.64,4.16,1.06,1.07,1.07
66.01,-3.62,-4.67,-3.60,-4.64,4.64,4.59,4.10,1.02,1.04,1.04
66.67,-3.62,-4.64,-3.61,-4.62,4.62,4.55,4.05,1.00,1.01,1.01
67.33,-3.62,-4.61,-3.61,-4.60,4.60,4.50,4.00,0.97,0.98,0.98
68.01,-3.60,-4.56,-3.62,-4.57,4.57,4.46,3.95,0.97,0.95,0.95
68.69,-3.58,-4.51,-3.62,-4.55,4.55,4.42,3.90,0.96,0.92,0.92
69.37,-3.59,-4.49,-3.63,-4.53,4.53,4.38,3.85,0.93,0.89,0.89
70.07,-3.62,-4.49,-3.64,-4.50,4.50,4.34,3.80,0.88,0.86,0.86
70.77,-3.65,-4.49,-3.65,-4.48,4.48,4.29,3.75,0.82,0.83,0.83
71.48,-3.67,-4.48,-3.66,-4.45,4.45,4.25,3.71,0.78,0.80,0.80
72.19,-3.67,-4.44,-3.67,-4.43,4.43,4.21,3.66,0.75,0.76,0.76
72.91,-3.67,-4.41,-3.67,-4.41,4.41,4.18,3.62,0.73,0.73,0.73
73.64,-3.71,-4.41,-3.69,-4.39,4.39,4.14,3.57,0.67,0.70,0.69
74.38,-3.71,-4.38,-3.70,-4.37,4.37,4.10,3.53,0.65,0.67,0.66
75.12,-3.71,-4.34,-3.72,-4.35,4.35,4.06,3.49,0.63,0.63,0.62
75.87,-3.71,-4.31,-3.73,-4.33,4.33,4.03,3.45,0.62,0.60,0.59
76.63,-3.75,-4.32,-3.75,-4.32,4.32,3.99,3.42,0.56,0.56,0.56
77.40,-3.75,-4.29,-3.77,-4.30,4.30,3.95,3.38,0.54,0.53,0.53
78.17,-3.75,-4.25,-3.78,-4.28,4.28,3.92,3.35,0.53,0.50,0.49
78.95,-3.80,-4.27,-3.80,-4.27,4.27,3.88,3.32,0.46,0.46,0.46
79.74,-3.81,-4.25,-3.82,-4.25,4.25,3.85,3.29,0.44,0.43,0.43
80.54,-3.84,-4.24,-3.84,-4.24,4.24,3.81,3.26,0.39,0.40,0.39
81.35,-3.87,-4.24,-3.87,-4.23,4.23,3.78,3.24,0.35,0.36,0.36
82.16,-3.88,-4.21,-3.89,-4.21,4.21,3.75,3.21,0.33,0.33,0.32
82.98,-3.93,-4.23,-3.91,-4.20,4.20,3.72,3.19,0.27,0.29,0.29
83.81,-3.93,-4.19,-3.93,-4.19,4.19,3.68,3.17,0.25,0.26,0.25
84.65,-3.96,-4.18,-3.95,-4.17,4.17,3.65,3.15,0.21,0.22,0.21
85.50,-3.97,-4.16,-3.97,-4.15,4.15,3.62,3.14,0.18,0.18,0.18
86.35,-3.98,-4.13,-3.99,-4.14,4.14,3.59,3.13,0.15,0.14,0.14
87.22,-4.01,-4.12,-4.01,-4.12,4.12,3.56,3.11,0.10,0.10,0.10
88.09,-4.01,-4.08,-4.03,-4.09,4.09,3.53,3.11,0.08,0.06,0.06
88.97,-4.05,-4.08,-4.05,-4.07,4.07,3.50,3.10,0.01,0.02,0.02
89.86,-4.06,-4.05,-4.06,-4.04,4.04,3.47,3.09,-0.02,-0.02,-0.02
90.76,-4.07,-4.01,-4.08,-4.02,4.02,3.45,3.09,-0.06,-0.06,-0.07
91.66,-4.10,-4.00,-4.10,-3.99,3.99,3.42,3.09,-0.11,-0.11,-0.11
92.58,-4.10,-3.95,-4.11,-3.96,3.96,3.39,3.09,-0.14,-0.15,-0.16
93.51,-4.13,-3.94,-4.13,-3.93,3.93,3.36,3.10,-0.20,-0.20,-0.20
94.44,-4.14,-3.91,-4.14,-3.90,3.90,3.34,3.10,-0.24,-0.24,-0.24
95.39,-4.14,-3.86,-4.16,-3.87,3.87,3.31,3.11,-0.28,-0.29,-0.29
96.34,-4.16,-3.83,-4.17,-3.84,3.84,3.28,3.12,-0.33,-0.34,-0.34
97.30,-4.19,-3.81,-4.19,-3.80,3.80,3.26,3.13,-0.39,-0.38,-0.39
98.28,-4.19,-3.76,-4.20,-3.77,3.77,3.23,3.14,-0.43,-0.43,-0.44
99.26,-4.23,-3.76,-4.21,-3.73,3.73,3.21,3.15,-0.50,-0.48,-0.48
100.25,-4.23,-3.71,-4.23,-3.70,3.70,3.18,3.16,-0.53,-0.53,-0.53
101.25,-4.23,-3.66,-4.24,-3.67,3.67,3.16,3.18,-0.57,-0.57,-0.58
102.27,-4.23,-3.61,-4.25,-3.63,3.63,3.13,3.20,-0.60,-0.62,-0.63
103.29,-4.27,-3.60,-4.27,-3.60,3.60,3.11,3.21,-0.67,-0.67,-0.68
104.32,-4.27,-3.56,-4.28,-3.56,3.56,3.09,3.23,-0.71,-0.72,-0.72
105.37,-4.28,-3.52,-4.30,-3.53,3.53,3.07,3.25,-0.76,-0.77,-0.77
106.42,-4.32,-3.51,-4.31,-3.49,3.49,3.04,3.26,-0.83,-0.82,-0.82
107.48,-4.32,-3.46,-4.32,-3.46,3.46,3.02,3.28,-0.87,-0.87,-0.87
108.56,-4.33,-3.42,-4.34,-3.42,3.42,3.00,3.30,-0.92,-0.92,-0.92
109.64,-4.36,-3.40,-4.35,-3.38,3.38,2.98,3.32,-0.98,-0.97,-0.97
110.74,-4.36,-3.35,-4.36,-3.34,3.34,2.96,3.33,-1.02,-1.02,-1.02
111.85,-4.36,-3.30,-4.38,-3.30,3.30,2.94,3.35,-1.06,-1.07,-1.07
112.97,-4.40,-3.28,-4.39,-3.27,3.27,2.91,3.36,-1.14,-1.13,-1.13
114.10,-4.40,-3.23,-4.41,-3.23,3.23,2.89,3.37,-1.18,-1.18,-1.18
115.24,-4.40,-3.17,-4.42,-3.19,3.19,2.87,3.38,-1.22,-1.23,-1.24
116.39,-4.43,-3.15,-4.43,-3.15,3.15,2.85,3.39,-1.29,-1.28,-1.29
117.55,-4.45,-3.11,-4.44,-3.11,3.11,2.84,3.39,-1.35,-1.34,-1.35
118.73,-4.45,-3.06,-4.46,-3.07,3.07,2.82,3.40,-1.39,-1.39,-1.40
119.92,-4.45,-3.01,-4.47,-3.03,3.03,2.80,3.40,-1.43,-1.44,-1.45
121.12,-4.49,-3.00,-4.49,-2.99,2.99,2.78,3.39,-1.50,-1.50,-1.50
122.33,-4.49,-2.95,-4.50,-2.95,2.95,2.76,3.39,-1.54,-1.55,-1.55
123.55,-4.50,-2.91,-4.51,-2.91,2.91,2.74,3.38,-1.59,-1.60,-1.60
124.79,-4.53,-2.89,-4.53,-2.88,2.88,2.72,3.36,-1.66,-1.65,-1.65
126.03,-4.53,-2.84,-4.54,-2.84,2.84,2.71,3.35,-1.69,-1.70,-1.70
127.29,-4.56,-2.82,-4.56,-2.81,2.81,2.69,3.33,-1.76,-1.75,-1.75
128.57,-4.58,-2.78,-4.57,-2.77,2.77,2.67,3.30,-1.81,-1.80,-1.81
129.85,-4.58,-2.73,-4.59,-2.73,2.73,2.65,3.28,-1.85,-1.85,-1.86
131.15,-4.60,-2.70,-4.60,-2.70,2.70,2.64,3.25,-1.91,-1.90,-1.91
132.46,-4.62,-2.67,-4.61,-2.66,2.66,2.62,3.21,-1.96,-1.95,-1.96
133.79,-4.62,-2.63,-4.63,-2.63,2.63,2.61,3.18,-1.99,-2.00,-2.00
135.12,-4.62,-2.58,-4.64,-2.60,2.60,2.59,3.14,-2.03,-2.04,-2.05
136.48,-4.66,-2.58,-4.65,-2.56,2.56,2.57,3.10,-2.10,-2.09,-2.09
137.84,-4.66,-2.53,-4.66,-2.53,2.53,2.56,3.06,-2.14,-2.13,-2.14
139.22,-4.66,-2.48,-4.67,-2.49,2.49,2.54,3.01,-2.17,-2.18,-2.19
140.61,-4.66,-2.44,-4.67,-2.46,2.46,2.53,2.96,-2.21,-2.22,-2.23
142.02,-4.68,-2.43,-4.68,-2.42,2.42,2.51,2.92,-2.26,-2.26,-2.26
143.44,-4.68,-2.39,-4.69,-2.39,2.39,2.50,2.87,-2.30,-2.30,-2.30
144.87,-4.71,-2.38,-4.69,-2.35,2.35,2.48,2.82,-2.36,-2.34,-2.34
146.32,-4.71,-2.34,-4.70,-2.32,2.32,2.47,2.77,-2.39,-2.37,-2.38
147.78,-4.70,-2.30,-4.70,-2.29,2.29,2.45,2.71,-2.42,-2.41,-2.41
149.26,-4.68,-2.24,-4.71,-2.25,2.25,2.44,2.66,-2.43,-2.45,-2.45
150.75,-4.70,-2.22,-4.71,-2.22,2.22,2.42,2.61,-2.48,-2.49,-2.49
152.26,-4.71,-2.19,-4.72,-2.19,2.19,2.41,2.56,-2.53,-2.53,-2.53
153.78,-4.71,-2.15,-4.72,-2.16,2.16,2.40,2.51,-2.56,-2.57,-2.57
155.32,-4.71,-2.11,-4.73,-2.12,2.12,2.38,2.46,-2.59,-2.61,-2.61
156.88,-4.75,-2.11,-4.74,-2.09,2.09,2.37,2.40,-2.66,-2.65,-2.65
158.44,-4.75,-2.07,-4.75,-2.06,2.06,2.36,2.35,-2.69,-2.68,-2.69
160.03,-4.76,-2.04,-4.76,-2.04,2.04,2.34,2.31,-2.73,-2.72,-2.73
161.63,-4.79,-2.03,-4.78,-2.02,2.02,2.33,2.26,-2.78,-2.76,-2.77
163.24,-4.79,-1.99,-4.80,-2.00,2.00,2.32,2.21,-2.80,-2.80,-2.81
164.88,-4.80,-1.97,-4.82,-1.98,1.98,2.30,2.16,-2.82,-2.84,-2.84
166.53,-4.84,-1.97,-4.85,-1.97,1.97,2.29,2.12,-2.87,-2.88,-2.88
168.19,-4.84,-1.93,-4.88,-1.96,1.96,2.28,2.07,-2.88,-2.92,-2.92
169.87,-4.89,-1.94,-4.91,-1.95,1.95,2.27,2.03,-2.94,-2.96,-2.96
171.57,-4.92,-1.93,-4.94,-1.95,1.95,2.26,1.99,-2.98,-2.99,-3.00
173.29,-4.97,-1.95,-4.98,-1.94,1.94,2.24,1.95,-3.03,-3.03,-3.03
175.02,-5.02,-1.96,-5.01,-1.94,1.94,2.23,1.91,-3.08,-3.07,-3.07
176.77,-5.05,-1.95,-5.05,-1.95,1.95,2.22,1.87,-3.11,-3.11,-3.11
178.54,-5.10,-1.96,-5.09,-1.95,1.95,2.21,1.84,-3.16,-3.14,-3.15
180.32,-5.13,-1.95,-5.13,-1.95,1.95,2.20,1.80,-3.18,-3.18,-3.19
182.13,-5.14,-1.93,-5.17,-1.95,1.95,2.18,1.77,-3.19,-3.22,-3.22
183.95,-5.18,-1.93,-5.20,-1.95,1.95,2.17,1.74,-3.24,-3.25,-3.26
185.79,-5.20,-1.92,-5.23,-1.94,1.94,2.16,1.71,-3.27,-3.29,-3.29
187.65,-5.23,-1.91,-5.24,-1.92,1.92,2.15,1.68,-3.32,-3.32,-3.33
189.52,-5.27,-1.92,-5.24,-1.89,1.89,2.14,1.65,-3.39,-3.36,-3.36
191.42,-5.27,-1.89,-5.24,-1.85,1.85,2.13,1.62,-3.43,-3.39,-3.39
193.33,-5.27,-1.86,-5.21,-1.79,1.79,2.12,1.60,-3.48,-3.42,-3.42
195.27,-5.23,-1.79,-5.18,-1.73,1.73,2.10,1.57,-3.50,-3.45,-3.45
197.22,-5.20,-1.73,-5.14,-1.67,1.67,2.09,1.55,-3.54,-3.47,-3.48
199.19,-5.15,-1.65,-5.09,-1.59,1.59,2.08,1.52,-3.56,-3.50,-3.51
201.18,-5.06,-1.54,-5.04,-1.52,1.52,2.07,1.50,-3.55,-3.52,-3.53
203.19,-5.00,-1.46,-4.98,-1.44,1.44,2.06,1.48,-3.56,-3.54,-3.55
205.23,-4.89,-1.33,-4.93,-1.36,1.36,2.05,1.46,-3.53,-3.56,-3.57
207.28,-4.81,-1.24,-4.87,-1.29,1.29,2.04,1.45,-3.52,-3.58,-3.58
209.35,-4.75,-1.16,-4.82,-1.23,1.23,2.03,1.43,-3.53,-3.60,-3.60
211.44,-4.71,-1.10,-4.78,-1.17,1.17,2.02,1.41,-3.54,-3.61,-3.62
213.56,-4.66,-1.04,-4.75,-1.12,1.12,2.01,1.40,-3.54,-3.62,-3.63
215.69,-4.66,-1.04,-4.72,-1.09,1.09,2.00,1.38,-3.58,-3.63,-3.63
217.85,-4.66,-1.03,-4.70,-1.06,1.06,1.98,1.37,-3.60,-3.64,-3.64
220.03,-4.71,-1.07,-4.69,-1.05,1.05,1.97,1.36,-3.67,-3.65,-3.65
222.23,-4.71,-1.06,-4.69,-1.04,1.04,1.96,1.34,-3.67,-3.65,-3.66
224.45,-4.71,-1.06,-4.70,-1.05,1.05,1.95,1.33,-3.67,-3.65,-3.66
226.70,-4.75,-1.10,-4.71,-1.05,1.05,1.94,1.32,-3.70,-3.65,-3.66
228.96,-4.75,-1.10,-4.72,-1.07,1.07,1.93,1.31,-3.69,-3.65,-3.66
231.25,-4.75,-1.11,-4.73,-1.08,1.08,1.92,1.30,-3.67,-3.65,-3.65
233.57,-4.75,-1.11,-4.75,-1.10,1.10,1.91,1.29,-3.66,-3.65,-3.65
235.90,-4.75,-1.11,-4.75,-1.11,1.11,1.90,1.28,-3.64,-3.64,-3.65
238.26,-4.75,-1.12,-4.76,-1.12,1.12,1.89,1.27,-3.63,-3.64,-3.64
240.64,-4.75,-1.13,-4.76,-1.13,1.13,1.88,1.26,-3.62,-3.63,-3.63
243.05,-4.75,-1.14,-4.76,-1.14,1.14,1.87,1.25,-3.61,-3.62,-3.62
245.48,-4.75,-1.15,-4.76,-1.15,1.15,1.86,1.25,-3.60,-3.61,-3.61
247.93,-4.75,-1.16,-4.76,-1.16,1.16,1.85,1.24,-3.59,-3.59,-3.60
250.41,-4.75,-1.17,-4.75,-1.17,1.17,1.84,1.23,-3.58,-3.58,-3.59
252.92,-4.75,-1.19,-4.75,-1.18,1.18,1.83,1.22,-3.57,-3.57,-3.57
255.45,-4.75,-1.21,-4.74,-1.19,1.19,1.82,1.22,-3.56,-3.55,-3.55
258.00,-4.74,-1.21,-4.74,-1.20,1.20,1.81,1.21,-3.54,-3.53,-3.54
260.58,-4.71,-1.20,-4.73,-1.22,1.22,1.80,1.20,-3.50,-3.51,-3.52
263.19,-4.71,-1.22,-4.72,-1.23,1.23,1.79,1.20,-3.49,-3.50,-3.50
265.82,-4.71,-1.24,-4.72,-1.24,1.24,1.77,1.19,-3.48,-3.48,-3.48
268.48,-4.71,-1.26,-4.71,-1.25,1.25,1.76,1.19,-3.46,-3.46,-3.46
271.16,-4.71,-1.28,-4.70,-1.26,1.26,1.75,1.18,-3.45,-3.44,-3.44
273.87,-4.68,-1.27,-4.69,-1.27,1.27,1.74,1.18,-3.41,-3.42,-3.42
276.61,-4.66,-1.27,-4.68,-1.28,1.28,1.73,1.17,-3.38,-3.40,-3.40
279.38,-4.66,-1.29,-4.67,-1.29,1.29,1.72,1.17,-3.37,-3.38,-3.38
282.17,-4.66,-1.31,-4.66,-1.31,1.31,1.71,1.17,-3.36,-3.36,-3.36
284.99,-4.66,-1.33,-4.66,-1.32,1.32,1.70,1.16,-3.35,-3.34,-3.34
287.84,-4.65,-1.34,-4.65,-1.33,1.33,1.69,1.16,-3.33,-3.32,-3.32
290.72,-4.62,-1.33,-4.64,-1.34,1.34,1.68,1.16,-3.28,-3.30,-3.30
293.63,-4.62,-1.35,-4.63,-1.35,1.35,1.67,1.16,-3.27,-3.27,-3.28
296.57,-4.62,-1.37,-4.62,-1.36,1.36,1.66,1.16,-3.26,-3.25,-3.26
299.53,-4.61,-1.38,-4.60,-1.37,1.37,1.65,1.16,-3.24,-3.23,-3.24
302.53,-4.58,-1.37,-4.59,-1.39,1.39,1.64,1.16,-3.20,-3.21,-3.22
305.55,-4.58,-1.40,-4.58,-1.40,1.40,1.63,1.16,-3.19,-3.18,-3.19
308.61,-4.58,-1.42,-4.57,-1.41,1.41,1.61,1.16,-3.17,-3.16,-3.17
311.69,-4.55,-1.42,-4.56,-1.42,1.42,1.60,1.17,-3.13,-3.14,-3.14
314.81,-4.53,-1.43,-4.55,-1.43,1.43,1.59,1.17,-3.10,-3.12,-3.11
317.96,-4.53,-1.45,-4.54,-1.44,1.44,1.58,1.18,-3.09,-3.09,-3.09
321.14,-4.53,-1.47,-4.52,-1.45,1.45,1.57,1.18,-3.08,-3.07,-3.07
324.35,-4.49,-1.45,-4.51,-1.47,1.47,1.56,1.19,-3.03,-3.05,-3.05
327.59,-4.49,-1.47,-4.50,-1.47,1.47,1.55,1.20,-3.02,-3.03,-3.03
330.87,-4.49,-1.49,-4.49,-1.48,1.48,1.54,1.21,-3.01,-3.00,-3.01
334.18,-4.48,-1.50,-4.47,-1.49,1.49,1.53,1.22,-2.99,-2.98,-2.99
337.52,-4.45,-1.49,-4.46,-1.50,1.50,1.52,1.23,-2.96,-2.96,-2.97
340.90,-4.45,-1.51,-4.45,-1.51,1.51,1.50,1.24,-2.95,-2.94,-2.95
344.30,-4.45,-1.53,-4.44,-1.51,1.51,1.49,1.25,-2.94,-2.92,-2.93
347.75,-4.41,-1.51,-4.42,-1.52,1.52,1.48,1.26,-2.90,-2.91,-2.91
351.23,-4.40,-1.52,-4.41,-1.52,1.52,1.47,1.28,-2.88,-2.89,-2.89
354.74,-4.40,-1.54,-4.40,-1.53,1.53,1.46,1.29,-2.87,-2.87,-2.87
358.28,-4.38,-1.53,-4.39,-1.54,1.54,1.45,1.31,-2.85,-2.85,-2.86
361.87,-4.36,-1.53,-4.38,-1.54,1.54,1.44,1.33,-2.82,-2.84,-2.84
365.49,-4.36,-1.55,-4.37,-1.55,1.55,1.43,1.35,-2.82,-2.82,-2.82
369.14,-4.36,-1.56,-4.36,-1.55,1.55,1.42,1.37,-2.81,-2.80,-2.81
372.83,-4.35,-1.57,-4.35,-1.56,1.56,1.41,1.39,-2.80,-2.79,-2.79
376.56,-4.32,-1.55,-4.34,-1.56,1.56,1.40,1.41,-2.76,-2.77,-2.78
380.33,-4.32,-1.57,-4.33,-1.57,1.57,1.39,1.43,-2.76,-2.76,-2.76
384.13,-4.32,-1.58,-4.32,-1.57,1.57,1.38,1.45,-2.75,-2.75,-2.75
387.97,-4.32,-1.59,-4.31,-1.58,1.58,1.37,1.48,-2.75,-2.73,-2.74
391.85,-4.30,-1.58,-4.30,-1.58,1.58,1.36,1.50,-2.73,-2.72,-2.73
395.77,-4.27,-1.57,-4.29,-1.58,1.58,1.35,1.53,-2.70,-2.71,-2.71
399.73,-4.27,-1.58,-4.28,-1.58,1.58,1.34,1.55,-2.70,-2.70,-2.70
403.72,-4.27,-1.59,-4.26,-1.58,1.58,1.33,1.58,-2.70,-2.69,-2.69
407.76,-4.23,-1.56,-4.25,-1.57,1.57,1.32,1.60,-2.66,-2.68,-2.68
411.84,-4.23,-1.57,-4.24,-1.57,1.57,1.31,1.63,-2.66,-2.67,-2.67
415.96,-4.23,-1.58,-4.22,-1.57,1.57,1.31,1.65,-2.67,-2.66,-2.66
420.12,-4.19,-1.55,-4.21,-1.56,1.56,1.30,1.68,-2.63,-2.65,-2.65
424.32,-4.19,-1.56,-4.19,-1.55,1.55,1.29,1.70,-2.64,-2.63,-2.64
428.56,-4.17,-1.55,-4.17,-1.54,1.54,1.29,1.73,-2.63,-2.62,-2.63
432.85,-4.14,-1.53,-4.15,-1.53,1.53,1.29,1.75,-2.61,-2.61,-2.62
437.18,-4.13,-1.53,-4.13,-1.52,1.52,1.28,1.77,-2.61,-2.60,-2.61
441.55,-4.10,-1.52,-4.10,-1.51,1.51,1.28,1.79,-2.59,-2.59,-2.59
445.96,-4.07,-1.50,-4.08,-1.50,1.50,1.28,1.81,-2.57,-2.58,-2.58
450.42,-4.06,-1.50,-4.05,-1.49,1.49,1.29,1.83,-2.58,-2.56,-2.57
454.93,-4.01,-1.47,-4.03,-1.47,1.47,1.29,1.84,-2.54,-2.55,-2.55
