frequency,raw,error,smoothed,error_smoothed,equalization,parametric_eq,fixed_band_eq,equalized_raw,equalized_smoothed,target
20.00,9.69,0.75,9.69,0.75,-0.76,-0.93,-0.54,8.93,8.94,8.94
20.20,9.70,0.77,9.70,0.77,-0.77,-0.93,-0.56,8.93,8.93,8.93
20.40,9.70,0.78,9.70,0.79,-0.79,-0.94,-0.57,8.92,8.92,8.92
20.61,9.71,0.80,9.71,0.81,-0.80,-0.95,-0.59,8.91,8.91,8.91
20.81,9.72,0.83,9.72,0.83,-0.82,-0.95,-0.60,8.90,8.90,8.89
21.02,9.73,0.85,9.73,0.85,-0.84,-0.96,-0.62,8.89,8.89,8.88
21.23,9.74,0.87,9.74,0.87,-0.86,-0.97,-0.63,8.88,8.88,8.87
21.44,9.76,0.88,9.76,0.89,-0.89,-0.98,-0.65,8.87,8.87,8.88
21.66,9.77,0.91,9.77,0.91,-0.91,-0.98,-0.67,8.86,8.86,8.86
21.87,9.79,0.93,9.79,0.94,-0.94,-0.99,-0.69,8.85,8.85,8.86
22.09,9.81,0.97,9.81,0.97,-0.97,-1.00,-0.71,8.84,8.84,8.84
22.31,9.83,1.00,9.83,1.00,-1.00,-1.01,-0.73,8.83,8.83,8.83
22.54,9.86,1.04,9.86,1.04,-1.04,-1.02,-0.75,8.82,8.82,8.82
22.76,9.89,1.07,9.89,1.08,-1.07,-1.03,-0.77,8.82,8.82,8.82
22.99,9.92,1.11,9.92,1.11,-1.11,-1.03,-0.79,8.81,8.81,8.81
23.22,9.95,1.15,9.95,1.14,-1.14,-1.04,-0.81,8.81,8.81,8.80
23.45,9.98,1.17,9.98,1.18,-1.18,-1.05,-0.83,8.81,8.80,8.81
23.69,10.00,1.20,10.01,1.21,-1.20,-1.06,-0.85,8.80,8.80,8.80
23.92,10.03,1.24,10.03,1.23,-1.23,-1.07,-0.87,8.80,8.80,8.79
24.16,10.05,1.25,10.05,1.25,-1.25,-1.08,-0.90,8.80,8.80,8.80
24.40,10.06,1.26,10.06,1.27,-1.26,-1.09,-0.92,8.80,8.80,8.80
24.65,10.07,1.28,10.07,1.28,-1.27,-1.10,-0.95,8.80,8.80,8.79
24.89,10.07,1.28,10.07,1.29,-1.28,-1.11,-0.97,8.79,8.79,8.79
25.14,10.07,1.29,10.07,1.29,-1.28,-1.12,-0.99,8.79,8.79,8.78
25.39,10.06,1.28,10.06,1.28,-1.28,-1.13,-1.02,8.78,8.78,8.78
25.65,10.05,1.27,10.06,1.27,-1.28,-1.14,-1.04,8.77,8.78,8.78
25.91,10.05,1.27,10.05,1.27,-1.28,-1.15,-1.07,8.78,8.77,8.78
26.16,10.05,1.26,10.05,1.27,-1.27,-1.16,-1.09,8.78,8.78,8.79
26.43,10.05,1.27,10.05,1.27,-1.27,-1.17,-1.12,8.78,8.78,8.78
26.69,10.05,1.27,10.05,1.27,-1.27,-1.18,-1.15,8.78,8.78,8.78
26.96,10.05,1.27,10.05,1.27,-1.27,-1.20,-1.17,8.78,8.78,8.78
27.23,10.05,1.27,10.05,1.27,-1.27,-1.21,-1.20,8.78,8.78,8.78
27.50,10.05,1.27,10.05,1.27,-1.27,-1.22,-1.22,8.78,8.78,8.78
27.77,10.05,1.26,10.05,1.27,-1.27,-1.23,-1.25,8.79,8.79,8.79
28.05,10.05,1.27,10.05,1.27,-1.26,-1.24,-1.27,8.79,8.79,8.78
28.33,10.05,1.26,10.05,1.26,-1.26,-1.26,-1.29,8.79,8.79,8.79
28.62,10.05,1.26,10.05,1.26,-1.26,-1.27,-1.32,8.79,8.79,8.79
28.90,10.05,1.25,10.05,1.25,-1.26,-1.28,-1.34,8.79,8.79,8.80
29.19,10.05,1.25,10.05,1.26,-1.26,-1.30,-1.36,8.79,8.79,8.80
29.48,10.05,1.26,10.05,1.26,-1.26,-1.31,-1.38,8.79,8.79,8.79
29.78,10.05,1.26,10.05,1.26,-1.26,-1.32,-1.40,8.79,8.79,8.79
30.08,10.05,1.26,10.05,1.27,-1.27,-1.34,-1.42,8.79,8.79,8.79
30.38,10.05,1.28,10.05,1.27,-1.27,-1.35,-1.44,8.78,8.78,8.77
30.68,10.05,1.28,10.05,1.28,-1.28,-1.37,-1.46,8.77,8.77,8.77
30.99,10.05,1.28,10.05,1.28,-1.28,-1.38,-1.48,8.77,8.77,8.77
31.30,10.05,1.28,10.05,1.29,-1.29,-1.39,-1.49,8.76,8.76,8.77
31.61,10.05,1.29,10.05,1.29,-1.30,-1.41,-1.51,8.75,8.75,8.76
31.93,10.05,1.31,10.05,1.30,-1.30,-1.42,-1.52,8.75,8.75,8.74
32.24,10.05,1.30,10.05,1.31,-1.31,-1.44,-1.54,8.75,8.75,8.75
32.57,10.05,1.32,10.05,1.32,-1.31,-1.46,-1.55,8.74,8.74,8.73
32.89,10.05,1.32,10.05,1.32,-1.31,-1.47,-1.56,8.74,8.73,8.73
33.22,10.04,1.32,10.04,1.32,-1.32,-1.49,-1.57,8.72,8.72,8.72
33.55,10.03,1.31,10.03,1.32,-1.32,-1.50,-1.59,8.71,8.71,8.72
33.89,10.03,1.32,10.03,1.32,-1.33,-1.52,-1.60,8.70,8.70,8.71
34.23,10.03,1.34,10.03,1.34,-1.34,-1.54,-1.61,8.69,8.69,8.69
34.57,10.04,1.35,10.04,1.35,-1.35,-1.56,-1.62,8.69,8.69,8.69
34.92,10.05,1.38,10.05,1.37,-1.37,-1.57,-1.63,8.68,8.68,8.67
35.27,10.07,1.38,10.07,1.39,-1.40,-1.59,-1.64,8.67,8.67,8.69
35.62,10.09,1.43,10.09,1.43,-1.43,-1.61,-1.65,8.66,8.66,8.66
35.97,10.12,1.46,10.12,1.46,-1.47,-1.63,-1.65,8.65,8.65,8.66
36.33,10.15,1.51,10.15,1.51,-1.51,-1.65,-1.66,8.64,8.64,8.64
36.70,10.18,1.56,10.18,1.56,-1.56,-1.67,-1.68,8.62,8.62,8.62
37.06,10.21,1.61,10.21,1.61,-1.61,-1.68,-1.69,8.60,8.60,8.60
37.43,10.24,1.66,10.24,1.66,-1.66,-1.70,-1.70,8.58,8.58,8.58
37.81,10.27,1.70,10.27,1.71,-1.72,-1.72,-1.71,8.56,8.56,8.57
38.19,10.31,1.77,10.31,1.76,-1.77,-1.74,-1.72,8.54,8.54,8.54
38.57,10.34,1.82,10.34,1.82,-1.82,-1.76,-1.74,8.52,8.52,8.52
38.95,10.37,1.86,10.37,1.87,-1.87,-1.79,-1.75,8.50,8.50,8.51
39.34,10.39,1.91,10.39,1.91,-1.91,-1.81,-1.77,8.49,8.49,8.48
39.74,10.40,1.95,10.40,1.95,-1.94,-1.83,-1.78,8.47,8.47,8.45
40.14,10.40,1.97,10.40,1.97,-1.96,-1.85,-1.80,8.45,8.44,8.43
40.54,10.39,1.98,10.39,1.98,-1.97,-1.87,-1.82,8.42,8.42,8.41
40.94,10.36,1.98,10.36,1.98,-1.97,-1.89,-1.84,8.39,8.39,8.38
41.35,10.33,1.96,10.33,1.96,-1.97,-1.92,-1.86,8.36,8.36,8.37
41.76,10.29,1.95,10.29,1.95,-1.96,-1.94,-1.88,8.33,8.34,8.34
42.18,10.26,1.93,10.26,1.94,-1.95,-1.96,-1.91,8.31,8.32,8.33
42.60,10.23,1.93,10.23,1.93,-1.93,-1.99,-1.93,8.30,8.29,8.30
43.03,10.20,1.92,10.20,1.92,-1.92,-2.01,-1.96,8.28,8.27,8.28
43.46,10.16,1.92,10.17,1.92,-1.91,-2.03,-1.99,8.25,8.25,8.24
43.90,10.13,1.91,10.13,1.92,-1.91,-2.06,-2.02,8.22,8.22,8.22
44.33,10.11,1.92,10.11,1.91,-1.91,-2.08,-2.05,8.20,8.20,8.19
44.78,10.08,1.91,10.08,1.91,-1.92,-2.11,-2.08,8.17,8.17,8.17
45.23,10.06,1.91,10.06,1.92,-1.93,-2.13,-2.12,8.13,8.13,8.15
45.68,10.04,1.94,10.04,1.94,-1.94,-2.16,-2.16,8.10,8.10,8.10
46.13,10.03,1.96,10.03,1.96,-1.97,-2.19,-2.19,8.06,8.06,8.07
46.60,10.03,2.00,10.03,2.00,-2.00,-2.21,-2.23,8.03,8.03,8.03
47.06,10.03,2.03,10.03,2.03,-2.04,-2.24,-2.27,7.99,7.99,8.00
47.53,10.03,2.07,10.04,2.08,-2.08,-2.27,-2.31,7.95,7.95,7.96
48.01,10.04,2.13,10.04,2.13,-2.13,-2.29,-2.36,7.92,7.92,7.91
48.49,10.05,2.18,10.05,2.18,-2.17,-2.32,-2.40,7.88,7.87,7.87
48.97,10.05,2.23,10.05,2.23,-2.22,-2.35,-2.45,7.83,7.83,7.82
49.46,10.05,2.26,10.05,2.27,-2.27,-2.38,-2.49,7.79,7.79,7.79
49.96,10.05,2.32,10.05,2.31,-2.31,-2.41,-2.54,7.74,7.74,7.73
50.46,10.05,2.35,10.05,2.35,-2.35,-2.44,-2.59,7.70,7.70,7.70
50.96,10.05,2.39,10.05,2.40,-2.39,-2.47,-2.64,7.66,7.66,7.66
51.47,10.05,2.43,10.05,2.43,-2.43,-2.50,-2.69,7.62,7.62,7.62
51.99,10.05,2.48,10.05,2.47,-2.47,-2.53,-2.74,7.58,7.58,7.57
52.51,10.05,2.51,10.05,2.51,-2.51,-2.56,-2.79,7.54,7.54,7.54
53.03,10.05,2.54,10.05,2.55,-2.55,-2.59,-2.84,7.50,7.50,7.51
53.56,10.05,2.59,10.05,2.59,-2.60,-2.62,-2.90,7.46,7.46,7.46
54.10,10.05,2.64,10.05,2.64,-2.64,-2.65,-2.95,7.41,7.41,7.41
54.64,10.05,2.68,10.05,2.68,-2.68,-2.68,-3.00,7.37,7.37,7.37
55.18,10.05,2.72,10.05,2.72,-2.72,-2.71,-3.05,7.33,7.33,7.33
55.74,10.05,2.77,10.05,2.76,-2.76,-2.75,-3.10,7.29,7.29,7.28
56.29,10.05,2.79,10.05,2.80,-2.80,-2.78,-3.14,7.25,7.25,7.26
56.86,10.05,2.83,10.05,2.84,-2.84,-2.81,-3.19,7.22,7.22,7.22
57.42,10.05,2.88,10.05,2.88,-2.87,-2.85,-3.24,7.18,7.18,7.17
58.00,10.05,2.92,10.05,2.92,-2.91,-2.88,-3.28,7.14,7.14,7.13
58.58,10.05,2.95,10.05,2.95,-2.96,-2.92,-3.32,7.09,7.09,7.10
59.16,10.05,2.98,10.06,2.99,-3.00,-2.95,-3.36,7.05,7.05,7.07
59.76,10.06,3.04,10.06,3.04,-3.06,-2.98,-3.40,7.01,7.01,7.02
60.35,10.07,3.10,10.07,3.10,-3.11,-3.02,-3.43,6.96,6.96,6.97
60.96,10.07,3.16,10.07,3.16,-3.16,-3.06,-3.47,6.91,6.91,6.91
61.57,10.07,3.22,10.07,3.22,-3.21,-3.09,-3.50,6.86,6.86,6.85
62.18,10.06,3.27,10.06,3.27,-3.26,-3.13,-3.52,6.80,6.80,6.79
62.80,10.05,3.32,10.05,3.32,-3.31,-3.16,-3.55,6.74,6.74,6.73
63.43,10.03,3.35,10.03,3.35,-3.35,-3.20,-3.57,6.68,6.68,6.68
64.07,10.01,3.38,10.01,3.38,-3.38,-3.24,-3.59,6.63,6.63,6.63
64.71,9.98,3.40,9.99,3.41,-3.41,-3.27,-3.61,6.57,6.58,6.58
65.35,9.96,3.44,9.96,3.43,-3.43,-3.31,-3.62,6.53,6.53,6.52
66.01,9.93,3.46,9.93,3.45,-3.45,-3.35,-3.64,6.48,6.47,6.47
66.67,9.89,3.46,9.90,3.48,-3.48,-3.39,-3.65,6.42,6.42,6.43
67.33,9.86,3.50,9.86,3.49,-3.50,-3.43,-3.66,6.36,6.36,6.36
68.01,9.83,3.52,9.83,3.52,-3.52,-3.46,-3.66,6.31,6.31,6.31
68.69,9.80,3.54,9.80,3.54,-3.55,-3.50,-3.67,6.26,6.26,6.26
69.37,9.78,3.57,9.78,3.57,-3.57,-3.54,-3.68,6.21,6.20,6.21
70.07,9.75,3.60,9.75,3.61,-3.61,-3.58,-3.68,6.14,6.14,6.15
70.77,9.73,3.65,9.73,3.64,-3.65,-3.62,-3.68,6.08,6.08,6.08
71.48,9.72,3.69,9.72,3.69,-3.70,-3.66,-3.69,6.03,6.02,6.03
72.19,9.70,3.73,9.71,3.74,-3.75,-3.70,-3.69,5.96,5.96,5.97
72.91,9.70,3.80,9.70,3.79,-3.80,-3.74,-3.70,5.90,5.90,5.90
73.64,9.70,3.85,9.70,3.86,-3.85,-3.78,-3.70,5.85,5.85,5.85
74.38,9.71,3.92,9.71,3.92,-3.91,-3.82,-3.71,5.80,5.80,5.79
75.12,9.72,3.98,9.72,3.98,-3.97,-3.86,-3.71,5.75,5.75,5.74
75.87,9.72,4.03,9.72,4.03,-4.03,-3.91,-3.72,5.69,5.69,5.69
76.63,9.72,4.09,9.72,4.09,-4.09,-3.95,-3.73,5.63,5.63,5.63
77.40,9.72,4.13,9.72,4.14,-4.15,-3.99,-3.74,5.57,5.58,5.59
78.17,9.73,4.20,9.73,4.20,-4.20,-4.03,-3.75,5.53,5.53,5.53
78.95,9.74,4.25,9.74,4.25,-4.26,-4.07,-3.77,5.49,5.49,5.49
79.74,9.75,4.31,9.75,4.31,-4.31,-4.11,-3.78,5.45,5.44,5.44
80.54,9.75,4.36,9.75,4.36,-4.35,-4.16,-3.80,5.40,5.39,5.39
81.35,9.74,4.41,9.74,4.40,-4.40,-4.20,-3.83,5.34,5.34,5.33
82.16,9.73,4.43,9.73,4.44,-4.44,-4.24,-3.85,5.29,5.29,5.30
82.98,9.72,4.48,9.72,4.48,-4.48,-4.28,-3.88,5.24,5.24,5.24
83.81,9.70,4.51,9.70,4.51,-4.51,-4.33,-3.91,5.19,5.19,5.19
84.65,9.67,4.54,9.67,4.54,-4.54,-4.37,-3.94,5.13,5.13,5.13
85.50,9.64,4.57,9.64,4.57,-4.56,-4.41,-3.98,5.08,5.08,5.07
86.35,9.61,4.59,9.61,4.59,-4.59,-4.45,-4.01,5.02,5.02,5.02
87.22,9.58,4.61,9.58,4.62,-4.62,-4.50,-4.06,4.96,4.96,4.97
88.09,9.55,4.64,9.55,4.64,-4.64,-4.54,-4.10,4.91,4.91,4.91
88.97,9.52,4.67,9.52,4.67,-4.67,-4.58,-4.15,4.85,4.85,4.85
89.86,9.49,4.69,9.49,4.70,-4.70,-4.63,-4.20,4.79,4.79,4.80
90.76,9.47,4.73,9.47,4.74,-4.74,-4.67,-4.26,4.73,4.73,4.74
91.66,9.45,4.78,9.45,4.78,-4.77,-4.71,-4.31,4.68,4.68,4.67
92.58,9.44,4.82,9.44,4.82,-4.81,-4.75,-4.37,4.63,4.62,4.62
93.51,9.42,4.85,9.42,4.86,-4.86,-4.80,-4.44,4.57,4.56,4.57
94.44,9.40,4.89,9.40,4.90,-4.90,-4.84,-4.50,4.50,4.50,4.51
95.39,9.38,4.94,9.38,4.94,-4.95,-4.88,-4.57,4.44,4.43,4.44
96.34,9.36,4.99,9.36,4.99,-4.99,-4.93,-4.64,4.37,4.37,4.37
97.30,9.34,5.03,9.35,5.04,-5.03,-4.97,-4.72,4.31,4.31,4.31
98.28,9.33,5.09,9.32,5.08,-5.07,-5.01,-4.80,4.26,4.25,4.24
99.26,9.30,5.12,9.30,5.12,-5.11,-5.05,-4.87,4.19,4.19,4.18
100.25,9.27,5.15,9.28,5.15,-5.15,-5.09,-4.96,4.12,4.12,4.12
101.25,9.25,5.18,9.25,5.18,-5.19,-5.14,-5.04,4.06,4.06,4.07
102.27,9.22,5.21,9.22,5.21,-5.22,-5.18,-5.12,4.00,4.01,4.01
103.29,9.20,5.25,9.20,5.25,-5.25,-5.22,-5.21,3.96,3.95,3.95
104.32,9.17,5.27,9.17,5.27,-5.27,-5.26,-5.29,3.90,3.90,3.90
105.37,9.14,5.30,9.14,5.30,-5.29,-5.30,-5.38,3.85,3.85,3.84
106.42,9.11,5.32,9.11,5.32,-5.32,-5.34,-5.47,3.79,3.79,3.79
107.48,9.07,5.34,9.07,5.34,-5.34,-5.38,-5.55,3.73,3.73,3.73
108.56,9.04,5.36,9.04,5.36,-5.36,-5.42,-5.64,3.68,3.67,3.68
109.64,9.00,5.38,9.00,5.39,-5.39,-5.46,-5.72,3.61,3.61,3.62
110.74,8.97,5.41,8.97,5.41,-5.42,-5.50,-5.80,3.55,3.56,3.56
111.85,8.95,5.45,8.95,5.44,-5.45,-5.54,-5.88,3.50,3.50,3.50
112.97,8.92,5.47,8.92,5.48,-5.48,-5.58,-5.96,3.44,3.44,3.45
114.10,8.90,5.51,8.90,5.52,-5.52,-5.62,-6.03,3.39,3.38,3.39
115.24,8.87,5.56,8.87,5.55,-5.55,-5.66,-6.10,3.32,3.32,3.31
116.39,8.84,5.59,8.85,5.60,-5.59,-5.70,-6.17,3.25,3.26,3.25
117.55,8.82,5.63,8.82,5.63,-5.63,-5.73,-6.22,3.20,3.19,3.19
118.73,8.80,5.67,8.80,5.66,-5.66,-5.77,-6.28,3.14,3.14,3.13
119.92,8.78,5.69,8.78,5.70,-5.70,-5.81,-6.33,3.08,3.08,3.09
121.12,8.77,5.73,8.77,5.73,-5.74,-5.84,-6.37,3.03,3.03,3.04
122.33,8.75,5.77,8.75,5.77,-5.77,-5.88,-6.40,2.98,2.98,2.98
123.55,8.74,5.81,8.74,5.81,-5.81,-5.91,-6.43,2.93,2.93,2.93
124.79,8.72,5.84,8.72,5.85,-5.85,-5.94,-6.45,2.87,2.88,2.88
126.03,8.71,5.89,8.71,5.89,-5.89,-5.98,-6.46,2.83,2.82,2.82
127.29,8.69,5.92,8.69,5.93,-5.92,-6.01,-6.47,2.77,2.77,2.77
128.57,8.67,5.97,8.67,5.96,-5.96,-6.04,-6.47,2.71,2.71,2.70
129.85,8.64,5.99,8.64,5.99,-5.99,-6.07,-6.46,2.65,2.65,2.65
131.15,8.61,6.02,8.61,6.02,-6.02,-6.10,-6.45,2.59,2.59,2.59
132.46,8.58,6.04,8.58,6.05,-6.05,-6.13,-6.43,2.53,2.53,2.54
133.79,8.56,6.08,8.56,6.08,-6.08,-6.16,-6.40,2.48,2.48,2.48
135.12,8.54,6.11,8.54,6.11,-6.11,-6.18,-6.37,2.43,2.43,2.43
136.48,8.52,6.14,8.52,6.14,-6.13,-6.21,-6.34,2.39,2.38,2.38
137.84,8.49,6.16,8.49,6.16,-6.16,-6.24,-6.29,2.33,2.34,2.33
139.22,8.46,6.19,8.46,6.19,-6.18,-6.26,-6.25,2.28,2.28,2.27
140.61,8.43,6.20,8.43,6.20,-6.20,-6.28,-6.21,2.23,2.22,2.23
142.02,8.39,6.22,8.39,6.22,-6.23,-6.31,-6.16,2.17,2.17,2.17
143.44,8.36,6.23,8.37,6.23,-6.25,-6.33,-6.11,2.11,2.12,2.13
144.87,8.34,6.25,8.34,6.26,-6.27,-6.35,-6.06,2.07,2.07,2.09
146.32,8.33,6.29,8.33,6.29,-6.29,-6.37,-6.01,2.04,2.04,2.04
147.78,8.31,6.31,8.31,6.32,-6.31,-6.39,-5.96,2.01,2.01,2.00
149.26,8.29,6.34,8.29,6.34,-6.32,-6.40,-5.90,1.97,1.97,1.95
150.75,8.26,6.35,8.25,6.34,-6.34,-6.42,-5.85,1.92,1.92,1.91
152.26,8.21,6.34,8.22,6.35,-6.35,-6.43,-5.81,1.86,1.87,1.87
153.78,8.17,6.34,8.18,6.35,-6.35,-6.45,-5.76,1.82,1.82,1.83
155.32,8.14,6.35,8.14,6.35,-6.36,-6.46,-5.71,1.79,1.78,1.79
156.88,8.10,6.36,8.10,6.36,-6.35,-6.47,-5.67,1.75,1.74,1.74
158.44,8.05,6.36,8.05,6.36,-6.35,-6.48,-5.63,1.70,1.70,1.69
160.03,8.00,6.35,8.00,6.35,-6.35,-6.49,-5.59,1.65,1.65,1.65
161.63,7.95,6.34,7.95,6.34,-6.35,-6.50,-5.56,1.60,1.60,1.61
163.24,7.90,6.34,7.90,6.34,-6.35,-6.50,-5.53,1.55,1.55,1.56
164.88,7.85,6.34,7.86,6.34,-6.35,-6.51,-5.50,1.50,1.51,1.51
166.53,7.81,6.35,7.81,6.35,-6.35,-6.51,-5.48,1.46,1.46,1.46
168.19,7.77,6.34,7.77,6.35,-6.34,-6.51,-5.46,1.43,1.43,1.43
169.87,7.72,6.35,7.72,6.35,-6.34,-6.51,-5.44,1.38,1.38,1.37
171.57,7.67,6.35,7.67,6.34,-6.33,-6.51,-5.43,1.34,1.34,1.32
173.29,7.61,6.33,7.61,6.34,-6.33,-6.51,-5.42,1.28,1.28,1.28
175.02,7.55,6.32,7.55,6.32,-6.33,-6.50,-5.42,1.22,1.22,1.23
176.77,7.49,6.31,7.49,6.31,-6.32,-6.50,-5.42,1.17,1.17,1.18
178.54,7.44,6.30,7.44,6.31,-6.32,-6.49,-5.42,1.12,1.12,1.14
180.32,7.40,6.32,7.40,6.31,-6.32,-6.48,-5.43,1.08,1.08,1.08
182.13,7.37,6.32,7.37,6.32,-6.32,-6.47,-5.45,1.05,1.05,1.05
183.95,7.33,6.33,7.33,6.33,-6.32,-6.46,-5.46,1.01,1.01,1.00
185.79,7.29,6.34,7.29,6.33,-6.32,-6.45,-5.48,0.97,0.96,0.95
187.65,7.24,6.33,7.24,6.33,-6.33,-6.44,-5.51,0.91,0.91,0.91
189.52,7.19,6.32,7.20,6.33,-6.33,-6.42,-5.54,0.86,0.86,0.87
191.42,7.15,6.32,7.15,6.32,-6.34,-6.41,-5.57,0.81,0.82,0.83
193.33,7.12,6.33,7.12,6.33,-6.34,-6.39,-5.61,0.78,0.78,0.79
195.27,7.08,6.34,7.08,6.34,-6.34,-6.37,-5.64,0.74,0.75,0.74
197.22,7.04,6.35,7.04,6.35,-6.33,-6.35,-5.69,0.71,0.71,0.69
199.19,7.00,6.34,7.00,6.34,-6.33,-6.33,-5.73,0.67,0.67,0.66
201.18,6.95,6.33,6.95,6.33,-6.33,-6.31,-5.78,0.62,0.63,0.62
203.19,6.91,6.32,6.91,6.32,-6.32,-6.28,-5.83,0.59,0.59,0.59
205.23,6.87,6.30,6.87,6.31,-6.32,-6.26,-5.88,0.56,0.56,0.57
207.28,6.83,6.29,6.84,6.30,-6.30,-6.23,-5.93,0.53,0.53,0.54
209.35,6.80,6.30,6.80,6.29,-6.29,-6.21,-5.99,0.51,0.51,0.50
211.44,6.76,6.29,6.76,6.28,-6.28,-6.18,-6.04,0.49,0.48,0.47
213.56,6.71,6.26,6.71,6.27,-6.26,-6.15,-6.10,0.45,0.45,0.45
215.69,6.66,6.24,6.66,6.25,-6.25,-6.12,-6.15,0.41,0.41,0.42
217.85,6.62,6.23,6.62,6.23,-6.24,-6.09,-6.20,0.38,0.38,0.39
220.03,6.57,6.21,6.58,6.21,-6.22,-6.05,-6.26,0.35,0.35,0.36
222.23,6.53,6.20,6.54,6.20,-6.20,-6.02,-6.31,0.33,0.34,0.33
224.45,6.51,6.19,6.50,6.19,-6.18,-5.98,-6.35,0.33,0.32,0.32
226.70,6.46,6.17,6.46,6.17,-6.15,-5.95,-6.40,0.31,0.31,0.29
228.96,6.41,6.13,6.41,6.14,-6.13,-5.91,-6.44,0.28,0.28,0.28
231.25,6.36,6.10,6.36,6.10,-6.10,-5.87,-6.47,0.26,0.26,0.26
233.57,6.30,6.06,6.30,6.06,-6.07,-5.84,-6.50,0.23,0.23,0.24
235.90,6.25,6.02,6.25,6.03,-6.04,-5.80,-6.52,0.22,0.22,0.23
238.26,6.20,6.00,6.20,5.99,-6.00,-5.76,-6.54,0.20,0.21,0.20
240.64,6.16,5.95,6.16,5.96,-5.96,-5.71,-6.55,0.20,0.20,0.21
243.05,6.12,5.93,6.12,5.93,-5.92,-5.67,-6.56,0.20,0.20,0.19
245.48,6.07,5.89,6.07,5.88,-5.88,-5.63,-6.55,0.19,0.19,0.18
247.93,6.01,5.84,6.01,5.84,-5.83,-5.59,-6.54,0.18,0.18,0.17
250.41,5.95,5.77,5.96,5.78,-5.79,-5.54,-6.51,0.16,0.17,0.18
252.92,5.90,5.73,5.90,5.74,-5.74,-5.50,-6.49,0.16,0.16,0.17
255.45,5.86,5.70,5.86,5.69,-5.70,-5.45,-6.45,0.16,0.16,0.16
258.00,5.81,5.65,5.81,5.65,-5.65,-5.41,-6.40,0.16,0.16,0.16
260.58,5.76,5.60,5.76,5.60,-5.60,-5.36,-6.35,0.16,0.16,0.16
263.19,5.71,5.55,5.71,5.55,-5.55,-5.31,-6.29,0.16,0.16,0.16
265.82,5.66,5.51,5.66,5.51,-5.50,-5.26,-6.22,0.16,0.16,0.15
268.48,5.60,5.45,5.61,5.45,-5.45,-5.22,-6.14,0.15,0.15,0.15
271.16,5.55,5.40,5.55,5.40,-5.40,-5.17,-6.06,0.15,0.15,0.15
273.87,5.49,5.34,5.49,5.34,-5.35,-5.12,-5.97,0.14,0.14,0.15
276.61,5.43,5.28,5.44,5.29,-5.29,-5.07,-5.88,0.14,0.14,0.15
279.38,5.38,5.25,5.38,5.24,-5.24,-5.02,-5.78,0.14,0.14,0.13
282.17,5.32,5.19,5.32,5.18,-5.18,-4.97,-5.68,0.14,0.14,0.13
284.99,5.26,5.12,5.26,5.12,-5.12,-4.92,-5.58,0.14,0.14,0.14
287.84,5.19,5.04,5.20,5.05,-5.06,-4.87,-5.47,0.13,0.14,0.15
290.72,5.13,4.99,5.14,4.99,-4.99,-4.81,-5.37,0.14,0.14,0.14
293.63,5.08,4.93,5.08,4.93,-4.93,-4.76,-5.26,0.15,0.15,0.15
296.57,5.02,4.86,5.02,4.86,-4.86,-4.71,-5.15,0.16,0.16,0.16
299.53,4.96,4.80,4.96,4.79,-4.79,-4.66,-5.04,0.17,0.17,0.16
302.53,4.89,4.71,4.89,4.72,-4.72,-4.61,-4.92,0.17,0.17,0.18
305.55,4.82,4.65,4.83,4.65,-4.65,-4.55,-4.81,0.17,0.17,0.17
308.61,4.76,4.58,4.76,4.58,-4.58,-4.50,-4.70,0.18,0.18,0.18
311.69,4.70,4.51,4.70,4.52,-4.51,-4.45,-4.59,0.19,0.19,0.19
314.81,4.64,4.45,4.64,4.44,-4.44,-4.39,-4.49,0.20,0.20,0.19
317.96,4.57,4.37,4.57,4.37,-4.37,-4.34,-4.38,0.20,0.20,0.20
321.14,4.50,4.29,4.50,4.29,-4.30,-4.29,-4.28,0.21,0.21,0.21
324.35,4.43,4.22,4.44,4.22,-4.22,-4.23,-4.17,0.21,0.21,0.21
327.59,4.37,4.13,4.37,4.14,-4.14,-4.18,-4.07,0.23,0.23,0.24
330.87,4.31,4.08,4.31,4.07,-4.07,-4.12,-3.97,0.24,0.24,0.23
334.18,4.24,4.00,4.24,4.00,-3.99,-4.07,-3.88,0.25,0.24,0.24
337.52,4.16,3.92,4.16,3.92,-3.92,-4.01,-3.78,0.24,0.24,0.24
340.90,4.08,3.82,4.09,3.83,-3.84,-3.96,-3.69,0.24,0.25,0.26
344.30,4.03,3.76,4.03,3.77,-3.77,-3.91,-3.60,0.26,0.26,0.27
347.75,3.97,3.70,3.97,3.70,-3.70,-3.85,-3.52,0.28,0.27,0.27
351.23,3.91,3.64,3.91,3.63,-3.62,-3.80,-3.43,0.29,0.29,0.27
354.74,3.84,3.54,3.84,3.56,-3.55,-3.74,-3.35,0.29,0.29,0.30
358.28,3.77,3.48,3.78,3.48,-3.48,-3.69,-3.27,0.29,0.30,0.29
361.87,3.71,3.41,3.71,3.41,-3.41,-3.63,-3.20,0.30,0.30,0.30
365.49,3.65,3.34,3.65,3.34,-3.34,-3.58,-3.12,0.31,0.31,0.31
369.14,3.59,3.26,3.59,3.27,-3.28,-3.52,-3.05,0.31,0.32,0.33
372.83,3.54,3.21,3.54,3.21,-3.21,-3.47,-2.98,0.33,0.32,0.33
376.56,3.48,3.15,3.49,3.15,-3.15,-3.41,-2.92,0.33,0.33,0.33
380.33,3.44,3.10,3.44,3.10,-3.10,-3.36,-2.85,0.35,0.35,0.34
384.13,3.40,3.04,3.40,3.04,-3.04,-3.31,-2.79,0.36,0.36,0.36
387.97,3.35,2.99,3.35,2.99,-2.98,-3.25,-2.73,0.37,0.37,0.36
391.85,3.30,2.93,3.30,2.93,-2.93,-3.20,-2.67,0.37,0.38,0.37
395.77,3.26,2.88,3.26,2.88,-2.88,-3.14,-2.62,0.39,0.38,0.38
399.73,3.21,2.82,3.22,2.82,-2.82,-3.09,-2.56,0.39,0.39,0.39
403.72,3.18,2.76,3.18,2.77,-2.77,-3.03,-2.51,0.41,0.40,0.42
407.76,3.14,2.73,3.14,2.72,-2.73,-2.98,-2.46,0.41,0.41,0.41
411.84,3.10,2.68,3.10,2.68,-2.69,-2.92,-2.41,0.41,0.42,0.42
415.96,3.07,2.63,3.07,2.64,-2.65,-2.87,-2.37,0.42,0.43,0.44
420.12,3.05,2.61,3.05,2.61,-2.61,-2.81,-2.32,0.44,0.44,0.44
424.32,3.03,2.58,3.03,2.58,-2.57,-2.76,-2.28,0.46,0.46,0.45
428.56,3.01,2.54,3.01,2.54,-2.53,-2.70,-2.24,0.48,0.47,0.47
432.85,2.98,2.50,2.98,2.51,-2.50,-2.65,-2.19,0.48,0.48,0.48
437.18,2.94,2.47,2.94,2.46,-2.46,-2.59,-2.15,0.48,0.48,0.47
441.55,2.90,2.42,2.90,2.42,-2.43,-2.54,-2.11,0.48,0.48,0.48
445.96,2.86,2.37,2.87,2.38,-2.39,-2.48,-2.07,0.47,0.48,0.49
450.42,2.84,2.34,2.84,2.34,-2.35,-2.43,-2.03,0.49,0.49,0.50
454.93,2.82,2.31,2.82,2.31,-2.31,-2.37,-2.00,0.51,0.51,0.51
459.48,2.79,2.27,2.80,2.27,-2.27,-2.32,-1.96,0.52,0.53,0.52
464.07,2.77,2.23,2.77,2.23,-2.23,-2.26,-1.92,0.54,0.54,0.54
468.71,2.73,2.18,2.73,2.19,-2.18,-2.21,-1.88,0.55,0.55,0.55
473.40,2.69,2.14,2.69,2.14,-2.14,-2.15,-1.85,0.55,0.55,0.55
478.13,2.65,2.09,2.65,2.09,-2.09,-2.10,-1.81,0.56,0.56,0.56
482.91,2.61,2.04,2.61,2.04,-2.04,-2.04,-1.77,0.57,0.57,0.57
487.74,2.57,1.99,2.57,1.99,-1.98,-1.98,-1.73,0.59,0.59,0.58
492.62,2.52,1.93,2.52,1.93,-1.93,-1.93,-1.69,0.59,0.59,0.59
497.55,2.47,1.87,2.47,1.87,-1.87,-1.87,-1.66,0.60,0.60,0.60
502.52,2.41,1.80,2.42,1.81,-1.81,-1.81,-1.62,0.60,0.61,0.61
507.55,2.37,1.74,2.37,1.75,-1.75,-1.76,-1.58,0.62,0.62,0.63
512.62,2.33,1.69,2.33,1.69,-1.69,-1.70,-1.54,0.64,0.64,0.64
517.75,2.29,1.63,2.29,1.63,-1.63,-1.64,-1.50,0.66,0.66,0.66
522.93,2.24,1.57,2.24,1.57,-1.57,-1.58,-1.45,0.68,0.68,0.67
528.16,2.19,1.51,2.19,1.51,-1.50,-1.52,-1.41,0.69,0.69,0.68
