frequency,raw,error,smoothed,error_smoothed,equalization,parametric_eq,fixed_band_eq,equalized_raw,equalized_smoothed,target
20.00,3.27,-1.78,3.27,-1.78,1.78,1.65,0.93,5.05,5.05,5.05
20.20,3.26,-1.78,3.25,-1.79,1.78,1.67,0.96,5.04,5.04,5.04
20.40,3.25,-1.78,3.24,-1.79,1.79,1.68,0.99,5.03,5.03,5.03
20.61,3.23,-1.79,3.23,-1.79,1.79,1.70,1.02,5.01,5.02,5.02
20.81,3.22,-1.78,3.22,-1.79,1.79,1.72,1.05,5.00,5.00,5.00
21.02,3.21,-1.78,3.20,-1.79,1.79,1.73,1.08,4.99,4.99,4.99
21.23,3.20,-1.78,3.20,-1.79,1.79,1.75,1.11,4.99,4.99,4.98
21.44,3.19,-1.80,3.19,-1.80,1.79,1.77,1.15,4.98,4.98,4.99
21.66,3.18,-1.79,3.18,-1.80,1.80,1.78,1.18,4.97,4.97,4.97
21.87,3.17,-1.80,3.16,-1.80,1.80,1.80,1.22,4.96,4.96,4.97
22.09,3.16,-1.79,3.15,-1.80,1.80,1.81,1.25,4.96,4.95,4.95
22.31,3.14,-1.80,3.14,-1.80,1.80,1.83,1.29,4.94,4.94,4.94
22.54,3.13,-1.80,3.13,-1.81,1.81,1.84,1.33,4.93,4.93,4.93
22.76,3.12,-1.81,3.11,-1.81,1.81,1.86,1.37,4.93,4.92,4.93
22.99,3.11,-1.81,3.11,-1.81,1.81,1.87,1.41,4.92,4.92,4.92
23.22,3.10,-1.81,3.10,-1.82,1.82,1.89,1.45,4.92,4.92,4.91
23.45,3.09,-1.83,3.08,-1.83,1.83,1.90,1.49,4.92,4.91,4.92
23.69,3.08,-1.83,3.07,-1.84,1.84,1.91,1.54,4.91,4.91,4.91
23.92,3.06,-1.84,3.06,-1.85,1.85,1.93,1.58,4.90,4.91,4.90
24.16,3.05,-1.86,3.05,-1.86,1.86,1.94,1.63,4.90,4.90,4.91
24.40,3.04,-1.87,3.03,-1.87,1.87,1.95,1.67,4.91,4.90,4.91
24.65,3.02,-1.88,3.02,-1.89,1.88,1.97,1.72,4.90,4.90,4.90
24.89,3.01,-1.89,3.00,-1.89,1.89,1.98,1.76,4.90,4.90,4.90
25.14,2.99,-1.90,2.99,-1.90,1.91,1.99,1.81,4.89,4.90,4.89
25.39,2.98,-1.91,2.98,-1.91,1.92,2.00,1.86,4.89,4.89,4.89
25.65,2.97,-1.92,2.96,-1.93,1.93,2.02,1.91,4.89,4.89,4.89
25.91,2.95,-1.94,2.95,-1.94,1.94,2.03,1.95,4.89,4.89,4.89
26.16,2.94,-1.96,2.94,-1.96,1.95,2.04,2.00,4.89,4.89,4.90
26.43,2.93,-1.96,2.92,-1.97,1.96,2.05,2.05,4.89,4.89,4.89
26.69,2.92,-1.97,2.92,-1.97,1.98,2.06,2.09,4.89,4.89,4.89
26.96,2.91,-1.98,2.91,-1.98,1.99,2.07,2.14,4.89,4.89,4.89
27.23,2.90,-1.99,2.89,-2.00,2.00,2.08,2.18,4.90,4.89,4.89
27.50,2.88,-2.01,2.88,-2.01,2.01,2.09,2.22,4.89,4.89,4.89
27.77,2.87,-2.03,2.87,-2.03,2.03,2.10,2.26,4.89,4.89,4.90
28.05,2.86,-2.03,2.85,-2.04,2.05,2.11,2.30,4.90,4.90,4.89
28.33,2.84,-2.06,2.84,-2.06,2.06,2.11,2.34,4.90,4.90,4.90
28.62,2.83,-2.07,2.82,-2.08,2.08,2.12,2.37,4.90,4.90,4.90
28.90,2.81,-2.10,2.81,-2.10,2.09,2.13,2.41,4.90,4.90,4.91
29.19,2.80,-2.11,2.80,-2.11,2.11,2.14,2.43,4.90,4.90,4.91
29.48,2.79,-2.11,2.78,-2.12,2.12,2.14,2.46,4.91,4.90,4.90
29.78,2.77,-2.13,2.77,-2.13,2.13,2.15,2.48,4.90,4.90,4.90
30.08,2.76,-2.14,2.75,-2.14,2.14,2.15,2.50,4.90,4.89,4.90
30.38,2.74,-2.14,2.74,-2.15,2.15,2.16,2.52,4.88,4.89,4.88
30.68,2.73,-2.15,2.73,-2.16,2.16,2.16,2.53,4.88,4.88,4.88
30.99,2.72,-2.16,2.72,-2.16,2.16,2.16,2.54,4.88,4.88,4.88
31.30,2.71,-2.17,2.71,-2.17,2.17,2.17,2.54,4.87,4.87,4.88
31.61,2.70,-2.17,2.69,-2.18,2.18,2.17,2.54,4.87,4.87,4.87
31.93,2.68,-2.17,2.68,-2.18,2.18,2.17,2.54,4.86,4.86,4.85
32.24,2.67,-2.19,2.66,-2.19,2.19,2.17,2.53,4.86,4.85,4.86
32.57,2.65,-2.19,2.65,-2.20,2.20,2.17,2.52,4.84,4.85,4.84
32.89,2.64,-2.20,2.63,-2.21,2.21,2.17,2.51,4.84,4.84,4.84
33.22,2.62,-2.21,2.62,-2.22,2.22,2.17,2.49,4.83,4.83,4.83
33.55,2.60,-2.23,2.60,-2.23,2.23,2.17,2.47,4.82,4.82,4.83
33.89,2.59,-2.23,2.58,-2.24,2.24,2.17,2.45,4.82,4.82,4.82
34.23,2.57,-2.23,2.56,-2.24,2.25,2.17,2.42,4.81,4.81,4.80
34.57,2.55,-2.25,2.55,-2.25,2.25,2.17,2.39,4.80,4.80,4.80
34.92,2.53,-2.25,2.53,-2.26,2.26,2.16,2.36,4.79,4.79,4.78
35.27,2.52,-2.28,2.51,-2.27,2.26,2.16,2.32,4.78,4.78,4.80
35.62,2.51,-2.26,2.50,-2.27,2.27,2.15,2.29,4.77,4.77,4.77
35.97,2.50,-2.27,2.50,-2.27,2.27,2.15,2.25,4.76,4.76,4.77
36.33,2.49,-2.26,2.49,-2.26,2.26,2.14,2.22,4.75,4.75,4.75
36.70,2.48,-2.25,2.48,-2.26,2.26,2.14,2.18,4.73,4.73,4.73
37.06,2.47,-2.24,2.47,-2.25,2.25,2.13,2.14,4.72,4.72,4.71
37.43,2.46,-2.23,2.46,-2.24,2.24,2.12,2.10,4.70,4.70,4.69
37.81,2.45,-2.23,2.45,-2.23,2.23,2.11,2.06,4.67,4.67,4.68
38.19,2.44,-2.21,2.44,-2.22,2.22,2.10,2.02,4.65,4.65,4.65
38.57,2.43,-2.20,2.42,-2.21,2.20,2.09,1.98,4.63,4.63,4.63
38.95,2.42,-2.20,2.42,-2.20,2.19,2.08,1.94,4.61,4.61,4.62
39.34,2.41,-2.18,2.41,-2.18,2.18,2.07,1.90,4.58,4.59,4.59
39.74,2.41,-2.15,2.40,-2.16,2.16,2.06,1.86,4.57,4.57,4.56
40.14,2.40,-2.14,2.39,-2.14,2.15,2.05,1.82,4.55,4.55,4.54
40.54,2.39,-2.13,2.39,-2.13,2.14,2.03,1.78,4.52,4.52,4.52
40.94,2.38,-2.11,2.37,-2.12,2.12,2.02,1.75,4.50,4.50,4.49
41.35,2.37,-2.11,2.37,-2.11,2.11,2.00,1.71,4.47,4.47,4.48
41.76,2.36,-2.09,2.36,-2.10,2.09,1.99,1.68,4.45,4.45,4.45
42.18,2.36,-2.08,2.35,-2.08,2.08,1.97,1.64,4.43,4.43,4.44
42.60,2.35,-2.06,2.35,-2.06,2.06,1.95,1.61,4.40,4.41,4.41
43.03,2.35,-2.04,2.35,-2.04,2.04,1.94,1.58,4.38,4.38,4.39
43.46,2.35,-2.00,2.34,-2.01,2.01,1.92,1.55,4.36,4.36,4.35
43.90,2.35,-1.98,2.35,-1.98,1.99,1.90,1.52,4.33,4.33,4.33
44.33,2.35,-1.95,2.35,-1.96,1.96,1.88,1.49,4.30,4.30,4.30
44.78,2.36,-1.92,2.35,-1.93,1.92,1.86,1.47,4.28,4.28,4.28
45.23,2.36,-1.90,2.36,-1.89,1.89,1.84,1.44,4.24,4.25,4.26
45.68,2.37,-1.84,2.36,-1.85,1.85,1.81,1.42,4.22,4.22,4.21
46.13,2.37,-1.81,2.37,-1.81,1.81,1.79,1.39,4.18,4.18,4.18
46.60,2.38,-1.76,2.37,-1.77,1.77,1.77,1.37,4.15,4.15,4.14
47.06,2.38,-1.73,2.37,-1.73,1.73,1.74,1.35,4.11,4.11,4.11
47.53,2.38,-1.69,2.38,-1.69,1.69,1.72,1.33,4.07,4.07,4.07
48.01,2.38,-1.64,2.38,-1.65,1.65,1.69,1.31,4.02,4.02,4.02
48.49,2.38,-1.60,2.37,-1.60,1.60,1.66,1.30,3.98,3.98,3.98
48.97,2.38,-1.55,2.38,-1.56,1.56,1.64,1.28,3.93,3.93,3.93
49.46,2.38,-1.52,2.38,-1.51,1.51,1.61,1.27,3.89,3.89,3.90
49.96,2.39,-1.45,2.38,-1.47,1.47,1.58,1.25,3.85,3.85,3.84
50.46,2.39,-1.42,2.39,-1.42,1.42,1.55,1.24,3.81,3.81,3.81
50.96,2.40,-1.37,2.39,-1.37,1.38,1.52,1.22,3.77,3.77,3.77
51.47,2.40,-1.33,2.39,-1.33,1.34,1.49,1.21,3.73,3.73,3.73
51.99,2.40,-1.28,2.39,-1.29,1.30,1.46,1.20,3.69,3.69,3.68
52.51,2.39,-1.26,2.39,-1.26,1.26,1.43,1.18,3.64,3.65,3.65
53.03,2.39,-1.23,2.38,-1.23,1.22,1.40,1.17,3.61,3.60,3.62
53.56,2.38,-1.19,2.38,-1.19,1.19,1.36,1.16,3.56,3.57,3.57
54.10,2.38,-1.14,2.37,-1.15,1.15,1.33,1.15,3.53,3.53,3.52
54.64,2.37,-1.11,2.36,-1.11,1.12,1.29,1.14,3.49,3.49,3.48
55.18,2.35,-1.09,2.35,-1.09,1.09,1.26,1.12,3.44,3.44,3.44
55.74,2.34,-1.05,2.33,-1.07,1.07,1.22,1.11,3.40,3.40,3.39
56.29,2.32,-1.05,2.32,-1.05,1.04,1.19,1.10,3.36,3.36,3.37
56.86,2.30,-1.03,2.30,-1.02,1.02,1.15,1.08,3.32,3.32,3.33
57.42,2.29,-0.99,2.28,-1.00,1.00,1.11,1.07,3.29,3.29,3.28
58.00,2.27,-0.97,2.26,-0.98,0.99,1.07,1.05,3.25,3.25,3.24
58.58,2.25,-0.96,2.25,-0.96,0.97,1.03,1.03,3.21,3.21,3.21
59.16,2.23,-0.95,2.23,-0.95,0.94,1.00,1.01,3.17,3.17,3.18
59.76,2.21,-0.92,2.20,-0.93,0.92,0.96,0.99,3.12,3.12,3.13
60.35,2.19,-0.89,2.18,-0.90,0.89,0.91,0.97,3.07,3.07,3.08
60.96,2.16,-0.86,2.16,-0.86,0.86,0.87,0.95,3.01,3.01,3.02
61.57,2.14,-0.82,2.14,-0.82,0.82,0.83,0.92,2.96,2.96,2.96
62.18,2.12,-0.78,2.12,-0.78,0.79,0.79,0.89,2.90,2.91,2.90
62.80,2.11,-0.73,2.10,-0.74,0.75,0.75,0.87,2.85,2.85,2.84
63.43,2.09,-0.70,2.08,-0.71,0.71,0.70,0.83,2.80,2.79,2.79
64.07,2.07,-0.67,2.07,-0.67,0.67,0.66,0.80,2.74,2.74,2.74
64.71,2.06,-0.63,2.05,-0.63,0.63,0.62,0.77,2.69,2.69,2.69
65.35,2.05,-0.58,2.04,-0.59,0.59,0.57,0.73,2.63,2.63,2.63
66.01,2.04,-0.54,2.03,-0.55,0.55,0.53,0.70,2.58,2.58,2.58
66.67,2.03,-0.51,2.03,-0.50,0.50,0.48,0.66,2.52,2.53,2.54
67.33,2.03,-0.44,2.02,-0.45,0.45,0.44,0.62,2.47,2.47,2.47
68.01,2.03,-0.39,2.02,-0.40,0.39,0.39,0.57,2.42,2.42,2.42
68.69,2.03,-0.34,2.03,-0.34,0.34,0.34,0.53,2.36,2.37,2.37
69.37,2.04,-0.28,2.04,-0.28,0.28,0.29,0.48,2.31,2.31,2.32
70.07,2.05,-0.21,2.04,-0.22,0.22,0.25,0.44,2.26,2.26,2.26
70.77,2.05,-0.14,2.05,-0.15,0.15,0.20,0.39,2.20,2.20,2.19
71.48,2.05,-0.09,2.05,-0.09,0.09,0.15,0.34,2.14,2.14,2.14
72.19,2.05,-0.03,2.05,-0.03,0.03,0.10,0.29,2.08,2.08,2.08
72.91,2.05,0.04,2.05,0.03,-0.03,0.05,0.24,2.02,2.02,2.01
73.64,2.05,0.09,2.05,0.09,-0.09,0.00,0.19,1.96,1.96,1.96
74.38,2.05,0.15,2.05,0.14,-0.14,-0.05,0.13,1.90,1.90,1.90
75.12,2.05,0.20,2.05,0.20,-0.20,-0.10,0.08,1.85,1.85,1.85
75.87,2.05,0.25,2.05,0.25,-0.25,-0.15,0.02,1.80,1.80,1.80
76.63,2.05,0.31,2.05,0.30,-0.30,-0.20,-0.03,1.75,1.75,1.74
77.40,2.05,0.35,2.05,0.35,-0.35,-0.25,-0.09,1.70,1.70,1.70
78.17,2.05,0.41,2.05,0.40,-0.40,-0.30,-0.15,1.65,1.65,1.64
78.95,2.05,0.45,2.05,0.45,-0.45,-0.35,-0.20,1.60,1.60,1.60
79.74,2.05,0.50,2.05,0.50,-0.50,-0.40,-0.26,1.55,1.55,1.55
80.54,2.05,0.55,2.04,0.55,-0.55,-0.46,-0.32,1.50,1.50,1.50
81.35,2.05,0.61,2.04,0.60,-0.60,-0.51,-0.38,1.44,1.44,1.44
82.16,2.05,0.64,2.05,0.65,-0.66,-0.56,-0.44,1.39,1.39,1.41
82.98,2.06,0.71,2.06,0.70,-0.71,-0.61,-0.50,1.34,1.34,1.35
83.81,2.07,0.77,2.06,0.76,-0.77,-0.67,-0.56,1.30,1.29,1.30
84.65,2.07,0.83,2.07,0.83,-0.82,-0.72,-0.63,1.24,1.24,1.24
85.50,2.07,0.89,2.07,0.88,-0.87,-0.77,-0.69,1.19,1.19,1.18
86.35,2.07,0.94,2.06,0.93,-0.93,-0.83,-0.75,1.14,1.14,1.13
87.22,2.06,0.98,2.05,0.98,-0.97,-0.88,-0.82,1.08,1.08,1.08
88.09,2.04,1.02,2.03,1.01,-1.01,-0.94,-0.88,1.02,1.02,1.02
88.97,2.01,1.05,2.01,1.05,-1.05,-0.99,-0.95,0.96,0.96,0.96
89.86,1.99,1.08,1.99,1.08,-1.08,-1.04,-1.01,0.90,0.91,0.91
90.76,1.97,1.12,1.96,1.11,-1.11,-1.10,-1.08,0.86,0.85,0.85
91.66,1.93,1.15,1.93,1.14,-1.14,-1.15,-1.15,0.79,0.79,0.78
92.58,1.90,1.17,1.90,1.17,-1.17,-1.21,-1.22,0.73,0.73,0.73
93.51,1.87,1.19,1.86,1.19,-1.19,-1.26,-1.28,0.67,0.67,0.68
94.44,1.84,1.22,1.84,1.22,-1.22,-1.31,-1.35,0.61,0.61,0.62
95.39,1.81,1.26,1.80,1.25,-1.26,-1.37,-1.42,0.55,0.55,0.55
96.34,1.78,1.30,1.77,1.29,-1.29,-1.42,-1.49,0.48,0.48,0.48
97.30,1.75,1.33,1.75,1.33,-1.33,-1.48,-1.56,0.41,0.42,0.42
98.28,1.73,1.38,1.73,1.38,-1.38,-1.53,-1.64,0.35,0.35,0.35
99.26,1.72,1.43,1.71,1.42,-1.42,-1.59,-1.71,0.29,0.29,0.29
100.25,1.71,1.48,1.70,1.47,-1.48,-1.64,-1.78,0.23,0.23,0.23
101.25,1.70,1.52,1.70,1.53,-1.53,-1.70,-1.85,0.16,0.17,0.18
102.27,1.71,1.59,1.70,1.59,-1.59,-1.75,-1.92,0.12,0.12,0.12
103.29,1.72,1.66,1.71,1.65,-1.65,-1.80,-2.00,0.07,0.06,0.06
104.32,1.72,1.71,1.72,1.71,-1.70,-1.86,-2.07,0.01,0.01,0.01
105.37,1.72,1.77,1.72,1.77,-1.76,-1.91,-2.14,-0.05,-0.04,-0.05
106.42,1.73,1.83,1.72,1.82,-1.82,-1.97,-2.21,-0.10,-0.10,-0.10
107.48,1.73,1.89,1.72,1.88,-1.88,-2.02,-2.28,-0.16,-0.16,-0.16
108.56,1.73,1.94,1.73,1.94,-1.94,-2.08,-2.35,-0.21,-0.21,-0.21
109.64,1.73,2.00,1.73,2.00,-2.00,-2.13,-2.42,-0.27,-0.27,-0.27
110.74,1.73,2.06,1.73,2.05,-2.06,-2.18,-2.48,-0.33,-0.33,-0.33
111.85,1.73,2.12,1.73,2.11,-2.12,-2.24,-2.55,-0.39,-0.39,-0.39
112.97,1.73,2.17,1.73,2.17,-2.18,-2.29,-2.61,-0.45,-0.45,-0.44
114.10,1.73,2.23,1.73,2.23,-2.24,-2.34,-2.67,-0.51,-0.51,-0.50
115.24,1.73,2.31,1.73,2.30,-2.30,-2.40,-2.73,-0.57,-0.57,-0.58
116.39,1.73,2.37,1.73,2.37,-2.36,-2.45,-2.79,-0.63,-0.63,-0.64
117.55,1.73,2.43,1.73,2.43,-2.42,-2.50,-2.84,-0.69,-0.69,-0.70
118.73,1.73,2.49,1.73,2.48,-2.47,-2.55,-2.89,-0.75,-0.75,-0.76
119.92,1.73,2.53,1.73,2.53,-2.53,-2.60,-2.94,-0.80,-0.80,-0.80
121.12,1.73,2.58,1.73,2.58,-2.58,-2.66,-2.98,-0.86,-0.86,-0.85
122.33,1.73,2.64,1.73,2.63,-2.64,-2.71,-3.03,-0.91,-0.91,-0.91
123.55,1.73,2.69,1.73,2.69,-2.69,-2.76,-3.06,-0.96,-0.96,-0.96
124.79,1.73,2.74,1.73,2.74,-2.74,-2.81,-3.10,-1.02,-1.02,-1.01
126.03,1.73,2.80,1.73,2.79,-2.80,-2.86,-3.13,-1.07,-1.07,-1.07
127.29,1.73,2.85,1.73,2.85,-2.85,-2.91,-3.16,-1.13,-1.13,-1.12
128.57,1.73,2.92,1.73,2.91,-2.91,-2.96,-3.18,-1.18,-1.18,-1.19
129.85,1.73,2.97,1.73,2.97,-2.97,-3.01,-3.21,-1.24,-1.24,-1.24
131.15,1.73,3.03,1.73,3.02,-3.02,-3.06,-3.23,-1.30,-1.30,-1.30
132.46,1.73,3.08,1.73,3.08,-3.08,-3.11,-3.24,-1.35,-1.35,-1.35
133.79,1.73,3.14,1.73,3.13,-3.13,-3.16,-3.26,-1.41,-1.41,-1.41
135.12,1.73,3.19,1.73,3.18,-3.19,-3.20,-3.27,-1.46,-1.46,-1.46
136.48,1.73,3.24,1.73,3.24,-3.24,-3.25,-3.28,-1.51,-1.51,-1.51
137.84,1.73,3.29,1.73,3.29,-3.29,-3.30,-3.29,-1.56,-1.56,-1.56
139.22,1.73,3.35,1.73,3.34,-3.34,-3.35,-3.30,-1.61,-1.61,-1.62
140.61,1.73,3.39,1.73,3.39,-3.39,-3.39,-3.30,-1.66,-1.66,-1.66
142.02,1.73,3.45,1.73,3.44,-3.44,-3.44,-3.31,-1.71,-1.71,-1.72
143.44,1.73,3.49,1.73,3.49,-3.48,-3.48,-3.31,-1.76,-1.76,-1.76
144.87,1.73,3.53,1.73,3.53,-3.53,-3.53,-3.32,-1.81,-1.81,-1.80
146.32,1.73,3.58,1.73,3.57,-3.57,-3.57,-3.32,-1.85,-1.85,-1.85
147.78,1.73,3.62,1.73,3.62,-3.62,-3.62,-3.32,-1.89,-1.89,-1.89
149.26,1.73,3.67,1.73,3.66,-3.66,-3.66,-3.33,-1.94,-1.94,-1.94
150.75,1.73,3.71,1.73,3.71,-3.70,-3.70,-3.33,-1.98,-1.98,-1.98
152.26,1.73,3.75,1.73,3.75,-3.75,-3.74,-3.34,-2.02,-2.02,-2.02
153.78,1.73,3.79,1.73,3.79,-3.79,-3.78,-3.35,-2.06,-2.06,-2.06
155.32,1.73,3.83,1.73,3.83,-3.83,-3.83,-3.36,-2.11,-2.11,-2.10
156.88,1.73,3.88,1.73,3.88,-3.88,-3.87,-3.37,-2.15,-2.15,-2.15
158.44,1.73,3.93,1.73,3.92,-3.92,-3.91,-3.38,-2.19,-2.19,-2.20
160.03,1.73,3.97,1.73,3.97,-3.96,-3.95,-3.40,-2.24,-2.24,-2.24
161.63,1.73,4.01,1.73,4.01,-4.01,-3.98,-3.41,-2.28,-2.28,-2.28
163.24,1.73,4.06,1.73,4.06,-4.06,-4.02,-3.43,-2.33,-2.33,-2.33
164.88,1.73,4.11,1.73,4.10,-4.10,-4.06,-3.46,-2.38,-2.38,-2.38
166.53,1.73,4.16,1.73,4.15,-4.15,-4.10,-3.48,-2.42,-2.42,-2.43
168.19,1.73,4.19,1.73,4.20,-4.20,-4.13,-3.51,-2.47,-2.47,-2.46
169.87,1.73,4.25,1.72,4.24,-4.25,-4.17,-3.54,-2.52,-2.52,-2.52
171.57,1.73,4.30,1.72,4.29,-4.30,-4.20,-3.57,-2.57,-2.57,-2.57
173.29,1.73,4.34,1.73,4.34,-4.35,-4.24,-3.60,-2.62,-2.62,-2.61
175.02,1.74,4.40,1.74,4.40,-4.40,-4.27,-3.64,-2.66,-2.66,-2.66
176.77,1.75,4.46,1.74,4.45,-4.45,-4.30,-3.68,-2.70,-2.70,-2.71
178.54,1.75,4.50,1.74,4.50,-4.49,-4.33,-3.72,-2.75,-2.75,-2.75
180.32,1.74,4.55,1.74,4.54,-4.53,-4.36,-3.77,-2.80,-2.79,-2.81
182.13,1.73,4.57,1.72,4.57,-4.56,-4.39,-3.82,-2.84,-2.84,-2.84
183.95,1.71,4.60,1.70,4.60,-4.59,-4.42,-3.87,-2.89,-2.89,-2.89
185.79,1.68,4.62,1.68,4.62,-4.61,-4.45,-3.92,-2.94,-2.93,-2.94
187.65,1.66,4.64,1.65,4.63,-4.63,-4.48,-3.98,-2.98,-2.98,-2.98
189.52,1.63,4.65,1.62,4.64,-4.65,-4.51,-4.04,-3.02,-3.02,-3.02
191.42,1.60,4.66,1.59,4.65,-4.66,-4.53,-4.10,-3.06,-3.07,-3.06
193.33,1.56,4.66,1.56,4.66,-4.67,-4.56,-4.17,-3.11,-3.11,-3.10
195.27,1.53,4.68,1.53,4.68,-4.68,-4.58,-4.24,-3.15,-3.15,-3.15
197.22,1.50,4.70,1.49,4.69,-4.68,-4.61,-4.30,-3.19,-3.19,-3.20
199.19,1.47,4.70,1.46,4.70,-4.69,-4.63,-4.38,-3.23,-3.23,-3.23
201.18,1.44,4.71,1.44,4.71,-4.70,-4.65,-4.45,-3.27,-3.26,-3.27
203.19,1.42,4.72,1.41,4.71,-4.71,-4.68,-4.52,-3.30,-3.30,-3.30
205.23,1.40,4.72,1.39,4.72,-4.73,-4.70,-4.60,-3.33,-3.34,-3.32
207.28,1.38,4.73,1.38,4.74,-4.75,-4.72,-4.67,-3.37,-3.37,-3.35
209.35,1.38,4.77,1.38,4.76,-4.77,-4.73,-4.75,-3.40,-3.40,-3.39
211.44,1.39,4.81,1.38,4.80,-4.80,-4.75,-4.82,-3.41,-3.42,-3.42
213.56,1.39,4.83,1.39,4.83,-4.83,-4.77,-4.90,-3.44,-3.44,-3.44
215.69,1.40,4.87,1.39,4.86,-4.86,-4.79,-4.98,-3.46,-3.47,-3.47
217.85,1.40,4.90,1.39,4.90,-4.89,-4.80,-5.05,-3.49,-3.50,-3.50
220.03,1.40,4.93,1.40,4.93,-4.92,-4.82,-5.12,-3.52,-3.52,-3.53
222.23,1.40,4.96,1.40,4.95,-4.95,-4.83,-5.19,-3.55,-3.55,-3.56
224.45,1.40,4.97,1.40,4.97,-4.97,-4.84,-5.26,-3.57,-3.57,-3.57
226.70,1.40,5.00,1.39,4.99,-4.99,-4.86,-5.32,-3.60,-3.60,-3.60
228.96,1.40,5.01,1.40,5.01,-5.02,-4.87,-5.38,-3.62,-3.62,-3.61
231.25,1.40,5.03,1.40,5.03,-5.04,-4.88,-5.44,-3.64,-3.64,-3.63
233.57,1.41,5.06,1.40,5.05,-5.06,-4.89,-5.49,-3.65,-3.66,-3.65
235.90,1.41,5.07,1.41,5.08,-5.08,-4.90,-5.53,-3.67,-3.67,-3.66
238.26,1.42,5.11,1.42,5.10,-5.09,-4.90,-5.57,-3.68,-3.67,-3.69
240.64,1.43,5.11,1.42,5.11,-5.10,-4.91,-5.60,-3.68,-3.68,-3.68
243.05,1.42,5.12,1.42,5.12,-5.11,-4.92,-5.63,-3.69,-3.69,-3.70
245.48,1.41,5.12,1.41,5.11,-5.11,-4.92,-5.65,-3.70,-3.70,-3.71
247.93,1.39,5.11,1.39,5.10,-5.10,-4.93,-5.66,-3.71,-3.71,-3.72
250.41,1.37,5.08,1.36,5.08,-5.08,-4.93,-5.67,-3.72,-3.72,-3.71
252.92,1.34,5.06,1.34,5.06,-5.06,-4.93,-5.67,-3.73,-3.72,-3.72
255.45,1.32,5.05,1.31,5.04,-5.04,-4.93,-5.66,-3.72,-3.72,-3.73
258.00,1.29,5.02,1.28,5.01,-5.01,-4.93,-5.64,-3.72,-3.72,-3.73
260.58,1.25,4.98,1.25,4.98,-4.98,-4.93,-5.62,-3.73,-3.73,-3.73
263.19,1.22,4.95,1.21,4.94,-4.94,-4.93,-5.59,-3.73,-3.74,-3.73
265.82,1.17,4.91,1.18,4.91,-4.91,-4.93,-5.55,-3.75,-3.74,-3.74
268.48,1.15,4.89,1.14,4.88,-4.89,-4.93,-5.51,-3.74,-3.74,-3.74
271.16,1.13,4.87,1.11,4.85,-4.86,-4.93,-5.46,-3.73,-3.74,-3.74
273.87,1.09,4.83,1.09,4.83,-4.84,-4.92,-5.41,-3.75,-3.75,-3.74
276.61,1.07,4.81,1.07,4.82,-4.82,-4.92,-5.36,-3.76,-3.76,-3.74
279.38,1.06,4.82,1.05,4.81,-4.81,-4.91,-5.30,-3.76,-3.76,-3.76
282.17,1.05,4.81,1.05,4.81,-4.81,-4.91,-5.23,-3.76,-3.76,-3.76
284.99,1.06,4.81,1.05,4.81,-4.81,-4.90,-5.17,-3.75,-3.75,-3.75
287.84,1.07,4.81,1.06,4.81,-4.81,-4.89,-5.10,-3.74,-3.75,-3.74
290.72,1.07,4.82,1.07,4.81,-4.81,-4.88,-5.03,-3.75,-3.74,-3.75
293.63,1.08,4.82,1.08,4.82,-4.82,-4.87,-4.96,-3.74,-3.74,-3.74
296.57,1.09,4.82,1.08,4.82,-4.82,-4.86,-4.89,-3.73,-3.73,-3.73
299.53,1.10,4.83,1.09,4.82,-4.82,-4.85,-4.82,-3.72,-3.72,-3.73
302.53,1.10,4.81,1.10,4.82,-4.81,-4.84,-4.75,-3.72,-3.72,-3.71
305.55,1.10,4.82,1.09,4.81,-4.80,-4.83,-4.68,-3.71,-3.71,-3.72
308.61,1.09,4.80,1.08,4.79,-4.79,-4.81,-4.61,-3.70,-3.71,-3.71
311.69,1.07,4.77,1.07,4.78,-4.77,-4.80,-4.55,-3.70,-3.70,-3.70
314.81,1.06,4.76,1.05,4.75,-4.74,-4.78,-4.48,-3.69,-3.69,-3.70
317.96,1.03,4.72,1.03,4.72,-4.71,-4.77,-4.42,-3.69,-3.69,-3.69
321.14,1.00,4.68,1.00,4.68,-4.68,-4.75,-4.35,-3.68,-3.68,-3.68
324.35,0.97,4.65,0.96,4.63,-4.64,-4.74,-4.29,-3.67,-3.67,-3.68
327.59,0.93,4.58,0.93,4.59,-4.60,-4.72,-4.24,-3.67,-3.67,-3.65
330.87,0.90,4.56,0.90,4.55,-4.55,-4.70,-4.18,-3.66,-3.66,-3.66
334.18,0.87,4.52,0.86,4.51,-4.51,-4.68,-4.13,-3.64,-3.65,-3.65
337.52,0.83,4.48,0.83,4.47,-4.47,-4.67,-4.08,-3.64,-3.64,-3.65
340.90,0.80,4.43,0.80,4.43,-4.43,-4.65,-4.03,-3.64,-3.64,-3.63
344.30,0.77,4.39,0.77,4.40,-4.40,-4.63,-3.99,-3.64,-3.63,-3.62
347.75,0.76,4.38,0.75,4.37,-4.38,-4.61,-3.95,-3.62,-3.63,-3.62
351.23,0.74,4.36,0.74,4.35,-4.35,-4.58,-3.91,-3.62,-3.62,-3.62
354.74,0.73,4.32,0.73,4.33,-4.34,-4.56,-3.87,-3.61,-3.61,-3.59
358.28,0.73,4.33,0.73,4.32,-4.33,-4.54,-3.84,-3.60,-3.60,-3.60
361.87,0.74,4.33,0.73,4.32,-4.32,-4.52,-3.81,-3.58,-3.58,-3.59
365.49,0.75,4.33,0.74,4.32,-4.31,-4.50,-3.79,-3.57,-3.57,-3.58
369.14,0.75,4.31,0.75,4.31,-4.31,-4.47,-3.76,-3.56,-3.56,-3.56
372.83,0.75,4.31,0.75,4.31,-4.30,-4.45,-3.74,-3.56,-3.56,-3.56
376.56,0.75,4.31,0.74,4.30,-4.30,-4.42,-3.73,-3.56,-3.56,-3.56
380.33,0.75,4.30,0.74,4.29,-4.30,-4.40,-3.71,-3.55,-3.55,-3.55
384.13,0.75,4.28,0.75,4.29,-4.29,-4.37,-3.70,-3.55,-3.55,-3.53
387.97,0.76,4.29,0.76,4.28,-4.29,-4.35,-3.69,-3.53,-3.53,-3.53
391.85,0.77,4.29,0.77,4.29,-4.28,-4.32,-3.68,-3.52,-3.52,-3.52
395.77,0.78,4.29,0.77,4.28,-4.28,-4.29,-3.68,-3.50,-3.50,-3.51
399.73,0.78,4.28,0.77,4.27,-4.26,-4.27,-3.67,-3.49,-3.49,-3.50
403.72,0.77,4.24,0.77,4.25,-4.25,-4.24,-3.67,-3.48,-3.48,-3.47
407.76,0.76,4.24,0.75,4.23,-4.23,-4.21,-3.67,-3.47,-3.47,-3.48
411.84,0.74,4.21,0.74,4.20,-4.20,-4.19,-3.68,-3.46,-3.46,-3.47
415.96,0.72,4.17,0.71,4.17,-4.17,-4.16,-3.68,-3.45,-3.45,-3.45
420.12,0.69,4.14,0.69,4.13,-4.13,-4.13,-3.69,-3.44,-3.44,-3.45
424.32,0.66,4.10,0.65,4.09,-4.09,-4.10,-3.69,-3.43,-3.44,-3.44
428.56,0.62,4.04,0.62,4.04,-4.05,-4.07,-3.70,-3.43,-3.43,-3.42
432.85,0.59,4.00,0.58,4.00,-4.00,-4.04,-3.71,-3.42,-3.42,-3.41
437.18,0.55,3.97,0.55,3.96,-3.96,-4.01,-3.72,-3.41,-3.41,-3.42
441.55,0.52,3.93,0.51,3.92,-3.92,-3.98,-3.72,-3.40,-3.40,-3.41
445.96,0.49,3.89,0.48,3.88,-3.88,-3.96,-3.73,-3.39,-3.40,-3.40
450.42,0.45,3.84,0.45,3.84,-3.85,-3.93,-3.74,-3.40,-3.40,-3.39
454.93,0.43,3.81,0.43,3.81,-3.82,-3.90,-3.75,-3.40,-3.39,-3.38
459.48,0.42,3.79,0.42,3.78,-3.80,-3.87,-3.75,-3.39,-3.38,-3.37
464.07,0.43,3.78,0.42,3.78,-3.79,-3.84,-3.76,-3.36,-3.36,-3.35
468.71,0.43,3.77,0.43,3.77,-3.77,-3.80,-3.76,-3.35,-3.34,-3.34
473.40,0.44,3.78,0.43,3.77,-3.76,-3.77,-3.76,-3.32,-3.33,-3.34
478.13,0.43,3.76,0.43,3.76,-3.75,-3.74,-3.76,-3.32,-3.32,-3.33
482.91,0.42,3.74,0.42,3.74,-3.73,-3.71,-3.76,-3.31,-3.31,-3.32
487.74,0.41,3.72,0.40,3.71,-3.70,-3.68,-3.75,-3.30,-3.30,-3.31
492.62,0.38,3.68,0.38,3.68,-3.67,-3.65,-3.75,-3.30,-3.29,-3.30
497.55,0.35,3.64,0.35,3.64,-3.63,-3.62,-3.74,-3.29,-3.29,-3.29
502.52,0.32,3.60,0.31,3.59,-3.59,-3.59,-3.73,-3.27,-3.28,-3.28
507.55,0.28,3.54,0.28,3.54,-3.54,-3.56,-3.71,-3.27,-3.26,-3.26
512.62,0.25,3.50,0.24,3.49,-3.49,-3.53,-3.69,-3.25,-3.25,-3.25
517.75,0.21,3.44,0.21,3.44,-3.45,-3.50,-3.67,-3.24,-3.24,-3.23
