frequency,raw,error,smoothed,error_smoothed,equalization,parametric_eq,fixed_band_eq,equalized_raw,equalized_smoothed,target
20.00,2.28,-6.83,2.28,-6.83,6.83,6.62,2.57,9.11,9.11,9.11
20.20,2.31,-6.79,2.31,-6.79,6.79,6.60,2.64,9.09,9.10,9.10
20.40,2.35,-6.74,2.34,-6.74,6.74,6.58,2.72,9.09,9.08,9.09
20.61,2.38,-6.70,2.38,-6.69,6.69,6.56,2.80,9.07,9.07,9.07
20.81,2.41,-6.65,2.41,-6.65,6.65,6.54,2.88,9.06,9.06,9.05
21.02,2.44,-6.61,2.44,-6.61,6.61,6.52,2.96,9.04,9.05,9.04
21.23,2.48,-6.55,2.48,-6.56,6.56,6.50,3.05,9.04,9.04,9.03
21.44,2.51,-6.53,2.51,-6.52,6.52,6.47,3.14,9.03,9.03,9.04
21.66,2.55,-6.47,2.54,-6.48,6.48,6.45,3.23,9.02,9.02,9.02
21.87,2.58,-6.44,2.58,-6.43,6.43,6.42,3.32,9.01,9.01,9.02
22.09,2.61,-6.39,2.61,-6.39,6.39,6.40,3.42,9.00,9.00,9.00
22.31,2.65,-6.35,2.64,-6.35,6.35,6.37,3.51,9.00,8.99,9.00
22.54,2.68,-6.31,2.68,-6.31,6.31,6.34,3.61,8.99,8.99,8.99
22.76,2.71,-6.28,2.71,-6.27,6.27,6.31,3.72,8.98,8.98,8.98
22.99,2.75,-6.23,2.75,-6.23,6.23,6.29,3.82,8.98,8.98,8.97
23.22,2.78,-6.18,2.78,-6.19,6.19,6.26,3.93,8.97,8.97,8.96
23.45,2.82,-6.15,2.81,-6.15,6.15,6.23,4.04,8.97,8.97,8.97
23.69,2.85,-6.11,2.85,-6.11,6.11,6.20,4.15,8.96,8.96,8.96
23.92,2.89,-6.06,2.88,-6.07,6.07,6.17,4.27,8.96,8.96,8.95
24.16,2.92,-6.04,2.92,-6.04,6.04,6.14,4.39,8.96,8.95,8.96
24.40,2.95,-6.01,2.95,-6.00,6.00,6.11,4.51,8.95,8.95,8.96
24.65,2.98,-5.98,2.98,-5.97,5.97,6.07,4.63,8.94,8.95,8.95
24.89,3.02,-5.93,3.02,-5.93,5.93,6.04,4.75,8.95,8.95,8.95
25.14,3.05,-5.89,3.05,-5.90,5.90,6.01,4.87,8.94,8.94,8.94
25.39,3.08,-5.86,3.08,-5.86,5.86,5.98,5.00,8.94,8.94,8.94
25.65,3.11,-5.83,3.11,-5.83,5.83,5.95,5.12,8.94,8.94,8.94
25.91,3.15,-5.79,3.14,-5.79,5.79,5.91,5.25,8.94,8.94,8.93
26.16,3.18,-5.76,3.18,-5.76,5.76,5.88,5.37,8.94,8.94,8.94
26.43,3.21,-5.73,3.21,-5.73,5.73,5.85,5.50,8.94,8.94,8.94
26.69,3.24,-5.70,3.24,-5.70,5.70,5.81,5.62,8.94,8.94,8.94
26.96,3.27,-5.67,3.27,-5.67,5.67,5.78,5.74,8.94,8.94,8.94
27.23,3.30,-5.64,3.30,-5.64,5.64,5.75,5.86,8.94,8.94,8.93
27.50,3.33,-5.60,3.33,-5.61,5.61,5.71,5.97,8.94,8.94,8.93
27.77,3.36,-5.58,3.36,-5.58,5.58,5.68,6.08,8.94,8.94,8.94
28.05,3.39,-5.55,3.39,-5.56,5.56,5.65,6.19,8.94,8.94,8.94
28.33,3.41,-5.54,3.41,-5.53,5.53,5.61,6.29,8.94,8.94,8.94
28.62,3.44,-5.50,3.44,-5.50,5.50,5.58,6.38,8.94,8.94,8.94
28.90,3.47,-5.48,3.47,-5.47,5.47,5.55,6.47,8.94,8.94,8.95
29.19,3.50,-5.45,3.49,-5.45,5.45,5.51,6.55,8.94,8.94,8.94
29.48,3.52,-5.42,3.52,-5.42,5.42,5.48,6.62,8.94,8.94,8.94
29.78,3.55,-5.39,3.54,-5.39,5.39,5.45,6.68,8.94,8.93,8.94
30.08,3.57,-5.37,3.56,-5.37,5.37,5.42,6.73,8.93,8.93,8.93
30.38,3.59,-5.33,3.59,-5.34,5.34,5.38,6.77,8.93,8.93,8.92
30.68,3.61,-5.31,3.61,-5.31,5.31,5.35,6.80,8.92,8.92,8.92
30.99,3.63,-5.29,3.63,-5.29,5.29,5.32,6.82,8.91,8.91,8.91
31.30,3.65,-5.26,3.65,-5.26,5.26,5.29,6.83,8.91,8.91,8.91
31.61,3.67,-5.24,3.67,-5.23,5.23,5.25,6.82,8.90,8.90,8.90
31.93,3.69,-5.19,3.69,-5.20,5.20,5.22,6.81,8.89,8.89,8.88
32.24,3.71,-5.18,3.71,-5.17,5.17,5.19,6.78,8.88,8.88,8.89
32.57,3.73,-5.14,3.73,-5.15,5.15,5.16,6.75,8.87,8.88,8.87
32.89,3.75,-5.12,3.75,-5.12,5.12,5.13,6.70,8.87,8.87,8.87
33.22,3.77,-5.09,3.77,-5.09,5.09,5.09,6.64,8.86,8.86,8.86
33.55,3.79,-5.07,3.79,-5.06,5.06,5.06,6.58,8.85,8.85,8.86
33.89,3.81,-5.03,3.81,-5.03,5.03,5.03,6.51,8.84,8.84,8.84
34.23,3.83,-5.00,3.83,-5.00,5.00,5.00,6.43,8.83,8.83,8.82
34.57,3.85,-4.97,3.85,-4.97,4.97,4.97,6.34,8.82,8.82,8.82
34.92,3.87,-4.94,3.87,-4.95,4.95,4.94,6.25,8.81,8.81,8.80
35.27,3.89,-4.93,3.88,-4.92,4.92,4.90,6.15,8.80,8.80,8.82
35.62,3.91,-4.88,3.90,-4.89,4.89,4.87,6.05,8.79,8.79,8.79
35.97,3.93,-4.85,3.92,-4.85,4.85,4.84,5.94,8.78,8.77,8.78
36.33,3.94,-4.83,3.94,-4.82,4.82,4.81,5.84,8.76,8.76,8.77
36.70,3.96,-4.78,3.95,-4.79,4.79,4.78,5.73,8.74,8.74,8.74
37.06,3.97,-4.75,3.97,-4.75,4.75,4.75,5.62,8.72,8.72,8.72
37.43,3.98,-4.72,3.99,-4.72,4.72,4.71,5.50,8.69,8.70,8.70
37.81,3.99,-4.70,4.00,-4.68,4.68,4.68,5.39,8.67,8.68,8.68
38.19,4.01,-4.65,4.01,-4.65,4.65,4.65,5.28,8.65,8.66,8.66
38.57,4.03,-4.61,4.03,-4.61,4.61,4.62,5.17,8.64,8.64,8.64
38.95,4.05,-4.57,4.04,-4.57,4.57,4.58,5.06,8.62,8.61,8.62
39.34,4.06,-4.53,4.05,-4.54,4.54,4.55,4.96,8.59,8.59,8.59
39.74,4.07,-4.49,4.06,-4.50,4.50,4.52,4.85,8.57,8.56,8.56
40.14,4.08,-4.46,4.07,-4.46,4.46,4.48,4.75,8.54,8.54,8.54
40.54,4.09,-4.43,4.09,-4.43,4.43,4.45,4.64,8.52,8.51,8.52
40.94,4.10,-4.39,4.10,-4.39,4.39,4.41,4.54,8.49,8.49,8.48
41.35,4.10,-4.36,4.11,-4.36,4.36,4.38,4.45,8.45,8.46,8.46
41.76,4.11,-4.32,4.12,-4.32,4.32,4.34,4.35,8.43,8.44,8.43
42.18,4.12,-4.30,4.12,-4.29,4.29,4.31,4.26,8.41,8.41,8.42
42.60,4.13,-4.26,4.13,-4.25,4.25,4.27,4.18,8.38,8.39,8.38
43.03,4.14,-4.22,4.14,-4.22,4.22,4.23,4.09,8.36,8.36,8.36
43.46,4.15,-4.18,4.14,-4.19,4.19,4.19,4.01,8.34,8.33,8.33
43.90,4.16,-4.15,4.15,-4.16,4.16,4.15,3.93,8.31,8.30,8.30
44.33,4.16,-4.11,4.15,-4.12,4.12,4.11,3.85,8.28,8.27,8.27
44.78,4.16,-4.08,4.15,-4.09,4.09,4.07,3.78,8.25,8.24,8.24
45.23,4.16,-4.06,4.15,-4.05,4.05,4.03,3.71,8.21,8.20,8.22
45.68,4.15,-4.02,4.15,-4.02,4.02,3.99,3.64,8.17,8.17,8.17
46.13,4.15,-3.98,4.15,-3.98,3.98,3.95,3.58,8.13,8.13,8.13
46.60,4.15,-3.95,4.15,-3.94,3.94,3.90,3.51,8.09,8.09,8.09
47.06,4.15,-3.91,4.15,-3.90,3.90,3.86,3.46,8.05,8.05,8.06
47.53,4.15,-3.87,4.15,-3.86,3.86,3.81,3.40,8.00,8.00,8.02
48.01,4.15,-3.81,4.15,-3.81,3.81,3.76,3.35,7.96,7.96,7.96
48.49,4.15,-3.77,4.15,-3.76,3.76,3.72,3.29,7.91,7.92,7.92
48.97,4.15,-3.72,4.16,-3.71,3.71,3.67,3.25,7.86,7.87,7.86
49.46,4.16,-3.66,4.16,-3.66,3.66,3.62,3.20,7.82,7.82,7.82
49.96,4.17,-3.59,4.17,-3.60,3.60,3.57,3.15,7.77,7.78,7.76
50.46,4.18,-3.55,4.18,-3.54,3.54,3.52,3.11,7.72,7.73,7.73
50.96,4.20,-3.48,4.20,-3.49,3.49,3.47,3.07,7.68,7.68,7.68
51.47,4.21,-3.43,4.21,-3.42,3.42,3.41,3.03,7.63,7.63,7.64
51.99,4.23,-3.35,4.22,-3.36,3.36,3.36,2.99,7.59,7.59,7.58
52.51,4.25,-3.30,4.24,-3.30,3.30,3.31,2.96,7.55,7.54,7.54
53.03,4.26,-3.25,4.26,-3.24,3.24,3.25,2.92,7.49,7.49,7.51
53.56,4.28,-3.18,4.28,-3.17,3.17,3.19,2.89,7.45,7.45,7.46
54.10,4.29,-3.11,4.29,-3.11,3.11,3.14,2.86,7.39,7.40,7.40
54.64,4.32,-3.04,4.31,-3.04,3.04,3.08,2.82,7.36,7.36,7.36
55.18,4.34,-2.97,4.33,-2.98,2.98,3.02,2.79,7.32,7.31,7.31
55.74,4.35,-2.91,4.35,-2.92,2.92,2.96,2.76,7.27,7.27,7.25
56.29,4.37,-2.85,4.37,-2.85,2.85,2.90,2.72,7.22,7.22,7.22
56.86,4.39,-2.79,4.39,-2.79,2.79,2.84,2.69,7.18,7.18,7.17
57.42,4.40,-2.72,4.40,-2.72,2.72,2.78,2.66,7.12,7.13,7.12
58.00,4.42,-2.65,4.42,-2.66,2.66,2.72,2.62,7.08,7.08,7.07
58.58,4.44,-2.60,4.44,-2.59,2.59,2.66,2.59,7.03,7.03,7.03
59.16,4.45,-2.55,4.45,-2.53,2.53,2.60,2.55,6.97,6.98,7.00
59.76,4.47,-2.48,4.46,-2.46,2.46,2.53,2.51,6.93,6.92,6.95
60.35,4.48,-2.41,4.47,-2.40,2.40,2.47,2.47,6.87,6.87,6.89
60.96,4.49,-2.34,4.48,-2.33,2.33,2.41,2.43,6.82,6.81,6.82
61.57,4.50,-2.25,4.49,-2.27,2.27,2.34,2.39,6.76,6.75,6.75
62.18,4.50,-2.19,4.49,-2.20,2.20,2.28,2.34,6.70,6.69,6.68
62.80,4.50,-2.12,4.49,-2.14,2.14,2.21,2.29,6.64,6.63,6.62
63.43,4.50,-2.05,4.49,-2.07,2.07,2.15,2.24,6.57,6.57,6.55
64.07,4.50,-2.00,4.49,-2.01,2.01,2.08,2.19,6.51,6.51,6.49
64.71,4.49,-1.95,4.49,-1.95,1.95,2.02,2.14,6.44,6.44,6.43
65.35,4.48,-1.90,4.49,-1.89,1.89,1.95,2.08,6.37,6.38,6.37
66.01,4.48,-1.83,4.49,-1.83,1.83,1.89,2.03,6.30,6.31,6.31
66.67,4.48,-1.78,4.48,-1.77,1.77,1.82,1.97,6.24,6.25,6.26
67.33,4.48,-1.71,4.48,-1.70,1.70,1.75,1.91,6.18,6.19,6.18
68.01,4.48,-1.65,4.48,-1.64,1.64,1.69,1.84,6.12,6.12,6.13
68.69,4.48,-1.58,4.48,-1.58,1.58,1.62,1.78,6.06,6.06,6.06
69.37,4.48,-1.52,4.48,-1.52,1.52,1.56,1.71,5.99,5.99,6.00
70.07,4.48,-1.45,4.48,-1.45,1.45,1.49,1.65,5.93,5.93,5.93
70.77,4.48,-1.38,4.48,-1.38,1.38,1.42,1.58,5.86,5.86,5.86
71.48,4.48,-1.32,4.48,-1.32,1.32,1.36,1.51,5.79,5.79,5.80
72.19,4.48,-1.25,4.48,-1.25,1.25,1.29,1.44,5.73,5.73,5.73
72.91,4.48,-1.17,4.48,-1.18,1.18,1.23,1.37,5.66,5.66,5.65
73.64,4.48,-1.11,4.48,-1.11,1.11,1.16,1.29,5.59,5.59,5.58
74.38,4.48,-1.04,4.48,-1.05,1.05,1.09,1.22,5.53,5.53,5.52
75.12,4.48,-0.98,4.48,-0.98,0.98,1.03,1.15,5.46,5.46,5.46
75.87,4.48,-0.92,4.48,-0.92,0.92,0.96,1.07,5.40,5.40,5.40
76.63,4.48,-0.85,4.48,-0.86,0.86,0.90,1.00,5.33,5.33,5.33
77.40,4.48,-0.80,4.48,-0.79,0.79,0.83,0.92,5.27,5.27,5.27
78.17,4.48,-0.72,4.48,-0.73,0.73,0.77,0.85,5.21,5.21,5.20
78.95,4.48,-0.68,4.48,-0.67,0.67,0.70,0.77,5.15,5.15,5.15
79.74,4.48,-0.61,4.48,-0.61,0.61,0.64,0.69,5.08,5.09,5.09
80.54,4.48,-0.55,4.48,-0.54,0.54,0.57,0.62,5.02,5.03,5.03
81.35,4.48,-0.48,4.48,-0.48,0.48,0.51,0.54,4.96,4.96,4.96
82.16,4.48,-0.43,4.49,-0.41,0.41,0.45,0.47,4.89,4.90,4.91
82.98,4.48,-0.36,4.49,-0.35,0.35,0.38,0.39,4.83,4.84,4.84
83.81,4.48,-0.30,4.49,-0.28,0.28,0.32,0.31,4.76,4.77,4.78
84.65,4.49,-0.22,4.49,-0.22,0.22,0.25,0.24,4.71,4.71,4.71
85.50,4.49,-0.15,4.49,-0.16,0.16,0.19,0.16,4.64,4.65,4.64
86.35,4.50,-0.08,4.48,-0.09,0.09,0.13,0.08,4.59,4.58,4.58
87.22,4.50,-0.01,4.48,-0.04,0.04,0.06,0.01,4.53,4.51,4.51
88.09,4.49,0.04,4.47,0.02,-0.02,0.00,-0.07,4.47,4.44,4.44
88.97,4.47,0.09,4.45,0.08,-0.08,-0.06,-0.15,4.39,4.38,4.38
89.86,4.45,0.14,4.44,0.13,-0.13,-0.12,-0.22,4.32,4.31,4.31
90.76,4.43,0.19,4.42,0.18,-0.18,-0.19,-0.30,4.25,4.24,4.24
91.66,4.40,0.24,4.39,0.23,-0.23,-0.25,-0.38,4.17,4.16,4.16
92.58,4.37,0.27,4.37,0.27,-0.27,-0.31,-0.45,4.09,4.09,4.10
93.51,4.34,0.31,4.34,0.32,-0.32,-0.37,-0.53,4.02,4.02,4.03
94.44,4.31,0.35,4.31,0.36,-0.36,-0.44,-0.61,3.95,3.95,3.96
95.39,4.28,0.41,4.28,0.41,-0.41,-0.50,-0.69,3.87,3.87,3.87
96.34,4.25,0.45,4.25,0.45,-0.45,-0.56,-0.77,3.80,3.80,3.80
97.30,4.22,0.49,4.22,0.50,-0.50,-0.62,-0.84,3.72,3.72,3.73
98.28,4.19,0.55,4.20,0.55,-0.55,-0.68,-0.92,3.64,3.65,3.64
99.26,4.16,0.59,4.18,0.60,-0.60,-0.74,-1.00,3.55,3.58,3.57
100.25,4.15,0.65,4.16,0.66,-0.66,-0.80,-1.08,3.49,3.51,3.49
101.25,4.14,0.71,4.15,0.72,-0.72,-0.86,-1.15,3.42,3.43,3.43
102.27,4.13,0.76,4.14,0.78,-0.78,-0.92,-1.23,3.35,3.36,3.36
103.29,4.13,0.84,4.14,0.84,-0.84,-0.99,-1.31,3.28,3.29,3.29
104.32,4.13,0.91,4.13,0.91,-0.91,-1.05,-1.38,3.22,3.22,3.22
105.37,4.14,0.98,4.13,0.98,-0.98,-1.11,-1.46,3.16,3.15,3.16
106.42,4.15,1.06,4.13,1.05,-1.05,-1.17,-1.53,3.10,3.09,3.09
107.48,4.15,1.13,4.13,1.12,-1.12,-1.23,-1.61,3.03,3.02,3.02
108.56,4.15,1.20,4.14,1.19,-1.19,-1.29,-1.68,2.96,2.95,2.95
109.64,4.15,1.26,4.14,1.27,-1.27,-1.35,-1.75,2.88,2.88,2.89
110.74,4.15,1.34,4.14,1.34,-1.34,-1.41,-1.82,2.81,2.80,2.81
111.85,4.15,1.41,4.15,1.41,-1.41,-1.47,-1.89,2.73,2.73,2.74
112.97,4.15,1.48,4.15,1.49,-1.49,-1.53,-1.95,2.66,2.66,2.67
114.10,4.15,1.55,4.15,1.56,-1.56,-1.58,-2.02,2.59,2.59,2.60
115.24,4.15,1.63,4.15,1.63,-1.63,-1.64,-2.08,2.52,2.52,2.51
116.39,4.15,1.71,4.15,1.70,-1.70,-1.70,-2.14,2.45,2.45,2.44
117.55,4.15,1.78,4.15,1.77,-1.77,-1.76,-2.20,2.38,2.38,2.37
118.73,4.15,1.85,4.15,1.84,-1.84,-1.82,-2.25,2.31,2.31,2.30
119.92,4.15,1.91,4.15,1.91,-1.91,-1.88,-2.31,2.24,2.24,2.23
121.12,4.15,1.97,4.15,1.98,-1.98,-1.94,-2.36,2.17,2.17,2.17
122.33,4.15,2.04,4.15,2.05,-2.05,-2.00,-2.40,2.10,2.10,2.10
123.55,4.15,2.10,4.15,2.11,-2.11,-2.06,-2.45,2.03,2.03,2.04
124.79,4.15,2.17,4.15,2.18,-2.18,-2.11,-2.49,1.97,1.97,1.97
126.03,4.15,2.24,4.15,2.25,-2.25,-2.17,-2.52,1.90,1.90,1.91
127.29,4.15,2.31,4.15,2.32,-2.32,-2.23,-2.56,1.83,1.83,1.84
128.57,4.15,2.38,4.15,2.38,-2.38,-2.29,-2.59,1.76,1.76,1.76
129.85,4.15,2.45,4.15,2.45,-2.45,-2.35,-2.62,1.70,1.70,1.70
131.15,4.15,2.52,4.15,2.52,-2.52,-2.40,-2.65,1.63,1.63,1.62
132.46,4.15,2.59,4.15,2.59,-2.59,-2.46,-2.67,1.56,1.56,1.56
133.79,4.15,2.66,4.15,2.65,-2.65,-2.52,-2.69,1.50,1.50,1.49
135.12,4.15,2.72,4.15,2.72,-2.72,-2.57,-2.71,1.43,1.43,1.43
136.48,4.15,2.78,4.15,2.78,-2.78,-2.63,-2.73,1.37,1.36,1.37
137.84,4.15,2.85,4.15,2.85,-2.85,-2.69,-2.75,1.30,1.30,1.30
139.22,4.15,2.92,4.15,2.91,-2.91,-2.74,-2.76,1.24,1.24,1.23
140.61,4.15,2.97,4.15,2.97,-2.97,-2.80,-2.78,1.18,1.18,1.17
142.02,4.15,3.04,4.15,3.03,-3.03,-2.85,-2.79,1.12,1.12,1.11
143.44,4.15,3.09,4.15,3.09,-3.09,-2.91,-2.81,1.05,1.06,1.05
144.87,4.15,3.15,4.16,3.16,-3.16,-2.97,-2.82,0.99,1.00,1.00
146.32,4.15,3.21,4.16,3.22,-3.22,-3.02,-2.83,0.93,0.94,0.94
147.78,4.15,3.26,4.16,3.28,-3.28,-3.07,-2.84,0.87,0.89,0.89
149.26,4.15,3.32,4.17,3.33,-3.33,-3.13,-2.86,0.81,0.83,0.83
150.75,4.16,3.39,4.17,3.39,-3.39,-3.18,-2.87,0.77,0.78,0.77
152.26,4.17,3.44,4.17,3.44,-3.44,-3.24,-2.89,0.72,0.72,0.73
153.78,4.18,3.51,4.16,3.50,-3.50,-3.29,-2.90,0.68,0.67,0.67
155.32,4.18,3.56,4.16,3.54,-3.54,-3.34,-2.92,0.63,0.61,0.62
156.88,4.17,3.60,4.15,3.59,-3.59,-3.39,-2.94,0.58,0.56,0.56
158.44,4.16,3.66,4.13,3.63,-3.63,-3.44,-2.96,0.53,0.50,0.50
160.03,4.13,3.68,4.11,3.67,-3.67,-3.50,-2.99,0.46,0.45,0.45
161.63,4.11,3.71,4.09,3.70,-3.70,-3.55,-3.01,0.41,0.39,0.39
163.24,4.08,3.74,4.07,3.73,-3.73,-3.60,-3.04,0.35,0.34,0.34
164.88,4.04,3.76,4.04,3.76,-3.76,-3.65,-3.07,0.28,0.28,0.28
166.53,4.01,3.79,4.01,3.78,-3.78,-3.69,-3.10,0.22,0.22,0.21
168.19,3.98,3.81,3.97,3.81,-3.81,-3.74,-3.13,0.17,0.17,0.17
169.87,3.94,3.83,3.94,3.84,-3.84,-3.79,-3.17,0.10,0.11,0.11
171.57,3.91,3.86,3.92,3.87,-3.87,-3.84,-3.21,0.04,0.05,0.05
173.29,3.88,3.88,3.89,3.90,-3.90,-3.88,-3.25,-0.02,-0.01,-0.00
175.02,3.85,3.91,3.88,3.94,-3.94,-3.93,-3.29,-0.09,-0.06,-0.06
176.77,3.83,3.95,3.86,3.98,-3.98,-3.97,-3.34,-0.15,-0.12,-0.12
178.54,3.81,3.98,3.85,4.02,-4.02,-4.02,-3.39,-0.22,-0.18,-0.17
180.32,3.81,4.05,3.84,4.07,-4.07,-4.06,-3.44,-0.26,-0.23,-0.24
182.13,3.82,4.10,3.83,4.12,-4.12,-4.10,-3.49,-0.30,-0.29,-0.28
183.95,3.84,4.17,3.83,4.17,-4.17,-4.14,-3.55,-0.33,-0.34,-0.34
185.79,3.85,4.24,3.82,4.21,-4.21,-4.18,-3.61,-0.37,-0.39,-0.40
187.65,3.85,4.29,3.81,4.26,-4.26,-4.22,-3.67,-0.41,-0.45,-0.45
189.52,3.83,4.32,3.80,4.30,-4.30,-4.26,-3.74,-0.47,-0.50,-0.50
191.42,3.82,4.36,3.79,4.34,-4.34,-4.30,-3.80,-0.52,-0.55,-0.54
193.33,3.80,4.39,3.78,4.37,-4.37,-4.34,-3.87,-0.57,-0.60,-0.59
195.27,3.77,4.41,3.76,4.40,-4.40,-4.37,-3.94,-0.63,-0.64,-0.65
197.22,3.74,4.44,3.73,4.42,-4.42,-4.41,-4.01,-0.68,-0.69,-0.70
199.19,3.71,4.44,3.71,4.44,-4.44,-4.44,-4.09,-0.73,-0.73,-0.74
201.18,3.68,4.47,3.68,4.45,-4.45,-4.47,-4.17,-0.77,-0.78,-0.79
203.19,3.65,4.47,3.64,4.46,-4.46,-4.50,-4.24,-0.81,-0.82,-0.82
205.23,3.61,4.46,3.61,4.47,-4.47,-4.53,-4.32,-0.86,-0.86,-0.85
207.28,3.58,4.47,3.59,4.48,-4.48,-4.56,-4.40,-0.90,-0.90,-0.89
209.35,3.55,4.48,3.56,4.49,-4.49,-4.59,-4.48,-0.95,-0.93,-0.93
211.44,3.53,4.49,3.54,4.51,-4.51,-4.62,-4.56,-0.98,-0.97,-0.97
213.56,3.50,4.49,3.52,4.53,-4.53,-4.64,-4.64,-1.03,-1.00,-0.99
215.69,3.49,4.52,3.51,4.54,-4.54,-4.66,-4.71,-1.06,-1.04,-1.03
217.85,3.48,4.54,3.50,4.57,-4.57,-4.69,-4.79,-1.09,-1.07,-1.07
220.03,3.49,4.59,3.49,4.59,-4.59,-4.71,-4.86,-1.10,-1.10,-1.10
222.23,3.49,4.62,3.49,4.61,-4.61,-4.73,-4.94,-1.12,-1.13,-1.13
224.45,3.50,4.65,3.48,4.64,-4.64,-4.74,-5.00,-1.14,-1.16,-1.16
226.70,3.50,4.69,3.48,4.67,-4.67,-4.76,-5.07,-1.17,-1.18,-1.19
228.96,3.50,4.70,3.49,4.69,-4.69,-4.78,-5.13,-1.20,-1.21,-1.20
231.25,3.50,4.73,3.49,4.72,-4.72,-4.79,-5.19,-1.22,-1.23,-1.23
233.57,3.50,4.75,3.50,4.75,-4.75,-4.80,-5.24,-1.25,-1.25,-1.25
235.90,3.50,4.77,3.50,4.77,-4.77,-4.81,-5.29,-1.28,-1.27,-1.27
238.26,3.50,4.80,3.51,4.80,-4.80,-4.82,-5.33,-1.30,-1.29,-1.30
240.64,3.50,4.80,3.51,4.82,-4.82,-4.83,-5.36,-1.32,-1.30,-1.30
243.05,3.50,4.81,3.52,4.83,-4.83,-4.84,-5.39,-1.34,-1.32,-1.32
245.48,3.51,4.84,3.52,4.85,-4.85,-4.84,-5.41,-1.34,-1.33,-1.33
247.93,3.52,4.87,3.52,4.86,-4.86,-4.85,-5.42,-1.34,-1.34,-1.35
250.41,3.53,4.87,3.51,4.86,-4.86,-4.85,-5.43,-1.33,-1.35,-1.34
252.92,3.53,4.88,3.51,4.86,-4.86,-4.85,-5.43,-1.33,-1.36,-1.35
255.45,3.52,4.88,3.50,4.86,-4.86,-4.85,-5.42,-1.34,-1.36,-1.36
258.00,3.51,4.88,3.48,4.85,-4.85,-4.85,-5.40,-1.35,-1.37,-1.37
260.58,3.48,4.85,3.47,4.84,-4.84,-4.84,-5.38,-1.37,-1.38,-1.37
263.19,3.47,4.84,3.45,4.83,-4.83,-4.84,-5.35,-1.36,-1.38,-1.38
265.82,3.43,4.82,3.42,4.81,-4.81,-4.83,-5.32,-1.38,-1.39,-1.39
268.48,3.40,4.79,3.40,4.79,-4.79,-4.82,-5.28,-1.39,-1.39,-1.39
271.16,3.37,4.76,3.37,4.77,-4.77,-4.81,-5.23,-1.40,-1.40,-1.39
273.87,3.33,4.73,3.34,4.74,-4.74,-4.80,-5.18,-1.42,-1.40,-1.40
276.61,3.30,4.70,3.31,4.72,-4.72,-4.79,-5.13,-1.42,-1.41,-1.40
279.38,3.27,4.69,3.29,4.70,-4.70,-4.78,-5.07,-1.43,-1.41,-1.43
282.17,3.24,4.66,3.26,4.67,-4.67,-4.77,-5.00,-1.44,-1.41,-1.43
284.99,3.22,4.63,3.24,4.65,-4.65,-4.75,-4.94,-1.44,-1.42,-1.42
287.84,3.20,4.61,3.22,4.63,-4.63,-4.73,-4.87,-1.44,-1.42,-1.41
290.72,3.19,4.61,3.20,4.61,-4.61,-4.71,-4.80,-1.43,-1.42,-1.42
293.63,3.18,4.59,3.18,4.59,-4.59,-4.70,-4.74,-1.42,-1.41,-1.41
296.57,3.17,4.58,3.16,4.57,-4.57,-4.68,-4.66,-1.40,-1.41,-1.41
299.53,3.16,4.57,3.14,4.55,-4.55,-4.65,-4.59,-1.39,-1.41,-1.41
302.53,3.15,4.54,3.12,4.53,-4.53,-4.63,-4.52,-1.38,-1.40,-1.40
305.55,3.13,4.53,3.11,4.51,-4.51,-4.61,-4.45,-1.38,-1.40,-1.40
308.61,3.10,4.49,3.09,4.48,-4.48,-4.58,-4.38,-1.38,-1.40,-1.39
311.69,3.07,4.46,3.06,4.45,-4.45,-4.56,-4.32,-1.39,-1.39,-1.39
314.81,3.05,4.43,3.04,4.42,-4.42,-4.53,-4.25,-1.38,-1.38,-1.39
317.96,3.01,4.39,3.02,4.40,-4.40,-4.50,-4.19,-1.39,-1.38,-1.38
321.14,2.98,4.35,2.99,4.36,-4.36,-4.47,-4.12,-1.39,-1.37,-1.37
324.35,2.95,4.32,2.96,4.33,-4.33,-4.44,-4.06,-1.38,-1.37,-1.37
327.59,2.93,4.28,2.94,4.30,-4.30,-4.41,-4.00,-1.37,-1.36,-1.35
330.87,2.92,4.27,2.91,4.27,-4.27,-4.38,-3.95,-1.35,-1.35,-1.36
334.18,2.89,4.24,2.88,4.23,-4.23,-4.35,-3.89,-1.34,-1.35,-1.35
337.52,2.85,4.19,2.86,4.20,-4.20,-4.32,-3.84,-1.35,-1.34,-1.35
340.90,2.83,4.16,2.83,4.16,-4.16,-4.29,-3.79,-1.33,-1.33,-1.33
344.30,2.80,4.12,2.80,4.13,-4.13,-4.25,-3.75,-1.33,-1.33,-1.33
347.75,2.78,4.10,2.77,4.09,-4.09,-4.22,-3.71,-1.31,-1.32,-1.32
351.23,2.76,4.08,2.74,4.06,-4.06,-4.18,-3.67,-1.30,-1.32,-1.32
354.74,2.73,4.03,2.71,4.02,-4.02,-4.15,-3.63,-1.29,-1.31,-1.30
358.28,2.70,4.00,2.68,3.98,-3.98,-4.11,-3.60,-1.29,-1.30,-1.30
361.87,2.66,3.95,2.65,3.95,-3.95,-4.07,-3.56,-1.29,-1.30,-1.30
365.49,2.63,3.92,2.63,3.91,-3.91,-4.04,-3.54,-1.29,-1.29,-1.29
369.14,2.60,3.87,2.60,3.88,-3.88,-4.00,-3.51,-1.28,-1.28,-1.27
372.83,2.57,3.84,2.58,3.85,-3.85,-3.96,-3.49,-1.29,-1.27,-1.27
376.56,2.54,3.81,2.56,3.83,-3.83,-3.92,-3.47,-1.29,-1.27,-1.27
380.33,2.52,3.78,2.54,3.80,-3.80,-3.88,-3.45,-1.28,-1.26,-1.26
384.13,2.51,3.76,2.53,3.78,-3.78,-3.84,-3.43,-1.27,-1.25,-1.25
387.97,2.51,3.75,2.52,3.76,-3.76,-3.80,-3.42,-1.25,-1.24,-1.24
391.85,2.51,3.74,2.51,3.75,-3.75,-3.76,-3.41,-1.24,-1.23,-1.23
395.77,2.52,3.74,2.51,3.73,-3.73,-3.72,-3.40,-1.22,-1.22,-1.23
399.73,2.53,3.75,2.51,3.73,-3.73,-3.68,-3.39,-1.20,-1.21,-1.22
403.72,2.53,3.72,2.52,3.72,-3.72,-3.64,-3.39,-1.19,-1.20,-1.19
407.76,2.53,3.72,2.52,3.72,-3.72,-3.60,-3.39,-1.19,-1.19,-1.19
411.84,2.53,3.71,2.53,3.72,-3.72,-3.56,-3.38,-1.19,-1.19,-1.19
415.96,2.53,3.70,2.54,3.71,-3.71,-3.52,-3.38,-1.19,-1.18,-1.17
420.12,2.53,3.70,2.54,3.71,-3.71,-3.48,-3.38,-1.18,-1.17,-1.17
424.32,2.54,3.70,2.54,3.70,-3.70,-3.44,-3.38,-1.17,-1.16,-1.16
428.56,2.55,3.69,2.54,3.69,-3.69,-3.40,-3.38,-1.15,-1.15,-1.15
432.85,2.55,3.68,2.54,3.68,-3.68,-3.36,-3.39,-1.13,-1.14,-1.14
437.18,2.55,3.69,2.53,3.67,-3.67,-3.31,-3.39,-1.12,-1.14,-1.14
441.55,2.54,3.67,2.52,3.65,-3.65,-3.27,-3.39,-1.11,-1.13,-1.13
445.96,2.53,3.65,2.51,3.62,-3.62,-3.23,-3.39,-1.10,-1.12,-1.12
450.42,2.50,3.61,2.49,3.60,-3.60,-3.19,-3.39,-1.10,-1.11,-1.11
454.93,2.48,3.58,2.47,3.57,-3.57,-3.15,-3.39,-1.10,-1.10,-1.11
459.48,2.45,3.55,2.45,3.54,-3.54,-3.11,-3.38,-1.09,-1.09,-1.10
464.07,2.43,3.51,2.42,3.51,-3.51,-3.07,-3.38,-1.08,-1.08,-1.08
468.71,2.39,3.46,2.40,3.47,-3.47,-3.03,-3.37,-1.08,-1.07,-1.07
473.40,2.35,3.41,2.37,3.43,-3.43,-2.99,-3.36,-1.09,-1.07,-1.06
478.13,2.33,3.38,2.34,3.40,-3.40,-2.94,-3.35,-1.07,-1.06,-1.05
482.91,2.31,3.35,2.31,3.36,-3.36,-2.90,-3.34,-1.05,-1.04,-1.04
487.74,2.28,3.31,2.28,3.32,-3.32,-2.86,-3.32,-1.04,-1.03,-1.04
492.62,2.25,3.27,2.25,3.28,-3.28,-2.82,-3.30,-1.03,-1.02,-1.03
497.55,2.21,3.23,2.22,3.24,-3.24,-2.78,-3.28,-1.03,-1.01,-1.02
502.52,2.18,3.19,2.19,3.20,-3.20,-2.74,-3.25,-1.02,-1.00,-1.01
507.55,2.16,3.15,2.16,3.15,-3.15,-2.70,-3.22,-0.99,-0.99,-0.99
512.62,2.13,3.11,2.12,3.10,-3.10,-2.66,-3.19,-0.97,-0.98,-0.98
517.75,2.10,3.06,2.08,3.05,-3.05,-2.62,-3.15,-0.95,-0.97,-0.96
522.93,2.06,3.01,2.04,3.00,-3.00,-2.59,-3.11,-0.94,-0.96,-0.95
528.16,2.02,2.96,2.00,2.94,-2.94,-2.55,-3.07,-0.92,-0.94,-0.94
