frequency,raw,error,smoothed,error_smoothed,equalization,parametric_eq,fixed_band_eq,equalized_raw,equalized_smoothed,target
20.00,0.67,-7.32,0.67,-7.35,7.35,6.55,2.38,8.02,8.02,8.00
20.20,0.74,-7.29,0.74,-7.31,7.31,6.61,2.45,8.05,8.05,8.03
20.40,0.80,-7.27,0.81,-7.27,7.27,6.67,2.52,8.08,8.08,8.07
20.61,0.87,-7.23,0.87,-7.23,7.23,6.72,2.60,8.10,8.11,8.10
20.81,0.94,-7.20,0.94,-7.19,7.19,6.77,2.68,8.13,8.13,8.14
21.02,1.01,-7.17,1.01,-7.15,7.15,6.81,2.76,8.16,8.16,8.18
21.23,1.08,-7.12,1.08,-7.10,7.10,6.85,2.84,8.19,8.18,8.20
21.44,1.14,-7.08,1.15,-7.06,7.06,6.88,2.92,8.20,8.20,8.22
21.66,1.21,-7.03,1.22,-7.01,7.01,6.91,3.01,8.22,8.22,8.24
21.87,1.28,-6.97,1.29,-6.96,6.96,6.93,3.10,8.24,8.24,8.25
22.09,1.35,-6.92,1.35,-6.91,6.91,6.95,3.19,8.26,8.26,8.27
22.31,1.42,-6.86,1.42,-6.85,6.85,6.96,3.28,8.28,8.28,8.28
22.54,1.49,-6.80,1.49,-6.80,6.80,6.96,3.38,8.29,8.29,8.29
22.76,1.56,-6.74,1.56,-6.74,6.74,6.96,3.48,8.30,8.30,8.30
22.99,1.63,-6.67,1.63,-6.68,6.68,6.96,3.58,8.31,8.31,8.30
23.22,1.70,-6.60,1.70,-6.61,6.61,6.95,3.68,8.32,8.32,8.31
23.45,1.77,-6.54,1.77,-6.55,6.55,6.93,3.79,8.33,8.32,8.32
23.69,1.84,-6.48,1.84,-6.49,6.49,6.90,3.90,8.33,8.33,8.33
23.92,1.91,-6.42,1.91,-6.43,6.43,6.88,4.01,8.35,8.34,8.33
24.16,1.98,-6.37,1.98,-6.37,6.37,6.84,4.12,8.36,8.35,8.35
24.40,2.04,-6.33,2.05,-6.31,6.31,6.80,4.24,8.36,8.36,8.37
24.65,2.11,-6.26,2.12,-6.25,6.25,6.76,4.35,8.37,8.37,8.37
24.89,2.18,-6.20,2.18,-6.20,6.20,6.71,4.47,8.38,8.38,8.38
25.14,2.25,-6.14,2.25,-6.14,6.14,6.66,4.59,8.39,8.39,8.39
25.39,2.32,-6.08,2.32,-6.08,6.08,6.61,4.71,8.40,8.40,8.40
25.65,2.39,-6.03,2.39,-6.02,6.02,6.55,4.83,8.41,8.41,8.42
25.91,2.45,-5.97,2.46,-5.96,5.96,6.48,4.95,8.41,8.42,8.42
26.16,2.52,-5.90,2.53,-5.90,5.90,6.42,5.07,8.43,8.43,8.43
26.43,2.59,-5.84,2.59,-5.84,5.84,6.35,5.18,8.44,8.44,8.43
26.69,2.66,-5.78,2.66,-5.78,5.78,6.28,5.30,8.45,8.45,8.44
26.96,2.73,-5.73,2.73,-5.72,5.72,6.20,5.42,8.46,8.46,8.46
27.23,2.80,-5.67,2.80,-5.66,5.66,6.13,5.53,8.47,8.46,8.47
27.50,2.87,-5.61,2.87,-5.61,5.61,6.05,5.64,8.48,8.47,8.48
27.77,2.93,-5.54,2.93,-5.55,5.55,5.97,5.74,8.48,8.48,8.48
28.05,3.00,-5.49,3.00,-5.49,5.49,5.89,5.85,8.49,8.49,8.50
28.33,3.07,-5.42,3.07,-5.43,5.43,5.81,5.94,8.50,8.50,8.49
28.62,3.13,-5.37,3.13,-5.37,5.37,5.72,6.03,8.50,8.50,8.50
28.90,3.20,-5.31,3.20,-5.31,5.31,5.64,6.11,8.51,8.51,8.51
29.19,3.26,-5.25,3.27,-5.25,5.25,5.56,6.19,8.52,8.52,8.51
29.48,3.33,-5.20,3.33,-5.19,5.19,5.48,6.25,8.53,8.53,8.54
29.78,3.39,-5.14,3.40,-5.14,5.14,5.39,6.31,8.53,8.53,8.54
30.08,3.46,-5.08,3.46,-5.08,5.08,5.31,6.36,8.54,8.54,8.54
30.38,3.52,-5.02,3.52,-5.02,5.02,5.23,6.40,8.55,8.55,8.54
30.68,3.58,-4.98,3.58,-4.97,4.97,5.14,6.42,8.55,8.55,8.56
30.99,3.65,-4.90,3.65,-4.91,4.91,5.06,6.44,8.56,8.56,8.56
31.30,3.71,-4.85,3.71,-4.86,4.86,4.98,6.44,8.57,8.57,8.56
31.61,3.77,-4.80,3.77,-4.81,4.81,4.90,6.44,8.58,8.57,8.57
31.93,3.83,-4.75,3.83,-4.75,4.75,4.82,6.42,8.58,8.58,8.58
32.24,3.88,-4.69,3.89,-4.70,4.70,4.74,6.39,8.58,8.59,8.58
32.57,3.94,-4.65,3.95,-4.65,4.65,4.67,6.35,8.59,8.59,8.59
32.89,4.00,-4.60,4.01,-4.59,4.59,4.59,6.30,8.60,8.60,8.60
33.22,4.06,-4.55,4.06,-4.54,4.54,4.52,6.24,8.60,8.61,8.61
33.55,4.12,-4.49,4.12,-4.49,4.49,4.44,6.18,8.61,8.61,8.61
33.89,4.18,-4.44,4.18,-4.44,4.44,4.37,6.10,8.62,8.62,8.62
34.23,4.24,-4.39,4.24,-4.39,4.39,4.30,6.02,8.63,8.62,8.63
34.57,4.29,-4.34,4.29,-4.34,4.34,4.24,5.93,8.63,8.63,8.63
34.92,4.35,-4.28,4.35,-4.29,4.29,4.17,5.83,8.64,8.63,8.63
35.27,4.40,-4.24,4.40,-4.24,4.24,4.10,5.73,8.64,8.64,8.64
35.62,4.45,-4.19,4.46,-4.18,4.18,4.04,5.63,8.64,8.64,8.64
35.97,4.51,-4.13,4.51,-4.13,4.13,3.98,5.52,8.64,8.64,8.64
36.33,4.56,-4.08,4.57,-4.08,4.08,3.92,5.41,8.64,8.64,8.64
36.70,4.62,-4.02,4.62,-4.02,4.02,3.86,5.29,8.65,8.64,8.64
37.06,4.67,-3.97,4.67,-3.97,3.97,3.80,5.18,8.64,8.64,8.65
37.43,4.72,-3.93,4.73,-3.92,3.92,3.75,5.06,8.64,8.64,8.65
37.81,4.77,-3.87,4.78,-3.86,3.86,3.69,4.94,8.63,8.64,8.65
38.19,4.83,-3.81,4.83,-3.80,3.80,3.64,4.82,8.64,8.64,8.64
38.57,4.89,-3.74,4.89,-3.75,3.75,3.59,4.71,8.64,8.63,8.64
38.95,4.94,-3.69,4.94,-3.69,3.69,3.54,4.59,8.63,8.63,8.63
39.34,5.00,-3.62,4.99,-3.63,3.63,3.49,4.47,8.64,8.63,8.62
39.74,5.05,-3.57,5.05,-3.58,3.58,3.45,4.36,8.63,8.62,8.62
40.14,5.10,-3.52,5.10,-3.52,3.52,3.40,4.25,8.62,8.62,8.62
40.54,5.15,-3.46,5.15,-3.46,3.46,3.36,4.13,8.61,8.62,8.62
40.94,5.20,-3.41,5.21,-3.41,3.41,3.32,4.03,8.61,8.61,8.61
41.35,5.26,-3.34,5.26,-3.35,3.35,3.28,3.92,8.61,8.61,8.60
41.76,5.31,-3.29,5.32,-3.29,3.29,3.24,3.81,8.60,8.60,8.60
42.18,5.36,-3.24,5.37,-3.23,3.23,3.20,3.71,8.59,8.60,8.61
42.60,5.42,-3.18,5.42,-3.17,3.17,3.16,3.61,8.59,8.59,8.60
43.03,5.47,-3.13,5.48,-3.11,3.11,3.12,3.51,8.58,8.59,8.60
43.46,5.53,-3.06,5.53,-3.05,3.05,3.08,3.41,8.59,8.59,8.59
43.90,5.58,-2.99,5.58,-3.00,3.00,3.04,3.32,8.58,8.58,8.57
44.33,5.63,-2.94,5.64,-2.94,2.94,3.00,3.23,8.57,8.58,8.57
44.78,5.69,-2.87,5.69,-2.88,2.88,2.97,3.14,8.58,8.57,8.57
45.23,5.74,-2.81,5.74,-2.83,2.83,2.93,3.05,8.57,8.57,8.56
45.68,5.79,-2.76,5.79,-2.77,2.77,2.89,2.97,8.57,8.56,8.56
46.13,5.83,-2.71,5.83,-2.72,2.72,2.85,2.89,8.56,8.55,8.55
46.60,5.88,-2.67,5.88,-2.67,2.67,2.81,2.81,8.55,8.55,8.55
47.06,5.92,-2.62,5.92,-2.62,2.62,2.77,2.73,8.54,8.54,8.54
47.53,5.96,-2.57,5.95,-2.58,2.58,2.72,2.66,8.54,8.53,8.53
48.01,6.00,-2.54,5.99,-2.53,2.53,2.68,2.59,8.53,8.52,8.54
48.49,6.02,-2.49,6.02,-2.48,2.48,2.64,2.52,8.51,8.51,8.52
48.97,6.05,-2.44,6.06,-2.44,2.44,2.59,2.45,8.49,8.50,8.49
49.46,6.08,-2.40,6.08,-2.40,2.40,2.54,2.38,8.48,8.48,8.48
49.96,6.11,-2.34,6.11,-2.35,2.35,2.50,2.32,8.47,8.47,8.46
50.46,6.13,-2.32,6.14,-2.31,2.31,2.45,2.26,8.44,8.45,8.45
50.96,6.16,-2.27,6.17,-2.27,2.27,2.40,2.20,8.43,8.43,8.44
51.47,6.18,-2.22,6.19,-2.22,2.22,2.35,2.14,8.41,8.41,8.40
51.99,6.21,-2.17,6.21,-2.18,2.18,2.29,2.08,8.39,8.39,8.39
52.51,6.24,-2.14,6.24,-2.13,2.13,2.24,2.02,8.38,8.37,8.38
53.03,6.26,-2.09,6.26,-2.09,2.09,2.19,1.97,8.35,8.35,8.35
53.56,6.28,-2.05,6.28,-2.04,2.04,2.13,1.92,8.33,8.33,8.33
54.10,6.30,-2.00,6.31,-2.00,2.00,2.08,1.87,8.30,8.31,8.31
54.64,6.33,-1.96,6.33,-1.96,1.96,2.02,1.82,8.29,8.28,8.29
55.18,6.35,-1.91,6.35,-1.92,1.92,1.97,1.77,8.27,8.26,8.26
55.74,6.36,-1.87,6.36,-1.88,1.88,1.91,1.72,8.24,8.24,8.23
56.29,6.38,-1.83,6.38,-1.83,1.83,1.86,1.67,8.22,8.21,8.22
56.86,6.40,-1.78,6.40,-1.79,1.79,1.80,1.63,8.20,8.19,8.19
57.42,6.42,-1.73,6.41,-1.75,1.75,1.75,1.58,8.18,8.16,8.15
58.00,6.43,-1.70,6.43,-1.71,1.71,1.69,1.54,8.14,8.14,8.13
58.58,6.44,-1.66,6.44,-1.66,1.66,1.64,1.49,8.11,8.11,8.11
59.16,6.45,-1.63,6.46,-1.62,1.62,1.59,1.45,8.07,8.07,8.08
59.76,6.47,-1.59,6.48,-1.57,1.57,1.53,1.40,8.04,8.04,8.06
60.35,6.48,-1.54,6.50,-1.51,1.51,1.48,1.36,7.99,8.01,8.02
60.96,6.50,-1.48,6.52,-1.45,1.45,1.43,1.32,7.96,7.97,7.98
61.57,6.52,-1.41,6.54,-1.39,1.39,1.38,1.28,7.92,7.94,7.94
62.18,6.55,-1.34,6.57,-1.33,1.33,1.33,1.23,7.88,7.90,7.89
62.80,6.58,-1.28,6.59,-1.27,1.27,1.28,1.19,7.85,7.86,7.86
63.43,6.61,-1.20,6.62,-1.20,1.20,1.23,1.15,7.81,7.82,7.81
64.07,6.64,-1.13,6.64,-1.13,1.13,1.18,1.11,7.77,7.78,7.77
64.71,6.68,-1.04,6.67,-1.06,1.06,1.13,1.06,7.75,7.73,7.73
65.35,6.70,-0.98,6.69,-1.00,1.00,1.08,1.02,7.70,7.69,7.68
66.01,6.73,-0.91,6.71,-0.93,0.93,1.04,0.98,7.66,7.64,7.64
66.67,6.75,-0.85,6.73,-0.87,0.87,0.99,0.94,7.62,7.60,7.61
67.33,6.76,-0.80,6.75,-0.80,0.80,0.95,0.90,7.57,7.55,7.56
68.01,6.76,-0.75,6.76,-0.74,0.74,0.90,0.85,7.51,7.51,7.51
68.69,6.77,-0.69,6.78,-0.69,0.69,0.86,0.81,7.46,7.46,7.47
69.37,6.77,-0.65,6.79,-0.63,0.63,0.82,0.77,7.41,7.42,7.42
70.07,6.78,-0.59,6.79,-0.58,0.58,0.77,0.73,7.36,7.37,7.37
70.77,6.78,-0.55,6.79,-0.53,0.53,0.73,0.68,7.32,7.33,7.33
71.48,6.78,-0.51,6.79,-0.49,0.49,0.69,0.64,7.27,7.28,7.29
72.19,6.78,-0.45,6.79,-0.45,0.45,0.65,0.60,7.23,7.24,7.24
72.91,6.78,-0.41,6.78,-0.42,0.42,0.61,0.55,7.20,7.20,7.19
73.64,6.77,-0.38,6.76,-0.39,0.39,0.57,0.51,7.16,7.15,7.15
74.38,6.76,-0.35,6.74,-0.36,0.36,0.53,0.47,7.13,7.11,7.11
75.12,6.75,-0.31,6.72,-0.35,0.35,0.49,0.42,7.10,7.07,7.07
75.87,6.72,-0.31,6.70,-0.33,0.33,0.46,0.38,7.05,7.03,7.03
76.63,6.69,-0.30,6.67,-0.32,0.32,0.42,0.34,7.01,6.99,6.99
77.40,6.65,-0.30,6.64,-0.31,0.31,0.38,0.29,6.97,6.95,6.95
78.17,6.60,-0.31,6.61,-0.31,0.31,0.34,0.25,6.91,6.92,6.91
78.95,6.55,-0.33,6.57,-0.31,0.31,0.31,0.21,6.86,6.88,6.88
79.74,6.51,-0.34,6.54,-0.31,0.31,0.27,0.16,6.82,6.85,6.85
80.54,6.48,-0.33,6.50,-0.31,0.31,0.23,0.12,6.79,6.81,6.82
81.35,6.45,-0.33,6.47,-0.31,0.31,0.20,0.07,6.77,6.78,6.78
82.16,6.42,-0.33,6.43,-0.32,0.32,0.16,0.03,6.74,6.75,6.75
82.98,6.39,-0.33,6.39,-0.32,0.32,0.13,-0.02,6.72,6.72,6.72
83.81,6.37,-0.31,6.36,-0.33,0.33,0.09,-0.06,6.70,6.69,6.69
84.65,6.36,-0.29,6.33,-0.33,0.33,0.06,-0.11,6.69,6.66,6.65
85.50,6.33,-0.30,6.31,-0.32,0.32,0.02,-0.15,6.65,6.63,6.63
86.35,6.30,-0.30,6.29,-0.31,0.31,-0.01,-0.20,6.62,6.60,6.60
87.22,6.27,-0.30,6.27,-0.30,0.30,-0.05,-0.25,6.57,6.57,6.57
88.09,6.25,-0.29,6.26,-0.29,0.29,-0.08,-0.29,6.54,6.55,6.54
88.97,6.22,-0.30,6.25,-0.26,0.26,-0.12,-0.34,6.49,6.52,6.52
89.86,6.22,-0.28,6.25,-0.24,0.24,-0.15,-0.39,6.46,6.49,6.50
90.76,6.22,-0.23,6.26,-0.21,0.21,-0.19,-0.43,6.43,6.46,6.46
91.66,6.24,-0.19,6.27,-0.17,0.17,-0.22,-0.48,6.41,6.43,6.43
92.58,6.27,-0.13,6.28,-0.12,0.12,-0.26,-0.53,6.40,6.41,6.40
93.51,6.30,-0.08,6.30,-0.07,0.07,-0.29,-0.58,6.37,6.38,6.38
94.44,6.33,-0.02,6.33,-0.02,0.02,-0.33,-0.63,6.35,6.35,6.35
95.39,6.36,0.04,6.36,0.04,-0.04,-0.36,-0.68,6.32,6.31,6.32
96.34,6.39,0.11,6.39,0.11,-0.11,-0.40,-0.73,6.28,6.28,6.28
97.30,6.43,0.19,6.42,0.18,-0.18,-0.43,-0.78,6.25,6.25,6.24
98.28,6.46,0.26,6.46,0.25,-0.25,-0.47,-0.83,6.22,6.21,6.21
99.26,6.49,0.32,6.49,0.32,-0.32,-0.50,-0.88,6.18,6.17,6.17
100.25,6.53,0.40,6.51,0.38,-0.38,-0.54,-0.93,6.15,6.13,6.13
101.25,6.55,0.46,6.54,0.44,-0.44,-0.58,-0.98,6.11,6.09,6.10
102.27,6.57,0.52,6.56,0.51,-0.51,-0.61,-1.03,6.07,6.05,6.05
103.29,6.58,0.58,6.57,0.57,-0.57,-0.65,-1.08,6.02,6.00,6.00
104.32,6.59,0.63,6.58,0.62,-0.62,-0.69,-1.13,5.97,5.96,5.96
105.37,6.60,0.69,6.59,0.68,-0.68,-0.72,-1.17,5.92,5.91,5.91
106.42,6.60,0.75,6.59,0.74,-0.74,-0.76,-1.22,5.86,5.85,5.86
107.48,6.60,0.79,6.60,0.80,-0.80,-0.80,-1.27,5.80,5.80,5.81
108.56,6.58,0.84,6.60,0.85,-0.85,-0.84,-1.32,5.73,5.74,5.74
109.64,6.58,0.90,6.59,0.91,-0.91,-0.88,-1.36,5.67,5.68,5.68
110.74,6.58,0.96,6.59,0.97,-0.97,-0.91,-1.41,5.61,5.62,5.63
111.85,6.58,1.02,6.59,1.04,-1.04,-0.95,-1.45,5.54,5.55,5.56
112.97,6.58,1.10,6.59,1.10,-1.10,-0.99,-1.49,5.48,5.49,5.48
114.10,6.58,1.16,6.59,1.17,-1.17,-1.03,-1.54,5.41,5.42,5.43
115.24,6.58,1.23,6.59,1.24,-1.24,-1.07,-1.57,5.34,5.35,5.35
116.39,6.58,1.31,6.59,1.31,-1.31,-1.12,-1.61,5.27,5.28,5.27
117.55,6.58,1.37,6.59,1.38,-1.38,-1.16,-1.65,5.20,5.21,5.21
118.73,6.58,1.45,6.60,1.45,-1.45,-1.20,-1.68,5.13,5.15,5.13
119.92,6.59,1.51,6.60,1.52,-1.52,-1.24,-1.71,5.07,5.08,5.08
121.12,6.60,1.60,6.60,1.59,-1.59,-1.28,-1.74,5.02,5.01,5.00
122.33,6.60,1.66,6.59,1.65,-1.65,-1.33,-1.76,4.96,4.95,4.94
123.55,6.60,1.71,6.59,1.70,-1.70,-1.37,-1.79,4.90,4.88,4.89
124.79,6.59,1.77,6.58,1.75,-1.75,-1.41,-1.81,4.84,4.82,4.83
126.03,6.58,1.82,6.56,1.80,-1.80,-1.46,-1.83,4.78,4.76,4.77
127.29,6.56,1.86,6.54,1.84,-1.84,-1.50,-1.85,4.72,4.70,4.70
128.57,6.54,1.91,6.52,1.88,-1.88,-1.55,-1.86,4.67,4.64,4.63
129.85,6.50,1.92,6.50,1.91,-1.91,-1.59,-1.87,4.60,4.59,4.59
131.15,6.46,1.93,6.47,1.93,-1.93,-1.64,-1.88,4.53,4.53,4.53
132.46,6.44,1.96,6.44,1.96,-1.96,-1.68,-1.89,4.49,4.48,4.48
133.79,6.41,1.98,6.40,1.98,-1.98,-1.73,-1.89,4.44,4.43,4.43
135.12,6.36,1.98,6.38,2.00,-2.00,-1.78,-1.90,4.37,4.38,4.38
136.48,6.34,2.01,6.35,2.02,-2.02,-1.82,-1.90,4.32,4.33,4.33
137.84,6.30,2.02,6.33,2.05,-2.05,-1.87,-1.90,4.26,4.28,4.28
139.22,6.29,2.07,6.31,2.07,-2.07,-1.92,-1.90,4.22,4.23,4.23
140.61,6.27,2.10,6.29,2.10,-2.10,-1.96,-1.90,4.17,4.19,4.17
142.02,6.24,2.10,6.28,2.14,-2.14,-2.01,-1.90,4.10,4.14,4.14
143.44,6.24,2.14,6.27,2.18,-2.18,-2.06,-1.89,4.07,4.10,4.10
144.87,6.24,2.19,6.27,2.22,-2.22,-2.10,-1.89,4.03,4.05,4.05
146.32,6.25,2.25,6.26,2.26,-2.26,-2.15,-1.89,4.00,4.00,4.00
147.78,6.27,2.31,6.25,2.30,-2.30,-2.19,-1.88,3.97,3.96,3.97
149.26,6.28,2.36,6.25,2.34,-2.34,-2.24,-1.88,3.94,3.91,3.92
150.75,6.27,2.42,6.24,2.38,-2.38,-2.29,-1.88,3.89,3.86,3.85
152.26,6.26,2.45,6.24,2.42,-2.42,-2.33,-1.88,3.84,3.81,3.81
153.78,6.24,2.48,6.23,2.46,-2.46,-2.37,-1.87,3.78,3.76,3.77
155.32,6.22,2.52,6.21,2.50,-2.50,-2.42,-1.87,3.72,3.71,3.70
156.88,6.19,2.53,6.19,2.53,-2.53,-2.46,-1.87,3.66,3.66,3.66
158.44,6.16,2.55,6.17,2.56,-2.56,-2.50,-1.87,3.60,3.61,3.61
160.03,6.13,2.58,6.14,2.59,-2.59,-2.54,-1.87,3.55,3.56,3.55
161.63,6.11,2.62,6.11,2.61,-2.61,-2.58,-1.88,3.50,3.50,3.49
163.24,6.09,2.65,6.08,2.63,-2.63,-2.62,-1.88,3.46,3.45,3.45
164.88,6.04,2.64,6.05,2.65,-2.65,-2.66,-1.89,3.39,3.40,3.40
166.53,6.01,2.67,6.01,2.67,-2.67,-2.70,-1.90,3.34,3.34,3.34
168.19,5.98,2.69,5.98,2.69,-2.69,-2.73,-1.90,3.29,3.29,3.29
169.87,5.92,2.69,5.94,2.71,-2.71,-2.76,-1.91,3.21,3.23,3.24
171.57,5.89,2.71,5.91,2.73,-2.73,-2.79,-1.93,3.16,3.18,3.18
173.29,5.86,2.74,5.87,2.75,-2.75,-2.82,-1.94,3.11,3.12,3.12
175.02,5.82,2.75,5.83,2.77,-2.77,-2.85,-1.95,3.05,3.06,3.07
176.77,5.78,2.78,5.79,2.79,-2.79,-2.87,-1.97,3.00,3.00,3.00
178.54,5.75,2.81,5.74,2.80,-2.80,-2.90,-1.99,2.95,2.94,2.94
180.32,5.71,2.83,5.70,2.81,-2.81,-2.92,-2.01,2.90,2.88,2.88
182.13,5.68,2.86,5.65,2.83,-2.83,-2.94,-2.03,2.85,2.82,2.82
183.95,5.61,2.86,5.60,2.84,-2.84,-2.95,-2.05,2.77,2.76,2.76
185.79,5.55,2.85,5.55,2.86,-2.86,-2.96,-2.08,2.70,2.70,2.70
187.65,5.49,2.87,5.50,2.86,-2.86,-2.98,-2.11,2.63,2.64,2.63
189.52,5.43,2.86,5.45,2.87,-2.87,-2.98,-2.13,2.56,2.58,2.57
191.42,5.37,2.86,5.39,2.87,-2.87,-2.99,-2.16,2.50,2.52,2.52
193.33,5.33,2.87,5.34,2.88,-2.88,-2.99,-2.19,2.46,2.46,2.46
195.27,5.28,2.87,5.28,2.88,-2.88,-2.99,-2.22,2.41,2.40,2.41
197.22,5.23,2.88,5.22,2.87,-2.87,-2.99,-2.26,2.36,2.35,2.35
199.19,5.17,2.88,5.16,2.86,-2.86,-2.98,-2.29,2.31,2.30,2.29
201.18,5.10,2.86,5.10,2.86,-2.86,-2.97,-2.32,2.24,2.24,2.24
203.19,5.03,2.83,5.04,2.85,-2.85,-2.96,-2.36,2.18,2.19,2.20
205.23,4.99,2.85,4.99,2.85,-2.85,-2.95,-2.39,2.15,2.14,2.14
207.28,4.93,2.82,4.93,2.84,-2.84,-2.93,-2.43,2.09,2.10,2.11
209.35,4.88,2.83,4.88,2.83,-2.83,-2.91,-2.46,2.06,2.05,2.05
211.44,4.82,2.83,4.82,2.81,-2.81,-2.89,-2.49,2.01,2.01,2.00
213.56,4.75,2.79,4.76,2.80,-2.80,-2.86,-2.53,1.95,1.96,1.96
215.69,4.69,2.76,4.70,2.78,-2.78,-2.83,-2.56,1.91,1.92,1.93
217.85,4.63,2.74,4.65,2.76,-2.76,-2.80,-2.59,1.87,1.88,1.89
220.03,4.60,2.76,4.59,2.74,-2.74,-2.77,-2.62,1.86,1.85,1.84
222.23,4.56,2.75,4.54,2.72,-2.72,-2.74,-2.65,1.84,1.82,1.81
224.45,4.50,2.72,4.49,2.70,-2.70,-2.70,-2.67,1.80,1.79,1.78
226.70,4.43,2.67,4.43,2.68,-2.68,-2.66,-2.69,1.76,1.76,1.76
228.96,4.36,2.63,4.38,2.65,-2.65,-2.62,-2.71,1.71,1.73,1.73
231.25,4.31,2.60,4.33,2.62,-2.62,-2.58,-2.73,1.69,1.71,1.72
233.57,4.28,2.59,4.28,2.59,-2.59,-2.54,-2.74,1.69,1.69,1.69
235.90,4.23,2.56,4.23,2.56,-2.56,-2.49,-2.75,1.68,1.68,1.67
238.26,4.19,2.53,4.19,2.52,-2.52,-2.44,-2.75,1.67,1.66,1.66
240.64,4.14,2.49,4.14,2.49,-2.49,-2.39,-2.75,1.66,1.65,1.65
243.05,4.09,2.44,4.09,2.45,-2.45,-2.34,-2.75,1.65,1.65,1.65
245.48,4.03,2.39,4.05,2.41,-2.41,-2.29,-2.74,1.63,1.64,1.64
247.93,3.99,2.35,4.00,2.36,-2.36,-2.24,-2.72,1.63,1.64,1.64
250.41,3.96,2.33,3.96,2.32,-2.32,-2.19,-2.70,1.64,1.64,1.63
252.92,3.91,2.27,3.91,2.27,-2.27,-2.13,-2.68,1.64,1.64,1.64
255.45,3.87,2.22,3.87,2.22,-2.22,-2.08,-2.64,1.65,1.64,1.65
258.00,3.82,2.17,3.82,2.17,-2.17,-2.02,-2.61,1.65,1.65,1.65
260.58,3.77,2.12,3.77,2.12,-2.12,-1.97,-2.57,1.66,1.66,1.65
263.19,3.73,2.07,3.73,2.06,-2.06,-1.91,-2.52,1.67,1.67,1.67
265.82,3.68,2.01,3.68,2.00,-2.00,-1.85,-2.47,1.68,1.68,1.67
268.48,3.63,1.94,3.63,1.94,-1.94,-1.79,-2.42,1.69,1.69,1.69
271.16,3.58,1.88,3.57,1.87,-1.87,-1.73,-2.36,1.71,1.70,1.70
273.87,3.50,1.79,3.52,1.80,-1.80,-1.67,-2.29,1.70,1.71,1.71
276.61,3.46,1.73,3.46,1.73,-1.73,-1.61,-2.23,1.73,1.72,1.73
279.38,3.40,1.67,3.39,1.66,-1.66,-1.55,-2.16,1.74,1.74,1.73
282.17,3.34,1.59,3.33,1.58,-1.58,-1.49,-2.08,1.76,1.75,1.75
284.99,3.28,1.52,3.26,1.51,-1.51,-1.43,-2.01,1.78,1.76,1.76
287.84,3.20,1.43,3.20,1.43,-1.43,-1.37,-1.93,1.78,1.77,1.77
290.72,3.13,1.35,3.13,1.35,-1.35,-1.31,-1.84,1.79,1.79,1.78
293.63,3.06,1.27,3.07,1.27,-1.27,-1.24,-1.76,1.79,1.80,1.80
296.57,2.98,1.17,3.00,1.19,-1.19,-1.18,-1.68,1.79,1.81,1.81
299.53,2.91,1.10,2.93,1.11,-1.11,-1.12,-1.59,1.80,1.82,1.82
302.53,2.85,1.03,2.87,1.03,-1.03,-1.06,-1.50,1.82,1.83,1.82
305.55,2.80,0.95,2.80,0.96,-0.96,-0.99,-1.41,1.84,1.84,1.85
308.61,2.73,0.88,2.74,0.88,-0.88,-0.93,-1.32,1.85,1.85,1.85
311.69,2.67,0.81,2.67,0.81,-0.81,-0.86,-1.23,1.86,1.86,1.86
314.81,2.61,0.73,2.61,0.74,-0.74,-0.80,-1.14,1.87,1.87,1.89
317.96,2.55,0.67,2.55,0.67,-0.67,-0.73,-1.05,1.88,1.88,1.88
321.14,2.49,0.60,2.49,0.60,-0.60,-0.67,-0.96,1.89,1.89,1.89
324.35,2.43,0.55,2.43,0.54,-0.54,-0.60,-0.86,1.89,1.89,1.88
327.59,2.36,0.46,2.37,0.48,-0.48,-0.54,-0.77,1.89,1.90,1.90
330.87,2.31,0.41,2.31,0.41,-0.41,-0.47,-0.68,1.90,1.90,1.90
334.18,2.25,0.36,2.25,0.35,-0.35,-0.40,-0.58,1.90,1.90,1.89
337.52,2.18,0.28,2.19,0.28,-0.28,-0.33,-0.49,1.90,1.90,1.90
340.90,2.12,0.21,2.12,0.22,-0.22,-0.27,-0.40,1.90,1.90,1.91
344.30,2.05,0.15,2.06,0.15,-0.15,-0.20,-0.31,1.90,1.90,1.91
347.75,2.00,0.10,1.99,0.09,-0.09,-0.13,-0.21,1.91,1.90,1.90
351.23,1.94,0.04,1.92,0.02,-0.02,-0.06,-0.12,1.92,1.90,1.90
354.74,1.87,-0.03,1.85,-0.05,0.05,0.01,-0.03,1.92,1.89,1.90
358.28,1.79,-0.09,1.77,-0.11,0.11,0.08,0.07,1.91,1.89,1.89
361.87,1.71,-0.17,1.70,-0.18,0.18,0.15,0.16,1.89,1.88,1.88
365.49,1.61,-0.27,1.63,-0.25,0.25,0.22,0.25,1.86,1.88,1.88
369.14,1.54,-0.33,1.56,-0.31,0.31,0.29,0.34,1.86,1.87,1.87
372.83,1.48,-0.38,1.49,-0.38,0.38,0.36,0.44,1.86,1.86,1.87
376.56,1.40,-0.45,1.42,-0.44,0.44,0.42,0.53,1.84,1.86,1.85
380.33,1.33,-0.52,1.35,-0.50,0.50,0.49,0.62,1.83,1.85,1.85
384.13,1.27,-0.57,1.28,-0.56,0.56,0.56,0.71,1.83,1.84,1.84
387.97,1.21,-0.62,1.22,-0.61,0.61,0.63,0.80,1.82,1.83,1.83
391.85,1.15,-0.67,1.16,-0.66,0.66,0.69,0.90,1.81,1.83,1.82
395.77,1.10,-0.72,1.11,-0.71,0.71,0.76,0.99,1.81,1.82,1.83
399.73,1.05,-0.76,1.06,-0.75,0.75,0.82,1.08,1.81,1.81,1.81
403.72,1.00,-0.80,1.01,-0.80,0.80,0.89,1.17,1.80,1.81,1.80
407.76,0.95,-0.84,0.95,-0.85,0.85,0.95,1.26,1.80,1.80,1.79
411.84,0.90,-0.90,0.90,-0.90,0.90,1.01,1.34,1.80,1.79,1.80
415.96,0.85,-0.94,0.84,-0.95,0.95,1.06,1.43,1.80,1.79,1.79
420.12,0.81,-0.98,0.79,-1.00,1.00,1.12,1.52,1.81,1.79,1.79
424.32,0.76,-1.02,0.73,-1.05,1.05,1.17,1.60,1.82,1.78,1.79
428.56,0.70,-1.07,0.67,-1.11,1.11,1.22,1.68,1.81,1.78,1.78
432.85,0.63,-1.14,0.61,-1.17,1.17,1.27,1.77,1.80,1.78,1.77
437.18,0.55,-1.22,0.55,-1.22,1.22,1.32,1.84,1.78,1.78,1.77
441.55,0.48,-1.30,0.49,-1.28,1.28,1.36,1.92,1.76,1.78,1.78
445.96,0.41,-1.37,0.44,-1.34,1.34,1.41,1.99,1.75,1.78,1.78
450.42,0.34,-1.43,0.38,-1.40,1.40,1.45,2.07,1.74,1.78,1.77
454.93,0.30,-1.48,0.32,-1.46,1.46,1.49,2.13,1.76,1.78,1.78
459.48,0.26,-1.52,0.27,-1.51,1.51,1.52,2.20,1.77,1.78,1.78
464.07,0.22,-1.56,0.23,-1.56,1.56,1.56,2.26,1.78,1.79,1.79
468.71,0.18,-1.61,0.18,-1.61,1.61,1.59,2.32,1.79,1.79,1.80
473.40,0.13,-1.66,0.14,-1.66,1.66,1.62,2.37,1.79,1.80,1.80
478.13,0.10,-1.70,0.10,-1.70,1.70,1.65,2.42,1.80,1.80,1.80
482.91,0.07,-1.73,0.07,-1.74,1.74,1.68,2.46,1.81,1.81,1.80
487.74,0.03,-1.78,0.03,-1.78,1.78,1.71,2.50,1.81,1.81,1.81
492.62,-0.01,-1.83,0.00,-1.82,1.82,1.74,2.53,1.81,1.82,1.82
497.55,-0.03,-1.85,-0.03,-1.86,1.86,1.77,2.56,1.83,1.82,1.82
502.52,-0.05,-1.88,-0.07,-1.90,1.90,1.81,2.59,1.85,1.83,1.83
507.55,-0.09,-1.92,-0.11,-1.94,1.94,1.84,2.61,1.85,1.83,1.83
512.62,-0.13,-1.96,-0.14,-1.98,1.98,1.87,2.62,1.85,1.83,1.83
517.75,-0.18,-2.02,-0.18,-2.02,2.02,1.91,2.63,1.84,1.84,1.84
522.93,-0.23,-2.07,-0.22,-2.06,2.06,1.94,2.64,1.83,1.84,1.84
528.16,-0.27,-2.11,-0.26,-2.10,2.10,1.98,2.64,1.83,1.84,1.84
533.44,-0.31,-2.15,-0.30,-2.14,2.14,2.02,2.64,1.83,1.84,1.84
538.77,-0.36,-2.20,-0.34,-2.18,2.18,2.07,2.63,1.82,1.84,1.84
544.16,-0.40,-2.23,-0.39,-2.22,2.22,2.11,2.62,1.82,1.83,1.84
549.60,-0.44,-2.27,-0.43,-2.26,2.26,2.16,2.61,1.83,1.83,1.84
555.10,-0.47,-2.29,-0.48,-2.31,2.31,2.22,2.60,1.84,1.83,1.83
560.65,-0.51,-2.33,-0.52,-2.35,2.35,2.27,2.58,1.84,1.83,1.83
