frequency,raw,error,smoothed,error_smoothed,equalization,parametric_eq,fixed_band_eq,equalized_raw,equalized_smoothed,target
20.00,-13.57,-15.67,-13.57,-15.68,15.68,14.33,6.07,2.11,2.11,2.10
20.20,-13.45,-15.60,-13.45,-15.60,15.61,14.45,6.21,2.16,2.16,2.15
20.40,-13.33,-15.53,-13.33,-15.53,15.53,14.57,6.36,2.20,2.20,2.20
20.61,-13.21,-15.45,-13.21,-15.45,15.45,14.68,6.51,2.24,2.24,2.23
20.81,-13.09,-15.37,-13.09,-15.37,15.37,14.77,6.67,2.28,2.28,2.28
21.02,-12.97,-15.29,-12.97,-15.29,15.28,14.86,6.83,2.31,2.31,2.32
21.23,-12.86,-15.20,-12.86,-15.21,15.20,14.93,6.99,2.34,2.34,2.34
21.44,-12.75,-15.11,-12.75,-15.11,15.11,14.99,7.16,2.36,2.36,2.36
21.66,-12.64,-15.03,-12.64,-15.02,15.02,15.03,7.33,2.38,2.38,2.38
21.87,-12.52,-14.91,-12.52,-14.92,14.92,15.06,7.51,2.40,2.39,2.39
22.09,-12.42,-14.83,-12.42,-14.83,14.82,15.08,7.69,2.40,2.40,2.41
22.31,-12.32,-14.74,-12.32,-14.74,14.73,15.08,7.87,2.41,2.41,2.42
22.54,-12.23,-14.66,-12.22,-14.64,14.65,15.07,8.06,2.42,2.44,2.42
22.76,-12.13,-14.55,-12.13,-14.55,14.59,15.05,8.26,2.46,2.47,2.42
22.99,-12.03,-14.44,-12.05,-14.47,14.54,15.01,8.46,2.51,2.49,2.41
23.22,-12.01,-14.42,-12.01,-14.42,14.49,14.96,8.67,2.48,2.48,2.41
23.45,-11.99,-14.40,-12.00,-14.41,14.42,14.90,8.88,2.43,2.42,2.41
23.69,-11.97,-14.39,-11.99,-14.41,14.33,14.82,9.09,2.36,2.34,2.42
23.92,-11.96,-14.38,-11.92,-14.34,14.22,14.74,9.31,2.27,2.31,2.42
24.16,-11.80,-14.22,-11.78,-14.21,14.10,14.64,9.54,2.30,2.31,2.42
24.40,-11.57,-14.00,-11.58,-14.01,13.96,14.54,9.77,2.39,2.38,2.43
24.65,-11.34,-13.77,-11.34,-13.76,13.80,14.43,10.01,2.46,2.46,2.42
24.89,-11.12,-13.54,-11.14,-13.56,13.64,14.31,10.25,2.52,2.50,2.42
25.14,-10.97,-13.39,-10.98,-13.41,13.49,14.19,10.49,2.52,2.50,2.42
25.39,-10.89,-13.32,-10.87,-13.30,13.36,14.06,10.74,2.47,2.49,2.43
25.65,-10.80,-13.24,-10.79,-13.22,13.27,13.93,11.00,2.47,2.48,2.43
25.91,-10.72,-13.15,-10.73,-13.16,13.21,13.79,11.25,2.49,2.48,2.42
26.16,-10.69,-13.11,-10.70,-13.12,13.16,13.65,11.52,2.47,2.47,2.42
26.43,-10.70,-13.12,-10.71,-13.13,13.11,13.51,11.78,2.41,2.40,2.42
26.69,-10.70,-13.12,-10.71,-13.14,13.03,13.37,12.05,2.33,2.32,2.42
26.96,-10.71,-13.13,-10.66,-13.08,12.93,13.22,12.31,2.22,2.28,2.42
27.23,-10.52,-12.95,-10.51,-12.94,12.82,13.08,12.58,2.30,2.31,2.42
27.50,-10.29,-12.72,-10.30,-12.72,12.70,12.93,12.84,2.41,2.41,2.42
27.77,-10.07,-12.48,-10.07,-12.49,12.58,12.79,13.10,2.52,2.51,2.41
28.05,-9.88,-12.29,-9.92,-12.33,12.47,12.64,13.36,2.59,2.54,2.41
28.33,-9.85,-12.25,-9.84,-12.25,12.36,12.50,13.60,2.51,2.52,2.40
28.62,-9.83,-12.23,-9.82,-12.22,12.27,12.36,13.84,2.44,2.45,2.40
28.90,-9.81,-12.22,-9.80,-12.21,12.20,12.22,14.06,2.39,2.39,2.41
29.19,-9.77,-12.17,-9.77,-12.18,12.14,12.08,14.27,2.37,2.37,2.40
29.48,-9.73,-12.14,-9.74,-12.15,12.09,11.95,14.46,2.36,2.35,2.41
29.78,-9.68,-12.09,-9.68,-12.09,12.02,11.81,14.62,2.34,2.34,2.40
30.08,-9.61,-12.03,-9.59,-12.00,11.94,11.68,14.76,2.33,2.35,2.41
30.38,-9.45,-11.86,-9.45,-11.86,11.84,11.56,14.88,2.39,2.39,2.40
30.68,-9.29,-11.69,-9.30,-11.71,11.73,11.43,14.96,2.44,2.43,2.40
30.99,-9.14,-11.55,-9.16,-11.56,11.61,11.31,15.01,2.46,2.45,2.40
31.30,-9.05,-11.45,-9.05,-11.45,11.49,11.19,15.03,2.44,2.44,2.39
31.61,-8.96,-11.35,-8.95,-11.35,11.37,11.08,15.02,2.41,2.42,2.39
31.93,-8.87,-11.27,-8.87,-11.26,11.27,10.96,14.98,2.39,2.39,2.39
32.24,-8.79,-11.17,-8.79,-11.18,11.17,10.85,14.91,2.38,2.38,2.38
32.57,-8.71,-11.10,-8.71,-11.09,11.09,10.75,14.81,2.37,2.38,2.38
32.89,-8.63,-11.01,-8.63,-11.01,11.01,10.65,14.68,2.38,2.38,2.38
33.22,-8.55,-10.92,-8.55,-10.93,10.93,10.55,14.53,2.38,2.38,2.37
33.55,-8.47,-10.84,-8.47,-10.84,10.85,10.45,14.37,2.38,2.38,2.37
33.89,-8.39,-10.75,-8.39,-10.76,10.75,10.36,14.18,2.36,2.36,2.36
34.23,-8.31,-10.67,-8.31,-10.68,10.64,10.27,13.98,2.33,2.33,2.36
34.57,-8.23,-10.58,-8.23,-10.59,10.54,10.19,13.77,2.31,2.30,2.35
34.92,-8.15,-10.51,-8.14,-10.49,10.45,10.11,13.56,2.30,2.31,2.35
35.27,-8.02,-10.37,-8.00,-10.35,10.37,10.03,13.33,2.35,2.37,2.34
35.62,-7.88,-10.23,-7.88,-10.22,10.32,9.95,13.11,2.44,2.44,2.34
35.97,-7.74,-10.09,-7.80,-10.14,10.27,9.88,12.88,2.53,2.47,2.34
36.33,-7.80,-10.15,-7.81,-10.15,10.22,9.82,12.65,2.42,2.41,2.34
36.70,-7.88,-10.21,-7.86,-10.20,10.17,9.75,12.42,2.29,2.31,2.33
37.06,-7.93,-10.26,-7.89,-10.23,10.10,9.69,12.19,2.17,2.22,2.33
37.43,-7.82,-10.16,-7.83,-10.17,10.03,9.64,11.97,2.21,2.20,2.34
37.81,-7.71,-10.05,-7.71,-10.05,9.96,9.58,11.75,2.25,2.25,2.34
38.19,-7.55,-9.89,-7.53,-9.87,9.88,9.53,11.53,2.33,2.36,2.33
38.57,-7.36,-9.70,-7.35,-9.70,9.79,9.48,11.32,2.43,2.44,2.34
38.95,-7.16,-9.51,-7.22,-9.57,9.68,9.44,11.12,2.52,2.46,2.35
39.34,-7.15,-9.49,-7.16,-9.51,9.57,9.40,10.92,2.42,2.41,2.34
39.74,-7.17,-9.51,-7.14,-9.49,9.47,9.36,10.72,2.30,2.33,2.34
40.14,-7.14,-9.48,-7.11,-9.45,9.38,9.32,10.54,2.24,2.28,2.34
40.54,-7.02,-9.37,-7.02,-9.37,9.31,9.29,10.35,2.29,2.29,2.34
40.94,-6.90,-9.23,-6.92,-9.26,9.26,9.26,10.18,2.36,2.33,2.33
41.35,-6.84,-9.17,-6.84,-9.18,9.21,9.23,10.01,2.37,2.36,2.33
41.76,-6.80,-9.12,-6.79,-9.12,9.16,9.20,9.84,2.36,2.36,2.32
42.18,-6.76,-9.08,-6.75,-9.07,9.09,9.18,9.69,2.33,2.35,2.32
42.60,-6.70,-9.01,-6.70,-9.02,9.02,9.15,9.54,2.32,2.32,2.31
43.03,-6.65,-8.95,-6.68,-8.99,8.96,9.13,9.39,2.31,2.28,2.30
43.46,-6.66,-8.95,-6.67,-8.96,8.91,9.11,9.25,2.25,2.24,2.29
43.90,-6.67,-8.94,-6.61,-8.89,8.86,9.08,9.12,2.19,2.25,2.27
44.33,-6.55,-8.80,-6.52,-8.78,8.81,9.06,8.99,2.26,2.29,2.25
44.78,-6.38,-8.62,-6.44,-8.68,8.74,9.04,8.87,2.36,2.30,2.23
45.23,-6.36,-8.58,-6.42,-8.64,8.66,9.02,8.75,2.30,2.24,2.22
45.68,-6.47,-8.68,-6.43,-8.64,8.58,8.99,8.64,2.11,2.15,2.21
46.13,-6.48,-8.67,-6.39,-8.59,8.51,8.97,8.54,2.03,2.12,2.19
46.60,-6.26,-8.46,-6.28,-8.47,8.43,8.94,8.44,2.17,2.16,2.19
47.06,-6.06,-8.23,-6.11,-8.29,8.36,8.91,8.34,2.30,2.25,2.17
47.53,-6.02,-8.18,-6.00,-8.17,8.28,8.88,8.25,2.26,2.28,2.16
48.01,-5.97,-8.13,-6.03,-8.18,8.20,8.84,8.17,2.23,2.17,2.16
48.49,-6.06,-8.20,-6.07,-8.22,8.13,8.80,8.09,2.07,2.05,2.14
48.97,-6.15,-8.27,-6.00,-8.12,8.06,8.76,8.01,1.91,2.06,2.12
49.46,-5.90,-8.00,-5.88,-7.98,7.99,8.72,7.94,2.09,2.11,2.10
49.96,-5.61,-7.70,-5.80,-7.89,7.93,8.66,7.87,2.32,2.14,2.08
50.46,-5.76,-7.83,-5.77,-7.84,7.88,8.61,7.80,2.12,2.12,2.07
50.96,-5.94,-8.00,-5.80,-7.86,7.84,8.55,7.74,1.90,2.04,2.06
51.47,-5.82,-7.86,-5.81,-7.86,7.81,8.48,7.68,1.99,2.00,2.04
51.99,-5.67,-7.71,-5.73,-7.77,7.80,8.41,7.63,2.13,2.07,2.03
52.51,-5.67,-7.69,-5.67,-7.69,7.81,8.33,7.57,2.14,2.15,2.02
53.03,-5.68,-7.70,-5.72,-7.74,7.81,8.25,7.52,2.13,2.09,2.02
53.56,-5.83,-7.83,-5.82,-7.83,7.80,8.17,7.47,1.97,1.97,2.00
54.10,-5.94,-7.93,-5.89,-7.88,7.76,8.07,7.42,1.82,1.87,1.99
54.64,-5.88,-7.85,-5.88,-7.86,7.72,7.98,7.38,1.84,1.84,1.97
55.18,-5.78,-7.75,-5.77,-7.74,7.68,7.88,7.33,1.90,1.91,1.97
55.74,-5.60,-7.56,-5.61,-7.57,7.62,7.77,7.28,2.02,2.01,1.95
56.29,-5.47,-7.41,-5.48,-7.42,7.53,7.66,7.23,2.06,2.05,1.94
56.86,-5.38,-7.32,-5.45,-7.37,7.42,7.55,7.19,2.04,1.98,1.93
57.42,-5.43,-7.34,-5.44,-7.35,7.32,7.43,7.14,1.89,1.88,1.90
58.00,-5.52,-7.41,-5.38,-7.27,7.22,7.31,7.08,1.71,1.85,1.89
58.58,-5.25,-7.14,-5.27,-7.16,7.15,7.19,7.03,1.90,1.88,1.88
59.16,-5.07,-6.93,-5.15,-7.02,7.09,7.07,6.97,2.02,1.94,1.86
59.76,-5.09,-6.93,-5.12,-6.96,7.02,6.94,6.92,1.93,1.91,1.84
60.35,-5.17,-6.97,-5.17,-6.97,6.95,6.81,6.85,1.78,1.79,1.80
60.96,-5.28,-7.04,-5.16,-6.93,6.87,6.69,6.79,1.59,1.71,1.76
61.57,-5.09,-6.82,-5.13,-6.85,6.79,6.56,6.72,1.69,1.66,1.72
62.18,-4.96,-6.64,-5.06,-6.74,6.71,6.43,6.65,1.75,1.65,1.68
62.80,-5.04,-6.67,-4.95,-6.59,6.63,6.30,6.57,1.59,1.68,1.63
63.43,-4.94,-6.53,-4.91,-6.51,6.55,6.16,6.49,1.61,1.63,1.59
64.07,-4.78,-6.33,-4.90,-6.45,6.45,6.03,6.40,1.67,1.55,1.54
64.71,-4.90,-6.40,-4.82,-6.33,6.36,5.91,6.32,1.46,1.53,1.50
65.35,-4.85,-6.31,-4.80,-6.26,6.26,5.78,6.22,1.41,1.46,1.46
66.01,-4.67,-6.09,-4.80,-6.21,6.16,5.65,6.13,1.49,1.36,1.41
66.67,-4.78,-6.14,-4.70,-6.07,6.06,5.52,6.03,1.28,1.36,1.36
67.33,-4.71,-6.02,-4.65,-5.97,5.95,5.40,5.93,1.24,1.30,1.31
68.01,-4.48,-5.76,-4.63,-5.90,5.84,5.27,5.82,1.36,1.21,1.27
68.69,-4.60,-5.82,-4.52,-5.74,5.74,5.15,5.71,1.14,1.22,1.22
69.37,-4.51,-5.68,-4.43,-5.60,5.65,5.03,5.60,1.14,1.22,1.17
70.07,-4.27,-5.40,-4.39,-5.51,5.56,4.91,5.49,1.29,1.17,1.12
70.77,-4.34,-5.41,-4.35,-5.42,5.48,4.80,5.38,1.14,1.13,1.07
71.48,-4.42,-5.44,-4.38,-5.40,5.43,4.68,5.26,1.01,1.04,1.02
72.19,-4.47,-5.42,-4.46,-5.41,5.38,4.57,5.15,0.92,0.93,0.95
72.91,-4.47,-5.36,-4.47,-5.37,5.35,4.46,5.03,0.88,0.88,0.89
73.64,-4.47,-5.31,-4.47,-5.31,5.32,4.35,4.92,0.85,0.85,0.84
74.38,-4.47,-5.25,-4.47,-5.25,5.28,4.24,4.80,0.81,0.81,0.78
75.12,-4.48,-5.20,-4.51,-5.24,5.20,4.14,4.68,0.72,0.69,0.72
75.87,-4.52,-5.18,-4.55,-5.22,5.12,4.04,4.57,0.60,0.57,0.66
76.63,-4.59,-5.20,-4.47,-5.09,5.02,3.94,4.45,0.43,0.55,0.61
77.40,-4.40,-4.96,-4.39,-4.95,4.92,3.84,4.34,0.52,0.53,0.56
78.17,-4.09,-4.60,-4.25,-4.76,4.83,3.74,4.23,0.73,0.58,0.50
78.95,-4.25,-4.71,-4.12,-4.58,4.73,3.65,4.11,0.48,0.61,0.46
79.74,-4.06,-4.47,-4.11,-4.53,4.62,3.55,4.00,0.56,0.51,0.41
80.54,-4.12,-4.48,-4.18,-4.54,4.51,3.46,3.89,0.39,0.33,0.36
81.35,-4.22,-4.53,-4.14,-4.46,4.40,3.38,3.79,0.18,0.25,0.31
82.16,-4.18,-4.44,-4.13,-4.40,4.29,3.29,3.68,0.11,0.16,0.26
82.98,-3.95,-4.17,-4.03,-4.25,4.18,3.20,3.58,0.23,0.15,0.22
83.81,-3.92,-4.09,-3.88,-4.05,4.06,3.12,3.47,0.14,0.18,0.17
84.65,-3.75,-3.87,-3.76,-3.89,3.95,3.04,3.37,0.20,0.19,0.12
85.50,-3.66,-3.75,-3.68,-3.76,3.82,2.96,3.28,0.16,0.14,0.08
86.35,-3.62,-3.65,-3.60,-3.64,3.69,2.88,3.18,0.07,0.08,0.03
87.22,-3.55,-3.54,-3.55,-3.54,3.56,2.80,3.08,0.01,0.01,-0.02
88.09,-3.52,-3.45,-3.51,-3.44,3.43,2.73,2.99,-0.09,-0.07,-0.07
88.97,-3.46,-3.33,-3.51,-3.39,3.33,2.65,2.90,-0.14,-0.18,-0.13
89.86,-3.46,-3.28,-3.46,-3.28,3.22,2.58,2.81,-0.24,-0.24,-0.18
90.76,-3.48,-3.25,-3.34,-3.11,3.10,2.51,2.72,-0.38,-0.23,-0.23
91.66,-3.14,-2.86,-3.24,-2.96,2.98,2.44,2.64,-0.16,-0.26,-0.28
92.58,-3.07,-2.73,-3.18,-2.85,2.86,2.37,2.55,-0.21,-0.31,-0.34
93.51,-3.22,-2.83,-3.13,-2.75,2.76,2.31,2.47,-0.46,-0.37,-0.39
94.44,-3.18,-2.75,-3.10,-2.67,2.66,2.24,2.39,-0.52,-0.44,-0.43
95.39,-2.98,-2.51,-3.01,-2.53,2.57,2.18,2.31,-0.41,-0.44,-0.48
96.34,-2.86,-2.33,-2.95,-2.43,2.49,2.11,2.23,-0.37,-0.46,-0.53
97.30,-2.95,-2.38,-2.98,-2.40,2.42,2.05,2.16,-0.53,-0.55,-0.58
98.28,-3.13,-2.50,-3.02,-2.40,2.35,1.99,2.08,-0.78,-0.67,-0.63
99.26,-3.04,-2.37,-3.03,-2.36,2.27,1.93,2.01,-0.77,-0.75,-0.67
100.25,-2.90,-2.18,-2.97,-2.26,2.19,1.87,1.94,-0.71,-0.78,-0.72
101.25,-2.90,-2.13,-2.89,-2.12,2.13,1.81,1.87,-0.77,-0.76,-0.77
102.27,-2.87,-2.05,-2.84,-2.03,2.07,1.76,1.80,-0.80,-0.77,-0.82
103.29,-2.81,-1.94,-2.82,-1.95,2.02,1.70,1.74,-0.79,-0.80,-0.87
104.32,-2.77,-1.86,-2.78,-1.87,1.94,1.65,1.67,-0.83,-0.84,-0.91
105.37,-2.79,-1.83,-2.79,-1.83,1.86,1.59,1.61,-0.93,-0.93,-0.96
106.42,-2.82,-1.81,-2.86,-1.86,1.79,1.54,1.54,-1.03,-1.08,-1.01
107.48,-2.92,-1.85,-2.91,-1.85,1.73,1.48,1.48,-1.19,-1.18,-1.07
108.56,-2.97,-1.85,-2.85,-1.73,1.67,1.43,1.42,-1.30,-1.17,-1.12
109.64,-2.72,-1.55,-2.75,-1.58,1.62,1.38,1.36,-1.10,-1.13,-1.17
110.74,-2.56,-1.33,-2.66,-1.45,1.56,1.33,1.31,-1.00,-1.11,-1.23
111.85,-2.68,-1.41,-2.67,-1.40,1.49,1.28,1.25,-1.19,-1.18,-1.27
112.97,-2.78,-1.45,-2.76,-1.44,1.42,1.23,1.19,-1.36,-1.34,-1.33
114.10,-2.88,-1.50,-2.81,-1.44,1.36,1.18,1.14,-1.52,-1.46,-1.38
115.24,-2.76,-1.33,-2.78,-1.35,1.30,1.13,1.09,-1.47,-1.48,-1.43
116.39,-2.68,-1.20,-2.70,-1.23,1.24,1.08,1.04,-1.44,-1.47,-1.48
117.55,-2.63,-1.11,-2.63,-1.11,1.17,1.03,0.98,-1.46,-1.46,-1.52
118.73,-2.62,-1.06,-2.65,-1.09,1.09,0.99,0.94,-1.53,-1.56,-1.56
119.92,-2.62,-1.03,-2.65,-1.06,0.99,0.94,0.89,-1.63,-1.65,-1.59
121.12,-2.70,-1.07,-2.57,-0.94,0.90,0.89,0.84,-1.80,-1.67,-1.63
122.33,-2.43,-0.78,-2.46,-0.80,0.81,0.84,0.79,-1.62,-1.65,-1.66
123.55,-2.26,-0.57,-2.37,-0.68,0.74,0.80,0.75,-1.52,-1.63,-1.69
124.79,-2.34,-0.62,-2.31,-0.60,0.68,0.75,0.70,-1.66,-1.63,-1.72
126.03,-2.38,-0.63,-2.34,-0.60,0.63,0.71,0.66,-1.75,-1.71,-1.75
127.29,-2.37,-0.60,-2.38,-0.60,0.59,0.66,0.62,-1.78,-1.78,-1.77
128.57,-2.36,-0.55,-2.36,-0.56,0.56,0.61,0.58,-1.80,-1.80,-1.81
129.85,-2.36,-0.52,-2.36,-0.53,0.53,0.57,0.54,-1.83,-1.83,-1.84
131.15,-2.36,-0.49,-2.41,-0.54,0.50,0.52,0.50,-1.86,-1.91,-1.87
132.46,-2.45,-0.55,-2.41,-0.51,0.45,0.48,0.46,-2.00,-1.96,-1.90
133.79,-2.44,-0.51,-2.38,-0.46,0.39,0.43,0.42,-2.05,-1.99,-1.93
135.12,-2.24,-0.28,-2.32,-0.37,0.32,0.38,0.38,-1.92,-1.99,-1.96
136.48,-2.24,-0.26,-2.21,-0.23,0.26,0.34,0.35,-1.98,-1.95,-1.98
137.84,-2.14,-0.12,-2.13,-0.11,0.20,0.29,0.31,-1.94,-1.92,-2.02
139.22,-2.07,-0.02,-2.10,-0.06,0.14,0.25,0.27,-1.93,-1.96,-2.05
140.61,-2.09,-0.01,-2.11,-0.04,0.08,0.20,0.24,-2.01,-2.04,-2.08
142.02,-2.16,-0.06,-2.16,-0.06,0.02,0.15,0.20,-2.14,-2.14,-2.10
143.44,-2.24,-0.11,-2.17,-0.04,-0.03,0.11,0.17,-2.27,-2.20,-2.13
144.87,-2.13,0.04,-2.14,0.02,-0.07,0.06,0.13,-2.20,-2.22,-2.17
146.32,-2.06,0.15,-2.09,0.11,-0.12,0.01,0.10,-2.18,-2.20,-2.21
147.78,-2.03,0.21,-2.03,0.21,-0.17,-0.03,0.06,-2.20,-2.20,-2.24
149.26,-2.03,0.26,-2.02,0.26,-0.23,-0.08,0.03,-2.26,-2.26,-2.29
150.75,-2.03,0.32,-2.03,0.32,-0.31,-0.13,-0.01,-2.34,-2.33,-2.35
152.26,-2.03,0.39,-2.03,0.38,-0.39,-0.18,-0.04,-2.42,-2.42,-2.42
153.78,-2.03,0.46,-2.03,0.45,-0.48,-0.23,-0.08,-2.51,-2.51,-2.49
155.32,-2.03,0.53,-2.03,0.53,-0.56,-0.28,-0.11,-2.59,-2.59,-2.56
156.88,-2.03,0.61,-2.04,0.60,-0.63,-0.33,-0.15,-2.66,-2.66,-2.64
158.44,-2.03,0.69,-2.02,0.69,-0.69,-0.38,-0.19,-2.72,-2.71,-2.72
160.03,-2.03,0.77,-1.99,0.80,-0.75,-0.43,-0.22,-2.78,-2.74,-2.80
161.63,-1.95,0.92,-1.99,0.87,-0.81,-0.48,-0.26,-2.76,-2.80,-2.87
163.24,-1.98,0.95,-2.03,0.90,-0.87,-0.53,-0.30,-2.85,-2.90,-2.93
164.88,-2.12,0.86,-2.07,0.90,-0.93,-0.58,-0.33,-3.05,-3.00,-2.98
166.53,-2.14,0.89,-2.12,0.91,-0.98,-0.63,-0.37,-3.12,-3.10,-3.03
168.19,-2.09,0.98,-2.10,0.96,-1.02,-0.68,-0.41,-3.11,-3.13,-3.07
169.87,-2.05,1.06,-2.04,1.06,-1.06,-0.73,-0.45,-3.11,-3.10,-3.11
171.57,-1.98,1.15,-1.99,1.13,-1.08,-0.78,-0.49,-3.06,-3.08,-3.13
173.29,-1.96,1.18,-1.97,1.17,-1.11,-0.83,-0.53,-3.07,-3.07,-3.14
175.02,-1.97,1.18,-1.96,1.19,-1.14,-0.89,-0.57,-3.11,-3.10,-3.15
176.77,-1.97,1.19,-1.99,1.17,-1.17,-0.94,-0.61,-3.14,-3.16,-3.16
178.54,-2.01,1.16,-2.02,1.14,-1.19,-0.99,-0.66,-3.20,-3.21,-3.17
180.32,-2.05,1.11,-2.00,1.16,-1.21,-1.04,-0.70,-3.26,-3.21,-3.16
182.13,-1.96,1.19,-1.96,1.20,-1.23,-1.09,-0.74,-3.19,-3.19,-3.15
183.95,-1.85,1.31,-1.89,1.26,-1.26,-1.14,-0.79,-3.11,-3.15,-3.16
185.79,-1.84,1.32,-1.84,1.32,-1.29,-1.20,-0.83,-3.13,-3.13,-3.16
187.65,-1.83,1.35,-1.82,1.35,-1.33,-1.25,-0.88,-3.16,-3.15,-3.18
189.52,-1.81,1.38,-1.81,1.37,-1.37,-1.29,-0.93,-3.18,-3.19,-3.19
191.42,-1.80,1.41,-1.80,1.41,-1.41,-1.34,-0.97,-3.21,-3.21,-3.21
193.33,-1.78,1.45,-1.78,1.44,-1.44,-1.39,-1.02,-3.22,-3.22,-3.23
195.27,-1.77,1.48,-1.76,1.48,-1.47,-1.44,-1.07,-3.24,-3.23,-3.25
197.22,-1.75,1.52,-1.75,1.51,-1.49,-1.48,-1.11,-3.24,-3.24,-3.27
199.19,-1.74,1.55,-1.76,1.52,-1.52,-1.52,-1.16,-3.26,-3.29,-3.29
201.18,-1.78,1.53,-1.78,1.53,-1.56,-1.57,-1.21,-3.34,-3.34,-3.31
203.19,-1.81,1.52,-1.77,1.55,-1.60,-1.61,-1.26,-3.41,-3.37,-3.33
205.23,-1.74,1.61,-1.73,1.61,-1.63,-1.64,-1.31,-3.37,-3.37,-3.35
207.28,-1.65,1.71,-1.68,1.68,-1.67,-1.68,-1.36,-3.32,-3.35,-3.36
209.35,-1.63,1.75,-1.63,1.74,-1.70,-1.71,-1.40,-3.33,-3.34,-3.38
211.44,-1.63,1.78,-1.63,1.77,-1.74,-1.74,-1.45,-3.37,-3.36,-3.41
213.56,-1.64,1.78,-1.63,1.78,-1.78,-1.77,-1.50,-3.42,-3.41,-3.42
215.69,-1.64,1.79,-1.64,1.79,-1.81,-1.80,-1.54,-3.45,-3.45,-3.43
217.85,-1.64,1.80,-1.65,1.79,-1.82,-1.82,-1.59,-3.46,-3.47,-3.44
220.03,-1.65,1.80,-1.65,1.81,-1.82,-1.84,-1.63,-3.47,-3.47,-3.45
222.23,-1.65,1.83,-1.62,1.84,-1.81,-1.86,-1.67,-3.46,-3.44,-3.48
224.45,-1.61,1.86,-1.62,1.85,-1.80,-1.87,-1.71,-3.41,-3.42,-3.47
226.70,-1.59,1.88,-1.65,1.82,-1.79,-1.88,-1.75,-3.38,-3.43,-3.47
228.96,-1.73,1.73,-1.68,1.77,-1.77,-1.89,-1.79,-3.50,-3.46,-3.46
231.25,-1.74,1.71,-1.73,1.72,-1.76,-1.90,-1.82,-3.50,-3.48,-3.45
233.57,-1.73,1.71,-1.74,1.69,-1.74,-1.90,-1.85,-3.47,-3.48,-3.44
235.90,-1.72,1.71,-1.72,1.71,-1.72,-1.90,-1.88,-3.44,-3.44,-3.43
238.26,-1.70,1.72,-1.70,1.71,-1.70,-1.89,-1.90,-3.40,-3.40,-3.42
240.64,-1.68,1.71,-1.69,1.70,-1.69,-1.89,-1.93,-3.37,-3.38,-3.39
243.05,-1.67,1.69,-1.67,1.69,-1.69,-1.88,-1.95,-3.36,-3.35,-3.36
245.48,-1.65,1.69,-1.65,1.69,-1.69,-1.87,-1.96,-3.34,-3.33,-3.34
247.93,-1.62,1.69,-1.62,1.68,-1.69,-1.86,-1.97,-3.31,-3.31,-3.31
250.41,-1.60,1.69,-1.60,1.68,-1.68,-1.84,-1.98,-3.28,-3.28,-3.29
252.92,-1.59,1.67,-1.59,1.67,-1.66,-1.82,-1.99,-3.25,-3.25,-3.26
255.45,-1.58,1.66,-1.58,1.66,-1.65,-1.80,-1.99,-3.23,-3.22,-3.24
258.00,-1.57,1.65,-1.57,1.65,-1.63,-1.78,-1.99,-3.20,-3.20,-3.22
260.58,-1.56,1.64,-1.57,1.63,-1.61,-1.76,-1.99,-3.17,-3.18,-3.20
263.19,-1.57,1.60,-1.59,1.58,-1.60,-1.74,-1.98,-3.17,-3.19,-3.17
265.82,-1.60,1.55,-1.59,1.55,-1.59,-1.72,-1.97,-3.19,-3.18,-3.15
268.48,-1.61,1.52,-1.57,1.55,-1.58,-1.69,-1.96,-3.19,-3.15,-3.13
271.16,-1.51,1.59,-1.53,1.57,-1.57,-1.66,-1.94,-3.08,-3.10,-3.10
273.87,-1.47,1.61,-1.49,1.58,-1.56,-1.64,-1.92,-3.03,-3.05,-3.08
276.61,-1.47,1.58,-1.46,1.58,-1.55,-1.61,-1.90,-3.02,-3.01,-3.05
279.38,-1.47,1.55,-1.47,1.55,-1.54,-1.59,-1.88,-3.01,-3.00,-3.02
282.17,-1.47,1.53,-1.47,1.52,-1.53,-1.56,-1.86,-3.00,-3.00,-3.00
284.99,-1.46,1.50,-1.46,1.50,-1.52,-1.53,-1.83,-2.98,-2.98,-2.96
287.84,-1.46,1.48,-1.46,1.48,-1.50,-1.50,-1.80,-2.96,-2.95,-2.94
290.72,-1.45,1.46,-1.45,1.46,-1.47,-1.48,-1.77,-2.92,-2.92,-2.91
293.63,-1.43,1.45,-1.43,1.44,-1.44,-1.45,-1.75,-2.87,-2.87,-2.88
296.57,-1.42,1.43,-1.41,1.44,-1.40,-1.42,-1.72,-2.82,-2.81,-2.85
299.53,-1.39,1.43,-1.41,1.41,-1.37,-1.40,-1.69,-2.76,-2.78,-2.82
302.53,-1.41,1.39,-1.43,1.36,-1.35,-1.37,-1.66,-2.76,-2.77,-2.80
305.55,-1.48,1.28,-1.46,1.30,-1.32,-1.35,-1.62,-2.80,-2.78,-2.76
308.61,-1.48,1.26,-1.48,1.26,-1.30,-1.32,-1.59,-2.78,-2.78,-2.74
311.69,-1.47,1.24,-1.47,1.24,-1.28,-1.30,-1.56,-2.75,-2.75,-2.71
314.81,-1.43,1.26,-1.43,1.26,-1.27,-1.28,-1.53,-2.70,-2.70,-2.69
317.96,-1.38,1.29,-1.39,1.28,-1.26,-1.25,-1.50,-2.64,-2.65,-2.67
321.14,-1.36,1.30,-1.37,1.29,-1.26,-1.23,-1.47,-2.62,-2.62,-2.66
324.35,-1.36,1.28,-1.36,1.28,-1.25,-1.21,-1.45,-2.61,-2.61,-2.64
327.59,-1.37,1.26,-1.36,1.26,-1.25,-1.19,-1.42,-2.62,-2.62,-2.63
330.87,-1.37,1.25,-1.37,1.24,-1.25,-1.17,-1.39,-2.62,-2.62,-2.62
334.18,-1.37,1.23,-1.37,1.23,-1.24,-1.15,-1.36,-2.61,-2.61,-2.60
337.52,-1.37,1.22,-1.37,1.21,-1.22,-1.13,-1.34,-2.59,-2.59,-2.59
340.90,-1.37,1.21,-1.37,1.20,-1.21,-1.12,-1.31,-2.58,-2.58,-2.58
344.30,-1.37,1.20,-1.37,1.20,-1.20,-1.10,-1.29,-2.57,-2.57,-2.57
347.75,-1.37,1.20,-1.37,1.19,-1.20,-1.08,-1.27,-2.57,-2.57,-2.57
351.23,-1.37,1.19,-1.37,1.19,-1.20,-1.07,-1.24,-2.57,-2.57,-2.56
354.74,-1.37,1.20,-1.37,1.19,-1.19,-1.05,-1.22,-2.56,-2.56,-2.57
358.28,-1.37,1.19,-1.36,1.19,-1.18,-1.04,-1.20,-2.55,-2.55,-2.56
361.87,-1.36,1.20,-1.36,1.20,-1.18,-1.03,-1.18,-2.54,-2.53,-2.56
365.49,-1.35,1.20,-1.37,1.18,-1.17,-1.02,-1.17,-2.52,-2.54,-2.55
369.14,-1.38,1.18,-1.39,1.17,-1.16,-1.00,-1.15,-2.54,-2.55,-2.56
372.83,-1.43,1.13,-1.41,1.15,-1.16,-0.99,-1.13,-2.59,-2.57,-2.56
376.56,-1.43,1.14,-1.43,1.13,-1.15,-0.98,-1.12,-2.58,-2.58,-2.57
380.33,-1.42,1.14,-1.43,1.13,-1.15,-0.97,-1.11,-2.57,-2.57,-2.56
384.13,-1.42,1.14,-1.42,1.14,-1.14,-0.96,-1.09,-2.56,-2.56,-2.56
387.97,-1.41,1.16,-1.41,1.15,-1.14,-0.96,-1.08,-2.55,-2.56,-2.57
391.85,-1.41,1.17,-1.41,1.16,-1.15,-0.95,-1.07,-2.56,-2.56,-2.58
395.77,-1.41,1.16,-1.41,1.16,-1.16,-0.94,-1.06,-2.57,-2.57,-2.57
399.73,-1.41,1.17,-1.41,1.17,-1.17,-0.94,-1.05,-2.58,-2.58,-2.58
403.72,-1.41,1.17,-1.41,1.17,-1.18,-0.93,-1.04,-2.59,-2.59,-2.58
407.76,-1.41,1.19,-1.41,1.18,-1.18,-0.93,-1.03,-2.59,-2.59,-2.60
411.84,-1.42,1.18,-1.40,1.19,-1.18,-0.92,-1.03,-2.60,-2.59,-2.60
415.96,-1.38,1.22,-1.40,1.19,-1.18,-0.92,-1.02,-2.56,-2.59,-2.60
420.12,-1.41,1.19,-1.40,1.19,-1.19,-0.91,-1.01,-2.60,-2.59,-2.60
424.32,-1.41,1.19,-1.40,1.19,-1.19,-0.91,-1.01,-2.60,-2.59,-2.60
428.56,-1.40,1.19,-1.40,1.18,-1.19,-0.91,-1.01,-2.59,-2.60,-2.59
432.85,-1.39,1.19,-1.39,1.19,-1.20,-0.91,-1.00,-2.59,-2.58,-2.58
437.18,-1.36,1.21,-1.36,1.19,-1.20,-0.91,-1.00,-2.56,-2.57,-2.57
441.55,-1.33,1.20,-1.33,1.20,-1.21,-0.91,-1.00,-2.54,-2.54,-2.53
