frequency,raw,error,smoothed,error_smoothed,equalization,parametric_eq,fixed_band_eq,equalized_raw,equalized_smoothed,target
20.00,-6.58,-13.98,-6.59,-14.01,14.01,11.98,5.00,7.43,7.42,7.40
20.20,-6.48,-13.92,-6.49,-13.95,13.95,12.14,5.12,7.47,7.45,7.44
20.40,-6.39,-13.87,-6.39,-13.88,13.88,12.30,5.25,7.49,7.48,7.48
20.61,-6.29,-13.80,-6.29,-13.80,13.80,12.45,5.38,7.51,7.51,7.51
20.81,-6.19,-13.74,-6.19,-13.72,13.72,12.60,5.52,7.53,7.54,7.55
21.02,-6.09,-13.68,-6.08,-13.64,13.64,12.73,5.66,7.55,7.56,7.59
21.23,-5.98,-13.59,-5.97,-13.56,13.56,12.86,5.80,7.58,7.59,7.61
21.44,-5.88,-13.50,-5.86,-13.47,13.47,12.97,5.95,7.59,7.61,7.63
21.66,-5.77,-13.42,-5.75,-13.38,13.38,13.07,6.10,7.61,7.63,7.64
21.87,-5.66,-13.31,-5.64,-13.29,13.29,13.15,6.26,7.63,7.65,7.65
22.09,-5.54,-13.21,-5.53,-13.19,13.19,13.22,6.42,7.65,7.66,7.67
22.31,-5.43,-13.11,-5.41,-13.09,13.09,13.28,6.58,7.66,7.68,7.68
22.54,-5.30,-12.99,-5.29,-12.98,12.98,13.31,6.75,7.68,7.69,7.69
22.76,-5.16,-12.86,-5.17,-12.87,12.87,13.33,6.93,7.71,7.70,7.70
22.99,-5.03,-12.73,-5.04,-12.75,12.75,13.34,7.11,7.72,7.71,7.70
23.22,-4.92,-12.63,-4.92,-12.64,12.64,13.32,7.29,7.72,7.72,7.71
23.45,-4.78,-12.50,-4.79,-12.52,12.52,13.29,7.47,7.74,7.73,7.72
23.69,-4.66,-12.39,-4.67,-12.40,12.40,13.24,7.67,7.74,7.74,7.73
23.92,-4.54,-12.28,-4.54,-12.29,12.29,13.18,7.86,7.75,7.75,7.74
24.16,-4.41,-12.17,-4.42,-12.17,12.17,13.10,8.06,7.76,7.75,7.76
24.40,-4.29,-12.06,-4.29,-12.06,12.06,13.00,8.27,7.77,7.76,7.78
24.65,-4.18,-11.96,-4.17,-11.95,11.95,12.89,8.48,7.77,7.77,7.77
24.89,-4.05,-11.83,-4.05,-11.84,11.84,12.77,8.69,7.79,7.78,7.78
25.14,-3.93,-11.72,-3.94,-11.73,11.73,12.64,8.91,7.80,7.79,7.79
25.39,-3.82,-11.62,-3.82,-11.63,11.63,12.50,9.13,7.81,7.80,7.80
25.65,-3.70,-11.52,-3.71,-11.52,11.52,12.34,9.36,7.82,7.81,7.82
25.91,-3.59,-11.41,-3.59,-11.41,11.41,12.19,9.59,7.82,7.82,7.82
26.16,-3.49,-11.32,-3.48,-11.31,11.31,12.02,9.82,7.82,7.83,7.83
26.43,-3.37,-11.21,-3.36,-11.20,11.20,11.85,10.05,7.83,7.84,7.84
26.69,-3.25,-11.10,-3.25,-11.10,11.10,11.67,10.28,7.85,7.85,7.85
26.96,-3.14,-11.01,-3.14,-10.99,10.99,11.49,10.51,7.85,7.86,7.86
27.23,-3.02,-10.89,-3.02,-10.89,10.89,11.31,10.74,7.87,7.87,7.87
27.50,-2.91,-10.79,-2.91,-10.79,10.79,11.12,10.97,7.88,7.88,7.88
27.77,-2.80,-10.68,-2.80,-10.68,10.68,10.93,11.19,7.88,7.88,7.88
28.05,-2.68,-10.58,-2.68,-10.58,10.58,10.75,11.41,7.90,7.89,7.90
28.33,-2.57,-10.47,-2.57,-10.47,10.47,10.56,11.62,7.90,7.90,7.90
28.62,-2.46,-10.37,-2.46,-10.37,10.37,10.37,11.82,7.91,7.91,7.91
28.90,-2.35,-10.26,-2.35,-10.26,10.26,10.18,12.00,7.91,7.92,7.91
29.19,-2.24,-10.15,-2.24,-10.16,10.16,10.00,12.17,7.92,7.92,7.91
29.48,-2.12,-10.06,-2.13,-10.06,10.06,9.81,12.33,7.94,7.93,7.94
29.78,-2.01,-9.95,-2.02,-9.95,9.95,9.63,12.46,7.94,7.94,7.94
30.08,-1.90,-9.85,-1.91,-9.85,9.85,9.44,12.57,7.95,7.94,7.95
30.38,-1.79,-9.74,-1.80,-9.74,9.74,9.26,12.65,7.95,7.95,7.94
30.68,-1.68,-9.64,-1.68,-9.64,9.64,9.09,12.71,7.96,7.95,7.96
30.99,-1.58,-9.54,-1.57,-9.54,9.54,8.91,12.74,7.95,7.96,7.96
31.30,-1.47,-9.44,-1.46,-9.43,9.43,8.74,12.74,7.96,7.97,7.97
31.61,-1.36,-9.33,-1.35,-9.33,9.33,8.57,12.71,7.97,7.98,7.97
31.93,-1.25,-9.23,-1.24,-9.22,9.22,8.40,12.65,7.97,7.98,7.98
32.24,-1.13,-9.11,-1.13,-9.12,9.12,8.23,12.57,7.99,7.99,7.98
32.57,-1.01,-9.01,-1.02,-9.01,9.01,8.07,12.46,8.00,8.00,8.00
32.89,-0.90,-8.90,-0.90,-8.91,8.91,7.91,12.33,8.01,8.00,8.00
33.22,-0.79,-8.80,-0.79,-8.80,8.80,7.75,12.17,8.01,8.01,8.01
33.55,-0.67,-8.69,-0.68,-8.69,8.69,7.59,12.00,8.03,8.02,8.02
33.89,-0.56,-8.58,-0.57,-8.59,8.59,7.44,11.81,8.03,8.02,8.02
34.23,-0.45,-8.48,-0.45,-8.48,8.48,7.29,11.61,8.03,8.03,8.03
34.57,-0.34,-8.38,-0.34,-8.37,8.37,7.14,11.39,8.03,8.03,8.04
34.92,-0.23,-8.26,-0.23,-8.27,8.27,7.00,11.17,8.04,8.04,8.03
35.27,-0.12,-8.16,-0.12,-8.16,8.16,6.85,10.94,8.04,8.04,8.04
35.62,-0.01,-8.06,-0.01,-8.05,8.05,6.71,10.70,8.04,8.04,8.05
35.97,0.10,-7.94,0.11,-7.94,7.94,6.58,10.46,8.04,8.05,8.04
36.33,0.21,-7.84,0.22,-7.83,7.83,6.44,10.22,8.04,8.05,8.05
36.70,0.33,-7.71,0.33,-7.72,7.72,6.31,9.98,8.04,8.05,8.04
37.06,0.44,-7.61,0.44,-7.60,7.60,6.18,9.74,8.04,8.05,8.05
37.43,0.55,-7.50,0.56,-7.49,7.49,6.05,9.50,8.04,8.05,8.05
37.81,0.67,-7.38,0.67,-7.37,7.37,5.93,9.26,8.04,8.04,8.05
38.19,0.78,-7.26,0.78,-7.26,7.26,5.80,9.03,8.04,8.04,8.04
38.57,0.89,-7.15,0.89,-7.15,7.15,5.68,8.80,8.03,8.04,8.04
38.95,1.02,-7.01,1.00,-7.03,7.03,5.56,8.57,8.05,8.03,8.03
39.34,1.12,-6.91,1.11,-6.92,6.92,5.45,8.34,8.04,8.03,8.03
39.74,1.22,-6.80,1.22,-6.81,6.81,5.33,8.12,8.03,8.03,8.02
40.14,1.33,-6.70,1.33,-6.70,6.70,5.22,7.91,8.03,8.02,8.02
40.54,1.43,-6.59,1.43,-6.59,6.59,5.11,7.70,8.02,8.02,8.02
40.94,1.53,-6.48,1.53,-6.48,6.48,5.00,7.49,8.01,8.02,8.01
41.35,1.63,-6.37,1.64,-6.38,6.38,4.89,7.28,8.01,8.01,8.00
41.76,1.73,-6.28,1.74,-6.27,6.27,4.79,7.08,8.00,8.01,8.01
42.18,1.83,-6.18,1.84,-6.17,6.17,4.69,6.89,8.00,8.00,8.01
42.60,1.93,-6.07,1.93,-6.06,6.06,4.58,6.70,8.00,8.00,8.00
43.03,2.03,-5.97,2.03,-5.96,5.96,4.49,6.51,7.99,7.99,8.00
43.46,2.13,-5.87,2.12,-5.86,5.86,4.39,6.33,8.00,7.99,8.00
43.90,2.23,-5.75,2.22,-5.77,5.77,4.29,6.16,7.99,7.98,7.98
44.33,2.31,-5.67,2.31,-5.67,5.67,4.20,5.98,7.98,7.98,7.98
44.78,2.40,-5.57,2.40,-5.57,5.57,4.11,5.81,7.97,7.98,7.97
45.23,2.49,-5.47,2.49,-5.48,5.48,4.01,5.65,7.97,7.97,7.96
45.68,2.58,-5.38,2.58,-5.38,5.38,3.93,5.49,7.96,7.96,7.96
46.13,2.67,-5.28,2.67,-5.29,5.29,3.84,5.33,7.96,7.96,7.95
46.60,2.75,-5.21,2.75,-5.20,5.20,3.75,5.18,7.95,7.95,7.96
47.06,2.84,-5.11,2.83,-5.11,5.11,3.67,5.02,7.95,7.94,7.95
47.53,2.92,-5.01,2.91,-5.02,5.02,3.58,4.88,7.94,7.93,7.93
48.01,3.00,-4.94,2.99,-4.93,4.93,3.50,4.73,7.93,7.92,7.94
48.49,3.08,-4.84,3.07,-4.84,4.84,3.42,4.59,7.92,7.91,7.92
48.97,3.15,-4.75,3.15,-4.75,4.75,3.34,4.46,7.90,7.90,7.90
49.46,3.23,-4.65,3.23,-4.65,4.65,3.26,4.32,7.88,7.88,7.88
49.96,3.30,-4.56,3.31,-4.56,4.56,3.18,4.19,7.86,7.87,7.86
50.46,3.37,-4.49,3.38,-4.47,4.47,3.11,4.06,7.84,7.85,7.85
50.96,3.45,-4.39,3.46,-4.38,4.38,3.03,3.94,7.83,7.84,7.84
51.47,3.53,-4.27,3.53,-4.28,4.28,2.96,3.82,7.81,7.82,7.80
51.99,3.61,-4.18,3.61,-4.19,4.19,2.89,3.70,7.80,7.80,7.79
52.51,3.68,-4.10,3.68,-4.09,4.09,2.82,3.58,7.77,7.78,7.78
53.03,3.76,-4.00,3.76,-4.00,4.00,2.75,3.47,7.76,7.75,7.76
53.56,3.84,-3.90,3.83,-3.90,3.90,2.68,3.35,7.74,7.73,7.74
54.10,3.92,-3.79,3.90,-3.81,3.81,2.61,3.24,7.73,7.71,7.71
54.64,3.98,-3.71,3.97,-3.71,3.71,2.54,3.14,7.69,7.69,7.69
55.18,4.04,-3.62,4.05,-3.62,3.62,2.48,3.03,7.66,7.67,7.66
55.74,4.12,-3.51,4.12,-3.52,3.52,2.41,2.93,7.64,7.64,7.63
56.29,4.19,-3.43,4.19,-3.43,3.43,2.35,2.83,7.62,7.62,7.62
56.86,4.26,-3.33,4.26,-3.33,3.33,2.28,2.73,7.59,7.59,7.59
57.42,4.32,-3.24,4.33,-3.24,3.24,2.22,2.64,7.56,7.57,7.56
58.00,4.39,-3.14,4.40,-3.14,3.14,2.16,2.54,7.53,7.54,7.53
58.58,4.47,-3.04,4.47,-3.03,3.03,2.10,2.45,7.50,7.51,7.51
59.16,4.54,-2.94,4.55,-2.93,2.93,2.04,2.36,7.47,7.48,7.49
59.76,4.62,-2.84,4.62,-2.83,2.83,1.98,2.27,7.45,7.44,7.46
60.35,4.69,-2.73,4.69,-2.72,2.72,1.92,2.19,7.41,7.41,7.42
60.96,4.76,-2.63,4.76,-2.61,2.61,1.86,2.11,7.37,7.38,7.39
61.57,4.83,-2.51,4.83,-2.51,2.51,1.81,2.02,7.34,7.34,7.34
62.18,4.90,-2.39,4.90,-2.40,2.40,1.75,1.94,7.30,7.30,7.29
62.80,4.97,-2.29,4.97,-2.29,2.29,1.69,1.86,7.26,7.26,7.26
63.43,5.05,-2.16,5.04,-2.18,2.18,1.64,1.79,7.23,7.22,7.21
64.07,5.12,-2.05,5.11,-2.07,2.07,1.58,1.71,7.19,7.18,7.17
64.71,5.18,-1.95,5.17,-1.96,1.96,1.53,1.64,7.14,7.13,7.13
65.35,5.23,-1.86,5.23,-1.86,1.86,1.48,1.57,7.09,7.09,7.09
66.01,5.29,-1.75,5.29,-1.75,1.75,1.42,1.50,7.04,7.05,7.04
66.67,5.35,-1.66,5.35,-1.65,1.65,1.37,1.43,7.00,7.00,7.01
67.33,5.41,-1.55,5.41,-1.55,1.55,1.32,1.36,6.96,6.96,6.96
68.01,5.46,-1.46,5.46,-1.45,1.45,1.27,1.29,6.91,6.91,6.92
68.69,5.51,-1.36,5.51,-1.36,1.36,1.22,1.22,6.87,6.87,6.87
69.37,5.57,-1.25,5.56,-1.26,1.26,1.17,1.16,6.83,6.82,6.82
70.07,5.61,-1.16,5.60,-1.17,1.17,1.12,1.09,6.78,6.78,6.77
70.77,5.65,-1.08,5.65,-1.08,1.08,1.07,1.03,6.73,6.73,6.73
71.48,5.68,-1.01,5.70,-0.99,0.99,1.02,0.97,6.67,6.69,6.69
72.19,5.73,-0.91,5.74,-0.90,0.90,0.97,0.91,6.63,6.64,6.64
72.91,5.78,-0.81,5.79,-0.81,0.81,0.92,0.84,6.59,6.60,6.59
73.64,5.82,-0.73,5.83,-0.73,0.73,0.87,0.78,6.55,6.56,6.55
74.38,5.87,-0.65,5.87,-0.65,0.65,0.82,0.72,6.52,6.51,6.52
75.12,5.90,-0.57,5.90,-0.57,0.57,0.78,0.66,6.47,6.47,6.47
75.87,5.94,-0.49,5.94,-0.50,0.50,0.73,0.60,6.44,6.43,6.43
76.63,5.99,-0.40,5.97,-0.42,0.42,0.68,0.54,6.41,6.39,6.39
77.40,6.03,-0.33,6.01,-0.35,0.35,0.63,0.48,6.38,6.36,6.36
78.17,6.06,-0.26,6.04,-0.28,0.28,0.59,0.42,6.34,6.32,6.32
78.95,6.08,-0.20,6.07,-0.21,0.21,0.54,0.36,6.29,6.28,6.28
79.74,6.09,-0.16,6.10,-0.15,0.15,0.49,0.30,6.24,6.25,6.25
80.54,6.11,-0.11,6.13,-0.08,0.08,0.45,0.24,6.19,6.22,6.22
81.35,6.14,-0.05,6.16,-0.02,0.02,0.40,0.18,6.16,6.18,6.19
82.16,6.17,0.02,6.19,0.04,-0.04,0.35,0.12,6.13,6.15,6.15
82.98,6.21,0.08,6.22,0.09,-0.09,0.31,0.06,6.12,6.12,6.13
83.81,6.25,0.16,6.25,0.15,-0.15,0.26,-0.00,6.10,6.09,6.09
84.65,6.28,0.23,6.27,0.21,-0.21,0.22,-0.06,6.07,6.06,6.05
85.50,6.31,0.28,6.30,0.27,-0.27,0.17,-0.13,6.04,6.03,6.03
86.35,6.34,0.34,6.33,0.33,-0.33,0.12,-0.19,6.01,6.00,6.00
87.22,6.36,0.39,6.36,0.39,-0.39,0.08,-0.25,5.97,5.98,5.97
88.09,6.38,0.44,6.39,0.44,-0.44,0.03,-0.32,5.94,5.95,5.94
88.97,6.41,0.49,6.42,0.50,-0.50,-0.02,-0.38,5.91,5.92,5.92
89.86,6.44,0.54,6.45,0.55,-0.55,-0.06,-0.45,5.89,5.89,5.90
90.76,6.47,0.61,6.47,0.60,-0.60,-0.11,-0.51,5.87,5.87,5.86
91.66,6.50,0.66,6.49,0.65,-0.65,-0.15,-0.58,5.85,5.84,5.84
92.58,6.52,0.72,6.50,0.70,-0.70,-0.20,-0.64,5.82,5.81,5.80
93.51,6.53,0.74,6.52,0.74,-0.74,-0.25,-0.71,5.79,5.78,5.79
94.44,6.55,0.80,6.53,0.78,-0.78,-0.29,-0.78,5.77,5.75,5.75
95.39,6.55,0.82,6.54,0.82,-0.82,-0.34,-0.85,5.73,5.72,5.73
96.34,6.55,0.87,6.54,0.86,-0.86,-0.39,-0.92,5.69,5.68,5.68
97.30,6.55,0.90,6.54,0.89,-0.89,-0.43,-0.99,5.66,5.65,5.65
98.28,6.54,0.93,6.54,0.93,-0.93,-0.48,-1.06,5.61,5.61,5.61
99.26,6.53,0.96,6.54,0.97,-0.97,-0.53,-1.13,5.56,5.58,5.57
100.25,6.53,0.99,6.54,1.01,-1.01,-0.58,-1.20,5.52,5.54,5.54
101.25,6.53,1.03,6.54,1.04,-1.04,-0.63,-1.27,5.49,5.50,5.50
102.27,6.53,1.08,6.54,1.09,-1.09,-0.67,-1.34,5.44,5.45,5.45
103.29,6.53,1.13,6.54,1.13,-1.13,-0.72,-1.41,5.40,5.41,5.40
104.32,6.53,1.16,6.54,1.18,-1.18,-0.77,-1.48,5.35,5.36,5.37
105.37,6.53,1.21,6.54,1.23,-1.23,-0.82,-1.55,5.30,5.31,5.32
106.42,6.53,1.27,6.54,1.29,-1.29,-0.87,-1.61,5.24,5.26,5.26
107.48,6.54,1.33,6.55,1.34,-1.34,-0.92,-1.68,5.20,5.20,5.21
108.56,6.55,1.41,6.55,1.40,-1.40,-0.97,-1.75,5.15,5.14,5.14
109.64,6.55,1.46,6.54,1.46,-1.46,-1.02,-1.81,5.09,5.08,5.09
110.74,6.55,1.52,6.54,1.52,-1.52,-1.07,-1.88,5.03,5.02,5.03
111.85,6.55,1.59,6.53,1.58,-1.58,-1.12,-1.94,4.97,4.95,4.96
112.97,6.54,1.65,6.52,1.63,-1.63,-1.17,-2.00,4.91,4.89,4.89
114.10,6.52,1.69,6.50,1.68,-1.68,-1.22,-2.06,4.84,4.82,4.83
115.24,6.50,1.75,6.49,1.73,-1.73,-1.28,-2.11,4.77,4.75,4.75
116.39,6.47,1.79,6.46,1.78,-1.78,-1.33,-2.16,4.69,4.68,4.68
117.55,6.44,1.83,6.44,1.82,-1.82,-1.38,-2.21,4.62,4.62,4.61
118.73,6.41,1.87,6.41,1.86,-1.86,-1.43,-2.26,4.55,4.55,4.54
119.92,6.38,1.90,6.38,1.90,-1.90,-1.49,-2.30,4.48,4.48,4.48
121.12,6.35,1.94,6.35,1.94,-1.94,-1.54,-2.34,4.42,4.41,4.41
122.33,6.32,1.98,6.32,1.97,-1.97,-1.59,-2.38,4.35,4.35,4.34
123.55,6.29,2.00,6.30,2.01,-2.01,-1.65,-2.41,4.28,4.29,4.29
124.79,6.26,2.03,6.28,2.05,-2.05,-1.70,-2.44,4.21,4.22,4.23
126.03,6.24,2.07,6.26,2.09,-2.09,-1.76,-2.47,4.15,4.16,4.17
127.29,6.22,2.11,6.25,2.14,-2.14,-1.81,-2.49,4.08,4.11,4.11
128.57,6.20,2.16,6.23,2.19,-2.19,-1.87,-2.51,4.01,4.05,4.04
129.85,6.20,2.21,6.22,2.23,-2.23,-1.92,-2.53,3.97,3.99,3.99
131.15,6.20,2.27,6.22,2.28,-2.28,-1.98,-2.54,3.92,3.94,3.93
132.46,6.21,2.33,6.21,2.32,-2.32,-2.03,-2.55,3.89,3.88,3.88
133.79,6.22,2.38,6.20,2.37,-2.37,-2.09,-2.55,3.85,3.83,3.84
135.12,6.22,2.44,6.19,2.41,-2.41,-2.15,-2.56,3.81,3.78,3.78
136.48,6.21,2.47,6.18,2.45,-2.45,-2.20,-2.56,3.76,3.73,3.74
137.84,6.19,2.51,6.16,2.48,-2.48,-2.26,-2.56,3.71,3.68,3.68
139.22,6.17,2.54,6.15,2.51,-2.51,-2.31,-2.56,3.66,3.64,3.63
140.61,6.14,2.56,6.13,2.54,-2.54,-2.37,-2.55,3.60,3.59,3.58
142.02,6.11,2.57,6.11,2.56,-2.56,-2.43,-2.55,3.55,3.54,3.54
143.44,6.08,2.58,6.08,2.59,-2.59,-2.48,-2.54,3.49,3.50,3.50
144.87,6.05,2.59,6.06,2.61,-2.61,-2.54,-2.53,3.44,3.45,3.46
146.32,6.02,2.61,6.03,2.62,-2.62,-2.59,-2.52,3.40,3.41,3.41
147.78,5.99,2.62,6.00,2.65,-2.65,-2.65,-2.52,3.34,3.36,3.37
149.26,5.96,2.64,5.98,2.67,-2.67,-2.70,-2.51,3.29,3.31,3.32
150.75,5.94,2.68,5.96,2.69,-2.69,-2.76,-2.50,3.25,3.26,3.26
152.26,5.92,2.71,5.93,2.72,-2.72,-2.81,-2.49,3.20,3.21,3.21
153.78,5.91,2.74,5.91,2.75,-2.75,-2.86,-2.49,3.16,3.16,3.17
155.32,5.89,2.78,5.89,2.78,-2.78,-2.91,-2.48,3.11,3.12,3.11
156.88,5.88,2.81,5.88,2.81,-2.81,-2.96,-2.48,3.07,3.06,3.07
158.44,5.86,2.84,5.86,2.84,-2.84,-3.01,-2.47,3.02,3.01,3.02
160.03,5.85,2.89,5.84,2.88,-2.88,-3.06,-2.47,2.97,2.96,2.96
161.63,5.83,2.93,5.82,2.91,-2.91,-3.11,-2.47,2.92,2.91,2.90
163.24,5.82,2.97,5.80,2.95,-2.95,-3.16,-2.47,2.87,2.85,2.85
164.88,5.79,2.99,5.78,2.98,-2.98,-3.20,-2.48,2.81,2.80,2.80
166.53,5.76,3.01,5.76,3.01,-3.01,-3.24,-2.48,2.75,2.75,2.75
168.19,5.73,3.04,5.74,3.04,-3.04,-3.29,-2.49,2.69,2.69,2.69
169.87,5.70,3.06,5.71,3.07,-3.07,-3.33,-2.50,2.63,2.64,2.64
171.57,5.68,3.09,5.68,3.10,-3.10,-3.37,-2.51,2.58,2.58,2.59
173.29,5.66,3.14,5.66,3.13,-3.13,-3.40,-2.52,2.53,2.52,2.52
175.02,5.64,3.17,5.63,3.17,-3.17,-3.44,-2.53,2.47,2.46,2.47
176.77,5.61,3.21,5.60,3.20,-3.20,-3.47,-2.55,2.41,2.40,2.40
178.54,5.58,3.24,5.58,3.23,-3.23,-3.50,-2.57,2.35,2.34,2.34
180.32,5.54,3.26,5.55,3.27,-3.27,-3.53,-2.59,2.27,2.28,2.28
182.13,5.51,3.28,5.52,3.30,-3.30,-3.56,-2.61,2.21,2.22,2.23
183.95,5.48,3.32,5.50,3.34,-3.34,-3.58,-2.64,2.14,2.16,2.16
185.79,5.46,3.36,5.47,3.37,-3.37,-3.60,-2.67,2.09,2.10,2.10
187.65,5.44,3.41,5.44,3.40,-3.40,-3.62,-2.70,2.04,2.04,2.03
189.52,5.42,3.45,5.42,3.43,-3.43,-3.64,-2.73,1.99,1.98,1.97
191.42,5.40,3.48,5.39,3.46,-3.46,-3.65,-2.76,1.94,1.92,1.92
193.33,5.38,3.51,5.36,3.49,-3.49,-3.66,-2.79,1.89,1.86,1.87
195.27,5.34,3.53,5.33,3.52,-3.52,-3.67,-2.83,1.82,1.81,1.81
197.22,5.30,3.55,5.30,3.54,-3.54,-3.68,-2.87,1.76,1.75,1.75
199.19,5.26,3.57,5.27,3.57,-3.57,-3.68,-2.91,1.69,1.70,1.69
201.18,5.22,3.58,5.23,3.59,-3.59,-3.68,-2.95,1.63,1.65,1.64
203.19,5.19,3.59,5.20,3.61,-3.61,-3.68,-2.99,1.58,1.60,1.60
205.23,5.16,3.62,5.17,3.62,-3.62,-3.68,-3.03,1.54,1.55,1.54
207.28,5.12,3.61,5.13,3.63,-3.63,-3.67,-3.07,1.49,1.50,1.51
209.35,5.09,3.63,5.09,3.64,-3.64,-3.66,-3.11,1.45,1.45,1.46
211.44,5.06,3.66,5.05,3.64,-3.64,-3.65,-3.16,1.42,1.41,1.40
213.56,5.02,3.66,5.01,3.64,-3.64,-3.63,-3.20,1.38,1.37,1.36
215.69,4.98,3.64,4.97,3.64,-3.64,-3.62,-3.24,1.34,1.33,1.34
217.85,4.93,3.64,4.93,3.64,-3.64,-3.60,-3.28,1.29,1.29,1.29
220.03,4.89,3.64,4.89,3.63,-3.63,-3.58,-3.32,1.26,1.25,1.25
222.23,4.84,3.63,4.84,3.62,-3.62,-3.55,-3.36,1.22,1.22,1.21
224.45,4.79,3.60,4.80,3.61,-3.61,-3.53,-3.39,1.18,1.19,1.19
226.70,4.74,3.58,4.75,3.59,-3.59,-3.50,-3.42,1.15,1.16,1.16
228.96,4.69,3.56,4.71,3.57,-3.57,-3.47,-3.45,1.12,1.14,1.13
231.25,4.65,3.53,4.66,3.55,-3.55,-3.44,-3.48,1.10,1.11,1.12
233.57,4.62,3.52,4.61,3.52,-3.52,-3.40,-3.50,1.10,1.10,1.10
235.90,4.58,3.51,4.56,3.48,-3.48,-3.37,-3.52,1.10,1.08,1.07
238.26,4.53,3.47,4.52,3.45,-3.45,-3.33,-3.54,1.08,1.07,1.06
240.64,4.47,3.42,4.47,3.41,-3.41,-3.30,-3.55,1.06,1.06,1.05
243.05,4.41,3.36,4.42,3.37,-3.37,-3.26,-3.56,1.04,1.05,1.05
245.48,4.35,3.31,4.36,3.32,-3.32,-3.22,-3.56,1.03,1.04,1.04
247.93,4.31,3.27,4.31,3.27,-3.27,-3.17,-3.55,1.04,1.04,1.04
250.41,4.27,3.24,4.26,3.22,-3.22,-3.13,-3.55,1.05,1.04,1.03
252.92,4.22,3.18,4.21,3.17,-3.17,-3.09,-3.53,1.05,1.04,1.04
255.45,4.17,3.12,4.16,3.11,-3.11,-3.05,-3.51,1.06,1.05,1.05
258.00,4.11,3.05,4.10,3.05,-3.05,-3.00,-3.49,1.06,1.05,1.06
260.58,4.04,2.98,4.05,2.99,-2.99,-2.96,-3.46,1.05,1.06,1.06
263.19,3.98,2.91,4.00,2.93,-2.93,-2.91,-3.43,1.05,1.07,1.07
265.82,3.93,2.86,3.95,2.87,-2.87,-2.86,-3.39,1.06,1.08,1.07
268.48,3.89,2.80,3.90,2.81,-2.81,-2.82,-3.35,1.08,1.09,1.09
271.16,3.85,2.74,3.85,2.75,-2.75,-2.77,-3.30,1.10,1.10,1.11
273.87,3.81,2.70,3.80,2.68,-2.68,-2.72,-3.26,1.13,1.11,1.11
276.61,3.76,2.63,3.75,2.62,-2.62,-2.67,-3.20,1.14,1.13,1.13
279.38,3.71,2.57,3.70,2.56,-2.56,-2.63,-3.15,1.15,1.14,1.14
282.17,3.66,2.51,3.65,2.50,-2.50,-2.58,-3.09,1.16,1.15,1.15
284.99,3.61,2.44,3.61,2.45,-2.45,-2.53,-3.03,1.16,1.16,1.17
287.84,3.57,2.40,3.57,2.40,-2.40,-2.48,-2.97,1.17,1.17,1.17
290.72,3.53,2.34,3.54,2.35,-2.35,-2.44,-2.90,1.18,1.19,1.18
293.63,3.48,2.28,3.50,2.30,-2.30,-2.39,-2.84,1.18,1.20,1.20
296.57,3.44,2.23,3.46,2.25,-2.25,-2.34,-2.77,1.19,1.21,1.21
299.53,3.41,2.19,3.43,2.20,-2.20,-2.29,-2.70,1.21,1.22,1.22
302.53,3.39,2.16,3.40,2.16,-2.16,-2.25,-2.64,1.23,1.24,1.23
305.55,3.38,2.13,3.37,2.12,-2.12,-2.20,-2.57,1.26,1.25,1.25
308.61,3.36,2.10,3.34,2.08,-2.08,-2.16,-2.50,1.28,1.26,1.26
311.69,3.33,2.07,3.31,2.05,-2.05,-2.11,-2.44,1.28,1.27,1.26
314.81,3.29,2.00,3.29,2.02,-2.02,-2.06,-2.37,1.27,1.27,1.29
317.96,3.26,1.98,3.26,1.98,-1.98,-2.02,-2.30,1.28,1.28,1.28
321.14,3.22,1.93,3.24,1.95,-1.95,-1.97,-2.24,1.27,1.29,1.29
324.35,3.19,1.90,3.21,1.92,-1.92,-1.93,-2.17,1.27,1.29,1.29
327.59,3.18,1.88,3.18,1.88,-1.88,-1.89,-2.11,1.30,1.30,1.30
330.87,3.16,1.86,3.15,1.85,-1.85,-1.84,-2.05,1.31,1.30,1.30
334.18,3.14,1.84,3.12,1.81,-1.81,-1.80,-1.98,1.33,1.31,1.30
337.52,3.11,1.81,3.08,1.78,-1.78,-1.76,-1.92,1.33,1.31,1.30
340.90,3.07,1.76,3.05,1.74,-1.74,-1.72,-1.86,1.33,1.31,1.31
344.30,3.02,1.71,3.01,1.71,-1.71,-1.67,-1.81,1.31,1.31,1.31
347.75,2.97,1.66,2.98,1.68,-1.68,-1.63,-1.75,1.29,1.30,1.31
351.23,2.93,1.63,2.94,1.64,-1.64,-1.59,-1.69,1.29,1.30,1.30
354.74,2.89,1.59,2.91,1.61,-1.61,-1.55,-1.64,1.28,1.30,1.30
358.28,2.85,1.56,2.87,1.57,-1.57,-1.51,-1.59,1.28,1.29,1.29
361.87,2.82,1.53,2.83,1.54,-1.54,-1.47,-1.54,1.28,1.29,1.29
365.49,2.79,1.51,2.78,1.50,-1.50,-1.44,-1.49,1.29,1.28,1.28
369.14,2.75,1.48,2.74,1.47,-1.47,-1.40,-1.44,1.28,1.27,1.27
372.83,2.72,1.45,2.70,1.44,-1.44,-1.36,-1.39,1.28,1.27,1.27
376.56,2.68,1.42,2.67,1.41,-1.41,-1.32,-1.34,1.27,1.26,1.26
380.33,2.63,1.37,2.63,1.38,-1.38,-1.28,-1.30,1.25,1.25,1.26
384.13,2.59,1.35,2.60,1.35,-1.35,-1.25,-1.25,1.24,1.24,1.24
387.97,2.54,1.31,2.56,1.32,-1.32,-1.21,-1.21,1.22,1.24,1.23
391.85,2.50,1.28,2.52,1.30,-1.30,-1.18,-1.17,1.20,1.23,1.22
395.77,2.48,1.25,2.49,1.27,-1.27,-1.14,-1.13,1.21,1.22,1.23
399.73,2.45,1.23,2.45,1.24,-1.24,-1.11,-1.09,1.21,1.21,1.22
403.72,2.43,1.22,2.42,1.21,-1.21,-1.07,-1.05,1.22,1.21,1.21
407.76,2.40,1.21,2.38,1.18,-1.18,-1.04,-1.01,1.22,1.20,1.19
411.84,2.37,1.17,2.35,1.15,-1.15,-1.00,-0.97,1.22,1.20,1.20
415.96,2.33,1.14,2.32,1.13,-1.13,-0.97,-0.94,1.20,1.19,1.19
420.12,2.28,1.09,2.29,1.10,-1.10,-0.94,-0.90,1.18,1.19,1.19
424.32,2.24,1.05,2.26,1.08,-1.08,-0.90,-0.87,1.16,1.18,1.19
428.56,2.20,1.02,2.23,1.05,-1.05,-0.87,-0.84,1.15,1.18,1.18
432.85,2.18,1.00,2.20,1.02,-1.02,-0.84,-0.80,1.16,1.18,1.18
437.18,2.16,0.98,2.16,0.98,-0.98,-0.81,-0.77,1.18,1.18,1.18
441.55,2.14,0.96,2.13,0.95,-0.95,-0.77,-0.74,1.19,1.18,1.18
445.96,2.12,0.94,2.09,0.91,-0.91,-0.74,-0.71,1.21,1.18,1.18
450.42,2.09,0.92,2.06,0.88,-0.88,-0.71,-0.68,1.21,1.18,1.17
454.93,2.05,0.87,2.03,0.85,-0.85,-0.68,-0.65,1.20,1.18,1.18
459.48,2.01,0.83,2.00,0.81,-0.81,-0.65,-0.62,1.20,1.19,1.18
464.07,1.96,0.77,1.97,0.78,-0.78,-0.62,-0.59,1.18,1.19,1.19
468.71,1.92,0.72,1.94,0.75,-0.75,-0.59,-0.56,1.17,1.19,1.20
473.40,1.88,0.68,1.91,0.71,-0.71,-0.56,-0.54,1.17,1.20,1.20
478.13,1.85,0.64,1.88,0.67,-0.67,-0.53,-0.51,1.18,1.21,1.21
482.91,1.83,0.62,1.84,0.63,-0.63,-0.50,-0.48,1.20,1.21,1.21
487.74,1.82,0.60,1.81,0.59,-0.59,-0.47,-0.46,1.23,1.22,1.22
492.62,1.80,0.57,1.77,0.55,-0.55,-0.44,-0.43,1.25,1.22,1.23
497.55,1.77,0.55,1.74,0.52,-0.52,-0.41,-0.40,1.25,1.23,1.22
502.52,1.73,0.50,1.71,0.48,-0.48,-0.38,-0.38,1.25,1.23,1.23
507.55,1.69,0.46,1.68,0.45,-0.45,-0.35,-0.35,1.24,1.23,1.23
512.62,1.64,0.41,1.65,0.42,-0.42,-0.32,-0.33,1.22,1.24,1.23
517.75,1.60,0.36,1.62,0.38,-0.38,-0.29,-0.30,1.22,1.24,1.24
522.93,1.57,0.33,1.59,0.35,-0.35,-0.26,-0.28,1.22,1.24,1.24
528.16,1.54,0.30,1.56,0.32,-0.32,-0.23,-0.25,1.22,1.24,1.24
533.44,1.52,0.28,1.52,0.28,-0.28,-0.20,-0.23,1.24,1.24,1.24
