frequency,raw,error,smoothed,error_smoothed,equalization,parametric_eq,fixed_band_eq,equalized_raw,equalized_smoothed,target
20.00,-6.58,-12.84,-6.59,-12.88,12.88,10.57,4.49,6.30,6.28,6.26
20.20,-6.48,-12.78,-6.49,-12.81,12.81,10.73,4.61,6.33,6.32,6.30
20.40,-6.39,-12.73,-6.39,-12.74,12.74,10.88,4.73,6.35,6.35,6.34
20.61,-6.29,-12.66,-6.29,-12.67,12.67,11.03,4.85,6.37,6.37,6.37
20.81,-6.19,-12.60,-6.19,-12.59,12.59,11.17,4.98,6.40,6.40,6.41
21.02,-6.09,-12.54,-6.08,-12.51,12.51,11.31,5.11,6.42,6.43,6.45
21.23,-5.98,-12.45,-5.97,-12.43,12.43,11.43,5.24,6.45,6.45,6.47
21.44,-5.88,-12.37,-5.86,-12.34,12.34,11.54,5.38,6.46,6.47,6.49
21.66,-5.77,-12.28,-5.75,-12.25,12.25,11.63,5.52,6.48,6.50,6.51
21.87,-5.66,-12.18,-5.64,-12.16,12.16,11.72,5.67,6.50,6.52,6.52
22.09,-5.54,-12.08,-5.53,-12.06,12.06,11.78,5.82,6.52,6.53,6.54
22.31,-5.43,-11.98,-5.41,-11.96,11.96,11.84,5.97,6.53,6.55,6.55
22.54,-5.30,-11.86,-5.29,-11.85,11.85,11.87,6.13,6.55,6.56,6.56
22.76,-5.16,-11.73,-5.17,-11.74,11.74,11.89,6.29,6.58,6.57,6.57
22.99,-5.03,-11.60,-5.04,-11.62,11.62,11.90,6.46,6.59,6.58,6.57
23.22,-4.92,-11.50,-4.92,-11.51,11.51,11.88,6.63,6.59,6.59,6.58
23.45,-4.78,-11.37,-4.79,-11.39,11.39,11.85,6.81,6.61,6.60,6.59
23.69,-4.66,-11.26,-4.67,-11.27,11.27,11.80,6.99,6.61,6.61,6.60
23.92,-4.54,-11.15,-4.54,-11.16,11.16,11.74,7.17,6.62,6.62,6.61
24.16,-4.41,-11.04,-4.42,-11.04,11.04,11.66,7.36,6.63,6.63,6.63
24.40,-4.29,-10.94,-4.29,-10.93,10.93,11.56,7.55,6.64,6.63,6.65
24.65,-4.18,-10.82,-4.17,-10.82,10.82,11.46,7.74,6.64,6.64,6.64
24.89,-4.05,-10.70,-4.05,-10.71,10.71,11.34,7.94,6.66,6.65,6.65
25.14,-3.93,-10.59,-3.94,-10.60,10.60,11.21,8.15,6.67,6.66,6.66
25.39,-3.82,-10.49,-3.82,-10.50,10.50,11.07,8.35,6.68,6.68,6.67
25.65,-3.70,-10.39,-3.71,-10.39,10.39,10.92,8.56,6.69,6.69,6.69
25.91,-3.59,-10.28,-3.59,-10.29,10.29,10.76,8.77,6.69,6.70,6.69
26.16,-3.49,-10.19,-3.48,-10.18,10.18,10.60,8.98,6.69,6.71,6.70
26.43,-3.37,-10.08,-3.36,-10.08,10.08,10.43,9.20,6.70,6.71,6.71
26.69,-3.25,-9.97,-3.25,-9.97,9.97,10.26,9.41,6.72,6.72,6.72
26.96,-3.14,-9.88,-3.14,-9.87,9.87,10.08,9.62,6.73,6.73,6.74
27.23,-3.02,-9.77,-3.02,-9.76,9.76,9.91,9.84,6.74,6.74,6.75
27.50,-2.91,-9.66,-2.91,-9.66,9.66,9.72,10.04,6.75,6.75,6.75
27.77,-2.80,-9.55,-2.80,-9.56,9.56,9.54,10.25,6.76,6.76,6.75
28.05,-2.68,-9.45,-2.68,-9.45,9.45,9.36,10.44,6.77,6.77,6.77
28.33,-2.57,-9.34,-2.57,-9.35,9.35,9.18,10.63,6.78,6.78,6.77
28.62,-2.46,-9.24,-2.46,-9.24,9.24,9.00,10.81,6.78,6.78,6.78
28.90,-2.35,-9.14,-2.35,-9.14,9.14,8.81,10.97,6.79,6.79,6.79
29.19,-2.24,-9.03,-2.24,-9.04,9.04,8.63,11.12,6.80,6.80,6.79
29.48,-2.12,-8.94,-2.13,-8.93,8.93,8.46,11.26,6.81,6.81,6.82
29.78,-2.01,-8.82,-2.02,-8.83,8.83,8.28,11.37,6.82,6.81,6.81
30.08,-1.90,-8.72,-1.91,-8.72,8.72,8.10,11.47,6.82,6.82,6.82
30.38,-1.79,-8.61,-1.80,-8.62,8.62,7.93,11.54,6.83,6.83,6.82
30.68,-1.68,-8.52,-1.68,-8.52,8.52,7.76,11.59,6.84,6.83,6.84
30.99,-1.58,-8.42,-1.57,-8.41,8.41,7.59,11.61,6.83,6.84,6.84
31.30,-1.47,-8.31,-1.46,-8.31,8.31,7.43,11.60,6.84,6.85,6.84
31.61,-1.36,-8.21,-1.35,-8.21,8.21,7.26,11.57,6.85,6.86,6.85
31.93,-1.25,-8.11,-1.24,-8.10,8.10,7.10,11.52,6.85,6.86,6.86
32.24,-1.13,-7.99,-1.13,-8.00,8.00,6.94,11.44,6.87,6.87,6.86
32.57,-1.01,-7.89,-1.02,-7.89,7.89,6.79,11.34,6.88,6.88,6.88
32.89,-0.90,-7.78,-0.90,-7.79,7.79,6.64,11.21,6.89,6.88,6.88
33.22,-0.79,-7.68,-0.79,-7.68,7.68,6.49,11.07,6.89,6.89,6.89
33.55,-0.67,-7.57,-0.68,-7.58,7.58,6.34,10.91,6.91,6.90,6.90
33.89,-0.56,-7.47,-0.57,-7.47,7.47,6.20,10.73,6.91,6.91,6.91
34.23,-0.45,-7.36,-0.45,-7.37,7.37,6.06,10.54,6.92,6.91,6.91
34.57,-0.34,-7.26,-0.34,-7.26,7.26,5.92,10.34,6.92,6.92,6.92
34.92,-0.23,-7.15,-0.23,-7.15,7.15,5.78,10.13,6.92,6.92,6.92
35.27,-0.12,-7.05,-0.12,-7.05,7.05,5.65,9.92,6.93,6.93,6.93
35.62,-0.01,-6.94,-0.01,-6.94,6.94,5.52,9.69,6.93,6.93,6.93
35.97,0.10,-6.83,0.11,-6.83,6.83,5.39,9.47,6.93,6.94,6.93
36.33,0.21,-6.73,0.22,-6.72,6.72,5.27,9.24,6.93,6.94,6.94
36.70,0.33,-6.60,0.33,-6.61,6.61,5.14,9.01,6.94,6.94,6.93
37.06,0.44,-6.50,0.44,-6.49,6.49,5.02,8.78,6.93,6.94,6.94
37.43,0.55,-6.39,0.56,-6.38,6.38,4.90,8.55,6.93,6.94,6.94
37.81,0.67,-6.27,0.67,-6.27,6.27,4.79,8.32,6.94,6.94,6.94
38.19,0.78,-6.16,0.78,-6.15,6.15,4.67,8.09,6.93,6.93,6.94
38.57,0.89,-6.04,0.89,-6.04,6.04,4.56,7.87,6.93,6.93,6.93
38.95,1.02,-5.91,1.00,-5.93,5.93,4.45,7.64,6.95,6.93,6.93
39.34,1.12,-5.80,1.11,-5.82,5.82,4.35,7.42,6.94,6.93,6.92
39.74,1.22,-5.70,1.22,-5.71,5.71,4.24,7.21,6.93,6.93,6.92
40.14,1.33,-5.59,1.33,-5.60,5.60,4.14,7.00,6.93,6.92,6.92
40.54,1.43,-5.49,1.43,-5.49,5.49,4.04,6.79,6.92,6.92,6.92
40.94,1.53,-5.38,1.53,-5.38,5.38,3.94,6.58,6.92,6.92,6.91
41.35,1.63,-5.28,1.64,-5.28,5.28,3.85,6.38,6.91,6.92,6.91
41.76,1.73,-5.18,1.74,-5.17,5.17,3.75,6.18,6.91,6.91,6.91
42.18,1.83,-5.08,1.84,-5.07,5.07,3.66,5.99,6.90,6.91,6.91
42.60,1.93,-4.98,1.93,-4.97,4.97,3.57,5.80,6.90,6.91,6.91
43.03,2.03,-4.88,2.03,-4.87,4.87,3.48,5.61,6.90,6.90,6.91
43.46,2.13,-4.78,2.12,-4.78,4.78,3.39,5.43,6.91,6.90,6.91
43.90,2.23,-4.66,2.22,-4.68,4.68,3.30,5.25,6.91,6.90,6.89
44.33,2.31,-4.58,2.31,-4.58,4.58,3.22,5.08,6.89,6.90,6.89
44.78,2.40,-4.48,2.40,-4.49,4.49,3.14,4.91,6.89,6.89,6.88
45.23,2.49,-4.39,2.49,-4.40,4.40,3.05,4.74,6.88,6.89,6.88
45.68,2.58,-4.30,2.58,-4.30,4.30,2.97,4.57,6.88,6.88,6.88
46.13,2.67,-4.20,2.67,-4.21,4.21,2.90,4.41,6.88,6.88,6.87
46.60,2.75,-4.13,2.75,-4.12,4.12,2.82,4.25,6.87,6.87,6.88
47.06,2.84,-4.03,2.83,-4.03,4.03,2.74,4.10,6.87,6.87,6.87
47.53,2.92,-3.94,2.91,-3.95,3.95,2.67,3.95,6.87,6.86,6.86
48.01,3.00,-3.87,2.99,-3.86,3.86,2.60,3.80,6.86,6.85,6.87
48.49,3.08,-3.77,3.07,-3.77,3.77,2.53,3.65,6.85,6.84,6.85
48.97,3.15,-3.68,3.15,-3.68,3.68,2.45,3.51,6.83,6.83,6.83
49.46,3.23,-3.59,3.23,-3.59,3.59,2.39,3.37,6.82,6.82,6.82
49.96,3.30,-3.50,3.31,-3.50,3.50,2.32,3.23,6.80,6.81,6.80
50.46,3.37,-3.43,3.38,-3.41,3.41,2.25,3.09,6.78,6.80,6.80
50.96,3.45,-3.33,3.46,-3.32,3.32,2.18,2.96,6.77,6.78,6.78
51.47,3.53,-3.22,3.53,-3.23,3.23,2.12,2.83,6.76,6.76,6.75
51.99,3.61,-3.13,3.61,-3.14,3.14,2.06,2.71,6.75,6.75,6.74
52.51,3.68,-3.05,3.68,-3.05,3.05,1.99,2.58,6.73,6.73,6.73
53.03,3.76,-2.95,3.76,-2.95,2.95,1.93,2.46,6.71,6.71,6.71
53.56,3.84,-2.86,3.83,-2.86,2.86,1.87,2.34,6.70,6.69,6.70
54.10,3.92,-2.75,3.90,-2.77,2.77,1.81,2.22,6.69,6.67,6.67
54.64,3.98,-2.68,3.97,-2.68,2.68,1.75,2.11,6.66,6.65,6.66
55.18,4.04,-2.59,4.05,-2.59,2.59,1.69,2.00,6.63,6.64,6.63
55.74,4.12,-2.48,4.12,-2.50,2.50,1.63,1.89,6.62,6.62,6.60
56.29,4.19,-2.41,4.19,-2.40,2.40,1.58,1.79,6.60,6.60,6.60
56.86,4.26,-2.31,4.26,-2.31,2.31,1.52,1.68,6.57,6.57,6.57
57.42,4.32,-2.22,4.33,-2.22,2.22,1.47,1.58,6.54,6.55,6.54
58.00,4.39,-2.13,4.40,-2.13,2.13,1.41,1.49,6.52,6.53,6.52
58.58,4.47,-2.03,4.47,-2.03,2.03,1.36,1.39,6.50,6.50,6.50
59.16,4.54,-1.94,4.55,-1.93,1.93,1.30,1.30,6.47,6.48,6.48
59.76,4.62,-1.84,4.62,-1.83,1.83,1.25,1.21,6.45,6.45,6.46
60.35,4.69,-1.74,4.69,-1.73,1.73,1.20,1.13,6.42,6.42,6.43
60.96,4.76,-1.64,4.76,-1.62,1.62,1.15,1.04,6.38,6.39,6.40
61.57,4.83,-1.52,4.83,-1.52,1.52,1.10,0.96,6.35,6.35,6.35
62.18,4.90,-1.41,4.90,-1.42,1.42,1.05,0.88,6.32,6.32,6.31
62.80,4.97,-1.32,4.97,-1.31,1.31,1.00,0.81,6.28,6.28,6.29
63.43,5.05,-1.19,5.04,-1.21,1.21,0.95,0.74,6.26,6.25,6.24
64.07,5.12,-1.08,5.11,-1.10,1.10,0.90,0.67,6.22,6.21,6.20
64.71,5.18,-0.99,5.17,-1.00,1.00,0.85,0.60,6.18,6.17,6.17
65.35,5.23,-0.90,5.23,-0.90,0.90,0.80,0.54,6.13,6.13,6.13
66.01,5.29,-0.80,5.29,-0.80,0.80,0.75,0.48,6.09,6.10,6.09
66.67,5.35,-0.71,5.35,-0.71,0.71,0.71,0.42,6.06,6.06,6.06
67.33,5.41,-0.61,5.41,-0.61,0.61,0.66,0.36,6.02,6.02,6.02
68.01,5.46,-0.52,5.46,-0.52,0.52,0.61,0.30,5.98,5.98,5.98
68.69,5.51,-0.43,5.51,-0.43,0.43,0.57,0.25,5.94,5.94,5.94
69.37,5.57,-0.33,5.56,-0.34,0.34,0.52,0.20,5.91,5.90,5.90
70.07,5.61,-0.25,5.60,-0.26,0.26,0.47,0.15,5.87,5.86,5.86
70.77,5.65,-0.17,5.65,-0.17,0.17,0.43,0.10,5.82,5.82,5.82
71.48,5.68,-0.11,5.70,-0.09,0.09,0.38,0.05,5.77,5.79,5.79
72.19,5.73,-0.01,5.74,-0.00,0.00,0.34,0.00,5.73,5.75,5.74
72.91,5.78,0.07,5.79,0.08,-0.08,0.29,-0.05,5.70,5.71,5.71
73.64,5.82,0.15,5.83,0.15,-0.15,0.25,-0.09,5.67,5.67,5.67
74.38,5.87,0.23,5.87,0.23,-0.23,0.20,-0.14,5.64,5.64,5.64
75.12,5.90,0.30,5.90,0.30,-0.30,0.16,-0.18,5.60,5.61,5.60
75.87,5.94,0.37,5.94,0.36,-0.36,0.12,-0.23,5.58,5.57,5.57
76.63,5.99,0.45,5.97,0.43,-0.43,0.07,-0.27,5.56,5.54,5.54
77.40,6.03,0.52,6.01,0.49,-0.49,0.03,-0.32,5.54,5.51,5.51
78.17,6.06,0.58,6.04,0.56,-0.56,-0.02,-0.36,5.50,5.48,5.48
78.95,6.08,0.63,6.07,0.62,-0.62,-0.06,-0.41,5.46,5.46,5.45
79.74,6.09,0.66,6.10,0.67,-0.67,-0.10,-0.45,5.42,5.43,5.43
80.54,6.11,0.70,6.13,0.73,-0.73,-0.15,-0.50,5.38,5.40,5.41
81.35,6.14,0.76,6.16,0.78,-0.78,-0.19,-0.54,5.36,5.38,5.38
82.16,6.17,0.82,6.19,0.83,-0.83,-0.24,-0.59,5.34,5.36,5.35
82.98,6.21,0.87,6.22,0.88,-0.88,-0.28,-0.64,5.33,5.33,5.34
83.81,6.25,0.94,6.25,0.93,-0.93,-0.32,-0.69,5.32,5.31,5.31
84.65,6.28,1.00,6.27,0.98,-0.98,-0.37,-0.73,5.30,5.29,5.28
85.50,6.31,1.04,6.30,1.03,-1.03,-0.41,-0.78,5.28,5.27,5.27
86.35,6.34,1.09,6.33,1.08,-1.08,-0.46,-0.83,5.26,5.25,5.25
87.22,6.36,1.13,6.36,1.13,-1.13,-0.50,-0.89,5.23,5.23,5.23
88.09,6.38,1.17,6.39,1.18,-1.18,-0.55,-0.94,5.20,5.21,5.21
88.97,6.41,1.22,6.42,1.23,-1.23,-0.59,-0.99,5.18,5.19,5.19
89.86,6.44,1.26,6.45,1.27,-1.27,-0.63,-1.05,5.17,5.17,5.18
90.76,6.47,1.32,6.47,1.31,-1.31,-0.68,-1.10,5.16,5.16,5.15
91.66,6.50,1.37,6.49,1.35,-1.35,-0.72,-1.16,5.15,5.14,5.13
92.58,6.52,1.41,6.50,1.39,-1.39,-0.77,-1.22,5.13,5.12,5.11
93.51,6.53,1.43,6.52,1.42,-1.42,-0.81,-1.27,5.11,5.10,5.10
94.44,6.55,1.47,6.53,1.45,-1.45,-0.86,-1.33,5.10,5.08,5.08
95.39,6.55,1.49,6.54,1.48,-1.48,-0.91,-1.39,5.07,5.05,5.06
96.34,6.55,1.52,6.54,1.51,-1.51,-0.95,-1.46,5.04,5.03,5.03
97.30,6.55,1.55,6.54,1.54,-1.54,-1.00,-1.52,5.01,5.00,5.00
98.28,6.54,1.57,6.54,1.57,-1.57,-1.04,-1.58,4.97,4.98,4.97
99.26,6.53,1.58,6.54,1.59,-1.59,-1.09,-1.64,4.94,4.95,4.95
100.25,6.53,1.61,6.54,1.62,-1.62,-1.14,-1.71,4.91,4.92,4.92
101.25,6.53,1.64,6.54,1.65,-1.65,-1.18,-1.77,4.88,4.89,4.89
102.27,6.53,1.68,6.54,1.68,-1.68,-1.23,-1.84,4.85,4.86,4.85
103.29,6.53,1.71,6.54,1.72,-1.72,-1.28,-1.90,4.81,4.82,4.82
104.32,6.53,1.74,6.54,1.76,-1.76,-1.33,-1.96,4.77,4.78,4.79
105.37,6.53,1.78,6.54,1.80,-1.80,-1.37,-2.03,4.73,4.75,4.75
106.42,6.53,1.83,6.54,1.84,-1.84,-1.42,-2.09,4.69,4.70,4.70
107.48,6.54,1.87,6.55,1.89,-1.89,-1.47,-2.16,4.65,4.66,4.67
108.56,6.55,1.94,6.55,1.94,-1.94,-1.52,-2.22,4.61,4.61,4.61
109.64,6.55,1.99,6.54,1.98,-1.98,-1.57,-2.28,4.57,4.56,4.56
110.74,6.55,2.04,6.54,2.03,-2.03,-1.62,-2.34,4.52,4.51,4.51
111.85,6.55,2.09,6.53,2.08,-2.08,-1.67,-2.39,4.47,4.45,4.46
112.97,6.54,2.15,6.52,2.12,-2.12,-1.71,-2.45,4.42,4.39,4.39
114.10,6.52,2.18,6.50,2.17,-2.17,-1.76,-2.50,4.35,4.34,4.34
115.24,6.50,2.22,6.49,2.21,-2.21,-1.81,-2.55,4.29,4.28,4.28
116.39,6.47,2.26,6.46,2.24,-2.24,-1.86,-2.60,4.23,4.22,4.21
117.55,6.44,2.29,6.44,2.28,-2.28,-1.91,-2.65,4.16,4.16,4.15
118.73,6.41,2.32,6.41,2.31,-2.31,-1.96,-2.69,4.10,4.10,4.09
119.92,6.38,2.34,6.38,2.33,-2.33,-2.02,-2.73,4.05,4.04,4.04
121.12,6.35,2.37,6.35,2.36,-2.36,-2.07,-2.76,3.99,3.99,3.98
122.33,6.32,2.39,6.32,2.39,-2.39,-2.12,-2.80,3.93,3.93,3.93
123.55,6.29,2.41,6.30,2.42,-2.42,-2.17,-2.82,3.87,3.88,3.88
124.79,6.26,2.43,6.28,2.45,-2.45,-2.22,-2.85,3.81,3.83,3.83
126.03,6.24,2.46,6.26,2.48,-2.48,-2.27,-2.87,3.76,3.78,3.78
127.29,6.22,2.49,6.25,2.52,-2.52,-2.32,-2.88,3.70,3.73,3.73
128.57,6.20,2.53,6.23,2.55,-2.55,-2.37,-2.90,3.65,3.68,3.67
129.85,6.20,2.57,6.22,2.59,-2.59,-2.42,-2.91,3.61,3.63,3.63
131.15,6.20,2.62,6.22,2.63,-2.63,-2.47,-2.91,3.57,3.59,3.58
132.46,6.21,2.67,6.21,2.66,-2.66,-2.52,-2.91,3.55,3.54,3.54
133.79,6.22,2.72,6.20,2.70,-2.70,-2.57,-2.91,3.52,3.50,3.50
135.12,6.22,2.76,6.19,2.73,-2.73,-2.62,-2.91,3.49,3.46,3.46
136.48,6.21,2.79,6.18,2.76,-2.76,-2.67,-2.91,3.45,3.42,3.42
137.84,6.19,2.81,6.16,2.78,-2.78,-2.72,-2.90,3.41,3.38,3.38
139.22,6.17,2.84,6.15,2.81,-2.81,-2.77,-2.89,3.36,3.34,3.33
140.61,6.14,2.85,6.13,2.83,-2.83,-2.82,-2.88,3.31,3.30,3.29
142.02,6.11,2.84,6.11,2.84,-2.84,-2.86,-2.86,3.27,3.27,3.27
143.44,6.08,2.85,6.08,2.85,-2.85,-2.91,-2.85,3.23,3.23,3.23
144.87,6.05,2.86,6.06,2.87,-2.87,-2.96,-2.83,3.18,3.19,3.19
146.32,6.02,2.87,6.03,2.88,-2.88,-3.00,-2.82,3.14,3.15,3.15
147.78,5.99,2.87,6.00,2.89,-2.89,-3.05,-2.80,3.10,3.11,3.12
149.26,5.96,2.87,5.98,2.90,-2.90,-3.09,-2.79,3.06,3.07,3.09
150.75,5.94,2.91,5.96,2.92,-2.92,-3.13,-2.77,3.02,3.03,3.03
152.26,5.92,2.93,5.93,2.94,-2.94,-3.17,-2.76,2.98,2.99,2.99
153.78,5.91,2.95,5.91,2.96,-2.96,-3.22,-2.74,2.95,2.95,2.96
155.32,5.89,2.99,5.89,2.98,-2.98,-3.26,-2.73,2.91,2.91,2.90
156.88,5.88,3.01,5.88,3.01,-3.01,-3.29,-2.72,2.87,2.87,2.87
158.44,5.86,3.04,5.86,3.03,-3.03,-3.33,-2.71,2.83,2.82,2.82
160.03,5.85,3.08,5.84,3.06,-3.06,-3.37,-2.70,2.79,2.78,2.77
161.63,5.83,3.11,5.82,3.09,-3.09,-3.40,-2.69,2.74,2.73,2.72
163.24,5.82,3.14,5.80,3.12,-3.12,-3.43,-2.68,2.70,2.68,2.68
164.88,5.79,3.15,5.78,3.14,-3.14,-3.47,-2.68,2.65,2.64,2.64
166.53,5.76,3.17,5.76,3.17,-3.17,-3.49,-2.68,2.59,2.59,2.59
168.19,5.73,3.19,5.74,3.19,-3.19,-3.52,-2.68,2.54,2.54,2.54
169.87,5.70,3.21,5.71,3.22,-3.22,-3.55,-2.68,2.48,2.49,2.49
171.57,5.68,3.23,5.68,3.24,-3.24,-3.57,-2.68,2.44,2.44,2.45
173.29,5.66,3.27,5.66,3.27,-3.27,-3.60,-2.69,2.39,2.39,2.39
175.02,5.64,3.30,5.63,3.29,-3.29,-3.62,-2.70,2.35,2.34,2.34
176.77,5.61,3.33,5.60,3.32,-3.32,-3.63,-2.71,2.29,2.28,2.28
178.54,5.58,3.35,5.58,3.35,-3.35,-3.65,-2.72,2.23,2.23,2.23
180.32,5.54,3.37,5.55,3.38,-3.38,-3.67,-2.73,2.16,2.17,2.17
182.13,5.51,3.39,5.52,3.41,-3.41,-3.68,-2.75,2.10,2.12,2.12
183.95,5.48,3.42,5.50,3.44,-3.44,-3.69,-2.77,2.04,2.06,2.06
185.79,5.46,3.45,5.47,3.47,-3.47,-3.70,-2.79,1.99,2.01,2.01
187.65,5.44,3.50,5.44,3.49,-3.49,-3.70,-2.82,1.95,1.95,1.94
189.52,5.42,3.53,5.42,3.52,-3.52,-3.71,-2.84,1.90,1.90,1.89
191.42,5.40,3.56,5.39,3.54,-3.54,-3.71,-2.87,1.86,1.84,1.84
193.33,5.38,3.59,5.36,3.57,-3.57,-3.71,-2.90,1.81,1.79,1.79
195.27,5.34,3.60,5.33,3.59,-3.59,-3.70,-2.93,1.75,1.74,1.74
197.22,5.30,3.62,5.30,3.61,-3.61,-3.70,-2.96,1.69,1.69,1.68
199.19,5.26,3.63,5.27,3.63,-3.63,-3.69,-2.99,1.63,1.64,1.63
201.18,5.22,3.64,5.23,3.65,-3.65,-3.68,-3.03,1.57,1.59,1.58
203.19,5.19,3.64,5.20,3.66,-3.66,-3.67,-3.06,1.53,1.54,1.55
205.23,5.16,3.67,5.17,3.67,-3.67,-3.66,-3.10,1.49,1.50,1.49
207.28,5.12,3.65,5.13,3.68,-3.68,-3.64,-3.14,1.44,1.45,1.47
209.35,5.09,3.68,5.09,3.68,-3.68,-3.63,-3.18,1.41,1.41,1.41
211.44,5.06,3.70,5.05,3.68,-3.68,-3.61,-3.21,1.38,1.37,1.36
213.56,5.02,3.70,5.01,3.68,-3.68,-3.59,-3.25,1.34,1.33,1.32
215.69,4.98,3.68,4.97,3.67,-3.67,-3.56,-3.29,1.31,1.29,1.30
217.85,4.93,3.67,4.93,3.67,-3.67,-3.54,-3.32,1.26,1.26,1.26
220.03,4.89,3.67,4.89,3.66,-3.66,-3.51,-3.36,1.23,1.23,1.22
222.23,4.84,3.65,4.84,3.65,-3.65,-3.49,-3.39,1.19,1.20,1.19
224.45,4.79,3.62,4.80,3.63,-3.63,-3.46,-3.42,1.16,1.17,1.17
226.70,4.74,3.60,4.75,3.61,-3.61,-3.43,-3.45,1.13,1.14,1.14
228.96,4.69,3.58,4.71,3.59,-3.59,-3.40,-3.48,1.10,1.12,1.11
231.25,4.65,3.55,4.66,3.56,-3.56,-3.36,-3.50,1.09,1.10,1.10
233.57,4.62,3.54,4.61,3.53,-3.53,-3.33,-3.52,1.09,1.09,1.08
235.90,4.58,3.51,4.56,3.49,-3.49,-3.29,-3.54,1.09,1.07,1.07
238.26,4.53,3.47,4.52,3.45,-3.45,-3.26,-3.55,1.08,1.06,1.06
240.64,4.47,3.42,4.47,3.41,-3.41,-3.22,-3.56,1.06,1.05,1.05
243.05,4.41,3.36,4.42,3.37,-3.37,-3.18,-3.56,1.04,1.05,1.05
245.48,4.35,3.31,4.36,3.32,-3.32,-3.14,-3.56,1.03,1.05,1.04
247.93,4.31,3.27,4.31,3.27,-3.27,-3.10,-3.55,1.04,1.04,1.04
250.41,4.27,3.23,4.26,3.21,-3.21,-3.06,-3.54,1.06,1.05,1.04
252.92,4.22,3.17,4.21,3.16,-3.16,-3.02,-3.52,1.06,1.05,1.05
255.45,4.17,3.11,4.16,3.10,-3.10,-2.98,-3.50,1.07,1.06,1.06
258.00,4.11,3.04,4.10,3.04,-3.04,-2.93,-3.48,1.07,1.07,1.07
260.58,4.04,2.97,4.05,2.97,-2.97,-2.89,-3.45,1.07,1.08,1.07
263.19,3.98,2.90,4.00,2.91,-2.91,-2.85,-3.41,1.07,1.09,1.08
265.82,3.93,2.84,3.95,2.85,-2.85,-2.80,-3.38,1.08,1.10,1.09
268.48,3.89,2.78,3.90,2.79,-2.79,-2.76,-3.33,1.10,1.11,1.11
271.16,3.85,2.72,3.85,2.72,-2.72,-2.72,-3.29,1.13,1.12,1.13
273.87,3.81,2.68,3.80,2.66,-2.66,-2.67,-3.24,1.15,1.14,1.13
276.61,3.76,2.60,3.75,2.60,-2.60,-2.63,-3.18,1.16,1.15,1.16
279.38,3.71,2.55,3.70,2.53,-2.53,-2.58,-3.13,1.18,1.16,1.16
282.17,3.66,2.48,3.65,2.48,-2.48,-2.54,-3.07,1.18,1.18,1.18
284.99,3.61,2.42,3.61,2.42,-2.42,-2.49,-3.01,1.19,1.19,1.19
287.84,3.57,2.37,3.57,2.37,-2.37,-2.45,-2.95,1.20,1.20,1.20
290.72,3.53,2.32,3.54,2.32,-2.32,-2.40,-2.88,1.21,1.22,1.21
293.63,3.48,2.25,3.50,2.27,-2.27,-2.36,-2.82,1.21,1.23,1.23
296.57,3.44,2.19,3.46,2.22,-2.22,-2.31,-2.75,1.22,1.25,1.25
299.53,3.41,2.16,3.43,2.17,-2.17,-2.27,-2.68,1.24,1.26,1.25
302.53,3.39,2.13,3.40,2.13,-2.13,-2.23,-2.61,1.26,1.27,1.26
305.55,3.38,2.10,3.37,2.08,-2.08,-2.18,-2.55,1.30,1.28,1.28
308.61,3.36,2.07,3.34,2.05,-2.05,-2.14,-2.48,1.31,1.29,1.29
311.69,3.33,2.03,3.31,2.01,-2.01,-2.09,-2.41,1.32,1.30,1.30
314.81,3.29,1.96,3.29,1.98,-1.98,-2.05,-2.35,1.31,1.31,1.33
317.96,3.26,1.94,3.26,1.94,-1.94,-2.01,-2.28,1.32,1.32,1.32
321.14,3.22,1.89,3.24,1.91,-1.91,-1.96,-2.21,1.31,1.33,1.33
324.35,3.19,1.86,3.21,1.88,-1.88,-1.92,-2.15,1.31,1.34,1.33
327.59,3.18,1.84,3.18,1.84,-1.84,-1.88,-2.08,1.34,1.34,1.34
330.87,3.16,1.82,3.15,1.81,-1.81,-1.84,-2.02,1.35,1.34,1.34
334.18,3.14,1.80,3.12,1.77,-1.77,-1.80,-1.96,1.37,1.35,1.34
337.52,3.11,1.76,3.08,1.73,-1.73,-1.76,-1.90,1.38,1.35,1.35
340.90,3.07,1.72,3.05,1.70,-1.70,-1.71,-1.84,1.37,1.35,1.35
344.30,3.02,1.67,3.01,1.66,-1.66,-1.67,-1.78,1.36,1.35,1.35
347.75,2.97,1.62,2.98,1.63,-1.63,-1.63,-1.72,1.34,1.35,1.35
351.23,2.93,1.58,2.94,1.60,-1.60,-1.59,-1.67,1.33,1.35,1.35
354.74,2.89,1.54,2.91,1.56,-1.56,-1.55,-1.61,1.33,1.34,1.35
358.28,2.85,1.52,2.87,1.53,-1.53,-1.52,-1.56,1.32,1.34,1.33
361.87,2.82,1.49,2.83,1.49,-1.49,-1.48,-1.51,1.33,1.33,1.33
365.49,2.79,1.46,2.78,1.45,-1.45,-1.44,-1.46,1.34,1.33,1.33
369.14,2.75,1.43,2.74,1.42,-1.42,-1.40,-1.41,1.33,1.32,1.32
372.83,2.72,1.40,2.70,1.39,-1.39,-1.36,-1.36,1.33,1.32,1.32
376.56,2.68,1.37,2.67,1.36,-1.36,-1.32,-1.31,1.32,1.31,1.31
380.33,2.63,1.33,2.63,1.33,-1.33,-1.29,-1.27,1.30,1.30,1.30
384.13,2.59,1.30,2.60,1.30,-1.30,-1.25,-1.22,1.29,1.29,1.29
387.97,2.54,1.26,2.56,1.27,-1.27,-1.21,-1.18,1.27,1.29,1.28
391.85,2.50,1.23,2.52,1.24,-1.24,-1.18,-1.14,1.26,1.28,1.27
395.77,2.48,1.20,2.49,1.21,-1.21,-1.14,-1.09,1.27,1.27,1.28
399.73,2.45,1.18,2.45,1.18,-1.18,-1.11,-1.05,1.27,1.27,1.27
403.72,2.43,1.17,2.42,1.15,-1.15,-1.07,-1.01,1.28,1.26,1.26
407.76,2.40,1.15,2.38,1.13,-1.13,-1.04,-0.98,1.27,1.26,1.25
411.84,2.37,1.11,2.35,1.10,-1.10,-1.00,-0.94,1.27,1.25,1.26
415.96,2.33,1.09,2.32,1.07,-1.07,-0.97,-0.90,1.26,1.25,1.24
420.12,2.28,1.04,2.29,1.05,-1.05,-0.93,-0.86,1.23,1.24,1.24
424.32,2.24,1.00,2.26,1.02,-1.02,-0.90,-0.83,1.22,1.24,1.24
428.56,2.20,0.97,2.23,0.99,-0.99,-0.86,-0.80,1.21,1.24,1.23
432.85,2.18,0.95,2.20,0.96,-0.96,-0.83,-0.76,1.22,1.24,1.23
437.18,2.16,0.93,2.16,0.93,-0.93,-0.80,-0.73,1.23,1.24,1.23
441.55,2.14,0.90,2.13,0.89,-0.89,-0.76,-0.70,1.25,1.24,1.24
445.96,2.12,0.88,2.09,0.86,-0.86,-0.73,-0.67,1.26,1.24,1.24
450.42,2.09,0.86,2.06,0.82,-0.82,-0.70,-0.63,1.27,1.24,1.23
454.93,2.05,0.81,2.03,0.79,-0.79,-0.66,-0.60,1.26,1.24,1.24
459.48,2.01,0.77,2.00,0.76,-0.76,-0.63,-0.57,1.25,1.24,1.24
464.07,1.96,0.71,1.97,0.72,-0.72,-0.60,-0.54,1.24,1.25,1.25
468.71,1.92,0.66,1.94,0.69,-0.69,-0.57,-0.52,1.23,1.25,1.26
473.40,1.88,0.63,1.91,0.65,-0.65,-0.53,-0.49,1.23,1.26,1.25
478.13,1.85,0.59,1.88,0.61,-0.61,-0.50,-0.46,1.24,1.26,1.26
482.91,1.83,0.57,1.84,0.57,-0.57,-0.47,-0.43,1.26,1.27,1.26
487.74,1.82,0.55,1.81,0.53,-0.53,-0.44,-0.40,1.29,1.27,1.27
492.62,1.80,0.52,1.77,0.50,-0.50,-0.40,-0.38,1.30,1.28,1.28
497.55,1.77,0.49,1.74,0.46,-0.46,-0.37,-0.35,1.31,1.28,1.28
502.52,1.73,0.44,1.71,0.43,-0.43,-0.34,-0.32,1.30,1.29,1.29
507.55,1.69,0.40,1.68,0.39,-0.39,-0.31,-0.30,1.30,1.29,1.29
512.62,1.64,0.35,1.65,0.36,-0.36,-0.28,-0.27,1.28,1.29,1.29
517.75,1.60,0.30,1.62,0.33,-0.33,-0.24,-0.24,1.27,1.30,1.30
522.93,1.57,0.27,1.59,0.29,-0.29,-0.21,-0.22,1.28,1.30,1.30
528.16,1.54,0.24,1.56,0.26,-0.26,-0.18,-0.19,1.28,1.30,1.30
533.44,1.52,0.22,1.52,0.22,-0.22,-0.15,-0.17,1.30,1.30,1.30
