frequency,raw,error,smoothed,error_smoothed,equalization,parametric_eq,fixed_band_eq,equalized_raw,equalized_smoothed,target
20.00,-14.08,-15.93,-14.08,-15.93,15.95,16.35,6.79,1.87,1.87,1.85
20.20,-13.99,-15.88,-13.99,-15.87,15.88,16.23,6.95,1.89,1.89,1.89
20.40,-13.89,-15.81,-13.89,-15.82,15.81,16.11,7.11,1.93,1.92,1.92
20.61,-13.80,-15.75,-13.80,-15.76,15.75,16.00,7.27,1.95,1.95,1.95
20.81,-13.70,-15.69,-13.70,-15.69,15.68,15.89,7.44,1.98,1.98,1.99
21.02,-13.61,-15.64,-13.61,-15.63,15.61,15.79,7.62,2.00,2.00,2.03
21.23,-13.51,-15.55,-13.51,-15.56,15.54,15.68,7.79,2.03,2.03,2.04
21.44,-13.42,-15.48,-13.42,-15.48,15.47,15.59,7.98,2.06,2.06,2.06
21.66,-13.32,-15.40,-13.32,-15.40,15.40,15.49,8.17,2.08,2.09,2.08
21.87,-13.23,-15.32,-13.23,-15.32,15.33,15.40,8.36,2.11,2.11,2.09
22.09,-13.14,-15.24,-13.15,-15.25,15.27,15.31,8.56,2.13,2.12,2.10
22.31,-13.08,-15.18,-13.08,-15.18,15.20,15.23,8.76,2.12,2.12,2.10
22.54,-13.02,-15.13,-13.02,-15.13,15.13,15.15,8.97,2.11,2.11,2.11
22.76,-12.96,-15.08,-12.96,-15.08,15.06,15.07,9.18,2.10,2.10,2.12
22.99,-12.89,-15.01,-12.88,-15.01,14.98,14.99,9.41,2.10,2.10,2.12
23.22,-12.80,-14.93,-12.80,-14.93,14.91,14.91,9.63,2.11,2.12,2.13
23.45,-12.70,-14.84,-12.70,-14.84,14.84,14.84,9.87,2.14,2.14,2.14
23.69,-12.61,-14.76,-12.60,-14.76,14.77,14.77,10.11,2.16,2.17,2.15
23.92,-12.51,-14.67,-12.52,-14.68,14.70,14.70,10.35,2.20,2.19,2.16
24.16,-12.44,-14.61,-12.45,-14.62,14.63,14.63,10.60,2.20,2.19,2.17
24.40,-12.39,-14.57,-12.39,-14.56,14.57,14.56,10.86,2.18,2.18,2.18
24.65,-12.34,-14.51,-12.34,-14.51,14.50,14.49,11.13,2.16,2.16,2.17
24.89,-12.28,-14.45,-12.28,-14.45,14.43,14.43,11.40,2.15,2.16,2.17
25.14,-12.21,-14.38,-12.21,-14.38,14.36,14.36,11.68,2.16,2.16,2.17
25.39,-12.13,-14.30,-12.13,-14.30,14.29,14.30,11.97,2.16,2.16,2.17
25.65,-12.05,-14.22,-12.05,-14.22,14.22,14.24,12.27,2.17,2.17,2.17
25.91,-11.97,-14.12,-11.97,-14.13,14.14,14.17,12.57,2.17,2.17,2.15
26.16,-11.89,-14.05,-11.89,-14.05,14.05,14.11,12.87,2.17,2.16,2.16
26.43,-11.81,-13.97,-11.81,-13.96,13.97,14.05,13.18,2.16,2.16,2.16
26.69,-11.72,-13.88,-11.72,-13.89,13.89,13.98,13.50,2.17,2.16,2.16
26.96,-11.64,-13.80,-11.64,-13.81,13.81,13.92,13.82,2.17,2.16,2.16
27.23,-11.57,-13.73,-11.56,-13.73,13.73,13.86,14.15,2.16,2.16,2.16
27.50,-11.49,-13.65,-11.49,-13.65,13.65,13.79,14.47,2.16,2.15,2.16
27.77,-11.42,-13.57,-11.42,-13.57,13.57,13.73,14.79,2.15,2.15,2.15
28.05,-11.35,-13.50,-11.35,-13.49,13.49,13.66,15.11,2.15,2.15,2.15
28.33,-11.28,-13.41,-11.28,-13.42,13.42,13.60,15.43,2.14,2.14,2.13
28.62,-11.21,-13.35,-11.21,-13.35,13.35,13.53,15.73,2.14,2.14,2.14
28.90,-11.14,-13.28,-11.14,-13.28,13.29,13.47,16.02,2.15,2.14,2.14
29.19,-11.08,-13.21,-11.08,-13.22,13.22,13.40,16.29,2.14,2.14,2.13
29.48,-11.02,-13.16,-11.02,-13.16,13.16,13.33,16.54,2.14,2.14,2.14
29.78,-10.96,-13.10,-10.96,-13.10,13.10,13.26,16.77,2.14,2.14,2.14
30.08,-10.90,-13.04,-10.90,-13.04,13.04,13.19,16.95,2.14,2.14,2.14
30.38,-10.84,-12.96,-10.85,-12.97,12.97,13.12,17.10,2.13,2.12,2.12
30.68,-10.79,-12.91,-10.79,-12.91,12.89,13.05,17.21,2.10,2.11,2.12
30.99,-10.73,-12.84,-10.72,-12.84,12.81,12.98,17.28,2.08,2.09,2.11
31.30,-10.64,-12.75,-10.64,-12.75,12.73,12.91,17.29,2.09,2.09,2.11
31.61,-10.55,-12.66,-10.55,-12.65,12.64,12.84,17.27,2.09,2.09,2.11
31.93,-10.45,-12.54,-10.46,-12.55,12.56,12.76,17.19,2.11,2.10,2.09
32.24,-10.38,-12.46,-10.37,-12.46,12.49,12.69,17.08,2.11,2.12,2.08
32.57,-10.31,-12.39,-10.30,-12.38,12.43,12.62,16.93,2.12,2.12,2.08
32.89,-10.24,-12.32,-10.25,-12.33,12.37,12.54,16.74,2.13,2.12,2.08
33.22,-10.22,-12.30,-10.22,-12.30,12.32,12.47,16.53,2.10,2.09,2.08
33.55,-10.21,-12.28,-10.21,-12.28,12.27,12.39,16.29,2.06,2.06,2.07
33.89,-10.20,-12.27,-10.19,-12.26,12.22,12.31,16.04,2.02,2.03,2.07
34.23,-10.15,-12.22,-10.14,-12.21,12.16,12.24,15.77,2.02,2.02,2.07
34.57,-10.07,-12.13,-10.08,-12.14,12.11,12.16,15.50,2.04,2.03,2.06
34.92,-10.00,-12.05,-10.00,-12.06,12.05,12.09,15.22,2.05,2.05,2.05
35.27,-9.92,-11.97,-9.91,-11.96,11.99,12.01,14.93,2.07,2.07,2.05
35.62,-9.84,-11.88,-9.84,-11.88,11.92,11.93,14.65,2.08,2.09,2.04
35.97,-9.76,-11.79,-9.78,-11.82,11.86,11.86,14.36,2.10,2.08,2.03
36.33,-9.74,-11.77,-9.75,-11.78,11.79,11.78,14.08,2.05,2.04,2.03
36.70,-9.73,-11.76,-9.72,-11.74,11.72,11.70,13.81,1.99,2.00,2.03
37.06,-9.70,-11.71,-9.68,-11.70,11.65,11.63,13.54,1.95,1.97,2.01
37.43,-9.61,-11.62,-9.61,-11.62,11.58,11.55,13.27,1.98,1.97,2.01
37.81,-9.52,-11.52,-9.53,-11.53,11.52,11.48,13.02,2.00,1.99,2.00
38.19,-9.44,-11.43,-9.44,-11.43,11.46,11.40,12.77,2.02,2.02,1.99
38.57,-9.37,-11.36,-9.36,-11.35,11.40,11.32,12.53,2.03,2.03,1.99
38.95,-9.30,-11.28,-9.31,-11.29,11.33,11.25,12.29,2.03,2.02,1.98
39.34,-9.28,-11.25,-9.28,-11.25,11.26,11.17,12.06,1.99,1.98,1.97
39.74,-9.27,-11.22,-9.26,-11.22,11.20,11.10,11.85,1.93,1.94,1.95
40.14,-9.23,-11.19,-9.22,-11.18,11.13,11.03,11.63,1.90,1.91,1.96
40.54,-9.15,-11.10,-9.15,-11.11,11.07,10.95,11.43,1.92,1.91,1.95
40.94,-9.07,-11.02,-9.07,-11.01,11.00,10.88,11.24,1.94,1.94,1.95
41.35,-8.98,-10.91,-8.97,-10.91,10.93,10.81,11.05,1.96,1.96,1.93
41.76,-8.89,-10.80,-8.90,-10.81,10.86,10.74,10.87,1.97,1.96,1.91
42.18,-8.84,-10.74,-8.86,-10.76,10.78,10.66,10.69,1.94,1.92,1.90
42.60,-8.84,-10.71,-8.83,-10.71,10.70,10.59,10.53,1.86,1.86,1.87
43.03,-8.83,-10.69,-8.79,-10.65,10.62,10.52,10.37,1.79,1.82,1.86
43.46,-8.73,-10.56,-8.73,-10.55,10.54,10.45,10.22,1.81,1.81,1.83
43.90,-8.63,-10.41,-8.66,-10.45,10.46,10.38,10.07,1.83,1.79,1.78
44.33,-8.61,-10.36,-8.62,-10.37,10.38,10.31,9.94,1.77,1.76,1.75
44.78,-8.61,-10.33,-8.59,-10.30,10.30,10.24,9.80,1.69,1.72,1.72
45.23,-8.56,-10.25,-8.53,-10.22,10.22,10.17,9.68,1.66,1.69,1.69
45.68,-8.45,-10.11,-8.47,-10.13,10.14,10.10,9.56,1.69,1.68,1.66
46.13,-8.38,-10.02,-8.41,-10.06,10.07,10.03,9.45,1.69,1.66,1.64
46.60,-8.38,-10.01,-8.37,-10.00,10.00,9.96,9.34,1.62,1.63,1.63
47.06,-8.37,-9.98,-8.32,-9.94,9.93,9.89,9.24,1.56,1.61,1.61
47.53,-8.26,-9.87,-8.26,-9.87,9.86,9.82,9.14,1.60,1.60,1.61
48.01,-8.15,-9.76,-8.20,-9.80,9.80,9.75,9.05,1.65,1.60,1.61
48.49,-8.15,-9.74,-8.15,-9.74,9.74,9.68,8.96,1.59,1.59,1.59
48.97,-8.15,-9.73,-8.10,-9.68,9.68,9.61,8.88,1.53,1.58,1.58
49.46,-8.04,-9.61,-8.04,-9.61,9.63,9.54,8.81,1.59,1.59,1.57
49.96,-7.93,-9.50,-7.97,-9.55,9.57,9.47,8.73,1.64,1.60,1.57
50.46,-7.92,-9.50,-7.92,-9.50,9.52,9.40,8.67,1.60,1.60,1.58
50.96,-7.92,-9.51,-7.90,-9.48,9.48,9.33,8.60,1.56,1.58,1.59
51.47,-7.87,-9.45,-7.87,-9.45,9.43,9.26,8.54,1.56,1.56,1.58
51.99,-7.82,-9.38,-7.82,-9.38,9.37,9.19,8.49,1.55,1.56,1.56
52.51,-7.76,-9.31,-7.76,-9.31,9.31,9.12,8.43,1.55,1.56,1.55
53.03,-7.70,-9.22,-7.73,-9.25,9.25,9.04,8.38,1.55,1.52,1.52
53.56,-7.70,-9.19,-7.69,-9.18,9.17,8.97,8.33,1.47,1.47,1.49
54.10,-7.68,-9.13,-7.63,-9.08,9.07,8.90,8.28,1.39,1.44,1.45
54.64,-7.55,-8.95,-7.57,-8.98,8.96,8.82,8.24,1.41,1.39,1.40
55.18,-7.47,-8.82,-7.51,-8.86,8.85,8.75,8.19,1.38,1.34,1.35
55.74,-7.47,-8.77,-7.43,-8.74,8.75,8.67,8.15,1.28,1.31,1.30
56.29,-7.40,-8.65,-7.37,-8.62,8.63,8.60,8.11,1.24,1.26,1.25
56.86,-7.27,-8.46,-7.31,-8.49,8.52,8.52,8.06,1.25,1.21,1.19
57.42,-7.24,-8.36,-7.25,-8.38,8.41,8.44,8.02,1.17,1.15,1.12
58.00,-7.24,-8.30,-7.24,-8.30,8.30,8.37,7.98,1.06,1.06,1.06
58.58,-7.24,-8.24,-7.22,-8.23,8.20,8.29,7.93,0.96,0.97,1.00
59.16,-7.20,-8.15,-7.17,-8.11,8.09,8.21,7.88,0.90,0.93,0.95
59.76,-7.07,-7.96,-7.10,-7.99,7.99,8.13,7.83,0.92,0.89,0.89
60.35,-7.02,-7.84,-7.04,-7.87,7.88,8.05,7.78,0.86,0.84,0.82
60.96,-7.01,-7.78,-7.02,-7.78,7.77,7.97,7.73,0.76,0.75,0.77
61.57,-7.01,-7.71,-6.99,-7.69,7.66,7.89,7.68,0.65,0.68,0.70
62.18,-6.97,-7.60,-6.93,-7.57,7.56,7.81,7.62,0.59,0.63,0.63
62.80,-6.82,-7.41,-6.86,-7.44,7.47,7.72,7.56,0.65,0.61,0.59
63.43,-6.78,-7.31,-6.80,-7.33,7.38,7.64,7.50,0.60,0.58,0.53
64.07,-6.78,-7.27,-6.77,-7.25,7.29,7.56,7.43,0.52,0.53,0.49
64.71,-6.78,-7.22,-6.79,-7.23,7.21,7.48,7.36,0.43,0.42,0.44
65.35,-6.78,-7.17,-6.78,-7.18,7.13,7.39,7.29,0.35,0.35,0.39
66.01,-6.78,-7.14,-6.73,-7.08,7.05,7.31,7.22,0.27,0.33,0.36
66.67,-6.63,-6.95,-6.66,-6.98,6.97,7.23,7.15,0.34,0.31,0.32
67.33,-6.56,-6.85,-6.60,-6.89,6.89,7.14,7.07,0.33,0.29,0.29
68.01,-6.56,-6.82,-6.55,-6.81,6.81,7.06,6.99,0.25,0.26,0.26
68.69,-6.54,-6.77,-6.50,-6.73,6.73,6.98,6.91,0.19,0.23,0.23
69.37,-6.45,-6.64,-6.44,-6.64,6.65,6.90,6.83,0.20,0.21,0.19
70.07,-6.33,-6.49,-6.37,-6.54,6.58,6.81,6.75,0.25,0.20,0.16
70.77,-6.33,-6.48,-6.33,-6.47,6.50,6.73,6.67,0.17,0.18,0.15
71.48,-6.33,-6.44,-6.33,-6.45,6.43,6.65,6.59,0.10,0.10,0.11
72.19,-6.33,-6.42,-6.33,-6.42,6.36,6.57,6.51,0.03,0.03,0.09
72.91,-6.33,-6.38,-6.28,-6.33,6.29,6.49,6.43,-0.04,0.02,0.05
73.64,-6.18,-6.20,-6.20,-6.23,6.23,6.40,6.36,0.05,0.03,0.02
74.38,-6.10,-6.09,-6.13,-6.12,6.17,6.32,6.28,0.07,0.04,-0.01
75.12,-6.10,-6.06,-6.09,-6.05,6.10,6.25,6.21,0.00,0.01,-0.04
75.87,-6.10,-6.03,-6.10,-6.03,6.03,6.17,6.13,-0.07,-0.07,-0.07
76.63,-6.10,-6.00,-6.10,-6.00,5.95,6.09,6.06,-0.15,-0.15,-0.10
77.40,-6.08,-5.95,-6.06,-5.93,5.89,6.01,5.99,-0.19,-0.17,-0.13
78.17,-6.01,-5.85,-5.99,-5.84,5.83,5.94,5.93,-0.17,-0.16,-0.16
78.95,-5.88,-5.71,-5.92,-5.75,5.78,5.86,5.86,-0.10,-0.14,-0.17
79.74,-5.87,-5.68,-5.87,-5.68,5.73,5.79,5.80,-0.14,-0.15,-0.19
80.54,-5.87,-5.66,-5.86,-5.66,5.67,5.71,5.74,-0.20,-0.20,-0.21
81.35,-5.87,-5.64,-5.87,-5.65,5.61,5.64,5.69,-0.26,-0.26,-0.23
82.16,-5.85,-5.62,-5.83,-5.60,5.56,5.57,5.64,-0.29,-0.27,-0.23
82.98,-5.77,-5.54,-5.76,-5.53,5.52,5.50,5.59,-0.24,-0.24,-0.23
83.81,-5.67,-5.43,-5.70,-5.46,5.49,5.43,5.55,-0.18,-0.21,-0.24
84.65,-5.65,-5.40,-5.65,-5.41,5.46,5.37,5.51,-0.19,-0.20,-0.25
85.50,-5.65,-5.41,-5.65,-5.40,5.42,5.30,5.47,-0.23,-0.23,-0.24
86.35,-5.65,-5.41,-5.66,-5.41,5.37,5.24,5.43,-0.27,-0.28,-0.24
87.22,-5.64,-5.40,-5.62,-5.38,5.34,5.18,5.40,-0.30,-0.28,-0.24
88.09,-5.58,-5.34,-5.55,-5.32,5.31,5.11,5.38,-0.27,-0.24,-0.24
88.97,-5.43,-5.21,-5.48,-5.25,5.28,5.06,5.35,-0.15,-0.20,-0.22
89.86,-5.42,-5.20,-5.42,-5.20,5.24,5.00,5.33,-0.18,-0.18,-0.22
90.76,-5.42,-5.18,-5.41,-5.19,5.20,4.94,5.32,-0.22,-0.22,-0.24
91.66,-5.42,-5.19,-5.42,-5.19,5.14,4.89,5.31,-0.28,-0.28,-0.23
92.58,-5.42,-5.16,-5.38,-5.13,5.09,4.83,5.30,-0.33,-0.29,-0.26
93.51,-5.32,-5.07,-5.32,-5.06,5.04,4.78,5.29,-0.28,-0.28,-0.25
94.44,-5.21,-4.94,-5.24,-4.98,4.99,4.74,5.29,-0.22,-0.25,-0.27
95.39,-5.19,-4.91,-5.19,-4.91,4.95,4.69,5.29,-0.24,-0.24,-0.28
96.34,-5.19,-4.87,-5.18,-4.87,4.90,4.64,5.30,-0.28,-0.28,-0.32
97.30,-5.19,-4.85,-5.19,-4.85,4.86,4.60,5.30,-0.33,-0.33,-0.34
98.28,-5.19,-4.83,-5.19,-4.83,4.82,4.56,5.31,-0.37,-0.37,-0.36
99.26,-5.19,-4.80,-5.19,-4.80,4.79,4.52,5.32,-0.40,-0.40,-0.39
100.25,-5.19,-4.77,-5.19,-4.77,4.75,4.48,5.34,-0.44,-0.44,-0.42
101.25,-5.19,-4.74,-5.19,-4.74,4.71,4.45,5.36,-0.47,-0.47,-0.45
102.27,-5.19,-4.70,-5.19,-4.70,4.68,4.42,5.37,-0.51,-0.51,-0.49
103.29,-5.19,-4.65,-5.19,-4.66,4.64,4.39,5.39,-0.55,-0.55,-0.54
104.32,-5.19,-4.61,-5.18,-4.60,4.62,4.36,5.41,-0.57,-0.56,-0.58
105.37,-5.19,-4.56,-5.18,-4.56,4.59,4.34,5.44,-0.59,-0.59,-0.63
106.42,-5.19,-4.51,-5.21,-4.53,4.58,4.31,5.46,-0.61,-0.64,-0.68
107.48,-5.29,-4.54,-5.29,-4.54,4.56,4.29,5.48,-0.73,-0.73,-0.75
108.56,-5.41,-4.58,-5.42,-4.60,4.55,4.28,5.51,-0.85,-0.86,-0.83
109.64,-5.56,-4.66,-5.54,-4.65,4.57,4.26,5.53,-0.99,-0.97,-0.90
110.74,-5.65,-4.69,-5.60,-4.64,4.60,4.25,5.55,-1.05,-1.00,-0.96
111.85,-5.65,-4.62,-5.65,-4.62,4.65,4.24,5.57,-1.00,-1.00,-1.03
112.97,-5.67,-4.55,-5.74,-4.64,4.72,4.23,5.58,-0.95,-1.03,-1.12
114.10,-5.92,-4.74,-5.92,-4.73,4.80,4.23,5.60,-1.12,-1.12,-1.18
115.24,-6.18,-4.92,-6.16,-4.90,4.90,4.23,5.61,-1.27,-1.25,-1.26
116.39,-6.43,-5.09,-6.39,-5.05,5.03,4.23,5.62,-1.40,-1.36,-1.34
117.55,-6.57,-5.17,-6.58,-5.18,5.18,4.23,5.62,-1.39,-1.40,-1.40
118.73,-6.74,-5.27,-6.78,-5.32,5.34,4.24,5.62,-1.40,-1.44,-1.47
119.92,-7.00,-5.49,-6.99,-5.47,5.51,4.25,5.62,-1.48,-1.48,-1.51
121.12,-7.25,-5.68,-7.21,-5.65,5.67,4.26,5.61,-1.58,-1.54,-1.57
122.33,-7.39,-5.78,-7.42,-5.82,5.79,4.28,5.60,-1.60,-1.63,-1.61
123.55,-7.57,-5.94,-7.57,-5.93,5.88,4.30,5.58,-1.69,-1.69,-1.63
124.79,-7.69,-6.02,-7.66,-5.99,5.93,4.32,5.55,-1.76,-1.74,-1.67
126.03,-7.70,-5.99,-7.72,-6.02,5.94,4.35,5.52,-1.76,-1.78,-1.71
127.29,-7.70,-5.96,-7.69,-5.95,5.91,4.37,5.49,-1.79,-1.78,-1.74
128.57,-7.65,-5.87,-7.62,-5.85,5.85,4.40,5.45,-1.80,-1.77,-1.78
129.85,-7.49,-5.68,-7.52,-5.71,5.76,4.44,5.40,-1.73,-1.76,-1.81
131.15,-7.42,-5.58,-7.40,-5.56,5.63,4.47,5.35,-1.79,-1.77,-1.84
132.46,-7.29,-5.42,-7.32,-5.45,5.49,4.51,5.29,-1.80,-1.84,-1.87
133.79,-7.24,-5.34,-7.26,-5.35,5.33,4.55,5.23,-1.91,-1.93,-1.90
135.12,-7.22,-5.27,-7.15,-5.21,5.16,4.59,5.17,-2.06,-1.99,-1.95
136.48,-7.01,-5.03,-7.01,-5.03,4.99,4.63,5.10,-2.02,-2.01,-1.98
137.84,-6.80,-4.79,-6.84,-4.82,4.82,4.67,5.03,-1.98,-2.02,-2.01
139.22,-6.66,-4.60,-6.67,-4.61,4.63,4.71,4.95,-2.03,-2.04,-2.06
140.61,-6.57,-4.46,-6.56,-4.46,4.46,4.76,4.88,-2.11,-2.10,-2.11
142.02,-6.45,-4.32,-6.44,-4.31,4.29,4.80,4.80,-2.16,-2.15,-2.13
143.44,-6.35,-4.18,-6.30,-4.13,4.15,4.84,4.71,-2.20,-2.16,-2.17
144.87,-6.14,-3.93,-6.18,-3.98,4.03,4.88,4.63,-2.10,-2.15,-2.21
146.32,-6.11,-3.85,-6.13,-3.88,3.96,4.92,4.55,-2.15,-2.18,-2.26
147.78,-6.15,-3.85,-6.16,-3.85,3.92,4.95,4.46,-2.23,-2.24,-2.30
149.26,-6.27,-3.90,-6.23,-3.86,3.89,4.99,4.38,-2.38,-2.34,-2.37
150.75,-6.33,-3.88,-6.31,-3.87,3.86,5.02,4.29,-2.47,-2.45,-2.45
152.26,-6.34,-3.82,-6.40,-3.88,3.81,5.04,4.21,-2.53,-2.59,-2.52
153.78,-6.48,-3.89,-6.48,-3.88,3.74,5.06,4.13,-2.74,-2.74,-2.59
155.32,-6.55,-3.86,-6.52,-3.84,3.67,5.07,4.04,-2.88,-2.85,-2.69
156.88,-6.54,-3.78,-6.51,-3.75,3.60,5.08,3.96,-2.94,-2.91,-2.76
158.44,-6.39,-3.56,-6.37,-3.53,3.55,5.09,3.88,-2.84,-2.82,-2.83
160.03,-6.27,-3.36,-6.24,-3.33,3.53,5.09,3.80,-2.74,-2.71,-2.91
161.63,-6.13,-3.16,-6.25,-3.28,3.56,5.08,3.73,-2.57,-2.69,-2.97
163.24,-6.49,-3.47,-6.53,-3.51,3.63,5.07,3.65,-2.86,-2.90,-3.02
164.88,-7.01,-3.95,-7.03,-3.97,3.77,5.06,3.58,-3.24,-3.27,-3.06
166.53,-7.71,-4.61,-7.62,-4.53,3.96,5.04,3.51,-3.75,-3.66,-3.10
168.19,-8.16,-5.03,-8.10,-4.98,4.23,5.02,3.44,-3.93,-3.87,-3.13
169.87,-8.43,-5.29,-8.47,-5.33,4.55,5.01,3.37,-3.88,-3.92,-3.14
171.57,-8.68,-5.53,-8.72,-5.57,4.85,4.99,3.31,-3.83,-3.87,-3.15
173.29,-8.94,-5.79,-8.92,-5.78,5.12,4.98,3.25,-3.82,-3.81,-3.15
175.02,-9.06,-5.93,-9.03,-5.89,5.32,4.98,3.19,-3.74,-3.71,-3.13
176.77,-9.06,-5.92,-9.02,-5.89,5.47,4.98,3.13,-3.59,-3.56,-3.14
178.54,-8.89,-5.76,-8.92,-5.80,5.56,4.99,3.07,-3.33,-3.37,-3.13
180.32,-8.76,-5.64,-8.78,-5.66,5.58,5.02,3.02,-3.18,-3.21,-3.12
182.13,-8.66,-5.54,-8.65,-5.53,5.53,5.04,2.97,-3.13,-3.12,-3.12
183.95,-8.52,-5.40,-8.53,-5.41,5.43,5.07,2.92,-3.09,-3.10,-3.12
185.79,-8.39,-5.26,-8.37,-5.24,5.28,5.08,2.88,-3.11,-3.10,-3.13
187.65,-8.22,-5.07,-8.20,-5.05,5.09,5.07,2.83,-3.13,-3.10,-3.15
189.52,-7.98,-4.81,-8.03,-4.86,4.89,5.01,2.79,-3.08,-3.13,-3.17
191.42,-7.87,-4.68,-7.86,-4.68,4.71,4.90,2.75,-3.16,-3.16,-3.19
193.33,-7.75,-4.54,-7.72,-4.52,4.55,4.74,2.71,-3.20,-3.16,-3.21
195.27,-7.59,-4.38,-7.62,-4.40,4.41,4.55,2.67,-3.18,-3.20,-3.21
197.22,-7.49,-4.26,-7.51,-4.28,4.29,4.33,2.64,-3.20,-3.22,-3.23
199.19,-7.46,-4.19,-7.41,-4.16,4.19,4.11,2.61,-3.27,-3.23,-3.27
201.18,-7.33,-4.06,-7.34,-4.07,4.09,3.90,2.58,-3.24,-3.25,-3.27
203.19,-7.24,-3.95,-7.28,-3.99,3.99,3.70,2.54,-3.25,-3.29,-3.29
205.23,-7.24,-3.92,-7.21,-3.91,3.88,3.52,2.52,-3.36,-3.33,-3.32
207.28,-7.16,-3.84,-7.15,-3.83,3.76,3.35,2.49,-3.40,-3.40,-3.32
209.35,-7.04,-3.70,-7.03,-3.68,3.62,3.20,2.46,-3.42,-3.41,-3.34
211.44,-6.89,-3.52,-6.87,-3.52,3.47,3.07,2.44,-3.42,-3.40,-3.37
213.56,-6.64,-3.27,-6.69,-3.32,3.31,2.96,2.41,-3.33,-3.38,-3.37
215.69,-6.56,-3.19,-6.52,-3.14,3.16,2.85,2.38,-3.40,-3.36,-3.37
217.85,-6.35,-2.95,-6.36,-2.97,3.01,2.77,2.36,-3.34,-3.35,-3.40
220.03,-6.24,-2.83,-6.24,-2.83,2.88,2.69,2.33,-3.35,-3.36,-3.41
222.23,-6.14,-2.71,-6.14,-2.72,2.78,2.64,2.31,-3.36,-3.36,-3.43
224.45,-6.10,-2.67,-6.11,-2.68,2.71,2.59,2.28,-3.39,-3.40,-3.43
226.70,-6.10,-2.67,-6.09,-2.66,2.66,2.56,2.26,-3.44,-3.43,-3.43
228.96,-6.10,-2.66,-6.10,-2.66,2.64,2.55,2.23,-3.46,-3.46,-3.44
231.25,-6.10,-2.66,-6.10,-2.66,2.63,2.55,2.21,-3.47,-3.47,-3.44
233.57,-6.10,-2.65,-6.10,-2.65,2.63,2.56,2.18,-3.47,-3.47,-3.45
235.90,-6.10,-2.64,-6.10,-2.64,2.64,2.59,2.15,-3.46,-3.46,-3.46
238.26,-6.10,-2.64,-6.10,-2.64,2.66,2.62,2.12,-3.44,-3.44,-3.46
240.64,-6.10,-2.64,-6.10,-2.64,2.67,2.66,2.08,-3.43,-3.43,-3.46
243.05,-6.10,-2.65,-6.10,-2.65,2.68,2.69,2.05,-3.42,-3.42,-3.45
245.48,-6.10,-2.66,-6.10,-2.66,2.68,2.71,2.01,-3.42,-3.43,-3.44
247.93,-6.10,-2.67,-6.11,-2.68,2.65,2.70,1.98,-3.45,-3.46,-3.43
250.41,-6.10,-2.66,-6.09,-2.66,2.61,2.66,1.94,-3.49,-3.49,-3.44
252.92,-6.06,-2.63,-6.03,-2.61,2.54,2.57,1.90,-3.51,-3.49,-3.43
255.45,-5.90,-2.50,-5.90,-2.49,2.46,2.43,1.85,-3.44,-3.44,-3.40
258.00,-5.74,-2.34,-5.73,-2.33,2.36,2.26,1.81,-3.38,-3.38,-3.40
260.58,-5.50,-2.10,-5.54,-2.15,2.22,2.07,1.76,-3.28,-3.33,-3.40
263.19,-5.41,-2.03,-5.39,-2.01,2.04,1.86,1.71,-3.37,-3.35,-3.38
265.82,-5.21,-1.83,-5.24,-1.87,1.84,1.65,1.66,-3.37,-3.40,-3.38
268.48,-5.11,-1.76,-5.06,-1.71,1.63,1.43,1.61,-3.48,-3.43,-3.35
271.16,-4.82,-1.48,-4.80,-1.47,1.41,1.23,1.55,-3.41,-3.40,-3.34
273.87,-4.50,-1.17,-4.51,-1.19,1.18,1.03,1.49,-3.31,-3.33,-3.33
276.61,-4.17,-0.88,-4.18,-0.88,0.95,0.85,1.44,-3.22,-3.23,-3.29
279.38,-3.90,-0.62,-3.91,-0.64,0.70,0.68,1.38,-3.20,-3.21,-3.28
282.17,-3.66,-0.41,-3.69,-0.44,0.45,0.52,1.32,-3.21,-3.24,-3.25
284.99,-3.51,-0.29,-3.47,-0.25,0.20,0.36,1.25,-3.31,-3.27,-3.22
287.84,-3.23,-0.03,-3.20,-0.01,-0.03,0.22,1.19,-3.26,-3.23,-3.20
290.72,-2.93,0.23,-2.93,0.23,-0.24,0.08,1.13,-3.17,-3.17,-3.16
293.63,-2.60,0.54,-2.65,0.48,-0.43,-0.05,1.06,-3.03,-3.08,-3.14
296.57,-2.47,0.64,-2.45,0.65,-0.61,-0.18,1.00,-3.08,-3.06,-3.11
299.53,-2.28,0.80,-2.31,0.78,-0.78,-0.31,0.93,-3.06,-3.08,-3.08
302.53,-2.22,0.85,-2.15,0.90,-0.93,-0.43,0.86,-3.15,-3.08,-3.07
305.55,-2.00,1.03,-2.00,1.04,-1.06,-0.54,0.80,-3.06,-3.06,-3.03
308.61,-1.79,1.22,-1.86,1.15,-1.16,-0.66,0.73,-2.95,-3.02,-3.01
311.69,-1.77,1.23,-1.72,1.27,-1.24,-0.77,0.66,-3.01,-2.95,-3.00
314.81,-1.63,1.34,-1.63,1.35,-1.30,-0.88,0.59,-2.93,-2.93,-2.97
317.96,-1.55,1.42,-1.58,1.39,-1.37,-0.99,0.52,-2.92,-2.95,-2.97
321.14,-1.54,1.44,-1.55,1.42,-1.43,-1.09,0.45,-2.97,-2.98,-2.98
324.35,-1.54,1.43,-1.52,1.45,-1.50,-1.20,0.38,-3.03,-3.01,-2.97
327.59,-1.51,1.45,-1.48,1.48,-1.55,-1.30,0.31,-3.06,-3.03,-2.96
330.87,-1.36,1.59,-1.39,1.56,-1.61,-1.41,0.24,-2.97,-3.00,-2.95
334.18,-1.31,1.64,-1.29,1.66,-1.66,-1.51,0.17,-2.97,-2.94,-2.95
337.52,-1.18,1.76,-1.19,1.74,-1.70,-1.61,0.10,-2.88,-2.89,-2.94
340.90,-1.11,1.80,-1.13,1.79,-1.74,-1.70,0.03,-2.85,-2.87,-2.91
344.30,-1.09,1.81,-1.09,1.81,-1.76,-1.80,-0.04,-2.85,-2.85,-2.90
347.75,-1.09,1.80,-1.08,1.80,-1.77,-1.89,-0.12,-2.86,-2.86,-2.89
351.23,-1.09,1.77,-1.09,1.77,-1.77,-1.98,-0.19,-2.86,-2.85,-2.86
354.74,-1.09,1.75,-1.09,1.75,-1.75,-2.06,-0.26,-2.84,-2.84,-2.84
358.28,-1.09,1.72,-1.09,1.72,-1.73,-2.14,-0.33,-2.82,-2.82,-2.81
361.87,-1.09,1.70,-1.10,1.69,-1.72,-2.22,-0.40,-2.80,-2.82,-2.79
365.49,-1.09,1.68,-1.08,1.69,-1.72,-2.29,-0.48,-2.81,-2.80,-2.77
369.14,-1.07,1.68,-1.03,1.71,-1.73,-2.36,-0.55,-2.80,-2.77,-2.75
372.83,-0.92,1.80,-0.96,1.77,-1.77,-2.42,-0.62,-2.69,-2.73,-2.72
376.56,-0.86,1.84,-0.87,1.83,-1.83,-2.47,-0.70,-2.69,-2.70,-2.70
380.33,-0.77,1.90,-0.75,1.92,-1.92,-2.52,-0.77,-2.68,-2.67,-2.67
384.13,-0.66,1.99,-0.65,2.01,-2.02,-2.56,-0.84,-2.68,-2.67,-2.65
387.97,-0.48,2.16,-0.51,2.13,-2.15,-2.59,-0.92,-2.63,-2.66,-2.64
391.85,-0.40,2.24,-0.38,2.25,-2.28,-2.62,-0.99,-2.68,-2.67,-2.64
395.77,-0.24,2.39,-0.24,2.39,-2.42,-2.64,-1.06,-2.66,-2.66,-2.63
399.73,-0.11,2.51,-0.08,2.54,-2.54,-2.65,-1.13,-2.65,-2.62,-2.62
403.72,0.10,2.71,0.09,2.70,-2.65,-2.65,-1.21,-2.55,-2.56,-2.61
407.76,0.25,2.85,0.21,2.81,-2.74,-2.65,-1.28,-2.49,-2.53,-2.60
411.84,0.28,2.87,0.28,2.87,-2.81,-2.64,-1.35,-2.53,-2.52,-2.59
415.96,0.28,2.86,0.29,2.88,-2.86,-2.63,-1.42,-2.58,-2.56,-2.58
420.12,0.28,2.86,0.28,2.86,-2.89,-2.61,-1.49,-2.61,-2.61,-2.58
424.32,0.28,2.86,0.28,2.86,-2.90,-2.58,-1.56,-2.62,-2.62,-2.58
428.56,0.28,2.86,0.28,2.86,-2.90,-2.55,-1.63,-2.62,-2.62,-2.58
432.85,0.28,2.87,0.28,2.86,-2.89,-2.51,-1.69,-2.60,-2.60,-2.59
437.18,0.28,2.86,0.28,2.86,-2.86,-2.47,-1.76,-2.58,-2.58,-2.58
