frequency,raw,error,smoothed,error_smoothed,equalization,parametric_eq,fixed_band_eq,equalized_raw,equalized_smoothed,target
20.00,-5.41,-7.22,-5.42,-7.22,7.24,7.24,2.76,1.82,1.82,1.81
20.20,-5.40,-7.24,-5.40,-7.23,7.23,7.23,2.84,1.83,1.84,1.84
20.40,-5.37,-7.24,-5.37,-7.23,7.22,7.22,2.92,1.85,1.86,1.87
20.61,-5.33,-7.22,-5.33,-7.22,7.21,7.21,3.00,1.88,1.88,1.89
20.81,-5.28,-7.20,-5.29,-7.20,7.20,7.19,3.09,1.92,1.91,1.92
21.02,-5.24,-7.19,-5.24,-7.18,7.18,7.18,3.17,1.94,1.94,1.95
21.23,-5.20,-7.16,-5.20,-7.16,7.16,7.16,3.27,1.96,1.95,1.96
21.44,-5.17,-7.14,-5.16,-7.13,7.13,7.14,3.36,1.96,1.97,1.97
21.66,-5.12,-7.10,-5.13,-7.10,7.10,7.11,3.46,1.98,1.98,1.98
21.87,-5.08,-7.06,-5.09,-7.07,7.07,7.09,3.55,1.99,1.98,1.98
22.09,-5.05,-7.04,-5.05,-7.03,7.03,7.06,3.66,1.98,1.98,1.99
22.31,-5.01,-7.00,-5.01,-7.00,6.99,7.03,3.76,1.98,1.98,1.99
22.54,-4.97,-6.96,-4.97,-6.96,6.96,7.00,3.87,1.98,1.98,1.99
22.76,-4.93,-6.92,-4.93,-6.91,6.92,6.97,3.98,1.98,1.99,1.99
22.99,-4.89,-6.87,-4.89,-6.87,6.88,6.94,4.09,1.98,1.99,1.98
23.22,-4.85,-6.83,-4.86,-6.83,6.84,6.90,4.21,1.99,1.98,1.98
23.45,-4.82,-6.80,-4.82,-6.80,6.80,6.87,4.32,1.97,1.98,1.98
23.69,-4.79,-6.77,-4.78,-6.76,6.76,6.83,4.44,1.96,1.97,1.98
23.92,-4.73,-6.71,-4.74,-6.72,6.71,6.80,4.57,1.98,1.97,1.98
24.16,-4.70,-6.68,-4.70,-6.68,6.67,6.76,4.69,1.97,1.97,1.98
24.40,-4.66,-6.64,-4.66,-6.63,6.63,6.72,4.82,1.97,1.97,1.98
24.65,-4.62,-6.59,-4.62,-6.59,6.59,6.68,4.95,1.97,1.97,1.97
24.89,-4.58,-6.55,-4.58,-6.55,6.55,6.64,5.08,1.97,1.97,1.97
25.14,-4.54,-6.51,-4.54,-6.51,6.51,6.60,5.21,1.97,1.97,1.97
25.39,-4.50,-6.47,-4.50,-6.47,6.47,6.56,5.35,1.97,1.97,1.97
25.65,-4.47,-6.44,-4.47,-6.44,6.44,6.52,5.48,1.96,1.96,1.97
25.91,-4.44,-6.40,-4.44,-6.40,6.40,6.48,5.62,1.96,1.96,1.96
26.16,-4.41,-6.37,-4.41,-6.37,6.36,6.44,5.75,1.95,1.95,1.96
26.43,-4.37,-6.33,-4.37,-6.33,6.33,6.40,5.88,1.95,1.96,1.96
26.69,-4.33,-6.29,-4.33,-6.29,6.29,6.35,6.02,1.96,1.96,1.96
26.96,-4.29,-6.25,-4.30,-6.26,6.26,6.31,6.15,1.96,1.95,1.96
27.23,-4.28,-6.23,-4.27,-6.22,6.22,6.27,6.28,1.94,1.95,1.95
27.50,-4.24,-6.19,-4.24,-6.18,6.18,6.23,6.40,1.94,1.94,1.95
27.77,-4.20,-6.14,-4.21,-6.15,6.14,6.19,6.52,1.94,1.94,1.94
28.05,-4.17,-6.11,-4.17,-6.10,6.11,6.15,6.64,1.93,1.94,1.94
28.33,-4.14,-6.07,-4.14,-6.07,6.07,6.11,6.75,1.93,1.93,1.93
28.62,-4.10,-6.03,-4.11,-6.03,6.03,6.06,6.85,1.93,1.92,1.93
28.90,-4.07,-6.00,-4.07,-6.00,5.99,6.02,6.95,1.92,1.92,1.93
29.19,-4.04,-5.96,-4.04,-5.95,5.96,5.98,7.03,1.91,1.92,1.92
29.48,-4.00,-5.92,-4.00,-5.92,5.92,5.94,7.11,1.92,1.91,1.92
29.78,-3.96,-5.87,-3.97,-5.88,5.88,5.90,7.18,1.92,1.91,1.91
30.08,-3.95,-5.86,-3.94,-5.84,5.84,5.86,7.24,1.89,1.91,1.91
30.38,-3.91,-5.81,-3.91,-5.81,5.81,5.82,7.29,1.89,1.90,1.90
30.68,-3.86,-5.76,-3.88,-5.77,5.77,5.78,7.32,1.91,1.89,1.90
30.99,-3.85,-5.74,-3.84,-5.73,5.73,5.75,7.34,1.88,1.89,1.89
31.30,-3.82,-5.70,-3.81,-5.69,5.69,5.71,7.35,1.87,1.88,1.88
31.61,-3.77,-5.65,-3.79,-5.66,5.66,5.67,7.35,1.88,1.87,1.88
31.93,-3.75,-5.62,-3.75,-5.62,5.62,5.63,7.34,1.87,1.87,1.87
32.24,-3.73,-5.59,-3.72,-5.58,5.58,5.59,7.32,1.85,1.86,1.86
32.57,-3.68,-5.54,-3.70,-5.55,5.55,5.56,7.28,1.86,1.85,1.86
32.89,-3.67,-5.52,-3.66,-5.51,5.51,5.52,7.23,1.84,1.84,1.85
33.22,-3.63,-5.47,-3.63,-5.47,5.47,5.48,7.18,1.84,1.84,1.84
33.55,-3.59,-5.43,-3.60,-5.44,5.43,5.45,7.11,1.84,1.83,1.84
33.89,-3.57,-5.40,-3.57,-5.39,5.39,5.41,7.04,1.82,1.83,1.83
34.23,-3.54,-5.36,-3.54,-5.35,5.35,5.38,6.95,1.81,1.82,1.82
34.57,-3.49,-5.30,-3.51,-5.31,5.31,5.34,6.87,1.82,1.81,1.81
34.92,-3.48,-5.28,-3.48,-5.27,5.27,5.31,6.77,1.79,1.80,1.80
35.27,-3.45,-5.24,-3.45,-5.24,5.24,5.27,6.67,1.78,1.79,1.79
35.62,-3.42,-5.20,-3.43,-5.20,5.20,5.24,6.57,1.78,1.77,1.78
35.97,-3.40,-5.17,-3.40,-5.16,5.16,5.20,6.46,1.76,1.77,1.77
36.33,-3.36,-5.12,-3.37,-5.12,5.13,5.17,6.35,1.76,1.76,1.76
36.70,-3.35,-5.10,-3.35,-5.09,5.09,5.14,6.24,1.74,1.75,1.75
37.06,-3.31,-5.05,-3.32,-5.06,5.06,5.10,6.13,1.75,1.74,1.74
37.43,-3.31,-5.04,-3.30,-5.03,5.03,5.07,6.01,1.71,1.72,1.73
37.81,-3.26,-4.98,-3.27,-4.99,4.99,5.03,5.90,1.73,1.72,1.72
38.19,-3.26,-4.97,-3.25,-4.96,4.96,5.00,5.79,1.69,1.70,1.71
38.57,-3.22,-4.92,-3.23,-4.92,4.92,4.97,5.68,1.70,1.70,1.70
38.95,-3.21,-4.90,-3.21,-4.89,4.89,4.93,5.57,1.68,1.68,1.69
39.34,-3.18,-4.85,-3.18,-4.85,4.85,4.90,5.46,1.67,1.67,1.67
39.74,-3.17,-4.83,-3.16,-4.82,4.82,4.87,5.36,1.65,1.65,1.66
40.14,-3.12,-4.77,-3.14,-4.78,4.78,4.83,5.25,1.66,1.65,1.65
40.54,-3.12,-4.76,-3.11,-4.75,4.75,4.80,5.15,1.63,1.64,1.64
40.94,-3.08,-4.71,-3.09,-4.72,4.72,4.76,5.05,1.64,1.63,1.63
41.35,-3.07,-4.69,-3.07,-4.69,4.69,4.73,4.96,1.62,1.62,1.62
41.76,-3.06,-4.67,-3.06,-4.66,4.66,4.69,4.87,1.60,1.61,1.61
42.18,-3.03,-4.63,-3.04,-4.64,4.63,4.66,4.78,1.60,1.59,1.60
42.60,-3.03,-4.62,-3.02,-4.61,4.60,4.62,4.69,1.57,1.58,1.59
43.03,-2.99,-4.57,-3.00,-4.58,4.57,4.59,4.61,1.58,1.57,1.58
43.46,-2.98,-4.54,-2.98,-4.54,4.53,4.55,4.53,1.55,1.55,1.56
43.90,-2.97,-4.51,-2.96,-4.50,4.50,4.52,4.46,1.53,1.54,1.54
44.33,-2.93,-4.45,-2.94,-4.46,4.46,4.48,4.39,1.53,1.52,1.52
44.78,-2.93,-4.43,-2.92,-4.42,4.42,4.44,4.32,1.49,1.50,1.50
45.23,-2.89,-4.37,-2.90,-4.38,4.38,4.41,4.26,1.49,1.48,1.48
45.68,-2.89,-4.36,-2.88,-4.34,4.35,4.37,4.19,1.45,1.47,1.47
46.13,-2.84,-4.29,-2.86,-4.31,4.31,4.33,4.14,1.47,1.45,1.45
46.60,-2.84,-4.28,-2.84,-4.27,4.27,4.30,4.08,1.43,1.44,1.44
47.06,-2.82,-4.24,-2.82,-4.23,4.23,4.26,4.03,1.41,1.42,1.42
47.53,-2.79,-4.19,-2.80,-4.20,4.19,4.22,3.98,1.40,1.39,1.40
48.01,-2.79,-4.18,-2.78,-4.16,4.15,4.18,3.93,1.36,1.37,1.39
48.49,-2.75,-4.11,-2.76,-4.12,4.11,4.14,3.89,1.36,1.35,1.36
48.97,-2.75,-4.08,-2.74,-4.07,4.07,4.10,3.85,1.31,1.33,1.33
49.46,-2.70,-4.00,-2.72,-4.01,4.02,4.06,3.81,1.32,1.30,1.30
49.96,-2.70,-3.97,-2.70,-3.97,3.97,4.02,3.78,1.27,1.28,1.27
50.46,-2.68,-3.93,-2.68,-3.92,3.93,3.98,3.74,1.25,1.25,1.25
50.96,-2.65,-3.88,-2.66,-3.88,3.88,3.93,3.71,1.23,1.22,1.23
51.47,-2.65,-3.85,-2.64,-3.84,3.84,3.89,3.68,1.19,1.20,1.20
51.99,-2.61,-3.79,-2.62,-3.80,3.80,3.85,3.65,1.18,1.18,1.18
52.51,-2.61,-3.77,-2.60,-3.76,3.76,3.81,3.63,1.14,1.15,1.16
53.03,-2.57,-3.71,-2.58,-3.72,3.71,3.76,3.60,1.14,1.13,1.14
53.56,-2.56,-3.67,-2.56,-3.67,3.67,3.72,3.58,1.11,1.11,1.11
54.10,-2.55,-3.64,-2.54,-3.63,3.63,3.68,3.56,1.07,1.08,1.09
54.64,-2.51,-3.57,-2.52,-3.58,3.58,3.63,3.53,1.07,1.06,1.06
55.18,-2.51,-3.55,-2.50,-3.54,3.54,3.59,3.51,1.03,1.04,1.04
55.74,-2.47,-3.48,-2.48,-3.49,3.50,3.54,3.49,1.02,1.01,1.01
56.29,-2.47,-3.46,-2.47,-3.45,3.45,3.50,3.47,0.98,0.99,0.99
56.86,-2.45,-3.42,-2.45,-3.41,3.41,3.45,3.44,0.96,0.96,0.97
57.42,-2.42,-3.36,-2.43,-3.37,3.37,3.40,3.42,0.95,0.94,0.94
58.00,-2.42,-3.34,-2.41,-3.33,3.33,3.36,3.39,0.91,0.92,0.92
58.58,-2.38,-3.28,-2.39,-3.29,3.29,3.31,3.37,0.91,0.90,0.90
59.16,-2.37,-3.25,-2.37,-3.25,3.24,3.26,3.34,0.87,0.87,0.88
59.76,-2.35,-3.21,-2.35,-3.21,3.20,3.22,3.31,0.85,0.85,0.86
60.35,-2.33,-3.16,-2.34,-3.16,3.15,3.17,3.28,0.82,0.82,0.83
60.96,-2.33,-3.13,-2.31,-3.11,3.11,3.12,3.25,0.78,0.79,0.80
61.57,-2.28,-3.04,-2.30,-3.06,3.06,3.08,3.21,0.78,0.76,0.76
62.18,-2.28,-3.01,-2.28,-3.01,3.02,3.03,3.18,0.73,0.73,0.73
62.80,-2.28,-2.98,-2.26,-2.96,2.97,2.98,3.14,0.69,0.71,0.70
63.43,-2.24,-2.91,-2.26,-2.93,2.92,2.93,3.09,0.68,0.66,0.67
64.07,-2.24,-2.88,-2.24,-2.88,2.88,2.88,3.05,0.64,0.64,0.64
64.71,-2.24,-2.86,-2.22,-2.83,2.83,2.84,3.00,0.59,0.61,0.62
65.35,-2.19,-2.78,-2.21,-2.80,2.79,2.79,2.96,0.60,0.58,0.59
66.01,-2.19,-2.75,-2.20,-2.75,2.75,2.74,2.91,0.56,0.55,0.56
66.67,-2.19,-2.72,-2.18,-2.70,2.71,2.69,2.85,0.51,0.53,0.53
67.33,-2.16,-2.66,-2.17,-2.66,2.66,2.65,2.80,0.50,0.50,0.50
68.01,-2.14,-2.61,-2.15,-2.62,2.62,2.60,2.74,0.48,0.47,0.47
68.69,-2.14,-2.58,-2.14,-2.57,2.58,2.55,2.68,0.44,0.44,0.44
69.37,-2.14,-2.55,-2.13,-2.53,2.54,2.50,2.62,0.39,0.41,0.41
70.07,-2.10,-2.48,-2.12,-2.49,2.49,2.45,2.56,0.39,0.38,0.38
70.77,-2.10,-2.45,-2.11,-2.45,2.45,2.41,2.50,0.35,0.34,0.35
71.48,-2.10,-2.42,-2.10,-2.41,2.41,2.36,2.44,0.31,0.31,0.32
72.19,-2.10,-2.38,-2.09,-2.37,2.37,2.31,2.37,0.26,0.27,0.28
72.91,-2.08,-2.33,-2.08,-2.32,2.32,2.26,2.31,0.24,0.24,0.25
73.64,-2.05,-2.26,-2.06,-2.27,2.28,2.22,2.24,0.23,0.22,0.21
74.38,-2.05,-2.23,-2.05,-2.22,2.23,2.17,2.18,0.18,0.18,0.18
75.12,-2.05,-2.19,-2.05,-2.19,2.19,2.12,2.11,0.14,0.14,0.14
75.87,-2.05,-2.16,-2.05,-2.16,2.15,2.07,2.05,0.09,0.10,0.11
76.63,-2.05,-2.13,-2.04,-2.11,2.11,2.03,1.98,0.05,0.07,0.08
77.40,-2.00,-2.05,-2.02,-2.06,2.06,1.98,1.92,0.06,0.05,0.05
78.17,-2.00,-2.01,-2.00,-2.01,2.02,1.93,1.85,0.02,0.02,0.01
78.95,-2.00,-1.98,-2.00,-1.97,1.98,1.89,1.79,-0.02,-0.01,-0.02
79.74,-2.00,-1.95,-2.01,-1.95,1.94,1.84,1.73,-0.06,-0.07,-0.05
80.54,-2.00,-1.91,-2.00,-1.91,1.90,1.80,1.66,-0.10,-0.10,-0.09
81.35,-2.00,-1.88,-1.99,-1.86,1.86,1.75,1.60,-0.14,-0.13,-0.12
82.16,-1.96,-1.80,-1.98,-1.81,1.82,1.70,1.54,-0.14,-0.16,-0.16
82.98,-1.96,-1.77,-1.96,-1.77,1.78,1.66,1.48,-0.18,-0.19,-0.19
83.81,-1.96,-1.73,-1.96,-1.72,1.73,1.61,1.42,-0.23,-0.22,-0.23
84.65,-1.96,-1.69,-1.97,-1.70,1.69,1.57,1.36,-0.27,-0.28,-0.27
85.50,-1.96,-1.66,-1.96,-1.66,1.64,1.52,1.30,-0.32,-0.32,-0.30
86.35,-1.96,-1.62,-1.95,-1.61,1.60,1.48,1.24,-0.37,-0.36,-0.34
87.22,-1.93,-1.55,-1.94,-1.55,1.55,1.43,1.18,-0.38,-0.39,-0.38
88.09,-1.91,-1.49,-1.92,-1.50,1.50,1.39,1.13,-0.41,-0.42,-0.42
88.97,-1.91,-1.45,-1.91,-1.45,1.46,1.34,1.07,-0.45,-0.45,-0.46
89.86,-1.91,-1.41,-1.91,-1.40,1.41,1.30,1.02,-0.50,-0.50,-0.50
90.76,-1.91,-1.36,-1.91,-1.36,1.36,1.25,0.96,-0.55,-0.55,-0.55
91.66,-1.91,-1.32,-1.91,-1.32,1.32,1.21,0.91,-0.60,-0.60,-0.59
92.58,-1.91,-1.27,-1.91,-1.27,1.27,1.16,0.86,-0.64,-0.65,-0.64
93.51,-1.91,-1.23,-1.91,-1.23,1.22,1.12,0.81,-0.69,-0.69,-0.68
94.44,-1.91,-1.19,-1.91,-1.18,1.17,1.08,0.75,-0.74,-0.74,-0.72
95.39,-1.89,-1.12,-1.90,-1.12,1.12,1.03,0.70,-0.78,-0.78,-0.77
96.34,-1.89,-1.07,-1.88,-1.06,1.06,0.99,0.65,-0.83,-0.82,-0.82
97.30,-1.86,-0.99,-1.87,-1.00,1.01,0.94,0.61,-0.86,-0.86,-0.87
98.28,-1.86,-0.94,-1.86,-0.94,0.95,0.90,0.56,-0.91,-0.91,-0.92
99.26,-1.86,-0.90,-1.86,-0.89,0.90,0.86,0.51,-0.96,-0.96,-0.96
100.25,-1.86,-0.85,-1.86,-0.85,0.85,0.81,0.46,-1.02,-1.02,-1.01
101.25,-1.86,-0.80,-1.86,-0.80,0.80,0.77,0.42,-1.07,-1.07,-1.06
102.27,-1.86,-0.75,-1.86,-0.75,0.75,0.72,0.37,-1.11,-1.11,-1.11
103.29,-1.86,-0.70,-1.86,-0.70,0.70,0.68,0.33,-1.16,-1.16,-1.16
104.32,-1.86,-0.66,-1.86,-0.66,0.65,0.64,0.28,-1.21,-1.21,-1.20
105.37,-1.86,-0.61,-1.86,-0.61,0.61,0.59,0.24,-1.26,-1.26,-1.25
106.42,-1.86,-0.56,-1.86,-0.56,0.56,0.55,0.20,-1.30,-1.30,-1.30
107.48,-1.86,-0.51,-1.86,-0.51,0.51,0.50,0.15,-1.35,-1.35,-1.35
108.56,-1.86,-0.46,-1.86,-0.46,0.46,0.46,0.11,-1.40,-1.40,-1.40
109.64,-1.86,-0.41,-1.86,-0.41,0.41,0.42,0.07,-1.45,-1.45,-1.45
110.74,-1.86,-0.36,-1.86,-0.36,0.36,0.37,0.03,-1.51,-1.51,-1.50
111.85,-1.86,-0.31,-1.86,-0.31,0.30,0.33,-0.00,-1.56,-1.56,-1.55
112.97,-1.86,-0.25,-1.86,-0.25,0.25,0.28,-0.04,-1.61,-1.61,-1.61
114.10,-1.86,-0.20,-1.86,-0.20,0.20,0.24,-0.08,-1.67,-1.67,-1.66
115.24,-1.86,-0.14,-1.86,-0.14,0.14,0.19,-0.11,-1.72,-1.72,-1.72
116.39,-1.86,-0.09,-1.86,-0.09,0.09,0.15,-0.15,-1.78,-1.78,-1.77
117.55,-1.86,-0.03,-1.86,-0.03,0.03,0.10,-0.18,-1.83,-1.83,-1.83
118.73,-1.86,0.02,-1.86,0.02,-0.02,0.06,-0.21,-1.88,-1.88,-1.88
119.92,-1.86,0.07,-1.86,0.07,-0.07,0.01,-0.24,-1.93,-1.93,-1.93
121.12,-1.86,0.12,-1.86,0.12,-0.12,-0.04,-0.27,-1.98,-1.98,-1.98
122.33,-1.86,0.17,-1.86,0.17,-0.17,-0.08,-0.30,-2.03,-2.03,-2.03
123.55,-1.86,0.22,-1.86,0.22,-0.22,-0.13,-0.33,-2.09,-2.09,-2.08
124.79,-1.86,0.27,-1.86,0.27,-0.28,-0.17,-0.36,-2.14,-2.14,-2.13
126.03,-1.86,0.32,-1.86,0.32,-0.33,-0.22,-0.38,-2.19,-2.19,-2.18
127.29,-1.86,0.37,-1.86,0.38,-0.38,-0.27,-0.40,-2.24,-2.24,-2.23
128.57,-1.86,0.43,-1.86,0.43,-0.43,-0.31,-0.43,-2.29,-2.29,-2.29
129.85,-1.86,0.48,-1.86,0.48,-0.48,-0.36,-0.45,-2.34,-2.34,-2.34
131.15,-1.86,0.53,-1.86,0.54,-0.52,-0.41,-0.47,-2.39,-2.38,-2.39
132.46,-1.86,0.58,-1.86,0.58,-0.57,-0.46,-0.49,-2.43,-2.43,-2.44
133.79,-1.86,0.62,-1.87,0.61,-0.61,-0.50,-0.51,-2.47,-2.48,-2.48
135.12,-1.89,0.64,-1.89,0.64,-0.65,-0.55,-0.53,-2.54,-2.54,-2.53
136.48,-1.91,0.66,-1.90,0.67,-0.69,-0.60,-0.55,-2.60,-2.59,-2.57
137.84,-1.91,0.71,-1.91,0.71,-0.72,-0.65,-0.56,-2.64,-2.64,-2.62
139.22,-1.91,0.76,-1.91,0.76,-0.76,-0.70,-0.58,-2.67,-2.68,-2.67
140.61,-1.91,0.80,-1.91,0.80,-0.80,-0.74,-0.60,-2.71,-2.71,-2.71
142.02,-1.91,0.83,-1.91,0.84,-0.83,-0.79,-0.61,-2.74,-2.74,-2.74
143.44,-1.91,0.87,-1.91,0.87,-0.87,-0.84,-0.63,-2.78,-2.78,-2.78
144.87,-1.91,0.91,-1.91,0.91,-0.90,-0.89,-0.64,-2.81,-2.81,-2.82
146.32,-1.91,0.95,-1.92,0.94,-0.93,-0.94,-0.66,-2.85,-2.85,-2.86
147.78,-1.93,0.96,-1.94,0.96,-0.96,-0.98,-0.68,-2.90,-2.90,-2.89
149.26,-1.96,0.97,-1.95,0.98,-0.99,-1.03,-0.69,-2.96,-2.95,-2.93
150.75,-1.96,1.01,-1.96,1.01,-1.02,-1.08,-0.71,-2.99,-2.99,-2.97
152.26,-1.96,1.05,-1.96,1.05,-1.05,-1.12,-0.72,-3.02,-3.02,-3.01
153.78,-1.96,1.09,-1.96,1.09,-1.08,-1.17,-0.74,-3.05,-3.05,-3.05
155.32,-1.96,1.13,-1.97,1.12,-1.12,-1.22,-0.76,-3.08,-3.09,-3.09
156.88,-1.98,1.15,-1.98,1.15,-1.15,-1.26,-0.77,-3.13,-3.13,-3.13
158.44,-2.00,1.17,-1.99,1.18,-1.19,-1.30,-0.79,-3.19,-3.18,-3.17
160.03,-2.00,1.21,-2.00,1.21,-1.22,-1.35,-0.81,-3.22,-3.22,-3.21
161.63,-2.00,1.25,-2.00,1.25,-1.25,-1.39,-0.83,-3.25,-3.25,-3.25
163.24,-2.00,1.29,-2.00,1.29,-1.28,-1.43,-0.85,-3.28,-3.28,-3.29
164.88,-2.00,1.32,-2.01,1.32,-1.31,-1.47,-0.87,-3.31,-3.32,-3.32
166.53,-2.01,1.35,-2.02,1.34,-1.34,-1.51,-0.89,-3.35,-3.36,-3.36
168.19,-2.05,1.35,-2.04,1.37,-1.37,-1.55,-0.91,-3.43,-3.41,-3.40
169.87,-2.05,1.39,-2.05,1.39,-1.40,-1.58,-0.94,-3.45,-3.45,-3.44
171.57,-2.05,1.43,-2.05,1.43,-1.43,-1.62,-0.96,-3.48,-3.48,-3.48
173.29,-2.05,1.46,-2.05,1.47,-1.46,-1.65,-0.98,-3.51,-3.51,-3.51
175.02,-2.05,1.50,-2.06,1.49,-1.49,-1.68,-1.01,-3.54,-3.55,-3.55
176.77,-2.08,1.51,-2.08,1.52,-1.52,-1.71,-1.04,-3.60,-3.60,-3.59
178.54,-2.10,1.53,-2.09,1.54,-1.55,-1.74,-1.06,-3.65,-3.64,-3.63
180.32,-2.10,1.57,-2.10,1.57,-1.57,-1.77,-1.09,-3.68,-3.68,-3.67
182.13,-2.10,1.60,-2.10,1.61,-1.60,-1.79,-1.12,-3.70,-3.70,-3.70
183.95,-2.10,1.64,-2.11,1.63,-1.63,-1.81,-1.15,-3.73,-3.74,-3.74
185.79,-2.11,1.66,-2.12,1.66,-1.66,-1.83,-1.18,-3.77,-3.78,-3.77
187.65,-2.14,1.67,-2.13,1.68,-1.68,-1.85,-1.21,-3.83,-3.82,-3.81
189.52,-2.14,1.70,-2.14,1.70,-1.71,-1.86,-1.24,-3.85,-3.85,-3.84
191.42,-2.14,1.73,-2.15,1.73,-1.74,-1.87,-1.28,-3.88,-3.88,-3.87
193.33,-2.14,1.76,-2.14,1.77,-1.76,-1.88,-1.31,-3.90,-3.90,-3.90
195.27,-2.14,1.79,-2.14,1.79,-1.78,-1.89,-1.34,-3.92,-3.93,-3.93
197.22,-2.14,1.82,-2.16,1.81,-1.80,-1.90,-1.38,-3.94,-3.96,-3.96
199.19,-2.19,1.80,-2.18,1.82,-1.82,-1.90,-1.41,-4.01,-3.99,-3.99
201.18,-2.19,1.82,-2.19,1.83,-1.83,-1.90,-1.45,-4.02,-4.02,-4.01
203.19,-2.19,1.84,-2.19,1.84,-1.84,-1.90,-1.49,-4.04,-4.04,-4.03
205.23,-2.19,1.86,-2.19,1.86,-1.85,-1.90,-1.52,-4.04,-4.05,-4.05
207.28,-2.19,1.87,-2.21,1.86,-1.86,-1.89,-1.56,-4.05,-4.07,-4.06
209.35,-2.24,1.84,-2.23,1.86,-1.86,-1.89,-1.59,-4.10,-4.09,-4.08
211.44,-2.24,1.86,-2.24,1.86,-1.86,-1.88,-1.63,-4.11,-4.10,-4.10
213.56,-2.24,1.87,-2.25,1.87,-1.87,-1.86,-1.66,-4.11,-4.11,-4.11
215.69,-2.24,1.87,-2.25,1.87,-1.87,-1.85,-1.69,-4.11,-4.12,-4.11
217.85,-2.26,1.86,-2.26,1.86,-1.87,-1.84,-1.73,-4.13,-4.13,-4.12
220.03,-2.28,1.85,-2.27,1.86,-1.86,-1.82,-1.76,-4.14,-4.14,-4.13
222.23,-2.28,1.86,-2.28,1.86,-1.86,-1.80,-1.79,-4.14,-4.14,-4.14
224.45,-2.28,1.86,-2.29,1.86,-1.85,-1.78,-1.82,-4.13,-4.14,-4.14
226.70,-2.29,1.85,-2.30,1.84,-1.84,-1.76,-1.84,-4.13,-4.14,-4.14
228.96,-2.33,1.81,-2.32,1.82,-1.83,-1.74,-1.87,-4.16,-4.15,-4.14
231.25,-2.33,1.80,-2.33,1.81,-1.81,-1.72,-1.89,-4.15,-4.14,-4.13
233.57,-2.33,1.80,-2.34,1.80,-1.80,-1.70,-1.91,-4.13,-4.14,-4.13
235.90,-2.33,1.80,-2.35,1.78,-1.78,-1.67,-1.92,-4.12,-4.13,-4.13
238.26,-2.37,1.75,-2.36,1.77,-1.77,-1.65,-1.94,-4.14,-4.12,-4.12
240.64,-2.37,1.74,-2.37,1.75,-1.75,-1.62,-1.95,-4.12,-4.11,-4.11
243.05,-2.37,1.73,-2.38,1.73,-1.73,-1.59,-1.96,-4.10,-4.10,-4.10
245.48,-2.37,1.72,-2.39,1.71,-1.70,-1.57,-1.96,-4.08,-4.09,-4.09
247.93,-2.42,1.66,-2.41,1.68,-1.68,-1.54,-1.96,-4.10,-4.08,-4.08
250.41,-2.42,1.65,-2.42,1.66,-1.65,-1.51,-1.96,-4.07,-4.07,-4.07
252.92,-2.42,1.63,-2.43,1.63,-1.63,-1.49,-1.95,-4.05,-4.06,-4.05
255.45,-2.42,1.61,-2.44,1.60,-1.60,-1.46,-1.94,-4.02,-4.04,-4.03
258.00,-2.47,1.55,-2.46,1.57,-1.57,-1.43,-1.93,-4.04,-4.03,-4.02
260.58,-2.47,1.53,-2.47,1.53,-1.54,-1.40,-1.92,-4.01,-4.01,-4.00
263.19,-2.47,1.51,-2.47,1.51,-1.51,-1.37,-1.90,-3.98,-3.99,-3.98
265.82,-2.47,1.49,-2.47,1.49,-1.48,-1.35,-1.88,-3.96,-3.96,-3.96
268.48,-2.47,1.47,-2.49,1.46,-1.46,-1.32,-1.85,-3.93,-3.94,-3.94
271.16,-2.51,1.41,-2.50,1.43,-1.43,-1.29,-1.82,-3.94,-3.93,-3.92
273.87,-2.51,1.39,-2.51,1.39,-1.40,-1.27,-1.79,-3.91,-3.91,-3.90
276.61,-2.51,1.37,-2.51,1.37,-1.37,-1.24,-1.76,-3.88,-3.88,-3.88
279.38,-2.51,1.35,-2.51,1.35,-1.34,-1.21,-1.73,-3.85,-3.86,-3.86
282.17,-2.51,1.33,-2.53,1.31,-1.31,-1.19,-1.69,-3.82,-3.84,-3.84
284.99,-2.56,1.26,-2.55,1.28,-1.28,-1.16,-1.65,-3.84,-3.83,-3.82
287.84,-2.56,1.24,-2.56,1.24,-1.25,-1.14,-1.61,-3.81,-3.81,-3.80
290.72,-2.56,1.22,-2.56,1.22,-1.22,-1.11,-1.57,-3.78,-3.79,-3.78
293.63,-2.56,1.20,-2.57,1.20,-1.19,-1.09,-1.53,-3.75,-3.76,-3.76
296.57,-2.57,1.17,-2.58,1.16,-1.16,-1.06,-1.49,-3.73,-3.74,-3.74
299.53,-2.61,1.11,-2.60,1.13,-1.13,-1.04,-1.44,-3.74,-3.73,-3.72
302.53,-2.61,1.09,-2.61,1.09,-1.09,-1.02,-1.40,-3.71,-3.71,-3.70
305.55,-2.61,1.06,-2.61,1.07,-1.06,-0.99,-1.35,-3.67,-3.67,-3.67
308.61,-2.61,1.04,-2.61,1.04,-1.03,-0.97,-1.31,-3.64,-3.64,-3.65
311.69,-2.61,1.01,-2.63,1.00,-1.00,-0.95,-1.26,-3.61,-3.62,-3.62
314.81,-2.65,0.94,-2.64,0.96,-0.97,-0.93,-1.22,-3.62,-3.60,-3.59
317.96,-2.65,0.92,-2.65,0.92,-0.93,-0.91,-1.17,-3.59,-3.58,-3.57
321.14,-2.65,0.90,-2.65,0.90,-0.90,-0.89,-1.13,-3.56,-3.56,-3.55
324.35,-2.65,0.88,-2.65,0.88,-0.87,-0.87,-1.08,-3.53,-3.53,-3.53
327.59,-2.65,0.86,-2.66,0.85,-0.84,-0.85,-1.04,-3.50,-3.51,-3.51
330.87,-2.68,0.81,-2.68,0.82,-0.81,-0.83,-0.99,-3.50,-3.49,-3.49
334.18,-2.70,0.77,-2.69,0.78,-0.79,-0.81,-0.95,-3.49,-3.48,-3.47
337.52,-2.70,0.75,-2.70,0.75,-0.76,-0.80,-0.91,-3.46,-3.46,-3.45
340.90,-2.70,0.73,-2.70,0.73,-0.72,-0.78,-0.86,-3.43,-3.43,-3.43
344.30,-2.70,0.71,-2.71,0.70,-0.69,-0.76,-0.82,-3.40,-3.40,-3.41
347.75,-2.72,0.67,-2.73,0.67,-0.67,-0.75,-0.78,-3.39,-3.39,-3.39
351.23,-2.75,0.62,-2.74,0.63,-0.64,-0.73,-0.74,-3.39,-3.38,-3.37
354.74,-2.75,0.60,-2.75,0.60,-0.62,-0.72,-0.69,-3.37,-3.37,-3.35
358.28,-2.75,0.59,-2.76,0.58,-0.59,-0.70,-0.65,-3.35,-3.35,-3.34
361.87,-2.75,0.57,-2.75,0.57,-0.57,-0.69,-0.61,-3.32,-3.32,-3.32
365.49,-2.75,0.55,-2.75,0.56,-0.55,-0.67,-0.57,-3.30,-3.30,-3.30
369.14,-2.75,0.54,-2.75,0.54,-0.53,-0.66,-0.53,-3.28,-3.28,-3.29
372.83,-2.75,0.52,-2.76,0.52,-0.51,-0.65,-0.50,-3.26,-3.27,-3.27
376.56,-2.77,0.49,-2.77,0.49,-0.49,-0.63,-0.46,-3.26,-3.26,-3.26
380.33,-2.79,0.45,-2.78,0.46,-0.47,-0.62,-0.42,-3.26,-3.25,-3.24
384.13,-2.79,0.44,-2.79,0.44,-0.45,-0.61,-0.38,-3.24,-3.24,-3.23
387.97,-2.79,0.43,-2.79,0.43,-0.43,-0.60,-0.35,-3.23,-3.23,-3.22
391.85,-2.79,0.42,-2.79,0.42,-0.42,-0.59,-0.31,-3.21,-3.21,-3.21
395.77,-2.79,0.40,-2.79,0.41,-0.40,-0.58,-0.28,-3.20,-3.20,-3.19
399.73,-2.79,0.39,-2.79,0.39,-0.39,-0.57,-0.25,-3.18,-3.18,-3.18
403.72,-2.79,0.38,-2.79,0.38,-0.38,-0.56,-0.21,-3.17,-3.17,-3.17
407.76,-2.79,0.37,-2.79,0.37,-0.37,-0.55,-0.18,-3.16,-3.16,-3.16
411.84,-2.79,0.36,-2.79,0.36,-0.36,-0.54,-0.15,-3.15,-3.15,-3.15
415.96,-2.79,0.35,-2.79,0.35,-0.35,-0.53,-0.12,-3.14,-3.14,-3.14
420.12,-2.79,0.34,-2.79,0.34,-0.34,-0.52,-0.09,-3.13,-3.13,-3.13
424.32,-2.79,0.33,-2.79,0.33,-0.33,-0.51,-0.06,-3.12,-3.12,-3.12
428.56,-2.79,0.32,-2.79,0.32,-0.32,-0.50,-0.03,-3.11,-3.11,-3.11
432.85,-2.79,0.31,-2.79,0.31,-0.31,-0.50,-0.01,-3.10,-3.10,-3.10
437.18,-2.79,0.30,-2.79,0.30,-0.30,-0.49,0.02,-3.09,-3.09,-3.09
441.55,-2.79,0.28,-2.79,0.29,-0.29,-0.48,0.04,-3.08,-3.08,-3.07
445.96,-2.79,0.27,-2.79,0.28,-0.28,-0.48,0.06,-3.08,-3.07,-3.06
450.42,-2.77,0.28,-2.78,0.27,-0.28,-0.47,0.08,-3.05,-3.05,-3.05
454.93,-2.77,0.26,-2.77,0.27,-0.27,-0.46,0.10,-3.04,-3.03,-3.03
459.48,-2.75,0.27,-2.76,0.27,-0.26,-0.46,0.12,-3.01,-3.02,-3.02
464.07,-2.75,0.26,-2.75,0.26,-0.25,-0.45,0.13,-3.00,-3.00,-3.01
