frequency,raw,error,smoothed,error_smoothed,equalization,parametric_eq,fixed_band_eq,equalized_raw,equalized_smoothed,target
20.00,-23.86,-25.87,-23.86,-25.87,25.83,17.99,5.40,1.97,1.97,2.00
20.20,-23.76,-25.80,-23.76,-25.80,25.78,17.95,5.54,2.02,2.02,2.03
20.40,-23.65,-25.72,-23.66,-25.72,25.73,17.91,5.67,2.08,2.07,2.06
20.61,-23.56,-25.64,-23.55,-25.64,25.66,17.87,5.81,2.11,2.11,2.08
20.81,-23.45,-25.57,-23.45,-25.57,25.59,17.83,5.95,2.14,2.14,2.11
21.02,-23.34,-25.49,-23.35,-25.49,25.51,17.79,6.10,2.17,2.16,2.14
21.23,-23.24,-25.40,-23.24,-25.40,25.42,17.74,6.25,2.18,2.18,2.15
21.44,-23.14,-25.31,-23.14,-25.31,25.32,17.70,6.41,2.18,2.18,2.16
21.66,-23.04,-25.21,-23.04,-25.21,25.23,17.65,6.56,2.19,2.19,2.17
21.87,-22.93,-25.11,-22.93,-25.11,25.12,17.61,6.73,2.19,2.19,2.17
22.09,-22.83,-25.02,-22.83,-25.01,25.00,17.56,6.90,2.17,2.17,2.18
22.31,-22.70,-24.89,-22.71,-24.90,24.86,17.51,7.07,2.16,2.15,2.18
22.54,-22.59,-24.77,-22.56,-24.74,24.70,17.46,7.25,2.11,2.14,2.18
22.76,-22.36,-24.55,-22.37,-24.55,24.52,17.41,7.43,2.16,2.15,2.18
22.99,-22.13,-24.31,-22.15,-24.33,24.33,17.36,7.61,2.19,2.18,2.17
23.22,-21.92,-24.10,-21.92,-24.09,24.12,17.31,7.81,2.19,2.20,2.17
23.45,-21.69,-23.87,-21.70,-23.87,23.90,17.26,8.00,2.20,2.20,2.17
23.69,-21.49,-23.66,-21.48,-23.66,23.67,17.20,8.21,2.18,2.19,2.17
23.92,-21.26,-23.44,-21.26,-23.43,23.44,17.15,8.41,2.18,2.18,2.17
24.16,-21.03,-23.21,-21.04,-23.22,23.21,17.09,8.62,2.18,2.17,2.17
24.40,-20.82,-22.99,-20.82,-22.99,22.99,17.03,8.84,2.17,2.17,2.17
24.65,-20.61,-22.77,-20.60,-22.76,22.77,16.97,9.06,2.16,2.17,2.16
24.89,-20.37,-22.53,-20.38,-22.54,22.54,16.91,9.29,2.17,2.17,2.16
25.14,-20.15,-22.32,-20.16,-22.32,22.32,16.85,9.52,2.17,2.17,2.16
25.39,-19.94,-22.10,-19.93,-22.10,22.10,16.79,9.75,2.16,2.16,2.16
25.65,-19.72,-21.88,-19.71,-21.88,21.88,16.73,9.99,2.16,2.16,2.16
25.91,-19.49,-21.64,-19.49,-21.65,21.65,16.66,10.24,2.16,2.16,2.15
26.16,-19.27,-21.42,-19.27,-21.42,21.43,16.59,10.48,2.16,2.16,2.15
26.43,-19.05,-21.20,-19.05,-21.20,21.20,16.53,10.73,2.15,2.15,2.15
26.69,-18.82,-20.98,-18.82,-20.98,20.97,16.46,10.98,2.15,2.15,2.15
26.96,-18.60,-20.75,-18.59,-20.75,20.74,16.39,11.24,2.15,2.15,2.15
27.23,-18.37,-20.51,-18.36,-20.51,20.51,16.31,11.49,2.14,2.15,2.14
27.50,-18.12,-20.27,-18.13,-20.28,20.28,16.24,11.74,2.15,2.15,2.14
27.77,-17.91,-20.05,-17.91,-20.04,20.05,16.16,11.98,2.13,2.14,2.13
28.05,-17.67,-19.81,-17.68,-19.81,19.81,16.09,12.22,2.14,2.14,2.13
28.33,-17.45,-19.58,-17.45,-19.57,19.57,16.01,12.45,2.12,2.13,2.12
28.62,-17.21,-19.33,-17.21,-19.34,19.34,15.93,12.68,2.13,2.12,2.12
28.90,-16.98,-19.11,-16.98,-19.10,19.10,15.85,12.88,2.12,2.12,2.12
29.19,-16.74,-18.86,-16.74,-18.86,18.86,15.76,13.08,2.12,2.12,2.11
29.48,-16.50,-18.62,-16.51,-18.62,18.62,15.67,13.25,2.12,2.11,2.11
29.78,-16.28,-18.38,-16.27,-18.37,18.38,15.59,13.41,2.10,2.11,2.10
30.08,-16.03,-18.13,-16.03,-18.13,18.13,15.50,13.53,2.10,2.10,2.10
30.38,-15.78,-17.87,-15.79,-17.88,17.88,15.40,13.63,2.11,2.10,2.09
30.68,-15.54,-17.64,-15.54,-17.63,17.64,15.31,13.69,2.09,2.09,2.09
30.99,-15.31,-17.39,-15.30,-17.39,17.39,15.21,13.74,2.08,2.08,2.08
31.30,-15.07,-17.14,-15.06,-17.14,17.14,15.11,13.73,2.07,2.07,2.07
31.61,-14.81,-16.89,-14.82,-16.89,16.88,15.01,13.71,2.07,2.07,2.07
31.93,-14.57,-16.63,-14.57,-16.63,16.63,14.91,13.63,2.06,2.07,2.06
32.24,-14.31,-16.37,-14.32,-16.38,16.38,14.80,13.55,2.07,2.06,2.05
32.57,-14.08,-16.13,-14.07,-16.12,16.12,14.69,13.41,2.05,2.05,2.05
32.89,-13.82,-15.87,-13.82,-15.87,15.87,14.58,13.27,2.05,2.05,2.04
33.22,-13.57,-15.61,-13.57,-15.61,15.61,14.46,13.09,2.04,2.04,2.03
33.55,-13.32,-15.36,-13.32,-15.35,15.36,14.35,12.89,2.03,2.03,2.03
33.89,-13.07,-15.10,-13.07,-15.10,15.10,14.22,12.67,2.02,2.02,2.02
34.23,-12.83,-14.84,-12.83,-14.84,14.84,14.10,12.44,2.01,2.01,2.01
34.57,-12.57,-14.58,-12.58,-14.58,14.58,13.97,12.19,2.00,2.00,2.00
34.92,-12.33,-14.32,-12.32,-14.32,14.31,13.84,11.94,1.99,1.99,1.99
35.27,-12.07,-14.05,-12.07,-14.05,14.05,13.70,11.68,1.98,1.98,1.98
35.62,-11.81,-13.78,-11.81,-13.78,13.78,13.56,11.41,1.98,1.98,1.97
35.97,-11.54,-13.51,-11.55,-13.51,13.52,13.41,11.14,1.97,1.97,1.96
36.33,-11.29,-13.25,-11.29,-13.24,13.24,13.26,10.87,1.95,1.96,1.95
36.70,-11.04,-12.98,-11.03,-12.98,12.97,13.10,10.60,1.94,1.94,1.94
37.06,-10.76,-12.70,-10.77,-12.70,12.70,12.94,10.33,1.94,1.93,1.93
37.43,-10.51,-12.43,-10.50,-12.42,12.42,12.77,10.06,1.91,1.92,1.92
37.81,-10.21,-12.13,-10.23,-12.14,12.14,12.60,9.79,1.93,1.92,1.91
38.19,-9.97,-11.87,-9.96,-11.86,11.86,12.42,9.53,1.90,1.91,1.90
38.57,-9.68,-11.58,-9.68,-11.58,11.58,12.23,9.26,1.90,1.90,1.89
38.95,-9.42,-11.30,-9.42,-11.30,11.30,12.03,9.01,1.88,1.88,1.88
39.34,-9.14,-11.01,-9.15,-11.02,11.01,11.83,8.75,1.87,1.87,1.86
39.74,-8.89,-10.74,-8.88,-10.73,10.73,11.61,8.51,1.84,1.85,1.85
40.14,-8.61,-10.45,-8.61,-10.45,10.44,11.38,8.26,1.83,1.84,1.84
40.54,-8.33,-10.16,-8.32,-10.16,10.16,11.14,8.02,1.83,1.83,1.83
40.94,-8.04,-9.87,-8.04,-9.87,9.87,10.88,7.78,1.83,1.83,1.82
41.35,-7.75,-9.57,-7.76,-9.58,9.59,10.61,7.55,1.84,1.83,1.81
41.76,-7.50,-9.30,-7.49,-9.30,9.31,10.33,7.33,1.81,1.82,1.80
42.18,-7.22,-9.02,-7.23,-9.02,9.03,10.02,7.10,1.81,1.80,1.79
42.60,-6.97,-8.76,-6.97,-8.76,8.75,9.70,6.89,1.78,1.78,1.78
43.03,-6.71,-8.49,-6.71,-8.48,8.47,9.35,6.67,1.76,1.76,1.77
43.46,-6.45,-8.21,-6.45,-8.21,8.19,8.99,6.46,1.74,1.74,1.75
43.90,-6.19,-7.92,-6.19,-7.92,7.91,8.61,6.26,1.73,1.73,1.73
44.33,-5.92,-7.64,-5.92,-7.64,7.64,8.21,6.06,1.71,1.71,1.71
44.78,-5.67,-7.36,-5.66,-7.36,7.36,7.81,5.86,1.69,1.70,1.69
45.23,-5.41,-7.08,-5.41,-7.08,7.09,7.40,5.66,1.68,1.68,1.67
45.68,-5.16,-6.82,-5.15,-6.82,6.82,7.01,5.47,1.66,1.66,1.66
46.13,-4.90,-6.55,-4.91,-6.55,6.56,6.64,5.29,1.66,1.66,1.64
46.60,-4.68,-6.31,-4.67,-6.30,6.31,6.30,5.10,1.64,1.64,1.63
47.06,-4.44,-6.06,-4.45,-6.07,6.08,6.02,4.92,1.63,1.62,1.61
47.53,-4.25,-5.85,-4.25,-5.85,5.85,5.80,4.75,1.60,1.60,1.59
48.01,-4.06,-5.65,-4.06,-5.64,5.63,5.62,4.58,1.57,1.58,1.58
48.49,-3.87,-5.43,-3.88,-5.43,5.43,5.51,4.41,1.55,1.55,1.55
48.97,-3.70,-5.23,-3.71,-5.23,5.23,5.41,4.24,1.53,1.53,1.52
49.46,-3.55,-5.05,-3.55,-5.04,5.05,5.35,4.07,1.50,1.50,1.49
49.96,-3.39,-4.86,-3.40,-4.86,4.87,5.29,3.91,1.48,1.47,1.46
50.46,-3.24,-4.69,-3.25,-4.70,4.70,5.23,3.76,1.45,1.45,1.44
50.96,-3.11,-4.54,-3.11,-4.53,4.53,5.16,3.60,1.42,1.43,1.42
51.47,-2.97,-4.37,-2.97,-4.37,4.37,5.07,3.45,1.40,1.40,1.39
51.99,-2.83,-4.20,-2.83,-4.21,4.21,4.96,3.30,1.39,1.38,1.37
52.51,-2.70,-4.05,-2.69,-4.05,4.05,4.82,3.16,1.35,1.35,1.35
53.03,-2.55,-3.89,-2.55,-3.88,3.88,4.66,3.01,1.33,1.33,1.33
53.56,-2.40,-3.71,-2.40,-3.71,3.71,4.48,2.87,1.30,1.30,1.30
54.10,-2.25,-3.53,-2.24,-3.52,3.52,4.28,2.74,1.27,1.28,1.28
54.64,-2.06,-3.32,-2.07,-3.32,3.32,4.06,2.61,1.25,1.25,1.25
55.18,-1.87,-3.11,-1.88,-3.11,3.10,3.82,2.48,1.23,1.23,1.23
55.74,-1.68,-2.88,-1.67,-2.88,2.87,3.56,2.35,1.19,1.20,1.20
56.29,-1.44,-2.63,-1.45,-2.63,2.62,3.28,2.23,1.18,1.18,1.18
56.86,-1.21,-2.37,-1.20,-2.36,2.36,2.98,2.11,1.15,1.16,1.16
57.42,-0.94,-2.08,-0.94,-2.08,2.08,2.67,2.00,1.13,1.14,1.13
58.00,-0.65,-1.77,-0.67,-1.79,1.78,2.35,1.88,1.13,1.11,1.11
58.58,-0.39,-1.49,-0.39,-1.48,1.47,2.01,1.78,1.08,1.08,1.09
59.16,-0.10,-1.18,-0.09,-1.16,1.15,1.66,1.67,1.05,1.06,1.07
59.76,0.22,-0.83,0.22,-0.83,0.83,1.30,1.58,1.05,1.04,1.05
60.35,0.54,-0.49,0.53,-0.50,0.50,0.92,1.48,1.04,1.03,1.02
60.96,0.82,-0.17,0.83,-0.16,0.17,0.54,1.39,1.00,1.00,0.99
61.57,1.10,0.15,1.11,0.16,-0.14,0.14,1.30,0.96,0.97,0.95
62.18,1.40,0.47,1.39,0.46,-0.45,-0.26,1.22,0.94,0.93,0.92
62.80,1.66,0.76,1.66,0.76,-0.75,-0.67,1.14,0.90,0.90,0.89
63.43,1.91,1.04,1.91,1.04,-1.04,-1.08,1.07,0.87,0.87,0.86
64.07,2.14,1.31,2.14,1.31,-1.30,-1.50,1.00,0.84,0.84,0.83
64.71,2.37,1.55,2.37,1.56,-1.56,-1.91,0.93,0.81,0.81,0.81
65.35,2.58,1.79,2.57,1.79,-1.79,-2.32,0.87,0.78,0.78,0.78
66.01,2.77,2.01,2.77,2.01,-2.02,-2.72,0.81,0.75,0.75,0.75
66.67,2.95,2.22,2.95,2.22,-2.22,-3.11,0.75,0.72,0.72,0.72
67.33,3.11,2.41,3.11,2.42,-2.42,-3.47,0.70,0.69,0.69,0.69
68.01,3.27,2.60,3.26,2.60,-2.60,-3.81,0.65,0.67,0.66,0.66
68.69,3.40,2.76,3.40,2.76,-2.76,-4.12,0.60,0.63,0.64,0.63
69.37,3.52,2.91,3.52,2.91,-2.91,-4.39,0.56,0.60,0.61,0.60
70.07,3.63,3.05,3.62,3.05,-3.05,-4.61,0.51,0.58,0.57,0.57
70.77,3.71,3.16,3.71,3.17,-3.17,-4.80,0.47,0.54,0.54,0.54
71.48,3.79,3.27,3.78,3.27,-3.27,-4.92,0.44,0.52,0.51,0.51
72.19,3.83,3.35,3.83,3.36,-3.35,-5.01,0.40,0.47,0.48,0.47
72.91,3.88,3.43,3.87,3.42,-3.42,-5.03,0.37,0.46,0.45,0.44
73.64,3.88,3.47,3.88,3.48,-3.47,-5.02,0.33,0.41,0.41,0.40
74.38,3.88,3.50,3.88,3.51,-3.50,-4.96,0.30,0.38,0.38,0.37
75.12,3.87,3.53,3.85,3.52,-3.52,-4.87,0.27,0.35,0.34,0.33
75.87,3.82,3.51,3.82,3.51,-3.52,-4.74,0.24,0.30,0.30,0.30
76.63,3.77,3.49,3.77,3.50,-3.50,-4.59,0.21,0.26,0.27,0.27
77.40,3.72,3.47,3.71,3.47,-3.48,-4.42,0.18,0.24,0.23,0.24
78.17,3.65,3.44,3.65,3.44,-3.44,-4.23,0.15,0.21,0.21,0.20
78.95,3.57,3.39,3.57,3.39,-3.39,-4.04,0.12,0.17,0.17,0.17
79.74,3.48,3.33,3.47,3.33,-3.33,-3.84,0.10,0.14,0.14,0.14
80.54,3.38,3.27,3.38,3.27,-3.27,-3.63,0.07,0.11,0.11,0.10
81.35,3.27,3.19,3.27,3.19,-3.19,-3.43,0.04,0.07,0.08,0.07
82.16,3.16,3.12,3.15,3.11,-3.11,-3.23,0.01,0.05,0.04,0.03
82.98,3.01,3.00,3.02,3.02,-3.01,-3.03,-0.02,-0.01,0.00,0.00
83.81,2.89,2.92,2.88,2.92,-2.92,-2.85,-0.05,-0.03,-0.04,-0.04
84.65,2.74,2.81,2.73,2.80,-2.81,-2.66,-0.08,-0.07,-0.08,-0.08
85.50,2.59,2.69,2.59,2.70,-2.70,-2.49,-0.11,-0.11,-0.11,-0.11
86.35,2.44,2.58,2.44,2.58,-2.58,-2.32,-0.14,-0.15,-0.14,-0.15
87.22,2.30,2.48,2.28,2.47,-2.47,-2.16,-0.17,-0.17,-0.18,-0.19
88.09,2.12,2.34,2.13,2.35,-2.35,-2.01,-0.20,-0.23,-0.22,-0.23
88.97,1.97,2.23,1.97,2.23,-2.23,-1.87,-0.23,-0.27,-0.26,-0.27
89.86,1.81,2.11,1.80,2.11,-2.12,-1.73,-0.26,-0.31,-0.32,-0.31
90.76,1.65,2.00,1.64,2.00,-2.00,-1.61,-0.30,-0.36,-0.36,-0.36
91.66,1.48,1.87,1.49,1.89,-1.89,-1.49,-0.33,-0.42,-0.40,-0.40
92.58,1.36,1.80,1.35,1.79,-1.79,-1.39,-0.37,-0.43,-0.44,-0.45
93.51,1.22,1.70,1.21,1.69,-1.69,-1.29,-0.40,-0.47,-0.48,-0.49
94.44,1.06,1.58,1.07,1.60,-1.59,-1.20,-0.44,-0.54,-0.53,-0.53
95.39,0.93,1.50,0.92,1.50,-1.50,-1.11,-0.47,-0.58,-0.58,-0.58
96.34,0.79,1.41,0.79,1.41,-1.42,-1.04,-0.51,-0.63,-0.63,-0.63
97.30,0.67,1.34,0.66,1.34,-1.33,-0.97,-0.55,-0.67,-0.67,-0.68
98.28,0.53,1.25,0.53,1.25,-1.25,-0.91,-0.58,-0.72,-0.72,-0.73
99.26,0.42,1.18,0.41,1.18,-1.17,-0.86,-0.62,-0.76,-0.76,-0.77
100.25,0.28,1.09,0.28,1.10,-1.10,-0.81,-0.66,-0.82,-0.82,-0.82
101.25,0.17,1.03,0.16,1.03,-1.03,-0.77,-0.70,-0.86,-0.87,-0.87
102.27,0.04,0.95,0.04,0.96,-0.96,-0.74,-0.74,-0.93,-0.92,-0.92
103.29,-0.06,0.90,-0.06,0.90,-0.90,-0.70,-0.77,-0.96,-0.96,-0.97
104.32,-0.16,0.84,-0.17,0.84,-0.84,-0.68,-0.81,-1.00,-1.01,-1.01
105.37,-0.27,0.78,-0.27,0.79,-0.78,-0.66,-0.85,-1.05,-1.05,-1.06
106.42,-0.37,0.73,-0.38,0.73,-0.73,-0.64,-0.89,-1.10,-1.10,-1.11
107.48,-0.47,0.68,-0.48,0.68,-0.68,-0.62,-0.92,-1.15,-1.15,-1.16
108.56,-0.58,0.62,-0.57,0.63,-0.63,-0.60,-0.96,-1.21,-1.20,-1.21
109.64,-0.66,0.59,-0.67,0.58,-0.58,-0.59,-0.99,-1.25,-1.26,-1.26
110.74,-0.76,0.54,-0.76,0.54,-0.54,-0.57,-1.03,-1.31,-1.31,-1.31
111.85,-0.86,0.49,-0.86,0.50,-0.51,-0.55,-1.06,-1.37,-1.36,-1.36
112.97,-0.93,0.48,-0.94,0.47,-0.47,-0.53,-1.09,-1.41,-1.42,-1.42
114.10,-1.03,0.43,-1.03,0.44,-0.44,-0.51,-1.12,-1.48,-1.47,-1.47
115.24,-1.09,0.43,-1.10,0.42,-0.42,-0.49,-1.15,-1.51,-1.52,-1.53
116.39,-1.19,0.38,-1.19,0.39,-0.39,-0.47,-1.17,-1.58,-1.58,-1.58
117.55,-1.25,0.38,-1.26,0.37,-0.36,-0.44,-1.19,-1.62,-1.62,-1.64
118.73,-1.35,0.33,-1.34,0.34,-0.34,-0.42,-1.22,-1.69,-1.68,-1.69
119.92,-1.41,0.32,-1.42,0.31,-0.31,-0.39,-1.23,-1.72,-1.73,-1.74
121.12,-1.50,0.28,-1.50,0.28,-0.28,-0.36,-1.25,-1.79,-1.79,-1.79
122.33,-1.58,0.25,-1.58,0.26,-0.26,-0.33,-1.26,-1.84,-1.84,-1.84
123.55,-1.64,0.24,-1.65,0.23,-0.24,-0.29,-1.27,-1.88,-1.89,-1.89
124.79,-1.72,0.21,-1.72,0.22,-0.22,-0.27,-1.28,-1.95,-1.94,-1.94
126.03,-1.78,0.20,-1.78,0.20,-0.21,-0.24,-1.28,-1.99,-1.99,-1.99
127.29,-1.84,0.19,-1.85,0.19,-0.20,-0.21,-1.28,-2.04,-2.04,-2.04
128.57,-1.90,0.19,-1.90,0.19,-0.18,-0.18,-1.28,-2.09,-2.09,-2.10
129.85,-1.96,0.18,-1.96,0.18,-0.18,-0.16,-1.28,-2.14,-2.14,-2.15
131.15,-2.02,0.17,-2.02,0.17,-0.17,-0.13,-1.27,-2.19,-2.19,-2.20
132.46,-2.08,0.16,-2.08,0.16,-0.16,-0.11,-1.26,-2.24,-2.24,-2.25
133.79,-2.14,0.14,-2.14,0.15,-0.15,-0.09,-1.25,-2.29,-2.29,-2.29
135.12,-2.20,0.13,-2.20,0.13,-0.13,-0.08,-1.23,-2.34,-2.34,-2.34
136.48,-2.25,0.12,-2.26,0.12,-0.12,-0.06,-1.22,-2.37,-2.38,-2.38
137.84,-2.32,0.10,-2.32,0.11,-0.10,-0.05,-1.20,-2.43,-2.42,-2.43
139.22,-2.37,0.10,-2.38,0.10,-0.09,-0.04,-1.18,-2.46,-2.46,-2.48
140.61,-2.43,0.08,-2.44,0.08,-0.07,-0.04,-1.16,-2.51,-2.51,-2.52
142.02,-2.49,0.05,-2.49,0.06,-0.06,-0.03,-1.13,-2.55,-2.55,-2.55
143.44,-2.55,0.03,-2.55,0.04,-0.04,-0.03,-1.11,-2.59,-2.59,-2.59
144.87,-2.60,0.02,-2.60,0.02,-0.03,-0.03,-1.08,-2.63,-2.63,-2.63
146.32,-2.64,0.02,-2.65,0.01,-0.01,-0.03,-1.06,-2.66,-2.66,-2.67
147.78,-2.69,0.00,-2.70,0.00,-0.00,-0.03,-1.03,-2.70,-2.70,-2.70
149.26,-2.74,-0.01,-2.74,-0.01,0.00,-0.03,-1.00,-2.74,-2.74,-2.74
150.75,-2.79,-0.02,-2.79,-0.01,0.01,-0.04,-0.97,-2.79,-2.78,-2.78
152.26,-2.82,-0.01,-2.82,-0.01,0.00,-0.05,-0.94,-2.82,-2.82,-2.82
153.78,-2.85,0.00,-2.86,-0.00,-0.00,-0.05,-0.91,-2.85,-2.86,-2.86
155.32,-2.88,0.01,-2.89,0.01,-0.01,-0.06,-0.88,-2.89,-2.89,-2.90
156.88,-2.92,0.01,-2.92,0.02,-0.02,-0.07,-0.86,-2.94,-2.93,-2.94
158.44,-2.94,0.03,-2.95,0.03,-0.03,-0.08,-0.83,-2.97,-2.97,-2.98
160.03,-2.97,0.04,-2.98,0.04,-0.04,-0.09,-0.80,-3.01,-3.01,-3.02
161.63,-3.01,0.04,-3.01,0.05,-0.04,-0.11,-0.77,-3.06,-3.05,-3.06
163.24,-3.03,0.06,-3.04,0.06,-0.05,-0.12,-0.74,-3.09,-3.09,-3.10
164.88,-3.06,0.06,-3.07,0.06,-0.06,-0.13,-0.71,-3.12,-3.13,-3.13
166.53,-3.10,0.06,-3.10,0.06,-0.07,-0.14,-0.68,-3.17,-3.17,-3.17
168.19,-3.14,0.06,-3.13,0.07,-0.07,-0.16,-0.65,-3.22,-3.21,-3.21
169.87,-3.16,0.08,-3.17,0.08,-0.08,-0.17,-0.63,-3.24,-3.24,-3.25
171.57,-3.18,0.10,-3.20,0.08,-0.09,-0.18,-0.60,-3.27,-3.28,-3.29
173.29,-3.23,0.08,-3.22,0.09,-0.09,-0.20,-0.57,-3.33,-3.32,-3.32
175.02,-3.26,0.09,-3.26,0.10,-0.10,-0.21,-0.55,-3.37,-3.36,-3.36
176.77,-3.27,0.12,-3.29,0.11,-0.11,-0.23,-0.52,-3.39,-3.40,-3.40
178.54,-3.31,0.12,-3.31,0.13,-0.12,-0.24,-0.50,-3.44,-3.43,-3.44
180.32,-3.33,0.14,-3.34,0.14,-0.14,-0.25,-0.47,-3.47,-3.47,-3.48
182.13,-3.36,0.14,-3.36,0.15,-0.15,-0.26,-0.45,-3.51,-3.51,-3.51
183.95,-3.38,0.16,-3.38,0.16,-0.16,-0.28,-0.43,-3.54,-3.55,-3.55
185.79,-3.40,0.17,-3.41,0.17,-0.17,-0.29,-0.40,-3.58,-3.58,-3.58
187.65,-3.43,0.18,-3.43,0.19,-0.18,-0.30,-0.38,-3.62,-3.61,-3.62
189.52,-3.44,0.20,-3.45,0.20,-0.20,-0.31,-0.36,-3.64,-3.64,-3.65
191.42,-3.46,0.21,-3.47,0.21,-0.21,-0.32,-0.34,-3.67,-3.68,-3.68
193.33,-3.49,0.21,-3.49,0.21,-0.22,-0.33,-0.32,-3.71,-3.71,-3.71
195.27,-3.52,0.21,-3.52,0.22,-0.23,-0.34,-0.30,-3.75,-3.74,-3.74
197.22,-3.53,0.23,-3.54,0.23,-0.23,-0.35,-0.28,-3.77,-3.77,-3.77
199.19,-3.54,0.25,-3.55,0.24,-0.24,-0.36,-0.26,-3.78,-3.79,-3.80
201.18,-3.57,0.24,-3.57,0.25,-0.24,-0.37,-0.24,-3.81,-3.81,-3.82
203.19,-3.58,0.25,-3.59,0.25,-0.24,-0.37,-0.22,-3.83,-3.83,-3.84
205.23,-3.62,0.23,-3.61,0.24,-0.24,-0.38,-0.20,-3.87,-3.86,-3.86
207.28,-3.62,0.24,-3.63,0.24,-0.24,-0.39,-0.19,-3.87,-3.88,-3.87
209.35,-3.66,0.22,-3.65,0.23,-0.24,-0.39,-0.17,-3.90,-3.89,-3.89
211.44,-3.66,0.24,-3.67,0.23,-0.23,-0.40,-0.15,-3.90,-3.90,-3.91
213.56,-3.68,0.23,-3.68,0.23,-0.22,-0.40,-0.13,-3.91,-3.91,-3.92
215.69,-3.70,0.21,-3.70,0.22,-0.22,-0.40,-0.12,-3.92,-3.92,-3.92
217.85,-3.70,0.22,-3.72,0.21,-0.21,-0.40,-0.10,-3.91,-3.93,-3.93
220.03,-3.75,0.18,-3.74,0.20,-0.20,-0.40,-0.09,-3.95,-3.94,-3.94
222.23,-3.75,0.19,-3.76,0.18,-0.19,-0.40,-0.07,-3.94,-3.95,-3.95
224.45,-3.77,0.17,-3.77,0.17,-0.17,-0.40,-0.05,-3.95,-3.95,-3.95
226.70,-3.79,0.15,-3.79,0.16,-0.15,-0.40,-0.04,-3.95,-3.94,-3.95
228.96,-3.79,0.15,-3.80,0.14,-0.13,-0.40,-0.02,-3.93,-3.94,-3.95
231.25,-3.83,0.10,-3.82,0.11,-0.11,-0.40,-0.01,-3.95,-3.94,-3.94
233.57,-3.83,0.10,-3.84,0.09,-0.09,-0.39,0.01,-3.92,-3.93,-3.94
235.90,-3.88,0.05,-3.87,0.06,-0.06,-0.39,0.02,-3.94,-3.93,-3.94
238.26,-3.88,0.04,-3.89,0.03,-0.03,-0.38,0.03,-3.92,-3.92,-3.93
240.64,-3.92,-0.01,-3.92,-0.00,-0.01,-0.38,0.05,-3.93,-3.92,-3.92
243.05,-3.92,-0.02,-3.94,-0.03,0.02,-0.37,0.06,-3.90,-3.91,-3.91
245.48,-3.96,-0.07,-3.95,-0.06,0.05,-0.36,0.08,-3.91,-3.90,-3.90
247.93,-3.96,-0.08,-3.96,-0.07,0.08,-0.35,0.09,-3.88,-3.88,-3.89
250.41,-3.96,-0.09,-3.98,-0.10,0.11,-0.34,0.10,-3.85,-3.86,-3.88
252.92,-3.98,-0.13,-3.99,-0.13,0.14,-0.33,0.12,-3.84,-3.85,-3.86
255.45,-4.01,-0.18,-4.00,-0.16,0.16,-0.32,0.13,-3.85,-3.84,-3.84
258.00,-4.01,-0.19,-4.02,-0.20,0.18,-0.31,0.15,-3.83,-3.83,-3.83
260.58,-4.01,-0.21,-4.01,-0.21,0.20,-0.30,0.16,-3.82,-3.82,-3.81
263.19,-4.00,-0.22,-4.00,-0.21,0.20,-0.28,0.17,-3.80,-3.79,-3.79
265.82,-3.96,-0.20,-3.97,-0.21,0.20,-0.27,0.19,-3.76,-3.77,-3.77
268.48,-3.94,-0.20,-3.94,-0.19,0.19,-0.26,0.20,-3.75,-3.75,-3.75
271.16,-3.90,-0.18,-3.90,-0.18,0.17,-0.24,0.22,-3.73,-3.73,-3.73
273.87,-3.85,-0.15,-3.86,-0.16,0.15,-0.23,0.23,-3.71,-3.71,-3.71
276.61,-3.81,-0.13,-3.81,-0.12,0.12,-0.21,0.24,-3.69,-3.69,-3.69
279.38,-3.76,-0.10,-3.76,-0.09,0.10,-0.19,0.26,-3.67,-3.66,-3.67
282.17,-3.70,-0.06,-3.72,-0.07,0.08,-0.17,0.27,-3.62,-3.64,-3.65
284.99,-3.68,-0.06,-3.68,-0.06,0.07,-0.16,0.29,-3.61,-3.61,-3.63
287.84,-3.66,-0.06,-3.66,-0.05,0.07,-0.14,0.30,-3.60,-3.59,-3.61
290.72,-3.64,-0.06,-3.65,-0.07,0.07,-0.12,0.32,-3.57,-3.58,-3.59
293.63,-3.64,-0.08,-3.65,-0.08,0.09,-0.10,0.34,-3.56,-3.56,-3.57
296.57,-3.66,-0.12,-3.66,-0.11,0.10,-0.08,0.35,-3.56,-3.55,-3.55
299.53,-3.66,-0.14,-3.66,-0.14,0.13,-0.06,0.37,-3.54,-3.53,-3.53
302.53,-3.66,-0.16,-3.67,-0.16,0.16,-0.04,0.38,-3.51,-3.51,-3.51
305.55,-3.66,-0.19,-3.66,-0.18,0.18,-0.01,0.40,-3.48,-3.48,-3.48
308.61,-3.66,-0.21,-3.66,-0.21,0.21,0.01,0.42,-3.45,-3.45,-3.46
311.69,-3.66,-0.24,-3.66,-0.24,0.24,0.03,0.44,-3.42,-3.42,-3.43
314.81,-3.66,-0.27,-3.67,-0.27,0.27,0.05,0.46,-3.39,-3.40,-3.40
317.96,-3.67,-0.30,-3.67,-0.30,0.30,0.08,0.47,-3.38,-3.38,-3.38
321.14,-3.68,-0.33,-3.68,-0.33,0.32,0.10,0.49,-3.36,-3.36,-3.36
324.35,-3.68,-0.35,-3.68,-0.35,0.35,0.12,0.51,-3.34,-3.34,-3.34
327.59,-3.68,-0.37,-3.68,-0.37,0.37,0.15,0.53,-3.32,-3.32,-3.32
330.87,-3.68,-0.39,-3.68,-0.39,0.39,0.17,0.56,-3.29,-3.29,-3.30
334.18,-3.68,-0.41,-3.69,-0.41,0.41,0.19,0.58,-3.28,-3.28,-3.28
337.52,-3.68,-0.43,-3.68,-0.43,0.43,0.22,0.60,-3.26,-3.26,-3.26
340.90,-3.68,-0.45,-3.68,-0.44,0.44,0.24,0.62,-3.24,-3.23,-3.24
344.30,-3.66,-0.45,-3.67,-0.46,0.46,0.26,0.65,-3.20,-3.21,-3.22
347.75,-3.66,-0.47,-3.66,-0.47,0.48,0.29,0.67,-3.19,-3.19,-3.20
351.23,-3.66,-0.49,-3.66,-0.49,0.49,0.31,0.69,-3.17,-3.17,-3.18
354.74,-3.66,-0.51,-3.67,-0.51,0.50,0.33,0.72,-3.16,-3.16,-3.16
358.28,-3.66,-0.52,-3.66,-0.52,0.51,0.35,0.74,-3.15,-3.15,-3.15
361.87,-3.66,-0.54,-3.66,-0.53,0.52,0.38,0.77,-3.14,-3.13,-3.13
365.49,-3.64,-0.54,-3.64,-0.54,0.54,0.40,0.80,-3.11,-3.11,-3.11
369.14,-3.62,-0.53,-3.63,-0.54,0.55,0.42,0.83,-3.08,-3.08,-3.10
372.83,-3.62,-0.55,-3.62,-0.55,0.56,0.44,0.85,-3.07,-3.07,-3.08
376.56,-3.62,-0.56,-3.62,-0.56,0.57,0.46,0.88,-3.06,-3.06,-3.07
380.33,-3.62,-0.58,-3.62,-0.58,0.57,0.48,0.91,-3.05,-3.05,-3.05
384.13,-3.62,-0.59,-3.63,-0.59,0.58,0.50,0.94,-3.04,-3.04,-3.04
387.97,-3.62,-0.60,-3.63,-0.60,0.59,0.52,0.97,-3.03,-3.04,-3.03
391.85,-3.62,-0.61,-3.62,-0.60,0.60,0.53,1.00,-3.03,-3.02,-3.02
395.77,-3.60,-0.61,-3.60,-0.60,0.60,0.55,1.03,-3.00,-3.00,-3.00
399.73,-3.57,-0.59,-3.58,-0.60,0.61,0.56,1.06,-2.97,-2.98,-2.99
403.72,-3.57,-0.60,-3.57,-0.60,0.61,0.58,1.09,-2.97,-2.97,-2.98
407.76,-3.57,-0.61,-3.57,-0.61,0.61,0.59,1.12,-2.97,-2.96,-2.97
411.84,-3.57,-0.62,-3.57,-0.61,0.61,0.60,1.15,-2.97,-2.96,-2.96
415.96,-3.56,-0.62,-3.56,-0.61,0.61,0.62,1.18,-2.96,-2.95,-2.95
420.12,-3.53,-0.60,-3.55,-0.61,0.61,0.63,1.21,-2.93,-2.94,-2.94
424.32,-3.53,-0.61,-3.53,-0.61,0.61,0.63,1.24,-2.93,-2.92,-2.93
428.56,-3.53,-0.62,-3.52,-0.60,0.61,0.64,1.26,-2.93,-2.91,-2.92
432.85,-3.49,-0.59,-3.51,-0.61,0.61,0.65,1.29,-2.89,-2.90,-2.91
437.18,-3.49,-0.60,-3.50,-0.60,0.60,0.65,1.32,-2.89,-2.89,-2.90
441.55,-3.49,-0.62,-3.48,-0.60,0.60,0.66,1.34,-2.89,-2.88,-2.88
