frequency,raw,error,smoothed,error_smoothed,equalization,parametric_eq,fixed_band_eq,equalized_raw,equalized_smoothed,target
20.00,-30.99,-38.01,-31.18,-38.20,38.20,0.00,17.91,7.20,7.02,7.02
20.20,-31.00,-38.01,-31.14,-38.15,38.15,0.00,18.13,7.15,7.01,7.01
20.40,-31.01,-38.02,-31.09,-38.10,38.10,0.00,18.36,7.09,7.01,7.01
20.61,-31.03,-38.04,-31.03,-38.04,38.04,0.00,18.59,7.01,7.00,7.01
20.81,-31.04,-38.03,-30.97,-37.97,37.97,0.00,18.82,6.93,7.00,6.99
21.02,-31.04,-38.03,-30.90,-37.89,37.89,0.00,19.06,6.85,7.00,6.99
21.23,-30.97,-37.96,-30.81,-37.81,37.81,0.00,19.31,6.84,7.00,6.99
21.44,-30.90,-37.90,-30.72,-37.72,37.72,0.00,19.56,6.82,6.99,7.00
21.66,-30.83,-37.82,-30.63,-37.62,37.62,0.00,19.82,6.79,6.99,6.99
21.87,-30.76,-37.76,-30.52,-37.51,37.51,0.00,20.08,6.75,6.99,7.00
22.09,-30.60,-37.59,-30.41,-37.40,37.40,0.00,20.35,6.80,6.99,6.99
22.31,-30.32,-37.32,-30.28,-37.27,37.27,0.00,20.63,6.96,6.99,7.00
22.54,-30.05,-37.04,-30.13,-37.12,37.12,0.00,20.92,7.08,6.99,6.99
22.76,-29.76,-36.75,-29.97,-36.96,36.96,0.00,21.21,7.20,6.99,6.99
22.99,-29.47,-36.46,-29.80,-36.79,36.79,0.00,21.52,7.32,7.00,6.99
23.22,-29.41,-36.40,-29.63,-36.63,36.63,0.00,21.83,7.21,7.00,6.99
23.45,-29.36,-36.36,-29.45,-36.45,36.45,0.00,22.16,7.09,7.00,7.00
23.69,-29.31,-36.31,-29.26,-36.27,36.27,0.00,22.49,6.95,7.00,7.00
23.92,-29.27,-36.27,-29.08,-36.09,36.09,0.00,22.84,6.82,7.00,7.00
24.16,-29.11,-36.12,-28.90,-35.91,35.91,0.00,23.19,6.80,7.01,7.01
24.40,-28.90,-35.92,-28.75,-35.76,35.76,0.00,23.57,6.86,7.01,7.02
24.65,-28.70,-35.72,-28.62,-35.63,35.63,0.00,23.95,6.93,7.01,7.02
24.89,-28.49,-35.51,-28.51,-35.53,35.53,0.00,24.35,7.04,7.01,7.02
25.14,-28.30,-35.31,-28.40,-35.42,35.42,0.00,24.77,7.12,7.02,7.01
25.39,-28.12,-35.14,-28.27,-35.29,35.29,0.00,25.21,7.17,7.02,7.02
25.65,-27.95,-34.97,-28.13,-35.15,35.15,0.00,25.67,7.19,7.02,7.02
25.91,-27.77,-34.79,-27.96,-34.98,34.98,0.00,26.14,7.21,7.02,7.01
26.16,-27.71,-34.73,-27.80,-34.82,34.82,0.00,26.65,7.11,7.02,7.02
26.43,-27.72,-34.74,-27.65,-34.67,34.67,0.00,27.18,6.95,7.02,7.02
26.69,-27.72,-34.74,-27.52,-34.53,34.53,0.00,27.74,6.81,7.01,7.02
26.96,-27.73,-34.73,-27.39,-34.40,34.40,0.00,28.34,6.67,7.01,7.00
27.23,-27.46,-34.47,-27.26,-34.27,34.27,0.00,28.98,6.81,7.01,7.00
27.50,-27.15,-34.15,-27.13,-34.14,34.14,0.00,29.66,6.98,7.01,7.00
27.77,-26.83,-33.84,-26.99,-34.00,34.00,0.00,30.39,7.17,7.00,7.01
28.05,-26.57,-33.57,-26.86,-33.86,33.86,0.00,31.19,7.28,7.00,7.00
28.33,-26.56,-33.55,-26.72,-33.71,33.71,0.00,32.06,7.15,6.99,6.99
28.62,-26.55,-33.53,-26.58,-33.57,33.57,0.00,33.01,7.02,6.99,6.98
28.90,-26.54,-33.53,-26.43,-33.41,33.41,0.00,34.08,6.87,6.98,6.99
29.19,-26.39,-33.37,-26.27,-33.25,33.25,0.00,35.29,6.86,6.97,6.98
29.48,-26.16,-33.12,-26.11,-33.07,33.07,0.00,36.69,6.91,6.97,6.96
29.78,-25.93,-32.89,-25.95,-32.91,32.91,0.00,38.34,6.98,6.96,6.96
30.08,-25.74,-32.71,-25.81,-32.76,32.76,0.00,40.38,7.01,6.95,6.96
30.38,-25.65,-32.59,-25.68,-32.62,32.62,0.00,43.05,6.97,6.94,6.94
30.68,-25.56,-32.49,-25.55,-32.48,32.48,0.00,47.06,6.91,6.93,6.93
30.99,-25.47,-32.39,-25.39,-32.31,32.31,0.00,57.62,6.84,6.92,6.92
31.30,-25.27,-32.18,-25.22,-32.14,32.14,0.00,,6.86,6.91,6.91
31.61,-25.05,-31.95,-25.04,-31.95,31.95,0.00,71.26,6.89,6.90,6.90
31.93,-24.84,-31.73,-24.87,-31.76,31.76,0.00,48.07,6.92,6.90,6.88
32.24,-24.68,-31.57,-24.70,-31.59,31.59,0.00,43.83,6.91,6.89,6.89
32.57,-24.54,-31.41,-24.54,-31.42,31.42,0.00,41.12,6.88,6.88,6.87
32.89,-24.41,-31.28,-24.38,-31.26,31.26,0.00,39.12,6.85,6.88,6.87
33.22,-24.21,-31.08,-24.22,-31.09,31.09,0.00,37.52,6.88,6.87,6.87
33.55,-23.99,-30.85,-24.05,-30.92,30.92,0.00,36.20,6.93,6.87,6.86
33.89,-23.76,-30.63,-23.87,-30.74,30.74,0.00,35.07,6.98,6.86,6.87
34.23,-23.63,-30.48,-23.70,-30.56,30.56,0.00,34.09,6.93,6.86,6.85
34.57,-23.55,-30.41,-23.52,-30.38,30.38,0.00,33.23,6.82,6.86,6.86
34.92,-23.47,-30.32,-23.35,-30.20,30.20,0.00,32.45,6.72,6.85,6.85
35.27,-23.27,-30.13,-23.17,-30.01,30.01,0.00,31.76,6.74,6.84,6.86
35.62,-23.03,-29.86,-22.98,-29.82,29.82,0.00,31.12,6.79,6.84,6.83
35.97,-22.80,-29.63,-22.80,-29.63,29.63,0.00,30.55,6.83,6.83,6.83
36.33,-22.62,-29.44,-22.62,-29.43,29.43,0.00,30.01,6.81,6.81,6.82
36.70,-22.46,-29.26,-22.44,-29.24,29.24,0.00,29.53,6.78,6.80,6.80
37.06,-22.28,-29.06,-22.28,-29.06,29.06,0.00,29.07,6.78,6.78,6.78
37.43,-22.06,-28.83,-22.11,-28.87,28.87,0.00,28.65,6.81,6.76,6.77
37.81,-21.84,-28.58,-21.94,-28.68,28.68,0.00,28.26,6.84,6.74,6.74
38.19,-21.67,-28.39,-21.78,-28.49,28.49,0.00,27.90,6.82,6.71,6.72
38.57,-21.55,-28.25,-21.61,-28.30,28.30,0.00,27.56,6.75,6.69,6.70
38.95,-21.42,-28.09,-21.46,-28.12,28.12,0.00,27.25,6.70,6.66,6.67
39.34,-21.32,-27.94,-21.32,-27.95,27.95,0.00,26.95,6.63,6.63,6.62
39.74,-21.22,-27.81,-21.17,-27.77,27.77,0.00,26.68,6.55,6.60,6.59
40.14,-21.09,-27.65,-21.01,-27.58,27.58,0.00,26.42,6.49,6.57,6.56
40.54,-20.92,-27.46,-20.85,-27.39,27.39,0.00,26.18,6.47,6.54,6.54
40.94,-20.75,-27.25,-20.70,-27.21,27.21,0.00,25.95,6.46,6.51,6.50
41.35,-20.59,-27.07,-20.55,-27.03,27.03,0.00,25.74,6.44,6.48,6.48
41.76,-20.42,-26.87,-20.39,-26.85,26.85,0.00,25.54,6.43,6.46,6.45
42.18,-20.26,-26.69,-20.24,-26.67,26.67,0.00,25.36,6.41,6.43,6.43
42.60,-20.09,-26.49,-20.09,-26.48,26.48,0.00,25.19,6.39,6.40,6.40
43.03,-19.91,-26.28,-19.93,-26.30,26.30,0.00,25.03,6.39,6.37,6.37
43.46,-19.67,-26.01,-19.78,-26.12,26.12,0.00,24.89,6.45,6.34,6.34
43.90,-19.42,-25.74,-19.63,-25.94,25.94,0.00,24.75,6.52,6.32,6.32
44.33,-19.36,-25.64,-19.47,-25.76,25.76,0.00,24.63,6.40,6.29,6.28
44.78,-19.36,-25.61,-19.32,-25.58,25.58,0.00,24.52,6.22,6.26,6.25
45.23,-19.26,-25.50,-19.16,-25.39,25.39,0.00,24.42,6.13,6.22,6.24
45.68,-19.05,-25.24,-19.00,-25.19,25.19,0.00,24.32,6.14,6.19,6.19
46.13,-18.88,-25.03,-18.84,-24.99,24.99,0.00,24.24,6.11,6.16,6.15
46.60,-18.77,-24.89,-18.68,-24.80,24.80,0.00,24.17,6.03,6.12,6.12
47.06,-18.65,-24.74,-18.52,-24.60,24.60,0.00,24.10,5.95,6.08,6.09
47.53,-18.41,-24.47,-18.35,-24.39,24.39,0.00,24.05,5.98,6.04,6.06
48.01,-18.18,-24.18,-18.19,-24.19,24.19,0.00,24.00,6.01,6.00,6.00
48.49,-17.98,-23.94,-18.03,-23.99,23.99,0.00,23.96,6.01,5.96,5.96
48.97,-17.78,-23.70,-17.86,-23.78,23.78,0.00,23.93,6.00,5.92,5.92
49.46,-17.57,-23.45,-17.68,-23.56,23.56,0.00,23.90,5.99,5.88,5.88
49.96,-17.35,-23.17,-17.50,-23.34,23.34,0.00,23.88,5.99,5.84,5.82
50.46,-17.30,-23.08,-17.33,-23.12,23.12,0.00,23.87,5.82,5.79,5.78
50.96,-17.26,-23.01,-17.16,-22.91,22.91,0.00,23.87,5.65,5.75,5.75
51.47,-17.05,-22.76,-17.00,-22.70,22.70,0.00,23.87,5.65,5.70,5.71
51.99,-16.83,-22.49,-16.83,-22.49,22.49,0.00,23.87,5.66,5.66,5.66
52.51,-16.72,-22.34,-16.68,-22.29,22.29,0.00,23.88,5.57,5.61,5.62
53.03,-16.62,-22.21,-16.54,-22.11,22.11,0.00,23.89,5.49,5.56,5.59
53.56,-16.40,-21.92,-16.40,-21.92,21.92,0.00,23.90,5.52,5.52,5.52
54.10,-16.19,-21.66,-16.26,-21.73,21.73,0.00,23.92,5.54,5.47,5.47
54.64,-16.04,-21.47,-16.10,-21.53,21.53,0.00,23.93,5.49,5.43,5.43
55.18,-15.90,-21.27,-15.95,-21.34,21.34,0.00,23.94,5.44,5.39,5.37
55.74,-15.77,-21.09,-15.79,-21.14,21.14,0.00,23.95,5.36,5.34,5.32
56.29,-15.65,-20.93,-15.63,-20.93,20.93,0.00,23.96,5.28,5.30,5.28
56.86,-15.52,-20.77,-15.48,-20.73,20.73,0.00,23.96,5.21,5.25,5.25
57.42,-15.39,-20.58,-15.33,-20.54,20.54,0.00,23.95,5.15,5.20,5.19
58.00,-15.25,-20.40,-15.17,-20.33,20.33,0.00,23.93,5.08,5.16,5.15
58.58,-14.99,-20.11,-15.01,-20.12,20.12,0.00,23.90,5.12,5.11,5.12
59.16,-14.76,-19.85,-14.84,-19.90,19.90,0.00,23.86,5.14,5.06,5.09
59.76,-14.63,-19.67,-14.67,-19.68,19.68,0.00,23.80,5.05,5.01,5.04
60.35,-14.50,-19.47,-14.50,-19.46,19.46,0.00,23.73,4.96,4.96,4.97
60.96,-14.36,-19.28,-14.33,-19.24,19.24,0.00,23.64,4.88,4.91,4.92
61.57,-14.22,-19.07,-14.15,-19.01,19.01,0.00,23.53,4.78,4.86,4.85
62.18,-14.05,-18.83,-13.97,-18.77,18.77,0.00,23.40,4.72,4.80,4.78
62.80,-13.82,-18.55,-13.79,-18.53,18.53,0.00,23.25,4.71,4.74,4.73
63.43,-13.57,-18.24,-13.62,-18.30,18.30,0.00,23.09,4.73,4.68,4.67
64.07,-13.33,-17.95,-13.45,-18.07,18.07,0.00,22.90,4.74,4.63,4.62
64.71,-13.21,-17.78,-13.28,-17.85,17.85,0.00,22.69,4.63,4.57,4.57
65.35,-13.10,-17.60,-13.12,-17.63,17.63,0.00,22.47,4.53,4.50,4.50
66.01,-12.98,-17.42,-12.96,-17.40,17.40,0.00,22.22,4.42,4.44,4.44
66.67,-12.83,-17.22,-12.79,-17.18,17.18,0.00,21.97,4.35,4.38,4.39
67.33,-12.64,-16.96,-12.63,-16.95,16.95,0.00,21.70,4.31,4.32,4.32
68.01,-12.43,-16.70,-12.47,-16.73,16.73,0.00,21.41,4.30,4.26,4.27
68.69,-12.32,-16.52,-12.31,-16.51,16.51,0.00,21.12,4.19,4.20,4.20
69.37,-12.19,-16.34,-12.17,-16.31,16.31,0.00,20.82,4.11,4.14,4.15
70.07,-12.05,-16.13,-12.02,-16.10,16.10,0.00,20.51,4.04,4.07,4.08
70.77,-11.89,-15.91,-11.88,-15.88,15.88,0.00,20.19,3.99,4.01,4.02
71.48,-11.73,-15.67,-11.73,-15.67,15.67,0.00,19.87,3.94,3.94,3.94
72.19,-11.56,-15.44,-11.57,-15.45,15.45,0.00,19.55,3.89,3.88,3.88
72.91,-11.40,-15.22,-11.42,-15.23,15.23,0.00,19.22,3.83,3.82,3.82
73.64,-11.24,-14.98,-11.26,-15.02,15.02,0.00,18.89,3.78,3.76,3.74
74.38,-11.10,-14.78,-11.12,-14.81,14.81,0.00,18.57,3.71,3.70,3.68
75.12,-10.98,-14.60,-10.97,-14.61,14.61,0.00,18.24,3.63,3.64,3.62
75.87,-10.89,-14.48,-10.83,-14.41,14.41,0.00,17.92,3.52,3.58,3.59
76.63,-10.65,-14.17,-10.68,-14.21,14.21,0.00,17.59,3.56,3.53,3.52
77.40,-10.48,-13.95,-10.53,-14.00,14.00,0.00,17.27,3.52,3.48,3.47
78.17,-10.38,-13.80,-10.38,-13.80,13.80,0.00,16.95,3.42,3.42,3.42
78.95,-10.25,-13.63,-10.24,-13.61,13.61,0.00,16.64,3.36,3.37,3.38
79.74,-10.08,-13.40,-10.10,-13.42,13.42,0.00,16.33,3.34,3.32,3.32
80.54,-9.94,-13.21,-9.95,-13.22,13.22,0.00,16.02,3.28,3.27,3.27
81.35,-9.84,-13.06,-9.80,-13.02,13.02,0.00,15.71,3.18,3.22,3.22
82.16,-9.73,-12.91,-9.66,-12.82,12.82,0.00,15.41,3.09,3.17,3.18
82.98,-9.47,-12.59,-9.51,-12.61,12.61,0.00,15.12,3.14,3.11,3.12
83.81,-9.35,-12.41,-9.36,-12.41,12.41,0.00,14.82,3.06,3.05,3.06
84.65,-9.18,-12.18,-9.21,-12.20,12.20,0.00,14.53,3.02,2.99,3.00
85.50,-9.04,-11.97,-9.06,-12.00,12.00,0.00,14.25,2.95,2.93,2.93
86.35,-8.94,-11.81,-8.90,-11.78,11.78,0.00,13.97,2.84,2.87,2.87
87.22,-8.82,-11.63,-8.75,-11.56,11.56,0.00,13.69,2.73,2.81,2.81
88.09,-8.58,-11.32,-8.59,-11.34,11.34,0.00,13.41,2.76,2.75,2.74
88.97,-8.43,-11.11,-8.45,-11.13,11.13,0.00,13.14,2.70,2.68,2.68
89.86,-8.27,-10.88,-8.31,-10.93,10.93,0.00,12.88,2.66,2.62,2.61
90.76,-8.19,-10.73,-8.17,-10.72,10.72,0.00,12.61,2.53,2.55,2.54
91.66,-8.04,-10.52,-8.04,-10.52,10.52,0.00,12.35,2.48,2.48,2.48
92.58,-7.89,-10.31,-7.90,-10.32,10.32,0.00,12.10,2.42,2.41,2.42
93.51,-7.69,-10.04,-7.76,-10.11,10.11,0.00,11.84,2.41,2.34,2.35
94.44,-7.53,-9.82,-7.63,-9.91,9.91,0.00,11.59,2.37,2.27,2.29
95.39,-7.51,-9.72,-7.51,-9.71,9.71,0.00,11.35,2.20,2.20,2.21
96.34,-7.47,-9.60,-7.38,-9.52,9.52,0.00,11.10,2.04,2.13,2.13
97.30,-7.36,-9.43,-7.26,-9.32,9.32,0.00,10.86,1.96,2.06,2.07
98.28,-7.23,-9.21,-7.14,-9.14,9.14,0.00,10.63,1.90,1.99,1.98
99.26,-7.03,-8.94,-7.02,-8.95,8.95,0.00,10.39,1.92,1.93,1.91
100.25,-6.82,-8.67,-6.91,-8.77,8.77,0.00,10.16,1.95,1.86,1.85
101.25,-6.75,-8.54,-6.80,-8.59,8.59,0.00,9.94,1.84,1.79,1.79
102.27,-6.60,-8.32,-6.69,-8.42,8.42,0.00,9.71,1.82,1.73,1.72
103.29,-6.60,-8.26,-6.59,-8.25,8.25,0.00,9.49,1.65,1.67,1.66
104.32,-6.55,-8.16,-6.48,-8.08,8.08,0.00,9.28,1.53,1.61,1.61
105.37,-6.37,-7.92,-6.36,-7.91,7.91,0.00,9.06,1.54,1.55,1.55
106.42,-6.18,-7.67,-6.25,-7.74,7.74,0.00,8.85,1.56,1.49,1.49
107.48,-6.14,-7.56,-6.15,-7.58,7.58,0.00,8.64,1.44,1.43,1.42
108.56,-6.14,-7.52,-6.05,-7.43,7.43,0.00,8.44,1.29,1.37,1.38
109.64,-6.00,-7.32,-5.97,-7.28,7.28,0.00,8.24,1.28,1.32,1.32
110.74,-5.91,-7.17,-5.88,-7.14,7.14,0.00,8.04,1.23,1.26,1.26
111.85,-5.72,-6.92,-5.80,-7.00,7.00,0.00,7.85,1.27,1.20,1.20
112.97,-5.69,-6.84,-5.71,-6.85,6.85,0.00,7.66,1.16,1.14,1.15
114.10,-5.64,-6.73,-5.63,-6.71,6.71,0.00,7.48,1.06,1.08,1.09
115.24,-5.46,-6.48,-5.54,-6.56,6.56,0.00,7.30,1.10,1.02,1.02
116.39,-5.46,-6.41,-5.47,-6.42,6.42,0.00,7.12,0.96,0.95,0.95
117.55,-5.45,-6.34,-5.39,-6.29,6.29,0.00,6.95,0.83,0.89,0.89
118.73,-5.29,-6.11,-5.32,-6.14,6.14,0.00,6.78,0.85,0.83,0.82
119.92,-5.23,-5.98,-5.23,-5.99,5.99,0.00,6.62,0.76,0.76,0.75
121.12,-5.22,-5.92,-5.14,-5.84,5.84,0.00,6.47,0.62,0.70,0.70
122.33,-5.08,-5.70,-5.08,-5.70,5.70,0.00,6.31,0.62,0.63,0.62
123.55,-5.00,-5.57,-5.01,-5.57,5.57,0.00,6.16,0.57,0.56,0.57
124.79,-5.00,-5.50,-4.94,-5.44,5.44,0.00,6.02,0.43,0.49,0.50
126.03,-4.85,-5.28,-4.87,-5.29,5.29,0.00,5.88,0.44,0.43,0.43
127.29,-4.80,-5.16,-4.80,-5.16,5.16,0.00,5.75,0.36,0.36,0.36
128.57,-4.72,-5.02,-4.74,-5.04,5.04,0.00,5.62,0.31,0.29,0.30
129.85,-4.57,-4.79,-4.68,-4.90,4.90,0.00,5.49,0.33,0.23,0.22
131.15,-4.55,-4.71,-4.61,-4.78,4.78,0.00,5.37,0.22,0.16,0.16
132.46,-4.55,-4.64,-4.56,-4.65,4.65,0.00,5.25,0.10,0.10,0.09
133.79,-4.55,-4.58,-4.49,-4.53,4.53,0.00,5.14,-0.02,0.04,0.03
135.12,-4.54,-4.50,-4.44,-4.42,4.42,0.00,5.03,-0.13,-0.03,-0.04
136.48,-4.38,-4.30,-4.40,-4.31,4.31,0.00,4.93,-0.07,-0.09,-0.08
137.84,-4.32,-4.18,-4.35,-4.21,4.21,0.00,4.82,-0.11,-0.15,-0.14
139.22,-4.32,-4.11,-4.31,-4.11,4.11,0.00,4.72,-0.22,-0.20,-0.21
140.61,-4.32,-4.06,-4.27,-4.01,4.01,0.00,4.62,-0.31,-0.26,-0.26
142.02,-4.21,-3.90,-4.22,-3.91,3.91,0.00,4.53,-0.30,-0.31,-0.31
143.44,-4.12,-3.75,-4.18,-3.81,3.81,0.00,4.44,-0.31,-0.36,-0.37
144.87,-4.09,-3.68,-4.13,-3.72,3.72,0.00,4.35,-0.37,-0.41,-0.41
146.32,-4.09,-3.63,-4.09,-3.63,3.63,0.00,4.26,-0.46,-0.46,-0.46
147.78,-4.09,-3.57,-4.06,-3.55,3.55,0.00,4.17,-0.55,-0.51,-0.52
149.26,-4.09,-3.53,-4.02,-3.46,3.46,0.00,4.08,-0.63,-0.56,-0.56
150.75,-3.99,-3.37,-3.99,-3.38,3.38,0.00,4.00,-0.61,-0.61,-0.62
152.26,-3.90,-3.25,-3.96,-3.30,3.30,0.00,3.91,-0.60,-0.66,-0.65
153.78,-3.86,-3.15,-3.92,-3.21,3.21,0.00,3.83,-0.65,-0.71,-0.71
155.32,-3.86,-3.11,-3.88,-3.13,3.13,0.00,3.75,-0.73,-0.76,-0.75
156.88,-3.86,-3.06,-3.85,-3.04,3.04,0.00,3.66,-0.82,-0.80,-0.80
158.44,-3.86,-3.01,-3.82,-2.97,2.97,0.00,3.58,-0.89,-0.85,-0.85
160.03,-3.86,-2.96,-3.79,-2.89,2.89,0.00,3.50,-0.97,-0.90,-0.90
161.63,-3.86,-2.91,-3.76,-2.81,2.81,0.00,3.41,-1.05,-0.95,-0.95
163.24,-3.72,-2.71,-3.73,-2.73,2.73,0.00,3.33,-0.99,-1.00,-1.01
164.88,-3.63,-2.58,-3.71,-2.66,2.66,0.00,3.25,-0.97,-1.05,-1.05
166.53,-3.63,-2.52,-3.70,-2.60,2.60,0.00,3.17,-1.03,-1.10,-1.11
168.19,-3.63,-2.49,-3.69,-2.54,2.54,0.00,3.08,-1.09,-1.15,-1.14
169.87,-3.63,-2.44,-3.67,-2.48,2.48,0.00,3.00,-1.16,-1.20,-1.19
171.57,-3.63,-2.38,-3.65,-2.40,2.40,0.00,2.91,-1.23,-1.25,-1.25
173.29,-3.63,-2.33,-3.63,-2.33,2.33,0.00,2.83,-1.30,-1.30,-1.30
175.02,-3.63,-2.28,-3.61,-2.26,2.26,0.00,2.74,-1.38,-1.35,-1.35
176.77,-3.63,-2.23,-3.59,-2.18,2.18,0.00,2.65,-1.45,-1.40,-1.40
178.54,-3.63,-2.18,-3.57,-2.11,2.11,0.00,2.57,-1.52,-1.46,-1.45
180.32,-3.63,-2.12,-3.55,-2.05,2.05,0.00,2.48,-1.59,-1.51,-1.51
182.13,-3.63,-2.07,-3.54,-1.98,1.98,0.00,2.39,-1.65,-1.56,-1.56
183.95,-3.54,-1.93,-3.52,-1.91,1.91,0.00,2.30,-1.63,-1.61,-1.61
185.79,-3.42,-1.75,-3.50,-1.84,1.84,0.00,2.21,-1.58,-1.66,-1.67
187.65,-3.41,-1.70,-3.48,-1.77,1.77,0.00,2.12,-1.64,-1.71,-1.71
189.52,-3.41,-1.65,-3.46,-1.70,1.70,0.00,2.03,-1.71,-1.76,-1.76
191.42,-3.41,-1.61,-3.44,-1.64,1.64,0.00,1.93,-1.77,-1.81,-1.80
193.33,-3.41,-1.56,-3.43,-1.58,1.58,0.00,1.84,-1.84,-1.85,-1.85
195.27,-3.41,-1.51,-3.41,-1.52,1.52,0.00,1.75,-1.89,-1.90,-1.90
197.22,-3.41,-1.46,-3.40,-1.47,1.47,0.00,1.65,-1.95,-1.94,-1.95
199.19,-3.41,-1.43,-3.40,-1.42,1.42,0.00,1.56,-1.99,-1.98,-1.98
201.18,-3.41,-1.38,-3.40,-1.38,1.38,0.00,1.47,-2.03,-2.02,-2.03
203.19,-3.41,-1.35,-3.41,-1.36,1.36,0.00,1.37,-2.06,-2.06,-2.06
205.23,-3.41,-1.32,-3.42,-1.33,1.33,0.00,1.28,-2.08,-2.09,-2.09
207.28,-3.41,-1.29,-3.43,-1.30,1.30,0.00,1.19,-2.11,-2.13,-2.12
209.35,-3.41,-1.25,-3.42,-1.26,1.26,0.00,1.10,-2.15,-2.16,-2.16
211.44,-3.41,-1.21,-3.41,-1.21,1.21,0.00,1.01,-2.20,-2.20,-2.20
213.56,-3.41,-1.18,-3.40,-1.17,1.17,0.00,0.92,-2.24,-2.23,-2.23
215.69,-3.41,-1.15,-3.38,-1.12,1.12,0.00,0.83,-2.29,-2.26,-2.26
217.85,-3.41,-1.12,-3.36,-1.07,1.07,0.00,0.74,-2.35,-2.30,-2.29
220.03,-3.41,-1.08,-3.34,-1.02,1.02,0.00,0.66,-2.40,-2.33,-2.33
222.23,-3.41,-1.05,-3.32,-0.96,0.96,0.00,0.57,-2.45,-2.36,-2.36
224.45,-3.30,-0.91,-3.30,-0.91,0.91,0.00,0.49,-2.39,-2.39,-2.39
226.70,-3.19,-0.77,-3.28,-0.86,0.86,0.00,0.41,-2.33,-2.42,-2.42
228.96,-3.18,-0.73,-3.25,-0.81,0.81,0.00,0.34,-2.37,-2.45,-2.45
231.25,-3.18,-0.71,-3.23,-0.76,0.76,0.00,0.27,-2.42,-2.47,-2.47
233.57,-3.18,-0.68,-3.21,-0.72,0.72,0.00,0.20,-2.46,-2.50,-2.50
235.90,-3.18,-0.66,-3.20,-0.68,0.68,0.00,0.14,-2.51,-2.52,-2.52
238.26,-3.18,-0.62,-3.18,-0.64,0.64,0.00,0.08,-2.54,-2.54,-2.56
240.64,-3.18,-0.62,-3.17,-0.61,0.61,0.00,0.02,-2.58,-2.57,-2.56
243.05,-3.18,-0.60,-3.17,-0.58,0.58,0.00,-0.03,-2.60,-2.59,-2.58
245.48,-3.18,-0.57,-3.16,-0.56,0.56,0.00,-0.08,-2.62,-2.61,-2.61
247.93,-3.18,-0.55,-3.17,-0.54,0.54,0.00,-0.12,-2.64,-2.62,-2.63
250.41,-3.18,-0.55,-3.18,-0.54,0.54,0.00,-0.16,-2.65,-2.64,-2.63
252.92,-3.18,-0.53,-3.18,-0.53,0.53,0.00,-0.19,-2.65,-2.65,-2.65
255.45,-3.18,-0.51,-3.18,-0.51,0.51,0.00,-0.22,-2.67,-2.67,-2.67
258.00,-3.18,-0.49,-3.18,-0.50,0.50,0.00,-0.24,-2.68,-2.68,-2.69
260.58,-3.18,-0.48,-3.18,-0.49,0.49,0.00,-0.26,-2.69,-2.69,-2.70
263.19,-3.18,-0.47,-3.18,-0.48,0.48,0.00,-0.27,-2.70,-2.70,-2.71
265.82,-3.18,-0.46,-3.18,-0.47,0.47,0.00,-0.28,-2.71,-2.71,-2.72
268.48,-3.18,-0.46,-3.18,-0.46,0.46,0.00,-0.29,-2.72,-2.72,-2.72
271.16,-3.18,-0.46,-3.18,-0.45,0.45,0.00,-0.29,-2.73,-2.73,-2.72
273.87,-3.18,-0.45,-3.18,-0.44,0.44,0.00,-0.29,-2.74,-2.74,-2.73
276.61,-3.18,-0.44,-3.18,-0.44,0.44,0.00,-0.29,-2.74,-2.74,-2.74
279.38,-3.18,-0.42,-3.18,-0.43,0.43,0.00,-0.28,-2.75,-2.75,-2.76
282.17,-3.18,-0.42,-3.18,-0.43,0.43,0.00,-0.27,-2.75,-2.75,-2.76
284.99,-3.18,-0.43,-3.18,-0.43,0.43,0.00,-0.26,-2.75,-2.75,-2.75
287.84,-3.18,-0.43,-3.18,-0.43,0.43,0.00,-0.24,-2.75,-2.75,-2.75
290.72,-3.18,-0.42,-3.18,-0.43,0.43,0.00,-0.23,-2.75,-2.75,-2.76
293.63,-3.18,-0.43,-3.18,-0.43,0.43,0.00,-0.21,-2.75,-2.75,-2.75
296.57,-3.18,-0.43,-3.18,-0.43,0.43,0.00,-0.19,-2.75,-2.75,-2.75
299.53,-3.18,-0.42,-3.18,-0.43,0.43,0.00,-0.17,-2.75,-2.75,-2.76
302.53,-3.18,-0.44,-3.18,-0.43,0.43,0.00,-0.15,-2.75,-2.75,-2.74
305.55,-3.18,-0.43,-3.18,-0.43,0.43,0.00,-0.12,-2.75,-2.75,-2.75
308.61,-3.18,-0.44,-3.18,-0.43,0.43,0.00,-0.10,-2.75,-2.75,-2.74
311.69,-3.18,-0.43,-3.18,-0.44,0.44,0.00,-0.08,-2.75,-2.75,-2.75
314.81,-3.18,-0.44,-3.18,-0.44,0.44,0.00,-0.05,-2.74,-2.74,-2.74
317.96,-3.18,-0.43,-3.18,-0.44,0.44,0.00,-0.03,-2.74,-2.74,-2.75
321.14,-3.18,-0.44,-3.18,-0.44,0.44,0.00,-0.01,-2.74,-2.74,-2.74
324.35,-3.18,-0.43,-3.18,-0.45,0.45,0.00,0.02,-2.74,-2.74,-2.75
327.59,-3.18,-0.46,-3.18,-0.45,0.45,0.00,0.04,-2.73,-2.73,-2.72
330.87,-3.18,-0.45,-3.18,-0.45,0.45,0.00,0.07,-2.73,-2.73,-2.73
334.18,-3.18,-0.45,-3.18,-0.46,0.46,0.00,0.09,-2.72,-2.72,-2.73
337.52,-3.18,-0.46,-3.18,-0.47,0.47,0.00,0.11,-2.72,-2.72,-2.72
340.90,-3.18,-0.47,-3.19,-0.48,0.48,0.00,0.13,-2.70,-2.71,-2.71
344.30,-3.18,-0.48,-3.19,-0.49,0.49,0.00,0.16,-2.69,-2.70,-2.70
347.75,-3.18,-0.49,-3.20,-0.50,0.50,0.00,0.18,-2.68,-2.69,-2.69
351.23,-3.18,-0.48,-3.20,-0.51,0.51,0.00,0.20,-2.67,-2.69,-2.70
354.74,-3.18,-0.51,-3.20,-0.52,0.52,0.00,0.22,-2.66,-2.68,-2.67
358.28,-3.18,-0.51,-3.20,-0.53,0.53,0.00,0.24,-2.65,-2.67,-2.67
361.87,-3.18,-0.51,-3.20,-0.54,0.54,0.00,0.26,-2.64,-2.67,-2.67
365.49,-3.18,-0.52,-3.20,-0.54,0.54,0.00,0.27,-2.64,-2.66,-2.66
369.14,-3.18,-0.53,-3.18,-0.52,0.52,0.00,0.29,-2.66,-2.65,-2.65
372.83,-3.18,-0.54,-3.14,-0.49,0.49,0.00,0.31,-2.69,-2.65,-2.64
376.56,-3.18,-0.53,-3.08,-0.44,0.44,0.00,0.33,-2.75,-2.65,-2.65
380.33,-3.09,-0.45,-3.01,-0.37,0.37,0.00,0.34,-2.72,-2.64,-2.64
384.13,-2.98,-0.35,-2.94,-0.30,0.30,0.00,0.36,-2.68,-2.64,-2.63
387.97,-2.95,-0.32,-2.87,-0.23,0.23,0.00,0.37,-2.72,-2.63,-2.63
391.85,-2.94,-0.31,-2.80,-0.17,0.17,0.00,0.39,-2.78,-2.63,-2.63
395.77,-2.78,-0.14,-2.72,-0.10,0.10,0.00,0.40,-2.68,-2.62,-2.64
399.73,-2.66,-0.03,-2.66,-0.04,0.04,0.00,0.42,-2.62,-2.62,-2.63
403.72,-2.45,0.16,-2.59,0.02,-0.02,0.00,0.43,-2.47,-2.61,-2.61
407.76,-2.30,0.31,-2.54,0.07,-0.07,0.00,0.44,-2.37,-2.61,-2.61
411.84,-2.27,0.33,-2.49,0.11,-0.11,0.00,0.45,-2.38,-2.60,-2.60
415.96,-2.27,0.32,-2.44,0.15,-0.15,0.00,0.46,-2.42,-2.59,-2.59
420.12,-2.45,0.14,-2.40,0.18,-0.18,0.00,0.47,-2.63,-2.58,-2.59
