frequency,raw,error,smoothed,error_smoothed,equalization,parametric_eq,fixed_band_eq,equalized_raw,equalized_smoothed,target
20.00,-1.28,-4.46,-1.28,-4.46,4.47,3.89,0.77,3.18,3.19,3.18
20.20,-1.19,-4.42,-1.20,-4.43,4.43,3.83,0.79,3.23,3.23,3.23
20.40,-1.10,-4.38,-1.11,-4.39,4.38,3.77,0.82,3.28,3.28,3.28
20.61,-1.03,-4.34,-1.02,-4.34,4.34,3.71,0.84,3.31,3.32,3.31
20.81,-0.93,-4.29,-0.93,-4.29,4.29,3.65,0.87,3.35,3.35,3.36
21.02,-0.84,-4.24,-0.85,-4.24,4.23,3.59,0.90,3.39,3.39,3.40
21.23,-0.75,-4.17,-0.76,-4.18,4.17,3.54,0.93,3.42,3.42,3.42
21.44,-0.67,-4.11,-0.67,-4.11,4.11,3.48,0.96,3.44,3.44,3.44
21.66,-0.59,-4.05,-0.58,-4.04,4.05,3.42,0.99,3.46,3.46,3.46
21.87,-0.49,-3.96,-0.50,-3.97,3.97,3.36,1.02,3.48,3.48,3.47
22.09,-0.41,-3.90,-0.41,-3.90,3.90,3.30,1.05,3.49,3.49,3.49
22.31,-0.33,-3.83,-0.33,-3.83,3.82,3.24,1.08,3.49,3.49,3.50
22.54,-0.26,-3.76,-0.25,-3.75,3.75,3.18,1.12,3.49,3.50,3.50
22.76,-0.17,-3.67,-0.17,-3.67,3.68,3.12,1.15,3.50,3.50,3.50
22.99,-0.09,-3.58,-0.10,-3.59,3.60,3.07,1.19,3.51,3.51,3.49
23.22,-0.02,-3.51,-0.02,-3.51,3.53,3.01,1.22,3.50,3.50,3.49
23.45,0.05,-3.44,0.04,-3.45,3.45,2.95,1.26,3.50,3.50,3.49
23.69,0.11,-3.39,0.11,-3.38,3.37,2.89,1.30,3.49,3.49,3.50
23.92,0.19,-3.31,0.19,-3.31,3.29,2.83,1.34,3.48,3.48,3.50
24.16,0.27,-3.23,0.27,-3.23,3.21,2.77,1.38,3.48,3.48,3.50
24.40,0.37,-3.14,0.36,-3.14,3.13,2.72,1.42,3.50,3.49,3.51
24.65,0.45,-3.05,0.46,-3.04,3.05,2.66,1.46,3.51,3.51,3.50
24.89,0.56,-2.94,0.55,-2.95,2.97,2.60,1.50,3.53,3.52,3.50
25.14,0.64,-2.86,0.63,-2.87,2.89,2.54,1.54,3.53,3.52,3.50
25.39,0.70,-2.81,0.70,-2.81,2.82,2.48,1.58,3.51,3.51,3.51
25.65,0.75,-2.75,0.76,-2.75,2.74,2.43,1.62,3.50,3.50,3.51
25.91,0.82,-2.68,0.82,-2.68,2.67,2.37,1.66,3.49,3.49,3.50
26.16,0.90,-2.60,0.89,-2.61,2.60,2.31,1.70,3.49,3.49,3.50
26.43,0.96,-2.54,0.97,-2.53,2.53,2.25,1.74,3.49,3.50,3.50
26.69,1.05,-2.45,1.04,-2.46,2.46,2.20,1.77,3.50,3.50,3.50
26.96,1.12,-2.38,1.12,-2.38,2.38,2.14,1.81,3.51,3.50,3.50
27.23,1.19,-2.31,1.20,-2.30,2.30,2.08,1.85,3.50,3.50,3.50
27.50,1.27,-2.22,1.27,-2.23,2.22,2.02,1.88,3.50,3.50,3.50
27.77,1.35,-2.14,1.35,-2.15,2.14,1.97,1.91,3.49,3.49,3.49
28.05,1.43,-2.06,1.43,-2.06,2.06,1.91,1.94,3.48,3.48,3.49
28.33,1.51,-1.97,1.51,-1.98,1.97,1.85,1.97,3.48,3.48,3.48
28.62,1.59,-1.89,1.59,-1.89,1.88,1.80,1.99,3.48,3.47,3.48
28.90,1.68,-1.81,1.68,-1.80,1.80,1.74,2.01,3.47,3.48,3.49
29.19,1.77,-1.71,1.77,-1.72,1.72,1.68,2.03,3.48,3.49,3.48
29.48,1.86,-1.63,1.86,-1.63,1.65,1.62,2.04,3.50,3.51,3.49
29.78,1.93,-1.55,1.94,-1.55,1.58,1.57,2.05,3.52,3.52,3.48
30.08,2.01,-1.48,2.00,-1.49,1.51,1.51,2.06,3.53,3.51,3.49
30.38,2.03,-1.44,2.03,-1.45,1.45,1.45,2.06,3.48,3.48,3.48
30.68,2.07,-1.41,2.07,-1.41,1.38,1.40,2.06,3.45,3.45,3.48
30.99,2.09,-1.38,2.11,-1.36,1.31,1.34,2.06,3.41,3.43,3.48
31.30,2.19,-1.28,2.20,-1.28,1.25,1.28,2.04,3.44,3.44,3.47
31.61,2.29,-1.17,2.29,-1.18,1.18,1.22,2.03,3.48,3.47,3.47
31.93,2.39,-1.08,2.38,-1.09,1.12,1.17,2.01,3.51,3.50,3.47
32.24,2.45,-1.01,2.44,-1.02,1.06,1.11,1.99,3.50,3.50,3.46
32.57,2.48,-0.97,2.49,-0.97,1.00,1.05,1.96,3.48,3.49,3.46
32.89,2.54,-0.92,2.53,-0.92,0.93,1.00,1.93,3.47,3.46,3.46
33.22,2.58,-0.87,2.57,-0.88,0.87,0.94,1.89,3.44,3.44,3.45
33.55,2.62,-0.83,2.62,-0.83,0.80,0.88,1.85,3.41,3.41,3.45
33.89,2.67,-0.77,2.68,-0.77,0.72,0.82,1.81,3.39,3.40,3.44
34.23,2.75,-0.68,2.76,-0.68,0.64,0.76,1.76,3.40,3.40,3.44
34.57,2.87,-0.56,2.86,-0.57,0.56,0.71,1.71,3.42,3.42,3.43
34.92,2.97,-0.46,2.97,-0.46,0.48,0.65,1.66,3.45,3.45,3.43
35.27,3.06,-0.36,3.07,-0.36,0.40,0.59,1.60,3.47,3.47,3.42
35.62,3.13,-0.28,3.14,-0.28,0.33,0.53,1.55,3.46,3.47,3.42
35.97,3.21,-0.21,3.19,-0.23,0.26,0.47,1.49,3.47,3.45,3.42
36.33,3.22,-0.20,3.21,-0.20,0.20,0.41,1.43,3.42,3.41,3.42
36.70,3.23,-0.18,3.23,-0.18,0.15,0.35,1.36,3.37,3.38,3.41
37.06,3.25,-0.16,3.27,-0.15,0.10,0.30,1.30,3.34,3.37,3.41
37.43,3.34,-0.08,3.33,-0.08,0.05,0.24,1.23,3.39,3.39,3.42
37.81,3.43,0.01,3.41,-0.00,0.01,0.18,1.16,3.43,3.42,3.42
38.19,3.49,0.09,3.49,0.07,-0.05,0.12,1.10,3.45,3.45,3.41
38.57,3.55,0.13,3.55,0.13,-0.10,0.06,1.03,3.44,3.45,3.42
38.95,3.60,0.17,3.59,0.17,-0.16,0.00,0.96,3.43,3.43,3.43
39.34,3.64,0.22,3.63,0.21,-0.22,-0.05,0.89,3.42,3.41,3.42
39.74,3.67,0.25,3.67,0.25,-0.27,-0.11,0.82,3.39,3.40,3.42
40.14,3.71,0.29,3.73,0.31,-0.31,-0.17,0.75,3.40,3.41,3.42
40.54,3.78,0.36,3.79,0.37,-0.36,-0.22,0.68,3.43,3.43,3.42
40.94,3.87,0.46,3.84,0.43,-0.40,-0.28,0.61,3.46,3.44,3.41
41.35,3.88,0.47,3.87,0.46,-0.46,-0.33,0.53,3.42,3.41,3.41
41.76,3.88,0.48,3.89,0.49,-0.51,-0.38,0.46,3.37,3.38,3.40
42.18,3.92,0.52,3.93,0.53,-0.56,-0.43,0.39,3.35,3.37,3.40
42.60,4.00,0.61,3.99,0.60,-0.61,-0.48,0.32,3.38,3.38,3.39
43.03,4.07,0.69,4.06,0.68,-0.66,-0.53,0.25,3.40,3.39,3.38
43.46,4.11,0.74,4.11,0.74,-0.71,-0.58,0.18,3.39,3.40,3.37
43.90,4.14,0.79,4.14,0.79,-0.77,-0.62,0.11,3.38,3.37,3.35
44.33,4.16,0.83,4.15,0.82,-0.82,-0.67,0.04,3.33,3.32,3.33
44.78,4.16,0.85,4.17,0.86,-0.88,-0.71,-0.03,3.27,3.29,3.31
45.23,4.19,0.90,4.21,0.91,-0.93,-0.75,-0.10,3.26,3.28,3.30
45.68,4.27,0.99,4.26,0.98,-0.98,-0.79,-0.17,3.29,3.28,3.29
46.13,4.34,1.07,4.32,1.04,-1.02,-0.83,-0.24,3.31,3.29,3.27
46.60,4.35,1.08,4.35,1.09,-1.07,-0.86,-0.31,3.28,3.28,3.27
47.06,4.37,1.12,4.38,1.13,-1.11,-0.90,-0.38,3.25,3.27,3.25
47.53,4.41,1.17,4.41,1.16,-1.16,-0.94,-0.45,3.25,3.25,3.24
48.01,4.45,1.21,4.43,1.19,-1.20,-0.97,-0.51,3.24,3.23,3.24
48.49,4.45,1.23,4.44,1.22,-1.25,-1.01,-0.58,3.20,3.20,3.22
48.97,4.45,1.25,4.46,1.26,-1.29,-1.04,-0.65,3.15,3.17,3.20
49.46,4.50,1.32,4.50,1.32,-1.34,-1.08,-0.72,3.16,3.16,3.18
49.96,4.55,1.40,4.55,1.39,-1.38,-1.11,-0.79,3.17,3.17,3.16
50.46,4.59,1.45,4.60,1.45,-1.43,-1.15,-0.86,3.17,3.18,3.15
50.96,4.65,1.51,4.63,1.49,-1.47,-1.18,-0.93,3.18,3.16,3.14
51.47,4.65,1.53,4.65,1.52,-1.51,-1.22,-0.99,3.14,3.14,3.12
51.99,4.65,1.54,4.65,1.54,-1.55,-1.25,-1.06,3.10,3.11,3.11
52.51,4.67,1.57,4.66,1.56,-1.58,-1.29,-1.13,3.09,3.08,3.10
53.03,4.68,1.58,4.68,1.59,-1.61,-1.33,-1.19,3.07,3.08,3.10
53.56,4.71,1.63,4.71,1.63,-1.63,-1.36,-1.26,3.08,3.08,3.08
54.10,4.73,1.67,4.72,1.66,-1.65,-1.40,-1.32,3.09,3.08,3.07
54.64,4.74,1.69,4.74,1.68,-1.67,-1.44,-1.39,3.07,3.07,3.05
55.18,4.74,1.69,4.74,1.69,-1.69,-1.48,-1.45,3.05,3.05,3.05
55.74,4.74,1.71,4.74,1.70,-1.71,-1.52,-1.51,3.03,3.03,3.03
56.29,4.74,1.72,4.74,1.72,-1.72,-1.56,-1.57,3.01,3.01,3.02
56.86,4.74,1.73,4.74,1.73,-1.73,-1.60,-1.63,3.00,3.00,3.01
57.42,4.74,1.76,4.74,1.75,-1.75,-1.64,-1.69,2.99,2.99,2.98
58.00,4.74,1.77,4.74,1.76,-1.76,-1.69,-1.75,2.97,2.97,2.97
58.58,4.74,1.78,4.74,1.78,-1.78,-1.73,-1.80,2.95,2.95,2.96
59.16,4.74,1.80,4.74,1.79,-1.81,-1.77,-1.86,2.93,2.93,2.94
59.76,4.74,1.82,4.74,1.82,-1.83,-1.82,-1.91,2.90,2.90,2.92
60.35,4.74,1.86,4.74,1.86,-1.86,-1.86,-1.96,2.88,2.88,2.88
60.96,4.74,1.90,4.74,1.89,-1.89,-1.91,-2.01,2.85,2.85,2.84
61.57,4.73,1.93,4.72,1.92,-1.92,-1.96,-2.06,2.81,2.81,2.80
62.18,4.71,1.95,4.70,1.94,-1.94,-2.00,-2.10,2.77,2.76,2.76
62.80,4.66,1.95,4.67,1.96,-1.96,-2.05,-2.15,2.70,2.71,2.71
63.43,4.64,1.97,4.64,1.97,-1.97,-2.10,-2.19,2.67,2.67,2.67
64.07,4.62,2.00,4.60,1.98,-1.97,-2.15,-2.23,2.64,2.63,2.62
64.71,4.57,1.99,4.57,1.99,-1.97,-2.20,-2.27,2.60,2.60,2.58
65.35,4.50,1.97,4.51,1.97,-1.96,-2.25,-2.31,2.55,2.55,2.54
66.01,4.45,1.96,4.42,1.93,-1.94,-2.30,-2.35,2.50,2.48,2.49
66.67,4.33,1.89,4.35,1.91,-1.92,-2.36,-2.38,2.40,2.43,2.44
67.33,4.27,1.88,4.29,1.89,-1.90,-2.41,-2.42,2.37,2.39,2.39
68.01,4.26,1.91,4.23,1.88,-1.88,-2.46,-2.45,2.38,2.35,2.35
68.69,4.18,1.88,4.17,1.87,-1.86,-2.52,-2.49,2.32,2.31,2.30
69.37,4.09,1.85,4.10,1.85,-1.84,-2.57,-2.52,2.25,2.26,2.25
70.07,4.02,1.82,4.03,1.83,-1.83,-2.63,-2.56,2.18,2.19,2.20
70.77,3.98,1.83,3.97,1.82,-1.83,-2.69,-2.59,2.15,2.14,2.15
71.48,3.93,1.83,3.93,1.83,-1.82,-2.74,-2.62,2.11,2.11,2.10
72.19,3.88,1.85,3.89,1.86,-1.82,-2.80,-2.66,2.06,2.07,2.03
72.91,3.87,1.91,3.85,1.87,-1.84,-2.86,-2.69,2.03,2.01,1.97
73.64,3.82,1.90,3.81,1.89,-1.89,-2.92,-2.73,1.92,1.92,1.92
74.38,3.78,1.92,3.79,1.93,-1.98,-2.98,-2.76,1.80,1.81,1.86
75.12,3.80,2.00,3.81,2.01,-2.10,-3.04,-2.80,1.70,1.71,1.80
75.87,3.90,2.16,3.90,2.16,-2.24,-3.10,-2.84,1.65,1.66,1.74
76.63,4.07,2.38,4.07,2.39,-2.42,-3.16,-2.88,1.65,1.66,1.69
77.40,4.27,2.64,4.27,2.64,-2.61,-3.22,-2.92,1.66,1.66,1.64
78.17,4.50,2.92,4.46,2.88,-2.83,-3.28,-2.96,1.67,1.64,1.58
78.95,4.63,3.09,4.63,3.10,-3.05,-3.35,-3.01,1.58,1.58,1.54
79.74,4.77,3.28,4.78,3.29,-3.27,-3.41,-3.06,1.50,1.51,1.49
80.54,4.92,3.48,4.92,3.48,-3.47,-3.47,-3.11,1.44,1.45,1.44
81.35,5.06,3.67,5.05,3.66,-3.66,-3.54,-3.16,1.41,1.39,1.39
82.16,5.18,3.84,5.16,3.82,-3.82,-3.60,-3.21,1.36,1.34,1.34
82.98,5.23,3.93,5.26,3.96,-3.96,-3.66,-3.27,1.27,1.30,1.30
83.81,5.35,4.10,5.33,4.09,-4.08,-3.73,-3.33,1.26,1.25,1.25
84.65,5.42,4.22,5.40,4.20,-4.20,-3.79,-3.39,1.22,1.21,1.20
85.50,5.46,4.30,5.46,4.31,-4.30,-3.86,-3.46,1.16,1.17,1.16
86.35,5.50,4.39,5.49,4.38,-4.38,-3.92,-3.53,1.11,1.11,1.11
87.22,5.52,4.46,5.51,4.45,-4.46,-3.99,-3.60,1.05,1.05,1.06
88.09,5.52,4.51,5.52,4.51,-4.53,-4.05,-3.67,0.98,0.99,1.01
88.97,5.52,4.57,5.52,4.57,-4.59,-4.12,-3.75,0.92,0.93,0.95
89.86,5.52,4.62,5.52,4.62,-4.63,-4.18,-3.82,0.88,0.89,0.90
90.76,5.52,4.67,5.51,4.66,-4.66,-4.25,-3.91,0.86,0.85,0.85
91.66,5.48,4.69,5.48,4.69,-4.66,-4.31,-3.99,0.82,0.82,0.80
92.58,5.43,4.69,5.42,4.67,-4.64,-4.38,-4.08,0.78,0.78,0.74
93.51,5.32,4.63,5.33,4.64,-4.59,-4.44,-4.17,0.72,0.74,0.69
94.44,5.20,4.56,5.20,4.56,-4.51,-4.51,-4.26,0.69,0.69,0.65
95.39,5.07,4.47,5.04,4.44,-4.41,-4.57,-4.36,0.65,0.63,0.60
96.34,4.86,4.31,4.87,4.32,-4.30,-4.64,-4.46,0.55,0.57,0.55
97.30,4.67,4.18,4.68,4.18,-4.19,-4.70,-4.56,0.49,0.49,0.50
98.28,4.52,4.07,4.50,4.05,-4.08,-4.76,-4.66,0.43,0.42,0.45
99.26,4.36,3.95,4.36,3.95,-4.00,-4.82,-4.76,0.35,0.36,0.41
100.25,4.25,3.89,4.26,3.90,-3.95,-4.89,-4.87,0.30,0.31,0.36
101.25,4.20,3.89,4.20,3.89,-3.93,-4.95,-4.98,0.27,0.27,0.31
102.27,4.20,3.94,4.19,3.93,-3.95,-5.01,-5.09,0.25,0.24,0.26
103.29,4.22,4.01,4.21,4.00,-4.00,-5.07,-5.20,0.21,0.21,0.21
104.32,4.25,4.08,4.26,4.09,-4.09,-5.12,-5.31,0.16,0.17,0.17
105.37,4.32,4.21,4.32,4.20,-4.19,-5.18,-5.41,0.13,0.13,0.12
106.42,4.41,4.34,4.40,4.33,-4.32,-5.24,-5.52,0.09,0.08,0.07
107.48,4.48,4.47,4.48,4.46,-4.45,-5.30,-5.63,0.02,0.02,0.01
108.56,4.56,4.60,4.55,4.59,-4.59,-5.35,-5.74,-0.03,-0.04,-0.04
109.64,4.62,4.71,4.63,4.72,-4.72,-5.40,-5.84,-0.11,-0.09,-0.09
110.74,4.72,4.87,4.71,4.85,-4.85,-5.46,-5.94,-0.14,-0.14,-0.15
111.85,4.81,5.00,4.80,4.99,-4.98,-5.51,-6.04,-0.18,-0.18,-0.19
112.97,4.86,5.11,4.87,5.12,-5.10,-5.56,-6.13,-0.25,-0.23,-0.25
114.10,4.94,5.25,4.92,5.22,-5.22,-5.61,-6.21,-0.27,-0.29,-0.30
115.24,4.96,5.31,4.96,5.32,-5.32,-5.65,-6.29,-0.37,-0.36,-0.35
116.39,5.01,5.41,5.01,5.41,-5.42,-5.70,-6.37,-0.41,-0.41,-0.40
117.55,5.05,5.49,5.06,5.50,-5.50,-5.74,-6.43,-0.46,-0.45,-0.44
118.73,5.12,5.60,5.11,5.59,-5.58,-5.79,-6.49,-0.46,-0.47,-0.48
119.92,5.16,5.67,5.14,5.66,-5.64,-5.83,-6.53,-0.49,-0.50,-0.51
121.12,5.16,5.71,5.16,5.71,-5.70,-5.87,-6.57,-0.54,-0.54,-0.55
122.33,5.17,5.75,5.17,5.75,-5.75,-5.90,-6.60,-0.59,-0.58,-0.58
123.55,5.18,5.79,5.17,5.79,-5.80,-5.94,-6.62,-0.62,-0.62,-0.61
124.79,5.19,5.83,5.18,5.82,-5.83,-5.97,-6.63,-0.65,-0.65,-0.64
126.03,5.19,5.86,5.19,5.86,-5.86,-6.01,-6.63,-0.68,-0.67,-0.67
127.29,5.20,5.89,5.20,5.90,-5.88,-6.04,-6.61,-0.69,-0.68,-0.69
128.57,5.21,5.94,5.19,5.92,-5.90,-6.07,-6.59,-0.70,-0.71,-0.73
129.85,5.20,5.96,5.17,5.93,-5.92,-6.09,-6.55,-0.73,-0.75,-0.76
131.15,5.12,5.91,5.14,5.94,-5.94,-6.12,-6.52,-0.83,-0.80,-0.79
132.46,5.12,5.94,5.12,5.94,-5.97,-6.14,-6.46,-0.85,-0.85,-0.82
133.79,5.13,5.98,5.11,5.96,-5.99,-6.16,-6.40,-0.87,-0.88,-0.85
135.12,5.13,6.01,5.13,6.01,-6.01,-6.18,-6.33,-0.89,-0.89,-0.88
136.48,5.14,6.04,5.13,6.04,-6.04,-6.19,-6.26,-0.90,-0.90,-0.90
137.84,5.14,6.08,5.13,6.07,-6.06,-6.21,-6.18,-0.93,-0.93,-0.94
139.22,5.14,6.11,5.14,6.11,-6.09,-6.22,-6.09,-0.95,-0.95,-0.97
140.61,5.14,6.14,5.14,6.14,-6.11,-6.23,-6.00,-0.98,-0.97,-1.00
142.02,5.14,6.16,5.11,6.13,-6.14,-6.23,-5.91,-1.00,-1.02,-1.02
143.44,5.09,6.14,5.08,6.13,-6.15,-6.24,-5.81,-1.07,-1.08,-1.05
144.87,5.02,6.11,5.06,6.15,-6.17,-6.24,-5.71,-1.15,-1.10,-1.09
146.32,5.06,6.19,5.05,6.18,-6.19,-6.24,-5.60,-1.13,-1.14,-1.13
147.78,5.08,6.25,5.04,6.21,-6.21,-6.24,-5.50,-1.12,-1.17,-1.16
149.26,5.00,6.21,5.01,6.23,-6.23,-6.23,-5.39,-1.23,-1.22,-1.21
150.75,4.95,6.22,4.95,6.22,-6.25,-6.23,-5.28,-1.30,-1.30,-1.27
152.26,4.89,6.23,4.89,6.23,-6.25,-6.21,-5.18,-1.37,-1.36,-1.34
153.78,4.84,6.25,4.85,6.26,-6.24,-6.20,-5.07,-1.41,-1.39,-1.41
155.32,4.80,6.28,4.78,6.26,-6.20,-6.19,-4.97,-1.41,-1.43,-1.48
156.88,4.69,6.25,4.66,6.22,-6.14,-6.17,-4.87,-1.45,-1.48,-1.56
158.44,4.47,6.12,4.49,6.13,-6.06,-6.15,-4.77,-1.58,-1.57,-1.64
160.03,4.29,6.01,4.30,6.02,-5.97,-6.13,-4.67,-1.69,-1.67,-1.72
161.63,4.11,5.90,4.09,5.88,-5.90,-6.10,-4.57,-1.79,-1.81,-1.79
163.24,3.92,5.78,3.91,5.76,-5.84,-6.07,-4.48,-1.92,-1.93,-1.85
164.88,3.75,5.65,3.78,5.68,-5.81,-6.04,-4.39,-2.06,-2.03,-1.90
166.53,3.72,5.67,3.72,5.67,-5.80,-6.01,-4.30,-2.09,-2.08,-1.95
168.19,3.76,5.75,3.76,5.75,-5.82,-5.97,-4.22,-2.06,-2.06,-1.99
169.87,3.86,5.89,3.86,5.89,-5.85,-5.94,-4.13,-2.00,-1.99,-2.03
171.57,3.97,6.02,3.95,6.00,-5.90,-5.89,-4.05,-1.93,-1.94,-2.05
173.29,4.03,6.09,3.99,6.05,-5.94,-5.85,-3.98,-1.92,-1.95,-2.06
175.02,3.96,6.03,3.96,6.03,-5.97,-5.80,-3.91,-2.02,-2.01,-2.07
176.77,3.89,5.97,3.90,5.98,-5.98,-5.76,-3.83,-2.10,-2.08,-2.08
178.54,3.83,5.92,3.85,5.93,-5.96,-5.70,-3.77,-2.14,-2.12,-2.09
180.32,3.84,5.92,3.82,5.91,-5.92,-5.65,-3.70,-2.09,-2.10,-2.08
182.13,3.81,5.88,3.80,5.88,-5.87,-5.59,-3.64,-2.07,-2.07,-2.07
183.95,3.77,5.85,3.74,5.82,-5.83,-5.53,-3.59,-2.06,-2.08,-2.08
185.79,3.68,5.76,3.68,5.76,-5.79,-5.47,-3.53,-2.11,-2.11,-2.08
187.65,3.59,5.69,3.62,5.72,-5.76,-5.41,-3.48,-2.18,-2.14,-2.10
189.52,3.61,5.72,3.58,5.69,-5.73,-5.34,-3.43,-2.13,-2.15,-2.11
191.42,3.57,5.70,3.57,5.70,-5.70,-5.27,-3.38,-2.13,-2.13,-2.13
193.33,3.54,5.69,3.56,5.71,-5.66,-5.19,-3.34,-2.12,-2.10,-2.15
195.27,3.53,5.70,3.49,5.66,-5.61,-5.12,-3.30,-2.09,-2.12,-2.17
197.22,3.42,5.61,3.40,5.59,-5.56,-5.04,-3.26,-2.15,-2.16,-2.19
199.19,3.26,5.47,3.29,5.50,-5.50,-4.96,-3.22,-2.25,-2.21,-2.21
201.18,3.18,5.41,3.17,5.40,-5.43,-4.88,-3.18,-2.26,-2.26,-2.23
203.19,3.08,5.33,3.07,5.32,-5.35,-4.79,-3.15,-2.27,-2.28,-2.25
205.23,2.99,5.26,2.98,5.25,-5.26,-4.70,-3.11,-2.27,-2.28,-2.27
207.28,2.88,5.16,2.87,5.16,-5.15,-4.61,-3.08,-2.28,-2.28,-2.28
209.35,2.75,5.05,2.76,5.07,-5.05,-4.52,-3.05,-2.31,-2.29,-2.30
211.44,2.64,4.98,2.64,4.97,-4.95,-4.42,-3.02,-2.30,-2.30,-2.33
213.56,2.53,4.87,2.51,4.85,-4.84,-4.32,-2.98,-2.31,-2.33,-2.34
215.69,2.36,4.72,2.36,4.71,-4.72,-4.22,-2.95,-2.36,-2.36,-2.35
217.85,2.20,4.56,2.22,4.58,-4.60,-4.11,-2.92,-2.40,-2.38,-2.36
220.03,2.09,4.46,2.09,4.46,-4.47,-4.01,-2.89,-2.39,-2.39,-2.37
222.23,1.97,4.37,1.96,4.34,-4.34,-3.90,-2.85,-2.37,-2.38,-2.40
224.45,1.84,4.23,1.82,4.21,-4.20,-3.78,-2.81,-2.37,-2.39,-2.39
226.70,1.66,4.05,1.67,4.06,-4.06,-3.67,-2.77,-2.41,-2.39,-2.39
228.96,1.52,3.90,1.53,3.91,-3.92,-3.55,-2.73,-2.40,-2.39,-2.38
231.25,1.40,3.78,1.39,3.76,-3.76,-3.43,-2.69,-2.36,-2.37,-2.37
233.57,1.26,3.62,1.25,3.62,-3.60,-3.31,-2.64,-2.35,-2.35,-2.36
235.90,1.11,3.46,1.10,3.46,-3.43,-3.18,-2.59,-2.32,-2.33,-2.35
238.26,0.94,3.28,0.94,3.27,-3.25,-3.05,-2.54,-2.32,-2.32,-2.34
240.64,0.77,3.09,0.77,3.08,-3.08,-2.92,-2.48,-2.31,-2.31,-2.31
243.05,0.61,2.89,0.61,2.89,-2.91,-2.78,-2.41,-2.31,-2.31,-2.28
245.48,0.45,2.71,0.46,2.72,-2.75,-2.65,-2.34,-2.30,-2.28,-2.26
247.93,0.32,2.56,0.31,2.54,-2.58,-2.51,-2.27,-2.26,-2.28,-2.23
250.41,0.20,2.42,0.19,2.39,-2.42,-2.36,-2.19,-2.22,-2.24,-2.21
252.92,0.01,2.19,0.09,2.27,-2.26,-2.22,-2.11,-2.26,-2.18,-2.18
255.45,0.03,2.19,-0.03,2.13,-2.11,-2.07,-2.02,-2.08,-2.14,-2.16
258.00,-0.13,2.01,-0.17,1.97,-1.95,-1.92,-1.93,-2.08,-2.12,-2.14
260.58,-0.35,1.77,-0.32,1.79,-1.78,-1.76,-1.83,-2.13,-2.10,-2.12
263.19,-0.54,1.55,-0.51,1.58,-1.59,-1.60,-1.73,-2.13,-2.10,-2.09
265.82,-0.66,1.41,-0.68,1.39,-1.38,-1.44,-1.62,-2.05,-2.06,-2.07
268.48,-0.83,1.22,-0.86,1.19,-1.16,-1.28,-1.51,-1.99,-2.01,-2.05
271.16,-1.07,0.96,-1.07,0.95,-0.91,-1.11,-1.39,-1.97,-1.98,-2.02
273.87,-1.33,0.68,-1.32,0.68,-0.66,-0.94,-1.27,-1.98,-1.97,-2.00
276.61,-1.58,0.40,-1.56,0.41,-0.41,-0.77,-1.15,-1.99,-1.97,-1.97
279.38,-1.78,0.16,-1.79,0.15,-0.18,-0.60,-1.02,-1.96,-1.97,-1.94
282.17,-2.01,-0.08,-2.03,-0.12,0.05,-0.42,-0.89,-1.96,-1.98,-1.92
284.99,-2.24,-0.35,-2.21,-0.33,0.26,-0.24,-0.75,-1.97,-1.95,-1.88
287.84,-2.41,-0.55,-2.36,-0.50,0.46,-0.05,-0.61,-1.95,-1.90,-1.86
290.72,-2.42,-0.59,-2.47,-0.64,0.65,0.13,-0.47,-1.78,-1.82,-1.83
293.63,-2.57,-0.77,-2.58,-0.78,0.83,0.32,-0.32,-1.75,-1.75,-1.80
296.57,-2.70,-0.93,-2.72,-0.95,1.00,0.51,-0.18,-1.70,-1.72,-1.77
299.53,-2.91,-1.17,-2.91,-1.17,1.19,0.71,-0.03,-1.73,-1.73,-1.74
302.53,-3.11,-1.39,-3.09,-1.37,1.37,0.91,0.13,-1.74,-1.71,-1.72
305.55,-3.25,-1.57,-3.26,-1.57,1.57,1.11,0.28,-1.68,-1.68,-1.68
308.61,-3.41,-1.75,-3.44,-1.78,1.78,1.31,0.44,-1.63,-1.65,-1.66
311.69,-3.62,-1.98,-3.63,-2.00,1.99,1.52,0.60,-1.62,-1.64,-1.63
314.81,-3.86,-2.25,-3.83,-2.22,2.20,1.72,0.76,-1.66,-1.63,-1.61
317.96,-4.04,-2.45,-4.03,-2.44,2.41,1.94,0.92,-1.63,-1.62,-1.59
321.14,-4.18,-2.60,-4.21,-2.63,2.62,2.15,1.09,-1.56,-1.59,-1.58
324.35,-4.38,-2.82,-4.37,-2.81,2.83,2.36,1.25,-1.56,-1.54,-1.56
327.59,-4.56,-3.00,-4.56,-3.01,3.03,2.58,1.42,-1.52,-1.52,-1.55
330.87,-4.74,-3.20,-4.76,-3.23,3.24,2.80,1.59,-1.51,-1.52,-1.54
334.18,-4.97,-3.45,-4.96,-3.44,3.44,3.02,1.76,-1.54,-1.53,-1.52
337.52,-5.17,-3.66,-5.17,-3.66,3.63,3.24,1.93,-1.54,-1.53,-1.51
340.90,-5.35,-3.85,-5.36,-3.86,3.83,3.46,2.11,-1.52,-1.53,-1.50
344.30,-5.54,-4.04,-5.53,-4.04,4.03,3.68,2.29,-1.51,-1.50,-1.49
347.75,-5.71,-4.22,-5.71,-4.22,4.23,3.91,2.46,-1.48,-1.48,-1.49
351.23,-5.88,-4.40,-5.91,-4.43,4.43,4.13,2.65,-1.45,-1.48,-1.48
354.74,-6.13,-4.64,-6.12,-4.63,4.64,4.35,2.83,-1.49,-1.47,-1.49
358.28,-6.35,-4.86,-6.32,-4.84,4.86,4.57,3.01,-1.49,-1.47,-1.48
361.87,-6.52,-5.04,-6.55,-5.07,5.08,4.78,3.20,-1.44,-1.46,-1.48
365.49,-6.77,-5.30,-6.78,-5.31,5.34,5.00,3.39,-1.43,-1.44,-1.47
369.14,-7.05,-5.57,-7.05,-5.57,5.63,5.21,3.58,-1.43,-1.42,-1.48
372.83,-7.35,-5.86,-7.34,-5.86,5.91,5.41,3.77,-1.44,-1.43,-1.48
376.56,-7.64,-6.15,-7.67,-6.19,6.15,5.61,3.97,-1.50,-1.53,-1.49
380.33,-7.97,-6.49,-8.01,-6.53,6.32,5.81,4.16,-1.65,-1.69,-1.48
384.13,-8.34,-6.86,-8.32,-6.83,6.44,5.99,4.36,-1.90,-1.87,-1.48
387.97,-8.45,-6.96,-8.42,-6.93,6.53,6.17,4.56,-1.93,-1.89,-1.49
391.85,-8.42,-6.92,-8.28,-6.78,6.58,6.34,4.76,-1.85,-1.70,-1.50
395.77,-7.91,-6.42,-8.02,-6.53,6.61,6.50,4.97,-1.31,-1.42,-1.49
399.73,-7.69,-6.19,-7.79,-6.29,6.59,6.64,5.17,-1.11,-1.20,-1.50
403.72,-7.75,-6.25,-7.72,-6.22,6.51,6.78,5.38,-1.24,-1.21,-1.50
407.76,-7.79,-6.27,-7.88,-6.37,6.40,6.90,5.58,-1.39,-1.48,-1.52
411.84,-8.06,-6.54,-8.00,-6.48,6.28,7.01,5.79,-1.79,-1.72,-1.52
415.96,-8.08,-6.56,-7.97,-6.44,6.17,7.10,6.00,-1.92,-1.80,-1.52
420.12,-7.75,-6.22,-7.76,-6.24,6.09,7.18,6.20,-1.65,-1.67,-1.52
424.32,-7.42,-5.90,-7.44,-5.92,6.03,7.25,6.41,-1.39,-1.40,-1.52
428.56,-7.15,-5.64,-7.25,-5.74,5.96,7.30,6.61,-1.19,-1.29,-1.51
432.85,-7.17,-5.67,-7.25,-5.75,5.88,7.34,6.81,-1.30,-1.37,-1.50
437.18,-7.43,-5.94,-7.29,-5.81,5.80,7.36,7.00,-1.63,-1.48,-1.49
441.55,-7.35,-5.90,-7.29,-5.84,5.76,7.36,7.19,-1.59,-1.53,-1.45
445.96,-7.15,-5.73,-7.24,-5.82,5.77,7.36,7.38,-1.39,-1.48,-1.42
450.42,-7.12,-5.73,-7.16,-5.78,5.81,7.34,7.55,-1.31,-1.35,-1.39
454.93,-7.22,-5.88,-7.18,-5.83,5.88,7.31,7.72,-1.35,-1.30,-1.34
459.48,-7.22,-5.92,-7.25,-5.95,5.94,7.26,7.88,-1.29,-1.31,-1.30
464.07,-7.29,-6.04,-7.27,-6.02,6.00,7.21,8.02,-1.30,-1.27,-1.25
468.71,-7.29,-6.10,-7.25,-6.06,6.05,7.15,8.15,-1.24,-1.20,-1.19
473.40,-7.18,-6.03,-7.26,-6.12,6.12,7.08,8.27,-1.07,-1.14,-1.15
478.13,-7.26,-6.17,-7.27,-6.17,6.18,7.00,8.37,-1.08,-1.09,-1.09
482.91,-7.33,-6.28,-7.29,-6.25,6.24,6.92,8.45,-1.09,-1.05,-1.05
487.74,-7.32,-6.31,-7.32,-6.31,6.29,6.83,8.51,-1.04,-1.03,-1.01
492.62,-7.28,-6.32,-7.29,-6.33,6.32,6.74,8.56,-0.97,-0.97,-0.96
497.55,-7.25,-6.31,-7.27,-6.33,6.34,6.65,8.58,-0.91,-0.93,-0.94
502.52,-7.25,-6.34,-7.26,-6.35,6.35,6.55,8.58,-0.90,-0.91,-0.91
