frequency,raw,error,smoothed,error_smoothed,equalization,parametric_eq,fixed_band_eq,equalized_raw,equalized_smoothed,target
20.00,11.29,2.64,11.29,2.64,-2.64,-1.91,-0.90,8.65,8.65,8.65
20.20,11.27,2.63,11.27,2.63,-2.63,-1.91,-0.93,8.64,8.64,8.64
20.40,11.25,2.62,11.25,2.63,-2.63,-1.91,-0.95,8.62,8.63,8.63
20.61,11.23,2.61,11.24,2.62,-2.62,-1.91,-0.98,8.61,8.62,8.62
20.81,11.22,2.62,11.22,2.61,-2.61,-1.91,-1.01,8.61,8.61,8.60
21.02,11.20,2.61,11.20,2.60,-2.60,-1.91,-1.04,8.60,8.59,8.59
21.23,11.18,2.60,11.18,2.60,-2.60,-1.91,-1.07,8.58,8.58,8.58
21.44,11.16,2.57,11.16,2.59,-2.59,-1.90,-1.10,8.57,8.58,8.59
21.66,11.15,2.58,11.14,2.58,-2.58,-1.90,-1.14,8.57,8.57,8.57
21.87,11.13,2.56,11.13,2.57,-2.57,-1.90,-1.17,8.56,8.56,8.57
22.09,11.11,2.56,11.11,2.56,-2.56,-1.90,-1.21,8.55,8.55,8.55
22.31,11.09,2.55,11.09,2.55,-2.55,-1.90,-1.24,8.54,8.54,8.54
22.54,11.07,2.54,11.07,2.53,-2.53,-1.90,-1.28,8.54,8.54,8.53
22.76,11.05,2.52,11.05,2.52,-2.52,-1.90,-1.31,8.53,8.53,8.53
22.99,11.03,2.51,11.03,2.51,-2.51,-1.90,-1.35,8.52,8.52,8.52
23.22,11.01,2.50,11.01,2.49,-2.49,-1.90,-1.39,8.52,8.52,8.51
23.45,10.99,2.47,11.00,2.48,-2.48,-1.90,-1.43,8.51,8.51,8.52
23.69,10.97,2.46,10.98,2.47,-2.47,-1.90,-1.47,8.50,8.51,8.51
23.92,10.96,2.46,10.96,2.45,-2.45,-1.89,-1.51,8.51,8.51,8.50
24.16,10.94,2.43,10.94,2.43,-2.43,-1.89,-1.56,8.51,8.50,8.51
24.40,10.92,2.41,10.92,2.42,-2.42,-1.89,-1.60,8.50,8.50,8.51
24.65,10.90,2.40,10.90,2.40,-2.40,-1.89,-1.64,8.50,8.50,8.50
24.89,10.88,2.38,10.88,2.38,-2.38,-1.89,-1.68,8.50,8.50,8.50
25.14,10.86,2.37,10.85,2.36,-2.36,-1.89,-1.73,8.50,8.50,8.49
25.39,10.83,2.34,10.83,2.34,-2.34,-1.89,-1.77,8.49,8.49,8.49
25.65,10.81,2.32,10.81,2.32,-2.32,-1.89,-1.82,8.49,8.49,8.49
25.91,10.79,2.30,10.79,2.30,-2.30,-1.89,-1.86,8.49,8.49,8.49
26.16,10.76,2.26,10.77,2.28,-2.28,-1.88,-1.90,8.48,8.49,8.50
26.43,10.74,2.25,10.74,2.25,-2.25,-1.88,-1.95,8.49,8.49,8.49
26.69,10.72,2.23,10.72,2.23,-2.23,-1.88,-1.99,8.49,8.49,8.49
26.96,10.69,2.20,10.70,2.21,-2.21,-1.88,-2.03,8.49,8.49,8.49
27.23,10.67,2.18,10.67,2.18,-2.18,-1.88,-2.07,8.49,8.49,8.49
27.50,10.65,2.16,10.65,2.15,-2.15,-1.88,-2.11,8.50,8.50,8.49
27.77,10.63,2.13,10.63,2.13,-2.13,-1.88,-2.15,8.50,8.50,8.50
28.05,10.61,2.12,10.60,2.10,-2.10,-1.88,-2.18,8.51,8.50,8.49
28.33,10.58,2.08,10.58,2.08,-2.08,-1.87,-2.22,8.50,8.50,8.50
28.62,10.55,2.05,10.55,2.05,-2.05,-1.87,-2.25,8.50,8.50,8.50
28.90,10.53,2.02,10.53,2.03,-2.03,-1.87,-2.28,8.50,8.50,8.51
29.19,10.50,1.99,10.51,2.01,-2.01,-1.87,-2.30,8.49,8.50,8.51
29.48,10.48,1.98,10.48,1.98,-1.98,-1.87,-2.33,8.50,8.50,8.50
29.78,10.46,1.96,10.45,1.96,-1.96,-1.87,-2.35,8.50,8.50,8.50
30.08,10.43,1.93,10.43,1.94,-1.94,-1.87,-2.37,8.50,8.49,8.50
30.38,10.40,1.92,10.40,1.91,-1.91,-1.86,-2.38,8.49,8.49,8.48
30.68,10.37,1.89,10.38,1.89,-1.89,-1.86,-2.39,8.48,8.49,8.48
30.99,10.34,1.86,10.35,1.87,-1.87,-1.86,-2.40,8.47,8.48,8.48
31.30,10.32,1.84,10.32,1.85,-1.85,-1.86,-2.40,8.47,8.47,8.48
31.61,10.29,1.82,10.29,1.83,-1.83,-1.86,-2.41,8.46,8.47,8.47
31.93,10.27,1.82,10.27,1.81,-1.81,-1.86,-2.40,8.46,8.46,8.45
32.24,10.24,1.78,10.24,1.79,-1.79,-1.85,-2.40,8.45,8.45,8.46
32.57,10.21,1.77,10.21,1.77,-1.77,-1.85,-2.39,8.45,8.45,8.44
32.89,10.19,1.75,10.18,1.74,-1.74,-1.85,-2.37,8.45,8.44,8.44
33.22,10.16,1.73,10.15,1.72,-1.72,-1.85,-2.36,8.44,8.43,8.43
33.55,10.12,1.69,10.12,1.70,-1.70,-1.85,-2.34,8.42,8.43,8.43
33.89,10.09,1.67,10.10,1.68,-1.68,-1.84,-2.32,8.41,8.42,8.42
34.23,10.06,1.66,10.07,1.66,-1.66,-1.84,-2.30,8.40,8.41,8.40
34.57,10.03,1.63,10.04,1.64,-1.64,-1.84,-2.27,8.40,8.40,8.40
34.92,10.01,1.63,10.01,1.62,-1.62,-1.84,-2.24,8.40,8.39,8.38
35.27,9.98,1.58,9.98,1.59,-1.59,-1.84,-2.21,8.39,8.38,8.40
35.62,9.94,1.57,9.94,1.57,-1.57,-1.83,-2.18,8.37,8.37,8.37
35.97,9.91,1.54,9.91,1.55,-1.55,-1.83,-2.15,8.36,8.36,8.37
36.33,9.88,1.53,9.88,1.54,-1.54,-1.83,-2.12,8.34,8.34,8.35
36.70,9.85,1.52,9.85,1.52,-1.52,-1.83,-2.08,8.33,8.33,8.33
37.06,9.82,1.51,9.82,1.50,-1.50,-1.83,-2.05,8.32,8.31,8.31
37.43,9.79,1.50,9.78,1.49,-1.49,-1.82,-2.01,8.30,8.29,8.29
37.81,9.75,1.47,9.75,1.48,-1.48,-1.82,-1.98,8.27,8.27,8.28
38.19,9.71,1.46,9.72,1.46,-1.46,-1.82,-1.94,8.25,8.25,8.25
38.57,9.68,1.45,9.68,1.45,-1.45,-1.82,-1.91,8.23,8.23,8.23
38.95,9.64,1.42,9.65,1.44,-1.44,-1.81,-1.87,8.20,8.21,8.22
39.34,9.61,1.42,9.62,1.43,-1.43,-1.81,-1.84,8.18,8.19,8.19
39.74,9.58,1.42,9.58,1.41,-1.41,-1.81,-1.80,8.17,8.17,8.16
40.14,9.55,1.41,9.55,1.40,-1.40,-1.81,-1.77,8.15,8.14,8.14
40.54,9.52,1.40,9.52,1.39,-1.39,-1.80,-1.74,8.13,8.12,8.12
40.94,9.48,1.39,9.48,1.38,-1.38,-1.80,-1.71,8.10,8.10,8.09
41.35,9.45,1.37,9.45,1.37,-1.37,-1.80,-1.67,8.08,8.08,8.08
41.76,9.41,1.36,9.41,1.36,-1.36,-1.80,-1.64,8.05,8.06,8.05
42.18,9.38,1.34,9.38,1.35,-1.35,-1.79,-1.62,8.03,8.03,8.04
42.60,9.34,1.33,9.34,1.34,-1.34,-1.79,-1.59,8.00,8.01,8.01
43.03,9.31,1.32,9.31,1.32,-1.32,-1.79,-1.56,7.99,7.98,7.99
43.46,9.27,1.32,9.27,1.31,-1.31,-1.78,-1.53,7.96,7.96,7.95
43.90,9.24,1.31,9.23,1.30,-1.30,-1.78,-1.51,7.94,7.93,7.93
44.33,9.20,1.30,9.19,1.29,-1.29,-1.78,-1.49,7.91,7.90,7.90
44.78,9.15,1.27,9.15,1.28,-1.28,-1.77,-1.46,7.88,7.88,7.88
45.23,9.11,1.25,9.11,1.27,-1.27,-1.77,-1.44,7.84,7.84,7.86
45.68,9.06,1.25,9.07,1.26,-1.26,-1.77,-1.42,7.80,7.81,7.81
46.13,9.02,1.24,9.03,1.25,-1.25,-1.77,-1.40,7.77,7.78,7.78
46.60,8.98,1.24,8.98,1.24,-1.24,-1.76,-1.39,7.74,7.74,7.74
47.06,8.94,1.23,8.94,1.24,-1.24,-1.76,-1.37,7.70,7.70,7.71
47.53,8.90,1.23,8.90,1.24,-1.24,-1.76,-1.35,7.67,7.66,7.67
48.01,8.86,1.24,8.85,1.23,-1.23,-1.75,-1.34,7.63,7.62,7.62
48.49,8.81,1.23,8.81,1.23,-1.23,-1.75,-1.32,7.58,7.58,7.58
48.97,8.76,1.23,8.77,1.23,-1.23,-1.75,-1.31,7.53,7.54,7.53
49.46,8.72,1.22,8.72,1.22,-1.22,-1.74,-1.30,7.50,7.50,7.50
49.96,8.67,1.23,8.68,1.22,-1.22,-1.74,-1.29,7.45,7.46,7.44
50.46,8.63,1.22,8.64,1.22,-1.22,-1.73,-1.28,7.41,7.41,7.41
50.96,8.59,1.22,8.59,1.22,-1.22,-1.73,-1.27,7.37,7.37,7.37
51.47,8.55,1.22,8.55,1.22,-1.22,-1.73,-1.26,7.33,7.33,7.33
51.99,8.51,1.23,8.50,1.22,-1.22,-1.72,-1.25,7.30,7.29,7.28
52.51,8.46,1.21,8.46,1.21,-1.21,-1.72,-1.25,7.25,7.25,7.25
53.03,8.42,1.20,8.41,1.21,-1.21,-1.71,-1.24,7.21,7.20,7.22
53.56,8.36,1.19,8.37,1.20,-1.20,-1.71,-1.24,7.16,7.16,7.17
54.10,8.31,1.19,8.32,1.20,-1.20,-1.71,-1.23,7.11,7.12,7.12
54.64,8.28,1.20,8.28,1.19,-1.19,-1.70,-1.23,7.09,7.09,7.08
55.18,8.23,1.19,8.23,1.18,-1.18,-1.70,-1.22,7.05,7.05,7.04
55.74,8.18,1.19,8.19,1.18,-1.18,-1.69,-1.22,7.01,7.01,6.99
56.29,8.14,1.17,8.14,1.17,-1.17,-1.69,-1.21,6.97,6.97,6.97
56.86,8.09,1.16,8.09,1.16,-1.16,-1.69,-1.21,6.93,6.93,6.93
57.42,8.04,1.16,8.05,1.16,-1.16,-1.68,-1.21,6.88,6.89,6.88
58.00,7.99,1.15,8.00,1.16,-1.16,-1.68,-1.20,6.84,6.85,6.84
58.58,7.96,1.15,7.96,1.15,-1.15,-1.67,-1.20,6.81,6.80,6.81
59.16,7.92,1.14,7.91,1.15,-1.15,-1.67,-1.20,6.77,6.76,6.78
59.76,7.87,1.14,7.86,1.16,-1.16,-1.66,-1.19,6.72,6.71,6.73
60.35,7.82,1.14,7.82,1.16,-1.16,-1.66,-1.19,6.66,6.66,6.68
60.96,7.77,1.15,7.77,1.16,-1.16,-1.65,-1.19,6.61,6.61,6.62
61.57,7.72,1.16,7.73,1.17,-1.17,-1.65,-1.18,6.55,6.56,6.56
62.18,7.68,1.18,7.68,1.17,-1.17,-1.64,-1.18,6.51,6.51,6.50
62.80,7.63,1.19,7.63,1.18,-1.18,-1.64,-1.18,6.45,6.45,6.44
63.43,7.59,1.20,7.59,1.19,-1.19,-1.63,-1.17,6.40,6.40,6.39
64.07,7.54,1.20,7.54,1.19,-1.19,-1.63,-1.17,6.35,6.35,6.34
64.71,7.49,1.20,7.49,1.20,-1.20,-1.62,-1.16,6.29,6.29,6.29
65.35,7.45,1.22,7.44,1.21,-1.21,-1.62,-1.16,6.24,6.24,6.23
66.01,7.40,1.22,7.40,1.21,-1.21,-1.61,-1.15,6.19,6.18,6.18
66.67,7.35,1.21,7.35,1.22,-1.22,-1.61,-1.15,6.13,6.13,6.14
67.33,7.30,1.23,7.30,1.23,-1.23,-1.60,-1.14,6.07,6.07,6.07
68.01,7.25,1.23,7.25,1.23,-1.23,-1.60,-1.14,6.02,6.02,6.02
68.69,7.19,1.22,7.20,1.24,-1.24,-1.59,-1.13,5.95,5.96,5.97
69.37,7.15,1.23,7.15,1.25,-1.25,-1.59,-1.12,5.90,5.91,5.92
70.07,7.11,1.25,7.11,1.26,-1.26,-1.58,-1.12,5.86,5.85,5.86
70.77,7.06,1.27,7.06,1.27,-1.27,-1.58,-1.11,5.80,5.79,5.79
71.48,7.01,1.27,7.01,1.28,-1.28,-1.57,-1.11,5.74,5.73,5.74
72.19,6.96,1.28,6.96,1.29,-1.29,-1.57,-1.10,5.68,5.68,5.68
72.91,6.91,1.30,6.92,1.29,-1.29,-1.56,-1.10,5.62,5.62,5.61
73.64,6.86,1.30,6.87,1.31,-1.31,-1.55,-1.10,5.55,5.56,5.56
74.38,6.82,1.32,6.83,1.32,-1.32,-1.55,-1.09,5.50,5.51,5.50
75.12,6.78,1.33,6.78,1.33,-1.33,-1.54,-1.09,5.46,5.45,5.45
75.87,6.74,1.34,6.73,1.33,-1.33,-1.54,-1.09,5.41,5.40,5.40
76.63,6.69,1.35,6.69,1.34,-1.34,-1.53,-1.08,5.35,5.35,5.34
77.40,6.64,1.34,6.64,1.34,-1.34,-1.53,-1.08,5.30,5.30,5.30
78.17,6.59,1.35,6.59,1.35,-1.35,-1.52,-1.08,5.24,5.25,5.24
78.95,6.54,1.34,6.55,1.35,-1.35,-1.51,-1.08,5.19,5.20,5.20
79.74,6.50,1.35,6.50,1.35,-1.35,-1.51,-1.08,5.15,5.15,5.15
80.54,6.45,1.35,6.44,1.35,-1.35,-1.50,-1.08,5.10,5.10,5.10
81.35,6.40,1.36,6.39,1.35,-1.35,-1.50,-1.08,5.06,5.05,5.04
82.16,6.34,1.33,6.34,1.34,-1.34,-1.49,-1.09,5.00,5.00,5.01
82.98,6.28,1.33,6.28,1.34,-1.34,-1.48,-1.09,4.94,4.95,4.95
83.81,6.23,1.33,6.23,1.34,-1.34,-1.48,-1.09,4.89,4.89,4.90
84.65,6.18,1.34,6.17,1.33,-1.33,-1.47,-1.10,4.85,4.84,4.84
85.50,6.13,1.35,6.12,1.33,-1.33,-1.46,-1.11,4.80,4.79,4.78
86.35,6.06,1.33,6.06,1.33,-1.33,-1.46,-1.11,4.73,4.73,4.73
87.22,5.99,1.31,6.01,1.33,-1.33,-1.45,-1.12,4.66,4.68,4.68
88.09,5.93,1.31,5.95,1.33,-1.33,-1.45,-1.13,4.60,4.62,4.62
88.97,5.88,1.32,5.89,1.33,-1.33,-1.44,-1.14,4.55,4.56,4.56
89.86,5.84,1.33,5.84,1.33,-1.33,-1.43,-1.15,4.51,4.51,4.51
90.76,5.78,1.33,5.78,1.33,-1.33,-1.43,-1.16,4.45,4.45,4.45
91.66,5.72,1.34,5.72,1.33,-1.33,-1.42,-1.17,4.39,4.39,4.38
92.58,5.66,1.33,5.66,1.33,-1.33,-1.42,-1.18,4.33,4.33,4.33
93.51,5.60,1.32,5.60,1.33,-1.33,-1.41,-1.20,4.27,4.27,4.28
94.44,5.55,1.33,5.53,1.33,-1.33,-1.40,-1.21,4.22,4.21,4.22
95.39,5.49,1.34,5.47,1.33,-1.33,-1.40,-1.23,4.16,4.14,4.15
96.34,5.43,1.35,5.41,1.33,-1.33,-1.39,-1.24,4.10,4.08,4.08
97.30,5.36,1.34,5.35,1.33,-1.33,-1.39,-1.26,4.03,4.02,4.02
98.28,5.28,1.33,5.29,1.33,-1.33,-1.38,-1.28,3.95,3.96,3.95
99.26,5.22,1.33,5.23,1.33,-1.33,-1.37,-1.29,3.89,3.90,3.89
100.25,5.15,1.32,5.18,1.33,-1.33,-1.37,-1.31,3.82,3.84,3.83
101.25,5.09,1.31,5.12,1.34,-1.34,-1.36,-1.33,3.75,3.78,3.78
102.27,5.03,1.31,5.06,1.34,-1.34,-1.36,-1.35,3.69,3.72,3.72
103.29,5.00,1.34,5.00,1.33,-1.33,-1.35,-1.37,3.67,3.66,3.66
104.32,4.96,1.35,4.94,1.33,-1.33,-1.35,-1.39,3.63,3.61,3.61
105.37,4.90,1.35,4.88,1.33,-1.33,-1.34,-1.41,3.57,3.55,3.55
106.42,4.84,1.34,4.82,1.33,-1.33,-1.33,-1.43,3.52,3.50,3.50
107.48,4.78,1.34,4.77,1.33,-1.33,-1.33,-1.45,3.45,3.44,3.44
108.56,4.72,1.33,4.71,1.33,-1.33,-1.32,-1.46,3.39,3.38,3.39
109.64,4.65,1.32,4.65,1.33,-1.33,-1.32,-1.48,3.32,3.32,3.33
110.74,4.59,1.32,4.59,1.33,-1.33,-1.31,-1.50,3.26,3.26,3.27
111.85,4.52,1.31,4.53,1.33,-1.33,-1.31,-1.52,3.19,3.21,3.21
112.97,4.45,1.29,4.47,1.32,-1.32,-1.31,-1.53,3.13,3.15,3.16
114.10,4.40,1.30,4.41,1.32,-1.32,-1.30,-1.55,3.08,3.09,3.10
115.24,4.34,1.32,4.35,1.32,-1.32,-1.30,-1.56,3.02,3.03,3.02
116.39,4.32,1.36,4.29,1.32,-1.32,-1.29,-1.57,3.00,2.97,2.96
117.55,4.26,1.36,4.24,1.32,-1.32,-1.29,-1.59,2.94,2.92,2.90
118.73,4.18,1.34,4.18,1.32,-1.32,-1.29,-1.60,2.86,2.86,2.84
119.92,4.11,1.31,4.13,1.33,-1.33,-1.28,-1.60,2.78,2.80,2.80
121.12,4.05,1.30,4.08,1.34,-1.34,-1.28,-1.61,2.71,2.74,2.75
122.33,4.02,1.33,4.04,1.35,-1.35,-1.28,-1.62,2.67,2.69,2.69
123.55,3.99,1.35,3.99,1.36,-1.36,-1.27,-1.62,2.63,2.63,2.64
124.79,3.94,1.35,3.94,1.37,-1.37,-1.27,-1.62,2.57,2.58,2.59
126.03,3.89,1.36,3.90,1.38,-1.38,-1.27,-1.62,2.51,2.52,2.53
127.29,3.86,1.38,3.85,1.39,-1.39,-1.27,-1.62,2.48,2.47,2.48
128.57,3.82,1.41,3.81,1.39,-1.39,-1.27,-1.61,2.43,2.41,2.41
129.85,3.78,1.42,3.77,1.41,-1.41,-1.27,-1.61,2.37,2.36,2.36
131.15,3.73,1.43,3.72,1.42,-1.42,-1.27,-1.60,2.31,2.31,2.30
132.46,3.69,1.44,3.68,1.43,-1.43,-1.27,-1.59,2.26,2.25,2.25
133.79,3.64,1.45,3.64,1.44,-1.44,-1.27,-1.58,2.20,2.19,2.19
135.12,3.58,1.44,3.59,1.45,-1.45,-1.27,-1.57,2.13,2.14,2.14
136.48,3.54,1.45,3.54,1.45,-1.45,-1.27,-1.56,2.09,2.09,2.09
137.84,3.49,1.45,3.49,1.46,-1.46,-1.27,-1.54,2.03,2.04,2.04
139.22,3.45,1.47,3.44,1.46,-1.46,-1.27,-1.53,1.99,1.99,1.98
140.61,3.41,1.47,3.39,1.46,-1.46,-1.28,-1.51,1.95,1.94,1.94
142.02,3.34,1.46,3.34,1.45,-1.45,-1.28,-1.50,1.89,1.89,1.88
143.44,3.30,1.46,3.30,1.45,-1.45,-1.29,-1.48,1.85,1.84,1.84
144.87,3.24,1.44,3.25,1.45,-1.45,-1.29,-1.46,1.79,1.80,1.80
146.32,3.20,1.45,3.20,1.45,-1.45,-1.30,-1.45,1.75,1.75,1.75
147.78,3.14,1.43,3.16,1.45,-1.45,-1.30,-1.43,1.69,1.71,1.71
149.26,3.10,1.44,3.11,1.45,-1.45,-1.31,-1.41,1.65,1.66,1.66
150.75,3.06,1.44,3.07,1.45,-1.45,-1.32,-1.39,1.61,1.62,1.62
152.26,3.02,1.44,3.03,1.45,-1.45,-1.33,-1.37,1.57,1.58,1.58
153.78,2.99,1.45,2.98,1.45,-1.45,-1.34,-1.36,1.54,1.53,1.54
155.32,2.95,1.45,2.94,1.45,-1.45,-1.35,-1.34,1.50,1.49,1.50
156.88,2.90,1.45,2.90,1.45,-1.45,-1.36,-1.32,1.45,1.45,1.45
158.44,2.87,1.47,2.86,1.46,-1.46,-1.37,-1.31,1.41,1.40,1.40
160.03,2.82,1.46,2.82,1.46,-1.46,-1.38,-1.29,1.36,1.36,1.36
161.63,2.78,1.46,2.78,1.47,-1.47,-1.39,-1.28,1.31,1.31,1.32
163.24,2.75,1.48,2.74,1.47,-1.47,-1.41,-1.26,1.28,1.27,1.27
164.88,2.69,1.47,2.70,1.48,-1.48,-1.42,-1.25,1.21,1.22,1.22
166.53,2.65,1.48,2.66,1.48,-1.48,-1.43,-1.24,1.17,1.18,1.17
168.19,2.62,1.48,2.62,1.49,-1.49,-1.45,-1.23,1.13,1.13,1.14
169.87,2.57,1.49,2.57,1.49,-1.49,-1.46,-1.22,1.08,1.08,1.08
171.57,2.53,1.50,2.53,1.49,-1.49,-1.48,-1.21,1.04,1.03,1.03
173.29,2.49,1.50,2.48,1.50,-1.50,-1.49,-1.20,0.99,0.99,0.99
175.02,2.43,1.49,2.44,1.50,-1.50,-1.51,-1.19,0.93,0.94,0.94
176.77,2.39,1.50,2.39,1.50,-1.50,-1.52,-1.18,0.89,0.89,0.89
178.54,2.35,1.50,2.35,1.50,-1.50,-1.53,-1.18,0.85,0.85,0.85
180.32,2.31,1.52,2.30,1.50,-1.50,-1.55,-1.17,0.81,0.80,0.79
182.13,2.26,1.50,2.25,1.50,-1.50,-1.56,-1.17,0.76,0.75,0.76
183.95,2.20,1.49,2.21,1.50,-1.50,-1.57,-1.17,0.70,0.71,0.71
185.79,2.16,1.50,2.17,1.50,-1.50,-1.58,-1.16,0.66,0.66,0.66
187.65,2.11,1.49,2.12,1.51,-1.51,-1.59,-1.16,0.61,0.62,0.62
189.52,2.07,1.49,2.08,1.51,-1.51,-1.59,-1.16,0.56,0.58,0.58
191.42,2.03,1.49,2.04,1.51,-1.51,-1.59,-1.16,0.52,0.53,0.54
193.33,1.99,1.49,2.00,1.51,-1.51,-1.59,-1.16,0.48,0.49,0.50
195.27,1.95,1.50,1.96,1.50,-1.50,-1.59,-1.16,0.45,0.45,0.45
197.22,1.92,1.52,1.91,1.50,-1.50,-1.59,-1.17,0.42,0.41,0.40
199.19,1.88,1.51,1.87,1.49,-1.49,-1.58,-1.17,0.39,0.38,0.37
201.18,1.84,1.51,1.83,1.49,-1.49,-1.57,-1.17,0.35,0.34,0.33
203.19,1.80,1.50,1.79,1.48,-1.48,-1.55,-1.18,0.32,0.31,0.30
205.23,1.75,1.47,1.75,1.47,-1.47,-1.54,-1.18,0.28,0.27,0.28
207.28,1.70,1.45,1.70,1.46,-1.46,-1.51,-1.18,0.24,0.24,0.25
209.35,1.66,1.45,1.65,1.45,-1.45,-1.49,-1.19,0.21,0.21,0.21
211.44,1.60,1.42,1.61,1.43,-1.43,-1.47,-1.19,0.17,0.18,0.18
213.56,1.56,1.40,1.56,1.41,-1.41,-1.44,-1.20,0.15,0.15,0.16
215.69,1.51,1.38,1.51,1.39,-1.39,-1.41,-1.20,0.13,0.12,0.13
217.85,1.45,1.35,1.46,1.36,-1.36,-1.38,-1.20,0.09,0.10,0.10
220.03,1.42,1.35,1.41,1.33,-1.33,-1.34,-1.21,0.09,0.07,0.07
222.23,1.37,1.33,1.36,1.31,-1.31,-1.31,-1.21,0.06,0.05,0.04
224.45,1.31,1.28,1.31,1.29,-1.29,-1.27,-1.21,0.03,0.03,0.03
226.70,1.26,1.26,1.27,1.26,-1.26,-1.23,-1.21,-0.00,0.01,-0.00
228.96,1.20,1.21,1.22,1.24,-1.24,-1.19,-1.21,-0.04,-0.01,-0.01
231.25,1.17,1.20,1.18,1.21,-1.21,-1.16,-1.21,-0.04,-0.03,-0.03
233.57,1.13,1.18,1.13,1.18,-1.18,-1.12,-1.20,-0.05,-0.05,-0.05
235.90,1.07,1.13,1.09,1.15,-1.15,-1.08,-1.20,-0.08,-0.06,-0.06
238.26,1.04,1.13,1.04,1.12,-1.12,-1.04,-1.19,-0.08,-0.08,-0.09
240.64,1.01,1.09,1.00,1.09,-1.09,-1.00,-1.18,-0.08,-0.09,-0.08
243.05,0.97,1.07,0.96,1.06,-1.06,-0.96,-1.17,-0.09,-0.10,-0.10
245.48,0.94,1.05,0.92,1.03,-1.03,-0.92,-1.16,-0.09,-0.11,-0.11
247.93,0.89,1.01,0.89,1.00,-1.00,-0.88,-1.15,-0.11,-0.11,-0.12
250.41,0.85,0.96,0.85,0.97,-0.97,-0.84,-1.13,-0.12,-0.12,-0.11
252.92,0.79,0.91,0.81,0.94,-0.94,-0.81,-1.11,-0.14,-0.12,-0.12
255.45,0.76,0.89,0.78,0.90,-0.90,-0.77,-1.09,-0.14,-0.13,-0.13
258.00,0.73,0.86,0.74,0.87,-0.87,-0.73,-1.07,-0.14,-0.13,-0.13
260.58,0.70,0.83,0.70,0.83,-0.83,-0.70,-1.04,-0.13,-0.13,-0.13
263.19,0.68,0.81,0.66,0.80,-0.80,-0.66,-1.02,-0.12,-0.14,-0.13
265.82,0.63,0.77,0.63,0.77,-0.77,-0.63,-0.99,-0.14,-0.14,-0.14
268.48,0.61,0.75,0.59,0.73,-0.73,-0.59,-0.96,-0.12,-0.14,-0.14
271.16,0.56,0.70,0.55,0.70,-0.70,-0.56,-0.93,-0.14,-0.15,-0.14
273.87,0.50,0.64,0.52,0.66,-0.66,-0.53,-0.90,-0.16,-0.15,-0.14
276.61,0.47,0.61,0.48,0.63,-0.63,-0.50,-0.86,-0.16,-0.15,-0.14
279.38,0.43,0.59,0.44,0.59,-0.59,-0.47,-0.82,-0.16,-0.15,-0.16
282.17,0.40,0.56,0.40,0.55,-0.55,-0.43,-0.79,-0.15,-0.15,-0.16
284.99,0.37,0.52,0.36,0.50,-0.50,-0.40,-0.75,-0.13,-0.15,-0.15
287.84,0.33,0.47,0.32,0.46,-0.46,-0.37,-0.71,-0.13,-0.14,-0.14
290.72,0.29,0.44,0.27,0.41,-0.41,-0.34,-0.67,-0.12,-0.14,-0.15
293.63,0.25,0.39,0.23,0.37,-0.37,-0.32,-0.62,-0.12,-0.14,-0.14
296.57,0.20,0.33,0.19,0.33,-0.33,-0.29,-0.58,-0.13,-0.13,-0.13
299.53,0.15,0.28,0.15,0.28,-0.28,-0.26,-0.54,-0.13,-0.13,-0.13
302.53,0.10,0.21,0.12,0.24,-0.24,-0.23,-0.49,-0.14,-0.12,-0.11
305.55,0.06,0.18,0.08,0.20,-0.20,-0.20,-0.45,-0.14,-0.12,-0.12
308.61,0.02,0.13,0.05,0.16,-0.16,-0.18,-0.40,-0.14,-0.11,-0.11
311.69,-0.01,0.09,0.02,0.12,-0.12,-0.15,-0.36,-0.13,-0.10,-0.10
314.81,-0.02,0.08,-0.02,0.08,-0.08,-0.12,-0.31,-0.10,-0.09,-0.10
317.96,-0.04,0.05,-0.05,0.04,-0.04,-0.09,-0.26,-0.08,-0.09,-0.09
321.14,-0.06,0.02,-0.07,0.01,-0.01,-0.07,-0.21,-0.07,-0.08,-0.08
324.35,-0.09,-0.01,-0.10,-0.03,0.03,-0.04,-0.17,-0.06,-0.07,-0.08
327.59,-0.12,-0.07,-0.12,-0.06,0.06,-0.02,-0.12,-0.06,-0.07,-0.05
330.87,-0.14,-0.08,-0.15,-0.09,0.09,0.01,-0.07,-0.05,-0.06,-0.06
334.18,-0.17,-0.12,-0.17,-0.12,0.12,0.04,-0.02,-0.05,-0.05,-0.05
337.52,-0.20,-0.15,-0.20,-0.15,0.15,0.06,0.03,-0.05,-0.04,-0.05
340.90,-0.22,-0.19,-0.22,-0.19,0.19,0.09,0.08,-0.03,-0.03,-0.03
344.30,-0.25,-0.23,-0.25,-0.22,0.22,0.12,0.13,-0.03,-0.03,-0.02
347.75,-0.27,-0.25,-0.27,-0.26,0.26,0.14,0.18,-0.01,-0.02,-0.02
351.23,-0.30,-0.28,-0.30,-0.29,0.29,0.17,0.23,-0.01,-0.01,-0.02
354.74,-0.33,-0.34,-0.33,-0.33,0.33,0.20,0.28,-0.00,-0.00,0.01
358.28,-0.36,-0.36,-0.36,-0.36,0.36,0.22,0.33,0.00,0.01,-0.00
361.87,-0.38,-0.39,-0.38,-0.39,0.39,0.25,0.38,0.01,0.01,0.01
365.49,-0.41,-0.43,-0.41,-0.43,0.43,0.28,0.43,0.02,0.02,0.02
369.14,-0.44,-0.48,-0.43,-0.46,0.46,0.30,0.48,0.02,0.03,0.04
372.83,-0.46,-0.50,-0.46,-0.50,0.50,0.33,0.53,0.04,0.04,0.04
376.56,-0.50,-0.54,-0.49,-0.54,0.54,0.36,0.58,0.04,0.05,0.04
380.33,-0.52,-0.57,-0.52,-0.57,0.57,0.39,0.63,0.06,0.06,0.05
384.13,-0.54,-0.61,-0.55,-0.61,0.61,0.42,0.68,0.07,0.06,0.07
387.97,-0.56,-0.63,-0.58,-0.65,0.65,0.44,0.74,0.09,0.07,0.07
391.85,-0.59,-0.67,-0.61,-0.69,0.69,0.47,0.79,0.10,0.08,0.08
395.77,-0.62,-0.71,-0.64,-0.73,0.73,0.50,0.84,0.11,0.09,0.09
399.73,-0.66,-0.76,-0.66,-0.76,0.76,0.53,0.89,0.11,0.10,0.10
403.72,-0.69,-0.82,-0.68,-0.80,0.80,0.56,0.94,0.11,0.11,0.13
407.76,-0.72,-0.84,-0.70,-0.82,0.82,0.59,0.99,0.10,0.12,0.12
411.84,-0.74,-0.87,-0.72,-0.85,0.85,0.62,1.04,0.11,0.13,0.13
415.96,-0.76,-0.91,-0.73,-0.87,0.87,0.65,1.09,0.11,0.14,0.15
420.12,-0.78,-0.93,-0.74,-0.89,0.89,0.69,1.14,0.11,0.15,0.15
424.32,-0.78,-0.94,-0.75,-0.91,0.91,0.72,1.19,0.13,0.16,0.16
428.56,-0.77,-0.95,-0.76,-0.93,0.93,0.75,1.24,0.16,0.17,0.18
432.85,-0.76,-0.95,-0.77,-0.95,0.95,0.78,1.28,0.19,0.18,0.19
437.18,-0.75,-0.93,-0.78,-0.97,0.97,0.81,1.33,0.22,0.19,0.18
441.55,-0.76,-0.95,-0.79,-0.99,0.99,0.85,1.37,0.23,0.20,0.19
445.96,-0.77,-0.97,-0.80,-1.01,1.01,0.88,1.41,0.24,0.21,0.20
450.42,-0.80,-1.01,-0.82,-1.03,1.03,0.92,1.45,0.23,0.21,0.21
454.93,-0.82,-1.04,-0.84,-1.06,1.06,0.95,1.49,0.24,0.22,0.22
459.48,-0.85,-1.08,-0.86,-1.09,1.09,0.99,1.53,0.24,0.23,0.23
464.07,-0.88,-1.13,-0.88,-1.12,1.12,1.02,1.56,0.25,0.24,0.25
468.71,-0.91,-1.17,-0.91,-1.16,1.16,1.06,1.59,0.25,0.25,0.26
473.40,-0.95,-1.21,-0.94,-1.20,1.20,1.09,1.62,0.25,0.26,0.26
478.13,-0.98,-1.25,-0.97,-1.24,1.24,1.13,1.65,0.26,0.27,0.27
482.91,-1.01,-1.29,-1.00,-1.28,1.28,1.17,1.67,0.27,0.28,0.28
487.74,-1.04,-1.33,-1.03,-1.32,1.32,1.20,1.69,0.28,0.29,0.29
492.62,-1.06,-1.36,-1.05,-1.35,1.35,1.24,1.71,0.29,0.30,0.30
497.55,-1.08,-1.39,-1.07,-1.38,1.38,1.28,1.72,0.30,0.32,0.31
502.52,-1.10,-1.42,-1.08,-1.41,1.41,1.31,1.73,0.31,0.33,0.32
507.55,-1.12,-1.46,-1.09,-1.43,1.43,1.35,1.74,0.31,0.34,0.34
512.62,-1.11,-1.46,-1.10,-1.45,1.45,1.39,1.74,0.34,0.35,0.35
517.75,-1.11,-1.48,-1.10,-1.47,1.47,1.43,1.74,0.36,0.36,0.37
