frequency,raw,error,smoothed,error_smoothed,equalization,parametric_eq,fixed_band_eq,equalized_raw,equalized_smoothed,target
20.00,-0.51,-4.86,-0.45,-4.83,4.83,3.60,1.46,4.31,4.38,4.35
20.20,-0.43,-4.83,-0.40,-4.81,4.81,3.60,1.50,4.38,4.41,4.40
20.40,-0.36,-4.81,-0.34,-4.79,4.79,3.60,1.55,4.43,4.45,4.45
20.61,-0.28,-4.76,-0.29,-4.77,4.77,3.59,1.59,4.49,4.48,4.48
20.81,-0.21,-4.74,-0.24,-4.75,4.75,3.59,1.64,4.54,4.51,4.53
21.02,-0.14,-4.71,-0.19,-4.73,4.73,3.58,1.69,4.59,4.54,4.57
21.23,-0.09,-4.68,-0.14,-4.71,4.71,3.58,1.75,4.62,4.57,4.59
21.44,-0.05,-4.66,-0.09,-4.68,4.68,3.58,1.80,4.63,4.59,4.61
21.66,-0.01,-4.64,-0.05,-4.66,4.66,3.57,1.85,4.65,4.61,4.63
21.87,0.04,-4.60,-0.00,-4.63,4.63,3.57,1.91,4.67,4.63,4.64
22.09,0.07,-4.59,0.04,-4.60,4.60,3.57,1.97,4.67,4.65,4.66
22.31,0.09,-4.58,0.09,-4.57,4.57,3.56,2.03,4.66,4.66,4.67
22.54,0.11,-4.56,0.12,-4.55,4.55,3.56,2.09,4.65,4.66,4.67
22.76,0.14,-4.53,0.15,-4.51,4.51,3.55,2.15,4.65,4.67,4.67
22.99,0.16,-4.50,0.19,-4.48,4.48,3.55,2.21,4.64,4.67,4.66
23.22,0.20,-4.46,0.23,-4.44,4.44,3.54,2.28,4.64,4.67,4.66
23.45,0.24,-4.42,0.27,-4.41,4.41,3.54,2.35,4.64,4.67,4.66
23.69,0.28,-4.39,0.30,-4.37,4.37,3.53,2.41,4.64,4.67,4.67
23.92,0.33,-4.34,0.34,-4.33,4.33,3.53,2.48,4.66,4.67,4.67
24.16,0.38,-4.29,0.38,-4.29,4.29,3.52,2.56,4.67,4.67,4.67
24.40,0.44,-4.24,0.43,-4.24,4.24,3.52,2.63,4.68,4.67,4.68
24.65,0.50,-4.17,0.47,-4.20,4.20,3.51,2.70,4.69,4.67,4.67
24.89,0.56,-4.11,0.52,-4.15,4.15,3.51,2.78,4.71,4.67,4.67
25.14,0.60,-4.07,0.57,-4.11,4.11,3.50,2.85,4.70,4.67,4.67
25.39,0.62,-4.06,0.61,-4.06,4.06,3.50,2.93,4.68,4.67,4.68
25.65,0.64,-4.04,0.65,-4.02,4.02,3.49,3.00,4.66,4.67,4.68
25.91,0.66,-4.01,0.69,-3.98,3.98,3.48,3.08,4.64,4.67,4.67
26.16,0.70,-3.97,0.73,-3.94,3.94,3.48,3.15,4.64,4.67,4.67
26.43,0.76,-3.91,0.77,-3.90,3.90,3.47,3.23,4.66,4.67,4.67
26.69,0.81,-3.86,0.80,-3.86,3.86,3.47,3.30,4.67,4.67,4.67
26.96,0.86,-3.81,0.84,-3.83,3.83,3.46,3.37,4.68,4.66,4.67
27.23,0.88,-3.79,0.87,-3.80,3.80,3.45,3.45,4.67,4.66,4.67
27.50,0.90,-3.77,0.89,-3.77,3.77,3.45,3.52,4.67,4.66,4.67
27.77,0.92,-3.74,0.92,-3.75,3.75,3.44,3.58,4.66,4.66,4.66
28.05,0.94,-3.72,0.94,-3.72,3.72,3.43,3.65,4.66,4.66,4.66
28.33,0.98,-3.67,0.97,-3.68,3.68,3.43,3.71,4.66,4.66,4.65
28.62,1.02,-3.63,1.00,-3.65,3.65,3.42,3.77,4.67,4.66,4.65
28.90,1.07,-3.59,1.03,-3.62,3.62,3.41,3.83,4.69,4.66,4.66
29.19,1.07,-3.58,1.05,-3.60,3.60,3.40,3.88,4.67,4.65,4.65
29.48,1.06,-3.60,1.08,-3.58,3.58,3.39,3.93,4.64,4.65,4.66
29.78,1.04,-3.61,1.10,-3.55,3.55,3.39,3.97,4.59,4.65,4.65
30.08,1.05,-3.61,1.12,-3.53,3.53,3.38,4.01,4.58,4.65,4.66
30.38,1.12,-3.53,1.14,-3.51,3.51,3.37,4.04,4.62,4.65,4.65
30.68,1.20,-3.45,1.17,-3.48,3.48,3.36,4.07,4.68,4.65,4.65
30.99,1.28,-3.37,1.20,-3.45,3.45,3.35,4.09,4.72,4.64,4.65
31.30,1.27,-3.37,1.23,-3.41,3.41,3.34,4.11,4.68,4.64,4.64
31.61,1.26,-3.38,1.26,-3.38,3.38,3.33,4.12,4.64,4.64,4.64
31.93,1.25,-3.39,1.28,-3.35,3.35,3.33,4.12,4.60,4.64,4.64
32.24,1.28,-3.35,1.31,-3.32,3.32,3.32,4.12,4.60,4.63,4.63
32.57,1.32,-3.31,1.34,-3.28,3.28,3.31,4.12,4.60,4.63,4.63
32.89,1.37,-3.26,1.38,-3.24,3.24,3.30,4.11,4.61,4.62,4.63
33.22,1.42,-3.20,1.42,-3.20,3.20,3.29,4.09,4.62,4.62,4.62
33.55,1.47,-3.15,1.45,-3.17,3.17,3.28,4.07,4.64,4.61,4.62
33.89,1.52,-3.09,1.47,-3.14,3.14,3.27,4.05,4.66,4.61,4.61
34.23,1.52,-3.09,1.49,-3.11,3.11,3.25,4.02,4.63,4.60,4.61
34.57,1.50,-3.10,1.52,-3.08,3.08,3.24,3.99,4.58,4.60,4.60
34.92,1.48,-3.12,1.55,-3.04,3.04,3.23,3.95,4.52,4.60,4.60
35.27,1.54,-3.05,1.58,-3.01,3.01,3.22,3.92,4.55,4.59,4.59
35.62,1.64,-2.95,1.61,-2.98,2.98,3.21,3.88,4.61,4.59,4.59
35.97,1.73,-2.86,1.64,-2.95,2.95,3.20,3.84,4.68,4.59,4.59
36.33,1.70,-2.89,1.66,-2.93,2.93,3.19,3.80,4.62,4.59,4.59
36.70,1.66,-2.92,1.68,-2.91,2.91,3.17,3.75,4.56,4.59,4.58
37.06,1.63,-2.95,1.70,-2.89,2.89,3.16,3.71,4.52,4.59,4.58
37.43,1.69,-2.90,1.72,-2.87,2.87,3.15,3.67,4.56,4.59,4.59
37.81,1.75,-2.84,1.73,-2.85,2.85,3.13,3.63,4.60,4.59,4.59
38.19,1.78,-2.80,1.75,-2.84,2.84,3.12,3.58,4.62,4.59,4.58
38.57,1.78,-2.81,1.76,-2.82,2.82,3.11,3.54,4.60,4.59,4.59
38.95,1.78,-2.82,1.77,-2.82,2.82,3.09,3.50,4.60,4.59,4.60
39.34,1.78,-2.81,1.77,-2.82,2.82,3.08,3.46,4.59,4.59,4.59
39.74,1.78,-2.81,1.77,-2.82,2.82,3.06,3.42,4.59,4.59,4.59
40.14,1.78,-2.81,1.78,-2.81,2.81,3.05,3.39,4.59,4.59,4.59
40.54,1.78,-2.81,1.78,-2.80,2.80,3.03,3.35,4.58,4.59,4.59
40.94,1.78,-2.80,1.79,-2.79,2.79,3.02,3.32,4.57,4.58,4.58
41.35,1.78,-2.80,1.79,-2.79,2.79,3.00,3.29,4.57,4.58,4.58
41.76,1.78,-2.79,1.78,-2.78,2.78,2.98,3.26,4.56,4.57,4.57
42.18,1.78,-2.79,1.78,-2.78,2.78,2.97,3.23,4.56,4.56,4.57
42.60,1.78,-2.78,1.78,-2.77,2.77,2.95,3.21,4.55,4.55,4.56
43.03,1.78,-2.77,1.78,-2.76,2.76,2.93,3.19,4.54,4.54,4.55
43.46,1.78,-2.76,1.78,-2.75,2.75,2.92,3.17,4.53,4.53,4.54
43.90,1.78,-2.74,1.78,-2.74,2.74,2.90,3.16,4.52,4.52,4.52
44.33,1.78,-2.72,1.78,-2.72,2.72,2.88,3.14,4.50,4.50,4.50
44.78,1.78,-2.70,1.78,-2.71,2.71,2.86,3.13,4.49,4.49,4.48
45.23,1.78,-2.69,1.79,-2.69,2.69,2.84,3.12,4.47,4.48,4.47
45.68,1.78,-2.68,1.79,-2.67,2.67,2.82,3.12,4.45,4.46,4.46
46.13,1.78,-2.66,1.79,-2.65,2.65,2.80,3.11,4.43,4.45,4.44
46.60,1.78,-2.66,1.79,-2.64,2.64,2.78,3.11,4.42,4.43,4.44
47.06,1.78,-2.64,1.79,-2.63,2.63,2.76,3.11,4.41,4.42,4.42
47.53,1.78,-2.63,1.78,-2.62,2.62,2.74,3.12,4.40,4.40,4.41
48.01,1.78,-2.63,1.77,-2.62,2.62,2.71,3.12,4.40,4.39,4.41
48.49,1.78,-2.61,1.76,-2.62,2.62,2.69,3.13,4.40,4.38,4.39
48.97,1.78,-2.59,1.74,-2.62,2.62,2.67,3.14,4.40,4.36,4.37
49.46,1.77,-2.58,1.72,-2.63,2.63,2.65,3.15,4.40,4.35,4.35
49.96,1.75,-2.58,1.71,-2.63,2.63,2.62,3.16,4.38,4.34,4.33
50.46,1.66,-2.66,1.68,-2.64,2.64,2.60,3.17,4.30,4.32,4.32
50.96,1.56,-2.75,1.65,-2.66,2.66,2.57,3.19,4.21,4.31,4.31
51.47,1.57,-2.72,1.62,-2.68,2.68,2.55,3.20,4.24,4.30,4.29
51.99,1.60,-2.68,1.59,-2.70,2.70,2.52,3.22,4.30,4.28,4.28
52.51,1.54,-2.73,1.54,-2.73,2.73,2.49,3.23,4.27,4.27,4.27
53.03,1.48,-2.79,1.49,-2.76,2.76,2.47,3.25,4.24,4.26,4.27
53.56,1.46,-2.79,1.44,-2.81,2.81,2.44,3.26,4.26,4.25,4.25
54.10,1.44,-2.80,1.38,-2.86,2.86,2.41,3.28,4.30,4.24,4.24
54.64,1.37,-2.85,1.31,-2.92,2.92,2.38,3.29,4.29,4.23,4.22
55.18,1.28,-2.94,1.24,-2.98,2.98,2.35,3.30,4.26,4.22,4.22
55.74,1.18,-3.02,1.16,-3.04,3.04,2.32,3.31,4.22,4.20,4.20
56.29,1.10,-3.09,1.10,-3.10,3.10,2.29,3.31,4.19,4.19,4.19
56.86,1.05,-3.13,1.02,-3.15,3.15,2.26,3.32,4.20,4.18,4.18
57.42,0.94,-3.21,0.94,-3.22,3.22,2.23,3.32,4.16,4.16,4.15
58.00,0.81,-3.33,0.85,-3.29,3.29,2.19,3.31,4.10,4.14,4.14
58.58,0.74,-3.39,0.77,-3.35,3.35,2.16,3.30,4.09,4.12,4.13
59.16,0.66,-3.45,0.68,-3.41,3.41,2.13,3.29,4.07,4.09,4.11
59.76,0.57,-3.52,0.60,-3.46,3.46,2.09,3.27,4.03,4.07,4.09
60.35,0.53,-3.52,0.54,-3.50,3.50,2.06,3.25,4.03,4.04,4.05
60.96,0.53,-3.48,0.48,-3.52,3.52,2.02,3.22,4.05,4.00,4.01
61.57,0.52,-3.45,0.44,-3.53,3.53,1.98,3.19,4.04,3.97,3.97
62.18,0.47,-3.46,0.41,-3.52,3.52,1.94,3.15,3.99,3.93,3.93
62.80,0.34,-3.54,0.39,-3.50,3.50,1.90,3.10,3.83,3.89,3.88
63.43,0.29,-3.55,0.39,-3.46,3.46,1.87,3.05,3.74,3.84,3.84
64.07,0.28,-3.51,0.40,-3.40,3.40,1.82,2.99,3.68,3.80,3.79
64.71,0.36,-3.39,0.42,-3.33,3.33,1.78,2.92,3.69,3.75,3.75
65.35,0.44,-3.27,0.46,-3.25,3.25,1.74,2.85,3.69,3.71,3.71
66.01,0.51,-3.15,0.51,-3.15,3.15,1.70,2.78,3.66,3.66,3.66
66.67,0.58,-3.03,0.56,-3.05,3.05,1.65,2.69,3.63,3.61,3.61
67.33,0.65,-2.91,0.62,-2.94,2.94,1.61,2.61,3.59,3.56,3.56
68.01,0.71,-2.81,0.69,-2.83,2.83,1.56,2.51,3.53,3.52,3.52
68.69,0.77,-2.70,0.76,-2.70,2.70,1.51,2.42,3.47,3.47,3.47
69.37,0.85,-2.57,0.84,-2.58,2.58,1.47,2.31,3.43,3.41,3.42
70.07,0.95,-2.42,0.92,-2.45,2.45,1.42,2.21,3.39,3.36,3.37
70.77,1.01,-2.31,0.99,-2.32,2.32,1.37,2.10,3.33,3.31,3.32
71.48,1.08,-2.19,1.06,-2.20,2.20,1.32,1.99,3.28,3.25,3.27
72.19,1.14,-2.06,1.11,-2.09,2.09,1.26,1.87,3.23,3.20,3.20
72.91,1.18,-1.96,1.15,-1.99,1.99,1.21,1.75,3.17,3.14,3.14
73.64,1.18,-1.91,1.19,-1.90,1.90,1.16,1.63,3.08,3.09,3.09
74.38,1.22,-1.81,1.22,-1.81,1.81,1.10,1.51,3.03,3.03,3.03
75.12,1.28,-1.69,1.23,-1.74,1.74,1.04,1.38,3.02,2.97,2.97
75.87,1.28,-1.63,1.25,-1.67,1.67,0.99,1.25,2.95,2.92,2.91
76.63,1.34,-1.52,1.26,-1.60,1.60,0.93,1.12,2.94,2.86,2.86
77.40,1.38,-1.43,1.28,-1.53,1.53,0.87,0.99,2.91,2.81,2.81
78.17,1.37,-1.38,1.30,-1.46,1.46,0.80,0.86,2.83,2.76,2.75
78.95,1.35,-1.36,1.34,-1.36,1.36,0.74,0.72,2.71,2.71,2.71
79.74,1.30,-1.36,1.40,-1.26,1.26,0.68,0.59,2.56,2.66,2.66
80.54,1.34,-1.27,1.47,-1.14,1.14,0.61,0.45,2.48,2.61,2.61
81.35,1.43,-1.13,1.56,-1.00,1.00,0.55,0.32,2.43,2.56,2.56
82.16,1.54,-0.97,1.68,-0.83,0.83,0.48,0.18,2.37,2.51,2.51
82.98,1.67,-0.80,1.82,-0.65,0.65,0.41,0.04,2.32,2.46,2.47
83.81,1.90,-0.52,1.97,-0.45,0.45,0.34,-0.10,2.35,2.42,2.42
84.65,2.10,-0.27,2.14,-0.23,0.23,0.26,-0.24,2.33,2.37,2.37
85.50,2.33,-0.00,2.32,-0.00,0.00,0.19,-0.38,2.33,2.32,2.33
86.35,2.57,0.29,2.51,0.24,-0.24,0.12,-0.52,2.33,2.27,2.28
87.22,2.77,0.54,2.70,0.48,-0.48,0.04,-0.66,2.29,2.22,2.23
88.09,2.93,0.75,2.89,0.72,-0.72,-0.04,-0.80,2.21,2.17,2.18
88.97,3.16,1.04,3.07,0.95,-0.95,-0.12,-0.94,2.21,2.12,2.12
89.86,3.36,1.29,3.24,1.17,-1.17,-0.20,-1.09,2.19,2.07,2.07
90.76,3.51,1.49,3.39,1.38,-1.38,-0.28,-1.23,2.13,2.02,2.02
91.66,3.60,1.63,3.53,1.56,-1.56,-0.37,-1.38,2.03,1.97,1.97
92.58,3.67,1.76,3.66,1.74,-1.74,-0.45,-1.52,1.93,1.92,1.91
93.51,3.75,1.89,3.76,1.90,-1.90,-0.54,-1.67,1.85,1.87,1.86
94.44,3.82,2.00,3.86,2.04,-2.04,-0.63,-1.81,1.78,1.82,1.82
95.39,3.87,2.10,3.95,2.18,-2.18,-0.72,-1.96,1.69,1.77,1.77
96.34,3.98,2.26,4.03,2.31,-2.31,-0.81,-2.11,1.67,1.72,1.72
97.30,4.09,2.42,4.10,2.43,-2.43,-0.90,-2.26,1.66,1.67,1.67
98.28,4.13,2.51,4.17,2.55,-2.55,-1.00,-2.40,1.58,1.62,1.62
99.26,4.20,2.62,4.22,2.65,-2.65,-1.10,-2.55,1.55,1.57,1.58
100.25,4.29,2.76,4.27,2.75,-2.75,-1.19,-2.70,1.54,1.53,1.53
101.25,4.35,2.87,4.32,2.85,-2.85,-1.29,-2.85,1.50,1.48,1.48
102.27,4.40,2.97,4.37,2.94,-2.94,-1.39,-2.99,1.45,1.43,1.43
103.29,4.46,3.08,4.42,3.04,-3.04,-1.50,-3.14,1.42,1.38,1.38
104.32,4.51,3.17,4.46,3.13,-3.13,-1.60,-3.28,1.38,1.33,1.34
105.37,4.53,3.24,4.50,3.22,-3.22,-1.70,-3.42,1.31,1.28,1.29
106.42,4.54,3.30,4.52,3.30,-3.30,-1.81,-3.56,1.24,1.23,1.24
107.48,4.52,3.34,4.54,3.37,-3.37,-1.92,-3.70,1.15,1.18,1.18
108.56,4.49,3.36,4.56,3.44,-3.44,-2.03,-3.84,1.05,1.12,1.13
109.64,4.49,3.41,4.58,3.51,-3.51,-2.14,-3.97,0.98,1.07,1.08
110.74,4.61,3.59,4.59,3.57,-3.57,-2.25,-4.09,1.04,1.02,1.02
111.85,4.64,3.66,4.59,3.62,-3.62,-2.36,-4.22,1.01,0.97,0.98
112.97,4.63,3.71,4.60,3.68,-3.68,-2.47,-4.33,0.95,0.92,0.92
114.10,4.62,3.75,4.61,3.74,-3.74,-2.59,-4.44,0.88,0.87,0.87
115.24,4.62,3.80,4.61,3.79,-3.79,-2.70,-4.54,0.83,0.82,0.82
116.39,4.62,3.85,4.62,3.84,-3.84,-2.82,-4.64,0.78,0.78,0.77
117.55,4.62,3.89,4.63,3.89,-3.89,-2.93,-4.73,0.73,0.74,0.73
118.73,4.63,3.94,4.64,3.94,-3.94,-3.05,-4.81,0.69,0.70,0.69
119.92,4.64,3.98,4.65,3.99,-3.99,-3.16,-4.88,0.65,0.66,0.66
121.12,4.64,4.02,4.65,4.03,-4.03,-3.28,-4.94,0.61,0.62,0.62
122.33,4.65,4.06,4.66,4.07,-4.07,-3.39,-4.99,0.58,0.59,0.59
123.55,4.66,4.10,4.66,4.10,-4.10,-3.51,-5.03,0.56,0.56,0.56
124.79,4.67,4.14,4.66,4.14,-4.14,-3.62,-5.06,0.53,0.52,0.53
126.03,4.67,4.17,4.67,4.17,-4.17,-3.73,-5.08,0.49,0.49,0.50
127.29,4.68,4.20,4.68,4.21,-4.21,-3.84,-5.09,0.46,0.46,0.48
128.57,4.69,4.25,4.69,4.25,-4.25,-3.95,-5.09,0.43,0.44,0.44
129.85,4.69,4.28,4.70,4.29,-4.29,-4.06,-5.08,0.40,0.41,0.41
131.15,4.70,4.32,4.71,4.33,-4.33,-4.17,-5.06,0.37,0.38,0.38
132.46,4.70,4.35,4.71,4.36,-4.36,-4.27,-5.04,0.34,0.35,0.35
133.79,4.71,4.39,4.71,4.39,-4.39,-4.38,-5.00,0.32,0.32,0.32
135.12,4.71,4.42,4.71,4.42,-4.42,-4.47,-4.96,0.29,0.29,0.29
136.48,4.71,4.44,4.71,4.44,-4.44,-4.57,-4.90,0.27,0.27,0.27
137.84,4.72,4.49,4.71,4.47,-4.47,-4.66,-4.85,0.25,0.24,0.23
139.22,4.72,4.52,4.70,4.49,-4.49,-4.75,-4.78,0.23,0.21,0.20
140.61,4.72,4.55,4.69,4.51,-4.51,-4.83,-4.71,0.21,0.18,0.17
142.02,4.68,4.53,4.68,4.53,-4.53,-4.91,-4.64,0.15,0.15,0.15
143.44,4.64,4.52,4.66,4.55,-4.55,-4.99,-4.56,0.09,0.11,0.12
144.87,4.62,4.54,4.64,4.57,-4.57,-5.06,-4.48,0.05,0.07,0.08
146.32,4.55,4.51,4.62,4.58,-4.58,-5.12,-4.40,-0.04,0.03,0.04
147.78,4.52,4.51,4.57,4.59,-4.59,-5.18,-4.32,-0.07,-0.02,0.01
149.26,4.52,4.56,4.52,4.59,-4.59,-5.23,-4.23,-0.07,-0.07,-0.04
150.75,4.52,4.62,4.44,4.57,-4.57,-5.28,-4.14,-0.05,-0.13,-0.10
152.26,4.43,4.60,4.34,4.53,-4.53,-5.32,-4.06,-0.11,-0.19,-0.17
153.78,4.33,4.57,4.22,4.48,-4.48,-5.35,-3.97,-0.15,-0.26,-0.24
155.32,4.27,4.58,4.10,4.43,-4.43,-5.38,-3.88,-0.16,-0.33,-0.31
156.88,4.14,4.53,3.99,4.38,-4.38,-5.40,-3.79,-0.24,-0.40,-0.39
158.44,4.00,4.47,3.88,4.35,-4.35,-5.42,-3.71,-0.35,-0.47,-0.47
160.03,3.86,4.41,3.79,4.32,-4.32,-5.43,-3.62,-0.46,-0.53,-0.55
161.63,3.62,4.24,3.71,4.31,-4.31,-5.43,-3.54,-0.69,-0.60,-0.62
163.24,3.46,4.14,3.65,4.31,-4.31,-5.42,-3.46,-0.85,-0.66,-0.68
164.88,3.32,4.05,3.60,4.31,-4.31,-5.41,-3.38,-1.00,-0.72,-0.73
166.53,3.19,3.97,3.56,4.33,-4.33,-5.40,-3.30,-1.14,-0.77,-0.78
168.19,3.27,4.09,3.55,4.36,-4.36,-5.37,-3.23,-1.09,-0.81,-0.82
169.87,3.44,4.30,3.55,4.39,-4.39,-5.35,-3.15,-0.95,-0.84,-0.86
171.57,3.66,4.54,3.57,4.43,-4.43,-5.31,-3.08,-0.77,-0.86,-0.88
173.29,3.78,4.67,3.60,4.48,-4.48,-5.27,-3.01,-0.70,-0.88,-0.89
175.02,3.82,4.72,3.64,4.54,-4.54,-5.23,-2.94,-0.72,-0.90,-0.90
176.77,3.86,4.77,3.68,4.59,-4.59,-5.18,-2.88,-0.73,-0.91,-0.91
178.54,3.87,4.79,3.73,4.64,-4.64,-5.12,-2.82,-0.77,-0.91,-0.92
180.32,3.80,4.71,3.76,4.68,-4.68,-5.06,-2.76,-0.88,-0.92,-0.91
182.13,3.78,4.68,3.77,4.70,-4.70,-5.00,-2.70,-0.92,-0.93,-0.90
183.95,3.79,4.70,3.77,4.70,-4.70,-4.93,-2.64,-0.91,-0.93,-0.91
185.79,3.73,4.64,3.74,4.67,-4.67,-4.86,-2.59,-0.95,-0.94,-0.91
187.65,3.63,4.56,3.68,4.62,-4.62,-4.78,-2.54,-1.00,-0.95,-0.93
189.52,3.63,4.57,3.60,4.55,-4.55,-4.70,-2.49,-0.93,-0.96,-0.94
191.42,3.55,4.51,3.51,4.48,-4.48,-4.61,-2.44,-0.93,-0.97,-0.96
193.33,3.43,4.41,3.42,4.41,-4.41,-4.53,-2.40,-0.98,-0.98,-0.98
195.27,3.31,4.31,3.34,4.34,-4.34,-4.44,-2.35,-1.03,-1.00,-1.00
197.22,3.21,4.23,3.24,4.26,-4.26,-4.34,-2.31,-1.05,-1.02,-1.02
199.19,3.12,4.16,3.15,4.19,-4.19,-4.25,-2.27,-1.07,-1.04,-1.04
201.18,3.06,4.12,3.06,4.11,-4.11,-4.15,-2.24,-1.06,-1.06,-1.06
203.19,2.96,4.04,2.96,4.04,-4.04,-4.05,-2.20,-1.08,-1.08,-1.08
205.23,2.85,3.95,2.87,3.97,-3.97,-3.95,-2.16,-1.12,-1.10,-1.10
207.28,2.76,3.87,2.77,3.90,-3.90,-3.84,-2.13,-1.14,-1.12,-1.11
209.35,2.65,3.78,2.68,3.82,-3.82,-3.73,-2.10,-1.18,-1.14,-1.13
211.44,2.59,3.75,2.59,3.75,-3.75,-3.62,-2.06,-1.16,-1.16,-1.16
213.56,2.51,3.68,2.51,3.68,-3.68,-3.51,-2.03,-1.17,-1.17,-1.17
215.69,2.41,3.59,2.42,3.61,-3.61,-3.39,-2.00,-1.20,-1.19,-1.18
217.85,2.30,3.49,2.34,3.53,-3.53,-3.27,-1.97,-1.23,-1.20,-1.19
220.03,2.23,3.43,2.24,3.45,-3.45,-3.16,-1.94,-1.22,-1.21,-1.20
222.23,2.16,3.39,2.14,3.35,-3.35,-3.03,-1.91,-1.19,-1.21,-1.23
224.45,2.09,3.31,2.03,3.25,-3.25,-2.91,-1.89,-1.16,-1.21,-1.22
226.70,1.98,3.20,1.92,3.13,-3.13,-2.79,-1.86,-1.16,-1.21,-1.22
228.96,1.83,3.04,1.81,3.02,-3.02,-2.66,-1.83,-1.19,-1.21,-1.21
231.25,1.72,2.92,1.69,2.89,-2.89,-2.53,-1.80,-1.17,-1.20,-1.20
233.57,1.60,2.79,1.57,2.76,-2.76,-2.40,-1.77,-1.16,-1.19,-1.19
235.90,1.48,2.66,1.44,2.62,-2.62,-2.27,-1.73,-1.14,-1.18,-1.18
238.26,1.30,2.47,1.32,2.48,-2.48,-2.13,-1.70,-1.18,-1.16,-1.17
240.64,1.12,2.26,1.19,2.33,-2.33,-2.00,-1.67,-1.21,-1.14,-1.14
243.05,1.00,2.11,1.06,2.18,-2.18,-1.86,-1.63,-1.18,-1.12,-1.11
245.48,0.88,1.97,0.93,2.03,-2.03,-1.73,-1.60,-1.15,-1.10,-1.09
247.93,0.76,1.82,0.80,1.87,-1.87,-1.59,-1.56,-1.11,-1.07,-1.06
250.41,0.67,1.71,0.67,1.71,-1.71,-1.45,-1.52,-1.05,-1.05,-1.04
252.92,0.56,1.57,0.54,1.56,-1.56,-1.31,-1.48,-1.00,-1.02,-1.01
255.45,0.43,1.42,0.41,1.41,-1.41,-1.17,-1.44,-0.98,-1.00,-0.99
258.00,0.32,1.29,0.28,1.25,-1.25,-1.02,-1.40,-0.93,-0.98,-0.97
260.58,0.21,1.16,0.15,1.10,-1.10,-0.88,-1.36,-0.89,-0.95,-0.95
263.19,0.03,0.95,0.01,0.94,-0.94,-0.74,-1.31,-0.91,-0.93,-0.92
265.82,-0.12,0.78,-0.13,0.78,-0.78,-0.60,-1.27,-0.90,-0.90,-0.90
268.48,-0.27,0.61,-0.27,0.61,-0.61,-0.45,-1.22,-0.88,-0.88,-0.88
271.16,-0.42,0.43,-0.41,0.44,-0.44,-0.31,-1.17,-0.87,-0.85,-0.85
273.87,-0.55,0.28,-0.55,0.28,-0.28,-0.17,-1.12,-0.83,-0.83,-0.83
276.61,-0.67,0.13,-0.69,0.11,-0.11,-0.03,-1.07,-0.78,-0.80,-0.80
279.38,-0.83,-0.06,-0.83,-0.06,0.06,0.11,-1.01,-0.78,-0.77,-0.77
282.17,-0.99,-0.24,-0.97,-0.22,0.22,0.24,-0.96,-0.77,-0.75,-0.75
284.99,-1.14,-0.43,-1.11,-0.39,0.39,0.38,-0.90,-0.75,-0.72,-0.71
287.84,-1.29,-0.60,-1.25,-0.57,0.57,0.51,-0.85,-0.73,-0.69,-0.69
290.72,-1.47,-0.81,-1.40,-0.75,0.75,0.64,-0.79,-0.73,-0.66,-0.66
293.63,-1.52,-0.89,-1.55,-0.92,0.92,0.77,-0.74,-0.60,-0.63,-0.63
296.57,-1.59,-0.99,-1.69,-1.09,1.09,0.90,-0.68,-0.50,-0.60,-0.60
299.53,-1.71,-1.14,-1.82,-1.25,1.25,1.02,-0.62,-0.46,-0.57,-0.57
302.53,-1.89,-1.34,-1.95,-1.41,1.41,1.14,-0.56,-0.48,-0.55,-0.55
305.55,-2.03,-1.52,-2.08,-1.56,1.56,1.25,-0.50,-0.47,-0.52,-0.51
308.61,-2.16,-1.67,-2.20,-1.71,1.71,1.36,-0.44,-0.45,-0.50,-0.49
311.69,-2.38,-1.92,-2.30,-1.83,1.83,1.47,-0.38,-0.55,-0.47,-0.46
314.81,-2.55,-2.11,-2.39,-1.94,1.94,1.57,-0.32,-0.61,-0.45,-0.44
317.96,-2.65,-2.23,-2.48,-2.05,2.05,1.67,-0.26,-0.60,-0.43,-0.42
321.14,-2.62,-2.21,-2.55,-2.14,2.14,1.76,-0.19,-0.48,-0.41,-0.41
324.35,-2.58,-2.19,-2.61,-2.22,2.22,1.84,-0.13,-0.36,-0.39,-0.39
327.59,-2.65,-2.27,-2.68,-2.30,2.30,1.93,-0.07,-0.35,-0.38,-0.38
330.87,-2.71,-2.34,-2.73,-2.37,2.37,2.00,-0.01,-0.35,-0.36,-0.37
334.18,-2.76,-2.41,-2.77,-2.42,2.42,2.07,0.06,-0.34,-0.35,-0.35
337.52,-2.77,-2.43,-2.79,-2.45,2.45,2.14,0.12,-0.32,-0.34,-0.34
340.90,-2.70,-2.37,-2.82,-2.48,2.48,2.19,0.18,-0.22,-0.34,-0.33
344.30,-2.71,-2.39,-2.83,-2.50,2.50,2.25,0.25,-0.21,-0.33,-0.32
347.75,-2.82,-2.50,-2.84,-2.51,2.51,2.29,0.31,-0.31,-0.32,-0.32
351.23,-2.87,-2.56,-2.84,-2.52,2.52,2.34,0.38,-0.35,-0.32,-0.31
354.74,-2.87,-2.55,-2.85,-2.53,2.53,2.37,0.44,-0.34,-0.31,-0.32
358.28,-2.88,-2.57,-2.85,-2.54,2.54,2.40,0.51,-0.34,-0.31,-0.31
361.87,-2.92,-2.61,-2.85,-2.54,2.54,2.43,0.58,-0.39,-0.31,-0.31
365.49,-2.93,-2.63,-2.83,-2.52,2.52,2.45,0.64,-0.41,-0.31,-0.30
369.14,-2.79,-2.48,-2.80,-2.49,2.49,2.47,0.71,-0.30,-0.31,-0.31
372.83,-2.77,-2.46,-2.77,-2.46,2.46,2.48,0.78,-0.31,-0.31,-0.31
376.56,-2.79,-2.47,-2.74,-2.43,2.43,2.49,0.84,-0.36,-0.31,-0.32
380.33,-2.69,-2.38,-2.70,-2.39,2.39,2.49,0.91,-0.30,-0.32,-0.31
384.13,-2.60,-2.29,-2.66,-2.34,2.34,2.49,0.98,-0.27,-0.32,-0.31
387.97,-2.58,-2.26,-2.60,-2.28,2.28,2.49,1.05,-0.30,-0.32,-0.32
391.85,-2.53,-2.20,-2.55,-2.22,2.22,2.48,1.12,-0.31,-0.33,-0.33
395.77,-2.45,-2.13,-2.51,-2.17,2.17,2.47,1.19,-0.28,-0.33,-0.32
399.73,-2.42,-2.09,-2.46,-2.12,2.12,2.45,1.25,-0.30,-0.34,-0.33
403.72,-2.41,-2.08,-2.41,-2.07,2.07,2.44,1.32,-0.35,-0.35,-0.33
407.76,-2.37,-2.02,-2.37,-2.02,2.02,2.42,1.39,-0.35,-0.35,-0.35
411.84,-2.32,-1.97,-2.33,-1.98,1.98,2.40,1.46,-0.34,-0.35,-0.35
415.96,-2.31,-1.96,-2.29,-1.94,1.94,2.37,1.52,-0.38,-0.35,-0.35
420.12,-2.25,-1.90,-2.25,-1.90,1.90,2.35,1.59,-0.36,-0.35,-0.35
424.32,-2.21,-1.86,-2.21,-1.87,1.87,2.32,1.65,-0.35,-0.34,-0.35
428.56,-2.20,-1.86,-2.17,-1.84,1.84,2.29,1.72,-0.37,-0.33,-0.34
432.85,-2.15,-1.82,-2.12,-1.81,1.81,2.26,1.78,-0.35,-0.32,-0.33
437.18,-2.07,-1.75,-2.08,-1.78,1.78,2.23,1.84,-0.29,-0.30,-0.32
441.55,-2.02,-1.74,-2.03,-1.75,1.75,2.20,1.90,-0.27,-0.27,-0.28
445.96,-1.98,-1.73,-1.97,-1.73,1.73,2.17,1.95,-0.25,-0.24,-0.25
450.42,-1.92,-1.70,-1.92,-1.71,1.71,2.14,2.00,-0.21,-0.21,-0.22
454.93,-1.87,-1.70,-1.86,-1.69,1.69,2.10,2.06,-0.18,-0.16,-0.17
459.48,-1.80,-1.67,-1.81,-1.69,1.69,2.07,2.10,-0.12,-0.12,-0.13
464.07,-1.77,-1.69,-1.75,-1.68,1.68,2.04,2.15,-0.09,-0.07,-0.08
468.71,-1.70,-1.68,-1.70,-1.67,1.67,2.00,2.19,-0.03,-0.03,-0.02
473.40,-1.61,-1.63,-1.64,-1.66,1.66,1.97,2.22,0.05,0.02,0.02
478.13,-1.57,-1.65,-1.59,-1.66,1.66,1.93,2.26,0.08,0.07,0.08
482.91,-1.52,-1.64,-1.53,-1.65,1.65,1.90,2.28,0.13,0.11,0.12
487.74,-1.48,-1.64,-1.48,-1.64,1.64,1.86,2.31,0.16,0.16,0.16
492.62,-1.45,-1.66,-1.44,-1.63,1.63,1.83,2.33,0.18,0.19,0.21
497.55,-1.42,-1.65,-1.39,-1.62,1.62,1.80,2.34,0.19,0.22,0.23
502.52,-1.40,-1.66,-1.36,-1.61,1.61,1.76,2.36,0.21,0.25,0.26
507.55,-1.38,-1.65,-1.34,-1.60,1.60,1.73,2.36,0.22,0.26,0.27
512.62,-1.27,-1.55,-1.32,-1.59,1.59,1.69,2.36,0.31,0.27,0.28
517.75,-1.22,-1.51,-1.30,-1.57,1.57,1.66,2.36,0.35,0.27,0.29
