frequency,raw,error,smoothed,error_smoothed,equalization,parametric_eq,fixed_band_eq,equalized_raw,equalized_smoothed,target
20.00,-28.71,-28.87,-28.74,-28.92,28.92,24.59,13.45,0.20,0.18,0.16
20.20,-28.54,-28.74,-28.55,-28.75,28.75,24.95,13.64,0.21,0.21,0.20
20.40,-28.36,-28.59,-28.36,-28.59,28.59,25.30,13.84,0.23,0.24,0.23
20.61,-28.19,-28.45,-28.17,-28.43,28.43,25.66,14.04,0.24,0.26,0.26
20.81,-28.02,-28.32,-27.98,-28.27,28.27,26.02,14.24,0.25,0.29,0.30
21.02,-27.84,-28.18,-27.80,-28.11,28.11,26.39,14.45,0.26,0.31,0.34
21.23,-27.63,-27.98,-27.61,-27.94,27.94,26.74,14.66,0.31,0.33,0.35
21.44,-27.43,-27.80,-27.43,-27.78,27.78,27.09,14.88,0.35,0.35,0.37
21.66,-27.22,-27.61,-27.24,-27.61,27.61,27.42,15.10,0.39,0.37,0.39
21.87,-27.02,-27.42,-27.06,-27.45,27.45,27.74,15.33,0.43,0.39,0.40
22.09,-26.83,-27.24,-26.88,-27.28,27.28,28.02,15.57,0.46,0.40,0.41
22.31,-26.66,-27.07,-26.70,-27.12,27.12,28.28,15.81,0.46,0.42,0.41
22.54,-26.49,-26.91,-26.53,-26.95,26.95,28.49,16.06,0.46,0.43,0.42
22.76,-26.33,-26.76,-26.35,-26.78,26.78,28.65,16.32,0.45,0.44,0.43
22.99,-26.16,-26.59,-26.17,-26.61,26.61,28.75,16.58,0.45,0.44,0.43
23.22,-26.01,-26.45,-25.99,-26.44,26.44,28.79,16.85,0.43,0.45,0.44
23.45,-25.85,-26.30,-25.81,-26.27,26.27,28.77,17.14,0.42,0.45,0.45
23.69,-25.70,-26.16,-25.64,-26.10,26.10,28.68,17.43,0.40,0.46,0.46
23.92,-25.55,-26.02,-25.48,-25.94,25.94,28.53,17.72,0.39,0.46,0.47
24.16,-25.36,-25.84,-25.31,-25.78,25.78,28.33,18.03,0.42,0.47,0.48
24.40,-25.15,-25.63,-25.14,-25.61,25.61,28.07,18.36,0.47,0.47,0.49
24.65,-24.94,-25.42,-24.98,-25.45,25.45,27.78,18.69,0.51,0.47,0.48
24.89,-24.73,-25.21,-24.81,-25.29,25.29,27.45,19.03,0.56,0.48,0.48
25.14,-24.57,-25.05,-24.65,-25.13,25.13,27.10,19.39,0.56,0.48,0.48
25.39,-24.44,-24.92,-24.48,-24.96,24.96,26.73,19.77,0.52,0.48,0.48
25.65,-24.31,-24.79,-24.31,-24.78,24.78,26.35,20.16,0.47,0.48,0.48
25.91,-24.19,-24.65,-24.14,-24.61,24.61,25.96,20.57,0.42,0.48,0.46
26.16,-24.04,-24.51,-23.98,-24.45,24.45,25.56,20.99,0.41,0.47,0.47
26.43,-23.88,-24.35,-23.84,-24.31,24.31,25.17,21.44,0.43,0.47,0.47
26.69,-23.72,-24.19,-23.71,-24.18,24.18,24.77,21.91,0.46,0.47,0.47
26.96,-23.56,-24.03,-23.59,-24.05,24.05,24.38,22.40,0.49,0.46,0.47
27.23,-23.39,-23.86,-23.46,-23.92,23.92,24.00,22.92,0.53,0.46,0.47
27.50,-23.22,-23.69,-23.33,-23.79,23.79,23.62,23.47,0.56,0.46,0.47
27.77,-23.06,-23.52,-23.18,-23.64,23.64,23.25,24.05,0.58,0.46,0.46
28.05,-22.91,-23.37,-23.02,-23.48,23.48,22.89,24.66,0.57,0.46,0.46
28.33,-22.87,-23.31,-22.85,-23.31,23.31,22.53,25.31,0.44,0.45,0.44
28.62,-22.83,-23.28,-22.68,-23.13,23.13,22.18,26.00,0.30,0.45,0.45
28.90,-22.79,-23.24,-22.50,-22.95,22.95,21.84,26.72,0.16,0.45,0.45
29.19,-22.56,-23.00,-22.32,-22.77,22.77,21.50,27.47,0.21,0.45,0.44
29.48,-22.23,-22.68,-22.14,-22.58,22.58,21.18,28.25,0.35,0.44,0.45
29.78,-21.90,-22.35,-21.95,-22.38,22.38,20.86,29.03,0.48,0.44,0.45
30.08,-21.61,-22.05,-21.75,-22.18,22.18,20.55,29.80,0.58,0.43,0.45
30.38,-21.41,-21.84,-21.54,-21.97,21.97,20.24,30.49,0.56,0.43,0.43
30.68,-21.23,-21.66,-21.33,-21.76,21.76,19.94,31.04,0.53,0.42,0.43
30.99,-21.04,-21.46,-21.12,-21.54,21.54,19.65,31.38,0.49,0.42,0.42
31.30,-20.87,-21.29,-20.90,-21.31,21.31,19.36,31.44,0.44,0.42,0.42
31.61,-20.71,-21.13,-20.68,-21.09,21.09,19.08,31.21,0.38,0.41,0.42
31.93,-20.54,-20.94,-20.48,-20.89,20.89,18.81,30.72,0.34,0.41,0.40
32.24,-20.34,-20.73,-20.30,-20.70,20.70,18.54,30.06,0.36,0.40,0.39
32.57,-20.12,-20.51,-20.12,-20.52,20.52,18.28,29.29,0.39,0.40,0.39
32.89,-19.91,-20.30,-19.95,-20.34,20.34,18.02,28.47,0.43,0.39,0.39
33.22,-19.73,-20.12,-19.78,-20.16,20.16,17.77,27.64,0.43,0.38,0.39
33.55,-19.57,-19.95,-19.61,-19.99,19.99,17.52,26.83,0.42,0.38,0.38
33.89,-19.41,-19.79,-19.44,-19.82,19.82,17.27,26.05,0.41,0.38,0.38
34.23,-19.27,-19.65,-19.27,-19.65,19.65,17.03,25.30,0.37,0.37,0.38
34.57,-19.14,-19.51,-19.10,-19.46,19.46,16.79,24.59,0.32,0.37,0.37
34.92,-19.00,-19.36,-18.91,-19.27,19.27,16.56,23.91,0.27,0.36,0.36
35.27,-18.77,-19.13,-18.72,-19.07,19.07,16.33,23.27,0.30,0.35,0.36
35.62,-18.51,-18.86,-18.53,-18.88,18.88,16.11,22.66,0.37,0.35,0.35
35.97,-18.25,-18.59,-18.33,-18.68,18.68,15.89,22.08,0.43,0.34,0.34
36.33,-18.14,-18.48,-18.13,-18.47,18.47,15.67,21.53,0.33,0.34,0.34
36.70,-18.03,-18.37,-17.93,-18.26,18.26,15.45,21.00,0.23,0.33,0.34
37.06,-17.89,-18.20,-17.72,-18.04,18.04,15.24,20.49,0.16,0.32,0.32
37.43,-17.55,-17.86,-17.51,-17.82,17.82,15.03,20.01,0.28,0.32,0.32
37.81,-17.21,-17.52,-17.29,-17.60,17.60,14.83,19.54,0.39,0.31,0.31
38.19,-16.96,-17.26,-17.08,-17.39,17.39,14.63,19.09,0.43,0.30,0.30
38.57,-16.81,-17.11,-16.88,-17.18,17.18,14.42,18.66,0.37,0.30,0.30
38.95,-16.65,-16.94,-16.68,-16.97,16.97,14.23,18.24,0.32,0.29,0.29
39.34,-16.46,-16.74,-16.49,-16.77,16.77,14.03,17.84,0.31,0.28,0.28
39.74,-16.27,-16.53,-16.29,-16.57,16.57,13.84,17.44,0.30,0.28,0.26
40.14,-16.08,-16.35,-16.09,-16.36,16.36,13.65,17.06,0.28,0.27,0.27
40.54,-15.91,-16.17,-15.89,-16.15,16.15,13.46,16.69,0.24,0.26,0.26
40.94,-15.74,-16.00,-15.70,-15.95,15.95,13.28,16.33,0.21,0.24,0.26
41.35,-15.57,-15.81,-15.53,-15.76,15.76,13.09,15.98,0.19,0.23,0.24
41.76,-15.41,-15.63,-15.37,-15.58,15.58,12.91,15.64,0.17,0.21,0.22
42.18,-15.22,-15.43,-15.20,-15.39,15.39,12.73,15.30,0.17,0.19,0.21
42.60,-15.00,-15.18,-15.03,-15.20,15.20,12.55,14.97,0.20,0.17,0.18
43.03,-14.79,-14.96,-14.85,-14.99,14.99,12.38,14.65,0.20,0.14,0.17
43.46,-14.59,-14.73,-14.66,-14.78,14.78,12.20,14.33,0.19,0.12,0.14
43.90,-14.40,-14.49,-14.47,-14.56,14.56,12.03,14.02,0.16,0.09,0.09
44.33,-14.27,-14.33,-14.28,-14.34,14.34,11.86,13.72,0.08,0.07,0.06
44.78,-14.17,-14.20,-14.09,-14.13,14.13,11.69,13.41,-0.05,0.04,0.03
45.23,-14.00,-14.00,-13.89,-13.90,13.90,11.53,13.12,-0.11,0.01,-0.00
45.68,-13.77,-13.74,-13.68,-13.66,13.66,11.36,12.83,-0.11,-0.01,-0.03
46.13,-13.52,-13.47,-13.47,-13.43,13.43,11.20,12.54,-0.09,-0.04,-0.05
46.60,-13.26,-13.20,-13.26,-13.21,13.21,11.04,12.26,-0.06,-0.05,-0.06
47.06,-13.01,-12.93,-13.05,-12.98,12.98,10.88,11.98,-0.03,-0.07,-0.08
47.53,-12.77,-12.69,-12.84,-12.76,12.76,10.72,11.70,-0.01,-0.08,-0.08
48.01,-12.53,-12.45,-12.62,-12.53,12.53,10.56,11.43,0.00,-0.09,-0.08
48.49,-12.37,-12.27,-12.40,-12.30,12.30,10.40,11.16,-0.07,-0.10,-0.10
48.97,-12.22,-12.11,-12.16,-12.06,12.06,10.25,10.89,-0.16,-0.10,-0.11
49.46,-11.94,-11.82,-11.92,-11.82,11.82,10.09,10.62,-0.12,-0.10,-0.12
49.96,-11.65,-11.53,-11.69,-11.59,11.59,9.94,10.36,-0.06,-0.11,-0.12
50.46,-11.50,-11.39,-11.48,-11.37,11.37,9.79,10.10,-0.13,-0.11,-0.11
50.96,-11.35,-11.25,-11.27,-11.15,11.15,9.64,9.85,-0.20,-0.12,-0.10
51.47,-11.10,-10.99,-11.07,-10.94,10.94,9.49,9.60,-0.16,-0.13,-0.11
51.99,-10.84,-10.71,-10.86,-10.72,10.72,9.34,9.35,-0.12,-0.14,-0.13
52.51,-10.58,-10.44,-10.65,-10.49,10.49,9.20,9.10,-0.09,-0.16,-0.14
53.03,-10.32,-10.15,-10.44,-10.25,10.25,9.05,8.86,-0.07,-0.19,-0.17
53.56,-10.16,-9.96,-10.22,-10.00,10.00,8.91,8.62,-0.16,-0.22,-0.20
54.10,-10.00,-9.76,-10.01,-9.76,9.76,8.77,8.38,-0.25,-0.25,-0.24
54.64,-9.87,-9.58,-9.80,-9.51,9.51,8.62,8.15,-0.36,-0.29,-0.29
55.18,-9.70,-9.36,-9.59,-9.25,9.25,8.48,7.92,-0.45,-0.34,-0.34
55.74,-9.45,-9.06,-9.38,-8.99,8.99,8.34,7.69,-0.47,-0.39,-0.39
56.29,-9.19,-8.75,-9.15,-8.71,8.71,8.21,7.47,-0.48,-0.45,-0.44
56.86,-8.94,-8.44,-8.94,-8.43,8.43,8.07,7.26,-0.51,-0.50,-0.50
57.42,-8.68,-8.11,-8.73,-8.17,8.17,7.93,7.05,-0.51,-0.56,-0.57
58.00,-8.42,-7.79,-8.51,-7.89,7.89,7.80,6.84,-0.53,-0.62,-0.63
58.58,-8.29,-7.60,-8.29,-7.60,7.60,7.66,6.64,-0.69,-0.69,-0.69
59.16,-8.12,-7.38,-8.06,-7.31,7.31,7.53,6.45,-0.81,-0.75,-0.74
59.76,-7.86,-7.06,-7.82,-7.01,7.01,7.40,6.26,-0.85,-0.81,-0.80
60.35,-7.59,-6.72,-7.59,-6.72,6.72,7.27,6.07,-0.87,-0.87,-0.87
60.96,-7.33,-6.41,-7.36,-6.43,6.43,7.14,5.89,-0.90,-0.93,-0.92
61.57,-7.17,-6.18,-7.14,-6.15,6.15,7.01,5.72,-1.02,-0.99,-0.99
62.18,-7.00,-5.94,-6.93,-5.88,5.88,6.88,5.56,-1.12,-1.05,-1.06
62.80,-6.82,-5.72,-6.73,-5.63,5.63,6.75,5.40,-1.19,-1.10,-1.10
63.43,-6.55,-5.39,-6.55,-5.40,5.40,6.62,5.24,-1.15,-1.15,-1.16
64.07,-6.26,-5.06,-6.39,-5.19,5.19,6.50,5.09,-1.07,-1.20,-1.20
64.71,-6.14,-4.89,-6.25,-5.00,5.00,6.37,4.95,-1.14,-1.25,-1.25
65.35,-6.03,-4.73,-6.13,-4.84,4.84,6.25,4.81,-1.19,-1.29,-1.30
66.01,-5.92,-4.59,-6.02,-4.69,4.69,6.13,4.68,-1.23,-1.33,-1.33
66.67,-5.77,-4.40,-5.92,-4.55,4.55,6.01,4.55,-1.22,-1.37,-1.37
67.33,-5.69,-4.29,-5.83,-4.42,4.42,5.88,4.43,-1.27,-1.40,-1.40
68.01,-5.69,-4.26,-5.74,-4.30,4.30,5.76,4.31,-1.39,-1.44,-1.43
68.69,-5.69,-4.23,-5.65,-4.18,4.18,5.64,4.20,-1.51,-1.47,-1.46
69.37,-5.69,-4.19,-5.55,-4.05,4.05,5.53,4.08,-1.64,-1.50,-1.50
70.07,-5.67,-4.14,-5.44,-3.91,3.91,5.41,3.97,-1.76,-1.53,-1.53
70.77,-5.51,-3.97,-5.33,-3.77,3.77,5.29,3.87,-1.74,-1.56,-1.54
71.48,-5.35,-3.77,-5.20,-3.61,3.61,5.18,3.76,-1.74,-1.59,-1.58
72.19,-5.15,-3.55,-5.05,-3.43,3.43,5.06,3.66,-1.72,-1.62,-1.60
72.91,-4.89,-3.25,-4.89,-3.24,3.24,4.95,3.56,-1.65,-1.65,-1.64
73.64,-4.66,-2.99,-4.71,-3.04,3.04,4.83,3.46,-1.62,-1.68,-1.67
74.38,-4.49,-2.79,-4.54,-2.83,2.83,4.72,3.36,-1.66,-1.71,-1.70
75.12,-4.34,-2.61,-4.34,-2.61,2.61,4.61,3.26,-1.73,-1.74,-1.73
75.87,-4.07,-2.31,-4.15,-2.38,2.38,4.50,3.16,-1.69,-1.76,-1.76
76.63,-3.81,-2.02,-3.95,-2.16,2.16,4.39,3.06,-1.65,-1.79,-1.79
77.40,-3.64,-1.82,-3.76,-1.94,1.94,4.28,2.96,-1.70,-1.82,-1.82
78.17,-3.54,-1.69,-3.57,-1.73,1.73,4.17,2.85,-1.81,-1.84,-1.85
78.95,-3.42,-1.56,-3.40,-1.54,1.54,4.06,2.75,-1.88,-1.86,-1.86
79.74,-3.24,-1.36,-3.23,-1.35,1.35,3.95,2.65,-1.89,-1.88,-1.88
80.54,-3.10,-1.20,-3.08,-1.18,1.18,3.85,2.54,-1.92,-1.90,-1.90
81.35,-3.01,-1.09,-2.93,-1.02,1.02,3.74,2.43,-1.99,-1.91,-1.92
82.16,-2.89,-0.97,-2.79,-0.87,0.87,3.64,2.32,-2.02,-1.92,-1.92
82.98,-2.63,-0.71,-2.65,-0.72,0.72,3.54,2.21,-1.91,-1.92,-1.92
83.81,-2.52,-0.59,-2.51,-0.58,0.58,3.43,2.10,-1.94,-1.93,-1.93
84.65,-2.35,-0.41,-2.38,-0.45,0.45,3.33,1.98,-1.90,-1.93,-1.94
85.50,-2.21,-0.28,-2.25,-0.32,0.32,3.23,1.86,-1.89,-1.93,-1.93
86.35,-2.10,-0.17,-2.12,-0.19,0.19,3.13,1.74,-1.91,-1.93,-1.93
87.22,-1.99,-0.06,-1.98,-0.06,0.06,3.03,1.62,-1.94,-1.93,-1.93
88.09,-1.81,0.12,-1.86,0.07,-0.07,2.93,1.49,-1.88,-1.93,-1.93
88.97,-1.81,0.10,-1.74,0.19,-0.19,2.83,1.36,-2.00,-1.93,-1.91
89.86,-1.66,0.25,-1.63,0.30,-0.30,2.74,1.23,-1.96,-1.93,-1.91
90.76,-1.58,0.35,-1.53,0.40,-0.40,2.64,1.09,-1.98,-1.93,-1.93
91.66,-1.43,0.49,-1.45,0.48,-0.48,2.54,0.96,-1.91,-1.94,-1.92
92.58,-1.36,0.59,-1.39,0.56,-0.56,2.45,0.82,-1.92,-1.94,-1.95
93.51,-1.26,0.68,-1.32,0.64,-0.64,2.35,0.67,-1.90,-1.95,-1.94
94.44,-1.15,0.81,-1.26,0.71,-0.71,2.26,0.53,-1.86,-1.97,-1.96
95.39,-1.13,0.84,-1.20,0.78,-0.78,2.17,0.38,-1.91,-1.98,-1.97
96.34,-1.13,0.88,-1.15,0.85,-0.85,2.08,0.23,-1.98,-2.00,-2.01
97.30,-1.13,0.90,-1.11,0.92,-0.92,1.99,0.08,-2.05,-2.02,-2.03
98.28,-1.13,0.92,-1.07,0.98,-0.98,1.90,-0.07,-2.11,-2.05,-2.05
99.26,-1.13,0.95,-1.03,1.04,-1.04,1.81,-0.23,-2.17,-2.08,-2.08
100.25,-1.12,0.99,-1.01,1.10,-1.10,1.72,-0.39,-2.22,-2.11,-2.11
101.25,-1.05,1.09,-0.99,1.16,-1.16,1.63,-0.55,-2.21,-2.15,-2.14
102.27,-0.90,1.28,-0.97,1.21,-1.21,1.54,-0.70,-2.12,-2.19,-2.18
103.29,-0.90,1.33,-0.96,1.27,-1.27,1.46,-0.86,-2.17,-2.23,-2.23
104.32,-0.90,1.37,-0.95,1.34,-1.34,1.37,-1.02,-2.24,-2.28,-2.27
105.37,-0.90,1.42,-0.93,1.40,-1.40,1.29,-1.18,-2.30,-2.34,-2.32
106.42,-0.90,1.47,-0.92,1.48,-1.48,1.20,-1.34,-2.38,-2.39,-2.37
107.48,-0.90,1.54,-0.90,1.55,-1.55,1.12,-1.50,-2.45,-2.45,-2.44
108.56,-0.90,1.62,-0.88,1.64,-1.64,1.04,-1.66,-2.54,-2.52,-2.52
109.64,-0.90,1.69,-0.87,1.72,-1.72,0.96,-1.81,-2.62,-2.59,-2.59
110.74,-0.90,1.75,-0.86,1.80,-1.80,0.88,-1.96,-2.70,-2.66,-2.65
111.85,-0.90,1.82,-0.87,1.86,-1.86,0.80,-2.11,-2.76,-2.73,-2.72
112.97,-0.90,1.91,-0.89,1.92,-1.92,0.72,-2.25,-2.82,-2.81,-2.81
114.10,-0.90,1.97,-0.91,1.97,-1.97,0.64,-2.38,-2.87,-2.88,-2.87
115.24,-0.90,2.05,-0.92,2.02,-2.02,0.56,-2.52,-2.92,-2.95,-2.95
116.39,-0.90,2.13,-0.94,2.07,-2.07,0.48,-2.64,-2.97,-3.01,-3.03
117.55,-0.90,2.19,-0.96,2.12,-2.12,0.41,-2.76,-3.02,-3.08,-3.09
118.73,-0.90,2.26,-0.98,2.15,-2.15,0.33,-2.87,-3.05,-3.14,-3.16
119.92,-0.91,2.29,-1.00,2.19,-2.19,0.26,-2.97,-3.10,-3.19,-3.20
121.12,-1.13,2.13,-1.03,2.21,-2.21,0.18,-3.06,-3.34,-3.24,-3.26
122.33,-1.13,2.17,-1.05,2.24,-2.24,0.11,-3.14,-3.37,-3.29,-3.30
123.55,-1.13,2.19,-1.07,2.26,-2.26,0.04,-3.22,-3.39,-3.33,-3.32
124.79,-1.13,2.23,-1.09,2.28,-2.28,-0.03,-3.28,-3.41,-3.37,-3.36
126.03,-1.13,2.27,-1.11,2.30,-2.30,-0.10,-3.34,-3.43,-3.40,-3.40
127.29,-1.13,2.30,-1.12,2.32,-2.32,-0.17,-3.38,-3.45,-3.44,-3.43
128.57,-1.13,2.34,-1.14,2.34,-2.34,-0.24,-3.42,-3.47,-3.47,-3.47
129.85,-1.13,2.37,-1.14,2.36,-2.36,-0.31,-3.44,-3.49,-3.51,-3.50
131.15,-1.13,2.40,-1.14,2.40,-2.40,-0.38,-3.46,-3.53,-3.54,-3.53
132.46,-1.13,2.43,-1.13,2.44,-2.44,-0.45,-3.47,-3.57,-3.57,-3.56
133.79,-1.13,2.46,-1.12,2.48,-2.48,-0.51,-3.47,-3.61,-3.60,-3.59
135.12,-1.13,2.51,-1.11,2.52,-2.52,-0.58,-3.47,-3.65,-3.63,-3.64
136.48,-1.13,2.54,-1.12,2.55,-2.55,-0.64,-3.45,-3.68,-3.67,-3.67
137.84,-1.13,2.57,-1.13,2.57,-2.57,-0.71,-3.44,-3.70,-3.70,-3.70
139.22,-1.13,2.62,-1.14,2.59,-2.59,-0.77,-3.41,-3.72,-3.74,-3.75
140.61,-1.13,2.67,-1.15,2.63,-2.63,-0.83,-3.38,-3.76,-3.78,-3.80
142.02,-1.13,2.69,-1.17,2.65,-2.65,-0.89,-3.35,-3.78,-3.82,-3.82
143.44,-1.13,2.73,-1.19,2.68,-2.68,-0.95,-3.32,-3.81,-3.87,-3.86
144.87,-1.13,2.77,-1.21,2.70,-2.70,-1.01,-3.28,-3.83,-3.92,-3.90
146.32,-1.28,2.67,-1.24,2.73,-2.73,-1.07,-3.24,-4.01,-3.97,-3.95
147.78,-1.36,2.63,-1.28,2.75,-2.75,-1.13,-3.20,-4.11,-4.03,-3.99
149.26,-1.36,2.70,-1.31,2.78,-2.78,-1.19,-3.15,-4.14,-4.09,-4.06
150.75,-1.36,2.78,-1.35,2.81,-2.81,-1.25,-3.11,-4.17,-4.16,-4.14
152.26,-1.36,2.85,-1.39,2.84,-2.84,-1.30,-3.07,-4.20,-4.23,-4.21
153.78,-1.36,2.92,-1.44,2.87,-2.87,-1.36,-3.03,-4.23,-4.30,-4.28
155.32,-1.41,2.97,-1.47,2.90,-2.90,-1.41,-2.99,-4.31,-4.37,-4.38
156.88,-1.57,2.88,-1.51,2.93,-2.93,-1.47,-2.95,-4.50,-4.44,-4.45
158.44,-1.59,2.93,-1.54,2.97,-2.97,-1.52,-2.91,-4.56,-4.51,-4.52
160.03,-1.59,3.01,-1.57,3.01,-3.01,-1.57,-2.88,-4.60,-4.58,-4.60
161.63,-1.59,3.07,-1.58,3.05,-3.05,-1.62,-2.85,-4.65,-4.64,-4.66
163.24,-1.59,3.12,-1.59,3.10,-3.10,-1.67,-2.81,-4.69,-4.69,-4.71
164.88,-1.59,3.16,-1.60,3.13,-3.13,-1.72,-2.79,-4.72,-4.73,-4.75
166.53,-1.72,3.07,-1.62,3.15,-3.15,-1.77,-2.76,-4.87,-4.77,-4.79
168.19,-1.66,3.16,-1.62,3.17,-3.17,-1.82,-2.74,-4.83,-4.79,-4.82
169.87,-1.59,3.24,-1.63,3.19,-3.19,-1.87,-2.72,-4.78,-4.81,-4.83
171.57,-1.59,3.25,-1.63,3.20,-3.20,-1.92,-2.70,-4.79,-4.82,-4.84
173.29,-1.59,3.25,-1.63,3.20,-3.20,-1.97,-2.69,-4.79,-4.83,-4.84
175.02,-1.59,3.23,-1.62,3.21,-3.21,-2.01,-2.68,-4.80,-4.84,-4.82
176.77,-1.59,3.24,-1.62,3.22,-3.22,-2.06,-2.67,-4.81,-4.84,-4.83
178.54,-1.59,3.23,-1.61,3.22,-3.22,-2.10,-2.67,-4.81,-4.83,-4.82
180.32,-1.59,3.22,-1.60,3.24,-3.24,-2.14,-2.67,-4.83,-4.84,-4.81
182.13,-1.59,3.22,-1.58,3.25,-3.25,-2.19,-2.67,-4.85,-4.84,-4.81
183.95,-1.59,3.22,-1.55,3.28,-3.28,-2.23,-2.67,-4.87,-4.84,-4.81
185.79,-1.59,3.23,-1.52,3.32,-3.32,-2.27,-2.68,-4.91,-4.84,-4.82
187.65,-1.59,3.25,-1.51,3.34,-3.34,-2.31,-2.69,-4.93,-4.85,-4.84
189.52,-1.59,3.27,-1.49,3.37,-3.37,-2.35,-2.71,-4.96,-4.86,-4.86
191.42,-1.53,3.35,-1.48,3.39,-3.39,-2.39,-2.72,-4.93,-4.87,-4.88
193.33,-1.41,3.49,-1.47,3.42,-3.42,-2.43,-2.74,-4.83,-4.89,-4.90
195.27,-1.36,3.54,-1.46,3.45,-3.45,-2.47,-2.77,-4.81,-4.91,-4.90
197.22,-1.36,3.56,-1.45,3.47,-3.47,-2.51,-2.79,-4.83,-4.93,-4.92
199.19,-1.36,3.60,-1.45,3.50,-3.50,-2.54,-2.82,-4.86,-4.95,-4.96
201.18,-1.36,3.60,-1.45,3.52,-3.52,-2.58,-2.84,-4.88,-4.96,-4.96
203.19,-1.40,3.58,-1.45,3.53,-3.53,-2.61,-2.88,-4.93,-4.98,-4.98
205.23,-1.53,3.48,-1.47,3.53,-3.53,-2.65,-2.91,-5.06,-5.00,-5.01
207.28,-1.59,3.42,-1.49,3.53,-3.53,-2.68,-2.94,-5.12,-5.02,-5.01
209.35,-1.59,3.44,-1.52,3.51,-3.51,-2.72,-2.98,-5.10,-5.03,-5.03
211.44,-1.59,3.47,-1.56,3.49,-3.49,-2.75,-3.01,-5.08,-5.05,-5.06
213.56,-1.59,3.47,-1.60,3.46,-3.46,-2.78,-3.05,-5.05,-5.06,-5.06
215.69,-1.59,3.47,-1.64,3.43,-3.43,-2.81,-3.08,-5.02,-5.08,-5.06
217.85,-1.59,3.50,-1.67,3.42,-3.42,-2.84,-3.12,-5.01,-5.09,-5.09
220.03,-1.68,3.42,-1.69,3.41,-3.41,-2.87,-3.15,-5.09,-5.10,-5.10
222.23,-1.78,3.34,-1.72,3.40,-3.40,-2.90,-3.19,-5.18,-5.11,-5.12
224.45,-1.81,3.31,-1.74,3.38,-3.38,-2.93,-3.22,-5.19,-5.12,-5.12
226.70,-1.81,3.31,-1.76,3.37,-3.37,-2.96,-3.26,-5.18,-5.13,-5.12
228.96,-1.81,3.32,-1.78,3.35,-3.35,-2.99,-3.29,-5.16,-5.13,-5.13
231.25,-1.81,3.32,-1.81,3.33,-3.33,-3.01,-3.32,-5.14,-5.14,-5.13
233.57,-1.81,3.33,-1.84,3.30,-3.30,-3.04,-3.34,-5.11,-5.14,-5.14
235.90,-1.81,3.34,-1.87,3.27,-3.27,-3.06,-3.37,-5.08,-5.14,-5.15
238.26,-1.81,3.34,-1.90,3.25,-3.25,-3.09,-3.39,-5.06,-5.14,-5.15
240.64,-1.81,3.34,-1.92,3.22,-3.22,-3.11,-3.40,-5.03,-5.14,-5.15
243.05,-1.97,3.17,-1.94,3.20,-3.20,-3.13,-3.42,-5.17,-5.14,-5.14
245.48,-2.04,3.09,-1.96,3.18,-3.18,-3.16,-3.43,-5.22,-5.14,-5.13
247.93,-2.04,3.08,-1.96,3.17,-3.17,-3.18,-3.44,-5.21,-5.13,-5.12
250.41,-2.04,3.09,-1.98,3.15,-3.15,-3.20,-3.44,-5.19,-5.13,-5.13
252.92,-2.04,3.08,-2.00,3.12,-3.12,-3.22,-3.44,-5.16,-5.12,-5.12
255.45,-2.04,3.05,-2.02,3.09,-3.09,-3.24,-3.43,-5.13,-5.11,-5.09
258.00,-2.04,3.05,-2.04,3.06,-3.06,-3.26,-3.43,-5.10,-5.10,-5.09
260.58,-2.04,3.05,-2.06,3.03,-3.03,-3.28,-3.41,-5.07,-5.09,-5.09
263.19,-2.04,3.03,-2.08,2.99,-2.99,-3.30,-3.40,-5.03,-5.07,-5.07
265.82,-2.04,3.03,-2.10,2.96,-2.96,-3.32,-3.38,-5.00,-5.06,-5.07
268.48,-2.04,3.00,-2.12,2.92,-2.92,-3.33,-3.36,-4.97,-5.04,-5.04
271.16,-2.04,2.99,-2.13,2.90,-2.90,-3.35,-3.34,-4.94,-5.03,-5.03
273.87,-2.12,2.90,-2.15,2.86,-2.86,-3.37,-3.31,-4.98,-5.01,-5.02
276.61,-2.25,2.73,-2.17,2.81,-2.81,-3.38,-3.28,-5.06,-4.99,-4.98
279.38,-2.27,2.70,-2.19,2.77,-2.77,-3.40,-3.25,-5.04,-4.96,-4.97
282.17,-2.27,2.67,-2.22,2.72,-2.72,-3.41,-3.22,-4.99,-4.94,-4.94
284.99,-2.27,2.64,-2.25,2.66,-2.66,-3.42,-3.18,-4.93,-4.91,-4.91
287.84,-2.27,2.62,-2.27,2.61,-2.61,-3.44,-3.15,-4.88,-4.88,-4.89
290.72,-2.27,2.58,-2.28,2.57,-2.57,-3.45,-3.11,-4.84,-4.86,-4.85
293.63,-2.27,2.56,-2.29,2.54,-2.54,-3.46,-3.08,-4.81,-4.83,-4.83
296.57,-2.27,2.53,-2.28,2.52,-2.52,-3.47,-3.04,-4.79,-4.80,-4.80
299.53,-2.27,2.50,-2.27,2.51,-2.51,-3.48,-3.00,-4.78,-4.78,-4.77
302.53,-2.27,2.49,-2.25,2.50,-2.50,-3.49,-2.97,-4.77,-4.76,-4.76
305.55,-2.27,2.45,-2.23,2.51,-2.51,-3.50,-2.93,-4.78,-4.74,-4.72
308.61,-2.27,2.43,-2.20,2.52,-2.52,-3.51,-2.90,-4.79,-4.72,-4.70
311.69,-2.27,2.42,-2.18,2.52,-2.52,-3.52,-2.87,-4.79,-4.70,-4.69
314.81,-2.13,2.53,-2.17,2.52,-2.52,-3.53,-2.83,-4.65,-4.69,-4.66
317.96,-2.05,2.61,-2.15,2.53,-2.53,-3.54,-2.80,-4.58,-4.68,-4.66
321.14,-2.04,2.63,-2.13,2.54,-2.54,-3.54,-2.77,-4.58,-4.67,-4.67
324.35,-2.04,2.62,-2.10,2.55,-2.55,-3.55,-2.74,-4.60,-4.66,-4.66
327.59,-2.04,2.61,-2.07,2.57,-2.57,-3.55,-2.72,-4.61,-4.65,-4.65
330.87,-2.04,2.60,-2.05,2.59,-2.59,-3.56,-2.69,-4.63,-4.64,-4.64
334.18,-2.04,2.60,-2.02,2.61,-2.61,-3.56,-2.67,-4.65,-4.63,-4.64
337.52,-2.04,2.59,-1.99,2.63,-2.63,-3.57,-2.65,-4.67,-4.61,-4.63
340.90,-2.04,2.56,-1.97,2.64,-2.64,-3.57,-2.63,-4.68,-4.60,-4.60
344.30,-2.04,2.55,-1.95,2.64,-2.64,-3.58,-2.62,-4.68,-4.59,-4.59
347.75,-1.98,2.60,-1.94,2.63,-2.63,-3.58,-2.60,-4.61,-4.57,-4.58
351.23,-1.85,2.70,-1.92,2.63,-2.63,-3.58,-2.59,-4.48,-4.55,-4.55
354.74,-1.81,2.72,-1.90,2.63,-2.63,-3.58,-2.58,-4.44,-4.53,-4.53
358.28,-1.81,2.69,-1.87,2.63,-2.63,-3.58,-2.57,-4.45,-4.50,-4.50
361.87,-1.81,2.67,-1.84,2.64,-2.64,-3.58,-2.57,-4.45,-4.48,-4.48
365.49,-1.81,2.65,-1.80,2.66,-2.66,-3.59,-2.56,-4.47,-4.46,-4.46
369.14,-1.81,2.63,-1.77,2.67,-2.67,-3.59,-2.56,-4.48,-4.44,-4.44
372.83,-1.81,2.60,-1.74,2.68,-2.68,-3.58,-2.56,-4.49,-4.42,-4.41
376.56,-1.81,2.58,-1.72,2.67,-2.67,-3.58,-2.56,-4.49,-4.40,-4.39
380.33,-1.72,2.64,-1.70,2.67,-2.67,-3.58,-2.57,-4.39,-4.38,-4.36
384.13,-1.61,2.73,-1.68,2.67,-2.67,-3.58,-2.58,-4.28,-4.36,-4.34
387.97,-1.59,2.74,-1.67,2.67,-2.67,-3.58,-2.58,-4.27,-4.34,-4.33
391.85,-1.59,2.74,-1.65,2.68,-2.68,-3.58,-2.59,-4.27,-4.33,-4.33
395.77,-1.59,2.73,-1.62,2.70,-2.70,-3.57,-2.61,-4.29,-4.32,-4.32
399.73,-1.59,2.72,-1.60,2.71,-2.71,-3.57,-2.62,-4.30,-4.31,-4.31
403.72,-1.59,2.71,-1.57,2.73,-2.73,-3.56,-2.63,-4.32,-4.30,-4.30
407.76,-1.59,2.70,-1.55,2.75,-2.75,-3.56,-2.65,-4.34,-4.29,-4.29
