frequency,raw,error,smoothed,error_smoothed,equalization,parametric_eq,fixed_band_eq,equalized_raw,equalized_smoothed,target
20.00,-3.43,-7.97,-3.45,-8.01,8.01,7.89,2.62,4.59,4.57,4.55
20.20,-3.39,-7.93,-3.41,-7.97,7.97,7.87,2.70,4.58,4.56,4.55
20.40,-3.36,-7.90,-3.37,-7.92,7.92,7.86,2.78,4.56,4.55,4.55
20.61,-3.33,-7.87,-3.33,-7.87,7.87,7.83,2.86,4.54,4.54,4.55
20.81,-3.30,-7.84,-3.29,-7.82,7.82,7.81,2.94,4.52,4.53,4.55
21.02,-3.27,-7.81,-3.25,-7.77,7.77,7.78,3.03,4.50,4.52,4.55
21.23,-3.23,-7.75,-3.21,-7.72,7.72,7.74,3.12,4.49,4.51,4.53
21.44,-3.19,-7.70,-3.16,-7.66,7.66,7.71,3.21,4.47,4.50,4.52
21.66,-3.15,-7.64,-3.12,-7.61,7.61,7.67,3.30,4.46,4.48,4.50
21.87,-3.11,-7.58,-3.08,-7.55,7.55,7.62,3.40,4.44,4.47,4.48
22.09,-3.05,-7.51,-3.04,-7.49,7.49,7.58,3.50,4.44,4.45,4.47
22.31,-2.99,-7.42,-2.99,-7.43,7.43,7.53,3.60,4.44,4.44,4.44
22.54,-2.94,-7.35,-2.95,-7.36,7.36,7.47,3.70,4.43,4.41,4.42
22.76,-2.89,-7.28,-2.90,-7.29,7.29,7.42,3.81,4.41,4.39,4.40
22.99,-2.84,-7.20,-2.86,-7.23,7.23,7.36,3.92,4.39,4.37,4.37
23.22,-2.80,-7.13,-2.81,-7.16,7.16,7.30,4.03,4.36,4.35,4.34
23.45,-2.76,-7.06,-2.77,-7.09,7.09,7.24,4.14,4.33,4.32,4.31
23.69,-2.72,-7.01,-2.72,-7.03,7.03,7.17,4.26,4.31,4.30,4.30
23.92,-2.68,-6.95,-2.68,-6.96,6.96,7.11,4.38,4.29,4.28,4.28
24.16,-2.64,-6.90,-2.64,-6.90,6.90,7.04,4.50,4.26,4.26,4.27
24.40,-2.61,-6.85,-2.59,-6.84,6.84,6.97,4.62,4.23,4.24,4.25
24.65,-2.57,-6.79,-2.55,-6.77,6.77,6.89,4.75,4.21,4.22,4.23
24.89,-2.52,-6.72,-2.51,-6.71,6.71,6.82,4.88,4.20,4.21,4.21
25.14,-2.47,-6.66,-2.46,-6.65,6.65,6.75,5.00,4.18,4.19,4.20
25.39,-2.42,-6.59,-2.41,-6.58,6.58,6.67,5.13,4.17,4.17,4.18
25.65,-2.37,-6.53,-2.36,-6.52,6.52,6.59,5.26,4.15,4.16,4.17
25.91,-2.31,-6.44,-2.31,-6.45,6.45,6.51,5.39,4.15,4.14,4.14
26.16,-2.26,-6.38,-2.26,-6.39,6.39,6.44,5.52,4.13,4.13,4.13
26.43,-2.20,-6.31,-2.21,-6.32,6.32,6.36,5.65,4.12,4.11,4.12
26.69,-2.15,-6.23,-2.15,-6.25,6.25,6.28,5.78,4.10,4.09,4.09
26.96,-2.09,-6.16,-2.09,-6.17,6.17,6.20,5.90,4.09,4.08,4.08
27.23,-2.04,-6.10,-2.04,-6.10,6.10,6.11,6.02,4.06,4.06,4.07
27.50,-1.99,-6.04,-1.98,-6.03,6.03,6.03,6.14,4.04,4.05,4.06
27.77,-1.93,-5.96,-1.92,-5.96,5.96,5.95,6.26,4.03,4.04,4.04
28.05,-1.87,-5.89,-1.86,-5.89,5.89,5.87,6.37,4.02,4.02,4.03
28.33,-1.82,-5.82,-1.81,-5.81,5.81,5.79,6.47,4.00,4.01,4.01
28.62,-1.75,-5.74,-1.75,-5.74,5.74,5.71,6.57,4.00,3.99,4.00
28.90,-1.70,-5.67,-1.69,-5.68,5.68,5.63,6.65,3.98,3.98,3.98
29.19,-1.64,-5.59,-1.64,-5.61,5.61,5.54,6.73,3.97,3.97,3.96
29.48,-1.57,-5.52,-1.58,-5.54,5.54,5.46,6.81,3.97,3.96,3.96
29.78,-1.52,-5.46,-1.53,-5.47,5.47,5.38,6.87,3.95,3.94,3.95
30.08,-1.46,-5.39,-1.47,-5.40,5.40,5.30,6.92,3.94,3.93,3.94
30.38,-1.42,-5.33,-1.42,-5.33,5.33,5.22,6.95,3.91,3.91,3.92
30.68,-1.36,-5.26,-1.36,-5.26,5.26,5.14,6.98,3.90,3.90,3.91
30.99,-1.31,-5.18,-1.31,-5.19,5.19,5.06,6.99,3.89,3.88,3.88
31.30,-1.27,-5.13,-1.26,-5.12,5.12,4.98,7.00,3.85,3.86,3.87
31.61,-1.21,-5.06,-1.20,-5.05,5.05,4.90,6.98,3.84,3.85,3.86
31.93,-1.16,-4.99,-1.15,-4.98,4.98,4.83,6.96,3.82,3.83,3.84
32.24,-1.11,-4.91,-1.09,-4.90,4.90,4.75,6.93,3.80,3.81,3.81
32.57,-1.05,-4.83,-1.04,-4.83,4.83,4.67,6.88,3.78,3.79,3.79
32.89,-0.99,-4.76,-0.98,-4.75,4.75,4.60,6.82,3.76,3.77,3.78
33.22,-0.92,-4.66,-0.92,-4.67,4.67,4.52,6.75,3.75,3.75,3.75
33.55,-0.86,-4.59,-0.86,-4.59,4.59,4.45,6.67,3.73,3.73,3.74
33.89,-0.80,-4.50,-0.80,-4.51,4.51,4.37,6.59,3.71,3.71,3.71
34.23,-0.74,-4.42,-0.74,-4.43,4.43,4.30,6.49,3.69,3.69,3.69
34.57,-0.67,-4.33,-0.68,-4.34,4.34,4.23,6.39,3.68,3.67,3.67
34.92,-0.62,-4.26,-0.62,-4.26,4.26,4.15,6.28,3.65,3.65,3.65
35.27,-0.56,-4.18,-0.56,-4.19,4.19,4.08,6.17,3.63,3.63,3.63
35.62,-0.50,-4.10,-0.50,-4.11,4.11,4.01,6.05,3.61,3.61,3.61
35.97,-0.45,-4.03,-0.45,-4.03,4.03,3.94,5.93,3.59,3.59,3.59
36.33,-0.39,-3.95,-0.39,-3.96,3.96,3.87,5.80,3.57,3.56,3.57
36.70,-0.34,-3.88,-0.34,-3.89,3.89,3.81,5.67,3.55,3.54,3.55
37.06,-0.29,-3.81,-0.29,-3.81,3.81,3.74,5.54,3.53,3.52,3.53
37.43,-0.24,-3.74,-0.24,-3.74,3.74,3.67,5.41,3.51,3.50,3.51
37.81,-0.20,-3.68,-0.19,-3.67,3.67,3.61,5.28,3.48,3.48,3.49
38.19,-0.15,-3.60,-0.14,-3.60,3.60,3.54,5.15,3.46,3.46,3.46
38.57,-0.11,-3.55,-0.10,-3.54,3.54,3.48,5.02,3.43,3.44,3.45
38.95,-0.06,-3.47,-0.05,-3.47,3.47,3.41,4.89,3.41,3.42,3.42
39.34,-0.01,-3.40,-0.00,-3.40,3.40,3.35,4.76,3.40,3.40,3.40
39.74,0.04,-3.33,0.04,-3.34,3.34,3.29,4.63,3.38,3.38,3.38
40.14,0.09,-3.27,0.09,-3.27,3.27,3.23,4.51,3.37,3.36,3.37
40.54,0.13,-3.21,0.13,-3.21,3.21,3.17,4.39,3.34,3.34,3.35
40.94,0.18,-3.14,0.18,-3.15,3.15,3.11,4.26,3.33,3.33,3.33
41.35,0.22,-3.07,0.22,-3.09,3.09,3.05,4.15,3.31,3.31,3.30
41.76,0.27,-3.02,0.26,-3.03,3.03,2.99,4.03,3.30,3.29,3.30
42.18,0.31,-2.96,0.30,-2.97,2.97,2.94,3.91,3.28,3.27,3.28
42.60,0.34,-2.91,0.34,-2.91,2.91,2.88,3.80,3.25,3.25,3.26
43.03,0.38,-2.86,0.38,-2.85,2.85,2.82,3.69,3.23,3.23,3.25
43.46,0.41,-2.80,0.42,-2.79,2.79,2.77,3.59,3.21,3.21,3.22
43.90,0.46,-2.73,0.46,-2.74,2.74,2.71,3.48,3.20,3.20,3.20
44.33,0.49,-2.68,0.50,-2.68,2.68,2.66,3.38,3.17,3.18,3.18
44.78,0.52,-2.63,0.53,-2.63,2.63,2.61,3.28,3.15,3.16,3.16
45.23,0.56,-2.56,0.57,-2.57,2.57,2.56,3.19,3.13,3.14,3.13
45.68,0.59,-2.51,0.60,-2.52,2.52,2.50,3.09,3.11,3.12,3.11
46.13,0.63,-2.46,0.64,-2.46,2.46,2.45,3.00,3.10,3.10,3.10
46.60,0.67,-2.41,0.67,-2.41,2.41,2.40,2.91,3.08,3.08,3.09
47.06,0.70,-2.36,0.70,-2.35,2.35,2.35,2.83,3.06,3.06,3.07
47.53,0.74,-2.30,0.74,-2.30,2.30,2.30,2.74,3.05,3.04,3.05
48.01,0.77,-2.26,0.76,-2.25,2.25,2.26,2.66,3.02,3.02,3.04
48.49,0.80,-2.20,0.79,-2.20,2.20,2.21,2.58,3.01,3.00,3.01
48.97,0.82,-2.15,0.82,-2.16,2.16,2.16,2.50,2.98,2.97,2.98
49.46,0.84,-2.10,0.84,-2.11,2.11,2.12,2.43,2.95,2.95,2.95
49.96,0.86,-2.05,0.86,-2.07,2.07,2.07,2.35,2.93,2.93,2.92
50.46,0.89,-2.01,0.88,-2.02,2.02,2.02,2.28,2.92,2.91,2.91
50.96,0.90,-1.98,0.90,-1.98,1.98,1.98,2.21,2.89,2.89,2.89
51.47,0.91,-1.94,0.92,-1.94,1.94,1.94,2.15,2.85,2.86,2.86
51.99,0.93,-1.90,0.94,-1.90,1.90,1.89,2.08,2.83,2.84,2.84
52.51,0.94,-1.87,0.95,-1.86,1.86,1.85,2.02,2.80,2.81,2.82
53.03,0.96,-1.83,0.96,-1.82,1.82,1.81,1.95,2.79,2.79,2.80
53.56,0.97,-1.79,0.98,-1.78,1.78,1.76,1.89,2.76,2.76,2.77
54.10,1.00,-1.74,0.99,-1.75,1.75,1.72,1.83,2.75,2.74,2.75
54.64,1.00,-1.71,1.01,-1.71,1.71,1.68,1.77,2.71,2.72,2.72
55.18,1.02,-1.67,1.02,-1.67,1.67,1.64,1.72,2.70,2.69,2.70
55.74,1.03,-1.63,1.03,-1.64,1.64,1.60,1.66,2.67,2.67,2.67
56.29,1.04,-1.60,1.05,-1.60,1.60,1.56,1.61,2.64,2.65,2.65
56.86,1.06,-1.55,1.06,-1.56,1.56,1.52,1.55,2.63,2.62,2.62
57.42,1.07,-1.52,1.07,-1.53,1.53,1.48,1.50,2.60,2.60,2.60
58.00,1.08,-1.49,1.09,-1.49,1.49,1.44,1.45,2.57,2.57,2.58
58.58,1.09,-1.45,1.10,-1.45,1.45,1.41,1.40,2.54,2.55,2.55
59.16,1.11,-1.41,1.11,-1.42,1.42,1.37,1.35,2.53,2.52,2.53
59.76,1.11,-1.39,1.11,-1.38,1.38,1.33,1.30,2.49,2.49,2.51
60.35,1.12,-1.35,1.12,-1.35,1.35,1.29,1.25,2.47,2.47,2.48
60.96,1.12,-1.33,1.13,-1.32,1.32,1.26,1.20,2.44,2.44,2.46
61.57,1.13,-1.28,1.13,-1.28,1.28,1.22,1.16,2.42,2.41,2.42
62.18,1.14,-1.24,1.13,-1.26,1.26,1.18,1.11,2.40,2.39,2.39
62.80,1.14,-1.21,1.14,-1.23,1.23,1.15,1.06,2.37,2.36,2.36
63.43,1.14,-1.18,1.14,-1.20,1.20,1.11,1.02,2.34,2.34,2.33
64.07,1.13,-1.16,1.14,-1.17,1.17,1.08,0.97,2.31,2.31,2.30
64.71,1.13,-1.14,1.14,-1.15,1.15,1.04,0.93,2.28,2.28,2.28
65.35,1.13,-1.12,1.13,-1.12,1.12,1.01,0.88,2.26,2.26,2.26
66.01,1.12,-1.11,1.13,-1.10,1.10,0.97,0.84,2.22,2.23,2.24
66.67,1.13,-1.07,1.13,-1.07,1.07,0.94,0.79,2.21,2.21,2.21
67.33,1.13,-1.05,1.13,-1.05,1.05,0.91,0.75,2.18,2.18,2.19
68.01,1.12,-1.03,1.13,-1.02,1.02,0.87,0.70,2.15,2.16,2.16
68.69,1.13,-1.00,1.13,-1.00,1.00,0.84,0.66,2.13,2.13,2.14
69.37,1.13,-0.97,1.13,-0.97,0.97,0.80,0.61,2.10,2.11,2.11
70.07,1.13,-0.94,1.14,-0.94,0.94,0.77,0.57,2.08,2.08,2.08
70.77,1.13,-0.92,1.14,-0.91,0.91,0.74,0.53,2.05,2.05,2.06
71.48,1.14,-0.88,1.14,-0.88,0.88,0.70,0.48,2.02,2.02,2.03
72.19,1.14,-0.85,1.14,-0.85,0.85,0.67,0.44,1.99,1.99,2.00
72.91,1.15,-0.80,1.15,-0.81,0.81,0.64,0.40,1.96,1.96,1.96
73.64,1.15,-0.77,1.15,-0.78,0.78,0.61,0.35,1.93,1.92,1.93
74.38,1.15,-0.74,1.15,-0.74,0.74,0.57,0.31,1.89,1.89,1.90
75.12,1.15,-0.69,1.15,-0.70,0.70,0.54,0.26,1.86,1.86,1.85
75.87,1.15,-0.66,1.15,-0.67,0.67,0.51,0.22,1.82,1.82,1.82
76.63,1.15,-0.63,1.15,-0.63,0.63,0.47,0.18,1.78,1.78,1.79
77.40,1.15,-0.59,1.15,-0.59,0.59,0.44,0.13,1.74,1.74,1.75
78.17,1.15,-0.53,1.16,-0.54,0.54,0.41,0.09,1.70,1.70,1.69
78.95,1.15,-0.51,1.16,-0.50,0.50,0.37,0.04,1.66,1.66,1.67
79.74,1.15,-0.47,1.16,-0.46,0.46,0.34,-0.00,1.61,1.62,1.63
80.54,1.15,-0.42,1.16,-0.42,0.42,0.31,-0.05,1.57,1.57,1.58
81.35,1.16,-0.37,1.16,-0.37,0.37,0.27,-0.09,1.54,1.53,1.54
82.16,1.16,-0.32,1.16,-0.33,0.33,0.24,-0.14,1.49,1.49,1.49
82.98,1.16,-0.28,1.16,-0.28,0.28,0.20,-0.18,1.45,1.44,1.45
83.81,1.16,-0.22,1.16,-0.24,0.24,0.17,-0.23,1.40,1.40,1.39
84.65,1.15,-0.19,1.16,-0.19,0.19,0.13,-0.27,1.34,1.35,1.35
85.50,1.16,-0.14,1.16,-0.14,0.14,0.10,-0.32,1.30,1.30,1.31
86.35,1.16,-0.09,1.16,-0.09,0.09,0.06,-0.37,1.26,1.25,1.26
87.22,1.15,-0.05,1.16,-0.05,0.05,0.03,-0.42,1.20,1.20,1.21
88.09,1.16,0.02,1.16,0.00,-0.00,-0.01,-0.46,1.16,1.15,1.15
88.97,1.15,0.05,1.16,0.05,-0.05,-0.05,-0.51,1.10,1.10,1.11
89.86,1.15,0.10,1.16,0.10,-0.10,-0.08,-0.56,1.05,1.05,1.06
90.76,1.15,0.16,1.15,0.15,-0.15,-0.12,-0.61,1.00,1.00,1.00
91.66,1.15,0.21,1.15,0.21,-0.21,-0.16,-0.66,0.95,0.95,0.95
92.58,1.15,0.27,1.15,0.26,-0.26,-0.20,-0.71,0.89,0.89,0.89
93.51,1.15,0.31,1.16,0.31,-0.31,-0.24,-0.76,0.84,0.84,0.85
94.44,1.16,0.37,1.16,0.37,-0.37,-0.28,-0.81,0.79,0.78,0.80
95.39,1.15,0.42,1.16,0.43,-0.43,-0.32,-0.87,0.72,0.73,0.74
96.34,1.15,0.49,1.16,0.49,-0.49,-0.36,-0.92,0.67,0.67,0.67
97.30,1.15,0.54,1.16,0.55,-0.55,-0.40,-0.97,0.61,0.61,0.62
98.28,1.16,0.61,1.16,0.60,-0.60,-0.44,-1.02,0.56,0.55,0.56
99.26,1.16,0.68,1.16,0.67,-0.67,-0.48,-1.08,0.50,0.49,0.49
100.25,1.16,0.73,1.16,0.73,-0.73,-0.53,-1.13,0.44,0.43,0.44
101.25,1.16,0.79,1.16,0.79,-0.79,-0.57,-1.18,0.37,0.37,0.38
102.27,1.16,0.86,1.16,0.85,-0.85,-0.62,-1.24,0.31,0.31,0.31
103.29,1.16,0.93,1.16,0.92,-0.92,-0.66,-1.29,0.25,0.25,0.24
104.32,1.16,0.98,1.16,0.98,-0.98,-0.71,-1.34,0.18,0.18,0.19
105.37,1.16,1.04,1.16,1.05,-1.05,-0.76,-1.39,0.12,0.12,0.13
106.42,1.15,1.10,1.16,1.11,-1.11,-0.81,-1.45,0.04,0.05,0.06
107.48,1.16,1.18,1.16,1.18,-1.18,-0.86,-1.50,-0.01,-0.01,-0.01
108.56,1.16,1.25,1.16,1.24,-1.24,-0.91,-1.55,-0.08,-0.08,-0.08
109.64,1.16,1.31,1.16,1.31,-1.31,-0.97,-1.60,-0.15,-0.15,-0.14
110.74,1.16,1.37,1.16,1.38,-1.38,-1.02,-1.65,-0.21,-0.21,-0.20
111.85,1.16,1.44,1.16,1.44,-1.44,-1.08,-1.69,-0.28,-0.28,-0.27
112.97,1.16,1.52,1.16,1.51,-1.51,-1.13,-1.74,-0.35,-0.35,-0.35
114.10,1.15,1.57,1.16,1.58,-1.58,-1.19,-1.78,-0.42,-0.42,-0.41
115.24,1.16,1.65,1.16,1.64,-1.64,-1.25,-1.83,-0.48,-0.48,-0.48
116.39,1.16,1.72,1.16,1.71,-1.71,-1.31,-1.87,-0.54,-0.55,-0.55
117.55,1.15,1.78,1.16,1.77,-1.77,-1.37,-1.90,-0.62,-0.62,-0.62
118.73,1.15,1.84,1.15,1.83,-1.83,-1.43,-1.94,-0.68,-0.68,-0.68
119.92,1.15,1.90,1.15,1.89,-1.89,-1.50,-1.97,-0.74,-0.74,-0.74
121.12,1.14,1.95,1.15,1.95,-1.95,-1.56,-2.00,-0.81,-0.81,-0.80
122.33,1.14,2.02,1.15,2.01,-2.01,-1.63,-2.03,-0.87,-0.87,-0.87
123.55,1.14,2.07,1.14,2.07,-2.07,-1.70,-2.06,-0.93,-0.93,-0.92
124.79,1.14,2.13,1.14,2.13,-2.13,-1.77,-2.08,-0.99,-0.99,-0.98
126.03,1.13,2.17,1.14,2.18,-2.18,-1.84,-2.10,-1.05,-1.05,-1.03
127.29,1.13,2.23,1.13,2.24,-2.24,-1.91,-2.12,-1.10,-1.10,-1.09
128.57,1.13,2.30,1.13,2.29,-2.29,-1.98,-2.13,-1.16,-1.16,-1.16
129.85,1.13,2.35,1.13,2.34,-2.34,-2.06,-2.15,-1.21,-1.21,-1.21
131.15,1.12,2.39,1.12,2.39,-2.39,-2.13,-2.16,-1.27,-1.27,-1.26
132.46,1.12,2.45,1.12,2.44,-2.44,-2.20,-2.17,-1.31,-1.32,-1.32
133.79,1.12,2.49,1.12,2.48,-2.48,-2.28,-2.17,-1.36,-1.37,-1.36
135.12,1.11,2.54,1.12,2.53,-2.53,-2.36,-2.18,-1.41,-1.41,-1.42
136.48,1.10,2.56,1.11,2.57,-2.57,-2.43,-2.18,-1.46,-1.45,-1.45
137.84,1.10,2.60,1.11,2.61,-2.61,-2.51,-2.18,-1.50,-1.50,-1.49
139.22,1.10,2.65,1.11,2.64,-2.64,-2.58,-2.18,-1.54,-1.54,-1.54
140.61,1.10,2.69,1.10,2.68,-2.68,-2.66,-2.18,-1.57,-1.57,-1.58
142.02,1.10,2.71,1.10,2.71,-2.71,-2.73,-2.18,-1.60,-1.61,-1.60
143.44,1.09,2.73,1.10,2.74,-2.74,-2.80,-2.17,-1.64,-1.64,-1.63
144.87,1.09,2.77,1.09,2.77,-2.77,-2.87,-2.17,-1.67,-1.67,-1.67
146.32,1.09,2.80,1.09,2.79,-2.79,-2.94,-2.17,-1.70,-1.70,-1.70
147.78,1.08,2.81,1.09,2.82,-2.82,-3.01,-2.17,-1.73,-1.73,-1.72
149.26,1.08,2.84,1.08,2.84,-2.84,-3.07,-2.16,-1.76,-1.76,-1.75
150.75,1.07,2.87,1.08,2.86,-2.86,-3.13,-2.16,-1.79,-1.79,-1.79
152.26,1.07,2.89,1.07,2.89,-2.89,-3.19,-2.16,-1.82,-1.82,-1.81
153.78,1.06,2.91,1.06,2.91,-2.91,-3.24,-2.16,-1.85,-1.84,-1.84
155.32,1.06,2.93,1.06,2.93,-2.93,-3.29,-2.16,-1.87,-1.87,-1.86
156.88,1.05,2.95,1.05,2.95,-2.95,-3.34,-2.16,-1.89,-1.90,-1.89
158.44,1.03,2.96,1.04,2.96,-2.96,-3.37,-2.16,-1.93,-1.93,-1.92
160.03,1.03,2.99,1.03,2.98,-2.98,-3.41,-2.16,-1.95,-1.95,-1.95
161.63,1.01,3.00,1.02,3.00,-3.00,-3.43,-2.17,-1.98,-1.98,-1.98
163.24,1.00,3.02,1.00,3.01,-3.01,-3.46,-2.17,-2.01,-2.01,-2.01
164.88,0.99,3.03,0.99,3.03,-3.03,-3.47,-2.18,-2.03,-2.04,-2.03
166.53,0.98,3.04,0.97,3.04,-3.04,-3.48,-2.19,-2.06,-2.06,-2.05
168.19,0.96,3.06,0.96,3.05,-3.05,-3.48,-2.20,-2.09,-2.09,-2.09
169.87,0.93,3.06,0.94,3.06,-3.06,-3.48,-2.21,-2.13,-2.12,-2.12
171.57,0.92,3.08,0.92,3.08,-3.08,-3.47,-2.23,-2.15,-2.16,-2.15
173.29,0.89,3.07,0.90,3.09,-3.09,-3.45,-2.24,-2.19,-2.19,-2.17
175.02,0.88,3.10,0.88,3.10,-3.10,-3.43,-2.26,-2.22,-2.22,-2.21
176.77,0.85,3.11,0.85,3.11,-3.11,-3.40,-2.28,-2.26,-2.26,-2.25
178.54,0.83,3.13,0.83,3.12,-3.12,-3.37,-2.30,-2.29,-2.29,-2.29
180.32,0.80,3.13,0.80,3.13,-3.13,-3.33,-2.33,-2.33,-2.32,-2.32
182.13,0.77,3.13,0.78,3.14,-3.14,-3.29,-2.35,-2.36,-2.36,-2.35
183.95,0.74,3.14,0.75,3.15,-3.15,-3.24,-2.38,-2.40,-2.39,-2.39
185.79,0.72,3.16,0.72,3.15,-3.15,-3.19,-2.41,-2.43,-2.43,-2.43
187.65,0.70,3.18,0.70,3.16,-3.16,-3.14,-2.44,-2.46,-2.46,-2.47
189.52,0.66,3.17,0.67,3.16,-3.16,-3.08,-2.47,-2.50,-2.49,-2.50
191.42,0.64,3.17,0.64,3.16,-3.16,-3.02,-2.50,-2.52,-2.53,-2.52
193.33,0.61,3.16,0.61,3.17,-3.17,-2.95,-2.54,-2.55,-2.56,-2.54
195.27,0.58,3.16,0.58,3.16,-3.16,-2.89,-2.58,-2.58,-2.58,-2.57
197.22,0.54,3.15,0.55,3.16,-3.16,-2.82,-2.61,-2.62,-2.61,-2.60
199.19,0.52,3.18,0.52,3.15,-3.15,-2.75,-2.65,-2.63,-2.64,-2.65
201.18,0.49,3.16,0.48,3.14,-3.14,-2.68,-2.69,-2.65,-2.66,-2.66
203.19,0.44,3.13,0.45,3.13,-3.13,-2.61,-2.73,-2.69,-2.68,-2.68
205.23,0.41,3.12,0.42,3.12,-3.12,-2.54,-2.77,-2.71,-2.71,-2.70
207.28,0.38,3.10,0.38,3.11,-3.11,-2.47,-2.81,-2.72,-2.73,-2.71
209.35,0.34,3.09,0.35,3.09,-3.09,-2.40,-2.86,-2.75,-2.75,-2.74
211.44,0.31,3.08,0.31,3.07,-3.07,-2.33,-2.90,-2.76,-2.76,-2.76
213.56,0.27,3.06,0.27,3.05,-3.05,-2.26,-2.93,-2.78,-2.78,-2.78
215.69,0.23,3.02,0.24,3.03,-3.03,-2.19,-2.97,-2.80,-2.79,-2.78
217.85,0.19,2.99,0.20,3.00,-3.00,-2.12,-3.01,-2.81,-2.81,-2.79
220.03,0.16,2.99,0.16,2.98,-2.98,-2.06,-3.04,-2.81,-2.81,-2.82
222.23,0.12,2.96,0.13,2.95,-2.95,-1.99,-3.08,-2.82,-2.82,-2.83
224.45,0.09,2.92,0.09,2.91,-2.91,-1.93,-3.11,-2.82,-2.83,-2.82
226.70,0.05,2.89,0.05,2.88,-2.88,-1.86,-3.13,-2.83,-2.83,-2.83
228.96,0.01,2.85,0.01,2.84,-2.84,-1.80,-3.16,-2.83,-2.83,-2.83
231.25,-0.03,2.80,-0.02,2.80,-2.80,-1.74,-3.18,-2.83,-2.83,-2.82
233.57,-0.07,2.75,-0.06,2.76,-2.76,-1.68,-3.19,-2.83,-2.82,-2.81
235.90,-0.10,2.72,-0.10,2.72,-2.72,-1.62,-3.20,-2.81,-2.81,-2.81
238.26,-0.14,2.68,-0.14,2.67,-2.67,-1.56,-3.21,-2.80,-2.80,-2.81
240.64,-0.18,2.62,-0.18,2.62,-2.62,-1.50,-3.21,-2.79,-2.79,-2.79
243.05,-0.21,2.57,-0.22,2.56,-2.56,-1.45,-3.20,-2.77,-2.78,-2.77
245.48,-0.26,2.50,-0.26,2.50,-2.50,-1.40,-3.19,-2.76,-2.76,-2.75
247.93,-0.30,2.45,-0.30,2.45,-2.45,-1.34,-3.18,-2.74,-2.74,-2.74
250.41,-0.34,2.40,-0.34,2.38,-2.38,-1.29,-3.15,-2.72,-2.72,-2.73
252.92,-0.38,2.32,-0.38,2.32,-2.32,-1.24,-3.13,-2.70,-2.70,-2.69
255.45,-0.43,2.25,-0.43,2.25,-2.25,-1.19,-3.09,-2.68,-2.68,-2.67
258.00,-0.47,2.19,-0.47,2.19,-2.19,-1.15,-3.05,-2.65,-2.66,-2.65
260.58,-0.52,2.12,-0.52,2.11,-2.11,-1.10,-3.01,-2.63,-2.64,-2.63
263.19,-0.57,2.05,-0.57,2.04,-2.04,-1.05,-2.96,-2.61,-2.61,-2.61
265.82,-0.61,1.99,-0.62,1.96,-1.96,-1.01,-2.90,-2.57,-2.59,-2.59
268.48,-0.67,1.90,-0.68,1.89,-1.89,-0.97,-2.84,-2.56,-2.57,-2.56
271.16,-0.71,1.83,-0.73,1.81,-1.81,-0.92,-2.77,-2.52,-2.54,-2.53
273.87,-0.77,1.75,-0.78,1.74,-1.74,-0.88,-2.70,-2.51,-2.52,-2.51
276.61,-0.82,1.67,-0.82,1.67,-1.67,-0.84,-2.62,-2.49,-2.49,-2.48
279.38,-0.86,1.61,-0.86,1.60,-1.60,-0.80,-2.54,-2.46,-2.47,-2.46
282.17,-0.91,1.54,-0.90,1.55,-1.55,-0.77,-2.46,-2.45,-2.44,-2.44
284.99,-0.95,1.47,-0.92,1.49,-1.49,-0.73,-2.38,-2.44,-2.42,-2.41
287.84,-0.98,1.42,-0.94,1.45,-1.45,-0.69,-2.29,-2.42,-2.39,-2.39
290.72,-0.99,1.37,-0.95,1.41,-1.41,-0.66,-2.20,-2.40,-2.36,-2.35
293.63,-1.00,1.34,-0.95,1.38,-1.38,-0.62,-2.10,-2.38,-2.33,-2.33
296.57,-0.98,1.33,-0.94,1.36,-1.36,-0.58,-2.01,-2.33,-2.30,-2.30
299.53,-0.96,1.32,-0.93,1.34,-1.34,-0.55,-1.91,-2.30,-2.27,-2.27
302.53,-0.93,1.33,-0.91,1.33,-1.33,-0.52,-1.81,-2.26,-2.24,-2.25
305.55,-0.89,1.32,-0.89,1.32,-1.32,-0.48,-1.71,-2.21,-2.21,-2.20
308.61,-0.85,1.33,-0.86,1.32,-1.32,-0.45,-1.61,-2.16,-2.17,-2.17
311.69,-0.81,1.33,-0.83,1.31,-1.31,-0.42,-1.51,-2.12,-2.14,-2.13
314.81,-0.78,1.33,-0.80,1.31,-1.31,-0.39,-1.41,-2.08,-2.11,-2.10
317.96,-0.76,1.32,-0.78,1.30,-1.30,-0.36,-1.30,-2.06,-2.08,-2.07
321.14,-0.74,1.31,-0.76,1.29,-1.29,-0.32,-1.20,-2.02,-2.05,-2.04
324.35,-0.74,1.29,-0.75,1.27,-1.27,-0.29,-1.10,-2.01,-2.02,-2.02
327.59,-0.75,1.24,-0.75,1.24,-1.24,-0.26,-0.99,-1.99,-1.99,-1.98
330.87,-0.76,1.20,-0.75,1.21,-1.21,-0.23,-0.89,-1.96,-1.96,-1.95
334.18,-0.77,1.17,-0.77,1.16,-1.16,-0.20,-0.79,-1.93,-1.93,-1.93
337.52,-0.79,1.13,-0.80,1.11,-1.11,-0.17,-0.68,-1.90,-1.91,-1.91
340.90,-0.83,1.06,-0.84,1.05,-1.05,-0.14,-0.58,-1.87,-1.89,-1.88
344.30,-0.87,1.00,-0.89,0.97,-0.97,-0.11,-0.47,-1.84,-1.86,-1.86
347.75,-0.93,0.91,-0.95,0.90,-0.90,-0.08,-0.37,-1.82,-1.84,-1.83
351.23,-0.99,0.83,-1.01,0.81,-0.81,-0.05,-0.27,-1.80,-1.82,-1.81
354.74,-1.07,0.74,-1.08,0.72,-0.72,-0.02,-0.17,-1.78,-1.80,-1.80
358.28,-1.16,0.63,-1.16,0.62,-0.62,0.01,-0.06,-1.78,-1.78,-1.78
361.87,-1.25,0.52,-1.25,0.52,-0.52,0.04,0.04,-1.76,-1.76,-1.76
365.49,-1.35,0.39,-1.33,0.41,-0.41,0.06,0.14,-1.76,-1.74,-1.73
369.14,-1.44,0.29,-1.42,0.30,-0.30,0.10,0.25,-1.74,-1.72,-1.72
372.83,-1.54,0.18,-1.51,0.19,-0.19,0.13,0.35,-1.73,-1.70,-1.71
376.56,-1.62,0.08,-1.61,0.08,-0.08,0.16,0.45,-1.70,-1.68,-1.69
380.33,-1.71,-0.04,-1.70,-0.03,0.03,0.19,0.55,-1.68,-1.67,-1.66
384.13,-1.79,-0.14,-1.79,-0.14,0.14,0.22,0.65,-1.65,-1.65,-1.64
387.97,-1.88,-0.25,-1.87,-0.25,0.25,0.25,0.75,-1.63,-1.63,-1.62
391.85,-1.96,-0.35,-1.96,-0.35,0.35,0.28,0.85,-1.60,-1.60,-1.60
395.77,-2.04,-0.46,-2.04,-0.46,0.46,0.31,0.95,-1.58,-1.58,-1.57
399.73,-2.11,-0.55,-2.12,-0.55,0.55,0.35,1.05,-1.55,-1.56,-1.55
403.72,-2.19,-0.64,-2.19,-0.65,0.65,0.38,1.15,-1.54,-1.54,-1.54
407.76,-2.26,-0.73,-2.26,-0.74,0.74,0.41,1.25,-1.52,-1.52,-1.52
411.84,-2.33,-0.83,-2.33,-0.83,0.83,0.45,1.34,-1.50,-1.50,-1.49
415.96,-2.39,-0.91,-2.39,-0.91,0.91,0.48,1.44,-1.47,-1.47,-1.47
420.12,-2.45,-0.99,-2.44,-0.99,0.99,0.52,1.53,-1.46,-1.45,-1.45
424.32,-2.51,-1.08,-2.49,-1.06,1.06,0.56,1.62,-1.44,-1.43,-1.42
428.56,-2.56,-1.15,-2.54,-1.13,1.13,0.59,1.71,-1.42,-1.41,-1.40
432.85,-2.60,-1.21,-2.58,-1.19,1.19,0.63,1.80,-1.40,-1.38,-1.38
437.18,-2.63,-1.27,-2.61,-1.25,1.25,0.67,1.89,-1.37,-1.36,-1.35
441.55,-2.65,-1.32,-2.64,-1.31,1.31,0.71,1.97,-1.34,-1.33,-1.32
445.96,-2.68,-1.37,-2.67,-1.36,1.36,0.75,2.05,-1.31,-1.31,-1.30
450.42,-2.69,-1.39,-2.69,-1.41,1.41,0.80,2.12,-1.27,-1.28,-1.29
454.93,-2.71,-1.45,-2.71,-1.46,1.46,0.84,2.19,-1.25,-1.25,-1.25
459.48,-2.72,-1.48,-2.73,-1.51,1.51,0.88,2.26,-1.21,-1.23,-1.23
464.07,-2.74,-1.53,-2.75,-1.55,1.55,0.93,2.32,-1.19,-1.20,-1.20
468.71,-2.76,-1.59,-2.77,-1.59,1.59,0.97,2.38,-1.16,-1.17,-1.16
473.40,-2.78,-1.63,-2.78,-1.64,1.64,1.02,2.43,-1.14,-1.14,-1.14
478.13,-2.79,-1.67,-2.80,-1.68,1.68,1.07,2.48,-1.10,-1.11,-1.11
482.91,-2.82,-1.73,-2.81,-1.73,1.73,1.12,2.52,-1.09,-1.09,-1.08
487.74,-2.83,-1.77,-2.83,-1.77,1.77,1.17,2.56,-1.06,-1.06,-1.05
492.62,-2.84,-1.81,-2.84,-1.81,1.81,1.23,2.59,-1.02,-1.03,-1.02
497.55,-2.86,-1.85,-2.86,-1.86,1.86,1.28,2.61,-1.00,-1.00,-1.00
