frequency,raw,error,smoothed,error_smoothed,equalization,parametric_eq,fixed_band_eq,equalized_raw,equalized_smoothed,target
20.00,-0.21,-5.06,-0.21,-5.08,5.08,4.77,1.13,4.88,4.87,4.85
20.20,-0.14,-4.99,-0.14,-5.01,5.01,4.73,1.17,4.87,4.87,4.85
20.40,-0.08,-4.93,-0.07,-4.93,4.93,4.69,1.21,4.85,4.86,4.85
20.61,-0.01,-4.86,-0.00,-4.85,4.85,4.65,1.25,4.84,4.85,4.85
20.81,0.06,-4.79,0.06,-4.77,4.77,4.60,1.29,4.84,4.84,4.85
21.02,0.12,-4.73,0.13,-4.70,4.70,4.56,1.33,4.82,4.83,4.85
21.23,0.20,-4.63,0.20,-4.62,4.62,4.51,1.37,4.82,4.81,4.83
21.44,0.26,-4.56,0.26,-4.54,4.54,4.47,1.42,4.80,4.80,4.82
21.66,0.32,-4.48,0.32,-4.46,4.46,4.42,1.46,4.79,4.79,4.80
21.87,0.39,-4.38,0.38,-4.39,4.39,4.37,1.51,4.78,4.77,4.78
22.09,0.45,-4.31,0.44,-4.31,4.31,4.31,1.56,4.76,4.76,4.77
22.31,0.51,-4.22,0.50,-4.23,4.23,4.26,1.61,4.75,4.74,4.74
22.54,0.56,-4.15,0.56,-4.15,4.15,4.21,1.66,4.72,4.72,4.72
22.76,0.62,-4.07,0.62,-4.07,4.07,4.15,1.71,4.70,4.69,4.70
22.99,0.67,-3.99,0.67,-4.00,4.00,4.10,1.77,4.67,4.67,4.66
23.22,0.72,-3.91,0.73,-3.92,3.92,4.04,1.82,4.64,4.65,4.63
23.45,0.78,-3.83,0.78,-3.84,3.84,3.98,1.88,4.63,4.63,4.61
23.69,0.83,-3.77,0.84,-3.77,3.77,3.92,1.93,4.60,4.61,4.60
23.92,0.89,-3.69,0.89,-3.70,3.70,3.86,1.99,4.59,4.59,4.58
24.16,0.94,-3.63,0.94,-3.62,3.62,3.79,2.05,4.56,4.57,4.57
24.40,0.99,-3.56,1.00,-3.55,3.55,3.73,2.11,4.54,4.55,4.55
24.65,1.04,-3.49,1.05,-3.48,3.48,3.67,2.17,4.52,4.53,4.53
24.89,1.10,-3.40,1.10,-3.41,3.41,3.60,2.23,4.51,4.51,4.51
25.14,1.15,-3.34,1.15,-3.34,3.34,3.54,2.28,4.49,4.49,4.50
25.39,1.21,-3.26,1.21,-3.27,3.27,3.47,2.34,4.48,4.48,4.48
25.65,1.26,-3.20,1.26,-3.20,3.20,3.40,2.40,4.46,4.46,4.46
25.91,1.31,-3.12,1.31,-3.13,3.13,3.33,2.46,4.44,4.44,4.43
26.16,1.36,-3.06,1.37,-3.06,3.06,3.26,2.52,4.42,4.43,4.42
26.43,1.42,-2.99,1.42,-2.99,2.99,3.19,2.57,4.41,4.41,4.41
26.69,1.47,-2.92,1.47,-2.92,2.92,3.12,2.63,4.40,4.39,4.39
26.96,1.52,-2.86,1.52,-2.85,2.85,3.04,2.68,4.38,4.38,4.38
27.23,1.58,-2.79,1.58,-2.79,2.79,2.97,2.73,4.37,4.36,4.37
27.50,1.62,-2.73,1.63,-2.72,2.72,2.90,2.77,4.34,4.35,4.36
27.77,1.68,-2.65,1.68,-2.66,2.66,2.82,2.82,4.34,4.33,4.33
28.05,1.73,-2.59,1.73,-2.59,2.59,2.75,2.86,4.32,4.32,4.32
28.33,1.78,-2.52,1.78,-2.52,2.52,2.67,2.89,4.31,4.31,4.30
28.62,1.84,-2.45,1.83,-2.46,2.46,2.59,2.92,4.30,4.29,4.29
28.90,1.88,-2.40,1.89,-2.40,2.40,2.51,2.95,4.28,4.28,4.28
29.19,1.93,-2.32,1.94,-2.33,2.33,2.43,2.96,4.26,4.27,4.26
29.48,1.99,-2.26,1.99,-2.26,2.26,2.35,2.98,4.26,4.25,4.25
29.78,2.04,-2.20,2.04,-2.20,2.20,2.27,2.98,4.24,4.24,4.24
30.08,2.09,-2.14,2.10,-2.13,2.13,2.19,2.98,4.22,4.22,4.23
30.38,2.14,-2.07,2.15,-2.06,2.06,2.11,2.98,4.20,4.21,4.21
30.68,2.20,-1.99,2.20,-1.99,1.99,2.03,2.96,4.19,4.19,4.20
30.99,2.26,-1.91,2.26,-1.92,1.92,1.94,2.94,4.18,4.18,4.17
31.30,2.31,-1.85,2.31,-1.85,1.85,1.86,2.91,4.16,4.16,4.16
31.61,2.37,-1.78,2.37,-1.77,1.77,1.78,2.87,4.14,4.14,4.15
31.93,2.43,-1.69,2.43,-1.70,1.70,1.69,2.83,4.13,4.12,4.13
32.24,2.48,-1.61,2.49,-1.62,1.62,1.61,2.77,4.10,4.10,4.09
32.57,2.54,-1.54,2.54,-1.54,1.54,1.52,2.71,4.08,4.08,4.08
32.89,2.60,-1.46,2.60,-1.46,1.46,1.43,2.65,4.06,4.06,4.07
33.22,2.66,-1.37,2.66,-1.38,1.38,1.34,2.57,4.04,4.04,4.03
33.55,2.72,-1.30,2.72,-1.30,1.30,1.26,2.49,4.02,4.02,4.02
33.89,2.78,-1.22,2.78,-1.21,1.21,1.17,2.41,4.00,4.00,4.00
34.23,2.84,-1.13,2.84,-1.13,1.13,1.08,2.31,3.97,3.98,3.97
34.57,2.91,-1.04,2.91,-1.05,1.05,0.99,2.21,3.96,3.95,3.95
34.92,2.97,-0.96,2.97,-0.96,0.96,0.90,2.11,3.93,3.93,3.93
35.27,3.03,-0.88,3.03,-0.88,0.88,0.80,2.00,3.91,3.91,3.91
35.62,3.10,-0.79,3.10,-0.79,0.79,0.71,1.89,3.89,3.89,3.89
35.97,3.16,-0.70,3.17,-0.70,0.70,0.62,1.77,3.87,3.87,3.87
36.33,3.23,-0.62,3.23,-0.61,0.61,0.53,1.65,3.85,3.85,3.85
36.70,3.29,-0.54,3.30,-0.52,0.52,0.43,1.53,3.82,3.83,3.83
37.06,3.37,-0.43,3.37,-0.43,0.43,0.34,1.40,3.81,3.80,3.80
37.43,3.44,-0.34,3.44,-0.34,0.34,0.24,1.27,3.78,3.78,3.79
37.81,3.51,-0.25,3.51,-0.25,0.25,0.14,1.14,3.76,3.76,3.76
38.19,3.59,-0.15,3.59,-0.15,0.15,0.05,1.01,3.75,3.74,3.74
38.57,3.66,-0.06,3.66,-0.06,0.06,-0.05,0.87,3.72,3.72,3.72
38.95,3.73,0.04,3.74,0.04,-0.04,-0.15,0.74,3.69,3.70,3.70
39.34,3.81,0.14,3.81,0.14,-0.14,-0.25,0.60,3.68,3.68,3.67
39.74,3.89,0.25,3.89,0.23,-0.23,-0.35,0.46,3.66,3.66,3.65
40.14,3.96,0.32,3.97,0.33,-0.33,-0.45,0.32,3.63,3.64,3.64
40.54,4.04,0.43,4.05,0.43,-0.43,-0.55,0.17,3.61,3.62,3.61
40.94,4.13,0.54,4.13,0.53,-0.53,-0.65,0.03,3.60,3.60,3.60
41.35,4.21,0.64,4.21,0.63,-0.63,-0.75,-0.11,3.58,3.58,3.57
41.76,4.30,0.74,4.30,0.74,-0.74,-0.85,-0.26,3.56,3.56,3.56
42.18,4.38,0.84,4.38,0.85,-0.85,-0.96,-0.40,3.54,3.54,3.54
42.60,4.47,0.96,4.47,0.95,-0.95,-1.06,-0.55,3.52,3.52,3.52
43.03,4.55,1.04,4.56,1.06,-1.06,-1.16,-0.70,3.49,3.49,3.51
43.46,4.64,1.16,4.65,1.18,-1.18,-1.27,-0.85,3.47,3.47,3.48
43.90,4.74,1.29,4.74,1.29,-1.29,-1.38,-1.00,3.45,3.46,3.45
44.33,4.84,1.41,4.84,1.40,-1.40,-1.48,-1.15,3.44,3.44,3.43
44.78,4.93,1.52,4.94,1.52,-1.52,-1.59,-1.30,3.41,3.42,3.41
45.23,5.03,1.65,5.04,1.64,-1.64,-1.70,-1.45,3.39,3.39,3.38
45.68,5.13,1.77,5.14,1.77,-1.77,-1.80,-1.60,3.37,3.37,3.36
46.13,5.24,1.90,5.24,1.89,-1.89,-1.91,-1.75,3.35,3.35,3.34
46.60,5.35,2.02,5.35,2.02,-2.02,-2.02,-1.91,3.33,3.33,3.33
47.06,5.45,2.14,5.45,2.15,-2.15,-2.13,-2.06,3.30,3.30,3.31
47.53,5.56,2.27,5.56,2.28,-2.28,-2.24,-2.22,3.28,3.28,3.29
48.01,5.67,2.40,5.67,2.41,-2.41,-2.35,-2.37,3.26,3.26,3.28
48.49,5.78,2.54,5.78,2.55,-2.55,-2.46,-2.53,3.23,3.23,3.24
48.97,5.89,2.68,5.90,2.68,-2.68,-2.57,-2.68,3.21,3.21,3.21
49.46,6.00,2.83,6.01,2.82,-2.82,-2.68,-2.84,3.18,3.19,3.18
49.96,6.12,2.98,6.13,2.96,-2.96,-2.79,-3.00,3.16,3.16,3.14
50.46,6.24,3.10,6.24,3.10,-3.10,-2.91,-3.15,3.14,3.14,3.14
50.96,6.35,3.24,6.36,3.25,-3.25,-3.02,-3.31,3.11,3.11,3.11
51.47,6.47,3.39,6.48,3.39,-3.39,-3.13,-3.47,3.08,3.08,3.08
51.99,6.59,3.54,6.59,3.54,-3.54,-3.24,-3.62,3.06,3.06,3.05
52.51,6.70,3.66,6.71,3.68,-3.68,-3.35,-3.78,3.02,3.03,3.04
53.03,6.82,3.81,6.83,3.82,-3.82,-3.47,-3.93,3.00,3.00,3.01
53.56,6.94,3.96,6.94,3.97,-3.97,-3.58,-4.08,2.98,2.98,2.98
54.10,7.06,4.11,7.06,4.10,-4.10,-3.69,-4.23,2.96,2.95,2.95
54.64,7.16,4.24,7.17,4.24,-4.24,-3.80,-4.38,2.92,2.92,2.92
55.18,7.27,4.38,7.27,4.38,-4.38,-3.91,-4.52,2.90,2.90,2.90
55.74,7.38,4.52,7.38,4.51,-4.51,-4.02,-4.66,2.88,2.87,2.86
56.29,7.47,4.63,7.48,4.63,-4.63,-4.13,-4.80,2.84,2.84,2.84
56.86,7.57,4.76,7.57,4.75,-4.75,-4.24,-4.93,2.82,2.81,2.81
57.42,7.66,4.88,7.66,4.87,-4.87,-4.35,-5.05,2.79,2.79,2.78
58.00,7.74,4.98,7.74,4.98,-4.98,-4.45,-5.18,2.76,2.76,2.76
58.58,7.82,5.10,7.81,5.09,-5.09,-4.56,-5.29,2.73,2.73,2.72
59.16,7.89,5.19,7.88,5.19,-5.19,-4.66,-5.40,2.71,2.70,2.70
59.76,7.94,5.27,7.94,5.28,-5.28,-4.77,-5.50,2.67,2.67,2.67
60.35,8.00,5.36,7.99,5.36,-5.36,-4.87,-5.59,2.64,2.63,2.64
60.96,8.04,5.42,8.04,5.43,-5.43,-4.97,-5.68,2.61,2.60,2.62
61.57,8.08,5.51,8.07,5.50,-5.50,-5.07,-5.76,2.58,2.57,2.57
62.18,8.11,5.58,8.11,5.56,-5.56,-5.17,-5.83,2.55,2.54,2.54
62.80,8.13,5.63,8.13,5.62,-5.62,-5.26,-5.89,2.51,2.51,2.51
63.43,8.15,5.69,8.14,5.66,-5.66,-5.35,-5.95,2.49,2.48,2.47
64.07,8.15,5.72,8.15,5.71,-5.71,-5.44,-6.00,2.45,2.45,2.44
64.71,8.16,5.75,8.16,5.74,-5.74,-5.53,-6.04,2.42,2.42,2.41
65.35,8.15,5.77,8.16,5.77,-5.77,-5.62,-6.07,2.38,2.39,2.38
66.01,8.14,5.79,8.15,5.80,-5.80,-5.70,-6.10,2.35,2.35,2.36
66.67,8.14,5.82,8.14,5.82,-5.82,-5.78,-6.12,2.32,2.32,2.32
67.33,8.13,5.83,8.13,5.84,-5.84,-5.86,-6.14,2.30,2.29,2.30
68.01,8.11,5.85,8.12,5.85,-5.85,-5.94,-6.15,2.26,2.26,2.26
68.69,8.10,5.87,8.10,5.87,-5.87,-6.01,-6.15,2.23,2.23,2.23
69.37,8.07,5.88,8.08,5.88,-5.88,-6.08,-6.15,2.19,2.20,2.20
70.07,8.06,5.90,8.06,5.90,-5.90,-6.15,-6.15,2.16,2.17,2.17
70.77,8.04,5.91,8.05,5.92,-5.92,-6.21,-6.15,2.13,2.13,2.14
71.48,8.02,5.93,8.03,5.93,-5.93,-6.27,-6.14,2.09,2.09,2.09
72.19,8.00,5.94,8.01,5.95,-5.95,-6.33,-6.13,2.05,2.06,2.06
72.91,7.99,5.97,7.99,5.97,-5.97,-6.38,-6.12,2.02,2.02,2.02
73.64,7.97,6.00,7.97,6.00,-6.00,-6.44,-6.12,1.98,1.98,1.97
74.38,7.95,6.01,7.96,6.02,-6.02,-6.48,-6.11,1.93,1.94,1.94
75.12,7.94,6.06,7.94,6.05,-6.05,-6.53,-6.10,1.90,1.89,1.88
75.87,7.92,6.08,7.93,6.08,-6.08,-6.57,-6.09,1.85,1.85,1.85
76.63,7.91,6.10,7.91,6.11,-6.11,-6.61,-6.09,1.80,1.80,1.81
77.40,7.89,6.13,7.90,6.14,-6.14,-6.65,-6.09,1.75,1.76,1.76
78.17,7.88,6.18,7.89,6.18,-6.18,-6.69,-6.09,1.70,1.71,1.70
78.95,7.88,6.21,7.88,6.22,-6.22,-6.72,-6.09,1.67,1.66,1.67
79.74,7.86,6.25,7.87,6.26,-6.26,-6.75,-6.10,1.61,1.61,1.62
80.54,7.85,6.29,7.86,6.30,-6.30,-6.77,-6.10,1.55,1.56,1.56
81.35,7.85,6.34,7.85,6.34,-6.34,-6.80,-6.12,1.51,1.51,1.51
82.16,7.85,6.40,7.84,6.39,-6.39,-6.82,-6.13,1.47,1.46,1.46
82.98,7.84,6.43,7.84,6.43,-6.43,-6.85,-6.15,1.41,1.40,1.41
83.81,7.83,6.49,7.83,6.48,-6.48,-6.87,-6.18,1.35,1.35,1.34
84.65,7.82,6.54,7.82,6.53,-6.53,-6.89,-6.21,1.29,1.29,1.29
85.50,7.82,6.58,7.82,6.58,-6.58,-6.90,-6.24,1.24,1.23,1.24
86.35,7.81,6.63,7.81,6.63,-6.63,-6.92,-6.28,1.18,1.18,1.18
87.22,7.80,6.68,7.81,6.69,-6.69,-6.94,-6.33,1.12,1.12,1.12
88.09,7.80,6.74,7.80,6.74,-6.74,-6.95,-6.37,1.06,1.06,1.06
88.97,7.79,6.79,7.80,6.79,-6.79,-6.97,-6.43,1.00,1.00,1.01
89.86,7.79,6.85,7.79,6.85,-6.85,-6.98,-6.48,0.95,0.94,0.95
90.76,7.78,6.91,7.78,6.90,-6.90,-6.99,-6.55,0.88,0.88,0.87
91.66,7.77,6.95,7.78,6.96,-6.96,-7.01,-6.61,0.82,0.82,0.82
92.58,7.77,7.03,7.77,7.01,-7.01,-7.02,-6.69,0.76,0.76,0.75
93.51,7.76,7.06,7.77,7.07,-7.07,-7.04,-6.76,0.69,0.69,0.70
94.44,7.76,7.13,7.76,7.13,-7.13,-7.05,-6.84,0.63,0.63,0.64
95.39,7.75,7.18,7.75,7.19,-7.19,-7.07,-6.93,0.56,0.56,0.57
96.34,7.74,7.25,7.74,7.25,-7.25,-7.09,-7.02,0.50,0.50,0.50
97.30,7.73,7.30,7.73,7.31,-7.31,-7.11,-7.12,0.43,0.43,0.43
98.28,7.72,7.36,7.72,7.36,-7.36,-7.13,-7.21,0.36,0.36,0.36
99.26,7.71,7.43,7.71,7.42,-7.42,-7.15,-7.32,0.29,0.29,0.29
100.25,7.70,7.48,7.70,7.48,-7.48,-7.17,-7.42,0.22,0.22,0.22
101.25,7.69,7.54,7.69,7.54,-7.54,-7.19,-7.53,0.15,0.15,0.15
102.27,7.67,7.60,7.67,7.60,-7.60,-7.22,-7.64,0.08,0.08,0.07
103.29,7.65,7.66,7.66,7.65,-7.65,-7.25,-7.76,0.00,0.00,-0.00
104.32,7.64,7.71,7.64,7.71,-7.71,-7.28,-7.87,-0.07,-0.07,-0.07
105.37,7.62,7.76,7.62,7.76,-7.76,-7.31,-7.99,-0.14,-0.14,-0.14
106.42,7.59,7.81,7.60,7.82,-7.82,-7.34,-8.11,-0.22,-0.22,-0.22
107.48,7.57,7.87,7.57,7.87,-7.87,-7.38,-8.22,-0.30,-0.30,-0.29
108.56,7.54,7.91,7.55,7.92,-7.92,-7.41,-8.34,-0.38,-0.37,-0.37
109.64,7.52,7.97,7.52,7.97,-7.97,-7.45,-8.45,-0.45,-0.45,-0.45
110.74,7.49,8.01,7.49,8.01,-8.01,-7.50,-8.56,-0.52,-0.53,-0.52
111.85,7.45,8.05,7.45,8.06,-8.06,-7.54,-8.67,-0.61,-0.60,-0.59
112.97,7.42,8.11,7.42,8.10,-8.10,-7.59,-8.77,-0.68,-0.68,-0.69
114.10,7.38,8.14,7.38,8.14,-8.14,-7.63,-8.87,-0.76,-0.76,-0.76
115.24,7.34,8.18,7.34,8.18,-8.18,-7.68,-8.96,-0.83,-0.83,-0.83
116.39,7.30,8.22,7.30,8.21,-8.21,-7.73,-9.04,-0.91,-0.91,-0.92
117.55,7.25,8.25,7.25,8.24,-8.24,-7.79,-9.11,-0.99,-0.99,-0.99
118.73,7.20,8.27,7.21,8.27,-8.27,-7.84,-9.17,-1.06,-1.06,-1.07
119.92,7.15,8.29,7.16,8.29,-8.29,-7.90,-9.22,-1.14,-1.14,-1.13
121.12,7.10,8.31,7.10,8.31,-8.31,-7.95,-9.26,-1.21,-1.21,-1.21
122.33,7.05,8.33,7.05,8.33,-8.33,-8.01,-9.29,-1.28,-1.28,-1.28
123.55,6.99,8.34,6.99,8.34,-8.34,-8.07,-9.30,-1.35,-1.35,-1.34
124.79,6.93,8.35,6.93,8.35,-8.35,-8.12,-9.30,-1.42,-1.42,-1.42
126.03,6.87,8.35,6.87,8.36,-8.36,-8.18,-9.28,-1.49,-1.49,-1.48
127.29,6.80,8.35,6.81,8.36,-8.36,-8.23,-9.25,-1.56,-1.55,-1.55
128.57,6.74,8.37,6.74,8.36,-8.36,-8.28,-9.21,-1.62,-1.62,-1.63
129.85,6.67,8.36,6.67,8.35,-8.35,-8.34,-9.16,-1.68,-1.68,-1.69
131.15,6.60,8.35,6.60,8.34,-8.34,-8.38,-9.09,-1.74,-1.74,-1.75
132.46,6.53,8.35,6.53,8.33,-8.33,-8.43,-9.01,-1.80,-1.80,-1.81
133.79,6.45,8.31,6.45,8.31,-8.31,-8.47,-8.92,-1.86,-1.86,-1.86
135.12,6.37,8.30,6.37,8.29,-8.29,-8.51,-8.82,-1.92,-1.92,-1.93
136.48,6.29,8.26,6.29,8.26,-8.26,-8.54,-8.71,-1.97,-1.97,-1.97
137.84,6.21,8.23,6.21,8.23,-8.23,-8.56,-8.60,-2.02,-2.02,-2.01
139.22,6.13,8.21,6.13,8.20,-8.20,-8.58,-8.47,-2.07,-2.07,-2.08
140.61,6.04,8.17,6.05,8.16,-8.16,-8.59,-8.34,-2.12,-2.11,-2.13
142.02,5.96,8.11,5.96,8.12,-8.12,-8.60,-8.21,-2.16,-2.16,-2.15
143.44,5.87,8.06,5.88,8.07,-8.07,-8.60,-8.08,-2.20,-2.20,-2.19
144.87,5.78,8.02,5.79,8.03,-8.03,-8.58,-7.94,-2.24,-2.24,-2.24
146.32,5.70,7.98,5.70,7.97,-7.97,-8.56,-7.80,-2.27,-2.28,-2.28
147.78,5.61,7.92,5.61,7.92,-7.92,-8.54,-7.65,-2.31,-2.31,-2.31
149.26,5.52,7.86,5.52,7.87,-7.87,-8.50,-7.51,-2.35,-2.35,-2.34
150.75,5.42,7.81,5.42,7.81,-7.81,-8.45,-7.37,-2.39,-2.39,-2.39
152.26,5.33,7.75,5.33,7.75,-7.75,-8.40,-7.23,-2.42,-2.42,-2.42
153.78,5.23,7.69,5.24,7.69,-7.69,-8.33,-7.09,-2.46,-2.46,-2.46
155.32,5.14,7.63,5.14,7.63,-7.63,-8.26,-6.96,-2.49,-2.49,-2.49
156.88,5.04,7.56,5.04,7.57,-7.57,-8.18,-6.82,-2.52,-2.53,-2.52
158.44,4.94,7.50,4.94,7.50,-7.50,-8.09,-6.69,-2.56,-2.56,-2.56
160.03,4.84,7.44,4.84,7.44,-7.44,-7.99,-6.56,-2.59,-2.59,-2.60
161.63,4.73,7.37,4.74,7.37,-7.37,-7.89,-6.44,-2.64,-2.63,-2.64
163.24,4.64,7.31,4.64,7.30,-7.30,-7.78,-6.32,-2.66,-2.66,-2.67
164.88,4.54,7.24,4.54,7.24,-7.24,-7.67,-6.20,-2.69,-2.70,-2.69
166.53,4.44,7.17,4.44,7.17,-7.17,-7.55,-6.08,-2.73,-2.73,-2.73
168.19,4.33,7.11,4.33,7.10,-7.10,-7.42,-5.97,-2.77,-2.77,-2.77
169.87,4.22,7.03,4.23,7.04,-7.04,-7.29,-5.87,-2.81,-2.81,-2.81
171.57,4.12,6.96,4.13,6.97,-6.97,-7.16,-5.77,-2.85,-2.84,-2.84
173.29,4.02,6.89,4.02,6.91,-6.91,-7.03,-5.67,-2.88,-2.88,-2.87
175.02,3.92,6.84,3.92,6.84,-6.84,-6.89,-5.57,-2.92,-2.92,-2.91
176.77,3.81,6.78,3.82,6.78,-6.78,-6.75,-5.49,-2.97,-2.96,-2.96
178.54,3.71,6.72,3.71,6.71,-6.71,-6.61,-5.40,-3.00,-3.00,-3.00
180.32,3.61,6.65,3.61,6.65,-6.65,-6.47,-5.32,-3.04,-3.04,-3.04
182.13,3.50,6.58,3.50,6.59,-6.59,-6.33,-5.24,-3.08,-3.08,-3.08
183.95,3.39,6.52,3.40,6.52,-6.52,-6.19,-5.17,-3.13,-3.12,-3.13
185.79,3.30,6.46,3.30,6.46,-6.46,-6.05,-5.10,-3.16,-3.16,-3.16
187.65,3.20,6.41,3.20,6.39,-6.39,-5.91,-5.03,-3.19,-3.20,-3.21
189.52,3.08,6.32,3.09,6.33,-6.33,-5.77,-4.97,-3.25,-3.24,-3.24
191.42,2.99,6.27,2.99,6.26,-6.26,-5.63,-4.91,-3.27,-3.27,-3.28
193.33,2.89,6.19,2.89,6.19,-6.19,-5.50,-4.86,-3.30,-3.31,-3.30
195.27,2.79,6.12,2.79,6.13,-6.13,-5.36,-4.81,-3.33,-3.34,-3.33
197.22,2.68,6.05,2.68,6.05,-6.05,-5.23,-4.76,-3.37,-3.37,-3.36
199.19,2.58,6.00,2.58,5.98,-5.98,-5.10,-4.71,-3.40,-3.40,-3.41
201.18,2.48,5.92,2.48,5.91,-5.91,-4.97,-4.67,-3.43,-3.43,-3.43
203.19,2.37,5.83,2.38,5.84,-5.84,-4.84,-4.63,-3.46,-3.46,-3.45
205.23,2.27,5.76,2.28,5.76,-5.76,-4.72,-4.59,-3.49,-3.48,-3.48
207.28,2.18,5.67,2.18,5.69,-5.69,-4.59,-4.55,-3.50,-3.51,-3.49
209.35,2.08,5.61,2.08,5.61,-5.61,-4.47,-4.52,-3.53,-3.53,-3.53
211.44,1.98,5.54,1.98,5.53,-5.53,-4.35,-4.48,-3.55,-3.55,-3.56
213.56,1.88,5.46,1.88,5.45,-5.45,-4.24,-4.45,-3.57,-3.57,-3.57
215.69,1.78,5.36,1.79,5.37,-5.37,-4.13,-4.42,-3.59,-3.59,-3.58
217.85,1.68,5.28,1.69,5.29,-5.29,-4.01,-4.39,-3.61,-3.60,-3.59
220.03,1.59,5.21,1.59,5.21,-5.21,-3.90,-4.36,-3.61,-3.61,-3.62
222.23,1.50,5.14,1.50,5.12,-5.12,-3.80,-4.33,-3.62,-3.62,-3.63
224.45,1.40,5.03,1.40,5.03,-5.03,-3.69,-4.30,-3.63,-3.63,-3.63
226.70,1.30,4.94,1.30,4.94,-4.94,-3.59,-4.27,-3.64,-3.64,-3.64
228.96,1.21,4.86,1.21,4.85,-4.85,-3.49,-4.23,-3.64,-3.64,-3.65
231.25,1.11,4.75,1.11,4.75,-4.75,-3.39,-4.20,-3.64,-3.64,-3.64
233.57,1.02,4.65,1.02,4.65,-4.65,-3.30,-4.16,-3.63,-3.64,-3.63
235.90,0.92,4.55,0.92,4.55,-4.55,-3.20,-4.13,-3.63,-3.63,-3.63
238.26,0.83,4.47,0.83,4.45,-4.45,-3.11,-4.09,-3.62,-3.62,-3.63
240.64,0.73,4.35,0.74,4.35,-4.35,-3.02,-4.05,-3.62,-3.61,-3.61
243.05,0.64,4.25,0.64,4.25,-4.25,-2.93,-4.00,-3.60,-3.60,-3.60
245.48,0.54,4.13,0.55,4.14,-4.14,-2.84,-3.95,-3.60,-3.59,-3.58
247.93,0.45,4.03,0.46,4.03,-4.03,-2.76,-3.90,-3.58,-3.57,-3.57
250.41,0.37,3.94,0.37,3.93,-3.93,-2.67,-3.85,-3.56,-3.56,-3.56
252.92,0.28,3.82,0.29,3.82,-3.82,-2.59,-3.79,-3.54,-3.54,-3.53
255.45,0.19,3.70,0.20,3.72,-3.72,-2.51,-3.73,-3.52,-3.52,-3.51
258.00,0.11,3.60,0.11,3.61,-3.61,-2.43,-3.67,-3.50,-3.50,-3.49
260.58,0.03,3.51,0.02,3.50,-3.50,-2.35,-3.60,-3.47,-3.48,-3.48
263.19,-0.07,3.39,-0.06,3.39,-3.39,-2.27,-3.53,-3.46,-3.45,-3.46
265.82,-0.15,3.29,-0.15,3.28,-3.28,-2.19,-3.46,-3.43,-3.43,-3.43
268.48,-0.24,3.17,-0.23,3.18,-3.18,-2.12,-3.38,-3.41,-3.41,-3.41
271.16,-0.32,3.06,-0.32,3.07,-3.07,-2.04,-3.31,-3.38,-3.39,-3.38
273.87,-0.41,2.96,-0.41,2.96,-2.96,-1.97,-3.23,-3.36,-3.36,-3.37
276.61,-0.50,2.83,-0.50,2.84,-2.84,-1.89,-3.14,-3.34,-3.34,-3.33
279.38,-0.59,2.73,-0.59,2.73,-2.73,-1.82,-3.06,-3.31,-3.32,-3.32
282.17,-0.69,2.61,-0.68,2.61,-2.61,-1.75,-2.97,-3.30,-3.29,-3.29
284.99,-0.78,2.49,-0.78,2.49,-2.49,-1.67,-2.89,-3.27,-3.27,-3.27
287.84,-0.88,2.37,-0.88,2.36,-2.36,-1.60,-2.80,-3.24,-3.24,-3.25
290.72,-0.98,2.23,-0.98,2.23,-2.23,-1.53,-2.71,-3.21,-3.21,-3.21
293.63,-1.08,2.12,-1.08,2.10,-2.10,-1.46,-2.61,-3.18,-3.19,-3.20
296.57,-1.19,1.97,-1.19,1.97,-1.97,-1.38,-2.52,-3.16,-3.16,-3.16
299.53,-1.30,1.84,-1.30,1.83,-1.83,-1.31,-2.43,-3.13,-3.13,-3.14
302.53,-1.41,1.70,-1.41,1.69,-1.69,-1.24,-2.34,-3.10,-3.10,-3.11
305.55,-1.53,1.54,-1.53,1.54,-1.54,-1.16,-2.24,-3.07,-3.07,-3.06
308.61,-1.64,1.40,-1.65,1.39,-1.39,-1.09,-2.15,-3.03,-3.04,-3.04
311.69,-1.76,1.25,-1.77,1.24,-1.24,-1.01,-2.06,-3.00,-3.01,-3.00
314.81,-1.89,1.08,-1.89,1.08,-1.08,-0.93,-1.96,-2.97,-2.98,-2.97
317.96,-2.02,0.92,-2.02,0.93,-0.93,-0.85,-1.87,-2.94,-2.95,-2.94
321.14,-2.14,0.78,-2.15,0.77,-0.77,-0.77,-1.78,-2.91,-2.92,-2.91
324.35,-2.28,0.61,-2.28,0.61,-0.61,-0.69,-1.68,-2.89,-2.89,-2.89
327.59,-2.41,0.44,-2.41,0.45,-0.45,-0.60,-1.59,-2.86,-2.86,-2.85
330.87,-2.55,0.28,-2.54,0.29,-0.29,-0.52,-1.50,-2.84,-2.83,-2.83
334.18,-2.68,0.13,-2.67,0.13,-0.13,-0.43,-1.41,-2.81,-2.80,-2.81
337.52,-2.81,-0.03,-2.81,-0.03,0.03,-0.33,-1.32,-2.78,-2.78,-2.78
340.90,-2.94,-0.18,-2.94,-0.18,0.18,-0.24,-1.23,-2.75,-2.76,-2.75
344.30,-3.08,-0.34,-3.08,-0.34,0.34,-0.14,-1.14,-2.74,-2.74,-2.74
347.75,-3.21,-0.50,-3.21,-0.50,0.50,-0.03,-1.05,-2.71,-2.72,-2.71
351.23,-3.33,-0.63,-3.34,-0.65,0.65,0.07,-0.96,-2.68,-2.69,-2.69
354.74,-3.46,-0.78,-3.47,-0.80,0.80,0.18,-0.87,-2.66,-2.68,-2.67
358.28,-3.60,-0.94,-3.60,-0.95,0.95,0.30,-0.78,-2.65,-2.66,-2.66
361.87,-3.72,-1.08,-3.72,-1.09,1.09,0.42,-0.70,-2.63,-2.64,-2.64
365.49,-3.85,-1.24,-3.84,-1.23,1.23,0.54,-0.61,-2.62,-2.62,-2.61
369.14,-3.97,-1.36,-3.96,-1.36,1.36,0.67,-0.52,-2.61,-2.60,-2.60
372.83,-4.08,-1.49,-4.07,-1.49,1.49,0.81,-0.44,-2.59,-2.58,-2.59
376.56,-4.17,-1.60,-4.17,-1.61,1.61,0.95,-0.36,-2.56,-2.56,-2.57
380.33,-4.28,-1.74,-4.27,-1.72,1.72,1.09,-0.27,-2.55,-2.54,-2.54
384.13,-4.36,-1.84,-4.35,-1.83,1.83,1.23,-0.19,-2.53,-2.52,-2.52
387.97,-4.44,-1.93,-4.43,-1.93,1.93,1.38,-0.10,-2.51,-2.50,-2.50
391.85,-4.51,-2.02,-4.50,-2.02,2.02,1.53,-0.02,-2.49,-2.48,-2.49
395.77,-4.56,-2.10,-4.55,-2.09,2.09,1.68,0.06,-2.47,-2.46,-2.46
399.73,-4.60,-2.16,-4.60,-2.16,2.16,1.83,0.14,-2.44,-2.44,-2.44
403.72,-4.64,-2.22,-4.63,-2.22,2.22,1.98,0.22,-2.42,-2.42,-2.42
407.76,-4.67,-2.27,-4.66,-2.26,2.26,2.12,0.30,-2.41,-2.40,-2.40
411.84,-4.69,-2.31,-4.67,-2.29,2.29,2.25,0.37,-2.39,-2.38,-2.37
415.96,-4.68,-2.32,-4.67,-2.32,2.32,2.38,0.45,-2.36,-2.35,-2.35
420.12,-4.67,-2.33,-4.67,-2.33,2.33,2.48,0.52,-2.34,-2.33,-2.34
424.32,-4.66,-2.35,-4.65,-2.34,2.34,2.57,0.60,-2.32,-2.31,-2.31
428.56,-4.63,-2.34,-4.62,-2.33,2.33,2.64,0.67,-2.29,-2.29,-2.29
432.85,-4.59,-2.32,-4.59,-2.32,2.32,2.69,0.74,-2.27,-2.26,-2.27
437.18,-4.54,-2.30,-4.54,-2.30,2.30,2.72,0.80,-2.24,-2.24,-2.24
441.55,-4.49,-2.28,-4.49,-2.28,2.28,2.72,0.87,-2.21,-2.22,-2.21
445.96,-4.43,-2.24,-4.43,-2.24,2.24,2.69,0.93,-2.18,-2.19,-2.19
450.42,-4.36,-2.18,-4.37,-2.21,2.21,2.65,0.99,-2.15,-2.16,-2.17
454.93,-4.30,-2.16,-4.30,-2.16,2.16,2.58,1.04,-2.14,-2.14,-2.13
459.48,-4.22,-2.10,-4.22,-2.11,2.11,2.49,1.10,-2.10,-2.11,-2.11
464.07,-4.15,-2.06,-4.15,-2.06,2.06,2.38,1.14,-2.08,-2.08,-2.09
468.71,-4.06,-2.01,-4.06,-2.01,2.01,2.27,1.19,-2.05,-2.06,-2.05
473.40,-3.98,-1.95,-3.97,-1.94,1.94,2.14,1.23,-2.03,-2.03,-2.03
478.13,-3.88,-1.88,-3.88,-1.88,1.88,2.00,1.27,-2.00,-2.00,-2.00
482.91,-3.79,-1.82,-3.78,-1.81,1.81,1.86,1.30,-1.97,-1.97,-1.97
487.74,-3.68,-1.74,-3.68,-1.74,1.74,1.71,1.33,-1.94,-1.94,-1.94
492.62,-3.58,-1.67,-3.58,-1.66,1.66,1.57,1.35,-1.91,-1.91,-1.91
497.55,-3.47,-1.58,-3.47,-1.59,1.59,1.42,1.37,-1.88,-1.89,-1.89
502.52,-3.36,-1.51,-3.36,-1.50,1.50,1.28,1.39,-1.86,-1.86,-1.85
