frequency,raw,error,smoothed,error_smoothed,equalization,parametric_eq,fixed_band_eq,equalized_raw,equalized_smoothed,target
20.00,-7.27,-10.77,-7.28,-10.77,10.79,10.33,3.93,3.52,3.51,3.50
20.20,-7.24,-10.77,-7.23,-10.75,10.76,10.29,4.03,3.52,3.53,3.53
20.40,-7.18,-10.73,-7.17,-10.72,10.72,10.24,4.14,3.54,3.55,3.56
20.61,-7.10,-10.68,-7.11,-10.69,10.68,10.20,4.25,3.58,3.57,3.58
20.81,-7.03,-10.63,-7.03,-10.64,10.63,10.16,4.37,3.61,3.60,3.61
21.02,-6.97,-10.61,-6.96,-10.59,10.59,10.12,4.49,3.62,3.63,3.64
21.23,-6.89,-10.54,-6.90,-10.55,10.54,10.08,4.61,3.65,3.64,3.65
21.44,-6.84,-10.49,-6.83,-10.49,10.48,10.03,4.73,3.65,3.65,3.66
21.66,-6.76,-10.43,-6.75,-10.42,10.42,9.99,4.86,3.66,3.67,3.67
21.87,-6.68,-10.34,-6.68,-10.35,10.36,9.94,5.00,3.68,3.67,3.67
22.09,-6.61,-10.28,-6.61,-10.28,10.29,9.90,5.13,3.68,3.68,3.68
22.31,-6.55,-10.22,-6.54,-10.22,10.22,9.85,5.27,3.68,3.68,3.68
22.54,-6.48,-10.16,-6.48,-10.16,10.15,9.81,5.41,3.68,3.68,3.68
22.76,-6.42,-10.09,-6.41,-10.09,10.09,9.76,5.56,3.67,3.67,3.68
22.99,-6.34,-10.01,-6.35,-10.02,10.02,9.72,5.71,3.68,3.67,3.67
23.22,-6.29,-9.96,-6.28,-9.95,9.95,9.67,5.87,3.66,3.67,3.67
23.45,-6.21,-9.87,-6.21,-9.88,9.88,9.62,6.02,3.67,3.67,3.67
23.69,-6.14,-9.81,-6.14,-9.81,9.81,9.57,6.19,3.67,3.67,3.67
23.92,-6.08,-9.74,-6.07,-9.74,9.74,9.52,6.35,3.66,3.67,3.67
24.16,-6.00,-9.66,-6.01,-9.67,9.67,9.48,6.52,3.67,3.67,3.67
24.40,-5.95,-9.61,-5.94,-9.60,9.60,9.43,6.69,3.66,3.67,3.67
24.65,-5.87,-9.53,-5.87,-9.53,9.54,9.38,6.87,3.67,3.66,3.66
24.89,-5.81,-9.46,-5.81,-9.47,9.47,9.33,7.05,3.66,3.66,3.66
25.14,-5.75,-9.40,-5.74,-9.40,9.40,9.28,7.23,3.65,3.66,3.66
25.39,-5.68,-9.33,-5.68,-9.33,9.33,9.23,7.41,3.65,3.65,3.66
25.65,-5.60,-9.26,-5.61,-9.26,9.26,9.17,7.60,3.66,3.65,3.66
25.91,-5.55,-9.20,-5.54,-9.19,9.19,9.12,7.78,3.64,3.65,3.65
26.16,-5.47,-9.11,-5.47,-9.12,9.12,9.07,7.97,3.66,3.65,3.65
26.43,-5.40,-9.05,-5.40,-9.05,9.05,9.02,8.16,3.65,3.65,3.65
26.69,-5.34,-8.99,-5.33,-8.98,8.98,8.97,8.35,3.65,3.65,3.65
26.96,-5.27,-8.92,-5.27,-8.92,8.91,8.91,8.53,3.64,3.64,3.65
27.23,-5.21,-8.85,-5.21,-8.85,8.84,8.86,8.72,3.63,3.64,3.64
27.50,-5.14,-8.78,-5.14,-8.77,8.77,8.81,8.90,3.63,3.63,3.64
27.77,-5.08,-8.70,-5.07,-8.70,8.70,8.75,9.07,3.62,3.63,3.63
28.05,-5.00,-8.62,-5.00,-8.63,8.63,8.70,9.24,3.63,3.62,3.63
28.33,-4.94,-8.55,-4.93,-8.55,8.56,8.64,9.40,3.62,3.62,3.62
28.62,-4.87,-8.49,-4.87,-8.48,8.48,8.59,9.56,3.61,3.62,3.62
28.90,-4.79,-8.40,-4.80,-8.41,8.41,8.53,9.70,3.63,3.62,3.62
29.19,-4.74,-8.34,-4.73,-8.34,8.34,8.47,9.84,3.61,3.61,3.61
29.48,-4.66,-8.26,-4.67,-8.27,8.27,8.42,9.95,3.62,3.61,3.61
29.78,-4.61,-8.21,-4.61,-8.21,8.20,8.36,10.06,3.60,3.60,3.60
30.08,-4.55,-8.15,-4.54,-8.14,8.14,8.30,10.15,3.59,3.59,3.60
30.38,-4.48,-8.07,-4.49,-8.08,8.07,8.25,10.22,3.59,3.58,3.59
30.68,-4.42,-8.01,-4.42,-8.01,8.00,8.19,10.27,3.58,3.58,3.59
30.99,-4.37,-7.95,-4.36,-7.93,7.94,8.13,10.31,3.57,3.58,3.58
31.30,-4.29,-7.86,-4.29,-7.87,7.87,8.07,10.32,3.58,3.58,3.57
31.61,-4.23,-7.80,-4.24,-7.80,7.81,8.01,10.33,3.58,3.57,3.57
31.93,-4.19,-7.75,-4.18,-7.74,7.74,7.95,10.30,3.56,3.56,3.56
32.24,-4.14,-7.68,-4.14,-7.69,7.68,7.89,10.26,3.54,3.54,3.55
32.57,-4.09,-7.64,-4.08,-7.63,7.62,7.83,10.20,3.53,3.53,3.55
32.89,-4.03,-7.56,-4.02,-7.56,7.56,7.77,10.13,3.53,3.53,3.54
33.22,-3.96,-7.48,-3.96,-7.50,7.50,7.71,10.04,3.54,3.53,3.53
33.55,-3.91,-7.43,-3.91,-7.43,7.44,7.65,9.94,3.53,3.53,3.53
33.89,-3.86,-7.38,-3.86,-7.37,7.38,7.59,9.82,3.52,3.52,3.52
34.23,-3.81,-7.32,-3.81,-7.32,7.32,7.53,9.70,3.51,3.51,3.51
34.57,-3.76,-7.26,-3.76,-7.26,7.26,7.47,9.56,3.50,3.50,3.50
34.92,-3.71,-7.20,-3.71,-7.20,7.20,7.41,9.42,3.49,3.49,3.49
35.27,-3.67,-7.15,-3.66,-7.14,7.14,7.35,9.26,3.47,3.48,3.48
35.62,-3.62,-7.09,-3.62,-7.08,7.08,7.29,9.11,3.46,3.46,3.47
35.97,-3.56,-7.01,-3.56,-7.02,7.02,7.23,8.95,3.46,3.45,3.46
36.33,-3.52,-6.96,-3.51,-6.96,6.96,7.16,8.79,3.44,3.45,3.45
36.70,-3.46,-6.90,-3.46,-6.90,6.90,7.10,8.62,3.44,3.44,3.44
37.06,-3.41,-6.83,-3.41,-6.83,6.84,7.04,8.46,3.43,3.43,3.43
37.43,-3.36,-6.77,-3.35,-6.77,6.77,6.98,8.29,3.42,3.42,3.42
37.81,-3.30,-6.71,-3.30,-6.71,6.71,6.91,8.13,3.41,3.41,3.41
38.19,-3.26,-6.66,-3.26,-6.65,6.65,6.85,7.97,3.39,3.40,3.40
38.57,-3.21,-6.60,-3.20,-6.59,6.59,6.79,7.81,3.38,3.39,3.39
38.95,-3.16,-6.53,-3.16,-6.53,6.53,6.73,7.65,3.37,3.37,3.38
39.34,-3.10,-6.45,-3.11,-6.47,6.47,6.66,7.50,3.37,3.36,3.36
39.74,-3.07,-6.42,-3.06,-6.41,6.41,6.60,7.34,3.34,3.35,3.35
40.14,-3.01,-6.35,-3.01,-6.35,6.35,6.54,7.20,3.34,3.34,3.34
40.54,-2.96,-6.29,-2.96,-6.29,6.29,6.47,7.05,3.33,3.33,3.33
40.94,-2.91,-6.22,-2.91,-6.23,6.23,6.41,6.91,3.32,3.32,3.32
41.35,-2.87,-6.17,-2.86,-6.17,6.17,6.35,6.78,3.30,3.31,3.31
41.76,-2.81,-6.10,-2.81,-6.11,6.11,6.28,6.64,3.30,3.30,3.30
42.18,-2.77,-6.05,-2.77,-6.05,6.05,6.22,6.52,3.29,3.29,3.29
42.60,-2.72,-5.99,-2.72,-6.00,5.99,6.16,6.39,3.28,3.28,3.28
43.03,-2.68,-5.95,-2.68,-5.94,5.93,6.10,6.28,3.26,3.26,3.27
43.46,-2.63,-5.88,-2.63,-5.88,5.87,6.03,6.16,3.25,3.24,3.25
43.90,-2.60,-5.83,-2.59,-5.82,5.82,5.97,6.05,3.22,3.23,3.23
44.33,-2.54,-5.74,-2.54,-5.75,5.76,5.91,5.95,3.22,3.21,3.21
44.78,-2.51,-5.70,-2.50,-5.69,5.70,5.84,5.85,3.19,3.19,3.19
45.23,-2.46,-5.63,-2.46,-5.63,5.64,5.78,5.75,3.18,3.18,3.17
45.68,-2.43,-5.59,-2.43,-5.58,5.58,5.72,5.66,3.15,3.16,3.16
46.13,-2.39,-5.52,-2.39,-5.53,5.53,5.66,5.57,3.14,3.14,3.14
46.60,-2.35,-5.48,-2.35,-5.47,5.47,5.59,5.49,3.12,3.12,3.13
47.06,-2.31,-5.41,-2.31,-5.42,5.42,5.53,5.40,3.11,3.11,3.11
47.53,-2.28,-5.36,-2.27,-5.37,5.36,5.47,5.33,3.08,3.09,3.09
48.01,-2.23,-5.31,-2.24,-5.31,5.30,5.41,5.26,3.07,3.06,3.08
48.49,-2.21,-5.26,-2.20,-5.25,5.24,5.35,5.19,3.03,3.04,3.05
48.97,-2.16,-5.17,-2.16,-5.18,5.18,5.29,5.12,3.02,3.02,3.02
49.46,-2.13,-5.11,-2.13,-5.12,5.12,5.22,5.06,2.99,2.99,2.99
49.96,-2.10,-5.06,-2.09,-5.06,5.06,5.16,5.00,2.97,2.97,2.96
50.46,-2.07,-5.01,-2.07,-5.00,5.01,5.10,4.94,2.94,2.94,2.94
50.96,-2.04,-4.96,-2.04,-4.95,4.96,5.04,4.89,2.92,2.92,2.92
51.47,-2.02,-4.91,-2.02,-4.91,4.91,4.98,4.84,2.89,2.89,2.89
51.99,-2.00,-4.87,-2.00,-4.87,4.87,4.92,4.79,2.87,2.87,2.87
52.51,-1.98,-4.83,-1.98,-4.83,4.83,4.86,4.74,2.85,2.84,2.85
53.03,-1.98,-4.81,-1.97,-4.79,4.79,4.80,4.70,2.81,2.82,2.83
53.56,-1.95,-4.75,-1.95,-4.75,4.75,4.74,4.65,2.80,2.80,2.80
54.10,-1.93,-4.71,-1.94,-4.71,4.71,4.68,4.61,2.79,2.78,2.78
54.64,-1.93,-4.68,-1.93,-4.68,4.68,4.62,4.57,2.75,2.75,2.75
55.18,-1.93,-4.65,-1.92,-4.65,4.64,4.56,4.53,2.71,2.72,2.73
55.74,-1.92,-4.62,-1.91,-4.61,4.61,4.51,4.49,2.69,2.70,2.70
56.29,-1.88,-4.56,-1.90,-4.57,4.57,4.45,4.45,2.69,2.67,2.68
56.86,-1.88,-4.54,-1.88,-4.53,4.53,4.39,4.41,2.66,2.66,2.66
57.42,-1.88,-4.50,-1.86,-4.49,4.50,4.33,4.36,2.62,2.64,2.63
58.00,-1.84,-4.45,-1.85,-4.46,4.46,4.27,4.32,2.63,2.61,2.61
58.58,-1.84,-4.43,-1.84,-4.43,4.43,4.22,4.28,2.59,2.59,2.59
59.16,-1.84,-4.40,-1.82,-4.39,4.39,4.16,4.24,2.55,2.57,2.57
59.76,-1.81,-4.36,-1.81,-4.36,4.35,4.10,4.19,2.54,2.54,2.55
60.35,-1.79,-4.30,-1.80,-4.32,4.31,4.04,4.14,2.52,2.51,2.52
60.96,-1.79,-4.28,-1.79,-4.27,4.27,3.99,4.10,2.48,2.48,2.49
61.57,-1.79,-4.24,-1.78,-4.23,4.23,3.93,4.05,2.44,2.45,2.45
62.18,-1.77,-4.18,-1.76,-4.18,4.19,3.87,3.99,2.42,2.42,2.42
62.80,-1.74,-4.12,-1.75,-4.13,4.15,3.82,3.94,2.41,2.40,2.39
63.43,-1.74,-4.10,-1.74,-4.10,4.11,3.76,3.88,2.37,2.37,2.36
64.07,-1.74,-4.07,-1.73,-4.06,4.07,3.71,3.82,2.33,2.33,2.33
64.71,-1.74,-4.05,-1.73,-4.03,4.02,3.65,3.76,2.29,2.29,2.31
65.35,-1.70,-3.97,-1.71,-3.99,3.98,3.59,3.70,2.28,2.27,2.28
66.01,-1.70,-3.95,-1.69,-3.94,3.93,3.54,3.63,2.23,2.24,2.25
66.67,-1.65,-3.87,-1.66,-3.87,3.87,3.48,3.56,2.22,2.21,2.22
67.33,-1.63,-3.81,-1.62,-3.81,3.81,3.43,3.49,2.18,2.19,2.19
68.01,-1.58,-3.74,-1.58,-3.73,3.74,3.37,3.42,2.16,2.16,2.16
68.69,-1.53,-3.66,-1.53,-3.66,3.66,3.32,3.35,2.13,2.13,2.13
69.37,-1.49,-3.58,-1.48,-3.58,3.58,3.26,3.28,2.09,2.10,2.10
70.07,-1.44,-3.51,-1.43,-3.50,3.50,3.20,3.20,2.06,2.06,2.07
70.77,-1.38,-3.42,-1.38,-3.42,3.41,3.15,3.13,2.03,2.03,2.04
71.48,-1.32,-3.33,-1.32,-3.32,3.32,3.09,3.05,2.00,2.00,2.01
72.19,-1.26,-3.22,-1.26,-3.23,3.23,3.04,2.97,1.98,1.97,1.97
72.91,-1.21,-3.14,-1.21,-3.14,3.15,2.98,2.89,1.94,1.94,1.94
73.64,-1.17,-3.06,-1.16,-3.06,3.07,2.92,2.81,1.90,1.91,1.90
74.38,-1.11,-2.98,-1.12,-2.98,2.99,2.87,2.74,1.88,1.87,1.87
75.12,-1.08,-2.90,-1.07,-2.90,2.91,2.81,2.66,1.83,1.83,1.83
75.87,-1.04,-2.83,-1.03,-2.83,2.84,2.76,2.58,1.80,1.80,1.80
76.63,-1.00,-2.76,-1.00,-2.77,2.77,2.70,2.50,1.77,1.76,1.77
77.40,-0.97,-2.71,-0.97,-2.70,2.70,2.64,2.42,1.73,1.73,1.74
78.17,-0.95,-2.64,-0.93,-2.64,2.63,2.59,2.35,1.69,1.70,1.70
78.95,-0.90,-2.56,-0.91,-2.57,2.57,2.53,2.27,1.67,1.66,1.67
79.74,-0.87,-2.50,-0.87,-2.51,2.51,2.47,2.19,1.64,1.64,1.64
80.54,-0.86,-2.45,-0.85,-2.45,2.45,2.42,2.12,1.59,1.60,1.60
81.35,-0.81,-2.38,-0.82,-2.39,2.39,2.36,2.05,1.58,1.57,1.57
82.16,-0.81,-2.34,-0.80,-2.33,2.33,2.30,1.97,1.52,1.53,1.53
82.98,-0.76,-2.26,-0.77,-2.26,2.26,2.24,1.90,1.51,1.49,1.50
83.81,-0.76,-2.21,-0.75,-2.21,2.20,2.19,1.83,1.45,1.46,1.46
84.65,-0.72,-2.14,-0.72,-2.14,2.14,2.13,1.76,1.42,1.42,1.42
85.50,-0.70,-2.09,-0.70,-2.08,2.08,2.07,1.69,1.38,1.38,1.39
86.35,-0.67,-2.01,-0.67,-2.02,2.02,2.01,1.62,1.35,1.35,1.35
87.22,-0.64,-1.95,-0.64,-1.95,1.95,1.95,1.55,1.31,1.31,1.31
88.09,-0.63,-1.90,-0.62,-1.88,1.88,1.90,1.48,1.25,1.27,1.27
88.97,-0.58,-1.81,-0.59,-1.82,1.81,1.84,1.42,1.24,1.22,1.23
89.86,-0.57,-1.76,-0.56,-1.75,1.74,1.78,1.35,1.18,1.18,1.19
90.76,-0.53,-1.67,-0.53,-1.67,1.67,1.72,1.29,1.15,1.14,1.14
91.66,-0.51,-1.60,-0.51,-1.60,1.60,1.66,1.23,1.10,1.10,1.10
92.58,-0.49,-1.54,-0.48,-1.53,1.53,1.60,1.17,1.05,1.05,1.05
93.51,-0.45,-1.46,-0.46,-1.47,1.47,1.54,1.10,1.02,1.01,1.01
94.44,-0.44,-1.40,-0.43,-1.39,1.40,1.48,1.04,0.96,0.97,0.97
95.39,-0.41,-1.33,-0.41,-1.33,1.33,1.43,0.99,0.92,0.92,0.92
96.34,-0.39,-1.26,-0.39,-1.26,1.26,1.37,0.93,0.87,0.87,0.87
97.30,-0.39,-1.20,-0.38,-1.20,1.19,1.31,0.87,0.80,0.81,0.82
98.28,-0.35,-1.12,-0.36,-1.13,1.13,1.25,0.81,0.78,0.77,0.77
99.26,-0.35,-1.08,-0.33,-1.06,1.06,1.19,0.76,0.71,0.73,0.73
100.25,-0.30,-0.98,-0.31,-0.99,1.00,1.13,0.70,0.70,0.68,0.68
101.25,-0.30,-0.92,-0.30,-0.93,0.93,1.07,0.65,0.63,0.63,0.63
102.27,-0.30,-0.88,-0.29,-0.87,0.87,1.01,0.60,0.57,0.58,0.58
103.29,-0.30,-0.83,-0.28,-0.81,0.81,0.95,0.54,0.51,0.53,0.53
104.32,-0.25,-0.74,-0.26,-0.75,0.75,0.90,0.49,0.50,0.48,0.49
105.37,-0.25,-0.69,-0.25,-0.69,0.69,0.84,0.44,0.44,0.43,0.44
106.42,-0.25,-0.64,-0.24,-0.63,0.63,0.78,0.39,0.38,0.39,0.39
107.48,-0.25,-0.58,-0.23,-0.57,0.57,0.72,0.34,0.32,0.34,0.34
108.56,-0.21,-0.50,-0.22,-0.51,0.51,0.66,0.30,0.30,0.29,0.29
109.64,-0.21,-0.44,-0.21,-0.45,0.45,0.61,0.25,0.25,0.24,0.24
110.74,-0.21,-0.40,-0.20,-0.39,0.40,0.55,0.21,0.19,0.19,0.19
111.85,-0.21,-0.35,-0.21,-0.34,0.34,0.49,0.16,0.13,0.13,0.14
112.97,-0.21,-0.29,-0.21,-0.29,0.28,0.44,0.12,0.08,0.08,0.08
114.10,-0.21,-0.24,-0.21,-0.23,0.23,0.38,0.08,0.02,0.02,0.03
115.24,-0.21,-0.18,-0.21,-0.18,0.18,0.33,0.04,-0.03,-0.03,-0.03
116.39,-0.21,-0.13,-0.21,-0.12,0.12,0.27,-0.00,-0.08,-0.08,-0.08
117.55,-0.21,-0.07,-0.21,-0.07,0.07,0.22,-0.04,-0.14,-0.14,-0.14
118.73,-0.21,-0.02,-0.21,-0.02,0.02,0.16,-0.07,-0.19,-0.19,-0.19
119.92,-0.21,0.03,-0.21,0.04,-0.03,0.11,-0.11,-0.24,-0.24,-0.24
121.12,-0.21,0.08,-0.21,0.08,-0.09,0.06,-0.14,-0.29,-0.29,-0.29
122.33,-0.21,0.13,-0.21,0.13,-0.14,0.00,-0.17,-0.35,-0.35,-0.34
123.55,-0.21,0.18,-0.21,0.18,-0.19,-0.05,-0.20,-0.40,-0.40,-0.39
124.79,-0.21,0.23,-0.21,0.23,-0.24,-0.10,-0.23,-0.45,-0.45,-0.44
126.03,-0.21,0.28,-0.21,0.29,-0.29,-0.15,-0.25,-0.49,-0.49,-0.49
127.29,-0.21,0.34,-0.20,0.34,-0.33,-0.20,-0.28,-0.54,-0.54,-0.54
128.57,-0.21,0.39,-0.21,0.39,-0.38,-0.25,-0.30,-0.59,-0.59,-0.60
129.85,-0.21,0.44,-0.22,0.43,-0.43,-0.30,-0.32,-0.63,-0.65,-0.65
131.15,-0.25,0.45,-0.23,0.47,-0.47,-0.34,-0.34,-0.72,-0.71,-0.70
132.46,-0.25,0.50,-0.25,0.50,-0.51,-0.39,-0.36,-0.76,-0.76,-0.75
133.79,-0.25,0.54,-0.25,0.54,-0.55,-0.44,-0.38,-0.80,-0.81,-0.79
135.12,-0.25,0.59,-0.24,0.59,-0.59,-0.48,-0.40,-0.84,-0.84,-0.84
136.48,-0.25,0.63,-0.25,0.64,-0.63,-0.53,-0.42,-0.88,-0.88,-0.88
137.84,-0.25,0.68,-0.26,0.68,-0.66,-0.57,-0.43,-0.91,-0.92,-0.93
139.22,-0.28,0.70,-0.27,0.70,-0.70,-0.61,-0.45,-0.98,-0.97,-0.98
140.61,-0.30,0.72,-0.29,0.73,-0.74,-0.65,-0.46,-1.03,-1.03,-1.02
142.02,-0.30,0.75,-0.30,0.76,-0.77,-0.70,-0.47,-1.07,-1.07,-1.05
143.44,-0.30,0.79,-0.30,0.79,-0.80,-0.74,-0.48,-1.10,-1.10,-1.09
144.87,-0.30,0.83,-0.30,0.83,-0.83,-0.78,-0.50,-1.13,-1.13,-1.13
146.32,-0.30,0.87,-0.30,0.87,-0.87,-0.81,-0.51,-1.16,-1.16,-1.17
147.78,-0.30,0.90,-0.30,0.91,-0.90,-0.85,-0.52,-1.20,-1.19,-1.20
149.26,-0.30,0.94,-0.31,0.94,-0.93,-0.89,-0.53,-1.23,-1.24,-1.24
150.75,-0.32,0.96,-0.32,0.96,-0.96,-0.93,-0.54,-1.28,-1.28,-1.28
152.26,-0.35,0.97,-0.34,0.99,-1.00,-0.96,-0.56,-1.34,-1.33,-1.32
153.78,-0.35,1.01,-0.35,1.02,-1.03,-1.00,-0.57,-1.37,-1.37,-1.36
155.32,-0.35,1.05,-0.35,1.05,-1.06,-1.03,-0.58,-1.40,-1.40,-1.40
156.88,-0.35,1.09,-0.36,1.09,-1.08,-1.06,-0.59,-1.43,-1.44,-1.44
158.44,-0.37,1.11,-0.37,1.11,-1.11,-1.10,-0.60,-1.48,-1.48,-1.48
160.03,-0.39,1.13,-0.38,1.15,-1.14,-1.13,-0.62,-1.53,-1.52,-1.52
161.63,-0.39,1.17,-0.39,1.17,-1.17,-1.16,-0.63,-1.56,-1.56,-1.56
163.24,-0.39,1.21,-0.41,1.19,-1.19,-1.19,-0.64,-1.58,-1.60,-1.60
164.88,-0.44,1.19,-0.42,1.22,-1.22,-1.22,-0.66,-1.65,-1.63,-1.63
166.53,-0.44,1.23,-0.44,1.24,-1.24,-1.25,-0.67,-1.68,-1.68,-1.67
168.19,-0.44,1.27,-0.46,1.26,-1.26,-1.28,-0.69,-1.70,-1.72,-1.71
169.87,-0.48,1.27,-0.46,1.29,-1.28,-1.30,-0.70,-1.76,-1.75,-1.75
171.57,-0.49,1.30,-0.48,1.30,-1.31,-1.33,-0.72,-1.79,-1.79,-1.79
173.29,-0.49,1.33,-0.50,1.32,-1.33,-1.36,-0.74,-1.82,-1.83,-1.82
175.02,-0.53,1.33,-0.51,1.35,-1.35,-1.39,-0.76,-1.88,-1.86,-1.86
176.77,-0.53,1.37,-0.53,1.38,-1.37,-1.41,-0.78,-1.90,-1.90,-1.90
178.54,-0.53,1.41,-0.55,1.40,-1.40,-1.44,-0.80,-1.92,-1.94,-1.94
180.32,-0.57,1.41,-0.55,1.43,-1.42,-1.46,-0.82,-1.99,-1.97,-1.98
182.13,-0.58,1.43,-0.57,1.44,-1.44,-1.49,-0.84,-2.02,-2.01,-2.01
183.95,-0.58,1.47,-0.59,1.46,-1.46,-1.51,-0.86,-2.04,-2.06,-2.05
185.79,-0.62,1.46,-0.61,1.48,-1.48,-1.53,-0.88,-2.10,-2.09,-2.08
187.65,-0.63,1.49,-0.62,1.50,-1.50,-1.55,-0.90,-2.13,-2.12,-2.12
189.52,-0.63,1.52,-0.63,1.52,-1.52,-1.57,-0.93,-2.15,-2.16,-2.15
191.42,-0.63,1.55,-0.64,1.54,-1.54,-1.59,-0.95,-2.17,-2.18,-2.18
193.33,-0.67,1.54,-0.65,1.56,-1.56,-1.61,-0.98,-2.23,-2.22,-2.21
195.27,-0.67,1.57,-0.66,1.58,-1.58,-1.63,-1.00,-2.25,-2.24,-2.24
197.22,-0.67,1.60,-0.67,1.60,-1.60,-1.64,-1.03,-2.26,-2.27,-2.27
199.19,-0.67,1.63,-0.68,1.62,-1.61,-1.66,-1.05,-2.28,-2.29,-2.30
201.18,-0.72,1.60,-0.70,1.62,-1.62,-1.67,-1.08,-2.34,-2.32,-2.32
203.19,-0.72,1.62,-0.71,1.63,-1.63,-1.67,-1.11,-2.35,-2.34,-2.34
205.23,-0.72,1.64,-0.72,1.63,-1.64,-1.68,-1.13,-2.36,-2.37,-2.36
207.28,-0.72,1.65,-0.73,1.65,-1.65,-1.68,-1.16,-2.37,-2.38,-2.37
209.35,-0.76,1.63,-0.74,1.65,-1.65,-1.68,-1.19,-2.41,-2.40,-2.39
211.44,-0.76,1.65,-0.75,1.66,-1.65,-1.68,-1.21,-2.41,-2.40,-2.41
213.56,-0.76,1.66,-0.76,1.66,-1.65,-1.67,-1.24,-2.41,-2.42,-2.42
215.69,-0.76,1.66,-0.77,1.65,-1.65,-1.66,-1.26,-2.41,-2.42,-2.42
217.85,-0.81,1.62,-0.79,1.65,-1.64,-1.65,-1.29,-2.45,-2.43,-2.43
220.03,-0.81,1.63,-0.81,1.63,-1.64,-1.64,-1.31,-2.44,-2.44,-2.44
222.23,-0.81,1.64,-0.83,1.62,-1.63,-1.62,-1.33,-2.43,-2.46,-2.45
224.45,-0.86,1.59,-0.84,1.61,-1.61,-1.60,-1.35,-2.47,-2.45,-2.45
226.70,-0.86,1.59,-0.85,1.60,-1.60,-1.58,-1.37,-2.46,-2.45,-2.45
228.96,-0.86,1.59,-0.87,1.58,-1.59,-1.56,-1.39,-2.45,-2.46,-2.45
231.25,-0.87,1.57,-0.87,1.57,-1.57,-1.54,-1.41,-2.44,-2.45,-2.44
233.57,-0.90,1.54,-0.88,1.56,-1.55,-1.51,-1.42,-2.45,-2.44,-2.44
235.90,-0.90,1.54,-0.90,1.54,-1.54,-1.49,-1.44,-2.43,-2.44,-2.44
238.26,-0.90,1.53,-0.92,1.52,-1.51,-1.46,-1.45,-2.41,-2.43,-2.43
240.64,-0.95,1.47,-0.93,1.50,-1.49,-1.44,-1.45,-2.44,-2.42,-2.42
243.05,-0.95,1.46,-0.95,1.46,-1.47,-1.41,-1.46,-2.41,-2.41,-2.41
245.48,-0.95,1.45,-0.97,1.43,-1.44,-1.38,-1.46,-2.39,-2.41,-2.40
247.93,-1.00,1.39,-0.98,1.41,-1.41,-1.36,-1.46,-2.41,-2.39,-2.39
250.41,-1.00,1.38,-0.99,1.38,-1.39,-1.33,-1.46,-2.38,-2.38,-2.38
252.92,-1.00,1.36,-1.01,1.35,-1.36,-1.30,-1.46,-2.35,-2.37,-2.36
255.45,-1.02,1.32,-1.02,1.33,-1.33,-1.28,-1.45,-2.35,-2.35,-2.34
258.00,-1.04,1.29,-1.03,1.30,-1.30,-1.25,-1.44,-2.34,-2.32,-2.33
260.58,-1.04,1.27,-1.04,1.27,-1.27,-1.22,-1.43,-2.31,-2.31,-2.31
263.19,-1.04,1.25,-1.06,1.24,-1.24,-1.20,-1.42,-2.28,-2.29,-2.29
265.82,-1.09,1.18,-1.07,1.20,-1.20,-1.17,-1.40,-2.29,-2.28,-2.27
268.48,-1.09,1.16,-1.08,1.17,-1.17,-1.15,-1.38,-2.26,-2.25,-2.25
271.16,-1.09,1.14,-1.09,1.14,-1.14,-1.12,-1.36,-2.23,-2.23,-2.23
273.87,-1.09,1.12,-1.10,1.11,-1.11,-1.09,-1.34,-2.20,-2.21,-2.21
276.61,-1.12,1.07,-1.11,1.08,-1.08,-1.07,-1.31,-2.20,-2.19,-2.19
279.38,-1.14,1.03,-1.13,1.04,-1.05,-1.04,-1.29,-2.19,-2.18,-2.17
282.17,-1.14,1.01,-1.14,1.01,-1.02,-1.02,-1.26,-2.16,-2.16,-2.15
284.99,-1.14,0.99,-1.14,1.00,-0.99,-1.00,-1.23,-2.13,-2.13,-2.13
287.84,-1.14,0.97,-1.14,0.97,-0.97,-0.97,-1.20,-2.10,-2.10,-2.11
290.72,-1.14,0.95,-1.15,0.94,-0.94,-0.95,-1.17,-2.08,-2.09,-2.09
293.63,-1.17,0.90,-1.16,0.91,-0.91,-0.92,-1.14,-2.08,-2.07,-2.07
296.57,-1.18,0.87,-1.17,0.88,-0.89,-0.90,-1.11,-2.07,-2.06,-2.05
299.53,-1.18,0.85,-1.18,0.85,-0.86,-0.88,-1.07,-2.04,-2.04,-2.03
302.53,-1.18,0.83,-1.18,0.83,-0.83,-0.85,-1.04,-2.01,-2.01,-2.01
305.55,-1.18,0.80,-1.17,0.81,-0.80,-0.83,-1.01,-1.98,-1.97,-1.98
308.61,-1.18,0.78,-1.18,0.78,-0.77,-0.81,-0.97,-1.94,-1.94,-1.96
311.69,-1.18,0.75,-1.19,0.74,-0.74,-0.78,-0.94,-1.91,-1.93,-1.93
314.81,-1.22,0.68,-1.21,0.70,-0.71,-0.76,-0.90,-1.92,-1.91,-1.90
317.96,-1.23,0.65,-1.22,0.66,-0.68,-0.74,-0.87,-1.90,-1.90,-1.88
321.14,-1.23,0.63,-1.23,0.63,-0.65,-0.71,-0.83,-1.87,-1.88,-1.86
324.35,-1.23,0.61,-1.23,0.61,-0.61,-0.69,-0.80,-1.84,-1.84,-1.84
327.59,-1.23,0.59,-1.22,0.60,-0.58,-0.67,-0.77,-1.81,-1.81,-1.82
330.87,-1.23,0.57,-1.23,0.57,-0.55,-0.64,-0.73,-1.78,-1.79,-1.80
334.18,-1.24,0.54,-1.25,0.53,-0.53,-0.62,-0.70,-1.77,-1.78,-1.78
337.52,-1.28,0.48,-1.26,0.50,-0.50,-0.60,-0.67,-1.78,-1.77,-1.76
340.90,-1.28,0.46,-1.28,0.47,-0.48,-0.58,-0.64,-1.76,-1.76,-1.74
344.30,-1.28,0.44,-1.28,0.44,-0.45,-0.55,-0.60,-1.73,-1.74,-1.72
347.75,-1.28,0.42,-1.28,0.42,-0.43,-0.53,-0.57,-1.71,-1.71,-1.70
351.23,-1.28,0.40,-1.28,0.41,-0.40,-0.51,-0.54,-1.68,-1.68,-1.68
354.74,-1.28,0.38,-1.27,0.39,-0.38,-0.49,-0.51,-1.66,-1.65,-1.66
358.28,-1.28,0.37,-1.28,0.37,-0.36,-0.46,-0.48,-1.64,-1.64,-1.65
361.87,-1.28,0.35,-1.29,0.34,-0.34,-0.44,-0.45,-1.62,-1.63,-1.63
365.49,-1.32,0.29,-1.30,0.31,-0.32,-0.42,-0.42,-1.64,-1.62,-1.61
369.14,-1.32,0.28,-1.32,0.28,-0.30,-0.40,-0.39,-1.61,-1.61,-1.60
372.83,-1.32,0.26,-1.32,0.26,-0.27,-0.37,-0.36,-1.59,-1.59,-1.58
376.56,-1.32,0.25,-1.31,0.25,-0.25,-0.35,-0.33,-1.57,-1.56,-1.57
380.33,-1.32,0.23,-1.32,0.24,-0.23,-0.33,-0.31,-1.54,-1.54,-1.55
384.13,-1.32,0.22,-1.33,0.22,-0.20,-0.31,-0.28,-1.52,-1.53,-1.54
387.97,-1.35,0.18,-1.34,0.19,-0.18,-0.29,-0.25,-1.53,-1.53,-1.53
391.85,-1.37,0.15,-1.36,0.16,-0.17,-0.27,-0.23,-1.54,-1.53,-1.52
395.77,-1.37,0.13,-1.37,0.14,-0.15,-0.24,-0.20,-1.52,-1.52,-1.50
399.73,-1.37,0.12,-1.37,0.12,-0.13,-0.22,-0.17,-1.50,-1.50,-1.49
403.72,-1.37,0.11,-1.37,0.11,-0.12,-0.20,-0.15,-1.48,-1.48,-1.48
407.76,-1.37,0.10,-1.37,0.11,-0.10,-0.18,-0.13,-1.47,-1.46,-1.47
411.84,-1.37,0.09,-1.37,0.10,-0.08,-0.16,-0.10,-1.45,-1.45,-1.46
415.96,-1.37,0.08,-1.38,0.08,-0.07,-0.14,-0.08,-1.43,-1.44,-1.45
420.12,-1.39,0.05,-1.39,0.05,-0.05,-0.12,-0.06,-1.44,-1.44,-1.44
424.32,-1.42,0.01,-1.41,0.03,-0.03,-0.10,-0.03,-1.45,-1.44,-1.43
428.56,-1.42,0.00,-1.42,0.01,-0.01,-0.08,-0.01,-1.43,-1.43,-1.42
432.85,-1.42,-0.01,-1.42,-0.01,0.00,-0.06,0.01,-1.41,-1.42,-1.41
437.18,-1.42,-0.02,-1.42,-0.02,0.02,-0.04,0.03,-1.40,-1.40,-1.40
441.55,-1.42,-0.04,-1.42,-0.03,0.04,-0.02,0.05,-1.38,-1.38,-1.38
445.96,-1.42,-0.05,-1.42,-0.05,0.05,-0.00,0.07,-1.37,-1.37,-1.37
450.42,-1.42,-0.06,-1.42,-0.06,0.05,0.02,0.08,-1.36,-1.37,-1.36
454.93,-1.42,-0.08,-1.42,-0.07,0.06,0.04,0.10,-1.36,-1.36,-1.34
459.48,-1.41,-0.08,-1.40,-0.07,0.06,0.05,0.11,-1.34,-1.34,-1.33
464.07,-1.39,-0.07,-1.39,-0.07,0.07,0.07,0.13,-1.32,-1.32,-1.32
468.71,-1.37,-0.07,-1.37,-0.07,0.08,0.09,0.14,-1.29,-1.29,-1.30
