frequency,raw,error,smoothed,error_smoothed,equalization,parametric_eq,fixed_band_eq,equalized_raw,equalized_smoothed,target
20.00,-21.90,-27.78,-21.89,-27.77,27.78,27.82,12.53,5.88,5.89,5.88
20.20,-21.80,-27.67,-21.81,-27.68,27.68,27.64,12.72,5.88,5.88,5.87
20.40,-21.70,-27.57,-21.71,-27.58,27.58,27.46,12.92,5.88,5.87,5.87
20.61,-21.61,-27.48,-21.61,-27.47,27.47,27.29,13.13,5.85,5.86,5.87
20.81,-21.51,-27.36,-21.51,-27.37,27.35,27.12,13.34,5.84,5.84,5.85
21.02,-21.41,-27.26,-21.40,-27.25,27.23,26.95,13.55,5.82,5.83,5.85
21.23,-21.26,-27.11,-21.26,-27.11,27.10,26.78,13.77,5.84,5.84,5.85
21.44,-21.11,-26.97,-21.12,-26.97,26.96,26.62,14.00,5.85,5.85,5.86
21.66,-20.96,-26.81,-20.96,-26.81,26.82,26.47,14.23,5.85,5.86,5.85
21.87,-20.81,-26.66,-20.80,-26.66,26.66,26.31,14.47,5.86,5.86,5.86
22.09,-20.65,-26.50,-20.65,-26.50,26.51,26.16,14.71,5.86,5.86,5.85
22.31,-20.49,-26.35,-20.49,-26.35,26.35,26.01,14.96,5.86,5.85,5.86
22.54,-20.34,-26.19,-20.34,-26.19,26.19,25.86,15.22,5.84,5.85,5.85
22.76,-20.18,-26.03,-20.18,-26.03,26.03,25.71,15.48,5.85,5.85,5.85
22.99,-20.02,-25.87,-20.02,-25.87,25.87,25.56,15.76,5.85,5.85,5.85
23.22,-19.86,-25.71,-19.86,-25.71,25.71,25.42,16.04,5.85,5.85,5.85
23.45,-19.70,-25.56,-19.70,-25.56,25.56,25.28,16.33,5.86,5.85,5.86
23.69,-19.55,-25.41,-19.55,-25.40,25.39,25.14,16.63,5.84,5.85,5.86
23.92,-19.39,-25.25,-19.39,-25.25,25.24,25.00,16.93,5.85,5.85,5.86
24.16,-19.23,-25.10,-19.23,-25.10,25.09,24.85,17.25,5.86,5.85,5.87
24.40,-19.07,-24.95,-19.07,-24.94,24.95,24.72,17.59,5.88,5.88,5.88
24.65,-18.92,-24.80,-18.91,-24.79,24.82,24.58,17.93,5.90,5.91,5.88
24.89,-18.76,-24.64,-18.77,-24.64,24.71,24.44,18.29,5.95,5.94,5.88
25.14,-18.64,-24.51,-18.65,-24.53,24.59,24.30,18.66,5.95,5.93,5.87
25.39,-18.57,-24.45,-18.57,-24.45,24.46,24.16,19.04,5.89,5.88,5.88
25.65,-18.49,-24.37,-18.50,-24.37,24.31,24.02,19.44,5.82,5.81,5.88
25.91,-18.41,-24.28,-18.38,-24.25,24.15,23.88,19.86,5.74,5.77,5.87
26.16,-18.21,-24.08,-18.20,-24.08,23.97,23.74,20.30,5.77,5.77,5.88
26.43,-17.95,-23.83,-17.95,-23.83,23.79,23.60,20.76,5.83,5.83,5.88
26.69,-17.69,-23.57,-17.69,-23.56,23.59,23.46,21.24,5.90,5.90,5.88
26.96,-17.42,-23.28,-17.46,-23.32,23.39,23.32,21.75,5.97,5.94,5.86
27.23,-17.27,-23.13,-17.27,-23.13,23.21,23.18,22.28,5.94,5.94,5.86
27.50,-17.13,-22.99,-17.12,-22.98,23.04,23.03,22.84,5.91,5.92,5.86
27.77,-17.00,-22.87,-17.00,-22.86,22.89,22.89,23.43,5.89,5.89,5.87
28.05,-16.88,-22.74,-16.89,-22.75,22.77,22.75,24.06,5.89,5.87,5.86
28.33,-16.81,-22.66,-16.81,-22.66,22.65,22.60,24.72,5.84,5.83,5.85
28.62,-16.74,-22.58,-16.74,-22.59,22.53,22.45,25.42,5.79,5.79,5.84
28.90,-16.66,-22.51,-16.64,-22.48,22.41,22.30,26.15,5.75,5.77,5.85
29.19,-16.51,-22.35,-16.50,-22.33,22.28,22.15,26.92,5.77,5.78,5.84
29.48,-16.31,-22.13,-16.32,-22.14,22.13,22.00,27.73,5.83,5.82,5.82
29.78,-16.12,-21.94,-16.13,-21.94,21.98,21.85,28.54,5.86,5.86,5.82
30.08,-15.94,-21.76,-15.96,-21.77,21.82,21.70,29.35,5.88,5.86,5.82
30.38,-15.82,-21.62,-15.82,-21.62,21.65,21.55,30.10,5.83,5.83,5.80
30.68,-15.70,-21.49,-15.70,-21.49,21.48,21.39,30.74,5.78,5.78,5.79
30.99,-15.58,-21.36,-15.57,-21.34,21.32,21.23,31.19,5.74,5.75,5.78
31.30,-15.41,-21.18,-15.41,-21.18,21.16,21.08,31.37,5.75,5.75,5.77
31.61,-15.24,-21.00,-15.24,-21.00,21.01,20.92,31.26,5.77,5.77,5.76
31.93,-15.07,-20.81,-15.08,-20.83,20.85,20.76,30.87,5.77,5.77,5.74
32.24,-14.93,-20.68,-14.93,-20.67,20.67,20.59,30.28,5.74,5.73,5.75
32.57,-14.79,-20.52,-14.79,-20.53,20.49,20.43,29.56,5.69,5.69,5.73
32.89,-14.65,-20.38,-14.63,-20.36,20.31,20.27,28.78,5.66,5.68,5.73
33.22,-14.45,-20.18,-14.43,-20.15,20.15,20.10,27.98,5.70,5.72,5.73
33.55,-14.21,-19.92,-14.21,-19.93,19.99,19.94,27.20,5.78,5.78,5.72
33.89,-13.98,-19.71,-14.01,-19.73,19.82,19.77,26.44,5.84,5.81,5.73
34.23,-13.86,-19.57,-13.89,-19.60,19.66,19.60,25.72,5.80,5.77,5.71
34.57,-13.81,-19.53,-13.81,-19.52,19.48,19.44,25.04,5.67,5.68,5.72
34.92,-13.75,-19.46,-13.70,-19.42,19.31,19.27,24.40,5.56,5.61,5.71
35.27,-13.54,-19.26,-13.52,-19.23,19.15,19.10,23.79,5.61,5.63,5.72
35.62,-13.28,-18.97,-13.29,-18.99,18.98,18.93,23.22,5.70,5.69,5.69
35.97,-13.02,-18.71,-13.07,-18.76,18.82,18.75,22.67,5.80,5.75,5.69
36.33,-12.91,-18.59,-12.91,-18.58,18.64,18.58,22.16,5.73,5.73,5.68
36.70,-12.81,-18.47,-12.79,-18.45,18.47,18.41,21.68,5.66,5.67,5.66
37.06,-12.70,-18.34,-12.67,-18.31,18.30,18.24,21.22,5.60,5.62,5.64
37.43,-12.52,-18.14,-12.52,-18.14,18.14,18.06,20.78,5.62,5.62,5.63
37.81,-12.35,-17.95,-12.37,-17.97,17.99,17.89,20.36,5.64,5.62,5.60
38.19,-12.23,-17.81,-12.25,-17.83,17.84,17.72,19.97,5.61,5.59,5.58
38.57,-12.16,-17.72,-12.16,-17.71,17.69,17.54,19.59,5.53,5.53,5.56
38.95,-12.09,-17.61,-12.05,-17.57,17.54,17.37,19.23,5.45,5.48,5.53
39.34,-11.92,-17.40,-11.91,-17.40,17.38,17.19,18.88,5.46,5.47,5.48
39.74,-11.74,-17.19,-11.76,-17.21,17.22,17.02,18.55,5.48,5.47,5.45
40.14,-11.59,-17.01,-11.61,-17.03,17.06,16.84,18.24,5.47,5.45,5.42
40.54,-11.50,-16.90,-11.50,-16.89,16.90,16.67,17.93,5.40,5.41,5.40
40.94,-11.41,-16.77,-11.38,-16.75,16.74,16.49,17.64,5.33,5.36,5.36
41.35,-11.25,-16.59,-11.25,-16.58,16.57,16.32,17.36,5.32,5.32,5.34
41.76,-11.09,-16.40,-11.10,-16.41,16.40,16.14,17.09,5.31,5.30,5.31
42.18,-10.94,-16.23,-10.95,-16.24,16.23,15.97,16.84,5.29,5.27,5.29
42.60,-10.82,-16.08,-10.82,-16.08,16.06,15.79,16.59,5.24,5.24,5.26
43.03,-10.70,-15.93,-10.67,-15.90,15.89,15.62,16.35,5.19,5.22,5.23
43.46,-10.50,-15.70,-10.50,-15.70,15.71,15.45,16.12,5.21,5.21,5.20
43.90,-10.31,-15.49,-10.34,-15.50,15.54,15.27,15.89,5.23,5.20,5.18
44.33,-10.18,-15.32,-10.19,-15.33,15.37,15.10,15.68,5.19,5.18,5.14
44.78,-10.08,-15.19,-10.07,-15.19,15.19,14.93,15.47,5.11,5.12,5.11
45.23,-9.96,-15.06,-9.96,-15.04,15.01,14.75,15.27,5.05,5.05,5.10
45.68,-9.83,-14.88,-9.83,-14.88,14.83,14.58,15.08,5.00,5.00,5.05
46.13,-9.69,-14.70,-9.67,-14.68,14.66,14.41,14.89,4.97,4.99,5.01
46.60,-9.50,-14.48,-9.50,-14.48,14.48,14.24,14.71,4.98,4.98,4.98
47.06,-9.32,-14.27,-9.34,-14.28,14.31,14.07,14.54,4.99,4.97,4.95
47.53,-9.20,-14.12,-9.19,-14.10,14.14,13.90,14.37,4.94,4.95,4.92
48.01,-9.07,-13.93,-9.08,-13.94,13.97,13.73,14.20,4.90,4.90,4.86
48.49,-8.98,-13.80,-8.98,-13.80,13.81,13.56,14.04,4.83,4.83,4.82
48.97,-8.89,-13.67,-8.88,-13.66,13.65,13.40,13.89,4.76,4.77,4.78
49.46,-8.78,-13.52,-8.78,-13.51,13.49,13.23,13.74,4.71,4.71,4.74
49.96,-8.67,-13.35,-8.67,-13.35,13.32,13.06,13.60,4.65,4.66,4.68
50.46,-8.54,-13.18,-8.54,-13.18,13.15,12.90,13.45,4.61,4.61,4.64
50.96,-8.40,-13.01,-8.40,-13.00,12.97,12.73,13.32,4.58,4.57,4.61
51.47,-8.25,-12.82,-8.25,-12.82,12.80,12.57,13.18,4.55,4.55,4.57
51.99,-8.10,-12.62,-8.08,-12.60,12.63,12.40,13.05,4.53,4.56,4.52
52.51,-7.92,-12.40,-7.92,-12.40,12.47,12.24,12.92,4.55,4.55,4.48
53.03,-7.75,-12.20,-7.81,-12.25,12.31,12.08,12.80,4.56,4.50,4.45
53.56,-7.75,-12.13,-7.74,-12.13,12.15,11.92,12.67,4.40,4.41,4.38
54.10,-7.73,-12.06,-7.68,-12.02,11.98,11.76,12.55,4.25,4.30,4.33
54.64,-7.60,-11.89,-7.62,-11.89,11.81,11.60,12.43,4.21,4.19,4.29
55.18,-7.48,-11.71,-7.50,-11.73,11.64,11.44,12.31,4.17,4.15,4.23
55.74,-7.35,-11.53,-7.32,-11.50,11.48,11.28,12.19,4.13,4.16,4.18
56.29,-7.16,-11.30,-7.13,-11.27,11.31,11.12,12.07,4.15,4.18,4.14
56.86,-6.90,-11.01,-6.98,-11.07,11.14,10.97,11.95,4.24,4.16,4.11
57.42,-6.84,-10.89,-6.86,-10.91,10.97,10.81,11.83,4.13,4.11,4.05
58.00,-6.84,-10.85,-6.78,-10.79,10.80,10.66,11.71,3.96,4.02,4.01
58.58,-6.71,-10.69,-6.70,-10.68,10.65,10.50,11.59,3.94,3.96,3.98
59.16,-6.57,-10.52,-6.58,-10.52,10.51,10.35,11.47,3.94,3.93,3.95
59.76,-6.44,-10.34,-6.47,-10.37,10.37,10.20,11.34,3.93,3.90,3.90
60.35,-6.39,-10.22,-6.40,-10.24,10.23,10.05,11.22,3.84,3.82,3.83
60.96,-6.38,-10.16,-6.34,-10.11,10.07,9.90,11.09,3.69,3.74,3.78
61.57,-6.25,-9.96,-6.25,-9.96,9.91,9.75,10.96,3.66,3.66,3.71
62.18,-6.11,-9.75,-6.12,-9.77,9.75,9.60,10.83,3.64,3.62,3.64
62.80,-5.97,-9.56,-5.96,-9.54,9.58,9.45,10.69,3.61,3.62,3.59
63.43,-5.83,-9.36,-5.83,-9.36,9.41,9.31,10.56,3.58,3.58,3.53
64.07,-5.70,-9.18,-5.73,-9.21,9.24,9.16,10.42,3.54,3.51,3.48
64.71,-5.66,-9.09,-5.65,-9.07,9.06,9.02,10.27,3.40,3.41,3.43
65.35,-5.59,-8.95,-5.57,-8.93,8.89,8.88,10.13,3.30,3.32,3.36
66.01,-5.47,-8.77,-5.46,-8.76,8.73,8.73,9.98,3.26,3.27,3.30
66.67,-5.32,-8.57,-5.34,-8.58,8.59,8.59,9.83,3.27,3.25,3.25
67.33,-5.21,-8.39,-5.22,-8.40,8.44,8.45,9.68,3.23,3.23,3.18
68.01,-5.14,-8.27,-5.12,-8.25,8.30,8.31,9.53,3.16,3.17,3.13
68.69,-5.05,-8.11,-5.07,-8.13,8.14,8.17,9.37,3.09,3.07,3.06
69.37,-5.01,-8.02,-5.02,-8.03,7.98,8.04,9.22,2.97,2.96,3.01
70.07,-4.99,-7.93,-4.94,-7.88,7.82,7.90,9.06,2.83,2.88,2.94
70.77,-4.84,-7.72,-4.83,-7.70,7.67,7.76,8.90,2.83,2.84,2.88
71.48,-4.68,-7.48,-4.71,-7.52,7.51,7.63,8.74,2.83,2.80,2.80
72.19,-4.56,-7.30,-4.59,-7.33,7.36,7.50,8.58,2.80,2.77,2.74
72.91,-4.56,-7.24,-4.50,-7.17,7.21,7.36,8.42,2.65,2.72,2.68
73.64,-4.41,-7.01,-4.42,-7.03,7.06,7.23,8.26,2.65,2.64,2.60
74.38,-4.33,-6.87,-4.37,-6.91,6.91,7.10,8.09,2.58,2.54,2.54
75.12,-4.32,-6.80,-4.30,-6.79,6.77,6.97,7.93,2.45,2.47,2.48
75.87,-4.28,-6.73,-4.25,-6.68,6.64,6.84,7.77,2.36,2.39,2.45
76.63,-4.16,-6.54,-4.18,-6.56,6.52,6.71,7.61,2.36,2.34,2.38
77.40,-4.08,-6.41,-4.08,-6.41,6.41,6.59,7.45,2.33,2.33,2.33
78.17,-4.01,-6.29,-3.98,-6.26,6.31,6.46,7.29,2.30,2.32,2.28
78.95,-3.88,-6.12,-3.92,-6.15,6.20,6.34,7.13,2.32,2.29,2.24
79.74,-3.87,-6.05,-3.88,-6.06,6.10,6.21,6.98,2.23,2.22,2.18
80.54,-3.87,-6.00,-3.87,-6.00,5.99,6.09,6.82,2.12,2.11,2.13
81.35,-3.87,-5.95,-3.85,-5.93,5.87,5.97,6.66,2.00,2.02,2.08
82.16,-3.83,-5.87,-3.80,-5.83,5.75,5.85,6.51,1.92,1.96,2.04
82.98,-3.65,-5.63,-3.71,-5.69,5.64,5.73,6.35,1.99,1.93,1.98
83.81,-3.65,-5.57,-3.60,-5.52,5.54,5.61,6.20,1.89,1.94,1.92
84.65,-3.50,-5.36,-3.51,-5.36,5.42,5.49,6.05,1.92,1.92,1.86
85.50,-3.42,-5.21,-3.45,-5.25,5.31,5.37,5.90,1.89,1.85,1.79
86.35,-3.42,-5.15,-3.41,-5.14,5.18,5.25,5.75,1.76,1.77,1.73
87.22,-3.42,-5.09,-3.43,-5.09,5.06,5.14,5.60,1.64,1.63,1.67
88.09,-3.42,-5.02,-3.42,-5.02,4.95,5.02,5.46,1.53,1.54,1.60
88.97,-3.42,-4.96,-3.36,-4.90,4.86,4.91,5.31,1.44,1.49,1.54
89.86,-3.26,-4.73,-3.29,-4.76,4.77,4.80,5.17,1.51,1.48,1.47
90.76,-3.20,-4.60,-3.22,-4.63,4.68,4.69,5.02,1.48,1.45,1.40
91.66,-3.19,-4.53,-3.18,-4.52,4.57,4.58,4.88,1.38,1.39,1.34
92.58,-3.19,-4.47,-3.19,-4.47,4.46,4.47,4.74,1.27,1.27,1.28
93.51,-3.19,-4.40,-3.20,-4.41,4.35,4.36,4.60,1.16,1.15,1.21
94.44,-3.19,-4.34,-3.15,-4.29,4.23,4.25,4.46,1.04,1.08,1.15
95.39,-3.09,-4.16,-3.08,-4.15,4.13,4.14,4.32,1.04,1.05,1.07
96.34,-2.96,-3.95,-3.01,-4.00,4.03,4.04,4.19,1.07,1.02,0.99
97.30,-2.96,-3.89,-2.96,-3.87,3.93,3.93,4.05,0.97,0.97,0.93
98.28,-2.96,-3.80,-2.95,-3.79,3.83,3.83,3.92,0.87,0.88,0.84
99.26,-2.96,-3.73,-2.96,-3.73,3.74,3.73,3.78,0.78,0.78,0.77
100.25,-2.96,-3.67,-2.96,-3.66,3.66,3.63,3.65,0.70,0.70,0.71
101.25,-2.96,-3.61,-2.96,-3.60,3.59,3.52,3.52,0.63,0.63,0.65
102.27,-2.96,-3.54,-2.96,-3.54,3.54,3.42,3.39,0.58,0.58,0.58
103.29,-2.96,-3.48,-2.96,-3.48,3.49,3.33,3.27,0.53,0.53,0.52
104.32,-2.96,-3.43,-2.96,-3.42,3.43,3.23,3.14,0.47,0.47,0.47
105.37,-2.96,-3.37,-2.96,-3.36,3.36,3.13,3.02,0.40,0.40,0.41
106.42,-2.96,-3.31,-2.97,-3.32,3.28,3.03,2.89,0.32,0.31,0.35
107.48,-2.96,-3.24,-2.96,-3.25,3.20,2.94,2.77,0.24,0.24,0.28
108.56,-2.96,-3.20,-2.91,-3.14,3.11,2.84,2.65,0.15,0.20,0.24
109.64,-2.82,-3.00,-2.84,-3.01,3.03,2.75,2.54,0.21,0.19,0.18
110.74,-2.74,-2.86,-2.77,-2.89,2.94,2.66,2.42,0.20,0.17,0.12
111.85,-2.74,-2.80,-2.73,-2.79,2.86,2.57,2.31,0.12,0.13,0.06
112.97,-2.74,-2.75,-2.73,-2.74,2.77,2.48,2.20,0.03,0.03,0.01
114.10,-2.74,-2.69,-2.74,-2.69,2.67,2.39,2.10,-0.07,-0.07,-0.05
115.24,-2.74,-2.62,-2.75,-2.63,2.57,2.30,1.99,-0.17,-0.18,-0.12
116.39,-2.74,-2.55,-2.73,-2.54,2.48,2.21,1.89,-0.26,-0.25,-0.19
117.55,-2.72,-2.47,-2.67,-2.41,2.38,2.12,1.79,-0.34,-0.29,-0.25
118.73,-2.56,-2.24,-2.60,-2.28,2.29,2.04,1.70,-0.27,-0.30,-0.32
119.92,-2.51,-2.12,-2.53,-2.15,2.20,1.95,1.61,-0.31,-0.33,-0.39
121.12,-2.51,-2.07,-2.50,-2.05,2.11,1.87,1.52,-0.40,-0.39,-0.44
122.33,-2.51,-1.99,-2.51,-1.99,2.02,1.78,1.44,-0.49,-0.48,-0.52
123.55,-2.51,-1.94,-2.51,-1.93,1.93,1.70,1.35,-0.58,-0.58,-0.57
124.79,-2.51,-1.87,-2.51,-1.87,1.84,1.62,1.28,-0.67,-0.68,-0.64
126.03,-2.51,-1.80,-2.52,-1.81,1.75,1.54,1.20,-0.76,-0.78,-0.71
127.29,-2.51,-1.73,-2.49,-1.71,1.65,1.46,1.13,-0.86,-0.84,-0.78
128.57,-2.46,-1.62,-2.42,-1.57,1.56,1.38,1.07,-0.90,-0.87,-0.84
129.85,-2.30,-1.38,-2.35,-1.43,1.46,1.31,1.00,-0.84,-0.89,-0.92
131.15,-2.28,-1.30,-2.29,-1.31,1.36,1.23,0.94,-0.92,-0.93,-0.98
132.46,-2.28,-1.23,-2.27,-1.21,1.26,1.15,0.88,-1.02,-1.00,-1.05
133.79,-2.28,-1.17,-2.28,-1.16,1.17,1.08,0.83,-1.11,-1.10,-1.11
135.12,-2.28,-1.10,-2.28,-1.11,1.10,1.01,0.78,-1.18,-1.18,-1.18
136.48,-2.28,-1.06,-2.28,-1.05,1.04,0.93,0.73,-1.24,-1.24,-1.22
137.84,-2.28,-1.00,-2.28,-0.99,0.99,0.86,0.68,-1.29,-1.29,-1.28
139.22,-2.28,-0.93,-2.28,-0.94,0.94,0.79,0.63,-1.34,-1.34,-1.35
140.61,-2.28,-0.88,-2.28,-0.88,0.88,0.72,0.59,-1.40,-1.40,-1.40
142.02,-2.28,-0.83,-2.29,-0.84,0.80,0.65,0.55,-1.48,-1.49,-1.45
143.44,-2.28,-0.77,-2.28,-0.78,0.72,0.58,0.51,-1.56,-1.56,-1.51
144.87,-2.28,-0.73,-2.23,-0.67,0.64,0.51,0.47,-1.64,-1.59,-1.55
146.32,-2.13,-0.53,-2.15,-0.55,0.55,0.45,0.43,-1.58,-1.60,-1.60
147.78,-2.05,-0.39,-2.08,-0.43,0.47,0.38,0.39,-1.58,-1.62,-1.66
149.26,-2.05,-0.35,-2.04,-0.33,0.39,0.32,0.35,-1.66,-1.65,-1.70
150.75,-2.05,-0.29,-2.04,-0.29,0.31,0.25,0.32,-1.74,-1.73,-1.76
152.26,-2.05,-0.26,-2.05,-0.25,0.25,0.19,0.28,-1.80,-1.80,-1.79
153.78,-2.05,-0.20,-2.05,-0.20,0.19,0.13,0.25,-1.86,-1.86,-1.85
155.32,-2.05,-0.16,-2.05,-0.16,0.14,0.07,0.21,-1.91,-1.91,-1.89
156.88,-2.05,-0.11,-2.05,-0.11,0.10,0.01,0.17,-1.95,-1.95,-1.94
158.44,-2.05,-0.06,-2.05,-0.06,0.05,-0.05,0.14,-2.00,-2.00,-1.99
160.03,-2.05,-0.01,-2.05,-0.01,0.01,-0.11,0.10,-2.04,-2.04,-2.04
161.63,-2.05,0.04,-2.05,0.04,-0.04,-0.16,0.06,-2.09,-2.09,-2.09
163.24,-2.05,0.10,-2.05,0.10,-0.09,-0.22,0.02,-2.14,-2.14,-2.15
164.88,-2.05,0.14,-2.05,0.15,-0.14,-0.28,-0.02,-2.19,-2.19,-2.19
166.53,-2.05,0.20,-2.05,0.19,-0.19,-0.33,-0.06,-2.24,-2.24,-2.25
168.19,-2.05,0.23,-2.05,0.24,-0.23,-0.38,-0.10,-2.28,-2.28,-2.28
169.87,-2.05,0.28,-2.05,0.29,-0.28,-0.44,-0.14,-2.33,-2.33,-2.33
171.57,-2.05,0.34,-2.05,0.34,-0.33,-0.49,-0.18,-2.38,-2.38,-2.39
173.29,-2.05,0.39,-2.05,0.39,-0.39,-0.54,-0.23,-2.44,-2.44,-2.44
175.02,-2.05,0.44,-2.06,0.43,-0.45,-0.59,-0.27,-2.50,-2.51,-2.49
176.77,-2.05,0.49,-2.06,0.49,-0.53,-0.64,-0.32,-2.58,-2.59,-2.54
178.54,-2.05,0.54,-2.02,0.57,-0.62,-0.68,-0.37,-2.67,-2.64,-2.59
180.32,-1.97,0.68,-1.96,0.69,-0.70,-0.73,-0.42,-2.67,-2.66,-2.65
182.13,-1.87,0.83,-1.89,0.81,-0.79,-0.78,-0.47,-2.66,-2.68,-2.70
183.95,-1.82,0.93,-1.83,0.92,-0.87,-0.82,-0.52,-2.69,-2.71,-2.75
185.79,-1.82,0.99,-1.81,0.99,-0.95,-0.87,-0.57,-2.77,-2.77,-2.81
187.65,-1.82,1.03,-1.82,1.04,-1.03,-0.91,-0.62,-2.85,-2.84,-2.85
189.52,-1.82,1.08,-1.82,1.08,-1.09,-0.95,-0.68,-2.91,-2.91,-2.90
191.42,-1.82,1.12,-1.82,1.12,-1.14,-0.99,-0.73,-2.96,-2.96,-2.94
193.33,-1.82,1.17,-1.82,1.17,-1.19,-1.03,-0.79,-3.01,-3.01,-2.99
195.27,-1.82,1.22,-1.82,1.22,-1.23,-1.07,-0.84,-3.05,-3.05,-3.04
197.22,-1.82,1.27,-1.82,1.27,-1.26,-1.11,-0.90,-3.08,-3.08,-3.09
199.19,-1.82,1.30,-1.82,1.31,-1.30,-1.15,-0.96,-3.12,-3.12,-3.12
201.18,-1.82,1.35,-1.82,1.35,-1.34,-1.19,-1.02,-3.16,-3.16,-3.17
203.19,-1.82,1.38,-1.82,1.38,-1.38,-1.22,-1.08,-3.20,-3.20,-3.20
205.23,-1.82,1.41,-1.82,1.41,-1.42,-1.26,-1.14,-3.24,-3.24,-3.23
207.28,-1.82,1.44,-1.82,1.45,-1.45,-1.29,-1.20,-3.27,-3.27,-3.26
209.35,-1.82,1.48,-1.82,1.48,-1.48,-1.33,-1.26,-3.30,-3.30,-3.30
211.44,-1.82,1.52,-1.82,1.52,-1.52,-1.36,-1.31,-3.34,-3.34,-3.34
213.56,-1.82,1.55,-1.82,1.55,-1.55,-1.39,-1.37,-3.37,-3.37,-3.37
215.69,-1.82,1.58,-1.82,1.58,-1.58,-1.42,-1.43,-3.40,-3.40,-3.40
217.85,-1.82,1.61,-1.82,1.62,-1.62,-1.45,-1.49,-3.44,-3.44,-3.43
220.03,-1.82,1.65,-1.82,1.65,-1.65,-1.48,-1.54,-3.47,-3.47,-3.47
222.23,-1.82,1.68,-1.82,1.68,-1.68,-1.51,-1.60,-3.50,-3.50,-3.50
224.45,-1.82,1.71,-1.82,1.71,-1.71,-1.54,-1.65,-3.53,-3.53,-3.53
226.70,-1.82,1.74,-1.82,1.74,-1.75,-1.57,-1.70,-3.57,-3.57,-3.56
228.96,-1.82,1.77,-1.82,1.77,-1.78,-1.59,-1.75,-3.60,-3.60,-3.59
231.25,-1.82,1.79,-1.82,1.79,-1.81,-1.62,-1.79,-3.63,-3.63,-3.61
233.57,-1.82,1.82,-1.82,1.82,-1.83,-1.64,-1.84,-3.65,-3.65,-3.64
235.90,-1.82,1.84,-1.82,1.85,-1.84,-1.66,-1.88,-3.66,-3.66,-3.66
238.26,-1.82,1.88,-1.81,1.88,-1.84,-1.69,-1.92,-3.66,-3.65,-3.70
240.64,-1.82,1.88,-1.83,1.88,-1.83,-1.71,-1.95,-3.65,-3.66,-3.70
243.05,-1.83,1.89,-1.88,1.85,-1.82,-1.73,-1.98,-3.65,-3.70,-3.72
245.48,-1.99,1.76,-1.96,1.79,-1.80,-1.75,-2.01,-3.79,-3.76,-3.75
247.93,-2.05,1.72,-2.02,1.74,-1.79,-1.77,-2.03,-3.84,-3.81,-3.77
250.41,-2.05,1.72,-2.06,1.72,-1.77,-1.79,-2.05,-3.82,-3.84,-3.77
252.92,-2.05,1.74,-2.06,1.74,-1.76,-1.81,-2.07,-3.81,-3.82,-3.79
255.45,-2.05,1.76,-2.05,1.76,-1.76,-1.82,-2.08,-3.81,-3.81,-3.81
258.00,-2.05,1.78,-2.05,1.78,-1.76,-1.84,-2.09,-3.81,-3.81,-3.83
260.58,-2.05,1.79,-2.05,1.79,-1.77,-1.86,-2.10,-3.82,-3.82,-3.84
263.19,-2.05,1.80,-2.05,1.80,-1.79,-1.87,-2.10,-3.84,-3.84,-3.85
265.82,-2.05,1.81,-2.05,1.81,-1.81,-1.89,-2.10,-3.86,-3.86,-3.86
268.48,-2.05,1.81,-2.05,1.81,-1.82,-1.90,-2.10,-3.87,-3.87,-3.86
271.16,-2.05,1.81,-2.05,1.82,-1.82,-1.91,-2.09,-3.87,-3.87,-3.86
273.87,-2.05,1.82,-2.05,1.82,-1.83,-1.92,-2.08,-3.88,-3.88,-3.87
276.61,-2.05,1.83,-2.05,1.84,-1.83,-1.94,-2.07,-3.88,-3.88,-3.88
279.38,-2.05,1.85,-2.05,1.85,-1.84,-1.95,-2.06,-3.89,-3.89,-3.90
282.17,-2.05,1.85,-2.05,1.85,-1.84,-1.96,-2.05,-3.89,-3.89,-3.90
284.99,-2.05,1.84,-2.05,1.85,-1.85,-1.97,-2.03,-3.90,-3.90,-3.89
287.84,-2.05,1.84,-2.05,1.85,-1.85,-1.98,-2.01,-3.90,-3.90,-3.89
290.72,-2.05,1.85,-2.05,1.84,-1.85,-1.98,-1.99,-3.90,-3.90,-3.90
293.63,-2.05,1.84,-2.05,1.85,-1.85,-1.99,-1.98,-3.90,-3.90,-3.89
296.57,-2.05,1.84,-2.05,1.85,-1.84,-2.00,-1.96,-3.89,-3.89,-3.89
299.53,-2.05,1.85,-2.05,1.84,-1.84,-2.00,-1.94,-3.89,-3.89,-3.90
302.53,-2.05,1.83,-2.05,1.84,-1.84,-2.01,-1.92,-3.89,-3.89,-3.88
305.55,-2.05,1.84,-2.05,1.84,-1.84,-2.02,-1.90,-3.89,-3.89,-3.89
308.61,-2.05,1.83,-2.05,1.84,-1.84,-2.02,-1.88,-3.89,-3.89,-3.88
311.69,-2.05,1.84,-2.05,1.84,-1.84,-2.02,-1.86,-3.89,-3.89,-3.89
314.81,-2.05,1.83,-2.05,1.84,-1.84,-2.03,-1.84,-3.89,-3.89,-3.88
317.96,-2.05,1.84,-2.05,1.84,-1.84,-2.03,-1.83,-3.89,-3.89,-3.89
321.14,-2.05,1.83,-2.05,1.84,-1.83,-2.03,-1.81,-3.88,-3.88,-3.88
324.35,-2.05,1.84,-2.05,1.83,-1.83,-2.04,-1.80,-3.88,-3.88,-3.89
327.59,-2.05,1.81,-2.05,1.83,-1.83,-2.04,-1.78,-3.88,-3.88,-3.86
330.87,-2.05,1.82,-2.05,1.82,-1.82,-2.04,-1.77,-3.87,-3.87,-3.87
334.18,-2.05,1.82,-2.05,1.82,-1.81,-2.04,-1.76,-3.86,-3.86,-3.87
337.52,-2.05,1.81,-2.05,1.81,-1.80,-2.04,-1.75,-3.85,-3.85,-3.86
340.90,-2.05,1.80,-2.05,1.80,-1.79,-2.04,-1.74,-3.84,-3.84,-3.85
344.30,-2.05,1.79,-2.05,1.80,-1.79,-2.04,-1.73,-3.84,-3.84,-3.84
347.75,-2.05,1.78,-2.06,1.78,-1.81,-2.04,-1.73,-3.86,-3.87,-3.83
351.23,-2.05,1.79,-2.05,1.78,-1.82,-2.04,-1.72,-3.87,-3.88,-3.84
354.74,-2.05,1.76,-2.01,1.81,-1.85,-2.03,-1.72,-3.90,-3.86,-3.81
358.28,-1.94,1.87,-1.95,1.87,-1.87,-2.03,-1.72,-3.81,-3.82,-3.81
361.87,-1.85,1.96,-1.88,1.93,-1.90,-2.03,-1.72,-3.75,-3.78,-3.81
365.49,-1.82,1.98,-1.82,1.98,-1.93,-2.03,-1.72,-3.75,-3.75,-3.80
369.14,-1.82,1.97,-1.81,1.98,-1.95,-2.02,-1.73,-3.77,-3.76,-3.79
372.83,-1.82,1.96,-1.82,1.97,-1.96,-2.02,-1.73,-3.78,-3.78,-3.78
376.56,-1.82,1.97,-1.82,1.96,-1.96,-2.01,-1.74,-3.78,-3.78,-3.79
380.33,-1.82,1.96,-1.82,1.96,-1.96,-2.01,-1.75,-3.78,-3.78,-3.78
384.13,-1.82,1.95,-1.82,1.96,-1.96,-2.00,-1.76,-3.78,-3.78,-3.77
387.97,-1.82,1.95,-1.83,1.95,-1.97,-2.00,-1.77,-3.79,-3.80,-3.77
391.85,-1.82,1.95,-1.83,1.95,-1.99,-1.99,-1.78,-3.81,-3.82,-3.77
395.77,-1.82,1.96,-1.80,1.98,-2.01,-1.99,-1.79,-3.83,-3.81,-3.78
399.73,-1.76,2.01,-1.74,2.03,-2.04,-1.98,-1.81,-3.80,-3.78,-3.77
403.72,-1.64,2.11,-1.67,2.09,-2.07,-1.98,-1.82,-3.71,-3.74,-3.75
407.76,-1.60,2.15,-1.61,2.14,-2.09,-1.97,-1.84,-3.69,-3.71,-3.75
411.84,-1.60,2.14,-1.59,2.15,-2.11,-1.96,-1.85,-3.71,-3.70,-3.74
415.96,-1.60,2.13,-1.60,2.14,-2.13,-1.96,-1.87,-3.73,-3.72,-3.73
420.12,-1.60,2.13,-1.60,2.13,-2.13,-1.95,-1.89,-3.73,-3.73,-3.73
424.32,-1.60,2.11,-1.60,2.11,-2.12,-1.94,-1.91,-3.72,-3.72,-3.71
