frequency,raw,error,smoothed,error_smoothed,equalization,parametric_eq,fixed_band_eq,equalized_raw,equalized_smoothed,target
20.00,-21.90,-27.78,-21.96,-27.83,27.83,30.08,12.51,5.93,5.87,5.88
20.20,-21.80,-27.67,-21.84,-27.71,27.71,29.72,12.71,5.91,5.87,5.87
20.40,-21.70,-27.57,-21.72,-27.58,27.58,29.35,12.91,5.89,5.87,5.87
20.61,-21.61,-27.48,-21.60,-27.46,27.46,28.98,13.11,5.85,5.86,5.87
20.81,-21.51,-27.36,-21.47,-27.33,27.33,28.61,13.32,5.82,5.86,5.85
21.02,-21.41,-27.26,-21.34,-27.20,27.20,28.26,13.53,5.79,5.85,5.85
21.23,-21.26,-27.11,-21.21,-27.06,27.06,27.91,13.75,5.80,5.85,5.85
21.44,-21.11,-26.97,-21.07,-26.92,26.92,27.58,13.97,5.82,5.85,5.86
21.66,-20.96,-26.81,-20.94,-26.79,26.79,27.27,14.20,5.82,5.85,5.85
21.87,-20.81,-26.66,-20.80,-26.64,26.64,26.96,14.43,5.84,5.85,5.86
22.09,-20.65,-26.50,-20.65,-26.50,26.50,26.67,14.67,5.85,5.85,5.85
22.31,-20.49,-26.35,-20.51,-26.35,26.35,26.40,14.92,5.87,5.85,5.86
22.54,-20.34,-26.19,-20.35,-26.20,26.20,26.14,15.17,5.85,5.85,5.85
22.76,-20.18,-26.03,-20.18,-26.03,26.03,25.89,15.43,5.85,5.85,5.85
22.99,-20.02,-25.87,-20.01,-25.87,25.87,25.65,15.70,5.85,5.85,5.85
23.22,-19.86,-25.71,-19.85,-25.70,25.70,25.43,15.97,5.84,5.86,5.85
23.45,-19.70,-25.56,-19.69,-25.55,25.55,25.21,16.26,5.85,5.86,5.86
23.69,-19.55,-25.41,-19.54,-25.40,25.40,25.01,16.55,5.85,5.86,5.86
23.92,-19.39,-25.25,-19.41,-25.27,25.27,24.82,16.85,5.88,5.86,5.86
24.16,-19.23,-25.10,-19.27,-25.14,25.14,24.64,17.16,5.91,5.87,5.87
24.40,-19.07,-24.95,-19.13,-25.00,25.00,24.46,17.48,5.93,5.87,5.88
24.65,-18.92,-24.80,-18.99,-24.86,24.86,24.30,17.81,5.94,5.87,5.88
24.89,-18.76,-24.64,-18.84,-24.71,24.71,24.14,18.15,5.95,5.87,5.88
25.14,-18.64,-24.51,-18.69,-24.56,24.56,23.99,18.51,5.92,5.87,5.87
25.39,-18.57,-24.45,-18.53,-24.40,24.40,23.85,18.88,5.83,5.88,5.88
25.65,-18.49,-24.37,-18.36,-24.24,24.24,23.72,19.26,5.75,5.88,5.88
25.91,-18.41,-24.28,-18.20,-24.07,24.07,23.59,19.65,5.66,5.87,5.87
26.16,-18.21,-24.08,-18.03,-23.91,23.91,23.46,20.06,5.70,5.87,5.88
26.43,-17.95,-23.83,-17.88,-23.75,23.75,23.34,20.49,5.80,5.87,5.88
26.69,-17.69,-23.57,-17.73,-23.60,23.60,23.23,20.93,5.91,5.87,5.88
26.96,-17.42,-23.28,-17.58,-23.44,23.44,23.12,21.40,6.02,5.87,5.86
27.23,-17.27,-23.13,-17.42,-23.29,23.29,23.01,21.87,6.01,5.86,5.86
27.50,-17.13,-22.99,-17.27,-23.13,23.13,22.91,22.37,6.00,5.86,5.86
27.77,-17.00,-22.87,-17.11,-22.97,22.97,22.80,22.89,5.97,5.86,5.87
28.05,-16.88,-22.74,-16.95,-22.81,22.81,22.70,23.42,5.93,5.85,5.86
28.33,-16.81,-22.66,-16.80,-22.65,22.65,22.61,23.97,5.84,5.85,5.85
28.62,-16.74,-22.58,-16.66,-22.50,22.50,22.51,24.53,5.76,5.84,5.84
28.90,-16.66,-22.51,-16.52,-22.36,22.36,22.41,25.10,5.70,5.84,5.85
29.19,-16.51,-22.35,-16.39,-22.22,22.22,22.31,25.67,5.71,5.83,5.84
29.48,-16.31,-22.13,-16.26,-22.09,22.09,22.21,26.23,5.78,5.82,5.82
29.78,-16.12,-21.94,-16.14,-21.95,21.95,22.11,26.77,5.83,5.81,5.82
30.08,-15.94,-21.76,-16.01,-21.82,21.82,22.01,27.25,5.88,5.81,5.82
30.38,-15.82,-21.62,-15.87,-21.67,21.67,21.90,27.67,5.85,5.80,5.80
30.68,-15.70,-21.49,-15.73,-21.51,21.51,21.80,27.98,5.81,5.79,5.79
30.99,-15.58,-21.36,-15.57,-21.34,21.34,21.69,28.18,5.76,5.78,5.78
31.30,-15.41,-21.18,-15.39,-21.16,21.16,21.57,28.23,5.75,5.77,5.77
31.61,-15.24,-21.00,-15.23,-20.99,20.99,21.45,28.14,5.75,5.76,5.76
31.93,-15.07,-20.81,-15.07,-20.82,20.82,21.33,27.91,5.75,5.75,5.74
32.24,-14.93,-20.68,-14.91,-20.66,20.66,21.20,27.57,5.73,5.74,5.75
32.57,-14.79,-20.52,-14.76,-20.50,20.50,21.07,27.14,5.71,5.74,5.73
32.89,-14.65,-20.38,-14.60,-20.33,20.33,20.93,26.65,5.69,5.73,5.73
33.22,-14.45,-20.18,-14.44,-20.16,20.16,20.79,26.13,5.72,5.73,5.73
33.55,-14.21,-19.92,-14.27,-19.99,19.99,20.64,25.59,5.79,5.72,5.72
33.89,-13.98,-19.71,-14.10,-19.82,19.82,20.49,25.04,5.84,5.72,5.73
34.23,-13.86,-19.57,-13.93,-19.65,19.65,20.33,24.49,5.79,5.72,5.71
34.57,-13.81,-19.53,-13.76,-19.48,19.48,20.17,23.96,5.67,5.71,5.72
34.92,-13.75,-19.46,-13.60,-19.30,19.30,20.00,23.44,5.55,5.71,5.71
35.27,-13.54,-19.26,-13.43,-19.14,19.14,19.82,22.94,5.59,5.70,5.72
35.62,-13.28,-18.97,-13.28,-18.97,18.97,19.64,22.46,5.69,5.69,5.69
35.97,-13.02,-18.71,-13.12,-18.81,18.81,19.45,22.00,5.79,5.68,5.69
36.33,-12.91,-18.59,-12.97,-18.64,18.64,19.26,21.55,5.73,5.67,5.68
36.70,-12.81,-18.47,-12.82,-18.48,18.48,19.07,21.13,5.67,5.66,5.66
37.06,-12.70,-18.34,-12.68,-18.32,18.32,18.87,20.72,5.62,5.64,5.64
37.43,-12.52,-18.14,-12.55,-18.17,18.17,18.67,20.32,5.65,5.62,5.63
37.81,-12.35,-17.95,-12.41,-18.01,18.01,18.46,19.95,5.66,5.59,5.60
38.19,-12.23,-17.81,-12.27,-17.84,17.84,18.25,19.59,5.61,5.57,5.58
38.57,-12.16,-17.72,-12.13,-17.67,17.67,18.04,19.24,5.51,5.54,5.56
38.95,-12.09,-17.61,-12.00,-17.52,17.52,17.83,18.91,5.43,5.52,5.53
39.34,-11.92,-17.40,-11.88,-17.37,17.37,17.61,18.59,5.45,5.49,5.48
39.74,-11.74,-17.19,-11.76,-17.22,17.22,17.39,18.28,5.48,5.46,5.45
40.14,-11.59,-17.01,-11.64,-17.07,17.07,17.18,17.99,5.47,5.43,5.42
40.54,-11.50,-16.90,-11.50,-16.90,16.90,16.95,17.70,5.40,5.40,5.40
40.94,-11.41,-16.77,-11.36,-16.73,16.73,16.73,17.43,5.32,5.37,5.36
41.35,-11.25,-16.59,-11.22,-16.56,16.56,16.51,17.17,5.31,5.34,5.34
41.76,-11.09,-16.40,-11.09,-16.40,16.40,16.29,16.91,5.31,5.31,5.31
42.18,-10.94,-16.23,-10.95,-16.23,16.23,16.06,16.67,5.30,5.28,5.29
42.60,-10.82,-16.08,-10.81,-16.06,16.06,15.84,16.43,5.24,5.25,5.26
43.03,-10.70,-15.93,-10.66,-15.89,15.89,15.62,16.21,5.19,5.23,5.23
43.46,-10.50,-15.70,-10.51,-15.71,15.71,15.40,15.99,5.21,5.20,5.20
43.90,-10.31,-15.49,-10.37,-15.54,15.54,15.18,15.78,5.23,5.17,5.18
44.33,-10.18,-15.32,-10.22,-15.36,15.36,14.96,15.57,5.18,5.14,5.14
44.78,-10.08,-15.19,-10.07,-15.18,15.18,14.74,15.37,5.10,5.11,5.11
45.23,-9.96,-15.06,-9.92,-15.01,15.01,14.52,15.18,5.04,5.08,5.10
45.68,-9.83,-14.88,-9.78,-14.83,14.83,14.30,15.00,5.00,5.05,5.05
46.13,-9.69,-14.70,-9.65,-14.66,14.66,14.09,14.82,4.97,5.01,5.01
46.60,-9.50,-14.48,-9.52,-14.49,14.49,13.88,14.65,4.99,4.98,4.98
47.06,-9.32,-14.27,-9.39,-14.33,14.33,13.66,14.48,5.01,4.94,4.95
47.53,-9.20,-14.12,-9.26,-14.16,14.16,13.45,14.32,4.96,4.90,4.92
48.01,-9.07,-13.93,-9.13,-13.99,13.99,13.25,14.17,4.92,4.86,4.86
48.49,-8.98,-13.80,-8.99,-13.81,13.81,13.04,14.01,4.83,4.82,4.82
48.97,-8.89,-13.67,-8.86,-13.64,13.64,12.84,13.87,4.75,4.78,4.78
49.46,-8.78,-13.52,-8.73,-13.47,13.47,12.63,13.73,4.69,4.74,4.74
49.96,-8.67,-13.35,-8.60,-13.30,13.30,12.43,13.59,4.63,4.70,4.68
50.46,-8.54,-13.18,-8.48,-13.13,13.13,12.24,13.45,4.59,4.65,4.64
50.96,-8.40,-13.01,-8.37,-12.98,12.98,12.04,13.32,4.58,4.61,4.61
51.47,-8.25,-12.82,-8.26,-12.82,12.82,11.85,13.19,4.57,4.56,4.57
51.99,-8.10,-12.62,-8.14,-12.65,12.65,11.65,13.07,4.55,4.52,4.52
52.51,-7.92,-12.40,-8.01,-12.48,12.48,11.47,12.95,4.56,4.47,4.48
53.03,-7.75,-12.20,-7.89,-12.31,12.31,11.28,12.83,4.56,4.42,4.45
53.56,-7.75,-12.13,-7.77,-12.14,12.14,11.09,12.71,4.39,4.38,4.38
54.10,-7.73,-12.06,-7.64,-11.97,11.97,10.91,12.59,4.24,4.33,4.33
54.64,-7.60,-11.89,-7.51,-11.79,11.79,10.73,12.48,4.19,4.29,4.29
55.18,-7.48,-11.71,-7.38,-11.62,11.62,10.55,12.36,4.15,4.24,4.23
55.74,-7.35,-11.53,-7.26,-11.46,11.46,10.38,12.25,4.11,4.20,4.18
56.29,-7.16,-11.30,-7.15,-11.31,11.31,10.20,12.13,4.15,4.15,4.14
56.86,-6.90,-11.01,-7.05,-11.15,11.15,10.03,12.02,4.25,4.11,4.11
57.42,-6.84,-10.89,-6.94,-11.00,11.00,9.86,11.90,4.16,4.06,4.05
58.00,-6.84,-10.85,-6.83,-10.84,10.84,9.69,11.78,4.00,4.01,4.01
58.58,-6.71,-10.69,-6.72,-10.68,10.68,9.53,11.67,3.97,3.97,3.98
59.16,-6.57,-10.52,-6.60,-10.52,10.52,9.37,11.55,3.95,3.92,3.95
59.76,-6.44,-10.34,-6.49,-10.36,10.36,9.21,11.43,3.92,3.87,3.90
60.35,-6.39,-10.22,-6.38,-10.20,10.20,9.05,11.30,3.81,3.82,3.83
60.96,-6.38,-10.16,-6.27,-10.04,10.04,8.89,11.18,3.66,3.76,3.78
61.57,-6.25,-9.96,-6.17,-9.88,9.88,8.74,11.05,3.63,3.71,3.71
62.18,-6.11,-9.75,-6.07,-9.73,9.73,8.59,10.92,3.62,3.66,3.64
62.80,-5.97,-9.56,-5.97,-9.57,9.57,8.44,10.78,3.60,3.60,3.59
63.43,-5.83,-9.36,-5.87,-9.41,9.41,8.29,10.65,3.58,3.54,3.53
64.07,-5.70,-9.18,-5.76,-9.25,9.25,8.14,10.51,3.55,3.48,3.48
64.71,-5.66,-9.09,-5.66,-9.08,9.08,8.00,10.37,3.42,3.42,3.43
65.35,-5.59,-8.95,-5.56,-8.92,8.92,7.85,10.22,3.33,3.36,3.36
66.01,-5.47,-8.77,-5.46,-8.76,8.76,7.71,10.07,3.29,3.30,3.30
66.67,-5.32,-8.57,-5.36,-8.60,8.60,7.58,9.92,3.28,3.24,3.25
67.33,-5.21,-8.39,-5.26,-8.44,8.44,7.44,9.77,3.23,3.18,3.18
68.01,-5.14,-8.27,-5.15,-8.27,8.27,7.31,9.62,3.13,3.12,3.13
68.69,-5.05,-8.11,-5.06,-8.12,8.12,7.17,9.46,3.07,3.06,3.06
69.37,-5.01,-8.02,-4.97,-7.97,7.97,7.04,9.30,2.96,2.99,3.01
70.07,-4.99,-7.93,-4.89,-7.82,7.82,6.91,9.14,2.83,2.93,2.94
70.77,-4.84,-7.72,-4.80,-7.67,7.67,6.79,8.98,2.83,2.86,2.88
71.48,-4.68,-7.48,-4.71,-7.51,7.51,6.66,8.82,2.83,2.80,2.80
72.19,-4.56,-7.30,-4.62,-7.36,7.36,6.54,8.66,2.80,2.74,2.74
72.91,-4.56,-7.24,-4.53,-7.21,7.21,6.41,8.49,2.65,2.68,2.68
73.64,-4.41,-7.01,-4.45,-7.06,7.06,6.29,8.33,2.65,2.61,2.60
74.38,-4.33,-6.87,-4.38,-6.93,6.93,6.18,8.17,2.60,2.55,2.54
75.12,-4.32,-6.80,-4.30,-6.80,6.80,6.06,8.00,2.48,2.50,2.48
75.87,-4.28,-6.73,-4.23,-6.67,6.67,5.94,7.84,2.39,2.44,2.45
76.63,-4.16,-6.54,-4.16,-6.55,6.55,5.83,7.68,2.39,2.39,2.38
77.40,-4.08,-6.41,-4.09,-6.42,6.42,5.72,7.51,2.34,2.33,2.33
78.17,-4.01,-6.29,-4.02,-6.30,6.30,5.61,7.35,2.29,2.28,2.28
78.95,-3.88,-6.12,-3.96,-6.19,6.19,5.50,7.19,2.31,2.23,2.24
79.74,-3.87,-6.05,-3.90,-6.08,6.08,5.39,7.03,2.21,2.18,2.18
80.54,-3.87,-6.00,-3.84,-5.97,5.97,5.28,6.87,2.10,2.13,2.13
81.35,-3.87,-5.95,-3.78,-5.86,5.86,5.18,6.71,1.99,2.08,2.08
82.16,-3.83,-5.87,-3.73,-5.75,5.75,5.07,6.55,1.92,2.02,2.04
82.98,-3.65,-5.63,-3.67,-5.64,5.64,4.97,6.40,1.99,1.97,1.98
83.81,-3.65,-5.57,-3.61,-5.52,5.52,4.87,6.24,1.87,1.91,1.92
84.65,-3.50,-5.36,-3.56,-5.41,5.41,4.77,6.09,1.91,1.85,1.86
85.50,-3.42,-5.21,-3.51,-5.30,5.30,4.67,5.94,1.88,1.79,1.79
86.35,-3.42,-5.15,-3.47,-5.20,5.20,4.58,5.79,1.78,1.73,1.73
87.22,-3.42,-5.09,-3.43,-5.10,5.10,4.48,5.63,1.68,1.67,1.67
88.09,-3.42,-5.02,-3.38,-4.99,4.99,4.39,5.49,1.57,1.60,1.60
88.97,-3.42,-4.96,-3.33,-4.87,4.87,4.29,5.34,1.45,1.54,1.54
89.86,-3.26,-4.73,-3.28,-4.76,4.76,4.20,5.19,1.50,1.47,1.47
90.76,-3.20,-4.60,-3.24,-4.64,4.64,4.11,5.05,1.44,1.41,1.40
91.66,-3.19,-4.53,-3.20,-4.54,4.54,4.02,4.90,1.35,1.34,1.34
92.58,-3.19,-4.47,-3.17,-4.44,4.44,3.93,4.76,1.25,1.27,1.28
93.51,-3.19,-4.40,-3.14,-4.33,4.33,3.85,4.62,1.14,1.20,1.21
94.44,-3.19,-4.34,-3.11,-4.24,4.24,3.76,4.48,1.05,1.13,1.15
95.39,-3.09,-4.16,-3.08,-4.13,4.13,3.68,4.34,1.04,1.06,1.07
96.34,-2.96,-3.95,-3.04,-4.03,4.03,3.59,4.20,1.07,0.99,0.99
97.30,-2.96,-3.89,-3.02,-3.94,3.94,3.51,4.06,0.98,0.92,0.93
98.28,-2.96,-3.80,-3.00,-3.85,3.85,3.43,3.93,0.89,0.85,0.84
99.26,-2.96,-3.73,-2.99,-3.78,3.78,3.35,3.79,0.82,0.78,0.77
100.25,-2.96,-3.67,-2.99,-3.71,3.71,3.27,3.66,0.75,0.72,0.71
101.25,-2.96,-3.61,-2.98,-3.63,3.63,3.19,3.53,0.67,0.65,0.65
102.27,-2.96,-3.54,-2.96,-3.55,3.55,3.11,3.40,0.59,0.59,0.58
103.29,-2.96,-3.48,-2.94,-3.47,3.47,3.03,3.27,0.51,0.52,0.52
104.32,-2.96,-3.43,-2.93,-3.39,3.39,2.96,3.14,0.43,0.46,0.47
105.37,-2.96,-3.37,-2.91,-3.32,3.32,2.88,3.01,0.36,0.40,0.41
106.42,-2.96,-3.31,-2.91,-3.26,3.26,2.81,2.89,0.30,0.35,0.35
107.48,-2.96,-3.24,-2.91,-3.20,3.20,2.74,2.77,0.24,0.29,0.28
108.56,-2.96,-3.20,-2.89,-3.12,3.12,2.66,2.65,0.16,0.23,0.24
109.64,-2.82,-3.00,-2.86,-3.04,3.04,2.59,2.53,0.22,0.17,0.18
110.74,-2.74,-2.86,-2.83,-2.95,2.95,2.52,2.42,0.21,0.12,0.12
111.85,-2.74,-2.80,-2.80,-2.86,2.86,2.45,2.30,0.12,0.06,0.06
112.97,-2.74,-2.75,-2.76,-2.76,2.76,2.38,2.19,0.02,-0.00,0.01
114.10,-2.74,-2.69,-2.73,-2.66,2.66,2.31,2.09,-0.08,-0.06,-0.05
115.24,-2.74,-2.62,-2.70,-2.57,2.57,2.25,1.98,-0.17,-0.13,-0.12
116.39,-2.74,-2.55,-2.67,-2.48,2.48,2.18,1.88,-0.26,-0.19,-0.19
117.55,-2.72,-2.47,-2.65,-2.39,2.39,2.11,1.78,-0.33,-0.25,-0.25
118.73,-2.56,-2.24,-2.62,-2.30,2.30,2.05,1.69,-0.26,-0.32,-0.32
119.92,-2.51,-2.12,-2.59,-2.21,2.21,1.98,1.60,-0.30,-0.38,-0.39
121.12,-2.51,-2.07,-2.56,-2.12,2.12,1.92,1.51,-0.39,-0.45,-0.44
122.33,-2.51,-1.99,-2.54,-2.02,2.02,1.85,1.42,-0.49,-0.52,-0.52
123.55,-2.51,-1.94,-2.51,-1.93,1.93,1.79,1.34,-0.58,-0.58,-0.57
124.79,-2.51,-1.87,-2.48,-1.83,1.83,1.73,1.26,-0.68,-0.65,-0.64
126.03,-2.51,-1.80,-2.44,-1.73,1.73,1.67,1.19,-0.78,-0.72,-0.71
127.29,-2.51,-1.73,-2.41,-1.63,1.63,1.61,1.12,-0.88,-0.78,-0.78
128.57,-2.46,-1.62,-2.39,-1.54,1.54,1.54,1.05,-0.92,-0.85,-0.84
129.85,-2.30,-1.38,-2.36,-1.45,1.45,1.48,0.99,-0.85,-0.92,-0.92
131.15,-2.28,-1.30,-2.35,-1.37,1.37,1.43,0.93,-0.91,-0.98,-0.98
132.46,-2.28,-1.23,-2.35,-1.31,1.31,1.37,0.87,-0.97,-1.04,-1.05
133.79,-2.28,-1.17,-2.34,-1.23,1.23,1.31,0.81,-1.05,-1.11,-1.11
135.12,-2.28,-1.10,-2.32,-1.15,1.15,1.25,0.76,-1.13,-1.17,-1.18
136.48,-2.28,-1.06,-2.29,-1.06,1.06,1.19,0.71,-1.22,-1.23,-1.22
137.84,-2.28,-1.00,-2.27,-0.98,0.98,1.13,0.66,-1.30,-1.29,-1.28
139.22,-2.28,-0.93,-2.25,-0.90,0.90,1.08,0.62,-1.38,-1.35,-1.35
140.61,-2.28,-0.88,-2.23,-0.83,0.83,1.02,0.57,-1.45,-1.40,-1.40
142.02,-2.28,-0.83,-2.21,-0.76,0.76,0.97,0.53,-1.52,-1.45,-1.45
143.44,-2.28,-0.77,-2.20,-0.69,0.69,0.91,0.49,-1.59,-1.51,-1.51
144.87,-2.28,-0.73,-2.18,-0.63,0.63,0.86,0.45,-1.65,-1.56,-1.55
146.32,-2.13,-0.53,-2.16,-0.56,0.56,0.80,0.42,-1.57,-1.61,-1.60
147.78,-2.05,-0.39,-2.14,-0.48,0.48,0.75,0.38,-1.57,-1.66,-1.66
149.26,-2.05,-0.35,-2.12,-0.41,0.41,0.69,0.34,-1.64,-1.70,-1.70
150.75,-2.05,-0.29,-2.10,-0.34,0.34,0.64,0.31,-1.71,-1.75,-1.76
152.26,-2.05,-0.26,-2.08,-0.27,0.27,0.59,0.27,-1.78,-1.80,-1.79
153.78,-2.05,-0.20,-2.06,-0.21,0.21,0.53,0.23,-1.84,-1.85,-1.85
155.32,-2.05,-0.16,-2.05,-0.15,0.15,0.48,0.20,-1.90,-1.90,-1.89
156.88,-2.05,-0.11,-2.04,-0.09,0.09,0.43,0.16,-1.96,-1.95,-1.94
158.44,-2.05,-0.06,-2.03,-0.04,0.04,0.38,0.13,-2.01,-2.00,-1.99
160.03,-2.05,-0.01,-2.03,0.01,-0.01,0.33,0.09,-2.06,-2.04,-2.04
161.63,-2.05,0.04,-2.04,0.05,-0.05,0.28,0.05,-2.10,-2.09,-2.09
163.24,-2.05,0.10,-2.06,0.08,-0.08,0.23,0.01,-2.13,-2.14,-2.15
164.88,-2.05,0.14,-2.07,0.12,-0.12,0.18,-0.03,-2.17,-2.19,-2.19
166.53,-2.05,0.20,-2.07,0.17,-0.17,0.13,-0.07,-2.22,-2.24,-2.25
168.19,-2.05,0.23,-2.06,0.23,-0.23,0.08,-0.11,-2.28,-2.29,-2.28
169.87,-2.05,0.28,-2.05,0.29,-0.29,0.03,-0.15,-2.34,-2.34,-2.33
171.57,-2.05,0.34,-2.04,0.35,-0.35,-0.02,-0.19,-2.40,-2.39,-2.39
173.29,-2.05,0.39,-2.03,0.42,-0.42,-0.07,-0.23,-2.47,-2.45,-2.44
175.02,-2.05,0.44,-2.01,0.49,-0.49,-0.12,-0.28,-2.54,-2.50,-2.49
176.77,-2.05,0.49,-1.99,0.56,-0.56,-0.17,-0.32,-2.61,-2.55,-2.54
178.54,-2.05,0.54,-1.97,0.63,-0.63,-0.22,-0.37,-2.68,-2.60,-2.59
180.32,-1.97,0.68,-1.94,0.71,-0.71,-0.27,-0.42,-2.68,-2.65,-2.65
182.13,-1.87,0.83,-1.92,0.78,-0.78,-0.31,-0.47,-2.65,-2.70,-2.70
183.95,-1.82,0.93,-1.90,0.85,-0.85,-0.36,-0.52,-2.67,-2.75,-2.75
185.79,-1.82,0.99,-1.88,0.93,-0.93,-0.41,-0.57,-2.75,-2.80,-2.81
187.65,-1.82,1.03,-1.86,1.00,-1.00,-0.45,-0.62,-2.82,-2.85,-2.85
189.52,-1.82,1.08,-1.84,1.06,-1.06,-0.50,-0.68,-2.88,-2.90,-2.90
191.42,-1.82,1.12,-1.83,1.12,-1.12,-0.55,-0.73,-2.94,-2.95,-2.94
193.33,-1.82,1.17,-1.81,1.18,-1.18,-0.59,-0.79,-3.00,-2.99,-2.99
195.27,-1.82,1.22,-1.81,1.23,-1.23,-0.64,-0.84,-3.05,-3.04,-3.04
197.22,-1.82,1.27,-1.80,1.28,-1.28,-0.68,-0.90,-3.10,-3.08,-3.09
199.19,-1.82,1.30,-1.80,1.32,-1.32,-0.73,-0.96,-3.14,-3.12,-3.12
201.18,-1.82,1.35,-1.81,1.35,-1.35,-0.77,-1.02,-3.17,-3.16,-3.17
203.19,-1.82,1.38,-1.82,1.38,-1.38,-0.82,-1.07,-3.20,-3.20,-3.20
205.23,-1.82,1.41,-1.82,1.42,-1.42,-0.86,-1.13,-3.24,-3.24,-3.23
207.28,-1.82,1.44,-1.82,1.45,-1.45,-0.90,-1.19,-3.27,-3.27,-3.26
209.35,-1.82,1.48,-1.82,1.49,-1.49,-0.95,-1.25,-3.31,-3.31,-3.30
211.44,-1.82,1.52,-1.82,1.52,-1.52,-0.99,-1.31,-3.34,-3.34,-3.34
213.56,-1.82,1.55,-1.82,1.55,-1.55,-1.03,-1.37,-3.37,-3.37,-3.37
215.69,-1.82,1.58,-1.82,1.59,-1.59,-1.07,-1.42,-3.41,-3.41,-3.40
217.85,-1.82,1.61,-1.82,1.62,-1.62,-1.12,-1.48,-3.44,-3.44,-3.43
220.03,-1.82,1.65,-1.81,1.66,-1.66,-1.16,-1.54,-3.48,-3.47,-3.47
222.23,-1.82,1.68,-1.80,1.70,-1.70,-1.20,-1.59,-3.52,-3.50,-3.50
224.45,-1.82,1.71,-1.80,1.73,-1.73,-1.24,-1.64,-3.55,-3.53,-3.53
226.70,-1.82,1.74,-1.80,1.76,-1.76,-1.28,-1.69,-3.58,-3.56,-3.56
228.96,-1.82,1.77,-1.81,1.78,-1.78,-1.32,-1.74,-3.60,-3.59,-3.59
231.25,-1.82,1.79,-1.82,1.79,-1.79,-1.36,-1.78,-3.61,-3.62,-3.61
233.57,-1.82,1.82,-1.84,1.80,-1.80,-1.39,-1.83,-3.62,-3.64,-3.64
235.90,-1.82,1.84,-1.86,1.81,-1.81,-1.43,-1.87,-3.63,-3.66,-3.66
238.26,-1.82,1.88,-1.88,1.81,-1.81,-1.47,-1.90,-3.63,-3.69,-3.70
240.64,-1.82,1.88,-1.90,1.81,-1.81,-1.50,-1.94,-3.63,-3.71,-3.70
243.05,-1.83,1.89,-1.92,1.81,-1.81,-1.54,-1.97,-3.64,-3.73,-3.72
245.48,-1.99,1.76,-1.94,1.81,-1.81,-1.58,-2.00,-3.80,-3.75,-3.75
247.93,-2.05,1.72,-1.96,1.80,-1.80,-1.61,-2.02,-3.85,-3.77,-3.77
250.41,-2.05,1.72,-1.99,1.80,-1.80,-1.64,-2.04,-3.85,-3.78,-3.77
252.92,-2.05,1.74,-2.01,1.79,-1.79,-1.68,-2.06,-3.84,-3.80,-3.79
255.45,-2.05,1.76,-2.02,1.79,-1.79,-1.71,-2.07,-3.84,-3.81,-3.81
258.00,-2.05,1.78,-2.04,1.79,-1.79,-1.74,-2.08,-3.84,-3.83,-3.83
260.58,-2.05,1.79,-2.05,1.78,-1.78,-1.77,-2.09,-3.83,-3.84,-3.84
263.19,-2.05,1.80,-2.06,1.79,-1.79,-1.80,-2.09,-3.84,-3.85,-3.85
265.82,-2.05,1.81,-2.07,1.79,-1.79,-1.83,-2.09,-3.84,-3.86,-3.86
268.48,-2.05,1.81,-2.07,1.80,-1.80,-1.86,-2.09,-3.85,-3.87,-3.86
271.16,-2.05,1.81,-2.06,1.81,-1.81,-1.89,-2.08,-3.86,-3.87,-3.86
273.87,-2.05,1.82,-2.05,1.83,-1.83,-1.92,-2.07,-3.88,-3.88,-3.87
276.61,-2.05,1.83,-2.05,1.84,-1.84,-1.94,-2.06,-3.89,-3.89,-3.88
279.38,-2.05,1.85,-2.05,1.84,-1.84,-1.97,-2.05,-3.89,-3.89,-3.90
282.17,-2.05,1.85,-2.05,1.84,-1.84,-1.99,-2.03,-3.89,-3.89,-3.90
284.99,-2.05,1.84,-2.05,1.84,-1.84,-2.01,-2.02,-3.89,-3.89,-3.89
287.84,-2.05,1.84,-2.05,1.84,-1.84,-2.04,-2.00,-3.89,-3.89,-3.89
290.72,-2.05,1.85,-2.05,1.85,-1.85,-2.06,-1.98,-3.90,-3.90,-3.90
293.63,-2.05,1.84,-2.05,1.85,-1.85,-2.08,-1.97,-3.90,-3.90,-3.89
296.57,-2.05,1.84,-2.05,1.85,-1.85,-2.10,-1.95,-3.90,-3.90,-3.89
299.53,-2.05,1.85,-2.05,1.85,-1.85,-2.12,-1.93,-3.90,-3.90,-3.90
302.53,-2.05,1.83,-2.05,1.85,-1.85,-2.13,-1.91,-3.90,-3.90,-3.88
305.55,-2.05,1.84,-2.05,1.84,-1.84,-2.15,-1.89,-3.89,-3.89,-3.89
308.61,-2.05,1.83,-2.05,1.84,-1.84,-2.16,-1.87,-3.89,-3.89,-3.88
311.69,-2.05,1.84,-2.05,1.84,-1.84,-2.18,-1.85,-3.89,-3.89,-3.89
314.81,-2.05,1.83,-2.05,1.84,-1.84,-2.19,-1.84,-3.89,-3.89,-3.88
317.96,-2.05,1.84,-2.05,1.84,-1.84,-2.20,-1.82,-3.89,-3.89,-3.89
321.14,-2.05,1.83,-2.06,1.83,-1.83,-2.21,-1.81,-3.88,-3.88,-3.88
324.35,-2.05,1.84,-2.06,1.82,-1.82,-2.22,-1.79,-3.87,-3.88,-3.89
327.59,-2.05,1.81,-2.07,1.81,-1.81,-2.23,-1.78,-3.86,-3.87,-3.86
330.87,-2.05,1.82,-2.07,1.80,-1.80,-2.24,-1.77,-3.85,-3.87,-3.87
334.18,-2.05,1.82,-2.06,1.80,-1.80,-2.25,-1.75,-3.85,-3.86,-3.87
337.52,-2.05,1.81,-2.05,1.81,-1.81,-2.25,-1.75,-3.86,-3.86,-3.86
340.90,-2.05,1.80,-2.04,1.81,-1.81,-2.26,-1.74,-3.86,-3.85,-3.85
344.30,-2.05,1.79,-2.02,1.82,-1.82,-2.26,-1.73,-3.87,-3.85,-3.84
347.75,-2.05,1.78,-2.00,1.84,-1.84,-2.26,-1.73,-3.89,-3.84,-3.83
351.23,-2.05,1.79,-1.98,1.85,-1.85,-2.27,-1.72,-3.90,-3.83,-3.84
354.74,-2.05,1.76,-1.96,1.86,-1.86,-2.27,-1.72,-3.91,-3.82,-3.81
358.28,-1.94,1.87,-1.94,1.87,-1.87,-2.27,-1.72,-3.81,-3.82,-3.81
361.87,-1.85,1.96,-1.93,1.88,-1.88,-2.27,-1.72,-3.73,-3.81,-3.81
365.49,-1.82,1.98,-1.91,1.89,-1.89,-2.26,-1.72,-3.71,-3.80,-3.80
369.14,-1.82,1.97,-1.89,1.91,-1.91,-2.26,-1.73,-3.73,-3.80,-3.79
372.83,-1.82,1.96,-1.87,1.93,-1.93,-2.26,-1.73,-3.75,-3.79,-3.78
376.56,-1.82,1.97,-1.84,1.95,-1.95,-2.25,-1.74,-3.77,-3.79,-3.79
380.33,-1.82,1.96,-1.81,1.97,-1.97,-2.25,-1.75,-3.79,-3.78,-3.78
384.13,-1.82,1.95,-1.79,1.99,-1.99,-2.24,-1.76,-3.81,-3.78,-3.77
387.97,-1.82,1.95,-1.76,2.01,-2.01,-2.23,-1.77,-3.83,-3.78,-3.77
391.85,-1.82,1.95,-1.74,2.03,-2.03,-2.22,-1.78,-3.85,-3.77,-3.77
395.77,-1.82,1.96,-1.72,2.04,-2.04,-2.21,-1.80,-3.86,-3.77,-3.78
399.73,-1.76,2.01,-1.71,2.05,-2.05,-2.20,-1.81,-3.81,-3.76,-3.77
403.72,-1.64,2.11,-1.70,2.06,-2.06,-2.19,-1.83,-3.70,-3.76,-3.75
407.76,-1.60,2.15,-1.68,2.07,-2.07,-2.18,-1.84,-3.67,-3.75,-3.75
411.84,-1.60,2.14,-1.66,2.09,-2.09,-2.17,-1.86,-3.69,-3.74,-3.74
415.96,-1.60,2.13,-1.64,2.10,-2.10,-2.16,-1.88,-3.70,-3.73,-3.73
420.12,-1.60,2.13,-1.62,2.10,-2.10,-2.15,-1.89,-3.70,-3.72,-3.73
424.32,-1.60,2.11,-1.61,2.11,-2.11,-2.13,-1.91,-3.71,-3.71,-3.71
