frequency,raw,error,smoothed,error_smoothed,equalization,parametric_eq,fixed_band_eq,equalized_raw,equalized_smoothed,target
20.00,-24.42,-28.74,-24.32,-28.67,28.67,29.17,14.39,4.24,4.35,4.32
20.20,-24.19,-28.56,-24.13,-28.52,28.52,29.01,14.59,4.32,4.38,4.37
20.40,-23.97,-28.39,-23.95,-28.37,28.37,28.80,14.80,4.40,4.42,4.42
20.61,-23.75,-28.19,-23.77,-28.23,28.23,28.56,15.01,4.48,4.45,4.45
20.81,-23.51,-28.01,-23.61,-28.09,28.09,28.30,15.23,4.58,4.48,4.50
21.02,-23.30,-27.84,-23.45,-27.95,27.95,28.03,15.46,4.65,4.51,4.54
21.23,-23.20,-27.76,-23.29,-27.83,27.83,27.76,15.68,4.62,4.53,4.56
21.44,-23.09,-27.67,-23.14,-27.70,27.70,27.49,15.92,4.61,4.56,4.58
21.66,-23.00,-27.59,-23.00,-27.58,27.58,27.22,16.16,4.59,4.58,4.59
21.87,-22.88,-27.49,-22.87,-27.46,27.46,26.97,16.40,4.58,4.59,4.60
22.09,-22.78,-27.41,-22.74,-27.35,27.35,26.73,16.66,4.57,4.61,4.62
22.31,-22.67,-27.30,-22.62,-27.25,27.25,26.49,16.91,4.57,4.62,4.63
22.54,-22.58,-27.21,-22.52,-27.15,27.15,26.27,17.18,4.58,4.63,4.63
22.76,-22.46,-27.09,-22.44,-27.07,27.07,26.06,17.45,4.60,4.63,4.63
22.99,-22.35,-26.97,-22.35,-26.99,26.99,25.86,17.74,4.63,4.63,4.62
23.22,-22.25,-26.87,-22.28,-26.91,26.91,25.67,18.03,4.66,4.63,4.62
23.45,-22.14,-26.76,-22.19,-26.83,26.83,25.49,18.33,4.68,4.63,4.62
23.69,-22.05,-26.67,-22.10,-26.73,26.73,25.33,18.64,4.69,4.64,4.63
23.92,-21.93,-26.56,-22.00,-26.63,26.63,25.17,18.95,4.70,4.64,4.63
24.16,-21.87,-26.51,-21.89,-26.53,26.53,25.02,19.28,4.65,4.63,4.64
24.40,-21.83,-26.48,-21.80,-26.43,26.43,24.88,19.63,4.60,4.63,4.65
24.65,-21.78,-26.42,-21.71,-26.35,26.35,24.75,19.98,4.56,4.63,4.63
24.89,-21.74,-26.38,-21.63,-26.27,26.27,24.62,20.35,4.53,4.63,4.63
25.14,-21.62,-26.25,-21.55,-26.18,26.18,24.51,20.73,4.56,4.63,4.63
25.39,-21.44,-26.08,-21.45,-26.08,26.08,24.40,21.13,4.64,4.64,4.64
25.65,-21.26,-25.91,-21.33,-25.97,25.97,24.30,21.54,4.71,4.64,4.64
25.91,-21.09,-25.72,-21.21,-25.84,25.84,24.20,21.97,4.76,4.64,4.63
26.16,-20.99,-25.62,-21.07,-25.71,25.71,24.12,22.43,4.71,4.63,4.63
26.43,-20.96,-25.59,-20.93,-25.56,25.56,24.03,22.90,4.60,4.63,4.63
26.69,-20.93,-25.56,-20.79,-25.42,25.42,23.96,23.39,4.48,4.63,4.63
26.96,-20.90,-25.54,-20.65,-25.27,25.27,23.89,23.92,4.37,4.63,4.63
27.23,-20.68,-25.31,-20.51,-25.14,25.14,23.82,24.46,4.46,4.62,4.63
27.50,-20.40,-25.03,-20.39,-25.02,25.02,23.76,25.04,4.62,4.62,4.63
27.77,-20.11,-24.73,-20.28,-24.90,24.90,23.71,25.65,4.79,4.62,4.62
28.05,-19.88,-24.50,-20.18,-24.79,24.79,23.66,26.29,4.91,4.62,4.62
28.33,-19.85,-24.46,-20.07,-24.69,24.69,23.61,26.97,4.84,4.62,4.61
28.62,-19.82,-24.43,-19.97,-24.58,24.58,23.57,27.69,4.76,4.62,4.61
28.90,-19.80,-24.42,-19.85,-24.46,24.46,23.53,28.44,4.66,4.61,4.61
29.19,-19.77,-24.38,-19.73,-24.34,24.34,23.50,29.23,4.56,4.61,4.60
29.48,-19.73,-24.35,-19.60,-24.21,24.21,23.47,30.04,4.47,4.61,4.62
29.78,-19.70,-24.31,-19.48,-24.09,24.09,23.44,30.86,4.39,4.61,4.61
30.08,-19.63,-24.24,-19.38,-23.99,23.99,23.41,31.66,4.36,4.61,4.62
30.38,-19.42,-24.02,-19.30,-23.90,23.90,23.39,32.39,4.49,4.60,4.60
30.68,-19.20,-23.81,-19.21,-23.82,23.82,23.37,32.98,4.61,4.60,4.60
30.99,-19.00,-23.60,-19.12,-23.72,23.72,23.34,33.36,4.72,4.60,4.60
31.30,-18.87,-23.46,-19.00,-23.60,23.60,23.32,33.46,4.73,4.60,4.60
31.61,-18.73,-23.33,-18.87,-23.47,23.47,23.31,33.27,4.73,4.59,4.59
31.93,-18.61,-23.20,-18.74,-23.33,23.33,23.29,32.83,4.72,4.59,4.59
32.24,-18.55,-23.13,-18.61,-23.19,23.19,23.27,32.21,4.64,4.59,4.58
32.57,-18.52,-23.11,-18.47,-23.05,23.05,23.25,31.49,4.52,4.58,4.59
32.89,-18.49,-23.08,-18.33,-22.91,22.91,23.23,30.72,4.41,4.58,4.58
33.22,-18.34,-22.91,-18.20,-22.77,22.77,23.21,29.94,4.43,4.57,4.57
33.55,-18.14,-22.71,-18.08,-22.64,22.64,23.18,29.18,4.50,4.57,4.57
33.89,-17.94,-22.50,-17.97,-22.53,22.53,23.15,28.46,4.58,4.56,4.55
34.23,-17.80,-22.37,-17.86,-22.41,22.41,23.12,27.77,4.61,4.56,4.56
34.57,-17.70,-22.25,-17.75,-22.30,22.30,23.09,27.11,4.59,4.55,4.55
34.92,-17.60,-22.14,-17.63,-22.17,22.17,23.05,26.50,4.58,4.55,4.54
35.27,-17.47,-22.01,-17.51,-22.05,22.05,23.01,25.91,4.58,4.54,4.54
35.62,-17.32,-21.86,-17.38,-21.92,21.92,22.96,25.37,4.60,4.54,4.54
35.97,-17.18,-21.71,-17.26,-21.79,21.79,22.90,24.85,4.61,4.53,4.53
36.33,-17.12,-21.66,-17.13,-21.66,21.66,22.84,24.36,4.54,4.53,4.54
36.70,-17.06,-21.59,-17.01,-21.54,21.54,22.77,23.90,4.48,4.53,4.52
37.06,-16.99,-21.51,-16.90,-21.43,21.43,22.70,23.47,4.43,4.53,4.52
37.43,-16.84,-21.38,-16.77,-21.30,21.30,22.62,23.06,4.46,4.53,4.53
37.81,-16.68,-21.21,-16.65,-21.18,21.18,22.53,22.67,4.49,4.53,4.53
38.19,-16.54,-21.07,-16.53,-21.06,21.06,22.43,22.30,4.52,4.53,4.52
38.57,-16.41,-20.94,-16.42,-20.95,20.95,22.32,21.94,4.53,4.53,4.53
38.95,-16.28,-20.81,-16.30,-20.83,20.83,22.21,21.61,4.55,4.53,4.53
39.34,-16.16,-20.69,-16.19,-20.71,20.71,22.09,21.29,4.55,4.53,4.53
39.74,-16.03,-20.56,-16.07,-20.59,20.59,21.96,20.98,4.56,4.52,4.52
40.14,-15.91,-20.43,-15.95,-20.47,20.47,21.82,20.69,4.56,4.52,4.52
40.54,-15.75,-20.26,-15.82,-20.34,20.34,21.67,20.42,4.59,4.52,4.52
40.94,-15.58,-20.10,-15.69,-20.21,20.21,21.52,20.15,4.62,4.51,4.51
41.35,-15.57,-20.08,-15.57,-20.07,20.07,21.36,19.90,4.50,4.51,4.50
41.76,-15.58,-20.08,-15.45,-19.94,19.94,21.19,19.66,4.36,4.50,4.50
42.18,-15.48,-19.98,-15.33,-19.81,19.81,21.01,19.43,4.33,4.49,4.50
42.60,-15.26,-19.74,-15.21,-19.68,19.68,20.83,19.21,4.42,4.48,4.48
43.03,-15.04,-19.52,-15.09,-19.55,19.55,20.65,19.00,4.51,4.46,4.47
43.46,-14.92,-19.39,-14.96,-19.41,19.41,20.46,18.80,4.48,4.45,4.47
43.90,-14.80,-19.23,-14.82,-19.25,19.25,20.26,18.61,4.46,4.44,4.44
44.33,-14.66,-19.08,-14.68,-19.11,19.11,20.07,18.42,4.44,4.42,4.42
44.78,-14.53,-18.93,-14.56,-18.96,18.96,19.86,18.25,4.43,4.41,4.40
45.23,-14.42,-18.80,-14.42,-18.81,18.81,19.66,18.08,4.40,4.39,4.39
45.68,-14.29,-18.66,-14.27,-18.65,18.65,19.45,17.92,4.36,4.38,4.37
46.13,-14.16,-18.51,-14.13,-18.50,18.50,19.24,17.77,4.33,4.36,4.35
46.60,-14.04,-18.39,-14.01,-18.35,18.35,19.04,17.62,4.31,4.34,4.35
47.06,-13.91,-18.24,-13.90,-18.23,18.23,18.82,17.48,4.32,4.33,4.33
47.53,-13.70,-18.02,-13.80,-18.11,18.11,18.61,17.35,4.41,4.31,4.31
48.01,-13.49,-17.81,-13.68,-17.98,17.98,18.40,17.22,4.48,4.29,4.31
48.49,-13.51,-17.80,-13.55,-17.83,17.83,18.19,17.10,4.32,4.28,4.29
48.97,-13.54,-17.81,-13.42,-17.69,17.69,17.98,16.98,4.14,4.26,4.27
49.46,-13.34,-17.59,-13.30,-17.55,17.55,17.78,16.87,4.20,4.25,4.24
49.96,-13.14,-17.35,-13.17,-17.40,17.40,17.57,16.77,4.27,4.23,4.22
50.46,-13.12,-17.34,-13.04,-17.26,17.26,17.37,16.66,4.14,4.22,4.21
50.96,-13.14,-17.34,-12.91,-17.11,17.11,17.16,16.56,3.97,4.20,4.20
51.47,-12.91,-17.09,-12.79,-16.97,16.97,16.97,16.47,4.06,4.19,4.17
51.99,-12.67,-16.82,-12.68,-16.84,16.84,16.77,16.37,4.18,4.17,4.16
52.51,-12.43,-16.58,-12.57,-16.72,16.72,16.58,16.28,4.30,4.15,4.15
53.03,-12.19,-16.34,-12.47,-16.61,16.61,16.39,16.19,4.41,4.14,4.15
53.56,-12.24,-16.37,-12.36,-16.48,16.48,16.20,16.11,4.24,4.12,4.13
54.10,-12.25,-16.36,-12.24,-16.35,16.35,16.02,16.02,4.09,4.11,4.11
54.64,-12.11,-16.20,-12.12,-16.22,16.22,15.85,15.93,4.10,4.10,4.09
55.18,-11.98,-16.06,-12.02,-16.10,16.10,15.68,15.84,4.11,4.08,4.08
55.74,-11.87,-15.94,-11.91,-15.97,15.97,15.51,15.76,4.10,4.07,4.06
56.29,-11.84,-15.89,-11.79,-15.83,15.83,15.35,15.67,3.99,4.05,4.05
56.86,-11.89,-15.92,-11.67,-15.70,15.70,15.20,15.57,3.81,4.03,4.03
57.42,-11.73,-15.73,-11.57,-15.58,15.58,15.05,15.48,3.84,4.01,4.00
58.00,-11.51,-15.50,-11.45,-15.44,15.44,14.91,15.38,3.92,3.99,3.98
58.58,-11.31,-15.28,-11.33,-15.29,15.29,14.77,15.27,3.97,3.96,3.97
59.16,-11.13,-15.08,-11.19,-15.12,15.12,14.64,15.17,3.99,3.93,3.95
59.76,-11.00,-14.92,-11.05,-14.95,14.95,14.51,15.05,3.95,3.90,3.92
60.35,-10.87,-14.75,-10.92,-14.79,14.79,14.39,14.93,3.91,3.86,3.87
60.96,-10.74,-14.58,-10.80,-14.62,14.62,14.28,14.81,3.88,3.83,3.84
61.57,-10.62,-14.41,-10.67,-14.45,14.45,14.17,14.67,3.83,3.79,3.79
62.18,-10.49,-14.23,-10.54,-14.28,14.28,14.06,14.53,3.79,3.74,3.74
62.80,-10.35,-14.05,-10.40,-14.10,14.10,13.95,14.39,3.75,3.70,3.69
63.43,-10.23,-13.88,-10.28,-13.93,13.93,13.85,14.23,3.70,3.65,3.64
64.07,-10.12,-13.72,-10.17,-13.77,13.77,13.74,14.07,3.65,3.60,3.59
64.71,-10.11,-13.65,-10.06,-13.61,13.61,13.63,13.91,3.50,3.55,3.54
65.35,-10.04,-13.54,-9.94,-13.44,13.44,13.52,13.73,3.40,3.50,3.50
66.01,-9.93,-13.38,-9.83,-13.27,13.27,13.40,13.55,3.34,3.44,3.44
66.67,-9.73,-13.12,-9.70,-13.09,13.09,13.27,13.37,3.36,3.39,3.39
67.33,-9.57,-12.91,-9.58,-12.91,12.91,13.12,13.17,3.34,3.34,3.33
68.01,-9.45,-12.74,-9.44,-12.73,12.73,12.97,12.98,3.27,3.28,3.29
68.69,-9.29,-12.52,-9.31,-12.53,12.53,12.80,12.78,3.24,3.23,3.23
69.37,-9.16,-12.33,-9.17,-12.34,12.34,12.62,12.57,3.17,3.17,3.17
70.07,-9.05,-12.17,-9.03,-12.14,12.14,12.42,12.36,3.08,3.11,3.11
70.77,-8.83,-11.90,-8.88,-11.93,11.93,12.21,12.15,3.09,3.05,3.06
71.48,-8.65,-11.66,-8.73,-11.71,11.71,11.99,11.93,3.06,2.99,3.00
72.19,-8.53,-11.46,-8.57,-11.50,11.50,11.77,11.71,2.96,2.93,2.93
72.91,-8.51,-11.38,-8.43,-11.29,11.29,11.53,11.49,2.78,2.86,2.86
73.64,-8.29,-11.09,-8.29,-11.09,11.09,11.29,11.27,2.79,2.80,2.80
74.38,-8.11,-10.85,-8.14,-10.88,10.88,11.04,11.05,2.77,2.74,2.74
75.12,-8.00,-10.67,-8.00,-10.68,10.68,10.80,10.82,2.67,2.67,2.67
75.87,-7.88,-10.49,-7.87,-10.48,10.48,10.55,10.60,2.60,2.61,2.60
76.63,-7.73,-10.28,-7.74,-10.29,10.29,10.30,10.37,2.56,2.55,2.54
77.40,-7.60,-10.09,-7.62,-10.11,10.11,10.06,10.15,2.50,2.49,2.49
78.17,-7.48,-9.90,-7.50,-9.93,9.93,9.82,9.93,2.44,2.43,2.42
78.95,-7.35,-9.73,-7.38,-9.75,9.75,9.59,9.70,2.39,2.37,2.37
79.74,-7.24,-9.56,-7.26,-9.57,9.57,9.36,9.48,2.33,2.31,2.31
80.54,-7.12,-9.38,-7.14,-9.40,9.40,9.14,9.26,2.27,2.26,2.26
81.35,-6.97,-9.17,-7.02,-9.22,9.22,8.92,9.04,2.25,2.20,2.20
82.16,-6.85,-8.99,-6.91,-9.05,9.05,8.70,8.82,2.20,2.14,2.14
82.98,-6.85,-8.95,-6.79,-8.88,8.88,8.50,8.61,2.02,2.09,2.10
83.81,-6.79,-8.82,-6.66,-8.69,8.69,8.29,8.39,1.89,2.03,2.03
84.65,-6.56,-8.54,-6.52,-8.49,8.49,8.10,8.18,1.93,1.97,1.97
85.50,-6.38,-8.31,-6.39,-8.31,8.31,7.90,7.96,1.92,1.92,1.92
86.35,-6.26,-8.13,-6.26,-8.12,8.12,7.71,7.75,1.86,1.86,1.86
87.22,-6.14,-7.95,-6.13,-7.93,7.93,7.53,7.54,1.79,1.80,1.80
88.09,-6.05,-7.80,-6.00,-7.74,7.74,7.35,7.33,1.69,1.74,1.74
88.97,-5.90,-7.59,-5.86,-7.55,7.55,7.17,7.13,1.64,1.68,1.68
89.86,-5.65,-7.28,-5.73,-7.35,7.35,7.00,6.92,1.69,1.62,1.62
90.76,-5.48,-7.04,-5.60,-7.16,7.16,6.83,6.72,1.67,1.56,1.56
91.66,-5.37,-6.88,-5.46,-6.96,6.96,6.67,6.52,1.59,1.50,1.51
92.58,-5.28,-6.72,-5.33,-6.77,6.77,6.51,6.32,1.49,1.44,1.43
93.51,-5.25,-6.63,-5.20,-6.58,6.58,6.35,6.12,1.33,1.38,1.38
94.44,-5.19,-6.52,-5.08,-6.40,6.40,6.19,5.92,1.21,1.32,1.32
95.39,-5.02,-6.29,-4.97,-6.23,6.23,6.04,5.72,1.21,1.26,1.27
96.34,-4.83,-6.04,-4.86,-6.07,6.07,5.89,5.53,1.23,1.21,1.20
97.30,-4.70,-5.85,-4.75,-5.90,5.90,5.74,5.33,1.20,1.15,1.15
98.28,-4.62,-5.71,-4.64,-5.73,5.73,5.59,5.14,1.11,1.09,1.09
99.26,-4.56,-5.60,-4.55,-5.58,5.58,5.44,4.95,1.02,1.03,1.03
100.25,-4.48,-5.46,-4.46,-5.43,5.43,5.30,4.76,0.95,0.97,0.98
101.25,-4.30,-5.22,-4.35,-5.27,5.27,5.16,4.58,0.97,0.92,0.92
102.27,-4.21,-5.07,-4.26,-5.11,5.11,5.02,4.39,0.90,0.86,0.86
103.29,-4.15,-4.95,-4.16,-4.96,4.96,4.88,4.21,0.81,0.80,0.79
104.32,-4.11,-4.86,-4.07,-4.81,4.81,4.74,4.03,0.70,0.74,0.75
105.37,-4.07,-4.76,-3.99,-4.67,4.67,4.60,3.85,0.59,0.68,0.69
106.42,-3.88,-4.51,-3.91,-4.53,4.53,4.47,3.68,0.64,0.62,0.63
107.48,-3.74,-4.31,-3.83,-4.39,4.39,4.33,3.51,0.65,0.56,0.56
108.56,-3.70,-4.20,-3.75,-4.24,4.24,4.20,3.34,0.54,0.50,0.49
109.64,-3.68,-4.12,-3.66,-4.09,4.09,4.07,3.17,0.41,0.43,0.44
110.74,-3.51,-3.88,-3.57,-3.94,3.94,3.93,3.01,0.42,0.37,0.37
111.85,-3.49,-3.82,-3.47,-3.78,3.78,3.80,2.85,0.29,0.31,0.32
112.97,-3.52,-3.77,-3.38,-3.63,3.63,3.67,2.70,0.10,0.25,0.25
114.10,-3.31,-3.50,-3.27,-3.46,3.46,3.54,2.55,0.15,0.19,0.19
115.24,-3.15,-3.29,-3.16,-3.30,3.30,3.40,2.40,0.14,0.14,0.13
116.39,-3.05,-3.12,-3.05,-3.13,3.13,3.27,2.26,0.07,0.08,0.07
117.55,-2.96,-2.98,-2.93,-2.96,2.96,3.14,2.13,-0.00,0.03,0.02
118.73,-2.83,-2.80,-2.82,-2.80,2.80,3.01,2.00,-0.03,-0.02,-0.03
119.92,-2.66,-2.60,-2.71,-2.64,2.64,2.87,1.87,-0.03,-0.07,-0.07
121.12,-2.53,-2.41,-2.58,-2.47,2.47,2.74,1.75,-0.07,-0.12,-0.12
122.33,-2.44,-2.28,-2.46,-2.30,2.30,2.61,1.64,-0.15,-0.16,-0.17
123.55,-2.32,-2.13,-2.34,-2.13,2.13,2.47,1.53,-0.19,-0.20,-0.20
124.79,-2.19,-1.95,-2.22,-1.97,1.97,2.34,1.43,-0.22,-0.25,-0.24
126.03,-2.12,-1.84,-2.10,-1.82,1.82,2.20,1.33,-0.30,-0.28,-0.28
127.29,-1.99,-1.68,-2.00,-1.68,1.68,2.07,1.24,-0.32,-0.32,-0.31
128.57,-1.87,-1.51,-1.90,-1.54,1.54,1.93,1.16,-0.34,-0.36,-0.36
129.85,-1.81,-1.41,-1.80,-1.40,1.40,1.79,1.08,-0.42,-0.40,-0.40
131.15,-1.71,-1.27,-1.70,-1.26,1.26,1.65,1.01,-0.45,-0.44,-0.44
132.46,-1.58,-1.11,-1.60,-1.13,1.13,1.51,0.94,-0.46,-0.48,-0.48
133.79,-1.50,-0.99,-1.51,-1.00,1.00,1.37,0.87,-0.50,-0.51,-0.51
135.12,-1.41,-0.85,-1.42,-0.87,0.87,1.23,0.82,-0.54,-0.55,-0.56
136.48,-1.35,-0.77,-1.33,-0.75,0.75,1.09,0.76,-0.61,-0.58,-0.58
137.84,-1.29,-0.67,-1.24,-0.62,0.62,0.94,0.71,-0.67,-0.62,-0.63
139.22,-1.15,-0.48,-1.16,-0.50,0.50,0.80,0.66,-0.65,-0.66,-0.67
140.61,-1.05,-0.34,-1.07,-0.37,0.37,0.65,0.62,-0.68,-0.70,-0.71
142.02,-1.01,-0.28,-0.99,-0.25,0.25,0.50,0.57,-0.76,-0.74,-0.74
143.44,-0.89,-0.12,-0.90,-0.12,0.12,0.36,0.53,-0.77,-0.78,-0.78
144.87,-0.81,0.01,-0.82,0.00,-0.00,0.21,0.50,-0.82,-0.83,-0.82
146.32,-0.76,0.11,-0.75,0.13,-0.13,0.06,0.46,-0.89,-0.88,-0.87
147.78,-0.69,0.22,-0.68,0.26,-0.26,-0.09,0.43,-0.95,-0.94,-0.91
149.26,-0.59,0.37,-0.61,0.39,-0.39,-0.24,0.39,-0.98,-1.00,-0.97
150.75,-0.55,0.49,-0.55,0.51,-0.51,-0.38,0.36,-1.07,-1.06,-1.04
152.26,-0.49,0.62,-0.50,0.64,-0.64,-0.53,0.33,-1.13,-1.14,-1.12
153.78,-0.41,0.78,-0.45,0.76,-0.76,-0.67,0.30,-1.18,-1.21,-1.19
155.32,-0.35,0.92,-0.40,0.88,-0.88,-0.82,0.26,-1.24,-1.28,-1.27
156.88,-0.33,1.02,-0.36,1.00,-1.00,-0.96,0.23,-1.34,-1.36,-1.35
158.44,-0.34,1.10,-0.33,1.11,-1.11,-1.09,0.20,-1.46,-1.44,-1.44
160.03,-0.35,1.18,-0.30,1.21,-1.21,-1.22,0.17,-1.57,-1.52,-1.53
161.63,-0.24,1.37,-0.27,1.31,-1.31,-1.35,0.13,-1.56,-1.59,-1.61
163.24,-0.22,1.46,-0.25,1.41,-1.41,-1.47,0.10,-1.63,-1.66,-1.68
164.88,-0.26,1.47,-0.22,1.50,-1.50,-1.59,0.06,-1.76,-1.72,-1.74
166.53,-0.26,1.53,-0.19,1.58,-1.58,-1.70,0.02,-1.84,-1.77,-1.79
168.19,-0.17,1.66,-0.18,1.64,-1.64,-1.80,-0.01,-1.82,-1.82,-1.84
169.87,-0.11,1.77,-0.17,1.69,-1.69,-1.89,-0.05,-1.80,-1.86,-1.88
171.57,-0.17,1.73,-0.16,1.73,-1.73,-1.97,-0.10,-1.90,-1.89,-1.90
173.29,-0.19,1.73,-0.15,1.76,-1.76,-2.05,-0.14,-1.96,-1.92,-1.93
175.02,-0.19,1.74,-0.15,1.79,-1.79,-2.11,-0.18,-1.98,-1.94,-1.94
176.77,-0.05,1.90,-0.14,1.81,-1.81,-2.16,-0.23,-1.87,-1.95,-1.96
178.54,-0.04,1.92,-0.13,1.83,-1.83,-2.21,-0.28,-1.88,-1.96,-1.97
180.32,-0.07,1.89,-0.12,1.85,-1.85,-2.24,-0.33,-1.92,-1.98,-1.97
182.13,-0.10,1.86,-0.12,1.86,-1.86,-2.26,-0.38,-1.97,-1.99,-1.96
183.95,-0.20,1.78,-0.12,1.88,-1.88,-2.28,-0.43,-2.08,-2.00,-1.98
185.79,-0.25,1.73,-0.12,1.89,-1.89,-2.28,-0.48,-2.14,-2.01,-1.99
187.65,-0.17,1.84,-0.13,1.89,-1.89,-2.27,-0.54,-2.07,-2.02,-2.01
189.52,-0.13,1.89,-0.15,1.89,-1.89,-2.26,-0.59,-2.02,-2.04,-2.03
191.42,-0.12,1.93,-0.15,1.90,-1.90,-2.24,-0.65,-2.02,-2.05,-2.05
193.33,-0.11,1.96,-0.16,1.91,-1.91,-2.21,-0.71,-2.03,-2.07,-2.07
195.27,-0.09,2.00,-0.17,1.92,-1.92,-2.17,-0.77,-2.02,-2.09,-2.10
197.22,-0.12,1.99,-0.18,1.94,-1.94,-2.13,-0.83,-2.06,-2.12,-2.12
199.19,-0.23,1.91,-0.18,1.96,-1.96,-2.08,-0.89,-2.19,-2.14,-2.15
201.18,-0.27,1.89,-0.20,1.97,-1.97,-2.03,-0.95,-2.24,-2.17,-2.17
203.19,-0.20,1.98,-0.22,1.97,-1.97,-1.97,-1.02,-2.18,-2.19,-2.19
205.23,-0.23,1.98,-0.23,1.99,-1.99,-1.91,-1.08,-2.22,-2.21,-2.22
207.28,-0.35,1.87,-0.25,1.99,-1.99,-1.85,-1.14,-2.34,-2.24,-2.23
209.35,-0.29,1.96,-0.28,1.98,-1.98,-1.79,-1.21,-2.28,-2.26,-2.25
211.44,-0.15,2.14,-0.30,1.98,-1.98,-1.73,-1.27,-2.14,-2.28,-2.29
213.56,-0.23,2.06,-0.33,1.97,-1.97,-1.67,-1.33,-2.20,-2.30,-2.30
215.69,-0.35,1.96,-0.36,1.96,-1.96,-1.60,-1.39,-2.31,-2.32,-2.31
217.85,-0.37,1.96,-0.38,1.95,-1.95,-1.54,-1.45,-2.32,-2.33,-2.33
220.03,-0.53,1.81,-0.40,1.94,-1.94,-1.48,-1.51,-2.47,-2.34,-2.34
222.23,-0.57,1.79,-0.44,1.92,-1.92,-1.42,-1.56,-2.49,-2.35,-2.37
224.45,-0.40,1.96,-0.48,1.87,-1.87,-1.36,-1.61,-2.28,-2.36,-2.36
226.70,-0.38,1.98,-0.53,1.83,-1.83,-1.30,-1.66,-2.22,-2.36,-2.37
228.96,-0.57,1.79,-0.56,1.80,-1.80,-1.24,-1.71,-2.38,-2.36,-2.36
231.25,-0.57,1.78,-0.58,1.77,-1.77,-1.18,-1.75,-2.35,-2.35,-2.35
233.57,-0.61,1.73,-0.62,1.72,-1.72,-1.13,-1.79,-2.34,-2.34,-2.34
235.90,-0.71,1.62,-0.66,1.68,-1.68,-1.07,-1.83,-2.39,-2.33,-2.34
238.26,-0.64,1.68,-0.67,1.64,-1.64,-1.02,-1.86,-2.29,-2.32,-2.33
240.64,-0.69,1.61,-0.68,1.62,-1.62,-0.97,-1.88,-2.31,-2.30,-2.31
243.05,-0.80,1.47,-0.70,1.58,-1.58,-0.93,-1.90,-2.39,-2.28,-2.28
245.48,-0.89,1.37,-0.73,1.53,-1.53,-0.88,-1.92,-2.42,-2.26,-2.26
247.93,-0.77,1.46,-0.77,1.47,-1.47,-0.84,-1.93,-2.24,-2.24,-2.23
250.41,-0.62,1.59,-0.81,1.41,-1.41,-0.80,-1.93,-2.03,-2.22,-2.22
252.92,-0.71,1.47,-0.83,1.37,-1.37,-0.76,-1.93,-2.08,-2.20,-2.19
255.45,-0.83,1.33,-0.85,1.33,-1.33,-0.72,-1.93,-2.16,-2.18,-2.17
258.00,-0.94,1.20,-0.89,1.26,-1.26,-0.68,-1.92,-2.21,-2.15,-2.14
260.58,-0.85,1.28,-0.93,1.20,-1.20,-0.65,-1.90,-2.06,-2.13,-2.13
263.19,-0.89,1.21,-0.95,1.16,-1.16,-0.61,-1.88,-2.05,-2.11,-2.10
265.82,-0.98,1.10,-0.98,1.10,-1.10,-0.58,-1.85,-2.09,-2.08,-2.09
268.48,-1.19,0.87,-1.02,1.04,-1.04,-0.55,-1.82,-2.23,-2.06,-2.07
271.16,-1.19,0.84,-1.05,0.98,-0.98,-0.52,-1.78,-2.18,-2.04,-2.03
273.87,-1.00,1.02,-1.10,0.92,-0.92,-0.50,-1.74,-1.92,-2.01,-2.02
276.61,-1.02,0.96,-1.15,0.84,-0.84,-0.47,-1.70,-1.86,-1.99,-1.99
279.38,-1.16,0.80,-1.19,0.77,-0.77,-0.45,-1.65,-1.93,-1.96,-1.96
282.17,-1.35,0.58,-1.22,0.72,-0.72,-0.42,-1.60,-2.07,-1.94,-1.94
284.99,-1.33,0.57,-1.26,0.65,-0.65,-0.40,-1.55,-1.99,-1.91,-1.90
287.84,-1.16,0.73,-1.29,0.59,-0.59,-0.38,-1.50,-1.75,-1.88,-1.89
290.72,-1.14,0.71,-1.33,0.52,-0.52,-0.36,-1.44,-1.67,-1.85,-1.86
293.63,-1.45,0.38,-1.36,0.47,-0.47,-0.34,-1.38,-1.92,-1.83,-1.83
296.57,-1.52,0.27,-1.39,0.41,-0.41,-0.33,-1.32,-1.93,-1.80,-1.80
299.53,-1.35,0.42,-1.41,0.36,-0.36,-0.31,-1.25,-1.72,-1.77,-1.77
302.53,-1.46,0.29,-1.45,0.29,-0.29,-0.29,-1.19,-1.76,-1.74,-1.75
305.55,-1.52,0.19,-1.50,0.22,-0.22,-0.28,-1.12,-1.74,-1.72,-1.71
308.61,-1.51,0.18,-1.53,0.16,-0.16,-0.26,-1.06,-1.68,-1.70,-1.69
311.69,-1.55,0.11,-1.55,0.13,-0.13,-0.25,-0.99,-1.68,-1.67,-1.67
314.81,-1.64,-0.00,-1.57,0.09,-0.09,-0.24,-0.92,-1.73,-1.65,-1.64
317.96,-1.56,0.06,-1.61,0.03,-0.03,-0.23,-0.86,-1.59,-1.63,-1.63
321.14,-1.58,0.04,-1.65,-0.04,0.04,-0.22,-0.79,-1.55,-1.62,-1.62
324.35,-1.68,-0.08,-1.68,-0.08,0.08,-0.21,-0.72,-1.60,-1.60,-1.60
327.59,-1.70,-0.12,-1.70,-0.11,0.11,-0.20,-0.65,-1.59,-1.59,-1.59
330.87,-1.72,-0.14,-1.74,-0.17,0.17,-0.19,-0.59,-1.55,-1.57,-1.58
334.18,-1.88,-0.32,-1.80,-0.24,0.24,-0.18,-0.52,-1.65,-1.56,-1.56
337.52,-1.84,-0.29,-1.85,-0.29,0.29,-0.17,-0.45,-1.55,-1.55,-1.56
340.90,-1.71,-0.18,-1.88,-0.34,0.34,-0.17,-0.38,-1.38,-1.55,-1.54
344.30,-1.77,-0.24,-1.91,-0.38,0.38,-0.16,-0.32,-1.40,-1.54,-1.53
347.75,-2.02,-0.49,-1.94,-0.40,0.40,-0.15,-0.25,-1.62,-1.53,-1.53
351.23,-2.13,-0.61,-1.96,-0.44,0.44,-0.15,-0.19,-1.70,-1.53,-1.53
354.74,-2.05,-0.52,-2.00,-0.48,0.48,-0.14,-0.12,-1.58,-1.53,-1.53
358.28,-2.00,-0.48,-2.03,-0.51,0.51,-0.14,-0.06,-1.49,-1.52,-1.52
361.87,-2.12,-0.60,-2.06,-0.54,0.54,-0.13,0.01,-1.58,-1.52,-1.52
365.49,-2.24,-0.73,-2.09,-0.57,0.57,-0.13,0.07,-1.68,-1.52,-1.52
369.14,-2.12,-0.60,-2.11,-0.59,0.59,-0.12,0.14,-1.54,-1.52,-1.53
372.83,-2.01,-0.48,-2.13,-0.60,0.60,-0.12,0.20,-1.41,-1.53,-1.53
376.56,-1.92,-0.39,-2.16,-0.63,0.63,-0.12,0.26,-1.30,-1.53,-1.53
380.33,-2.07,-0.55,-2.18,-0.65,0.65,-0.11,0.33,-1.42,-1.53,-1.52
384.13,-2.20,-0.68,-2.20,-0.66,0.66,-0.11,0.39,-1.54,-1.54,-1.53
387.97,-2.36,-0.83,-2.21,-0.67,0.67,-0.11,0.45,-1.69,-1.54,-1.54
391.85,-2.33,-0.78,-2.24,-0.69,0.69,-0.11,0.51,-1.64,-1.54,-1.55
395.77,-2.27,-0.73,-2.27,-0.72,0.72,-0.11,0.57,-1.56,-1.55,-1.54
399.73,-2.25,-0.70,-2.30,-0.74,0.74,-0.11,0.63,-1.52,-1.56,-1.55
403.72,-2.26,-0.71,-2.32,-0.76,0.76,-0.10,0.69,-1.51,-1.56,-1.55
407.76,-2.32,-0.76,-2.35,-0.78,0.78,-0.10,0.75,-1.54,-1.57,-1.57
411.84,-2.39,-0.83,-2.39,-0.82,0.82,-0.10,0.80,-1.57,-1.57,-1.57
