frequency,raw,error,smoothed,error_smoothed,equalization,parametric_eq,fixed_band_eq,equalized_raw,equalized_smoothed,target
20.00,7.13,-4.02,7.11,-4.04,4.04,3.71,1.48,11.18,11.16,11.16
20.20,7.13,-4.01,7.13,-4.02,4.02,3.70,1.52,11.15,11.14,11.14
20.40,7.14,-3.99,7.14,-3.99,3.99,3.70,1.56,11.14,11.13,11.13
20.61,7.15,-3.97,7.15,-3.97,3.97,3.70,1.61,11.12,11.12,11.12
20.81,7.16,-3.94,7.16,-3.94,3.94,3.69,1.66,11.11,11.11,11.10
21.02,7.17,-3.92,7.18,-3.92,3.92,3.69,1.71,11.09,11.10,11.09
21.23,7.18,-3.90,7.19,-3.89,3.89,3.68,1.76,11.08,11.09,11.08
21.44,7.19,-3.90,7.21,-3.87,3.87,3.68,1.81,11.06,11.08,11.09
21.66,7.21,-3.86,7.23,-3.84,3.84,3.67,1.87,11.05,11.07,11.07
21.87,7.22,-3.84,7.24,-3.82,3.82,3.67,1.92,11.04,11.06,11.07
22.09,7.24,-3.80,7.26,-3.79,3.79,3.66,1.98,11.03,11.05,11.05
22.31,7.26,-3.78,7.28,-3.76,3.76,3.66,2.04,11.03,11.04,11.05
22.54,7.29,-3.74,7.31,-3.73,3.73,3.65,2.10,11.02,11.04,11.03
22.76,7.32,-3.71,7.33,-3.70,3.70,3.64,2.16,11.02,11.03,11.03
22.99,7.35,-3.67,7.35,-3.67,3.67,3.64,2.22,11.02,11.02,11.02
23.22,7.38,-3.63,7.38,-3.64,3.64,3.63,2.29,11.03,11.02,11.01
23.45,7.41,-3.61,7.40,-3.62,3.62,3.62,2.35,11.03,11.01,11.02
23.69,7.44,-3.57,7.42,-3.59,3.59,3.62,2.42,11.03,11.01,11.01
23.92,7.46,-3.53,7.44,-3.57,3.57,3.61,2.49,11.03,11.00,11.00
24.16,7.47,-3.53,7.45,-3.55,3.55,3.60,2.56,11.02,11.00,11.01
24.40,7.48,-3.52,7.47,-3.53,3.53,3.60,2.63,11.01,11.00,11.00
24.65,7.49,-3.51,7.48,-3.52,3.52,3.59,2.70,11.01,11.00,11.00
24.89,7.49,-3.51,7.49,-3.50,3.50,3.58,2.78,10.99,10.99,11.00
25.14,7.49,-3.50,7.51,-3.48,3.48,3.57,2.85,10.98,10.99,10.99
25.39,7.50,-3.48,7.52,-3.47,3.47,3.57,2.92,10.97,10.99,10.99
25.65,7.51,-3.47,7.54,-3.45,3.45,3.56,3.00,10.97,10.99,10.99
25.91,7.53,-3.45,7.55,-3.43,3.43,3.55,3.07,10.97,10.99,10.98
26.16,7.55,-3.44,7.57,-3.41,3.41,3.54,3.14,10.97,10.99,10.99
26.43,7.58,-3.41,7.59,-3.39,3.39,3.53,3.22,10.97,10.99,10.99
26.69,7.61,-3.37,7.62,-3.37,3.37,3.52,3.29,10.98,10.99,10.99
26.96,7.64,-3.34,7.64,-3.34,3.34,3.52,3.36,10.98,10.99,10.98
27.23,7.67,-3.31,7.67,-3.32,3.32,3.51,3.43,10.99,10.99,10.98
27.50,7.70,-3.28,7.70,-3.29,3.29,3.50,3.50,10.99,10.99,10.98
27.77,7.73,-3.25,7.72,-3.26,3.26,3.49,3.56,11.00,10.99,10.99
28.05,7.75,-3.23,7.75,-3.24,3.24,3.48,3.62,10.99,10.99,10.98
28.33,7.78,-3.21,7.77,-3.22,3.22,3.47,3.68,11.00,10.99,10.99
28.62,7.80,-3.19,7.79,-3.20,3.20,3.46,3.74,11.01,10.99,10.99
28.90,7.81,-3.18,7.80,-3.19,3.19,3.45,3.79,11.00,10.99,11.00
29.19,7.82,-3.17,7.81,-3.18,3.18,3.44,3.84,11.00,10.99,10.99
29.48,7.83,-3.16,7.82,-3.17,3.17,3.43,3.88,11.00,10.99,10.99
29.78,7.82,-3.16,7.82,-3.16,3.16,3.41,3.92,10.98,10.98,10.99
30.08,7.82,-3.16,7.83,-3.15,3.15,3.40,3.95,10.98,10.98,10.98
30.38,7.82,-3.15,7.83,-3.15,3.15,3.39,3.98,10.97,10.97,10.97
30.68,7.81,-3.15,7.82,-3.14,3.14,3.38,4.00,10.96,10.97,10.97
30.99,7.81,-3.15,7.82,-3.14,3.14,3.37,4.01,10.95,10.96,10.96
31.30,7.81,-3.14,7.82,-3.14,3.14,3.36,4.02,10.95,10.96,10.96
31.61,7.81,-3.14,7.82,-3.13,3.13,3.34,4.02,10.94,10.95,10.95
31.93,7.81,-3.12,7.82,-3.12,3.12,3.33,4.02,10.94,10.94,10.93
32.24,7.81,-3.12,7.82,-3.11,3.11,3.32,4.01,10.93,10.93,10.93
32.57,7.81,-3.11,7.82,-3.11,3.11,3.31,4.00,10.92,10.92,10.92
32.89,7.81,-3.10,7.82,-3.10,3.10,3.29,3.98,10.91,10.92,10.91
33.22,7.81,-3.10,7.82,-3.08,3.08,3.28,3.96,10.90,10.91,10.91
33.55,7.81,-3.09,7.83,-3.07,3.07,3.27,3.93,10.89,10.90,10.90
33.89,7.82,-3.07,7.83,-3.06,3.06,3.25,3.89,10.89,10.89,10.89
34.23,7.82,-3.05,7.83,-3.06,3.06,3.24,3.86,10.88,10.88,10.87
34.57,7.83,-3.03,7.82,-3.05,3.05,3.22,3.82,10.88,10.87,10.87
34.92,7.83,-3.02,7.82,-3.04,3.04,3.21,3.77,10.88,10.86,10.85
35.27,7.82,-3.04,7.81,-3.04,3.04,3.19,3.72,10.86,10.85,10.86
35.62,7.81,-3.02,7.80,-3.04,3.04,3.18,3.67,10.85,10.84,10.84
35.97,7.79,-3.04,7.78,-3.04,3.04,3.16,3.62,10.83,10.82,10.83
36.33,7.77,-3.04,7.76,-3.04,3.04,3.15,3.57,10.82,10.81,10.81
36.70,7.74,-3.04,7.74,-3.05,3.05,3.13,3.51,10.79,10.79,10.79
37.06,7.72,-3.05,7.71,-3.06,3.06,3.12,3.46,10.78,10.77,10.77
37.43,7.69,-3.06,7.69,-3.06,3.06,3.10,3.40,10.76,10.75,10.75
37.81,7.65,-3.08,7.66,-3.07,3.07,3.08,3.35,10.73,10.73,10.73
38.19,7.62,-3.08,7.63,-3.08,3.08,3.07,3.29,10.71,10.71,10.70
38.57,7.59,-3.09,7.60,-3.09,3.09,3.05,3.24,10.68,10.68,10.68
38.95,7.56,-3.10,7.57,-3.09,3.09,3.03,3.18,10.65,10.66,10.66
39.34,7.54,-3.09,7.55,-3.09,3.09,3.02,3.13,10.63,10.64,10.63
39.74,7.51,-3.09,7.53,-3.08,3.08,3.00,3.08,10.60,10.61,10.61
40.14,7.49,-3.09,7.51,-3.07,3.07,2.98,3.02,10.57,10.59,10.58
40.54,7.48,-3.08,7.50,-3.06,3.06,2.96,2.97,10.54,10.56,10.56
40.94,7.47,-3.06,7.50,-3.04,3.04,2.94,2.93,10.52,10.54,10.53
41.35,7.46,-3.05,7.49,-3.02,3.02,2.93,2.88,10.48,10.51,10.51
41.76,7.47,-3.01,7.49,-3.00,3.00,2.91,2.84,10.47,10.49,10.48
42.18,7.48,-2.98,7.49,-2.97,2.97,2.89,2.79,10.45,10.46,10.47
42.60,7.49,-2.94,7.49,-2.94,2.94,2.87,2.75,10.44,10.43,10.43
43.03,7.51,-2.90,7.49,-2.92,2.92,2.85,2.71,10.43,10.41,10.41
43.46,7.51,-2.86,7.49,-2.89,2.89,2.83,2.68,10.41,10.38,10.38
43.90,7.50,-2.85,7.48,-2.87,2.87,2.81,2.64,10.37,10.35,10.35
44.33,7.49,-2.82,7.47,-2.85,2.85,2.79,2.61,10.34,10.32,10.32
44.78,7.48,-2.81,7.46,-2.83,2.83,2.77,2.58,10.31,10.29,10.29
45.23,7.45,-2.81,7.44,-2.81,2.81,2.75,2.55,10.26,10.25,10.26
45.68,7.43,-2.78,7.42,-2.79,2.79,2.73,2.52,10.23,10.22,10.22
46.13,7.40,-2.78,7.40,-2.78,2.78,2.70,2.50,10.18,10.18,10.18
46.60,7.37,-2.77,7.37,-2.77,2.77,2.68,2.48,10.14,10.14,10.14
47.06,7.34,-2.76,7.34,-2.75,2.75,2.66,2.46,10.10,10.10,10.10
47.53,7.31,-2.75,7.31,-2.74,2.74,2.64,2.44,10.05,10.05,10.06
48.01,7.28,-2.72,7.29,-2.72,2.72,2.61,2.42,10.00,10.01,10.00
48.49,7.25,-2.71,7.26,-2.70,2.70,2.59,2.41,9.95,9.96,9.96
48.97,7.22,-2.69,7.24,-2.68,2.68,2.57,2.39,9.90,9.92,9.91
49.46,7.19,-2.68,7.22,-2.65,2.65,2.55,2.38,9.84,9.87,9.87
49.96,7.18,-2.62,7.21,-2.62,2.62,2.52,2.37,9.80,9.82,9.81
50.46,7.17,-2.60,7.19,-2.59,2.59,2.50,2.36,9.76,9.78,9.77
50.96,7.16,-2.57,7.18,-2.55,2.55,2.47,2.35,9.71,9.73,9.73
51.47,7.16,-2.52,7.17,-2.52,2.52,2.45,2.35,9.68,9.68,9.68
51.99,7.16,-2.47,7.15,-2.48,2.48,2.42,2.34,9.64,9.64,9.63
52.51,7.16,-2.43,7.14,-2.45,2.45,2.40,2.34,9.61,9.59,9.59
53.03,7.15,-2.40,7.13,-2.41,2.41,2.37,2.33,9.57,9.54,9.55
53.56,7.14,-2.36,7.11,-2.38,2.38,2.35,2.33,9.53,9.50,9.51
54.10,7.11,-2.33,7.10,-2.35,2.35,2.32,2.32,9.47,9.45,9.45
54.64,7.09,-2.31,7.08,-2.33,2.33,2.30,2.32,9.42,9.41,9.41
55.18,7.06,-2.29,7.06,-2.30,2.30,2.27,2.31,9.36,9.36,9.35
55.74,7.03,-2.27,7.04,-2.28,2.28,2.24,2.31,9.31,9.32,9.30
56.29,7.00,-2.26,7.01,-2.26,2.26,2.22,2.30,9.26,9.27,9.27
56.86,6.97,-2.25,6.99,-2.24,2.24,2.19,2.29,9.21,9.23,9.22
57.42,6.94,-2.22,6.96,-2.22,2.22,2.16,2.29,9.16,9.18,9.17
58.00,6.92,-2.20,6.93,-2.20,2.20,2.13,2.28,9.12,9.13,9.12
58.58,6.90,-2.18,6.90,-2.17,2.17,2.11,2.27,9.08,9.08,9.08
59.16,6.88,-2.16,6.88,-2.15,2.15,2.08,2.25,9.03,9.02,9.04
59.76,6.85,-2.14,6.85,-2.12,2.12,2.05,2.24,8.97,8.97,8.99
60.35,6.83,-2.10,6.83,-2.09,2.09,2.02,2.22,8.92,8.92,8.93
60.96,6.80,-2.07,6.81,-2.05,2.05,1.99,2.21,8.85,8.86,8.87
61.57,6.78,-2.01,6.79,-2.01,2.01,1.96,2.18,8.80,8.80,8.80
62.18,6.76,-1.97,6.76,-1.98,1.98,1.93,2.16,8.74,8.74,8.73
62.80,6.74,-1.92,6.74,-1.94,1.94,1.90,2.14,8.68,8.68,8.67
63.43,6.72,-1.88,6.72,-1.90,1.90,1.87,2.11,8.62,8.62,8.60
64.07,6.69,-1.85,6.70,-1.86,1.86,1.84,2.08,8.55,8.55,8.54
64.71,6.67,-1.81,6.67,-1.82,1.82,1.81,2.05,8.49,8.49,8.48
65.35,6.64,-1.78,6.64,-1.78,1.78,1.78,2.01,8.42,8.43,8.42
66.01,6.62,-1.74,6.62,-1.74,1.74,1.75,1.97,8.37,8.36,8.36
66.67,6.60,-1.70,6.59,-1.71,1.71,1.72,1.94,8.31,8.30,8.31
67.33,6.57,-1.66,6.56,-1.67,1.67,1.68,1.89,8.24,8.23,8.23
68.01,6.54,-1.63,6.54,-1.63,1.63,1.65,1.85,8.18,8.17,8.18
68.69,6.51,-1.60,6.51,-1.60,1.60,1.62,1.81,8.11,8.11,8.11
69.37,6.47,-1.58,6.48,-1.56,1.56,1.59,1.76,8.03,8.04,8.05
70.07,6.44,-1.54,6.46,-1.52,1.52,1.55,1.71,7.96,7.98,7.98
70.77,6.42,-1.49,6.43,-1.48,1.48,1.52,1.66,7.90,7.91,7.91
71.48,6.39,-1.45,6.40,-1.44,1.44,1.49,1.61,7.83,7.84,7.85
72.19,6.37,-1.40,6.38,-1.40,1.40,1.45,1.56,7.77,7.77,7.77
72.91,6.35,-1.35,6.35,-1.36,1.36,1.42,1.51,7.71,7.71,7.70
73.64,6.32,-1.31,6.32,-1.32,1.32,1.39,1.45,7.64,7.64,7.63
74.38,6.30,-1.26,6.29,-1.28,1.28,1.35,1.40,7.58,7.57,7.56
75.12,6.28,-1.22,6.27,-1.24,1.24,1.32,1.34,7.53,7.51,7.51
75.87,6.25,-1.19,6.24,-1.20,1.20,1.28,1.29,7.46,7.45,7.45
76.63,6.22,-1.15,6.22,-1.17,1.17,1.25,1.23,7.39,7.38,7.37
77.40,6.19,-1.13,6.19,-1.13,1.13,1.21,1.18,7.32,7.32,7.32
78.17,6.15,-1.09,6.17,-1.09,1.09,1.18,1.12,7.24,7.26,7.25
78.95,6.12,-1.08,6.14,-1.05,1.05,1.14,1.07,7.18,7.20,7.20
79.74,6.10,-1.03,6.12,-1.02,1.02,1.10,1.01,7.12,7.13,7.14
80.54,6.07,-1.01,6.09,-0.98,0.98,1.07,0.96,7.06,7.07,7.08
81.35,6.06,-0.95,6.06,-0.95,0.95,1.03,0.90,7.01,7.01,7.01
82.16,6.04,-0.92,6.03,-0.92,0.92,0.99,0.85,6.96,6.95,6.96
82.98,6.02,-0.87,6.01,-0.88,0.88,0.95,0.79,6.90,6.89,6.89
83.81,5.99,-0.83,5.97,-0.85,0.85,0.92,0.74,6.84,6.82,6.83
84.65,5.96,-0.79,5.94,-0.81,0.81,0.88,0.68,6.78,6.76,6.75
85.50,5.93,-0.76,5.91,-0.78,0.78,0.84,0.63,6.71,6.69,6.69
86.35,5.89,-0.73,5.88,-0.74,0.74,0.80,0.58,6.64,6.63,6.63
87.22,5.85,-0.71,5.85,-0.71,0.71,0.76,0.52,6.56,6.56,6.56
88.09,5.81,-0.68,5.82,-0.67,0.67,0.72,0.47,6.48,6.49,6.49
88.97,5.77,-0.65,5.79,-0.63,0.63,0.69,0.42,6.40,6.43,6.43
89.86,5.74,-0.61,5.76,-0.59,0.59,0.65,0.37,6.34,6.36,6.36
90.76,5.71,-0.57,5.73,-0.55,0.55,0.61,0.32,6.27,6.28,6.29
91.66,5.69,-0.51,5.70,-0.51,0.51,0.57,0.26,6.20,6.21,6.21
92.58,5.67,-0.47,5.67,-0.47,0.47,0.53,0.21,6.14,6.14,6.15
93.51,5.65,-0.42,5.65,-0.42,0.42,0.49,0.16,6.07,6.07,6.08
94.44,5.63,-0.37,5.62,-0.37,0.37,0.45,0.11,6.01,5.99,6.00
95.39,5.61,-0.31,5.60,-0.32,0.32,0.40,0.06,5.94,5.92,5.92
96.34,5.58,-0.26,5.57,-0.27,0.27,0.36,0.01,5.85,5.85,5.85
97.30,5.55,-0.22,5.55,-0.22,0.22,0.32,-0.04,5.77,5.77,5.77
98.28,5.52,-0.17,5.53,-0.17,0.17,0.28,-0.09,5.69,5.70,5.69
99.26,5.50,-0.11,5.50,-0.12,0.12,0.24,-0.13,5.63,5.63,5.62
100.25,5.47,-0.07,5.48,-0.07,0.07,0.20,-0.18,5.55,5.55,5.54
101.25,5.45,-0.02,5.46,-0.03,0.03,0.15,-0.23,5.48,5.48,5.48
102.27,5.43,0.02,5.43,0.02,-0.02,0.11,-0.28,5.41,5.41,5.41
103.29,5.40,0.07,5.40,0.06,-0.06,0.07,-0.32,5.34,5.34,5.34
104.32,5.38,0.11,5.38,0.11,-0.11,0.03,-0.37,5.28,5.27,5.27
105.37,5.35,0.15,5.35,0.15,-0.15,-0.02,-0.42,5.20,5.20,5.21
106.42,5.32,0.18,5.33,0.19,-0.19,-0.06,-0.46,5.13,5.13,5.14
107.48,5.30,0.24,5.30,0.24,-0.24,-0.10,-0.51,5.06,5.06,5.06
108.56,5.28,0.28,5.28,0.29,-0.29,-0.15,-0.55,5.00,4.99,5.00
109.64,5.26,0.33,5.26,0.33,-0.33,-0.19,-0.59,4.93,4.92,4.93
110.74,5.23,0.37,5.23,0.38,-0.38,-0.23,-0.64,4.86,4.85,4.86
111.85,5.20,0.42,5.20,0.42,-0.42,-0.28,-0.68,4.78,4.78,4.78
112.97,5.17,0.45,5.18,0.47,-0.47,-0.32,-0.72,4.71,4.71,4.72
114.10,5.15,0.51,5.15,0.51,-0.51,-0.37,-0.76,4.64,4.64,4.65
115.24,5.12,0.56,5.13,0.56,-0.56,-0.41,-0.79,4.57,4.57,4.56
116.39,5.10,0.61,5.10,0.60,-0.60,-0.46,-0.83,4.50,4.50,4.49
117.55,5.08,0.67,5.08,0.65,-0.65,-0.50,-0.87,4.44,4.43,4.42
118.73,5.05,0.71,5.05,0.69,-0.69,-0.55,-0.90,4.36,4.36,4.34
119.92,5.02,0.74,5.03,0.74,-0.74,-0.59,-0.93,4.29,4.29,4.28
121.12,4.99,0.77,5.00,0.78,-0.78,-0.64,-0.96,4.21,4.22,4.22
122.33,4.97,0.82,4.98,0.83,-0.83,-0.68,-0.99,4.14,4.15,4.15
123.55,4.95,0.86,4.96,0.88,-0.88,-0.73,-1.02,4.08,4.08,4.09
124.79,4.93,0.91,4.94,0.92,-0.92,-0.77,-1.05,4.01,4.01,4.02
126.03,4.92,0.97,4.92,0.97,-0.97,-0.82,-1.07,3.95,3.95,3.96
127.29,4.89,1.00,4.90,1.02,-1.02,-0.87,-1.10,3.88,3.88,3.89
128.57,4.87,1.06,4.88,1.06,-1.06,-0.91,-1.12,3.81,3.81,3.81
129.85,4.85,1.11,4.85,1.11,-1.11,-0.96,-1.14,3.74,3.75,3.75
131.15,4.84,1.17,4.83,1.15,-1.15,-1.00,-1.16,3.69,3.68,3.67
132.46,4.82,1.21,4.81,1.20,-1.20,-1.05,-1.18,3.62,3.61,3.61
133.79,4.80,1.27,4.79,1.25,-1.25,-1.09,-1.20,3.56,3.54,3.54
135.12,4.77,1.30,4.77,1.29,-1.29,-1.14,-1.22,3.48,3.48,3.48
136.48,4.74,1.33,4.74,1.33,-1.33,-1.19,-1.23,3.41,3.41,3.42
137.84,4.71,1.37,4.72,1.37,-1.37,-1.23,-1.25,3.34,3.35,3.35
139.22,4.68,1.40,4.69,1.41,-1.41,-1.28,-1.27,3.27,3.29,3.28
140.61,4.66,1.44,4.67,1.45,-1.45,-1.32,-1.28,3.22,3.22,3.22
142.02,4.64,1.49,4.65,1.48,-1.48,-1.37,-1.29,3.16,3.16,3.16
143.44,4.62,1.52,4.62,1.52,-1.52,-1.41,-1.31,3.11,3.11,3.10
144.87,4.59,1.54,4.60,1.55,-1.55,-1.46,-1.32,3.04,3.05,3.05
146.32,4.57,1.58,4.57,1.58,-1.58,-1.50,-1.34,2.99,2.99,2.99
147.78,4.55,1.62,4.55,1.61,-1.61,-1.54,-1.35,2.94,2.94,2.94
149.26,4.52,1.64,4.53,1.64,-1.64,-1.59,-1.37,2.88,2.88,2.88
150.75,4.50,1.68,4.50,1.68,-1.68,-1.63,-1.38,2.82,2.82,2.82
152.26,4.48,1.71,4.48,1.71,-1.71,-1.67,-1.40,2.77,2.77,2.77
153.78,4.46,1.74,4.46,1.74,-1.74,-1.72,-1.41,2.72,2.72,2.72
155.32,4.44,1.78,4.43,1.77,-1.77,-1.76,-1.43,2.67,2.66,2.66
156.88,4.41,1.80,4.41,1.80,-1.80,-1.80,-1.45,2.61,2.61,2.61
158.44,4.38,1.83,4.39,1.83,-1.83,-1.84,-1.47,2.55,2.55,2.55
160.03,4.35,1.85,4.36,1.87,-1.87,-1.88,-1.49,2.49,2.50,2.50
161.63,4.33,1.89,4.34,1.90,-1.90,-1.92,-1.51,2.43,2.44,2.44
163.24,4.31,1.93,4.32,1.93,-1.93,-1.96,-1.53,2.38,2.38,2.38
164.88,4.29,1.97,4.29,1.97,-1.97,-2.00,-1.55,2.33,2.33,2.33
166.53,4.27,2.01,4.27,2.00,-2.00,-2.04,-1.58,2.27,2.27,2.26
168.19,4.24,2.02,4.25,2.03,-2.03,-2.08,-1.61,2.21,2.21,2.22
169.87,4.22,2.07,4.22,2.07,-2.07,-2.12,-1.63,2.16,2.16,2.16
171.57,4.20,2.11,4.20,2.10,-2.10,-2.15,-1.66,2.11,2.10,2.10
173.29,4.18,2.14,4.17,2.13,-2.13,-2.19,-1.69,2.05,2.04,2.05
175.02,4.15,2.17,4.15,2.16,-2.16,-2.22,-1.72,1.99,1.99,1.99
176.77,4.13,2.20,4.12,2.19,-2.19,-2.26,-1.75,1.94,1.93,1.93
178.54,4.10,2.23,4.10,2.22,-2.22,-2.29,-1.79,1.88,1.87,1.87
180.32,4.07,2.26,4.07,2.25,-2.25,-2.32,-1.82,1.82,1.82,1.81
182.13,4.04,2.28,4.05,2.29,-2.29,-2.36,-1.86,1.76,1.76,1.77
183.95,4.01,2.30,4.03,2.32,-2.32,-2.39,-1.90,1.70,1.71,1.71
185.79,3.99,2.34,4.00,2.35,-2.35,-2.42,-1.94,1.64,1.65,1.65
187.65,3.97,2.37,3.98,2.38,-2.38,-2.44,-1.98,1.59,1.60,1.60
189.52,3.95,2.40,3.97,2.41,-2.41,-2.47,-2.02,1.54,1.55,1.55
191.42,3.94,2.44,3.95,2.45,-2.45,-2.50,-2.07,1.50,1.50,1.50
193.33,3.92,2.47,3.93,2.48,-2.48,-2.52,-2.11,1.45,1.45,1.46
195.27,3.90,2.50,3.91,2.50,-2.50,-2.55,-2.16,1.40,1.40,1.40
197.22,3.89,2.55,3.89,2.53,-2.53,-2.57,-2.20,1.37,1.36,1.35
199.19,3.88,2.57,3.87,2.55,-2.55,-2.59,-2.25,1.33,1.32,1.31
201.18,3.86,2.60,3.85,2.57,-2.57,-2.61,-2.30,1.29,1.27,1.26
203.19,3.84,2.61,3.83,2.60,-2.60,-2.63,-2.35,1.25,1.23,1.23
205.23,3.82,2.63,3.81,2.61,-2.61,-2.65,-2.40,1.21,1.19,1.20
207.28,3.79,2.64,3.78,2.63,-2.63,-2.66,-2.45,1.16,1.15,1.16
209.35,3.75,2.63,3.76,2.64,-2.64,-2.68,-2.49,1.11,1.12,1.12
211.44,3.72,2.64,3.74,2.66,-2.66,-2.69,-2.54,1.07,1.08,1.08
213.56,3.69,2.64,3.71,2.67,-2.67,-2.70,-2.59,1.03,1.05,1.05
215.69,3.67,2.66,3.69,2.68,-2.68,-2.71,-2.64,0.99,1.01,1.02
217.85,3.66,2.68,3.67,2.69,-2.69,-2.72,-2.68,0.98,0.98,0.98
220.03,3.64,2.70,3.65,2.70,-2.70,-2.73,-2.73,0.95,0.95,0.95
222.23,3.62,2.71,3.62,2.70,-2.70,-2.74,-2.77,0.92,0.92,0.91
224.45,3.60,2.71,3.60,2.71,-2.71,-2.75,-2.81,0.90,0.89,0.89
226.70,3.58,2.72,3.58,2.71,-2.71,-2.75,-2.85,0.87,0.87,0.86
228.96,3.56,2.72,3.56,2.72,-2.72,-2.75,-2.89,0.85,0.84,0.85
231.25,3.54,2.73,3.54,2.72,-2.72,-2.75,-2.92,0.82,0.82,0.82
233.57,3.52,2.73,3.51,2.72,-2.72,-2.75,-2.95,0.81,0.80,0.80
235.90,3.50,2.73,3.49,2.72,-2.72,-2.75,-2.97,0.79,0.78,0.78
238.26,3.47,2.72,3.47,2.71,-2.71,-2.75,-3.00,0.76,0.76,0.75
240.64,3.44,2.69,3.44,2.70,-2.70,-2.75,-3.01,0.74,0.75,0.75
243.05,3.41,2.68,3.42,2.69,-2.69,-2.74,-3.03,0.73,0.73,0.73
245.48,3.38,2.67,3.39,2.67,-2.67,-2.74,-3.04,0.71,0.72,0.72
247.93,3.36,2.66,3.37,2.66,-2.66,-2.73,-3.04,0.70,0.71,0.70
250.41,3.34,2.64,3.35,2.65,-2.65,-2.72,-3.04,0.70,0.70,0.70
252.92,3.32,2.62,3.32,2.63,-2.63,-2.71,-3.04,0.69,0.69,0.70
255.45,3.30,2.62,3.30,2.62,-2.62,-2.70,-3.03,0.69,0.68,0.68
258.00,3.27,2.59,3.28,2.60,-2.60,-2.69,-3.02,0.67,0.68,0.68
260.58,3.25,2.58,3.25,2.58,-2.58,-2.68,-3.00,0.67,0.67,0.68
263.19,3.22,2.55,3.23,2.56,-2.56,-2.66,-2.98,0.66,0.67,0.67
265.82,3.20,2.54,3.21,2.55,-2.55,-2.65,-2.96,0.66,0.66,0.66
268.48,3.19,2.54,3.18,2.53,-2.53,-2.63,-2.93,0.67,0.65,0.66
271.16,3.17,2.52,3.16,2.51,-2.51,-2.62,-2.90,0.67,0.65,0.66
273.87,3.14,2.50,3.13,2.48,-2.48,-2.60,-2.86,0.66,0.64,0.64
276.61,3.11,2.47,3.10,2.46,-2.46,-2.58,-2.83,0.65,0.64,0.64
279.38,3.08,2.46,3.07,2.44,-2.44,-2.56,-2.79,0.65,0.64,0.62
282.17,3.05,2.43,3.05,2.41,-2.41,-2.54,-2.74,0.64,0.63,0.62
284.99,3.02,2.39,3.02,2.39,-2.39,-2.52,-2.70,0.63,0.63,0.63
287.84,2.99,2.36,3.00,2.37,-2.37,-2.50,-2.65,0.62,0.63,0.63
290.72,2.97,2.35,2.98,2.35,-2.35,-2.48,-2.60,0.62,0.63,0.62
293.63,2.95,2.32,2.97,2.34,-2.34,-2.46,-2.56,0.62,0.63,0.64
296.57,2.93,2.30,2.96,2.32,-2.32,-2.44,-2.51,0.61,0.64,0.64
299.53,2.92,2.28,2.95,2.31,-2.31,-2.41,-2.46,0.61,0.64,0.64
302.53,2.92,2.27,2.95,2.30,-2.30,-2.39,-2.41,0.62,0.64,0.65
305.55,2.92,2.28,2.95,2.30,-2.30,-2.37,-2.35,0.63,0.65,0.64
308.61,2.93,2.28,2.95,2.29,-2.29,-2.34,-2.30,0.64,0.65,0.66
311.69,2.95,2.29,2.95,2.29,-2.29,-2.32,-2.25,0.66,0.66,0.66
314.81,2.96,2.30,2.95,2.28,-2.28,-2.29,-2.21,0.68,0.66,0.66
317.96,2.97,2.31,2.95,2.28,-2.28,-2.27,-2.16,0.69,0.67,0.67
321.14,2.97,2.29,2.95,2.27,-2.27,-2.24,-2.11,0.70,0.68,0.68
324.35,2.96,2.29,2.94,2.26,-2.26,-2.22,-2.06,0.70,0.68,0.67
327.59,2.95,2.25,2.93,2.24,-2.24,-2.19,-2.01,0.71,0.69,0.70
330.87,2.93,2.24,2.92,2.23,-2.23,-2.16,-1.97,0.71,0.69,0.69
334.18,2.91,2.22,2.90,2.20,-2.20,-2.14,-1.93,0.71,0.70,0.70
337.52,2.88,2.18,2.88,2.17,-2.17,-2.11,-1.88,0.71,0.71,0.70
340.90,2.85,2.14,2.85,2.14,-2.14,-2.08,-1.84,0.71,0.71,0.72
344.30,2.82,2.10,2.82,2.10,-2.10,-2.06,-1.80,0.72,0.72,0.72
347.75,2.79,2.07,2.79,2.07,-2.07,-2.03,-1.76,0.73,0.73,0.73
351.23,2.76,2.04,2.76,2.03,-2.03,-2.01,-1.73,0.73,0.73,0.72
354.74,2.73,1.98,2.73,1.99,-1.99,-1.98,-1.69,0.74,0.74,0.75
358.28,2.70,1.96,2.71,1.96,-1.96,-1.95,-1.65,0.74,0.75,0.75
361.87,2.67,1.92,2.69,1.94,-1.94,-1.93,-1.62,0.74,0.75,0.75
365.49,2.65,1.90,2.67,1.91,-1.91,-1.90,-1.59,0.74,0.76,0.76
369.14,2.63,1.86,2.66,1.89,-1.89,-1.87,-1.56,0.74,0.77,0.77
372.83,2.61,1.83,2.65,1.87,-1.87,-1.85,-1.53,0.74,0.77,0.78
376.56,2.61,1.84,2.64,1.85,-1.85,-1.82,-1.50,0.76,0.78,0.78
380.33,2.61,1.83,2.63,1.84,-1.84,-1.79,-1.48,0.77,0.79,0.78
384.13,2.62,1.82,2.62,1.82,-1.82,-1.77,-1.45,0.80,0.80,0.80
387.97,2.63,1.83,2.62,1.81,-1.81,-1.74,-1.43,0.83,0.81,0.81
391.85,2.63,1.82,2.61,1.79,-1.79,-1.72,-1.40,0.84,0.82,0.81
395.77,2.63,1.81,2.60,1.77,-1.77,-1.69,-1.38,0.86,0.83,0.82
399.73,2.61,1.78,2.59,1.75,-1.75,-1.66,-1.36,0.86,0.84,0.83
403.72,2.59,1.74,2.58,1.73,-1.73,-1.64,-1.34,0.86,0.84,0.86
407.76,2.57,1.72,2.56,1.71,-1.71,-1.61,-1.32,0.87,0.85,0.85
411.84,2.54,1.68,2.54,1.68,-1.68,-1.59,-1.30,0.86,0.86,0.86
415.96,2.51,1.63,2.52,1.65,-1.65,-1.56,-1.28,0.86,0.87,0.88
420.12,2.48,1.61,2.50,1.62,-1.62,-1.53,-1.27,0.87,0.88,0.88
424.32,2.45,1.57,2.47,1.58,-1.58,-1.51,-1.25,0.87,0.89,0.89
428.56,2.43,1.53,2.44,1.54,-1.54,-1.48,-1.23,0.89,0.90,0.90
432.85,2.41,1.50,2.41,1.50,-1.50,-1.45,-1.22,0.91,0.90,0.91
437.18,2.38,1.47,2.38,1.47,-1.47,-1.43,-1.20,0.92,0.91,0.91
441.55,2.35,1.44,2.35,1.43,-1.43,-1.40,-1.19,0.93,0.92,0.92
445.96,2.32,1.40,2.32,1.39,-1.39,-1.37,-1.17,0.93,0.93,0.93
450.42,2.29,1.36,2.29,1.36,-1.36,-1.34,-1.16,0.94,0.94,0.93
454.93,2.26,1.32,2.27,1.32,-1.32,-1.31,-1.14,0.94,0.95,0.94
459.48,2.23,1.28,2.24,1.29,-1.29,-1.29,-1.12,0.95,0.96,0.95
464.07,2.20,1.23,2.22,1.25,-1.25,-1.26,-1.11,0.95,0.96,0.97
468.71,2.18,1.20,2.19,1.22,-1.22,-1.23,-1.09,0.97,0.97,0.98
473.40,2.15,1.17,2.16,1.18,-1.18,-1.19,-1.07,0.97,0.98,0.99
478.13,2.13,1.14,2.13,1.14,-1.14,-1.16,-1.05,0.99,0.99,1.00
482.91,2.11,1.11,2.11,1.10,-1.10,-1.13,-1.04,1.01,1.00,1.00
487.74,2.09,1.08,2.08,1.06,-1.06,-1.10,-1.02,1.03,1.01,1.01
492.62,2.07,1.05,2.05,1.02,-1.02,-1.06,-1.00,1.05,1.02,1.02
497.55,2.03,1.00,2.02,0.99,-0.99,-1.03,-0.97,1.05,1.04,1.03
502.52,2.00,0.96,1.99,0.95,-0.95,-0.99,-0.95,1.05,1.05,1.04
507.55,1.96,0.90,1.97,0.91,-0.91,-0.96,-0.93,1.05,1.06,1.06
512.62,1.93,0.87,1.94,0.87,-0.87,-0.92,-0.90,1.06,1.07,1.07
517.75,1.89,0.81,1.91,0.83,-0.83,-0.88,-0.88,1.06,1.08,1.09
522.93,1.86,0.77,1.89,0.79,-0.79,-0.84,-0.85,1.07,1.09,1.10
528.16,1.84,0.74,1.86,0.75,-0.75,-0.80,-0.83,1.09,1.11,1.10
533.44,1.82,0.71,1.83,0.71,-0.71,-0.76,-0.80,1.11,1.12,1.11
538.77,1.80,0.68,1.80,0.67,-0.67,-0.72,-0.77,1.13,1.13,1.12
