frequency,raw,error,smoothed,error_smoothed,equalization,parametric_eq,fixed_band_eq,equalized_raw,equalized_smoothed,target
20.00,7.13,-2.33,7.11,-2.35,2.35,2.03,0.74,9.49,9.47,9.46
20.20,7.13,-2.32,7.13,-2.33,2.33,2.02,0.76,9.46,9.46,9.45
20.40,7.14,-2.30,7.14,-2.31,2.31,2.02,0.78,9.45,9.44,9.44
20.61,7.15,-2.28,7.15,-2.28,2.28,2.01,0.81,9.43,9.43,9.44
20.81,7.16,-2.25,7.16,-2.26,2.26,2.01,0.83,9.42,9.42,9.41
21.02,7.17,-2.23,7.18,-2.23,2.23,2.00,0.86,9.40,9.41,9.40
21.23,7.18,-2.21,7.19,-2.21,2.21,2.00,0.88,9.39,9.40,9.39
21.44,7.19,-2.21,7.21,-2.18,2.18,1.99,0.91,9.37,9.39,9.40
21.66,7.21,-2.17,7.23,-2.16,2.16,1.99,0.94,9.37,9.38,9.39
21.87,7.22,-2.16,7.24,-2.13,2.13,1.98,0.97,9.35,9.37,9.38
22.09,7.24,-2.12,7.26,-2.10,2.10,1.97,1.00,9.35,9.37,9.36
22.31,7.26,-2.09,7.28,-2.08,2.08,1.97,1.03,9.34,9.36,9.35
22.54,7.29,-2.05,7.31,-2.05,2.05,1.96,1.06,9.34,9.35,9.34
22.76,7.32,-2.02,7.33,-2.02,2.02,1.95,1.09,9.34,9.35,9.34
22.99,7.35,-1.98,7.35,-1.99,1.99,1.95,1.12,9.34,9.34,9.33
23.22,7.38,-1.94,7.38,-1.96,1.96,1.94,1.16,9.34,9.33,9.32
23.45,7.41,-1.92,7.40,-1.93,1.93,1.93,1.19,9.34,9.33,9.33
23.69,7.44,-1.88,7.42,-1.91,1.91,1.93,1.23,9.35,9.32,9.33
23.92,7.46,-1.85,7.44,-1.88,1.88,1.92,1.26,9.35,9.32,9.31
24.16,7.47,-1.85,7.45,-1.87,1.87,1.91,1.30,9.34,9.32,9.32
24.40,7.48,-1.84,7.47,-1.85,1.85,1.90,1.33,9.33,9.32,9.32
24.65,7.49,-1.82,7.48,-1.83,1.83,1.89,1.37,9.33,9.31,9.31
24.89,7.49,-1.82,7.49,-1.82,1.82,1.89,1.41,9.31,9.31,9.31
25.14,7.49,-1.81,7.51,-1.80,1.80,1.88,1.45,9.30,9.31,9.30
25.39,7.50,-1.80,7.52,-1.79,1.79,1.87,1.48,9.29,9.31,9.30
25.65,7.51,-1.79,7.54,-1.77,1.77,1.86,1.52,9.28,9.31,9.30
25.91,7.53,-1.77,7.55,-1.75,1.75,1.85,1.56,9.29,9.31,9.30
26.16,7.55,-1.76,7.57,-1.73,1.73,1.84,1.60,9.29,9.31,9.31
26.43,7.58,-1.72,7.59,-1.71,1.71,1.84,1.63,9.29,9.31,9.31
26.69,7.61,-1.69,7.62,-1.69,1.69,1.83,1.67,9.30,9.31,9.30
26.96,7.64,-1.66,7.64,-1.66,1.66,1.82,1.71,9.30,9.31,9.30
27.23,7.67,-1.63,7.67,-1.64,1.64,1.81,1.74,9.31,9.31,9.30
27.50,7.70,-1.60,7.70,-1.61,1.61,1.80,1.77,9.32,9.31,9.30
27.77,7.73,-1.58,7.72,-1.59,1.59,1.79,1.81,9.32,9.31,9.31
28.05,7.75,-1.55,7.75,-1.57,1.57,1.78,1.84,9.32,9.31,9.30
28.33,7.78,-1.53,7.77,-1.55,1.55,1.77,1.87,9.33,9.31,9.31
28.62,7.80,-1.51,7.79,-1.53,1.53,1.76,1.89,9.33,9.32,9.31
28.90,7.81,-1.51,7.80,-1.51,1.51,1.75,1.92,9.33,9.31,9.32
29.19,7.82,-1.50,7.81,-1.50,1.50,1.74,1.94,9.33,9.31,9.32
29.48,7.83,-1.48,7.82,-1.50,1.50,1.73,1.96,9.33,9.31,9.31
29.78,7.82,-1.49,7.82,-1.49,1.49,1.72,1.98,9.31,9.31,9.31
30.08,7.82,-1.49,7.83,-1.48,1.48,1.71,1.99,9.31,9.31,9.31
30.38,7.82,-1.47,7.83,-1.48,1.48,1.70,2.01,9.30,9.30,9.30
30.68,7.81,-1.48,7.82,-1.48,1.48,1.68,2.01,9.29,9.30,9.29
30.99,7.81,-1.48,7.82,-1.47,1.47,1.67,2.02,9.29,9.29,9.29
31.30,7.81,-1.48,7.82,-1.47,1.47,1.66,2.02,9.28,9.29,9.29
31.61,7.81,-1.47,7.82,-1.46,1.46,1.65,2.02,9.28,9.28,9.28
31.93,7.81,-1.45,7.82,-1.46,1.46,1.64,2.02,9.27,9.28,9.27
32.24,7.81,-1.46,7.82,-1.45,1.45,1.63,2.01,9.26,9.27,9.27
32.57,7.81,-1.44,7.82,-1.44,1.44,1.61,2.00,9.26,9.26,9.26
32.89,7.81,-1.44,7.82,-1.43,1.43,1.60,1.99,9.25,9.25,9.25
33.22,7.81,-1.43,7.82,-1.42,1.42,1.59,1.97,9.24,9.25,9.24
33.55,7.81,-1.43,7.83,-1.42,1.42,1.58,1.96,9.23,9.24,9.24
33.89,7.82,-1.41,7.83,-1.41,1.41,1.56,1.94,9.23,9.23,9.23
34.23,7.82,-1.39,7.83,-1.40,1.40,1.55,1.91,9.22,9.23,9.21
34.57,7.83,-1.38,7.82,-1.39,1.39,1.54,1.89,9.23,9.22,9.21
34.92,7.83,-1.36,7.82,-1.39,1.39,1.52,1.86,9.22,9.21,9.20
35.27,7.82,-1.39,7.81,-1.39,1.39,1.51,1.83,9.21,9.20,9.21
35.62,7.81,-1.37,7.80,-1.39,1.39,1.50,1.80,9.20,9.19,9.19
35.97,7.79,-1.39,7.78,-1.39,1.39,1.48,1.77,9.19,9.17,9.18
36.33,7.77,-1.39,7.76,-1.40,1.40,1.47,1.74,9.17,9.16,9.16
36.70,7.74,-1.40,7.74,-1.40,1.40,1.46,1.71,9.15,9.14,9.14
37.06,7.72,-1.40,7.71,-1.41,1.41,1.44,1.68,9.14,9.13,9.12
37.43,7.69,-1.41,7.69,-1.42,1.42,1.43,1.64,9.11,9.11,9.10
37.81,7.65,-1.44,7.66,-1.43,1.43,1.41,1.61,9.09,9.09,9.09
38.19,7.62,-1.44,7.63,-1.44,1.44,1.40,1.58,9.07,9.07,9.07
38.57,7.59,-1.45,7.60,-1.45,1.45,1.38,1.54,9.04,9.05,9.04
38.95,7.56,-1.47,7.57,-1.46,1.46,1.37,1.51,9.02,9.03,9.03
39.34,7.54,-1.46,7.55,-1.46,1.46,1.35,1.47,9.00,9.00,9.00
39.74,7.51,-1.46,7.53,-1.45,1.45,1.34,1.44,8.97,8.98,8.98
40.14,7.49,-1.46,7.51,-1.45,1.45,1.32,1.41,8.94,8.96,8.96
40.54,7.48,-1.45,7.50,-1.43,1.43,1.31,1.38,8.92,8.94,8.94
40.94,7.47,-1.43,7.50,-1.42,1.42,1.29,1.35,8.89,8.92,8.90
41.35,7.46,-1.43,7.49,-1.40,1.40,1.28,1.32,8.86,8.89,8.89
41.76,7.47,-1.39,7.49,-1.38,1.38,1.26,1.29,8.85,8.87,8.86
42.18,7.48,-1.37,7.49,-1.36,1.36,1.25,1.26,8.84,8.85,8.85
42.60,7.49,-1.33,7.49,-1.33,1.33,1.23,1.23,8.83,8.82,8.82
43.03,7.51,-1.29,7.49,-1.31,1.31,1.21,1.20,8.82,8.80,8.80
43.46,7.51,-1.25,7.49,-1.29,1.29,1.20,1.18,8.80,8.77,8.76
43.90,7.50,-1.24,7.48,-1.27,1.27,1.18,1.15,8.77,8.75,8.75
44.33,7.49,-1.22,7.47,-1.25,1.25,1.16,1.13,8.74,8.72,8.71
44.78,7.48,-1.21,7.46,-1.23,1.23,1.15,1.11,8.71,8.69,8.69
45.23,7.45,-1.22,7.44,-1.21,1.21,1.13,1.08,8.67,8.66,8.68
45.68,7.43,-1.19,7.42,-1.20,1.20,1.11,1.06,8.64,8.63,8.63
46.13,7.40,-1.19,7.40,-1.19,1.19,1.09,1.04,8.59,8.59,8.59
46.60,7.37,-1.18,7.37,-1.18,1.18,1.08,1.02,8.56,8.55,8.56
47.06,7.34,-1.18,7.34,-1.17,1.17,1.06,1.00,8.52,8.52,8.52
47.53,7.31,-1.17,7.31,-1.16,1.16,1.04,0.99,8.47,8.48,8.48
48.01,7.28,-1.15,7.29,-1.15,1.15,1.02,0.97,8.43,8.44,8.44
48.49,7.25,-1.14,7.26,-1.13,1.13,1.01,0.95,8.39,8.40,8.40
48.97,7.22,-1.12,7.24,-1.11,1.11,0.99,0.94,8.34,8.35,8.34
49.46,7.19,-1.12,7.22,-1.09,1.09,0.97,0.92,8.28,8.31,8.31
49.96,7.18,-1.07,7.21,-1.06,1.06,0.95,0.91,8.25,8.27,8.26
50.46,7.17,-1.05,7.19,-1.04,1.04,0.93,0.89,8.21,8.23,8.23
50.96,7.16,-1.02,7.18,-1.01,1.01,0.91,0.88,8.17,8.19,8.18
51.47,7.16,-0.98,7.17,-0.98,0.98,0.89,0.87,8.14,8.14,8.14
51.99,7.16,-0.93,7.15,-0.95,0.95,0.87,0.86,8.11,8.10,8.10
52.51,7.16,-0.90,7.14,-0.92,0.92,0.86,0.84,8.08,8.06,8.07
53.03,7.15,-0.88,7.13,-0.89,0.89,0.84,0.83,8.04,8.02,8.03
53.56,7.14,-0.84,7.11,-0.87,0.87,0.82,0.82,8.01,7.98,7.98
54.10,7.11,-0.82,7.10,-0.84,0.84,0.80,0.81,7.96,7.94,7.94
54.64,7.09,-0.80,7.08,-0.82,0.82,0.78,0.80,7.91,7.90,7.90
55.18,7.06,-0.79,7.06,-0.80,0.80,0.76,0.79,7.87,7.86,7.85
55.74,7.03,-0.77,7.04,-0.79,0.79,0.74,0.78,7.82,7.82,7.81
56.29,7.00,-0.78,7.01,-0.77,0.77,0.72,0.77,7.78,7.79,7.78
56.86,6.97,-0.77,6.99,-0.76,0.76,0.70,0.75,7.73,7.75,7.75
57.42,6.94,-0.75,6.96,-0.74,0.74,0.68,0.74,7.69,7.70,7.69
58.00,6.92,-0.73,6.93,-0.73,0.73,0.66,0.73,7.65,7.66,7.65
58.58,6.90,-0.72,6.90,-0.71,0.71,0.64,0.71,7.61,7.62,7.62
59.16,6.88,-0.71,6.88,-0.69,0.69,0.61,0.70,7.57,7.57,7.59
59.76,6.85,-0.69,6.85,-0.67,0.67,0.59,0.69,7.52,7.52,7.55
60.35,6.83,-0.66,6.83,-0.65,0.65,0.57,0.67,7.48,7.48,7.49
60.96,6.80,-0.63,6.81,-0.62,0.62,0.55,0.65,7.42,7.43,7.44
61.57,6.78,-0.59,6.79,-0.59,0.59,0.53,0.64,7.37,7.38,7.38
62.18,6.76,-0.55,6.76,-0.56,0.56,0.51,0.62,7.32,7.32,7.31
62.80,6.74,-0.51,6.74,-0.53,0.53,0.49,0.60,7.27,7.27,7.25
63.43,6.72,-0.48,6.72,-0.50,0.50,0.46,0.58,7.22,7.22,7.20
64.07,6.69,-0.46,6.70,-0.47,0.47,0.44,0.56,7.16,7.16,7.16
64.71,6.67,-0.43,6.67,-0.44,0.44,0.42,0.54,7.11,7.11,7.11
65.35,6.64,-0.40,6.64,-0.41,0.41,0.40,0.52,7.05,7.05,7.04
66.01,6.62,-0.37,6.62,-0.38,0.38,0.38,0.49,7.00,7.00,7.00
66.67,6.60,-0.35,6.59,-0.35,0.35,0.35,0.47,6.95,6.94,6.95
67.33,6.57,-0.31,6.56,-0.32,0.32,0.33,0.44,6.90,6.89,6.88
68.01,6.54,-0.29,6.54,-0.30,0.30,0.31,0.42,6.84,6.83,6.84
68.69,6.51,-0.27,6.51,-0.27,0.27,0.28,0.39,6.78,6.78,6.78
69.37,6.47,-0.26,6.48,-0.24,0.24,0.26,0.36,6.71,6.72,6.73
70.07,6.44,-0.23,6.46,-0.21,0.21,0.24,0.33,6.65,6.67,6.67
70.77,6.42,-0.18,6.43,-0.18,0.18,0.21,0.31,6.60,6.61,6.60
71.48,6.39,-0.16,6.40,-0.15,0.15,0.19,0.28,6.54,6.55,6.56
72.19,6.37,-0.12,6.38,-0.12,0.12,0.17,0.25,6.49,6.49,6.49
72.91,6.35,-0.07,6.35,-0.09,0.09,0.14,0.22,6.44,6.44,6.42
73.64,6.32,-0.05,6.32,-0.06,0.06,0.12,0.18,6.38,6.38,6.37
74.38,6.30,-0.01,6.29,-0.03,0.03,0.09,0.15,6.33,6.32,6.31
75.12,6.28,0.02,6.27,-0.00,0.00,0.07,0.12,6.29,6.27,6.26
75.87,6.25,0.04,6.24,0.03,-0.03,0.04,0.09,6.23,6.22,6.21
76.63,6.22,0.07,6.22,0.05,-0.05,0.02,0.05,6.17,6.16,6.15
77.40,6.19,0.08,6.19,0.08,-0.08,-0.01,0.02,6.11,6.11,6.11
78.17,6.15,0.10,6.17,0.11,-0.11,-0.03,-0.01,6.05,6.06,6.05
78.95,6.12,0.11,6.14,0.13,-0.13,-0.06,-0.05,5.99,6.01,6.01
79.74,6.10,0.14,6.12,0.16,-0.16,-0.08,-0.08,5.95,5.96,5.96
80.54,6.07,0.16,6.09,0.18,-0.18,-0.11,-0.12,5.89,5.91,5.91
81.35,6.06,0.21,6.06,0.20,-0.20,-0.13,-0.15,5.86,5.86,5.86
82.16,6.04,0.22,6.03,0.22,-0.22,-0.16,-0.19,5.82,5.81,5.82
82.98,6.02,0.26,6.01,0.24,-0.24,-0.19,-0.23,5.78,5.76,5.76
83.81,5.99,0.28,5.97,0.27,-0.27,-0.21,-0.26,5.73,5.71,5.71
84.65,5.96,0.31,5.94,0.29,-0.29,-0.24,-0.30,5.67,5.65,5.65
85.50,5.93,0.34,5.91,0.31,-0.31,-0.26,-0.34,5.62,5.60,5.60
86.35,5.89,0.35,5.88,0.34,-0.34,-0.29,-0.37,5.56,5.55,5.54
87.22,5.85,0.36,5.85,0.36,-0.36,-0.32,-0.41,5.49,5.49,5.50
88.09,5.81,0.38,5.82,0.39,-0.39,-0.35,-0.45,5.43,5.44,5.44
88.97,5.77,0.40,5.79,0.41,-0.41,-0.37,-0.49,5.36,5.38,5.37
89.86,5.74,0.42,5.76,0.44,-0.44,-0.40,-0.53,5.30,5.32,5.32
90.76,5.71,0.45,5.73,0.47,-0.47,-0.43,-0.56,5.24,5.26,5.27
91.66,5.69,0.50,5.70,0.50,-0.50,-0.46,-0.60,5.19,5.20,5.19
92.58,5.67,0.53,5.67,0.53,-0.53,-0.49,-0.64,5.14,5.14,5.14
93.51,5.65,0.56,5.65,0.57,-0.57,-0.51,-0.68,5.09,5.08,5.10
94.44,5.63,0.60,5.62,0.60,-0.60,-0.54,-0.72,5.03,5.02,5.03
95.39,5.61,0.65,5.60,0.64,-0.64,-0.57,-0.76,4.97,4.96,4.97
96.34,5.58,0.69,5.57,0.68,-0.68,-0.60,-0.81,4.91,4.90,4.89
97.30,5.55,0.72,5.55,0.72,-0.72,-0.63,-0.85,4.84,4.84,4.83
98.28,5.52,0.76,5.53,0.75,-0.75,-0.66,-0.89,4.77,4.78,4.77
99.26,5.50,0.80,5.50,0.79,-0.79,-0.69,-0.93,4.71,4.72,4.70
100.25,5.47,0.83,5.48,0.82,-0.82,-0.72,-0.97,4.65,4.66,4.64
101.25,5.45,0.86,5.46,0.86,-0.86,-0.75,-1.01,4.59,4.60,4.59
102.27,5.43,0.90,5.43,0.89,-0.89,-0.78,-1.05,4.54,4.54,4.54
103.29,5.40,0.93,5.40,0.92,-0.92,-0.81,-1.10,4.48,4.48,4.47
104.32,5.38,0.96,5.38,0.96,-0.96,-0.84,-1.14,4.43,4.42,4.42
105.37,5.35,0.99,5.35,0.99,-0.99,-0.87,-1.18,4.37,4.37,4.37
106.42,5.32,1.01,5.33,1.02,-1.02,-0.90,-1.22,4.31,4.31,4.31
107.48,5.30,1.05,5.30,1.05,-1.05,-0.94,-1.26,4.25,4.25,4.25
108.56,5.28,1.08,5.28,1.08,-1.08,-0.97,-1.30,4.20,4.20,4.20
109.64,5.26,1.12,5.26,1.12,-1.12,-1.00,-1.34,4.15,4.14,4.14
110.74,5.23,1.15,5.23,1.15,-1.15,-1.03,-1.38,4.08,4.08,4.08
111.85,5.20,1.18,5.20,1.18,-1.18,-1.06,-1.41,4.02,4.02,4.02
112.97,5.17,1.20,5.18,1.21,-1.21,-1.09,-1.45,3.96,3.96,3.98
114.10,5.15,1.24,5.15,1.25,-1.25,-1.13,-1.48,3.91,3.90,3.92
115.24,5.12,1.29,5.13,1.28,-1.28,-1.16,-1.52,3.84,3.85,3.84
116.39,5.10,1.33,5.10,1.31,-1.31,-1.19,-1.55,3.79,3.79,3.77
117.55,5.08,1.37,5.08,1.34,-1.34,-1.22,-1.58,3.74,3.73,3.71
118.73,5.05,1.40,5.05,1.38,-1.38,-1.26,-1.61,3.68,3.67,3.65
119.92,5.02,1.41,5.03,1.41,-1.41,-1.29,-1.64,3.61,3.62,3.61
121.12,4.99,1.43,5.00,1.44,-1.44,-1.32,-1.66,3.55,3.56,3.57
122.33,4.97,1.47,4.98,1.48,-1.48,-1.36,-1.68,3.50,3.50,3.51
123.55,4.95,1.50,4.96,1.51,-1.51,-1.39,-1.71,3.44,3.45,3.45
124.79,4.93,1.53,4.94,1.55,-1.55,-1.42,-1.72,3.39,3.39,3.41
126.03,4.92,1.58,4.92,1.58,-1.58,-1.46,-1.74,3.34,3.34,3.34
127.29,4.89,1.60,4.90,1.61,-1.61,-1.49,-1.76,3.28,3.28,3.29
128.57,4.87,1.65,4.88,1.65,-1.65,-1.53,-1.77,3.23,3.23,3.23
129.85,4.85,1.68,4.85,1.68,-1.68,-1.56,-1.78,3.17,3.17,3.17
131.15,4.84,1.73,4.83,1.71,-1.71,-1.59,-1.79,3.13,3.12,3.11
132.46,4.82,1.76,4.81,1.75,-1.75,-1.63,-1.80,3.08,3.06,3.06
133.79,4.80,1.80,4.79,1.78,-1.78,-1.66,-1.81,3.02,3.01,3.01
135.12,4.77,1.82,4.77,1.81,-1.81,-1.69,-1.82,2.96,2.96,2.95
136.48,4.74,1.84,4.74,1.84,-1.84,-1.73,-1.82,2.90,2.90,2.91
137.84,4.71,1.86,4.72,1.87,-1.87,-1.76,-1.83,2.85,2.85,2.85
139.22,4.68,1.89,4.69,1.89,-1.89,-1.79,-1.83,2.79,2.80,2.79
140.61,4.66,1.91,4.67,1.92,-1.92,-1.83,-1.83,2.75,2.75,2.75
142.02,4.64,1.95,4.65,1.94,-1.94,-1.86,-1.83,2.70,2.70,2.69
143.44,4.62,1.97,4.62,1.96,-1.96,-1.90,-1.84,2.66,2.66,2.65
144.87,4.59,1.98,4.60,1.99,-1.99,-1.93,-1.84,2.61,2.61,2.61
146.32,4.57,2.01,4.57,2.01,-2.01,-1.96,-1.84,2.57,2.57,2.56
147.78,4.55,2.03,4.55,2.03,-2.03,-1.99,-1.84,2.53,2.52,2.52
149.26,4.52,2.05,4.53,2.05,-2.05,-2.03,-1.84,2.48,2.48,2.47
150.75,4.50,2.07,4.50,2.07,-2.07,-2.06,-1.84,2.44,2.44,2.43
152.26,4.48,2.09,4.48,2.09,-2.09,-2.09,-1.85,2.40,2.39,2.39
153.78,4.46,2.11,4.46,2.11,-2.11,-2.12,-1.85,2.36,2.35,2.35
155.32,4.44,2.13,4.43,2.13,-2.13,-2.15,-1.85,2.32,2.31,2.31
156.88,4.41,2.15,4.41,2.15,-2.15,-2.18,-1.86,2.27,2.26,2.26
158.44,4.38,2.17,4.39,2.17,-2.17,-2.21,-1.87,2.22,2.22,2.21
160.03,4.35,2.18,4.36,2.19,-2.19,-2.24,-1.87,2.16,2.17,2.17
161.63,4.33,2.20,4.34,2.21,-2.21,-2.27,-1.88,2.12,2.13,2.13
163.24,4.31,2.23,4.32,2.23,-2.23,-2.30,-1.89,2.08,2.08,2.08
164.88,4.29,2.26,4.29,2.26,-2.26,-2.33,-1.90,2.04,2.04,2.03
166.53,4.27,2.29,4.27,2.28,-2.28,-2.36,-1.92,1.99,1.99,1.98
168.19,4.24,2.29,4.25,2.30,-2.30,-2.39,-1.93,1.94,1.94,1.95
169.87,4.22,2.33,4.22,2.33,-2.33,-2.41,-1.95,1.90,1.90,1.89
171.57,4.20,2.36,4.20,2.35,-2.35,-2.44,-1.96,1.85,1.85,1.84
173.29,4.18,2.38,4.17,2.37,-2.37,-2.47,-1.98,1.81,1.80,1.80
175.02,4.15,2.40,4.15,2.39,-2.39,-2.49,-2.00,1.76,1.75,1.75
176.77,4.13,2.43,4.12,2.41,-2.41,-2.51,-2.02,1.72,1.71,1.70
178.54,4.10,2.44,4.10,2.44,-2.44,-2.54,-2.05,1.67,1.66,1.66
180.32,4.07,2.47,4.07,2.46,-2.46,-2.56,-2.07,1.62,1.62,1.60
182.13,4.04,2.47,4.05,2.48,-2.48,-2.58,-2.10,1.56,1.57,1.57
183.95,4.01,2.49,4.03,2.50,-2.50,-2.60,-2.13,1.51,1.52,1.52
185.79,3.99,2.52,4.00,2.53,-2.53,-2.62,-2.16,1.47,1.48,1.47
187.65,3.97,2.54,3.98,2.55,-2.55,-2.64,-2.19,1.42,1.43,1.43
189.52,3.95,2.56,3.97,2.57,-2.57,-2.66,-2.22,1.38,1.39,1.39
191.42,3.94,2.59,3.95,2.60,-2.60,-2.68,-2.26,1.35,1.35,1.35
193.33,3.92,2.61,3.93,2.62,-2.62,-2.69,-2.29,1.30,1.31,1.31
195.27,3.90,2.64,3.91,2.64,-2.64,-2.71,-2.33,1.26,1.27,1.26
197.22,3.89,2.68,3.89,2.66,-2.66,-2.72,-2.37,1.24,1.23,1.21
199.19,3.88,2.70,3.87,2.68,-2.68,-2.73,-2.41,1.21,1.19,1.18
201.18,3.86,2.72,3.85,2.69,-2.69,-2.74,-2.44,1.17,1.16,1.14
203.19,3.84,2.73,3.83,2.71,-2.71,-2.75,-2.49,1.14,1.12,1.11
205.23,3.82,2.73,3.81,2.72,-2.72,-2.76,-2.53,1.11,1.09,1.09
207.28,3.79,2.73,3.78,2.73,-2.73,-2.77,-2.57,1.07,1.06,1.06
209.35,3.75,2.73,3.76,2.74,-2.74,-2.78,-2.61,1.02,1.02,1.02
211.44,3.72,2.73,3.74,2.74,-2.74,-2.79,-2.65,0.98,0.99,0.99
213.56,3.69,2.72,3.71,2.75,-2.75,-2.79,-2.69,0.95,0.97,0.97
215.69,3.67,2.73,3.69,2.75,-2.75,-2.79,-2.73,0.92,0.94,0.94
217.85,3.66,2.75,3.67,2.75,-2.75,-2.80,-2.77,0.91,0.91,0.91
220.03,3.64,2.76,3.65,2.76,-2.76,-2.80,-2.81,0.89,0.89,0.88
222.23,3.62,2.77,3.62,2.76,-2.76,-2.80,-2.84,0.87,0.87,0.85
224.45,3.60,2.76,3.60,2.76,-2.76,-2.80,-2.88,0.84,0.84,0.84
226.70,3.58,2.77,3.58,2.76,-2.76,-2.80,-2.91,0.82,0.82,0.81
228.96,3.56,2.76,3.56,2.76,-2.76,-2.79,-2.94,0.81,0.80,0.80
231.25,3.54,2.76,3.54,2.75,-2.75,-2.79,-2.96,0.79,0.78,0.78
233.57,3.52,2.76,3.51,2.75,-2.75,-2.78,-2.99,0.78,0.77,0.76
235.90,3.50,2.75,3.49,2.74,-2.74,-2.78,-3.01,0.76,0.75,0.75
238.26,3.47,2.75,3.47,2.73,-2.73,-2.77,-3.03,0.74,0.74,0.72
240.64,3.44,2.71,3.44,2.72,-2.72,-2.76,-3.04,0.73,0.73,0.73
243.05,3.41,2.70,3.42,2.70,-2.70,-2.75,-3.05,0.71,0.72,0.71
245.48,3.38,2.68,3.39,2.68,-2.68,-2.74,-3.05,0.70,0.71,0.70
247.93,3.36,2.67,3.37,2.67,-2.67,-2.73,-3.05,0.70,0.70,0.69
250.41,3.34,2.64,3.35,2.65,-2.65,-2.71,-3.05,0.69,0.70,0.70
252.92,3.32,2.63,3.32,2.63,-2.63,-2.70,-3.04,0.69,0.69,0.69
255.45,3.30,2.62,3.30,2.61,-2.61,-2.68,-3.03,0.69,0.69,0.68
258.00,3.27,2.59,3.28,2.59,-2.59,-2.67,-3.02,0.68,0.68,0.68
260.58,3.25,2.57,3.25,2.57,-2.57,-2.65,-3.00,0.68,0.68,0.68
263.19,3.22,2.54,3.23,2.55,-2.55,-2.63,-2.97,0.67,0.68,0.68
265.82,3.20,2.53,3.21,2.53,-2.53,-2.62,-2.95,0.67,0.68,0.67
268.48,3.19,2.52,3.18,2.51,-2.51,-2.60,-2.92,0.68,0.67,0.67
271.16,3.17,2.50,3.16,2.49,-2.49,-2.58,-2.88,0.69,0.67,0.67
273.87,3.14,2.47,3.13,2.46,-2.46,-2.56,-2.85,0.68,0.67,0.67
276.61,3.11,2.44,3.10,2.43,-2.43,-2.54,-2.81,0.68,0.67,0.67
279.38,3.08,2.43,3.07,2.41,-2.41,-2.52,-2.76,0.68,0.67,0.65
282.17,3.05,2.40,3.05,2.38,-2.38,-2.49,-2.72,0.67,0.67,0.65
284.99,3.02,2.36,3.02,2.35,-2.35,-2.47,-2.67,0.67,0.67,0.66
287.84,2.99,2.32,3.00,2.33,-2.33,-2.45,-2.63,0.66,0.67,0.67
290.72,2.97,2.31,2.98,2.31,-2.31,-2.42,-2.58,0.66,0.67,0.66
293.63,2.95,2.28,2.97,2.29,-2.29,-2.40,-2.53,0.66,0.68,0.67
296.57,2.93,2.25,2.96,2.28,-2.28,-2.37,-2.48,0.66,0.68,0.68
299.53,2.92,2.24,2.95,2.26,-2.26,-2.35,-2.42,0.66,0.69,0.68
302.53,2.92,2.22,2.95,2.25,-2.25,-2.32,-2.37,0.67,0.69,0.70
305.55,2.92,2.23,2.95,2.25,-2.25,-2.30,-2.32,0.68,0.70,0.69
308.61,2.93,2.23,2.95,2.24,-2.24,-2.27,-2.27,0.69,0.70,0.70
311.69,2.95,2.24,2.95,2.23,-2.23,-2.25,-2.22,0.72,0.71,0.71
314.81,2.96,2.25,2.95,2.23,-2.23,-2.22,-2.17,0.73,0.72,0.71
317.96,2.97,2.25,2.95,2.22,-2.22,-2.19,-2.12,0.75,0.73,0.72
321.14,2.97,2.24,2.95,2.21,-2.21,-2.17,-2.07,0.76,0.73,0.73
324.35,2.96,2.23,2.94,2.20,-2.20,-2.14,-2.02,0.76,0.74,0.73
327.59,2.95,2.19,2.93,2.18,-2.18,-2.11,-1.97,0.77,0.75,0.76
330.87,2.93,2.18,2.92,2.16,-2.16,-2.09,-1.93,0.77,0.76,0.75
334.18,2.91,2.15,2.90,2.14,-2.14,-2.06,-1.88,0.78,0.76,0.76
337.52,2.88,2.12,2.88,2.11,-2.11,-2.03,-1.84,0.78,0.77,0.76
340.90,2.85,2.07,2.85,2.07,-2.07,-2.01,-1.80,0.78,0.78,0.78
344.30,2.82,2.03,2.82,2.04,-2.04,-1.98,-1.75,0.79,0.79,0.79
347.75,2.79,2.00,2.79,2.00,-2.00,-1.95,-1.71,0.80,0.80,0.79
351.23,2.76,1.97,2.76,1.96,-1.96,-1.92,-1.67,0.81,0.80,0.79
354.74,2.73,1.91,2.73,1.92,-1.92,-1.90,-1.64,0.81,0.81,0.82
358.28,2.70,1.89,2.71,1.89,-1.89,-1.87,-1.60,0.81,0.82,0.81
361.87,2.67,1.85,2.69,1.86,-1.86,-1.84,-1.57,0.81,0.83,0.82
365.49,2.65,1.82,2.67,1.84,-1.84,-1.82,-1.53,0.82,0.84,0.83
369.14,2.63,1.78,2.66,1.81,-1.81,-1.79,-1.50,0.82,0.84,0.85
372.83,2.61,1.76,2.65,1.79,-1.79,-1.77,-1.47,0.82,0.85,0.85
376.56,2.61,1.76,2.64,1.78,-1.78,-1.74,-1.44,0.84,0.86,0.85
380.33,2.61,1.75,2.63,1.76,-1.76,-1.71,-1.41,0.85,0.87,0.86
384.13,2.62,1.74,2.62,1.74,-1.74,-1.69,-1.38,0.88,0.88,0.88
387.97,2.63,1.75,2.62,1.73,-1.73,-1.66,-1.36,0.91,0.89,0.88
391.85,2.63,1.74,2.61,1.71,-1.71,-1.64,-1.33,0.93,0.90,0.89
395.77,2.63,1.73,2.60,1.69,-1.69,-1.61,-1.31,0.94,0.91,0.90
399.73,2.61,1.70,2.59,1.67,-1.67,-1.59,-1.29,0.94,0.92,0.91
403.72,2.59,1.65,2.58,1.65,-1.65,-1.56,-1.26,0.95,0.93,0.94
407.76,2.57,1.64,2.56,1.62,-1.62,-1.53,-1.24,0.95,0.94,0.93
411.84,2.54,1.60,2.54,1.60,-1.60,-1.51,-1.22,0.95,0.95,0.94
415.96,2.51,1.55,2.52,1.56,-1.56,-1.48,-1.20,0.95,0.96,0.96
420.12,2.48,1.52,2.50,1.53,-1.53,-1.46,-1.18,0.95,0.97,0.96
424.32,2.45,1.48,2.47,1.49,-1.49,-1.43,-1.16,0.96,0.98,0.97
428.56,2.43,1.44,2.44,1.45,-1.45,-1.41,-1.14,0.98,0.98,0.99
432.85,2.41,1.41,2.41,1.41,-1.41,-1.38,-1.13,1.00,0.99,1.00
437.18,2.38,1.39,2.38,1.38,-1.38,-1.35,-1.11,1.01,1.00,0.99
441.55,2.35,1.35,2.35,1.34,-1.34,-1.33,-1.09,1.02,1.01,1.00
445.96,2.32,1.31,2.32,1.30,-1.30,-1.30,-1.07,1.02,1.02,1.01
450.42,2.29,1.27,2.29,1.26,-1.26,-1.27,-1.06,1.03,1.03,1.02
454.93,2.26,1.23,2.27,1.23,-1.23,-1.24,-1.04,1.03,1.04,1.03
459.48,2.23,1.19,2.24,1.19,-1.19,-1.21,-1.02,1.04,1.05,1.04
464.07,2.20,1.14,2.22,1.16,-1.16,-1.18,-1.00,1.04,1.06,1.06
468.71,2.18,1.11,2.19,1.13,-1.13,-1.15,-0.98,1.06,1.06,1.07
473.40,2.15,1.08,2.16,1.09,-1.09,-1.12,-0.97,1.06,1.07,1.07
478.13,2.13,1.05,2.13,1.05,-1.05,-1.09,-0.95,1.08,1.08,1.08
482.91,2.11,1.02,2.11,1.01,-1.01,-1.06,-0.93,1.10,1.10,1.09
487.74,2.09,0.99,2.08,0.97,-0.97,-1.02,-0.91,1.12,1.11,1.10
492.62,2.07,0.96,2.05,0.93,-0.93,-0.99,-0.88,1.14,1.12,1.11
497.55,2.03,0.91,2.02,0.89,-0.89,-0.95,-0.86,1.14,1.13,1.12
502.52,2.00,0.87,1.99,0.85,-0.85,-0.92,-0.84,1.15,1.14,1.13
507.55,1.96,0.81,1.97,0.81,-0.81,-0.88,-0.82,1.15,1.15,1.15
512.62,1.93,0.77,1.94,0.78,-0.78,-0.84,-0.79,1.16,1.17,1.16
517.75,1.89,0.71,1.91,0.74,-0.74,-0.80,-0.77,1.16,1.18,1.18
522.93,1.86,0.67,1.89,0.70,-0.70,-0.76,-0.74,1.17,1.19,1.19
528.16,1.84,0.64,1.86,0.66,-0.66,-0.72,-0.71,1.19,1.20,1.20
533.44,1.82,0.61,1.83,0.61,-0.61,-0.68,-0.69,1.21,1.21,1.21
538.77,1.80,0.58,1.80,0.57,-0.57,-0.64,-0.66,1.23,1.23,1.22
544.16,1.78,0.55,1.77,0.53,-0.53,-0.60,-0.63,1.25,1.24,1.23
549.60,1.76,0.52,1.74,0.49,-0.49,-0.55,-0.60,1.27,1.25,1.24
555.10,1.73,0.47,1.71,0.46,-0.46,-0.51,-0.57,1.28,1.26,1.26
560.65,1.69,0.42,1.68,0.42,-0.42,-0.46,-0.54,1.27,1.26,1.27
