frequency,raw,error,smoothed,error_smoothed,equalization,parametric_eq,fixed_band_eq,equalized_raw,equalized_smoothed,target
20.00,-13.08,-14.99,-13.09,-15.02,15.02,15.85,6.63,1.94,1.94,1.91
20.20,-13.00,-15.00,-13.00,-15.01,15.01,15.78,6.78,2.01,2.01,2.00
20.40,-12.91,-14.99,-12.92,-15.01,15.01,15.71,6.94,2.09,2.09,2.08
20.61,-12.84,-14.98,-12.84,-14.99,14.99,15.64,7.10,2.16,2.16,2.15
20.81,-12.75,-14.99,-12.75,-14.98,14.98,15.57,7.26,2.22,2.22,2.24
21.02,-12.66,-14.98,-12.67,-14.96,14.96,15.49,7.43,2.29,2.29,2.32
21.23,-12.58,-14.96,-12.58,-14.94,14.94,15.41,7.60,2.35,2.35,2.38
21.44,-12.50,-14.94,-12.50,-14.91,14.91,15.34,7.78,2.41,2.41,2.44
21.66,-12.42,-14.90,-12.41,-14.89,14.89,15.26,7.96,2.47,2.47,2.49
21.87,-12.33,-14.87,-12.33,-14.86,14.86,15.17,8.15,2.52,2.53,2.54
22.09,-12.24,-14.83,-12.24,-14.82,14.82,15.09,8.34,2.58,2.58,2.59
22.31,-12.16,-14.80,-12.16,-14.79,14.79,15.01,8.53,2.63,2.63,2.64
22.54,-12.08,-14.75,-12.07,-14.75,14.75,14.93,8.74,2.67,2.67,2.67
22.76,-11.98,-14.70,-11.99,-14.70,14.70,14.85,8.94,2.72,2.72,2.71
22.99,-11.89,-14.64,-11.90,-14.66,14.66,14.77,9.16,2.76,2.76,2.74
23.22,-11.81,-14.60,-11.81,-14.61,14.61,14.68,9.37,2.79,2.79,2.78
23.45,-11.72,-14.55,-11.73,-14.56,14.56,14.60,9.60,2.83,2.83,2.82
23.69,-11.64,-14.50,-11.64,-14.51,14.51,14.52,9.83,2.87,2.87,2.86
23.92,-11.55,-14.45,-11.55,-14.45,14.45,14.44,10.06,2.90,2.90,2.90
24.16,-11.46,-14.41,-11.46,-14.40,14.40,14.36,10.30,2.94,2.94,2.95
24.40,-11.37,-14.35,-11.38,-14.35,14.35,14.28,10.55,2.97,2.97,2.98
24.65,-11.30,-14.30,-11.29,-14.29,14.29,14.20,10.80,3.00,3.00,3.01
24.89,-11.20,-14.24,-11.20,-14.24,14.24,14.12,11.06,3.04,3.04,3.04
25.14,-11.11,-14.19,-11.11,-14.19,14.19,14.05,11.33,3.07,3.07,3.08
25.39,-11.02,-14.13,-11.03,-14.13,14.13,13.97,11.60,3.11,3.11,3.10
25.65,-10.94,-14.08,-10.94,-14.07,14.07,13.90,11.88,3.14,3.14,3.14
25.91,-10.85,-14.01,-10.85,-14.02,14.02,13.82,12.16,3.17,3.17,3.16
26.16,-10.75,-13.94,-10.76,-13.96,13.96,13.75,12.45,3.21,3.20,3.19
26.43,-10.68,-13.90,-10.67,-13.90,13.90,13.67,12.74,3.22,3.23,3.23
26.69,-10.58,-13.84,-10.58,-13.84,13.84,13.60,13.03,3.26,3.26,3.26
26.96,-10.50,-13.78,-10.49,-13.78,13.78,13.53,13.33,3.28,3.29,3.29
27.23,-10.41,-13.73,-10.40,-13.72,13.72,13.46,13.63,3.32,3.32,3.32
27.50,-10.32,-13.67,-10.32,-13.66,13.66,13.39,13.93,3.35,3.35,3.35
27.77,-10.22,-13.60,-10.23,-13.61,13.61,13.32,14.22,3.38,3.38,3.37
28.05,-10.13,-13.54,-10.14,-13.55,13.55,13.25,14.51,3.41,3.41,3.41
28.33,-10.05,-13.48,-10.05,-13.49,13.49,13.18,14.80,3.43,3.44,3.43
28.62,-9.97,-13.42,-9.96,-13.43,13.43,13.11,15.08,3.46,3.47,3.46
28.90,-9.87,-13.37,-9.87,-13.37,13.37,13.05,15.34,3.49,3.50,3.50
29.19,-9.78,-13.30,-9.78,-13.31,13.31,12.98,15.59,3.52,3.52,3.51
29.48,-9.69,-13.26,-9.70,-13.25,13.25,12.92,15.81,3.55,3.55,3.56
29.78,-9.62,-13.20,-9.61,-13.19,13.19,12.85,16.02,3.57,3.58,3.58
30.08,-9.53,-13.13,-9.52,-13.13,13.13,12.79,16.19,3.60,3.61,3.61
30.38,-9.44,-13.07,-9.44,-13.07,13.07,12.72,16.33,3.64,3.63,3.64
30.68,-9.34,-13.01,-9.35,-13.01,13.01,12.66,16.44,3.67,3.66,3.66
30.99,-9.26,-12.94,-9.27,-12.96,12.96,12.60,16.50,3.70,3.69,3.68
31.30,-9.19,-12.89,-9.19,-12.90,12.90,12.53,16.53,3.71,3.71,3.71
31.61,-9.10,-12.84,-9.10,-12.84,12.84,12.47,16.52,3.73,3.73,3.74
31.93,-9.03,-12.78,-9.02,-12.78,12.78,12.40,16.47,3.75,3.76,3.75
32.24,-8.94,-12.71,-8.94,-12.71,12.71,12.34,16.38,3.77,3.78,3.77
32.57,-8.86,-12.65,-8.85,-12.65,12.65,12.28,16.26,3.80,3.80,3.80
32.89,-8.77,-12.60,-8.77,-12.59,12.59,12.21,16.11,3.81,3.82,3.83
33.22,-8.68,-12.53,-8.69,-12.53,12.53,12.15,15.93,3.84,3.84,3.84
33.55,-8.60,-12.46,-8.60,-12.46,12.46,12.09,15.73,3.86,3.86,3.86
33.89,-8.52,-12.39,-8.52,-12.39,12.39,12.02,15.51,3.87,3.87,3.87
34.23,-8.44,-12.33,-8.44,-12.33,12.33,11.96,15.27,3.89,3.88,3.89
34.57,-8.35,-12.25,-8.36,-12.25,12.25,11.89,15.03,3.90,3.90,3.90
34.92,-8.27,-12.17,-8.27,-12.18,12.18,11.82,14.77,3.91,3.91,3.91
35.27,-8.19,-12.11,-8.19,-12.11,12.11,11.76,14.51,3.92,3.92,3.92
35.62,-8.11,-12.02,-8.11,-12.03,12.03,11.69,14.25,3.92,3.92,3.92
35.97,-8.03,-11.96,-8.02,-11.95,11.95,11.62,13.99,3.92,3.93,3.92
36.33,-7.94,-11.88,-7.94,-11.87,11.87,11.55,13.73,3.93,3.93,3.94
36.70,-7.86,-11.79,-7.85,-11.79,11.79,11.48,13.47,3.93,3.93,3.94
37.06,-7.77,-11.70,-7.77,-11.71,11.71,11.41,13.22,3.93,3.93,3.93
37.43,-7.68,-11.62,-7.69,-11.62,11.62,11.34,12.96,3.94,3.93,3.94
37.81,-7.59,-11.53,-7.60,-11.53,11.53,11.27,12.72,3.94,3.93,3.93
38.19,-7.52,-11.44,-7.52,-11.45,11.45,11.19,12.48,3.93,3.93,3.93
38.57,-7.42,-11.35,-7.43,-11.36,11.36,11.12,12.25,3.93,3.92,3.93
38.95,-7.34,-11.27,-7.35,-11.26,11.26,11.04,12.02,3.92,3.92,3.92
39.34,-7.25,-11.16,-7.26,-11.17,11.17,10.96,11.80,3.92,3.91,3.91
39.74,-7.18,-11.08,-7.17,-11.08,11.08,10.89,11.58,3.90,3.91,3.90
40.14,-7.09,-10.98,-7.08,-10.98,10.98,10.81,11.38,3.89,3.90,3.90
40.54,-7.00,-10.89,-6.98,-10.88,10.88,10.72,11.18,3.88,3.89,3.89
40.94,-6.89,-10.78,-6.89,-10.78,10.78,10.64,10.99,3.88,3.89,3.88
41.35,-6.80,-10.68,-6.80,-10.67,10.67,10.56,10.80,3.87,3.88,3.88
41.76,-6.70,-10.57,-6.70,-10.57,10.57,10.47,10.62,3.86,3.87,3.87
42.18,-6.60,-10.47,-6.61,-10.46,10.46,10.39,10.45,3.86,3.86,3.86
42.60,-6.49,-10.34,-6.51,-10.35,10.35,10.30,10.28,3.86,3.84,3.84
43.03,-6.39,-10.24,-6.41,-10.24,10.24,10.21,10.12,3.84,3.83,3.85
43.46,-6.30,-10.13,-6.31,-10.13,10.13,10.12,9.97,3.82,3.82,3.83
43.90,-6.21,-10.01,-6.20,-10.01,10.01,10.03,9.82,3.81,3.81,3.81
44.33,-6.10,-9.89,-6.10,-9.90,9.90,9.94,9.68,3.79,3.80,3.79
44.78,-6.01,-9.79,-6.00,-9.78,9.78,9.85,9.55,3.78,3.79,3.78
45.23,-5.91,-9.67,-5.89,-9.67,9.67,9.75,9.42,3.76,3.77,3.76
45.68,-5.80,-9.55,-5.79,-9.55,9.55,9.66,9.30,3.75,3.76,3.75
46.13,-5.68,-9.42,-5.68,-9.43,9.43,9.56,9.18,3.75,3.75,3.74
46.60,-5.58,-9.31,-5.58,-9.31,9.31,9.47,9.07,3.74,3.73,3.74
47.06,-5.47,-9.20,-5.47,-9.19,9.19,9.37,8.97,3.72,3.72,3.73
47.53,-5.36,-9.08,-5.37,-9.08,9.08,9.27,8.87,3.71,3.71,3.72
48.01,-5.26,-8.97,-5.26,-8.96,8.96,9.17,8.77,3.71,3.70,3.71
48.49,-5.16,-8.86,-5.15,-8.85,8.85,9.08,8.68,3.69,3.69,3.70
48.97,-5.05,-8.74,-5.05,-8.74,8.74,8.98,8.60,3.68,3.69,3.69
49.46,-4.94,-8.61,-4.95,-8.63,8.63,8.88,8.51,3.68,3.68,3.67
49.96,-4.85,-8.50,-4.85,-8.52,8.52,8.77,8.44,3.67,3.67,3.65
50.46,-4.75,-8.40,-4.75,-8.42,8.42,8.67,8.36,3.67,3.67,3.66
50.96,-4.65,-8.32,-4.65,-8.31,8.31,8.57,8.29,3.66,3.66,3.66
51.47,-4.55,-8.20,-4.56,-8.21,8.21,8.47,8.23,3.66,3.65,3.65
51.99,-4.47,-8.11,-4.47,-8.11,8.11,8.37,8.16,3.65,3.64,3.64
52.51,-4.38,-8.02,-4.38,-8.02,8.02,8.27,8.10,3.64,3.64,3.64
53.03,-4.29,-7.93,-4.30,-7.93,7.93,8.17,8.04,3.63,3.63,3.64
53.56,-4.21,-7.84,-4.22,-7.84,7.84,8.07,7.98,3.62,3.62,3.63
54.10,-4.15,-7.77,-4.14,-7.75,7.75,7.97,7.93,3.60,3.61,3.62
54.64,-4.07,-7.67,-4.06,-7.67,7.67,7.87,7.88,3.60,3.60,3.60
55.18,-3.99,-7.59,-3.99,-7.58,7.58,7.77,7.82,3.59,3.59,3.59
55.74,-3.92,-7.49,-3.92,-7.50,7.50,7.67,7.77,3.59,3.58,3.57
56.29,-3.84,-7.41,-3.86,-7.42,7.42,7.57,7.72,3.57,3.56,3.56
56.86,-3.79,-7.33,-3.79,-7.34,7.34,7.47,7.66,3.55,3.54,3.54
57.42,-3.72,-7.24,-3.73,-7.25,7.25,7.37,7.61,3.53,3.53,3.52
58.00,-3.67,-7.18,-3.67,-7.17,7.17,7.28,7.55,3.50,3.50,3.51
58.58,-3.61,-7.10,-3.61,-7.09,7.09,7.18,7.49,3.47,3.48,3.48
59.16,-3.56,-7.03,-3.55,-7.01,7.01,7.09,7.44,3.44,3.45,3.47
59.76,-3.51,-6.95,-3.50,-6.92,6.92,7.00,7.37,3.42,3.43,3.44
60.35,-3.44,-6.85,-3.44,-6.84,6.84,6.90,7.31,3.40,3.40,3.41
60.96,-3.38,-6.77,-3.39,-6.76,6.76,6.81,7.24,3.38,3.37,3.39
61.57,-3.33,-6.68,-3.34,-6.68,6.68,6.73,7.17,3.35,3.34,3.34
62.18,-3.28,-6.59,-3.29,-6.61,6.61,6.64,7.10,3.32,3.32,3.30
62.80,-3.23,-6.52,-3.24,-6.53,6.53,6.55,7.03,3.29,3.29,3.28
63.43,-3.18,-6.43,-3.19,-6.45,6.45,6.47,6.95,3.27,3.26,3.24
64.07,-3.14,-6.37,-3.14,-6.37,6.37,6.39,6.87,3.23,3.24,3.22
64.71,-3.09,-6.30,-3.09,-6.30,6.30,6.31,6.78,3.20,3.21,3.20
65.35,-3.04,-6.22,-3.04,-6.23,6.23,6.23,6.69,3.18,3.19,3.18
66.01,-2.99,-6.16,-2.99,-6.15,6.15,6.16,6.60,3.16,3.17,3.17
66.67,-2.94,-6.10,-2.94,-6.09,6.09,6.09,6.51,3.14,3.15,3.15
67.33,-2.89,-6.03,-2.88,-6.02,6.02,6.02,6.41,3.12,3.13,3.14
68.01,-2.84,-5.96,-2.83,-5.95,5.95,5.95,6.31,3.11,3.12,3.12
68.69,-2.79,-5.90,-2.78,-5.89,5.89,5.88,6.21,3.09,3.10,3.10
69.37,-2.74,-5.84,-2.74,-5.83,5.83,5.82,6.11,3.08,3.09,3.09
70.07,-2.69,-5.77,-2.69,-5.77,5.77,5.76,6.01,3.07,3.08,3.07
70.77,-2.64,-5.72,-2.65,-5.71,5.71,5.70,5.91,3.06,3.06,3.07
71.48,-2.59,-5.65,-2.61,-5.65,5.65,5.65,5.80,3.06,3.04,3.05
72.19,-2.55,-5.58,-2.57,-5.60,5.60,5.60,5.70,3.05,3.03,3.03
72.91,-2.52,-5.54,-2.54,-5.55,5.55,5.55,5.59,3.03,3.01,3.02
73.64,-2.51,-5.51,-2.52,-5.51,5.51,5.51,5.49,3.00,2.99,2.99
74.38,-2.49,-5.47,-2.50,-5.47,5.47,5.47,5.38,2.98,2.97,2.98
75.12,-2.48,-5.44,-2.49,-5.44,5.44,5.43,5.28,2.96,2.95,2.95
75.87,-2.47,-5.41,-2.48,-5.42,5.42,5.40,5.18,2.94,2.93,2.93
76.63,-2.48,-5.40,-2.49,-5.40,5.40,5.37,5.08,2.92,2.91,2.92
77.40,-2.49,-5.38,-2.50,-5.39,5.39,5.34,4.98,2.90,2.89,2.89
78.17,-2.50,-5.36,-2.52,-5.39,5.39,5.31,4.88,2.88,2.87,2.86
78.95,-2.52,-5.38,-2.54,-5.39,5.39,5.29,4.78,2.87,2.85,2.86
79.74,-2.53,-5.37,-2.56,-5.40,5.40,5.28,4.69,2.86,2.84,2.83
80.54,-2.56,-5.38,-2.59,-5.41,5.41,5.26,4.60,2.85,2.82,2.81
81.35,-2.60,-5.40,-2.62,-5.42,5.42,5.25,4.51,2.82,2.80,2.80
82.16,-2.64,-5.43,-2.64,-5.44,5.44,5.24,4.42,2.79,2.79,2.78
82.98,-2.68,-5.46,-2.67,-5.45,5.45,5.23,4.33,2.76,2.78,2.78
83.81,-2.71,-5.48,-2.69,-5.45,5.45,5.23,4.25,2.74,2.77,2.76
84.65,-2.73,-5.48,-2.70,-5.45,5.45,5.22,4.17,2.72,2.76,2.74
85.50,-2.73,-5.48,-2.71,-5.45,5.45,5.22,4.09,2.72,2.74,2.75
86.35,-2.74,-5.48,-2.71,-5.44,5.44,5.22,4.02,2.69,2.73,2.74
87.22,-2.73,-5.45,-2.70,-5.42,5.42,5.21,3.94,2.68,2.72,2.72
88.09,-2.71,-5.42,-2.69,-5.39,5.39,5.21,3.87,2.67,2.70,2.71
88.97,-2.67,-5.37,-2.67,-5.35,5.35,5.20,3.80,2.68,2.69,2.70
89.86,-2.64,-5.32,-2.64,-5.31,5.31,5.19,3.74,2.66,2.67,2.67
90.76,-2.59,-5.24,-2.61,-5.25,5.25,5.18,3.67,2.66,2.64,2.64
91.66,-2.56,-5.18,-2.58,-5.19,5.19,5.16,3.61,2.63,2.61,2.62
92.58,-2.53,-5.11,-2.55,-5.13,5.13,5.14,3.55,2.59,2.58,2.57
93.51,-2.50,-5.05,-2.52,-5.06,5.06,5.11,3.50,2.56,2.54,2.55
94.44,-2.47,-4.98,-2.50,-4.99,4.99,5.07,3.44,2.52,2.49,2.50
95.39,-2.44,-4.90,-2.47,-4.92,4.92,5.02,3.39,2.47,2.45,2.46
96.34,-2.43,-4.84,-2.45,-4.85,4.85,4.97,3.34,2.41,2.39,2.40
97.30,-2.42,-4.76,-2.44,-4.78,4.78,4.91,3.29,2.35,2.34,2.34
98.28,-2.41,-4.70,-2.43,-4.70,4.70,4.84,3.24,2.29,2.28,2.28
99.26,-2.40,-4.62,-2.42,-4.63,4.63,4.75,3.20,2.23,2.21,2.21
100.25,-2.39,-4.54,-2.41,-4.56,4.56,4.67,3.16,2.16,2.15,2.15
101.25,-2.38,-4.46,-2.40,-4.48,4.48,4.57,3.11,2.10,2.08,2.08
102.27,-2.38,-4.40,-2.38,-4.40,4.40,4.46,3.07,2.01,2.01,2.01
103.29,-2.37,-4.31,-2.36,-4.31,4.31,4.35,3.03,1.93,1.94,1.93
104.32,-2.36,-4.24,-2.34,-4.21,4.21,4.23,3.00,1.85,1.87,1.88
105.37,-2.33,-4.13,-2.31,-4.11,4.11,4.10,2.96,1.78,1.80,1.80
106.42,-2.30,-4.04,-2.27,-4.00,4.00,3.97,2.92,1.70,1.73,1.73
107.48,-2.26,-3.93,-2.22,-3.89,3.89,3.84,2.89,1.63,1.67,1.66
108.56,-2.19,-3.79,-2.17,-3.77,3.77,3.70,2.86,1.58,1.60,1.60
109.64,-2.11,-3.64,-2.11,-3.64,3.64,3.56,2.82,1.53,1.53,1.53
110.74,-2.04,-3.52,-2.04,-3.51,3.51,3.42,2.79,1.47,1.47,1.47
111.85,-1.96,-3.38,-1.97,-3.37,3.37,3.27,2.75,1.41,1.41,1.41
112.97,-1.87,-3.21,-1.89,-3.23,3.23,3.13,2.72,1.36,1.34,1.34
114.10,-1.78,-3.08,-1.80,-3.09,3.09,2.99,2.68,1.30,1.29,1.29
115.24,-1.69,-2.92,-1.71,-2.94,2.94,2.85,2.65,1.25,1.23,1.22
116.39,-1.63,-2.80,-1.62,-2.80,2.80,2.71,2.61,1.17,1.18,1.17
117.55,-1.55,-2.68,-1.53,-2.66,2.66,2.57,2.58,1.11,1.13,1.12
118.73,-1.44,-2.51,-1.44,-2.52,2.52,2.43,2.54,1.08,1.08,1.07
119.92,-1.34,-2.38,-1.35,-2.39,2.39,2.30,2.50,1.04,1.04,1.03
121.12,-1.23,-2.21,-1.26,-2.25,2.25,2.17,2.46,1.03,0.99,0.99
122.33,-1.16,-2.11,-1.17,-2.12,2.12,2.04,2.42,0.96,0.95,0.95
123.55,-1.09,-2.01,-1.08,-1.99,1.99,1.92,2.38,0.90,0.91,0.91
124.79,-1.00,-1.87,-1.00,-1.86,1.86,1.80,2.33,0.87,0.87,0.87
126.03,-0.90,-1.74,-0.91,-1.74,1.74,1.68,2.29,0.84,0.83,0.84
127.29,-0.85,-1.65,-0.83,-1.62,1.62,1.57,2.24,0.77,0.79,0.80
128.57,-0.78,-1.53,-0.74,-1.50,1.50,1.46,2.19,0.72,0.76,0.75
129.85,-0.66,-1.39,-0.67,-1.38,1.38,1.35,2.14,0.72,0.72,0.72
131.15,-0.56,-1.25,-0.59,-1.27,1.27,1.25,2.09,0.71,0.68,0.68
132.46,-0.51,-1.15,-0.52,-1.16,1.16,1.15,2.03,0.65,0.64,0.63
133.79,-0.44,-1.05,-0.46,-1.06,1.06,1.05,1.98,0.61,0.60,0.61
135.12,-0.37,-0.94,-0.39,-0.96,0.96,0.96,1.92,0.58,0.56,0.56
136.48,-0.33,-0.86,-0.34,-0.86,0.86,0.87,1.86,0.52,0.52,0.53
137.84,-0.28,-0.77,-0.29,-0.77,0.77,0.78,1.80,0.48,0.48,0.48
139.22,-0.25,-0.69,-0.24,-0.68,0.68,0.69,1.74,0.43,0.44,0.43
140.61,-0.20,-0.59,-0.21,-0.60,0.60,0.61,1.68,0.40,0.40,0.39
142.02,-0.15,-0.51,-0.18,-0.53,0.53,0.54,1.62,0.38,0.35,0.36
143.44,-0.14,-0.46,-0.16,-0.47,0.47,0.46,1.56,0.32,0.31,0.32
144.87,-0.12,-0.39,-0.14,-0.41,0.41,0.39,1.49,0.28,0.27,0.27
146.32,-0.11,-0.33,-0.13,-0.35,0.35,0.32,1.43,0.24,0.22,0.22
147.78,-0.11,-0.30,-0.12,-0.30,0.30,0.25,1.36,0.18,0.18,0.18
149.26,-0.11,-0.25,-0.12,-0.25,0.25,0.18,1.29,0.13,0.13,0.14
150.75,-0.12,-0.20,-0.12,-0.20,0.20,0.12,1.23,0.07,0.08,0.08
152.26,-0.13,-0.17,-0.12,-0.15,0.15,0.06,1.16,0.02,0.03,0.04
153.78,-0.13,-0.13,-0.12,-0.10,0.10,0.00,1.09,-0.03,-0.01,-0.01
155.32,-0.13,-0.07,-0.12,-0.06,0.06,-0.05,1.03,-0.08,-0.06,-0.06
156.88,-0.13,-0.03,-0.13,-0.01,0.01,-0.11,0.96,-0.12,-0.11,-0.10
158.44,-0.13,0.03,-0.13,0.03,-0.03,-0.16,0.89,-0.17,-0.16,-0.16
160.03,-0.13,0.08,-0.13,0.08,-0.08,-0.21,0.82,-0.22,-0.21,-0.21
161.63,-0.13,0.14,-0.13,0.13,-0.13,-0.26,0.75,-0.26,-0.26,-0.27
163.24,-0.13,0.18,-0.14,0.18,-0.18,-0.30,0.68,-0.31,-0.31,-0.32
164.88,-0.13,0.23,-0.14,0.23,-0.23,-0.35,0.61,-0.36,-0.36,-0.36
166.53,-0.13,0.28,-0.14,0.27,-0.27,-0.39,0.54,-0.41,-0.41,-0.41
168.19,-0.13,0.32,-0.14,0.32,-0.32,-0.43,0.47,-0.46,-0.46,-0.46
169.87,-0.13,0.36,-0.13,0.37,-0.37,-0.47,0.40,-0.50,-0.50,-0.50
171.57,-0.13,0.41,-0.13,0.41,-0.41,-0.51,0.33,-0.54,-0.54,-0.54
173.29,-0.13,0.45,-0.13,0.45,-0.45,-0.54,0.26,-0.59,-0.59,-0.58
175.02,-0.13,0.49,-0.13,0.49,-0.49,-0.58,0.19,-0.63,-0.63,-0.63
176.77,-0.13,0.53,-0.13,0.53,-0.53,-0.61,0.12,-0.66,-0.66,-0.67
178.54,-0.13,0.57,-0.13,0.56,-0.56,-0.64,0.05,-0.70,-0.70,-0.70
180.32,-0.13,0.60,-0.13,0.59,-0.59,-0.67,-0.02,-0.73,-0.73,-0.73
182.13,-0.13,0.63,-0.14,0.62,-0.62,-0.70,-0.09,-0.76,-0.76,-0.76
183.95,-0.13,0.65,-0.14,0.65,-0.65,-0.72,-0.16,-0.78,-0.79,-0.79
185.79,-0.13,0.68,-0.14,0.67,-0.67,-0.75,-0.23,-0.80,-0.81,-0.81
187.65,-0.13,0.71,-0.15,0.69,-0.69,-0.77,-0.30,-0.82,-0.84,-0.84
189.52,-0.13,0.72,-0.15,0.71,-0.71,-0.79,-0.37,-0.84,-0.86,-0.85
191.42,-0.13,0.74,-0.15,0.73,-0.73,-0.81,-0.44,-0.86,-0.88,-0.88
193.33,-0.14,0.75,-0.15,0.74,-0.74,-0.83,-0.51,-0.89,-0.90,-0.89
195.27,-0.15,0.75,-0.15,0.77,-0.77,-0.85,-0.58,-0.92,-0.91,-0.90
197.22,-0.15,0.77,-0.14,0.79,-0.79,-0.87,-0.65,-0.94,-0.93,-0.93
199.19,-0.15,0.80,-0.13,0.82,-0.82,-0.89,-0.72,-0.97,-0.95,-0.96
201.18,-0.14,0.82,-0.11,0.85,-0.85,-0.90,-0.79,-0.99,-0.96,-0.97
203.19,-0.13,0.84,-0.10,0.88,-0.88,-0.91,-0.86,-1.02,-0.98,-0.98
205.23,-0.10,0.89,-0.07,0.92,-0.92,-0.93,-0.93,-1.03,-0.99,-1.00
207.28,-0.07,0.93,-0.05,0.96,-0.96,-0.94,-0.99,-1.03,-1.01,-1.00
209.35,-0.03,0.99,-0.03,1.00,-1.00,-0.95,-1.06,-1.03,-1.03,-1.02
211.44,0.01,1.05,-0.00,1.04,-1.04,-0.96,-1.12,-1.03,-1.04,-1.05
213.56,0.04,1.09,0.02,1.08,-1.08,-0.97,-1.18,-1.04,-1.06,-1.06
215.69,0.08,1.14,0.04,1.11,-1.11,-0.97,-1.24,-1.04,-1.07,-1.06
217.85,0.09,1.17,0.06,1.14,-1.14,-0.98,-1.30,-1.06,-1.09,-1.09
220.03,0.10,1.20,0.07,1.17,-1.17,-0.98,-1.36,-1.07,-1.10,-1.10
222.23,0.10,1.22,0.07,1.18,-1.18,-0.99,-1.41,-1.09,-1.12,-1.13
224.45,0.09,1.22,0.06,1.20,-1.20,-0.99,-1.46,-1.11,-1.13,-1.13
226.70,0.08,1.22,0.05,1.20,-1.20,-0.99,-1.51,-1.13,-1.15,-1.14
228.96,0.06,1.21,0.04,1.20,-1.20,-0.99,-1.55,-1.15,-1.17,-1.16
231.25,0.04,1.21,0.01,1.20,-1.20,-0.99,-1.59,-1.16,-1.19,-1.17
233.57,-0.00,1.19,-0.01,1.19,-1.19,-0.99,-1.62,-1.20,-1.20,-1.19
235.90,-0.05,1.16,-0.03,1.18,-1.18,-0.99,-1.65,-1.24,-1.22,-1.21
238.26,-0.08,1.15,-0.06,1.18,-1.18,-0.98,-1.68,-1.26,-1.23,-1.24
240.64,-0.11,1.14,-0.08,1.17,-1.17,-0.98,-1.70,-1.28,-1.25,-1.26
243.05,-0.12,1.14,-0.10,1.16,-1.16,-0.97,-1.71,-1.29,-1.26,-1.27
245.48,-0.14,1.13,-0.12,1.16,-1.16,-0.97,-1.72,-1.30,-1.27,-1.28
247.93,-0.15,1.13,-0.13,1.15,-1.15,-0.96,-1.73,-1.31,-1.28,-1.29
250.41,-0.15,1.15,-0.14,1.15,-1.15,-0.95,-1.73,-1.30,-1.29,-1.31
252.92,-0.14,1.15,-0.15,1.15,-1.15,-0.94,-1.72,-1.29,-1.29,-1.30
255.45,-0.13,1.16,-0.15,1.14,-1.14,-0.93,-1.71,-1.28,-1.29,-1.29
258.00,-0.13,1.16,-0.15,1.14,-1.14,-0.92,-1.69,-1.28,-1.29,-1.29
260.58,-0.13,1.16,-0.15,1.14,-1.14,-0.91,-1.67,-1.27,-1.29,-1.29
263.19,-0.13,1.14,-0.14,1.13,-1.13,-0.90,-1.64,-1.27,-1.28,-1.28
265.82,-0.13,1.14,-0.14,1.13,-1.13,-0.88,-1.61,-1.26,-1.27,-1.28
268.48,-0.13,1.12,-0.14,1.12,-1.12,-0.87,-1.57,-1.25,-1.26,-1.25
271.16,-0.13,1.11,-0.14,1.11,-1.11,-0.85,-1.53,-1.24,-1.24,-1.24
273.87,-0.13,1.09,-0.14,1.10,-1.10,-0.84,-1.49,-1.23,-1.23,-1.23
276.61,-0.13,1.07,-0.13,1.08,-1.08,-0.82,-1.44,-1.22,-1.22,-1.20
279.38,-0.13,1.07,-0.13,1.07,-1.07,-0.80,-1.38,-1.20,-1.20,-1.20
282.17,-0.13,1.05,-0.13,1.06,-1.06,-0.78,-1.33,-1.19,-1.19,-1.19
284.99,-0.13,1.04,-0.13,1.04,-1.04,-0.76,-1.27,-1.18,-1.17,-1.17
287.84,-0.13,1.02,-0.12,1.03,-1.03,-0.74,-1.20,-1.17,-1.16,-1.16
290.72,-0.13,1.00,-0.12,1.02,-1.02,-0.72,-1.14,-1.15,-1.14,-1.13
293.63,-0.13,0.99,-0.12,1.00,-1.00,-0.69,-1.07,-1.14,-1.12,-1.13
296.57,-0.12,0.98,-0.11,0.99,-0.99,-0.67,-1.00,-1.11,-1.10,-1.10
299.53,-0.11,0.97,-0.11,0.97,-0.97,-0.65,-0.93,-1.09,-1.09,-1.09
302.53,-0.11,0.97,-0.11,0.96,-0.96,-0.62,-0.86,-1.07,-1.07,-1.08
305.55,-0.11,0.93,-0.11,0.93,-0.93,-0.59,-0.78,-1.05,-1.05,-1.05
308.61,-0.11,0.92,-0.12,0.91,-0.91,-0.56,-0.71,-1.02,-1.03,-1.03
311.69,-0.12,0.88,-0.13,0.87,-0.87,-0.54,-0.63,-1.00,-1.01,-1.01
314.81,-0.13,0.83,-0.15,0.84,-0.84,-0.51,-0.55,-0.97,-0.98,-0.97
317.96,-0.16,0.79,-0.17,0.79,-0.79,-0.47,-0.47,-0.95,-0.96,-0.95
321.14,-0.19,0.74,-0.20,0.74,-0.74,-0.44,-0.39,-0.93,-0.94,-0.94
324.35,-0.22,0.70,-0.24,0.67,-0.67,-0.41,-0.31,-0.90,-0.92,-0.92
327.59,-0.27,0.62,-0.29,0.60,-0.60,-0.37,-0.23,-0.88,-0.90,-0.89
330.87,-0.32,0.55,-0.35,0.53,-0.53,-0.34,-0.15,-0.85,-0.87,-0.88
334.18,-0.39,0.46,-0.41,0.44,-0.44,-0.30,-0.07,-0.84,-0.85,-0.85
337.52,-0.47,0.36,-0.48,0.35,-0.35,-0.26,0.01,-0.82,-0.83,-0.83
340.90,-0.55,0.25,-0.55,0.25,-0.25,-0.22,0.10,-0.81,-0.80,-0.81
344.30,-0.64,0.13,-0.63,0.15,-0.15,-0.18,0.18,-0.79,-0.78,-0.78
347.75,-0.72,0.04,-0.72,0.04,-0.04,-0.14,0.26,-0.77,-0.76,-0.76
351.23,-0.81,-0.08,-0.81,-0.07,0.07,-0.10,0.35,-0.74,-0.73,-0.73
354.74,-0.90,-0.20,-0.90,-0.19,0.19,-0.05,0.43,-0.72,-0.71,-0.71
358.28,-0.99,-0.31,-0.99,-0.31,0.31,-0.01,0.51,-0.69,-0.69,-0.69
361.87,-1.07,-0.41,-1.09,-0.43,0.43,0.04,0.60,-0.65,-0.66,-0.66
365.49,-1.18,-0.55,-1.18,-0.54,0.54,0.09,0.68,-0.64,-0.64,-0.63
369.14,-1.28,-0.66,-1.28,-0.66,0.66,0.14,0.77,-0.62,-0.62,-0.63
372.83,-1.37,-0.78,-1.38,-0.78,0.78,0.20,0.85,-0.59,-0.59,-0.60
376.56,-1.48,-0.90,-1.47,-0.90,0.90,0.25,0.94,-0.59,-0.57,-0.58
380.33,-1.56,-1.02,-1.57,-1.01,1.01,0.31,1.02,-0.55,-0.55,-0.54
384.13,-1.66,-1.13,-1.66,-1.13,1.13,0.37,1.11,-0.54,-0.53,-0.53
387.97,-1.75,-1.24,-1.75,-1.24,1.24,0.43,1.19,-0.52,-0.52,-0.52
391.85,-1.84,-1.34,-1.84,-1.34,1.34,0.49,1.28,-0.50,-0.50,-0.51
395.77,-1.92,-1.45,-1.93,-1.44,1.44,0.56,1.36,-0.48,-0.49,-0.48
399.73,-2.01,-1.54,-2.02,-1.54,1.54,0.63,1.45,-0.48,-0.48,-0.47
403.72,-2.10,-1.63,-2.10,-1.63,1.63,0.70,1.53,-0.48,-0.47,-0.47
407.76,-2.19,-1.73,-2.18,-1.71,1.71,0.77,1.61,-0.48,-0.47,-0.46
411.84,-2.26,-1.81,-2.25,-1.79,1.79,0.85,1.70,-0.47,-0.46,-0.45
415.96,-2.33,-1.88,-2.33,-1.87,1.87,0.92,1.78,-0.47,-0.46,-0.46
420.12,-2.40,-1.95,-2.40,-1.94,1.94,1.00,1.86,-0.47,-0.46,-0.46
424.32,-2.46,-2.01,-2.47,-2.00,2.00,1.09,1.93,-0.46,-0.46,-0.46
428.56,-2.51,-2.05,-2.53,-2.07,2.07,1.18,2.01,-0.45,-0.46,-0.46
432.85,-2.57,-2.10,-2.60,-2.13,2.13,1.27,2.08,-0.45,-0.47,-0.47
437.18,-2.64,-2.17,-2.66,-2.19,2.19,1.36,2.15,-0.46,-0.47,-0.47
441.55,-2.70,-2.23,-2.71,-2.24,2.24,1.45,2.22,-0.47,-0.48,-0.47
445.96,-2.76,-2.28,-2.77,-2.29,2.29,1.55,2.29,-0.48,-0.48,-0.48
450.42,-2.82,-2.34,-2.82,-2.33,2.33,1.65,2.35,-0.49,-0.48,-0.49
