frequency,raw,error,smoothed,error_smoothed,equalization,parametric_eq,fixed_band_eq,equalized_raw,equalized_smoothed,target
20.00,18.84,5.58,18.85,5.58,-5.58,-5.52,-2.14,13.27,13.27,13.27
20.20,18.82,5.57,18.83,5.57,-5.57,-5.51,-2.20,13.25,13.25,13.25
20.40,18.80,5.56,18.80,5.56,-5.56,-5.50,-2.26,13.24,13.24,13.24
20.61,18.79,5.55,18.78,5.55,-5.55,-5.49,-2.33,13.23,13.23,13.23
20.81,18.76,5.55,18.76,5.54,-5.54,-5.48,-2.39,13.22,13.22,13.21
21.02,18.74,5.54,18.74,5.53,-5.53,-5.47,-2.46,13.21,13.21,13.20
21.23,18.71,5.52,18.72,5.52,-5.52,-5.45,-2.53,13.19,13.20,13.19
21.44,18.69,5.49,18.70,5.51,-5.51,-5.44,-2.60,13.19,13.19,13.20
21.66,18.67,5.50,18.67,5.50,-5.50,-5.42,-2.68,13.18,13.18,13.18
21.87,18.64,5.47,18.65,5.48,-5.48,-5.41,-2.75,13.16,13.17,13.18
22.09,18.62,5.47,18.63,5.47,-5.47,-5.39,-2.83,13.16,13.16,13.16
22.31,18.60,5.45,18.60,5.45,-5.45,-5.37,-2.91,13.15,13.15,13.16
22.54,18.58,5.44,18.58,5.43,-5.43,-5.35,-3.00,13.15,13.15,13.14
22.76,18.55,5.41,18.56,5.42,-5.42,-5.33,-3.08,13.14,13.14,13.14
22.99,18.53,5.40,18.53,5.40,-5.40,-5.31,-3.17,13.14,13.14,13.13
23.22,18.51,5.39,18.51,5.38,-5.38,-5.29,-3.26,13.14,13.13,13.12
23.45,18.48,5.35,18.48,5.36,-5.36,-5.27,-3.35,13.13,13.12,13.13
23.69,18.46,5.34,18.46,5.34,-5.34,-5.25,-3.44,13.12,13.12,13.12
23.92,18.43,5.33,18.43,5.32,-5.32,-5.23,-3.53,13.12,13.12,13.11
24.16,18.40,5.29,18.41,5.30,-5.30,-5.21,-3.63,13.11,13.11,13.12
24.40,18.38,5.27,18.38,5.27,-5.27,-5.18,-3.72,13.11,13.11,13.11
24.65,18.35,5.24,18.36,5.25,-5.25,-5.16,-3.82,13.10,13.11,13.11
24.89,18.33,5.22,18.33,5.23,-5.23,-5.14,-3.92,13.11,13.10,13.11
25.14,18.30,5.21,18.31,5.20,-5.20,-5.11,-4.02,13.10,13.10,13.10
25.39,18.28,5.19,18.28,5.18,-5.18,-5.09,-4.12,13.10,13.10,13.10
25.65,18.25,5.16,18.25,5.15,-5.15,-5.06,-4.22,13.10,13.10,13.10
25.91,18.23,5.13,18.23,5.13,-5.13,-5.04,-4.33,13.10,13.10,13.09
26.16,18.19,5.09,18.20,5.10,-5.10,-5.01,-4.43,13.09,13.10,13.10
26.43,18.17,5.08,18.17,5.07,-5.07,-4.99,-4.53,13.10,13.10,13.10
26.69,18.14,5.05,18.14,5.05,-5.05,-4.96,-4.63,13.10,13.10,13.10
26.96,18.11,5.02,18.11,5.02,-5.02,-4.93,-4.72,13.10,13.10,13.10
27.23,18.09,4.99,18.08,4.99,-4.99,-4.91,-4.82,13.10,13.10,13.09
27.50,18.05,4.96,18.06,4.96,-4.96,-4.88,-4.91,13.10,13.10,13.09
27.77,18.02,4.93,18.03,4.93,-4.93,-4.85,-5.00,13.10,13.10,13.10
28.05,17.99,4.90,18.00,4.90,-4.90,-4.82,-5.09,13.10,13.10,13.10
28.33,17.96,4.86,17.97,4.87,-4.87,-4.80,-5.17,13.10,13.10,13.10
28.62,17.94,4.84,17.94,4.84,-4.84,-4.77,-5.25,13.10,13.10,13.10
28.90,17.90,4.80,17.91,4.81,-4.81,-4.74,-5.32,13.10,13.10,13.11
29.19,17.87,4.77,17.88,4.78,-4.78,-4.71,-5.38,13.10,13.10,13.10
29.48,17.84,4.74,17.84,4.75,-4.75,-4.69,-5.44,13.10,13.10,13.10
29.78,17.81,4.72,17.81,4.72,-4.72,-4.66,-5.50,13.09,13.09,13.10
30.08,17.79,4.69,17.78,4.69,-4.69,-4.63,-5.54,13.09,13.09,13.09
30.38,17.76,4.68,17.75,4.67,-4.67,-4.60,-5.58,13.09,13.08,13.08
30.68,17.71,4.64,17.72,4.64,-4.64,-4.57,-5.61,13.08,13.08,13.08
30.99,17.69,4.61,17.69,4.61,-4.61,-4.55,-5.63,13.07,13.07,13.07
31.30,17.66,4.59,17.65,4.58,-4.58,-4.52,-5.65,13.07,13.07,13.07
31.61,17.61,4.55,17.62,4.56,-4.56,-4.49,-5.65,13.06,13.06,13.06
31.93,17.59,4.55,17.58,4.53,-4.53,-4.46,-5.65,13.05,13.05,13.04
32.24,17.54,4.50,17.55,4.51,-4.51,-4.44,-5.64,13.04,13.04,13.04
32.57,17.51,4.48,17.51,4.48,-4.48,-4.41,-5.62,13.04,13.03,13.03
32.89,17.47,4.45,17.48,4.45,-4.45,-4.38,-5.60,13.02,13.03,13.03
33.22,17.44,4.42,17.44,4.42,-4.42,-4.36,-5.57,13.02,13.02,13.02
33.55,17.40,4.39,17.40,4.39,-4.39,-4.33,-5.53,13.01,13.01,13.01
33.89,17.36,4.37,17.37,4.37,-4.37,-4.30,-5.48,13.00,13.00,13.00
34.23,17.32,4.34,17.33,4.34,-4.34,-4.28,-5.43,12.99,12.99,12.98
34.57,17.29,4.32,17.29,4.31,-4.31,-4.25,-5.38,12.98,12.98,12.98
34.92,17.26,4.29,17.26,4.29,-4.29,-4.23,-5.32,12.97,12.97,12.96
35.27,17.22,4.24,17.22,4.26,-4.26,-4.20,-5.26,12.96,12.96,12.97
35.62,17.18,4.24,17.18,4.23,-4.23,-4.18,-5.20,12.95,12.95,12.95
35.97,17.14,4.20,17.14,4.21,-4.21,-4.15,-5.13,12.93,12.93,12.94
36.33,17.10,4.18,17.10,4.19,-4.19,-4.13,-5.06,12.92,12.92,12.92
36.70,17.06,4.17,17.06,4.17,-4.17,-4.10,-4.99,12.90,12.90,12.90
37.06,17.02,4.15,17.02,4.14,-4.14,-4.08,-4.92,12.88,12.88,12.88
37.43,16.98,4.12,16.98,4.12,-4.12,-4.06,-4.85,12.86,12.86,12.86
37.81,16.94,4.10,16.94,4.10,-4.10,-4.03,-4.77,12.84,12.84,12.84
38.19,16.90,4.09,16.90,4.08,-4.08,-4.01,-4.70,12.82,12.82,12.81
38.57,16.86,4.07,16.86,4.06,-4.06,-3.99,-4.63,12.80,12.79,12.79
38.95,16.81,4.04,16.82,4.04,-4.04,-3.97,-4.56,12.77,12.77,12.78
39.34,16.77,4.03,16.77,4.03,-4.03,-3.95,-4.50,12.75,12.75,12.75
39.74,16.72,4.01,16.73,4.01,-4.01,-3.93,-4.43,12.72,12.72,12.72
40.14,16.68,3.98,16.68,3.99,-3.99,-3.91,-4.36,12.69,12.70,12.70
40.54,16.63,3.96,16.64,3.96,-3.96,-3.89,-4.30,12.67,12.67,12.67
40.94,16.59,3.95,16.59,3.94,-3.94,-3.87,-4.24,12.65,12.65,12.64
41.35,16.54,3.92,16.54,3.92,-3.92,-3.85,-4.18,12.62,12.62,12.62
41.76,16.50,3.91,16.50,3.90,-3.90,-3.83,-4.13,12.60,12.60,12.59
42.18,16.45,3.88,16.45,3.88,-3.88,-3.81,-4.08,12.57,12.57,12.58
42.60,16.40,3.86,16.40,3.86,-3.86,-3.79,-4.03,12.55,12.54,12.54
43.03,16.35,3.83,16.36,3.84,-3.84,-3.78,-3.98,12.52,12.52,12.52
43.46,16.30,3.82,16.31,3.82,-3.82,-3.76,-3.94,12.48,12.49,12.49
43.90,16.26,3.79,16.26,3.80,-3.80,-3.74,-3.90,12.45,12.46,12.46
44.33,16.21,3.79,16.22,3.79,-3.79,-3.73,-3.86,12.43,12.43,12.43
44.78,16.16,3.76,16.17,3.77,-3.77,-3.71,-3.82,12.40,12.40,12.40
45.23,16.12,3.74,16.12,3.75,-3.75,-3.70,-3.79,12.36,12.36,12.37
45.68,16.07,3.75,16.07,3.74,-3.74,-3.68,-3.76,12.33,12.33,12.33
46.13,16.02,3.73,16.02,3.73,-3.73,-3.67,-3.73,12.29,12.29,12.29
46.60,15.98,3.72,15.97,3.72,-3.72,-3.66,-3.71,12.25,12.25,12.25
47.06,15.92,3.71,15.92,3.71,-3.71,-3.65,-3.69,12.21,12.21,12.21
47.53,15.87,3.70,15.87,3.71,-3.71,-3.63,-3.67,12.17,12.16,12.17
48.01,15.81,3.70,15.82,3.70,-3.70,-3.62,-3.66,12.11,12.12,12.12
48.49,15.76,3.69,15.77,3.69,-3.69,-3.61,-3.64,12.07,12.07,12.07
48.97,15.71,3.69,15.72,3.69,-3.69,-3.60,-3.63,12.02,12.03,12.02
49.46,15.66,3.68,15.67,3.68,-3.68,-3.59,-3.62,11.98,11.98,11.98
49.96,15.61,3.70,15.61,3.68,-3.68,-3.58,-3.62,11.94,11.94,11.92
50.46,15.56,3.68,15.56,3.67,-3.67,-3.57,-3.61,11.89,11.89,11.88
50.96,15.50,3.66,15.51,3.67,-3.67,-3.56,-3.61,11.84,11.84,11.84
51.47,15.45,3.66,15.46,3.66,-3.66,-3.56,-3.61,11.79,11.79,11.79
51.99,15.41,3.67,15.40,3.66,-3.66,-3.55,-3.61,11.75,11.75,11.74
52.51,15.36,3.65,15.35,3.65,-3.65,-3.54,-3.62,11.70,11.70,11.70
53.03,15.30,3.64,15.30,3.64,-3.64,-3.53,-3.62,11.66,11.65,11.66
53.56,15.24,3.63,15.24,3.64,-3.64,-3.53,-3.63,11.61,11.61,11.62
54.10,15.19,3.64,15.19,3.63,-3.63,-3.52,-3.63,11.57,11.56,11.56
54.64,15.13,3.62,15.14,3.62,-3.62,-3.52,-3.64,11.51,11.52,11.52
55.18,15.07,3.61,15.08,3.61,-3.61,-3.51,-3.64,11.46,11.47,11.46
55.74,15.03,3.61,15.03,3.60,-3.60,-3.51,-3.65,11.42,11.43,11.41
56.29,14.97,3.60,14.97,3.59,-3.59,-3.51,-3.66,11.38,11.38,11.38
56.86,14.92,3.58,14.92,3.58,-3.58,-3.50,-3.66,11.33,11.34,11.33
57.42,14.86,3.59,14.87,3.58,-3.58,-3.50,-3.67,11.29,11.29,11.28
58.00,14.81,3.58,14.81,3.57,-3.57,-3.50,-3.67,11.24,11.24,11.23
58.58,14.76,3.57,14.76,3.57,-3.57,-3.50,-3.68,11.20,11.19,11.19
59.16,14.70,3.55,14.70,3.57,-3.57,-3.50,-3.68,11.14,11.13,11.15
59.76,14.65,3.54,14.65,3.57,-3.57,-3.50,-3.68,11.08,11.08,11.11
60.35,14.59,3.55,14.59,3.57,-3.57,-3.50,-3.68,11.03,11.03,11.04
60.96,14.53,3.55,14.54,3.57,-3.57,-3.50,-3.68,10.96,10.97,10.98
61.57,14.48,3.58,14.49,3.57,-3.57,-3.50,-3.67,10.91,10.91,10.91
62.18,14.42,3.58,14.43,3.58,-3.58,-3.50,-3.67,10.84,10.85,10.84
62.80,14.37,3.60,14.38,3.59,-3.59,-3.50,-3.66,10.79,10.79,10.78
63.43,14.32,3.61,14.32,3.60,-3.60,-3.50,-3.65,10.73,10.73,10.71
64.07,14.26,3.61,14.27,3.60,-3.60,-3.50,-3.64,10.66,10.66,10.65
64.71,14.21,3.62,14.21,3.61,-3.61,-3.50,-3.63,10.60,10.60,10.59
65.35,14.16,3.63,14.16,3.62,-3.62,-3.51,-3.61,10.54,10.54,10.53
66.01,14.10,3.63,14.11,3.64,-3.64,-3.51,-3.60,10.47,10.47,10.47
66.67,14.05,3.64,14.05,3.65,-3.65,-3.51,-3.58,10.41,10.41,10.42
67.33,13.99,3.65,14.00,3.65,-3.65,-3.52,-3.56,10.34,10.34,10.34
68.01,13.94,3.66,13.94,3.66,-3.66,-3.52,-3.54,10.28,10.28,10.29
68.69,13.88,3.67,13.89,3.67,-3.67,-3.53,-3.52,10.21,10.22,10.22
69.37,13.83,3.67,13.83,3.68,-3.68,-3.53,-3.49,10.16,10.15,10.16
70.07,13.76,3.67,13.77,3.68,-3.68,-3.54,-3.47,10.08,10.09,10.09
70.77,13.71,3.69,13.71,3.69,-3.69,-3.54,-3.45,10.02,10.02,10.02
71.48,13.65,3.70,13.65,3.70,-3.70,-3.55,-3.42,9.96,9.95,9.96
72.19,13.59,3.71,13.58,3.70,-3.70,-3.55,-3.40,9.90,9.88,9.88
72.91,13.52,3.72,13.52,3.70,-3.70,-3.56,-3.38,9.82,9.82,9.81
73.64,13.45,3.71,13.45,3.70,-3.70,-3.57,-3.36,9.75,9.75,9.74
74.38,13.38,3.71,13.39,3.70,-3.70,-3.57,-3.34,9.68,9.68,9.68
75.12,13.31,3.70,13.32,3.70,-3.70,-3.58,-3.31,9.61,9.62,9.62
75.87,13.25,3.70,13.25,3.70,-3.70,-3.59,-3.30,9.56,9.56,9.56
76.63,13.18,3.70,13.19,3.69,-3.69,-3.59,-3.28,9.49,9.49,9.48
77.40,13.11,3.68,13.12,3.69,-3.69,-3.60,-3.26,9.43,9.43,9.43
78.17,13.04,3.69,13.05,3.69,-3.69,-3.61,-3.25,9.36,9.37,9.36
78.95,12.97,3.66,12.99,3.68,-3.68,-3.61,-3.23,9.29,9.31,9.31
79.74,12.92,3.68,12.92,3.68,-3.68,-3.62,-3.22,9.25,9.24,9.25
80.54,12.86,3.68,12.86,3.67,-3.67,-3.63,-3.21,9.19,9.18,9.19
81.35,12.79,3.67,12.79,3.67,-3.67,-3.64,-3.20,9.12,9.12,9.12
82.16,12.73,3.66,12.73,3.67,-3.67,-3.64,-3.20,9.06,9.06,9.07
82.98,12.66,3.66,12.67,3.67,-3.67,-3.65,-3.20,8.99,9.00,9.00
83.81,12.60,3.67,12.61,3.67,-3.67,-3.66,-3.19,8.93,8.93,8.94
84.65,12.54,3.68,12.54,3.68,-3.68,-3.67,-3.20,8.87,8.87,8.87
85.50,12.48,3.68,12.48,3.68,-3.68,-3.67,-3.20,8.80,8.80,8.80
86.35,12.42,3.69,12.42,3.69,-3.69,-3.68,-3.21,8.74,8.74,8.74
87.22,12.36,3.68,12.36,3.69,-3.69,-3.69,-3.22,8.66,8.67,8.67
88.09,12.29,3.69,12.30,3.70,-3.70,-3.70,-3.23,8.60,8.60,8.60
88.97,12.23,3.70,12.24,3.71,-3.71,-3.70,-3.24,8.53,8.54,8.54
89.86,12.18,3.72,12.18,3.71,-3.71,-3.71,-3.26,8.47,8.47,8.47
90.76,12.12,3.73,12.12,3.72,-3.72,-3.72,-3.28,8.40,8.40,8.40
91.66,12.05,3.74,12.05,3.73,-3.73,-3.72,-3.30,8.32,8.32,8.32
92.58,11.99,3.74,11.99,3.74,-3.74,-3.73,-3.32,8.26,8.25,8.26
93.51,11.92,3.74,11.92,3.74,-3.74,-3.73,-3.35,8.18,8.18,8.19
94.44,11.86,3.75,11.85,3.75,-3.75,-3.74,-3.37,8.12,8.10,8.11
95.39,11.79,3.76,11.78,3.75,-3.75,-3.75,-3.40,8.04,8.03,8.03
96.34,11.71,3.76,11.71,3.76,-3.76,-3.75,-3.44,7.96,7.96,7.96
97.30,11.64,3.76,11.65,3.76,-3.76,-3.76,-3.47,7.88,7.88,7.88
98.28,11.57,3.77,11.58,3.77,-3.77,-3.76,-3.50,7.81,7.81,7.80
99.26,11.50,3.78,11.51,3.77,-3.77,-3.77,-3.54,7.74,7.74,7.73
100.25,11.42,3.77,11.44,3.77,-3.77,-3.77,-3.58,7.65,7.66,7.65
101.25,11.33,3.75,11.37,3.77,-3.77,-3.77,-3.62,7.56,7.59,7.59
102.27,11.26,3.74,11.30,3.77,-3.77,-3.78,-3.66,7.49,7.52,7.52
103.29,11.22,3.78,11.23,3.77,-3.77,-3.78,-3.70,7.45,7.45,7.45
104.32,11.17,3.79,11.15,3.77,-3.77,-3.78,-3.75,7.40,7.38,7.38
105.37,11.09,3.78,11.08,3.77,-3.77,-3.78,-3.79,7.33,7.31,7.32
106.42,11.02,3.77,11.01,3.76,-3.76,-3.79,-3.83,7.26,7.24,7.25
107.48,10.95,3.78,10.94,3.76,-3.76,-3.79,-3.88,7.19,7.17,7.17
108.56,10.87,3.77,10.87,3.76,-3.76,-3.79,-3.92,7.11,7.10,7.11
109.64,10.79,3.75,10.79,3.76,-3.76,-3.79,-3.96,7.04,7.03,7.04
110.74,10.72,3.76,10.72,3.76,-3.76,-3.79,-4.00,6.97,6.96,6.97
111.85,10.63,3.74,10.65,3.76,-3.76,-3.79,-4.03,6.88,6.89,6.89
112.97,10.55,3.72,10.58,3.76,-3.76,-3.79,-4.07,6.80,6.82,6.83
114.10,10.48,3.73,10.50,3.75,-3.75,-3.78,-4.10,6.73,6.75,6.76
115.24,10.40,3.73,10.42,3.74,-3.74,-3.78,-4.13,6.66,6.68,6.67
116.39,10.36,3.77,10.35,3.74,-3.74,-3.78,-4.16,6.62,6.61,6.60
117.55,10.30,3.78,10.28,3.74,-3.74,-3.78,-4.18,6.57,6.54,6.53
118.73,10.21,3.76,10.20,3.74,-3.74,-3.77,-4.20,6.48,6.47,6.45
119.92,10.13,3.74,10.13,3.73,-3.73,-3.77,-4.22,6.40,6.40,6.39
121.12,10.05,3.71,10.06,3.73,-3.73,-3.76,-4.23,6.31,6.33,6.33
122.33,9.99,3.73,9.99,3.73,-3.73,-3.76,-4.23,6.27,6.26,6.26
123.55,9.92,3.72,9.92,3.73,-3.73,-3.75,-4.23,6.20,6.19,6.20
124.79,9.83,3.69,9.85,3.72,-3.72,-3.74,-4.23,6.10,6.13,6.13
126.03,9.75,3.69,9.77,3.72,-3.72,-3.73,-4.22,6.04,6.06,6.07
127.29,9.70,3.71,9.70,3.71,-3.71,-3.73,-4.21,5.99,5.99,6.00
128.57,9.64,3.72,9.63,3.70,-3.70,-3.72,-4.19,5.94,5.92,5.92
129.85,9.56,3.71,9.55,3.69,-3.69,-3.71,-4.17,5.87,5.86,5.86
131.15,9.46,3.68,9.48,3.69,-3.69,-3.70,-4.14,5.78,5.79,5.78
132.46,9.41,3.69,9.40,3.68,-3.68,-3.69,-4.11,5.73,5.72,5.72
133.79,9.33,3.69,9.33,3.68,-3.68,-3.67,-4.07,5.66,5.65,5.65
135.12,9.24,3.66,9.26,3.67,-3.67,-3.66,-4.03,5.58,5.59,5.59
136.48,9.19,3.67,9.18,3.66,-3.66,-3.65,-3.98,5.54,5.52,5.53
137.84,9.09,3.64,9.11,3.65,-3.65,-3.63,-3.94,5.44,5.46,5.46
139.22,9.03,3.64,9.04,3.64,-3.64,-3.62,-3.89,5.39,5.40,5.39
140.61,8.96,3.63,8.96,3.63,-3.63,-3.61,-3.84,5.33,5.33,5.33
142.02,8.87,3.61,8.89,3.61,-3.61,-3.59,-3.78,5.26,5.27,5.27
143.44,8.82,3.61,8.82,3.60,-3.60,-3.57,-3.73,5.22,5.22,5.21
144.87,8.73,3.57,8.75,3.59,-3.59,-3.56,-3.67,5.15,5.16,5.16
146.32,8.67,3.58,8.67,3.57,-3.57,-3.54,-3.61,5.10,5.10,5.10
147.78,8.60,3.56,8.60,3.56,-3.56,-3.52,-3.55,5.05,5.05,5.05
149.26,8.54,3.56,8.53,3.54,-3.54,-3.50,-3.49,5.01,4.99,4.99
150.75,8.45,3.52,8.46,3.52,-3.52,-3.48,-3.43,4.93,4.94,4.93
152.26,8.39,3.51,8.39,3.50,-3.50,-3.46,-3.38,4.89,4.88,4.88
153.78,8.31,3.49,8.31,3.49,-3.49,-3.44,-3.32,4.83,4.83,4.83
155.32,8.24,3.47,8.24,3.46,-3.46,-3.42,-3.26,4.78,4.77,4.78
156.88,8.15,3.43,8.16,3.45,-3.45,-3.40,-3.20,4.71,4.72,4.72
158.44,8.09,3.43,8.09,3.43,-3.43,-3.37,-3.15,4.67,4.66,4.66
160.03,7.99,3.38,8.01,3.41,-3.41,-3.35,-3.09,4.59,4.61,4.61
161.63,7.93,3.38,7.94,3.39,-3.39,-3.33,-3.04,4.55,4.55,4.55
163.24,7.87,3.38,7.86,3.36,-3.36,-3.30,-2.99,4.51,4.49,4.49
164.88,7.77,3.34,7.78,3.35,-3.35,-3.28,-2.94,4.43,4.44,4.44
166.53,7.70,3.33,7.71,3.33,-3.33,-3.25,-2.89,4.38,4.38,4.37
168.19,7.63,3.30,7.63,3.31,-3.31,-3.22,-2.85,4.33,4.32,4.33
169.87,7.53,3.27,7.55,3.29,-3.29,-3.20,-2.81,4.25,4.27,4.27
171.57,7.47,3.27,7.47,3.26,-3.26,-3.17,-2.76,4.21,4.21,4.21
173.29,7.41,3.26,7.39,3.24,-3.24,-3.14,-2.72,4.17,4.15,4.16
175.02,7.30,3.21,7.32,3.22,-3.22,-3.11,-2.69,4.09,4.10,4.10
176.77,7.23,3.19,7.23,3.19,-3.19,-3.09,-2.65,4.04,4.04,4.04
178.54,7.16,3.18,7.16,3.17,-3.17,-3.06,-2.62,3.99,3.98,3.98
180.32,7.09,3.17,7.07,3.15,-3.15,-3.03,-2.59,3.95,3.93,3.92
182.13,7.01,3.14,6.99,3.12,-3.12,-3.00,-2.56,3.89,3.87,3.88
183.95,6.89,3.07,6.92,3.10,-3.10,-2.96,-2.53,3.80,3.82,3.82
185.79,6.82,3.06,6.84,3.07,-3.07,-2.93,-2.50,3.75,3.76,3.76
187.65,6.74,3.03,6.76,3.05,-3.05,-2.90,-2.48,3.70,3.71,3.71
189.52,6.67,3.01,6.68,3.02,-3.02,-2.87,-2.46,3.65,3.66,3.66
191.42,6.59,2.98,6.60,2.99,-2.99,-2.84,-2.44,3.60,3.61,3.61
193.33,6.52,2.96,6.53,2.97,-2.97,-2.80,-2.42,3.56,3.56,3.57
195.27,6.45,2.94,6.45,2.94,-2.94,-2.77,-2.40,3.52,3.52,3.51
197.22,6.38,2.93,6.38,2.91,-2.91,-2.74,-2.39,3.48,3.47,3.46
199.19,6.30,2.88,6.30,2.88,-2.88,-2.70,-2.38,3.43,3.43,3.42
201.18,6.23,2.86,6.23,2.85,-2.85,-2.67,-2.36,3.39,3.38,3.37
203.19,6.15,2.82,6.16,2.82,-2.82,-2.63,-2.35,3.34,3.34,3.34
205.23,6.08,2.78,6.09,2.79,-2.79,-2.60,-2.34,3.30,3.30,3.31
207.28,6.01,2.75,6.01,2.75,-2.75,-2.56,-2.33,3.26,3.26,3.27
209.35,5.94,2.71,5.94,2.71,-2.71,-2.53,-2.32,3.23,3.23,3.23
211.44,5.86,2.67,5.86,2.67,-2.67,-2.49,-2.32,3.19,3.19,3.19
213.56,5.78,2.62,5.78,2.63,-2.63,-2.45,-2.31,3.16,3.16,3.16
215.69,5.69,2.57,5.70,2.58,-2.58,-2.42,-2.30,3.11,3.12,3.13
217.85,5.62,2.53,5.62,2.53,-2.53,-2.38,-2.29,3.09,3.09,3.09
220.03,5.56,2.51,5.54,2.48,-2.48,-2.34,-2.29,3.08,3.06,3.06
222.23,5.47,2.45,5.46,2.43,-2.43,-2.30,-2.28,3.05,3.03,3.02
224.45,5.37,2.37,5.38,2.37,-2.37,-2.27,-2.27,3.00,3.00,3.00
226.70,5.28,2.32,5.29,2.32,-2.32,-2.23,-2.26,2.97,2.98,2.97
228.96,5.18,2.23,5.21,2.25,-2.25,-2.19,-2.25,2.93,2.95,2.96
231.25,5.11,2.19,5.12,2.19,-2.19,-2.15,-2.24,2.93,2.93,2.93
233.57,5.02,2.12,5.03,2.12,-2.12,-2.11,-2.22,2.90,2.91,2.91
235.90,4.92,2.04,4.94,2.05,-2.05,-2.07,-2.21,2.87,2.89,2.89
238.26,4.86,2.01,4.85,1.98,-1.98,-2.03,-2.19,2.88,2.87,2.86
240.64,4.76,1.90,4.76,1.90,-1.90,-1.99,-2.17,2.86,2.86,2.86
243.05,4.68,1.84,4.67,1.82,-1.82,-1.95,-2.15,2.86,2.84,2.84
245.48,4.58,1.76,4.57,1.74,-1.74,-1.92,-2.13,2.84,2.83,2.83
247.93,4.47,1.66,4.48,1.66,-1.66,-1.88,-2.10,2.82,2.82,2.81
250.41,4.39,1.58,4.38,1.57,-1.57,-1.84,-2.07,2.83,2.81,2.81
252.92,4.27,1.47,4.28,1.48,-1.48,-1.79,-2.04,2.80,2.80,2.81
255.45,4.20,1.41,4.18,1.39,-1.39,-1.75,-2.01,2.82,2.80,2.79
258.00,4.11,1.32,4.08,1.30,-1.30,-1.71,-1.98,2.82,2.79,2.79
260.58,4.00,1.22,3.99,1.21,-1.21,-1.67,-1.94,2.80,2.78,2.79
263.19,3.91,1.13,3.90,1.12,-1.12,-1.63,-1.90,2.79,2.78,2.78
265.82,3.79,1.02,3.81,1.04,-1.04,-1.59,-1.86,2.75,2.77,2.77
268.48,3.71,0.95,3.73,0.97,-0.97,-1.55,-1.81,2.75,2.76,2.77
271.16,3.64,0.88,3.66,0.90,-0.90,-1.51,-1.77,2.74,2.76,2.77
273.87,3.56,0.81,3.60,0.84,-0.84,-1.47,-1.72,2.72,2.76,2.76
276.61,3.52,0.77,3.55,0.80,-0.80,-1.43,-1.67,2.73,2.75,2.75
279.38,3.49,0.76,3.51,0.76,-0.76,-1.38,-1.62,2.74,2.75,2.73
282.17,3.46,0.73,3.48,0.73,-0.73,-1.34,-1.57,2.73,2.74,2.73
284.99,3.44,0.70,3.46,0.72,-0.72,-1.30,-1.51,2.73,2.74,2.74
287.84,3.44,0.70,3.46,0.72,-0.72,-1.26,-1.46,2.73,2.74,2.74
290.72,3.44,0.71,3.47,0.72,-0.72,-1.22,-1.40,2.72,2.74,2.74
293.63,3.46,0.72,3.48,0.74,-0.74,-1.17,-1.34,2.73,2.74,2.75
296.57,3.49,0.75,3.51,0.76,-0.76,-1.13,-1.29,2.73,2.75,2.75
299.53,3.53,0.78,3.54,0.79,-0.79,-1.09,-1.23,2.75,2.75,2.75
302.53,3.57,0.81,3.58,0.82,-0.82,-1.05,-1.17,2.75,2.75,2.76
305.55,3.62,0.87,3.62,0.86,-0.86,-1.00,-1.11,2.77,2.76,2.75
308.61,3.67,0.91,3.66,0.89,-0.89,-0.96,-1.05,2.78,2.76,2.77
311.69,3.72,0.95,3.70,0.93,-0.93,-0.92,-0.99,2.79,2.77,2.77
314.81,3.76,0.99,3.75,0.97,-0.97,-0.88,-0.93,2.79,2.78,2.77
317.96,3.79,1.02,3.79,1.01,-1.01,-0.83,-0.87,2.78,2.78,2.78
321.14,3.81,1.02,3.83,1.04,-1.04,-0.79,-0.81,2.77,2.79,2.79
324.35,3.84,1.06,3.86,1.07,-1.07,-0.75,-0.75,2.78,2.79,2.78
327.59,3.88,1.08,3.89,1.09,-1.09,-0.70,-0.69,2.79,2.80,2.81
330.87,3.91,1.11,3.91,1.10,-1.10,-0.66,-0.63,2.81,2.80,2.80
334.18,3.93,1.13,3.92,1.11,-1.11,-0.62,-0.57,2.82,2.81,2.81
337.52,3.94,1.13,3.93,1.11,-1.11,-0.57,-0.51,2.83,2.82,2.81
340.90,3.94,1.12,3.92,1.10,-1.10,-0.53,-0.45,2.84,2.82,2.83
344.30,3.93,1.10,3.91,1.08,-1.08,-0.48,-0.39,2.85,2.83,2.83
347.75,3.91,1.08,3.89,1.06,-1.06,-0.44,-0.34,2.86,2.84,2.84
351.23,3.86,1.03,3.87,1.02,-1.02,-0.39,-0.28,2.84,2.84,2.83
354.74,3.82,0.96,3.83,0.98,-0.98,-0.35,-0.22,2.85,2.85,2.86
358.28,3.79,0.94,3.78,0.93,-0.93,-0.31,-0.16,2.87,2.86,2.86
361.87,3.74,0.88,3.73,0.87,-0.87,-0.26,-0.10,2.88,2.86,2.86
365.49,3.67,0.81,3.67,0.80,-0.80,-0.22,-0.05,2.88,2.87,2.87
369.14,3.60,0.72,3.60,0.72,-0.72,-0.17,0.01,2.88,2.88,2.88
372.83,3.54,0.65,3.53,0.65,-0.65,-0.13,0.07,2.90,2.89,2.89
376.56,3.45,0.57,3.46,0.56,-0.56,-0.08,0.13,2.89,2.89,2.89
380.33,3.37,0.48,3.38,0.48,-0.48,-0.03,0.18,2.90,2.90,2.89
384.13,3.28,0.37,3.30,0.39,-0.39,0.01,0.24,2.89,2.91,2.91
387.97,3.20,0.29,3.22,0.30,-0.30,0.06,0.30,2.90,2.92,2.92
391.85,3.12,0.20,3.14,0.22,-0.22,0.10,0.35,2.91,2.93,2.93
395.77,3.05,0.12,3.06,0.13,-0.13,0.15,0.41,2.93,2.94,2.93
399.73,2.99,0.05,2.99,0.04,-0.04,0.20,0.47,2.96,2.95,2.94
403.72,2.91,-0.05,2.91,-0.05,0.05,0.24,0.52,2.96,2.96,2.97
407.76,2.82,-0.14,2.84,-0.13,0.13,0.29,0.58,2.95,2.96,2.96
411.84,2.75,-0.22,2.77,-0.21,0.21,0.34,0.63,2.96,2.97,2.97
415.96,2.69,-0.30,2.70,-0.28,0.28,0.38,0.69,2.98,2.98,2.99
420.12,2.63,-0.35,2.63,-0.36,0.36,0.43,0.74,2.99,2.99,2.99
424.32,2.56,-0.43,2.57,-0.43,0.43,0.48,0.79,2.99,3.00,3.00
428.56,2.50,-0.51,2.51,-0.50,0.50,0.53,0.85,3.00,3.01,3.01
432.85,2.44,-0.58,2.44,-0.57,0.57,0.57,0.90,3.02,3.02,3.02
437.18,2.38,-0.64,2.38,-0.64,0.64,0.62,0.95,3.02,3.02,3.02
441.55,2.33,-0.69,2.32,-0.71,0.71,0.67,1.00,3.04,3.03,3.03
445.96,2.27,-0.76,2.26,-0.78,0.78,0.72,1.05,3.05,3.04,3.04
450.42,2.21,-0.83,2.21,-0.84,0.84,0.77,1.10,3.05,3.05,3.04
454.93,2.16,-0.89,2.15,-0.90,0.90,0.82,1.15,3.07,3.06,3.05
459.48,2.09,-0.97,2.10,-0.97,0.97,0.87,1.19,3.06,3.07,3.06
464.07,2.03,-1.05,2.04,-1.03,1.03,0.92,1.24,3.07,3.07,3.08
468.71,1.98,-1.10,1.99,-1.09,1.09,0.97,1.28,3.08,3.08,3.09
473.40,1.92,-1.17,1.94,-1.15,1.15,1.02,1.33,3.08,3.09,3.10
478.13,1.88,-1.22,1.89,-1.21,1.21,1.07,1.37,3.10,3.10,3.11
482.91,1.84,-1.27,1.84,-1.27,1.27,1.12,1.41,3.12,3.11,3.11
487.74,1.79,-1.33,1.80,-1.33,1.33,1.17,1.44,3.12,3.12,3.12
