frequency,raw,error,smoothed,error_smoothed,equalization,parametric_eq,fixed_band_eq,equalized_raw,equalized_smoothed,target
20.00,0.70,-4.72,0.71,-4.71,4.71,4.52,2.11,5.41,5.42,5.42
20.20,0.70,-4.71,0.70,-4.71,4.71,4.53,2.17,5.41,5.41,5.41
20.40,0.70,-4.71,0.69,-4.71,4.71,4.54,2.23,5.41,5.41,5.41
20.61,0.70,-4.71,0.69,-4.71,4.71,4.55,2.30,5.41,5.40,5.41
20.81,0.70,-4.69,0.69,-4.71,4.71,4.56,2.36,5.41,5.40,5.39
21.02,0.70,-4.69,0.69,-4.71,4.71,4.56,2.43,5.41,5.40,5.39
21.23,0.70,-4.69,0.69,-4.71,4.71,4.57,2.50,5.40,5.39,5.39
21.44,0.70,-4.70,0.69,-4.70,4.70,4.58,2.58,5.40,5.39,5.40
21.66,0.70,-4.69,0.70,-4.69,4.69,4.59,2.65,5.39,5.39,5.39
21.87,0.70,-4.70,0.70,-4.69,4.69,4.59,2.73,5.38,5.39,5.40
22.09,0.70,-4.69,0.71,-4.68,4.68,4.60,2.81,5.37,5.39,5.39
22.31,0.71,-4.69,0.72,-4.67,4.67,4.60,2.89,5.37,5.39,5.40
22.54,0.72,-4.67,0.74,-4.65,4.65,4.61,2.97,5.37,5.39,5.39
22.76,0.73,-4.66,0.76,-4.63,4.63,4.61,3.05,5.36,5.39,5.39
22.99,0.74,-4.65,0.78,-4.62,4.62,4.61,3.14,5.36,5.40,5.39
23.22,0.78,-4.61,0.80,-4.60,4.60,4.62,3.23,5.38,5.40,5.39
23.45,0.82,-4.58,0.82,-4.58,4.58,4.62,3.32,5.40,5.40,5.40
23.69,0.86,-4.54,0.84,-4.56,4.56,4.62,3.41,5.42,5.40,5.40
23.92,0.91,-4.49,0.86,-4.55,4.55,4.62,3.51,5.45,5.40,5.40
24.16,0.92,-4.49,0.88,-4.53,4.53,4.62,3.60,5.45,5.41,5.41
24.40,0.92,-4.50,0.89,-4.52,4.52,4.62,3.70,5.44,5.41,5.42
24.65,0.92,-4.50,0.91,-4.51,4.51,4.62,3.80,5.43,5.41,5.42
24.89,0.92,-4.50,0.92,-4.50,4.50,4.62,3.90,5.42,5.41,5.42
25.14,0.92,-4.49,0.92,-4.49,4.49,4.62,4.00,5.41,5.42,5.41
25.39,0.92,-4.50,0.93,-4.49,4.49,4.62,4.10,5.41,5.42,5.42
25.65,0.92,-4.50,0.93,-4.49,4.49,4.61,4.20,5.41,5.42,5.42
25.91,0.92,-4.49,0.93,-4.49,4.49,4.61,4.31,5.41,5.42,5.41
26.16,0.92,-4.50,0.93,-4.49,4.49,4.61,4.41,5.41,5.42,5.42
26.43,0.92,-4.50,0.92,-4.49,4.49,4.60,4.51,5.41,5.42,5.42
26.69,0.92,-4.50,0.92,-4.49,4.49,4.60,4.61,5.41,5.41,5.42
26.96,0.92,-4.48,0.92,-4.49,4.49,4.59,4.70,5.41,5.41,5.40
27.23,0.92,-4.48,0.92,-4.49,4.49,4.59,4.80,5.41,5.41,5.40
27.50,0.92,-4.48,0.92,-4.49,4.49,4.58,4.89,5.40,5.40,5.40
27.77,0.92,-4.49,0.92,-4.48,4.48,4.57,4.98,5.40,5.40,5.41
28.05,0.92,-4.48,0.92,-4.48,4.48,4.57,5.07,5.40,5.40,5.40
28.33,0.92,-4.47,0.92,-4.47,4.47,4.56,5.15,5.39,5.39,5.39
28.62,0.92,-4.46,0.92,-4.47,4.47,4.55,5.22,5.39,5.39,5.38
28.90,0.92,-4.47,0.92,-4.46,4.46,4.54,5.29,5.38,5.38,5.39
29.19,0.92,-4.46,0.92,-4.45,4.45,4.53,5.36,5.37,5.37,5.38
29.48,0.92,-4.44,0.92,-4.45,4.45,4.52,5.41,5.37,5.37,5.36
29.78,0.92,-4.44,0.92,-4.44,4.44,4.51,5.46,5.36,5.36,5.36
30.08,0.92,-4.44,0.92,-4.43,4.43,4.50,5.50,5.35,5.35,5.36
30.38,0.92,-4.42,0.92,-4.42,4.42,4.48,5.54,5.34,5.34,5.34
30.68,0.92,-4.41,0.92,-4.41,4.41,4.47,5.56,5.33,5.33,5.33
30.99,0.92,-4.40,0.92,-4.40,4.40,4.46,5.58,5.32,5.32,5.32
31.30,0.92,-4.39,0.92,-4.39,4.39,4.44,5.58,5.31,5.31,5.31
31.61,0.92,-4.38,0.92,-4.38,4.38,4.43,5.58,5.30,5.30,5.30
31.93,0.92,-4.36,0.92,-4.38,4.38,4.41,5.57,5.29,5.29,5.28
32.24,0.92,-4.37,0.92,-4.37,4.37,4.40,5.55,5.29,5.29,5.29
32.57,0.92,-4.35,0.92,-4.36,4.36,4.38,5.52,5.28,5.28,5.27
32.89,0.92,-4.35,0.92,-4.36,4.36,4.36,5.49,5.28,5.28,5.27
33.22,0.92,-4.35,0.92,-4.36,4.36,4.34,5.45,5.27,5.27,5.27
33.55,0.92,-4.34,0.91,-4.36,4.36,4.33,5.40,5.27,5.27,5.26
33.89,0.92,-4.35,0.91,-4.36,4.36,4.31,5.34,5.28,5.26,5.27
34.23,0.92,-4.33,0.90,-4.36,4.36,4.29,5.28,5.27,5.26,5.25
34.57,0.92,-4.34,0.91,-4.35,4.35,4.27,5.21,5.27,5.25,5.26
34.92,0.92,-4.33,0.91,-4.34,4.34,4.25,5.14,5.26,5.25,5.25
35.27,0.92,-4.34,0.92,-4.32,4.32,4.23,5.07,5.24,5.24,5.26
35.62,0.92,-4.31,0.94,-4.30,4.30,4.20,4.99,5.22,5.24,5.23
35.97,0.92,-4.31,0.95,-4.27,4.27,4.18,4.91,5.19,5.23,5.23
36.33,0.93,-4.29,0.97,-4.24,4.24,4.16,4.82,5.17,5.21,5.22
36.70,0.94,-4.26,0.99,-4.21,4.21,4.13,4.74,5.14,5.20,5.20
37.06,0.96,-4.22,1.01,-4.17,4.17,4.11,4.65,5.12,5.18,5.18
37.43,1.04,-4.13,1.04,-4.12,4.12,4.08,4.56,5.16,5.16,5.17
37.81,1.11,-4.03,1.06,-4.08,4.08,4.06,4.48,5.19,5.14,5.14
38.19,1.15,-3.97,1.08,-4.03,4.03,4.03,4.39,5.18,5.11,5.12
38.57,1.15,-3.95,1.10,-3.99,3.99,4.00,4.30,5.13,5.09,5.10
38.95,1.15,-3.92,1.12,-3.94,3.94,3.98,4.22,5.09,5.06,5.07
39.34,1.15,-3.87,1.13,-3.90,3.90,3.95,4.13,5.04,5.03,5.02
39.74,1.15,-3.84,1.15,-3.85,3.85,3.92,4.05,5.00,5.00,4.99
40.14,1.15,-3.81,1.16,-3.82,3.82,3.89,3.97,4.96,4.97,4.96
40.54,1.15,-3.79,1.16,-3.78,3.78,3.86,3.89,4.93,4.94,4.94
40.94,1.15,-3.75,1.16,-3.75,3.75,3.83,3.81,4.90,4.91,4.90
41.35,1.15,-3.73,1.16,-3.72,3.72,3.80,3.74,4.87,4.88,4.88
41.76,1.15,-3.70,1.16,-3.70,3.70,3.76,3.66,4.85,4.85,4.85
42.18,1.15,-3.68,1.15,-3.68,3.68,3.73,3.59,4.82,4.83,4.83
42.60,1.15,-3.65,1.15,-3.65,3.65,3.70,3.53,4.80,4.80,4.80
43.03,1.15,-3.62,1.15,-3.62,3.62,3.66,3.46,4.77,4.77,4.77
43.46,1.15,-3.59,1.15,-3.59,3.59,3.63,3.40,4.74,4.74,4.74
43.90,1.15,-3.57,1.15,-3.57,3.57,3.59,3.34,4.71,4.71,4.72
44.33,1.15,-3.53,1.15,-3.54,3.54,3.56,3.28,4.69,4.69,4.68
44.78,1.15,-3.50,1.15,-3.51,3.51,3.52,3.23,4.66,4.66,4.65
45.23,1.15,-3.49,1.15,-3.48,3.48,3.48,3.17,4.62,4.62,4.64
45.68,1.15,-3.44,1.15,-3.44,3.44,3.44,3.12,4.59,4.59,4.59
46.13,1.15,-3.40,1.15,-3.41,3.41,3.41,3.08,4.55,4.55,4.55
46.60,1.15,-3.37,1.15,-3.37,3.37,3.37,3.03,4.52,4.52,4.52
47.06,1.15,-3.34,1.15,-3.33,3.33,3.33,2.99,4.48,4.48,4.49
47.53,1.15,-3.31,1.15,-3.29,3.29,3.29,2.95,4.44,4.44,4.46
48.01,1.15,-3.25,1.15,-3.25,3.25,3.25,2.91,4.40,4.40,4.40
48.49,1.15,-3.21,1.15,-3.21,3.21,3.20,2.88,4.36,4.36,4.36
48.97,1.15,-3.17,1.15,-3.17,3.17,3.16,2.84,4.32,4.32,4.32
49.46,1.15,-3.13,1.15,-3.13,3.13,3.12,2.81,4.28,4.28,4.28
49.96,1.15,-3.07,1.15,-3.09,3.09,3.08,2.78,4.24,4.24,4.22
50.46,1.15,-3.03,1.15,-3.04,3.04,3.03,2.75,4.19,4.19,4.18
50.96,1.15,-3.00,1.15,-3.00,3.00,2.99,2.72,4.15,4.15,4.15
51.47,1.15,-2.96,1.15,-2.96,2.96,2.94,2.70,4.10,4.10,4.11
51.99,1.15,-2.91,1.15,-2.91,2.91,2.90,2.67,4.06,4.06,4.06
52.51,1.15,-2.87,1.15,-2.86,2.86,2.85,2.65,4.01,4.01,4.02
53.03,1.15,-2.84,1.15,-2.82,2.82,2.80,2.63,3.96,3.96,3.99
53.56,1.15,-2.77,1.15,-2.77,2.77,2.76,2.61,3.92,3.92,3.92
54.10,1.15,-2.72,1.15,-2.73,2.73,2.71,2.58,3.87,3.87,3.87
54.64,1.15,-2.68,1.15,-2.68,2.68,2.66,2.56,3.83,3.83,3.83
55.18,1.15,-2.62,1.15,-2.64,2.64,2.61,2.54,3.79,3.79,3.77
55.74,1.15,-2.57,1.15,-2.59,2.59,2.56,2.52,3.74,3.74,3.72
56.29,1.15,-2.53,1.15,-2.55,2.55,2.51,2.50,3.70,3.70,3.68
56.86,1.15,-2.50,1.15,-2.50,2.50,2.46,2.47,3.65,3.65,3.65
57.42,1.15,-2.44,1.15,-2.46,2.46,2.41,2.45,3.60,3.60,3.59
58.00,1.15,-2.40,1.15,-2.41,2.41,2.36,2.42,3.56,3.56,3.55
58.58,1.15,-2.37,1.15,-2.36,2.36,2.30,2.39,3.51,3.51,3.52
59.16,1.15,-2.34,1.15,-2.31,2.31,2.25,2.36,3.46,3.46,3.49
59.76,1.15,-2.29,1.15,-2.26,2.26,2.20,2.33,3.41,3.41,3.44
60.35,1.15,-2.22,1.15,-2.21,2.21,2.14,2.30,3.36,3.36,3.37
60.96,1.15,-2.17,1.15,-2.16,2.16,2.09,2.27,3.31,3.31,3.32
61.57,1.15,-2.10,1.15,-2.11,2.11,2.03,2.23,3.25,3.25,3.25
62.18,1.15,-2.03,1.15,-2.05,2.05,1.98,2.19,3.20,3.20,3.18
62.80,1.15,-1.98,1.15,-1.99,1.99,1.92,2.15,3.14,3.14,3.13
63.43,1.15,-1.92,1.15,-1.93,1.93,1.87,2.10,3.08,3.08,3.07
64.07,1.15,-1.87,1.15,-1.88,1.88,1.81,2.06,3.02,3.02,3.02
64.71,1.15,-1.82,1.15,-1.82,1.82,1.75,2.01,2.96,2.96,2.97
65.35,1.15,-1.75,1.15,-1.75,1.75,1.69,1.96,2.90,2.90,2.90
66.01,1.15,-1.69,1.15,-1.69,1.69,1.64,1.90,2.84,2.84,2.84
66.67,1.15,-1.64,1.15,-1.64,1.64,1.58,1.84,2.78,2.78,2.79
67.33,1.15,-1.57,1.15,-1.58,1.58,1.52,1.79,2.72,2.72,2.72
68.01,1.15,-1.52,1.15,-1.51,1.51,1.46,1.73,2.66,2.66,2.67
68.69,1.15,-1.45,1.15,-1.45,1.45,1.40,1.66,2.60,2.60,2.60
69.37,1.15,-1.40,1.15,-1.39,1.39,1.34,1.60,2.54,2.54,2.55
70.07,1.15,-1.33,1.15,-1.32,1.32,1.28,1.53,2.47,2.47,2.48
70.77,1.15,-1.27,1.15,-1.26,1.26,1.22,1.46,2.41,2.41,2.42
71.48,1.15,-1.19,1.15,-1.19,1.19,1.16,1.40,2.34,2.34,2.34
72.19,1.15,-1.13,1.15,-1.13,1.13,1.09,1.33,2.28,2.28,2.28
72.91,1.15,-1.07,1.15,-1.07,1.07,1.03,1.25,2.22,2.22,2.22
73.64,1.15,-0.99,1.15,-1.01,1.01,0.97,1.18,2.16,2.16,2.14
74.38,1.15,-0.93,1.14,-0.96,0.96,0.91,1.11,2.11,2.10,2.08
75.12,1.15,-0.87,1.13,-0.91,0.91,0.84,1.03,2.06,2.04,2.02
75.87,1.15,-0.84,1.13,-0.85,0.85,0.78,0.96,2.00,1.98,1.99
76.63,1.15,-0.77,1.14,-0.79,0.79,0.72,0.89,1.94,1.93,1.92
77.40,1.15,-0.72,1.15,-0.73,0.73,0.65,0.81,1.88,1.87,1.87
78.17,1.15,-0.67,1.16,-0.66,0.66,0.59,0.73,1.81,1.82,1.82
78.95,1.15,-0.63,1.17,-0.60,0.60,0.53,0.66,1.75,1.77,1.78
79.74,1.15,-0.57,1.19,-0.53,0.53,0.46,0.58,1.68,1.72,1.72
80.54,1.15,-0.52,1.21,-0.46,0.46,0.40,0.50,1.60,1.67,1.67
81.35,1.15,-0.47,1.23,-0.38,0.38,0.33,0.43,1.53,1.62,1.62
82.16,1.20,-0.38,1.26,-0.31,0.31,0.27,0.35,1.51,1.56,1.58
82.98,1.38,-0.14,1.28,-0.23,0.23,0.20,0.27,1.61,1.51,1.52
83.81,1.38,-0.08,1.30,-0.15,0.15,0.14,0.19,1.53,1.45,1.46
84.65,1.38,-0.02,1.32,-0.07,0.07,0.07,0.12,1.45,1.39,1.40
85.50,1.38,0.05,1.34,0.01,-0.01,0.01,0.04,1.37,1.33,1.33
86.35,1.38,0.11,1.36,0.09,-0.09,-0.06,-0.04,1.29,1.27,1.27
87.22,1.38,0.17,1.37,0.16,-0.16,-0.12,-0.12,1.21,1.21,1.21
88.09,1.38,0.24,1.39,0.24,-0.24,-0.19,-0.20,1.14,1.15,1.14
88.97,1.38,0.30,1.39,0.31,-0.31,-0.26,-0.27,1.07,1.08,1.08
89.86,1.38,0.37,1.40,0.38,-0.38,-0.32,-0.35,1.00,1.02,1.01
90.76,1.38,0.44,1.40,0.45,-0.45,-0.39,-0.43,0.93,0.95,0.94
91.66,1.38,0.50,1.39,0.51,-0.51,-0.45,-0.51,0.87,0.88,0.88
92.58,1.38,0.56,1.38,0.57,-0.57,-0.52,-0.59,0.81,0.81,0.82
93.51,1.38,0.63,1.38,0.64,-0.64,-0.59,-0.67,0.74,0.74,0.75
94.44,1.38,0.69,1.38,0.71,-0.71,-0.65,-0.75,0.67,0.67,0.69
95.39,1.38,0.77,1.38,0.78,-0.78,-0.72,-0.83,0.60,0.60,0.61
96.34,1.38,0.85,1.38,0.85,-0.85,-0.78,-0.91,0.53,0.53,0.53
97.30,1.38,0.91,1.38,0.92,-0.92,-0.85,-0.99,0.46,0.46,0.47
98.28,1.38,1.00,1.38,0.98,-0.98,-0.92,-1.07,0.39,0.39,0.38
99.26,1.38,1.07,1.38,1.05,-1.05,-0.98,-1.14,0.33,0.33,0.31
100.25,1.38,1.13,1.38,1.12,-1.12,-1.05,-1.22,0.26,0.26,0.25
101.25,1.38,1.19,1.38,1.18,-1.18,-1.11,-1.30,0.19,0.19,0.19
102.27,1.38,1.26,1.38,1.25,-1.25,-1.18,-1.38,0.13,0.13,0.12
103.29,1.38,1.32,1.38,1.31,-1.31,-1.24,-1.46,0.07,0.07,0.06
104.32,1.38,1.37,1.38,1.37,-1.37,-1.31,-1.54,0.01,0.01,0.01
105.37,1.38,1.43,1.38,1.43,-1.43,-1.37,-1.62,-0.05,-0.05,-0.05
106.42,1.38,1.49,1.38,1.49,-1.49,-1.44,-1.69,-0.11,-0.11,-0.11
107.48,1.38,1.56,1.38,1.55,-1.55,-1.50,-1.77,-0.17,-0.17,-0.18
108.56,1.38,1.60,1.38,1.60,-1.60,-1.57,-1.84,-0.23,-0.23,-0.22
109.64,1.38,1.66,1.38,1.66,-1.66,-1.63,-1.92,-0.28,-0.28,-0.28
110.74,1.38,1.72,1.38,1.72,-1.72,-1.69,-1.99,-0.34,-0.34,-0.34
111.85,1.38,1.78,1.38,1.78,-1.78,-1.76,-2.06,-0.40,-0.40,-0.40
112.97,1.38,1.83,1.39,1.85,-1.85,-1.82,-2.13,-0.47,-0.46,-0.45
114.10,1.38,1.89,1.39,1.92,-1.92,-1.88,-2.19,-0.54,-0.52,-0.51
115.24,1.38,1.96,1.40,1.98,-1.98,-1.95,-2.26,-0.60,-0.58,-0.58
116.39,1.38,2.03,1.39,2.04,-2.04,-2.01,-2.32,-0.66,-0.65,-0.65
117.55,1.38,2.09,1.39,2.10,-2.10,-2.07,-2.38,-0.72,-0.71,-0.71
118.73,1.38,2.16,1.38,2.15,-2.15,-2.13,-2.44,-0.77,-0.77,-0.78
119.92,1.38,2.23,1.36,2.20,-2.20,-2.19,-2.49,-0.82,-0.84,-0.85
121.12,1.38,2.28,1.35,2.25,-2.25,-2.26,-2.54,-0.87,-0.91,-0.90
122.33,1.38,2.36,1.33,2.30,-2.30,-2.32,-2.59,-0.92,-0.97,-0.98
123.55,1.38,2.41,1.31,2.35,-2.35,-2.38,-2.63,-0.97,-1.04,-1.03
124.79,1.38,2.48,1.29,2.39,-2.39,-2.44,-2.68,-1.01,-1.11,-1.10
126.03,1.23,2.40,1.26,2.44,-2.44,-2.50,-2.72,-1.21,-1.18,-1.17
127.29,1.18,2.42,1.24,2.48,-2.48,-2.55,-2.75,-1.30,-1.24,-1.24
128.57,1.15,2.45,1.22,2.53,-2.53,-2.61,-2.79,-1.38,-1.31,-1.30
129.85,1.15,2.53,1.20,2.57,-2.57,-2.67,-2.82,-1.42,-1.37,-1.38
131.15,1.15,2.59,1.18,2.62,-2.62,-2.73,-2.84,-1.47,-1.44,-1.44
132.46,1.15,2.66,1.16,2.66,-2.66,-2.78,-2.87,-1.52,-1.50,-1.51
133.79,1.15,2.72,1.15,2.71,-2.71,-2.84,-2.89,-1.57,-1.57,-1.57
135.12,1.15,2.79,1.14,2.77,-2.77,-2.90,-2.91,-1.62,-1.63,-1.64
136.48,1.15,2.83,1.13,2.82,-2.82,-2.95,-2.93,-1.67,-1.69,-1.68
137.84,1.15,2.89,1.13,2.88,-2.88,-3.01,-2.95,-1.73,-1.75,-1.74
139.22,1.15,2.96,1.13,2.94,-2.94,-3.06,-2.97,-1.79,-1.80,-1.81
140.61,1.15,3.01,1.14,3.00,-3.00,-3.12,-2.98,-1.85,-1.86,-1.86
142.02,1.15,3.06,1.15,3.06,-3.06,-3.17,-3.00,-1.91,-1.91,-1.91
143.44,1.15,3.12,1.15,3.11,-3.11,-3.22,-3.01,-1.96,-1.96,-1.97
144.87,1.15,3.16,1.15,3.16,-3.16,-3.27,-3.03,-2.01,-2.01,-2.01
146.32,1.15,3.21,1.15,3.21,-3.21,-3.32,-3.04,-2.06,-2.06,-2.06
147.78,1.15,3.27,1.15,3.26,-3.26,-3.37,-3.06,-2.11,-2.11,-2.12
149.26,1.15,3.31,1.15,3.31,-3.31,-3.42,-3.07,-2.16,-2.16,-2.16
150.75,1.15,3.37,1.15,3.36,-3.36,-3.47,-3.09,-2.21,-2.21,-2.22
152.26,1.15,3.40,1.15,3.41,-3.41,-3.52,-3.11,-2.26,-2.26,-2.25
153.78,1.15,3.46,1.15,3.46,-3.46,-3.57,-3.13,-2.31,-2.31,-2.31
155.32,1.15,3.50,1.15,3.50,-3.50,-3.62,-3.15,-2.36,-2.36,-2.35
156.88,1.15,3.55,1.15,3.55,-3.55,-3.66,-3.17,-2.40,-2.40,-2.40
158.44,1.15,3.60,1.15,3.60,-3.60,-3.71,-3.19,-2.45,-2.45,-2.45
160.03,1.15,3.65,1.15,3.65,-3.65,-3.76,-3.22,-2.50,-2.50,-2.50
161.63,1.15,3.70,1.15,3.70,-3.70,-3.80,-3.24,-2.55,-2.55,-2.55
163.24,1.15,3.76,1.15,3.75,-3.75,-3.84,-3.27,-2.60,-2.60,-2.61
164.88,1.15,3.80,1.15,3.80,-3.80,-3.89,-3.30,-2.65,-2.65,-2.65
166.53,1.15,3.86,1.15,3.85,-3.85,-3.93,-3.34,-2.70,-2.70,-2.71
168.19,1.15,3.89,1.15,3.90,-3.90,-3.97,-3.38,-2.75,-2.75,-2.74
169.87,1.15,3.94,1.15,3.95,-3.95,-4.01,-3.42,-2.80,-2.80,-2.79
171.57,1.15,4.00,1.15,4.00,-4.00,-4.05,-3.46,-2.85,-2.85,-2.85
173.29,1.15,4.05,1.15,4.05,-4.05,-4.09,-3.50,-2.90,-2.90,-2.90
175.02,1.15,4.10,1.15,4.10,-4.10,-4.13,-3.55,-2.95,-2.95,-2.95
176.77,1.15,4.15,1.15,4.15,-4.15,-4.17,-3.60,-3.00,-3.00,-3.00
178.54,1.15,4.20,1.15,4.20,-4.20,-4.21,-3.65,-3.06,-3.06,-3.05
180.32,1.15,4.26,1.15,4.26,-4.26,-4.24,-3.71,-3.11,-3.11,-3.11
182.13,1.15,4.31,1.15,4.31,-4.31,-4.28,-3.77,-3.16,-3.16,-3.16
183.95,1.15,4.36,1.15,4.36,-4.36,-4.31,-3.83,-3.21,-3.21,-3.21
185.79,1.15,4.42,1.15,4.41,-4.41,-4.35,-3.90,-3.26,-3.26,-3.27
187.65,1.15,4.46,1.15,4.46,-4.46,-4.38,-3.96,-3.31,-3.31,-3.31
189.52,1.15,4.51,1.15,4.51,-4.51,-4.41,-4.03,-3.36,-3.36,-3.36
191.42,1.15,4.55,1.15,4.55,-4.55,-4.44,-4.10,-3.41,-3.41,-3.40
193.33,1.15,4.60,1.15,4.60,-4.60,-4.47,-4.18,-3.45,-3.45,-3.45
195.27,1.15,4.65,1.15,4.64,-4.64,-4.50,-4.26,-3.50,-3.50,-3.50
197.22,1.15,4.70,1.15,4.69,-4.69,-4.53,-4.33,-3.54,-3.54,-3.55
199.19,1.15,4.73,1.15,4.73,-4.73,-4.56,-4.41,-3.58,-3.58,-3.58
201.18,1.15,4.78,1.15,4.77,-4.77,-4.59,-4.50,-3.62,-3.62,-3.63
203.19,1.15,4.81,1.16,4.82,-4.82,-4.61,-4.58,-3.67,-3.66,-3.66
205.23,1.15,4.84,1.17,4.86,-4.86,-4.64,-4.66,-3.71,-3.69,-3.69
207.28,1.15,4.87,1.16,4.89,-4.89,-4.66,-4.75,-3.75,-3.73,-3.72
209.35,1.15,4.91,1.16,4.92,-4.92,-4.69,-4.84,-3.78,-3.77,-3.76
211.44,1.15,4.95,1.15,4.95,-4.95,-4.71,-4.92,-3.80,-3.80,-3.80
213.56,1.15,4.98,1.14,4.97,-4.97,-4.73,-5.01,-3.82,-3.83,-3.83
215.69,1.15,5.01,1.12,4.98,-4.98,-4.75,-5.09,-3.84,-3.87,-3.86
217.85,1.15,5.04,1.10,5.00,-5.00,-4.78,-5.17,-3.85,-3.90,-3.89
220.03,1.15,5.08,1.08,5.01,-5.01,-4.80,-5.25,-3.86,-3.93,-3.93
222.23,1.15,5.11,1.06,5.02,-5.02,-4.81,-5.33,-3.87,-3.96,-3.96
224.45,1.04,5.03,1.03,5.02,-5.02,-4.83,-5.41,-3.99,-3.99,-3.99
226.70,0.93,4.95,1.01,5.03,-5.03,-4.85,-5.48,-4.10,-4.02,-4.02
228.96,0.92,4.97,0.99,5.04,-5.04,-4.87,-5.55,-4.12,-4.05,-4.05
231.25,0.92,4.99,0.97,5.04,-5.04,-4.88,-5.61,-4.12,-4.07,-4.07
233.57,0.92,5.02,0.95,5.05,-5.05,-4.89,-5.67,-4.13,-4.10,-4.10
235.90,0.92,5.04,0.93,5.06,-5.06,-4.91,-5.72,-4.14,-4.12,-4.12
238.26,0.92,5.08,0.92,5.06,-5.06,-4.92,-5.76,-4.15,-4.14,-4.16
240.64,0.92,5.08,0.91,5.08,-5.08,-4.93,-5.80,-4.16,-4.17,-4.16
243.05,0.92,5.10,0.90,5.09,-5.09,-4.94,-5.84,-4.17,-4.19,-4.18
245.48,0.92,5.13,0.90,5.11,-5.11,-4.95,-5.86,-4.19,-4.21,-4.21
247.93,0.92,5.15,0.90,5.13,-5.13,-4.96,-5.88,-4.21,-4.22,-4.23
250.41,0.92,5.15,0.91,5.15,-5.15,-4.97,-5.88,-4.23,-4.24,-4.23
252.92,0.92,5.17,0.92,5.17,-5.17,-4.98,-5.89,-4.25,-4.26,-4.25
255.45,0.92,5.19,0.92,5.19,-5.19,-4.99,-5.88,-4.27,-4.27,-4.27
258.00,0.92,5.21,0.92,5.20,-5.20,-4.99,-5.87,-4.28,-4.28,-4.29
260.58,0.92,5.22,0.92,5.22,-5.22,-5.00,-5.84,-4.30,-4.29,-4.30
263.19,0.92,5.23,0.93,5.24,-5.24,-5.00,-5.82,-4.32,-4.31,-4.31
265.82,0.92,5.24,0.94,5.25,-5.25,-5.01,-5.78,-4.33,-4.32,-4.32
268.48,0.92,5.24,0.93,5.26,-5.26,-5.01,-5.74,-4.34,-4.32,-4.32
271.16,0.92,5.24,0.93,5.26,-5.26,-5.01,-5.70,-4.34,-4.33,-4.32
273.87,0.92,5.25,0.92,5.26,-5.26,-5.01,-5.64,-4.34,-4.34,-4.33
276.61,0.92,5.26,0.91,5.25,-5.25,-5.01,-5.59,-4.33,-4.34,-4.34
279.38,0.92,5.28,0.89,5.24,-5.24,-5.01,-5.53,-4.32,-4.35,-4.36
282.17,0.92,5.28,0.88,5.23,-5.23,-5.01,-5.47,-4.31,-4.35,-4.36
284.99,0.92,5.27,0.86,5.21,-5.21,-5.01,-5.40,-4.29,-4.35,-4.35
287.84,0.92,5.27,0.84,5.19,-5.19,-5.01,-5.33,-4.27,-4.35,-4.35
290.72,0.85,5.21,0.81,5.17,-5.17,-5.00,-5.26,-4.32,-4.35,-4.36
293.63,0.72,5.07,0.79,5.15,-5.15,-5.00,-5.19,-4.43,-4.35,-4.35
296.57,0.70,5.05,0.77,5.13,-5.13,-4.99,-5.12,-4.43,-4.35,-4.35
299.53,0.70,5.06,0.75,5.11,-5.11,-4.99,-5.05,-4.41,-4.35,-4.36
302.53,0.70,5.04,0.73,5.09,-5.09,-4.98,-4.98,-4.39,-4.35,-4.34
305.55,0.70,5.05,0.72,5.07,-5.07,-4.97,-4.91,-4.37,-4.35,-4.35
308.61,0.70,5.04,0.70,5.05,-5.05,-4.97,-4.84,-4.35,-4.35,-4.34
311.69,0.70,5.05,0.69,5.04,-5.04,-4.96,-4.77,-4.34,-4.35,-4.35
314.81,0.70,5.04,0.70,5.04,-5.04,-4.95,-4.71,-4.34,-4.34,-4.34
317.96,0.70,5.05,0.70,5.04,-5.04,-4.94,-4.64,-4.34,-4.34,-4.35
321.14,0.70,5.04,0.70,5.04,-5.04,-4.93,-4.58,-4.34,-4.34,-4.34
324.35,0.70,5.05,0.70,5.04,-5.04,-4.92,-4.52,-4.34,-4.34,-4.35
327.59,0.70,5.02,0.70,5.03,-5.03,-4.90,-4.46,-4.34,-4.33,-4.32
330.87,0.70,5.03,0.69,5.02,-5.02,-4.89,-4.41,-4.32,-4.33,-4.33
334.18,0.70,5.03,0.67,5.00,-5.00,-4.88,-4.36,-4.30,-4.32,-4.33
337.52,0.70,5.02,0.66,4.97,-4.97,-4.86,-4.31,-4.27,-4.32,-4.32
340.90,0.70,5.01,0.64,4.95,-4.95,-4.85,-4.26,-4.25,-4.31,-4.31
344.30,0.70,5.00,0.61,4.92,-4.92,-4.83,-4.22,-4.22,-4.30,-4.30
347.75,0.64,4.93,0.59,4.89,-4.89,-4.81,-4.18,-4.25,-4.30,-4.29
351.23,0.51,4.81,0.57,4.86,-4.86,-4.80,-4.15,-4.35,-4.29,-4.30
354.74,0.47,4.74,0.55,4.83,-4.83,-4.78,-4.11,-4.36,-4.28,-4.27
358.28,0.47,4.74,0.53,4.80,-4.80,-4.76,-4.08,-4.33,-4.27,-4.27
361.87,0.47,4.74,0.51,4.77,-4.77,-4.74,-4.06,-4.31,-4.27,-4.27
365.49,0.47,4.73,0.49,4.75,-4.75,-4.72,-4.03,-4.28,-4.26,-4.26
369.14,0.47,4.72,0.48,4.74,-4.74,-4.70,-4.01,-4.27,-4.26,-4.25
372.83,0.47,4.71,0.48,4.73,-4.73,-4.68,-4.00,-4.26,-4.25,-4.24
376.56,0.47,4.72,0.47,4.72,-4.72,-4.66,-3.98,-4.25,-4.25,-4.25
380.33,0.47,4.71,0.47,4.71,-4.71,-4.64,-3.97,-4.24,-4.24,-4.24
384.13,0.47,4.70,0.46,4.70,-4.70,-4.61,-3.96,-4.23,-4.24,-4.23
387.97,0.47,4.70,0.46,4.69,-4.69,-4.59,-3.96,-4.22,-4.23,-4.23
391.85,0.47,4.70,0.45,4.68,-4.68,-4.57,-3.95,-4.21,-4.23,-4.23
395.77,0.47,4.71,0.44,4.66,-4.66,-4.54,-3.95,-4.19,-4.23,-4.24
399.73,0.47,4.70,0.42,4.64,-4.64,-4.52,-3.95,-4.17,-4.22,-4.23
403.72,0.47,4.68,0.40,4.61,-4.61,-4.49,-3.96,-4.14,-4.21,-4.21
407.76,0.47,4.68,0.38,4.59,-4.59,-4.46,-3.96,-4.12,-4.21,-4.21
411.84,0.33,4.53,0.37,4.57,-4.57,-4.44,-3.97,-4.24,-4.20,-4.20
415.96,0.25,4.44,0.35,4.54,-4.54,-4.41,-3.98,-4.29,-4.19,-4.19
420.12,0.24,4.43,0.32,4.50,-4.50,-4.38,-3.98,-4.27,-4.18,-4.19
424.32,0.24,4.41,0.29,4.47,-4.47,-4.35,-3.99,-4.23,-4.17,-4.17
428.56,0.24,4.39,0.26,4.43,-4.43,-4.32,-4.01,-4.19,-4.16,-4.15
432.85,0.24,4.38,0.24,4.39,-4.39,-4.29,-4.02,-4.15,-4.15,-4.14
437.18,0.24,4.37,0.22,4.35,-4.35,-4.26,-4.03,-4.11,-4.13,-4.13
441.55,0.24,4.37,0.19,4.31,-4.31,-4.23,-4.04,-4.07,-4.12,-4.13
445.96,0.24,4.35,0.16,4.27,-4.27,-4.20,-4.05,-4.03,-4.11,-4.11
450.42,0.24,4.34,0.13,4.22,-4.22,-4.17,-4.06,-3.99,-4.09,-4.10
454.93,0.06,4.14,0.10,4.18,-4.18,-4.14,-4.06,-4.12,-4.08,-4.08
459.48,0.01,4.08,0.07,4.14,-4.14,-4.10,-4.07,-4.13,-4.07,-4.07
464.07,0.01,4.06,0.04,4.09,-4.09,-4.07,-4.07,-4.08,-4.05,-4.05
468.71,0.01,4.04,-0.00,4.04,-4.04,-4.04,-4.07,-4.03,-4.04,-4.03
473.40,0.01,4.03,-0.04,3.98,-3.98,-4.00,-4.07,-3.97,-4.02,-4.02
478.13,0.01,4.01,-0.07,3.93,-3.93,-3.97,-4.07,-3.93,-4.01,-4.00
482.91,-0.17,3.82,-0.10,3.89,-3.89,-3.93,-4.06,-4.06,-3.99,-3.99
487.74,-0.22,3.76,-0.13,3.84,-3.84,-3.90,-4.05,-4.07,-3.97,-3.98
492.62,-0.22,3.74,-0.16,3.80,-3.80,-3.86,-4.04,-4.02,-3.96,-3.96
497.55,-0.22,3.73,-0.19,3.75,-3.75,-3.82,-4.02,-3.97,-3.94,-3.95
502.52,-0.22,3.71,-0.21,3.71,-3.71,-3.78,-4.00,-3.93,-3.92,-3.93
507.55,-0.22,3.68,-0.23,3.67,-3.67,-3.75,-3.97,-3.89,-3.90,-3.90
512.62,-0.22,3.66,-0.25,3.62,-3.62,-3.71,-3.94,-3.85,-3.88,-3.88
517.75,-0.22,3.63,-0.28,3.58,-3.58,-3.67,-3.91,-3.80,-3.86,-3.85
