frequency,raw,error,smoothed,error_smoothed,equalization,parametric_eq,fixed_band_eq,equalized_raw,equalized_smoothed,target
20.00,8.54,-3.16,8.54,-3.16,3.15,2.31,1.25,11.70,11.70,11.70
20.20,8.53,-3.16,8.53,-3.15,3.15,2.34,1.29,11.68,11.69,11.69
20.40,8.53,-3.15,8.53,-3.15,3.15,2.37,1.32,11.68,11.68,11.68
20.61,8.52,-3.15,8.53,-3.14,3.14,2.41,1.36,11.66,11.67,11.67
20.81,8.52,-3.13,8.53,-3.12,3.13,2.44,1.41,11.65,11.66,11.65
21.02,8.53,-3.11,8.53,-3.11,3.12,2.47,1.45,11.65,11.65,11.64
21.23,8.53,-3.10,8.54,-3.10,3.10,2.50,1.49,11.64,11.64,11.63
21.44,8.54,-3.10,8.54,-3.09,3.09,2.53,1.53,11.63,11.63,11.64
21.66,8.55,-3.07,8.55,-3.07,3.07,2.56,1.58,11.62,11.62,11.62
21.87,8.56,-3.05,8.57,-3.05,3.04,2.59,1.63,11.61,11.61,11.62
22.09,8.58,-3.02,8.58,-3.02,3.02,2.62,1.68,11.60,11.60,11.60
22.31,8.60,-2.99,8.60,-2.99,2.99,2.65,1.73,11.59,11.59,11.59
22.54,8.62,-2.96,8.63,-2.95,2.95,2.68,1.78,11.58,11.58,11.58
22.76,8.65,-2.93,8.66,-2.92,2.92,2.71,1.83,11.57,11.57,11.58
22.99,8.69,-2.88,8.69,-2.88,2.88,2.73,1.88,11.57,11.57,11.57
23.22,8.72,-2.84,8.72,-2.84,2.84,2.76,1.94,11.57,11.57,11.56
23.45,8.75,-2.82,8.75,-2.81,2.81,2.79,1.99,11.56,11.57,11.57
23.69,8.78,-2.78,8.78,-2.77,2.78,2.81,2.05,11.56,11.56,11.56
23.92,8.81,-2.74,8.81,-2.75,2.75,2.83,2.11,11.56,11.56,11.55
24.16,8.83,-2.73,8.83,-2.72,2.72,2.86,2.17,11.55,11.55,11.56
24.40,8.85,-2.71,8.85,-2.70,2.70,2.88,2.23,11.55,11.55,11.56
24.65,8.87,-2.68,8.87,-2.68,2.68,2.90,2.29,11.55,11.55,11.55
24.89,8.88,-2.67,8.89,-2.66,2.67,2.92,2.35,11.55,11.55,11.55
25.14,8.89,-2.65,8.89,-2.65,2.66,2.94,2.41,11.55,11.55,11.54
25.39,8.89,-2.65,8.89,-2.65,2.66,2.96,2.47,11.55,11.55,11.54
25.65,8.88,-2.66,8.88,-2.66,2.66,2.97,2.54,11.54,11.54,11.54
25.91,8.87,-2.67,8.87,-2.67,2.66,2.99,2.60,11.53,11.53,11.54
26.16,8.86,-2.69,8.87,-2.68,2.66,3.00,2.66,11.53,11.53,11.55
26.43,8.86,-2.68,8.86,-2.68,2.67,3.01,2.72,11.53,11.53,11.54
26.69,8.86,-2.68,8.86,-2.68,2.67,3.02,2.78,11.54,11.54,11.54
26.96,8.86,-2.68,8.86,-2.67,2.68,3.03,2.84,11.54,11.54,11.54
27.23,8.86,-2.68,8.86,-2.68,2.68,3.04,2.90,11.54,11.54,11.54
27.50,8.86,-2.68,8.86,-2.68,2.68,3.05,2.96,11.54,11.54,11.54
27.77,8.86,-2.69,8.86,-2.68,2.68,3.05,3.01,11.54,11.54,11.55
28.05,8.86,-2.68,8.86,-2.68,2.68,3.06,3.06,11.55,11.55,11.54
28.33,8.86,-2.69,8.86,-2.68,2.69,3.06,3.11,11.55,11.55,11.55
28.62,8.86,-2.69,8.86,-2.69,2.69,3.06,3.16,11.55,11.55,11.55
28.90,8.86,-2.70,8.86,-2.69,2.69,3.06,3.20,11.55,11.55,11.56
29.19,8.86,-2.70,8.86,-2.69,2.69,3.06,3.24,11.55,11.55,11.56
29.48,8.86,-2.69,8.86,-2.69,2.69,3.06,3.28,11.55,11.55,11.55
29.78,8.86,-2.69,8.86,-2.69,2.68,3.05,3.31,11.55,11.55,11.55
30.08,8.86,-2.69,8.86,-2.68,2.68,3.04,3.34,11.55,11.55,11.55
30.38,8.86,-2.67,8.86,-2.67,2.68,3.04,3.36,11.54,11.54,11.53
30.68,8.86,-2.67,8.86,-2.67,2.67,3.03,3.38,11.54,11.54,11.53
30.99,8.86,-2.67,8.86,-2.67,2.66,3.02,3.39,11.53,11.53,11.53
31.30,8.86,-2.67,8.86,-2.66,2.66,3.01,3.40,11.52,11.52,11.53
31.61,8.86,-2.66,8.86,-2.66,2.65,2.99,3.40,11.51,11.51,11.52
31.93,8.86,-2.64,8.87,-2.64,2.64,2.98,3.40,11.50,11.50,11.50
32.24,8.87,-2.64,8.87,-2.63,2.62,2.96,3.39,11.50,11.50,11.51
32.57,8.88,-2.61,8.88,-2.61,2.61,2.94,3.38,11.50,11.50,11.49
32.89,8.89,-2.60,8.89,-2.60,2.61,2.93,3.37,11.50,11.49,11.49
33.22,8.88,-2.60,8.89,-2.59,2.60,2.91,3.35,11.48,11.49,11.48
33.55,8.88,-2.60,8.88,-2.59,2.60,2.89,3.32,11.48,11.48,11.48
33.89,8.86,-2.61,8.87,-2.60,2.60,2.86,3.29,11.46,11.47,11.47
34.23,8.85,-2.60,8.85,-2.60,2.61,2.84,3.26,11.46,11.46,11.45
34.57,8.82,-2.63,8.83,-2.62,2.62,2.82,3.23,11.45,11.45,11.45
34.92,8.80,-2.63,8.80,-2.64,2.64,2.79,3.19,11.44,11.44,11.43
35.27,8.77,-2.67,8.77,-2.66,2.66,2.77,3.15,11.43,11.43,11.45
35.62,8.74,-2.68,8.74,-2.68,2.68,2.74,3.11,11.42,11.42,11.42
35.97,8.71,-2.71,8.71,-2.71,2.70,2.71,3.07,11.41,11.41,11.42
36.33,8.67,-2.73,8.68,-2.72,2.72,2.68,3.02,11.39,11.39,11.40
36.70,8.64,-2.74,8.64,-2.74,2.73,2.66,2.98,11.38,11.38,11.38
37.06,8.61,-2.75,8.61,-2.75,2.75,2.63,2.93,11.36,11.36,11.36
37.43,8.59,-2.75,8.59,-2.75,2.76,2.60,2.89,11.35,11.34,11.34
37.81,8.56,-2.77,8.56,-2.76,2.76,2.57,2.84,11.32,11.32,11.33
38.19,8.54,-2.76,8.55,-2.76,2.75,2.53,2.79,11.30,11.30,11.30
38.57,8.53,-2.75,8.53,-2.75,2.75,2.50,2.75,11.28,11.28,11.28
38.95,8.52,-2.75,8.52,-2.74,2.73,2.47,2.70,11.25,11.25,11.27
39.34,8.51,-2.73,8.52,-2.72,2.71,2.44,2.66,11.23,11.23,11.24
39.74,8.52,-2.69,8.52,-2.69,2.69,2.41,2.61,11.21,11.21,11.21
40.14,8.53,-2.66,8.53,-2.66,2.66,2.37,2.57,11.20,11.19,11.19
40.54,8.53,-2.64,8.54,-2.63,2.64,2.34,2.53,11.17,11.17,11.17
40.94,8.54,-2.60,8.54,-2.60,2.61,2.31,2.49,11.15,11.15,11.14
41.35,8.54,-2.59,8.55,-2.58,2.58,2.27,2.45,11.12,11.12,11.13
41.76,8.55,-2.55,8.55,-2.55,2.55,2.24,2.41,11.10,11.10,11.10
42.18,8.56,-2.53,8.56,-2.52,2.52,2.21,2.37,11.08,11.08,11.09
42.60,8.56,-2.50,8.56,-2.50,2.50,2.17,2.34,11.06,11.06,11.06
43.03,8.56,-2.48,8.56,-2.47,2.48,2.14,2.31,11.04,11.04,11.04
43.46,8.55,-2.45,8.55,-2.45,2.46,2.10,2.28,11.01,11.01,11.00
43.90,8.54,-2.44,8.54,-2.43,2.44,2.07,2.25,10.99,10.99,10.98
44.33,8.52,-2.43,8.52,-2.43,2.43,2.04,2.22,10.96,10.96,10.95
44.78,8.50,-2.43,8.50,-2.43,2.43,2.00,2.20,10.93,10.93,10.93
45.23,8.47,-2.44,8.47,-2.43,2.42,1.97,2.17,10.89,10.89,10.91
45.68,8.44,-2.42,8.44,-2.42,2.42,1.94,2.15,10.86,10.86,10.86
46.13,8.41,-2.42,8.41,-2.42,2.41,1.90,2.13,10.83,10.83,10.83
46.60,8.38,-2.41,8.38,-2.41,2.41,1.87,2.11,10.79,10.79,10.79
47.06,8.35,-2.41,8.35,-2.40,2.40,1.84,2.09,10.75,10.75,10.76
47.53,8.32,-2.40,8.32,-2.39,2.39,1.80,2.08,10.72,10.71,10.72
48.01,8.29,-2.38,8.29,-2.38,2.38,1.77,2.06,10.67,10.67,10.67
48.49,8.26,-2.37,8.27,-2.36,2.36,1.74,2.05,10.63,10.63,10.63
48.97,8.24,-2.34,8.24,-2.34,2.34,1.71,2.04,10.59,10.58,10.58
49.46,8.22,-2.33,8.22,-2.32,2.32,1.68,2.03,10.54,10.54,10.55
49.96,8.20,-2.29,8.21,-2.29,2.28,1.64,2.02,10.49,10.49,10.49
50.46,8.19,-2.27,8.20,-2.26,2.25,1.61,2.02,10.44,10.44,10.46
50.96,8.20,-2.22,8.20,-2.21,2.20,1.58,2.01,10.41,10.41,10.42
51.47,8.21,-2.17,8.21,-2.16,2.16,1.55,2.01,10.37,10.38,10.38
51.99,8.23,-2.10,8.23,-2.11,2.12,1.52,2.00,10.35,10.35,10.33
52.51,8.23,-2.07,8.23,-2.07,2.07,1.49,2.00,10.31,10.31,10.30
53.03,8.23,-2.04,8.23,-2.03,2.04,1.46,1.99,10.27,10.27,10.27
53.56,8.22,-2.00,8.22,-2.00,2.00,1.43,1.99,10.22,10.22,10.22
54.10,8.20,-1.97,8.21,-1.97,1.97,1.40,1.99,10.18,10.18,10.17
54.64,8.18,-1.95,8.18,-1.94,1.95,1.37,1.98,10.14,10.13,10.13
55.18,8.15,-1.94,8.15,-1.93,1.94,1.35,1.98,10.09,10.09,10.09
55.74,8.12,-1.92,8.12,-1.93,1.92,1.32,1.98,10.05,10.05,10.04
56.29,8.09,-1.93,8.09,-1.92,1.91,1.29,1.97,10.01,10.01,10.02
56.86,8.06,-1.92,8.06,-1.91,1.91,1.26,1.97,9.97,9.97,9.98
57.42,8.03,-1.90,8.04,-1.90,1.90,1.24,1.96,9.93,9.93,9.93
58.00,8.01,-1.88,8.01,-1.88,1.89,1.21,1.96,9.90,9.90,9.89
58.58,7.98,-1.88,7.99,-1.87,1.87,1.18,1.95,9.85,9.86,9.86
59.16,7.96,-1.87,7.96,-1.86,1.85,1.16,1.94,9.82,9.82,9.83
59.76,7.94,-1.84,7.94,-1.84,1.83,1.13,1.93,9.77,9.77,9.78
60.35,7.92,-1.81,7.92,-1.81,1.80,1.11,1.91,9.72,9.72,9.73
60.96,7.89,-1.78,7.90,-1.77,1.77,1.08,1.90,9.66,9.67,9.67
61.57,7.87,-1.74,7.87,-1.74,1.74,1.06,1.88,9.61,9.61,9.61
62.18,7.84,-1.71,7.85,-1.70,1.70,1.03,1.86,9.55,9.55,9.55
62.80,7.82,-1.67,7.83,-1.66,1.67,1.01,1.84,9.49,9.50,9.49
63.43,7.81,-1.63,7.81,-1.63,1.64,0.98,1.82,9.45,9.45,9.44
64.07,7.79,-1.60,7.79,-1.60,1.61,0.96,1.80,9.40,9.40,9.39
64.71,7.76,-1.58,7.76,-1.57,1.58,0.94,1.77,9.34,9.34,9.34
65.35,7.73,-1.55,7.73,-1.55,1.55,0.91,1.74,9.28,9.28,9.28
66.01,7.70,-1.53,7.70,-1.53,1.52,0.89,1.71,9.23,9.23,9.23
66.67,7.67,-1.52,7.68,-1.50,1.50,0.87,1.68,9.17,9.17,9.19
67.33,7.65,-1.47,7.65,-1.47,1.47,0.85,1.65,9.12,9.12,9.12
68.01,7.63,-1.44,7.63,-1.44,1.44,0.82,1.61,9.07,9.07,9.07
68.69,7.61,-1.41,7.61,-1.41,1.41,0.80,1.58,9.02,9.02,9.02
69.37,7.59,-1.38,7.59,-1.37,1.37,0.78,1.54,8.96,8.96,8.97
70.07,7.57,-1.34,7.57,-1.33,1.33,0.76,1.50,8.90,8.90,8.91
70.77,7.55,-1.29,7.55,-1.30,1.29,0.74,1.46,8.84,8.84,8.84
71.48,7.53,-1.26,7.53,-1.25,1.25,0.72,1.42,8.78,8.78,8.79
72.19,7.51,-1.22,7.52,-1.21,1.21,0.70,1.38,8.72,8.73,8.73
72.91,7.50,-1.16,7.50,-1.17,1.17,0.68,1.33,8.68,8.67,8.66
73.64,7.47,-1.14,7.48,-1.13,1.14,0.66,1.29,8.61,8.62,8.61
74.38,7.45,-1.10,7.45,-1.10,1.11,0.64,1.25,8.56,8.56,8.55
75.12,7.42,-1.08,7.42,-1.08,1.08,0.62,1.20,8.50,8.50,8.50
75.87,7.39,-1.06,7.39,-1.05,1.05,0.60,1.16,8.45,8.45,8.45
76.63,7.36,-1.03,7.36,-1.03,1.03,0.58,1.11,8.39,8.39,8.39
77.40,7.33,-1.02,7.33,-1.01,1.00,0.56,1.07,8.34,8.33,8.35
78.17,7.30,-0.99,7.31,-0.98,0.98,0.54,1.02,8.28,8.29,8.29
78.95,7.29,-0.96,7.29,-0.96,0.95,0.52,0.98,8.24,8.24,8.25
79.74,7.28,-0.92,7.28,-0.92,0.92,0.50,0.94,8.20,8.20,8.20
80.54,7.26,-0.89,7.27,-0.88,0.89,0.49,0.89,8.15,8.15,8.15
81.35,7.25,-0.84,7.25,-0.85,0.85,0.47,0.85,8.10,8.10,8.09
82.16,7.23,-0.83,7.23,-0.82,0.81,0.45,0.80,8.05,8.05,8.06
82.98,7.21,-0.79,7.22,-0.78,0.78,0.43,0.76,7.99,8.00,8.00
83.81,7.20,-0.75,7.20,-0.75,0.75,0.41,0.72,7.95,7.95,7.95
84.65,7.18,-0.71,7.18,-0.70,0.71,0.39,0.67,7.90,7.90,7.89
85.50,7.16,-0.67,7.16,-0.67,0.68,0.38,0.63,7.84,7.84,7.83
86.35,7.13,-0.65,7.13,-0.65,0.65,0.36,0.59,7.78,7.78,7.78
87.22,7.10,-0.63,7.10,-0.62,0.62,0.34,0.55,7.72,7.72,7.73
88.09,7.07,-0.60,7.08,-0.59,0.58,0.32,0.50,7.66,7.66,7.67
88.97,7.05,-0.56,7.05,-0.56,0.55,0.31,0.46,7.61,7.61,7.61
89.86,7.03,-0.53,7.03,-0.52,0.53,0.29,0.42,7.56,7.56,7.56
90.76,7.00,-0.50,7.01,-0.49,0.50,0.27,0.38,7.50,7.50,7.50
91.66,6.98,-0.45,6.98,-0.46,0.47,0.25,0.34,7.45,7.45,7.43
92.58,6.94,-0.44,6.95,-0.43,0.44,0.24,0.30,7.38,7.38,7.38
93.51,6.91,-0.42,6.91,-0.41,0.41,0.22,0.26,7.32,7.32,7.33
94.44,6.88,-0.39,6.88,-0.38,0.37,0.20,0.22,7.25,7.25,7.27
95.39,6.85,-0.35,6.85,-0.35,0.34,0.19,0.18,7.19,7.19,7.20
96.34,6.82,-0.31,6.83,-0.31,0.30,0.17,0.15,7.13,7.13,7.13
97.30,6.80,-0.27,6.80,-0.26,0.26,0.15,0.11,7.07,7.07,7.07
98.28,6.78,-0.22,6.78,-0.22,0.23,0.13,0.07,7.01,7.00,7.00
99.26,6.75,-0.19,6.76,-0.18,0.19,0.12,0.03,6.94,6.94,6.94
100.25,6.73,-0.15,6.73,-0.15,0.15,0.10,-0.00,6.88,6.88,6.88
101.25,6.71,-0.12,6.71,-0.11,0.12,0.08,-0.04,6.83,6.83,6.83
102.27,6.68,-0.09,6.69,-0.08,0.09,0.06,-0.08,6.77,6.77,6.77
103.29,6.66,-0.05,6.66,-0.05,0.06,0.05,-0.11,6.72,6.72,6.71
104.32,6.63,-0.03,6.63,-0.03,0.03,0.03,-0.15,6.66,6.66,6.66
105.37,6.59,-0.01,6.60,-0.00,0.00,0.01,-0.18,6.60,6.60,6.60
106.42,6.56,0.01,6.56,0.02,-0.02,-0.01,-0.22,6.54,6.54,6.55
107.48,6.53,0.04,6.53,0.04,-0.05,-0.02,-0.25,6.48,6.48,6.49
108.56,6.50,0.06,6.51,0.07,-0.08,-0.04,-0.29,6.43,6.43,6.44
109.64,6.48,0.10,6.48,0.11,-0.11,-0.06,-0.32,6.38,6.38,6.38
110.74,6.46,0.14,6.46,0.14,-0.14,-0.08,-0.35,6.32,6.32,6.32
111.85,6.44,0.18,6.44,0.18,-0.17,-0.10,-0.38,6.27,6.26,6.26
112.97,6.41,0.20,6.41,0.21,-0.21,-0.12,-0.41,6.20,6.20,6.21
114.10,6.38,0.23,6.39,0.24,-0.25,-0.14,-0.44,6.13,6.14,6.15
115.24,6.36,0.29,6.36,0.28,-0.29,-0.16,-0.47,6.08,6.07,6.07
116.39,6.33,0.32,6.34,0.33,-0.32,-0.18,-0.49,6.01,6.01,6.01
117.55,6.31,0.36,6.31,0.37,-0.36,-0.20,-0.52,5.96,5.96,5.95
118.73,6.29,0.40,6.29,0.40,-0.39,-0.22,-0.55,5.90,5.90,5.89
119.92,6.27,0.42,6.27,0.43,-0.42,-0.24,-0.57,5.85,5.85,5.85
121.12,6.24,0.44,6.25,0.45,-0.46,-0.26,-0.59,5.79,5.79,5.80
122.33,6.22,0.48,6.22,0.48,-0.49,-0.28,-0.61,5.74,5.74,5.74
123.55,6.20,0.51,6.20,0.51,-0.52,-0.30,-0.63,5.69,5.69,5.69
124.79,6.18,0.54,6.18,0.55,-0.55,-0.32,-0.65,5.64,5.64,5.64
126.03,6.16,0.58,6.16,0.58,-0.58,-0.34,-0.67,5.59,5.58,5.58
127.29,6.13,0.60,6.13,0.61,-0.61,-0.36,-0.69,5.52,5.52,5.53
128.57,6.10,0.64,6.10,0.64,-0.64,-0.39,-0.70,5.46,5.46,5.46
129.85,6.07,0.66,6.08,0.67,-0.67,-0.41,-0.72,5.40,5.40,5.41
131.15,6.05,0.70,6.05,0.70,-0.71,-0.43,-0.73,5.35,5.35,5.35
132.46,6.03,0.73,6.03,0.74,-0.74,-0.46,-0.75,5.30,5.30,5.30
133.79,6.01,0.77,6.01,0.77,-0.77,-0.48,-0.76,5.25,5.24,5.24
135.12,5.99,0.80,5.99,0.80,-0.80,-0.50,-0.77,5.19,5.19,5.19
136.48,5.96,0.82,5.97,0.83,-0.83,-0.53,-0.78,5.13,5.14,5.14
137.84,5.94,0.85,5.94,0.86,-0.86,-0.55,-0.79,5.08,5.08,5.09
139.22,5.92,0.89,5.92,0.88,-0.89,-0.58,-0.80,5.04,5.03,5.03
140.61,5.89,0.90,5.90,0.91,-0.91,-0.61,-0.81,4.98,4.98,4.99
142.02,5.87,0.94,5.87,0.94,-0.94,-0.63,-0.82,4.94,4.94,4.93
143.44,5.85,0.96,5.85,0.96,-0.96,-0.66,-0.82,4.89,4.89,4.89
144.87,5.83,0.98,5.83,0.98,-0.98,-0.69,-0.83,4.85,4.85,4.85
146.32,5.80,1.00,5.80,1.00,-1.00,-0.72,-0.84,4.80,4.80,4.80
147.78,5.77,1.01,5.78,1.02,-1.02,-0.74,-0.85,4.75,4.75,4.76
149.26,5.75,1.04,5.75,1.04,-1.04,-0.77,-0.86,4.71,4.71,4.71
150.75,5.72,1.05,5.73,1.06,-1.05,-0.80,-0.87,4.67,4.67,4.67
152.26,5.70,1.07,5.70,1.07,-1.07,-0.83,-0.87,4.63,4.63,4.63
153.78,5.67,1.08,5.67,1.08,-1.08,-0.86,-0.88,4.59,4.59,4.59
155.32,5.64,1.09,5.64,1.10,-1.10,-0.89,-0.89,4.54,4.55,4.55
156.88,5.61,1.11,5.61,1.11,-1.11,-0.92,-0.90,4.50,4.50,4.50
158.44,5.58,1.13,5.58,1.13,-1.13,-0.96,-0.91,4.45,4.45,4.45
160.03,5.55,1.14,5.55,1.14,-1.15,-0.99,-0.92,4.41,4.41,4.41
161.63,5.52,1.15,5.53,1.16,-1.17,-1.02,-0.94,4.36,4.36,4.37
163.24,5.50,1.18,5.50,1.18,-1.19,-1.05,-0.95,4.32,4.32,4.32
164.88,5.48,1.21,5.48,1.21,-1.21,-1.09,-0.96,4.27,4.27,4.27
166.53,5.45,1.23,5.46,1.23,-1.23,-1.12,-0.98,4.22,4.22,4.22
168.19,5.43,1.24,5.43,1.26,-1.26,-1.15,-0.99,4.18,4.18,4.19
169.87,5.41,1.28,5.41,1.28,-1.28,-1.18,-1.01,4.13,4.13,4.13
171.57,5.39,1.31,5.39,1.31,-1.30,-1.22,-1.02,4.09,4.09,4.08
173.29,5.36,1.32,5.36,1.33,-1.32,-1.25,-1.04,4.04,4.04,4.04
175.02,5.33,1.34,5.34,1.35,-1.34,-1.28,-1.06,3.99,3.99,3.99
176.77,5.30,1.36,5.30,1.36,-1.36,-1.32,-1.08,3.94,3.94,3.94
178.54,5.27,1.37,5.27,1.38,-1.38,-1.35,-1.10,3.89,3.89,3.90
180.32,5.23,1.39,5.24,1.39,-1.40,-1.38,-1.12,3.84,3.84,3.84
182.13,5.21,1.40,5.21,1.41,-1.41,-1.42,-1.14,3.80,3.80,3.81
183.95,5.18,1.42,5.18,1.43,-1.43,-1.45,-1.17,3.75,3.76,3.76
185.79,5.16,1.45,5.16,1.45,-1.44,-1.48,-1.19,3.72,3.72,3.71
187.65,5.13,1.46,5.14,1.47,-1.46,-1.51,-1.22,3.67,3.68,3.67
189.52,5.11,1.48,5.11,1.48,-1.48,-1.54,-1.24,3.64,3.63,3.63
191.42,5.08,1.49,5.08,1.49,-1.50,-1.57,-1.27,3.59,3.59,3.59
193.33,5.05,1.50,5.05,1.51,-1.52,-1.59,-1.30,3.54,3.54,3.55
195.27,5.02,1.52,5.03,1.53,-1.53,-1.62,-1.32,3.49,3.49,3.50
197.22,5.00,1.55,5.01,1.55,-1.55,-1.64,-1.35,3.45,3.45,3.45
199.19,4.99,1.57,4.99,1.58,-1.58,-1.67,-1.38,3.42,3.42,3.42
201.18,4.98,1.60,4.98,1.60,-1.60,-1.69,-1.41,3.38,3.38,3.38
203.19,4.97,1.62,4.97,1.62,-1.62,-1.71,-1.44,3.35,3.35,3.35
205.23,4.96,1.63,4.96,1.64,-1.64,-1.73,-1.47,3.32,3.32,3.33
207.28,4.95,1.65,4.95,1.66,-1.66,-1.74,-1.50,3.29,3.29,3.30
209.35,4.94,1.68,4.94,1.68,-1.67,-1.76,-1.53,3.27,3.27,3.26
211.44,4.92,1.69,4.92,1.69,-1.68,-1.77,-1.55,3.24,3.24,3.23
213.56,4.90,1.69,4.90,1.70,-1.69,-1.78,-1.58,3.21,3.21,3.21
215.69,4.87,1.69,4.87,1.70,-1.70,-1.78,-1.61,3.18,3.18,3.18
217.85,4.84,1.69,4.84,1.70,-1.70,-1.79,-1.64,3.14,3.14,3.15
220.03,4.81,1.69,4.81,1.69,-1.70,-1.79,-1.66,3.11,3.11,3.12
222.23,4.78,1.69,4.79,1.69,-1.70,-1.79,-1.68,3.09,3.09,3.09
224.45,4.76,1.68,4.76,1.69,-1.69,-1.79,-1.71,3.07,3.07,3.08
226.70,4.74,1.69,4.74,1.69,-1.69,-1.78,-1.73,3.06,3.06,3.05
228.96,4.72,1.68,4.72,1.68,-1.68,-1.78,-1.74,3.04,3.04,3.04
231.25,4.69,1.67,4.69,1.67,-1.67,-1.77,-1.76,3.02,3.02,3.02
233.57,4.66,1.66,4.66,1.66,-1.66,-1.75,-1.77,3.00,3.00,3.00
235.90,4.63,1.64,4.63,1.65,-1.65,-1.74,-1.78,2.98,2.98,2.99
238.26,4.60,1.64,4.61,1.64,-1.64,-1.72,-1.79,2.96,2.96,2.96
240.64,4.58,1.61,4.58,1.62,-1.63,-1.70,-1.80,2.95,2.95,2.97
243.05,4.56,1.61,4.56,1.61,-1.62,-1.68,-1.80,2.95,2.95,2.95
245.48,4.54,1.60,4.54,1.60,-1.60,-1.66,-1.80,2.94,2.94,2.94
247.93,4.52,1.59,4.52,1.59,-1.59,-1.63,-1.79,2.94,2.94,2.93
250.41,4.50,1.56,4.50,1.57,-1.57,-1.61,-1.79,2.94,2.94,2.94
252.92,4.48,1.55,4.48,1.55,-1.55,-1.58,-1.77,2.94,2.93,2.93
255.45,4.44,1.52,4.45,1.52,-1.52,-1.55,-1.76,2.93,2.93,2.92
258.00,4.41,1.49,4.41,1.49,-1.48,-1.51,-1.74,2.93,2.93,2.92
260.58,4.37,1.45,4.37,1.45,-1.45,-1.48,-1.72,2.92,2.92,2.92
263.19,4.33,1.41,4.33,1.41,-1.41,-1.45,-1.70,2.92,2.92,2.92
265.82,4.28,1.37,4.29,1.37,-1.38,-1.41,-1.67,2.90,2.91,2.91
268.48,4.24,1.33,4.25,1.34,-1.35,-1.37,-1.64,2.89,2.90,2.91
271.16,4.21,1.30,4.21,1.30,-1.32,-1.34,-1.61,2.89,2.89,2.91
273.87,4.18,1.27,4.19,1.28,-1.29,-1.30,-1.57,2.89,2.89,2.91
276.61,4.16,1.25,4.17,1.27,-1.27,-1.26,-1.53,2.90,2.90,2.91
279.38,4.15,1.26,4.15,1.25,-1.24,-1.22,-1.49,2.91,2.91,2.89
282.17,4.12,1.23,4.12,1.23,-1.21,-1.18,-1.45,2.91,2.91,2.89
284.99,4.09,1.19,4.09,1.20,-1.18,-1.14,-1.41,2.91,2.91,2.90
287.84,4.05,1.14,4.05,1.15,-1.14,-1.10,-1.36,2.91,2.91,2.91
290.72,4.01,1.11,4.01,1.10,-1.10,-1.06,-1.32,2.91,2.91,2.90
293.63,3.96,1.05,3.97,1.06,-1.06,-1.02,-1.27,2.90,2.91,2.91
296.57,3.92,1.00,3.92,1.01,-1.01,-0.98,-1.22,2.91,2.91,2.92
299.53,3.88,0.96,3.88,0.96,-0.97,-0.94,-1.17,2.91,2.91,2.92
302.53,3.85,0.91,3.85,0.92,-0.93,-0.90,-1.12,2.92,2.92,2.94
305.55,3.82,0.89,3.83,0.89,-0.90,-0.85,-1.07,2.92,2.93,2.93
308.61,3.80,0.86,3.81,0.87,-0.87,-0.81,-1.02,2.93,2.94,2.94
311.69,3.79,0.84,3.79,0.85,-0.84,-0.77,-0.96,2.95,2.95,2.95
314.81,3.77,0.82,3.77,0.82,-0.81,-0.73,-0.91,2.96,2.96,2.95
317.96,3.75,0.79,3.75,0.79,-0.78,-0.69,-0.86,2.97,2.97,2.96
321.14,3.72,0.75,3.72,0.76,-0.75,-0.65,-0.81,2.97,2.97,2.97
324.35,3.69,0.72,3.70,0.72,-0.72,-0.62,-0.76,2.97,2.98,2.97
327.59,3.67,0.67,3.67,0.68,-0.69,-0.58,-0.71,2.99,2.98,3.00
330.87,3.64,0.65,3.64,0.65,-0.66,-0.54,-0.65,2.99,2.99,2.99
334.18,3.61,0.61,3.62,0.62,-0.62,-0.50,-0.60,2.99,2.99,3.00
337.52,3.59,0.59,3.59,0.59,-0.59,-0.46,-0.55,3.00,3.00,3.00
340.90,3.57,0.55,3.57,0.56,-0.56,-0.42,-0.50,3.01,3.01,3.02
344.30,3.55,0.52,3.55,0.53,-0.53,-0.39,-0.45,3.02,3.02,3.03
347.75,3.53,0.50,3.53,0.50,-0.50,-0.35,-0.40,3.03,3.04,3.03
351.23,3.51,0.48,3.51,0.47,-0.46,-0.31,-0.35,3.05,3.05,3.03
354.74,3.48,0.42,3.48,0.44,-0.43,-0.28,-0.30,3.06,3.06,3.06
358.28,3.44,0.39,3.44,0.39,-0.38,-0.24,-0.25,3.06,3.06,3.05
361.87,3.40,0.34,3.40,0.34,-0.34,-0.20,-0.20,3.06,3.07,3.06
365.49,3.36,0.29,3.36,0.29,-0.29,-0.17,-0.15,3.07,3.07,3.07
369.14,3.32,0.23,3.32,0.24,-0.25,-0.13,-0.11,3.08,3.07,3.09
372.83,3.28,0.19,3.28,0.19,-0.20,-0.10,-0.06,3.08,3.08,3.09
376.56,3.24,0.15,3.24,0.15,-0.16,-0.06,-0.01,3.08,3.08,3.09
380.33,3.21,0.11,3.22,0.12,-0.12,-0.03,0.04,3.09,3.09,3.10
384.13,3.19,0.07,3.20,0.08,-0.09,0.01,0.08,3.11,3.11,3.12
387.97,3.18,0.06,3.18,0.06,-0.05,0.04,0.13,3.14,3.13,3.12
391.85,3.15,0.02,3.15,0.03,-0.01,0.07,0.18,3.15,3.15,3.13
395.77,3.12,-0.02,3.12,-0.02,0.03,0.11,0.22,3.16,3.15,3.14
399.73,3.08,-0.07,3.08,-0.07,0.07,0.14,0.27,3.16,3.16,3.15
403.72,3.04,-0.14,3.04,-0.12,0.12,0.18,0.32,3.16,3.16,3.18
407.76,3.00,-0.17,3.00,-0.17,0.16,0.21,0.36,3.17,3.17,3.17
411.84,2.96,-0.22,2.97,-0.22,0.21,0.24,0.41,3.17,3.17,3.18
415.96,2.93,-0.27,2.93,-0.26,0.25,0.28,0.45,3.18,3.18,3.20
420.12,2.90,-0.30,2.91,-0.30,0.29,0.31,0.50,3.20,3.20,3.20
424.32,2.88,-0.33,2.88,-0.33,0.33,0.34,0.54,3.22,3.21,3.21
428.56,2.85,-0.38,2.85,-0.37,0.37,0.38,0.58,3.23,3.23,3.23
432.85,2.82,-0.42,2.82,-0.41,0.42,0.41,0.63,3.24,3.24,3.24
437.18,2.78,-0.45,2.78,-0.45,0.46,0.45,0.67,3.25,3.25,3.23
441.55,2.74,-0.50,2.74,-0.50,0.51,0.48,0.71,3.25,3.25,3.24
445.96,2.69,-0.56,2.69,-0.55,0.56,0.51,0.75,3.26,3.26,3.25
450.42,2.64,-0.62,2.65,-0.61,0.61,0.55,0.79,3.26,3.26,3.26
454.93,2.60,-0.67,2.60,-0.67,0.66,0.58,0.83,3.26,3.26,3.27
459.48,2.55,-0.73,2.56,-0.73,0.71,0.62,0.87,3.26,3.26,3.28
464.07,2.52,-0.78,2.53,-0.77,0.75,0.65,0.91,3.27,3.28,3.30
468.71,2.50,-0.81,2.51,-0.80,0.79,0.69,0.95,3.29,3.29,3.31
473.40,2.49,-0.82,2.49,-0.82,0.83,0.72,0.98,3.32,3.32,3.31
478.13,2.47,-0.85,2.47,-0.85,0.87,0.76,1.02,3.34,3.34,3.32
482.91,2.44,-0.89,2.44,-0.88,0.90,0.80,1.06,3.34,3.35,3.33
487.74,2.41,-0.93,2.41,-0.93,0.94,0.83,1.09,3.35,3.35,3.34
492.62,2.37,-0.98,2.37,-0.98,0.97,0.87,1.12,3.35,3.35,3.35
497.55,2.33,-1.03,2.34,-1.02,1.01,0.91,1.16,3.35,3.35,3.36
502.52,2.30,-1.07,2.30,-1.07,1.05,0.95,1.19,3.36,3.36,3.37
507.55,2.28,-1.11,2.28,-1.10,1.09,0.99,1.22,3.38,3.38,3.39
512.62,2.26,-1.14,2.27,-1.14,1.13,1.03,1.25,3.40,3.40,3.40
517.75,2.25,-1.17,2.25,-1.17,1.17,1.07,1.28,3.43,3.42,3.42
522.93,2.22,-1.21,2.22,-1.21,1.22,1.11,1.31,3.44,3.44,3.43
528.16,2.19,-1.25,2.19,-1.25,1.26,1.15,1.34,3.45,3.45,3.44
533.44,2.14,-1.31,2.15,-1.30,1.31,1.19,1.36,3.45,3.45,3.45
538.77,2.10,-1.36,2.10,-1.36,1.35,1.24,1.39,3.46,3.46,3.46
