frequency,raw,error,smoothed,error_smoothed,equalization,parametric_eq,fixed_band_eq,equalized_raw,equalized_smoothed,target
20.00,-17.06,-17.81,-17.06,-17.81,17.83,17.95,5.79,0.78,0.78,0.75
20.20,-16.88,-17.63,-16.88,-17.63,17.63,17.84,5.93,0.76,0.76,0.75
20.40,-16.70,-17.45,-16.69,-17.45,17.44,17.71,6.07,0.74,0.74,0.75
20.61,-16.51,-17.27,-16.51,-17.26,17.24,17.56,6.22,0.73,0.73,0.75
20.81,-16.31,-17.06,-16.31,-17.06,17.05,17.41,6.37,0.74,0.74,0.75
21.02,-16.12,-16.87,-16.11,-16.86,16.85,17.25,6.52,0.74,0.74,0.75
21.23,-15.92,-16.65,-15.92,-16.66,16.66,17.08,6.67,0.75,0.74,0.73
21.44,-15.74,-16.46,-15.74,-16.46,16.48,16.90,6.83,0.74,0.74,0.72
21.66,-15.57,-16.27,-15.57,-16.27,16.29,16.71,7.00,0.72,0.72,0.70
21.87,-15.41,-16.09,-15.40,-16.09,16.10,16.52,7.17,0.70,0.70,0.68
22.09,-15.25,-15.92,-15.25,-15.92,15.92,16.32,7.34,0.67,0.67,0.67
22.31,-15.10,-15.74,-15.10,-15.74,15.74,16.12,7.52,0.64,0.64,0.64
22.54,-14.95,-15.57,-14.95,-15.57,15.56,15.92,7.70,0.61,0.61,0.62
22.76,-14.79,-15.39,-14.79,-15.39,15.38,15.71,7.89,0.59,0.58,0.60
22.99,-14.64,-15.21,-14.63,-15.20,15.19,15.50,8.08,0.56,0.56,0.57
23.22,-14.47,-15.01,-14.47,-15.01,15.01,15.30,8.28,0.54,0.54,0.54
23.45,-14.30,-14.81,-14.30,-14.82,14.82,15.09,8.48,0.53,0.52,0.51
23.69,-14.13,-14.63,-14.12,-14.63,14.64,14.88,8.69,0.51,0.51,0.50
23.92,-13.96,-14.44,-13.96,-14.44,14.46,14.67,8.90,0.50,0.50,0.48
24.16,-13.79,-14.26,-13.80,-14.27,14.28,14.46,9.12,0.49,0.48,0.47
24.40,-13.65,-14.10,-13.64,-14.09,14.10,14.26,9.34,0.46,0.46,0.45
24.65,-13.49,-13.92,-13.49,-13.92,13.93,14.05,9.56,0.44,0.44,0.43
24.89,-13.34,-13.75,-13.34,-13.75,13.75,13.85,9.80,0.41,0.41,0.41
25.14,-13.19,-13.59,-13.18,-13.58,13.57,13.65,10.03,0.38,0.39,0.40
25.39,-13.01,-13.40,-13.02,-13.40,13.39,13.45,10.27,0.37,0.37,0.38
25.65,-12.85,-13.22,-12.84,-13.21,13.20,13.25,10.52,0.35,0.35,0.37
25.91,-12.66,-13.01,-12.66,-13.01,13.00,13.06,10.77,0.34,0.34,0.34
26.16,-12.46,-12.80,-12.47,-12.80,12.80,12.86,11.02,0.34,0.33,0.33
26.43,-12.28,-12.60,-12.28,-12.59,12.60,12.67,11.27,0.32,0.32,0.32
26.69,-12.09,-12.38,-12.09,-12.39,12.40,12.48,11.53,0.31,0.31,0.29
26.96,-11.91,-12.19,-11.91,-12.20,12.21,12.29,11.79,0.30,0.29,0.28
27.23,-11.74,-12.01,-11.74,-12.01,12.02,12.11,12.04,0.28,0.28,0.27
27.50,-11.58,-11.84,-11.57,-11.84,11.83,11.92,12.30,0.26,0.26,0.26
27.77,-11.42,-11.66,-11.42,-11.66,11.66,11.74,12.55,0.25,0.24,0.24
28.05,-11.27,-11.50,-11.27,-11.50,11.50,11.56,12.79,0.24,0.23,0.23
28.33,-11.14,-11.35,-11.13,-11.35,11.36,11.39,13.02,0.22,0.22,0.21
28.62,-11.01,-11.21,-11.01,-11.21,11.22,11.21,13.25,0.21,0.21,0.20
28.90,-10.89,-11.07,-10.90,-11.08,11.10,11.04,13.45,0.21,0.20,0.18
29.19,-10.80,-10.96,-10.79,-10.96,10.98,10.87,13.64,0.18,0.19,0.16
29.48,-10.70,-10.86,-10.70,-10.86,10.87,10.70,13.81,0.17,0.17,0.16
29.78,-10.61,-10.76,-10.61,-10.76,10.76,10.53,13.96,0.15,0.15,0.15
30.08,-10.52,-10.66,-10.52,-10.66,10.65,10.37,14.08,0.13,0.13,0.14
30.38,-10.43,-10.55,-10.42,-10.55,10.53,10.21,14.17,0.10,0.11,0.12
30.68,-10.31,-10.42,-10.31,-10.42,10.40,10.05,14.23,0.09,0.09,0.11
30.99,-10.18,-10.26,-10.18,-10.27,10.26,9.89,14.25,0.08,0.08,0.08
31.30,-10.04,-10.11,-10.03,-10.11,10.10,9.73,14.23,0.06,0.07,0.07
31.61,-9.87,-9.93,-9.88,-9.93,9.93,9.58,14.19,0.06,0.05,0.06
31.93,-9.71,-9.75,-9.71,-9.75,9.74,9.42,14.11,0.03,0.04,0.04
32.24,-9.54,-9.55,-9.53,-9.55,9.55,9.27,13.99,0.02,0.02,0.01
32.57,-9.36,-9.35,-9.36,-9.36,9.36,9.12,13.85,0.00,0.00,-0.01
32.89,-9.19,-9.17,-9.18,-9.16,9.17,8.98,13.68,-0.02,-0.01,-0.02
33.22,-9.01,-8.96,-9.01,-8.97,8.98,8.83,13.48,-0.03,-0.03,-0.05
33.55,-8.85,-8.79,-8.85,-8.78,8.79,8.68,13.26,-0.05,-0.05,-0.06
33.89,-8.69,-8.60,-8.69,-8.60,8.61,8.54,13.03,-0.08,-0.08,-0.09
34.23,-8.54,-8.43,-8.54,-8.44,8.44,8.40,12.78,-0.10,-0.10,-0.11
34.57,-8.40,-8.27,-8.40,-8.27,8.27,8.26,12.52,-0.13,-0.13,-0.13
34.92,-8.26,-8.11,-8.26,-8.11,8.11,8.12,12.25,-0.15,-0.15,-0.15
35.27,-8.12,-7.95,-8.12,-7.95,7.96,7.98,11.98,-0.16,-0.16,-0.17
35.62,-7.99,-7.80,-7.99,-7.80,7.81,7.84,11.70,-0.18,-0.18,-0.19
35.97,-7.86,-7.65,-7.86,-7.65,7.66,7.71,11.41,-0.20,-0.20,-0.21
36.33,-7.74,-7.51,-7.74,-7.51,7.51,7.58,11.13,-0.22,-0.23,-0.23
36.70,-7.63,-7.38,-7.62,-7.37,7.37,7.44,10.85,-0.26,-0.25,-0.25
37.06,-7.50,-7.23,-7.50,-7.23,7.22,7.31,10.56,-0.28,-0.28,-0.27
37.43,-7.37,-7.08,-7.37,-7.08,7.07,7.18,10.28,-0.29,-0.30,-0.29
37.81,-7.25,-6.94,-7.24,-6.93,6.93,7.05,10.00,-0.32,-0.31,-0.31
38.19,-7.11,-6.77,-7.11,-6.78,6.78,6.92,9.73,-0.33,-0.33,-0.34
38.57,-6.99,-6.64,-6.99,-6.64,6.64,6.80,9.46,-0.35,-0.35,-0.35
38.95,-6.88,-6.50,-6.87,-6.50,6.49,6.67,9.19,-0.38,-0.38,-0.38
39.34,-6.76,-6.36,-6.76,-6.36,6.36,6.55,8.93,-0.40,-0.40,-0.40
39.74,-6.65,-6.23,-6.65,-6.23,6.24,6.42,8.67,-0.41,-0.41,-0.42
40.14,-6.54,-6.11,-6.54,-6.11,6.13,6.30,8.41,-0.41,-0.41,-0.43
40.54,-6.45,-6.00,-6.45,-6.00,6.03,6.18,8.16,-0.42,-0.42,-0.45
40.94,-6.38,-5.91,-6.39,-5.92,5.95,6.06,7.92,-0.43,-0.44,-0.47
41.35,-6.35,-5.85,-6.34,-5.86,5.87,5.94,7.68,-0.48,-0.47,-0.50
41.76,-6.31,-5.81,-6.31,-5.81,5.80,5.82,7.44,-0.51,-0.51,-0.50
42.18,-6.28,-5.76,-6.27,-5.76,5.73,5.70,7.21,-0.55,-0.54,-0.52
42.60,-6.23,-5.69,-6.22,-5.69,5.66,5.58,6.98,-0.57,-0.56,-0.54
43.03,-6.16,-5.61,-6.16,-5.60,5.59,5.46,6.75,-0.57,-0.57,-0.55
43.46,-6.08,-5.50,-6.08,-5.50,5.51,5.35,6.53,-0.57,-0.57,-0.58
43.90,-5.99,-5.39,-6.00,-5.40,5.41,5.23,6.31,-0.58,-0.59,-0.60
44.33,-5.92,-5.30,-5.92,-5.30,5.31,5.11,6.10,-0.61,-0.61,-0.62
44.78,-5.84,-5.20,-5.83,-5.19,5.19,5.00,5.89,-0.65,-0.65,-0.64
45.23,-5.74,-5.07,-5.74,-5.08,5.06,4.89,5.68,-0.68,-0.68,-0.67
45.68,-5.63,-4.94,-5.62,-4.94,4.93,4.77,5.48,-0.70,-0.70,-0.69
46.13,-5.50,-4.80,-5.50,-4.80,4.79,4.66,5.28,-0.70,-0.70,-0.70
46.60,-5.36,-4.65,-5.36,-4.65,4.66,4.55,5.08,-0.70,-0.70,-0.71
47.06,-5.23,-4.50,-5.23,-4.50,4.52,4.44,4.89,-0.71,-0.71,-0.73
47.53,-5.10,-4.35,-5.10,-4.36,4.37,4.33,4.70,-0.72,-0.73,-0.75
48.01,-4.99,-4.23,-4.99,-4.22,4.23,4.22,4.51,-0.76,-0.76,-0.76
48.49,-4.88,-4.09,-4.88,-4.09,4.09,4.11,4.33,-0.79,-0.79,-0.79
48.97,-4.78,-3.96,-4.78,-3.96,3.95,4.00,4.15,-0.82,-0.83,-0.82
49.46,-4.68,-3.83,-4.67,-3.83,3.82,3.89,3.97,-0.85,-0.85,-0.85
49.96,-4.57,-3.69,-4.56,-3.69,3.70,3.78,3.79,-0.87,-0.87,-0.88
50.46,-4.45,-3.56,-4.45,-3.56,3.57,3.67,3.62,-0.88,-0.88,-0.89
50.96,-4.34,-3.43,-4.35,-3.44,3.44,3.56,3.45,-0.89,-0.90,-0.91
51.47,-4.26,-3.32,-4.26,-3.33,3.32,3.45,3.28,-0.94,-0.94,-0.94
51.99,-4.18,-3.22,-4.18,-3.22,3.20,3.35,3.12,-0.98,-0.97,-0.96
52.51,-4.10,-3.12,-4.09,-3.11,3.09,3.24,2.96,-1.01,-1.00,-0.98
53.03,-3.99,-2.99,-3.99,-2.99,2.99,3.13,2.80,-1.00,-1.00,-1.00
53.56,-3.89,-2.86,-3.90,-2.87,2.89,3.03,2.64,-1.00,-1.01,-1.03
54.10,-3.82,-2.77,-3.83,-2.79,2.81,2.92,2.49,-1.01,-1.02,-1.05
54.64,-3.81,-2.73,-3.80,-2.72,2.75,2.81,2.34,-1.06,-1.05,-1.08
55.18,-3.79,-2.69,-3.78,-2.68,2.70,2.71,2.20,-1.09,-1.08,-1.10
55.74,-3.76,-2.63,-3.76,-2.63,2.65,2.60,2.06,-1.10,-1.10,-1.13
56.29,-3.74,-2.59,-3.75,-2.60,2.62,2.50,1.92,-1.12,-1.13,-1.15
56.86,-3.75,-2.57,-3.77,-2.59,2.58,2.39,1.79,-1.17,-1.18,-1.18
57.42,-3.80,-2.60,-3.78,-2.58,2.54,2.29,1.66,-1.25,-1.24,-1.20
58.00,-3.79,-2.57,-3.76,-2.54,2.50,2.18,1.53,-1.29,-1.26,-1.22
58.58,-3.71,-2.46,-3.71,-2.47,2.45,2.08,1.41,-1.26,-1.26,-1.25
59.16,-3.61,-2.34,-3.63,-2.37,2.38,1.97,1.29,-1.23,-1.25,-1.27
59.76,-3.57,-2.28,-3.57,-2.28,2.31,1.87,1.18,-1.26,-1.27,-1.29
60.35,-3.53,-2.21,-3.52,-2.21,2.22,1.76,1.07,-1.31,-1.31,-1.32
60.96,-3.48,-2.14,-3.47,-2.12,2.11,1.66,0.96,-1.36,-1.35,-1.34
61.57,-3.39,-2.01,-3.39,-2.02,2.00,1.56,0.86,-1.38,-1.39,-1.38
62.18,-3.30,-1.89,-3.31,-1.90,1.89,1.45,0.77,-1.41,-1.41,-1.41
62.80,-3.22,-1.78,-3.22,-1.78,1.78,1.35,0.68,-1.44,-1.44,-1.44
63.43,-3.13,-1.66,-3.12,-1.65,1.66,1.25,0.59,-1.47,-1.46,-1.47
64.07,-3.02,-1.52,-3.02,-1.53,1.53,1.14,0.51,-1.49,-1.49,-1.50
64.71,-2.91,-1.39,-2.91,-1.40,1.40,1.04,0.43,-1.51,-1.51,-1.52
65.35,-2.81,-1.27,-2.81,-1.27,1.27,0.94,0.36,-1.53,-1.54,-1.54
66.01,-2.71,-1.15,-2.71,-1.15,1.15,0.83,0.29,-1.56,-1.56,-1.56
66.67,-2.61,-1.02,-2.61,-1.02,1.02,0.73,0.22,-1.59,-1.59,-1.59
67.33,-2.51,-0.90,-2.51,-0.90,0.90,0.63,0.16,-1.60,-1.61,-1.61
68.01,-2.42,-0.78,-2.42,-0.78,0.79,0.53,0.10,-1.63,-1.63,-1.64
68.69,-2.33,-0.67,-2.33,-0.67,0.68,0.43,0.04,-1.65,-1.65,-1.66
69.37,-2.25,-0.56,-2.25,-0.56,0.57,0.32,-0.02,-1.67,-1.68,-1.69
70.07,-2.18,-0.46,-2.18,-0.46,0.47,0.22,-0.07,-1.71,-1.71,-1.72
70.77,-2.11,-0.37,-2.11,-0.37,0.37,0.12,-0.12,-1.74,-1.74,-1.74
71.48,-2.05,-0.28,-2.05,-0.28,0.27,0.02,-0.17,-1.78,-1.78,-1.77
72.19,-1.99,-0.19,-1.98,-0.18,0.17,-0.08,-0.21,-1.82,-1.81,-1.80
72.91,-1.91,-0.07,-1.91,-0.08,0.07,-0.18,-0.26,-1.84,-1.84,-1.84
73.64,-1.83,0.04,-1.84,0.03,-0.03,-0.28,-0.30,-1.86,-1.86,-1.87
74.38,-1.77,0.13,-1.77,0.14,-0.13,-0.37,-0.34,-1.90,-1.89,-1.90
75.12,-1.71,0.24,-1.71,0.23,-0.23,-0.47,-0.39,-1.94,-1.93,-1.95
75.87,-1.65,0.33,-1.65,0.33,-0.33,-0.57,-0.43,-1.98,-1.97,-1.98
76.63,-1.59,0.42,-1.59,0.43,-0.43,-0.66,-0.47,-2.01,-2.01,-2.01
77.40,-1.53,0.52,-1.53,0.52,-0.52,-0.76,-0.51,-2.05,-2.05,-2.05
78.17,-1.48,0.63,-1.47,0.62,-0.62,-0.85,-0.55,-2.10,-2.09,-2.11
78.95,-1.42,0.71,-1.42,0.71,-0.71,-0.95,-0.59,-2.13,-2.13,-2.13
79.74,-1.37,0.80,-1.36,0.81,-0.81,-1.04,-0.63,-2.18,-2.17,-2.17
80.54,-1.31,0.91,-1.31,0.90,-0.91,-1.13,-0.68,-2.21,-2.22,-2.22
81.35,-1.26,1.00,-1.26,1.00,-1.00,-1.22,-0.72,-2.26,-2.26,-2.26
82.16,-1.22,1.09,-1.21,1.09,-1.09,-1.31,-0.76,-2.31,-2.31,-2.31
82.98,-1.17,1.18,-1.17,1.19,-1.19,-1.40,-0.81,-2.35,-2.35,-2.35
83.81,-1.12,1.29,-1.12,1.28,-1.27,-1.48,-0.86,-2.39,-2.39,-2.41
84.65,-1.08,1.37,-1.08,1.37,-1.36,-1.56,-0.90,-2.44,-2.44,-2.45
85.50,-1.05,1.44,-1.05,1.44,-1.44,-1.65,-0.95,-2.49,-2.49,-2.49
86.35,-1.03,1.51,-1.02,1.51,-1.51,-1.73,-1.00,-2.54,-2.54,-2.54
87.22,-1.01,1.58,-1.01,1.58,-1.58,-1.81,-1.05,-2.59,-2.59,-2.59
88.09,-0.99,1.66,-0.99,1.65,-1.64,-1.88,-1.10,-2.63,-2.64,-2.65
88.97,-0.99,1.70,-0.99,1.70,-1.70,-1.96,-1.16,-2.69,-2.69,-2.69
89.86,-0.99,1.75,-0.98,1.76,-1.75,-2.03,-1.21,-2.74,-2.73,-2.74
90.76,-0.99,1.81,-0.99,1.80,-1.80,-2.10,-1.27,-2.78,-2.79,-2.80
91.66,-1.00,1.85,-1.00,1.85,-1.84,-2.16,-1.33,-2.84,-2.84,-2.85
92.58,-1.02,1.89,-1.02,1.88,-1.88,-2.23,-1.39,-2.90,-2.89,-2.91
93.51,-1.04,1.91,-1.03,1.92,-1.92,-2.29,-1.45,-2.96,-2.95,-2.95
94.44,-1.04,1.96,-1.05,1.96,-1.96,-2.35,-1.51,-3.00,-3.01,-3.00
95.39,-1.06,2.00,-1.05,2.00,-2.01,-2.41,-1.57,-3.07,-3.07,-3.06
96.34,-1.06,2.07,-1.06,2.06,-2.07,-2.46,-1.64,-3.13,-3.13,-3.13
97.30,-1.06,2.12,-1.06,2.13,-2.14,-2.51,-1.70,-3.20,-3.19,-3.18
98.28,-1.04,2.20,-1.04,2.20,-2.22,-2.56,-1.77,-3.25,-3.25,-3.24
99.26,-1.01,2.30,-1.01,2.29,-2.30,-2.60,-1.83,-3.31,-3.31,-3.31
100.25,-0.97,2.39,-0.97,2.39,-2.39,-2.65,-1.90,-3.36,-3.36,-3.36
101.25,-0.93,2.49,-0.93,2.49,-2.48,-2.69,-1.97,-3.41,-3.41,-3.42
102.27,-0.90,2.59,-0.90,2.59,-2.57,-2.72,-2.04,-3.47,-3.47,-3.49
103.29,-0.88,2.68,-0.87,2.68,-2.67,-2.75,-2.11,-3.54,-3.54,-3.56
104.32,-0.85,2.76,-0.85,2.76,-2.76,-2.78,-2.17,-3.60,-3.61,-3.61
105.37,-0.83,2.84,-0.83,2.84,-2.84,-2.81,-2.24,-3.67,-3.67,-3.67
106.42,-0.83,2.91,-0.82,2.92,-2.92,-2.83,-2.31,-3.75,-3.74,-3.74
107.48,-0.81,3.00,-0.81,3.00,-3.00,-2.85,-2.37,-3.81,-3.81,-3.81
108.56,-0.80,3.08,-0.80,3.07,-3.07,-2.87,-2.44,-3.87,-3.87,-3.88
109.64,-0.79,3.15,-0.79,3.15,-3.14,-2.88,-2.50,-3.93,-3.93,-3.94
110.74,-0.79,3.21,-0.79,3.21,-3.21,-2.89,-2.56,-4.00,-4.00,-4.00
111.85,-0.80,3.27,-0.80,3.27,-3.28,-2.90,-2.62,-4.08,-4.08,-4.07
112.97,-0.81,3.34,-0.81,3.33,-3.34,-2.90,-2.68,-4.15,-4.15,-4.15
114.10,-0.82,3.39,-0.81,3.40,-3.40,-2.91,-2.73,-4.22,-4.22,-4.21
115.24,-0.82,3.46,-0.82,3.46,-3.46,-2.91,-2.78,-4.27,-4.28,-4.28
116.39,-0.84,3.51,-0.84,3.50,-3.50,-2.90,-2.83,-4.34,-4.34,-4.35
117.55,-0.88,3.54,-0.87,3.54,-3.53,-2.90,-2.87,-4.41,-4.40,-4.42
118.73,-0.92,3.56,-0.92,3.56,-3.55,-2.89,-2.91,-4.47,-4.47,-4.48
119.92,-0.97,3.57,-0.97,3.57,-3.56,-2.88,-2.94,-4.52,-4.53,-4.54
121.12,-1.04,3.56,-1.04,3.56,-3.55,-2.86,-2.97,-4.59,-4.59,-4.60
122.33,-1.13,3.54,-1.13,3.53,-3.53,-2.85,-3.00,-4.66,-4.66,-4.67
123.55,-1.23,3.49,-1.22,3.49,-3.50,-2.83,-3.02,-4.72,-4.72,-4.72
124.79,-1.33,3.45,-1.33,3.45,-3.45,-2.81,-3.03,-4.78,-4.78,-4.78
126.03,-1.44,3.39,-1.44,3.39,-3.40,-2.79,-3.04,-4.84,-4.84,-4.83
127.29,-1.55,3.34,-1.55,3.34,-3.34,-2.77,-3.04,-4.89,-4.89,-4.89
128.57,-1.68,3.28,-1.67,3.27,-3.27,-2.75,-3.04,-4.95,-4.95,-4.96
129.85,-1.80,3.21,-1.80,3.21,-3.20,-2.72,-3.04,-5.00,-5.00,-5.01
131.15,-1.94,3.12,-1.93,3.13,-3.12,-2.70,-3.03,-5.06,-5.06,-5.06
132.46,-2.07,3.05,-2.07,3.04,-3.04,-2.67,-3.01,-5.11,-5.11,-5.12
133.79,-2.21,2.95,-2.21,2.95,-2.95,-2.64,-2.99,-5.16,-5.16,-5.16
135.12,-2.35,2.87,-2.35,2.86,-2.86,-2.61,-2.97,-5.21,-5.21,-5.22
136.48,-2.49,2.76,-2.49,2.76,-2.77,-2.58,-2.94,-5.26,-5.26,-5.25
137.84,-2.63,2.66,-2.62,2.67,-2.68,-2.55,-2.91,-5.31,-5.30,-5.29
139.22,-2.75,2.59,-2.75,2.58,-2.59,-2.52,-2.87,-5.34,-5.34,-5.34
140.61,-2.88,2.50,-2.87,2.50,-2.50,-2.49,-2.84,-5.37,-5.37,-5.38
142.02,-2.99,2.41,-2.99,2.41,-2.40,-2.46,-2.80,-5.39,-5.40,-5.40
143.44,-3.12,2.31,-3.12,2.31,-2.31,-2.42,-2.76,-5.42,-5.43,-5.43
144.87,-3.26,2.21,-3.25,2.21,-2.21,-2.39,-2.72,-5.47,-5.46,-5.47
146.32,-3.39,2.11,-3.39,2.10,-2.10,-2.36,-2.67,-5.49,-5.49,-5.50
147.78,-3.53,1.99,-3.53,1.99,-1.99,-2.32,-2.63,-5.52,-5.52,-5.52
149.26,-3.67,1.88,-3.67,1.88,-1.88,-2.29,-2.58,-5.54,-5.55,-5.55
150.75,-3.82,1.77,-3.82,1.76,-1.75,-2.26,-2.53,-5.57,-5.57,-5.59
152.26,-3.98,1.63,-3.98,1.63,-1.62,-2.22,-2.49,-5.60,-5.60,-5.61
153.78,-4.14,1.50,-4.14,1.50,-1.49,-2.19,-2.44,-5.62,-5.62,-5.64
155.32,-4.31,1.35,-4.31,1.35,-1.34,-2.16,-2.40,-5.65,-5.65,-5.66
156.88,-4.48,1.21,-4.48,1.21,-1.20,-2.13,-2.35,-5.68,-5.68,-5.69
158.44,-4.66,1.06,-4.65,1.06,-1.06,-2.10,-2.31,-5.71,-5.71,-5.72
160.03,-4.82,0.93,-4.82,0.93,-0.92,-2.06,-2.26,-5.74,-5.74,-5.75
161.63,-4.98,0.80,-4.98,0.80,-0.79,-2.03,-2.22,-5.77,-5.77,-5.78
163.24,-5.13,0.68,-5.13,0.67,-0.68,-2.00,-2.18,-5.81,-5.81,-5.81
164.88,-5.26,0.57,-5.25,0.57,-0.60,-1.98,-2.14,-5.85,-5.85,-5.83
166.53,-5.35,0.50,-5.35,0.51,-0.53,-1.95,-2.10,-5.88,-5.88,-5.85
168.19,-5.41,0.48,-5.41,0.48,-0.50,-1.92,-2.06,-5.90,-5.90,-5.89
169.87,-5.44,0.48,-5.44,0.48,-0.49,-1.89,-2.02,-5.92,-5.92,-5.92
171.57,-5.44,0.51,-5.44,0.50,-0.50,-1.87,-1.99,-5.94,-5.95,-5.95
173.29,-5.44,0.53,-5.43,0.54,-0.54,-1.84,-1.96,-5.98,-5.97,-5.97
175.02,-5.40,0.61,-5.40,0.61,-0.60,-1.82,-1.93,-6.00,-6.01,-6.01
176.77,-5.36,0.69,-5.36,0.69,-0.68,-1.80,-1.90,-6.04,-6.04,-6.05
178.54,-5.30,0.79,-5.30,0.78,-0.78,-1.78,-1.87,-6.08,-6.08,-6.09
180.32,-5.24,0.88,-5.24,0.88,-0.88,-1.76,-1.84,-6.12,-6.12,-6.12
182.13,-5.16,0.99,-5.16,0.99,-0.99,-1.74,-1.82,-6.15,-6.15,-6.15
183.95,-5.09,1.10,-5.08,1.11,-1.11,-1.73,-1.79,-6.19,-6.19,-6.19
185.79,-5.00,1.23,-5.00,1.23,-1.22,-1.71,-1.77,-6.22,-6.22,-6.23
187.65,-4.91,1.36,-4.92,1.35,-1.34,-1.70,-1.75,-6.24,-6.25,-6.27
189.52,-4.84,1.46,-4.83,1.46,-1.45,-1.69,-1.73,-6.29,-6.28,-6.30
191.42,-4.75,1.57,-4.75,1.57,-1.56,-1.69,-1.71,-6.31,-6.31,-6.32
193.33,-4.67,1.67,-4.67,1.67,-1.67,-1.69,-1.70,-6.34,-6.35,-6.34
195.27,-4.60,1.77,-4.59,1.77,-1.78,-1.69,-1.68,-6.38,-6.37,-6.37
197.22,-4.53,1.87,-4.52,1.88,-1.88,-1.69,-1.67,-6.41,-6.40,-6.40
199.19,-4.45,2.00,-4.45,1.98,-1.98,-1.69,-1.66,-6.42,-6.43,-6.45
201.18,-4.39,2.07,-4.39,2.07,-2.07,-1.71,-1.64,-6.46,-6.46,-6.46
203.19,-4.33,2.15,-4.32,2.15,-2.16,-1.72,-1.63,-6.49,-6.48,-6.48
205.23,-4.27,2.23,-4.27,2.23,-2.24,-1.74,-1.62,-6.51,-6.51,-6.50
207.28,-4.21,2.30,-4.21,2.30,-2.31,-1.77,-1.61,-6.52,-6.53,-6.51
209.35,-4.17,2.37,-4.16,2.37,-2.37,-1.80,-1.61,-6.54,-6.53,-6.54
211.44,-4.13,2.43,-4.13,2.43,-2.40,-1.83,-1.60,-6.53,-6.53,-6.56
213.56,-4.11,2.47,-4.11,2.46,-2.42,-1.88,-1.59,-6.52,-6.53,-6.58
215.69,-4.12,2.46,-4.12,2.46,-2.42,-1.92,-1.58,-6.53,-6.54,-6.58
217.85,-4.16,2.43,-4.16,2.43,-2.40,-1.98,-1.58,-6.56,-6.57,-6.59
220.03,-4.22,2.40,-4.23,2.38,-2.39,-2.04,-1.57,-6.61,-6.61,-6.62
222.23,-4.30,2.33,-4.29,2.33,-2.37,-2.10,-1.56,-6.67,-6.66,-6.63
224.45,-4.34,2.28,-4.33,2.30,-2.36,-2.17,-1.55,-6.70,-6.68,-6.62
226.70,-4.33,2.30,-4.32,2.30,-2.36,-2.24,-1.55,-6.69,-6.68,-6.63
228.96,-4.28,2.35,-4.28,2.34,-2.37,-2.31,-1.54,-6.65,-6.65,-6.63
231.25,-4.23,2.39,-4.23,2.38,-2.39,-2.38,-1.53,-6.62,-6.63,-6.62
233.57,-4.19,2.42,-4.19,2.42,-2.42,-2.43,-1.52,-6.61,-6.61,-6.61
235.90,-4.16,2.45,-4.15,2.45,-2.44,-2.48,-1.50,-6.60,-6.60,-6.61
238.26,-4.13,2.48,-4.13,2.47,-2.44,-2.50,-1.49,-6.57,-6.57,-6.61
240.64,-4.13,2.46,-4.12,2.46,-2.40,-2.51,-1.48,-6.53,-6.53,-6.59
243.05,-4.14,2.43,-4.15,2.42,-2.34,-2.49,-1.46,-6.48,-6.49,-6.57
245.48,-4.22,2.33,-4.23,2.33,-2.26,-2.45,-1.45,-6.48,-6.49,-6.55
247.93,-4.34,2.20,-4.35,2.18,-2.17,-2.38,-1.43,-6.51,-6.52,-6.54
250.41,-4.51,2.02,-4.50,2.02,-2.08,-2.29,-1.41,-6.58,-6.58,-6.53
252.92,-4.64,1.85,-4.61,1.88,-1.98,-2.19,-1.39,-6.62,-6.59,-6.49
255.45,-4.68,1.79,-4.66,1.80,-1.89,-2.08,-1.36,-6.57,-6.55,-6.47
258.00,-4.66,1.79,-4.67,1.78,-1.80,-1.95,-1.34,-6.46,-6.47,-6.45
260.58,-4.65,1.78,-4.66,1.77,-1.73,-1.82,-1.31,-6.37,-6.39,-6.43
263.19,-4.68,1.73,-4.68,1.73,-1.66,-1.70,-1.28,-6.34,-6.34,-6.41
265.82,-4.73,1.66,-4.73,1.65,-1.60,-1.57,-1.25,-6.33,-6.33,-6.39
268.48,-4.80,1.56,-4.79,1.56,-1.55,-1.44,-1.22,-6.35,-6.34,-6.36
271.16,-4.86,1.47,-4.86,1.47,-1.49,-1.33,-1.19,-6.35,-6.35,-6.33
273.87,-4.92,1.39,-4.91,1.39,-1.42,-1.21,-1.16,-6.34,-6.34,-6.31
276.61,-4.96,1.32,-4.95,1.33,-1.36,-1.10,-1.12,-6.32,-6.31,-6.28
279.38,-4.98,1.28,-4.98,1.27,-1.30,-1.00,-1.09,-6.28,-6.28,-6.26
282.17,-5.01,1.23,-5.01,1.23,-1.25,-0.90,-1.05,-6.26,-6.26,-6.24
284.99,-5.04,1.17,-5.03,1.18,-1.19,-0.81,-1.01,-6.23,-6.22,-6.21
287.84,-5.06,1.13,-5.06,1.12,-1.12,-0.72,-0.97,-6.17,-6.17,-6.19
290.72,-5.09,1.06,-5.09,1.06,-1.01,-0.64,-0.93,-6.10,-6.10,-6.15
293.63,-5.15,0.98,-5.14,0.98,-0.88,-0.56,-0.89,-6.03,-6.03,-6.13
296.57,-5.24,0.86,-5.25,0.85,-0.74,-0.48,-0.85,-5.97,-5.98,-6.10
299.53,-5.39,0.68,-5.42,0.65,-0.59,-0.41,-0.81,-5.98,-6.01,-6.07
302.53,-5.62,0.43,-5.63,0.40,-0.45,-0.34,-0.77,-6.07,-6.08,-6.05
305.55,-5.86,0.14,-5.82,0.18,-0.32,-0.27,-0.72,-6.18,-6.14,-6.00
308.61,-5.96,0.01,-5.91,0.05,-0.21,-0.20,-0.68,-6.17,-6.13,-5.97
311.69,-5.90,0.03,-5.90,0.02,-0.12,-0.13,-0.64,-6.02,-6.02,-5.93
314.81,-5.81,0.09,-5.84,0.06,-0.05,-0.06,-0.60,-5.85,-5.88,-5.90
317.96,-5.78,0.09,-5.79,0.08,0.01,0.00,-0.55,-5.77,-5.78,-5.87
321.14,-5.79,0.05,-5.79,0.05,0.05,0.06,-0.51,-5.74,-5.74,-5.84
324.35,-5.84,-0.02,-5.84,-0.03,0.08,0.13,-0.47,-5.76,-5.75,-5.82
327.59,-5.90,-0.12,-5.90,-0.12,0.13,0.19,-0.42,-5.77,-5.76,-5.78
330.87,-5.97,-0.22,-5.96,-0.21,0.20,0.25,-0.38,-5.76,-5.76,-5.75
334.18,-6.03,-0.30,-6.03,-0.31,0.29,0.32,-0.34,-5.73,-5.74,-5.73
337.52,-6.10,-0.39,-6.10,-0.40,0.39,0.38,-0.29,-5.71,-5.71,-5.71
340.90,-6.17,-0.49,-6.17,-0.49,0.48,0.44,-0.25,-5.68,-5.69,-5.68
344.30,-6.24,-0.58,-6.23,-0.58,0.56,0.50,-0.21,-5.67,-5.67,-5.66
347.75,-6.29,-0.66,-6.28,-0.65,0.64,0.57,-0.16,-5.65,-5.65,-5.63
351.23,-6.32,-0.71,-6.32,-0.71,0.70,0.63,-0.12,-5.62,-5.63,-5.61
354.74,-6.35,-0.75,-6.35,-0.75,0.75,0.69,-0.08,-5.60,-5.60,-5.60
358.28,-6.37,-0.79,-6.36,-0.79,0.79,0.75,-0.03,-5.58,-5.57,-5.58
361.87,-6.38,-0.82,-6.38,-0.82,0.83,0.81,0.01,-5.55,-5.55,-5.56
365.49,-6.39,-0.86,-6.39,-0.86,0.87,0.87,0.05,-5.52,-5.53,-5.53
369.14,-6.41,-0.89,-6.41,-0.89,0.90,0.93,0.10,-5.51,-5.51,-5.52
372.83,-6.44,-0.93,-6.43,-0.93,0.94,0.99,0.14,-5.50,-5.49,-5.51
376.56,-6.45,-0.96,-6.45,-0.97,0.98,1.04,0.18,-5.47,-5.48,-5.49
380.33,-6.48,-1.02,-6.48,-1.02,1.02,1.09,0.23,-5.46,-5.46,-5.46
384.13,-6.50,-1.06,-6.50,-1.06,1.06,1.14,0.27,-5.44,-5.44,-5.44
387.97,-6.53,-1.11,-6.53,-1.11,1.10,1.19,0.31,-5.43,-5.43,-5.42
391.85,-6.55,-1.15,-6.55,-1.15,1.14,1.23,0.35,-5.41,-5.40,-5.40
395.77,-6.57,-1.20,-6.56,-1.19,1.19,1.27,0.40,-5.37,-5.37,-5.37
399.73,-6.58,-1.23,-6.58,-1.23,1.25,1.30,0.44,-5.33,-5.33,-5.35
403.72,-6.61,-1.27,-6.61,-1.28,1.31,1.33,0.48,-5.29,-5.29,-5.34
407.76,-6.65,-1.33,-6.65,-1.34,1.38,1.35,0.52,-5.27,-5.28,-5.32
411.84,-6.71,-1.42,-6.71,-1.42,1.43,1.37,0.56,-5.27,-5.27,-5.29
415.96,-6.77,-1.50,-6.77,-1.50,1.48,1.38,0.60,-5.29,-5.28,-5.27
420.12,-6.81,-1.56,-6.81,-1.56,1.52,1.38,0.64,-5.29,-5.29,-5.25
