frequency,raw,error,smoothed,error_smoothed,equalization,parametric_eq,fixed_band_eq,equalized_raw,equalized_smoothed,target
20.00,-17.06,-18.95,-17.05,-18.96,18.96,17.21,6.32,1.90,1.91,1.89
20.20,-16.88,-18.77,-16.86,-18.76,18.76,17.46,6.47,1.89,1.90,1.89
20.40,-16.70,-18.58,-16.68,-18.57,18.57,17.69,6.62,1.87,1.90,1.89
20.61,-16.51,-18.40,-16.49,-18.38,18.38,17.90,6.77,1.87,1.89,1.89
20.81,-16.31,-18.19,-16.31,-18.19,18.19,18.08,6.93,1.88,1.87,1.89
21.02,-16.12,-18.00,-16.13,-18.00,18.00,18.23,7.09,1.88,1.86,1.89
21.23,-15.92,-17.78,-15.95,-17.81,17.81,18.35,7.26,1.89,1.85,1.87
21.44,-15.74,-17.59,-15.78,-17.62,17.62,18.43,7.43,1.88,1.84,1.86
21.66,-15.57,-17.41,-15.60,-17.43,17.43,18.47,7.60,1.86,1.82,1.84
21.87,-15.41,-17.22,-15.43,-17.24,17.24,18.48,7.78,1.83,1.81,1.81
22.09,-15.25,-17.05,-15.26,-17.05,17.05,18.44,7.96,1.81,1.79,1.80
22.31,-15.10,-16.87,-15.09,-16.87,16.87,18.37,8.15,1.77,1.77,1.77
22.54,-14.95,-16.70,-14.93,-16.68,16.68,18.26,8.35,1.73,1.75,1.75
22.76,-14.79,-16.52,-14.77,-16.50,16.50,18.12,8.55,1.71,1.73,1.73
22.99,-14.64,-16.34,-14.61,-16.31,16.31,17.95,8.75,1.68,1.71,1.70
23.22,-14.47,-16.14,-14.45,-16.14,16.14,17.75,8.96,1.67,1.69,1.67
23.45,-14.30,-15.95,-14.30,-15.96,15.96,17.53,9.18,1.66,1.66,1.65
23.69,-14.13,-15.77,-14.14,-15.78,15.78,17.30,9.40,1.65,1.64,1.64
23.92,-13.96,-15.57,-13.98,-15.60,15.60,17.05,9.63,1.65,1.62,1.62
24.16,-13.79,-15.39,-13.82,-15.42,15.42,16.78,9.86,1.64,1.60,1.61
24.40,-13.65,-15.23,-13.66,-15.24,15.24,16.52,10.10,1.60,1.58,1.59
24.65,-13.49,-15.05,-13.49,-15.06,15.06,16.24,10.35,1.57,1.56,1.57
24.89,-13.34,-14.88,-13.32,-14.87,14.87,15.96,10.60,1.53,1.55,1.54
25.14,-13.19,-14.72,-13.15,-14.68,14.68,15.68,10.86,1.49,1.53,1.53
25.39,-13.01,-14.53,-12.98,-14.49,14.49,15.40,11.12,1.48,1.51,1.51
25.65,-12.85,-14.35,-12.80,-14.30,14.30,15.12,11.39,1.45,1.50,1.50
25.91,-12.66,-14.13,-12.63,-14.11,14.11,14.84,11.66,1.45,1.48,1.47
26.16,-12.46,-13.92,-12.45,-13.92,13.92,14.57,11.94,1.45,1.46,1.46
26.43,-12.28,-13.73,-12.28,-13.72,13.72,14.30,12.23,1.44,1.45,1.45
26.69,-12.09,-13.51,-12.10,-13.53,13.53,14.03,12.52,1.44,1.43,1.43
26.96,-11.91,-13.33,-11.93,-13.34,13.34,13.77,12.81,1.43,1.41,1.42
27.23,-11.74,-13.14,-11.76,-13.16,13.16,13.52,13.10,1.42,1.40,1.40
27.50,-11.58,-12.97,-11.60,-12.98,12.98,13.27,13.39,1.41,1.39,1.39
27.77,-11.42,-12.79,-11.45,-12.82,12.82,13.02,13.68,1.40,1.37,1.37
28.05,-11.27,-12.63,-11.30,-12.66,12.66,12.78,13.97,1.39,1.36,1.36
28.33,-11.14,-12.47,-11.17,-12.52,12.52,12.54,14.25,1.38,1.34,1.34
28.62,-11.01,-12.34,-11.05,-12.38,12.38,12.31,14.52,1.37,1.33,1.33
28.90,-10.89,-12.20,-10.93,-12.25,12.25,12.09,14.77,1.36,1.32,1.31
29.19,-10.80,-12.09,-10.82,-12.12,12.12,11.87,15.01,1.33,1.30,1.29
29.48,-10.70,-11.99,-10.71,-12.00,12.00,11.65,15.23,1.30,1.29,1.29
29.78,-10.61,-11.89,-10.60,-11.88,11.88,11.44,15.41,1.27,1.27,1.28
30.08,-10.52,-11.79,-10.49,-11.75,11.75,11.24,15.57,1.23,1.26,1.27
30.38,-10.43,-11.67,-10.37,-11.62,11.62,11.04,15.69,1.19,1.24,1.24
30.68,-10.31,-11.54,-10.25,-11.48,11.48,10.84,15.77,1.17,1.23,1.23
30.99,-10.18,-11.39,-10.12,-11.33,11.33,10.65,15.81,1.16,1.21,1.21
31.30,-10.04,-11.24,-9.98,-11.18,11.18,10.46,15.81,1.14,1.20,1.20
31.61,-9.87,-11.05,-9.84,-11.02,11.02,10.28,15.77,1.15,1.18,1.19
31.93,-9.71,-10.87,-9.69,-10.85,10.85,10.10,15.68,1.14,1.16,1.16
32.24,-9.54,-10.67,-9.53,-10.67,10.67,9.93,15.55,1.14,1.14,1.13
32.57,-9.36,-10.48,-9.37,-10.49,10.49,9.75,15.38,1.13,1.12,1.12
32.89,-9.19,-10.29,-9.21,-10.30,10.30,9.59,15.18,1.12,1.10,1.10
33.22,-9.01,-10.08,-9.04,-10.12,10.12,9.42,14.96,1.11,1.08,1.07
33.55,-8.85,-9.90,-8.88,-9.93,9.93,9.26,14.71,1.09,1.06,1.06
33.89,-8.69,-9.72,-8.72,-9.75,9.75,9.11,14.44,1.06,1.03,1.04
34.23,-8.54,-9.55,-8.56,-9.57,9.57,8.95,14.15,1.04,1.01,1.01
34.57,-8.40,-9.39,-8.41,-9.40,9.40,8.80,13.86,1.00,0.99,0.99
34.92,-8.26,-9.22,-8.27,-9.24,9.24,8.65,13.56,0.98,0.97,0.96
35.27,-8.12,-9.07,-8.13,-9.08,9.08,8.51,13.25,0.96,0.95,0.95
35.62,-7.99,-8.92,-7.99,-8.92,8.92,8.37,12.93,0.93,0.93,0.93
35.97,-7.86,-8.76,-7.86,-8.76,8.76,8.23,12.62,0.91,0.91,0.90
36.33,-7.74,-8.62,-7.73,-8.61,8.61,8.09,12.31,0.88,0.88,0.89
36.70,-7.63,-8.49,-7.60,-8.46,8.46,7.96,12.00,0.83,0.86,0.86
37.06,-7.50,-8.34,-7.47,-8.31,8.31,7.83,11.69,0.82,0.84,0.84
37.43,-7.37,-8.19,-7.34,-8.16,8.16,7.70,11.39,0.80,0.82,0.82
37.81,-7.25,-8.05,-7.22,-8.02,8.02,7.57,11.09,0.77,0.80,0.80
38.19,-7.11,-7.88,-7.10,-7.87,7.87,7.45,10.80,0.77,0.78,0.77
38.57,-6.99,-7.75,-6.98,-7.74,7.74,7.33,10.51,0.75,0.75,0.76
38.95,-6.88,-7.61,-6.88,-7.61,7.61,7.21,10.23,0.73,0.73,0.73
39.34,-6.76,-7.46,-6.78,-7.49,7.49,7.09,9.96,0.73,0.71,0.71
39.74,-6.65,-7.33,-6.68,-7.38,7.38,6.97,9.68,0.73,0.69,0.68
40.14,-6.54,-7.21,-6.59,-7.27,7.27,6.86,9.42,0.73,0.67,0.68
40.54,-6.45,-7.10,-6.51,-7.17,7.17,6.75,9.16,0.72,0.65,0.65
40.94,-6.38,-7.01,-6.44,-7.07,7.07,6.64,8.91,0.69,0.63,0.63
41.35,-6.35,-6.95,-6.37,-6.98,6.98,6.53,8.66,0.64,0.61,0.61
41.76,-6.31,-6.91,-6.31,-6.90,6.90,6.42,8.41,0.59,0.59,0.60
42.18,-6.28,-6.86,-6.25,-6.82,6.82,6.31,8.18,0.54,0.57,0.58
42.60,-6.23,-6.78,-6.18,-6.74,6.74,6.21,7.94,0.51,0.55,0.55
43.03,-6.16,-6.70,-6.12,-6.65,6.65,6.11,7.71,0.49,0.53,0.54
43.46,-6.08,-6.59,-6.05,-6.56,6.56,6.01,7.49,0.48,0.51,0.52
43.90,-5.99,-6.48,-5.97,-6.47,6.47,5.91,7.27,0.48,0.49,0.49
44.33,-5.92,-6.39,-5.89,-6.36,6.36,5.81,7.06,0.45,0.47,0.47
44.78,-5.84,-6.29,-5.80,-6.25,6.25,5.71,6.85,0.41,0.45,0.45
45.23,-5.74,-6.16,-5.70,-6.13,6.13,5.61,6.64,0.40,0.43,0.42
45.68,-5.63,-6.03,-5.60,-6.01,6.01,5.52,6.44,0.38,0.41,0.40
46.13,-5.50,-5.88,-5.49,-5.87,5.87,5.43,6.24,0.38,0.39,0.38
46.60,-5.36,-5.73,-5.37,-5.73,5.73,5.33,6.05,0.37,0.36,0.37
47.06,-5.23,-5.57,-5.25,-5.59,5.59,5.24,5.86,0.36,0.34,0.35
47.53,-5.10,-5.42,-5.13,-5.45,5.45,5.15,5.67,0.35,0.32,0.33
48.01,-4.99,-5.30,-5.02,-5.31,5.31,5.06,5.49,0.32,0.29,0.31
48.49,-4.88,-5.16,-4.90,-5.17,5.17,4.97,5.31,0.29,0.27,0.28
48.97,-4.78,-5.02,-4.78,-5.03,5.03,4.88,5.13,0.25,0.25,0.25
49.46,-4.68,-4.89,-4.66,-4.89,4.89,4.79,4.96,0.21,0.22,0.21
49.96,-4.57,-4.75,-4.55,-4.75,4.75,4.70,4.79,0.18,0.20,0.18
50.46,-4.45,-4.62,-4.44,-4.61,4.61,4.61,4.62,0.17,0.17,0.18
50.96,-4.34,-4.49,-4.34,-4.49,4.49,4.53,4.46,0.15,0.15,0.15
51.47,-4.26,-4.37,-4.24,-4.36,4.36,4.44,4.29,0.11,0.12,0.12
51.99,-4.18,-4.27,-4.15,-4.25,4.25,4.36,4.14,0.07,0.09,0.09
52.51,-4.10,-4.17,-4.08,-4.14,4.14,4.27,3.98,0.05,0.07,0.07
53.03,-3.99,-4.03,-4.01,-4.05,4.05,4.18,3.83,0.07,0.04,0.05
53.56,-3.89,-3.91,-3.95,-3.97,3.97,4.10,3.68,0.08,0.01,0.02
54.10,-3.82,-3.81,-3.90,-3.89,3.89,4.01,3.53,0.07,-0.01,-0.01
54.64,-3.81,-3.77,-3.86,-3.82,3.82,3.93,3.39,0.01,-0.04,-0.04
55.18,-3.79,-3.72,-3.82,-3.76,3.76,3.84,3.25,-0.03,-0.07,-0.07
55.74,-3.76,-3.66,-3.79,-3.70,3.70,3.76,3.12,-0.06,-0.09,-0.10
56.29,-3.74,-3.62,-3.77,-3.64,3.64,3.68,2.98,-0.09,-0.12,-0.12
56.86,-3.75,-3.60,-3.74,-3.59,3.59,3.59,2.85,-0.16,-0.15,-0.15
57.42,-3.80,-3.61,-3.71,-3.54,3.54,3.51,2.73,-0.26,-0.18,-0.18
58.00,-3.79,-3.58,-3.69,-3.48,3.48,3.42,2.60,-0.31,-0.21,-0.21
58.58,-3.71,-3.47,-3.66,-3.42,3.42,3.34,2.48,-0.29,-0.24,-0.24
59.16,-3.61,-3.34,-3.62,-3.35,3.35,3.25,2.37,-0.25,-0.27,-0.26
59.76,-3.57,-3.28,-3.58,-3.28,3.28,3.16,2.26,-0.29,-0.30,-0.29
60.35,-3.53,-3.20,-3.52,-3.19,3.19,3.08,2.15,-0.34,-0.33,-0.32
60.96,-3.48,-3.14,-3.45,-3.09,3.09,2.99,2.04,-0.38,-0.36,-0.34
61.57,-3.39,-3.00,-3.38,-2.99,2.99,2.91,1.94,-0.40,-0.39,-0.39
62.18,-3.30,-2.87,-3.30,-2.88,2.88,2.82,1.84,-0.42,-0.42,-0.43
62.80,-3.22,-2.76,-3.21,-2.75,2.75,2.73,1.75,-0.46,-0.45,-0.46
63.43,-3.13,-2.63,-3.11,-2.62,2.62,2.64,1.65,-0.50,-0.48,-0.50
64.07,-3.02,-2.49,-3.01,-2.49,2.49,2.55,1.57,-0.53,-0.52,-0.53
64.71,-2.91,-2.36,-2.91,-2.36,2.36,2.46,1.48,-0.54,-0.55,-0.55
65.35,-2.81,-2.22,-2.82,-2.24,2.24,2.37,1.40,-0.57,-0.58,-0.58
66.01,-2.71,-2.10,-2.72,-2.11,2.11,2.28,1.32,-0.60,-0.61,-0.61
66.67,-2.61,-1.97,-2.62,-1.98,1.98,2.19,1.24,-0.62,-0.64,-0.64
67.33,-2.51,-1.84,-2.53,-1.86,1.86,2.09,1.17,-0.65,-0.67,-0.67
68.01,-2.42,-1.72,-2.44,-1.73,1.73,2.00,1.10,-0.68,-0.70,-0.70
68.69,-2.33,-1.60,-2.35,-1.62,1.62,1.90,1.03,-0.71,-0.73,-0.73
69.37,-2.25,-1.48,-2.27,-1.50,1.50,1.81,0.96,-0.75,-0.77,-0.77
70.07,-2.18,-1.38,-2.18,-1.39,1.39,1.71,0.90,-0.79,-0.80,-0.80
70.77,-2.11,-1.28,-2.11,-1.27,1.27,1.61,0.83,-0.83,-0.83,-0.83
71.48,-2.05,-1.18,-2.03,-1.17,1.17,1.51,0.77,-0.88,-0.87,-0.87
72.19,-1.99,-1.09,-1.97,-1.06,1.06,1.41,0.71,-0.93,-0.91,-0.90
72.91,-1.91,-0.96,-1.90,-0.95,0.95,1.31,0.65,-0.96,-0.95,-0.94
73.64,-1.83,-0.84,-1.83,-0.85,0.85,1.21,0.59,-0.98,-0.99,-0.99
74.38,-1.77,-0.74,-1.77,-0.74,0.74,1.10,0.53,-1.03,-1.03,-1.02
75.12,-1.71,-0.63,-1.71,-0.64,0.64,1.00,0.48,-1.07,-1.07,-1.08
75.87,-1.65,-0.53,-1.65,-0.53,0.53,0.89,0.42,-1.11,-1.11,-1.12
76.63,-1.59,-0.43,-1.59,-0.43,0.43,0.78,0.36,-1.16,-1.16,-1.15
77.40,-1.53,-0.32,-1.53,-0.32,0.32,0.68,0.31,-1.21,-1.21,-1.20
78.17,-1.48,-0.21,-1.47,-0.22,0.22,0.57,0.25,-1.26,-1.25,-1.26
78.95,-1.42,-0.12,-1.41,-0.11,0.11,0.45,0.19,-1.31,-1.30,-1.29
79.74,-1.37,-0.02,-1.36,-0.00,0.00,0.34,0.14,-1.36,-1.35,-1.35
80.54,-1.31,0.09,-1.30,0.10,-0.10,0.23,0.08,-1.41,-1.40,-1.40
81.35,-1.26,0.20,-1.26,0.20,-0.20,0.11,0.02,-1.46,-1.45,-1.45
82.16,-1.22,0.29,-1.21,0.30,-0.30,-0.00,-0.03,-1.52,-1.51,-1.51
82.98,-1.17,0.39,-1.16,0.40,-0.40,-0.12,-0.09,-1.56,-1.56,-1.55
83.81,-1.12,0.50,-1.12,0.49,-0.49,-0.24,-0.15,-1.61,-1.61,-1.62
84.65,-1.08,0.60,-1.09,0.58,-0.58,-0.35,-0.21,-1.66,-1.67,-1.68
85.50,-1.05,0.68,-1.06,0.67,-0.67,-0.47,-0.27,-1.72,-1.73,-1.73
86.35,-1.03,0.76,-1.04,0.75,-0.75,-0.59,-0.33,-1.78,-1.78,-1.78
87.22,-1.01,0.84,-1.02,0.82,-0.82,-0.71,-0.40,-1.83,-1.84,-1.84
88.09,-0.99,0.92,-1.01,0.89,-0.89,-0.83,-0.46,-1.88,-1.90,-1.90
88.97,-0.99,0.97,-1.00,0.96,-0.96,-0.95,-0.52,-1.94,-1.96,-1.96
89.86,-0.99,1.03,-1.00,1.02,-1.02,-1.06,-0.59,-2.00,-2.02,-2.02
90.76,-0.99,1.10,-1.01,1.07,-1.07,-1.18,-0.66,-2.06,-2.08,-2.09
91.66,-1.00,1.15,-1.01,1.13,-1.13,-1.30,-0.72,-2.13,-2.14,-2.14
92.58,-1.02,1.20,-1.02,1.19,-1.19,-1.41,-0.79,-2.20,-2.21,-2.22
93.51,-1.04,1.22,-1.02,1.24,-1.24,-1.52,-0.86,-2.28,-2.27,-2.26
94.44,-1.04,1.29,-1.03,1.31,-1.31,-1.64,-0.93,-2.34,-2.33,-2.33
95.39,-1.06,1.33,-1.03,1.37,-1.37,-1.74,-1.00,-2.43,-2.40,-2.39
96.34,-1.06,1.41,-1.02,1.45,-1.45,-1.85,-1.07,-2.50,-2.47,-2.47
97.30,-1.06,1.48,-1.01,1.52,-1.52,-1.95,-1.15,-2.58,-2.53,-2.53
98.28,-1.04,1.56,-1.00,1.60,-1.60,-2.05,-1.22,-2.64,-2.60,-2.60
99.26,-1.01,1.67,-0.98,1.69,-1.69,-2.15,-1.29,-2.70,-2.67,-2.68
100.25,-0.97,1.78,-0.97,1.78,-1.78,-2.24,-1.37,-2.75,-2.74,-2.74
101.25,-0.93,1.88,-0.94,1.87,-1.87,-2.32,-1.44,-2.80,-2.81,-2.81
102.27,-0.90,1.99,-0.92,1.97,-1.97,-2.41,-1.51,-2.87,-2.89,-2.89
103.29,-0.88,2.09,-0.89,2.07,-2.07,-2.48,-1.59,-2.94,-2.96,-2.97
104.32,-0.85,2.19,-0.87,2.16,-2.16,-2.55,-1.66,-3.01,-3.03,-3.03
105.37,-0.83,2.27,-0.85,2.26,-2.26,-2.61,-1.73,-3.09,-3.11,-3.10
106.42,-0.83,2.35,-0.82,2.36,-2.36,-2.67,-1.81,-3.19,-3.18,-3.18
107.48,-0.81,2.45,-0.81,2.45,-2.45,-2.72,-1.88,-3.26,-3.26,-3.26
108.56,-0.80,2.54,-0.79,2.54,-2.54,-2.76,-1.95,-3.34,-3.34,-3.34
109.64,-0.79,2.62,-0.78,2.63,-2.63,-2.80,-2.01,-3.42,-3.41,-3.41
110.74,-0.79,2.69,-0.78,2.71,-2.71,-2.82,-2.08,-3.50,-3.49,-3.48
111.85,-0.80,2.76,-0.78,2.79,-2.79,-2.84,-2.14,-3.58,-3.57,-3.56
112.97,-0.81,2.85,-0.79,2.86,-2.86,-2.86,-2.20,-3.66,-3.65,-3.65
114.10,-0.82,2.90,-0.80,2.92,-2.92,-2.86,-2.26,-3.74,-3.72,-3.72
115.24,-0.82,2.98,-0.82,2.97,-2.97,-2.86,-2.32,-3.79,-3.80,-3.80
116.39,-0.84,3.04,-0.85,3.02,-3.02,-2.85,-2.37,-3.86,-3.87,-3.88
117.55,-0.88,3.08,-0.89,3.06,-3.06,-2.84,-2.41,-3.94,-3.95,-3.96
118.73,-0.92,3.12,-0.94,3.09,-3.09,-2.82,-2.46,-4.00,-4.02,-4.03
119.92,-0.97,3.13,-1.00,3.10,-3.10,-2.79,-2.50,-4.07,-4.10,-4.10
121.12,-1.04,3.13,-1.07,3.11,-3.11,-2.76,-2.53,-4.14,-4.17,-4.17
122.33,-1.13,3.12,-1.14,3.10,-3.10,-2.72,-2.56,-4.23,-4.24,-4.24
123.55,-1.23,3.08,-1.23,3.08,-3.08,-2.68,-2.59,-4.31,-4.32,-4.31
124.79,-1.33,3.05,-1.33,3.05,-3.05,-2.63,-2.61,-4.38,-4.38,-4.38
126.03,-1.44,3.00,-1.44,3.01,-3.01,-2.58,-2.62,-4.45,-4.45,-4.44
127.29,-1.55,2.96,-1.55,2.96,-2.96,-2.53,-2.63,-4.51,-4.52,-4.51
128.57,-1.68,2.91,-1.68,2.91,-2.91,-2.47,-2.64,-4.58,-4.58,-4.59
129.85,-1.80,2.85,-1.80,2.84,-2.84,-2.41,-2.64,-4.64,-4.65,-4.65
131.15,-1.94,2.77,-1.93,2.77,-2.77,-2.35,-2.63,-4.71,-4.71,-4.71
132.46,-2.07,2.71,-2.07,2.70,-2.70,-2.29,-2.62,-4.77,-4.77,-4.78
133.79,-2.21,2.62,-2.20,2.63,-2.63,-2.22,-2.61,-4.83,-4.83,-4.82
135.12,-2.35,2.54,-2.33,2.55,-2.55,-2.16,-2.60,-4.90,-4.88,-4.89
136.48,-2.49,2.45,-2.46,2.47,-2.47,-2.09,-2.58,-4.96,-4.93,-4.93
137.84,-2.63,2.35,-2.59,2.39,-2.39,-2.03,-2.55,-5.02,-4.98,-4.98
139.22,-2.75,2.29,-2.73,2.30,-2.30,-1.96,-2.53,-5.05,-5.03,-5.04
140.61,-2.88,2.22,-2.86,2.22,-2.22,-1.90,-2.50,-5.10,-5.08,-5.09
142.02,-2.99,2.13,-2.99,2.13,-2.13,-1.84,-2.47,-5.12,-5.12,-5.11
143.44,-3.12,2.04,-3.13,2.03,-2.03,-1.77,-2.44,-5.15,-5.16,-5.15
144.87,-3.26,1.95,-3.26,1.94,-1.94,-1.71,-2.40,-5.19,-5.20,-5.20
146.32,-3.39,1.85,-3.40,1.84,-1.84,-1.65,-2.37,-5.22,-5.24,-5.24
147.78,-3.53,1.74,-3.55,1.73,-1.73,-1.60,-2.33,-5.26,-5.28,-5.27
149.26,-3.67,1.64,-3.70,1.62,-1.62,-1.54,-2.29,-5.28,-5.31,-5.31
150.75,-3.82,1.53,-3.85,1.50,-1.50,-1.49,-2.25,-5.31,-5.35,-5.35
152.26,-3.98,1.41,-4.02,1.37,-1.37,-1.44,-2.22,-5.35,-5.38,-5.39
153.78,-4.14,1.28,-4.18,1.24,-1.24,-1.39,-2.18,-5.38,-5.42,-5.42
155.32,-4.31,1.14,-4.35,1.11,-1.11,-1.35,-2.14,-5.42,-5.45,-5.45
156.88,-4.48,1.01,-4.51,0.98,-0.98,-1.30,-2.10,-5.45,-5.49,-5.48
158.44,-4.66,0.87,-4.67,0.85,-0.85,-1.26,-2.07,-5.51,-5.52,-5.52
160.03,-4.82,0.75,-4.82,0.74,-0.74,-1.23,-2.03,-5.55,-5.56,-5.56
161.63,-4.98,0.62,-4.96,0.63,-0.63,-1.20,-2.00,-5.61,-5.59,-5.60
163.24,-5.13,0.50,-5.08,0.54,-0.54,-1.17,-1.96,-5.67,-5.63,-5.63
164.88,-5.26,0.40,-5.19,0.47,-0.47,-1.14,-1.93,-5.73,-5.66,-5.66
166.53,-5.35,0.34,-5.28,0.42,-0.42,-1.12,-1.90,-5.77,-5.70,-5.69
168.19,-5.41,0.33,-5.34,0.39,-0.39,-1.11,-1.87,-5.80,-5.73,-5.74
169.87,-5.44,0.33,-5.39,0.38,-0.38,-1.09,-1.84,-5.82,-5.77,-5.77
171.57,-5.44,0.37,-5.41,0.40,-0.40,-1.08,-1.81,-5.83,-5.81,-5.80
173.29,-5.44,0.40,-5.41,0.43,-0.43,-1.08,-1.79,-5.87,-5.85,-5.84
175.02,-5.40,0.48,-5.40,0.49,-0.49,-1.08,-1.76,-5.89,-5.89,-5.88
176.77,-5.36,0.57,-5.36,0.57,-0.57,-1.08,-1.74,-5.92,-5.93,-5.93
178.54,-5.30,0.67,-5.31,0.66,-0.66,-1.09,-1.72,-5.95,-5.96,-5.97
180.32,-5.24,0.77,-5.25,0.76,-0.76,-1.10,-1.70,-6.00,-6.00,-6.00
182.13,-5.16,0.88,-5.17,0.87,-0.87,-1.12,-1.68,-6.03,-6.04,-6.04
183.95,-5.09,1.00,-5.09,0.99,-0.99,-1.14,-1.66,-6.08,-6.08,-6.09
185.79,-5.00,1.13,-5.01,1.11,-1.11,-1.17,-1.65,-6.11,-6.12,-6.13
187.65,-4.91,1.26,-4.93,1.23,-1.23,-1.20,-1.64,-6.14,-6.16,-6.17
189.52,-4.84,1.37,-4.85,1.35,-1.35,-1.23,-1.62,-6.19,-6.20,-6.21
191.42,-4.75,1.49,-4.76,1.47,-1.47,-1.27,-1.61,-6.22,-6.23,-6.24
193.33,-4.67,1.59,-4.68,1.59,-1.59,-1.32,-1.60,-6.26,-6.27,-6.26
195.27,-4.60,1.70,-4.59,1.71,-1.71,-1.37,-1.59,-6.31,-6.30,-6.29
197.22,-4.53,1.80,-4.51,1.82,-1.82,-1.42,-1.59,-6.35,-6.33,-6.33
199.19,-4.45,1.93,-4.44,1.93,-1.93,-1.48,-1.58,-6.37,-6.36,-6.38
201.18,-4.39,2.01,-4.37,2.02,-2.02,-1.54,-1.57,-6.41,-6.39,-6.40
203.19,-4.33,2.09,-4.31,2.11,-2.11,-1.60,-1.57,-6.44,-6.42,-6.42
205.23,-4.27,2.18,-4.27,2.18,-2.18,-1.67,-1.57,-6.44,-6.45,-6.45
207.28,-4.21,2.25,-4.24,2.23,-2.23,-1.74,-1.56,-6.44,-6.47,-6.45
209.35,-4.17,2.32,-4.22,2.27,-2.27,-1.81,-1.56,-6.44,-6.49,-6.49
211.44,-4.13,2.39,-4.21,2.31,-2.31,-1.88,-1.56,-6.43,-6.51,-6.52
213.56,-4.11,2.43,-4.20,2.33,-2.33,-1.96,-1.55,-6.44,-6.53,-6.54
215.69,-4.12,2.42,-4.20,2.35,-2.35,-2.03,-1.55,-6.47,-6.55,-6.54
217.85,-4.16,2.40,-4.20,2.37,-2.37,-2.10,-1.55,-6.53,-6.56,-6.56
220.03,-4.22,2.37,-4.19,2.38,-2.38,-2.17,-1.55,-6.60,-6.58,-6.58
222.23,-4.30,2.30,-4.19,2.40,-2.40,-2.23,-1.55,-6.69,-6.59,-6.60
224.45,-4.34,2.25,-4.18,2.41,-2.41,-2.29,-1.54,-6.75,-6.59,-6.59
226.70,-4.33,2.28,-4.17,2.43,-2.43,-2.34,-1.54,-6.75,-6.60,-6.61
228.96,-4.28,2.33,-4.18,2.43,-2.43,-2.39,-1.53,-6.70,-6.60,-6.61
231.25,-4.23,2.37,-4.19,2.41,-2.41,-2.43,-1.53,-6.64,-6.60,-6.60
233.57,-4.19,2.41,-4.21,2.39,-2.39,-2.46,-1.52,-6.58,-6.60,-6.59
235.90,-4.16,2.44,-4.23,2.36,-2.36,-2.47,-1.51,-6.52,-6.59,-6.59
238.26,-4.13,2.47,-4.25,2.34,-2.34,-2.48,-1.51,-6.46,-6.59,-6.60
240.64,-4.13,2.45,-4.27,2.30,-2.30,-2.47,-1.49,-6.43,-6.58,-6.58
243.05,-4.14,2.43,-4.30,2.27,-2.27,-2.46,-1.48,-6.41,-6.57,-6.57
245.48,-4.22,2.33,-4.33,2.23,-2.23,-2.43,-1.47,-6.44,-6.55,-6.55
247.93,-4.34,2.20,-4.36,2.17,-2.17,-2.38,-1.45,-6.51,-6.54,-6.54
250.41,-4.51,2.02,-4.41,2.11,-2.11,-2.33,-1.44,-6.62,-6.52,-6.53
252.92,-4.64,1.86,-4.47,2.03,-2.03,-2.27,-1.42,-6.67,-6.50,-6.50
255.45,-4.68,1.80,-4.53,1.95,-1.95,-2.19,-1.39,-6.63,-6.48,-6.48
258.00,-4.66,1.80,-4.60,1.86,-1.86,-2.11,-1.37,-6.52,-6.46,-6.45
260.58,-4.65,1.79,-4.66,1.78,-1.78,-2.01,-1.35,-6.42,-6.44,-6.44
263.19,-4.68,1.74,-4.72,1.69,-1.69,-1.91,-1.32,-6.37,-6.42,-6.42
265.82,-4.73,1.67,-4.78,1.62,-1.62,-1.81,-1.29,-6.35,-6.40,-6.40
268.48,-4.80,1.58,-4.82,1.56,-1.56,-1.70,-1.26,-6.35,-6.37,-6.37
271.16,-4.86,1.48,-4.85,1.50,-1.50,-1.59,-1.23,-6.36,-6.35,-6.34
273.87,-4.92,1.41,-4.86,1.46,-1.46,-1.47,-1.20,-6.38,-6.33,-6.33
276.61,-4.96,1.34,-4.89,1.42,-1.42,-1.35,-1.16,-6.37,-6.30,-6.29
279.38,-4.98,1.30,-4.93,1.35,-1.35,-1.24,-1.13,-6.33,-6.28,-6.28
282.17,-5.01,1.25,-4.99,1.26,-1.26,-1.12,-1.09,-6.27,-6.26,-6.26
284.99,-5.04,1.20,-5.07,1.16,-1.16,-1.00,-1.05,-6.20,-6.23,-6.23
287.84,-5.06,1.15,-5.16,1.05,-1.05,-0.89,-1.01,-6.11,-6.21,-6.21
290.72,-5.09,1.09,-5.24,0.94,-0.94,-0.77,-0.98,-6.03,-6.18,-6.17
293.63,-5.15,1.01,-5.31,0.84,-0.84,-0.67,-0.94,-5.98,-6.15,-6.16
296.57,-5.24,0.89,-5.39,0.74,-0.74,-0.56,-0.89,-5.97,-6.12,-6.12
299.53,-5.39,0.71,-5.46,0.64,-0.64,-0.45,-0.85,-6.02,-6.09,-6.10
302.53,-5.62,0.46,-5.52,0.54,-0.54,-0.35,-0.81,-6.16,-6.06,-6.07
305.55,-5.86,0.17,-5.59,0.44,-0.44,-0.26,-0.77,-6.30,-6.03,-6.03
308.61,-5.96,0.04,-5.66,0.34,-0.34,-0.16,-0.73,-6.30,-6.00,-6.00
311.69,-5.90,0.07,-5.73,0.24,-0.24,-0.08,-0.68,-6.14,-5.97,-5.97
314.81,-5.81,0.12,-5.79,0.15,-0.15,0.01,-0.64,-5.96,-5.94,-5.93
317.96,-5.78,0.13,-5.85,0.06,-0.06,0.09,-0.60,-5.83,-5.91,-5.90
321.14,-5.79,0.09,-5.91,-0.03,0.03,0.17,-0.55,-5.76,-5.88,-5.88
324.35,-5.84,0.01,-5.96,-0.11,0.11,0.24,-0.51,-5.73,-5.85,-5.85
327.59,-5.90,-0.08,-6.00,-0.18,0.18,0.31,-0.47,-5.71,-5.82,-5.82
330.87,-5.97,-0.18,-6.04,-0.24,0.24,0.38,-0.42,-5.72,-5.79,-5.79
334.18,-6.03,-0.26,-6.07,-0.30,0.30,0.44,-0.38,-5.73,-5.77,-5.77
337.52,-6.10,-0.35,-6.09,-0.35,0.35,0.50,-0.34,-5.75,-5.74,-5.74
340.90,-6.17,-0.45,-6.13,-0.40,0.40,0.56,-0.29,-5.76,-5.72,-5.72
344.30,-6.24,-0.54,-6.17,-0.47,0.47,0.61,-0.25,-5.76,-5.70,-5.70
347.75,-6.29,-0.61,-6.23,-0.55,0.55,0.66,-0.21,-5.74,-5.68,-5.67
351.23,-6.32,-0.66,-6.28,-0.62,0.62,0.71,-0.16,-5.70,-5.66,-5.66
354.74,-6.35,-0.71,-6.32,-0.68,0.68,0.75,-0.12,-5.67,-5.64,-5.64
358.28,-6.37,-0.75,-6.36,-0.74,0.74,0.79,-0.08,-5.63,-5.62,-5.62
361.87,-6.38,-0.77,-6.38,-0.78,0.78,0.83,-0.03,-5.59,-5.60,-5.60
365.49,-6.39,-0.81,-6.41,-0.83,0.83,0.86,0.01,-5.56,-5.58,-5.58
369.14,-6.41,-0.84,-6.43,-0.86,0.86,0.90,0.05,-5.54,-5.56,-5.57
372.83,-6.44,-0.89,-6.44,-0.90,0.90,0.92,0.09,-5.54,-5.54,-5.55
376.56,-6.45,-0.92,-6.46,-0.93,0.93,0.95,0.14,-5.51,-5.52,-5.53
380.33,-6.48,-0.97,-6.48,-0.97,0.97,0.98,0.18,-5.51,-5.51,-5.50
384.13,-6.50,-1.01,-6.50,-1.02,1.02,1.00,0.22,-5.48,-5.49,-5.49
387.97,-6.53,-1.06,-6.53,-1.07,1.07,1.02,0.26,-5.46,-5.47,-5.47
391.85,-6.55,-1.10,-6.57,-1.12,1.12,1.03,0.30,-5.43,-5.45,-5.45
395.77,-6.57,-1.15,-6.60,-1.18,1.18,1.05,0.35,-5.39,-5.43,-5.42
399.73,-6.58,-1.18,-6.64,-1.23,1.23,1.06,0.39,-5.34,-5.40,-5.40
403.72,-6.61,-1.22,-6.67,-1.29,1.29,1.07,0.43,-5.32,-5.38,-5.38
407.76,-6.65,-1.28,-6.69,-1.33,1.33,1.08,0.47,-5.32,-5.36,-5.36
411.84,-6.71,-1.37,-6.71,-1.37,1.37,1.08,0.50,-5.34,-5.34,-5.34
415.96,-6.77,-1.45,-6.72,-1.40,1.40,1.08,0.54,-5.37,-5.32,-5.32
420.12,-6.81,-1.51,-6.72,-1.42,1.42,1.09,0.58,-5.39,-5.30,-5.30
424.32,-6.82,-1.55,-6.71,-1.43,1.43,1.08,0.61,-5.38,-5.27,-5.27
428.56,-6.78,-1.53,-6.69,-1.44,1.44,1.08,0.65,-5.34,-5.25,-5.25
432.85,-6.70,-1.47,-6.66,-1.43,1.43,1.08,0.68,-5.27,-5.23,-5.23
