frequency,raw,error,smoothed,error_smoothed,equalization,parametric_eq,fixed_band_eq,equalized_raw,equalized_smoothed,target
20.00,2.37,-3.88,2.37,-3.88,3.88,2.70,0.53,6.25,6.25,6.25
20.20,2.44,-3.81,2.44,-3.81,3.81,2.66,0.54,6.25,6.25,6.25
20.40,2.51,-3.74,2.51,-3.74,3.74,2.61,0.56,6.25,6.25,6.25
20.61,2.58,-3.67,2.58,-3.67,3.67,2.57,0.58,6.25,6.25,6.25
20.81,2.65,-3.60,2.65,-3.60,3.60,2.53,0.60,6.25,6.25,6.25
21.02,2.71,-3.54,2.72,-3.53,3.53,2.48,0.62,6.24,6.24,6.25
21.23,2.78,-3.45,2.78,-3.45,3.45,2.44,0.64,6.23,6.23,6.23
21.44,2.84,-3.38,2.84,-3.38,3.38,2.39,0.66,6.22,6.22,6.22
21.66,2.90,-3.30,2.90,-3.30,3.30,2.35,0.68,6.20,6.20,6.20
21.87,2.96,-3.22,2.96,-3.22,3.22,2.31,0.70,6.18,6.18,6.18
22.09,3.02,-3.15,3.02,-3.14,3.14,2.26,0.73,6.16,6.16,6.17
22.31,3.08,-3.06,3.08,-3.06,3.06,2.22,0.75,6.14,6.14,6.14
22.54,3.14,-2.98,3.14,-2.98,2.97,2.17,0.77,6.11,6.12,6.12
22.76,3.20,-2.90,3.20,-2.89,2.89,2.13,0.80,6.09,6.09,6.10
22.99,3.26,-2.81,3.26,-2.81,2.81,2.08,0.82,6.07,6.07,6.07
23.22,3.32,-2.72,3.32,-2.72,2.72,2.04,0.85,6.04,6.04,6.04
23.45,3.38,-2.63,3.38,-2.63,2.64,1.99,0.87,6.02,6.02,6.01
23.69,3.44,-2.56,3.44,-2.55,2.56,1.95,0.90,6.00,6.01,6.00
23.92,3.50,-2.48,3.50,-2.48,2.48,1.90,0.93,5.99,5.99,5.98
24.16,3.56,-2.41,3.56,-2.41,2.41,1.86,0.96,5.97,5.97,5.97
24.40,3.60,-2.35,3.61,-2.34,2.34,1.81,0.98,5.94,5.95,5.95
24.65,3.66,-2.27,3.66,-2.27,2.27,1.77,1.01,5.93,5.93,5.93
24.89,3.71,-2.20,3.71,-2.20,2.20,1.72,1.04,5.91,5.91,5.91
25.14,3.76,-2.14,3.77,-2.13,2.13,1.67,1.07,5.89,5.90,5.90
25.39,3.82,-2.06,3.82,-2.06,2.06,1.63,1.10,5.89,5.88,5.88
25.65,3.87,-2.00,3.87,-1.99,1.99,1.58,1.12,5.86,5.86,5.87
25.91,3.92,-1.92,3.92,-1.93,1.92,1.54,1.15,5.85,5.85,5.84
26.16,3.97,-1.86,3.97,-1.86,1.86,1.49,1.18,5.83,5.83,5.83
26.43,4.02,-1.80,4.02,-1.79,1.79,1.45,1.21,5.81,5.81,5.82
26.69,4.08,-1.71,4.08,-1.72,1.72,1.40,1.23,5.80,5.80,5.79
26.96,4.13,-1.65,4.13,-1.65,1.65,1.36,1.26,5.78,5.78,5.78
27.23,4.19,-1.58,4.19,-1.58,1.58,1.31,1.28,5.77,5.77,5.77
27.50,4.24,-1.52,4.24,-1.52,1.51,1.26,1.30,5.75,5.75,5.76
27.77,4.29,-1.45,4.30,-1.45,1.44,1.22,1.32,5.74,5.74,5.74
28.05,4.35,-1.38,4.35,-1.38,1.38,1.17,1.34,5.73,5.73,5.73
28.33,4.40,-1.31,4.40,-1.31,1.31,1.12,1.36,5.71,5.71,5.71
28.62,4.46,-1.24,4.45,-1.24,1.24,1.08,1.38,5.70,5.70,5.70
28.90,4.50,-1.18,4.50,-1.17,1.18,1.03,1.39,5.68,5.68,5.68
29.19,4.55,-1.11,4.56,-1.11,1.11,0.99,1.40,5.67,5.67,5.66
29.48,4.61,-1.05,4.61,-1.05,1.05,0.94,1.41,5.66,5.66,5.66
29.78,4.66,-0.99,4.66,-0.99,0.99,0.89,1.42,5.65,5.65,5.65
30.08,4.71,-0.93,4.71,-0.93,0.93,0.85,1.42,5.64,5.63,5.64
30.38,4.75,-0.87,4.76,-0.87,0.86,0.80,1.42,5.61,5.62,5.62
30.68,4.80,-0.81,4.80,-0.80,0.80,0.75,1.41,5.60,5.60,5.61
30.99,4.86,-0.72,4.85,-0.73,0.73,0.70,1.41,5.59,5.59,5.58
31.30,4.90,-0.67,4.91,-0.67,0.67,0.66,1.39,5.57,5.57,5.57
31.61,4.96,-0.60,4.96,-0.60,0.60,0.61,1.38,5.56,5.55,5.56
31.93,5.00,-0.54,5.00,-0.53,0.53,0.56,1.36,5.53,5.53,5.54
32.24,5.05,-0.46,5.05,-0.46,0.46,0.51,1.34,5.51,5.51,5.51
32.57,5.10,-0.39,5.10,-0.39,0.39,0.46,1.32,5.49,5.49,5.49
32.89,5.15,-0.33,5.15,-0.32,0.32,0.41,1.29,5.48,5.48,5.48
33.22,5.20,-0.25,5.20,-0.26,0.26,0.37,1.26,5.46,5.46,5.45
33.55,5.24,-0.20,5.24,-0.19,0.19,0.32,1.23,5.43,5.43,5.44
33.89,5.29,-0.12,5.29,-0.12,0.12,0.27,1.20,5.41,5.41,5.41
34.23,5.33,-0.06,5.33,-0.06,0.06,0.22,1.16,5.39,5.39,5.39
34.57,5.38,0.01,5.38,0.01,-0.01,0.17,1.12,5.37,5.37,5.37
34.92,5.42,0.07,5.42,0.07,-0.07,0.12,1.08,5.35,5.35,5.35
35.27,5.46,0.13,5.47,0.14,-0.13,0.07,1.03,5.33,5.33,5.33
35.62,5.51,0.20,5.51,0.20,-0.19,0.02,0.99,5.32,5.31,5.31
35.97,5.54,0.25,5.54,0.25,-0.25,-0.04,0.94,5.29,5.29,5.29
36.33,5.58,0.31,5.58,0.31,-0.31,-0.09,0.89,5.27,5.27,5.27
36.70,5.61,0.36,5.61,0.37,-0.37,-0.14,0.84,5.25,5.25,5.25
37.06,5.65,0.42,5.65,0.42,-0.42,-0.19,0.78,5.23,5.23,5.23
37.43,5.68,0.47,5.68,0.47,-0.47,-0.25,0.73,5.21,5.21,5.21
37.81,5.71,0.52,5.71,0.52,-0.52,-0.30,0.68,5.19,5.19,5.19
38.19,5.74,0.58,5.74,0.57,-0.57,-0.35,0.62,5.17,5.16,5.16
38.57,5.76,0.61,5.77,0.62,-0.62,-0.40,0.57,5.14,5.14,5.15
38.95,5.79,0.67,5.79,0.67,-0.67,-0.46,0.51,5.12,5.12,5.12
39.34,5.82,0.72,5.82,0.72,-0.71,-0.51,0.45,5.11,5.10,5.10
39.74,5.84,0.76,5.84,0.76,-0.76,-0.56,0.39,5.08,5.09,5.08
40.14,5.86,0.79,5.86,0.80,-0.80,-0.62,0.34,5.06,5.07,5.07
40.54,5.88,0.83,5.88,0.83,-0.83,-0.67,0.28,5.05,5.05,5.05
40.94,5.90,0.87,5.90,0.87,-0.87,-0.72,0.22,5.03,5.03,5.03
41.35,5.91,0.91,5.92,0.91,-0.90,-0.78,0.16,5.01,5.01,5.00
41.76,5.93,0.93,5.93,0.94,-0.94,-0.83,0.10,4.99,5.00,5.00
42.18,5.95,0.97,5.95,0.97,-0.97,-0.88,0.04,4.98,4.98,4.98
42.60,5.96,1.00,5.96,1.00,-1.00,-0.93,-0.02,4.96,4.96,4.96
43.03,5.97,1.02,5.97,1.03,-1.03,-0.97,-0.08,4.94,4.94,4.95
43.46,5.98,1.06,5.98,1.06,-1.06,-1.02,-0.14,4.92,4.92,4.92
43.90,5.99,1.09,5.99,1.09,-1.09,-1.07,-0.20,4.90,4.90,4.90
44.33,6.00,1.12,6.00,1.12,-1.12,-1.11,-0.25,4.88,4.88,4.88
44.78,6.00,1.14,6.01,1.15,-1.15,-1.15,-0.31,4.85,4.86,4.86
45.23,6.02,1.19,6.02,1.18,-1.18,-1.19,-0.37,4.84,4.84,4.83
45.68,6.02,1.21,6.02,1.21,-1.20,-1.22,-0.43,4.82,4.82,4.81
46.13,6.03,1.23,6.03,1.23,-1.23,-1.26,-0.50,4.80,4.80,4.80
46.60,6.04,1.25,6.04,1.25,-1.25,-1.29,-0.56,4.79,4.79,4.79
47.06,6.04,1.27,6.05,1.27,-1.28,-1.32,-0.62,4.76,4.77,4.77
47.53,6.05,1.30,6.05,1.29,-1.30,-1.35,-0.68,4.75,4.75,4.75
48.01,6.05,1.31,6.05,1.32,-1.32,-1.37,-0.74,4.73,4.73,4.74
48.49,6.05,1.34,6.05,1.34,-1.35,-1.40,-0.80,4.71,4.71,4.71
48.97,6.05,1.37,6.05,1.37,-1.37,-1.42,-0.86,4.68,4.68,4.68
49.46,6.04,1.39,6.05,1.40,-1.39,-1.44,-0.92,4.65,4.65,4.65
49.96,6.04,1.42,6.04,1.42,-1.41,-1.46,-0.98,4.63,4.63,4.62
50.46,6.05,1.44,6.04,1.44,-1.44,-1.47,-1.04,4.62,4.61,4.61
50.96,6.04,1.45,6.04,1.46,-1.46,-1.49,-1.10,4.59,4.59,4.59
51.47,6.04,1.48,6.04,1.48,-1.48,-1.50,-1.16,4.57,4.56,4.56
51.99,6.03,1.49,6.03,1.49,-1.50,-1.51,-1.22,4.54,4.54,4.54
52.51,6.03,1.51,6.03,1.51,-1.51,-1.53,-1.28,4.52,4.52,4.52
53.03,6.02,1.52,6.03,1.53,-1.53,-1.54,-1.34,4.49,4.50,4.50
53.56,6.02,1.55,6.02,1.55,-1.55,-1.55,-1.39,4.47,4.47,4.47
54.10,6.02,1.57,6.01,1.57,-1.57,-1.56,-1.45,4.46,4.45,4.45
54.64,6.00,1.58,6.01,1.59,-1.58,-1.57,-1.51,4.42,4.42,4.42
55.18,6.00,1.60,6.00,1.60,-1.60,-1.58,-1.56,4.40,4.40,4.40
55.74,5.99,1.62,5.99,1.62,-1.62,-1.59,-1.62,4.37,4.37,4.37
56.29,5.98,1.63,5.99,1.64,-1.64,-1.60,-1.67,4.34,4.35,4.35
56.86,5.98,1.66,5.98,1.65,-1.65,-1.61,-1.72,4.33,4.32,4.32
57.42,5.97,1.67,5.97,1.67,-1.67,-1.62,-1.77,4.30,4.30,4.30
58.00,5.96,1.68,5.96,1.69,-1.68,-1.64,-1.82,4.28,4.28,4.28
58.58,5.95,1.70,5.95,1.70,-1.70,-1.65,-1.86,4.25,4.26,4.25
59.16,5.95,1.72,5.94,1.72,-1.71,-1.66,-1.91,4.24,4.23,4.23
59.76,5.93,1.72,5.93,1.73,-1.73,-1.67,-1.95,4.20,4.20,4.21
60.35,5.92,1.74,5.92,1.74,-1.75,-1.69,-1.99,4.17,4.18,4.18
60.96,5.91,1.75,5.91,1.76,-1.76,-1.70,-2.03,4.15,4.15,4.16
61.57,5.90,1.78,5.90,1.78,-1.78,-1.72,-2.07,4.12,4.12,4.12
62.18,5.89,1.80,5.89,1.80,-1.80,-1.73,-2.10,4.09,4.09,4.09
62.80,5.88,1.82,5.88,1.82,-1.81,-1.75,-2.13,4.07,4.06,4.06
63.43,5.86,1.83,5.87,1.84,-1.83,-1.76,-2.16,4.03,4.04,4.03
64.07,5.85,1.85,5.85,1.85,-1.84,-1.78,-2.19,4.01,4.01,4.00
64.71,5.84,1.86,5.84,1.86,-1.86,-1.80,-2.22,3.99,3.98,3.98
65.35,5.82,1.86,5.82,1.86,-1.87,-1.81,-2.24,3.96,3.96,3.96
66.01,5.80,1.86,5.81,1.87,-1.87,-1.83,-2.27,3.93,3.93,3.94
66.67,5.79,1.88,5.79,1.88,-1.88,-1.85,-2.29,3.91,3.91,3.91
67.33,5.78,1.89,5.78,1.89,-1.89,-1.87,-2.31,3.89,3.89,3.89
68.01,5.76,1.90,5.77,1.90,-1.90,-1.88,-2.32,3.86,3.87,3.86
68.69,5.75,1.91,5.75,1.91,-1.91,-1.90,-2.34,3.84,3.84,3.84
69.37,5.73,1.92,5.73,1.92,-1.92,-1.92,-2.36,3.81,3.81,3.81
70.07,5.71,1.93,5.72,1.93,-1.93,-1.94,-2.37,3.78,3.78,3.78
70.77,5.70,1.94,5.70,1.94,-1.95,-1.96,-2.39,3.76,3.75,3.76
71.48,5.69,1.96,5.69,1.96,-1.96,-1.98,-2.40,3.73,3.73,3.73
72.19,5.67,1.97,5.68,1.98,-1.98,-2.00,-2.42,3.69,3.70,3.70
72.91,5.66,2.00,5.66,1.99,-1.99,-2.02,-2.44,3.67,3.66,3.66
73.64,5.64,2.01,5.64,2.01,-2.01,-2.04,-2.45,3.63,3.63,3.63
74.38,5.62,2.02,5.63,2.04,-2.03,-2.06,-2.47,3.59,3.60,3.60
75.12,5.62,2.07,5.61,2.06,-2.06,-2.08,-2.48,3.57,3.56,3.55
75.87,5.60,2.08,5.60,2.08,-2.08,-2.10,-2.50,3.52,3.52,3.52
76.63,5.58,2.09,5.59,2.10,-2.10,-2.12,-2.52,3.48,3.49,3.49
77.40,5.57,2.12,5.57,2.12,-2.12,-2.14,-2.54,3.45,3.44,3.45
78.17,5.55,2.16,5.55,2.15,-2.15,-2.17,-2.56,3.40,3.40,3.39
78.95,5.54,2.17,5.54,2.18,-2.18,-2.19,-2.58,3.36,3.36,3.37
79.74,5.53,2.20,5.53,2.20,-2.21,-2.21,-2.61,3.32,3.32,3.33
80.54,5.51,2.23,5.52,2.23,-2.24,-2.24,-2.63,3.27,3.28,3.28
81.35,5.51,2.27,5.51,2.27,-2.27,-2.27,-2.66,3.24,3.24,3.24
82.16,5.50,2.31,5.50,2.31,-2.31,-2.29,-2.69,3.20,3.20,3.19
82.98,5.49,2.34,5.49,2.35,-2.34,-2.32,-2.72,3.15,3.15,3.15
83.81,5.48,2.39,5.48,2.38,-2.38,-2.35,-2.75,3.10,3.10,3.09
84.65,5.46,2.41,5.47,2.42,-2.42,-2.39,-2.79,3.04,3.05,3.05
85.50,5.46,2.45,5.46,2.45,-2.46,-2.42,-2.83,3.01,3.00,3.01
86.35,5.45,2.49,5.45,2.49,-2.50,-2.46,-2.87,2.96,2.95,2.96
87.22,5.44,2.53,5.45,2.54,-2.54,-2.50,-2.91,2.90,2.91,2.91
88.09,5.44,2.59,5.44,2.58,-2.58,-2.54,-2.95,2.86,2.86,2.85
88.97,5.43,2.62,5.43,2.62,-2.62,-2.59,-3.00,2.81,2.81,2.81
89.86,5.42,2.66,5.42,2.67,-2.67,-2.63,-3.05,2.75,2.76,2.76
90.76,5.42,2.72,5.42,2.72,-2.72,-2.68,-3.10,2.71,2.70,2.70
91.66,5.41,2.76,5.41,2.77,-2.76,-2.73,-3.15,2.65,2.65,2.65
92.58,5.41,2.82,5.41,2.81,-2.81,-2.79,-3.21,2.60,2.60,2.59
93.51,5.40,2.85,5.41,2.86,-2.86,-2.84,-3.27,2.54,2.55,2.55
94.44,5.41,2.91,5.40,2.91,-2.91,-2.90,-3.33,2.50,2.49,2.50
95.39,5.40,2.96,5.40,2.96,-2.97,-2.96,-3.39,2.44,2.43,2.44
96.34,5.39,3.02,5.40,3.02,-3.02,-3.03,-3.45,2.37,2.38,2.37
97.30,5.39,3.07,5.39,3.08,-3.08,-3.09,-3.52,2.32,2.31,2.32
98.28,5.39,3.13,5.39,3.14,-3.13,-3.15,-3.59,2.26,2.26,2.26
99.26,5.39,3.20,5.39,3.19,-3.19,-3.22,-3.66,2.20,2.20,2.19
100.25,5.39,3.25,5.39,3.25,-3.25,-3.29,-3.73,2.14,2.14,2.14
101.25,5.39,3.31,5.39,3.31,-3.31,-3.35,-3.80,2.08,2.08,2.08
102.27,5.38,3.37,5.38,3.37,-3.37,-3.42,-3.87,2.01,2.01,2.01
103.29,5.38,3.44,5.38,3.44,-3.43,-3.48,-3.94,1.95,1.95,1.94
104.32,5.38,3.49,5.38,3.49,-3.49,-3.55,-4.02,1.89,1.89,1.89
105.37,5.38,3.55,5.38,3.55,-3.56,-3.62,-4.09,1.83,1.82,1.83
106.42,5.37,3.61,5.37,3.61,-3.62,-3.68,-4.16,1.75,1.75,1.76
107.48,5.37,3.68,5.37,3.68,-3.68,-3.75,-4.24,1.69,1.69,1.69
108.56,5.37,3.75,5.37,3.75,-3.75,-3.81,-4.31,1.62,1.63,1.62
109.64,5.38,3.82,5.37,3.81,-3.81,-3.87,-4.38,1.57,1.56,1.56
110.74,5.37,3.87,5.38,3.88,-3.88,-3.93,-4.45,1.49,1.50,1.50
111.85,5.37,3.94,5.37,3.94,-3.95,-3.99,-4.52,1.42,1.43,1.43
112.97,5.37,4.02,5.37,4.01,-4.01,-4.05,-4.58,1.36,1.35,1.35
114.10,5.36,4.07,5.37,4.08,-4.08,-4.11,-4.64,1.28,1.29,1.29
115.24,5.36,4.14,5.36,4.14,-4.14,-4.17,-4.70,1.22,1.22,1.22
116.39,5.36,4.21,5.36,4.21,-4.21,-4.22,-4.75,1.16,1.15,1.15
117.55,5.35,4.27,5.36,4.27,-4.27,-4.27,-4.80,1.08,1.09,1.08
118.73,5.35,4.33,5.35,4.33,-4.33,-4.33,-4.85,1.03,1.02,1.02
119.92,5.34,4.38,5.34,4.38,-4.38,-4.38,-4.88,0.96,0.96,0.96
121.12,5.33,4.43,5.33,4.44,-4.44,-4.43,-4.92,0.89,0.90,0.90
122.33,5.32,4.49,5.32,4.49,-4.49,-4.47,-4.95,0.83,0.84,0.83
123.55,5.32,4.54,5.32,4.54,-4.54,-4.52,-4.97,0.78,0.78,0.78
124.79,5.31,4.59,5.31,4.59,-4.59,-4.56,-4.99,0.72,0.72,0.72
126.03,5.30,4.63,5.30,4.64,-4.64,-4.61,-5.00,0.66,0.66,0.67
127.29,5.29,4.68,5.29,4.69,-4.69,-4.65,-5.00,0.60,0.60,0.61
128.57,5.28,4.74,5.28,4.73,-4.74,-4.69,-5.01,0.55,0.55,0.54
129.85,5.27,4.78,5.27,4.78,-4.78,-4.72,-5.00,0.49,0.49,0.49
131.15,5.26,4.82,5.26,4.83,-4.82,-4.76,-4.99,0.44,0.44,0.44
132.46,5.25,4.87,5.25,4.87,-4.86,-4.79,-4.97,0.39,0.39,0.38
133.79,5.24,4.90,5.24,4.91,-4.90,-4.83,-4.96,0.34,0.34,0.34
135.12,5.22,4.94,5.22,4.94,-4.94,-4.86,-4.93,0.29,0.29,0.28
136.48,5.21,4.96,5.21,4.96,-4.97,-4.89,-4.90,0.25,0.24,0.25
137.84,5.19,4.98,5.19,4.99,-4.99,-4.92,-4.87,0.20,0.20,0.21
139.22,5.18,5.02,5.18,5.02,-5.02,-4.95,-4.84,0.16,0.16,0.16
140.61,5.17,5.05,5.17,5.04,-5.04,-4.97,-4.80,0.13,0.13,0.12
142.02,5.16,5.06,5.16,5.06,-5.06,-5.00,-4.76,0.10,0.10,0.10
143.44,5.14,5.07,5.15,5.08,-5.08,-5.02,-4.72,0.06,0.06,0.07
144.87,5.13,5.10,5.13,5.10,-5.10,-5.04,-4.68,0.03,0.03,0.03
146.32,5.12,5.12,5.12,5.11,-5.12,-5.06,-4.64,0.01,0.00,-0.00
147.78,5.10,5.12,5.11,5.13,-5.13,-5.08,-4.60,-0.03,-0.02,-0.02
149.26,5.09,5.14,5.09,5.14,-5.14,-5.09,-4.55,-0.05,-0.05,-0.05
150.75,5.07,5.16,5.07,5.16,-5.15,-5.11,-4.51,-0.08,-0.08,-0.09
152.26,5.05,5.16,5.06,5.17,-5.17,-5.12,-4.47,-0.11,-0.11,-0.11
153.78,5.04,5.18,5.04,5.18,-5.18,-5.13,-4.43,-0.14,-0.14,-0.14
155.32,5.02,5.18,5.02,5.18,-5.19,-5.14,-4.39,-0.16,-0.17,-0.16
156.88,5.00,5.19,5.00,5.19,-5.19,-5.15,-4.36,-0.19,-0.19,-0.19
158.44,4.98,5.20,4.98,5.20,-5.20,-5.16,-4.32,-0.22,-0.22,-0.22
160.03,4.96,5.21,4.96,5.21,-5.21,-5.17,-4.29,-0.25,-0.25,-0.25
161.63,4.93,5.21,4.93,5.22,-5.21,-5.18,-4.26,-0.28,-0.28,-0.28
163.24,4.91,5.22,4.91,5.22,-5.22,-5.18,-4.23,-0.31,-0.31,-0.31
164.88,4.89,5.22,4.89,5.22,-5.22,-5.18,-4.21,-0.33,-0.33,-0.33
166.53,4.87,5.22,4.87,5.23,-5.23,-5.19,-4.18,-0.35,-0.36,-0.35
168.19,4.84,5.23,4.84,5.23,-5.23,-5.19,-4.17,-0.39,-0.39,-0.39
169.87,4.81,5.23,4.82,5.23,-5.23,-5.19,-4.15,-0.42,-0.42,-0.42
171.57,4.79,5.24,4.78,5.23,-5.23,-5.19,-4.14,-0.44,-0.45,-0.45
173.29,4.75,5.22,4.75,5.23,-5.24,-5.19,-4.13,-0.48,-0.48,-0.47
175.02,4.72,5.23,4.72,5.24,-5.24,-5.19,-4.12,-0.52,-0.51,-0.51
176.77,4.69,5.24,4.69,5.24,-5.24,-5.18,-4.11,-0.55,-0.55,-0.55
178.54,4.66,5.25,4.66,5.25,-5.24,-5.18,-4.12,-0.58,-0.58,-0.59
180.32,4.62,5.24,4.62,5.24,-5.24,-5.18,-4.12,-0.62,-0.62,-0.62
182.13,4.58,5.23,4.58,5.23,-5.24,-5.18,-4.12,-0.66,-0.66,-0.65
183.95,4.53,5.22,4.54,5.23,-5.23,-5.17,-4.13,-0.70,-0.69,-0.69
185.79,4.50,5.23,4.50,5.23,-5.23,-5.17,-4.15,-0.72,-0.73,-0.73
187.65,4.46,5.23,4.46,5.22,-5.21,-5.17,-4.16,-0.75,-0.76,-0.77
189.52,4.41,5.21,4.42,5.21,-5.20,-5.17,-4.18,-0.79,-0.79,-0.80
191.42,4.37,5.19,4.37,5.19,-5.19,-5.17,-4.20,-0.82,-0.82,-0.82
193.33,4.33,5.17,4.33,5.17,-5.18,-5.17,-4.22,-0.85,-0.85,-0.84
195.27,4.28,5.15,4.28,5.16,-5.17,-5.17,-4.25,-0.88,-0.88,-0.87
197.22,4.24,5.14,4.24,5.15,-5.15,-5.18,-4.28,-0.91,-0.91,-0.90
199.19,4.21,5.16,4.21,5.15,-5.14,-5.18,-4.31,-0.93,-0.94,-0.95
201.18,4.18,5.14,4.18,5.14,-5.14,-5.19,-4.34,-0.96,-0.96,-0.96
203.19,4.15,5.13,4.15,5.14,-5.14,-5.19,-4.37,-0.99,-0.98,-0.98
205.23,4.13,5.13,4.13,5.13,-5.14,-5.20,-4.41,-1.01,-1.01,-1.00
207.28,4.12,5.13,4.12,5.14,-5.14,-5.21,-4.44,-1.02,-1.02,-1.01
209.35,4.10,5.14,4.11,5.15,-5.15,-5.22,-4.48,-1.04,-1.04,-1.04
211.44,4.10,5.16,4.10,5.15,-5.15,-5.22,-4.52,-1.05,-1.06,-1.06
213.56,4.08,5.16,4.08,5.16,-5.16,-5.21,-4.56,-1.08,-1.08,-1.08
215.69,4.07,5.15,4.07,5.16,-5.16,-5.20,-4.60,-1.09,-1.09,-1.08
217.85,4.06,5.15,4.06,5.16,-5.17,-5.18,-4.63,-1.11,-1.10,-1.09
220.03,4.05,5.17,4.05,5.17,-5.16,-5.15,-4.67,-1.11,-1.11,-1.12
222.23,4.04,5.17,4.04,5.16,-5.15,-5.10,-4.70,-1.11,-1.11,-1.13
224.45,4.01,5.13,4.01,5.14,-5.13,-5.05,-4.73,-1.12,-1.12,-1.12
226.70,3.97,5.10,3.98,5.10,-5.10,-4.99,-4.76,-1.12,-1.12,-1.13
228.96,3.93,5.06,3.93,5.06,-5.05,-4.92,-4.79,-1.12,-1.12,-1.13
231.25,3.88,5.00,3.88,5.00,-5.00,-4.85,-4.81,-1.12,-1.12,-1.12
233.57,3.82,4.93,3.82,4.94,-4.94,-4.78,-4.83,-1.12,-1.12,-1.11
235.90,3.76,4.87,3.76,4.87,-4.87,-4.71,-4.84,-1.11,-1.11,-1.11
238.26,3.69,4.80,3.69,4.80,-4.79,-4.64,-4.85,-1.10,-1.10,-1.11
240.64,3.62,4.71,3.62,4.71,-4.71,-4.57,-4.86,-1.09,-1.09,-1.09
243.05,3.55,4.62,3.55,4.62,-4.62,-4.51,-4.86,-1.07,-1.08,-1.07
245.48,3.47,4.52,3.47,4.53,-4.54,-4.44,-4.85,-1.07,-1.06,-1.05
247.93,3.40,4.44,3.41,4.45,-4.45,-4.38,-4.84,-1.05,-1.04,-1.04
250.41,3.34,4.37,3.34,4.36,-4.36,-4.32,-4.82,-1.02,-1.02,-1.03
252.92,3.28,4.27,3.27,4.27,-4.27,-4.26,-4.79,-0.99,-1.00,-0.99
255.45,3.20,4.17,3.21,4.18,-4.18,-4.20,-4.76,-0.98,-0.97,-0.97
258.00,3.14,4.09,3.14,4.09,-4.10,-4.14,-4.73,-0.95,-0.95,-0.95
260.58,3.08,4.01,3.08,4.01,-4.01,-4.09,-4.69,-0.93,-0.93,-0.93
263.19,3.01,3.92,3.01,3.93,-3.92,-4.03,-4.64,-0.91,-0.90,-0.91
265.82,2.95,3.84,2.95,3.84,-3.83,-3.98,-4.59,-0.88,-0.88,-0.89
268.48,2.88,3.74,2.88,3.74,-3.74,-3.93,-4.53,-0.86,-0.86,-0.86
271.16,2.82,3.65,2.82,3.65,-3.65,-3.88,-4.47,-0.83,-0.84,-0.83
273.87,2.75,3.56,2.75,3.56,-3.57,-3.82,-4.40,-0.82,-0.81,-0.81
276.61,2.69,3.47,2.70,3.48,-3.49,-3.77,-4.33,-0.79,-0.79,-0.78
279.38,2.65,3.41,2.64,3.40,-3.41,-3.72,-4.26,-0.76,-0.76,-0.76
282.17,2.59,3.33,2.59,3.33,-3.33,-3.67,-4.18,-0.74,-0.74,-0.74
284.99,2.55,3.26,2.55,3.26,-3.27,-3.62,-4.11,-0.71,-0.71,-0.71
287.84,2.51,3.20,2.51,3.20,-3.20,-3.57,-4.03,-0.69,-0.69,-0.69
290.72,2.49,3.14,2.49,3.14,-3.15,-3.52,-3.94,-0.65,-0.66,-0.65
293.63,2.46,3.09,2.46,3.09,-3.09,-3.47,-3.86,-0.63,-0.63,-0.63
296.57,2.44,3.04,2.44,3.04,-3.04,-3.42,-3.78,-0.60,-0.60,-0.60
299.53,2.42,2.99,2.42,3.00,-2.99,-3.37,-3.69,-0.57,-0.57,-0.57
302.53,2.41,2.96,2.41,2.95,-2.94,-3.32,-3.61,-0.53,-0.54,-0.55
305.55,2.39,2.89,2.40,2.90,-2.90,-3.27,-3.52,-0.51,-0.50,-0.50
308.61,2.39,2.86,2.39,2.86,-2.86,-3.22,-3.44,-0.47,-0.47,-0.47
311.69,2.38,2.81,2.38,2.81,-2.81,-3.17,-3.35,-0.43,-0.44,-0.43
314.81,2.37,2.77,2.37,2.77,-2.77,-3.12,-3.27,-0.40,-0.40,-0.40
317.96,2.36,2.73,2.36,2.73,-2.73,-3.07,-3.19,-0.37,-0.37,-0.37
321.14,2.36,2.70,2.36,2.70,-2.70,-3.01,-3.11,-0.34,-0.34,-0.34
324.35,2.35,2.67,2.35,2.67,-2.67,-2.96,-3.03,-0.32,-0.31,-0.32
327.59,2.35,2.63,2.35,2.63,-2.64,-2.91,-2.95,-0.29,-0.29,-0.28
330.87,2.35,2.60,2.35,2.61,-2.61,-2.86,-2.87,-0.26,-0.26,-0.25
334.18,2.35,2.58,2.35,2.58,-2.58,-2.81,-2.80,-0.23,-0.23,-0.23
337.52,2.36,2.57,2.36,2.57,-2.56,-2.76,-2.73,-0.20,-0.20,-0.21
340.90,2.36,2.54,2.36,2.54,-2.54,-2.71,-2.65,-0.18,-0.18,-0.18
344.30,2.36,2.52,2.36,2.52,-2.52,-2.66,-2.58,-0.16,-0.16,-0.16
347.75,2.36,2.49,2.37,2.50,-2.50,-2.61,-2.52,-0.14,-0.14,-0.13
351.23,2.38,2.49,2.37,2.49,-2.48,-2.56,-2.45,-0.10,-0.11,-0.11
354.74,2.37,2.47,2.37,2.47,-2.46,-2.51,-2.39,-0.09,-0.09,-0.10
358.28,2.37,2.45,2.37,2.45,-2.44,-2.46,-2.32,-0.07,-0.07,-0.08
361.87,2.36,2.42,2.36,2.42,-2.42,-2.41,-2.26,-0.06,-0.06,-0.06
365.49,2.35,2.38,2.36,2.39,-2.40,-2.36,-2.20,-0.05,-0.04,-0.03
369.14,2.35,2.37,2.35,2.37,-2.37,-2.30,-2.15,-0.02,-0.02,-0.02
372.83,2.34,2.35,2.34,2.35,-2.34,-2.25,-2.09,-0.00,-0.00,-0.01
376.56,2.33,2.32,2.33,2.32,-2.31,-2.20,-2.04,0.02,0.02,0.01
380.33,2.31,2.27,2.32,2.28,-2.28,-2.15,-1.99,0.03,0.04,0.04
384.13,2.30,2.24,2.30,2.24,-2.24,-2.10,-1.94,0.06,0.06,0.06
387.97,2.28,2.20,2.28,2.20,-2.20,-2.05,-1.89,0.08,0.08,0.08
391.85,2.26,2.16,2.26,2.16,-2.16,-2.00,-1.84,0.10,0.10,0.10
395.77,2.23,2.10,2.24,2.11,-2.11,-1.95,-1.80,0.12,0.12,0.13
399.73,2.22,2.07,2.21,2.07,-2.07,-1.90,-1.75,0.15,0.15,0.15
403.72,2.18,2.02,2.18,2.02,-2.02,-1.85,-1.71,0.16,0.16,0.16
407.76,2.15,1.97,2.15,1.97,-1.97,-1.80,-1.67,0.19,0.19,0.18
411.84,2.11,1.90,2.12,1.91,-1.91,-1.75,-1.63,0.20,0.21,0.21
415.96,2.09,1.86,2.09,1.86,-1.85,-1.69,-1.59,0.24,0.23,0.23
420.12,2.05,1.80,2.05,1.80,-1.79,-1.64,-1.55,0.26,0.26,0.25
424.32,2.01,1.73,2.01,1.74,-1.73,-1.59,-1.51,0.28,0.28,0.28
428.56,1.97,1.67,1.97,1.67,-1.67,-1.54,-1.47,0.30,0.30,0.30
432.85,1.93,1.61,1.93,1.61,-1.61,-1.49,-1.44,0.32,0.33,0.32
437.18,1.89,1.54,1.89,1.54,-1.55,-1.44,-1.40,0.34,0.34,0.35
441.55,1.86,1.48,1.86,1.48,-1.49,-1.39,-1.37,0.37,0.37,0.38
445.96,1.81,1.41,1.82,1.42,-1.43,-1.34,-1.33,0.38,0.39,0.40
450.42,1.80,1.39,1.80,1.38,-1.38,-1.29,-1.30,0.42,0.42,0.41
454.93,1.77,1.32,1.77,1.33,-1.33,-1.24,-1.26,0.44,0.45,0.45
459.48,1.76,1.29,1.76,1.29,-1.28,-1.19,-1.23,0.48,0.48,0.47
464.07,1.74,1.24,1.74,1.24,-1.24,-1.14,-1.20,0.51,0.50,0.50
468.71,1.72,1.18,1.73,1.19,-1.19,-1.09,-1.16,0.53,0.54,0.54
473.40,1.71,1.15,1.71,1.15,-1.14,-1.04,-1.13,0.57,0.56,0.56
478.13,1.69,1.10,1.69,1.10,-1.10,-0.99,-1.09,0.59,0.59,0.59
482.91,1.67,1.05,1.67,1.05,-1.05,-0.94,-1.06,0.62,0.62,0.62
487.74,1.65,1.00,1.65,1.00,-1.00,-0.89,-1.02,0.65,0.65,0.65
492.62,1.63,0.95,1.63,0.96,-0.96,-0.84,-0.98,0.68,0.68,0.68
497.55,1.62,0.92,1.61,0.91,-0.91,-0.80,-0.95,0.71,0.71,0.70
502.52,1.59,0.85,1.59,0.86,-0.86,-0.75,-0.91,0.73,0.74,0.74
507.55,1.57,0.81,1.57,0.81,-0.81,-0.70,-0.87,0.76,0.76,0.76
512.62,1.55,0.76,1.55,0.76,-0.76,-0.65,-0.83,0.79,0.79,0.79
517.75,1.53,0.71,1.53,0.71,-0.71,-0.60,-0.79,0.82,0.82,0.82
522.93,1.50,0.65,1.51,0.66,-0.66,-0.55,-0.75,0.84,0.84,0.85
528.16,1.48,0.61,1.49,0.61,-0.61,-0.50,-0.71,0.87,0.87,0.87
