frequency,raw,error,smoothed,error_smoothed,equalization,parametric_eq,fixed_band_eq,equalized_raw,equalized_smoothed,target
20.00,-6.98,-9.06,-6.98,-9.09,9.09,8.71,3.67,2.11,2.11,2.09
20.20,-6.94,-9.05,-6.94,-9.07,9.07,8.71,3.77,2.14,2.13,2.12
20.40,-6.91,-9.05,-6.90,-9.05,9.05,8.71,3.87,2.15,2.15,2.15
20.61,-6.87,-9.03,-6.86,-9.03,9.03,8.71,3.98,2.16,2.17,2.17
20.81,-6.83,-9.02,-6.82,-9.01,9.01,8.71,4.09,2.18,2.19,2.20
21.02,-6.80,-9.02,-6.78,-8.98,8.98,8.70,4.20,2.19,2.20,2.22
21.23,-6.74,-8.97,-6.74,-8.96,8.96,8.69,4.32,2.22,2.22,2.23
21.44,-6.71,-8.95,-6.71,-8.93,8.93,8.68,4.44,2.23,2.23,2.24
21.66,-6.68,-8.93,-6.67,-8.91,8.91,8.67,4.56,2.23,2.24,2.25
21.87,-6.62,-8.87,-6.63,-8.88,8.88,8.65,4.69,2.26,2.25,2.25
22.09,-6.59,-8.85,-6.59,-8.85,8.85,8.63,4.82,2.26,2.25,2.26
22.31,-6.56,-8.82,-6.56,-8.82,8.82,8.61,4.95,2.26,2.26,2.26
22.54,-6.52,-8.78,-6.52,-8.78,8.78,8.59,5.09,2.27,2.26,2.26
22.76,-6.48,-8.74,-6.49,-8.75,8.75,8.56,5.23,2.27,2.26,2.26
22.99,-6.45,-8.70,-6.45,-8.71,8.71,8.54,5.37,2.26,2.26,2.25
23.22,-6.43,-8.68,-6.42,-8.67,8.67,8.51,5.52,2.25,2.26,2.25
23.45,-6.38,-8.62,-6.38,-8.64,8.64,8.48,5.67,2.26,2.26,2.25
23.69,-6.35,-8.59,-6.35,-8.60,8.60,8.45,5.82,2.25,2.25,2.25
23.92,-6.34,-8.58,-6.31,-8.56,8.56,8.41,5.98,2.23,2.25,2.25
24.16,-6.29,-8.54,-6.28,-8.53,8.53,8.38,6.14,2.24,2.25,2.26
24.40,-6.26,-8.51,-6.25,-8.49,8.49,8.34,6.30,2.24,2.25,2.25
24.65,-6.23,-8.47,-6.21,-8.46,8.46,8.30,6.47,2.23,2.24,2.24
24.89,-6.17,-8.41,-6.18,-8.42,8.42,8.26,6.64,2.25,2.24,2.24
25.14,-6.15,-8.39,-6.14,-8.39,8.39,8.22,6.81,2.24,2.24,2.24
25.39,-6.11,-8.35,-6.11,-8.35,8.35,8.18,6.99,2.25,2.24,2.24
25.65,-6.08,-8.32,-6.08,-8.32,8.32,8.14,7.16,2.24,2.24,2.24
25.91,-6.06,-8.29,-6.06,-8.29,8.29,8.10,7.34,2.24,2.23,2.23
26.16,-6.02,-8.24,-6.04,-8.27,8.27,8.06,7.52,2.25,2.23,2.23
26.43,-6.01,-8.23,-6.02,-8.25,8.25,8.01,7.69,2.24,2.23,2.23
26.69,-6.01,-8.23,-6.00,-8.23,8.23,7.97,7.87,2.22,2.22,2.22
26.96,-5.96,-8.18,-5.99,-8.21,8.21,7.92,8.05,2.25,2.22,2.22
27.23,-5.96,-8.18,-5.98,-8.20,8.20,7.88,8.22,2.24,2.22,2.22
27.50,-5.96,-8.18,-5.97,-8.19,8.19,7.83,8.39,2.23,2.21,2.22
27.77,-5.96,-8.17,-5.97,-8.18,8.18,7.79,8.55,2.22,2.21,2.21
28.05,-5.96,-8.16,-5.96,-8.17,8.17,7.74,8.71,2.21,2.21,2.21
28.33,-5.96,-8.15,-5.95,-8.15,8.15,7.69,8.87,2.19,2.20,2.20
28.62,-5.96,-8.15,-5.94,-8.13,8.13,7.65,9.01,2.18,2.20,2.19
28.90,-5.92,-8.11,-5.92,-8.11,8.11,7.60,9.14,2.19,2.19,2.19
29.19,-5.92,-8.10,-5.89,-8.08,8.08,7.56,9.27,2.16,2.19,2.18
29.48,-5.88,-8.07,-5.86,-8.04,8.04,7.51,9.38,2.16,2.18,2.19
29.78,-5.85,-8.02,-5.81,-7.99,7.99,7.47,9.48,2.14,2.18,2.18
30.08,-5.79,-7.96,-5.76,-7.93,7.93,7.42,9.56,2.15,2.17,2.17
30.38,-5.74,-7.90,-5.70,-7.87,7.87,7.38,9.63,2.13,2.16,2.16
30.68,-5.68,-7.84,-5.63,-7.79,7.79,7.33,9.69,2.11,2.16,2.16
30.99,-5.57,-7.72,-5.56,-7.71,7.71,7.29,9.72,2.14,2.15,2.15
31.30,-5.51,-7.65,-5.48,-7.63,7.63,7.24,9.74,2.12,2.15,2.15
31.61,-5.40,-7.54,-5.40,-7.54,7.54,7.20,9.75,2.14,2.14,2.14
31.93,-5.32,-7.45,-5.32,-7.45,7.45,7.16,9.73,2.13,2.13,2.13
32.24,-5.23,-7.34,-5.24,-7.37,7.37,7.12,9.70,2.14,2.13,2.12
32.57,-5.12,-7.23,-5.17,-7.29,7.29,7.07,9.66,2.17,2.12,2.12
32.89,-5.07,-7.18,-5.11,-7.22,7.22,7.03,9.60,2.15,2.11,2.11
33.22,-5.01,-7.11,-5.05,-7.15,7.15,6.99,9.53,2.14,2.10,2.10
33.55,-4.96,-7.05,-5.00,-7.09,7.09,6.95,9.44,2.13,2.09,2.10
33.89,-4.94,-7.02,-4.95,-7.04,7.04,6.91,9.35,2.10,2.08,2.08
34.23,-4.89,-6.97,-4.92,-7.00,7.00,6.88,9.24,2.11,2.08,2.08
34.57,-4.89,-6.95,-4.90,-6.96,6.96,6.84,9.13,2.07,2.07,2.07
34.92,-4.89,-6.94,-4.88,-6.93,6.93,6.80,9.01,2.04,2.06,2.05
35.27,-4.89,-6.94,-4.86,-6.91,6.91,6.76,8.88,2.02,2.05,2.05
35.62,-4.89,-6.92,-4.85,-6.89,6.89,6.73,8.75,2.00,2.04,2.03
35.97,-4.86,-6.88,-4.84,-6.87,6.87,6.69,8.62,2.01,2.03,2.02
36.33,-4.84,-6.85,-4.84,-6.85,6.85,6.66,8.48,2.01,2.01,2.02
36.70,-4.84,-6.84,-4.83,-6.83,6.83,6.63,8.34,1.99,2.00,2.00
37.06,-4.84,-6.82,-4.82,-6.81,6.81,6.59,8.21,1.97,1.99,1.99
37.43,-4.84,-6.82,-4.81,-6.79,6.79,6.56,8.07,1.95,1.98,1.98
37.81,-4.80,-6.76,-4.80,-6.77,6.77,6.53,7.93,1.97,1.97,1.97
38.19,-4.80,-6.75,-4.79,-6.75,6.75,6.50,7.80,1.95,1.95,1.95
38.57,-4.80,-6.74,-4.78,-6.72,6.72,6.47,7.67,1.93,1.94,1.95
38.95,-4.77,-6.70,-4.78,-6.71,6.71,6.44,7.54,1.94,1.93,1.93
39.34,-4.75,-6.66,-4.77,-6.69,6.69,6.41,7.42,1.94,1.92,1.92
39.74,-4.75,-6.65,-4.77,-6.68,6.68,6.38,7.29,1.93,1.91,1.90
40.14,-4.75,-6.64,-4.77,-6.66,6.66,6.35,7.18,1.92,1.90,1.89
40.54,-4.75,-6.62,-4.77,-6.65,6.65,6.32,7.06,1.90,1.88,1.88
40.94,-4.75,-6.62,-4.76,-6.64,6.64,6.29,6.95,1.89,1.87,1.87
41.35,-4.76,-6.61,-4.76,-6.62,6.62,6.27,6.85,1.86,1.86,1.85
41.76,-4.77,-6.61,-4.76,-6.61,6.61,6.24,6.74,1.84,1.84,1.85
42.18,-4.80,-6.64,-4.76,-6.59,6.59,6.21,6.65,1.80,1.83,1.84
42.60,-4.80,-6.62,-4.76,-6.57,6.57,6.19,6.56,1.78,1.82,1.82
43.03,-4.77,-6.58,-4.75,-6.55,6.55,6.16,6.47,1.78,1.80,1.81
43.46,-4.75,-6.54,-4.75,-6.53,6.53,6.14,6.39,1.78,1.78,1.79
43.90,-4.75,-6.51,-4.74,-6.50,6.50,6.11,6.31,1.76,1.77,1.77
44.33,-4.74,-6.48,-4.72,-6.48,6.48,6.09,6.24,1.74,1.75,1.75
44.78,-4.70,-6.42,-4.71,-6.44,6.44,6.06,6.17,1.75,1.73,1.73
45.23,-4.70,-6.40,-4.69,-6.41,6.41,6.04,6.10,1.71,1.72,1.71
45.68,-4.66,-6.34,-4.67,-6.37,6.37,6.01,6.05,1.71,1.70,1.69
46.13,-4.66,-6.32,-4.66,-6.33,6.33,5.99,5.99,1.67,1.67,1.67
46.60,-4.61,-6.26,-4.63,-6.29,6.29,5.96,5.94,1.68,1.65,1.66
47.06,-4.61,-6.24,-4.61,-6.24,6.24,5.94,5.90,1.64,1.63,1.63
47.53,-4.61,-6.22,-4.59,-6.20,6.20,5.91,5.85,1.59,1.61,1.61
48.01,-4.57,-6.17,-4.58,-6.16,6.16,5.89,5.82,1.59,1.58,1.60
48.49,-4.57,-6.14,-4.56,-6.12,6.12,5.86,5.78,1.55,1.56,1.57
48.97,-4.57,-6.10,-4.54,-6.08,6.08,5.83,5.75,1.51,1.53,1.54
49.46,-4.52,-6.02,-4.53,-6.04,6.04,5.81,5.73,1.52,1.51,1.50
49.96,-4.52,-5.99,-4.51,-6.00,6.00,5.78,5.70,1.48,1.48,1.47
50.46,-4.52,-5.97,-4.50,-5.96,5.96,5.75,5.68,1.44,1.46,1.45
50.96,-4.47,-5.90,-4.49,-5.92,5.92,5.73,5.66,1.45,1.43,1.43
51.47,-4.47,-5.86,-4.48,-5.88,5.88,5.70,5.65,1.41,1.40,1.39
51.99,-4.47,-5.83,-4.47,-5.85,5.85,5.67,5.64,1.38,1.37,1.37
52.51,-4.47,-5.82,-4.46,-5.81,5.81,5.64,5.62,1.34,1.35,1.35
53.03,-4.45,-5.77,-4.45,-5.77,5.77,5.61,5.62,1.32,1.32,1.32
53.56,-4.43,-5.72,-4.45,-5.74,5.74,5.58,5.61,1.31,1.29,1.30
54.10,-4.43,-5.70,-4.44,-5.70,5.70,5.54,5.60,1.27,1.26,1.27
54.64,-4.43,-5.67,-4.43,-5.67,5.67,5.51,5.59,1.24,1.24,1.24
55.18,-4.43,-5.64,-4.42,-5.63,5.63,5.48,5.58,1.21,1.21,1.21
55.74,-4.43,-5.61,-4.41,-5.60,5.60,5.44,5.57,1.17,1.19,1.18
56.29,-4.43,-5.59,-4.40,-5.56,5.56,5.41,5.56,1.13,1.16,1.16
56.86,-4.38,-5.50,-4.38,-5.52,5.52,5.37,5.55,1.14,1.13,1.13
57.42,-4.38,-5.47,-4.36,-5.47,5.47,5.33,5.54,1.09,1.10,1.10
58.00,-4.34,-5.41,-4.34,-5.42,5.42,5.29,5.52,1.08,1.08,1.07
58.58,-4.33,-5.38,-4.32,-5.37,5.37,5.25,5.51,1.04,1.05,1.05
59.16,-4.30,-5.32,-4.30,-5.31,5.31,5.21,5.49,1.02,1.02,1.02
59.76,-4.29,-5.29,-4.27,-5.26,5.26,5.17,5.46,0.97,0.99,1.00
60.35,-4.24,-5.20,-4.24,-5.19,5.19,5.13,5.43,0.96,0.95,0.96
60.96,-4.21,-5.14,-4.21,-5.13,5.13,5.08,5.40,0.92,0.92,0.94
61.57,-4.18,-5.07,-4.18,-5.07,5.07,5.04,5.36,0.89,0.89,0.89
62.18,-4.15,-5.00,-4.14,-5.00,5.00,4.99,5.32,0.86,0.86,0.85
62.80,-4.12,-4.94,-4.11,-4.94,4.94,4.94,5.28,0.82,0.83,0.82
63.43,-4.08,-4.86,-4.09,-4.88,4.88,4.90,5.23,0.80,0.79,0.78
64.07,-4.05,-4.80,-4.06,-4.81,4.81,4.85,5.17,0.77,0.76,0.75
64.71,-4.02,-4.74,-4.03,-4.75,4.75,4.80,5.12,0.73,0.72,0.72
65.35,-4.01,-4.69,-4.00,-4.69,4.69,4.74,5.05,0.68,0.69,0.69
66.01,-3.96,-4.61,-3.98,-4.63,4.63,4.69,4.99,0.67,0.65,0.65
66.67,-3.96,-4.57,-3.96,-4.57,4.57,4.64,4.92,0.62,0.61,0.62
67.33,-3.96,-4.54,-3.94,-4.52,4.52,4.58,4.84,0.56,0.58,0.58
68.01,-3.91,-4.45,-3.92,-4.47,4.47,4.53,4.77,0.56,0.54,0.55
68.69,-3.91,-4.42,-3.91,-4.42,4.42,4.47,4.69,0.51,0.51,0.51
69.37,-3.91,-4.38,-3.89,-4.36,4.36,4.41,4.60,0.46,0.47,0.47
70.07,-3.87,-4.30,-3.88,-4.31,4.31,4.35,4.52,0.45,0.43,0.43
70.77,-3.87,-4.27,-3.87,-4.26,4.26,4.29,4.43,0.39,0.39,0.40
71.48,-3.87,-4.23,-3.85,-4.21,4.21,4.23,4.34,0.34,0.35,0.36
72.19,-3.87,-4.18,-3.84,-4.16,4.16,4.17,4.25,0.29,0.32,0.32
72.91,-3.82,-4.09,-3.83,-4.11,4.11,4.11,4.16,0.29,0.28,0.27
73.64,-3.82,-4.05,-3.82,-4.06,4.06,4.05,4.07,0.24,0.24,0.23
74.38,-3.82,-4.01,-3.81,-4.01,4.01,3.99,3.98,0.19,0.19,0.19
75.12,-3.82,-3.97,-3.80,-3.96,3.96,3.92,3.89,0.14,0.15,0.15
75.87,-3.80,-3.91,-3.80,-3.91,3.91,3.86,3.80,0.11,0.11,0.11
76.63,-3.77,-3.84,-3.79,-3.86,3.86,3.79,3.71,0.09,0.07,0.07
77.40,-3.77,-3.80,-3.78,-3.81,3.81,3.73,3.62,0.04,0.03,0.03
78.17,-3.77,-3.75,-3.77,-3.76,3.76,3.66,3.53,-0.00,-0.01,-0.02
78.95,-3.77,-3.72,-3.77,-3.72,3.72,3.60,3.44,-0.05,-0.05,-0.05
79.74,-3.77,-3.68,-3.76,-3.67,3.67,3.53,3.36,-0.10,-0.09,-0.09
80.54,-3.77,-3.64,-3.76,-3.62,3.62,3.47,3.27,-0.15,-0.13,-0.13
81.35,-3.77,-3.59,-3.75,-3.58,3.58,3.40,3.19,-0.19,-0.18,-0.18
82.16,-3.74,-3.52,-3.74,-3.52,3.52,3.33,3.11,-0.21,-0.22,-0.22
82.98,-3.73,-3.47,-3.74,-3.47,3.47,3.27,3.03,-0.25,-0.26,-0.26
83.81,-3.73,-3.41,-3.73,-3.43,3.43,3.20,2.95,-0.30,-0.31,-0.31
84.65,-3.73,-3.37,-3.73,-3.38,3.38,3.13,2.87,-0.35,-0.35,-0.36
85.50,-3.73,-3.33,-3.72,-3.32,3.32,3.07,2.80,-0.40,-0.40,-0.40
86.35,-3.73,-3.28,-3.71,-3.27,3.27,3.00,2.72,-0.46,-0.45,-0.45
87.22,-3.73,-3.23,-3.71,-3.21,3.21,2.93,2.65,-0.52,-0.49,-0.50
88.09,-3.69,-3.14,-3.70,-3.15,3.15,2.87,2.58,-0.53,-0.54,-0.55
88.97,-3.68,-3.09,-3.69,-3.09,3.09,2.80,2.52,-0.58,-0.59,-0.59
89.86,-3.68,-3.04,-3.68,-3.03,3.03,2.74,2.45,-0.64,-0.64,-0.64
90.76,-3.68,-2.97,-3.67,-2.98,2.98,2.67,2.39,-0.70,-0.70,-0.70
91.66,-3.68,-2.93,-3.67,-2.92,2.92,2.61,2.33,-0.76,-0.75,-0.75
92.58,-3.67,-2.86,-3.66,-2.85,2.85,2.54,2.27,-0.81,-0.80,-0.81
93.51,-3.63,-2.77,-3.65,-2.79,2.79,2.48,2.21,-0.83,-0.86,-0.85
94.44,-3.63,-2.72,-3.64,-2.73,2.73,2.41,2.15,-0.90,-0.91,-0.91
95.39,-3.63,-2.66,-3.63,-2.66,2.66,2.35,2.10,-0.96,-0.97,-0.96
96.34,-3.63,-2.60,-3.63,-2.60,2.60,2.28,2.04,-1.03,-1.03,-1.03
97.30,-3.63,-2.54,-3.62,-2.54,2.54,2.22,1.99,-1.09,-1.08,-1.09
98.28,-3.63,-2.49,-3.62,-2.48,2.48,2.16,1.94,-1.15,-1.14,-1.14
99.26,-3.63,-2.43,-3.61,-2.41,2.41,2.10,1.89,-1.21,-1.20,-1.20
100.25,-3.61,-2.35,-3.61,-2.35,2.35,2.03,1.85,-1.26,-1.25,-1.26
101.25,-3.61,-2.29,-3.60,-2.29,2.29,1.97,1.80,-1.32,-1.31,-1.31
102.27,-3.61,-2.24,-3.60,-2.23,2.23,1.91,1.76,-1.38,-1.37,-1.37
103.29,-3.59,-2.15,-3.60,-2.17,2.17,1.85,1.71,-1.41,-1.43,-1.44
104.32,-3.59,-2.10,-3.60,-2.12,2.12,1.79,1.67,-1.47,-1.49,-1.49
105.37,-3.59,-2.04,-3.60,-2.06,2.06,1.73,1.63,-1.53,-1.55,-1.54
106.42,-3.61,-2.01,-3.60,-2.00,2.00,1.67,1.59,-1.61,-1.60,-1.60
107.48,-3.61,-1.95,-3.61,-1.94,1.94,1.62,1.55,-1.67,-1.66,-1.66
108.56,-3.61,-1.88,-3.61,-1.88,1.88,1.56,1.51,-1.72,-1.72,-1.73
109.64,-3.61,-1.82,-3.61,-1.82,1.82,1.50,1.48,-1.78,-1.79,-1.78
110.74,-3.63,-1.79,-3.61,-1.77,1.77,1.45,1.44,-1.86,-1.85,-1.84
111.85,-3.63,-1.73,-3.62,-1.71,1.71,1.39,1.40,-1.92,-1.91,-1.90
112.97,-3.63,-1.65,-3.62,-1.65,1.65,1.34,1.37,-1.98,-1.97,-1.98
114.10,-3.63,-1.59,-3.62,-1.59,1.59,1.28,1.33,-2.04,-2.04,-2.03
115.24,-3.63,-1.53,-3.63,-1.53,1.53,1.23,1.30,-2.10,-2.10,-2.10
116.39,-3.63,-1.46,-3.63,-1.47,1.47,1.18,1.27,-2.16,-2.16,-2.16
117.55,-3.63,-1.40,-3.63,-1.41,1.41,1.13,1.23,-2.22,-2.22,-2.23
118.73,-3.63,-1.33,-3.63,-1.34,1.34,1.07,1.20,-2.29,-2.29,-2.29
119.92,-3.63,-1.28,-3.63,-1.28,1.28,1.02,1.16,-2.35,-2.35,-2.35
121.12,-3.63,-1.21,-3.63,-1.22,1.22,0.97,1.13,-2.41,-2.41,-2.41
122.33,-3.63,-1.15,-3.63,-1.15,1.15,0.92,1.10,-2.47,-2.47,-2.48
123.55,-3.63,-1.10,-3.63,-1.09,1.09,0.88,1.06,-2.54,-2.54,-2.53
124.79,-3.63,-1.04,-3.63,-1.03,1.03,0.83,1.03,-2.60,-2.60,-2.59
126.03,-3.63,-0.97,-3.63,-0.97,0.97,0.78,1.00,-2.66,-2.66,-2.65
127.29,-3.63,-0.91,-3.63,-0.91,0.91,0.73,0.96,-2.72,-2.72,-2.71
128.57,-3.63,-0.84,-3.63,-0.85,0.85,0.69,0.93,-2.78,-2.78,-2.78
129.85,-3.63,-0.78,-3.63,-0.79,0.79,0.64,0.90,-2.84,-2.84,-2.84
131.15,-3.63,-0.73,-3.63,-0.73,0.73,0.60,0.86,-2.90,-2.90,-2.90
132.46,-3.63,-0.67,-3.63,-0.67,0.67,0.55,0.83,-2.95,-2.95,-2.96
133.79,-3.63,-0.62,-3.63,-0.62,0.62,0.51,0.79,-3.01,-3.01,-3.00
135.12,-3.63,-0.56,-3.63,-0.56,0.56,0.47,0.76,-3.06,-3.06,-3.07
136.48,-3.63,-0.51,-3.63,-0.51,0.51,0.43,0.72,-3.12,-3.12,-3.12
137.84,-3.63,-0.46,-3.63,-0.46,0.46,0.39,0.69,-3.17,-3.17,-3.17
139.22,-3.63,-0.39,-3.63,-0.41,0.41,0.35,0.65,-3.22,-3.22,-3.23
140.61,-3.63,-0.34,-3.63,-0.36,0.36,0.31,0.62,-3.27,-3.27,-3.28
142.02,-3.63,-0.31,-3.63,-0.31,0.31,0.27,0.58,-3.32,-3.32,-3.32
143.44,-3.63,-0.26,-3.63,-0.26,0.26,0.23,0.55,-3.37,-3.37,-3.37
144.87,-3.63,-0.21,-3.63,-0.21,0.21,0.19,0.51,-3.41,-3.42,-3.42
146.32,-3.63,-0.16,-3.63,-0.17,0.17,0.15,0.47,-3.46,-3.46,-3.46
147.78,-3.63,-0.13,-3.63,-0.12,0.12,0.12,0.44,-3.51,-3.51,-3.50
149.26,-3.63,-0.08,-3.62,-0.07,0.07,0.08,0.40,-3.56,-3.56,-3.55
150.75,-3.63,-0.02,-3.62,-0.02,0.02,0.04,0.36,-3.61,-3.60,-3.60
152.26,-3.63,0.02,-3.62,0.03,-0.03,0.01,0.33,-3.66,-3.65,-3.65
153.78,-3.63,0.06,-3.61,0.08,-0.08,-0.02,0.29,-3.71,-3.70,-3.69
155.32,-3.61,0.14,-3.61,0.13,-0.13,-0.06,0.25,-3.74,-3.74,-3.74
156.88,-3.61,0.18,-3.61,0.18,-0.18,-0.09,0.21,-3.79,-3.79,-3.78
158.44,-3.61,0.23,-3.60,0.23,-0.23,-0.12,0.18,-3.84,-3.84,-3.84
160.03,-3.59,0.30,-3.60,0.28,-0.28,-0.16,0.14,-3.87,-3.88,-3.88
161.63,-3.59,0.35,-3.60,0.33,-0.33,-0.19,0.10,-3.92,-3.93,-3.93
163.24,-3.59,0.39,-3.59,0.38,-0.38,-0.22,0.06,-3.97,-3.97,-3.98
164.88,-3.59,0.43,-3.59,0.43,-0.43,-0.25,0.02,-4.01,-4.02,-4.02
166.53,-3.59,0.48,-3.59,0.47,-0.47,-0.28,-0.01,-4.06,-4.06,-4.06
168.19,-3.59,0.52,-3.59,0.52,-0.52,-0.31,-0.05,-4.11,-4.11,-4.11
169.87,-3.59,0.57,-3.59,0.57,-0.57,-0.33,-0.09,-4.15,-4.15,-4.15
171.57,-3.59,0.61,-3.58,0.61,-0.61,-0.36,-0.13,-4.20,-4.20,-4.20
173.29,-3.59,0.65,-3.58,0.66,-0.66,-0.39,-0.17,-4.25,-4.24,-4.24
175.02,-3.59,0.69,-3.58,0.71,-0.71,-0.42,-0.21,-4.29,-4.29,-4.28
176.77,-3.59,0.74,-3.58,0.75,-0.75,-0.44,-0.25,-4.34,-4.33,-4.33
178.54,-3.59,0.79,-3.57,0.80,-0.80,-0.47,-0.29,-4.39,-4.37,-4.38
180.32,-3.59,0.83,-3.57,0.85,-0.85,-0.49,-0.33,-4.43,-4.41,-4.42
182.13,-3.56,0.90,-3.56,0.89,-0.89,-0.52,-0.37,-4.45,-4.46,-4.45
183.95,-3.55,0.95,-3.56,0.94,-0.94,-0.54,-0.42,-4.48,-4.50,-4.50
185.79,-3.54,1.00,-3.56,0.98,-0.98,-0.57,-0.46,-4.52,-4.54,-4.54
187.65,-3.54,1.05,-3.55,1.03,-1.03,-0.59,-0.50,-4.56,-4.58,-4.58
189.52,-3.54,1.08,-3.55,1.07,-1.07,-0.61,-0.54,-4.61,-4.62,-4.62
191.42,-3.54,1.11,-3.54,1.11,-1.11,-0.64,-0.58,-4.65,-4.65,-4.65
193.33,-3.54,1.15,-3.53,1.15,-1.15,-0.66,-0.63,-4.69,-4.69,-4.68
195.27,-3.54,1.18,-3.53,1.19,-1.19,-0.68,-0.67,-4.73,-4.72,-4.72
197.22,-3.54,1.21,-3.52,1.23,-1.23,-0.70,-0.71,-4.76,-4.75,-4.75
199.19,-3.54,1.25,-3.52,1.26,-1.26,-0.72,-0.75,-4.79,-4.78,-4.79
201.18,-3.54,1.27,-3.52,1.29,-1.29,-0.74,-0.80,-4.83,-4.81,-4.81
203.19,-3.52,1.31,-3.51,1.32,-1.32,-0.76,-0.84,-4.83,-4.83,-4.83
205.23,-3.49,1.37,-3.51,1.35,-1.35,-0.78,-0.88,-4.83,-4.85,-4.86
207.28,-3.49,1.38,-3.50,1.37,-1.37,-0.80,-0.92,-4.86,-4.88,-4.87
209.35,-3.49,1.41,-3.50,1.40,-1.40,-0.82,-0.97,-4.89,-4.90,-4.89
211.44,-3.49,1.43,-3.49,1.42,-1.42,-0.83,-1.01,-4.91,-4.91,-4.92
213.56,-3.49,1.44,-3.48,1.45,-1.45,-0.85,-1.05,-4.93,-4.93,-4.93
215.69,-3.49,1.45,-3.47,1.47,-1.47,-0.87,-1.09,-4.95,-4.94,-4.93
217.85,-3.49,1.46,-3.47,1.48,-1.48,-0.89,-1.13,-4.97,-4.95,-4.95
220.03,-3.47,1.50,-3.46,1.50,-1.50,-0.90,-1.16,-4.97,-4.96,-4.97
222.23,-3.45,1.53,-3.45,1.51,-1.51,-0.92,-1.20,-4.96,-4.97,-4.98
224.45,-3.45,1.53,-3.45,1.53,-1.53,-0.93,-1.23,-4.97,-4.97,-4.97
226.70,-3.45,1.53,-3.44,1.53,-1.53,-0.95,-1.27,-4.98,-4.98,-4.98
228.96,-3.45,1.53,-3.44,1.54,-1.54,-0.96,-1.30,-4.99,-4.98,-4.98
231.25,-3.45,1.53,-3.43,1.55,-1.55,-0.98,-1.33,-4.99,-4.98,-4.97
233.57,-3.42,1.56,-3.43,1.55,-1.55,-0.99,-1.36,-4.97,-4.98,-4.98
235.90,-3.42,1.56,-3.43,1.55,-1.55,-1.01,-1.38,-4.96,-4.98,-4.98
238.26,-3.45,1.53,-3.43,1.54,-1.54,-1.02,-1.41,-4.99,-4.97,-4.98
240.64,-3.45,1.52,-3.44,1.53,-1.53,-1.03,-1.43,-4.97,-4.97,-4.97
243.05,-3.45,1.51,-3.45,1.51,-1.51,-1.05,-1.45,-4.95,-4.96,-4.96
245.48,-3.45,1.50,-3.47,1.48,-1.48,-1.06,-1.46,-4.93,-4.95,-4.95
247.93,-3.47,1.47,-3.49,1.45,-1.45,-1.07,-1.48,-4.92,-4.94,-4.94
250.41,-3.49,1.45,-3.51,1.42,-1.42,-1.08,-1.49,-4.91,-4.93,-4.94
252.92,-3.52,1.40,-3.54,1.38,-1.38,-1.09,-1.49,-4.90,-4.92,-4.92
255.45,-3.55,1.35,-3.57,1.34,-1.34,-1.10,-1.50,-4.88,-4.90,-4.90
258.00,-3.61,1.28,-3.60,1.29,-1.29,-1.11,-1.50,-4.90,-4.89,-4.89
260.58,-3.64,1.24,-3.63,1.24,-1.24,-1.12,-1.50,-4.88,-4.87,-4.87
263.19,-3.67,1.18,-3.66,1.19,-1.19,-1.13,-1.50,-4.86,-4.85,-4.85
265.82,-3.70,1.14,-3.69,1.14,-1.14,-1.14,-1.50,-4.84,-4.84,-4.84
268.48,-3.73,1.09,-3.72,1.10,-1.10,-1.15,-1.49,-4.82,-4.82,-4.82
271.16,-3.77,1.03,-3.75,1.05,-1.05,-1.16,-1.48,-4.82,-4.80,-4.79
273.87,-3.77,1.01,-3.77,1.01,-1.01,-1.17,-1.47,-4.77,-4.78,-4.78
276.61,-3.82,0.94,-3.79,0.97,-0.97,-1.18,-1.46,-4.79,-4.76,-4.76
279.38,-3.82,0.93,-3.81,0.94,-0.94,-1.19,-1.45,-4.75,-4.74,-4.74
282.17,-3.82,0.91,-3.81,0.91,-0.91,-1.20,-1.44,-4.73,-4.73,-4.73
284.99,-3.82,0.89,-3.82,0.89,-0.89,-1.20,-1.42,-4.71,-4.71,-4.70
287.84,-3.82,0.87,-3.81,0.88,-0.88,-1.21,-1.40,-4.69,-4.69,-4.69
290.72,-3.82,0.85,-3.81,0.86,-0.86,-1.22,-1.39,-4.68,-4.67,-4.67
293.63,-3.82,0.83,-3.79,0.85,-0.85,-1.22,-1.37,-4.67,-4.65,-4.65
296.57,-3.78,0.85,-3.78,0.85,-0.85,-1.23,-1.35,-4.63,-4.63,-4.63
299.53,-3.77,0.84,-3.76,0.85,-0.85,-1.24,-1.33,-4.62,-4.61,-4.61
302.53,-3.73,0.87,-3.73,0.85,-0.85,-1.24,-1.31,-4.58,-4.58,-4.60
305.55,-3.71,0.85,-3.71,0.86,-0.86,-1.25,-1.29,-4.56,-4.56,-4.56
308.61,-3.68,0.87,-3.68,0.86,-0.86,-1.25,-1.27,-4.54,-4.54,-4.54
311.69,-3.65,0.87,-3.65,0.86,-0.86,-1.26,-1.26,-4.51,-4.52,-4.52
314.81,-3.63,0.86,-3.63,0.87,-0.87,-1.26,-1.24,-4.50,-4.50,-4.48
317.96,-3.59,0.88,-3.60,0.87,-0.87,-1.27,-1.22,-4.46,-4.47,-4.47
321.14,-3.58,0.87,-3.58,0.87,-0.87,-1.27,-1.20,-4.45,-4.45,-4.45
324.35,-3.54,0.90,-3.56,0.88,-0.88,-1.28,-1.18,-4.41,-4.43,-4.43
327.59,-3.54,0.87,-3.54,0.87,-0.87,-1.28,-1.17,-4.41,-4.41,-4.41
330.87,-3.49,0.90,-3.52,0.87,-0.87,-1.29,-1.15,-4.36,-4.39,-4.39
334.18,-3.49,0.89,-3.50,0.87,-0.87,-1.29,-1.14,-4.35,-4.37,-4.37
337.52,-3.49,0.87,-3.49,0.86,-0.86,-1.29,-1.12,-4.35,-4.35,-4.36
340.90,-3.49,0.84,-3.47,0.86,-0.86,-1.29,-1.11,-4.35,-4.33,-4.33
344.30,-3.47,0.85,-3.46,0.86,-0.86,-1.30,-1.09,-4.32,-4.31,-4.31
347.75,-3.45,0.85,-3.44,0.86,-0.86,-1.30,-1.08,-4.30,-4.30,-4.30
351.23,-3.45,0.83,-3.42,0.86,-0.86,-1.30,-1.07,-4.30,-4.28,-4.28
354.74,-3.45,0.81,-3.40,0.86,-0.86,-1.30,-1.06,-4.31,-4.26,-4.26
358.28,-3.40,0.85,-3.38,0.86,-0.86,-1.31,-1.05,-4.26,-4.24,-4.24
361.87,-3.40,0.83,-3.37,0.86,-0.86,-1.31,-1.04,-4.25,-4.23,-4.22
365.49,-3.36,0.85,-3.36,0.85,-0.85,-1.31,-1.03,-4.21,-4.21,-4.21
369.14,-3.35,0.85,-3.35,0.84,-0.84,-1.31,-1.03,-4.19,-4.20,-4.20
372.83,-3.31,0.87,-3.35,0.83,-0.83,-1.31,-1.02,-4.14,-4.18,-4.18
376.56,-3.31,0.87,-3.35,0.82,-0.82,-1.31,-1.01,-4.12,-4.17,-4.17
380.33,-3.31,0.84,-3.36,0.80,-0.80,-1.31,-1.01,-4.10,-4.15,-4.15
384.13,-3.31,0.83,-3.37,0.77,-0.77,-1.31,-1.01,-4.08,-4.14,-4.14
387.97,-3.35,0.78,-3.38,0.74,-0.74,-1.31,-1.00,-4.09,-4.13,-4.13
391.85,-3.38,0.74,-3.40,0.72,-0.72,-1.31,-1.00,-4.09,-4.12,-4.12
395.77,-3.43,0.68,-3.42,0.69,-0.69,-1.31,-1.00,-4.11,-4.10,-4.10
399.73,-3.46,0.64,-3.44,0.65,-0.65,-1.31,-1.00,-4.11,-4.09,-4.09
403.72,-3.49,0.60,-3.45,0.63,-0.63,-1.31,-1.00,-4.12,-4.08,-4.09
407.76,-3.50,0.58,-3.47,0.61,-0.61,-1.31,-1.00,-4.10,-4.07,-4.08
411.84,-3.54,0.52,-3.47,0.59,-0.59,-1.31,-1.00,-4.13,-4.06,-4.06
415.96,-3.49,0.56,-3.47,0.59,-0.59,-1.31,-1.00,-4.07,-4.05,-4.05
420.12,-3.49,0.55,-3.45,0.59,-0.59,-1.30,-1.01,-4.08,-4.04,-4.04
424.32,-3.45,0.58,-3.43,0.61,-0.61,-1.30,-1.01,-4.05,-4.03,-4.03
428.56,-3.42,0.61,-3.39,0.63,-0.63,-1.30,-1.01,-4.05,-4.02,-4.02
432.85,-3.38,0.64,-3.35,0.66,-0.66,-1.30,-1.02,-4.04,-4.01,-4.01
437.18,-3.31,0.70,-3.30,0.70,-0.70,-1.30,-1.02,-4.01,-4.00,-4.01
441.55,-3.26,0.73,-3.25,0.74,-0.74,-1.29,-1.02,-4.00,-3.99,-3.99
445.96,-3.18,0.80,-3.19,0.78,-0.78,-1.29,-1.03,-3.96,-3.98,-3.98
450.42,-3.11,0.86,-3.14,0.82,-0.82,-1.29,-1.03,-3.93,-3.96,-3.97
454.93,-3.05,0.90,-3.09,0.86,-0.86,-1.29,-1.04,-3.91,-3.95,-3.95
459.48,-2.99,0.95,-3.04,0.90,-0.90,-1.28,-1.04,-3.88,-3.94,-3.94
464.07,-2.96,0.96,-2.99,0.93,-0.93,-1.28,-1.05,-3.88,-3.92,-3.92
