frequency,raw,error,smoothed,error_smoothed,equalization,parametric_eq,fixed_band_eq,equalized_raw,equalized_smoothed,target
20.00,-8.26,-12.25,-8.26,-12.28,12.28,11.68,3.25,4.02,4.02,3.99
20.20,-8.07,-12.11,-8.07,-12.12,12.12,11.55,3.34,4.05,4.06,4.04
20.40,-7.88,-11.97,-7.88,-11.97,11.97,11.41,3.44,4.08,4.09,4.09
20.61,-7.70,-11.82,-7.69,-11.81,11.81,11.27,3.53,4.11,4.12,4.12
20.81,-7.50,-11.67,-7.50,-11.66,11.66,11.13,3.63,4.15,4.15,4.17
21.02,-7.31,-11.52,-7.32,-11.50,11.50,10.99,3.73,4.19,4.18,4.21
21.23,-7.14,-11.37,-7.14,-11.35,11.35,10.85,3.84,4.20,4.21,4.23
21.44,-6.96,-11.21,-6.97,-11.19,11.19,10.71,3.94,4.23,4.23,4.25
21.66,-6.80,-11.06,-6.79,-11.04,11.04,10.57,4.05,4.24,4.25,4.27
21.87,-6.61,-10.89,-6.62,-10.89,10.89,10.42,4.17,4.28,4.27,4.28
22.09,-6.44,-10.74,-6.46,-10.74,10.74,10.28,4.28,4.29,4.28,4.29
22.31,-6.27,-10.58,-6.29,-10.59,10.59,10.14,4.40,4.31,4.29,4.30
22.54,-6.11,-10.41,-6.14,-10.44,10.44,10.00,4.52,4.33,4.30,4.30
22.76,-5.94,-10.25,-5.99,-10.29,10.29,9.86,4.65,4.34,4.30,4.30
22.99,-5.78,-10.07,-5.83,-10.14,10.14,9.73,4.78,4.36,4.30,4.29
23.22,-5.66,-9.95,-5.68,-9.99,9.99,9.59,4.91,4.33,4.31,4.29
23.45,-5.54,-9.83,-5.53,-9.83,9.83,9.45,5.04,4.29,4.31,4.29
23.69,-5.44,-9.74,-5.37,-9.68,9.68,9.32,5.18,4.24,4.31,4.30
23.92,-5.32,-9.62,-5.22,-9.53,9.53,9.18,5.32,4.21,4.31,4.30
24.16,-5.15,-9.46,-5.07,-9.38,9.38,9.05,5.46,4.22,4.31,4.31
24.40,-4.97,-9.29,-4.93,-9.23,9.23,8.92,5.60,4.26,4.30,4.32
24.65,-4.79,-9.09,-4.79,-9.10,9.10,8.79,5.75,4.31,4.30,4.31
24.89,-4.60,-8.91,-4.66,-8.96,8.96,8.66,5.90,4.36,4.30,4.30
25.14,-4.44,-8.75,-4.53,-8.83,8.83,8.53,6.05,4.39,4.31,4.30
25.39,-4.31,-8.63,-4.39,-8.69,8.69,8.40,6.20,4.38,4.31,4.31
25.65,-4.19,-8.50,-4.24,-8.55,8.55,8.28,6.35,4.36,4.31,4.31
25.91,-4.06,-8.36,-4.09,-8.39,8.39,8.15,6.50,4.34,4.31,4.30
26.16,-3.94,-8.24,-3.95,-8.25,8.25,8.03,6.66,4.31,4.31,4.30
26.43,-3.87,-8.16,-3.82,-8.12,8.12,7.91,6.81,4.25,4.30,4.30
26.69,-3.77,-8.07,-3.70,-8.00,8.00,7.79,6.96,4.22,4.30,4.30
26.96,-3.69,-7.99,-3.58,-7.88,7.88,7.67,7.11,4.19,4.30,4.31
27.23,-3.51,-7.81,-3.46,-7.76,7.76,7.56,7.25,4.25,4.30,4.30
27.50,-3.31,-7.61,-3.33,-7.63,7.63,7.44,7.39,4.32,4.29,4.30
27.77,-3.10,-7.39,-3.20,-7.49,7.49,7.33,7.53,4.39,4.29,4.29
28.05,-2.92,-7.21,-3.06,-7.36,7.36,7.22,7.66,4.43,4.29,4.29
28.33,-2.89,-7.17,-2.93,-7.22,7.22,7.11,7.79,4.32,4.29,4.28
28.62,-2.87,-7.14,-2.79,-7.08,7.08,7.00,7.90,4.21,4.29,4.28
28.90,-2.83,-7.12,-2.66,-6.94,6.94,6.89,8.01,4.11,4.29,4.28
29.19,-2.66,-6.94,-2.53,-6.81,6.81,6.78,8.11,4.15,4.28,4.27
29.48,-2.42,-6.71,-2.41,-6.69,6.69,6.68,8.20,4.27,4.28,4.29
29.78,-2.19,-6.47,-2.29,-6.57,6.57,6.58,8.27,4.38,4.28,4.28
30.08,-2.00,-6.28,-2.17,-6.44,6.44,6.47,8.33,4.45,4.28,4.29
30.38,-1.95,-6.22,-2.05,-6.33,6.33,6.37,8.38,4.38,4.28,4.28
30.68,-1.89,-6.16,-1.94,-6.21,6.21,6.27,8.42,4.33,4.27,4.27
30.99,-1.84,-6.11,-1.83,-6.10,6.10,6.18,8.44,4.26,4.27,4.27
31.30,-1.76,-6.02,-1.71,-5.97,5.97,6.08,8.45,4.22,4.27,4.27
31.61,-1.67,-5.93,-1.58,-5.84,5.84,5.98,8.44,4.18,4.27,4.27
31.93,-1.58,-5.84,-1.46,-5.72,5.72,5.89,8.41,4.14,4.26,4.26
32.24,-1.42,-5.67,-1.34,-5.60,5.60,5.80,8.38,4.17,4.26,4.25
32.57,-1.26,-5.51,-1.23,-5.49,5.49,5.71,8.32,4.23,4.25,4.26
32.89,-1.08,-5.34,-1.13,-5.38,5.38,5.62,8.26,4.30,4.25,4.25
33.22,-0.96,-5.21,-1.03,-5.27,5.27,5.53,8.18,4.31,4.24,4.24
33.55,-0.88,-5.12,-0.92,-5.16,5.16,5.44,8.10,4.27,4.24,4.24
33.89,-0.80,-5.02,-0.80,-5.03,5.03,5.35,8.00,4.24,4.23,4.23
34.23,-0.69,-4.92,-0.69,-4.92,4.92,5.27,7.89,4.23,4.23,4.23
34.57,-0.57,-4.79,-0.58,-4.80,4.80,5.18,7.78,4.23,4.22,4.22
34.92,-0.47,-4.68,-0.48,-4.70,4.70,5.10,7.65,4.23,4.22,4.21
35.27,-0.39,-4.60,-0.39,-4.61,4.61,5.02,7.53,4.22,4.21,4.21
35.62,-0.33,-4.53,-0.32,-4.53,4.53,4.94,7.39,4.20,4.21,4.21
35.97,-0.26,-4.47,-0.25,-4.46,4.46,4.86,7.26,4.20,4.21,4.20
36.33,-0.18,-4.39,-0.19,-4.40,4.40,4.78,7.12,4.21,4.20,4.21
36.70,-0.10,-4.29,-0.14,-4.34,4.34,4.71,6.97,4.24,4.20,4.19
37.06,-0.02,-4.21,-0.07,-4.28,4.28,4.63,6.83,4.25,4.20,4.19
37.43,0.01,-4.20,-0.01,-4.21,4.21,4.56,6.69,4.22,4.20,4.20
37.81,0.03,-4.16,0.05,-4.15,4.15,4.48,6.54,4.19,4.20,4.20
38.19,0.06,-4.13,0.11,-4.09,4.09,4.41,6.40,4.16,4.20,4.19
38.57,0.09,-4.10,0.16,-4.04,4.04,4.34,6.25,4.13,4.20,4.20
38.95,0.13,-4.08,0.22,-3.98,3.98,4.27,6.11,4.11,4.20,4.20
39.34,0.21,-3.99,0.27,-3.92,3.92,4.20,5.97,4.13,4.20,4.20
39.74,0.30,-3.89,0.32,-3.87,3.87,4.13,5.83,4.18,4.20,4.19
40.14,0.38,-3.81,0.36,-3.83,3.83,4.06,5.70,4.21,4.19,4.20
40.54,0.45,-3.73,0.40,-3.79,3.79,4.00,5.56,4.24,4.19,4.19
40.94,0.53,-3.66,0.43,-3.76,3.76,3.93,5.43,4.28,4.18,4.18
41.35,0.54,-3.64,0.45,-3.73,3.73,3.87,5.30,4.26,4.18,4.18
41.76,0.54,-3.63,0.47,-3.70,3.70,3.80,5.18,4.23,4.17,4.17
42.18,0.54,-3.64,0.49,-3.67,3.67,3.74,5.06,4.20,4.16,4.17
42.60,0.55,-3.61,0.51,-3.64,3.64,3.68,4.94,4.18,4.15,4.15
43.03,0.55,-3.60,0.53,-3.61,3.61,3.62,4.82,4.15,4.14,4.14
43.46,0.50,-3.63,0.55,-3.57,3.57,3.56,4.71,4.08,4.12,4.14
43.90,0.48,-3.63,0.57,-3.54,3.54,3.50,4.60,4.02,4.11,4.11
44.33,0.49,-3.60,0.59,-3.51,3.51,3.44,4.49,3.99,4.09,4.09
44.78,0.51,-3.55,0.61,-3.47,3.47,3.39,4.39,3.99,4.08,4.07
45.23,0.56,-3.50,0.64,-3.43,3.43,3.33,4.29,3.99,4.06,4.06
45.68,0.63,-3.40,0.68,-3.37,3.37,3.27,4.19,4.01,4.05,4.04
46.13,0.72,-3.30,0.72,-3.31,3.31,3.22,4.10,4.03,4.03,4.02
46.60,0.81,-3.20,0.76,-3.25,3.25,3.17,4.01,4.07,4.02,4.02
47.06,0.90,-3.10,0.81,-3.19,3.19,3.11,3.92,4.09,4.00,4.00
47.53,0.92,-3.07,0.85,-3.13,3.13,3.06,3.84,4.05,3.98,3.99
48.01,0.93,-3.05,0.89,-3.07,3.07,3.01,3.75,4.01,3.97,3.98
48.49,0.94,-3.03,0.93,-3.02,3.02,2.96,3.67,3.95,3.95,3.96
48.97,0.94,-3.00,0.96,-2.97,2.97,2.91,3.60,3.91,3.93,3.94
49.46,0.99,-2.93,0.98,-2.94,2.94,2.86,3.52,3.93,3.92,3.91
49.96,1.03,-2.86,0.98,-2.92,2.92,2.81,3.45,3.96,3.90,3.89
50.46,1.00,-2.89,0.98,-2.91,2.91,2.77,3.38,3.90,3.89,3.89
50.96,0.96,-2.92,0.97,-2.90,2.90,2.72,3.32,3.86,3.87,3.87
51.47,0.95,-2.90,0.96,-2.90,2.90,2.67,3.25,3.84,3.86,3.85
51.99,0.94,-2.89,0.95,-2.89,2.89,2.63,3.19,3.83,3.84,3.83
52.51,0.94,-2.89,0.93,-2.89,2.89,2.59,3.13,3.83,3.82,3.82
53.03,0.93,-2.88,0.92,-2.89,2.89,2.54,3.07,3.83,3.81,3.82
53.56,0.86,-2.93,0.90,-2.89,2.89,2.50,3.02,3.76,3.79,3.80
54.10,0.82,-2.97,0.88,-2.90,2.90,2.46,2.96,3.71,3.78,3.78
54.64,0.82,-2.94,0.86,-2.91,2.91,2.42,2.91,3.74,3.77,3.76
55.18,0.84,-2.92,0.82,-2.93,2.93,2.38,2.86,3.76,3.75,3.75
55.74,0.84,-2.90,0.79,-2.94,2.94,2.34,2.81,3.78,3.74,3.73
56.29,0.82,-2.90,0.77,-2.95,2.95,2.30,2.76,3.77,3.72,3.72
56.86,0.80,-2.90,0.75,-2.96,2.96,2.26,2.71,3.75,3.70,3.70
57.42,0.73,-2.93,0.72,-2.96,2.96,2.22,2.67,3.70,3.68,3.67
58.00,0.68,-2.98,0.69,-2.97,2.97,2.18,2.62,3.65,3.66,3.65
58.58,0.65,-3.00,0.66,-2.97,2.97,2.14,2.57,3.62,3.63,3.64
59.16,0.60,-3.01,0.63,-2.97,2.97,2.11,2.53,3.58,3.60,3.62
59.76,0.56,-3.04,0.60,-2.97,2.97,2.07,2.49,3.52,3.57,3.59
60.35,0.54,-3.01,0.57,-2.96,2.96,2.04,2.44,3.50,3.54,3.55
60.96,0.54,-2.97,0.54,-2.95,2.95,2.00,2.40,3.49,3.50,3.51
61.57,0.54,-2.92,0.52,-2.94,2.94,1.97,2.36,3.48,3.46,3.46
62.18,0.53,-2.88,0.49,-2.92,2.92,1.94,2.32,3.45,3.41,3.41
62.80,0.48,-2.88,0.48,-2.89,2.89,1.90,2.28,3.38,3.37,3.36
63.43,0.45,-2.86,0.46,-2.86,2.86,1.87,2.24,3.31,3.32,3.31
64.07,0.44,-2.83,0.46,-2.82,2.82,1.84,2.20,3.25,3.27,3.26
64.71,0.44,-2.78,0.45,-2.77,2.77,1.81,2.16,3.21,3.22,3.21
65.35,0.44,-2.73,0.44,-2.72,2.72,1.78,2.12,3.16,3.17,3.17
66.01,0.44,-2.68,0.44,-2.67,2.67,1.75,2.08,3.11,3.12,3.11
66.67,0.44,-2.62,0.44,-2.62,2.62,1.72,2.04,3.05,3.06,3.06
67.33,0.44,-2.57,0.44,-2.57,2.57,1.69,2.00,3.00,3.01,3.00
68.01,0.44,-2.52,0.43,-2.52,2.52,1.66,1.96,2.95,2.95,2.96
68.69,0.44,-2.47,0.43,-2.47,2.47,1.64,1.92,2.90,2.90,2.90
69.37,0.44,-2.41,0.43,-2.41,2.41,1.61,1.89,2.84,2.84,2.84
70.07,0.44,-2.35,0.43,-2.35,2.35,1.58,1.85,2.79,2.78,2.78
70.77,0.44,-2.30,0.42,-2.30,2.30,1.55,1.81,2.73,2.72,2.73
71.48,0.44,-2.24,0.41,-2.25,2.25,1.53,1.78,2.68,2.66,2.67
72.19,0.43,-2.16,0.41,-2.19,2.19,1.50,1.74,2.63,2.60,2.60
72.91,0.41,-2.12,0.40,-2.14,2.14,1.48,1.71,2.55,2.53,2.54
73.64,0.36,-2.11,0.38,-2.09,2.09,1.45,1.67,2.45,2.47,2.47
74.38,0.34,-2.07,0.36,-2.04,2.04,1.43,1.64,2.38,2.41,2.41
75.12,0.34,-2.01,0.34,-2.00,2.00,1.41,1.60,2.34,2.35,2.34
75.87,0.33,-1.94,0.32,-1.97,1.97,1.38,1.57,2.30,2.28,2.27
76.63,0.28,-1.93,0.29,-1.93,1.93,1.36,1.54,2.21,2.22,2.22
77.40,0.25,-1.91,0.27,-1.89,1.89,1.34,1.51,2.14,2.16,2.16
78.17,0.24,-1.85,0.24,-1.86,1.86,1.32,1.48,2.09,2.10,2.09
78.95,0.24,-1.81,0.21,-1.83,1.83,1.30,1.45,2.06,2.04,2.05
79.74,0.23,-1.75,0.18,-1.80,1.80,1.27,1.42,2.04,1.98,1.98
80.54,0.14,-1.79,0.14,-1.79,1.79,1.25,1.39,1.93,1.93,1.93
81.35,0.06,-1.81,0.11,-1.76,1.76,1.23,1.36,1.82,1.87,1.87
82.16,0.04,-1.78,0.07,-1.74,1.74,1.21,1.34,1.78,1.81,1.81
82.98,0.04,-1.73,0.03,-1.72,1.72,1.19,1.31,1.76,1.76,1.77
83.81,0.03,-1.67,-0.01,-1.71,1.71,1.18,1.29,1.75,1.70,1.70
84.65,0.00,-1.64,-0.06,-1.70,1.70,1.16,1.26,1.71,1.65,1.64
85.50,-0.08,-1.68,-0.10,-1.69,1.69,1.14,1.24,1.60,1.59,1.59
86.35,-0.18,-1.71,-0.15,-1.68,1.68,1.12,1.22,1.50,1.53,1.54
87.22,-0.22,-1.70,-0.19,-1.66,1.66,1.10,1.19,1.44,1.47,1.48
88.09,-0.26,-1.68,-0.23,-1.64,1.64,1.08,1.17,1.38,1.41,1.42
88.97,-0.26,-1.62,-0.27,-1.62,1.62,1.07,1.15,1.36,1.35,1.35
89.86,-0.26,-1.56,-0.30,-1.59,1.59,1.05,1.13,1.33,1.29,1.29
90.76,-0.34,-1.57,-0.34,-1.57,1.57,1.03,1.11,1.23,1.23,1.23
91.66,-0.44,-1.61,-0.38,-1.55,1.55,1.02,1.10,1.12,1.17,1.18
92.58,-0.46,-1.57,-0.42,-1.53,1.53,1.00,1.08,1.07,1.11,1.10
93.51,-0.46,-1.51,-0.45,-1.51,1.51,0.99,1.06,1.04,1.05,1.05
94.44,-0.46,-1.46,-0.49,-1.48,1.48,0.97,1.05,1.02,0.99,0.99
95.39,-0.46,-1.40,-0.52,-1.45,1.45,0.96,1.03,0.99,0.93,0.94
96.34,-0.49,-1.37,-0.55,-1.43,1.43,0.94,1.02,0.93,0.88,0.87
97.30,-0.58,-1.39,-0.58,-1.40,1.40,0.93,1.00,0.83,0.82,0.82
98.28,-0.61,-1.38,-0.62,-1.38,1.38,0.91,0.99,0.77,0.76,0.76
99.26,-0.69,-1.40,-0.66,-1.36,1.36,0.90,0.98,0.67,0.70,0.70
100.25,-0.71,-1.36,-0.70,-1.35,1.35,0.89,0.97,0.63,0.65,0.65
101.25,-0.74,-1.32,-0.74,-1.32,1.32,0.87,0.95,0.59,0.59,0.59
102.27,-0.76,-1.30,-0.77,-1.30,1.30,0.86,0.94,0.54,0.53,0.53
103.29,-0.82,-1.29,-0.82,-1.29,1.29,0.85,0.93,0.47,0.47,0.46
104.32,-0.88,-1.29,-0.87,-1.28,1.28,0.83,0.92,0.41,0.41,0.42
105.37,-0.90,-1.26,-0.92,-1.27,1.27,0.82,0.91,0.36,0.35,0.36
106.42,-0.92,-1.23,-0.96,-1.25,1.25,0.81,0.90,0.33,0.29,0.30
107.48,-0.99,-1.22,-1.01,-1.23,1.23,0.80,0.89,0.25,0.23,0.23
108.56,-1.06,-1.23,-1.04,-1.21,1.21,0.79,0.88,0.14,0.17,0.17
109.64,-1.10,-1.20,-1.08,-1.18,1.18,0.77,0.88,0.08,0.10,0.11
110.74,-1.11,-1.16,-1.10,-1.15,1.15,0.76,0.87,0.03,0.04,0.04
111.85,-1.13,-1.13,-1.14,-1.12,1.12,0.75,0.86,-0.02,-0.02,-0.01
112.97,-1.19,-1.11,-1.17,-1.09,1.09,0.74,0.85,-0.11,-0.08,-0.08
114.10,-1.24,-1.10,-1.20,-1.06,1.06,0.73,0.84,-0.19,-0.14,-0.14
115.24,-1.25,-1.06,-1.22,-1.03,1.03,0.72,0.83,-0.23,-0.19,-0.20
116.39,-1.24,-0.98,-1.25,-1.00,1.00,0.71,0.82,-0.24,-0.25,-0.26
117.55,-1.24,-0.94,-1.27,-0.97,0.97,0.69,0.82,-0.27,-0.30,-0.31
118.73,-1.24,-0.88,-1.29,-0.94,0.94,0.68,0.81,-0.30,-0.35,-0.36
119.92,-1.23,-0.84,-1.31,-0.91,0.91,0.67,0.80,-0.33,-0.40,-0.40
121.12,-1.28,-0.83,-1.32,-0.88,0.88,0.66,0.79,-0.41,-0.44,-0.45
122.33,-1.34,-0.85,-1.33,-0.84,0.84,0.65,0.78,-0.50,-0.49,-0.49
123.55,-1.39,-0.87,-1.34,-0.81,0.81,0.64,0.77,-0.59,-0.53,-0.53
124.79,-1.40,-0.84,-1.35,-0.77,0.77,0.63,0.76,-0.63,-0.57,-0.57
126.03,-1.39,-0.78,-1.35,-0.74,0.74,0.62,0.75,-0.66,-0.61,-0.61
127.29,-1.39,-0.75,-1.36,-0.71,0.71,0.61,0.74,-0.69,-0.65,-0.64
128.57,-1.38,-0.69,-1.37,-0.68,0.68,0.60,0.73,-0.70,-0.69,-0.69
129.85,-1.37,-0.64,-1.39,-0.66,0.66,0.59,0.72,-0.72,-0.73,-0.73
131.15,-1.37,-0.61,-1.40,-0.63,0.63,0.57,0.71,-0.74,-0.77,-0.77
132.46,-1.36,-0.56,-1.41,-0.61,0.61,0.56,0.70,-0.76,-0.80,-0.81
133.79,-1.36,-0.52,-1.42,-0.58,0.58,0.55,0.69,-0.79,-0.84,-0.84
135.12,-1.38,-0.49,-1.43,-0.55,0.55,0.54,0.67,-0.82,-0.88,-0.89
136.48,-1.43,-0.52,-1.44,-0.53,0.53,0.53,0.66,-0.91,-0.91,-0.91
137.84,-1.45,-0.50,-1.46,-0.51,0.51,0.52,0.65,-0.95,-0.95,-0.96
139.22,-1.51,-0.51,-1.48,-0.49,0.49,0.50,0.64,-1.02,-0.99,-1.00
140.61,-1.55,-0.51,-1.50,-0.48,0.48,0.49,0.63,-1.08,-1.03,-1.04
142.02,-1.55,-0.49,-1.53,-0.46,0.46,0.48,0.61,-1.09,-1.07,-1.06
143.44,-1.55,-0.45,-1.55,-0.44,0.44,0.46,0.60,-1.11,-1.11,-1.10
144.87,-1.55,-0.40,-1.57,-0.41,0.41,0.45,0.59,-1.14,-1.16,-1.15
146.32,-1.56,-0.36,-1.58,-0.38,0.38,0.43,0.58,-1.19,-1.21,-1.20
147.78,-1.62,-0.38,-1.60,-0.33,0.33,0.42,0.57,-1.28,-1.27,-1.24
149.26,-1.64,-0.35,-1.61,-0.28,0.28,0.40,0.55,-1.36,-1.33,-1.30
150.75,-1.65,-0.28,-1.62,-0.23,0.23,0.39,0.54,-1.43,-1.39,-1.37
152.26,-1.65,-0.21,-1.63,-0.17,0.17,0.37,0.53,-1.49,-1.46,-1.45
153.78,-1.65,-0.14,-1.65,-0.11,0.11,0.35,0.52,-1.54,-1.54,-1.52
155.32,-1.65,-0.05,-1.67,-0.06,0.06,0.33,0.51,-1.60,-1.61,-1.60
156.88,-1.65,0.03,-1.69,-0.00,0.00,0.31,0.49,-1.65,-1.69,-1.68
158.44,-1.66,0.12,-1.72,0.05,-0.05,0.29,0.48,-1.71,-1.77,-1.77
160.03,-1.67,0.19,-1.75,0.09,-0.09,0.27,0.47,-1.77,-1.84,-1.86
161.63,-1.74,0.20,-1.78,0.13,-0.13,0.25,0.46,-1.88,-1.92,-1.94
163.24,-1.82,0.19,-1.82,0.17,-0.17,0.22,0.45,-1.98,-1.99,-2.01
164.88,-1.87,0.19,-1.85,0.20,-0.20,0.20,0.44,-2.07,-2.05,-2.07
166.53,-1.94,0.18,-1.88,0.22,-0.22,0.17,0.43,-2.16,-2.10,-2.12
168.19,-1.96,0.20,-1.92,0.23,-0.23,0.15,0.42,-2.19,-2.15,-2.17
169.87,-1.97,0.23,-1.96,0.23,-0.23,0.12,0.41,-2.21,-2.19,-2.21
171.57,-1.98,0.25,-1.99,0.23,-0.23,0.09,0.40,-2.21,-2.22,-2.23
173.29,-2.00,0.25,-2.03,0.22,-0.22,0.06,0.39,-2.22,-2.24,-2.25
175.02,-2.07,0.19,-2.05,0.21,-0.21,0.02,0.38,-2.29,-2.26,-2.27
176.77,-2.10,0.18,-2.07,0.21,-0.21,-0.01,0.37,-2.31,-2.28,-2.29
178.54,-2.09,0.20,-2.08,0.21,-0.21,-0.04,0.36,-2.30,-2.29,-2.30
180.32,-2.09,0.20,-2.09,0.21,-0.21,-0.08,0.35,-2.31,-2.30,-2.29
182.13,-2.09,0.20,-2.10,0.21,-0.21,-0.11,0.34,-2.31,-2.32,-2.29
183.95,-2.08,0.22,-2.12,0.21,-0.21,-0.15,0.34,-2.30,-2.33,-2.31
185.79,-2.14,0.17,-2.13,0.21,-0.21,-0.19,0.33,-2.36,-2.34,-2.32
187.65,-2.17,0.17,-2.14,0.21,-0.21,-0.22,0.32,-2.39,-2.35,-2.34
189.52,-2.14,0.21,-2.15,0.22,-0.22,-0.26,0.31,-2.36,-2.37,-2.36
191.42,-2.11,0.26,-2.16,0.22,-0.22,-0.29,0.31,-2.34,-2.38,-2.38
193.33,-2.12,0.29,-2.17,0.23,-0.23,-0.32,0.30,-2.35,-2.40,-2.40
195.27,-2.16,0.26,-2.19,0.24,-0.24,-0.35,0.29,-2.40,-2.42,-2.42
197.22,-2.20,0.24,-2.21,0.24,-0.24,-0.37,0.29,-2.45,-2.45,-2.45
199.19,-2.26,0.21,-2.22,0.24,-0.24,-0.39,0.28,-2.51,-2.47,-2.48
201.18,-2.28,0.21,-2.24,0.26,-0.26,-0.41,0.27,-2.54,-2.49,-2.50
203.19,-2.27,0.24,-2.25,0.27,-0.27,-0.42,0.27,-2.55,-2.52,-2.52
205.23,-2.25,0.29,-2.27,0.28,-0.28,-0.43,0.26,-2.53,-2.54,-2.55
207.28,-2.25,0.30,-2.29,0.28,-0.28,-0.43,0.26,-2.54,-2.57,-2.55
209.35,-2.28,0.30,-2.31,0.28,-0.28,-0.42,0.25,-2.56,-2.59,-2.58
211.44,-2.37,0.24,-2.34,0.27,-0.27,-0.41,0.25,-2.65,-2.61,-2.62
213.56,-2.39,0.23,-2.36,0.27,-0.27,-0.39,0.24,-2.66,-2.63,-2.63
215.69,-2.37,0.27,-2.39,0.25,-0.25,-0.36,0.24,-2.63,-2.64,-2.64
217.85,-2.37,0.28,-2.42,0.24,-0.24,-0.34,0.24,-2.62,-2.66,-2.66
220.03,-2.34,0.33,-2.44,0.23,-0.23,-0.30,0.23,-2.58,-2.67,-2.67
222.23,-2.38,0.31,-2.46,0.22,-0.22,-0.27,0.23,-2.60,-2.68,-2.70
224.45,-2.56,0.14,-2.49,0.19,-0.19,-0.22,0.23,-2.75,-2.69,-2.69
226.70,-2.61,0.08,-2.52,0.17,-0.17,-0.18,0.23,-2.78,-2.69,-2.70
228.96,-2.57,0.11,-2.55,0.14,-0.14,-0.14,0.23,-2.72,-2.69,-2.69
231.25,-2.57,0.11,-2.56,0.12,-0.12,-0.09,0.22,-2.69,-2.68,-2.68
233.57,-2.56,0.11,-2.58,0.10,-0.10,-0.04,0.22,-2.66,-2.67,-2.67
235.90,-2.62,0.04,-2.59,0.07,-0.07,0.01,0.22,-2.69,-2.66,-2.66
238.26,-2.67,-0.02,-2.61,0.03,-0.03,0.06,0.22,-2.71,-2.65,-2.66
240.64,-2.60,0.03,-2.63,0.00,-0.00,0.10,0.23,-2.61,-2.63,-2.64
243.05,-2.56,0.04,-2.63,-0.02,0.02,0.15,0.23,-2.54,-2.61,-2.61
245.48,-2.63,-0.05,-2.63,-0.04,0.04,0.20,0.23,-2.59,-2.59,-2.59
247.93,-2.65,-0.10,-2.63,-0.06,0.06,0.24,0.23,-2.59,-2.57,-2.56
250.41,-2.63,-0.09,-2.63,-0.08,0.08,0.29,0.24,-2.55,-2.55,-2.55
252.92,-2.61,-0.10,-2.64,-0.12,0.12,0.33,0.24,-2.50,-2.53,-2.52
255.45,-2.63,-0.14,-2.66,-0.16,0.16,0.37,0.25,-2.48,-2.50,-2.49
258.00,-2.71,-0.24,-2.68,-0.20,0.20,0.41,0.25,-2.52,-2.48,-2.47
260.58,-2.73,-0.27,-2.69,-0.24,0.24,0.45,0.26,-2.50,-2.46,-2.46
263.19,-2.68,-0.26,-2.72,-0.28,0.28,0.49,0.26,-2.40,-2.43,-2.43
265.82,-2.63,-0.22,-2.75,-0.34,0.34,0.53,0.27,-2.30,-2.41,-2.42
268.48,-2.70,-0.31,-2.78,-0.39,0.39,0.56,0.28,-2.31,-2.39,-2.39
271.16,-2.78,-0.41,-2.81,-0.45,0.45,0.60,0.29,-2.33,-2.36,-2.36
273.87,-2.92,-0.57,-2.84,-0.50,0.50,0.63,0.30,-2.42,-2.34,-2.35
276.61,-2.95,-0.64,-2.86,-0.54,0.54,0.66,0.31,-2.41,-2.32,-2.31
279.38,-2.91,-0.62,-2.88,-0.59,0.59,0.70,0.32,-2.32,-2.29,-2.29
282.17,-2.90,-0.64,-2.90,-0.64,0.64,0.73,0.33,-2.27,-2.26,-2.27
284.99,-2.90,-0.66,-2.92,-0.68,0.68,0.75,0.34,-2.21,-2.24,-2.23
287.84,-2.98,-0.76,-2.94,-0.73,0.73,0.78,0.35,-2.25,-2.21,-2.22
290.72,-3.05,-0.87,-2.95,-0.77,0.77,0.81,0.36,-2.29,-2.18,-2.18
293.63,-2.98,-0.83,-2.97,-0.81,0.81,0.84,0.38,-2.17,-2.15,-2.16
296.57,-2.95,-0.83,-2.98,-0.86,0.86,0.87,0.39,-2.10,-2.13,-2.12
299.53,-2.94,-0.85,-3.00,-0.90,0.90,0.89,0.41,-2.05,-2.10,-2.10
302.53,-2.93,-0.85,-3.00,-0.93,0.93,0.92,0.42,-2.00,-2.07,-2.08
305.55,-2.96,-0.92,-3.01,-0.96,0.96,0.94,0.44,-1.99,-2.05,-2.04
308.61,-3.00,-0.98,-3.03,-1.01,1.01,0.97,0.45,-2.00,-2.03,-2.02
311.69,-3.06,-1.07,-3.06,-1.06,1.06,0.99,0.47,-2.00,-2.00,-2.00
314.81,-3.09,-1.12,-3.09,-1.11,1.11,1.02,0.49,-1.99,-1.98,-1.97
317.96,-3.10,-1.15,-3.11,-1.15,1.15,1.04,0.50,-1.95,-1.96,-1.95
321.14,-3.12,-1.18,-3.15,-1.20,1.20,1.07,0.52,-1.92,-1.94,-1.95
324.35,-3.26,-1.33,-3.18,-1.25,1.25,1.09,0.54,-2.01,-1.93,-1.93
327.59,-3.27,-1.36,-3.21,-1.30,1.30,1.12,0.56,-1.98,-1.91,-1.91
330.87,-3.22,-1.32,-3.24,-1.34,1.34,1.14,0.58,-1.88,-1.90,-1.91
334.18,-3.20,-1.31,-3.28,-1.39,1.39,1.17,0.60,-1.82,-1.89,-1.89
337.52,-3.32,-1.44,-3.32,-1.43,1.43,1.19,0.63,-1.89,-1.88,-1.88
340.90,-3.41,-1.55,-3.35,-1.47,1.47,1.22,0.65,-1.94,-1.87,-1.87
344.30,-3.38,-1.52,-3.38,-1.51,1.51,1.25,0.67,-1.88,-1.87,-1.86
347.75,-3.33,-1.47,-3.40,-1.53,1.53,1.27,0.69,-1.80,-1.86,-1.86
351.23,-3.44,-1.59,-3.42,-1.56,1.56,1.30,0.72,-1.88,-1.86,-1.86
354.74,-3.50,-1.65,-3.45,-1.60,1.60,1.33,0.74,-1.91,-1.85,-1.86
358.28,-3.37,-1.51,-3.48,-1.63,1.63,1.36,0.77,-1.73,-1.85,-1.85
361.87,-3.40,-1.55,-3.51,-1.66,1.66,1.40,0.79,-1.75,-1.85,-1.85
365.49,-3.66,-1.82,-3.53,-1.68,1.68,1.43,0.82,-1.99,-1.85,-1.84
369.14,-3.62,-1.77,-3.55,-1.70,1.70,1.47,0.85,-1.93,-1.85,-1.86
372.83,-3.58,-1.73,-3.58,-1.72,1.72,1.51,0.88,-1.86,-1.85,-1.86
376.56,-3.56,-1.70,-3.60,-1.74,1.74,1.55,0.90,-1.82,-1.86,-1.86
380.33,-3.56,-1.71,-3.63,-1.77,1.77,1.59,0.93,-1.79,-1.86,-1.85
384.13,-3.61,-1.76,-3.65,-1.79,1.79,1.63,0.96,-1.82,-1.86,-1.85
387.97,-3.76,-1.90,-3.66,-1.80,1.80,1.68,0.99,-1.97,-1.87,-1.87
391.85,-3.72,-1.85,-3.68,-1.80,1.80,1.73,1.02,-1.92,-1.87,-1.88
395.77,-3.66,-1.80,-3.70,-1.82,1.82,1.78,1.05,-1.84,-1.88,-1.87
399.73,-3.64,-1.76,-3.73,-1.84,1.84,1.83,1.08,-1.80,-1.89,-1.88
403.72,-3.68,-1.79,-3.75,-1.86,1.86,1.88,1.11,-1.82,-1.89,-1.88
407.76,-3.85,-1.96,-3.76,-1.87,1.87,1.93,1.14,-1.99,-1.90,-1.89
411.84,-3.88,-1.99,-3.79,-1.89,1.89,1.98,1.16,-1.99,-1.90,-1.90
415.96,-3.79,-1.89,-3.81,-1.91,1.91,2.03,1.19,-1.87,-1.90,-1.90
420.12,-3.75,-1.86,-3.84,-1.94,1.94,2.07,1.22,-1.81,-1.90,-1.90
424.32,-3.64,-1.74,-3.86,-1.97,1.97,2.11,1.25,-1.67,-1.89,-1.90
428.56,-3.82,-1.92,-3.86,-1.97,1.97,2.14,1.27,-1.84,-1.88,-1.89
432.85,-4.01,-2.13,-3.84,-1.97,1.97,2.15,1.30,-2.05,-1.87,-1.88
437.18,-3.93,-2.05,-3.81,-1.96,1.96,2.16,1.32,-1.96,-1.85,-1.87
441.55,-3.86,-2.03,-3.78,-1.96,1.96,2.16,1.34,-1.91,-1.82,-1.83
445.96,-3.82,-2.02,-3.76,-1.97,1.97,2.14,1.36,-1.86,-1.79,-1.81
450.42,-3.76,-1.99,-3.73,-1.97,1.97,2.11,1.38,-1.79,-1.76,-1.78
454.93,-3.71,-1.99,-3.67,-1.96,1.96,2.07,1.39,-1.76,-1.71,-1.73
459.48,-3.66,-1.98,-3.61,-1.94,1.94,2.02,1.40,-1.71,-1.67,-1.68
464.07,-3.58,-1.96,-3.56,-1.94,1.94,1.96,1.41,-1.65,-1.63,-1.63
468.71,-3.30,-1.74,-3.51,-1.93,1.93,1.89,1.42,-1.38,-1.58,-1.57
473.40,-3.17,-1.63,-3.44,-1.91,1.91,1.81,1.42,-1.26,-1.53,-1.53
478.13,-3.27,-1.80,-3.34,-1.86,1.86,1.73,1.42,-1.41,-1.48,-1.47
482.91,-3.30,-1.86,-3.25,-1.82,1.82,1.65,1.41,-1.48,-1.44,-1.43
487.74,-3.39,-2.00,-3.17,-1.78,1.78,1.57,1.41,-1.61,-1.39,-1.39
492.62,-3.34,-2.00,-3.09,-1.73,1.73,1.48,1.39,-1.61,-1.36,-1.34
