frequency,raw,error,smoothed,error_smoothed,equalization,parametric_eq,fixed_band_eq,equalized_raw,equalized_smoothed,target
20.00,13.04,6.25,13.04,6.25,-6.23,-6.35,-2.47,6.81,6.81,6.79
20.20,13.04,6.26,13.04,6.26,-6.25,-6.34,-2.54,6.79,6.79,6.78
20.40,13.04,6.26,13.04,6.26,-6.27,-6.32,-2.61,6.77,6.77,6.78
20.61,13.04,6.26,13.04,6.27,-6.28,-6.31,-2.69,6.76,6.76,6.78
20.81,13.04,6.28,13.04,6.27,-6.29,-6.29,-2.76,6.75,6.75,6.76
21.02,13.04,6.28,13.04,6.28,-6.29,-6.28,-2.84,6.75,6.75,6.76
21.23,13.04,6.28,13.04,6.28,-6.29,-6.26,-2.92,6.75,6.75,6.76
21.44,13.04,6.27,13.04,6.28,-6.28,-6.24,-3.01,6.76,6.76,6.77
21.66,13.04,6.28,13.04,6.28,-6.27,-6.23,-3.09,6.77,6.78,6.76
21.87,13.04,6.27,13.04,6.27,-6.25,-6.21,-3.18,6.79,6.79,6.77
22.09,13.02,6.26,13.01,6.25,-6.22,-6.19,-3.27,6.80,6.79,6.76
22.31,12.97,6.20,12.97,6.21,-6.19,-6.17,-3.37,6.78,6.78,6.77
22.54,12.92,6.16,12.92,6.16,-6.16,-6.16,-3.46,6.76,6.76,6.76
22.76,12.87,6.11,12.87,6.11,-6.13,-6.14,-3.56,6.74,6.74,6.76
22.99,12.82,6.06,12.84,6.08,-6.10,-6.12,-3.66,6.72,6.73,6.76
23.22,12.82,6.06,12.82,6.05,-6.08,-6.10,-3.76,6.75,6.74,6.76
23.45,12.82,6.05,12.82,6.05,-6.06,-6.08,-3.87,6.76,6.76,6.77
23.69,12.82,6.05,12.82,6.05,-6.05,-6.06,-3.98,6.77,6.77,6.77
23.92,12.82,6.05,12.82,6.05,-6.05,-6.05,-4.08,6.78,6.78,6.77
24.16,12.82,6.04,12.82,6.04,-6.04,-6.03,-4.20,6.78,6.78,6.78
24.40,12.82,6.03,12.82,6.04,-6.04,-6.01,-4.31,6.79,6.79,6.79
24.65,12.82,6.03,12.82,6.04,-6.02,-5.99,-4.42,6.80,6.81,6.79
24.89,12.82,6.03,12.81,6.02,-5.99,-5.97,-4.54,6.83,6.82,6.79
25.14,12.79,6.01,12.78,5.99,-5.96,-5.95,-4.66,6.83,6.82,6.78
25.39,12.73,5.94,12.73,5.94,-5.93,-5.93,-4.78,6.80,6.80,6.79
25.65,12.67,5.88,12.67,5.88,-5.90,-5.91,-4.90,6.77,6.77,6.79
25.91,12.61,5.83,12.62,5.83,-5.87,-5.89,-5.02,6.75,6.76,6.78
26.16,12.59,5.80,12.59,5.81,-5.84,-5.87,-5.14,6.75,6.75,6.79
26.43,12.59,5.80,12.59,5.80,-5.82,-5.85,-5.26,6.77,6.76,6.79
26.69,12.59,5.80,12.59,5.80,-5.82,-5.83,-5.37,6.78,6.77,6.79
26.96,12.59,5.82,12.59,5.81,-5.81,-5.81,-5.49,6.78,6.78,6.77
27.23,12.59,5.82,12.59,5.82,-5.81,-5.79,-5.60,6.78,6.78,6.77
27.50,12.59,5.82,12.60,5.82,-5.80,-5.77,-5.72,6.79,6.80,6.77
27.77,12.59,5.81,12.59,5.82,-5.78,-5.75,-5.82,6.81,6.81,6.78
28.05,12.58,5.81,12.56,5.80,-5.76,-5.72,-5.93,6.82,6.80,6.77
28.33,12.51,5.75,12.51,5.75,-5.74,-5.70,-6.03,6.77,6.77,6.76
28.62,12.45,5.70,12.45,5.69,-5.72,-5.68,-6.13,6.74,6.73,6.75
28.90,12.38,5.62,12.39,5.64,-5.69,-5.66,-6.21,6.69,6.71,6.76
29.19,12.36,5.61,12.37,5.62,-5.66,-5.64,-6.30,6.71,6.71,6.75
29.48,12.36,5.63,12.36,5.62,-5.62,-5.62,-6.37,6.74,6.74,6.73
29.78,12.36,5.63,12.36,5.63,-5.59,-5.60,-6.44,6.77,6.77,6.73
30.08,12.34,5.61,12.33,5.61,-5.56,-5.58,-6.50,6.78,6.77,6.73
30.38,12.27,5.56,12.27,5.55,-5.53,-5.56,-6.55,6.74,6.73,6.71
30.68,12.20,5.50,12.20,5.50,-5.52,-5.54,-6.59,6.68,6.69,6.70
30.99,12.13,5.44,12.15,5.46,-5.50,-5.51,-6.63,6.63,6.65,6.69
31.30,12.13,5.45,12.13,5.45,-5.49,-5.49,-6.65,6.64,6.64,6.68
31.61,12.13,5.46,12.12,5.46,-5.48,-5.47,-6.67,6.65,6.64,6.67
31.93,12.13,5.48,12.13,5.47,-5.47,-5.45,-6.67,6.66,6.66,6.65
32.24,12.13,5.47,12.14,5.49,-5.46,-5.43,-6.67,6.67,6.68,6.66
32.57,12.13,5.49,12.14,5.49,-5.45,-5.41,-6.65,6.68,6.69,6.64
32.89,12.13,5.49,12.12,5.48,-5.43,-5.39,-6.64,6.70,6.68,6.64
33.22,12.08,5.44,12.07,5.43,-5.41,-5.37,-6.61,6.67,6.65,6.64
33.55,12.00,5.37,12.00,5.37,-5.39,-5.35,-6.57,6.61,6.62,6.63
33.89,11.93,5.29,11.94,5.31,-5.35,-5.33,-6.53,6.58,6.59,6.64
34.23,11.90,5.28,11.91,5.28,-5.31,-5.31,-6.48,6.59,6.60,6.62
34.57,11.90,5.27,11.90,5.27,-5.26,-5.29,-6.43,6.64,6.64,6.63
34.92,11.90,5.28,11.88,5.26,-5.22,-5.27,-6.37,6.68,6.66,6.62
35.27,11.84,5.21,11.83,5.21,-5.19,-5.25,-6.31,6.65,6.64,6.63
35.62,11.76,5.16,11.77,5.16,-5.17,-5.23,-6.24,6.60,6.60,6.60
35.97,11.69,5.09,11.71,5.11,-5.15,-5.21,-6.17,6.54,6.56,6.60
36.33,11.68,5.09,11.68,5.10,-5.14,-5.20,-6.10,6.55,6.55,6.59
36.70,11.68,5.11,11.68,5.10,-5.12,-5.18,-6.03,6.56,6.56,6.57
37.06,11.68,5.13,11.68,5.12,-5.10,-5.16,-5.96,6.58,6.57,6.55
37.43,11.66,5.12,11.67,5.13,-5.09,-5.14,-5.89,6.57,6.57,6.54
37.81,11.64,5.13,11.64,5.12,-5.09,-5.13,-5.82,6.55,6.54,6.51
38.19,11.60,5.11,11.59,5.09,-5.09,-5.11,-5.75,6.51,6.49,6.49
38.57,11.53,5.06,11.53,5.06,-5.09,-5.09,-5.68,6.44,6.44,6.47
38.95,11.46,5.02,11.48,5.05,-5.08,-5.08,-5.61,6.38,6.40,6.44
39.34,11.45,5.06,11.46,5.06,-5.06,-5.06,-5.54,6.39,6.40,6.39
39.74,11.45,5.09,11.44,5.08,-5.04,-5.05,-5.48,6.41,6.40,6.36
40.14,11.42,5.09,11.40,5.07,-5.03,-5.03,-5.42,6.39,6.37,6.33
40.54,11.33,5.02,11.33,5.02,-5.02,-5.02,-5.36,6.31,6.30,6.31
40.94,11.23,4.96,11.26,4.99,-5.02,-5.01,-5.31,6.21,6.24,6.27
41.35,11.22,4.97,11.22,4.97,-5.02,-4.99,-5.26,6.20,6.20,6.25
41.76,11.22,5.00,11.21,4.99,-5.02,-4.98,-5.21,6.20,6.20,6.22
42.18,11.22,5.02,11.23,5.03,-5.01,-4.97,-5.16,6.21,6.22,6.20
42.60,11.22,5.05,11.22,5.05,-5.00,-4.96,-5.12,6.22,6.23,6.17
43.03,11.21,5.07,11.18,5.04,-4.99,-4.95,-5.09,6.22,6.18,6.14
43.46,11.11,5.00,11.11,5.00,-5.00,-4.94,-5.05,6.12,6.12,6.11
43.90,11.01,4.92,11.04,4.96,-4.99,-4.93,-5.02,6.02,6.05,6.09
44.33,10.99,4.94,11.00,4.94,-4.99,-4.92,-4.99,6.01,6.01,6.05
44.78,10.99,4.97,10.98,4.95,-4.97,-4.91,-4.97,6.02,6.01,6.02
45.23,10.98,4.97,10.98,4.98,-4.96,-4.91,-4.95,6.02,6.02,6.01
45.68,10.95,4.99,10.95,4.99,-4.95,-4.90,-4.94,6.00,6.00,5.96
46.13,10.91,4.99,10.89,4.97,-4.95,-4.90,-4.93,5.96,5.94,5.92
46.60,10.83,4.94,10.83,4.94,-4.95,-4.89,-4.92,5.88,5.88,5.89
47.06,10.76,4.90,10.79,4.93,-4.95,-4.89,-4.91,5.81,5.84,5.86
47.53,10.76,4.93,10.76,4.94,-4.95,-4.88,-4.91,5.81,5.81,5.83
48.01,10.76,4.99,10.73,4.96,-4.95,-4.88,-4.92,5.81,5.78,5.77
48.49,10.70,4.97,10.70,4.97,-4.95,-4.88,-4.92,5.75,5.75,5.73
48.97,10.63,4.94,10.64,4.96,-4.95,-4.88,-4.93,5.68,5.69,5.69
49.46,10.59,4.94,10.59,4.94,-4.95,-4.88,-4.94,5.64,5.64,5.65
49.96,10.54,4.95,10.55,4.96,-4.94,-4.88,-4.96,5.60,5.61,5.59
50.46,10.52,4.97,10.52,4.96,-4.94,-4.88,-4.97,5.58,5.58,5.55
50.96,10.49,4.97,10.46,4.95,-4.94,-4.88,-4.99,5.55,5.52,5.52
51.47,10.40,4.92,10.40,4.92,-4.94,-4.88,-5.01,5.46,5.46,5.48
51.99,10.31,4.88,10.34,4.90,-4.95,-4.88,-5.04,5.36,5.39,5.43
52.51,10.31,4.92,10.31,4.91,-4.96,-4.89,-5.06,5.35,5.35,5.39
53.03,10.31,4.95,10.31,4.97,-4.97,-4.89,-5.09,5.35,5.35,5.36
53.56,10.31,5.02,10.31,5.01,-4.97,-4.90,-5.12,5.34,5.34,5.29
54.10,10.29,5.05,10.25,5.00,-4.97,-4.90,-5.14,5.32,5.28,5.24
54.64,10.16,4.96,10.19,4.99,-4.97,-4.91,-5.17,5.19,5.22,5.20
55.18,10.08,4.94,10.12,4.98,-4.97,-4.92,-5.20,5.11,5.15,5.14
55.74,10.08,4.99,10.05,4.95,-4.96,-4.92,-5.23,5.12,5.08,5.09
56.29,10.01,4.96,9.98,4.93,-4.95,-4.93,-5.26,5.06,5.03,5.05
56.86,9.88,4.86,9.92,4.91,-4.93,-4.94,-5.28,4.95,4.99,5.02
57.42,9.85,4.89,9.86,4.90,-4.92,-4.95,-5.31,4.93,4.95,4.96
58.00,9.85,4.93,9.85,4.92,-4.91,-4.96,-5.33,4.94,4.94,4.92
58.58,9.85,4.96,9.83,4.94,-4.91,-4.97,-5.35,4.94,4.92,4.89
59.16,9.81,4.95,9.78,4.93,-4.92,-4.98,-5.37,4.89,4.86,4.86
59.76,9.68,4.87,9.71,4.90,-4.93,-4.99,-5.38,4.75,4.78,4.81
60.35,9.63,4.89,9.65,4.90,-4.93,-5.00,-5.40,4.70,4.72,4.74
60.96,9.63,4.94,9.63,4.95,-4.94,-5.01,-5.41,4.69,4.69,4.69
61.57,9.63,5.01,9.61,4.99,-4.95,-5.02,-5.41,4.68,4.66,4.62
62.18,9.59,5.04,9.55,4.99,-4.97,-5.04,-5.41,4.62,4.58,4.55
62.80,9.44,4.94,9.48,4.98,-4.99,-5.05,-5.41,4.45,4.49,4.50
63.43,9.40,4.96,9.42,4.97,-5.02,-5.06,-5.41,4.38,4.40,4.44
64.07,9.40,5.01,9.39,5.00,-5.04,-5.07,-5.40,4.36,4.34,4.39
64.71,9.40,5.06,9.41,5.08,-5.07,-5.09,-5.39,4.34,4.35,4.34
65.35,9.40,5.13,9.40,5.13,-5.08,-5.10,-5.38,4.32,4.32,4.27
66.01,9.40,5.19,9.35,5.13,-5.10,-5.11,-5.36,4.30,4.25,4.21
66.67,9.25,5.09,9.28,5.12,-5.11,-5.13,-5.34,4.14,4.16,4.16
67.33,9.17,5.08,9.21,5.12,-5.13,-5.14,-5.32,4.04,4.09,4.09
68.01,9.17,5.13,9.16,5.12,-5.14,-5.15,-5.29,4.03,4.02,4.04
68.69,9.15,5.18,9.11,5.14,-5.14,-5.17,-5.27,4.01,3.97,3.97
69.37,9.06,5.14,9.05,5.13,-5.14,-5.18,-5.24,3.92,3.91,3.92
70.07,8.94,5.09,8.99,5.14,-5.15,-5.20,-5.21,3.79,3.84,3.85
70.77,8.94,5.15,8.95,5.17,-5.16,-5.21,-5.18,3.78,3.79,3.79
71.48,8.94,5.23,8.91,5.19,-5.18,-5.22,-5.15,3.76,3.73,3.71
72.19,8.89,5.24,8.85,5.20,-5.20,-5.24,-5.12,3.69,3.66,3.65
72.91,8.73,5.14,8.78,5.20,-5.21,-5.25,-5.09,3.52,3.57,3.59
73.64,8.71,5.20,8.72,5.21,-5.23,-5.26,-5.06,3.48,3.49,3.51
74.38,8.71,5.26,8.70,5.25,-5.25,-5.27,-5.03,3.46,3.45,3.45
75.12,8.70,5.31,8.69,5.29,-5.26,-5.29,-5.00,3.44,3.42,3.39
75.87,8.66,5.30,8.63,5.29,-5.27,-5.30,-4.98,3.39,3.36,3.36
76.63,8.55,5.26,8.57,5.27,-5.28,-5.31,-4.95,3.27,3.29,3.29
77.40,8.49,5.25,8.53,5.28,-5.28,-5.32,-4.93,3.21,3.25,3.24
78.17,8.49,5.30,8.48,5.29,-5.28,-5.33,-4.91,3.21,3.20,3.19
78.95,8.49,5.34,8.43,5.28,-5.28,-5.34,-4.90,3.21,3.15,3.15
79.74,8.32,5.23,8.36,5.27,-5.27,-5.36,-4.88,3.05,3.09,3.09
80.54,8.26,5.22,8.30,5.25,-5.26,-5.37,-4.87,3.00,3.04,3.04
81.35,8.26,5.27,8.25,5.25,-5.26,-5.38,-4.86,3.00,2.99,2.99
82.16,8.24,5.29,8.21,5.26,-5.26,-5.39,-4.86,2.98,2.95,2.95
82.98,8.15,5.26,8.15,5.26,-5.27,-5.40,-4.85,2.88,2.88,2.89
83.81,8.05,5.22,8.08,5.25,-5.28,-5.40,-4.85,2.77,2.80,2.83
84.65,8.03,5.26,8.04,5.27,-5.29,-5.41,-4.86,2.74,2.75,2.77
85.50,8.03,5.33,8.04,5.33,-5.31,-5.42,-4.87,2.72,2.73,2.70
86.35,8.03,5.39,8.00,5.36,-5.33,-5.43,-4.88,2.70,2.67,2.64
87.22,7.98,5.40,7.94,5.36,-5.35,-5.44,-4.89,2.63,2.59,2.58
88.09,7.80,5.29,7.87,5.35,-5.36,-5.45,-4.91,2.44,2.50,2.51
88.97,7.80,5.35,7.82,5.37,-5.38,-5.45,-4.94,2.42,2.44,2.45
89.86,7.80,5.42,7.78,5.40,-5.40,-5.46,-4.96,2.40,2.38,2.38
90.76,7.78,5.47,7.74,5.42,-5.41,-5.47,-4.99,2.37,2.33,2.31
91.66,7.64,5.39,7.66,5.42,-5.42,-5.47,-5.02,2.22,2.25,2.25
92.58,7.57,5.38,7.61,5.42,-5.43,-5.48,-5.06,2.14,2.18,2.19
93.51,7.57,5.45,7.57,5.44,-5.45,-5.48,-5.10,2.12,2.12,2.12
94.44,7.57,5.51,7.53,5.47,-5.47,-5.49,-5.15,2.10,2.06,2.06
95.39,7.48,5.50,7.47,5.49,-5.49,-5.50,-5.19,1.99,1.97,1.98
96.34,7.35,5.45,7.40,5.50,-5.51,-5.50,-5.24,1.84,1.89,1.90
97.30,7.35,5.51,7.36,5.53,-5.53,-5.51,-5.30,1.82,1.84,1.84
98.28,7.35,5.60,7.31,5.56,-5.54,-5.51,-5.35,1.81,1.77,1.75
99.26,7.29,5.61,7.26,5.57,-5.55,-5.52,-5.41,1.74,1.71,1.68
100.25,7.12,5.50,7.19,5.57,-5.56,-5.52,-5.47,1.56,1.63,1.62
101.25,7.12,5.56,7.12,5.56,-5.56,-5.53,-5.54,1.56,1.55,1.56
102.27,7.09,5.60,7.04,5.55,-5.57,-5.53,-5.60,1.52,1.47,1.49
103.29,6.97,5.54,6.99,5.55,-5.56,-5.54,-5.67,1.41,1.42,1.43
104.32,6.89,5.51,6.93,5.55,-5.56,-5.54,-5.74,1.33,1.37,1.38
105.37,6.89,5.57,6.89,5.57,-5.56,-5.55,-5.81,1.33,1.33,1.32
106.42,6.89,5.63,6.84,5.59,-5.57,-5.55,-5.88,1.32,1.27,1.26
107.48,6.79,5.60,6.78,5.58,-5.58,-5.56,-5.95,1.21,1.20,1.19
108.56,6.67,5.52,6.71,5.57,-5.59,-5.56,-6.02,1.08,1.12,1.15
109.64,6.66,5.57,6.66,5.57,-5.61,-5.57,-6.08,1.05,1.06,1.09
110.74,6.66,5.63,6.67,5.64,-5.62,-5.57,-6.15,1.04,1.05,1.03
111.85,6.66,5.69,6.64,5.67,-5.63,-5.58,-6.21,1.03,1.01,0.97
112.97,6.64,5.72,6.58,5.66,-5.65,-5.59,-6.28,1.00,0.93,0.92
114.10,6.43,5.57,6.50,5.65,-5.66,-5.59,-6.34,0.77,0.84,0.86
115.24,6.43,5.64,6.45,5.66,-5.67,-5.60,-6.39,0.76,0.78,0.79
116.39,6.43,5.71,6.40,5.68,-5.69,-5.61,-6.44,0.74,0.71,0.72
117.55,6.42,5.76,6.37,5.71,-5.70,-5.62,-6.48,0.72,0.67,0.66
118.73,6.26,5.67,6.30,5.71,-5.71,-5.62,-6.53,0.55,0.59,0.59
119.92,6.21,5.69,6.24,5.72,-5.72,-5.63,-6.56,0.49,0.52,0.52
121.12,6.21,5.74,6.20,5.74,-5.74,-5.64,-6.59,0.47,0.47,0.47
122.33,6.21,5.82,6.17,5.77,-5.76,-5.65,-6.61,0.45,0.41,0.39
123.55,6.11,5.77,6.10,5.77,-5.77,-5.66,-6.63,0.34,0.34,0.34
124.79,5.99,5.72,6.04,5.77,-5.77,-5.67,-6.64,0.22,0.26,0.27
126.03,5.98,5.78,5.99,5.79,-5.79,-5.68,-6.64,0.19,0.20,0.20
127.29,5.98,5.85,5.95,5.82,-5.81,-5.69,-6.63,0.17,0.14,0.13
128.57,5.93,5.86,5.89,5.83,-5.83,-5.70,-6.63,0.10,0.06,0.07
129.85,5.77,5.78,5.82,5.82,-5.85,-5.71,-6.61,-0.08,-0.03,-0.01
131.15,5.75,5.82,5.76,5.83,-5.87,-5.72,-6.58,-0.11,-0.10,-0.07
132.46,5.75,5.89,5.75,5.89,-5.89,-5.73,-6.55,-0.14,-0.14,-0.14
133.79,5.75,5.95,5.74,5.94,-5.91,-5.75,-6.52,-0.16,-0.16,-0.20
135.12,5.74,6.01,5.69,5.95,-5.92,-5.76,-6.48,-0.18,-0.24,-0.27
136.48,5.58,5.89,5.61,5.93,-5.93,-5.77,-6.44,-0.35,-0.32,-0.31
137.84,5.52,5.89,5.56,5.93,-5.95,-5.79,-6.39,-0.43,-0.39,-0.37
139.22,5.52,5.96,5.51,5.94,-5.95,-5.80,-6.34,-0.43,-0.44,-0.44
140.61,5.52,6.01,5.48,5.97,-5.96,-5.81,-6.29,-0.44,-0.48,-0.49
142.02,5.41,5.95,5.42,5.96,-5.95,-5.83,-6.23,-0.54,-0.54,-0.54
143.44,5.32,5.92,5.35,5.94,-5.95,-5.84,-6.17,-0.63,-0.60,-0.60
144.87,5.29,5.93,5.30,5.95,-5.95,-5.86,-6.12,-0.66,-0.65,-0.64
146.32,5.29,5.98,5.27,5.96,-5.96,-5.87,-6.06,-0.66,-0.69,-0.69
147.78,5.24,5.99,5.21,5.96,-5.96,-5.89,-6.00,-0.72,-0.74,-0.75
149.26,5.13,5.92,5.15,5.94,-5.96,-5.90,-5.94,-0.82,-0.81,-0.79
150.75,5.07,5.92,5.10,5.94,-5.95,-5.92,-5.88,-0.88,-0.85,-0.85
152.26,5.07,5.95,5.08,5.96,-5.94,-5.93,-5.83,-0.87,-0.87,-0.88
153.78,5.07,6.01,5.04,5.98,-5.95,-5.95,-5.77,-0.88,-0.91,-0.94
155.32,5.02,6.00,4.98,5.96,-5.96,-5.96,-5.72,-0.94,-0.97,-0.98
156.88,4.86,5.89,4.91,5.94,-5.97,-5.98,-5.67,-1.11,-1.06,-1.03
158.44,4.84,5.92,4.85,5.93,-5.98,-5.99,-5.62,-1.14,-1.13,-1.08
160.03,4.84,5.97,4.83,5.96,-6.00,-6.01,-5.58,-1.16,-1.17,-1.13
161.63,4.84,6.02,4.86,6.04,-6.01,-6.02,-5.54,-1.17,-1.15,-1.18
163.24,4.84,6.08,4.84,6.07,-6.02,-6.04,-5.50,-1.18,-1.18,-1.24
164.88,4.84,6.12,4.78,6.06,-6.03,-6.05,-5.47,-1.19,-1.25,-1.28
166.53,4.66,6.00,4.70,6.03,-6.03,-6.06,-5.43,-1.37,-1.33,-1.34
168.19,4.61,5.98,4.65,6.02,-6.04,-6.07,-5.41,-1.43,-1.39,-1.37
169.87,4.61,6.03,4.60,6.02,-6.04,-6.09,-5.38,-1.43,-1.44,-1.42
171.57,4.61,6.09,4.55,6.03,-6.03,-6.10,-5.36,-1.42,-1.47,-1.48
173.29,4.47,6.00,4.49,6.02,-6.02,-6.11,-5.35,-1.55,-1.53,-1.53
175.02,4.38,5.96,4.42,6.00,-6.02,-6.12,-5.34,-1.64,-1.59,-1.58
176.77,4.38,6.01,4.38,6.01,-6.02,-6.13,-5.33,-1.64,-1.64,-1.63
178.54,4.38,6.06,4.35,6.03,-6.03,-6.14,-5.33,-1.65,-1.68,-1.68
180.32,4.31,6.05,4.30,6.03,-6.03,-6.15,-5.33,-1.72,-1.73,-1.74
182.13,4.21,6.00,4.23,6.02,-6.02,-6.15,-5.33,-1.81,-1.79,-1.79
183.95,4.16,6.00,4.19,6.04,-6.02,-6.16,-5.34,-1.86,-1.83,-1.84
185.79,4.16,6.06,4.15,6.04,-6.02,-6.16,-5.35,-1.86,-1.87,-1.90
187.65,4.16,6.10,4.09,6.04,-6.03,-6.17,-5.37,-1.87,-1.93,-1.94
189.52,3.98,5.97,4.02,6.01,-6.03,-6.17,-5.39,-2.05,-2.01,-1.99
191.42,3.93,5.96,3.96,5.99,-6.04,-6.17,-5.41,-2.11,-2.08,-2.03
193.33,3.93,6.01,3.92,6.00,-6.04,-6.17,-5.44,-2.11,-2.12,-2.08
195.27,3.93,6.06,3.94,6.07,-6.05,-6.17,-5.47,-2.11,-2.11,-2.13
197.22,3.93,6.11,3.93,6.10,-6.05,-6.17,-5.50,-2.12,-2.12,-2.18
199.19,3.92,6.13,3.88,6.09,-6.06,-6.17,-5.53,-2.13,-2.18,-2.21
201.18,3.79,6.05,3.80,6.06,-6.06,-6.16,-5.57,-2.27,-2.26,-2.26
203.19,3.70,5.99,3.74,6.02,-6.06,-6.16,-5.61,-2.36,-2.32,-2.29
205.23,3.70,6.02,3.71,6.03,-6.05,-6.15,-5.66,-2.35,-2.35,-2.32
207.28,3.70,6.05,3.69,6.05,-6.04,-6.15,-5.70,-2.34,-2.35,-2.35
209.35,3.70,6.09,3.65,6.04,-6.02,-6.14,-5.75,-2.32,-2.37,-2.39
211.44,3.57,6.00,3.58,6.01,-6.00,-6.13,-5.79,-2.43,-2.42,-2.43
213.56,3.48,5.94,3.52,5.98,-5.98,-6.11,-5.84,-2.50,-2.46,-2.46
215.69,3.47,5.96,3.47,5.96,-5.96,-6.10,-5.88,-2.49,-2.49,-2.49
217.85,3.47,5.99,3.43,5.95,-5.95,-6.08,-5.93,-2.48,-2.52,-2.52
220.03,3.38,5.94,3.37,5.93,-5.93,-6.07,-5.97,-2.55,-2.56,-2.56
222.23,3.28,5.87,3.31,5.89,-5.92,-6.05,-6.02,-2.64,-2.62,-2.59
224.45,3.24,5.86,3.25,5.87,-5.91,-6.03,-6.06,-2.67,-2.66,-2.62
226.70,3.24,5.89,3.24,5.89,-5.90,-6.01,-6.09,-2.66,-2.67,-2.65
228.96,3.24,5.92,3.25,5.93,-5.90,-5.99,-6.13,-2.66,-2.64,-2.68
231.25,3.24,5.94,3.22,5.92,-5.89,-5.97,-6.16,-2.65,-2.66,-2.70
233.57,3.21,5.94,3.16,5.89,-5.87,-5.94,-6.19,-2.66,-2.71,-2.73
235.90,3.03,5.78,3.09,5.84,-5.85,-5.92,-6.20,-2.82,-2.76,-2.75
238.26,3.02,5.81,3.04,5.82,-5.82,-5.89,-6.22,-2.80,-2.78,-2.79
240.64,3.02,5.81,3.00,5.79,-5.79,-5.86,-6.23,-2.77,-2.79,-2.79
243.05,3.01,5.82,2.96,5.77,-5.76,-5.83,-6.23,-2.75,-2.81,-2.81
245.48,2.85,5.69,2.88,5.72,-5.74,-5.80,-6.23,-2.88,-2.85,-2.84
247.93,2.79,5.65,2.82,5.67,-5.71,-5.77,-6.22,-2.92,-2.89,-2.86
250.41,2.79,5.65,2.78,5.65,-5.69,-5.74,-6.20,-2.90,-2.91,-2.86
252.92,2.79,5.67,2.80,5.68,-5.66,-5.70,-6.18,-2.87,-2.87,-2.88
255.45,2.79,5.69,2.79,5.69,-5.64,-5.67,-6.14,-2.85,-2.85,-2.90
258.00,2.79,5.71,2.74,5.66,-5.62,-5.63,-6.11,-2.83,-2.88,-2.92
260.58,2.65,5.58,2.67,5.60,-5.60,-5.59,-6.06,-2.95,-2.93,-2.93
263.19,2.57,5.51,2.60,5.54,-5.57,-5.56,-6.01,-3.00,-2.97,-2.94
265.82,2.56,5.51,2.56,5.51,-5.53,-5.52,-5.95,-2.97,-2.97,-2.95
268.48,2.56,5.51,2.56,5.51,-5.49,-5.48,-5.89,-2.93,-2.93,-2.95
271.16,2.56,5.51,2.53,5.48,-5.46,-5.44,-5.82,-2.89,-2.93,-2.95
273.87,2.48,5.44,2.46,5.42,-5.42,-5.39,-5.75,-2.94,-2.96,-2.96
276.61,2.35,5.32,2.39,5.36,-5.39,-5.35,-5.67,-3.04,-3.00,-2.97
279.38,2.33,5.32,2.34,5.32,-5.36,-5.31,-5.59,-3.03,-3.02,-2.99
282.17,2.33,5.32,2.33,5.31,-5.33,-5.26,-5.51,-3.00,-3.00,-2.99
284.99,2.33,5.31,2.34,5.33,-5.29,-5.22,-5.42,-2.96,-2.95,-2.98
287.84,2.33,5.31,2.30,5.29,-5.25,-5.17,-5.34,-2.92,-2.95,-2.98
290.72,2.26,5.25,2.24,5.22,-5.21,-5.12,-5.25,-2.95,-2.97,-2.99
293.63,2.12,5.10,2.16,5.15,-5.16,-5.08,-5.16,-3.04,-2.99,-2.98
296.57,2.10,5.08,2.13,5.11,-5.11,-5.03,-5.06,-3.01,-2.98,-2.98
299.53,2.10,5.09,2.08,5.06,-5.06,-4.98,-4.97,-2.96,-2.97,-2.99
302.53,2.10,5.07,2.03,5.01,-5.01,-4.93,-4.88,-2.91,-2.97,-2.97
305.55,1.91,4.89,1.96,4.94,-4.96,-4.88,-4.79,-3.05,-3.00,-2.98
308.61,1.88,4.85,1.90,4.87,-4.92,-4.84,-4.70,-3.04,-3.02,-2.97
311.69,1.88,4.86,1.87,4.84,-4.88,-4.79,-4.61,-3.00,-3.01,-2.98
314.81,1.88,4.85,1.89,4.87,-4.84,-4.74,-4.53,-2.96,-2.95,-2.97
317.96,1.88,4.86,1.87,4.85,-4.80,-4.68,-4.44,-2.92,-2.93,-2.98
321.14,1.87,4.84,1.82,4.79,-4.76,-4.63,-4.36,-2.89,-2.94,-2.97
324.35,1.70,4.68,1.74,4.71,-4.71,-4.58,-4.28,-3.01,-2.97,-2.98
327.59,1.65,4.60,1.69,4.65,-4.66,-4.53,-4.20,-3.01,-2.97,-2.95
330.87,1.65,4.61,1.64,4.60,-4.60,-4.48,-4.12,-2.95,-2.96,-2.96
334.18,1.65,4.61,1.60,4.55,-4.55,-4.43,-4.05,-2.90,-2.95,-2.96
337.52,1.52,4.47,1.54,4.49,-4.49,-4.38,-3.98,-2.97,-2.95,-2.95
340.90,1.44,4.38,1.47,4.41,-4.44,-4.32,-3.91,-3.00,-2.97,-2.94
344.30,1.42,4.35,1.42,4.35,-4.39,-4.27,-3.84,-2.97,-2.97,-2.93
347.75,1.42,4.34,1.42,4.35,-4.34,-4.22,-3.78,-2.92,-2.92,-2.92
351.23,1.42,4.35,1.42,4.34,-4.30,-4.17,-3.72,-2.88,-2.88,-2.93
354.74,1.42,4.32,1.38,4.29,-4.26,-4.12,-3.66,-2.84,-2.87,-2.90
358.28,1.31,4.21,1.32,4.22,-4.21,-4.06,-3.61,-2.90,-2.90,-2.90
361.87,1.22,4.12,1.25,4.14,-4.17,-4.01,-3.56,-2.95,-2.92,-2.90
365.49,1.19,4.08,1.20,4.09,-4.12,-3.96,-3.51,-2.93,-2.92,-2.89
369.14,1.19,4.07,1.20,4.08,-4.06,-3.91,-3.46,-2.87,-2.87,-2.88
372.83,1.19,4.06,1.17,4.04,-4.01,-3.86,-3.42,-2.82,-2.84,-2.87
376.56,1.14,4.02,1.11,3.98,-3.96,-3.80,-3.38,-2.82,-2.86,-2.88
380.33,0.99,3.86,1.03,3.90,-3.92,-3.75,-3.34,-2.93,-2.89,-2.87
384.13,0.96,3.82,0.97,3.84,-3.88,-3.70,-3.30,-2.92,-2.91,-2.86
387.97,0.96,3.82,0.95,3.81,-3.84,-3.65,-3.27,-2.88,-2.89,-2.86
391.85,0.96,3.82,0.97,3.83,-3.79,-3.60,-3.24,-2.83,-2.83,-2.86
395.77,0.96,3.83,0.94,3.80,-3.75,-3.55,-3.21,-2.79,-2.81,-2.87
399.73,0.90,3.76,0.88,3.74,-3.71,-3.49,-3.18,-2.81,-2.84,-2.86
403.72,0.78,3.62,0.81,3.66,-3.68,-3.44,-3.15,-2.90,-2.87,-2.84
407.76,0.74,3.58,0.75,3.59,-3.64,-3.39,-3.13,-2.90,-2.89,-2.84
411.84,0.74,3.57,0.73,3.56,-3.59,-3.34,-3.11,-2.85,-2.86,-2.83
415.96,0.74,3.56,0.75,3.57,-3.54,-3.29,-3.09,-2.80,-2.79,-2.82
420.12,0.74,3.56,0.73,3.55,-3.49,-3.24,-3.07,-2.75,-2.76,-2.82
424.32,0.72,3.52,0.67,3.47,-3.45,-3.19,-3.05,-2.72,-2.77,-2.80
428.56,0.57,3.35,0.60,3.39,-3.41,-3.14,-3.03,-2.84,-2.80,-2.78
432.85,0.51,3.28,0.54,3.31,-3.36,-3.09,-3.01,-2.85,-2.83,-2.77
437.18,0.51,3.27,0.50,3.26,-3.31,-3.05,-2.99,-2.80,-2.81,-2.76
441.55,0.51,3.27,0.52,3.28,-3.25,-3.00,-2.98,-2.74,-2.73,-2.76
445.96,0.51,3.25,0.51,3.25,-3.19,-2.95,-2.96,-2.68,-2.68,-2.74
450.42,0.51,3.24,0.45,3.18,-3.14,-2.90,-2.95,-2.63,-2.69,-2.73
454.93,0.33,3.04,0.37,3.09,-3.10,-2.85,-2.93,-2.77,-2.72,-2.71
459.48,0.28,2.98,0.31,3.00,-3.05,-2.80,-2.91,-2.77,-2.75,-2.70
464.07,0.28,2.96,0.27,2.95,-2.99,-2.76,-2.89,-2.71,-2.73,-2.68
468.71,0.28,2.94,0.29,2.96,-2.93,-2.71,-2.87,-2.65,-2.64,-2.66
473.40,0.28,2.93,0.28,2.92,-2.87,-2.66,-2.85,-2.59,-2.60,-2.65
478.13,0.28,2.91,0.22,2.85,-2.82,-2.62,-2.83,-2.54,-2.60,-2.63
482.91,0.10,2.72,0.14,2.76,-2.78,-2.57,-2.81,-2.68,-2.63,-2.62
487.74,0.05,2.66,0.08,2.68,-2.73,-2.52,-2.78,-2.68,-2.66,-2.61
492.62,0.05,2.64,0.04,2.63,-2.67,-2.48,-2.75,-2.62,-2.64,-2.59
