frequency,raw,error,smoothed,error_smoothed,equalization,parametric_eq,fixed_band_eq,equalized_raw,equalized_smoothed,target
20.00,-4.05,-10.03,-4.04,-10.05,10.05,8.97,3.57,5.99,6.01,5.98
20.20,-3.97,-10.00,-3.96,-10.00,10.00,9.07,3.67,6.03,6.05,6.03
20.40,-3.89,-9.97,-3.88,-9.96,9.96,9.17,3.78,6.07,6.08,6.08
20.61,-3.81,-9.92,-3.80,-9.91,9.91,9.25,3.88,6.10,6.11,6.11
20.81,-3.72,-9.88,-3.72,-9.86,9.86,9.33,3.99,6.14,6.14,6.16
21.02,-3.64,-9.84,-3.65,-9.82,9.82,9.40,4.10,6.18,6.17,6.20
21.23,-3.56,-9.78,-3.57,-9.77,9.77,9.46,4.21,6.21,6.20,6.22
21.44,-3.48,-9.72,-3.50,-9.72,9.72,9.51,4.33,6.24,6.22,6.24
21.66,-3.39,-9.65,-3.43,-9.67,9.67,9.55,4.45,6.27,6.24,6.26
21.87,-3.31,-9.58,-3.36,-9.61,9.61,9.58,4.57,6.30,6.26,6.27
22.09,-3.24,-9.53,-3.29,-9.56,9.56,9.60,4.70,6.32,6.27,6.28
22.31,-3.19,-9.49,-3.22,-9.51,9.51,9.61,4.83,6.31,6.28,6.29
22.54,-3.15,-9.45,-3.16,-9.45,9.45,9.60,4.97,6.30,6.29,6.29
22.76,-3.10,-9.39,-3.10,-9.39,9.39,9.59,5.10,6.29,6.29,6.29
22.99,-3.05,-9.33,-3.04,-9.33,9.33,9.56,5.24,6.28,6.30,6.28
23.22,-3.00,-9.28,-2.98,-9.27,9.27,9.53,5.39,6.27,6.30,6.28
23.45,-2.94,-9.22,-2.92,-9.21,9.21,9.48,5.53,6.27,6.30,6.28
23.69,-2.89,-9.18,-2.85,-9.15,9.15,9.43,5.69,6.26,6.30,6.29
23.92,-2.84,-9.13,-2.79,-9.09,9.09,9.36,5.84,6.25,6.30,6.29
24.16,-2.76,-9.06,-2.73,-9.02,9.02,9.29,6.00,6.26,6.30,6.30
24.40,-2.67,-8.98,-2.66,-8.96,8.96,9.22,6.15,6.29,6.30,6.31
24.65,-2.58,-8.88,-2.60,-8.89,8.89,9.13,6.32,6.31,6.29,6.30
24.89,-2.49,-8.79,-2.53,-8.83,8.83,9.04,6.48,6.34,6.30,6.30
25.14,-2.42,-8.72,-2.46,-8.76,8.76,8.95,6.65,6.34,6.30,6.29
25.39,-2.37,-8.67,-2.40,-8.70,8.70,8.85,6.82,6.33,6.30,6.30
25.65,-2.31,-8.61,-2.34,-8.63,8.63,8.74,6.99,6.32,6.30,6.30
25.91,-2.26,-8.55,-2.27,-8.57,8.57,8.64,7.16,6.31,6.30,6.29
26.16,-2.21,-8.50,-2.21,-8.51,8.51,8.53,7.33,6.29,6.30,6.29
26.43,-2.15,-8.44,-2.14,-8.44,8.44,8.42,7.50,6.29,6.29,6.29
26.69,-2.10,-8.39,-2.08,-8.37,8.37,8.31,7.67,6.27,6.29,6.29
26.96,-2.05,-8.35,-2.02,-8.31,8.31,8.20,7.84,6.25,6.29,6.30
27.23,-1.98,-8.28,-1.96,-8.24,8.24,8.09,8.00,6.26,6.29,6.29
27.50,-1.91,-8.21,-1.89,-8.18,8.18,7.98,8.17,6.27,6.28,6.29
27.77,-1.85,-8.13,-1.83,-8.11,8.11,7.87,8.32,6.26,6.28,6.28
28.05,-1.77,-8.05,-1.76,-8.05,8.05,7.76,8.48,6.27,6.28,6.28
28.33,-1.69,-7.96,-1.70,-7.98,7.98,7.65,8.62,6.28,6.28,6.27
28.62,-1.61,-7.88,-1.63,-7.91,7.91,7.55,8.76,6.29,6.28,6.27
28.90,-1.53,-7.81,-1.56,-7.84,7.84,7.44,8.89,6.31,6.28,6.28
29.19,-1.47,-7.73,-1.50,-7.77,7.77,7.34,9.00,6.30,6.27,6.26
29.48,-1.42,-7.70,-1.44,-7.71,7.71,7.24,9.11,6.29,6.27,6.28
29.78,-1.38,-7.65,-1.38,-7.65,7.65,7.15,9.20,6.26,6.27,6.27
30.08,-1.32,-7.60,-1.32,-7.59,7.59,7.06,9.28,6.27,6.27,6.28
30.38,-1.26,-7.53,-1.27,-7.53,7.53,6.97,9.34,6.27,6.27,6.27
30.68,-1.20,-7.46,-1.21,-7.48,7.48,6.88,9.39,6.28,6.26,6.26
30.99,-1.14,-7.40,-1.16,-7.42,7.42,6.80,9.42,6.28,6.26,6.26
31.30,-1.10,-7.36,-1.10,-7.36,7.36,6.72,9.44,6.25,6.26,6.26
31.61,-1.06,-7.32,-1.04,-7.30,7.30,6.64,9.44,6.23,6.26,6.26
31.93,-1.02,-7.28,-0.98,-7.23,7.23,6.57,9.42,6.21,6.25,6.25
32.24,-0.96,-7.20,-0.93,-7.17,7.17,6.51,9.39,6.21,6.25,6.24
32.57,-0.90,-7.15,-0.87,-7.11,7.11,6.44,9.34,6.21,6.24,6.25
32.89,-0.83,-7.08,-0.81,-7.05,7.05,6.38,9.28,6.22,6.24,6.25
33.22,-0.75,-6.98,-0.75,-6.99,6.99,6.33,9.20,6.24,6.23,6.23
33.55,-0.65,-6.88,-0.69,-6.92,6.92,6.27,9.11,6.27,6.23,6.23
33.89,-0.56,-6.78,-0.63,-6.86,6.86,6.23,9.01,6.29,6.22,6.22
34.23,-0.52,-6.74,-0.57,-6.79,6.79,6.18,8.90,6.27,6.22,6.22
34.57,-0.51,-6.72,-0.52,-6.73,6.73,6.14,8.78,6.22,6.21,6.21
34.92,-0.50,-6.71,-0.46,-6.67,6.67,6.11,8.66,6.17,6.21,6.21
35.27,-0.45,-6.65,-0.41,-6.62,6.62,6.07,8.52,6.16,6.20,6.20
35.62,-0.39,-6.59,-0.37,-6.57,6.57,6.04,8.39,6.17,6.20,6.20
35.97,-0.33,-6.52,-0.32,-6.52,6.52,6.02,8.25,6.18,6.20,6.19
36.33,-0.26,-6.46,-0.27,-6.47,6.47,6.00,8.10,6.21,6.19,6.20
36.70,-0.19,-6.38,-0.23,-6.42,6.42,5.98,7.96,6.23,6.19,6.18
37.06,-0.13,-6.31,-0.18,-6.37,6.37,5.97,7.81,6.24,6.19,6.18
37.43,-0.13,-6.33,-0.14,-6.33,6.33,5.96,7.66,6.19,6.19,6.20
37.81,-0.14,-6.33,-0.09,-6.28,6.28,5.95,7.52,6.14,6.19,6.19
38.19,-0.10,-6.29,-0.04,-6.23,6.23,5.94,7.37,6.13,6.19,6.19
38.57,-0.02,-6.21,0.01,-6.18,6.18,5.94,7.23,6.16,6.19,6.19
38.95,0.06,-6.14,0.05,-6.14,6.14,5.94,7.08,6.20,6.19,6.19
39.34,0.12,-6.07,0.09,-6.10,6.10,5.94,6.95,6.21,6.19,6.19
39.74,0.17,-6.01,0.13,-6.06,6.06,5.94,6.81,6.22,6.19,6.18
40.14,0.21,-5.98,0.17,-6.01,6.01,5.95,6.67,6.22,6.18,6.19
40.54,0.24,-5.94,0.21,-5.97,5.97,5.95,6.54,6.21,6.18,6.18
40.94,0.27,-5.90,0.25,-5.92,5.92,5.96,6.42,6.19,6.18,6.17
41.35,0.28,-5.89,0.30,-5.87,5.87,5.96,6.30,6.15,6.17,6.17
41.76,0.29,-5.87,0.34,-5.82,5.82,5.96,6.18,6.11,6.16,6.16
42.18,0.33,-5.83,0.38,-5.77,5.77,5.96,6.06,6.10,6.15,6.16
42.60,0.40,-5.74,0.42,-5.72,5.72,5.96,5.95,6.12,6.14,6.14
43.03,0.47,-5.67,0.45,-5.67,5.67,5.96,5.84,6.14,6.13,6.14
43.46,0.51,-5.62,0.49,-5.62,5.62,5.95,5.74,6.13,6.11,6.13
43.90,0.54,-5.56,0.53,-5.57,5.57,5.94,5.64,6.10,6.10,6.10
44.33,0.59,-5.49,0.57,-5.51,5.51,5.92,5.55,6.10,6.09,6.08
44.78,0.64,-5.42,0.61,-5.46,5.46,5.90,5.45,6.10,6.07,6.06
45.23,0.67,-5.38,0.66,-5.40,5.40,5.88,5.37,6.07,6.06,6.05
45.68,0.67,-5.36,0.70,-5.34,5.34,5.85,5.28,6.00,6.04,6.03
46.13,0.70,-5.31,0.75,-5.28,5.28,5.81,5.20,5.98,6.02,6.01
46.60,0.80,-5.21,0.79,-5.22,5.22,5.77,5.13,6.02,6.01,6.01
47.06,0.88,-5.11,0.82,-5.17,5.17,5.72,5.06,6.05,5.99,5.99
47.53,0.87,-5.11,0.86,-5.12,5.12,5.67,4.99,5.99,5.97,5.98
48.01,0.87,-5.11,0.89,-5.06,5.06,5.61,4.92,5.93,5.96,5.97
48.49,0.92,-5.03,0.93,-5.01,5.01,5.55,4.86,5.93,5.94,5.95
48.97,0.97,-4.96,0.97,-4.96,4.96,5.48,4.81,5.92,5.93,5.93
49.46,1.02,-4.89,1.01,-4.90,4.90,5.41,4.75,5.92,5.91,5.90
49.96,1.07,-4.81,1.04,-4.85,4.85,5.33,4.70,5.92,5.89,5.88
50.46,1.07,-4.81,1.08,-4.79,4.79,5.25,4.65,5.86,5.88,5.88
50.96,1.07,-4.79,1.12,-4.74,4.74,5.17,4.60,5.81,5.86,5.86
51.47,1.13,-4.71,1.15,-4.70,4.70,5.08,4.56,5.83,5.85,5.84
51.99,1.20,-4.62,1.18,-4.65,4.65,5.00,4.51,5.85,5.83,5.82
52.51,1.24,-4.58,1.21,-4.60,4.60,4.91,4.47,5.84,5.82,5.81
53.03,1.28,-4.53,1.25,-4.55,4.55,4.82,4.43,5.83,5.80,5.81
53.56,1.28,-4.51,1.28,-4.50,4.50,4.73,4.39,5.78,5.78,5.79
54.10,1.29,-4.48,1.31,-4.46,4.46,4.64,4.36,5.75,5.77,5.77
54.64,1.36,-4.39,1.34,-4.41,4.41,4.55,4.32,5.77,5.76,5.75
55.18,1.39,-4.35,1.37,-4.37,4.37,4.46,4.28,5.76,5.74,5.74
55.74,1.37,-4.35,1.40,-4.33,4.33,4.37,4.25,5.70,5.73,5.72
56.29,1.40,-4.31,1.42,-4.29,4.29,4.28,4.21,5.68,5.71,5.71
56.86,1.46,-4.23,1.45,-4.24,4.24,4.20,4.17,5.70,5.69,5.69
57.42,1.48,-4.18,1.47,-4.20,4.20,4.12,4.14,5.68,5.67,5.66
58.00,1.48,-4.17,1.49,-4.16,4.16,4.03,4.10,5.64,5.65,5.64
58.58,1.54,-4.09,1.52,-4.11,4.11,3.95,4.06,5.64,5.62,5.63
59.16,1.58,-4.03,1.54,-4.05,4.05,3.88,4.02,5.63,5.59,5.61
59.76,1.58,-4.00,1.57,-3.99,3.99,3.80,3.97,5.57,5.56,5.58
60.35,1.57,-3.97,1.60,-3.93,3.93,3.73,3.93,5.49,5.53,5.54
60.96,1.56,-3.94,1.63,-3.86,3.86,3.66,3.88,5.42,5.49,5.50
61.57,1.63,-3.82,1.65,-3.80,3.80,3.59,3.83,5.42,5.45,5.45
62.18,1.68,-3.72,1.68,-3.73,3.73,3.53,3.78,5.41,5.40,5.40
62.80,1.68,-3.68,1.69,-3.67,3.67,3.47,3.72,5.35,5.36,5.35
63.43,1.73,-3.58,1.71,-3.60,3.60,3.41,3.66,5.33,5.31,5.30
64.07,1.80,-3.45,1.73,-3.54,3.54,3.35,3.60,5.33,5.26,5.25
64.71,1.79,-3.41,1.74,-3.47,3.47,3.29,3.54,5.26,5.21,5.20
65.35,1.78,-3.38,1.76,-3.40,3.40,3.23,3.47,5.18,5.16,5.16
66.01,1.78,-3.33,1.78,-3.33,3.33,3.18,3.40,5.11,5.11,5.10
66.67,1.78,-3.27,1.79,-3.26,3.26,3.13,3.33,5.04,5.05,5.05
67.33,1.78,-3.22,1.81,-3.19,3.19,3.07,3.26,4.97,5.00,4.99
68.01,1.78,-3.17,1.82,-3.12,3.12,3.02,3.18,4.90,4.94,4.95
68.69,1.77,-3.12,1.83,-3.06,3.06,2.97,3.11,4.83,4.89,4.89
69.37,1.81,-3.02,1.83,-3.00,3.00,2.92,3.03,4.81,4.83,4.83
70.07,1.88,-2.90,1.84,-2.93,2.93,2.87,2.95,4.81,4.77,4.77
70.77,1.88,-2.84,1.85,-2.86,2.86,2.82,2.87,4.74,4.71,4.72
71.48,1.88,-2.78,1.85,-2.80,2.80,2.77,2.78,4.68,4.65,4.66
72.19,1.88,-2.71,1.86,-2.73,2.73,2.72,2.70,4.60,4.59,4.59
72.91,1.88,-2.65,1.87,-2.65,2.65,2.66,2.61,4.53,4.53,4.53
73.64,1.88,-2.58,1.88,-2.59,2.59,2.61,2.53,4.46,4.46,4.46
74.38,1.88,-2.52,1.88,-2.52,2.52,2.55,2.44,4.40,4.40,4.40
75.12,1.88,-2.45,1.89,-2.45,2.45,2.50,2.36,4.33,4.34,4.33
75.87,1.88,-2.39,1.88,-2.39,2.39,2.44,2.27,4.27,4.27,4.26
76.63,1.88,-2.33,1.88,-2.33,2.33,2.38,2.19,4.21,4.21,4.21
77.40,1.88,-2.27,1.87,-2.28,2.28,2.32,2.10,4.16,4.15,4.15
78.17,1.88,-2.20,1.87,-2.22,2.22,2.25,2.01,4.10,4.09,4.08
78.95,1.88,-2.16,1.87,-2.16,2.16,2.19,1.93,4.04,4.03,4.04
79.74,1.88,-2.10,1.88,-2.09,2.09,2.12,1.84,3.97,3.97,3.97
80.54,1.88,-2.04,1.89,-2.03,2.03,2.05,1.76,3.91,3.92,3.92
81.35,1.88,-1.98,1.89,-1.97,1.97,1.98,1.67,3.85,3.86,3.86
82.16,1.88,-1.92,1.89,-1.91,1.91,1.91,1.59,3.79,3.80,3.80
82.98,1.88,-1.88,1.90,-1.85,1.85,1.84,1.51,3.73,3.75,3.76
83.81,1.88,-1.81,1.91,-1.79,1.79,1.77,1.42,3.66,3.69,3.69
84.65,1.94,-1.69,1.92,-1.72,1.72,1.69,1.34,3.66,3.64,3.63
85.50,1.98,-1.61,1.93,-1.65,1.65,1.61,1.26,3.62,3.58,3.59
86.35,1.99,-1.54,1.95,-1.57,1.57,1.54,1.18,3.56,3.52,3.53
87.22,1.98,-1.49,1.97,-1.49,1.49,1.46,1.10,3.47,3.46,3.47
88.09,1.98,-1.43,1.99,-1.42,1.42,1.38,1.02,3.39,3.40,3.41
88.97,1.96,-1.39,2.00,-1.34,1.34,1.30,0.94,3.30,3.34,3.34
89.86,1.96,-1.32,2.03,-1.26,1.26,1.23,0.86,3.22,3.28,3.28
90.76,2.06,-1.16,2.05,-1.17,1.17,1.15,0.79,3.23,3.22,3.22
91.66,2.09,-1.08,2.08,-1.08,1.08,1.07,0.71,3.17,3.16,3.17
92.58,2.11,-0.99,2.11,-0.99,0.99,0.99,0.63,3.10,3.10,3.09
93.51,2.17,-0.87,2.14,-0.90,0.90,0.91,0.56,3.07,3.04,3.04
94.44,2.20,-0.79,2.16,-0.83,0.83,0.84,0.48,3.02,2.98,2.98
95.39,2.18,-0.75,2.18,-0.74,0.74,0.76,0.41,2.92,2.93,2.93
96.34,2.17,-0.70,2.21,-0.66,0.66,0.68,0.34,2.83,2.87,2.86
97.30,2.19,-0.62,2.24,-0.57,0.57,0.61,0.26,2.76,2.81,2.81
98.28,2.29,-0.46,2.27,-0.48,0.48,0.53,0.19,2.77,2.75,2.75
99.26,2.38,-0.32,2.29,-0.40,0.40,0.46,0.12,2.78,2.69,2.69
100.25,2.36,-0.28,2.31,-0.32,0.32,0.38,0.05,2.68,2.64,2.64
101.25,2.32,-0.26,2.33,-0.25,0.25,0.31,-0.02,2.57,2.58,2.58
102.27,2.30,-0.22,2.34,-0.18,0.18,0.24,-0.09,2.48,2.52,2.52
103.29,2.28,-0.18,2.35,-0.11,0.11,0.17,-0.16,2.39,2.46,2.45
104.32,2.31,-0.10,2.36,-0.04,0.04,0.10,-0.23,2.35,2.40,2.41
105.37,2.43,0.08,2.37,0.02,-0.02,0.03,-0.30,2.40,2.34,2.35
106.42,2.44,0.15,2.37,0.09,-0.09,-0.04,-0.36,2.35,2.28,2.29
107.48,2.41,0.18,2.37,0.15,-0.15,-0.11,-0.43,2.26,2.22,2.22
108.56,2.38,0.22,2.36,0.20,-0.20,-0.18,-0.49,2.18,2.16,2.16
109.64,2.36,0.26,2.35,0.25,-0.25,-0.25,-0.55,2.10,2.09,2.10
110.74,2.34,0.31,2.34,0.31,-0.31,-0.31,-0.61,2.03,2.03,2.03
111.85,2.32,0.33,2.34,0.37,-0.37,-0.38,-0.67,1.95,1.97,1.98
112.97,2.31,0.40,2.34,0.43,-0.43,-0.44,-0.73,1.88,1.91,1.91
114.10,2.31,0.46,2.33,0.48,-0.48,-0.51,-0.79,1.83,1.85,1.85
115.24,2.31,0.51,2.33,0.53,-0.53,-0.57,-0.84,1.78,1.80,1.79
116.39,2.31,0.58,2.32,0.58,-0.58,-0.63,-0.89,1.73,1.74,1.73
117.55,2.31,0.63,2.31,0.62,-0.62,-0.70,-0.94,1.69,1.69,1.68
118.73,2.31,0.68,2.31,0.67,-0.67,-0.76,-0.99,1.64,1.64,1.63
119.92,2.32,0.73,2.32,0.72,-0.72,-0.82,-1.04,1.59,1.59,1.59
121.12,2.33,0.79,2.32,0.77,-0.77,-0.88,-1.08,1.56,1.55,1.54
122.33,2.34,0.84,2.32,0.82,-0.82,-0.94,-1.12,1.52,1.50,1.50
123.55,2.34,0.88,2.32,0.87,-0.87,-1.00,-1.16,1.47,1.46,1.46
124.79,2.35,0.93,2.33,0.92,-0.92,-1.06,-1.20,1.43,1.42,1.42
126.03,2.36,0.98,2.35,0.97,-0.97,-1.11,-1.23,1.39,1.38,1.38
127.29,2.37,1.02,2.36,1.02,-1.02,-1.17,-1.27,1.34,1.34,1.35
128.57,2.37,1.07,2.38,1.08,-1.08,-1.23,-1.30,1.29,1.30,1.30
129.85,2.38,1.12,2.40,1.14,-1.14,-1.29,-1.33,1.24,1.26,1.26
131.15,2.38,1.16,2.42,1.20,-1.20,-1.34,-1.35,1.18,1.22,1.22
132.46,2.39,1.20,2.45,1.26,-1.26,-1.40,-1.38,1.13,1.19,1.18
133.79,2.41,1.26,2.47,1.32,-1.32,-1.45,-1.40,1.09,1.15,1.15
135.12,2.51,1.41,2.49,1.38,-1.38,-1.51,-1.42,1.13,1.11,1.10
136.48,2.57,1.49,2.52,1.44,-1.44,-1.56,-1.44,1.13,1.08,1.08
137.84,2.60,1.57,2.54,1.50,-1.50,-1.61,-1.46,1.10,1.04,1.03
139.22,2.60,1.61,2.56,1.56,-1.56,-1.67,-1.48,1.04,1.00,0.99
140.61,2.61,1.66,2.58,1.61,-1.61,-1.72,-1.50,1.00,0.96,0.95
142.02,2.61,1.68,2.59,1.67,-1.67,-1.77,-1.51,0.94,0.92,0.93
143.44,2.61,1.72,2.61,1.73,-1.73,-1.82,-1.53,0.88,0.88,0.89
144.87,2.61,1.77,2.62,1.78,-1.78,-1.87,-1.54,0.83,0.83,0.84
146.32,2.61,1.82,2.62,1.84,-1.84,-1.92,-1.56,0.77,0.78,0.79
147.78,2.61,1.86,2.63,1.90,-1.90,-1.97,-1.57,0.71,0.72,0.75
149.26,2.61,1.91,2.63,1.96,-1.96,-2.02,-1.59,0.65,0.66,0.69
150.75,2.61,1.99,2.63,2.03,-2.03,-2.07,-1.61,0.58,0.60,0.62
152.26,2.61,2.06,2.63,2.10,-2.10,-2.12,-1.62,0.51,0.53,0.55
153.78,2.61,2.14,2.62,2.17,-2.17,-2.16,-1.64,0.44,0.45,0.47
155.32,2.61,2.22,2.62,2.24,-2.24,-2.21,-1.66,0.36,0.38,0.39
156.88,2.61,2.30,2.61,2.31,-2.31,-2.26,-1.67,0.30,0.30,0.31
158.44,2.61,2.39,2.59,2.37,-2.37,-2.30,-1.69,0.24,0.22,0.22
160.03,2.61,2.48,2.57,2.42,-2.42,-2.35,-1.71,0.19,0.15,0.13
161.63,2.61,2.56,2.54,2.47,-2.47,-2.39,-1.74,0.14,0.07,0.05
163.24,2.61,2.63,2.53,2.52,-2.52,-2.43,-1.76,0.09,0.00,-0.02
164.88,2.58,2.65,2.51,2.57,-2.57,-2.47,-1.78,0.01,-0.06,-0.08
166.53,2.52,2.65,2.50,2.61,-2.61,-2.51,-1.81,-0.09,-0.11,-0.13
168.19,2.43,2.60,2.48,2.64,-2.64,-2.55,-1.84,-0.21,-0.16,-0.18
169.87,2.38,2.60,2.48,2.67,-2.67,-2.59,-1.87,-0.29,-0.20,-0.22
171.57,2.38,2.62,2.47,2.70,-2.70,-2.63,-1.90,-0.32,-0.23,-0.24
173.29,2.36,2.62,2.47,2.72,-2.72,-2.66,-1.93,-0.36,-0.25,-0.26
175.02,2.34,2.61,2.47,2.74,-2.74,-2.70,-1.96,-0.41,-0.27,-0.28
176.77,2.53,2.82,2.48,2.77,-2.77,-2.73,-2.00,-0.24,-0.29,-0.30
178.54,2.58,2.88,2.49,2.79,-2.79,-2.77,-2.03,-0.21,-0.30,-0.31
180.32,2.57,2.87,2.51,2.82,-2.82,-2.80,-2.07,-0.26,-0.31,-0.30
182.13,2.57,2.87,2.54,2.86,-2.86,-2.83,-2.11,-0.29,-0.32,-0.30
183.95,2.58,2.90,2.57,2.90,-2.90,-2.86,-2.15,-0.32,-0.34,-0.32
185.79,2.59,2.91,2.59,2.94,-2.94,-2.89,-2.20,-0.35,-0.35,-0.32
187.65,2.61,2.96,2.62,2.98,-2.98,-2.91,-2.24,-0.37,-0.36,-0.35
189.52,2.62,2.98,2.63,3.01,-3.01,-2.94,-2.29,-0.39,-0.38,-0.36
191.42,2.63,3.02,2.64,3.03,-3.03,-2.96,-2.34,-0.40,-0.39,-0.39
193.33,2.65,3.06,2.64,3.05,-3.05,-2.99,-2.39,-0.40,-0.41,-0.41
195.27,2.67,3.10,2.63,3.06,-3.06,-3.01,-2.44,-0.39,-0.43,-0.43
197.22,2.68,3.13,2.61,3.06,-3.06,-3.03,-2.49,-0.39,-0.46,-0.46
199.19,2.66,3.15,2.60,3.08,-3.08,-3.04,-2.54,-0.42,-0.48,-0.49
201.18,2.60,3.11,2.59,3.09,-3.09,-3.06,-2.59,-0.49,-0.50,-0.51
203.19,2.53,3.06,2.57,3.10,-3.10,-3.08,-2.65,-0.57,-0.53,-0.53
205.23,2.50,3.05,2.56,3.11,-3.11,-3.09,-2.70,-0.61,-0.55,-0.56
207.28,2.50,3.06,2.54,3.12,-3.12,-3.10,-2.76,-0.62,-0.58,-0.56
209.35,2.50,3.09,2.52,3.12,-3.12,-3.11,-2.81,-0.62,-0.60,-0.59
211.44,2.50,3.13,2.51,3.13,-3.13,-3.12,-2.86,-0.63,-0.62,-0.63
213.56,2.50,3.13,2.49,3.13,-3.13,-3.13,-2.92,-0.63,-0.64,-0.64
215.69,2.49,3.14,2.49,3.14,-3.14,-3.13,-2.97,-0.65,-0.65,-0.65
217.85,2.49,3.16,2.48,3.15,-3.15,-3.14,-3.02,-0.66,-0.67,-0.67
220.03,2.48,3.16,2.48,3.16,-3.16,-3.14,-3.07,-0.68,-0.68,-0.68
222.23,2.48,3.19,2.48,3.17,-3.17,-3.14,-3.12,-0.69,-0.69,-0.71
224.45,2.48,3.18,2.48,3.18,-3.18,-3.14,-3.16,-0.70,-0.69,-0.70
226.70,2.48,3.18,2.48,3.18,-3.18,-3.14,-3.21,-0.70,-0.70,-0.70
228.96,2.49,3.19,2.48,3.18,-3.18,-3.13,-3.25,-0.69,-0.70,-0.70
231.25,2.49,3.18,2.48,3.18,-3.18,-3.13,-3.28,-0.69,-0.69,-0.69
233.57,2.50,3.18,2.49,3.17,-3.17,-3.12,-3.32,-0.67,-0.68,-0.68
235.90,2.53,3.20,2.49,3.16,-3.16,-3.11,-3.35,-0.63,-0.67,-0.67
238.26,2.53,3.19,2.50,3.16,-3.16,-3.10,-3.37,-0.63,-0.66,-0.67
240.64,2.47,3.11,2.51,3.15,-3.15,-3.09,-3.39,-0.68,-0.64,-0.65
243.05,2.47,3.09,2.52,3.14,-3.14,-3.08,-3.41,-0.67,-0.62,-0.62
245.48,2.48,3.08,2.52,3.12,-3.12,-3.07,-3.42,-0.64,-0.60,-0.60
247.93,2.51,3.08,2.52,3.10,-3.10,-3.05,-3.42,-0.59,-0.58,-0.57
250.41,2.53,3.08,2.53,3.09,-3.09,-3.03,-3.43,-0.56,-0.56,-0.56
252.92,2.54,3.06,2.53,3.07,-3.07,-3.02,-3.42,-0.53,-0.54,-0.53
255.45,2.56,3.06,2.53,3.04,-3.04,-3.00,-3.41,-0.48,-0.51,-0.50
258.00,2.57,3.05,2.52,3.01,-3.01,-2.98,-3.40,-0.45,-0.49,-0.48
260.58,2.57,3.04,2.52,2.98,-2.98,-2.96,-3.38,-0.41,-0.47,-0.47
263.19,2.56,3.00,2.50,2.95,-2.95,-2.94,-3.36,-0.39,-0.44,-0.44
265.82,2.47,2.89,2.49,2.92,-2.92,-2.91,-3.33,-0.45,-0.42,-0.43
268.48,2.45,2.85,2.49,2.89,-2.89,-2.89,-3.30,-0.44,-0.40,-0.40
271.16,2.46,2.83,2.48,2.85,-2.85,-2.86,-3.26,-0.40,-0.37,-0.37
273.87,2.48,2.84,2.46,2.81,-2.81,-2.84,-3.22,-0.34,-0.35,-0.36
276.61,2.45,2.77,2.44,2.77,-2.77,-2.81,-3.18,-0.32,-0.33,-0.32
279.38,2.38,2.68,2.42,2.72,-2.72,-2.78,-3.14,-0.34,-0.30,-0.30
282.17,2.36,2.63,2.40,2.67,-2.67,-2.76,-3.09,-0.31,-0.27,-0.28
284.99,2.37,2.61,2.38,2.62,-2.62,-2.73,-3.04,-0.25,-0.25,-0.24
287.84,2.37,2.60,2.36,2.58,-2.58,-2.70,-2.99,-0.21,-0.22,-0.23
290.72,2.38,2.57,2.34,2.54,-2.54,-2.67,-2.93,-0.16,-0.19,-0.19
293.63,2.40,2.57,2.33,2.50,-2.50,-2.64,-2.88,-0.10,-0.16,-0.17
296.57,2.37,2.50,2.32,2.46,-2.46,-2.61,-2.82,-0.09,-0.14,-0.13
299.53,2.25,2.36,2.31,2.41,-2.41,-2.58,-2.77,-0.17,-0.11,-0.11
302.53,2.23,2.32,2.29,2.37,-2.37,-2.55,-2.71,-0.15,-0.08,-0.09
305.55,2.24,2.29,2.28,2.34,-2.34,-2.51,-2.66,-0.10,-0.06,-0.05
308.61,2.25,2.28,2.27,2.30,-2.30,-2.48,-2.60,-0.05,-0.04,-0.03
311.69,2.26,2.26,2.26,2.27,-2.27,-2.45,-2.54,-0.01,-0.01,-0.01
314.81,2.27,2.25,2.24,2.23,-2.23,-2.42,-2.49,0.04,0.01,0.02
317.96,2.26,2.22,2.22,2.19,-2.19,-2.38,-2.44,0.07,0.03,0.04
321.14,2.22,2.18,2.20,2.15,-2.15,-2.35,-2.38,0.07,0.05,0.04
324.35,2.17,2.11,2.17,2.11,-2.11,-2.32,-2.33,0.06,0.06,0.06
327.59,2.16,2.08,2.15,2.08,-2.08,-2.28,-2.28,0.08,0.08,0.08
330.87,2.16,2.08,2.14,2.05,-2.05,-2.25,-2.23,0.11,0.09,0.08
334.18,2.16,2.06,2.12,2.02,-2.02,-2.21,-2.18,0.14,0.10,0.10
337.52,2.10,1.99,2.10,1.99,-1.99,-2.18,-2.13,0.11,0.11,0.11
340.90,2.06,1.94,2.07,1.95,-1.95,-2.15,-2.09,0.11,0.12,0.12
344.30,2.03,1.90,2.04,1.92,-1.92,-2.11,-2.04,0.11,0.12,0.13
347.75,1.97,1.84,2.02,1.89,-1.89,-2.08,-2.00,0.08,0.13,0.13
351.23,1.96,1.82,2.00,1.87,-1.87,-2.05,-1.96,0.09,0.13,0.14
354.74,1.96,1.83,1.98,1.85,-1.85,-2.01,-1.92,0.11,0.14,0.13
358.28,1.96,1.82,1.96,1.83,-1.83,-1.98,-1.88,0.13,0.14,0.14
361.87,1.97,1.83,1.94,1.81,-1.81,-1.95,-1.85,0.16,0.14,0.14
365.49,1.97,1.82,1.92,1.78,-1.78,-1.91,-1.81,0.19,0.14,0.15
369.14,1.90,1.76,1.90,1.76,-1.76,-1.88,-1.78,0.13,0.14,0.13
372.83,1.89,1.76,1.89,1.75,-1.75,-1.85,-1.75,0.14,0.14,0.13
376.56,1.90,1.77,1.87,1.74,-1.74,-1.81,-1.72,0.16,0.13,0.13
380.33,1.88,1.74,1.85,1.72,-1.72,-1.78,-1.69,0.16,0.13,0.14
384.13,1.83,1.69,1.83,1.71,-1.71,-1.75,-1.66,0.12,0.13,0.14
387.97,1.81,1.68,1.81,1.69,-1.69,-1.72,-1.63,0.12,0.12,0.12
391.85,1.76,1.65,1.79,1.67,-1.67,-1.68,-1.61,0.09,0.12,0.11
395.77,1.73,1.61,1.76,1.65,-1.65,-1.65,-1.59,0.08,0.11,0.12
399.73,1.72,1.61,1.73,1.62,-1.62,-1.62,-1.56,0.10,0.10,0.11
403.72,1.72,1.61,1.69,1.59,-1.59,-1.59,-1.54,0.13,0.10,0.11
407.76,1.71,1.61,1.66,1.57,-1.57,-1.56,-1.52,0.14,0.09,0.10
411.84,1.67,1.57,1.63,1.54,-1.54,-1.53,-1.50,0.13,0.09,0.09
415.96,1.62,1.53,1.61,1.52,-1.52,-1.50,-1.48,0.10,0.09,0.09
420.12,1.61,1.52,1.58,1.49,-1.49,-1.47,-1.47,0.12,0.09,0.09
424.32,1.55,1.46,1.56,1.47,-1.47,-1.44,-1.45,0.08,0.10,0.09
428.56,1.53,1.43,1.55,1.45,-1.45,-1.41,-1.43,0.08,0.11,0.10
432.85,1.52,1.41,1.55,1.43,-1.43,-1.38,-1.42,0.09,0.12,0.11
437.18,1.48,1.36,1.55,1.41,-1.41,-1.35,-1.40,0.07,0.14,0.12
441.55,1.50,1.34,1.56,1.39,-1.39,-1.32,-1.39,0.10,0.17,0.16
445.96,1.54,1.35,1.57,1.37,-1.37,-1.29,-1.37,0.16,0.20,0.19
450.42,1.60,1.38,1.59,1.35,-1.35,-1.26,-1.36,0.25,0.23,0.21
454.93,1.62,1.36,1.61,1.34,-1.34,-1.23,-1.34,0.28,0.28,0.26
459.48,1.62,1.31,1.64,1.32,-1.32,-1.21,-1.33,0.30,0.32,0.31
464.07,1.68,1.32,1.67,1.30,-1.30,-1.18,-1.31,0.38,0.37,0.36
468.71,1.73,1.31,1.70,1.28,-1.28,-1.15,-1.29,0.45,0.41,0.42
473.40,1.79,1.33,1.73,1.26,-1.26,-1.12,-1.28,0.52,0.46,0.46
478.13,1.79,1.27,1.75,1.24,-1.24,-1.10,-1.26,0.55,0.51,0.52
482.91,1.80,1.24,1.78,1.22,-1.22,-1.07,-1.24,0.58,0.56,0.56
487.74,1.76,1.16,1.80,1.20,-1.20,-1.04,-1.23,0.56,0.60,0.60
492.62,1.77,1.12,1.80,1.17,-1.17,-1.02,-1.21,0.60,0.63,0.65
497.55,1.80,1.13,1.80,1.14,-1.14,-0.99,-1.19,0.66,0.66,0.67
502.52,1.82,1.12,1.79,1.11,-1.11,-0.97,-1.17,0.71,0.69,0.70
507.55,1.77,1.06,1.78,1.08,-1.08,-0.94,-1.15,0.69,0.70,0.71
512.62,1.76,1.04,1.76,1.05,-1.05,-0.92,-1.12,0.71,0.70,0.71
517.75,1.77,1.04,1.73,1.03,-1.03,-0.89,-1.10,0.74,0.70,0.72
522.93,1.75,1.03,1.69,1.00,-1.00,-0.87,-1.08,0.74,0.69,0.71
528.16,1.67,0.99,1.65,0.99,-0.99,-0.84,-1.05,0.68,0.67,0.68
533.44,1.64,0.99,1.61,0.97,-0.97,-0.82,-1.03,0.67,0.64,0.65
