frequency,raw,error,smoothed,error_smoothed,equalization,parametric_eq,fixed_band_eq,equalized_raw,equalized_smoothed,target
20.00,3.32,-2.58,3.34,-2.59,2.59,2.27,0.10,5.90,5.93,5.90
20.20,3.42,-2.53,3.44,-2.53,2.53,2.25,0.11,5.94,5.97,5.95
20.40,3.52,-2.48,3.53,-2.47,2.47,2.23,0.11,5.99,6.00,6.00
20.61,3.61,-2.41,3.62,-2.41,2.41,2.21,0.12,6.02,6.03,6.03
20.81,3.72,-2.36,3.71,-2.35,2.35,2.17,0.12,6.07,6.06,6.08
21.02,3.82,-2.30,3.80,-2.29,2.29,2.14,0.13,6.10,6.09,6.12
21.23,3.91,-2.23,3.89,-2.23,2.23,2.09,0.14,6.13,6.11,6.14
21.44,4.01,-2.15,3.97,-2.16,2.16,2.04,0.14,6.17,6.14,6.16
21.66,4.09,-2.08,4.06,-2.10,2.10,1.99,0.15,6.19,6.16,6.17
21.87,4.20,-1.99,4.14,-2.03,2.03,1.93,0.15,6.23,6.17,6.18
22.09,4.27,-1.94,4.23,-1.96,1.96,1.87,0.16,6.23,6.19,6.20
22.31,4.33,-1.89,4.31,-1.90,1.90,1.80,0.17,6.22,6.20,6.21
22.54,4.38,-1.83,4.38,-1.83,1.83,1.73,0.18,6.21,6.21,6.21
22.76,4.45,-1.77,4.45,-1.76,1.76,1.66,0.18,6.20,6.21,6.21
22.99,4.51,-1.70,4.53,-1.69,1.69,1.59,0.19,6.19,6.21,6.20
23.22,4.58,-1.62,4.60,-1.61,1.61,1.51,0.20,6.19,6.21,6.20
23.45,4.65,-1.55,4.68,-1.54,1.54,1.44,0.20,6.18,6.21,6.20
23.69,4.71,-1.49,4.75,-1.46,1.46,1.36,0.21,6.18,6.22,6.21
23.92,4.79,-1.42,4.82,-1.39,1.39,1.29,0.22,6.18,6.22,6.21
24.16,4.88,-1.34,4.90,-1.32,1.32,1.21,0.23,6.19,6.21,6.22
24.40,4.98,-1.25,4.97,-1.24,1.24,1.14,0.23,6.22,6.21,6.23
24.65,5.07,-1.14,5.05,-1.17,1.17,1.06,0.24,6.24,6.21,6.21
24.89,5.18,-1.04,5.12,-1.09,1.09,0.99,0.25,6.27,6.21,6.21
25.14,5.25,-0.97,5.20,-1.02,1.02,0.92,0.26,6.26,6.21,6.21
25.39,5.30,-0.93,5.27,-0.95,0.95,0.84,0.26,6.24,6.22,6.22
25.65,5.35,-0.88,5.34,-0.88,0.88,0.77,0.27,6.22,6.22,6.22
25.91,5.39,-0.82,5.41,-0.80,0.80,0.70,0.28,6.20,6.22,6.21
26.16,5.46,-0.75,5.48,-0.74,0.74,0.64,0.28,6.19,6.21,6.21
26.43,5.52,-0.68,5.54,-0.67,0.67,0.57,0.29,6.19,6.21,6.21
26.69,5.59,-0.62,5.61,-0.60,0.60,0.51,0.29,6.19,6.21,6.21
26.96,5.65,-0.56,5.67,-0.54,0.54,0.44,0.30,6.19,6.21,6.21
27.23,5.72,-0.49,5.73,-0.48,0.48,0.38,0.30,6.20,6.20,6.21
27.50,5.80,-0.42,5.79,-0.42,0.42,0.32,0.30,6.21,6.20,6.21
27.77,5.86,-0.34,5.85,-0.35,0.35,0.26,0.30,6.21,6.20,6.20
28.05,5.93,-0.27,5.91,-0.29,0.29,0.20,0.30,6.21,6.20,6.20
28.33,5.99,-0.20,5.98,-0.22,0.22,0.14,0.30,6.21,6.20,6.19
28.62,6.03,-0.15,6.04,-0.15,0.15,0.09,0.30,6.19,6.20,6.19
28.90,6.10,-0.10,6.10,-0.09,0.09,0.03,0.30,6.19,6.19,6.19
29.19,6.16,-0.03,6.16,-0.03,0.03,-0.02,0.29,6.18,6.19,6.18
29.48,6.22,0.02,6.22,0.03,-0.03,-0.07,0.28,6.18,6.19,6.20
29.78,6.27,0.09,6.28,0.09,-0.09,-0.13,0.27,6.18,6.19,6.19
30.08,6.33,0.14,6.33,0.15,-0.15,-0.18,0.26,6.19,6.19,6.20
30.38,6.39,0.21,6.39,0.21,-0.21,-0.23,0.25,6.19,6.18,6.18
30.68,6.46,0.27,6.44,0.26,-0.26,-0.27,0.24,6.19,6.18,6.18
30.99,6.51,0.34,6.50,0.32,-0.32,-0.32,0.22,6.20,6.18,6.18
31.30,6.55,0.38,6.55,0.37,-0.37,-0.37,0.21,6.19,6.18,6.18
31.61,6.60,0.42,6.60,0.42,-0.42,-0.42,0.19,6.17,6.17,6.17
31.93,6.63,0.46,6.65,0.48,-0.48,-0.46,0.16,6.15,6.17,6.17
32.24,6.69,0.53,6.70,0.54,-0.54,-0.51,0.14,6.15,6.17,6.16
32.57,6.74,0.58,6.75,0.59,-0.59,-0.55,0.12,6.15,6.16,6.17
32.89,6.81,0.64,6.80,0.64,-0.64,-0.59,0.09,6.16,6.16,6.16
33.22,6.85,0.70,6.84,0.69,-0.69,-0.64,0.06,6.15,6.15,6.15
33.55,6.89,0.74,6.89,0.74,-0.74,-0.68,0.03,6.14,6.15,6.15
33.89,6.92,0.78,6.93,0.79,-0.79,-0.72,-0.00,6.13,6.14,6.13
34.23,6.98,0.83,6.97,0.84,-0.84,-0.77,-0.04,6.14,6.14,6.14
34.57,7.04,0.91,7.02,0.89,-0.89,-0.81,-0.08,6.15,6.13,6.13
34.92,7.10,0.98,7.06,0.94,-0.94,-0.85,-0.11,6.17,6.13,6.12
35.27,7.13,1.01,7.10,0.98,-0.98,-0.89,-0.15,6.14,6.12,6.12
35.62,7.14,1.02,7.15,1.03,-1.03,-0.93,-0.19,6.11,6.12,6.12
35.97,7.14,1.02,7.19,1.07,-1.07,-0.97,-0.24,6.06,6.11,6.11
36.33,7.20,1.08,7.23,1.12,-1.12,-1.01,-0.28,6.08,6.11,6.12
36.70,7.26,1.16,7.27,1.16,-1.16,-1.05,-0.32,6.11,6.11,6.10
37.06,7.33,1.23,7.31,1.20,-1.20,-1.09,-0.37,6.13,6.11,6.10
37.43,7.36,1.24,7.34,1.24,-1.24,-1.13,-0.42,6.12,6.11,6.11
37.81,7.39,1.28,7.38,1.27,-1.27,-1.17,-0.47,6.11,6.11,6.11
38.19,7.42,1.31,7.41,1.31,-1.31,-1.21,-0.52,6.11,6.11,6.10
38.57,7.47,1.36,7.45,1.34,-1.34,-1.25,-0.57,6.13,6.11,6.11
38.95,7.52,1.40,7.48,1.38,-1.38,-1.29,-0.62,6.14,6.11,6.11
39.34,7.54,1.43,7.52,1.42,-1.42,-1.33,-0.67,6.12,6.11,6.11
39.74,7.55,1.44,7.56,1.46,-1.46,-1.37,-0.73,6.09,6.10,6.10
40.14,7.57,1.46,7.60,1.50,-1.50,-1.41,-0.78,6.07,6.10,6.10
40.54,7.60,1.50,7.63,1.53,-1.53,-1.45,-0.84,6.06,6.10,6.10
40.94,7.63,1.53,7.66,1.56,-1.56,-1.48,-0.89,6.06,6.09,6.09
41.35,7.68,1.59,7.68,1.60,-1.60,-1.52,-0.95,6.08,6.09,6.08
41.76,7.73,1.65,7.71,1.63,-1.63,-1.56,-1.01,6.10,6.08,6.08
42.18,7.77,1.69,7.73,1.66,-1.66,-1.60,-1.07,6.10,6.07,6.08
42.60,7.80,1.73,7.75,1.70,-1.70,-1.64,-1.13,6.10,6.06,6.06
43.03,7.83,1.77,7.78,1.74,-1.74,-1.68,-1.19,6.09,6.04,6.05
43.46,7.83,1.78,7.80,1.77,-1.77,-1.72,-1.25,6.05,6.03,6.05
43.90,7.83,1.81,7.83,1.81,-1.81,-1.76,-1.32,6.02,6.02,6.02
44.33,7.83,1.83,7.85,1.85,-1.85,-1.80,-1.38,5.98,6.00,6.00
44.78,7.83,1.85,7.88,1.89,-1.89,-1.84,-1.45,5.94,5.99,5.98
45.23,7.85,1.88,7.90,1.93,-1.93,-1.88,-1.51,5.92,5.97,5.97
45.68,7.90,1.95,7.92,1.97,-1.97,-1.92,-1.58,5.93,5.96,5.95
46.13,7.94,2.01,7.95,2.01,-2.01,-1.97,-1.65,5.93,5.94,5.93
46.60,7.98,2.06,7.97,2.05,-2.05,-2.01,-1.72,5.94,5.92,5.93
47.06,8.03,2.12,7.99,2.09,-2.09,-2.05,-1.79,5.94,5.91,5.91
47.53,8.03,2.13,8.02,2.13,-2.13,-2.09,-1.86,5.90,5.89,5.89
48.01,8.03,2.13,8.04,2.16,-2.16,-2.13,-1.93,5.86,5.87,5.89
48.49,8.08,2.21,8.06,2.20,-2.20,-2.17,-2.01,5.88,5.86,5.87
48.97,8.13,2.28,8.07,2.23,-2.23,-2.21,-2.08,5.89,5.84,5.85
49.46,8.13,2.30,8.09,2.26,-2.26,-2.26,-2.15,5.86,5.83,5.82
49.96,8.13,2.33,8.10,2.29,-2.29,-2.30,-2.23,5.83,5.81,5.80
50.46,8.13,2.33,8.12,2.32,-2.32,-2.34,-2.30,5.80,5.80,5.80
50.96,8.13,2.35,8.13,2.35,-2.35,-2.38,-2.38,5.78,5.78,5.78
51.47,8.13,2.37,8.15,2.38,-2.38,-2.42,-2.45,5.75,5.77,5.75
51.99,8.13,2.39,8.16,2.41,-2.41,-2.47,-2.53,5.71,5.75,5.74
52.51,8.13,2.39,8.18,2.44,-2.44,-2.51,-2.61,5.68,5.73,5.73
53.03,8.13,2.40,8.20,2.48,-2.48,-2.55,-2.68,5.65,5.72,5.73
53.56,8.18,2.47,8.21,2.51,-2.51,-2.60,-2.75,5.66,5.70,5.71
54.10,8.23,2.54,8.23,2.54,-2.54,-2.64,-2.83,5.69,5.69,5.69
54.64,8.29,2.61,8.25,2.57,-2.57,-2.68,-2.90,5.71,5.68,5.67
55.18,8.33,2.66,8.26,2.60,-2.60,-2.73,-2.97,5.72,5.66,5.66
55.74,8.33,2.68,8.28,2.64,-2.64,-2.77,-3.04,5.69,5.65,5.64
56.29,8.33,2.70,8.30,2.67,-2.67,-2.82,-3.11,5.66,5.63,5.63
56.86,8.33,2.72,8.31,2.70,-2.70,-2.86,-3.17,5.62,5.61,5.61
57.42,8.33,2.75,8.32,2.73,-2.73,-2.90,-3.24,5.59,5.59,5.58
58.00,8.33,2.76,8.33,2.77,-2.77,-2.95,-3.30,5.56,5.57,5.56
58.58,8.33,2.78,8.34,2.80,-2.80,-2.99,-3.35,5.53,5.54,5.55
59.16,8.33,2.80,8.33,2.82,-2.82,-3.04,-3.41,5.50,5.51,5.53
59.76,8.33,2.83,8.33,2.85,-2.85,-3.08,-3.46,5.48,5.48,5.50
60.35,8.33,2.87,8.32,2.88,-2.88,-3.12,-3.51,5.45,5.44,5.45
60.96,8.33,2.91,8.32,2.92,-2.92,-3.17,-3.55,5.41,5.41,5.42
61.57,8.33,2.96,8.33,2.96,-2.96,-3.21,-3.59,5.36,5.37,5.37
62.18,8.33,3.00,8.34,3.02,-3.02,-3.26,-3.63,5.31,5.32,5.32
62.80,8.33,3.05,8.35,3.07,-3.07,-3.30,-3.66,5.25,5.28,5.27
63.43,8.33,3.10,8.36,3.13,-3.13,-3.35,-3.69,5.20,5.23,5.22
64.07,8.33,3.15,8.36,3.18,-3.18,-3.39,-3.71,5.14,5.18,5.17
64.71,8.33,3.21,8.37,3.24,-3.24,-3.44,-3.74,5.08,5.13,5.12
65.35,8.37,3.29,8.37,3.30,-3.30,-3.48,-3.75,5.07,5.08,5.08
66.01,8.45,3.42,8.38,3.35,-3.35,-3.52,-3.77,5.09,5.02,5.02
66.67,8.44,3.47,8.38,3.41,-3.41,-3.57,-3.78,5.03,4.97,4.97
67.33,8.44,3.52,8.38,3.46,-3.46,-3.61,-3.79,4.98,4.92,4.91
68.01,8.45,3.58,8.38,3.52,-3.52,-3.65,-3.80,4.93,4.86,4.87
68.69,8.39,3.58,8.38,3.57,-3.57,-3.70,-3.81,4.81,4.81,4.81
69.37,8.34,3.58,8.38,3.63,-3.63,-3.74,-3.81,4.71,4.75,4.75
70.07,8.32,3.62,8.38,3.68,-3.68,-3.78,-3.81,4.63,4.69,4.69
70.77,8.33,3.68,8.37,3.74,-3.74,-3.83,-3.81,4.59,4.63,4.64
71.48,8.33,3.74,8.36,3.79,-3.79,-3.87,-3.82,4.54,4.57,4.58
72.19,8.33,3.82,8.35,3.84,-3.84,-3.91,-3.82,4.49,4.51,4.51
72.91,8.33,3.88,8.33,3.89,-3.89,-3.95,-3.82,4.44,4.44,4.44
73.64,8.33,3.94,8.32,3.94,-3.94,-4.00,-3.82,4.39,4.38,4.38
74.38,8.35,4.03,8.30,3.99,-3.99,-4.04,-3.82,4.36,4.32,4.32
75.12,8.36,4.11,8.29,4.03,-4.03,-4.08,-3.82,4.32,4.25,4.25
75.87,8.31,4.12,8.27,4.08,-4.08,-4.12,-3.82,4.22,4.19,4.18
76.63,8.26,4.13,8.26,4.13,-4.13,-4.16,-3.82,4.12,4.13,4.12
77.40,8.23,4.16,8.25,4.18,-4.18,-4.20,-3.83,4.05,4.07,4.07
78.17,8.23,4.23,8.23,4.22,-4.22,-4.24,-3.84,4.01,4.01,4.00
78.95,8.23,4.27,8.21,4.26,-4.26,-4.27,-3.85,3.96,3.95,3.95
79.74,8.22,4.33,8.20,4.30,-4.30,-4.31,-3.86,3.92,3.89,3.89
80.54,8.15,4.31,8.18,4.35,-4.35,-4.35,-3.87,3.80,3.84,3.84
81.35,8.10,4.32,8.17,4.39,-4.39,-4.39,-3.89,3.70,3.78,3.78
82.16,8.12,4.39,8.16,4.43,-4.43,-4.42,-3.91,3.68,3.72,3.72
82.98,8.13,4.45,8.14,4.47,-4.47,-4.46,-3.93,3.65,3.67,3.68
83.81,8.13,4.52,8.13,4.51,-4.51,-4.50,-3.95,3.61,3.61,3.61
84.65,8.13,4.57,8.12,4.56,-4.56,-4.53,-3.98,3.56,3.55,3.55
85.50,8.13,4.62,8.10,4.61,-4.61,-4.56,-4.01,3.52,3.50,3.50
86.35,8.13,4.68,8.09,4.65,-4.65,-4.60,-4.04,3.48,3.44,3.44
87.22,8.13,4.74,8.06,4.68,-4.68,-4.63,-4.08,3.44,3.38,3.38
88.09,8.12,4.79,8.04,4.72,-4.72,-4.66,-4.12,3.39,3.32,3.32
88.97,8.03,4.76,8.03,4.77,-4.77,-4.70,-4.16,3.26,3.26,3.26
89.86,7.97,4.76,8.02,4.82,-4.82,-4.73,-4.21,3.15,3.20,3.20
90.76,7.94,4.80,8.00,4.86,-4.86,-4.76,-4.26,3.08,3.14,3.14
91.66,7.94,4.85,7.97,4.88,-4.88,-4.79,-4.31,3.05,3.08,3.09
92.58,7.94,4.92,7.93,4.91,-4.91,-4.82,-4.37,3.03,3.02,3.01
93.51,7.91,4.95,7.90,4.93,-4.93,-4.84,-4.43,2.97,2.96,2.96
94.44,7.84,4.93,7.86,4.96,-4.96,-4.87,-4.49,2.88,2.90,2.90
95.39,7.80,4.95,7.83,4.99,-4.99,-4.90,-4.55,2.81,2.84,2.85
96.34,7.84,5.05,7.79,5.01,-5.01,-4.93,-4.62,2.83,2.79,2.78
97.30,7.87,5.14,7.75,5.02,-5.02,-4.95,-4.69,2.84,2.73,2.73
98.28,7.82,5.15,7.71,5.04,-5.04,-4.98,-4.76,2.77,2.67,2.67
99.26,7.64,5.02,7.68,5.07,-5.07,-5.00,-4.84,2.57,2.61,2.61
100.25,7.54,4.98,7.64,5.09,-5.09,-5.02,-4.92,2.45,2.55,2.56
101.25,7.56,5.06,7.60,5.11,-5.11,-5.05,-4.99,2.45,2.50,2.50
102.27,7.56,5.11,7.56,5.12,-5.12,-5.07,-5.07,2.43,2.44,2.44
103.29,7.54,5.16,7.52,5.14,-5.14,-5.09,-5.16,2.39,2.38,2.37
104.32,7.52,5.19,7.48,5.16,-5.16,-5.11,-5.24,2.36,2.32,2.33
105.37,7.44,5.17,7.44,5.18,-5.18,-5.13,-5.32,2.26,2.26,2.27
106.42,7.32,5.11,7.40,5.20,-5.20,-5.15,-5.40,2.11,2.20,2.21
107.48,7.32,5.17,7.35,5.22,-5.22,-5.17,-5.48,2.10,2.14,2.14
108.56,7.36,5.28,7.31,5.24,-5.24,-5.19,-5.57,2.12,2.08,2.07
109.64,7.37,5.36,7.28,5.27,-5.27,-5.21,-5.64,2.11,2.01,2.02
110.74,7.26,5.31,7.25,5.30,-5.30,-5.23,-5.72,1.96,1.95,1.95
111.85,7.18,5.27,7.20,5.31,-5.31,-5.24,-5.80,1.86,1.89,1.90
112.97,7.16,5.33,7.15,5.32,-5.32,-5.26,-5.87,1.84,1.83,1.83
114.10,7.14,5.37,7.10,5.33,-5.33,-5.28,-5.93,1.81,1.77,1.77
115.24,7.03,5.31,7.06,5.34,-5.34,-5.29,-6.00,1.68,1.72,1.71
116.39,7.04,5.39,7.01,5.34,-5.34,-5.31,-6.06,1.69,1.66,1.65
117.55,6.99,5.38,6.96,5.35,-5.35,-5.32,-6.11,1.64,1.61,1.60
118.73,6.86,5.31,6.91,5.35,-5.35,-5.34,-6.15,1.50,1.56,1.55
119.92,6.87,5.35,6.86,5.35,-5.35,-5.35,-6.19,1.52,1.51,1.51
121.12,6.81,5.35,6.81,5.35,-5.35,-5.37,-6.23,1.46,1.46,1.46
122.33,6.75,5.33,6.78,5.36,-5.36,-5.38,-6.25,1.39,1.42,1.41
123.55,6.70,5.31,6.74,5.36,-5.36,-5.39,-6.27,1.33,1.38,1.38
124.79,6.70,5.36,6.70,5.36,-5.36,-5.41,-6.28,1.33,1.34,1.34
126.03,6.70,5.40,6.65,5.36,-5.36,-5.42,-6.28,1.34,1.30,1.30
127.29,6.58,5.31,6.61,5.35,-5.35,-5.43,-6.27,1.22,1.26,1.27
128.57,6.53,5.31,6.57,5.35,-5.35,-5.44,-6.26,1.17,1.22,1.22
129.85,6.60,5.42,6.53,5.35,-5.35,-5.45,-6.24,1.24,1.18,1.18
131.15,6.60,5.45,6.50,5.36,-5.36,-5.46,-6.21,1.24,1.14,1.14
132.46,6.54,5.43,6.47,5.36,-5.36,-5.47,-6.18,1.17,1.10,1.10
133.79,6.46,5.39,6.44,5.37,-5.37,-5.49,-6.14,1.08,1.07,1.07
135.12,6.41,5.39,6.41,5.38,-5.38,-5.50,-6.09,1.03,1.03,1.02
136.48,6.27,5.27,6.39,5.40,-5.40,-5.51,-6.04,0.87,1.00,1.00
137.84,6.28,5.32,6.37,5.41,-5.41,-5.52,-5.98,0.86,0.96,0.95
139.22,6.32,5.41,6.35,5.43,-5.43,-5.52,-5.92,0.88,0.92,0.91
140.61,6.35,5.48,6.34,5.46,-5.46,-5.53,-5.86,0.89,0.88,0.87
142.02,6.35,5.50,6.33,5.49,-5.49,-5.54,-5.79,0.86,0.84,0.84
143.44,6.35,5.54,6.32,5.52,-5.52,-5.55,-5.73,0.82,0.80,0.80
144.87,6.35,5.59,6.33,5.58,-5.58,-5.56,-5.66,0.76,0.75,0.76
146.32,6.35,5.64,6.36,5.66,-5.66,-5.57,-5.58,0.69,0.70,0.71
147.78,6.35,5.68,6.37,5.73,-5.73,-5.58,-5.51,0.61,0.64,0.67
149.26,6.35,5.73,6.39,5.81,-5.81,-5.58,-5.44,0.54,0.58,0.61
150.75,6.35,5.81,6.39,5.88,-5.88,-5.59,-5.37,0.47,0.52,0.54
152.26,6.35,5.88,6.39,5.95,-5.95,-5.60,-5.30,0.40,0.44,0.46
153.78,6.35,5.96,6.38,6.01,-6.01,-5.60,-5.23,0.33,0.37,0.39
155.32,6.35,6.04,6.35,6.06,-6.06,-5.61,-5.16,0.29,0.30,0.31
156.88,6.40,6.17,6.30,6.08,-6.08,-5.61,-5.10,0.31,0.22,0.23
158.44,6.45,6.31,6.23,6.09,-6.09,-5.61,-5.03,0.36,0.14,0.14
160.03,6.37,6.32,6.13,6.07,-6.07,-5.62,-4.97,0.29,0.06,0.05
161.63,6.05,6.08,6.03,6.04,-6.04,-5.62,-4.92,0.01,-0.01,-0.03
163.24,5.86,5.96,5.91,5.98,-5.98,-5.62,-4.86,-0.13,-0.08,-0.10
164.88,5.83,5.98,5.78,5.91,-5.91,-5.62,-4.81,-0.09,-0.14,-0.16
166.53,5.71,5.92,5.64,5.84,-5.84,-5.62,-4.76,-0.13,-0.19,-0.21
168.19,5.56,5.81,5.50,5.74,-5.74,-5.62,-4.72,-0.19,-0.24,-0.26
169.87,5.35,5.66,5.35,5.63,-5.63,-5.62,-4.67,-0.28,-0.28,-0.30
171.57,5.06,5.38,5.21,5.52,-5.52,-5.62,-4.64,-0.47,-0.31,-0.32
173.29,4.92,5.26,5.09,5.42,-5.42,-5.61,-4.60,-0.51,-0.34,-0.35
175.02,4.86,5.21,4.98,5.34,-5.34,-5.61,-4.57,-0.48,-0.36,-0.36
176.77,4.85,5.22,4.90,5.28,-5.28,-5.60,-4.54,-0.43,-0.37,-0.38
178.54,4.80,5.18,4.85,5.24,-5.24,-5.59,-4.52,-0.44,-0.38,-0.39
180.32,4.80,5.18,4.82,5.22,-5.22,-5.58,-4.50,-0.42,-0.39,-0.39
182.13,4.80,5.18,4.80,5.21,-5.21,-5.57,-4.48,-0.41,-0.41,-0.38
183.95,4.77,5.17,4.79,5.21,-5.21,-5.56,-4.47,-0.44,-0.42,-0.40
185.79,4.69,5.09,4.80,5.23,-5.23,-5.54,-4.46,-0.54,-0.43,-0.41
187.65,4.77,5.20,4.81,5.26,-5.26,-5.52,-4.45,-0.49,-0.44,-0.43
189.52,4.92,5.36,4.83,5.29,-5.29,-5.50,-4.45,-0.37,-0.46,-0.45
191.42,4.97,5.44,4.84,5.31,-5.31,-5.48,-4.45,-0.35,-0.47,-0.47
193.33,4.98,5.47,4.83,5.33,-5.33,-5.46,-4.45,-0.35,-0.49,-0.49
195.27,4.89,5.40,4.82,5.33,-5.33,-5.43,-4.45,-0.45,-0.51,-0.52
197.22,4.81,5.34,4.79,5.33,-5.33,-5.40,-4.46,-0.53,-0.54,-0.54
199.19,4.83,5.39,4.77,5.33,-5.33,-5.37,-4.47,-0.50,-0.56,-0.57
201.18,4.81,5.39,4.73,5.31,-5.31,-5.34,-4.48,-0.51,-0.59,-0.59
203.19,4.69,5.29,4.68,5.29,-5.29,-5.30,-4.49,-0.60,-0.61,-0.61
205.23,4.57,5.20,4.62,5.25,-5.25,-5.26,-4.51,-0.69,-0.63,-0.64
207.28,4.48,5.12,4.54,5.20,-5.20,-5.22,-4.52,-0.73,-0.66,-0.65
209.35,4.38,5.05,4.46,5.14,-5.14,-5.18,-4.54,-0.76,-0.68,-0.67
211.44,4.34,5.05,4.38,5.08,-5.08,-5.13,-4.55,-0.74,-0.70,-0.71
213.56,4.32,5.03,4.30,5.02,-5.02,-5.08,-4.57,-0.71,-0.72,-0.72
215.69,4.28,5.01,4.23,4.97,-4.97,-5.02,-4.58,-0.69,-0.74,-0.73
217.85,4.22,4.96,4.15,4.90,-4.90,-4.97,-4.60,-0.69,-0.75,-0.75
220.03,4.10,4.86,4.07,4.83,-4.83,-4.91,-4.61,-0.74,-0.76,-0.76
222.23,3.99,4.77,4.00,4.77,-4.77,-4.84,-4.62,-0.78,-0.77,-0.79
224.45,3.92,4.70,3.94,4.71,-4.71,-4.78,-4.62,-0.80,-0.78,-0.78
226.70,3.85,4.63,3.89,4.67,-4.67,-4.71,-4.62,-0.82,-0.78,-0.79
228.96,3.86,4.63,3.86,4.63,-4.63,-4.63,-4.62,-0.78,-0.78,-0.78
231.25,3.86,4.63,3.83,4.60,-4.60,-4.56,-4.62,-0.75,-0.77,-0.77
233.57,3.80,4.56,3.80,4.56,-4.56,-4.48,-4.60,-0.77,-0.76,-0.76
235.90,3.66,4.41,3.78,4.53,-4.53,-4.39,-4.58,-0.87,-0.75,-0.76
238.26,3.57,4.31,3.76,4.50,-4.50,-4.31,-4.56,-0.93,-0.74,-0.75
240.64,3.62,4.34,3.74,4.46,-4.46,-4.22,-4.53,-0.85,-0.72,-0.73
243.05,3.72,4.41,3.72,4.42,-4.42,-4.13,-4.49,-0.71,-0.70,-0.70
245.48,3.79,4.46,3.69,4.38,-4.38,-4.03,-4.44,-0.59,-0.68,-0.68
247.93,3.77,4.41,3.66,4.32,-4.32,-3.93,-4.39,-0.55,-0.66,-0.65
250.41,3.77,4.40,3.60,4.24,-4.24,-3.83,-4.33,-0.48,-0.64,-0.64
252.92,3.70,4.30,3.54,4.16,-4.16,-3.72,-4.26,-0.46,-0.62,-0.61
255.45,3.52,4.10,3.47,4.06,-4.06,-3.61,-4.18,-0.55,-0.59,-0.59
258.00,3.39,3.95,3.38,3.95,-3.95,-3.50,-4.09,-0.57,-0.57,-0.56
260.58,3.33,3.88,3.29,3.83,-3.83,-3.39,-4.00,-0.51,-0.55,-0.55
263.19,3.17,3.69,3.17,3.69,-3.69,-3.27,-3.89,-0.53,-0.52,-0.52
265.82,2.94,3.44,3.03,3.53,-3.53,-3.15,-3.78,-0.59,-0.50,-0.51
268.48,2.77,3.25,2.86,3.33,-3.33,-3.03,-3.67,-0.57,-0.48,-0.49
271.16,2.66,3.11,2.67,3.13,-3.13,-2.90,-3.54,-0.47,-0.46,-0.45
273.87,2.54,2.97,2.49,2.92,-2.92,-2.77,-3.41,-0.38,-0.43,-0.44
276.61,2.37,2.77,2.31,2.71,-2.71,-2.64,-3.28,-0.35,-0.41,-0.41
279.38,2.22,2.60,2.13,2.51,-2.51,-2.51,-3.14,-0.29,-0.38,-0.38
282.17,2.02,2.37,1.96,2.31,-2.31,-2.37,-2.99,-0.30,-0.36,-0.36
284.99,1.80,2.13,1.80,2.13,-2.13,-2.23,-2.84,-0.32,-0.33,-0.32
287.84,1.55,1.85,1.63,1.93,-1.93,-2.09,-2.69,-0.39,-0.30,-0.31
290.72,1.37,1.64,1.47,1.75,-1.75,-1.95,-2.53,-0.38,-0.27,-0.27
293.63,1.23,1.48,1.34,1.58,-1.58,-1.80,-2.37,-0.36,-0.24,-0.25
296.57,1.10,1.31,1.21,1.43,-1.43,-1.65,-2.20,-0.33,-0.22,-0.22
299.53,1.04,1.23,1.07,1.26,-1.26,-1.50,-2.04,-0.23,-0.19,-0.19
302.53,1.00,1.17,0.95,1.12,-1.12,-1.35,-1.87,-0.12,-0.16,-0.17
305.55,0.85,0.97,0.85,0.99,-0.99,-1.19,-1.70,-0.14,-0.14,-0.13
308.61,0.79,0.90,0.76,0.88,-0.88,-1.03,-1.53,-0.09,-0.12,-0.11
311.69,0.68,0.76,0.67,0.77,-0.77,-0.87,-1.35,-0.09,-0.09,-0.09
314.81,0.54,0.60,0.58,0.66,-0.66,-0.71,-1.18,-0.12,-0.07,-0.06
317.96,0.45,0.49,0.49,0.54,-0.54,-0.55,-1.00,-0.09,-0.05,-0.05
321.14,0.42,0.45,0.38,0.41,-0.41,-0.38,-0.82,0.00,-0.03,-0.04
324.35,0.37,0.39,0.26,0.28,-0.28,-0.22,-0.65,0.09,-0.02,-0.02
327.59,0.07,0.07,0.13,0.13,-0.13,-0.05,-0.47,-0.07,-0.01,-0.01
330.87,0.02,0.01,-0.03,-0.04,0.04,0.12,-0.29,0.05,0.01,0.00
334.18,0.01,-0.01,-0.20,-0.22,0.22,0.30,-0.11,0.22,0.02,0.02
337.52,-0.18,-0.21,-0.38,-0.41,0.41,0.47,0.07,0.22,0.03,0.02
340.90,-0.48,-0.53,-0.57,-0.60,0.60,0.65,0.26,0.12,0.03,0.04
344.30,-0.83,-0.88,-0.77,-0.81,0.81,0.82,0.44,-0.03,0.04,0.05
347.75,-1.06,-1.11,-0.96,-1.00,1.00,1.00,0.62,-0.06,0.05,0.05
351.23,-1.25,-1.31,-1.15,-1.20,1.20,1.18,0.80,-0.05,0.05,0.05
354.74,-1.38,-1.44,-1.35,-1.40,1.40,1.36,0.99,0.02,0.05,0.05
358.28,-1.58,-1.63,-1.56,-1.61,1.61,1.54,1.17,0.04,0.06,0.06
361.87,-1.86,-1.92,-1.76,-1.81,1.81,1.73,1.36,-0.05,0.06,0.06
365.49,-2.04,-2.11,-1.94,-2.00,2.00,1.91,1.55,-0.04,0.06,0.06
369.14,-2.19,-2.25,-2.14,-2.20,2.20,2.09,1.73,0.00,0.06,0.05
372.83,-2.33,-2.38,-2.33,-2.38,2.38,2.28,1.92,0.05,0.06,0.05
376.56,-2.49,-2.54,-2.50,-2.56,2.56,2.46,2.11,0.06,0.05,0.05
380.33,-2.52,-2.58,-2.69,-2.73,2.73,2.65,2.30,0.21,0.05,0.06
384.13,-2.72,-2.78,-2.87,-2.92,2.92,2.83,2.49,0.19,0.04,0.05
387.97,-3.00,-3.05,-3.06,-3.10,3.10,3.01,2.68,0.10,0.04,0.04
391.85,-3.29,-3.33,-3.26,-3.30,3.30,3.20,2.87,0.00,0.04,0.03
395.77,-3.44,-3.48,-3.46,-3.49,3.49,3.38,3.06,0.05,0.03,0.04
399.73,-3.57,-3.60,-3.65,-3.67,3.67,3.56,3.25,0.10,0.02,0.03
403.72,-3.77,-3.80,-3.85,-3.87,3.87,3.73,3.44,0.09,0.02,0.03
407.76,-4.06,-4.08,-4.05,-4.06,4.06,3.91,3.63,-0.01,0.01,0.01
411.84,-4.22,-4.24,-4.22,-4.23,4.23,4.08,3.82,0.00,0.01,0.01
415.96,-4.49,-4.51,-4.38,-4.39,4.39,4.24,4.01,-0.11,0.01,0.01
420.12,-4.72,-4.73,-4.52,-4.53,4.53,4.41,4.19,-0.20,0.01,0.01
424.32,-4.66,-4.67,-4.65,-4.67,4.67,4.57,4.37,0.00,0.02,0.01
428.56,-4.76,-4.78,-4.76,-4.79,4.79,4.72,4.55,0.02,0.03,0.02
432.85,-4.97,-5.00,-4.84,-4.88,4.88,4.87,4.73,-0.09,0.04,0.03
437.18,-4.94,-4.98,-4.91,-4.97,4.97,5.01,4.90,0.02,0.06,0.04
441.55,-4.95,-5.03,-4.98,-5.06,5.06,5.14,5.07,0.11,0.09,0.07
445.96,-5.11,-5.22,-5.03,-5.15,5.15,5.27,5.23,0.03,0.12,0.10
450.42,-4.89,-5.03,-5.06,-5.21,5.21,5.38,5.39,0.31,0.15,0.13
454.93,-4.81,-5.00,-5.07,-5.27,5.27,5.49,5.53,0.45,0.19,0.18
459.48,-5.10,-5.34,-5.08,-5.31,5.31,5.59,5.67,0.21,0.24,0.23
464.07,-5.07,-5.35,-5.07,-5.35,5.35,5.68,5.80,0.28,0.28,0.28
468.71,-5.17,-5.51,-5.06,-5.40,5.40,5.76,5.92,0.22,0.33,0.34
473.40,-5.08,-5.46,-5.06,-5.44,5.44,5.83,6.03,0.36,0.38,0.38
478.13,-4.98,-5.42,-5.04,-5.47,5.47,5.89,6.12,0.49,0.43,0.44
482.91,-5.13,-5.61,-5.02,-5.49,5.49,5.94,6.21,0.35,0.47,0.48
487.74,-5.19,-5.71,-5.00,-5.52,5.52,5.98,6.28,0.32,0.52,0.52
492.62,-4.98,-5.55,-4.99,-5.54,5.54,6.00,6.33,0.56,0.55,0.57
497.55,-4.91,-5.50,-4.99,-5.57,5.57,6.02,6.37,0.66,0.58,0.58
502.52,-4.96,-5.58,-5.01,-5.61,5.61,6.03,6.40,0.65,0.60,0.61
507.55,-4.89,-5.52,-5.01,-5.63,5.63,6.02,6.41,0.74,0.62,0.62
512.62,-4.95,-5.59,-5.02,-5.64,5.64,6.01,6.41,0.69,0.62,0.63
517.75,-5.00,-5.65,-5.05,-5.67,5.67,5.99,6.40,0.67,0.62,0.64
522.93,-4.94,-5.58,-5.09,-5.70,5.70,5.95,6.37,0.76,0.61,0.63
528.16,-5.00,-5.61,-5.15,-5.73,5.73,5.92,6.33,0.73,0.59,0.60
