frequency,raw,error,smoothed,error_smoothed,equalization,parametric_eq,fixed_band_eq,equalized_raw,equalized_smoothed,target
20.00,-1.51,-10.96,-1.54,-10.99,10.99,10.82,4.40,9.48,9.45,9.45
20.20,-1.49,-10.95,-1.48,-10.93,10.93,10.80,4.52,9.45,9.46,9.46
20.40,-1.43,-10.90,-1.41,-10.88,10.88,10.79,4.64,9.45,9.47,9.47
20.61,-1.36,-10.84,-1.35,-10.82,10.82,10.77,4.76,9.46,9.48,9.48
20.81,-1.29,-10.77,-1.28,-10.77,10.77,10.75,4.89,9.48,9.48,9.48
21.02,-1.22,-10.71,-1.22,-10.71,10.71,10.72,5.02,9.49,9.49,9.49
21.23,-1.16,-10.66,-1.16,-10.65,10.65,10.70,5.15,9.50,9.50,9.50
21.44,-1.10,-10.61,-1.10,-10.60,10.60,10.67,5.29,9.50,9.50,9.51
21.66,-1.04,-10.55,-1.03,-10.55,10.55,10.63,5.43,9.51,9.51,9.51
21.87,-0.98,-10.50,-0.97,-10.49,10.49,10.60,5.58,9.51,9.52,9.52
22.09,-0.92,-10.44,-0.91,-10.44,10.44,10.56,5.73,9.52,9.52,9.52
22.31,-0.86,-10.39,-0.86,-10.38,10.38,10.53,5.88,9.53,9.53,9.53
22.54,-0.80,-10.33,-0.79,-10.33,10.33,10.49,6.04,9.53,9.53,9.53
22.76,-0.74,-10.28,-0.74,-10.27,10.27,10.44,6.20,9.54,9.54,9.54
22.99,-0.68,-10.22,-0.68,-10.22,10.22,10.40,6.37,9.54,9.54,9.54
23.22,-0.62,-10.16,-0.63,-10.17,10.17,10.36,6.54,9.55,9.54,9.54
23.45,-0.56,-10.11,-0.57,-10.12,10.12,10.31,6.72,9.56,9.55,9.55
23.69,-0.51,-10.06,-0.52,-10.06,10.06,10.27,6.90,9.56,9.55,9.55
23.92,-0.47,-10.02,-0.46,-10.01,10.01,10.22,7.08,9.55,9.55,9.55
24.16,-0.43,-9.98,-0.41,-9.96,9.96,10.17,7.27,9.54,9.55,9.55
24.40,-0.37,-9.93,-0.36,-9.91,9.91,10.12,7.46,9.55,9.56,9.56
24.65,-0.31,-9.87,-0.31,-9.86,9.86,10.07,7.66,9.56,9.56,9.56
24.89,-0.25,-9.81,-0.26,-9.81,9.81,10.02,7.86,9.57,9.56,9.56
25.14,-0.21,-9.77,-0.20,-9.76,9.76,9.97,8.06,9.56,9.56,9.56
25.39,-0.17,-9.73,-0.16,-9.71,9.71,9.92,8.26,9.55,9.56,9.56
25.65,-0.11,-9.67,-0.11,-9.67,9.67,9.87,8.47,9.56,9.56,9.56
25.91,-0.05,-9.61,-0.06,-9.62,9.62,9.82,8.68,9.57,9.56,9.56
26.16,-0.02,-9.58,-0.01,-9.57,9.57,9.76,8.90,9.55,9.56,9.56
26.43,0.04,-9.52,0.04,-9.52,9.52,9.71,9.11,9.56,9.56,9.56
26.69,0.09,-9.47,0.09,-9.47,9.47,9.66,9.33,9.57,9.56,9.56
26.96,0.14,-9.42,0.13,-9.43,9.43,9.61,9.54,9.57,9.56,9.56
27.23,0.17,-9.39,0.18,-9.38,9.38,9.56,9.75,9.55,9.56,9.56
27.50,0.22,-9.34,0.22,-9.34,9.34,9.51,9.96,9.56,9.56,9.56
27.77,0.27,-9.29,0.27,-9.29,9.29,9.45,10.17,9.57,9.56,9.56
28.05,0.30,-9.26,0.31,-9.25,9.25,9.40,10.37,9.55,9.56,9.56
28.33,0.35,-9.21,0.35,-9.21,9.21,9.35,10.56,9.56,9.56,9.56
28.62,0.38,-9.18,0.39,-9.17,9.17,9.30,10.74,9.55,9.56,9.56
28.90,0.44,-9.12,0.43,-9.12,9.12,9.25,10.92,9.57,9.56,9.56
29.19,0.47,-9.09,0.48,-9.08,9.08,9.20,11.08,9.56,9.56,9.56
29.48,0.52,-9.04,0.51,-9.04,9.04,9.15,11.22,9.57,9.56,9.56
29.78,0.55,-9.01,0.55,-9.00,9.00,9.11,11.35,9.56,9.56,9.56
30.08,0.59,-8.97,0.59,-8.96,8.96,9.06,11.46,9.55,9.55,9.56
30.38,0.63,-8.92,0.63,-8.92,8.92,9.01,11.55,9.55,9.55,9.55
30.68,0.66,-8.89,0.67,-8.88,8.88,8.96,11.63,9.54,9.55,9.55
30.99,0.71,-8.84,0.71,-8.84,8.84,8.92,11.67,9.55,9.55,9.55
31.30,0.74,-8.80,0.74,-8.80,8.80,8.87,11.70,9.54,9.54,9.54
31.61,0.77,-8.77,0.78,-8.76,8.76,8.82,11.70,9.53,9.54,9.54
31.93,0.81,-8.72,0.82,-8.72,8.72,8.78,11.68,9.53,9.53,9.53
32.24,0.85,-8.68,0.85,-8.68,8.68,8.73,11.64,9.53,9.53,9.53
32.57,0.88,-8.64,0.89,-8.64,8.64,8.69,11.58,9.52,9.52,9.52
32.89,0.92,-8.60,0.92,-8.60,8.60,8.65,11.50,9.52,9.52,9.52
33.22,0.96,-8.55,0.96,-8.56,8.56,8.60,11.40,9.52,9.51,9.51
33.55,0.99,-8.52,0.99,-8.52,8.52,8.56,11.28,9.51,9.51,9.51
33.89,1.02,-8.48,1.02,-8.47,8.47,8.52,11.15,9.50,9.50,9.50
34.23,1.05,-8.44,1.06,-8.43,8.43,8.47,11.01,9.49,9.49,9.49
34.57,1.09,-8.39,1.09,-8.39,8.39,8.43,10.86,9.48,9.48,9.48
34.92,1.11,-8.36,1.12,-8.35,8.35,8.39,10.70,9.46,9.47,9.47
35.27,1.15,-8.32,1.16,-8.31,8.31,8.35,10.53,9.46,9.46,9.47
35.62,1.19,-8.26,1.19,-8.26,8.26,8.30,10.36,9.46,9.45,9.45
35.97,1.22,-8.22,1.22,-8.22,8.22,8.26,10.19,9.44,9.44,9.44
36.33,1.24,-8.19,1.25,-8.17,8.17,8.22,10.01,9.42,9.43,9.43
36.70,1.28,-8.13,1.28,-8.13,8.13,8.18,9.83,9.41,9.41,9.41
37.06,1.31,-8.09,1.31,-8.08,8.08,8.14,9.65,9.40,9.40,9.40
37.43,1.34,-8.04,1.34,-8.04,8.04,8.10,9.47,9.38,9.38,9.38
37.81,1.37,-7.99,1.37,-7.99,7.99,8.05,9.30,9.36,9.36,9.36
38.19,1.40,-7.95,1.40,-7.95,7.95,8.01,9.12,9.35,9.35,9.35
38.57,1.43,-7.90,1.43,-7.90,7.90,7.97,8.95,9.33,9.33,9.33
38.95,1.46,-7.85,1.46,-7.85,7.85,7.93,8.79,9.32,9.31,9.31
39.34,1.49,-7.80,1.49,-7.80,7.80,7.88,8.62,9.30,9.29,9.29
39.74,1.50,-7.77,1.51,-7.76,7.76,7.84,8.46,9.26,9.27,9.27
40.14,1.54,-7.71,1.54,-7.71,7.71,7.80,8.31,9.25,9.25,9.25
40.54,1.56,-7.67,1.57,-7.66,7.66,7.75,8.16,9.22,9.22,9.23
40.94,1.59,-7.61,1.59,-7.61,7.61,7.71,8.02,9.20,9.20,9.20
41.35,1.62,-7.56,1.62,-7.56,7.56,7.66,7.88,9.18,9.18,9.18
41.76,1.63,-7.52,1.65,-7.51,7.51,7.62,7.74,9.14,9.15,9.15
42.18,1.67,-7.46,1.67,-7.46,7.46,7.57,7.61,9.13,9.13,9.13
42.60,1.69,-7.41,1.70,-7.40,7.40,7.52,7.49,9.10,9.10,9.10
43.03,1.72,-7.35,1.72,-7.35,7.35,7.48,7.37,9.07,9.07,9.07
43.46,1.75,-7.29,1.74,-7.30,7.30,7.43,7.26,9.05,9.04,9.04
43.90,1.76,-7.25,1.77,-7.24,7.24,7.38,7.15,9.01,9.01,9.01
44.33,1.80,-7.18,1.79,-7.19,7.19,7.33,7.05,8.99,8.98,8.98
44.78,1.80,-7.15,1.82,-7.13,7.13,7.28,6.95,8.93,8.95,8.95
45.23,1.85,-7.07,1.84,-7.07,7.07,7.22,6.86,8.93,8.91,8.92
45.68,1.85,-7.03,1.86,-7.01,7.01,7.17,6.77,8.87,8.88,8.88
46.13,1.89,-6.95,1.88,-6.96,6.96,7.12,6.69,8.85,8.84,8.84
46.60,1.89,-6.91,1.91,-6.90,6.90,7.06,6.61,8.79,8.80,8.80
47.06,1.93,-6.84,1.93,-6.84,6.84,7.01,6.53,8.77,8.76,8.77
47.53,1.93,-6.80,1.95,-6.77,6.77,6.95,6.46,8.71,8.72,8.73
48.01,1.98,-6.70,1.97,-6.71,6.71,6.89,6.40,8.70,8.68,8.68
48.49,1.98,-6.66,1.99,-6.65,6.65,6.84,6.34,8.63,8.64,8.64
48.97,2.02,-6.57,2.01,-6.59,6.59,6.78,6.28,8.61,8.60,8.59
49.46,2.02,-6.53,2.03,-6.53,6.53,6.72,6.23,8.55,8.55,8.55
49.96,2.04,-6.46,2.05,-6.46,6.46,6.65,6.18,8.51,8.51,8.50
50.46,2.06,-6.40,2.07,-6.40,6.40,6.59,6.13,8.46,8.47,8.46
50.96,2.07,-6.35,2.08,-6.34,6.34,6.53,6.09,8.41,8.42,8.42
51.47,2.11,-6.27,2.10,-6.27,6.27,6.46,6.05,8.39,8.38,8.38
51.99,2.11,-6.22,2.12,-6.21,6.21,6.40,6.01,8.32,8.33,8.33
52.51,2.15,-6.14,2.14,-6.14,6.14,6.33,5.97,8.30,8.28,8.29
53.03,2.15,-6.10,2.16,-6.08,6.08,6.27,5.94,8.23,8.24,8.25
53.56,2.17,-6.03,2.17,-6.02,6.02,6.20,5.90,8.19,8.19,8.20
54.10,2.19,-5.96,2.19,-5.96,5.96,6.13,5.87,8.15,8.15,8.15
54.64,2.19,-5.91,2.21,-5.89,5.89,6.06,5.84,8.09,8.10,8.10
55.18,2.24,-5.81,2.23,-5.83,5.83,5.99,5.81,8.08,8.06,8.05
55.74,2.24,-5.76,2.24,-5.77,5.77,5.92,5.78,8.01,8.02,8.00
56.29,2.25,-5.71,2.26,-5.71,5.71,5.85,5.75,7.96,7.97,7.96
56.86,2.28,-5.64,2.28,-5.65,5.65,5.77,5.71,7.93,7.93,7.92
57.42,2.28,-5.59,2.29,-5.59,5.59,5.70,5.68,7.87,7.88,7.87
58.00,2.32,-5.51,2.31,-5.52,5.52,5.63,5.64,7.84,7.83,7.83
58.58,2.32,-5.47,2.32,-5.46,5.46,5.55,5.60,7.78,7.78,7.79
59.16,2.32,-5.43,2.34,-5.39,5.39,5.48,5.56,7.72,7.73,7.75
59.76,2.37,-5.34,2.36,-5.33,5.33,5.40,5.52,7.70,7.68,7.71
60.35,2.37,-5.28,2.37,-5.26,5.26,5.33,5.47,7.63,7.63,7.65
60.96,2.37,-5.22,2.39,-5.19,5.19,5.25,5.42,7.57,7.58,7.59
61.57,2.41,-5.12,2.40,-5.13,5.13,5.18,5.37,7.54,7.53,7.53
62.18,2.41,-5.05,2.42,-5.06,5.06,5.10,5.31,7.47,7.47,7.46
62.80,2.41,-4.99,2.43,-4.99,4.99,5.02,5.25,7.40,7.42,7.40
63.43,2.45,-4.89,2.44,-4.92,4.92,4.95,5.19,7.37,7.36,7.34
64.07,2.45,-4.84,2.46,-4.85,4.85,4.87,5.12,7.30,7.30,7.29
64.71,2.45,-4.79,2.47,-4.78,4.78,4.79,5.05,7.23,7.25,7.24
65.35,2.50,-4.69,2.48,-4.71,4.71,4.72,4.98,7.21,7.19,7.19
66.01,2.50,-4.64,2.49,-4.64,4.64,4.64,4.90,7.14,7.13,7.14
66.67,2.50,-4.59,2.51,-4.57,4.57,4.56,4.82,7.08,7.08,7.09
67.33,2.50,-4.53,2.52,-4.50,4.50,4.48,4.73,7.01,7.02,7.03
68.01,2.54,-4.43,2.53,-4.44,4.44,4.41,4.65,6.98,6.97,6.97
68.69,2.54,-4.37,2.54,-4.37,4.37,4.33,4.56,6.91,6.91,6.91
69.37,2.54,-4.32,2.55,-4.30,4.30,4.25,4.46,6.84,6.85,6.86
70.07,2.57,-4.23,2.56,-4.23,4.23,4.18,4.37,6.80,6.79,6.80
70.77,2.58,-4.16,2.58,-4.16,4.16,4.10,4.27,6.74,6.74,6.74
71.48,2.58,-4.10,2.59,-4.09,4.09,4.02,4.18,6.67,6.68,6.68
72.19,2.58,-4.04,2.60,-4.02,4.02,3.95,4.08,6.60,6.61,6.62
72.91,2.59,-3.96,2.61,-3.95,3.95,3.87,3.98,6.54,6.56,6.55
73.64,2.63,-3.86,2.62,-3.88,3.88,3.79,3.88,6.51,6.50,6.49
74.38,2.63,-3.80,2.63,-3.81,3.81,3.72,3.78,6.44,6.44,6.43
75.12,2.63,-3.74,2.64,-3.74,3.74,3.64,3.68,6.37,6.38,6.37
75.87,2.64,-3.68,2.65,-3.68,3.68,3.57,3.59,6.32,6.32,6.32
76.63,2.67,-3.59,2.66,-3.61,3.61,3.49,3.49,6.28,6.26,6.26
77.40,2.67,-3.54,2.67,-3.54,3.54,3.42,3.39,6.21,6.21,6.21
78.17,2.67,-3.48,2.68,-3.47,3.47,3.35,3.29,6.15,6.15,6.15
78.95,2.67,-3.43,2.69,-3.41,3.41,3.27,3.20,6.08,6.10,6.10
79.74,2.70,-3.35,2.70,-3.34,3.34,3.20,3.10,6.05,6.04,6.05
80.54,2.71,-3.28,2.71,-3.28,3.28,3.13,3.01,5.99,5.99,5.99
81.35,2.71,-3.22,2.72,-3.21,3.21,3.05,2.92,5.93,5.93,5.93
82.16,2.71,-3.17,2.73,-3.15,3.15,2.98,2.83,5.86,5.87,5.88
82.98,2.72,-3.10,2.74,-3.08,3.08,2.91,2.74,5.81,5.82,5.82
83.81,2.76,-3.00,2.75,-3.02,3.02,2.84,2.65,5.78,5.76,5.76
84.65,2.76,-2.94,2.75,-2.95,2.95,2.77,2.56,5.71,5.70,5.70
85.50,2.76,-2.88,2.76,-2.89,2.89,2.70,2.48,5.65,5.65,5.64
86.35,2.76,-2.83,2.77,-2.82,2.82,2.63,2.39,5.58,5.59,5.59
87.22,2.76,-2.77,2.78,-2.75,2.75,2.56,2.31,5.51,5.53,5.53
88.09,2.80,-2.67,2.79,-2.68,2.68,2.49,2.23,5.48,5.47,5.47
88.97,2.80,-2.61,2.79,-2.61,2.61,2.42,2.15,5.42,5.41,5.41
89.86,2.80,-2.55,2.80,-2.55,2.55,2.36,2.07,5.35,5.35,5.35
90.76,2.80,-2.49,2.81,-2.48,2.48,2.29,2.00,5.28,5.29,5.29
91.66,2.80,-2.42,2.81,-2.41,2.41,2.22,1.93,5.21,5.22,5.22
92.58,2.81,-2.35,2.82,-2.34,2.34,2.16,1.85,5.15,5.16,5.16
93.51,2.82,-2.28,2.82,-2.27,2.27,2.09,1.78,5.10,5.09,5.10
94.44,2.84,-2.20,2.83,-2.20,2.20,2.02,1.71,5.05,5.03,5.04
95.39,2.84,-2.13,2.83,-2.13,2.13,1.96,1.64,4.97,4.97,4.97
96.34,2.84,-2.06,2.84,-2.06,2.06,1.90,1.58,4.90,4.90,4.90
97.30,2.84,-2.00,2.84,-1.99,1.99,1.83,1.51,4.83,4.84,4.84
98.28,2.84,-1.93,2.85,-1.92,1.92,1.77,1.45,4.77,4.77,4.77
99.26,2.84,-1.86,2.86,-1.85,1.85,1.71,1.38,4.70,4.71,4.70
100.25,2.84,-1.79,2.86,-1.78,1.78,1.64,1.32,4.63,4.65,4.63
101.25,2.86,-1.72,2.87,-1.72,1.72,1.58,1.26,4.58,4.58,4.58
102.27,2.86,-1.66,2.87,-1.65,1.65,1.52,1.20,4.51,4.52,4.52
103.29,2.89,-1.57,2.88,-1.58,1.58,1.46,1.14,4.48,4.46,4.46
104.32,2.89,-1.51,2.88,-1.52,1.52,1.40,1.08,4.41,4.40,4.40
105.37,2.89,-1.45,2.88,-1.46,1.46,1.34,1.03,4.35,4.34,4.34
106.42,2.89,-1.40,2.89,-1.39,1.39,1.28,0.97,4.29,4.28,4.29
107.48,2.89,-1.33,2.89,-1.33,1.33,1.22,0.92,4.22,4.22,4.22
108.56,2.89,-1.27,2.89,-1.27,1.27,1.16,0.86,4.16,4.16,4.16
109.64,2.89,-1.21,2.89,-1.20,1.20,1.10,0.81,4.10,4.10,4.10
110.74,2.89,-1.15,2.89,-1.14,1.14,1.04,0.76,4.03,4.03,4.04
111.85,2.89,-1.09,2.89,-1.08,1.08,0.98,0.71,3.97,3.97,3.98
112.97,2.89,-1.02,2.89,-1.01,1.01,0.92,0.66,3.91,3.91,3.91
114.10,2.89,-0.96,2.89,-0.95,0.95,0.87,0.61,3.84,3.84,3.85
115.24,2.89,-0.89,2.89,-0.89,0.89,0.81,0.56,3.78,3.78,3.78
116.39,2.89,-0.82,2.90,-0.82,0.82,0.75,0.51,3.71,3.72,3.71
117.55,2.89,-0.76,2.90,-0.75,0.75,0.70,0.46,3.65,3.66,3.65
118.73,2.89,-0.69,2.91,-0.69,0.69,0.64,0.42,3.58,3.59,3.58
119.92,2.91,-0.61,2.91,-0.62,0.62,0.58,0.37,3.53,3.53,3.52
121.12,2.93,-0.54,2.92,-0.55,0.55,0.53,0.33,3.48,3.47,3.47
122.33,2.93,-0.48,2.93,-0.47,0.47,0.47,0.28,3.40,3.41,3.41
123.55,2.93,-0.42,2.95,-0.40,0.40,0.42,0.24,3.33,3.34,3.35
124.79,2.97,-0.32,2.96,-0.32,0.32,0.36,0.20,3.29,3.28,3.29
126.03,2.97,-0.26,2.98,-0.24,0.24,0.31,0.15,3.21,3.22,3.23
127.29,2.99,-0.18,3.00,-0.16,0.16,0.25,0.11,3.15,3.16,3.17
128.57,3.02,-0.08,3.02,-0.08,0.08,0.20,0.07,3.10,3.10,3.10
129.85,3.03,-0.01,3.04,0.00,-0.00,0.15,0.03,3.03,3.04,3.04
131.15,3.06,0.08,3.06,0.08,-0.08,0.09,-0.01,2.98,2.98,2.98
132.46,3.08,0.16,3.09,0.16,-0.16,0.04,-0.05,2.92,2.92,2.92
133.79,3.10,0.24,3.11,0.25,-0.25,-0.01,-0.09,2.86,2.86,2.86
135.12,3.14,0.34,3.13,0.33,-0.33,-0.07,-0.13,2.82,2.80,2.80
136.48,3.15,0.40,3.15,0.41,-0.41,-0.12,-0.17,2.75,2.75,2.75
137.84,3.18,0.49,3.18,0.48,-0.48,-0.17,-0.21,2.70,2.69,2.69
139.22,3.19,0.56,3.20,0.56,-0.56,-0.23,-0.25,2.63,2.64,2.63
140.61,3.22,0.64,3.22,0.63,-0.63,-0.28,-0.29,2.59,2.58,2.58
142.02,3.23,0.70,3.24,0.70,-0.70,-0.33,-0.33,2.53,2.53,2.53
143.44,3.23,0.75,3.25,0.77,-0.77,-0.38,-0.37,2.46,2.48,2.48
144.87,3.28,0.84,3.27,0.83,-0.83,-0.43,-0.41,2.45,2.43,2.44
146.32,3.28,0.89,3.28,0.89,-0.89,-0.49,-0.45,2.39,2.39,2.39
147.78,3.28,0.94,3.29,0.95,-0.95,-0.54,-0.49,2.33,2.34,2.34
149.26,3.31,1.02,3.30,1.01,-1.01,-0.59,-0.53,2.30,2.29,2.29
150.75,3.32,1.08,3.31,1.06,-1.06,-0.64,-0.57,2.26,2.24,2.24
152.26,3.32,1.12,3.31,1.12,-1.12,-0.69,-0.61,2.20,2.19,2.20
153.78,3.32,1.17,3.32,1.17,-1.17,-0.74,-0.66,2.15,2.15,2.15
155.32,3.32,1.22,3.33,1.23,-1.23,-0.79,-0.70,2.09,2.10,2.10
156.88,3.32,1.27,3.33,1.28,-1.28,-0.85,-0.74,2.04,2.05,2.05
158.44,3.32,1.32,3.33,1.34,-1.34,-0.90,-0.79,1.99,2.00,2.00
160.03,3.32,1.37,3.34,1.39,-1.39,-0.95,-0.83,1.93,1.95,1.95
161.63,3.32,1.42,3.34,1.44,-1.44,-1.00,-0.88,1.88,1.90,1.90
163.24,3.34,1.49,3.34,1.49,-1.49,-1.05,-0.93,1.85,1.85,1.85
164.88,3.34,1.54,3.35,1.55,-1.55,-1.10,-0.97,1.80,1.80,1.80
166.53,3.36,1.61,3.35,1.60,-1.60,-1.15,-1.02,1.76,1.75,1.75
168.19,3.36,1.66,3.35,1.65,-1.65,-1.20,-1.07,1.71,1.70,1.70
169.87,3.36,1.71,3.36,1.71,-1.71,-1.25,-1.12,1.66,1.65,1.65
171.57,3.36,1.76,3.36,1.76,-1.76,-1.30,-1.17,1.60,1.60,1.60
173.29,3.36,1.81,3.36,1.81,-1.81,-1.35,-1.23,1.55,1.55,1.55
175.02,3.36,1.86,3.36,1.86,-1.86,-1.40,-1.28,1.50,1.50,1.50
176.77,3.36,1.91,3.37,1.92,-1.92,-1.45,-1.33,1.45,1.45,1.45
178.54,3.36,1.96,3.37,1.97,-1.97,-1.50,-1.39,1.40,1.40,1.40
180.32,3.36,2.01,3.37,2.01,-2.01,-1.55,-1.45,1.35,1.35,1.35
182.13,3.36,2.06,3.36,2.06,-2.06,-1.60,-1.51,1.30,1.30,1.30
183.95,3.36,2.10,3.36,2.11,-2.11,-1.65,-1.56,1.25,1.25,1.26
185.79,3.36,2.15,3.36,2.16,-2.16,-1.70,-1.62,1.21,1.21,1.21
187.65,3.36,2.20,3.36,2.20,-2.20,-1.75,-1.69,1.16,1.16,1.16
189.52,3.36,2.25,3.36,2.25,-2.25,-1.80,-1.75,1.11,1.11,1.11
191.42,3.36,2.29,3.36,2.30,-2.30,-1.85,-1.81,1.07,1.07,1.07
193.33,3.36,2.34,3.36,2.34,-2.34,-1.90,-1.88,1.02,1.02,1.02
195.27,3.36,2.38,3.36,2.39,-2.39,-1.95,-1.94,0.98,0.98,0.98
197.22,3.36,2.43,3.36,2.43,-2.43,-2.00,-2.01,0.94,0.93,0.93
199.19,3.36,2.47,3.36,2.47,-2.47,-2.05,-2.07,0.90,0.89,0.89
201.18,3.36,2.51,3.36,2.51,-2.51,-2.10,-2.14,0.86,0.85,0.85
203.19,3.36,2.55,3.36,2.55,-2.55,-2.15,-2.21,0.82,0.81,0.81
205.23,3.36,2.58,3.36,2.59,-2.59,-2.20,-2.28,0.78,0.77,0.78
207.28,3.36,2.62,3.36,2.63,-2.63,-2.25,-2.34,0.74,0.74,0.74
209.35,3.36,2.66,3.37,2.66,-2.66,-2.30,-2.41,0.70,0.70,0.70
211.44,3.36,2.69,3.37,2.70,-2.70,-2.35,-2.48,0.66,0.67,0.67
213.56,3.36,2.72,3.37,2.74,-2.74,-2.39,-2.55,0.62,0.64,0.64
215.69,3.36,2.75,3.38,2.78,-2.78,-2.44,-2.61,0.59,0.60,0.61
217.85,3.38,2.80,3.38,2.81,-2.81,-2.49,-2.68,0.57,0.57,0.58
220.03,3.38,2.84,3.39,2.85,-2.85,-2.54,-2.74,0.54,0.54,0.54
222.23,3.40,2.89,3.39,2.88,-2.88,-2.59,-2.81,0.53,0.51,0.51
224.45,3.41,2.93,3.40,2.91,-2.91,-2.64,-2.87,0.50,0.49,0.48
226.70,3.41,2.95,3.40,2.94,-2.94,-2.68,-2.93,0.47,0.46,0.46
228.96,3.41,2.97,3.40,2.97,-2.97,-2.73,-2.99,0.44,0.43,0.44
231.25,3.41,3.00,3.41,3.00,-3.00,-2.78,-3.04,0.41,0.41,0.41
233.57,3.41,3.02,3.41,3.03,-3.03,-2.83,-3.10,0.39,0.39,0.39
235.90,3.41,3.05,3.42,3.05,-3.05,-2.87,-3.15,0.36,0.36,0.36
238.26,3.41,3.07,3.42,3.08,-3.08,-2.92,-3.20,0.33,0.34,0.34
240.64,3.41,3.08,3.43,3.10,-3.10,-2.97,-3.24,0.31,0.32,0.33
243.05,3.41,3.10,3.43,3.12,-3.12,-3.01,-3.28,0.29,0.31,0.31
245.48,3.42,3.13,3.43,3.14,-3.14,-3.06,-3.32,0.28,0.29,0.29
247.93,3.43,3.16,3.43,3.16,-3.16,-3.11,-3.36,0.28,0.27,0.27
250.41,3.45,3.19,3.44,3.18,-3.18,-3.15,-3.39,0.28,0.26,0.26
252.92,3.45,3.20,3.44,3.20,-3.20,-3.20,-3.42,0.26,0.25,0.25
255.45,3.45,3.22,3.44,3.21,-3.21,-3.24,-3.44,0.24,0.23,0.23
258.00,3.45,3.23,3.45,3.23,-3.23,-3.29,-3.46,0.22,0.22,0.22
260.58,3.45,3.24,3.45,3.25,-3.25,-3.33,-3.48,0.21,0.21,0.21
263.19,3.45,3.25,3.46,3.26,-3.26,-3.37,-3.50,0.19,0.20,0.20
265.82,3.45,3.26,3.47,3.28,-3.28,-3.42,-3.51,0.17,0.19,0.19
268.48,3.45,3.27,3.47,3.30,-3.30,-3.46,-3.52,0.16,0.18,0.18
271.16,3.49,3.32,3.48,3.31,-3.31,-3.50,-3.53,0.18,0.17,0.17
273.87,3.49,3.33,3.48,3.32,-3.32,-3.54,-3.53,0.17,0.16,0.16
276.61,3.49,3.34,3.49,3.34,-3.34,-3.59,-3.54,0.16,0.15,0.15
279.38,3.49,3.35,3.50,3.35,-3.35,-3.63,-3.54,0.14,0.15,0.14
282.17,3.49,3.35,3.51,3.37,-3.37,-3.67,-3.54,0.13,0.14,0.14
284.99,3.52,3.38,3.52,3.38,-3.38,-3.71,-3.54,0.14,0.14,0.14
287.84,3.54,3.40,3.53,3.39,-3.39,-3.75,-3.54,0.15,0.13,0.14
290.72,3.54,3.41,3.54,3.41,-3.41,-3.78,-3.54,0.13,0.13,0.13
293.63,3.54,3.41,3.55,3.42,-3.42,-3.82,-3.55,0.12,0.13,0.13
296.57,3.57,3.44,3.57,3.44,-3.44,-3.86,-3.55,0.13,0.13,0.13
299.53,3.58,3.45,3.58,3.45,-3.45,-3.90,-3.55,0.13,0.13,0.13
302.53,3.58,3.45,3.59,3.47,-3.47,-3.93,-3.55,0.12,0.13,0.13
305.55,3.62,3.49,3.61,3.48,-3.48,-3.97,-3.56,0.14,0.13,0.13
308.61,3.62,3.49,3.63,3.50,-3.50,-4.00,-3.56,0.12,0.13,0.13
311.69,3.62,3.49,3.64,3.52,-3.52,-4.04,-3.57,0.11,0.13,0.13
314.81,3.67,3.54,3.66,3.53,-3.53,-4.07,-3.58,0.14,0.13,0.13
317.96,3.67,3.54,3.68,3.55,-3.55,-4.10,-3.59,0.12,0.13,0.13
321.14,3.71,3.58,3.70,3.57,-3.57,-4.13,-3.60,0.14,0.13,0.13
324.35,3.71,3.58,3.72,3.59,-3.59,-4.16,-3.62,0.13,0.13,0.13
327.59,3.75,3.61,3.74,3.61,-3.61,-4.19,-3.64,0.14,0.13,0.14
330.87,3.75,3.61,3.76,3.63,-3.63,-4.22,-3.66,0.13,0.14,0.14
334.18,3.80,3.66,3.79,3.65,-3.65,-4.25,-3.68,0.15,0.14,0.14
337.52,3.80,3.66,3.81,3.67,-3.67,-4.28,-3.71,0.13,0.14,0.14
340.90,3.84,3.69,3.84,3.69,-3.69,-4.30,-3.74,0.15,0.15,0.15
344.30,3.85,3.70,3.86,3.71,-3.71,-4.33,-3.77,0.14,0.15,0.15
347.75,3.88,3.72,3.89,3.73,-3.73,-4.35,-3.80,0.15,0.16,0.16
351.23,3.91,3.75,3.91,3.75,-3.75,-4.37,-3.84,0.16,0.16,0.16
354.74,3.94,3.77,3.94,3.77,-3.77,-4.39,-3.88,0.17,0.17,0.17
358.28,3.97,3.80,3.97,3.79,-3.79,-4.41,-3.93,0.18,0.17,0.17
361.87,4.00,3.82,4.00,3.82,-3.82,-4.43,-3.97,0.19,0.18,0.18
365.49,4.01,3.82,4.02,3.84,-3.84,-4.45,-4.02,0.18,0.18,0.19
369.14,4.06,3.87,4.05,3.86,-3.86,-4.47,-4.08,0.20,0.19,0.19
372.83,4.07,3.87,4.08,3.88,-3.88,-4.49,-4.13,0.19,0.20,0.20
376.56,4.10,3.90,4.11,3.91,-3.91,-4.50,-4.19,0.20,0.20,0.20
380.33,4.14,3.93,4.14,3.93,-3.93,-4.51,-4.25,0.21,0.21,0.21
384.13,4.16,3.95,4.17,3.95,-3.95,-4.53,-4.32,0.21,0.21,0.21
387.97,4.19,3.97,4.20,3.98,-3.98,-4.54,-4.38,0.21,0.22,0.22
391.85,4.23,4.00,4.23,4.00,-4.00,-4.55,-4.45,0.23,0.23,0.23
395.77,4.25,4.02,4.26,4.03,-4.03,-4.56,-4.52,0.23,0.23,0.23
399.73,4.28,4.04,4.29,4.05,-4.05,-4.57,-4.59,0.23,0.24,0.24
403.72,4.32,4.07,4.32,4.08,-4.08,-4.57,-4.67,0.25,0.25,0.25
407.76,4.36,4.11,4.35,4.10,-4.10,-4.58,-4.74,0.26,0.25,0.25
411.84,4.39,4.13,4.38,4.13,-4.13,-4.58,-4.82,0.27,0.26,0.26
415.96,4.40,4.13,4.42,4.15,-4.15,-4.59,-4.90,0.25,0.27,0.27
420.12,4.45,4.18,4.45,4.18,-4.18,-4.59,-4.97,0.28,0.27,0.27
424.32,4.48,4.20,4.48,4.20,-4.20,-4.59,-5.05,0.28,0.28,0.28
428.56,4.51,4.22,4.51,4.22,-4.22,-4.59,-5.13,0.29,0.29,0.29
432.85,4.54,4.24,4.54,4.25,-4.25,-4.59,-5.20,0.30,0.30,0.30
437.18,4.58,4.28,4.58,4.27,-4.27,-4.58,-5.27,0.31,0.30,0.30
441.55,4.60,4.29,4.61,4.30,-4.30,-4.58,-5.35,0.31,0.31,0.31
445.96,4.64,4.32,4.64,4.32,-4.32,-4.57,-5.41,0.32,0.32,0.32
450.42,4.66,4.33,4.67,4.34,-4.34,-4.57,-5.48,0.32,0.33,0.33
454.93,4.71,4.37,4.71,4.37,-4.37,-4.56,-5.54,0.34,0.34,0.34
459.48,4.74,4.39,4.74,4.39,-4.39,-4.55,-5.59,0.35,0.35,0.35
464.07,4.77,4.41,4.78,4.42,-4.42,-4.54,-5.64,0.35,0.36,0.36
468.71,4.81,4.44,4.81,4.45,-4.45,-4.53,-5.68,0.37,0.37,0.37
473.40,4.85,4.47,4.85,4.47,-4.47,-4.52,-5.72,0.38,0.38,0.38
478.13,4.88,4.49,4.89,4.50,-4.50,-4.50,-5.74,0.38,0.39,0.39
482.91,4.93,4.53,4.93,4.53,-4.53,-4.49,-5.77,0.41,0.40,0.40
487.74,4.96,4.55,4.97,4.56,-4.56,-4.47,-5.78,0.41,0.41,0.41
492.62,5.01,4.59,5.01,4.59,-4.59,-4.46,-5.78,0.43,0.42,0.42
497.55,5.04,4.61,5.05,4.62,-4.62,-4.44,-5.78,0.43,0.43,0.43
502.52,5.09,4.65,5.09,4.65,-4.65,-4.42,-5.76,0.44,0.44,0.44
507.55,5.12,4.66,5.13,4.68,-4.68,-4.40,-5.74,0.44,0.45,0.46
512.62,5.18,4.71,5.18,4.71,-4.71,-4.38,-5.71,0.47,0.47,0.47
517.75,5.21,4.73,5.22,4.74,-4.74,-4.36,-5.67,0.47,0.48,0.48
522.93,5.26,4.77,5.26,4.77,-4.77,-4.33,-5.62,0.49,0.49,0.49
528.16,5.31,4.81,5.30,4.80,-4.80,-4.31,-5.57,0.51,0.50,0.50
533.44,5.34,4.83,5.35,4.83,-4.83,-4.28,-5.50,0.51,0.51,0.51
538.77,5.39,4.87,5.39,4.86,-4.86,-4.26,-5.43,0.53,0.53,0.52
544.16,5.44,4.90,5.44,4.90,-4.90,-4.23,-5.35,0.55,0.54,0.54
549.60,5.48,4.93,5.48,4.93,-4.93,-4.20,-5.27,0.55,0.55,0.55
