frequency,raw,error,smoothed,error_smoothed,equalization,parametric_eq,fixed_band_eq,equalized_raw,equalized_smoothed,target
20.00,2.74,-0.40,2.71,-0.46,0.46,-0.27,-0.32,3.19,3.17,3.14
20.20,2.78,-0.41,2.76,-0.44,0.44,-0.28,-0.32,3.22,3.21,3.19
20.40,2.82,-0.42,2.81,-0.43,0.43,-0.28,-0.33,3.25,3.24,3.24
20.61,2.86,-0.41,2.86,-0.41,0.41,-0.29,-0.34,3.27,3.28,3.27
20.81,2.89,-0.43,2.91,-0.39,0.39,-0.29,-0.35,3.28,3.31,3.32
21.02,2.94,-0.42,2.96,-0.37,0.37,-0.30,-0.35,3.31,3.33,3.36
21.23,2.99,-0.39,3.01,-0.35,0.35,-0.31,-0.36,3.33,3.36,3.38
21.44,3.05,-0.35,3.06,-0.32,0.32,-0.31,-0.37,3.37,3.38,3.40
21.66,3.11,-0.31,3.11,-0.29,0.29,-0.32,-0.38,3.40,3.40,3.42
21.87,3.17,-0.26,3.16,-0.26,0.26,-0.33,-0.39,3.43,3.42,3.43
22.09,3.22,-0.23,3.20,-0.23,0.23,-0.33,-0.40,3.45,3.43,3.45
22.31,3.27,-0.19,3.25,-0.19,0.19,-0.34,-0.41,3.46,3.45,3.46
22.54,3.31,-0.15,3.30,-0.15,0.15,-0.35,-0.42,3.45,3.45,3.46
22.76,3.36,-0.10,3.36,-0.10,0.10,-0.35,-0.43,3.46,3.45,3.45
22.99,3.41,-0.04,3.41,-0.05,0.05,-0.36,-0.44,3.46,3.46,3.44
23.22,3.45,0.00,3.46,0.00,-0.00,-0.37,-0.45,3.45,3.46,3.44
23.45,3.50,0.05,3.51,0.05,-0.05,-0.38,-0.46,3.45,3.46,3.44
23.69,3.55,0.09,3.55,0.09,-0.09,-0.38,-0.47,3.45,3.46,3.45
23.92,3.59,0.14,3.60,0.14,-0.14,-0.39,-0.48,3.45,3.46,3.45
24.16,3.64,0.18,3.64,0.18,-0.18,-0.40,-0.49,3.45,3.46,3.46
24.40,3.69,0.22,3.68,0.22,-0.22,-0.41,-0.50,3.46,3.46,3.47
24.65,3.73,0.27,3.72,0.26,-0.26,-0.42,-0.51,3.47,3.46,3.46
24.89,3.78,0.32,3.75,0.29,-0.29,-0.42,-0.52,3.48,3.46,3.46
25.14,3.81,0.35,3.78,0.33,-0.33,-0.43,-0.54,3.48,3.46,3.46
25.39,3.84,0.37,3.82,0.36,-0.36,-0.44,-0.55,3.48,3.46,3.47
25.65,3.87,0.40,3.85,0.39,-0.39,-0.45,-0.56,3.48,3.46,3.46
25.91,3.89,0.43,3.88,0.43,-0.43,-0.46,-0.57,3.46,3.46,3.45
26.16,3.91,0.46,3.92,0.46,-0.46,-0.47,-0.59,3.45,3.46,3.45
26.43,3.93,0.48,3.95,0.50,-0.50,-0.48,-0.60,3.43,3.46,3.45
26.69,3.95,0.50,3.99,0.53,-0.53,-0.49,-0.61,3.41,3.45,3.45
26.96,3.97,0.51,4.02,0.57,-0.57,-0.50,-0.62,3.40,3.45,3.46
27.23,4.02,0.56,4.05,0.61,-0.61,-0.51,-0.64,3.41,3.45,3.46
27.50,4.09,0.63,4.09,0.64,-0.64,-0.52,-0.65,3.44,3.45,3.46
27.77,4.15,0.70,4.13,0.68,-0.68,-0.53,-0.66,3.47,3.44,3.44
28.05,4.20,0.75,4.16,0.72,-0.72,-0.54,-0.68,3.48,3.44,3.44
28.33,4.23,0.80,4.19,0.75,-0.75,-0.55,-0.69,3.47,3.44,3.43
28.62,4.25,0.82,4.22,0.78,-0.78,-0.57,-0.70,3.46,3.44,3.43
28.90,4.27,0.83,4.25,0.82,-0.82,-0.58,-0.72,3.45,3.44,3.44
29.19,4.30,0.87,4.28,0.85,-0.85,-0.59,-0.73,3.45,3.44,3.43
29.48,4.32,0.87,4.31,0.88,-0.88,-0.60,-0.74,3.44,3.43,3.44
29.78,4.35,0.92,4.34,0.91,-0.91,-0.61,-0.76,3.44,3.43,3.43
30.08,4.37,0.93,4.37,0.94,-0.94,-0.63,-0.77,3.43,3.43,3.44
30.38,4.37,0.94,4.39,0.96,-0.96,-0.64,-0.78,3.40,3.43,3.43
30.68,4.38,0.95,4.41,0.99,-0.99,-0.65,-0.80,3.39,3.43,3.43
30.99,4.38,0.95,4.43,1.01,-1.01,-0.67,-0.81,3.37,3.42,3.42
31.30,4.43,1.01,4.45,1.03,-1.03,-0.68,-0.82,3.40,3.42,3.42
31.61,4.48,1.06,4.47,1.05,-1.05,-0.70,-0.83,3.43,3.42,3.42
31.93,4.54,1.12,4.49,1.08,-1.08,-0.71,-0.85,3.46,3.41,3.42
32.24,4.55,1.14,4.51,1.11,-1.11,-0.73,-0.86,3.44,3.41,3.40
32.57,4.56,1.15,4.53,1.13,-1.13,-0.74,-0.87,3.43,3.40,3.41
32.89,4.57,1.16,4.55,1.15,-1.15,-0.76,-0.89,3.41,3.40,3.41
33.22,4.57,1.17,4.57,1.17,-1.17,-0.77,-0.90,3.39,3.39,3.39
33.55,4.57,1.18,4.58,1.19,-1.19,-0.79,-0.92,3.37,3.39,3.39
33.89,4.57,1.19,4.59,1.21,-1.21,-0.81,-0.93,3.36,3.38,3.38
34.23,4.60,1.21,4.61,1.23,-1.23,-0.82,-0.94,3.37,3.38,3.38
34.57,4.64,1.27,4.62,1.25,-1.25,-0.84,-0.96,3.39,3.37,3.37
34.92,4.69,1.32,4.64,1.27,-1.27,-0.86,-0.97,3.41,3.37,3.37
35.27,4.68,1.31,4.66,1.30,-1.30,-0.88,-0.99,3.38,3.36,3.36
35.62,4.66,1.30,4.69,1.32,-1.32,-0.89,-1.00,3.33,3.36,3.36
35.97,4.63,1.27,4.71,1.35,-1.35,-0.91,-1.02,3.27,3.36,3.36
36.33,4.67,1.31,4.74,1.38,-1.38,-0.93,-1.04,3.29,3.36,3.36
36.70,4.72,1.37,4.75,1.40,-1.40,-0.95,-1.06,3.32,3.35,3.35
37.06,4.77,1.43,4.77,1.42,-1.42,-0.97,-1.07,3.35,3.35,3.34
37.43,4.82,1.46,4.78,1.43,-1.43,-0.99,-1.09,3.39,3.35,3.36
37.81,4.87,1.51,4.79,1.44,-1.44,-1.01,-1.11,3.43,3.35,3.35
38.19,4.89,1.54,4.80,1.45,-1.45,-1.03,-1.13,3.44,3.35,3.35
38.57,4.88,1.53,4.80,1.45,-1.45,-1.06,-1.15,3.42,3.35,3.35
38.95,4.86,1.50,4.80,1.45,-1.45,-1.08,-1.18,3.40,3.35,3.36
39.34,4.81,1.46,4.80,1.45,-1.45,-1.10,-1.20,3.36,3.35,3.35
39.74,4.75,1.40,4.79,1.45,-1.45,-1.13,-1.22,3.30,3.35,3.34
40.14,4.72,1.37,4.79,1.44,-1.44,-1.15,-1.25,3.28,3.35,3.35
40.54,4.74,1.40,4.78,1.44,-1.44,-1.17,-1.27,3.30,3.34,3.34
40.94,4.76,1.42,4.77,1.43,-1.43,-1.20,-1.30,3.33,3.34,3.33
41.35,4.76,1.43,4.76,1.43,-1.43,-1.22,-1.33,3.33,3.33,3.33
41.76,4.76,1.44,4.76,1.43,-1.43,-1.25,-1.36,3.32,3.32,3.32
42.18,4.75,1.42,4.76,1.44,-1.44,-1.28,-1.39,3.30,3.31,3.32
42.60,4.73,1.42,4.76,1.46,-1.46,-1.30,-1.42,3.27,3.30,3.31
43.03,4.71,1.41,4.77,1.48,-1.48,-1.33,-1.45,3.22,3.29,3.30
43.46,4.78,1.49,4.78,1.51,-1.51,-1.36,-1.49,3.27,3.27,3.29
43.90,4.84,1.58,4.79,1.53,-1.53,-1.39,-1.52,3.30,3.26,3.26
44.33,4.86,1.62,4.80,1.56,-1.56,-1.42,-1.56,3.30,3.25,3.24
44.78,4.86,1.64,4.81,1.58,-1.58,-1.44,-1.59,3.28,3.23,3.22
45.23,4.86,1.64,4.82,1.61,-1.61,-1.48,-1.63,3.25,3.22,3.21
45.68,4.86,1.66,4.84,1.64,-1.64,-1.51,-1.67,3.22,3.20,3.19
46.13,4.86,1.69,4.86,1.67,-1.67,-1.54,-1.71,3.19,3.18,3.17
46.60,4.86,1.69,4.87,1.71,-1.71,-1.57,-1.75,3.15,3.17,3.17
47.06,4.86,1.71,4.89,1.74,-1.74,-1.60,-1.79,3.11,3.15,3.15
47.53,4.86,1.72,4.91,1.78,-1.78,-1.64,-1.84,3.08,3.13,3.14
48.01,4.86,1.72,4.93,1.81,-1.81,-1.67,-1.88,3.04,3.12,3.14
48.49,4.92,1.80,4.94,1.84,-1.84,-1.70,-1.93,3.08,3.10,3.11
48.97,4.98,1.89,4.95,1.86,-1.86,-1.74,-1.98,3.11,3.09,3.09
49.46,5.01,1.94,4.96,1.89,-1.89,-1.77,-2.02,3.12,3.07,3.07
49.96,5.05,2.00,4.97,1.92,-1.92,-1.81,-2.07,3.13,3.06,3.04
50.46,5.05,2.01,4.99,1.95,-1.95,-1.85,-2.12,3.09,3.04,3.04
50.96,5.05,2.02,5.02,1.99,-1.99,-1.89,-2.17,3.05,3.02,3.02
51.47,5.05,2.05,5.04,2.03,-2.03,-1.92,-2.22,3.02,3.01,3.00
51.99,5.05,2.06,5.06,2.07,-2.07,-1.96,-2.27,2.98,2.99,2.98
52.51,5.05,2.07,5.09,2.11,-2.11,-2.00,-2.32,2.94,2.98,2.98
53.03,5.05,2.08,5.11,2.15,-2.15,-2.04,-2.37,2.90,2.96,2.97
53.56,5.04,2.09,5.13,2.18,-2.18,-2.08,-2.42,2.86,2.95,2.95
54.10,5.05,2.11,5.14,2.21,-2.21,-2.12,-2.47,2.84,2.93,2.93
54.64,5.19,2.27,5.16,2.24,-2.24,-2.17,-2.52,2.95,2.92,2.91
55.18,5.27,2.36,5.17,2.27,-2.27,-2.21,-2.57,3.00,2.90,2.90
55.74,5.26,2.37,5.19,2.30,-2.30,-2.25,-2.62,2.96,2.89,2.88
56.29,5.25,2.37,5.21,2.34,-2.34,-2.29,-2.66,2.91,2.87,2.87
56.86,5.25,2.39,5.23,2.37,-2.37,-2.34,-2.71,2.88,2.85,2.85
57.42,5.25,2.43,5.24,2.41,-2.41,-2.38,-2.75,2.84,2.83,2.82
58.00,5.25,2.44,5.25,2.44,-2.44,-2.43,-2.80,2.81,2.81,2.81
58.58,5.25,2.45,5.26,2.48,-2.48,-2.47,-2.84,2.77,2.78,2.79
59.16,5.25,2.48,5.26,2.51,-2.51,-2.52,-2.88,2.74,2.75,2.77
59.76,5.25,2.50,5.26,2.54,-2.54,-2.57,-2.91,2.71,2.72,2.74
60.35,5.25,2.55,5.26,2.57,-2.57,-2.61,-2.95,2.68,2.69,2.70
60.96,5.25,2.59,5.25,2.60,-2.60,-2.66,-2.98,2.65,2.65,2.66
61.57,5.25,2.63,5.25,2.64,-2.64,-2.71,-3.01,2.61,2.61,2.61
62.18,5.25,2.68,5.25,2.68,-2.68,-2.76,-3.04,2.57,2.57,2.56
62.80,5.25,2.73,5.25,2.73,-2.73,-2.81,-3.07,2.52,2.52,2.52
63.43,5.25,2.78,5.25,2.77,-2.77,-2.85,-3.09,2.47,2.47,2.47
64.07,5.25,2.83,5.25,2.82,-2.82,-2.90,-3.11,2.42,2.42,2.41
64.71,5.25,2.88,5.25,2.87,-2.87,-2.95,-3.13,2.37,2.37,2.36
65.35,5.25,2.93,5.25,2.93,-2.93,-3.00,-3.15,2.32,2.32,2.32
66.01,5.25,2.98,5.26,2.99,-2.99,-3.05,-3.16,2.26,2.27,2.27
66.67,5.25,3.03,5.26,3.05,-3.05,-3.10,-3.17,2.20,2.21,2.21
67.33,5.25,3.09,5.26,3.10,-3.10,-3.15,-3.18,2.15,2.16,2.16
68.01,5.25,3.14,5.26,3.15,-3.15,-3.20,-3.19,2.10,2.11,2.11
68.69,5.25,3.19,5.25,3.20,-3.20,-3.24,-3.20,2.05,2.05,2.05
69.37,5.25,3.25,5.24,3.24,-3.24,-3.29,-3.21,2.00,1.99,1.99
70.07,5.25,3.31,5.22,3.29,-3.29,-3.34,-3.22,1.96,1.93,1.94
70.77,5.25,3.36,5.21,3.33,-3.33,-3.39,-3.23,1.92,1.87,1.89
71.48,5.25,3.42,5.19,3.38,-3.38,-3.44,-3.23,1.87,1.81,1.82
72.19,5.23,3.48,5.17,3.42,-3.42,-3.48,-3.24,1.80,1.75,1.75
72.91,5.16,3.47,5.16,3.47,-3.47,-3.53,-3.25,1.69,1.69,1.69
73.64,5.09,3.46,5.14,3.51,-3.51,-3.58,-3.25,1.57,1.62,1.62
74.38,5.05,3.49,5.11,3.55,-3.55,-3.62,-3.26,1.49,1.56,1.56
75.12,5.05,3.55,5.10,3.60,-3.60,-3.67,-3.27,1.45,1.50,1.49
75.87,5.05,3.62,5.08,3.65,-3.65,-3.71,-3.28,1.40,1.44,1.43
76.63,5.05,3.68,5.06,3.69,-3.69,-3.75,-3.29,1.36,1.37,1.37
77.40,5.05,3.74,5.04,3.73,-3.73,-3.80,-3.31,1.32,1.31,1.31
78.17,5.05,3.81,5.02,3.77,-3.77,-3.84,-3.32,1.28,1.25,1.24
78.95,5.05,3.85,5.01,3.81,-3.81,-3.88,-3.34,1.23,1.19,1.20
79.74,5.05,3.91,5.00,3.86,-3.86,-3.92,-3.36,1.19,1.14,1.14
80.54,4.98,3.89,4.98,3.90,-3.90,-3.95,-3.38,1.07,1.08,1.08
81.35,4.94,3.92,4.97,3.95,-3.95,-3.99,-3.40,0.98,1.02,1.02
82.16,4.97,4.00,4.96,4.00,-4.00,-4.03,-3.43,0.97,0.97,0.96
82.98,5.01,4.09,4.94,4.03,-4.03,-4.06,-3.45,0.97,0.91,0.92
83.81,4.89,4.03,4.92,4.07,-4.07,-4.10,-3.48,0.82,0.85,0.85
84.65,4.86,4.06,4.89,4.10,-4.10,-4.13,-3.52,0.76,0.80,0.80
85.50,4.86,4.11,4.87,4.13,-4.13,-4.16,-3.55,0.73,0.74,0.75
86.35,4.86,4.17,4.85,4.17,-4.17,-4.19,-3.59,0.69,0.68,0.69
87.22,4.86,4.23,4.83,4.20,-4.20,-4.22,-3.63,0.66,0.62,0.63
88.09,4.85,4.28,4.80,4.24,-4.24,-4.24,-3.68,0.61,0.56,0.57
88.97,4.74,4.23,4.78,4.28,-4.28,-4.27,-3.73,0.46,0.51,0.51
89.86,4.77,4.32,4.76,4.31,-4.31,-4.30,-3.78,0.45,0.45,0.44
90.76,4.70,4.31,4.73,4.35,-4.35,-4.32,-3.83,0.35,0.39,0.38
91.66,4.67,4.34,4.70,4.38,-4.38,-4.34,-3.88,0.29,0.33,0.33
92.58,4.68,4.42,4.68,4.41,-4.41,-4.37,-3.94,0.26,0.27,0.26
93.51,4.68,4.48,4.66,4.45,-4.45,-4.39,-4.00,0.23,0.21,0.20
94.44,4.68,4.53,4.63,4.48,-4.48,-4.41,-4.07,0.19,0.15,0.15
95.39,4.62,4.53,4.60,4.51,-4.51,-4.43,-4.13,0.10,0.09,0.09
96.34,4.55,4.52,4.58,4.55,-4.55,-4.44,-4.20,0.00,0.03,0.03
97.30,4.55,4.58,4.55,4.57,-4.57,-4.46,-4.27,-0.03,-0.03,-0.03
98.28,4.49,4.57,4.51,4.60,-4.60,-4.48,-4.34,-0.11,-0.09,-0.09
99.26,4.45,4.59,4.47,4.62,-4.62,-4.50,-4.42,-0.17,-0.14,-0.14
100.25,4.43,4.63,4.42,4.62,-4.62,-4.51,-4.50,-0.20,-0.20,-0.20
101.25,4.41,4.67,4.37,4.63,-4.63,-4.53,-4.57,-0.22,-0.26,-0.26
102.27,4.38,4.69,4.33,4.65,-4.65,-4.54,-4.65,-0.27,-0.32,-0.32
103.29,4.32,4.70,4.28,4.66,-4.66,-4.56,-4.73,-0.34,-0.38,-0.38
104.32,4.27,4.70,4.23,4.67,-4.67,-4.57,-4.81,-0.40,-0.44,-0.43
105.37,4.22,4.71,4.18,4.68,-4.68,-4.59,-4.89,-0.46,-0.50,-0.49
106.42,4.11,4.65,4.13,4.69,-4.69,-4.60,-4.97,-0.58,-0.56,-0.55
107.48,4.00,4.61,4.08,4.70,-4.70,-4.62,-5.05,-0.71,-0.62,-0.61
108.56,3.93,4.61,4.03,4.71,-4.71,-4.63,-5.13,-0.79,-0.68,-0.68
109.64,3.94,4.68,3.98,4.72,-4.72,-4.65,-5.21,-0.79,-0.74,-0.74
110.74,3.95,4.75,3.93,4.74,-4.74,-4.66,-5.28,-0.79,-0.81,-0.81
111.85,3.98,4.83,3.88,4.75,-4.75,-4.68,-5.35,-0.77,-0.87,-0.85
112.97,3.97,4.90,3.84,4.77,-4.77,-4.69,-5.42,-0.80,-0.93,-0.93
114.10,3.79,4.78,3.80,4.79,-4.79,-4.71,-5.49,-1.00,-0.98,-0.99
115.24,3.67,4.71,3.77,4.81,-4.81,-4.73,-5.55,-1.14,-1.04,-1.04
116.39,3.70,4.81,3.73,4.83,-4.83,-4.74,-5.60,-1.13,-1.10,-1.11
117.55,3.72,4.87,3.70,4.85,-4.85,-4.76,-5.65,-1.13,-1.15,-1.16
118.73,3.72,4.93,3.67,4.87,-4.87,-4.78,-5.69,-1.16,-1.20,-1.21
119.92,3.60,4.84,3.64,4.89,-4.89,-4.80,-5.73,-1.29,-1.25,-1.24
121.12,3.62,4.92,3.61,4.90,-4.90,-4.82,-5.76,-1.29,-1.29,-1.30
122.33,3.63,4.97,3.59,4.93,-4.93,-4.84,-5.78,-1.30,-1.34,-1.34
123.55,3.59,4.96,3.58,4.96,-4.96,-4.86,-5.80,-1.37,-1.38,-1.37
124.79,3.57,4.98,3.56,4.98,-4.98,-4.88,-5.81,-1.41,-1.42,-1.42
126.03,3.52,4.97,3.54,5.00,-5.00,-4.91,-5.81,-1.49,-1.46,-1.46
127.29,3.46,4.95,3.53,5.04,-5.04,-4.93,-5.80,-1.58,-1.50,-1.49
128.57,3.46,5.00,3.52,5.06,-5.06,-4.95,-5.79,-1.60,-1.54,-1.54
129.85,3.50,5.07,3.50,5.07,-5.07,-4.98,-5.77,-1.58,-1.58,-1.58
131.15,3.50,5.11,3.48,5.09,-5.09,-5.00,-5.74,-1.60,-1.61,-1.62
132.46,3.52,5.17,3.46,5.12,-5.12,-5.02,-5.71,-1.60,-1.65,-1.65
133.79,3.58,5.27,3.45,5.14,-5.14,-5.05,-5.66,-1.56,-1.69,-1.69
135.12,3.56,5.29,3.43,5.15,-5.15,-5.07,-5.62,-1.60,-1.73,-1.74
136.48,3.34,5.10,3.41,5.17,-5.17,-5.09,-5.57,-1.83,-1.76,-1.76
137.84,3.26,5.06,3.39,5.18,-5.18,-5.12,-5.51,-1.93,-1.80,-1.80
139.22,3.30,5.14,3.36,5.20,-5.20,-5.14,-5.45,-1.90,-1.84,-1.85
140.61,3.33,5.22,3.34,5.21,-5.21,-5.16,-5.39,-1.89,-1.87,-1.89
142.02,3.33,5.24,3.32,5.23,-5.23,-5.18,-5.32,-1.90,-1.91,-1.91
143.44,3.29,5.24,3.29,5.25,-5.25,-5.20,-5.25,-1.96,-1.96,-1.95
144.87,3.25,5.25,3.25,5.26,-5.26,-5.22,-5.18,-2.01,-2.00,-2.00
146.32,3.18,5.23,3.20,5.26,-5.26,-5.24,-5.11,-2.08,-2.06,-2.05
147.78,3.14,5.22,3.14,5.25,-5.25,-5.25,-5.04,-2.12,-2.11,-2.09
149.26,3.12,5.26,3.08,5.25,-5.25,-5.27,-4.97,-2.14,-2.17,-2.14
150.75,3.07,5.29,3.01,5.25,-5.25,-5.28,-4.89,-2.18,-2.24,-2.22
152.26,3.01,5.30,2.93,5.24,-5.24,-5.29,-4.82,-2.24,-2.31,-2.29
153.78,2.92,5.28,2.84,5.22,-5.22,-5.29,-4.75,-2.31,-2.39,-2.37
155.32,2.87,5.32,2.74,5.20,-5.20,-5.29,-4.68,-2.33,-2.46,-2.45
156.88,2.78,5.31,2.65,5.19,-5.19,-5.30,-4.61,-2.41,-2.54,-2.53
158.44,2.54,5.16,2.56,5.18,-5.18,-5.29,-4.54,-2.64,-2.62,-2.62
160.03,2.34,5.05,2.47,5.16,-5.16,-5.29,-4.48,-2.83,-2.69,-2.71
161.63,2.20,4.99,2.39,5.15,-5.15,-5.28,-4.42,-2.95,-2.76,-2.79
163.24,2.19,5.04,2.31,5.14,-5.14,-5.27,-4.36,-2.95,-2.83,-2.86
164.88,2.19,5.10,2.23,5.13,-5.13,-5.25,-4.30,-2.94,-2.90,-2.91
166.53,2.04,5.01,2.17,5.12,-5.12,-5.23,-4.25,-3.08,-2.95,-2.97
168.19,2.10,5.11,2.12,5.11,-5.11,-5.21,-4.19,-3.02,-3.00,-3.01
169.87,2.14,5.19,2.07,5.11,-5.11,-5.18,-4.14,-2.97,-3.03,-3.06
171.57,2.13,5.21,2.03,5.10,-5.10,-5.15,-4.10,-2.97,-3.07,-3.08
173.29,2.09,5.19,2.00,5.09,-5.09,-5.11,-4.06,-3.00,-3.09,-3.10
175.02,1.96,5.07,1.97,5.08,-5.08,-5.08,-4.02,-3.12,-3.11,-3.11
176.77,1.94,5.07,1.94,5.07,-5.07,-5.04,-3.98,-3.14,-3.13,-3.13
178.54,1.94,5.08,1.92,5.06,-5.06,-4.99,-3.94,-3.12,-3.14,-3.14
180.32,1.91,5.05,1.88,5.03,-5.03,-4.94,-3.91,-3.12,-3.15,-3.14
182.13,1.87,5.01,1.83,4.99,-4.99,-4.89,-3.89,-3.13,-3.16,-3.14
183.95,1.81,4.96,1.77,4.95,-4.95,-4.84,-3.86,-3.14,-3.17,-3.16
185.79,1.69,4.85,1.71,4.90,-4.90,-4.79,-3.84,-3.21,-3.19,-3.16
187.65,1.61,4.80,1.64,4.84,-4.84,-4.73,-3.82,-3.23,-3.20,-3.19
189.52,1.54,4.74,1.57,4.78,-4.78,-4.67,-3.80,-3.24,-3.21,-3.20
191.42,1.50,4.72,1.50,4.73,-4.73,-4.61,-3.79,-3.23,-3.23,-3.23
193.33,1.43,4.68,1.43,4.68,-4.68,-4.54,-3.78,-3.25,-3.25,-3.25
195.27,1.38,4.65,1.36,4.63,-4.63,-4.48,-3.77,-3.25,-3.27,-3.27
197.22,1.31,4.60,1.27,4.57,-4.57,-4.41,-3.76,-3.26,-3.29,-3.29
199.19,1.18,4.50,1.18,4.50,-4.50,-4.34,-3.76,-3.32,-3.32,-3.32
201.18,1.05,4.39,1.08,4.43,-4.43,-4.27,-3.76,-3.38,-3.34,-3.35
203.19,0.96,4.32,0.98,4.35,-4.35,-4.20,-3.76,-3.39,-3.37,-3.36
205.23,0.91,4.30,0.88,4.27,-4.27,-4.13,-3.76,-3.36,-3.39,-3.39
207.28,0.83,4.23,0.79,4.20,-4.20,-4.06,-3.76,-3.38,-3.41,-3.40
209.35,0.74,4.17,0.69,4.12,-4.12,-3.99,-3.76,-3.39,-3.44,-3.43
211.44,0.65,4.11,0.58,4.03,-4.03,-3.92,-3.77,-3.39,-3.46,-3.47
213.56,0.53,4.00,0.47,3.94,-3.94,-3.85,-3.77,-3.42,-3.48,-3.47
215.69,0.33,3.82,0.37,3.86,-3.86,-3.78,-3.78,-3.53,-3.49,-3.49
217.85,0.13,3.63,0.26,3.77,-3.77,-3.71,-3.78,-3.64,-3.51,-3.51
220.03,0.13,3.65,0.16,3.68,-3.68,-3.64,-3.79,-3.55,-3.52,-3.52
222.23,0.06,3.60,0.07,3.59,-3.59,-3.57,-3.79,-3.54,-3.53,-3.55
224.45,-0.02,3.52,-0.02,3.52,-3.52,-3.50,-3.79,-3.54,-3.53,-3.54
226.70,-0.06,3.48,-0.09,3.44,-3.44,-3.43,-3.79,-3.50,-3.54,-3.54
228.96,-0.07,3.46,-0.16,3.37,-3.37,-3.37,-3.79,-3.44,-3.53,-3.54
231.25,-0.29,3.24,-0.22,3.31,-3.31,-3.30,-3.79,-3.60,-3.53,-3.53
233.57,-0.34,3.18,-0.27,3.25,-3.25,-3.24,-3.79,-3.59,-3.52,-3.52
235.90,-0.28,3.23,-0.31,3.20,-3.20,-3.17,-3.78,-3.49,-3.51,-3.51
238.26,-0.37,3.13,-0.33,3.16,-3.16,-3.11,-3.77,-3.54,-3.49,-3.50
240.64,-0.42,3.06,-0.35,3.13,-3.13,-3.05,-3.76,-3.55,-3.48,-3.48
243.05,-0.38,3.07,-0.36,3.09,-3.09,-2.99,-3.74,-3.48,-3.46,-3.46
245.48,-0.32,3.11,-0.38,3.06,-3.06,-2.93,-3.72,-3.38,-3.44,-3.44
247.93,-0.28,3.12,-0.38,3.03,-3.03,-2.87,-3.69,-3.32,-3.42,-3.41
250.41,-0.37,3.02,-0.38,3.01,-3.01,-2.82,-3.67,-3.39,-3.40,-3.39
252.92,-0.38,2.98,-0.38,3.00,-3.00,-2.76,-3.64,-3.38,-3.37,-3.36
255.45,-0.37,2.97,-0.37,2.98,-2.98,-2.71,-3.60,-3.36,-3.35,-3.34
258.00,-0.36,2.96,-0.34,2.99,-2.99,-2.65,-3.56,-3.35,-3.33,-3.32
260.58,-0.35,2.96,-0.33,2.97,-2.97,-2.60,-3.52,-3.33,-3.30,-3.31
263.19,-0.35,2.92,-0.31,2.97,-2.97,-2.55,-3.47,-3.32,-3.28,-3.28
265.82,-0.35,2.91,-0.29,2.96,-2.96,-2.50,-3.42,-3.32,-3.26,-3.26
268.48,-0.27,2.97,-0.29,2.95,-2.95,-2.46,-3.37,-3.22,-3.24,-3.24
271.16,-0.24,2.97,-0.29,2.92,-2.92,-2.41,-3.32,-3.17,-3.21,-3.21
273.87,-0.27,2.92,-0.29,2.90,-2.90,-2.37,-3.26,-3.17,-3.19,-3.20
276.61,-0.27,2.89,-0.29,2.87,-2.87,-2.32,-3.20,-3.15,-3.16,-3.16
279.38,-0.27,2.87,-0.29,2.85,-2.85,-2.28,-3.14,-3.12,-3.14,-3.14
282.17,-0.24,2.87,-0.30,2.81,-2.81,-2.24,-3.07,-3.06,-3.11,-3.11
284.99,-0.22,2.86,-0.32,2.77,-2.77,-2.20,-3.00,-2.99,-3.09,-3.08
287.84,-0.34,2.72,-0.34,2.72,-2.72,-2.16,-2.94,-3.06,-3.06,-3.07
290.72,-0.32,2.71,-0.36,2.67,-2.67,-2.12,-2.87,-2.99,-3.03,-3.03
293.63,-0.45,2.55,-0.39,2.61,-2.61,-2.08,-2.80,-3.06,-3.00,-3.01
296.57,-0.51,2.46,-0.42,2.55,-2.55,-2.05,-2.73,-3.06,-2.97,-2.97
299.53,-0.49,2.45,-0.46,2.49,-2.49,-2.01,-2.65,-2.98,-2.95,-2.95
302.53,-0.47,2.46,-0.49,2.43,-2.43,-1.98,-2.58,-2.90,-2.92,-2.93
305.55,-0.52,2.36,-0.53,2.37,-2.37,-1.95,-2.51,-2.89,-2.90,-2.89
308.61,-0.56,2.31,-0.56,2.31,-2.31,-1.92,-2.44,-2.87,-2.87,-2.87
311.69,-0.64,2.20,-0.60,2.25,-2.25,-1.89,-2.37,-2.89,-2.85,-2.84
314.81,-0.65,2.16,-0.64,2.19,-2.19,-1.86,-2.30,-2.85,-2.83,-2.82
317.96,-0.64,2.16,-0.67,2.14,-2.14,-1.83,-2.23,-2.78,-2.81,-2.80
321.14,-0.66,2.13,-0.70,2.10,-2.10,-1.80,-2.16,-2.76,-2.79,-2.80
324.35,-0.72,2.06,-0.74,2.04,-2.04,-1.77,-2.09,-2.76,-2.78,-2.78
327.59,-0.78,1.98,-0.78,1.98,-1.98,-1.75,-2.02,-2.76,-2.76,-2.76
330.87,-0.83,1.92,-0.83,1.92,-1.92,-1.72,-1.95,-2.75,-2.75,-2.76
334.18,-0.84,1.90,-0.88,1.85,-1.85,-1.70,-1.89,-2.70,-2.74,-2.74
337.52,-0.91,1.82,-0.93,1.79,-1.79,-1.68,-1.82,-2.71,-2.73,-2.73
340.90,-0.96,1.75,-0.98,1.74,-1.74,-1.65,-1.76,-2.70,-2.72,-2.71
344.30,-1.02,1.68,-1.03,1.68,-1.68,-1.63,-1.69,-2.71,-2.72,-2.71
347.75,-1.08,1.63,-1.08,1.63,-1.63,-1.61,-1.63,-2.71,-2.71,-2.71
351.23,-1.12,1.58,-1.14,1.57,-1.57,-1.59,-1.57,-2.69,-2.71,-2.70
354.74,-1.25,1.45,-1.19,1.51,-1.51,-1.57,-1.51,-2.76,-2.70,-2.71
358.28,-1.35,1.34,-1.24,1.46,-1.46,-1.56,-1.45,-2.81,-2.70,-2.70
361.87,-1.32,1.38,-1.28,1.42,-1.42,-1.54,-1.39,-2.74,-2.70,-2.70
365.49,-1.28,1.41,-1.33,1.37,-1.37,-1.52,-1.34,-2.65,-2.70,-2.69
369.14,-1.32,1.38,-1.38,1.32,-1.32,-1.50,-1.28,-2.65,-2.70,-2.70
372.83,-1.37,1.33,-1.42,1.28,-1.28,-1.49,-1.23,-2.66,-2.70,-2.71
376.56,-1.44,1.27,-1.45,1.26,-1.26,-1.47,-1.17,-2.70,-2.70,-2.71
380.33,-1.48,1.22,-1.48,1.23,-1.23,-1.46,-1.12,-2.71,-2.71,-2.70
384.13,-1.54,1.16,-1.51,1.20,-1.20,-1.45,-1.07,-2.75,-2.71,-2.70
387.97,-1.55,1.16,-1.54,1.17,-1.17,-1.43,-1.02,-2.73,-2.72,-2.71
391.85,-1.55,1.17,-1.57,1.15,-1.15,-1.42,-0.97,-2.70,-2.72,-2.73
395.77,-1.60,1.11,-1.60,1.13,-1.13,-1.41,-0.92,-2.73,-2.73,-2.72
399.73,-1.67,1.06,-1.63,1.10,-1.10,-1.40,-0.88,-2.78,-2.73,-2.73
403.72,-1.67,1.06,-1.67,1.07,-1.07,-1.39,-0.83,-2.74,-2.74,-2.73
407.76,-1.65,1.09,-1.70,1.04,-1.04,-1.38,-0.79,-2.69,-2.74,-2.74
411.84,-1.64,1.10,-1.73,1.02,-1.02,-1.37,-0.75,-2.66,-2.75,-2.74
415.96,-1.72,1.02,-1.75,1.00,-1.00,-1.36,-0.70,-2.72,-2.75,-2.74
420.12,-1.83,0.91,-1.78,0.97,-0.97,-1.35,-0.66,-2.80,-2.75,-2.75
424.32,-1.84,0.90,-1.80,0.94,-0.94,-1.34,-0.62,-2.78,-2.74,-2.75
428.56,-1.83,0.91,-1.82,0.91,-0.91,-1.33,-0.59,-2.74,-2.73,-2.74
432.85,-1.82,0.91,-1.83,0.89,-0.89,-1.33,-0.55,-2.71,-2.72,-2.73
437.18,-1.83,0.89,-1.83,0.86,-0.86,-1.32,-0.52,-2.70,-2.69,-2.72
441.55,-1.84,0.84,-1.83,0.84,-0.84,-1.31,-0.48,-2.68,-2.67,-2.68
445.96,-1.87,0.78,-1.83,0.81,-0.81,-1.31,-0.45,-2.68,-2.64,-2.65
450.42,-1.85,0.77,-1.82,0.78,-0.78,-1.30,-0.42,-2.63,-2.60,-2.62
454.93,-1.82,0.75,-1.81,0.75,-0.75,-1.30,-0.40,-2.57,-2.56,-2.57
459.48,-1.87,0.65,-1.80,0.72,-0.72,-1.29,-0.37,-2.59,-2.52,-2.53
464.07,-1.81,0.66,-1.79,0.69,-0.69,-1.29,-0.35,-2.50,-2.47,-2.48
468.71,-1.73,0.68,-1.77,0.65,-0.65,-1.28,-0.33,-2.39,-2.42,-2.42
473.40,-1.61,0.76,-1.76,0.62,-0.62,-1.28,-0.31,-2.23,-2.38,-2.38
478.13,-1.62,0.70,-1.73,0.60,-0.60,-1.28,-0.29,-2.22,-2.33,-2.32
482.91,-1.76,0.52,-1.70,0.58,-0.58,-1.28,-0.28,-2.34,-2.28,-2.28
487.74,-1.75,0.49,-1.69,0.55,-0.55,-1.27,-0.27,-2.31,-2.24,-2.24
