frequency,raw,error,smoothed,error_smoothed,equalization,parametric_eq,fixed_band_eq,equalized_raw,equalized_smoothed,target
20.00,2.74,0.73,2.74,0.73,-0.72,-0.94,-0.80,2.02,2.02,2.01
20.20,2.78,0.72,2.78,0.72,-0.71,-0.95,-0.82,2.06,2.06,2.06
20.40,2.82,0.71,2.81,0.71,-0.71,-0.97,-0.84,2.11,2.10,2.11
20.61,2.86,0.72,2.85,0.71,-0.71,-0.98,-0.87,2.14,2.14,2.14
20.81,2.89,0.70,2.89,0.71,-0.72,-1.00,-0.89,2.16,2.17,2.19
21.02,2.94,0.71,2.94,0.72,-0.74,-1.02,-0.91,2.20,2.20,2.23
21.23,2.99,0.74,2.99,0.74,-0.76,-1.04,-0.94,2.23,2.23,2.25
21.44,3.05,0.78,3.05,0.78,-0.78,-1.05,-0.96,2.27,2.27,2.27
21.66,3.11,0.82,3.11,0.82,-0.81,-1.07,-0.99,2.29,2.29,2.29
21.87,3.17,0.87,3.17,0.86,-0.85,-1.09,-1.01,2.31,2.31,2.30
22.09,3.22,0.90,3.22,0.90,-0.90,-1.11,-1.04,2.32,2.32,2.32
22.31,3.27,0.94,3.26,0.94,-0.94,-1.12,-1.06,2.32,2.32,2.33
22.54,3.31,0.98,3.31,0.98,-0.99,-1.14,-1.09,2.32,2.32,2.33
22.76,3.36,1.03,3.36,1.03,-1.04,-1.16,-1.12,2.32,2.32,2.33
22.99,3.41,1.09,3.40,1.08,-1.08,-1.18,-1.15,2.33,2.32,2.32
23.22,3.45,1.13,3.45,1.13,-1.13,-1.20,-1.18,2.32,2.32,2.32
23.45,3.50,1.18,3.50,1.18,-1.17,-1.22,-1.21,2.32,2.32,2.32
23.69,3.55,1.22,3.54,1.22,-1.22,-1.24,-1.24,2.32,2.32,2.33
23.92,3.59,1.26,3.59,1.26,-1.27,-1.26,-1.27,2.32,2.32,2.33
24.16,3.64,1.31,3.64,1.31,-1.32,-1.28,-1.30,2.32,2.32,2.33
24.40,3.69,1.35,3.68,1.36,-1.36,-1.30,-1.34,2.33,2.33,2.34
24.65,3.73,1.40,3.73,1.40,-1.40,-1.32,-1.37,2.33,2.33,2.33
24.89,3.78,1.45,3.77,1.44,-1.44,-1.34,-1.40,2.34,2.33,2.33
25.14,3.81,1.48,3.81,1.48,-1.47,-1.36,-1.44,2.34,2.34,2.33
25.39,3.84,1.50,3.84,1.51,-1.50,-1.38,-1.47,2.34,2.34,2.34
25.65,3.87,1.53,3.86,1.53,-1.53,-1.40,-1.50,2.34,2.34,2.34
25.91,3.89,1.56,3.89,1.56,-1.55,-1.43,-1.54,2.34,2.34,2.33
26.16,3.91,1.58,3.91,1.58,-1.57,-1.45,-1.57,2.33,2.33,2.33
26.43,3.93,1.60,3.92,1.60,-1.60,-1.47,-1.61,2.32,2.32,2.33
26.69,3.95,1.62,3.94,1.62,-1.64,-1.49,-1.64,2.31,2.31,2.33
26.96,3.97,1.64,3.98,1.65,-1.68,-1.52,-1.67,2.29,2.30,2.33
27.23,4.02,1.69,4.02,1.70,-1.72,-1.54,-1.71,2.30,2.30,2.33
27.50,4.09,1.76,4.08,1.76,-1.76,-1.56,-1.74,2.32,2.32,2.33
27.77,4.15,1.83,4.14,1.83,-1.81,-1.58,-1.77,2.34,2.34,2.32
28.05,4.20,1.88,4.19,1.88,-1.85,-1.61,-1.80,2.34,2.34,2.32
28.33,4.23,1.92,4.23,1.92,-1.90,-1.63,-1.83,2.33,2.33,2.31
28.62,4.25,1.94,4.25,1.94,-1.94,-1.66,-1.86,2.31,2.31,2.31
28.90,4.27,1.95,4.27,1.96,-1.97,-1.68,-1.89,2.30,2.30,2.32
29.19,4.30,1.99,4.29,1.98,-1.99,-1.70,-1.92,2.31,2.30,2.31
29.48,4.32,2.00,4.32,2.01,-2.01,-1.73,-1.94,2.31,2.31,2.32
29.78,4.35,2.04,4.34,2.03,-2.02,-1.75,-1.97,2.32,2.32,2.31
30.08,4.37,2.05,4.36,2.05,-2.04,-1.78,-1.99,2.33,2.32,2.32
30.38,4.37,2.06,4.37,2.06,-2.06,-1.80,-2.01,2.31,2.31,2.31
30.68,4.38,2.07,4.37,2.07,-2.09,-1.83,-2.03,2.29,2.28,2.31
30.99,4.38,2.07,4.39,2.09,-2.12,-1.86,-2.05,2.26,2.27,2.31
31.30,4.43,2.13,4.43,2.13,-2.15,-1.88,-2.06,2.28,2.28,2.30
31.61,4.48,2.18,4.48,2.18,-2.18,-1.91,-2.08,2.30,2.30,2.30
31.93,4.54,2.24,4.52,2.23,-2.20,-1.93,-2.09,2.33,2.32,2.30
32.24,4.55,2.26,4.55,2.26,-2.23,-1.96,-2.11,2.32,2.32,2.29
32.57,4.56,2.27,4.56,2.28,-2.25,-1.99,-2.12,2.30,2.31,2.29
32.89,4.57,2.28,4.56,2.28,-2.28,-2.01,-2.13,2.29,2.29,2.29
33.22,4.57,2.29,4.56,2.29,-2.30,-2.04,-2.13,2.27,2.26,2.28
33.55,4.57,2.29,4.57,2.29,-2.32,-2.07,-2.14,2.25,2.25,2.28
33.89,4.57,2.30,4.57,2.31,-2.33,-2.09,-2.15,2.23,2.24,2.27
34.23,4.60,2.33,4.60,2.34,-2.35,-2.12,-2.15,2.25,2.26,2.27
34.57,4.64,2.38,4.64,2.38,-2.36,-2.15,-2.16,2.28,2.28,2.26
34.92,4.69,2.43,4.67,2.42,-2.37,-2.18,-2.16,2.31,2.30,2.26
35.27,4.68,2.43,4.67,2.42,-2.39,-2.20,-2.17,2.28,2.28,2.25
35.62,4.66,2.41,4.66,2.41,-2.42,-2.23,-2.17,2.24,2.24,2.25
35.97,4.63,2.38,4.65,2.40,-2.44,-2.26,-2.18,2.19,2.21,2.25
36.33,4.67,2.42,4.67,2.43,-2.47,-2.29,-2.18,2.19,2.19,2.25
36.70,4.72,2.48,4.71,2.47,-2.50,-2.32,-2.19,2.21,2.21,2.24
37.06,4.77,2.53,4.77,2.53,-2.53,-2.35,-2.19,2.23,2.23,2.24
37.43,4.82,2.57,4.82,2.58,-2.56,-2.37,-2.20,2.26,2.26,2.25
37.81,4.87,2.62,4.86,2.62,-2.58,-2.40,-2.21,2.28,2.28,2.25
38.19,4.89,2.65,4.88,2.64,-2.59,-2.43,-2.21,2.29,2.29,2.24
38.57,4.88,2.63,4.88,2.63,-2.59,-2.46,-2.22,2.28,2.29,2.25
38.95,4.86,2.60,4.85,2.60,-2.58,-2.49,-2.23,2.27,2.26,2.26
39.34,4.81,2.56,4.80,2.55,-2.57,-2.52,-2.24,2.24,2.23,2.25
39.74,4.75,2.50,4.76,2.51,-2.55,-2.55,-2.26,2.20,2.21,2.25
40.14,4.72,2.47,4.73,2.49,-2.53,-2.58,-2.27,2.19,2.20,2.25
40.54,4.74,2.49,4.73,2.49,-2.51,-2.60,-2.29,2.23,2.22,2.25
40.94,4.76,2.52,4.75,2.51,-2.50,-2.63,-2.31,2.26,2.25,2.24
41.35,4.76,2.52,4.76,2.53,-2.49,-2.66,-2.32,2.27,2.27,2.24
41.76,4.76,2.53,4.76,2.53,-2.50,-2.69,-2.35,2.26,2.26,2.23
42.18,4.75,2.52,4.74,2.51,-2.52,-2.72,-2.37,2.23,2.22,2.23
42.60,4.73,2.51,4.72,2.51,-2.54,-2.75,-2.39,2.18,2.18,2.22
43.03,4.71,2.50,4.74,2.53,-2.57,-2.78,-2.42,2.13,2.17,2.21
43.46,4.78,2.58,4.77,2.58,-2.60,-2.81,-2.45,2.18,2.17,2.20
43.90,4.84,2.66,4.82,2.64,-2.63,-2.84,-2.48,2.21,2.19,2.18
44.33,4.86,2.70,4.85,2.70,-2.66,-2.87,-2.51,2.20,2.19,2.16
44.78,4.86,2.72,4.86,2.72,-2.69,-2.90,-2.54,2.17,2.17,2.14
45.23,4.86,2.73,4.86,2.73,-2.72,-2.93,-2.58,2.14,2.14,2.13
45.68,4.86,2.74,4.86,2.74,-2.74,-2.96,-2.62,2.12,2.12,2.12
46.13,4.86,2.76,4.86,2.75,-2.75,-2.98,-2.66,2.10,2.10,2.10
46.60,4.86,2.76,4.86,2.77,-2.77,-3.01,-2.70,2.09,2.09,2.10
47.06,4.86,2.78,4.85,2.77,-2.79,-3.04,-2.74,2.07,2.06,2.08
47.53,4.86,2.79,4.85,2.78,-2.81,-3.07,-2.79,2.04,2.04,2.07
48.01,4.86,2.79,4.88,2.82,-2.85,-3.10,-2.84,2.01,2.03,2.07
48.49,4.92,2.87,4.91,2.87,-2.89,-3.13,-2.88,2.03,2.02,2.05
48.97,4.98,2.95,4.97,2.94,-2.93,-3.16,-2.93,2.04,2.03,2.03
49.46,5.01,3.00,5.01,3.01,-2.98,-3.19,-2.99,2.03,2.03,2.01
49.96,5.05,3.06,5.04,3.05,-3.02,-3.22,-3.04,2.03,2.02,1.99
50.46,5.05,3.07,5.05,3.07,-3.05,-3.24,-3.09,2.00,2.00,1.98
50.96,5.05,3.08,5.05,3.09,-3.07,-3.27,-3.15,1.97,1.98,1.97
51.47,5.05,3.10,5.05,3.10,-3.09,-3.30,-3.20,1.96,1.96,1.95
51.99,5.05,3.11,5.05,3.11,-3.11,-3.33,-3.26,1.94,1.94,1.94
52.51,5.05,3.12,5.05,3.12,-3.13,-3.36,-3.32,1.92,1.92,1.93
53.03,5.05,3.12,5.03,3.11,-3.16,-3.39,-3.37,1.89,1.88,1.93
53.56,5.04,3.13,5.04,3.14,-3.19,-3.41,-3.43,1.85,1.85,1.91
54.10,5.05,3.15,5.10,3.20,-3.23,-3.44,-3.49,1.82,1.87,1.90
54.64,5.19,3.31,5.17,3.28,-3.27,-3.47,-3.54,1.91,1.89,1.88
55.18,5.27,3.39,5.23,3.36,-3.32,-3.50,-3.60,1.95,1.92,1.88
55.74,5.26,3.40,5.27,3.41,-3.36,-3.52,-3.65,1.90,1.91,1.86
56.29,5.25,3.40,5.26,3.41,-3.39,-3.55,-3.71,1.86,1.87,1.85
56.86,5.25,3.41,5.25,3.42,-3.42,-3.58,-3.76,1.82,1.82,1.84
57.42,5.25,3.44,5.25,3.43,-3.44,-3.61,-3.81,1.80,1.80,1.81
58.00,5.25,3.45,5.25,3.45,-3.46,-3.63,-3.85,1.79,1.79,1.80
58.58,5.25,3.46,5.25,3.46,-3.47,-3.66,-3.90,1.77,1.77,1.79
59.16,5.25,3.48,5.25,3.48,-3.49,-3.69,-3.94,1.76,1.76,1.77
59.76,5.25,3.50,5.25,3.51,-3.51,-3.71,-3.98,1.73,1.73,1.75
60.35,5.25,3.54,5.25,3.54,-3.55,-3.74,-4.01,1.70,1.70,1.71
60.96,5.25,3.58,5.25,3.58,-3.58,-3.76,-4.04,1.67,1.67,1.67
61.57,5.25,3.62,5.25,3.62,-3.62,-3.79,-4.07,1.63,1.63,1.63
62.18,5.25,3.66,5.25,3.66,-3.66,-3.82,-4.10,1.59,1.59,1.59
62.80,5.25,3.71,5.25,3.71,-3.70,-3.84,-4.12,1.54,1.54,1.54
63.43,5.25,3.75,5.25,3.75,-3.75,-3.87,-4.14,1.50,1.50,1.50
64.07,5.25,3.80,5.25,3.80,-3.80,-3.89,-4.15,1.45,1.45,1.45
64.71,5.25,3.84,5.25,3.84,-3.84,-3.92,-4.16,1.41,1.41,1.41
65.35,5.25,3.88,5.25,3.88,-3.89,-3.95,-4.17,1.36,1.36,1.37
66.01,5.25,3.93,5.25,3.93,-3.93,-3.97,-4.18,1.31,1.31,1.32
66.67,5.25,3.98,5.25,3.98,-3.98,-4.00,-4.18,1.27,1.27,1.27
67.33,5.25,4.03,5.25,4.03,-4.03,-4.02,-4.18,1.22,1.22,1.22
68.01,5.25,4.07,5.25,4.07,-4.08,-4.05,-4.18,1.17,1.17,1.18
68.69,5.25,4.12,5.25,4.12,-4.13,-4.07,-4.17,1.12,1.12,1.13
69.37,5.25,4.17,5.25,4.17,-4.18,-4.10,-4.17,1.07,1.07,1.08
70.07,5.25,4.22,5.25,4.22,-4.22,-4.12,-4.16,1.02,1.03,1.03
70.77,5.25,4.27,5.25,4.28,-4.26,-4.15,-4.15,0.99,0.99,0.98
71.48,5.25,4.32,5.24,4.32,-4.29,-4.17,-4.14,0.96,0.95,0.93
72.19,5.23,4.37,5.21,4.35,-4.32,-4.20,-4.13,0.91,0.89,0.86
72.91,5.16,4.36,5.16,4.36,-4.35,-4.22,-4.13,0.81,0.81,0.80
73.64,5.09,4.34,5.10,4.36,-4.38,-4.25,-4.12,0.71,0.72,0.75
74.38,5.05,4.36,5.06,4.37,-4.41,-4.27,-4.11,0.64,0.65,0.69
75.12,5.05,4.42,5.04,4.42,-4.45,-4.30,-4.10,0.60,0.59,0.63
75.87,5.05,4.48,5.04,4.47,-4.48,-4.32,-4.10,0.56,0.56,0.57
76.63,5.05,4.53,5.05,4.53,-4.53,-4.34,-4.09,0.52,0.52,0.52
77.40,5.05,4.58,5.05,4.59,-4.57,-4.37,-4.09,0.48,0.48,0.47
78.17,5.05,4.64,5.05,4.64,-4.62,-4.39,-4.09,0.43,0.44,0.41
78.95,5.05,4.68,5.05,4.68,-4.66,-4.42,-4.09,0.38,0.38,0.37
79.74,5.05,4.73,5.02,4.70,-4.71,-4.44,-4.10,0.34,0.31,0.32
80.54,4.98,4.71,4.98,4.72,-4.74,-4.47,-4.10,0.24,0.25,0.27
81.35,4.94,4.72,4.98,4.76,-4.76,-4.49,-4.11,0.17,0.21,0.22
82.16,4.97,4.80,4.96,4.79,-4.79,-4.52,-4.12,0.18,0.18,0.17
82.98,5.01,4.88,4.95,4.83,-4.81,-4.55,-4.14,0.19,0.13,0.13
83.81,4.89,4.81,4.92,4.84,-4.84,-4.57,-4.15,0.05,0.08,0.08
84.65,4.86,4.83,4.88,4.85,-4.87,-4.60,-4.18,-0.01,0.01,0.03
85.50,4.86,4.87,4.85,4.87,-4.89,-4.62,-4.20,-0.04,-0.05,-0.01
86.35,4.86,4.92,4.86,4.93,-4.92,-4.65,-4.23,-0.06,-0.05,-0.06
87.22,4.86,4.97,4.85,4.96,-4.94,-4.67,-4.26,-0.08,-0.10,-0.11
88.09,4.85,5.01,4.82,4.99,-4.97,-4.70,-4.29,-0.12,-0.14,-0.16
88.97,4.74,4.96,4.78,5.00,-4.99,-4.73,-4.33,-0.26,-0.21,-0.22
89.86,4.77,5.04,4.74,5.01,-5.02,-4.75,-4.37,-0.26,-0.29,-0.27
90.76,4.70,5.02,4.70,5.02,-5.06,-4.78,-4.41,-0.36,-0.36,-0.32
91.66,4.67,5.04,4.69,5.07,-5.09,-4.80,-4.46,-0.42,-0.40,-0.37
92.58,4.68,5.11,4.67,5.10,-5.11,-4.83,-4.51,-0.43,-0.43,-0.43
93.51,4.68,5.16,4.68,5.16,-5.13,-4.86,-4.56,-0.46,-0.46,-0.48
94.44,4.68,5.20,4.65,5.18,-5.15,-4.88,-4.62,-0.48,-0.50,-0.52
95.39,4.62,5.19,4.62,5.19,-5.18,-4.91,-4.68,-0.56,-0.56,-0.57
96.34,4.55,5.17,4.57,5.20,-5.20,-4.94,-4.74,-0.65,-0.62,-0.62
97.30,4.55,5.22,4.52,5.20,-5.21,-4.97,-4.80,-0.67,-0.69,-0.67
98.28,4.49,5.21,4.49,5.21,-5.23,-4.99,-4.87,-0.74,-0.74,-0.72
99.26,4.45,5.21,4.46,5.23,-5.24,-5.02,-4.94,-0.80,-0.79,-0.76
100.25,4.43,5.24,4.43,5.24,-5.25,-5.05,-5.01,-0.83,-0.83,-0.81
101.25,4.41,5.27,4.40,5.27,-5.26,-5.08,-5.08,-0.85,-0.86,-0.86
102.27,4.38,5.29,4.37,5.28,-5.26,-5.10,-5.16,-0.88,-0.89,-0.91
103.29,4.32,5.28,4.33,5.29,-5.25,-5.13,-5.23,-0.93,-0.92,-0.96
104.32,4.27,5.27,4.27,5.28,-5.24,-5.16,-5.31,-0.97,-0.97,-1.00
105.37,4.22,5.27,4.20,5.25,-5.23,-5.18,-5.39,-1.01,-1.04,-1.05
106.42,4.11,5.21,4.10,5.21,-5.23,-5.21,-5.46,-1.12,-1.13,-1.10
107.48,4.00,5.16,4.01,5.17,-5.23,-5.24,-5.54,-1.24,-1.22,-1.16
108.56,3.93,5.14,3.95,5.16,-5.23,-5.26,-5.62,-1.31,-1.29,-1.21
109.64,3.94,5.20,3.93,5.20,-5.24,-5.29,-5.69,-1.30,-1.30,-1.26
110.74,3.95,5.27,3.96,5.28,-5.24,-5.32,-5.76,-1.29,-1.28,-1.32
111.85,3.98,5.34,3.97,5.34,-5.25,-5.34,-5.83,-1.28,-1.29,-1.36
112.97,3.97,5.39,3.90,5.32,-5.27,-5.37,-5.90,-1.30,-1.37,-1.42
114.10,3.79,5.26,3.81,5.28,-5.29,-5.39,-5.96,-1.50,-1.48,-1.47
115.24,3.67,5.19,3.73,5.25,-5.30,-5.42,-6.02,-1.63,-1.57,-1.52
116.39,3.70,5.27,3.69,5.27,-5.31,-5.44,-6.07,-1.61,-1.62,-1.57
117.55,3.72,5.33,3.69,5.30,-5.32,-5.46,-6.11,-1.60,-1.63,-1.61
118.73,3.72,5.37,3.68,5.33,-5.32,-5.48,-6.15,-1.60,-1.64,-1.65
119.92,3.60,5.28,3.65,5.34,-5.32,-5.50,-6.19,-1.73,-1.67,-1.68
121.12,3.62,5.34,3.62,5.34,-5.33,-5.53,-6.21,-1.72,-1.72,-1.72
122.33,3.63,5.38,3.60,5.36,-5.34,-5.54,-6.23,-1.72,-1.74,-1.75
123.55,3.59,5.37,3.60,5.38,-5.35,-5.56,-6.24,-1.76,-1.75,-1.78
124.79,3.57,5.38,3.56,5.37,-5.36,-5.58,-6.25,-1.79,-1.80,-1.81
126.03,3.52,5.36,3.51,5.35,-5.37,-5.60,-6.24,-1.85,-1.86,-1.84
127.29,3.46,5.32,3.48,5.35,-5.39,-5.61,-6.23,-1.94,-1.92,-1.86
128.57,3.46,5.36,3.47,5.37,-5.42,-5.62,-6.21,-1.97,-1.96,-1.90
129.85,3.50,5.43,3.47,5.41,-5.45,-5.64,-6.18,-1.95,-1.97,-1.93
131.15,3.50,5.46,3.51,5.47,-5.46,-5.65,-6.15,-1.96,-1.95,-1.96
132.46,3.52,5.51,3.55,5.55,-5.47,-5.66,-6.11,-1.95,-1.92,-1.99
133.79,3.58,5.60,3.55,5.57,-5.48,-5.66,-6.06,-1.91,-1.94,-2.02
135.12,3.56,5.61,3.48,5.53,-5.49,-5.67,-6.01,-1.94,-2.01,-2.05
136.48,3.34,5.41,3.39,5.47,-5.50,-5.67,-5.95,-2.16,-2.11,-2.07
137.84,3.26,5.37,3.31,5.42,-5.50,-5.67,-5.88,-2.24,-2.19,-2.11
139.22,3.30,5.44,3.28,5.42,-5.49,-5.67,-5.81,-2.20,-2.21,-2.14
140.61,3.33,5.50,3.31,5.48,-5.48,-5.67,-5.74,-2.15,-2.17,-2.17
142.02,3.33,5.52,3.32,5.52,-5.47,-5.67,-5.67,-2.15,-2.15,-2.19
143.44,3.29,5.51,3.29,5.52,-5.48,-5.66,-5.59,-2.19,-2.19,-2.22
144.87,3.25,5.51,3.24,5.50,-5.49,-5.65,-5.51,-2.24,-2.25,-2.26
146.32,3.18,5.48,3.19,5.49,-5.50,-5.64,-5.43,-2.33,-2.32,-2.30
147.78,3.14,5.47,3.15,5.49,-5.52,-5.63,-5.35,-2.38,-2.37,-2.33
149.26,3.12,5.50,3.11,5.49,-5.53,-5.61,-5.27,-2.41,-2.42,-2.38
150.75,3.07,5.51,3.06,5.51,-5.52,-5.59,-5.19,-2.46,-2.46,-2.44
152.26,3.01,5.52,3.00,5.52,-5.51,-5.57,-5.10,-2.50,-2.50,-2.51
153.78,2.92,5.50,2.95,5.53,-5.48,-5.55,-5.02,-2.56,-2.53,-2.58
155.32,2.87,5.52,2.86,5.52,-5.44,-5.53,-4.95,-2.58,-2.58,-2.65
156.88,2.78,5.51,2.72,5.46,-5.40,-5.50,-4.87,-2.62,-2.68,-2.73
158.44,2.54,5.35,2.54,5.36,-5.35,-5.47,-4.79,-2.82,-2.81,-2.81
160.03,2.34,5.23,2.36,5.25,-5.31,-5.44,-4.72,-2.97,-2.95,-2.89
161.63,2.20,5.16,2.24,5.20,-5.27,-5.41,-4.65,-3.08,-3.03,-2.96
163.24,2.19,5.21,2.17,5.19,-5.25,-5.37,-4.58,-3.06,-3.09,-3.02
164.88,2.19,5.26,2.12,5.20,-5.24,-5.33,-4.52,-3.05,-3.12,-3.07
166.53,2.04,5.16,2.11,5.23,-5.24,-5.30,-4.45,-3.20,-3.13,-3.12
168.19,2.10,5.26,2.10,5.27,-5.25,-5.25,-4.39,-3.15,-3.15,-3.16
169.87,2.14,5.34,2.11,5.31,-5.26,-5.21,-4.34,-3.13,-3.15,-3.20
171.57,2.13,5.35,2.12,5.34,-5.28,-5.17,-4.28,-3.15,-3.16,-3.22
173.29,2.09,5.32,2.06,5.30,-5.28,-5.12,-4.23,-3.19,-3.22,-3.23
175.02,1.96,5.20,2.00,5.24,-5.26,-5.07,-4.19,-3.31,-3.27,-3.24
176.77,1.94,5.19,1.95,5.20,-5.24,-5.02,-4.14,-3.30,-3.29,-3.25
178.54,1.94,5.20,1.92,5.18,-5.19,-4.97,-4.10,-3.26,-3.27,-3.26
180.32,1.91,5.16,1.91,5.17,-5.14,-4.92,-4.06,-3.23,-3.23,-3.25
182.13,1.87,5.11,1.86,5.11,-5.08,-4.87,-4.03,-3.21,-3.22,-3.24
183.95,1.81,5.06,1.79,5.04,-5.02,-4.81,-4.00,-3.22,-3.24,-3.25
185.79,1.69,4.94,1.70,4.96,-4.97,-4.76,-3.97,-3.29,-3.27,-3.25
187.65,1.61,4.88,1.62,4.89,-4.92,-4.70,-3.94,-3.32,-3.31,-3.27
189.52,1.54,4.82,1.54,4.83,-4.87,-4.64,-3.92,-3.33,-3.33,-3.28
191.42,1.50,4.80,1.49,4.79,-4.80,-4.59,-3.90,-3.31,-3.32,-3.30
193.33,1.43,4.75,1.44,4.76,-4.74,-4.53,-3.88,-3.31,-3.30,-3.32
195.27,1.38,4.72,1.38,4.72,-4.68,-4.47,-3.87,-3.30,-3.30,-3.34
197.22,1.31,4.67,1.29,4.65,-4.62,-4.41,-3.86,-3.31,-3.33,-3.36
199.19,1.18,4.56,1.18,4.56,-4.56,-4.35,-3.84,-3.39,-3.39,-3.38
201.18,1.05,4.45,1.06,4.47,-4.50,-4.29,-3.84,-3.46,-3.44,-3.40
203.19,0.96,4.38,0.97,4.39,-4.44,-4.23,-3.83,-3.48,-3.47,-3.42
205.23,0.91,4.35,0.89,4.33,-4.36,-4.17,-3.83,-3.45,-3.46,-3.44
207.28,0.83,4.28,0.82,4.28,-4.27,-4.10,-3.82,-3.44,-3.44,-3.45
209.35,0.74,4.21,0.75,4.23,-4.17,-4.04,-3.82,-3.43,-3.42,-3.47
211.44,0.65,4.15,0.64,4.14,-4.07,-3.98,-3.82,-3.43,-3.43,-3.50
213.56,0.53,4.04,0.49,4.00,-3.98,-3.92,-3.82,-3.46,-3.50,-3.51
215.69,0.33,3.85,0.33,3.85,-3.89,-3.86,-3.82,-3.57,-3.56,-3.52
217.85,0.13,3.66,0.20,3.73,-3.80,-3.80,-3.82,-3.67,-3.60,-3.53
220.03,0.13,3.67,0.09,3.64,-3.71,-3.74,-3.82,-3.58,-3.61,-3.54
222.23,0.06,3.63,0.03,3.60,-3.61,-3.68,-3.82,-3.56,-3.58,-3.57
224.45,-0.02,3.54,0.01,3.58,-3.53,-3.62,-3.81,-3.55,-3.51,-3.56
226.70,-0.06,3.50,-0.06,3.50,-3.45,-3.56,-3.81,-3.51,-3.51,-3.56
228.96,-0.07,3.48,-0.16,3.40,-3.38,-3.50,-3.81,-3.45,-3.54,-3.55
231.25,-0.29,3.25,-0.23,3.32,-3.32,-3.44,-3.80,-3.61,-3.55,-3.54
233.57,-0.34,3.19,-0.30,3.24,-3.26,-3.38,-3.79,-3.60,-3.56,-3.53
235.90,-0.28,3.24,-0.36,3.17,-3.21,-3.32,-3.78,-3.49,-3.57,-3.52
238.26,-0.37,3.14,-0.37,3.14,-3.16,-3.27,-3.77,-3.53,-3.53,-3.51
240.64,-0.42,3.06,-0.38,3.10,-3.12,-3.21,-3.75,-3.54,-3.50,-3.48
243.05,-0.38,3.07,-0.37,3.09,-3.09,-3.15,-3.73,-3.47,-3.46,-3.45
245.48,-0.32,3.11,-0.34,3.09,-3.06,-3.10,-3.71,-3.39,-3.40,-3.43
247.93,-0.28,3.12,-0.33,3.08,-3.04,-3.04,-3.68,-3.32,-3.37,-3.40
250.41,-0.37,3.01,-0.34,3.04,-3.02,-2.99,-3.65,-3.39,-3.36,-3.38
252.92,-0.38,2.97,-0.37,2.99,-3.00,-2.93,-3.62,-3.38,-3.37,-3.35
255.45,-0.37,2.96,-0.38,2.95,-2.98,-2.88,-3.58,-3.35,-3.36,-3.33
258.00,-0.36,2.95,-0.36,2.95,-2.96,-2.83,-3.54,-3.32,-3.33,-3.31
260.58,-0.35,2.94,-0.36,2.93,-2.95,-2.78,-3.49,-3.30,-3.31,-3.29
263.19,-0.35,2.91,-0.35,2.92,-2.93,-2.73,-3.45,-3.28,-3.28,-3.26
265.82,-0.35,2.89,-0.32,2.92,-2.92,-2.68,-3.40,-3.28,-3.24,-3.24
268.48,-0.27,2.95,-0.29,2.93,-2.92,-2.63,-3.34,-3.19,-3.21,-3.22
271.16,-0.24,2.95,-0.27,2.93,-2.92,-2.58,-3.29,-3.16,-3.18,-3.19
273.87,-0.27,2.90,-0.26,2.91,-2.91,-2.53,-3.23,-3.18,-3.17,-3.17
276.61,-0.27,2.87,-0.27,2.88,-2.89,-2.48,-3.17,-3.16,-3.16,-3.14
279.38,-0.27,2.84,-0.25,2.86,-2.86,-2.44,-3.10,-3.13,-3.11,-3.11
282.17,-0.24,2.85,-0.25,2.83,-2.82,-2.39,-3.04,-3.06,-3.07,-3.09
284.99,-0.22,2.83,-0.26,2.80,-2.76,-2.35,-2.97,-2.98,-3.02,-3.05
287.84,-0.34,2.69,-0.30,2.74,-2.70,-2.30,-2.90,-3.05,-3.00,-3.03
290.72,-0.32,2.68,-0.37,2.63,-2.64,-2.26,-2.83,-2.96,-3.01,-3.00
293.63,-0.45,2.52,-0.44,2.53,-2.58,-2.21,-2.76,-3.03,-3.02,-2.97
296.57,-0.51,2.43,-0.47,2.47,-2.51,-2.17,-2.69,-3.02,-2.98,-2.94
299.53,-0.49,2.42,-0.50,2.41,-2.43,-2.13,-2.62,-2.93,-2.94,-2.91
302.53,-0.47,2.42,-0.50,2.39,-2.37,-2.09,-2.55,-2.84,-2.87,-2.89
305.55,-0.52,2.33,-0.52,2.34,-2.31,-2.05,-2.48,-2.83,-2.83,-2.85
308.61,-0.56,2.27,-0.57,2.26,-2.26,-2.01,-2.40,-2.82,-2.83,-2.83
311.69,-0.64,2.16,-0.62,2.18,-2.21,-1.97,-2.33,-2.85,-2.83,-2.80
314.81,-0.65,2.13,-0.64,2.14,-2.16,-1.93,-2.26,-2.81,-2.80,-2.78
317.96,-0.64,2.12,-0.66,2.11,-2.11,-1.89,-2.19,-2.75,-2.77,-2.76
321.14,-0.66,2.09,-0.68,2.07,-2.06,-1.86,-2.12,-2.72,-2.73,-2.75
324.35,-0.72,2.01,-0.72,2.01,-2.00,-1.82,-2.05,-2.72,-2.72,-2.73
327.59,-0.78,1.94,-0.77,1.95,-1.95,-1.79,-1.98,-2.73,-2.72,-2.72
330.87,-0.83,1.88,-0.82,1.89,-1.90,-1.75,-1.92,-2.73,-2.72,-2.71
334.18,-0.84,1.85,-0.86,1.83,-1.84,-1.72,-1.85,-2.68,-2.70,-2.69
337.52,-0.91,1.77,-0.91,1.78,-1.77,-1.68,-1.78,-2.69,-2.68,-2.68
340.90,-0.96,1.71,-0.96,1.71,-1.70,-1.65,-1.72,-2.66,-2.66,-2.67
344.30,-1.02,1.64,-1.02,1.65,-1.63,-1.61,-1.65,-2.65,-2.64,-2.66
347.75,-1.08,1.58,-1.07,1.59,-1.56,-1.58,-1.59,-2.64,-2.64,-2.66
351.23,-1.12,1.53,-1.16,1.50,-1.50,-1.55,-1.53,-2.63,-2.67,-2.65
354.74,-1.25,1.41,-1.25,1.41,-1.45,-1.52,-1.47,-2.70,-2.70,-2.66
358.28,-1.35,1.30,-1.30,1.35,-1.40,-1.49,-1.41,-2.76,-2.70,-2.65
361.87,-1.32,1.33,-1.32,1.33,-1.36,-1.46,-1.35,-2.68,-2.68,-2.65
365.49,-1.28,1.36,-1.32,1.33,-1.31,-1.43,-1.29,-2.60,-2.63,-2.64
369.14,-1.32,1.33,-1.33,1.33,-1.28,-1.40,-1.24,-2.60,-2.60,-2.65
372.83,-1.37,1.28,-1.37,1.29,-1.25,-1.37,-1.18,-2.62,-2.62,-2.65
376.56,-1.44,1.22,-1.44,1.22,-1.22,-1.34,-1.13,-2.66,-2.65,-2.66
380.33,-1.48,1.17,-1.49,1.16,-1.18,-1.31,-1.08,-2.67,-2.68,-2.65
384.13,-1.54,1.11,-1.53,1.13,-1.15,-1.28,-1.02,-2.69,-2.68,-2.65
387.97,-1.55,1.11,-1.55,1.12,-1.12,-1.25,-0.97,-2.67,-2.67,-2.66
391.85,-1.55,1.12,-1.58,1.09,-1.09,-1.22,-0.92,-2.65,-2.67,-2.67
395.77,-1.60,1.06,-1.61,1.06,-1.07,-1.20,-0.87,-2.67,-2.68,-2.66
399.73,-1.67,1.00,-1.65,1.03,-1.05,-1.17,-0.83,-2.72,-2.69,-2.67
403.72,-1.67,1.00,-1.66,1.02,-1.02,-1.14,-0.78,-2.70,-2.68,-2.67
407.76,-1.65,1.04,-1.66,1.03,-1.00,-1.11,-0.74,-2.65,-2.66,-2.69
411.84,-1.64,1.05,-1.68,1.01,-0.97,-1.08,-0.69,-2.62,-2.65,-2.69
415.96,-1.72,0.97,-1.73,0.96,-0.95,-1.05,-0.65,-2.67,-2.68,-2.69
420.12,-1.83,0.86,-1.80,0.90,-0.92,-1.03,-0.61,-2.76,-2.72,-2.69
424.32,-1.84,0.85,-1.84,0.85,-0.90,-1.00,-0.57,-2.74,-2.73,-2.69
428.56,-1.83,0.85,-1.84,0.84,-0.87,-0.97,-0.53,-2.70,-2.71,-2.68
432.85,-1.82,0.85,-1.83,0.85,-0.83,-0.94,-0.49,-2.65,-2.66,-2.67
437.18,-1.83,0.83,-1.84,0.82,-0.79,-0.91,-0.46,-2.62,-2.63,-2.66
441.55,-1.84,0.78,-1.85,0.78,-0.76,-0.88,-0.42,-2.60,-2.61,-2.62
445.96,-1.87,0.72,-1.85,0.75,-0.73,-0.85,-0.39,-2.61,-2.58,-2.59
450.42,-1.85,0.71,-1.86,0.70,-0.72,-0.81,-0.36,-2.57,-2.57,-2.56
454.93,-1.82,0.69,-1.86,0.66,-0.70,-0.78,-0.33,-2.52,-2.56,-2.51
459.48,-1.87,0.60,-1.84,0.63,-0.67,-0.74,-0.31,-2.55,-2.52,-2.47
464.07,-1.81,0.61,-1.79,0.63,-0.65,-0.71,-0.28,-2.46,-2.44,-2.42
468.71,-1.73,0.63,-1.71,0.66,-0.62,-0.67,-0.26,-2.35,-2.33,-2.36
473.40,-1.61,0.71,-1.66,0.66,-0.59,-0.63,-0.24,-2.20,-2.25,-2.32
478.13,-1.62,0.64,-1.67,0.60,-0.55,-0.59,-0.23,-2.18,-2.22,-2.26
482.91,-1.76,0.46,-1.70,0.53,-0.51,-0.55,-0.21,-2.28,-2.21,-2.22
487.74,-1.75,0.43,-1.72,0.46,-0.48,-0.51,-0.20,-2.23,-2.20,-2.18
