frequency,raw,error,smoothed,error_smoothed,equalization,parametric_eq,fixed_band_eq,equalized_raw,equalized_smoothed,target
20.00,-18.44,-18.36,-18.44,-18.36,18.36,17.41,5.91,-0.08,-0.08,-0.08
20.20,-18.31,-18.32,-18.31,-18.32,18.32,17.36,6.06,0.01,0.01,0.01
20.40,-18.17,-18.26,-18.17,-18.27,18.27,17.31,6.20,0.10,0.09,0.09
20.61,-18.04,-18.20,-18.04,-18.21,18.22,17.25,6.36,0.17,0.17,0.16
20.81,-17.91,-18.16,-17.91,-18.16,18.16,17.20,6.51,0.25,0.25,0.25
21.02,-17.78,-18.11,-17.78,-18.10,18.10,17.15,6.67,0.32,0.32,0.33
21.23,-17.64,-18.03,-17.64,-18.04,18.03,17.09,6.84,0.39,0.39,0.39
21.44,-17.51,-17.96,-17.51,-17.96,17.96,17.04,7.01,0.45,0.45,0.45
21.66,-17.37,-17.87,-17.37,-17.87,17.88,16.98,7.18,0.51,0.51,0.50
21.87,-17.24,-17.79,-17.24,-17.79,17.79,16.92,7.36,0.56,0.56,0.55
22.09,-17.10,-17.70,-17.10,-17.70,17.71,16.86,7.54,0.61,0.60,0.60
22.31,-16.97,-17.62,-16.97,-17.62,17.61,16.80,7.73,0.65,0.65,0.65
22.54,-16.83,-17.52,-16.83,-17.52,17.52,16.74,7.92,0.69,0.69,0.69
22.76,-16.69,-17.42,-16.69,-17.42,17.42,16.68,8.12,0.73,0.73,0.73
22.99,-16.56,-17.32,-16.56,-17.32,17.33,16.62,8.32,0.77,0.77,0.76
23.22,-16.42,-17.22,-16.42,-17.22,17.23,16.55,8.53,0.81,0.81,0.80
23.45,-16.28,-17.12,-16.28,-17.12,17.13,16.49,8.74,0.85,0.85,0.84
23.69,-16.14,-17.02,-16.14,-17.02,17.03,16.42,8.96,0.89,0.89,0.88
23.92,-16.00,-16.92,-16.00,-16.93,16.93,16.35,9.19,0.93,0.92,0.92
24.16,-15.87,-16.84,-15.87,-16.83,16.82,16.28,9.42,0.96,0.96,0.97
24.40,-15.73,-16.73,-15.73,-16.73,16.72,16.21,9.65,0.99,0.99,1.00
24.65,-15.59,-16.61,-15.59,-16.62,16.62,16.14,9.90,1.02,1.03,1.02
24.89,-15.45,-16.50,-15.45,-16.50,16.51,16.07,10.14,1.06,1.06,1.05
25.14,-15.31,-16.40,-15.31,-16.40,16.40,15.99,10.40,1.09,1.09,1.09
25.39,-15.17,-16.29,-15.17,-16.29,16.29,15.92,10.65,1.12,1.12,1.12
25.65,-15.02,-16.18,-15.02,-16.18,16.18,15.84,10.91,1.16,1.16,1.16
25.91,-14.88,-16.06,-14.88,-16.07,16.07,15.76,11.18,1.19,1.19,1.18
26.16,-14.74,-15.95,-14.74,-15.96,15.96,15.68,11.45,1.22,1.22,1.21
26.43,-14.60,-15.85,-14.60,-15.85,15.85,15.60,11.72,1.25,1.25,1.25
26.69,-14.46,-15.74,-14.46,-15.74,15.74,15.51,12.00,1.28,1.28,1.28
26.96,-14.31,-15.62,-14.32,-15.63,15.62,15.43,12.27,1.31,1.31,1.31
27.23,-14.17,-15.51,-14.17,-15.51,15.51,15.35,12.55,1.34,1.34,1.34
27.50,-14.03,-15.40,-14.03,-15.40,15.40,15.26,12.83,1.37,1.37,1.37
27.77,-13.89,-15.28,-13.89,-15.28,15.28,15.17,13.10,1.40,1.40,1.39
28.05,-13.74,-15.17,-13.74,-15.17,15.17,15.08,13.37,1.43,1.43,1.43
28.33,-13.60,-15.05,-13.60,-15.06,15.06,14.99,13.63,1.46,1.46,1.45
28.62,-13.46,-14.94,-13.46,-14.94,14.95,14.90,13.88,1.49,1.49,1.48
28.90,-13.32,-14.84,-13.32,-14.84,14.84,14.80,14.12,1.52,1.52,1.52
29.19,-13.18,-14.72,-13.18,-14.73,14.73,14.70,14.35,1.55,1.55,1.54
29.48,-13.04,-14.63,-13.04,-14.62,14.62,14.61,14.55,1.58,1.58,1.59
29.78,-12.90,-14.50,-12.90,-14.51,14.51,14.51,14.74,1.60,1.60,1.60
30.08,-12.76,-14.39,-12.76,-14.40,14.39,14.41,14.89,1.63,1.63,1.63
30.38,-12.62,-14.28,-12.62,-14.28,14.28,14.30,15.04,1.66,1.66,1.66
30.68,-12.48,-14.17,-12.48,-14.17,14.17,14.20,15.13,1.69,1.69,1.69
30.99,-12.35,-14.06,-12.35,-14.06,14.06,14.09,15.22,1.71,1.72,1.71
31.30,-12.21,-13.94,-12.21,-13.95,13.95,13.99,15.25,1.74,1.74,1.73
31.61,-12.08,-13.84,-12.08,-13.84,13.84,13.88,15.27,1.76,1.76,1.76
31.93,-11.95,-13.73,-11.95,-13.73,13.73,13.77,15.24,1.78,1.78,1.78
32.24,-11.82,-13.62,-11.82,-13.62,13.62,13.66,15.20,1.80,1.80,1.80
32.57,-11.68,-13.51,-11.68,-13.51,13.51,13.54,15.12,1.83,1.83,1.83
32.89,-11.54,-13.39,-11.54,-13.40,13.39,13.43,15.02,1.85,1.85,1.85
33.22,-11.41,-13.28,-11.41,-13.28,13.28,13.31,14.88,1.87,1.87,1.87
33.55,-11.27,-13.16,-11.27,-13.16,13.16,13.19,14.74,1.89,1.89,1.89
33.89,-11.13,-13.03,-11.13,-13.04,13.04,13.07,14.58,1.91,1.91,1.90
34.23,-11.00,-12.92,-11.00,-12.91,12.92,12.95,14.40,1.92,1.92,1.92
34.57,-10.86,-12.79,-10.86,-12.79,12.79,12.83,14.21,1.93,1.93,1.93
34.92,-10.72,-12.66,-10.73,-12.67,12.67,12.71,14.02,1.95,1.94,1.94
35.27,-10.59,-12.55,-10.59,-12.54,12.54,12.58,13.81,1.95,1.95,1.96
35.62,-10.45,-12.40,-10.45,-12.41,12.41,12.46,13.61,1.96,1.96,1.95
35.97,-10.31,-12.27,-10.31,-12.28,12.28,12.33,13.40,1.97,1.97,1.96
36.33,-10.18,-12.16,-10.18,-12.15,12.15,12.20,13.20,1.97,1.97,1.98
36.70,-10.04,-12.01,-10.04,-12.02,12.02,12.07,12.99,1.97,1.97,1.97
37.06,-9.91,-11.88,-9.91,-11.88,11.88,11.94,12.79,1.97,1.97,1.97
37.43,-9.77,-11.74,-9.77,-11.74,11.74,11.81,12.59,1.97,1.97,1.97
37.81,-9.63,-11.60,-9.63,-11.60,11.60,11.68,12.40,1.97,1.97,1.97
38.19,-9.49,-11.46,-9.49,-11.47,11.46,11.55,12.21,1.97,1.97,1.97
38.57,-9.35,-11.32,-9.35,-11.32,11.32,11.41,12.03,1.97,1.97,1.97
38.95,-9.21,-11.18,-9.21,-11.17,11.17,11.28,11.85,1.96,1.96,1.97
39.34,-9.06,-11.01,-9.06,-11.02,11.02,11.15,11.68,1.96,1.96,1.95
39.74,-8.92,-10.87,-8.92,-10.87,10.88,11.01,11.52,1.96,1.96,1.95
40.14,-8.78,-10.72,-8.78,-10.72,10.73,10.88,11.37,1.95,1.95,1.94
40.54,-8.64,-10.58,-8.64,-10.58,10.58,10.75,11.22,1.94,1.94,1.94
40.94,-8.50,-10.43,-8.50,-10.43,10.43,10.61,11.08,1.93,1.93,1.93
41.35,-8.36,-10.29,-8.36,-10.29,10.29,10.48,10.94,1.93,1.93,1.93
41.76,-8.22,-10.14,-8.22,-10.14,10.14,10.35,10.81,1.92,1.92,1.92
42.18,-8.08,-9.99,-8.08,-9.99,10.00,10.22,10.70,1.92,1.91,1.91
42.60,-7.95,-9.85,-7.95,-9.85,9.85,10.10,10.58,1.90,1.90,1.90
43.03,-7.81,-9.71,-7.81,-9.71,9.70,9.97,10.48,1.89,1.89,1.90
43.46,-7.68,-9.57,-7.68,-9.56,9.56,9.85,10.38,1.88,1.88,1.89
43.90,-7.54,-9.41,-7.55,-9.42,9.42,9.72,10.29,1.88,1.87,1.87
44.33,-7.42,-9.27,-7.42,-9.28,9.28,9.60,10.21,1.86,1.86,1.85
44.78,-7.30,-9.14,-7.30,-9.14,9.14,9.49,10.13,1.84,1.85,1.84
45.23,-7.18,-9.01,-7.18,-9.01,9.01,9.37,10.06,1.83,1.83,1.83
45.68,-7.06,-8.88,-7.06,-8.89,8.89,9.27,10.00,1.83,1.83,1.82
46.13,-6.95,-8.76,-6.95,-8.76,8.77,9.16,9.94,1.82,1.82,1.81
46.60,-6.84,-8.65,-6.84,-8.65,8.65,9.06,9.89,1.81,1.81,1.81
47.06,-6.74,-8.54,-6.74,-8.54,8.54,8.96,9.85,1.80,1.80,1.80
47.53,-6.64,-8.43,-6.64,-8.44,8.43,8.86,9.81,1.79,1.79,1.79
48.01,-6.54,-8.33,-6.54,-8.33,8.32,8.77,9.78,1.78,1.78,1.79
48.49,-6.45,-8.23,-6.45,-8.23,8.23,8.69,9.76,1.78,1.78,1.78
48.97,-6.36,-8.13,-6.36,-8.13,8.13,8.61,9.74,1.78,1.77,1.77
49.46,-6.29,-8.04,-6.29,-8.04,8.05,8.53,9.72,1.76,1.77,1.75
49.96,-6.22,-7.96,-6.22,-7.97,7.98,8.46,9.71,1.76,1.76,1.74
50.46,-6.16,-7.91,-6.16,-7.91,7.91,8.40,9.70,1.75,1.75,1.75
50.96,-6.11,-7.86,-6.11,-7.86,7.86,8.34,9.70,1.75,1.75,1.75
51.47,-6.08,-7.82,-6.07,-7.82,7.82,8.29,9.70,1.74,1.74,1.74
51.99,-6.04,-7.78,-6.04,-7.79,7.78,8.24,9.71,1.74,1.74,1.74
52.51,-6.02,-7.76,-6.02,-7.76,7.76,8.19,9.72,1.74,1.74,1.74
53.03,-6.00,-7.74,-6.00,-7.74,7.74,8.16,9.72,1.74,1.74,1.74
53.56,-5.99,-7.73,-5.99,-7.73,7.73,8.12,9.74,1.74,1.74,1.74
54.10,-5.99,-7.72,-6.00,-7.73,7.73,8.09,9.75,1.74,1.74,1.73
54.64,-6.02,-7.74,-6.02,-7.74,7.75,8.07,9.76,1.73,1.73,1.72
55.18,-6.05,-7.76,-6.05,-7.76,7.77,8.05,9.77,1.72,1.72,1.71
55.74,-6.10,-7.79,-6.10,-7.80,7.80,8.04,9.78,1.70,1.70,1.69
56.29,-6.15,-7.84,-6.15,-7.84,7.84,8.03,9.79,1.69,1.69,1.69
56.86,-6.21,-7.88,-6.22,-7.89,7.89,8.02,9.79,1.68,1.67,1.67
57.42,-6.29,-7.94,-6.29,-7.94,7.94,8.02,9.80,1.65,1.65,1.65
58.00,-6.36,-8.00,-6.36,-8.00,8.00,8.02,9.79,1.64,1.64,1.64
58.58,-6.43,-8.05,-6.43,-8.06,8.06,8.03,9.79,1.63,1.63,1.62
59.16,-6.50,-8.11,-6.51,-8.12,8.12,8.04,9.77,1.62,1.61,1.61
59.76,-6.59,-8.18,-6.59,-8.18,8.17,8.05,9.76,1.58,1.59,1.59
60.35,-6.68,-8.24,-6.67,-8.24,8.23,8.06,9.73,1.55,1.56,1.56
60.96,-6.75,-8.30,-6.75,-8.29,8.29,8.08,9.70,1.54,1.53,1.55
61.57,-6.83,-8.33,-6.83,-8.34,8.34,8.10,9.66,1.51,1.51,1.50
62.18,-6.90,-8.37,-6.90,-8.38,8.39,8.12,9.61,1.49,1.49,1.47
62.80,-6.98,-8.44,-6.98,-8.43,8.44,8.15,9.55,1.46,1.46,1.46
63.43,-7.05,-8.47,-7.05,-8.48,8.48,8.17,9.48,1.43,1.43,1.42
64.07,-7.12,-8.52,-7.12,-8.52,8.53,8.20,9.41,1.41,1.41,1.40
64.71,-7.17,-8.56,-7.18,-8.56,8.56,8.22,9.33,1.39,1.39,1.39
65.35,-7.23,-8.60,-7.23,-8.60,8.60,8.25,9.24,1.37,1.37,1.37
66.01,-7.28,-8.64,-7.28,-8.64,8.63,8.28,9.14,1.35,1.35,1.36
66.67,-7.31,-8.66,-7.31,-8.66,8.65,8.32,9.04,1.34,1.34,1.35
67.33,-7.34,-8.68,-7.34,-8.68,8.67,8.35,8.93,1.33,1.34,1.34
68.01,-7.35,-8.68,-7.35,-8.68,8.69,8.38,8.82,1.34,1.34,1.33
68.69,-7.36,-8.68,-7.36,-8.69,8.69,8.41,8.70,1.34,1.33,1.32
69.37,-7.37,-8.69,-7.37,-8.69,8.70,8.44,8.58,1.33,1.33,1.32
70.07,-7.38,-8.69,-7.38,-8.70,8.70,8.48,8.45,1.32,1.31,1.31
70.77,-7.39,-8.70,-7.39,-8.69,8.69,8.51,8.32,1.30,1.30,1.31
71.48,-7.39,-8.69,-7.39,-8.69,8.68,8.54,8.19,1.29,1.29,1.30
72.19,-7.38,-8.66,-7.38,-8.67,8.67,8.57,8.05,1.29,1.29,1.28
72.91,-7.38,-8.66,-7.38,-8.65,8.66,8.60,7.92,1.28,1.28,1.28
73.64,-7.37,-8.63,-7.37,-8.63,8.64,8.62,7.78,1.27,1.27,1.26
74.38,-7.36,-8.61,-7.36,-8.61,8.61,8.65,7.65,1.25,1.25,1.25
75.12,-7.36,-8.59,-7.35,-8.59,8.59,8.67,7.52,1.23,1.23,1.23
75.87,-7.34,-8.56,-7.34,-8.57,8.56,8.68,7.39,1.22,1.22,1.22
76.63,-7.33,-8.54,-7.33,-8.53,8.53,8.69,7.26,1.20,1.21,1.21
77.40,-7.31,-8.50,-7.31,-8.50,8.50,8.69,7.13,1.19,1.20,1.19
78.17,-7.29,-8.46,-7.29,-8.47,8.48,8.69,7.00,1.19,1.18,1.17
78.95,-7.27,-8.44,-7.27,-8.44,8.44,8.68,6.88,1.17,1.17,1.17
79.74,-7.26,-8.42,-7.25,-8.41,8.41,8.66,6.76,1.15,1.16,1.16
80.54,-7.23,-8.38,-7.23,-8.38,8.38,8.64,6.64,1.15,1.15,1.15
81.35,-7.21,-8.35,-7.21,-8.35,8.35,8.60,6.53,1.14,1.14,1.14
82.16,-7.18,-8.31,-7.18,-8.32,8.32,8.55,6.42,1.14,1.14,1.13
82.98,-7.15,-8.29,-7.15,-8.29,8.29,8.50,6.31,1.14,1.14,1.14
83.81,-7.13,-8.26,-7.12,-8.26,8.26,8.44,6.21,1.13,1.14,1.13
84.65,-7.09,-8.21,-7.09,-8.22,8.22,8.37,6.11,1.13,1.13,1.12
85.50,-7.06,-8.19,-7.06,-8.19,8.19,8.29,6.02,1.13,1.13,1.13
86.35,-7.02,-8.15,-7.02,-8.15,8.15,8.20,5.93,1.13,1.13,1.13
87.22,-6.98,-8.10,-6.97,-8.10,8.10,8.10,5.84,1.12,1.12,1.12
88.09,-6.92,-8.04,-6.92,-8.05,8.05,8.00,5.76,1.13,1.12,1.12
88.97,-6.87,-7.98,-6.87,-7.99,7.99,7.90,5.68,1.12,1.11,1.11
89.86,-6.82,-7.92,-6.82,-7.92,7.92,7.79,5.60,1.10,1.10,1.10
90.76,-6.76,-7.84,-6.76,-7.84,7.84,7.67,5.53,1.08,1.08,1.08
91.66,-6.69,-7.75,-6.69,-7.75,7.75,7.55,5.47,1.06,1.06,1.06
92.58,-6.62,-7.65,-6.62,-7.65,7.65,7.43,5.40,1.03,1.03,1.03
93.51,-6.53,-7.54,-6.53,-7.54,7.53,7.31,5.34,1.00,1.00,1.01
94.44,-6.43,-7.41,-6.43,-7.41,7.40,7.18,5.29,0.97,0.97,0.98
95.39,-6.33,-7.27,-6.33,-7.27,7.26,7.06,5.24,0.93,0.93,0.94
96.34,-6.22,-7.12,-6.22,-7.11,7.11,6.93,5.19,0.89,0.89,0.90
97.30,-6.10,-6.94,-6.10,-6.95,6.95,6.81,5.14,0.85,0.84,0.84
98.28,-5.99,-6.78,-5.99,-6.78,6.79,6.68,5.10,0.80,0.80,0.79
99.26,-5.88,-6.62,-5.88,-6.62,6.63,6.55,5.06,0.75,0.75,0.74
100.25,-5.77,-6.45,-5.77,-6.45,6.47,6.42,5.03,0.70,0.70,0.68
101.25,-5.67,-6.29,-5.67,-6.29,6.31,6.29,4.99,0.64,0.64,0.62
102.27,-5.58,-6.14,-5.59,-6.15,6.16,6.17,4.96,0.58,0.57,0.56
103.29,-5.52,-6.02,-5.52,-6.02,6.02,6.04,4.93,0.50,0.50,0.50
104.32,-5.45,-5.90,-5.44,-5.89,5.87,5.91,4.90,0.42,0.43,0.45
105.37,-5.36,-5.74,-5.36,-5.75,5.73,5.78,4.88,0.37,0.37,0.38
106.42,-5.27,-5.59,-5.27,-5.60,5.59,5.65,4.85,0.32,0.32,0.32
107.48,-5.18,-5.45,-5.18,-5.45,5.45,5.53,4.83,0.27,0.27,0.27
108.56,-5.10,-5.31,-5.10,-5.31,5.31,5.40,4.81,0.21,0.22,0.21
109.64,-5.01,-5.16,-5.02,-5.18,5.18,5.27,4.78,0.17,0.16,0.15
110.74,-4.95,-5.05,-4.94,-5.04,5.04,5.14,4.76,0.09,0.10,0.10
111.85,-4.86,-4.92,-4.86,-4.91,4.91,5.02,4.74,0.05,0.05,0.06
112.97,-4.78,-4.77,-4.78,-4.78,4.79,4.89,4.72,0.01,0.01,-0.01
114.10,-4.70,-4.65,-4.71,-4.66,4.67,4.76,4.70,-0.03,-0.04,-0.05
115.24,-4.64,-4.54,-4.65,-4.55,4.55,4.63,4.67,-0.09,-0.10,-0.10
116.39,-4.60,-4.45,-4.59,-4.45,4.44,4.51,4.65,-0.16,-0.15,-0.15
117.55,-4.54,-4.35,-4.53,-4.34,4.33,4.38,4.62,-0.21,-0.20,-0.19
118.73,-4.45,-4.22,-4.45,-4.23,4.22,4.26,4.59,-0.23,-0.23,-0.23
119.92,-4.37,-4.11,-4.37,-4.11,4.12,4.13,4.56,-0.25,-0.25,-0.26
121.12,-4.28,-3.99,-4.29,-4.01,4.02,4.01,4.52,-0.26,-0.28,-0.29
122.33,-4.23,-3.91,-4.23,-3.91,3.91,3.88,4.49,-0.32,-0.32,-0.32
123.55,-4.17,-3.82,-4.15,-3.81,3.80,3.76,4.45,-0.37,-0.35,-0.35
124.79,-4.08,-3.70,-4.08,-3.70,3.69,3.63,4.40,-0.39,-0.39,-0.38
126.03,-3.97,-3.57,-3.99,-3.59,3.58,3.51,4.36,-0.39,-0.41,-0.40
127.29,-3.91,-3.48,-3.90,-3.47,3.47,3.39,4.31,-0.44,-0.43,-0.43
128.57,-3.82,-3.35,-3.81,-3.35,3.35,3.27,4.26,-0.47,-0.46,-0.47
129.85,-3.72,-3.23,-3.72,-3.23,3.24,3.15,4.21,-0.48,-0.49,-0.49
131.15,-3.62,-3.10,-3.64,-3.11,3.12,3.03,4.15,-0.50,-0.52,-0.52
132.46,-3.56,-3.00,-3.55,-3.00,3.00,2.92,4.09,-0.56,-0.55,-0.56
133.79,-3.47,-2.89,-3.46,-2.88,2.88,2.80,4.03,-0.59,-0.58,-0.58
135.12,-3.36,-2.75,-3.38,-2.77,2.77,2.69,3.97,-0.59,-0.61,-0.61
136.48,-3.30,-2.66,-3.29,-2.65,2.65,2.58,3.90,-0.65,-0.64,-0.64
137.84,-3.20,-2.53,-3.21,-2.54,2.53,2.47,3.83,-0.67,-0.68,-0.67
139.22,-3.14,-2.42,-3.13,-2.42,2.41,2.36,3.76,-0.73,-0.72,-0.72
140.61,-3.06,-2.31,-3.04,-2.30,2.30,2.26,3.69,-0.76,-0.75,-0.75
142.02,-2.94,-2.17,-2.96,-2.18,2.19,2.16,3.62,-0.75,-0.77,-0.77
143.44,-2.88,-2.07,-2.88,-2.07,2.08,2.06,3.55,-0.80,-0.80,-0.81
144.87,-2.80,-1.95,-2.81,-1.96,1.98,1.96,3.47,-0.82,-0.83,-0.85
146.32,-2.76,-1.87,-2.75,-1.87,1.88,1.87,3.40,-0.88,-0.87,-0.89
147.78,-2.70,-1.78,-2.70,-1.79,1.79,1.77,3.32,-0.91,-0.92,-0.92
149.26,-2.66,-1.71,-2.66,-1.71,1.70,1.69,3.25,-0.96,-0.97,-0.95
150.75,-2.62,-1.62,-2.61,-1.62,1.61,1.60,3.17,-1.01,-1.00,-1.00
152.26,-2.57,-1.53,-2.57,-1.53,1.52,1.52,3.10,-1.05,-1.04,-1.04
153.78,-2.50,-1.43,-2.51,-1.44,1.43,1.44,3.03,-1.07,-1.08,-1.07
155.32,-2.46,-1.34,-2.46,-1.34,1.34,1.37,2.96,-1.12,-1.12,-1.12
156.88,-2.40,-1.25,-2.41,-1.25,1.25,1.30,2.88,-1.15,-1.16,-1.15
158.44,-2.37,-1.16,-2.36,-1.16,1.15,1.23,2.81,-1.22,-1.21,-1.21
160.03,-2.31,-1.06,-2.31,-1.06,1.07,1.17,2.74,-1.24,-1.25,-1.25
161.63,-2.27,-0.97,-2.27,-0.98,0.98,1.11,2.67,-1.29,-1.29,-1.30
163.24,-2.24,-0.90,-2.24,-0.90,0.91,1.05,2.61,-1.33,-1.33,-1.34
164.88,-2.21,-0.83,-2.21,-0.83,0.84,1.00,2.54,-1.37,-1.38,-1.38
166.53,-2.19,-0.77,-2.19,-0.78,0.77,0.95,2.47,-1.42,-1.42,-1.42
168.19,-2.19,-0.73,-2.18,-0.73,0.72,0.91,2.41,-1.47,-1.46,-1.46
169.87,-2.18,-0.68,-2.18,-0.68,0.68,0.87,2.35,-1.50,-1.50,-1.50
171.57,-2.18,-0.65,-2.18,-0.65,0.65,0.84,2.29,-1.53,-1.53,-1.53
173.29,-2.19,-0.62,-2.19,-0.62,0.63,0.81,2.23,-1.56,-1.56,-1.57
175.02,-2.22,-0.61,-2.22,-0.62,0.62,0.79,2.17,-1.60,-1.60,-1.61
176.77,-2.26,-0.62,-2.26,-0.62,0.62,0.76,2.12,-1.64,-1.64,-1.64
178.54,-2.31,-0.64,-2.30,-0.63,0.63,0.75,2.06,-1.68,-1.67,-1.67
180.32,-2.35,-0.65,-2.35,-0.66,0.65,0.74,2.01,-1.70,-1.70,-1.70
182.13,-2.39,-0.67,-2.40,-0.68,0.68,0.74,1.96,-1.71,-1.72,-1.72
183.95,-2.47,-0.73,-2.46,-0.72,0.72,0.74,1.90,-1.75,-1.74,-1.74
185.79,-2.52,-0.76,-2.52,-0.77,0.76,0.74,1.86,-1.76,-1.76,-1.76
187.65,-2.59,-0.81,-2.59,-0.81,0.81,0.75,1.81,-1.78,-1.78,-1.78
189.52,-2.65,-0.86,-2.65,-0.86,0.86,0.78,1.76,-1.79,-1.79,-1.79
191.42,-2.72,-0.91,-2.72,-0.92,0.91,0.80,1.72,-1.81,-1.81,-1.81
193.33,-2.79,-0.97,-2.79,-0.98,0.98,0.83,1.67,-1.81,-1.82,-1.82
195.27,-2.88,-1.05,-2.87,-1.04,1.05,0.87,1.63,-1.83,-1.83,-1.83
197.22,-2.96,-1.11,-2.96,-1.11,1.12,0.92,1.59,-1.84,-1.84,-1.85
199.19,-3.05,-1.18,-3.06,-1.19,1.20,0.98,1.55,-1.85,-1.86,-1.87
201.18,-3.16,-1.28,-3.16,-1.28,1.29,1.05,1.51,-1.87,-1.87,-1.88
203.19,-3.27,-1.39,-3.26,-1.38,1.38,1.12,1.47,-1.89,-1.89,-1.88
205.23,-3.37,-1.47,-3.37,-1.48,1.47,1.20,1.44,-1.90,-1.90,-1.90
207.28,-3.47,-1.57,-3.47,-1.57,1.57,1.29,1.40,-1.90,-1.90,-1.90
209.35,-3.58,-1.66,-3.58,-1.66,1.67,1.40,1.36,-1.91,-1.91,-1.92
211.44,-3.69,-1.75,-3.69,-1.76,1.76,1.51,1.33,-1.93,-1.93,-1.94
213.56,-3.81,-1.86,-3.81,-1.86,1.86,1.63,1.30,-1.95,-1.95,-1.95
215.69,-3.91,-1.96,-3.91,-1.96,1.94,1.76,1.27,-1.97,-1.97,-1.95
217.85,-4.01,-2.04,-4.00,-2.03,2.02,1.89,1.23,-1.99,-1.98,-1.97
220.03,-4.07,-2.09,-4.08,-2.10,2.10,2.02,1.20,-1.97,-1.98,-1.98
222.23,-4.15,-2.15,-4.15,-2.16,2.17,2.15,1.17,-1.98,-1.98,-2.00
224.45,-4.22,-2.22,-4.22,-2.22,2.23,2.27,1.14,-1.99,-1.99,-2.00
226.70,-4.29,-2.27,-4.29,-2.28,2.28,2.37,1.12,-2.01,-2.01,-2.02
228.96,-4.36,-2.33,-4.35,-2.32,2.32,2.47,1.09,-2.04,-2.03,-2.03
231.25,-4.39,-2.35,-4.40,-2.36,2.36,2.52,1.06,-2.03,-2.04,-2.04
233.57,-4.43,-2.37,-4.44,-2.38,2.38,2.56,1.03,-2.05,-2.06,-2.06
235.90,-4.47,-2.40,-4.46,-2.39,2.39,2.55,1.01,-2.08,-2.08,-2.07
238.26,-4.48,-2.39,-4.48,-2.39,2.38,2.52,0.98,-2.10,-2.10,-2.09
240.64,-4.47,-2.36,-4.48,-2.37,2.36,2.45,0.95,-2.11,-2.12,-2.11
243.05,-4.45,-2.33,-4.45,-2.33,2.32,2.36,0.93,-2.13,-2.13,-2.12
245.48,-4.41,-2.28,-4.40,-2.27,2.27,2.24,0.90,-2.14,-2.13,-2.13
247.93,-4.33,-2.19,-4.34,-2.20,2.21,2.11,0.88,-2.12,-2.13,-2.14
250.41,-4.27,-2.12,-4.26,-2.12,2.13,1.97,0.85,-2.14,-2.13,-2.15
252.92,-4.17,-2.03,-4.18,-2.04,2.04,1.82,0.83,-2.13,-2.13,-2.14
255.45,-4.08,-1.94,-4.08,-1.95,1.94,1.67,0.80,-2.14,-2.14,-2.14
258.00,-3.99,-1.86,-3.98,-1.85,1.83,1.52,0.78,-2.16,-2.15,-2.13
260.58,-3.85,-1.72,-3.85,-1.73,1.71,1.38,0.76,-2.14,-2.14,-2.13
263.19,-3.72,-1.60,-3.71,-1.59,1.58,1.25,0.73,-2.14,-2.13,-2.12
265.82,-3.53,-1.42,-3.55,-1.45,1.44,1.12,0.71,-2.09,-2.11,-2.11
268.48,-3.39,-1.30,-3.39,-1.30,1.30,1.00,0.68,-2.09,-2.08,-2.09
271.16,-3.24,-1.17,-3.22,-1.15,1.16,0.89,0.66,-2.08,-2.06,-2.07
273.87,-3.04,-0.98,-3.06,-1.01,1.01,0.79,0.64,-2.03,-2.04,-2.06
276.61,-2.89,-0.86,-2.90,-0.86,0.87,0.70,0.62,-2.02,-2.03,-2.03
279.38,-2.76,-0.73,-2.75,-0.73,0.73,0.61,0.59,-2.03,-2.03,-2.03
282.17,-2.62,-0.61,-2.62,-0.61,0.59,0.54,0.57,-2.03,-2.02,-2.01
284.99,-2.48,-0.48,-2.47,-0.47,0.46,0.46,0.55,-2.01,-2.00,-2.00
287.84,-2.31,-0.33,-2.32,-0.34,0.34,0.40,0.52,-1.97,-1.98,-1.98
290.72,-2.18,-0.22,-2.18,-0.22,0.23,0.34,0.50,-1.95,-1.95,-1.96
293.63,-2.06,-0.11,-2.06,-0.12,0.13,0.29,0.48,-1.93,-1.93,-1.95
296.57,-1.95,-0.03,-1.95,-0.03,0.04,0.24,0.46,-1.91,-1.92,-1.92
299.53,-1.86,0.05,-1.86,0.05,-0.04,0.19,0.43,-1.90,-1.90,-1.91
302.53,-1.78,0.12,-1.78,0.12,-0.11,0.15,0.41,-1.89,-1.89,-1.90
305.55,-1.70,0.17,-1.70,0.18,-0.17,0.12,0.39,-1.87,-1.87,-1.87
308.61,-1.62,0.23,-1.63,0.22,-0.22,0.08,0.37,-1.84,-1.84,-1.85
311.69,-1.56,0.26,-1.56,0.25,-0.26,0.05,0.35,-1.82,-1.82,-1.82
314.81,-1.51,0.27,-1.50,0.29,-0.30,0.03,0.33,-1.81,-1.80,-1.78
317.96,-1.45,0.32,-1.45,0.32,-0.33,0.00,0.30,-1.78,-1.78,-1.77
321.14,-1.39,0.36,-1.40,0.35,-0.35,-0.02,0.28,-1.74,-1.75,-1.75
324.35,-1.35,0.38,-1.35,0.38,-0.37,-0.04,0.26,-1.72,-1.72,-1.73
327.59,-1.31,0.40,-1.31,0.40,-0.39,-0.06,0.24,-1.70,-1.70,-1.71
330.87,-1.28,0.41,-1.28,0.41,-0.40,-0.08,0.22,-1.68,-1.68,-1.69
334.18,-1.25,0.41,-1.25,0.41,-0.41,-0.09,0.20,-1.66,-1.66,-1.66
337.52,-1.22,0.42,-1.22,0.41,-0.42,-0.10,0.17,-1.64,-1.64,-1.64
340.90,-1.21,0.41,-1.20,0.41,-0.42,-0.12,0.15,-1.63,-1.62,-1.62
344.30,-1.18,0.41,-1.18,0.41,-0.41,-0.13,0.13,-1.59,-1.59,-1.59
347.75,-1.17,0.40,-1.17,0.40,-0.39,-0.14,0.11,-1.56,-1.56,-1.57
351.23,-1.15,0.39,-1.15,0.38,-0.38,-0.14,0.09,-1.53,-1.53,-1.54
354.74,-1.15,0.36,-1.15,0.36,-0.35,-0.15,0.07,-1.50,-1.51,-1.51
358.28,-1.16,0.34,-1.16,0.33,-0.33,-0.16,0.05,-1.49,-1.49,-1.50
361.87,-1.17,0.30,-1.17,0.30,-0.30,-0.16,0.02,-1.47,-1.47,-1.47
365.49,-1.18,0.26,-1.18,0.27,-0.28,-0.17,0.00,-1.46,-1.45,-1.44
369.14,-1.18,0.25,-1.18,0.24,-0.25,-0.17,-0.02,-1.43,-1.43,-1.43
372.83,-1.18,0.22,-1.18,0.22,-0.22,-0.17,-0.04,-1.40,-1.40,-1.40
376.56,-1.18,0.20,-1.18,0.20,-0.20,-0.17,-0.06,-1.38,-1.38,-1.38
380.33,-1.18,0.17,-1.18,0.17,-0.17,-0.18,-0.08,-1.35,-1.35,-1.35
384.13,-1.18,0.16,-1.18,0.16,-0.15,-0.18,-0.11,-1.33,-1.33,-1.34
387.97,-1.18,0.14,-1.18,0.14,-0.13,-0.18,-0.13,-1.31,-1.31,-1.32
391.85,-1.18,0.13,-1.18,0.12,-0.12,-0.17,-0.15,-1.30,-1.30,-1.31
395.77,-1.18,0.10,-1.18,0.10,-0.11,-0.17,-0.17,-1.29,-1.29,-1.28
399.73,-1.18,0.09,-1.18,0.09,-0.10,-0.17,-0.19,-1.28,-1.28,-1.27
403.72,-1.18,0.09,-1.18,0.08,-0.09,-0.17,-0.21,-1.27,-1.27,-1.27
407.76,-1.18,0.08,-1.18,0.08,-0.09,-0.16,-0.23,-1.27,-1.27,-1.26
411.84,-1.17,0.08,-1.17,0.09,-0.09,-0.16,-0.26,-1.26,-1.26,-1.25
415.96,-1.16,0.10,-1.16,0.09,-0.10,-0.15,-0.28,-1.26,-1.25,-1.26
420.12,-1.15,0.11,-1.15,0.10,-0.10,-0.15,-0.30,-1.25,-1.25,-1.26
424.32,-1.15,0.11,-1.15,0.11,-0.10,-0.14,-0.32,-1.25,-1.25,-1.26
428.56,-1.16,0.10,-1.16,0.10,-0.09,-0.13,-0.34,-1.25,-1.25,-1.26
432.85,-1.17,0.10,-1.17,0.09,-0.08,-0.12,-0.36,-1.25,-1.26,-1.27
437.18,-1.20,0.07,-1.19,0.07,-0.07,-0.12,-0.38,-1.27,-1.26,-1.27
441.55,-1.22,0.05,-1.22,0.05,-0.05,-0.11,-0.39,-1.27,-1.27,-1.27
445.96,-1.25,0.03,-1.25,0.02,-0.02,-0.10,-0.41,-1.27,-1.28,-1.28
