frequency,raw,error,smoothed,error_smoothed,equalization,parametric_eq,fixed_band_eq,equalized_raw,equalized_smoothed,target
20.00,-1.96,-7.08,-1.96,-7.09,7.09,6.59,2.61,5.12,5.12,5.12
20.20,-1.92,-7.03,-1.93,-7.04,7.04,6.57,2.68,5.11,5.11,5.11
20.40,-1.89,-6.99,-1.89,-6.99,6.99,6.55,2.76,5.09,5.10,5.10
20.61,-1.85,-6.94,-1.85,-6.94,6.94,6.54,2.84,5.09,5.09,5.09
20.81,-1.81,-6.88,-1.82,-6.89,6.89,6.52,2.92,5.08,5.07,5.07
21.02,-1.78,-6.84,-1.78,-6.84,6.84,6.51,3.00,5.06,5.06,5.06
21.23,-1.74,-6.79,-1.74,-6.80,6.80,6.49,3.09,5.05,5.05,5.05
21.44,-1.70,-6.76,-1.71,-6.75,6.75,6.47,3.18,5.05,5.04,5.06
21.66,-1.67,-6.71,-1.67,-6.70,6.70,6.45,3.27,5.03,5.04,5.04
21.87,-1.63,-6.67,-1.63,-6.66,6.66,6.44,3.36,5.03,5.03,5.04
22.09,-1.59,-6.61,-1.59,-6.61,6.61,6.42,3.46,5.02,5.02,5.02
22.31,-1.56,-6.57,-1.56,-6.57,6.57,6.40,3.56,5.01,5.01,5.01
22.54,-1.52,-6.52,-1.52,-6.53,6.53,6.38,3.66,5.00,5.01,5.00
22.76,-1.48,-6.48,-1.48,-6.48,6.48,6.36,3.76,5.00,5.00,5.00
22.99,-1.44,-6.43,-1.45,-6.44,6.44,6.34,3.87,5.00,4.99,4.99
23.22,-1.40,-6.38,-1.41,-6.40,6.40,6.32,3.98,4.99,4.99,4.98
23.45,-1.37,-6.36,-1.37,-6.35,6.35,6.30,4.09,4.98,4.98,4.99
23.69,-1.33,-6.31,-1.33,-6.31,6.31,6.28,4.21,4.98,4.98,4.98
23.92,-1.29,-6.26,-1.30,-6.27,6.27,6.25,4.32,4.98,4.97,4.97
24.16,-1.26,-6.24,-1.26,-6.23,6.23,6.23,4.44,4.97,4.97,4.98
24.40,-1.22,-6.20,-1.22,-6.19,6.19,6.21,4.56,4.97,4.97,4.98
24.65,-1.18,-6.15,-1.19,-6.15,6.15,6.19,4.69,4.97,4.97,4.97
24.89,-1.15,-6.12,-1.15,-6.11,6.11,6.16,4.81,4.96,4.97,4.97
25.14,-1.11,-6.07,-1.11,-6.08,6.08,6.14,4.94,4.97,4.96,4.96
25.39,-1.07,-6.03,-1.08,-6.04,6.04,6.11,5.06,4.97,4.96,4.96
25.65,-1.04,-6.00,-1.04,-6.00,6.00,6.09,5.19,4.96,4.96,4.96
25.91,-1.00,-5.96,-1.01,-5.97,5.97,6.06,5.32,4.96,4.96,4.96
26.16,-0.97,-5.94,-0.97,-5.93,5.93,6.04,5.45,4.96,4.96,4.97
26.43,-0.93,-5.89,-0.94,-5.90,5.90,6.01,5.57,4.96,4.96,4.96
26.69,-0.90,-5.86,-0.90,-5.86,5.86,5.99,5.70,4.96,4.96,4.96
26.96,-0.87,-5.83,-0.87,-5.83,5.83,5.96,5.82,4.96,4.96,4.96
27.23,-0.83,-5.79,-0.83,-5.80,5.80,5.93,5.94,4.96,4.96,4.96
27.50,-0.80,-5.76,-0.80,-5.77,5.77,5.90,6.06,4.96,4.97,4.96
27.77,-0.77,-5.74,-0.77,-5.73,5.73,5.87,6.18,4.96,4.97,4.97
28.05,-0.73,-5.69,-0.73,-5.70,5.70,5.84,6.29,4.97,4.97,4.96
28.33,-0.70,-5.67,-0.70,-5.67,5.67,5.82,6.39,4.97,4.97,4.97
28.62,-0.67,-5.64,-0.67,-5.64,5.64,5.79,6.49,4.96,4.97,4.97
28.90,-0.63,-5.61,-0.64,-5.61,5.61,5.75,6.58,4.97,4.97,4.98
29.19,-0.60,-5.58,-0.61,-5.58,5.58,5.72,6.66,4.97,4.97,4.98
29.48,-0.57,-5.54,-0.58,-5.54,5.54,5.69,6.73,4.97,4.97,4.97
29.78,-0.54,-5.51,-0.55,-5.51,5.51,5.66,6.80,4.97,4.97,4.97
30.08,-0.51,-5.48,-0.52,-5.48,5.48,5.63,6.85,4.97,4.96,4.97
30.38,-0.49,-5.44,-0.49,-5.45,5.45,5.60,6.89,4.96,4.96,4.95
30.68,-0.46,-5.41,-0.47,-5.42,5.42,5.56,6.92,4.96,4.95,4.95
30.99,-0.43,-5.38,-0.44,-5.39,5.39,5.53,6.94,4.96,4.95,4.95
31.30,-0.41,-5.36,-0.41,-5.36,5.36,5.49,6.95,4.94,4.94,4.95
31.61,-0.39,-5.33,-0.39,-5.32,5.32,5.46,6.95,4.93,4.94,4.94
31.93,-0.37,-5.29,-0.36,-5.29,5.29,5.42,6.93,4.92,4.93,4.92
32.24,-0.34,-5.27,-0.34,-5.26,5.26,5.39,6.90,4.92,4.92,4.93
32.57,-0.31,-5.22,-0.32,-5.23,5.23,5.35,6.87,4.92,4.92,4.91
32.89,-0.29,-5.20,-0.29,-5.20,5.20,5.31,6.82,4.91,4.91,4.91
33.22,-0.26,-5.16,-0.26,-5.17,5.17,5.28,6.76,4.90,4.90,4.90
33.55,-0.24,-5.14,-0.24,-5.13,5.13,5.24,6.69,4.89,4.90,4.90
33.89,-0.21,-5.10,-0.21,-5.10,5.10,5.20,6.62,4.89,4.89,4.89
34.23,-0.18,-5.05,-0.19,-5.07,5.07,5.16,6.53,4.88,4.88,4.87
34.57,-0.16,-5.03,-0.16,-5.03,5.03,5.12,6.44,4.87,4.87,4.87
34.92,-0.14,-4.99,-0.13,-5.00,5.00,5.08,6.35,4.85,4.86,4.85
35.27,-0.11,-4.98,-0.11,-4.96,4.96,5.04,6.24,4.85,4.85,4.87
35.62,-0.08,-4.92,-0.09,-4.93,4.93,5.00,6.14,4.84,4.84,4.84
35.97,-0.05,-4.89,-0.06,-4.89,4.89,4.96,6.03,4.84,4.83,4.84
36.33,-0.03,-4.85,-0.04,-4.85,4.85,4.92,5.92,4.82,4.81,4.82
36.70,-0.01,-4.81,-0.02,-4.81,4.81,4.87,5.80,4.80,4.80,4.80
37.06,0.01,-4.77,0.01,-4.78,4.78,4.83,5.69,4.78,4.78,4.78
37.43,0.03,-4.73,0.03,-4.74,4.74,4.79,5.57,4.76,4.76,4.76
37.81,0.05,-4.70,0.04,-4.70,4.70,4.74,5.45,4.75,4.74,4.75
38.19,0.07,-4.65,0.06,-4.66,4.66,4.70,5.34,4.73,4.72,4.72
38.57,0.08,-4.62,0.08,-4.62,4.62,4.65,5.22,4.70,4.70,4.70
38.95,0.10,-4.59,0.10,-4.58,4.58,4.61,5.11,4.68,4.68,4.69
39.34,0.12,-4.54,0.12,-4.54,4.54,4.56,5.00,4.66,4.66,4.66
39.74,0.14,-4.49,0.13,-4.50,4.50,4.51,4.89,4.64,4.64,4.63
40.14,0.15,-4.46,0.15,-4.46,4.46,4.47,4.78,4.61,4.61,4.61
40.54,0.17,-4.42,0.17,-4.42,4.42,4.42,4.67,4.59,4.59,4.59
40.94,0.18,-4.38,0.19,-4.38,4.38,4.37,4.57,4.56,4.57,4.56
41.35,0.20,-4.35,0.21,-4.34,4.34,4.32,4.47,4.54,4.55,4.55
41.76,0.23,-4.29,0.22,-4.30,4.30,4.27,4.37,4.53,4.52,4.52
42.18,0.25,-4.26,0.24,-4.26,4.26,4.22,4.27,4.50,4.50,4.51
42.60,0.27,-4.21,0.26,-4.21,4.21,4.17,4.18,4.48,4.48,4.48
43.03,0.29,-4.17,0.28,-4.17,4.17,4.12,4.09,4.46,4.45,4.46
43.46,0.31,-4.11,0.30,-4.12,4.12,4.07,4.00,4.43,4.43,4.42
43.90,0.33,-4.07,0.32,-4.08,4.08,4.02,3.92,4.41,4.40,4.40
44.33,0.35,-4.02,0.34,-4.03,4.03,3.97,3.84,4.38,4.37,4.37
44.78,0.36,-3.99,0.37,-3.98,3.98,3.91,3.76,4.34,4.35,4.35
45.23,0.38,-3.95,0.39,-3.93,3.93,3.86,3.68,4.30,4.31,4.33
45.68,0.40,-3.88,0.41,-3.87,3.87,3.81,3.61,4.27,4.28,4.28
46.13,0.43,-3.82,0.43,-3.82,3.82,3.75,3.54,4.24,4.24,4.25
46.60,0.45,-3.76,0.45,-3.76,3.76,3.70,3.48,4.21,4.21,4.21
47.06,0.47,-3.71,0.46,-3.71,3.71,3.64,3.42,4.17,4.17,4.18
47.53,0.49,-3.65,0.48,-3.65,3.65,3.59,3.35,4.14,4.13,4.14
48.01,0.51,-3.58,0.50,-3.59,3.59,3.53,3.30,4.10,4.09,4.09
48.49,0.53,-3.52,0.51,-3.54,3.54,3.48,3.24,4.07,4.05,4.05
48.97,0.55,-3.45,0.53,-3.48,3.48,3.42,3.19,4.03,4.01,4.00
49.46,0.55,-3.42,0.54,-3.43,3.43,3.36,3.14,3.98,3.97,3.97
49.96,0.56,-3.35,0.55,-3.37,3.37,3.30,3.09,3.93,3.92,3.91
50.46,0.56,-3.32,0.56,-3.32,3.32,3.25,3.04,3.88,3.88,3.88
50.96,0.56,-3.28,0.57,-3.27,3.27,3.19,3.00,3.82,3.84,3.84
51.47,0.57,-3.23,0.59,-3.21,3.21,3.13,2.96,3.78,3.80,3.80
51.99,0.59,-3.16,0.60,-3.16,3.16,3.07,2.92,3.75,3.76,3.75
52.51,0.61,-3.11,0.61,-3.11,3.11,3.01,2.88,3.71,3.71,3.72
53.03,0.62,-3.07,0.62,-3.05,3.05,2.95,2.84,3.67,3.67,3.69
53.56,0.64,-3.00,0.63,-3.00,3.00,2.89,2.80,3.64,3.63,3.64
54.10,0.65,-2.94,0.65,-2.95,2.95,2.83,2.76,3.59,3.59,3.59
54.64,0.67,-2.88,0.66,-2.89,2.89,2.77,2.73,3.56,3.56,3.55
55.18,0.69,-2.82,0.68,-2.84,2.84,2.70,2.69,3.53,3.52,3.51
55.74,0.70,-2.76,0.69,-2.79,2.79,2.64,2.65,3.48,3.48,3.46
56.29,0.72,-2.72,0.71,-2.73,2.73,2.58,2.62,3.45,3.44,3.44
56.86,0.73,-2.67,0.72,-2.68,2.68,2.52,2.58,3.40,3.40,3.40
57.42,0.74,-2.61,0.74,-2.62,2.62,2.45,2.55,3.36,3.36,3.35
58.00,0.75,-2.56,0.76,-2.56,2.56,2.39,2.51,3.31,3.32,3.31
58.58,0.77,-2.51,0.77,-2.50,2.50,2.33,2.47,3.27,3.27,3.28
59.16,0.78,-2.47,0.79,-2.44,2.44,2.26,2.43,3.21,3.23,3.25
59.76,0.80,-2.40,0.81,-2.37,2.37,2.20,2.39,3.17,3.18,3.20
60.35,0.82,-2.33,0.83,-2.31,2.31,2.13,2.35,3.12,3.13,3.15
60.96,0.85,-2.24,0.84,-2.24,2.24,2.07,2.31,3.08,3.08,3.09
61.57,0.87,-2.16,0.86,-2.17,2.17,2.00,2.26,3.03,3.03,3.03
62.18,0.89,-2.08,0.88,-2.10,2.10,1.94,2.21,2.98,2.98,2.97
62.80,0.90,-2.01,0.90,-2.02,2.02,1.87,2.17,2.92,2.92,2.91
63.43,0.92,-1.94,0.92,-1.95,1.95,1.81,2.12,2.87,2.87,2.86
64.07,0.94,-1.87,0.93,-1.88,1.88,1.74,2.06,2.82,2.82,2.81
64.71,0.95,-1.81,0.95,-1.81,1.81,1.68,2.01,2.76,2.76,2.76
65.35,0.97,-1.73,0.96,-1.75,1.75,1.61,1.95,2.72,2.71,2.70
66.01,0.98,-1.67,0.96,-1.69,1.69,1.54,1.90,2.67,2.65,2.65
66.67,0.99,-1.62,0.97,-1.63,1.63,1.48,1.84,2.62,2.60,2.61
67.33,0.99,-1.55,0.97,-1.57,1.57,1.41,1.77,2.56,2.54,2.54
68.01,0.99,-1.50,0.97,-1.52,1.52,1.34,1.71,2.51,2.49,2.49
68.69,0.98,-1.46,0.97,-1.47,1.47,1.28,1.65,2.44,2.43,2.44
69.37,0.97,-1.42,0.97,-1.41,1.41,1.21,1.58,2.38,2.38,2.39
70.07,0.96,-1.37,0.97,-1.35,1.35,1.14,1.51,2.31,2.32,2.33
70.77,0.95,-1.31,0.97,-1.29,1.29,1.07,1.45,2.24,2.26,2.26
71.48,0.95,-1.26,0.97,-1.23,1.23,1.01,1.38,2.18,2.20,2.21
72.19,0.96,-1.19,0.98,-1.17,1.17,0.94,1.31,2.13,2.15,2.15
72.91,0.98,-1.10,0.99,-1.11,1.11,0.87,1.23,2.08,2.09,2.08
73.64,0.99,-1.04,1.00,-1.04,1.04,0.80,1.16,2.02,2.03,2.03
74.38,1.01,-0.96,1.01,-0.97,0.97,0.73,1.09,1.97,1.98,1.97
75.12,1.03,-0.89,1.03,-0.89,0.89,0.67,1.02,1.92,1.92,1.92
75.87,1.06,-0.81,1.05,-0.82,0.82,0.60,0.94,1.87,1.87,1.87
76.63,1.08,-0.73,1.08,-0.74,0.74,0.53,0.87,1.82,1.82,1.81
77.40,1.11,-0.66,1.10,-0.66,0.66,0.46,0.79,1.77,1.77,1.77
78.17,1.14,-0.57,1.13,-0.58,0.58,0.39,0.72,1.72,1.72,1.71
78.95,1.16,-0.51,1.16,-0.51,0.51,0.33,0.64,1.66,1.67,1.67
79.74,1.18,-0.44,1.19,-0.43,0.43,0.26,0.57,1.61,1.62,1.62
80.54,1.21,-0.36,1.21,-0.36,0.36,0.19,0.49,1.56,1.57,1.57
81.35,1.24,-0.27,1.23,-0.28,0.28,0.12,0.41,1.52,1.52,1.51
82.16,1.26,-0.22,1.25,-0.21,0.21,0.05,0.34,1.47,1.47,1.48
82.98,1.28,-0.14,1.27,-0.15,0.15,-0.01,0.26,1.42,1.41,1.42
83.81,1.30,-0.07,1.28,-0.08,0.08,-0.08,0.19,1.38,1.36,1.37
84.65,1.31,-0.00,1.29,-0.02,0.02,-0.15,0.11,1.32,1.31,1.31
85.50,1.32,0.07,1.30,0.05,-0.05,-0.22,0.03,1.27,1.26,1.25
86.35,1.32,0.12,1.31,0.10,-0.10,-0.28,-0.04,1.21,1.20,1.20
87.22,1.32,0.17,1.31,0.16,-0.16,-0.35,-0.12,1.15,1.15,1.15
88.09,1.31,0.22,1.31,0.22,-0.22,-0.42,-0.20,1.09,1.09,1.09
88.97,1.30,0.27,1.31,0.28,-0.28,-0.48,-0.28,1.02,1.03,1.03
89.86,1.30,0.32,1.31,0.33,-0.33,-0.55,-0.35,0.96,0.98,0.98
90.76,1.30,0.38,1.31,0.39,-0.39,-0.62,-0.43,0.91,0.92,0.92
91.66,1.30,0.45,1.30,0.45,-0.45,-0.68,-0.51,0.85,0.86,0.85
92.58,1.30,0.50,1.30,0.50,-0.50,-0.75,-0.59,0.79,0.80,0.80
93.51,1.30,0.55,1.30,0.56,-0.56,-0.82,-0.67,0.73,0.74,0.75
94.44,1.30,0.61,1.30,0.62,-0.62,-0.88,-0.75,0.68,0.68,0.69
95.39,1.30,0.68,1.30,0.68,-0.68,-0.95,-0.82,0.62,0.61,0.62
96.34,1.30,0.75,1.30,0.74,-0.74,-1.01,-0.90,0.55,0.55,0.55
97.30,1.30,0.81,1.30,0.81,-0.81,-1.08,-0.98,0.49,0.49,0.49
98.28,1.30,0.88,1.30,0.87,-0.87,-1.14,-1.06,0.43,0.43,0.42
99.26,1.30,0.94,1.30,0.93,-0.93,-1.21,-1.14,0.37,0.37,0.36
100.25,1.30,1.00,1.30,0.99,-0.99,-1.27,-1.22,0.31,0.31,0.30
101.25,1.30,1.05,1.30,1.05,-1.05,-1.33,-1.30,0.25,0.25,0.25
102.27,1.30,1.11,1.30,1.11,-1.11,-1.40,-1.38,0.19,0.19,0.19
103.29,1.30,1.17,1.30,1.16,-1.16,-1.46,-1.45,0.13,0.13,0.13
104.32,1.30,1.22,1.29,1.22,-1.22,-1.52,-1.53,0.08,0.08,0.08
105.37,1.30,1.28,1.29,1.27,-1.27,-1.59,-1.61,0.03,0.02,0.02
106.42,1.30,1.33,1.29,1.32,-1.32,-1.65,-1.69,-0.03,-0.03,-0.03
107.48,1.30,1.39,1.28,1.38,-1.38,-1.71,-1.76,-0.08,-0.09,-0.09
108.56,1.30,1.44,1.28,1.43,-1.43,-1.77,-1.84,-0.13,-0.15,-0.14
109.64,1.30,1.50,1.28,1.49,-1.49,-1.83,-1.91,-0.19,-0.21,-0.20
110.74,1.29,1.55,1.28,1.55,-1.55,-1.89,-1.98,-0.26,-0.27,-0.26
111.85,1.27,1.59,1.28,1.61,-1.61,-1.95,-2.05,-0.34,-0.32,-0.32
112.97,1.27,1.64,1.29,1.67,-1.67,-2.01,-2.12,-0.41,-0.38,-0.37
114.10,1.28,1.71,1.30,1.74,-1.74,-2.07,-2.19,-0.46,-0.44,-0.43
115.24,1.30,1.81,1.31,1.81,-1.81,-2.13,-2.25,-0.51,-0.50,-0.51
116.39,1.31,1.88,1.33,1.88,-1.88,-2.19,-2.32,-0.58,-0.56,-0.57
117.55,1.33,1.96,1.35,1.96,-1.96,-2.25,-2.38,-0.64,-0.61,-0.63
118.73,1.36,2.05,1.37,2.04,-2.04,-2.30,-2.44,-0.69,-0.67,-0.69
119.92,1.41,2.14,1.40,2.13,-2.13,-2.36,-2.49,-0.72,-0.73,-0.73
121.12,1.44,2.22,1.43,2.22,-2.22,-2.42,-2.54,-0.78,-0.79,-0.78
122.33,1.46,2.30,1.46,2.30,-2.30,-2.47,-2.59,-0.85,-0.84,-0.84
123.55,1.49,2.38,1.49,2.39,-2.39,-2.53,-2.64,-0.90,-0.90,-0.89
124.79,1.53,2.47,1.52,2.48,-2.48,-2.58,-2.68,-0.95,-0.95,-0.94
126.03,1.57,2.57,1.55,2.56,-2.56,-2.64,-2.72,-0.99,-1.01,-1.00
127.29,1.59,2.64,1.57,2.63,-2.63,-2.69,-2.76,-1.05,-1.06,-1.05
128.57,1.61,2.73,1.59,2.71,-2.71,-2.75,-2.80,-1.10,-1.12,-1.12
129.85,1.64,2.81,1.61,2.78,-2.78,-2.80,-2.83,-1.14,-1.17,-1.17
131.15,1.65,2.88,1.62,2.85,-2.85,-2.85,-2.86,-1.20,-1.23,-1.23
132.46,1.65,2.93,1.63,2.91,-2.91,-2.91,-2.89,-1.26,-1.28,-1.28
133.79,1.64,2.98,1.63,2.97,-2.97,-2.96,-2.91,-1.33,-1.34,-1.34
135.12,1.63,3.02,1.63,3.02,-3.02,-3.01,-2.94,-1.40,-1.39,-1.39
136.48,1.62,3.06,1.64,3.08,-3.08,-3.06,-2.96,-1.46,-1.44,-1.44
137.84,1.62,3.11,1.63,3.13,-3.13,-3.11,-2.98,-1.51,-1.49,-1.49
139.22,1.62,3.17,1.63,3.17,-3.17,-3.16,-3.00,-1.56,-1.54,-1.55
140.61,1.62,3.21,1.63,3.22,-3.22,-3.21,-3.02,-1.60,-1.59,-1.59
142.02,1.62,3.27,1.62,3.26,-3.26,-3.26,-3.04,-1.65,-1.64,-1.65
143.44,1.62,3.31,1.62,3.31,-3.31,-3.30,-3.06,-1.69,-1.69,-1.69
144.87,1.62,3.35,1.62,3.35,-3.35,-3.35,-3.07,-1.73,-1.73,-1.73
146.32,1.62,3.40,1.61,3.39,-3.39,-3.40,-3.09,-1.78,-1.78,-1.78
147.78,1.62,3.44,1.61,3.44,-3.44,-3.44,-3.11,-1.82,-1.82,-1.82
149.26,1.62,3.49,1.62,3.48,-3.48,-3.49,-3.13,-1.86,-1.87,-1.87
150.75,1.62,3.53,1.62,3.53,-3.53,-3.54,-3.15,-1.91,-1.91,-1.91
152.26,1.62,3.57,1.62,3.57,-3.57,-3.58,-3.17,-1.95,-1.95,-1.95
153.78,1.62,3.61,1.62,3.61,-3.61,-3.62,-3.19,-2.00,-2.00,-1.99
155.32,1.62,3.65,1.62,3.66,-3.66,-3.67,-3.22,-2.04,-2.04,-2.03
156.88,1.62,3.70,1.62,3.70,-3.70,-3.71,-3.24,-2.08,-2.08,-2.08
158.44,1.62,3.75,1.62,3.74,-3.74,-3.75,-3.27,-2.13,-2.13,-2.13
160.03,1.62,3.79,1.62,3.79,-3.79,-3.79,-3.30,-2.17,-2.17,-2.17
161.63,1.62,3.83,1.62,3.83,-3.83,-3.84,-3.33,-2.22,-2.22,-2.21
163.24,1.62,3.88,1.62,3.88,-3.88,-3.88,-3.37,-2.26,-2.26,-2.26
164.88,1.62,3.93,1.62,3.93,-3.93,-3.92,-3.40,-2.31,-2.31,-2.31
166.53,1.62,3.98,1.62,3.97,-3.97,-3.95,-3.44,-2.35,-2.35,-2.36
168.19,1.62,4.01,1.62,4.02,-4.02,-3.99,-3.48,-2.40,-2.40,-2.39
169.87,1.62,4.07,1.62,4.07,-4.07,-4.03,-3.53,-2.45,-2.45,-2.45
171.57,1.62,4.12,1.62,4.11,-4.11,-4.07,-3.58,-2.50,-2.50,-2.50
173.29,1.62,4.16,1.62,4.16,-4.16,-4.11,-3.62,-2.55,-2.54,-2.54
175.02,1.62,4.21,1.62,4.21,-4.21,-4.14,-3.68,-2.59,-2.59,-2.59
176.77,1.62,4.26,1.62,4.26,-4.26,-4.18,-3.73,-2.64,-2.64,-2.64
178.54,1.62,4.30,1.62,4.30,-4.30,-4.21,-3.79,-2.68,-2.68,-2.68
180.32,1.62,4.36,1.62,4.35,-4.35,-4.25,-3.85,-2.73,-2.73,-2.74
182.13,1.62,4.39,1.61,4.39,-4.39,-4.28,-3.92,-2.77,-2.78,-2.77
183.95,1.62,4.44,1.61,4.43,-4.43,-4.32,-3.98,-2.82,-2.82,-2.82
185.79,1.62,4.49,1.61,4.48,-4.48,-4.35,-4.05,-2.86,-2.87,-2.87
187.65,1.62,4.53,1.61,4.52,-4.52,-4.38,-4.13,-2.90,-2.91,-2.91
189.52,1.62,4.57,1.60,4.56,-4.56,-4.41,-4.20,-2.94,-2.96,-2.95
191.42,1.62,4.61,1.60,4.60,-4.60,-4.44,-4.28,-2.98,-3.00,-2.99
193.33,1.61,4.64,1.60,4.64,-4.64,-4.47,-4.36,-3.03,-3.04,-3.03
195.27,1.60,4.68,1.61,4.68,-4.68,-4.50,-4.44,-3.09,-3.08,-3.08
197.22,1.60,4.73,1.61,4.73,-4.73,-4.53,-4.53,-3.13,-3.12,-3.13
199.19,1.61,4.77,1.62,4.77,-4.77,-4.56,-4.61,-3.17,-3.15,-3.16
201.18,1.62,4.82,1.63,4.82,-4.82,-4.59,-4.70,-3.20,-3.19,-3.20
203.19,1.63,4.86,1.65,4.87,-4.87,-4.62,-4.79,-3.25,-3.22,-3.23
205.23,1.65,4.90,1.67,4.92,-4.92,-4.65,-4.88,-3.28,-3.26,-3.25
207.28,1.68,4.96,1.69,4.98,-4.98,-4.67,-4.98,-3.30,-3.29,-3.28
209.35,1.71,5.03,1.72,5.04,-5.04,-4.70,-5.07,-3.33,-3.32,-3.32
211.44,1.74,5.09,1.75,5.10,-5.10,-4.72,-5.16,-3.36,-3.35,-3.35
213.56,1.78,5.15,1.78,5.16,-5.16,-4.75,-5.25,-3.38,-3.38,-3.37
215.69,1.82,5.22,1.81,5.21,-5.21,-4.77,-5.34,-3.40,-3.41,-3.40
217.85,1.85,5.28,1.84,5.27,-5.27,-4.80,-5.43,-3.42,-3.43,-3.43
220.03,1.88,5.34,1.86,5.32,-5.32,-4.82,-5.52,-3.44,-3.46,-3.46
222.23,1.90,5.39,1.89,5.37,-5.37,-4.84,-5.60,-3.47,-3.48,-3.49
224.45,1.93,5.43,1.91,5.41,-5.41,-4.86,-5.69,-3.49,-3.50,-3.50
226.70,1.95,5.48,1.93,5.45,-5.45,-4.88,-5.76,-3.51,-3.53,-3.53
228.96,1.97,5.51,1.94,5.49,-5.49,-4.90,-5.84,-3.52,-3.55,-3.54
231.25,1.97,5.53,1.95,5.51,-5.51,-4.92,-5.91,-3.55,-3.56,-3.56
233.57,1.97,5.55,1.96,5.54,-5.54,-4.94,-5.97,-3.57,-3.58,-3.58
235.90,1.96,5.55,1.96,5.55,-5.55,-4.96,-6.03,-3.60,-3.59,-3.59
238.26,1.95,5.57,1.96,5.57,-5.57,-4.98,-6.08,-3.62,-3.61,-3.62
240.64,1.95,5.56,1.96,5.58,-5.58,-5.00,-6.12,-3.63,-3.62,-3.61
243.05,1.95,5.58,1.96,5.59,-5.59,-5.02,-6.16,-3.64,-3.63,-3.63
245.48,1.95,5.59,1.96,5.59,-5.59,-5.03,-6.19,-3.64,-3.64,-3.64
247.93,1.95,5.60,1.95,5.60,-5.60,-5.05,-6.21,-3.65,-3.64,-3.65
250.41,1.95,5.59,1.95,5.60,-5.60,-5.07,-6.23,-3.65,-3.65,-3.64
252.92,1.95,5.60,1.95,5.60,-5.60,-5.08,-6.23,-3.65,-3.65,-3.65
255.45,1.95,5.61,1.95,5.60,-5.60,-5.10,-6.23,-3.66,-3.66,-3.66
258.00,1.95,5.61,1.95,5.61,-5.61,-5.11,-6.22,-3.66,-3.66,-3.66
260.58,1.95,5.61,1.95,5.61,-5.61,-5.12,-6.20,-3.66,-3.66,-3.66
263.19,1.95,5.61,1.95,5.61,-5.61,-5.14,-6.18,-3.67,-3.67,-3.66
265.82,1.95,5.62,1.95,5.62,-5.62,-5.15,-6.15,-3.67,-3.67,-3.67
268.48,1.95,5.62,1.95,5.62,-5.62,-5.16,-6.11,-3.67,-3.67,-3.67
271.16,1.95,5.62,1.95,5.62,-5.62,-5.17,-6.07,-3.67,-3.68,-3.67
273.87,1.95,5.62,1.95,5.62,-5.62,-5.18,-6.02,-3.68,-3.68,-3.67
276.61,1.95,5.62,1.95,5.62,-5.62,-5.19,-5.96,-3.68,-3.68,-3.67
279.38,1.95,5.64,1.95,5.63,-5.63,-5.20,-5.91,-3.68,-3.68,-3.69
282.17,1.95,5.64,1.95,5.63,-5.63,-5.21,-5.85,-3.68,-3.68,-3.69
284.99,1.95,5.63,1.95,5.63,-5.63,-5.22,-5.79,-3.68,-3.68,-3.68
287.84,1.95,5.62,1.95,5.63,-5.63,-5.23,-5.72,-3.68,-3.68,-3.67
290.72,1.95,5.63,1.96,5.63,-5.63,-5.24,-5.66,-3.68,-3.67,-3.68
293.63,1.95,5.62,1.96,5.63,-5.63,-5.24,-5.59,-3.68,-3.67,-3.67
296.57,1.95,5.61,1.96,5.63,-5.63,-5.25,-5.52,-3.68,-3.67,-3.66
299.53,1.96,5.62,1.96,5.62,-5.62,-5.26,-5.45,-3.66,-3.66,-3.66
302.53,1.97,5.61,1.96,5.61,-5.61,-5.26,-5.39,-3.65,-3.65,-3.64
305.55,1.97,5.62,1.95,5.60,-5.60,-5.27,-5.32,-3.63,-3.65,-3.65
308.61,1.97,5.61,1.95,5.59,-5.59,-5.27,-5.26,-3.62,-3.64,-3.64
311.69,1.95,5.58,1.93,5.57,-5.57,-5.28,-5.19,-3.62,-3.63,-3.63
314.81,1.94,5.57,1.92,5.54,-5.54,-5.28,-5.13,-3.61,-3.63,-3.63
317.96,1.92,5.54,1.90,5.52,-5.52,-5.28,-5.07,-3.60,-3.62,-3.62
321.14,1.89,5.50,1.87,5.49,-5.49,-5.29,-5.02,-3.60,-3.61,-3.61
324.35,1.86,5.47,1.85,5.45,-5.45,-5.29,-4.96,-3.59,-3.60,-3.61
327.59,1.82,5.40,1.82,5.41,-5.41,-5.29,-4.91,-3.60,-3.60,-3.58
330.87,1.79,5.38,1.79,5.38,-5.38,-5.29,-4.87,-3.59,-3.59,-3.59
334.18,1.76,5.34,1.76,5.34,-5.34,-5.29,-4.82,-3.58,-3.58,-3.58
337.52,1.72,5.30,1.73,5.30,-5.30,-5.29,-4.78,-3.58,-3.57,-3.58
340.90,1.69,5.25,1.70,5.26,-5.26,-5.29,-4.74,-3.58,-3.56,-3.56
344.30,1.66,5.21,1.67,5.23,-5.23,-5.29,-4.71,-3.57,-3.56,-3.55
347.75,1.64,5.19,1.65,5.20,-5.20,-5.29,-4.68,-3.56,-3.55,-3.55
351.23,1.62,5.17,1.63,5.17,-5.17,-5.29,-4.65,-3.56,-3.54,-3.55
354.74,1.60,5.12,1.62,5.15,-5.15,-5.29,-4.63,-3.56,-3.53,-3.52
358.28,1.60,5.13,1.61,5.14,-5.14,-5.28,-4.61,-3.54,-3.53,-3.53
361.87,1.60,5.12,1.61,5.13,-5.13,-5.28,-4.59,-3.53,-3.52,-3.52
365.49,1.62,5.13,1.61,5.12,-5.12,-5.28,-4.58,-3.50,-3.51,-3.51
369.14,1.62,5.11,1.61,5.11,-5.11,-5.27,-4.57,-3.49,-3.50,-3.49
372.83,1.62,5.11,1.61,5.11,-5.11,-5.27,-4.56,-3.49,-3.49,-3.49
376.56,1.62,5.11,1.62,5.10,-5.10,-5.26,-4.56,-3.49,-3.48,-3.49
380.33,1.62,5.10,1.63,5.10,-5.10,-5.26,-4.56,-3.48,-3.48,-3.48
384.13,1.63,5.09,1.63,5.10,-5.10,-5.25,-4.57,-3.47,-3.47,-3.46
387.97,1.64,5.10,1.63,5.09,-5.09,-5.24,-4.57,-3.45,-3.46,-3.46
391.85,1.65,5.10,1.63,5.08,-5.08,-5.24,-4.58,-3.43,-3.45,-3.45
395.77,1.64,5.08,1.62,5.06,-5.06,-5.23,-4.59,-3.42,-3.44,-3.44
399.73,1.63,5.06,1.61,5.04,-5.04,-5.22,-4.61,-3.41,-3.43,-3.43
403.72,1.62,5.02,1.60,5.02,-5.02,-5.21,-4.63,-3.40,-3.42,-3.40
407.76,1.60,5.01,1.58,4.99,-4.99,-5.21,-4.65,-3.39,-3.41,-3.41
411.84,1.58,4.98,1.56,4.96,-4.96,-5.20,-4.67,-3.38,-3.40,-3.40
415.96,1.54,4.92,1.53,4.92,-4.92,-5.19,-4.69,-3.38,-3.39,-3.38
420.12,1.51,4.89,1.50,4.88,-4.88,-5.18,-4.71,-3.38,-3.38,-3.38
424.32,1.48,4.85,1.47,4.84,-4.84,-5.17,-4.74,-3.36,-3.37,-3.37
428.56,1.44,4.79,1.44,4.80,-4.80,-5.16,-4.76,-3.36,-3.36,-3.35
432.85,1.41,4.75,1.41,4.76,-4.76,-5.14,-4.79,-3.35,-3.35,-3.34
437.18,1.38,4.73,1.38,4.72,-4.72,-5.13,-4.81,-3.35,-3.34,-3.35
441.55,1.35,4.69,1.36,4.69,-4.69,-5.12,-4.84,-3.34,-3.33,-3.34
445.96,1.32,4.65,1.34,4.66,-4.66,-5.11,-4.86,-3.34,-3.33,-3.33
450.42,1.29,4.61,1.32,4.63,-4.63,-5.09,-4.88,-3.35,-3.32,-3.32
454.93,1.28,4.59,1.30,4.61,-4.61,-5.08,-4.90,-3.33,-3.31,-3.31
459.48,1.28,4.58,1.29,4.59,-4.59,-5.07,-4.92,-3.32,-3.30,-3.30
464.07,1.28,4.56,1.29,4.58,-4.58,-5.05,-4.93,-3.30,-3.29,-3.28
468.71,1.29,4.56,1.28,4.56,-4.56,-5.04,-4.94,-3.28,-3.28,-3.27
473.40,1.30,4.57,1.28,4.55,-4.55,-5.02,-4.95,-3.26,-3.27,-3.27
478.13,1.30,4.56,1.28,4.54,-4.54,-5.01,-4.96,-3.25,-3.26,-3.26
482.91,1.30,4.55,1.28,4.53,-4.53,-4.99,-4.96,-3.24,-3.25,-3.25
487.74,1.30,4.54,1.29,4.52,-4.52,-4.97,-4.96,-3.23,-3.24,-3.24
492.62,1.30,4.53,1.29,4.52,-4.52,-4.96,-4.95,-3.22,-3.23,-3.23
497.55,1.30,4.52,1.29,4.51,-4.51,-4.94,-4.94,-3.21,-3.22,-3.22
502.52,1.30,4.51,1.30,4.50,-4.50,-4.92,-4.92,-3.20,-3.20,-3.21
507.55,1.30,4.49,1.30,4.49,-4.49,-4.90,-4.90,-3.19,-3.19,-3.19
