frequency,raw,error,smoothed,error_smoothed,equalization,parametric_eq,fixed_band_eq,equalized_raw,equalized_smoothed,target
20.00,-1.68,-6.72,-1.69,-6.76,6.76,5.97,1.91,5.08,5.07,5.04
20.20,-1.66,-6.70,-1.68,-6.74,6.74,6.08,1.97,5.08,5.06,5.04
20.40,-1.66,-6.70,-1.66,-6.71,6.71,6.18,2.03,5.06,5.05,5.04
20.61,-1.64,-6.68,-1.65,-6.69,6.69,6.28,2.09,5.05,5.04,5.04
20.81,-1.62,-6.66,-1.62,-6.65,6.65,6.36,2.16,5.04,5.03,5.04
21.02,-1.61,-6.65,-1.60,-6.61,6.61,6.44,2.22,5.01,5.02,5.04
21.23,-1.58,-6.60,-1.56,-6.57,6.57,6.50,2.29,4.99,5.01,5.02
21.44,-1.56,-6.57,-1.53,-6.52,6.52,6.56,2.36,4.96,4.99,5.01
21.66,-1.52,-6.51,-1.49,-6.47,6.47,6.60,2.43,4.95,4.98,4.99
21.87,-1.48,-6.44,-1.45,-6.41,6.41,6.63,2.51,4.93,4.96,4.97
22.09,-1.42,-6.37,-1.40,-6.35,6.35,6.64,2.58,4.93,4.95,4.96
22.31,-1.37,-6.29,-1.35,-6.28,6.28,6.64,2.66,4.91,4.93,4.93
22.54,-1.31,-6.22,-1.28,-6.19,6.19,6.63,2.74,4.88,4.91,4.91
22.76,-1.23,-6.11,-1.21,-6.10,6.10,6.61,2.82,4.87,4.88,4.89
22.99,-1.16,-6.01,-1.14,-6.00,6.00,6.57,2.91,4.85,4.86,4.86
23.22,-1.08,-5.90,-1.07,-5.91,5.91,6.52,2.99,4.83,4.84,4.83
23.45,-0.99,-5.79,-0.99,-5.81,5.81,6.45,3.08,4.83,4.82,4.80
23.69,-0.91,-5.70,-0.92,-5.72,5.72,6.38,3.17,4.81,4.80,4.79
23.92,-0.83,-5.60,-0.85,-5.63,5.63,6.29,3.26,4.80,4.78,4.77
24.16,-0.75,-5.51,-0.78,-5.54,5.54,6.20,3.35,4.79,4.76,4.76
24.40,-0.70,-5.44,-0.72,-5.46,5.46,6.10,3.44,4.76,4.74,4.74
24.65,-0.63,-5.35,-0.66,-5.38,5.38,5.99,3.54,4.75,4.72,4.72
24.89,-0.58,-5.28,-0.61,-5.31,5.31,5.87,3.63,4.73,4.70,4.70
25.14,-0.54,-5.22,-0.56,-5.24,5.24,5.75,3.73,4.70,4.68,4.69
25.39,-0.50,-5.16,-0.51,-5.17,5.17,5.62,3.83,4.68,4.67,4.67
25.65,-0.47,-5.12,-0.46,-5.11,5.11,5.49,3.92,4.64,4.65,4.66
25.91,-0.43,-5.05,-0.41,-5.04,5.04,5.36,4.02,4.61,4.63,4.63
26.16,-0.39,-5.00,-0.35,-4.97,4.97,5.22,4.12,4.58,4.62,4.61
26.43,-0.34,-4.94,-0.30,-4.90,4.90,5.08,4.21,4.56,4.60,4.60
26.69,-0.28,-4.86,-0.24,-4.82,4.82,4.95,4.30,4.55,4.59,4.58
26.96,-0.21,-4.78,-0.17,-4.74,4.74,4.81,4.40,4.54,4.57,4.57
27.23,-0.13,-4.69,-0.11,-4.66,4.66,4.67,4.48,4.53,4.55,4.56
27.50,-0.05,-4.59,-0.04,-4.58,4.58,4.54,4.57,4.53,4.54,4.55
27.77,0.04,-4.48,0.03,-4.49,4.49,4.40,4.65,4.54,4.53,4.53
28.05,0.13,-4.38,0.10,-4.41,4.41,4.27,4.73,4.54,4.51,4.51
28.33,0.20,-4.29,0.18,-4.32,4.32,4.14,4.80,4.52,4.50,4.49
28.62,0.28,-4.20,0.25,-4.23,4.23,4.01,4.86,4.51,4.48,4.48
28.90,0.34,-4.13,0.33,-4.15,4.15,3.89,4.92,4.49,4.47,4.47
29.19,0.40,-4.04,0.40,-4.06,4.06,3.76,4.98,4.46,4.46,4.45
29.48,0.47,-3.97,0.46,-3.98,3.98,3.64,5.02,4.45,4.44,4.45
29.78,0.52,-3.91,0.53,-3.90,3.90,3.52,5.06,4.42,4.43,4.43
30.08,0.58,-3.84,0.59,-3.82,3.82,3.41,5.08,4.41,4.41,4.42
30.38,0.63,-3.77,0.65,-3.75,3.75,3.29,5.10,4.38,4.40,4.40
30.68,0.70,-3.68,0.71,-3.68,3.68,3.18,5.11,4.38,4.38,4.39
30.99,0.76,-3.60,0.76,-3.60,3.60,3.08,5.11,4.37,4.37,4.36
31.30,0.82,-3.53,0.82,-3.53,3.53,2.97,5.10,4.35,4.35,4.35
31.61,0.88,-3.46,0.88,-3.46,3.46,2.87,5.08,4.34,4.33,4.34
31.93,0.93,-3.39,0.93,-3.38,3.38,2.77,5.04,4.31,4.31,4.32
32.24,0.98,-3.30,0.99,-3.30,3.30,2.68,5.00,4.29,4.29,4.28
32.57,1.04,-3.23,1.05,-3.23,3.23,2.58,4.95,4.27,4.27,4.27
32.89,1.09,-3.16,1.10,-3.15,3.15,2.49,4.89,4.24,4.25,4.26
33.22,1.16,-3.06,1.16,-3.07,3.07,2.40,4.82,4.23,4.23,4.23
33.55,1.21,-3.00,1.21,-3.00,3.00,2.32,4.75,4.21,4.21,4.21
33.89,1.27,-2.92,1.27,-2.92,2.92,2.24,4.66,4.19,4.19,4.19
34.23,1.32,-2.84,1.32,-2.85,2.85,2.15,4.57,4.17,4.17,4.17
34.57,1.38,-2.76,1.37,-2.77,2.77,2.08,4.47,4.16,4.15,4.14
34.92,1.43,-2.69,1.42,-2.70,2.70,2.00,4.37,4.13,4.12,4.12
35.27,1.48,-2.62,1.48,-2.63,2.63,1.92,4.25,4.11,4.10,4.11
35.62,1.52,-2.56,1.53,-2.55,2.55,1.85,4.14,4.08,4.08,4.08
35.97,1.57,-2.48,1.58,-2.48,2.48,1.78,4.02,4.05,4.06,4.06
36.33,1.62,-2.42,1.63,-2.41,2.41,1.71,3.90,4.03,4.04,4.04
36.70,1.66,-2.36,1.68,-2.34,2.34,1.64,3.77,4.00,4.02,4.02
37.06,1.72,-2.27,1.73,-2.27,2.27,1.58,3.64,3.99,4.00,3.99
37.43,1.77,-2.20,1.78,-2.20,2.20,1.52,3.51,3.97,3.97,3.98
37.81,1.82,-2.13,1.82,-2.13,2.13,1.45,3.38,3.95,3.95,3.95
38.19,1.88,-2.05,1.87,-2.06,2.06,1.39,3.25,3.94,3.93,3.93
38.57,1.92,-1.99,1.92,-1.99,1.99,1.33,3.12,3.92,3.91,3.91
38.95,1.97,-1.91,1.96,-1.93,1.93,1.28,2.98,3.90,3.89,3.89
39.34,2.02,-1.84,2.01,-1.86,1.86,1.22,2.85,3.88,3.87,3.86
39.74,2.05,-1.78,2.05,-1.80,1.80,1.16,2.71,3.85,3.85,3.84
40.14,2.09,-1.74,2.10,-1.73,1.73,1.11,2.58,3.82,3.83,3.83
40.54,2.13,-1.67,2.14,-1.67,1.67,1.06,2.44,3.80,3.81,3.80
40.94,2.18,-1.60,2.19,-1.60,1.60,1.00,2.31,3.78,3.79,3.79
41.35,2.22,-1.54,2.23,-1.53,1.53,0.95,2.18,3.76,3.77,3.76
41.76,2.27,-1.48,2.28,-1.47,1.47,0.90,2.04,3.74,3.75,3.75
42.18,2.32,-1.41,2.33,-1.40,1.40,0.85,1.91,3.72,3.73,3.73
42.60,2.36,-1.34,2.37,-1.33,1.33,0.80,1.78,3.70,3.71,3.71
43.03,2.41,-1.29,2.42,-1.26,1.26,0.75,1.65,3.67,3.69,3.70
43.46,2.47,-1.20,2.47,-1.19,1.19,0.71,1.52,3.67,3.67,3.67
43.90,2.53,-1.11,2.52,-1.12,1.12,0.66,1.39,3.65,3.65,3.64
44.33,2.58,-1.04,2.58,-1.05,1.05,0.61,1.26,3.63,3.63,3.62
44.78,2.63,-0.97,2.63,-0.98,0.98,0.57,1.14,3.61,3.61,3.60
45.23,2.68,-0.89,2.68,-0.91,0.91,0.52,1.01,3.59,3.58,3.57
45.68,2.73,-0.82,2.73,-0.83,0.83,0.47,0.89,3.57,3.56,3.55
46.13,2.78,-0.75,2.78,-0.76,0.76,0.43,0.76,3.55,3.54,3.53
46.60,2.83,-0.69,2.83,-0.69,0.69,0.38,0.64,3.52,3.52,3.52
47.06,2.88,-0.62,2.88,-0.62,0.62,0.34,0.52,3.50,3.50,3.50
47.53,2.93,-0.55,2.93,-0.54,0.54,0.29,0.40,3.48,3.47,3.48
48.01,2.97,-0.49,2.98,-0.47,0.47,0.25,0.28,3.44,3.45,3.47
48.49,3.02,-0.41,3.03,-0.40,0.40,0.20,0.16,3.42,3.43,3.44
48.97,3.07,-0.33,3.08,-0.33,0.33,0.16,0.04,3.40,3.40,3.40
49.46,3.12,-0.25,3.13,-0.25,0.25,0.11,-0.08,3.37,3.38,3.37
49.96,3.17,-0.16,3.18,-0.17,0.17,0.06,-0.19,3.35,3.35,3.33
50.46,3.23,-0.10,3.23,-0.09,0.09,0.02,-0.31,3.33,3.33,3.33
50.96,3.28,-0.02,3.29,-0.01,0.01,-0.03,-0.42,3.30,3.30,3.31
51.47,3.34,0.07,3.35,0.07,-0.07,-0.08,-0.53,3.27,3.28,3.27
51.99,3.40,0.16,3.40,0.16,-0.16,-0.13,-0.64,3.25,3.25,3.24
52.51,3.46,0.24,3.46,0.24,-0.24,-0.18,-0.75,3.22,3.22,3.23
53.03,3.52,0.32,3.53,0.33,-0.33,-0.23,-0.85,3.19,3.20,3.20
53.56,3.58,0.41,3.59,0.42,-0.42,-0.28,-0.96,3.16,3.17,3.17
54.10,3.65,0.51,3.65,0.51,-0.51,-0.33,-1.06,3.15,3.14,3.14
54.64,3.70,0.59,3.71,0.60,-0.60,-0.39,-1.16,3.11,3.12,3.12
55.18,3.77,0.69,3.77,0.68,-0.68,-0.44,-1.25,3.09,3.09,3.09
55.74,3.83,0.78,3.83,0.77,-0.77,-0.50,-1.35,3.06,3.06,3.06
56.29,3.89,0.86,3.89,0.86,-0.86,-0.56,-1.43,3.04,3.03,3.04
56.86,3.95,0.95,3.95,0.94,-0.94,-0.62,-1.52,3.01,3.01,3.00
57.42,4.01,1.04,4.00,1.03,-1.03,-0.69,-1.60,2.99,2.98,2.97
58.00,4.06,1.11,4.06,1.11,-1.11,-0.75,-1.68,2.95,2.95,2.95
58.58,4.11,1.20,4.11,1.19,-1.19,-0.82,-1.75,2.92,2.92,2.91
59.16,4.16,1.27,4.16,1.27,-1.27,-0.89,-1.82,2.89,2.89,2.89
59.76,4.20,1.34,4.21,1.35,-1.35,-0.96,-1.89,2.85,2.86,2.87
60.35,4.25,1.42,4.25,1.43,-1.43,-1.04,-1.95,2.83,2.83,2.83
60.96,4.29,1.48,4.30,1.50,-1.50,-1.11,-2.00,2.79,2.80,2.81
61.57,4.33,1.57,4.34,1.57,-1.57,-1.19,-2.05,2.76,2.76,2.77
62.18,4.37,1.65,4.37,1.64,-1.64,-1.28,-2.10,2.73,2.73,2.73
62.80,4.40,1.71,4.41,1.71,-1.71,-1.36,-2.14,2.70,2.70,2.70
63.43,4.44,1.79,4.44,1.77,-1.77,-1.45,-2.17,2.67,2.67,2.66
64.07,4.46,1.84,4.47,1.83,-1.83,-1.54,-2.20,2.63,2.64,2.63
64.71,4.50,1.90,4.50,1.89,-1.89,-1.63,-2.22,2.61,2.61,2.60
65.35,4.52,1.95,4.52,1.95,-1.95,-1.72,-2.24,2.58,2.58,2.57
66.01,4.54,1.99,4.54,2.00,-2.00,-1.82,-2.26,2.54,2.55,2.55
66.67,4.56,2.05,4.56,2.05,-2.05,-1.91,-2.27,2.52,2.51,2.51
67.33,4.58,2.09,4.57,2.09,-2.09,-2.00,-2.28,2.49,2.48,2.49
68.01,4.58,2.13,4.58,2.13,-2.13,-2.09,-2.28,2.45,2.45,2.45
68.69,4.59,2.17,4.59,2.17,-2.17,-2.18,-2.28,2.42,2.42,2.42
69.37,4.59,2.21,4.59,2.20,-2.20,-2.26,-2.28,2.39,2.39,2.39
70.07,4.59,2.24,4.59,2.23,-2.23,-2.34,-2.27,2.36,2.36,2.36
70.77,4.58,2.26,4.58,2.26,-2.26,-2.40,-2.26,2.32,2.32,2.33
71.48,4.57,2.29,4.57,2.29,-2.29,-2.46,-2.25,2.29,2.28,2.29
72.19,4.55,2.30,4.55,2.31,-2.31,-2.51,-2.24,2.25,2.25,2.25
72.91,4.54,2.33,4.54,2.33,-2.33,-2.55,-2.22,2.22,2.21,2.21
73.64,4.51,2.35,4.51,2.34,-2.34,-2.58,-2.21,2.17,2.17,2.17
74.38,4.48,2.35,4.49,2.36,-2.36,-2.60,-2.19,2.12,2.13,2.13
75.12,4.46,2.39,4.46,2.37,-2.37,-2.61,-2.17,2.09,2.08,2.07
75.87,4.42,2.39,4.43,2.39,-2.39,-2.61,-2.16,2.04,2.04,2.04
76.63,4.39,2.39,4.39,2.40,-2.40,-2.60,-2.14,2.00,2.00,2.00
77.40,4.34,2.39,4.36,2.41,-2.41,-2.58,-2.12,1.94,1.95,1.95
78.17,4.31,2.42,4.32,2.42,-2.42,-2.55,-2.10,1.90,1.90,1.89
78.95,4.27,2.41,4.28,2.42,-2.42,-2.52,-2.09,1.85,1.85,1.86
79.74,4.23,2.43,4.23,2.43,-2.43,-2.49,-2.07,1.80,1.80,1.81
80.54,4.18,2.43,4.19,2.43,-2.43,-2.45,-2.05,1.75,1.75,1.75
81.35,4.14,2.44,4.14,2.44,-2.44,-2.41,-2.04,1.71,1.70,1.70
82.16,4.09,2.45,4.09,2.44,-2.44,-2.37,-2.03,1.65,1.65,1.65
82.98,4.04,2.44,4.04,2.44,-2.44,-2.32,-2.01,1.60,1.59,1.60
83.81,3.98,2.45,3.98,2.44,-2.44,-2.28,-2.00,1.54,1.54,1.53
84.65,3.92,2.45,3.93,2.44,-2.44,-2.25,-1.99,1.48,1.48,1.48
85.50,3.86,2.43,3.87,2.44,-2.44,-2.21,-1.98,1.42,1.43,1.43
86.35,3.80,2.43,3.81,2.44,-2.44,-2.18,-1.97,1.36,1.37,1.37
87.22,3.74,2.43,3.75,2.44,-2.44,-2.15,-1.97,1.31,1.31,1.31
88.09,3.68,2.43,3.69,2.43,-2.43,-2.12,-1.96,1.25,1.25,1.25
88.97,3.62,2.42,3.62,2.43,-2.43,-2.09,-1.96,1.20,1.19,1.20
89.86,3.55,2.42,3.55,2.42,-2.42,-2.07,-1.96,1.13,1.13,1.14
90.76,3.49,2.43,3.49,2.41,-2.41,-2.05,-1.96,1.08,1.07,1.06
91.66,3.42,2.41,3.42,2.40,-2.40,-2.04,-1.96,1.02,1.01,1.01
92.58,3.34,2.41,3.34,2.40,-2.40,-2.02,-1.96,0.95,0.95,0.94
93.51,3.27,2.38,3.27,2.39,-2.39,-2.01,-1.97,0.89,0.89,0.89
94.44,3.20,2.37,3.20,2.38,-2.38,-2.01,-1.97,0.83,0.82,0.83
95.39,3.12,2.36,3.12,2.37,-2.37,-2.00,-1.98,0.75,0.75,0.76
96.34,3.04,2.36,3.05,2.36,-2.36,-2.00,-1.99,0.68,0.69,0.69
97.30,2.96,2.34,2.97,2.35,-2.35,-2.00,-2.00,0.62,0.62,0.62
98.28,2.88,2.33,2.89,2.34,-2.34,-2.01,-2.01,0.55,0.55,0.55
99.26,2.80,2.33,2.81,2.32,-2.32,-2.01,-2.02,0.48,0.48,0.48
100.25,2.72,2.31,2.72,2.31,-2.31,-2.02,-2.04,0.41,0.41,0.41
101.25,2.64,2.30,2.64,2.30,-2.30,-2.03,-2.05,0.34,0.34,0.34
102.27,2.56,2.30,2.56,2.29,-2.29,-2.04,-2.07,0.28,0.27,0.27
103.29,2.47,2.29,2.47,2.28,-2.28,-2.06,-2.09,0.20,0.20,0.19
104.32,2.39,2.27,2.39,2.26,-2.26,-2.07,-2.11,0.13,0.12,0.12
105.37,2.31,2.26,2.30,2.25,-2.25,-2.09,-2.13,0.06,0.05,0.05
106.42,2.21,2.24,2.21,2.24,-2.24,-2.11,-2.15,-0.03,-0.03,-0.03
107.48,2.12,2.23,2.13,2.23,-2.23,-2.13,-2.17,-0.11,-0.10,-0.10
108.56,2.04,2.22,2.04,2.22,-2.22,-2.16,-2.19,-0.18,-0.18,-0.18
109.64,1.95,2.21,1.96,2.21,-2.21,-2.18,-2.22,-0.26,-0.26,-0.26
110.74,1.87,2.20,1.87,2.21,-2.21,-2.21,-2.24,-0.33,-0.34,-0.33
111.85,1.78,2.19,1.79,2.20,-2.20,-2.24,-2.26,-0.42,-0.41,-0.40
112.97,1.70,2.20,1.71,2.20,-2.20,-2.26,-2.29,-0.50,-0.49,-0.50
114.10,1.62,2.19,1.63,2.20,-2.20,-2.30,-2.31,-0.57,-0.57,-0.57
115.24,1.55,2.20,1.55,2.20,-2.20,-2.33,-2.34,-0.64,-0.64,-0.64
116.39,1.48,2.21,1.48,2.20,-2.20,-2.36,-2.36,-0.72,-0.72,-0.73
117.55,1.41,2.22,1.41,2.21,-2.21,-2.40,-2.39,-0.80,-0.80,-0.80
118.73,1.34,2.22,1.35,2.22,-2.22,-2.43,-2.41,-0.87,-0.87,-0.88
119.92,1.28,2.23,1.28,2.23,-2.23,-2.47,-2.44,-0.95,-0.94,-0.94
121.12,1.22,2.24,1.23,2.24,-2.24,-2.51,-2.46,-1.02,-1.02,-1.02
122.33,1.17,2.26,1.17,2.26,-2.26,-2.55,-2.49,-1.09,-1.09,-1.09
123.55,1.12,2.28,1.12,2.28,-2.28,-2.59,-2.51,-1.16,-1.16,-1.15
124.79,1.07,2.30,1.08,2.31,-2.31,-2.63,-2.53,-1.23,-1.23,-1.23
126.03,1.03,2.32,1.03,2.33,-2.33,-2.68,-2.56,-1.30,-1.30,-1.29
127.29,0.99,2.35,1.00,2.36,-2.36,-2.72,-2.58,-1.37,-1.36,-1.36
128.57,0.95,2.39,0.96,2.39,-2.39,-2.77,-2.61,-1.44,-1.43,-1.44
129.85,0.93,2.43,0.93,2.43,-2.43,-2.81,-2.63,-1.49,-1.49,-1.50
131.15,0.90,2.46,0.91,2.46,-2.46,-2.86,-2.65,-1.56,-1.55,-1.55
132.46,0.89,2.51,0.89,2.50,-2.50,-2.91,-2.68,-1.61,-1.61,-1.62
133.79,0.87,2.54,0.87,2.54,-2.54,-2.96,-2.70,-1.67,-1.67,-1.67
135.12,0.86,2.60,0.86,2.59,-2.59,-3.01,-2.72,-1.72,-1.73,-1.73
136.48,0.84,2.62,0.85,2.63,-2.63,-3.06,-2.75,-1.79,-1.78,-1.78
137.84,0.84,2.67,0.84,2.67,-2.67,-3.12,-2.77,-1.83,-1.83,-1.82
139.22,0.84,2.73,0.84,2.72,-2.72,-3.17,-2.80,-1.87,-1.88,-1.89
140.61,0.83,2.77,0.84,2.76,-2.76,-3.22,-2.82,-1.93,-1.92,-1.94
142.02,0.84,2.80,0.84,2.81,-2.81,-3.28,-2.85,-1.96,-1.97,-1.96
143.44,0.84,2.84,0.84,2.85,-2.85,-3.34,-2.88,-2.01,-2.01,-2.00
144.87,0.84,2.89,0.85,2.89,-2.89,-3.40,-2.91,-2.05,-2.05,-2.05
146.32,0.86,2.95,0.85,2.93,-2.93,-3.45,-2.94,-2.07,-2.08,-2.09
147.78,0.86,2.98,0.85,2.98,-2.98,-3.51,-2.97,-2.11,-2.12,-2.12
149.26,0.87,3.02,0.86,3.02,-3.02,-3.57,-3.00,-2.15,-2.16,-2.15
150.75,0.87,3.07,0.87,3.06,-3.06,-3.63,-3.04,-2.19,-2.19,-2.20
152.26,0.88,3.11,0.88,3.11,-3.11,-3.70,-3.07,-2.22,-2.23,-2.23
153.78,0.89,3.16,0.89,3.15,-3.15,-3.76,-3.11,-2.26,-2.27,-2.26
155.32,0.89,3.19,0.90,3.20,-3.20,-3.82,-3.15,-2.31,-2.30,-2.30
156.88,0.90,3.23,0.91,3.25,-3.25,-3.89,-3.20,-2.34,-2.33,-2.33
158.44,0.91,3.28,0.93,3.30,-3.30,-3.95,-3.24,-2.38,-2.37,-2.37
160.03,0.93,3.34,0.94,3.35,-3.35,-4.01,-3.29,-2.41,-2.40,-2.41
161.63,0.95,3.40,0.96,3.40,-3.40,-4.08,-3.34,-2.45,-2.44,-2.45
163.24,0.98,3.46,0.98,3.46,-3.46,-4.15,-3.39,-2.47,-2.47,-2.47
164.88,1.00,3.50,1.01,3.51,-3.51,-4.21,-3.45,-2.51,-2.51,-2.50
166.53,1.03,3.57,1.03,3.57,-3.57,-4.28,-3.51,-2.54,-2.54,-2.54
168.19,1.06,3.65,1.05,3.63,-3.63,-4.34,-3.57,-2.57,-2.58,-2.58
169.87,1.08,3.70,1.08,3.70,-3.70,-4.41,-3.63,-2.61,-2.62,-2.62
171.57,1.11,3.76,1.11,3.76,-3.76,-4.48,-3.70,-2.65,-2.65,-2.65
173.29,1.13,3.81,1.13,3.83,-3.83,-4.54,-3.77,-2.69,-2.69,-2.68
175.02,1.16,3.89,1.16,3.89,-3.89,-4.61,-3.84,-2.73,-2.73,-2.72
176.77,1.19,3.97,1.19,3.96,-3.96,-4.67,-3.92,-2.77,-2.77,-2.77
178.54,1.21,4.02,1.22,4.03,-4.03,-4.74,-4.00,-2.81,-2.81,-2.81
180.32,1.24,4.09,1.24,4.09,-4.09,-4.80,-4.08,-2.85,-2.85,-2.85
182.13,1.26,4.15,1.27,4.16,-4.16,-4.87,-4.16,-2.90,-2.89,-2.89
183.95,1.29,4.23,1.30,4.23,-4.23,-4.93,-4.25,-2.93,-2.93,-2.93
185.79,1.32,4.29,1.32,4.29,-4.29,-5.00,-4.34,-2.97,-2.97,-2.97
187.65,1.35,4.37,1.35,4.35,-4.35,-5.06,-4.44,-3.00,-3.01,-3.02
189.52,1.37,4.42,1.37,4.42,-4.42,-5.12,-4.53,-3.04,-3.04,-3.05
191.42,1.40,4.49,1.40,4.48,-4.48,-5.18,-4.63,-3.07,-3.08,-3.08
193.33,1.42,4.53,1.42,4.54,-4.54,-5.23,-4.73,-3.11,-3.12,-3.11
195.27,1.45,4.59,1.45,4.59,-4.59,-5.29,-4.83,-3.14,-3.15,-3.14
197.22,1.46,4.64,1.47,4.65,-4.65,-5.35,-4.94,-3.19,-3.18,-3.17
199.19,1.49,4.72,1.49,4.70,-4.70,-5.40,-5.05,-3.21,-3.21,-3.22
201.18,1.52,4.77,1.52,4.76,-4.76,-5.45,-5.16,-3.23,-3.24,-3.24
203.19,1.53,4.80,1.54,4.81,-4.81,-5.50,-5.27,-3.27,-3.27,-3.26
205.23,1.56,4.86,1.57,4.86,-4.86,-5.54,-5.38,-3.29,-3.29,-3.29
207.28,1.59,4.89,1.59,4.91,-4.91,-5.59,-5.49,-3.31,-3.32,-3.30
209.35,1.61,4.95,1.62,4.95,-4.95,-5.63,-5.60,-3.34,-3.34,-3.34
211.44,1.64,5.01,1.64,5.00,-5.00,-5.67,-5.71,-3.36,-3.36,-3.37
213.56,1.67,5.06,1.67,5.05,-5.05,-5.70,-5.82,-3.37,-3.38,-3.38
215.69,1.70,5.09,1.70,5.09,-5.09,-5.74,-5.93,-3.39,-3.40,-3.39
217.85,1.72,5.13,1.73,5.14,-5.14,-5.77,-6.04,-3.41,-3.41,-3.40
220.03,1.76,5.19,1.76,5.18,-5.18,-5.79,-6.14,-3.42,-3.42,-3.43
222.23,1.79,5.24,1.79,5.22,-5.22,-5.82,-6.24,-3.43,-3.43,-3.44
224.45,1.82,5.26,1.83,5.27,-5.27,-5.84,-6.33,-3.44,-3.44,-3.44
226.70,1.85,5.30,1.86,5.31,-5.31,-5.85,-6.42,-3.46,-3.45,-3.45
228.96,1.90,5.36,1.90,5.35,-5.35,-5.87,-6.51,-3.45,-3.45,-3.45
231.25,1.93,5.38,1.94,5.39,-5.39,-5.87,-6.58,-3.46,-3.45,-3.45
233.57,1.97,5.41,1.98,5.43,-5.43,-5.88,-6.65,-3.46,-3.45,-3.44
235.90,2.02,5.46,2.03,5.47,-5.47,-5.88,-6.71,-3.44,-3.44,-3.44
238.26,2.07,5.52,2.07,5.50,-5.50,-5.88,-6.76,-3.43,-3.43,-3.44
240.64,2.11,5.54,2.12,5.54,-5.54,-5.87,-6.80,-3.43,-3.42,-3.42
243.05,2.16,5.58,2.16,5.57,-5.57,-5.87,-6.83,-3.41,-3.41,-3.41
245.48,2.20,5.60,2.21,5.60,-5.60,-5.85,-6.85,-3.40,-3.40,-3.39
247.93,2.25,5.64,2.25,5.63,-5.63,-5.84,-6.86,-3.38,-3.38,-3.38
250.41,2.30,5.68,2.30,5.66,-5.66,-5.82,-6.86,-3.36,-3.36,-3.37
252.92,2.34,5.69,2.34,5.69,-5.69,-5.79,-6.84,-3.34,-3.35,-3.34
255.45,2.37,5.69,2.38,5.71,-5.71,-5.76,-6.82,-3.33,-3.33,-3.32
258.00,2.42,5.72,2.42,5.72,-5.72,-5.73,-6.78,-3.30,-3.31,-3.30
260.58,2.46,5.75,2.45,5.74,-5.74,-5.70,-6.73,-3.28,-3.29,-3.29
263.19,2.49,5.76,2.48,5.75,-5.75,-5.66,-6.67,-3.25,-3.26,-3.27
265.82,2.52,5.77,2.51,5.75,-5.75,-5.62,-6.60,-3.23,-3.24,-3.24
268.48,2.55,5.77,2.54,5.76,-5.76,-5.58,-6.52,-3.21,-3.22,-3.22
271.16,2.57,5.76,2.56,5.76,-5.76,-5.54,-6.44,-3.19,-3.20,-3.19
273.87,2.59,5.77,2.59,5.76,-5.76,-5.49,-6.34,-3.17,-3.17,-3.17
276.61,2.61,5.75,2.61,5.76,-5.76,-5.44,-6.24,-3.14,-3.15,-3.14
279.38,2.62,5.75,2.62,5.75,-5.75,-5.39,-6.13,-3.13,-3.13,-3.13
282.17,2.63,5.74,2.64,5.74,-5.74,-5.33,-6.02,-3.11,-3.10,-3.10
284.99,2.65,5.73,2.66,5.74,-5.74,-5.27,-5.91,-3.08,-3.08,-3.08
287.84,2.67,5.73,2.68,5.73,-5.73,-5.21,-5.78,-3.06,-3.05,-3.05
290.72,2.69,5.71,2.70,5.72,-5.72,-5.15,-5.66,-3.03,-3.02,-3.02
293.63,2.71,5.72,2.72,5.72,-5.72,-5.09,-5.53,-3.00,-3.00,-3.00
296.57,2.74,5.71,2.74,5.71,-5.71,-5.03,-5.41,-2.97,-2.97,-2.97
299.53,2.76,5.71,2.77,5.71,-5.71,-4.96,-5.28,-2.95,-2.94,-2.94
302.53,2.79,5.71,2.80,5.71,-5.71,-4.90,-5.15,-2.92,-2.91,-2.92
305.55,2.82,5.70,2.84,5.71,-5.71,-4.83,-5.02,-2.89,-2.88,-2.87
308.61,2.86,5.71,2.87,5.72,-5.72,-4.76,-4.89,-2.86,-2.85,-2.85
311.69,2.90,5.72,2.91,5.73,-5.73,-4.69,-4.76,-2.82,-2.82,-2.81
314.81,2.94,5.72,2.95,5.74,-5.74,-4.62,-4.63,-2.79,-2.78,-2.78
317.96,2.98,5.73,2.99,5.75,-5.75,-4.55,-4.51,-2.76,-2.75,-2.75
321.14,3.03,5.76,3.04,5.76,-5.76,-4.48,-4.38,-2.73,-2.72,-2.72
324.35,3.07,5.77,3.08,5.77,-5.77,-4.40,-4.26,-2.70,-2.70,-2.70
327.59,3.11,5.77,3.12,5.78,-5.78,-4.33,-4.14,-2.67,-2.67,-2.66
330.87,3.15,5.79,3.15,5.79,-5.79,-4.26,-4.02,-2.64,-2.64,-2.63
334.18,3.19,5.81,3.18,5.80,-5.80,-4.19,-3.91,-2.61,-2.61,-2.62
337.52,3.22,5.81,3.21,5.80,-5.80,-4.11,-3.79,-2.58,-2.59,-2.59
340.90,3.24,5.81,3.23,5.80,-5.80,-4.04,-3.68,-2.56,-2.57,-2.56
344.30,3.26,5.81,3.25,5.79,-5.79,-3.97,-3.57,-2.53,-2.55,-2.55
347.75,3.26,5.78,3.26,5.78,-5.78,-3.89,-3.46,-2.52,-2.52,-2.52
351.23,3.26,5.76,3.26,5.76,-5.76,-3.82,-3.36,-2.50,-2.50,-2.50
354.74,3.25,5.74,3.25,5.73,-5.73,-3.75,-3.26,-2.48,-2.48,-2.48
358.28,3.23,5.70,3.23,5.70,-5.70,-3.67,-3.16,-2.46,-2.46,-2.47
361.87,3.20,5.65,3.21,5.65,-5.65,-3.60,-3.06,-2.45,-2.45,-2.45
365.49,3.17,5.59,3.17,5.60,-5.60,-3.53,-2.97,-2.42,-2.43,-2.42
369.14,3.13,5.55,3.13,5.53,-5.53,-3.46,-2.87,-2.40,-2.41,-2.41
372.83,3.07,5.47,3.07,5.46,-5.46,-3.39,-2.78,-2.39,-2.39,-2.40
376.56,3.02,5.40,3.01,5.38,-5.38,-3.31,-2.70,-2.35,-2.37,-2.38
380.33,2.94,5.29,2.93,5.29,-5.29,-3.24,-2.61,-2.34,-2.35,-2.35
384.13,2.86,5.19,2.85,5.18,-5.18,-3.17,-2.53,-2.32,-2.33,-2.33
387.97,2.76,5.08,2.77,5.08,-5.08,-3.10,-2.45,-2.31,-2.31,-2.31
391.85,2.67,4.97,2.67,4.96,-4.96,-3.03,-2.37,-2.29,-2.29,-2.29
395.77,2.56,4.83,2.57,4.84,-4.84,-2.96,-2.29,-2.28,-2.27,-2.27
399.73,2.46,4.71,2.46,4.71,-4.71,-2.89,-2.22,-2.25,-2.25,-2.25
403.72,2.33,4.56,2.34,4.57,-4.57,-2.82,-2.15,-2.24,-2.23,-2.23
407.76,2.21,4.42,2.22,4.43,-4.43,-2.75,-2.08,-2.21,-2.21,-2.21
411.84,2.08,4.26,2.09,4.28,-4.28,-2.68,-2.01,-2.19,-2.19,-2.18
415.96,1.96,4.13,1.96,4.12,-4.12,-2.61,-1.94,-2.16,-2.16,-2.16
420.12,1.83,3.98,1.83,3.97,-3.97,-2.53,-1.88,-2.13,-2.14,-2.14
424.32,1.69,3.81,1.69,3.81,-3.81,-2.46,-1.82,-2.11,-2.12,-2.12
428.56,1.55,3.65,1.55,3.64,-3.64,-2.39,-1.75,-2.09,-2.10,-2.10
432.85,1.40,3.48,1.40,3.48,-3.48,-2.32,-1.70,-2.07,-2.07,-2.08
437.18,1.25,3.30,1.26,3.31,-3.31,-2.25,-1.64,-2.05,-2.05,-2.05
441.55,1.10,3.12,1.11,3.14,-3.14,-2.18,-1.58,-2.03,-2.02,-2.02
445.96,0.94,2.94,0.96,2.96,-2.96,-2.11,-1.53,-2.02,-2.00,-2.00
450.42,0.80,2.79,0.81,2.79,-2.79,-2.03,-1.48,-1.98,-1.97,-1.98
454.93,0.65,2.60,0.66,2.61,-2.61,-1.96,-1.43,-1.95,-1.95,-1.94
459.48,0.51,2.44,0.50,2.42,-2.42,-1.88,-1.38,-1.91,-1.92,-1.92
464.07,0.35,2.25,0.35,2.24,-2.24,-1.80,-1.33,-1.88,-1.89,-1.89
468.71,0.19,2.05,0.19,2.05,-2.05,-1.73,-1.28,-1.86,-1.86,-1.86
473.40,0.04,1.88,0.03,1.86,-1.86,-1.65,-1.24,-1.82,-1.84,-1.84
478.13,-0.12,1.69,-0.13,1.67,-1.67,-1.56,-1.19,-1.79,-1.81,-1.81
482.91,-0.29,1.49,-0.29,1.48,-1.48,-1.48,-1.15,-1.77,-1.78,-1.78
487.74,-0.45,1.30,-0.46,1.29,-1.29,-1.39,-1.11,-1.74,-1.75,-1.75
492.62,-0.62,1.10,-0.62,1.10,-1.10,-1.30,-1.07,-1.72,-1.72,-1.72
497.55,-0.78,0.92,-0.78,0.91,-0.91,-1.21,-1.04,-1.69,-1.69,-1.70
502.52,-0.95,0.71,-0.94,0.72,-0.72,-1.11,-1.00,-1.67,-1.67,-1.66
507.55,-1.11,0.53,-1.10,0.54,-0.54,-1.00,-0.97,-1.65,-1.64,-1.64
