frequency,raw,error,smoothed,error_smoothed,equalization,parametric_eq,fixed_band_eq,equalized_raw,equalized_smoothed,target
20.00,-2.01,-6.96,-2.01,-6.98,6.98,6.14,3.34,4.97,4.97,4.95
20.20,-2.00,-6.99,-2.00,-7.01,7.01,6.20,3.43,5.00,5.00,4.99
20.40,-1.99,-7.02,-2.00,-7.03,7.03,6.26,3.53,5.04,5.03,5.03
20.61,-1.99,-7.05,-1.99,-7.05,7.05,6.31,3.63,5.06,5.06,5.06
20.81,-1.98,-7.08,-1.98,-7.07,7.07,6.37,3.73,5.09,5.09,5.10
21.02,-1.97,-7.11,-1.97,-7.09,7.09,6.42,3.83,5.11,5.11,5.14
21.23,-1.96,-7.12,-1.96,-7.10,7.10,6.48,3.94,5.14,5.14,5.16
21.44,-1.95,-7.13,-1.95,-7.12,7.12,6.53,4.05,5.16,5.16,5.18
21.66,-1.94,-7.14,-1.94,-7.13,7.13,6.59,4.16,5.19,5.18,5.20
21.87,-1.93,-7.14,-1.94,-7.14,7.14,6.64,4.28,5.21,5.20,5.21
22.09,-1.93,-7.16,-1.93,-7.15,7.15,6.69,4.39,5.22,5.22,5.23
22.31,-1.92,-7.16,-1.92,-7.16,7.16,6.74,4.52,5.23,5.24,5.24
22.54,-1.91,-7.16,-1.91,-7.16,7.16,6.79,4.64,5.25,5.25,5.25
22.76,-1.90,-7.16,-1.90,-7.16,7.16,6.84,4.77,5.26,5.26,5.26
22.99,-1.89,-7.15,-1.89,-7.16,7.16,6.89,4.90,5.27,5.27,5.26
23.22,-1.88,-7.15,-1.88,-7.16,7.16,6.94,5.04,5.28,5.28,5.27
23.45,-1.87,-7.15,-1.88,-7.16,7.16,6.99,5.17,5.29,5.29,5.28
23.69,-1.86,-7.15,-1.87,-7.16,7.16,7.03,5.32,5.30,5.30,5.29
23.92,-1.85,-7.15,-1.86,-7.16,7.16,7.08,5.46,5.31,5.30,5.30
24.16,-1.85,-7.17,-1.85,-7.16,7.16,7.12,5.61,5.31,5.31,5.32
24.40,-1.84,-7.18,-1.84,-7.16,7.16,7.17,5.76,5.32,5.32,5.34
24.65,-1.83,-7.16,-1.83,-7.16,7.16,7.21,5.91,5.33,5.33,5.33
24.89,-1.82,-7.16,-1.82,-7.16,7.16,7.25,6.06,5.34,5.34,5.34
25.14,-1.81,-7.16,-1.81,-7.16,7.16,7.29,6.22,5.35,5.35,5.35
25.39,-1.80,-7.16,-1.80,-7.16,7.16,7.33,6.38,5.36,5.36,5.36
25.65,-1.79,-7.17,-1.79,-7.17,7.17,7.36,6.54,5.37,5.37,5.38
25.91,-1.78,-7.16,-1.78,-7.17,7.17,7.40,6.70,5.38,5.38,5.38
26.16,-1.77,-7.16,-1.77,-7.17,7.17,7.43,6.86,5.39,5.39,5.39
26.43,-1.76,-7.16,-1.76,-7.16,7.16,7.47,7.02,5.40,5.40,5.40
26.69,-1.75,-7.16,-1.75,-7.16,7.16,7.50,7.17,5.41,5.41,5.41
26.96,-1.74,-7.17,-1.74,-7.16,7.16,7.53,7.33,5.42,5.42,5.43
27.23,-1.73,-7.17,-1.73,-7.16,7.16,7.56,7.49,5.43,5.43,5.44
27.50,-1.72,-7.16,-1.72,-7.16,7.16,7.58,7.64,5.44,5.44,5.44
27.77,-1.71,-7.15,-1.71,-7.16,7.16,7.61,7.79,5.45,5.45,5.44
28.05,-1.70,-7.16,-1.70,-7.16,7.16,7.63,7.93,5.46,5.46,5.46
28.33,-1.69,-7.15,-1.69,-7.16,7.16,7.66,8.07,5.46,5.46,5.46
28.62,-1.68,-7.15,-1.68,-7.15,7.15,7.68,8.19,5.47,5.47,5.47
28.90,-1.67,-7.15,-1.67,-7.15,7.15,7.69,8.31,5.48,5.48,5.48
29.19,-1.66,-7.14,-1.66,-7.15,7.15,7.71,8.43,5.49,5.49,5.48
29.48,-1.65,-7.16,-1.65,-7.15,7.15,7.73,8.53,5.49,5.49,5.51
29.78,-1.64,-7.14,-1.64,-7.14,7.14,7.74,8.62,5.50,5.50,5.50
30.08,-1.63,-7.14,-1.63,-7.14,7.14,7.75,8.70,5.51,5.51,5.51
30.38,-1.62,-7.13,-1.62,-7.14,7.14,7.76,8.76,5.51,5.51,5.51
30.68,-1.61,-7.14,-1.61,-7.13,7.13,7.77,8.81,5.52,5.52,5.53
30.99,-1.60,-7.13,-1.60,-7.13,7.13,7.78,8.85,5.53,5.53,5.53
31.30,-1.59,-7.12,-1.59,-7.13,7.13,7.78,8.87,5.53,5.54,5.53
31.61,-1.58,-7.12,-1.58,-7.12,7.12,7.78,8.89,5.54,5.54,5.54
31.93,-1.57,-7.12,-1.57,-7.12,7.12,7.78,8.88,5.55,5.55,5.55
32.24,-1.56,-7.11,-1.56,-7.12,7.12,7.78,8.86,5.56,5.56,5.55
32.57,-1.55,-7.12,-1.55,-7.11,7.11,7.78,8.84,5.56,5.56,5.57
32.89,-1.53,-7.10,-1.54,-7.11,7.11,7.77,8.79,5.58,5.57,5.57
33.22,-1.52,-7.10,-1.53,-7.11,7.11,7.77,8.74,5.58,5.58,5.58
33.55,-1.51,-7.10,-1.52,-7.10,7.10,7.76,8.68,5.59,5.59,5.59
33.89,-1.50,-7.10,-1.50,-7.10,7.10,7.75,8.60,5.59,5.59,5.60
34.23,-1.49,-7.09,-1.49,-7.09,7.09,7.74,8.52,5.60,5.60,5.60
34.57,-1.48,-7.09,-1.48,-7.08,7.08,7.72,8.44,5.60,5.61,5.61
34.92,-1.46,-7.07,-1.46,-7.07,7.07,7.71,8.34,5.61,5.61,5.61
35.27,-1.45,-7.07,-1.44,-7.06,7.06,7.69,8.24,5.61,5.62,5.62
35.62,-1.43,-7.05,-1.43,-7.05,7.05,7.67,8.14,5.61,5.62,5.62
35.97,-1.41,-7.03,-1.41,-7.03,7.03,7.65,8.04,5.62,5.62,5.62
36.33,-1.39,-7.02,-1.39,-7.02,7.02,7.63,7.93,5.62,5.62,5.63
36.70,-1.37,-6.99,-1.37,-7.00,7.00,7.61,7.82,5.63,5.63,5.62
37.06,-1.35,-6.98,-1.36,-6.98,6.98,7.59,7.71,5.63,5.63,5.63
37.43,-1.33,-6.96,-1.34,-6.96,6.96,7.56,7.60,5.63,5.62,5.63
37.81,-1.31,-6.94,-1.32,-6.94,6.94,7.53,7.50,5.63,5.62,5.63
38.19,-1.29,-6.92,-1.30,-6.92,6.92,7.50,7.39,5.62,5.62,5.63
38.57,-1.27,-6.89,-1.27,-6.89,6.89,7.47,7.29,5.62,5.62,5.62
38.95,-1.25,-6.87,-1.25,-6.87,6.87,7.44,7.18,5.62,5.62,5.62
39.34,-1.23,-6.84,-1.23,-6.85,6.85,7.41,7.09,5.61,5.62,5.61
39.74,-1.21,-6.82,-1.21,-6.82,6.82,7.37,6.99,5.61,5.61,5.61
40.14,-1.19,-6.80,-1.18,-6.80,6.80,7.34,6.90,5.60,5.61,5.61
40.54,-1.17,-6.78,-1.16,-6.77,6.77,7.30,6.81,5.60,5.61,5.61
40.94,-1.14,-6.74,-1.14,-6.74,6.74,7.26,6.73,5.60,5.61,5.60
41.35,-1.12,-6.72,-1.12,-6.72,6.72,7.23,6.65,5.60,5.60,5.60
41.76,-1.09,-6.69,-1.09,-6.69,6.69,7.19,6.58,5.60,5.60,5.60
42.18,-1.06,-6.66,-1.07,-6.67,6.67,7.15,6.51,5.60,5.60,5.60
42.60,-1.04,-6.64,-1.05,-6.64,6.64,7.10,6.44,5.60,5.59,5.60
43.03,-1.02,-6.62,-1.03,-6.62,6.62,7.06,6.38,5.60,5.59,5.60
43.46,-1.00,-6.60,-1.01,-6.60,6.60,7.02,6.33,5.59,5.59,5.60
43.90,-0.98,-6.56,-0.99,-6.58,6.58,6.97,6.28,5.59,5.59,5.58
44.33,-0.97,-6.55,-0.97,-6.56,6.56,6.93,6.23,5.58,5.58,5.58
44.78,-0.96,-6.53,-0.96,-6.54,6.54,6.88,6.19,5.57,5.58,5.57
45.23,-0.95,-6.52,-0.94,-6.52,6.52,6.84,6.15,5.57,5.58,5.57
45.68,-0.93,-6.50,-0.93,-6.50,6.50,6.79,6.12,5.57,5.57,5.57
46.13,-0.92,-6.48,-0.92,-6.49,6.49,6.74,6.09,5.56,5.57,5.56
46.60,-0.91,-6.48,-0.91,-6.47,6.47,6.70,6.07,5.56,5.56,5.57
47.06,-0.90,-6.46,-0.90,-6.46,6.46,6.65,6.05,5.56,5.55,5.56
47.53,-0.89,-6.44,-0.90,-6.45,6.45,6.60,6.04,5.55,5.55,5.55
48.01,-0.89,-6.45,-0.90,-6.43,6.43,6.55,6.03,5.54,5.54,5.56
48.49,-0.89,-6.43,-0.89,-6.42,6.42,6.50,6.02,5.53,5.53,5.54
48.97,-0.88,-6.40,-0.89,-6.41,6.41,6.45,6.02,5.53,5.52,5.52
49.46,-0.88,-6.39,-0.89,-6.40,6.40,6.40,6.02,5.52,5.51,5.51
49.96,-0.89,-6.38,-0.89,-6.39,6.39,6.35,6.02,5.50,5.50,5.49
50.46,-0.90,-6.39,-0.90,-6.38,6.38,6.30,6.03,5.48,5.48,5.49
50.96,-0.91,-6.38,-0.90,-6.37,6.37,6.24,6.04,5.46,5.47,5.47
51.47,-0.91,-6.35,-0.91,-6.36,6.36,6.19,6.05,5.45,5.45,5.44
51.99,-0.92,-6.35,-0.92,-6.35,6.35,6.14,6.06,5.43,5.43,5.43
52.51,-0.93,-6.35,-0.92,-6.34,6.34,6.09,6.08,5.41,5.42,5.42
53.03,-0.93,-6.33,-0.94,-6.33,6.33,6.04,6.10,5.40,5.40,5.40
53.56,-0.94,-6.33,-0.95,-6.33,6.33,5.98,6.11,5.38,5.38,5.39
54.10,-0.94,-6.30,-0.96,-6.32,6.32,5.93,6.13,5.38,5.36,5.36
54.64,-0.95,-6.30,-0.97,-6.31,6.31,5.88,6.15,5.36,5.34,5.35
55.18,-0.97,-6.29,-0.99,-6.31,6.31,5.83,6.16,5.34,5.32,5.32
55.74,-0.99,-6.28,-1.00,-6.30,6.30,5.77,6.18,5.31,5.30,5.29
56.29,-1.01,-6.30,-1.01,-6.29,6.29,5.72,6.19,5.28,5.28,5.29
56.86,-1.02,-6.28,-1.02,-6.28,6.28,5.67,6.20,5.26,5.26,5.26
57.42,-1.03,-6.26,-1.03,-6.27,6.27,5.62,6.21,5.23,5.24,5.23
58.00,-1.04,-6.25,-1.03,-6.25,6.25,5.56,6.22,5.20,5.21,5.21
58.58,-1.05,-6.24,-1.03,-6.22,6.22,5.51,6.22,5.17,5.19,5.19
59.16,-1.05,-6.22,-1.03,-6.20,6.20,5.46,6.21,5.14,5.16,5.17
59.76,-1.04,-6.19,-1.03,-6.16,6.16,5.41,6.20,5.12,5.13,5.15
60.35,-1.03,-6.15,-1.02,-6.12,6.12,5.36,6.19,5.09,5.10,5.12
60.96,-1.00,-6.09,-1.01,-6.08,6.08,5.30,6.17,5.08,5.07,5.09
61.57,-0.98,-6.02,-0.99,-6.03,6.03,5.25,6.14,5.05,5.04,5.04
62.18,-0.95,-5.95,-0.97,-5.97,5.97,5.20,6.11,5.02,5.01,5.00
62.80,-0.93,-5.91,-0.94,-5.91,5.91,5.15,6.07,4.98,4.97,4.98
63.43,-0.90,-5.83,-0.91,-5.85,5.85,5.10,6.03,4.94,4.94,4.93
64.07,-0.88,-5.77,-0.88,-5.78,5.78,5.05,5.98,4.89,4.90,4.89
64.71,-0.84,-5.70,-0.84,-5.70,5.70,5.00,5.92,4.86,4.86,4.86
65.35,-0.81,-5.63,-0.80,-5.62,5.62,4.95,5.86,4.81,4.82,4.82
66.01,-0.76,-5.54,-0.76,-5.54,5.54,4.90,5.79,4.78,4.78,4.78
66.67,-0.71,-5.46,-0.71,-5.46,5.46,4.85,5.71,4.74,4.74,4.75
67.33,-0.67,-5.38,-0.67,-5.37,5.37,4.80,5.64,4.70,4.70,4.71
68.01,-0.62,-5.29,-0.62,-5.28,5.28,4.75,5.55,4.66,4.67,4.67
68.69,-0.57,-5.20,-0.56,-5.19,5.19,4.70,5.46,4.62,4.63,4.63
69.37,-0.52,-5.11,-0.51,-5.10,5.10,4.65,5.37,4.57,4.59,4.59
70.07,-0.45,-5.00,-0.45,-5.00,5.00,4.60,5.28,4.55,4.55,4.55
70.77,-0.39,-4.90,-0.40,-4.91,4.91,4.55,5.18,4.52,4.51,4.51
71.48,-0.33,-4.81,-0.34,-4.81,4.81,4.50,5.08,4.48,4.47,4.48
72.19,-0.26,-4.69,-0.28,-4.72,4.72,4.45,4.98,4.45,4.43,4.43
72.91,-0.21,-4.61,-0.23,-4.62,4.62,4.40,4.88,4.41,4.40,4.40
73.64,-0.15,-4.51,-0.17,-4.53,4.53,4.35,4.78,4.38,4.36,4.36
74.38,-0.11,-4.44,-0.11,-4.44,4.44,4.30,4.68,4.33,4.33,4.33
75.12,-0.06,-4.35,-0.05,-4.35,4.35,4.25,4.57,4.29,4.29,4.29
75.87,-0.01,-4.27,0.00,-4.26,4.26,4.20,4.47,4.25,4.26,4.26
76.63,0.04,-4.19,0.05,-4.18,4.18,4.15,4.37,4.21,4.23,4.23
77.40,0.10,-4.10,0.10,-4.10,4.10,4.10,4.26,4.19,4.20,4.20
78.17,0.15,-4.02,0.15,-4.02,4.02,4.06,4.16,4.17,4.17,4.17
78.95,0.21,-3.93,0.20,-3.94,3.94,4.01,4.06,4.15,4.14,4.14
79.74,0.25,-3.87,0.25,-3.87,3.87,3.96,3.96,4.12,4.12,4.12
80.54,0.31,-3.79,0.29,-3.80,3.80,3.91,3.87,4.11,4.09,4.10
81.35,0.36,-3.71,0.34,-3.73,3.73,3.86,3.77,4.09,4.07,4.07
82.16,0.39,-3.65,0.38,-3.67,3.67,3.81,3.68,4.05,4.04,4.04
82.98,0.42,-3.61,0.42,-3.60,3.60,3.76,3.59,4.02,4.02,4.03
83.81,0.45,-3.55,0.46,-3.54,3.54,3.71,3.50,3.99,4.00,4.00
84.65,0.49,-3.48,0.50,-3.48,3.48,3.65,3.42,3.97,3.98,3.97
85.50,0.53,-3.43,0.53,-3.43,3.43,3.60,3.33,3.95,3.96,3.96
86.35,0.58,-3.36,0.57,-3.37,3.37,3.55,3.25,3.95,3.94,3.94
87.22,0.61,-3.31,0.60,-3.32,3.32,3.50,3.17,3.93,3.92,3.92
88.09,0.63,-3.27,0.63,-3.27,3.27,3.44,3.09,3.90,3.90,3.90
88.97,0.67,-3.21,0.66,-3.22,3.22,3.39,3.02,3.88,3.88,3.88
89.86,0.70,-3.17,0.70,-3.16,3.16,3.33,2.94,3.86,3.86,3.87
90.76,0.74,-3.10,0.73,-3.11,3.11,3.28,2.87,3.85,3.84,3.84
91.66,0.78,-3.04,0.77,-3.05,3.05,3.22,2.80,3.83,3.82,3.82
92.58,0.82,-2.98,0.82,-2.99,2.99,3.16,2.74,3.80,3.80,3.80
93.51,0.85,-2.94,0.86,-2.92,2.92,3.10,2.67,3.77,3.78,3.79
94.44,0.89,-2.88,0.91,-2.85,2.85,3.04,2.61,3.74,3.76,3.77
95.39,0.93,-2.82,0.96,-2.78,2.78,2.98,2.55,3.71,3.74,3.75
96.34,0.99,-2.73,1.01,-2.71,2.71,2.92,2.49,3.69,3.72,3.72
97.30,1.05,-2.64,1.06,-2.63,2.63,2.85,2.44,3.68,3.69,3.69
98.28,1.12,-2.54,1.11,-2.55,2.55,2.79,2.38,3.67,3.67,3.66
99.26,1.19,-2.45,1.16,-2.47,2.47,2.72,2.33,3.66,3.64,3.64
100.25,1.24,-2.37,1.22,-2.39,2.39,2.65,2.28,3.63,3.61,3.61
101.25,1.30,-2.28,1.27,-2.31,2.31,2.58,2.23,3.61,3.58,3.58
102.27,1.35,-2.19,1.31,-2.23,2.23,2.50,2.18,3.58,3.55,3.54
103.29,1.37,-2.14,1.36,-2.15,2.15,2.43,2.14,3.51,3.51,3.51
104.32,1.40,-2.08,1.41,-2.06,2.06,2.35,2.09,3.46,3.47,3.48
105.37,1.44,-2.00,1.46,-1.98,1.98,2.27,2.05,3.41,3.43,3.44
106.42,1.49,-1.90,1.50,-1.89,1.89,2.19,2.01,3.38,3.39,3.39
107.48,1.53,-1.83,1.53,-1.81,1.81,2.10,1.96,3.34,3.34,3.36
108.56,1.57,-1.73,1.57,-1.73,1.73,2.01,1.92,3.29,3.30,3.30
109.64,1.61,-1.64,1.61,-1.64,1.64,1.92,1.88,3.25,3.25,3.25
110.74,1.64,-1.56,1.64,-1.55,1.55,1.83,1.85,3.19,3.19,3.20
111.85,1.68,-1.47,1.67,-1.46,1.46,1.74,1.81,3.14,3.14,3.15
112.97,1.72,-1.36,1.71,-1.37,1.37,1.64,1.77,3.09,3.08,3.08
114.10,1.75,-1.28,1.74,-1.28,1.28,1.54,1.73,3.03,3.02,3.03
115.24,1.77,-1.20,1.78,-1.19,1.19,1.44,1.69,2.96,2.97,2.97
116.39,1.79,-1.11,1.81,-1.10,1.10,1.34,1.66,2.89,2.91,2.90
117.55,1.82,-1.02,1.83,-1.02,1.02,1.24,1.62,2.83,2.85,2.84
118.73,1.85,-0.93,1.85,-0.94,0.94,1.14,1.58,2.79,2.79,2.78
119.92,1.89,-0.84,1.87,-0.86,0.86,1.03,1.54,2.75,2.73,2.73
121.12,1.91,-0.76,1.89,-0.79,0.79,0.93,1.51,2.70,2.68,2.67
122.33,1.92,-0.70,1.90,-0.72,0.72,0.83,1.47,2.64,2.62,2.62
123.55,1.94,-0.63,1.91,-0.65,0.65,0.73,1.43,2.59,2.57,2.57
124.79,1.94,-0.58,1.92,-0.59,0.59,0.63,1.39,2.53,2.51,2.52
126.03,1.93,-0.54,1.93,-0.53,0.53,0.54,1.35,2.46,2.46,2.47
127.29,1.92,-0.50,1.94,-0.48,0.48,0.45,1.31,2.40,2.41,2.42
128.57,1.91,-0.45,1.94,-0.43,0.43,0.36,1.28,2.34,2.37,2.36
129.85,1.92,-0.40,1.94,-0.38,0.38,0.28,1.23,2.30,2.32,2.32
131.15,1.92,-0.35,1.94,-0.34,0.34,0.21,1.19,2.26,2.28,2.27
132.46,1.93,-0.30,1.93,-0.30,0.30,0.15,1.15,2.23,2.23,2.23
133.79,1.94,-0.25,1.93,-0.26,0.26,0.10,1.11,2.20,2.19,2.19
135.12,1.93,-0.22,1.92,-0.23,0.23,0.05,1.07,2.15,2.15,2.15
136.48,1.92,-0.19,1.91,-0.20,0.20,0.02,1.03,2.11,2.11,2.11
137.84,1.90,-0.17,1.90,-0.17,0.17,-0.00,0.98,2.06,2.07,2.07
139.22,1.89,-0.13,1.89,-0.14,0.14,-0.01,0.94,2.03,2.03,2.02
140.61,1.87,-0.11,1.87,-0.12,0.12,-0.01,0.89,1.99,1.99,1.98
142.02,1.84,-0.12,1.85,-0.11,0.11,-0.00,0.85,1.95,1.95,1.96
143.44,1.82,-0.10,1.82,-0.10,0.10,0.02,0.80,1.92,1.92,1.92
144.87,1.78,-0.10,1.78,-0.10,0.10,0.05,0.76,1.88,1.88,1.88
146.32,1.75,-0.09,1.73,-0.11,0.11,0.10,0.71,1.85,1.84,1.84
147.78,1.69,-0.12,1.69,-0.11,0.11,0.15,0.67,1.80,1.80,1.81
149.26,1.65,-0.13,1.63,-0.13,0.13,0.20,0.62,1.78,1.76,1.78
150.75,1.58,-0.14,1.57,-0.15,0.15,0.27,0.57,1.73,1.72,1.72
152.26,1.52,-0.16,1.50,-0.18,0.18,0.34,0.53,1.70,1.68,1.68
153.78,1.43,-0.22,1.43,-0.21,0.21,0.41,0.48,1.64,1.64,1.65
155.32,1.35,-0.24,1.34,-0.25,0.25,0.48,0.43,1.60,1.60,1.59
156.88,1.24,-0.32,1.26,-0.30,0.30,0.56,0.38,1.53,1.55,1.56
158.44,1.16,-0.35,1.16,-0.35,0.35,0.64,0.33,1.50,1.51,1.51
160.03,1.05,-0.41,1.06,-0.40,0.40,0.71,0.29,1.45,1.46,1.46
161.63,0.96,-0.45,0.95,-0.47,0.47,0.79,0.24,1.43,1.42,1.41
163.24,0.87,-0.50,0.84,-0.54,0.54,0.86,0.19,1.40,1.37,1.37
164.88,0.71,-0.62,0.72,-0.60,0.60,0.94,0.14,1.31,1.32,1.33
166.53,0.60,-0.68,0.60,-0.68,0.68,1.00,0.09,1.27,1.28,1.28
168.19,0.50,-0.73,0.47,-0.75,0.75,1.07,0.04,1.25,1.23,1.23
169.87,0.33,-0.85,0.34,-0.84,0.84,1.13,-0.01,1.16,1.18,1.18
171.57,0.22,-0.92,0.21,-0.92,0.92,1.18,-0.06,1.14,1.13,1.14
173.29,0.09,-0.99,0.07,-1.01,1.01,1.23,-0.11,1.10,1.08,1.08
175.02,-0.10,-1.13,-0.08,-1.10,1.10,1.27,-0.16,1.00,1.02,1.03
176.77,-0.22,-1.19,-0.23,-1.20,1.20,1.31,-0.21,0.98,0.97,0.97
178.54,-0.35,-1.27,-0.38,-1.29,1.29,1.34,-0.26,0.94,0.92,0.92
180.32,-0.48,-1.34,-0.53,-1.39,1.39,1.37,-0.32,0.91,0.86,0.86
182.13,-0.61,-1.42,-0.67,-1.48,1.48,1.39,-0.37,0.87,0.80,0.81
183.95,-0.82,-1.57,-0.82,-1.57,1.57,1.41,-0.42,0.74,0.75,0.75
185.79,-0.96,-1.66,-0.95,-1.65,1.65,1.41,-0.47,0.69,0.69,0.70
187.65,-1.10,-1.73,-1.09,-1.72,1.72,1.42,-0.53,0.62,0.64,0.63
189.52,-1.23,-1.81,-1.20,-1.79,1.79,1.41,-0.58,0.56,0.58,0.58
191.42,-1.33,-1.86,-1.31,-1.84,1.84,1.40,-0.63,0.51,0.53,0.53
193.33,-1.42,-1.90,-1.41,-1.88,1.88,1.39,-0.68,0.46,0.48,0.48
195.27,-1.49,-1.92,-1.48,-1.91,1.91,1.36,-0.74,0.41,0.42,0.43
197.22,-1.56,-1.93,-1.54,-1.91,1.91,1.33,-0.79,0.35,0.37,0.37
199.19,-1.60,-1.92,-1.58,-1.90,1.90,1.30,-0.84,0.30,0.32,0.32
201.18,-1.61,-1.88,-1.59,-1.87,1.87,1.26,-0.90,0.25,0.28,0.27
203.19,-1.61,-1.85,-1.59,-1.81,1.81,1.21,-0.95,0.20,0.23,0.24
205.23,-1.59,-1.77,-1.56,-1.74,1.74,1.16,-1.00,0.15,0.18,0.18
207.28,-1.54,-1.70,-1.51,-1.65,1.65,1.10,-1.05,0.11,0.14,0.16
209.35,-1.47,-1.57,-1.45,-1.54,1.54,1.03,-1.10,0.07,0.10,0.10
211.44,-1.37,-1.42,-1.37,-1.42,1.42,0.96,-1.15,0.05,0.06,0.05
213.56,-1.27,-1.28,-1.27,-1.29,1.29,0.89,-1.20,0.01,0.02,0.01
215.69,-1.14,-1.13,-1.16,-1.14,1.14,0.81,-1.24,-0.00,-0.02,-0.01
217.85,-1.00,-0.95,-1.04,-0.98,0.98,0.72,-1.29,-0.02,-0.05,-0.05
220.03,-0.90,-0.81,-0.90,-0.82,0.82,0.62,-1.33,-0.09,-0.09,-0.09
222.23,-0.78,-0.66,-0.77,-0.65,0.65,0.52,-1.37,-0.13,-0.12,-0.12
224.45,-0.62,-0.48,-0.62,-0.48,0.48,0.42,-1.41,-0.14,-0.14,-0.14
226.70,-0.45,-0.28,-0.47,-0.30,0.30,0.31,-1.44,-0.15,-0.17,-0.17
228.96,-0.28,-0.08,-0.32,-0.13,0.13,0.20,-1.48,-0.15,-0.19,-0.20
231.25,-0.17,0.04,-0.17,0.05,-0.05,0.08,-1.51,-0.22,-0.21,-0.21
233.57,-0.01,0.22,-0.01,0.22,-0.22,-0.05,-1.53,-0.23,-0.23,-0.23
235.90,0.17,0.41,0.14,0.38,-0.38,-0.18,-1.55,-0.22,-0.24,-0.24
238.26,0.29,0.54,0.30,0.55,-0.55,-0.31,-1.57,-0.26,-0.25,-0.25
240.64,0.45,0.71,0.45,0.71,-0.71,-0.45,-1.58,-0.26,-0.26,-0.26
243.05,0.59,0.85,0.60,0.87,-0.87,-0.59,-1.59,-0.28,-0.27,-0.26
245.48,0.74,1.01,0.75,1.02,-1.02,-0.73,-1.60,-0.28,-0.27,-0.27
247.93,0.93,1.20,0.90,1.17,-1.17,-0.88,-1.60,-0.24,-0.27,-0.27
250.41,1.05,1.32,1.05,1.32,-1.32,-1.03,-1.60,-0.27,-0.27,-0.27
252.92,1.22,1.48,1.19,1.45,-1.45,-1.18,-1.59,-0.24,-0.26,-0.26
255.45,1.34,1.59,1.33,1.59,-1.59,-1.34,-1.58,-0.25,-0.25,-0.25
258.00,1.45,1.69,1.47,1.72,-1.72,-1.49,-1.56,-0.27,-0.25,-0.24
260.58,1.61,1.85,1.61,1.84,-1.84,-1.64,-1.54,-0.24,-0.24,-0.24
263.19,1.73,1.96,1.74,1.96,-1.96,-1.79,-1.51,-0.23,-0.23,-0.23
265.82,1.88,2.10,1.86,2.08,-2.08,-1.94,-1.48,-0.20,-0.22,-0.22
268.48,1.98,2.18,1.98,2.18,-2.18,-2.09,-1.45,-0.21,-0.20,-0.20
271.16,2.08,2.26,2.10,2.29,-2.29,-2.23,-1.41,-0.21,-0.19,-0.18
273.87,2.22,2.40,2.20,2.38,-2.38,-2.36,-1.37,-0.16,-0.18,-0.18
276.61,2.32,2.47,2.30,2.47,-2.47,-2.49,-1.33,-0.15,-0.16,-0.15
279.38,2.40,2.55,2.40,2.55,-2.55,-2.61,-1.28,-0.15,-0.15,-0.15
282.17,2.49,2.62,2.49,2.63,-2.63,-2.72,-1.23,-0.14,-0.14,-0.13
284.99,2.56,2.68,2.57,2.70,-2.70,-2.82,-1.18,-0.14,-0.12,-0.12
287.84,2.66,2.77,2.65,2.76,-2.76,-2.90,-1.12,-0.10,-0.11,-0.11
290.72,2.72,2.82,2.71,2.81,-2.81,-2.98,-1.06,-0.09,-0.09,-0.10
293.63,2.77,2.85,2.77,2.85,-2.85,-3.04,-1.01,-0.08,-0.08,-0.08
296.57,2.82,2.88,2.81,2.88,-2.88,-3.08,-0.94,-0.06,-0.07,-0.06
299.53,2.86,2.92,2.85,2.91,-2.91,-3.11,-0.88,-0.05,-0.06,-0.06
302.53,2.90,2.95,2.88,2.92,-2.92,-3.13,-0.82,-0.03,-0.04,-0.05
305.55,2.91,2.94,2.90,2.93,-2.93,-3.13,-0.75,-0.02,-0.03,-0.03
308.61,2.91,2.93,2.91,2.93,-2.93,-3.12,-0.69,-0.02,-0.02,-0.02
311.69,2.90,2.91,2.91,2.92,-2.92,-3.09,-0.62,-0.02,-0.01,-0.01
314.81,2.90,2.88,2.90,2.90,-2.90,-3.06,-0.55,-0.00,-0.00,0.02
317.96,2.89,2.88,2.88,2.87,-2.87,-3.01,-0.49,0.02,0.01,0.01
321.14,2.85,2.83,2.85,2.83,-2.83,-2.94,-0.42,0.02,0.02,0.02
324.35,2.81,2.79,2.81,2.78,-2.78,-2.87,-0.35,0.02,0.02,0.02
327.59,2.76,2.73,2.76,2.73,-2.73,-2.79,-0.28,0.02,0.03,0.03
330.87,2.71,2.68,2.70,2.67,-2.67,-2.71,-0.21,0.04,0.03,0.03
334.18,2.66,2.63,2.64,2.61,-2.61,-2.62,-0.14,0.05,0.04,0.03
337.52,2.57,2.53,2.57,2.53,-2.53,-2.52,-0.07,0.03,0.04,0.04
340.90,2.50,2.46,2.50,2.46,-2.46,-2.41,0.00,0.04,0.04,0.04
344.30,2.41,2.37,2.41,2.37,-2.37,-2.31,0.07,0.03,0.04,0.04
347.75,2.32,2.28,2.32,2.29,-2.29,-2.20,0.15,0.03,0.04,0.04
351.23,2.22,2.18,2.23,2.19,-2.19,-2.09,0.22,0.03,0.03,0.04
354.74,2.13,2.09,2.12,2.09,-2.09,-1.98,0.29,0.03,0.03,0.04
358.28,2.02,2.00,2.02,1.99,-1.99,-1.87,0.36,0.02,0.03,0.02
361.87,1.92,1.90,1.91,1.89,-1.89,-1.76,0.43,0.03,0.02,0.02
365.49,1.80,1.78,1.80,1.79,-1.79,-1.64,0.51,0.01,0.02,0.02
369.14,1.69,1.68,1.69,1.68,-1.68,-1.53,0.58,0.01,0.01,0.01
372.83,1.58,1.57,1.57,1.57,-1.57,-1.42,0.65,0.01,0.00,0.01
376.56,1.43,1.43,1.45,1.45,-1.45,-1.31,0.72,-0.02,-0.00,-0.00
380.33,1.31,1.32,1.32,1.34,-1.34,-1.21,0.79,-0.03,-0.01,-0.01
384.13,1.20,1.22,1.20,1.22,-1.22,-1.10,0.87,-0.02,-0.02,-0.02
387.97,1.08,1.11,1.07,1.09,-1.09,-0.99,0.94,-0.02,-0.03,-0.03
391.85,0.95,0.99,0.94,0.97,-0.97,-0.89,1.01,-0.02,-0.03,-0.04
395.77,0.82,0.85,0.80,0.84,-0.84,-0.78,1.08,-0.02,-0.04,-0.03
399.73,0.68,0.72,0.67,0.71,-0.71,-0.68,1.16,-0.03,-0.05,-0.04
403.72,0.53,0.58,0.53,0.58,-0.58,-0.58,1.23,-0.05,-0.05,-0.05
407.76,0.39,0.45,0.39,0.45,-0.45,-0.47,1.30,-0.06,-0.06,-0.06
411.84,0.25,0.30,0.25,0.32,-0.32,-0.37,1.37,-0.07,-0.06,-0.05
415.96,0.11,0.18,0.11,0.18,-0.18,-0.27,1.44,-0.07,-0.07,-0.07
420.12,-0.03,0.04,-0.02,0.05,-0.05,-0.16,1.51,-0.08,-0.07,-0.07
424.32,-0.18,-0.11,-0.16,-0.09,0.09,-0.05,1.57,-0.09,-0.07,-0.07
428.56,-0.30,-0.22,-0.30,-0.23,0.23,0.06,1.64,-0.08,-0.07,-0.08
432.85,-0.44,-0.36,-0.44,-0.36,0.36,0.17,1.70,-0.08,-0.08,-0.08
437.18,-0.58,-0.50,-0.58,-0.50,0.50,0.28,1.76,-0.08,-0.08,-0.08
441.55,-0.70,-0.63,-0.71,-0.63,0.63,0.41,1.82,-0.07,-0.08,-0.07
445.96,-0.84,-0.77,-0.85,-0.77,0.77,0.53,1.88,-0.07,-0.08,-0.07
450.42,-0.99,-0.91,-0.98,-0.91,0.91,0.66,1.94,-0.08,-0.07,-0.08
454.93,-1.12,-1.05,-1.12,-1.05,1.05,0.80,1.99,-0.08,-0.07,-0.07
459.48,-1.25,-1.18,-1.25,-1.19,1.19,0.95,2.04,-0.07,-0.07,-0.07
464.07,-1.38,-1.32,-1.39,-1.33,1.33,1.10,2.08,-0.06,-0.06,-0.06
468.71,-1.50,-1.45,-1.53,-1.47,1.47,1.27,2.13,-0.04,-0.06,-0.05
473.40,-1.66,-1.60,-1.66,-1.61,1.61,1.44,2.17,-0.05,-0.06,-0.06
478.13,-1.80,-1.75,-1.80,-1.75,1.75,1.63,2.20,-0.05,-0.05,-0.05
482.91,-1.93,-1.88,-1.94,-1.90,1.90,1.82,2.23,-0.03,-0.05,-0.05
487.74,-2.08,-2.04,-2.08,-2.04,2.04,2.02,2.26,-0.04,-0.04,-0.04
492.62,-2.22,-2.19,-2.22,-2.18,2.18,2.22,2.28,-0.04,-0.04,-0.03
497.55,-2.35,-2.32,-2.36,-2.33,2.33,2.41,2.30,-0.03,-0.03,-0.03
502.52,-2.48,-2.46,-2.49,-2.47,2.47,2.60,2.31,-0.02,-0.03,-0.02
507.55,-2.62,-2.60,-2.63,-2.60,2.60,2.76,2.32,-0.02,-0.02,-0.02
512.62,-2.76,-2.74,-2.76,-2.74,2.74,2.89,2.32,-0.02,-0.02,-0.02
517.75,-2.88,-2.87,-2.88,-2.87,2.87,3.00,2.32,-0.02,-0.02,-0.01
