frequency,raw,error,smoothed,error_smoothed,equalization,parametric_eq,fixed_band_eq,equalized_raw,equalized_smoothed,target
20.00,1.89,-4.90,1.85,-4.96,4.96,4.71,1.52,6.85,6.81,6.79
20.20,1.92,-4.90,1.92,-4.91,4.91,4.68,1.57,6.83,6.83,6.82
20.40,1.96,-4.89,1.99,-4.87,4.87,4.65,1.62,6.83,6.85,6.85
20.61,2.02,-4.85,2.05,-4.82,4.82,4.62,1.67,6.84,6.87,6.87
20.81,2.08,-4.82,2.11,-4.78,4.78,4.59,1.72,6.86,6.89,6.90
21.02,2.14,-4.79,2.16,-4.74,4.74,4.56,1.77,6.88,6.90,6.93
21.23,2.20,-4.74,2.22,-4.70,4.70,4.53,1.83,6.90,6.92,6.94
21.44,2.26,-4.68,2.27,-4.66,4.66,4.50,1.88,6.92,6.93,6.95
21.66,2.32,-4.63,2.31,-4.63,4.63,4.47,1.94,6.95,6.94,6.95
21.87,2.38,-4.57,2.36,-4.59,4.59,4.44,2.00,6.97,6.95,6.95
22.09,2.44,-4.52,2.40,-4.55,4.55,4.41,2.06,6.99,6.96,6.96
22.31,2.50,-4.46,2.44,-4.52,4.52,4.37,2.12,7.02,6.96,6.96
22.54,2.53,-4.43,2.48,-4.49,4.49,4.34,2.18,7.02,6.96,6.96
22.76,2.56,-4.40,2.51,-4.46,4.46,4.31,2.25,7.02,6.96,6.96
22.99,2.56,-4.39,2.53,-4.43,4.43,4.27,2.32,6.99,6.96,6.95
23.22,2.56,-4.39,2.56,-4.40,4.40,4.24,2.39,6.96,6.96,6.95
23.45,2.56,-4.39,2.58,-4.38,4.38,4.20,2.46,6.94,6.96,6.95
23.69,2.56,-4.39,2.61,-4.35,4.35,4.17,2.53,6.91,6.96,6.95
23.92,2.59,-4.36,2.64,-4.31,4.31,4.13,2.60,6.90,6.95,6.95
24.16,2.63,-4.33,2.68,-4.27,4.27,4.09,2.67,6.90,6.95,6.96
24.40,2.67,-4.28,2.72,-4.23,4.23,4.06,2.75,6.90,6.95,6.96
24.65,2.73,-4.22,2.77,-4.18,4.18,4.02,2.82,6.91,6.95,6.95
24.89,2.79,-4.15,2.82,-4.12,4.12,3.99,2.90,6.92,6.94,6.94
25.14,2.87,-4.07,2.88,-4.06,4.06,3.95,2.98,6.93,6.94,6.94
25.39,2.95,-3.99,2.95,-4.00,4.00,3.91,3.05,6.95,6.94,6.94
25.65,3.01,-3.93,3.01,-3.93,3.93,3.87,3.13,6.94,6.94,6.94
25.91,3.11,-3.82,3.07,-3.86,3.86,3.84,3.21,6.97,6.94,6.93
26.16,3.17,-3.76,3.14,-3.80,3.80,3.80,3.29,6.97,6.93,6.93
26.43,3.24,-3.69,3.20,-3.73,3.73,3.76,3.36,6.97,6.93,6.93
26.69,3.30,-3.63,3.25,-3.67,3.67,3.72,3.44,6.97,6.93,6.93
26.96,3.33,-3.59,3.31,-3.62,3.62,3.68,3.51,6.95,6.92,6.93
27.23,3.38,-3.54,3.35,-3.56,3.56,3.64,3.58,6.94,6.92,6.92
27.50,3.39,-3.53,3.40,-3.52,3.52,3.60,3.65,6.91,6.92,6.92
27.77,3.43,-3.48,3.44,-3.47,3.47,3.56,3.72,6.90,6.91,6.91
28.05,3.43,-3.48,3.48,-3.43,3.43,3.52,3.78,6.86,6.91,6.91
28.33,3.48,-3.42,3.52,-3.39,3.39,3.48,3.84,6.87,6.90,6.90
28.62,3.52,-3.38,3.55,-3.35,3.35,3.45,3.90,6.87,6.90,6.90
28.90,3.58,-3.31,3.58,-3.32,3.32,3.41,3.95,6.90,6.89,6.89
29.19,3.61,-3.27,3.61,-3.28,3.28,3.37,3.99,6.89,6.89,6.88
29.48,3.66,-3.23,3.64,-3.25,3.25,3.33,4.03,6.91,6.88,6.89
29.78,3.69,-3.19,3.67,-3.21,3.21,3.29,4.07,6.90,6.88,6.88
30.08,3.72,-3.16,3.70,-3.17,3.17,3.24,4.09,6.89,6.87,6.88
30.38,3.75,-3.11,3.73,-3.13,3.13,3.20,4.12,6.88,6.87,6.86
30.68,3.78,-3.08,3.77,-3.09,3.09,3.16,4.13,6.87,6.86,6.86
30.99,3.78,-3.07,3.80,-3.05,3.05,3.12,4.14,6.83,6.85,6.85
31.30,3.82,-3.03,3.84,-3.01,3.01,3.08,4.14,6.83,6.85,6.85
31.61,3.83,-3.01,3.87,-2.97,2.97,3.04,4.14,6.80,6.84,6.85
31.93,3.88,-2.95,3.91,-2.93,2.93,3.00,4.12,6.81,6.83,6.83
32.24,3.91,-2.91,3.94,-2.89,2.89,2.96,4.10,6.80,6.83,6.82
32.57,3.96,-2.86,3.97,-2.85,2.85,2.92,4.08,6.81,6.82,6.82
32.89,4.01,-2.80,4.00,-2.81,2.81,2.88,4.05,6.82,6.81,6.81
33.22,4.06,-2.74,4.03,-2.78,2.78,2.84,4.01,6.84,6.80,6.80
33.55,4.09,-2.71,4.05,-2.74,2.74,2.80,3.96,6.83,6.79,6.80
33.89,4.12,-2.66,4.08,-2.71,2.71,2.76,3.92,6.83,6.79,6.78
34.23,4.12,-2.66,4.10,-2.68,2.68,2.72,3.86,6.80,6.78,6.78
34.57,4.12,-2.65,4.12,-2.64,2.64,2.68,3.80,6.76,6.77,6.77
34.92,4.13,-2.62,4.14,-2.61,2.61,2.63,3.74,6.74,6.76,6.75
35.27,4.17,-2.58,4.16,-2.58,2.58,2.59,3.67,6.75,6.75,6.75
35.62,4.17,-2.57,4.18,-2.56,2.56,2.55,3.61,6.73,6.74,6.74
35.97,4.17,-2.55,4.20,-2.53,2.53,2.51,3.53,6.70,6.73,6.72
36.33,4.18,-2.54,4.22,-2.50,2.50,2.47,3.46,6.68,6.72,6.72
36.70,4.21,-2.49,4.24,-2.47,2.47,2.43,3.38,6.68,6.70,6.70
37.06,4.25,-2.44,4.26,-2.43,2.43,2.39,3.31,6.69,6.69,6.69
37.43,4.29,-2.39,4.28,-2.40,2.40,2.35,3.23,6.69,6.68,6.68
37.81,4.32,-2.35,4.31,-2.36,2.36,2.31,3.15,6.68,6.67,6.67
38.19,4.34,-2.31,4.33,-2.32,2.32,2.27,3.07,6.66,6.66,6.65
38.57,4.36,-2.29,4.36,-2.28,2.28,2.23,2.99,6.64,6.64,6.65
38.95,4.38,-2.25,4.39,-2.25,2.25,2.19,2.91,6.63,6.63,6.63
39.34,4.42,-2.20,4.41,-2.21,2.21,2.15,2.83,6.63,6.62,6.62
39.74,4.45,-2.15,4.44,-2.17,2.17,2.11,2.75,6.62,6.61,6.60
40.14,4.47,-2.12,4.46,-2.13,2.13,2.07,2.67,6.60,6.60,6.60
40.54,4.50,-2.08,4.49,-2.10,2.10,2.03,2.60,6.60,6.59,6.58
40.94,4.51,-2.06,4.51,-2.06,2.06,1.99,2.52,6.57,6.57,6.57
41.35,4.51,-2.04,4.53,-2.03,2.03,1.95,2.45,6.54,6.56,6.56
41.76,4.56,-1.99,4.55,-1.99,1.99,1.91,2.37,6.55,6.55,6.55
42.18,4.56,-1.98,4.58,-1.95,1.95,1.87,2.30,6.52,6.53,6.54
42.60,4.60,-1.92,4.60,-1.92,1.92,1.83,2.23,6.52,6.52,6.52
43.03,4.60,-1.91,4.62,-1.88,1.88,1.79,2.16,6.48,6.50,6.51
43.46,4.64,-1.86,4.64,-1.85,1.85,1.75,2.09,6.49,6.49,6.50
43.90,4.64,-1.83,4.65,-1.82,1.82,1.71,2.03,6.46,6.47,6.47
44.33,4.69,-1.76,4.67,-1.79,1.79,1.67,1.96,6.48,6.45,6.45
44.78,4.69,-1.74,4.68,-1.75,1.75,1.63,1.90,6.45,6.44,6.43
45.23,4.73,-1.68,4.70,-1.72,1.72,1.59,1.84,6.45,6.42,6.41
45.68,4.73,-1.66,4.71,-1.69,1.69,1.55,1.78,6.42,6.40,6.39
46.13,4.73,-1.64,4.72,-1.66,1.66,1.51,1.72,6.39,6.38,6.37
46.60,4.73,-1.63,4.73,-1.63,1.63,1.48,1.66,6.36,6.35,6.36
47.06,4.73,-1.61,4.74,-1.59,1.59,1.44,1.61,6.32,6.33,6.34
47.53,4.73,-1.58,4.75,-1.56,1.56,1.40,1.55,6.29,6.31,6.31
48.01,4.73,-1.57,4.76,-1.52,1.52,1.36,1.50,6.25,6.28,6.30
48.49,4.74,-1.53,4.77,-1.49,1.49,1.32,1.45,6.23,6.26,6.27
48.97,4.77,-1.47,4.78,-1.45,1.45,1.28,1.40,6.22,6.24,6.24
49.46,4.80,-1.40,4.79,-1.42,1.42,1.24,1.35,6.22,6.21,6.20
49.96,4.82,-1.35,4.81,-1.38,1.38,1.21,1.30,6.20,6.19,6.17
50.46,4.82,-1.34,4.83,-1.33,1.33,1.17,1.26,6.15,6.16,6.16
50.96,4.86,-1.27,4.85,-1.29,1.29,1.13,1.21,6.15,6.13,6.13
51.47,4.86,-1.23,4.87,-1.24,1.24,1.09,1.17,6.10,6.10,6.10
51.99,4.89,-1.18,4.88,-1.19,1.19,1.05,1.13,6.08,6.08,6.07
52.51,4.90,-1.15,4.90,-1.15,1.15,1.01,1.08,6.05,6.05,6.05
53.03,4.90,-1.13,4.92,-1.10,1.10,0.98,1.04,6.00,6.02,6.03
53.56,4.95,-1.05,4.93,-1.06,1.06,0.94,1.00,6.01,5.99,6.00
54.10,4.95,-1.02,4.95,-1.02,1.02,0.90,0.96,5.97,5.97,5.97
54.64,4.97,-0.97,4.96,-0.98,0.98,0.86,0.92,5.95,5.94,5.94
55.18,4.99,-0.92,4.97,-0.94,0.94,0.82,0.89,5.93,5.91,5.91
55.74,4.99,-0.89,4.98,-0.91,0.91,0.79,0.85,5.90,5.89,5.88
56.29,4.99,-0.87,5.00,-0.87,0.87,0.75,0.81,5.86,5.86,5.86
56.86,4.99,-0.84,5.01,-0.83,0.83,0.71,0.77,5.82,5.83,5.83
57.42,4.99,-0.81,5.02,-0.79,0.79,0.67,0.74,5.78,5.81,5.80
58.00,5.01,-0.76,5.03,-0.75,0.75,0.64,0.70,5.76,5.78,5.77
58.58,5.03,-0.72,5.04,-0.71,0.71,0.60,0.67,5.74,5.75,5.75
59.16,5.04,-0.68,5.05,-0.67,0.67,0.56,0.63,5.71,5.72,5.73
59.76,5.08,-0.62,5.06,-0.63,0.63,0.52,0.60,5.71,5.69,5.70
60.35,5.08,-0.58,5.06,-0.59,0.59,0.49,0.56,5.67,5.66,5.66
60.96,5.08,-0.56,5.07,-0.55,0.55,0.45,0.53,5.63,5.63,5.64
61.57,5.08,-0.51,5.08,-0.51,0.51,0.41,0.49,5.59,5.59,5.59
62.18,5.08,-0.47,5.09,-0.47,0.47,0.37,0.46,5.55,5.56,5.55
62.80,5.10,-0.42,5.10,-0.43,0.43,0.34,0.42,5.53,5.53,5.52
63.43,5.10,-0.38,5.10,-0.39,0.39,0.30,0.39,5.49,5.49,5.48
64.07,5.10,-0.35,5.11,-0.35,0.35,0.26,0.35,5.45,5.46,5.45
64.71,5.10,-0.32,5.11,-0.32,0.32,0.22,0.32,5.42,5.42,5.42
65.35,5.10,-0.29,5.11,-0.28,0.28,0.19,0.28,5.38,5.39,5.39
66.01,5.10,-0.25,5.10,-0.25,0.25,0.15,0.25,5.35,5.35,5.35
66.67,5.10,-0.22,5.10,-0.22,0.22,0.11,0.21,5.32,5.32,5.32
67.33,5.10,-0.18,5.09,-0.19,0.19,0.07,0.18,5.29,5.28,5.28
68.01,5.10,-0.15,5.09,-0.16,0.16,0.04,0.14,5.26,5.25,5.25
68.69,5.08,-0.13,5.08,-0.13,0.13,-0.00,0.10,5.21,5.21,5.21
69.37,5.08,-0.09,5.07,-0.10,0.10,-0.04,0.07,5.18,5.17,5.17
70.07,5.08,-0.05,5.06,-0.07,0.07,-0.08,0.03,5.16,5.13,5.13
70.77,5.05,-0.05,5.05,-0.05,0.05,-0.12,-0.01,5.10,5.10,5.10
71.48,5.03,-0.03,5.04,-0.02,0.02,-0.15,-0.05,5.05,5.06,5.06
72.19,5.03,0.01,5.03,0.01,-0.01,-0.19,-0.09,5.02,5.02,5.02
72.91,5.01,0.04,5.02,0.04,-0.04,-0.23,-0.12,4.97,4.98,4.98
73.64,4.99,0.06,5.01,0.07,-0.07,-0.27,-0.16,4.92,4.94,4.93
74.38,4.99,0.09,5.00,0.10,-0.10,-0.31,-0.20,4.89,4.90,4.90
75.12,4.99,0.14,4.99,0.13,-0.13,-0.34,-0.24,4.86,4.86,4.85
75.87,4.99,0.18,4.99,0.17,-0.17,-0.38,-0.28,4.82,4.82,4.81
76.63,4.99,0.22,4.99,0.21,-0.21,-0.42,-0.32,4.78,4.78,4.77
77.40,4.99,0.25,4.99,0.25,-0.25,-0.46,-0.36,4.74,4.73,4.74
78.17,4.99,0.30,4.99,0.30,-0.30,-0.50,-0.41,4.69,4.69,4.69
78.95,4.99,0.34,5.01,0.35,-0.35,-0.54,-0.45,4.64,4.65,4.65
79.74,4.99,0.38,5.02,0.41,-0.41,-0.58,-0.49,4.58,4.61,4.61
80.54,5.03,0.46,5.03,0.47,-0.47,-0.62,-0.53,4.56,4.57,4.57
81.35,5.03,0.50,5.05,0.53,-0.53,-0.66,-0.58,4.50,4.53,4.53
82.16,5.05,0.57,5.07,0.59,-0.59,-0.69,-0.62,4.46,4.48,4.48
82.98,5.08,0.63,5.09,0.65,-0.65,-0.73,-0.67,4.43,4.44,4.45
83.81,5.11,0.72,5.10,0.71,-0.71,-0.77,-0.71,4.40,4.39,4.39
84.65,5.14,0.80,5.11,0.77,-0.77,-0.81,-0.76,4.37,4.35,4.34
85.50,5.16,0.86,5.13,0.83,-0.83,-0.85,-0.81,4.34,4.30,4.30
86.35,5.16,0.91,5.14,0.88,-0.88,-0.89,-0.86,4.28,4.25,4.26
87.22,5.16,0.96,5.14,0.94,-0.94,-0.93,-0.90,4.22,4.21,4.21
88.09,5.16,1.01,5.15,0.99,-0.99,-0.98,-0.95,4.17,4.16,4.16
88.97,5.16,1.05,5.15,1.05,-1.05,-1.02,-1.00,4.11,4.11,4.11
89.86,5.16,1.10,5.15,1.10,-1.10,-1.06,-1.05,4.06,4.06,4.06
90.76,5.13,1.13,5.15,1.15,-1.15,-1.10,-1.11,3.98,4.00,4.00
91.66,5.12,1.16,5.15,1.20,-1.20,-1.14,-1.16,3.92,3.95,3.96
92.58,5.12,1.23,5.15,1.25,-1.25,-1.18,-1.21,3.87,3.90,3.89
93.51,5.12,1.27,5.14,1.29,-1.29,-1.22,-1.27,3.83,3.84,3.85
94.44,5.12,1.33,5.13,1.34,-1.34,-1.26,-1.32,3.78,3.79,3.79
95.39,5.12,1.38,5.12,1.39,-1.39,-1.31,-1.37,3.73,3.73,3.74
96.34,5.12,1.45,5.11,1.43,-1.43,-1.35,-1.43,3.69,3.68,3.67
97.30,5.12,1.50,5.10,1.48,-1.48,-1.39,-1.49,3.64,3.62,3.62
98.28,5.11,1.55,5.08,1.52,-1.52,-1.43,-1.54,3.59,3.56,3.56
99.26,5.08,1.58,5.06,1.56,-1.56,-1.48,-1.60,3.52,3.50,3.50
100.25,5.05,1.60,5.04,1.59,-1.59,-1.52,-1.66,3.46,3.45,3.45
101.25,5.02,1.63,5.02,1.63,-1.63,-1.56,-1.72,3.39,3.39,3.39
102.27,4.99,1.66,4.99,1.66,-1.66,-1.61,-1.78,3.33,3.33,3.33
103.29,4.96,1.70,4.96,1.69,-1.69,-1.65,-1.84,3.27,3.27,3.26
104.32,4.93,1.71,4.93,1.72,-1.72,-1.70,-1.89,3.21,3.21,3.22
105.37,4.88,1.72,4.90,1.74,-1.74,-1.74,-1.95,3.14,3.16,3.16
106.42,4.85,1.75,4.87,1.77,-1.77,-1.78,-2.01,3.08,3.10,3.10
107.48,4.82,1.78,4.84,1.80,-1.80,-1.83,-2.07,3.02,3.04,3.04
108.56,4.81,1.84,4.81,1.83,-1.83,-1.87,-2.13,2.98,2.98,2.97
109.64,4.77,1.85,4.78,1.86,-1.86,-1.92,-2.18,2.91,2.92,2.92
110.74,4.75,1.89,4.75,1.90,-1.90,-1.97,-2.24,2.85,2.85,2.86
111.85,4.73,1.93,4.73,1.94,-1.94,-2.01,-2.29,2.79,2.79,2.80
112.97,4.71,1.98,4.71,1.98,-1.98,-2.06,-2.34,2.73,2.73,2.73
114.10,4.69,2.02,4.69,2.02,-2.02,-2.10,-2.40,2.67,2.67,2.67
115.24,4.67,2.07,4.67,2.06,-2.06,-2.15,-2.45,2.61,2.60,2.60
116.39,4.64,2.10,4.65,2.11,-2.11,-2.20,-2.49,2.53,2.54,2.54
117.55,4.64,2.17,4.63,2.16,-2.16,-2.24,-2.54,2.48,2.48,2.47
118.73,4.60,2.19,4.62,2.20,-2.20,-2.29,-2.58,2.40,2.42,2.41
119.92,4.60,2.25,4.60,2.25,-2.25,-2.34,-2.63,2.35,2.35,2.35
121.12,4.60,2.31,4.59,2.30,-2.30,-2.38,-2.67,2.30,2.29,2.29
122.33,4.56,2.34,4.57,2.34,-2.34,-2.43,-2.70,2.22,2.23,2.23
123.55,4.56,2.39,4.56,2.39,-2.39,-2.48,-2.74,2.17,2.16,2.17
124.79,4.56,2.45,4.55,2.44,-2.44,-2.53,-2.77,2.12,2.10,2.11
126.03,4.55,2.50,4.54,2.49,-2.49,-2.58,-2.80,2.06,2.04,2.05
127.29,4.51,2.52,4.53,2.54,-2.54,-2.62,-2.82,1.97,1.98,1.99
128.57,4.51,2.59,4.51,2.59,-2.59,-2.67,-2.85,1.92,1.92,1.92
129.85,4.50,2.64,4.50,2.64,-2.64,-2.72,-2.87,1.86,1.86,1.86
131.15,4.47,2.67,4.49,2.68,-2.68,-2.77,-2.89,1.79,1.81,1.80
132.46,4.47,2.73,4.48,2.73,-2.73,-2.82,-2.91,1.74,1.75,1.74
133.79,4.47,2.77,4.46,2.77,-2.77,-2.87,-2.93,1.70,1.69,1.70
135.12,4.47,2.84,4.45,2.81,-2.81,-2.92,-2.94,1.66,1.64,1.63
136.48,4.47,2.88,4.44,2.85,-2.85,-2.97,-2.96,1.62,1.58,1.59
137.84,4.43,2.90,4.42,2.89,-2.89,-3.01,-2.97,1.54,1.53,1.53
139.22,4.43,2.96,4.41,2.93,-2.93,-3.06,-2.98,1.50,1.48,1.47
140.61,4.38,2.96,4.40,2.97,-2.97,-3.11,-2.99,1.41,1.43,1.42
142.02,4.38,3.00,4.40,3.02,-3.02,-3.16,-3.00,1.36,1.38,1.39
143.44,4.38,3.05,4.40,3.06,-3.06,-3.21,-3.01,1.32,1.33,1.34
144.87,4.38,3.09,4.40,3.11,-3.11,-3.26,-3.02,1.27,1.29,1.29
146.32,4.38,3.14,4.40,3.16,-3.16,-3.31,-3.03,1.22,1.24,1.24
147.78,4.38,3.18,4.40,3.21,-3.21,-3.36,-3.04,1.17,1.19,1.20
149.26,4.41,3.26,4.41,3.27,-3.27,-3.41,-3.05,1.15,1.15,1.15
150.75,4.43,3.33,4.42,3.32,-3.32,-3.46,-3.07,1.11,1.10,1.10
152.26,4.43,3.38,4.43,3.38,-3.38,-3.51,-3.08,1.05,1.05,1.05
153.78,4.47,3.46,4.45,3.44,-3.44,-3.56,-3.09,1.03,1.01,1.01
155.32,4.47,3.51,4.47,3.51,-3.51,-3.61,-3.11,0.96,0.96,0.96
156.88,4.50,3.58,4.49,3.57,-3.57,-3.65,-3.13,0.93,0.91,0.92
158.44,4.51,3.64,4.51,3.64,-3.64,-3.70,-3.15,0.87,0.87,0.87
160.03,4.52,3.70,4.53,3.71,-3.71,-3.75,-3.17,0.81,0.82,0.82
161.63,4.56,3.79,4.55,3.77,-3.77,-3.80,-3.20,0.79,0.77,0.77
163.24,4.56,3.84,4.57,3.84,-3.84,-3.85,-3.22,0.72,0.73,0.72
164.88,4.56,3.88,4.59,3.91,-3.91,-3.89,-3.25,0.65,0.68,0.68
166.53,4.60,3.96,4.61,3.97,-3.97,-3.94,-3.28,0.63,0.64,0.64
168.19,4.64,4.05,4.63,4.04,-4.04,-3.99,-3.32,0.60,0.59,0.59
169.87,4.65,4.10,4.65,4.11,-4.11,-4.03,-3.35,0.55,0.55,0.55
171.57,4.69,4.18,4.68,4.17,-4.17,-4.08,-3.39,0.52,0.50,0.51
173.29,4.69,4.23,4.70,4.24,-4.24,-4.12,-3.44,0.45,0.46,0.46
175.02,4.73,4.31,4.72,4.31,-4.31,-4.17,-3.48,0.42,0.41,0.42
176.77,4.73,4.36,4.74,4.37,-4.37,-4.21,-3.53,0.36,0.37,0.37
178.54,4.76,4.44,4.76,4.43,-4.43,-4.25,-3.58,0.33,0.33,0.32
180.32,4.77,4.49,4.78,4.50,-4.50,-4.30,-3.63,0.27,0.29,0.29
182.13,4.82,4.57,4.80,4.56,-4.56,-4.34,-3.69,0.26,0.24,0.25
183.95,4.82,4.62,4.82,4.62,-4.62,-4.38,-3.74,0.20,0.20,0.20
185.79,4.82,4.66,4.83,4.67,-4.67,-4.42,-3.81,0.15,0.16,0.16
187.65,4.86,4.74,4.84,4.72,-4.72,-4.46,-3.87,0.15,0.12,0.12
189.52,4.86,4.78,4.85,4.76,-4.76,-4.49,-3.94,0.10,0.09,0.08
191.42,4.86,4.81,4.85,4.80,-4.80,-4.53,-4.00,0.06,0.05,0.05
193.33,4.86,4.84,4.85,4.84,-4.84,-4.57,-4.07,0.02,0.01,0.02
195.27,4.86,4.88,4.86,4.87,-4.87,-4.60,-4.15,-0.01,-0.02,-0.01
197.22,4.86,4.91,4.86,4.90,-4.90,-4.64,-4.22,-0.04,-0.05,-0.05
199.19,4.86,4.95,4.86,4.93,-4.93,-4.67,-4.30,-0.07,-0.08,-0.09
201.18,4.86,4.97,4.85,4.96,-4.96,-4.70,-4.38,-0.10,-0.10,-0.11
203.19,4.82,4.95,4.85,4.98,-4.98,-4.73,-4.46,-0.16,-0.13,-0.13
205.23,4.82,4.98,4.86,5.01,-5.01,-4.76,-4.54,-0.19,-0.15,-0.16
207.28,4.82,4.99,4.85,5.03,-5.03,-4.79,-4.62,-0.21,-0.17,-0.17
209.35,4.86,5.05,4.85,5.05,-5.05,-4.81,-4.70,-0.19,-0.19,-0.19
211.44,4.86,5.08,4.85,5.06,-5.06,-4.84,-4.78,-0.20,-0.21,-0.22
213.56,4.86,5.09,4.85,5.08,-5.08,-4.86,-4.86,-0.22,-0.23,-0.23
215.69,4.86,5.09,4.85,5.09,-5.09,-4.88,-4.94,-0.23,-0.24,-0.23
217.85,4.86,5.11,4.85,5.10,-5.10,-4.90,-5.01,-0.24,-0.25,-0.25
220.03,4.86,5.12,4.85,5.11,-5.11,-4.92,-5.09,-0.25,-0.26,-0.26
222.23,4.86,5.14,4.85,5.11,-5.11,-4.93,-5.16,-0.25,-0.27,-0.28
224.45,4.86,5.13,4.85,5.12,-5.12,-4.95,-5.23,-0.26,-0.27,-0.27
226.70,4.82,5.10,4.84,5.12,-5.12,-4.96,-5.29,-0.30,-0.28,-0.28
228.96,4.82,5.10,4.84,5.11,-5.11,-4.97,-5.35,-0.29,-0.28,-0.28
231.25,4.82,5.09,4.82,5.10,-5.10,-4.98,-5.41,-0.28,-0.28,-0.27
233.57,4.82,5.09,4.81,5.09,-5.09,-4.98,-5.45,-0.27,-0.28,-0.27
235.90,4.80,5.08,4.80,5.07,-5.07,-4.99,-5.50,-0.27,-0.28,-0.28
238.26,4.77,5.05,4.78,5.05,-5.05,-4.99,-5.53,-0.28,-0.27,-0.28
240.64,4.77,5.04,4.77,5.03,-5.03,-4.99,-5.56,-0.26,-0.27,-0.27
243.05,4.77,5.03,4.75,5.01,-5.01,-4.99,-5.58,-0.24,-0.26,-0.26
245.48,4.74,4.99,4.74,4.99,-4.99,-4.98,-5.59,-0.25,-0.25,-0.25
247.93,4.73,4.97,4.72,4.96,-4.96,-4.98,-5.59,-0.23,-0.24,-0.24
250.41,4.69,4.93,4.71,4.93,-4.93,-4.97,-5.59,-0.24,-0.23,-0.24
252.92,4.65,4.87,4.69,4.90,-4.90,-4.96,-5.57,-0.25,-0.21,-0.22
255.45,4.64,4.84,4.66,4.86,-4.86,-4.95,-5.55,-0.22,-0.20,-0.20
258.00,4.64,4.82,4.64,4.82,-4.82,-4.93,-5.52,-0.18,-0.19,-0.18
260.58,4.64,4.81,4.61,4.78,-4.78,-4.91,-5.48,-0.14,-0.17,-0.17
263.19,4.60,4.75,4.58,4.73,-4.73,-4.89,-5.43,-0.13,-0.15,-0.15
265.82,4.58,4.72,4.55,4.69,-4.69,-4.87,-5.38,-0.10,-0.13,-0.14
268.48,4.54,4.66,4.52,4.63,-4.63,-4.85,-5.32,-0.09,-0.12,-0.11
271.16,4.49,4.58,4.48,4.58,-4.58,-4.82,-5.25,-0.09,-0.10,-0.09
273.87,4.45,4.53,4.45,4.53,-4.53,-4.79,-5.18,-0.08,-0.08,-0.08
276.61,4.40,4.46,4.42,4.48,-4.48,-4.76,-5.10,-0.08,-0.06,-0.06
279.38,4.36,4.40,4.38,4.42,-4.42,-4.73,-5.02,-0.06,-0.04,-0.04
282.17,4.32,4.35,4.35,4.37,-4.37,-4.69,-4.93,-0.05,-0.03,-0.03
284.99,4.29,4.29,4.31,4.31,-4.31,-4.66,-4.84,-0.02,-0.01,-0.00
287.84,4.25,4.24,4.27,4.25,-4.25,-4.62,-4.74,-0.00,0.01,0.01
290.72,4.23,4.19,4.22,4.19,-4.19,-4.58,-4.65,0.04,0.03,0.04
293.63,4.20,4.15,4.19,4.13,-4.13,-4.53,-4.55,0.07,0.05,0.05
296.57,4.17,4.10,4.15,4.07,-4.07,-4.49,-4.45,0.10,0.08,0.08
299.53,4.12,4.03,4.11,4.01,-4.01,-4.44,-4.35,0.11,0.10,0.09
302.53,4.10,3.99,4.08,3.96,-3.96,-4.39,-4.25,0.14,0.12,0.11
305.55,4.06,3.92,4.04,3.90,-3.90,-4.34,-4.15,0.16,0.14,0.14
308.61,4.00,3.84,4.01,3.85,-3.85,-4.29,-4.05,0.15,0.16,0.16
311.69,3.96,3.78,3.98,3.79,-3.79,-4.24,-3.95,0.17,0.18,0.18
314.81,3.91,3.69,3.95,3.74,-3.74,-4.18,-3.85,0.17,0.21,0.22
317.96,3.88,3.65,3.91,3.69,-3.69,-4.12,-3.75,0.19,0.23,0.24
321.14,3.86,3.61,3.88,3.63,-3.63,-4.07,-3.66,0.23,0.25,0.25
324.35,3.86,3.59,3.85,3.58,-3.58,-4.01,-3.56,0.28,0.27,0.27
327.59,3.82,3.53,3.82,3.52,-3.52,-3.94,-3.47,0.30,0.29,0.29
330.87,3.82,3.51,3.79,3.47,-3.47,-3.88,-3.38,0.35,0.31,0.31
334.18,3.78,3.45,3.76,3.43,-3.43,-3.82,-3.29,0.35,0.33,0.33
337.52,3.76,3.42,3.73,3.38,-3.38,-3.75,-3.20,0.38,0.35,0.35
340.90,3.73,3.36,3.71,3.34,-3.34,-3.69,-3.12,0.39,0.37,0.37
344.30,3.68,3.29,3.69,3.30,-3.30,-3.62,-3.03,0.38,0.39,0.39
347.75,3.65,3.24,3.67,3.26,-3.26,-3.55,-2.95,0.39,0.41,0.41
351.23,3.60,3.18,3.65,3.22,-3.22,-3.48,-2.88,0.38,0.42,0.42
354.74,3.60,3.16,3.63,3.19,-3.19,-3.41,-2.80,0.41,0.44,0.44
358.28,3.60,3.14,3.61,3.16,-3.16,-3.34,-2.72,0.45,0.46,0.46
361.87,3.60,3.12,3.60,3.12,-3.12,-3.27,-2.65,0.48,0.48,0.48
365.49,3.59,3.10,3.59,3.09,-3.09,-3.19,-2.58,0.50,0.49,0.49
369.14,3.56,3.06,3.57,3.07,-3.07,-3.12,-2.52,0.49,0.51,0.50
372.83,3.56,3.04,3.56,3.04,-3.04,-3.04,-2.45,0.52,0.52,0.52
376.56,3.56,3.03,3.55,3.02,-3.02,-2.97,-2.39,0.54,0.53,0.53
380.33,3.56,3.00,3.54,2.99,-2.99,-2.89,-2.33,0.57,0.55,0.56
384.13,3.54,2.98,3.53,2.97,-2.97,-2.82,-2.27,0.57,0.56,0.56
387.97,3.52,2.95,3.51,2.94,-2.94,-2.74,-2.21,0.58,0.57,0.57
391.85,3.52,2.94,3.50,2.91,-2.91,-2.66,-2.15,0.61,0.59,0.58
395.77,3.48,2.88,3.47,2.88,-2.88,-2.59,-2.10,0.60,0.60,0.60
399.73,3.45,2.84,3.45,2.84,-2.84,-2.51,-2.05,0.61,0.61,0.61
403.72,3.42,2.80,3.42,2.81,-2.81,-2.43,-1.99,0.61,0.62,0.62
407.76,3.39,2.77,3.40,2.77,-2.77,-2.36,-1.94,0.62,0.63,0.63
411.84,3.36,2.72,3.37,2.73,-2.73,-2.28,-1.90,0.63,0.64,0.64
415.96,3.33,2.68,3.34,2.69,-2.69,-2.20,-1.85,0.64,0.65,0.65
420.12,3.30,2.64,3.30,2.64,-2.64,-2.12,-1.80,0.66,0.66,0.66
424.32,3.26,2.59,3.27,2.60,-2.60,-2.04,-1.76,0.66,0.67,0.67
428.56,3.24,2.56,3.23,2.55,-2.55,-1.97,-1.72,0.69,0.68,0.68
432.85,3.19,2.50,3.20,2.51,-2.51,-1.89,-1.67,0.68,0.69,0.69
437.18,3.16,2.46,3.16,2.46,-2.46,-1.81,-1.63,0.70,0.70,0.70
441.55,3.13,2.42,3.13,2.41,-2.41,-1.73,-1.59,0.72,0.71,0.72
445.96,3.08,2.36,3.09,2.36,-2.36,-1.66,-1.55,0.72,0.73,0.72
450.42,3.05,2.32,3.05,2.31,-2.31,-1.58,-1.51,0.74,0.74,0.73
454.93,3.00,2.25,3.01,2.26,-2.26,-1.50,-1.47,0.74,0.75,0.75
459.48,2.97,2.21,2.97,2.21,-2.21,-1.42,-1.42,0.76,0.77,0.76
464.07,2.93,2.15,2.93,2.15,-2.15,-1.35,-1.38,0.78,0.78,0.78
468.71,2.88,2.08,2.89,2.09,-2.09,-1.27,-1.34,0.79,0.79,0.80
473.40,2.83,2.02,2.84,2.03,-2.03,-1.20,-1.30,0.80,0.81,0.81
478.13,2.80,1.97,2.79,1.97,-1.97,-1.12,-1.26,0.83,0.82,0.83
482.91,2.74,1.90,2.74,1.90,-1.90,-1.05,-1.22,0.84,0.84,0.84
487.74,2.68,1.82,2.68,1.83,-1.83,-0.97,-1.18,0.85,0.86,0.86
492.62,2.62,1.74,2.62,1.75,-1.75,-0.90,-1.14,0.87,0.87,0.88
497.55,2.56,1.68,2.56,1.67,-1.67,-0.82,-1.09,0.89,0.89,0.89
502.52,2.48,1.58,2.48,1.58,-1.58,-0.75,-1.05,0.90,0.90,0.90
507.55,2.42,1.51,2.40,1.48,-1.48,-0.68,-1.00,0.94,0.92,0.91
512.62,2.32,1.39,2.31,1.38,-1.38,-0.61,-0.96,0.94,0.94,0.93
517.75,2.24,1.29,2.22,1.27,-1.27,-0.53,-0.91,0.97,0.95,0.95
522.93,2.13,1.16,2.12,1.15,-1.15,-0.46,-0.86,0.98,0.97,0.97
528.16,2.03,1.05,2.01,1.02,-1.02,-0.39,-0.82,1.01,0.99,0.98
533.44,1.91,0.91,1.89,0.89,-0.89,-0.32,-0.77,1.02,1.00,1.00
538.77,1.79,0.77,1.77,0.75,-0.75,-0.25,-0.72,1.04,1.02,1.02
544.16,1.66,0.62,1.64,0.61,-0.61,-0.19,-0.67,1.06,1.04,1.04
549.60,1.53,0.47,1.51,0.46,-0.46,-0.12,-0.62,1.07,1.05,1.06
