frequency,raw,error,smoothed,error_smoothed,equalization,parametric_eq,fixed_band_eq,equalized_raw,equalized_smoothed,target
20.00,-7.81,-9.53,-7.81,-9.55,9.55,9.23,3.40,1.74,1.74,1.72
20.20,-7.73,-9.49,-7.73,-9.50,9.50,9.24,3.49,1.77,1.77,1.76
20.40,-7.66,-9.45,-7.66,-9.46,9.46,9.24,3.59,1.80,1.80,1.80
20.61,-7.58,-9.41,-7.58,-9.41,9.41,9.24,3.69,1.83,1.83,1.82
20.81,-7.51,-9.37,-7.51,-9.36,9.36,9.23,3.79,1.85,1.85,1.86
21.02,-7.43,-9.33,-7.43,-9.31,9.31,9.21,3.90,1.88,1.88,1.90
21.23,-7.36,-9.28,-7.35,-9.26,9.26,9.19,4.01,1.90,1.90,1.92
21.44,-7.28,-9.22,-7.28,-9.20,9.20,9.17,4.12,1.92,1.93,1.94
21.66,-7.20,-9.16,-7.20,-9.15,9.15,9.14,4.23,1.95,1.95,1.96
21.87,-7.12,-9.09,-7.13,-9.09,9.09,9.10,4.35,1.97,1.97,1.97
22.09,-7.05,-9.04,-7.05,-9.03,9.03,9.06,4.47,1.98,1.98,1.99
22.31,-6.97,-8.97,-6.97,-8.97,8.97,9.02,4.60,2.00,2.00,2.00
22.54,-6.90,-8.91,-6.90,-8.91,8.91,8.97,4.72,2.01,2.01,2.01
22.76,-6.82,-8.84,-6.82,-8.84,8.84,8.92,4.86,2.02,2.02,2.02
22.99,-6.74,-8.76,-6.74,-8.77,8.77,8.86,4.99,2.03,2.03,2.02
23.22,-6.67,-8.70,-6.67,-8.70,8.70,8.80,5.13,2.03,2.04,2.03
23.45,-6.59,-8.63,-6.59,-8.64,8.64,8.74,5.27,2.05,2.05,2.04
23.69,-6.52,-8.57,-6.51,-8.57,8.57,8.67,5.41,2.05,2.05,2.05
23.92,-6.44,-8.49,-6.44,-8.50,8.50,8.61,5.56,2.06,2.06,2.06
24.16,-6.37,-8.44,-6.36,-8.44,8.44,8.54,5.71,2.07,2.07,2.07
24.40,-6.29,-8.38,-6.29,-8.37,8.37,8.47,5.86,2.08,2.08,2.09
24.65,-6.21,-8.30,-6.21,-8.30,8.30,8.39,6.01,2.09,2.09,2.09
24.89,-6.13,-8.23,-6.14,-8.24,8.24,8.32,6.17,2.11,2.10,2.10
25.14,-6.06,-8.17,-6.06,-8.17,8.17,8.24,6.33,2.11,2.11,2.11
25.39,-5.98,-8.10,-5.99,-8.11,8.11,8.17,6.49,2.13,2.12,2.12
25.65,-5.91,-8.05,-5.91,-8.04,8.04,8.09,6.65,2.13,2.13,2.14
25.91,-5.84,-7.98,-5.84,-7.98,7.98,8.01,6.82,2.14,2.14,2.14
26.16,-5.76,-7.91,-5.76,-7.91,7.91,7.93,6.98,2.15,2.15,2.15
26.43,-5.69,-7.85,-5.69,-7.85,7.85,7.85,7.14,2.16,2.16,2.16
26.69,-5.62,-7.78,-5.61,-7.78,7.78,7.77,7.30,2.16,2.17,2.16
26.96,-5.54,-7.72,-5.54,-7.72,7.72,7.69,7.46,2.18,2.18,2.18
27.23,-5.47,-7.66,-5.47,-7.65,7.65,7.62,7.62,2.18,2.19,2.19
27.50,-5.39,-7.59,-5.39,-7.59,7.59,7.54,7.77,2.20,2.19,2.20
27.77,-5.32,-7.52,-5.32,-7.52,7.52,7.46,7.92,2.20,2.20,2.20
28.05,-5.25,-7.47,-5.25,-7.46,7.46,7.38,8.06,2.21,2.21,2.22
28.33,-5.18,-7.39,-5.18,-7.39,7.39,7.31,8.20,2.21,2.22,2.22
28.62,-5.11,-7.33,-5.10,-7.33,7.33,7.23,8.33,2.22,2.23,2.22
28.90,-5.03,-7.26,-5.03,-7.27,7.27,7.16,8.45,2.24,2.23,2.23
29.19,-4.96,-7.19,-4.96,-7.20,7.20,7.08,8.55,2.24,2.24,2.23
29.48,-4.89,-7.15,-4.89,-7.14,7.14,7.01,8.65,2.25,2.25,2.26
29.78,-4.82,-7.08,-4.82,-7.08,7.08,6.94,8.74,2.26,2.25,2.26
30.08,-4.75,-7.01,-4.76,-7.02,7.02,6.87,8.81,2.27,2.26,2.26
30.38,-4.69,-6.95,-4.69,-6.96,6.96,6.80,8.86,2.27,2.27,2.26
30.68,-4.63,-6.91,-4.63,-6.90,6.90,6.74,8.91,2.27,2.27,2.28
30.99,-4.56,-6.84,-4.56,-6.84,6.84,6.67,8.93,2.28,2.28,2.28
31.30,-4.50,-6.79,-4.50,-6.79,6.79,6.61,8.94,2.29,2.29,2.28
31.61,-4.44,-6.73,-4.44,-6.73,6.73,6.54,8.94,2.29,2.29,2.29
31.93,-4.38,-6.68,-4.38,-6.68,6.68,6.48,8.92,2.30,2.30,2.30
32.24,-4.32,-6.62,-4.32,-6.63,6.63,6.42,8.88,2.31,2.31,2.30
32.57,-4.26,-6.57,-4.27,-6.58,6.58,6.37,8.83,2.32,2.31,2.31
32.89,-4.20,-6.52,-4.21,-6.53,6.53,6.31,8.77,2.33,2.32,2.32
33.22,-4.15,-6.48,-4.15,-6.48,6.48,6.25,8.69,2.33,2.33,2.33
33.55,-4.10,-6.43,-4.09,-6.43,6.43,6.20,8.60,2.33,2.33,2.34
33.89,-4.05,-6.39,-4.04,-6.38,6.38,6.15,8.50,2.33,2.34,2.34
34.23,-3.99,-6.34,-3.98,-6.33,6.33,6.10,8.39,2.33,2.34,2.35
34.57,-3.93,-6.29,-3.92,-6.27,6.27,6.05,8.28,2.34,2.35,2.36
34.92,-3.87,-6.22,-3.87,-6.22,6.22,6.00,8.15,2.35,2.36,2.35
35.27,-3.81,-6.17,-3.81,-6.17,6.17,5.96,8.03,2.36,2.36,2.36
35.62,-3.75,-6.11,-3.75,-6.12,6.12,5.91,7.89,2.37,2.36,2.36
35.97,-3.69,-6.05,-3.70,-6.06,6.06,5.87,7.75,2.37,2.36,2.36
36.33,-3.64,-6.00,-3.64,-6.00,6.00,5.82,7.61,2.36,2.36,2.37
36.70,-3.58,-5.94,-3.58,-5.95,5.95,5.78,7.47,2.37,2.37,2.36
37.06,-3.53,-5.90,-3.53,-5.89,5.89,5.74,7.33,2.36,2.36,2.37
37.43,-3.47,-5.84,-3.47,-5.83,5.83,5.70,7.18,2.36,2.36,2.37
37.81,-3.42,-5.79,-3.42,-5.78,5.78,5.66,7.04,2.36,2.36,2.37
38.19,-3.36,-5.72,-3.36,-5.72,5.72,5.63,6.90,2.36,2.36,2.36
38.57,-3.31,-5.67,-3.31,-5.67,5.67,5.59,6.76,2.36,2.36,2.36
38.95,-3.26,-5.61,-3.26,-5.62,5.62,5.55,6.62,2.36,2.35,2.35
39.34,-3.21,-5.55,-3.21,-5.56,5.56,5.52,6.48,2.35,2.35,2.34
39.74,-3.16,-5.50,-3.17,-5.51,5.51,5.48,6.35,2.35,2.35,2.34
40.14,-3.12,-5.46,-3.12,-5.46,5.46,5.45,6.22,2.34,2.34,2.34
40.54,-3.08,-5.42,-3.07,-5.41,5.41,5.42,6.09,2.33,2.34,2.34
40.94,-3.04,-5.37,-3.03,-5.36,5.36,5.38,5.97,2.32,2.33,2.33
41.35,-2.99,-5.31,-2.99,-5.32,5.32,5.35,5.84,2.33,2.33,2.32
41.76,-2.95,-5.27,-2.95,-5.27,5.27,5.31,5.73,2.32,2.32,2.33
42.18,-2.90,-5.23,-2.91,-5.23,5.23,5.28,5.61,2.33,2.32,2.33
42.60,-2.87,-5.19,-2.87,-5.19,5.19,5.25,5.50,2.32,2.32,2.32
43.03,-2.83,-5.15,-2.84,-5.15,5.15,5.21,5.40,2.32,2.31,2.32
43.46,-2.79,-5.10,-2.80,-5.11,5.11,5.18,5.29,2.32,2.31,2.31
43.90,-2.76,-5.06,-2.76,-5.07,5.07,5.14,5.20,2.31,2.30,2.29
44.33,-2.73,-5.03,-2.73,-5.03,5.03,5.10,5.10,2.30,2.30,2.30
44.78,-2.70,-4.99,-2.70,-4.99,4.99,5.07,5.01,2.29,2.29,2.29
45.23,-2.67,-4.95,-2.66,-4.95,4.95,5.03,4.92,2.28,2.29,2.28
45.68,-2.64,-4.92,-2.63,-4.91,4.91,4.99,4.84,2.27,2.28,2.28
46.13,-2.61,-4.88,-2.60,-4.87,4.87,4.95,4.76,2.26,2.28,2.27
46.60,-2.57,-4.85,-2.57,-4.84,4.84,4.91,4.68,2.26,2.27,2.28
47.06,-2.54,-4.80,-2.54,-4.80,4.80,4.87,4.61,2.26,2.26,2.26
47.53,-2.50,-4.75,-2.51,-4.76,4.76,4.83,4.54,2.26,2.25,2.25
48.01,-2.47,-4.73,-2.48,-4.71,4.71,4.78,4.47,2.24,2.24,2.26
48.49,-2.44,-4.68,-2.45,-4.67,4.67,4.74,4.41,2.23,2.23,2.24
48.97,-2.41,-4.62,-2.42,-4.63,4.63,4.69,4.35,2.22,2.22,2.21
49.46,-2.38,-4.58,-2.39,-4.59,4.59,4.64,4.30,2.21,2.20,2.20
49.96,-2.35,-4.53,-2.36,-4.55,4.55,4.59,4.24,2.20,2.19,2.18
50.46,-2.33,-4.50,-2.33,-4.50,4.50,4.54,4.19,2.17,2.17,2.17
50.96,-2.31,-4.47,-2.30,-4.46,4.46,4.49,4.14,2.15,2.15,2.16
51.47,-2.28,-4.40,-2.28,-4.41,4.41,4.44,4.09,2.13,2.13,2.12
51.99,-2.25,-4.36,-2.25,-4.36,4.36,4.39,4.05,2.11,2.11,2.11
52.51,-2.22,-4.32,-2.22,-4.31,4.31,4.33,4.01,2.09,2.09,2.10
53.03,-2.20,-4.27,-2.19,-4.26,4.26,4.28,3.97,2.06,2.07,2.07
53.56,-2.17,-4.23,-2.16,-4.21,4.21,4.22,3.93,2.04,2.05,2.06
54.10,-2.13,-4.16,-2.12,-4.15,4.15,4.16,3.89,2.02,2.03,2.03
54.64,-2.10,-4.11,-2.09,-4.10,4.10,4.10,3.85,2.00,2.01,2.01
55.18,-2.06,-4.04,-2.06,-4.04,4.04,4.04,3.82,1.98,1.98,1.98
55.74,-2.02,-3.97,-2.02,-3.98,3.98,3.98,3.78,1.96,1.96,1.95
56.29,-1.98,-3.92,-1.99,-3.92,3.92,3.92,3.75,1.94,1.94,1.94
56.86,-1.95,-3.86,-1.95,-3.86,3.86,3.86,3.71,1.91,1.91,1.91
57.42,-1.91,-3.78,-1.92,-3.80,3.80,3.80,3.68,1.89,1.88,1.87
58.00,-1.88,-3.73,-1.89,-3.74,3.74,3.74,3.65,1.86,1.86,1.85
58.58,-1.85,-3.68,-1.85,-3.68,3.68,3.68,3.61,1.83,1.83,1.83
59.16,-1.82,-3.62,-1.83,-3.62,3.62,3.61,3.58,1.80,1.80,1.80
59.76,-1.80,-3.58,-1.80,-3.56,3.56,3.55,3.54,1.76,1.76,1.78
60.35,-1.78,-3.52,-1.77,-3.50,3.50,3.49,3.50,1.72,1.73,1.74
60.96,-1.75,-3.46,-1.75,-3.44,3.44,3.43,3.46,1.69,1.69,1.71
61.57,-1.73,-3.39,-1.73,-3.39,3.39,3.37,3.42,1.66,1.66,1.66
62.18,-1.70,-3.31,-1.71,-3.33,3.33,3.30,3.38,1.63,1.62,1.61
62.80,-1.69,-3.27,-1.69,-3.27,3.27,3.24,3.34,1.58,1.58,1.58
63.43,-1.68,-3.21,-1.68,-3.21,3.21,3.18,3.30,1.53,1.54,1.53
64.07,-1.67,-3.16,-1.66,-3.16,3.16,3.12,3.26,1.49,1.50,1.49
64.71,-1.66,-3.11,-1.65,-3.10,3.10,3.06,3.21,1.44,1.45,1.45
65.35,-1.64,-3.04,-1.64,-3.05,3.05,3.00,3.16,1.41,1.41,1.40
66.01,-1.63,-2.99,-1.63,-2.99,2.99,2.94,3.11,1.36,1.36,1.36
66.67,-1.62,-2.95,-1.62,-2.94,2.94,2.88,3.06,1.32,1.32,1.33
67.33,-1.61,-2.89,-1.62,-2.89,2.89,2.82,3.01,1.28,1.27,1.28
68.01,-1.60,-2.83,-1.61,-2.84,2.84,2.76,2.96,1.24,1.23,1.23
68.69,-1.60,-2.79,-1.61,-2.80,2.80,2.71,2.91,1.20,1.18,1.19
69.37,-1.60,-2.74,-1.61,-2.75,2.75,2.65,2.86,1.15,1.14,1.14
70.07,-1.61,-2.70,-1.61,-2.71,2.71,2.59,2.80,1.10,1.09,1.09
70.77,-1.62,-2.67,-1.61,-2.66,2.66,2.54,2.75,1.04,1.05,1.05
71.48,-1.62,-2.63,-1.61,-2.62,2.62,2.49,2.70,1.00,1.00,1.01
72.19,-1.63,-2.59,-1.62,-2.58,2.58,2.43,2.64,0.95,0.96,0.96
72.91,-1.63,-2.54,-1.62,-2.54,2.54,2.38,2.59,0.91,0.92,0.91
73.64,-1.63,-2.50,-1.62,-2.50,2.50,2.33,2.53,0.87,0.87,0.87
74.38,-1.63,-2.46,-1.63,-2.46,2.46,2.28,2.48,0.83,0.83,0.83
75.12,-1.63,-2.42,-1.63,-2.42,2.42,2.23,2.43,0.79,0.79,0.79
75.87,-1.63,-2.38,-1.63,-2.38,2.38,2.18,2.37,0.75,0.75,0.75
76.63,-1.63,-2.34,-1.63,-2.34,2.34,2.13,2.32,0.71,0.71,0.71
77.40,-1.63,-2.30,-1.63,-2.31,2.31,2.08,2.27,0.68,0.67,0.67
78.17,-1.63,-2.26,-1.63,-2.27,2.27,2.04,2.22,0.64,0.64,0.63
78.95,-1.63,-2.23,-1.63,-2.23,2.23,1.99,2.17,0.60,0.60,0.60
79.74,-1.63,-2.20,-1.63,-2.20,2.20,1.94,2.12,0.57,0.57,0.57
80.54,-1.63,-2.17,-1.63,-2.16,2.16,1.90,2.07,0.53,0.53,0.54
81.35,-1.63,-2.13,-1.63,-2.13,2.13,1.86,2.02,0.50,0.50,0.50
82.16,-1.63,-2.10,-1.63,-2.10,2.10,1.81,1.98,0.47,0.47,0.47
82.98,-1.63,-2.07,-1.63,-2.07,2.07,1.77,1.93,0.44,0.44,0.44
83.81,-1.63,-2.04,-1.63,-2.04,2.04,1.73,1.89,0.41,0.41,0.41
84.65,-1.63,-2.00,-1.63,-2.01,2.01,1.69,1.84,0.38,0.38,0.37
85.50,-1.63,-1.98,-1.63,-1.98,1.98,1.65,1.80,0.35,0.35,0.35
86.35,-1.63,-1.95,-1.63,-1.95,1.95,1.61,1.76,0.32,0.32,0.32
87.22,-1.63,-1.92,-1.63,-1.92,1.92,1.57,1.72,0.29,0.29,0.29
88.09,-1.63,-1.89,-1.62,-1.89,1.89,1.54,1.69,0.26,0.27,0.26
88.97,-1.63,-1.87,-1.62,-1.86,1.86,1.50,1.65,0.23,0.24,0.24
89.86,-1.63,-1.85,-1.62,-1.83,1.83,1.46,1.61,0.20,0.21,0.22
90.76,-1.63,-1.81,-1.61,-1.80,1.80,1.43,1.58,0.17,0.18,0.18
91.66,-1.62,-1.77,-1.61,-1.77,1.77,1.39,1.55,0.15,0.16,0.15
92.58,-1.61,-1.73,-1.61,-1.74,1.74,1.36,1.51,0.13,0.13,0.12
93.51,-1.61,-1.72,-1.61,-1.71,1.71,1.33,1.48,0.10,0.10,0.11
94.44,-1.61,-1.68,-1.62,-1.68,1.68,1.29,1.45,0.07,0.07,0.07
95.39,-1.60,-1.65,-1.62,-1.66,1.66,1.26,1.42,0.06,0.03,0.05
96.34,-1.61,-1.61,-1.63,-1.63,1.63,1.23,1.40,0.02,0.00,-0.00
97.30,-1.63,-1.59,-1.64,-1.61,1.61,1.20,1.37,-0.02,-0.03,-0.04
98.28,-1.65,-1.58,-1.66,-1.59,1.59,1.17,1.34,-0.06,-0.07,-0.07
99.26,-1.67,-1.56,-1.68,-1.57,1.57,1.14,1.32,-0.10,-0.11,-0.11
100.25,-1.70,-1.55,-1.70,-1.56,1.56,1.11,1.29,-0.14,-0.15,-0.15
101.25,-1.73,-1.55,-1.73,-1.54,1.54,1.08,1.27,-0.19,-0.19,-0.18
102.27,-1.76,-1.53,-1.76,-1.53,1.53,1.05,1.25,-0.23,-0.23,-0.23
103.29,-1.78,-1.50,-1.78,-1.51,1.51,1.02,1.22,-0.27,-0.27,-0.28
104.32,-1.80,-1.48,-1.81,-1.49,1.49,1.00,1.20,-0.31,-0.32,-0.32
105.37,-1.84,-1.48,-1.83,-1.46,1.46,0.97,1.18,-0.38,-0.37,-0.36
106.42,-1.87,-1.45,-1.86,-1.43,1.43,0.94,1.16,-0.44,-0.42,-0.42
107.48,-1.90,-1.43,-1.88,-1.40,1.40,0.92,1.14,-0.50,-0.48,-0.47
108.56,-1.93,-1.39,-1.90,-1.36,1.36,0.89,1.12,-0.57,-0.54,-0.54
109.64,-1.94,-1.34,-1.91,-1.32,1.32,0.87,1.10,-0.62,-0.60,-0.60
110.74,-1.95,-1.30,-1.93,-1.27,1.27,0.84,1.08,-0.68,-0.66,-0.65
111.85,-1.95,-1.23,-1.95,-1.22,1.22,0.82,1.06,-0.73,-0.73,-0.72
112.97,-1.96,-1.16,-1.97,-1.17,1.17,0.79,1.04,-0.79,-0.79,-0.80
114.10,-1.96,-1.11,-1.99,-1.13,1.13,0.77,1.02,-0.83,-0.86,-0.85
115.24,-1.98,-1.05,-2.01,-1.08,1.08,0.74,1.00,-0.90,-0.93,-0.93
116.39,-1.99,-0.98,-2.03,-1.03,1.03,0.72,0.98,-0.96,-1.00,-1.01
117.55,-2.02,-0.95,-2.05,-0.98,0.98,0.70,0.96,-1.04,-1.07,-1.07
118.73,-2.06,-0.91,-2.07,-0.93,0.93,0.67,0.94,-1.13,-1.13,-1.15
119.92,-2.10,-0.90,-2.09,-0.89,0.89,0.65,0.92,-1.21,-1.20,-1.20
121.12,-2.14,-0.87,-2.12,-0.85,0.85,0.63,0.90,-1.29,-1.27,-1.27
122.33,-2.16,-0.82,-2.14,-0.81,0.81,0.61,0.88,-1.35,-1.33,-1.34
123.55,-2.18,-0.79,-2.17,-0.77,0.77,0.58,0.86,-1.41,-1.40,-1.39
124.79,-2.21,-0.76,-2.20,-0.74,0.74,0.56,0.84,-1.47,-1.46,-1.45
126.03,-2.23,-0.72,-2.22,-0.71,0.71,0.54,0.82,-1.52,-1.52,-1.51
127.29,-2.24,-0.67,-2.25,-0.67,0.67,0.52,0.79,-1.57,-1.58,-1.57
128.57,-2.27,-0.63,-2.28,-0.64,0.64,0.50,0.77,-1.63,-1.63,-1.64
129.85,-2.30,-0.61,-2.30,-0.61,0.61,0.48,0.74,-1.69,-1.69,-1.69
131.15,-2.33,-0.58,-2.33,-0.58,0.58,0.45,0.72,-1.75,-1.74,-1.75
132.46,-2.34,-0.54,-2.35,-0.55,0.55,0.43,0.69,-1.79,-1.80,-1.80
133.79,-2.36,-0.51,-2.38,-0.52,0.52,0.41,0.67,-1.84,-1.85,-1.85
135.12,-2.39,-0.49,-2.40,-0.50,0.50,0.39,0.64,-1.89,-1.90,-1.90
136.48,-2.42,-0.47,-2.43,-0.48,0.48,0.37,0.62,-1.94,-1.95,-1.95
137.84,-2.46,-0.46,-2.45,-0.45,0.45,0.35,0.59,-2.01,-2.00,-2.00
139.22,-2.48,-0.43,-2.48,-0.43,0.43,0.33,0.56,-2.05,-2.05,-2.05
140.61,-2.51,-0.40,-2.50,-0.41,0.41,0.31,0.53,-2.10,-2.09,-2.11
142.02,-2.55,-0.41,-2.52,-0.39,0.39,0.29,0.50,-2.16,-2.14,-2.14
143.44,-2.56,-0.38,-2.55,-0.36,0.36,0.26,0.47,-2.20,-2.18,-2.18
144.87,-2.58,-0.35,-2.57,-0.34,0.34,0.24,0.45,-2.24,-2.23,-2.23
146.32,-2.59,-0.32,-2.59,-0.32,0.32,0.22,0.42,-2.27,-2.28,-2.27
147.78,-2.62,-0.31,-2.62,-0.29,0.29,0.20,0.39,-2.33,-2.32,-2.31
149.26,-2.63,-0.27,-2.64,-0.27,0.27,0.18,0.36,-2.36,-2.37,-2.36
150.75,-2.65,-0.23,-2.66,-0.24,0.24,0.15,0.33,-2.41,-2.42,-2.42
152.26,-2.66,-0.19,-2.69,-0.22,0.22,0.13,0.29,-2.44,-2.47,-2.47
153.78,-2.69,-0.18,-2.71,-0.20,0.20,0.11,0.26,-2.49,-2.52,-2.51
155.32,-2.72,-0.15,-2.74,-0.18,0.18,0.09,0.23,-2.54,-2.57,-2.57
156.88,-2.77,-0.15,-2.77,-0.15,0.15,0.06,0.20,-2.62,-2.62,-2.62
158.44,-2.79,-0.12,-2.80,-0.13,0.13,0.04,0.17,-2.66,-2.67,-2.67
160.03,-2.83,-0.10,-2.82,-0.10,0.10,0.02,0.14,-2.73,-2.72,-2.73
161.63,-2.85,-0.07,-2.85,-0.07,0.07,-0.01,0.11,-2.78,-2.77,-2.78
163.24,-2.88,-0.05,-2.87,-0.04,0.04,-0.03,0.08,-2.84,-2.83,-2.83
164.88,-2.91,-0.03,-2.88,0.00,-0.00,-0.06,0.04,-2.91,-2.88,-2.88
166.53,-2.93,0.00,-2.89,0.04,-0.04,-0.09,0.01,-2.97,-2.94,-2.93
168.19,-2.94,0.05,-2.90,0.09,-0.09,-0.11,-0.02,-3.03,-2.99,-2.99
169.87,-2.94,0.10,-2.91,0.13,-0.13,-0.14,-0.05,-3.07,-3.05,-3.04
171.57,-2.93,0.17,-2.92,0.19,-0.19,-0.17,-0.09,-3.12,-3.10,-3.10
173.29,-2.92,0.24,-2.92,0.24,-0.24,-0.19,-0.12,-3.16,-3.16,-3.16
175.02,-2.90,0.31,-2.93,0.29,-0.29,-0.22,-0.15,-3.19,-3.22,-3.21
176.77,-2.90,0.38,-2.93,0.35,-0.35,-0.25,-0.19,-3.25,-3.28,-3.28
178.54,-2.91,0.43,-2.94,0.40,-0.40,-0.28,-0.22,-3.31,-3.34,-3.34
180.32,-2.92,0.48,-2.95,0.45,-0.45,-0.31,-0.25,-3.37,-3.40,-3.40
182.13,-2.94,0.52,-2.97,0.49,-0.49,-0.35,-0.29,-3.43,-3.46,-3.46
183.95,-2.98,0.54,-2.98,0.54,-0.54,-0.38,-0.32,-3.52,-3.52,-3.52
185.79,-3.01,0.57,-3.01,0.57,-0.57,-0.41,-0.36,-3.58,-3.58,-3.58
187.65,-3.03,0.62,-3.03,0.61,-0.61,-0.45,-0.39,-3.64,-3.64,-3.65
189.52,-3.06,0.65,-3.07,0.64,-0.64,-0.48,-0.43,-3.70,-3.70,-3.71
191.42,-3.10,0.66,-3.10,0.66,-0.66,-0.52,-0.46,-3.76,-3.76,-3.76
193.33,-3.13,0.69,-3.13,0.69,-0.69,-0.55,-0.50,-3.82,-3.82,-3.82
195.27,-3.16,0.71,-3.16,0.72,-0.72,-0.59,-0.53,-3.88,-3.87,-3.87
197.22,-3.19,0.74,-3.18,0.75,-0.75,-0.63,-0.57,-3.94,-3.93,-3.93
199.19,-3.22,0.77,-3.20,0.78,-0.78,-0.67,-0.60,-4.00,-3.98,-3.99
201.18,-3.24,0.80,-3.22,0.81,-0.81,-0.71,-0.64,-4.05,-4.03,-4.04
203.19,-3.26,0.82,-3.23,0.85,-0.85,-0.75,-0.67,-4.11,-4.09,-4.08
205.23,-3.27,0.87,-3.24,0.90,-0.90,-0.78,-0.70,-4.17,-4.14,-4.14
207.28,-3.27,0.90,-3.24,0.94,-0.94,-0.82,-0.74,-4.21,-4.18,-4.17
209.35,-3.26,0.97,-3.25,0.98,-0.98,-0.86,-0.77,-4.24,-4.23,-4.23
211.44,-3.25,1.03,-3.25,1.03,-1.03,-0.90,-0.81,-4.28,-4.27,-4.28
213.56,-3.24,1.08,-3.25,1.07,-1.07,-0.94,-0.84,-4.31,-4.32,-4.32
215.69,-3.23,1.12,-3.25,1.11,-1.11,-0.98,-0.87,-4.34,-4.36,-4.35
217.85,-3.22,1.17,-3.25,1.14,-1.14,-1.01,-0.90,-4.36,-4.39,-4.39
220.03,-3.23,1.21,-3.25,1.17,-1.17,-1.05,-0.93,-4.40,-4.43,-4.44
222.23,-3.24,1.23,-3.26,1.20,-1.20,-1.08,-0.96,-4.44,-4.46,-4.47
224.45,-3.25,1.24,-3.27,1.22,-1.22,-1.11,-0.99,-4.47,-4.49,-4.49
226.70,-3.28,1.24,-3.29,1.23,-1.23,-1.14,-1.02,-4.51,-4.52,-4.52
228.96,-3.31,1.24,-3.31,1.23,-1.23,-1.16,-1.04,-4.54,-4.55,-4.55
231.25,-3.33,1.23,-3.34,1.23,-1.23,-1.19,-1.07,-4.56,-4.57,-4.56
233.57,-3.36,1.23,-3.37,1.22,-1.22,-1.21,-1.09,-4.58,-4.59,-4.59
235.90,-3.41,1.20,-3.40,1.20,-1.20,-1.22,-1.11,-4.61,-4.60,-4.61
238.26,-3.43,1.19,-3.43,1.18,-1.18,-1.23,-1.13,-4.61,-4.62,-4.62
240.64,-3.47,1.16,-3.46,1.16,-1.16,-1.24,-1.15,-4.63,-4.63,-4.63
243.05,-3.50,1.13,-3.49,1.14,-1.14,-1.25,-1.16,-4.64,-4.63,-4.63
245.48,-3.53,1.11,-3.52,1.12,-1.12,-1.25,-1.18,-4.65,-4.64,-4.64
247.93,-3.56,1.08,-3.54,1.10,-1.10,-1.25,-1.19,-4.66,-4.64,-4.64
250.41,-3.58,1.07,-3.55,1.09,-1.09,-1.25,-1.20,-4.67,-4.64,-4.65
252.92,-3.59,1.05,-3.57,1.07,-1.07,-1.24,-1.20,-4.66,-4.64,-4.64
255.45,-3.60,1.03,-3.58,1.06,-1.06,-1.23,-1.21,-4.66,-4.63,-4.63
258.00,-3.59,1.04,-3.58,1.04,-1.04,-1.21,-1.21,-4.63,-4.63,-4.63
260.58,-3.58,1.04,-3.59,1.03,-1.03,-1.20,-1.21,-4.61,-4.62,-4.62
263.19,-3.58,1.03,-3.59,1.02,-1.02,-1.18,-1.21,-4.60,-4.61,-4.61
265.82,-3.57,1.04,-3.59,1.02,-1.02,-1.16,-1.21,-4.59,-4.60,-4.61
268.48,-3.57,1.02,-3.58,1.01,-1.01,-1.14,-1.20,-4.58,-4.59,-4.59
271.16,-3.57,1.00,-3.58,1.00,-1.00,-1.12,-1.20,-4.57,-4.58,-4.57
273.87,-3.57,1.00,-3.58,0.99,-0.99,-1.09,-1.19,-4.56,-4.57,-4.57
276.61,-3.57,0.98,-3.57,0.98,-0.98,-1.07,-1.18,-4.55,-4.56,-4.55
279.38,-3.57,0.97,-3.57,0.97,-0.97,-1.05,-1.17,-4.54,-4.54,-4.54
282.17,-3.57,0.96,-3.57,0.96,-0.96,-1.02,-1.16,-4.53,-4.53,-4.53
284.99,-3.57,0.95,-3.57,0.95,-0.95,-1.00,-1.15,-4.52,-4.52,-4.52
287.84,-3.57,0.94,-3.57,0.94,-0.94,-0.97,-1.13,-4.51,-4.51,-4.51
290.72,-3.57,0.93,-3.57,0.92,-0.92,-0.95,-1.12,-4.49,-4.49,-4.50
293.63,-3.57,0.91,-3.57,0.91,-0.91,-0.93,-1.10,-4.48,-4.48,-4.48
296.57,-3.57,0.90,-3.57,0.90,-0.90,-0.91,-1.09,-4.47,-4.47,-4.47
299.53,-3.57,0.89,-3.57,0.89,-0.89,-0.88,-1.07,-4.46,-4.46,-4.46
302.53,-3.57,0.89,-3.57,0.88,-0.88,-0.86,-1.06,-4.45,-4.45,-4.46
305.55,-3.57,0.86,-3.57,0.87,-0.87,-0.84,-1.04,-4.44,-4.44,-4.43
308.61,-3.57,0.86,-3.57,0.86,-0.86,-0.83,-1.03,-4.43,-4.43,-4.43
311.69,-3.57,0.85,-3.57,0.85,-0.85,-0.81,-1.01,-4.42,-4.42,-4.42
314.81,-3.57,0.82,-3.57,0.84,-0.84,-0.79,-1.00,-4.41,-4.41,-4.39
317.96,-3.57,0.83,-3.57,0.83,-0.83,-0.78,-0.98,-4.40,-4.40,-4.40
321.14,-3.57,0.82,-3.57,0.82,-0.82,-0.76,-0.97,-4.39,-4.39,-4.39
324.35,-3.57,0.82,-3.57,0.82,-0.82,-0.75,-0.95,-4.39,-4.39,-4.39
327.59,-3.57,0.81,-3.57,0.81,-0.81,-0.73,-0.94,-4.38,-4.38,-4.38
330.87,-3.57,0.81,-3.57,0.81,-0.81,-0.72,-0.93,-4.38,-4.38,-4.38
334.18,-3.57,0.81,-3.57,0.81,-0.81,-0.71,-0.91,-4.38,-4.38,-4.38
337.52,-3.57,0.81,-3.57,0.81,-0.81,-0.70,-0.90,-4.38,-4.38,-4.38
340.90,-3.57,0.80,-3.57,0.81,-0.81,-0.69,-0.89,-4.38,-4.38,-4.37
344.30,-3.57,0.80,-3.57,0.81,-0.81,-0.69,-0.88,-4.38,-4.38,-4.37
347.75,-3.57,0.81,-3.57,0.81,-0.81,-0.68,-0.87,-4.38,-4.38,-4.38
351.23,-3.57,0.81,-3.57,0.81,-0.81,-0.67,-0.86,-4.38,-4.38,-4.38
354.74,-3.57,0.81,-3.57,0.81,-0.81,-0.67,-0.85,-4.38,-4.38,-4.38
358.28,-3.57,0.82,-3.57,0.82,-0.82,-0.66,-0.84,-4.39,-4.39,-4.39
361.87,-3.57,0.83,-3.57,0.82,-0.82,-0.66,-0.83,-4.39,-4.39,-4.40
365.49,-3.57,0.83,-3.57,0.83,-0.83,-0.66,-0.82,-4.40,-4.40,-4.40
369.14,-3.57,0.84,-3.57,0.84,-0.84,-0.65,-0.82,-4.41,-4.41,-4.41
372.83,-3.57,0.84,-3.57,0.84,-0.84,-0.65,-0.81,-4.41,-4.41,-4.41
376.56,-3.57,0.85,-3.57,0.85,-0.85,-0.65,-0.80,-4.42,-4.42,-4.42
380.33,-3.57,0.86,-3.57,0.86,-0.86,-0.65,-0.80,-4.43,-4.43,-4.43
384.13,-3.57,0.87,-3.57,0.87,-0.87,-0.65,-0.80,-4.44,-4.44,-4.44
387.97,-3.57,0.88,-3.57,0.88,-0.88,-0.66,-0.79,-4.45,-4.45,-4.45
391.85,-3.57,0.89,-3.57,0.88,-0.88,-0.66,-0.79,-4.45,-4.45,-4.46
395.77,-3.57,0.88,-3.57,0.89,-0.89,-0.66,-0.79,-4.46,-4.46,-4.45
399.73,-3.57,0.89,-3.57,0.90,-0.90,-0.67,-0.79,-4.47,-4.47,-4.46
403.72,-3.57,0.91,-3.57,0.90,-0.90,-0.67,-0.79,-4.47,-4.47,-4.48
407.76,-3.57,0.92,-3.57,0.91,-0.91,-0.68,-0.79,-4.48,-4.48,-4.49
411.84,-3.57,0.91,-3.57,0.92,-0.92,-0.68,-0.79,-4.49,-4.48,-4.48
415.96,-3.57,0.92,-3.57,0.92,-0.92,-0.69,-0.79,-4.49,-4.49,-4.49
420.12,-3.57,0.92,-3.57,0.93,-0.93,-0.70,-0.79,-4.50,-4.49,-4.49
424.32,-3.57,0.92,-3.57,0.93,-0.93,-0.70,-0.79,-4.50,-4.50,-4.49
428.56,-3.57,0.93,-3.57,0.93,-0.93,-0.71,-0.80,-4.50,-4.50,-4.50
432.85,-3.57,0.94,-3.57,0.93,-0.93,-0.72,-0.80,-4.50,-4.50,-4.51
437.18,-3.57,0.94,-3.58,0.92,-0.92,-0.73,-0.81,-4.49,-4.50,-4.51
441.55,-3.57,0.93,-3.58,0.92,-0.92,-0.74,-0.81,-4.49,-4.50,-4.50
445.96,-3.57,0.93,-3.58,0.92,-0.92,-0.75,-0.82,-4.49,-4.50,-4.50
450.42,-3.57,0.94,-3.59,0.91,-0.91,-0.77,-0.83,-4.48,-4.50,-4.51
454.93,-3.58,0.92,-3.59,0.91,-0.91,-0.78,-0.84,-4.49,-4.50,-4.50
459.48,-3.59,0.91,-3.59,0.91,-0.91,-0.79,-0.85,-4.50,-4.50,-4.50
464.07,-3.60,0.89,-3.58,0.91,-0.91,-0.81,-0.86,-4.51,-4.49,-4.49
468.71,-3.60,0.88,-3.58,0.91,-0.91,-0.82,-0.87,-4.51,-4.49,-4.48
