frequency,raw,error,smoothed,error_smoothed,equalization,parametric_eq,fixed_band_eq,equalized_raw,equalized_smoothed,target
20.00,-7.81,-8.39,-7.81,-8.41,8.41,8.08,2.94,0.60,0.60,0.58
20.20,-7.73,-8.35,-7.73,-8.37,8.37,8.07,3.02,0.64,0.63,0.62
20.40,-7.66,-8.32,-7.66,-8.32,8.32,8.04,3.10,0.66,0.66,0.66
20.61,-7.58,-8.27,-7.58,-8.27,8.27,8.02,3.19,0.69,0.69,0.69
20.81,-7.51,-8.24,-7.51,-8.23,8.23,8.00,3.28,0.72,0.72,0.73
21.02,-7.43,-8.20,-7.43,-8.18,8.18,7.97,3.37,0.75,0.75,0.77
21.23,-7.36,-8.15,-7.35,-8.12,8.12,7.94,3.46,0.76,0.77,0.79
21.44,-7.28,-8.09,-7.28,-8.07,8.07,7.91,3.56,0.79,0.79,0.81
21.66,-7.20,-8.03,-7.20,-8.02,8.02,7.88,3.66,0.81,0.81,0.83
21.87,-7.12,-7.96,-7.13,-7.96,7.96,7.84,3.76,0.84,0.83,0.84
22.09,-7.05,-7.91,-7.05,-7.90,7.90,7.81,3.87,0.85,0.85,0.86
22.31,-6.97,-7.84,-6.97,-7.84,7.84,7.77,3.98,0.87,0.87,0.87
22.54,-6.90,-7.78,-6.90,-7.78,7.78,7.73,4.09,0.88,0.88,0.88
22.76,-6.82,-7.71,-6.82,-7.71,7.71,7.69,4.20,0.89,0.89,0.89
22.99,-6.74,-7.63,-6.74,-7.64,7.64,7.64,4.32,0.90,0.90,0.89
23.22,-6.67,-7.57,-6.67,-7.58,7.58,7.60,4.44,0.91,0.91,0.90
23.45,-6.59,-7.50,-6.59,-7.51,7.51,7.56,4.56,0.92,0.92,0.91
23.69,-6.52,-7.44,-6.51,-7.44,7.44,7.51,4.68,0.92,0.93,0.92
23.92,-6.44,-7.37,-6.44,-7.37,7.37,7.46,4.81,0.93,0.94,0.93
24.16,-6.37,-7.32,-6.36,-7.31,7.31,7.41,4.94,0.94,0.94,0.95
24.40,-6.29,-7.26,-6.29,-7.24,7.24,7.36,5.07,0.95,0.95,0.97
24.65,-6.21,-7.17,-6.21,-7.17,7.17,7.31,5.20,0.96,0.96,0.96
24.89,-6.13,-7.10,-6.14,-7.11,7.11,7.26,5.34,0.98,0.97,0.97
25.14,-6.06,-7.04,-6.06,-7.04,7.04,7.21,5.47,0.98,0.98,0.98
25.39,-5.98,-6.97,-5.99,-6.98,6.98,7.15,5.61,1.00,0.99,0.99
25.65,-5.91,-6.92,-5.91,-6.91,6.91,7.10,5.75,1.00,1.00,1.01
25.91,-5.84,-6.85,-5.84,-6.85,6.85,7.04,5.88,1.01,1.01,1.01
26.16,-5.76,-6.78,-5.76,-6.79,6.79,6.98,6.02,1.03,1.02,1.02
26.43,-5.69,-6.72,-5.69,-6.72,6.72,6.93,6.16,1.03,1.03,1.03
26.69,-5.62,-6.66,-5.61,-6.66,6.66,6.87,6.29,1.04,1.04,1.04
26.96,-5.54,-6.60,-5.54,-6.59,6.59,6.81,6.42,1.05,1.05,1.06
27.23,-5.47,-6.54,-5.47,-6.53,6.53,6.75,6.55,1.06,1.06,1.07
27.50,-5.39,-6.46,-5.39,-6.46,6.46,6.69,6.68,1.07,1.07,1.07
27.77,-5.32,-6.39,-5.32,-6.40,6.40,6.63,6.80,1.08,1.08,1.07
28.05,-5.25,-6.34,-5.25,-6.33,6.33,6.57,6.92,1.08,1.09,1.09
28.33,-5.18,-6.27,-5.18,-6.27,6.27,6.51,7.03,1.09,1.09,1.09
28.62,-5.11,-6.21,-5.10,-6.21,6.21,6.44,7.13,1.09,1.10,1.10
28.90,-5.03,-6.14,-5.03,-6.14,6.14,6.38,7.22,1.11,1.11,1.11
29.19,-4.96,-6.07,-4.96,-6.08,6.08,6.32,7.31,1.12,1.12,1.11
29.48,-4.89,-6.03,-4.89,-6.02,6.02,6.26,7.38,1.13,1.12,1.14
29.78,-4.82,-5.95,-4.82,-5.96,5.96,6.19,7.45,1.13,1.13,1.13
30.08,-4.75,-5.89,-4.76,-5.89,5.89,6.13,7.50,1.14,1.14,1.14
30.38,-4.69,-5.83,-4.69,-5.83,5.83,6.07,7.54,1.14,1.14,1.14
30.68,-4.63,-5.79,-4.63,-5.78,5.78,6.00,7.57,1.15,1.15,1.16
30.99,-4.56,-5.72,-4.56,-5.72,5.72,5.94,7.59,1.16,1.16,1.16
31.30,-4.50,-5.66,-4.50,-5.67,5.67,5.88,7.59,1.17,1.17,1.16
31.61,-4.44,-5.61,-4.44,-5.61,5.61,5.81,7.58,1.17,1.17,1.17
31.93,-4.38,-5.56,-4.38,-5.56,5.56,5.75,7.56,1.18,1.18,1.18
32.24,-4.32,-5.50,-4.32,-5.51,5.51,5.68,7.53,1.19,1.19,1.18
32.57,-4.26,-5.46,-4.27,-5.46,5.46,5.62,7.48,1.20,1.20,1.20
32.89,-4.20,-5.40,-4.21,-5.41,5.41,5.56,7.42,1.21,1.20,1.20
33.22,-4.15,-5.36,-4.15,-5.36,5.36,5.49,7.35,1.21,1.21,1.21
33.55,-4.10,-5.32,-4.09,-5.31,5.31,5.43,7.28,1.21,1.22,1.22
33.89,-4.05,-5.28,-4.04,-5.26,5.26,5.37,7.19,1.21,1.22,1.23
34.23,-3.99,-5.22,-3.98,-5.21,5.21,5.30,7.09,1.22,1.23,1.23
34.57,-3.93,-5.17,-3.92,-5.16,5.16,5.24,6.99,1.23,1.24,1.24
34.92,-3.87,-5.11,-3.87,-5.11,5.11,5.18,6.88,1.24,1.24,1.24
35.27,-3.81,-5.06,-3.81,-5.06,5.06,5.12,6.77,1.25,1.25,1.25
35.62,-3.75,-5.00,-3.75,-5.00,5.00,5.05,6.65,1.25,1.25,1.25
35.97,-3.69,-4.94,-3.70,-4.95,4.95,4.99,6.53,1.26,1.25,1.25
36.33,-3.64,-4.90,-3.64,-4.89,4.89,4.93,6.40,1.25,1.25,1.26
36.70,-3.58,-4.83,-3.58,-4.84,4.84,4.87,6.28,1.26,1.26,1.25
37.06,-3.53,-4.79,-3.53,-4.78,4.78,4.81,6.15,1.25,1.26,1.26
37.43,-3.47,-4.73,-3.47,-4.73,4.73,4.75,6.02,1.26,1.26,1.26
37.81,-3.42,-4.68,-3.42,-4.67,4.67,4.68,5.89,1.25,1.25,1.26
38.19,-3.36,-4.62,-3.36,-4.62,4.62,4.62,5.76,1.26,1.25,1.26
38.57,-3.31,-4.56,-3.31,-4.56,4.56,4.56,5.63,1.25,1.25,1.25
38.95,-3.26,-4.51,-3.26,-4.51,4.51,4.51,5.51,1.25,1.25,1.25
39.34,-3.21,-4.45,-3.21,-4.46,4.46,4.45,5.38,1.25,1.25,1.24
39.74,-3.16,-4.40,-3.17,-4.41,4.41,4.39,5.26,1.25,1.24,1.24
40.14,-3.12,-4.36,-3.12,-4.36,4.36,4.33,5.14,1.24,1.24,1.24
40.54,-3.08,-4.32,-3.07,-4.31,4.31,4.27,5.02,1.23,1.24,1.24
40.94,-3.04,-4.27,-3.03,-4.27,4.27,4.21,4.90,1.23,1.24,1.23
41.35,-2.99,-4.22,-2.99,-4.22,4.22,4.16,4.79,1.23,1.23,1.23
41.76,-2.95,-4.18,-2.95,-4.18,4.18,4.10,4.68,1.23,1.23,1.23
42.18,-2.90,-4.13,-2.91,-4.14,4.14,4.04,4.57,1.24,1.23,1.23
42.60,-2.87,-4.10,-2.87,-4.10,4.10,3.99,4.46,1.23,1.22,1.23
43.03,-2.83,-4.06,-2.84,-4.06,4.06,3.93,4.36,1.23,1.22,1.23
43.46,-2.79,-4.02,-2.80,-4.02,4.02,3.88,4.26,1.23,1.22,1.23
43.90,-2.76,-3.97,-2.76,-3.98,3.98,3.82,4.17,1.22,1.22,1.21
44.33,-2.73,-3.94,-2.73,-3.94,3.94,3.77,4.07,1.21,1.21,1.21
44.78,-2.70,-3.90,-2.70,-3.91,3.91,3.71,3.98,1.21,1.21,1.20
45.23,-2.67,-3.87,-2.66,-3.87,3.87,3.66,3.90,1.20,1.21,1.20
45.68,-2.64,-3.84,-2.63,-3.83,3.83,3.61,3.81,1.19,1.20,1.20
46.13,-2.61,-3.80,-2.60,-3.80,3.80,3.56,3.73,1.19,1.20,1.19
46.60,-2.57,-3.77,-2.57,-3.76,3.76,3.50,3.65,1.19,1.19,1.20
47.06,-2.54,-3.73,-2.54,-3.72,3.72,3.45,3.58,1.18,1.19,1.19
47.53,-2.50,-3.68,-2.51,-3.68,3.68,3.40,3.51,1.18,1.18,1.18
48.01,-2.47,-3.66,-2.48,-3.64,3.64,3.35,3.44,1.17,1.17,1.19
48.49,-2.44,-3.61,-2.45,-3.61,3.61,3.30,3.37,1.17,1.16,1.17
48.97,-2.41,-3.56,-2.42,-3.57,3.57,3.25,3.30,1.16,1.15,1.15
49.46,-2.38,-3.52,-2.39,-3.53,3.53,3.20,3.24,1.15,1.14,1.14
49.96,-2.35,-3.47,-2.36,-3.49,3.49,3.16,3.18,1.14,1.13,1.12
50.46,-2.33,-3.45,-2.33,-3.45,3.45,3.11,3.13,1.12,1.11,1.12
50.96,-2.31,-3.41,-2.30,-3.40,3.40,3.06,3.07,1.09,1.10,1.10
51.47,-2.28,-3.35,-2.28,-3.36,3.36,3.01,3.02,1.08,1.08,1.07
51.99,-2.25,-3.31,-2.25,-3.31,3.31,2.97,2.97,1.06,1.07,1.06
52.51,-2.22,-3.27,-2.22,-3.27,3.27,2.92,2.92,1.05,1.05,1.05
53.03,-2.20,-3.23,-2.19,-3.22,3.22,2.88,2.87,1.02,1.03,1.03
53.56,-2.17,-3.19,-2.16,-3.17,3.17,2.83,2.82,1.00,1.01,1.02
54.10,-2.13,-3.12,-2.12,-3.11,3.11,2.79,2.78,0.98,0.99,0.99
54.64,-2.10,-3.08,-2.09,-3.06,3.06,2.74,2.73,0.96,0.97,0.98
55.18,-2.06,-3.01,-2.06,-3.01,3.01,2.70,2.69,0.95,0.95,0.95
55.74,-2.02,-2.94,-2.02,-2.96,2.96,2.66,2.65,0.94,0.93,0.92
56.29,-1.98,-2.90,-1.99,-2.90,2.90,2.61,2.61,0.92,0.91,0.92
56.86,-1.95,-2.84,-1.95,-2.84,2.84,2.57,2.57,0.89,0.89,0.89
57.42,-1.91,-2.77,-1.92,-2.79,2.79,2.53,2.53,0.88,0.87,0.86
58.00,-1.88,-2.72,-1.89,-2.73,2.73,2.49,2.49,0.85,0.85,0.84
58.58,-1.85,-2.67,-1.85,-2.68,2.68,2.45,2.46,0.83,0.82,0.82
59.16,-1.82,-2.62,-1.83,-2.62,2.62,2.41,2.42,0.80,0.79,0.80
59.76,-1.80,-2.58,-1.80,-2.56,2.56,2.37,2.38,0.76,0.76,0.78
60.35,-1.78,-2.53,-1.77,-2.51,2.51,2.33,2.35,0.73,0.74,0.75
60.96,-1.75,-2.47,-1.75,-2.46,2.46,2.29,2.31,0.71,0.70,0.72
61.57,-1.73,-2.40,-1.73,-2.40,2.40,2.25,2.27,0.67,0.67,0.67
62.18,-1.70,-2.33,-1.71,-2.35,2.35,2.21,2.24,0.65,0.64,0.63
62.80,-1.69,-2.30,-1.69,-2.30,2.30,2.17,2.20,0.61,0.60,0.61
63.43,-1.68,-2.24,-1.68,-2.24,2.24,2.14,2.16,0.56,0.57,0.56
64.07,-1.67,-2.19,-1.66,-2.19,2.19,2.10,2.13,0.52,0.53,0.52
64.71,-1.66,-2.15,-1.65,-2.14,2.14,2.06,2.09,0.48,0.49,0.49
65.35,-1.64,-2.09,-1.64,-2.09,2.09,2.03,2.05,0.45,0.45,0.45
66.01,-1.63,-2.04,-1.63,-2.04,2.04,1.99,2.01,0.41,0.41,0.41
66.67,-1.62,-2.00,-1.62,-2.00,2.00,1.96,1.98,0.38,0.37,0.38
67.33,-1.61,-1.95,-1.62,-1.95,1.95,1.92,1.94,0.34,0.33,0.34
68.01,-1.60,-1.90,-1.61,-1.91,1.91,1.89,1.90,0.31,0.30,0.30
68.69,-1.60,-1.86,-1.61,-1.87,1.87,1.86,1.86,0.27,0.26,0.26
69.37,-1.60,-1.82,-1.61,-1.83,1.83,1.82,1.82,0.23,0.22,0.22
70.07,-1.61,-1.79,-1.61,-1.79,1.79,1.79,1.79,0.18,0.18,0.18
70.77,-1.62,-1.76,-1.61,-1.76,1.76,1.76,1.75,0.14,0.14,0.14
71.48,-1.62,-1.73,-1.61,-1.72,1.72,1.73,1.71,0.10,0.10,0.11
72.19,-1.63,-1.69,-1.62,-1.68,1.68,1.69,1.67,0.05,0.07,0.06
72.91,-1.63,-1.66,-1.62,-1.65,1.65,1.66,1.64,0.02,0.03,0.03
73.64,-1.63,-1.62,-1.62,-1.62,1.62,1.63,1.60,-0.01,-0.01,-0.01
74.38,-1.63,-1.59,-1.63,-1.58,1.58,1.60,1.56,-0.05,-0.04,-0.04
75.12,-1.63,-1.55,-1.63,-1.55,1.55,1.57,1.53,-0.08,-0.08,-0.08
75.87,-1.63,-1.52,-1.63,-1.52,1.52,1.54,1.49,-0.11,-0.11,-0.11
76.63,-1.63,-1.49,-1.63,-1.49,1.49,1.51,1.46,-0.14,-0.14,-0.14
77.40,-1.63,-1.46,-1.63,-1.46,1.46,1.48,1.42,-0.17,-0.17,-0.17
78.17,-1.63,-1.43,-1.63,-1.43,1.43,1.45,1.39,-0.20,-0.20,-0.20
78.95,-1.63,-1.40,-1.63,-1.40,1.40,1.43,1.36,-0.23,-0.23,-0.23
79.74,-1.63,-1.38,-1.63,-1.38,1.38,1.40,1.32,-0.25,-0.25,-0.25
80.54,-1.63,-1.36,-1.63,-1.35,1.35,1.37,1.29,-0.28,-0.28,-0.27
81.35,-1.63,-1.33,-1.63,-1.33,1.33,1.34,1.26,-0.30,-0.30,-0.30
82.16,-1.63,-1.30,-1.63,-1.31,1.31,1.32,1.23,-0.32,-0.32,-0.33
82.98,-1.63,-1.29,-1.63,-1.28,1.28,1.29,1.20,-0.35,-0.35,-0.34
83.81,-1.63,-1.26,-1.63,-1.26,1.26,1.26,1.17,-0.37,-0.37,-0.37
84.65,-1.63,-1.23,-1.63,-1.24,1.24,1.24,1.14,-0.39,-0.39,-0.40
85.50,-1.63,-1.22,-1.63,-1.22,1.22,1.21,1.12,-0.41,-0.41,-0.41
86.35,-1.63,-1.20,-1.63,-1.20,1.20,1.19,1.09,-0.43,-0.43,-0.43
87.22,-1.63,-1.18,-1.63,-1.18,1.18,1.16,1.06,-0.45,-0.45,-0.45
88.09,-1.63,-1.16,-1.62,-1.16,1.16,1.14,1.04,-0.47,-0.47,-0.47
88.97,-1.63,-1.14,-1.62,-1.13,1.13,1.11,1.01,-0.50,-0.49,-0.49
89.86,-1.63,-1.13,-1.62,-1.11,1.11,1.09,0.99,-0.52,-0.51,-0.50
90.76,-1.63,-1.10,-1.61,-1.09,1.09,1.06,0.97,-0.54,-0.53,-0.53
91.66,-1.62,-1.07,-1.61,-1.07,1.07,1.04,0.94,-0.55,-0.54,-0.55
92.58,-1.61,-1.04,-1.61,-1.05,1.05,1.02,0.92,-0.56,-0.57,-0.57
93.51,-1.61,-1.03,-1.61,-1.03,1.03,0.99,0.90,-0.58,-0.59,-0.58
94.44,-1.61,-1.01,-1.62,-1.01,1.01,0.97,0.88,-0.60,-0.61,-0.60
95.39,-1.60,-0.98,-1.62,-0.99,0.99,0.95,0.86,-0.61,-0.63,-0.62
96.34,-1.61,-0.96,-1.63,-0.98,0.98,0.92,0.84,-0.63,-0.65,-0.65
97.30,-1.63,-0.95,-1.64,-0.97,0.97,0.90,0.82,-0.66,-0.68,-0.68
98.28,-1.65,-0.94,-1.66,-0.96,0.96,0.88,0.80,-0.69,-0.70,-0.71
99.26,-1.67,-0.94,-1.68,-0.95,0.95,0.86,0.79,-0.72,-0.73,-0.73
100.25,-1.70,-0.94,-1.70,-0.94,0.94,0.84,0.77,-0.76,-0.76,-0.76
101.25,-1.73,-0.94,-1.73,-0.94,0.94,0.81,0.75,-0.79,-0.79,-0.79
102.27,-1.76,-0.93,-1.76,-0.93,0.93,0.79,0.73,-0.83,-0.82,-0.83
103.29,-1.78,-0.92,-1.78,-0.92,0.92,0.77,0.72,-0.86,-0.86,-0.86
104.32,-1.80,-0.91,-1.81,-0.91,0.91,0.75,0.70,-0.89,-0.90,-0.89
105.37,-1.84,-0.91,-1.83,-0.90,0.90,0.73,0.69,-0.94,-0.94,-0.93
106.42,-1.87,-0.89,-1.86,-0.88,0.88,0.71,0.67,-0.99,-0.98,-0.98
107.48,-1.90,-0.89,-1.88,-0.85,0.85,0.69,0.66,-1.05,-1.02,-1.01
108.56,-1.93,-0.86,-1.90,-0.82,0.82,0.67,0.64,-1.11,-1.07,-1.07
109.64,-1.94,-0.82,-1.91,-0.79,0.79,0.65,0.63,-1.15,-1.12,-1.12
110.74,-1.95,-0.78,-1.93,-0.76,0.76,0.63,0.61,-1.19,-1.18,-1.17
111.85,-1.95,-0.73,-1.95,-0.72,0.72,0.61,0.60,-1.23,-1.23,-1.22
112.97,-1.96,-0.67,-1.97,-0.68,0.68,0.59,0.58,-1.28,-1.29,-1.29
114.10,-1.96,-0.62,-1.99,-0.64,0.64,0.57,0.57,-1.32,-1.35,-1.34
115.24,-1.98,-0.58,-2.01,-0.60,0.60,0.55,0.55,-1.38,-1.40,-1.40
116.39,-1.99,-0.52,-2.03,-0.56,0.56,0.53,0.54,-1.43,-1.46,-1.47
117.55,-2.02,-0.49,-2.05,-0.52,0.52,0.51,0.52,-1.50,-1.52,-1.53
118.73,-2.06,-0.47,-2.07,-0.49,0.49,0.49,0.51,-1.57,-1.58,-1.59
119.92,-2.10,-0.46,-2.09,-0.45,0.45,0.47,0.49,-1.65,-1.64,-1.64
121.12,-2.14,-0.44,-2.12,-0.42,0.42,0.45,0.48,-1.72,-1.69,-1.70
122.33,-2.16,-0.41,-2.14,-0.39,0.39,0.43,0.46,-1.77,-1.75,-1.75
123.55,-2.18,-0.38,-2.17,-0.36,0.36,0.41,0.44,-1.82,-1.80,-1.80
124.79,-2.21,-0.36,-2.20,-0.34,0.34,0.39,0.43,-1.87,-1.85,-1.85
126.03,-2.23,-0.33,-2.22,-0.32,0.32,0.37,0.41,-1.91,-1.90,-1.90
127.29,-2.24,-0.29,-2.25,-0.29,0.29,0.35,0.39,-1.95,-1.95,-1.95
128.57,-2.27,-0.26,-2.28,-0.27,0.27,0.33,0.38,-2.00,-2.00,-2.01
129.85,-2.30,-0.25,-2.30,-0.25,0.25,0.31,0.36,-2.05,-2.05,-2.05
131.15,-2.33,-0.23,-2.33,-0.23,0.23,0.29,0.34,-2.10,-2.09,-2.10
132.46,-2.34,-0.20,-2.35,-0.21,0.21,0.27,0.32,-2.13,-2.14,-2.14
133.79,-2.36,-0.18,-2.38,-0.19,0.19,0.25,0.30,-2.17,-2.18,-2.18
135.12,-2.39,-0.17,-2.40,-0.18,0.18,0.23,0.28,-2.21,-2.22,-2.22
136.48,-2.42,-0.16,-2.43,-0.17,0.17,0.20,0.26,-2.25,-2.26,-2.26
137.84,-2.46,-0.16,-2.45,-0.15,0.15,0.18,0.24,-2.31,-2.30,-2.30
139.22,-2.48,-0.13,-2.48,-0.14,0.14,0.16,0.22,-2.34,-2.34,-2.35
140.61,-2.51,-0.12,-2.50,-0.12,0.12,0.14,0.20,-2.39,-2.38,-2.39
142.02,-2.55,-0.14,-2.52,-0.11,0.11,0.12,0.18,-2.44,-2.42,-2.41
143.44,-2.56,-0.11,-2.55,-0.09,0.09,0.10,0.16,-2.47,-2.45,-2.45
144.87,-2.58,-0.09,-2.57,-0.08,0.08,0.08,0.14,-2.50,-2.49,-2.49
146.32,-2.59,-0.06,-2.59,-0.06,0.06,0.05,0.12,-2.53,-2.53,-2.53
147.78,-2.62,-0.06,-2.62,-0.05,0.05,0.03,0.10,-2.57,-2.57,-2.56
149.26,-2.63,-0.04,-2.64,-0.03,0.03,0.01,0.07,-2.60,-2.61,-2.59
150.75,-2.65,0.00,-2.66,-0.02,0.02,-0.01,0.05,-2.63,-2.65,-2.65
152.26,-2.66,0.03,-2.69,0.00,-0.00,-0.04,0.03,-2.66,-2.69,-2.69
153.78,-2.69,0.03,-2.71,0.02,-0.02,-0.06,0.01,-2.71,-2.73,-2.72
155.32,-2.72,0.06,-2.74,0.03,-0.03,-0.09,-0.02,-2.75,-2.77,-2.78
156.88,-2.77,0.04,-2.77,0.05,-0.05,-0.11,-0.04,-2.82,-2.82,-2.81
158.44,-2.79,0.07,-2.80,0.06,-0.06,-0.14,-0.07,-2.85,-2.86,-2.86
160.03,-2.83,0.08,-2.82,0.08,-0.08,-0.16,-0.09,-2.91,-2.90,-2.91
161.63,-2.85,0.11,-2.85,0.10,-0.10,-0.19,-0.11,-2.95,-2.95,-2.96
163.24,-2.88,0.12,-2.87,0.13,-0.13,-0.21,-0.14,-3.01,-3.00,-3.00
164.88,-2.91,0.13,-2.88,0.16,-0.16,-0.24,-0.16,-3.07,-3.04,-3.04
166.53,-2.93,0.16,-2.89,0.20,-0.20,-0.27,-0.19,-3.13,-3.09,-3.09
168.19,-2.94,0.20,-2.90,0.24,-0.24,-0.30,-0.21,-3.18,-3.14,-3.14
169.87,-2.94,0.25,-2.91,0.28,-0.28,-0.32,-0.24,-3.22,-3.19,-3.19
171.57,-2.93,0.30,-2.92,0.32,-0.32,-0.35,-0.27,-3.25,-3.24,-3.23
173.29,-2.92,0.37,-2.92,0.37,-0.37,-0.38,-0.29,-3.29,-3.29,-3.29
175.02,-2.90,0.44,-2.93,0.42,-0.42,-0.41,-0.32,-3.32,-3.35,-3.34
176.77,-2.90,0.50,-2.93,0.47,-0.47,-0.44,-0.34,-3.37,-3.40,-3.40
178.54,-2.91,0.54,-2.94,0.51,-0.51,-0.47,-0.37,-3.42,-3.45,-3.45
180.32,-2.92,0.59,-2.95,0.55,-0.55,-0.50,-0.40,-3.47,-3.51,-3.51
182.13,-2.94,0.62,-2.97,0.60,-0.60,-0.54,-0.43,-3.54,-3.56,-3.56
183.95,-2.98,0.64,-2.98,0.64,-0.64,-0.57,-0.46,-3.61,-3.62,-3.62
185.79,-3.01,0.66,-3.01,0.67,-0.67,-0.60,-0.48,-3.68,-3.68,-3.67
187.65,-3.03,0.71,-3.03,0.70,-0.70,-0.63,-0.51,-3.73,-3.73,-3.74
189.52,-3.06,0.73,-3.07,0.72,-0.72,-0.67,-0.54,-3.78,-3.79,-3.79
191.42,-3.10,0.74,-3.10,0.74,-0.74,-0.70,-0.57,-3.84,-3.84,-3.84
193.33,-3.13,0.76,-3.13,0.76,-0.76,-0.73,-0.60,-3.89,-3.89,-3.89
195.27,-3.16,0.78,-3.16,0.79,-0.79,-0.76,-0.63,-3.95,-3.94,-3.94
197.22,-3.19,0.81,-3.18,0.81,-0.81,-0.80,-0.66,-4.00,-4.00,-4.00
199.19,-3.22,0.83,-3.20,0.84,-0.84,-0.83,-0.69,-4.06,-4.04,-4.05
201.18,-3.24,0.86,-3.22,0.87,-0.87,-0.86,-0.72,-4.11,-4.09,-4.10
203.19,-3.26,0.87,-3.23,0.91,-0.91,-0.89,-0.75,-4.17,-4.14,-4.13
205.23,-3.27,0.92,-3.24,0.95,-0.95,-0.92,-0.78,-4.22,-4.19,-4.19
207.28,-3.27,0.94,-3.24,0.99,-0.99,-0.95,-0.81,-4.26,-4.23,-4.21
209.35,-3.26,1.01,-3.25,1.02,-1.02,-0.98,-0.84,-4.28,-4.27,-4.27
211.44,-3.25,1.07,-3.25,1.07,-1.07,-1.01,-0.86,-4.32,-4.31,-4.32
213.56,-3.24,1.12,-3.25,1.11,-1.11,-1.04,-0.89,-4.35,-4.35,-4.36
215.69,-3.23,1.15,-3.25,1.14,-1.14,-1.06,-0.92,-4.37,-4.39,-4.38
217.85,-3.22,1.20,-3.25,1.17,-1.17,-1.08,-0.95,-4.39,-4.42,-4.42
220.03,-3.23,1.23,-3.25,1.20,-1.20,-1.11,-0.97,-4.43,-4.46,-4.46
222.23,-3.24,1.25,-3.26,1.22,-1.22,-1.12,-1.00,-4.46,-4.49,-4.49
224.45,-3.25,1.26,-3.27,1.24,-1.24,-1.14,-1.02,-4.49,-4.51,-4.51
226.70,-3.28,1.26,-3.29,1.25,-1.25,-1.16,-1.05,-4.53,-4.54,-4.54
228.96,-3.31,1.26,-3.31,1.25,-1.25,-1.17,-1.07,-4.56,-4.56,-4.57
231.25,-3.33,1.25,-3.34,1.24,-1.24,-1.18,-1.09,-4.57,-4.58,-4.58
233.57,-3.36,1.24,-3.37,1.23,-1.23,-1.19,-1.11,-4.59,-4.60,-4.60
235.90,-3.41,1.20,-3.40,1.21,-1.21,-1.19,-1.12,-4.62,-4.61,-4.61
238.26,-3.43,1.19,-3.43,1.19,-1.19,-1.20,-1.14,-4.62,-4.62,-4.62
240.64,-3.47,1.16,-3.46,1.16,-1.16,-1.20,-1.15,-4.63,-4.63,-4.63
243.05,-3.50,1.13,-3.49,1.14,-1.14,-1.20,-1.17,-4.64,-4.63,-4.63
245.48,-3.53,1.11,-3.52,1.12,-1.12,-1.19,-1.18,-4.65,-4.64,-4.64
247.93,-3.56,1.08,-3.54,1.10,-1.10,-1.19,-1.19,-4.66,-4.64,-4.64
250.41,-3.58,1.06,-3.55,1.08,-1.08,-1.18,-1.19,-4.66,-4.64,-4.64
252.92,-3.59,1.04,-3.57,1.06,-1.06,-1.17,-1.20,-4.65,-4.63,-4.63
255.45,-3.60,1.02,-3.58,1.05,-1.05,-1.16,-1.20,-4.65,-4.62,-4.62
258.00,-3.59,1.02,-3.58,1.03,-1.03,-1.14,-1.20,-4.62,-4.62,-4.61
260.58,-3.58,1.03,-3.59,1.02,-1.02,-1.13,-1.20,-4.60,-4.61,-4.61
263.19,-3.58,1.02,-3.59,1.01,-1.01,-1.11,-1.20,-4.59,-4.60,-4.60
265.82,-3.57,1.02,-3.59,1.00,-1.00,-1.10,-1.19,-4.57,-4.59,-4.59
268.48,-3.57,1.00,-3.58,0.99,-0.99,-1.08,-1.19,-4.56,-4.57,-4.57
271.16,-3.57,0.98,-3.58,0.98,-0.98,-1.06,-1.18,-4.55,-4.56,-4.55
273.87,-3.57,0.98,-3.58,0.97,-0.97,-1.05,-1.17,-4.54,-4.55,-4.55
276.61,-3.57,0.95,-3.57,0.96,-0.96,-1.03,-1.16,-4.53,-4.53,-4.52
279.38,-3.57,0.95,-3.57,0.95,-0.95,-1.01,-1.15,-4.52,-4.52,-4.52
282.17,-3.57,0.93,-3.57,0.94,-0.94,-0.99,-1.14,-4.51,-4.51,-4.50
284.99,-3.57,0.92,-3.57,0.92,-0.92,-0.97,-1.12,-4.49,-4.49,-4.49
287.84,-3.57,0.91,-3.57,0.91,-0.91,-0.95,-1.11,-4.48,-4.48,-4.48
290.72,-3.57,0.90,-3.57,0.89,-0.89,-0.93,-1.10,-4.46,-4.46,-4.47
293.63,-3.57,0.88,-3.57,0.88,-0.88,-0.92,-1.08,-4.45,-4.45,-4.45
296.57,-3.57,0.86,-3.57,0.87,-0.87,-0.90,-1.07,-4.44,-4.44,-4.43
299.53,-3.57,0.86,-3.57,0.85,-0.85,-0.88,-1.05,-4.42,-4.42,-4.43
302.53,-3.57,0.85,-3.57,0.84,-0.84,-0.87,-1.03,-4.41,-4.41,-4.42
305.55,-3.57,0.83,-3.57,0.83,-0.83,-0.85,-1.02,-4.40,-4.40,-4.40
308.61,-3.57,0.82,-3.57,0.82,-0.82,-0.83,-1.00,-4.39,-4.39,-4.39
311.69,-3.57,0.81,-3.57,0.81,-0.81,-0.82,-0.99,-4.38,-4.38,-4.38
314.81,-3.57,0.78,-3.57,0.80,-0.80,-0.81,-0.97,-4.37,-4.37,-4.35
317.96,-3.57,0.79,-3.57,0.79,-0.79,-0.79,-0.96,-4.36,-4.36,-4.36
321.14,-3.57,0.78,-3.57,0.78,-0.78,-0.78,-0.94,-4.35,-4.35,-4.35
324.35,-3.57,0.78,-3.57,0.78,-0.78,-0.77,-0.93,-4.35,-4.35,-4.35
327.59,-3.57,0.77,-3.57,0.77,-0.77,-0.76,-0.91,-4.34,-4.34,-4.34
330.87,-3.57,0.77,-3.57,0.77,-0.77,-0.75,-0.90,-4.34,-4.34,-4.34
334.18,-3.57,0.77,-3.57,0.76,-0.76,-0.74,-0.88,-4.33,-4.33,-4.34
337.52,-3.57,0.76,-3.57,0.76,-0.76,-0.73,-0.87,-4.33,-4.33,-4.33
340.90,-3.57,0.76,-3.57,0.76,-0.76,-0.72,-0.86,-4.33,-4.33,-4.33
344.30,-3.57,0.76,-3.57,0.76,-0.76,-0.71,-0.85,-4.33,-4.33,-4.33
347.75,-3.57,0.76,-3.57,0.76,-0.76,-0.71,-0.83,-4.33,-4.33,-4.33
351.23,-3.57,0.76,-3.57,0.77,-0.77,-0.70,-0.82,-4.34,-4.34,-4.33
354.74,-3.57,0.76,-3.57,0.77,-0.77,-0.70,-0.81,-4.34,-4.34,-4.33
358.28,-3.57,0.78,-3.57,0.77,-0.77,-0.69,-0.80,-4.34,-4.34,-4.35
361.87,-3.57,0.78,-3.57,0.78,-0.78,-0.69,-0.79,-4.35,-4.35,-4.35
365.49,-3.57,0.78,-3.57,0.78,-0.78,-0.68,-0.79,-4.35,-4.35,-4.35
369.14,-3.57,0.79,-3.57,0.79,-0.79,-0.68,-0.78,-4.36,-4.36,-4.36
372.83,-3.57,0.79,-3.57,0.80,-0.80,-0.68,-0.77,-4.37,-4.37,-4.36
376.56,-3.57,0.80,-3.57,0.80,-0.80,-0.68,-0.76,-4.37,-4.37,-4.37
380.33,-3.57,0.81,-3.57,0.81,-0.81,-0.68,-0.76,-4.38,-4.38,-4.38
384.13,-3.57,0.82,-3.57,0.82,-0.82,-0.68,-0.75,-4.39,-4.39,-4.39
387.97,-3.57,0.83,-3.57,0.82,-0.82,-0.68,-0.75,-4.39,-4.39,-4.40
391.85,-3.57,0.84,-3.57,0.83,-0.83,-0.68,-0.75,-4.40,-4.40,-4.41
395.77,-3.57,0.83,-3.57,0.84,-0.84,-0.68,-0.74,-4.41,-4.41,-4.40
399.73,-3.57,0.84,-3.57,0.84,-0.84,-0.69,-0.74,-4.41,-4.41,-4.41
403.72,-3.57,0.85,-3.57,0.85,-0.85,-0.69,-0.74,-4.42,-4.42,-4.42
407.76,-3.57,0.86,-3.57,0.86,-0.86,-0.69,-0.74,-4.43,-4.43,-4.43
411.84,-3.57,0.85,-3.57,0.86,-0.86,-0.70,-0.74,-4.43,-4.43,-4.42
415.96,-3.57,0.87,-3.57,0.87,-0.87,-0.70,-0.74,-4.44,-4.44,-4.44
420.12,-3.57,0.87,-3.57,0.87,-0.87,-0.71,-0.74,-4.44,-4.44,-4.44
424.32,-3.57,0.87,-3.57,0.87,-0.87,-0.72,-0.74,-4.44,-4.44,-4.44
428.56,-3.57,0.88,-3.57,0.87,-0.87,-0.72,-0.74,-4.44,-4.44,-4.45
432.85,-3.57,0.88,-3.57,0.87,-0.87,-0.73,-0.75,-4.44,-4.44,-4.45
437.18,-3.57,0.88,-3.58,0.87,-0.87,-0.74,-0.75,-4.44,-4.45,-4.45
441.55,-3.57,0.87,-3.58,0.87,-0.87,-0.75,-0.75,-4.44,-4.45,-4.44
445.96,-3.57,0.87,-3.58,0.86,-0.86,-0.76,-0.76,-4.43,-4.45,-4.44
450.42,-3.57,0.88,-3.59,0.86,-0.86,-0.77,-0.77,-4.43,-4.44,-4.45
454.93,-3.58,0.86,-3.59,0.85,-0.85,-0.78,-0.78,-4.43,-4.44,-4.44
459.48,-3.59,0.85,-3.59,0.85,-0.85,-0.79,-0.78,-4.44,-4.44,-4.44
464.07,-3.60,0.83,-3.58,0.85,-0.85,-0.81,-0.79,-4.45,-4.43,-4.43
