frequency,raw,error,smoothed,error_smoothed,equalization,parametric_eq,fixed_band_eq,equalized_raw,equalized_smoothed,target
20.00,-11.92,-13.15,-11.92,-13.15,13.15,11.67,4.25,1.22,1.22,1.23
20.20,-11.76,-13.08,-11.76,-13.07,13.08,11.83,4.36,1.31,1.31,1.32
20.40,-11.60,-13.00,-11.60,-13.00,13.00,11.99,4.47,1.40,1.40,1.40
20.61,-11.45,-12.91,-11.44,-12.92,12.92,12.14,4.59,1.48,1.48,1.46
20.81,-11.28,-12.84,-11.28,-12.84,12.84,12.27,4.71,1.56,1.55,1.56
21.02,-11.12,-12.76,-11.13,-12.75,12.75,12.40,4.83,1.63,1.62,1.64
21.23,-10.97,-12.67,-10.97,-12.67,12.66,12.50,4.96,1.69,1.69,1.70
21.44,-10.81,-12.57,-10.81,-12.57,12.56,12.59,5.09,1.75,1.75,1.76
21.66,-10.65,-12.46,-10.65,-12.46,12.46,12.67,5.22,1.80,1.81,1.80
21.87,-10.49,-12.35,-10.49,-12.35,12.35,12.72,5.36,1.86,1.86,1.86
22.09,-10.33,-12.24,-10.33,-12.24,12.24,12.76,5.50,1.91,1.91,1.91
22.31,-10.17,-12.13,-10.17,-12.12,12.12,12.77,5.64,1.95,1.95,1.96
22.54,-10.01,-12.01,-10.01,-12.01,12.00,12.77,5.79,1.99,1.99,1.99
22.76,-9.85,-11.89,-9.85,-11.89,11.88,12.75,5.94,2.03,2.03,2.04
22.99,-9.69,-11.76,-9.69,-11.76,11.76,12.71,6.10,2.07,2.07,2.07
23.22,-9.53,-11.64,-9.53,-11.64,11.64,12.64,6.26,2.11,2.11,2.11
23.45,-9.37,-11.52,-9.37,-11.52,11.52,12.57,6.42,2.15,2.15,2.15
23.69,-9.21,-11.40,-9.21,-11.40,11.40,12.47,6.59,2.19,2.19,2.18
23.92,-9.05,-11.28,-9.05,-11.28,11.28,12.36,6.76,2.23,2.23,2.23
24.16,-8.89,-11.17,-8.89,-11.16,11.15,12.24,6.93,2.26,2.26,2.28
24.40,-8.73,-11.04,-8.73,-11.04,11.03,12.10,7.11,2.30,2.30,2.31
24.65,-8.58,-10.91,-8.58,-10.91,10.91,11.95,7.29,2.32,2.33,2.33
24.89,-8.42,-10.78,-8.42,-10.78,10.78,11.79,7.47,2.36,2.36,2.36
25.14,-8.26,-10.66,-8.26,-10.65,10.66,11.63,7.66,2.40,2.40,2.40
25.39,-8.10,-10.53,-8.10,-10.53,10.53,11.46,7.84,2.43,2.43,2.43
25.65,-7.95,-10.42,-7.95,-10.41,10.41,11.28,8.03,2.45,2.46,2.47
25.91,-7.80,-10.28,-7.79,-10.28,10.28,11.10,8.22,2.49,2.49,2.48
26.16,-7.63,-10.15,-7.64,-10.16,10.16,10.91,8.41,2.53,2.52,2.52
26.43,-7.48,-10.04,-7.48,-10.03,10.03,10.73,8.61,2.55,2.55,2.55
26.69,-7.32,-9.91,-7.32,-9.91,9.91,10.54,8.80,2.58,2.58,2.59
26.96,-7.16,-9.78,-7.17,-9.78,9.78,10.35,8.98,2.62,2.61,2.62
27.23,-7.01,-9.66,-7.01,-9.66,9.66,10.16,9.17,2.64,2.65,2.64
27.50,-6.86,-9.54,-6.86,-9.54,9.53,9.98,9.35,2.67,2.67,2.68
27.77,-6.71,-9.41,-6.71,-9.41,9.41,9.79,9.53,2.70,2.70,2.70
28.05,-6.56,-9.30,-6.56,-9.29,9.29,9.61,9.70,2.73,2.73,2.74
28.33,-6.41,-9.17,-6.41,-9.17,9.17,9.43,9.86,2.76,2.76,2.76
28.62,-6.26,-9.05,-6.26,-9.05,9.05,9.25,10.01,2.79,2.79,2.78
28.90,-6.11,-8.94,-6.11,-8.94,8.94,9.08,10.15,2.82,2.82,2.83
29.19,-5.97,-8.82,-5.97,-8.82,8.82,8.91,10.28,2.85,2.85,2.85
29.48,-5.82,-8.72,-5.82,-8.71,8.71,8.74,10.39,2.88,2.88,2.90
29.78,-5.68,-8.59,-5.68,-8.59,8.59,8.57,10.49,2.91,2.91,2.91
30.08,-5.54,-8.48,-5.54,-8.48,8.48,8.42,10.57,2.93,2.94,2.93
30.38,-5.40,-8.37,-5.40,-8.37,8.37,8.26,10.63,2.96,2.96,2.96
30.68,-5.26,-8.26,-5.27,-8.26,8.26,8.11,10.67,3.00,2.99,3.00
30.99,-5.13,-8.15,-5.13,-8.15,8.15,7.96,10.69,3.02,3.02,3.02
31.30,-5.00,-8.04,-5.00,-8.04,8.05,7.82,10.68,3.04,3.04,3.04
31.61,-4.87,-7.94,-4.88,-7.94,7.94,7.69,10.66,3.07,3.06,3.07
31.93,-4.75,-7.84,-4.75,-7.84,7.84,7.56,10.62,3.08,3.09,3.09
32.24,-4.63,-7.74,-4.63,-7.74,7.74,7.43,10.55,3.11,3.11,3.11
32.57,-4.50,-7.64,-4.51,-7.64,7.63,7.31,10.47,3.13,3.13,3.14
32.89,-4.38,-7.54,-4.38,-7.54,7.53,7.20,10.37,3.15,3.15,3.16
33.22,-4.26,-7.44,-4.26,-7.43,7.43,7.09,10.25,3.17,3.17,3.18
33.55,-4.13,-7.33,-4.13,-7.33,7.33,6.98,10.11,3.20,3.19,3.20
33.89,-4.01,-7.22,-4.01,-7.22,7.22,6.88,9.96,3.21,3.21,3.21
34.23,-3.89,-7.12,-3.89,-7.12,7.12,6.79,9.80,3.23,3.23,3.23
34.57,-3.78,-7.02,-3.78,-7.02,7.02,6.71,9.63,3.24,3.24,3.24
34.92,-3.67,-6.92,-3.67,-6.92,6.92,6.62,9.45,3.25,3.25,3.25
35.27,-3.56,-6.83,-3.56,-6.82,6.82,6.55,9.27,3.26,3.26,3.27
35.62,-3.45,-6.71,-3.45,-6.72,6.72,6.48,9.08,3.26,3.26,3.26
35.97,-3.35,-6.62,-3.35,-6.62,6.62,6.41,8.88,3.27,3.27,3.27
36.33,-3.24,-6.53,-3.24,-6.52,6.52,6.35,8.68,3.27,3.27,3.29
36.70,-3.14,-6.42,-3.14,-6.42,6.41,6.29,8.48,3.27,3.27,3.28
37.06,-3.03,-6.31,-3.03,-6.31,6.31,6.23,8.28,3.28,3.28,3.28
37.43,-2.93,-6.21,-2.93,-6.20,6.21,6.17,8.07,3.28,3.28,3.28
37.81,-2.82,-6.10,-2.82,-6.10,6.11,6.12,7.87,3.28,3.28,3.28
38.19,-2.72,-6.00,-2.73,-6.00,6.00,6.06,7.67,3.28,3.27,3.28
38.57,-2.63,-5.91,-2.63,-5.90,5.89,5.99,7.46,3.26,3.27,3.28
38.95,-2.53,-5.81,-2.53,-5.80,5.79,5.92,7.27,3.26,3.26,3.28
39.34,-2.42,-5.68,-2.42,-5.68,5.68,5.85,7.07,3.26,3.26,3.26
39.74,-2.31,-5.57,-2.32,-5.57,5.58,5.76,6.87,3.26,3.26,3.26
40.14,-2.21,-5.46,-2.21,-5.46,5.47,5.67,6.68,3.25,3.26,3.25
40.54,-2.11,-5.36,-2.11,-5.36,5.36,5.56,6.49,3.25,3.25,3.25
40.94,-2.01,-5.25,-2.01,-5.25,5.25,5.45,6.31,3.24,3.24,3.24
41.35,-1.91,-5.15,-1.91,-5.15,5.14,5.33,6.13,3.23,3.23,3.24
41.76,-1.81,-5.04,-1.81,-5.03,5.03,5.21,5.95,3.22,3.22,3.23
42.18,-1.71,-4.93,-1.71,-4.92,4.92,5.07,5.77,3.21,3.22,3.22
42.60,-1.60,-4.81,-1.61,-4.82,4.81,4.94,5.60,3.21,3.21,3.21
43.03,-1.50,-4.71,-1.50,-4.70,4.70,4.80,5.43,3.20,3.20,3.21
43.46,-1.40,-4.60,-1.40,-4.59,4.59,4.66,5.26,3.18,3.19,3.20
43.90,-1.29,-4.47,-1.30,-4.47,4.47,4.52,5.10,3.18,3.17,3.18
44.33,-1.19,-4.35,-1.19,-4.35,4.36,4.38,4.94,3.16,3.16,3.16
44.78,-1.09,-4.24,-1.09,-4.24,4.24,4.24,4.78,3.15,3.15,3.15
45.23,-0.99,-4.13,-0.99,-4.12,4.13,4.11,4.63,3.13,3.14,3.14
45.68,-0.88,-4.01,-0.89,-4.01,4.01,3.98,4.48,3.13,3.13,3.13
46.13,-0.78,-3.90,-0.78,-3.90,3.90,3.85,4.34,3.12,3.12,3.12
46.60,-0.68,-3.80,-0.68,-3.79,3.79,3.73,4.19,3.11,3.11,3.12
47.06,-0.58,-3.69,-0.58,-3.68,3.68,3.61,4.05,3.10,3.10,3.11
47.53,-0.47,-3.57,-0.47,-3.57,3.57,3.50,3.91,3.10,3.10,3.10
48.01,-0.36,-3.46,-0.37,-3.46,3.46,3.38,3.78,3.09,3.09,3.10
48.49,-0.26,-3.35,-0.26,-3.35,3.35,3.28,3.65,3.08,3.08,3.09
48.97,-0.16,-3.24,-0.16,-3.23,3.23,3.17,3.52,3.07,3.07,3.08
49.46,-0.06,-3.12,-0.06,-3.12,3.12,3.08,3.39,3.06,3.06,3.06
49.96,0.04,-3.01,0.04,-3.02,3.02,2.98,3.27,3.05,3.05,3.05
50.46,0.14,-2.92,0.14,-2.91,2.91,2.89,3.15,3.05,3.05,3.06
50.96,0.24,-2.82,0.24,-2.81,2.81,2.80,3.03,3.05,3.05,3.06
51.47,0.34,-2.71,0.34,-2.71,2.71,2.71,2.91,3.05,3.05,3.05
51.99,0.44,-2.61,0.43,-2.61,2.62,2.63,2.80,3.05,3.05,3.05
52.51,0.53,-2.52,0.53,-2.52,2.52,2.55,2.69,3.05,3.05,3.05
53.03,0.61,-2.44,0.61,-2.43,2.43,2.47,2.58,3.04,3.04,3.05
53.56,0.70,-2.35,0.70,-2.35,2.34,2.39,2.47,3.04,3.04,3.05
54.10,0.78,-2.26,0.78,-2.26,2.25,2.32,2.37,3.03,3.03,3.04
54.64,0.87,-2.16,0.86,-2.16,2.16,2.24,2.27,3.03,3.02,3.03
55.18,0.95,-2.07,0.94,-2.07,2.07,2.17,2.17,3.02,3.01,3.02
55.74,1.02,-1.98,1.02,-1.98,1.98,2.11,2.07,3.00,3.00,3.00
56.29,1.10,-1.90,1.10,-1.89,1.89,2.04,1.97,2.99,2.99,3.00
56.86,1.18,-1.80,1.18,-1.80,1.80,1.97,1.88,2.97,2.98,2.98
57.42,1.26,-1.70,1.25,-1.71,1.71,1.91,1.79,2.97,2.96,2.96
58.00,1.33,-1.62,1.33,-1.62,1.62,1.85,1.70,2.95,2.95,2.95
58.58,1.39,-1.54,1.39,-1.54,1.54,1.79,1.62,2.92,2.93,2.93
59.16,1.46,-1.46,1.46,-1.46,1.45,1.73,1.54,2.91,2.91,2.92
59.76,1.52,-1.38,1.52,-1.38,1.37,1.67,1.46,2.89,2.89,2.90
60.35,1.58,-1.29,1.58,-1.30,1.29,1.61,1.38,2.87,2.87,2.87
60.96,1.63,-1.23,1.62,-1.22,1.21,1.56,1.30,2.84,2.84,2.86
61.57,1.67,-1.14,1.67,-1.14,1.14,1.50,1.23,2.81,2.81,2.81
62.18,1.71,-1.07,1.71,-1.07,1.07,1.45,1.15,2.78,2.79,2.78
62.80,1.76,-1.01,1.75,-1.00,1.01,1.39,1.09,2.77,2.76,2.77
63.43,1.79,-0.94,1.79,-0.95,0.95,1.34,1.02,2.74,2.74,2.73
64.07,1.81,-0.90,1.81,-0.90,0.90,1.29,0.95,2.71,2.72,2.71
64.71,1.84,-0.86,1.84,-0.85,0.86,1.24,0.89,2.69,2.69,2.70
65.35,1.86,-0.82,1.85,-0.82,0.82,1.19,0.83,2.68,2.67,2.68
66.01,1.87,-0.80,1.87,-0.80,0.79,1.14,0.77,2.66,2.66,2.67
66.67,1.88,-0.78,1.88,-0.77,0.77,1.09,0.71,2.65,2.65,2.66
67.33,1.90,-0.75,1.89,-0.75,0.75,1.04,0.65,2.65,2.65,2.65
68.01,1.91,-0.73,1.90,-0.73,0.74,0.99,0.59,2.65,2.64,2.64
68.69,1.90,-0.73,1.90,-0.72,0.74,0.94,0.54,2.63,2.64,2.63
69.37,1.90,-0.73,1.90,-0.73,0.73,0.89,0.49,2.63,2.63,2.63
70.07,1.89,-0.73,1.89,-0.73,0.73,0.84,0.44,2.62,2.62,2.62
70.77,1.88,-0.74,1.88,-0.73,0.73,0.80,0.38,2.60,2.61,2.62
71.48,1.88,-0.73,1.87,-0.73,0.72,0.75,0.33,2.60,2.59,2.61
72.19,1.87,-0.72,1.87,-0.72,0.72,0.70,0.29,2.58,2.58,2.59
72.91,1.87,-0.72,1.87,-0.71,0.70,0.66,0.24,2.57,2.58,2.59
73.64,1.88,-0.69,1.88,-0.69,0.69,0.61,0.19,2.57,2.56,2.57
74.38,1.89,-0.67,1.89,-0.67,0.67,0.56,0.14,2.56,2.56,2.56
75.12,1.90,-0.64,1.90,-0.64,0.64,0.52,0.09,2.54,2.54,2.54
75.87,1.92,-0.61,1.91,-0.61,0.61,0.47,0.04,2.53,2.53,2.53
76.63,1.93,-0.59,1.93,-0.58,0.58,0.42,-0.00,2.51,2.51,2.52
77.40,1.95,-0.55,1.95,-0.55,0.54,0.38,-0.05,2.49,2.49,2.50
78.17,1.98,-0.50,1.98,-0.50,0.50,0.33,-0.10,2.48,2.48,2.48
78.95,2.02,-0.46,2.02,-0.45,0.46,0.28,-0.15,2.47,2.47,2.48
79.74,2.06,-0.41,2.06,-0.41,0.41,0.23,-0.19,2.47,2.47,2.47
80.54,2.10,-0.36,2.10,-0.36,0.36,0.19,-0.24,2.46,2.46,2.46
81.35,2.14,-0.31,2.14,-0.31,0.31,0.14,-0.29,2.45,2.45,2.45
82.16,2.18,-0.26,2.18,-0.26,0.26,0.09,-0.34,2.44,2.44,2.44
82.98,2.22,-0.23,2.22,-0.22,0.21,0.04,-0.39,2.43,2.43,2.45
83.81,2.27,-0.17,2.27,-0.17,0.16,-0.01,-0.44,2.43,2.43,2.44
84.65,2.32,-0.11,2.32,-0.12,0.11,-0.06,-0.49,2.43,2.43,2.43
85.50,2.37,-0.07,2.37,-0.06,0.06,-0.11,-0.54,2.43,2.43,2.44
86.35,2.43,-0.01,2.43,-0.01,0.01,-0.16,-0.60,2.44,2.44,2.44
87.22,2.48,0.05,2.48,0.05,-0.04,-0.21,-0.65,2.44,2.44,2.43
88.09,2.53,0.10,2.53,0.10,-0.09,-0.27,-0.70,2.43,2.43,2.43
88.97,2.57,0.15,2.56,0.15,-0.15,-0.32,-0.76,2.42,2.42,2.42
89.86,2.60,0.19,2.60,0.20,-0.20,-0.37,-0.81,2.40,2.40,2.41
90.76,2.64,0.25,2.64,0.25,-0.26,-0.43,-0.87,2.38,2.38,2.39
91.66,2.68,0.31,2.68,0.32,-0.32,-0.48,-0.93,2.36,2.36,2.37
92.58,2.73,0.39,2.72,0.38,-0.38,-0.54,-0.99,2.35,2.34,2.34
93.51,2.77,0.45,2.77,0.45,-0.45,-0.60,-1.05,2.31,2.31,2.32
94.44,2.81,0.52,2.81,0.52,-0.53,-0.65,-1.11,2.28,2.28,2.29
95.39,2.85,0.60,2.85,0.60,-0.61,-0.71,-1.17,2.24,2.24,2.25
96.34,2.89,0.68,2.89,0.69,-0.70,-0.77,-1.23,2.19,2.19,2.21
97.30,2.94,0.79,2.93,0.78,-0.79,-0.84,-1.29,2.15,2.15,2.15
98.28,2.98,0.88,2.98,0.88,-0.88,-0.90,-1.35,2.10,2.10,2.10
99.26,3.02,0.97,3.02,0.98,-0.97,-0.96,-1.41,2.05,2.05,2.05
100.25,3.06,1.07,3.05,1.07,-1.06,-1.03,-1.48,2.00,2.00,1.99
101.25,3.08,1.15,3.08,1.15,-1.14,-1.09,-1.54,1.93,1.94,1.93
102.27,3.10,1.23,3.10,1.23,-1.23,-1.16,-1.60,1.87,1.87,1.87
103.29,3.11,1.30,3.11,1.30,-1.30,-1.23,-1.66,1.80,1.81,1.81
104.32,3.13,1.37,3.12,1.38,-1.38,-1.29,-1.73,1.75,1.74,1.76
105.37,3.14,1.45,3.14,1.45,-1.45,-1.36,-1.79,1.68,1.68,1.69
106.42,3.15,1.52,3.15,1.52,-1.52,-1.43,-1.85,1.62,1.63,1.63
107.48,3.17,1.59,3.17,1.60,-1.60,-1.51,-1.91,1.57,1.57,1.58
108.56,3.19,1.67,3.19,1.67,-1.67,-1.58,-1.97,1.52,1.52,1.52
109.64,3.21,1.75,3.20,1.74,-1.74,-1.65,-2.03,1.47,1.46,1.46
110.74,3.22,1.81,3.22,1.81,-1.82,-1.72,-2.08,1.40,1.40,1.41
111.85,3.24,1.87,3.24,1.89,-1.90,-1.80,-2.14,1.34,1.35,1.37
112.97,3.27,1.97,3.27,1.96,-1.97,-1.87,-2.19,1.29,1.30,1.30
114.10,3.31,2.05,3.30,2.05,-2.05,-1.95,-2.24,1.25,1.25,1.26
115.24,3.34,2.13,3.34,2.13,-2.13,-2.02,-2.28,1.21,1.21,1.21
116.39,3.37,2.21,3.37,2.21,-2.21,-2.09,-2.32,1.16,1.16,1.16
117.55,3.40,2.28,3.40,2.28,-2.28,-2.17,-2.36,1.12,1.12,1.12
118.73,3.43,2.35,3.43,2.36,-2.35,-2.24,-2.40,1.08,1.08,1.08
119.92,3.47,2.42,3.46,2.42,-2.41,-2.31,-2.43,1.06,1.05,1.05
121.12,3.49,2.47,3.49,2.47,-2.47,-2.38,-2.46,1.02,1.02,1.02
122.33,3.50,2.51,3.50,2.52,-2.52,-2.45,-2.48,0.98,0.98,0.99
123.55,3.52,2.56,3.52,2.56,-2.56,-2.51,-2.50,0.96,0.95,0.96
124.79,3.53,2.60,3.53,2.60,-2.60,-2.57,-2.52,0.93,0.93,0.93
126.03,3.54,2.63,3.54,2.64,-2.63,-2.63,-2.53,0.90,0.90,0.91
127.29,3.54,2.66,3.54,2.66,-2.66,-2.69,-2.54,0.87,0.87,0.88
128.57,3.53,2.69,3.53,2.68,-2.69,-2.74,-2.54,0.84,0.84,0.84
129.85,3.52,2.70,3.52,2.71,-2.70,-2.79,-2.54,0.81,0.81,0.82
131.15,3.50,2.71,3.50,2.72,-2.72,-2.83,-2.54,0.78,0.79,0.79
132.46,3.49,2.74,3.48,2.73,-2.73,-2.87,-2.53,0.76,0.76,0.75
133.79,3.46,2.73,3.46,2.74,-2.73,-2.91,-2.51,0.73,0.73,0.73
135.12,3.43,2.73,3.43,2.73,-2.73,-2.94,-2.50,0.69,0.69,0.70
136.48,3.40,2.73,3.39,2.73,-2.74,-2.96,-2.48,0.66,0.66,0.67
137.84,3.36,2.72,3.37,2.74,-2.74,-2.98,-2.46,0.62,0.63,0.64
139.22,3.34,2.75,3.33,2.74,-2.74,-2.99,-2.43,0.60,0.59,0.59
140.61,3.31,2.75,3.30,2.74,-2.74,-3.00,-2.41,0.57,0.56,0.56
142.02,3.26,2.72,3.27,2.74,-2.75,-3.00,-2.38,0.51,0.52,0.54
143.44,3.25,2.75,3.24,2.75,-2.75,-3.00,-2.35,0.49,0.49,0.50
144.87,3.22,2.76,3.22,2.76,-2.77,-2.99,-2.32,0.45,0.45,0.46
146.32,3.21,2.79,3.20,2.78,-2.78,-2.98,-2.29,0.43,0.42,0.42
147.78,3.18,2.79,3.18,2.80,-2.80,-2.96,-2.25,0.38,0.38,0.39
149.26,3.17,2.81,3.16,2.82,-2.82,-2.93,-2.22,0.34,0.34,0.36
150.75,3.14,2.83,3.15,2.84,-2.84,-2.90,-2.18,0.29,0.30,0.31
152.26,3.14,2.87,3.14,2.87,-2.87,-2.87,-2.15,0.27,0.27,0.27
153.78,3.13,2.89,3.12,2.89,-2.89,-2.84,-2.12,0.24,0.24,0.24
155.32,3.11,2.92,3.10,2.91,-2.90,-2.80,-2.08,0.21,0.20,0.19
156.88,3.06,2.90,3.06,2.92,-2.91,-2.76,-2.05,0.15,0.15,0.16
158.44,3.02,2.92,3.02,2.92,-2.92,-2.71,-2.02,0.10,0.10,0.10
160.03,2.97,2.91,2.97,2.92,-2.92,-2.67,-1.98,0.05,0.05,0.06
161.63,2.92,2.91,2.92,2.91,-2.91,-2.62,-1.95,0.01,0.01,0.01
163.24,2.87,2.90,2.86,2.90,-2.89,-2.57,-1.92,-0.03,-0.03,-0.03
164.88,2.80,2.87,2.80,2.88,-2.87,-2.52,-1.89,-0.08,-0.07,-0.07
166.53,2.74,2.85,2.74,2.85,-2.85,-2.47,-1.86,-0.11,-0.11,-0.11
168.19,2.67,2.82,2.66,2.81,-2.82,-2.42,-1.84,-0.15,-0.16,-0.15
169.87,2.58,2.77,2.59,2.78,-2.79,-2.37,-1.81,-0.21,-0.20,-0.19
171.57,2.51,2.73,2.51,2.74,-2.75,-2.32,-1.79,-0.24,-0.23,-0.22
173.29,2.45,2.71,2.43,2.70,-2.70,-2.27,-1.76,-0.25,-0.27,-0.26
175.02,2.35,2.65,2.35,2.65,-2.65,-2.22,-1.74,-0.30,-0.30,-0.30
176.77,2.26,2.59,2.26,2.60,-2.59,-2.17,-1.72,-0.33,-0.33,-0.33
178.54,2.17,2.53,2.17,2.54,-2.53,-2.12,-1.70,-0.36,-0.36,-0.36
180.32,2.08,2.47,2.08,2.47,-2.46,-2.08,-1.68,-0.38,-0.38,-0.39
182.13,1.99,2.40,1.97,2.39,-2.38,-2.03,-1.67,-0.39,-0.41,-0.41
183.95,1.85,2.28,1.86,2.30,-2.30,-1.98,-1.65,-0.45,-0.44,-0.43
185.79,1.75,2.20,1.76,2.21,-2.22,-1.94,-1.64,-0.47,-0.46,-0.45
187.65,1.66,2.13,1.65,2.12,-2.13,-1.90,-1.63,-0.47,-0.48,-0.47
189.52,1.56,2.04,1.55,2.04,-2.04,-1.86,-1.62,-0.49,-0.49,-0.48
191.42,1.45,1.95,1.45,1.95,-1.96,-1.82,-1.61,-0.51,-0.50,-0.50
193.33,1.35,1.86,1.35,1.87,-1.87,-1.78,-1.60,-0.52,-0.52,-0.51
195.27,1.26,1.78,1.25,1.78,-1.78,-1.74,-1.59,-0.52,-0.53,-0.52
197.22,1.16,1.70,1.16,1.70,-1.69,-1.71,-1.59,-0.54,-0.54,-0.54
199.19,1.06,1.62,1.06,1.62,-1.61,-1.67,-1.58,-0.55,-0.55,-0.56
201.18,0.96,1.53,0.95,1.53,-1.53,-1.64,-1.58,-0.57,-0.57,-0.57
203.19,0.86,1.43,0.86,1.44,-1.44,-1.61,-1.58,-0.59,-0.59,-0.57
205.23,0.76,1.35,0.77,1.35,-1.37,-1.58,-1.58,-0.61,-0.60,-0.59
207.28,0.69,1.28,0.68,1.28,-1.29,-1.55,-1.58,-0.61,-0.61,-0.59
209.35,0.61,1.22,0.61,1.23,-1.23,-1.52,-1.58,-0.62,-0.62,-0.61
211.44,0.54,1.17,0.54,1.17,-1.16,-1.50,-1.58,-0.62,-0.62,-0.63
213.56,0.47,1.11,0.46,1.11,-1.10,-1.48,-1.58,-0.63,-0.64,-0.64
215.69,0.40,1.04,0.40,1.05,-1.04,-1.45,-1.58,-0.65,-0.65,-0.64
217.85,0.33,0.99,0.33,1.00,-0.99,-1.43,-1.58,-0.66,-0.66,-0.66
220.03,0.28,0.95,0.27,0.95,-0.94,-1.41,-1.58,-0.66,-0.67,-0.67
222.23,0.22,0.91,0.21,0.90,-0.90,-1.39,-1.59,-0.68,-0.69,-0.69
224.45,0.15,0.84,0.16,0.86,-0.86,-1.38,-1.59,-0.71,-0.70,-0.69
226.70,0.11,0.82,0.11,0.82,-0.83,-1.36,-1.59,-0.72,-0.72,-0.71
228.96,0.08,0.80,0.08,0.80,-0.81,-1.35,-1.59,-0.74,-0.74,-0.72
231.25,0.06,0.79,0.06,0.80,-0.80,-1.33,-1.60,-0.74,-0.74,-0.73
233.57,0.06,0.81,0.05,0.80,-0.80,-1.32,-1.60,-0.74,-0.75,-0.75
235.90,0.05,0.81,0.05,0.82,-0.81,-1.31,-1.60,-0.76,-0.76,-0.76
238.26,0.05,0.83,0.05,0.83,-0.83,-1.30,-1.60,-0.78,-0.78,-0.78
240.64,0.06,0.86,0.05,0.85,-0.86,-1.29,-1.60,-0.80,-0.81,-0.80
243.05,0.07,0.88,0.07,0.89,-0.90,-1.29,-1.60,-0.83,-0.82,-0.81
245.48,0.10,0.92,0.10,0.93,-0.94,-1.28,-1.60,-0.84,-0.83,-0.82
247.93,0.16,0.99,0.15,0.98,-0.98,-1.27,-1.60,-0.83,-0.84,-0.83
250.41,0.19,1.03,0.20,1.04,-1.03,-1.27,-1.60,-0.85,-0.83,-0.84
252.92,0.26,1.09,0.25,1.09,-1.08,-1.27,-1.59,-0.83,-0.83,-0.83
255.45,0.31,1.14,0.31,1.14,-1.13,-1.26,-1.59,-0.83,-0.83,-0.83
258.00,0.36,1.18,0.36,1.19,-1.18,-1.26,-1.58,-0.83,-0.82,-0.82
260.58,0.42,1.24,0.42,1.24,-1.23,-1.26,-1.58,-0.81,-0.81,-0.82
263.19,0.47,1.28,0.47,1.28,-1.27,-1.26,-1.57,-0.80,-0.80,-0.81
265.82,0.52,1.32,0.51,1.31,-1.31,-1.26,-1.57,-0.80,-0.80,-0.80
268.48,0.56,1.34,0.56,1.35,-1.36,-1.27,-1.56,-0.80,-0.79,-0.78
271.16,0.61,1.37,0.62,1.38,-1.40,-1.27,-1.55,-0.79,-0.78,-0.76
273.87,0.69,1.44,0.68,1.43,-1.44,-1.28,-1.54,-0.76,-0.76,-0.75
276.61,0.75,1.47,0.75,1.48,-1.49,-1.28,-1.54,-0.74,-0.74,-0.72
279.38,0.82,1.54,0.82,1.54,-1.53,-1.29,-1.53,-0.71,-0.72,-0.72
282.17,0.88,1.58,0.88,1.59,-1.58,-1.29,-1.52,-0.70,-0.70,-0.70
284.99,0.94,1.63,0.94,1.63,-1.62,-1.30,-1.51,-0.68,-0.68,-0.69
287.84,1.00,1.67,0.99,1.67,-1.66,-1.31,-1.50,-0.66,-0.67,-0.67
290.72,1.04,1.69,1.04,1.70,-1.70,-1.32,-1.50,-0.66,-0.66,-0.65
293.63,1.08,1.72,1.08,1.72,-1.73,-1.33,-1.49,-0.65,-0.65,-0.64
296.57,1.13,1.74,1.12,1.75,-1.76,-1.34,-1.48,-0.63,-0.63,-0.61
299.53,1.17,1.77,1.17,1.78,-1.78,-1.35,-1.47,-0.61,-0.61,-0.60
302.53,1.22,1.81,1.21,1.80,-1.80,-1.37,-1.47,-0.58,-0.58,-0.59
305.55,1.26,1.82,1.26,1.83,-1.82,-1.38,-1.46,-0.56,-0.56,-0.56
308.61,1.29,1.83,1.30,1.84,-1.83,-1.40,-1.46,-0.54,-0.53,-0.54
311.69,1.34,1.85,1.33,1.84,-1.84,-1.41,-1.45,-0.51,-0.51,-0.51
314.81,1.37,1.84,1.37,1.85,-1.86,-1.43,-1.45,-0.49,-0.49,-0.47
317.96,1.40,1.86,1.40,1.86,-1.87,-1.44,-1.45,-0.47,-0.47,-0.46
321.14,1.42,1.86,1.42,1.86,-1.87,-1.46,-1.44,-0.46,-0.45,-0.44
324.35,1.45,1.87,1.45,1.88,-1.88,-1.48,-1.44,-0.43,-0.43,-0.42
327.59,1.49,1.89,1.48,1.88,-1.89,-1.49,-1.44,-0.40,-0.41,-0.40
330.87,1.51,1.89,1.51,1.89,-1.89,-1.51,-1.45,-0.38,-0.38,-0.38
334.18,1.53,1.88,1.53,1.89,-1.89,-1.53,-1.45,-0.36,-0.36,-0.35
337.52,1.56,1.89,1.55,1.89,-1.88,-1.55,-1.45,-0.32,-0.33,-0.33
340.90,1.57,1.88,1.57,1.88,-1.87,-1.57,-1.46,-0.30,-0.30,-0.31
344.30,1.58,1.86,1.58,1.87,-1.85,-1.59,-1.46,-0.28,-0.28,-0.28
347.75,1.58,1.84,1.57,1.83,-1.83,-1.61,-1.47,-0.26,-0.26,-0.26
351.23,1.57,1.80,1.57,1.80,-1.81,-1.63,-1.48,-0.24,-0.24,-0.23
354.74,1.56,1.76,1.56,1.77,-1.78,-1.65,-1.49,-0.23,-0.22,-0.20
358.28,1.56,1.75,1.56,1.74,-1.75,-1.67,-1.50,-0.20,-0.20,-0.19
361.87,1.56,1.72,1.56,1.72,-1.72,-1.69,-1.51,-0.16,-0.16,-0.16
365.49,1.56,1.69,1.56,1.70,-1.69,-1.71,-1.52,-0.13,-0.13,-0.13
369.14,1.56,1.68,1.55,1.67,-1.66,-1.73,-1.54,-0.10,-0.11,-0.12
372.83,1.55,1.64,1.54,1.64,-1.63,-1.75,-1.55,-0.09,-0.09,-0.09
376.56,1.53,1.60,1.53,1.61,-1.61,-1.77,-1.57,-0.08,-0.08,-0.07
380.33,1.53,1.57,1.53,1.58,-1.59,-1.79,-1.59,-0.06,-0.06,-0.04
384.13,1.54,1.57,1.53,1.57,-1.58,-1.81,-1.60,-0.04,-0.04,-0.03
387.97,1.55,1.56,1.55,1.56,-1.57,-1.83,-1.62,-0.02,-0.02,-0.01
391.85,1.57,1.57,1.57,1.57,-1.57,-1.85,-1.64,-0.00,0.00,-0.00
395.77,1.60,1.57,1.60,1.58,-1.58,-1.86,-1.66,0.02,0.02,0.03
399.73,1.63,1.59,1.63,1.59,-1.60,-1.88,-1.68,0.03,0.03,0.04
403.72,1.66,1.62,1.66,1.62,-1.62,-1.90,-1.71,0.04,0.04,0.04
407.76,1.69,1.64,1.69,1.65,-1.65,-1.91,-1.73,0.04,0.04,0.05
411.84,1.73,1.67,1.72,1.68,-1.68,-1.92,-1.75,0.05,0.05,0.06
415.96,1.76,1.71,1.76,1.71,-1.71,-1.94,-1.77,0.05,0.05,0.05
420.12,1.79,1.74,1.79,1.74,-1.74,-1.95,-1.79,0.05,0.05,0.05
424.32,1.82,1.77,1.82,1.78,-1.77,-1.96,-1.82,0.05,0.05,0.05
428.56,1.85,1.80,1.85,1.80,-1.79,-1.96,-1.84,0.05,0.05,0.05
432.85,1.87,1.83,1.86,1.83,-1.81,-1.97,-1.86,0.05,0.05,0.04
437.18,1.88,1.84,1.88,1.84,-1.83,-1.98,-1.88,0.05,0.04,0.04
441.55,1.88,1.84,1.88,1.85,-1.85,-1.98,-1.90,0.03,0.03,0.04
445.96,1.89,1.86,1.89,1.86,-1.87,-1.98,-1.92,0.02,0.02,0.03
450.42,1.90,1.87,1.90,1.87,-1.88,-1.98,-1.94,0.01,0.01,0.03
454.93,1.91,1.88,1.91,1.89,-1.90,-1.98,-1.95,0.00,0.01,0.03
459.48,1.94,1.92,1.94,1.91,-1.93,-1.98,-1.97,0.01,0.01,0.02
464.07,1.97,1.94,1.97,1.95,-1.95,-1.97,-1.98,0.02,0.02,0.03
468.71,2.00,1.97,2.00,1.98,-1.97,-1.97,-1.99,0.02,0.03,0.03
473.40,2.03,2.01,2.03,2.00,-2.00,-1.96,-2.00,0.03,0.03,0.02
478.13,2.05,2.02,2.05,2.03,-2.02,-1.95,-2.00,0.03,0.03,0.03
482.91,2.06,2.04,2.06,2.04,-2.03,-1.94,-2.00,0.02,0.03,0.02
487.74,2.07,2.04,2.07,2.04,-2.04,-1.93,-2.00,0.03,0.03,0.03
492.62,2.07,2.03,2.07,2.04,-2.04,-1.91,-2.00,0.03,0.03,0.04
497.55,2.07,2.04,2.07,2.03,-2.03,-1.90,-2.00,0.03,0.03,0.03
502.52,2.06,2.02,2.06,2.02,-2.02,-1.88,-1.99,0.04,0.04,0.04
