frequency,raw,error,smoothed,error_smoothed,equalization,parametric_eq,fixed_band_eq,equalized_raw,equalized_smoothed,target
20.00,-2.50,-7.40,-2.48,-7.40,7.40,7.27,1.93,4.90,4.92,4.90
20.20,-2.42,-7.35,-2.41,-7.35,7.35,7.20,1.99,4.93,4.94,4.93
20.40,-2.33,-7.29,-2.34,-7.30,7.30,7.13,2.05,4.96,4.96,4.96
20.61,-2.25,-7.23,-2.26,-7.24,7.24,7.05,2.11,4.98,4.98,4.98
20.81,-2.17,-7.18,-2.18,-7.18,7.18,6.98,2.18,5.01,5.00,5.01
21.02,-2.08,-7.12,-2.10,-7.12,7.12,6.90,2.25,5.03,5.01,5.03
21.23,-2.01,-7.06,-2.02,-7.05,7.05,6.82,2.32,5.04,5.02,5.04
21.44,-1.93,-6.99,-1.94,-6.98,6.98,6.74,2.39,5.05,5.04,5.05
21.66,-1.86,-6.93,-1.86,-6.91,6.91,6.66,2.46,5.05,5.05,5.06
21.87,-1.78,-6.84,-1.78,-6.83,6.83,6.58,2.54,5.05,5.06,5.06
22.09,-1.70,-6.77,-1.69,-6.76,6.76,6.50,2.61,5.05,5.06,5.07
22.31,-1.61,-6.68,-1.60,-6.68,6.68,6.42,2.69,5.06,5.07,5.07
22.54,-1.52,-6.59,-1.52,-6.59,6.59,6.34,2.78,5.07,5.07,5.07
22.76,-1.43,-6.50,-1.43,-6.50,6.50,6.25,2.86,5.07,5.07,5.07
22.99,-1.34,-6.40,-1.34,-6.41,6.41,6.17,2.95,5.07,5.07,5.06
23.22,-1.25,-6.31,-1.25,-6.31,6.31,6.08,3.04,5.06,5.07,5.06
23.45,-1.15,-6.21,-1.15,-6.22,6.22,6.00,3.13,5.07,5.07,5.06
23.69,-1.06,-6.12,-1.06,-6.12,6.12,5.91,3.22,5.06,5.06,5.06
23.92,-0.96,-6.02,-0.96,-6.02,6.02,5.83,3.31,5.06,5.06,5.06
24.16,-0.86,-5.93,-0.86,-5.92,5.92,5.74,3.41,5.06,5.06,5.07
24.40,-0.76,-5.82,-0.76,-5.82,5.82,5.65,3.51,5.05,5.06,5.06
24.65,-0.66,-5.72,-0.66,-5.71,5.71,5.57,3.61,5.05,5.05,5.05
24.89,-0.56,-5.61,-0.56,-5.62,5.62,5.48,3.71,5.06,5.05,5.05
25.14,-0.46,-5.51,-0.47,-5.52,5.52,5.39,3.81,5.06,5.05,5.05
25.39,-0.36,-5.41,-0.37,-5.42,5.42,5.31,3.91,5.06,5.05,5.05
25.65,-0.27,-5.32,-0.28,-5.32,5.32,5.22,4.01,5.05,5.05,5.05
25.91,-0.17,-5.21,-0.18,-5.23,5.23,5.13,4.11,5.05,5.04,5.04
26.16,-0.08,-5.12,-0.09,-5.13,5.13,5.04,4.21,5.05,5.04,5.04
26.43,-0.00,-5.04,-0.00,-5.04,5.04,4.96,4.31,5.04,5.04,5.04
26.69,0.09,-4.95,0.09,-4.95,4.95,4.87,4.41,5.03,5.03,5.03
26.96,0.17,-4.87,0.18,-4.85,4.85,4.78,4.51,5.02,5.03,5.03
27.23,0.25,-4.78,0.26,-4.76,4.76,4.70,4.60,5.01,5.03,5.03
27.50,0.34,-4.69,0.35,-4.67,4.67,4.61,4.69,5.01,5.02,5.03
27.77,0.43,-4.59,0.43,-4.59,4.59,4.52,4.78,5.02,5.02,5.02
28.05,0.52,-4.50,0.52,-4.50,4.50,4.43,4.86,5.02,5.02,5.02
28.33,0.60,-4.41,0.59,-4.42,4.42,4.35,4.94,5.02,5.01,5.01
28.62,0.68,-4.33,0.67,-4.34,4.34,4.26,5.01,5.01,5.01,5.00
28.90,0.76,-4.24,0.75,-4.26,4.26,4.18,5.07,5.01,5.00,5.00
29.19,0.84,-4.15,0.82,-4.18,4.18,4.09,5.13,5.02,5.00,4.99
29.48,0.91,-4.09,0.89,-4.10,4.10,4.00,5.18,5.01,4.99,5.00
29.78,0.99,-4.00,0.96,-4.02,4.02,3.92,5.22,5.01,4.99,4.99
30.08,1.05,-3.94,1.04,-3.94,3.94,3.83,5.25,4.99,4.98,4.98
30.38,1.11,-3.87,1.11,-3.87,3.87,3.75,5.27,4.97,4.97,4.97
30.68,1.16,-3.81,1.18,-3.79,3.79,3.66,5.28,4.95,4.97,4.97
30.99,1.22,-3.74,1.25,-3.71,3.71,3.58,5.28,4.93,4.96,4.96
31.30,1.30,-3.66,1.32,-3.64,3.64,3.49,5.27,4.93,4.96,4.96
31.61,1.38,-3.58,1.39,-3.56,3.56,3.41,5.25,4.93,4.95,4.95
31.93,1.46,-3.48,1.47,-3.47,3.47,3.33,5.22,4.93,4.94,4.94
32.24,1.54,-3.39,1.54,-3.39,3.39,3.24,5.18,4.93,4.93,4.93
32.57,1.63,-3.30,1.62,-3.31,3.31,3.16,5.13,4.93,4.93,4.92
32.89,1.71,-3.21,1.70,-3.22,3.22,3.08,5.07,4.93,4.92,4.92
33.22,1.79,-3.12,1.78,-3.13,3.13,3.00,5.00,4.92,4.91,4.91
33.55,1.87,-3.04,1.86,-3.04,3.04,2.91,4.92,4.91,4.90,4.91
33.89,1.95,-2.95,1.95,-2.95,2.95,2.83,4.83,4.89,4.89,4.89
34.23,2.03,-2.86,2.03,-2.86,2.86,2.75,4.74,4.88,4.88,4.89
34.57,2.11,-2.77,2.11,-2.77,2.77,2.67,4.63,4.88,4.88,4.88
34.92,2.19,-2.68,2.18,-2.68,2.68,2.59,4.53,4.87,4.87,4.86
35.27,2.27,-2.59,2.26,-2.60,2.60,2.51,4.42,4.86,4.86,4.86
35.62,2.34,-2.51,2.33,-2.51,2.51,2.43,4.30,4.85,4.85,4.84
35.97,2.41,-2.42,2.41,-2.43,2.43,2.35,4.18,4.84,4.83,4.83
36.33,2.48,-2.35,2.48,-2.34,2.34,2.27,4.05,4.82,4.82,4.83
36.70,2.55,-2.26,2.55,-2.26,2.26,2.19,3.93,4.81,4.81,4.81
37.06,2.61,-2.19,2.62,-2.18,2.18,2.11,3.80,4.79,4.80,4.80
37.43,2.67,-2.12,2.68,-2.11,2.11,2.03,3.66,4.78,4.79,4.79
37.81,2.74,-2.04,2.74,-2.04,2.04,1.95,3.53,4.77,4.78,4.78
38.19,2.80,-1.96,2.80,-1.97,1.97,1.87,3.40,4.77,4.76,4.76
38.57,2.87,-1.89,2.85,-1.90,1.90,1.79,3.26,4.77,4.75,4.76
38.95,2.93,-1.81,2.90,-1.84,1.84,1.72,3.13,4.77,4.74,4.74
39.34,2.97,-1.76,2.95,-1.78,1.78,1.64,2.99,4.75,4.73,4.73
39.74,3.01,-1.70,3.00,-1.72,1.72,1.56,2.86,4.73,4.72,4.71
40.14,3.05,-1.66,3.04,-1.66,1.66,1.49,2.73,4.71,4.71,4.70
40.54,3.08,-1.61,3.09,-1.60,1.60,1.41,2.59,4.68,4.69,4.69
40.94,3.12,-1.56,3.13,-1.55,1.55,1.33,2.46,4.67,4.68,4.68
41.35,3.16,-1.51,3.17,-1.49,1.49,1.26,2.33,4.65,4.67,4.66
41.76,3.20,-1.46,3.22,-1.44,1.44,1.18,2.20,4.64,4.65,4.66
42.18,3.25,-1.40,3.26,-1.38,1.38,1.11,2.07,4.63,4.64,4.65
42.60,3.30,-1.33,3.30,-1.33,1.33,1.03,1.94,4.63,4.63,4.63
43.03,3.35,-1.27,3.34,-1.27,1.27,0.96,1.81,4.62,4.61,4.62
43.46,3.40,-1.21,3.38,-1.21,1.21,0.88,1.68,4.61,4.59,4.60
43.90,3.44,-1.14,3.43,-1.15,1.15,0.81,1.56,4.59,4.58,4.58
44.33,3.48,-1.08,3.47,-1.09,1.09,0.73,1.44,4.57,4.56,4.56
44.78,3.52,-1.02,3.52,-1.02,1.02,0.66,1.31,4.54,4.54,4.54
45.23,3.57,-0.95,3.58,-0.95,0.95,0.59,1.19,4.52,4.53,4.52
45.68,3.62,-0.88,3.63,-0.88,0.88,0.51,1.07,4.49,4.51,4.50
46.13,3.68,-0.80,3.69,-0.80,0.80,0.44,0.95,4.48,4.48,4.48
46.60,3.73,-0.74,3.74,-0.72,0.72,0.37,0.83,4.45,4.46,4.47
47.06,3.79,-0.66,3.80,-0.64,0.64,0.30,0.72,4.43,4.44,4.44
47.53,3.85,-0.57,3.86,-0.56,0.56,0.22,0.60,4.40,4.42,4.42
48.01,3.92,-0.49,3.92,-0.47,0.47,0.15,0.49,4.39,4.39,4.41
48.49,3.99,-0.39,3.98,-0.39,0.39,0.08,0.37,4.38,4.37,4.38
48.97,4.06,-0.29,4.04,-0.30,0.30,0.01,0.26,4.36,4.34,4.35
49.46,4.12,-0.19,4.10,-0.21,0.21,-0.06,0.15,4.33,4.32,4.31
49.96,4.18,-0.10,4.17,-0.13,0.13,-0.14,0.04,4.30,4.29,4.28
50.46,4.24,-0.03,4.23,-0.04,0.04,-0.21,-0.07,4.28,4.27,4.26
50.96,4.30,0.06,4.29,0.05,-0.05,-0.28,-0.18,4.25,4.24,4.24
51.47,4.35,0.14,4.35,0.14,-0.14,-0.35,-0.28,4.21,4.21,4.20
51.99,4.40,0.22,4.41,0.22,-0.22,-0.42,-0.39,4.17,4.18,4.18
52.51,4.46,0.30,4.47,0.31,-0.31,-0.49,-0.49,4.15,4.16,4.16
53.03,4.52,0.38,4.52,0.40,-0.40,-0.56,-0.59,4.12,4.13,4.13
53.56,4.58,0.47,4.58,0.48,-0.48,-0.63,-0.69,4.10,4.10,4.11
54.10,4.64,0.56,4.64,0.57,-0.57,-0.70,-0.79,4.07,4.07,4.08
54.64,4.69,0.64,4.70,0.65,-0.65,-0.77,-0.89,4.04,4.05,4.05
55.18,4.75,0.73,4.76,0.73,-0.73,-0.84,-0.98,4.01,4.02,4.02
55.74,4.81,0.82,4.82,0.82,-0.82,-0.90,-1.08,3.99,4.00,3.99
56.29,4.87,0.90,4.87,0.90,-0.90,-0.97,-1.17,3.97,3.97,3.97
56.86,4.93,0.99,4.93,0.98,-0.98,-1.04,-1.25,3.94,3.94,3.94
57.42,4.98,1.07,4.98,1.06,-1.06,-1.11,-1.34,3.92,3.91,3.90
58.00,5.03,1.15,5.02,1.14,-1.14,-1.18,-1.42,3.89,3.89,3.88
58.58,5.08,1.22,5.06,1.21,-1.21,-1.25,-1.50,3.87,3.86,3.86
59.16,5.12,1.28,5.10,1.27,-1.27,-1.31,-1.58,3.84,3.83,3.83
59.76,5.16,1.35,5.13,1.34,-1.34,-1.38,-1.65,3.82,3.80,3.81
60.35,5.19,1.42,5.17,1.40,-1.40,-1.45,-1.72,3.79,3.76,3.77
60.96,5.21,1.46,5.19,1.46,-1.46,-1.52,-1.79,3.75,3.73,3.75
61.57,5.22,1.52,5.22,1.52,-1.52,-1.58,-1.86,3.70,3.70,3.70
62.18,5.23,1.57,5.24,1.57,-1.57,-1.65,-1.92,3.66,3.67,3.66
62.80,5.24,1.61,5.26,1.62,-1.62,-1.72,-1.98,3.62,3.63,3.63
63.43,5.25,1.66,5.27,1.67,-1.67,-1.78,-2.03,3.58,3.60,3.59
64.07,5.27,1.71,5.29,1.72,-1.72,-1.85,-2.08,3.55,3.57,3.56
64.71,5.30,1.77,5.30,1.77,-1.77,-1.91,-2.13,3.53,3.53,3.53
65.35,5.32,1.82,5.31,1.82,-1.82,-1.98,-2.18,3.50,3.50,3.50
66.01,5.34,1.88,5.33,1.87,-1.87,-2.04,-2.22,3.47,3.46,3.46
66.67,5.35,1.92,5.34,1.92,-1.92,-2.11,-2.27,3.43,3.42,3.43
67.33,5.37,1.98,5.36,1.97,-1.97,-2.18,-2.31,3.39,3.39,3.39
68.01,5.38,2.02,5.38,2.03,-2.03,-2.24,-2.34,3.35,3.35,3.36
68.69,5.39,2.07,5.41,2.09,-2.09,-2.30,-2.38,3.30,3.32,3.32
69.37,5.41,2.13,5.43,2.15,-2.15,-2.37,-2.41,3.26,3.28,3.28
70.07,5.43,2.19,5.45,2.20,-2.20,-2.43,-2.45,3.22,3.24,3.24
70.77,5.46,2.25,5.47,2.26,-2.26,-2.50,-2.48,3.20,3.20,3.21
71.48,5.49,2.32,5.48,2.32,-2.32,-2.56,-2.51,3.17,3.16,3.17
72.19,5.52,2.39,5.50,2.38,-2.38,-2.62,-2.54,3.14,3.12,3.13
72.91,5.56,2.47,5.52,2.43,-2.43,-2.69,-2.57,3.13,3.08,3.08
73.64,5.56,2.52,5.53,2.49,-2.49,-2.75,-2.61,3.07,3.04,3.04
74.38,5.56,2.55,5.55,2.54,-2.54,-2.81,-2.64,3.02,3.00,3.00
75.12,5.57,2.61,5.56,2.60,-2.60,-2.87,-2.67,2.97,2.96,2.96
75.87,5.58,2.66,5.58,2.65,-2.65,-2.93,-2.70,2.92,2.92,2.92
76.63,5.59,2.70,5.60,2.71,-2.71,-3.00,-2.74,2.87,2.88,2.88
77.40,5.61,2.76,5.62,2.78,-2.78,-3.06,-2.77,2.83,2.84,2.84
78.17,5.62,2.82,5.64,2.84,-2.84,-3.12,-2.81,2.78,2.80,2.79
78.95,5.64,2.87,5.66,2.91,-2.91,-3.18,-2.85,2.73,2.76,2.76
79.74,5.65,2.93,5.69,2.97,-2.97,-3.24,-2.89,2.68,2.72,2.72
80.54,5.69,3.01,5.72,3.04,-3.04,-3.30,-2.93,2.65,2.68,2.68
81.35,5.73,3.09,5.75,3.11,-3.11,-3.36,-2.97,2.61,2.63,2.63
82.16,5.78,3.19,5.78,3.19,-3.19,-3.42,-3.02,2.59,2.59,2.59
82.98,5.83,3.27,5.81,3.26,-3.26,-3.48,-3.07,2.57,2.55,2.55
83.81,5.88,3.38,5.84,3.34,-3.34,-3.53,-3.12,2.54,2.50,2.50
84.65,5.91,3.46,5.87,3.41,-3.41,-3.59,-3.17,2.50,2.46,2.45
85.50,5.92,3.51,5.89,3.48,-3.48,-3.65,-3.22,2.44,2.41,2.41
86.35,5.93,3.56,5.91,3.55,-3.55,-3.71,-3.28,2.38,2.36,2.36
87.22,5.94,3.62,5.93,3.62,-3.62,-3.76,-3.34,2.32,2.31,2.31
88.09,5.95,3.68,5.95,3.68,-3.68,-3.82,-3.40,2.27,2.27,2.26
88.97,5.96,3.74,5.96,3.74,-3.74,-3.88,-3.47,2.21,2.22,2.22
89.86,5.96,3.79,5.97,3.80,-3.80,-3.93,-3.54,2.15,2.16,2.17
90.76,5.97,3.86,5.97,3.86,-3.86,-3.99,-3.61,2.11,2.11,2.11
91.66,5.97,3.90,5.98,3.92,-3.92,-4.04,-3.68,2.05,2.06,2.06
92.58,5.98,3.98,5.99,3.98,-3.98,-4.09,-3.76,2.00,2.01,2.00
93.51,5.99,4.03,6.00,4.04,-4.04,-4.15,-3.84,1.94,1.95,1.96
94.44,6.00,4.10,6.01,4.11,-4.11,-4.20,-3.92,1.89,1.90,1.90
95.39,6.01,4.16,6.02,4.18,-4.18,-4.25,-4.00,1.83,1.84,1.85
96.34,6.02,4.24,6.03,4.25,-4.25,-4.30,-4.09,1.77,1.78,1.78
97.30,6.04,4.31,6.04,4.32,-4.32,-4.35,-4.18,1.72,1.73,1.72
98.28,6.05,4.38,6.06,4.39,-4.39,-4.40,-4.27,1.66,1.67,1.67
99.26,6.07,4.46,6.07,4.46,-4.46,-4.45,-4.36,1.61,1.61,1.61
100.25,6.09,4.53,6.08,4.53,-4.53,-4.50,-4.46,1.56,1.55,1.55
101.25,6.10,4.60,6.09,4.59,-4.59,-4.55,-4.55,1.51,1.50,1.50
102.27,6.11,4.67,6.10,4.66,-4.66,-4.60,-4.65,1.45,1.44,1.44
103.29,6.11,4.74,6.10,4.72,-4.72,-4.64,-4.74,1.39,1.38,1.37
104.32,6.11,4.78,6.09,4.77,-4.77,-4.69,-4.84,1.34,1.32,1.32
105.37,6.10,4.83,6.09,4.83,-4.83,-4.73,-4.94,1.27,1.26,1.27
106.42,6.10,4.89,6.08,4.88,-4.88,-4.78,-5.04,1.22,1.21,1.21
107.48,6.09,4.94,6.07,4.92,-4.92,-4.82,-5.13,1.16,1.15,1.15
108.56,6.06,4.98,6.06,4.97,-4.97,-4.87,-5.23,1.09,1.08,1.08
109.64,6.04,5.01,6.04,5.01,-5.01,-4.91,-5.32,1.02,1.02,1.03
110.74,6.01,5.04,6.02,5.06,-5.06,-4.95,-5.41,0.95,0.96,0.97
111.85,5.98,5.07,6.00,5.10,-5.10,-4.99,-5.50,0.88,0.90,0.91
112.97,5.96,5.12,5.98,5.14,-5.14,-5.03,-5.58,0.82,0.84,0.83
114.10,5.94,5.16,5.95,5.18,-5.18,-5.07,-5.66,0.76,0.77,0.78
115.24,5.93,5.22,5.93,5.22,-5.22,-5.11,-5.74,0.71,0.71,0.71
116.39,5.91,5.26,5.91,5.26,-5.26,-5.14,-5.81,0.65,0.65,0.65
117.55,5.89,5.31,5.88,5.30,-5.30,-5.18,-5.88,0.59,0.59,0.58
118.73,5.87,5.35,5.86,5.33,-5.33,-5.21,-5.93,0.53,0.52,0.51
119.92,5.84,5.38,5.83,5.37,-5.37,-5.25,-5.98,0.47,0.46,0.46
121.12,5.81,5.41,5.81,5.41,-5.41,-5.28,-6.03,0.40,0.40,0.40
122.33,5.78,5.44,5.78,5.45,-5.45,-5.31,-6.07,0.33,0.33,0.33
123.55,5.76,5.48,5.75,5.48,-5.48,-5.34,-6.09,0.28,0.27,0.28
124.79,5.73,5.51,5.72,5.51,-5.51,-5.38,-6.12,0.21,0.21,0.22
126.03,5.70,5.54,5.69,5.54,-5.54,-5.40,-6.13,0.16,0.15,0.16
127.29,5.66,5.56,5.66,5.57,-5.57,-5.43,-6.14,0.09,0.09,0.10
128.57,5.62,5.59,5.63,5.60,-5.60,-5.46,-6.13,0.02,0.03,0.03
129.85,5.59,5.62,5.59,5.62,-5.62,-5.48,-6.12,-0.03,-0.03,-0.03
131.15,5.56,5.65,5.56,5.64,-5.64,-5.51,-6.11,-0.09,-0.09,-0.09
132.46,5.52,5.67,5.52,5.67,-5.67,-5.53,-6.08,-0.15,-0.14,-0.15
133.79,5.49,5.68,5.48,5.68,-5.68,-5.56,-6.05,-0.20,-0.20,-0.20
135.12,5.45,5.71,5.44,5.70,-5.70,-5.58,-6.02,-0.25,-0.26,-0.26
136.48,5.41,5.71,5.40,5.71,-5.71,-5.60,-5.98,-0.30,-0.31,-0.31
137.84,5.37,5.73,5.36,5.72,-5.72,-5.62,-5.93,-0.35,-0.36,-0.36
139.22,5.32,5.74,5.32,5.73,-5.73,-5.64,-5.88,-0.41,-0.41,-0.42
140.61,5.27,5.74,5.27,5.73,-5.73,-5.65,-5.83,-0.46,-0.46,-0.48
142.02,5.22,5.72,5.22,5.73,-5.73,-5.67,-5.77,-0.52,-0.51,-0.51
143.44,5.18,5.73,5.17,5.73,-5.73,-5.68,-5.71,-0.55,-0.56,-0.56
144.87,5.13,5.73,5.12,5.73,-5.73,-5.70,-5.65,-0.60,-0.61,-0.61
146.32,5.07,5.72,5.07,5.73,-5.73,-5.71,-5.59,-0.66,-0.65,-0.65
147.78,5.02,5.71,5.02,5.72,-5.72,-5.72,-5.53,-0.70,-0.70,-0.69
149.26,4.96,5.70,4.97,5.71,-5.71,-5.73,-5.47,-0.76,-0.75,-0.74
150.75,4.91,5.70,4.91,5.70,-5.70,-5.74,-5.41,-0.80,-0.79,-0.79
152.26,4.85,5.69,4.85,5.69,-5.69,-5.74,-5.35,-0.84,-0.84,-0.84
153.78,4.80,5.68,4.79,5.68,-5.68,-5.75,-5.29,-0.88,-0.89,-0.88
155.32,4.74,5.67,4.73,5.66,-5.66,-5.76,-5.23,-0.92,-0.93,-0.93
156.88,4.68,5.65,4.67,5.64,-5.64,-5.76,-5.18,-0.97,-0.98,-0.98
158.44,4.63,5.65,4.60,5.63,-5.63,-5.76,-5.12,-1.00,-1.03,-1.03
160.03,4.56,5.63,4.54,5.61,-5.61,-5.76,-5.07,-1.05,-1.07,-1.08
161.63,4.49,5.61,4.47,5.59,-5.59,-5.76,-5.02,-1.10,-1.12,-1.12
163.24,4.41,5.58,4.41,5.58,-5.58,-5.76,-4.98,-1.17,-1.16,-1.17
164.88,4.34,5.55,4.35,5.56,-5.56,-5.76,-4.94,-1.22,-1.21,-1.21
166.53,4.26,5.51,4.29,5.55,-5.55,-5.76,-4.90,-1.29,-1.25,-1.25
168.19,4.21,5.51,4.23,5.53,-5.53,-5.75,-4.86,-1.33,-1.30,-1.30
169.87,4.16,5.50,4.18,5.52,-5.52,-5.75,-4.83,-1.37,-1.34,-1.34
171.57,4.12,5.50,4.13,5.52,-5.52,-5.74,-4.80,-1.40,-1.39,-1.39
173.29,4.08,5.51,4.08,5.51,-5.51,-5.73,-4.78,-1.43,-1.43,-1.43
175.02,4.04,5.51,4.03,5.51,-5.51,-5.73,-4.75,-1.47,-1.48,-1.47
176.77,4.00,5.52,3.98,5.50,-5.50,-5.72,-4.74,-1.51,-1.52,-1.52
178.54,3.95,5.52,3.94,5.50,-5.50,-5.70,-4.72,-1.56,-1.56,-1.57
180.32,3.91,5.51,3.90,5.51,-5.51,-5.69,-4.71,-1.60,-1.60,-1.61
182.13,3.87,5.51,3.87,5.51,-5.51,-5.68,-4.71,-1.65,-1.65,-1.64
183.95,3.83,5.52,3.83,5.52,-5.52,-5.67,-4.70,-1.69,-1.69,-1.69
185.79,3.79,5.52,3.79,5.52,-5.52,-5.65,-4.70,-1.73,-1.73,-1.73
187.65,3.76,5.53,3.75,5.52,-5.52,-5.63,-4.71,-1.76,-1.77,-1.77
189.52,3.72,5.53,3.72,5.52,-5.52,-5.62,-4.71,-1.80,-1.81,-1.81
191.42,3.68,5.52,3.68,5.52,-5.52,-5.60,-4.72,-1.84,-1.84,-1.84
193.33,3.64,5.51,3.64,5.52,-5.52,-5.58,-4.74,-1.88,-1.88,-1.87
195.27,3.60,5.50,3.61,5.52,-5.52,-5.56,-4.75,-1.92,-1.91,-1.91
197.22,3.57,5.51,3.57,5.51,-5.51,-5.54,-4.77,-1.94,-1.94,-1.94
199.19,3.54,5.52,3.53,5.50,-5.50,-5.52,-4.79,-1.97,-1.97,-1.98
201.18,3.50,5.50,3.50,5.50,-5.50,-5.49,-4.82,-2.00,-2.00,-2.00
203.19,3.46,5.48,3.46,5.48,-5.48,-5.47,-4.84,-2.02,-2.02,-2.02
205.23,3.43,5.48,3.42,5.46,-5.46,-5.45,-4.87,-2.04,-2.05,-2.05
207.28,3.39,5.44,3.38,5.44,-5.44,-5.42,-4.90,-2.05,-2.07,-2.06
209.35,3.35,5.43,3.33,5.42,-5.42,-5.39,-4.93,-2.07,-2.09,-2.08
211.44,3.32,5.43,3.29,5.39,-5.39,-5.37,-4.96,-2.08,-2.10,-2.11
213.56,3.28,5.40,3.25,5.37,-5.37,-5.34,-5.00,-2.09,-2.12,-2.12
215.69,3.24,5.36,3.22,5.35,-5.35,-5.31,-5.03,-2.11,-2.13,-2.12
217.85,3.18,5.32,3.19,5.33,-5.33,-5.28,-5.06,-2.16,-2.14,-2.14
220.03,3.14,5.29,3.16,5.31,-5.31,-5.25,-5.09,-2.18,-2.15,-2.16
222.23,3.09,5.26,3.14,5.30,-5.30,-5.22,-5.12,-2.21,-2.16,-2.17
224.45,3.05,5.21,3.12,5.28,-5.28,-5.19,-5.15,-2.24,-2.16,-2.16
226.70,3.05,5.22,3.10,5.27,-5.27,-5.16,-5.18,-2.22,-2.17,-2.17
228.96,3.06,5.23,3.09,5.26,-5.26,-5.12,-5.20,-2.20,-2.17,-2.17
231.25,3.08,5.24,3.07,5.24,-5.24,-5.09,-5.22,-2.17,-2.17,-2.16
233.57,3.09,5.25,3.06,5.23,-5.23,-5.06,-5.24,-2.14,-2.17,-2.17
235.90,3.09,5.25,3.04,5.21,-5.21,-5.02,-5.25,-2.12,-2.17,-2.17
238.26,3.06,5.23,3.02,5.19,-5.19,-4.99,-5.26,-2.13,-2.16,-2.17
240.64,3.03,5.19,3.00,5.16,-5.16,-4.95,-5.27,-2.13,-2.16,-2.16
243.05,3.00,5.15,2.98,5.13,-5.13,-4.92,-5.27,-2.13,-2.15,-2.15
245.48,2.98,5.12,2.95,5.09,-5.09,-4.88,-5.27,-2.11,-2.14,-2.14
247.93,2.94,5.07,2.91,5.04,-5.04,-4.84,-5.26,-2.10,-2.13,-2.13
250.41,2.88,5.01,2.86,4.98,-4.98,-4.81,-5.24,-2.10,-2.12,-2.13
252.92,2.81,4.92,2.80,4.91,-4.91,-4.77,-5.22,-2.10,-2.11,-2.11
255.45,2.75,4.84,2.74,4.83,-4.83,-4.73,-5.20,-2.08,-2.09,-2.09
258.00,2.69,4.76,2.68,4.76,-4.76,-4.69,-5.17,-2.07,-2.08,-2.08
260.58,2.63,4.69,2.62,4.68,-4.68,-4.65,-5.13,-2.05,-2.06,-2.06
263.19,2.57,4.61,2.57,4.61,-4.61,-4.62,-5.09,-2.04,-2.04,-2.04
265.82,2.50,4.53,2.52,4.55,-4.55,-4.58,-5.05,-2.05,-2.03,-2.03
268.48,2.45,4.45,2.48,4.49,-4.49,-4.54,-5.00,-2.04,-2.01,-2.01
271.16,2.39,4.37,2.44,4.43,-4.43,-4.50,-4.95,-2.04,-1.99,-1.98
273.87,2.34,4.31,2.41,4.39,-4.39,-4.46,-4.89,-2.05,-1.97,-1.97
276.61,2.35,4.29,2.40,4.35,-4.35,-4.42,-4.84,-2.00,-1.95,-1.95
279.38,2.36,4.29,2.38,4.32,-4.32,-4.37,-4.77,-1.96,-1.93,-1.93
282.17,2.37,4.29,2.38,4.30,-4.30,-4.33,-4.71,-1.93,-1.92,-1.92
284.99,2.38,4.27,2.37,4.27,-4.27,-4.29,-4.65,-1.89,-1.90,-1.90
287.84,2.39,4.27,2.37,4.25,-4.25,-4.25,-4.58,-1.86,-1.88,-1.88
290.72,2.39,4.24,2.37,4.23,-4.23,-4.21,-4.51,-1.84,-1.86,-1.86
293.63,2.39,4.23,2.36,4.20,-4.20,-4.17,-4.44,-1.81,-1.84,-1.84
296.57,2.39,4.20,2.35,4.17,-4.17,-4.13,-4.37,-1.78,-1.82,-1.82
299.53,2.39,4.19,2.34,4.13,-4.13,-4.08,-4.30,-1.75,-1.80,-1.80
302.53,2.36,4.14,2.31,4.09,-4.09,-4.04,-4.24,-1.73,-1.77,-1.79
305.55,2.32,4.07,2.28,4.03,-4.03,-4.00,-4.17,-1.72,-1.75,-1.75
308.61,2.26,3.99,2.24,3.97,-3.97,-3.96,-4.10,-1.71,-1.73,-1.73
311.69,2.21,3.92,2.19,3.90,-3.90,-3.92,-4.04,-1.70,-1.71,-1.71
314.81,2.15,3.82,2.15,3.83,-3.83,-3.87,-3.97,-1.68,-1.69,-1.67
317.96,2.09,3.74,2.09,3.76,-3.76,-3.83,-3.91,-1.67,-1.66,-1.66
321.14,2.03,3.67,2.04,3.68,-3.68,-3.79,-3.85,-1.66,-1.64,-1.64
324.35,1.97,3.59,1.99,3.61,-3.61,-3.75,-3.79,-1.64,-1.62,-1.62
327.59,1.92,3.52,1.94,3.54,-3.54,-3.70,-3.74,-1.62,-1.60,-1.60
330.87,1.86,3.44,1.89,3.47,-3.47,-3.66,-3.68,-1.62,-1.58,-1.58
334.18,1.82,3.38,1.86,3.42,-3.42,-3.62,-3.63,-1.60,-1.56,-1.56
337.52,1.79,3.33,1.82,3.36,-3.36,-3.58,-3.58,-1.58,-1.54,-1.55
340.90,1.78,3.30,1.80,3.32,-3.32,-3.54,-3.54,-1.54,-1.52,-1.52
344.30,1.75,3.25,1.77,3.27,-3.27,-3.49,-3.49,-1.53,-1.50,-1.50
347.75,1.74,3.22,1.75,3.23,-3.23,-3.45,-3.45,-1.49,-1.49,-1.49
351.23,1.72,3.19,1.72,3.19,-3.19,-3.41,-3.41,-1.47,-1.47,-1.47
354.74,1.70,3.15,1.69,3.14,-3.14,-3.37,-3.37,-1.45,-1.45,-1.45
358.28,1.68,3.11,1.66,3.10,-3.10,-3.33,-3.34,-1.42,-1.43,-1.43
361.87,1.67,3.08,1.63,3.05,-3.05,-3.28,-3.31,-1.38,-1.42,-1.42
365.49,1.65,3.05,1.59,2.99,-2.99,-3.24,-3.28,-1.34,-1.40,-1.40
369.14,1.59,2.98,1.53,2.92,-2.92,-3.20,-3.25,-1.33,-1.39,-1.39
372.83,1.52,2.89,1.47,2.84,-2.84,-3.16,-3.23,-1.32,-1.37,-1.37
376.56,1.44,2.80,1.40,2.76,-2.76,-3.12,-3.21,-1.32,-1.36,-1.36
380.33,1.36,2.69,1.33,2.67,-2.67,-3.08,-3.19,-1.31,-1.34,-1.34
384.13,1.29,2.62,1.25,2.58,-2.58,-3.04,-3.17,-1.29,-1.33,-1.33
387.97,1.20,2.52,1.17,2.49,-2.49,-3.00,-3.16,-1.29,-1.32,-1.32
391.85,1.12,2.43,1.09,2.40,-2.40,-2.96,-3.15,-1.28,-1.31,-1.31
395.77,1.04,2.33,1.03,2.32,-2.32,-2.92,-3.14,-1.28,-1.30,-1.29
399.73,0.95,2.23,0.97,2.26,-2.26,-2.88,-3.13,-1.31,-1.28,-1.28
403.72,0.87,2.14,0.94,2.22,-2.22,-2.84,-3.12,-1.35,-1.27,-1.28
407.76,0.85,2.11,0.94,2.20,-2.20,-2.80,-3.11,-1.35,-1.26,-1.27
411.84,0.89,2.14,0.96,2.21,-2.21,-2.76,-3.11,-1.32,-1.25,-1.25
415.96,0.93,2.17,1.00,2.24,-2.24,-2.72,-3.11,-1.32,-1.24,-1.24
420.12,0.97,2.20,1.07,2.30,-2.30,-2.68,-3.10,-1.34,-1.23,-1.23
424.32,1.02,2.24,1.17,2.39,-2.39,-2.64,-3.10,-1.37,-1.22,-1.22
428.56,1.19,2.40,1.28,2.49,-2.49,-2.60,-3.10,-1.30,-1.21,-1.21
432.85,1.37,2.57,1.41,2.61,-2.61,-2.56,-3.10,-1.24,-1.20,-1.20
437.18,1.56,2.75,1.55,2.74,-2.74,-2.52,-3.10,-1.18,-1.19,-1.20
441.55,1.74,2.91,1.69,2.87,-2.87,-2.49,-3.10,-1.14,-1.18,-1.18
445.96,1.93,3.10,1.84,3.01,-3.01,-2.45,-3.09,-1.08,-1.17,-1.17
450.42,2.07,3.23,1.98,3.13,-3.13,-2.41,-3.09,-1.06,-1.15,-1.16
454.93,2.18,3.32,2.10,3.24,-3.24,-2.37,-3.09,-1.06,-1.14,-1.14
459.48,2.28,3.41,2.20,3.33,-3.33,-2.34,-3.08,-1.05,-1.13,-1.13
464.07,2.38,3.49,2.29,3.40,-3.40,-2.30,-3.07,-1.02,-1.11,-1.11
468.71,2.44,3.53,2.36,3.45,-3.45,-2.26,-3.07,-1.02,-1.10,-1.09
473.40,2.44,3.52,2.40,3.48,-3.48,-2.23,-3.05,-1.04,-1.08,-1.08
478.13,2.43,3.49,2.42,3.48,-3.48,-2.19,-3.04,-1.05,-1.07,-1.06
482.91,2.41,3.46,2.41,3.47,-3.47,-2.16,-3.03,-1.06,-1.05,-1.05
487.74,2.40,3.43,2.40,3.44,-3.44,-2.12,-3.01,-1.04,-1.04,-1.04
492.62,2.37,3.38,2.37,3.39,-3.39,-2.09,-2.99,-1.03,-1.02,-1.02
497.55,2.32,3.32,2.34,3.34,-3.34,-2.05,-2.96,-1.02,-1.00,-1.01
502.52,2.27,3.25,2.30,3.29,-3.29,-2.02,-2.94,-1.02,-0.99,-0.99
507.55,2.22,3.20,2.26,3.23,-3.23,-1.98,-2.91,-1.01,-0.97,-0.98
512.62,2.18,3.14,2.21,3.17,-3.17,-1.95,-2.87,-0.99,-0.96,-0.96
