frequency,raw,error,smoothed,error_smoothed,equalization,parametric_eq,fixed_band_eq,equalized_raw,equalized_smoothed,target
20.00,-5.69,-15.84,-5.69,-15.84,15.84,15.15,6.93,10.16,10.16,10.16
20.20,-5.65,-15.79,-5.64,-15.79,15.79,15.21,7.09,10.14,10.14,10.14
20.40,-5.59,-15.73,-5.60,-15.73,15.73,15.26,7.26,10.14,10.13,10.13
20.61,-5.56,-15.68,-5.56,-15.68,15.68,15.31,7.43,10.12,10.12,10.12
20.81,-5.51,-15.62,-5.52,-15.62,15.62,15.35,7.61,10.11,10.11,10.10
21.02,-5.48,-15.57,-5.47,-15.57,15.57,15.38,7.78,10.09,10.10,10.09
21.23,-5.44,-15.52,-5.43,-15.52,15.52,15.41,7.97,10.08,10.09,10.08
21.44,-5.38,-15.47,-5.39,-15.47,15.47,15.44,8.16,10.08,10.08,10.09
21.66,-5.35,-15.41,-5.35,-15.41,15.41,15.46,8.35,10.07,10.07,10.07
21.87,-5.30,-15.37,-5.30,-15.36,15.36,15.48,8.55,10.06,10.06,10.07
22.09,-5.26,-15.31,-5.26,-15.31,15.31,15.49,8.76,10.05,10.05,10.05
22.31,-5.22,-15.27,-5.22,-15.27,15.27,15.49,8.97,10.04,10.04,10.05
22.54,-5.19,-15.22,-5.18,-15.22,15.22,15.50,9.19,10.03,10.04,10.03
22.76,-5.14,-15.17,-5.14,-15.17,15.17,15.49,9.41,10.04,10.03,10.03
22.99,-5.10,-15.12,-5.10,-15.12,15.12,15.48,9.64,10.03,10.03,10.02
23.22,-5.06,-15.07,-5.06,-15.08,15.08,15.47,9.87,10.02,10.02,10.01
23.45,-5.02,-15.03,-5.02,-15.03,15.03,15.45,10.12,10.02,10.01,10.02
23.69,-4.98,-14.98,-4.98,-14.99,14.99,15.43,10.37,10.01,10.01,10.01
23.92,-4.93,-14.93,-4.94,-14.94,14.94,15.40,10.62,10.01,10.00,10.00
24.16,-4.89,-14.90,-4.89,-14.90,14.90,15.37,10.89,10.00,10.00,10.01
24.40,-4.85,-14.86,-4.85,-14.85,14.85,15.34,11.16,10.00,10.00,10.00
24.65,-4.82,-14.82,-4.81,-14.81,14.81,15.30,11.44,9.99,10.00,10.00
24.89,-4.77,-14.77,-4.77,-14.77,14.77,15.26,11.72,9.99,9.99,10.00
25.14,-4.73,-14.72,-4.73,-14.72,14.72,15.22,12.02,9.99,9.99,9.99
25.39,-4.69,-14.68,-4.69,-14.68,14.68,15.17,12.32,9.99,9.99,9.99
25.65,-4.66,-14.64,-4.65,-14.64,14.64,15.12,12.63,9.99,9.99,9.99
25.91,-4.61,-14.59,-4.61,-14.60,14.60,15.07,12.95,9.99,9.99,9.98
26.16,-4.56,-14.56,-4.57,-14.56,14.56,15.01,13.27,9.99,9.99,9.99
26.43,-4.54,-14.52,-4.53,-14.52,14.52,14.96,13.60,9.98,9.99,9.99
26.69,-4.50,-14.48,-4.49,-14.48,14.48,14.90,13.94,9.99,9.99,9.99
26.96,-4.46,-14.44,-4.46,-14.44,14.44,14.84,14.28,9.99,9.99,9.98
27.23,-4.42,-14.40,-4.42,-14.40,14.40,14.78,14.63,9.99,9.99,9.98
27.50,-4.38,-14.36,-4.38,-14.37,14.37,14.72,14.98,9.99,9.99,9.98
27.77,-4.34,-14.33,-4.34,-14.33,14.33,14.65,15.34,9.99,9.99,9.99
28.05,-4.31,-14.29,-4.31,-14.30,14.30,14.59,15.69,9.99,9.99,9.98
28.33,-4.28,-14.27,-4.27,-14.26,14.26,14.52,16.04,9.98,9.99,9.99
28.62,-4.24,-14.23,-4.23,-14.22,14.22,14.45,16.38,9.99,9.99,9.99
28.90,-4.20,-14.19,-4.20,-14.19,14.19,14.39,16.72,9.99,9.99,10.00
29.19,-4.17,-14.16,-4.16,-14.15,14.15,14.32,17.03,9.98,9.99,9.99
29.48,-4.13,-14.11,-4.13,-14.11,14.11,14.25,17.33,9.99,9.99,9.99
29.78,-4.10,-14.08,-4.09,-14.07,14.07,14.18,17.60,9.98,9.98,9.99
30.08,-4.06,-14.04,-4.06,-14.04,14.04,14.12,17.84,9.98,9.98,9.98
30.38,-4.03,-14.00,-4.02,-14.00,14.00,14.05,18.03,9.97,9.97,9.97
30.68,-3.99,-13.95,-3.99,-13.96,13.96,13.98,18.19,9.97,9.97,9.97
30.99,-3.96,-13.92,-3.96,-13.92,13.92,13.92,18.30,9.97,9.96,9.96
31.30,-3.93,-13.88,-3.93,-13.88,13.88,13.85,18.36,9.96,9.96,9.96
31.61,-3.90,-13.85,-3.90,-13.84,13.84,13.78,18.36,9.95,9.95,9.95
31.93,-3.87,-13.80,-3.87,-13.81,13.81,13.72,18.32,9.94,9.94,9.93
32.24,-3.83,-13.77,-3.84,-13.77,13.77,13.66,18.23,9.94,9.93,9.93
32.57,-3.81,-13.73,-3.81,-13.73,13.73,13.59,18.10,9.93,9.92,9.92
32.89,-3.79,-13.70,-3.78,-13.70,13.70,13.53,17.93,9.91,9.92,9.91
33.22,-3.76,-13.67,-3.75,-13.66,13.66,13.47,17.73,9.91,9.91,9.91
33.55,-3.74,-13.64,-3.73,-13.63,13.63,13.41,17.51,9.89,9.90,9.90
33.89,-3.71,-13.59,-3.70,-13.59,13.59,13.35,17.26,9.89,9.89,9.89
34.23,-3.68,-13.55,-3.68,-13.56,13.56,13.29,17.00,9.88,9.88,9.87
34.57,-3.65,-13.51,-3.65,-13.52,13.52,13.23,16.73,9.88,9.87,9.87
34.92,-3.63,-13.48,-3.62,-13.48,13.48,13.17,16.46,9.86,9.86,9.85
35.27,-3.60,-13.46,-3.60,-13.45,13.45,13.12,16.18,9.85,9.85,9.86
35.62,-3.58,-13.41,-3.57,-13.41,13.41,13.07,15.91,9.83,9.84,9.84
35.97,-3.55,-13.38,-3.55,-13.37,13.37,13.01,15.63,9.82,9.82,9.83
36.33,-3.53,-13.34,-3.52,-13.33,13.33,12.96,15.36,9.80,9.81,9.81
36.70,-3.50,-13.28,-3.50,-13.28,13.28,12.91,15.10,9.79,9.79,9.79
37.06,-3.48,-13.24,-3.47,-13.24,13.24,12.86,14.84,9.77,9.77,9.77
37.43,-3.44,-13.20,-3.45,-13.20,13.20,12.81,14.59,9.75,9.75,9.75
37.81,-3.42,-13.15,-3.43,-13.16,13.16,12.77,14.35,9.74,9.73,9.73
38.19,-3.40,-13.10,-3.41,-13.11,13.11,12.72,14.12,9.72,9.71,9.70
38.57,-3.39,-13.07,-3.38,-13.07,13.07,12.68,13.90,9.68,9.68,9.68
38.95,-3.37,-13.03,-3.36,-13.02,13.02,12.63,13.69,9.66,9.66,9.66
39.34,-3.35,-12.98,-3.34,-12.98,12.98,12.59,13.48,9.63,9.64,9.64
39.74,-3.33,-12.93,-3.32,-12.94,12.94,12.55,13.29,9.61,9.61,9.61
40.14,-3.31,-12.89,-3.30,-12.89,12.89,12.51,13.11,9.59,9.59,9.58
40.54,-3.29,-12.85,-3.28,-12.85,12.85,12.47,12.93,9.56,9.56,9.56
40.94,-3.27,-12.80,-3.26,-12.80,12.80,12.44,12.76,9.54,9.54,9.53
41.35,-3.25,-12.76,-3.24,-12.76,12.76,12.40,12.61,9.51,9.51,9.51
41.76,-3.23,-12.70,-3.22,-12.71,12.71,12.36,12.46,9.49,9.49,9.48
42.18,-3.21,-12.67,-3.20,-12.66,12.66,12.33,12.32,9.46,9.46,9.47
42.60,-3.19,-12.62,-3.18,-12.61,12.61,12.30,12.19,9.43,9.43,9.43
43.03,-3.17,-12.57,-3.16,-12.57,12.57,12.26,12.07,9.40,9.41,9.41
43.46,-3.14,-12.51,-3.14,-12.52,12.52,12.23,11.96,9.38,9.38,9.38
43.90,-3.12,-12.47,-3.11,-12.47,12.47,12.20,11.85,9.35,9.35,9.35
44.33,-3.09,-12.40,-3.09,-12.41,12.41,12.17,11.75,9.33,9.32,9.32
44.78,-3.07,-12.36,-3.07,-12.36,12.36,12.14,11.67,9.29,9.29,9.29
45.23,-3.05,-12.31,-3.05,-12.30,12.30,12.11,11.59,9.25,9.25,9.26
45.68,-3.03,-12.24,-3.02,-12.24,12.24,12.08,11.51,9.22,9.22,9.22
46.13,-3.01,-12.19,-3.00,-12.18,12.18,12.05,11.45,9.17,9.18,9.18
46.60,-2.99,-12.13,-2.98,-12.12,12.12,12.02,11.39,9.13,9.14,9.14
47.06,-2.97,-12.07,-2.96,-12.06,12.06,11.99,11.34,9.09,9.10,9.10
47.53,-2.95,-12.01,-2.94,-11.99,11.99,11.96,11.29,9.05,9.05,9.06
48.01,-2.93,-11.93,-2.92,-11.93,11.93,11.93,11.26,9.01,9.01,9.00
48.49,-2.91,-11.87,-2.91,-11.87,11.87,11.90,11.22,8.97,8.96,8.96
48.97,-2.88,-11.79,-2.89,-11.81,11.81,11.87,11.20,8.94,8.92,8.91
49.46,-2.87,-11.74,-2.88,-11.75,11.75,11.84,11.18,8.89,8.87,8.87
49.96,-2.86,-11.66,-2.87,-11.69,11.69,11.81,11.16,8.84,8.82,8.81
50.46,-2.86,-11.63,-2.85,-11.63,11.63,11.78,11.15,8.78,8.78,8.77
50.96,-2.85,-11.58,-2.84,-11.57,11.57,11.75,11.15,8.73,8.73,8.73
51.47,-2.84,-11.52,-2.83,-11.51,11.51,11.71,11.15,8.68,8.68,8.68
51.99,-2.83,-11.45,-2.82,-11.45,11.45,11.68,11.15,8.63,8.64,8.63
52.51,-2.82,-11.41,-2.80,-11.39,11.39,11.64,11.16,8.58,8.59,8.59
53.03,-2.81,-11.36,-2.79,-11.33,11.33,11.60,11.17,8.53,8.54,8.55
53.56,-2.79,-11.29,-2.78,-11.27,11.27,11.56,11.17,8.49,8.50,8.51
54.10,-2.77,-11.21,-2.76,-11.21,11.21,11.52,11.19,8.45,8.45,8.45
54.64,-2.75,-11.15,-2.75,-11.16,11.16,11.48,11.20,8.41,8.41,8.41
55.18,-2.73,-11.08,-2.73,-11.10,11.10,11.44,11.21,8.37,8.36,8.35
55.74,-2.72,-11.02,-2.72,-11.04,11.04,11.39,11.22,8.32,8.32,8.30
56.29,-2.70,-10.96,-2.70,-10.97,10.97,11.34,11.22,8.28,8.27,8.27
56.86,-2.68,-10.90,-2.69,-10.91,10.91,11.29,11.23,8.24,8.23,8.22
57.42,-2.67,-10.83,-2.67,-10.85,10.85,11.23,11.23,8.18,8.18,8.17
58.00,-2.65,-10.77,-2.65,-10.78,10.78,11.18,11.22,8.14,8.13,8.12
58.58,-2.64,-10.72,-2.64,-10.71,10.71,11.12,11.21,8.08,8.08,8.08
59.16,-2.64,-10.68,-2.62,-10.64,10.64,11.06,11.20,8.01,8.02,8.04
59.76,-2.62,-10.61,-2.60,-10.57,10.57,10.99,11.17,7.96,7.97,7.99
60.35,-2.60,-10.53,-2.58,-10.50,10.50,10.93,11.14,7.90,7.92,7.93
60.96,-2.57,-10.44,-2.56,-10.42,10.42,10.86,11.10,7.86,7.86,7.87
61.57,-2.55,-10.34,-2.55,-10.35,10.35,10.79,11.05,7.80,7.80,7.80
62.18,-2.53,-10.26,-2.53,-10.27,10.27,10.71,10.99,7.74,7.74,7.73
62.80,-2.52,-10.18,-2.51,-10.19,10.19,10.64,10.93,7.67,7.68,7.67
63.43,-2.50,-10.10,-2.49,-10.11,10.11,10.56,10.85,7.61,7.62,7.60
64.07,-2.48,-10.02,-2.48,-10.03,10.03,10.47,10.76,7.55,7.55,7.54
64.71,-2.46,-9.94,-2.46,-9.95,9.95,10.39,10.67,7.50,7.49,7.48
65.35,-2.44,-9.86,-2.45,-9.88,9.88,10.30,10.57,7.44,7.43,7.42
66.01,-2.43,-9.79,-2.44,-9.81,9.81,10.21,10.46,7.38,7.36,7.36
66.67,-2.42,-9.72,-2.44,-9.74,9.74,10.12,10.34,7.32,7.30,7.31
67.33,-2.42,-9.65,-2.43,-9.67,9.67,10.03,10.21,7.25,7.23,7.23
68.01,-2.43,-9.60,-2.43,-9.60,9.60,9.93,10.08,7.18,7.17,7.18
68.69,-2.43,-9.53,-2.43,-9.53,9.53,9.83,9.94,7.11,7.11,7.11
69.37,-2.43,-9.48,-2.42,-9.46,9.46,9.73,9.80,7.04,7.04,7.05
70.07,-2.44,-9.42,-2.42,-9.39,9.39,9.63,9.66,6.96,6.98,6.98
70.77,-2.44,-9.35,-2.41,-9.32,9.32,9.53,9.51,6.89,6.91,6.91
71.48,-2.43,-9.27,-2.41,-9.25,9.25,9.42,9.36,6.82,6.84,6.85
72.19,-2.42,-9.19,-2.40,-9.17,9.17,9.31,9.21,6.76,6.77,6.77
72.91,-2.40,-9.09,-2.39,-9.09,9.09,9.20,9.06,6.70,6.71,6.70
73.64,-2.38,-9.01,-2.37,-9.01,9.01,9.09,8.90,6.64,6.64,6.63
74.38,-2.36,-8.92,-2.35,-8.93,8.93,8.98,8.75,6.57,6.57,6.56
75.12,-2.34,-8.84,-2.33,-8.84,8.84,8.87,8.60,6.50,6.51,6.51
75.87,-2.31,-8.75,-2.31,-8.75,8.75,8.76,8.45,6.45,6.45,6.45
76.63,-2.28,-8.65,-2.28,-8.66,8.66,8.65,8.31,6.39,6.38,6.37
77.40,-2.26,-8.58,-2.25,-8.57,8.57,8.53,8.16,6.32,6.32,6.32
78.17,-2.23,-8.47,-2.23,-8.48,8.48,8.42,8.02,6.26,6.26,6.25
78.95,-2.21,-8.41,-2.20,-8.40,8.40,8.30,7.88,6.19,6.20,6.20
79.74,-2.18,-8.31,-2.17,-8.31,8.31,8.19,7.75,6.13,6.13,6.14
80.54,-2.15,-8.22,-2.15,-8.23,8.23,8.07,7.62,6.08,6.07,6.08
81.35,-2.13,-8.14,-2.13,-8.15,8.15,7.96,7.49,6.02,6.01,6.01
82.16,-2.12,-8.08,-2.12,-8.07,8.07,7.84,7.37,5.95,5.95,5.96
82.98,-2.10,-7.98,-2.11,-7.99,7.99,7.72,7.25,5.90,5.89,5.89
83.81,-2.09,-7.91,-2.10,-7.92,7.92,7.61,7.14,5.84,5.82,5.83
84.65,-2.08,-7.83,-2.10,-7.86,7.86,7.49,7.03,5.78,5.76,5.75
85.50,-2.08,-7.77,-2.10,-7.79,7.79,7.38,6.92,5.71,5.69,5.69
86.35,-2.08,-7.70,-2.10,-7.72,7.72,7.27,6.82,5.65,5.63,5.63
87.22,-2.09,-7.65,-2.10,-7.66,7.66,7.15,6.72,5.57,5.56,5.56
88.09,-2.11,-7.60,-2.10,-7.59,7.59,7.04,6.63,5.49,5.49,5.49
88.97,-2.12,-7.54,-2.10,-7.53,7.53,6.93,6.54,5.41,5.43,5.43
89.86,-2.13,-7.48,-2.10,-7.46,7.46,6.81,6.46,5.33,5.36,5.36
90.76,-2.13,-7.41,-2.10,-7.39,7.39,6.70,6.38,5.26,5.28,5.29
91.66,-2.12,-7.32,-2.10,-7.31,7.31,6.59,6.31,5.19,5.21,5.21
92.58,-2.11,-7.25,-2.09,-7.23,7.23,6.48,6.24,5.12,5.14,5.15
93.51,-2.09,-7.16,-2.07,-7.14,7.14,6.38,6.17,5.05,5.07,5.08
94.44,-2.07,-7.07,-2.05,-7.05,7.05,6.27,6.11,4.98,4.99,5.00
95.39,-2.05,-6.97,-2.03,-6.95,6.95,6.16,6.06,4.91,4.92,4.92
96.34,-2.02,-6.86,-2.01,-6.85,6.85,6.06,6.00,4.84,4.85,4.85
97.30,-1.98,-6.75,-1.98,-6.75,6.75,5.95,5.95,4.77,4.77,4.77
98.28,-1.95,-6.64,-1.95,-6.64,6.64,5.85,5.90,4.70,4.70,4.69
99.26,-1.92,-6.53,-1.91,-6.54,6.54,5.75,5.86,4.63,4.63,4.62
100.25,-1.88,-6.42,-1.89,-6.44,6.44,5.64,5.82,4.56,4.55,4.54
101.25,-1.85,-6.32,-1.86,-6.34,6.34,5.54,5.78,4.50,4.48,4.48
102.27,-1.83,-6.24,-1.84,-6.25,6.25,5.45,5.75,4.42,4.41,4.41
103.29,-1.81,-6.14,-1.82,-6.16,6.16,5.35,5.72,4.36,4.34,4.34
104.32,-1.79,-6.06,-1.81,-6.08,6.08,5.25,5.69,4.29,4.27,4.27
105.37,-1.78,-5.98,-1.79,-6.00,6.00,5.16,5.66,4.22,4.20,4.21
106.42,-1.77,-5.91,-1.79,-5.92,5.92,5.06,5.63,4.16,4.13,4.14
107.48,-1.76,-5.82,-1.78,-5.85,5.85,4.97,5.60,4.09,4.06,4.06
108.56,-1.77,-5.76,-1.78,-5.77,5.77,4.88,5.58,4.01,3.99,4.00
109.64,-1.78,-5.71,-1.78,-5.70,5.70,4.79,5.55,3.93,3.92,3.93
110.74,-1.80,-5.65,-1.77,-5.63,5.63,4.70,5.52,3.83,3.85,3.86
111.85,-1.80,-5.58,-1.77,-5.55,5.55,4.61,5.50,3.75,3.78,3.78
112.97,-1.79,-5.51,-1.76,-5.47,5.47,4.52,5.47,3.68,3.71,3.72
114.10,-1.78,-5.42,-1.75,-5.39,5.39,4.43,5.44,3.61,3.64,3.65
115.24,-1.75,-5.31,-1.73,-5.30,5.30,4.35,5.41,3.55,3.57,3.56
116.39,-1.74,-5.22,-1.71,-5.21,5.21,4.26,5.38,3.48,3.50,3.49
117.55,-1.71,-5.12,-1.69,-5.12,5.12,4.18,5.34,3.41,3.43,3.42
118.73,-1.68,-5.02,-1.66,-5.02,5.02,4.10,5.30,3.35,3.36,3.34
119.92,-1.63,-4.91,-1.63,-4.92,4.92,4.02,5.26,3.30,3.29,3.28
121.12,-1.60,-4.82,-1.60,-4.82,4.82,3.94,5.22,3.23,3.22,3.22
122.33,-1.57,-4.72,-1.57,-4.72,4.72,3.86,5.17,3.16,3.15,3.15
123.55,-1.54,-4.63,-1.54,-4.63,4.63,3.79,5.12,3.09,3.08,3.09
124.79,-1.51,-4.53,-1.52,-4.54,4.54,3.71,5.06,3.03,3.01,3.02
126.03,-1.48,-4.43,-1.50,-4.45,4.45,3.63,5.00,2.97,2.95,2.96
127.29,-1.47,-4.35,-1.49,-4.37,4.37,3.56,4.94,2.90,2.88,2.89
128.57,-1.45,-4.26,-1.47,-4.29,4.29,3.49,4.87,2.84,2.81,2.81
129.85,-1.44,-4.18,-1.47,-4.21,4.21,3.42,4.80,2.78,2.75,2.75
131.15,-1.44,-4.11,-1.46,-4.14,4.14,3.35,4.72,2.70,2.68,2.67
132.46,-1.45,-4.06,-1.45,-4.06,4.06,3.28,4.64,2.62,2.61,2.61
133.79,-1.47,-4.00,-1.45,-3.99,3.99,3.21,4.56,2.53,2.54,2.54
135.12,-1.48,-3.95,-1.44,-3.92,3.92,3.14,4.48,2.44,2.48,2.48
136.48,-1.47,-3.88,-1.43,-3.85,3.85,3.07,4.39,2.38,2.41,2.42
137.84,-1.45,-3.79,-1.42,-3.77,3.77,3.01,4.29,2.33,2.35,2.35
139.22,-1.44,-3.71,-1.41,-3.69,3.69,2.94,4.20,2.26,2.29,2.28
140.61,-1.42,-3.64,-1.39,-3.62,3.62,2.88,4.10,2.20,2.22,2.22
142.02,-1.38,-3.53,-1.37,-3.53,3.53,2.81,4.00,2.16,2.16,2.16
143.44,-1.36,-3.46,-1.35,-3.45,3.45,2.75,3.90,2.10,2.11,2.10
144.87,-1.32,-3.37,-1.32,-3.37,3.37,2.69,3.80,2.05,2.05,2.05
146.32,-1.29,-3.27,-1.29,-3.28,3.28,2.63,3.70,2.00,1.99,1.99
147.78,-1.26,-3.19,-1.26,-3.20,3.20,2.57,3.60,1.94,1.94,1.94
149.26,-1.23,-3.10,-1.24,-3.12,3.12,2.51,3.49,1.89,1.88,1.88
150.75,-1.20,-3.02,-1.21,-3.04,3.04,2.45,3.39,1.84,1.83,1.82
152.26,-1.17,-2.94,-1.19,-2.96,2.96,2.40,3.29,1.80,1.77,1.77
153.78,-1.15,-2.86,-1.17,-2.89,2.89,2.34,3.18,1.75,1.72,1.72
155.32,-1.14,-2.80,-1.16,-2.82,2.82,2.28,3.08,1.68,1.66,1.66
156.88,-1.13,-2.74,-1.14,-2.75,2.75,2.23,2.97,1.62,1.61,1.61
158.44,-1.13,-2.68,-1.12,-2.68,2.68,2.17,2.87,1.55,1.55,1.55
160.03,-1.13,-2.63,-1.11,-2.60,2.60,2.12,2.77,1.48,1.50,1.50
161.63,-1.12,-2.56,-1.09,-2.53,2.53,2.07,2.67,1.42,1.44,1.44
163.24,-1.11,-2.49,-1.07,-2.46,2.46,2.01,2.57,1.35,1.38,1.38
164.88,-1.08,-2.40,-1.05,-2.38,2.38,1.96,2.47,1.30,1.33,1.33
166.53,-1.06,-2.32,-1.03,-2.30,2.30,1.91,2.37,1.25,1.27,1.26
168.19,-1.03,-2.24,-1.01,-2.23,2.23,1.86,2.28,1.20,1.21,1.22
169.87,-0.99,-2.14,-0.99,-2.15,2.15,1.81,2.18,1.16,1.16,1.16
171.57,-0.96,-2.05,-0.96,-2.06,2.06,1.76,2.09,1.11,1.10,1.10
173.29,-0.93,-1.97,-0.94,-1.98,1.98,1.71,1.99,1.06,1.04,1.05
175.02,-0.89,-1.87,-0.91,-1.90,1.90,1.66,1.90,1.01,0.99,0.99
176.77,-0.87,-1.80,-0.89,-1.82,1.82,1.61,1.81,0.95,0.93,0.93
178.54,-0.85,-1.72,-0.86,-1.74,1.74,1.56,1.72,0.89,0.87,0.87
180.32,-0.84,-1.64,-0.84,-1.66,1.66,1.52,1.63,0.82,0.82,0.81
182.13,-0.83,-1.59,-0.81,-1.58,1.58,1.47,1.54,0.75,0.76,0.77
183.95,-0.80,-1.51,-0.79,-1.50,1.50,1.42,1.46,0.71,0.71,0.71
185.79,-0.78,-1.43,-0.77,-1.43,1.43,1.38,1.37,0.65,0.65,0.65
187.65,-0.76,-1.36,-0.75,-1.35,1.35,1.33,1.29,0.60,0.60,0.60
189.52,-0.74,-1.29,-0.73,-1.28,1.28,1.29,1.20,0.54,0.55,0.55
191.42,-0.73,-1.23,-0.71,-1.21,1.21,1.24,1.12,0.48,0.50,0.50
193.33,-0.69,-1.14,-0.68,-1.14,1.14,1.20,1.04,0.45,0.45,0.46
195.27,-0.66,-1.06,-0.66,-1.06,1.06,1.15,0.96,0.41,0.40,0.40
197.22,-0.63,-0.97,-0.63,-0.99,0.99,1.11,0.88,0.37,0.36,0.35
199.19,-0.61,-0.92,-0.60,-0.92,0.92,1.06,0.80,0.31,0.32,0.31
201.18,-0.58,-0.84,-0.58,-0.85,0.85,1.02,0.73,0.27,0.27,0.26
203.19,-0.56,-0.78,-0.55,-0.78,0.78,0.98,0.65,0.22,0.23,0.23
205.23,-0.53,-0.72,-0.52,-0.71,0.71,0.93,0.58,0.18,0.19,0.20
207.28,-0.49,-0.64,-0.49,-0.64,0.64,0.89,0.51,0.16,0.15,0.16
209.35,-0.46,-0.57,-0.46,-0.58,0.58,0.85,0.43,0.12,0.12,0.12
211.44,-0.43,-0.51,-0.43,-0.51,0.51,0.81,0.36,0.09,0.08,0.08
213.56,-0.40,-0.45,-0.40,-0.45,0.45,0.76,0.29,0.05,0.05,0.05
215.69,-0.37,-0.38,-0.37,-0.39,0.39,0.72,0.23,0.02,0.01,0.02
217.85,-0.34,-0.32,-0.34,-0.33,0.33,0.68,0.16,-0.01,-0.02,-0.02
220.03,-0.32,-0.26,-0.32,-0.27,0.27,0.63,0.10,-0.05,-0.05,-0.05
222.23,-0.30,-0.21,-0.29,-0.21,0.21,0.59,0.04,-0.09,-0.08,-0.09
224.45,-0.27,-0.16,-0.26,-0.15,0.15,0.55,-0.02,-0.11,-0.11,-0.11
226.70,-0.24,-0.09,-0.23,-0.09,0.09,0.51,-0.08,-0.14,-0.13,-0.14
228.96,-0.21,-0.05,-0.20,-0.04,0.04,0.47,-0.14,-0.16,-0.16,-0.15
231.25,-0.19,-0.00,-0.18,0.01,-0.01,0.42,-0.19,-0.19,-0.18,-0.18
233.57,-0.15,0.06,-0.15,0.05,-0.05,0.38,-0.24,-0.20,-0.20,-0.20
235.90,-0.11,0.12,-0.12,0.10,-0.10,0.34,-0.29,-0.21,-0.22,-0.22
238.26,-0.09,0.17,-0.10,0.14,-0.14,0.29,-0.34,-0.23,-0.24,-0.25
240.64,-0.06,0.19,-0.07,0.19,-0.19,0.25,-0.39,-0.24,-0.25,-0.25
243.05,-0.05,0.22,-0.04,0.23,-0.23,0.21,-0.43,-0.27,-0.27,-0.27
245.48,-0.02,0.27,-0.01,0.27,-0.27,0.17,-0.47,-0.28,-0.28,-0.28
247.93,0.01,0.32,0.02,0.31,-0.31,0.12,-0.51,-0.29,-0.29,-0.30
250.41,0.03,0.33,0.05,0.35,-0.35,0.08,-0.54,-0.31,-0.30,-0.30
252.92,0.07,0.38,0.08,0.39,-0.39,0.04,-0.57,-0.31,-0.31,-0.30
255.45,0.09,0.41,0.11,0.42,-0.42,-0.01,-0.60,-0.33,-0.32,-0.32
258.00,0.13,0.45,0.14,0.46,-0.46,-0.05,-0.63,-0.32,-0.32,-0.32
260.58,0.16,0.49,0.17,0.49,-0.49,-0.10,-0.65,-0.33,-0.33,-0.32
263.19,0.20,0.53,0.19,0.53,-0.53,-0.14,-0.68,-0.32,-0.33,-0.33
265.82,0.24,0.58,0.22,0.56,-0.56,-0.18,-0.70,-0.32,-0.34,-0.34
268.48,0.26,0.61,0.25,0.60,-0.60,-0.23,-0.72,-0.34,-0.35,-0.34
271.16,0.29,0.64,0.29,0.64,-0.64,-0.27,-0.73,-0.34,-0.35,-0.34
273.87,0.32,0.68,0.32,0.67,-0.67,-0.32,-0.75,-0.35,-0.36,-0.35
276.61,0.34,0.70,0.35,0.71,-0.71,-0.37,-0.76,-0.36,-0.36,-0.36
279.38,0.36,0.74,0.38,0.74,-0.74,-0.41,-0.78,-0.38,-0.36,-0.38
282.17,0.38,0.76,0.41,0.78,-0.78,-0.46,-0.79,-0.39,-0.37,-0.38
284.99,0.42,0.79,0.44,0.81,-0.81,-0.50,-0.80,-0.38,-0.37,-0.37
287.84,0.46,0.83,0.47,0.84,-0.84,-0.55,-0.81,-0.38,-0.37,-0.37
290.72,0.50,0.88,0.50,0.87,-0.87,-0.59,-0.82,-0.36,-0.37,-0.38
293.63,0.54,0.91,0.53,0.90,-0.90,-0.64,-0.83,-0.35,-0.37,-0.36
296.57,0.57,0.94,0.56,0.92,-0.92,-0.69,-0.83,-0.35,-0.36,-0.36
299.53,0.60,0.97,0.59,0.95,-0.95,-0.73,-0.84,-0.35,-0.36,-0.36
302.53,0.63,0.98,0.62,0.98,-0.98,-0.78,-0.85,-0.34,-0.36,-0.35
305.55,0.65,1.01,0.65,1.00,-1.00,-0.83,-0.86,-0.35,-0.35,-0.36
308.61,0.68,1.03,0.68,1.03,-1.03,-0.87,-0.86,-0.34,-0.35,-0.34
311.69,0.70,1.04,0.71,1.05,-1.05,-0.92,-0.87,-0.35,-0.34,-0.34
314.81,0.71,1.05,0.74,1.07,-1.07,-0.96,-0.88,-0.36,-0.34,-0.34
317.96,0.74,1.08,0.76,1.09,-1.09,-1.01,-0.89,-0.35,-0.33,-0.33
321.14,0.78,1.10,0.79,1.12,-1.12,-1.05,-0.90,-0.33,-0.32,-0.32
324.35,0.81,1.14,0.82,1.14,-1.14,-1.10,-0.90,-0.32,-0.32,-0.33
327.59,0.85,1.16,0.85,1.16,-1.16,-1.14,-0.91,-0.31,-0.31,-0.30
330.87,0.88,1.19,0.88,1.18,-1.18,-1.18,-0.93,-0.30,-0.31,-0.31
334.18,0.90,1.21,0.91,1.21,-1.21,-1.23,-0.94,-0.30,-0.30,-0.30
337.52,0.94,1.24,0.94,1.23,-1.23,-1.27,-0.95,-0.29,-0.29,-0.30
340.90,0.95,1.24,0.97,1.25,-1.25,-1.31,-0.96,-0.30,-0.29,-0.28
344.30,0.98,1.26,0.99,1.27,-1.27,-1.35,-0.98,-0.29,-0.28,-0.28
347.75,1.02,1.30,1.02,1.29,-1.29,-1.38,-0.99,-0.27,-0.27,-0.27
351.23,1.05,1.33,1.04,1.31,-1.31,-1.42,-1.01,-0.26,-0.27,-0.28
354.74,1.08,1.34,1.07,1.33,-1.33,-1.46,-1.03,-0.24,-0.26,-0.25
358.28,1.10,1.36,1.09,1.34,-1.34,-1.49,-1.04,-0.23,-0.25,-0.25
361.87,1.11,1.36,1.10,1.35,-1.35,-1.52,-1.06,-0.24,-0.25,-0.25
365.49,1.13,1.38,1.12,1.36,-1.36,-1.55,-1.08,-0.23,-0.24,-0.24
369.14,1.14,1.37,1.14,1.38,-1.38,-1.58,-1.10,-0.23,-0.23,-0.23
372.83,1.15,1.37,1.16,1.39,-1.39,-1.61,-1.12,-0.23,-0.23,-0.22
376.56,1.17,1.40,1.18,1.40,-1.40,-1.63,-1.15,-0.23,-0.22,-0.22
380.33,1.18,1.40,1.21,1.42,-1.42,-1.65,-1.17,-0.23,-0.21,-0.22
384.13,1.20,1.40,1.23,1.43,-1.43,-1.67,-1.19,-0.22,-0.20,-0.20
387.97,1.23,1.43,1.25,1.45,-1.45,-1.69,-1.22,-0.21,-0.19,-0.19
391.85,1.26,1.45,1.28,1.46,-1.46,-1.70,-1.24,-0.20,-0.18,-0.19
395.77,1.29,1.47,1.31,1.48,-1.48,-1.72,-1.27,-0.19,-0.17,-0.18
399.73,1.33,1.51,1.34,1.50,-1.50,-1.73,-1.30,-0.16,-0.16,-0.17
403.72,1.36,1.51,1.36,1.52,-1.52,-1.73,-1.32,-0.15,-0.16,-0.14
407.76,1.39,1.54,1.39,1.53,-1.53,-1.74,-1.35,-0.14,-0.15,-0.15
411.84,1.42,1.56,1.41,1.55,-1.55,-1.74,-1.38,-0.12,-0.14,-0.14
415.96,1.44,1.56,1.43,1.56,-1.56,-1.74,-1.40,-0.11,-0.13,-0.12
420.12,1.47,1.60,1.45,1.57,-1.57,-1.74,-1.43,-0.09,-0.12,-0.12
424.32,1.48,1.60,1.46,1.57,-1.57,-1.73,-1.46,-0.09,-0.11,-0.11
428.56,1.49,1.59,1.47,1.57,-1.57,-1.73,-1.48,-0.08,-0.10,-0.10
432.85,1.48,1.57,1.48,1.57,-1.57,-1.72,-1.51,-0.09,-0.10,-0.09
437.18,1.47,1.57,1.48,1.57,-1.57,-1.71,-1.53,-0.09,-0.09,-0.09
441.55,1.46,1.55,1.48,1.56,-1.56,-1.69,-1.56,-0.09,-0.08,-0.08
445.96,1.46,1.54,1.48,1.55,-1.55,-1.68,-1.58,-0.08,-0.07,-0.07
450.42,1.46,1.53,1.48,1.54,-1.54,-1.66,-1.60,-0.07,-0.06,-0.07
454.93,1.46,1.52,1.47,1.53,-1.53,-1.64,-1.62,-0.06,-0.05,-0.06
