frequency,raw,error,smoothed,error_smoothed,equalization,parametric_eq,fixed_band_eq,equalized_raw,equalized_smoothed,target
20.00,-8.65,-12.43,-8.61,-12.41,12.41,11.64,4.82,3.76,3.80,3.78
20.20,-8.56,-12.38,-8.54,-12.37,12.37,11.69,4.95,3.80,3.83,3.82
20.40,-8.46,-12.31,-8.46,-12.32,12.32,11.73,5.07,3.86,3.86,3.85
20.61,-8.37,-12.25,-8.39,-12.27,12.27,11.76,5.21,3.90,3.88,3.88
20.81,-8.27,-12.19,-8.31,-12.22,12.22,11.79,5.34,3.95,3.91,3.92
21.02,-8.19,-12.15,-8.24,-12.17,12.17,11.80,5.48,3.98,3.93,3.96
21.23,-8.13,-12.10,-8.16,-12.12,12.12,11.81,5.62,3.98,3.95,3.97
21.44,-8.08,-12.07,-8.09,-12.06,12.06,11.81,5.77,3.98,3.97,3.99
21.66,-8.03,-12.04,-8.01,-12.00,12.00,11.80,5.92,3.97,3.99,4.01
21.87,-7.98,-12.00,-7.94,-11.95,11.95,11.78,6.07,3.97,4.01,4.02
22.09,-7.91,-11.94,-7.86,-11.89,11.89,11.76,6.23,3.98,4.02,4.03
22.31,-7.81,-11.84,-7.79,-11.82,11.82,11.72,6.39,4.01,4.04,4.03
22.54,-7.71,-11.75,-7.72,-11.76,11.76,11.69,6.56,4.05,4.05,4.04
22.76,-7.61,-11.66,-7.64,-11.70,11.70,11.64,6.73,4.09,4.05,4.05
22.99,-7.51,-11.56,-7.56,-11.63,11.63,11.59,6.91,4.11,4.06,4.05
23.22,-7.46,-11.52,-7.48,-11.55,11.55,11.53,7.09,4.09,4.07,4.06
23.45,-7.40,-11.47,-7.40,-11.48,11.48,11.46,7.27,4.08,4.07,4.07
23.69,-7.35,-11.43,-7.32,-11.40,11.40,11.39,7.46,4.05,4.08,4.08
23.92,-7.30,-11.39,-7.25,-11.33,11.33,11.32,7.65,4.03,4.08,4.09
24.16,-7.21,-11.31,-7.17,-11.26,11.26,11.24,7.85,4.05,4.09,4.10
24.40,-7.11,-11.22,-7.10,-11.19,11.19,11.16,8.05,4.08,4.09,4.11
24.65,-7.01,-11.11,-7.04,-11.13,11.13,11.07,8.26,4.12,4.09,4.10
24.89,-6.90,-11.00,-6.97,-11.07,11.07,10.98,8.47,4.17,4.10,4.10
25.14,-6.84,-10.94,-6.91,-11.00,11.00,10.89,8.69,4.16,4.10,4.10
25.39,-6.81,-10.91,-6.84,-10.94,10.94,10.79,8.90,4.13,4.10,4.10
25.65,-6.78,-10.88,-6.78,-10.87,10.87,10.70,9.12,4.09,4.10,4.10
25.91,-6.75,-10.83,-6.71,-10.80,10.80,10.60,9.35,4.05,4.10,4.08
26.16,-6.69,-10.78,-6.64,-10.73,10.73,10.50,9.57,4.04,4.09,4.09
26.43,-6.61,-10.70,-6.57,-10.66,10.66,10.40,9.80,4.05,4.09,4.09
26.69,-6.52,-10.61,-6.50,-10.59,10.59,10.30,10.03,4.07,4.09,4.09
26.96,-6.44,-10.53,-6.44,-10.52,10.52,10.20,10.25,4.08,4.08,4.09
27.23,-6.37,-10.46,-6.37,-10.45,10.45,10.10,10.48,4.08,4.08,4.09
27.50,-6.29,-10.38,-6.30,-10.38,10.38,10.00,10.70,4.09,4.08,4.09
27.77,-6.22,-10.30,-6.23,-10.31,10.31,9.90,10.92,4.09,4.08,4.08
28.05,-6.15,-10.23,-6.16,-10.24,10.24,9.81,11.13,4.09,4.08,4.08
28.33,-6.08,-10.14,-6.09,-10.16,10.16,9.71,11.33,4.08,4.07,4.06
28.62,-6.01,-10.08,-6.02,-10.09,10.09,9.61,11.53,4.08,4.07,4.07
28.90,-5.93,-10.00,-5.95,-10.02,10.02,9.52,11.71,4.09,4.07,4.07
29.19,-5.87,-9.93,-5.88,-9.94,9.94,9.42,11.88,4.07,4.07,4.06
29.48,-5.80,-9.87,-5.81,-9.87,9.87,9.33,12.03,4.07,4.06,4.07
29.78,-5.74,-9.81,-5.74,-9.80,9.80,9.24,12.16,4.05,4.06,4.07
30.08,-5.68,-9.75,-5.68,-9.73,9.73,9.15,12.27,4.05,4.05,4.07
30.38,-5.63,-9.68,-5.61,-9.66,9.66,9.06,12.36,4.03,4.05,4.05
30.68,-5.58,-9.63,-5.56,-9.60,9.60,8.97,12.43,4.02,4.04,4.05
30.99,-5.53,-9.57,-5.50,-9.54,9.54,8.89,12.47,4.01,4.04,4.04
31.30,-5.44,-9.48,-5.45,-9.48,9.48,8.81,12.49,4.04,4.04,4.04
31.61,-5.35,-9.39,-5.40,-9.43,9.43,8.73,12.48,4.08,4.03,4.04
31.93,-5.25,-9.27,-5.34,-9.37,9.37,8.65,12.45,4.12,4.03,4.02
32.24,-5.23,-9.24,-5.29,-9.31,9.31,8.57,12.39,4.08,4.02,4.01
32.57,-5.23,-9.24,-5.23,-9.25,9.25,8.50,12.31,4.02,4.01,4.01
32.89,-5.23,-9.24,-5.17,-9.18,9.18,8.42,12.21,3.95,4.01,4.01
33.22,-5.18,-9.19,-5.11,-9.11,9.11,8.35,12.09,3.93,4.00,4.01
33.55,-5.10,-9.10,-5.05,-9.05,9.05,8.29,11.96,3.95,4.00,4.00
33.89,-5.03,-9.03,-4.99,-8.98,8.98,8.22,11.81,3.95,3.99,4.00
34.23,-4.95,-8.95,-4.93,-8.92,8.92,8.15,11.65,3.97,3.99,4.00
34.57,-4.87,-8.86,-4.87,-8.86,8.86,8.09,11.47,3.99,3.98,3.99
34.92,-4.79,-8.77,-4.82,-8.80,8.80,8.03,11.29,4.01,3.98,3.98
35.27,-4.71,-8.69,-4.76,-8.74,8.74,7.97,11.11,4.02,3.97,3.98
35.62,-4.63,-8.60,-4.70,-8.67,8.67,7.92,10.92,4.04,3.97,3.97
35.97,-4.56,-8.52,-4.63,-8.59,8.59,7.86,10.72,4.03,3.96,3.96
36.33,-4.54,-8.50,-4.56,-8.52,8.52,7.81,10.53,3.98,3.96,3.96
36.70,-4.53,-8.49,-4.50,-8.45,8.45,7.76,10.33,3.92,3.95,3.96
37.06,-4.51,-8.45,-4.44,-8.38,8.38,7.71,10.13,3.87,3.94,3.94
37.43,-4.43,-8.37,-4.39,-8.32,8.32,7.66,9.94,3.89,3.94,3.94
37.81,-4.36,-8.29,-4.33,-8.26,8.26,7.61,9.75,3.90,3.93,3.93
38.19,-4.28,-8.20,-4.28,-8.20,8.20,7.57,9.56,3.92,3.92,3.92
38.57,-4.19,-8.11,-4.22,-8.14,8.14,7.52,9.37,3.94,3.92,3.92
38.95,-4.10,-8.01,-4.17,-8.08,8.08,7.48,9.19,3.97,3.91,3.91
39.34,-4.08,-7.98,-4.11,-8.02,8.02,7.44,9.02,3.93,3.90,3.90
39.74,-4.07,-7.95,-4.05,-7.95,7.95,7.40,8.84,3.88,3.90,3.88
40.14,-4.03,-7.92,-3.99,-7.88,7.88,7.36,8.68,3.85,3.89,3.89
40.54,-3.95,-7.83,-3.92,-7.80,7.80,7.32,8.52,3.85,3.88,3.88
40.94,-3.87,-7.75,-3.86,-7.72,7.72,7.28,8.36,3.85,3.86,3.88
41.35,-3.80,-7.66,-3.80,-7.65,7.65,7.24,8.21,3.85,3.85,3.86
41.76,-3.73,-7.57,-3.75,-7.58,7.58,7.21,8.06,3.85,3.83,3.84
42.18,-3.68,-7.51,-3.70,-7.51,7.51,7.17,7.92,3.83,3.81,3.83
42.60,-3.65,-7.45,-3.65,-7.44,7.44,7.13,7.79,3.79,3.79,3.80
43.03,-3.62,-7.41,-3.60,-7.36,7.36,7.10,7.66,3.74,3.76,3.79
43.46,-3.53,-7.29,-3.55,-7.29,7.29,7.06,7.53,3.76,3.74,3.76
43.90,-3.43,-7.14,-3.50,-7.21,7.21,7.02,7.41,3.78,3.71,3.71
44.33,-3.41,-7.09,-3.45,-7.14,7.14,6.99,7.30,3.73,3.69,3.68
44.78,-3.41,-7.06,-3.41,-7.06,7.06,6.95,7.19,3.65,3.66,3.65
45.23,-3.39,-7.01,-3.36,-6.99,6.99,6.91,7.09,3.60,3.63,3.62
45.68,-3.36,-6.95,-3.32,-6.92,6.92,6.87,6.99,3.56,3.61,3.59
46.13,-3.32,-6.89,-3.27,-6.86,6.86,6.83,6.89,3.54,3.58,3.57
46.60,-3.24,-6.80,-3.24,-6.80,6.80,6.79,6.80,3.56,3.57,3.56
47.06,-3.18,-6.72,-3.19,-6.74,6.74,6.74,6.72,3.56,3.55,3.54
47.53,-3.15,-6.69,-3.15,-6.69,6.69,6.70,6.64,3.54,3.54,3.54
48.01,-3.13,-6.67,-3.10,-6.63,6.63,6.66,6.57,3.50,3.53,3.54
48.49,-3.04,-6.56,-3.06,-6.59,6.59,6.61,6.49,3.54,3.52,3.52
48.97,-2.95,-6.46,-3.02,-6.55,6.55,6.56,6.43,3.59,3.52,3.51
49.46,-2.95,-6.45,-2.98,-6.50,6.50,6.51,6.36,3.55,3.52,3.50
49.96,-2.95,-6.45,-2.94,-6.46,6.46,6.46,6.30,3.50,3.51,3.50
50.46,-2.93,-6.44,-2.90,-6.41,6.41,6.41,6.25,3.48,3.51,3.51
50.96,-2.91,-6.43,-2.87,-6.37,6.37,6.35,6.19,3.46,3.50,3.52
51.47,-2.82,-6.33,-2.83,-6.32,6.32,6.30,6.14,3.50,3.49,3.51
51.99,-2.72,-6.21,-2.79,-6.27,6.27,6.24,6.10,3.55,3.48,3.49
52.51,-2.72,-6.20,-2.75,-6.20,6.20,6.18,6.05,3.48,3.46,3.48
53.03,-2.72,-6.17,-2.70,-6.13,6.13,6.12,6.01,3.41,3.43,3.45
53.56,-2.72,-6.14,-2.65,-6.05,6.05,6.05,5.97,3.33,3.40,3.42
54.10,-2.70,-6.08,-2.61,-5.97,5.97,5.99,5.93,3.27,3.37,3.38
54.64,-2.58,-5.91,-2.56,-5.89,5.89,5.92,5.89,3.30,3.33,3.33
55.18,-2.50,-5.78,-2.51,-5.79,5.79,5.85,5.85,3.29,3.28,3.28
55.74,-2.50,-5.73,-2.46,-5.69,5.69,5.78,5.81,3.19,3.23,3.23
56.29,-2.43,-5.61,-2.41,-5.59,5.59,5.71,5.77,3.15,3.17,3.18
56.86,-2.30,-5.42,-2.37,-5.48,5.48,5.64,5.73,3.18,3.12,3.12
57.42,-2.27,-5.32,-2.33,-5.39,5.39,5.56,5.69,3.12,3.06,3.05
58.00,-2.27,-5.26,-2.30,-5.30,5.30,5.49,5.65,3.03,3.00,2.99
58.58,-2.27,-5.20,-2.28,-5.21,5.21,5.41,5.61,2.94,2.93,2.93
59.16,-2.27,-5.15,-2.27,-5.14,5.14,5.34,5.57,2.87,2.87,2.88
59.76,-2.27,-5.09,-2.28,-5.09,5.09,5.26,5.52,2.82,2.81,2.82
60.35,-2.27,-5.02,-2.31,-5.06,5.06,5.18,5.47,2.79,2.75,2.75
60.96,-2.27,-4.97,-2.36,-5.05,5.05,5.10,5.42,2.78,2.69,2.70
61.57,-2.27,-4.90,-2.40,-5.03,5.03,5.02,5.37,2.76,2.63,2.63
62.18,-2.31,-4.87,-2.44,-5.01,5.01,4.94,5.31,2.70,2.57,2.56
62.80,-2.46,-4.98,-2.48,-5.00,5.00,4.86,5.26,2.54,2.52,2.52
63.43,-2.54,-5.00,-2.51,-4.98,4.98,4.78,5.19,2.44,2.47,2.46
64.07,-2.60,-5.02,-2.53,-4.95,4.95,4.70,5.13,2.35,2.42,2.42
64.71,-2.68,-5.05,-2.54,-4.91,4.91,4.62,5.06,2.23,2.37,2.37
65.35,-2.72,-5.04,-2.53,-4.86,4.86,4.53,4.99,2.14,2.33,2.32
66.01,-2.72,-5.01,-2.51,-4.80,4.80,4.45,4.92,2.07,2.29,2.29
66.67,-2.57,-4.82,-2.47,-4.72,4.72,4.37,4.84,2.15,2.25,2.25
67.33,-2.42,-4.64,-2.42,-4.64,4.64,4.29,4.77,2.22,2.22,2.22
68.01,-2.27,-4.46,-2.36,-4.54,4.54,4.21,4.69,2.27,2.18,2.19
68.69,-2.25,-4.41,-2.28,-4.44,4.44,4.13,4.61,2.19,2.15,2.16
69.37,-2.16,-4.28,-2.20,-4.32,4.32,4.05,4.52,2.16,2.12,2.12
70.07,-2.04,-4.13,-2.10,-4.19,4.19,3.97,4.44,2.15,2.09,2.09
70.77,-2.04,-4.12,-2.02,-4.08,4.08,3.90,4.35,2.04,2.06,2.08
71.48,-1.93,-3.97,-1.94,-3.97,3.97,3.82,4.27,2.04,2.03,2.04
72.19,-1.81,-3.83,-1.87,-3.87,3.87,3.74,4.18,2.06,2.00,2.02
72.91,-1.81,-3.79,-1.83,-3.81,3.81,3.67,4.09,1.99,1.97,1.98
73.64,-1.81,-3.76,-1.82,-3.77,3.77,3.59,4.00,1.96,1.94,1.95
74.38,-1.81,-3.73,-1.84,-3.75,3.75,3.52,3.92,1.94,1.91,1.92
75.12,-1.81,-3.70,-1.88,-3.76,3.76,3.44,3.83,1.95,1.88,1.89
75.87,-1.81,-3.67,-1.95,-3.80,3.80,3.37,3.74,1.99,1.86,1.86
76.63,-1.92,-3.75,-2.03,-3.86,3.86,3.30,3.66,1.94,1.83,1.83
77.40,-2.03,-3.83,-2.13,-3.93,3.93,3.23,3.57,1.90,1.80,1.80
78.17,-2.13,-3.90,-2.24,-4.02,4.02,3.16,3.49,1.89,1.78,1.77
78.95,-2.26,-4.02,-2.35,-4.11,4.11,3.09,3.41,1.84,1.76,1.76
79.74,-2.47,-4.21,-2.46,-4.20,4.20,3.02,3.33,1.73,1.74,1.74
80.54,-2.64,-4.36,-2.56,-4.28,4.28,2.96,3.25,1.64,1.72,1.72
81.35,-2.73,-4.43,-2.63,-4.34,4.34,2.89,3.17,1.61,1.71,1.70
82.16,-2.77,-4.47,-2.67,-4.38,4.38,2.82,3.09,1.60,1.70,1.70
82.98,-2.95,-4.65,-2.70,-4.39,4.39,2.76,3.02,1.44,1.70,1.70
83.81,-2.95,-4.64,-2.70,-4.39,4.39,2.70,2.94,1.44,1.69,1.69
84.65,-2.80,-4.48,-2.67,-4.36,4.36,2.64,2.87,1.55,1.69,1.68
85.50,-2.66,-4.35,-2.61,-4.30,4.30,2.57,2.80,1.64,1.69,1.69
86.35,-2.56,-4.25,-2.54,-4.23,4.23,2.51,2.73,1.67,1.69,1.69
87.22,-2.44,-4.13,-2.44,-4.13,4.13,2.46,2.67,1.69,1.69,1.69
88.09,-2.20,-3.89,-2.32,-4.01,4.01,2.40,2.60,1.81,1.69,1.69
88.97,-2.05,-3.76,-2.20,-3.89,3.89,2.34,2.54,1.84,1.69,1.71
89.86,-1.89,-3.60,-2.07,-3.76,3.76,2.28,2.48,1.87,1.69,1.71
90.76,-1.82,-3.51,-1.95,-3.64,3.64,2.23,2.42,1.81,1.69,1.69
91.66,-1.81,-3.51,-1.82,-3.51,3.51,2.17,2.36,1.69,1.68,1.70
92.58,-1.73,-3.40,-1.70,-3.38,3.38,2.12,2.31,1.65,1.68,1.67
93.51,-1.63,-3.31,-1.61,-3.27,3.27,2.07,2.25,1.64,1.67,1.68
94.44,-1.58,-3.24,-1.53,-3.18,3.18,2.01,2.20,1.60,1.65,1.66
95.39,-1.49,-3.14,-1.46,-3.10,3.10,1.96,2.15,1.61,1.64,1.65
96.34,-1.36,-2.97,-1.40,-3.02,3.02,1.91,2.10,1.65,1.62,1.61
97.30,-1.36,-2.95,-1.34,-2.94,2.94,1.86,2.05,1.58,1.60,1.59
98.28,-1.31,-2.88,-1.29,-2.86,2.86,1.81,2.00,1.55,1.57,1.57
99.26,-1.16,-2.70,-1.24,-2.78,2.78,1.77,1.96,1.62,1.54,1.54
100.25,-1.13,-2.64,-1.19,-2.69,2.69,1.72,1.91,1.56,1.51,1.51
101.25,-1.13,-2.61,-1.13,-2.61,2.61,1.67,1.87,1.48,1.47,1.48
102.27,-1.13,-2.57,-1.09,-2.52,2.52,1.63,1.83,1.39,1.43,1.44
103.29,-1.13,-2.52,-1.05,-2.44,2.44,1.58,1.79,1.30,1.39,1.39
104.32,-1.08,-2.43,-1.02,-2.36,2.36,1.54,1.75,1.28,1.34,1.35
105.37,-0.96,-2.26,-1.00,-2.29,2.29,1.49,1.71,1.32,1.28,1.30
106.42,-0.90,-2.15,-0.98,-2.21,2.21,1.45,1.67,1.31,1.23,1.25
107.48,-0.90,-2.08,-0.96,-2.13,2.13,1.40,1.64,1.22,1.17,1.18
108.56,-0.90,-2.00,-0.93,-2.03,2.03,1.36,1.60,1.13,1.10,1.10
109.64,-0.90,-1.93,-0.91,-1.94,1.94,1.32,1.56,1.04,1.03,1.03
110.74,-0.90,-1.87,-0.89,-1.85,1.85,1.28,1.53,0.95,0.96,0.97
111.85,-0.90,-1.80,-0.86,-1.75,1.75,1.24,1.49,0.84,0.89,0.90
112.97,-0.90,-1.71,-0.84,-1.65,1.65,1.20,1.46,0.75,0.81,0.81
114.10,-0.90,-1.65,-0.82,-1.56,1.56,1.16,1.43,0.66,0.74,0.75
115.24,-0.87,-1.54,-0.80,-1.48,1.48,1.12,1.39,0.60,0.67,0.67
116.39,-0.74,-1.33,-0.78,-1.39,1.39,1.08,1.36,0.65,0.61,0.59
117.55,-0.67,-1.20,-0.76,-1.31,1.31,1.04,1.33,0.63,0.54,0.53
118.73,-0.67,-1.13,-0.73,-1.22,1.22,1.00,1.29,0.55,0.48,0.46
119.92,-0.67,-1.09,-0.70,-1.13,1.13,0.97,1.26,0.46,0.43,0.42
121.12,-0.67,-1.03,-0.67,-1.05,1.05,0.93,1.22,0.37,0.38,0.36
122.33,-0.67,-0.99,-0.63,-0.96,0.96,0.89,1.19,0.29,0.33,0.32
123.55,-0.67,-0.97,-0.60,-0.89,0.89,0.85,1.16,0.21,0.29,0.30
124.79,-0.67,-0.93,-0.57,-0.82,0.82,0.82,1.12,0.14,0.25,0.26
126.03,-0.52,-0.74,-0.54,-0.75,0.75,0.78,1.09,0.23,0.22,0.22
127.29,-0.47,-0.66,-0.52,-0.70,0.70,0.74,1.05,0.22,0.18,0.19
128.57,-0.44,-0.59,-0.50,-0.65,0.65,0.71,1.02,0.21,0.15,0.15
129.85,-0.44,-0.56,-0.49,-0.60,0.60,0.67,0.98,0.16,0.11,0.12
131.15,-0.44,-0.53,-0.47,-0.56,0.56,0.64,0.94,0.11,0.08,0.09
132.46,-0.44,-0.50,-0.46,-0.51,0.51,0.60,0.91,0.06,0.05,0.06
133.79,-0.44,-0.47,-0.44,-0.46,0.46,0.57,0.87,0.02,0.02,0.03
135.12,-0.44,-0.42,-0.44,-0.42,0.42,0.53,0.83,-0.02,-0.01,-0.02
136.48,-0.44,-0.39,-0.44,-0.39,0.39,0.50,0.79,-0.05,-0.05,-0.05
137.84,-0.44,-0.36,-0.44,-0.36,0.36,0.46,0.76,-0.08,-0.08,-0.08
139.22,-0.44,-0.31,-0.44,-0.32,0.32,0.43,0.72,-0.12,-0.12,-0.13
140.61,-0.44,-0.26,-0.45,-0.29,0.29,0.39,0.68,-0.15,-0.16,-0.18
142.02,-0.44,-0.24,-0.44,-0.24,0.24,0.35,0.64,-0.20,-0.20,-0.20
143.44,-0.44,-0.20,-0.43,-0.18,0.18,0.32,0.60,-0.26,-0.25,-0.24
144.87,-0.44,-0.16,-0.41,-0.12,0.12,0.28,0.56,-0.32,-0.30,-0.28
146.32,-0.44,-0.11,-0.40,-0.05,0.05,0.25,0.52,-0.40,-0.35,-0.33
147.78,-0.44,-0.07,-0.38,0.03,-0.03,0.21,0.48,-0.48,-0.41,-0.37
149.26,-0.44,0.00,-0.35,0.13,-0.13,0.18,0.44,-0.57,-0.47,-0.44
150.75,-0.34,0.18,-0.32,0.22,-0.22,0.14,0.39,-0.56,-0.54,-0.52
152.26,-0.25,0.34,-0.30,0.31,-0.31,0.11,0.35,-0.57,-0.61,-0.59
153.78,-0.22,0.44,-0.28,0.40,-0.40,0.07,0.31,-0.62,-0.68,-0.66
155.32,-0.22,0.54,-0.27,0.48,-0.48,0.04,0.27,-0.70,-0.75,-0.76
156.88,-0.22,0.61,-0.27,0.55,-0.55,-0.00,0.23,-0.77,-0.82,-0.83
158.44,-0.22,0.68,-0.27,0.62,-0.62,-0.04,0.18,-0.84,-0.89,-0.90
160.03,-0.22,0.76,-0.27,0.69,-0.69,-0.07,0.14,-0.91,-0.96,-0.98
161.63,-0.22,0.82,-0.28,0.74,-0.74,-0.11,0.10,-0.96,-1.02,-1.04
163.24,-0.22,0.87,-0.28,0.79,-0.79,-0.15,0.05,-1.01,-1.07,-1.09
164.88,-0.22,0.91,-0.28,0.83,-0.83,-0.19,0.01,-1.05,-1.11,-1.13
166.53,-0.39,0.78,-0.29,0.86,-0.86,-0.22,-0.03,-1.25,-1.15,-1.17
168.19,-0.44,0.76,-0.30,0.87,-0.87,-0.26,-0.08,-1.31,-1.17,-1.20
169.87,-0.44,0.77,-0.31,0.89,-0.89,-0.30,-0.12,-1.33,-1.19,-1.21
171.57,-0.44,0.78,-0.31,0.90,-0.90,-0.34,-0.17,-1.34,-1.21,-1.22
173.29,-0.30,0.92,-0.30,0.91,-0.91,-0.38,-0.21,-1.21,-1.21,-1.22
175.02,-0.22,0.98,-0.30,0.92,-0.92,-0.42,-0.26,-1.14,-1.22,-1.20
176.77,-0.22,0.99,-0.29,0.93,-0.93,-0.45,-0.31,-1.15,-1.22,-1.21
178.54,-0.22,0.98,-0.28,0.94,-0.94,-0.49,-0.35,-1.16,-1.22,-1.20
180.32,-0.22,0.97,-0.27,0.95,-0.95,-0.53,-0.40,-1.17,-1.22,-1.19
182.13,-0.22,0.97,-0.25,0.97,-0.97,-0.57,-0.45,-1.19,-1.22,-1.19
183.95,-0.22,0.97,-0.23,0.99,-0.99,-0.61,-0.49,-1.21,-1.22,-1.19
185.79,-0.22,0.98,-0.21,1.01,-1.01,-0.65,-0.54,-1.23,-1.22,-1.20
187.65,-0.22,1.00,-0.21,1.03,-1.03,-0.69,-0.59,-1.25,-1.23,-1.22
189.52,-0.22,1.02,-0.20,1.04,-1.04,-0.73,-0.64,-1.26,-1.24,-1.24
191.42,-0.22,1.04,-0.21,1.05,-1.05,-0.77,-0.69,-1.27,-1.25,-1.26
193.33,-0.22,1.06,-0.22,1.05,-1.05,-0.81,-0.74,-1.28,-1.27,-1.28
195.27,-0.22,1.06,-0.21,1.08,-1.08,-0.85,-0.79,-1.30,-1.29,-1.28
197.22,-0.22,1.08,-0.20,1.10,-1.10,-0.89,-0.84,-1.32,-1.31,-1.30
199.19,-0.22,1.12,-0.20,1.12,-1.12,-0.93,-0.88,-1.34,-1.33,-1.34
201.18,-0.22,1.12,-0.21,1.14,-1.14,-0.97,-0.93,-1.36,-1.34,-1.34
203.19,-0.22,1.14,-0.22,1.15,-1.15,-1.01,-0.98,-1.37,-1.36,-1.36
205.23,-0.22,1.17,-0.23,1.15,-1.15,-1.05,-1.03,-1.37,-1.38,-1.39
207.28,-0.22,1.17,-0.26,1.14,-1.14,-1.09,-1.08,-1.36,-1.40,-1.39
209.35,-0.22,1.19,-0.28,1.14,-1.14,-1.12,-1.13,-1.36,-1.41,-1.41
211.44,-0.22,1.22,-0.29,1.14,-1.14,-1.16,-1.17,-1.36,-1.43,-1.44
213.56,-0.22,1.22,-0.31,1.14,-1.14,-1.19,-1.22,-1.36,-1.44,-1.44
215.69,-0.22,1.22,-0.32,1.14,-1.14,-1.23,-1.27,-1.36,-1.46,-1.44
217.85,-0.42,1.05,-0.33,1.14,-1.14,-1.26,-1.31,-1.57,-1.47,-1.47
220.03,-0.44,1.04,-0.33,1.15,-1.15,-1.29,-1.35,-1.59,-1.48,-1.48
222.23,-0.44,1.06,-0.33,1.16,-1.16,-1.32,-1.39,-1.60,-1.49,-1.50
224.45,-0.44,1.06,-0.33,1.17,-1.17,-1.35,-1.43,-1.61,-1.50,-1.50
226.70,-0.44,1.06,-0.33,1.18,-1.18,-1.37,-1.47,-1.62,-1.51,-1.50
228.96,-0.29,1.22,-0.32,1.19,-1.19,-1.40,-1.50,-1.48,-1.51,-1.51
231.25,-0.24,1.27,-0.32,1.20,-1.20,-1.42,-1.54,-1.44,-1.52,-1.51
233.57,-0.22,1.30,-0.32,1.21,-1.21,-1.44,-1.56,-1.43,-1.52,-1.52
235.90,-0.22,1.31,-0.30,1.22,-1.22,-1.46,-1.59,-1.44,-1.52,-1.53
238.26,-0.22,1.31,-0.28,1.24,-1.24,-1.48,-1.62,-1.46,-1.52,-1.53
240.64,-0.22,1.31,-0.26,1.27,-1.27,-1.49,-1.64,-1.49,-1.52,-1.53
243.05,-0.22,1.30,-0.22,1.30,-1.30,-1.50,-1.65,-1.52,-1.52,-1.52
245.48,-0.22,1.29,-0.20,1.32,-1.32,-1.51,-1.67,-1.54,-1.52,-1.51
247.93,-0.22,1.28,-0.17,1.34,-1.34,-1.52,-1.68,-1.56,-1.51,-1.50
250.41,-0.22,1.29,-0.15,1.35,-1.35,-1.52,-1.69,-1.58,-1.51,-1.51
252.92,-0.22,1.28,-0.14,1.36,-1.36,-1.52,-1.69,-1.59,-1.50,-1.50
255.45,-0.22,1.25,-0.12,1.37,-1.37,-1.52,-1.69,-1.59,-1.49,-1.47
258.00,-0.08,1.39,-0.10,1.38,-1.38,-1.52,-1.69,-1.46,-1.48,-1.47
260.58,0.01,1.48,-0.08,1.39,-1.39,-1.51,-1.68,-1.38,-1.47,-1.47
263.19,0.01,1.46,-0.06,1.39,-1.39,-1.50,-1.68,-1.39,-1.45,-1.45
265.82,0.01,1.46,-0.04,1.40,-1.40,-1.50,-1.66,-1.39,-1.44,-1.45
268.48,0.01,1.43,-0.02,1.40,-1.40,-1.48,-1.65,-1.40,-1.42,-1.42
271.16,0.01,1.42,-0.00,1.40,-1.40,-1.47,-1.63,-1.39,-1.41,-1.41
273.87,0.01,1.41,0.01,1.40,-1.40,-1.46,-1.61,-1.39,-1.39,-1.40
276.61,0.01,1.37,0.02,1.39,-1.39,-1.44,-1.59,-1.38,-1.37,-1.36
279.38,0.01,1.36,0.03,1.37,-1.37,-1.42,-1.57,-1.36,-1.34,-1.35
282.17,0.01,1.33,0.03,1.35,-1.35,-1.40,-1.54,-1.34,-1.32,-1.32
284.99,0.01,1.30,0.02,1.32,-1.32,-1.38,-1.51,-1.31,-1.29,-1.29
287.84,0.01,1.28,0.01,1.28,-1.28,-1.36,-1.48,-1.27,-1.26,-1.27
290.72,0.01,1.24,0.01,1.24,-1.24,-1.34,-1.45,-1.24,-1.24,-1.23
293.63,0.01,1.22,0.01,1.22,-1.22,-1.31,-1.42,-1.21,-1.21,-1.21
296.57,0.01,1.19,0.01,1.19,-1.19,-1.29,-1.39,-1.18,-1.18,-1.18
299.53,0.01,1.16,0.01,1.17,-1.17,-1.26,-1.36,-1.16,-1.16,-1.15
302.53,0.01,1.15,0.01,1.14,-1.14,-1.24,-1.32,-1.14,-1.14,-1.14
305.55,0.01,1.11,0.01,1.12,-1.12,-1.21,-1.29,-1.12,-1.12,-1.10
308.61,0.01,1.09,0.01,1.11,-1.11,-1.18,-1.26,-1.10,-1.10,-1.08
311.69,0.01,1.08,0.01,1.09,-1.09,-1.16,-1.22,-1.08,-1.08,-1.07
314.81,0.01,1.05,0.01,1.08,-1.08,-1.13,-1.19,-1.07,-1.07,-1.04
317.96,0.01,1.05,0.01,1.07,-1.07,-1.10,-1.16,-1.06,-1.06,-1.04
321.14,0.01,1.06,0.01,1.05,-1.05,-1.08,-1.12,-1.05,-1.05,-1.05
324.35,0.01,1.05,0.01,1.05,-1.05,-1.05,-1.09,-1.04,-1.04,-1.04
327.59,0.01,1.04,0.01,1.04,-1.04,-1.02,-1.06,-1.03,-1.03,-1.03
330.87,0.01,1.03,0.01,1.03,-1.03,-1.00,-1.02,-1.02,-1.02,-1.02
334.18,0.01,1.03,0.01,1.01,-1.01,-0.97,-0.99,-1.01,-1.01,-1.02
337.52,0.01,1.02,0.01,1.00,-1.00,-0.95,-0.96,-0.99,-0.99,-1.01
340.90,0.01,0.99,0.01,0.99,-0.99,-0.92,-0.93,-0.98,-0.98,-0.98
344.30,0.01,0.98,0.01,0.98,-0.98,-0.89,-0.90,-0.97,-0.97,-0.97
347.75,0.01,0.97,0.01,0.96,-0.96,-0.87,-0.87,-0.95,-0.95,-0.96
351.23,0.01,0.94,0.01,0.94,-0.94,-0.85,-0.84,-0.93,-0.93,-0.93
354.74,0.01,0.92,0.01,0.92,-0.92,-0.82,-0.82,-0.91,-0.91,-0.91
358.28,0.01,0.89,0.01,0.89,-0.89,-0.80,-0.79,-0.89,-0.89,-0.88
361.87,0.01,0.87,0.01,0.87,-0.87,-0.78,-0.76,-0.86,-0.86,-0.86
365.49,0.01,0.85,0.01,0.85,-0.85,-0.75,-0.74,-0.84,-0.84,-0.84
369.14,0.01,0.83,0.01,0.83,-0.83,-0.73,-0.71,-0.82,-0.82,-0.82
372.83,0.01,0.80,0.01,0.80,-0.80,-0.71,-0.69,-0.80,-0.80,-0.79
376.56,0.01,0.78,0.01,0.78,-0.78,-0.69,-0.67,-0.78,-0.78,-0.77
380.33,0.01,0.75,0.01,0.77,-0.77,-0.67,-0.64,-0.76,-0.76,-0.74
384.13,0.01,0.73,0.01,0.75,-0.75,-0.65,-0.62,-0.74,-0.74,-0.72
387.97,0.01,0.72,0.01,0.73,-0.73,-0.63,-0.60,-0.72,-0.72,-0.71
391.85,0.01,0.72,0.01,0.72,-0.72,-0.61,-0.58,-0.71,-0.71,-0.71
395.77,0.01,0.71,0.01,0.71,-0.71,-0.59,-0.56,-0.70,-0.70,-0.70
399.73,0.01,0.70,0.01,0.70,-0.70,-0.57,-0.54,-0.69,-0.69,-0.69
403.72,0.01,0.69,0.01,0.69,-0.69,-0.55,-0.52,-0.68,-0.68,-0.68
407.76,0.01,0.68,0.01,0.68,-0.68,-0.53,-0.50,-0.67,-0.67,-0.67
411.84,0.01,0.67,0.01,0.68,-0.68,-0.52,-0.48,-0.67,-0.67,-0.66
415.96,0.01,0.66,0.01,0.67,-0.67,-0.50,-0.47,-0.66,-0.66,-0.65
420.12,0.01,0.66,0.01,0.67,-0.67,-0.48,-0.45,-0.66,-0.66,-0.65
424.32,0.01,0.66,0.01,0.67,-0.67,-0.47,-0.43,-0.66,-0.66,-0.65
428.56,0.01,0.66,0.01,0.66,-0.66,-0.45,-0.42,-0.66,-0.66,-0.65
432.85,0.01,0.67,0.01,0.66,-0.66,-0.43,-0.40,-0.65,-0.65,-0.66
437.18,0.01,0.66,0.01,0.66,-0.66,-0.42,-0.39,-0.65,-0.65,-0.65
441.55,0.01,0.65,0.01,0.65,-0.65,-0.40,-0.37,-0.64,-0.64,-0.64
445.96,0.01,0.65,0.01,0.64,-0.64,-0.39,-0.36,-0.64,-0.64,-0.64
450.42,0.01,0.64,0.01,0.64,-0.64,-0.37,-0.35,-0.63,-0.63,-0.63
454.93,0.01,0.63,0.01,0.63,-0.63,-0.36,-0.33,-0.62,-0.62,-0.62
459.48,0.01,0.62,0.01,0.61,-0.61,-0.34,-0.32,-0.60,-0.60,-0.61
464.07,0.01,0.60,0.01,0.60,-0.60,-0.33,-0.31,-0.59,-0.59,-0.59
468.71,0.01,0.58,0.01,0.58,-0.58,-0.32,-0.30,-0.57,-0.57,-0.57
473.40,0.01,0.57,0.02,0.57,-0.57,-0.30,-0.29,-0.56,-0.55,-0.56
