frequency,raw,error,smoothed,error_smoothed,equalization,parametric_eq,fixed_band_eq,equalized_raw,equalized_smoothed,target
20.00,3.10,-4.18,3.10,-4.18,4.20,4.23,1.15,7.30,7.30,7.28
20.20,3.13,-4.16,3.14,-4.15,4.15,4.18,1.19,7.29,7.29,7.29
20.40,3.18,-4.12,3.18,-4.12,4.11,4.13,1.22,7.30,7.29,7.30
20.61,3.22,-4.09,3.22,-4.08,4.07,4.07,1.26,7.29,7.29,7.31
20.81,3.27,-4.04,3.28,-4.04,4.02,4.02,1.30,7.30,7.30,7.31
21.02,3.33,-3.99,3.34,-3.99,3.98,3.97,1.34,7.31,7.32,7.32
21.23,3.40,-3.93,3.40,-3.93,3.94,3.92,1.38,7.34,7.34,7.33
21.44,3.46,-3.88,3.46,-3.88,3.89,3.86,1.43,7.36,7.35,7.34
21.66,3.50,-3.84,3.51,-3.83,3.85,3.81,1.47,7.35,7.36,7.34
21.87,3.55,-3.80,3.56,-3.79,3.80,3.76,1.52,7.35,7.35,7.35
22.09,3.60,-3.75,3.60,-3.75,3.75,3.71,1.56,7.36,7.35,7.35
22.31,3.64,-3.72,3.65,-3.71,3.71,3.66,1.61,7.35,7.35,7.36
22.54,3.69,-3.67,3.69,-3.67,3.66,3.60,1.66,7.35,7.35,7.36
22.76,3.74,-3.63,3.75,-3.62,3.61,3.55,1.71,7.36,7.36,7.37
22.99,3.80,-3.57,3.81,-3.57,3.57,3.50,1.76,7.37,7.37,7.37
23.22,3.86,-3.51,3.86,-3.51,3.52,3.45,1.81,7.38,7.38,7.37
23.45,3.92,-3.46,3.92,-3.46,3.47,3.40,1.87,7.40,7.39,7.38
23.69,3.96,-3.42,3.96,-3.42,3.43,3.35,1.92,7.39,7.39,7.38
23.92,3.99,-3.39,4.00,-3.38,3.38,3.30,1.98,7.38,7.38,7.38
24.16,4.04,-3.34,4.04,-3.34,3.34,3.25,2.04,7.38,7.38,7.38
24.40,4.08,-3.31,4.08,-3.30,3.29,3.20,2.09,7.38,7.38,7.39
24.65,4.13,-3.26,4.14,-3.26,3.25,3.15,2.15,7.38,7.38,7.39
24.89,4.18,-3.21,4.19,-3.21,3.20,3.10,2.21,7.39,7.39,7.39
25.14,4.24,-3.15,4.24,-3.15,3.16,3.05,2.27,7.40,7.39,7.39
25.39,4.28,-3.11,4.29,-3.10,3.11,3.00,2.33,7.39,7.40,7.39
25.65,4.34,-3.05,4.34,-3.05,3.06,2.95,2.39,7.40,7.39,7.39
25.91,4.38,-3.01,4.39,-3.00,3.01,2.90,2.45,7.39,7.39,7.39
26.16,4.43,-2.96,4.43,-2.96,2.96,2.85,2.50,7.39,7.39,7.39
26.43,4.48,-2.91,4.48,-2.91,2.91,2.80,2.56,7.39,7.39,7.39
26.69,4.52,-2.87,4.53,-2.86,2.86,2.75,2.62,7.39,7.39,7.39
26.96,4.57,-2.82,4.58,-2.82,2.82,2.70,2.67,7.39,7.40,7.39
27.23,4.62,-2.77,4.62,-2.77,2.78,2.65,2.72,7.40,7.39,7.39
27.50,4.66,-2.73,4.66,-2.73,2.73,2.61,2.77,7.40,7.39,7.39
27.77,4.69,-2.70,4.70,-2.69,2.69,2.56,2.82,7.38,7.39,7.39
28.05,4.74,-2.65,4.74,-2.65,2.65,2.51,2.87,7.39,7.38,7.39
28.33,4.77,-2.62,4.78,-2.61,2.60,2.46,2.91,7.38,7.39,7.39
28.62,4.83,-2.56,4.83,-2.56,2.56,2.42,2.95,7.40,7.40,7.39
28.90,4.88,-2.51,4.87,-2.52,2.52,2.37,2.98,7.41,7.40,7.39
29.19,4.91,-2.48,4.92,-2.48,2.48,2.32,3.01,7.40,7.40,7.39
29.48,4.94,-2.45,4.95,-2.44,2.44,2.28,3.03,7.39,7.39,7.39
29.78,4.98,-2.41,4.98,-2.41,2.40,2.23,3.05,7.39,7.39,7.39
30.08,5.02,-2.37,5.02,-2.37,2.36,2.18,3.07,7.38,7.38,7.39
30.38,5.06,-2.32,5.06,-2.32,2.32,2.14,3.08,7.38,7.38,7.38
30.68,5.09,-2.29,5.10,-2.28,2.28,2.09,3.08,7.37,7.38,7.38
30.99,5.15,-2.23,5.14,-2.23,2.24,2.05,3.08,7.39,7.38,7.38
31.30,5.18,-2.19,5.18,-2.19,2.19,2.00,3.06,7.38,7.38,7.37
31.61,5.21,-2.16,5.22,-2.15,2.15,1.95,3.05,7.36,7.37,7.37
31.93,5.25,-2.11,5.26,-2.11,2.11,1.91,3.03,7.36,7.37,7.36
32.24,5.29,-2.07,5.29,-2.07,2.07,1.87,3.00,7.36,7.36,7.36
32.57,5.33,-2.02,5.33,-2.03,2.03,1.82,2.97,7.36,7.36,7.35
32.89,5.35,-2.00,5.36,-1.99,1.99,1.78,2.93,7.34,7.35,7.35
33.22,5.39,-1.95,5.39,-1.95,1.95,1.73,2.88,7.34,7.34,7.34
33.55,5.42,-1.92,5.42,-1.92,1.91,1.69,2.84,7.33,7.33,7.34
33.89,5.45,-1.88,5.46,-1.87,1.87,1.65,2.78,7.32,7.33,7.33
34.23,5.49,-1.83,5.50,-1.83,1.83,1.60,2.72,7.32,7.32,7.32
34.57,5.53,-1.78,5.53,-1.78,1.79,1.56,2.66,7.32,7.32,7.31
34.92,5.57,-1.73,5.57,-1.74,1.75,1.52,2.59,7.32,7.31,7.30
35.27,5.58,-1.72,5.60,-1.70,1.70,1.47,2.52,7.29,7.30,7.30
35.62,5.63,-1.65,5.62,-1.66,1.66,1.43,2.45,7.29,7.28,7.28
35.97,5.64,-1.63,5.65,-1.62,1.62,1.39,2.37,7.26,7.27,7.27
36.33,5.67,-1.59,5.68,-1.58,1.58,1.34,2.29,7.25,7.26,7.26
36.70,5.72,-1.52,5.71,-1.53,1.53,1.30,2.21,7.26,7.24,7.24
37.06,5.73,-1.50,5.74,-1.49,1.49,1.26,2.13,7.22,7.23,7.23
37.43,5.77,-1.44,5.77,-1.44,1.44,1.22,2.05,7.22,7.21,7.21
37.81,5.79,-1.40,5.80,-1.40,1.39,1.18,1.96,7.19,7.19,7.19
38.19,5.82,-1.36,5.83,-1.35,1.35,1.13,1.87,7.17,7.18,7.18
38.57,5.86,-1.30,5.86,-1.30,1.30,1.09,1.79,7.17,7.16,7.16
38.95,5.89,-1.25,5.89,-1.25,1.26,1.05,1.70,7.15,7.15,7.14
39.34,5.91,-1.21,5.92,-1.21,1.21,1.01,1.61,7.13,7.13,7.12
39.74,5.93,-1.17,5.93,-1.17,1.17,0.97,1.52,7.10,7.10,7.10
40.14,5.95,-1.13,5.95,-1.13,1.12,0.93,1.44,7.08,7.07,7.08
40.54,5.96,-1.10,5.97,-1.09,1.08,0.88,1.35,7.04,7.05,7.06
40.94,6.00,-1.03,6.00,-1.04,1.03,0.84,1.26,7.03,7.03,7.03
41.35,6.03,-0.98,6.03,-0.98,0.98,0.80,1.17,7.01,7.01,7.01
41.76,6.05,-0.93,6.06,-0.92,0.93,0.76,1.09,6.98,6.99,6.98
42.18,6.09,-0.87,6.08,-0.88,0.88,0.72,1.00,6.97,6.96,6.96
42.60,6.09,-0.84,6.10,-0.83,0.83,0.68,0.91,6.92,6.93,6.93
43.03,6.13,-0.77,6.13,-0.78,0.77,0.63,0.83,6.91,6.90,6.90
43.46,6.14,-0.73,6.15,-0.72,0.72,0.59,0.74,6.87,6.87,6.87
43.90,6.17,-0.67,6.17,-0.67,0.68,0.55,0.66,6.85,6.85,6.84
44.33,6.19,-0.62,6.19,-0.62,0.63,0.51,0.57,6.82,6.82,6.81
44.78,6.19,-0.59,6.21,-0.57,0.58,0.47,0.49,6.77,6.79,6.78
45.23,6.23,-0.52,6.22,-0.53,0.53,0.42,0.40,6.76,6.74,6.75
45.68,6.23,-0.48,6.23,-0.48,0.47,0.38,0.32,6.71,6.71,6.71
46.13,6.23,-0.44,6.25,-0.42,0.42,0.34,0.24,6.65,6.67,6.67
46.60,6.28,-0.35,6.27,-0.37,0.36,0.29,0.16,6.65,6.63,6.63
47.06,6.28,-0.32,6.30,-0.30,0.30,0.25,0.08,6.59,6.60,6.60
47.53,6.32,-0.24,6.31,-0.24,0.25,0.21,-0.00,6.57,6.56,6.56
48.01,6.33,-0.18,6.33,-0.18,0.19,0.16,-0.08,6.52,6.52,6.51
48.49,6.33,-0.14,6.35,-0.12,0.13,0.12,-0.16,6.46,6.48,6.47
48.97,6.37,-0.05,6.36,-0.06,0.07,0.07,-0.24,6.44,6.43,6.42
49.46,6.37,-0.01,6.37,-0.01,0.01,0.02,-0.32,6.38,6.38,6.38
49.96,6.37,0.04,6.39,0.05,-0.05,-0.02,-0.40,6.32,6.34,6.33
50.46,6.39,0.10,6.39,0.10,-0.11,-0.07,-0.47,6.28,6.28,6.29
50.96,6.42,0.17,6.41,0.16,-0.17,-0.12,-0.55,6.25,6.24,6.25
51.47,6.42,0.21,6.44,0.23,-0.23,-0.16,-0.63,6.19,6.21,6.21
51.99,6.46,0.30,6.46,0.29,-0.29,-0.21,-0.70,6.17,6.16,6.16
52.51,6.47,0.35,6.48,0.35,-0.35,-0.26,-0.77,6.12,6.12,6.12
53.03,6.49,0.41,6.50,0.42,-0.41,-0.31,-0.85,6.08,6.08,6.08
53.56,6.51,0.48,6.51,0.48,-0.47,-0.36,-0.92,6.04,6.04,6.03
54.10,6.51,0.53,6.51,0.53,-0.53,-0.41,-0.99,5.99,5.99,5.98
54.64,6.51,0.58,6.52,0.58,-0.58,-0.47,-1.06,5.93,5.93,5.93
55.18,6.51,0.63,6.51,0.63,-0.63,-0.52,-1.12,5.88,5.88,5.88
55.74,6.51,0.68,6.51,0.68,-0.68,-0.57,-1.19,5.84,5.84,5.83
56.29,6.51,0.72,6.51,0.72,-0.72,-0.63,-1.25,5.79,5.79,5.79
56.86,6.51,0.76,6.51,0.77,-0.76,-0.68,-1.31,5.75,5.75,5.75
57.42,6.51,0.81,6.51,0.81,-0.80,-0.74,-1.37,5.71,5.71,5.70
58.00,6.51,0.85,6.51,0.85,-0.85,-0.80,-1.43,5.67,5.67,5.66
58.58,6.51,0.89,6.51,0.89,-0.90,-0.86,-1.49,5.62,5.62,5.62
59.16,6.51,0.93,6.51,0.93,-0.95,-0.91,-1.54,5.57,5.56,5.58
59.76,6.51,0.97,6.52,0.99,-1.00,-0.97,-1.59,5.51,5.52,5.54
60.35,6.53,1.05,6.54,1.05,-1.06,-1.03,-1.64,5.47,5.47,5.48
60.96,6.56,1.14,6.55,1.13,-1.13,-1.09,-1.69,5.44,5.43,5.42
61.57,6.56,1.20,6.56,1.21,-1.19,-1.16,-1.73,5.37,5.37,5.36
62.18,6.56,1.27,6.56,1.27,-1.26,-1.22,-1.77,5.30,5.30,5.29
62.80,6.56,1.33,6.56,1.33,-1.33,-1.28,-1.81,5.23,5.23,5.23
63.43,6.56,1.39,6.57,1.40,-1.40,-1.34,-1.85,5.16,5.17,5.17
64.07,6.58,1.46,6.59,1.47,-1.46,-1.40,-1.88,5.12,5.12,5.12
64.71,6.61,1.54,6.60,1.53,-1.53,-1.47,-1.91,5.09,5.08,5.07
65.35,6.61,1.59,6.61,1.59,-1.58,-1.53,-1.94,5.03,5.03,5.02
66.01,6.61,1.64,6.62,1.64,-1.64,-1.59,-1.97,4.97,4.97,4.97
66.67,6.61,1.69,6.61,1.70,-1.70,-1.65,-2.00,4.91,4.91,4.92
67.33,6.61,1.75,6.61,1.75,-1.76,-1.71,-2.02,4.85,4.85,4.86
68.01,6.61,1.81,6.61,1.81,-1.82,-1.77,-2.04,4.80,4.80,4.80
68.69,6.61,1.87,6.61,1.87,-1.87,-1.83,-2.06,4.74,4.74,4.74
69.37,6.61,1.92,6.61,1.93,-1.93,-1.89,-2.08,4.69,4.69,4.69
70.07,6.61,1.98,6.62,1.99,-1.98,-1.94,-2.10,4.63,4.64,4.63
70.77,6.61,2.04,6.61,2.04,-2.03,-2.00,-2.12,4.58,4.58,4.57
71.48,6.61,2.10,6.60,2.09,-2.09,-2.05,-2.14,4.53,4.51,4.51
72.19,6.56,2.11,6.58,2.13,-2.13,-2.10,-2.15,4.43,4.45,4.45
72.91,6.56,2.18,6.57,2.18,-2.18,-2.15,-2.17,4.38,4.39,4.38
73.64,6.56,2.24,6.55,2.23,-2.23,-2.20,-2.19,4.33,4.32,4.32
74.38,6.54,2.28,6.54,2.28,-2.28,-2.25,-2.20,4.27,4.26,4.26
75.12,6.51,2.31,6.52,2.32,-2.33,-2.30,-2.22,4.19,4.20,4.20
75.87,6.51,2.36,6.51,2.36,-2.38,-2.35,-2.24,4.14,4.14,4.15
76.63,6.51,2.42,6.51,2.42,-2.43,-2.39,-2.26,4.09,4.08,4.09
77.40,6.51,2.47,6.51,2.48,-2.48,-2.44,-2.28,4.04,4.04,4.04
78.17,6.51,2.53,6.51,2.53,-2.53,-2.48,-2.30,3.99,3.99,3.98
78.95,6.51,2.58,6.52,2.58,-2.57,-2.53,-2.32,3.94,3.94,3.93
79.74,6.51,2.63,6.51,2.64,-2.62,-2.57,-2.34,3.90,3.90,3.88
80.54,6.50,2.68,6.49,2.67,-2.66,-2.62,-2.37,3.84,3.83,3.82
81.35,6.47,2.71,6.47,2.70,-2.71,-2.67,-2.39,3.77,3.76,3.76
82.16,6.42,2.71,6.44,2.73,-2.75,-2.71,-2.42,3.67,3.69,3.71
82.98,6.42,2.77,6.42,2.77,-2.79,-2.76,-2.45,3.63,3.63,3.65
83.81,6.42,2.83,6.42,2.83,-2.84,-2.80,-2.48,3.59,3.59,3.59
84.65,6.42,2.89,6.42,2.89,-2.88,-2.85,-2.51,3.55,3.54,3.53
85.50,6.42,2.95,6.41,2.93,-2.92,-2.90,-2.55,3.50,3.48,3.47
86.35,6.37,2.95,6.39,2.98,-2.97,-2.95,-2.59,3.40,3.42,3.42
87.22,6.37,3.01,6.37,3.01,-3.02,-2.99,-2.63,3.36,3.36,3.36
88.09,6.37,3.07,6.36,3.06,-3.06,-3.04,-2.67,3.31,3.30,3.30
88.97,6.33,3.09,6.35,3.10,-3.10,-3.09,-2.71,3.23,3.24,3.24
89.86,6.33,3.15,6.32,3.14,-3.14,-3.14,-2.75,3.19,3.18,3.18
90.76,6.29,3.17,6.30,3.18,-3.18,-3.19,-2.80,3.11,3.12,3.12
91.66,6.28,3.23,6.28,3.23,-3.23,-3.24,-2.85,3.06,3.05,3.05
92.58,6.26,3.27,6.26,3.27,-3.27,-3.29,-2.90,2.99,2.99,2.99
93.51,6.23,3.30,6.24,3.31,-3.31,-3.34,-2.96,2.92,2.93,2.93
94.44,6.23,3.36,6.22,3.36,-3.36,-3.39,-3.01,2.88,2.87,2.87
95.39,6.19,3.39,6.20,3.40,-3.40,-3.43,-3.07,2.79,2.80,2.80
96.34,6.19,3.46,6.18,3.45,-3.44,-3.48,-3.13,2.75,2.74,2.73
97.30,6.14,3.47,6.15,3.48,-3.49,-3.53,-3.19,2.66,2.66,2.67
98.28,6.13,3.53,6.13,3.53,-3.53,-3.58,-3.25,2.60,2.60,2.60
99.26,6.09,3.56,6.10,3.57,-3.57,-3.63,-3.31,2.52,2.53,2.53
100.25,6.09,3.63,6.08,3.62,-3.61,-3.67,-3.38,2.48,2.47,2.46
101.25,6.05,3.64,6.06,3.65,-3.65,-3.72,-3.45,2.41,2.41,2.41
102.27,6.03,3.68,6.04,3.69,-3.69,-3.76,-3.51,2.35,2.35,2.35
103.29,6.00,3.71,6.01,3.71,-3.72,-3.80,-3.58,2.28,2.28,2.29
104.32,5.99,3.76,5.99,3.76,-3.76,-3.85,-3.65,2.24,2.23,2.23
105.37,5.95,3.78,5.97,3.79,-3.79,-3.89,-3.72,2.16,2.18,2.17
106.42,5.95,3.83,5.94,3.82,-3.82,-3.92,-3.79,2.13,2.12,2.12
107.48,5.90,3.85,5.91,3.86,-3.85,-3.96,-3.85,2.06,2.06,2.05
108.56,5.87,3.88,5.88,3.88,-3.88,-3.99,-3.92,2.00,2.00,1.99
109.64,5.84,3.91,5.83,3.90,-3.90,-4.02,-3.99,1.94,1.93,1.93
110.74,5.78,3.91,5.80,3.92,-3.93,-4.05,-4.05,1.86,1.87,1.87
111.85,5.75,3.94,5.76,3.95,-3.95,-4.08,-4.12,1.80,1.80,1.81
112.97,5.72,3.98,5.71,3.97,-3.98,-4.10,-4.18,1.74,1.73,1.74
114.10,5.67,3.99,5.68,4.00,-4.00,-4.12,-4.24,1.67,1.67,1.68
115.24,5.63,4.02,5.64,4.03,-4.03,-4.13,-4.30,1.61,1.61,1.61
116.39,5.60,4.06,5.60,4.05,-4.05,-4.14,-4.35,1.55,1.55,1.54
117.55,5.55,4.07,5.56,4.08,-4.07,-4.15,-4.40,1.48,1.49,1.48
118.73,5.51,4.10,5.51,4.10,-4.08,-4.15,-4.45,1.43,1.43,1.41
119.92,5.46,4.11,5.46,4.11,-4.09,-4.15,-4.49,1.37,1.37,1.35
121.12,5.40,4.10,5.40,4.11,-4.10,-4.14,-4.53,1.30,1.30,1.30
122.33,5.34,4.10,5.34,4.10,-4.11,-4.13,-4.56,1.23,1.23,1.24
123.55,5.28,4.10,5.29,4.11,-4.12,-4.12,-4.60,1.17,1.17,1.18
124.79,5.23,4.11,5.24,4.11,-4.12,-4.10,-4.62,1.11,1.11,1.12
126.03,5.19,4.13,5.19,4.12,-4.13,-4.08,-4.64,1.06,1.05,1.06
127.29,5.13,4.13,5.14,4.14,-4.14,-4.06,-4.66,0.99,1.00,1.00
128.57,5.09,4.16,5.09,4.16,-4.16,-4.04,-4.68,0.94,0.94,0.93
129.85,5.05,4.18,5.05,4.17,-4.17,-4.02,-4.68,0.88,0.87,0.87
131.15,4.99,4.18,5.00,4.19,-4.19,-4.00,-4.69,0.81,0.81,0.81
132.46,4.95,4.20,4.95,4.20,-4.20,-4.00,-4.69,0.76,0.76,0.75
133.79,4.90,4.21,4.90,4.21,-4.20,-3.99,-4.69,0.70,0.70,0.69
135.12,4.85,4.22,4.85,4.21,-4.20,-4.01,-4.68,0.65,0.64,0.63
136.48,4.78,4.20,4.79,4.21,-4.20,-4.02,-4.68,0.58,0.59,0.58
137.84,4.72,4.20,4.73,4.21,-4.20,-4.06,-4.67,0.52,0.52,0.52
139.22,4.67,4.21,4.66,4.20,-4.20,-4.11,-4.65,0.47,0.46,0.46
140.61,4.60,4.19,4.61,4.20,-4.20,-4.17,-4.64,0.40,0.41,0.41
142.02,4.56,4.20,4.57,4.21,-4.21,-4.23,-4.63,0.36,0.36,0.36
143.44,4.55,4.24,4.54,4.22,-4.23,-4.32,-4.61,0.33,0.31,0.31
144.87,4.51,4.24,4.52,4.25,-4.26,-4.40,-4.59,0.26,0.26,0.27
146.32,4.51,4.29,4.51,4.29,-4.31,-4.49,-4.58,0.21,0.21,0.22
147.78,4.51,4.34,4.52,4.35,-4.37,-4.58,-4.56,0.14,0.15,0.17
149.26,4.56,4.44,4.56,4.44,-4.45,-4.67,-4.55,0.11,0.11,0.12
150.75,4.61,4.54,4.61,4.54,-4.55,-4.76,-4.53,0.06,0.06,0.07
152.26,4.68,4.65,4.69,4.66,-4.67,-4.85,-4.52,0.02,0.02,0.03
153.78,4.76,4.78,4.76,4.78,-4.79,-4.94,-4.51,-0.03,-0.03,-0.02
155.32,4.85,4.92,4.85,4.92,-4.92,-5.02,-4.50,-0.06,-0.06,-0.07
156.88,4.93,5.05,4.94,5.06,-5.04,-5.10,-4.49,-0.11,-0.10,-0.12
158.44,5.02,5.19,5.02,5.19,-5.17,-5.17,-4.48,-0.14,-0.15,-0.17
160.03,5.08,5.30,5.08,5.30,-5.28,-5.24,-4.48,-0.20,-0.20,-0.22
161.63,5.12,5.39,5.13,5.40,-5.39,-5.30,-4.48,-0.26,-0.26,-0.27
163.24,5.16,5.48,5.16,5.48,-5.48,-5.36,-4.48,-0.31,-0.32,-0.32
164.88,5.18,5.55,5.19,5.56,-5.56,-5.41,-4.49,-0.38,-0.37,-0.37
166.53,5.21,5.63,5.21,5.63,-5.63,-5.46,-4.50,-0.41,-0.42,-0.42
168.19,5.21,5.68,5.22,5.68,-5.69,-5.50,-4.51,-0.47,-0.47,-0.47
169.87,5.21,5.73,5.22,5.74,-5.73,-5.54,-4.53,-0.52,-0.51,-0.52
171.57,5.21,5.78,5.21,5.78,-5.78,-5.58,-4.55,-0.56,-0.56,-0.57
173.29,5.20,5.82,5.20,5.81,-5.81,-5.61,-4.57,-0.61,-0.61,-0.62
175.02,5.16,5.83,5.17,5.84,-5.84,-5.64,-4.59,-0.67,-0.67,-0.67
176.77,5.13,5.85,5.14,5.86,-5.86,-5.66,-4.62,-0.73,-0.72,-0.72
178.54,5.10,5.87,5.10,5.87,-5.88,-5.68,-4.66,-0.77,-0.77,-0.77
180.32,5.07,5.89,5.07,5.89,-5.89,-5.70,-4.69,-0.81,-0.82,-0.82
182.13,5.02,5.89,5.03,5.90,-5.90,-5.72,-4.73,-0.87,-0.87,-0.87
183.95,4.99,5.90,4.99,5.90,-5.90,-5.73,-4.78,-0.91,-0.91,-0.91
185.79,4.95,5.91,4.95,5.91,-5.91,-5.74,-4.82,-0.96,-0.96,-0.96
187.65,4.90,5.91,4.91,5.92,-5.91,-5.75,-4.87,-1.01,-1.01,-1.01
189.52,4.86,5.92,4.86,5.92,-5.92,-5.75,-4.93,-1.05,-1.06,-1.06
191.42,4.81,5.91,4.81,5.92,-5.92,-5.76,-4.98,-1.10,-1.10,-1.10
193.33,4.76,5.91,4.77,5.91,-5.92,-5.76,-5.04,-1.15,-1.15,-1.15
195.27,4.72,5.91,4.72,5.91,-5.91,-5.76,-5.11,-1.19,-1.20,-1.19
197.22,4.67,5.91,4.68,5.91,-5.91,-5.76,-5.17,-1.24,-1.24,-1.24
199.19,4.62,5.90,4.63,5.91,-5.91,-5.76,-5.24,-1.28,-1.28,-1.28
201.18,4.59,5.91,4.58,5.90,-5.90,-5.75,-5.31,-1.31,-1.32,-1.32
203.19,4.53,5.89,4.54,5.89,-5.89,-5.74,-5.38,-1.36,-1.36,-1.36
205.23,4.48,5.87,4.49,5.88,-5.88,-5.74,-5.45,-1.40,-1.39,-1.39
207.28,4.44,5.87,4.44,5.87,-5.87,-5.73,-5.53,-1.42,-1.43,-1.43
209.35,4.39,5.86,4.39,5.86,-5.85,-5.72,-5.60,-1.46,-1.46,-1.47
211.44,4.34,5.84,4.34,5.84,-5.83,-5.71,-5.68,-1.49,-1.50,-1.50
213.56,4.27,5.80,4.28,5.81,-5.82,-5.69,-5.75,-1.54,-1.53,-1.53
215.69,4.23,5.79,4.23,5.79,-5.80,-5.68,-5.83,-1.56,-1.56,-1.56
217.85,4.18,5.77,4.18,5.77,-5.77,-5.66,-5.90,-1.59,-1.60,-1.59
220.03,4.12,5.75,4.13,5.75,-5.75,-5.65,-5.97,-1.63,-1.63,-1.63
222.23,4.07,5.73,4.07,5.73,-5.73,-5.63,-6.04,-1.66,-1.66,-1.66
224.45,4.01,5.70,4.02,5.71,-5.71,-5.61,-6.10,-1.69,-1.69,-1.69
226.70,3.97,5.68,3.97,5.68,-5.68,-5.60,-6.16,-1.71,-1.71,-1.71
228.96,3.92,5.65,3.92,5.66,-5.65,-5.58,-6.22,-1.73,-1.73,-1.73
231.25,3.87,5.63,3.87,5.63,-5.62,-5.56,-6.27,-1.75,-1.75,-1.76
233.57,3.81,5.59,3.81,5.59,-5.59,-5.54,-6.32,-1.78,-1.78,-1.78
235.90,3.74,5.55,3.75,5.56,-5.56,-5.52,-6.36,-1.82,-1.81,-1.81
238.26,3.69,5.52,3.70,5.52,-5.53,-5.50,-6.39,-1.83,-1.83,-1.83
240.64,3.64,5.48,3.65,5.49,-5.49,-5.48,-6.42,-1.85,-1.84,-1.84
243.05,3.60,5.46,3.60,5.46,-5.45,-5.46,-6.44,-1.85,-1.85,-1.86
245.48,3.54,5.42,3.54,5.42,-5.41,-5.44,-6.44,-1.87,-1.87,-1.88
247.93,3.48,5.38,3.49,5.38,-5.38,-5.42,-6.45,-1.89,-1.89,-1.90
250.41,3.42,5.33,3.43,5.34,-5.34,-5.40,-6.44,-1.91,-1.91,-1.91
252.92,3.38,5.30,3.38,5.30,-5.30,-5.37,-6.42,-1.92,-1.92,-1.92
255.45,3.33,5.27,3.33,5.26,-5.27,-5.35,-6.40,-1.93,-1.94,-1.94
258.00,3.27,5.22,3.28,5.23,-5.23,-5.33,-6.36,-1.96,-1.95,-1.95
260.58,3.24,5.20,3.24,5.20,-5.20,-5.31,-6.32,-1.96,-1.96,-1.96
263.19,3.20,5.17,3.20,5.17,-5.18,-5.29,-6.27,-1.98,-1.98,-1.97
265.82,3.18,5.16,3.18,5.16,-5.16,-5.27,-6.22,-1.98,-1.98,-1.98
268.48,3.15,5.14,3.16,5.15,-5.15,-5.25,-6.15,-2.00,-1.99,-1.99
271.16,3.15,5.15,3.14,5.14,-5.14,-5.23,-6.08,-1.99,-2.00,-2.00
273.87,3.11,5.12,3.13,5.14,-5.13,-5.21,-6.01,-2.02,-2.01,-2.01
276.61,3.11,5.13,3.12,5.13,-5.13,-5.19,-5.93,-2.01,-2.01,-2.02
279.38,3.11,5.14,3.10,5.13,-5.12,-5.18,-5.84,-2.01,-2.02,-2.03
282.17,3.09,5.12,3.10,5.12,-5.12,-5.16,-5.75,-2.03,-2.02,-2.03
284.99,3.08,5.11,3.08,5.11,-5.12,-5.14,-5.66,-2.03,-2.04,-2.03
287.84,3.06,5.09,3.07,5.10,-5.11,-5.12,-5.57,-2.05,-2.04,-2.03
290.72,3.06,5.10,3.06,5.10,-5.11,-5.10,-5.47,-2.04,-2.04,-2.04
293.63,3.06,5.10,3.07,5.10,-5.10,-5.08,-5.37,-2.04,-2.03,-2.04
296.57,3.06,5.10,3.06,5.10,-5.09,-5.06,-5.27,-2.03,-2.03,-2.04
299.53,3.06,5.10,3.05,5.09,-5.08,-5.04,-5.17,-2.01,-2.03,-2.04
302.53,3.01,5.05,3.03,5.07,-5.06,-5.02,-5.08,-2.05,-2.04,-2.04
305.55,3.00,5.04,3.00,5.04,-5.04,-5.00,-4.98,-2.04,-2.04,-2.04
308.61,2.97,5.01,2.98,5.02,-5.02,-4.98,-4.88,-2.05,-2.04,-2.04
311.69,2.96,5.00,2.96,4.99,-4.99,-4.96,-4.78,-2.03,-2.04,-2.04
314.81,2.92,4.96,2.92,4.96,-4.96,-4.93,-4.68,-2.04,-2.04,-2.04
317.96,2.88,4.92,2.89,4.93,-4.92,-4.90,-4.59,-2.04,-2.04,-2.04
321.14,2.84,4.88,2.85,4.89,-4.89,-4.87,-4.50,-2.05,-2.04,-2.04
324.35,2.81,4.85,2.81,4.85,-4.85,-4.83,-4.41,-2.04,-2.04,-2.04
327.59,2.78,4.81,2.78,4.81,-4.81,-4.80,-4.32,-2.03,-2.03,-2.03
330.87,2.73,4.76,2.74,4.77,-4.77,-4.76,-4.24,-2.03,-2.03,-2.03
334.18,2.70,4.73,2.70,4.72,-4.72,-4.72,-4.15,-2.02,-2.03,-2.03
337.52,2.64,4.67,2.65,4.68,-4.68,-4.67,-4.07,-2.03,-2.03,-2.03
340.90,2.61,4.63,2.61,4.63,-4.63,-4.62,-4.00,-2.02,-2.02,-2.02
344.30,2.56,4.58,2.56,4.58,-4.58,-4.57,-3.92,-2.02,-2.02,-2.02
347.75,2.52,4.53,2.52,4.53,-4.53,-4.52,-3.85,-2.01,-2.01,-2.01
351.23,2.47,4.48,2.48,4.48,-4.48,-4.46,-3.78,-2.01,-2.01,-2.01
354.74,2.43,4.43,2.43,4.43,-4.43,-4.40,-3.71,-2.00,-2.00,-2.00
358.28,2.38,4.38,2.38,4.38,-4.38,-4.34,-3.65,-1.99,-1.99,-2.00
361.87,2.33,4.32,2.33,4.32,-4.32,-4.28,-3.59,-1.99,-1.99,-1.99
365.49,2.28,4.26,2.28,4.26,-4.26,-4.22,-3.53,-1.98,-1.98,-1.98
369.14,2.22,4.20,2.23,4.20,-4.21,-4.16,-3.48,-1.99,-1.98,-1.98
372.83,2.18,4.15,2.18,4.15,-4.15,-4.09,-3.43,-1.97,-1.98,-1.97
376.56,2.12,4.09,2.13,4.10,-4.10,-4.03,-3.38,-1.97,-1.97,-1.97
380.33,2.08,4.04,2.08,4.04,-4.04,-3.96,-3.33,-1.96,-1.96,-1.96
384.13,2.03,3.99,2.03,3.99,-3.99,-3.90,-3.29,-1.95,-1.95,-1.96
387.97,1.98,3.93,1.99,3.94,-3.93,-3.84,-3.24,-1.95,-1.94,-1.95
391.85,1.94,3.88,1.94,3.88,-3.88,-3.77,-3.20,-1.94,-1.94,-1.94
395.77,1.89,3.83,1.89,3.82,-3.82,-3.71,-3.17,-1.93,-1.93,-1.94
399.73,1.83,3.76,1.84,3.77,-3.77,-3.65,-3.13,-1.94,-1.93,-1.93
403.72,1.78,3.70,1.78,3.71,-3.71,-3.59,-3.10,-1.93,-1.93,-1.92
407.76,1.73,3.65,1.74,3.65,-3.65,-3.53,-3.07,-1.92,-1.92,-1.92
411.84,1.69,3.60,1.69,3.60,-3.59,-3.47,-3.04,-1.90,-1.90,-1.91
415.96,1.64,3.54,1.64,3.54,-3.53,-3.41,-3.01,-1.89,-1.89,-1.90
420.12,1.58,3.48,1.58,3.48,-3.47,-3.35,-2.98,-1.89,-1.89,-1.90
424.32,1.51,3.40,1.52,3.41,-3.41,-3.30,-2.96,-1.90,-1.89,-1.89
428.56,1.45,3.33,1.46,3.34,-3.35,-3.24,-2.93,-1.90,-1.89,-1.88
432.85,1.41,3.28,1.41,3.28,-3.29,-3.19,-2.91,-1.87,-1.88,-1.87
437.18,1.36,3.23,1.36,3.23,-3.22,-3.13,-2.89,-1.86,-1.86,-1.87
441.55,1.31,3.17,1.31,3.17,-3.16,-3.08,-2.87,-1.84,-1.85,-1.86
445.96,1.25,3.10,1.25,3.10,-3.09,-3.03,-2.84,-1.84,-1.84,-1.85
450.42,1.19,3.03,1.19,3.03,-3.03,-2.98,-2.82,-1.84,-1.84,-1.84
454.93,1.13,2.96,1.14,2.96,-2.97,-2.93,-2.80,-1.84,-1.83,-1.83
459.48,1.08,2.90,1.08,2.90,-2.91,-2.88,-2.78,-1.83,-1.83,-1.82
464.07,1.03,2.84,1.04,2.84,-2.85,-2.83,-2.76,-1.82,-1.81,-1.81
468.71,0.99,2.79,0.99,2.79,-2.79,-2.78,-2.73,-1.80,-1.80,-1.80
473.40,0.94,2.73,0.95,2.74,-2.74,-2.74,-2.71,-1.79,-1.79,-1.79
478.13,0.90,2.68,0.91,2.68,-2.68,-2.69,-2.69,-1.78,-1.78,-1.78
482.91,0.87,2.64,0.86,2.63,-2.63,-2.64,-2.66,-1.76,-1.77,-1.77
487.74,0.81,2.57,0.82,2.58,-2.58,-2.60,-2.64,-1.76,-1.76,-1.76
492.62,0.78,2.53,0.78,2.53,-2.52,-2.55,-2.61,-1.74,-1.74,-1.75
497.55,0.73,2.47,0.74,2.48,-2.47,-2.51,-2.58,-1.73,-1.73,-1.74
502.52,0.70,2.43,0.69,2.42,-2.41,-2.47,-2.55,-1.71,-1.72,-1.73
507.55,0.64,2.35,0.65,2.36,-2.36,-2.43,-2.52,-1.72,-1.72,-1.71
512.62,0.59,2.29,0.60,2.30,-2.31,-2.38,-2.49,-1.72,-1.71,-1.70
517.75,0.56,2.25,0.56,2.25,-2.26,-2.34,-2.45,-1.70,-1.70,-1.69
522.93,0.53,2.21,0.53,2.21,-2.21,-2.30,-2.42,-1.68,-1.68,-1.68
