frequency,raw,error,smoothed,error_smoothed,equalization,parametric_eq,fixed_band_eq,equalized_raw,equalized_smoothed,target
20.00,-0.66,-6.74,-0.66,-6.74,6.73,6.54,2.30,6.07,6.08,6.08
20.20,-0.62,-6.69,-0.62,-6.69,6.69,6.51,2.37,6.07,6.07,6.07
20.40,-0.58,-6.64,-0.58,-6.64,6.64,6.49,2.44,6.06,6.05,6.06
20.61,-0.54,-6.59,-0.54,-6.59,6.59,6.47,2.51,6.05,6.04,6.05
20.81,-0.51,-6.54,-0.51,-6.53,6.54,6.44,2.59,6.03,6.03,6.03
21.02,-0.47,-6.49,-0.47,-6.49,6.49,6.42,2.66,6.02,6.02,6.02
21.23,-0.43,-6.44,-0.43,-6.44,6.44,6.39,2.74,6.01,6.01,6.01
21.44,-0.39,-6.41,-0.39,-6.40,6.39,6.36,2.82,6.00,6.00,6.02
21.66,-0.35,-6.35,-0.35,-6.35,6.35,6.33,2.91,6.00,6.00,6.00
21.87,-0.31,-6.31,-0.31,-6.30,6.30,6.30,2.99,5.99,5.99,6.00
22.09,-0.27,-6.25,-0.27,-6.25,6.25,6.27,3.08,5.98,5.98,5.98
22.31,-0.24,-6.21,-0.24,-6.20,6.21,6.24,3.17,5.97,5.97,5.97
22.54,-0.20,-6.16,-0.20,-6.16,6.16,6.21,3.26,5.96,5.96,5.96
22.76,-0.16,-6.12,-0.16,-6.11,6.11,6.17,3.36,5.95,5.95,5.96
22.99,-0.12,-6.07,-0.12,-6.07,6.07,6.14,3.46,5.95,5.95,5.95
23.22,-0.08,-6.02,-0.08,-6.02,6.02,6.10,3.56,5.94,5.94,5.94
23.45,-0.04,-5.99,-0.04,-5.98,5.98,6.07,3.66,5.94,5.94,5.95
23.69,-0.00,-5.94,0.00,-5.94,5.94,6.03,3.76,5.94,5.94,5.94
23.92,0.04,-5.89,0.04,-5.89,5.90,6.00,3.87,5.94,5.94,5.93
24.16,0.08,-5.86,0.08,-5.85,5.85,5.96,3.98,5.93,5.93,5.94
24.40,0.12,-5.82,0.12,-5.82,5.81,5.92,4.09,5.93,5.93,5.94
24.65,0.15,-5.78,0.15,-5.78,5.77,5.88,4.20,5.92,5.92,5.93
24.89,0.19,-5.74,0.19,-5.73,5.73,5.85,4.31,5.92,5.92,5.93
25.14,0.23,-5.69,0.23,-5.69,5.69,5.81,4.42,5.92,5.92,5.92
25.39,0.27,-5.65,0.27,-5.64,5.65,5.77,4.54,5.92,5.92,5.92
25.65,0.31,-5.61,0.31,-5.61,5.61,5.73,4.65,5.92,5.92,5.92
25.91,0.35,-5.57,0.35,-5.57,5.57,5.69,4.77,5.92,5.92,5.92
26.16,0.38,-5.55,0.38,-5.54,5.53,5.65,4.88,5.91,5.92,5.93
26.43,0.42,-5.50,0.42,-5.50,5.50,5.61,4.99,5.91,5.92,5.92
26.69,0.46,-5.46,0.46,-5.46,5.46,5.57,5.11,5.92,5.91,5.92
26.96,0.49,-5.43,0.49,-5.42,5.42,5.53,5.22,5.91,5.92,5.92
27.23,0.53,-5.39,0.53,-5.39,5.39,5.49,5.32,5.92,5.92,5.92
27.50,0.57,-5.35,0.57,-5.35,5.35,5.45,5.43,5.92,5.92,5.92
27.77,0.60,-5.33,0.60,-5.32,5.32,5.41,5.53,5.92,5.92,5.93
28.05,0.64,-5.28,0.64,-5.28,5.29,5.37,5.63,5.93,5.93,5.92
28.33,0.67,-5.26,0.67,-5.25,5.26,5.33,5.72,5.93,5.93,5.93
28.62,0.70,-5.23,0.70,-5.23,5.22,5.29,5.81,5.92,5.93,5.93
28.90,0.74,-5.20,0.74,-5.20,5.19,5.25,5.89,5.93,5.93,5.94
29.19,0.77,-5.17,0.77,-5.16,5.16,5.21,5.96,5.93,5.93,5.94
29.48,0.81,-5.12,0.81,-5.12,5.12,5.17,6.02,5.93,5.93,5.93
29.78,0.84,-5.09,0.84,-5.08,5.08,5.13,6.08,5.92,5.92,5.93
30.08,0.88,-5.05,0.88,-5.04,5.04,5.09,6.13,5.92,5.92,5.93
30.38,0.91,-5.00,0.91,-5.00,5.00,5.05,6.16,5.91,5.92,5.91
30.68,0.95,-4.96,0.95,-4.96,4.97,5.01,6.19,5.92,5.91,5.91
30.99,0.98,-4.93,0.98,-4.93,4.93,4.97,6.21,5.91,5.91,5.91
31.30,1.01,-4.90,1.01,-4.89,4.89,4.93,6.22,5.90,5.90,5.91
31.61,1.04,-4.86,1.04,-4.86,4.86,4.89,6.22,5.90,5.89,5.90
31.93,1.06,-4.82,1.06,-4.82,4.82,4.85,6.20,5.88,5.89,5.88
32.24,1.09,-4.80,1.09,-4.79,4.79,4.82,6.18,5.88,5.88,5.89
32.57,1.12,-4.75,1.12,-4.75,4.76,4.78,6.15,5.88,5.87,5.87
32.89,1.14,-4.73,1.14,-4.72,4.72,4.74,6.11,5.86,5.87,5.87
33.22,1.17,-4.69,1.17,-4.69,4.69,4.70,6.06,5.86,5.86,5.86
33.55,1.19,-4.67,1.19,-4.66,4.66,4.66,6.00,5.85,5.85,5.86
33.89,1.22,-4.63,1.22,-4.63,4.63,4.62,5.93,5.85,5.84,5.85
34.23,1.24,-4.59,1.24,-4.59,4.59,4.58,5.86,5.83,5.83,5.83
34.57,1.26,-4.57,1.26,-4.56,4.56,4.55,5.78,5.82,5.83,5.83
34.92,1.29,-4.52,1.29,-4.53,4.53,4.51,5.70,5.82,5.82,5.81
35.27,1.31,-4.52,1.31,-4.50,4.50,4.47,5.61,5.81,5.81,5.83
35.62,1.33,-4.47,1.33,-4.47,4.47,4.43,5.52,5.80,5.80,5.80
35.97,1.35,-4.45,1.35,-4.44,4.44,4.39,5.42,5.79,5.79,5.80
36.33,1.37,-4.41,1.37,-4.41,4.40,4.35,5.32,5.77,5.77,5.78
36.70,1.39,-4.37,1.39,-4.37,4.36,4.32,5.22,5.75,5.75,5.76
37.06,1.41,-4.33,1.41,-4.32,4.32,4.28,5.12,5.73,5.74,5.74
37.43,1.44,-4.28,1.44,-4.28,4.28,4.24,5.01,5.72,5.72,5.72
37.81,1.47,-4.24,1.47,-4.23,4.24,4.20,4.91,5.71,5.70,5.71
38.19,1.49,-4.19,1.49,-4.19,4.19,4.16,4.81,5.68,5.68,5.68
38.57,1.51,-4.15,1.51,-4.15,4.15,4.12,4.70,5.66,5.66,5.66
38.95,1.54,-4.11,1.54,-4.10,4.10,4.08,4.60,5.64,5.64,5.65
39.34,1.56,-4.06,1.56,-4.06,4.05,4.04,4.50,5.61,5.61,5.62
39.74,1.58,-4.01,1.58,-4.01,4.01,4.01,4.40,5.59,5.59,5.59
40.14,1.60,-3.97,1.60,-3.96,3.97,3.97,4.30,5.56,5.57,5.57
40.54,1.62,-3.93,1.62,-3.92,3.92,3.93,4.20,5.54,5.54,5.55
40.94,1.65,-3.87,1.65,-3.87,3.88,3.89,4.10,5.53,5.53,5.52
41.35,1.67,-3.84,1.67,-3.83,3.84,3.85,4.01,5.51,5.51,5.51
41.76,1.69,-3.79,1.69,-3.79,3.79,3.81,3.92,5.48,5.48,5.48
42.18,1.71,-3.76,1.71,-3.76,3.75,3.77,3.83,5.46,5.46,5.47
42.60,1.72,-3.72,1.72,-3.71,3.71,3.73,3.75,5.43,5.43,5.44
43.03,1.74,-3.68,1.74,-3.67,3.67,3.68,3.66,5.41,5.41,5.42
43.46,1.76,-3.62,1.76,-3.62,3.62,3.64,3.58,5.38,5.38,5.38
43.90,1.78,-3.58,1.78,-3.57,3.58,3.60,3.50,5.36,5.36,5.36
44.33,1.80,-3.53,1.80,-3.53,3.53,3.56,3.43,5.33,5.33,5.33
44.78,1.82,-3.49,1.82,-3.49,3.48,3.52,3.35,5.30,5.30,5.31
45.23,1.84,-3.45,1.84,-3.44,3.44,3.47,3.28,5.28,5.28,5.29
45.68,1.86,-3.38,1.86,-3.39,3.39,3.43,3.21,5.25,5.25,5.24
46.13,1.87,-3.34,1.87,-3.34,3.34,3.39,3.15,5.21,5.21,5.21
46.60,1.88,-3.29,1.88,-3.29,3.29,3.34,3.09,5.17,5.17,5.17
47.06,1.89,-3.25,1.89,-3.24,3.24,3.30,3.02,5.13,5.13,5.14
47.53,1.90,-3.20,1.90,-3.20,3.19,3.25,2.97,5.09,5.09,5.10
48.01,1.90,-3.15,1.90,-3.15,3.14,3.21,2.91,5.04,5.04,5.05
48.49,1.91,-3.10,1.91,-3.09,3.09,3.16,2.86,5.00,5.00,5.01
48.97,1.93,-3.03,1.93,-3.03,3.04,3.12,2.80,4.97,4.96,4.96
49.46,1.94,-2.99,1.94,-2.98,2.98,3.07,2.76,4.92,4.92,4.93
49.96,1.95,-2.92,1.95,-2.93,2.93,3.03,2.71,4.88,4.88,4.87
50.46,1.95,-2.89,1.95,-2.88,2.88,2.98,2.66,4.83,4.84,4.84
50.96,1.96,-2.84,1.96,-2.83,2.84,2.93,2.62,4.80,4.79,4.80
51.47,1.96,-2.80,1.96,-2.79,2.79,2.88,2.57,4.75,4.75,4.76
51.99,1.97,-2.74,1.97,-2.75,2.75,2.84,2.53,4.72,4.72,4.71
52.51,1.97,-2.71,1.97,-2.71,2.71,2.79,2.49,4.68,4.68,4.68
53.03,1.97,-2.68,1.97,-2.67,2.67,2.74,2.46,4.64,4.64,4.65
53.56,1.96,-2.64,1.96,-2.63,2.63,2.69,2.42,4.59,4.59,4.60
54.10,1.96,-2.59,1.96,-2.59,2.59,2.64,2.38,4.55,4.55,4.55
54.64,1.95,-2.56,1.95,-2.55,2.55,2.59,2.35,4.50,4.51,4.51
55.18,1.95,-2.52,1.95,-2.51,2.51,2.54,2.31,4.46,4.47,4.47
55.74,1.95,-2.47,1.95,-2.48,2.48,2.49,2.28,4.43,4.43,4.42
56.29,1.95,-2.45,1.95,-2.44,2.44,2.44,2.24,4.39,4.39,4.40
56.86,1.95,-2.41,1.95,-2.40,2.40,2.39,2.21,4.35,4.35,4.36
57.42,1.95,-2.36,1.95,-2.36,2.37,2.34,2.17,4.32,4.32,4.31
58.00,1.95,-2.32,1.95,-2.32,2.33,2.29,2.14,4.28,4.28,4.27
58.58,1.95,-2.29,1.95,-2.29,2.29,2.24,2.10,4.24,4.24,4.24
59.16,1.95,-2.26,1.95,-2.25,2.24,2.19,2.07,4.19,4.19,4.21
59.76,1.95,-2.21,1.95,-2.21,2.20,2.14,2.03,4.15,4.15,4.16
60.35,1.95,-2.16,1.95,-2.16,2.15,2.08,2.00,4.10,4.10,4.11
60.96,1.95,-2.10,1.95,-2.10,2.09,2.03,1.96,4.04,4.04,4.05
61.57,1.95,-2.04,1.95,-2.04,2.04,1.98,1.92,3.99,3.99,3.99
62.18,1.95,-1.98,1.95,-1.98,1.98,1.93,1.88,3.93,3.93,3.93
62.80,1.95,-1.92,1.95,-1.92,1.93,1.88,1.85,3.88,3.88,3.87
63.43,1.95,-1.87,1.95,-1.87,1.87,1.83,1.80,3.82,3.82,3.82
64.07,1.95,-1.82,1.95,-1.81,1.82,1.77,1.76,3.77,3.77,3.77
64.71,1.95,-1.77,1.95,-1.76,1.76,1.72,1.72,3.71,3.71,3.72
65.35,1.95,-1.71,1.95,-1.71,1.71,1.67,1.68,3.66,3.66,3.66
66.01,1.95,-1.66,1.95,-1.66,1.66,1.62,1.63,3.61,3.61,3.61
66.67,1.95,-1.62,1.95,-1.61,1.61,1.57,1.59,3.56,3.56,3.57
67.33,1.95,-1.55,1.95,-1.55,1.55,1.51,1.54,3.50,3.50,3.50
68.01,1.95,-1.50,1.95,-1.50,1.50,1.46,1.49,3.45,3.45,3.45
68.69,1.95,-1.45,1.95,-1.45,1.44,1.41,1.44,3.39,3.39,3.40
69.37,1.95,-1.40,1.95,-1.39,1.39,1.36,1.39,3.34,3.34,3.35
70.07,1.95,-1.34,1.95,-1.33,1.33,1.31,1.34,3.28,3.28,3.29
70.77,1.95,-1.27,1.95,-1.27,1.27,1.25,1.29,3.22,3.22,3.22
71.48,1.95,-1.22,1.95,-1.21,1.21,1.20,1.24,3.16,3.16,3.17
72.19,1.95,-1.16,1.95,-1.15,1.15,1.15,1.19,3.10,3.10,3.11
72.91,1.95,-1.09,1.95,-1.09,1.09,1.10,1.14,3.04,3.04,3.04
73.64,1.95,-1.04,1.95,-1.03,1.04,1.05,1.09,2.99,2.99,2.99
74.38,1.95,-0.98,1.95,-0.98,0.98,1.00,1.04,2.93,2.93,2.93
75.12,1.95,-0.93,1.95,-0.93,0.93,0.95,0.98,2.88,2.88,2.88
75.87,1.95,-0.88,1.95,-0.87,0.87,0.90,0.93,2.82,2.82,2.83
76.63,1.95,-0.82,1.95,-0.82,0.82,0.84,0.88,2.77,2.77,2.77
77.40,1.95,-0.78,1.95,-0.77,0.77,0.79,0.82,2.72,2.72,2.73
78.17,1.95,-0.72,1.95,-0.72,0.72,0.74,0.77,2.67,2.67,2.67
78.95,1.95,-0.68,1.95,-0.68,0.67,0.69,0.72,2.62,2.62,2.63
79.74,1.95,-0.63,1.95,-0.62,0.62,0.64,0.67,2.57,2.57,2.58
80.54,1.95,-0.58,1.95,-0.58,0.58,0.59,0.61,2.53,2.53,2.53
81.35,1.95,-0.52,1.95,-0.53,0.53,0.54,0.56,2.48,2.48,2.47
82.16,1.95,-0.49,1.95,-0.48,0.48,0.49,0.51,2.43,2.43,2.44
82.98,1.95,-0.43,1.95,-0.43,0.42,0.45,0.45,2.37,2.37,2.38
83.81,1.95,-0.38,1.95,-0.37,0.37,0.40,0.40,2.32,2.32,2.33
84.65,1.95,-0.32,1.95,-0.32,0.32,0.35,0.35,2.27,2.27,2.27
85.50,1.95,-0.26,1.95,-0.26,0.26,0.30,0.30,2.21,2.21,2.21
86.35,1.95,-0.21,1.95,-0.21,0.20,0.25,0.24,2.15,2.15,2.16
87.22,1.95,-0.16,1.95,-0.15,0.15,0.20,0.19,2.10,2.09,2.11
88.09,1.95,-0.10,1.95,-0.09,0.09,0.15,0.14,2.04,2.04,2.05
88.97,1.96,-0.03,1.96,-0.03,0.03,0.11,0.09,1.99,1.99,1.99
89.86,1.97,0.03,1.97,0.04,-0.03,0.06,0.03,1.94,1.94,1.94
90.76,1.97,0.09,1.97,0.10,-0.08,0.01,-0.02,1.89,1.88,1.88
91.66,1.96,0.15,1.96,0.15,-0.14,-0.03,-0.07,1.82,1.82,1.81
92.58,1.95,0.19,1.95,0.19,-0.19,-0.08,-0.12,1.76,1.76,1.76
93.51,1.93,0.22,1.93,0.23,-0.23,-0.13,-0.17,1.70,1.70,1.71
94.44,1.91,0.26,1.91,0.27,-0.27,-0.18,-0.23,1.64,1.64,1.65
95.39,1.89,0.31,1.89,0.31,-0.31,-0.22,-0.28,1.58,1.58,1.58
96.34,1.86,0.35,1.86,0.35,-0.34,-0.27,-0.33,1.52,1.51,1.51
97.30,1.82,0.37,1.83,0.38,-0.38,-0.31,-0.38,1.44,1.45,1.45
98.28,1.79,0.41,1.79,0.41,-0.41,-0.36,-0.43,1.38,1.38,1.38
99.26,1.76,0.44,1.75,0.44,-0.44,-0.40,-0.49,1.32,1.32,1.32
100.25,1.72,0.46,1.72,0.46,-0.46,-0.45,-0.54,1.26,1.26,1.26
101.25,1.69,0.48,1.69,0.49,-0.49,-0.49,-0.59,1.20,1.20,1.21
102.27,1.67,0.52,1.67,0.52,-0.53,-0.54,-0.64,1.14,1.14,1.15
103.29,1.65,0.56,1.65,0.56,-0.56,-0.58,-0.69,1.09,1.08,1.09
104.32,1.63,0.59,1.63,0.60,-0.61,-0.63,-0.74,1.02,1.03,1.04
105.37,1.62,0.64,1.62,0.64,-0.65,-0.67,-0.79,0.97,0.97,0.98
106.42,1.62,0.69,1.62,0.69,-0.70,-0.72,-0.84,0.92,0.91,0.93
107.48,1.62,0.75,1.62,0.75,-0.76,-0.76,-0.89,0.86,0.87,0.87
108.56,1.63,0.81,1.63,0.82,-0.81,-0.80,-0.94,0.82,0.82,0.82
109.64,1.63,0.87,1.63,0.87,-0.86,-0.85,-0.98,0.77,0.77,0.76
110.74,1.62,0.92,1.62,0.92,-0.90,-0.89,-1.03,0.72,0.71,0.70
111.85,1.59,0.95,1.59,0.95,-0.95,-0.93,-1.08,0.64,0.64,0.64
112.97,1.56,0.97,1.56,0.98,-0.99,-0.97,-1.12,0.57,0.57,0.59
114.10,1.53,1.00,1.53,1.01,-1.02,-1.02,-1.16,0.51,0.51,0.53
115.24,1.50,1.05,1.50,1.05,-1.05,-1.06,-1.20,0.45,0.45,0.45
116.39,1.48,1.09,1.48,1.09,-1.08,-1.10,-1.24,0.40,0.40,0.39
117.55,1.45,1.12,1.44,1.12,-1.11,-1.14,-1.28,0.34,0.34,0.33
118.73,1.41,1.14,1.41,1.14,-1.13,-1.18,-1.32,0.28,0.28,0.27
119.92,1.37,1.14,1.38,1.16,-1.16,-1.22,-1.36,0.21,0.21,0.23
121.12,1.35,1.17,1.35,1.18,-1.19,-1.26,-1.39,0.16,0.16,0.18
122.33,1.34,1.22,1.33,1.21,-1.22,-1.30,-1.42,0.12,0.11,0.12
123.55,1.32,1.25,1.32,1.25,-1.25,-1.34,-1.45,0.07,0.06,0.07
124.79,1.29,1.27,1.29,1.28,-1.28,-1.38,-1.48,0.01,0.01,0.02
126.03,1.27,1.31,1.27,1.32,-1.32,-1.42,-1.51,-0.05,-0.04,-0.04
127.29,1.26,1.35,1.26,1.36,-1.35,-1.46,-1.53,-0.10,-0.10,-0.09
128.57,1.24,1.40,1.24,1.39,-1.39,-1.50,-1.56,-0.15,-0.15,-0.16
129.85,1.21,1.42,1.21,1.43,-1.42,-1.54,-1.58,-0.21,-0.21,-0.21
131.15,1.18,1.45,1.18,1.46,-1.45,-1.58,-1.60,-0.27,-0.26,-0.27
132.46,1.16,1.48,1.15,1.48,-1.47,-1.62,-1.62,-0.31,-0.32,-0.32
133.79,1.12,1.50,1.12,1.50,-1.50,-1.66,-1.64,-0.38,-0.38,-0.38
135.12,1.08,1.51,1.09,1.52,-1.52,-1.69,-1.65,-0.44,-0.43,-0.43
136.48,1.06,1.54,1.05,1.54,-1.54,-1.73,-1.67,-0.48,-0.49,-0.48
137.84,1.02,1.55,1.02,1.56,-1.56,-1.77,-1.68,-0.54,-0.54,-0.53
139.22,1.00,1.59,1.00,1.59,-1.59,-1.81,-1.70,-0.59,-0.59,-0.59
140.61,0.98,1.61,0.98,1.62,-1.62,-1.84,-1.71,-0.64,-0.64,-0.63
142.02,0.96,1.65,0.96,1.65,-1.66,-1.88,-1.72,-0.70,-0.69,-0.69
143.44,0.95,1.68,0.95,1.69,-1.69,-1.91,-1.74,-0.74,-0.74,-0.73
144.87,0.95,1.72,0.95,1.73,-1.74,-1.95,-1.75,-0.79,-0.78,-0.77
146.32,0.96,1.78,0.96,1.78,-1.78,-1.98,-1.76,-0.82,-0.82,-0.82
147.78,0.97,1.83,0.97,1.83,-1.83,-2.02,-1.78,-0.86,-0.86,-0.86
149.26,0.97,1.88,0.97,1.88,-1.87,-2.05,-1.79,-0.90,-0.90,-0.91
150.75,0.97,1.92,0.97,1.92,-1.92,-2.09,-1.80,-0.95,-0.95,-0.95
152.26,0.97,1.96,0.97,1.96,-1.96,-2.12,-1.82,-0.99,-0.99,-0.99
153.78,0.97,2.00,0.97,2.00,-2.01,-2.15,-1.83,-1.04,-1.04,-1.03
155.32,0.97,2.04,0.97,2.05,-2.05,-2.19,-1.85,-1.08,-1.08,-1.07
156.88,0.97,2.09,0.97,2.09,-2.09,-2.22,-1.87,-1.12,-1.12,-1.12
158.44,0.97,2.14,0.97,2.14,-2.14,-2.25,-1.89,-1.17,-1.17,-1.17
160.03,0.97,2.18,0.97,2.18,-2.18,-2.28,-1.91,-1.21,-1.21,-1.21
161.63,0.97,2.22,0.97,2.23,-2.23,-2.32,-1.93,-1.26,-1.26,-1.25
163.24,0.97,2.27,0.97,2.28,-2.27,-2.35,-1.95,-1.30,-1.30,-1.30
164.88,0.97,2.32,0.97,2.32,-2.32,-2.38,-1.97,-1.35,-1.35,-1.35
166.53,0.97,2.37,0.97,2.37,-2.37,-2.41,-2.00,-1.40,-1.40,-1.40
168.19,0.97,2.40,0.97,2.41,-2.42,-2.44,-2.03,-1.45,-1.45,-1.43
169.87,0.97,2.46,0.97,2.46,-2.47,-2.46,-2.05,-1.50,-1.50,-1.49
171.57,0.97,2.51,0.97,2.51,-2.52,-2.49,-2.09,-1.55,-1.55,-1.54
173.29,0.98,2.56,0.98,2.57,-2.57,-2.52,-2.12,-1.59,-1.59,-1.58
175.02,0.99,2.62,0.99,2.62,-2.62,-2.55,-2.15,-1.63,-1.63,-1.63
176.77,1.00,2.68,1.00,2.68,-2.67,-2.58,-2.19,-1.67,-1.68,-1.68
178.54,1.00,2.72,1.00,2.73,-2.72,-2.60,-2.22,-1.72,-1.72,-1.72
180.32,0.99,2.77,0.99,2.77,-2.76,-2.63,-2.26,-1.77,-1.77,-1.78
182.13,0.98,2.79,0.97,2.79,-2.79,-2.65,-2.30,-1.81,-1.82,-1.81
183.95,0.95,2.81,0.95,2.82,-2.82,-2.68,-2.35,-1.87,-1.86,-1.86
185.79,0.93,2.84,0.93,2.84,-2.84,-2.70,-2.39,-1.91,-1.91,-1.91
187.65,0.91,2.86,0.91,2.86,-2.86,-2.73,-2.43,-1.95,-1.95,-1.95
189.52,0.88,2.87,0.88,2.87,-2.87,-2.75,-2.48,-1.99,-2.00,-1.99
191.42,0.84,2.87,0.84,2.88,-2.88,-2.77,-2.53,-2.04,-2.04,-2.03
193.33,0.81,2.88,0.81,2.89,-2.89,-2.80,-2.58,-2.08,-2.08,-2.07
195.27,0.78,2.90,0.78,2.90,-2.90,-2.82,-2.63,-2.12,-2.12,-2.12
197.22,0.75,2.92,0.75,2.91,-2.91,-2.84,-2.68,-2.16,-2.16,-2.17
199.19,0.71,2.91,0.72,2.92,-2.91,-2.86,-2.74,-2.20,-2.20,-2.20
201.18,0.69,2.93,0.69,2.93,-2.92,-2.88,-2.79,-2.23,-2.24,-2.24
203.19,0.66,2.93,0.66,2.93,-2.94,-2.90,-2.85,-2.28,-2.28,-2.27
205.23,0.64,2.93,0.64,2.94,-2.95,-2.92,-2.90,-2.31,-2.31,-2.29
207.28,0.63,2.95,0.63,2.96,-2.97,-2.94,-2.96,-2.34,-2.34,-2.32
209.35,0.63,2.99,0.63,2.99,-3.00,-2.95,-3.02,-2.37,-2.37,-2.36
211.44,0.63,3.02,0.63,3.02,-3.02,-2.97,-3.07,-2.39,-2.39,-2.39
213.56,0.64,3.05,0.64,3.06,-3.05,-2.99,-3.13,-2.41,-2.41,-2.41
215.69,0.65,3.09,0.65,3.09,-3.09,-3.00,-3.18,-2.44,-2.44,-2.44
217.85,0.65,3.12,0.65,3.13,-3.12,-3.02,-3.23,-2.47,-2.47,-2.47
220.03,0.65,3.15,0.65,3.15,-3.15,-3.03,-3.29,-2.50,-2.50,-2.50
222.23,0.65,3.18,0.65,3.18,-3.17,-3.04,-3.34,-2.52,-2.52,-2.53
224.45,0.65,3.19,0.65,3.20,-3.20,-3.06,-3.38,-2.55,-2.55,-2.54
226.70,0.65,3.22,0.65,3.22,-3.22,-3.07,-3.43,-2.57,-2.57,-2.57
228.96,0.65,3.23,0.65,3.24,-3.24,-3.08,-3.47,-2.59,-2.59,-2.58
231.25,0.65,3.25,0.65,3.25,-3.26,-3.09,-3.51,-2.61,-2.61,-2.60
233.57,0.65,3.27,0.65,3.27,-3.27,-3.10,-3.55,-2.62,-2.62,-2.62
235.90,0.65,3.28,0.65,3.29,-3.29,-3.11,-3.58,-2.64,-2.64,-2.63
238.26,0.65,3.31,0.65,3.30,-3.30,-3.12,-3.61,-2.65,-2.65,-2.66
240.64,0.65,3.30,0.65,3.31,-3.31,-3.13,-3.63,-2.66,-2.66,-2.65
243.05,0.65,3.32,0.65,3.33,-3.32,-3.14,-3.65,-2.67,-2.67,-2.67
245.48,0.65,3.33,0.65,3.33,-3.33,-3.14,-3.67,-2.68,-2.68,-2.68
247.93,0.65,3.34,0.65,3.34,-3.34,-3.15,-3.68,-2.69,-2.69,-2.69
250.41,0.65,3.33,0.65,3.35,-3.35,-3.15,-3.69,-2.70,-2.70,-2.68
252.92,0.66,3.35,0.66,3.36,-3.36,-3.16,-3.69,-2.70,-2.70,-2.69
255.45,0.67,3.37,0.67,3.37,-3.37,-3.16,-3.68,-2.70,-2.70,-2.70
258.00,0.67,3.37,0.67,3.38,-3.37,-3.17,-3.67,-2.70,-2.70,-2.70
260.58,0.67,3.37,0.67,3.37,-3.37,-3.17,-3.66,-2.70,-2.70,-2.70
263.19,0.66,3.36,0.66,3.36,-3.36,-3.17,-3.64,-2.70,-2.70,-2.70
265.82,0.64,3.35,0.64,3.35,-3.35,-3.17,-3.62,-2.71,-2.71,-2.71
268.48,0.62,3.33,0.62,3.34,-3.34,-3.17,-3.59,-2.72,-2.71,-2.71
271.16,0.61,3.32,0.60,3.31,-3.32,-3.17,-3.56,-2.71,-2.72,-2.71
273.87,0.57,3.28,0.57,3.29,-3.29,-3.17,-3.53,-2.72,-2.72,-2.71
276.61,0.54,3.25,0.54,3.26,-3.26,-3.17,-3.50,-2.72,-2.72,-2.71
279.38,0.51,3.24,0.51,3.23,-3.23,-3.17,-3.46,-2.72,-2.72,-2.73
282.17,0.47,3.20,0.47,3.20,-3.19,-3.17,-3.42,-2.72,-2.72,-2.73
284.99,0.44,3.16,0.44,3.16,-3.16,-3.16,-3.37,-2.72,-2.72,-2.72
287.84,0.40,3.11,0.40,3.12,-3.12,-3.16,-3.33,-2.72,-2.72,-2.71
290.72,0.37,3.09,0.37,3.09,-3.09,-3.16,-3.29,-2.72,-2.72,-2.72
293.63,0.34,3.05,0.34,3.06,-3.06,-3.15,-3.24,-2.72,-2.72,-2.71
296.57,0.32,3.02,0.32,3.03,-3.04,-3.14,-3.19,-2.72,-2.71,-2.70
299.53,0.31,3.01,0.31,3.01,-3.02,-3.14,-3.15,-2.71,-2.71,-2.70
302.53,0.30,2.98,0.30,2.99,-3.00,-3.13,-3.10,-2.70,-2.70,-2.68
305.55,0.30,2.99,0.30,2.99,-2.99,-3.12,-3.05,-2.69,-2.69,-2.69
308.61,0.31,2.99,0.31,2.99,-2.99,-3.12,-3.00,-2.68,-2.68,-2.68
311.69,0.32,2.99,0.32,3.00,-2.98,-3.11,-2.96,-2.66,-2.67,-2.67
314.81,0.32,2.99,0.32,2.99,-2.98,-3.10,-2.91,-2.66,-2.66,-2.67
317.96,0.32,2.98,0.32,2.99,-2.98,-3.09,-2.87,-2.66,-2.66,-2.66
321.14,0.32,2.97,0.32,2.98,-2.97,-3.08,-2.83,-2.65,-2.65,-2.65
324.35,0.32,2.97,0.32,2.96,-2.97,-3.07,-2.79,-2.65,-2.65,-2.65
327.59,0.32,2.94,0.32,2.96,-2.96,-3.06,-2.75,-2.64,-2.64,-2.62
330.87,0.32,2.95,0.32,2.95,-2.96,-3.04,-2.71,-2.64,-2.64,-2.63
334.18,0.33,2.95,0.33,2.95,-2.96,-3.03,-2.67,-2.63,-2.63,-2.62
337.52,0.33,2.95,0.33,2.95,-2.95,-3.02,-2.64,-2.62,-2.62,-2.62
340.90,0.34,2.94,0.34,2.95,-2.95,-3.01,-2.60,-2.61,-2.60,-2.60
344.30,0.35,2.94,0.34,2.94,-2.94,-2.99,-2.57,-2.59,-2.60,-2.59
347.75,0.34,2.93,0.34,2.93,-2.93,-2.98,-2.54,-2.59,-2.59,-2.59
351.23,0.33,2.92,0.33,2.92,-2.91,-2.96,-2.52,-2.58,-2.58,-2.59
354.74,0.32,2.88,0.32,2.90,-2.89,-2.95,-2.49,-2.57,-2.57,-2.56
358.28,0.30,2.87,0.30,2.87,-2.86,-2.93,-2.47,-2.56,-2.56,-2.57
361.87,0.28,2.84,0.28,2.84,-2.83,-2.92,-2.45,-2.55,-2.55,-2.56
365.49,0.25,2.80,0.25,2.80,-2.80,-2.90,-2.43,-2.55,-2.55,-2.55
369.14,0.21,2.74,0.21,2.75,-2.76,-2.88,-2.41,-2.55,-2.54,-2.53
372.83,0.18,2.71,0.18,2.71,-2.72,-2.87,-2.39,-2.54,-2.54,-2.53
376.56,0.14,2.67,0.14,2.67,-2.67,-2.85,-2.38,-2.53,-2.53,-2.53
380.33,0.11,2.63,0.11,2.63,-2.63,-2.83,-2.37,-2.52,-2.52,-2.52
384.13,0.08,2.58,0.08,2.59,-2.59,-2.81,-2.36,-2.51,-2.51,-2.50
387.97,0.05,2.55,0.05,2.55,-2.55,-2.79,-2.35,-2.50,-2.50,-2.50
391.85,0.03,2.52,0.03,2.52,-2.52,-2.78,-2.34,-2.49,-2.49,-2.49
395.77,0.01,2.49,0.01,2.49,-2.49,-2.76,-2.34,-2.48,-2.48,-2.48
399.73,-0.01,2.46,-0.01,2.46,-2.47,-2.74,-2.33,-2.48,-2.48,-2.47
403.72,-0.02,2.42,-0.02,2.44,-2.45,-2.72,-2.33,-2.47,-2.47,-2.44
407.76,-0.02,2.43,-0.02,2.43,-2.44,-2.70,-2.33,-2.46,-2.45,-2.45
411.84,-0.01,2.43,-0.01,2.43,-2.43,-2.68,-2.33,-2.44,-2.44,-2.44
415.96,-0.00,2.42,-0.00,2.43,-2.42,-2.66,-2.33,-2.42,-2.42,-2.42
420.12,0.00,2.42,0.00,2.42,-2.41,-2.64,-2.33,-2.41,-2.41,-2.42
424.32,0.00,2.41,0.00,2.41,-2.41,-2.62,-2.34,-2.41,-2.41,-2.41
428.56,0.00,2.39,0.00,2.40,-2.40,-2.60,-2.34,-2.40,-2.40,-2.39
432.85,0.00,2.38,0.00,2.39,-2.40,-2.57,-2.34,-2.40,-2.40,-2.38
437.18,0.00,2.39,0.00,2.39,-2.39,-2.55,-2.35,-2.39,-2.39,-2.39
441.55,0.00,2.38,0.00,2.38,-2.38,-2.53,-2.35,-2.38,-2.38,-2.38
445.96,0.00,2.37,0.00,2.38,-2.37,-2.51,-2.35,-2.37,-2.37,-2.37
450.42,0.00,2.36,0.00,2.36,-2.36,-2.49,-2.36,-2.36,-2.36,-2.36
454.93,0.00,2.35,0.00,2.35,-2.35,-2.47,-2.36,-2.35,-2.35,-2.35
459.48,0.00,2.34,0.00,2.34,-2.34,-2.45,-2.36,-2.34,-2.34,-2.34
464.07,0.00,2.32,0.00,2.33,-2.33,-2.42,-2.36,-2.33,-2.33,-2.32
468.71,0.00,2.31,0.00,2.32,-2.32,-2.40,-2.37,-2.32,-2.32,-2.31
473.40,0.00,2.31,0.00,2.31,-2.31,-2.38,-2.37,-2.31,-2.31,-2.31
478.13,0.00,2.30,0.00,2.30,-2.30,-2.36,-2.36,-2.30,-2.30,-2.30
482.91,0.00,2.29,0.00,2.29,-2.29,-2.34,-2.36,-2.29,-2.29,-2.29
487.74,0.00,2.28,0.00,2.28,-2.28,-2.31,-2.36,-2.28,-2.28,-2.28
492.62,0.00,2.27,0.00,2.27,-2.27,-2.29,-2.35,-2.27,-2.27,-2.27
497.55,0.00,2.26,0.00,2.26,-2.26,-2.27,-2.35,-2.26,-2.26,-2.26
502.52,0.00,2.25,-0.00,2.25,-2.25,-2.25,-2.34,-2.25,-2.25,-2.25
507.55,0.00,2.23,-0.00,2.24,-2.24,-2.23,-2.33,-2.24,-2.24,-2.23
512.62,0.00,2.22,-0.00,2.22,-2.22,-2.20,-2.32,-2.22,-2.22,-2.22
517.75,0.00,2.20,-0.00,2.21,-2.21,-2.18,-2.31,-2.21,-2.21,-2.20
