frequency,raw,error,smoothed,error_smoothed,equalization,parametric_eq,fixed_band_eq,equalized_raw,equalized_smoothed,target
20.00,1.14,-6.30,1.14,-6.32,6.32,6.01,1.98,7.46,7.46,7.44
20.20,1.21,-6.27,1.21,-6.28,6.28,5.98,2.04,7.49,7.49,7.48
20.40,1.27,-6.24,1.28,-6.24,6.24,5.94,2.10,7.52,7.52,7.52
20.61,1.34,-6.21,1.34,-6.21,6.21,5.90,2.16,7.55,7.55,7.55
20.81,1.41,-6.17,1.41,-6.17,6.17,5.87,2.23,7.58,7.58,7.59
21.02,1.48,-6.14,1.48,-6.12,6.12,5.83,2.29,7.61,7.60,7.63
21.23,1.54,-6.10,1.54,-6.08,6.08,5.79,2.36,7.62,7.63,7.65
21.44,1.61,-6.05,1.61,-6.04,6.04,5.76,2.43,7.65,7.65,7.67
21.66,1.68,-6.00,1.68,-5.99,5.99,5.72,2.50,7.67,7.67,7.68
21.87,1.74,-5.95,1.75,-5.94,5.94,5.68,2.58,7.69,7.69,7.69
22.09,1.81,-5.90,1.81,-5.89,5.89,5.64,2.65,7.71,7.71,7.71
22.31,1.88,-5.84,1.88,-5.84,5.84,5.61,2.73,7.73,7.72,7.72
22.54,1.94,-5.79,1.95,-5.79,5.79,5.57,2.81,7.73,7.73,7.73
22.76,2.01,-5.73,2.01,-5.73,5.73,5.53,2.89,7.74,7.74,7.74
22.99,2.08,-5.66,2.08,-5.67,5.67,5.49,2.97,7.75,7.75,7.74
23.22,2.14,-5.61,2.15,-5.61,5.61,5.45,3.06,7.75,7.76,7.75
23.45,2.21,-5.55,2.22,-5.55,5.55,5.41,3.15,7.77,7.77,7.76
23.69,2.28,-5.49,2.28,-5.49,5.49,5.37,3.24,7.78,7.78,7.77
23.92,2.35,-5.42,2.35,-5.43,5.43,5.33,3.33,7.79,7.79,7.78
24.16,2.42,-5.37,2.42,-5.37,5.37,5.29,3.42,7.80,7.79,7.80
24.40,2.48,-5.33,2.49,-5.32,5.32,5.25,3.51,7.80,7.80,7.82
24.65,2.55,-5.26,2.56,-5.26,5.26,5.21,3.61,7.81,7.81,7.82
24.89,2.62,-5.20,2.62,-5.20,5.20,5.17,3.70,7.82,7.82,7.82
25.14,2.69,-5.14,2.69,-5.14,5.14,5.13,3.80,7.84,7.83,7.83
25.39,2.76,-5.08,2.76,-5.08,5.08,5.09,3.90,7.85,7.84,7.84
25.65,2.83,-5.03,2.83,-5.03,5.03,5.05,4.00,7.86,7.85,7.86
25.91,2.89,-4.97,2.90,-4.97,4.97,5.01,4.09,7.86,7.86,7.86
26.16,2.96,-4.90,2.96,-4.91,4.91,4.97,4.19,7.87,7.87,7.87
26.43,3.03,-4.85,3.03,-4.85,4.85,4.92,4.29,7.88,7.88,7.88
26.69,3.09,-4.79,3.10,-4.79,4.79,4.88,4.38,7.89,7.89,7.89
26.96,3.16,-4.74,3.17,-4.73,4.73,4.84,4.48,7.90,7.90,7.90
27.23,3.23,-4.68,3.23,-4.68,4.68,4.80,4.57,7.91,7.91,7.91
27.50,3.30,-4.62,3.30,-4.62,4.62,4.76,4.65,7.92,7.92,7.92
27.77,3.36,-4.56,3.36,-4.56,4.56,4.72,4.74,7.93,7.92,7.92
28.05,3.43,-4.51,3.43,-4.50,4.50,4.68,4.82,7.94,7.93,7.94
28.33,3.50,-4.43,3.50,-4.44,4.44,4.63,4.90,7.95,7.94,7.94
28.62,3.56,-4.38,3.56,-4.38,4.38,4.59,4.97,7.95,7.95,7.95
28.90,3.63,-4.32,3.63,-4.33,4.33,4.55,5.04,7.96,7.96,7.95
29.19,3.69,-4.26,3.70,-4.26,4.26,4.51,5.10,7.96,7.96,7.95
29.48,3.76,-4.22,3.77,-4.20,4.20,4.47,5.15,7.97,7.97,7.98
29.78,3.82,-4.16,3.83,-4.14,4.14,4.42,5.19,7.97,7.98,7.98
30.08,3.89,-4.09,3.90,-4.08,4.08,4.38,5.23,7.97,7.98,7.99
30.38,3.96,-4.02,3.97,-4.02,4.02,4.34,5.26,7.98,7.99,7.98
30.68,4.03,-3.97,4.03,-3.96,3.96,4.30,5.29,7.99,8.00,8.00
30.99,4.11,-3.89,4.10,-3.90,3.90,4.26,5.30,8.01,8.00,8.00
31.30,4.17,-3.83,4.17,-3.84,3.84,4.21,5.31,8.01,8.01,8.01
31.61,4.23,-3.78,4.23,-3.78,3.78,4.17,5.30,8.02,8.02,8.01
31.93,4.30,-3.72,4.30,-3.72,3.72,4.13,5.29,8.03,8.02,8.02
32.24,4.36,-3.66,4.36,-3.67,3.67,4.09,5.28,8.03,8.03,8.02
32.57,4.42,-3.61,4.43,-3.61,3.61,4.05,5.25,8.03,8.04,8.04
32.89,4.49,-3.55,4.49,-3.55,3.55,4.00,5.21,8.05,8.04,8.04
33.22,4.55,-3.50,4.55,-3.50,3.50,3.96,5.17,8.05,8.05,8.05
33.55,4.60,-3.45,4.61,-3.45,3.45,3.92,5.13,8.05,8.06,8.06
33.89,4.66,-3.40,4.67,-3.40,3.40,3.88,5.07,8.06,8.06,8.06
34.23,4.72,-3.35,4.72,-3.35,3.35,3.84,5.01,8.07,8.07,8.07
34.57,4.77,-3.30,4.77,-3.30,3.30,3.80,4.95,8.07,8.07,8.08
34.92,4.83,-3.24,4.82,-3.25,3.25,3.75,4.88,8.09,8.08,8.07
35.27,4.87,-3.21,4.87,-3.21,3.21,3.71,4.81,8.08,8.08,8.08
35.62,4.91,-3.17,4.92,-3.17,3.17,3.67,4.73,8.08,8.08,8.09
35.97,4.96,-3.12,4.96,-3.12,3.12,3.63,4.66,8.09,8.09,8.08
36.33,5.00,-3.08,5.01,-3.08,3.08,3.59,4.58,8.09,8.09,8.09
36.70,5.04,-3.04,5.04,-3.04,3.04,3.55,4.49,8.09,8.09,8.08
37.06,5.09,-3.00,5.08,-3.01,3.01,3.51,4.41,8.10,8.09,8.09
37.43,5.12,-2.97,5.12,-2.97,2.97,3.47,4.33,8.09,8.09,8.09
37.81,5.14,-2.95,5.15,-2.93,2.93,3.43,4.25,8.08,8.08,8.09
38.19,5.17,-2.91,5.18,-2.90,2.90,3.39,4.16,8.08,8.08,8.08
38.57,5.20,-2.88,5.20,-2.87,2.87,3.35,4.08,8.08,8.08,8.08
38.95,5.23,-2.84,5.23,-2.85,2.85,3.31,4.00,8.08,8.07,8.07
39.34,5.25,-2.81,5.25,-2.82,2.82,3.27,3.92,8.07,8.07,8.07
39.74,5.27,-2.79,5.27,-2.80,2.80,3.23,3.84,8.07,8.07,8.06
40.14,5.29,-2.77,5.29,-2.77,2.77,3.19,3.76,8.07,8.06,8.06
40.54,5.30,-2.76,5.31,-2.75,2.75,3.15,3.69,8.06,8.06,8.06
40.94,5.32,-2.73,5.32,-2.74,2.74,3.11,3.61,8.06,8.06,8.05
41.35,5.33,-2.71,5.33,-2.72,2.72,3.07,3.54,8.05,8.05,8.04
41.76,5.34,-2.70,5.34,-2.71,2.71,3.03,3.47,8.05,8.05,8.05
42.18,5.34,-2.71,5.35,-2.69,2.69,2.99,3.41,8.04,8.04,8.05
42.60,5.35,-2.69,5.35,-2.69,2.69,2.95,3.34,8.04,8.04,8.04
43.03,5.36,-2.68,5.36,-2.68,2.68,2.91,3.28,8.04,8.03,8.04
43.46,5.36,-2.67,5.36,-2.67,2.67,2.87,3.22,8.03,8.03,8.04
43.90,5.36,-2.65,5.36,-2.67,2.67,2.84,3.16,8.03,8.03,8.02
44.33,5.36,-2.66,5.36,-2.66,2.66,2.80,3.11,8.02,8.02,8.02
44.78,5.35,-2.66,5.36,-2.66,2.66,2.76,3.05,8.01,8.02,8.01
45.23,5.35,-2.65,5.36,-2.65,2.65,2.72,3.00,8.01,8.01,8.00
45.68,5.35,-2.65,5.36,-2.65,2.65,2.69,2.96,8.00,8.00,8.00
46.13,5.35,-2.64,5.36,-2.64,2.64,2.65,2.91,7.99,8.00,7.99
46.60,5.35,-2.64,5.36,-2.63,2.63,2.61,2.87,7.98,7.99,8.00
47.06,5.35,-2.63,5.36,-2.62,2.62,2.57,2.83,7.97,7.98,7.99
47.53,5.36,-2.61,5.36,-2.61,2.61,2.54,2.79,7.97,7.97,7.97
48.01,5.36,-2.62,5.36,-2.60,2.60,2.50,2.75,7.96,7.96,7.98
48.49,5.36,-2.60,5.37,-2.58,2.58,2.47,2.72,7.95,7.95,7.96
48.97,5.37,-2.56,5.37,-2.57,2.57,2.43,2.69,7.94,7.94,7.94
49.46,5.37,-2.55,5.37,-2.55,2.55,2.39,2.66,7.93,7.93,7.92
49.96,5.38,-2.52,5.37,-2.54,2.54,2.36,2.63,7.92,7.91,7.90
50.46,5.38,-2.51,5.38,-2.52,2.52,2.32,2.60,7.90,7.89,7.90
50.96,5.38,-2.50,5.38,-2.50,2.50,2.29,2.57,7.88,7.88,7.88
51.47,5.38,-2.46,5.38,-2.48,2.48,2.25,2.55,7.86,7.86,7.85
51.99,5.38,-2.45,5.38,-2.46,2.46,2.22,2.53,7.84,7.84,7.83
52.51,5.38,-2.44,5.38,-2.44,2.44,2.19,2.50,7.82,7.82,7.82
53.03,5.38,-2.41,5.38,-2.41,2.41,2.15,2.48,7.80,7.79,7.80
53.56,5.37,-2.40,5.38,-2.39,2.39,2.12,2.46,7.76,7.77,7.78
54.10,5.37,-2.38,5.38,-2.37,2.37,2.08,2.44,7.74,7.75,7.75
54.64,5.38,-2.35,5.39,-2.34,2.34,2.05,2.42,7.72,7.73,7.73
55.18,5.38,-2.32,5.39,-2.31,2.31,2.02,2.40,7.70,7.71,7.70
55.74,5.39,-2.28,5.40,-2.29,2.29,1.98,2.38,7.68,7.68,7.67
56.29,5.40,-2.26,5.41,-2.25,2.25,1.95,2.36,7.65,7.66,7.66
56.86,5.41,-2.22,5.42,-2.22,2.22,1.92,2.34,7.63,7.63,7.63
57.42,5.42,-2.17,5.43,-2.18,2.18,1.89,2.32,7.60,7.61,7.60
58.00,5.43,-2.14,5.44,-2.14,2.14,1.85,2.29,7.57,7.58,7.57
58.58,5.45,-2.10,5.46,-2.09,2.09,1.82,2.27,7.55,7.55,7.55
59.16,5.46,-2.06,5.47,-2.05,2.05,1.79,2.24,7.51,7.52,7.53
59.76,5.48,-2.02,5.48,-2.00,2.00,1.76,2.21,7.48,7.49,7.50
60.35,5.50,-1.96,5.50,-1.96,1.96,1.73,2.18,7.46,7.45,7.46
60.96,5.51,-1.91,5.51,-1.91,1.91,1.69,2.15,7.42,7.42,7.43
61.57,5.52,-1.86,5.51,-1.87,1.87,1.66,2.12,7.39,7.38,7.38
62.18,5.53,-1.80,5.52,-1.82,1.82,1.63,2.09,7.36,7.34,7.33
62.80,5.53,-1.77,5.52,-1.78,1.78,1.60,2.05,7.31,7.30,7.30
63.43,5.53,-1.72,5.52,-1.74,1.74,1.57,2.01,7.27,7.26,7.25
64.07,5.52,-1.69,5.52,-1.70,1.70,1.54,1.97,7.22,7.22,7.21
64.71,5.51,-1.66,5.52,-1.66,1.66,1.51,1.92,7.17,7.18,7.17
65.35,5.50,-1.62,5.51,-1.62,1.62,1.48,1.88,7.13,7.13,7.13
66.01,5.49,-1.59,5.50,-1.59,1.59,1.45,1.83,7.08,7.09,7.08
66.67,5.48,-1.57,5.48,-1.56,1.56,1.42,1.78,7.04,7.04,7.05
67.33,5.46,-1.54,5.47,-1.53,1.53,1.39,1.73,6.99,7.00,7.00
68.01,5.45,-1.50,5.45,-1.50,1.50,1.36,1.68,6.96,6.95,6.96
68.69,5.43,-1.48,5.43,-1.48,1.48,1.33,1.62,6.91,6.91,6.91
69.37,5.41,-1.45,5.41,-1.45,1.45,1.30,1.57,6.87,6.86,6.86
70.07,5.39,-1.42,5.39,-1.43,1.43,1.27,1.51,6.82,6.82,6.81
70.77,5.36,-1.41,5.36,-1.41,1.41,1.24,1.45,6.77,6.77,6.77
71.48,5.34,-1.39,5.34,-1.39,1.39,1.21,1.39,6.73,6.73,6.73
72.19,5.31,-1.37,5.31,-1.37,1.37,1.18,1.33,6.68,6.68,6.68
72.91,5.29,-1.34,5.29,-1.35,1.35,1.15,1.26,6.64,6.64,6.64
73.64,5.26,-1.33,5.26,-1.33,1.33,1.12,1.20,6.59,6.60,6.59
74.38,5.24,-1.31,5.24,-1.31,1.31,1.10,1.14,6.55,6.55,6.56
75.12,5.22,-1.29,5.22,-1.29,1.29,1.07,1.07,6.51,6.51,6.51
75.87,5.19,-1.28,5.20,-1.27,1.27,1.04,1.01,6.46,6.47,6.47
76.63,5.18,-1.25,5.19,-1.25,1.25,1.01,0.94,6.43,6.43,6.43
77.40,5.16,-1.23,5.18,-1.22,1.22,0.98,0.88,6.38,6.40,6.40
78.17,5.15,-1.20,5.17,-1.19,1.19,0.95,0.81,6.35,6.36,6.36
78.95,5.14,-1.18,5.16,-1.16,1.16,0.92,0.74,6.31,6.33,6.32
79.74,5.14,-1.15,5.16,-1.13,1.13,0.89,0.68,6.28,6.29,6.29
80.54,5.15,-1.11,5.16,-1.10,1.10,0.86,0.61,6.25,6.26,6.26
81.35,5.15,-1.07,5.16,-1.07,1.07,0.83,0.54,6.22,6.22,6.23
82.16,5.16,-1.03,5.16,-1.04,1.04,0.80,0.48,6.20,6.19,6.19
82.98,5.17,-0.99,5.16,-1.00,1.00,0.77,0.41,6.18,6.16,6.17
83.81,5.17,-0.96,5.16,-0.97,0.97,0.74,0.34,6.15,6.13,6.13
84.65,5.17,-0.92,5.16,-0.94,0.94,0.71,0.27,6.12,6.10,6.09
85.50,5.17,-0.90,5.16,-0.91,0.91,0.68,0.21,6.09,6.07,6.07
86.35,5.17,-0.87,5.16,-0.89,0.89,0.64,0.14,6.06,6.04,6.05
87.22,5.17,-0.84,5.16,-0.86,0.86,0.61,0.07,6.03,6.02,6.02
88.09,5.16,-0.82,5.16,-0.83,0.83,0.58,0.00,6.00,5.99,5.98
88.97,5.15,-0.81,5.15,-0.81,0.81,0.55,-0.06,5.96,5.96,5.96
89.86,5.14,-0.80,5.15,-0.78,0.78,0.51,-0.13,5.92,5.93,5.94
90.76,5.14,-0.76,5.15,-0.75,0.75,0.48,-0.20,5.89,5.91,5.90
91.66,5.15,-0.72,5.16,-0.72,0.72,0.44,-0.27,5.87,5.88,5.88
92.58,5.16,-0.68,5.17,-0.68,0.68,0.41,-0.34,5.84,5.85,5.84
93.51,5.18,-0.64,5.18,-0.64,0.64,0.37,-0.40,5.82,5.82,5.83
94.44,5.19,-0.60,5.20,-0.59,0.59,0.33,-0.47,5.78,5.79,5.79
95.39,5.21,-0.55,5.23,-0.53,0.53,0.30,-0.54,5.74,5.76,5.77
96.34,5.23,-0.49,5.25,-0.47,0.47,0.26,-0.61,5.70,5.72,5.72
97.30,5.26,-0.42,5.29,-0.40,0.40,0.22,-0.68,5.67,5.69,5.69
98.28,5.30,-0.35,5.33,-0.33,0.33,0.18,-0.74,5.63,5.65,5.65
99.26,5.36,-0.25,5.37,-0.25,0.25,0.14,-0.81,5.61,5.62,5.61
100.25,5.41,-0.16,5.41,-0.16,0.16,0.09,-0.88,5.58,5.58,5.58
101.25,5.47,-0.07,5.46,-0.08,0.08,0.05,-0.94,5.55,5.54,5.54
102.27,5.52,0.03,5.50,0.01,-0.01,0.00,-1.01,5.52,5.49,5.49
103.29,5.55,0.11,5.54,0.10,-0.10,-0.04,-1.08,5.46,5.45,5.44
104.32,5.59,0.19,5.59,0.19,-0.19,-0.09,-1.14,5.41,5.40,5.41
105.37,5.64,0.29,5.63,0.28,-0.28,-0.14,-1.20,5.36,5.35,5.36
106.42,5.69,0.39,5.67,0.37,-0.37,-0.20,-1.27,5.32,5.30,5.30
107.48,5.72,0.47,5.71,0.46,-0.46,-0.25,-1.33,5.26,5.24,5.25
108.56,5.75,0.57,5.74,0.55,-0.55,-0.31,-1.39,5.20,5.18,5.18
109.64,5.76,0.64,5.77,0.65,-0.65,-0.36,-1.44,5.12,5.12,5.13
110.74,5.78,0.71,5.80,0.74,-0.74,-0.43,-1.50,5.04,5.06,5.07
111.85,5.82,0.82,5.83,0.83,-0.83,-0.49,-1.55,4.99,5.00,5.00
112.97,5.85,0.93,5.85,0.92,-0.92,-0.55,-1.60,4.93,4.93,4.93
114.10,5.88,1.01,5.88,1.02,-1.02,-0.62,-1.65,4.86,4.86,4.87
115.24,5.90,1.11,5.91,1.12,-1.12,-0.69,-1.69,4.79,4.79,4.79
116.39,5.92,1.21,5.94,1.21,-1.21,-0.77,-1.74,4.71,4.73,4.72
117.55,5.94,1.29,5.97,1.31,-1.31,-0.84,-1.77,4.63,4.66,4.65
118.73,5.98,1.41,5.99,1.41,-1.41,-0.92,-1.81,4.58,4.59,4.58
119.92,6.02,1.50,6.02,1.50,-1.50,-1.01,-1.84,4.52,4.52,4.52
121.12,6.05,1.60,6.05,1.59,-1.59,-1.09,-1.87,4.46,4.46,4.45
122.33,6.07,1.69,6.07,1.68,-1.68,-1.18,-1.89,4.39,4.39,4.38
123.55,6.10,1.77,6.10,1.77,-1.77,-1.27,-1.91,4.33,4.33,4.33
124.79,6.13,1.86,6.12,1.85,-1.85,-1.37,-1.92,4.28,4.27,4.27
126.03,6.15,1.94,6.13,1.93,-1.93,-1.46,-1.94,4.22,4.21,4.21
127.29,6.16,2.01,6.15,2.00,-2.00,-1.56,-1.94,4.16,4.15,4.15
128.57,6.16,2.08,6.16,2.07,-2.07,-1.66,-1.95,4.09,4.09,4.08
129.85,6.16,2.13,6.17,2.14,-2.14,-1.77,-1.94,4.03,4.03,4.03
131.15,6.16,2.19,6.17,2.19,-2.19,-1.87,-1.94,3.97,3.98,3.97
132.46,6.16,2.24,6.17,2.25,-2.25,-1.97,-1.93,3.92,3.92,3.92
133.79,6.16,2.29,6.17,2.29,-2.29,-2.07,-1.92,3.87,3.87,3.88
135.12,6.16,2.34,6.16,2.34,-2.34,-2.17,-1.90,3.83,3.82,3.82
136.48,6.15,2.38,6.15,2.38,-2.38,-2.27,-1.89,3.78,3.77,3.78
137.84,6.12,2.40,6.13,2.41,-2.41,-2.36,-1.86,3.71,3.72,3.72
139.22,6.11,2.44,6.11,2.44,-2.44,-2.44,-1.84,3.68,3.68,3.67
140.61,6.09,2.48,6.09,2.46,-2.46,-2.52,-1.81,3.63,3.63,3.62
142.02,6.06,2.48,6.07,2.48,-2.48,-2.59,-1.79,3.58,3.58,3.59
143.44,6.04,2.50,6.04,2.50,-2.50,-2.65,-1.76,3.54,3.54,3.55
144.87,6.00,2.51,6.00,2.51,-2.51,-2.69,-1.73,3.49,3.49,3.50
146.32,5.97,2.53,5.97,2.52,-2.52,-2.73,-1.69,3.45,3.45,3.45
147.78,5.93,2.52,5.92,2.53,-2.53,-2.75,-1.66,3.41,3.40,3.41
149.26,5.89,2.53,5.88,2.53,-2.53,-2.76,-1.63,3.37,3.35,3.36
150.75,5.82,2.52,5.83,2.52,-2.52,-2.75,-1.59,3.30,3.30,3.30
152.26,5.77,2.52,5.77,2.52,-2.52,-2.73,-1.55,3.25,3.25,3.25
153.78,5.70,2.49,5.71,2.51,-2.51,-2.70,-1.52,3.19,3.21,3.21
155.32,5.64,2.49,5.65,2.49,-2.49,-2.66,-1.48,3.15,3.16,3.15
156.88,5.57,2.47,5.58,2.48,-2.48,-2.61,-1.45,3.10,3.10,3.11
158.44,5.52,2.47,5.51,2.46,-2.46,-2.54,-1.41,3.07,3.05,3.06
160.03,5.43,2.44,5.43,2.43,-2.43,-2.47,-1.38,3.00,3.00,3.00
161.63,5.36,2.43,5.35,2.40,-2.40,-2.39,-1.34,2.96,2.95,2.94
163.24,5.29,2.40,5.26,2.37,-2.37,-2.31,-1.31,2.92,2.89,2.89
164.88,5.17,2.33,5.18,2.34,-2.34,-2.22,-1.27,2.84,2.84,2.84
166.53,5.08,2.30,5.09,2.30,-2.30,-2.13,-1.24,2.78,2.79,2.79
168.19,5.00,2.27,5.00,2.27,-2.27,-2.04,-1.21,2.73,2.73,2.73
169.87,4.88,2.20,4.91,2.23,-2.23,-1.95,-1.18,2.65,2.68,2.68
171.57,4.80,2.18,4.81,2.20,-2.20,-1.86,-1.15,2.61,2.62,2.63
173.29,4.72,2.16,4.72,2.16,-2.16,-1.76,-1.12,2.57,2.56,2.56
175.02,4.60,2.09,4.62,2.12,-2.12,-1.68,-1.09,2.48,2.50,2.51
176.77,4.51,2.07,4.52,2.08,-2.08,-1.59,-1.06,2.43,2.44,2.44
178.54,4.44,2.06,4.43,2.04,-2.04,-1.50,-1.03,2.40,2.38,2.38
180.32,4.35,2.03,4.33,2.00,-2.00,-1.42,-1.01,2.35,2.32,2.32
182.13,4.26,2.00,4.23,1.97,-1.97,-1.34,-0.98,2.29,2.26,2.27
183.95,4.11,1.91,4.14,1.94,-1.94,-1.26,-0.96,2.18,2.20,2.20
185.79,4.02,1.88,4.04,1.90,-1.90,-1.19,-0.93,2.12,2.14,2.14
187.65,3.93,1.86,3.94,1.86,-1.86,-1.12,-0.91,2.07,2.08,2.07
189.52,3.83,1.82,3.85,1.83,-1.83,-1.05,-0.89,2.01,2.02,2.01
191.42,3.75,1.79,3.75,1.79,-1.79,-0.98,-0.87,1.97,1.96,1.96
193.33,3.65,1.75,3.65,1.75,-1.75,-0.92,-0.85,1.91,1.90,1.91
195.27,3.56,1.71,3.56,1.71,-1.71,-0.86,-0.83,1.86,1.85,1.85
197.22,3.46,1.67,3.46,1.66,-1.66,-0.81,-0.81,1.80,1.79,1.79
199.19,3.36,1.63,3.36,1.62,-1.62,-0.75,-0.79,1.75,1.74,1.73
201.18,3.26,1.58,3.26,1.57,-1.57,-0.70,-0.77,1.69,1.69,1.68
203.19,3.16,1.52,3.16,1.52,-1.52,-0.65,-0.76,1.64,1.64,1.64
205.23,3.06,1.48,3.06,1.48,-1.48,-0.60,-0.74,1.59,1.59,1.58
207.28,2.96,1.41,2.96,1.42,-1.42,-0.56,-0.72,1.54,1.54,1.55
209.35,2.86,1.37,2.86,1.37,-1.37,-0.52,-0.71,1.50,1.49,1.50
211.44,2.76,1.32,2.76,1.31,-1.31,-0.48,-0.69,1.45,1.45,1.44
213.56,2.66,1.26,2.66,1.25,-1.25,-0.44,-0.68,1.41,1.41,1.40
215.69,2.56,1.19,2.56,1.20,-1.20,-0.40,-0.67,1.37,1.37,1.38
217.85,2.46,1.13,2.46,1.13,-1.13,-0.37,-0.65,1.33,1.33,1.33
220.03,2.38,1.10,2.37,1.07,-1.07,-0.33,-0.64,1.31,1.29,1.29
222.23,2.28,1.03,2.28,1.02,-1.02,-0.30,-0.62,1.27,1.26,1.25
224.45,2.17,0.95,2.19,0.96,-0.96,-0.27,-0.61,1.22,1.23,1.23
226.70,2.08,0.88,2.10,0.90,-0.90,-0.24,-0.60,1.19,1.20,1.20
228.96,1.99,0.82,2.02,0.84,-0.84,-0.21,-0.58,1.15,1.18,1.17
231.25,1.93,0.77,1.93,0.78,-0.78,-0.18,-0.57,1.15,1.15,1.16
233.57,1.85,0.72,1.86,0.72,-0.72,-0.16,-0.56,1.13,1.14,1.14
235.90,1.76,0.65,1.78,0.66,-0.66,-0.13,-0.54,1.10,1.12,1.11
238.26,1.71,0.61,1.71,0.60,-0.60,-0.11,-0.53,1.11,1.11,1.10
240.64,1.64,0.55,1.64,0.55,-0.55,-0.09,-0.52,1.09,1.10,1.09
243.05,1.60,0.51,1.58,0.49,-0.49,-0.06,-0.50,1.11,1.09,1.09
245.48,1.53,0.45,1.52,0.44,-0.44,-0.04,-0.49,1.10,1.08,1.08
247.93,1.45,0.37,1.46,0.38,-0.38,-0.02,-0.47,1.07,1.08,1.08
250.41,1.40,0.33,1.41,0.33,-0.33,0.00,-0.45,1.08,1.08,1.07
252.92,1.33,0.25,1.35,0.27,-0.27,0.02,-0.44,1.06,1.08,1.08
255.45,1.29,0.20,1.30,0.21,-0.21,0.04,-0.42,1.08,1.09,1.09
258.00,1.25,0.16,1.25,0.15,-0.15,0.06,-0.40,1.10,1.09,1.10
260.58,1.20,0.11,1.20,0.09,-0.09,0.08,-0.39,1.11,1.10,1.10
263.19,1.16,0.05,1.14,0.03,-0.03,0.10,-0.37,1.13,1.11,1.11
265.82,1.10,-0.01,1.09,-0.03,0.03,0.11,-0.35,1.13,1.12,1.11
268.48,1.05,-0.08,1.04,-0.09,0.09,0.13,-0.33,1.14,1.13,1.13
271.16,1.00,-0.14,1.00,-0.14,0.14,0.15,-0.31,1.15,1.14,1.15
273.87,0.95,-0.20,0.96,-0.20,0.20,0.16,-0.29,1.15,1.15,1.15
276.61,0.91,-0.26,0.91,-0.25,0.25,0.18,-0.27,1.16,1.17,1.17
279.38,0.86,-0.32,0.87,-0.31,0.31,0.20,-0.25,1.17,1.18,1.18
282.17,0.81,-0.38,0.83,-0.36,0.36,0.21,-0.23,1.17,1.19,1.19
284.99,0.77,-0.43,0.79,-0.41,0.41,0.23,-0.21,1.18,1.20,1.21
287.84,0.74,-0.47,0.76,-0.46,0.46,0.24,-0.19,1.20,1.22,1.21
290.72,0.72,-0.50,0.72,-0.51,0.51,0.26,-0.17,1.23,1.23,1.23
293.63,0.69,-0.55,0.69,-0.55,0.55,0.27,-0.14,1.25,1.24,1.24
296.57,0.67,-0.58,0.66,-0.60,0.60,0.29,-0.12,1.27,1.25,1.26
299.53,0.64,-0.62,0.62,-0.64,0.64,0.30,-0.10,1.28,1.26,1.26
302.53,0.60,-0.66,0.59,-0.68,0.68,0.31,-0.08,1.28,1.28,1.27
305.55,0.56,-0.73,0.56,-0.72,0.72,0.33,-0.05,1.28,1.29,1.29
308.61,0.53,-0.76,0.53,-0.76,0.76,0.34,-0.03,1.29,1.30,1.30
311.69,0.50,-0.80,0.50,-0.80,0.80,0.36,-0.01,1.30,1.31,1.30
314.81,0.48,-0.85,0.47,-0.84,0.84,0.37,0.02,1.32,1.31,1.33
317.96,0.45,-0.87,0.44,-0.88,0.88,0.38,0.04,1.33,1.32,1.33
321.14,0.42,-0.91,0.42,-0.91,0.91,0.40,0.07,1.34,1.33,1.33
324.35,0.39,-0.93,0.39,-0.95,0.95,0.41,0.09,1.34,1.34,1.33
327.59,0.35,-0.99,0.37,-0.97,0.97,0.42,0.12,1.33,1.34,1.34
330.87,0.34,-1.00,0.35,-1.00,1.00,0.44,0.14,1.34,1.34,1.34
334.18,0.32,-1.01,0.33,-1.02,1.02,0.45,0.17,1.34,1.35,1.34
337.52,0.29,-1.05,0.32,-1.03,1.03,0.46,0.19,1.32,1.35,1.34
340.90,0.28,-1.07,0.31,-1.04,1.04,0.48,0.22,1.32,1.35,1.35
344.30,0.28,-1.07,0.30,-1.05,1.05,0.49,0.24,1.33,1.35,1.35
347.75,0.29,-1.05,0.29,-1.05,1.05,0.50,0.27,1.34,1.34,1.35
351.23,0.29,-1.05,0.29,-1.05,1.05,0.51,0.30,1.34,1.34,1.34
354.74,0.30,-1.04,0.29,-1.05,1.05,0.53,0.32,1.35,1.34,1.34
358.28,0.30,-1.03,0.29,-1.04,1.04,0.54,0.35,1.35,1.33,1.33
361.87,0.30,-1.02,0.29,-1.03,1.03,0.55,0.38,1.34,1.33,1.33
365.49,0.30,-1.02,0.30,-1.03,1.03,0.57,0.40,1.33,1.32,1.32
369.14,0.30,-1.01,0.30,-1.02,1.02,0.58,0.43,1.32,1.32,1.31
372.83,0.30,-1.01,0.30,-1.01,1.01,0.59,0.46,1.31,1.31,1.31
376.56,0.30,-1.00,0.30,-1.00,1.00,0.60,0.49,1.30,1.30,1.30
380.33,0.30,-0.99,0.30,-0.99,0.99,0.62,0.52,1.29,1.29,1.30
384.13,0.30,-0.98,0.30,-0.98,0.98,0.63,0.54,1.28,1.28,1.28
387.97,0.30,-0.97,0.30,-0.97,0.97,0.64,0.57,1.28,1.28,1.27
391.85,0.30,-0.96,0.30,-0.97,0.97,0.65,0.60,1.27,1.27,1.26
395.77,0.30,-0.97,0.30,-0.96,0.96,0.67,0.63,1.26,1.26,1.27
399.73,0.30,-0.95,0.30,-0.95,0.95,0.68,0.66,1.26,1.26,1.26
403.72,0.30,-0.94,0.30,-0.95,0.95,0.69,0.69,1.25,1.25,1.25
407.76,0.30,-0.93,0.30,-0.94,0.94,0.70,0.72,1.24,1.24,1.23
411.84,0.30,-0.94,0.30,-0.93,0.93,0.72,0.75,1.24,1.24,1.24
415.96,0.30,-0.93,0.30,-0.93,0.93,0.73,0.78,1.23,1.23,1.23
420.12,0.30,-0.93,0.30,-0.93,0.93,0.74,0.81,1.23,1.23,1.23
424.32,0.30,-0.93,0.30,-0.92,0.92,0.75,0.83,1.23,1.23,1.23
428.56,0.30,-0.92,0.30,-0.92,0.92,0.77,0.86,1.22,1.22,1.22
432.85,0.30,-0.91,0.30,-0.92,0.92,0.78,0.89,1.22,1.22,1.22
437.18,0.30,-0.91,0.30,-0.92,0.92,0.79,0.92,1.22,1.22,1.22
441.55,0.30,-0.92,0.30,-0.92,0.92,0.80,0.94,1.22,1.22,1.23
445.96,0.30,-0.92,0.30,-0.92,0.92,0.81,0.97,1.22,1.22,1.22
450.42,0.30,-0.91,0.30,-0.92,0.92,0.83,0.99,1.22,1.22,1.21
454.93,0.30,-0.92,0.30,-0.92,0.92,0.84,1.02,1.22,1.22,1.22
459.48,0.30,-0.92,0.30,-0.92,0.92,0.85,1.04,1.23,1.23,1.22
464.07,0.30,-0.93,0.30,-0.93,0.93,0.86,1.06,1.23,1.23,1.23
468.71,0.30,-0.94,0.30,-0.93,0.93,0.87,1.08,1.24,1.24,1.24
473.40,0.30,-0.94,0.30,-0.94,0.94,0.88,1.10,1.24,1.24,1.24
478.13,0.30,-0.94,0.30,-0.94,0.94,0.89,1.12,1.25,1.25,1.25
482.91,0.30,-0.94,0.30,-0.95,0.95,0.90,1.13,1.25,1.25,1.25
487.74,0.30,-0.95,0.30,-0.95,0.95,0.91,1.15,1.26,1.26,1.26
492.62,0.30,-0.96,0.30,-0.96,0.96,0.92,1.16,1.26,1.26,1.27
497.55,0.30,-0.96,0.30,-0.96,0.96,0.93,1.17,1.27,1.27,1.27
502.52,0.30,-0.97,0.30,-0.97,0.97,0.94,1.18,1.27,1.27,1.27
507.55,0.30,-0.97,0.30,-0.97,0.97,0.95,1.19,1.27,1.27,1.27
512.62,0.30,-0.97,0.30,-0.97,0.97,0.96,1.19,1.28,1.28,1.27
517.75,0.30,-0.98,0.30,-0.98,0.98,0.97,1.20,1.28,1.28,1.28
522.93,0.30,-0.98,0.30,-0.98,0.98,0.98,1.20,1.28,1.28,1.28
528.16,0.30,-0.98,0.30,-0.98,0.98,0.99,1.20,1.28,1.28,1.28
533.44,0.30,-0.98,0.30,-0.98,0.98,1.00,1.21,1.28,1.28,1.28
538.77,0.30,-0.98,0.30,-0.98,0.98,1.01,1.21,1.28,1.28,1.28
544.16,0.30,-0.98,0.30,-0.97,0.97,1.01,1.20,1.28,1.28,1.28
549.60,0.30,-0.98,0.30,-0.97,0.97,1.02,1.20,1.27,1.27,1.28
555.10,0.30,-0.97,0.30,-0.97,0.97,1.03,1.20,1.27,1.27,1.27
560.65,0.30,-0.97,0.30,-0.97,0.97,1.03,1.19,1.27,1.27,1.27
566.25,0.30,-0.98,0.30,-0.96,0.96,1.04,1.19,1.27,1.27,1.28
