frequency,raw,error,smoothed,error_smoothed,equalization,parametric_eq,fixed_band_eq,equalized_raw,equalized_smoothed,target
20.00,-2.40,-9.61,-2.40,-9.61,9.61,9.30,4.13,7.21,7.21,7.21
20.20,-2.39,-9.59,-2.38,-9.59,9.59,9.32,4.24,7.20,7.20,7.20
20.40,-2.38,-9.57,-2.37,-9.56,9.56,9.34,4.35,7.19,7.19,7.19
20.61,-2.36,-9.54,-2.36,-9.54,9.54,9.35,4.47,7.19,7.18,7.18
20.81,-2.35,-9.51,-2.35,-9.51,9.52,9.37,4.59,7.17,7.17,7.16
21.02,-2.34,-9.49,-2.34,-9.49,9.50,9.38,4.72,7.16,7.16,7.15
21.23,-2.33,-9.47,-2.33,-9.47,9.48,9.39,4.84,7.15,7.15,7.14
21.44,-2.32,-9.47,-2.32,-9.46,9.46,9.40,4.97,7.14,7.14,7.15
21.66,-2.31,-9.44,-2.31,-9.45,9.44,9.41,5.11,7.13,7.13,7.13
21.87,-2.30,-9.43,-2.30,-9.42,9.42,9.42,5.25,7.12,7.12,7.13
22.09,-2.29,-9.40,-2.28,-9.40,9.40,9.42,5.39,7.11,7.11,7.11
22.31,-2.27,-9.37,-2.27,-9.37,9.38,9.43,5.53,7.11,7.11,7.10
22.54,-2.26,-9.35,-2.26,-9.35,9.36,9.43,5.68,7.10,7.10,7.09
22.76,-2.25,-9.34,-2.25,-9.33,9.34,9.43,5.84,7.09,7.09,7.09
22.99,-2.24,-9.32,-2.24,-9.32,9.32,9.42,5.99,7.09,7.09,7.08
23.22,-2.23,-9.30,-2.23,-9.31,9.31,9.42,6.15,7.08,7.08,7.07
23.45,-2.22,-9.30,-2.22,-9.29,9.29,9.42,6.32,7.07,7.07,7.08
23.69,-2.21,-9.28,-2.20,-9.28,9.28,9.41,6.49,7.07,7.07,7.07
23.92,-2.19,-9.25,-2.19,-9.26,9.26,9.40,6.66,7.07,7.07,7.06
24.16,-2.18,-9.25,-2.18,-9.25,9.25,9.39,6.83,7.07,7.07,7.07
24.40,-2.17,-9.24,-2.16,-9.23,9.23,9.38,7.01,7.06,7.07,7.07
24.65,-2.15,-9.21,-2.15,-9.22,9.21,9.37,7.20,7.07,7.06,7.06
24.89,-2.14,-9.20,-2.13,-9.19,9.20,9.36,7.38,7.06,7.06,7.06
25.14,-2.12,-9.17,-2.12,-9.18,9.18,9.34,7.57,7.06,7.06,7.05
25.39,-2.11,-9.16,-2.11,-9.16,9.16,9.33,7.76,7.06,7.06,7.05
25.65,-2.10,-9.15,-2.09,-9.15,9.15,9.31,7.95,7.05,7.06,7.05
25.91,-2.08,-9.13,-2.08,-9.14,9.14,9.29,8.15,7.06,7.06,7.05
26.16,-2.07,-9.13,-2.07,-9.12,9.12,9.27,8.34,7.06,7.06,7.06
26.43,-2.06,-9.11,-2.06,-9.11,9.11,9.25,8.54,7.05,7.06,7.05
26.69,-2.05,-9.10,-2.05,-9.10,9.10,9.23,8.74,7.05,7.05,7.05
26.96,-2.04,-9.09,-2.04,-9.09,9.09,9.21,8.93,7.05,7.05,7.05
27.23,-2.03,-9.08,-2.02,-9.08,9.08,9.18,9.13,7.05,7.05,7.05
27.50,-2.01,-9.06,-2.01,-9.07,9.07,9.16,9.32,7.06,7.06,7.05
27.77,-2.00,-9.06,-2.00,-9.05,9.05,9.14,9.50,7.06,7.06,7.06
28.05,-1.99,-9.04,-1.98,-9.04,9.04,9.11,9.68,7.06,7.06,7.05
28.33,-1.97,-9.03,-1.97,-9.03,9.03,9.09,9.86,7.07,7.06,7.06
28.62,-1.96,-9.02,-1.95,-9.02,9.02,9.06,10.02,7.06,7.07,7.06
28.90,-1.94,-9.01,-1.94,-9.01,9.01,9.03,10.18,7.07,7.07,7.07
29.19,-1.93,-9.00,-1.93,-9.00,8.99,9.00,10.32,7.07,7.07,7.07
29.48,-1.92,-8.98,-1.92,-8.99,8.98,8.98,10.46,7.06,7.06,7.06
29.78,-1.91,-8.97,-1.91,-8.97,8.97,8.95,10.57,7.06,7.06,7.06
30.08,-1.90,-8.96,-1.89,-8.95,8.95,8.92,10.68,7.05,7.06,7.06
30.38,-1.88,-8.92,-1.88,-8.93,8.94,8.89,10.77,7.06,7.06,7.04
30.68,-1.87,-8.91,-1.87,-8.91,8.92,8.86,10.84,7.05,7.05,7.04
30.99,-1.86,-8.90,-1.86,-8.90,8.90,8.83,10.89,7.04,7.04,7.04
31.30,-1.85,-8.89,-1.85,-8.88,8.88,8.80,10.92,7.03,7.03,7.04
31.61,-1.84,-8.87,-1.83,-8.87,8.86,8.77,10.94,7.02,7.03,7.03
31.93,-1.82,-8.83,-1.82,-8.84,8.84,8.74,10.93,7.03,7.02,7.01
32.24,-1.81,-8.83,-1.80,-8.82,8.82,8.71,10.91,7.02,7.02,7.02
32.57,-1.79,-8.79,-1.79,-8.80,8.80,8.68,10.87,7.01,7.01,7.00
32.89,-1.78,-8.78,-1.77,-8.78,8.78,8.65,10.82,7.00,7.00,7.00
33.22,-1.76,-8.75,-1.76,-8.75,8.75,8.63,10.75,6.99,6.99,6.99
33.55,-1.74,-8.73,-1.74,-8.73,8.73,8.60,10.67,6.99,6.99,6.99
33.89,-1.73,-8.71,-1.72,-8.70,8.70,8.57,10.57,6.98,6.98,6.98
34.23,-1.71,-8.67,-1.71,-8.68,8.68,8.54,10.47,6.98,6.97,6.96
34.57,-1.70,-8.66,-1.69,-8.65,8.66,8.51,10.35,6.96,6.97,6.96
34.92,-1.68,-8.62,-1.68,-8.63,8.64,8.48,10.23,6.96,6.96,6.94
35.27,-1.67,-8.63,-1.67,-8.62,8.61,8.45,10.11,6.95,6.95,6.96
35.62,-1.66,-8.59,-1.65,-8.59,8.59,8.42,9.97,6.93,6.94,6.93
35.97,-1.64,-8.57,-1.64,-8.57,8.56,8.40,9.84,6.93,6.92,6.93
36.33,-1.63,-8.54,-1.63,-8.54,8.54,8.37,9.70,6.91,6.91,6.91
36.70,-1.62,-8.51,-1.62,-8.51,8.51,8.34,9.56,6.90,6.90,6.89
37.06,-1.61,-8.48,-1.61,-8.48,8.49,8.31,9.42,6.88,6.88,6.87
37.43,-1.61,-8.46,-1.60,-8.46,8.46,8.29,9.28,6.85,6.86,6.85
37.81,-1.60,-8.44,-1.60,-8.43,8.43,8.26,9.15,6.84,6.84,6.84
38.19,-1.59,-8.40,-1.59,-8.41,8.40,8.23,9.01,6.82,6.81,6.81
38.57,-1.58,-8.37,-1.58,-8.38,8.37,8.21,8.88,6.80,6.80,6.79
38.95,-1.57,-8.35,-1.57,-8.34,8.34,8.18,8.75,6.77,6.77,6.78
39.34,-1.56,-8.31,-1.56,-8.31,8.31,8.16,8.63,6.75,6.75,6.75
39.74,-1.55,-8.27,-1.55,-8.28,8.28,8.13,8.51,6.73,6.73,6.72
40.14,-1.54,-8.24,-1.54,-8.24,8.24,8.11,8.39,6.71,6.71,6.70
40.54,-1.53,-8.21,-1.53,-8.21,8.21,8.09,8.28,6.68,6.68,6.68
40.94,-1.52,-8.17,-1.52,-8.18,8.18,8.06,8.17,6.66,6.66,6.65
41.35,-1.51,-8.15,-1.51,-8.14,8.14,8.04,8.07,6.64,6.64,6.64
41.76,-1.50,-8.11,-1.49,-8.11,8.11,8.02,7.97,6.61,6.61,6.61
42.18,-1.48,-8.08,-1.48,-8.08,8.07,7.99,7.88,6.60,6.59,6.60
42.60,-1.47,-8.04,-1.47,-8.04,8.04,7.97,7.80,6.57,6.57,6.57
43.03,-1.46,-8.01,-1.46,-8.01,8.01,7.95,7.72,6.55,6.55,6.55
43.46,-1.46,-7.97,-1.45,-7.97,7.98,7.92,7.64,6.52,6.53,6.51
43.90,-1.45,-7.94,-1.45,-7.94,7.95,7.90,7.57,6.51,6.50,6.49
44.33,-1.46,-7.92,-1.46,-7.92,7.93,7.88,7.51,6.47,6.47,6.46
44.78,-1.47,-7.91,-1.46,-7.91,7.91,7.86,7.45,6.44,6.44,6.44
45.23,-1.48,-7.90,-1.48,-7.89,7.88,7.83,7.40,6.41,6.41,6.42
45.68,-1.49,-7.86,-1.49,-7.87,7.86,7.81,7.35,6.38,6.38,6.37
46.13,-1.50,-7.84,-1.50,-7.84,7.84,7.79,7.31,6.35,6.34,6.34
46.60,-1.52,-7.82,-1.51,-7.82,7.82,7.76,7.27,6.30,6.31,6.30
47.06,-1.53,-7.80,-1.53,-7.80,7.79,7.74,7.24,6.27,6.27,6.27
47.53,-1.54,-7.77,-1.54,-7.77,7.76,7.72,7.21,6.23,6.23,6.23
48.01,-1.55,-7.73,-1.55,-7.73,7.73,7.69,7.18,6.19,6.18,6.18
48.49,-1.56,-7.70,-1.56,-7.70,7.70,7.67,7.17,6.14,6.14,6.14
48.97,-1.57,-7.66,-1.56,-7.66,7.66,7.64,7.15,6.10,6.10,6.09
49.46,-1.57,-7.63,-1.57,-7.62,7.63,7.62,7.14,6.06,6.06,6.06
49.96,-1.58,-7.58,-1.57,-7.59,7.59,7.59,7.13,6.01,6.02,6.00
50.46,-1.58,-7.55,-1.58,-7.55,7.55,7.56,7.13,5.98,5.98,5.97
50.96,-1.59,-7.52,-1.58,-7.51,7.52,7.53,7.13,5.93,5.93,5.93
51.47,-1.59,-7.48,-1.59,-7.48,7.48,7.51,7.13,5.90,5.89,5.89
51.99,-1.60,-7.44,-1.59,-7.45,7.44,7.47,7.14,5.85,5.85,5.84
52.51,-1.60,-7.41,-1.60,-7.41,7.41,7.44,7.14,5.81,5.81,5.81
53.03,-1.60,-7.38,-1.60,-7.37,7.37,7.41,7.15,5.77,5.77,5.78
53.56,-1.60,-7.33,-1.60,-7.33,7.33,7.38,7.16,5.73,5.73,5.73
54.10,-1.60,-7.28,-1.60,-7.29,7.29,7.34,7.17,5.69,5.69,5.68
54.64,-1.60,-7.24,-1.60,-7.24,7.24,7.31,7.18,5.65,5.65,5.64
55.18,-1.60,-7.20,-1.59,-7.19,7.20,7.27,7.19,5.60,5.60,5.60
55.74,-1.59,-7.14,-1.59,-7.15,7.15,7.23,7.20,5.57,5.57,5.55
56.29,-1.59,-7.12,-1.58,-7.11,7.11,7.19,7.21,5.53,5.53,5.53
56.86,-1.58,-7.07,-1.58,-7.07,7.07,7.15,7.21,5.49,5.49,5.49
57.42,-1.58,-7.02,-1.57,-7.02,7.03,7.11,7.22,5.45,5.45,5.44
58.00,-1.57,-6.97,-1.57,-6.98,6.98,7.06,7.21,5.41,5.41,5.40
58.58,-1.56,-6.93,-1.56,-6.93,6.93,7.02,7.21,5.38,5.37,5.37
59.16,-1.56,-6.90,-1.55,-6.89,6.88,6.97,7.20,5.32,5.33,5.34
59.76,-1.54,-6.83,-1.54,-6.83,6.82,6.92,7.18,5.28,5.28,5.29
60.35,-1.53,-6.77,-1.53,-6.77,6.76,6.87,7.16,5.23,5.23,5.24
60.96,-1.52,-6.70,-1.52,-6.70,6.70,6.82,7.14,5.18,5.18,5.18
61.57,-1.51,-6.63,-1.50,-6.63,6.63,6.77,7.11,5.12,5.13,5.12
62.18,-1.50,-6.56,-1.49,-6.56,6.57,6.71,7.07,5.07,5.07,5.06
62.80,-1.48,-6.48,-1.48,-6.49,6.50,6.66,7.03,5.03,5.02,5.00
63.43,-1.48,-6.43,-1.48,-6.43,6.44,6.60,6.98,4.97,4.97,4.95
64.07,-1.48,-6.38,-1.48,-6.38,6.39,6.54,6.92,4.91,4.91,4.90
64.71,-1.49,-6.34,-1.48,-6.33,6.33,6.48,6.86,4.85,4.85,4.85
65.35,-1.49,-6.28,-1.49,-6.29,6.28,6.42,6.79,4.80,4.79,4.79
66.01,-1.50,-6.24,-1.49,-6.24,6.23,6.35,6.71,4.74,4.74,4.74
66.67,-1.50,-6.20,-1.50,-6.19,6.19,6.29,6.63,4.69,4.69,4.70
67.33,-1.50,-6.13,-1.50,-6.14,6.14,6.22,6.55,4.64,4.64,4.63
68.01,-1.50,-6.08,-1.50,-6.08,6.08,6.15,6.46,4.59,4.59,4.58
68.69,-1.50,-6.03,-1.50,-6.03,6.03,6.09,6.37,4.53,4.53,4.53
69.37,-1.50,-5.98,-1.50,-5.98,5.97,6.02,6.27,4.48,4.48,4.48
70.07,-1.50,-5.92,-1.50,-5.92,5.91,5.95,6.17,4.42,4.42,4.42
70.77,-1.50,-5.85,-1.50,-5.86,5.86,5.88,6.07,4.36,4.36,4.35
71.48,-1.50,-5.80,-1.50,-5.80,5.80,5.81,5.96,4.30,4.30,4.30
72.19,-1.50,-5.74,-1.50,-5.74,5.74,5.73,5.86,4.24,4.24,4.24
72.91,-1.50,-5.67,-1.50,-5.68,5.68,5.66,5.75,4.18,4.18,4.17
73.64,-1.50,-5.62,-1.50,-5.62,5.62,5.59,5.64,4.12,4.12,4.12
74.38,-1.50,-5.56,-1.50,-5.56,5.56,5.51,5.54,4.07,4.07,4.06
75.12,-1.50,-5.51,-1.50,-5.51,5.51,5.44,5.43,4.01,4.01,4.01
75.87,-1.50,-5.46,-1.50,-5.46,5.46,5.36,5.32,3.96,3.96,3.96
76.63,-1.50,-5.40,-1.50,-5.41,5.40,5.29,5.22,3.91,3.91,3.90
77.40,-1.50,-5.36,-1.50,-5.35,5.35,5.21,5.11,3.86,3.86,3.86
78.17,-1.50,-5.30,-1.50,-5.30,5.31,5.14,5.01,3.81,3.81,3.80
78.95,-1.50,-5.26,-1.50,-5.26,5.26,5.06,4.91,3.76,3.76,3.76
79.74,-1.50,-5.21,-1.50,-5.21,5.22,4.98,4.81,3.72,3.72,3.71
80.54,-1.51,-5.17,-1.50,-5.17,5.17,4.91,4.72,3.67,3.67,3.66
81.35,-1.51,-5.11,-1.51,-5.12,5.13,4.83,4.62,3.62,3.62,3.60
82.16,-1.52,-5.09,-1.52,-5.08,5.08,4.76,4.53,3.56,3.56,3.57
82.98,-1.53,-5.04,-1.52,-5.04,5.03,4.68,4.44,3.50,3.51,3.51
83.81,-1.53,-4.99,-1.53,-4.99,4.98,4.61,4.35,3.45,3.45,3.46
84.65,-1.52,-4.92,-1.52,-4.92,4.92,4.53,4.27,3.41,3.40,3.40
85.50,-1.52,-4.86,-1.51,-4.86,4.86,4.46,4.19,3.34,3.35,3.34
86.35,-1.50,-4.79,-1.50,-4.79,4.79,4.38,4.11,3.29,3.29,3.29
87.22,-1.48,-4.72,-1.48,-4.72,4.72,4.31,4.03,3.24,3.24,3.24
88.09,-1.46,-4.64,-1.45,-4.64,4.64,4.24,3.96,3.18,3.18,3.18
88.97,-1.43,-4.55,-1.43,-4.56,4.55,4.16,3.89,3.13,3.13,3.12
89.86,-1.40,-4.47,-1.40,-4.47,4.47,4.09,3.82,3.07,3.07,3.07
90.76,-1.37,-4.38,-1.37,-4.38,4.38,4.02,3.76,3.01,3.01,3.01
91.66,-1.34,-4.28,-1.33,-4.29,4.29,3.95,3.70,2.95,2.96,2.94
92.58,-1.31,-4.20,-1.30,-4.20,4.20,3.88,3.64,2.89,2.90,2.89
93.51,-1.27,-4.11,-1.27,-4.11,4.11,3.81,3.58,2.84,2.84,2.84
94.44,-1.25,-4.03,-1.24,-4.02,4.02,3.74,3.53,2.77,2.77,2.78
95.39,-1.22,-3.93,-1.22,-3.93,3.93,3.67,3.48,2.71,2.71,2.71
96.34,-1.20,-3.84,-1.20,-3.84,3.84,3.61,3.43,2.65,2.65,2.64
97.30,-1.18,-3.76,-1.18,-3.76,3.76,3.54,3.38,2.59,2.59,2.58
98.28,-1.17,-3.68,-1.17,-3.68,3.69,3.47,3.34,2.52,2.53,2.51
99.26,-1.16,-3.61,-1.16,-3.61,3.62,3.41,3.30,2.47,2.46,2.45
100.25,-1.16,-3.55,-1.16,-3.55,3.56,3.34,3.26,2.40,2.40,2.39
101.25,-1.16,-3.50,-1.16,-3.50,3.50,3.28,3.22,2.34,2.34,2.34
102.27,-1.17,-3.45,-1.17,-3.45,3.45,3.22,3.18,2.28,2.28,2.28
103.29,-1.18,-3.40,-1.17,-3.40,3.39,3.15,3.15,2.22,2.22,2.22
104.32,-1.18,-3.35,-1.18,-3.35,3.34,3.09,3.12,2.17,2.16,2.17
105.37,-1.18,-3.29,-1.18,-3.29,3.29,3.03,3.09,2.11,2.11,2.11
106.42,-1.18,-3.24,-1.18,-3.24,3.24,2.97,3.06,2.06,2.06,2.06
107.48,-1.18,-3.18,-1.18,-3.18,3.18,2.91,3.03,2.01,2.01,2.00
108.56,-1.18,-3.13,-1.18,-3.13,3.13,2.86,3.00,1.95,1.95,1.95
109.64,-1.18,-3.07,-1.18,-3.07,3.07,2.80,2.97,1.89,1.89,1.89
110.74,-1.18,-3.01,-1.18,-3.01,3.01,2.74,2.94,1.84,1.84,1.83
111.85,-1.18,-2.95,-1.18,-2.96,2.95,2.69,2.92,1.77,1.77,1.77
112.97,-1.18,-2.90,-1.18,-2.90,2.89,2.63,2.89,1.71,1.71,1.72
114.10,-1.18,-2.84,-1.18,-2.83,2.83,2.58,2.86,1.65,1.65,1.66
115.24,-1.18,-2.76,-1.18,-2.77,2.77,2.52,2.83,1.59,1.59,1.58
116.39,-1.18,-2.70,-1.18,-2.70,2.71,2.47,2.81,1.53,1.53,1.52
117.55,-1.18,-2.64,-1.18,-2.64,2.65,2.42,2.78,1.47,1.47,1.46
118.73,-1.18,-2.58,-1.18,-2.59,2.59,2.37,2.75,1.42,1.42,1.40
119.92,-1.18,-2.54,-1.18,-2.54,2.54,2.32,2.72,1.36,1.36,1.36
121.12,-1.18,-2.49,-1.18,-2.49,2.48,2.27,2.69,1.31,1.31,1.31
122.33,-1.18,-2.43,-1.18,-2.44,2.43,2.22,2.65,1.26,1.26,1.25
123.55,-1.18,-2.38,-1.18,-2.38,2.38,2.17,2.62,1.20,1.20,1.20
124.79,-1.18,-2.33,-1.18,-2.33,2.32,2.13,2.58,1.15,1.15,1.15
126.03,-1.18,-2.27,-1.18,-2.27,2.26,2.08,2.55,1.09,1.09,1.09
127.29,-1.18,-2.22,-1.18,-2.21,2.20,2.04,2.51,1.03,1.03,1.04
128.57,-1.18,-2.15,-1.17,-2.15,2.14,1.99,2.47,0.97,0.97,0.97
129.85,-1.16,-2.08,-1.16,-2.08,2.08,1.95,2.43,0.93,0.92,0.92
131.15,-1.16,-2.02,-1.16,-2.02,2.03,1.90,2.39,0.87,0.87,0.86
132.46,-1.16,-1.97,-1.16,-1.97,1.98,1.86,2.35,0.82,0.82,0.81
133.79,-1.17,-1.92,-1.16,-1.92,1.93,1.82,2.30,0.77,0.77,0.75
135.12,-1.18,-1.88,-1.18,-1.88,1.89,1.78,2.26,0.72,0.72,0.70
136.48,-1.20,-1.85,-1.20,-1.85,1.86,1.74,2.21,0.67,0.66,0.65
137.84,-1.24,-1.84,-1.23,-1.83,1.84,1.70,2.16,0.60,0.60,0.60
139.22,-1.27,-1.81,-1.27,-1.82,1.81,1.66,2.11,0.55,0.55,0.54
140.61,-1.30,-1.80,-1.30,-1.79,1.79,1.62,2.06,0.49,0.49,0.50
142.02,-1.33,-1.77,-1.32,-1.77,1.77,1.58,2.01,0.44,0.44,0.44
143.44,-1.34,-1.74,-1.34,-1.75,1.74,1.54,1.96,0.40,0.39,0.40
144.87,-1.36,-1.72,-1.35,-1.71,1.70,1.51,1.91,0.34,0.35,0.36
146.32,-1.36,-1.67,-1.35,-1.67,1.66,1.47,1.86,0.30,0.31,0.31
147.78,-1.35,-1.62,-1.35,-1.62,1.61,1.43,1.81,0.27,0.27,0.27
149.26,-1.34,-1.56,-1.33,-1.56,1.56,1.40,1.76,0.23,0.23,0.22
150.75,-1.32,-1.50,-1.32,-1.50,1.51,1.36,1.71,0.19,0.19,0.18
152.26,-1.31,-1.45,-1.31,-1.45,1.45,1.33,1.66,0.15,0.15,0.14
153.78,-1.30,-1.40,-1.30,-1.40,1.40,1.30,1.61,0.10,0.10,0.10
155.32,-1.30,-1.36,-1.29,-1.35,1.35,1.26,1.56,0.05,0.06,0.06
156.88,-1.29,-1.30,-1.29,-1.30,1.31,1.23,1.50,0.02,0.02,0.01
158.44,-1.29,-1.25,-1.29,-1.26,1.27,1.20,1.46,-0.02,-0.02,-0.04
160.03,-1.30,-1.22,-1.30,-1.22,1.24,1.17,1.41,-0.06,-0.06,-0.08
161.63,-1.32,-1.20,-1.32,-1.20,1.21,1.14,1.36,-0.11,-0.11,-0.12
163.24,-1.35,-1.18,-1.35,-1.18,1.18,1.11,1.31,-0.17,-0.17,-0.17
164.88,-1.38,-1.16,-1.37,-1.16,1.15,1.08,1.26,-0.23,-0.22,-0.22
166.53,-1.40,-1.13,-1.40,-1.14,1.12,1.05,1.21,-0.28,-0.28,-0.27
168.19,-1.41,-1.11,-1.41,-1.10,1.08,1.02,1.17,-0.32,-0.32,-0.30
169.87,-1.41,-1.05,-1.40,-1.05,1.04,0.99,1.12,-0.37,-0.36,-0.36
171.57,-1.40,-0.99,-1.40,-1.00,0.99,0.97,1.07,-0.40,-0.41,-0.41
173.29,-1.39,-0.94,-1.39,-0.94,0.94,0.94,1.03,-0.45,-0.45,-0.45
175.02,-1.38,-0.88,-1.38,-0.88,0.88,0.91,0.99,-0.50,-0.50,-0.50
176.77,-1.37,-0.82,-1.36,-0.82,0.82,0.89,0.94,-0.55,-0.54,-0.55
178.54,-1.35,-0.76,-1.35,-0.76,0.76,0.86,0.90,-0.58,-0.59,-0.59
180.32,-1.34,-0.69,-1.34,-0.70,0.71,0.84,0.86,-0.63,-0.63,-0.65
182.13,-1.34,-0.66,-1.34,-0.65,0.66,0.81,0.81,-0.67,-0.67,-0.68
183.95,-1.35,-0.62,-1.34,-0.62,0.62,0.79,0.77,-0.72,-0.72,-0.73
185.79,-1.36,-0.58,-1.36,-0.59,0.59,0.76,0.73,-0.76,-0.77,-0.78
187.65,-1.38,-0.56,-1.38,-0.56,0.57,0.74,0.69,-0.81,-0.81,-0.82
189.52,-1.40,-0.54,-1.40,-0.54,0.54,0.72,0.65,-0.85,-0.85,-0.86
191.42,-1.43,-0.53,-1.43,-0.53,0.53,0.69,0.61,-0.90,-0.90,-0.90
193.33,-1.46,-0.52,-1.45,-0.51,0.51,0.67,0.58,-0.95,-0.94,-0.94
195.27,-1.48,-0.49,-1.48,-0.50,0.49,0.65,0.54,-0.99,-0.99,-0.99
197.22,-1.51,-0.47,-1.51,-0.48,0.47,0.63,0.50,-1.04,-1.04,-1.04
199.19,-1.53,-0.46,-1.52,-0.45,0.44,0.61,0.46,-1.08,-1.08,-1.07
201.18,-1.53,-0.42,-1.53,-0.42,0.41,0.58,0.43,-1.11,-1.11,-1.11
203.19,-1.52,-0.38,-1.52,-0.39,0.38,0.56,0.39,-1.13,-1.14,-1.14
205.23,-1.51,-0.35,-1.51,-0.35,0.35,0.54,0.36,-1.16,-1.16,-1.16
207.28,-1.50,-0.31,-1.50,-0.31,0.31,0.52,0.32,-1.18,-1.18,-1.19
209.35,-1.50,-0.27,-1.50,-0.27,0.28,0.51,0.29,-1.22,-1.22,-1.23
211.44,-1.50,-0.24,-1.50,-0.24,0.25,0.49,0.26,-1.25,-1.25,-1.26
213.56,-1.50,-0.22,-1.50,-0.22,0.21,0.47,0.23,-1.28,-1.28,-1.28
215.69,-1.50,-0.19,-1.50,-0.19,0.18,0.45,0.20,-1.31,-1.31,-1.31
217.85,-1.50,-0.16,-1.50,-0.16,0.16,0.43,0.17,-1.34,-1.34,-1.34
220.03,-1.50,-0.13,-1.50,-0.13,0.13,0.41,0.14,-1.36,-1.36,-1.37
222.23,-1.50,-0.10,-1.50,-0.10,0.11,0.40,0.11,-1.39,-1.39,-1.40
224.45,-1.50,-0.09,-1.50,-0.08,0.09,0.38,0.08,-1.41,-1.41,-1.41
226.70,-1.50,-0.06,-1.50,-0.07,0.06,0.36,0.06,-1.43,-1.43,-1.44
228.96,-1.50,-0.05,-1.50,-0.05,0.04,0.35,0.04,-1.45,-1.45,-1.45
231.25,-1.50,-0.03,-1.50,-0.03,0.03,0.33,0.01,-1.47,-1.47,-1.47
233.57,-1.50,-0.01,-1.50,-0.01,0.01,0.32,-0.01,-1.49,-1.49,-1.49
235.90,-1.50,0.00,-1.50,0.01,-0.00,0.30,-0.03,-1.50,-1.50,-1.50
238.26,-1.50,0.03,-1.50,0.02,-0.02,0.29,-0.05,-1.51,-1.51,-1.53
240.64,-1.50,0.02,-1.50,0.03,-0.03,0.27,-0.07,-1.52,-1.52,-1.52
243.05,-1.50,0.04,-1.50,0.04,-0.04,0.26,-0.08,-1.53,-1.53,-1.54
245.48,-1.50,0.05,-1.50,0.05,-0.05,0.25,-0.10,-1.54,-1.54,-1.55
247.93,-1.50,0.06,-1.50,0.05,-0.05,0.23,-0.11,-1.55,-1.55,-1.56
250.41,-1.50,0.05,-1.50,0.06,-0.06,0.22,-0.12,-1.55,-1.55,-1.55
252.92,-1.50,0.06,-1.50,0.06,-0.06,0.21,-0.13,-1.56,-1.56,-1.56
255.45,-1.50,0.07,-1.50,0.07,-0.07,0.19,-0.14,-1.56,-1.56,-1.57
258.00,-1.50,0.07,-1.50,0.07,-0.07,0.18,-0.14,-1.57,-1.57,-1.57
260.58,-1.50,0.07,-1.50,0.07,-0.07,0.17,-0.15,-1.57,-1.57,-1.57
263.19,-1.50,0.07,-1.50,0.07,-0.07,0.16,-0.15,-1.57,-1.57,-1.57
265.82,-1.50,0.08,-1.50,0.08,-0.08,0.15,-0.16,-1.57,-1.57,-1.58
268.48,-1.50,0.08,-1.50,0.08,-0.08,0.14,-0.16,-1.58,-1.58,-1.58
271.16,-1.50,0.08,-1.50,0.08,-0.08,0.13,-0.16,-1.58,-1.58,-1.58
273.87,-1.50,0.08,-1.50,0.08,-0.09,0.12,-0.16,-1.58,-1.58,-1.58
276.61,-1.50,0.08,-1.50,0.09,-0.09,0.11,-0.16,-1.58,-1.58,-1.58
279.38,-1.50,0.10,-1.50,0.09,-0.09,0.10,-0.15,-1.59,-1.59,-1.60
282.17,-1.50,0.10,-1.50,0.09,-0.09,0.09,-0.15,-1.59,-1.59,-1.60
284.99,-1.50,0.09,-1.50,0.09,-0.09,0.08,-0.14,-1.59,-1.59,-1.59
287.84,-1.50,0.08,-1.50,0.09,-0.09,0.07,-0.14,-1.58,-1.58,-1.58
290.72,-1.50,0.09,-1.50,0.08,-0.08,0.06,-0.13,-1.58,-1.58,-1.59
293.63,-1.50,0.08,-1.50,0.08,-0.08,0.06,-0.13,-1.58,-1.58,-1.58
296.57,-1.50,0.07,-1.50,0.07,-0.07,0.05,-0.12,-1.57,-1.57,-1.57
299.53,-1.50,0.07,-1.50,0.06,-0.07,0.04,-0.11,-1.56,-1.56,-1.57
302.53,-1.50,0.05,-1.50,0.06,-0.06,0.04,-0.10,-1.56,-1.56,-1.55
305.55,-1.50,0.06,-1.50,0.05,-0.06,0.03,-0.09,-1.55,-1.55,-1.56
308.61,-1.50,0.05,-1.50,0.05,-0.05,0.02,-0.08,-1.55,-1.55,-1.55
311.69,-1.50,0.04,-1.50,0.05,-0.04,0.02,-0.07,-1.54,-1.54,-1.54
314.81,-1.50,0.04,-1.50,0.04,-0.04,0.01,-0.06,-1.53,-1.53,-1.54
317.96,-1.50,0.03,-1.50,0.03,-0.03,0.01,-0.05,-1.52,-1.52,-1.53
321.14,-1.50,0.02,-1.50,0.02,-0.02,0.00,-0.04,-1.52,-1.52,-1.52
324.35,-1.50,0.02,-1.50,0.01,-0.01,-0.00,-0.03,-1.51,-1.51,-1.52
327.59,-1.50,-0.01,-1.50,0.00,-0.01,-0.01,-0.02,-1.50,-1.50,-1.49
330.87,-1.50,0.00,-1.50,-0.00,0.00,-0.01,-0.01,-1.49,-1.49,-1.50
334.18,-1.50,-0.01,-1.50,-0.01,0.01,-0.01,-0.00,-1.49,-1.49,-1.49
337.52,-1.50,-0.01,-1.50,-0.02,0.02,-0.02,0.01,-1.48,-1.48,-1.49
340.90,-1.50,-0.03,-1.50,-0.03,0.03,-0.02,0.02,-1.47,-1.47,-1.47
344.30,-1.50,-0.04,-1.50,-0.03,0.03,-0.02,0.03,-1.46,-1.46,-1.46
347.75,-1.50,-0.04,-1.50,-0.04,0.04,-0.02,0.04,-1.46,-1.46,-1.46
351.23,-1.50,-0.04,-1.50,-0.05,0.05,-0.02,0.05,-1.45,-1.45,-1.46
354.74,-1.50,-0.07,-1.50,-0.06,0.06,-0.02,0.06,-1.44,-1.44,-1.43
358.28,-1.50,-0.06,-1.50,-0.06,0.07,-0.02,0.07,-1.43,-1.43,-1.44
361.87,-1.50,-0.07,-1.50,-0.07,0.07,-0.02,0.09,-1.42,-1.42,-1.43
365.49,-1.50,-0.08,-1.50,-0.08,0.08,-0.02,0.10,-1.41,-1.41,-1.42
369.14,-1.50,-0.10,-1.50,-0.09,0.09,-0.02,0.11,-1.41,-1.41,-1.40
372.83,-1.50,-0.10,-1.50,-0.10,0.10,-0.02,0.12,-1.40,-1.40,-1.40
376.56,-1.50,-0.10,-1.50,-0.11,0.11,-0.02,0.13,-1.39,-1.39,-1.40
380.33,-1.50,-0.11,-1.50,-0.11,0.11,-0.02,0.14,-1.38,-1.38,-1.39
384.13,-1.50,-0.13,-1.50,-0.12,0.12,-0.02,0.15,-1.37,-1.37,-1.37
387.97,-1.50,-0.13,-1.50,-0.13,0.13,-0.02,0.16,-1.36,-1.36,-1.37
391.85,-1.50,-0.14,-1.50,-0.14,0.14,-0.01,0.17,-1.35,-1.35,-1.36
395.77,-1.50,-0.15,-1.50,-0.15,0.15,-0.01,0.18,-1.34,-1.34,-1.35
399.73,-1.50,-0.16,-1.50,-0.17,0.16,-0.01,0.19,-1.33,-1.33,-1.34
403.72,-1.50,-0.19,-1.50,-0.17,0.17,-0.00,0.20,-1.32,-1.32,-1.31
407.76,-1.50,-0.18,-1.50,-0.19,0.19,-0.00,0.21,-1.31,-1.31,-1.32
411.84,-1.50,-0.19,-1.50,-0.20,0.20,0.00,0.22,-1.29,-1.30,-1.31
415.96,-1.51,-0.22,-1.50,-0.21,0.22,0.01,0.23,-1.29,-1.29,-1.29
420.12,-1.51,-0.22,-1.51,-0.23,0.23,0.01,0.24,-1.28,-1.28,-1.29
424.32,-1.52,-0.24,-1.51,-0.24,0.24,0.02,0.25,-1.27,-1.27,-1.28
428.56,-1.52,-0.26,-1.52,-0.26,0.25,0.02,0.26,-1.27,-1.27,-1.26
432.85,-1.52,-0.27,-1.52,-0.27,0.26,0.03,0.27,-1.26,-1.26,-1.25
437.18,-1.52,-0.26,-1.51,-0.27,0.26,0.04,0.28,-1.26,-1.26,-1.26
441.55,-1.51,-0.26,-1.50,-0.26,0.26,0.04,0.28,-1.25,-1.25,-1.25
445.96,-1.49,-0.25,-1.49,-0.25,0.25,0.05,0.29,-1.24,-1.24,-1.24
450.42,-1.46,-0.23,-1.46,-0.23,0.23,0.06,0.30,-1.22,-1.23,-1.23
454.93,-1.44,-0.22,-1.43,-0.21,0.22,0.06,0.30,-1.22,-1.21,-1.22
459.48,-1.40,-0.19,-1.40,-0.20,0.20,0.07,0.31,-1.20,-1.20,-1.21
464.07,-1.37,-0.18,-1.37,-0.18,0.17,0.08,0.31,-1.19,-1.19,-1.19
468.71,-1.34,-0.16,-1.33,-0.15,0.15,0.09,0.32,-1.19,-1.18,-1.18
473.40,-1.30,-0.12,-1.30,-0.13,0.13,0.10,0.32,-1.17,-1.17,-1.18
478.13,-1.27,-0.10,-1.27,-0.10,0.10,0.11,0.33,-1.16,-1.16,-1.17
482.91,-1.24,-0.08,-1.24,-0.08,0.08,0.11,0.33,-1.15,-1.15,-1.16
487.74,-1.22,-0.07,-1.22,-0.07,0.07,0.12,0.33,-1.15,-1.15,-1.15
