frequency,raw,error,smoothed,error_smoothed,equalization,parametric_eq,fixed_band_eq,equalized_raw,equalized_smoothed,target
20.00,-5.07,-8.81,-5.07,-8.84,8.84,8.75,2.84,3.77,3.77,3.75
20.20,-5.01,-8.75,-5.01,-8.78,8.78,8.69,2.92,3.77,3.76,3.75
20.40,-4.97,-8.71,-4.96,-8.71,8.71,8.63,3.00,3.75,3.75,3.75
20.61,-4.91,-8.65,-4.91,-8.65,8.65,8.56,3.09,3.74,3.74,3.75
20.81,-4.85,-8.59,-4.85,-8.58,8.58,8.50,3.18,3.74,3.73,3.75
21.02,-4.80,-8.54,-4.79,-8.52,8.52,8.44,3.26,3.72,3.72,3.75
21.23,-4.74,-8.46,-4.74,-8.45,8.45,8.37,3.36,3.71,3.71,3.73
21.44,-4.69,-8.40,-4.68,-8.38,8.38,8.31,3.45,3.69,3.70,3.72
21.66,-4.63,-8.32,-4.62,-8.31,8.31,8.24,3.55,3.68,3.68,3.70
21.87,-4.57,-8.24,-4.56,-8.23,8.23,8.17,3.65,3.67,3.67,3.68
22.09,-4.51,-8.17,-4.50,-8.16,8.16,8.11,3.75,3.65,3.65,3.67
22.31,-4.45,-8.08,-4.44,-8.08,8.08,8.04,3.85,3.64,3.64,3.64
22.54,-4.39,-8.00,-4.38,-8.00,8.00,7.97,3.96,3.61,3.61,3.62
22.76,-4.32,-7.91,-4.32,-7.91,7.91,7.91,4.07,3.60,3.59,3.60
22.99,-4.26,-7.82,-4.26,-7.83,7.83,7.84,4.18,3.57,3.57,3.57
23.22,-4.20,-7.73,-4.20,-7.75,7.75,7.77,4.30,3.55,3.55,3.54
23.45,-4.14,-7.64,-4.14,-7.66,7.66,7.70,4.42,3.52,3.52,3.51
23.69,-4.08,-7.57,-4.07,-7.58,7.58,7.63,4.54,3.50,3.50,3.50
23.92,-4.01,-7.48,-4.01,-7.49,7.49,7.56,4.66,3.49,3.48,3.48
24.16,-3.95,-7.41,-3.95,-7.41,7.41,7.50,4.78,3.46,3.46,3.47
24.40,-3.89,-7.33,-3.88,-7.33,7.33,7.43,4.91,3.44,3.44,3.45
24.65,-3.83,-7.25,-3.82,-7.24,7.24,7.36,5.04,3.42,3.42,3.43
24.89,-3.76,-7.16,-3.76,-7.16,7.16,7.29,5.17,3.41,3.41,3.41
25.14,-3.70,-7.09,-3.69,-7.08,7.08,7.22,5.30,3.39,3.39,3.40
25.39,-3.63,-7.00,-3.63,-7.00,7.00,7.15,5.43,3.38,3.37,3.38
25.65,-3.57,-6.93,-3.56,-6.92,6.92,7.08,5.57,3.36,3.36,3.37
25.91,-3.50,-6.83,-3.50,-6.84,6.84,7.01,5.70,3.34,3.34,3.34
26.16,-3.44,-6.76,-3.43,-6.76,6.76,6.94,5.83,3.33,3.33,3.33
26.43,-3.37,-6.68,-3.37,-6.68,6.68,6.87,5.96,3.31,3.31,3.32
26.69,-3.31,-6.59,-3.30,-6.60,6.60,6.80,6.09,3.29,3.30,3.29
26.96,-3.24,-6.51,-3.24,-6.52,6.52,6.73,6.22,3.28,3.28,3.28
27.23,-3.17,-6.43,-3.17,-6.44,6.44,6.66,6.35,3.27,3.26,3.27
27.50,-3.12,-6.37,-3.11,-6.36,6.36,6.59,6.47,3.24,3.25,3.26
27.77,-3.05,-6.28,-3.04,-6.28,6.28,6.52,6.59,3.24,3.24,3.24
28.05,-2.98,-6.20,-2.98,-6.20,6.20,6.46,6.70,3.23,3.22,3.23
28.33,-2.92,-6.12,-2.92,-6.12,6.12,6.39,6.81,3.21,3.21,3.21
28.62,-2.85,-6.04,-2.85,-6.05,6.05,6.32,6.90,3.20,3.19,3.20
28.90,-2.79,-5.96,-2.79,-5.97,5.97,6.25,7.00,3.18,3.18,3.18
29.19,-2.74,-5.89,-2.72,-5.89,5.89,6.18,7.08,3.16,3.17,3.16
29.48,-2.67,-5.82,-2.66,-5.82,5.82,6.11,7.15,3.15,3.16,3.16
29.78,-2.61,-5.75,-2.60,-5.74,5.74,6.04,7.22,3.14,3.14,3.15
30.08,-2.54,-5.67,-2.54,-5.67,5.67,5.98,7.27,3.13,3.13,3.14
30.38,-2.49,-5.60,-2.48,-5.60,5.60,5.91,7.31,3.11,3.11,3.12
30.68,-2.42,-5.52,-2.43,-5.52,5.52,5.84,7.34,3.11,3.10,3.11
30.99,-2.36,-5.43,-2.37,-5.45,5.45,5.77,7.35,3.09,3.08,3.08
31.30,-2.32,-5.38,-2.31,-5.38,5.38,5.71,7.36,3.06,3.07,3.07
31.61,-2.26,-5.31,-2.26,-5.31,5.31,5.64,7.35,3.05,3.05,3.06
31.93,-2.21,-5.24,-2.21,-5.24,5.24,5.57,7.33,3.03,3.03,3.04
32.24,-2.17,-5.17,-2.16,-5.17,5.17,5.51,7.30,3.00,3.01,3.01
32.57,-2.11,-5.09,-2.11,-5.10,5.10,5.44,7.25,2.99,2.99,2.99
32.89,-2.07,-5.04,-2.06,-5.03,5.03,5.37,7.20,2.97,2.97,2.98
33.22,-2.02,-4.96,-2.02,-4.97,4.97,5.31,7.13,2.95,2.95,2.95
33.55,-1.97,-4.90,-1.97,-4.90,4.90,5.24,7.05,2.93,2.93,2.94
33.89,-1.93,-4.83,-1.93,-4.84,4.84,5.18,6.97,2.91,2.91,2.91
34.23,-1.89,-4.77,-1.88,-4.77,4.77,5.11,6.88,2.89,2.89,2.89
34.57,-1.84,-4.70,-1.84,-4.71,4.71,5.05,6.78,2.87,2.87,2.87
34.92,-1.80,-4.64,-1.80,-4.64,4.64,4.98,6.67,2.85,2.85,2.85
35.27,-1.76,-4.58,-1.75,-4.58,4.58,4.92,6.56,2.82,2.83,2.83
35.62,-1.71,-4.51,-1.71,-4.52,4.52,4.86,6.44,2.81,2.81,2.81
35.97,-1.68,-4.46,-1.67,-4.46,4.46,4.79,6.32,2.78,2.79,2.79
36.33,-1.63,-4.39,-1.63,-4.39,4.39,4.73,6.20,2.77,2.76,2.77
36.70,-1.60,-4.34,-1.59,-4.33,4.33,4.67,6.08,2.73,2.74,2.75
37.06,-1.55,-4.27,-1.55,-4.27,4.27,4.60,5.95,2.73,2.72,2.73
37.43,-1.51,-4.21,-1.51,-4.21,4.21,4.54,5.82,2.70,2.70,2.71
37.81,-1.47,-4.15,-1.47,-4.15,4.15,4.48,5.69,2.68,2.68,2.69
38.19,-1.43,-4.08,-1.43,-4.09,4.09,4.42,5.57,2.66,2.66,2.66
38.57,-1.40,-4.04,-1.39,-4.03,4.03,4.36,5.44,2.64,2.64,2.65
38.95,-1.36,-3.97,-1.35,-3.97,3.97,4.30,5.31,2.62,2.62,2.62
39.34,-1.32,-3.91,-1.32,-3.92,3.92,4.24,5.19,2.60,2.60,2.60
39.74,-1.28,-3.85,-1.28,-3.86,3.86,4.18,5.07,2.59,2.58,2.58
40.14,-1.25,-3.81,-1.25,-3.81,3.81,4.12,4.95,2.56,2.56,2.57
40.54,-1.22,-3.76,-1.21,-3.76,3.76,4.06,4.83,2.54,2.55,2.55
40.94,-1.18,-3.70,-1.18,-3.71,3.71,4.00,4.71,2.53,2.53,2.53
41.35,-1.15,-3.64,-1.15,-3.66,3.66,3.94,4.60,2.51,2.51,2.50
41.76,-1.12,-3.61,-1.12,-3.61,3.61,3.88,4.49,2.49,2.49,2.50
42.18,-1.09,-3.56,-1.09,-3.56,3.56,3.83,4.38,2.47,2.47,2.48
42.60,-1.06,-3.51,-1.06,-3.51,3.51,3.77,4.27,2.45,2.45,2.46
43.03,-1.03,-3.47,-1.03,-3.46,3.46,3.71,4.17,2.43,2.43,2.45
43.46,-1.01,-3.42,-1.00,-3.41,3.41,3.65,4.07,2.41,2.41,2.42
43.90,-0.97,-3.36,-0.97,-3.37,3.37,3.60,3.97,2.40,2.40,2.40
44.33,-0.95,-3.32,-0.95,-3.32,3.32,3.54,3.88,2.38,2.38,2.38
44.78,-0.93,-3.28,-0.92,-3.28,3.28,3.49,3.78,2.35,2.36,2.36
45.23,-0.90,-3.22,-0.90,-3.24,3.24,3.43,3.70,2.34,2.34,2.33
45.68,-0.88,-3.18,-0.87,-3.19,3.19,3.38,3.61,2.32,2.32,2.31
46.13,-0.85,-3.14,-0.85,-3.15,3.15,3.32,3.53,2.30,2.30,2.30
46.60,-0.83,-3.11,-0.83,-3.11,3.11,3.27,3.45,2.28,2.28,2.29
47.06,-0.80,-3.06,-0.80,-3.06,3.06,3.21,3.37,2.27,2.26,2.27
47.53,-0.78,-3.02,-0.78,-3.02,3.02,3.16,3.29,2.24,2.24,2.25
48.01,-0.76,-2.99,-0.76,-2.98,2.98,3.11,3.22,2.22,2.22,2.24
48.49,-0.75,-2.95,-0.74,-2.94,2.94,3.05,3.15,2.19,2.20,2.21
48.97,-0.73,-2.90,-0.72,-2.90,2.90,3.00,3.08,2.17,2.18,2.18
49.46,-0.71,-2.85,-0.70,-2.86,2.86,2.95,3.02,2.15,2.15,2.15
49.96,-0.69,-2.80,-0.69,-2.82,2.82,2.90,2.96,2.13,2.13,2.12
50.46,-0.67,-2.77,-0.67,-2.78,2.78,2.85,2.89,2.11,2.11,2.11
50.96,-0.65,-2.73,-0.65,-2.74,2.74,2.80,2.84,2.09,2.09,2.09
51.47,-0.64,-2.69,-0.64,-2.70,2.70,2.75,2.78,2.06,2.06,2.06
51.99,-0.62,-2.65,-0.62,-2.66,2.66,2.69,2.72,2.04,2.04,2.04
52.51,-0.61,-2.62,-0.61,-2.62,2.62,2.64,2.67,2.01,2.01,2.02
53.03,-0.60,-2.59,-0.59,-2.58,2.58,2.59,2.62,1.98,1.99,2.00
53.56,-0.58,-2.54,-0.58,-2.54,2.54,2.55,2.57,1.96,1.96,1.97
54.10,-0.56,-2.50,-0.56,-2.50,2.50,2.50,2.52,1.95,1.94,1.95
54.64,-0.56,-2.47,-0.55,-2.47,2.47,2.45,2.47,1.91,1.92,1.92
55.18,-0.54,-2.43,-0.54,-2.43,2.43,2.40,2.42,1.89,1.90,1.90
55.74,-0.52,-2.38,-0.52,-2.39,2.39,2.35,2.37,1.88,1.87,1.87
56.29,-0.52,-2.36,-0.51,-2.36,2.36,2.30,2.33,1.84,1.85,1.85
56.86,-0.50,-2.31,-0.50,-2.32,2.32,2.26,2.28,1.82,1.82,1.82
57.42,-0.49,-2.28,-0.48,-2.28,2.28,2.21,2.23,1.80,1.80,1.80
58.00,-0.47,-2.24,-0.47,-2.25,2.25,2.16,2.19,1.78,1.77,1.78
58.58,-0.46,-2.20,-0.46,-2.21,2.21,2.11,2.14,1.75,1.75,1.75
59.16,-0.45,-2.17,-0.45,-2.17,2.17,2.07,2.10,1.72,1.72,1.73
59.76,-0.44,-2.14,-0.43,-2.13,2.13,2.02,2.05,1.69,1.70,1.71
60.35,-0.42,-2.09,-0.42,-2.09,2.09,1.98,2.01,1.67,1.67,1.68
60.96,-0.42,-2.07,-0.41,-2.05,2.05,1.93,1.96,1.64,1.64,1.66
61.57,-0.40,-2.01,-0.40,-2.01,2.01,1.88,1.92,1.62,1.62,1.62
62.18,-0.39,-1.97,-0.39,-1.98,1.98,1.84,1.87,1.59,1.59,1.59
62.80,-0.38,-1.93,-0.37,-1.94,1.94,1.79,1.82,1.56,1.56,1.56
63.43,-0.37,-1.89,-0.36,-1.90,1.90,1.75,1.78,1.53,1.54,1.53
64.07,-0.36,-1.85,-0.35,-1.86,1.86,1.71,1.73,1.51,1.51,1.50
64.71,-0.34,-1.81,-0.34,-1.83,1.83,1.66,1.68,1.49,1.48,1.48
65.35,-0.34,-1.79,-0.33,-1.79,1.79,1.62,1.63,1.45,1.46,1.46
66.01,-0.33,-1.76,-0.32,-1.75,1.75,1.57,1.58,1.43,1.43,1.44
66.67,-0.31,-1.71,-0.31,-1.72,1.72,1.53,1.53,1.41,1.41,1.41
67.33,-0.30,-1.68,-0.30,-1.68,1.68,1.49,1.48,1.39,1.38,1.39
68.01,-0.30,-1.65,-0.29,-1.65,1.65,1.44,1.43,1.35,1.36,1.36
68.69,-0.28,-1.61,-0.28,-1.61,1.61,1.40,1.38,1.34,1.33,1.34
69.37,-0.28,-1.58,-0.27,-1.58,1.58,1.36,1.33,1.30,1.31,1.31
70.07,-0.27,-1.54,-0.26,-1.54,1.54,1.31,1.27,1.28,1.28,1.28
70.77,-0.26,-1.51,-0.25,-1.51,1.51,1.27,1.22,1.25,1.25,1.26
71.48,-0.25,-1.47,-0.25,-1.47,1.47,1.23,1.17,1.22,1.22,1.23
72.19,-0.24,-1.43,-0.24,-1.43,1.43,1.19,1.11,1.19,1.19,1.20
72.91,-0.23,-1.38,-0.23,-1.39,1.39,1.14,1.06,1.16,1.16,1.16
73.64,-0.23,-1.35,-0.22,-1.35,1.35,1.10,1.00,1.12,1.12,1.13
74.38,-0.22,-1.31,-0.22,-1.31,1.31,1.06,0.95,1.09,1.09,1.10
75.12,-0.21,-1.25,-0.21,-1.26,1.26,1.02,0.90,1.06,1.06,1.05
75.87,-0.20,-1.21,-0.20,-1.22,1.22,0.98,0.84,1.02,1.02,1.02
76.63,-0.20,-1.18,-0.20,-1.18,1.18,0.94,0.79,0.98,0.98,0.99
77.40,-0.20,-1.14,-0.19,-1.13,1.13,0.89,0.73,0.94,0.94,0.95
78.17,-0.19,-1.07,-0.18,-1.09,1.09,0.85,0.68,0.90,0.90,0.89
78.95,-0.18,-1.04,-0.18,-1.04,1.04,0.81,0.62,0.86,0.86,0.87
79.74,-0.18,-1.00,-0.18,-0.99,0.99,0.77,0.57,0.82,0.82,0.83
80.54,-0.18,-0.95,-0.17,-0.95,0.95,0.73,0.51,0.77,0.78,0.78
81.35,-0.17,-0.90,-0.17,-0.90,0.90,0.69,0.46,0.73,0.73,0.74
82.16,-0.16,-0.84,-0.16,-0.85,0.85,0.65,0.41,0.69,0.69,0.69
82.98,-0.16,-0.80,-0.16,-0.80,0.80,0.60,0.35,0.64,0.64,0.65
83.81,-0.16,-0.74,-0.15,-0.75,0.75,0.56,0.30,0.60,0.60,0.59
84.65,-0.16,-0.70,-0.15,-0.70,0.70,0.52,0.24,0.54,0.55,0.55
85.50,-0.15,-0.65,-0.15,-0.65,0.65,0.48,0.19,0.50,0.50,0.51
86.35,-0.15,-0.60,-0.15,-0.60,0.60,0.44,0.13,0.45,0.45,0.46
87.22,-0.15,-0.55,-0.14,-0.55,0.55,0.40,0.08,0.40,0.40,0.41
88.09,-0.14,-0.48,-0.14,-0.49,0.49,0.36,0.02,0.36,0.35,0.35
88.97,-0.14,-0.44,-0.14,-0.44,0.44,0.31,-0.03,0.31,0.30,0.31
89.86,-0.14,-0.39,-0.14,-0.39,0.39,0.27,-0.09,0.25,0.25,0.26
90.76,-0.14,-0.33,-0.14,-0.34,0.34,0.23,-0.14,0.20,0.20,0.20
91.66,-0.14,-0.28,-0.13,-0.28,0.28,0.19,-0.20,0.15,0.15,0.15
92.58,-0.14,-0.22,-0.13,-0.23,0.23,0.15,-0.25,0.09,0.10,0.09
93.51,-0.14,-0.18,-0.13,-0.17,0.17,0.11,-0.31,0.03,0.04,0.05
94.44,-0.13,-0.12,-0.13,-0.11,0.11,0.06,-0.36,-0.01,-0.02,-0.00
95.39,-0.13,-0.06,-0.13,-0.06,0.06,0.02,-0.42,-0.07,-0.07,-0.06
96.34,-0.13,0.01,-0.13,0.00,-0.00,-0.02,-0.47,-0.13,-0.13,-0.13
97.30,-0.13,0.06,-0.13,0.06,-0.06,-0.06,-0.53,-0.19,-0.19,-0.18
98.28,-0.13,0.12,-0.13,0.12,-0.12,-0.11,-0.58,-0.25,-0.25,-0.24
99.26,-0.13,0.19,-0.13,0.18,-0.18,-0.15,-0.64,-0.31,-0.31,-0.31
100.25,-0.13,0.24,-0.13,0.24,-0.24,-0.19,-0.69,-0.37,-0.37,-0.36
101.25,-0.13,0.30,-0.13,0.30,-0.30,-0.24,-0.75,-0.43,-0.43,-0.42
102.27,-0.13,0.37,-0.13,0.36,-0.36,-0.28,-0.80,-0.49,-0.49,-0.49
103.29,-0.13,0.44,-0.13,0.42,-0.42,-0.32,-0.86,-0.55,-0.55,-0.56
104.32,-0.14,0.48,-0.13,0.48,-0.48,-0.37,-0.91,-0.62,-0.62,-0.61
105.37,-0.14,0.54,-0.14,0.54,-0.54,-0.41,-0.96,-0.68,-0.68,-0.67
106.42,-0.15,0.60,-0.14,0.61,-0.61,-0.45,-1.02,-0.75,-0.75,-0.74
107.48,-0.15,0.67,-0.14,0.67,-0.67,-0.50,-1.07,-0.81,-0.81,-0.81
108.56,-0.15,0.74,-0.15,0.73,-0.73,-0.54,-1.12,-0.88,-0.88,-0.88
109.64,-0.16,0.79,-0.15,0.79,-0.79,-0.59,-1.17,-0.95,-0.95,-0.94
110.74,-0.16,0.85,-0.16,0.85,-0.85,-0.63,-1.22,-1.01,-1.01,-1.00
111.85,-0.17,0.91,-0.16,0.92,-0.92,-0.68,-1.26,-1.08,-1.08,-1.07
112.97,-0.18,0.98,-0.17,0.98,-0.98,-0.72,-1.31,-1.16,-1.15,-1.15
114.10,-0.18,1.04,-0.18,1.04,-1.04,-0.77,-1.35,-1.22,-1.22,-1.21
115.24,-0.18,1.11,-0.18,1.10,-1.10,-0.81,-1.39,-1.28,-1.28,-1.28
116.39,-0.19,1.17,-0.19,1.16,-1.16,-0.86,-1.43,-1.35,-1.35,-1.35
117.55,-0.20,1.23,-0.20,1.22,-1.22,-0.91,-1.47,-1.42,-1.41,-1.42
118.73,-0.21,1.28,-0.20,1.28,-1.28,-0.95,-1.51,-1.48,-1.48,-1.48
119.92,-0.21,1.34,-0.21,1.33,-1.33,-1.00,-1.54,-1.54,-1.54,-1.54
121.12,-0.22,1.39,-0.22,1.39,-1.39,-1.05,-1.57,-1.60,-1.60,-1.60
122.33,-0.23,1.45,-0.23,1.44,-1.44,-1.09,-1.60,-1.67,-1.67,-1.67
123.55,-0.24,1.49,-0.23,1.49,-1.49,-1.14,-1.63,-1.73,-1.73,-1.72
124.79,-0.25,1.54,-0.24,1.55,-1.55,-1.19,-1.65,-1.79,-1.79,-1.78
126.03,-0.26,1.58,-0.25,1.59,-1.59,-1.23,-1.67,-1.85,-1.85,-1.83
127.29,-0.27,1.63,-0.26,1.64,-1.64,-1.28,-1.69,-1.91,-1.90,-1.89
128.57,-0.27,1.70,-0.27,1.69,-1.69,-1.33,-1.70,-1.96,-1.96,-1.96
129.85,-0.28,1.74,-0.28,1.73,-1.73,-1.37,-1.72,-2.01,-2.01,-2.01
131.15,-0.29,1.78,-0.29,1.78,-1.78,-1.42,-1.73,-2.06,-2.06,-2.06
132.46,-0.30,1.83,-0.30,1.82,-1.82,-1.47,-1.74,-2.11,-2.12,-2.12
133.79,-0.31,1.86,-0.31,1.86,-1.86,-1.52,-1.74,-2.16,-2.16,-2.16
135.12,-0.32,1.91,-0.32,1.89,-1.89,-1.56,-1.75,-2.21,-2.21,-2.22
136.48,-0.33,1.93,-0.33,1.93,-1.93,-1.61,-1.75,-2.25,-2.25,-2.25
137.84,-0.34,1.96,-0.33,1.96,-1.96,-1.66,-1.76,-2.30,-2.30,-2.29
139.22,-0.35,2.00,-0.34,1.99,-1.99,-1.70,-1.76,-2.34,-2.34,-2.34
140.61,-0.36,2.03,-0.35,2.02,-2.02,-1.75,-1.76,-2.38,-2.37,-2.38
142.02,-0.37,2.04,-0.36,2.04,-2.04,-1.79,-1.76,-2.41,-2.41,-2.40
143.44,-0.38,2.06,-0.37,2.07,-2.07,-1.84,-1.75,-2.44,-2.44,-2.43
144.87,-0.39,2.09,-0.38,2.09,-2.09,-1.88,-1.75,-2.47,-2.47,-2.47
146.32,-0.39,2.12,-0.39,2.11,-2.11,-1.93,-1.75,-2.50,-2.50,-2.50
147.78,-0.41,2.12,-0.40,2.13,-2.13,-1.97,-1.75,-2.53,-2.53,-2.52
149.26,-0.41,2.15,-0.41,2.15,-2.15,-2.01,-1.74,-2.55,-2.56,-2.55
150.75,-0.43,2.17,-0.42,2.16,-2.16,-2.05,-1.74,-2.59,-2.59,-2.59
152.26,-0.44,2.18,-0.43,2.18,-2.18,-2.09,-1.74,-2.62,-2.62,-2.61
153.78,-0.45,2.20,-0.45,2.20,-2.20,-2.14,-1.74,-2.64,-2.64,-2.64
155.32,-0.46,2.21,-0.46,2.21,-2.21,-2.17,-1.73,-2.67,-2.67,-2.66
156.88,-0.47,2.23,-0.47,2.23,-2.23,-2.21,-1.73,-2.69,-2.70,-2.69
158.44,-0.49,2.24,-0.48,2.24,-2.24,-2.25,-1.73,-2.73,-2.72,-2.72
160.03,-0.50,2.26,-0.50,2.25,-2.25,-2.29,-1.73,-2.75,-2.75,-2.75
161.63,-0.52,2.27,-0.51,2.27,-2.27,-2.32,-1.74,-2.78,-2.78,-2.78
163.24,-0.53,2.29,-0.53,2.28,-2.28,-2.35,-1.74,-2.81,-2.81,-2.81
164.88,-0.54,2.30,-0.54,2.29,-2.29,-2.39,-1.74,-2.83,-2.84,-2.83
166.53,-0.56,2.30,-0.56,2.31,-2.31,-2.42,-1.75,-2.86,-2.86,-2.85
168.19,-0.58,2.32,-0.58,2.32,-2.32,-2.45,-1.76,-2.89,-2.89,-2.89
169.87,-0.60,2.33,-0.59,2.33,-2.33,-2.47,-1.77,-2.93,-2.92,-2.92
171.57,-0.61,2.35,-0.61,2.34,-2.34,-2.50,-1.78,-2.95,-2.96,-2.95
173.29,-0.64,2.34,-0.63,2.36,-2.36,-2.52,-1.79,-2.99,-2.99,-2.97
175.02,-0.65,2.37,-0.65,2.37,-2.37,-2.55,-1.80,-3.02,-3.02,-3.01
176.77,-0.67,2.39,-0.67,2.38,-2.38,-2.57,-1.81,-3.05,-3.06,-3.05
178.54,-0.69,2.41,-0.69,2.40,-2.40,-2.59,-1.83,-3.08,-3.09,-3.09
180.32,-0.72,2.41,-0.72,2.41,-2.41,-2.60,-1.85,-3.12,-3.12,-3.12
182.13,-0.74,2.42,-0.74,2.42,-2.42,-2.62,-1.87,-3.16,-3.16,-3.15
183.95,-0.77,2.43,-0.76,2.44,-2.44,-2.63,-1.89,-3.20,-3.19,-3.19
185.79,-0.78,2.46,-0.78,2.45,-2.45,-2.64,-1.91,-3.23,-3.23,-3.23
187.65,-0.80,2.48,-0.79,2.47,-2.47,-2.65,-1.93,-3.26,-3.26,-3.27
189.52,-0.83,2.48,-0.81,2.48,-2.48,-2.66,-1.95,-3.31,-3.29,-3.30
191.42,-0.84,2.49,-0.83,2.49,-2.49,-2.66,-1.98,-3.33,-3.32,-3.32
193.33,-0.85,2.50,-0.85,2.51,-2.51,-2.67,-2.01,-3.35,-3.36,-3.34
195.27,-0.87,2.51,-0.86,2.52,-2.52,-2.67,-2.04,-3.39,-3.38,-3.37
197.22,-0.89,2.52,-0.88,2.53,-2.53,-2.67,-2.06,-3.42,-3.41,-3.40
199.19,-0.89,2.57,-0.89,2.54,-2.54,-2.66,-2.09,-3.43,-3.44,-3.45
201.18,-0.90,2.57,-0.90,2.56,-2.56,-2.66,-2.12,-3.45,-3.46,-3.46
203.19,-0.92,2.57,-0.92,2.57,-2.57,-2.65,-2.16,-3.48,-3.48,-3.48
205.23,-0.94,2.57,-0.93,2.57,-2.57,-2.64,-2.19,-3.51,-3.51,-3.50
207.28,-0.95,2.57,-0.95,2.58,-2.58,-2.63,-2.22,-3.53,-3.53,-3.51
209.35,-0.96,2.59,-0.96,2.58,-2.58,-2.62,-2.25,-3.54,-3.55,-3.54
211.44,-0.97,2.60,-0.98,2.59,-2.59,-2.61,-2.28,-3.55,-3.56,-3.56
213.56,-0.99,2.60,-0.99,2.59,-2.59,-2.59,-2.31,-3.57,-3.58,-3.58
215.69,-1.01,2.58,-1.01,2.58,-2.58,-2.57,-2.35,-3.59,-3.59,-3.58
217.85,-1.04,2.56,-1.03,2.58,-2.58,-2.56,-2.38,-3.61,-3.60,-3.59
220.03,-1.05,2.58,-1.04,2.57,-2.57,-2.54,-2.40,-3.62,-3.61,-3.62
222.23,-1.06,2.58,-1.06,2.56,-2.56,-2.52,-2.43,-3.61,-3.62,-3.63
224.45,-1.08,2.55,-1.08,2.54,-2.54,-2.49,-2.46,-3.62,-3.63,-3.62
226.70,-1.11,2.53,-1.10,2.53,-2.53,-2.47,-2.48,-3.64,-3.63,-3.63
228.96,-1.12,2.52,-1.12,2.51,-2.51,-2.45,-2.51,-3.63,-3.63,-3.63
231.25,-1.14,2.49,-1.13,2.49,-2.49,-2.42,-2.53,-3.63,-3.63,-3.62
233.57,-1.16,2.46,-1.15,2.47,-2.47,-2.39,-2.54,-3.63,-3.62,-3.61
235.90,-1.17,2.45,-1.17,2.45,-2.45,-2.37,-2.56,-3.61,-3.61,-3.61
238.26,-1.18,2.44,-1.18,2.42,-2.42,-2.34,-2.57,-3.60,-3.60,-3.61
240.64,-1.20,2.40,-1.20,2.39,-2.39,-2.31,-2.58,-3.59,-3.59,-3.59
243.05,-1.21,2.37,-1.21,2.37,-2.37,-2.28,-2.58,-3.57,-3.58,-3.57
245.48,-1.23,2.33,-1.22,2.34,-2.34,-2.25,-2.59,-3.56,-3.56,-3.55
247.93,-1.24,2.31,-1.24,2.31,-2.31,-2.22,-2.58,-3.54,-3.54,-3.54
250.41,-1.25,2.29,-1.25,2.28,-2.28,-2.19,-2.58,-3.52,-3.52,-3.53
252.92,-1.26,2.24,-1.26,2.25,-2.25,-2.16,-2.57,-3.50,-3.50,-3.49
255.45,-1.28,2.20,-1.27,2.21,-2.21,-2.12,-2.56,-3.49,-3.48,-3.47
258.00,-1.28,2.18,-1.28,2.18,-2.18,-2.09,-2.54,-3.46,-3.46,-3.45
260.58,-1.29,2.15,-1.29,2.15,-2.15,-2.06,-2.52,-3.44,-3.44,-3.43
263.19,-1.30,2.12,-1.29,2.12,-2.12,-2.03,-2.50,-3.41,-3.41,-3.41
265.82,-1.30,2.10,-1.30,2.09,-2.09,-1.99,-2.47,-3.38,-3.39,-3.39
268.48,-1.31,2.06,-1.31,2.06,-2.06,-1.96,-2.44,-3.36,-3.36,-3.36
271.16,-1.31,2.03,-1.31,2.03,-2.03,-1.93,-2.41,-3.33,-3.34,-3.33
273.87,-1.33,1.99,-1.32,2.00,-2.00,-1.90,-2.38,-3.32,-3.32,-3.31
276.61,-1.33,1.96,-1.32,1.97,-1.97,-1.86,-2.34,-3.29,-3.29,-3.28
279.38,-1.33,1.94,-1.33,1.94,-1.94,-1.83,-2.30,-3.26,-3.27,-3.26
282.17,-1.34,1.91,-1.33,1.91,-1.91,-1.80,-2.26,-3.24,-3.24,-3.24
284.99,-1.34,1.88,-1.34,1.88,-1.88,-1.77,-2.22,-3.21,-3.21,-3.21
287.84,-1.35,1.85,-1.34,1.84,-1.84,-1.73,-2.17,-3.19,-3.19,-3.19
290.72,-1.35,1.81,-1.35,1.81,-1.81,-1.70,-2.13,-3.15,-3.16,-3.15
293.63,-1.36,1.78,-1.36,1.77,-1.77,-1.67,-2.08,-3.13,-3.13,-3.13
296.57,-1.36,1.75,-1.36,1.74,-1.74,-1.64,-2.04,-3.09,-3.10,-3.10
299.53,-1.37,1.71,-1.37,1.70,-1.70,-1.61,-1.99,-3.07,-3.07,-3.07
302.53,-1.38,1.68,-1.38,1.66,-1.66,-1.58,-1.94,-3.04,-3.04,-3.05
305.55,-1.39,1.62,-1.38,1.62,-1.62,-1.55,-1.89,-3.01,-3.01,-3.00
308.61,-1.39,1.59,-1.39,1.58,-1.58,-1.52,-1.84,-2.97,-2.97,-2.97
311.69,-1.40,1.54,-1.40,1.54,-1.54,-1.49,-1.80,-2.94,-2.94,-2.93
314.81,-1.41,1.50,-1.41,1.50,-1.50,-1.46,-1.75,-2.91,-2.91,-2.90
317.96,-1.42,1.46,-1.42,1.46,-1.46,-1.43,-1.70,-2.88,-2.88,-2.87
321.14,-1.43,1.42,-1.43,1.42,-1.42,-1.40,-1.65,-2.85,-2.85,-2.84
324.35,-1.44,1.39,-1.44,1.38,-1.38,-1.38,-1.61,-2.82,-2.82,-2.82
327.59,-1.45,1.34,-1.45,1.34,-1.34,-1.35,-1.56,-2.79,-2.79,-2.78
330.87,-1.46,1.30,-1.46,1.31,-1.31,-1.32,-1.52,-2.76,-2.76,-2.75
334.18,-1.47,1.27,-1.47,1.27,-1.27,-1.29,-1.47,-2.73,-2.73,-2.73
337.52,-1.47,1.25,-1.48,1.23,-1.23,-1.27,-1.43,-2.70,-2.71,-2.71
340.90,-1.49,1.20,-1.49,1.20,-1.20,-1.24,-1.39,-2.68,-2.69,-2.68
344.30,-1.50,1.17,-1.50,1.17,-1.17,-1.22,-1.34,-2.66,-2.66,-2.66
347.75,-1.51,1.13,-1.51,1.14,-1.14,-1.19,-1.30,-2.64,-2.64,-2.63
351.23,-1.52,1.10,-1.52,1.11,-1.11,-1.17,-1.26,-2.62,-2.62,-2.61
354.74,-1.53,1.08,-1.52,1.08,-1.08,-1.14,-1.23,-2.60,-2.60,-2.60
358.28,-1.54,1.05,-1.53,1.05,-1.05,-1.12,-1.19,-2.59,-2.58,-2.58
361.87,-1.54,1.03,-1.54,1.03,-1.03,-1.10,-1.15,-2.56,-2.56,-2.56
365.49,-1.55,0.99,-1.54,1.00,-1.00,-1.07,-1.12,-2.55,-2.54,-2.53
369.14,-1.55,0.98,-1.54,0.98,-0.98,-1.05,-1.08,-2.53,-2.52,-2.52
372.83,-1.55,0.97,-1.54,0.96,-0.96,-1.03,-1.05,-2.51,-2.50,-2.51
376.56,-1.54,0.96,-1.54,0.94,-0.94,-1.01,-1.01,-2.48,-2.48,-2.49
380.33,-1.55,0.92,-1.54,0.92,-0.92,-0.99,-0.98,-2.47,-2.46,-2.46
384.13,-1.54,0.91,-1.54,0.91,-0.91,-0.97,-0.95,-2.44,-2.44,-2.44
387.97,-1.54,0.89,-1.54,0.89,-0.89,-0.95,-0.92,-2.43,-2.42,-2.42
391.85,-1.53,0.88,-1.53,0.87,-0.87,-0.93,-0.89,-2.40,-2.40,-2.40
395.77,-1.53,0.85,-1.53,0.86,-0.86,-0.91,-0.86,-2.38,-2.38,-2.37
399.73,-1.52,0.84,-1.52,0.84,-0.84,-0.89,-0.84,-2.36,-2.36,-2.35
403.72,-1.51,0.84,-1.51,0.83,-0.83,-0.87,-0.81,-2.33,-2.34,-2.34
407.76,-1.51,0.82,-1.50,0.81,-0.81,-0.85,-0.78,-2.32,-2.32,-2.32
411.84,-1.51,0.79,-1.50,0.80,-0.80,-0.84,-0.76,-2.31,-2.29,-2.29
415.96,-1.49,0.79,-1.49,0.79,-0.79,-0.82,-0.73,-2.27,-2.27,-2.27
420.12,-1.48,0.78,-1.47,0.78,-0.78,-0.80,-0.71,-2.25,-2.25,-2.25
424.32,-1.47,0.76,-1.46,0.77,-0.77,-0.78,-0.69,-2.23,-2.23,-2.22
428.56,-1.46,0.75,-1.45,0.75,-0.75,-0.77,-0.67,-2.21,-2.21,-2.20
432.85,-1.45,0.74,-1.44,0.74,-0.74,-0.75,-0.65,-2.19,-2.18,-2.18
437.18,-1.43,0.73,-1.43,0.73,-0.73,-0.74,-0.63,-2.16,-2.16,-2.15
441.55,-1.41,0.72,-1.41,0.72,-0.72,-0.72,-0.61,-2.13,-2.13,-2.12
445.96,-1.39,0.72,-1.40,0.71,-0.71,-0.71,-0.59,-2.09,-2.11,-2.10
450.42,-1.38,0.72,-1.38,0.70,-0.70,-0.69,-0.57,-2.07,-2.08,-2.09
454.93,-1.37,0.69,-1.37,0.68,-0.68,-0.68,-0.55,-2.05,-2.05,-2.05
459.48,-1.36,0.68,-1.36,0.67,-0.67,-0.66,-0.54,-2.03,-2.03,-2.03
464.07,-1.35,0.66,-1.34,0.66,-0.66,-0.65,-0.52,-2.00,-2.00,-2.00
