frequency,raw,error,smoothed,error_smoothed,equalization,parametric_eq,fixed_band_eq,equalized_raw,equalized_smoothed,target
20.00,2.83,-0.13,2.83,-0.13,0.15,-0.37,-0.36,2.98,2.97,2.96
20.20,2.84,-0.15,2.85,-0.14,0.14,-0.38,-0.37,2.98,2.99,2.99
20.40,2.87,-0.15,2.88,-0.14,0.13,-0.38,-0.38,3.00,3.00,3.02
20.61,2.92,-0.12,2.91,-0.13,0.12,-0.39,-0.39,3.03,3.03,3.04
20.81,2.95,-0.12,2.96,-0.11,0.10,-0.40,-0.40,3.05,3.06,3.07
21.02,3.01,-0.09,3.01,-0.08,0.08,-0.41,-0.41,3.09,3.09,3.10
21.23,3.06,-0.05,3.05,-0.06,0.06,-0.41,-0.42,3.12,3.11,3.11
21.44,3.09,-0.03,3.09,-0.03,0.04,-0.42,-0.43,3.13,3.13,3.12
21.66,3.11,-0.02,3.12,-0.00,0.01,-0.43,-0.44,3.12,3.13,3.13
21.87,3.15,0.02,3.15,0.02,-0.02,-0.44,-0.45,3.13,3.13,3.13
22.09,3.19,0.05,3.18,0.05,-0.05,-0.45,-0.47,3.14,3.13,3.14
22.31,3.21,0.07,3.22,0.08,-0.08,-0.45,-0.48,3.13,3.14,3.14
22.54,3.25,0.11,3.25,0.11,-0.11,-0.46,-0.49,3.14,3.13,3.14
22.76,3.28,0.14,3.28,0.15,-0.15,-0.47,-0.51,3.13,3.13,3.14
22.99,3.31,0.18,3.31,0.18,-0.18,-0.48,-0.52,3.13,3.14,3.13
23.22,3.35,0.22,3.34,0.22,-0.21,-0.49,-0.53,3.14,3.13,3.13
23.45,3.37,0.24,3.37,0.25,-0.25,-0.50,-0.55,3.12,3.13,3.13
23.69,3.40,0.27,3.41,0.28,-0.28,-0.51,-0.56,3.12,3.13,3.13
23.92,3.44,0.31,3.44,0.31,-0.31,-0.52,-0.58,3.13,3.12,3.13
24.16,3.47,0.34,3.47,0.34,-0.34,-0.53,-0.59,3.13,3.13,3.13
24.40,3.49,0.36,3.50,0.37,-0.37,-0.54,-0.61,3.12,3.12,3.13
24.65,3.53,0.41,3.52,0.40,-0.40,-0.55,-0.62,3.13,3.12,3.12
24.89,3.54,0.42,3.55,0.43,-0.44,-0.56,-0.64,3.11,3.11,3.12
25.14,3.58,0.46,3.58,0.46,-0.46,-0.57,-0.65,3.12,3.11,3.12
25.39,3.60,0.48,3.60,0.49,-0.49,-0.58,-0.67,3.11,3.11,3.12
25.65,3.63,0.51,3.63,0.52,-0.51,-0.59,-0.68,3.12,3.12,3.12
25.91,3.66,0.55,3.65,0.54,-0.53,-0.60,-0.70,3.13,3.13,3.11
26.16,3.67,0.56,3.67,0.56,-0.55,-0.61,-0.72,3.12,3.12,3.11
26.43,3.67,0.56,3.67,0.56,-0.56,-0.62,-0.73,3.11,3.11,3.11
26.69,3.67,0.56,3.67,0.56,-0.58,-0.63,-0.75,3.10,3.10,3.11
26.96,3.67,0.56,3.68,0.58,-0.59,-0.64,-0.77,3.08,3.09,3.11
27.23,3.70,0.60,3.69,0.59,-0.61,-0.65,-0.78,3.09,3.09,3.10
27.50,3.72,0.62,3.71,0.62,-0.62,-0.67,-0.80,3.10,3.09,3.10
27.77,3.72,0.63,3.73,0.64,-0.64,-0.68,-0.82,3.08,3.09,3.09
28.05,3.75,0.66,3.75,0.66,-0.66,-0.69,-0.83,3.09,3.09,3.09
28.33,3.77,0.69,3.76,0.68,-0.68,-0.70,-0.85,3.09,3.09,3.08
28.62,3.77,0.69,3.79,0.71,-0.70,-0.72,-0.86,3.07,3.09,3.08
28.90,3.81,0.73,3.80,0.73,-0.72,-0.73,-0.88,3.09,3.08,3.08
29.19,3.81,0.74,3.80,0.73,-0.73,-0.74,-0.89,3.08,3.07,3.07
29.48,3.81,0.74,3.82,0.75,-0.75,-0.76,-0.91,3.06,3.06,3.07
29.78,3.81,0.75,3.82,0.76,-0.77,-0.77,-0.92,3.04,3.05,3.06
30.08,3.86,0.80,3.84,0.79,-0.80,-0.78,-0.93,3.06,3.05,3.06
30.38,3.86,0.81,3.87,0.82,-0.83,-0.80,-0.95,3.03,3.05,3.05
30.68,3.91,0.86,3.90,0.86,-0.86,-0.81,-0.96,3.05,3.04,3.05
30.99,3.93,0.89,3.93,0.89,-0.89,-0.82,-0.97,3.04,3.04,3.04
31.30,3.95,0.92,3.96,0.93,-0.93,-0.84,-0.98,3.02,3.03,3.03
31.61,4.00,0.97,3.99,0.97,-0.97,-0.85,-0.99,3.03,3.02,3.03
31.93,4.03,1.01,4.03,1.01,-1.01,-0.87,-1.00,3.02,3.02,3.02
32.24,4.07,1.06,4.07,1.06,-1.05,-0.88,-1.01,3.02,3.01,3.01
32.57,4.09,1.08,4.09,1.09,-1.09,-0.90,-1.02,3.00,3.00,3.01
32.89,4.13,1.13,4.13,1.13,-1.12,-0.92,-1.03,3.01,3.00,3.00
33.22,4.14,1.15,4.15,1.16,-1.16,-0.93,-1.04,2.98,3.00,2.99
33.55,4.19,1.20,4.18,1.19,-1.19,-0.95,-1.05,3.00,2.99,2.99
33.89,4.19,1.21,4.19,1.21,-1.21,-0.96,-1.06,2.98,2.97,2.98
34.23,4.19,1.22,4.20,1.23,-1.23,-0.98,-1.06,2.96,2.96,2.97
34.57,4.19,1.23,4.20,1.24,-1.25,-1.00,-1.07,2.94,2.95,2.96
34.92,4.22,1.27,4.22,1.27,-1.27,-1.01,-1.08,2.95,2.95,2.95
35.27,4.23,1.29,4.23,1.29,-1.28,-1.03,-1.09,2.95,2.95,2.94
35.62,4.23,1.30,4.23,1.30,-1.28,-1.05,-1.09,2.95,2.94,2.93
35.97,4.21,1.29,4.21,1.29,-1.29,-1.07,-1.10,2.92,2.92,2.92
36.33,4.19,1.28,4.20,1.29,-1.30,-1.08,-1.11,2.89,2.90,2.91
36.70,4.19,1.29,4.19,1.29,-1.30,-1.10,-1.12,2.89,2.89,2.90
37.06,4.19,1.30,4.19,1.30,-1.31,-1.12,-1.13,2.88,2.88,2.89
37.43,4.19,1.31,4.19,1.31,-1.31,-1.14,-1.14,2.88,2.88,2.88
37.81,4.19,1.32,4.19,1.32,-1.32,-1.16,-1.15,2.87,2.87,2.87
38.19,4.19,1.33,4.19,1.33,-1.34,-1.18,-1.16,2.85,2.85,2.86
38.57,4.19,1.34,4.20,1.35,-1.35,-1.20,-1.17,2.84,2.84,2.85
38.95,4.20,1.36,4.21,1.37,-1.37,-1.22,-1.18,2.83,2.83,2.84
39.34,4.23,1.41,4.22,1.40,-1.40,-1.24,-1.19,2.84,2.82,2.82
39.74,4.23,1.42,4.23,1.42,-1.42,-1.26,-1.20,2.81,2.81,2.81
40.14,4.23,1.43,4.24,1.44,-1.44,-1.28,-1.22,2.79,2.79,2.80
40.54,4.23,1.44,4.25,1.46,-1.46,-1.30,-1.23,2.77,2.78,2.79
40.94,4.28,1.50,4.26,1.49,-1.48,-1.32,-1.25,2.80,2.78,2.78
41.35,4.28,1.51,4.28,1.51,-1.50,-1.34,-1.26,2.78,2.78,2.77
41.76,4.28,1.52,4.29,1.53,-1.52,-1.36,-1.28,2.76,2.77,2.76
42.18,4.28,1.53,4.28,1.53,-1.53,-1.38,-1.30,2.75,2.75,2.75
42.60,4.28,1.54,4.28,1.54,-1.55,-1.41,-1.32,2.73,2.73,2.74
43.03,4.28,1.55,4.28,1.56,-1.56,-1.43,-1.34,2.72,2.72,2.73
43.46,4.28,1.57,4.28,1.57,-1.58,-1.45,-1.36,2.70,2.70,2.71
43.90,4.28,1.59,4.28,1.59,-1.60,-1.47,-1.38,2.69,2.69,2.69
44.33,4.28,1.61,4.28,1.61,-1.61,-1.50,-1.40,2.67,2.67,2.67
44.78,4.28,1.63,4.28,1.63,-1.63,-1.52,-1.42,2.65,2.65,2.65
45.23,4.28,1.65,4.28,1.65,-1.65,-1.54,-1.45,2.63,2.63,2.63
45.68,4.28,1.66,4.28,1.67,-1.66,-1.57,-1.47,2.62,2.62,2.62
46.13,4.28,1.68,4.28,1.68,-1.68,-1.59,-1.50,2.60,2.60,2.60
46.60,4.28,1.69,4.28,1.70,-1.70,-1.62,-1.53,2.58,2.58,2.59
47.06,4.28,1.71,4.28,1.71,-1.71,-1.64,-1.56,2.57,2.57,2.57
47.53,4.28,1.73,4.28,1.73,-1.73,-1.67,-1.59,2.55,2.55,2.55
48.01,4.28,1.74,4.28,1.75,-1.76,-1.69,-1.62,2.53,2.53,2.54
48.49,4.28,1.77,4.28,1.77,-1.78,-1.72,-1.65,2.50,2.50,2.51
48.97,4.28,1.80,4.28,1.80,-1.81,-1.74,-1.68,2.47,2.47,2.48
49.46,4.28,1.83,4.28,1.83,-1.83,-1.77,-1.71,2.45,2.45,2.45
49.96,4.28,1.86,4.28,1.86,-1.86,-1.79,-1.75,2.42,2.42,2.42
50.46,4.28,1.88,4.28,1.88,-1.88,-1.82,-1.78,2.40,2.40,2.40
50.96,4.28,1.90,4.29,1.91,-1.90,-1.85,-1.82,2.38,2.38,2.38
51.47,4.28,1.93,4.28,1.93,-1.92,-1.87,-1.85,2.36,2.36,2.35
51.99,4.28,1.95,4.26,1.94,-1.93,-1.90,-1.89,2.35,2.33,2.33
52.51,4.23,1.92,4.25,1.95,-1.94,-1.93,-1.93,2.29,2.31,2.31
53.03,4.23,1.94,4.23,1.95,-1.95,-1.96,-1.96,2.28,2.28,2.29
53.56,4.23,1.97,4.21,1.95,-1.96,-1.98,-2.00,2.27,2.25,2.26
54.10,4.19,1.95,4.20,1.97,-1.97,-2.01,-2.04,2.22,2.23,2.24
54.64,4.19,1.98,4.19,1.98,-1.99,-2.04,-2.08,2.20,2.20,2.21
55.18,4.19,2.00,4.19,2.00,-2.01,-2.07,-2.11,2.18,2.18,2.19
55.74,4.19,2.03,4.19,2.03,-2.03,-2.10,-2.15,2.16,2.16,2.16
56.29,4.19,2.05,4.19,2.05,-2.05,-2.13,-2.19,2.14,2.14,2.14
56.86,4.19,2.07,4.19,2.08,-2.07,-2.16,-2.22,2.12,2.12,2.12
57.42,4.19,2.10,4.19,2.10,-2.10,-2.19,-2.26,2.10,2.10,2.09
58.00,4.19,2.12,4.19,2.12,-2.12,-2.21,-2.29,2.07,2.07,2.07
58.58,4.19,2.14,4.19,2.14,-2.14,-2.24,-2.33,2.05,2.05,2.05
59.16,4.19,2.16,4.19,2.16,-2.16,-2.28,-2.36,2.03,2.03,2.03
59.76,4.19,2.18,4.19,2.19,-2.19,-2.31,-2.39,2.00,2.00,2.01
60.35,4.19,2.21,4.19,2.21,-2.22,-2.34,-2.42,1.97,1.97,1.98
60.96,4.19,2.24,4.19,2.24,-2.25,-2.37,-2.45,1.94,1.93,1.95
61.57,4.19,2.28,4.19,2.28,-2.29,-2.40,-2.48,1.90,1.90,1.91
62.18,4.19,2.31,4.20,2.32,-2.33,-2.43,-2.51,1.86,1.87,1.88
62.80,4.22,2.37,4.21,2.37,-2.36,-2.46,-2.53,1.86,1.85,1.85
63.43,4.23,2.41,4.23,2.41,-2.39,-2.49,-2.56,1.84,1.83,1.82
64.07,4.23,2.44,4.24,2.44,-2.43,-2.53,-2.58,1.81,1.81,1.79
64.71,4.23,2.46,4.23,2.46,-2.45,-2.56,-2.61,1.78,1.77,1.77
65.35,4.22,2.48,4.21,2.48,-2.48,-2.59,-2.63,1.74,1.74,1.74
66.01,4.19,2.48,4.20,2.49,-2.50,-2.62,-2.65,1.69,1.70,1.71
66.67,4.19,2.51,4.19,2.51,-2.52,-2.66,-2.67,1.67,1.67,1.68
67.33,4.19,2.54,4.19,2.54,-2.55,-2.69,-2.69,1.64,1.64,1.65
68.01,4.19,2.57,4.19,2.57,-2.58,-2.72,-2.71,1.62,1.61,1.62
68.69,4.19,2.60,4.19,2.61,-2.61,-2.76,-2.73,1.58,1.58,1.59
69.37,4.19,2.63,4.20,2.65,-2.65,-2.79,-2.75,1.54,1.56,1.56
70.07,4.23,2.70,4.21,2.68,-2.69,-2.83,-2.77,1.54,1.52,1.53
70.77,4.23,2.73,4.23,2.73,-2.74,-2.86,-2.79,1.49,1.49,1.50
71.48,4.23,2.76,4.25,2.79,-2.78,-2.89,-2.81,1.45,1.47,1.47
72.19,4.28,2.85,4.26,2.83,-2.83,-2.93,-2.83,1.45,1.43,1.43
72.91,4.28,2.88,4.28,2.88,-2.87,-2.97,-2.85,1.41,1.40,1.40
73.64,4.28,2.92,4.29,2.93,-2.92,-3.00,-2.87,1.37,1.37,1.36
74.38,4.28,2.95,4.28,2.96,-2.95,-3.04,-2.89,1.33,1.33,1.33
75.12,4.28,2.99,4.28,2.99,-2.99,-3.07,-2.92,1.29,1.29,1.29
75.87,4.28,3.02,4.28,3.02,-3.02,-3.11,-2.94,1.26,1.26,1.26
76.63,4.28,3.05,4.28,3.05,-3.05,-3.15,-2.97,1.23,1.23,1.23
77.40,4.28,3.08,4.28,3.09,-3.09,-3.18,-3.00,1.19,1.19,1.20
78.17,4.28,3.12,4.28,3.11,-3.13,-3.22,-3.03,1.16,1.15,1.16
78.95,4.28,3.15,4.28,3.16,-3.17,-3.26,-3.06,1.11,1.12,1.13
79.74,4.28,3.18,4.30,3.20,-3.21,-3.29,-3.10,1.07,1.09,1.10
80.54,4.33,3.27,4.31,3.25,-3.26,-3.33,-3.14,1.08,1.06,1.06
81.35,4.33,3.30,4.33,3.31,-3.30,-3.37,-3.18,1.03,1.03,1.03
82.16,4.34,3.35,4.35,3.36,-3.35,-3.41,-3.22,0.99,1.00,0.99
82.98,4.37,3.41,4.36,3.41,-3.40,-3.45,-3.26,0.97,0.96,0.96
83.81,4.37,3.45,4.37,3.45,-3.44,-3.49,-3.31,0.93,0.93,0.92
84.65,4.37,3.49,4.37,3.49,-3.49,-3.53,-3.36,0.88,0.88,0.88
85.50,4.37,3.52,4.37,3.53,-3.54,-3.57,-3.41,0.83,0.84,0.85
86.35,4.37,3.56,4.39,3.58,-3.59,-3.61,-3.46,0.78,0.80,0.81
87.22,4.42,3.65,4.40,3.63,-3.64,-3.65,-3.52,0.78,0.77,0.77
88.09,4.42,3.69,4.42,3.69,-3.69,-3.69,-3.58,0.73,0.73,0.73
88.97,4.42,3.73,4.43,3.75,-3.75,-3.73,-3.64,0.67,0.69,0.69
89.86,4.44,3.79,4.44,3.80,-3.81,-3.77,-3.71,0.64,0.64,0.65
90.76,4.47,3.87,4.46,3.86,-3.86,-3.81,-3.78,0.61,0.60,0.60
91.66,4.47,3.91,4.48,3.93,-3.92,-3.85,-3.85,0.55,0.56,0.56
92.58,4.51,4.00,4.50,3.99,-3.98,-3.90,-3.92,0.53,0.52,0.51
93.51,4.51,4.04,4.51,4.04,-4.03,-3.94,-4.00,0.48,0.48,0.47
94.44,4.51,4.08,4.51,4.09,-4.08,-3.98,-4.07,0.43,0.43,0.43
95.39,4.51,4.13,4.51,4.13,-4.13,-4.03,-4.15,0.38,0.38,0.38
96.34,4.51,4.18,4.51,4.18,-4.19,-4.07,-4.24,0.32,0.32,0.33
97.30,4.51,4.23,4.51,4.23,-4.24,-4.12,-4.32,0.27,0.27,0.28
98.28,4.51,4.28,4.51,4.28,-4.29,-4.16,-4.41,0.22,0.22,0.23
99.26,4.51,4.32,4.52,4.34,-4.35,-4.21,-4.50,0.16,0.17,0.19
100.25,4.54,4.40,4.54,4.40,-4.40,-4.25,-4.59,0.14,0.14,0.14
101.25,4.56,4.47,4.55,4.47,-4.45,-4.30,-4.68,0.11,0.10,0.09
102.27,4.56,4.52,4.56,4.53,-4.50,-4.34,-4.78,0.06,0.06,0.04
103.29,4.56,4.57,4.56,4.57,-4.55,-4.39,-4.87,0.01,0.01,-0.01
104.32,4.55,4.60,4.54,4.60,-4.60,-4.44,-4.97,-0.05,-0.06,-0.05
105.37,4.52,4.62,4.53,4.63,-4.64,-4.49,-5.06,-0.12,-0.11,-0.10
106.42,4.51,4.66,4.51,4.67,-4.68,-4.53,-5.15,-0.17,-0.16,-0.15
107.48,4.51,4.71,4.51,4.71,-4.72,-4.58,-5.25,-0.21,-0.21,-0.20
108.56,4.51,4.76,4.51,4.76,-4.76,-4.63,-5.34,-0.25,-0.25,-0.25
109.64,4.51,4.81,4.50,4.80,-4.80,-4.68,-5.43,-0.29,-0.30,-0.30
110.74,4.47,4.82,4.48,4.84,-4.84,-4.73,-5.52,-0.37,-0.36,-0.35
111.85,4.47,4.87,4.47,4.88,-4.89,-4.78,-5.60,-0.42,-0.41,-0.40
112.97,4.47,4.93,4.47,4.93,-4.93,-4.83,-5.69,-0.46,-0.46,-0.46
114.10,4.47,4.98,4.47,4.98,-4.98,-4.88,-5.76,-0.51,-0.51,-0.51
115.24,4.47,5.04,4.45,5.02,-5.02,-4.92,-5.84,-0.55,-0.57,-0.57
116.39,4.42,5.04,4.44,5.06,-5.06,-4.97,-5.90,-0.64,-0.63,-0.62
117.55,4.42,5.10,4.43,5.11,-5.11,-5.02,-5.97,-0.69,-0.68,-0.68
118.73,4.42,5.15,4.42,5.15,-5.15,-5.08,-6.02,-0.73,-0.73,-0.73
119.92,4.42,5.20,4.41,5.19,-5.19,-5.13,-6.07,-0.77,-0.78,-0.78
121.12,4.39,5.22,4.39,5.23,-5.23,-5.18,-6.11,-0.84,-0.83,-0.83
122.33,4.37,5.25,4.38,5.26,-5.27,-5.23,-6.15,-0.90,-0.88,-0.88
123.55,4.37,5.30,4.37,5.30,-5.30,-5.28,-6.17,-0.93,-0.94,-0.93
124.79,4.37,5.35,4.36,5.34,-5.34,-5.33,-6.19,-0.97,-0.98,-0.98
126.03,4.34,5.37,4.35,5.38,-5.38,-5.38,-6.20,-1.04,-1.03,-1.03
127.29,4.33,5.41,4.33,5.42,-5.42,-5.42,-6.21,-1.09,-1.08,-1.08
128.57,4.33,5.47,4.31,5.45,-5.45,-5.47,-6.20,-1.12,-1.14,-1.14
129.85,4.29,5.48,4.30,5.49,-5.49,-5.52,-6.19,-1.20,-1.19,-1.19
131.15,4.28,5.52,4.29,5.53,-5.53,-5.57,-6.17,-1.25,-1.25,-1.24
132.46,4.28,5.57,4.28,5.57,-5.58,-5.62,-6.15,-1.29,-1.30,-1.29
133.79,4.28,5.61,4.28,5.62,-5.62,-5.67,-6.12,-1.34,-1.34,-1.33
135.12,4.28,5.66,4.28,5.66,-5.67,-5.71,-6.08,-1.39,-1.39,-1.38
136.48,4.28,5.70,4.28,5.71,-5.71,-5.76,-6.04,-1.43,-1.43,-1.42
137.84,4.28,5.75,4.28,5.76,-5.76,-5.80,-5.99,-1.48,-1.48,-1.47
139.22,4.28,5.80,4.28,5.80,-5.80,-5.84,-5.94,-1.52,-1.52,-1.52
140.61,4.28,5.84,4.29,5.85,-5.83,-5.89,-5.89,-1.55,-1.55,-1.56
142.02,4.28,5.87,4.28,5.88,-5.86,-5.93,-5.83,-1.58,-1.58,-1.59
143.44,4.28,5.91,4.26,5.90,-5.88,-5.97,-5.77,-1.60,-1.61,-1.63
144.87,4.23,5.90,4.23,5.91,-5.90,-6.00,-5.71,-1.67,-1.66,-1.67
146.32,4.19,5.90,4.20,5.91,-5.91,-6.04,-5.65,-1.72,-1.72,-1.71
147.78,4.16,5.90,4.16,5.91,-5.93,-6.08,-5.59,-1.77,-1.77,-1.74
149.26,4.14,5.92,4.14,5.92,-5.94,-6.11,-5.53,-1.80,-1.80,-1.78
150.75,4.12,5.94,4.13,5.95,-5.96,-6.14,-5.46,-1.84,-1.83,-1.82
152.26,4.12,5.98,4.12,5.98,-5.98,-6.17,-5.40,-1.86,-1.86,-1.86
153.78,4.12,6.02,4.11,6.01,-6.01,-6.20,-5.34,-1.89,-1.90,-1.90
155.32,4.10,6.04,4.11,6.05,-6.04,-6.22,-5.29,-1.94,-1.94,-1.94
156.88,4.09,6.07,4.09,6.08,-6.07,-6.24,-5.23,-1.98,-1.98,-1.98
158.44,4.09,6.11,4.08,6.10,-6.10,-6.26,-5.18,-2.01,-2.02,-2.02
160.03,4.06,6.12,4.07,6.13,-6.13,-6.28,-5.12,-2.07,-2.06,-2.06
161.63,4.05,6.15,4.05,6.16,-6.15,-6.30,-5.08,-2.09,-2.09,-2.10
163.24,4.04,6.18,4.03,6.17,-6.16,-6.31,-5.03,-2.12,-2.13,-2.14
164.88,4.00,6.17,4.00,6.18,-6.17,-6.32,-4.99,-2.17,-2.18,-2.17
166.53,3.95,6.16,3.97,6.18,-6.19,-6.32,-4.95,-2.23,-2.22,-2.21
168.19,3.94,6.19,3.93,6.19,-6.20,-6.33,-4.91,-2.26,-2.26,-2.25
169.87,3.91,6.20,3.91,6.20,-6.21,-6.33,-4.88,-2.30,-2.30,-2.29
171.57,3.88,6.21,3.88,6.21,-6.21,-6.33,-4.85,-2.33,-2.33,-2.33
173.29,3.86,6.22,3.86,6.22,-6.22,-6.32,-4.83,-2.36,-2.37,-2.36
175.02,3.82,6.22,3.83,6.23,-6.23,-6.31,-4.81,-2.41,-2.40,-2.40
176.77,3.81,6.25,3.80,6.25,-6.24,-6.30,-4.79,-2.43,-2.44,-2.44
178.54,3.77,6.25,3.77,6.25,-6.25,-6.29,-4.77,-2.48,-2.48,-2.48
180.32,3.73,6.25,3.73,6.25,-6.25,-6.27,-4.76,-2.52,-2.52,-2.52
182.13,3.69,6.24,3.70,6.25,-6.25,-6.25,-4.76,-2.56,-2.56,-2.55
183.95,3.66,6.25,3.66,6.25,-6.25,-6.22,-4.75,-2.59,-2.60,-2.59
185.79,3.63,6.25,3.62,6.25,-6.25,-6.20,-4.75,-2.62,-2.63,-2.62
187.65,3.58,6.24,3.59,6.25,-6.25,-6.17,-4.76,-2.67,-2.66,-2.66
189.52,3.55,6.24,3.55,6.24,-6.24,-6.14,-4.77,-2.69,-2.69,-2.69
191.42,3.52,6.24,3.51,6.23,-6.23,-6.10,-4.78,-2.71,-2.72,-2.72
193.33,3.46,6.21,3.47,6.22,-6.22,-6.06,-4.79,-2.76,-2.75,-2.75
195.27,3.42,6.20,3.42,6.21,-6.21,-6.02,-4.81,-2.79,-2.79,-2.78
197.22,3.38,6.19,3.37,6.19,-6.19,-5.98,-4.82,-2.81,-2.82,-2.81
199.19,3.32,6.16,3.33,6.17,-6.17,-5.93,-4.85,-2.85,-2.84,-2.84
201.18,3.28,6.14,3.28,6.14,-6.14,-5.89,-4.87,-2.86,-2.86,-2.86
203.19,3.23,6.11,3.22,6.11,-6.10,-5.84,-4.90,-2.87,-2.88,-2.88
205.23,3.16,6.06,3.17,6.06,-6.05,-5.78,-4.92,-2.89,-2.89,-2.90
207.28,3.09,6.00,3.09,6.01,-6.00,-5.73,-4.95,-2.91,-2.90,-2.91
209.35,3.02,5.95,3.01,5.95,-5.93,-5.68,-4.98,-2.91,-2.92,-2.93
211.44,2.92,5.87,2.92,5.87,-5.87,-5.62,-5.01,-2.95,-2.94,-2.95
213.56,2.83,5.79,2.83,5.79,-5.80,-5.56,-5.04,-2.97,-2.97,-2.96
215.69,2.73,5.69,2.74,5.70,-5.73,-5.50,-5.07,-3.00,-2.99,-2.96
217.85,2.66,5.63,2.66,5.63,-5.66,-5.44,-5.11,-3.00,-3.00,-2.97
220.03,2.59,5.57,2.60,5.58,-5.59,-5.37,-5.13,-3.00,-2.99,-2.98
222.23,2.54,5.53,2.54,5.53,-5.52,-5.31,-5.16,-2.98,-2.98,-2.99
224.45,2.48,5.47,2.47,5.47,-5.44,-5.24,-5.19,-2.96,-2.97,-2.99
226.70,2.39,5.38,2.40,5.39,-5.37,-5.18,-5.21,-2.98,-2.97,-2.99
228.96,2.32,5.31,2.31,5.30,-5.30,-5.11,-5.23,-2.98,-2.99,-2.99
231.25,2.22,5.20,2.22,5.21,-5.22,-5.04,-5.25,-3.00,-3.00,-2.98
233.57,2.12,5.10,2.14,5.12,-5.14,-4.97,-5.26,-3.02,-3.00,-2.98
235.90,2.07,5.05,2.06,5.04,-5.05,-4.91,-5.27,-2.98,-2.99,-2.98
238.26,1.99,4.96,1.99,4.96,-4.95,-4.84,-5.27,-2.96,-2.96,-2.97
240.64,1.91,4.87,1.92,4.88,-4.86,-4.77,-5.27,-2.94,-2.94,-2.96
243.05,1.83,4.78,1.82,4.78,-4.76,-4.70,-5.26,-2.93,-2.94,-2.95
245.48,1.73,4.67,1.73,4.67,-4.67,-4.63,-5.25,-2.94,-2.94,-2.94
247.93,1.62,4.55,1.63,4.56,-4.58,-4.56,-5.23,-2.96,-2.95,-2.93
250.41,1.53,4.45,1.53,4.45,-4.48,-4.49,-5.20,-2.95,-2.95,-2.92
252.92,1.46,4.36,1.47,4.37,-4.39,-4.42,-5.17,-2.93,-2.92,-2.90
255.45,1.41,4.29,1.41,4.30,-4.30,-4.35,-5.13,-2.89,-2.88,-2.88
258.00,1.37,4.24,1.36,4.23,-4.21,-4.28,-5.09,-2.83,-2.84,-2.87
260.58,1.29,4.14,1.29,4.14,-4.12,-4.21,-5.04,-2.83,-2.83,-2.85
263.19,1.22,4.05,1.21,4.05,-4.03,-4.14,-4.98,-2.81,-2.82,-2.83
265.82,1.11,3.92,1.13,3.94,-3.95,-4.07,-4.92,-2.84,-2.82,-2.81
268.48,1.06,3.85,1.06,3.85,-3.87,-4.00,-4.86,-2.81,-2.81,-2.79
271.16,0.99,3.76,0.99,3.77,-3.79,-3.94,-4.78,-2.79,-2.79,-2.77
273.87,0.95,3.70,0.95,3.70,-3.71,-3.87,-4.71,-2.76,-2.76,-2.75
276.61,0.90,3.63,0.90,3.63,-3.63,-3.80,-4.63,-2.73,-2.73,-2.73
279.38,0.86,3.57,0.86,3.57,-3.57,-3.74,-4.55,-2.71,-2.71,-2.71
282.17,0.81,3.50,0.81,3.51,-3.50,-3.67,-4.46,-2.69,-2.69,-2.69
284.99,0.78,3.45,0.77,3.45,-3.44,-3.61,-4.37,-2.66,-2.67,-2.67
287.84,0.72,3.37,0.73,3.38,-3.38,-3.54,-4.28,-2.66,-2.65,-2.65
290.72,0.69,3.32,0.69,3.32,-3.32,-3.48,-4.19,-2.63,-2.63,-2.63
293.63,0.64,3.25,0.64,3.26,-3.26,-3.42,-4.10,-2.62,-2.62,-2.61
296.57,0.61,3.20,0.60,3.20,-3.20,-3.35,-4.00,-2.59,-2.59,-2.59
299.53,0.55,3.12,0.56,3.13,-3.13,-3.29,-3.91,-2.58,-2.57,-2.57
302.53,0.52,3.07,0.52,3.07,-3.06,-3.23,-3.81,-2.54,-2.55,-2.55
305.55,0.47,2.99,0.47,3.00,-2.99,-3.17,-3.72,-2.52,-2.52,-2.52
308.61,0.43,2.93,0.43,2.93,-2.92,-3.11,-3.62,-2.49,-2.49,-2.50
311.69,0.37,2.84,0.37,2.84,-2.84,-3.06,-3.53,-2.47,-2.47,-2.47
314.81,0.31,2.75,0.31,2.76,-2.76,-3.00,-3.43,-2.45,-2.44,-2.44
317.96,0.25,2.67,0.25,2.67,-2.67,-2.94,-3.34,-2.42,-2.42,-2.42
321.14,0.19,2.59,0.19,2.59,-2.58,-2.89,-3.25,-2.39,-2.40,-2.40
324.35,0.12,2.50,0.12,2.50,-2.50,-2.83,-3.16,-2.38,-2.38,-2.38
327.59,0.06,2.42,0.05,2.42,-2.42,-2.78,-3.07,-2.36,-2.36,-2.36
330.87,-0.02,2.32,-0.01,2.33,-2.34,-2.72,-2.98,-2.36,-2.35,-2.34
334.18,-0.06,2.26,-0.06,2.26,-2.28,-2.67,-2.90,-2.34,-2.34,-2.32
337.52,-0.10,2.20,-0.10,2.20,-2.21,-2.62,-2.81,-2.31,-2.32,-2.30
340.90,-0.13,2.15,-0.13,2.16,-2.16,-2.57,-2.73,-2.29,-2.29,-2.28
344.30,-0.15,2.11,-0.14,2.12,-2.11,-2.52,-2.65,-2.26,-2.26,-2.26
347.75,-0.15,2.09,-0.16,2.08,-2.07,-2.47,-2.57,-2.22,-2.23,-2.24
351.23,-0.17,2.05,-0.17,2.05,-2.04,-2.42,-2.49,-2.21,-2.22,-2.22
354.74,-0.20,2.00,-0.19,2.02,-2.02,-2.37,-2.42,-2.22,-2.21,-2.20
358.28,-0.20,1.99,-0.20,1.99,-2.00,-2.32,-2.34,-2.20,-2.20,-2.19
361.87,-0.20,1.97,-0.20,1.97,-1.98,-2.28,-2.27,-2.18,-2.18,-2.17
365.49,-0.20,1.95,-0.19,1.96,-1.97,-2.23,-2.20,-2.17,-2.16,-2.15
369.14,-0.17,1.97,-0.18,1.96,-1.96,-2.19,-2.14,-2.13,-2.14,-2.14
372.83,-0.17,1.95,-0.16,1.96,-1.95,-2.14,-2.07,-2.12,-2.12,-2.12
376.56,-0.15,1.96,-0.16,1.95,-1.95,-2.10,-2.00,-2.10,-2.11,-2.11
380.33,-0.15,1.94,-0.15,1.95,-1.95,-2.06,-1.94,-2.10,-2.10,-2.09
384.13,-0.15,1.93,-0.13,1.95,-1.95,-2.01,-1.88,-2.10,-2.08,-2.08
387.97,-0.10,1.97,-0.12,1.95,-1.96,-1.97,-1.82,-2.05,-2.07,-2.07
391.85,-0.10,1.96,-0.10,1.96,-1.96,-1.93,-1.76,-2.06,-2.06,-2.06
395.77,-0.09,1.95,-0.08,1.97,-1.96,-1.89,-1.71,-2.05,-2.04,-2.04
399.73,-0.06,1.97,-0.07,1.96,-1.97,-1.85,-1.65,-2.03,-2.04,-2.03
403.72,-0.06,1.96,-0.05,1.97,-1.97,-1.81,-1.60,-2.03,-2.03,-2.02
407.76,-0.04,1.97,-0.03,1.98,-1.98,-1.78,-1.55,-2.02,-2.01,-2.01
411.84,-0.01,1.99,-0.02,1.98,-1.98,-1.74,-1.50,-1.99,-2.00,-2.00
415.96,-0.01,1.98,-0.01,1.98,-1.98,-1.70,-1.45,-1.99,-1.99,-1.99
420.12,-0.01,1.97,-0.01,1.98,-1.98,-1.66,-1.40,-1.98,-1.98,-1.98
424.32,-0.01,1.96,-0.01,1.96,-1.97,-1.63,-1.36,-1.98,-1.98,-1.97
428.56,-0.01,1.95,-0.01,1.95,-1.96,-1.59,-1.31,-1.97,-1.97,-1.96
432.85,-0.01,1.94,-0.00,1.95,-1.94,-1.56,-1.27,-1.95,-1.95,-1.95
437.18,-0.01,1.93,-0.01,1.93,-1.92,-1.52,-1.23,-1.93,-1.93,-1.94
441.55,-0.01,1.91,-0.02,1.90,-1.90,-1.49,-1.19,-1.90,-1.92,-1.92
445.96,-0.06,1.85,-0.04,1.87,-1.87,-1.46,-1.15,-1.93,-1.91,-1.91
450.42,-0.06,1.84,-0.07,1.83,-1.84,-1.42,-1.12,-1.90,-1.90,-1.90
454.93,-0.10,1.78,-0.09,1.80,-1.80,-1.39,-1.08,-1.90,-1.89,-1.88
459.48,-0.10,1.77,-0.11,1.76,-1.77,-1.36,-1.05,-1.86,-1.87,-1.87
464.07,-0.14,1.72,-0.13,1.73,-1.73,-1.33,-1.02,-1.87,-1.86,-1.86
468.71,-0.15,1.69,-0.15,1.69,-1.69,-1.30,-0.99,-1.84,-1.84,-1.84
473.40,-0.17,1.66,-0.17,1.66,-1.66,-1.27,-0.96,-1.83,-1.83,-1.83
478.13,-0.20,1.61,-0.19,1.62,-1.63,-1.24,-0.93,-1.82,-1.82,-1.81
482.91,-0.20,1.60,-0.21,1.59,-1.59,-1.21,-0.90,-1.79,-1.81,-1.80
487.74,-0.24,1.54,-0.23,1.56,-1.56,-1.18,-0.88,-1.80,-1.79,-1.78
492.62,-0.24,1.52,-0.24,1.53,-1.53,-1.15,-0.85,-1.77,-1.77,-1.76
497.55,-0.24,1.51,-0.25,1.50,-1.50,-1.12,-0.83,-1.74,-1.75,-1.75
