frequency,raw,error,smoothed,error_smoothed,equalization,parametric_eq,fixed_band_eq,equalized_raw,equalized_smoothed,target
20.00,-8.47,-8.42,-8.46,-8.44,8.44,8.10,2.27,-0.03,-0.02,-0.05
20.20,-8.39,-8.34,-8.39,-8.36,8.36,8.01,2.33,-0.03,-0.03,-0.05
20.40,-8.32,-8.27,-8.31,-8.27,8.27,7.91,2.40,-0.04,-0.04,-0.05
20.61,-8.24,-8.19,-8.24,-8.19,8.19,7.82,2.47,-0.05,-0.05,-0.05
20.81,-8.16,-8.11,-8.16,-8.10,8.10,7.72,2.54,-0.06,-0.06,-0.05
21.02,-8.09,-8.04,-8.08,-8.01,8.01,7.63,2.61,-0.07,-0.07,-0.05
21.23,-8.00,-7.93,-8.01,-7.92,7.92,7.53,2.68,-0.07,-0.08,-0.07
21.44,-7.93,-7.85,-7.93,-7.83,7.83,7.44,2.76,-0.09,-0.10,-0.08
21.66,-7.85,-7.75,-7.85,-7.74,7.74,7.34,2.84,-0.11,-0.11,-0.10
21.87,-7.78,-7.66,-7.77,-7.65,7.65,7.24,2.92,-0.13,-0.13,-0.12
22.09,-7.69,-7.56,-7.70,-7.55,7.55,7.15,3.01,-0.13,-0.14,-0.13
22.31,-7.62,-7.45,-7.62,-7.46,7.46,7.05,3.09,-0.16,-0.16,-0.16
22.54,-7.55,-7.37,-7.54,-7.36,7.36,6.95,3.18,-0.19,-0.18,-0.18
22.76,-7.47,-7.26,-7.47,-7.26,7.26,6.86,3.27,-0.20,-0.20,-0.20
22.99,-7.39,-7.15,-7.39,-7.16,7.16,6.76,3.36,-0.23,-0.23,-0.23
23.22,-7.32,-7.05,-7.31,-7.06,7.06,6.66,3.46,-0.26,-0.25,-0.26
23.45,-7.23,-6.94,-7.23,-6.96,6.96,6.57,3.55,-0.27,-0.27,-0.28
23.69,-7.16,-6.86,-7.15,-6.86,6.86,6.47,3.65,-0.30,-0.29,-0.29
23.92,-7.07,-6.75,-7.07,-6.76,6.76,6.38,3.75,-0.31,-0.31,-0.32
24.16,-6.99,-6.66,-6.99,-6.66,6.66,6.28,3.85,-0.33,-0.33,-0.33
24.40,-6.92,-6.57,-6.91,-6.55,6.55,6.19,3.95,-0.36,-0.35,-0.35
24.65,-6.83,-6.46,-6.82,-6.45,6.45,6.10,4.06,-0.38,-0.37,-0.37
24.89,-6.75,-6.36,-6.74,-6.35,6.35,6.00,4.16,-0.39,-0.39,-0.39
25.14,-6.66,-6.26,-6.66,-6.25,6.25,5.91,4.27,-0.41,-0.41,-0.40
25.39,-6.57,-6.14,-6.57,-6.15,6.15,5.82,4.38,-0.42,-0.42,-0.42
25.65,-6.49,-6.05,-6.49,-6.05,6.05,5.73,4.48,-0.44,-0.44,-0.43
25.91,-6.40,-5.94,-6.40,-5.95,5.95,5.64,4.59,-0.45,-0.45,-0.46
26.16,-6.32,-5.84,-6.32,-5.85,5.85,5.55,4.70,-0.47,-0.47,-0.48
26.43,-6.23,-5.74,-6.23,-5.75,5.75,5.46,4.80,-0.48,-0.49,-0.49
26.69,-6.15,-5.64,-6.15,-5.65,5.65,5.37,4.90,-0.50,-0.50,-0.51
26.96,-6.07,-5.55,-6.07,-5.55,5.55,5.29,5.01,-0.52,-0.52,-0.52
27.23,-5.98,-5.45,-5.98,-5.45,5.45,5.20,5.10,-0.53,-0.53,-0.53
27.50,-5.91,-5.37,-5.90,-5.35,5.35,5.11,5.20,-0.55,-0.55,-0.54
27.77,-5.83,-5.26,-5.82,-5.26,5.26,5.03,5.29,-0.57,-0.56,-0.56
28.05,-5.74,-5.16,-5.74,-5.16,5.16,4.94,5.38,-0.57,-0.58,-0.57
28.33,-5.67,-5.07,-5.66,-5.07,5.07,4.86,5.46,-0.60,-0.59,-0.60
28.62,-5.58,-4.97,-5.58,-4.97,4.97,4.78,5.53,-0.61,-0.60,-0.61
28.90,-5.50,-4.88,-5.50,-4.88,4.88,4.69,5.60,-0.62,-0.62,-0.62
29.19,-5.43,-4.79,-5.41,-4.78,4.78,4.61,5.66,-0.64,-0.63,-0.64
29.48,-5.34,-4.69,-5.33,-4.69,4.69,4.53,5.71,-0.65,-0.65,-0.64
29.78,-5.26,-4.60,-5.25,-4.60,4.60,4.45,5.75,-0.66,-0.66,-0.66
30.08,-5.18,-4.51,-5.18,-4.50,4.50,4.37,5.79,-0.68,-0.67,-0.67
30.38,-5.10,-4.41,-5.10,-4.41,4.41,4.29,5.81,-0.69,-0.69,-0.69
30.68,-5.02,-4.32,-5.02,-4.32,4.32,4.22,5.83,-0.70,-0.71,-0.70
30.99,-4.94,-4.21,-4.95,-4.23,4.23,4.14,5.83,-0.71,-0.72,-0.72
31.30,-4.87,-4.13,-4.88,-4.14,4.14,4.06,5.82,-0.73,-0.74,-0.74
31.61,-4.80,-4.05,-4.81,-4.05,4.05,3.99,5.81,-0.75,-0.76,-0.75
31.93,-4.74,-3.97,-4.74,-3.96,3.96,3.91,5.78,-0.77,-0.78,-0.77
32.24,-4.68,-3.87,-4.67,-3.88,3.88,3.84,5.74,-0.80,-0.79,-0.80
32.57,-4.61,-3.79,-4.61,-3.79,3.79,3.77,5.70,-0.82,-0.82,-0.82
32.89,-4.55,-3.72,-4.54,-3.71,3.71,3.69,5.64,-0.84,-0.84,-0.83
33.22,-4.49,-3.62,-4.48,-3.63,3.63,3.62,5.58,-0.86,-0.86,-0.86
33.55,-4.43,-3.55,-4.42,-3.55,3.55,3.55,5.51,-0.88,-0.88,-0.88
33.89,-4.37,-3.47,-4.37,-3.47,3.47,3.48,5.42,-0.90,-0.90,-0.90
34.23,-4.32,-3.39,-4.31,-3.39,3.39,3.41,5.34,-0.93,-0.92,-0.92
34.57,-4.26,-3.31,-4.25,-3.31,3.31,3.34,5.24,-0.95,-0.94,-0.95
34.92,-4.20,-3.23,-4.20,-3.23,3.23,3.27,5.15,-0.96,-0.96,-0.97
35.27,-4.15,-3.16,-4.15,-3.16,3.16,3.21,5.04,-0.99,-0.99,-0.98
35.62,-4.09,-3.08,-4.09,-3.09,3.09,3.14,4.93,-1.00,-1.01,-1.01
35.97,-4.04,-3.00,-4.04,-3.01,3.01,3.07,4.82,-1.02,-1.03,-1.03
36.33,-3.99,-2.94,-3.99,-2.94,2.94,3.01,4.71,-1.05,-1.05,-1.05
36.70,-3.95,-2.88,-3.94,-2.87,2.87,2.94,4.59,-1.08,-1.07,-1.07
37.06,-3.89,-2.79,-3.89,-2.80,2.80,2.88,4.47,-1.09,-1.09,-1.09
37.43,-3.85,-2.74,-3.84,-2.73,2.73,2.82,4.35,-1.12,-1.12,-1.11
37.81,-3.80,-2.66,-3.80,-2.66,2.66,2.75,4.23,-1.14,-1.14,-1.13
38.19,-3.75,-2.59,-3.75,-2.59,2.59,2.69,4.11,-1.15,-1.16,-1.16
38.57,-3.72,-2.54,-3.71,-2.53,2.53,2.63,3.99,-1.19,-1.18,-1.18
38.95,-3.67,-2.47,-3.67,-2.47,2.47,2.57,3.87,-1.20,-1.20,-1.20
39.34,-3.63,-2.40,-3.63,-2.41,2.41,2.51,3.75,-1.22,-1.22,-1.23
39.74,-3.59,-2.33,-3.59,-2.35,2.35,2.45,3.63,-1.24,-1.24,-1.25
40.14,-3.55,-2.29,-3.55,-2.29,2.29,2.39,3.51,-1.26,-1.26,-1.26
40.54,-3.51,-2.22,-3.51,-2.23,2.23,2.33,3.40,-1.28,-1.28,-1.28
40.94,-3.47,-2.16,-3.47,-2.17,2.17,2.27,3.28,-1.30,-1.30,-1.30
41.35,-3.44,-2.11,-3.44,-2.12,2.12,2.21,3.17,-1.32,-1.32,-1.33
41.76,-3.40,-2.06,-3.40,-2.06,2.06,2.16,3.06,-1.34,-1.34,-1.34
42.18,-3.37,-2.01,-3.37,-2.00,2.00,2.10,2.95,-1.36,-1.36,-1.35
42.60,-3.34,-1.96,-3.33,-1.95,1.95,2.04,2.84,-1.39,-1.38,-1.38
43.03,-3.31,-1.92,-3.30,-1.90,1.90,1.99,2.73,-1.41,-1.40,-1.39
43.46,-3.27,-1.85,-3.27,-1.85,1.85,1.93,2.63,-1.42,-1.42,-1.42
43.90,-3.24,-1.79,-3.24,-1.79,1.79,1.88,2.52,-1.44,-1.44,-1.45
44.33,-3.21,-1.74,-3.21,-1.74,1.74,1.83,2.42,-1.46,-1.46,-1.47
44.78,-3.18,-1.69,-3.18,-1.69,1.69,1.77,2.32,-1.48,-1.48,-1.48
45.23,-3.15,-1.63,-3.15,-1.65,1.65,1.72,2.23,-1.50,-1.50,-1.51
45.68,-3.13,-1.59,-3.12,-1.60,1.60,1.67,2.13,-1.53,-1.53,-1.53
46.13,-3.09,-1.53,-3.09,-1.55,1.55,1.62,2.04,-1.54,-1.55,-1.56
46.60,-3.07,-1.50,-3.07,-1.50,1.50,1.56,1.95,-1.57,-1.57,-1.57
47.06,-3.04,-1.45,-3.04,-1.45,1.45,1.51,1.86,-1.59,-1.59,-1.59
47.53,-3.02,-1.41,-3.02,-1.40,1.40,1.46,1.77,-1.61,-1.62,-1.61
48.01,-3.00,-1.38,-3.00,-1.36,1.36,1.41,1.68,-1.64,-1.64,-1.62
48.49,-2.98,-1.32,-2.97,-1.31,1.31,1.36,1.60,-1.67,-1.66,-1.65
48.97,-2.96,-1.27,-2.95,-1.27,1.27,1.31,1.52,-1.69,-1.69,-1.69
49.46,-2.94,-1.22,-2.93,-1.22,1.22,1.26,1.44,-1.71,-1.71,-1.72
49.96,-2.92,-1.16,-2.91,-1.18,1.18,1.21,1.36,-1.74,-1.73,-1.75
50.46,-2.89,-1.13,-2.89,-1.13,1.13,1.17,1.28,-1.75,-1.76,-1.76
50.96,-2.88,-1.09,-2.88,-1.09,1.09,1.12,1.20,-1.79,-1.79,-1.78
51.47,-2.86,-1.04,-2.86,-1.05,1.05,1.07,1.13,-1.81,-1.81,-1.82
51.99,-2.85,-1.00,-2.84,-1.00,1.00,1.02,1.06,-1.84,-1.84,-1.84
52.51,-2.83,-0.97,-2.83,-0.96,0.96,0.98,0.98,-1.87,-1.87,-1.86
53.03,-2.81,-0.92,-2.81,-0.92,0.92,0.93,0.91,-1.89,-1.89,-1.89
53.56,-2.80,-0.88,-2.79,-0.87,0.87,0.88,0.85,-1.92,-1.92,-1.92
54.10,-2.78,-0.83,-2.78,-0.83,0.83,0.84,0.78,-1.94,-1.95,-1.94
54.64,-2.77,-0.79,-2.77,-0.79,0.79,0.79,0.71,-1.97,-1.97,-1.97
55.18,-2.76,-0.75,-2.75,-0.75,0.75,0.75,0.65,-2.00,-2.00,-2.00
55.74,-2.74,-0.70,-2.74,-0.71,0.71,0.70,0.59,-2.02,-2.03,-2.03
56.29,-2.74,-0.68,-2.73,-0.68,0.68,0.66,0.53,-2.06,-2.06,-2.05
56.86,-2.72,-0.63,-2.72,-0.64,0.64,0.61,0.47,-2.08,-2.08,-2.08
57.42,-2.71,-0.59,-2.71,-0.60,0.60,0.57,0.41,-2.11,-2.11,-2.12
58.00,-2.70,-0.56,-2.70,-0.56,0.56,0.52,0.36,-2.14,-2.14,-2.14
58.58,-2.70,-0.52,-2.69,-0.52,0.52,0.48,0.30,-2.18,-2.17,-2.17
59.16,-2.68,-0.48,-2.68,-0.48,0.48,0.44,0.25,-2.19,-2.20,-2.20
59.76,-2.68,-0.45,-2.68,-0.45,0.45,0.39,0.20,-2.23,-2.23,-2.22
60.35,-2.67,-0.41,-2.67,-0.41,0.41,0.35,0.15,-2.26,-2.26,-2.26
60.96,-2.68,-0.40,-2.67,-0.37,0.37,0.31,0.10,-2.30,-2.29,-2.28
61.57,-2.67,-0.34,-2.66,-0.34,0.34,0.27,0.06,-2.33,-2.32,-2.32
62.18,-2.66,-0.30,-2.66,-0.30,0.30,0.22,0.01,-2.36,-2.36,-2.36
62.80,-2.65,-0.26,-2.66,-0.27,0.27,0.18,-0.03,-2.38,-2.39,-2.39
63.43,-2.65,-0.22,-2.65,-0.24,0.24,0.14,-0.07,-2.41,-2.42,-2.43
64.07,-2.66,-0.19,-2.65,-0.20,0.20,0.10,-0.11,-2.45,-2.45,-2.46
64.71,-2.66,-0.17,-2.65,-0.17,0.17,0.06,-0.15,-2.48,-2.48,-2.48
65.35,-2.66,-0.14,-2.65,-0.14,0.14,0.01,-0.18,-2.51,-2.51,-2.52
66.01,-2.66,-0.12,-2.66,-0.11,0.11,-0.03,-0.22,-2.54,-2.54,-2.54
66.67,-2.66,-0.08,-2.66,-0.09,0.09,-0.07,-0.25,-2.57,-2.57,-2.57
67.33,-2.66,-0.06,-2.66,-0.06,0.06,-0.11,-0.29,-2.60,-2.60,-2.60
68.01,-2.67,-0.03,-2.67,-0.03,0.03,-0.15,-0.32,-2.64,-2.64,-2.64
68.69,-2.68,-0.01,-2.67,-0.01,0.01,-0.19,-0.35,-2.67,-2.67,-2.66
69.37,-2.69,0.02,-2.68,0.02,-0.02,-0.23,-0.38,-2.71,-2.70,-2.70
70.07,-2.69,0.04,-2.69,0.05,-0.05,-0.27,-0.41,-2.73,-2.73,-2.73
70.77,-2.70,0.06,-2.69,0.07,-0.07,-0.31,-0.44,-2.77,-2.77,-2.76
71.48,-2.70,0.11,-2.70,0.10,-0.10,-0.35,-0.47,-2.80,-2.80,-2.80
72.19,-2.72,0.12,-2.71,0.13,-0.13,-0.39,-0.50,-2.85,-2.84,-2.84
72.91,-2.72,0.16,-2.72,0.16,-0.16,-0.43,-0.53,-2.88,-2.88,-2.88
73.64,-2.73,0.20,-2.73,0.19,-0.19,-0.47,-0.55,-2.92,-2.92,-2.92
74.38,-2.75,0.21,-2.74,0.22,-0.22,-0.51,-0.58,-2.97,-2.96,-2.96
75.12,-2.75,0.27,-2.75,0.25,-0.25,-0.55,-0.61,-3.00,-3.00,-3.01
75.87,-2.77,0.28,-2.77,0.28,-0.28,-0.59,-0.64,-3.05,-3.05,-3.05
76.63,-2.78,0.31,-2.78,0.31,-0.31,-0.63,-0.67,-3.09,-3.09,-3.09
77.40,-2.80,0.34,-2.79,0.35,-0.35,-0.67,-0.69,-3.14,-3.14,-3.14
78.17,-2.82,0.38,-2.81,0.38,-0.38,-0.71,-0.72,-3.19,-3.19,-3.20
78.95,-2.83,0.40,-2.83,0.41,-0.41,-0.75,-0.75,-3.24,-3.24,-3.23
79.74,-2.85,0.43,-2.85,0.44,-0.44,-0.79,-0.78,-3.29,-3.29,-3.28
80.54,-2.87,0.47,-2.86,0.47,-0.47,-0.82,-0.81,-3.34,-3.34,-3.33
81.35,-2.88,0.51,-2.89,0.50,-0.50,-0.86,-0.84,-3.38,-3.39,-3.39
82.16,-2.90,0.55,-2.91,0.53,-0.53,-0.90,-0.87,-3.43,-3.44,-3.44
82.98,-2.93,0.56,-2.93,0.56,-0.56,-0.94,-0.90,-3.49,-3.49,-3.49
83.81,-2.95,0.61,-2.95,0.59,-0.59,-0.98,-0.94,-3.54,-3.55,-3.55
84.65,-2.99,0.62,-2.98,0.63,-0.63,-1.02,-0.97,-3.61,-3.61,-3.61
85.50,-3.01,0.65,-3.01,0.65,-0.65,-1.06,-1.00,-3.66,-3.66,-3.66
86.35,-3.04,0.68,-3.04,0.68,-0.68,-1.09,-1.04,-3.72,-3.72,-3.72
87.22,-3.07,0.71,-3.06,0.71,-0.71,-1.13,-1.07,-3.78,-3.78,-3.78
88.09,-3.09,0.75,-3.10,0.74,-0.74,-1.17,-1.11,-3.83,-3.84,-3.84
88.97,-3.13,0.76,-3.13,0.77,-0.77,-1.21,-1.15,-3.90,-3.89,-3.89
89.86,-3.16,0.79,-3.16,0.80,-0.80,-1.25,-1.19,-3.95,-3.95,-3.95
90.76,-3.19,0.84,-3.19,0.83,-0.83,-1.29,-1.23,-4.01,-4.02,-4.02
91.66,-3.22,0.86,-3.22,0.86,-0.86,-1.32,-1.27,-4.07,-4.08,-4.08
92.58,-3.26,0.89,-3.25,0.89,-0.89,-1.36,-1.31,-4.15,-4.14,-4.15
93.51,-3.29,0.91,-3.28,0.92,-0.92,-1.40,-1.35,-4.21,-4.20,-4.20
94.44,-3.31,0.95,-3.31,0.96,-0.96,-1.44,-1.39,-4.27,-4.27,-4.26
95.39,-3.34,0.99,-3.34,1.00,-1.00,-1.48,-1.43,-4.33,-4.33,-4.33
96.34,-3.37,1.03,-3.37,1.03,-1.03,-1.51,-1.48,-4.40,-4.40,-4.40
97.30,-3.40,1.07,-3.39,1.08,-1.08,-1.55,-1.52,-4.47,-4.47,-4.47
98.28,-3.42,1.12,-3.42,1.12,-1.12,-1.59,-1.57,-4.53,-4.54,-4.53
99.26,-3.45,1.16,-3.44,1.16,-1.16,-1.63,-1.62,-4.61,-4.61,-4.61
100.25,-3.47,1.21,-3.47,1.21,-1.21,-1.67,-1.66,-4.68,-4.68,-4.68
101.25,-3.49,1.26,-3.49,1.26,-1.26,-1.70,-1.71,-4.75,-4.75,-4.75
102.27,-3.51,1.32,-3.51,1.31,-1.31,-1.74,-1.76,-4.82,-4.82,-4.82
103.29,-3.53,1.37,-3.53,1.37,-1.37,-1.78,-1.81,-4.89,-4.89,-4.90
104.32,-3.55,1.42,-3.55,1.42,-1.42,-1.82,-1.86,-4.97,-4.97,-4.97
105.37,-3.56,1.48,-3.56,1.48,-1.48,-1.85,-1.91,-5.04,-5.04,-5.04
106.42,-3.59,1.53,-3.58,1.54,-1.54,-1.89,-1.95,-5.13,-5.12,-5.11
107.48,-3.60,1.59,-3.59,1.60,-1.60,-1.93,-2.00,-5.20,-5.19,-5.19
108.56,-3.61,1.66,-3.61,1.66,-1.66,-1.96,-2.05,-5.27,-5.27,-5.27
109.64,-3.62,1.73,-3.62,1.72,-1.72,-2.00,-2.10,-5.34,-5.35,-5.35
110.74,-3.64,1.78,-3.64,1.79,-1.79,-2.04,-2.15,-5.42,-5.42,-5.41
111.85,-3.65,1.84,-3.65,1.85,-1.85,-2.08,-2.19,-5.50,-5.50,-5.49
112.97,-3.67,1.92,-3.66,1.92,-1.92,-2.11,-2.24,-5.58,-5.58,-5.59
114.10,-3.68,1.98,-3.68,1.98,-1.98,-2.15,-2.28,-5.66,-5.66,-5.65
115.24,-3.69,2.04,-3.69,2.04,-2.04,-2.19,-2.32,-5.73,-5.73,-5.73
116.39,-3.70,2.12,-3.70,2.10,-2.10,-2.22,-2.37,-5.80,-5.81,-5.82
117.55,-3.72,2.18,-3.72,2.17,-2.17,-2.26,-2.40,-5.89,-5.88,-5.89
118.73,-3.73,2.24,-3.73,2.23,-2.23,-2.29,-2.44,-5.96,-5.96,-5.97
119.92,-3.74,2.29,-3.74,2.29,-2.29,-2.33,-2.48,-6.03,-6.03,-6.03
121.12,-3.76,2.35,-3.75,2.35,-2.35,-2.37,-2.51,-6.11,-6.11,-6.11
122.33,-3.77,2.41,-3.76,2.41,-2.41,-2.40,-2.55,-6.18,-6.18,-6.18
123.55,-3.78,2.46,-3.77,2.48,-2.48,-2.44,-2.58,-6.25,-6.25,-6.24
124.79,-3.79,2.53,-3.78,2.53,-2.53,-2.48,-2.60,-6.32,-6.32,-6.31
126.03,-3.80,2.58,-3.79,2.59,-2.59,-2.51,-2.63,-6.39,-6.38,-6.37
127.29,-3.81,2.64,-3.80,2.65,-2.65,-2.55,-2.65,-6.46,-6.45,-6.45
128.57,-3.81,2.72,-3.81,2.71,-2.71,-2.58,-2.68,-6.51,-6.52,-6.53
129.85,-3.81,2.78,-3.82,2.76,-2.76,-2.62,-2.70,-6.57,-6.58,-6.58
131.15,-3.83,2.82,-3.83,2.82,-2.82,-2.65,-2.72,-6.64,-6.64,-6.64
132.46,-3.83,2.88,-3.83,2.87,-2.87,-2.69,-2.73,-6.70,-6.70,-6.71
133.79,-3.84,2.92,-3.84,2.92,-2.92,-2.72,-2.75,-6.76,-6.76,-6.76
135.12,-3.85,2.98,-3.84,2.97,-2.97,-2.76,-2.76,-6.82,-6.81,-6.82
136.48,-3.85,3.02,-3.85,3.02,-3.02,-2.79,-2.78,-6.87,-6.87,-6.87
137.84,-3.86,3.05,-3.85,3.07,-3.07,-2.83,-2.79,-6.92,-6.92,-6.91
139.22,-3.86,3.12,-3.86,3.11,-3.11,-2.86,-2.80,-6.97,-6.97,-6.97
140.61,-3.87,3.16,-3.86,3.15,-3.15,-2.90,-2.81,-7.02,-7.01,-7.03
142.02,-3.86,3.19,-3.86,3.19,-3.19,-2.93,-2.82,-7.05,-7.05,-7.05
143.44,-3.87,3.22,-3.87,3.23,-3.23,-2.96,-2.83,-7.10,-7.09,-7.09
144.87,-3.87,3.27,-3.87,3.27,-3.27,-3.00,-2.84,-7.13,-7.13,-7.14
146.32,-3.87,3.31,-3.87,3.30,-3.30,-3.03,-2.85,-7.17,-7.17,-7.18
147.78,-3.87,3.34,-3.87,3.34,-3.34,-3.06,-2.87,-7.21,-7.21,-7.20
149.26,-3.87,3.37,-3.87,3.38,-3.38,-3.10,-2.88,-7.25,-7.25,-7.24
150.75,-3.87,3.42,-3.87,3.42,-3.42,-3.13,-2.89,-7.28,-7.28,-7.29
152.26,-3.87,3.45,-3.87,3.45,-3.45,-3.16,-2.91,-7.32,-7.32,-7.32
153.78,-3.87,3.49,-3.86,3.49,-3.49,-3.19,-2.92,-7.36,-7.35,-7.35
155.32,-3.86,3.53,-3.86,3.53,-3.53,-3.23,-2.94,-7.39,-7.39,-7.39
156.88,-3.86,3.56,-3.85,3.57,-3.57,-3.26,-2.96,-7.43,-7.42,-7.42
158.44,-3.86,3.60,-3.85,3.61,-3.61,-3.29,-2.98,-7.46,-7.46,-7.46
160.03,-3.85,3.65,-3.85,3.65,-3.65,-3.32,-3.00,-7.49,-7.49,-7.50
161.63,-3.85,3.69,-3.84,3.69,-3.69,-3.35,-3.03,-7.53,-7.53,-7.54
163.24,-3.84,3.73,-3.84,3.73,-3.73,-3.38,-3.06,-7.56,-7.56,-7.56
164.88,-3.83,3.76,-3.83,3.77,-3.77,-3.41,-3.09,-7.59,-7.60,-7.59
166.53,-3.82,3.81,-3.83,3.81,-3.81,-3.44,-3.12,-7.62,-7.63,-7.63
168.19,-3.82,3.85,-3.82,3.84,-3.84,-3.47,-3.15,-7.66,-7.67,-7.67
169.87,-3.82,3.89,-3.82,3.89,-3.89,-3.50,-3.19,-7.70,-7.70,-7.70
171.57,-3.82,3.92,-3.82,3.93,-3.93,-3.53,-3.23,-7.74,-7.74,-7.74
173.29,-3.82,3.95,-3.82,3.97,-3.97,-3.56,-3.27,-7.78,-7.78,-7.77
175.02,-3.81,4.00,-3.81,4.01,-4.01,-3.59,-3.31,-7.81,-7.82,-7.81
176.77,-3.82,4.04,-3.82,4.04,-4.04,-3.62,-3.36,-7.86,-7.86,-7.86
178.54,-3.82,4.08,-3.82,4.08,-4.08,-3.65,-3.41,-7.90,-7.90,-7.90
180.32,-3.82,4.12,-3.82,4.12,-4.12,-3.68,-3.46,-7.93,-7.94,-7.94
182.13,-3.83,4.15,-3.82,4.15,-4.15,-3.70,-3.51,-7.98,-7.98,-7.98
183.95,-3.84,4.19,-3.83,4.19,-4.19,-3.73,-3.57,-8.03,-8.02,-8.02
185.79,-3.83,4.23,-3.83,4.22,-4.22,-3.76,-3.63,-8.05,-8.06,-8.06
187.65,-3.84,4.27,-3.84,4.26,-4.26,-3.78,-3.69,-8.09,-8.10,-8.10
189.52,-3.85,4.29,-3.85,4.29,-4.29,-3.81,-3.76,-8.13,-8.13,-8.14
191.42,-3.85,4.33,-3.85,4.32,-4.32,-3.84,-3.82,-8.16,-8.17,-8.17
193.33,-3.86,4.34,-3.86,4.35,-4.35,-3.86,-3.89,-8.20,-8.20,-8.20
195.27,-3.87,4.36,-3.86,4.37,-4.37,-3.89,-3.96,-8.24,-8.24,-8.23
197.22,-3.88,4.38,-3.87,4.40,-4.40,-3.91,-4.03,-8.27,-8.27,-8.26
199.19,-3.88,4.43,-3.88,4.42,-4.42,-3.94,-4.11,-8.30,-8.30,-8.31
201.18,-3.88,4.45,-3.88,4.45,-4.45,-3.96,-4.18,-8.32,-8.33,-8.33
203.19,-3.89,4.46,-3.89,4.47,-4.47,-3.98,-4.26,-8.36,-8.35,-8.35
205.23,-3.90,4.48,-3.89,4.49,-4.49,-4.01,-4.34,-8.39,-8.38,-8.38
207.28,-3.89,4.50,-3.89,4.51,-4.51,-4.03,-4.42,-8.40,-8.40,-8.39
209.35,-3.90,4.53,-3.90,4.53,-4.53,-4.05,-4.49,-8.43,-8.43,-8.43
211.44,-3.90,4.56,-3.90,4.55,-4.55,-4.07,-4.57,-8.45,-8.45,-8.45
213.56,-3.90,4.57,-3.90,4.57,-4.57,-4.10,-4.65,-8.47,-8.47,-8.47
215.69,-3.90,4.58,-3.90,4.59,-4.59,-4.12,-4.73,-8.49,-8.48,-8.48
217.85,-3.90,4.60,-3.89,4.60,-4.60,-4.14,-4.80,-8.50,-8.50,-8.49
220.03,-3.89,4.63,-3.89,4.62,-4.62,-4.16,-4.88,-8.51,-8.51,-8.52
222.23,-3.89,4.64,-3.89,4.63,-4.63,-4.18,-4.95,-8.52,-8.52,-8.53
224.45,-3.88,4.65,-3.88,4.65,-4.65,-4.20,-5.02,-8.52,-8.53,-8.53
226.70,-3.88,4.66,-3.87,4.66,-4.66,-4.21,-5.08,-8.54,-8.53,-8.54
228.96,-3.87,4.68,-3.86,4.67,-4.67,-4.23,-5.14,-8.54,-8.54,-8.54
231.25,-3.86,4.68,-3.85,4.68,-4.68,-4.25,-5.20,-8.54,-8.54,-8.54
233.57,-3.85,4.68,-3.84,4.69,-4.69,-4.27,-5.25,-8.54,-8.53,-8.53
235.90,-3.84,4.69,-3.83,4.70,-4.70,-4.29,-5.30,-8.54,-8.53,-8.53
238.26,-3.82,4.71,-3.81,4.71,-4.71,-4.30,-5.34,-8.52,-8.52,-8.53
240.64,-3.80,4.71,-3.80,4.71,-4.71,-4.32,-5.38,-8.51,-8.51,-8.51
243.05,-3.78,4.72,-3.78,4.72,-4.72,-4.33,-5.40,-8.49,-8.50,-8.50
245.48,-3.77,4.72,-3.77,4.72,-4.72,-4.35,-5.43,-8.48,-8.49,-8.48
247.93,-3.75,4.72,-3.75,4.72,-4.72,-4.36,-5.44,-8.47,-8.47,-8.47
250.41,-3.73,4.73,-3.73,4.72,-4.72,-4.38,-5.45,-8.45,-8.45,-8.46
252.92,-3.71,4.72,-3.71,4.72,-4.72,-4.39,-5.45,-8.43,-8.43,-8.43
255.45,-3.70,4.71,-3.69,4.72,-4.72,-4.40,-5.44,-8.42,-8.42,-8.41
258.00,-3.68,4.71,-3.67,4.72,-4.72,-4.42,-5.43,-8.40,-8.40,-8.39
260.58,-3.66,4.72,-3.65,4.72,-4.72,-4.43,-5.41,-8.38,-8.37,-8.38
263.19,-3.64,4.72,-3.63,4.72,-4.72,-4.44,-5.38,-8.35,-8.35,-8.35
265.82,-3.62,4.71,-3.62,4.71,-4.71,-4.45,-5.35,-8.33,-8.33,-8.33
268.48,-3.60,4.71,-3.59,4.71,-4.71,-4.46,-5.31,-8.31,-8.31,-8.31
271.16,-3.57,4.71,-3.57,4.71,-4.71,-4.47,-5.27,-8.28,-8.28,-8.28
273.87,-3.56,4.71,-3.55,4.71,-4.71,-4.48,-5.22,-8.27,-8.26,-8.26
276.61,-3.53,4.70,-3.53,4.71,-4.71,-4.49,-5.17,-8.24,-8.24,-8.23
279.38,-3.51,4.71,-3.51,4.71,-4.71,-4.50,-5.12,-8.21,-8.21,-8.22
282.17,-3.49,4.70,-3.49,4.71,-4.71,-4.50,-5.06,-8.19,-8.19,-8.19
284.99,-3.47,4.70,-3.46,4.70,-4.70,-4.51,-5.00,-8.17,-8.17,-8.17
287.84,-3.45,4.70,-3.44,4.70,-4.70,-4.52,-4.94,-8.14,-8.14,-8.14
290.72,-3.42,4.69,-3.42,4.69,-4.69,-4.52,-4.87,-8.11,-8.11,-8.11
293.63,-3.40,4.70,-3.40,4.68,-4.68,-4.53,-4.81,-8.08,-8.08,-8.09
296.57,-3.38,4.68,-3.38,4.68,-4.68,-4.54,-4.74,-8.05,-8.06,-8.06
299.53,-3.36,4.68,-3.36,4.67,-4.67,-4.54,-4.67,-8.02,-8.03,-8.03
302.53,-3.35,4.66,-3.34,4.65,-4.65,-4.54,-4.61,-8.00,-8.00,-8.01
305.55,-3.33,4.64,-3.33,4.64,-4.64,-4.55,-4.54,-7.97,-7.97,-7.96
308.61,-3.31,4.63,-3.31,4.63,-4.63,-4.55,-4.48,-7.93,-7.94,-7.94
311.69,-3.29,4.61,-3.29,4.61,-4.61,-4.55,-4.41,-7.90,-7.90,-7.90
314.81,-3.28,4.59,-3.28,4.60,-4.60,-4.55,-4.35,-7.87,-7.87,-7.86
317.96,-3.27,4.57,-3.26,4.58,-4.58,-4.56,-4.29,-7.85,-7.84,-7.84
321.14,-3.25,4.57,-3.25,4.57,-4.57,-4.56,-4.23,-7.81,-7.81,-7.81
324.35,-3.24,4.55,-3.23,4.55,-4.55,-4.56,-4.17,-7.79,-7.78,-7.79
327.59,-3.23,4.52,-3.22,4.54,-4.54,-4.56,-4.12,-7.76,-7.76,-7.75
330.87,-3.22,4.51,-3.21,4.52,-4.52,-4.55,-4.07,-7.74,-7.73,-7.72
334.18,-3.21,4.50,-3.20,4.50,-4.50,-4.55,-4.02,-7.71,-7.70,-7.71
337.52,-3.19,4.49,-3.20,4.48,-4.48,-4.55,-3.97,-7.67,-7.68,-7.68
340.90,-3.19,4.46,-3.19,4.46,-4.46,-4.55,-3.93,-7.65,-7.66,-7.65
344.30,-3.18,4.46,-3.19,4.44,-4.44,-4.55,-3.89,-7.62,-7.63,-7.63
347.75,-3.18,4.43,-3.20,4.42,-4.42,-4.54,-3.85,-7.59,-7.61,-7.61
351.23,-3.18,4.41,-3.20,4.39,-4.39,-4.54,-3.81,-7.57,-7.59,-7.59
354.74,-3.19,4.39,-3.21,4.36,-4.36,-4.53,-3.78,-7.55,-7.57,-7.57
358.28,-3.21,4.35,-3.22,4.33,-4.33,-4.53,-3.75,-7.54,-7.55,-7.55
361.87,-3.22,4.32,-3.23,4.31,-4.31,-4.52,-3.73,-7.52,-7.53,-7.54
365.49,-3.24,4.27,-3.23,4.28,-4.28,-4.52,-3.70,-7.52,-7.52,-7.51
369.14,-3.26,4.24,-3.24,4.26,-4.26,-4.51,-3.68,-7.52,-7.50,-7.50
372.83,-3.27,4.22,-3.24,4.24,-4.24,-4.50,-3.66,-7.51,-7.48,-7.48
376.56,-3.26,4.21,-3.24,4.22,-4.22,-4.49,-3.65,-7.48,-7.46,-7.47
380.33,-3.26,4.18,-3.23,4.21,-4.21,-4.49,-3.63,-7.47,-7.44,-7.44
384.13,-3.24,4.18,-3.21,4.21,-4.21,-4.48,-3.62,-7.44,-7.42,-7.42
387.97,-3.22,4.18,-3.20,4.20,-4.20,-4.47,-3.62,-7.42,-7.40,-7.40
391.85,-3.18,4.21,-3.17,4.21,-4.21,-4.46,-3.61,-7.39,-7.38,-7.38
395.77,-3.14,4.22,-3.14,4.22,-4.22,-4.45,-3.61,-7.36,-7.36,-7.35
399.73,-3.09,4.25,-3.10,4.24,-4.24,-4.44,-3.61,-7.32,-7.34,-7.34
403.72,-3.05,4.27,-3.06,4.26,-4.26,-4.43,-3.61,-7.31,-7.32,-7.32
407.76,-3.01,4.29,-3.01,4.29,-4.29,-4.41,-3.61,-7.30,-7.30,-7.30
411.84,-2.97,4.30,-2.95,4.32,-4.32,-4.40,-3.62,-7.29,-7.27,-7.27
415.96,-2.91,4.34,-2.89,4.36,-4.36,-4.39,-3.63,-7.26,-7.25,-7.25
420.12,-2.86,4.38,-2.84,4.39,-4.39,-4.38,-3.64,-7.25,-7.23,-7.23
424.32,-2.81,4.40,-2.78,4.42,-4.42,-4.36,-3.64,-7.23,-7.21,-7.20
428.56,-2.76,4.43,-2.73,4.45,-4.45,-4.35,-3.66,-7.21,-7.19,-7.19
