frequency,raw,error,smoothed,error_smoothed,equalization,parametric_eq,fixed_band_eq,equalized_raw,equalized_smoothed,target
20.00,-5.15,-13.84,-5.18,-13.87,13.87,13.20,6.31,8.72,8.69,8.69
20.20,-5.13,-13.81,-5.15,-13.83,13.83,13.24,6.46,8.70,8.68,8.68
20.40,-5.11,-13.78,-5.11,-13.78,13.78,13.27,6.61,8.68,8.67,8.67
20.61,-5.09,-13.76,-5.08,-13.74,13.74,13.31,6.77,8.65,8.66,8.67
20.81,-5.07,-13.72,-5.05,-13.70,13.70,13.34,6.93,8.63,8.65,8.65
21.02,-5.05,-13.70,-5.01,-13.66,13.66,13.36,7.10,8.61,8.65,8.65
21.23,-5.00,-13.63,-4.98,-13.62,13.62,13.38,7.26,8.62,8.64,8.64
21.44,-4.96,-13.60,-4.95,-13.58,13.58,13.40,7.44,8.62,8.63,8.64
21.66,-4.92,-13.55,-4.92,-13.54,13.54,13.42,7.61,8.62,8.62,8.63
21.87,-4.87,-13.49,-4.89,-13.50,13.50,13.43,7.80,8.63,8.62,8.62
22.09,-4.84,-13.45,-4.86,-13.47,13.47,13.44,7.98,8.63,8.61,8.61
22.31,-4.82,-13.43,-4.82,-13.43,13.43,13.44,8.18,8.61,8.61,8.61
22.54,-4.80,-13.40,-4.79,-13.39,13.39,13.45,8.37,8.59,8.60,8.60
22.76,-4.77,-13.37,-4.75,-13.35,13.35,13.45,8.57,8.58,8.60,8.60
22.99,-4.75,-13.34,-4.72,-13.31,13.31,13.44,8.78,8.56,8.59,8.59
23.22,-4.71,-13.28,-4.69,-13.27,13.27,13.43,8.99,8.56,8.59,8.58
23.45,-4.66,-13.24,-4.66,-13.24,13.24,13.42,9.21,8.58,8.58,8.58
23.69,-4.61,-13.18,-4.64,-13.22,13.22,13.41,9.43,8.61,8.58,8.57
23.92,-4.57,-13.14,-4.61,-13.19,13.19,13.40,9.66,8.62,8.58,8.57
24.16,-4.55,-13.13,-4.59,-13.17,13.17,13.38,9.89,8.62,8.58,8.58
24.40,-4.54,-13.13,-4.57,-13.15,13.15,13.36,10.13,8.61,8.58,8.59
24.65,-4.54,-13.13,-4.54,-13.12,13.12,13.33,10.38,8.59,8.58,8.59
24.89,-4.53,-13.11,-4.52,-13.10,13.10,13.31,10.63,8.57,8.58,8.59
25.14,-4.52,-13.10,-4.49,-13.07,13.07,13.28,10.88,8.55,8.58,8.58
25.39,-4.50,-13.08,-4.46,-13.05,13.05,13.25,11.14,8.55,8.59,8.58
25.65,-4.48,-13.06,-4.44,-13.03,13.03,13.22,11.40,8.55,8.59,8.58
25.91,-4.46,-13.05,-4.42,-13.00,13.00,13.19,11.67,8.55,8.59,8.59
26.16,-4.42,-13.01,-4.39,-12.98,12.98,13.15,11.94,8.56,8.59,8.60
26.43,-4.36,-12.95,-4.37,-12.96,12.96,13.11,12.21,8.60,8.59,8.59
26.69,-4.31,-12.90,-4.34,-12.93,12.93,13.08,12.49,8.62,8.59,8.59
26.96,-4.26,-12.85,-4.32,-12.90,12.90,13.04,12.76,8.64,8.59,8.59
27.23,-4.25,-12.84,-4.29,-12.88,12.88,13.00,13.04,8.63,8.59,8.59
27.50,-4.25,-12.83,-4.27,-12.86,12.86,12.96,13.31,8.61,8.59,8.58
27.77,-4.25,-12.84,-4.25,-12.84,12.84,12.91,13.59,8.59,8.59,8.59
28.05,-4.24,-12.83,-4.23,-12.81,12.81,12.87,13.85,8.58,8.59,8.59
28.33,-4.22,-12.80,-4.21,-12.79,12.79,12.83,14.11,8.57,8.59,8.58
28.62,-4.19,-12.76,-4.18,-12.77,12.77,12.78,14.36,8.58,8.58,8.57
28.90,-4.16,-12.74,-4.16,-12.74,12.74,12.74,14.59,8.58,8.58,8.58
29.19,-4.15,-12.73,-4.14,-12.72,12.72,12.69,14.81,8.57,8.58,8.58
29.48,-4.15,-12.72,-4.12,-12.70,12.70,12.64,15.01,8.55,8.57,8.57
29.78,-4.14,-12.71,-4.10,-12.67,12.67,12.60,15.19,8.53,8.57,8.57
30.08,-4.13,-12.71,-4.08,-12.64,12.64,12.55,15.35,8.52,8.56,8.58
30.38,-4.07,-12.63,-4.06,-12.61,12.61,12.51,15.48,8.54,8.56,8.56
30.68,-4.01,-12.56,-4.03,-12.58,12.58,12.46,15.57,8.57,8.55,8.55
30.99,-3.95,-12.50,-4.01,-12.55,12.55,12.41,15.64,8.60,8.54,8.55
31.30,-3.95,-12.48,-3.99,-12.52,12.52,12.37,15.68,8.57,8.54,8.53
31.61,-3.95,-12.48,-3.97,-12.50,12.50,12.32,15.68,8.55,8.53,8.53
31.93,-3.95,-12.46,-3.95,-12.47,12.47,12.27,15.66,8.52,8.52,8.51
32.24,-3.94,-12.45,-3.94,-12.45,12.45,12.23,15.60,8.51,8.51,8.51
32.57,-3.93,-12.42,-3.92,-12.43,12.43,12.18,15.52,8.50,8.50,8.49
32.89,-3.92,-12.41,-3.91,-12.40,12.40,12.14,15.41,8.48,8.50,8.49
33.22,-3.90,-12.38,-3.89,-12.38,12.38,12.10,15.28,8.48,8.49,8.48
33.55,-3.88,-12.36,-3.88,-12.36,12.36,12.05,15.13,8.48,8.48,8.48
33.89,-3.86,-12.34,-3.87,-12.34,12.34,12.01,14.97,8.48,8.48,8.48
34.23,-3.85,-12.32,-3.85,-12.32,12.32,11.97,14.79,8.47,8.47,8.47
34.57,-3.85,-12.31,-3.83,-12.30,12.30,11.93,14.60,8.45,8.47,8.46
34.92,-3.85,-12.30,-3.81,-12.26,12.26,11.89,14.40,8.42,8.46,8.46
35.27,-3.82,-12.28,-3.78,-12.23,12.23,11.85,14.20,8.41,8.45,8.46
35.62,-3.78,-12.22,-3.76,-12.20,12.20,11.81,14.00,8.42,8.44,8.44
35.97,-3.73,-12.16,-3.74,-12.16,12.16,11.77,13.79,8.44,8.43,8.44
36.33,-3.70,-12.12,-3.72,-12.13,12.13,11.73,13.59,8.43,8.41,8.42
36.70,-3.67,-12.07,-3.70,-12.10,12.10,11.69,13.38,8.43,8.40,8.40
37.06,-3.64,-12.02,-3.69,-12.06,12.06,11.66,13.18,8.43,8.38,8.38
37.43,-3.64,-11.99,-3.67,-12.03,12.03,11.62,12.99,8.39,8.35,8.35
37.81,-3.64,-11.98,-3.66,-11.99,11.99,11.59,12.79,8.35,8.33,8.34
38.19,-3.64,-11.95,-3.64,-11.95,11.95,11.55,12.61,8.31,8.31,8.31
38.57,-3.64,-11.92,-3.63,-11.91,11.91,11.52,12.42,8.27,8.28,8.28
38.95,-3.64,-11.89,-3.62,-11.87,11.87,11.49,12.25,8.23,8.25,8.25
39.34,-3.64,-11.85,-3.61,-11.83,11.83,11.46,12.08,8.19,8.22,8.21
39.74,-3.64,-11.83,-3.61,-11.80,11.80,11.43,11.92,8.16,8.19,8.19
40.14,-3.63,-11.79,-3.60,-11.76,11.76,11.39,11.76,8.13,8.16,8.16
40.54,-3.59,-11.72,-3.59,-11.72,11.72,11.37,11.61,8.13,8.13,8.13
40.94,-3.55,-11.65,-3.58,-11.68,11.68,11.34,11.47,8.13,8.10,8.10
41.35,-3.54,-11.61,-3.57,-11.64,11.64,11.31,11.33,8.10,8.07,8.08
41.76,-3.54,-11.57,-3.55,-11.60,11.60,11.28,11.21,8.06,8.04,8.03
42.18,-3.54,-11.55,-3.54,-11.55,11.55,11.25,11.09,8.01,8.01,8.01
42.60,-3.54,-11.53,-3.52,-11.51,11.51,11.22,10.97,7.97,7.98,7.99
43.03,-3.54,-11.49,-3.51,-11.46,11.46,11.20,10.87,7.92,7.96,7.95
43.46,-3.49,-11.41,-3.49,-11.42,11.42,11.17,10.77,7.93,7.93,7.92
43.90,-3.45,-11.35,-3.47,-11.37,11.37,11.14,10.68,7.92,7.89,7.90
44.33,-3.44,-11.30,-3.46,-11.32,11.32,11.12,10.59,7.88,7.86,7.86
44.78,-3.44,-11.26,-3.44,-11.27,11.27,11.09,10.52,7.83,7.83,7.83
45.23,-3.44,-11.25,-3.43,-11.22,11.22,11.06,10.44,7.78,7.79,7.81
45.68,-3.44,-11.20,-3.41,-11.17,11.17,11.04,10.38,7.73,7.76,7.76
46.13,-3.43,-11.14,-3.40,-11.11,11.11,11.01,10.32,7.68,7.72,7.71
46.60,-3.38,-11.06,-3.38,-11.06,11.06,10.98,10.27,7.68,7.67,7.68
47.06,-3.34,-10.98,-3.37,-11.00,11.00,10.96,10.22,7.66,7.63,7.64
47.53,-3.34,-10.94,-3.36,-10.94,10.94,10.93,10.19,7.61,7.58,7.60
48.01,-3.34,-10.88,-3.35,-10.89,10.89,10.90,10.15,7.55,7.54,7.54
48.49,-3.34,-10.83,-3.35,-10.84,10.84,10.87,10.12,7.50,7.49,7.49
48.97,-3.34,-10.78,-3.35,-10.79,10.79,10.84,10.10,7.45,7.44,7.44
49.46,-3.34,-10.73,-3.35,-10.74,10.74,10.81,10.08,7.40,7.39,7.39
49.96,-3.34,-10.66,-3.34,-10.68,10.68,10.78,10.07,7.34,7.34,7.32
50.46,-3.34,-10.62,-3.34,-10.63,10.63,10.74,10.06,7.29,7.29,7.28
50.96,-3.34,-10.57,-3.34,-10.58,10.58,10.71,10.06,7.24,7.24,7.23
51.47,-3.34,-10.53,-3.34,-10.53,10.53,10.67,10.06,7.19,7.19,7.19
51.99,-3.34,-10.47,-3.34,-10.47,10.47,10.64,10.06,7.13,7.14,7.13
52.51,-3.34,-10.43,-3.33,-10.41,10.41,10.60,10.06,7.07,7.08,7.09
53.03,-3.34,-10.39,-3.32,-10.35,10.35,10.56,10.07,7.01,7.03,7.05
53.56,-3.34,-10.33,-3.30,-10.28,10.28,10.52,10.08,6.94,6.98,6.99
54.10,-3.33,-10.26,-3.29,-10.22,10.22,10.47,10.09,6.89,6.93,6.93
54.64,-3.28,-10.16,-3.27,-10.15,10.15,10.43,10.10,6.87,6.88,6.88
55.18,-3.24,-10.06,-3.25,-10.08,10.08,10.38,10.10,6.84,6.83,6.82
55.74,-3.24,-10.01,-3.23,-10.01,10.01,10.33,10.11,6.78,6.78,6.77
56.29,-3.21,-9.93,-3.21,-9.95,9.95,10.28,10.12,6.74,6.73,6.72
56.86,-3.15,-9.83,-3.19,-9.88,9.88,10.23,10.12,6.73,6.68,6.68
57.42,-3.14,-9.75,-3.18,-9.81,9.81,10.17,10.12,6.67,6.63,6.61
58.00,-3.14,-9.72,-3.16,-9.74,9.74,10.12,10.11,6.60,6.58,6.58
58.58,-3.14,-9.68,-3.15,-9.67,9.67,10.06,10.10,6.53,6.52,6.54
59.16,-3.14,-9.63,-3.14,-9.61,9.61,9.99,10.08,6.47,6.47,6.49
59.76,-3.14,-9.58,-3.13,-9.54,9.54,9.93,10.06,6.40,6.41,6.44
60.35,-3.14,-9.51,-3.13,-9.48,9.48,9.87,10.03,6.34,6.35,6.37
60.96,-3.14,-9.45,-3.13,-9.42,9.42,9.80,9.99,6.28,6.29,6.31
61.57,-3.14,-9.37,-3.14,-9.37,9.37,9.73,9.95,6.23,6.23,6.23
62.18,-3.14,-9.30,-3.14,-9.31,9.31,9.66,9.89,6.17,6.17,6.16
62.80,-3.14,-9.22,-3.14,-9.24,9.24,9.58,9.83,6.10,6.10,6.08
63.43,-3.14,-9.15,-3.15,-9.18,9.18,9.51,9.76,6.04,6.03,6.02
64.07,-3.14,-9.10,-3.14,-9.11,9.11,9.43,9.68,5.97,5.97,5.96
64.71,-3.14,-9.03,-3.14,-9.03,9.03,9.35,9.59,5.89,5.90,5.89
65.35,-3.14,-8.97,-3.13,-8.96,8.96,9.27,9.50,5.82,5.83,5.83
66.01,-3.14,-8.89,-3.12,-8.88,8.88,9.18,9.39,5.74,5.76,5.75
66.67,-3.14,-8.84,-3.12,-8.80,8.80,9.10,9.28,5.66,5.69,5.70
67.33,-3.14,-8.76,-3.11,-8.72,8.72,9.01,9.17,5.58,5.62,5.62
68.01,-3.14,-8.69,-3.10,-8.64,8.64,8.92,9.05,5.50,5.55,5.55
68.69,-3.07,-8.54,-3.09,-8.56,8.56,8.83,8.92,5.49,5.48,5.47
69.37,-3.04,-8.45,-3.08,-8.48,8.48,8.74,8.79,5.44,5.40,5.42
70.07,-3.04,-8.37,-3.07,-8.40,8.40,8.65,8.66,5.36,5.33,5.34
70.77,-3.04,-8.30,-3.06,-8.32,8.32,8.56,8.52,5.28,5.26,5.26
71.48,-3.04,-8.23,-3.05,-8.24,8.24,8.47,8.38,5.20,5.18,5.19
72.19,-3.04,-8.15,-3.04,-8.16,8.16,8.37,8.24,5.12,5.11,5.11
72.91,-3.04,-8.07,-3.04,-8.08,8.08,8.28,8.10,5.04,5.04,5.03
73.64,-3.04,-8.00,-3.03,-8.00,8.00,8.18,7.96,4.96,4.97,4.96
74.38,-3.04,-7.93,-3.03,-7.93,7.93,8.09,7.82,4.89,4.89,4.89
75.12,-3.04,-7.85,-3.03,-7.85,7.85,7.99,7.68,4.82,4.82,4.81
75.87,-3.04,-7.79,-3.03,-7.79,7.79,7.89,7.54,4.75,4.75,4.75
76.63,-3.04,-7.72,-3.04,-7.72,7.72,7.80,7.40,4.68,4.69,4.68
77.40,-3.04,-7.66,-3.04,-7.66,7.66,7.70,7.26,4.62,4.62,4.62
78.17,-3.04,-7.58,-3.04,-7.59,7.59,7.61,7.13,4.55,4.55,4.54
78.95,-3.04,-7.53,-3.05,-7.53,7.53,7.51,7.00,4.49,4.48,4.49
79.74,-3.04,-7.46,-3.05,-7.46,7.46,7.41,6.87,4.42,4.42,4.42
80.54,-3.04,-7.39,-3.05,-7.40,7.40,7.32,6.75,4.36,4.35,4.35
81.35,-3.04,-7.32,-3.05,-7.33,7.33,7.23,6.62,4.29,4.28,4.28
82.16,-3.04,-7.26,-3.04,-7.26,7.26,7.13,6.51,4.22,4.22,4.23
82.98,-3.04,-7.19,-3.04,-7.18,7.18,7.04,6.39,4.14,4.15,4.15
83.81,-3.04,-7.12,-3.03,-7.11,7.11,6.95,6.28,4.07,4.08,4.08
84.65,-3.04,-7.05,-3.02,-7.03,7.03,6.86,6.18,3.99,4.01,4.01
85.50,-3.04,-6.96,-3.01,-6.95,6.95,6.77,6.07,3.91,3.94,3.93
86.35,-3.04,-6.90,-3.00,-6.87,6.87,6.68,5.98,3.83,3.87,3.86
87.22,-3.02,-6.81,-2.99,-6.78,6.78,6.59,5.88,3.76,3.79,3.79
88.09,-2.94,-6.66,-2.98,-6.70,6.70,6.50,5.79,3.76,3.72,3.72
88.97,-2.94,-6.59,-2.97,-6.61,6.61,6.42,5.70,3.67,3.64,3.65
89.86,-2.94,-6.50,-2.96,-6.52,6.52,6.33,5.62,3.58,3.57,3.56
90.76,-2.93,-6.42,-2.95,-6.44,6.44,6.25,5.54,3.51,3.49,3.49
91.66,-2.93,-6.33,-2.94,-6.35,6.35,6.17,5.47,3.42,3.41,3.40
92.58,-2.93,-6.26,-2.94,-6.26,6.26,6.09,5.40,3.34,3.33,3.33
93.51,-2.93,-6.18,-2.93,-6.18,6.18,6.01,5.33,3.25,3.24,3.25
94.44,-2.93,-6.10,-2.93,-6.09,6.09,5.93,5.27,3.16,3.16,3.17
95.39,-2.93,-6.00,-2.93,-6.00,6.00,5.86,5.21,3.07,3.07,3.08
96.34,-2.94,-5.92,-2.93,-5.91,5.91,5.78,5.15,2.97,2.98,2.98
97.30,-2.94,-5.83,-2.93,-5.82,5.82,5.71,5.09,2.88,2.89,2.89
98.28,-2.95,-5.74,-2.94,-5.73,5.73,5.64,5.04,2.78,2.79,2.80
99.26,-2.97,-5.66,-2.94,-5.64,5.64,5.57,5.00,2.67,2.70,2.69
100.25,-2.98,-5.58,-2.94,-5.55,5.55,5.50,4.95,2.57,2.61,2.60
101.25,-2.97,-5.48,-2.95,-5.46,5.46,5.43,4.91,2.49,2.51,2.51
102.27,-2.91,-5.33,-2.96,-5.37,5.37,5.36,4.87,2.47,2.42,2.42
103.29,-2.93,-5.25,-2.97,-5.29,5.29,5.29,4.83,2.36,2.32,2.32
104.32,-2.95,-5.18,-2.98,-5.21,5.21,5.22,4.79,2.26,2.23,2.24
105.37,-2.97,-5.11,-2.99,-5.13,5.13,5.15,4.76,2.16,2.14,2.14
106.42,-2.99,-5.03,-3.01,-5.05,5.05,5.08,4.73,2.06,2.04,2.04
107.48,-3.02,-4.96,-3.02,-4.97,4.97,5.01,4.69,1.95,1.95,1.94
108.56,-3.04,-4.90,-3.04,-4.89,4.89,4.94,4.66,1.85,1.86,1.86
109.64,-3.06,-4.83,-3.05,-4.82,4.82,4.87,4.63,1.76,1.77,1.77
110.74,-3.08,-4.75,-3.06,-4.74,4.74,4.80,4.60,1.66,1.68,1.67
111.85,-3.10,-4.69,-3.08,-4.67,4.67,4.73,4.57,1.57,1.59,1.59
112.97,-3.11,-4.61,-3.09,-4.59,4.59,4.65,4.54,1.48,1.50,1.50
114.10,-3.12,-4.54,-3.10,-4.52,4.52,4.58,4.51,1.40,1.41,1.42
115.24,-3.12,-4.45,-3.11,-4.44,4.44,4.50,4.47,1.32,1.33,1.33
116.39,-3.12,-4.35,-3.11,-4.36,4.36,4.42,4.44,1.24,1.25,1.23
117.55,-3.11,-4.27,-3.11,-4.28,4.28,4.34,4.40,1.17,1.17,1.16
118.73,-3.11,-4.18,-3.11,-4.20,4.20,4.25,4.37,1.09,1.09,1.07
119.92,-3.10,-4.10,-3.10,-4.11,4.11,4.17,4.33,1.01,1.01,1.00
121.12,-3.09,-4.03,-3.10,-4.03,4.03,4.08,4.28,0.94,0.93,0.94
122.33,-3.09,-3.95,-3.09,-3.94,3.94,4.00,4.24,0.86,0.85,0.86
123.55,-3.08,-3.87,-3.08,-3.86,3.86,3.91,4.19,0.78,0.78,0.79
124.79,-3.07,-3.79,-3.07,-3.78,3.78,3.82,4.14,0.71,0.70,0.72
126.03,-3.06,-3.70,-3.07,-3.70,3.70,3.74,4.09,0.64,0.63,0.64
127.29,-3.06,-3.62,-3.06,-3.62,3.62,3.65,4.03,0.56,0.56,0.56
128.57,-3.05,-3.54,-3.05,-3.54,3.54,3.56,3.97,0.49,0.49,0.49
129.85,-3.05,-3.46,-3.05,-3.46,3.46,3.48,3.91,0.41,0.41,0.41
131.15,-3.04,-3.38,-3.04,-3.38,3.38,3.39,3.84,0.34,0.34,0.34
132.46,-3.04,-3.30,-3.04,-3.31,3.31,3.31,3.78,0.27,0.27,0.26
133.79,-3.03,-3.22,-3.03,-3.23,3.23,3.22,3.71,0.20,0.20,0.19
135.12,-3.03,-3.15,-3.03,-3.15,3.15,3.14,3.63,0.12,0.12,0.12
136.48,-3.02,-3.08,-3.03,-3.08,3.08,3.06,3.56,0.06,0.05,0.06
137.84,-3.02,-3.01,-3.02,-3.01,3.01,2.97,3.48,-0.01,-0.02,-0.01
139.22,-3.02,-2.92,-3.02,-2.93,2.93,2.89,3.40,-0.09,-0.09,-0.10
140.61,-3.02,-2.87,-3.02,-2.86,2.86,2.82,3.32,-0.16,-0.16,-0.15
142.02,-3.02,-2.79,-3.02,-2.79,2.79,2.74,3.24,-0.23,-0.23,-0.23
143.44,-3.02,-2.72,-3.02,-2.72,2.72,2.66,3.16,-0.30,-0.29,-0.30
144.87,-3.02,-2.65,-3.02,-2.66,2.66,2.59,3.07,-0.36,-0.36,-0.37
146.32,-3.02,-2.59,-3.02,-2.59,2.59,2.51,2.99,-0.43,-0.43,-0.43
147.78,-3.02,-2.52,-3.02,-2.52,2.52,2.44,2.91,-0.50,-0.50,-0.50
149.26,-3.02,-2.45,-3.02,-2.45,2.45,2.37,2.82,-0.57,-0.57,-0.57
150.75,-3.02,-2.37,-3.02,-2.38,2.38,2.30,2.73,-0.64,-0.63,-0.64
152.26,-3.02,-2.32,-3.02,-2.31,2.31,2.23,2.65,-0.70,-0.70,-0.70
153.78,-3.02,-2.25,-3.02,-2.25,2.25,2.16,2.56,-0.77,-0.77,-0.77
155.32,-3.02,-2.19,-3.02,-2.18,2.18,2.10,2.48,-0.84,-0.84,-0.83
156.88,-3.02,-2.12,-3.02,-2.11,2.11,2.03,2.39,-0.91,-0.91,-0.90
158.44,-3.02,-2.04,-3.02,-2.04,2.04,1.97,2.31,-0.98,-0.98,-0.97
160.03,-3.02,-1.97,-3.02,-1.97,1.97,1.90,2.23,-1.05,-1.05,-1.04
161.63,-3.02,-1.91,-3.02,-1.90,1.90,1.84,2.14,-1.11,-1.12,-1.11
163.24,-3.02,-1.83,-3.03,-1.84,1.84,1.78,2.06,-1.18,-1.19,-1.19
164.88,-3.02,-1.76,-3.03,-1.77,1.77,1.71,1.98,-1.25,-1.26,-1.26
166.53,-3.03,-1.70,-3.03,-1.70,1.70,1.65,1.90,-1.32,-1.33,-1.33
168.19,-3.03,-1.63,-3.04,-1.64,1.64,1.59,1.82,-1.39,-1.40,-1.40
169.87,-3.04,-1.57,-3.04,-1.57,1.57,1.54,1.74,-1.47,-1.47,-1.47
171.57,-3.05,-1.51,-3.05,-1.51,1.51,1.48,1.66,-1.54,-1.54,-1.54
173.29,-3.05,-1.44,-3.05,-1.44,1.44,1.42,1.59,-1.60,-1.60,-1.61
175.02,-3.06,-1.39,-3.05,-1.38,1.38,1.36,1.51,-1.68,-1.67,-1.67
176.77,-3.06,-1.32,-3.05,-1.32,1.32,1.31,1.43,-1.74,-1.73,-1.74
178.54,-3.06,-1.26,-3.05,-1.25,1.25,1.25,1.36,-1.80,-1.80,-1.80
180.32,-3.06,-1.19,-3.05,-1.19,1.19,1.20,1.29,-1.87,-1.86,-1.87
182.13,-3.05,-1.13,-3.04,-1.13,1.13,1.14,1.21,-1.92,-1.92,-1.92
183.95,-3.04,-1.07,-3.03,-1.06,1.06,1.09,1.14,-1.98,-1.97,-1.97
185.79,-3.03,-1.00,-3.02,-0.99,0.99,1.03,1.07,-2.04,-2.03,-2.03
187.65,-3.02,-0.94,-3.01,-0.93,0.93,0.98,1.00,-2.09,-2.09,-2.08
189.52,-3.00,-0.86,-3.00,-0.86,0.86,0.93,0.93,-2.14,-2.14,-2.14
191.42,-2.99,-0.81,-2.99,-0.79,0.79,0.88,0.86,-2.19,-2.19,-2.18
193.33,-2.97,-0.73,-2.97,-0.73,0.73,0.82,0.80,-2.24,-2.24,-2.24
195.27,-2.96,-0.67,-2.96,-0.67,0.67,0.77,0.73,-2.29,-2.29,-2.29
197.22,-2.94,-0.59,-2.95,-0.61,0.61,0.72,0.67,-2.33,-2.34,-2.35
199.19,-2.93,-0.54,-2.94,-0.55,0.55,0.67,0.60,-2.38,-2.39,-2.39
201.18,-2.93,-0.48,-2.93,-0.50,0.50,0.62,0.54,-2.43,-2.44,-2.44
203.19,-2.92,-0.43,-2.93,-0.44,0.44,0.57,0.48,-2.48,-2.48,-2.49
205.23,-2.92,-0.39,-2.92,-0.39,0.39,0.52,0.41,-2.53,-2.53,-2.53
207.28,-2.92,-0.35,-2.92,-0.34,0.34,0.47,0.35,-2.57,-2.58,-2.57
209.35,-2.92,-0.30,-2.92,-0.30,0.30,0.43,0.29,-2.62,-2.62,-2.62
211.44,-2.92,-0.26,-2.92,-0.26,0.26,0.38,0.24,-2.66,-2.67,-2.66
213.56,-2.93,-0.23,-2.93,-0.22,0.22,0.33,0.18,-2.71,-2.71,-2.70
215.69,-2.93,-0.18,-2.93,-0.18,0.18,0.29,0.13,-2.75,-2.75,-2.75
217.85,-2.93,-0.15,-2.93,-0.14,0.14,0.24,0.07,-2.79,-2.79,-2.78
220.03,-2.94,-0.10,-2.93,-0.10,0.10,0.20,0.02,-2.83,-2.83,-2.84
222.23,-2.94,-0.07,-2.93,-0.07,0.07,0.15,-0.03,-2.87,-2.86,-2.87
224.45,-2.94,-0.04,-2.93,-0.03,0.03,0.11,-0.08,-2.91,-2.90,-2.90
226.70,-2.94,-0.00,-2.93,0.00,-0.00,0.07,-0.12,-2.94,-2.93,-2.94
228.96,-2.94,0.02,-2.92,0.03,-0.03,0.03,-0.17,-2.97,-2.96,-2.96
231.25,-2.93,0.05,-2.92,0.06,-0.06,-0.01,-0.21,-2.99,-2.98,-2.98
233.57,-2.92,0.09,-2.92,0.08,-0.08,-0.05,-0.25,-3.00,-3.00,-3.01
235.90,-2.91,0.12,-2.91,0.11,-0.11,-0.09,-0.29,-3.02,-3.02,-3.03
238.26,-2.89,0.16,-2.91,0.13,-0.13,-0.13,-0.32,-3.02,-3.04,-3.05
240.64,-2.87,0.18,-2.90,0.15,-0.15,-0.16,-0.36,-3.02,-3.05,-3.05
243.05,-2.87,0.19,-2.89,0.17,-0.17,-0.20,-0.39,-3.04,-3.06,-3.06
245.48,-2.91,0.17,-2.89,0.19,-0.19,-0.23,-0.41,-3.10,-3.08,-3.08
247.93,-2.91,0.19,-2.88,0.21,-0.21,-0.26,-0.44,-3.12,-3.09,-3.10
250.41,-2.89,0.20,-2.88,0.22,-0.22,-0.29,-0.46,-3.11,-3.10,-3.09
252.92,-2.88,0.22,-2.87,0.24,-0.24,-0.32,-0.48,-3.12,-3.11,-3.10
255.45,-2.87,0.25,-2.87,0.25,-0.25,-0.35,-0.50,-3.12,-3.12,-3.12
258.00,-2.86,0.27,-2.87,0.27,-0.27,-0.37,-0.51,-3.13,-3.14,-3.13
260.58,-2.85,0.29,-2.86,0.28,-0.28,-0.39,-0.52,-3.13,-3.15,-3.14
263.19,-2.85,0.30,-2.86,0.30,-0.30,-0.42,-0.53,-3.15,-3.16,-3.15
265.82,-2.85,0.33,-2.86,0.31,-0.31,-0.44,-0.54,-3.16,-3.18,-3.18
268.48,-2.86,0.33,-2.86,0.33,-0.33,-0.45,-0.55,-3.19,-3.19,-3.19
271.16,-2.86,0.35,-2.86,0.35,-0.35,-0.47,-0.55,-3.21,-3.21,-3.21
273.87,-2.86,0.36,-2.86,0.37,-0.37,-0.49,-0.55,-3.23,-3.22,-3.22
276.61,-2.86,0.38,-2.85,0.38,-0.38,-0.50,-0.55,-3.24,-3.24,-3.24
279.38,-2.86,0.41,-2.85,0.40,-0.40,-0.51,-0.55,-3.26,-3.25,-3.27
282.17,-2.86,0.41,-2.85,0.41,-0.41,-0.52,-0.55,-3.27,-3.26,-3.27
284.99,-2.86,0.42,-2.84,0.43,-0.43,-0.53,-0.54,-3.29,-3.27,-3.28
287.84,-2.85,0.43,-2.84,0.44,-0.44,-0.54,-0.54,-3.29,-3.28,-3.28
290.72,-2.84,0.46,-2.83,0.46,-0.46,-0.54,-0.53,-3.30,-3.29,-3.30
293.63,-2.82,0.48,-2.82,0.48,-0.48,-0.55,-0.52,-3.30,-3.30,-3.30
296.57,-2.81,0.49,-2.81,0.50,-0.50,-0.55,-0.51,-3.31,-3.30,-3.30
299.53,-2.80,0.51,-2.80,0.51,-0.51,-0.55,-0.50,-3.31,-3.31,-3.31
302.53,-2.79,0.51,-2.79,0.53,-0.53,-0.55,-0.49,-3.32,-3.31,-3.30
305.55,-2.78,0.53,-2.78,0.54,-0.54,-0.55,-0.48,-3.32,-3.32,-3.31
308.61,-2.77,0.54,-2.77,0.54,-0.54,-0.55,-0.47,-3.31,-3.32,-3.31
311.69,-2.76,0.57,-2.77,0.55,-0.55,-0.55,-0.46,-3.31,-3.32,-3.33
314.81,-2.76,0.56,-2.77,0.55,-0.55,-0.54,-0.45,-3.31,-3.33,-3.32
317.96,-2.76,0.58,-2.78,0.55,-0.55,-0.54,-0.44,-3.31,-3.33,-3.34
321.14,-2.75,0.59,-2.79,0.55,-0.55,-0.53,-0.43,-3.30,-3.34,-3.34
324.35,-2.76,0.58,-2.79,0.55,-0.55,-0.53,-0.42,-3.30,-3.34,-3.34
327.59,-2.79,0.55,-2.80,0.54,-0.54,-0.52,-0.40,-3.33,-3.34,-3.34
330.87,-2.84,0.50,-2.81,0.53,-0.53,-0.51,-0.39,-3.37,-3.35,-3.34
334.18,-2.86,0.50,-2.82,0.53,-0.53,-0.51,-0.38,-3.38,-3.35,-3.36
337.52,-2.86,0.49,-2.84,0.52,-0.52,-0.50,-0.37,-3.38,-3.35,-3.35
340.90,-2.86,0.50,-2.85,0.51,-0.51,-0.49,-0.36,-3.37,-3.35,-3.36
344.30,-2.87,0.48,-2.85,0.50,-0.50,-0.48,-0.35,-3.37,-3.35,-3.35
347.75,-2.87,0.48,-2.86,0.50,-0.50,-0.47,-0.34,-3.36,-3.35,-3.35
351.23,-2.86,0.50,-2.86,0.49,-0.49,-0.47,-0.33,-3.35,-3.35,-3.36
354.74,-2.86,0.49,-2.85,0.49,-0.49,-0.46,-0.32,-3.35,-3.35,-3.35
358.28,-2.86,0.49,-2.85,0.49,-0.49,-0.45,-0.32,-3.35,-3.34,-3.35
361.87,-2.85,0.49,-2.85,0.49,-0.49,-0.44,-0.31,-3.34,-3.34,-3.34
365.49,-2.85,0.49,-2.85,0.49,-0.49,-0.43,-0.30,-3.34,-3.34,-3.34
369.14,-2.84,0.49,-2.84,0.49,-0.49,-0.42,-0.29,-3.33,-3.34,-3.33
372.83,-2.83,0.50,-2.84,0.49,-0.49,-0.41,-0.28,-3.32,-3.33,-3.32
376.56,-2.82,0.51,-2.85,0.49,-0.49,-0.40,-0.28,-3.31,-3.33,-3.33
380.33,-2.81,0.52,-2.85,0.48,-0.48,-0.40,-0.27,-3.29,-3.33,-3.33
384.13,-2.81,0.52,-2.85,0.48,-0.48,-0.39,-0.26,-3.29,-3.33,-3.32
387.97,-2.86,0.47,-2.86,0.48,-0.48,-0.38,-0.26,-3.34,-3.34,-3.33
391.85,-2.89,0.44,-2.87,0.47,-0.47,-0.37,-0.25,-3.36,-3.34,-3.33
395.77,-2.90,0.44,-2.87,0.47,-0.47,-0.36,-0.25,-3.37,-3.35,-3.34
399.73,-2.90,0.45,-2.88,0.47,-0.47,-0.36,-0.24,-3.37,-3.35,-3.35
403.72,-2.90,0.44,-2.89,0.47,-0.47,-0.35,-0.24,-3.37,-3.36,-3.34
407.76,-2.91,0.45,-2.90,0.46,-0.46,-0.34,-0.24,-3.37,-3.36,-3.36
411.84,-2.91,0.45,-2.91,0.45,-0.45,-0.33,-0.23,-3.36,-3.37,-3.36
415.96,-2.91,0.46,-2.92,0.45,-0.45,-0.33,-0.23,-3.36,-3.37,-3.37
420.12,-2.91,0.47,-2.92,0.44,-0.44,-0.32,-0.23,-3.35,-3.36,-3.38
424.32,-2.90,0.47,-2.92,0.44,-0.44,-0.32,-0.22,-3.33,-3.36,-3.37
428.56,-2.89,0.46,-2.91,0.43,-0.43,-0.31,-0.22,-3.32,-3.34,-3.35
432.85,-2.88,0.45,-2.90,0.43,-0.43,-0.30,-0.22,-3.31,-3.33,-3.33
437.18,-2.90,0.43,-2.87,0.43,-0.43,-0.30,-0.22,-3.33,-3.30,-3.33
441.55,-2.91,0.38,-2.84,0.43,-0.43,-0.29,-0.21,-3.34,-3.27,-3.29
445.96,-2.87,0.38,-2.81,0.42,-0.42,-0.29,-0.21,-3.29,-3.23,-3.25
