frequency,raw,error,smoothed,error_smoothed,equalization,parametric_eq,fixed_band_eq,equalized_raw,equalized_smoothed,target
20.00,-13.68,-19.47,-13.67,-19.46,19.51,16.32,5.40,5.83,5.83,5.79
20.20,-13.54,-19.37,-13.55,-19.37,19.39,16.26,5.53,5.85,5.84,5.83
20.40,-13.40,-19.26,-13.41,-19.27,19.27,16.20,5.66,5.87,5.86,5.86
20.61,-13.26,-19.15,-13.27,-19.16,19.14,16.13,5.81,5.87,5.87,5.89
20.81,-13.12,-19.05,-13.12,-19.05,19.00,16.07,5.95,5.88,5.88,5.93
21.02,-12.97,-18.94,-12.96,-18.91,18.86,16.01,6.10,5.89,5.91,5.97
21.23,-12.77,-18.75,-12.77,-18.76,18.72,15.94,6.25,5.95,5.95,5.98
21.44,-12.57,-18.57,-12.57,-18.58,18.57,15.88,6.40,6.00,5.99,6.00
21.66,-12.37,-18.39,-12.37,-18.39,18.40,15.81,6.56,6.03,6.03,6.02
21.87,-12.18,-18.21,-12.18,-18.20,18.23,15.75,6.73,6.05,6.05,6.03
22.09,-11.99,-18.03,-12.00,-18.03,18.06,15.68,6.89,6.07,6.06,6.04
22.31,-11.83,-17.87,-11.83,-17.87,17.89,15.61,7.07,6.06,6.06,6.04
22.54,-11.68,-17.73,-11.67,-17.72,17.73,15.54,7.24,6.04,6.05,6.05
22.76,-11.52,-17.58,-11.52,-17.57,17.57,15.47,7.43,6.05,6.05,6.06
22.99,-11.36,-17.42,-11.36,-17.43,17.43,15.39,7.61,6.07,6.06,6.06
23.22,-11.21,-17.28,-11.21,-17.28,17.28,15.32,7.81,6.07,6.07,6.07
23.45,-11.06,-17.14,-11.06,-17.14,17.14,15.25,8.00,6.08,6.08,6.08
23.69,-10.91,-17.00,-10.91,-17.00,16.99,15.17,8.21,6.08,6.08,6.09
23.92,-10.76,-16.86,-10.76,-16.86,16.85,15.09,8.41,6.09,6.09,6.10
24.16,-10.60,-16.71,-10.60,-16.71,16.70,15.01,8.63,6.10,6.10,6.11
24.40,-10.44,-16.56,-10.44,-16.55,16.55,14.94,8.84,6.11,6.11,6.12
24.65,-10.29,-16.40,-10.29,-16.40,16.40,14.85,9.06,6.11,6.11,6.11
24.89,-10.13,-16.24,-10.13,-16.24,16.25,14.77,9.29,6.12,6.12,6.11
25.14,-9.98,-16.09,-9.98,-16.09,16.09,14.69,9.52,6.12,6.12,6.11
25.39,-9.83,-15.94,-9.83,-15.94,15.95,14.61,9.76,6.12,6.12,6.11
25.65,-9.69,-15.80,-9.69,-15.79,15.80,14.52,10.00,6.11,6.12,6.11
25.91,-9.54,-15.63,-9.54,-15.64,15.66,14.43,10.24,6.11,6.11,6.09
26.16,-9.40,-15.50,-9.40,-15.50,15.51,14.35,10.49,6.11,6.11,6.10
26.43,-9.26,-15.36,-9.26,-15.36,15.35,14.26,10.74,6.09,6.09,6.10
26.69,-9.12,-15.22,-9.12,-15.22,15.19,14.16,10.99,6.07,6.07,6.10
26.96,-8.97,-15.07,-8.96,-15.06,15.02,14.07,11.24,6.05,6.06,6.10
27.23,-8.78,-14.88,-8.78,-14.88,14.85,13.98,11.49,6.07,6.07,6.10
27.50,-8.58,-14.68,-8.58,-14.68,14.68,13.88,11.74,6.10,6.10,6.10
27.77,-8.38,-14.47,-8.38,-14.47,14.51,13.78,11.98,6.14,6.13,6.09
28.05,-8.20,-14.29,-8.21,-14.29,14.34,13.69,12.23,6.14,6.13,6.09
28.33,-8.06,-14.13,-8.06,-14.14,14.17,13.58,12.46,6.11,6.10,6.07
28.62,-7.93,-14.01,-7.93,-14.00,13.99,13.48,12.68,6.06,6.06,6.08
28.90,-7.80,-13.88,-7.78,-13.86,13.82,13.38,12.89,6.02,6.04,6.08
29.19,-7.62,-13.69,-7.62,-13.69,13.66,13.27,13.08,6.04,6.05,6.07
29.48,-7.43,-13.51,-7.43,-13.51,13.51,13.16,13.25,6.08,6.08,6.08
29.78,-7.24,-13.32,-7.24,-13.32,13.36,13.05,13.41,6.11,6.11,6.08
30.08,-7.06,-13.14,-7.08,-13.15,13.19,12.94,13.53,6.13,6.12,6.08
30.38,-6.93,-12.99,-6.94,-13.01,13.02,12.83,13.64,6.08,6.07,6.06
30.68,-6.81,-12.87,-6.81,-12.87,12.83,12.71,13.70,6.02,6.02,6.06
30.99,-6.69,-12.74,-6.66,-12.71,12.65,12.59,13.75,5.95,5.99,6.05
31.30,-6.46,-12.51,-6.46,-12.51,12.46,12.47,13.75,6.00,6.00,6.05
31.61,-6.22,-12.27,-6.23,-12.27,12.27,12.35,13.73,6.05,6.04,6.05
31.93,-5.99,-12.02,-6.01,-12.04,12.09,12.22,13.66,6.10,6.08,6.03
32.24,-5.82,-11.84,-5.83,-11.85,11.90,12.09,13.58,6.08,6.07,6.02
32.57,-5.68,-11.70,-5.67,-11.69,11.72,11.96,13.45,6.04,6.04,6.02
32.89,-5.54,-11.56,-5.53,-11.55,11.54,11.82,13.31,6.01,6.01,6.02
33.22,-5.38,-11.40,-5.38,-11.39,11.38,11.68,13.13,6.00,6.00,6.02
33.55,-5.22,-11.23,-5.22,-11.23,11.23,11.54,12.94,6.01,6.01,6.01
33.89,-5.06,-11.07,-5.07,-11.08,11.08,11.40,12.73,6.02,6.01,6.01
34.23,-4.92,-10.93,-4.93,-10.93,10.92,11.25,12.51,6.00,6.00,6.01
34.57,-4.79,-10.79,-4.79,-10.79,10.77,11.10,12.27,5.98,5.98,6.00
34.92,-4.65,-10.64,-4.64,-10.64,10.62,10.95,12.02,5.97,5.98,5.99
35.27,-4.48,-10.47,-4.47,-10.46,10.47,10.79,11.77,5.99,6.00,5.99
35.62,-4.30,-10.28,-4.30,-10.28,10.32,10.63,11.51,6.02,6.02,5.98
35.97,-4.12,-10.09,-4.15,-10.12,10.17,10.47,11.24,6.05,6.02,5.97
36.33,-4.02,-9.99,-4.03,-10.00,9.99,10.30,10.98,5.98,5.96,5.97
36.70,-3.93,-9.90,-3.92,-9.88,9.81,10.13,10.72,5.88,5.90,5.97
37.06,-3.80,-9.75,-3.76,-9.71,9.63,9.96,10.45,5.83,5.87,5.95
37.43,-3.54,-9.49,-3.54,-9.48,9.44,9.79,10.19,5.90,5.90,5.95
37.81,-3.27,-9.21,-3.30,-9.23,9.25,9.61,9.93,5.98,5.95,5.94
38.19,-3.06,-8.99,-3.07,-9.01,9.07,9.44,9.67,6.00,5.99,5.93
38.57,-2.91,-8.84,-2.90,-8.83,8.89,9.26,9.42,5.98,5.99,5.93
38.95,-2.76,-8.68,-2.76,-8.68,8.73,9.09,9.17,5.97,5.97,5.92
39.34,-2.65,-8.56,-2.65,-8.56,8.59,8.91,8.93,5.94,5.94,5.91
39.74,-2.55,-8.44,-2.54,-8.44,8.46,8.74,8.69,5.91,5.91,5.89
40.14,-2.45,-8.35,-2.46,-8.36,8.35,8.57,8.45,5.90,5.88,5.90
40.54,-2.37,-8.26,-2.37,-8.27,8.24,8.41,8.22,5.87,5.86,5.89
40.94,-2.29,-8.18,-2.27,-8.15,8.12,8.24,7.99,5.83,5.85,5.89
41.35,-2.14,-8.01,-2.14,-8.01,7.98,8.08,7.77,5.84,5.84,5.87
41.76,-1.97,-7.82,-1.98,-7.83,7.81,7.92,7.55,5.84,5.83,5.85
42.18,-1.81,-7.65,-1.81,-7.65,7.62,7.77,7.34,5.81,5.80,5.84
42.60,-1.64,-7.45,-1.64,-7.46,7.41,7.61,7.13,5.77,5.77,5.81
43.03,-1.46,-7.26,-1.43,-7.23,7.20,7.46,6.93,5.74,5.76,5.80
43.46,-1.22,-6.99,-1.21,-6.97,6.99,7.31,6.73,5.77,5.78,5.77
43.90,-0.97,-6.69,-1.00,-6.73,6.80,7.16,6.53,5.83,5.80,5.72
44.33,-0.83,-6.52,-0.83,-6.52,6.62,7.00,6.34,5.80,5.79,5.69
44.78,-0.73,-6.39,-0.73,-6.39,6.46,6.85,6.16,5.73,5.73,5.66
45.23,-0.67,-6.30,-0.68,-6.31,6.31,6.69,5.97,5.64,5.63,5.63
45.68,-0.64,-6.24,-0.63,-6.23,6.17,6.53,5.80,5.53,5.55,5.60
46.13,-0.57,-6.15,-0.53,-6.11,6.05,6.37,5.62,5.48,5.52,5.58
46.60,-0.39,-5.96,-0.40,-5.96,5.92,6.21,5.45,5.53,5.53,5.57
47.06,-0.21,-5.76,-0.24,-5.80,5.79,6.04,5.28,5.58,5.55,5.55
47.53,-0.09,-5.64,-0.09,-5.63,5.65,5.87,5.12,5.56,5.56,5.55
48.01,0.04,-5.51,0.05,-5.49,5.49,5.69,4.96,5.53,5.55,5.55
48.49,0.20,-5.33,0.19,-5.34,5.33,5.51,4.80,5.53,5.53,5.53
48.97,0.35,-5.17,0.35,-5.17,5.18,5.33,4.65,5.53,5.53,5.52
49.46,0.51,-5.00,0.51,-5.00,5.02,5.14,4.50,5.53,5.53,5.51
49.96,0.67,-4.84,0.66,-4.85,4.87,4.96,4.35,5.54,5.53,5.51
50.46,0.81,-4.71,0.81,-4.71,4.71,4.76,4.20,5.52,5.52,5.52
50.96,0.95,-4.58,0.95,-4.57,4.56,4.57,4.06,5.51,5.50,5.53
51.47,1.09,-4.43,1.09,-4.43,4.39,4.37,3.92,5.48,5.48,5.52
51.99,1.24,-4.26,1.25,-4.25,4.23,4.17,3.79,5.47,5.49,5.50
52.51,1.42,-4.07,1.42,-4.06,4.07,3.97,3.66,5.49,5.50,5.49
53.03,1.61,-3.85,1.58,-3.88,3.91,3.76,3.53,5.52,5.49,5.46
53.56,1.72,-3.71,1.73,-3.70,3.74,3.56,3.40,5.46,5.46,5.43
54.10,1.84,-3.55,1.85,-3.54,3.55,3.35,3.28,5.39,5.40,5.39
54.64,1.97,-3.37,1.96,-3.38,3.36,3.14,3.15,5.32,5.31,5.34
55.18,2.09,-3.20,2.08,-3.21,3.15,2.93,3.04,5.24,5.23,5.29
55.74,2.22,-3.02,2.25,-2.99,2.93,2.73,2.92,5.15,5.18,5.24
56.29,2.42,-2.77,2.44,-2.75,2.72,2.52,2.81,5.14,5.15,5.19
56.86,2.67,-2.46,2.64,-2.49,2.51,2.31,2.70,5.17,5.14,5.13
57.42,2.83,-2.23,2.82,-2.24,2.30,2.11,2.60,5.13,5.13,5.06
58.00,2.96,-2.04,2.98,-2.02,2.11,1.91,2.49,5.07,5.09,5.00
58.58,3.09,-1.85,3.08,-1.86,1.92,1.71,2.40,5.01,5.00,4.94
59.16,3.19,-1.70,3.15,-1.73,1.74,1.52,2.30,4.93,4.89,4.89
59.76,3.19,-1.64,3.22,-1.61,1.56,1.33,2.21,4.75,4.78,4.83
60.35,3.27,-1.49,3.29,-1.47,1.40,1.14,2.12,4.67,4.69,4.76
60.96,3.41,-1.30,3.40,-1.30,1.23,0.96,2.03,4.64,4.63,4.71
61.57,3.55,-1.09,3.55,-1.09,1.07,0.79,1.95,4.62,4.62,4.64
62.18,3.69,-0.88,3.69,-0.88,0.92,0.62,1.87,4.61,4.61,4.57
62.80,3.83,-0.70,3.81,-0.71,0.76,0.46,1.79,4.59,4.57,4.53
63.43,3.91,-0.56,3.91,-0.56,0.60,0.31,1.71,4.51,4.52,4.47
64.07,3.98,-0.45,3.99,-0.43,0.45,0.16,1.64,4.43,4.45,4.43
64.71,4.06,-0.32,4.04,-0.34,0.32,0.03,1.57,4.38,4.36,4.38
65.35,4.10,-0.23,4.09,-0.25,0.21,-0.10,1.51,4.31,4.30,4.33
66.01,4.10,-0.20,4.16,-0.14,0.12,-0.21,1.44,4.22,4.28,4.30
66.67,4.25,-0.01,4.23,-0.03,0.04,-0.32,1.38,4.29,4.28,4.26
67.33,4.33,0.10,4.30,0.07,-0.03,-0.41,1.32,4.30,4.26,4.23
68.01,4.33,0.13,4.34,0.14,-0.11,-0.50,1.27,4.22,4.23,4.20
68.69,4.33,0.16,4.32,0.16,-0.19,-0.58,1.21,4.14,4.14,4.17
69.37,4.33,0.20,4.34,0.21,-0.27,-0.65,1.16,4.06,4.07,4.13
70.07,4.35,0.25,4.40,0.29,-0.34,-0.70,1.11,4.01,4.06,4.10
70.77,4.51,0.42,4.47,0.39,-0.41,-0.75,1.06,4.10,4.06,4.09
71.48,4.56,0.51,4.54,0.48,-0.47,-0.79,1.01,4.09,4.07,4.05
72.19,4.56,0.53,4.58,0.55,-0.51,-0.82,0.97,4.05,4.07,4.03
72.91,4.56,0.57,4.57,0.58,-0.54,-0.84,0.92,4.02,4.03,3.99
73.64,4.56,0.60,4.54,0.58,-0.56,-0.86,0.88,4.00,3.98,3.96
74.38,4.50,0.57,4.49,0.56,-0.54,-0.87,0.83,3.96,3.95,3.93
75.12,4.38,0.48,4.41,0.51,-0.50,-0.87,0.79,3.88,3.91,3.90
75.87,4.34,0.47,4.32,0.45,-0.44,-0.87,0.75,3.90,3.88,3.87
76.63,4.22,0.38,4.22,0.38,-0.36,-0.86,0.71,3.86,3.86,3.84
77.40,4.11,0.30,4.11,0.30,-0.29,-0.85,0.67,3.82,3.82,3.81
78.17,4.01,0.23,3.99,0.21,-0.23,-0.83,0.63,3.78,3.77,3.78
78.95,3.88,0.11,3.91,0.15,-0.19,-0.81,0.59,3.69,3.73,3.77
79.74,3.87,0.12,3.87,0.12,-0.17,-0.79,0.55,3.70,3.69,3.75
80.54,3.87,0.14,3.85,0.12,-0.20,-0.76,0.52,3.67,3.65,3.73
81.35,3.88,0.17,3.90,0.18,-0.25,-0.74,0.48,3.63,3.65,3.71
82.16,3.92,0.21,3.95,0.24,-0.31,-0.71,0.44,3.61,3.64,3.71
82.98,4.10,0.39,4.05,0.34,-0.36,-0.68,0.40,3.74,3.69,3.71
83.81,4.10,0.40,4.16,0.46,-0.38,-0.64,0.36,3.72,3.78,3.70
84.65,4.25,0.56,4.23,0.53,-0.37,-0.61,0.32,3.88,3.86,3.69
85.50,4.24,0.54,4.19,0.49,-0.32,-0.58,0.28,3.92,3.87,3.70
86.35,4.05,0.35,4.06,0.36,-0.24,-0.55,0.24,3.81,3.82,3.70
87.22,3.83,0.13,3.82,0.12,-0.13,-0.52,0.20,3.70,3.70,3.70
88.09,3.58,-0.12,3.61,-0.10,-0.01,-0.48,0.16,3.57,3.60,3.70
88.97,3.43,-0.29,3.47,-0.24,0.11,-0.45,0.12,3.54,3.58,3.72
89.86,3.42,-0.30,3.41,-0.31,0.20,-0.42,0.08,3.62,3.61,3.72
90.76,3.42,-0.28,3.40,-0.31,0.26,-0.39,0.04,3.68,3.65,3.70
91.66,3.42,-0.29,3.41,-0.29,0.27,-0.36,-0.00,3.69,3.69,3.71
92.58,3.42,-0.26,3.46,-0.23,0.25,-0.33,-0.04,3.67,3.71,3.68
93.51,3.52,-0.17,3.52,-0.16,0.20,-0.31,-0.09,3.72,3.72,3.69
94.44,3.63,-0.04,3.60,-0.07,0.12,-0.28,-0.13,3.75,3.72,3.67
95.39,3.65,-0.01,3.64,-0.01,0.05,-0.26,-0.17,3.70,3.69,3.66
96.34,3.65,0.03,3.65,0.02,-0.03,-0.24,-0.21,3.62,3.62,3.62
97.30,3.65,0.05,3.67,0.07,-0.11,-0.21,-0.26,3.54,3.56,3.60
98.28,3.70,0.12,3.73,0.16,-0.18,-0.20,-0.30,3.52,3.55,3.58
99.26,3.84,0.29,3.80,0.25,-0.24,-0.18,-0.34,3.60,3.56,3.55
100.25,3.87,0.35,3.86,0.34,-0.30,-0.16,-0.39,3.57,3.56,3.52
101.25,3.87,0.38,3.88,0.40,-0.36,-0.14,-0.43,3.51,3.52,3.49
102.27,3.87,0.42,3.87,0.43,-0.43,-0.13,-0.47,3.44,3.45,3.45
103.29,3.87,0.47,3.87,0.47,-0.49,-0.12,-0.51,3.38,3.38,3.40
104.32,3.87,0.51,3.87,0.51,-0.54,-0.11,-0.56,3.33,3.33,3.36
105.37,3.87,0.56,3.87,0.56,-0.58,-0.10,-0.60,3.29,3.29,3.31
106.42,3.87,0.61,3.88,0.63,-0.61,-0.09,-0.64,3.26,3.28,3.26
107.48,3.87,0.68,3.87,0.68,-0.64,-0.08,-0.68,3.23,3.23,3.19
108.56,3.87,0.76,3.82,0.70,-0.68,-0.07,-0.72,3.19,3.14,3.11
109.64,3.73,0.69,3.75,0.70,-0.72,-0.07,-0.76,3.01,3.03,3.04
110.74,3.65,0.67,3.68,0.71,-0.76,-0.07,-0.79,2.89,2.93,2.98
111.85,3.65,0.74,3.64,0.74,-0.79,-0.06,-0.83,2.86,2.85,2.91
112.97,3.65,0.83,3.65,0.82,-0.82,-0.06,-0.86,2.83,2.83,2.82
114.10,3.65,0.89,3.64,0.89,-0.86,-0.06,-0.89,2.79,2.78,2.76
115.24,3.62,0.94,3.58,0.91,-0.89,-0.06,-0.92,2.73,2.70,2.68
116.39,3.49,0.89,3.51,0.91,-0.91,-0.07,-0.95,2.58,2.61,2.60
117.55,3.42,0.88,3.47,0.93,-0.92,-0.07,-0.97,2.50,2.55,2.54
118.73,3.42,0.95,3.40,0.92,-0.91,-0.07,-0.99,2.51,2.48,2.47
119.92,3.41,0.98,3.34,0.92,-0.90,-0.08,-1.01,2.51,2.45,2.43
121.12,3.19,0.82,3.27,0.90,-0.87,-0.08,-1.03,2.32,2.40,2.37
122.33,3.19,0.86,3.16,0.82,-0.84,-0.09,-1.04,2.35,2.32,2.33
123.55,3.09,0.78,3.06,0.76,-0.81,-0.09,-1.05,2.28,2.26,2.31
124.79,2.97,0.70,3.02,0.75,-0.77,-0.10,-1.06,2.20,2.25,2.27
126.03,2.96,0.73,2.97,0.74,-0.73,-0.11,-1.07,2.23,2.24,2.23
127.29,2.96,0.76,2.93,0.73,-0.71,-0.12,-1.07,2.25,2.22,2.20
128.57,2.91,0.75,2.87,0.71,-0.69,-0.13,-1.07,2.22,2.19,2.16
129.85,2.76,0.63,2.81,0.68,-0.69,-0.14,-1.06,2.07,2.12,2.13
131.15,2.74,0.64,2.75,0.65,-0.70,-0.15,-1.05,2.04,2.05,2.10
132.46,2.74,0.67,2.73,0.66,-0.71,-0.16,-1.04,2.03,2.02,2.07
133.79,2.74,0.70,2.74,0.71,-0.71,-0.17,-1.03,2.03,2.03,2.04
135.12,2.74,0.75,2.75,0.75,-0.72,-0.18,-1.02,2.02,2.04,1.99
136.48,2.74,0.78,2.74,0.78,-0.72,-0.19,-1.00,2.02,2.02,1.96
137.84,2.74,0.81,2.70,0.78,-0.73,-0.20,-0.98,2.01,1.96,1.93
139.22,2.62,0.74,2.63,0.75,-0.75,-0.21,-0.96,1.87,1.88,1.88
140.61,2.52,0.69,2.56,0.72,-0.76,-0.22,-0.94,1.76,1.80,1.83
142.02,2.51,0.70,2.51,0.70,-0.76,-0.23,-0.91,1.75,1.75,1.81
143.44,2.51,0.74,2.51,0.74,-0.75,-0.24,-0.88,1.76,1.75,1.77
144.87,2.51,0.78,2.52,0.79,-0.76,-0.25,-0.86,1.75,1.76,1.73
146.32,2.51,0.83,2.49,0.81,-0.77,-0.26,-0.83,1.74,1.72,1.68
147.78,2.46,0.82,2.43,0.80,-0.79,-0.27,-0.80,1.67,1.64,1.64
149.26,2.34,0.77,2.36,0.80,-0.82,-0.28,-0.77,1.52,1.54,1.57
150.75,2.28,0.79,2.31,0.81,-0.84,-0.29,-0.74,1.44,1.46,1.49
152.26,2.28,0.86,2.28,0.87,-0.87,-0.30,-0.71,1.41,1.41,1.42
153.78,2.28,0.93,2.25,0.91,-0.90,-0.31,-0.67,1.38,1.35,1.35
155.32,2.23,0.98,2.19,0.93,-0.93,-0.32,-0.64,1.30,1.26,1.25
156.88,2.07,0.89,2.12,0.94,-0.96,-0.33,-0.61,1.11,1.16,1.18
158.44,2.05,0.94,2.07,0.97,-0.99,-0.34,-0.58,1.06,1.09,1.11
160.03,2.05,1.02,2.04,1.00,-0.99,-0.34,-0.54,1.06,1.04,1.03
161.63,2.05,1.08,2.01,1.04,-0.98,-0.35,-0.51,1.07,1.03,0.97
163.24,1.91,0.99,1.92,1.00,-0.95,-0.36,-0.48,0.96,0.97,0.92
164.88,1.82,0.94,1.80,0.93,-0.91,-0.36,-0.44,0.91,0.89,0.88
166.53,1.65,0.81,1.69,0.85,-0.86,-0.37,-0.41,0.79,0.83,0.84
168.19,1.60,0.79,1.59,0.78,-0.81,-0.37,-0.38,0.79,0.79,0.81
169.87,1.54,0.74,1.50,0.70,-0.74,-0.37,-0.35,0.80,0.76,0.80
171.57,1.40,0.61,1.43,0.64,-0.67,-0.38,-0.32,0.73,0.76,0.79
173.29,1.37,0.58,1.40,0.60,-0.60,-0.38,-0.28,0.77,0.80,0.79
175.02,1.37,0.56,1.35,0.56,-0.54,-0.38,-0.25,0.83,0.82,0.81
176.77,1.37,0.57,1.30,0.50,-0.47,-0.38,-0.22,0.90,0.83,0.80
178.54,1.19,0.38,1.24,0.43,-0.40,-0.38,-0.19,0.79,0.84,0.81
180.32,1.14,0.32,1.17,0.36,-0.34,-0.38,-0.16,0.80,0.83,0.82
182.13,1.14,0.32,1.09,0.27,-0.28,-0.38,-0.13,0.86,0.81,0.82
183.95,1.05,0.23,1.03,0.21,-0.23,-0.37,-0.10,0.82,0.80,0.82
185.79,0.92,0.11,0.96,0.16,-0.19,-0.37,-0.07,0.73,0.78,0.81
187.65,0.91,0.12,0.91,0.12,-0.16,-0.36,-0.04,0.75,0.75,0.79
189.52,0.91,0.14,0.90,0.13,-0.15,-0.36,-0.01,0.76,0.75,0.77
191.42,0.91,0.16,0.91,0.16,-0.16,-0.35,0.01,0.75,0.75,0.75
193.33,0.91,0.18,0.91,0.17,-0.17,-0.34,0.04,0.74,0.74,0.73
195.27,0.91,0.18,0.91,0.19,-0.19,-0.33,0.07,0.72,0.72,0.73
197.22,0.91,0.20,0.91,0.21,-0.19,-0.32,0.10,0.72,0.72,0.71
199.19,0.91,0.24,0.92,0.23,-0.19,-0.31,0.12,0.72,0.73,0.67
201.18,0.91,0.24,0.90,0.23,-0.19,-0.30,0.15,0.72,0.71,0.67
203.19,0.87,0.22,0.84,0.19,-0.18,-0.29,0.18,0.69,0.65,0.65
205.23,0.74,0.12,0.77,0.13,-0.17,-0.28,0.20,0.57,0.59,0.62
207.28,0.68,0.06,0.70,0.09,-0.16,-0.26,0.23,0.52,0.55,0.62
209.35,0.68,0.08,0.67,0.08,-0.13,-0.25,0.26,0.55,0.54,0.60
211.44,0.68,0.11,0.69,0.11,-0.09,-0.23,0.28,0.59,0.60,0.57
213.56,0.68,0.11,0.68,0.11,-0.05,-0.22,0.31,0.63,0.63,0.57
215.69,0.68,0.11,0.62,0.06,-0.01,-0.20,0.33,0.67,0.61,0.57
217.85,0.48,-0.06,0.51,-0.04,0.04,-0.18,0.35,0.52,0.55,0.54
220.03,0.37,-0.16,0.38,-0.15,0.11,-0.16,0.38,0.48,0.49,0.53
222.23,0.26,-0.25,0.29,-0.23,0.20,-0.14,0.40,0.46,0.49,0.51
224.45,0.23,-0.28,0.25,-0.26,0.30,-0.12,0.42,0.53,0.54,0.51
226.70,0.23,-0.28,0.16,-0.34,0.39,-0.10,0.45,0.62,0.56,0.51
228.96,0.07,-0.43,0.04,-0.46,0.49,-0.07,0.47,0.56,0.53,0.50
231.25,-0.16,-0.66,-0.10,-0.60,0.57,-0.05,0.49,0.41,0.47,0.50
233.57,-0.23,-0.72,-0.21,-0.70,0.63,-0.03,0.51,0.40,0.42,0.49
235.90,-0.23,-0.71,-0.25,-0.73,0.68,-0.00,0.53,0.45,0.44,0.48
238.26,-0.23,-0.71,-0.24,-0.71,0.72,0.02,0.55,0.49,0.48,0.48
240.64,-0.23,-0.71,-0.23,-0.71,0.73,0.05,0.57,0.50,0.50,0.48
243.05,-0.23,-0.72,-0.25,-0.74,0.72,0.08,0.59,0.49,0.47,0.49
245.48,-0.23,-0.73,-0.22,-0.72,0.69,0.10,0.60,0.46,0.46,0.50
247.93,-0.23,-0.74,-0.16,-0.67,0.65,0.13,0.62,0.42,0.48,0.51
250.41,-0.04,-0.54,-0.09,-0.60,0.61,0.16,0.64,0.57,0.52,0.50
252.92,-0.00,-0.51,-0.02,-0.54,0.58,0.19,0.65,0.58,0.56,0.51
255.45,0.00,-0.54,0.02,-0.51,0.56,0.22,0.67,0.56,0.58,0.54
258.00,0.00,-0.54,0.00,-0.54,0.55,0.25,0.69,0.55,0.55,0.54
260.58,0.00,-0.54,0.00,-0.55,0.54,0.28,0.70,0.54,0.54,0.54
263.19,0.00,-0.56,-0.00,-0.55,0.54,0.31,0.71,0.54,0.54,0.56
265.82,0.00,-0.56,-0.00,-0.57,0.56,0.35,0.73,0.56,0.56,0.56
268.48,0.00,-0.59,-0.00,-0.58,0.58,0.38,0.74,0.58,0.58,0.59
271.16,0.00,-0.60,-0.00,-0.60,0.60,0.41,0.75,0.60,0.60,0.60
273.87,0.00,-0.61,-0.00,-0.62,0.62,0.44,0.77,0.62,0.62,0.61
276.61,0.00,-0.65,-0.00,-0.64,0.64,0.48,0.78,0.64,0.64,0.65
279.38,0.00,-0.66,-0.00,-0.66,0.66,0.51,0.79,0.66,0.66,0.66
282.17,0.00,-0.69,-0.00,-0.69,0.68,0.55,0.81,0.68,0.68,0.69
284.99,0.00,-0.72,-0.00,-0.72,0.70,0.58,0.82,0.70,0.70,0.72
287.84,0.00,-0.74,-0.00,-0.75,0.73,0.61,0.83,0.73,0.73,0.74
290.72,0.00,-0.78,0.00,-0.77,0.76,0.65,0.85,0.76,0.76,0.78
293.63,0.00,-0.80,0.00,-0.80,0.81,0.68,0.86,0.81,0.81,0.80
296.57,0.00,-0.83,0.02,-0.81,0.86,0.72,0.87,0.86,0.88,0.83
299.53,-0.00,-0.86,-0.01,-0.86,0.91,0.76,0.89,0.91,0.90,0.86
302.53,-0.01,-0.88,-0.07,-0.95,0.96,0.79,0.90,0.95,0.89,0.87
305.55,-0.20,-1.11,-0.15,-1.05,1.02,0.83,0.92,0.82,0.87,0.91
308.61,-0.23,-1.16,-0.21,-1.14,1.08,0.86,0.93,0.85,0.86,0.93
311.69,-0.23,-1.17,-0.25,-1.20,1.14,0.90,0.95,0.91,0.89,0.94
314.81,-0.23,-1.20,-0.22,-1.18,1.20,0.93,0.96,0.97,0.98,0.97
317.96,-0.23,-1.20,-0.24,-1.20,1.25,0.97,0.98,1.02,1.02,0.97
321.14,-0.24,-1.20,-0.30,-1.26,1.29,1.01,1.00,1.05,1.00,0.96
324.35,-0.41,-1.38,-0.37,-1.34,1.33,1.04,1.02,0.92,0.96,0.97
327.59,-0.46,-1.44,-0.44,-1.41,1.37,1.08,1.04,0.91,0.93,0.98
330.87,-0.46,-1.45,-0.47,-1.46,1.41,1.11,1.06,0.95,0.94,0.99
334.18,-0.46,-1.45,-0.45,-1.44,1.47,1.15,1.08,1.01,1.02,0.99
337.52,-0.46,-1.46,-0.46,-1.47,1.53,1.19,1.10,1.07,1.06,1.00
340.90,-0.46,-1.49,-0.52,-1.54,1.58,1.22,1.12,1.12,1.06,1.03
344.30,-0.63,-1.67,-0.59,-1.63,1.63,1.26,1.15,1.00,1.04,1.04
347.75,-0.68,-1.73,-0.66,-1.71,1.68,1.29,1.17,1.00,1.02,1.05
351.23,-0.68,-1.76,-0.69,-1.77,1.72,1.33,1.20,1.04,1.03,1.08
354.74,-0.68,-1.78,-0.68,-1.79,1.77,1.36,1.22,1.09,1.08,1.10
358.28,-0.68,-1.81,-0.68,-1.81,1.81,1.40,1.25,1.13,1.13,1.13
361.87,-0.68,-1.83,-0.68,-1.83,1.84,1.44,1.28,1.16,1.16,1.15
365.49,-0.68,-1.85,-0.68,-1.85,1.87,1.47,1.31,1.19,1.19,1.17
369.14,-0.68,-1.87,-0.68,-1.87,1.88,1.50,1.34,1.20,1.20,1.19
372.83,-0.68,-1.90,-0.68,-1.90,1.90,1.54,1.37,1.22,1.22,1.22
376.56,-0.68,-1.92,-0.68,-1.92,1.92,1.57,1.40,1.24,1.24,1.24
380.33,-0.68,-1.95,-0.68,-1.95,1.94,1.61,1.43,1.26,1.26,1.27
384.13,-0.68,-1.97,-0.68,-1.97,1.96,1.64,1.47,1.28,1.28,1.29
387.97,-0.68,-1.98,-0.68,-1.98,1.97,1.67,1.50,1.29,1.29,1.30
391.85,-0.68,-1.98,-0.68,-1.98,1.98,1.71,1.54,1.30,1.30,1.30
395.77,-0.68,-1.99,-0.68,-1.99,2.00,1.74,1.57,1.32,1.32,1.31
399.73,-0.68,-2.00,-0.68,-2.00,2.01,1.77,1.61,1.33,1.33,1.32
403.72,-0.68,-2.01,-0.68,-2.01,2.01,1.81,1.64,1.33,1.33,1.33
407.76,-0.68,-2.02,-0.68,-2.02,2.02,1.84,1.68,1.34,1.34,1.34
411.84,-0.68,-2.03,-0.68,-2.03,2.03,1.87,1.72,1.35,1.35,1.35
415.96,-0.68,-2.04,-0.68,-2.04,2.03,1.90,1.76,1.35,1.35,1.36
420.12,-0.68,-2.04,-0.68,-2.04,2.03,1.93,1.79,1.35,1.35,1.36
424.32,-0.68,-2.04,-0.68,-2.04,2.04,1.96,1.83,1.36,1.36,1.36
428.56,-0.68,-2.04,-0.68,-2.04,2.04,1.99,1.87,1.36,1.36,1.36
432.85,-0.68,-2.03,-0.68,-2.04,2.04,2.02,1.90,1.36,1.36,1.35
437.18,-0.68,-2.04,-0.68,-2.04,2.04,2.05,1.94,1.36,1.36,1.36
441.55,-0.68,-2.05,-0.68,-2.04,2.05,2.08,1.97,1.37,1.37,1.37
445.96,-0.68,-2.05,-0.68,-2.05,2.05,2.11,2.01,1.37,1.37,1.37
450.42,-0.68,-2.06,-0.68,-2.06,2.06,2.14,2.04,1.38,1.38,1.38
454.93,-0.68,-2.07,-0.68,-2.07,2.07,2.17,2.07,1.39,1.39,1.39
459.48,-0.68,-2.08,-0.68,-2.08,2.08,2.19,2.10,1.40,1.40,1.40
464.07,-0.68,-2.10,-0.68,-2.10,2.10,2.22,2.13,1.42,1.42,1.42
468.71,-0.68,-2.12,-0.68,-2.12,2.12,2.25,2.16,1.44,1.44,1.44
473.40,-0.68,-2.13,-0.68,-2.14,2.14,2.28,2.18,1.46,1.46,1.45
478.13,-0.68,-2.16,-0.68,-2.16,2.16,2.30,2.21,1.48,1.48,1.48
482.91,-0.68,-2.18,-0.68,-2.18,2.18,2.33,2.23,1.50,1.50,1.50
487.74,-0.68,-2.21,-0.68,-2.21,2.21,2.35,2.25,1.53,1.53,1.53
492.62,-0.68,-2.24,-0.68,-2.24,2.23,2.38,2.26,1.55,1.55,1.56
497.55,-0.68,-2.26,-0.68,-2.26,2.26,2.40,2.28,1.58,1.58,1.58
502.52,-0.68,-2.29,-0.68,-2.28,2.28,2.42,2.29,1.60,1.60,1.61
507.55,-0.68,-2.30,-0.68,-2.30,2.31,2.45,2.30,1.63,1.63,1.62
512.62,-0.68,-2.33,-0.68,-2.33,2.33,2.47,2.31,1.65,1.65,1.65
