frequency,raw,error,smoothed,error_smoothed,equalization,parametric_eq,fixed_band_eq,equalized_raw,equalized_smoothed,target
20.00,-0.19,-6.12,-0.19,-6.15,6.15,6.05,1.42,5.96,5.96,5.94
20.20,-0.13,-6.06,-0.13,-6.08,6.08,6.07,1.46,5.96,5.95,5.94
20.40,-0.08,-6.01,-0.07,-6.01,6.01,6.09,1.51,5.94,5.94,5.94
20.61,-0.02,-5.95,-0.01,-5.94,5.94,6.10,1.55,5.92,5.93,5.94
20.81,0.05,-5.88,0.05,-5.87,5.87,6.10,1.60,5.92,5.92,5.94
21.02,0.11,-5.82,0.11,-5.80,5.80,6.09,1.64,5.91,5.91,5.93
21.23,0.18,-5.73,0.18,-5.72,5.72,6.07,1.69,5.91,5.90,5.91
21.44,0.24,-5.66,0.24,-5.65,5.65,6.04,1.74,5.89,5.89,5.90
21.66,0.30,-5.58,0.30,-5.57,5.57,6.01,1.79,5.87,5.87,5.88
21.87,0.36,-5.50,0.37,-5.49,5.49,5.96,1.85,5.85,5.86,5.86
22.09,0.43,-5.42,0.43,-5.41,5.41,5.91,1.90,5.84,5.84,5.85
22.31,0.49,-5.33,0.50,-5.33,5.33,5.85,1.96,5.82,5.82,5.82
22.54,0.55,-5.25,0.56,-5.24,5.24,5.78,2.01,5.79,5.80,5.80
22.76,0.63,-5.15,0.63,-5.15,5.15,5.71,2.07,5.79,5.78,5.78
22.99,0.69,-5.06,0.69,-5.06,5.06,5.63,2.13,5.76,5.76,5.75
23.22,0.75,-4.97,0.76,-4.98,4.98,5.54,2.19,5.73,5.73,5.72
23.45,0.82,-4.87,0.82,-4.89,4.89,5.45,2.26,5.71,5.71,5.70
23.69,0.89,-4.80,0.89,-4.80,4.80,5.35,2.32,5.69,5.69,5.69
23.92,0.96,-4.70,0.96,-4.71,4.71,5.26,2.38,5.67,5.67,5.67
24.16,1.03,-4.62,1.03,-4.62,4.62,5.15,2.45,5.66,5.65,5.66
24.40,1.09,-4.54,1.10,-4.53,4.53,5.05,2.52,5.63,5.63,5.63
24.65,1.16,-4.45,1.16,-4.45,4.45,4.94,2.59,5.61,5.61,5.61
24.89,1.23,-4.36,1.23,-4.36,4.36,4.84,2.65,5.59,5.59,5.59
25.14,1.30,-4.28,1.30,-4.27,4.27,4.73,2.72,5.58,5.58,5.58
25.39,1.37,-4.19,1.37,-4.19,4.19,4.62,2.79,5.56,5.56,5.56
25.65,1.44,-4.11,1.44,-4.10,4.10,4.51,2.86,5.54,5.54,5.55
25.91,1.51,-4.01,1.52,-4.01,4.01,4.40,2.93,5.52,5.53,5.52
26.16,1.58,-3.92,1.59,-3.92,3.92,4.29,3.00,5.51,5.51,5.51
26.43,1.65,-3.84,1.66,-3.84,3.84,4.18,3.06,5.49,5.50,5.50
26.69,1.73,-3.74,1.73,-3.75,3.75,4.07,3.13,5.48,5.48,5.47
26.96,1.80,-3.66,1.80,-3.66,3.66,3.96,3.19,5.46,5.46,5.46
27.23,1.88,-3.57,1.88,-3.57,3.57,3.86,3.25,5.46,5.45,5.45
27.50,1.94,-3.50,1.95,-3.49,3.49,3.75,3.31,5.43,5.43,5.44
27.77,2.02,-3.40,2.02,-3.40,3.40,3.65,3.37,5.43,5.42,5.42
28.05,2.09,-3.31,2.09,-3.32,3.32,3.55,3.42,5.41,5.41,5.41
28.33,2.16,-3.22,2.16,-3.23,3.23,3.45,3.47,5.39,5.39,5.39
28.62,2.23,-3.14,2.23,-3.15,3.15,3.35,3.52,5.38,5.38,5.37
28.90,2.29,-3.07,2.30,-3.06,3.06,3.25,3.56,5.36,5.37,5.36
29.19,2.36,-2.98,2.37,-2.98,2.98,3.16,3.60,5.34,5.35,5.34
29.48,2.43,-2.91,2.44,-2.90,2.90,3.06,3.63,5.33,5.34,5.34
29.78,2.50,-2.82,2.50,-2.82,2.82,2.97,3.65,5.32,5.32,5.33
30.08,2.57,-2.74,2.57,-2.74,2.74,2.89,3.67,5.31,5.31,5.31
30.38,2.63,-2.66,2.63,-2.66,2.66,2.80,3.69,5.29,5.29,5.29
30.68,2.70,-2.58,2.69,-2.59,2.59,2.71,3.69,5.29,5.28,5.28
30.99,2.76,-2.50,2.75,-2.51,2.51,2.63,3.70,5.27,5.26,5.26
31.30,2.81,-2.43,2.81,-2.43,2.43,2.55,3.69,5.25,5.24,5.25
31.61,2.87,-2.36,2.87,-2.36,2.36,2.47,3.68,5.23,5.23,5.23
31.93,2.92,-2.29,2.93,-2.28,2.28,2.40,3.66,5.20,5.21,5.21
32.24,2.97,-2.20,2.98,-2.20,2.20,2.32,3.63,5.18,5.19,5.18
32.57,3.03,-2.13,3.04,-2.13,2.13,2.25,3.60,5.16,5.17,5.17
32.89,3.08,-2.07,3.09,-2.05,2.05,2.18,3.56,5.14,5.15,5.15
33.22,3.14,-1.98,3.14,-1.98,1.98,2.11,3.52,5.12,5.12,5.12
33.55,3.19,-1.91,3.20,-1.91,1.91,2.04,3.47,5.10,5.10,5.11
33.89,3.24,-1.84,3.25,-1.83,1.83,1.97,3.42,5.08,5.08,5.08
34.23,3.30,-1.76,3.30,-1.76,1.76,1.91,3.36,5.06,5.06,5.06
34.57,3.35,-1.68,3.35,-1.69,1.69,1.84,3.30,5.04,5.04,5.04
34.92,3.40,-1.61,3.40,-1.62,1.62,1.78,3.23,5.02,5.02,5.01
35.27,3.45,-1.55,3.45,-1.55,1.55,1.72,3.16,5.00,5.00,5.00
35.62,3.49,-1.48,3.50,-1.48,1.48,1.66,3.09,4.97,4.98,4.97
35.97,3.54,-1.41,3.54,-1.41,1.41,1.61,3.01,4.96,4.95,4.95
36.33,3.59,-1.34,3.59,-1.35,1.35,1.55,2.94,4.94,4.93,4.94
36.70,3.62,-1.29,3.63,-1.28,1.28,1.50,2.86,4.90,4.91,4.91
37.06,3.67,-1.21,3.67,-1.22,1.22,1.44,2.78,4.89,4.89,4.89
37.43,3.71,-1.16,3.71,-1.15,1.15,1.39,2.69,4.87,4.87,4.87
37.81,3.75,-1.09,3.75,-1.09,1.09,1.34,2.61,4.85,4.85,4.85
38.19,3.79,-1.03,3.79,-1.03,1.03,1.29,2.53,4.83,4.82,4.82
38.57,3.82,-0.98,3.83,-0.97,0.97,1.24,2.44,4.80,4.80,4.81
38.95,3.86,-0.92,3.86,-0.92,0.92,1.19,2.36,4.78,4.78,4.78
39.34,3.90,-0.85,3.90,-0.86,0.86,1.15,2.28,4.77,4.76,4.76
39.74,3.93,-0.80,3.93,-0.81,0.81,1.10,2.19,4.74,4.74,4.73
40.14,3.96,-0.76,3.97,-0.76,0.76,1.06,2.11,4.72,4.72,4.72
40.54,3.99,-0.70,4.00,-0.70,0.70,1.01,2.03,4.70,4.70,4.70
40.94,4.03,-0.65,4.03,-0.65,0.65,0.97,1.95,4.69,4.68,4.68
41.35,4.05,-0.60,4.05,-0.61,0.61,0.93,1.87,4.66,4.66,4.65
41.76,4.08,-0.56,4.08,-0.56,0.56,0.89,1.79,4.64,4.64,4.65
42.18,4.11,-0.52,4.11,-0.51,0.51,0.85,1.71,4.63,4.62,4.63
42.60,4.13,-0.47,4.13,-0.47,0.47,0.81,1.64,4.60,4.60,4.60
43.03,4.15,-0.44,4.16,-0.42,0.42,0.77,1.56,4.58,4.58,4.59
43.46,4.17,-0.39,4.18,-0.38,0.38,0.73,1.49,4.55,4.56,4.56
43.90,4.20,-0.33,4.20,-0.34,0.34,0.69,1.41,4.54,4.54,4.54
44.33,4.22,-0.29,4.22,-0.30,0.30,0.65,1.34,4.52,4.52,4.52
44.78,4.23,-0.26,4.24,-0.26,0.26,0.62,1.27,4.49,4.50,4.50
45.23,4.26,-0.21,4.26,-0.22,0.22,0.58,1.20,4.48,4.48,4.47
45.68,4.27,-0.17,4.27,-0.18,0.18,0.55,1.13,4.45,4.46,4.45
46.13,4.29,-0.13,4.29,-0.14,0.14,0.51,1.06,4.44,4.43,4.43
46.60,4.30,-0.11,4.30,-0.11,0.11,0.48,1.00,4.41,4.41,4.42
47.06,4.32,-0.07,4.32,-0.07,0.07,0.44,0.93,4.39,4.39,4.39
47.53,4.33,-0.04,4.33,-0.04,0.04,0.41,0.87,4.37,4.37,4.37
48.01,4.34,-0.02,4.34,-0.00,0.00,0.38,0.80,4.35,4.34,4.36
48.49,4.34,0.01,4.35,0.03,-0.03,0.34,0.74,4.32,4.32,4.33
48.97,4.35,0.06,4.35,0.06,-0.06,0.31,0.68,4.29,4.30,4.30
49.46,4.36,0.10,4.36,0.09,-0.09,0.28,0.62,4.27,4.27,4.26
49.96,4.36,0.13,4.36,0.12,-0.12,0.25,0.56,4.25,4.25,4.23
50.46,4.37,0.15,4.37,0.15,-0.15,0.21,0.50,4.23,4.22,4.22
50.96,4.37,0.17,4.37,0.18,-0.18,0.18,0.44,4.20,4.20,4.20
51.47,4.37,0.21,4.37,0.21,-0.21,0.15,0.39,4.17,4.17,4.16
51.99,4.37,0.24,4.38,0.23,-0.23,0.12,0.33,4.14,4.14,4.14
52.51,4.37,0.25,4.38,0.26,-0.26,0.09,0.28,4.11,4.12,4.12
53.03,4.37,0.28,4.38,0.29,-0.29,0.06,0.22,4.08,4.09,4.09
53.56,4.38,0.32,4.38,0.32,-0.32,0.03,0.17,4.06,4.06,4.07
54.10,4.38,0.34,4.38,0.35,-0.35,-0.00,0.12,4.04,4.04,4.04
54.64,4.37,0.36,4.38,0.37,-0.37,-0.03,0.06,4.00,4.01,4.01
55.18,4.38,0.40,4.38,0.40,-0.40,-0.06,0.01,3.99,3.98,3.98
55.74,4.38,0.43,4.38,0.42,-0.42,-0.09,-0.04,3.96,3.96,3.95
56.29,4.37,0.44,4.38,0.45,-0.45,-0.12,-0.09,3.92,3.93,3.93
56.86,4.37,0.48,4.37,0.47,-0.47,-0.16,-0.14,3.90,3.90,3.90
57.42,4.37,0.51,4.37,0.50,-0.50,-0.19,-0.19,3.88,3.87,3.87
58.00,4.36,0.52,4.36,0.52,-0.52,-0.22,-0.23,3.84,3.84,3.84
58.58,4.35,0.54,4.36,0.54,-0.54,-0.25,-0.28,3.81,3.81,3.81
59.16,4.35,0.57,4.35,0.57,-0.57,-0.28,-0.33,3.79,3.78,3.78
59.76,4.33,0.57,4.34,0.59,-0.59,-0.31,-0.37,3.75,3.75,3.76
60.35,4.32,0.60,4.32,0.60,-0.60,-0.34,-0.42,3.72,3.72,3.72
60.96,4.31,0.61,4.31,0.62,-0.62,-0.37,-0.46,3.69,3.69,3.71
61.57,4.29,0.63,4.30,0.64,-0.64,-0.40,-0.51,3.65,3.66,3.66
62.18,4.28,0.66,4.28,0.65,-0.65,-0.43,-0.55,3.63,3.63,3.62
62.80,4.26,0.67,4.26,0.67,-0.67,-0.46,-0.59,3.60,3.59,3.59
63.43,4.24,0.69,4.24,0.68,-0.68,-0.49,-0.64,3.57,3.56,3.55
64.07,4.21,0.69,4.22,0.69,-0.69,-0.53,-0.68,3.53,3.53,3.52
64.71,4.19,0.69,4.19,0.69,-0.69,-0.56,-0.72,3.50,3.50,3.50
65.35,4.16,0.70,4.17,0.70,-0.70,-0.59,-0.76,3.47,3.47,3.47
66.01,4.13,0.69,4.14,0.70,-0.70,-0.62,-0.80,3.43,3.44,3.44
66.67,4.11,0.71,4.11,0.70,-0.70,-0.66,-0.85,3.41,3.41,3.41
67.33,4.08,0.70,4.07,0.70,-0.70,-0.69,-0.89,3.39,3.38,3.38
68.01,4.03,0.69,4.04,0.69,-0.69,-0.72,-0.93,3.34,3.35,3.35
68.69,4.00,0.68,4.00,0.68,-0.68,-0.76,-0.97,3.32,3.32,3.32
69.37,3.96,0.68,3.96,0.67,-0.67,-0.79,-1.01,3.29,3.28,3.28
70.07,3.91,0.66,3.91,0.66,-0.66,-0.83,-1.06,3.25,3.25,3.25
70.77,3.87,0.65,3.87,0.65,-0.65,-0.86,-1.10,3.22,3.21,3.22
71.48,3.82,0.64,3.82,0.64,-0.64,-0.90,-1.14,3.18,3.18,3.18
72.19,3.77,0.63,3.77,0.63,-0.63,-0.93,-1.19,3.14,3.14,3.15
72.91,3.72,0.62,3.72,0.62,-0.62,-0.97,-1.23,3.11,3.10,3.10
73.64,3.66,0.60,3.66,0.60,-0.60,-1.01,-1.28,3.06,3.06,3.06
74.38,3.61,0.59,3.61,0.59,-0.59,-1.05,-1.32,3.02,3.02,3.02
75.12,3.56,0.59,3.56,0.58,-0.58,-1.08,-1.37,2.99,2.98,2.97
75.87,3.50,0.57,3.50,0.57,-0.57,-1.12,-1.42,2.93,2.93,2.93
76.63,3.45,0.56,3.45,0.56,-0.56,-1.16,-1.47,2.89,2.89,2.89
77.40,3.39,0.55,3.40,0.56,-0.56,-1.20,-1.52,2.84,2.84,2.84
78.17,3.35,0.57,3.35,0.56,-0.56,-1.24,-1.57,2.80,2.79,2.78
78.95,3.30,0.55,3.30,0.56,-0.56,-1.28,-1.62,2.74,2.75,2.75
79.74,3.25,0.55,3.26,0.56,-0.56,-1.33,-1.68,2.69,2.70,2.70
80.54,3.21,0.56,3.22,0.58,-0.58,-1.37,-1.74,2.64,2.65,2.65
81.35,3.19,0.60,3.19,0.60,-0.60,-1.41,-1.79,2.60,2.59,2.59
82.16,3.16,0.62,3.16,0.62,-0.62,-1.46,-1.85,2.54,2.54,2.54
82.98,3.13,0.64,3.14,0.65,-0.65,-1.50,-1.91,2.48,2.49,2.49
83.81,3.12,0.70,3.12,0.69,-0.69,-1.55,-1.98,2.43,2.43,2.43
84.65,3.10,0.73,3.11,0.74,-0.74,-1.59,-2.04,2.37,2.38,2.37
85.50,3.10,0.78,3.11,0.79,-0.79,-1.64,-2.11,2.31,2.32,2.32
86.35,3.10,0.84,3.11,0.85,-0.85,-1.69,-2.18,2.25,2.26,2.26
87.22,3.11,0.91,3.12,0.92,-0.92,-1.74,-2.25,2.20,2.21,2.20
88.09,3.13,0.99,3.14,0.99,-0.99,-1.79,-2.32,2.14,2.15,2.14
88.97,3.16,1.07,3.16,1.08,-1.08,-1.84,-2.39,2.09,2.09,2.09
89.86,3.18,1.15,3.19,1.17,-1.17,-1.89,-2.47,2.02,2.03,2.03
90.76,3.22,1.27,3.23,1.26,-1.26,-1.94,-2.54,1.96,1.97,1.96
91.66,3.26,1.36,3.27,1.36,-1.36,-1.99,-2.62,1.90,1.90,1.90
92.58,3.31,1.48,3.32,1.47,-1.47,-2.05,-2.70,1.84,1.84,1.83
93.51,3.36,1.58,3.37,1.59,-1.59,-2.10,-2.79,1.78,1.78,1.79
94.44,3.42,1.70,3.42,1.71,-1.71,-2.16,-2.87,1.72,1.71,1.72
95.39,3.48,1.83,3.48,1.83,-1.83,-2.22,-2.96,1.65,1.65,1.66
96.34,3.53,1.95,3.53,1.95,-1.95,-2.27,-3.04,1.58,1.58,1.58
97.30,3.59,2.08,3.59,2.08,-2.08,-2.33,-3.13,1.51,1.51,1.51
98.28,3.66,2.21,3.65,2.21,-2.21,-2.39,-3.22,1.45,1.45,1.45
99.26,3.71,2.34,3.72,2.34,-2.34,-2.45,-3.31,1.37,1.38,1.37
100.25,3.78,2.48,3.78,2.47,-2.47,-2.52,-3.41,1.31,1.31,1.30
101.25,3.84,2.61,3.84,2.60,-2.60,-2.58,-3.50,1.24,1.24,1.24
102.27,3.89,2.73,3.89,2.73,-2.73,-2.64,-3.59,1.16,1.16,1.16
103.29,3.95,2.87,3.95,2.86,-2.86,-2.71,-3.69,1.09,1.09,1.08
104.32,4.00,2.99,4.00,2.99,-2.99,-2.77,-3.78,1.01,1.01,1.01
105.37,4.06,3.12,4.06,3.12,-3.12,-2.84,-3.87,0.95,0.94,0.95
106.42,4.10,3.23,4.11,3.24,-3.24,-2.91,-3.96,0.86,0.87,0.87
107.48,4.15,3.36,4.15,3.37,-3.37,-2.97,-4.05,0.79,0.79,0.79
108.56,4.19,3.48,4.20,3.49,-3.49,-3.04,-4.14,0.71,0.71,0.71
109.64,4.24,3.61,4.24,3.60,-3.60,-3.11,-4.22,0.64,0.64,0.64
110.74,4.27,3.70,4.28,3.72,-3.72,-3.18,-4.30,0.55,0.56,0.57
111.85,4.31,3.82,4.31,3.83,-3.83,-3.25,-4.38,0.48,0.48,0.49
112.97,4.34,3.95,4.34,3.94,-3.94,-3.32,-4.46,0.41,0.40,0.39
114.10,4.36,4.04,4.36,4.04,-4.04,-3.39,-4.53,0.32,0.33,0.33
115.24,4.39,4.14,4.38,4.13,-4.13,-3.47,-4.59,0.26,0.25,0.25
116.39,4.40,4.24,4.40,4.23,-4.23,-3.54,-4.65,0.18,0.17,0.17
117.55,4.41,4.32,4.41,4.31,-4.31,-3.61,-4.71,0.10,0.10,0.09
118.73,4.41,4.40,4.41,4.39,-4.39,-3.68,-4.75,0.02,0.02,0.01
119.92,4.41,4.46,4.41,4.46,-4.46,-3.76,-4.79,-0.05,-0.05,-0.05
121.12,4.40,4.53,4.40,4.52,-4.52,-3.83,-4.82,-0.12,-0.12,-0.12
122.33,4.38,4.58,4.39,4.58,-4.58,-3.90,-4.85,-0.20,-0.20,-0.20
123.55,4.37,4.63,4.37,4.63,-4.63,-3.97,-4.86,-0.26,-0.27,-0.26
124.79,4.34,4.67,4.34,4.67,-4.67,-4.04,-4.87,-0.33,-0.34,-0.33
126.03,4.30,4.70,4.30,4.71,-4.71,-4.11,-4.87,-0.40,-0.40,-0.39
127.29,4.27,4.74,4.26,4.73,-4.73,-4.18,-4.86,-0.46,-0.47,-0.46
128.57,4.22,4.77,4.22,4.75,-4.75,-4.25,-4.85,-0.53,-0.54,-0.54
129.85,4.17,4.78,4.16,4.76,-4.76,-4.31,-4.82,-0.59,-0.60,-0.60
131.15,4.11,4.77,4.11,4.77,-4.77,-4.38,-4.79,-0.65,-0.66,-0.66
132.46,4.06,4.79,4.05,4.77,-4.77,-4.44,-4.75,-0.70,-0.72,-0.73
133.79,3.99,4.77,3.98,4.76,-4.76,-4.50,-4.71,-0.77,-0.78,-0.77
135.12,3.91,4.75,3.91,4.75,-4.75,-4.56,-4.66,-0.83,-0.83,-0.84
136.48,3.84,4.73,3.84,4.73,-4.73,-4.61,-4.60,-0.89,-0.88,-0.89
137.84,3.76,4.69,3.77,4.71,-4.71,-4.66,-4.54,-0.94,-0.94,-0.93
139.22,3.69,4.69,3.70,4.68,-4.68,-4.71,-4.47,-0.99,-0.98,-0.99
140.61,3.62,4.67,3.63,4.66,-4.66,-4.76,-4.40,-1.04,-1.03,-1.04
142.02,3.55,4.62,3.56,4.63,-4.63,-4.80,-4.32,-1.08,-1.07,-1.07
143.44,3.48,4.59,3.50,4.61,-4.61,-4.84,-4.25,-1.12,-1.11,-1.11
144.87,3.42,4.58,3.43,4.58,-4.58,-4.87,-4.17,-1.16,-1.15,-1.16
146.32,3.36,4.56,3.37,4.56,-4.56,-4.90,-4.08,-1.20,-1.19,-1.19
147.78,3.30,4.52,3.32,4.55,-4.55,-4.93,-4.00,-1.24,-1.23,-1.22
149.26,3.26,4.52,3.27,4.53,-4.53,-4.94,-3.91,-1.27,-1.27,-1.26
150.75,3.20,4.51,3.22,4.52,-4.52,-4.96,-3.83,-1.32,-1.30,-1.30
152.26,3.16,4.50,3.17,4.51,-4.51,-4.97,-3.74,-1.35,-1.34,-1.34
153.78,3.13,4.50,3.13,4.50,-4.50,-4.97,-3.65,-1.37,-1.37,-1.37
155.32,3.09,4.50,3.09,4.50,-4.50,-4.97,-3.57,-1.41,-1.41,-1.40
156.88,3.05,4.49,3.05,4.50,-4.50,-4.96,-3.48,-1.44,-1.44,-1.44
158.44,3.01,4.49,3.02,4.49,-4.49,-4.95,-3.40,-1.48,-1.48,-1.48
160.03,2.98,4.50,2.98,4.49,-4.49,-4.93,-3.32,-1.51,-1.51,-1.52
161.63,2.94,4.50,2.94,4.49,-4.49,-4.91,-3.23,-1.54,-1.54,-1.55
163.24,2.90,4.48,2.90,4.48,-4.48,-4.88,-3.15,-1.58,-1.58,-1.58
164.88,2.87,4.48,2.86,4.47,-4.47,-4.84,-3.08,-1.60,-1.61,-1.61
166.53,2.82,4.47,2.81,4.46,-4.46,-4.80,-3.00,-1.64,-1.65,-1.64
168.19,2.77,4.46,2.76,4.45,-4.45,-4.76,-2.92,-1.68,-1.69,-1.69
169.87,2.71,4.44,2.71,4.43,-4.43,-4.71,-2.85,-1.72,-1.72,-1.72
171.57,2.66,4.42,2.65,4.41,-4.41,-4.65,-2.78,-1.75,-1.76,-1.76
173.29,2.59,4.38,2.59,4.39,-4.39,-4.59,-2.71,-1.80,-1.80,-1.79
175.02,2.53,4.36,2.53,4.36,-4.36,-4.52,-2.64,-1.83,-1.84,-1.83
176.77,2.45,4.33,2.45,4.33,-4.33,-4.45,-2.58,-1.88,-1.88,-1.88
178.54,2.38,4.30,2.38,4.29,-4.29,-4.38,-2.51,-1.91,-1.92,-1.92
180.32,2.30,4.26,2.30,4.25,-4.25,-4.30,-2.45,-1.95,-1.96,-1.96
182.13,2.21,4.21,2.22,4.21,-4.21,-4.21,-2.39,-2.00,-2.00,-1.99
183.95,2.12,4.16,2.13,4.16,-4.16,-4.13,-2.34,-2.04,-2.04,-2.04
185.79,2.03,4.11,2.04,4.11,-4.11,-4.04,-2.28,-2.08,-2.08,-2.08
187.65,1.94,4.07,1.94,4.05,-4.05,-3.94,-2.23,-2.11,-2.11,-2.12
189.52,1.83,3.99,1.84,3.99,-3.99,-3.85,-2.18,-2.16,-2.15,-2.16
191.42,1.74,3.93,1.74,3.92,-3.92,-3.75,-2.13,-2.18,-2.19,-2.19
193.33,1.63,3.85,1.63,3.85,-3.85,-3.65,-2.08,-2.22,-2.22,-2.21
195.27,1.52,3.77,1.52,3.78,-3.78,-3.55,-2.03,-2.25,-2.25,-2.25
197.22,1.41,3.69,1.41,3.70,-3.70,-3.44,-1.99,-2.28,-2.29,-2.28
199.19,1.30,3.63,1.30,3.61,-3.61,-3.33,-1.95,-2.31,-2.32,-2.33
201.18,1.18,3.53,1.18,3.52,-3.52,-3.23,-1.90,-2.34,-2.34,-2.35
203.19,1.05,3.42,1.06,3.43,-3.43,-3.12,-1.86,-2.38,-2.37,-2.37
205.23,0.93,3.33,0.94,3.34,-3.34,-3.00,-1.82,-2.40,-2.40,-2.40
207.28,0.81,3.22,0.82,3.24,-3.24,-2.89,-1.79,-2.43,-2.42,-2.41
209.35,0.69,3.14,0.69,3.14,-3.14,-2.78,-1.75,-2.44,-2.44,-2.44
211.44,0.57,3.04,0.57,3.03,-3.03,-2.67,-1.71,-2.46,-2.47,-2.47
213.56,0.44,2.93,0.44,2.92,-2.92,-2.55,-1.68,-2.48,-2.48,-2.49
215.69,0.31,2.81,0.31,2.82,-2.82,-2.44,-1.64,-2.50,-2.50,-2.49
217.85,0.18,2.69,0.18,2.70,-2.70,-2.32,-1.61,-2.52,-2.52,-2.51
220.03,0.05,2.59,0.06,2.59,-2.59,-2.21,-1.57,-2.53,-2.53,-2.54
222.23,-0.07,2.48,-0.07,2.47,-2.47,-2.09,-1.54,-2.53,-2.54,-2.55
224.45,-0.20,2.35,-0.20,2.35,-2.35,-1.98,-1.51,-2.54,-2.55,-2.54
226.70,-0.33,2.23,-0.33,2.22,-2.22,-1.86,-1.47,-2.55,-2.55,-2.56
228.96,-0.46,2.10,-0.45,2.10,-2.10,-1.75,-1.44,-2.56,-2.56,-2.56
231.25,-0.59,1.97,-0.58,1.97,-1.97,-1.63,-1.40,-2.56,-2.56,-2.55
233.57,-0.71,1.84,-0.71,1.84,-1.84,-1.52,-1.37,-2.55,-2.55,-2.55
235.90,-0.84,1.71,-0.83,1.71,-1.71,-1.40,-1.33,-2.55,-2.55,-2.55
238.26,-0.96,1.59,-0.96,1.58,-1.58,-1.29,-1.30,-2.54,-2.54,-2.55
240.64,-1.08,1.45,-1.08,1.45,-1.45,-1.18,-1.26,-2.53,-2.53,-2.53
243.05,-1.20,1.32,-1.20,1.32,-1.32,-1.06,-1.22,-2.52,-2.52,-2.52
245.48,-1.32,1.18,-1.32,1.19,-1.19,-0.95,-1.18,-2.50,-2.50,-2.50
247.93,-1.44,1.05,-1.43,1.06,-1.06,-0.84,-1.14,-2.49,-2.49,-2.49
250.41,-1.55,0.93,-1.55,0.93,-0.93,-0.73,-1.10,-2.47,-2.47,-2.48
252.92,-1.66,0.79,-1.66,0.79,-0.79,-0.61,-1.05,-2.45,-2.45,-2.45
255.45,-1.78,0.65,-1.77,0.66,-0.66,-0.50,-1.01,-2.44,-2.43,-2.43
258.00,-1.88,0.53,-1.88,0.54,-0.54,-0.39,-0.96,-2.41,-2.41,-2.41
260.58,-1.98,0.42,-1.98,0.41,-0.41,-0.28,-0.92,-2.39,-2.39,-2.39
263.19,-2.09,0.28,-2.09,0.28,-0.28,-0.17,-0.87,-2.37,-2.37,-2.37
265.82,-2.19,0.16,-2.19,0.16,-0.16,-0.07,-0.82,-2.34,-2.35,-2.35
268.48,-2.30,0.03,-2.29,0.03,-0.03,0.04,-0.77,-2.33,-2.33,-2.33
271.16,-2.39,-0.09,-2.39,-0.09,0.09,0.15,-0.72,-2.30,-2.30,-2.29
273.87,-2.50,-0.22,-2.49,-0.21,0.21,0.25,-0.66,-2.29,-2.28,-2.28
276.61,-2.59,-0.34,-2.58,-0.33,0.33,0.36,-0.61,-2.26,-2.26,-2.25
279.38,-2.68,-0.44,-2.68,-0.45,0.45,0.46,-0.55,-2.23,-2.23,-2.23
282.17,-2.78,-0.57,-2.77,-0.57,0.57,0.57,-0.50,-2.21,-2.21,-2.21
284.99,-2.87,-0.68,-2.87,-0.68,0.68,0.67,-0.44,-2.18,-2.18,-2.19
287.84,-2.96,-0.80,-2.96,-0.80,0.80,0.77,-0.38,-2.16,-2.16,-2.16
290.72,-3.05,-0.92,-3.05,-0.92,0.92,0.87,-0.32,-2.13,-2.13,-2.13
293.63,-3.14,-1.03,-3.14,-1.03,1.03,0.97,-0.26,-2.10,-2.10,-2.11
296.57,-3.23,-1.15,-3.23,-1.15,1.15,1.06,-0.20,-2.08,-2.07,-2.08
299.53,-3.32,-1.27,-3.31,-1.27,1.27,1.16,-0.14,-2.05,-2.04,-2.05
302.53,-3.40,-1.37,-3.40,-1.39,1.39,1.26,-0.07,-2.01,-2.01,-2.03
305.55,-3.50,-1.52,-3.49,-1.51,1.51,1.35,-0.01,-1.99,-1.98,-1.98
308.61,-3.58,-1.62,-3.59,-1.63,1.63,1.44,0.06,-1.94,-1.95,-1.95
311.69,-3.67,-1.75,-3.68,-1.76,1.76,1.53,0.12,-1.91,-1.92,-1.92
314.81,-3.75,-1.86,-3.78,-1.89,1.89,1.62,0.19,-1.86,-1.89,-1.88
317.96,-3.85,-1.99,-3.88,-2.01,2.01,1.71,0.25,-1.83,-1.86,-1.86
321.14,-3.94,-2.11,-3.97,-2.14,2.14,1.79,0.32,-1.80,-1.83,-1.83
324.35,-4.03,-2.22,-4.07,-2.26,2.26,1.87,0.39,-1.76,-1.80,-1.80
327.59,-4.13,-2.36,-4.15,-2.38,2.38,1.95,0.46,-1.75,-1.77,-1.77
330.87,-4.22,-2.48,-4.23,-2.49,2.49,2.03,0.53,-1.73,-1.75,-1.74
334.18,-4.31,-2.58,-4.30,-2.58,2.58,2.11,0.60,-1.73,-1.72,-1.72
337.52,-4.38,-2.68,-4.36,-2.66,2.66,2.18,0.67,-1.72,-1.70,-1.70
340.90,-4.44,-2.77,-4.39,-2.72,2.72,2.25,0.75,-1.72,-1.67,-1.67
344.30,-4.49,-2.83,-4.41,-2.76,2.76,2.32,0.82,-1.73,-1.65,-1.65
347.75,-4.50,-2.87,-4.41,-2.78,2.78,2.39,0.89,-1.72,-1.63,-1.63
351.23,-4.47,-2.86,-4.39,-2.78,2.78,2.45,0.97,-1.69,-1.61,-1.61
354.74,-4.43,-2.84,-4.35,-2.76,2.76,2.51,1.05,-1.67,-1.59,-1.59
358.28,-4.36,-2.78,-4.30,-2.73,2.73,2.57,1.12,-1.63,-1.57,-1.57
361.87,-4.26,-2.70,-4.23,-2.68,2.68,2.62,1.20,-1.58,-1.55,-1.55
365.49,-4.16,-2.63,-4.16,-2.62,2.62,2.67,1.28,-1.53,-1.53,-1.53
369.14,-4.04,-2.52,-4.08,-2.56,2.56,2.72,1.36,-1.48,-1.51,-1.52
372.83,-3.94,-2.44,-3.99,-2.50,2.50,2.77,1.44,-1.44,-1.50,-1.50
376.56,-3.84,-2.35,-3.92,-2.44,2.44,2.81,1.52,-1.40,-1.48,-1.48
380.33,-3.77,-2.31,-3.84,-2.38,2.38,2.85,1.60,-1.38,-1.46,-1.46
384.13,-3.71,-2.27,-3.78,-2.34,2.34,2.88,1.68,-1.37,-1.44,-1.44
387.97,-3.68,-2.26,-3.72,-2.30,2.30,2.91,1.77,-1.37,-1.42,-1.42
391.85,-3.65,-2.25,-3.68,-2.28,2.28,2.94,1.85,-1.37,-1.40,-1.40
395.77,-3.64,-2.26,-3.65,-2.27,2.27,2.97,1.93,-1.37,-1.38,-1.37
399.73,-3.62,-2.26,-3.62,-2.27,2.27,2.99,2.02,-1.35,-1.36,-1.35
403.72,-3.62,-2.28,-3.61,-2.28,2.28,3.01,2.10,-1.34,-1.33,-1.34
407.76,-3.63,-2.31,-3.61,-2.29,2.29,3.02,2.18,-1.33,-1.31,-1.32
411.84,-3.63,-2.34,-3.61,-2.32,2.32,3.04,2.27,-1.31,-1.29,-1.29
415.96,-3.62,-2.35,-3.61,-2.34,2.34,3.05,2.35,-1.28,-1.27,-1.27
420.12,-3.63,-2.38,-3.61,-2.36,2.36,3.05,2.43,-1.26,-1.25,-1.25
424.32,-3.62,-2.40,-3.61,-2.39,2.39,3.05,2.51,-1.23,-1.23,-1.22
428.56,-3.62,-2.41,-3.61,-2.41,2.41,3.06,2.59,-1.21,-1.20,-1.20
432.85,-3.62,-2.43,-3.60,-2.42,2.42,3.05,2.66,-1.19,-1.18,-1.18
437.18,-3.60,-2.44,-3.59,-2.44,2.44,3.05,2.74,-1.16,-1.16,-1.16
441.55,-3.59,-2.46,-3.58,-2.45,2.45,3.04,2.81,-1.14,-1.13,-1.13
445.96,-3.58,-2.47,-3.56,-2.46,2.46,3.03,2.88,-1.12,-1.10,-1.11
450.42,-3.55,-2.46,-3.54,-2.46,2.46,3.02,2.94,-1.08,-1.08,-1.09
454.93,-3.53,-2.48,-3.52,-2.47,2.47,3.00,3.00,-1.06,-1.05,-1.05
459.48,-3.49,-2.46,-3.49,-2.47,2.47,2.99,3.06,-1.02,-1.03,-1.03
464.07,-3.47,-2.47,-3.46,-2.46,2.46,2.97,3.11,-1.00,-1.00,-1.00
468.71,-3.43,-2.47,-3.43,-2.46,2.46,2.95,3.16,-0.97,-0.97,-0.96
473.40,-3.40,-2.45,-3.40,-2.45,2.45,2.93,3.20,-0.94,-0.94,-0.94
478.13,-3.36,-2.44,-3.36,-2.44,2.44,2.90,3.24,-0.91,-0.91,-0.91
482.91,-3.32,-2.43,-3.32,-2.43,2.43,2.88,3.27,-0.88,-0.89,-0.88
487.74,-3.28,-2.42,-3.28,-2.42,2.42,2.85,3.29,-0.85,-0.86,-0.85
492.62,-3.24,-2.41,-3.24,-2.41,2.41,2.82,3.31,-0.83,-0.83,-0.83
497.55,-3.19,-2.38,-3.20,-2.39,2.39,2.79,3.32,-0.79,-0.80,-0.81
502.52,-3.16,-2.39,-3.15,-2.38,2.38,2.77,3.33,-0.78,-0.77,-0.77
507.55,-3.11,-2.36,-3.11,-2.36,2.36,2.74,3.32,-0.74,-0.75,-0.75
