frequency,raw,error,smoothed,error_smoothed,equalization,parametric_eq,fixed_band_eq,equalized_raw,equalized_smoothed,target
20.00,-9.07,-13.97,-9.07,-13.97,13.97,12.97,5.76,4.91,4.90,4.90
20.20,-9.02,-13.91,-9.02,-13.91,13.91,13.07,5.91,4.89,4.89,4.89
20.40,-8.97,-13.85,-8.97,-13.85,13.85,13.16,6.05,4.88,4.88,4.88
20.61,-8.92,-13.79,-8.92,-13.79,13.79,13.24,6.21,4.87,4.87,4.87
20.81,-8.87,-13.72,-8.87,-13.73,13.73,13.32,6.36,4.86,4.86,4.85
21.02,-8.83,-13.66,-8.82,-13.67,13.67,13.39,6.52,4.84,4.84,4.84
21.23,-8.78,-13.60,-8.77,-13.61,13.61,13.45,6.68,4.83,4.83,4.83
21.44,-8.73,-13.56,-8.72,-13.55,13.55,13.50,6.85,4.82,4.82,4.84
21.66,-8.68,-13.49,-8.67,-13.49,13.49,13.55,7.03,4.81,4.81,4.82
21.87,-8.63,-13.44,-8.62,-13.43,13.43,13.58,7.20,4.81,4.81,4.81
22.09,-8.58,-13.37,-8.58,-13.37,13.37,13.60,7.39,4.80,4.80,4.79
22.31,-8.53,-13.32,-8.53,-13.32,13.32,13.62,7.58,4.79,4.79,4.79
22.54,-8.48,-13.26,-8.48,-13.26,13.26,13.62,7.77,4.78,4.78,4.78
22.76,-8.43,-13.21,-8.43,-13.21,13.21,13.62,7.97,4.78,4.78,4.78
22.99,-8.38,-13.15,-8.38,-13.15,13.15,13.60,8.17,4.77,4.77,4.77
23.22,-8.33,-13.08,-8.33,-13.10,13.10,13.58,8.38,4.77,4.77,4.76
23.45,-8.28,-13.04,-8.28,-13.04,13.04,13.55,8.60,4.76,4.76,4.77
23.69,-8.23,-12.98,-8.23,-12.99,12.99,13.51,8.82,4.76,4.76,4.76
23.92,-8.19,-12.93,-8.18,-12.93,12.93,13.46,9.05,4.75,4.75,4.74
24.16,-8.14,-12.89,-8.13,-12.88,12.88,13.41,9.28,4.75,4.75,4.75
24.40,-8.09,-12.84,-8.08,-12.83,12.83,13.35,9.52,4.74,4.75,4.75
24.65,-8.04,-12.79,-8.03,-12.78,12.78,13.28,9.76,4.74,4.74,4.75
24.89,-7.99,-12.73,-7.99,-12.73,12.73,13.21,10.01,4.74,4.74,4.75
25.14,-7.94,-12.67,-7.94,-12.68,12.68,13.14,10.27,4.74,4.74,4.74
25.39,-7.89,-12.62,-7.89,-12.63,12.63,13.06,10.53,4.74,4.74,4.73
25.65,-7.85,-12.58,-7.84,-12.58,12.58,12.97,10.80,4.73,4.74,4.73
25.91,-7.80,-12.53,-7.79,-12.53,12.53,12.88,11.07,4.73,4.73,4.73
26.16,-7.75,-12.48,-7.75,-12.48,12.48,12.79,11.35,4.74,4.73,4.74
26.43,-7.70,-12.43,-7.70,-12.43,12.43,12.70,11.63,4.74,4.73,4.74
26.69,-7.66,-12.39,-7.65,-12.39,12.39,12.60,11.92,4.73,4.73,4.73
26.96,-7.61,-12.34,-7.61,-12.34,12.34,12.50,12.21,4.73,4.73,4.73
27.23,-7.56,-12.29,-7.56,-12.30,12.30,12.40,12.50,4.74,4.73,4.73
27.50,-7.52,-12.24,-7.52,-12.25,12.25,12.31,12.79,4.73,4.74,4.73
27.77,-7.48,-12.21,-7.47,-12.21,12.21,12.21,13.08,4.73,4.74,4.73
28.05,-7.43,-12.16,-7.42,-12.16,12.16,12.11,13.36,4.74,4.74,4.73
28.33,-7.39,-12.13,-7.38,-12.12,12.12,12.01,13.64,4.73,4.74,4.74
28.62,-7.34,-12.07,-7.34,-12.07,12.07,11.91,13.91,4.74,4.74,4.74
28.90,-7.30,-12.04,-7.29,-12.03,12.03,11.81,14.16,4.73,4.74,4.74
29.19,-7.25,-11.99,-7.25,-11.99,11.99,11.71,14.40,4.74,4.73,4.74
29.48,-7.21,-11.94,-7.21,-11.94,11.94,11.62,14.63,4.74,4.73,4.74
29.78,-7.17,-11.90,-7.17,-11.90,11.90,11.52,14.83,4.73,4.73,4.73
30.08,-7.13,-11.86,-7.13,-11.86,11.86,11.43,15.00,4.73,4.73,4.73
30.38,-7.09,-11.80,-7.09,-11.82,11.82,11.34,15.14,4.73,4.72,4.72
30.68,-7.06,-11.77,-7.06,-11.77,11.77,11.25,15.26,4.72,4.72,4.71
30.99,-7.02,-11.73,-7.02,-11.73,11.73,11.16,15.33,4.71,4.71,4.71
31.30,-6.99,-11.69,-6.99,-11.69,11.69,11.08,15.37,4.70,4.70,4.71
31.61,-6.96,-11.66,-6.95,-11.65,11.65,10.99,15.38,4.69,4.70,4.70
31.93,-6.93,-11.60,-6.92,-11.61,11.61,10.91,15.35,4.68,4.69,4.68
32.24,-6.90,-11.58,-6.89,-11.57,11.57,10.84,15.28,4.67,4.68,4.68
32.57,-6.86,-11.52,-6.86,-11.53,11.53,10.76,15.18,4.67,4.67,4.67
32.89,-6.83,-11.49,-6.83,-11.49,11.49,10.69,15.06,4.67,4.66,4.66
33.22,-6.80,-11.45,-6.80,-11.45,11.45,10.62,14.90,4.66,4.66,4.66
33.55,-6.77,-11.42,-6.77,-11.41,11.41,10.56,14.73,4.65,4.65,4.65
33.89,-6.74,-11.37,-6.74,-11.37,11.37,10.49,14.54,4.64,4.64,4.64
34.23,-6.71,-11.33,-6.70,-11.33,11.33,10.43,14.33,4.63,4.63,4.62
34.57,-6.68,-11.29,-6.67,-11.29,11.29,10.37,14.11,4.62,4.62,4.61
34.92,-6.65,-11.25,-6.64,-11.25,11.25,10.32,13.89,4.60,4.61,4.60
35.27,-6.62,-11.23,-6.61,-11.21,11.21,10.27,13.65,4.59,4.60,4.61
35.62,-6.58,-11.16,-6.58,-11.16,11.16,10.22,13.42,4.59,4.58,4.59
35.97,-6.55,-11.12,-6.55,-11.12,11.12,10.17,13.18,4.57,4.57,4.58
36.33,-6.52,-11.08,-6.52,-11.07,11.07,10.13,12.95,4.56,4.55,4.56
36.70,-6.49,-11.02,-6.49,-11.02,11.02,10.09,12.72,4.54,4.54,4.53
37.06,-6.46,-10.97,-6.46,-10.97,10.97,10.05,12.49,4.52,4.52,4.52
37.43,-6.43,-10.92,-6.43,-10.92,10.92,10.02,12.26,4.50,4.50,4.50
37.81,-6.40,-10.88,-6.39,-10.87,10.87,9.99,12.04,4.47,4.48,4.48
38.19,-6.36,-10.81,-6.36,-10.81,10.81,9.96,11.83,4.46,4.46,4.45
38.57,-6.33,-10.76,-6.33,-10.76,10.76,9.93,11.62,4.43,4.43,4.43
38.95,-6.30,-10.71,-6.29,-10.70,10.70,9.91,11.42,4.40,4.41,4.41
39.34,-6.27,-10.65,-6.26,-10.64,10.64,9.88,11.23,4.37,4.38,4.38
39.74,-6.23,-10.58,-6.22,-10.58,10.58,9.86,11.04,4.36,4.36,4.35
40.14,-6.19,-10.52,-6.19,-10.52,10.52,9.85,10.86,4.33,4.33,4.33
40.54,-6.16,-10.47,-6.15,-10.46,10.46,9.83,10.69,4.30,4.31,4.31
40.94,-6.12,-10.40,-6.11,-10.40,10.40,9.81,10.52,4.28,4.29,4.28
41.35,-6.08,-10.33,-6.08,-10.34,10.34,9.80,10.37,4.26,4.26,4.26
41.76,-6.04,-10.26,-6.04,-10.28,10.28,9.79,10.22,4.24,4.23,4.23
42.18,-6.01,-10.22,-6.01,-10.22,10.22,9.78,10.07,4.21,4.21,4.21
42.60,-5.97,-10.15,-5.98,-10.16,10.16,9.77,9.94,4.19,4.18,4.18
43.03,-5.94,-10.09,-5.94,-10.10,10.10,9.76,9.81,4.16,4.15,4.16
43.46,-5.91,-10.03,-5.91,-10.04,10.04,9.75,9.69,4.13,4.13,4.12
43.90,-5.88,-9.98,-5.88,-9.98,9.98,9.74,9.57,4.10,4.10,4.10
44.33,-5.85,-9.91,-5.85,-9.92,9.92,9.74,9.46,4.07,4.07,4.06
44.78,-5.83,-9.86,-5.82,-9.86,9.86,9.73,9.36,4.03,4.03,4.04
45.23,-5.81,-9.82,-5.80,-9.80,9.80,9.72,9.27,3.99,4.00,4.01
45.68,-5.78,-9.74,-5.77,-9.73,9.73,9.70,9.18,3.96,3.96,3.97
46.13,-5.75,-9.67,-5.74,-9.67,9.67,9.69,9.10,3.92,3.93,3.93
46.60,-5.72,-9.61,-5.72,-9.61,9.61,9.68,9.02,3.89,3.89,3.89
47.06,-5.70,-9.55,-5.69,-9.54,9.54,9.66,8.95,3.84,3.84,3.85
47.53,-5.67,-9.48,-5.67,-9.47,9.47,9.64,8.89,3.80,3.80,3.81
48.01,-5.65,-9.40,-5.65,-9.40,9.40,9.61,8.83,3.75,3.76,3.75
48.49,-5.63,-9.34,-5.62,-9.33,9.33,9.59,8.78,3.71,3.71,3.71
48.97,-5.60,-9.26,-5.60,-9.26,9.26,9.56,8.73,3.67,3.67,3.66
49.46,-5.58,-9.19,-5.57,-9.19,9.19,9.52,8.69,3.62,3.62,3.62
49.96,-5.55,-9.10,-5.55,-9.12,9.12,9.48,8.65,3.57,3.57,3.56
50.46,-5.53,-9.05,-5.53,-9.05,9.05,9.44,8.61,3.52,3.52,3.52
50.96,-5.51,-8.98,-5.51,-8.98,8.98,9.39,8.58,3.48,3.48,3.48
51.47,-5.49,-8.92,-5.49,-8.92,8.92,9.34,8.55,3.43,3.43,3.43
51.99,-5.47,-8.84,-5.47,-8.85,8.85,9.28,8.53,3.39,3.38,3.38
52.51,-5.45,-8.79,-5.45,-8.79,8.79,9.22,8.51,3.34,3.34,3.34
53.03,-5.43,-8.73,-5.44,-8.72,8.72,9.15,8.49,3.30,3.29,3.30
53.56,-5.41,-8.66,-5.42,-8.66,8.66,9.08,8.47,3.26,3.24,3.25
54.10,-5.40,-8.59,-5.40,-8.60,8.60,9.00,8.45,3.21,3.20,3.19
54.64,-5.39,-8.54,-5.39,-8.54,8.54,8.91,8.43,3.16,3.15,3.15
55.18,-5.38,-8.48,-5.37,-8.48,8.48,8.83,8.41,3.11,3.11,3.10
55.74,-5.37,-8.42,-5.36,-8.42,8.42,8.73,8.40,3.06,3.06,3.05
56.29,-5.36,-8.37,-5.34,-8.36,8.36,8.63,8.38,3.00,3.02,3.02
56.86,-5.34,-8.31,-5.32,-8.30,8.30,8.53,8.35,2.96,2.97,2.97
57.42,-5.32,-8.23,-5.30,-8.23,8.23,8.42,8.33,2.91,2.93,2.92
58.00,-5.30,-8.16,-5.28,-8.16,8.16,8.31,8.30,2.86,2.88,2.87
58.58,-5.27,-8.10,-5.26,-8.09,8.09,8.20,8.27,2.82,2.82,2.83
59.16,-5.24,-8.03,-5.24,-8.01,8.01,8.08,8.24,2.78,2.77,2.79
59.76,-5.22,-7.96,-5.22,-7.94,7.94,7.96,8.20,2.72,2.72,2.74
60.35,-5.20,-7.88,-5.20,-7.86,7.86,7.84,8.15,2.66,2.66,2.68
60.96,-5.17,-7.79,-5.17,-7.78,7.78,7.71,8.11,2.61,2.61,2.62
61.57,-5.15,-7.69,-5.15,-7.70,7.70,7.59,8.05,2.55,2.55,2.55
62.18,-5.12,-7.60,-5.13,-7.62,7.62,7.46,7.99,2.50,2.49,2.48
62.80,-5.11,-7.52,-5.11,-7.54,7.54,7.33,7.92,2.43,2.43,2.41
63.43,-5.09,-7.43,-5.09,-7.45,7.45,7.20,7.85,2.37,2.36,2.35
64.07,-5.07,-7.36,-5.07,-7.37,7.37,7.06,7.77,2.31,2.30,2.29
64.71,-5.06,-7.29,-5.06,-7.29,7.29,6.93,7.68,2.24,2.24,2.23
65.35,-5.04,-7.21,-5.04,-7.21,7.21,6.80,7.59,2.18,2.17,2.17
66.01,-5.03,-7.13,-5.02,-7.13,7.13,6.67,7.50,2.10,2.11,2.11
66.67,-5.02,-7.07,-5.00,-7.05,7.05,6.54,7.39,2.03,2.05,2.05
67.33,-5.00,-6.98,-4.99,-6.97,6.97,6.40,7.29,1.97,1.98,1.98
68.01,-4.98,-6.90,-4.97,-6.89,6.89,6.27,7.18,1.91,1.92,1.92
68.69,-4.96,-6.81,-4.95,-6.81,6.81,6.14,7.06,1.85,1.85,1.86
69.37,-4.94,-6.73,-4.94,-6.73,6.73,6.01,6.95,1.79,1.79,1.80
70.07,-4.92,-6.64,-4.92,-6.64,6.64,5.88,6.82,1.73,1.72,1.73
70.77,-4.90,-6.55,-4.90,-6.56,6.56,5.76,6.70,1.66,1.66,1.66
71.48,-4.88,-6.47,-4.88,-6.47,6.47,5.63,6.58,1.60,1.59,1.59
72.19,-4.86,-6.38,-4.86,-6.38,6.38,5.51,6.45,1.53,1.52,1.52
72.91,-4.84,-6.28,-4.84,-6.30,6.30,5.39,6.33,1.46,1.45,1.45
73.64,-4.83,-6.21,-4.82,-6.21,6.21,5.26,6.20,1.38,1.39,1.38
74.38,-4.81,-6.12,-4.80,-6.12,6.12,5.15,6.07,1.31,1.32,1.31
75.12,-4.80,-6.05,-4.77,-6.03,6.03,5.03,5.94,1.24,1.26,1.25
75.87,-4.77,-5.96,-4.75,-5.94,5.94,4.91,5.82,1.18,1.19,1.19
76.63,-4.74,-5.86,-4.73,-5.86,5.86,4.80,5.69,1.12,1.13,1.12
77.40,-4.71,-5.78,-4.70,-5.77,5.77,4.69,5.57,1.06,1.07,1.07
78.17,-4.68,-5.67,-4.68,-5.69,5.69,4.58,5.45,1.01,1.01,1.00
78.95,-4.66,-5.61,-4.66,-5.60,5.60,4.47,5.33,0.95,0.94,0.95
79.74,-4.64,-5.52,-4.64,-5.53,5.53,4.36,5.21,0.89,0.88,0.88
80.54,-4.62,-5.44,-4.63,-5.45,5.45,4.26,5.10,0.84,0.82,0.83
81.35,-4.60,-5.35,-4.62,-5.38,5.38,4.15,4.98,0.78,0.76,0.76
82.16,-4.59,-5.29,-4.61,-5.31,5.31,4.05,4.87,0.72,0.70,0.71
82.98,-4.58,-5.21,-4.60,-5.24,5.24,3.95,4.77,0.66,0.63,0.64
83.81,-4.58,-5.15,-4.60,-5.17,5.17,3.86,4.66,0.59,0.57,0.58
84.65,-4.59,-5.09,-4.60,-5.10,5.10,3.76,4.56,0.52,0.51,0.50
85.50,-4.60,-5.03,-4.59,-5.03,5.03,3.67,4.46,0.44,0.44,0.44
86.35,-4.61,-4.98,-4.59,-4.96,4.96,3.57,4.36,0.36,0.38,0.37
87.22,-4.62,-4.92,-4.58,-4.89,4.89,3.48,4.27,0.28,0.31,0.31
88.09,-4.61,-4.85,-4.58,-4.82,4.82,3.40,4.18,0.21,0.24,0.24
88.97,-4.59,-4.76,-4.57,-4.74,4.74,3.31,4.09,0.15,0.17,0.17
89.86,-4.57,-4.67,-4.55,-4.66,4.66,3.22,4.01,0.09,0.10,0.10
90.76,-4.55,-4.58,-4.53,-4.57,4.57,3.14,3.92,0.02,0.03,0.03
91.66,-4.53,-4.48,-4.51,-4.47,4.47,3.06,3.84,-0.05,-0.04,-0.04
92.58,-4.50,-4.39,-4.49,-4.38,4.38,2.98,3.77,-0.12,-0.11,-0.11
93.51,-4.46,-4.28,-4.46,-4.27,4.27,2.90,3.69,-0.18,-0.19,-0.18
94.44,-4.43,-4.18,-4.43,-4.17,4.17,2.82,3.62,-0.26,-0.26,-0.25
95.39,-4.40,-4.06,-4.40,-4.07,4.07,2.75,3.55,-0.33,-0.33,-0.33
96.34,-4.37,-3.96,-4.37,-3.96,3.96,2.67,3.49,-0.40,-0.41,-0.40
97.30,-4.34,-3.86,-4.34,-3.86,3.86,2.60,3.42,-0.47,-0.48,-0.48
98.28,-4.31,-3.74,-4.32,-3.76,3.76,2.53,3.36,-0.54,-0.55,-0.56
99.26,-4.28,-3.64,-4.30,-3.67,3.67,2.46,3.30,-0.60,-0.63,-0.64
100.25,-4.27,-3.56,-4.28,-3.58,3.58,2.39,3.24,-0.68,-0.70,-0.71
101.25,-4.26,-3.48,-4.27,-3.50,3.50,2.32,3.19,-0.76,-0.77,-0.78
102.27,-4.25,-3.40,-4.26,-3.42,3.42,2.25,3.13,-0.83,-0.84,-0.84
103.29,-4.25,-3.33,-4.26,-3.34,3.34,2.18,3.08,-0.90,-0.91,-0.92
104.32,-4.25,-3.26,-4.26,-3.27,3.27,2.12,3.03,-0.97,-0.98,-0.98
105.37,-4.26,-3.21,-4.26,-3.21,3.21,2.06,2.98,-1.05,-1.05,-1.05
106.42,-4.27,-3.15,-4.26,-3.14,3.14,1.99,2.93,-1.12,-1.12,-1.11
107.48,-4.27,-3.08,-4.27,-3.08,3.08,1.93,2.88,-1.19,-1.19,-1.19
108.56,-4.27,-3.01,-4.27,-3.02,3.02,1.87,2.84,-1.25,-1.26,-1.25
109.64,-4.28,-2.96,-4.28,-2.95,2.95,1.81,2.79,-1.33,-1.33,-1.32
110.74,-4.29,-2.89,-4.28,-2.88,2.88,1.75,2.74,-1.40,-1.40,-1.39
111.85,-4.30,-2.83,-4.28,-2.81,2.81,1.70,2.70,-1.49,-1.47,-1.47
112.97,-4.30,-2.76,-4.28,-2.73,2.73,1.64,2.65,-1.56,-1.54,-1.53
114.10,-4.29,-2.68,-4.27,-2.66,2.66,1.58,2.60,-1.63,-1.61,-1.61
115.24,-4.27,-2.58,-4.26,-2.57,2.57,1.53,2.56,-1.69,-1.68,-1.69
116.39,-4.26,-2.49,-4.24,-2.48,2.48,1.47,2.51,-1.77,-1.75,-1.76
117.55,-4.24,-2.40,-4.22,-2.39,2.39,1.42,2.46,-1.84,-1.82,-1.84
118.73,-4.21,-2.30,-4.19,-2.30,2.30,1.37,2.41,-1.91,-1.89,-1.91
119.92,-4.17,-2.20,-4.16,-2.20,2.20,1.32,2.36,-1.96,-1.96,-1.97
121.12,-4.13,-2.10,-4.13,-2.10,2.10,1.26,2.31,-2.03,-2.03,-2.03
122.33,-4.11,-2.01,-4.10,-2.00,2.00,1.21,2.26,-2.11,-2.10,-2.10
123.55,-4.08,-1.92,-4.07,-1.90,1.90,1.16,2.21,-2.18,-2.17,-2.16
124.79,-4.04,-1.81,-4.04,-1.80,1.80,1.11,2.15,-2.23,-2.24,-2.23
126.03,-4.00,-1.70,-4.02,-1.71,1.71,1.06,2.10,-2.29,-2.31,-2.30
127.29,-3.98,-1.61,-3.99,-1.62,1.62,1.02,2.04,-2.36,-2.37,-2.36
128.57,-3.96,-1.52,-3.97,-1.53,1.53,0.97,1.98,-2.42,-2.44,-2.44
129.85,-3.94,-1.43,-3.96,-1.45,1.45,0.92,1.92,-2.49,-2.51,-2.51
131.15,-3.93,-1.35,-3.94,-1.37,1.37,0.87,1.85,-2.56,-2.57,-2.58
132.46,-3.92,-1.27,-3.94,-1.30,1.30,0.83,1.79,-2.62,-2.64,-2.64
133.79,-3.93,-1.21,-3.93,-1.22,1.22,0.78,1.72,-2.70,-2.71,-2.72
135.12,-3.94,-1.16,-3.93,-1.15,1.15,0.73,1.65,-2.78,-2.78,-2.78
136.48,-3.95,-1.11,-3.93,-1.09,1.09,0.69,1.59,-2.86,-2.84,-2.84
137.84,-3.95,-1.04,-3.93,-1.03,1.03,0.64,1.51,-2.92,-2.90,-2.91
139.22,-3.95,-0.97,-3.93,-0.97,0.97,0.60,1.44,-2.98,-2.97,-2.97
140.61,-3.95,-0.92,-3.94,-0.91,0.91,0.55,1.37,-3.04,-3.03,-3.03
142.02,-3.95,-0.85,-3.94,-0.85,0.85,0.51,1.30,-3.09,-3.09,-3.10
143.44,-3.95,-0.80,-3.94,-0.80,0.80,0.46,1.22,-3.15,-3.15,-3.15
144.87,-3.95,-0.74,-3.95,-0.74,0.74,0.42,1.15,-3.20,-3.20,-3.20
146.32,-3.95,-0.68,-3.95,-0.69,0.69,0.38,1.07,-3.26,-3.26,-3.26
147.78,-3.95,-0.63,-3.95,-0.63,0.63,0.33,0.99,-3.31,-3.32,-3.31
149.26,-3.95,-0.57,-3.95,-0.58,0.58,0.29,0.91,-3.37,-3.37,-3.37
150.75,-3.95,-0.51,-3.95,-0.52,0.52,0.24,0.83,-3.43,-3.43,-3.43
152.26,-3.95,-0.47,-3.95,-0.46,0.46,0.20,0.75,-3.48,-3.48,-3.48
153.78,-3.95,-0.41,-3.94,-0.41,0.41,0.16,0.67,-3.54,-3.54,-3.53
155.32,-3.95,-0.36,-3.94,-0.35,0.35,0.11,0.59,-3.59,-3.59,-3.59
156.88,-3.95,-0.31,-3.94,-0.30,0.30,0.07,0.51,-3.65,-3.65,-3.64
158.44,-3.95,-0.24,-3.95,-0.24,0.24,0.03,0.43,-3.70,-3.70,-3.70
160.03,-3.95,-0.19,-3.95,-0.19,0.19,-0.02,0.35,-3.76,-3.76,-3.75
161.63,-3.95,-0.14,-3.95,-0.14,0.14,-0.06,0.26,-3.81,-3.81,-3.81
163.24,-3.95,-0.08,-3.95,-0.08,0.08,-0.10,0.18,-3.86,-3.87,-3.87
164.88,-3.95,-0.02,-3.96,-0.03,0.03,-0.15,0.10,-3.92,-3.93,-3.92
166.53,-3.95,0.04,-3.96,0.02,-0.02,-0.19,0.01,-3.97,-3.98,-3.99
168.19,-3.95,0.09,-3.96,0.08,-0.08,-0.23,-0.07,-4.02,-4.04,-4.03
169.87,-3.96,0.14,-3.96,0.13,-0.13,-0.28,-0.16,-4.09,-4.10,-4.10
171.57,-3.97,0.19,-3.96,0.19,-0.19,-0.32,-0.24,-4.16,-4.15,-4.16
173.29,-3.97,0.24,-3.96,0.25,-0.25,-0.36,-0.33,-4.22,-4.21,-4.21
175.02,-3.97,0.30,-3.95,0.31,-0.31,-0.41,-0.42,-4.28,-4.27,-4.27
176.77,-3.96,0.37,-3.94,0.38,-0.38,-0.45,-0.50,-4.33,-4.32,-4.32
178.54,-3.94,0.44,-3.93,0.45,-0.45,-0.50,-0.59,-4.38,-4.38,-4.38
180.32,-3.93,0.52,-3.91,0.52,-0.52,-0.54,-0.68,-4.45,-4.43,-4.44
182.13,-3.91,0.58,-3.89,0.60,-0.60,-0.59,-0.77,-4.51,-4.49,-4.49
183.95,-3.87,0.67,-3.86,0.68,-0.68,-0.63,-0.86,-4.55,-4.54,-4.54
185.79,-3.84,0.76,-3.83,0.77,-0.77,-0.68,-0.95,-4.61,-4.60,-4.60
187.65,-3.81,0.84,-3.79,0.86,-0.86,-0.73,-1.04,-4.66,-4.65,-4.65
189.52,-3.77,0.93,-3.75,0.95,-0.95,-0.77,-1.13,-4.71,-4.70,-4.70
191.42,-3.72,1.03,-3.71,1.04,-1.04,-0.82,-1.22,-4.76,-4.75,-4.75
193.33,-3.67,1.13,-3.67,1.13,-1.13,-0.87,-1.31,-4.80,-4.80,-4.80
195.27,-3.61,1.24,-3.63,1.22,-1.22,-0.91,-1.40,-4.83,-4.85,-4.85
197.22,-3.56,1.35,-3.58,1.31,-1.31,-0.96,-1.49,-4.87,-4.89,-4.91
199.19,-3.52,1.42,-3.53,1.41,-1.41,-1.01,-1.58,-4.92,-4.94,-4.94
201.18,-3.48,1.52,-3.48,1.50,-1.50,-1.06,-1.67,-4.97,-4.98,-4.99
203.19,-3.44,1.59,-3.44,1.58,-1.58,-1.11,-1.77,-5.02,-5.02,-5.02
205.23,-3.41,1.65,-3.40,1.67,-1.67,-1.16,-1.86,-5.07,-5.06,-5.05
207.28,-3.37,1.73,-3.35,1.75,-1.75,-1.21,-1.95,-5.11,-5.10,-5.09
209.35,-3.33,1.81,-3.31,1.82,-1.82,-1.26,-2.04,-5.15,-5.14,-5.13
211.44,-3.28,1.90,-3.28,1.90,-1.90,-1.31,-2.13,-5.17,-5.17,-5.17
213.56,-3.23,1.97,-3.24,1.97,-1.97,-1.36,-2.21,-5.19,-5.21,-5.20
215.69,-3.19,2.05,-3.20,2.04,-2.04,-1.42,-2.30,-5.22,-5.24,-5.23
217.85,-3.14,2.13,-3.17,2.10,-2.10,-1.47,-2.38,-5.24,-5.27,-5.27
220.03,-3.13,2.18,-3.13,2.17,-2.17,-1.52,-2.47,-5.30,-5.30,-5.30
222.23,-3.11,2.23,-3.10,2.23,-2.23,-1.58,-2.55,-5.34,-5.33,-5.34
224.45,-3.09,2.28,-3.06,2.30,-2.30,-1.63,-2.63,-5.38,-5.36,-5.36
226.70,-3.05,2.35,-3.03,2.35,-2.35,-1.69,-2.70,-5.40,-5.39,-5.39
228.96,-3.01,2.40,-3.00,2.41,-2.41,-1.74,-2.77,-5.42,-5.41,-5.41
231.25,-2.98,2.46,-2.97,2.46,-2.46,-1.80,-2.84,-5.44,-5.43,-5.44
233.57,-2.94,2.52,-2.94,2.51,-2.51,-1.86,-2.90,-5.45,-5.46,-5.46
235.90,-2.89,2.59,-2.91,2.56,-2.56,-1.92,-2.97,-5.45,-5.48,-5.48
238.26,-2.87,2.64,-2.88,2.61,-2.61,-1.97,-3.02,-5.48,-5.49,-5.50
240.64,-2.84,2.67,-2.85,2.66,-2.66,-2.03,-3.07,-5.50,-5.51,-5.50
243.05,-2.83,2.69,-2.81,2.71,-2.71,-2.09,-3.12,-5.54,-5.52,-5.52
245.48,-2.81,2.73,-2.77,2.76,-2.76,-2.15,-3.16,-5.57,-5.53,-5.54
247.93,-2.76,2.80,-2.73,2.81,-2.81,-2.21,-3.20,-5.57,-5.54,-5.55
250.41,-2.72,2.83,-2.69,2.86,-2.86,-2.27,-3.23,-5.57,-5.55,-5.55
252.92,-2.66,2.90,-2.66,2.90,-2.90,-2.33,-3.26,-5.56,-5.56,-5.55
255.45,-2.62,2.95,-2.62,2.94,-2.94,-2.39,-3.29,-5.56,-5.57,-5.57
258.00,-2.58,3.00,-2.59,2.99,-2.99,-2.45,-3.30,-5.56,-5.57,-5.57
260.58,-2.53,3.05,-2.55,3.03,-3.03,-2.52,-3.32,-5.55,-5.58,-5.58
263.19,-2.50,3.08,-2.52,3.07,-3.07,-2.58,-3.33,-5.56,-5.59,-5.58
265.82,-2.46,3.14,-2.48,3.11,-3.11,-2.64,-3.33,-5.57,-5.59,-5.59
268.48,-2.45,3.15,-2.45,3.15,-3.15,-2.70,-3.34,-5.60,-5.60,-5.59
271.16,-2.44,3.16,-2.41,3.19,-3.19,-2.76,-3.33,-5.63,-5.60,-5.60
273.87,-2.40,3.21,-2.38,3.23,-3.23,-2.83,-3.33,-5.62,-5.61,-5.61
276.61,-2.37,3.24,-2.35,3.26,-3.26,-2.89,-3.32,-5.63,-5.61,-5.61
279.38,-2.34,3.29,-2.32,3.30,-3.30,-2.95,-3.31,-5.63,-5.62,-5.63
282.17,-2.30,3.33,-2.29,3.33,-3.33,-3.01,-3.30,-5.62,-5.62,-5.63
284.99,-2.27,3.35,-2.26,3.36,-3.36,-3.07,-3.29,-5.62,-5.62,-5.62
287.84,-2.23,3.39,-2.24,3.39,-3.39,-3.14,-3.27,-5.61,-5.62,-5.62
290.72,-2.20,3.43,-2.21,3.41,-3.41,-3.20,-3.26,-5.61,-5.62,-5.63
293.63,-2.17,3.45,-2.18,3.44,-3.44,-3.26,-3.24,-5.61,-5.62,-5.62
296.57,-2.15,3.47,-2.15,3.47,-3.47,-3.32,-3.22,-5.61,-5.62,-5.62
299.53,-2.12,3.50,-2.12,3.49,-3.49,-3.38,-3.20,-5.61,-5.61,-5.61
302.53,-2.09,3.51,-2.09,3.52,-3.52,-3.43,-3.19,-5.60,-5.61,-5.60
305.55,-2.07,3.54,-2.07,3.54,-3.54,-3.49,-3.17,-5.60,-5.60,-5.61
308.61,-2.05,3.55,-2.04,3.56,-3.56,-3.55,-3.15,-5.61,-5.60,-5.60
311.69,-2.02,3.58,-2.01,3.58,-3.58,-3.60,-3.14,-5.60,-5.59,-5.59
314.81,-2.00,3.59,-1.99,3.60,-3.60,-3.65,-3.13,-5.59,-5.59,-5.59
317.96,-1.97,3.62,-1.96,3.62,-3.62,-3.71,-3.11,-5.59,-5.58,-5.59
321.14,-1.94,3.64,-1.94,3.64,-3.64,-3.76,-3.10,-5.58,-5.58,-5.57
324.35,-1.91,3.67,-1.91,3.66,-3.66,-3.80,-3.09,-5.57,-5.57,-5.58
327.59,-1.89,3.67,-1.88,3.69,-3.69,-3.85,-3.09,-5.57,-5.56,-5.55
330.87,-1.87,3.69,-1.85,3.71,-3.71,-3.90,-3.08,-5.58,-5.56,-5.56
334.18,-1.84,3.72,-1.82,3.73,-3.73,-3.94,-3.08,-5.57,-5.55,-5.56
337.52,-1.80,3.75,-1.79,3.75,-3.75,-3.98,-3.08,-5.55,-5.55,-5.55
340.90,-1.77,3.77,-1.77,3.77,-3.77,-4.02,-3.08,-5.53,-5.54,-5.54
344.30,-1.74,3.79,-1.75,3.78,-3.78,-4.05,-3.08,-5.52,-5.53,-5.53
347.75,-1.72,3.81,-1.73,3.79,-3.79,-4.09,-3.09,-5.51,-5.53,-5.52
351.23,-1.69,3.84,-1.72,3.80,-3.80,-4.12,-3.10,-5.49,-5.52,-5.53
354.74,-1.67,3.84,-1.71,3.81,-3.81,-4.15,-3.11,-5.47,-5.51,-5.50
358.28,-1.67,3.84,-1.69,3.81,-3.81,-4.17,-3.12,-5.48,-5.51,-5.51
361.87,-1.68,3.83,-1.68,3.82,-3.82,-4.20,-3.14,-5.49,-5.50,-5.50
365.49,-1.69,3.81,-1.67,3.82,-3.82,-4.22,-3.15,-5.51,-5.49,-5.50
369.14,-1.69,3.79,-1.66,3.83,-3.83,-4.24,-3.17,-5.51,-5.48,-5.48
372.83,-1.68,3.80,-1.65,3.83,-3.83,-4.25,-3.20,-5.51,-5.48,-5.47
376.56,-1.66,3.82,-1.63,3.84,-3.84,-4.27,-3.22,-5.49,-5.47,-5.48
380.33,-1.64,3.83,-1.62,3.85,-3.85,-4.28,-3.25,-5.48,-5.46,-5.47
384.13,-1.62,3.84,-1.60,3.86,-3.86,-4.29,-3.28,-5.47,-5.45,-5.45
387.97,-1.59,3.86,-1.57,3.87,-3.87,-4.29,-3.31,-5.46,-5.44,-5.44
391.85,-1.56,3.88,-1.55,3.89,-3.89,-4.29,-3.35,-5.44,-5.44,-5.44
395.77,-1.52,3.91,-1.52,3.91,-3.91,-4.30,-3.38,-5.42,-5.43,-5.43
399.73,-1.49,3.94,-1.49,3.93,-3.93,-4.29,-3.42,-5.42,-5.42,-5.42
403.72,-1.46,3.94,-1.46,3.95,-3.95,-4.29,-3.46,-5.41,-5.41,-5.40
407.76,-1.43,3.97,-1.43,3.97,-3.97,-4.28,-3.50,-5.39,-5.40,-5.40
411.84,-1.40,3.99,-1.41,3.98,-3.98,-4.28,-3.54,-5.38,-5.39,-5.39
415.96,-1.37,4.01,-1.39,3.99,-3.99,-4.27,-3.59,-5.36,-5.38,-5.37
420.12,-1.35,4.03,-1.38,4.00,-4.00,-4.26,-3.63,-5.34,-5.37,-5.38
424.32,-1.34,4.03,-1.37,4.00,-4.00,-4.24,-3.67,-5.33,-5.36,-5.37
428.56,-1.33,4.02,-1.36,4.00,-4.00,-4.23,-3.72,-5.32,-5.36,-5.35
432.85,-1.34,4.01,-1.36,3.99,-3.99,-4.21,-3.76,-5.33,-5.35,-5.34
437.18,-1.35,4.00,-1.35,3.99,-3.99,-4.20,-3.81,-5.33,-5.34,-5.34
441.55,-1.36,3.98,-1.35,3.98,-3.98,-4.18,-3.85,-5.34,-5.33,-5.33
445.96,-1.38,3.95,-1.35,3.98,-3.98,-4.16,-3.89,-5.35,-5.32,-5.33
