frequency,raw,error,smoothed,error_smoothed,equalization,parametric_eq,fixed_band_eq,equalized_raw,equalized_smoothed,target
20.00,-5.92,-8.05,-5.97,-8.12,8.12,7.31,3.15,2.21,2.16,2.14
20.20,-5.92,-8.09,-5.95,-8.13,8.13,7.37,3.24,2.22,2.19,2.18
20.40,-5.92,-8.12,-5.93,-8.14,8.14,7.44,3.33,2.22,2.21,2.21
20.61,-5.92,-8.15,-5.90,-8.14,8.14,7.50,3.42,2.23,2.24,2.24
20.81,-5.92,-8.19,-5.88,-8.14,8.14,7.56,3.52,2.23,2.27,2.28
21.02,-5.92,-8.23,-5.85,-8.14,8.14,7.61,3.62,2.22,2.29,2.31
21.23,-5.86,-8.18,-5.82,-8.13,8.13,7.67,3.72,2.27,2.31,2.32
21.44,-5.81,-8.15,-5.79,-8.12,8.12,7.72,3.83,2.31,2.33,2.34
21.66,-5.76,-8.12,-5.75,-8.10,8.10,7.76,3.94,2.34,2.35,2.36
21.87,-5.71,-8.08,-5.71,-8.08,8.08,7.81,4.05,2.37,2.37,2.37
22.09,-5.66,-8.05,-5.67,-8.05,8.05,7.85,4.16,2.40,2.38,2.39
22.31,-5.61,-8.00,-5.63,-8.02,8.02,7.89,4.28,2.42,2.40,2.39
22.54,-5.57,-7.97,-5.58,-7.98,7.98,7.92,4.40,2.42,2.41,2.40
22.76,-5.52,-7.93,-5.52,-7.94,7.94,7.95,4.52,2.42,2.42,2.41
22.99,-5.47,-7.88,-5.47,-7.89,7.89,7.98,4.65,2.42,2.42,2.41
23.22,-5.42,-7.84,-5.41,-7.84,7.84,8.00,4.78,2.42,2.43,2.42
23.45,-5.36,-7.79,-5.36,-7.79,7.79,8.02,4.91,2.43,2.43,2.43
23.69,-5.31,-7.75,-5.30,-7.74,7.74,8.03,5.05,2.43,2.44,2.44
23.92,-5.26,-7.70,-5.24,-7.69,7.69,8.04,5.19,2.43,2.44,2.45
24.16,-5.20,-7.65,-5.18,-7.63,7.63,8.05,5.33,2.43,2.45,2.46
24.40,-5.15,-7.61,-5.13,-7.58,7.58,8.05,5.47,2.43,2.45,2.46
24.65,-5.09,-7.54,-5.08,-7.53,7.53,8.05,5.62,2.44,2.45,2.45
24.89,-5.03,-7.48,-5.03,-7.48,7.48,8.04,5.76,2.46,2.45,2.45
25.14,-4.98,-7.43,-4.99,-7.44,7.44,8.03,5.91,2.46,2.45,2.45
25.39,-4.92,-7.37,-4.94,-7.39,7.39,8.01,6.06,2.48,2.45,2.45
25.65,-4.86,-7.31,-4.89,-7.35,7.35,8.00,6.22,2.49,2.45,2.45
25.91,-4.80,-7.24,-4.85,-7.30,7.30,7.97,6.37,2.50,2.45,2.44
26.16,-4.78,-7.22,-4.81,-7.26,7.26,7.95,6.52,2.48,2.45,2.45
26.43,-4.78,-7.22,-4.78,-7.22,7.22,7.92,6.67,2.45,2.45,2.45
26.69,-4.78,-7.22,-4.75,-7.19,7.19,7.88,6.82,2.41,2.44,2.44
26.96,-4.78,-7.22,-4.72,-7.16,7.16,7.84,6.97,2.38,2.44,2.44
27.23,-4.73,-7.17,-4.69,-7.13,7.13,7.80,7.12,2.40,2.44,2.44
27.50,-4.67,-7.11,-4.66,-7.10,7.10,7.76,7.26,2.43,2.43,2.44
27.77,-4.61,-7.04,-4.63,-7.06,7.06,7.71,7.40,2.46,2.43,2.43
28.05,-4.56,-6.99,-4.60,-7.03,7.03,7.66,7.53,2.47,2.43,2.43
28.33,-4.56,-6.97,-4.58,-7.00,7.00,7.60,7.66,2.45,2.43,2.42
28.62,-4.56,-6.98,-4.55,-6.97,6.97,7.55,7.78,2.42,2.43,2.42
28.90,-4.56,-6.98,-4.52,-6.94,6.94,7.49,7.89,2.38,2.42,2.42
29.19,-4.52,-6.93,-4.48,-6.90,6.90,7.42,7.99,2.38,2.42,2.41
29.48,-4.45,-6.87,-4.44,-6.86,6.86,7.36,8.07,2.41,2.41,2.42
29.78,-4.38,-6.80,-4.41,-6.82,6.82,7.29,8.15,2.44,2.41,2.42
30.08,-4.33,-6.74,-4.37,-6.78,6.78,7.22,8.22,2.45,2.41,2.41
30.38,-4.33,-6.73,-4.34,-6.74,6.74,7.15,8.27,2.42,2.40,2.40
30.68,-4.33,-6.73,-4.32,-6.71,6.71,7.08,8.31,2.38,2.40,2.40
30.99,-4.33,-6.72,-4.29,-6.68,6.68,7.01,8.33,2.35,2.39,2.39
31.30,-4.26,-6.64,-4.25,-6.64,6.64,6.93,8.34,2.38,2.39,2.39
31.61,-4.19,-6.57,-4.21,-6.59,6.59,6.85,8.33,2.41,2.38,2.38
31.93,-4.12,-6.49,-4.17,-6.55,6.55,6.78,8.31,2.43,2.37,2.37
32.24,-4.10,-6.46,-4.13,-6.50,6.50,6.70,8.28,2.40,2.37,2.36
32.57,-4.10,-6.45,-4.09,-6.45,6.45,6.62,8.23,2.35,2.36,2.36
32.89,-4.10,-6.45,-4.04,-6.39,6.39,6.53,8.17,2.29,2.36,2.35
33.22,-4.05,-6.40,-3.98,-6.33,6.33,6.45,8.10,2.28,2.35,2.35
33.55,-3.97,-6.31,-3.92,-6.27,6.27,6.37,8.02,2.30,2.34,2.35
33.89,-3.90,-6.24,-3.86,-6.20,6.20,6.29,7.93,2.30,2.34,2.34
34.23,-3.82,-6.16,-3.80,-6.14,6.14,6.20,7.83,2.32,2.33,2.34
34.57,-3.74,-6.06,-3.74,-6.07,6.07,6.12,7.72,2.33,2.33,2.33
34.92,-3.66,-5.98,-3.68,-6.00,6.00,6.04,7.60,2.34,2.32,2.32
35.27,-3.58,-5.90,-3.62,-5.93,5.93,5.95,7.48,2.35,2.32,2.32
35.62,-3.50,-5.80,-3.55,-5.86,5.86,5.87,7.35,2.37,2.31,2.30
35.97,-3.43,-5.73,-3.49,-5.79,5.79,5.79,7.22,2.36,2.30,2.30
36.33,-3.42,-5.71,-3.43,-5.72,5.72,5.70,7.09,2.31,2.30,2.30
36.70,-3.42,-5.71,-3.38,-5.66,5.66,5.62,6.96,2.24,2.29,2.29
37.06,-3.41,-5.68,-3.34,-5.61,5.61,5.53,6.82,2.21,2.28,2.28
37.43,-3.32,-5.59,-3.31,-5.58,5.58,5.45,6.69,2.26,2.27,2.27
37.81,-3.23,-5.50,-3.28,-5.55,5.55,5.37,6.55,2.32,2.26,2.27
38.19,-3.19,-5.44,-3.26,-5.51,5.51,5.29,6.41,2.33,2.26,2.25
38.57,-3.19,-5.43,-3.23,-5.48,5.48,5.20,6.28,2.29,2.25,2.25
38.95,-3.19,-5.43,-3.21,-5.45,5.45,5.12,6.15,2.26,2.24,2.24
39.34,-3.19,-5.41,-3.19,-5.42,5.42,5.04,6.02,2.23,2.23,2.23
39.74,-3.19,-5.40,-3.16,-5.39,5.39,4.96,5.89,2.20,2.23,2.21
40.14,-3.19,-5.40,-3.14,-5.35,5.35,4.88,5.76,2.17,2.22,2.21
40.54,-3.19,-5.39,-3.11,-5.31,5.31,4.80,5.64,2.13,2.20,2.21
40.94,-3.19,-5.39,-3.08,-5.27,5.27,4.72,5.52,2.09,2.19,2.20
41.35,-3.11,-5.29,-3.06,-5.24,5.24,4.64,5.40,2.13,2.17,2.18
41.76,-3.01,-5.17,-3.04,-5.20,5.20,4.57,5.29,2.19,2.15,2.17
42.18,-2.96,-5.11,-3.02,-5.15,5.15,4.49,5.18,2.19,2.13,2.15
42.60,-2.96,-5.08,-3.00,-5.11,5.11,4.41,5.07,2.15,2.11,2.12
43.03,-2.96,-5.06,-2.99,-5.07,5.07,4.34,4.97,2.11,2.08,2.10
43.46,-2.96,-5.03,-3.00,-5.05,5.05,4.26,4.87,2.09,2.06,2.07
43.90,-2.96,-4.98,-3.01,-5.04,5.04,4.19,4.77,2.08,2.03,2.03
44.33,-2.96,-4.95,-3.03,-5.03,5.03,4.12,4.68,2.07,2.00,2.00
44.78,-2.96,-4.92,-3.03,-5.01,5.01,4.05,4.59,2.05,1.97,1.96
45.23,-2.97,-4.90,-3.04,-4.98,4.98,3.97,4.51,2.01,1.94,1.93
45.68,-3.00,-4.90,-3.03,-4.95,4.95,3.90,4.43,1.95,1.92,1.90
46.13,-3.04,-4.92,-3.03,-4.92,4.92,3.83,4.35,1.88,1.89,1.88
46.60,-3.12,-4.98,-3.02,-4.89,4.89,3.76,4.27,1.77,1.87,1.87
47.06,-3.19,-5.03,-2.99,-4.85,4.85,3.70,4.20,1.66,1.85,1.84
47.53,-3.16,-4.99,-2.96,-4.80,4.80,3.63,4.13,1.64,1.84,1.83
48.01,-3.14,-4.97,-2.91,-4.74,4.74,3.56,4.06,1.60,1.83,1.83
48.49,-2.88,-4.70,-2.85,-4.67,4.67,3.50,4.00,1.79,1.82,1.82
48.97,-2.61,-4.41,-2.78,-4.60,4.60,3.43,3.94,1.99,1.82,1.81
49.46,-2.56,-4.35,-2.71,-4.52,4.52,3.37,3.88,1.96,1.81,1.79
49.96,-2.51,-4.30,-2.62,-4.43,4.43,3.30,3.83,1.92,1.80,1.79
50.46,-2.49,-4.28,-2.53,-4.33,4.33,3.24,3.78,1.84,1.80,1.79
50.96,-2.46,-4.26,-2.43,-4.22,4.22,3.18,3.73,1.76,1.79,1.80
51.47,-2.37,-4.15,-2.33,-4.10,4.10,3.12,3.68,1.73,1.77,1.78
51.99,-2.28,-4.05,-2.23,-3.99,3.99,3.06,3.63,1.71,1.75,1.77
52.51,-2.16,-3.91,-2.15,-3.88,3.88,3.00,3.59,1.72,1.73,1.75
53.03,-2.05,-3.77,-2.08,-3.78,3.78,2.94,3.54,1.73,1.70,1.72
53.56,-2.05,-3.73,-2.03,-3.69,3.69,2.88,3.50,1.65,1.67,1.69
54.10,-2.03,-3.67,-1.99,-3.62,3.62,2.82,3.46,1.59,1.63,1.64
54.64,-1.90,-3.49,-1.95,-3.54,3.54,2.77,3.42,1.64,1.59,1.59
55.18,-1.82,-3.36,-1.90,-3.44,3.44,2.71,3.38,1.63,1.54,1.54
55.74,-1.82,-3.30,-1.87,-3.35,3.35,2.65,3.34,1.54,1.49,1.48
56.29,-1.82,-3.25,-1.84,-3.27,3.27,2.60,3.30,1.45,1.43,1.43
56.86,-1.82,-3.19,-1.82,-3.18,3.18,2.55,3.26,1.37,1.37,1.37
57.42,-1.82,-3.11,-1.81,-3.11,3.11,2.49,3.22,1.29,1.30,1.29
58.00,-1.82,-3.05,-1.80,-3.04,3.04,2.44,3.18,1.22,1.24,1.23
58.58,-1.82,-2.99,-1.79,-2.97,2.97,2.39,3.14,1.15,1.17,1.17
59.16,-1.82,-2.93,-1.79,-2.89,2.89,2.34,3.10,1.07,1.11,1.11
59.76,-1.82,-2.87,-1.78,-2.82,2.82,2.29,3.06,1.00,1.04,1.05
60.35,-1.82,-2.79,-1.79,-2.76,2.76,2.24,3.02,0.95,0.97,0.97
60.96,-1.82,-2.73,-1.81,-2.72,2.72,2.19,2.97,0.90,0.91,0.92
61.57,-1.82,-2.66,-1.82,-2.67,2.67,2.14,2.93,0.85,0.85,0.84
62.18,-1.82,-2.59,-1.83,-2.62,2.62,2.09,2.88,0.80,0.78,0.77
62.80,-1.82,-2.54,-1.85,-2.58,2.58,2.04,2.83,0.76,0.73,0.72
63.43,-1.82,-2.48,-1.86,-2.53,2.53,1.99,2.78,0.71,0.67,0.66
64.07,-1.82,-2.43,-1.88,-2.49,2.49,1.95,2.73,0.67,0.61,0.61
64.71,-1.86,-2.42,-1.90,-2.46,2.46,1.90,2.67,0.60,0.56,0.56
65.35,-1.93,-2.43,-1.93,-2.45,2.45,1.86,2.62,0.52,0.51,0.51
66.01,-2.05,-2.51,-1.97,-2.44,2.44,1.81,2.56,0.39,0.47,0.46
66.67,-2.05,-2.47,-2.01,-2.43,2.43,1.77,2.50,0.38,0.42,0.42
67.33,-2.05,-2.43,-2.04,-2.43,2.43,1.72,2.44,0.38,0.38,0.38
68.01,-2.05,-2.39,-2.08,-2.42,2.42,1.68,2.38,0.38,0.34,0.35
68.69,-2.05,-2.36,-2.11,-2.42,2.42,1.64,2.31,0.37,0.31,0.31
69.37,-2.05,-2.32,-2.13,-2.40,2.40,1.59,2.25,0.36,0.27,0.27
70.07,-2.07,-2.30,-2.14,-2.38,2.38,1.55,2.18,0.31,0.23,0.23
70.77,-2.23,-2.44,-2.14,-2.34,2.34,1.51,2.12,0.11,0.20,0.21
71.48,-2.28,-2.45,-2.13,-2.29,2.29,1.47,2.05,0.01,0.16,0.17
72.19,-2.23,-2.36,-2.09,-2.21,2.21,1.43,1.98,-0.01,0.13,0.14
72.91,-2.07,-2.16,-2.04,-2.13,2.13,1.39,1.91,0.06,0.09,0.09
73.64,-2.05,-2.11,-1.98,-2.03,2.03,1.35,1.85,-0.01,0.05,0.06
74.38,-1.99,-2.01,-1.93,-1.94,1.94,1.31,1.78,-0.05,0.02,0.02
75.12,-1.87,-1.85,-1.87,-1.85,1.85,1.27,1.71,-0.02,-0.02,-0.02
75.87,-1.78,-1.72,-1.80,-1.74,1.74,1.23,1.64,-0.03,-0.06,-0.06
76.63,-1.65,-1.55,-1.72,-1.63,1.63,1.19,1.57,-0.01,-0.09,-0.10
77.40,-1.57,-1.44,-1.64,-1.52,1.52,1.15,1.50,-0.05,-0.12,-0.13
78.17,-1.50,-1.33,-1.56,-1.41,1.41,1.11,1.43,-0.09,-0.16,-0.17
78.95,-1.38,-1.19,-1.48,-1.30,1.30,1.08,1.36,-0.08,-0.18,-0.19
79.74,-1.37,-1.16,-1.42,-1.21,1.21,1.04,1.29,-0.16,-0.21,-0.21
80.54,-1.37,-1.13,-1.37,-1.13,1.13,1.00,1.22,-0.23,-0.23,-0.24
81.35,-1.37,-1.10,-1.32,-1.07,1.07,0.97,1.16,-0.30,-0.25,-0.27
82.16,-1.35,-1.07,-1.27,-1.00,1.00,0.93,1.09,-0.35,-0.27,-0.28
82.98,-1.26,-0.97,-1.23,-0.94,0.94,0.89,1.02,-0.31,-0.29,-0.29
83.81,-1.16,-0.86,-1.19,-0.89,0.89,0.86,0.95,-0.27,-0.30,-0.30
84.65,-1.14,-0.82,-1.16,-0.85,0.85,0.82,0.89,-0.29,-0.31,-0.32
85.50,-1.14,-0.82,-1.13,-0.81,0.81,0.78,0.82,-0.33,-0.32,-0.32
86.35,-1.14,-0.81,-1.10,-0.78,0.78,0.75,0.75,-0.36,-0.33,-0.33
87.22,-1.13,-0.79,-1.08,-0.74,0.74,0.71,0.69,-0.39,-0.33,-0.34
88.09,-1.07,-0.72,-1.04,-0.70,0.70,0.68,0.62,-0.36,-0.34,-0.35
88.97,-0.92,-0.58,-1.01,-0.66,0.66,0.64,0.56,-0.26,-0.35,-0.34
89.86,-0.91,-0.56,-0.97,-0.61,0.61,0.61,0.49,-0.30,-0.36,-0.35
90.76,-0.91,-0.54,-0.93,-0.56,0.56,0.57,0.43,-0.35,-0.37,-0.37
91.66,-0.91,-0.53,-0.90,-0.51,0.51,0.54,0.36,-0.40,-0.39,-0.38
92.58,-0.91,-0.50,-0.87,-0.47,0.47,0.50,0.30,-0.44,-0.40,-0.41
93.51,-0.91,-0.49,-0.84,-0.42,0.42,0.47,0.23,-0.49,-0.42,-0.41
94.44,-0.91,-0.47,-0.81,-0.36,0.36,0.43,0.17,-0.54,-0.45,-0.44
95.39,-0.81,-0.34,-0.78,-0.31,0.31,0.40,0.11,-0.50,-0.47,-0.46
96.34,-0.68,-0.17,-0.75,-0.25,0.25,0.36,0.05,-0.42,-0.50,-0.51
97.30,-0.68,-0.14,-0.73,-0.20,0.20,0.33,-0.02,-0.47,-0.53,-0.54
98.28,-0.68,-0.11,-0.72,-0.16,0.16,0.29,-0.08,-0.52,-0.57,-0.57
99.26,-0.68,-0.07,-0.71,-0.10,0.10,0.26,-0.14,-0.57,-0.60,-0.61
100.25,-0.68,-0.03,-0.69,-0.05,0.05,0.22,-0.20,-0.63,-0.65,-0.65
101.25,-0.68,0.02,-0.68,0.01,-0.01,0.18,-0.26,-0.69,-0.69,-0.69
102.27,-0.68,0.06,-0.67,0.08,-0.08,0.15,-0.32,-0.75,-0.74,-0.74
103.29,-0.68,0.12,-0.66,0.14,-0.14,0.11,-0.38,-0.81,-0.80,-0.80
104.32,-0.68,0.17,-0.66,0.20,-0.20,0.08,-0.43,-0.88,-0.86,-0.85
105.37,-0.68,0.23,-0.66,0.26,-0.26,0.04,-0.49,-0.94,-0.92,-0.90
106.42,-0.68,0.29,-0.67,0.32,-0.32,0.01,-0.55,-1.00,-0.99,-0.97
107.48,-0.68,0.37,-0.68,0.38,-0.38,-0.03,-0.60,-1.06,-1.06,-1.05
108.56,-0.68,0.46,-0.68,0.46,-0.46,-0.06,-0.66,-1.14,-1.14,-1.14
109.64,-0.68,0.54,-0.68,0.54,-0.54,-0.10,-0.71,-1.22,-1.22,-1.21
110.74,-0.68,0.61,-0.68,0.62,-0.62,-0.14,-0.76,-1.30,-1.30,-1.29
111.85,-0.68,0.69,-0.68,0.70,-0.70,-0.17,-0.81,-1.38,-1.38,-1.37
112.97,-0.68,0.79,-0.68,0.78,-0.78,-0.21,-0.85,-1.46,-1.46,-1.47
114.10,-0.68,0.86,-0.68,0.87,-0.87,-0.24,-0.90,-1.54,-1.54,-1.54
115.24,-0.68,0.95,-0.68,0.95,-0.95,-0.28,-0.94,-1.63,-1.62,-1.63
116.39,-0.68,1.04,-0.67,1.03,-1.03,-0.32,-0.98,-1.71,-1.70,-1.71
117.55,-0.68,1.11,-0.66,1.11,-1.11,-0.36,-1.02,-1.79,-1.77,-1.79
118.73,-0.68,1.19,-0.66,1.18,-1.18,-0.39,-1.06,-1.86,-1.84,-1.87
119.92,-0.68,1.24,-0.66,1.24,-1.24,-0.43,-1.09,-1.92,-1.91,-1.92
121.12,-0.68,1.31,-0.67,1.29,-1.29,-0.47,-1.12,-1.97,-1.96,-1.98
122.33,-0.68,1.36,-0.67,1.35,-1.35,-0.51,-1.15,-2.03,-2.02,-2.04
123.55,-0.68,1.39,-0.67,1.40,-1.40,-0.54,-1.18,-2.08,-2.07,-2.07
124.79,-0.68,1.44,-0.68,1.44,-1.44,-0.58,-1.20,-2.12,-2.12,-2.12
126.03,-0.68,1.48,-0.69,1.47,-1.47,-0.62,-1.22,-2.15,-2.17,-2.16
127.29,-0.68,1.53,-0.72,1.49,-1.49,-0.66,-1.24,-2.17,-2.21,-2.20
128.57,-0.73,1.53,-0.76,1.50,-1.50,-0.70,-1.25,-2.23,-2.26,-2.25
129.85,-0.89,1.40,-0.80,1.50,-1.50,-0.74,-1.26,-2.39,-2.30,-2.29
131.15,-0.91,1.42,-0.85,1.49,-1.49,-0.78,-1.27,-2.40,-2.34,-2.33
132.46,-0.91,1.47,-0.92,1.46,-1.46,-0.81,-1.28,-2.37,-2.38,-2.38
133.79,-0.91,1.51,-1.00,1.43,-1.43,-0.85,-1.29,-2.33,-2.42,-2.41
135.12,-0.93,1.54,-1.09,1.37,-1.37,-0.89,-1.29,-2.30,-2.46,-2.47
136.48,-1.14,1.37,-1.21,1.30,-1.30,-0.93,-1.29,-2.44,-2.51,-2.51
137.84,-1.35,1.20,-1.33,1.23,-1.23,-0.97,-1.29,-2.57,-2.55,-2.55
139.22,-1.49,1.13,-1.45,1.14,-1.14,-1.01,-1.29,-2.63,-2.60,-2.61
140.61,-1.58,1.09,-1.59,1.06,-1.06,-1.05,-1.28,-2.63,-2.64,-2.66
142.02,-1.70,1.00,-1.73,0.96,-0.96,-1.08,-1.28,-2.66,-2.69,-2.70
143.44,-1.80,0.95,-1.88,0.87,-0.87,-1.12,-1.27,-2.67,-2.75,-2.75
144.87,-2.01,0.79,-2.01,0.80,-0.80,-1.16,-1.26,-2.80,-2.81,-2.80
146.32,-2.20,0.66,-2.15,0.72,-0.72,-1.20,-1.26,-2.92,-2.87,-2.85
147.78,-2.33,0.57,-2.28,0.66,-0.66,-1.23,-1.25,-2.98,-2.94,-2.90
149.26,-2.45,0.53,-2.40,0.61,-0.61,-1.27,-1.24,-3.06,-3.01,-2.98
150.75,-2.51,0.56,-2.48,0.60,-0.60,-1.31,-1.23,-3.11,-3.08,-3.06
152.26,-2.52,0.62,-2.53,0.63,-0.63,-1.34,-1.22,-3.15,-3.16,-3.14
153.78,-2.66,0.56,-2.56,0.68,-0.68,-1.38,-1.22,-3.33,-3.24,-3.22
155.32,-2.72,0.61,-2.58,0.73,-0.73,-1.41,-1.21,-3.45,-3.32,-3.32
156.88,-2.71,0.70,-2.58,0.81,-0.81,-1.44,-1.20,-3.52,-3.40,-3.40
158.44,-2.57,0.92,-2.56,0.91,-0.91,-1.47,-1.19,-3.48,-3.47,-3.49
160.03,-2.51,1.06,-2.51,1.04,-1.04,-1.51,-1.18,-3.55,-3.54,-3.56
161.63,-2.51,1.13,-2.43,1.18,-1.18,-1.53,-1.18,-3.68,-3.61,-3.63
163.24,-2.37,1.32,-2.36,1.31,-1.31,-1.56,-1.17,-3.68,-3.67,-3.69
164.88,-2.28,1.46,-2.28,1.44,-1.44,-1.59,-1.17,-3.71,-3.72,-3.74
166.53,-2.10,1.69,-2.21,1.55,-1.55,-1.62,-1.16,-3.65,-3.76,-3.78
168.19,-2.05,1.77,-2.15,1.65,-1.65,-1.64,-1.16,-3.69,-3.79,-3.82
169.87,-2.05,1.79,-2.09,1.73,-1.73,-1.66,-1.16,-3.78,-3.82,-3.84
171.57,-2.05,1.81,-2.03,1.80,-1.80,-1.68,-1.16,-3.85,-3.84,-3.86
173.29,-1.91,1.95,-1.99,1.85,-1.85,-1.70,-1.16,-3.76,-3.85,-3.86
175.02,-1.82,2.03,-1.97,1.89,-1.89,-1.72,-1.16,-3.70,-3.86,-3.85
176.77,-1.82,2.04,-1.96,1.90,-1.90,-1.74,-1.16,-3.72,-3.87,-3.86
178.54,-2.00,1.86,-1.95,1.92,-1.92,-1.75,-1.16,-3.92,-3.87,-3.86
180.32,-2.05,1.81,-1.94,1.93,-1.93,-1.77,-1.16,-3.98,-3.88,-3.86
182.13,-2.05,1.81,-1.95,1.93,-1.93,-1.78,-1.17,-3.98,-3.88,-3.85
183.95,-2.05,1.81,-1.96,1.93,-1.93,-1.79,-1.17,-3.97,-3.89,-3.86
185.79,-2.05,1.83,-1.98,1.92,-1.92,-1.79,-1.18,-3.97,-3.90,-3.88
187.65,-2.05,1.86,-1.99,1.92,-1.92,-1.80,-1.19,-3.97,-3.91,-3.90
189.52,-2.05,1.88,-2.02,1.91,-1.91,-1.80,-1.19,-3.96,-3.93,-3.93
191.42,-2.05,1.90,-2.05,1.90,-1.90,-1.80,-1.20,-3.94,-3.95,-3.95
193.33,-2.05,1.93,-2.09,1.88,-1.88,-1.80,-1.21,-3.92,-3.97,-3.97
195.27,-2.05,1.94,-2.13,1.86,-1.86,-1.80,-1.22,-3.91,-3.99,-3.99
197.22,-2.05,1.96,-2.17,1.84,-1.84,-1.79,-1.23,-3.89,-4.01,-4.01
199.19,-2.19,1.86,-2.22,1.81,-1.81,-1.79,-1.25,-4.00,-4.03,-4.05
201.18,-2.28,1.78,-2.30,1.76,-1.76,-1.78,-1.26,-4.04,-4.06,-4.06
203.19,-2.32,1.76,-2.38,1.70,-1.70,-1.77,-1.27,-4.01,-4.08,-4.08
205.23,-2.45,1.66,-2.49,1.62,-1.62,-1.76,-1.28,-4.07,-4.10,-4.11
207.28,-2.59,1.53,-2.59,1.53,-1.53,-1.74,-1.30,-4.12,-4.12,-4.12
209.35,-2.70,1.45,-2.69,1.45,-1.45,-1.73,-1.31,-4.15,-4.14,-4.14
211.44,-2.73,1.44,-2.78,1.38,-1.38,-1.71,-1.32,-4.11,-4.16,-4.17
213.56,-2.89,1.29,-2.87,1.31,-1.31,-1.69,-1.34,-4.20,-4.18,-4.18
215.69,-2.96,1.23,-2.94,1.25,-1.25,-1.67,-1.35,-4.21,-4.20,-4.18
217.85,-3.17,1.04,-3.01,1.20,-1.20,-1.65,-1.36,-4.37,-4.21,-4.21
220.03,-3.19,1.04,-3.06,1.16,-1.16,-1.63,-1.37,-4.35,-4.23,-4.23
222.23,-3.19,1.06,-3.09,1.15,-1.15,-1.61,-1.38,-4.33,-4.24,-4.25
224.45,-3.19,1.07,-3.11,1.14,-1.14,-1.58,-1.39,-4.33,-4.25,-4.25
226.70,-3.19,1.07,-3.11,1.15,-1.15,-1.56,-1.40,-4.34,-4.26,-4.26
228.96,-3.03,1.24,-3.09,1.18,-1.18,-1.53,-1.41,-4.21,-4.27,-4.27
231.25,-2.98,1.30,-3.06,1.22,-1.22,-1.51,-1.41,-4.20,-4.28,-4.27
233.57,-2.96,1.33,-3.02,1.26,-1.26,-1.48,-1.41,-4.22,-4.28,-4.29
235.90,-2.96,1.34,-2.98,1.30,-1.30,-1.45,-1.42,-4.26,-4.29,-4.30
238.26,-2.96,1.34,-2.93,1.36,-1.36,-1.42,-1.42,-4.32,-4.29,-4.30
240.64,-2.96,1.34,-2.89,1.41,-1.41,-1.39,-1.41,-4.36,-4.29,-4.30
243.05,-2.80,1.49,-2.84,1.45,-1.45,-1.36,-1.41,-4.25,-4.29,-4.29
245.48,-2.73,1.56,-2.80,1.49,-1.49,-1.33,-1.40,-4.22,-4.29,-4.29
247.93,-2.73,1.55,-2.76,1.52,-1.52,-1.30,-1.39,-4.25,-4.29,-4.28
250.41,-2.73,1.56,-2.74,1.55,-1.55,-1.27,-1.38,-4.27,-4.28,-4.29
252.92,-2.73,1.55,-2.72,1.55,-1.55,-1.24,-1.37,-4.28,-4.28,-4.28
255.45,-2.73,1.53,-2.72,1.55,-1.55,-1.21,-1.35,-4.28,-4.27,-4.26
258.00,-2.73,1.53,-2.72,1.54,-1.54,-1.18,-1.34,-4.27,-4.26,-4.26
260.58,-2.73,1.53,-2.73,1.53,-1.53,-1.14,-1.31,-4.25,-4.25,-4.25
263.19,-2.73,1.51,-2.73,1.51,-1.51,-1.11,-1.29,-4.24,-4.24,-4.24
265.82,-2.73,1.51,-2.74,1.49,-1.49,-1.08,-1.27,-4.21,-4.23,-4.24
268.48,-2.73,1.49,-2.76,1.45,-1.45,-1.04,-1.24,-4.18,-4.21,-4.22
271.16,-2.73,1.48,-2.80,1.40,-1.40,-1.01,-1.21,-4.13,-4.20,-4.20
273.87,-2.82,1.37,-2.83,1.35,-1.35,-0.97,-1.18,-4.17,-4.18,-4.19
276.61,-2.94,1.22,-2.86,1.30,-1.30,-0.94,-1.15,-4.24,-4.16,-4.16
279.38,-2.96,1.19,-2.90,1.24,-1.24,-0.90,-1.11,-4.20,-4.14,-4.14
282.17,-2.96,1.16,-2.93,1.19,-1.19,-0.87,-1.08,-4.15,-4.12,-4.12
284.99,-2.96,1.14,-2.96,1.13,-1.13,-0.83,-1.04,-4.09,-4.09,-4.10
287.84,-2.96,1.11,-2.99,1.07,-1.07,-0.80,-1.00,-4.03,-4.06,-4.07
290.72,-2.96,1.08,-3.03,1.01,-1.01,-0.76,-0.96,-3.97,-4.04,-4.04
293.63,-3.07,0.94,-3.07,0.94,-0.94,-0.72,-0.92,-4.01,-4.01,-4.01
296.57,-3.18,0.81,-3.10,0.89,-0.89,-0.68,-0.88,-4.06,-3.99,-3.99
299.53,-3.19,0.77,-3.13,0.83,-0.83,-0.64,-0.83,-4.02,-3.96,-3.96
302.53,-3.19,0.76,-3.16,0.78,-0.78,-0.60,-0.79,-3.97,-3.94,-3.95
305.55,-3.19,0.72,-3.19,0.74,-0.74,-0.56,-0.75,-3.92,-3.92,-3.91
308.61,-3.19,0.71,-3.22,0.68,-0.68,-0.51,-0.70,-3.87,-3.91,-3.89
311.69,-3.19,0.69,-3.27,0.62,-0.62,-0.46,-0.66,-3.81,-3.89,-3.88
314.81,-3.33,0.52,-3.31,0.57,-0.57,-0.42,-0.62,-3.89,-3.88,-3.85
317.96,-3.41,0.45,-3.36,0.51,-0.51,-0.37,-0.57,-3.92,-3.87,-3.86
321.14,-3.42,0.44,-3.41,0.45,-0.45,-0.31,-0.52,-3.87,-3.86,-3.86
324.35,-3.42,0.44,-3.46,0.39,-0.39,-0.26,-0.48,-3.81,-3.85,-3.85
327.59,-3.45,0.40,-3.51,0.33,-0.33,-0.20,-0.43,-3.78,-3.84,-3.85
330.87,-3.59,0.25,-3.57,0.26,-0.26,-0.14,-0.39,-3.84,-3.83,-3.84
334.18,-3.64,0.20,-3.65,0.18,-0.18,-0.08,-0.34,-3.81,-3.82,-3.83
337.52,-3.77,0.06,-3.73,0.08,-0.08,-0.01,-0.30,-3.85,-3.81,-3.83
340.90,-3.85,-0.05,-3.81,-0.01,0.01,0.07,-0.25,-3.84,-3.80,-3.80
344.30,-3.87,-0.08,-3.90,-0.11,0.11,0.15,-0.21,-3.75,-3.78,-3.79
347.75,-3.93,-0.15,-3.98,-0.21,0.21,0.23,-0.16,-3.71,-3.77,-3.78
351.23,-4.06,-0.31,-4.07,-0.32,0.32,0.32,-0.11,-3.74,-3.75,-3.75
354.74,-4.20,-0.47,-4.16,-0.43,0.43,0.42,-0.07,-3.76,-3.73,-3.73
358.28,-4.31,-0.61,-4.27,-0.56,0.56,0.52,-0.02,-3.75,-3.70,-3.70
361.87,-4.33,-0.64,-4.38,-0.70,0.70,0.63,0.02,-3.63,-3.68,-3.68
365.49,-4.49,-0.83,-4.49,-0.83,0.83,0.75,0.07,-3.66,-3.66,-3.66
369.14,-4.57,-0.93,-4.59,-0.96,0.96,0.87,0.11,-3.61,-3.64,-3.64
372.83,-4.72,-1.11,-4.70,-1.09,1.09,1.00,0.16,-3.63,-3.62,-3.61
376.56,-4.78,-1.18,-4.81,-1.21,1.21,1.14,0.20,-3.56,-3.60,-3.59
380.33,-4.88,-1.31,-4.92,-1.34,1.34,1.28,0.25,-3.53,-3.58,-3.57
384.13,-4.99,-1.44,-5.03,-1.47,1.47,1.42,0.29,-3.51,-3.56,-3.55
387.97,-5.17,-1.63,-5.14,-1.60,1.60,1.56,0.34,-3.57,-3.54,-3.54
391.85,-5.25,-1.72,-5.24,-1.71,1.71,1.70,0.38,-3.54,-3.53,-3.53
395.77,-5.41,-1.89,-5.34,-1.81,1.81,1.82,0.43,-3.59,-3.52,-3.52
399.73,-5.47,-1.95,-5.43,-1.91,1.91,1.93,0.47,-3.55,-3.51,-3.51
403.72,-5.47,-1.96,-5.50,-2.00,2.00,2.02,0.51,-3.47,-3.50,-3.51
407.76,-5.47,-1.97,-5.56,-2.07,2.07,2.09,0.56,-3.40,-3.50,-3.50
411.84,-5.60,-2.11,-5.61,-2.12,2.12,2.13,0.60,-3.48,-3.49,-3.49
415.96,-5.69,-2.21,-5.64,-2.15,2.15,2.13,0.64,-3.53,-3.49,-3.48
420.12,-5.70,-2.22,-5.66,-2.17,2.17,2.11,0.68,-3.53,-3.49,-3.48
424.32,-5.70,-2.22,-5.65,-2.17,2.17,2.06,0.72,-3.53,-3.48,-3.48
428.56,-5.70,-2.21,-5.63,-2.14,2.14,1.98,0.76,-3.55,-3.48,-3.48
432.85,-5.61,-2.12,-5.58,-2.10,2.10,1.88,0.79,-3.50,-3.48,-3.48
437.18,-5.49,-2.01,-5.52,-2.05,2.05,1.77,0.83,-3.44,-3.47,-3.48
441.55,-5.47,-2.00,-5.44,-1.97,1.97,1.64,0.86,-3.50,-3.47,-3.47
445.96,-5.31,-1.84,-5.34,-1.88,1.88,1.51,0.89,-3.43,-3.46,-3.47
450.42,-5.24,-1.78,-5.22,-1.77,1.77,1.38,0.92,-3.47,-3.45,-3.46
454.93,-5.06,-1.61,-5.08,-1.63,1.63,1.25,0.95,-3.43,-3.44,-3.45
459.48,-4.96,-1.52,-4.91,-1.48,1.48,1.13,0.97,-3.48,-3.43,-3.44
464.07,-4.72,-1.30,-4.73,-1.31,1.31,1.01,0.99,-3.41,-3.42,-3.42
