frequency,raw,error,smoothed,error_smoothed,equalization,parametric_eq,fixed_band_eq,equalized_raw,equalized_smoothed,target
20.00,19.12,9.53,19.13,9.53,-9.53,-9.51,-3.59,9.59,9.60,9.59
20.20,19.10,9.51,19.10,9.51,-9.51,-9.50,-3.69,9.59,9.59,9.59
20.40,19.08,9.49,19.08,9.49,-9.49,-9.49,-3.79,9.59,9.59,9.59
20.61,19.05,9.46,19.05,9.46,-9.46,-9.48,-3.89,9.59,9.59,9.59
20.81,19.03,9.45,19.03,9.44,-9.44,-9.46,-4.00,9.59,9.59,9.58
21.02,19.00,9.42,19.00,9.41,-9.41,-9.44,-4.11,9.59,9.59,9.58
21.23,18.96,9.38,18.96,9.38,-9.38,-9.41,-4.22,9.58,9.58,9.58
21.44,18.93,9.34,18.93,9.35,-9.35,-9.38,-4.34,9.58,9.58,9.59
21.66,18.89,9.31,18.90,9.32,-9.32,-9.35,-4.46,9.58,9.58,9.58
21.87,18.85,9.27,18.86,9.28,-9.28,-9.32,-4.58,9.57,9.57,9.58
22.09,18.82,9.25,18.82,9.25,-9.25,-9.28,-4.71,9.57,9.57,9.57
22.31,18.78,9.21,18.78,9.21,-9.21,-9.24,-4.84,9.57,9.57,9.57
22.54,18.73,9.17,18.74,9.17,-9.17,-9.20,-4.98,9.56,9.56,9.56
22.76,18.69,9.13,18.69,9.13,-9.13,-9.15,-5.11,9.56,9.56,9.56
22.99,18.64,9.09,18.65,9.09,-9.09,-9.10,-5.25,9.55,9.55,9.55
23.22,18.60,9.06,18.60,9.05,-9.05,-9.05,-5.40,9.55,9.55,9.54
23.45,18.55,9.01,18.55,9.01,-9.01,-9.00,-5.55,9.55,9.54,9.54
23.69,18.50,8.97,18.50,8.96,-8.96,-8.95,-5.70,9.54,9.54,9.53
23.92,18.44,8.92,18.44,8.91,-8.91,-8.90,-5.85,9.53,9.53,9.52
24.16,18.39,8.87,18.39,8.87,-8.87,-8.84,-6.01,9.53,9.53,9.52
24.40,18.33,8.81,18.34,8.81,-8.81,-8.78,-6.17,9.52,9.52,9.52
24.65,18.27,8.75,18.28,8.76,-8.76,-8.72,-6.34,9.51,9.52,9.52
24.89,18.22,8.70,18.22,8.71,-8.71,-8.66,-6.50,9.51,9.51,9.52
25.14,18.16,8.65,18.16,8.65,-8.65,-8.60,-6.67,9.51,9.51,9.51
25.39,18.10,8.60,18.11,8.59,-8.59,-8.54,-6.84,9.51,9.51,9.50
25.65,18.04,8.54,18.04,8.53,-8.53,-8.48,-7.02,9.51,9.51,9.50
25.91,17.98,8.48,17.98,8.47,-8.47,-8.41,-7.19,9.51,9.51,9.50
26.16,17.92,8.41,17.92,8.41,-8.41,-8.35,-7.37,9.51,9.51,9.51
26.43,17.86,8.35,17.86,8.35,-8.35,-8.28,-7.54,9.51,9.51,9.51
26.69,17.80,8.29,17.80,8.29,-8.29,-8.22,-7.72,9.51,9.51,9.51
26.96,17.73,8.23,17.73,8.23,-8.23,-8.15,-7.89,9.50,9.51,9.50
27.23,17.67,8.17,17.67,8.17,-8.17,-8.09,-8.06,9.51,9.50,9.50
27.50,17.60,8.10,17.61,8.10,-8.10,-8.02,-8.23,9.50,9.50,9.50
27.77,17.54,8.03,17.54,8.04,-8.04,-7.96,-8.39,9.50,9.50,9.51
28.05,17.47,7.97,17.48,7.98,-7.98,-7.89,-8.55,9.49,9.50,9.50
28.33,17.40,7.91,17.41,7.91,-7.91,-7.83,-8.70,9.49,9.49,9.49
28.62,17.34,7.86,17.34,7.85,-7.85,-7.76,-8.85,9.49,9.49,9.48
28.90,17.27,7.78,17.27,7.79,-7.79,-7.70,-8.98,9.48,9.48,9.49
29.19,17.21,7.73,17.21,7.73,-7.73,-7.64,-9.10,9.48,9.48,9.48
29.48,17.13,7.66,17.14,7.67,-7.67,-7.57,-9.22,9.47,9.47,9.47
29.78,17.07,7.61,17.07,7.60,-7.60,-7.51,-9.32,9.47,9.47,9.46
30.08,17.00,7.54,17.00,7.54,-7.54,-7.45,-9.40,9.46,9.46,9.46
30.38,16.93,7.48,16.93,7.48,-7.48,-7.38,-9.48,9.46,9.46,9.45
30.68,16.86,7.42,16.87,7.41,-7.41,-7.32,-9.53,9.45,9.45,9.44
30.99,16.79,7.35,16.80,7.35,-7.35,-7.26,-9.57,9.45,9.45,9.44
31.30,16.72,7.28,16.73,7.28,-7.28,-7.20,-9.60,9.44,9.45,9.44
31.61,16.66,7.22,16.66,7.22,-7.22,-7.14,-9.60,9.45,9.44,9.44
31.93,16.59,7.16,16.59,7.15,-7.15,-7.08,-9.59,9.44,9.44,9.43
32.24,16.52,7.08,16.53,7.09,-7.09,-7.03,-9.57,9.43,9.44,9.44
32.57,16.46,7.03,16.46,7.02,-7.02,-6.97,-9.53,9.44,9.43,9.43
32.89,16.39,6.96,16.39,6.96,-6.96,-6.91,-9.47,9.43,9.43,9.43
33.22,16.32,6.89,16.32,6.90,-6.90,-6.86,-9.41,9.42,9.43,9.43
33.55,16.25,6.83,16.26,6.84,-6.84,-6.80,-9.33,9.41,9.42,9.42
33.89,16.19,6.78,16.19,6.78,-6.78,-6.75,-9.23,9.41,9.41,9.41
34.23,16.12,6.73,16.12,6.73,-6.73,-6.70,-9.13,9.40,9.40,9.39
34.57,16.06,6.67,16.06,6.67,-6.67,-6.64,-9.02,9.39,9.38,9.39
34.92,15.99,6.62,15.99,6.62,-6.62,-6.59,-8.91,9.37,9.37,9.37
35.27,15.92,6.56,15.93,6.58,-6.58,-6.54,-8.78,9.35,9.35,9.36
35.62,15.86,6.53,15.86,6.53,-6.53,-6.49,-8.66,9.33,9.33,9.33
35.97,15.79,6.48,15.79,6.49,-6.49,-6.44,-8.53,9.30,9.30,9.31
36.33,15.72,6.44,15.73,6.45,-6.45,-6.40,-8.39,9.27,9.28,9.28
36.70,15.66,6.41,15.66,6.41,-6.41,-6.35,-8.26,9.25,9.25,9.25
37.06,15.59,6.37,15.60,6.38,-6.38,-6.31,-8.12,9.22,9.22,9.22
37.43,15.53,6.34,15.53,6.34,-6.34,-6.26,-7.99,9.19,9.19,9.19
37.81,15.47,6.31,15.47,6.30,-6.30,-6.22,-7.85,9.17,9.16,9.16
38.19,15.40,6.28,15.40,6.27,-6.27,-6.18,-7.72,9.13,9.13,9.12
38.57,15.34,6.24,15.34,6.24,-6.24,-6.13,-7.59,9.11,9.10,9.10
38.95,15.27,6.20,15.28,6.20,-6.20,-6.09,-7.46,9.07,9.07,9.07
39.34,15.21,6.18,15.21,6.17,-6.17,-6.05,-7.34,9.04,9.04,9.03
39.74,15.15,6.15,15.15,6.13,-6.13,-6.02,-7.22,9.02,9.01,9.00
40.14,15.08,6.10,15.09,6.10,-6.10,-5.98,-7.10,8.98,8.98,8.98
40.54,15.01,6.05,15.02,6.07,-6.07,-5.94,-6.99,8.95,8.96,8.96
40.94,14.96,6.03,14.96,6.03,-6.03,-5.91,-6.88,8.93,8.93,8.93
41.35,14.89,5.99,14.90,5.99,-5.99,-5.87,-6.77,8.90,8.91,8.90
41.76,14.83,5.96,14.83,5.95,-5.95,-5.84,-6.67,8.88,8.88,8.87
42.18,14.77,5.91,14.77,5.91,-5.91,-5.80,-6.57,8.86,8.86,8.86
42.60,14.70,5.87,14.71,5.88,-5.88,-5.77,-6.48,8.83,8.83,8.83
43.03,14.65,5.85,14.65,5.84,-5.84,-5.74,-6.39,8.82,8.81,8.80
43.46,14.58,5.80,14.58,5.80,-5.80,-5.71,-6.31,8.78,8.78,8.78
43.90,14.52,5.76,14.52,5.76,-5.76,-5.68,-6.23,8.76,8.76,8.76
44.33,14.46,5.74,14.46,5.73,-5.73,-5.65,-6.16,8.73,8.73,8.72
44.78,14.39,5.69,14.40,5.70,-5.70,-5.62,-6.09,8.70,8.70,8.70
45.23,14.33,5.64,14.34,5.66,-5.66,-5.60,-6.02,8.67,8.67,8.69
45.68,14.27,5.62,14.28,5.63,-5.63,-5.57,-5.96,8.64,8.64,8.65
46.13,14.22,5.62,14.22,5.61,-5.61,-5.54,-5.91,8.62,8.61,8.60
46.60,14.15,5.57,14.16,5.58,-5.58,-5.52,-5.86,8.57,8.58,8.58
47.06,14.10,5.56,14.09,5.56,-5.56,-5.50,-5.81,8.55,8.54,8.54
47.53,14.03,5.52,14.03,5.54,-5.54,-5.47,-5.77,8.50,8.50,8.51
48.01,13.97,5.52,13.97,5.52,-5.52,-5.45,-5.73,8.46,8.46,8.45
48.49,13.91,5.49,13.91,5.50,-5.50,-5.43,-5.69,8.41,8.41,8.42
48.97,13.85,5.48,13.85,5.48,-5.48,-5.41,-5.66,8.37,8.37,8.37
49.46,13.79,5.46,13.79,5.47,-5.47,-5.39,-5.63,8.33,8.32,8.33
49.96,13.73,5.47,13.73,5.45,-5.45,-5.37,-5.61,8.28,8.28,8.26
50.46,13.66,5.44,13.67,5.44,-5.44,-5.35,-5.59,8.23,8.23,8.22
50.96,13.60,5.43,13.61,5.42,-5.42,-5.33,-5.57,8.18,8.18,8.17
51.47,13.54,5.41,13.55,5.41,-5.41,-5.31,-5.55,8.13,8.14,8.13
51.99,13.48,5.40,13.49,5.40,-5.40,-5.30,-5.54,8.09,8.09,8.08
52.51,13.43,5.39,13.42,5.38,-5.38,-5.28,-5.53,8.05,8.04,8.04
53.03,13.36,5.35,13.36,5.37,-5.37,-5.26,-5.52,7.99,8.00,8.01
53.56,13.30,5.34,13.30,5.35,-5.35,-5.25,-5.51,7.95,7.95,7.96
54.10,13.24,5.34,13.24,5.34,-5.34,-5.23,-5.51,7.90,7.90,7.90
54.64,13.18,5.32,13.18,5.32,-5.32,-5.22,-5.50,7.86,7.86,7.86
55.18,13.12,5.32,13.12,5.31,-5.31,-5.21,-5.50,7.82,7.82,7.80
55.74,13.06,5.30,13.06,5.29,-5.29,-5.19,-5.49,7.78,7.77,7.76
56.29,13.00,5.28,13.00,5.27,-5.27,-5.18,-5.49,7.73,7.73,7.72
56.86,12.93,5.25,12.94,5.25,-5.25,-5.17,-5.48,7.68,7.69,7.68
57.42,12.87,5.25,12.88,5.24,-5.24,-5.16,-5.48,7.63,7.64,7.62
58.00,12.82,5.24,12.82,5.22,-5.22,-5.14,-5.47,7.60,7.59,7.58
58.58,12.76,5.21,12.75,5.21,-5.21,-5.13,-5.46,7.55,7.54,7.55
59.16,12.69,5.18,12.69,5.20,-5.20,-5.12,-5.45,7.49,7.49,7.51
59.76,12.63,5.16,12.63,5.19,-5.19,-5.11,-5.44,7.44,7.44,7.47
60.35,12.56,5.16,12.57,5.18,-5.18,-5.10,-5.42,7.38,7.39,7.40
60.96,12.51,5.16,12.51,5.18,-5.18,-5.09,-5.40,7.34,7.33,7.35
61.57,12.44,5.17,12.45,5.17,-5.17,-5.08,-5.38,7.27,7.28,7.27
62.18,12.38,5.17,12.39,5.16,-5.16,-5.07,-5.36,7.22,7.22,7.21
62.80,12.32,5.17,12.32,5.16,-5.16,-5.07,-5.33,7.16,7.16,7.15
63.43,12.26,5.18,12.26,5.16,-5.16,-5.06,-5.31,7.11,7.11,7.08
64.07,12.20,5.17,12.20,5.15,-5.15,-5.05,-5.27,7.05,7.05,7.03
64.71,12.14,5.16,12.14,5.15,-5.15,-5.04,-5.24,7.00,6.99,6.98
65.35,12.07,5.14,12.07,5.14,-5.14,-5.03,-5.20,6.93,6.93,6.93
66.01,12.01,5.14,12.01,5.14,-5.14,-5.02,-5.16,6.88,6.88,6.87
66.67,11.95,5.12,11.95,5.13,-5.13,-5.02,-5.12,6.82,6.82,6.83
67.33,11.88,5.12,11.89,5.12,-5.12,-5.01,-5.08,6.76,6.76,6.76
68.01,11.81,5.10,11.82,5.11,-5.11,-5.00,-5.03,6.70,6.71,6.71
68.69,11.76,5.11,11.76,5.10,-5.10,-4.99,-4.98,6.66,6.65,6.65
69.37,11.69,5.09,11.69,5.09,-5.09,-4.99,-4.94,6.60,6.60,6.60
70.07,11.62,5.07,11.63,5.08,-5.08,-4.98,-4.89,6.54,6.54,6.55
70.77,11.56,5.07,11.56,5.08,-5.08,-4.97,-4.83,6.49,6.48,6.49
71.48,11.50,5.07,11.50,5.07,-5.07,-4.96,-4.78,6.43,6.43,6.43
72.19,11.42,5.06,11.43,5.06,-5.06,-4.96,-4.73,6.36,6.37,6.36
72.91,11.36,5.05,11.36,5.05,-5.05,-4.95,-4.68,6.31,6.31,6.31
73.64,11.29,5.05,11.30,5.05,-5.05,-4.94,-4.63,6.25,6.25,6.24
74.38,11.23,5.05,11.23,5.04,-5.04,-4.93,-4.58,6.20,6.20,6.18
75.12,11.16,5.03,11.17,5.02,-5.02,-4.93,-4.54,6.14,6.14,6.13
75.87,11.10,5.01,11.10,5.01,-5.01,-4.92,-4.49,6.09,6.09,6.09
76.63,11.03,5.00,11.03,5.00,-5.00,-4.91,-4.44,6.03,6.03,6.03
77.40,10.96,4.99,10.96,4.99,-4.99,-4.90,-4.40,5.98,5.98,5.97
78.17,10.90,4.99,10.90,4.97,-4.97,-4.89,-4.36,5.93,5.92,5.91
78.95,10.82,4.94,10.83,4.96,-4.96,-4.88,-4.32,5.87,5.87,5.88
79.74,10.76,4.94,10.76,4.94,-4.94,-4.88,-4.28,5.82,5.82,5.82
80.54,10.69,4.93,10.69,4.92,-4.92,-4.87,-4.25,5.77,5.77,5.76
81.35,10.62,4.90,10.62,4.91,-4.91,-4.86,-4.22,5.72,5.72,5.72
82.16,10.55,4.88,10.55,4.89,-4.89,-4.85,-4.19,5.66,5.67,5.67
82.98,10.48,4.87,10.48,4.87,-4.87,-4.84,-4.16,5.61,5.61,5.61
83.81,10.41,4.85,10.41,4.85,-4.85,-4.83,-4.14,5.56,5.56,5.56
84.65,10.34,4.84,10.34,4.84,-4.84,-4.82,-4.12,5.51,5.51,5.50
85.50,10.27,4.82,10.27,4.82,-4.82,-4.81,-4.10,5.46,5.46,5.45
86.35,10.20,4.80,10.20,4.80,-4.80,-4.80,-4.08,5.40,5.40,5.40
87.22,10.12,4.77,10.13,4.78,-4.78,-4.78,-4.07,5.34,5.35,5.35
88.09,10.06,4.77,10.06,4.76,-4.76,-4.77,-4.06,5.30,5.30,5.29
88.97,9.98,4.74,9.99,4.74,-4.74,-4.76,-4.06,5.24,5.24,5.24
89.86,9.91,4.73,9.91,4.73,-4.73,-4.75,-4.05,5.19,5.18,5.18
90.76,9.84,4.72,9.84,4.71,-4.71,-4.74,-4.06,5.13,5.13,5.12
91.66,9.76,4.69,9.77,4.70,-4.70,-4.72,-4.06,5.06,5.07,5.07
92.58,9.69,4.68,9.69,4.69,-4.69,-4.71,-4.06,5.01,5.01,5.01
93.51,9.61,4.66,9.62,4.67,-4.67,-4.70,-4.07,4.94,4.94,4.95
94.44,9.54,4.65,9.54,4.66,-4.66,-4.68,-4.09,4.88,4.88,4.89
95.39,9.46,4.64,9.46,4.65,-4.65,-4.67,-4.10,4.81,4.81,4.82
96.34,9.38,4.63,9.39,4.64,-4.64,-4.65,-4.12,4.74,4.75,4.75
97.30,9.31,4.62,9.31,4.63,-4.63,-4.64,-4.14,4.69,4.68,4.69
98.28,9.23,4.63,9.23,4.61,-4.61,-4.62,-4.16,4.62,4.62,4.60
99.26,9.15,4.62,9.15,4.60,-4.60,-4.60,-4.18,4.55,4.55,4.53
100.25,9.07,4.60,9.07,4.59,-4.59,-4.59,-4.21,4.49,4.48,4.47
101.25,8.99,4.58,8.99,4.57,-4.57,-4.57,-4.23,4.42,4.42,4.41
102.27,8.90,4.55,8.91,4.56,-4.56,-4.55,-4.26,4.35,4.35,4.35
103.29,8.83,4.55,8.83,4.54,-4.54,-4.53,-4.29,4.30,4.29,4.28
104.32,8.74,4.51,8.75,4.52,-4.52,-4.51,-4.32,4.23,4.23,4.23
105.37,8.66,4.49,8.67,4.50,-4.50,-4.49,-4.35,4.17,4.17,4.17
106.42,8.58,4.47,8.58,4.47,-4.47,-4.47,-4.39,4.11,4.11,4.11
107.48,8.50,4.46,8.50,4.45,-4.45,-4.45,-4.42,4.05,4.05,4.04
108.56,8.41,4.42,8.42,4.43,-4.43,-4.43,-4.45,3.99,3.99,3.99
109.64,8.33,4.39,8.33,4.40,-4.40,-4.41,-4.48,3.93,3.93,3.94
110.74,8.24,4.37,8.25,4.38,-4.38,-4.39,-4.51,3.87,3.87,3.87
111.85,8.17,4.36,8.16,4.36,-4.36,-4.37,-4.53,3.82,3.81,3.81
112.97,8.08,4.33,8.08,4.33,-4.33,-4.34,-4.56,3.75,3.74,3.75
114.10,7.99,4.30,7.99,4.31,-4.31,-4.32,-4.58,3.68,3.68,3.69
115.24,7.90,4.28,7.90,4.29,-4.29,-4.30,-4.60,3.62,3.62,3.62
116.39,7.81,4.27,7.82,4.27,-4.27,-4.27,-4.62,3.55,3.55,3.54
117.55,7.73,4.25,7.73,4.25,-4.25,-4.25,-4.63,3.49,3.48,3.48
118.73,7.63,4.23,7.64,4.23,-4.23,-4.22,-4.64,3.41,3.41,3.40
119.92,7.54,4.21,7.55,4.21,-4.21,-4.20,-4.65,3.34,3.34,3.33
121.12,7.45,4.18,7.46,4.19,-4.19,-4.17,-4.65,3.27,3.27,3.27
122.33,7.36,4.17,7.36,4.17,-4.17,-4.14,-4.64,3.19,3.19,3.19
123.55,7.27,4.14,7.27,4.15,-4.15,-4.12,-4.63,3.12,3.12,3.13
124.79,7.18,4.12,7.18,4.13,-4.13,-4.09,-4.62,3.05,3.05,3.06
126.03,7.08,4.09,7.09,4.11,-4.11,-4.06,-4.60,2.97,2.97,2.99
127.29,6.99,4.09,6.99,4.09,-4.09,-4.03,-4.57,2.90,2.90,2.90
128.57,6.90,4.07,6.90,4.07,-4.07,-4.00,-4.54,2.84,2.83,2.83
129.85,6.80,4.05,6.80,4.04,-4.04,-3.97,-4.51,2.76,2.76,2.75
131.15,6.71,4.03,6.71,4.01,-4.01,-3.94,-4.47,2.70,2.69,2.68
132.46,6.60,3.99,6.61,3.98,-3.98,-3.91,-4.43,2.62,2.63,2.61
133.79,6.51,3.96,6.51,3.95,-3.95,-3.88,-4.38,2.56,2.56,2.55
135.12,6.41,3.93,6.42,3.92,-3.92,-3.85,-4.33,2.49,2.50,2.48
136.48,6.32,3.88,6.32,3.89,-3.89,-3.82,-4.27,2.44,2.44,2.44
137.84,6.22,3.84,6.23,3.85,-3.85,-3.79,-4.22,2.38,2.38,2.38
139.22,6.13,3.82,6.13,3.81,-3.81,-3.75,-4.15,2.33,2.32,2.31
140.61,6.02,3.75,6.03,3.76,-3.76,-3.72,-4.09,2.26,2.27,2.27
142.02,5.93,3.71,5.93,3.72,-3.72,-3.69,-4.02,2.22,2.22,2.22
143.44,5.84,3.68,5.84,3.67,-3.67,-3.65,-3.96,2.17,2.17,2.16
144.87,5.73,3.61,5.74,3.62,-3.62,-3.62,-3.89,2.11,2.12,2.12
146.32,5.64,3.57,5.64,3.57,-3.57,-3.59,-3.82,2.07,2.07,2.07
147.78,5.55,3.53,5.54,3.52,-3.52,-3.55,-3.75,2.03,2.03,2.02
149.26,5.45,3.47,5.44,3.47,-3.47,-3.52,-3.68,1.99,1.98,1.98
150.75,5.34,3.42,5.35,3.42,-3.42,-3.48,-3.61,1.93,1.93,1.92
152.26,5.25,3.36,5.25,3.37,-3.37,-3.44,-3.53,1.89,1.88,1.89
153.78,5.14,3.31,5.15,3.31,-3.31,-3.41,-3.46,1.83,1.83,1.83
155.32,5.05,3.26,5.05,3.26,-3.26,-3.37,-3.40,1.79,1.79,1.79
156.88,4.94,3.20,4.95,3.21,-3.21,-3.33,-3.33,1.73,1.74,1.74
158.44,4.85,3.16,4.85,3.16,-3.16,-3.30,-3.26,1.69,1.69,1.69
160.03,4.75,3.11,4.75,3.12,-3.12,-3.26,-3.19,1.64,1.64,1.64
161.63,4.65,3.06,4.65,3.07,-3.07,-3.22,-3.13,1.58,1.59,1.59
163.24,4.56,3.04,4.56,3.02,-3.02,-3.19,-3.07,1.54,1.53,1.52
164.88,4.46,2.98,4.46,2.98,-2.98,-3.15,-3.00,1.48,1.48,1.48
166.53,4.37,2.95,4.37,2.94,-2.94,-3.11,-2.94,1.43,1.43,1.42
168.19,4.27,2.89,4.28,2.90,-2.90,-3.07,-2.89,1.37,1.38,1.38
169.87,4.18,2.85,4.19,2.86,-2.86,-3.03,-2.83,1.32,1.32,1.33
171.57,4.09,2.83,4.10,2.82,-2.82,-2.99,-2.78,1.27,1.27,1.26
173.29,4.01,2.80,4.01,2.79,-2.79,-2.95,-2.73,1.22,1.22,1.21
175.02,3.92,2.75,3.93,2.76,-2.76,-2.91,-2.68,1.17,1.17,1.17
176.77,3.84,2.72,3.85,2.72,-2.72,-2.87,-2.63,1.12,1.12,1.12
178.54,3.76,2.69,3.77,2.70,-2.70,-2.83,-2.58,1.07,1.07,1.07
180.32,3.69,2.68,3.69,2.67,-2.67,-2.79,-2.54,1.02,1.02,1.01
182.13,3.61,2.64,3.62,2.65,-2.65,-2.75,-2.50,0.97,0.97,0.97
183.95,3.54,2.61,3.55,2.63,-2.63,-2.71,-2.46,0.92,0.92,0.93
185.79,3.47,2.60,3.48,2.61,-2.61,-2.67,-2.42,0.86,0.87,0.87
187.65,3.41,2.58,3.42,2.59,-2.59,-2.63,-2.38,0.82,0.82,0.83
189.52,3.34,2.56,3.35,2.58,-2.58,-2.59,-2.35,0.77,0.78,0.78
191.42,3.29,2.56,3.29,2.56,-2.56,-2.55,-2.31,0.73,0.73,0.73
193.33,3.23,2.55,3.23,2.55,-2.55,-2.51,-2.28,0.69,0.69,0.68
195.27,3.17,2.54,3.17,2.53,-2.53,-2.46,-2.25,0.64,0.64,0.63
197.22,3.11,2.53,3.11,2.52,-2.52,-2.42,-2.23,0.60,0.60,0.58
199.19,3.05,2.50,3.05,2.50,-2.50,-2.38,-2.20,0.55,0.55,0.55
201.18,2.99,2.49,2.99,2.48,-2.48,-2.34,-2.17,0.51,0.51,0.50
203.19,2.94,2.47,2.93,2.46,-2.46,-2.30,-2.15,0.48,0.47,0.47
205.23,2.87,2.44,2.87,2.44,-2.44,-2.25,-2.13,0.43,0.43,0.43
207.28,2.81,2.41,2.80,2.41,-2.41,-2.21,-2.11,0.40,0.39,0.40
209.35,2.74,2.38,2.74,2.38,-2.38,-2.17,-2.08,0.36,0.36,0.36
211.44,2.67,2.35,2.67,2.35,-2.35,-2.13,-2.06,0.32,0.32,0.32
213.56,2.61,2.33,2.60,2.32,-2.32,-2.08,-2.04,0.30,0.29,0.28
215.69,2.53,2.28,2.54,2.28,-2.28,-2.04,-2.02,0.25,0.25,0.25
217.85,2.46,2.24,2.47,2.24,-2.24,-2.00,-2.00,0.22,0.22,0.22
220.03,2.39,2.21,2.39,2.20,-2.20,-1.95,-1.98,0.19,0.19,0.18
222.23,2.32,2.16,2.32,2.16,-2.16,-1.91,-1.96,0.16,0.16,0.16
224.45,2.25,2.12,2.25,2.12,-2.12,-1.87,-1.94,0.13,0.13,0.13
226.70,2.17,2.07,2.18,2.08,-2.08,-1.83,-1.92,0.10,0.10,0.10
228.96,2.10,2.02,2.11,2.03,-2.03,-1.78,-1.90,0.07,0.08,0.08
231.25,2.04,1.98,2.04,1.98,-1.98,-1.74,-1.88,0.06,0.05,0.06
233.57,1.96,1.93,1.97,1.94,-1.94,-1.69,-1.86,0.03,0.03,0.03
235.90,1.89,1.89,1.90,1.89,-1.89,-1.65,-1.83,0.00,0.01,0.00
238.26,1.82,1.85,1.83,1.84,-1.84,-1.61,-1.81,-0.02,-0.01,-0.03
240.64,1.75,1.78,1.76,1.79,-1.79,-1.56,-1.78,-0.04,-0.03,-0.03
243.05,1.69,1.74,1.69,1.74,-1.74,-1.52,-1.75,-0.05,-0.05,-0.05
245.48,1.62,1.70,1.62,1.69,-1.69,-1.48,-1.72,-0.07,-0.07,-0.08
247.93,1.55,1.65,1.55,1.64,-1.64,-1.43,-1.69,-0.09,-0.08,-0.10
250.41,1.49,1.59,1.49,1.59,-1.59,-1.39,-1.65,-0.09,-0.10,-0.10
252.92,1.42,1.53,1.42,1.54,-1.54,-1.34,-1.62,-0.11,-0.11,-0.11
255.45,1.35,1.48,1.36,1.48,-1.48,-1.30,-1.58,-0.13,-0.13,-0.13
258.00,1.28,1.42,1.29,1.43,-1.43,-1.25,-1.54,-0.15,-0.14,-0.14
260.58,1.22,1.37,1.22,1.38,-1.38,-1.21,-1.50,-0.16,-0.16,-0.15
263.19,1.16,1.33,1.16,1.33,-1.33,-1.16,-1.45,-0.16,-0.17,-0.17
265.82,1.09,1.27,1.09,1.28,-1.28,-1.12,-1.41,-0.18,-0.18,-0.18
268.48,1.03,1.22,1.03,1.22,-1.22,-1.08,-1.36,-0.19,-0.20,-0.19
271.16,0.96,1.17,0.96,1.17,-1.17,-1.03,-1.31,-0.21,-0.21,-0.21
273.87,0.89,1.11,0.90,1.12,-1.12,-0.99,-1.26,-0.22,-0.22,-0.22
276.61,0.83,1.07,0.83,1.06,-1.06,-0.94,-1.21,-0.23,-0.23,-0.24
279.38,0.76,1.02,0.76,1.01,-1.01,-0.90,-1.16,-0.25,-0.24,-0.26
282.17,0.70,0.97,0.70,0.95,-0.95,-0.85,-1.10,-0.25,-0.26,-0.27
284.99,0.63,0.89,0.63,0.90,-0.90,-0.80,-1.05,-0.27,-0.27,-0.26
287.84,0.56,0.83,0.57,0.84,-0.84,-0.76,-0.99,-0.28,-0.28,-0.27
290.72,0.50,0.80,0.50,0.78,-0.78,-0.71,-0.93,-0.28,-0.28,-0.30
293.63,0.43,0.72,0.43,0.73,-0.73,-0.67,-0.87,-0.29,-0.29,-0.29
296.57,0.36,0.66,0.37,0.67,-0.67,-0.62,-0.81,-0.30,-0.30,-0.30
299.53,0.30,0.61,0.30,0.60,-0.60,-0.58,-0.75,-0.30,-0.31,-0.31
302.53,0.23,0.54,0.23,0.54,-0.54,-0.53,-0.69,-0.31,-0.31,-0.31
305.55,0.16,0.48,0.17,0.48,-0.48,-0.48,-0.63,-0.32,-0.32,-0.32
308.61,0.09,0.41,0.10,0.42,-0.42,-0.44,-0.57,-0.33,-0.32,-0.32
311.69,0.03,0.36,0.03,0.36,-0.36,-0.39,-0.51,-0.32,-0.33,-0.33
314.81,-0.03,0.30,-0.04,0.29,-0.29,-0.35,-0.44,-0.32,-0.33,-0.33
317.96,-0.11,0.23,-0.10,0.23,-0.23,-0.30,-0.38,-0.34,-0.33,-0.34
321.14,-0.17,0.16,-0.17,0.17,-0.17,-0.25,-0.32,-0.33,-0.33,-0.33
324.35,-0.24,0.11,-0.23,0.10,-0.10,-0.21,-0.25,-0.34,-0.34,-0.35
327.59,-0.30,0.03,-0.30,0.04,-0.04,-0.16,-0.19,-0.34,-0.34,-0.33
330.87,-0.37,-0.03,-0.36,-0.03,0.03,-0.11,-0.13,-0.34,-0.34,-0.34
334.18,-0.43,-0.08,-0.43,-0.09,0.09,-0.07,-0.06,-0.34,-0.34,-0.35
337.52,-0.50,-0.16,-0.49,-0.15,0.15,-0.02,0.00,-0.34,-0.34,-0.34
340.90,-0.56,-0.21,-0.56,-0.22,0.22,0.03,0.07,-0.34,-0.34,-0.35
344.30,-0.63,-0.29,-0.62,-0.28,0.28,0.08,0.14,-0.34,-0.34,-0.34
347.75,-0.69,-0.36,-0.68,-0.35,0.35,0.12,0.20,-0.34,-0.34,-0.33
351.23,-0.74,-0.39,-0.75,-0.41,0.41,0.17,0.27,-0.33,-0.34,-0.35
354.74,-0.81,-0.48,-0.81,-0.47,0.47,0.22,0.33,-0.34,-0.34,-0.33
358.28,-0.87,-0.53,-0.87,-0.53,0.53,0.27,0.40,-0.34,-0.34,-0.34
361.87,-0.93,-0.59,-0.93,-0.59,0.59,0.31,0.47,-0.34,-0.34,-0.34
365.49,-0.99,-0.65,-0.99,-0.65,0.65,0.36,0.54,-0.34,-0.34,-0.34
369.14,-1.05,-0.72,-1.04,-0.71,0.71,0.41,0.60,-0.34,-0.34,-0.33
372.83,-1.10,-0.77,-1.10,-0.77,0.77,0.46,0.67,-0.33,-0.33,-0.33
376.56,-1.16,-0.82,-1.16,-0.82,0.82,0.51,0.74,-0.34,-0.33,-0.34
380.33,-1.21,-0.87,-1.21,-0.88,0.88,0.56,0.81,-0.33,-0.33,-0.34
384.13,-1.27,-0.93,-1.26,-0.93,0.93,0.61,0.88,-0.34,-0.33,-0.34
387.97,-1.32,-0.99,-1.32,-0.98,0.98,0.65,0.94,-0.33,-0.33,-0.33
391.85,-1.37,-1.03,-1.37,-1.03,1.03,0.70,1.01,-0.33,-0.33,-0.34
395.77,-1.42,-1.08,-1.42,-1.08,1.08,0.75,1.08,-0.33,-0.33,-0.34
399.73,-1.47,-1.13,-1.46,-1.13,1.13,0.80,1.15,-0.33,-0.33,-0.34
403.72,-1.52,-1.19,-1.51,-1.18,1.18,0.85,1.22,-0.34,-0.33,-0.33
407.76,-1.56,-1.23,-1.56,-1.23,1.23,0.90,1.29,-0.33,-0.33,-0.33
411.84,-1.60,-1.27,-1.60,-1.27,1.27,0.95,1.35,-0.33,-0.33,-0.33
415.96,-1.64,-1.31,-1.64,-1.31,1.31,1.00,1.42,-0.33,-0.33,-0.33
420.12,-1.69,-1.35,-1.68,-1.35,1.35,1.05,1.49,-0.34,-0.33,-0.34
424.32,-1.73,-1.39,-1.72,-1.39,1.39,1.10,1.55,-0.34,-0.33,-0.34
428.56,-1.77,-1.44,-1.76,-1.43,1.43,1.15,1.62,-0.34,-0.34,-0.33
432.85,-1.80,-1.47,-1.80,-1.46,1.46,1.20,1.68,-0.33,-0.34,-0.33
437.18,-1.84,-1.50,-1.84,-1.50,1.50,1.25,1.74,-0.34,-0.34,-0.34
441.55,-1.87,-1.53,-1.87,-1.53,1.53,1.30,1.80,-0.33,-0.34,-0.34
445.96,-1.91,-1.56,-1.90,-1.57,1.57,1.35,1.86,-0.34,-0.34,-0.35
450.42,-1.94,-1.59,-1.94,-1.60,1.60,1.40,1.92,-0.34,-0.34,-0.35
454.93,-1.97,-1.62,-1.97,-1.63,1.63,1.45,1.97,-0.34,-0.34,-0.35
459.48,-2.01,-1.66,-2.00,-1.66,1.66,1.49,2.02,-0.35,-0.34,-0.35
464.07,-2.03,-1.69,-2.03,-1.68,1.68,1.54,2.07,-0.34,-0.34,-0.34
468.71,-2.06,-1.72,-2.05,-1.71,1.71,1.59,2.12,-0.35,-0.34,-0.34
473.40,-2.08,-1.74,-2.08,-1.74,1.74,1.64,2.16,-0.34,-0.34,-0.34
478.13,-2.11,-1.77,-2.11,-1.77,1.77,1.69,2.20,-0.34,-0.34,-0.34
482.91,-2.13,-1.79,-2.13,-1.79,1.79,1.74,2.24,-0.33,-0.34,-0.34
487.74,-2.16,-1.82,-2.16,-1.82,1.82,1.79,2.27,-0.34,-0.34,-0.34
492.62,-2.19,-1.85,-2.18,-1.85,1.85,1.84,2.30,-0.34,-0.34,-0.34
497.55,-2.20,-1.86,-2.20,-1.87,1.87,1.88,2.33,-0.33,-0.33,-0.34
