frequency,raw,error,smoothed,error_smoothed,equalization,parametric_eq,fixed_band_eq,equalized_raw,equalized_smoothed,target
20.00,3.19,-1.40,3.05,-1.58,1.58,1.29,0.02,4.77,4.63,4.60
20.20,3.21,-1.43,3.14,-1.52,1.52,1.28,0.02,4.74,4.66,4.65
20.40,3.24,-1.45,3.23,-1.47,1.47,1.27,0.03,4.71,4.70,4.70
20.61,3.26,-1.46,3.31,-1.42,1.42,1.25,0.03,4.68,4.73,4.72
20.81,3.29,-1.48,3.39,-1.37,1.37,1.22,0.03,4.66,4.76,4.78
21.02,3.32,-1.49,3.47,-1.32,1.32,1.20,0.04,4.64,4.79,4.81
21.23,3.42,-1.41,3.54,-1.27,1.27,1.17,0.04,4.69,4.81,4.83
21.44,3.54,-1.32,3.61,-1.23,1.23,1.14,0.04,4.76,4.84,4.85
21.66,3.63,-1.24,3.67,-1.18,1.18,1.11,0.05,4.82,4.86,4.87
21.87,3.74,-1.15,3.73,-1.14,1.14,1.08,0.05,4.88,4.87,4.88
22.09,3.82,-1.08,3.79,-1.10,1.10,1.04,0.05,4.93,4.89,4.90
22.31,3.89,-1.02,3.84,-1.06,1.06,1.01,0.06,4.96,4.90,4.91
22.54,3.96,-0.95,3.89,-1.02,1.02,0.97,0.06,4.98,4.91,4.91
22.76,4.03,-0.88,3.94,-0.97,0.97,0.94,0.06,5.01,4.91,4.91
22.99,4.10,-0.80,3.98,-0.93,0.93,0.90,0.07,5.04,4.91,4.90
23.22,4.07,-0.82,4.01,-0.90,0.90,0.86,0.07,4.98,4.91,4.90
23.45,4.05,-0.84,4.04,-0.87,0.87,0.83,0.08,4.93,4.91,4.90
23.69,4.02,-0.88,4.07,-0.85,0.85,0.79,0.08,4.87,4.91,4.91
23.92,3.99,-0.91,4.09,-0.82,0.82,0.76,0.09,4.82,4.91,4.91
24.16,4.01,-0.90,4.12,-0.79,0.79,0.72,0.09,4.81,4.91,4.92
24.40,4.06,-0.86,4.15,-0.77,0.77,0.69,0.09,4.83,4.91,4.92
24.65,4.10,-0.81,4.17,-0.74,0.74,0.66,0.10,4.84,4.91,4.91
24.89,4.16,-0.76,4.20,-0.71,0.71,0.63,0.10,4.86,4.91,4.91
25.14,4.22,-0.69,4.24,-0.68,0.68,0.59,0.11,4.90,4.91,4.91
25.39,4.30,-0.63,4.27,-0.65,0.65,0.56,0.11,4.94,4.91,4.92
25.65,4.37,-0.55,4.30,-0.61,0.61,0.54,0.12,4.99,4.92,4.92
25.91,4.45,-0.46,4.34,-0.57,0.57,0.51,0.12,5.02,4.91,4.91
26.16,4.48,-0.42,4.39,-0.53,0.53,0.48,0.13,5.01,4.91,4.91
26.43,4.48,-0.42,4.44,-0.47,0.47,0.45,0.13,4.96,4.91,4.91
26.69,4.48,-0.42,4.49,-0.42,0.42,0.43,0.13,4.91,4.91,4.90
26.96,4.48,-0.43,4.53,-0.37,0.37,0.40,0.14,4.86,4.90,4.91
27.23,4.51,-0.40,4.58,-0.32,0.32,0.38,0.14,4.84,4.90,4.91
27.50,4.54,-0.37,4.62,-0.28,0.28,0.35,0.15,4.82,4.90,4.91
27.77,4.57,-0.32,4.67,-0.23,0.23,0.33,0.15,4.81,4.90,4.90
28.05,4.62,-0.27,4.71,-0.19,0.19,0.31,0.15,4.82,4.90,4.90
28.33,4.72,-0.16,4.74,-0.15,0.15,0.29,0.15,4.88,4.90,4.89
28.62,4.82,-0.06,4.78,-0.12,0.12,0.27,0.15,4.94,4.89,4.88
28.90,4.92,0.03,4.82,-0.08,0.08,0.25,0.16,5.00,4.89,4.89
29.19,4.95,0.07,4.86,-0.03,0.03,0.23,0.16,4.99,4.89,4.88
29.48,4.95,0.06,4.90,0.01,-0.01,0.21,0.16,4.95,4.89,4.90
29.78,4.96,0.08,4.93,0.05,-0.05,0.19,0.16,4.92,4.89,4.89
30.08,4.96,0.07,4.96,0.08,-0.08,0.18,0.16,4.88,4.88,4.89
30.38,4.96,0.08,4.99,0.11,-0.11,0.16,0.15,4.86,4.88,4.88
30.68,4.96,0.08,5.01,0.13,-0.13,0.14,0.15,4.83,4.88,4.88
30.99,4.96,0.09,5.02,0.14,-0.14,0.13,0.15,4.82,4.88,4.88
31.30,4.99,0.12,5.02,0.15,-0.15,0.11,0.15,4.85,4.88,4.88
31.61,5.02,0.15,5.02,0.15,-0.15,0.09,0.14,4.88,4.87,4.87
31.93,5.05,0.18,5.02,0.15,-0.15,0.08,0.14,4.90,4.87,4.87
32.24,5.06,0.21,5.03,0.16,-0.16,0.06,0.13,4.90,4.86,4.86
32.57,5.06,0.20,5.04,0.18,-0.18,0.05,0.12,4.89,4.86,4.86
32.89,5.06,0.20,5.05,0.20,-0.20,0.04,0.12,4.87,4.85,4.86
33.22,5.05,0.20,5.06,0.21,-0.21,0.02,0.11,4.84,4.85,4.85
33.55,5.04,0.20,5.08,0.23,-0.23,0.01,0.10,4.81,4.84,4.85
33.89,5.02,0.19,5.09,0.25,-0.25,-0.00,0.09,4.77,4.84,4.83
34.23,5.05,0.21,5.10,0.27,-0.27,-0.02,0.08,4.79,4.83,4.84
34.57,5.10,0.28,5.11,0.28,-0.28,-0.03,0.07,4.82,4.83,4.83
34.92,5.15,0.33,5.11,0.29,-0.29,-0.04,0.06,4.86,4.82,4.82
35.27,5.16,0.35,5.12,0.30,-0.30,-0.06,0.05,4.86,4.82,4.82
35.62,5.16,0.35,5.13,0.31,-0.31,-0.07,0.04,4.85,4.82,4.81
35.97,5.16,0.35,5.14,0.33,-0.33,-0.08,0.02,4.84,4.81,4.81
36.33,5.16,0.35,5.15,0.34,-0.34,-0.09,0.01,4.82,4.81,4.82
36.70,5.16,0.36,5.16,0.35,-0.35,-0.10,-0.00,4.81,4.81,4.80
37.06,5.16,0.37,5.18,0.37,-0.37,-0.12,-0.02,4.80,4.81,4.80
37.43,5.15,0.34,5.19,0.38,-0.38,-0.13,-0.03,4.77,4.81,4.81
37.81,5.14,0.34,5.20,0.39,-0.39,-0.14,-0.05,4.75,4.81,4.81
38.19,5.16,0.36,5.20,0.40,-0.40,-0.15,-0.06,4.77,4.81,4.80
38.57,5.20,0.40,5.21,0.40,-0.40,-0.16,-0.08,4.80,4.81,4.81
38.95,5.25,0.44,5.22,0.41,-0.41,-0.17,-0.09,4.84,4.80,4.81
39.34,5.25,0.45,5.22,0.42,-0.42,-0.19,-0.11,4.83,4.80,4.81
39.74,5.25,0.45,5.23,0.43,-0.43,-0.20,-0.12,4.82,4.80,4.80
40.14,5.25,0.45,5.24,0.44,-0.44,-0.21,-0.14,4.81,4.80,4.80
40.54,5.25,0.46,5.25,0.45,-0.45,-0.22,-0.15,4.80,4.80,4.80
40.94,5.25,0.46,5.25,0.46,-0.46,-0.23,-0.17,4.79,4.79,4.79
41.35,5.25,0.47,5.26,0.47,-0.47,-0.24,-0.19,4.78,4.79,4.78
41.76,5.25,0.48,5.26,0.48,-0.48,-0.25,-0.20,4.77,4.78,4.78
42.18,5.25,0.48,5.26,0.49,-0.49,-0.27,-0.22,4.76,4.77,4.78
42.60,5.25,0.49,5.26,0.50,-0.50,-0.28,-0.24,4.75,4.76,4.76
43.03,5.25,0.50,5.26,0.51,-0.51,-0.29,-0.26,4.74,4.74,4.75
43.46,5.25,0.51,5.25,0.52,-0.52,-0.30,-0.27,4.73,4.73,4.74
43.90,5.25,0.54,5.25,0.54,-0.54,-0.31,-0.29,4.72,4.72,4.72
44.33,5.25,0.56,5.25,0.55,-0.55,-0.32,-0.31,4.70,4.70,4.70
44.78,5.25,0.58,5.25,0.57,-0.57,-0.34,-0.33,4.69,4.69,4.68
45.23,5.25,0.59,5.26,0.58,-0.58,-0.35,-0.35,4.67,4.67,4.67
45.68,5.25,0.61,5.26,0.60,-0.60,-0.36,-0.36,4.65,4.66,4.65
46.13,5.25,0.63,5.26,0.62,-0.62,-0.37,-0.38,4.63,4.64,4.63
46.60,5.25,0.63,5.26,0.64,-0.64,-0.39,-0.40,4.61,4.62,4.63
47.06,5.25,0.65,5.26,0.66,-0.66,-0.40,-0.42,4.60,4.61,4.60
47.53,5.25,0.66,5.26,0.67,-0.67,-0.41,-0.44,4.58,4.59,4.59
48.01,5.25,0.66,5.26,0.69,-0.69,-0.42,-0.46,4.57,4.57,4.59
48.49,5.26,0.70,5.25,0.70,-0.70,-0.44,-0.48,4.57,4.56,4.57
48.97,5.27,0.73,5.25,0.71,-0.71,-0.45,-0.50,4.57,4.54,4.55
49.46,5.26,0.74,5.24,0.71,-0.71,-0.46,-0.52,4.55,4.53,4.52
49.96,5.25,0.76,5.23,0.72,-0.72,-0.48,-0.54,4.53,4.51,4.50
50.46,5.24,0.75,5.23,0.73,-0.73,-0.49,-0.56,4.51,4.49,4.49
50.96,5.22,0.74,5.22,0.74,-0.74,-0.50,-0.58,4.48,4.48,4.48
51.47,5.19,0.74,5.22,0.75,-0.75,-0.52,-0.60,4.44,4.46,4.45
51.99,5.16,0.73,5.21,0.76,-0.76,-0.53,-0.62,4.40,4.45,4.44
52.51,5.16,0.73,5.20,0.77,-0.77,-0.55,-0.64,4.39,4.43,4.43
53.03,5.16,0.74,5.19,0.77,-0.77,-0.56,-0.66,4.39,4.42,4.42
53.56,5.16,0.76,5.17,0.77,-0.77,-0.58,-0.68,4.39,4.40,4.41
54.10,5.16,0.78,5.15,0.77,-0.77,-0.59,-0.70,4.40,4.39,4.39
54.64,5.16,0.79,5.14,0.76,-0.76,-0.61,-0.73,4.40,4.37,4.37
55.18,5.16,0.80,5.12,0.76,-0.76,-0.62,-0.75,4.40,4.36,4.36
55.74,5.16,0.82,5.11,0.76,-0.76,-0.64,-0.77,4.40,4.34,4.34
56.29,5.13,0.80,5.09,0.77,-0.77,-0.65,-0.79,4.37,4.33,4.33
56.86,5.07,0.77,5.08,0.77,-0.77,-0.67,-0.81,4.30,4.31,4.31
57.42,5.02,0.75,5.06,0.77,-0.77,-0.69,-0.83,4.25,4.29,4.27
58.00,4.96,0.70,5.04,0.77,-0.77,-0.70,-0.85,4.19,4.27,4.26
58.58,4.96,0.72,5.01,0.78,-0.78,-0.72,-0.87,4.19,4.24,4.25
59.16,4.96,0.74,4.99,0.78,-0.78,-0.74,-0.89,4.19,4.21,4.22
59.76,4.96,0.77,4.96,0.78,-0.78,-0.76,-0.91,4.18,4.18,4.20
60.35,4.96,0.81,4.93,0.79,-0.79,-0.77,-0.93,4.18,4.14,4.15
60.96,4.96,0.85,4.90,0.79,-0.79,-0.79,-0.95,4.17,4.11,4.12
61.57,4.89,0.83,4.86,0.80,-0.80,-0.81,-0.97,4.10,4.06,4.07
62.18,4.83,0.81,4.83,0.80,-0.80,-0.83,-0.99,4.03,4.02,4.02
62.80,4.78,0.81,4.79,0.81,-0.81,-0.85,-1.01,3.97,3.98,3.97
63.43,4.74,0.82,4.75,0.82,-0.82,-0.87,-1.03,3.92,3.93,3.92
64.07,4.71,0.84,4.71,0.83,-0.83,-0.89,-1.05,3.88,3.88,3.87
64.71,4.67,0.86,4.67,0.84,-0.84,-0.91,-1.07,3.83,3.83,3.82
65.35,4.63,0.86,4.63,0.85,-0.85,-0.93,-1.09,3.78,3.78,3.78
66.01,4.58,0.86,4.58,0.86,-0.86,-0.95,-1.11,3.73,3.72,3.72
66.67,4.52,0.86,4.54,0.87,-0.87,-0.98,-1.12,3.66,3.67,3.67
67.33,4.46,0.85,4.50,0.88,-0.88,-1.00,-1.14,3.58,3.62,3.61
68.01,4.41,0.85,4.46,0.89,-0.89,-1.02,-1.16,3.52,3.56,3.57
68.69,4.40,0.90,4.42,0.91,-0.91,-1.04,-1.18,3.49,3.51,3.51
69.37,4.39,0.94,4.39,0.94,-0.94,-1.07,-1.20,3.46,3.45,3.45
70.07,4.39,1.00,4.35,0.96,-0.96,-1.09,-1.22,3.43,3.39,3.39
70.77,4.34,1.00,4.32,0.99,-0.99,-1.11,-1.24,3.35,3.33,3.34
71.48,4.30,1.02,4.29,1.03,-1.03,-1.14,-1.27,3.28,3.27,3.28
72.19,4.28,1.08,4.27,1.06,-1.06,-1.16,-1.29,3.22,3.21,3.21
72.91,4.26,1.12,4.25,1.10,-1.10,-1.19,-1.31,3.16,3.14,3.14
73.64,4.20,1.12,4.23,1.15,-1.15,-1.22,-1.34,3.06,3.08,3.08
74.38,4.18,1.17,4.22,1.20,-1.20,-1.24,-1.36,2.98,3.02,3.01
75.12,4.19,1.25,4.21,1.25,-1.25,-1.27,-1.38,2.94,2.95,2.95
75.87,4.19,1.31,4.20,1.31,-1.31,-1.30,-1.41,2.88,2.89,2.88
76.63,4.19,1.37,4.20,1.37,-1.37,-1.33,-1.44,2.82,2.83,2.82
77.40,4.19,1.43,4.20,1.43,-1.43,-1.35,-1.47,2.76,2.77,2.76
78.17,4.19,1.50,4.20,1.50,-1.50,-1.38,-1.50,2.70,2.71,2.69
78.95,4.17,1.52,4.21,1.57,-1.57,-1.41,-1.53,2.61,2.65,2.65
79.74,4.20,1.61,4.23,1.63,-1.63,-1.44,-1.56,2.57,2.59,2.59
80.54,4.25,1.72,4.24,1.70,-1.70,-1.47,-1.59,2.55,2.53,2.54
81.35,4.29,1.82,4.26,1.78,-1.78,-1.51,-1.63,2.52,2.48,2.47
82.16,4.29,1.87,4.27,1.85,-1.85,-1.54,-1.66,2.44,2.42,2.42
82.98,4.29,1.92,4.29,1.92,-1.92,-1.57,-1.70,2.37,2.37,2.37
83.81,4.29,1.99,4.29,1.98,-1.98,-1.60,-1.74,2.31,2.31,2.31
84.65,4.29,2.04,4.30,2.04,-2.04,-1.64,-1.78,2.25,2.25,2.25
85.50,4.29,2.09,4.30,2.10,-2.10,-1.67,-1.82,2.19,2.19,2.20
86.35,4.29,2.15,4.30,2.16,-2.16,-1.71,-1.86,2.13,2.14,2.14
87.22,4.29,2.21,4.29,2.21,-2.21,-1.74,-1.91,2.08,2.08,2.08
88.09,4.29,2.27,4.28,2.26,-2.26,-1.78,-1.95,2.03,2.02,2.02
88.97,4.29,2.33,4.25,2.29,-2.29,-1.81,-2.00,2.00,1.96,1.96
89.86,4.29,2.39,4.23,2.33,-2.33,-1.85,-2.05,1.97,1.90,1.90
90.76,4.19,2.36,4.20,2.36,-2.36,-1.89,-2.10,1.84,1.84,1.84
91.66,4.12,2.34,4.17,2.38,-2.38,-1.93,-2.15,1.74,1.78,1.78
92.58,4.10,2.39,4.13,2.41,-2.41,-1.97,-2.20,1.69,1.72,1.71
93.51,4.11,2.46,4.10,2.44,-2.44,-2.01,-2.26,1.67,1.66,1.66
94.44,4.11,2.51,4.06,2.46,-2.46,-2.05,-2.32,1.65,1.60,1.60
95.39,4.03,2.49,4.03,2.49,-2.49,-2.09,-2.37,1.55,1.54,1.55
96.34,3.91,2.43,3.99,2.50,-2.50,-2.13,-2.43,1.41,1.48,1.48
97.30,3.90,2.48,3.95,2.52,-2.52,-2.17,-2.49,1.38,1.43,1.42
98.28,3.89,2.53,3.91,2.54,-2.54,-2.21,-2.55,1.35,1.37,1.37
99.26,3.88,2.57,3.88,2.57,-2.57,-2.25,-2.62,1.32,1.31,1.31
100.25,3.86,2.61,3.85,2.59,-2.59,-2.30,-2.68,1.27,1.25,1.25
101.25,3.84,2.65,3.82,2.62,-2.62,-2.34,-2.74,1.22,1.20,1.20
102.27,3.81,2.67,3.79,2.65,-2.65,-2.38,-2.81,1.16,1.14,1.14
103.29,3.75,2.68,3.75,2.67,-2.67,-2.43,-2.87,1.08,1.08,1.07
104.32,3.70,2.68,3.72,2.70,-2.70,-2.47,-2.93,1.00,1.02,1.02
105.37,3.68,2.72,3.69,2.73,-2.73,-2.52,-3.00,0.95,0.96,0.97
106.42,3.65,2.75,3.66,2.76,-2.76,-2.57,-3.06,0.89,0.90,0.91
107.48,3.63,2.79,3.63,2.79,-2.79,-2.61,-3.13,0.84,0.84,0.84
108.56,3.60,2.83,3.59,2.82,-2.82,-2.66,-3.19,0.79,0.77,0.77
109.64,3.58,2.87,3.55,2.84,-2.84,-2.70,-3.25,0.74,0.71,0.72
110.74,3.54,2.90,3.52,2.87,-2.87,-2.75,-3.31,0.67,0.65,0.65
111.85,3.46,2.86,3.49,2.91,-2.91,-2.80,-3.36,0.56,0.59,0.60
112.97,3.44,2.92,3.47,2.94,-2.94,-2.85,-3.42,0.50,0.53,0.52
114.10,3.44,2.98,3.45,2.98,-2.98,-2.89,-3.47,0.47,0.47,0.47
115.24,3.42,3.01,3.43,3.01,-3.01,-2.94,-3.52,0.41,0.41,0.41
116.39,3.37,3.03,3.40,3.05,-3.05,-2.99,-3.56,0.33,0.36,0.35
117.55,3.34,3.04,3.38,3.07,-3.07,-3.04,-3.60,0.27,0.31,0.30
118.73,3.35,3.11,3.36,3.10,-3.10,-3.08,-3.64,0.25,0.26,0.24
119.92,3.35,3.14,3.34,3.13,-3.13,-3.13,-3.67,0.22,0.21,0.21
121.12,3.36,3.21,3.33,3.16,-3.16,-3.18,-3.70,0.20,0.16,0.16
122.33,3.36,3.25,3.31,3.20,-3.20,-3.22,-3.73,0.17,0.12,0.11
123.55,3.33,3.25,3.30,3.23,-3.23,-3.27,-3.75,0.11,0.07,0.08
124.79,3.28,3.25,3.29,3.25,-3.25,-3.31,-3.76,0.03,0.03,0.04
126.03,3.22,3.23,3.27,3.27,-3.27,-3.36,-3.77,-0.05,-0.01,-0.00
127.29,3.21,3.25,3.25,3.29,-3.29,-3.40,-3.78,-0.08,-0.05,-0.03
128.57,3.21,3.30,3.23,3.31,-3.31,-3.45,-3.78,-0.10,-0.08,-0.08
129.85,3.22,3.35,3.21,3.33,-3.33,-3.49,-3.77,-0.11,-0.12,-0.12
131.15,3.22,3.38,3.20,3.35,-3.35,-3.53,-3.77,-0.13,-0.16,-0.16
132.46,3.21,3.41,3.18,3.37,-3.37,-3.57,-3.75,-0.16,-0.20,-0.20
133.79,3.15,3.39,3.15,3.39,-3.39,-3.61,-3.74,-0.23,-0.23,-0.24
135.12,3.12,3.40,3.13,3.40,-3.40,-3.65,-3.72,-0.27,-0.27,-0.28
136.48,3.07,3.38,3.11,3.41,-3.41,-3.69,-3.70,-0.34,-0.31,-0.31
137.84,3.05,3.40,3.09,3.43,-3.43,-3.72,-3.67,-0.38,-0.34,-0.35
139.22,3.05,3.45,3.06,3.44,-3.44,-3.76,-3.64,-0.39,-0.38,-0.39
140.61,3.05,3.49,3.04,3.46,-3.46,-3.79,-3.61,-0.40,-0.42,-0.44
142.02,3.05,3.51,3.01,3.47,-3.47,-3.82,-3.58,-0.42,-0.46,-0.46
143.44,3.01,3.51,2.99,3.49,-3.49,-3.85,-3.55,-0.48,-0.50,-0.50
144.87,2.97,3.52,2.97,3.52,-3.52,-3.88,-3.51,-0.54,-0.55,-0.55
146.32,2.90,3.50,2.94,3.54,-3.54,-3.90,-3.48,-0.64,-0.60,-0.59
147.78,2.86,3.50,2.91,3.57,-3.57,-3.93,-3.44,-0.71,-0.66,-0.63
149.26,2.86,3.55,2.89,3.61,-3.61,-3.95,-3.40,-0.74,-0.72,-0.69
150.75,2.86,3.63,2.85,3.64,-3.64,-3.97,-3.37,-0.77,-0.79,-0.76
152.26,2.80,3.64,2.81,3.67,-3.67,-3.98,-3.33,-0.86,-0.86,-0.84
153.78,2.76,3.68,2.76,3.69,-3.69,-4.00,-3.30,-0.93,-0.93,-0.91
155.32,2.76,3.76,2.71,3.71,-3.71,-4.01,-3.26,-0.95,-1.01,-0.99
156.88,2.76,3.84,2.64,3.73,-3.73,-4.02,-3.23,-0.96,-1.08,-1.08
158.44,2.65,3.82,2.58,3.75,-3.75,-4.03,-3.20,-1.09,-1.16,-1.17
160.03,2.55,3.81,2.53,3.76,-3.76,-4.03,-3.17,-1.21,-1.24,-1.26
161.63,2.44,3.78,2.47,3.78,-3.78,-4.04,-3.14,-1.34,-1.31,-1.33
163.24,2.39,3.80,2.43,3.80,-3.80,-4.04,-3.11,-1.41,-1.38,-1.40
164.88,2.37,3.83,2.38,3.82,-3.82,-4.04,-3.09,-1.44,-1.44,-1.46
166.53,2.25,3.77,2.33,3.82,-3.82,-4.03,-3.06,-1.57,-1.49,-1.51
168.19,2.19,3.75,2.29,3.83,-3.83,-4.02,-3.04,-1.64,-1.54,-1.56
169.87,2.16,3.77,2.26,3.84,-3.84,-4.01,-3.02,-1.67,-1.58,-1.60
171.57,2.15,3.78,2.23,3.84,-3.84,-4.00,-3.01,-1.69,-1.61,-1.63
173.29,2.20,3.85,2.21,3.85,-3.85,-3.99,-2.99,-1.64,-1.64,-1.65
175.02,2.24,3.90,2.19,3.85,-3.85,-3.97,-2.98,-1.60,-1.66,-1.66
176.77,2.24,3.92,2.18,3.86,-3.86,-3.95,-2.97,-1.61,-1.67,-1.68
178.54,2.24,3.93,2.18,3.86,-3.86,-3.93,-2.96,-1.62,-1.68,-1.69
180.32,2.21,3.90,2.17,3.87,-3.87,-3.91,-2.96,-1.66,-1.70,-1.69
182.13,2.17,3.86,2.17,3.87,-3.87,-3.89,-2.96,-1.70,-1.71,-1.68
183.95,2.15,3.86,2.16,3.88,-3.88,-3.86,-2.96,-1.72,-1.72,-1.70
185.79,2.17,3.88,2.16,3.89,-3.89,-3.83,-2.96,-1.71,-1.73,-1.71
187.65,2.15,3.89,2.15,3.89,-3.89,-3.80,-2.96,-1.74,-1.74,-1.73
189.52,2.11,3.86,2.13,3.89,-3.89,-3.77,-2.97,-1.77,-1.76,-1.75
191.42,2.05,3.83,2.11,3.88,-3.88,-3.74,-2.98,-1.83,-1.78,-1.77
193.33,2.04,3.84,2.08,3.88,-3.88,-3.70,-2.99,-1.83,-1.80,-1.79
195.27,2.05,3.87,2.06,3.87,-3.87,-3.67,-3.00,-1.82,-1.82,-1.82
197.22,2.05,3.89,2.03,3.87,-3.87,-3.63,-3.01,-1.82,-1.84,-1.84
199.19,2.00,3.87,2.01,3.87,-3.87,-3.59,-3.03,-1.87,-1.86,-1.87
201.18,1.99,3.88,1.98,3.87,-3.87,-3.55,-3.05,-1.87,-1.89,-1.89
203.19,1.97,3.88,1.95,3.86,-3.86,-3.51,-3.06,-1.89,-1.91,-1.91
205.23,1.92,3.86,1.91,3.85,-3.85,-3.47,-3.08,-1.92,-1.94,-1.94
207.28,1.86,3.81,1.86,3.82,-3.82,-3.42,-3.10,-1.96,-1.96,-1.95
209.35,1.81,3.79,1.82,3.80,-3.80,-3.38,-3.12,-1.99,-1.98,-1.98
211.44,1.80,3.82,1.77,3.77,-3.77,-3.34,-3.14,-1.97,-2.00,-2.01
213.56,1.75,3.77,1.72,3.74,-3.74,-3.29,-3.16,-1.98,-2.02,-2.02
215.69,1.68,3.72,1.66,3.70,-3.70,-3.25,-3.18,-2.01,-2.04,-2.03
217.85,1.60,3.65,1.60,3.65,-3.65,-3.20,-3.20,-2.05,-2.05,-2.05
220.03,1.52,3.59,1.54,3.61,-3.61,-3.16,-3.22,-2.08,-2.06,-2.07
222.23,1.45,3.54,1.49,3.56,-3.56,-3.11,-3.24,-2.11,-2.07,-2.09
224.45,1.40,3.49,1.43,3.51,-3.51,-3.06,-3.26,-2.11,-2.08,-2.08
226.70,1.33,3.42,1.38,3.46,-3.46,-3.02,-3.27,-2.12,-2.08,-2.09
228.96,1.30,3.38,1.33,3.41,-3.41,-2.97,-3.28,-2.10,-2.08,-2.08
231.25,1.28,3.36,1.28,3.36,-3.36,-2.92,-3.29,-2.07,-2.07,-2.07
233.57,1.23,3.30,1.24,3.30,-3.30,-2.88,-3.30,-2.07,-2.06,-2.07
235.90,1.17,3.23,1.20,3.25,-3.25,-2.83,-3.31,-2.07,-2.05,-2.06
238.26,1.15,3.20,1.16,3.19,-3.19,-2.79,-3.31,-2.04,-2.04,-2.05
240.64,1.15,3.18,1.12,3.14,-3.14,-2.74,-3.30,-1.99,-2.02,-2.03
243.05,1.08,3.08,1.08,3.08,-3.08,-2.69,-3.30,-2.00,-2.00,-2.00
245.48,1.03,3.01,1.04,3.02,-3.02,-2.65,-3.29,-1.98,-1.98,-1.98
247.93,1.00,2.95,0.99,2.95,-2.95,-2.60,-3.27,-1.95,-1.96,-1.95
250.41,0.97,2.91,0.95,2.89,-2.89,-2.56,-3.26,-1.91,-1.94,-1.94
252.92,0.96,2.87,0.90,2.81,-2.81,-2.51,-3.23,-1.85,-1.92,-1.91
255.45,0.85,2.74,0.84,2.74,-2.74,-2.47,-3.21,-1.88,-1.90,-1.89
258.00,0.79,2.66,0.79,2.66,-2.66,-2.43,-3.18,-1.87,-1.87,-1.87
260.58,0.72,2.58,0.74,2.59,-2.59,-2.38,-3.14,-1.87,-1.85,-1.85
263.19,0.67,2.50,0.69,2.51,-2.51,-2.34,-3.11,-1.84,-1.83,-1.82
265.82,0.62,2.43,0.64,2.44,-2.44,-2.30,-3.07,-1.82,-1.80,-1.81
268.48,0.56,2.35,0.59,2.37,-2.37,-2.26,-3.02,-1.81,-1.78,-1.79
271.16,0.52,2.28,0.55,2.31,-2.31,-2.22,-2.97,-1.78,-1.76,-1.75
273.87,0.51,2.25,0.51,2.24,-2.24,-2.17,-2.92,-1.73,-1.73,-1.74
276.61,0.42,2.13,0.47,2.18,-2.18,-2.13,-2.87,-1.76,-1.71,-1.71
279.38,0.41,2.10,0.44,2.13,-2.13,-2.10,-2.81,-1.71,-1.68,-1.68
282.17,0.42,2.08,0.41,2.07,-2.07,-2.06,-2.75,-1.65,-1.66,-1.66
284.99,0.42,2.05,0.39,2.02,-2.02,-2.02,-2.69,-1.60,-1.63,-1.63
287.84,0.34,1.95,0.36,1.97,-1.97,-1.98,-2.63,-1.62,-1.60,-1.61
290.72,0.34,1.92,0.34,1.91,-1.91,-1.94,-2.57,-1.57,-1.57,-1.58
293.63,0.36,1.92,0.32,1.86,-1.86,-1.91,-2.51,-1.50,-1.55,-1.55
296.57,0.33,1.85,0.29,1.81,-1.81,-1.87,-2.44,-1.48,-1.52,-1.52
299.53,0.29,1.79,0.27,1.76,-1.76,-1.84,-2.38,-1.47,-1.49,-1.49
302.53,0.25,1.73,0.25,1.72,-1.72,-1.80,-2.31,-1.46,-1.47,-1.48
305.55,0.22,1.65,0.23,1.68,-1.68,-1.77,-2.24,-1.45,-1.44,-1.43
308.61,0.21,1.63,0.22,1.64,-1.64,-1.73,-2.18,-1.42,-1.42,-1.41
311.69,0.14,1.53,0.20,1.60,-1.60,-1.70,-2.11,-1.45,-1.40,-1.39
314.81,0.13,1.50,0.18,1.56,-1.56,-1.67,-2.04,-1.42,-1.37,-1.36
317.96,0.14,1.49,0.17,1.52,-1.52,-1.64,-1.98,-1.38,-1.35,-1.35
321.14,0.14,1.48,0.15,1.49,-1.49,-1.61,-1.91,-1.35,-1.34,-1.34
324.35,0.14,1.47,0.13,1.46,-1.46,-1.58,-1.85,-1.31,-1.32,-1.32
327.59,0.13,1.44,0.12,1.42,-1.42,-1.55,-1.79,-1.29,-1.31,-1.31
330.87,0.13,1.43,0.10,1.39,-1.39,-1.52,-1.72,-1.26,-1.29,-1.30
334.18,0.13,1.42,0.08,1.36,-1.36,-1.49,-1.66,-1.23,-1.28,-1.28
337.52,0.07,1.35,0.06,1.33,-1.33,-1.46,-1.60,-1.26,-1.27,-1.28
340.90,0.04,1.30,0.04,1.30,-1.30,-1.43,-1.54,-1.26,-1.27,-1.26
344.30,0.02,1.28,0.01,1.27,-1.27,-1.41,-1.48,-1.25,-1.26,-1.25
347.75,-0.04,1.22,-0.02,1.23,-1.23,-1.38,-1.42,-1.27,-1.25,-1.26
351.23,-0.06,1.19,-0.06,1.19,-1.19,-1.35,-1.36,-1.25,-1.25,-1.25
354.74,-0.13,1.12,-0.10,1.15,-1.15,-1.33,-1.31,-1.28,-1.25,-1.25
358.28,-0.15,1.10,-0.13,1.11,-1.11,-1.30,-1.25,-1.26,-1.24,-1.24
361.87,-0.17,1.08,-0.17,1.07,-1.07,-1.28,-1.20,-1.24,-1.24,-1.25
365.49,-0.23,1.01,-0.21,1.04,-1.04,-1.25,-1.15,-1.26,-1.24,-1.24
369.14,-0.23,1.02,-0.24,1.00,-1.00,-1.23,-1.09,-1.23,-1.24,-1.25
372.83,-0.27,0.99,-0.28,0.97,-0.97,-1.21,-1.04,-1.23,-1.25,-1.25
376.56,-0.37,0.89,-0.31,0.94,-0.94,-1.19,-0.99,-1.30,-1.25,-1.25
380.33,-0.40,0.85,-0.35,0.90,-0.90,-1.16,-0.94,-1.30,-1.25,-1.25
384.13,-0.39,0.86,-0.39,0.87,-0.87,-1.14,-0.89,-1.25,-1.26,-1.25
387.97,-0.39,0.87,-0.43,0.83,-0.83,-1.12,-0.85,-1.22,-1.26,-1.26
391.85,-0.43,0.84,-0.48,0.79,-0.79,-1.10,-0.80,-1.22,-1.27,-1.27
395.77,-0.47,0.80,-0.52,0.75,-0.75,-1.08,-0.75,-1.21,-1.27,-1.26
399.73,-0.54,0.74,-0.57,0.71,-0.71,-1.06,-0.71,-1.24,-1.28,-1.27
403.72,-0.60,0.68,-0.61,0.67,-0.67,-1.04,-0.67,-1.27,-1.28,-1.28
407.76,-0.66,0.63,-0.66,0.63,-0.63,-1.02,-0.62,-1.29,-1.29,-1.29
411.84,-0.69,0.60,-0.70,0.59,-0.59,-1.00,-0.58,-1.28,-1.29,-1.29
415.96,-0.76,0.53,-0.73,0.56,-0.56,-0.99,-0.54,-1.32,-1.29,-1.29
420.12,-0.81,0.48,-0.76,0.54,-0.54,-0.97,-0.50,-1.34,-1.29,-1.29
424.32,-0.86,0.44,-0.78,0.51,-0.51,-0.95,-0.47,-1.36,-1.29,-1.29
428.56,-0.86,0.43,-0.80,0.48,-0.48,-0.93,-0.43,-1.33,-1.28,-1.28
432.85,-0.85,0.43,-0.81,0.45,-0.45,-0.92,-0.39,-1.30,-1.26,-1.27
437.18,-0.82,0.45,-0.81,0.43,-0.43,-0.90,-0.36,-1.25,-1.24,-1.27
441.55,-0.79,0.44,-0.80,0.41,-0.41,-0.89,-0.33,-1.20,-1.22,-1.23
445.96,-0.80,0.40,-0.79,0.39,-0.39,-0.87,-0.29,-1.19,-1.18,-1.20
450.42,-0.78,0.39,-0.77,0.37,-0.37,-0.85,-0.26,-1.15,-1.15,-1.17
454.93,-0.73,0.39,-0.75,0.35,-0.35,-0.84,-0.24,-1.08,-1.11,-1.12
459.48,-0.67,0.40,-0.73,0.33,-0.33,-0.83,-0.21,-1.00,-1.06,-1.07
464.07,-0.68,0.35,-0.70,0.32,-0.32,-0.81,-0.18,-0.99,-1.02,-1.02
468.71,-0.68,0.29,-0.67,0.30,-0.30,-0.80,-0.16,-0.98,-0.97,-0.96
473.40,-0.67,0.26,-0.64,0.28,-0.28,-0.78,-0.14,-0.95,-0.92,-0.92
478.13,-0.63,0.24,-0.62,0.25,-0.25,-0.77,-0.12,-0.88,-0.87,-0.86
482.91,-0.63,0.20,-0.60,0.22,-0.22,-0.76,-0.10,-0.85,-0.83,-0.82
487.74,-0.63,0.16,-0.59,0.19,-0.19,-0.75,-0.08,-0.82,-0.79,-0.79
492.62,-0.60,0.14,-0.58,0.17,-0.17,-0.73,-0.06,-0.76,-0.75,-0.74
497.55,-0.57,0.15,-0.58,0.14,-0.14,-0.72,-0.05,-0.71,-0.72,-0.72
502.52,-0.55,0.14,-0.58,0.12,-0.12,-0.71,-0.04,-0.66,-0.70,-0.69
507.55,-0.53,0.15,-0.59,0.09,-0.09,-0.70,-0.03,-0.62,-0.68,-0.68
