frequency,raw,error,smoothed,error_smoothed,equalization,parametric_eq,fixed_band_eq,equalized_raw,equalized_smoothed,target
20.00,-13.66,-17.57,-13.68,-17.61,17.61,16.92,6.49,3.96,3.94,3.91
20.20,-13.52,-17.48,-13.52,-17.50,17.50,17.03,6.64,3.98,3.98,3.96
20.40,-13.38,-17.38,-13.37,-17.38,17.38,17.11,6.79,4.00,4.01,4.01
20.61,-13.24,-17.28,-13.22,-17.26,17.26,17.17,6.95,4.02,4.04,4.04
20.81,-13.11,-17.19,-13.07,-17.14,17.14,17.21,7.11,4.03,4.07,4.09
21.02,-12.96,-17.08,-12.92,-17.02,17.02,17.22,7.28,4.06,4.10,4.13
21.23,-12.79,-16.93,-12.77,-16.90,16.90,17.21,7.45,4.11,4.12,4.15
21.44,-12.62,-16.78,-12.63,-16.78,16.78,17.18,7.63,4.16,4.15,4.17
21.66,-12.45,-16.63,-12.49,-16.65,16.65,17.13,7.81,4.20,4.17,4.18
21.87,-12.28,-16.47,-12.35,-16.53,16.53,17.06,7.99,4.25,4.18,4.19
22.09,-12.13,-16.34,-12.21,-16.41,16.41,16.97,8.18,4.28,4.20,4.21
22.31,-12.03,-16.25,-12.07,-16.28,16.28,16.86,8.37,4.25,4.21,4.22
22.54,-11.92,-16.14,-11.93,-16.15,16.15,16.74,8.57,4.23,4.22,4.22
22.76,-11.81,-16.03,-11.80,-16.02,16.02,16.61,8.78,4.22,4.22,4.22
22.99,-11.70,-15.91,-11.67,-15.89,15.89,16.46,8.99,4.19,4.22,4.21
23.22,-11.58,-15.79,-11.54,-15.76,15.76,16.31,9.20,4.18,4.22,4.21
23.45,-11.45,-15.66,-11.41,-15.64,15.64,16.15,9.43,4.19,4.23,4.21
23.69,-11.33,-15.55,-11.29,-15.51,15.51,15.99,9.65,4.18,4.23,4.22
23.92,-11.20,-15.41,-11.17,-15.39,15.39,15.82,9.89,4.19,4.23,4.22
24.16,-11.06,-15.28,-11.04,-15.27,15.27,15.66,10.13,4.21,4.22,4.23
24.40,-10.91,-15.14,-10.92,-15.15,15.15,15.49,10.37,4.24,4.22,4.24
24.65,-10.77,-14.99,-10.80,-15.02,15.02,15.31,10.63,4.25,4.22,4.23
24.89,-10.62,-14.84,-10.67,-14.90,14.90,15.15,10.89,4.28,4.22,4.22
25.14,-10.50,-14.72,-10.55,-14.78,14.78,14.98,11.15,4.28,4.22,4.22
25.39,-10.40,-14.63,-10.43,-14.65,14.65,14.81,11.42,4.26,4.23,4.23
25.65,-10.31,-14.54,-10.31,-14.53,14.53,14.65,11.70,4.22,4.23,4.23
25.91,-10.21,-14.43,-10.18,-14.41,14.41,14.49,11.98,4.20,4.23,4.22
26.16,-10.09,-14.31,-10.06,-14.29,14.29,14.33,12.27,4.20,4.22,4.22
26.43,-9.97,-14.19,-9.94,-14.16,14.16,14.17,12.56,4.19,4.22,4.22
26.69,-9.84,-14.05,-9.82,-14.04,14.04,14.02,12.86,4.20,4.22,4.22
26.96,-9.72,-13.94,-9.69,-13.91,13.91,13.88,13.15,4.19,4.22,4.22
27.23,-9.59,-13.81,-9.57,-13.78,13.78,13.74,13.46,4.19,4.21,4.22
27.50,-9.45,-13.67,-9.44,-13.66,13.66,13.60,13.76,4.21,4.21,4.22
27.77,-9.31,-13.52,-9.31,-13.52,13.52,13.46,14.05,4.22,4.21,4.21
28.05,-9.18,-13.39,-9.18,-13.39,13.39,13.33,14.35,4.22,4.21,4.21
28.33,-9.04,-13.23,-9.06,-13.27,13.27,13.21,14.64,4.23,4.21,4.20
28.62,-8.91,-13.11,-8.94,-13.14,13.14,13.08,14.92,4.23,4.21,4.20
28.90,-8.78,-12.98,-8.81,-13.01,13.01,12.96,15.18,4.23,4.20,4.20
29.19,-8.65,-12.84,-8.67,-12.87,12.87,12.85,15.43,4.22,4.20,4.19
29.48,-8.53,-12.74,-8.53,-12.73,12.73,12.74,15.65,4.20,4.20,4.21
29.78,-8.40,-12.60,-8.39,-12.59,12.59,12.63,15.85,4.19,4.20,4.20
30.08,-8.29,-12.50,-8.26,-12.45,12.45,12.52,16.02,4.16,4.20,4.21
30.38,-8.19,-12.38,-8.13,-12.33,12.33,12.42,16.15,4.14,4.19,4.19
30.68,-8.09,-12.28,-8.01,-12.20,12.20,12.32,16.24,4.12,4.19,4.19
30.99,-7.99,-12.18,-7.90,-12.09,12.09,12.22,16.29,4.10,4.19,4.19
31.30,-7.79,-11.98,-7.79,-11.98,11.98,12.12,16.30,4.19,4.19,4.19
31.61,-7.59,-11.77,-7.69,-11.87,11.87,12.03,16.27,4.28,4.18,4.18
31.93,-7.38,-11.56,-7.57,-11.75,11.75,11.93,16.19,4.37,4.18,4.18
32.24,-7.33,-11.50,-7.46,-11.64,11.64,11.84,16.07,4.31,4.18,4.17
32.57,-7.32,-11.49,-7.36,-11.53,11.53,11.75,15.92,4.21,4.17,4.18
32.89,-7.31,-11.48,-7.26,-11.43,11.43,11.66,15.74,4.12,4.17,4.17
33.22,-7.25,-11.41,-7.17,-11.33,11.33,11.57,15.52,4.09,4.16,4.16
33.55,-7.17,-11.32,-7.07,-11.23,11.23,11.48,15.29,4.06,4.16,4.16
33.89,-7.08,-11.22,-6.97,-11.12,11.12,11.39,15.03,4.04,4.15,4.14
34.23,-6.93,-11.08,-6.87,-11.02,11.02,11.30,14.76,4.09,4.15,4.15
34.57,-6.76,-10.90,-6.78,-10.92,10.92,11.20,14.48,4.16,4.14,4.14
34.92,-6.58,-10.71,-6.69,-10.82,10.82,11.11,14.19,4.24,4.14,4.13
35.27,-6.52,-10.65,-6.59,-10.72,10.72,11.01,13.90,4.20,4.13,4.13
35.62,-6.50,-10.62,-6.48,-10.61,10.61,10.92,13.61,4.11,4.13,4.13
35.97,-6.48,-10.60,-6.36,-10.48,10.48,10.82,13.31,4.01,4.13,4.12
36.33,-6.28,-10.40,-6.23,-10.35,10.35,10.71,13.02,4.08,4.12,4.13
36.70,-6.07,-10.18,-6.10,-10.22,10.22,10.61,12.73,4.15,4.12,4.11
37.06,-5.89,-10.00,-5.98,-10.10,10.10,10.50,12.44,4.22,4.12,4.11
37.43,-5.86,-9.98,-5.87,-9.99,9.99,10.39,12.15,4.14,4.12,4.12
37.81,-5.82,-9.94,-5.77,-9.89,9.89,10.28,11.88,4.07,4.12,4.12
38.19,-5.71,-9.82,-5.66,-9.78,9.78,10.17,11.60,4.07,4.12,4.11
38.57,-5.54,-9.66,-5.55,-9.67,9.67,10.05,11.34,4.13,4.12,4.12
38.95,-5.36,-9.48,-5.43,-9.55,9.55,9.93,11.08,4.19,4.12,4.12
39.34,-5.26,-9.37,-5.31,-9.43,9.43,9.81,10.82,4.17,4.12,4.12
39.74,-5.18,-9.29,-5.19,-9.31,9.31,9.68,10.58,4.13,4.11,4.11
40.14,-5.10,-9.21,-5.08,-9.19,9.19,9.55,10.33,4.09,4.11,4.11
40.54,-5.04,-9.15,-4.97,-9.08,9.08,9.43,10.10,4.04,4.11,4.11
40.94,-4.98,-9.08,-4.87,-8.97,8.97,9.29,9.87,3.99,4.10,4.10
41.35,-4.80,-8.89,-4.76,-8.86,8.86,9.16,9.65,4.06,4.10,4.09
41.76,-4.61,-8.69,-4.65,-8.74,8.74,9.02,9.43,4.13,4.09,4.09
42.18,-4.47,-8.56,-4.55,-8.63,8.63,8.89,9.22,4.16,4.08,4.09
42.60,-4.40,-8.47,-4.45,-8.51,8.51,8.75,9.02,4.12,4.07,4.07
43.03,-4.32,-8.38,-4.34,-8.40,8.40,8.61,8.82,4.08,4.05,4.06
43.46,-4.23,-8.28,-4.25,-8.29,8.29,8.47,8.62,4.06,4.04,4.06
43.90,-4.14,-8.17,-4.15,-8.18,8.18,8.33,8.44,4.04,4.03,4.03
44.33,-4.06,-8.07,-4.05,-8.06,8.06,8.18,8.25,4.01,4.01,4.01
44.78,-3.99,-7.98,-3.95,-7.95,7.95,8.04,8.08,3.96,4.00,3.99
45.23,-3.90,-7.88,-3.85,-7.83,7.83,7.90,7.90,3.93,3.98,3.98
45.68,-3.79,-7.75,-3.74,-7.71,7.71,7.76,7.74,3.92,3.97,3.96
46.13,-3.68,-7.62,-3.66,-7.61,7.61,7.62,7.57,3.93,3.95,3.94
46.60,-3.53,-7.47,-3.57,-7.51,7.51,7.48,7.41,3.98,3.94,3.94
47.06,-3.41,-7.32,-3.48,-7.40,7.40,7.34,7.26,3.99,3.92,3.92
47.53,-3.40,-7.30,-3.38,-7.28,7.28,7.20,7.11,3.89,3.90,3.90
48.01,-3.39,-7.29,-3.29,-7.18,7.18,7.06,6.97,3.79,3.88,3.90
48.49,-3.20,-7.08,-3.20,-7.07,7.07,6.92,6.82,3.87,3.87,3.88
48.97,-3.02,-6.87,-3.11,-6.96,6.96,6.78,6.69,3.95,3.85,3.86
49.46,-2.94,-6.77,-3.01,-6.85,6.85,6.65,6.55,3.91,3.84,3.83
49.96,-2.88,-6.69,-2.92,-6.74,6.74,6.52,6.42,3.86,3.82,3.81
50.46,-2.88,-6.68,-2.83,-6.64,6.64,6.38,6.30,3.76,3.81,3.81
50.96,-2.90,-6.69,-2.76,-6.55,6.55,6.25,6.17,3.65,3.79,3.79
51.47,-2.72,-6.48,-2.68,-6.45,6.45,6.12,6.05,3.74,3.78,3.77
51.99,-2.54,-6.29,-2.59,-6.35,6.35,6.00,5.93,3.81,3.76,3.75
52.51,-2.50,-6.24,-2.51,-6.25,6.25,5.87,5.82,3.76,3.74,3.74
53.03,-2.47,-6.20,-2.43,-6.16,6.16,5.75,5.71,3.69,3.73,3.74
53.56,-2.31,-6.03,-2.36,-6.07,6.07,5.63,5.60,3.76,3.71,3.72
54.10,-2.17,-5.87,-2.29,-5.99,5.99,5.51,5.49,3.82,3.70,3.70
54.64,-2.20,-5.88,-2.22,-5.90,5.90,5.39,5.39,3.71,3.69,3.68
55.18,-2.20,-5.87,-2.14,-5.81,5.81,5.28,5.29,3.61,3.67,3.67
55.74,-2.15,-5.80,-2.06,-5.71,5.71,5.16,5.19,3.57,3.66,3.65
56.29,-2.02,-5.66,-1.97,-5.61,5.61,5.05,5.09,3.60,3.64,3.64
56.86,-1.82,-5.44,-1.90,-5.52,5.52,4.94,4.99,3.70,3.62,3.62
57.42,-1.80,-5.39,-1.84,-5.44,5.44,4.84,4.90,3.64,3.60,3.59
58.00,-1.85,-5.42,-1.77,-5.35,5.35,4.73,4.81,3.50,3.58,3.57
58.58,-1.76,-5.32,-1.70,-5.25,5.25,4.63,4.71,3.49,3.55,3.56
59.16,-1.65,-5.18,-1.63,-5.16,5.16,4.53,4.62,3.51,3.52,3.54
59.76,-1.52,-5.03,-1.57,-5.06,5.06,4.43,4.54,3.54,3.49,3.51
60.35,-1.45,-4.91,-1.51,-4.96,4.96,4.33,4.45,3.51,3.45,3.46
60.96,-1.41,-4.84,-1.43,-4.85,4.85,4.23,4.36,3.44,3.42,3.43
61.57,-1.35,-4.73,-1.37,-4.74,4.74,4.14,4.27,3.39,3.38,3.38
62.18,-1.31,-4.64,-1.31,-4.64,4.64,4.05,4.19,3.33,3.33,3.33
62.80,-1.31,-4.59,-1.26,-4.54,4.54,3.96,4.11,3.24,3.29,3.28
63.43,-1.24,-4.47,-1.21,-4.45,4.45,3.87,4.02,3.21,3.24,3.23
64.07,-1.15,-4.33,-1.15,-4.34,4.34,3.78,3.94,3.19,3.19,3.18
64.71,-1.08,-4.21,-1.10,-4.24,4.24,3.70,3.86,3.16,3.14,3.13
65.35,-1.04,-4.13,-1.06,-4.14,4.14,3.62,3.78,3.11,3.09,3.09
66.01,-1.01,-4.04,-1.02,-4.05,4.05,3.54,3.69,3.04,3.03,3.03
66.67,-0.94,-3.92,-0.97,-3.95,3.95,3.46,3.61,3.01,2.98,2.98
67.33,-0.91,-3.83,-0.92,-3.85,3.85,3.38,3.53,2.94,2.93,2.92
68.01,-0.91,-3.79,-0.88,-3.75,3.75,3.30,3.46,2.84,2.87,2.88
68.69,-0.83,-3.65,-0.83,-3.64,3.64,3.23,3.38,2.82,2.82,2.82
69.37,-0.80,-3.56,-0.78,-3.54,3.54,3.15,3.30,2.74,2.76,2.76
70.07,-0.79,-3.49,-0.73,-3.43,3.43,3.08,3.22,2.64,2.70,2.70
70.77,-0.72,-3.37,-0.68,-3.33,3.33,3.01,3.14,2.61,2.64,2.65
71.48,-0.67,-3.26,-0.65,-3.23,3.23,2.94,3.07,2.56,2.58,2.59
72.19,-0.60,-3.12,-0.61,-3.13,3.13,2.87,2.99,2.53,2.52,2.52
72.91,-0.51,-2.96,-0.57,-3.02,3.02,2.80,2.92,2.52,2.45,2.46
73.64,-0.50,-2.89,-0.53,-2.92,2.92,2.74,2.85,2.42,2.39,2.39
74.38,-0.48,-2.80,-0.49,-2.82,2.82,2.68,2.77,2.34,2.33,2.33
75.12,-0.44,-2.70,-0.46,-2.72,2.72,2.61,2.70,2.29,2.27,2.26
75.87,-0.41,-2.60,-0.43,-2.63,2.63,2.55,2.63,2.22,2.20,2.19
76.63,-0.40,-2.53,-0.40,-2.54,2.54,2.49,2.56,2.14,2.14,2.13
77.40,-0.40,-2.47,-0.38,-2.45,2.45,2.43,2.49,2.06,2.08,2.08
78.17,-0.40,-2.40,-0.36,-2.37,2.37,2.37,2.42,1.98,2.02,2.01
78.95,-0.40,-2.36,-0.34,-2.30,2.30,2.31,2.35,1.90,1.96,1.96
79.74,-0.32,-2.22,-0.33,-2.23,2.23,2.26,2.28,1.91,1.90,1.90
80.54,-0.28,-2.13,-0.32,-2.17,2.17,2.20,2.22,1.89,1.85,1.85
81.35,-0.29,-2.07,-0.32,-2.11,2.11,2.15,2.15,1.82,1.79,1.79
82.16,-0.30,-2.03,-0.31,-2.04,2.04,2.09,2.09,1.74,1.73,1.73
82.98,-0.30,-1.98,-0.30,-1.98,1.98,2.04,2.02,1.68,1.68,1.69
83.81,-0.30,-1.92,-0.30,-1.92,1.92,1.99,1.96,1.62,1.62,1.62
84.65,-0.30,-1.86,-0.29,-1.85,1.85,1.94,1.90,1.56,1.56,1.56
85.50,-0.30,-1.81,-0.28,-1.79,1.79,1.89,1.83,1.49,1.51,1.51
86.35,-0.30,-1.75,-0.28,-1.73,1.73,1.84,1.77,1.43,1.45,1.45
87.22,-0.30,-1.69,-0.28,-1.67,1.67,1.79,1.71,1.38,1.39,1.40
88.09,-0.30,-1.63,-0.29,-1.62,1.62,1.74,1.65,1.32,1.33,1.33
88.97,-0.30,-1.57,-0.30,-1.57,1.57,1.70,1.59,1.27,1.27,1.27
89.86,-0.30,-1.51,-0.31,-1.52,1.52,1.65,1.53,1.22,1.21,1.21
90.76,-0.30,-1.45,-0.31,-1.47,1.47,1.60,1.48,1.17,1.15,1.15
91.66,-0.30,-1.39,-0.32,-1.42,1.42,1.56,1.42,1.12,1.09,1.10
92.58,-0.29,-1.31,-0.33,-1.37,1.37,1.51,1.36,1.08,1.03,1.02
93.51,-0.32,-1.29,-0.34,-1.32,1.32,1.47,1.31,1.00,0.97,0.97
94.44,-0.39,-1.30,-0.35,-1.26,1.26,1.42,1.25,0.87,0.91,0.91
95.39,-0.43,-1.29,-0.36,-1.21,1.21,1.38,1.20,0.79,0.85,0.86
96.34,-0.41,-1.20,-0.38,-1.17,1.17,1.34,1.14,0.77,0.80,0.79
97.30,-0.41,-1.14,-0.40,-1.14,1.14,1.30,1.09,0.73,0.74,0.74
98.28,-0.41,-1.09,-0.42,-1.10,1.10,1.25,1.03,0.69,0.68,0.68
99.26,-0.43,-1.05,-0.44,-1.07,1.07,1.21,0.98,0.64,0.62,0.62
100.25,-0.45,-1.01,-0.47,-1.04,1.04,1.17,0.93,0.59,0.56,0.57
101.25,-0.47,-0.98,-0.50,-1.01,1.01,1.13,0.88,0.54,0.51,0.51
102.27,-0.48,-0.93,-0.53,-0.98,0.98,1.09,0.83,0.50,0.45,0.45
103.29,-0.50,-0.88,-0.56,-0.95,0.95,1.05,0.78,0.45,0.39,0.38
104.32,-0.57,-0.90,-0.58,-0.91,0.91,1.01,0.73,0.34,0.33,0.34
105.37,-0.68,-0.96,-0.60,-0.87,0.87,0.97,0.68,0.19,0.27,0.28
106.42,-0.68,-0.90,-0.63,-0.84,0.84,0.93,0.64,0.16,0.21,0.22
107.48,-0.68,-0.83,-0.66,-0.81,0.81,0.89,0.59,0.13,0.15,0.15
108.56,-0.71,-0.79,-0.69,-0.77,0.77,0.85,0.55,0.07,0.09,0.08
109.64,-0.73,-0.76,-0.72,-0.74,0.74,0.81,0.50,0.01,0.02,0.03
110.74,-0.75,-0.71,-0.74,-0.70,0.70,0.77,0.46,-0.05,-0.04,-0.04
111.85,-0.76,-0.67,-0.76,-0.66,0.66,0.73,0.42,-0.10,-0.10,-0.09
112.97,-0.77,-0.60,-0.77,-0.61,0.61,0.69,0.38,-0.15,-0.16,-0.16
114.10,-0.78,-0.56,-0.79,-0.57,0.57,0.65,0.34,-0.21,-0.22,-0.22
115.24,-0.74,-0.46,-0.81,-0.53,0.53,0.61,0.31,-0.21,-0.27,-0.28
116.39,-0.81,-0.46,-0.82,-0.49,0.49,0.57,0.27,-0.32,-0.33,-0.34
117.55,-0.87,-0.48,-0.83,-0.45,0.45,0.53,0.24,-0.42,-0.38,-0.39
118.73,-0.87,-0.42,-0.84,-0.41,0.41,0.50,0.20,-0.46,-0.43,-0.44
119.92,-0.86,-0.38,-0.85,-0.37,0.37,0.46,0.17,-0.49,-0.48,-0.48
121.12,-0.86,-0.33,-0.86,-0.33,0.33,0.42,0.15,-0.52,-0.53,-0.53
122.33,-0.85,-0.27,-0.87,-0.30,0.30,0.38,0.12,-0.55,-0.57,-0.58
123.55,-0.84,-0.23,-0.88,-0.27,0.27,0.34,0.09,-0.57,-0.61,-0.61
124.79,-0.92,-0.27,-0.90,-0.24,0.24,0.30,0.07,-0.68,-0.65,-0.65
126.03,-0.99,-0.30,-0.91,-0.21,0.21,0.26,0.05,-0.78,-0.69,-0.69
127.29,-0.94,-0.22,-0.91,-0.18,0.18,0.23,0.03,-0.76,-0.73,-0.72
128.57,-0.89,-0.12,-0.92,-0.15,0.15,0.19,0.01,-0.74,-0.77,-0.77
129.85,-0.85,-0.04,-0.93,-0.12,0.12,0.15,-0.00,-0.73,-0.81,-0.81
131.15,-0.94,-0.09,-0.94,-0.09,0.09,0.12,-0.02,-0.85,-0.85,-0.85
132.46,-0.98,-0.09,-0.95,-0.07,0.07,0.08,-0.03,-0.91,-0.89,-0.89
133.79,-1.00,-0.07,-0.97,-0.05,0.05,0.04,-0.04,-0.95,-0.92,-0.92
135.12,-0.99,-0.02,-0.99,-0.04,0.04,0.01,-0.05,-0.95,-0.96,-0.97
136.48,-0.99,0.01,-1.01,-0.01,0.01,-0.02,-0.06,-0.97,-0.99,-0.99
137.84,-0.99,0.05,-1.02,0.01,-0.01,-0.06,-0.07,-1.00,-1.03,-1.04
139.22,-1.01,0.07,-1.03,0.03,-0.03,-0.09,-0.07,-1.04,-1.07,-1.08
140.61,-1.06,0.07,-1.06,0.05,-0.05,-0.12,-0.08,-1.11,-1.11,-1.12
142.02,-1.12,0.03,-1.09,0.06,-0.06,-0.15,-0.08,-1.18,-1.15,-1.14
143.44,-1.16,0.03,-1.12,0.07,-0.07,-0.18,-0.08,-1.23,-1.19,-1.19
144.87,-1.18,0.06,-1.14,0.10,-0.10,-0.20,-0.09,-1.28,-1.24,-1.23
146.32,-1.18,0.10,-1.16,0.13,-0.13,-0.23,-0.09,-1.31,-1.29,-1.28
147.78,-1.18,0.14,-1.19,0.16,-0.16,-0.25,-0.09,-1.34,-1.35,-1.32
149.26,-1.18,0.20,-1.22,0.19,-0.19,-0.27,-0.09,-1.37,-1.41,-1.38
150.75,-1.16,0.29,-1.25,0.23,-0.23,-0.29,-0.09,-1.38,-1.47,-1.45
152.26,-1.28,0.25,-1.27,0.27,-0.27,-0.31,-0.09,-1.55,-1.54,-1.53
153.78,-1.40,0.20,-1.30,0.31,-0.31,-0.33,-0.09,-1.71,-1.62,-1.60
155.32,-1.39,0.29,-1.34,0.36,-0.36,-0.34,-0.08,-1.75,-1.69,-1.68
156.88,-1.36,0.41,-1.37,0.40,-0.40,-0.35,-0.08,-1.76,-1.77,-1.76
158.44,-1.36,0.50,-1.41,0.44,-0.44,-0.36,-0.08,-1.80,-1.85,-1.85
160.03,-1.45,0.50,-1.46,0.46,-0.46,-0.37,-0.08,-1.91,-1.93,-1.94
161.63,-1.53,0.49,-1.52,0.48,-0.48,-0.38,-0.08,-2.00,-2.00,-2.02
163.24,-1.58,0.51,-1.58,0.48,-0.48,-0.38,-0.08,-2.06,-2.07,-2.09
164.88,-1.57,0.58,-1.64,0.49,-0.49,-0.39,-0.07,-2.06,-2.13,-2.15
166.53,-1.59,0.61,-1.69,0.49,-0.49,-0.39,-0.07,-2.08,-2.18,-2.20
168.19,-1.72,0.53,-1.74,0.48,-0.48,-0.39,-0.07,-2.20,-2.23,-2.25
169.87,-1.87,0.42,-1.79,0.47,-0.47,-0.39,-0.07,-2.34,-2.27,-2.29
171.57,-1.91,0.41,-1.85,0.45,-0.45,-0.38,-0.07,-2.36,-2.30,-2.31
173.29,-1.95,0.39,-1.91,0.42,-0.42,-0.38,-0.07,-2.36,-2.33,-2.34
175.02,-2.05,0.30,-1.96,0.39,-0.39,-0.38,-0.07,-2.44,-2.35,-2.35
176.77,-2.06,0.31,-2.00,0.37,-0.37,-0.37,-0.07,-2.42,-2.36,-2.37
178.54,-2.04,0.34,-2.03,0.34,-0.34,-0.36,-0.07,-2.38,-2.37,-2.38
180.32,-2.00,0.38,-2.07,0.32,-0.32,-0.36,-0.07,-2.32,-2.38,-2.38
182.13,-2.04,0.33,-2.10,0.30,-0.30,-0.35,-0.07,-2.34,-2.40,-2.37
183.95,-2.11,0.28,-2.12,0.29,-0.29,-0.34,-0.07,-2.40,-2.41,-2.39
185.79,-2.19,0.21,-2.14,0.28,-0.28,-0.33,-0.07,-2.47,-2.42,-2.40
187.65,-2.22,0.20,-2.15,0.28,-0.28,-0.33,-0.07,-2.50,-2.43,-2.42
189.52,-2.18,0.26,-2.18,0.27,-0.27,-0.32,-0.07,-2.45,-2.45,-2.44
191.42,-2.13,0.33,-2.20,0.26,-0.26,-0.31,-0.07,-2.39,-2.46,-2.46
193.33,-2.13,0.35,-2.22,0.26,-0.26,-0.30,-0.07,-2.39,-2.48,-2.48
195.27,-2.25,0.26,-2.25,0.25,-0.25,-0.29,-0.07,-2.50,-2.50,-2.51
197.22,-2.34,0.19,-2.29,0.24,-0.24,-0.28,-0.08,-2.57,-2.53,-2.53
199.19,-2.31,0.25,-2.33,0.22,-0.22,-0.27,-0.08,-2.53,-2.55,-2.56
201.18,-2.27,0.31,-2.36,0.21,-0.21,-0.27,-0.08,-2.48,-2.58,-2.58
203.19,-2.39,0.21,-2.39,0.21,-0.21,-0.26,-0.08,-2.59,-2.60,-2.60
205.23,-2.51,0.12,-2.42,0.20,-0.20,-0.25,-0.09,-2.71,-2.62,-2.63
207.28,-2.51,0.13,-2.45,0.19,-0.19,-0.24,-0.09,-2.70,-2.65,-2.64
209.35,-2.49,0.18,-2.48,0.19,-0.19,-0.24,-0.09,-2.67,-2.67,-2.66
211.44,-2.47,0.23,-2.51,0.18,-0.18,-0.23,-0.10,-2.65,-2.69,-2.70
213.56,-2.52,0.19,-2.53,0.17,-0.17,-0.22,-0.10,-2.69,-2.71,-2.71
215.69,-2.62,0.11,-2.54,0.18,-0.18,-0.22,-0.10,-2.80,-2.73,-2.72
217.85,-2.59,0.15,-2.54,0.20,-0.20,-0.21,-0.11,-2.78,-2.74,-2.74
220.03,-2.54,0.22,-2.55,0.21,-0.21,-0.21,-0.11,-2.75,-2.75,-2.75
222.23,-2.55,0.23,-2.55,0.21,-0.21,-0.20,-0.11,-2.76,-2.76,-2.78
224.45,-2.58,0.19,-2.55,0.22,-0.22,-0.20,-0.12,-2.80,-2.77,-2.77
226.70,-2.52,0.26,-2.54,0.23,-0.23,-0.19,-0.12,-2.75,-2.77,-2.78
228.96,-2.51,0.26,-2.53,0.24,-0.24,-0.19,-0.13,-2.75,-2.77,-2.77
231.25,-2.50,0.26,-2.52,0.24,-0.24,-0.18,-0.13,-2.74,-2.76,-2.76
233.57,-2.49,0.27,-2.51,0.24,-0.24,-0.18,-0.13,-2.73,-2.75,-2.75
235.90,-2.48,0.27,-2.50,0.24,-0.24,-0.18,-0.14,-2.72,-2.74,-2.75
238.26,-2.47,0.27,-2.49,0.23,-0.23,-0.17,-0.14,-2.70,-2.73,-2.74
240.64,-2.49,0.23,-2.49,0.22,-0.22,-0.17,-0.15,-2.71,-2.71,-2.72
243.05,-2.52,0.17,-2.50,0.19,-0.19,-0.17,-0.15,-2.71,-2.69,-2.69
245.48,-2.52,0.15,-2.51,0.16,-0.16,-0.17,-0.16,-2.68,-2.67,-2.67
247.93,-2.49,0.15,-2.51,0.14,-0.14,-0.17,-0.16,-2.63,-2.65,-2.64
250.41,-2.47,0.16,-2.52,0.11,-0.11,-0.16,-0.17,-2.58,-2.63,-2.63
252.92,-2.45,0.15,-2.51,0.09,-0.09,-0.16,-0.17,-2.54,-2.61,-2.60
255.45,-2.50,0.08,-2.50,0.08,-0.08,-0.16,-0.17,-2.58,-2.58,-2.58
258.00,-2.52,0.04,-2.49,0.07,-0.07,-0.16,-0.18,-2.59,-2.56,-2.55
260.58,-2.53,0.01,-2.47,0.06,-0.06,-0.16,-0.18,-2.59,-2.54,-2.54
263.19,-2.53,-0.02,-2.44,0.08,-0.08,-0.16,-0.19,-2.60,-2.51,-2.51
265.82,-2.53,-0.03,-2.41,0.09,-0.09,-0.16,-0.19,-2.61,-2.49,-2.50
268.48,-2.41,0.07,-2.37,0.10,-0.10,-0.16,-0.20,-2.51,-2.47,-2.48
271.16,-2.31,0.13,-2.32,0.13,-0.13,-0.16,-0.20,-2.44,-2.45,-2.44
273.87,-2.24,0.19,-2.27,0.16,-0.16,-0.16,-0.21,-2.39,-2.42,-2.43
276.61,-2.17,0.23,-2.21,0.19,-0.19,-0.16,-0.21,-2.36,-2.40,-2.40
279.38,-2.10,0.27,-2.15,0.22,-0.22,-0.16,-0.22,-2.32,-2.37,-2.37
282.17,-2.10,0.25,-2.10,0.25,-0.25,-0.16,-0.22,-2.35,-2.35,-2.35
284.99,-2.05,0.27,-2.04,0.28,-0.28,-0.17,-0.23,-2.33,-2.32,-2.31
287.84,-1.90,0.40,-1.98,0.31,-0.31,-0.17,-0.23,-2.21,-2.29,-2.30
290.72,-1.88,0.39,-1.93,0.34,-0.34,-0.17,-0.24,-2.21,-2.26,-2.26
293.63,-1.96,0.28,-1.88,0.36,-0.36,-0.17,-0.24,-2.32,-2.23,-2.24
296.57,-1.82,0.39,-1.83,0.37,-0.37,-0.17,-0.25,-2.19,-2.21,-2.20
299.53,-1.77,0.41,-1.80,0.38,-0.38,-0.17,-0.26,-2.15,-2.18,-2.18
302.53,-1.76,0.41,-1.77,0.38,-0.38,-0.17,-0.26,-2.14,-2.15,-2.16
305.55,-1.77,0.35,-1.75,0.38,-0.38,-0.18,-0.27,-2.15,-2.13,-2.12
308.61,-1.80,0.30,-1.72,0.39,-0.39,-0.18,-0.27,-2.18,-2.11,-2.10
311.69,-1.72,0.36,-1.69,0.39,-0.39,-0.18,-0.28,-2.11,-2.08,-2.08
314.81,-1.62,0.43,-1.66,0.40,-0.40,-0.18,-0.29,-2.02,-2.06,-2.05
317.96,-1.61,0.43,-1.64,0.41,-0.41,-0.18,-0.30,-2.02,-2.04,-2.04
321.14,-1.62,0.41,-1.61,0.41,-0.41,-0.19,-0.30,-2.03,-2.02,-2.03
324.35,-1.63,0.38,-1.59,0.42,-0.42,-0.19,-0.31,-2.05,-2.01,-2.01
327.59,-1.63,0.37,-1.58,0.42,-0.42,-0.19,-0.32,-2.05,-2.00,-2.00
330.87,-1.63,0.36,-1.58,0.41,-0.41,-0.19,-0.33,-2.03,-1.98,-1.99
334.18,-1.63,0.34,-1.60,0.37,-0.37,-0.19,-0.34,-2.00,-1.97,-1.97
337.52,-1.57,0.40,-1.62,0.34,-0.34,-0.19,-0.35,-1.91,-1.96,-1.97
340.90,-1.52,0.43,-1.64,0.31,-0.31,-0.19,-0.36,-1.83,-1.95,-1.95
344.30,-1.57,0.37,-1.70,0.25,-0.25,-0.19,-0.37,-1.82,-1.95,-1.94
347.75,-1.65,0.30,-1.76,0.18,-0.18,-0.19,-0.38,-1.83,-1.94,-1.94
351.23,-1.74,0.20,-1.83,0.11,-0.11,-0.19,-0.39,-1.85,-1.94,-1.94
354.74,-1.86,0.08,-1.89,0.05,-0.05,-0.19,-0.40,-1.91,-1.94,-1.94
358.28,-1.96,-0.03,-1.93,-0.00,0.00,-0.18,-0.41,-1.96,-1.93,-1.93
361.87,-2.06,-0.12,-1.99,-0.06,0.06,-0.18,-0.42,-2.00,-1.93,-1.93
365.49,-2.16,-0.23,-2.05,-0.12,0.12,-0.17,-0.43,-2.04,-1.93,-1.93
369.14,-2.31,-0.37,-2.10,-0.17,0.17,-0.16,-0.44,-2.14,-1.93,-1.94
372.83,-2.13,-0.19,-2.13,-0.20,0.20,-0.15,-0.46,-1.93,-1.93,-1.94
376.56,-2.18,-0.24,-2.13,-0.20,0.20,-0.14,-0.47,-1.98,-1.94,-1.94
380.33,-2.42,-0.48,-2.11,-0.16,0.16,-0.12,-0.48,-2.25,-1.94,-1.93
384.13,-2.08,-0.14,-2.07,-0.13,0.13,-0.10,-0.50,-1.95,-1.95,-1.94
387.97,-2.05,-0.10,-2.05,-0.11,0.11,-0.07,-0.51,-1.94,-1.95,-1.95
391.85,-2.07,-0.11,-2.06,-0.10,0.10,-0.04,-0.52,-1.97,-1.95,-1.96
395.77,-2.04,-0.09,-2.07,-0.11,0.11,0.00,-0.54,-1.92,-1.96,-1.95
399.73,-2.14,-0.18,-2.11,-0.15,0.15,0.05,-0.55,-1.99,-1.97,-1.96
403.72,-1.99,-0.02,-2.17,-0.19,0.19,0.11,-0.57,-1.79,-1.97,-1.96
407.76,-1.80,0.18,-2.23,-0.25,0.25,0.19,-0.58,-1.54,-1.98,-1.98
411.84,-1.85,0.13,-2.31,-0.33,0.33,0.27,-0.60,-1.52,-1.98,-1.98
415.96,-1.96,0.02,-2.40,-0.42,0.42,0.37,-0.61,-1.54,-1.98,-1.98
420.12,-2.32,-0.34,-2.47,-0.49,0.49,0.47,-0.63,-1.83,-1.98,-1.98
424.32,-2.85,-0.87,-2.53,-0.56,0.56,0.56,-0.64,-2.29,-1.97,-1.98
428.56,-3.04,-1.07,-2.60,-0.63,0.63,0.65,-0.66,-2.40,-1.96,-1.97
432.85,-3.02,-1.06,-2.62,-0.68,0.68,0.70,-0.67,-2.34,-1.95,-1.96
437.18,-2.90,-0.94,-2.62,-0.69,0.69,0.70,-0.69,-2.21,-1.93,-1.95
441.55,-2.84,-0.92,-2.58,-0.68,0.68,0.66,-0.70,-2.16,-1.90,-1.92
445.96,-2.65,-0.76,-2.51,-0.64,0.64,0.57,-0.71,-2.01,-1.87,-1.89
