frequency,raw,error,smoothed,error_smoothed,equalization,parametric_eq,fixed_band_eq,equalized_raw,equalized_smoothed,target
20.00,4.80,-5.01,4.80,-5.02,5.01,5.03,2.06,9.81,9.81,9.81
20.20,4.81,-4.99,4.81,-4.99,4.99,5.02,2.12,9.80,9.80,9.80
20.40,4.82,-4.97,4.82,-4.97,4.97,5.01,2.19,9.79,9.79,9.79
20.61,4.84,-4.94,4.84,-4.94,4.94,5.01,2.25,9.78,9.78,9.78
20.81,4.85,-4.91,4.85,-4.91,4.92,5.00,2.31,9.77,9.77,9.76
21.02,4.86,-4.89,4.86,-4.89,4.90,4.99,2.38,9.76,9.76,9.75
21.23,4.87,-4.87,4.87,-4.88,4.88,4.98,2.45,9.75,9.75,9.74
21.44,4.88,-4.87,4.88,-4.86,4.86,4.97,2.53,9.74,9.74,9.75
21.66,4.89,-4.84,4.89,-4.85,4.84,4.96,2.60,9.73,9.73,9.73
21.87,4.90,-4.83,4.90,-4.83,4.82,4.95,2.68,9.72,9.72,9.73
22.09,4.91,-4.80,4.91,-4.80,4.80,4.94,2.75,9.71,9.71,9.71
22.31,4.93,-4.77,4.93,-4.78,4.78,4.93,2.83,9.71,9.71,9.70
22.54,4.94,-4.75,4.94,-4.76,4.76,4.92,2.92,9.70,9.70,9.69
22.76,4.95,-4.74,4.95,-4.74,4.74,4.90,3.00,9.69,9.69,9.69
22.99,4.96,-4.72,4.96,-4.72,4.72,4.89,3.09,9.68,9.68,9.68
23.22,4.97,-4.70,4.97,-4.71,4.71,4.88,3.18,9.68,9.68,9.67
23.45,4.98,-4.70,4.98,-4.69,4.69,4.87,3.27,9.67,9.67,9.68
23.69,4.99,-4.68,4.99,-4.68,4.68,4.86,3.36,9.67,9.67,9.67
23.92,5.01,-4.65,5.01,-4.67,4.66,4.85,3.45,9.67,9.67,9.66
24.16,5.02,-4.65,5.02,-4.65,4.65,4.84,3.55,9.67,9.67,9.67
24.40,5.03,-4.64,5.03,-4.64,4.64,4.82,3.64,9.67,9.67,9.67
24.65,5.04,-4.62,5.04,-4.63,4.63,4.81,3.74,9.66,9.66,9.66
24.89,5.05,-4.61,5.05,-4.61,4.61,4.80,3.84,9.66,9.66,9.66
25.14,5.05,-4.60,5.05,-4.60,4.60,4.79,3.94,9.65,9.66,9.65
25.39,5.06,-4.59,5.06,-4.59,4.59,4.77,4.05,9.65,9.65,9.65
25.65,5.07,-4.58,5.07,-4.58,4.58,4.76,4.15,9.65,9.65,9.65
25.91,5.08,-4.57,5.08,-4.58,4.58,4.75,4.25,9.66,9.66,9.65
26.16,5.09,-4.57,5.09,-4.57,4.57,4.73,4.35,9.66,9.65,9.66
26.43,5.09,-4.56,5.09,-4.56,4.56,4.72,4.45,9.65,9.65,9.65
26.69,5.10,-4.55,5.10,-4.55,4.55,4.71,4.55,9.65,9.65,9.65
26.96,5.11,-4.54,5.11,-4.54,4.54,4.69,4.65,9.65,9.65,9.65
27.23,5.12,-4.53,5.12,-4.53,4.54,4.68,4.75,9.66,9.66,9.65
27.50,5.13,-4.52,5.13,-4.53,4.53,4.66,4.84,9.66,9.66,9.65
27.77,5.13,-4.53,5.13,-4.52,4.52,4.65,4.93,9.65,9.66,9.66
28.05,5.14,-4.51,5.14,-4.52,4.52,4.64,5.02,9.66,9.66,9.65
28.33,5.15,-4.51,5.15,-4.51,4.51,4.62,5.10,9.66,9.66,9.66
28.62,5.16,-4.50,5.16,-4.51,4.51,4.61,5.18,9.67,9.67,9.66
28.90,5.17,-4.50,5.17,-4.50,4.50,4.59,5.25,9.67,9.67,9.67
29.19,5.17,-4.50,5.17,-4.50,4.50,4.57,5.32,9.67,9.67,9.67
29.48,5.17,-4.49,5.17,-4.50,4.49,4.56,5.37,9.66,9.66,9.66
29.78,5.18,-4.48,5.18,-4.49,4.48,4.54,5.43,9.66,9.66,9.66
30.08,5.18,-4.48,5.18,-4.47,4.47,4.53,5.47,9.65,9.66,9.66
30.38,5.19,-4.45,5.19,-4.46,4.47,4.51,5.51,9.66,9.65,9.64
30.68,5.19,-4.45,5.19,-4.45,4.45,4.49,5.54,9.64,9.65,9.64
30.99,5.20,-4.44,5.20,-4.44,4.44,4.48,5.56,9.64,9.64,9.64
31.30,5.20,-4.44,5.20,-4.43,4.43,4.46,5.57,9.63,9.64,9.64
31.61,5.21,-4.42,5.21,-4.43,4.42,4.44,5.58,9.63,9.63,9.63
31.93,5.21,-4.40,5.21,-4.41,4.41,4.42,5.57,9.62,9.62,9.61
32.24,5.21,-4.41,5.21,-4.40,4.40,4.41,5.56,9.61,9.62,9.62
32.57,5.22,-4.38,5.22,-4.39,4.39,4.39,5.53,9.61,9.61,9.60
32.89,5.22,-4.38,5.22,-4.38,4.39,4.37,5.51,9.61,9.60,9.60
33.22,5.22,-4.37,5.22,-4.38,4.38,4.35,5.47,9.60,9.60,9.59
33.55,5.21,-4.38,5.21,-4.37,4.37,4.33,5.43,9.58,9.59,9.59
33.89,5.21,-4.37,5.21,-4.37,4.37,4.31,5.38,9.58,9.58,9.58
34.23,5.21,-4.35,5.21,-4.36,4.37,4.29,5.32,9.58,9.57,9.56
34.57,5.20,-4.36,5.20,-4.36,4.36,4.28,5.26,9.56,9.56,9.56
34.92,5.19,-4.35,5.19,-4.36,4.36,4.26,5.20,9.55,9.55,9.54
35.27,5.19,-4.37,5.19,-4.36,4.35,4.24,5.13,9.54,9.54,9.56
35.62,5.19,-4.34,5.19,-4.35,4.34,4.22,5.06,9.53,9.53,9.53
35.97,5.19,-4.34,5.19,-4.34,4.33,4.19,4.98,9.52,9.52,9.53
36.33,5.19,-4.32,5.19,-4.32,4.32,4.17,4.91,9.51,9.51,9.51
36.70,5.19,-4.30,5.19,-4.30,4.31,4.15,4.83,9.50,9.50,9.49
37.06,5.19,-4.28,5.19,-4.28,4.29,4.13,4.75,9.48,9.48,9.47
37.43,5.19,-4.26,5.19,-4.27,4.27,4.11,4.67,9.46,9.46,9.45
37.81,5.19,-4.25,5.19,-4.25,4.25,4.09,4.59,9.44,9.44,9.44
38.19,5.19,-4.22,5.19,-4.23,4.23,4.07,4.51,9.42,9.42,9.41
38.57,5.19,-4.20,5.19,-4.21,4.20,4.04,4.43,9.39,9.39,9.39
38.95,5.19,-4.19,5.19,-4.18,4.18,4.02,4.35,9.37,9.37,9.38
39.34,5.19,-4.16,5.19,-4.16,4.16,4.00,4.28,9.35,9.35,9.35
39.74,5.19,-4.13,5.19,-4.14,4.14,3.97,4.20,9.33,9.33,9.32
40.14,5.19,-4.11,5.19,-4.11,4.12,3.95,4.13,9.31,9.31,9.30
40.54,5.19,-4.09,5.19,-4.09,4.09,3.93,4.06,9.28,9.28,9.28
40.94,5.19,-4.06,5.19,-4.07,4.07,3.90,3.99,9.26,9.26,9.25
41.35,5.19,-4.05,5.19,-4.05,4.05,3.88,3.92,9.24,9.24,9.24
41.76,5.19,-4.02,5.19,-4.03,4.03,3.85,3.86,9.22,9.22,9.21
42.18,5.19,-4.01,5.19,-4.01,4.00,3.83,3.79,9.19,9.19,9.20
42.60,5.19,-3.98,5.19,-3.98,3.98,3.80,3.74,9.17,9.17,9.17
43.03,5.19,-3.96,5.19,-3.96,3.96,3.78,3.68,9.15,9.15,9.15
43.46,5.19,-3.92,5.19,-3.93,3.93,3.75,3.62,9.12,9.12,9.11
43.90,5.19,-3.90,5.19,-3.90,3.91,3.72,3.57,9.10,9.10,9.09
44.33,5.19,-3.87,5.19,-3.88,3.88,3.70,3.53,9.07,9.07,9.06
44.78,5.19,-3.85,5.19,-3.85,3.85,3.67,3.48,9.04,9.04,9.04
45.23,5.19,-3.83,5.19,-3.82,3.82,3.64,3.44,9.01,9.01,9.02
45.68,5.19,-3.78,5.19,-3.79,3.79,3.62,3.40,8.98,8.98,8.97
46.13,5.19,-3.75,5.19,-3.75,3.75,3.59,3.36,8.94,8.94,8.94
46.60,5.19,-3.71,5.19,-3.72,3.72,3.56,3.33,8.91,8.91,8.90
47.06,5.19,-3.68,5.19,-3.68,3.68,3.53,3.29,8.87,8.87,8.87
47.53,5.19,-3.64,5.19,-3.64,3.64,3.50,3.26,8.83,8.83,8.83
48.01,5.19,-3.59,5.19,-3.60,3.59,3.47,3.24,8.78,8.78,8.78
48.49,5.19,-3.55,5.19,-3.55,3.55,3.44,3.21,8.74,8.74,8.74
48.97,5.19,-3.50,5.19,-3.51,3.51,3.41,3.19,8.70,8.70,8.69
49.46,5.19,-3.47,5.19,-3.46,3.47,3.38,3.17,8.66,8.66,8.66
49.96,5.19,-3.41,5.19,-3.42,3.42,3.35,3.15,8.61,8.61,8.60
50.46,5.19,-3.38,5.19,-3.38,3.38,3.32,3.13,8.57,8.57,8.57
50.96,5.19,-3.34,5.19,-3.34,3.34,3.28,3.11,8.53,8.53,8.53
51.47,5.19,-3.30,5.19,-3.30,3.30,3.25,3.10,8.49,8.49,8.49
51.99,5.19,-3.25,5.19,-3.26,3.26,3.22,3.09,8.45,8.45,8.44
52.51,5.19,-3.22,5.19,-3.22,3.22,3.18,3.07,8.41,8.41,8.41
53.03,5.19,-3.19,5.19,-3.18,3.18,3.15,3.06,8.37,8.37,8.38
53.56,5.19,-3.14,5.19,-3.14,3.14,3.12,3.05,8.33,8.33,8.33
54.10,5.19,-3.09,5.19,-3.10,3.10,3.08,3.04,8.29,8.29,8.28
54.64,5.19,-3.05,5.19,-3.05,3.06,3.05,3.03,8.25,8.25,8.24
55.18,5.19,-3.01,5.19,-3.01,3.02,3.01,3.02,8.21,8.21,8.20
55.74,5.19,-2.96,5.19,-2.97,2.97,2.97,3.01,8.16,8.16,8.15
56.29,5.19,-2.94,5.19,-2.94,2.94,2.94,3.00,8.13,8.13,8.13
56.86,5.19,-2.90,5.19,-2.90,2.90,2.90,2.98,8.09,8.09,8.09
57.42,5.19,-2.85,5.19,-2.86,2.86,2.86,2.97,8.05,8.05,8.04
58.00,5.19,-2.81,5.19,-2.82,2.82,2.82,2.95,8.01,8.01,8.00
58.58,5.19,-2.78,5.19,-2.78,2.78,2.78,2.93,7.97,7.97,7.97
59.16,5.19,-2.75,5.19,-2.75,2.74,2.75,2.91,7.93,7.93,7.94
59.76,5.19,-2.70,5.19,-2.70,2.69,2.70,2.89,7.88,7.88,7.89
60.35,5.19,-2.65,5.19,-2.65,2.64,2.66,2.86,7.83,7.83,7.84
60.96,5.19,-2.59,5.19,-2.59,2.59,2.62,2.83,7.78,7.78,7.78
61.57,5.19,-2.53,5.19,-2.53,2.54,2.58,2.80,7.73,7.73,7.72
62.18,5.19,-2.47,5.19,-2.47,2.48,2.54,2.77,7.67,7.67,7.66
62.80,5.19,-2.41,5.19,-2.42,2.42,2.50,2.73,7.61,7.61,7.60
63.43,5.19,-2.36,5.19,-2.36,2.37,2.45,2.69,7.56,7.56,7.55
64.07,5.19,-2.31,5.19,-2.31,2.31,2.41,2.65,7.50,7.50,7.50
64.71,5.19,-2.26,5.19,-2.26,2.26,2.36,2.60,7.45,7.45,7.45
65.35,5.19,-2.20,5.19,-2.21,2.21,2.32,2.55,7.40,7.40,7.39
66.01,5.19,-2.15,5.19,-2.16,2.15,2.27,2.50,7.34,7.34,7.34
66.67,5.19,-2.11,5.19,-2.10,2.10,2.22,2.45,7.29,7.29,7.30
67.33,5.19,-2.04,5.19,-2.05,2.05,2.18,2.39,7.24,7.24,7.23
68.01,5.19,-1.99,5.19,-2.00,2.00,2.13,2.33,7.19,7.19,7.18
68.69,5.19,-1.94,5.19,-1.94,1.94,2.08,2.27,7.13,7.13,7.13
69.37,5.19,-1.89,5.19,-1.89,1.88,2.03,2.20,7.07,7.07,7.08
70.07,5.19,-1.83,5.19,-1.83,1.83,1.98,2.14,7.02,7.02,7.02
70.77,5.19,-1.76,5.19,-1.77,1.77,1.93,2.07,6.96,6.96,6.95
71.48,5.19,-1.71,5.19,-1.71,1.71,1.88,2.00,6.90,6.90,6.90
72.19,5.19,-1.65,5.19,-1.65,1.65,1.83,1.93,6.84,6.84,6.84
72.91,5.19,-1.58,5.19,-1.59,1.59,1.77,1.86,6.78,6.78,6.77
73.64,5.19,-1.53,5.19,-1.53,1.53,1.72,1.79,6.72,6.72,6.72
74.38,5.19,-1.47,5.19,-1.48,1.48,1.67,1.71,6.67,6.67,6.66
75.12,5.19,-1.42,5.19,-1.42,1.42,1.61,1.64,6.61,6.61,6.61
75.87,5.19,-1.37,5.19,-1.37,1.37,1.56,1.56,6.56,6.56,6.56
76.63,5.19,-1.31,5.19,-1.32,1.32,1.50,1.49,6.51,6.51,6.50
77.40,5.19,-1.27,5.19,-1.27,1.27,1.44,1.41,6.46,6.46,6.46
78.17,5.19,-1.21,5.19,-1.22,1.22,1.39,1.34,6.41,6.41,6.40
78.95,5.19,-1.17,5.19,-1.17,1.17,1.33,1.26,6.36,6.36,6.36
79.74,5.19,-1.12,5.19,-1.12,1.12,1.27,1.18,6.31,6.31,6.31
80.54,5.19,-1.07,5.19,-1.07,1.07,1.21,1.11,6.26,6.26,6.26
81.35,5.19,-1.01,5.19,-1.02,1.02,1.15,1.03,6.21,6.21,6.20
82.16,5.19,-0.98,5.19,-0.97,0.97,1.09,0.96,6.16,6.16,6.17
82.98,5.19,-0.92,5.19,-0.92,0.92,1.03,0.88,6.11,6.11,6.11
83.81,5.19,-0.87,5.19,-0.87,0.87,0.97,0.81,6.06,6.06,6.06
84.65,5.19,-0.81,5.19,-0.81,0.81,0.91,0.73,6.00,6.00,6.00
85.50,5.19,-0.75,5.19,-0.76,0.76,0.84,0.66,5.95,5.95,5.94
86.35,5.19,-0.70,5.19,-0.70,0.70,0.78,0.58,5.89,5.89,5.89
87.22,5.19,-0.65,5.19,-0.65,0.65,0.72,0.51,5.84,5.84,5.84
88.09,5.19,-0.59,5.19,-0.59,0.59,0.65,0.44,5.78,5.78,5.78
88.97,5.19,-0.53,5.19,-0.54,0.54,0.59,0.36,5.73,5.73,5.72
89.86,5.19,-0.48,5.19,-0.48,0.48,0.52,0.29,5.67,5.67,5.67
90.76,5.19,-0.42,5.19,-0.42,0.42,0.46,0.22,5.61,5.61,5.61
91.66,5.19,-0.35,5.19,-0.36,0.36,0.39,0.15,5.55,5.55,5.54
92.58,5.19,-0.30,5.19,-0.30,0.30,0.33,0.07,5.49,5.49,5.49
93.51,5.19,-0.25,5.19,-0.25,0.24,0.26,0.00,5.43,5.43,5.44
94.44,5.19,-0.19,5.19,-0.19,0.18,0.20,-0.07,5.37,5.37,5.38
95.39,5.19,-0.12,5.19,-0.12,0.12,0.13,-0.14,5.31,5.31,5.31
96.34,5.19,-0.05,5.19,-0.06,0.06,0.06,-0.21,5.25,5.25,5.24
97.30,5.19,0.01,5.19,0.01,-0.01,-0.00,-0.28,5.18,5.18,5.18
98.28,5.19,0.08,5.19,0.08,-0.07,-0.07,-0.35,5.12,5.12,5.11
99.26,5.19,0.14,5.19,0.14,-0.13,-0.14,-0.42,5.06,5.06,5.05
100.25,5.19,0.20,5.19,0.19,-0.19,-0.20,-0.49,5.00,5.00,4.99
101.25,5.19,0.25,5.19,0.25,-0.25,-0.27,-0.56,4.94,4.94,4.94
102.27,5.19,0.31,5.19,0.31,-0.31,-0.34,-0.63,4.88,4.88,4.88
103.29,5.19,0.37,5.19,0.36,-0.36,-0.40,-0.70,4.83,4.83,4.82
104.32,5.19,0.42,5.19,0.42,-0.42,-0.47,-0.76,4.77,4.77,4.77
105.37,5.19,0.48,5.19,0.48,-0.47,-0.53,-0.83,4.72,4.72,4.71
106.42,5.19,0.53,5.19,0.53,-0.53,-0.60,-0.89,4.66,4.66,4.66
107.48,5.19,0.59,5.19,0.58,-0.58,-0.67,-0.96,4.61,4.61,4.60
108.56,5.19,0.64,5.19,0.64,-0.64,-0.73,-1.02,4.55,4.55,4.55
109.64,5.19,0.70,5.19,0.70,-0.70,-0.80,-1.08,4.49,4.49,4.49
110.74,5.19,0.76,5.19,0.76,-0.76,-0.86,-1.14,4.43,4.43,4.43
111.85,5.19,0.82,5.19,0.81,-0.82,-0.92,-1.20,4.37,4.37,4.37
112.97,5.19,0.87,5.19,0.87,-0.88,-0.99,-1.26,4.31,4.31,4.32
114.10,5.19,0.93,5.19,0.93,-0.94,-1.05,-1.32,4.25,4.25,4.26
115.24,5.19,1.01,5.19,1.00,-1.00,-1.11,-1.37,4.19,4.19,4.18
116.39,5.19,1.07,5.19,1.07,-1.06,-1.18,-1.42,4.13,4.13,4.12
117.55,5.19,1.13,5.19,1.13,-1.12,-1.24,-1.47,4.07,4.07,4.06
118.73,5.19,1.19,5.19,1.18,-1.17,-1.30,-1.52,4.02,4.02,4.00
119.92,5.19,1.23,5.19,1.23,-1.23,-1.36,-1.56,3.96,3.96,3.96
121.12,5.19,1.28,5.19,1.28,-1.28,-1.42,-1.61,3.91,3.91,3.91
122.33,5.19,1.34,5.19,1.33,-1.34,-1.48,-1.65,3.85,3.85,3.85
123.55,5.19,1.39,5.19,1.39,-1.40,-1.53,-1.68,3.79,3.79,3.80
124.79,5.19,1.44,5.19,1.44,-1.45,-1.59,-1.72,3.74,3.74,3.75
126.03,5.20,1.51,5.20,1.51,-1.51,-1.65,-1.75,3.69,3.69,3.69
127.29,5.21,1.57,5.21,1.57,-1.57,-1.70,-1.78,3.64,3.64,3.64
128.57,5.21,1.64,5.21,1.63,-1.62,-1.76,-1.81,3.59,3.58,3.57
129.85,5.20,1.68,5.20,1.68,-1.67,-1.81,-1.84,3.53,3.53,3.52
131.15,5.19,1.73,5.19,1.73,-1.72,-1.86,-1.86,3.47,3.47,3.46
132.46,5.18,1.77,5.17,1.76,-1.76,-1.91,-1.88,3.42,3.42,3.41
133.79,5.15,1.80,5.15,1.79,-1.79,-1.97,-1.90,3.36,3.36,3.35
135.12,5.11,1.81,5.12,1.81,-1.82,-2.02,-1.92,3.29,3.30,3.30
136.48,5.09,1.84,5.08,1.83,-1.84,-2.06,-1.94,3.25,3.25,3.25
137.84,5.05,1.85,5.05,1.85,-1.85,-2.11,-1.95,3.20,3.20,3.20
139.22,5.02,1.88,5.02,1.87,-1.87,-2.16,-1.97,3.15,3.15,3.14
140.61,4.99,1.89,4.98,1.89,-1.88,-2.20,-1.98,3.11,3.10,3.10
142.02,4.94,1.90,4.95,1.90,-1.90,-2.25,-1.99,3.04,3.05,3.04
143.44,4.92,1.92,4.92,1.92,-1.92,-2.29,-2.01,3.00,3.00,3.00
144.87,4.89,1.93,4.89,1.93,-1.94,-2.34,-2.02,2.95,2.96,2.96
146.32,4.88,1.97,4.87,1.96,-1.96,-2.38,-2.03,2.92,2.91,2.91
147.78,4.85,1.98,4.85,1.98,-1.99,-2.42,-2.04,2.86,2.86,2.87
149.26,4.84,2.02,4.84,2.02,-2.02,-2.46,-2.06,2.82,2.82,2.82
150.75,4.84,2.06,4.84,2.06,-2.06,-2.50,-2.07,2.78,2.78,2.78
152.26,4.85,2.11,4.85,2.11,-2.11,-2.53,-2.08,2.74,2.74,2.74
153.78,4.86,2.16,4.86,2.15,-2.15,-2.57,-2.10,2.71,2.71,2.70
155.32,4.86,2.20,4.86,2.20,-2.20,-2.60,-2.11,2.66,2.66,2.66
156.88,4.86,2.25,4.86,2.25,-2.24,-2.64,-2.13,2.62,2.62,2.61
158.44,4.86,2.30,4.86,2.29,-2.29,-2.67,-2.15,2.57,2.57,2.56
160.03,4.86,2.34,4.86,2.34,-2.34,-2.70,-2.16,2.52,2.52,2.52
161.63,4.86,2.38,4.86,2.38,-2.38,-2.73,-2.18,2.48,2.48,2.48
163.24,4.86,2.43,4.86,2.43,-2.43,-2.76,-2.21,2.43,2.43,2.43
164.88,4.86,2.48,4.86,2.47,-2.47,-2.79,-2.23,2.39,2.39,2.38
166.53,4.86,2.53,4.86,2.52,-2.52,-2.82,-2.25,2.34,2.34,2.33
168.19,4.86,2.56,4.86,2.57,-2.57,-2.85,-2.28,2.29,2.29,2.30
169.87,4.86,2.62,4.86,2.61,-2.62,-2.87,-2.31,2.24,2.24,2.24
171.57,4.86,2.67,4.86,2.66,-2.66,-2.90,-2.34,2.20,2.20,2.19
173.29,4.86,2.71,4.86,2.71,-2.71,-2.92,-2.37,2.15,2.15,2.15
175.02,4.86,2.76,4.86,2.76,-2.76,-2.95,-2.41,2.10,2.10,2.10
176.77,4.86,2.81,4.86,2.81,-2.80,-2.97,-2.44,2.06,2.06,2.05
178.54,4.86,2.85,4.86,2.85,-2.85,-2.99,-2.48,2.01,2.01,2.01
180.32,4.86,2.91,4.86,2.90,-2.90,-3.01,-2.52,1.96,1.96,1.95
182.13,4.86,2.94,4.86,2.94,-2.94,-3.03,-2.57,1.92,1.92,1.92
183.95,4.86,2.99,4.86,2.99,-2.99,-3.05,-2.61,1.87,1.87,1.87
185.79,4.86,3.04,4.86,3.03,-3.03,-3.06,-2.66,1.83,1.83,1.82
187.65,4.86,3.08,4.86,3.08,-3.08,-3.08,-2.70,1.78,1.78,1.78
189.52,4.86,3.12,4.86,3.12,-3.12,-3.09,-2.75,1.74,1.74,1.74
191.42,4.86,3.16,4.86,3.16,-3.17,-3.11,-2.81,1.69,1.69,1.70
193.33,4.87,3.21,4.87,3.21,-3.22,-3.12,-2.86,1.65,1.65,1.66
195.27,4.87,3.26,4.87,3.26,-3.26,-3.13,-2.91,1.61,1.61,1.61
197.22,4.88,3.32,4.88,3.31,-3.31,-3.15,-2.97,1.57,1.57,1.56
199.19,4.89,3.36,4.89,3.36,-3.35,-3.16,-3.03,1.54,1.54,1.53
201.18,4.89,3.40,4.89,3.39,-3.38,-3.17,-3.08,1.51,1.51,1.49
203.19,4.88,3.42,4.88,3.41,-3.41,-3.18,-3.14,1.47,1.47,1.46
205.23,4.87,3.43,4.87,3.43,-3.43,-3.19,-3.20,1.44,1.44,1.44
207.28,4.85,3.44,4.85,3.44,-3.44,-3.19,-3.26,1.41,1.41,1.41
209.35,4.83,3.46,4.83,3.45,-3.45,-3.20,-3.32,1.38,1.38,1.37
211.44,4.80,3.46,4.80,3.45,-3.45,-3.21,-3.38,1.35,1.35,1.34
213.56,4.76,3.44,4.76,3.44,-3.44,-3.21,-3.44,1.32,1.32,1.32
215.69,4.72,3.43,4.72,3.43,-3.44,-3.22,-3.50,1.28,1.28,1.29
217.85,4.68,3.42,4.69,3.42,-3.43,-3.22,-3.55,1.25,1.26,1.26
220.03,4.66,3.43,4.66,3.42,-3.42,-3.22,-3.61,1.24,1.24,1.23
222.23,4.63,3.43,4.63,3.42,-3.41,-3.23,-3.66,1.22,1.22,1.20
224.45,4.60,3.41,4.60,3.41,-3.40,-3.23,-3.71,1.20,1.19,1.19
226.70,4.56,3.40,4.57,3.40,-3.40,-3.23,-3.75,1.16,1.17,1.16
228.96,4.54,3.39,4.54,3.39,-3.40,-3.23,-3.80,1.14,1.14,1.15
231.25,4.53,3.40,4.53,3.39,-3.41,-3.23,-3.84,1.12,1.11,1.13
233.57,4.52,3.41,4.52,3.41,-3.42,-3.23,-3.87,1.10,1.10,1.11
235.90,4.52,3.42,4.53,3.43,-3.44,-3.23,-3.90,1.08,1.09,1.10
238.26,4.54,3.47,4.54,3.45,-3.45,-3.23,-3.93,1.09,1.09,1.07
240.64,4.55,3.47,4.55,3.48,-3.47,-3.22,-3.95,1.08,1.08,1.08
243.05,4.56,3.50,4.56,3.49,-3.48,-3.22,-3.97,1.08,1.08,1.06
245.48,4.55,3.50,4.55,3.50,-3.48,-3.21,-3.98,1.07,1.07,1.05
247.93,4.54,3.50,4.54,3.49,-3.48,-3.21,-3.98,1.06,1.05,1.04
250.41,4.52,3.47,4.52,3.48,-3.48,-3.20,-3.98,1.04,1.04,1.05
252.92,4.50,3.46,4.50,3.46,-3.46,-3.20,-3.97,1.04,1.04,1.04
255.45,4.48,3.45,4.48,3.44,-3.44,-3.19,-3.96,1.04,1.04,1.03
258.00,4.45,3.42,4.45,3.42,-3.41,-3.18,-3.94,1.04,1.04,1.03
260.58,4.42,3.39,4.42,3.38,-3.38,-3.18,-3.92,1.04,1.03,1.03
263.19,4.38,3.35,4.38,3.35,-3.35,-3.17,-3.89,1.03,1.03,1.03
265.82,4.34,3.32,4.35,3.32,-3.32,-3.16,-3.85,1.02,1.02,1.02
268.48,4.32,3.30,4.31,3.29,-3.30,-3.15,-3.81,1.02,1.02,1.02
271.16,4.29,3.27,4.29,3.26,-3.28,-3.14,-3.77,1.01,1.01,1.02
273.87,4.26,3.24,4.27,3.24,-3.26,-3.13,-3.72,1.00,1.01,1.02
276.61,4.25,3.23,4.25,3.23,-3.24,-3.11,-3.67,1.01,1.01,1.02
279.38,4.23,3.23,4.23,3.22,-3.22,-3.10,-3.62,1.01,1.01,1.00
282.17,4.22,3.22,4.22,3.21,-3.20,-3.09,-3.56,1.02,1.02,1.00
284.99,4.21,3.20,4.20,3.19,-3.19,-3.08,-3.50,1.02,1.02,1.01
287.84,4.18,3.16,4.18,3.17,-3.16,-3.06,-3.43,1.02,1.02,1.02
290.72,4.16,3.15,4.16,3.14,-3.14,-3.05,-3.37,1.02,1.02,1.01
293.63,4.14,3.12,4.14,3.11,-3.11,-3.03,-3.30,1.03,1.03,1.02
296.57,4.11,3.08,4.11,3.08,-3.08,-3.02,-3.24,1.03,1.03,1.03
299.53,4.08,3.05,4.08,3.04,-3.04,-3.00,-3.17,1.04,1.04,1.03
302.53,4.05,3.00,4.05,3.00,-3.00,-2.98,-3.10,1.05,1.04,1.05
305.55,4.01,2.97,4.01,2.96,-2.97,-2.96,-3.04,1.04,1.05,1.04
308.61,3.98,2.93,3.98,2.92,-2.93,-2.95,-2.97,1.05,1.05,1.05
311.69,3.94,2.88,3.95,2.89,-2.89,-2.93,-2.90,1.05,1.06,1.06
314.81,3.93,2.87,3.93,2.86,-2.86,-2.91,-2.83,1.07,1.07,1.06
317.96,3.91,2.84,3.91,2.83,-2.83,-2.89,-2.77,1.08,1.07,1.07
321.14,3.89,2.81,3.89,2.81,-2.81,-2.87,-2.70,1.08,1.08,1.08
324.35,3.87,2.79,3.88,2.78,-2.80,-2.85,-2.64,1.07,1.08,1.08
327.59,3.87,2.76,3.87,2.77,-2.79,-2.82,-2.58,1.08,1.09,1.11
330.87,3.88,2.78,3.88,2.77,-2.78,-2.80,-2.52,1.10,1.10,1.10
334.18,3.89,2.78,3.89,2.78,-2.78,-2.78,-2.46,1.11,1.11,1.11
337.52,3.90,2.79,3.90,2.78,-2.77,-2.75,-2.40,1.13,1.13,1.11
340.90,3.91,2.78,3.91,2.78,-2.77,-2.73,-2.35,1.14,1.14,1.13
344.30,3.91,2.77,3.91,2.78,-2.77,-2.70,-2.29,1.14,1.14,1.14
347.75,3.91,2.77,3.91,2.76,-2.76,-2.68,-2.24,1.15,1.15,1.14
351.23,3.90,2.76,3.90,2.75,-2.74,-2.65,-2.19,1.16,1.16,1.14
354.74,3.89,2.72,3.89,2.73,-2.72,-2.62,-2.14,1.17,1.16,1.17
358.28,3.86,2.70,3.86,2.70,-2.69,-2.60,-2.09,1.17,1.17,1.16
361.87,3.84,2.67,3.84,2.66,-2.66,-2.57,-2.04,1.18,1.18,1.17
365.49,3.81,2.63,3.81,2.63,-2.63,-2.54,-2.00,1.18,1.18,1.18
369.14,3.78,2.58,3.78,2.58,-2.59,-2.51,-1.96,1.19,1.19,1.20
372.83,3.75,2.55,3.75,2.55,-2.55,-2.48,-1.92,1.20,1.20,1.20
376.56,3.71,2.51,3.72,2.51,-2.51,-2.45,-1.88,1.20,1.20,1.20
380.33,3.69,2.48,3.69,2.47,-2.47,-2.42,-1.84,1.22,1.21,1.21
384.13,3.66,2.43,3.66,2.44,-2.43,-2.38,-1.80,1.23,1.23,1.23
387.97,3.64,2.41,3.64,2.40,-2.40,-2.35,-1.77,1.24,1.24,1.23
391.85,3.61,2.37,3.61,2.37,-2.36,-2.32,-1.74,1.25,1.25,1.24
395.77,3.58,2.33,3.58,2.32,-2.32,-2.28,-1.70,1.26,1.25,1.25
399.73,3.54,2.28,3.55,2.28,-2.29,-2.25,-1.67,1.25,1.26,1.26
403.72,3.52,2.23,3.52,2.24,-2.26,-2.21,-1.64,1.26,1.26,1.29
407.76,3.50,2.22,3.50,2.21,-2.22,-2.17,-1.61,1.28,1.28,1.28
411.84,3.48,2.19,3.48,2.18,-2.18,-2.13,-1.59,1.30,1.30,1.29
415.96,3.46,2.15,3.46,2.15,-2.14,-2.10,-1.56,1.32,1.32,1.31
420.12,3.43,2.12,3.42,2.11,-2.09,-2.06,-1.53,1.34,1.33,1.31
424.32,3.38,2.06,3.38,2.05,-2.05,-2.02,-1.51,1.33,1.34,1.32
428.56,3.33,1.99,3.33,1.99,-2.00,-1.97,-1.48,1.33,1.33,1.34
432.85,3.28,1.93,3.28,1.93,-1.94,-1.93,-1.46,1.34,1.33,1.35
437.18,3.23,1.89,3.23,1.88,-1.89,-1.89,-1.43,1.34,1.34,1.34
441.55,3.18,1.83,3.18,1.83,-1.83,-1.85,-1.41,1.35,1.35,1.35
445.96,3.14,1.78,3.14,1.77,-1.77,-1.80,-1.39,1.37,1.36,1.36
450.42,3.09,1.72,3.09,1.72,-1.71,-1.76,-1.36,1.38,1.38,1.37
454.93,3.04,1.66,3.04,1.66,-1.66,-1.71,-1.34,1.38,1.39,1.38
459.48,3.00,1.61,3.00,1.60,-1.60,-1.66,-1.31,1.40,1.40,1.39
464.07,2.95,1.54,2.95,1.54,-1.55,-1.61,-1.29,1.40,1.40,1.41
468.71,2.91,1.49,2.91,1.49,-1.49,-1.56,-1.26,1.42,1.41,1.42
473.40,2.86,1.44,2.86,1.44,-1.44,-1.51,-1.23,1.42,1.42,1.42
478.13,2.82,1.39,2.82,1.39,-1.39,-1.46,-1.21,1.43,1.43,1.43
482.91,2.78,1.34,2.78,1.34,-1.34,-1.41,-1.18,1.44,1.44,1.44
487.74,2.74,1.29,2.74,1.29,-1.29,-1.36,-1.15,1.45,1.45,1.45
492.62,2.70,1.24,2.70,1.24,-1.24,-1.30,-1.12,1.46,1.46,1.46
497.55,2.66,1.19,2.66,1.19,-1.18,-1.25,-1.09,1.48,1.48,1.47
502.52,2.62,1.14,2.62,1.14,-1.13,-1.19,-1.05,1.49,1.49,1.48
507.55,2.58,1.08,2.58,1.08,-1.07,-1.13,-1.02,1.51,1.51,1.50
512.62,2.54,1.03,2.53,1.02,-1.02,-1.07,-0.98,1.52,1.52,1.51
517.75,2.48,0.95,2.48,0.95,-0.96,-1.01,-0.95,1.52,1.52,1.53
522.93,2.43,0.89,2.43,0.89,-0.90,-0.95,-0.91,1.53,1.53,1.54
528.16,2.38,0.83,2.39,0.83,-0.84,-0.89,-0.87,1.54,1.54,1.55
533.44,2.35,0.79,2.34,0.78,-0.78,-0.83,-0.83,1.57,1.57,1.56
538.77,2.30,0.73,2.30,0.73,-0.72,-0.76,-0.79,1.58,1.59,1.57
544.16,2.25,0.67,2.25,0.67,-0.65,-0.70,-0.75,1.60,1.60,1.58
549.60,2.19,0.60,2.19,0.59,-0.59,-0.63,-0.70,1.60,1.60,1.59
555.10,2.12,0.51,2.13,0.52,-0.52,-0.56,-0.66,1.60,1.60,1.61
560.65,2.06,0.44,2.06,0.44,-0.45,-0.49,-0.61,1.61,1.61,1.62
