frequency,raw,error,smoothed,error_smoothed,equalization,parametric_eq,fixed_band_eq,equalized_raw,equalized_smoothed,target
20.00,-17.14,-16.10,-17.14,-16.12,16.12,16.30,6.82,-1.02,-1.02,-1.04
20.20,-17.03,-16.08,-17.03,-16.09,16.09,16.22,6.98,-0.94,-0.94,-0.95
20.40,-16.92,-16.04,-16.92,-16.05,16.05,16.15,7.14,-0.86,-0.87,-0.87
20.61,-16.82,-16.01,-16.81,-16.02,16.02,16.08,7.31,-0.80,-0.80,-0.80
20.81,-16.71,-15.99,-16.71,-15.98,15.98,16.01,7.47,-0.73,-0.73,-0.71
21.02,-16.60,-15.96,-16.60,-15.94,15.94,15.94,7.65,-0.66,-0.66,-0.63
21.23,-16.49,-15.91,-16.49,-15.89,15.89,15.86,7.83,-0.59,-0.60,-0.57
21.44,-16.39,-15.87,-16.38,-15.85,15.85,15.79,8.01,-0.54,-0.54,-0.51
21.66,-16.28,-15.81,-16.28,-15.80,15.80,15.72,8.20,-0.48,-0.48,-0.47
21.87,-16.17,-15.75,-16.17,-15.74,15.74,15.65,8.39,-0.42,-0.42,-0.42
22.09,-16.06,-15.69,-16.06,-15.69,15.69,15.58,8.59,-0.37,-0.37,-0.37
22.31,-15.96,-15.64,-15.95,-15.63,15.63,15.52,8.79,-0.32,-0.32,-0.32
22.54,-15.85,-15.57,-15.85,-15.57,15.57,15.45,9.00,-0.28,-0.28,-0.28
22.76,-15.74,-15.50,-15.74,-15.50,15.50,15.38,9.21,-0.23,-0.24,-0.24
22.99,-15.63,-15.42,-15.63,-15.43,15.43,15.31,9.43,-0.19,-0.20,-0.21
23.22,-15.53,-15.36,-15.52,-15.36,15.36,15.24,9.66,-0.16,-0.16,-0.17
23.45,-15.42,-15.29,-15.42,-15.29,15.29,15.18,9.89,-0.12,-0.12,-0.13
23.69,-15.31,-15.22,-15.31,-15.22,15.22,15.11,10.13,-0.09,-0.09,-0.09
23.92,-15.20,-15.14,-15.20,-15.15,15.15,15.04,10.37,-0.05,-0.05,-0.05
24.16,-15.10,-15.09,-15.09,-15.08,15.08,14.97,10.62,-0.02,-0.01,-0.00
24.40,-14.99,-15.01,-14.98,-15.00,15.00,14.91,10.88,0.02,0.02,0.03
24.65,-14.88,-14.93,-14.88,-14.93,14.93,14.84,11.15,0.05,0.05,0.05
24.89,-14.77,-14.85,-14.77,-14.85,14.85,14.78,11.42,0.09,0.09,0.08
25.14,-14.66,-14.78,-14.66,-14.78,14.78,14.71,11.69,0.12,0.12,0.12
25.39,-14.55,-14.70,-14.55,-14.71,14.71,14.64,11.98,0.16,0.15,0.15
25.65,-14.45,-14.64,-14.44,-14.63,14.63,14.58,12.27,0.18,0.19,0.19
25.91,-14.34,-14.55,-14.34,-14.55,14.55,14.51,12.56,0.21,0.22,0.21
26.16,-14.23,-14.46,-14.23,-14.48,14.48,14.44,12.86,0.25,0.25,0.24
26.43,-14.13,-14.41,-14.12,-14.40,14.40,14.38,13.17,0.27,0.28,0.28
26.69,-14.02,-14.32,-14.02,-14.32,14.32,14.31,13.48,0.31,0.31,0.31
26.96,-13.92,-14.25,-13.91,-14.25,14.25,14.25,13.79,0.33,0.34,0.33
27.23,-13.81,-14.18,-13.81,-14.17,14.17,14.18,14.11,0.36,0.37,0.37
27.50,-13.71,-14.11,-13.70,-14.10,14.10,14.12,14.42,0.39,0.40,0.40
27.77,-13.60,-14.02,-13.60,-14.03,14.03,14.05,14.74,0.43,0.43,0.42
28.05,-13.50,-13.96,-13.50,-13.95,13.95,13.98,15.05,0.46,0.45,0.46
28.33,-13.40,-13.87,-13.40,-13.88,13.88,13.92,15.36,0.48,0.48,0.48
28.62,-13.30,-13.80,-13.29,-13.81,13.81,13.85,15.65,0.51,0.51,0.50
28.90,-13.19,-13.73,-13.19,-13.74,13.74,13.78,15.93,0.55,0.54,0.54
29.19,-13.10,-13.66,-13.09,-13.67,13.67,13.72,16.20,0.57,0.57,0.56
29.48,-13.00,-13.61,-13.00,-13.59,13.59,13.65,16.44,0.60,0.60,0.61
29.78,-12.90,-13.53,-12.90,-13.52,13.52,13.59,16.66,0.63,0.63,0.63
30.08,-12.81,-13.46,-12.80,-13.46,13.46,13.52,16.85,0.65,0.65,0.66
30.38,-12.71,-13.39,-12.71,-13.39,13.39,13.45,17.00,0.68,0.68,0.68
30.68,-12.61,-13.32,-12.61,-13.32,13.32,13.38,17.12,0.71,0.71,0.71
30.99,-12.51,-13.24,-12.52,-13.26,13.26,13.32,17.19,0.75,0.73,0.73
31.30,-12.43,-13.18,-12.43,-13.19,13.19,13.25,17.22,0.76,0.76,0.76
31.61,-12.34,-13.12,-12.34,-13.12,13.12,13.18,17.21,0.78,0.78,0.78
31.93,-12.25,-13.05,-12.25,-13.06,13.06,13.11,17.16,0.81,0.81,0.80
32.24,-12.17,-12.99,-12.16,-12.99,12.99,13.05,17.07,0.82,0.83,0.82
32.57,-12.08,-12.92,-12.07,-12.92,12.92,12.98,16.94,0.84,0.85,0.85
32.89,-12.00,-12.87,-11.99,-12.86,12.86,12.91,16.78,0.86,0.87,0.87
33.22,-11.91,-12.80,-11.90,-12.79,12.79,12.84,16.60,0.88,0.89,0.89
33.55,-11.83,-12.73,-11.82,-12.72,12.72,12.77,16.39,0.90,0.90,0.91
33.89,-11.74,-12.65,-11.74,-12.66,12.66,12.70,16.16,0.92,0.92,0.91
34.23,-11.65,-12.59,-11.66,-12.59,12.59,12.64,15.93,0.94,0.93,0.94
34.57,-11.57,-12.51,-11.58,-12.52,12.52,12.57,15.68,0.95,0.94,0.95
34.92,-11.49,-12.44,-11.49,-12.45,12.45,12.50,15.42,0.96,0.95,0.95
35.27,-11.41,-12.38,-11.41,-12.38,12.38,12.43,15.16,0.97,0.96,0.97
35.62,-11.34,-12.30,-11.33,-12.31,12.31,12.36,14.90,0.97,0.97,0.97
35.97,-11.27,-12.24,-11.26,-12.23,12.23,12.29,14.64,0.97,0.98,0.97
36.33,-11.19,-12.17,-11.18,-12.16,12.16,12.22,14.38,0.97,0.98,0.99
36.70,-11.11,-12.09,-11.10,-12.08,12.08,12.15,14.13,0.98,0.98,0.98
37.06,-11.04,-12.02,-11.03,-12.01,12.01,12.07,13.88,0.97,0.98,0.98
37.43,-10.96,-11.94,-10.96,-11.94,11.94,12.00,13.64,0.98,0.98,0.98
37.81,-10.88,-11.86,-10.89,-11.86,11.86,11.93,13.40,0.99,0.98,0.98
38.19,-10.81,-11.78,-10.81,-11.79,11.79,11.86,13.17,0.98,0.98,0.97
38.57,-10.74,-11.72,-10.75,-11.72,11.72,11.79,12.95,0.98,0.97,0.98
38.95,-10.68,-11.65,-10.68,-11.65,11.65,11.72,12.73,0.97,0.97,0.97
39.34,-10.61,-11.56,-10.61,-11.57,11.57,11.65,12.53,0.97,0.96,0.96
39.74,-10.55,-11.50,-10.55,-11.50,11.50,11.57,12.33,0.96,0.96,0.95
40.14,-10.49,-11.43,-10.49,-11.44,11.44,11.50,12.14,0.95,0.95,0.94
40.54,-10.43,-11.37,-10.43,-11.37,11.37,11.43,11.95,0.94,0.94,0.94
40.94,-10.37,-11.30,-10.37,-11.30,11.30,11.36,11.78,0.93,0.93,0.93
41.35,-10.31,-11.23,-10.31,-11.23,11.23,11.28,11.61,0.93,0.92,0.92
41.76,-10.25,-11.16,-10.25,-11.17,11.17,11.21,11.45,0.92,0.91,0.92
42.18,-10.20,-11.11,-10.20,-11.10,11.10,11.14,11.30,0.90,0.90,0.91
42.60,-10.15,-11.04,-10.14,-11.03,11.03,11.06,11.15,0.89,0.89,0.89
43.03,-10.10,-10.99,-10.09,-10.97,10.97,10.99,11.01,0.87,0.88,0.89
43.46,-10.04,-10.91,-10.03,-10.90,10.90,10.92,10.88,0.86,0.87,0.88
43.90,-9.98,-10.83,-9.98,-10.84,10.84,10.84,10.76,0.86,0.86,0.86
44.33,-9.93,-10.76,-9.93,-10.77,10.77,10.77,10.64,0.84,0.84,0.84
44.78,-9.87,-10.70,-9.87,-10.71,10.71,10.69,10.54,0.84,0.83,0.83
45.23,-9.82,-10.63,-9.82,-10.64,10.64,10.62,10.43,0.83,0.82,0.81
45.68,-9.77,-10.57,-9.77,-10.58,10.58,10.55,10.34,0.81,0.81,0.80
46.13,-9.73,-10.52,-9.73,-10.52,10.52,10.47,10.25,0.79,0.79,0.79
46.60,-9.68,-10.46,-9.68,-10.46,10.46,10.40,10.17,0.78,0.78,0.79
47.06,-9.63,-10.40,-9.63,-10.40,10.40,10.32,10.09,0.77,0.77,0.78
47.53,-9.58,-10.34,-9.58,-10.34,10.34,10.25,10.02,0.76,0.76,0.76
48.01,-9.53,-10.29,-9.54,-10.28,10.28,10.17,9.95,0.76,0.75,0.76
48.49,-9.49,-10.24,-9.49,-10.23,10.23,10.10,9.89,0.74,0.74,0.75
48.97,-9.45,-10.18,-9.44,-10.18,10.18,10.02,9.84,0.73,0.73,0.74
49.46,-9.41,-10.12,-9.40,-10.12,10.12,9.95,9.79,0.72,0.73,0.71
49.96,-9.36,-10.06,-9.35,-10.07,10.07,9.87,9.74,0.71,0.72,0.70
50.46,-9.31,-10.01,-9.30,-10.02,10.02,9.80,9.70,0.71,0.71,0.70
50.96,-9.26,-9.97,-9.26,-9.96,9.96,9.72,9.66,0.71,0.71,0.71
51.47,-9.21,-9.90,-9.21,-9.91,9.91,9.65,9.63,0.70,0.70,0.69
51.99,-9.16,-9.85,-9.16,-9.85,9.85,9.57,9.60,0.69,0.69,0.69
52.51,-9.11,-9.80,-9.11,-9.80,9.80,9.50,9.57,0.69,0.69,0.69
53.03,-9.07,-9.75,-9.06,-9.74,9.74,9.42,9.54,0.67,0.68,0.69
53.56,-9.01,-9.68,-9.01,-9.68,9.68,9.35,9.52,0.67,0.67,0.68
54.10,-8.96,-9.63,-8.96,-9.62,9.62,9.27,9.49,0.66,0.66,0.67
54.64,-8.91,-9.56,-8.91,-9.56,9.56,9.20,9.47,0.65,0.65,0.65
55.18,-8.86,-9.50,-8.86,-9.50,9.50,9.12,9.44,0.64,0.64,0.64
55.74,-8.81,-9.43,-8.81,-9.44,9.44,9.05,9.42,0.63,0.63,0.62
56.29,-8.76,-9.37,-8.76,-9.37,9.37,8.97,9.39,0.61,0.61,0.61
56.86,-8.71,-9.30,-8.71,-9.30,9.30,8.90,9.37,0.59,0.59,0.59
57.42,-8.66,-9.22,-8.66,-9.23,9.23,8.83,9.33,0.58,0.57,0.57
58.00,-8.61,-9.16,-8.61,-9.16,9.16,8.75,9.30,0.55,0.55,0.55
58.58,-8.56,-9.09,-8.56,-9.08,9.08,8.68,9.26,0.53,0.53,0.53
59.16,-8.51,-9.02,-8.50,-9.00,9.00,8.60,9.22,0.50,0.50,0.52
59.76,-8.45,-8.94,-8.45,-8.93,8.93,8.53,9.17,0.48,0.47,0.49
60.35,-8.40,-8.85,-8.40,-8.84,8.84,8.45,9.12,0.45,0.45,0.45
60.96,-8.35,-8.79,-8.34,-8.76,8.76,8.38,9.07,0.41,0.42,0.44
61.57,-8.30,-8.69,-8.29,-8.68,8.68,8.31,9.00,0.38,0.39,0.39
62.18,-8.24,-8.59,-8.23,-8.60,8.60,8.23,8.93,0.36,0.36,0.35
62.80,-8.18,-8.51,-8.18,-8.51,8.51,8.16,8.86,0.34,0.34,0.33
63.43,-8.12,-8.41,-8.12,-8.43,8.43,8.09,8.77,0.31,0.31,0.29
64.07,-8.05,-8.32,-8.06,-8.35,8.35,8.01,8.68,0.30,0.28,0.27
64.71,-8.00,-8.25,-8.01,-8.27,8.27,7.94,8.59,0.27,0.26,0.25
65.35,-7.95,-8.17,-7.95,-8.18,8.18,7.87,8.49,0.24,0.24,0.23
66.01,-7.89,-8.10,-7.89,-8.11,8.11,7.79,8.38,0.22,0.22,0.21
66.67,-7.84,-8.04,-7.83,-8.03,8.03,7.72,8.27,0.19,0.20,0.20
67.33,-7.78,-7.96,-7.77,-7.95,7.95,7.65,8.15,0.17,0.18,0.18
68.01,-7.72,-7.88,-7.71,-7.87,7.87,7.58,8.03,0.16,0.17,0.17
68.69,-7.66,-7.81,-7.65,-7.80,7.80,7.50,7.91,0.14,0.15,0.15
69.37,-7.59,-7.73,-7.59,-7.73,7.73,7.43,7.78,0.14,0.14,0.14
70.07,-7.52,-7.64,-7.53,-7.65,7.65,7.36,7.65,0.13,0.12,0.12
70.77,-7.46,-7.58,-7.46,-7.57,7.57,7.29,7.51,0.11,0.11,0.12
71.48,-7.40,-7.50,-7.40,-7.49,7.49,7.22,7.38,0.10,0.09,0.10
72.19,-7.33,-7.41,-7.34,-7.41,7.41,7.15,7.24,0.08,0.08,0.08
72.91,-7.28,-7.34,-7.27,-7.33,7.33,7.08,7.10,0.05,0.06,0.06
73.64,-7.21,-7.25,-7.21,-7.25,7.25,7.01,6.96,0.04,0.04,0.04
74.38,-7.14,-7.16,-7.14,-7.16,7.16,6.94,6.83,0.02,0.02,0.03
75.12,-7.08,-7.08,-7.08,-7.08,7.08,6.87,6.69,0.00,-0.00,-0.00
75.87,-7.02,-7.00,-7.01,-6.99,6.99,6.80,6.55,-0.02,-0.02,-0.02
76.63,-6.95,-6.91,-6.95,-6.91,6.91,6.73,6.42,-0.04,-0.04,-0.04
77.40,-6.88,-6.81,-6.88,-6.82,6.82,6.66,6.28,-0.06,-0.06,-0.07
78.17,-6.82,-6.72,-6.81,-6.73,6.73,6.59,6.15,-0.08,-0.08,-0.09
78.95,-6.75,-6.65,-6.74,-6.65,6.65,6.52,6.02,-0.10,-0.10,-0.10
79.74,-6.68,-6.56,-6.68,-6.56,6.56,6.45,5.89,-0.12,-0.12,-0.12
80.54,-6.61,-6.47,-6.61,-6.47,6.47,6.39,5.77,-0.13,-0.13,-0.14
81.35,-6.54,-6.38,-6.53,-6.39,6.39,6.32,5.64,-0.15,-0.15,-0.15
82.16,-6.46,-6.29,-6.46,-6.30,6.30,6.25,5.52,-0.16,-0.16,-0.17
82.98,-6.39,-6.21,-6.39,-6.22,6.22,6.18,5.40,-0.17,-0.17,-0.17
83.81,-6.32,-6.13,-6.31,-6.13,6.13,6.12,5.29,-0.19,-0.18,-0.19
84.65,-6.24,-6.03,-6.24,-6.04,6.04,6.05,5.18,-0.20,-0.20,-0.21
85.50,-6.17,-5.96,-6.16,-5.95,5.95,5.99,5.07,-0.22,-0.21,-0.21
86.35,-6.09,-5.87,-6.08,-5.86,5.86,5.92,4.96,-0.22,-0.22,-0.22
87.22,-6.01,-5.77,-6.01,-5.78,5.78,5.86,4.86,-0.23,-0.23,-0.24
88.09,-5.94,-5.69,-5.93,-5.68,5.68,5.79,4.76,-0.25,-0.25,-0.25
88.97,-5.86,-5.60,-5.86,-5.59,5.59,5.73,4.66,-0.27,-0.27,-0.26
89.86,-5.78,-5.50,-5.78,-5.50,5.50,5.66,4.57,-0.28,-0.29,-0.28
90.76,-5.71,-5.40,-5.71,-5.40,5.40,5.60,4.48,-0.31,-0.31,-0.31
91.66,-5.64,-5.30,-5.64,-5.30,5.30,5.53,4.39,-0.34,-0.34,-0.33
92.58,-5.56,-5.18,-5.57,-5.19,5.19,5.47,4.30,-0.36,-0.38,-0.38
93.51,-5.49,-5.09,-5.50,-5.08,5.08,5.41,4.22,-0.40,-0.41,-0.40
94.44,-5.44,-4.99,-5.43,-4.97,4.97,5.35,4.14,-0.46,-0.46,-0.45
95.39,-5.38,-4.89,-5.37,-4.86,4.86,5.29,4.07,-0.52,-0.51,-0.49
96.34,-5.32,-4.77,-5.31,-4.75,4.75,5.22,3.99,-0.57,-0.56,-0.55
97.30,-5.25,-4.63,-5.25,-4.63,4.63,5.16,3.92,-0.62,-0.61,-0.61
98.28,-5.20,-4.53,-5.19,-4.51,4.51,5.10,3.85,-0.68,-0.67,-0.67
99.26,-5.14,-4.40,-5.14,-4.40,4.40,5.04,3.79,-0.74,-0.74,-0.74
100.25,-5.07,-4.26,-5.08,-4.28,4.28,4.98,3.72,-0.79,-0.80,-0.80
101.25,-5.02,-4.15,-5.04,-4.17,4.17,4.92,3.66,-0.85,-0.87,-0.87
102.27,-4.98,-4.04,-4.99,-4.05,4.05,4.86,3.60,-0.93,-0.94,-0.94
103.29,-4.96,-3.94,-4.95,-3.94,3.94,4.81,3.55,-1.02,-1.01,-1.02
104.32,-4.93,-3.85,-4.91,-3.83,3.83,4.75,3.49,-1.09,-1.08,-1.08
105.37,-4.89,-3.73,-4.88,-3.73,3.73,4.69,3.44,-1.16,-1.15,-1.15
106.42,-4.85,-3.63,-4.85,-3.64,3.64,4.63,3.39,-1.21,-1.22,-1.22
107.48,-4.82,-3.53,-4.83,-3.55,3.55,4.58,3.34,-1.27,-1.29,-1.29
108.56,-4.80,-3.44,-4.82,-3.46,3.46,4.52,3.29,-1.33,-1.35,-1.36
109.64,-4.79,-3.36,-4.81,-3.39,3.39,4.46,3.25,-1.40,-1.42,-1.42
110.74,-4.77,-3.29,-4.80,-3.31,3.31,4.41,3.20,-1.46,-1.48,-1.48
111.85,-4.77,-3.23,-4.79,-3.24,3.24,4.35,3.16,-1.53,-1.55,-1.54
112.97,-4.77,-3.15,-4.78,-3.17,3.17,4.30,3.12,-1.60,-1.61,-1.62
114.10,-4.79,-3.13,-4.77,-3.10,3.10,4.24,3.08,-1.68,-1.67,-1.66
115.24,-4.79,-3.06,-4.76,-3.04,3.04,4.19,3.04,-1.75,-1.72,-1.73
116.39,-4.78,-2.99,-4.75,-2.98,2.98,4.14,3.00,-1.80,-1.77,-1.78
117.55,-4.77,-2.94,-4.74,-2.91,2.91,4.08,2.97,-1.85,-1.82,-1.83
118.73,-4.75,-2.86,-4.72,-2.85,2.85,4.03,2.93,-1.90,-1.87,-1.88
119.92,-4.71,-2.79,-4.70,-2.78,2.78,3.98,2.89,-1.93,-1.92,-1.92
121.12,-4.68,-2.72,-4.67,-2.71,2.71,3.93,2.86,-1.96,-1.96,-1.96
122.33,-4.66,-2.65,-4.64,-2.64,2.64,3.88,2.83,-2.02,-2.00,-2.01
123.55,-4.63,-2.59,-4.61,-2.57,2.57,3.83,2.79,-2.06,-2.04,-2.04
124.79,-4.59,-2.51,-4.58,-2.50,2.50,3.78,2.76,-2.09,-2.08,-2.08
126.03,-4.55,-2.44,-4.55,-2.43,2.43,3.73,2.73,-2.12,-2.12,-2.11
127.29,-4.53,-2.38,-4.52,-2.36,2.36,3.68,2.70,-2.17,-2.16,-2.15
128.57,-4.50,-2.30,-4.49,-2.30,2.30,3.63,2.67,-2.20,-2.20,-2.20
129.85,-4.45,-2.22,-4.47,-2.24,2.24,3.58,2.64,-2.21,-2.23,-2.23
131.15,-4.42,-2.15,-4.46,-2.19,2.19,3.54,2.61,-2.23,-2.27,-2.27
132.46,-4.41,-2.09,-4.45,-2.14,2.14,3.49,2.58,-2.27,-2.31,-2.32
133.79,-4.42,-2.07,-4.45,-2.10,2.10,3.44,2.55,-2.32,-2.35,-2.34
135.12,-4.44,-2.05,-4.46,-2.07,2.07,3.40,2.52,-2.37,-2.39,-2.39
136.48,-4.46,-2.03,-4.47,-2.04,2.04,3.35,2.50,-2.42,-2.43,-2.42
137.84,-4.50,-2.03,-4.48,-2.01,2.01,3.31,2.47,-2.49,-2.47,-2.47
139.22,-4.52,-2.00,-4.50,-1.99,1.99,3.26,2.45,-2.53,-2.51,-2.52
140.61,-4.55,-1.98,-4.53,-1.97,1.97,3.22,2.42,-2.57,-2.56,-2.56
142.02,-4.59,-1.99,-4.56,-1.96,1.96,3.17,2.40,-2.62,-2.60,-2.60
143.44,-4.60,-1.96,-4.60,-1.95,1.95,3.13,2.38,-2.64,-2.64,-2.64
144.87,-4.64,-1.95,-4.63,-1.95,1.95,3.09,2.36,-2.69,-2.68,-2.68
146.32,-4.67,-1.93,-4.67,-1.94,1.94,3.05,2.33,-2.73,-2.73,-2.73
147.78,-4.71,-1.94,-4.70,-1.93,1.93,3.01,2.32,-2.78,-2.77,-2.77
149.26,-4.75,-1.93,-4.74,-1.92,1.92,2.97,2.30,-2.83,-2.82,-2.82
150.75,-4.78,-1.91,-4.78,-1.91,1.91,2.93,2.28,-2.87,-2.87,-2.87
152.26,-4.82,-1.90,-4.82,-1.90,1.90,2.89,2.26,-2.92,-2.92,-2.92
153.78,-4.87,-1.91,-4.86,-1.89,1.89,2.85,2.25,-2.97,-2.97,-2.96
155.32,-4.91,-1.90,-4.91,-1.89,1.89,2.81,2.24,-3.01,-3.02,-3.01
156.88,-4.96,-1.90,-4.96,-1.89,1.89,2.77,2.22,-3.07,-3.07,-3.05
158.44,-4.99,-1.87,-5.01,-1.89,1.89,2.73,2.21,-3.09,-3.12,-3.11
160.03,-5.05,-1.88,-5.07,-1.90,1.90,2.70,2.21,-3.15,-3.17,-3.16
161.63,-5.11,-1.88,-5.12,-1.91,1.91,2.66,2.20,-3.20,-3.21,-3.22
163.24,-5.16,-1.89,-5.19,-1.92,1.92,2.62,2.19,-3.24,-3.26,-3.27
164.88,-5.26,-1.94,-5.25,-1.93,1.93,2.59,2.19,-3.32,-3.31,-3.32
166.53,-5.32,-1.95,-5.31,-1.95,1.95,2.55,2.18,-3.37,-3.36,-3.36
168.19,-5.38,-1.97,-5.38,-1.97,1.97,2.52,2.18,-3.41,-3.41,-3.41
169.87,-5.46,-2.01,-5.44,-1.99,1.99,2.49,2.18,-3.47,-3.45,-3.45
171.57,-5.52,-2.02,-5.51,-2.01,2.01,2.45,2.18,-3.51,-3.50,-3.49
173.29,-5.57,-2.03,-5.57,-2.03,2.03,2.42,2.19,-3.54,-3.54,-3.54
175.02,-5.65,-2.07,-5.63,-2.05,2.05,2.39,2.19,-3.59,-3.58,-3.58
176.77,-5.71,-2.09,-5.69,-2.08,2.08,2.36,2.20,-3.63,-3.61,-3.62
178.54,-5.77,-2.11,-5.75,-2.10,2.10,2.33,2.21,-3.66,-3.65,-3.66
180.32,-5.81,-2.12,-5.81,-2.13,2.13,2.30,2.21,-3.68,-3.68,-3.69
182.13,-5.85,-2.13,-5.86,-2.15,2.15,2.27,2.23,-3.70,-3.71,-3.71
183.95,-5.91,-2.17,-5.91,-2.17,2.17,2.24,2.24,-3.74,-3.74,-3.74
185.79,-5.95,-2.18,-5.96,-2.19,2.19,2.22,2.25,-3.75,-3.76,-3.77
187.65,-6.00,-2.21,-6.01,-2.22,2.22,2.19,2.27,-3.78,-3.79,-3.79
189.52,-6.05,-2.24,-6.05,-2.24,2.24,2.16,2.28,-3.81,-3.81,-3.81
191.42,-6.09,-2.26,-6.09,-2.27,2.27,2.14,2.30,-3.82,-3.83,-3.83
193.33,-6.13,-2.28,-6.14,-2.29,2.29,2.11,2.32,-3.84,-3.85,-3.84
195.27,-6.18,-2.32,-6.18,-2.31,2.31,2.09,2.34,-3.87,-3.87,-3.86
197.22,-6.22,-2.34,-6.22,-2.33,2.33,2.07,2.36,-3.88,-3.88,-3.88
199.19,-6.26,-2.35,-6.25,-2.35,2.35,2.04,2.38,-3.90,-3.90,-3.91
201.18,-6.30,-2.38,-6.29,-2.37,2.37,2.02,2.40,-3.93,-3.92,-3.92
203.19,-6.32,-2.39,-6.32,-2.38,2.38,2.00,2.43,-3.93,-3.93,-3.93
205.23,-6.34,-2.39,-6.34,-2.39,2.39,1.98,2.45,-3.94,-3.95,-3.95
207.28,-6.37,-2.41,-6.36,-2.40,2.40,1.96,2.47,-3.97,-3.96,-3.96
209.35,-6.39,-2.41,-6.38,-2.40,2.40,1.95,2.50,-3.99,-3.98,-3.97
211.44,-6.41,-2.41,-6.39,-2.40,2.40,1.93,2.52,-4.01,-3.99,-4.00
213.56,-6.42,-2.41,-6.40,-2.39,2.39,1.91,2.54,-4.02,-4.01,-4.01
215.69,-6.42,-2.40,-6.41,-2.39,2.39,1.90,2.57,-4.03,-4.02,-4.01
217.85,-6.42,-2.38,-6.41,-2.37,2.37,1.88,2.59,-4.04,-4.04,-4.04
220.03,-6.41,-2.35,-6.41,-2.36,2.36,1.87,2.61,-4.05,-4.05,-4.05
222.23,-6.40,-2.32,-6.41,-2.34,2.34,1.86,2.63,-4.05,-4.07,-4.08
224.45,-6.40,-2.31,-6.41,-2.33,2.33,1.85,2.65,-4.07,-4.08,-4.08
226.70,-6.40,-2.30,-6.41,-2.31,2.31,1.84,2.67,-4.09,-4.10,-4.10
228.96,-6.40,-2.29,-6.41,-2.29,2.29,1.83,2.68,-4.11,-4.12,-4.11
231.25,-6.40,-2.28,-6.40,-2.27,2.27,1.83,2.70,-4.13,-4.14,-4.12
233.57,-6.40,-2.25,-6.40,-2.25,2.25,1.82,2.71,-4.15,-4.15,-4.14
235.90,-6.40,-2.23,-6.40,-2.23,2.23,1.82,2.72,-4.17,-4.17,-4.17
238.26,-6.40,-2.21,-6.40,-2.21,2.21,1.81,2.72,-4.19,-4.19,-4.19
240.64,-6.40,-2.19,-6.40,-2.19,2.19,1.81,2.72,-4.20,-4.20,-4.21
243.05,-6.40,-2.18,-6.40,-2.18,2.18,1.82,2.72,-4.21,-4.21,-4.22
245.48,-6.40,-2.17,-6.40,-2.17,2.17,1.82,2.72,-4.23,-4.22,-4.23
247.93,-6.40,-2.16,-6.40,-2.16,2.16,1.82,2.71,-4.23,-4.23,-4.24
250.41,-6.40,-2.14,-6.40,-2.16,2.16,1.83,2.70,-4.24,-4.24,-4.26
252.92,-6.40,-2.15,-6.40,-2.15,2.15,1.84,2.69,-4.24,-4.24,-4.25
255.45,-6.40,-2.15,-6.40,-2.15,2.15,1.85,2.67,-4.25,-4.25,-4.25
258.00,-6.40,-2.15,-6.40,-2.15,2.15,1.86,2.65,-4.24,-4.24,-4.24
260.58,-6.40,-2.15,-6.40,-2.16,2.16,1.88,2.63,-4.24,-4.24,-4.24
263.19,-6.40,-2.17,-6.40,-2.17,2.17,1.90,2.60,-4.23,-4.23,-4.23
265.82,-6.40,-2.17,-6.40,-2.18,2.18,1.92,2.57,-4.22,-4.22,-4.23
268.48,-6.40,-2.19,-6.40,-2.19,2.19,1.94,2.54,-4.21,-4.21,-4.21
271.16,-6.40,-2.20,-6.40,-2.20,2.20,1.97,2.51,-4.20,-4.20,-4.19
273.87,-6.40,-2.22,-6.40,-2.21,2.21,1.99,2.47,-4.18,-4.18,-4.18
276.61,-6.40,-2.24,-6.40,-2.23,2.23,2.02,2.43,-4.17,-4.17,-4.16
279.38,-6.40,-2.25,-6.40,-2.24,2.24,2.06,2.39,-4.16,-4.15,-4.15
282.17,-6.40,-2.26,-6.40,-2.25,2.25,2.09,2.35,-4.14,-4.14,-4.14
284.99,-6.40,-2.27,-6.40,-2.27,2.27,2.13,2.30,-4.13,-4.13,-4.12
287.84,-6.40,-2.29,-6.40,-2.29,2.29,2.17,2.26,-4.11,-4.11,-4.11
290.72,-6.40,-2.31,-6.40,-2.31,2.31,2.21,2.21,-4.09,-4.09,-4.09
293.63,-6.40,-2.32,-6.40,-2.33,2.33,2.26,2.17,-4.07,-4.07,-4.08
296.57,-6.40,-2.34,-6.40,-2.35,2.35,2.30,2.12,-4.05,-4.06,-4.06
299.53,-6.40,-2.36,-6.41,-2.37,2.37,2.35,2.07,-4.03,-4.04,-4.04
302.53,-6.40,-2.36,-6.41,-2.39,2.39,2.40,2.02,-4.00,-4.02,-4.03
305.55,-6.40,-2.40,-6.41,-2.42,2.42,2.44,1.97,-3.98,-4.00,-4.00
308.61,-6.41,-2.42,-6.42,-2.44,2.44,2.49,1.92,-3.97,-3.98,-3.98
311.69,-6.42,-2.46,-6.42,-2.46,2.46,2.53,1.88,-3.96,-3.96,-3.96
314.81,-6.43,-2.51,-6.41,-2.48,2.48,2.57,1.83,-3.95,-3.94,-3.92
317.96,-6.42,-2.51,-6.41,-2.49,2.49,2.61,1.78,-3.92,-3.91,-3.91
321.14,-6.41,-2.52,-6.40,-2.51,2.51,2.64,1.74,-3.90,-3.89,-3.89
324.35,-6.39,-2.51,-6.39,-2.52,2.52,2.67,1.69,-3.87,-3.87,-3.87
327.59,-6.38,-2.53,-6.37,-2.53,2.53,2.69,1.64,-3.85,-3.85,-3.85
330.87,-6.37,-2.54,-6.35,-2.53,2.53,2.70,1.60,-3.84,-3.82,-3.83
334.18,-6.34,-2.53,-6.32,-2.52,2.52,2.70,1.56,-3.82,-3.80,-3.80
337.52,-6.29,-2.50,-6.29,-2.51,2.51,2.70,1.51,-3.78,-3.78,-3.79
340.90,-6.25,-2.49,-6.24,-2.49,2.49,2.68,1.47,-3.76,-3.76,-3.76
344.30,-6.21,-2.48,-6.20,-2.46,2.46,2.65,1.43,-3.74,-3.73,-3.73
347.75,-6.16,-2.44,-6.15,-2.44,2.44,2.62,1.39,-3.72,-3.71,-3.71
351.23,-6.10,-2.41,-6.09,-2.40,2.40,2.58,1.36,-3.69,-3.69,-3.69
354.74,-6.03,-2.37,-6.03,-2.37,2.37,2.52,1.32,-3.66,-3.66,-3.66
358.28,-5.96,-2.32,-5.96,-2.32,2.32,2.46,1.28,-3.63,-3.64,-3.64
361.87,-5.90,-2.28,-5.89,-2.28,2.28,2.39,1.25,-3.62,-3.61,-3.61
365.49,-5.81,-2.22,-5.82,-2.23,2.23,2.32,1.21,-3.58,-3.59,-3.59
369.14,-5.74,-2.16,-5.75,-2.18,2.18,2.24,1.18,-3.56,-3.57,-3.58
372.83,-5.68,-2.13,-5.67,-2.13,2.13,2.16,1.15,-3.55,-3.55,-3.55
376.56,-5.61,-2.08,-5.60,-2.07,2.07,2.07,1.12,-3.54,-3.52,-3.53
380.33,-5.53,-2.03,-5.52,-2.02,2.02,1.99,1.09,-3.51,-3.51,-3.49
384.13,-5.45,-1.96,-5.44,-1.96,1.96,1.90,1.06,-3.49,-3.49,-3.49
387.97,-5.36,-1.89,-5.37,-1.90,1.90,1.81,1.03,-3.46,-3.47,-3.47
391.85,-5.28,-1.82,-5.29,-1.83,1.83,1.72,1.00,-3.44,-3.46,-3.46
395.77,-5.21,-1.78,-5.22,-1.77,1.77,1.63,0.97,-3.44,-3.44,-3.43
399.73,-5.15,-1.72,-5.14,-1.71,1.71,1.55,0.94,-3.44,-3.43,-3.42
403.72,-5.08,-1.65,-5.07,-1.65,1.65,1.46,0.92,-3.43,-3.42,-3.42
407.76,-5.01,-1.59,-5.01,-1.59,1.59,1.38,0.89,-3.42,-3.42,-3.42
411.84,-4.94,-1.53,-4.94,-1.53,1.53,1.30,0.87,-3.41,-3.41,-3.41
415.96,-4.88,-1.47,-4.88,-1.47,1.47,1.22,0.84,-3.41,-3.41,-3.41
420.12,-4.81,-1.40,-4.82,-1.41,1.41,1.14,0.82,-3.40,-3.41,-3.41
424.32,-4.75,-1.34,-4.77,-1.36,1.36,1.07,0.79,-3.39,-3.41,-3.41
