frequency,raw,error,smoothed,error_smoothed,equalization,parametric_eq,fixed_band_eq,equalized_raw,equalized_smoothed,target
20.00,4.56,-4.04,4.59,-4.00,4.00,3.93,1.39,8.56,8.59,8.60
20.20,4.61,-3.98,4.62,-3.97,3.97,3.91,1.43,8.58,8.59,8.59
20.40,4.65,-3.94,4.65,-3.94,3.94,3.89,1.47,8.59,8.58,8.59
20.61,4.70,-3.89,4.67,-3.90,3.90,3.87,1.52,8.60,8.58,8.59
20.81,4.75,-3.82,4.70,-3.87,3.87,3.85,1.56,8.62,8.58,8.57
21.02,4.79,-3.78,4.73,-3.84,3.84,3.83,1.61,8.63,8.57,8.57
21.23,4.79,-3.78,4.76,-3.81,3.81,3.81,1.66,8.60,8.57,8.57
21.44,4.79,-3.79,4.79,-3.78,3.78,3.79,1.71,8.57,8.57,8.58
21.66,4.80,-3.77,4.82,-3.75,3.75,3.76,1.76,8.55,8.57,8.57
21.87,4.80,-3.78,4.85,-3.72,3.72,3.74,1.81,8.52,8.57,8.58
22.09,4.82,-3.75,4.88,-3.68,3.68,3.72,1.87,8.50,8.57,8.57
22.31,4.87,-3.71,4.91,-3.65,3.65,3.69,1.92,8.52,8.57,8.58
22.54,4.91,-3.66,4.95,-3.62,3.62,3.67,1.98,8.53,8.57,8.57
22.76,4.96,-3.61,4.98,-3.59,3.59,3.65,2.04,8.55,8.57,8.57
22.99,5.01,-3.56,5.01,-3.56,3.56,3.62,2.10,8.57,8.57,8.57
23.22,5.06,-3.51,5.04,-3.53,3.53,3.60,2.16,8.59,8.57,8.57
23.45,5.12,-3.46,5.08,-3.50,3.50,3.57,2.22,8.62,8.58,8.58
23.69,5.17,-3.41,5.12,-3.46,3.46,3.55,2.29,8.63,8.58,8.58
23.92,5.22,-3.36,5.16,-3.42,3.42,3.52,2.35,8.64,8.58,8.58
24.16,5.24,-3.35,5.20,-3.38,3.38,3.49,2.42,8.62,8.58,8.59
24.40,5.24,-3.36,5.24,-3.35,3.35,3.47,2.48,8.59,8.59,8.60
24.65,5.24,-3.36,5.27,-3.32,3.32,3.44,2.55,8.56,8.59,8.60
24.89,5.24,-3.36,5.30,-3.29,3.29,3.41,2.62,8.53,8.59,8.60
25.14,5.27,-3.32,5.32,-3.27,3.27,3.38,2.69,8.54,8.59,8.59
25.39,5.33,-3.26,5.35,-3.25,3.25,3.35,2.76,8.58,8.59,8.60
25.65,5.39,-3.21,5.38,-3.22,3.22,3.32,2.82,8.61,8.59,8.60
25.91,5.45,-3.14,5.40,-3.19,3.19,3.29,2.89,8.64,8.59,8.59
26.16,5.47,-3.13,5.43,-3.16,3.16,3.26,2.96,8.63,8.59,8.60
26.43,5.47,-3.13,5.46,-3.13,3.13,3.23,3.03,8.60,8.59,8.60
26.69,5.47,-3.13,5.50,-3.09,3.09,3.20,3.09,8.56,8.59,8.60
26.96,5.47,-3.11,5.53,-3.06,3.06,3.17,3.16,8.53,8.59,8.58
27.23,5.52,-3.06,5.56,-3.03,3.03,3.14,3.22,8.55,8.58,8.58
27.50,5.58,-3.00,5.58,-3.00,3.00,3.11,3.28,8.58,8.58,8.58
27.77,5.63,-2.96,5.60,-2.98,2.98,3.08,3.34,8.61,8.58,8.59
28.05,5.68,-2.90,5.62,-2.95,2.95,3.05,3.39,8.63,8.57,8.58
28.33,5.69,-2.88,5.64,-2.93,2.93,3.01,3.44,8.62,8.57,8.57
28.62,5.69,-2.87,5.66,-2.90,2.90,2.98,3.49,8.59,8.56,8.56
28.90,5.70,-2.87,5.69,-2.87,2.87,2.95,3.53,8.57,8.56,8.57
29.19,5.70,-2.86,5.72,-2.83,2.83,2.91,3.56,8.53,8.55,8.56
29.48,5.70,-2.84,5.75,-2.79,2.79,2.88,3.60,8.49,8.54,8.54
29.78,5.70,-2.84,5.77,-2.76,2.76,2.84,3.62,8.46,8.53,8.54
30.08,5.72,-2.82,5.79,-2.73,2.73,2.81,3.64,8.45,8.53,8.54
30.38,5.79,-2.73,5.81,-2.71,2.71,2.77,3.66,8.50,8.51,8.52
30.68,5.86,-2.65,5.82,-2.68,2.68,2.74,3.66,8.54,8.51,8.51
30.99,5.93,-2.57,5.84,-2.65,2.65,2.70,3.67,8.58,8.50,8.50
31.30,5.93,-2.56,5.87,-2.62,2.62,2.67,3.66,8.55,8.49,8.49
31.61,5.93,-2.55,5.90,-2.58,2.58,2.63,3.65,8.51,8.48,8.48
31.93,5.93,-2.53,5.93,-2.54,2.54,2.59,3.63,8.47,8.47,8.46
32.24,5.93,-2.54,5.96,-2.51,2.51,2.55,3.61,8.44,8.46,8.47
32.57,5.93,-2.52,5.99,-2.47,2.47,2.52,3.57,8.40,8.46,8.45
32.89,5.93,-2.52,6.02,-2.44,2.44,2.48,3.54,8.37,8.45,8.45
33.22,5.98,-2.47,6.04,-2.41,2.41,2.44,3.49,8.39,8.45,8.45
33.55,6.05,-2.39,6.05,-2.39,2.39,2.40,3.45,8.44,8.44,8.44
33.89,6.13,-2.32,6.06,-2.38,2.38,2.36,3.39,8.51,8.44,8.45
34.23,6.15,-2.28,6.07,-2.36,2.36,2.32,3.34,8.51,8.44,8.43
34.57,6.15,-2.29,6.09,-2.34,2.34,2.29,3.27,8.49,8.43,8.44
34.92,6.15,-2.28,6.11,-2.31,2.31,2.25,3.21,8.46,8.43,8.43
35.27,6.15,-2.29,6.14,-2.28,2.28,2.21,3.14,8.43,8.42,8.44
35.62,6.15,-2.26,6.16,-2.25,2.25,2.17,3.07,8.40,8.41,8.41
35.97,6.15,-2.26,6.19,-2.21,2.21,2.12,2.99,8.36,8.40,8.41
36.33,6.15,-2.25,6.21,-2.18,2.18,2.08,2.92,8.33,8.39,8.40
36.70,6.15,-2.23,6.23,-2.14,2.14,2.04,2.84,8.29,8.37,8.38
37.06,6.16,-2.19,6.25,-2.11,2.11,2.00,2.76,8.27,8.36,8.36
37.43,6.25,-2.09,6.27,-2.07,2.07,1.96,2.68,8.32,8.34,8.35
37.81,6.34,-1.98,6.28,-2.03,2.03,1.92,2.59,8.37,8.31,8.32
38.19,6.38,-1.92,6.31,-1.98,1.98,1.88,2.51,8.36,8.29,8.30
38.57,6.38,-1.90,6.33,-1.94,1.94,1.83,2.43,8.32,8.26,8.28
38.95,6.38,-1.87,6.34,-1.90,1.90,1.79,2.34,8.28,8.23,8.25
39.34,6.38,-1.82,6.35,-1.86,1.86,1.75,2.26,8.24,8.21,8.20
39.74,6.38,-1.79,6.36,-1.82,1.82,1.70,2.18,8.20,8.18,8.17
40.14,6.38,-1.76,6.37,-1.78,1.78,1.66,2.10,8.16,8.15,8.14
40.54,6.38,-1.74,6.38,-1.73,1.73,1.62,2.02,8.11,8.12,8.12
40.94,6.38,-1.70,6.40,-1.69,1.69,1.57,1.94,8.07,8.09,8.08
41.35,6.38,-1.68,6.41,-1.65,1.65,1.53,1.86,8.03,8.06,8.06
41.76,6.38,-1.65,6.42,-1.61,1.61,1.48,1.78,7.99,8.03,8.03
42.18,6.38,-1.63,6.43,-1.57,1.57,1.44,1.70,7.95,8.00,8.01
42.60,6.38,-1.60,6.45,-1.52,1.52,1.40,1.62,7.90,7.97,7.98
43.03,6.39,-1.56,6.47,-1.47,1.47,1.35,1.55,7.86,7.95,7.95
43.46,6.49,-1.43,6.49,-1.42,1.42,1.30,1.48,7.91,7.92,7.92
43.90,6.59,-1.31,6.52,-1.37,1.37,1.26,1.40,7.96,7.89,7.90
44.33,6.61,-1.25,6.54,-1.32,1.32,1.21,1.33,7.93,7.86,7.86
44.78,6.61,-1.22,6.56,-1.27,1.27,1.17,1.26,7.88,7.83,7.83
45.23,6.61,-1.21,6.58,-1.22,1.22,1.12,1.19,7.83,7.80,7.82
45.68,6.61,-1.16,6.59,-1.17,1.17,1.07,1.12,7.78,7.77,7.77
46.13,6.61,-1.12,6.61,-1.13,1.13,1.03,1.05,7.74,7.73,7.73
46.60,6.61,-1.09,6.61,-1.08,1.08,0.98,0.99,7.69,7.69,7.70
47.06,6.61,-1.06,6.61,-1.04,1.04,0.93,0.92,7.65,7.66,7.67
47.53,6.61,-1.03,6.61,-1.01,1.01,0.89,0.86,7.62,7.62,7.64
48.01,6.61,-0.97,6.61,-0.97,0.97,0.84,0.80,7.58,7.58,7.58
48.49,6.61,-0.93,6.61,-0.93,0.93,0.79,0.73,7.54,7.54,7.54
48.97,6.61,-0.89,6.61,-0.89,0.89,0.74,0.67,7.50,7.50,7.50
49.46,6.61,-0.85,6.62,-0.83,0.83,0.69,0.61,7.44,7.46,7.46
49.96,6.61,-0.79,6.64,-0.77,0.77,0.64,0.55,7.38,7.41,7.40
50.46,6.61,-0.75,6.66,-0.71,0.71,0.60,0.50,7.32,7.37,7.36
50.96,6.61,-0.72,6.68,-0.65,0.65,0.55,0.44,7.26,7.32,7.33
51.47,6.66,-0.63,6.70,-0.58,0.58,0.50,0.38,7.24,7.28,7.29
51.99,6.71,-0.53,6.72,-0.51,0.51,0.45,0.33,7.22,7.23,7.24
52.51,6.78,-0.42,6.74,-0.44,0.44,0.40,0.27,7.22,7.19,7.20
53.03,6.84,-0.33,6.77,-0.37,0.37,0.35,0.22,7.21,7.14,7.17
53.56,6.84,-0.26,6.79,-0.31,0.31,0.30,0.16,7.15,7.09,7.10
54.10,6.84,-0.21,6.81,-0.24,0.24,0.25,0.11,7.08,7.05,7.05
54.64,6.84,-0.17,6.82,-0.18,0.18,0.20,0.06,7.02,7.01,7.01
55.18,6.84,-0.11,6.84,-0.12,0.12,0.15,0.01,6.96,6.96,6.95
55.74,6.84,-0.06,6.85,-0.07,0.07,0.10,-0.04,6.91,6.92,6.90
56.29,6.84,-0.02,6.85,-0.02,0.02,0.04,-0.09,6.86,6.87,6.86
56.86,6.84,0.01,6.86,0.03,-0.03,-0.01,-0.14,6.81,6.83,6.83
57.42,6.84,0.07,6.85,0.07,-0.07,-0.06,-0.19,6.77,6.78,6.77
58.00,6.84,0.11,6.85,0.12,-0.12,-0.11,-0.24,6.72,6.73,6.73
58.58,6.84,0.14,6.84,0.16,-0.16,-0.16,-0.29,6.68,6.68,6.70
59.16,6.84,0.17,6.84,0.20,-0.20,-0.21,-0.33,6.64,6.64,6.67
59.76,6.84,0.22,6.84,0.25,-0.25,-0.27,-0.38,6.59,6.59,6.62
60.35,6.84,0.29,6.84,0.30,-0.30,-0.32,-0.43,6.54,6.54,6.55
60.96,6.84,0.34,6.84,0.36,-0.36,-0.37,-0.47,6.48,6.48,6.50
61.57,6.84,0.41,6.84,0.41,-0.41,-0.43,-0.52,6.43,6.43,6.43
62.18,6.84,0.48,6.84,0.47,-0.47,-0.48,-0.56,6.37,6.37,6.36
62.80,6.84,0.53,6.84,0.52,-0.52,-0.53,-0.61,6.32,6.32,6.31
63.43,6.84,0.59,6.84,0.58,-0.58,-0.59,-0.65,6.26,6.26,6.25
64.07,6.84,0.64,6.84,0.64,-0.64,-0.64,-0.69,6.20,6.20,6.20
64.71,6.84,0.69,6.84,0.70,-0.70,-0.69,-0.74,6.14,6.14,6.15
65.35,6.84,0.76,6.84,0.76,-0.76,-0.75,-0.78,6.08,6.08,6.08
66.01,6.84,0.82,6.84,0.82,-0.82,-0.80,-0.82,6.02,6.02,6.02
66.67,6.84,0.87,6.84,0.88,-0.88,-0.86,-0.87,5.96,5.96,5.97
67.33,6.84,0.94,6.84,0.94,-0.94,-0.91,-0.91,5.90,5.90,5.90
68.01,6.84,0.99,6.84,1.00,-1.00,-0.97,-0.95,5.84,5.84,5.85
68.69,6.84,1.06,6.84,1.06,-1.06,-1.02,-1.00,5.78,5.78,5.78
69.37,6.84,1.11,6.84,1.13,-1.13,-1.08,-1.04,5.71,5.71,5.73
70.07,6.84,1.18,6.84,1.19,-1.19,-1.13,-1.09,5.65,5.65,5.66
70.77,6.84,1.24,6.84,1.26,-1.26,-1.19,-1.13,5.58,5.58,5.60
71.48,6.84,1.32,6.84,1.32,-1.32,-1.24,-1.17,5.52,5.52,5.52
72.19,6.84,1.38,6.84,1.38,-1.38,-1.30,-1.22,5.46,5.46,5.46
72.91,6.84,1.44,6.84,1.45,-1.45,-1.36,-1.27,5.39,5.39,5.40
73.64,6.84,1.52,6.84,1.51,-1.51,-1.41,-1.31,5.33,5.33,5.32
74.38,6.84,1.58,6.84,1.57,-1.57,-1.47,-1.36,5.27,5.27,5.26
75.12,6.84,1.64,6.84,1.62,-1.62,-1.53,-1.41,5.22,5.22,5.20
75.87,6.84,1.67,6.84,1.68,-1.68,-1.58,-1.46,5.16,5.16,5.17
76.63,6.84,1.74,6.84,1.74,-1.74,-1.64,-1.51,5.10,5.10,5.10
77.40,6.84,1.79,6.84,1.79,-1.79,-1.70,-1.56,5.05,5.05,5.05
78.17,6.84,1.84,6.84,1.84,-1.84,-1.76,-1.62,5.00,5.00,5.00
78.95,6.84,1.88,6.84,1.89,-1.89,-1.82,-1.67,4.95,4.95,4.96
79.74,6.84,1.94,6.84,1.94,-1.94,-1.87,-1.73,4.90,4.90,4.90
80.54,6.84,1.99,6.84,1.99,-1.99,-1.93,-1.78,4.85,4.85,4.85
81.35,6.84,2.04,6.84,2.05,-2.05,-1.99,-1.84,4.79,4.79,4.80
82.16,6.84,2.08,6.84,2.10,-2.10,-2.05,-1.90,4.74,4.74,4.76
82.98,6.84,2.14,6.84,2.16,-2.16,-2.11,-1.96,4.68,4.68,4.70
83.81,6.84,2.20,6.84,2.21,-2.21,-2.17,-2.03,4.63,4.63,4.64
84.65,6.84,2.26,6.84,2.27,-2.27,-2.23,-2.09,4.57,4.57,4.58
85.50,6.84,2.33,6.84,2.33,-2.33,-2.28,-2.16,4.51,4.51,4.51
86.35,6.84,2.39,6.84,2.39,-2.39,-2.34,-2.23,4.45,4.45,4.45
87.22,6.84,2.45,6.84,2.45,-2.45,-2.40,-2.30,4.39,4.39,4.39
88.09,6.84,2.52,6.84,2.52,-2.52,-2.46,-2.37,4.32,4.32,4.32
88.97,6.84,2.58,6.84,2.58,-2.58,-2.52,-2.45,4.26,4.26,4.26
89.86,6.84,2.65,6.84,2.65,-2.65,-2.58,-2.52,4.19,4.19,4.19
90.76,6.84,2.72,6.84,2.72,-2.72,-2.64,-2.60,4.12,4.12,4.12
91.66,6.84,2.78,6.84,2.78,-2.78,-2.70,-2.68,4.06,4.06,4.06
92.58,6.84,2.84,6.84,2.85,-2.85,-2.76,-2.76,3.99,3.99,4.00
93.51,6.84,2.91,6.84,2.92,-2.92,-2.82,-2.84,3.92,3.92,3.93
94.44,6.84,2.97,6.84,2.99,-2.99,-2.88,-2.93,3.85,3.85,3.87
95.39,6.84,3.05,6.84,3.06,-3.06,-2.94,-3.01,3.78,3.78,3.79
96.34,6.84,3.13,6.84,3.13,-3.13,-3.00,-3.10,3.71,3.71,3.71
97.30,6.84,3.19,6.84,3.20,-3.20,-3.06,-3.19,3.64,3.64,3.65
98.28,6.84,3.28,6.84,3.27,-3.27,-3.13,-3.28,3.57,3.57,3.56
99.26,6.84,3.35,6.84,3.34,-3.34,-3.19,-3.37,3.50,3.50,3.49
100.25,6.84,3.41,6.84,3.40,-3.40,-3.25,-3.47,3.44,3.44,3.43
101.25,6.84,3.47,6.84,3.47,-3.47,-3.31,-3.56,3.37,3.37,3.37
102.27,6.84,3.54,6.84,3.54,-3.54,-3.37,-3.65,3.30,3.30,3.30
103.29,6.84,3.60,6.84,3.60,-3.60,-3.43,-3.75,3.24,3.24,3.24
104.32,6.84,3.65,6.84,3.66,-3.66,-3.49,-3.84,3.18,3.18,3.19
105.37,6.84,3.71,6.84,3.72,-3.72,-3.55,-3.94,3.12,3.12,3.13
106.42,6.84,3.77,6.84,3.78,-3.78,-3.61,-4.03,3.06,3.06,3.07
107.48,6.84,3.84,6.84,3.83,-3.83,-3.67,-4.13,3.01,3.01,3.00
108.56,6.84,3.88,6.85,3.90,-3.90,-3.73,-4.22,2.94,2.95,2.96
109.64,6.84,3.94,6.86,3.96,-3.96,-3.79,-4.31,2.88,2.89,2.90
110.74,6.84,4.00,6.86,4.02,-4.02,-3.85,-4.40,2.82,2.83,2.84
111.85,6.84,4.06,6.85,4.08,-4.08,-3.91,-4.48,2.76,2.77,2.78
112.97,6.84,4.11,6.85,4.13,-4.13,-3.97,-4.57,2.71,2.71,2.73
114.10,6.84,4.17,6.83,4.18,-4.18,-4.03,-4.65,2.66,2.65,2.67
115.24,6.84,4.24,6.82,4.23,-4.23,-4.09,-4.72,2.61,2.59,2.60
116.39,6.84,4.31,6.80,4.27,-4.27,-4.15,-4.80,2.57,2.53,2.53
117.55,6.84,4.37,6.78,4.31,-4.31,-4.21,-4.87,2.53,2.47,2.47
118.73,6.84,4.44,6.76,4.36,-4.36,-4.27,-4.93,2.48,2.40,2.40
119.92,6.83,4.50,6.74,4.40,-4.40,-4.33,-4.99,2.43,2.34,2.33
121.12,6.61,4.33,6.71,4.44,-4.44,-4.39,-5.04,2.17,2.27,2.28
122.33,6.61,4.41,6.69,4.49,-4.49,-4.44,-5.09,2.12,2.20,2.20
123.55,6.61,4.46,6.67,4.53,-4.53,-4.50,-5.13,2.08,2.14,2.15
124.79,6.61,4.53,6.65,4.58,-4.58,-4.56,-5.16,2.03,2.07,2.08
126.03,6.61,4.60,6.63,4.63,-4.63,-4.62,-5.19,1.98,2.00,2.01
127.29,6.61,4.67,6.62,4.69,-4.69,-4.67,-5.22,1.92,1.93,1.94
128.57,6.61,4.73,6.62,4.75,-4.75,-4.73,-5.24,1.86,1.87,1.88
129.85,6.61,4.81,6.61,4.81,-4.81,-4.79,-5.25,1.80,1.80,1.80
131.15,6.61,4.87,6.61,4.87,-4.87,-4.84,-5.26,1.74,1.74,1.74
132.46,6.61,4.94,6.60,4.93,-4.93,-4.90,-5.26,1.68,1.67,1.67
133.79,6.61,5.00,6.60,4.99,-4.99,-4.95,-5.26,1.62,1.61,1.61
135.12,6.61,5.07,6.60,5.05,-5.05,-5.00,-5.26,1.56,1.55,1.54
136.48,6.61,5.11,6.58,5.09,-5.09,-5.06,-5.25,1.52,1.49,1.50
137.84,6.61,5.17,6.56,5.13,-5.13,-5.11,-5.23,1.48,1.43,1.44
139.22,6.61,5.24,6.54,5.17,-5.17,-5.16,-5.22,1.44,1.37,1.37
140.61,6.61,5.29,6.52,5.20,-5.20,-5.21,-5.20,1.41,1.32,1.32
142.02,6.50,5.23,6.50,5.23,-5.23,-5.26,-5.18,1.27,1.26,1.27
143.44,6.41,5.20,6.48,5.27,-5.27,-5.31,-5.16,1.14,1.21,1.21
144.87,6.38,5.21,6.47,5.30,-5.30,-5.36,-5.14,1.08,1.16,1.17
146.32,6.38,5.26,6.45,5.34,-5.34,-5.41,-5.12,1.04,1.11,1.12
147.78,6.38,5.32,6.43,5.37,-5.37,-5.46,-5.10,1.01,1.06,1.06
149.26,6.38,5.36,6.41,5.40,-5.40,-5.51,-5.08,0.98,1.01,1.02
150.75,6.38,5.42,6.39,5.42,-5.42,-5.55,-5.06,0.96,0.96,0.96
152.26,6.38,5.45,6.36,5.45,-5.45,-5.60,-5.04,0.93,0.91,0.93
153.78,6.38,5.51,6.34,5.47,-5.47,-5.64,-5.02,0.91,0.87,0.87
155.32,6.38,5.55,6.32,5.50,-5.50,-5.68,-5.01,0.88,0.82,0.83
156.88,6.38,5.60,6.30,5.53,-5.53,-5.72,-4.99,0.85,0.77,0.78
158.44,6.38,5.65,6.29,5.57,-5.57,-5.76,-4.98,0.81,0.72,0.73
160.03,6.32,5.64,6.28,5.61,-5.61,-5.80,-4.97,0.71,0.67,0.68
161.63,6.18,5.55,6.27,5.64,-5.64,-5.84,-4.97,0.54,0.63,0.63
163.24,6.15,5.58,6.25,5.67,-5.67,-5.88,-4.97,0.48,0.58,0.57
164.88,6.15,5.62,6.22,5.69,-5.69,-5.92,-4.97,0.46,0.53,0.53
166.53,6.15,5.68,6.20,5.72,-5.72,-5.95,-4.97,0.43,0.48,0.47
168.19,6.15,5.71,6.17,5.74,-5.74,-5.98,-4.98,0.41,0.43,0.44
169.87,6.15,5.76,6.14,5.76,-5.76,-6.02,-4.99,0.39,0.38,0.39
171.57,6.15,5.82,6.11,5.78,-5.78,-6.05,-5.01,0.37,0.33,0.33
173.29,6.15,5.87,6.08,5.81,-5.81,-6.08,-5.03,0.34,0.27,0.28
175.02,6.15,5.92,6.06,5.84,-5.84,-6.10,-5.05,0.31,0.22,0.23
176.77,6.15,5.97,6.05,5.88,-5.88,-6.13,-5.08,0.27,0.17,0.18
178.54,5.98,5.85,6.04,5.92,-5.92,-6.16,-5.11,0.06,0.12,0.13
180.32,5.93,5.86,6.03,5.96,-5.96,-6.18,-5.14,-0.03,0.07,0.07
182.13,5.93,5.91,6.00,5.98,-5.98,-6.20,-5.18,-0.05,0.02,0.02
183.95,5.93,5.96,5.97,6.01,-6.01,-6.22,-5.23,-0.08,-0.03,-0.03
185.79,5.93,6.02,5.94,6.03,-6.03,-6.24,-5.27,-0.10,-0.09,-0.09
187.65,5.93,6.06,5.91,6.05,-6.05,-6.26,-5.32,-0.12,-0.14,-0.13
189.52,5.93,6.11,5.88,6.06,-6.06,-6.28,-5.38,-0.13,-0.18,-0.18
191.42,5.93,6.15,5.86,6.09,-6.09,-6.29,-5.44,-0.16,-0.23,-0.22
193.33,5.93,6.20,5.84,6.12,-6.12,-6.30,-5.50,-0.19,-0.28,-0.27
195.27,5.82,6.14,5.82,6.14,-6.14,-6.32,-5.56,-0.32,-0.32,-0.32
197.22,5.72,6.09,5.80,6.16,-6.16,-6.33,-5.63,-0.44,-0.36,-0.37
199.19,5.70,6.10,5.78,6.18,-6.18,-6.33,-5.70,-0.48,-0.40,-0.40
201.18,5.70,6.15,5.75,6.19,-6.19,-6.34,-5.77,-0.49,-0.44,-0.45
203.19,5.70,6.18,5.72,6.20,-6.20,-6.35,-5.84,-0.50,-0.48,-0.48
205.23,5.70,6.21,5.69,6.21,-6.21,-6.35,-5.92,-0.51,-0.52,-0.51
207.28,5.70,6.24,5.66,6.22,-6.22,-6.35,-6.00,-0.52,-0.55,-0.54
209.35,5.70,6.28,5.63,6.22,-6.22,-6.35,-6.07,-0.52,-0.59,-0.58
211.44,5.70,6.32,5.60,6.23,-6.23,-6.35,-6.15,-0.53,-0.62,-0.62
213.56,5.54,6.19,5.57,6.23,-6.23,-6.35,-6.23,-0.69,-0.66,-0.65
215.69,5.47,6.15,5.54,6.23,-6.23,-6.34,-6.31,-0.76,-0.69,-0.68
217.85,5.47,6.18,5.51,6.23,-6.23,-6.33,-6.39,-0.76,-0.72,-0.71
220.03,5.47,6.22,5.49,6.24,-6.24,-6.33,-6.46,-0.77,-0.75,-0.75
222.23,5.47,6.25,5.46,6.24,-6.24,-6.32,-6.53,-0.77,-0.78,-0.78
224.45,5.47,6.28,5.43,6.24,-6.24,-6.30,-6.60,-0.77,-0.81,-0.81
226.70,5.47,6.31,5.39,6.23,-6.23,-6.29,-6.67,-0.76,-0.84,-0.84
228.96,5.31,6.18,5.35,6.22,-6.22,-6.28,-6.73,-0.91,-0.87,-0.87
231.25,5.26,6.15,5.31,6.21,-6.21,-6.26,-6.78,-0.95,-0.90,-0.89
233.57,5.24,6.16,5.28,6.20,-6.20,-6.24,-6.83,-0.96,-0.92,-0.92
235.90,5.24,6.18,5.25,6.20,-6.20,-6.22,-6.88,-0.96,-0.95,-0.94
238.26,5.24,6.22,5.23,6.20,-6.20,-6.20,-6.91,-0.96,-0.97,-0.98
240.64,5.24,6.22,5.19,6.18,-6.18,-6.18,-6.94,-0.94,-0.99,-0.98
243.05,5.24,6.24,5.15,6.16,-6.16,-6.16,-6.96,-0.92,-1.01,-1.00
245.48,5.08,6.11,5.11,6.14,-6.14,-6.13,-6.96,-1.06,-1.03,-1.03
247.93,5.01,6.06,5.07,6.12,-6.12,-6.11,-6.97,-1.11,-1.05,-1.05
250.41,5.01,6.06,5.04,6.11,-6.11,-6.08,-6.96,-1.10,-1.06,-1.05
252.92,5.01,6.08,5.01,6.09,-6.09,-6.05,-6.94,-1.08,-1.08,-1.07
255.45,5.01,6.10,4.98,6.07,-6.07,-6.02,-6.91,-1.06,-1.09,-1.09
258.00,5.01,6.12,4.94,6.05,-6.05,-5.99,-6.87,-1.04,-1.11,-1.11
260.58,4.87,5.99,4.89,6.01,-6.01,-5.96,-6.83,-1.14,-1.12,-1.12
263.19,4.80,5.93,4.86,5.98,-5.98,-5.92,-6.78,-1.18,-1.13,-1.13
265.82,4.79,5.93,4.82,5.96,-5.96,-5.89,-6.71,-1.17,-1.14,-1.14
268.48,4.79,5.93,4.78,5.93,-5.93,-5.85,-6.65,-1.14,-1.15,-1.14
271.16,4.79,5.93,4.75,5.90,-5.90,-5.81,-6.57,-1.11,-1.16,-1.14
273.87,4.79,5.94,4.72,5.88,-5.88,-5.77,-6.49,-1.09,-1.16,-1.15
276.61,4.65,5.81,4.67,5.84,-5.84,-5.73,-6.40,-1.19,-1.17,-1.16
279.38,4.57,5.75,4.63,5.80,-5.80,-5.69,-6.31,-1.23,-1.17,-1.18
282.17,4.56,5.74,4.59,5.76,-5.76,-5.65,-6.22,-1.20,-1.17,-1.18
284.99,4.56,5.73,4.56,5.73,-5.73,-5.61,-6.12,-1.17,-1.18,-1.17
287.84,4.56,5.73,4.53,5.70,-5.70,-5.57,-6.01,-1.14,-1.18,-1.17
290.72,4.56,5.74,4.49,5.67,-5.67,-5.52,-5.91,-1.11,-1.18,-1.18
293.63,4.45,5.62,4.45,5.63,-5.63,-5.48,-5.81,-1.18,-1.18,-1.17
296.57,4.34,5.51,4.41,5.59,-5.59,-5.43,-5.70,-1.25,-1.18,-1.17
299.53,4.33,5.51,4.38,5.55,-5.55,-5.38,-5.59,-1.22,-1.18,-1.18
302.53,4.33,5.49,4.35,5.52,-5.52,-5.34,-5.49,-1.19,-1.18,-1.16
305.55,4.33,5.50,4.31,5.49,-5.49,-5.29,-5.38,-1.16,-1.18,-1.17
308.61,4.33,5.49,4.28,5.46,-5.46,-5.24,-5.28,-1.13,-1.17,-1.16
311.69,4.33,5.50,4.25,5.42,-5.42,-5.19,-5.18,-1.09,-1.17,-1.17
314.81,4.19,5.35,4.22,5.38,-5.38,-5.14,-5.07,-1.19,-1.17,-1.16
317.96,4.11,5.28,4.18,5.35,-5.35,-5.09,-4.98,-1.24,-1.17,-1.17
321.14,4.10,5.26,4.14,5.30,-5.30,-5.04,-4.88,-1.20,-1.16,-1.16
324.35,4.10,5.27,4.10,5.26,-5.26,-4.99,-4.78,-1.16,-1.16,-1.17
327.59,4.10,5.24,4.07,5.22,-5.22,-4.93,-4.69,-1.12,-1.16,-1.14
330.87,4.10,5.25,4.03,5.18,-5.18,-4.88,-4.60,-1.08,-1.15,-1.15
334.18,4.00,5.15,3.98,5.13,-5.13,-4.83,-4.52,-1.13,-1.15,-1.15
337.52,3.88,5.02,3.93,5.07,-5.07,-4.77,-4.43,-1.19,-1.14,-1.14
340.90,3.87,5.00,3.88,5.01,-5.01,-4.72,-4.35,-1.14,-1.13,-1.13
344.30,3.87,4.99,3.83,4.96,-4.96,-4.66,-4.27,-1.09,-1.13,-1.12
347.75,3.81,4.92,3.79,4.91,-4.91,-4.61,-4.20,-1.10,-1.12,-1.11
351.23,3.69,4.81,3.74,4.85,-4.85,-4.55,-4.13,-1.16,-1.11,-1.12
354.74,3.65,4.74,3.69,4.79,-4.79,-4.50,-4.06,-1.14,-1.10,-1.09
358.28,3.65,4.74,3.63,4.72,-4.72,-4.44,-4.00,-1.07,-1.10,-1.09
361.87,3.65,4.74,3.57,4.67,-4.67,-4.39,-3.94,-1.02,-1.09,-1.09
365.49,3.48,4.56,3.52,4.61,-4.61,-4.33,-3.88,-1.13,-1.09,-1.08
369.14,3.43,4.50,3.47,4.55,-4.55,-4.27,-3.82,-1.12,-1.08,-1.07
372.83,3.42,4.48,3.42,4.50,-4.50,-4.22,-3.77,-1.08,-1.07,-1.06
376.56,3.42,4.49,3.38,4.45,-4.45,-4.16,-3.72,-1.03,-1.07,-1.07
380.33,3.33,4.39,3.33,4.39,-4.39,-4.10,-3.67,-1.06,-1.07,-1.06
384.13,3.22,4.27,3.28,4.34,-4.34,-4.05,-3.63,-1.12,-1.06,-1.05
387.97,3.19,4.24,3.23,4.29,-4.29,-3.99,-3.59,-1.10,-1.06,-1.05
391.85,3.19,4.24,3.18,4.24,-4.24,-3.93,-3.55,-1.05,-1.05,-1.05
395.77,3.19,4.25,3.13,4.18,-4.18,-3.87,-3.51,-0.99,-1.05,-1.06
399.73,3.13,4.18,3.08,4.13,-4.13,-3.82,-3.48,-1.00,-1.04,-1.05
403.72,3.00,4.03,3.03,4.07,-4.07,-3.76,-3.44,-1.07,-1.04,-1.03
407.76,2.96,3.99,2.99,4.02,-4.02,-3.70,-3.41,-1.06,-1.03,-1.03
411.84,2.96,3.98,2.93,3.96,-3.96,-3.64,-3.39,-1.00,-1.02,-1.02
415.96,2.96,3.97,2.89,3.90,-3.90,-3.58,-3.36,-0.94,-1.01,-1.01
420.12,2.79,3.80,2.84,3.84,-3.84,-3.52,-3.33,-1.05,-1.01,-1.01
424.32,2.74,3.73,2.79,3.79,-3.79,-3.47,-3.31,-1.05,-1.00,-0.99
428.56,2.74,3.71,2.74,3.72,-3.72,-3.41,-3.28,-0.98,-0.98,-0.97
432.85,2.74,3.70,2.69,3.66,-3.66,-3.35,-3.26,-0.92,-0.97,-0.96
437.18,2.63,3.58,2.64,3.60,-3.60,-3.29,-3.24,-0.97,-0.96,-0.95
441.55,2.54,3.49,2.59,3.54,-3.54,-3.23,-3.21,-1.00,-0.94,-0.95
445.96,2.51,3.44,2.54,3.48,-3.48,-3.17,-3.19,-0.97,-0.93,-0.93
450.42,2.51,3.43,2.50,3.42,-3.42,-3.12,-3.17,-0.91,-0.92,-0.92
454.93,2.51,3.41,2.45,3.36,-3.36,-3.06,-3.14,-0.85,-0.90,-0.90
459.48,2.46,3.35,2.40,3.29,-3.29,-3.00,-3.12,-0.83,-0.89,-0.89
464.07,2.31,3.18,2.35,3.23,-3.23,-2.94,-3.09,-0.92,-0.88,-0.87
468.71,2.28,3.13,2.31,3.17,-3.17,-2.88,-3.07,-0.89,-0.86,-0.85
473.40,2.28,3.12,2.26,3.11,-3.11,-2.82,-3.04,-0.83,-0.85,-0.84
478.13,2.28,3.10,2.20,3.04,-3.04,-2.77,-3.01,-0.76,-0.83,-0.82
482.91,2.10,2.91,2.15,2.97,-2.97,-2.71,-2.97,-0.87,-0.82,-0.81
487.74,2.05,2.85,2.10,2.90,-2.90,-2.65,-2.94,-0.85,-0.80,-0.80
492.62,2.05,2.83,2.04,2.82,-2.82,-2.59,-2.90,-0.77,-0.78,-0.78
497.55,2.05,2.82,1.99,2.75,-2.75,-2.53,-2.86,-0.70,-0.76,-0.77
502.52,1.92,2.67,1.94,2.68,-2.68,-2.47,-2.82,-0.76,-0.74,-0.75
507.55,1.83,2.55,1.88,2.61,-2.61,-2.42,-2.78,-0.78,-0.72,-0.72
512.62,1.82,2.52,1.83,2.53,-2.53,-2.36,-2.73,-0.71,-0.70,-0.70
517.75,1.82,2.49,1.78,2.46,-2.46,-2.30,-2.68,-0.64,-0.68,-0.67
522.93,1.76,2.41,1.73,2.38,-2.38,-2.24,-2.63,-0.62,-0.66,-0.65
528.16,1.63,2.26,1.68,2.32,-2.32,-2.18,-2.58,-0.69,-0.64,-0.63
