frequency,raw,error,smoothed,error_smoothed,equalization,parametric_eq,fixed_band_eq,equalized_raw,equalized_smoothed,target
20.00,-7.34,-12.11,-7.31,-12.10,12.10,11.97,3.64,4.76,4.79,4.77
20.20,-7.21,-11.98,-7.19,-11.97,11.97,11.88,3.74,4.77,4.79,4.77
20.40,-7.08,-11.85,-7.07,-11.85,11.85,11.79,3.84,4.77,4.78,4.77
20.61,-6.94,-11.71,-6.95,-11.72,11.72,11.69,3.94,4.78,4.77,4.77
20.81,-6.81,-11.58,-6.84,-11.60,11.60,11.59,4.05,4.79,4.76,4.77
21.02,-6.70,-11.47,-6.72,-11.47,11.47,11.48,4.16,4.77,4.75,4.77
21.23,-6.58,-11.33,-6.61,-11.34,11.34,11.38,4.27,4.77,4.74,4.75
21.44,-6.48,-11.22,-6.50,-11.22,11.22,11.27,4.39,4.74,4.72,4.74
21.66,-6.38,-11.10,-6.38,-11.09,11.09,11.15,4.51,4.71,4.71,4.72
21.87,-6.29,-10.99,-6.27,-10.97,10.97,11.03,4.63,4.68,4.69,4.70
22.09,-6.18,-10.87,-6.16,-10.84,10.84,10.91,4.75,4.66,4.68,4.69
22.31,-6.08,-10.74,-6.05,-10.71,10.71,10.79,4.88,4.64,4.66,4.66
22.54,-5.97,-10.61,-5.95,-10.58,10.58,10.66,5.01,4.62,4.64,4.64
22.76,-5.85,-10.47,-5.84,-10.46,10.46,10.54,5.15,4.61,4.62,4.62
22.99,-5.74,-10.33,-5.74,-10.33,10.33,10.41,5.29,4.59,4.59,4.59
23.22,-5.63,-10.19,-5.63,-10.20,10.20,10.28,5.43,4.58,4.57,4.56
23.45,-5.51,-10.04,-5.53,-10.08,10.08,10.15,5.58,4.57,4.55,4.53
23.69,-5.41,-9.93,-5.42,-9.95,9.95,10.01,5.73,4.54,4.53,4.52
23.92,-5.30,-9.80,-5.31,-9.82,9.82,9.88,5.88,4.53,4.51,4.50
24.16,-5.20,-9.69,-5.21,-9.69,9.69,9.74,6.03,4.50,4.49,4.49
24.40,-5.11,-9.58,-5.10,-9.56,9.56,9.61,6.19,4.46,4.47,4.47
24.65,-5.00,-9.45,-4.99,-9.43,9.43,9.47,6.35,4.44,4.45,4.45
24.89,-4.89,-9.33,-4.87,-9.31,9.31,9.33,6.52,4.41,4.43,4.43
25.14,-4.79,-9.21,-4.76,-9.18,9.18,9.19,6.68,4.39,4.41,4.42
25.39,-4.66,-9.07,-4.65,-9.05,9.05,9.05,6.85,4.39,4.40,4.40
25.65,-4.55,-8.94,-4.54,-8.93,8.93,8.91,7.02,4.38,4.38,4.39
25.91,-4.43,-8.79,-4.43,-8.80,8.80,8.77,7.19,4.37,4.37,4.36
26.16,-4.31,-8.66,-4.32,-8.67,8.67,8.63,7.36,4.36,4.35,4.35
26.43,-4.19,-8.53,-4.20,-8.54,8.54,8.49,7.52,4.35,4.34,4.34
26.69,-4.07,-8.38,-4.09,-8.41,8.41,8.35,7.69,4.34,4.32,4.31
26.96,-3.96,-8.26,-3.97,-8.27,8.27,8.21,7.86,4.31,4.30,4.30
27.23,-3.85,-8.14,-3.85,-8.14,8.14,8.08,8.02,4.29,4.29,4.29
27.50,-3.75,-8.03,-3.73,-8.01,8.01,7.94,8.18,4.26,4.27,4.28
27.77,-3.63,-7.89,-3.62,-7.88,7.88,7.80,8.33,4.25,4.26,4.26
28.05,-3.51,-7.76,-3.50,-7.75,7.75,7.66,8.47,4.24,4.25,4.25
28.33,-3.40,-7.63,-3.39,-7.62,7.62,7.52,8.61,4.22,4.23,4.23
28.62,-3.27,-7.49,-3.27,-7.49,7.49,7.38,8.73,4.22,4.22,4.22
28.90,-3.16,-7.36,-3.15,-7.36,7.36,7.24,8.85,4.20,4.21,4.20
29.19,-3.04,-7.22,-3.04,-7.23,7.23,7.10,8.95,4.19,4.19,4.18
29.48,-2.92,-7.10,-2.92,-7.10,7.10,6.97,9.03,4.18,4.18,4.18
29.78,-2.80,-6.97,-2.80,-6.97,6.97,6.83,9.10,4.17,4.17,4.17
30.08,-2.68,-6.84,-2.68,-6.84,6.84,6.69,9.16,4.16,4.15,4.16
30.38,-2.57,-6.71,-2.57,-6.70,6.70,6.55,9.19,4.13,4.14,4.14
30.68,-2.45,-6.58,-2.45,-6.57,6.57,6.42,9.20,4.12,4.12,4.13
30.99,-2.33,-6.43,-2.33,-6.44,6.44,6.28,9.20,4.11,4.11,4.10
31.30,-2.22,-6.31,-2.22,-6.31,6.31,6.15,9.17,4.09,4.09,4.09
31.61,-2.11,-6.19,-2.11,-6.18,6.18,6.01,9.12,4.07,4.07,4.08
31.93,-2.00,-6.06,-2.00,-6.05,6.05,5.88,9.06,4.05,4.05,4.06
32.24,-1.89,-5.92,-1.89,-5.92,5.92,5.74,8.97,4.04,4.04,4.03
32.57,-1.78,-5.79,-1.78,-5.79,5.79,5.61,8.86,4.02,4.02,4.01
32.89,-1.68,-5.68,-1.67,-5.67,5.67,5.48,8.74,3.99,4.00,4.00
33.22,-1.56,-5.53,-1.57,-5.54,5.54,5.34,8.60,3.98,3.98,3.97
33.55,-1.46,-5.42,-1.46,-5.42,5.42,5.21,8.44,3.96,3.95,3.96
33.89,-1.36,-5.29,-1.36,-5.29,5.29,5.08,8.27,3.93,3.93,3.93
34.23,-1.25,-5.16,-1.25,-5.17,5.17,4.95,8.09,3.92,3.91,3.91
34.57,-1.15,-5.04,-1.15,-5.04,5.04,4.82,7.90,3.90,3.89,3.89
34.92,-1.05,-4.92,-1.05,-4.92,4.92,4.68,7.70,3.87,3.87,3.87
35.27,-0.95,-4.80,-0.94,-4.79,4.79,4.55,7.49,3.85,3.85,3.85
35.62,-0.85,-4.68,-0.84,-4.67,4.67,4.42,7.27,3.82,3.83,3.83
35.97,-0.75,-4.56,-0.73,-4.54,4.54,4.29,7.05,3.80,3.81,3.81
36.33,-0.64,-4.43,-0.63,-4.42,4.42,4.16,6.83,3.78,3.79,3.79
36.70,-0.54,-4.31,-0.53,-4.29,4.29,4.04,6.60,3.76,3.77,3.77
37.06,-0.43,-4.18,-0.42,-4.17,4.17,3.91,6.37,3.74,3.75,3.75
37.43,-0.32,-4.05,-0.32,-4.04,4.04,3.78,6.14,3.73,3.73,3.73
37.81,-0.21,-3.92,-0.21,-3.92,3.92,3.65,5.91,3.71,3.71,3.71
38.19,-0.10,-3.78,-0.11,-3.80,3.80,3.52,5.68,3.70,3.69,3.68
38.57,0.00,-3.67,-0.01,-3.67,3.67,3.39,5.45,3.68,3.67,3.67
38.95,0.10,-3.54,0.10,-3.55,3.55,3.27,5.21,3.65,3.65,3.64
39.34,0.20,-3.42,0.20,-3.43,3.43,3.14,4.98,3.63,3.63,3.62
39.74,0.30,-3.30,0.30,-3.31,3.31,3.01,4.75,3.61,3.61,3.60
40.14,0.39,-3.20,0.40,-3.19,3.19,2.89,4.53,3.58,3.59,3.59
40.54,0.49,-3.08,0.50,-3.07,3.07,2.76,4.30,3.57,3.57,3.57
40.94,0.59,-2.96,0.60,-2.96,2.96,2.64,4.08,3.55,3.55,3.55
41.35,0.68,-2.84,0.69,-2.84,2.84,2.51,3.85,3.52,3.53,3.52
41.76,0.79,-2.73,0.79,-2.72,2.72,2.38,3.63,3.52,3.51,3.52
42.18,0.89,-2.61,0.89,-2.60,2.60,2.26,3.41,3.50,3.49,3.50
42.60,0.99,-2.49,0.99,-2.48,2.48,2.13,3.20,3.48,3.48,3.48
43.03,1.09,-2.38,1.09,-2.36,2.36,2.01,2.98,3.46,3.46,3.47
43.46,1.19,-2.25,1.20,-2.24,2.24,1.88,2.77,3.44,3.44,3.44
43.90,1.30,-2.12,1.30,-2.12,2.12,1.76,2.56,3.42,3.42,3.42
44.33,1.40,-2.00,1.40,-2.00,2.00,1.63,2.34,3.40,3.40,3.40
44.78,1.50,-1.88,1.51,-1.87,1.87,1.51,2.14,3.38,3.38,3.38
45.23,1.61,-1.74,1.62,-1.75,1.75,1.38,1.93,3.36,3.37,3.35
45.68,1.71,-1.62,1.72,-1.62,1.62,1.26,1.72,3.34,3.35,3.33
46.13,1.83,-1.49,1.83,-1.50,1.50,1.14,1.52,3.33,3.33,3.32
46.60,1.94,-1.37,1.94,-1.36,1.36,1.01,1.32,3.31,3.30,3.31
47.06,2.05,-1.24,2.05,-1.23,1.23,0.89,1.12,3.29,3.28,3.29
47.53,2.16,-1.11,2.16,-1.10,1.10,0.76,0.92,3.27,3.26,3.27
48.01,2.27,-0.99,2.27,-0.97,0.97,0.64,0.72,3.24,3.24,3.26
48.49,2.38,-0.85,2.38,-0.84,0.84,0.52,0.52,3.22,3.22,3.23
48.97,2.49,-0.71,2.50,-0.70,0.70,0.39,0.33,3.20,3.20,3.20
49.46,2.60,-0.57,2.61,-0.57,0.57,0.27,0.13,3.17,3.18,3.17
49.96,2.72,-0.42,2.72,-0.43,0.43,0.14,-0.06,3.16,3.16,3.14
50.46,2.84,-0.29,2.84,-0.30,0.30,0.02,-0.25,3.14,3.13,3.13
50.96,2.95,-0.16,2.95,-0.16,0.16,-0.10,-0.44,3.11,3.11,3.11
51.47,3.06,-0.02,3.06,-0.02,0.02,-0.23,-0.62,3.09,3.09,3.08
51.99,3.17,0.11,3.18,0.12,-0.12,-0.35,-0.81,3.06,3.06,3.06
52.51,3.29,0.25,3.29,0.25,-0.25,-0.47,-0.99,3.04,3.04,3.04
53.03,3.40,0.38,3.41,0.39,-0.39,-0.60,-1.17,3.01,3.01,3.02
53.56,3.52,0.53,3.52,0.53,-0.53,-0.72,-1.35,2.99,2.99,2.99
54.10,3.64,0.67,3.63,0.67,-0.67,-0.84,-1.52,2.98,2.97,2.97
54.64,3.74,0.80,3.75,0.80,-0.80,-0.97,-1.69,2.94,2.94,2.94
55.18,3.85,0.93,3.86,0.94,-0.94,-1.09,-1.85,2.91,2.92,2.92
55.74,3.97,1.08,3.97,1.07,-1.07,-1.21,-2.02,2.90,2.90,2.89
56.29,4.08,1.21,4.08,1.21,-1.21,-1.34,-2.17,2.87,2.87,2.87
56.86,4.19,1.35,4.19,1.34,-1.34,-1.46,-2.33,2.85,2.85,2.84
57.42,4.30,1.48,4.30,1.48,-1.48,-1.59,-2.47,2.82,2.82,2.82
58.00,4.41,1.61,4.41,1.62,-1.62,-1.71,-2.62,2.80,2.80,2.80
58.58,4.52,1.75,4.52,1.75,-1.75,-1.83,-2.75,2.77,2.77,2.77
59.16,4.63,1.88,4.63,1.88,-1.88,-1.96,-2.88,2.75,2.75,2.75
59.76,4.73,2.00,4.74,2.02,-2.02,-2.08,-3.01,2.72,2.72,2.73
60.35,4.84,2.14,4.84,2.15,-2.15,-2.20,-3.12,2.69,2.69,2.70
60.96,4.94,2.26,4.95,2.28,-2.28,-2.32,-3.23,2.66,2.67,2.68
61.57,5.05,2.41,5.05,2.41,-2.41,-2.45,-3.34,2.64,2.64,2.64
62.18,5.16,2.55,5.16,2.54,-2.54,-2.57,-3.44,2.62,2.61,2.61
62.80,5.26,2.68,5.26,2.67,-2.67,-2.69,-3.53,2.59,2.59,2.58
63.43,5.36,2.81,5.36,2.80,-2.80,-2.82,-3.61,2.57,2.56,2.55
64.07,5.45,2.93,5.46,2.92,-2.92,-2.94,-3.69,2.53,2.53,2.52
64.71,5.55,3.05,5.56,3.05,-3.05,-3.06,-3.76,2.50,2.51,2.50
65.35,5.65,3.17,5.66,3.17,-3.17,-3.18,-3.82,2.48,2.48,2.48
66.01,5.74,3.28,5.75,3.30,-3.30,-3.30,-3.88,2.45,2.46,2.46
66.67,5.85,3.42,5.85,3.42,-3.42,-3.42,-3.94,2.43,2.43,2.43
67.33,5.95,3.54,5.95,3.54,-3.54,-3.55,-3.98,2.41,2.41,2.41
68.01,6.03,3.65,6.04,3.66,-3.66,-3.67,-4.03,2.37,2.38,2.38
68.69,6.13,3.77,6.13,3.78,-3.78,-3.79,-4.07,2.36,2.36,2.36
69.37,6.22,3.89,6.22,3.89,-3.89,-3.91,-4.11,2.33,2.33,2.33
70.07,6.31,4.01,6.31,4.01,-4.01,-4.02,-4.14,2.30,2.30,2.30
70.77,6.40,4.12,6.40,4.13,-4.13,-4.14,-4.17,2.28,2.28,2.28
71.48,6.49,4.24,6.49,4.24,-4.24,-4.26,-4.20,2.25,2.25,2.25
72.19,6.57,4.35,6.57,4.36,-4.36,-4.38,-4.23,2.22,2.21,2.22
72.91,6.65,4.47,6.65,4.47,-4.47,-4.49,-4.25,2.18,2.18,2.18
73.64,6.73,4.58,6.73,4.58,-4.58,-4.61,-4.28,2.15,2.15,2.15
74.38,6.80,4.68,6.81,4.69,-4.69,-4.72,-4.31,2.11,2.12,2.12
75.12,6.88,4.81,6.88,4.80,-4.80,-4.84,-4.33,2.08,2.08,2.07
75.87,6.95,4.91,6.95,4.91,-4.91,-4.95,-4.36,2.04,2.04,2.04
76.63,7.02,5.01,7.02,5.01,-5.01,-5.06,-4.39,2.01,2.01,2.01
77.40,7.08,5.11,7.08,5.12,-5.12,-5.17,-4.42,1.97,1.97,1.97
78.17,7.14,5.23,7.15,5.22,-5.22,-5.28,-4.45,1.92,1.93,1.91
78.95,7.20,5.31,7.20,5.32,-5.32,-5.39,-4.48,1.89,1.89,1.89
79.74,7.25,5.40,7.26,5.41,-5.41,-5.49,-4.52,1.84,1.84,1.85
80.54,7.30,5.50,7.31,5.51,-5.51,-5.60,-4.56,1.80,1.80,1.80
81.35,7.36,5.60,7.36,5.60,-5.60,-5.70,-4.60,1.77,1.76,1.76
82.16,7.40,5.69,7.40,5.69,-5.69,-5.80,-4.64,1.72,1.71,1.71
82.98,7.44,5.77,7.44,5.77,-5.77,-5.90,-4.69,1.67,1.67,1.67
83.81,7.47,5.86,7.47,5.85,-5.85,-6.00,-4.74,1.62,1.62,1.61
84.65,7.50,5.93,7.50,5.93,-5.93,-6.10,-4.80,1.57,1.57,1.57
85.50,7.53,6.00,7.53,6.01,-6.01,-6.19,-4.86,1.53,1.53,1.53
86.35,7.56,6.08,7.56,6.08,-6.08,-6.28,-4.92,1.48,1.48,1.48
87.22,7.57,6.14,7.58,6.15,-6.15,-6.37,-4.98,1.43,1.43,1.43
88.09,7.59,6.22,7.59,6.22,-6.22,-6.46,-5.05,1.38,1.38,1.37
88.97,7.61,6.28,7.61,6.28,-6.28,-6.54,-5.13,1.33,1.33,1.33
89.86,7.61,6.33,7.62,6.34,-6.34,-6.62,-5.20,1.27,1.28,1.28
90.76,7.62,6.40,7.62,6.40,-6.40,-6.70,-5.29,1.23,1.23,1.22
91.66,7.62,6.45,7.63,6.45,-6.45,-6.78,-5.37,1.17,1.17,1.17
92.58,7.62,6.51,7.63,6.51,-6.51,-6.85,-5.46,1.12,1.12,1.11
93.51,7.62,6.55,7.62,6.56,-6.56,-6.92,-5.56,1.06,1.07,1.07
94.44,7.62,6.60,7.62,6.61,-6.61,-6.99,-5.65,1.01,1.01,1.02
95.39,7.61,6.65,7.61,6.66,-6.66,-7.05,-5.75,0.95,0.95,0.96
96.34,7.60,6.71,7.60,6.70,-6.70,-7.11,-5.86,0.90,0.90,0.89
97.30,7.58,6.74,7.59,6.75,-6.75,-7.17,-5.97,0.83,0.84,0.84
98.28,7.57,6.79,7.57,6.79,-6.79,-7.22,-6.08,0.78,0.78,0.78
99.26,7.55,6.84,7.55,6.83,-6.83,-7.27,-6.19,0.72,0.72,0.71
100.25,7.53,6.87,7.53,6.88,-6.88,-7.32,-6.31,0.66,0.66,0.66
101.25,7.51,6.91,7.51,6.91,-6.91,-7.36,-6.43,0.60,0.60,0.60
102.27,7.49,6.96,7.49,6.95,-6.95,-7.40,-6.55,0.54,0.53,0.53
103.29,7.46,7.00,7.46,6.99,-6.99,-7.44,-6.68,0.47,0.47,0.46
104.32,7.43,7.02,7.44,7.03,-7.03,-7.47,-6.80,0.40,0.41,0.41
105.37,7.41,7.06,7.41,7.07,-7.07,-7.50,-6.93,0.35,0.34,0.35
106.42,7.37,7.09,7.38,7.10,-7.10,-7.53,-7.05,0.27,0.28,0.28
107.48,7.34,7.13,7.35,7.14,-7.14,-7.55,-7.18,0.20,0.21,0.21
108.56,7.32,7.18,7.32,7.18,-7.18,-7.57,-7.30,0.14,0.14,0.14
109.64,7.29,7.21,7.29,7.21,-7.21,-7.59,-7.42,0.08,0.08,0.08
110.74,7.26,7.24,7.26,7.25,-7.25,-7.60,-7.54,0.01,0.01,0.02
111.85,7.23,7.28,7.23,7.29,-7.29,-7.61,-7.65,-0.05,-0.06,-0.05
112.97,7.19,7.32,7.20,7.32,-7.32,-7.61,-7.76,-0.13,-0.12,-0.13
114.10,7.16,7.35,7.16,7.35,-7.35,-7.62,-7.87,-0.19,-0.19,-0.19
115.24,7.13,7.39,7.13,7.39,-7.39,-7.61,-7.97,-0.25,-0.26,-0.26
116.39,7.09,7.42,7.09,7.42,-7.42,-7.61,-8.06,-0.32,-0.32,-0.33
117.55,7.05,7.45,7.05,7.44,-7.44,-7.60,-8.14,-0.39,-0.39,-0.40
118.73,7.01,7.47,7.02,7.47,-7.47,-7.60,-8.21,-0.46,-0.45,-0.46
119.92,6.98,7.50,6.98,7.49,-7.49,-7.58,-8.28,-0.51,-0.52,-0.52
121.12,6.93,7.51,6.94,7.52,-7.52,-7.57,-8.33,-0.58,-0.58,-0.58
122.33,6.89,7.54,6.89,7.54,-7.54,-7.55,-8.37,-0.64,-0.64,-0.65
123.55,6.85,7.55,6.85,7.56,-7.56,-7.53,-8.40,-0.70,-0.70,-0.70
124.79,6.80,7.56,6.81,7.57,-7.57,-7.51,-8.42,-0.77,-0.76,-0.76
126.03,6.76,7.57,6.76,7.58,-7.58,-7.49,-8.43,-0.82,-0.82,-0.81
127.29,6.71,7.58,6.72,7.59,-7.59,-7.46,-8.43,-0.88,-0.88,-0.87
128.57,6.66,7.60,6.67,7.60,-7.60,-7.43,-8.41,-0.94,-0.93,-0.94
129.85,6.62,7.61,6.62,7.61,-7.61,-7.40,-8.38,-0.99,-0.99,-0.99
131.15,6.57,7.61,6.57,7.61,-7.61,-7.37,-8.34,-1.04,-1.04,-1.04
132.46,6.52,7.62,6.52,7.61,-7.61,-7.34,-8.30,-1.09,-1.09,-1.10
133.79,6.47,7.61,6.47,7.61,-7.61,-7.31,-8.24,-1.14,-1.14,-1.14
135.12,6.42,7.62,6.42,7.61,-7.61,-7.27,-8.17,-1.18,-1.19,-1.20
136.48,6.36,7.59,6.37,7.60,-7.60,-7.23,-8.10,-1.24,-1.23,-1.23
137.84,6.31,7.58,6.32,7.59,-7.59,-7.20,-8.02,-1.27,-1.27,-1.27
139.22,6.26,7.58,6.26,7.57,-7.57,-7.16,-7.93,-1.31,-1.31,-1.32
140.61,6.20,7.56,6.21,7.56,-7.56,-7.12,-7.84,-1.35,-1.35,-1.36
142.02,6.15,7.53,6.15,7.53,-7.53,-7.08,-7.75,-1.38,-1.38,-1.38
143.44,6.09,7.50,6.09,7.51,-7.51,-7.04,-7.65,-1.42,-1.42,-1.41
144.87,6.03,7.48,6.04,7.48,-7.48,-6.99,-7.55,-1.45,-1.45,-1.45
146.32,5.98,7.46,5.98,7.45,-7.45,-6.95,-7.45,-1.47,-1.48,-1.48
147.78,5.91,7.41,5.91,7.42,-7.42,-6.91,-7.35,-1.51,-1.51,-1.50
149.26,5.85,7.38,5.85,7.39,-7.39,-6.87,-7.24,-1.53,-1.54,-1.53
150.75,5.78,7.35,5.79,7.35,-7.35,-6.82,-7.14,-1.57,-1.56,-1.57
152.26,5.72,7.31,5.72,7.31,-7.31,-6.78,-7.04,-1.59,-1.59,-1.59
153.78,5.65,7.27,5.65,7.27,-7.27,-6.74,-6.94,-1.62,-1.62,-1.62
155.32,5.58,7.22,5.58,7.23,-7.23,-6.69,-6.85,-1.64,-1.65,-1.64
156.88,5.51,7.18,5.51,7.18,-7.18,-6.65,-6.75,-1.67,-1.67,-1.67
158.44,5.43,7.13,5.44,7.14,-7.14,-6.61,-6.66,-1.70,-1.70,-1.70
160.03,5.36,7.09,5.36,7.09,-7.09,-6.57,-6.57,-1.72,-1.73,-1.73
161.63,5.28,7.04,5.28,7.04,-7.04,-6.52,-6.49,-1.76,-1.75,-1.76
163.24,5.20,6.99,5.21,6.99,-6.99,-6.48,-6.41,-1.79,-1.78,-1.79
164.88,5.13,6.94,5.13,6.94,-6.94,-6.44,-6.33,-1.80,-1.81,-1.81
166.53,5.04,6.87,5.04,6.88,-6.88,-6.40,-6.26,-1.84,-1.84,-1.83
168.19,4.96,6.83,4.96,6.83,-6.83,-6.36,-6.19,-1.87,-1.87,-1.87
169.87,4.87,6.77,4.88,6.78,-6.78,-6.32,-6.12,-1.90,-1.90,-1.90
171.57,4.79,6.72,4.79,6.72,-6.72,-6.28,-6.06,-1.93,-1.93,-1.93
173.29,4.69,6.64,4.70,6.67,-6.67,-6.24,-6.01,-1.97,-1.96,-1.95
175.02,4.61,6.60,4.61,6.61,-6.61,-6.20,-5.95,-2.00,-2.00,-1.99
176.77,4.52,6.55,4.52,6.55,-6.55,-6.17,-5.91,-2.03,-2.03,-2.03
178.54,4.43,6.50,4.43,6.49,-6.49,-6.13,-5.86,-2.06,-2.06,-2.07
180.32,4.33,6.43,4.33,6.43,-6.43,-6.10,-5.83,-2.10,-2.10,-2.10
182.13,4.23,6.36,4.23,6.37,-6.37,-6.06,-5.79,-2.13,-2.13,-2.13
183.95,4.13,6.30,4.13,6.30,-6.30,-6.03,-5.76,-2.17,-2.17,-2.17
185.79,4.04,6.25,4.03,6.24,-6.24,-6.00,-5.74,-2.19,-2.20,-2.21
187.65,3.93,6.18,3.93,6.17,-6.17,-5.97,-5.72,-2.23,-2.24,-2.25
189.52,3.82,6.10,3.82,6.09,-6.09,-5.94,-5.70,-2.27,-2.27,-2.28
191.42,3.72,6.02,3.72,6.02,-6.02,-5.91,-5.69,-2.29,-2.30,-2.30
193.33,3.61,5.93,3.61,5.94,-5.94,-5.88,-5.68,-2.33,-2.33,-2.32
195.27,3.50,5.85,3.50,5.86,-5.86,-5.85,-5.67,-2.36,-2.36,-2.35
197.22,3.39,5.77,3.39,5.78,-5.78,-5.83,-5.67,-2.39,-2.39,-2.38
199.19,3.29,5.72,3.28,5.69,-5.69,-5.80,-5.67,-2.40,-2.41,-2.43
201.18,3.18,5.62,3.18,5.61,-5.61,-5.78,-5.67,-2.43,-2.44,-2.44
203.19,3.07,5.53,3.07,5.53,-5.53,-5.76,-5.68,-2.45,-2.46,-2.46
205.23,2.96,5.44,2.96,5.44,-5.44,-5.73,-5.69,-2.48,-2.48,-2.48
207.28,2.86,5.35,2.86,5.36,-5.36,-5.71,-5.70,-2.50,-2.50,-2.49
209.35,2.76,5.28,2.76,5.28,-5.28,-5.70,-5.72,-2.52,-2.52,-2.52
211.44,2.67,5.21,2.67,5.21,-5.21,-5.68,-5.73,-2.53,-2.54,-2.54
213.56,2.57,5.13,2.58,5.13,-5.13,-5.66,-5.75,-2.56,-2.55,-2.56
215.69,2.49,5.05,2.50,5.06,-5.06,-5.65,-5.77,-2.57,-2.57,-2.56
217.85,2.41,4.98,2.42,5.00,-5.00,-5.64,-5.79,-2.59,-2.58,-2.57
220.03,2.34,4.94,2.35,4.94,-4.94,-5.62,-5.81,-2.60,-2.59,-2.60
222.23,2.29,4.90,2.29,4.88,-4.88,-5.61,-5.83,-2.59,-2.60,-2.61
224.45,2.23,4.83,2.24,4.84,-4.84,-5.61,-5.85,-2.61,-2.60,-2.60
226.70,2.19,4.80,2.20,4.80,-4.80,-5.60,-5.88,-2.61,-2.60,-2.61
228.96,2.16,4.77,2.17,4.77,-4.77,-5.59,-5.89,-2.61,-2.60,-2.61
231.25,2.13,4.73,2.15,4.75,-4.75,-5.59,-5.91,-2.62,-2.60,-2.60
233.57,2.12,4.71,2.14,4.73,-4.73,-5.58,-5.93,-2.61,-2.60,-2.59
235.90,2.12,4.71,2.14,4.73,-4.73,-5.58,-5.94,-2.60,-2.59,-2.59
238.26,2.15,4.74,2.15,4.73,-4.73,-5.58,-5.96,-2.58,-2.58,-2.59
240.64,2.16,4.73,2.18,4.74,-4.74,-5.58,-5.97,-2.58,-2.57,-2.57
243.05,2.21,4.76,2.21,4.76,-4.76,-5.59,-5.97,-2.55,-2.55,-2.55
245.48,2.24,4.77,2.26,4.79,-4.79,-5.59,-5.98,-2.55,-2.53,-2.53
247.93,2.30,4.82,2.31,4.83,-4.83,-5.59,-5.98,-2.52,-2.52,-2.52
250.41,2.37,4.88,2.38,4.87,-4.87,-5.60,-5.98,-2.50,-2.50,-2.51
252.92,2.45,4.92,2.45,4.93,-4.93,-5.61,-5.97,-2.47,-2.48,-2.47
255.45,2.52,4.97,2.53,4.98,-4.98,-5.62,-5.96,-2.46,-2.46,-2.45
258.00,2.61,5.04,2.62,5.05,-5.05,-5.63,-5.95,-2.44,-2.43,-2.43
260.58,2.71,5.12,2.71,5.12,-5.12,-5.64,-5.94,-2.41,-2.41,-2.41
263.19,2.81,5.20,2.81,5.20,-5.20,-5.66,-5.92,-2.38,-2.39,-2.39
265.82,2.91,5.28,2.91,5.27,-5.27,-5.67,-5.90,-2.36,-2.36,-2.37
268.48,3.02,5.36,3.02,5.36,-5.36,-5.69,-5.88,-2.34,-2.34,-2.34
271.16,3.13,5.44,3.13,5.44,-5.44,-5.71,-5.86,-2.31,-2.32,-2.31
273.87,3.24,5.53,3.24,5.53,-5.53,-5.73,-5.83,-2.29,-2.29,-2.29
276.61,3.35,5.61,3.36,5.62,-5.62,-5.75,-5.81,-2.27,-2.27,-2.26
279.38,3.47,5.71,3.47,5.71,-5.71,-5.78,-5.78,-2.24,-2.24,-2.24
282.17,3.59,5.81,3.59,5.80,-5.80,-5.80,-5.75,-2.21,-2.22,-2.22
284.99,3.70,5.89,3.70,5.89,-5.89,-5.83,-5.72,-2.19,-2.19,-2.19
287.84,3.82,5.99,3.82,5.98,-5.98,-5.85,-5.70,-2.16,-2.16,-2.17
290.72,3.94,6.07,3.94,6.07,-6.07,-5.88,-5.67,-2.13,-2.13,-2.13
293.63,4.05,6.16,4.05,6.15,-6.15,-5.91,-5.65,-2.10,-2.10,-2.11
296.57,4.16,6.24,4.16,6.24,-6.24,-5.94,-5.62,-2.08,-2.07,-2.08
299.53,4.27,6.32,4.28,6.32,-6.32,-5.98,-5.60,-2.05,-2.04,-2.05
302.53,4.38,6.41,4.38,6.40,-6.40,-6.01,-5.58,-2.01,-2.01,-2.03
305.55,4.49,6.47,4.49,6.47,-6.47,-6.04,-5.56,-1.98,-1.98,-1.98
308.61,4.60,6.55,4.60,6.55,-6.55,-6.08,-5.54,-1.95,-1.95,-1.95
311.69,4.70,6.61,4.70,6.62,-6.62,-6.12,-5.53,-1.92,-1.92,-1.91
314.81,4.80,6.68,4.80,6.69,-6.69,-6.15,-5.52,-1.88,-1.89,-1.88
317.96,4.89,6.74,4.90,6.75,-6.75,-6.19,-5.51,-1.86,-1.85,-1.85
321.14,4.99,6.81,4.99,6.82,-6.82,-6.23,-5.51,-1.82,-1.82,-1.82
324.35,5.08,6.88,5.08,6.88,-6.88,-6.27,-5.51,-1.79,-1.79,-1.80
327.59,5.17,6.93,5.17,6.94,-6.94,-6.32,-5.51,-1.76,-1.76,-1.76
330.87,5.25,6.98,5.25,6.99,-6.99,-6.36,-5.52,-1.74,-1.74,-1.73
334.18,5.33,7.04,5.33,7.04,-7.04,-6.40,-5.53,-1.71,-1.71,-1.71
337.52,5.41,7.10,5.40,7.09,-7.09,-6.45,-5.54,-1.67,-1.68,-1.69
340.90,5.47,7.13,5.47,7.13,-7.13,-6.49,-5.56,-1.66,-1.66,-1.66
344.30,5.54,7.18,5.54,7.17,-7.17,-6.53,-5.58,-1.63,-1.64,-1.64
347.75,5.59,7.20,5.59,7.21,-7.21,-6.58,-5.61,-1.62,-1.62,-1.61
351.23,5.65,7.24,5.65,7.24,-7.24,-6.62,-5.64,-1.59,-1.60,-1.59
354.74,5.70,7.28,5.70,7.27,-7.27,-6.67,-5.68,-1.57,-1.58,-1.58
358.28,5.74,7.30,5.74,7.30,-7.30,-6.71,-5.72,-1.55,-1.56,-1.56
361.87,5.77,7.31,5.78,7.31,-7.31,-6.75,-5.76,-1.54,-1.54,-1.54
365.49,5.81,7.32,5.81,7.33,-7.33,-6.80,-5.81,-1.52,-1.52,-1.51
369.14,5.83,7.33,5.84,7.34,-7.34,-6.84,-5.87,-1.51,-1.50,-1.50
372.83,5.86,7.35,5.87,7.35,-7.35,-6.88,-5.92,-1.49,-1.48,-1.49
376.56,5.89,7.36,5.89,7.35,-7.35,-6.92,-5.98,-1.46,-1.46,-1.47
380.33,5.90,7.34,5.91,7.35,-7.35,-6.96,-6.05,-1.45,-1.44,-1.44
384.13,5.92,7.34,5.93,7.35,-7.35,-7.00,-6.12,-1.42,-1.42,-1.42
387.97,5.93,7.33,5.94,7.34,-7.34,-7.04,-6.19,-1.40,-1.40,-1.40
391.85,5.94,7.32,5.94,7.32,-7.32,-7.07,-6.26,-1.38,-1.38,-1.38
395.77,5.94,7.29,5.94,7.30,-7.30,-7.11,-6.34,-1.36,-1.36,-1.35
399.73,5.95,7.28,5.94,7.27,-7.27,-7.14,-6.42,-1.32,-1.34,-1.33
403.72,5.94,7.26,5.92,7.24,-7.24,-7.17,-6.51,-1.29,-1.31,-1.32
407.76,5.93,7.23,5.90,7.20,-7.20,-7.20,-6.59,-1.26,-1.29,-1.30
411.84,5.90,7.17,5.88,7.15,-7.15,-7.22,-6.68,-1.25,-1.27,-1.27
415.96,5.89,7.14,5.85,7.10,-7.10,-7.24,-6.77,-1.21,-1.25,-1.25
420.12,5.85,7.08,5.82,7.05,-7.05,-7.26,-6.86,-1.19,-1.23,-1.23
424.32,5.81,7.01,5.79,7.00,-7.00,-7.27,-6.95,-1.18,-1.20,-1.20
428.56,5.77,6.95,5.77,6.95,-6.95,-7.28,-7.04,-1.17,-1.18,-1.18
432.85,5.73,6.89,5.75,6.90,-6.90,-7.29,-7.13,-1.17,-1.16,-1.16
437.18,5.71,6.84,5.73,6.87,-6.87,-7.29,-7.21,-1.15,-1.13,-1.13
441.55,5.69,6.79,5.73,6.84,-6.84,-7.29,-7.29,-1.15,-1.11,-1.10
445.96,5.68,6.76,5.75,6.83,-6.83,-7.28,-7.37,-1.14,-1.08,-1.08
450.42,5.70,6.77,5.77,6.83,-6.83,-7.27,-7.45,-1.12,-1.06,-1.07
454.93,5.73,6.76,5.81,6.84,-6.84,-7.26,-7.52,-1.11,-1.03,-1.03
459.48,5.79,6.80,5.86,6.86,-6.86,-7.24,-7.58,-1.07,-1.00,-1.01
464.07,5.87,6.85,5.92,6.89,-6.89,-7.22,-7.64,-1.02,-0.97,-0.98
468.71,5.96,6.90,5.98,6.93,-6.93,-7.19,-7.68,-0.97,-0.95,-0.94
473.40,6.06,6.98,6.05,6.97,-6.97,-7.15,-7.72,-0.91,-0.92,-0.92
478.13,6.17,7.06,6.13,7.02,-7.02,-7.11,-7.75,-0.84,-0.89,-0.89
482.91,6.25,7.11,6.20,7.06,-7.06,-7.07,-7.76,-0.81,-0.86,-0.86
487.74,6.34,7.17,6.27,7.10,-7.10,-7.02,-7.77,-0.76,-0.83,-0.83
492.62,6.40,7.20,6.34,7.14,-7.14,-6.97,-7.76,-0.74,-0.80,-0.80
497.55,6.43,7.21,6.40,7.18,-7.18,-6.91,-7.74,-0.74,-0.77,-0.78
