frequency,raw,error,smoothed,error_smoothed,equalization,parametric_eq,fixed_band_eq,equalized_raw,equalized_smoothed,target
20.00,0.58,-2.77,0.51,-2.85,2.85,3.13,0.12,3.43,3.37,3.34
20.20,0.67,-2.73,0.63,-2.78,2.78,3.07,0.12,3.44,3.41,3.39
20.40,0.77,-2.67,0.75,-2.70,2.70,3.01,0.13,3.46,3.44,3.44
20.61,0.85,-2.62,0.86,-2.62,2.62,2.93,0.13,3.47,3.48,3.47
20.81,0.96,-2.56,0.97,-2.54,2.54,2.85,0.14,3.49,3.51,3.52
21.02,1.05,-2.51,1.08,-2.46,2.46,2.76,0.15,3.50,3.53,3.56
21.23,1.15,-2.43,1.18,-2.38,2.38,2.67,0.15,3.52,3.56,3.58
21.44,1.24,-2.36,1.29,-2.30,2.30,2.58,0.16,3.53,3.58,3.60
21.66,1.33,-2.29,1.39,-2.22,2.22,2.48,0.17,3.55,3.60,3.62
21.87,1.43,-2.20,1.49,-2.14,2.14,2.39,0.18,3.56,3.62,3.63
22.09,1.54,-2.11,1.58,-2.06,2.06,2.29,0.18,3.59,3.64,3.65
22.31,1.66,-2.00,1.68,-1.97,1.97,2.20,0.19,3.63,3.65,3.66
22.54,1.76,-1.90,1.78,-1.88,1.88,2.10,0.20,3.64,3.66,3.66
22.76,1.89,-1.77,1.87,-1.79,1.79,2.01,0.21,3.67,3.66,3.66
22.99,2.00,-1.66,1.96,-1.70,1.70,1.92,0.22,3.70,3.66,3.65
23.22,2.09,-1.57,2.04,-1.62,1.62,1.84,0.23,3.70,3.66,3.65
23.45,2.18,-1.47,2.13,-1.54,1.54,1.75,0.24,3.71,3.66,3.65
23.69,2.26,-1.40,2.21,-1.46,1.46,1.67,0.25,3.72,3.66,3.66
23.92,2.36,-1.30,2.29,-1.38,1.38,1.59,0.26,3.73,3.66,3.66
24.16,2.40,-1.26,2.36,-1.30,1.30,1.52,0.27,3.69,3.66,3.66
24.40,2.42,-1.25,2.44,-1.22,1.22,1.45,0.28,3.64,3.66,3.67
24.65,2.44,-1.23,2.51,-1.15,1.15,1.38,0.29,3.59,3.66,3.66
24.89,2.46,-1.20,2.58,-1.09,1.09,1.31,0.30,3.54,3.66,3.66
25.14,2.54,-1.12,2.64,-1.02,1.02,1.25,0.31,3.56,3.66,3.66
25.39,2.66,-1.01,2.70,-0.97,0.97,1.19,0.32,3.62,3.66,3.67
25.65,2.77,-0.90,2.75,-0.91,0.91,1.13,0.33,3.69,3.67,3.67
25.91,2.89,-0.77,2.81,-0.86,0.86,1.08,0.34,3.75,3.66,3.66
26.16,2.96,-0.70,2.86,-0.80,0.80,1.03,0.35,3.76,3.66,3.66
26.43,2.99,-0.67,2.92,-0.74,0.74,0.98,0.36,3.73,3.66,3.66
26.69,3.03,-0.64,2.98,-0.68,0.68,0.93,0.37,3.70,3.66,3.66
26.96,3.06,-0.61,3.05,-0.61,0.61,0.88,0.38,3.66,3.66,3.66
27.23,3.08,-0.58,3.11,-0.54,0.54,0.84,0.39,3.63,3.66,3.66
27.50,3.12,-0.55,3.18,-0.48,0.48,0.80,0.40,3.59,3.65,3.66
27.77,3.15,-0.50,3.24,-0.42,0.42,0.76,0.40,3.56,3.65,3.65
28.05,3.19,-0.46,3.28,-0.37,0.37,0.72,0.41,3.55,3.65,3.65
28.33,3.29,-0.35,3.33,-0.32,0.32,0.68,0.42,3.61,3.65,3.64
28.62,3.38,-0.26,3.37,-0.28,0.28,0.65,0.43,3.67,3.65,3.64
28.90,3.49,-0.16,3.41,-0.24,0.24,0.61,0.43,3.73,3.65,3.65
29.19,3.54,-0.11,3.45,-0.20,0.20,0.58,0.44,3.73,3.65,3.64
29.48,3.56,-0.09,3.49,-0.15,0.15,0.55,0.44,3.71,3.64,3.65
29.78,3.59,-0.06,3.54,-0.10,0.10,0.52,0.44,3.69,3.64,3.64
30.08,3.61,-0.05,3.58,-0.06,0.06,0.49,0.45,3.66,3.64,3.65
30.38,3.61,-0.04,3.63,-0.01,0.01,0.46,0.45,3.62,3.64,3.64
30.68,3.62,-0.03,3.66,0.03,-0.03,0.43,0.45,3.59,3.64,3.64
30.99,3.62,-0.03,3.70,0.06,-0.06,0.41,0.45,3.56,3.64,3.64
31.30,3.66,0.03,3.72,0.09,-0.09,0.38,0.44,3.58,3.63,3.63
31.61,3.73,0.09,3.74,0.11,-0.11,0.36,0.44,3.61,3.63,3.63
31.93,3.78,0.15,3.77,0.14,-0.14,0.33,0.44,3.65,3.63,3.63
32.24,3.82,0.20,3.79,0.17,-0.17,0.31,0.43,3.65,3.62,3.62
32.57,3.85,0.23,3.82,0.20,-0.20,0.29,0.42,3.66,3.62,3.62
32.89,3.89,0.27,3.85,0.23,-0.23,0.26,0.42,3.65,3.62,3.62
33.22,3.90,0.28,3.87,0.26,-0.26,0.24,0.41,3.63,3.61,3.61
33.55,3.90,0.29,3.90,0.29,-0.29,0.22,0.40,3.60,3.61,3.61
33.89,3.90,0.29,3.92,0.32,-0.32,0.20,0.39,3.58,3.60,3.60
34.23,3.92,0.31,3.94,0.34,-0.34,0.18,0.38,3.57,3.60,3.60
34.57,3.96,0.36,3.96,0.37,-0.37,0.16,0.36,3.59,3.59,3.59
34.92,3.99,0.39,3.97,0.38,-0.38,0.14,0.35,3.60,3.59,3.59
35.27,4.00,0.41,3.98,0.40,-0.40,0.13,0.33,3.60,3.59,3.58
35.62,4.00,0.41,3.99,0.41,-0.41,0.11,0.32,3.59,3.58,3.58
35.97,4.00,0.41,4.00,0.42,-0.42,0.09,0.30,3.58,3.58,3.58
36.33,4.00,0.42,4.01,0.43,-0.43,0.07,0.29,3.57,3.58,3.58
36.70,4.00,0.42,4.01,0.43,-0.43,0.06,0.27,3.56,3.58,3.57
37.06,4.01,0.44,4.02,0.44,-0.44,0.04,0.25,3.57,3.58,3.57
37.43,4.04,0.46,4.02,0.44,-0.44,0.02,0.23,3.59,3.58,3.58
37.81,4.06,0.47,4.02,0.44,-0.44,0.01,0.22,3.61,3.58,3.58
38.19,4.06,0.48,4.02,0.44,-0.44,-0.01,0.20,3.61,3.58,3.57
38.57,4.03,0.45,4.02,0.44,-0.44,-0.03,0.18,3.59,3.58,3.58
38.95,4.00,0.41,4.01,0.43,-0.43,-0.04,0.16,3.56,3.58,3.59
39.34,4.00,0.41,4.01,0.43,-0.43,-0.06,0.14,3.56,3.58,3.58
39.74,4.00,0.41,4.01,0.43,-0.43,-0.07,0.12,3.57,3.58,3.58
40.14,4.00,0.41,4.01,0.43,-0.43,-0.09,0.10,3.57,3.58,3.58
40.54,4.00,0.41,4.00,0.43,-0.43,-0.10,0.08,3.57,3.58,3.58
40.94,4.00,0.42,4.00,0.43,-0.43,-0.12,0.06,3.57,3.57,3.57
41.35,4.00,0.42,4.00,0.43,-0.43,-0.13,0.04,3.57,3.57,3.57
41.76,4.00,0.43,3.99,0.43,-0.43,-0.15,0.02,3.56,3.56,3.56
42.18,4.00,0.44,3.99,0.44,-0.44,-0.16,-0.00,3.56,3.55,3.56
42.60,4.00,0.45,3.99,0.45,-0.45,-0.18,-0.02,3.55,3.54,3.55
43.03,4.00,0.45,3.99,0.46,-0.46,-0.19,-0.05,3.53,3.53,3.54
43.46,4.00,0.46,4.00,0.48,-0.48,-0.20,-0.07,3.52,3.52,3.53
43.90,4.00,0.48,4.00,0.49,-0.49,-0.22,-0.09,3.51,3.51,3.51
44.33,4.00,0.51,4.00,0.50,-0.50,-0.23,-0.11,3.50,3.50,3.49
44.78,4.00,0.52,4.00,0.51,-0.51,-0.25,-0.13,3.48,3.48,3.47
45.23,4.00,0.53,4.00,0.53,-0.53,-0.26,-0.15,3.47,3.47,3.46
45.68,4.00,0.54,4.00,0.54,-0.54,-0.28,-0.17,3.46,3.46,3.45
46.13,4.00,0.56,4.00,0.56,-0.56,-0.29,-0.19,3.44,3.44,3.43
46.60,4.00,0.56,4.00,0.57,-0.57,-0.31,-0.22,3.42,3.43,3.43
47.06,4.00,0.58,4.00,0.59,-0.59,-0.32,-0.24,3.40,3.41,3.41
47.53,4.00,0.59,4.00,0.61,-0.61,-0.34,-0.26,3.39,3.40,3.40
48.01,4.00,0.59,4.00,0.62,-0.62,-0.35,-0.28,3.38,3.38,3.40
48.49,4.00,0.61,4.00,0.63,-0.63,-0.37,-0.30,3.36,3.37,3.38
48.97,4.00,0.64,4.00,0.64,-0.64,-0.38,-0.32,3.35,3.36,3.36
49.46,4.00,0.66,3.99,0.65,-0.65,-0.40,-0.35,3.35,3.34,3.34
49.96,4.00,0.67,3.98,0.65,-0.65,-0.41,-0.37,3.35,3.33,3.32
50.46,4.00,0.68,3.96,0.65,-0.65,-0.43,-0.39,3.35,3.32,3.31
50.96,4.00,0.69,3.95,0.65,-0.65,-0.44,-0.41,3.35,3.30,3.30
51.47,3.95,0.66,3.94,0.65,-0.65,-0.46,-0.44,3.30,3.29,3.28
51.99,3.90,0.63,3.92,0.65,-0.65,-0.47,-0.46,3.25,3.28,3.27
52.51,3.90,0.63,3.91,0.64,-0.64,-0.49,-0.48,3.25,3.26,3.26
53.03,3.90,0.63,3.89,0.64,-0.64,-0.51,-0.50,3.26,3.25,3.26
53.56,3.84,0.59,3.87,0.63,-0.63,-0.52,-0.53,3.21,3.24,3.24
54.10,3.80,0.57,3.84,0.62,-0.62,-0.54,-0.55,3.18,3.23,3.23
54.64,3.80,0.58,3.82,0.60,-0.60,-0.56,-0.57,3.20,3.22,3.21
55.18,3.80,0.59,3.79,0.58,-0.58,-0.57,-0.59,3.21,3.21,3.21
55.74,3.80,0.60,3.77,0.57,-0.57,-0.59,-0.61,3.22,3.20,3.19
56.29,3.79,0.60,3.74,0.56,-0.56,-0.61,-0.64,3.23,3.18,3.18
56.86,3.76,0.59,3.72,0.55,-0.55,-0.62,-0.66,3.21,3.17,3.17
57.42,3.69,0.55,3.69,0.54,-0.54,-0.64,-0.68,3.16,3.15,3.14
58.00,3.64,0.51,3.66,0.53,-0.53,-0.66,-0.70,3.11,3.13,3.13
58.58,3.62,0.49,3.62,0.51,-0.51,-0.68,-0.72,3.10,3.11,3.12
59.16,3.59,0.49,3.59,0.50,-0.50,-0.70,-0.75,3.10,3.09,3.10
59.76,3.54,0.46,3.55,0.49,-0.49,-0.71,-0.77,3.05,3.06,3.08
60.35,3.52,0.48,3.51,0.48,-0.48,-0.73,-0.79,3.04,3.03,3.04
60.96,3.52,0.51,3.46,0.47,-0.47,-0.75,-0.81,3.05,2.99,3.00
61.57,3.45,0.49,3.42,0.46,-0.46,-0.77,-0.83,2.98,2.96,2.96
62.18,3.38,0.45,3.38,0.46,-0.46,-0.79,-0.85,2.91,2.92,2.92
62.80,3.33,0.45,3.35,0.47,-0.47,-0.81,-0.87,2.86,2.88,2.87
63.43,3.29,0.46,3.32,0.48,-0.48,-0.83,-0.89,2.80,2.84,2.83
64.07,3.26,0.47,3.29,0.50,-0.50,-0.85,-0.91,2.76,2.79,2.78
64.71,3.24,0.49,3.27,0.52,-0.52,-0.87,-0.93,2.71,2.75,2.74
65.35,3.23,0.53,3.25,0.55,-0.55,-0.90,-0.95,2.68,2.70,2.70
66.01,3.23,0.57,3.23,0.58,-0.58,-0.92,-0.97,2.65,2.65,2.65
66.67,3.23,0.62,3.22,0.61,-0.61,-0.94,-0.99,2.61,2.60,2.60
67.33,3.23,0.68,3.21,0.65,-0.65,-0.96,-1.01,2.57,2.56,2.55
68.01,3.23,0.71,3.20,0.70,-0.70,-0.98,-1.03,2.53,2.51,2.51
68.69,3.23,0.76,3.21,0.75,-0.75,-1.01,-1.05,2.48,2.46,2.46
69.37,3.23,0.82,3.21,0.81,-0.81,-1.03,-1.07,2.42,2.41,2.41
70.07,3.23,0.86,3.22,0.87,-0.87,-1.05,-1.09,2.36,2.35,2.36
70.77,3.23,0.91,3.23,0.93,-0.93,-1.08,-1.11,2.30,2.30,2.31
71.48,3.23,0.96,3.24,0.99,-0.99,-1.10,-1.13,2.23,2.25,2.26
72.19,3.23,1.04,3.25,1.06,-1.06,-1.13,-1.15,2.17,2.19,2.19
72.91,3.23,1.10,3.26,1.12,-1.12,-1.15,-1.18,2.10,2.13,2.13
73.64,3.26,1.18,3.27,1.19,-1.19,-1.18,-1.20,2.07,2.08,2.08
74.38,3.29,1.26,3.27,1.25,-1.25,-1.20,-1.22,2.03,2.02,2.02
75.12,3.32,1.36,3.28,1.32,-1.32,-1.23,-1.25,2.00,1.97,1.96
75.87,3.32,1.42,3.29,1.38,-1.38,-1.26,-1.27,1.93,1.91,1.90
76.63,3.32,1.47,3.30,1.44,-1.44,-1.29,-1.30,1.87,1.86,1.85
77.40,3.32,1.51,3.31,1.50,-1.50,-1.31,-1.33,1.81,1.80,1.80
78.17,3.32,1.58,3.31,1.56,-1.56,-1.34,-1.35,1.75,1.75,1.74
78.95,3.32,1.62,3.32,1.62,-1.62,-1.37,-1.38,1.70,1.70,1.70
79.74,3.32,1.67,3.33,1.68,-1.68,-1.40,-1.41,1.64,1.65,1.65
80.54,3.32,1.72,3.33,1.73,-1.73,-1.43,-1.45,1.59,1.60,1.60
81.35,3.32,1.76,3.33,1.78,-1.78,-1.46,-1.48,1.54,1.55,1.55
82.16,3.32,1.81,3.32,1.82,-1.82,-1.49,-1.51,1.50,1.50,1.50
82.98,3.32,1.86,3.32,1.86,-1.86,-1.52,-1.55,1.45,1.46,1.46
83.81,3.32,1.91,3.31,1.90,-1.90,-1.55,-1.58,1.41,1.41,1.41
84.65,3.32,1.95,3.31,1.95,-1.95,-1.58,-1.62,1.36,1.36,1.36
85.50,3.32,1.99,3.31,2.00,-2.00,-1.62,-1.66,1.32,1.31,1.32
86.35,3.32,2.05,3.30,2.04,-2.04,-1.65,-1.70,1.27,1.26,1.27
87.22,3.32,2.09,3.29,2.08,-2.08,-1.68,-1.74,1.23,1.21,1.22
88.09,3.31,2.13,3.28,2.12,-2.12,-1.72,-1.78,1.19,1.16,1.17
88.97,3.23,2.11,3.27,2.15,-2.15,-1.75,-1.83,1.07,1.11,1.11
89.86,3.23,2.16,3.25,2.19,-2.19,-1.79,-1.87,1.04,1.06,1.06
90.76,3.23,2.21,3.23,2.22,-2.22,-1.82,-1.92,1.01,1.01,1.01
91.66,3.23,2.27,3.20,2.24,-2.24,-1.86,-1.97,0.98,0.96,0.96
92.58,3.23,2.32,3.18,2.27,-2.27,-1.89,-2.02,0.96,0.91,0.90
93.51,3.18,2.32,3.15,2.29,-2.29,-1.93,-2.07,0.88,0.86,0.85
94.44,3.14,2.32,3.13,2.32,-2.32,-1.97,-2.12,0.82,0.81,0.81
95.39,3.10,2.33,3.10,2.35,-2.35,-2.01,-2.18,0.75,0.76,0.76
96.34,3.04,2.32,3.08,2.37,-2.37,-2.04,-2.23,0.66,0.71,0.71
97.30,3.03,2.37,3.06,2.40,-2.40,-2.08,-2.29,0.62,0.66,0.66
98.28,3.02,2.40,3.04,2.43,-2.43,-2.12,-2.34,0.59,0.61,0.61
99.26,3.01,2.43,3.02,2.45,-2.45,-2.16,-2.40,0.55,0.57,0.57
100.25,2.99,2.47,2.99,2.47,-2.47,-2.20,-2.46,0.51,0.52,0.52
101.25,2.97,2.50,2.96,2.49,-2.49,-2.24,-2.52,0.47,0.47,0.47
102.27,2.96,2.53,2.93,2.51,-2.51,-2.28,-2.58,0.44,0.42,0.42
103.29,2.95,2.57,2.90,2.53,-2.53,-2.32,-2.64,0.41,0.37,0.37
104.32,2.93,2.59,2.88,2.55,-2.55,-2.36,-2.70,0.37,0.32,0.33
105.37,2.90,2.61,2.85,2.58,-2.58,-2.40,-2.76,0.32,0.27,0.28
106.42,2.86,2.62,2.83,2.60,-2.60,-2.44,-2.81,0.25,0.22,0.23
107.48,2.79,2.61,2.81,2.64,-2.64,-2.49,-2.87,0.15,0.17,0.17
108.56,2.73,2.60,2.78,2.66,-2.66,-2.53,-2.93,0.06,0.12,0.12
109.64,2.71,2.64,2.75,2.69,-2.69,-2.57,-2.99,0.02,0.07,0.07
110.74,2.69,2.67,2.73,2.71,-2.71,-2.61,-3.04,-0.03,0.01,0.01
111.85,2.67,2.69,2.70,2.74,-2.74,-2.66,-3.09,-0.07,-0.04,-0.03
112.97,2.67,2.75,2.67,2.76,-2.76,-2.70,-3.15,-0.09,-0.09,-0.09
114.10,2.66,2.79,2.64,2.78,-2.78,-2.74,-3.19,-0.12,-0.14,-0.14
115.24,2.66,2.84,2.62,2.80,-2.80,-2.78,-3.24,-0.15,-0.18,-0.19
116.39,2.66,2.89,2.60,2.83,-2.83,-2.83,-3.28,-0.17,-0.23,-0.24
117.55,2.66,2.93,2.58,2.85,-2.85,-2.87,-3.32,-0.20,-0.27,-0.28
118.73,2.62,2.93,2.57,2.88,-2.88,-2.91,-3.36,-0.26,-0.31,-0.32
119.92,2.51,2.86,2.56,2.91,-2.91,-2.95,-3.39,-0.41,-0.35,-0.35
121.12,2.49,2.87,2.56,2.94,-2.94,-3.00,-3.42,-0.46,-0.38,-0.39
122.33,2.50,2.91,2.55,2.96,-2.96,-3.04,-3.44,-0.47,-0.42,-0.42
123.55,2.51,2.95,2.53,2.99,-2.99,-3.08,-3.46,-0.48,-0.45,-0.45
124.79,2.51,2.98,2.53,3.01,-3.01,-3.12,-3.48,-0.50,-0.48,-0.48
126.03,2.52,3.03,2.52,3.03,-3.03,-3.16,-3.49,-0.52,-0.51,-0.51
127.29,2.53,3.06,2.51,3.05,-3.05,-3.20,-3.50,-0.53,-0.54,-0.53
128.57,2.53,3.09,2.50,3.07,-3.07,-3.24,-3.51,-0.55,-0.57,-0.57
129.85,2.54,3.13,2.49,3.09,-3.09,-3.28,-3.51,-0.56,-0.60,-0.60
131.15,2.54,3.16,2.49,3.12,-3.12,-3.31,-3.50,-0.58,-0.63,-0.63
132.46,2.53,3.18,2.48,3.14,-3.14,-3.35,-3.49,-0.61,-0.66,-0.66
133.79,2.46,3.15,2.48,3.16,-3.16,-3.39,-3.48,-0.71,-0.69,-0.69
135.12,2.44,3.16,2.47,3.18,-3.18,-3.42,-3.47,-0.75,-0.71,-0.72
136.48,2.47,3.20,2.46,3.20,-3.20,-3.46,-3.45,-0.73,-0.74,-0.74
137.84,2.47,3.24,2.44,3.21,-3.21,-3.49,-3.43,-0.74,-0.77,-0.78
139.22,2.41,3.21,2.42,3.22,-3.22,-3.52,-3.41,-0.82,-0.80,-0.81
140.61,2.37,3.20,2.40,3.23,-3.23,-3.55,-3.39,-0.87,-0.83,-0.84
142.02,2.37,3.22,2.39,3.25,-3.25,-3.58,-3.37,-0.89,-0.86,-0.86
143.44,2.37,3.25,2.38,3.28,-3.28,-3.61,-3.34,-0.91,-0.89,-0.89
144.87,2.37,3.29,2.38,3.31,-3.31,-3.64,-3.31,-0.95,-0.93,-0.93
146.32,2.37,3.33,2.37,3.34,-3.34,-3.66,-3.29,-0.98,-0.98,-0.97
147.78,2.37,3.37,2.35,3.38,-3.38,-3.68,-3.26,-1.01,-1.03,-1.00
149.26,2.35,3.39,2.33,3.41,-3.41,-3.71,-3.23,-1.07,-1.08,-1.05
150.75,2.29,3.40,2.31,3.45,-3.45,-3.73,-3.20,-1.16,-1.14,-1.11
152.26,2.26,3.44,2.27,3.47,-3.47,-3.74,-3.18,-1.22,-1.20,-1.18
153.78,2.28,3.53,2.24,3.50,-3.50,-3.76,-3.15,-1.22,-1.26,-1.25
155.32,2.29,3.61,2.20,3.53,-3.53,-3.77,-3.12,-1.24,-1.33,-1.32
156.88,2.30,3.69,2.15,3.56,-3.56,-3.79,-3.10,-1.26,-1.40,-1.40
158.44,2.17,3.64,2.11,3.58,-3.58,-3.80,-3.08,-1.42,-1.47,-1.48
160.03,2.07,3.62,2.06,3.60,-3.60,-3.81,-3.06,-1.54,-1.54,-1.56
161.63,1.94,3.56,2.02,3.62,-3.62,-3.81,-3.04,-1.69,-1.61,-1.63
163.24,1.90,3.59,1.97,3.64,-3.64,-3.82,-3.02,-1.75,-1.67,-1.69
164.88,1.89,3.62,1.94,3.67,-3.67,-3.82,-3.00,-1.78,-1.72,-1.74
166.53,1.84,3.62,1.91,3.68,-3.68,-3.82,-2.99,-1.85,-1.77,-1.79
168.19,1.80,3.62,1.89,3.70,-3.70,-3.82,-2.98,-1.90,-1.81,-1.83
169.87,1.82,3.69,1.86,3.71,-3.71,-3.82,-2.97,-1.89,-1.85,-1.87
171.57,1.87,3.75,1.84,3.71,-3.71,-3.81,-2.96,-1.84,-1.87,-1.89
173.29,1.87,3.76,1.82,3.71,-3.71,-3.81,-2.96,-1.84,-1.89,-1.90
175.02,1.85,3.75,1.81,3.72,-3.72,-3.80,-2.96,-1.87,-1.90,-1.91
176.77,1.85,3.76,1.81,3.73,-3.73,-3.79,-2.96,-1.88,-1.91,-1.92
178.54,1.85,3.77,1.81,3.73,-3.73,-3.77,-2.96,-1.89,-1.92,-1.93
180.32,1.85,3.76,1.81,3.73,-3.73,-3.76,-2.96,-1.89,-1.93,-1.92
182.13,1.86,3.76,1.80,3.73,-3.73,-3.74,-2.97,-1.87,-1.93,-1.91
183.95,1.77,3.69,1.78,3.72,-3.72,-3.72,-2.98,-1.96,-1.94,-1.92
185.79,1.78,3.69,1.78,3.72,-3.72,-3.70,-2.99,-1.95,-1.95,-1.92
187.65,1.72,3.66,1.77,3.72,-3.72,-3.68,-3.00,-2.01,-1.95,-1.94
189.52,1.72,3.66,1.76,3.72,-3.72,-3.66,-3.02,-2.00,-1.96,-1.95
191.42,1.73,3.69,1.74,3.71,-3.71,-3.63,-3.04,-1.99,-1.98,-1.97
193.33,1.74,3.72,1.72,3.71,-3.71,-3.61,-3.06,-1.97,-1.99,-1.99
195.27,1.69,3.70,1.70,3.71,-3.71,-3.58,-3.08,-2.02,-2.01,-2.01
197.22,1.64,3.66,1.68,3.71,-3.71,-3.55,-3.10,-2.07,-2.03,-2.03
199.19,1.67,3.71,1.66,3.71,-3.71,-3.52,-3.12,-2.04,-2.04,-2.05
201.18,1.69,3.75,1.64,3.71,-3.71,-3.49,-3.15,-2.02,-2.07,-2.07
203.19,1.71,3.79,1.62,3.71,-3.71,-3.45,-3.18,-2.01,-2.09,-2.09
205.23,1.70,3.80,1.61,3.72,-3.72,-3.42,-3.20,-2.02,-2.11,-2.11
207.28,1.57,3.69,1.59,3.72,-3.72,-3.38,-3.23,-2.15,-2.13,-2.12
209.35,1.49,3.62,1.57,3.72,-3.72,-3.35,-3.26,-2.23,-2.15,-2.14
211.44,1.49,3.65,1.54,3.70,-3.70,-3.31,-3.29,-2.22,-2.16,-2.17
213.56,1.50,3.67,1.50,3.68,-3.68,-3.27,-3.32,-2.19,-2.18,-2.18
215.69,1.50,3.68,1.47,3.66,-3.66,-3.24,-3.35,-2.17,-2.19,-2.19
217.85,1.49,3.68,1.45,3.65,-3.65,-3.20,-3.37,-2.17,-2.20,-2.20
220.03,1.40,3.60,1.42,3.63,-3.63,-3.16,-3.40,-2.23,-2.21,-2.21
222.23,1.37,3.60,1.38,3.60,-3.60,-3.12,-3.42,-2.23,-2.22,-2.24
224.45,1.42,3.64,1.35,3.57,-3.57,-3.08,-3.45,-2.15,-2.22,-2.23
226.70,1.35,3.58,1.31,3.54,-3.54,-3.04,-3.47,-2.19,-2.22,-2.23
228.96,1.30,3.51,1.29,3.51,-3.51,-3.00,-3.49,-2.21,-2.22,-2.22
231.25,1.19,3.39,1.27,3.48,-3.48,-2.95,-3.50,-2.29,-2.21,-2.21
233.57,1.16,3.36,1.25,3.44,-3.44,-2.91,-3.52,-2.29,-2.20,-2.20
235.90,1.21,3.39,1.22,3.40,-3.40,-2.87,-3.53,-2.20,-2.18,-2.19
238.26,1.28,3.45,1.19,3.36,-3.36,-2.83,-3.53,-2.08,-2.17,-2.18
240.64,1.19,3.33,1.17,3.31,-3.31,-2.79,-3.53,-2.13,-2.15,-2.15
243.05,1.09,3.20,1.14,3.26,-3.26,-2.74,-3.53,-2.18,-2.13,-2.12
245.48,1.09,3.18,1.11,3.21,-3.21,-2.70,-3.52,-2.13,-2.10,-2.10
247.93,1.13,3.19,1.08,3.16,-3.16,-2.66,-3.51,-2.03,-2.08,-2.07
250.41,1.07,3.11,1.04,3.10,-3.10,-2.62,-3.50,-2.03,-2.06,-2.05
252.92,1.07,3.08,1.02,3.05,-3.05,-2.58,-3.47,-1.98,-2.03,-2.02
255.45,1.00,3.00,0.99,2.99,-2.99,-2.54,-3.45,-2.00,-2.01,-2.00
258.00,0.97,2.94,0.95,2.93,-2.93,-2.49,-3.42,-1.97,-1.98,-1.98
260.58,0.91,2.86,0.91,2.87,-2.87,-2.45,-3.38,-1.96,-1.96,-1.96
263.19,0.86,2.79,0.86,2.79,-2.79,-2.41,-3.35,-1.94,-1.93,-1.93
265.82,0.81,2.71,0.82,2.73,-2.73,-2.37,-3.30,-1.92,-1.91,-1.91
268.48,0.75,2.64,0.78,2.66,-2.66,-2.33,-3.26,-1.92,-1.88,-1.89
271.16,0.71,2.56,0.73,2.59,-2.59,-2.29,-3.21,-1.89,-1.86,-1.86
273.87,0.70,2.53,0.68,2.52,-2.52,-2.25,-3.15,-1.82,-1.83,-1.84
276.61,0.65,2.45,0.63,2.44,-2.44,-2.21,-3.10,-1.79,-1.81,-1.81
279.38,0.66,2.43,0.58,2.36,-2.36,-2.17,-3.04,-1.71,-1.78,-1.78
282.17,0.55,2.30,0.54,2.29,-2.29,-2.14,-2.97,-1.75,-1.75,-1.76
284.99,0.51,2.22,0.51,2.24,-2.24,-2.10,-2.91,-1.73,-1.72,-1.72
287.84,0.52,2.21,0.49,2.18,-2.18,-2.06,-2.84,-1.67,-1.70,-1.70
290.72,0.45,2.11,0.47,2.13,-2.13,-2.02,-2.78,-1.69,-1.67,-1.67
293.63,0.40,2.03,0.45,2.09,-2.09,-1.99,-2.71,-1.69,-1.64,-1.64
296.57,0.37,1.98,0.44,2.05,-2.05,-1.95,-2.64,-1.68,-1.61,-1.61
299.53,0.38,1.95,0.43,2.01,-2.01,-1.91,-2.57,-1.64,-1.58,-1.58
302.53,0.36,1.91,0.43,1.98,-1.98,-1.88,-2.50,-1.63,-1.55,-1.56
305.55,0.38,1.90,0.43,1.96,-1.96,-1.84,-2.43,-1.58,-1.53,-1.52
308.61,0.48,1.97,0.43,1.93,-1.93,-1.81,-2.35,-1.46,-1.50,-1.50
311.69,0.52,1.98,0.43,1.91,-1.91,-1.78,-2.28,-1.39,-1.48,-1.47
314.81,0.53,1.97,0.43,1.88,-1.88,-1.74,-2.21,-1.36,-1.46,-1.45
317.96,0.46,1.88,0.42,1.86,-1.86,-1.71,-2.14,-1.40,-1.44,-1.43
321.14,0.42,1.83,0.42,1.83,-1.83,-1.68,-2.07,-1.42,-1.42,-1.42
324.35,0.42,1.81,0.41,1.81,-1.81,-1.65,-2.00,-1.40,-1.40,-1.40
327.59,0.42,1.80,0.40,1.78,-1.78,-1.61,-1.93,-1.37,-1.39,-1.39
330.87,0.42,1.79,0.38,1.75,-1.75,-1.58,-1.87,-1.33,-1.37,-1.38
334.18,0.38,1.73,0.35,1.71,-1.71,-1.55,-1.80,-1.34,-1.36,-1.36
337.52,0.27,1.61,0.33,1.68,-1.68,-1.52,-1.73,-1.41,-1.35,-1.35
340.90,0.23,1.57,0.29,1.63,-1.63,-1.49,-1.67,-1.41,-1.34,-1.34
344.30,0.22,1.54,0.26,1.59,-1.59,-1.46,-1.60,-1.38,-1.34,-1.33
347.75,0.22,1.54,0.23,1.56,-1.56,-1.44,-1.54,-1.34,-1.33,-1.33
351.23,0.22,1.53,0.19,1.52,-1.52,-1.41,-1.48,-1.30,-1.32,-1.32
354.74,0.16,1.48,0.16,1.48,-1.48,-1.38,-1.42,-1.33,-1.32,-1.33
358.28,0.13,1.44,0.12,1.43,-1.43,-1.35,-1.36,-1.31,-1.32,-1.32
361.87,0.08,1.39,0.07,1.39,-1.39,-1.33,-1.30,-1.31,-1.32,-1.32
365.49,0.05,1.35,0.03,1.34,-1.34,-1.30,-1.24,-1.30,-1.32,-1.31
369.14,0.05,1.36,-0.02,1.30,-1.30,-1.28,-1.19,-1.25,-1.32,-1.32
372.83,-0.01,1.30,-0.06,1.26,-1.26,-1.25,-1.13,-1.27,-1.32,-1.32
376.56,-0.11,1.21,-0.11,1.21,-1.21,-1.23,-1.08,-1.33,-1.32,-1.33
380.33,-0.14,1.17,-0.16,1.16,-1.16,-1.20,-1.02,-1.30,-1.32,-1.32
384.13,-0.24,1.07,-0.22,1.10,-1.10,-1.18,-0.97,-1.35,-1.33,-1.32
387.97,-0.33,0.99,-0.29,1.04,-1.04,-1.15,-0.92,-1.38,-1.33,-1.33
391.85,-0.38,0.95,-0.34,0.99,-0.99,-1.13,-0.87,-1.38,-1.34,-1.34
395.77,-0.39,0.93,-0.39,0.95,-0.95,-1.11,-0.82,-1.34,-1.34,-1.33
399.73,-0.39,0.94,-0.45,0.90,-0.90,-1.09,-0.78,-1.29,-1.35,-1.34
403.72,-0.47,0.86,-0.50,0.85,-0.85,-1.07,-0.73,-1.33,-1.35,-1.34
407.76,-0.56,0.79,-0.55,0.80,-0.80,-1.04,-0.68,-1.37,-1.36,-1.36
411.84,-0.60,0.75,-0.60,0.76,-0.76,-1.02,-0.64,-1.37,-1.36,-1.36
415.96,-0.67,0.68,-0.63,0.73,-0.73,-1.00,-0.60,-1.40,-1.36,-1.36
420.12,-0.69,0.66,-0.66,0.69,-0.69,-0.98,-0.55,-1.39,-1.36,-1.36
424.32,-0.68,0.67,-0.69,0.66,-0.66,-0.96,-0.51,-1.34,-1.35,-1.36
428.56,-0.67,0.67,-0.71,0.63,-0.63,-0.94,-0.47,-1.31,-1.34,-1.35
432.85,-0.67,0.66,-0.71,0.61,-0.61,-0.92,-0.43,-1.29,-1.33,-1.34
437.18,-0.75,0.58,-0.71,0.59,-0.59,-0.90,-0.40,-1.35,-1.31,-1.33
441.55,-0.78,0.50,-0.71,0.57,-0.57,-0.89,-0.36,-1.35,-1.28,-1.29
445.96,-0.75,0.50,-0.71,0.54,-0.54,-0.87,-0.33,-1.30,-1.25,-1.26
450.42,-0.69,0.53,-0.69,0.53,-0.53,-0.85,-0.30,-1.22,-1.21,-1.23
454.93,-0.66,0.51,-0.66,0.51,-0.51,-0.83,-0.26,-1.18,-1.17,-1.18
459.48,-0.68,0.45,-0.63,0.49,-0.49,-0.82,-0.23,-1.18,-1.13,-1.14
464.07,-0.62,0.46,-0.61,0.47,-0.47,-0.80,-0.21,-1.09,-1.08,-1.09
468.71,-0.56,0.46,-0.59,0.44,-0.44,-0.78,-0.18,-1.01,-1.03,-1.03
473.40,-0.49,0.49,-0.58,0.41,-0.41,-0.77,-0.15,-0.90,-0.99,-0.99
478.13,-0.51,0.41,-0.58,0.36,-0.36,-0.75,-0.13,-0.88,-0.94,-0.93
482.91,-0.58,0.30,-0.57,0.32,-0.32,-0.74,-0.11,-0.91,-0.89,-0.89
487.74,-0.59,0.25,-0.56,0.29,-0.29,-0.72,-0.09,-0.88,-0.85,-0.85
492.62,-0.52,0.27,-0.57,0.24,-0.24,-0.71,-0.07,-0.77,-0.81,-0.80
497.55,-0.51,0.26,-0.59,0.19,-0.19,-0.69,-0.06,-0.71,-0.78,-0.78
502.52,-0.57,0.17,-0.62,0.14,-0.14,-0.68,-0.04,-0.72,-0.76,-0.75
507.55,-0.69,0.05,-0.66,0.09,-0.09,-0.66,-0.03,-0.78,-0.75,-0.74
