frequency,raw,error,smoothed,error_smoothed,equalization,parametric_eq,fixed_band_eq,equalized_raw,equalized_smoothed,target
20.00,0.58,-3.90,0.51,-3.99,3.99,3.47,0.66,4.57,4.51,4.48
20.20,0.67,-3.86,0.63,-3.91,3.91,3.40,0.68,4.58,4.54,4.53
20.40,0.77,-3.81,0.75,-3.83,3.83,3.33,0.70,4.60,4.58,4.58
20.61,0.85,-3.75,0.86,-3.75,3.75,3.26,0.73,4.60,4.61,4.60
20.81,0.96,-3.70,0.97,-3.67,3.67,3.20,0.75,4.63,4.64,4.65
21.02,1.05,-3.65,1.08,-3.59,3.59,3.13,0.77,4.64,4.67,4.69
21.23,1.15,-3.57,1.18,-3.51,3.51,3.07,0.80,4.65,4.69,4.71
21.44,1.24,-3.50,1.29,-3.43,3.43,3.00,0.82,4.67,4.71,4.73
21.66,1.33,-3.42,1.39,-3.35,3.35,2.94,0.84,4.68,4.73,4.75
21.87,1.43,-3.34,1.49,-3.27,3.27,2.88,0.87,4.69,4.75,4.76
22.09,1.54,-3.24,1.58,-3.18,3.18,2.82,0.90,4.72,4.77,4.78
22.31,1.66,-3.13,1.68,-3.10,3.10,2.76,0.92,4.76,4.78,4.79
22.54,1.76,-3.03,1.78,-3.01,3.01,2.70,0.95,4.77,4.79,4.79
22.76,1.89,-2.90,1.87,-2.92,2.92,2.64,0.98,4.80,4.79,4.79
22.99,2.00,-2.78,1.96,-2.83,2.83,2.58,1.01,4.83,4.79,4.78
23.22,2.09,-2.69,2.04,-2.75,2.75,2.52,1.04,4.83,4.79,4.78
23.45,2.18,-2.60,2.13,-2.67,2.67,2.47,1.07,4.84,4.79,4.78
23.69,2.26,-2.52,2.21,-2.59,2.59,2.41,1.10,4.85,4.79,4.79
23.92,2.36,-2.43,2.29,-2.51,2.51,2.36,1.13,4.86,4.79,4.79
24.16,2.40,-2.40,2.36,-2.43,2.43,2.31,1.16,4.82,4.79,4.79
24.40,2.42,-2.39,2.44,-2.35,2.35,2.25,1.20,4.77,4.79,4.80
24.65,2.44,-2.36,2.51,-2.28,2.28,2.20,1.23,4.72,4.79,4.79
24.89,2.46,-2.34,2.58,-2.22,2.22,2.15,1.26,4.67,4.79,4.79
25.14,2.54,-2.25,2.64,-2.15,2.15,2.10,1.30,4.69,4.79,4.79
25.39,2.66,-2.14,2.70,-2.10,2.10,2.05,1.33,4.75,4.79,4.80
25.65,2.77,-2.02,2.75,-2.04,2.04,2.01,1.36,4.82,4.79,4.80
25.91,2.89,-1.89,2.81,-1.99,1.99,1.96,1.39,4.88,4.79,4.79
26.16,2.96,-1.83,2.86,-1.93,1.93,1.91,1.43,4.89,4.79,4.79
26.43,2.99,-1.79,2.92,-1.87,1.87,1.87,1.46,4.86,4.79,4.79
26.69,3.03,-1.76,2.98,-1.80,1.80,1.82,1.49,4.83,4.79,4.78
26.96,3.06,-1.74,3.05,-1.74,1.74,1.78,1.52,4.79,4.78,4.79
27.23,3.08,-1.71,3.11,-1.67,1.67,1.74,1.55,4.75,4.78,4.79
27.50,3.12,-1.67,3.18,-1.60,1.60,1.70,1.58,4.72,4.78,4.79
27.77,3.15,-1.63,3.24,-1.54,1.54,1.66,1.61,4.69,4.78,4.78
28.05,3.19,-1.59,3.28,-1.49,1.49,1.62,1.63,4.68,4.78,4.78
28.33,3.29,-1.48,3.33,-1.45,1.45,1.58,1.66,4.74,4.78,4.77
28.62,3.38,-1.38,3.37,-1.41,1.41,1.54,1.68,4.79,4.77,4.76
28.90,3.49,-1.29,3.41,-1.37,1.37,1.50,1.70,4.85,4.77,4.77
29.19,3.54,-1.22,3.45,-1.32,1.32,1.46,1.72,4.86,4.77,4.76
29.48,3.56,-1.22,3.49,-1.27,1.27,1.43,1.74,4.83,4.77,4.78
29.78,3.59,-1.18,3.54,-1.23,1.23,1.39,1.75,4.81,4.77,4.77
30.08,3.61,-1.17,3.58,-1.18,1.18,1.36,1.76,4.78,4.76,4.77
30.38,3.61,-1.16,3.63,-1.14,1.14,1.32,1.77,4.74,4.76,4.76
30.68,3.62,-1.14,3.66,-1.10,1.10,1.29,1.77,4.71,4.76,4.76
30.99,3.62,-1.14,3.70,-1.06,1.06,1.25,1.78,4.68,4.76,4.76
31.30,3.66,-1.09,3.72,-1.03,1.03,1.22,1.78,4.70,4.76,4.76
31.61,3.73,-1.03,3.74,-1.01,1.01,1.19,1.77,4.73,4.75,4.75
31.93,3.78,-0.97,3.77,-0.98,0.98,1.16,1.77,4.77,4.75,4.75
32.24,3.82,-0.92,3.79,-0.95,0.95,1.13,1.76,4.77,4.74,4.74
32.57,3.85,-0.89,3.82,-0.92,0.92,1.10,1.75,4.77,4.74,4.74
32.89,3.89,-0.86,3.85,-0.89,0.89,1.07,1.73,4.77,4.73,4.74
33.22,3.90,-0.83,3.87,-0.85,0.85,1.04,1.72,4.75,4.73,4.73
33.55,3.90,-0.83,3.90,-0.82,0.82,1.01,1.70,4.72,4.72,4.73
33.89,3.90,-0.82,3.92,-0.80,0.80,0.98,1.68,4.69,4.72,4.71
34.23,3.92,-0.80,3.94,-0.77,0.77,0.95,1.65,4.69,4.71,4.72
34.57,3.96,-0.75,3.96,-0.75,0.75,0.93,1.63,4.71,4.71,4.71
34.92,3.99,-0.72,3.97,-0.73,0.73,0.90,1.60,4.72,4.70,4.70
35.27,4.00,-0.70,3.98,-0.72,0.72,0.87,1.57,4.71,4.70,4.70
35.62,4.00,-0.70,3.99,-0.70,0.70,0.85,1.54,4.70,4.70,4.69
35.97,4.00,-0.69,4.00,-0.69,0.69,0.82,1.51,4.69,4.69,4.69
36.33,4.00,-0.70,4.01,-0.68,0.68,0.80,1.48,4.68,4.69,4.70
36.70,4.00,-0.69,4.01,-0.68,0.68,0.77,1.45,4.67,4.69,4.68
37.06,4.01,-0.67,4.02,-0.67,0.67,0.75,1.41,4.68,4.69,4.68
37.43,4.04,-0.66,4.02,-0.67,0.67,0.72,1.38,4.70,4.69,4.69
37.81,4.06,-0.63,4.02,-0.66,0.66,0.70,1.35,4.72,4.69,4.69
38.19,4.06,-0.63,4.02,-0.67,0.67,0.68,1.31,4.72,4.69,4.68
38.57,4.03,-0.66,4.02,-0.67,0.67,0.65,1.28,4.69,4.69,4.69
38.95,4.00,-0.70,4.01,-0.67,0.67,0.63,1.24,4.67,4.68,4.69
39.34,4.00,-0.69,4.01,-0.67,0.67,0.61,1.21,4.67,4.68,4.68
39.74,4.00,-0.68,4.01,-0.67,0.67,0.59,1.17,4.67,4.68,4.68
40.14,4.00,-0.69,4.01,-0.67,0.67,0.56,1.14,4.67,4.68,4.68
40.54,4.00,-0.68,4.00,-0.67,0.67,0.54,1.11,4.67,4.68,4.68
40.94,4.00,-0.67,4.00,-0.67,0.67,0.52,1.07,4.67,4.67,4.67
41.35,4.00,-0.67,4.00,-0.67,0.67,0.50,1.04,4.66,4.67,4.66
41.76,4.00,-0.66,3.99,-0.66,0.66,0.48,1.01,4.66,4.66,4.66
42.18,4.00,-0.66,3.99,-0.66,0.66,0.46,0.98,4.65,4.65,4.66
42.60,4.00,-0.64,3.99,-0.64,0.64,0.44,0.95,4.64,4.64,4.64
43.03,4.00,-0.64,3.99,-0.63,0.63,0.42,0.92,4.62,4.62,4.63
43.46,4.00,-0.63,4.00,-0.61,0.61,0.40,0.89,4.61,4.61,4.62
43.90,4.00,-0.60,4.00,-0.60,0.60,0.38,0.86,4.60,4.60,4.60
44.33,4.00,-0.58,4.00,-0.59,0.59,0.36,0.83,4.58,4.58,4.58
44.78,4.00,-0.56,4.00,-0.57,0.57,0.34,0.81,4.57,4.57,4.56
45.23,4.00,-0.55,4.00,-0.56,0.56,0.32,0.78,4.55,4.55,4.55
45.68,4.00,-0.53,4.00,-0.54,0.54,0.30,0.76,4.54,4.54,4.53
46.13,4.00,-0.51,4.00,-0.52,0.52,0.29,0.73,4.52,4.52,4.51
46.60,4.00,-0.51,4.00,-0.50,0.50,0.27,0.71,4.50,4.50,4.51
47.06,4.00,-0.49,4.00,-0.48,0.48,0.25,0.68,4.48,4.49,4.48
47.53,4.00,-0.48,4.00,-0.47,0.47,0.23,0.66,4.46,4.47,4.47
48.01,4.00,-0.47,4.00,-0.45,0.45,0.21,0.64,4.44,4.45,4.47
48.49,4.00,-0.45,4.00,-0.43,0.43,0.19,0.62,4.43,4.44,4.45
48.97,4.00,-0.43,4.00,-0.42,0.42,0.18,0.59,4.42,4.42,4.42
49.46,4.00,-0.41,3.99,-0.42,0.42,0.16,0.57,4.41,4.41,4.40
49.96,4.00,-0.38,3.98,-0.41,0.41,0.14,0.55,4.41,4.39,4.38
50.46,4.00,-0.38,3.96,-0.41,0.41,0.12,0.53,4.40,4.37,4.37
50.96,4.00,-0.36,3.95,-0.41,0.41,0.10,0.51,4.40,4.36,4.36
51.47,3.95,-0.39,3.94,-0.41,0.41,0.09,0.49,4.35,4.34,4.33
51.99,3.90,-0.42,3.92,-0.40,0.40,0.07,0.48,4.30,4.33,4.32
52.51,3.90,-0.42,3.91,-0.40,0.40,0.05,0.46,4.30,4.31,4.31
53.03,3.90,-0.41,3.89,-0.41,0.41,0.03,0.44,4.30,4.30,4.30
53.56,3.84,-0.45,3.87,-0.41,0.41,0.02,0.42,4.25,4.28,4.29
54.10,3.80,-0.47,3.84,-0.42,0.42,-0.00,0.40,4.22,4.27,4.27
54.64,3.80,-0.45,3.82,-0.44,0.44,-0.02,0.38,4.23,4.25,4.25
55.18,3.80,-0.44,3.79,-0.45,0.45,-0.04,0.36,4.24,4.24,4.24
55.74,3.80,-0.42,3.77,-0.46,0.46,-0.05,0.35,4.25,4.22,4.22
56.29,3.79,-0.42,3.74,-0.46,0.46,-0.07,0.33,4.25,4.21,4.21
56.86,3.76,-0.43,3.72,-0.47,0.47,-0.09,0.31,4.23,4.19,4.19
57.42,3.69,-0.46,3.69,-0.48,0.48,-0.11,0.29,4.17,4.17,4.15
58.00,3.64,-0.51,3.66,-0.49,0.49,-0.13,0.27,4.12,4.15,4.14
58.58,3.62,-0.51,3.62,-0.49,0.49,-0.14,0.25,4.11,4.12,4.13
59.16,3.59,-0.51,3.59,-0.50,0.50,-0.16,0.23,4.10,4.09,4.10
59.76,3.54,-0.54,3.55,-0.51,0.51,-0.18,0.21,4.05,4.06,4.08
60.35,3.52,-0.52,3.51,-0.52,0.52,-0.20,0.19,4.03,4.02,4.03
60.96,3.52,-0.48,3.46,-0.52,0.52,-0.22,0.16,4.04,3.98,4.00
61.57,3.45,-0.50,3.42,-0.52,0.52,-0.23,0.14,3.97,3.94,3.95
62.18,3.38,-0.52,3.38,-0.52,0.52,-0.25,0.12,3.90,3.90,3.90
62.80,3.33,-0.53,3.35,-0.51,0.51,-0.27,0.09,3.83,3.86,3.85
63.43,3.29,-0.52,3.32,-0.49,0.49,-0.29,0.07,3.78,3.81,3.80
64.07,3.26,-0.49,3.29,-0.47,0.47,-0.31,0.04,3.72,3.76,3.75
64.71,3.24,-0.46,3.27,-0.44,0.44,-0.33,0.02,3.67,3.71,3.70
65.35,3.23,-0.43,3.25,-0.41,0.41,-0.35,-0.01,3.63,3.66,3.65
66.01,3.23,-0.38,3.23,-0.37,0.37,-0.36,-0.04,3.60,3.60,3.60
66.67,3.23,-0.32,3.22,-0.33,0.33,-0.38,-0.07,3.56,3.55,3.55
67.33,3.23,-0.27,3.21,-0.29,0.29,-0.40,-0.10,3.51,3.50,3.49
68.01,3.23,-0.22,3.20,-0.24,0.24,-0.42,-0.13,3.46,3.44,3.44
68.69,3.23,-0.16,3.21,-0.18,0.18,-0.44,-0.16,3.40,3.38,3.39
69.37,3.23,-0.10,3.21,-0.11,0.11,-0.46,-0.19,3.34,3.33,3.33
70.07,3.23,-0.04,3.22,-0.05,0.05,-0.48,-0.23,3.27,3.27,3.27
70.77,3.23,0.01,3.23,0.02,-0.02,-0.50,-0.26,3.20,3.21,3.22
71.48,3.23,0.07,3.24,0.09,-0.09,-0.53,-0.29,3.13,3.15,3.16
72.19,3.23,0.14,3.25,0.16,-0.16,-0.55,-0.33,3.06,3.08,3.09
72.91,3.23,0.20,3.26,0.24,-0.24,-0.57,-0.37,2.99,3.02,3.02
73.64,3.26,0.30,3.27,0.31,-0.31,-0.59,-0.40,2.95,2.96,2.96
74.38,3.29,0.39,3.27,0.38,-0.38,-0.61,-0.44,2.91,2.90,2.89
75.12,3.32,0.49,3.28,0.45,-0.45,-0.63,-0.48,2.86,2.83,2.83
75.87,3.32,0.55,3.29,0.52,-0.52,-0.66,-0.52,2.79,2.77,2.76
76.63,3.32,0.61,3.30,0.59,-0.59,-0.68,-0.56,2.72,2.71,2.70
77.40,3.32,0.67,3.31,0.66,-0.66,-0.70,-0.60,2.66,2.65,2.64
78.17,3.32,0.74,3.31,0.73,-0.73,-0.73,-0.64,2.59,2.59,2.57
78.95,3.32,0.78,3.32,0.79,-0.79,-0.75,-0.69,2.53,2.53,2.53
79.74,3.32,0.84,3.33,0.86,-0.86,-0.77,-0.73,2.46,2.47,2.47
80.54,3.32,0.90,3.33,0.92,-0.92,-0.80,-0.77,2.40,2.41,2.42
81.35,3.32,0.96,3.33,0.97,-0.97,-0.82,-0.82,2.34,2.36,2.35
82.16,3.32,1.02,3.32,1.02,-1.02,-0.85,-0.86,2.29,2.30,2.30
82.98,3.32,1.06,3.32,1.07,-1.07,-0.87,-0.91,2.24,2.25,2.25
83.81,3.32,1.13,3.31,1.13,-1.13,-0.90,-0.96,2.19,2.19,2.19
84.65,3.32,1.19,3.31,1.18,-1.18,-0.93,-1.01,2.14,2.13,2.13
85.50,3.32,1.23,3.31,1.23,-1.23,-0.95,-1.06,2.08,2.07,2.08
86.35,3.32,1.29,3.30,1.29,-1.29,-0.98,-1.11,2.03,2.02,2.02
87.22,3.32,1.35,3.29,1.34,-1.34,-1.01,-1.16,1.98,1.96,1.96
88.09,3.31,1.40,3.28,1.38,-1.38,-1.04,-1.21,1.92,1.90,1.90
88.97,3.23,1.38,3.27,1.43,-1.43,-1.07,-1.27,1.80,1.84,1.84
89.86,3.23,1.45,3.25,1.47,-1.47,-1.09,-1.32,1.76,1.78,1.78
90.76,3.23,1.51,3.23,1.51,-1.51,-1.12,-1.38,1.72,1.72,1.72
91.66,3.23,1.56,3.20,1.54,-1.54,-1.15,-1.43,1.68,1.66,1.66
92.58,3.23,1.64,3.18,1.58,-1.58,-1.18,-1.49,1.65,1.60,1.59
93.51,3.18,1.64,3.15,1.61,-1.61,-1.22,-1.55,1.56,1.54,1.54
94.44,3.14,1.65,3.13,1.65,-1.65,-1.25,-1.61,1.49,1.48,1.48
95.39,3.10,1.67,3.10,1.68,-1.68,-1.28,-1.67,1.41,1.42,1.43
96.34,3.04,1.68,3.08,1.72,-1.72,-1.31,-1.73,1.32,1.36,1.36
97.30,3.03,1.72,3.06,1.76,-1.76,-1.34,-1.79,1.27,1.31,1.30
98.28,3.02,1.77,3.04,1.79,-1.79,-1.38,-1.85,1.22,1.25,1.25
99.26,3.01,1.81,3.02,1.83,-1.83,-1.41,-1.91,1.18,1.19,1.19
100.25,2.99,1.85,2.99,1.86,-1.86,-1.45,-1.98,1.13,1.13,1.13
101.25,2.97,1.89,2.96,1.89,-1.89,-1.48,-2.04,1.08,1.07,1.08
102.27,2.96,1.94,2.93,1.92,-1.92,-1.52,-2.10,1.04,1.02,1.02
103.29,2.95,1.99,2.90,1.95,-1.95,-1.55,-2.17,1.00,0.96,0.95
104.32,2.93,2.02,2.88,1.98,-1.98,-1.59,-2.23,0.95,0.90,0.90
105.37,2.90,2.05,2.85,2.01,-2.01,-1.63,-2.29,0.88,0.84,0.85
106.42,2.86,2.07,2.83,2.05,-2.05,-1.66,-2.35,0.81,0.78,0.79
107.48,2.79,2.07,2.81,2.09,-2.09,-1.70,-2.41,0.69,0.72,0.72
108.56,2.73,2.07,2.78,2.13,-2.13,-1.74,-2.47,0.60,0.65,0.65
109.64,2.71,2.11,2.75,2.16,-2.16,-1.78,-2.53,0.54,0.59,0.59
110.74,2.69,2.16,2.73,2.20,-2.20,-1.82,-2.59,0.49,0.53,0.53
111.85,2.67,2.19,2.70,2.23,-2.23,-1.86,-2.65,0.44,0.47,0.48
112.97,2.67,2.26,2.67,2.26,-2.26,-1.90,-2.70,0.40,0.41,0.40
114.10,2.66,2.31,2.64,2.29,-2.29,-1.94,-2.75,0.36,0.35,0.35
115.24,2.66,2.36,2.62,2.33,-2.33,-1.98,-2.80,0.33,0.29,0.29
116.39,2.66,2.43,2.60,2.36,-2.36,-2.03,-2.85,0.30,0.24,0.22
117.55,2.66,2.48,2.58,2.40,-2.40,-2.07,-2.89,0.26,0.19,0.18
118.73,2.62,2.49,2.57,2.43,-2.43,-2.11,-2.93,0.18,0.14,0.12
119.92,2.51,2.42,2.56,2.48,-2.48,-2.15,-2.96,0.03,0.09,0.09
121.12,2.49,2.45,2.56,2.51,-2.51,-2.20,-3.00,-0.03,0.04,0.04
122.33,2.50,2.50,2.55,2.55,-2.55,-2.24,-3.03,-0.05,-0.00,-0.01
123.55,2.51,2.55,2.53,2.58,-2.58,-2.29,-3.05,-0.07,-0.05,-0.04
124.79,2.51,2.59,2.53,2.61,-2.61,-2.33,-3.07,-0.11,-0.09,-0.08
126.03,2.52,2.64,2.52,2.65,-2.65,-2.38,-3.09,-0.13,-0.13,-0.12
127.29,2.53,2.68,2.51,2.68,-2.68,-2.42,-3.10,-0.15,-0.17,-0.15
128.57,2.53,2.73,2.50,2.71,-2.71,-2.46,-3.11,-0.18,-0.20,-0.20
129.85,2.54,2.78,2.49,2.74,-2.74,-2.51,-3.12,-0.20,-0.24,-0.24
131.15,2.54,2.82,2.49,2.77,-2.77,-2.55,-3.12,-0.23,-0.28,-0.28
132.46,2.53,2.84,2.48,2.80,-2.80,-2.60,-3.12,-0.27,-0.32,-0.32
133.79,2.46,2.81,2.48,2.83,-2.83,-2.64,-3.12,-0.38,-0.36,-0.36
135.12,2.44,2.84,2.47,2.86,-2.86,-2.69,-3.11,-0.42,-0.39,-0.40
136.48,2.47,2.89,2.46,2.88,-2.88,-2.73,-3.10,-0.42,-0.43,-0.43
137.84,2.47,2.94,2.44,2.90,-2.90,-2.78,-3.09,-0.44,-0.46,-0.47
139.22,2.41,2.92,2.42,2.92,-2.92,-2.82,-3.07,-0.52,-0.50,-0.51
140.61,2.37,2.92,2.40,2.94,-2.94,-2.86,-3.06,-0.58,-0.54,-0.56
142.02,2.37,2.94,2.39,2.97,-2.97,-2.91,-3.04,-0.61,-0.58,-0.58
143.44,2.37,2.98,2.38,3.01,-3.01,-2.95,-3.02,-0.64,-0.62,-0.62
144.87,2.37,3.03,2.38,3.05,-3.05,-2.99,-3.00,-0.68,-0.67,-0.67
146.32,2.37,3.08,2.37,3.09,-3.09,-3.03,-2.99,-0.72,-0.72,-0.71
147.78,2.37,3.12,2.35,3.13,-3.13,-3.07,-2.97,-0.77,-0.78,-0.75
149.26,2.35,3.15,2.33,3.17,-3.17,-3.11,-2.95,-0.83,-0.84,-0.81
150.75,2.29,3.17,2.31,3.22,-3.22,-3.15,-2.93,-0.93,-0.91,-0.88
152.26,2.26,3.21,2.27,3.25,-3.25,-3.18,-2.91,-1.00,-0.98,-0.96
153.78,2.28,3.31,2.24,3.29,-3.29,-3.22,-2.89,-1.01,-1.05,-1.03
155.32,2.29,3.40,2.20,3.32,-3.32,-3.25,-2.87,-1.04,-1.13,-1.11
156.88,2.30,3.49,2.15,3.36,-3.36,-3.29,-2.86,-1.06,-1.20,-1.20
158.44,2.17,3.45,2.11,3.39,-3.39,-3.32,-2.84,-1.22,-1.28,-1.29
160.03,2.07,3.44,2.06,3.42,-3.42,-3.35,-2.83,-1.35,-1.36,-1.38
161.63,1.94,3.39,2.02,3.45,-3.45,-3.38,-2.82,-1.51,-1.43,-1.45
163.24,1.90,3.42,1.97,3.47,-3.47,-3.41,-2.81,-1.58,-1.50,-1.52
164.88,1.89,3.46,1.94,3.50,-3.50,-3.44,-2.80,-1.62,-1.56,-1.58
166.53,1.84,3.47,1.91,3.53,-3.53,-3.46,-2.79,-1.69,-1.62,-1.63
168.19,1.80,3.47,1.89,3.55,-3.55,-3.49,-2.79,-1.75,-1.66,-1.68
169.87,1.82,3.54,1.86,3.56,-3.56,-3.51,-2.79,-1.75,-1.70,-1.72
171.57,1.87,3.61,1.84,3.57,-3.57,-3.53,-2.79,-1.70,-1.73,-1.75
173.29,1.87,3.63,1.82,3.58,-3.58,-3.55,-2.79,-1.71,-1.76,-1.77
175.02,1.85,3.62,1.81,3.59,-3.59,-3.57,-2.79,-1.74,-1.78,-1.78
176.77,1.85,3.64,1.81,3.61,-3.61,-3.58,-2.80,-1.76,-1.79,-1.80
178.54,1.85,3.65,1.81,3.62,-3.62,-3.60,-2.81,-1.77,-1.81,-1.81
180.32,1.85,3.65,1.81,3.62,-3.62,-3.61,-2.82,-1.78,-1.82,-1.81
182.13,1.86,3.66,1.80,3.62,-3.62,-3.62,-2.83,-1.77,-1.83,-1.81
183.95,1.77,3.59,1.78,3.62,-3.62,-3.62,-2.85,-1.86,-1.84,-1.82
185.79,1.78,3.60,1.78,3.63,-3.63,-3.63,-2.87,-1.85,-1.85,-1.83
187.65,1.72,3.57,1.77,3.64,-3.64,-3.63,-2.89,-1.92,-1.86,-1.85
189.52,1.72,3.58,1.76,3.63,-3.63,-3.63,-2.91,-1.92,-1.88,-1.87
191.42,1.73,3.62,1.74,3.63,-3.63,-3.63,-2.93,-1.91,-1.90,-1.89
193.33,1.74,3.65,1.72,3.63,-3.63,-3.62,-2.96,-1.90,-1.92,-1.92
195.27,1.69,3.62,1.70,3.64,-3.64,-3.62,-2.98,-1.95,-1.94,-1.94
197.22,1.64,3.59,1.68,3.64,-3.64,-3.61,-3.01,-2.01,-1.96,-1.96
199.19,1.67,3.66,1.66,3.65,-3.65,-3.60,-3.04,-1.98,-1.98,-1.99
201.18,1.69,3.70,1.64,3.65,-3.65,-3.58,-3.07,-1.96,-2.01,-2.01
203.19,1.71,3.74,1.62,3.66,-3.66,-3.57,-3.11,-1.95,-2.03,-2.03
205.23,1.70,3.75,1.61,3.66,-3.66,-3.55,-3.14,-1.97,-2.06,-2.06
207.28,1.57,3.63,1.59,3.67,-3.67,-3.53,-3.17,-2.11,-2.08,-2.07
209.35,1.49,3.58,1.57,3.67,-3.67,-3.50,-3.21,-2.19,-2.10,-2.10
211.44,1.49,3.62,1.54,3.66,-3.66,-3.48,-3.24,-2.18,-2.12,-2.13
213.56,1.50,3.63,1.50,3.64,-3.64,-3.45,-3.27,-2.15,-2.14,-2.14
215.69,1.50,3.65,1.47,3.63,-3.63,-3.42,-3.31,-2.13,-2.16,-2.16
217.85,1.49,3.66,1.45,3.62,-3.62,-3.39,-3.34,-2.13,-2.17,-2.17
220.03,1.40,3.58,1.42,3.60,-3.60,-3.36,-3.37,-2.21,-2.18,-2.19
222.23,1.37,3.58,1.38,3.57,-3.57,-3.33,-3.40,-2.21,-2.19,-2.21
224.45,1.42,3.62,1.35,3.54,-3.54,-3.29,-3.43,-2.13,-2.20,-2.20
226.70,1.35,3.55,1.31,3.51,-3.51,-3.25,-3.45,-2.17,-2.20,-2.21
228.96,1.30,3.50,1.29,3.49,-3.49,-3.22,-3.47,-2.19,-2.20,-2.20
231.25,1.19,3.38,1.27,3.47,-3.47,-3.18,-3.49,-2.28,-2.19,-2.19
233.57,1.16,3.34,1.25,3.43,-3.43,-3.14,-3.51,-2.28,-2.18,-2.19
235.90,1.21,3.38,1.22,3.39,-3.39,-3.10,-3.52,-2.19,-2.17,-2.18
238.26,1.28,3.44,1.19,3.35,-3.35,-3.05,-3.53,-2.08,-2.16,-2.17
240.64,1.19,3.34,1.17,3.31,-3.31,-3.01,-3.54,-2.12,-2.14,-2.15
243.05,1.09,3.21,1.14,3.26,-3.26,-2.97,-3.54,-2.18,-2.12,-2.12
245.48,1.09,3.19,1.11,3.22,-3.22,-2.92,-3.53,-2.13,-2.10,-2.10
247.93,1.13,3.20,1.08,3.16,-3.16,-2.88,-3.52,-2.04,-2.08,-2.07
250.41,1.07,3.13,1.04,3.11,-3.11,-2.84,-3.51,-2.04,-2.06,-2.06
252.92,1.07,3.09,1.02,3.06,-3.06,-2.79,-3.49,-1.99,-2.04,-2.03
255.45,1.00,3.00,0.99,3.00,-3.00,-2.75,-3.47,-2.01,-2.02,-2.01
258.00,0.97,2.95,0.95,2.94,-2.94,-2.70,-3.44,-1.98,-1.99,-1.99
260.58,0.91,2.88,0.91,2.88,-2.88,-2.66,-3.41,-1.97,-1.97,-1.97
263.19,0.86,2.80,0.86,2.81,-2.81,-2.61,-3.37,-1.95,-1.95,-1.94
265.82,0.81,2.74,0.82,2.74,-2.74,-2.57,-3.33,-1.94,-1.92,-1.93
268.48,0.75,2.65,0.78,2.68,-2.68,-2.52,-3.28,-1.93,-1.90,-1.91
271.16,0.71,2.58,0.73,2.61,-2.61,-2.48,-3.23,-1.91,-1.88,-1.87
273.87,0.70,2.56,0.68,2.54,-2.54,-2.43,-3.18,-1.84,-1.85,-1.86
276.61,0.65,2.47,0.63,2.46,-2.46,-2.39,-3.12,-1.81,-1.83,-1.83
279.38,0.66,2.46,0.58,2.39,-2.39,-2.34,-3.07,-1.73,-1.80,-1.80
282.17,0.55,2.33,0.54,2.32,-2.32,-2.30,-3.00,-1.77,-1.78,-1.78
284.99,0.51,2.25,0.51,2.26,-2.26,-2.26,-2.94,-1.76,-1.75,-1.75
287.84,0.52,2.25,0.49,2.21,-2.21,-2.21,-2.87,-1.69,-1.72,-1.73
290.72,0.45,2.14,0.47,2.16,-2.16,-2.17,-2.81,-1.72,-1.69,-1.70
293.63,0.40,2.07,0.45,2.12,-2.12,-2.13,-2.74,-1.72,-1.67,-1.67
296.57,0.37,2.00,0.44,2.08,-2.08,-2.09,-2.67,-1.71,-1.64,-1.64
299.53,0.38,1.99,0.43,2.04,-2.04,-2.05,-2.60,-1.67,-1.61,-1.61
302.53,0.36,1.95,0.43,2.02,-2.02,-2.01,-2.53,-1.66,-1.59,-1.60
305.55,0.38,1.93,0.43,1.99,-1.99,-1.97,-2.46,-1.62,-1.56,-1.55
308.61,0.48,2.01,0.43,1.97,-1.97,-1.93,-2.39,-1.49,-1.54,-1.54
311.69,0.52,2.02,0.43,1.94,-1.94,-1.89,-2.31,-1.43,-1.52,-1.51
314.81,0.53,2.01,0.43,1.92,-1.92,-1.85,-2.24,-1.40,-1.49,-1.48
317.96,0.46,1.92,0.42,1.90,-1.90,-1.81,-2.17,-1.44,-1.47,-1.47
321.14,0.42,1.88,0.42,1.87,-1.87,-1.78,-2.10,-1.46,-1.46,-1.46
324.35,0.42,1.86,0.41,1.85,-1.85,-1.74,-2.03,-1.44,-1.44,-1.44
327.59,0.42,1.84,0.40,1.83,-1.83,-1.71,-1.97,-1.41,-1.43,-1.43
330.87,0.42,1.84,0.38,1.79,-1.79,-1.67,-1.90,-1.38,-1.41,-1.42
334.18,0.38,1.78,0.35,1.75,-1.75,-1.64,-1.83,-1.38,-1.40,-1.40
337.52,0.27,1.66,0.33,1.72,-1.72,-1.60,-1.77,-1.45,-1.39,-1.40
340.90,0.23,1.61,0.29,1.68,-1.68,-1.57,-1.70,-1.45,-1.39,-1.38
344.30,0.22,1.59,0.26,1.64,-1.64,-1.54,-1.64,-1.42,-1.38,-1.37
347.75,0.22,1.59,0.23,1.60,-1.60,-1.51,-1.57,-1.39,-1.38,-1.38
351.23,0.22,1.58,0.19,1.56,-1.56,-1.47,-1.51,-1.35,-1.37,-1.37
354.74,0.16,1.53,0.16,1.53,-1.53,-1.44,-1.45,-1.37,-1.37,-1.37
358.28,0.13,1.49,0.12,1.48,-1.48,-1.41,-1.39,-1.36,-1.36,-1.36
361.87,0.08,1.44,0.07,1.44,-1.44,-1.38,-1.34,-1.36,-1.36,-1.37
365.49,0.05,1.40,0.03,1.39,-1.39,-1.35,-1.28,-1.35,-1.36,-1.36
369.14,0.05,1.42,-0.02,1.35,-1.35,-1.33,-1.22,-1.30,-1.36,-1.37
372.83,-0.01,1.36,-0.06,1.31,-1.31,-1.30,-1.17,-1.32,-1.37,-1.37
376.56,-0.11,1.26,-0.11,1.26,-1.26,-1.27,-1.12,-1.38,-1.37,-1.37
380.33,-0.14,1.22,-0.16,1.21,-1.21,-1.24,-1.06,-1.35,-1.37,-1.37
384.13,-0.24,1.12,-0.22,1.15,-1.15,-1.22,-1.01,-1.40,-1.38,-1.37
387.97,-0.33,1.04,-0.29,1.09,-1.09,-1.19,-0.96,-1.43,-1.38,-1.38
391.85,-0.38,1.01,-0.34,1.04,-1.04,-1.17,-0.91,-1.43,-1.39,-1.39
395.77,-0.39,0.99,-0.39,1.00,-1.00,-1.14,-0.86,-1.39,-1.39,-1.38
399.73,-0.39,1.00,-0.45,0.95,-0.95,-1.12,-0.82,-1.35,-1.40,-1.39
403.72,-0.47,0.92,-0.50,0.90,-0.90,-1.09,-0.77,-1.38,-1.40,-1.40
407.76,-0.56,0.84,-0.55,0.86,-0.86,-1.07,-0.73,-1.42,-1.41,-1.41
411.84,-0.60,0.80,-0.60,0.82,-0.82,-1.05,-0.68,-1.42,-1.41,-1.41
415.96,-0.67,0.74,-0.63,0.78,-0.78,-1.03,-0.64,-1.45,-1.41,-1.41
420.12,-0.69,0.72,-0.66,0.75,-0.75,-1.00,-0.60,-1.44,-1.41,-1.41
424.32,-0.68,0.73,-0.69,0.71,-0.71,-0.98,-0.56,-1.40,-1.41,-1.41
428.56,-0.67,0.73,-0.71,0.69,-0.69,-0.96,-0.52,-1.36,-1.40,-1.40
432.85,-0.67,0.72,-0.71,0.67,-0.67,-0.94,-0.48,-1.34,-1.38,-1.39
437.18,-0.75,0.63,-0.71,0.65,-0.65,-0.92,-0.45,-1.40,-1.36,-1.39
441.55,-0.78,0.56,-0.71,0.62,-0.62,-0.90,-0.41,-1.41,-1.34,-1.35
445.96,-0.75,0.56,-0.71,0.60,-0.60,-0.88,-0.38,-1.35,-1.30,-1.32
450.42,-0.69,0.59,-0.69,0.58,-0.58,-0.87,-0.35,-1.28,-1.27,-1.29
454.93,-0.66,0.58,-0.66,0.57,-0.57,-0.85,-0.32,-1.23,-1.23,-1.24
459.48,-0.68,0.51,-0.63,0.55,-0.55,-0.83,-0.29,-1.23,-1.18,-1.19
464.07,-0.62,0.52,-0.61,0.53,-0.53,-0.81,-0.26,-1.15,-1.14,-1.14
468.71,-0.56,0.52,-0.59,0.50,-0.50,-0.79,-0.23,-1.06,-1.09,-1.08
473.40,-0.49,0.55,-0.58,0.46,-0.46,-0.78,-0.21,-0.96,-1.04,-1.04
478.13,-0.51,0.47,-0.58,0.42,-0.42,-0.76,-0.19,-0.93,-0.99,-0.98
482.91,-0.58,0.36,-0.57,0.38,-0.38,-0.74,-0.17,-0.96,-0.95,-0.94
487.74,-0.59,0.31,-0.56,0.34,-0.34,-0.73,-0.15,-0.94,-0.91,-0.91
492.62,-0.52,0.33,-0.57,0.30,-0.30,-0.71,-0.13,-0.82,-0.87,-0.86
497.55,-0.51,0.32,-0.59,0.25,-0.25,-0.70,-0.12,-0.76,-0.84,-0.84
502.52,-0.57,0.23,-0.62,0.20,-0.20,-0.68,-0.10,-0.78,-0.82,-0.81
507.55,-0.69,0.10,-0.66,0.15,-0.15,-0.67,-0.09,-0.84,-0.80,-0.80
512.62,-0.76,0.02,-0.71,0.09,-0.09,-0.65,-0.08,-0.85,-0.80,-0.79
