frequency,raw,error,smoothed,error_smoothed,equalization,parametric_eq,fixed_band_eq,equalized_raw,equalized_smoothed,target
20.00,0.21,-2.41,0.21,-2.44,2.44,2.31,0.45,2.64,2.65,2.62
20.20,0.26,-2.41,0.28,-2.40,2.40,2.28,0.47,2.66,2.68,2.66
20.40,0.32,-2.40,0.35,-2.36,2.36,2.26,0.48,2.68,2.72,2.71
20.61,0.38,-2.37,0.42,-2.33,2.33,2.23,0.50,2.70,2.75,2.74
20.81,0.44,-2.36,0.49,-2.29,2.29,2.21,0.51,2.73,2.78,2.79
21.02,0.50,-2.34,0.55,-2.26,2.26,2.18,0.53,2.75,2.81,2.83
21.23,0.61,-2.25,0.61,-2.22,2.22,2.15,0.55,2.83,2.83,2.85
21.44,0.72,-2.15,0.67,-2.19,2.19,2.12,0.57,2.91,2.85,2.87
21.66,0.81,-2.08,0.72,-2.15,2.15,2.09,0.58,2.97,2.87,2.89
21.87,0.94,-1.96,0.77,-2.12,2.12,2.06,0.60,3.06,2.89,2.90
22.09,0.99,-1.93,0.82,-2.09,2.09,2.03,0.62,3.07,2.91,2.92
22.31,0.97,-1.96,0.86,-2.06,2.06,1.99,0.64,3.02,2.92,2.93
22.54,0.94,-1.99,0.89,-2.03,2.03,1.96,0.66,2.97,2.93,2.93
22.76,0.92,-2.01,0.92,-2.01,2.01,1.93,0.68,2.92,2.93,2.93
22.99,0.89,-2.03,0.95,-1.98,1.98,1.89,0.70,2.86,2.93,2.92
23.22,0.91,-2.01,0.98,-1.95,1.95,1.85,0.73,2.85,2.93,2.92
23.45,0.93,-1.99,1.01,-1.92,1.92,1.82,0.75,2.85,2.93,2.92
23.69,0.96,-1.97,1.04,-1.89,1.89,1.78,0.77,2.85,2.93,2.93
23.92,0.97,-1.96,1.08,-1.86,1.86,1.74,0.79,2.82,2.93,2.92
24.16,1.05,-1.89,1.11,-1.82,1.82,1.71,0.82,2.86,2.93,2.93
24.40,1.15,-1.79,1.16,-1.77,1.77,1.67,0.84,2.92,2.93,2.94
24.65,1.25,-1.69,1.22,-1.71,1.71,1.63,0.86,2.95,2.93,2.93
24.89,1.36,-1.57,1.29,-1.64,1.64,1.59,0.89,3.00,2.93,2.93
25.14,1.42,-1.51,1.35,-1.58,1.58,1.55,0.91,3.00,2.93,2.93
25.39,1.46,-1.48,1.41,-1.52,1.52,1.51,0.94,2.98,2.93,2.94
25.65,1.50,-1.44,1.46,-1.47,1.47,1.47,0.96,2.97,2.93,2.94
25.91,1.53,-1.40,1.51,-1.43,1.43,1.43,0.98,2.95,2.93,2.93
26.16,1.57,-1.36,1.54,-1.39,1.39,1.39,1.01,2.96,2.93,2.93
26.43,1.61,-1.32,1.58,-1.35,1.35,1.35,1.03,2.96,2.93,2.92
26.69,1.65,-1.28,1.61,-1.32,1.32,1.31,1.05,2.97,2.93,2.92
26.96,1.69,-1.25,1.63,-1.29,1.29,1.27,1.07,2.98,2.92,2.93
27.23,1.68,-1.25,1.66,-1.26,1.26,1.24,1.09,2.94,2.92,2.93
27.50,1.67,-1.26,1.69,-1.23,1.23,1.20,1.11,2.90,2.92,2.93
27.77,1.65,-1.27,1.73,-1.19,1.19,1.16,1.13,2.83,2.92,2.92
28.05,1.65,-1.27,1.78,-1.14,1.14,1.12,1.14,2.78,2.92,2.92
28.33,1.74,-1.17,1.84,-1.08,1.08,1.08,1.16,2.81,2.91,2.90
28.62,1.82,-1.08,1.90,-1.02,1.02,1.04,1.17,2.84,2.91,2.90
28.90,1.92,-0.99,1.96,-0.95,0.95,1.00,1.18,2.87,2.91,2.91
29.19,2.02,-0.88,2.01,-0.89,0.89,0.96,1.19,2.91,2.91,2.90
29.48,2.11,-0.81,2.07,-0.84,0.84,0.92,1.19,2.94,2.91,2.92
29.78,2.19,-0.72,2.12,-0.78,0.78,0.88,1.20,2.97,2.90,2.91
30.08,2.26,-0.65,2.17,-0.73,0.73,0.84,1.20,2.99,2.90,2.91
30.38,2.31,-0.60,2.22,-0.68,0.68,0.80,1.20,2.99,2.90,2.90
30.68,2.35,-0.55,2.26,-0.64,0.64,0.76,1.19,2.99,2.90,2.90
30.99,2.38,-0.52,2.29,-0.61,0.61,0.72,1.18,2.99,2.90,2.90
31.30,2.35,-0.55,2.30,-0.59,0.59,0.68,1.17,2.94,2.89,2.89
31.61,2.31,-0.59,2.31,-0.58,0.58,0.64,1.16,2.88,2.89,2.89
31.93,2.27,-0.62,2.33,-0.56,0.56,0.60,1.15,2.83,2.89,2.89
32.24,2.27,-0.61,2.34,-0.54,0.54,0.57,1.13,2.81,2.88,2.88
32.57,2.30,-0.59,2.35,-0.52,0.52,0.53,1.11,2.82,2.88,2.88
32.89,2.32,-0.56,2.37,-0.51,0.51,0.49,1.08,2.82,2.87,2.88
33.22,2.34,-0.53,2.38,-0.49,0.49,0.45,1.06,2.82,2.87,2.87
33.55,2.36,-0.51,2.41,-0.46,0.46,0.41,1.03,2.81,2.86,2.86
33.89,2.38,-0.48,2.44,-0.42,0.42,0.37,1.00,2.79,2.86,2.85
34.23,2.46,-0.40,2.48,-0.37,0.37,0.34,0.97,2.83,2.85,2.86
34.57,2.57,-0.28,2.52,-0.33,0.33,0.30,0.93,2.90,2.85,2.84
34.92,2.68,-0.17,2.56,-0.28,0.28,0.26,0.89,2.96,2.84,2.84
35.27,2.70,-0.14,2.61,-0.23,0.23,0.22,0.86,2.93,2.84,2.84
35.62,2.68,-0.16,2.66,-0.18,0.18,0.19,0.82,2.85,2.84,2.83
35.97,2.66,-0.17,2.71,-0.12,0.12,0.15,0.78,2.78,2.83,2.83
36.33,2.74,-0.10,2.76,-0.07,0.07,0.11,0.73,2.80,2.83,2.83
36.70,2.83,0.01,2.81,-0.02,0.02,0.07,0.69,2.84,2.83,2.82
37.06,2.90,0.08,2.86,0.03,-0.03,0.04,0.65,2.86,2.83,2.82
37.43,2.88,0.05,2.90,0.08,-0.08,-0.00,0.60,2.80,2.83,2.83
37.81,2.86,0.03,2.94,0.12,-0.12,-0.04,0.56,2.74,2.83,2.83
38.19,2.91,0.09,2.98,0.15,-0.15,-0.08,0.51,2.75,2.82,2.82
38.57,3.04,0.21,3.02,0.19,-0.19,-0.11,0.46,2.84,2.82,2.83
38.95,3.17,0.34,3.06,0.24,-0.24,-0.15,0.42,2.93,2.82,2.83
39.34,3.18,0.35,3.12,0.30,-0.30,-0.19,0.37,2.88,2.82,2.82
39.74,3.18,0.36,3.18,0.35,-0.35,-0.23,0.32,2.82,2.82,2.82
40.14,3.19,0.36,3.23,0.41,-0.41,-0.26,0.27,2.78,2.82,2.82
40.54,3.22,0.40,3.27,0.46,-0.46,-0.30,0.23,2.76,2.82,2.82
40.94,3.25,0.44,3.32,0.51,-0.51,-0.34,0.18,2.74,2.81,2.81
41.35,3.31,0.50,3.36,0.56,-0.56,-0.37,0.13,2.75,2.80,2.80
41.76,3.37,0.57,3.39,0.60,-0.60,-0.41,0.08,2.77,2.79,2.79
42.18,3.43,0.63,3.41,0.63,-0.63,-0.45,0.04,2.80,2.79,2.80
42.60,3.50,0.72,3.42,0.64,-0.64,-0.49,-0.01,2.85,2.77,2.78
43.03,3.55,0.78,3.42,0.66,-0.66,-0.53,-0.06,2.89,2.76,2.77
43.46,3.49,0.72,3.40,0.65,-0.65,-0.56,-0.11,2.83,2.75,2.76
43.90,3.42,0.68,3.38,0.64,-0.64,-0.60,-0.15,2.77,2.73,2.73
44.33,3.40,0.68,3.36,0.64,-0.64,-0.64,-0.20,2.76,2.72,2.71
44.78,3.39,0.69,3.34,0.63,-0.63,-0.68,-0.25,2.75,2.71,2.70
45.23,3.32,0.63,3.31,0.61,-0.61,-0.72,-0.29,2.70,2.69,2.69
45.68,3.19,0.52,3.26,0.59,-0.59,-0.75,-0.34,2.60,2.67,2.67
46.13,3.10,0.45,3.22,0.56,-0.56,-0.79,-0.39,2.54,2.66,2.65
46.60,3.12,0.47,3.17,0.53,-0.53,-0.83,-0.43,2.59,2.64,2.64
47.06,3.13,0.50,3.12,0.49,-0.49,-0.87,-0.48,2.63,2.62,2.62
47.53,3.05,0.43,3.07,0.46,-0.46,-0.91,-0.53,2.58,2.61,2.61
48.01,2.97,0.36,3.04,0.45,-0.45,-0.95,-0.58,2.51,2.59,2.61
48.49,3.08,0.49,3.04,0.46,-0.46,-0.99,-0.62,2.62,2.58,2.59
48.97,3.20,0.63,3.04,0.48,-0.48,-1.03,-0.67,2.72,2.56,2.56
49.46,3.07,0.53,3.05,0.50,-0.50,-1.07,-0.72,2.56,2.54,2.54
49.96,2.93,0.41,3.06,0.53,-0.53,-1.11,-0.76,2.40,2.53,2.52
50.46,2.97,0.45,3.07,0.56,-0.56,-1.15,-0.81,2.41,2.51,2.51
50.96,3.02,0.52,3.09,0.59,-0.59,-1.19,-0.86,2.43,2.50,2.50
51.47,3.05,0.57,3.10,0.62,-0.62,-1.23,-0.91,2.43,2.48,2.47
51.99,3.08,0.62,3.11,0.64,-0.64,-1.27,-0.95,2.43,2.47,2.46
52.51,3.21,0.76,3.11,0.66,-0.66,-1.32,-1.00,2.55,2.45,2.45
53.03,3.35,0.90,3.11,0.68,-0.68,-1.36,-1.05,2.67,2.43,2.44
53.56,3.27,0.84,3.10,0.69,-0.69,-1.40,-1.10,2.58,2.42,2.42
54.10,3.19,0.78,3.10,0.69,-0.69,-1.44,-1.15,2.49,2.41,2.41
54.64,3.11,0.72,3.11,0.72,-0.72,-1.49,-1.19,2.39,2.39,2.39
55.18,3.06,0.68,3.13,0.75,-0.75,-1.53,-1.24,2.30,2.38,2.38
55.74,3.07,0.71,3.16,0.79,-0.79,-1.57,-1.29,2.27,2.36,2.36
56.29,3.09,0.74,3.17,0.83,-0.83,-1.62,-1.34,2.26,2.35,2.35
56.86,3.12,0.79,3.20,0.87,-0.87,-1.66,-1.39,2.25,2.33,2.33
57.42,3.12,0.82,3.23,0.92,-0.92,-1.71,-1.44,2.20,2.31,2.29
58.00,3.11,0.83,3.26,0.98,-0.98,-1.75,-1.49,2.13,2.28,2.28
58.58,3.25,0.98,3.30,1.04,-1.04,-1.80,-1.54,2.20,2.26,2.27
59.16,3.39,1.14,3.34,1.12,-1.12,-1.84,-1.59,2.27,2.23,2.24
59.76,3.52,1.30,3.40,1.20,-1.20,-1.89,-1.64,2.31,2.20,2.22
60.35,3.57,1.39,3.45,1.29,-1.29,-1.94,-1.69,2.28,2.16,2.17
60.96,3.56,1.42,3.50,1.37,-1.37,-1.99,-1.74,2.18,2.12,2.13
61.57,3.60,1.51,3.54,1.45,-1.45,-2.03,-1.79,2.14,2.08,2.09
62.18,3.64,1.60,3.57,1.52,-1.52,-2.08,-1.84,2.11,2.04,2.04
62.80,3.67,1.68,3.59,1.59,-1.59,-2.13,-1.89,2.08,1.99,1.99
63.43,3.65,1.71,3.60,1.65,-1.65,-2.18,-1.94,1.99,1.95,1.94
64.07,3.60,1.71,3.61,1.72,-1.72,-2.23,-2.00,1.88,1.90,1.89
64.71,3.57,1.73,3.62,1.78,-1.78,-2.28,-2.05,1.79,1.85,1.84
65.35,3.56,1.76,3.63,1.84,-1.84,-2.33,-2.10,1.72,1.79,1.79
66.01,3.58,1.84,3.63,1.89,-1.89,-2.39,-2.16,1.68,1.74,1.74
66.67,3.61,1.92,3.64,1.96,-1.96,-2.44,-2.21,1.65,1.69,1.69
67.33,3.63,2.00,3.66,2.03,-2.03,-2.49,-2.27,1.60,1.63,1.63
68.01,3.64,2.05,3.68,2.10,-2.10,-2.54,-2.33,1.53,1.58,1.58
68.69,3.69,2.16,3.71,2.19,-2.19,-2.60,-2.38,1.50,1.52,1.53
69.37,3.76,2.29,3.75,2.28,-2.28,-2.65,-2.44,1.48,1.47,1.47
70.07,3.85,2.44,3.79,2.38,-2.38,-2.71,-2.50,1.46,1.41,1.41
70.77,3.92,2.56,3.84,2.49,-2.49,-2.76,-2.56,1.42,1.35,1.36
71.48,3.95,2.65,3.90,2.61,-2.61,-2.82,-2.63,1.33,1.29,1.30
72.19,3.96,2.73,3.96,2.74,-2.74,-2.88,-2.69,1.22,1.22,1.23
72.91,3.95,2.78,4.02,2.86,-2.86,-2.93,-2.76,1.09,1.16,1.16
73.64,4.04,2.94,4.08,2.98,-2.98,-2.99,-2.83,1.05,1.10,1.10
74.38,4.12,3.08,4.15,3.11,-3.11,-3.05,-2.90,1.01,1.03,1.03
75.12,4.21,3.24,4.21,3.24,-3.24,-3.11,-2.97,0.97,0.97,0.97
75.87,4.31,3.41,4.27,3.36,-3.36,-3.17,-3.04,0.94,0.91,0.90
76.63,4.33,3.49,4.33,3.48,-3.48,-3.23,-3.12,0.84,0.85,0.84
77.40,4.38,3.59,4.39,3.60,-3.60,-3.29,-3.20,0.78,0.79,0.78
78.17,4.47,3.75,4.45,3.72,-3.72,-3.35,-3.28,0.74,0.73,0.71
78.95,4.57,3.89,4.51,3.85,-3.85,-3.42,-3.36,0.72,0.67,0.67
79.74,4.57,3.96,4.58,3.97,-3.97,-3.48,-3.45,0.60,0.61,0.61
80.54,4.63,4.07,4.63,4.08,-4.08,-3.54,-3.54,0.55,0.55,0.56
81.35,4.70,4.20,4.67,4.17,-4.17,-3.61,-3.63,0.53,0.50,0.49
82.16,4.72,4.28,4.70,4.26,-4.26,-3.67,-3.72,0.46,0.44,0.44
82.98,4.76,4.36,4.74,4.36,-4.36,-3.74,-3.82,0.40,0.38,0.39
83.81,4.79,4.46,4.79,4.46,-4.46,-3.81,-3.92,0.33,0.33,0.33
84.65,4.84,4.57,4.82,4.55,-4.55,-3.87,-4.02,0.29,0.27,0.27
85.50,4.91,4.69,4.86,4.64,-4.64,-3.94,-4.13,0.26,0.21,0.22
86.35,4.95,4.78,4.90,4.74,-4.74,-4.01,-4.24,0.21,0.16,0.16
87.22,4.92,4.81,4.94,4.84,-4.84,-4.08,-4.35,0.08,0.10,0.10
88.09,4.88,4.83,4.98,4.95,-4.95,-4.15,-4.47,-0.07,0.04,0.04
88.97,4.86,4.88,5.03,5.05,-5.05,-4.22,-4.59,-0.20,-0.02,-0.02
89.86,5.02,5.10,5.08,5.16,-5.16,-4.30,-4.71,-0.15,-0.08,-0.08
90.76,5.28,5.42,5.13,5.27,-5.27,-4.37,-4.83,0.00,-0.14,-0.14
91.66,5.31,5.50,5.19,5.39,-5.39,-4.44,-4.96,-0.08,-0.20,-0.20
92.58,5.21,5.48,5.25,5.51,-5.51,-4.52,-5.10,-0.30,-0.26,-0.27
93.51,5.25,5.57,5.31,5.63,-5.63,-4.59,-5.23,-0.39,-0.32,-0.33
94.44,5.42,5.80,5.39,5.77,-5.77,-4.67,-5.37,-0.35,-0.38,-0.38
95.39,5.52,5.95,5.46,5.90,-5.90,-4.74,-5.51,-0.39,-0.44,-0.44
96.34,5.55,6.05,5.54,6.04,-6.04,-4.82,-5.66,-0.49,-0.50,-0.50
97.30,5.57,6.12,5.62,6.18,-6.18,-4.90,-5.81,-0.61,-0.56,-0.56
98.28,5.64,6.25,5.70,6.32,-6.32,-4.98,-5.96,-0.68,-0.61,-0.61
99.26,5.71,6.38,5.76,6.43,-6.43,-5.06,-6.11,-0.73,-0.67,-0.67
100.25,5.78,6.50,5.81,6.54,-6.54,-5.14,-6.26,-0.76,-0.73,-0.73
101.25,5.94,6.72,5.85,6.64,-6.64,-5.22,-6.42,-0.70,-0.79,-0.78
102.27,5.99,6.83,5.92,6.76,-6.76,-5.30,-6.58,-0.78,-0.84,-0.84
103.29,6.04,6.95,5.98,6.88,-6.88,-5.38,-6.74,-0.84,-0.90,-0.91
104.32,6.07,7.02,6.02,6.98,-6.98,-5.47,-6.90,-0.91,-0.96,-0.96
105.37,6.07,7.08,6.05,7.07,-7.07,-5.55,-7.06,-1.00,-1.02,-1.02
106.42,6.07,7.14,6.08,7.16,-7.16,-5.64,-7.22,-1.09,-1.08,-1.07
107.48,6.10,7.24,6.10,7.25,-7.25,-5.72,-7.38,-1.15,-1.15,-1.14
108.56,6.04,7.25,6.12,7.33,-7.33,-5.81,-7.54,-1.29,-1.21,-1.21
109.64,5.99,7.25,6.12,7.39,-7.39,-5.89,-7.70,-1.40,-1.27,-1.27
110.74,6.15,7.48,6.11,7.44,-7.44,-5.98,-7.85,-1.30,-1.33,-1.33
111.85,6.18,7.56,6.09,7.48,-7.48,-6.07,-8.00,-1.31,-1.39,-1.38
112.97,6.17,7.62,6.06,7.52,-7.52,-6.16,-8.14,-1.35,-1.45,-1.46
114.10,6.03,7.54,6.03,7.54,-7.54,-6.24,-8.28,-1.52,-1.51,-1.51
115.24,6.01,7.58,5.99,7.56,-7.56,-6.33,-8.41,-1.55,-1.57,-1.57
116.39,6.01,7.64,5.96,7.58,-7.58,-6.42,-8.53,-1.58,-1.62,-1.64
117.55,6.00,7.68,5.92,7.59,-7.59,-6.51,-8.64,-1.60,-1.67,-1.68
118.73,5.88,7.61,5.88,7.60,-7.60,-6.60,-8.75,-1.73,-1.73,-1.74
119.92,5.79,7.56,5.84,7.61,-7.61,-6.69,-8.84,-1.82,-1.77,-1.77
121.12,5.70,7.52,5.80,7.62,-7.62,-6.78,-8.92,-1.92,-1.82,-1.83
122.33,5.73,7.59,5.76,7.62,-7.62,-6.88,-8.99,-1.90,-1.86,-1.87
123.55,5.72,7.62,5.72,7.62,-7.62,-6.97,-9.05,-1.91,-1.91,-1.90
124.79,5.65,7.59,5.69,7.63,-7.63,-7.06,-9.09,-1.99,-1.95,-1.94
126.03,5.59,7.57,5.66,7.65,-7.65,-7.15,-9.12,-2.06,-1.99,-1.98
127.29,5.67,7.68,5.65,7.67,-7.67,-7.24,-9.14,-2.01,-2.03,-2.02
128.57,5.70,7.76,5.63,7.70,-7.70,-7.33,-9.15,-2.00,-2.07,-2.07
129.85,5.61,7.71,5.62,7.72,-7.72,-7.43,-9.14,-2.12,-2.10,-2.10
131.15,5.67,7.81,5.62,7.76,-7.76,-7.52,-9.13,-2.09,-2.14,-2.14
132.46,5.68,7.86,5.62,7.80,-7.80,-7.61,-9.10,-2.13,-2.18,-2.18
133.79,5.65,7.86,5.63,7.85,-7.85,-7.70,-9.06,-2.20,-2.22,-2.22
135.12,5.64,7.90,5.65,7.90,-7.90,-7.79,-9.02,-2.26,-2.25,-2.26
136.48,5.67,7.95,5.66,7.95,-7.95,-7.88,-8.96,-2.29,-2.29,-2.29
137.84,5.66,7.99,5.69,8.02,-8.02,-7.97,-8.90,-2.36,-2.32,-2.33
139.22,5.68,8.05,5.73,8.09,-8.09,-8.06,-8.84,-2.42,-2.36,-2.37
140.61,5.72,8.13,5.78,8.18,-8.18,-8.14,-8.77,-2.46,-2.40,-2.42
142.02,5.78,8.21,5.82,8.26,-8.26,-8.23,-8.69,-2.49,-2.44,-2.44
143.44,5.83,8.30,5.88,8.36,-8.36,-8.32,-8.62,-2.54,-2.48,-2.48
144.87,5.88,8.40,5.94,8.47,-8.47,-8.40,-8.54,-2.59,-2.53,-2.53
146.32,5.95,8.52,5.99,8.57,-8.57,-8.48,-8.46,-2.62,-2.58,-2.58
147.78,6.03,8.64,6.03,8.67,-8.67,-8.56,-8.38,-2.64,-2.64,-2.61
149.26,6.11,8.78,6.06,8.76,-8.76,-8.64,-8.30,-2.65,-2.70,-2.67
150.75,6.18,8.92,6.06,8.83,-8.83,-8.72,-8.22,-2.66,-2.77,-2.75
152.26,6.19,9.01,6.05,8.89,-8.89,-8.80,-8.15,-2.70,-2.84,-2.82
153.78,6.19,9.08,6.03,8.94,-8.94,-8.87,-8.07,-2.75,-2.91,-2.89
155.32,6.17,9.14,5.99,8.98,-8.98,-8.94,-8.00,-2.81,-2.99,-2.98
156.88,6.10,9.15,5.95,9.02,-9.02,-9.01,-7.94,-2.92,-3.07,-3.06
158.44,5.97,9.11,5.92,9.06,-9.06,-9.08,-7.87,-3.09,-3.14,-3.15
160.03,5.84,9.07,5.88,9.09,-9.09,-9.14,-7.81,-3.26,-3.22,-3.24
161.63,5.70,9.01,5.84,9.13,-9.13,-9.20,-7.76,-3.44,-3.29,-3.32
163.24,5.60,8.98,5.81,9.17,-9.17,-9.26,-7.71,-3.58,-3.36,-3.38
164.88,5.54,8.98,5.79,9.21,-9.21,-9.31,-7.66,-3.67,-3.42,-3.44
166.53,5.55,9.04,5.77,9.24,-9.24,-9.36,-7.62,-3.70,-3.48,-3.50
168.19,5.63,9.17,5.76,9.28,-9.28,-9.41,-7.59,-3.65,-3.52,-3.54
169.87,5.78,9.36,5.76,9.32,-9.32,-9.45,-7.56,-3.55,-3.56,-3.58
171.57,5.87,9.47,5.77,9.36,-9.36,-9.49,-7.54,-3.50,-3.59,-3.61
173.29,5.95,9.58,5.79,9.40,-9.40,-9.53,-7.52,-3.46,-3.62,-3.63
175.02,5.94,9.58,5.81,9.45,-9.45,-9.56,-7.50,-3.51,-3.64,-3.64
176.77,5.93,9.59,5.84,9.50,-9.50,-9.59,-7.50,-3.57,-3.65,-3.66
178.54,5.97,9.64,5.86,9.53,-9.53,-9.61,-7.50,-3.56,-3.67,-3.67
180.32,5.89,9.55,5.88,9.55,-9.55,-9.63,-7.50,-3.67,-3.68,-3.67
182.13,5.84,9.50,5.88,9.57,-9.57,-9.64,-7.51,-3.73,-3.69,-3.67
183.95,5.82,9.50,5.86,9.56,-9.56,-9.65,-7.52,-3.74,-3.70,-3.68
185.79,5.79,9.48,5.82,9.54,-9.54,-9.65,-7.54,-3.75,-3.71,-3.69
187.65,5.76,9.47,5.77,9.50,-9.50,-9.65,-7.57,-3.74,-3.73,-3.71
189.52,5.68,9.41,5.71,9.45,-9.45,-9.65,-7.60,-3.77,-3.74,-3.73
191.42,5.66,9.41,5.63,9.39,-9.39,-9.64,-7.64,-3.74,-3.76,-3.75
193.33,5.63,9.40,5.56,9.33,-9.33,-9.62,-7.68,-3.71,-3.78,-3.78
195.27,5.51,9.31,5.48,9.27,-9.27,-9.60,-7.72,-3.77,-3.80,-3.80
197.22,5.40,9.22,5.39,9.21,-9.21,-9.58,-7.77,-3.81,-3.82,-3.82
199.19,5.34,9.19,5.30,9.14,-9.14,-9.55,-7.83,-3.80,-3.84,-3.85
201.18,5.26,9.13,5.20,9.07,-9.07,-9.51,-7.88,-3.82,-3.87,-3.87
203.19,5.12,9.01,5.11,9.00,-9.00,-9.47,-7.94,-3.88,-3.89,-3.89
205.23,4.99,8.91,5.01,8.92,-8.92,-9.43,-8.01,-3.94,-3.92,-3.92
207.28,4.89,8.81,4.91,8.85,-8.85,-9.38,-8.07,-3.96,-3.94,-3.93
209.35,4.78,8.73,4.82,8.78,-8.78,-9.33,-8.14,-4.01,-3.96,-3.96
211.44,4.69,8.68,4.74,8.72,-8.72,-9.27,-8.21,-4.03,-3.98,-3.99
213.56,4.63,8.63,4.66,8.66,-8.66,-9.21,-8.28,-4.03,-4.00,-4.00
215.69,4.58,8.59,4.59,8.61,-8.61,-9.15,-8.35,-4.04,-4.02,-4.02
217.85,4.52,8.55,4.54,8.58,-8.58,-9.08,-8.41,-4.06,-4.03,-4.03
220.03,4.45,8.49,4.50,8.54,-8.54,-9.01,-8.48,-4.10,-4.05,-4.05
222.23,4.41,8.48,4.46,8.51,-8.51,-8.93,-8.54,-4.11,-4.05,-4.07
224.45,4.44,8.50,4.43,8.49,-8.49,-8.85,-8.60,-4.05,-4.06,-4.07
226.70,4.43,8.50,4.41,8.47,-8.47,-8.77,-8.65,-4.05,-4.06,-4.07
228.96,4.42,8.48,4.40,8.46,-8.46,-8.69,-8.70,-4.04,-4.06,-4.06
231.25,4.43,8.48,4.39,8.44,-8.44,-8.60,-8.74,-4.02,-4.06,-4.05
233.57,4.41,8.45,4.38,8.43,-8.43,-8.51,-8.77,-4.02,-4.05,-4.05
235.90,4.40,8.43,4.37,8.41,-8.41,-8.41,-8.79,-4.01,-4.03,-4.04
238.26,4.38,8.41,4.37,8.39,-8.39,-8.31,-8.80,-4.01,-4.02,-4.03
240.64,4.34,8.35,4.36,8.36,-8.36,-8.21,-8.80,-4.03,-4.00,-4.01
243.05,4.32,8.30,4.35,8.34,-8.34,-8.11,-8.79,-4.02,-3.98,-3.98
245.48,4.30,8.26,4.34,8.30,-8.30,-8.01,-8.76,-4.01,-3.96,-3.96
247.93,4.30,8.23,4.32,8.26,-8.26,-7.90,-8.72,-3.97,-3.94,-3.93
250.41,4.32,8.24,4.29,8.22,-8.22,-7.79,-8.67,-3.90,-3.92,-3.92
252.92,4.28,8.17,4.26,8.16,-8.16,-7.68,-8.61,-3.88,-3.90,-3.89
255.45,4.22,8.09,4.22,8.09,-8.09,-7.57,-8.53,-3.88,-3.88,-3.87
258.00,4.17,8.01,4.17,8.02,-8.02,-7.46,-8.43,-3.85,-3.85,-3.85
260.58,4.12,7.95,4.10,7.94,-7.94,-7.34,-8.33,-3.82,-3.83,-3.84
263.19,4.05,7.85,4.03,7.84,-7.84,-7.22,-8.21,-3.79,-3.81,-3.80
265.82,4.00,7.79,3.95,7.73,-7.73,-7.10,-8.08,-3.73,-3.78,-3.79
268.48,3.88,7.64,3.84,7.60,-7.60,-6.98,-7.94,-3.73,-3.76,-3.77
271.16,3.75,7.48,3.72,7.46,-7.46,-6.85,-7.79,-3.71,-3.74,-3.74
273.87,3.59,7.31,3.58,7.29,-7.29,-6.73,-7.63,-3.71,-3.71,-3.72
276.61,3.43,7.11,3.42,7.11,-7.11,-6.60,-7.47,-3.69,-3.69,-3.69
279.38,3.28,6.94,3.26,6.92,-6.92,-6.47,-7.29,-3.64,-3.66,-3.66
282.17,3.13,6.77,3.09,6.72,-6.72,-6.34,-7.11,-3.60,-3.64,-3.64
284.99,2.93,6.53,2.90,6.52,-6.52,-6.21,-6.92,-3.59,-3.61,-3.61
287.84,2.71,6.30,2.71,6.29,-6.29,-6.08,-6.73,-3.58,-3.58,-3.59
290.72,2.50,6.05,2.50,6.06,-6.06,-5.94,-6.54,-3.56,-3.56,-3.56
293.63,2.30,5.83,2.31,5.83,-5.83,-5.80,-6.35,-3.54,-3.53,-3.53
296.57,2.01,5.50,2.11,5.61,-5.61,-5.66,-6.15,-3.60,-3.50,-3.50
299.53,1.84,5.31,1.90,5.38,-5.38,-5.52,-5.95,-3.54,-3.47,-3.47
302.53,1.68,5.13,1.70,5.15,-5.15,-5.37,-5.75,-3.47,-3.45,-3.46
305.55,1.50,4.91,1.50,4.93,-4.93,-5.23,-5.55,-3.43,-3.42,-3.41
308.61,1.34,4.73,1.30,4.70,-4.70,-5.08,-5.35,-3.37,-3.40,-3.40
311.69,1.09,4.46,1.10,4.48,-4.48,-4.93,-5.15,-3.39,-3.38,-3.37
314.81,0.84,4.18,0.88,4.24,-4.24,-4.77,-4.95,-3.40,-3.36,-3.34
317.96,0.64,3.96,0.67,4.00,-4.00,-4.62,-4.75,-3.37,-3.34,-3.33
321.14,0.57,3.89,0.46,3.78,-3.78,-4.46,-4.55,-3.21,-3.32,-3.32
324.35,0.37,3.67,0.24,3.54,-3.54,-4.29,-4.35,-3.17,-3.30,-3.31
327.59,0.05,3.33,0.00,3.29,-3.29,-4.13,-4.16,-3.25,-3.29,-3.29
330.87,-0.21,3.07,-0.23,3.05,-3.05,-3.96,-3.97,-3.26,-3.28,-3.28
334.18,-0.38,2.88,-0.46,2.81,-2.81,-3.78,-3.78,-3.19,-3.26,-3.27
337.52,-0.62,2.63,-0.70,2.56,-2.56,-3.61,-3.59,-3.18,-3.25,-3.26
340.90,-0.92,2.32,-0.92,2.33,-2.33,-3.42,-3.40,-3.25,-3.25,-3.24
344.30,-1.23,2.00,-1.12,2.12,-2.12,-3.24,-3.21,-3.35,-3.24,-3.23
347.75,-1.42,1.81,-1.31,1.93,-1.93,-3.05,-3.03,-3.35,-3.24,-3.24
351.23,-1.52,1.71,-1.49,1.75,-1.75,-2.86,-2.85,-3.27,-3.23,-3.23
354.74,-1.70,1.53,-1.65,1.58,-1.58,-2.66,-2.67,-3.28,-3.23,-3.23
358.28,-2.01,1.21,-1.81,1.42,-1.42,-2.46,-2.49,-3.43,-3.23,-3.22
361.87,-2.07,1.15,-1.94,1.28,-1.28,-2.25,-2.31,-3.36,-3.22,-3.23
365.49,-2.03,1.19,-2.06,1.16,-1.16,-2.04,-2.14,-3.20,-3.22,-3.22
369.14,-2.19,1.04,-2.17,1.05,-1.05,-1.82,-1.97,-3.24,-3.23,-3.23
372.83,-2.29,0.94,-2.28,0.95,-0.95,-1.61,-1.80,-3.24,-3.23,-3.23
376.56,-2.16,1.07,-2.38,0.85,-0.85,-1.38,-1.63,-3.02,-3.23,-3.24
380.33,-2.35,0.87,-2.48,0.75,-0.75,-1.16,-1.46,-3.11,-3.23,-3.23
384.13,-2.52,0.71,-2.59,0.65,-0.65,-0.93,-1.29,-3.17,-3.24,-3.23
387.97,-2.66,0.58,-2.72,0.53,-0.53,-0.71,-1.13,-3.19,-3.24,-3.24
391.85,-2.82,0.43,-2.84,0.40,-0.40,-0.48,-0.97,-3.23,-3.25,-3.25
395.77,-2.95,0.29,-2.97,0.28,-0.28,-0.25,-0.81,-3.24,-3.25,-3.24
399.73,-3.08,0.17,-3.12,0.15,-0.15,-0.03,-0.65,-3.23,-3.26,-3.26
403.72,-3.24,0.01,-3.27,0.00,-0.00,0.19,-0.50,-3.24,-3.27,-3.26
407.76,-3.38,-0.12,-3.41,-0.14,0.14,0.40,-0.35,-3.24,-3.27,-3.27
411.84,-3.54,-0.27,-3.55,-0.28,0.28,0.60,-0.20,-3.26,-3.27,-3.27
415.96,-3.76,-0.49,-3.68,-0.40,0.40,0.78,-0.05,-3.36,-3.27,-3.27
420.12,-3.93,-0.66,-3.80,-0.53,0.53,0.96,0.10,-3.40,-3.27,-3.27
424.32,-4.00,-0.73,-3.91,-0.65,0.65,1.11,0.24,-3.36,-3.27,-3.27
428.56,-4.06,-0.80,-4.01,-0.75,0.75,1.25,0.37,-3.31,-3.26,-3.26
432.85,-4.08,-0.83,-4.09,-0.85,0.85,1.37,0.50,-3.24,-3.24,-3.26
437.18,-4.21,-0.97,-4.17,-0.95,0.95,1.46,0.63,-3.27,-3.22,-3.25
441.55,-4.28,-1.08,-4.23,-1.04,1.04,1.53,0.76,-3.25,-3.20,-3.21
445.96,-4.15,-0.97,-4.29,-1.12,1.12,1.58,0.87,-3.03,-3.17,-3.18
450.42,-4.28,-1.13,-4.34,-1.21,1.21,1.60,0.99,-3.07,-3.13,-3.15
454.93,-4.32,-1.22,-4.39,-1.30,1.30,1.60,1.09,-3.03,-3.09,-3.10
459.48,-4.30,-1.25,-4.42,-1.37,1.37,1.58,1.19,-2.93,-3.05,-3.05
464.07,-4.59,-1.59,-4.45,-1.45,1.45,1.54,1.29,-3.14,-3.00,-3.00
468.71,-4.50,-1.56,-4.49,-1.54,1.54,1.48,1.37,-2.97,-2.95,-2.94
473.40,-4.40,-1.50,-4.52,-1.62,1.62,1.41,1.45,-2.79,-2.90,-2.90
478.13,-4.53,-1.69,-4.54,-1.69,1.69,1.33,1.52,-2.85,-2.85,-2.85
482.91,-4.62,-1.82,-4.56,-1.75,1.75,1.24,1.58,-2.87,-2.81,-2.81
487.74,-4.57,-1.81,-4.57,-1.80,1.80,1.14,1.64,-2.77,-2.77,-2.77
492.62,-4.60,-1.89,-4.58,-1.84,1.84,1.03,1.68,-2.76,-2.73,-2.72
497.55,-4.64,-1.95,-4.57,-1.87,1.87,0.93,1.72,-2.77,-2.70,-2.70
502.52,-4.54,-1.88,-4.55,-1.87,1.87,0.82,1.74,-2.67,-2.68,-2.67
