frequency,raw,error,smoothed,error_smoothed,equalization,parametric_eq,fixed_band_eq,equalized_raw,equalized_smoothed,target
20.00,11.27,-0.74,11.27,-0.74,0.74,0.92,-0.09,12.02,12.02,12.02
20.20,11.29,-0.71,11.30,-0.71,0.71,0.89,-0.09,12.00,12.00,12.01
20.40,11.32,-0.67,11.32,-0.67,0.67,0.86,-0.09,11.99,11.99,12.00
20.61,11.34,-0.64,11.35,-0.64,0.63,0.83,-0.09,11.98,11.98,11.99
20.81,11.37,-0.59,11.37,-0.59,0.60,0.80,-0.09,11.97,11.97,11.97
21.02,11.39,-0.56,11.40,-0.56,0.57,0.76,-0.10,11.96,11.96,11.96
21.23,11.42,-0.52,11.42,-0.53,0.53,0.73,-0.10,11.96,11.95,11.95
21.44,11.44,-0.51,11.44,-0.50,0.50,0.70,-0.10,11.94,11.94,11.95
21.66,11.46,-0.47,11.47,-0.47,0.47,0.67,-0.10,11.93,11.94,11.94
21.87,11.49,-0.44,11.49,-0.44,0.43,0.64,-0.10,11.93,11.93,11.93
22.09,11.51,-0.40,11.51,-0.40,0.40,0.60,-0.10,11.92,11.92,11.92
22.31,11.53,-0.37,11.54,-0.37,0.37,0.57,-0.10,11.91,11.91,11.91
22.54,11.55,-0.34,11.56,-0.34,0.34,0.54,-0.10,11.90,11.90,11.90
22.76,11.58,-0.31,11.58,-0.31,0.31,0.51,-0.10,11.90,11.89,11.90
22.99,11.60,-0.28,11.60,-0.28,0.28,0.48,-0.10,11.89,11.89,11.89
23.22,11.62,-0.25,11.63,-0.25,0.25,0.45,-0.10,11.88,11.88,11.88
23.45,11.65,-0.23,11.65,-0.23,0.23,0.42,-0.10,11.88,11.88,11.89
23.69,11.67,-0.20,11.67,-0.20,0.20,0.39,-0.10,11.88,11.88,11.88
23.92,11.69,-0.17,11.70,-0.18,0.18,0.36,-0.10,11.87,11.87,11.87
24.16,11.71,-0.16,11.72,-0.15,0.15,0.33,-0.10,11.87,11.87,11.88
24.40,11.74,-0.13,11.74,-0.13,0.13,0.30,-0.10,11.87,11.87,11.88
24.65,11.76,-0.10,11.76,-0.11,0.10,0.27,-0.10,11.87,11.86,11.87
24.89,11.78,-0.08,11.79,-0.08,0.08,0.25,-0.10,11.86,11.86,11.87
25.14,11.81,-0.05,11.81,-0.05,0.05,0.22,-0.10,11.86,11.86,11.86
25.39,11.84,-0.02,11.83,-0.02,0.03,0.19,-0.10,11.86,11.86,11.86
25.65,11.85,-0.00,11.85,-0.00,0.00,0.17,-0.10,11.86,11.86,11.86
25.91,11.87,0.02,11.87,0.02,-0.02,0.14,-0.10,11.86,11.86,11.86
26.16,11.89,0.03,11.90,0.04,-0.04,0.11,-0.10,11.85,11.85,11.87
26.43,11.91,0.06,11.92,0.06,-0.06,0.09,-0.10,11.85,11.85,11.86
26.69,11.94,0.09,11.94,0.08,-0.09,0.06,-0.10,11.86,11.86,11.86
26.96,11.96,0.11,11.96,0.11,-0.11,0.04,-0.11,11.86,11.86,11.86
27.23,11.98,0.13,11.99,0.13,-0.13,0.02,-0.11,11.86,11.86,11.86
27.50,12.00,0.15,12.00,0.15,-0.15,-0.01,-0.11,11.86,11.86,11.86
27.77,12.02,0.16,12.02,0.17,-0.16,-0.03,-0.12,11.86,11.86,11.87
28.05,12.04,0.19,12.04,0.18,-0.18,-0.06,-0.12,11.86,11.86,11.86
28.33,12.06,0.20,12.06,0.20,-0.20,-0.08,-0.13,11.86,11.86,11.87
28.62,12.08,0.22,12.08,0.22,-0.22,-0.10,-0.13,11.87,11.87,11.87
28.90,12.10,0.23,12.10,0.23,-0.24,-0.12,-0.14,11.87,11.87,11.88
29.19,12.12,0.25,12.13,0.25,-0.26,-0.15,-0.14,11.87,11.87,11.88
29.48,12.14,0.28,12.14,0.27,-0.28,-0.17,-0.15,11.87,11.87,11.87
29.78,12.16,0.30,12.16,0.30,-0.30,-0.19,-0.16,11.87,11.86,11.87
30.08,12.17,0.31,12.18,0.32,-0.32,-0.21,-0.17,11.86,11.86,11.87
30.38,12.19,0.35,12.19,0.34,-0.34,-0.24,-0.18,11.85,11.85,11.85
30.68,12.21,0.37,12.21,0.37,-0.37,-0.26,-0.19,11.85,11.85,11.85
30.99,12.23,0.39,12.23,0.39,-0.39,-0.28,-0.20,11.84,11.84,11.85
31.30,12.25,0.41,12.26,0.42,-0.42,-0.30,-0.22,11.84,11.84,11.85
31.61,12.27,0.44,12.27,0.44,-0.44,-0.32,-0.23,11.83,11.83,11.84
31.93,12.29,0.48,12.29,0.47,-0.46,-0.35,-0.25,11.83,11.83,11.82
32.24,12.30,0.48,12.31,0.49,-0.49,-0.37,-0.26,11.82,11.82,11.82
32.57,12.32,0.52,12.32,0.51,-0.51,-0.39,-0.28,11.81,11.81,11.81
32.89,12.33,0.53,12.34,0.53,-0.53,-0.41,-0.30,11.80,11.80,11.81
33.22,12.35,0.56,12.35,0.55,-0.55,-0.43,-0.32,11.80,11.80,11.80
33.55,12.36,0.57,12.36,0.57,-0.57,-0.46,-0.34,11.79,11.79,11.80
33.89,12.37,0.59,12.37,0.59,-0.59,-0.48,-0.36,11.78,11.78,11.79
34.23,12.38,0.62,12.39,0.62,-0.61,-0.50,-0.39,11.77,11.77,11.77
34.57,12.39,0.63,12.40,0.64,-0.63,-0.52,-0.41,11.76,11.76,11.77
34.92,12.41,0.67,12.41,0.66,-0.66,-0.54,-0.43,11.76,11.76,11.75
35.27,12.42,0.66,12.42,0.67,-0.68,-0.57,-0.46,11.75,11.75,11.76
35.62,12.43,0.70,12.44,0.70,-0.70,-0.59,-0.49,11.73,11.74,11.74
35.97,12.45,0.72,12.45,0.72,-0.72,-0.61,-0.52,11.73,11.73,11.73
36.33,12.46,0.75,12.46,0.75,-0.75,-0.63,-0.54,11.72,11.72,11.71
36.70,12.46,0.77,12.47,0.77,-0.77,-0.66,-0.57,11.70,11.70,11.70
37.06,12.47,0.80,12.47,0.80,-0.79,-0.68,-0.60,11.68,11.68,11.67
37.43,12.47,0.82,12.47,0.82,-0.81,-0.70,-0.64,11.66,11.66,11.66
37.81,12.47,0.83,12.48,0.84,-0.84,-0.73,-0.67,11.64,11.64,11.65
38.19,12.47,0.86,12.48,0.86,-0.86,-0.75,-0.70,11.61,11.62,11.62
38.57,12.48,0.89,12.48,0.88,-0.89,-0.78,-0.74,11.60,11.60,11.60
38.95,12.48,0.90,12.48,0.91,-0.91,-0.80,-0.77,11.58,11.58,11.58
39.34,12.48,0.93,12.49,0.93,-0.94,-0.83,-0.81,11.55,11.55,11.55
39.74,12.49,0.97,12.49,0.96,-0.96,-0.85,-0.84,11.53,11.53,11.53
40.14,12.49,0.99,12.50,0.99,-0.99,-0.88,-0.88,11.50,11.51,11.51
40.54,12.50,1.02,12.50,1.02,-1.02,-0.90,-0.92,11.49,11.48,11.49
40.94,12.50,1.05,12.51,1.05,-1.04,-0.93,-0.96,11.46,11.46,11.46
41.35,12.51,1.07,12.51,1.07,-1.07,-0.96,-1.00,11.44,11.44,11.45
41.76,12.52,1.11,12.52,1.10,-1.10,-0.98,-1.04,11.43,11.42,11.42
42.18,12.52,1.12,12.53,1.13,-1.13,-1.01,-1.08,11.40,11.40,11.41
42.60,12.53,1.16,12.53,1.16,-1.15,-1.04,-1.13,11.38,11.38,11.37
43.03,12.53,1.18,12.53,1.18,-1.18,-1.07,-1.17,11.35,11.35,11.36
43.46,12.53,1.22,12.54,1.22,-1.22,-1.09,-1.21,11.32,11.32,11.32
43.90,12.54,1.25,12.54,1.25,-1.25,-1.12,-1.26,11.29,11.29,11.30
44.33,12.55,1.29,12.56,1.29,-1.29,-1.15,-1.31,11.26,11.26,11.26
44.78,12.57,1.33,12.58,1.33,-1.33,-1.18,-1.35,11.24,11.24,11.25
45.23,12.59,1.37,12.59,1.38,-1.38,-1.21,-1.40,11.21,11.21,11.23
45.68,12.61,1.44,12.61,1.43,-1.43,-1.24,-1.45,11.19,11.18,11.18
46.13,12.62,1.48,12.63,1.48,-1.48,-1.27,-1.50,11.14,11.15,11.14
46.60,12.64,1.54,12.64,1.53,-1.53,-1.31,-1.56,11.11,11.11,11.11
47.06,12.65,1.58,12.66,1.59,-1.59,-1.34,-1.61,11.07,11.07,11.08
47.53,12.67,1.64,12.67,1.64,-1.64,-1.37,-1.66,11.03,11.03,11.03
48.01,12.68,1.70,12.69,1.70,-1.70,-1.40,-1.72,10.99,10.99,10.99
48.49,12.69,1.75,12.70,1.75,-1.75,-1.44,-1.77,10.95,10.95,10.95
48.97,12.70,1.81,12.70,1.80,-1.80,-1.47,-1.83,10.90,10.90,10.90
49.46,12.70,1.84,12.71,1.85,-1.85,-1.51,-1.88,10.85,10.86,10.86
49.96,12.71,1.91,12.71,1.90,-1.90,-1.54,-1.94,10.82,10.81,10.81
50.46,12.71,1.94,12.72,1.94,-1.94,-1.58,-2.00,10.77,10.77,10.78
50.96,12.72,1.99,12.72,1.99,-1.99,-1.61,-2.05,10.74,10.74,10.74
51.47,12.72,2.03,12.72,2.03,-2.03,-1.65,-2.11,10.70,10.70,10.70
51.99,12.72,2.08,12.72,2.07,-2.07,-1.69,-2.17,10.66,10.65,10.65
52.51,12.71,2.10,12.72,2.10,-2.11,-1.73,-2.23,10.61,10.61,10.62
53.03,12.71,2.13,12.71,2.14,-2.14,-1.77,-2.29,10.57,10.57,10.59
53.56,12.70,2.17,12.71,2.17,-2.18,-1.81,-2.34,10.53,10.53,10.54
54.10,12.70,2.22,12.70,2.21,-2.21,-1.85,-2.40,10.50,10.49,10.49
54.64,12.68,2.24,12.69,2.24,-2.24,-1.89,-2.46,10.45,10.45,10.45
55.18,12.66,2.26,12.67,2.27,-2.26,-1.93,-2.51,10.40,10.41,10.40
55.74,12.65,2.30,12.65,2.29,-2.28,-1.97,-2.56,10.37,10.37,10.36
56.29,12.63,2.30,12.64,2.31,-2.30,-2.01,-2.62,10.33,10.33,10.33
56.86,12.61,2.32,12.62,2.33,-2.32,-2.06,-2.67,10.29,10.29,10.30
57.42,12.59,2.35,12.59,2.34,-2.34,-2.10,-2.72,10.26,10.25,10.24
58.00,12.56,2.36,12.57,2.36,-2.35,-2.15,-2.76,10.21,10.21,10.21
58.58,12.54,2.37,12.55,2.37,-2.38,-2.19,-2.81,10.17,10.17,10.18
59.16,12.53,2.39,12.53,2.39,-2.40,-2.24,-2.85,10.13,10.13,10.14
59.76,12.51,2.42,12.52,2.42,-2.43,-2.29,-2.89,10.08,10.08,10.10
60.35,12.50,2.46,12.50,2.46,-2.47,-2.33,-2.93,10.04,10.03,10.04
60.96,12.49,2.51,12.49,2.51,-2.51,-2.38,-2.97,9.98,9.98,9.99
61.57,12.48,2.56,12.49,2.56,-2.56,-2.43,-3.00,9.92,9.93,9.93
62.18,12.48,2.62,12.48,2.62,-2.61,-2.48,-3.03,9.87,9.87,9.86
62.80,12.48,2.68,12.48,2.67,-2.67,-2.53,-3.06,9.82,9.81,9.80
63.43,12.48,2.73,12.48,2.73,-2.73,-2.58,-3.08,9.76,9.76,9.76
64.07,12.48,2.78,12.49,2.78,-2.79,-2.63,-3.11,9.70,9.70,9.71
64.71,12.49,2.84,12.50,2.84,-2.84,-2.68,-3.13,9.65,9.65,9.66
65.35,12.50,2.91,12.50,2.90,-2.90,-2.73,-3.14,9.60,9.60,9.59
66.01,12.51,2.97,12.51,2.96,-2.96,-2.78,-3.16,9.55,9.55,9.55
66.67,12.51,3.01,12.52,3.02,-3.02,-2.84,-3.17,9.50,9.50,9.51
67.33,12.51,3.08,12.52,3.08,-3.08,-2.89,-3.18,9.44,9.44,9.43
68.01,12.52,3.14,12.52,3.13,-3.13,-2.94,-3.19,9.39,9.39,9.39
68.69,12.52,3.19,12.53,3.19,-3.19,-3.00,-3.20,9.33,9.33,9.34
69.37,12.52,3.24,12.53,3.25,-3.25,-3.05,-3.21,9.28,9.28,9.28
70.07,12.52,3.30,12.52,3.30,-3.30,-3.10,-3.21,9.22,9.22,9.23
70.77,12.51,3.36,12.52,3.35,-3.35,-3.16,-3.22,9.16,9.16,9.16
71.48,12.50,3.40,12.51,3.41,-3.40,-3.21,-3.22,9.10,9.10,9.11
72.19,12.49,3.45,12.49,3.45,-3.45,-3.27,-3.23,9.05,9.04,9.05
72.91,12.47,3.50,12.48,3.49,-3.49,-3.32,-3.23,8.98,8.98,8.97
73.64,12.45,3.53,12.46,3.53,-3.53,-3.37,-3.24,8.93,8.93,8.92
74.38,12.43,3.57,12.44,3.57,-3.56,-3.43,-3.24,8.87,8.87,8.87
75.12,12.41,3.60,12.41,3.60,-3.60,-3.48,-3.25,8.82,8.82,8.81
75.87,12.38,3.62,12.39,3.62,-3.62,-3.54,-3.26,8.76,8.76,8.76
76.63,12.35,3.65,12.36,3.65,-3.65,-3.59,-3.26,8.71,8.71,8.71
77.40,12.33,3.67,12.33,3.67,-3.67,-3.64,-3.27,8.66,8.66,8.67
78.17,12.30,3.70,12.31,3.70,-3.70,-3.69,-3.29,8.61,8.61,8.61
78.95,12.28,3.72,12.28,3.72,-3.72,-3.74,-3.30,8.56,8.56,8.56
79.74,12.26,3.75,12.26,3.75,-3.75,-3.80,-3.32,8.51,8.51,8.51
80.54,12.23,3.77,12.24,3.78,-3.78,-3.85,-3.33,8.45,8.46,8.47
81.35,12.22,3.82,12.22,3.81,-3.81,-3.90,-3.35,8.41,8.41,8.41
82.16,12.21,3.84,12.21,3.85,-3.85,-3.94,-3.38,8.36,8.36,8.38
82.98,12.20,3.89,12.20,3.89,-3.89,-3.99,-3.40,8.31,8.31,8.32
83.81,12.19,3.93,12.20,3.93,-3.93,-4.04,-3.43,8.26,8.26,8.27
84.65,12.18,3.98,12.18,3.98,-3.98,-4.09,-3.46,8.21,8.21,8.21
85.50,12.17,4.03,12.17,4.02,-4.02,-4.13,-3.49,8.16,8.15,8.15
86.35,12.15,4.06,12.16,4.06,-4.06,-4.17,-3.52,8.09,8.10,8.10
87.22,12.14,4.10,12.14,4.10,-4.10,-4.22,-3.56,8.05,8.04,8.05
88.09,12.12,4.14,12.12,4.14,-4.14,-4.26,-3.60,7.99,7.99,7.99
88.97,12.10,4.18,12.10,4.17,-4.17,-4.30,-3.64,7.93,7.93,7.93
89.86,12.07,4.20,12.08,4.21,-4.20,-4.34,-3.69,7.87,7.87,7.88
90.76,12.05,4.24,12.05,4.24,-4.24,-4.37,-3.74,7.82,7.81,7.82
91.66,12.01,4.27,12.02,4.27,-4.27,-4.41,-3.79,7.75,7.75,7.74
92.58,11.99,4.30,11.99,4.30,-4.30,-4.44,-3.85,7.69,7.69,7.70
93.51,11.96,4.32,11.97,4.33,-4.34,-4.48,-3.90,7.63,7.63,7.65
94.44,11.94,4.36,11.95,4.36,-4.37,-4.51,-3.96,7.58,7.58,7.59
95.39,11.92,4.41,11.92,4.40,-4.40,-4.54,-4.02,7.52,7.52,7.52
96.34,11.89,4.45,11.89,4.44,-4.43,-4.57,-4.09,7.46,7.46,7.45
97.30,11.85,4.47,11.86,4.48,-4.47,-4.59,-4.15,7.39,7.39,7.38
98.28,11.82,4.51,11.82,4.50,-4.50,-4.62,-4.22,7.32,7.32,7.32
99.26,11.78,4.53,11.79,4.53,-4.54,-4.64,-4.29,7.25,7.25,7.26
100.25,11.75,4.56,11.76,4.56,-4.57,-4.67,-4.37,7.18,7.18,7.20
101.25,11.73,4.59,11.74,4.60,-4.61,-4.69,-4.44,7.13,7.13,7.14
102.27,11.72,4.64,11.72,4.64,-4.64,-4.71,-4.52,7.08,7.08,7.09
103.29,11.71,4.69,11.71,4.68,-4.68,-4.73,-4.59,7.04,7.04,7.03
104.32,11.69,4.72,11.69,4.72,-4.71,-4.75,-4.67,6.99,6.99,6.98
105.37,11.66,4.75,11.66,4.75,-4.73,-4.77,-4.75,6.93,6.93,6.92
106.42,11.62,4.76,11.63,4.76,-4.75,-4.78,-4.82,6.87,6.87,6.87
107.48,11.58,4.78,11.59,4.78,-4.77,-4.80,-4.90,6.81,6.81,6.81
108.56,11.54,4.79,11.54,4.79,-4.79,-4.81,-4.97,6.75,6.75,6.76
109.64,11.49,4.80,11.50,4.80,-4.81,-4.83,-5.05,6.69,6.69,6.69
110.74,11.45,4.82,11.45,4.82,-4.83,-4.84,-5.12,6.62,6.62,6.64
111.85,11.41,4.84,11.42,4.84,-4.86,-4.85,-5.19,6.56,6.56,6.58
112.97,11.38,4.86,11.39,4.87,-4.89,-4.87,-5.26,6.50,6.50,6.53
114.10,11.37,4.91,11.37,4.91,-4.91,-4.88,-5.32,6.46,6.45,6.47
115.24,11.34,4.96,11.35,4.96,-4.94,-4.89,-5.38,6.40,6.41,6.39
116.39,11.32,5.00,11.32,5.00,-4.97,-4.90,-5.44,6.36,6.35,6.33
117.55,11.28,5.02,11.28,5.02,-4.99,-4.91,-5.49,6.29,6.29,6.27
118.73,11.23,5.03,11.23,5.02,-5.01,-4.92,-5.53,6.22,6.22,6.21
119.92,11.17,5.01,11.18,5.02,-5.03,-4.93,-5.58,6.14,6.15,6.17
121.12,11.13,5.02,11.14,5.03,-5.05,-4.93,-5.61,6.09,6.09,6.12
122.33,11.10,5.05,11.11,5.05,-5.06,-4.94,-5.64,6.04,6.04,6.06
123.55,11.08,5.08,11.08,5.07,-5.08,-4.95,-5.66,6.00,6.00,6.01
124.79,11.05,5.10,11.05,5.10,-5.10,-4.96,-5.67,5.96,5.95,5.96
126.03,11.01,5.12,11.02,5.12,-5.12,-4.97,-5.68,5.90,5.90,5.90
127.29,10.98,5.14,10.99,5.15,-5.14,-4.98,-5.69,5.85,5.85,5.85
128.57,10.95,5.18,10.94,5.16,-5.16,-4.98,-5.68,5.80,5.79,5.78
129.85,10.89,5.17,10.90,5.18,-5.17,-4.99,-5.67,5.73,5.73,5.73
131.15,10.84,5.18,10.85,5.19,-5.18,-5.00,-5.66,5.67,5.67,5.67
132.46,10.80,5.19,10.80,5.19,-5.19,-5.01,-5.63,5.62,5.61,5.62
133.79,10.75,5.20,10.75,5.19,-5.19,-5.01,-5.61,5.56,5.55,5.56
135.12,10.68,5.18,10.70,5.19,-5.20,-5.02,-5.58,5.49,5.50,5.51
136.48,10.64,5.19,10.65,5.19,-5.20,-5.03,-5.54,5.44,5.44,5.46
137.84,10.60,5.20,10.60,5.20,-5.20,-5.04,-5.50,5.40,5.40,5.41
139.22,10.56,5.22,10.56,5.21,-5.21,-5.05,-5.46,5.36,5.36,5.35
140.61,10.52,5.22,10.52,5.22,-5.20,-5.05,-5.41,5.32,5.31,5.31
142.02,10.45,5.21,10.46,5.21,-5.20,-5.06,-5.36,5.25,5.26,5.25
143.44,10.41,5.21,10.41,5.20,-5.20,-5.07,-5.31,5.21,5.21,5.21
144.87,10.35,5.19,10.35,5.19,-5.20,-5.08,-5.26,5.15,5.15,5.17
146.32,10.30,5.19,10.30,5.19,-5.20,-5.09,-5.21,5.11,5.11,5.12
147.78,10.25,5.18,10.26,5.18,-5.19,-5.09,-5.16,5.06,5.06,5.08
149.26,10.21,5.19,10.22,5.19,-5.19,-5.10,-5.11,5.02,5.03,5.03
150.75,10.18,5.20,10.18,5.19,-5.19,-5.11,-5.06,4.99,4.99,4.99
152.26,10.14,5.20,10.14,5.20,-5.19,-5.12,-5.01,4.95,4.95,4.95
153.78,10.09,5.19,10.10,5.19,-5.19,-5.13,-4.96,4.90,4.91,4.91
155.32,10.05,5.19,10.05,5.19,-5.19,-5.13,-4.91,4.86,4.86,4.87
156.88,9.99,5.18,10.00,5.19,-5.19,-5.14,-4.86,4.80,4.81,4.82
158.44,9.96,5.20,9.96,5.19,-5.19,-5.15,-4.82,4.78,4.77,4.77
160.03,9.90,5.18,9.91,5.19,-5.18,-5.15,-4.78,4.72,4.73,4.73
161.63,9.86,5.18,9.86,5.18,-5.18,-5.16,-4.74,4.69,4.69,4.69
163.24,9.81,5.18,9.81,5.17,-5.17,-5.16,-4.71,4.64,4.63,4.64
164.88,9.74,5.16,9.75,5.16,-5.17,-5.17,-4.67,4.58,4.58,4.59
166.53,9.68,5.15,9.69,5.15,-5.16,-5.17,-4.65,4.53,4.53,4.54
168.19,9.64,5.14,9.64,5.15,-5.15,-5.18,-4.62,4.49,4.49,4.51
169.87,9.59,5.15,9.60,5.15,-5.14,-5.18,-4.60,4.45,4.46,4.45
171.57,9.54,5.15,9.54,5.14,-5.13,-5.19,-4.58,4.41,4.41,4.40
173.29,9.49,5.14,9.48,5.13,-5.12,-5.19,-4.56,4.37,4.36,4.36
175.02,9.40,5.10,9.42,5.11,-5.12,-5.19,-4.55,4.29,4.30,4.31
176.77,9.35,5.10,9.35,5.10,-5.11,-5.19,-4.54,4.25,4.24,4.26
178.54,9.29,5.08,9.30,5.09,-5.10,-5.19,-4.54,4.20,4.20,4.22
180.32,9.25,5.10,9.25,5.09,-5.09,-5.19,-4.53,4.17,4.17,4.16
182.13,9.21,5.09,9.21,5.09,-5.08,-5.19,-4.54,4.14,4.13,4.13
183.95,9.14,5.07,9.15,5.08,-5.07,-5.19,-4.54,4.08,4.08,4.08
185.79,9.09,5.07,9.09,5.06,-5.06,-5.18,-4.55,4.04,4.03,4.03
187.65,9.02,5.04,9.03,5.04,-5.05,-5.18,-4.56,3.97,3.98,3.99
189.52,8.97,5.03,8.98,5.03,-5.05,-5.18,-4.58,3.93,3.93,3.95
191.42,8.93,5.03,8.93,5.03,-5.04,-5.17,-4.60,3.90,3.89,3.91
193.33,8.89,5.03,8.89,5.03,-5.03,-5.16,-4.62,3.87,3.86,3.87
195.27,8.84,5.03,8.85,5.03,-5.02,-5.15,-4.64,3.83,3.83,3.82
197.22,8.79,5.03,8.79,5.02,-5.01,-5.14,-4.67,3.79,3.79,3.77
199.19,8.73,5.00,8.73,5.00,-4.99,-5.13,-4.70,3.74,3.74,3.74
201.18,8.67,4.98,8.68,4.98,-4.98,-5.12,-4.73,3.70,3.70,3.70
203.19,8.62,4.96,8.62,4.95,-4.96,-5.11,-4.76,3.66,3.66,3.67
205.23,8.57,4.93,8.57,4.93,-4.94,-5.10,-4.79,3.63,3.63,3.65
207.28,8.52,4.91,8.53,4.92,-4.92,-5.08,-4.83,3.60,3.60,3.62
209.35,8.48,4.91,8.48,4.90,-4.91,-5.06,-4.87,3.58,3.57,3.58
211.44,8.44,4.90,8.44,4.89,-4.90,-5.04,-4.90,3.55,3.55,3.55
213.56,8.40,4.88,8.40,4.88,-4.88,-5.03,-4.94,3.52,3.52,3.53
215.69,8.36,4.87,8.37,4.87,-4.87,-5.00,-4.98,3.49,3.49,3.50
217.85,8.32,4.86,8.33,4.87,-4.86,-4.98,-5.01,3.47,3.47,3.47
220.03,8.29,4.86,8.29,4.85,-4.84,-4.96,-5.04,3.45,3.45,3.44
222.23,8.25,4.85,8.25,4.84,-4.83,-4.93,-5.08,3.42,3.42,3.41
224.45,8.19,4.80,8.20,4.81,-4.82,-4.91,-5.11,3.38,3.38,3.40
226.70,8.15,4.79,8.16,4.79,-4.80,-4.88,-5.13,3.35,3.35,3.37
228.96,8.12,4.77,8.13,4.77,-4.79,-4.85,-5.16,3.34,3.34,3.36
231.25,8.10,4.77,8.10,4.77,-4.77,-4.82,-5.18,3.33,3.33,3.34
233.57,8.08,4.77,8.08,4.77,-4.76,-4.79,-5.19,3.33,3.33,3.32
235.90,8.05,4.75,8.05,4.75,-4.74,-4.75,-5.20,3.32,3.32,3.31
238.26,8.01,4.74,8.02,4.73,-4.72,-4.72,-5.20,3.30,3.30,3.28
240.64,7.97,4.69,7.98,4.70,-4.70,-4.68,-5.20,3.28,3.28,3.29
243.05,7.93,4.67,7.93,4.67,-4.67,-4.65,-5.19,3.26,3.26,3.27
245.48,7.89,4.64,7.89,4.64,-4.65,-4.61,-5.18,3.25,3.25,3.26
247.93,7.85,4.61,7.86,4.61,-4.62,-4.57,-5.16,3.24,3.24,3.25
250.41,7.83,4.58,7.83,4.58,-4.59,-4.53,-5.13,3.25,3.24,3.26
252.92,7.80,4.56,7.80,4.56,-4.56,-4.48,-5.10,3.25,3.25,3.25
255.45,7.77,4.54,7.77,4.53,-4.52,-4.44,-5.06,3.25,3.25,3.24
258.00,7.73,4.50,7.73,4.50,-4.49,-4.39,-5.01,3.25,3.25,3.24
260.58,7.68,4.45,7.69,4.45,-4.45,-4.35,-4.95,3.24,3.24,3.24
263.19,7.64,4.41,7.64,4.41,-4.41,-4.30,-4.89,3.24,3.23,3.24
265.82,7.58,4.36,7.59,4.36,-4.37,-4.25,-4.83,3.22,3.23,3.23
268.48,7.54,4.32,7.54,4.31,-4.32,-4.20,-4.75,3.22,3.22,3.23
271.16,7.49,4.27,7.49,4.26,-4.28,-4.15,-4.67,3.21,3.21,3.23
273.87,7.43,4.21,7.45,4.22,-4.24,-4.10,-4.59,3.20,3.21,3.23
276.61,7.40,4.18,7.41,4.19,-4.19,-4.05,-4.50,3.22,3.22,3.23
279.38,7.37,4.17,7.37,4.16,-4.14,-3.99,-4.41,3.24,3.23,3.21
282.17,7.32,4.12,7.32,4.11,-4.09,-3.94,-4.32,3.24,3.23,3.21
284.99,7.25,4.04,7.25,4.04,-4.03,-3.88,-4.22,3.23,3.23,3.22
287.84,7.17,3.95,7.18,3.97,-3.97,-3.82,-4.12,3.21,3.22,3.23
290.72,7.11,3.90,7.11,3.89,-3.90,-3.77,-4.02,3.21,3.21,3.22
293.63,7.05,3.83,7.05,3.83,-3.83,-3.71,-3.91,3.22,3.22,3.23
296.57,6.98,3.75,6.99,3.75,-3.76,-3.65,-3.81,3.23,3.23,3.24
299.53,6.92,3.69,6.92,3.68,-3.69,-3.59,-3.70,3.24,3.24,3.24
302.53,6.85,3.60,6.86,3.62,-3.62,-3.53,-3.60,3.24,3.24,3.26
305.55,6.80,3.56,6.80,3.55,-3.55,-3.46,-3.49,3.26,3.25,3.25
308.61,6.73,3.48,6.73,3.48,-3.48,-3.40,-3.38,3.26,3.26,3.26
311.69,6.66,3.40,6.67,3.41,-3.41,-3.34,-3.28,3.26,3.26,3.27
314.81,6.60,3.34,6.61,3.34,-3.33,-3.27,-3.17,3.27,3.27,3.27
317.96,6.54,3.27,6.55,3.27,-3.26,-3.21,-3.06,3.28,3.28,3.28
321.14,6.48,3.20,6.48,3.20,-3.19,-3.14,-2.96,3.29,3.29,3.29
324.35,6.41,3.13,6.41,3.12,-3.12,-3.08,-2.86,3.29,3.29,3.29
327.59,6.33,3.02,6.35,3.04,-3.05,-3.01,-2.75,3.28,3.29,3.32
330.87,6.28,2.98,6.28,2.97,-2.98,-2.94,-2.65,3.31,3.30,3.31
334.18,6.22,2.91,6.22,2.91,-2.91,-2.88,-2.55,3.32,3.32,3.32
337.52,6.16,2.85,6.17,2.84,-2.84,-2.81,-2.46,3.33,3.33,3.32
340.90,6.10,2.77,6.10,2.76,-2.76,-2.74,-2.36,3.34,3.33,3.34
344.30,6.02,2.68,6.03,2.69,-2.69,-2.67,-2.27,3.33,3.34,3.35
347.75,5.95,2.61,5.96,2.61,-2.62,-2.60,-2.17,3.34,3.35,3.35
351.23,5.89,2.55,5.89,2.54,-2.54,-2.53,-2.08,3.36,3.35,3.35
354.74,5.83,2.46,5.83,2.47,-2.46,-2.46,-1.99,3.37,3.37,3.38
358.28,5.75,2.39,5.76,2.39,-2.38,-2.39,-1.90,3.37,3.38,3.37
361.87,5.68,2.31,5.68,2.30,-2.30,-2.32,-1.81,3.38,3.38,3.38
365.49,5.59,2.21,5.61,2.22,-2.22,-2.25,-1.73,3.37,3.38,3.39
369.14,5.53,2.13,5.54,2.14,-2.15,-2.18,-1.65,3.39,3.39,3.41
372.83,5.48,2.08,5.47,2.07,-2.07,-2.11,-1.56,3.41,3.40,3.41
376.56,5.40,2.00,5.41,2.00,-2.00,-2.03,-1.48,3.41,3.41,3.41
380.33,5.33,1.92,5.34,1.92,-1.92,-1.96,-1.40,3.41,3.42,3.42
384.13,5.27,1.84,5.27,1.85,-1.85,-1.89,-1.32,3.43,3.43,3.44
387.97,5.21,1.78,5.21,1.78,-1.77,-1.81,-1.25,3.44,3.44,3.44
391.85,5.15,1.71,5.15,1.71,-1.70,-1.74,-1.17,3.45,3.45,3.45
395.77,5.08,1.63,5.08,1.63,-1.63,-1.67,-1.10,3.46,3.46,3.46
399.73,5.01,1.55,5.02,1.55,-1.55,-1.59,-1.02,3.47,3.47,3.47
403.72,4.94,1.45,4.95,1.47,-1.47,-1.52,-0.95,3.48,3.48,3.50
407.76,4.88,1.40,4.88,1.39,-1.39,-1.44,-0.88,3.50,3.49,3.49
411.84,4.81,1.32,4.81,1.31,-1.31,-1.37,-0.81,3.51,3.51,3.50
415.96,4.74,1.23,4.74,1.23,-1.23,-1.30,-0.75,3.52,3.51,3.52
420.12,4.66,1.15,4.66,1.15,-1.15,-1.22,-0.68,3.51,3.51,3.52
424.32,4.58,1.06,4.60,1.06,-1.07,-1.15,-0.61,3.51,3.52,3.53
428.56,4.53,0.99,4.53,0.99,-1.00,-1.07,-0.55,3.54,3.53,3.55
432.85,4.47,0.92,4.47,0.92,-0.92,-0.99,-0.49,3.55,3.55,3.56
437.18,4.39,0.85,4.40,0.85,-0.84,-0.92,-0.42,3.55,3.56,3.55
441.55,4.32,0.77,4.33,0.77,-0.77,-0.84,-0.36,3.56,3.56,3.56
445.96,4.26,0.70,4.26,0.70,-0.69,-0.77,-0.30,3.57,3.57,3.57
450.42,4.19,0.62,4.20,0.62,-0.62,-0.69,-0.24,3.58,3.58,3.58
454.93,4.13,0.55,4.13,0.54,-0.54,-0.61,-0.19,3.59,3.59,3.59
459.48,4.06,0.47,4.07,0.47,-0.47,-0.54,-0.13,3.59,3.60,3.60
464.07,3.99,0.38,4.00,0.39,-0.40,-0.46,-0.07,3.60,3.61,3.62
468.71,3.94,0.32,3.94,0.32,-0.32,-0.38,-0.02,3.62,3.62,3.63
473.40,3.87,0.25,3.88,0.25,-0.25,-0.31,0.03,3.63,3.63,3.63
478.13,3.81,0.18,3.82,0.18,-0.18,-0.23,0.09,3.64,3.64,3.64
482.91,3.75,0.11,3.75,0.11,-0.10,-0.15,0.14,3.65,3.65,3.65
