frequency,raw,error,smoothed,error_smoothed,equalization,parametric_eq,fixed_band_eq,equalized_raw,equalized_smoothed,target
20.00,-10.25,-11.26,-10.25,-11.26,11.26,11.02,4.30,1.01,1.01,1.01
20.20,-10.24,-11.29,-10.23,-11.29,11.29,11.14,4.41,1.05,1.05,1.05
20.40,-10.22,-11.31,-10.21,-11.30,11.30,11.25,4.53,1.09,1.09,1.09
20.61,-10.19,-11.31,-10.19,-11.31,11.31,11.35,4.65,1.13,1.12,1.12
20.81,-10.16,-11.32,-10.16,-11.32,11.31,11.43,4.77,1.16,1.16,1.16
21.02,-10.12,-11.32,-10.12,-11.31,11.31,11.50,4.89,1.19,1.19,1.20
21.23,-10.08,-11.30,-10.08,-11.30,11.30,11.55,5.02,1.22,1.22,1.22
21.44,-10.04,-11.28,-10.03,-11.28,11.28,11.59,5.16,1.24,1.24,1.24
21.66,-9.99,-11.25,-9.99,-11.25,11.25,11.61,5.29,1.26,1.26,1.26
21.87,-9.94,-11.21,-9.93,-11.21,11.21,11.61,5.43,1.27,1.28,1.27
22.09,-9.88,-11.17,-9.88,-11.17,11.17,11.60,5.58,1.29,1.29,1.29
22.31,-9.82,-11.12,-9.82,-11.12,11.12,11.57,5.73,1.30,1.30,1.30
22.54,-9.76,-11.07,-9.75,-11.06,11.06,11.53,5.88,1.30,1.31,1.31
22.76,-9.68,-11.00,-9.68,-11.00,11.00,11.47,6.03,1.32,1.32,1.32
22.99,-9.60,-10.92,-9.60,-10.93,10.93,11.40,6.19,1.33,1.33,1.32
23.22,-9.53,-10.86,-9.52,-10.85,10.86,11.32,6.36,1.33,1.34,1.33
23.45,-9.45,-10.79,-9.44,-10.78,10.78,11.22,6.52,1.34,1.34,1.34
23.69,-9.35,-10.70,-9.35,-10.70,10.70,11.12,6.70,1.35,1.34,1.35
23.92,-9.26,-10.62,-9.25,-10.62,10.61,11.01,6.87,1.35,1.36,1.36
24.16,-9.15,-10.53,-9.14,-10.52,10.52,10.88,7.05,1.37,1.37,1.38
24.40,-9.04,-10.44,-9.03,-10.42,10.42,10.76,7.23,1.39,1.39,1.40
24.65,-8.92,-10.31,-8.92,-10.32,10.33,10.62,7.42,1.41,1.40,1.39
24.89,-8.82,-10.22,-8.82,-10.22,10.23,10.48,7.61,1.41,1.41,1.40
25.14,-8.72,-10.13,-8.71,-10.12,10.13,10.34,7.80,1.41,1.42,1.41
25.39,-8.61,-10.03,-8.61,-10.03,10.03,10.20,8.00,1.42,1.42,1.42
25.65,-8.51,-9.95,-8.50,-9.94,9.93,10.05,8.19,1.43,1.43,1.44
25.91,-8.40,-9.84,-8.40,-9.84,9.84,9.91,8.39,1.44,1.44,1.44
26.16,-8.29,-9.74,-8.29,-9.75,9.75,9.76,8.59,1.46,1.45,1.45
26.43,-8.20,-9.66,-8.19,-9.65,9.66,9.62,8.79,1.46,1.47,1.46
26.69,-8.10,-9.57,-8.09,-9.57,9.57,9.48,8.99,1.47,1.48,1.47
26.96,-8.00,-9.49,-8.00,-9.49,9.48,9.33,9.19,1.48,1.48,1.49
27.23,-7.90,-9.40,-7.90,-9.40,9.40,9.19,9.39,1.50,1.50,1.50
27.50,-7.81,-9.31,-7.81,-9.31,9.31,9.06,9.58,1.50,1.50,1.50
27.77,-7.72,-9.22,-7.72,-9.22,9.23,8.92,9.77,1.51,1.51,1.50
28.05,-7.63,-9.15,-7.63,-9.14,9.14,8.79,9.95,1.51,1.51,1.52
28.33,-7.54,-9.06,-7.53,-9.06,9.06,8.66,10.13,1.52,1.52,1.52
28.62,-7.44,-8.97,-7.44,-8.97,8.97,8.54,10.30,1.53,1.53,1.53
28.90,-7.35,-8.89,-7.34,-8.88,8.88,8.42,10.45,1.54,1.54,1.54
29.19,-7.25,-8.79,-7.25,-8.79,8.79,8.30,10.59,1.55,1.55,1.54
29.48,-7.15,-8.72,-7.15,-8.71,8.71,8.19,10.72,1.56,1.56,1.57
29.78,-7.05,-8.61,-7.05,-8.61,8.62,8.08,10.83,1.57,1.57,1.56
30.08,-6.96,-8.53,-6.95,-8.52,8.52,7.98,10.92,1.56,1.57,1.57
30.38,-6.85,-8.42,-6.85,-8.43,8.43,7.88,10.99,1.58,1.58,1.57
30.68,-6.75,-8.34,-6.75,-8.33,8.33,7.79,11.05,1.58,1.58,1.59
30.99,-6.65,-8.24,-6.64,-8.23,8.23,7.70,11.08,1.58,1.59,1.59
31.30,-6.54,-8.13,-6.54,-8.14,8.13,7.61,11.09,1.59,1.59,1.59
31.61,-6.43,-8.03,-6.43,-8.03,8.02,7.53,11.07,1.60,1.60,1.60
31.93,-6.32,-7.93,-6.31,-7.92,7.92,7.45,11.04,1.60,1.61,1.61
32.24,-6.20,-7.81,-6.20,-7.82,7.82,7.38,10.98,1.62,1.62,1.61
32.57,-6.09,-7.72,-6.09,-7.71,7.72,7.31,10.91,1.63,1.63,1.63
32.89,-5.99,-7.62,-5.98,-7.62,7.62,7.25,10.81,1.63,1.64,1.63
33.22,-5.89,-7.53,-5.88,-7.53,7.53,7.19,10.70,1.64,1.64,1.64
33.55,-5.79,-7.44,-5.79,-7.44,7.44,7.13,10.57,1.65,1.65,1.65
33.89,-5.70,-7.36,-5.70,-7.35,7.36,7.08,10.43,1.66,1.66,1.66
34.23,-5.62,-7.28,-5.61,-7.27,7.28,7.03,10.28,1.66,1.67,1.66
34.57,-5.53,-7.20,-5.54,-7.20,7.21,6.98,10.11,1.68,1.67,1.67
34.92,-5.47,-7.14,-5.47,-7.14,7.14,6.94,9.94,1.67,1.67,1.67
35.27,-5.41,-7.09,-5.40,-7.08,7.08,6.90,9.76,1.67,1.67,1.68
35.62,-5.34,-7.02,-5.34,-7.02,7.01,6.86,9.57,1.68,1.67,1.68
35.97,-5.28,-6.96,-5.28,-6.96,6.96,6.83,9.39,1.68,1.68,1.68
36.33,-5.22,-6.91,-5.22,-6.90,6.90,6.79,9.19,1.69,1.69,1.69
36.70,-5.16,-6.84,-5.16,-6.85,6.85,6.76,9.00,1.69,1.69,1.68
37.06,-5.11,-6.80,-5.11,-6.79,6.80,6.73,8.80,1.69,1.69,1.69
37.43,-5.06,-6.75,-5.06,-6.75,6.75,6.70,8.61,1.69,1.69,1.69
37.81,-5.01,-6.70,-5.01,-6.70,6.69,6.67,8.42,1.69,1.68,1.69
38.19,-4.97,-6.66,-4.96,-6.65,6.64,6.63,8.22,1.68,1.68,1.69
38.57,-4.92,-6.60,-4.91,-6.60,6.59,6.60,8.03,1.68,1.68,1.68
38.95,-4.86,-6.54,-4.86,-6.54,6.54,6.57,7.84,1.69,1.68,1.68
39.34,-4.82,-6.49,-4.81,-6.49,6.49,6.53,7.66,1.68,1.68,1.67
39.74,-4.77,-6.44,-4.76,-6.44,6.44,6.50,7.48,1.67,1.68,1.67
40.14,-4.72,-6.39,-4.72,-6.39,6.39,6.46,7.30,1.67,1.67,1.67
40.54,-4.67,-6.34,-4.67,-6.34,6.34,6.41,7.13,1.67,1.67,1.67
40.94,-4.63,-6.29,-4.62,-6.29,6.29,6.37,6.96,1.66,1.66,1.66
41.35,-4.58,-6.24,-4.57,-6.23,6.23,6.32,6.79,1.66,1.66,1.66
41.76,-4.52,-6.18,-4.52,-6.18,6.18,6.27,6.63,1.66,1.66,1.66
42.18,-4.46,-6.12,-4.46,-6.12,6.12,6.21,6.47,1.67,1.67,1.66
42.60,-4.40,-6.06,-4.40,-6.06,6.06,6.15,6.31,1.66,1.66,1.66
43.03,-4.35,-6.01,-4.35,-6.01,5.99,6.08,6.16,1.65,1.65,1.66
43.46,-4.29,-5.95,-4.28,-5.94,5.93,6.01,6.02,1.64,1.64,1.66
43.90,-4.22,-5.86,-4.21,-5.86,5.85,5.93,5.87,1.63,1.64,1.64
44.33,-4.13,-5.77,-4.14,-5.77,5.78,5.85,5.74,1.65,1.64,1.64
44.78,-4.06,-5.69,-4.06,-5.69,5.70,5.77,5.60,1.64,1.64,1.63
45.23,-3.99,-5.62,-3.98,-5.61,5.62,5.68,5.47,1.63,1.64,1.63
45.68,-3.91,-5.54,-3.91,-5.53,5.54,5.59,5.35,1.63,1.63,1.63
46.13,-3.83,-5.45,-3.83,-5.46,5.46,5.49,5.22,1.63,1.63,1.62
46.60,-3.76,-5.39,-3.76,-5.38,5.38,5.39,5.10,1.62,1.62,1.63
47.06,-3.69,-5.31,-3.68,-5.30,5.30,5.29,4.99,1.62,1.62,1.62
47.53,-3.61,-5.22,-3.61,-5.23,5.22,5.19,4.88,1.61,1.61,1.61
48.01,-3.53,-5.15,-3.53,-5.14,5.14,5.09,4.77,1.61,1.61,1.62
48.49,-3.46,-5.06,-3.46,-5.06,5.05,4.98,4.67,1.60,1.59,1.60
48.97,-3.39,-4.97,-3.38,-4.97,4.96,4.87,4.56,1.58,1.58,1.58
49.46,-3.31,-4.88,-3.30,-4.87,4.87,4.76,4.47,1.57,1.57,1.57
49.96,-3.22,-4.77,-3.22,-4.78,4.78,4.65,4.37,1.56,1.56,1.55
50.46,-3.14,-4.69,-3.14,-4.69,4.69,4.55,4.28,1.55,1.54,1.55
50.96,-3.07,-4.60,-3.07,-4.59,4.59,4.44,4.19,1.53,1.53,1.53
51.47,-3.00,-4.50,-2.99,-4.50,4.50,4.33,4.10,1.50,1.51,1.50
51.99,-2.91,-4.40,-2.91,-4.40,4.41,4.22,4.02,1.50,1.49,1.49
52.51,-2.83,-4.31,-2.83,-4.31,4.31,4.12,3.93,1.48,1.48,1.48
53.03,-2.76,-4.22,-2.76,-4.22,4.22,4.01,3.85,1.46,1.46,1.46
53.56,-2.69,-4.14,-2.68,-4.13,4.12,3.91,3.78,1.44,1.44,1.45
54.10,-2.61,-4.03,-2.61,-4.03,4.03,3.81,3.70,1.42,1.42,1.42
54.64,-2.53,-3.94,-2.53,-3.93,3.93,3.71,3.63,1.40,1.40,1.41
55.18,-2.46,-3.84,-2.46,-3.84,3.84,3.61,3.56,1.38,1.38,1.38
55.74,-2.39,-3.74,-2.38,-3.74,3.74,3.51,3.49,1.36,1.36,1.35
56.29,-2.31,-3.66,-2.31,-3.65,3.65,3.42,3.42,1.35,1.35,1.35
56.86,-2.24,-3.56,-2.24,-3.56,3.57,3.32,3.35,1.33,1.33,1.32
57.42,-2.18,-3.47,-2.18,-3.48,3.48,3.23,3.29,1.31,1.30,1.29
58.00,-2.13,-3.40,-2.13,-3.40,3.40,3.14,3.22,1.28,1.28,1.27
58.58,-2.08,-3.33,-2.07,-3.32,3.32,3.06,3.16,1.24,1.25,1.25
59.16,-2.02,-3.25,-2.02,-3.25,3.24,2.97,3.10,1.22,1.22,1.23
59.76,-1.96,-3.17,-1.96,-3.17,3.16,2.89,3.04,1.20,1.19,1.21
60.35,-1.91,-3.09,-1.90,-3.08,3.07,2.81,2.98,1.16,1.17,1.18
60.96,-1.85,-3.00,-1.85,-2.99,2.99,2.73,2.92,1.14,1.14,1.15
61.57,-1.79,-2.89,-1.79,-2.90,2.90,2.66,2.86,1.11,1.11,1.10
62.18,-1.74,-2.80,-1.74,-2.80,2.81,2.59,2.80,1.08,1.08,1.06
62.80,-1.69,-2.73,-1.69,-2.72,2.73,2.51,2.74,1.04,1.04,1.04
63.43,-1.66,-2.65,-1.65,-2.65,2.65,2.44,2.68,0.99,0.99,0.99
64.07,-1.62,-2.57,-1.61,-2.57,2.57,2.38,2.63,0.95,0.96,0.95
64.71,-1.58,-2.50,-1.58,-2.50,2.50,2.31,2.57,0.92,0.92,0.92
65.35,-1.55,-2.43,-1.55,-2.43,2.43,2.25,2.52,0.89,0.88,0.88
66.01,-1.53,-2.37,-1.52,-2.37,2.37,2.18,2.46,0.84,0.84,0.84
66.67,-1.51,-2.32,-1.51,-2.31,2.31,2.12,2.41,0.80,0.80,0.81
67.33,-1.49,-2.26,-1.49,-2.26,2.25,2.06,2.35,0.77,0.76,0.77
68.01,-1.48,-2.21,-1.47,-2.20,2.20,2.01,2.30,0.72,0.73,0.73
68.69,-1.46,-2.15,-1.46,-2.15,2.15,1.95,2.24,0.70,0.69,0.69
69.37,-1.45,-2.10,-1.45,-2.10,2.11,1.90,2.19,0.66,0.66,0.65
70.07,-1.45,-2.06,-1.45,-2.06,2.07,1.84,2.14,0.62,0.62,0.61
70.77,-1.46,-2.03,-1.46,-2.03,2.03,1.79,2.09,0.57,0.57,0.57
71.48,-1.47,-2.01,-1.46,-2.00,1.99,1.74,2.03,0.53,0.53,0.54
72.19,-1.47,-1.96,-1.47,-1.96,1.96,1.69,1.98,0.49,0.49,0.49
72.91,-1.47,-1.93,-1.47,-1.93,1.93,1.64,1.93,0.46,0.46,0.46
73.64,-1.48,-1.90,-1.48,-1.90,1.90,1.60,1.88,0.43,0.43,0.42
74.38,-1.49,-1.88,-1.48,-1.87,1.87,1.55,1.84,0.39,0.39,0.39
75.12,-1.49,-1.84,-1.49,-1.84,1.84,1.51,1.79,0.36,0.35,0.35
75.87,-1.50,-1.82,-1.50,-1.82,1.81,1.47,1.74,0.32,0.32,0.32
76.63,-1.50,-1.79,-1.49,-1.78,1.78,1.42,1.69,0.28,0.28,0.29
77.40,-1.49,-1.75,-1.49,-1.74,1.74,1.38,1.65,0.25,0.25,0.26
78.17,-1.47,-1.70,-1.47,-1.70,1.70,1.34,1.60,0.23,0.23,0.23
78.95,-1.45,-1.65,-1.45,-1.65,1.65,1.31,1.56,0.20,0.20,0.20
79.74,-1.43,-1.61,-1.42,-1.60,1.59,1.27,1.51,0.17,0.17,0.18
80.54,-1.39,-1.55,-1.39,-1.55,1.54,1.23,1.47,0.15,0.15,0.16
81.35,-1.36,-1.49,-1.35,-1.49,1.48,1.19,1.43,0.12,0.13,0.13
82.16,-1.32,-1.42,-1.32,-1.42,1.43,1.16,1.39,0.11,0.11,0.10
82.98,-1.28,-1.37,-1.28,-1.36,1.37,1.12,1.35,0.10,0.09,0.09
83.81,-1.26,-1.32,-1.26,-1.31,1.32,1.09,1.31,0.07,0.07,0.06
84.65,-1.24,-1.27,-1.24,-1.27,1.28,1.06,1.27,0.04,0.05,0.03
85.50,-1.23,-1.25,-1.23,-1.24,1.25,1.03,1.23,0.02,0.02,0.02
86.35,-1.22,-1.22,-1.22,-1.22,1.22,0.99,1.19,0.00,-0.00,0.00
87.22,-1.23,-1.21,-1.22,-1.20,1.20,0.96,1.15,-0.02,-0.02,-0.02
88.09,-1.23,-1.19,-1.23,-1.19,1.19,0.93,1.12,-0.03,-0.04,-0.04
88.97,-1.25,-1.19,-1.25,-1.19,1.19,0.90,1.08,-0.05,-0.05,-0.06
89.86,-1.27,-1.20,-1.27,-1.19,1.20,0.87,1.05,-0.07,-0.07,-0.07
90.76,-1.30,-1.20,-1.30,-1.20,1.21,0.85,1.01,-0.09,-0.09,-0.10
91.66,-1.34,-1.22,-1.34,-1.22,1.22,0.82,0.98,-0.11,-0.11,-0.12
92.58,-1.38,-1.24,-1.37,-1.24,1.24,0.79,0.95,-0.14,-0.14,-0.14
93.51,-1.41,-1.26,-1.41,-1.26,1.25,0.76,0.91,-0.16,-0.16,-0.15
94.44,-1.44,-1.27,-1.44,-1.27,1.26,0.74,0.88,-0.18,-0.18,-0.17
95.39,-1.46,-1.27,-1.46,-1.27,1.26,0.71,0.85,-0.20,-0.20,-0.19
96.34,-1.48,-1.26,-1.48,-1.26,1.25,0.68,0.82,-0.23,-0.22,-0.22
97.30,-1.49,-1.24,-1.49,-1.24,1.24,0.66,0.79,-0.25,-0.25,-0.25
98.28,-1.50,-1.22,-1.50,-1.22,1.22,0.63,0.76,-0.28,-0.28,-0.28
99.26,-1.50,-1.20,-1.49,-1.19,1.19,0.61,0.73,-0.31,-0.31,-0.30
100.25,-1.49,-1.16,-1.49,-1.16,1.16,0.58,0.70,-0.33,-0.33,-0.33
101.25,-1.48,-1.12,-1.48,-1.12,1.12,0.56,0.67,-0.36,-0.36,-0.36
102.27,-1.47,-1.07,-1.47,-1.07,1.08,0.53,0.64,-0.38,-0.39,-0.40
103.29,-1.47,-1.04,-1.47,-1.04,1.05,0.51,0.62,-0.42,-0.42,-0.43
104.32,-1.47,-1.01,-1.47,-1.00,1.01,0.49,0.59,-0.46,-0.46,-0.46
105.37,-1.47,-0.97,-1.47,-0.97,0.96,0.46,0.56,-0.50,-0.50,-0.50
106.42,-1.47,-0.92,-1.47,-0.92,0.92,0.44,0.53,-0.55,-0.55,-0.55
107.48,-1.47,-0.89,-1.47,-0.88,0.88,0.42,0.51,-0.59,-0.59,-0.58
108.56,-1.47,-0.83,-1.47,-0.83,0.83,0.40,0.48,-0.64,-0.64,-0.64
109.64,-1.47,-0.78,-1.47,-0.78,0.78,0.37,0.45,-0.69,-0.69,-0.69
110.74,-1.47,-0.73,-1.47,-0.73,0.73,0.35,0.43,-0.74,-0.74,-0.74
111.85,-1.47,-0.68,-1.47,-0.67,0.67,0.33,0.40,-0.80,-0.80,-0.79
112.97,-1.47,-0.61,-1.47,-0.62,0.61,0.31,0.38,-0.85,-0.85,-0.86
114.10,-1.47,-0.56,-1.47,-0.56,0.55,0.28,0.35,-0.91,-0.91,-0.91
115.24,-1.47,-0.50,-1.47,-0.49,0.49,0.26,0.33,-0.97,-0.97,-0.97
116.39,-1.47,-0.43,-1.47,-0.43,0.43,0.24,0.30,-1.03,-1.03,-1.04
117.55,-1.47,-0.37,-1.47,-0.37,0.37,0.22,0.28,-1.09,-1.09,-1.10
118.73,-1.47,-0.31,-1.47,-0.31,0.32,0.19,0.25,-1.15,-1.15,-1.16
119.92,-1.47,-0.26,-1.47,-0.25,0.26,0.17,0.23,-1.21,-1.21,-1.21
121.12,-1.47,-0.20,-1.47,-0.20,0.20,0.15,0.20,-1.27,-1.27,-1.27
122.33,-1.47,-0.15,-1.47,-0.15,0.14,0.13,0.18,-1.33,-1.33,-1.32
123.55,-1.47,-0.10,-1.46,-0.09,0.08,0.10,0.16,-1.38,-1.38,-1.37
124.79,-1.46,-0.04,-1.46,-0.04,0.03,0.08,0.13,-1.43,-1.43,-1.42
126.03,-1.45,0.02,-1.45,0.02,-0.02,0.06,0.11,-1.47,-1.47,-1.47
127.29,-1.45,0.07,-1.45,0.08,-0.07,0.04,0.08,-1.52,-1.52,-1.52
128.57,-1.45,0.13,-1.45,0.13,-0.12,0.01,0.06,-1.56,-1.56,-1.58
129.85,-1.46,0.16,-1.46,0.16,-0.15,-0.01,0.03,-1.61,-1.61,-1.62
131.15,-1.48,0.19,-1.47,0.19,-0.19,-0.03,0.01,-1.66,-1.66,-1.67
132.46,-1.50,0.21,-1.50,0.21,-0.21,-0.06,-0.02,-1.71,-1.71,-1.71
133.79,-1.52,0.23,-1.52,0.23,-0.23,-0.08,-0.04,-1.75,-1.75,-1.75
135.12,-1.55,0.24,-1.55,0.24,-0.25,-0.11,-0.07,-1.79,-1.79,-1.79
136.48,-1.58,0.25,-1.58,0.25,-0.26,-0.13,-0.09,-1.84,-1.83,-1.83
137.84,-1.61,0.26,-1.61,0.27,-0.27,-0.16,-0.12,-1.87,-1.87,-1.87
139.22,-1.64,0.28,-1.64,0.28,-0.27,-0.19,-0.14,-1.91,-1.91,-1.92
140.61,-1.67,0.29,-1.67,0.29,-0.28,-0.21,-0.17,-1.95,-1.95,-1.96
142.02,-1.70,0.28,-1.70,0.29,-0.29,-0.24,-0.19,-1.98,-1.98,-1.98
143.44,-1.73,0.29,-1.73,0.29,-0.29,-0.27,-0.22,-2.02,-2.02,-2.02
144.87,-1.76,0.30,-1.75,0.30,-0.31,-0.30,-0.25,-2.06,-2.06,-2.06
146.32,-1.78,0.32,-1.78,0.32,-0.32,-0.32,-0.28,-2.10,-2.10,-2.10
147.78,-1.80,0.33,-1.80,0.33,-0.34,-0.35,-0.30,-2.14,-2.14,-2.13
149.26,-1.81,0.35,-1.81,0.36,-0.37,-0.38,-0.33,-2.18,-2.18,-2.16
150.75,-1.82,0.40,-1.82,0.39,-0.40,-0.42,-0.36,-2.22,-2.22,-2.22
152.26,-1.82,0.44,-1.82,0.44,-0.44,-0.45,-0.39,-2.26,-2.26,-2.26
153.78,-1.82,0.47,-1.81,0.49,-0.48,-0.48,-0.42,-2.30,-2.30,-2.29
155.32,-1.81,0.54,-1.81,0.53,-0.53,-0.51,-0.45,-2.34,-2.34,-2.35
156.88,-1.80,0.58,-1.80,0.58,-0.58,-0.55,-0.48,-2.38,-2.38,-2.38
158.44,-1.80,0.63,-1.80,0.64,-0.63,-0.58,-0.51,-2.43,-2.43,-2.43
160.03,-1.80,0.68,-1.80,0.68,-0.68,-0.62,-0.54,-2.47,-2.47,-2.48
161.63,-1.80,0.73,-1.80,0.73,-0.73,-0.66,-0.57,-2.52,-2.52,-2.53
163.24,-1.80,0.77,-1.80,0.77,-0.77,-0.70,-0.61,-2.57,-2.57,-2.57
164.88,-1.80,0.81,-1.80,0.82,-0.82,-0.74,-0.64,-2.62,-2.62,-2.61
166.53,-1.80,0.86,-1.80,0.86,-0.86,-0.78,-0.67,-2.66,-2.66,-2.66
168.19,-1.80,0.91,-1.80,0.91,-0.91,-0.82,-0.71,-2.71,-2.71,-2.71
169.87,-1.80,0.96,-1.80,0.96,-0.96,-0.86,-0.74,-2.76,-2.76,-2.76
171.57,-1.80,1.00,-1.80,1.01,-1.01,-0.91,-0.78,-2.81,-2.81,-2.80
173.29,-1.80,1.06,-1.80,1.06,-1.06,-0.95,-0.82,-2.86,-2.86,-2.86
175.02,-1.80,1.11,-1.80,1.11,-1.11,-1.00,-0.85,-2.91,-2.91,-2.91
176.77,-1.80,1.17,-1.80,1.17,-1.17,-1.05,-0.89,-2.97,-2.97,-2.97
178.54,-1.80,1.22,-1.80,1.22,-1.22,-1.10,-0.93,-3.02,-3.02,-3.02
180.32,-1.80,1.28,-1.80,1.28,-1.28,-1.15,-0.97,-3.08,-3.08,-3.08
182.13,-1.80,1.33,-1.80,1.33,-1.34,-1.20,-1.01,-3.13,-3.13,-3.13
183.95,-1.80,1.39,-1.80,1.39,-1.39,-1.26,-1.05,-3.19,-3.19,-3.19
185.79,-1.80,1.44,-1.80,1.45,-1.45,-1.31,-1.10,-3.24,-3.24,-3.24
187.65,-1.80,1.51,-1.80,1.51,-1.50,-1.37,-1.14,-3.30,-3.30,-3.31
189.52,-1.80,1.56,-1.80,1.56,-1.56,-1.42,-1.18,-3.35,-3.35,-3.36
191.42,-1.80,1.61,-1.80,1.61,-1.61,-1.48,-1.23,-3.41,-3.41,-3.41
193.33,-1.80,1.66,-1.80,1.66,-1.67,-1.53,-1.27,-3.47,-3.47,-3.46
195.27,-1.80,1.71,-1.80,1.72,-1.72,-1.59,-1.32,-3.52,-3.52,-3.51
197.22,-1.80,1.77,-1.79,1.77,-1.78,-1.65,-1.36,-3.57,-3.57,-3.57
199.19,-1.79,1.83,-1.79,1.83,-1.83,-1.70,-1.41,-3.62,-3.62,-3.62
201.18,-1.78,1.89,-1.78,1.89,-1.88,-1.76,-1.46,-3.66,-3.66,-3.67
203.19,-1.78,1.92,-1.78,1.93,-1.93,-1.81,-1.50,-3.71,-3.71,-3.70
205.23,-1.78,1.98,-1.77,1.97,-1.97,-1.87,-1.55,-3.75,-3.75,-3.76
207.28,-1.78,2.00,-1.78,2.01,-2.01,-1.92,-1.60,-3.79,-3.79,-3.78
209.35,-1.79,2.05,-1.79,2.05,-2.05,-1.97,-1.64,-3.83,-3.83,-3.84
211.44,-1.81,2.08,-1.81,2.08,-2.07,-2.01,-1.69,-3.88,-3.88,-3.89
213.56,-1.83,2.10,-1.83,2.10,-2.09,-2.06,-1.73,-3.92,-3.92,-3.93
215.69,-1.86,2.09,-1.85,2.11,-2.10,-2.10,-1.78,-3.96,-3.96,-3.95
217.85,-1.88,2.11,-1.88,2.11,-2.11,-2.13,-1.82,-3.99,-3.99,-3.99
220.03,-1.91,2.12,-1.91,2.11,-2.12,-2.17,-1.87,-4.02,-4.03,-4.03
222.23,-1.95,2.11,-1.94,2.11,-2.11,-2.19,-1.91,-4.06,-4.06,-4.06
224.45,-1.98,2.10,-1.98,2.11,-2.11,-2.22,-1.95,-4.09,-4.09,-4.08
226.70,-2.01,2.10,-2.01,2.10,-2.10,-2.24,-1.99,-4.11,-4.11,-4.11
228.96,-2.04,2.10,-2.04,2.10,-2.10,-2.25,-2.03,-4.13,-4.13,-4.14
231.25,-2.07,2.08,-2.06,2.09,-2.09,-2.26,-2.06,-4.15,-4.15,-4.15
233.57,-2.09,2.08,-2.09,2.08,-2.08,-2.26,-2.09,-4.17,-4.17,-4.17
235.90,-2.11,2.07,-2.11,2.07,-2.07,-2.26,-2.13,-4.18,-4.18,-4.18
238.26,-2.13,2.06,-2.12,2.07,-2.07,-2.26,-2.15,-4.20,-4.19,-4.19
240.64,-2.14,2.06,-2.14,2.06,-2.07,-2.25,-2.18,-4.20,-4.21,-4.20
243.05,-2.15,2.05,-2.15,2.06,-2.07,-2.23,-2.20,-4.21,-4.21,-4.20
245.48,-2.15,2.06,-2.14,2.06,-2.07,-2.22,-2.22,-4.21,-4.21,-4.21
247.93,-2.14,2.07,-2.14,2.07,-2.07,-2.20,-2.24,-4.21,-4.21,-4.21
250.41,-2.13,2.08,-2.13,2.08,-2.07,-2.18,-2.26,-4.20,-4.20,-4.21
252.92,-2.12,2.08,-2.12,2.08,-2.07,-2.15,-2.27,-4.19,-4.19,-4.20
255.45,-2.12,2.07,-2.12,2.07,-2.07,-2.13,-2.28,-4.19,-4.19,-4.19
258.00,-2.12,2.06,-2.12,2.07,-2.07,-2.10,-2.28,-4.18,-4.18,-4.18
260.58,-2.12,2.06,-2.12,2.06,-2.06,-2.07,-2.29,-4.18,-4.18,-4.18
263.19,-2.12,2.05,-2.12,2.05,-2.05,-2.05,-2.29,-4.17,-4.17,-4.17
265.82,-2.12,2.04,-2.12,2.04,-2.04,-2.02,-2.29,-4.15,-4.15,-4.16
268.48,-2.12,2.02,-2.12,2.03,-2.02,-1.99,-2.29,-4.14,-4.14,-4.14
271.16,-2.12,2.00,-2.12,2.01,-2.01,-1.96,-2.28,-4.13,-4.13,-4.12
273.87,-2.12,2.00,-2.12,1.99,-2.00,-1.94,-2.27,-4.11,-4.11,-4.12
276.61,-2.12,1.97,-2.12,1.98,-1.98,-1.91,-2.27,-4.10,-4.10,-4.09
279.38,-2.12,1.97,-2.12,1.97,-1.97,-1.89,-2.26,-4.09,-4.09,-4.09
282.17,-2.12,1.95,-2.12,1.95,-1.96,-1.86,-2.24,-4.07,-4.07,-4.07
284.99,-2.12,1.94,-2.12,1.95,-1.94,-1.84,-2.23,-4.06,-4.06,-4.06
287.84,-2.12,1.93,-2.12,1.93,-1.93,-1.82,-2.22,-4.05,-4.05,-4.05
290.72,-2.12,1.92,-2.12,1.92,-1.92,-1.80,-2.20,-4.04,-4.04,-4.04
293.63,-2.12,1.90,-2.12,1.90,-1.91,-1.79,-2.19,-4.02,-4.02,-4.02
296.57,-2.12,1.88,-2.12,1.89,-1.89,-1.77,-2.18,-4.01,-4.01,-4.00
299.53,-2.12,1.88,-2.12,1.88,-1.88,-1.76,-2.16,-3.99,-3.99,-4.00
302.53,-2.12,1.87,-2.12,1.87,-1.86,-1.75,-2.15,-3.98,-3.98,-3.99
305.55,-2.13,1.84,-2.12,1.85,-1.84,-1.74,-2.14,-3.97,-3.97,-3.97
308.61,-2.13,1.83,-2.13,1.83,-1.83,-1.73,-2.12,-3.95,-3.95,-3.96
311.69,-2.14,1.81,-2.13,1.81,-1.81,-1.73,-2.11,-3.95,-3.95,-3.95
314.81,-2.14,1.78,-2.14,1.79,-1.80,-1.73,-2.10,-3.94,-3.94,-3.92
317.96,-2.14,1.79,-2.14,1.79,-1.79,-1.73,-2.09,-3.93,-3.93,-3.93
321.14,-2.14,1.78,-2.13,1.78,-1.79,-1.73,-2.08,-3.93,-3.93,-3.92
324.35,-2.13,1.79,-2.13,1.79,-1.80,-1.73,-2.07,-3.92,-3.92,-3.92
327.59,-2.11,1.80,-2.11,1.81,-1.81,-1.74,-2.06,-3.91,-3.91,-3.91
330.87,-2.09,1.82,-2.09,1.82,-1.82,-1.75,-2.06,-3.91,-3.91,-3.91
334.18,-2.06,1.85,-2.06,1.84,-1.84,-1.76,-2.05,-3.90,-3.90,-3.91
337.52,-2.04,1.86,-2.03,1.87,-1.87,-1.77,-2.05,-3.90,-3.90,-3.90
340.90,-2.01,1.89,-2.01,1.89,-1.90,-1.78,-2.05,-3.90,-3.90,-3.90
344.30,-1.98,1.92,-1.98,1.92,-1.93,-1.80,-2.05,-3.90,-3.90,-3.90
347.75,-1.95,1.95,-1.94,1.95,-1.96,-1.82,-2.05,-3.90,-3.90,-3.90
351.23,-1.91,1.99,-1.91,1.99,-1.99,-1.84,-2.06,-3.89,-3.90,-3.90
354.74,-1.89,2.01,-1.88,2.02,-2.02,-1.86,-2.06,-3.90,-3.90,-3.90
358.28,-1.86,2.06,-1.86,2.05,-2.04,-1.88,-2.07,-3.90,-3.90,-3.92
361.87,-1.85,2.07,-1.84,2.07,-2.07,-1.91,-2.08,-3.92,-3.91,-3.92
365.49,-1.83,2.09,-1.83,2.10,-2.09,-1.93,-2.09,-3.92,-3.92,-3.92
369.14,-1.82,2.11,-1.81,2.11,-2.12,-1.96,-2.10,-3.93,-3.93,-3.93
372.83,-1.80,2.13,-1.80,2.13,-2.14,-1.99,-2.11,-3.93,-3.94,-3.93
376.56,-1.79,2.15,-1.78,2.16,-2.16,-2.02,-2.12,-3.94,-3.94,-3.94
380.33,-1.77,2.18,-1.77,2.18,-2.18,-2.06,-2.14,-3.95,-3.95,-3.95
384.13,-1.76,2.20,-1.76,2.21,-2.20,-2.09,-2.16,-3.96,-3.96,-3.96
387.97,-1.74,2.23,-1.74,2.23,-2.23,-2.13,-2.18,-3.97,-3.97,-3.97
391.85,-1.72,2.26,-1.71,2.26,-2.26,-2.17,-2.20,-3.98,-3.98,-3.98
395.77,-1.69,2.28,-1.69,2.29,-2.30,-2.20,-2.22,-3.98,-3.98,-3.97
399.73,-1.66,2.32,-1.66,2.33,-2.33,-2.24,-2.24,-3.99,-3.99,-3.98
403.72,-1.63,2.36,-1.62,2.36,-2.37,-2.29,-2.27,-3.99,-3.99,-3.99
407.76,-1.59,2.41,-1.59,2.40,-2.40,-2.33,-2.29,-3.99,-3.99,-4.00
411.84,-1.56,2.43,-1.56,2.44,-2.44,-2.37,-2.32,-4.00,-4.00,-3.99
415.96,-1.54,2.47,-1.53,2.47,-2.47,-2.41,-2.34,-4.01,-4.00,-4.01
420.12,-1.51,2.50,-1.51,2.50,-2.50,-2.45,-2.37,-4.01,-4.01,-4.01
424.32,-1.49,2.52,-1.49,2.53,-2.52,-2.50,-2.40,-4.01,-4.01,-4.01
428.56,-1.47,2.55,-1.47,2.55,-2.53,-2.54,-2.42,-4.00,-4.00,-4.02
432.85,-1.46,2.56,-1.46,2.56,-2.54,-2.58,-2.45,-4.00,-4.00,-4.02
437.18,-1.47,2.55,-1.46,2.55,-2.55,-2.63,-2.48,-4.01,-4.01,-4.02
441.55,-1.47,2.54,-1.47,2.54,-2.55,-2.67,-2.50,-4.01,-4.02,-4.01
445.96,-1.48,2.53,-1.48,2.53,-2.55,-2.71,-2.53,-4.02,-4.02,-4.01
450.42,-1.49,2.53,-1.48,2.53,-2.55,-2.74,-2.56,-4.03,-4.03,-4.02
454.93,-1.48,2.53,-1.48,2.54,-2.55,-2.78,-2.58,-4.02,-4.02,-4.01
