frequency,raw,error,smoothed,error_smoothed,equalization,parametric_eq,fixed_band_eq,equalized_raw,equalized_smoothed,target
20.00,-4.03,-9.23,-4.03,-9.25,9.25,8.89,3.23,5.22,5.22,5.20
20.20,-3.97,-9.17,-3.97,-9.19,9.19,8.88,3.32,5.22,5.22,5.20
20.40,-3.93,-9.13,-3.92,-9.13,9.13,8.87,3.42,5.20,5.21,5.20
20.61,-3.87,-9.07,-3.87,-9.06,9.06,8.86,3.51,5.19,5.20,5.20
20.81,-3.81,-9.01,-3.81,-9.00,9.00,8.84,3.61,5.19,5.19,5.20
21.02,-3.76,-8.96,-3.76,-8.94,8.94,8.82,3.72,5.18,5.18,5.20
21.23,-3.70,-8.88,-3.71,-8.87,8.87,8.80,3.82,5.17,5.16,5.18
21.44,-3.66,-8.83,-3.66,-8.81,8.81,8.77,3.93,5.15,5.15,5.17
21.66,-3.61,-8.76,-3.61,-8.74,8.74,8.74,4.05,5.13,5.14,5.15
21.87,-3.56,-8.69,-3.56,-8.68,8.68,8.71,4.16,5.12,5.12,5.13
22.09,-3.50,-8.62,-3.51,-8.61,8.61,8.67,4.28,5.11,5.10,5.12
22.31,-3.46,-8.54,-3.46,-8.55,8.55,8.63,4.41,5.09,5.09,5.09
22.54,-3.42,-8.49,-3.41,-8.48,8.48,8.59,4.53,5.06,5.07,5.07
22.76,-3.36,-8.40,-3.36,-8.41,8.41,8.54,4.66,5.05,5.04,5.04
22.99,-3.32,-8.33,-3.32,-8.34,8.34,8.50,4.79,5.02,5.02,5.01
23.22,-3.28,-8.26,-3.27,-8.27,8.27,8.45,4.93,4.99,5.00,4.98
23.45,-3.23,-8.19,-3.23,-8.21,8.21,8.39,5.07,4.98,4.98,4.96
23.69,-3.18,-8.13,-3.18,-8.14,8.14,8.34,5.21,4.96,4.96,4.95
23.92,-3.14,-8.07,-3.14,-8.08,8.08,8.28,5.36,4.94,4.93,4.93
24.16,-3.09,-8.01,-3.10,-8.01,8.01,8.22,5.51,4.92,4.91,4.92
24.40,-3.06,-7.96,-3.05,-7.95,7.95,8.16,5.66,4.89,4.89,4.90
24.65,-3.02,-7.90,-3.01,-7.89,7.89,8.10,5.81,4.87,4.88,4.88
24.89,-2.97,-7.83,-2.97,-7.83,7.83,8.04,5.97,4.86,4.86,4.86
25.14,-2.93,-7.77,-2.93,-7.77,7.77,7.97,6.13,4.84,4.84,4.85
25.39,-2.89,-7.71,-2.88,-7.71,7.71,7.91,6.29,4.82,4.82,4.83
25.65,-2.84,-7.65,-2.84,-7.65,7.65,7.84,6.45,4.81,4.81,4.81
25.91,-2.80,-7.58,-2.80,-7.59,7.59,7.78,6.61,4.79,4.79,4.78
26.16,-2.76,-7.53,-2.76,-7.54,7.54,7.71,6.77,4.78,4.78,4.77
26.43,-2.72,-7.48,-2.72,-7.48,7.48,7.64,6.93,4.76,4.76,4.76
26.69,-2.68,-7.42,-2.68,-7.43,7.43,7.57,7.10,4.75,4.74,4.74
26.96,-2.64,-7.37,-2.64,-7.37,7.37,7.50,7.26,4.73,4.73,4.73
27.23,-2.60,-7.32,-2.60,-7.32,7.32,7.43,7.41,4.72,4.71,4.72
27.50,-2.57,-7.27,-2.56,-7.26,7.26,7.36,7.57,4.69,4.70,4.71
27.77,-2.53,-7.21,-2.53,-7.21,7.21,7.29,7.72,4.68,4.68,4.68
28.05,-2.49,-7.16,-2.49,-7.16,7.16,7.22,7.86,4.67,4.67,4.67
28.33,-2.45,-7.10,-2.45,-7.11,7.11,7.15,8.00,4.66,4.66,4.65
28.62,-2.41,-7.05,-2.41,-7.05,7.05,7.08,8.13,4.64,4.64,4.64
28.90,-2.38,-7.01,-2.37,-7.00,7.00,7.02,8.25,4.63,4.63,4.63
29.19,-2.34,-6.94,-2.34,-6.95,6.95,6.95,8.36,4.61,4.62,4.61
29.48,-2.30,-6.90,-2.30,-6.90,6.90,6.88,8.46,4.60,4.60,4.60
29.78,-2.26,-6.85,-2.26,-6.85,6.85,6.81,8.54,4.59,4.59,4.59
30.08,-2.22,-6.80,-2.23,-6.80,6.80,6.74,8.62,4.58,4.57,4.58
30.38,-2.20,-6.76,-2.19,-6.75,6.75,6.68,8.68,4.55,4.56,4.56
30.68,-2.16,-6.70,-2.16,-6.70,6.70,6.61,8.72,4.54,4.54,4.55
30.99,-2.12,-6.64,-2.12,-6.65,6.65,6.55,8.75,4.53,4.53,4.52
31.30,-2.09,-6.60,-2.09,-6.59,6.59,6.49,8.76,4.51,4.51,4.51
31.61,-2.05,-6.55,-2.05,-6.54,6.54,6.42,8.76,4.49,4.49,4.50
31.93,-2.02,-6.50,-2.02,-6.49,6.49,6.36,8.75,4.47,4.47,4.48
32.24,-1.99,-6.43,-1.98,-6.44,6.44,6.30,8.72,4.45,4.45,4.44
32.57,-1.95,-6.38,-1.95,-6.38,6.38,6.24,8.67,4.43,4.43,4.43
32.89,-1.92,-6.34,-1.92,-6.33,6.33,6.18,8.61,4.41,4.41,4.42
33.22,-1.88,-6.26,-1.89,-6.28,6.28,6.12,8.54,4.40,4.39,4.38
33.55,-1.86,-6.23,-1.86,-6.22,6.22,6.07,8.45,4.37,4.37,4.37
33.89,-1.83,-6.18,-1.83,-6.17,6.17,6.01,8.36,4.34,4.35,4.35
34.23,-1.80,-6.12,-1.80,-6.12,6.12,5.96,8.26,4.32,4.33,4.32
34.57,-1.76,-6.06,-1.77,-6.07,6.07,5.91,8.15,4.31,4.30,4.30
34.92,-1.74,-6.02,-1.74,-6.02,6.02,5.85,8.03,4.28,4.28,4.28
35.27,-1.71,-5.97,-1.71,-5.97,5.97,5.80,7.91,4.26,4.26,4.26
35.62,-1.69,-5.93,-1.69,-5.93,5.93,5.76,7.78,4.24,4.24,4.24
35.97,-1.66,-5.87,-1.66,-5.88,5.88,5.71,7.65,4.22,4.22,4.22
36.33,-1.64,-5.84,-1.64,-5.83,5.83,5.66,7.51,4.20,4.20,4.20
36.70,-1.62,-5.80,-1.62,-5.79,5.79,5.62,7.38,4.17,4.17,4.18
37.06,-1.59,-5.74,-1.59,-5.75,5.75,5.57,7.24,4.16,4.15,4.15
37.43,-1.57,-5.71,-1.57,-5.70,5.70,5.53,7.11,4.13,4.13,4.14
37.81,-1.55,-5.66,-1.55,-5.66,5.66,5.49,6.97,4.11,4.11,4.11
38.19,-1.53,-5.62,-1.53,-5.62,5.62,5.45,6.84,4.09,4.09,4.09
38.57,-1.52,-5.59,-1.51,-5.58,5.58,5.41,6.70,4.06,4.07,4.07
38.95,-1.49,-5.54,-1.49,-5.54,5.54,5.37,6.57,4.05,4.05,4.05
39.34,-1.48,-5.50,-1.48,-5.50,5.50,5.34,6.45,4.02,4.03,4.02
39.74,-1.46,-5.45,-1.46,-5.47,5.47,5.30,6.32,4.01,4.01,3.99
40.14,-1.45,-5.44,-1.45,-5.43,5.43,5.27,6.20,3.98,3.99,3.99
40.54,-1.43,-5.39,-1.43,-5.40,5.40,5.24,6.08,3.97,3.97,3.96
40.94,-1.41,-5.35,-1.41,-5.36,5.36,5.21,5.97,3.95,3.95,3.95
41.35,-1.40,-5.32,-1.40,-5.33,5.33,5.18,5.85,3.93,3.93,3.92
41.76,-1.38,-5.29,-1.39,-5.29,5.29,5.15,5.75,3.91,3.91,3.91
42.18,-1.37,-5.26,-1.37,-5.26,5.26,5.12,5.64,3.89,3.89,3.89
42.60,-1.36,-5.22,-1.36,-5.22,5.22,5.09,5.54,3.86,3.86,3.87
43.03,-1.35,-5.21,-1.34,-5.18,5.18,5.06,5.45,3.84,3.84,3.86
43.46,-1.33,-5.16,-1.33,-5.15,5.15,5.04,5.36,3.82,3.82,3.83
43.90,-1.31,-5.11,-1.31,-5.11,5.11,5.01,5.27,3.80,3.80,3.80
44.33,-1.29,-5.07,-1.29,-5.08,5.08,4.99,5.18,3.79,3.79,3.78
44.78,-1.28,-5.04,-1.28,-5.04,5.04,4.96,5.10,3.76,3.76,3.76
45.23,-1.26,-4.99,-1.26,-5.00,5.00,4.94,5.03,3.74,3.74,3.73
45.68,-1.25,-4.96,-1.24,-4.96,4.96,4.91,4.96,3.71,3.72,3.71
46.13,-1.22,-4.91,-1.22,-4.92,4.92,4.89,4.89,3.70,3.70,3.69
46.60,-1.20,-4.88,-1.20,-4.88,4.88,4.86,4.82,3.68,3.68,3.68
47.06,-1.18,-4.84,-1.18,-4.84,4.84,4.84,4.76,3.66,3.65,3.66
47.53,-1.16,-4.80,-1.16,-4.79,4.79,4.81,4.71,3.63,3.63,3.64
48.01,-1.14,-4.77,-1.14,-4.75,4.75,4.79,4.65,3.61,3.61,3.63
48.49,-1.12,-4.71,-1.12,-4.70,4.70,4.76,4.60,3.58,3.58,3.59
48.97,-1.10,-4.66,-1.10,-4.66,4.66,4.74,4.56,3.56,3.56,3.56
49.46,-1.08,-4.61,-1.08,-4.61,4.61,4.71,4.51,3.53,3.54,3.53
49.96,-1.06,-4.55,-1.05,-4.57,4.57,4.68,4.47,3.51,3.51,3.49
50.46,-1.03,-4.52,-1.03,-4.52,4.52,4.65,4.43,3.49,3.49,3.49
50.96,-1.01,-4.47,-1.01,-4.47,4.47,4.62,4.39,3.46,3.46,3.46
51.47,-0.99,-4.42,-0.99,-4.43,4.43,4.59,4.36,3.44,3.43,3.43
51.99,-0.97,-4.37,-0.97,-4.38,4.38,4.55,4.33,3.41,3.41,3.40
52.51,-0.95,-4.34,-0.95,-4.33,4.33,4.52,4.30,3.38,3.38,3.39
53.03,-0.94,-4.30,-0.93,-4.29,4.29,4.48,4.27,3.35,3.35,3.36
53.56,-0.92,-4.25,-0.92,-4.24,4.24,4.44,4.24,3.32,3.33,3.33
54.10,-0.89,-4.19,-0.90,-4.20,4.20,4.40,4.22,3.31,3.30,3.30
54.64,-0.89,-4.16,-0.88,-4.16,4.16,4.36,4.19,3.27,3.27,3.27
55.18,-0.87,-4.11,-0.87,-4.12,4.12,4.32,4.16,3.25,3.25,3.24
55.74,-0.85,-4.06,-0.85,-4.07,4.07,4.27,4.14,3.22,3.22,3.21
56.29,-0.84,-4.03,-0.84,-4.03,4.03,4.23,4.11,3.19,3.19,3.19
56.86,-0.83,-3.99,-0.83,-3.99,3.99,4.18,4.09,3.16,3.16,3.16
57.42,-0.81,-3.94,-0.82,-3.95,3.95,4.13,4.06,3.14,3.14,3.13
58.00,-0.81,-3.92,-0.81,-3.91,3.91,4.08,4.04,3.10,3.11,3.11
58.58,-0.80,-3.87,-0.80,-3.87,3.87,4.03,4.01,3.07,3.08,3.07
59.16,-0.79,-3.84,-0.79,-3.83,3.83,3.97,3.98,3.04,3.05,3.05
59.76,-0.78,-3.80,-0.78,-3.79,3.79,3.92,3.95,3.02,3.02,3.02
60.35,-0.77,-3.76,-0.77,-3.76,3.76,3.86,3.91,2.99,2.98,2.99
60.96,-0.77,-3.74,-0.76,-3.72,3.72,3.81,3.88,2.95,2.95,2.97
61.57,-0.76,-3.68,-0.76,-3.68,3.68,3.75,3.84,2.92,2.92,2.92
62.18,-0.75,-3.63,-0.75,-3.64,3.64,3.69,3.80,2.89,2.89,2.89
62.80,-0.75,-3.61,-0.75,-3.61,3.61,3.63,3.76,2.86,2.86,2.86
63.43,-0.74,-3.56,-0.74,-3.57,3.57,3.57,3.71,2.83,2.83,2.82
64.07,-0.74,-3.52,-0.74,-3.53,3.53,3.51,3.67,2.79,2.80,2.78
64.71,-0.73,-3.49,-0.73,-3.50,3.50,3.45,3.62,2.77,2.77,2.76
65.35,-0.73,-3.46,-0.73,-3.46,3.46,3.39,3.57,2.73,2.73,2.73
66.01,-0.73,-3.44,-0.72,-3.43,3.43,3.33,3.51,2.70,2.70,2.71
66.67,-0.72,-3.39,-0.72,-3.39,3.39,3.27,3.46,2.67,2.67,2.67
67.33,-0.71,-3.36,-0.72,-3.36,3.36,3.20,3.40,2.65,2.64,2.65
68.01,-0.72,-3.33,-0.71,-3.32,3.32,3.14,3.34,2.61,2.61,2.61
68.69,-0.71,-3.29,-0.71,-3.29,3.29,3.08,3.28,2.58,2.58,2.58
69.37,-0.71,-3.25,-0.71,-3.26,3.26,3.02,3.22,2.55,2.55,2.54
70.07,-0.71,-3.22,-0.71,-3.22,3.22,2.96,3.15,2.51,2.51,2.52
70.77,-0.71,-3.19,-0.71,-3.19,3.19,2.90,3.09,2.48,2.48,2.49
71.48,-0.70,-3.14,-0.71,-3.15,3.15,2.84,3.02,2.45,2.44,2.44
72.19,-0.71,-3.12,-0.71,-3.11,3.11,2.78,2.96,2.40,2.41,2.41
72.91,-0.71,-3.08,-0.71,-3.08,3.08,2.72,2.89,2.37,2.37,2.37
73.64,-0.71,-3.03,-0.71,-3.04,3.04,2.67,2.82,2.33,2.33,2.32
74.38,-0.72,-3.01,-0.71,-3.00,3.00,2.61,2.76,2.28,2.28,2.29
75.12,-0.71,-2.94,-0.72,-2.96,2.96,2.55,2.69,2.25,2.24,2.23
75.87,-0.72,-2.92,-0.72,-2.92,2.92,2.50,2.62,2.20,2.20,2.20
76.63,-0.73,-2.89,-0.73,-2.88,2.88,2.44,2.56,2.15,2.15,2.16
77.40,-0.73,-2.84,-0.73,-2.84,2.84,2.39,2.49,2.11,2.11,2.11
78.17,-0.74,-2.79,-0.73,-2.79,2.79,2.34,2.43,2.06,2.06,2.05
78.95,-0.74,-2.76,-0.74,-2.75,2.75,2.28,2.36,2.01,2.01,2.02
79.74,-0.75,-2.72,-0.75,-2.71,2.71,2.23,2.30,1.96,1.96,1.97
80.54,-0.76,-2.67,-0.75,-2.66,2.66,2.18,2.24,1.91,1.91,1.91
81.35,-0.76,-2.62,-0.76,-2.62,2.62,2.13,2.18,1.86,1.86,1.86
82.16,-0.77,-2.57,-0.77,-2.58,2.58,2.08,2.12,1.81,1.81,1.80
82.98,-0.78,-2.54,-0.78,-2.53,2.53,2.04,2.06,1.75,1.75,1.76
83.81,-0.78,-2.47,-0.79,-2.49,2.49,1.99,2.00,1.71,1.70,1.69
84.65,-0.80,-2.43,-0.80,-2.44,2.44,1.94,1.94,1.64,1.64,1.64
85.50,-0.81,-2.40,-0.81,-2.39,2.39,1.90,1.89,1.58,1.58,1.59
86.35,-0.82,-2.35,-0.82,-2.35,2.35,1.85,1.83,1.53,1.53,1.53
87.22,-0.84,-2.31,-0.83,-2.30,2.30,1.81,1.78,1.46,1.47,1.47
88.09,-0.84,-2.25,-0.84,-2.25,2.25,1.77,1.73,1.41,1.41,1.41
88.97,-0.86,-2.22,-0.86,-2.21,2.21,1.73,1.67,1.35,1.35,1.36
89.86,-0.87,-2.16,-0.87,-2.16,2.16,1.68,1.62,1.29,1.29,1.30
90.76,-0.88,-2.10,-0.88,-2.11,2.11,1.64,1.58,1.23,1.23,1.22
91.66,-0.90,-2.07,-0.90,-2.07,2.07,1.60,1.53,1.17,1.17,1.17
92.58,-0.91,-2.01,-0.91,-2.02,2.02,1.57,1.48,1.11,1.11,1.10
93.51,-0.93,-1.98,-0.92,-1.97,1.97,1.53,1.44,1.04,1.04,1.05
94.44,-0.93,-1.92,-0.94,-1.92,1.92,1.49,1.39,0.99,0.98,0.99
95.39,-0.95,-1.87,-0.95,-1.87,1.87,1.45,1.35,0.92,0.91,0.92
96.34,-0.97,-1.81,-0.97,-1.81,1.81,1.42,1.31,0.84,0.85,0.85
97.30,-0.99,-1.77,-0.98,-1.76,1.76,1.38,1.27,0.77,0.78,0.78
98.28,-1.00,-1.71,-1.00,-1.71,1.71,1.35,1.23,0.71,0.71,0.71
99.26,-1.02,-1.66,-1.02,-1.66,1.66,1.31,1.19,0.64,0.64,0.64
100.25,-1.03,-1.60,-1.03,-1.60,1.60,1.28,1.15,0.57,0.57,0.57
101.25,-1.05,-1.55,-1.05,-1.55,1.55,1.25,1.12,0.50,0.50,0.50
102.27,-1.07,-1.49,-1.07,-1.50,1.50,1.22,1.08,0.43,0.43,0.42
103.29,-1.09,-1.44,-1.09,-1.44,1.44,1.18,1.05,0.35,0.35,0.35
104.32,-1.10,-1.38,-1.10,-1.38,1.38,1.15,1.01,0.28,0.28,0.28
105.37,-1.12,-1.33,-1.12,-1.33,1.33,1.12,0.98,0.21,0.21,0.21
106.42,-1.15,-1.28,-1.14,-1.27,1.27,1.09,0.95,0.12,0.13,0.13
107.48,-1.17,-1.22,-1.16,-1.22,1.22,1.06,0.91,0.05,0.05,0.06
108.56,-1.18,-1.16,-1.18,-1.16,1.16,1.03,0.88,-0.02,-0.02,-0.02
109.64,-1.20,-1.10,-1.20,-1.10,1.10,1.00,0.85,-0.10,-0.10,-0.10
110.74,-1.22,-1.05,-1.22,-1.04,1.04,0.97,0.82,-0.18,-0.18,-0.17
111.85,-1.24,-0.99,-1.24,-0.99,0.99,0.95,0.80,-0.25,-0.25,-0.24
112.97,-1.26,-0.92,-1.26,-0.93,0.93,0.92,0.77,-0.33,-0.33,-0.34
114.10,-1.29,-0.88,-1.28,-0.88,0.88,0.89,0.74,-0.41,-0.41,-0.41
115.24,-1.30,-0.82,-1.31,-0.82,0.82,0.86,0.72,-0.48,-0.49,-0.48
116.39,-1.33,-0.76,-1.33,-0.77,0.77,0.83,0.69,-0.56,-0.56,-0.57
117.55,-1.35,-0.70,-1.35,-0.71,0.71,0.81,0.66,-0.63,-0.64,-0.65
118.73,-1.38,-0.66,-1.37,-0.66,0.66,0.78,0.64,-0.72,-0.71,-0.72
119.92,-1.40,-0.61,-1.40,-0.61,0.61,0.75,0.62,-0.79,-0.79,-0.78
121.12,-1.42,-0.56,-1.42,-0.56,0.56,0.73,0.59,-0.86,-0.86,-0.86
122.33,-1.45,-0.52,-1.45,-0.52,0.52,0.70,0.57,-0.93,-0.93,-0.93
123.55,-1.47,-0.47,-1.47,-0.47,0.47,0.67,0.55,-1.00,-1.00,-0.99
124.79,-1.50,-0.43,-1.49,-0.42,0.42,0.65,0.53,-1.08,-1.07,-1.07
126.03,-1.52,-0.39,-1.52,-0.38,0.38,0.62,0.51,-1.14,-1.14,-1.13
127.29,-1.54,-0.34,-1.54,-0.34,0.34,0.60,0.49,-1.20,-1.21,-1.20
128.57,-1.57,-0.29,-1.57,-0.30,0.30,0.57,0.47,-1.27,-1.27,-1.28
129.85,-1.59,-0.25,-1.59,-0.26,0.26,0.54,0.45,-1.33,-1.33,-1.34
131.15,-1.61,-0.21,-1.61,-0.22,0.22,0.52,0.43,-1.39,-1.39,-1.40
132.46,-1.64,-0.18,-1.64,-0.18,0.18,0.49,0.41,-1.46,-1.46,-1.46
133.79,-1.66,-0.15,-1.66,-0.15,0.15,0.46,0.39,-1.51,-1.51,-1.51
135.12,-1.68,-0.10,-1.68,-0.12,0.12,0.43,0.38,-1.56,-1.57,-1.58
136.48,-1.71,-0.09,-1.71,-0.09,0.09,0.41,0.36,-1.62,-1.62,-1.62
137.84,-1.73,-0.06,-1.73,-0.06,0.06,0.38,0.34,-1.67,-1.67,-1.66
139.22,-1.75,-0.02,-1.75,-0.03,0.03,0.35,0.33,-1.72,-1.72,-1.73
140.61,-1.78,0.00,-1.77,-0.01,0.01,0.32,0.31,-1.77,-1.76,-1.78
142.02,-1.79,0.01,-1.79,0.01,-0.01,0.29,0.29,-1.80,-1.81,-1.80
143.44,-1.82,0.02,-1.81,0.03,-0.03,0.26,0.28,-1.85,-1.85,-1.84
144.87,-1.84,0.05,-1.84,0.05,-0.05,0.23,0.26,-1.89,-1.89,-1.89
146.32,-1.85,0.08,-1.86,0.07,-0.07,0.20,0.25,-1.92,-1.93,-1.93
147.78,-1.88,0.08,-1.88,0.09,-0.09,0.17,0.23,-1.97,-1.96,-1.96
149.26,-1.90,0.09,-1.90,0.10,-0.10,0.14,0.22,-2.00,-2.00,-1.99
150.75,-1.92,0.12,-1.92,0.12,-0.12,0.11,0.20,-2.04,-2.04,-2.04
152.26,-1.94,0.13,-1.94,0.13,-0.13,0.07,0.18,-2.07,-2.07,-2.07
153.78,-1.96,0.15,-1.96,0.14,-0.14,0.04,0.17,-2.10,-2.11,-2.11
155.32,-1.98,0.16,-1.98,0.16,-0.16,0.00,0.15,-2.14,-2.14,-2.14
156.88,-2.01,0.16,-2.01,0.17,-0.17,-0.03,0.14,-2.18,-2.18,-2.17
158.44,-2.03,0.18,-2.03,0.18,-0.18,-0.07,0.13,-2.21,-2.21,-2.21
160.03,-2.05,0.20,-2.05,0.19,-0.19,-0.11,0.11,-2.24,-2.24,-2.25
161.63,-2.08,0.21,-2.08,0.20,-0.20,-0.14,0.10,-2.28,-2.28,-2.29
163.24,-2.10,0.22,-2.10,0.21,-0.21,-0.18,0.08,-2.31,-2.31,-2.32
164.88,-2.12,0.22,-2.12,0.23,-0.23,-0.22,0.07,-2.35,-2.35,-2.34
166.53,-2.14,0.24,-2.14,0.24,-0.24,-0.26,0.05,-2.38,-2.38,-2.38
168.19,-2.17,0.25,-2.17,0.25,-0.25,-0.30,0.03,-2.42,-2.42,-2.42
169.87,-2.20,0.26,-2.19,0.27,-0.27,-0.33,0.02,-2.47,-2.46,-2.46
171.57,-2.21,0.28,-2.21,0.28,-0.28,-0.37,0.00,-2.49,-2.50,-2.49
173.29,-2.24,0.28,-2.24,0.30,-0.30,-0.41,-0.01,-2.54,-2.53,-2.52
175.02,-2.26,0.30,-2.26,0.32,-0.32,-0.44,-0.03,-2.58,-2.57,-2.56
176.77,-2.28,0.33,-2.28,0.33,-0.33,-0.48,-0.04,-2.61,-2.61,-2.61
178.54,-2.30,0.35,-2.30,0.35,-0.35,-0.51,-0.06,-2.65,-2.65,-2.65
180.32,-2.32,0.37,-2.32,0.37,-0.37,-0.54,-0.07,-2.69,-2.69,-2.69
182.13,-2.34,0.39,-2.34,0.39,-0.39,-0.56,-0.09,-2.73,-2.73,-2.73
183.95,-2.37,0.41,-2.36,0.41,-0.41,-0.58,-0.11,-2.78,-2.77,-2.78
185.79,-2.38,0.43,-2.38,0.43,-0.43,-0.60,-0.12,-2.81,-2.81,-2.81
187.65,-2.40,0.46,-2.40,0.45,-0.45,-0.62,-0.14,-2.85,-2.85,-2.86
189.52,-2.42,0.47,-2.42,0.47,-0.47,-0.63,-0.16,-2.89,-2.89,-2.89
191.42,-2.43,0.50,-2.44,0.49,-0.49,-0.64,-0.17,-2.92,-2.92,-2.93
193.33,-2.45,0.50,-2.45,0.50,-0.50,-0.64,-0.19,-2.95,-2.96,-2.95
195.27,-2.47,0.51,-2.47,0.52,-0.52,-0.64,-0.21,-2.99,-2.99,-2.98
197.22,-2.49,0.52,-2.49,0.53,-0.53,-0.63,-0.22,-3.02,-3.02,-3.01
199.19,-2.51,0.56,-2.51,0.54,-0.54,-0.63,-0.24,-3.05,-3.05,-3.06
201.18,-2.52,0.57,-2.53,0.55,-0.55,-0.62,-0.26,-3.07,-3.08,-3.08
203.19,-2.55,0.56,-2.54,0.56,-0.56,-0.60,-0.27,-3.11,-3.11,-3.10
205.23,-2.57,0.56,-2.56,0.57,-0.57,-0.58,-0.29,-3.14,-3.13,-3.13
207.28,-2.58,0.56,-2.58,0.58,-0.58,-0.57,-0.31,-3.15,-3.16,-3.14
209.35,-2.60,0.58,-2.60,0.58,-0.58,-0.55,-0.32,-3.18,-3.18,-3.18
211.44,-2.61,0.60,-2.62,0.58,-0.58,-0.52,-0.34,-3.19,-3.20,-3.21
213.56,-2.64,0.58,-2.63,0.59,-0.59,-0.50,-0.35,-3.23,-3.22,-3.22
215.69,-2.65,0.58,-2.65,0.59,-0.59,-0.48,-0.37,-3.24,-3.24,-3.23
217.85,-2.67,0.58,-2.67,0.59,-0.59,-0.46,-0.38,-3.25,-3.25,-3.25
220.03,-2.68,0.59,-2.68,0.58,-0.58,-0.43,-0.39,-3.26,-3.26,-3.27
222.23,-2.70,0.59,-2.70,0.58,-0.58,-0.41,-0.41,-3.28,-3.27,-3.28
224.45,-2.71,0.57,-2.71,0.57,-0.57,-0.39,-0.42,-3.28,-3.28,-3.28
226.70,-2.73,0.56,-2.72,0.56,-0.56,-0.36,-0.43,-3.29,-3.29,-3.29
228.96,-2.73,0.57,-2.74,0.55,-0.55,-0.34,-0.44,-3.28,-3.29,-3.30
231.25,-2.75,0.54,-2.75,0.54,-0.54,-0.32,-0.45,-3.29,-3.29,-3.29
233.57,-2.76,0.52,-2.76,0.53,-0.53,-0.30,-0.46,-3.29,-3.29,-3.28
235.90,-2.77,0.51,-2.77,0.51,-0.51,-0.28,-0.46,-3.28,-3.28,-3.28
238.26,-2.78,0.50,-2.78,0.50,-0.50,-0.26,-0.47,-3.27,-3.27,-3.28
240.64,-2.79,0.48,-2.79,0.48,-0.48,-0.25,-0.48,-3.27,-3.26,-3.26
243.05,-2.79,0.47,-2.80,0.46,-0.46,-0.23,-0.48,-3.25,-3.25,-3.26
245.48,-2.81,0.43,-2.80,0.43,-0.43,-0.21,-0.48,-3.24,-3.24,-3.24
247.93,-2.81,0.42,-2.81,0.41,-0.41,-0.20,-0.48,-3.22,-3.22,-3.22
250.41,-2.81,0.41,-2.82,0.39,-0.39,-0.19,-0.48,-3.20,-3.21,-3.21
252.92,-2.82,0.36,-2.82,0.37,-0.37,-0.17,-0.48,-3.19,-3.19,-3.18
255.45,-2.83,0.33,-2.83,0.34,-0.34,-0.16,-0.47,-3.17,-3.17,-3.16
258.00,-2.83,0.31,-2.83,0.32,-0.32,-0.15,-0.47,-3.15,-3.15,-3.14
260.58,-2.83,0.30,-2.83,0.30,-0.30,-0.14,-0.46,-3.13,-3.13,-3.13
263.19,-2.84,0.27,-2.83,0.27,-0.27,-0.13,-0.45,-3.11,-3.10,-3.11
265.82,-2.83,0.26,-2.83,0.25,-0.25,-0.12,-0.45,-3.08,-3.08,-3.08
268.48,-2.83,0.23,-2.83,0.23,-0.23,-0.11,-0.43,-3.06,-3.06,-3.06
271.16,-2.83,0.20,-2.83,0.21,-0.21,-0.10,-0.42,-3.04,-3.04,-3.03
273.87,-2.83,0.19,-2.82,0.19,-0.19,-0.09,-0.41,-3.02,-3.01,-3.02
276.61,-2.82,0.16,-2.82,0.17,-0.17,-0.08,-0.40,-2.99,-2.99,-2.98
279.38,-2.81,0.16,-2.81,0.15,-0.15,-0.08,-0.38,-2.96,-2.97,-2.97
282.17,-2.81,0.14,-2.81,0.14,-0.14,-0.07,-0.37,-2.94,-2.94,-2.94
284.99,-2.81,0.11,-2.80,0.12,-0.12,-0.06,-0.35,-2.93,-2.92,-2.92
287.84,-2.80,0.10,-2.80,0.09,-0.09,-0.06,-0.33,-2.89,-2.89,-2.90
290.72,-2.79,0.07,-2.79,0.07,-0.07,-0.05,-0.31,-2.86,-2.86,-2.86
293.63,-2.78,0.07,-2.79,0.05,-0.05,-0.05,-0.30,-2.83,-2.84,-2.85
296.57,-2.78,0.03,-2.78,0.03,-0.03,-0.04,-0.28,-2.81,-2.81,-2.81
299.53,-2.78,0.01,-2.78,0.00,-0.00,-0.04,-0.26,-2.78,-2.78,-2.79
302.53,-2.77,-0.01,-2.77,-0.02,0.02,-0.03,-0.24,-2.74,-2.75,-2.76
305.55,-2.77,-0.05,-2.77,-0.05,0.05,-0.03,-0.22,-2.72,-2.72,-2.72
308.61,-2.77,-0.08,-2.77,-0.08,0.08,-0.02,-0.20,-2.69,-2.69,-2.69
311.69,-2.77,-0.12,-2.77,-0.11,0.11,-0.02,-0.17,-2.66,-2.66,-2.65
314.81,-2.76,-0.14,-2.77,-0.14,0.14,-0.02,-0.15,-2.62,-2.63,-2.62
317.96,-2.77,-0.18,-2.77,-0.17,0.17,-0.01,-0.13,-2.60,-2.60,-2.59
321.14,-2.76,-0.19,-2.77,-0.20,0.20,-0.01,-0.11,-2.56,-2.57,-2.57
324.35,-2.77,-0.23,-2.77,-0.23,0.23,-0.01,-0.09,-2.54,-2.54,-2.54
327.59,-2.77,-0.27,-2.77,-0.26,0.26,-0.01,-0.06,-2.51,-2.51,-2.50
330.87,-2.77,-0.29,-2.77,-0.28,0.28,-0.00,-0.04,-2.49,-2.48,-2.48
334.18,-2.77,-0.31,-2.76,-0.31,0.31,-0.00,-0.02,-2.46,-2.46,-2.46
337.52,-2.76,-0.33,-2.76,-0.33,0.33,0.00,0.00,-2.43,-2.43,-2.43
340.90,-2.76,-0.35,-2.76,-0.35,0.35,0.00,0.03,-2.41,-2.41,-2.40
344.30,-2.76,-0.37,-2.75,-0.37,0.37,0.00,0.05,-2.39,-2.39,-2.39
347.75,-2.75,-0.39,-2.75,-0.38,0.38,0.01,0.07,-2.37,-2.37,-2.36
351.23,-2.73,-0.39,-2.74,-0.39,0.39,0.01,0.09,-2.34,-2.35,-2.34
354.74,-2.73,-0.40,-2.73,-0.40,0.40,0.01,0.12,-2.33,-2.33,-2.33
358.28,-2.72,-0.41,-2.72,-0.41,0.41,0.01,0.14,-2.31,-2.31,-2.31
361.87,-2.71,-0.42,-2.70,-0.42,0.42,0.01,0.16,-2.29,-2.29,-2.29
365.49,-2.69,-0.43,-2.69,-0.42,0.42,0.01,0.19,-2.27,-2.27,-2.26
369.14,-2.68,-0.42,-2.68,-0.43,0.43,0.01,0.21,-2.25,-2.25,-2.25
372.83,-2.66,-0.42,-2.66,-0.43,0.43,0.02,0.23,-2.23,-2.23,-2.24
376.56,-2.64,-0.42,-2.64,-0.43,0.43,0.02,0.26,-2.21,-2.21,-2.22
380.33,-2.63,-0.44,-2.63,-0.43,0.43,0.02,0.28,-2.20,-2.19,-2.19
384.13,-2.60,-0.43,-2.61,-0.43,0.43,0.02,0.30,-2.17,-2.17,-2.17
387.97,-2.59,-0.44,-2.59,-0.44,0.44,0.02,0.33,-2.15,-2.15,-2.15
391.85,-2.57,-0.43,-2.57,-0.44,0.44,0.02,0.35,-2.13,-2.13,-2.14
395.77,-2.55,-0.44,-2.55,-0.44,0.44,0.02,0.37,-2.11,-2.11,-2.11
399.73,-2.52,-0.43,-2.53,-0.44,0.44,0.02,0.39,-2.08,-2.09,-2.09
403.72,-2.51,-0.44,-2.51,-0.44,0.44,0.02,0.42,-2.07,-2.07,-2.07
407.76,-2.49,-0.44,-2.49,-0.44,0.44,0.02,0.44,-2.05,-2.05,-2.05
411.84,-2.47,-0.45,-2.46,-0.44,0.44,0.02,0.46,-2.03,-2.03,-2.02
415.96,-2.44,-0.43,-2.44,-0.44,0.44,0.03,0.48,-2.00,-2.01,-2.00
420.12,-2.42,-0.43,-2.42,-0.44,0.44,0.03,0.50,-1.98,-1.98,-1.99
424.32,-2.40,-0.44,-2.40,-0.44,0.44,0.03,0.53,-1.96,-1.96,-1.96
428.56,-2.38,-0.44,-2.38,-0.44,0.44,0.03,0.55,-1.94,-1.94,-1.94
432.85,-2.35,-0.43,-2.36,-0.44,0.44,0.03,0.57,-1.91,-1.91,-1.92
437.18,-2.33,-0.44,-2.33,-0.44,0.44,0.03,0.58,-1.89,-1.89,-1.89
441.55,-2.30,-0.44,-2.31,-0.45,0.45,0.03,0.60,-1.85,-1.87,-1.86
445.96,-2.29,-0.45,-2.29,-0.45,0.45,0.03,0.62,-1.84,-1.84,-1.84
450.42,-2.26,-0.44,-2.27,-0.45,0.45,0.03,0.64,-1.81,-1.81,-1.82
454.93,-2.25,-0.46,-2.24,-0.45,0.45,0.03,0.65,-1.80,-1.79,-1.78
459.48,-2.22,-0.45,-2.22,-0.45,0.45,0.03,0.66,-1.76,-1.76,-1.77
464.07,-2.20,-0.46,-2.19,-0.46,0.46,0.03,0.68,-1.74,-1.73,-1.74
468.71,-2.17,-0.47,-2.16,-0.46,0.46,0.03,0.69,-1.71,-1.71,-1.70
473.40,-2.14,-0.46,-2.13,-0.45,0.45,0.03,0.70,-1.69,-1.68,-1.68
478.13,-2.11,-0.46,-2.10,-0.45,0.45,0.03,0.71,-1.66,-1.65,-1.65
