frequency,raw,error,smoothed,error_smoothed,equalization,parametric_eq,fixed_band_eq,equalized_raw,equalized_smoothed,target
20.00,10.38,0.87,10.34,0.80,-0.80,-0.65,-0.74,9.58,9.54,9.51
20.20,10.41,0.85,10.39,0.81,-0.81,-0.66,-0.76,9.60,9.58,9.56
20.40,10.45,0.84,10.44,0.83,-0.83,-0.67,-0.79,9.62,9.61,9.61
20.61,10.48,0.84,10.48,0.84,-0.84,-0.68,-0.81,9.64,9.64,9.64
20.81,10.51,0.82,10.53,0.85,-0.85,-0.70,-0.83,9.66,9.67,9.69
21.02,10.54,0.81,10.57,0.87,-0.87,-0.71,-0.85,9.67,9.70,9.73
21.23,10.58,0.83,10.61,0.89,-0.89,-0.72,-0.88,9.69,9.73,9.75
21.44,10.63,0.86,10.65,0.90,-0.90,-0.74,-0.90,9.73,9.75,9.77
21.66,10.67,0.88,10.69,0.92,-0.92,-0.75,-0.93,9.75,9.77,9.79
21.87,10.71,0.91,10.73,0.95,-0.95,-0.76,-0.95,9.77,9.79,9.80
22.09,10.75,0.93,10.77,0.97,-0.97,-0.78,-0.98,9.78,9.80,9.82
22.31,10.80,0.98,10.81,0.99,-0.99,-0.79,-1.01,9.81,9.81,9.82
22.54,10.85,1.02,10.85,1.03,-1.03,-0.81,-1.03,9.82,9.82,9.82
22.76,10.91,1.09,10.88,1.06,-1.06,-0.82,-1.06,9.85,9.82,9.82
22.99,10.96,1.15,10.92,1.09,-1.09,-0.83,-1.09,9.87,9.83,9.81
23.22,10.98,1.17,10.95,1.12,-1.12,-0.85,-1.12,9.86,9.83,9.81
23.45,11.00,1.19,10.98,1.15,-1.15,-0.87,-1.15,9.85,9.83,9.81
23.69,11.02,1.20,11.01,1.19,-1.19,-0.88,-1.18,9.83,9.83,9.82
23.92,11.04,1.22,11.05,1.22,-1.22,-0.90,-1.21,9.82,9.83,9.82
24.16,11.06,1.23,11.08,1.25,-1.25,-0.91,-1.25,9.81,9.83,9.83
24.40,11.08,1.24,11.11,1.28,-1.28,-0.93,-1.28,9.80,9.83,9.84
24.65,11.10,1.27,11.13,1.31,-1.31,-0.95,-1.31,9.79,9.83,9.83
24.89,11.12,1.29,11.16,1.33,-1.33,-0.96,-1.35,9.79,9.83,9.83
25.14,11.16,1.34,11.18,1.36,-1.36,-0.98,-1.38,9.80,9.83,9.83
25.39,11.21,1.38,11.21,1.38,-1.38,-1.00,-1.41,9.83,9.83,9.83
25.65,11.26,1.43,11.23,1.40,-1.40,-1.01,-1.45,9.86,9.83,9.83
25.91,11.31,1.49,11.26,1.43,-1.43,-1.03,-1.48,9.88,9.83,9.82
26.16,11.33,1.51,11.28,1.45,-1.45,-1.05,-1.52,9.88,9.83,9.82
26.43,11.33,1.51,11.31,1.48,-1.48,-1.07,-1.55,9.85,9.82,9.82
26.69,11.33,1.51,11.33,1.51,-1.51,-1.09,-1.59,9.82,9.82,9.82
26.96,11.33,1.50,11.35,1.53,-1.53,-1.11,-1.62,9.80,9.82,9.83
27.23,11.35,1.52,11.38,1.56,-1.56,-1.13,-1.66,9.79,9.82,9.83
27.50,11.38,1.56,11.41,1.59,-1.59,-1.15,-1.69,9.79,9.82,9.82
27.77,11.41,1.60,11.43,1.62,-1.62,-1.17,-1.72,9.79,9.81,9.81
28.05,11.44,1.63,11.46,1.64,-1.64,-1.19,-1.75,9.80,9.81,9.81
28.33,11.46,1.66,11.48,1.67,-1.67,-1.21,-1.78,9.79,9.81,9.80
28.62,11.49,1.69,11.50,1.70,-1.70,-1.23,-1.81,9.79,9.81,9.80
28.90,11.52,1.71,11.52,1.72,-1.72,-1.25,-1.84,9.80,9.81,9.81
29.19,11.56,1.77,11.54,1.74,-1.74,-1.27,-1.87,9.82,9.80,9.79
29.48,11.59,1.78,11.56,1.76,-1.76,-1.29,-1.90,9.83,9.80,9.81
29.78,11.63,1.83,11.58,1.78,-1.78,-1.31,-1.92,9.85,9.80,9.80
30.08,11.66,1.85,11.60,1.80,-1.80,-1.34,-1.94,9.86,9.80,9.81
30.38,11.65,1.85,11.62,1.82,-1.82,-1.36,-1.96,9.83,9.80,9.80
30.68,11.64,1.85,11.64,1.84,-1.84,-1.38,-1.98,9.80,9.79,9.79
30.99,11.63,1.84,11.65,1.86,-1.86,-1.40,-2.00,9.77,9.79,9.79
31.30,11.63,1.84,11.67,1.88,-1.88,-1.43,-2.02,9.75,9.79,9.79
31.61,11.63,1.84,11.69,1.90,-1.90,-1.45,-2.03,9.73,9.79,9.79
31.93,11.63,1.85,11.71,1.92,-1.92,-1.48,-2.05,9.71,9.78,9.78
32.24,11.68,1.91,11.72,1.94,-1.94,-1.50,-2.06,9.74,9.78,9.77
32.57,11.74,1.96,11.73,1.96,-1.96,-1.53,-2.07,9.78,9.77,9.78
32.89,11.81,2.03,11.75,1.98,-1.98,-1.55,-2.08,9.83,9.77,9.78
33.22,11.83,2.07,11.76,2.00,-2.00,-1.58,-2.09,9.83,9.76,9.76
33.55,11.83,2.07,11.78,2.02,-2.02,-1.60,-2.09,9.81,9.76,9.76
33.89,11.83,2.08,11.80,2.05,-2.05,-1.63,-2.10,9.78,9.75,9.75
34.23,11.83,2.08,11.83,2.08,-2.08,-1.66,-2.10,9.75,9.75,9.75
34.57,11.84,2.10,11.85,2.11,-2.11,-1.68,-2.11,9.73,9.74,9.74
34.92,11.84,2.10,11.88,2.14,-2.14,-1.71,-2.11,9.70,9.74,9.74
35.27,11.85,2.12,11.90,2.17,-2.17,-1.74,-2.12,9.68,9.73,9.73
35.62,11.87,2.14,11.92,2.19,-2.19,-1.77,-2.12,9.68,9.73,9.73
35.97,11.89,2.17,11.93,2.21,-2.21,-1.79,-2.12,9.68,9.73,9.72
36.33,11.94,2.21,11.94,2.22,-2.22,-1.82,-2.12,9.72,9.72,9.73
36.70,12.00,2.28,11.96,2.23,-2.23,-1.85,-2.13,9.77,9.72,9.72
37.06,12.04,2.33,11.97,2.25,-2.25,-1.88,-2.13,9.79,9.72,9.71
37.43,12.04,2.31,11.99,2.27,-2.27,-1.91,-2.13,9.77,9.72,9.73
37.81,12.04,2.32,12.01,2.29,-2.29,-1.94,-2.14,9.75,9.72,9.72
38.19,12.04,2.32,12.03,2.31,-2.31,-1.97,-2.14,9.73,9.72,9.72
38.57,12.04,2.32,12.05,2.33,-2.33,-2.00,-2.15,9.71,9.72,9.72
38.95,12.04,2.31,12.07,2.35,-2.35,-2.03,-2.16,9.69,9.72,9.73
39.34,12.04,2.32,12.09,2.37,-2.37,-2.06,-2.16,9.67,9.72,9.72
39.74,12.04,2.33,12.10,2.38,-2.38,-2.09,-2.17,9.66,9.72,9.71
40.14,12.06,2.34,12.10,2.38,-2.38,-2.13,-2.18,9.68,9.71,9.72
40.54,12.12,2.41,12.10,2.39,-2.39,-2.16,-2.20,9.73,9.71,9.71
40.94,12.17,2.47,12.10,2.39,-2.39,-2.19,-2.21,9.78,9.71,9.70
41.35,12.17,2.47,12.11,2.41,-2.41,-2.22,-2.22,9.76,9.70,9.70
41.76,12.15,2.46,12.12,2.42,-2.42,-2.26,-2.24,9.73,9.69,9.69
42.18,12.14,2.45,12.13,2.44,-2.44,-2.29,-2.26,9.70,9.68,9.69
42.60,12.14,2.47,12.14,2.47,-2.47,-2.32,-2.28,9.67,9.67,9.67
43.03,12.14,2.47,12.15,2.49,-2.49,-2.36,-2.30,9.65,9.66,9.67
43.46,12.10,2.44,12.16,2.52,-2.52,-2.39,-2.32,9.58,9.64,9.66
43.90,12.06,2.43,12.17,2.54,-2.54,-2.43,-2.35,9.52,9.63,9.63
44.33,12.11,2.50,12.18,2.56,-2.56,-2.46,-2.38,9.55,9.62,9.61
44.78,12.20,2.61,12.18,2.58,-2.58,-2.50,-2.40,9.62,9.60,9.59
45.23,12.24,2.66,12.19,2.60,-2.60,-2.53,-2.43,9.64,9.59,9.58
45.68,12.24,2.68,12.20,2.63,-2.63,-2.57,-2.47,9.61,9.57,9.56
46.13,12.24,2.70,12.21,2.65,-2.65,-2.61,-2.50,9.59,9.55,9.54
46.60,12.24,2.70,12.22,2.68,-2.68,-2.64,-2.53,9.56,9.54,9.54
47.06,12.24,2.72,12.23,2.71,-2.71,-2.68,-2.57,9.53,9.52,9.52
47.53,12.24,2.73,12.24,2.73,-2.73,-2.72,-2.61,9.51,9.50,9.51
48.01,12.24,2.74,12.25,2.76,-2.76,-2.75,-2.65,9.48,9.49,9.50
48.49,12.24,2.76,12.25,2.78,-2.78,-2.79,-2.69,9.46,9.47,9.48
48.97,12.24,2.78,12.25,2.80,-2.80,-2.83,-2.74,9.44,9.46,9.46
49.46,12.24,2.80,12.25,2.81,-2.81,-2.87,-2.78,9.43,9.44,9.44
49.96,12.24,2.83,12.24,2.82,-2.82,-2.91,-2.83,9.42,9.42,9.41
50.46,12.24,2.83,12.24,2.83,-2.83,-2.95,-2.87,9.41,9.41,9.41
50.96,12.24,2.85,12.24,2.85,-2.85,-2.98,-2.92,9.39,9.39,9.39
51.47,12.24,2.87,12.24,2.86,-2.86,-3.02,-2.97,9.38,9.38,9.37
51.99,12.24,2.89,12.24,2.88,-2.88,-3.06,-3.02,9.36,9.36,9.35
52.51,12.24,2.90,12.24,2.89,-2.89,-3.10,-3.07,9.35,9.35,9.34
53.03,12.24,2.90,12.24,2.91,-2.91,-3.14,-3.12,9.33,9.33,9.34
53.56,12.24,2.92,12.24,2.93,-2.93,-3.18,-3.17,9.31,9.31,9.32
54.10,12.24,2.94,12.24,2.94,-2.94,-3.22,-3.22,9.30,9.30,9.30
54.64,12.24,2.96,12.24,2.95,-2.95,-3.26,-3.27,9.29,9.29,9.28
55.18,12.24,2.97,12.24,2.97,-2.97,-3.30,-3.32,9.27,9.27,9.27
55.74,12.24,2.99,12.24,2.98,-2.98,-3.34,-3.37,9.26,9.26,9.25
56.29,12.24,3.00,12.24,3.00,-3.00,-3.38,-3.41,9.24,9.24,9.24
56.86,12.24,3.02,12.24,3.02,-3.02,-3.42,-3.46,9.22,9.22,9.22
57.42,12.24,3.05,12.24,3.04,-3.04,-3.46,-3.50,9.20,9.20,9.19
58.00,12.24,3.06,12.24,3.06,-3.06,-3.50,-3.55,9.18,9.18,9.18
58.58,12.24,3.08,12.24,3.09,-3.09,-3.55,-3.59,9.15,9.15,9.16
59.16,12.24,3.10,12.24,3.12,-3.12,-3.59,-3.62,9.12,9.12,9.14
59.76,12.24,3.13,12.24,3.15,-3.15,-3.63,-3.66,9.09,9.09,9.11
60.35,12.24,3.17,12.24,3.18,-3.18,-3.67,-3.69,9.06,9.06,9.07
60.96,12.24,3.21,12.24,3.22,-3.22,-3.71,-3.73,9.02,9.02,9.03
61.57,12.24,3.26,12.24,3.26,-3.26,-3.75,-3.75,8.98,8.98,8.98
62.18,12.24,3.31,12.24,3.30,-3.30,-3.79,-3.78,8.94,8.94,8.93
62.80,12.24,3.36,12.24,3.35,-3.35,-3.83,-3.80,8.89,8.89,8.88
63.43,12.24,3.41,12.24,3.40,-3.40,-3.87,-3.82,8.84,8.84,8.83
64.07,12.24,3.46,12.25,3.45,-3.45,-3.91,-3.84,8.79,8.79,8.78
64.71,12.24,3.51,12.25,3.51,-3.51,-3.96,-3.85,8.73,8.74,8.73
65.35,12.24,3.55,12.25,3.56,-3.56,-4.00,-3.87,8.68,8.69,8.69
66.01,12.24,3.60,12.25,3.61,-3.61,-4.04,-3.88,8.63,8.64,8.64
66.67,12.24,3.66,12.24,3.66,-3.66,-4.08,-3.88,8.58,8.58,8.58
67.33,12.24,3.71,12.23,3.70,-3.70,-4.12,-3.89,8.54,8.53,8.53
68.01,12.24,3.76,12.22,3.74,-3.74,-4.16,-3.90,8.50,8.48,8.48
68.69,12.24,3.82,12.22,3.80,-3.80,-4.20,-3.90,8.44,8.42,8.42
69.37,12.24,3.88,12.22,3.85,-3.85,-4.24,-3.90,8.39,8.36,8.36
70.07,12.24,3.94,12.21,3.91,-3.91,-4.28,-3.90,8.33,8.30,8.30
70.77,12.24,3.99,12.21,3.96,-3.96,-4.32,-3.90,8.28,8.24,8.25
71.48,12.14,3.95,12.20,4.01,-4.01,-4.35,-3.90,8.13,8.18,8.19
72.19,12.06,3.94,12.18,4.07,-4.07,-4.39,-3.90,7.99,8.12,8.12
72.91,12.12,4.06,12.17,4.12,-4.12,-4.43,-3.90,8.00,8.06,8.06
73.64,12.14,4.15,12.16,4.17,-4.17,-4.47,-3.90,7.97,7.99,7.99
74.38,12.18,4.25,12.15,4.22,-4.22,-4.51,-3.91,7.96,7.93,7.93
75.12,12.24,4.38,12.14,4.28,-4.28,-4.54,-3.91,7.96,7.87,7.86
75.87,12.24,4.44,12.13,4.32,-4.32,-4.58,-3.91,7.92,7.80,7.79
76.63,12.11,4.37,12.11,4.37,-4.37,-4.62,-3.92,7.74,7.74,7.74
77.40,12.04,4.36,12.09,4.41,-4.41,-4.65,-3.93,7.63,7.68,7.68
78.17,12.04,4.43,12.07,4.45,-4.45,-4.69,-3.94,7.59,7.62,7.61
78.95,12.04,4.47,12.05,4.49,-4.49,-4.73,-3.95,7.55,7.56,7.57
79.74,12.04,4.54,12.04,4.54,-4.54,-4.76,-3.96,7.50,7.50,7.50
80.54,12.04,4.59,12.03,4.58,-4.58,-4.79,-3.98,7.46,7.45,7.45
81.35,12.04,4.65,12.01,4.61,-4.61,-4.83,-4.00,7.43,7.39,7.39
82.16,12.01,4.68,11.99,4.65,-4.65,-4.86,-4.02,7.36,7.34,7.33
82.98,11.88,4.59,11.96,4.69,-4.69,-4.89,-4.05,7.19,7.28,7.29
83.81,11.86,4.64,11.95,4.73,-4.73,-4.93,-4.07,7.13,7.22,7.22
84.65,11.91,4.75,11.95,4.78,-4.78,-4.96,-4.11,7.13,7.17,7.16
85.50,11.93,4.81,11.94,4.84,-4.84,-4.99,-4.14,7.09,7.11,7.12
86.35,11.95,4.89,11.93,4.88,-4.88,-5.02,-4.18,7.07,7.05,7.06
87.22,11.99,4.99,11.91,4.91,-4.91,-5.05,-4.22,7.08,6.99,7.00
88.09,12.02,5.08,11.89,4.95,-4.95,-5.08,-4.26,7.06,6.93,6.94
88.97,11.86,4.98,11.88,5.00,-5.00,-5.10,-4.31,6.86,6.87,6.88
89.86,11.84,5.03,11.87,5.05,-5.05,-5.13,-4.36,6.79,6.81,6.81
90.76,11.84,5.09,11.85,5.10,-5.10,-5.16,-4.41,6.74,6.75,6.75
91.66,11.84,5.14,11.84,5.15,-5.15,-5.19,-4.46,6.69,6.69,6.70
92.58,11.84,5.22,11.83,5.19,-5.19,-5.21,-4.52,6.65,6.64,6.62
93.51,11.77,5.20,11.80,5.23,-5.23,-5.24,-4.59,6.54,6.58,6.57
94.44,11.68,5.16,11.78,5.26,-5.26,-5.26,-4.65,6.42,6.52,6.52
95.39,11.68,5.22,11.76,5.30,-5.30,-5.28,-4.72,6.38,6.46,6.46
96.34,11.76,5.37,11.73,5.33,-5.33,-5.31,-4.79,6.43,6.40,6.39
97.30,11.81,5.47,11.70,5.36,-5.36,-5.33,-4.87,6.45,6.34,6.34
98.28,11.75,5.47,11.67,5.39,-5.39,-5.35,-4.94,6.36,6.28,6.28
99.26,11.61,5.39,11.64,5.42,-5.42,-5.37,-5.02,6.19,6.23,6.22
100.25,11.59,5.42,11.61,5.44,-5.44,-5.39,-5.10,6.15,6.17,6.17
101.25,11.57,5.46,11.57,5.46,-5.46,-5.41,-5.18,6.11,6.11,6.11
102.27,11.55,5.50,11.53,5.48,-5.48,-5.43,-5.27,6.07,6.05,6.05
103.29,11.52,5.53,11.49,5.50,-5.50,-5.44,-5.35,6.02,5.99,5.99
104.32,11.47,5.53,11.45,5.51,-5.51,-5.46,-5.44,5.96,5.93,5.94
105.37,11.38,5.50,11.40,5.52,-5.52,-5.48,-5.53,5.86,5.87,5.88
106.42,11.29,5.47,11.34,5.53,-5.53,-5.49,-5.61,5.76,5.81,5.82
107.48,11.25,5.50,11.29,5.54,-5.54,-5.50,-5.70,5.71,5.75,5.75
108.56,11.23,5.54,11.25,5.56,-5.56,-5.52,-5.79,5.67,5.69,5.69
109.64,11.21,5.58,11.20,5.58,-5.58,-5.53,-5.87,5.63,5.63,5.63
110.74,11.19,5.63,11.16,5.59,-5.59,-5.54,-5.95,5.60,5.56,5.56
111.85,11.14,5.63,11.11,5.61,-5.61,-5.56,-6.03,5.53,5.50,5.51
112.97,11.06,5.62,11.07,5.63,-5.63,-5.57,-6.11,5.43,5.44,5.44
114.10,10.99,5.61,11.04,5.65,-5.65,-5.58,-6.18,5.34,5.38,5.38
115.24,10.95,5.63,11.00,5.67,-5.67,-5.59,-6.25,5.28,5.33,5.32
116.39,10.95,5.69,10.96,5.68,-5.68,-5.60,-6.32,5.27,5.27,5.26
117.55,10.98,5.77,10.92,5.70,-5.70,-5.61,-6.38,5.28,5.22,5.21
118.73,11.00,5.84,10.88,5.71,-5.71,-5.61,-6.43,5.29,5.17,5.16
119.92,10.79,5.67,10.85,5.73,-5.73,-5.62,-6.48,5.06,5.12,5.12
121.12,10.73,5.66,10.82,5.74,-5.74,-5.63,-6.52,4.99,5.08,5.07
122.33,10.79,5.76,10.79,5.76,-5.76,-5.64,-6.55,5.03,5.03,5.03
123.55,10.85,5.86,10.76,5.77,-5.77,-5.64,-6.58,5.08,4.99,4.99
124.79,10.81,5.86,10.73,5.78,-5.78,-5.65,-6.60,5.03,4.95,4.95
126.03,10.57,5.66,10.71,5.80,-5.80,-5.66,-6.61,4.77,4.91,4.91
127.29,10.58,5.70,10.68,5.81,-5.81,-5.66,-6.62,4.77,4.87,4.88
128.57,10.60,5.77,10.65,5.82,-5.82,-5.67,-6.62,4.78,4.83,4.83
129.85,10.68,5.89,10.61,5.82,-5.82,-5.67,-6.61,4.86,4.79,4.79
131.15,10.70,5.95,10.58,5.83,-5.83,-5.68,-6.59,4.87,4.75,4.75
132.46,10.58,5.86,10.55,5.84,-5.84,-5.68,-6.57,4.74,4.72,4.72
133.79,10.54,5.86,10.53,5.85,-5.85,-5.69,-6.54,4.69,4.68,4.68
135.12,10.48,5.85,10.50,5.86,-5.86,-5.69,-6.51,4.62,4.64,4.63
136.48,10.45,5.84,10.47,5.86,-5.86,-5.70,-6.48,4.59,4.61,4.61
137.84,10.51,5.95,10.44,5.87,-5.87,-5.70,-6.44,4.64,4.57,4.56
139.22,10.42,5.90,10.42,5.88,-5.88,-5.71,-6.39,4.54,4.53,4.52
140.61,10.35,5.87,10.40,5.90,-5.90,-5.72,-6.34,4.45,4.50,4.48
142.02,10.35,5.89,10.37,5.91,-5.91,-5.72,-6.30,4.44,4.45,4.46
143.44,10.35,5.93,10.35,5.94,-5.94,-5.73,-6.24,4.41,4.41,4.42
144.87,10.35,5.98,10.35,5.98,-5.98,-5.73,-6.19,4.37,4.36,4.37
146.32,10.35,6.03,10.37,6.06,-6.06,-5.74,-6.14,4.29,4.31,4.32
147.78,10.35,6.07,10.41,6.16,-6.16,-5.75,-6.09,4.19,4.26,4.28
149.26,10.35,6.12,10.45,6.26,-6.26,-5.76,-6.04,4.09,4.19,4.23
150.75,10.36,6.21,10.49,6.36,-6.36,-5.77,-5.98,4.00,4.13,4.15
152.26,10.42,6.34,10.53,6.47,-6.47,-5.78,-5.93,3.95,4.06,4.08
153.78,10.43,6.43,10.55,6.57,-6.57,-5.79,-5.89,3.86,3.98,4.00
155.32,10.55,6.63,10.57,6.66,-6.66,-5.80,-5.84,3.89,3.91,3.92
156.88,10.69,6.85,10.57,6.74,-6.74,-5.81,-5.80,3.95,3.83,3.84
158.44,10.74,6.99,10.54,6.79,-6.79,-5.82,-5.76,3.95,3.75,3.75
160.03,10.80,7.14,10.51,6.83,-6.83,-5.83,-5.72,3.97,3.68,3.66
161.63,10.69,7.11,10.45,6.85,-6.85,-5.85,-5.69,3.84,3.60,3.58
163.24,10.50,6.99,10.37,6.83,-6.83,-5.86,-5.65,3.67,3.54,3.51
164.88,10.28,6.82,10.27,6.80,-6.80,-5.88,-5.63,3.48,3.47,3.46
166.53,10.15,6.75,10.16,6.74,-6.74,-5.89,-5.60,3.41,3.42,3.40
168.19,9.98,6.62,10.04,6.67,-6.67,-5.91,-5.58,3.31,3.37,3.36
169.87,9.79,6.48,9.91,6.57,-6.57,-5.93,-5.57,3.22,3.33,3.31
171.57,9.63,6.34,9.78,6.48,-6.48,-5.95,-5.56,3.15,3.30,3.29
173.29,9.54,6.27,9.65,6.37,-6.37,-5.97,-5.55,3.17,3.28,3.27
175.02,9.49,6.23,9.53,6.27,-6.27,-5.99,-5.55,3.22,3.26,3.26
176.77,9.39,6.15,9.42,6.18,-6.18,-6.02,-5.55,3.21,3.24,3.23
178.54,9.20,5.97,9.33,6.10,-6.10,-6.04,-5.55,3.10,3.23,3.23
180.32,9.21,5.98,9.26,6.04,-6.04,-6.07,-5.56,3.17,3.22,3.23
182.13,9.27,6.04,9.21,6.00,-6.00,-6.09,-5.58,3.27,3.21,3.23
183.95,9.21,6.00,9.17,5.98,-5.98,-6.12,-5.60,3.23,3.20,3.21
185.79,9.17,5.96,9.14,5.96,-5.96,-6.15,-5.62,3.21,3.18,3.21
187.65,9.19,6.01,9.12,5.95,-5.95,-6.17,-5.64,3.24,3.17,3.18
189.52,9.16,5.99,9.10,5.94,-5.94,-6.20,-5.67,3.22,3.16,3.17
191.42,9.07,5.93,9.08,5.94,-5.94,-6.23,-5.71,3.13,3.14,3.14
193.33,9.01,5.89,9.06,5.94,-5.94,-6.26,-5.75,3.07,3.12,3.12
195.27,9.00,5.90,9.04,5.94,-5.94,-6.29,-5.79,3.06,3.10,3.10
197.22,9.01,5.93,9.02,5.95,-5.95,-6.32,-5.83,3.06,3.08,3.08
199.19,9.03,5.99,9.01,5.96,-5.96,-6.34,-5.88,3.07,3.05,3.04
201.18,9.04,6.02,8.99,5.96,-5.96,-6.37,-5.93,3.08,3.03,3.02
203.19,9.03,6.03,8.97,5.97,-5.97,-6.40,-5.98,3.06,3.00,3.00
205.23,8.97,6.00,8.97,5.99,-5.99,-6.42,-6.03,2.98,2.98,2.98
207.28,8.94,5.97,8.97,6.01,-6.01,-6.44,-6.09,2.93,2.95,2.97
209.35,8.94,6.00,8.97,6.04,-6.04,-6.47,-6.15,2.90,2.93,2.94
211.44,8.93,6.03,8.98,6.07,-6.07,-6.48,-6.20,2.86,2.91,2.90
213.56,8.93,6.04,8.99,6.10,-6.10,-6.50,-6.26,2.83,2.89,2.89
215.69,9.00,6.12,9.00,6.13,-6.13,-6.51,-6.32,2.87,2.88,2.88
217.85,9.02,6.16,9.01,6.15,-6.15,-6.52,-6.37,2.87,2.86,2.86
220.03,9.03,6.18,9.02,6.17,-6.17,-6.53,-6.42,2.86,2.85,2.85
222.23,9.08,6.26,9.02,6.18,-6.18,-6.53,-6.48,2.90,2.84,2.82
224.45,9.12,6.29,9.04,6.21,-6.21,-6.53,-6.52,2.91,2.84,2.83
226.70,9.12,6.29,9.07,6.24,-6.24,-6.52,-6.57,2.88,2.83,2.83
228.96,9.12,6.29,9.11,6.28,-6.28,-6.51,-6.61,2.84,2.84,2.83
231.25,9.13,6.29,9.15,6.31,-6.31,-6.49,-6.64,2.82,2.84,2.84
233.57,9.14,6.29,9.20,6.35,-6.35,-6.47,-6.67,2.79,2.85,2.85
235.90,9.12,6.26,9.24,6.38,-6.38,-6.44,-6.69,2.74,2.86,2.86
238.26,9.16,6.29,9.29,6.41,-6.41,-6.40,-6.70,2.75,2.88,2.87
240.64,9.25,6.37,9.33,6.44,-6.44,-6.36,-6.71,2.81,2.89,2.88
243.05,9.33,6.42,9.37,6.46,-6.46,-6.31,-6.71,2.87,2.91,2.91
245.48,9.41,6.48,9.40,6.47,-6.47,-6.26,-6.70,2.94,2.93,2.93
247.93,9.52,6.56,9.42,6.47,-6.47,-6.20,-6.68,3.05,2.95,2.96
250.41,9.58,6.61,9.44,6.46,-6.46,-6.14,-6.65,3.12,2.97,2.97
252.92,9.51,6.50,9.44,6.45,-6.45,-6.07,-6.61,3.06,3.00,3.01
255.45,9.47,6.44,9.43,6.41,-6.41,-6.00,-6.56,3.06,3.02,3.03
258.00,9.45,6.40,9.40,6.35,-6.35,-5.92,-6.51,3.10,3.04,3.05
260.58,9.42,6.36,9.34,6.28,-6.28,-5.84,-6.44,3.14,3.06,3.06
263.19,9.33,6.24,9.28,6.19,-6.19,-5.75,-6.37,3.14,3.09,3.09
265.82,9.20,6.10,9.19,6.08,-6.08,-5.66,-6.28,3.12,3.11,3.10
268.48,8.98,5.85,9.08,5.95,-5.95,-5.57,-6.19,3.03,3.13,3.13
271.16,8.91,5.75,8.96,5.80,-5.80,-5.47,-6.10,3.11,3.16,3.16
273.87,8.87,5.70,8.82,5.64,-5.64,-5.37,-6.00,3.23,3.18,3.17
276.61,8.72,5.51,8.68,5.47,-5.47,-5.27,-5.89,3.25,3.21,3.21
279.38,8.53,5.30,8.54,5.30,-5.30,-5.16,-5.77,3.23,3.23,3.23
282.17,8.34,5.09,8.39,5.13,-5.13,-5.06,-5.66,3.21,3.26,3.25
284.99,8.24,4.95,8.23,4.95,-4.95,-4.95,-5.53,3.29,3.28,3.29
287.84,8.16,4.86,8.07,4.76,-4.76,-4.84,-5.41,3.40,3.31,3.30
290.72,8.05,4.71,7.93,4.59,-4.59,-4.73,-5.28,3.46,3.34,3.34
293.63,7.86,4.50,7.81,4.45,-4.45,-4.62,-5.15,3.41,3.37,3.36
296.57,7.70,4.30,7.75,4.35,-4.35,-4.52,-5.02,3.35,3.40,3.40
299.53,7.65,4.23,7.72,4.29,-4.29,-4.41,-4.89,3.36,3.42,3.42
302.53,7.48,4.04,7.70,4.25,-4.25,-4.30,-4.76,3.23,3.45,3.44
305.55,7.47,3.99,7.69,4.22,-4.22,-4.19,-4.63,3.25,3.47,3.48
308.61,7.53,4.03,7.70,4.21,-4.21,-4.09,-4.50,3.32,3.50,3.50
311.69,7.38,3.86,7.73,4.21,-4.21,-3.98,-4.37,3.17,3.52,3.52
314.81,7.56,4.01,7.77,4.23,-4.23,-3.87,-4.24,3.33,3.54,3.55
317.96,7.80,4.23,7.81,4.25,-4.25,-3.77,-4.11,3.55,3.56,3.57
321.14,8.05,4.48,7.84,4.26,-4.26,-3.67,-3.98,3.79,3.58,3.57
324.35,8.35,4.76,7.88,4.28,-4.28,-3.57,-3.86,4.07,3.59,3.59
327.59,8.36,4.75,7.91,4.30,-4.30,-3.47,-3.73,4.06,3.61,3.61
330.87,8.04,4.43,7.91,4.29,-4.29,-3.37,-3.61,3.75,3.62,3.61
334.18,7.84,4.21,7.89,4.26,-4.26,-3.27,-3.49,3.58,3.63,3.63
337.52,7.76,4.12,7.86,4.22,-4.22,-3.17,-3.37,3.54,3.64,3.64
340.90,7.75,4.10,7.79,4.14,-4.14,-3.08,-3.26,3.61,3.65,3.65
344.30,7.68,4.02,7.70,4.04,-4.04,-2.99,-3.15,3.64,3.65,3.66
347.75,7.60,3.94,7.58,3.92,-3.92,-2.90,-3.03,3.68,3.66,3.66
351.23,7.38,3.71,7.43,3.77,-3.77,-2.81,-2.93,3.61,3.66,3.67
354.74,7.20,3.54,7.26,3.60,-3.60,-2.72,-2.82,3.60,3.67,3.66
358.28,7.13,3.46,7.10,3.43,-3.43,-2.63,-2.71,3.70,3.67,3.67
361.87,6.91,3.24,6.95,3.28,-3.28,-2.55,-2.61,3.63,3.67,3.67
365.49,6.74,3.06,6.80,3.12,-3.12,-2.46,-2.51,3.62,3.67,3.68
369.14,6.66,3.00,6.64,2.97,-2.97,-2.38,-2.41,3.69,3.67,3.66
372.83,6.52,2.86,6.48,2.82,-2.82,-2.30,-2.32,3.70,3.67,3.66
376.56,6.35,2.69,6.32,2.66,-2.66,-2.22,-2.22,3.69,3.66,3.66
380.33,6.16,2.49,6.16,2.50,-2.50,-2.14,-2.13,3.66,3.66,3.67
384.13,6.00,2.33,6.01,2.35,-2.35,-2.06,-2.04,3.65,3.66,3.67
387.97,5.87,2.22,5.86,2.20,-2.20,-1.99,-1.95,3.67,3.65,3.65
391.85,5.75,2.11,5.70,2.05,-2.05,-1.91,-1.86,3.70,3.65,3.64
395.77,5.61,1.96,5.55,1.91,-1.91,-1.84,-1.78,3.70,3.64,3.65
399.73,5.36,1.72,5.43,1.79,-1.79,-1.76,-1.70,3.57,3.63,3.64
403.72,5.05,1.41,5.30,1.67,-1.67,-1.69,-1.61,3.38,3.63,3.64
407.76,5.15,1.52,5.18,1.55,-1.55,-1.62,-1.53,3.60,3.62,3.63
411.84,5.29,1.66,5.06,1.44,-1.44,-1.55,-1.45,3.85,3.62,3.63
415.96,4.96,1.34,4.97,1.35,-1.35,-1.49,-1.38,3.61,3.62,3.62
420.12,4.82,1.20,4.89,1.27,-1.27,-1.42,-1.30,3.55,3.62,3.62
424.32,4.81,1.19,4.81,1.19,-1.19,-1.35,-1.23,3.62,3.63,3.62
428.56,4.62,0.99,4.74,1.10,-1.10,-1.29,-1.15,3.52,3.64,3.63
432.85,4.57,0.93,4.69,1.04,-1.04,-1.22,-1.08,3.53,3.65,3.64
437.18,4.85,1.20,4.66,0.99,-0.99,-1.16,-1.01,3.86,3.67,3.65
441.55,4.69,1.00,4.63,0.93,-0.93,-1.09,-0.94,3.76,3.70,3.69
445.96,4.43,0.71,4.59,0.86,-0.86,-1.03,-0.87,3.57,3.73,3.72
450.42,4.50,0.75,4.54,0.77,-0.77,-0.97,-0.80,3.73,3.77,3.75
454.93,4.58,0.79,4.49,0.68,-0.68,-0.91,-0.73,3.90,3.81,3.79
459.48,4.55,0.71,4.46,0.61,-0.61,-0.84,-0.67,3.94,3.85,3.84
464.07,4.48,0.59,4.44,0.55,-0.55,-0.78,-0.60,3.93,3.90,3.89
468.71,4.37,0.42,4.43,0.48,-0.48,-0.72,-0.53,3.89,3.94,3.95
473.40,4.41,0.42,4.41,0.42,-0.42,-0.66,-0.47,3.99,3.99,3.99
478.13,4.54,0.49,4.37,0.33,-0.33,-0.61,-0.41,4.21,4.04,4.05
482.91,4.25,0.16,4.31,0.22,-0.22,-0.55,-0.34,4.03,4.09,4.09
487.74,3.96,-0.17,4.23,0.10,-0.10,-0.49,-0.28,3.86,4.13,4.13
492.62,4.04,-0.14,4.19,0.03,-0.03,-0.43,-0.22,4.01,4.16,4.18
497.55,4.18,-0.02,4.14,-0.06,0.06,-0.37,-0.15,4.24,4.19,4.20
502.52,4.37,0.14,4.05,-0.17,0.17,-0.31,-0.09,4.54,4.22,4.23
507.55,4.16,-0.08,3.96,-0.27,0.27,-0.26,-0.03,4.43,4.23,4.24
