frequency,raw,error,smoothed,error_smoothed,equalization,parametric_eq,fixed_band_eq,equalized_raw,equalized_smoothed,target
20.00,-19.13,-25.37,-18.97,-25.21,25.21,25.57,12.61,6.08,6.24,6.24
20.20,-18.97,-25.21,-18.91,-25.15,25.15,25.42,12.81,6.18,6.24,6.24
20.40,-18.83,-25.07,-18.85,-25.09,25.09,25.27,13.01,6.26,6.24,6.24
20.61,-18.70,-24.95,-18.78,-25.02,25.02,25.13,13.22,6.32,6.24,6.24
20.81,-18.60,-24.83,-18.71,-24.95,24.95,24.99,13.43,6.35,6.24,6.23
21.02,-18.52,-24.75,-18.64,-24.87,24.87,24.85,13.64,6.35,6.24,6.23
21.23,-18.47,-24.70,-18.56,-24.79,24.79,24.72,13.87,6.32,6.23,6.23
21.44,-18.42,-24.66,-18.47,-24.70,24.70,24.59,14.10,6.28,6.23,6.24
21.66,-18.37,-24.60,-18.39,-24.62,24.62,24.46,14.33,6.24,6.23,6.23
21.87,-18.31,-24.54,-18.30,-24.52,24.52,24.34,14.57,6.21,6.22,6.23
22.09,-18.25,-24.47,-18.20,-24.43,24.43,24.22,14.82,6.17,6.22,6.22
22.31,-18.17,-24.39,-18.11,-24.32,24.32,24.10,15.07,6.15,6.22,6.22
22.54,-18.08,-24.30,-18.02,-24.23,24.23,23.98,15.33,6.15,6.21,6.21
22.76,-17.98,-24.19,-17.92,-24.13,24.13,23.87,15.60,6.15,6.21,6.21
22.99,-17.85,-24.05,-17.81,-24.02,24.02,23.75,15.87,6.16,6.20,6.20
23.22,-17.71,-23.90,-17.70,-23.90,23.90,23.64,16.16,6.18,6.20,6.19
23.45,-17.57,-23.76,-17.58,-23.77,23.77,23.53,16.45,6.20,6.19,6.19
23.69,-17.42,-23.61,-17.45,-23.63,23.63,23.42,16.75,6.21,6.18,6.18
23.92,-17.28,-23.45,-17.32,-23.50,23.50,23.32,17.06,6.22,6.18,6.17
24.16,-17.15,-23.32,-17.18,-23.36,23.36,23.21,17.39,6.21,6.17,6.17
24.40,-17.03,-23.20,-17.05,-23.22,23.22,23.11,17.72,6.19,6.17,6.17
24.65,-16.90,-23.07,-16.92,-23.09,23.09,23.01,18.07,6.18,6.17,6.17
24.89,-16.78,-22.95,-16.79,-22.95,22.95,22.91,18.43,6.17,6.16,6.17
25.14,-16.66,-22.82,-16.66,-22.83,22.83,22.81,18.80,6.17,6.16,6.16
25.39,-16.54,-22.69,-16.54,-22.70,22.70,22.71,19.19,6.16,6.16,6.15
25.65,-16.42,-22.57,-16.42,-22.58,22.58,22.61,19.60,6.16,6.16,6.15
25.91,-16.31,-22.47,-16.31,-22.46,22.46,22.51,20.02,6.15,6.16,6.15
26.16,-16.20,-22.36,-16.19,-22.35,22.35,22.41,20.46,6.15,6.16,6.16
26.43,-16.09,-22.26,-16.08,-22.24,22.24,22.32,20.93,6.14,6.16,6.16
26.69,-15.97,-22.13,-15.97,-22.12,22.12,22.22,21.41,6.15,6.16,6.16
26.96,-15.86,-22.01,-15.86,-22.01,22.01,22.12,21.92,6.15,6.16,6.15
27.23,-15.75,-21.90,-15.75,-21.90,21.90,22.02,22.46,6.15,6.15,6.15
27.50,-15.64,-21.79,-15.65,-21.80,21.80,21.93,23.02,6.16,6.15,6.15
27.77,-15.53,-21.69,-15.55,-21.70,21.70,21.83,23.62,6.17,6.15,6.16
28.05,-15.43,-21.58,-15.45,-21.59,21.59,21.73,24.25,6.16,6.15,6.15
28.33,-15.33,-21.47,-15.35,-21.49,21.49,21.64,24.92,6.16,6.14,6.14
28.62,-15.24,-21.38,-15.26,-21.39,21.39,21.54,25.62,6.15,6.14,6.13
28.90,-15.15,-21.29,-15.16,-21.29,21.29,21.44,26.36,6.14,6.13,6.14
29.19,-15.07,-21.20,-15.07,-21.20,21.20,21.35,27.14,6.12,6.13,6.13
29.48,-14.99,-21.11,-14.98,-21.10,21.10,21.25,27.95,6.11,6.12,6.12
29.78,-14.89,-21.00,-14.89,-21.00,21.00,21.15,28.77,6.11,6.12,6.11
30.08,-14.81,-20.92,-14.79,-20.91,20.91,21.05,29.58,6.09,6.11,6.11
30.38,-14.72,-20.82,-14.70,-20.81,20.81,20.95,30.34,6.09,6.11,6.10
30.68,-14.62,-20.71,-14.61,-20.71,20.71,20.85,30.99,6.09,6.10,6.09
30.99,-14.52,-20.61,-14.52,-20.62,20.62,20.75,31.44,6.09,6.10,6.09
31.30,-14.42,-20.51,-14.42,-20.52,20.52,20.64,31.63,6.10,6.10,6.09
31.61,-14.32,-20.41,-14.33,-20.42,20.42,20.54,31.52,6.10,6.09,6.09
31.93,-14.22,-20.31,-14.23,-20.32,20.32,20.44,31.14,6.10,6.09,6.08
32.24,-14.12,-20.21,-14.13,-20.22,20.22,20.33,30.56,6.10,6.09,6.09
32.57,-14.02,-20.10,-14.03,-20.12,20.12,20.23,29.84,6.09,6.08,6.08
32.89,-13.93,-20.01,-13.93,-20.01,20.01,20.12,29.07,6.08,6.08,6.08
33.22,-13.83,-19.91,-13.83,-19.91,19.91,20.01,28.28,6.08,6.07,6.08
33.55,-13.74,-19.81,-13.73,-19.80,19.80,19.90,27.51,6.06,6.07,6.07
33.89,-13.64,-19.70,-13.63,-19.69,19.69,19.79,26.76,6.05,6.06,6.06
34.23,-13.54,-19.58,-13.53,-19.58,19.58,19.68,26.05,6.04,6.05,6.04
34.57,-13.44,-19.48,-13.43,-19.47,19.47,19.57,25.38,6.03,6.03,6.04
34.92,-13.34,-19.36,-13.34,-19.35,19.35,19.46,24.74,6.01,6.02,6.02
35.27,-13.23,-19.25,-13.24,-19.24,19.24,19.35,24.14,6.00,6.00,6.01
35.62,-13.13,-19.11,-13.14,-19.12,19.12,19.23,23.58,5.99,5.98,5.98
35.97,-13.04,-19.00,-13.04,-19.00,19.00,19.12,23.05,5.96,5.95,5.96
36.33,-12.94,-18.87,-12.95,-18.88,18.88,19.00,22.54,5.93,5.93,5.93
36.70,-12.85,-18.75,-12.85,-18.75,18.75,18.88,22.07,5.90,5.90,5.90
37.06,-12.75,-18.62,-12.76,-18.63,18.63,18.77,21.62,5.88,5.87,5.87
37.43,-12.66,-18.50,-12.67,-18.51,18.51,18.65,21.19,5.85,5.84,5.84
37.81,-12.57,-18.38,-12.58,-18.39,18.39,18.53,20.79,5.82,5.81,5.81
38.19,-12.49,-18.26,-12.49,-18.27,18.27,18.41,20.40,5.78,5.78,5.77
38.57,-12.40,-18.15,-12.40,-18.15,18.15,18.29,20.04,5.75,5.75,5.75
38.95,-12.31,-18.03,-12.31,-18.03,18.03,18.16,19.69,5.72,5.72,5.72
39.34,-12.23,-17.91,-12.23,-17.92,17.92,18.04,19.36,5.69,5.69,5.68
39.74,-12.14,-17.79,-12.14,-17.81,17.81,17.92,19.04,5.67,5.66,5.65
40.14,-12.06,-17.69,-12.06,-17.69,17.69,17.79,18.74,5.63,5.63,5.63
40.54,-11.99,-17.60,-11.98,-17.58,17.58,17.67,18.45,5.59,5.61,5.61
40.94,-11.89,-17.47,-11.90,-17.48,17.48,17.54,18.17,5.58,5.58,5.58
41.35,-11.81,-17.36,-11.81,-17.37,17.37,17.41,17.91,5.56,5.56,5.55
41.76,-11.73,-17.25,-11.73,-17.26,17.26,17.29,17.65,5.53,5.53,5.52
42.18,-11.64,-17.15,-11.65,-17.16,17.16,17.16,17.41,5.51,5.51,5.51
42.60,-11.57,-17.05,-11.57,-17.05,17.05,17.03,17.18,5.48,5.48,5.48
43.03,-11.48,-16.93,-11.48,-16.94,16.94,16.90,16.95,5.46,5.46,5.45
43.46,-11.40,-16.83,-11.40,-16.84,16.84,16.77,16.74,5.43,5.43,5.43
43.90,-11.32,-16.73,-11.32,-16.73,16.73,16.65,16.53,5.40,5.41,5.41
44.33,-11.24,-16.61,-11.24,-16.62,16.62,16.52,16.34,5.38,5.38,5.37
44.78,-11.16,-16.51,-11.15,-16.51,16.51,16.39,16.15,5.34,5.35,5.35
45.23,-11.07,-16.41,-11.07,-16.39,16.39,16.26,15.97,5.32,5.32,5.34
45.68,-10.99,-16.29,-10.99,-16.28,16.28,16.12,15.79,5.29,5.29,5.30
46.13,-10.90,-16.15,-10.90,-16.16,16.16,15.99,15.62,5.26,5.26,5.25
46.60,-10.82,-16.05,-10.82,-16.05,16.05,15.86,15.46,5.22,5.23,5.23
47.06,-10.73,-15.92,-10.74,-15.93,15.93,15.73,15.31,5.20,5.19,5.19
47.53,-10.65,-15.81,-10.66,-15.80,15.80,15.60,15.16,5.15,5.15,5.16
48.01,-10.57,-15.67,-10.58,-15.68,15.68,15.47,15.02,5.11,5.11,5.10
48.49,-10.49,-15.56,-10.50,-15.56,15.56,15.34,14.88,5.07,5.06,5.07
48.97,-10.41,-15.43,-10.42,-15.44,15.44,15.21,14.75,5.03,5.02,5.02
49.46,-10.33,-15.31,-10.34,-15.31,15.31,15.08,14.62,4.98,4.97,4.98
49.96,-10.26,-15.17,-10.26,-15.19,15.19,14.95,14.50,4.93,4.93,4.91
50.46,-10.19,-15.06,-10.18,-15.06,15.06,14.81,14.38,4.87,4.88,4.87
50.96,-10.11,-14.93,-10.11,-14.94,14.94,14.68,14.27,4.83,4.83,4.82
51.47,-10.03,-14.81,-10.03,-14.82,14.82,14.55,14.16,4.79,4.79,4.78
51.99,-9.95,-14.68,-9.95,-14.69,14.69,14.42,14.05,4.74,4.74,4.73
52.51,-9.87,-14.56,-9.88,-14.57,14.57,14.29,13.95,4.70,4.69,4.69
53.03,-9.79,-14.45,-9.80,-14.44,14.44,14.16,13.85,4.65,4.64,4.66
53.56,-9.72,-14.33,-9.72,-14.32,14.32,14.03,13.75,4.59,4.60,4.61
54.10,-9.63,-14.18,-9.64,-14.19,14.19,13.90,13.65,4.56,4.55,4.55
54.64,-9.55,-14.06,-9.55,-14.06,14.06,13.77,13.55,4.51,4.51,4.51
55.18,-9.47,-13.92,-9.47,-13.93,13.93,13.65,13.46,4.46,4.47,4.45
55.74,-9.39,-13.80,-9.38,-13.80,13.80,13.52,13.36,4.41,4.42,4.41
56.29,-9.31,-13.68,-9.29,-13.67,13.67,13.39,13.27,4.36,4.38,4.37
56.86,-9.22,-13.55,-9.20,-13.54,13.54,13.26,13.17,4.32,4.34,4.33
57.42,-9.12,-13.39,-9.11,-13.40,13.40,13.13,13.08,4.28,4.29,4.27
58.00,-9.02,-13.25,-9.03,-13.27,13.27,13.01,12.98,4.25,4.24,4.23
58.58,-8.92,-13.12,-8.94,-13.13,13.13,12.88,12.88,4.21,4.19,4.20
59.16,-8.84,-13.00,-8.85,-12.99,12.99,12.75,12.78,4.15,4.14,4.16
59.76,-8.74,-12.86,-8.77,-12.85,12.85,12.63,12.68,4.11,4.09,4.12
60.35,-8.66,-12.71,-8.68,-12.72,12.72,12.50,12.57,4.06,4.04,4.05
60.96,-8.58,-12.58,-8.60,-12.58,12.58,12.38,12.46,4.00,3.98,4.00
61.57,-8.51,-12.43,-8.51,-12.44,12.44,12.26,12.35,3.93,3.93,3.92
62.18,-8.44,-12.30,-8.43,-12.30,12.30,12.13,12.24,3.86,3.87,3.86
62.80,-8.36,-12.16,-8.35,-12.16,12.16,12.01,12.12,3.80,3.81,3.80
63.43,-8.28,-12.01,-8.27,-12.03,12.03,11.89,12.00,3.75,3.76,3.73
64.07,-8.20,-11.88,-8.19,-11.89,11.89,11.77,11.87,3.69,3.70,3.68
64.71,-8.12,-11.75,-8.11,-11.75,11.75,11.65,11.74,3.63,3.64,3.63
65.35,-8.04,-11.62,-8.04,-11.62,11.62,11.53,11.61,3.58,3.58,3.58
66.01,-7.95,-11.47,-7.96,-11.48,11.48,11.41,11.48,3.53,3.52,3.52
66.67,-7.87,-11.35,-7.88,-11.35,11.35,11.29,11.34,3.47,3.47,3.48
67.33,-7.80,-11.21,-7.80,-11.21,11.21,11.17,11.20,3.41,3.41,3.41
68.01,-7.71,-11.07,-7.72,-11.07,11.07,11.05,11.06,3.36,3.36,3.36
68.69,-7.63,-10.93,-7.64,-10.94,10.94,10.93,10.92,3.31,3.30,3.30
69.37,-7.56,-10.81,-7.56,-10.80,10.80,10.82,10.77,3.24,3.25,3.25
70.07,-7.47,-10.67,-7.48,-10.67,10.67,10.70,10.63,3.20,3.19,3.20
70.77,-7.39,-10.53,-7.40,-10.53,10.53,10.59,10.48,3.14,3.13,3.14
71.48,-7.31,-10.39,-7.32,-10.39,10.39,10.47,10.33,3.08,3.08,3.08
72.19,-7.24,-10.25,-7.24,-10.25,10.25,10.36,10.18,3.01,3.02,3.01
72.91,-7.15,-10.11,-7.16,-10.12,10.12,10.25,10.04,2.96,2.96,2.96
73.64,-7.08,-9.97,-7.08,-9.98,9.98,10.13,9.89,2.90,2.90,2.89
74.38,-7.00,-9.83,-6.99,-9.84,9.84,10.02,9.74,2.84,2.85,2.83
75.12,-6.91,-9.69,-6.91,-9.70,9.70,9.91,9.59,2.79,2.79,2.78
75.87,-6.83,-9.57,-6.83,-9.56,9.56,9.80,9.45,2.73,2.74,2.74
76.63,-6.74,-9.42,-6.74,-9.42,9.42,9.69,9.30,2.68,2.68,2.68
77.40,-6.66,-9.28,-6.66,-9.28,9.28,9.59,9.16,2.62,2.63,2.62
78.17,-6.57,-9.13,-6.57,-9.14,9.14,9.48,9.02,2.57,2.57,2.56
78.95,-6.49,-9.02,-6.48,-9.00,9.00,9.37,8.88,2.51,2.52,2.53
79.74,-6.40,-8.87,-6.40,-8.86,8.86,9.26,8.75,2.46,2.47,2.47
80.54,-6.31,-8.72,-6.31,-8.73,8.73,9.16,8.61,2.41,2.42,2.41
81.35,-6.22,-8.59,-6.22,-8.59,8.59,9.05,8.48,2.37,2.37,2.37
82.16,-6.14,-8.46,-6.14,-8.45,8.45,8.95,8.35,2.31,2.32,2.32
82.98,-6.05,-8.31,-6.05,-8.31,8.31,8.85,8.22,2.26,2.26,2.26
83.81,-5.96,-8.17,-5.97,-8.18,8.18,8.75,8.10,2.22,2.21,2.21
84.65,-5.88,-8.03,-5.89,-8.05,8.05,8.64,7.98,2.17,2.16,2.15
85.50,-5.81,-7.91,-5.81,-7.92,7.92,8.54,7.86,2.11,2.11,2.10
86.35,-5.73,-7.78,-5.74,-7.79,7.79,8.44,7.74,2.06,2.05,2.05
87.22,-5.66,-7.66,-5.67,-7.66,7.66,8.34,7.63,2.00,2.00,2.00
88.09,-5.59,-7.53,-5.60,-7.54,7.54,8.25,7.51,1.95,1.95,1.94
88.97,-5.53,-7.42,-5.53,-7.42,7.42,8.15,7.41,1.89,1.89,1.89
89.86,-5.47,-7.30,-5.47,-7.31,7.31,8.05,7.30,1.83,1.83,1.83
90.76,-5.41,-7.18,-5.41,-7.19,7.19,7.96,7.20,1.78,1.78,1.77
91.66,-5.36,-7.08,-5.36,-7.08,7.08,7.86,7.10,1.71,1.72,1.72
92.58,-5.31,-6.97,-5.31,-6.97,6.97,7.77,7.00,1.65,1.66,1.66
93.51,-5.26,-6.86,-5.26,-6.86,6.86,7.67,6.91,1.59,1.59,1.60
94.44,-5.22,-6.76,-5.22,-6.75,6.75,7.58,6.81,1.53,1.53,1.54
95.39,-5.17,-6.64,-5.18,-6.64,6.64,7.49,6.72,1.47,1.46,1.47
96.34,-5.14,-6.54,-5.14,-6.54,6.54,7.40,6.64,1.40,1.40,1.40
97.30,-5.11,-6.45,-5.11,-6.44,6.44,7.30,6.55,1.33,1.33,1.34
98.28,-5.07,-6.32,-5.08,-6.34,6.34,7.22,6.47,1.27,1.27,1.25
99.26,-5.05,-6.23,-5.05,-6.25,6.25,7.13,6.39,1.19,1.20,1.18
100.25,-5.02,-6.14,-5.02,-6.15,6.15,7.04,6.31,1.13,1.13,1.12
101.25,-5.00,-6.06,-4.99,-6.06,6.06,6.95,6.23,1.06,1.07,1.06
102.27,-4.97,-5.97,-4.97,-5.97,5.97,6.86,6.16,1.00,1.00,1.00
103.29,-4.95,-5.88,-4.95,-5.89,5.89,6.78,6.09,0.94,0.94,0.93
104.32,-4.93,-5.81,-4.93,-5.81,5.81,6.69,6.02,0.88,0.88,0.88
105.37,-4.91,-5.73,-4.91,-5.73,5.73,6.61,5.95,0.82,0.82,0.82
106.42,-4.90,-5.66,-4.90,-5.66,5.66,6.53,5.88,0.76,0.76,0.76
107.48,-4.88,-5.57,-4.89,-5.59,5.59,6.44,5.82,0.70,0.70,0.69
108.56,-4.87,-5.51,-4.88,-5.52,5.52,6.36,5.75,0.65,0.64,0.64
109.64,-4.87,-5.46,-4.87,-5.45,5.45,6.28,5.69,0.58,0.58,0.59
110.74,-4.86,-5.38,-4.87,-5.39,5.39,6.20,5.63,0.53,0.52,0.52
111.85,-4.86,-5.32,-4.87,-5.33,5.33,6.12,5.57,0.47,0.46,0.46
112.97,-4.86,-5.26,-4.88,-5.27,5.27,6.04,5.51,0.41,0.39,0.40
114.10,-4.87,-5.21,-4.88,-5.21,5.21,5.97,5.45,0.34,0.33,0.34
115.24,-4.89,-5.16,-4.89,-5.16,5.16,5.89,5.39,0.27,0.26,0.27
116.39,-4.91,-5.10,-4.90,-5.10,5.10,5.81,5.34,0.19,0.20,0.19
117.55,-4.92,-5.05,-4.92,-5.05,5.05,5.74,5.28,0.12,0.13,0.13
118.73,-4.94,-4.99,-4.93,-4.99,4.99,5.66,5.22,0.05,0.06,0.05
119.92,-4.96,-4.94,-4.95,-4.94,4.94,5.59,5.17,-0.03,-0.01,-0.02
121.12,-4.97,-4.89,-4.96,-4.88,4.88,5.52,5.11,-0.09,-0.08,-0.08
122.33,-4.99,-4.83,-4.98,-4.83,4.83,5.44,5.06,-0.17,-0.16,-0.16
123.55,-5.00,-4.78,-5.00,-4.77,4.77,5.37,5.00,-0.23,-0.23,-0.22
124.79,-5.02,-4.73,-5.02,-4.72,4.72,5.30,4.95,-0.30,-0.30,-0.29
126.03,-5.04,-4.68,-5.05,-4.67,4.67,5.23,4.89,-0.37,-0.38,-0.36
127.29,-5.06,-4.61,-5.07,-4.62,4.62,5.17,4.83,-0.44,-0.45,-0.45
128.57,-5.08,-4.56,-5.10,-4.58,4.58,5.10,4.78,-0.50,-0.52,-0.52
129.85,-5.12,-4.52,-5.13,-4.54,4.54,5.03,4.72,-0.58,-0.59,-0.60
131.15,-5.15,-4.48,-5.16,-4.50,4.50,4.96,4.67,-0.65,-0.66,-0.67
132.46,-5.19,-4.45,-5.19,-4.47,4.47,4.90,4.61,-0.72,-0.72,-0.74
133.79,-5.23,-4.43,-5.23,-4.44,4.44,4.83,4.56,-0.79,-0.79,-0.80
135.12,-5.26,-4.39,-5.27,-4.41,4.41,4.77,4.50,-0.85,-0.85,-0.87
136.48,-5.30,-4.39,-5.31,-4.39,4.39,4.71,4.45,-0.91,-0.91,-0.91
137.84,-5.34,-4.37,-5.35,-4.37,4.37,4.65,4.40,-0.97,-0.97,-0.97
139.22,-5.39,-4.35,-5.39,-4.36,4.36,4.58,4.34,-1.03,-1.03,-1.04
140.61,-5.43,-4.35,-5.43,-4.35,4.35,4.52,4.29,-1.08,-1.08,-1.08
142.02,-5.47,-4.34,-5.47,-4.34,4.34,4.47,4.24,-1.13,-1.13,-1.13
143.44,-5.50,-4.31,-5.51,-4.33,4.33,4.41,4.19,-1.17,-1.18,-1.19
144.87,-5.55,-4.32,-5.55,-4.32,4.32,4.35,4.14,-1.24,-1.23,-1.23
146.32,-5.59,-4.31,-5.58,-4.31,4.31,4.29,4.09,-1.29,-1.28,-1.28
147.78,-5.62,-4.29,-5.62,-4.29,4.29,4.24,4.04,-1.33,-1.33,-1.33
149.26,-5.66,-4.29,-5.65,-4.28,4.28,4.18,3.99,-1.38,-1.37,-1.37
150.75,-5.69,-4.26,-5.68,-4.26,4.26,4.13,3.95,-1.43,-1.42,-1.43
152.26,-5.71,-4.25,-5.71,-4.24,4.24,4.07,3.90,-1.47,-1.47,-1.46
153.78,-5.74,-4.22,-5.73,-4.22,4.22,4.02,3.86,-1.53,-1.52,-1.52
155.32,-5.75,-4.19,-5.76,-4.19,4.19,3.97,3.82,-1.56,-1.56,-1.56
156.88,-5.78,-4.17,-5.78,-4.16,4.16,3.92,3.78,-1.62,-1.61,-1.61
158.44,-5.79,-4.13,-5.80,-4.13,4.13,3.87,3.74,-1.66,-1.66,-1.66
160.03,-5.81,-4.10,-5.82,-4.10,4.10,3.82,3.70,-1.71,-1.71,-1.71
161.63,-5.83,-4.07,-5.84,-4.07,4.07,3.78,3.67,-1.76,-1.77,-1.76
163.24,-5.85,-4.02,-5.86,-4.04,4.04,3.73,3.63,-1.81,-1.82,-1.83
164.88,-5.86,-3.99,-5.88,-4.01,4.01,3.68,3.60,-1.86,-1.87,-1.87
166.53,-5.88,-3.95,-5.89,-3.97,3.97,3.64,3.57,-1.91,-1.92,-1.93
168.19,-5.91,-3.94,-5.91,-3.94,3.94,3.60,3.54,-1.97,-1.97,-1.97
169.87,-5.93,-3.91,-5.93,-3.90,3.90,3.56,3.52,-2.03,-2.03,-2.02
171.57,-5.95,-3.86,-5.94,-3.86,3.86,3.51,3.49,-2.09,-2.08,-2.09
173.29,-5.96,-3.82,-5.96,-3.83,3.83,3.47,3.47,-2.13,-2.13,-2.14
175.02,-5.98,-3.80,-5.97,-3.79,3.79,3.44,3.45,-2.19,-2.18,-2.18
176.77,-5.99,-3.76,-5.98,-3.75,3.75,3.40,3.43,-2.24,-2.23,-2.23
178.54,-6.00,-3.72,-5.99,-3.71,3.71,3.36,3.41,-2.29,-2.28,-2.28
180.32,-6.00,-3.66,-6.00,-3.67,3.67,3.33,3.40,-2.33,-2.33,-2.34
182.13,-6.01,-3.63,-6.01,-3.63,3.63,3.29,3.39,-2.38,-2.38,-2.38
183.95,-6.01,-3.59,-6.02,-3.59,3.59,3.26,3.37,-2.42,-2.43,-2.42
185.79,-6.01,-3.53,-6.03,-3.55,3.55,3.23,3.36,-2.46,-2.48,-2.48
187.65,-6.02,-3.50,-6.03,-3.51,3.51,3.20,3.36,-2.52,-2.53,-2.52
189.52,-6.03,-3.46,-6.04,-3.47,3.47,3.17,3.35,-2.57,-2.57,-2.57
191.42,-6.04,-3.42,-6.05,-3.43,3.43,3.14,3.34,-2.61,-2.62,-2.62
193.33,-6.05,-3.38,-6.06,-3.39,3.39,3.12,3.34,-2.66,-2.67,-2.67
195.27,-6.06,-3.34,-6.06,-3.35,3.35,3.09,3.34,-2.71,-2.71,-2.72
197.22,-6.07,-3.30,-6.07,-3.32,3.32,3.07,3.34,-2.76,-2.75,-2.77
199.19,-6.09,-3.29,-6.08,-3.28,3.28,3.05,3.34,-2.81,-2.80,-2.80
201.18,-6.10,-3.25,-6.09,-3.25,3.25,3.03,3.34,-2.85,-2.84,-2.85
203.19,-6.09,-3.21,-6.09,-3.21,3.21,3.01,3.34,-2.88,-2.88,-2.88
205.23,-6.10,-3.18,-6.10,-3.18,3.18,3.00,3.34,-2.92,-2.92,-2.92
207.28,-6.11,-3.16,-6.11,-3.15,3.15,2.98,3.34,-2.96,-2.96,-2.95
209.35,-6.12,-3.13,-6.11,-3.12,3.12,2.97,3.35,-3.00,-3.00,-2.99
211.44,-6.12,-3.09,-6.12,-3.09,3.09,2.96,3.35,-3.03,-3.03,-3.03
213.56,-6.12,-3.05,-6.13,-3.06,3.06,2.95,3.35,-3.06,-3.06,-3.07
215.69,-6.12,-3.02,-6.13,-3.03,3.03,2.94,3.36,-3.09,-3.10,-3.10
217.85,-6.13,-3.00,-6.14,-3.01,3.01,2.93,3.36,-3.12,-3.13,-3.13
220.03,-6.14,-2.97,-6.14,-2.98,2.98,2.92,3.36,-3.16,-3.16,-3.17
222.23,-6.14,-2.95,-6.15,-2.96,2.96,2.92,3.36,-3.18,-3.19,-3.19
224.45,-6.15,-2.93,-6.16,-2.94,2.94,2.92,3.36,-3.21,-3.22,-3.22
226.70,-6.17,-2.92,-6.17,-2.92,2.92,2.91,3.35,-3.25,-3.25,-3.25
228.96,-6.17,-2.90,-6.17,-2.90,2.90,2.91,3.35,-3.27,-3.27,-3.27
231.25,-6.17,-2.88,-6.18,-2.88,2.88,2.91,3.34,-3.29,-3.30,-3.29
233.57,-6.19,-2.87,-6.19,-2.87,2.87,2.91,3.33,-3.33,-3.32,-3.32
235.90,-6.19,-2.84,-6.19,-2.85,2.85,2.91,3.32,-3.34,-3.34,-3.35
238.26,-6.20,-2.82,-6.20,-2.84,2.84,2.91,3.30,-3.37,-3.36,-3.38
240.64,-6.21,-2.83,-6.20,-2.82,2.82,2.91,3.28,-3.39,-3.38,-3.38
243.05,-6.20,-2.80,-6.21,-2.80,2.80,2.90,3.26,-3.40,-3.40,-3.40
245.48,-6.21,-2.78,-6.21,-2.79,2.79,2.90,3.23,-3.42,-3.42,-3.43
247.93,-6.21,-2.76,-6.21,-2.77,2.77,2.89,3.21,-3.44,-3.43,-3.45
250.41,-6.21,-2.76,-6.20,-2.75,2.75,2.88,3.17,-3.46,-3.45,-3.45
252.92,-6.20,-2.74,-6.20,-2.73,2.73,2.87,3.14,-3.47,-3.46,-3.46
255.45,-6.20,-2.72,-6.19,-2.71,2.71,2.86,3.10,-3.49,-3.48,-3.48
258.00,-6.19,-2.70,-6.19,-2.69,2.69,2.84,3.05,-3.50,-3.49,-3.49
260.58,-6.17,-2.67,-6.18,-2.67,2.67,2.82,3.01,-3.50,-3.51,-3.50
263.19,-6.16,-2.64,-6.17,-2.65,2.65,2.79,2.96,-3.51,-3.52,-3.52
265.82,-6.15,-2.62,-6.16,-2.63,2.63,2.76,2.90,-3.52,-3.53,-3.53
268.48,-6.14,-2.60,-6.15,-2.60,2.60,2.73,2.84,-3.54,-3.55,-3.54
271.16,-6.13,-2.57,-6.14,-2.58,2.58,2.69,2.78,-3.55,-3.56,-3.56
273.87,-6.12,-2.55,-6.12,-2.55,2.55,2.65,2.72,-3.57,-3.57,-3.57
276.61,-6.11,-2.52,-6.11,-2.53,2.53,2.60,2.66,-3.58,-3.58,-3.59
279.38,-6.10,-2.49,-6.10,-2.50,2.50,2.56,2.59,-3.60,-3.60,-3.61
282.17,-6.08,-2.46,-6.08,-2.47,2.47,2.50,2.52,-3.61,-3.61,-3.62
284.99,-6.06,-2.45,-6.06,-2.45,2.45,2.45,2.45,-3.61,-3.62,-3.61
287.84,-6.04,-2.42,-6.04,-2.42,2.42,2.39,2.37,-3.62,-3.63,-3.62
290.72,-6.01,-2.36,-6.02,-2.39,2.39,2.33,2.30,-3.62,-3.63,-3.65
293.63,-5.99,-2.35,-6.00,-2.35,2.35,2.27,2.22,-3.64,-3.64,-3.64
296.57,-5.97,-2.32,-5.97,-2.32,2.32,2.20,2.15,-3.65,-3.65,-3.65
299.53,-5.94,-2.28,-5.93,-2.28,2.28,2.14,2.07,-3.66,-3.66,-3.66
302.53,-5.90,-2.24,-5.90,-2.23,2.23,2.08,1.99,-3.67,-3.66,-3.66
305.55,-5.86,-2.19,-5.85,-2.19,2.19,2.01,1.91,-3.68,-3.67,-3.67
308.61,-5.82,-2.15,-5.80,-2.13,2.13,1.95,1.83,-3.69,-3.67,-3.67
311.69,-5.77,-2.09,-5.75,-2.08,2.08,1.88,1.75,-3.69,-3.68,-3.68
314.81,-5.70,-2.02,-5.70,-2.02,2.02,1.81,1.67,-3.68,-3.68,-3.68
317.96,-5.64,-1.95,-5.64,-1.95,1.95,1.75,1.59,-3.69,-3.68,-3.69
321.14,-5.57,-1.89,-5.57,-1.89,1.89,1.69,1.51,-3.69,-3.69,-3.68
324.35,-5.50,-1.80,-5.50,-1.82,1.82,1.62,1.43,-3.69,-3.69,-3.70
327.59,-5.43,-1.75,-5.43,-1.74,1.74,1.56,1.35,-3.69,-3.69,-3.68
330.87,-5.35,-1.66,-5.36,-1.67,1.67,1.50,1.27,-3.69,-3.69,-3.69
334.18,-5.27,-1.57,-5.28,-1.59,1.59,1.44,1.19,-3.68,-3.69,-3.70
337.52,-5.20,-1.51,-5.20,-1.51,1.51,1.38,1.12,-3.69,-3.69,-3.69
340.90,-5.12,-1.42,-5.13,-1.44,1.44,1.32,1.04,-3.68,-3.69,-3.70
344.30,-5.05,-1.36,-5.05,-1.36,1.36,1.26,0.96,-3.69,-3.69,-3.69
347.75,-4.97,-1.29,-4.98,-1.29,1.29,1.21,0.88,-3.69,-3.69,-3.68
351.23,-4.89,-1.19,-4.90,-1.21,1.21,1.15,0.80,-3.68,-3.69,-3.70
354.74,-4.82,-1.14,-4.83,-1.14,1.14,1.09,0.73,-3.68,-3.69,-3.68
358.28,-4.75,-1.06,-4.75,-1.06,1.06,1.04,0.65,-3.69,-3.69,-3.69
361.87,-4.67,-0.98,-4.68,-0.99,0.99,0.99,0.58,-3.68,-3.69,-3.69
365.49,-4.60,-0.91,-4.61,-0.92,0.92,0.93,0.50,-3.68,-3.69,-3.69
369.14,-4.54,-0.86,-4.53,-0.85,0.85,0.88,0.42,-3.69,-3.69,-3.68
372.83,-4.46,-0.78,-4.46,-0.78,0.78,0.83,0.35,-3.68,-3.69,-3.68
376.56,-4.39,-0.70,-4.39,-0.71,0.71,0.77,0.28,-3.68,-3.68,-3.69
380.33,-4.32,-0.63,-4.32,-0.64,0.64,0.72,0.20,-3.68,-3.68,-3.69
384.13,-4.25,-0.56,-4.25,-0.57,0.57,0.67,0.13,-3.68,-3.68,-3.69
387.97,-4.18,-0.50,-4.18,-0.50,0.50,0.62,0.05,-3.69,-3.68,-3.68
391.85,-4.11,-0.42,-4.11,-0.43,0.43,0.57,-0.02,-3.68,-3.68,-3.69
395.77,-4.04,-0.35,-4.04,-0.36,0.36,0.51,-0.09,-3.69,-3.68,-3.69
399.73,-3.97,-0.28,-3.97,-0.29,0.29,0.46,-0.16,-3.68,-3.68,-3.69
403.72,-3.90,-0.22,-3.90,-0.22,0.22,0.41,-0.23,-3.69,-3.68,-3.68
407.76,-3.83,-0.15,-3.83,-0.15,0.15,0.36,-0.30,-3.69,-3.68,-3.68
411.84,-3.75,-0.07,-3.76,-0.07,0.07,0.30,-0.37,-3.68,-3.68,-3.68
415.96,-3.68,-0.00,-3.69,-0.00,0.00,0.25,-0.44,-3.68,-3.68,-3.68
420.12,-3.62,0.07,-3.62,0.07,-0.07,0.19,-0.51,-3.69,-3.68,-3.69
424.32,-3.54,0.15,-3.54,0.14,-0.14,0.13,-0.57,-3.68,-3.68,-3.69
