frequency,raw,error,smoothed,error_smoothed,equalization,parametric_eq,fixed_band_eq,equalized_raw,equalized_smoothed,target
20.00,5.14,-2.56,5.16,-2.54,2.54,2.27,1.04,7.68,7.70,7.70
20.20,5.14,-2.55,5.15,-2.54,2.54,2.29,1.07,7.68,7.69,7.69
20.40,5.14,-2.54,5.14,-2.54,2.54,2.30,1.10,7.68,7.68,7.68
20.61,5.14,-2.54,5.14,-2.54,2.54,2.31,1.14,7.68,7.68,7.68
20.81,5.14,-2.52,5.13,-2.54,2.54,2.33,1.17,7.68,7.67,7.66
21.02,5.14,-2.52,5.13,-2.53,2.53,2.34,1.21,7.67,7.66,7.66
21.23,5.14,-2.51,5.13,-2.53,2.53,2.35,1.24,7.67,7.65,7.65
21.44,5.14,-2.52,5.12,-2.52,2.52,2.36,1.28,7.66,7.64,7.66
21.66,5.14,-2.51,5.13,-2.51,2.51,2.37,1.32,7.65,7.64,7.65
21.87,5.14,-2.50,5.13,-2.50,2.50,2.38,1.36,7.64,7.63,7.64
22.09,5.14,-2.49,5.13,-2.49,2.49,2.39,1.40,7.63,7.63,7.63
22.31,5.14,-2.49,5.14,-2.48,2.48,2.40,1.45,7.62,7.62,7.63
22.54,5.14,-2.48,5.14,-2.47,2.47,2.41,1.49,7.61,7.62,7.62
22.76,5.14,-2.47,5.15,-2.46,2.46,2.42,1.54,7.60,7.61,7.61
22.99,5.14,-2.46,5.17,-2.44,2.44,2.42,1.58,7.58,7.61,7.60
23.22,5.16,-2.43,5.18,-2.43,2.43,2.43,1.63,7.59,7.61,7.59
23.45,5.18,-2.42,5.20,-2.41,2.41,2.43,1.68,7.59,7.60,7.60
23.69,5.20,-2.39,5.21,-2.39,2.39,2.44,1.73,7.59,7.60,7.59
23.92,5.22,-2.37,5.23,-2.37,2.37,2.44,1.78,7.59,7.60,7.59
24.16,5.25,-2.35,5.25,-2.35,2.35,2.45,1.83,7.60,7.60,7.60
24.40,5.27,-2.34,5.27,-2.33,2.33,2.45,1.88,7.60,7.60,7.61
24.65,5.30,-2.31,5.28,-2.32,2.32,2.45,1.93,7.62,7.60,7.61
24.89,5.33,-2.28,5.30,-2.30,2.30,2.45,1.98,7.63,7.60,7.61
25.14,5.34,-2.26,5.31,-2.29,2.29,2.45,2.03,7.63,7.60,7.60
25.39,5.34,-2.26,5.33,-2.28,2.28,2.45,2.09,7.62,7.61,7.60
25.65,5.34,-2.26,5.34,-2.27,2.27,2.45,2.14,7.62,7.61,7.60
25.91,5.34,-2.27,5.34,-2.27,2.27,2.45,2.19,7.61,7.61,7.61
26.16,5.34,-2.28,5.35,-2.27,2.27,2.45,2.24,7.61,7.61,7.62
26.43,5.34,-2.28,5.35,-2.27,2.27,2.44,2.29,7.61,7.61,7.62
26.69,5.34,-2.28,5.35,-2.26,2.26,2.44,2.34,7.61,7.61,7.62
26.96,5.34,-2.27,5.35,-2.27,2.27,2.43,2.39,7.61,7.61,7.61
27.23,5.34,-2.27,5.34,-2.27,2.27,2.43,2.44,7.61,7.61,7.61
27.50,5.34,-2.27,5.34,-2.27,2.27,2.42,2.48,7.62,7.61,7.61
27.77,5.34,-2.28,5.33,-2.28,2.28,2.41,2.53,7.62,7.61,7.62
28.05,5.34,-2.28,5.33,-2.28,2.28,2.40,2.57,7.62,7.61,7.62
28.33,5.34,-2.26,5.33,-2.28,2.28,2.39,2.60,7.62,7.61,7.60
28.62,5.34,-2.26,5.34,-2.28,2.28,2.38,2.64,7.62,7.61,7.60
28.90,5.34,-2.27,5.34,-2.27,2.27,2.37,2.67,7.61,7.61,7.61
29.19,5.34,-2.27,5.35,-2.26,2.26,2.36,2.70,7.60,7.61,7.61
29.48,5.34,-2.26,5.35,-2.25,2.25,2.34,2.72,7.59,7.60,7.60
29.78,5.33,-2.27,5.36,-2.24,2.24,2.33,2.74,7.57,7.60,7.60
30.08,5.34,-2.27,5.37,-2.22,2.22,2.32,2.76,7.56,7.59,7.61
30.38,5.37,-2.23,5.39,-2.20,2.20,2.30,2.77,7.57,7.59,7.60
30.68,5.41,-2.17,5.40,-2.18,2.18,2.28,2.77,7.59,7.58,7.58
30.99,5.44,-2.14,5.42,-2.16,2.16,2.27,2.78,7.60,7.58,7.58
31.30,5.45,-2.12,5.44,-2.13,2.13,2.25,2.77,7.58,7.57,7.57
31.61,5.46,-2.10,5.46,-2.11,2.11,2.23,2.76,7.57,7.56,7.56
31.93,5.47,-2.08,5.47,-2.08,2.08,2.21,2.75,7.55,7.56,7.55
32.24,5.49,-2.06,5.49,-2.06,2.06,2.19,2.73,7.55,7.55,7.55
32.57,5.51,-2.02,5.50,-2.04,2.04,2.17,2.71,7.55,7.54,7.53
32.89,5.53,-2.00,5.52,-2.02,2.02,2.15,2.69,7.55,7.54,7.53
33.22,5.54,-1.99,5.53,-2.00,2.00,2.13,2.66,7.54,7.53,7.53
33.55,5.54,-1.98,5.53,-1.99,1.99,2.10,2.62,7.53,7.53,7.52
33.89,5.54,-1.99,5.54,-1.98,1.98,2.08,2.58,7.52,7.52,7.53
34.23,5.54,-1.97,5.54,-1.98,1.98,2.05,2.54,7.52,7.52,7.51
34.57,5.54,-1.97,5.54,-1.97,1.97,2.03,2.50,7.51,7.51,7.51
34.92,5.54,-1.96,5.55,-1.96,1.96,2.00,2.45,7.50,7.51,7.50
35.27,5.54,-1.97,5.55,-1.95,1.95,1.98,2.40,7.49,7.50,7.51
35.62,5.54,-1.95,5.55,-1.95,1.95,1.95,2.35,7.49,7.49,7.49
35.97,5.54,-1.95,5.54,-1.94,1.94,1.92,2.30,7.48,7.48,7.49
36.33,5.54,-1.93,5.54,-1.92,1.92,1.89,2.24,7.47,7.47,7.47
36.70,5.54,-1.92,5.54,-1.91,1.91,1.86,2.19,7.45,7.45,7.46
37.06,5.54,-1.90,5.54,-1.89,1.89,1.83,2.13,7.43,7.43,7.44
37.43,5.54,-1.88,5.54,-1.87,1.87,1.80,2.07,7.41,7.41,7.42
37.81,5.54,-1.86,5.54,-1.85,1.85,1.77,2.01,7.39,7.39,7.40
38.19,5.54,-1.83,5.54,-1.83,1.83,1.74,1.95,7.37,7.37,7.37
38.57,5.54,-1.81,5.53,-1.81,1.81,1.70,1.89,7.35,7.35,7.35
38.95,5.54,-1.78,5.53,-1.79,1.79,1.67,1.83,7.33,7.32,7.32
39.34,5.54,-1.74,5.53,-1.76,1.76,1.64,1.77,7.30,7.29,7.28
39.74,5.54,-1.72,5.54,-1.73,1.73,1.60,1.71,7.27,7.27,7.26
40.14,5.54,-1.69,5.54,-1.70,1.70,1.57,1.66,7.24,7.24,7.23
40.54,5.54,-1.67,5.55,-1.66,1.66,1.53,1.60,7.20,7.21,7.21
40.94,5.54,-1.64,5.55,-1.63,1.63,1.50,1.54,7.17,7.18,7.18
41.35,5.54,-1.62,5.56,-1.59,1.59,1.46,1.48,7.13,7.16,7.16
41.76,5.53,-1.59,5.57,-1.56,1.56,1.43,1.43,7.09,7.13,7.12
42.18,5.55,-1.55,5.58,-1.52,1.52,1.39,1.37,7.07,7.10,7.10
42.60,5.60,-1.48,5.59,-1.48,1.48,1.35,1.32,7.09,7.08,7.08
43.03,5.64,-1.41,5.60,-1.45,1.45,1.31,1.27,7.09,7.05,7.05
43.46,5.64,-1.38,5.61,-1.41,1.41,1.27,1.21,7.05,7.02,7.02
43.90,5.64,-1.36,5.62,-1.38,1.38,1.24,1.16,7.02,7.00,7.00
44.33,5.64,-1.32,5.63,-1.34,1.34,1.20,1.11,6.98,6.97,6.96
44.78,5.64,-1.29,5.63,-1.31,1.31,1.16,1.06,6.95,6.94,6.93
45.23,5.64,-1.28,5.63,-1.27,1.27,1.12,1.02,6.91,6.90,6.92
45.68,5.64,-1.23,5.64,-1.23,1.23,1.08,0.97,6.87,6.87,6.87
46.13,5.64,-1.19,5.64,-1.19,1.19,1.03,0.92,6.83,6.83,6.83
46.60,5.64,-1.16,5.65,-1.14,1.14,0.99,0.88,6.78,6.79,6.80
47.06,5.64,-1.12,5.65,-1.10,1.10,0.95,0.83,6.74,6.75,6.76
47.53,5.64,-1.09,5.66,-1.05,1.05,0.91,0.79,6.69,6.71,6.73
48.01,5.64,-1.03,5.66,-1.00,1.00,0.87,0.75,6.64,6.67,6.67
48.49,5.64,-0.98,5.67,-0.95,0.95,0.83,0.70,6.59,6.63,6.62
48.97,5.64,-0.94,5.68,-0.90,0.90,0.78,0.66,6.54,6.58,6.58
49.46,5.70,-0.84,5.69,-0.84,0.84,0.74,0.62,6.54,6.54,6.54
49.96,5.75,-0.72,5.70,-0.79,0.79,0.70,0.58,6.54,6.49,6.47
50.46,5.75,-0.68,5.71,-0.73,0.73,0.65,0.54,6.48,6.44,6.43
50.96,5.74,-0.65,5.72,-0.67,0.67,0.61,0.51,6.42,6.40,6.39
51.47,5.74,-0.61,5.73,-0.62,0.62,0.56,0.47,6.36,6.35,6.35
51.99,5.74,-0.56,5.74,-0.57,0.57,0.52,0.43,6.31,6.30,6.30
52.51,5.74,-0.52,5.74,-0.51,0.51,0.47,0.39,6.25,6.26,6.26
53.03,5.74,-0.49,5.75,-0.46,0.46,0.43,0.36,6.20,6.21,6.23
53.56,5.74,-0.43,5.75,-0.41,0.41,0.38,0.32,6.16,6.16,6.17
54.10,5.74,-0.38,5.75,-0.37,0.37,0.34,0.28,6.11,6.12,6.12
54.64,5.74,-0.34,5.75,-0.33,0.33,0.29,0.25,6.07,6.08,6.08
55.18,5.74,-0.28,5.74,-0.29,0.29,0.24,0.21,6.03,6.03,6.02
55.74,5.74,-0.23,5.74,-0.25,0.25,0.20,0.18,5.99,5.99,5.97
56.29,5.74,-0.20,5.74,-0.21,0.21,0.15,0.14,5.95,5.95,5.94
56.86,5.74,-0.16,5.74,-0.16,0.16,0.10,0.10,5.91,5.91,5.90
57.42,5.74,-0.10,5.74,-0.12,0.12,0.06,0.07,5.86,5.86,5.84
58.00,5.74,-0.07,5.74,-0.07,0.07,0.01,0.03,5.81,5.81,5.81
58.58,5.74,-0.04,5.74,-0.03,0.03,-0.04,-0.00,5.77,5.77,5.78
59.16,5.74,0.00,5.74,0.02,-0.02,-0.09,-0.04,5.72,5.72,5.74
59.76,5.74,0.04,5.74,0.07,-0.07,-0.14,-0.08,5.67,5.67,5.70
60.35,5.74,0.11,5.74,0.12,-0.12,-0.19,-0.12,5.62,5.62,5.63
60.96,5.74,0.16,5.74,0.18,-0.18,-0.23,-0.15,5.56,5.56,5.58
61.57,5.74,0.23,5.74,0.23,-0.23,-0.28,-0.19,5.51,5.51,5.51
62.18,5.74,0.30,5.74,0.29,-0.29,-0.33,-0.23,5.45,5.45,5.44
62.80,5.74,0.36,5.74,0.35,-0.35,-0.38,-0.27,5.40,5.40,5.38
63.43,5.74,0.42,5.74,0.40,-0.40,-0.43,-0.31,5.34,5.34,5.32
64.07,5.74,0.47,5.74,0.46,-0.46,-0.48,-0.35,5.28,5.28,5.27
64.71,5.74,0.53,5.74,0.52,-0.52,-0.53,-0.39,5.22,5.22,5.21
65.35,5.74,0.59,5.74,0.59,-0.59,-0.58,-0.44,5.15,5.15,5.15
66.01,5.74,0.65,5.74,0.65,-0.65,-0.64,-0.48,5.09,5.09,5.09
66.67,5.74,0.69,5.74,0.71,-0.71,-0.69,-0.52,5.03,5.03,5.05
67.33,5.74,0.77,5.74,0.77,-0.77,-0.74,-0.57,4.97,4.97,4.97
68.01,5.74,0.82,5.74,0.83,-0.83,-0.79,-0.61,4.91,4.91,4.92
68.69,5.74,0.89,5.74,0.89,-0.89,-0.84,-0.66,4.85,4.85,4.85
69.37,5.74,0.94,5.74,0.95,-0.95,-0.90,-0.71,4.79,4.79,4.80
70.07,5.74,1.01,5.74,1.01,-1.01,-0.95,-0.76,4.73,4.73,4.73
70.77,5.74,1.07,5.74,1.08,-1.08,-1.00,-0.81,4.66,4.66,4.67
71.48,5.74,1.14,5.74,1.14,-1.14,-1.05,-0.86,4.60,4.60,4.60
72.19,5.74,1.21,5.74,1.21,-1.21,-1.11,-0.91,4.53,4.53,4.53
72.91,5.74,1.27,5.74,1.27,-1.27,-1.16,-0.96,4.47,4.47,4.47
73.64,5.74,1.34,5.74,1.33,-1.33,-1.22,-1.02,4.41,4.41,4.40
74.38,5.74,1.40,5.74,1.39,-1.39,-1.27,-1.07,4.35,4.35,4.34
75.12,5.74,1.47,5.74,1.45,-1.45,-1.33,-1.13,4.29,4.29,4.27
75.87,5.74,1.51,5.74,1.51,-1.51,-1.38,-1.18,4.23,4.23,4.23
76.63,5.74,1.58,5.74,1.57,-1.57,-1.44,-1.24,4.17,4.17,4.16
77.40,5.74,1.63,5.74,1.63,-1.63,-1.49,-1.30,4.11,4.11,4.11
78.17,5.74,1.69,5.74,1.68,-1.68,-1.55,-1.36,4.06,4.06,4.05
78.95,5.74,1.73,5.74,1.74,-1.74,-1.60,-1.43,4.00,4.00,4.01
79.74,5.74,1.79,5.74,1.80,-1.80,-1.66,-1.49,3.95,3.95,3.95
80.54,5.74,1.85,5.74,1.85,-1.85,-1.72,-1.55,3.89,3.89,3.89
81.35,5.74,1.90,5.74,1.90,-1.90,-1.78,-1.62,3.84,3.84,3.84
82.16,5.74,1.95,5.74,1.96,-1.96,-1.83,-1.69,3.78,3.78,3.79
82.98,5.74,2.01,5.74,2.02,-2.02,-1.89,-1.76,3.72,3.72,3.73
83.81,5.74,2.07,5.74,2.07,-2.07,-1.95,-1.83,3.67,3.67,3.67
84.65,5.74,2.13,5.74,2.13,-2.13,-2.01,-1.90,3.61,3.61,3.61
85.50,5.74,2.20,5.74,2.19,-2.19,-2.07,-1.98,3.55,3.55,3.54
86.35,5.74,2.26,5.74,2.25,-2.25,-2.12,-2.05,3.49,3.49,3.48
87.22,5.74,2.31,5.74,2.31,-2.31,-2.18,-2.13,3.43,3.43,3.43
88.09,5.74,2.38,5.74,2.38,-2.38,-2.24,-2.21,3.36,3.37,3.36
88.97,5.74,2.43,5.75,2.44,-2.44,-2.30,-2.29,3.30,3.30,3.31
89.86,5.74,2.51,5.75,2.51,-2.51,-2.36,-2.37,3.23,3.24,3.23
90.76,5.74,2.57,5.75,2.58,-2.58,-2.43,-2.46,3.16,3.17,3.17
91.66,5.75,2.65,5.75,2.65,-2.65,-2.49,-2.54,3.10,3.10,3.10
92.58,5.75,2.71,5.75,2.72,-2.72,-2.55,-2.63,3.03,3.03,3.04
93.51,5.75,2.78,5.75,2.79,-2.79,-2.61,-2.72,2.96,2.96,2.97
94.44,5.75,2.85,5.75,2.86,-2.86,-2.67,-2.81,2.89,2.89,2.90
95.39,5.75,2.93,5.74,2.93,-2.93,-2.73,-2.90,2.82,2.81,2.82
96.34,5.74,3.00,5.74,3.01,-3.01,-2.80,-3.00,2.74,2.73,2.74
97.30,5.74,3.08,5.73,3.08,-3.08,-2.86,-3.09,2.66,2.65,2.66
98.28,5.73,3.16,5.72,3.15,-3.15,-2.92,-3.19,2.58,2.57,2.57
99.26,5.71,3.23,5.71,3.22,-3.22,-2.99,-3.28,2.49,2.49,2.48
100.25,5.70,3.30,5.70,3.29,-3.29,-3.05,-3.38,2.42,2.41,2.40
101.25,5.68,3.35,5.68,3.36,-3.36,-3.11,-3.48,2.33,2.33,2.33
102.27,5.67,3.43,5.67,3.43,-3.43,-3.18,-3.58,2.25,2.25,2.24
103.29,5.65,3.49,5.65,3.49,-3.49,-3.24,-3.68,2.16,2.16,2.16
104.32,5.63,3.54,5.63,3.55,-3.55,-3.31,-3.78,2.08,2.08,2.09
105.37,5.61,3.60,5.61,3.61,-3.61,-3.37,-3.88,2.00,2.00,2.01
106.42,5.58,3.66,5.58,3.66,-3.66,-3.44,-3.98,1.92,1.92,1.92
107.48,5.56,3.73,5.56,3.72,-3.72,-3.50,-4.08,1.85,1.84,1.83
108.56,5.54,3.77,5.53,3.77,-3.77,-3.57,-4.17,1.77,1.76,1.77
109.64,5.52,3.84,5.50,3.82,-3.82,-3.64,-4.27,1.70,1.68,1.68
110.74,5.50,3.90,5.48,3.87,-3.87,-3.70,-4.36,1.63,1.61,1.60
111.85,5.50,3.97,5.46,3.93,-3.93,-3.77,-4.45,1.57,1.53,1.53
112.97,5.43,3.97,5.44,3.98,-3.98,-3.84,-4.54,1.45,1.45,1.46
114.10,5.36,3.97,5.42,4.04,-4.04,-3.90,-4.63,1.32,1.38,1.39
115.24,5.36,4.05,5.40,4.09,-4.09,-3.97,-4.71,1.27,1.31,1.31
116.39,5.36,4.13,5.39,4.15,-4.15,-4.04,-4.79,1.21,1.24,1.23
117.55,5.37,4.20,5.38,4.21,-4.21,-4.10,-4.86,1.16,1.17,1.17
118.73,5.37,4.28,5.38,4.27,-4.27,-4.17,-4.93,1.10,1.11,1.09
119.92,5.38,4.35,5.38,4.34,-4.34,-4.24,-4.99,1.04,1.04,1.03
121.12,5.39,4.41,5.38,4.40,-4.40,-4.31,-5.05,0.99,0.98,0.98
122.33,5.39,4.48,5.38,4.47,-4.47,-4.37,-5.10,0.92,0.91,0.91
123.55,5.40,4.54,5.39,4.54,-4.54,-4.44,-5.15,0.86,0.85,0.86
124.79,5.41,4.61,5.40,4.61,-4.61,-4.51,-5.19,0.80,0.79,0.80
126.03,5.42,4.69,5.41,4.69,-4.69,-4.58,-5.23,0.74,0.73,0.73
127.29,5.42,4.75,5.42,4.76,-4.76,-4.64,-5.26,0.66,0.66,0.67
128.57,5.43,4.82,5.43,4.82,-4.82,-4.71,-5.28,0.61,0.61,0.61
129.85,5.43,4.89,5.44,4.89,-4.89,-4.78,-5.30,0.54,0.55,0.54
131.15,5.44,4.96,5.45,4.96,-4.96,-4.85,-5.32,0.48,0.49,0.48
132.46,5.44,5.02,5.45,5.03,-5.03,-4.91,-5.33,0.41,0.43,0.42
133.79,5.45,5.09,5.46,5.09,-5.09,-4.98,-5.33,0.36,0.37,0.36
135.12,5.45,5.15,5.46,5.15,-5.15,-5.05,-5.33,0.30,0.31,0.30
136.48,5.46,5.20,5.46,5.21,-5.21,-5.11,-5.33,0.25,0.25,0.26
137.84,5.46,5.26,5.46,5.27,-5.27,-5.18,-5.33,0.19,0.19,0.20
139.22,5.46,5.34,5.45,5.32,-5.32,-5.24,-5.32,0.14,0.13,0.12
140.61,5.46,5.38,5.44,5.37,-5.37,-5.31,-5.31,0.09,0.07,0.08
142.02,5.46,5.44,5.43,5.41,-5.41,-5.37,-5.30,0.05,0.02,0.02
143.44,5.46,5.51,5.41,5.45,-5.45,-5.44,-5.28,0.01,-0.04,-0.05
144.87,5.40,5.50,5.40,5.49,-5.49,-5.50,-5.27,-0.09,-0.10,-0.10
146.32,5.37,5.52,5.38,5.53,-5.53,-5.57,-5.26,-0.16,-0.15,-0.15
147.78,5.36,5.57,5.36,5.57,-5.57,-5.63,-5.24,-0.21,-0.21,-0.21
149.26,5.35,5.61,5.35,5.61,-5.61,-5.69,-5.23,-0.26,-0.26,-0.26
150.75,5.30,5.63,5.33,5.65,-5.65,-5.75,-5.22,-0.35,-0.32,-0.33
152.26,5.26,5.63,5.31,5.69,-5.69,-5.81,-5.21,-0.43,-0.38,-0.37
153.78,5.26,5.69,5.30,5.73,-5.73,-5.87,-5.20,-0.47,-0.43,-0.43
155.32,5.26,5.74,5.28,5.77,-5.77,-5.93,-5.19,-0.51,-0.49,-0.48
156.88,5.26,5.80,5.26,5.81,-5.81,-5.99,-5.19,-0.55,-0.55,-0.54
158.44,5.26,5.86,5.24,5.85,-5.85,-6.04,-5.19,-0.59,-0.61,-0.60
160.03,5.26,5.92,5.23,5.89,-5.89,-6.10,-5.19,-0.63,-0.66,-0.66
161.63,5.27,5.99,5.22,5.94,-5.94,-6.15,-5.19,-0.67,-0.72,-0.72
163.24,5.26,6.05,5.21,5.99,-5.99,-6.21,-5.20,-0.73,-0.78,-0.79
164.88,5.19,6.03,5.20,6.05,-6.05,-6.26,-5.21,-0.85,-0.84,-0.84
166.53,5.16,6.07,5.19,6.10,-6.10,-6.31,-5.23,-0.94,-0.90,-0.91
168.19,5.14,6.10,5.18,6.15,-6.15,-6.36,-5.25,-1.01,-0.96,-0.96
169.87,5.14,6.16,5.17,6.19,-6.19,-6.41,-5.27,-1.05,-1.03,-1.02
171.57,5.13,6.22,5.15,6.23,-6.23,-6.46,-5.29,-1.10,-1.08,-1.09
173.29,5.12,6.27,5.13,6.27,-6.27,-6.50,-5.32,-1.15,-1.14,-1.15
175.02,5.12,6.32,5.11,6.30,-6.30,-6.54,-5.36,-1.18,-1.20,-1.20
176.77,5.12,6.37,5.09,6.34,-6.34,-6.59,-5.40,-1.22,-1.25,-1.25
178.54,5.12,6.43,5.07,6.38,-6.38,-6.63,-5.44,-1.26,-1.31,-1.31
180.32,5.12,6.49,5.06,6.42,-6.42,-6.67,-5.49,-1.29,-1.36,-1.37
182.13,5.08,6.49,5.05,6.46,-6.46,-6.70,-5.54,-1.38,-1.41,-1.41
183.95,4.97,6.43,5.04,6.50,-6.50,-6.74,-5.59,-1.53,-1.46,-1.46
185.79,4.95,6.46,5.03,6.54,-6.54,-6.77,-5.65,-1.59,-1.51,-1.51
187.65,4.96,6.51,5.02,6.58,-6.58,-6.80,-5.71,-1.62,-1.55,-1.55
189.52,4.98,6.58,5.02,6.62,-6.62,-6.83,-5.78,-1.63,-1.60,-1.60
191.42,4.99,6.62,5.01,6.65,-6.65,-6.86,-5.85,-1.66,-1.64,-1.63
193.33,5.00,6.68,4.99,6.68,-6.68,-6.88,-5.92,-1.68,-1.69,-1.68
195.27,5.02,6.75,4.98,6.71,-6.71,-6.90,-6.00,-1.68,-1.73,-1.73
197.22,5.02,6.80,4.96,6.73,-6.73,-6.93,-6.08,-1.71,-1.77,-1.78
199.19,4.97,6.78,4.95,6.76,-6.76,-6.94,-6.16,-1.79,-1.81,-1.81
201.18,4.95,6.81,4.93,6.78,-6.78,-6.96,-6.25,-1.83,-1.85,-1.86
203.19,4.95,6.84,4.92,6.81,-6.81,-6.97,-6.34,-1.86,-1.89,-1.89
205.23,4.93,6.86,4.90,6.83,-6.83,-6.99,-6.43,-1.90,-1.93,-1.93
207.28,4.88,6.84,4.87,6.84,-6.84,-7.00,-6.52,-1.96,-1.97,-1.96
209.35,4.81,6.81,4.84,6.86,-6.86,-7.00,-6.61,-2.04,-2.01,-2.00
211.44,4.76,6.81,4.82,6.87,-6.87,-7.01,-6.71,-2.11,-2.05,-2.05
213.56,4.75,6.83,4.79,6.88,-6.88,-7.01,-6.80,-2.13,-2.09,-2.08
215.69,4.74,6.86,4.76,6.88,-6.88,-7.01,-6.89,-2.14,-2.12,-2.12
217.85,4.74,6.89,4.72,6.88,-6.88,-7.01,-6.98,-2.14,-2.16,-2.15
220.03,4.69,6.89,4.69,6.88,-6.88,-7.01,-7.07,-2.19,-2.19,-2.20
222.23,4.65,6.87,4.66,6.87,-6.87,-7.00,-7.16,-2.22,-2.22,-2.22
224.45,4.63,6.88,4.63,6.87,-6.87,-6.99,-7.24,-2.24,-2.25,-2.25
226.70,4.63,6.91,4.60,6.87,-6.87,-6.98,-7.32,-2.24,-2.27,-2.28
228.96,4.64,6.94,4.57,6.87,-6.87,-6.97,-7.39,-2.23,-2.29,-2.30
231.25,4.58,6.89,4.55,6.87,-6.87,-6.95,-7.46,-2.28,-2.31,-2.31
233.57,4.54,6.88,4.53,6.86,-6.86,-6.93,-7.52,-2.32,-2.33,-2.34
235.90,4.44,6.79,4.51,6.85,-6.85,-6.91,-7.57,-2.41,-2.34,-2.35
238.26,4.39,6.76,4.48,6.83,-6.83,-6.89,-7.62,-2.44,-2.36,-2.37
240.64,4.40,6.76,4.45,6.82,-6.82,-6.87,-7.65,-2.42,-2.37,-2.36
243.05,4.41,6.78,4.43,6.81,-6.81,-6.84,-7.67,-2.40,-2.38,-2.37
245.48,4.43,6.82,4.41,6.79,-6.79,-6.82,-7.69,-2.36,-2.38,-2.39
247.93,4.44,6.84,4.39,6.78,-6.78,-6.79,-7.69,-2.34,-2.39,-2.40
250.41,4.39,6.78,4.36,6.76,-6.76,-6.76,-7.69,-2.37,-2.40,-2.39
252.92,4.33,6.72,4.33,6.74,-6.74,-6.72,-7.67,-2.41,-2.41,-2.39
255.45,4.31,6.72,4.30,6.72,-6.72,-6.69,-7.64,-2.41,-2.42,-2.41
258.00,4.29,6.71,4.27,6.70,-6.70,-6.65,-7.61,-2.41,-2.43,-2.42
260.58,4.23,6.66,4.24,6.68,-6.68,-6.61,-7.56,-2.44,-2.43,-2.43
263.19,4.22,6.66,4.21,6.66,-6.66,-6.57,-7.50,-2.44,-2.45,-2.44
265.82,4.22,6.68,4.17,6.63,-6.63,-6.53,-7.44,-2.41,-2.46,-2.46
268.48,4.14,6.60,4.13,6.60,-6.60,-6.49,-7.36,-2.46,-2.47,-2.46
271.16,4.08,6.56,4.08,6.57,-6.57,-6.45,-7.28,-2.49,-2.48,-2.48
273.87,4.01,6.50,4.04,6.54,-6.54,-6.40,-7.19,-2.52,-2.49,-2.49
276.61,3.94,6.45,3.99,6.50,-6.50,-6.36,-7.10,-2.56,-2.51,-2.51
279.38,3.91,6.45,3.95,6.47,-6.47,-6.31,-7.00,-2.56,-2.52,-2.54
282.17,3.91,6.45,3.90,6.43,-6.43,-6.26,-6.89,-2.52,-2.53,-2.54
284.99,3.87,6.41,3.85,6.39,-6.39,-6.21,-6.79,-2.52,-2.53,-2.54
287.84,3.82,6.36,3.81,6.35,-6.35,-6.16,-6.68,-2.53,-2.54,-2.54
290.72,3.83,6.39,3.77,6.31,-6.31,-6.11,-6.56,-2.48,-2.55,-2.56
293.63,3.70,6.25,3.72,6.28,-6.28,-6.05,-6.45,-2.58,-2.55,-2.55
296.57,3.65,6.20,3.68,6.23,-6.23,-6.00,-6.33,-2.58,-2.56,-2.55
299.53,3.68,6.24,3.64,6.19,-6.19,-5.95,-6.22,-2.51,-2.56,-2.56
302.53,3.57,6.12,3.59,6.15,-6.15,-5.89,-6.10,-2.58,-2.56,-2.55
305.55,3.48,6.04,3.56,6.12,-6.12,-5.84,-5.99,-2.64,-2.56,-2.56
308.61,3.49,6.04,3.52,6.08,-6.08,-5.78,-5.88,-2.59,-2.56,-2.55
311.69,3.48,6.05,3.47,6.03,-6.03,-5.72,-5.77,-2.55,-2.57,-2.57
314.81,3.42,5.98,3.41,5.98,-5.98,-5.67,-5.66,-2.56,-2.57,-2.56
317.96,3.42,6.00,3.36,5.93,-5.93,-5.61,-5.55,-2.51,-2.57,-2.58
321.14,3.36,5.93,3.31,5.88,-5.88,-5.55,-5.44,-2.52,-2.57,-2.57
324.35,3.20,5.78,3.25,5.83,-5.83,-5.49,-5.34,-2.63,-2.58,-2.58
327.59,3.18,5.75,3.20,5.77,-5.77,-5.43,-5.24,-2.59,-2.58,-2.57
330.87,3.19,5.77,3.14,5.72,-5.72,-5.37,-5.15,-2.53,-2.58,-2.58
334.18,3.13,5.72,3.09,5.67,-5.67,-5.31,-5.05,-2.54,-2.58,-2.59
337.52,3.08,5.66,3.03,5.61,-5.61,-5.25,-4.96,-2.53,-2.58,-2.58
340.90,2.91,5.50,2.96,5.55,-5.55,-5.19,-4.88,-2.63,-2.58,-2.59
344.30,2.79,5.37,2.90,5.48,-5.48,-5.13,-4.80,-2.69,-2.58,-2.58
347.75,2.78,5.35,2.83,5.41,-5.41,-5.07,-4.72,-2.63,-2.58,-2.57
351.23,2.80,5.39,2.76,5.34,-5.34,-5.01,-4.64,-2.54,-2.57,-2.59
354.74,2.73,5.30,2.69,5.26,-5.26,-4.95,-4.57,-2.53,-2.57,-2.57
358.28,2.62,5.19,2.63,5.20,-5.20,-4.89,-4.50,-2.58,-2.57,-2.57
361.87,2.60,5.17,2.58,5.14,-5.14,-4.83,-4.43,-2.54,-2.56,-2.57
365.49,2.61,5.17,2.52,5.08,-5.08,-4.77,-4.37,-2.47,-2.56,-2.56
369.14,2.41,4.96,2.45,5.01,-5.01,-4.71,-4.31,-2.60,-2.56,-2.55
372.83,2.34,4.88,2.40,4.95,-4.95,-4.65,-4.26,-2.61,-2.55,-2.54
376.56,2.32,4.87,2.35,4.90,-4.90,-4.59,-4.21,-2.58,-2.55,-2.55
380.33,2.28,4.83,2.28,4.83,-4.83,-4.53,-4.16,-2.55,-2.55,-2.55
384.13,2.21,4.75,2.22,4.77,-4.77,-4.47,-4.11,-2.56,-2.55,-2.54
387.97,2.09,4.63,2.16,4.71,-4.71,-4.41,-4.07,-2.62,-2.55,-2.54
391.85,2.13,4.68,2.10,4.65,-4.65,-4.35,-4.03,-2.52,-2.56,-2.55
395.77,2.20,4.76,2.03,4.59,-4.59,-4.29,-3.99,-2.39,-2.56,-2.56
399.73,2.00,4.56,1.96,4.53,-4.53,-4.23,-3.96,-2.53,-2.57,-2.56
403.72,1.83,4.38,1.89,4.46,-4.46,-4.17,-3.92,-2.63,-2.57,-2.55
407.76,1.84,4.41,1.82,4.40,-4.40,-4.11,-3.89,-2.56,-2.58,-2.57
411.84,1.82,4.40,1.77,4.35,-4.35,-4.06,-3.86,-2.53,-2.58,-2.58
415.96,1.61,4.19,1.71,4.29,-4.29,-4.00,-3.84,-2.68,-2.58,-2.58
420.12,1.56,4.15,1.65,4.23,-4.23,-3.94,-3.81,-2.67,-2.57,-2.59
424.32,1.72,4.30,1.59,4.16,-4.16,-3.88,-3.79,-2.44,-2.57,-2.58
428.56,1.59,4.15,1.54,4.09,-4.09,-3.83,-3.76,-2.50,-2.55,-2.56
432.85,1.35,3.89,1.49,4.02,-4.02,-3.77,-3.74,-2.67,-2.54,-2.54
437.18,1.34,3.87,1.44,3.95,-3.95,-3.71,-3.72,-2.61,-2.51,-2.53
441.55,1.43,3.93,1.40,3.88,-3.88,-3.66,-3.70,-2.45,-2.48,-2.50
445.96,1.41,3.87,1.38,3.82,-3.82,-3.60,-3.67,-2.41,-2.44,-2.46
450.42,1.40,3.82,1.37,3.76,-3.76,-3.54,-3.65,-2.36,-2.40,-2.42
454.93,1.40,3.77,1.35,3.70,-3.70,-3.49,-3.63,-2.30,-2.35,-2.37
459.48,1.31,3.62,1.34,3.64,-3.64,-3.43,-3.61,-2.33,-2.30,-2.31
464.07,1.23,3.47,1.33,3.58,-3.58,-3.38,-3.58,-2.35,-2.25,-2.24
468.71,1.25,3.44,1.32,3.51,-3.51,-3.32,-3.56,-2.26,-2.19,-2.19
473.40,1.30,3.43,1.30,3.44,-3.44,-3.27,-3.53,-2.14,-2.14,-2.13
478.13,1.33,3.40,1.30,3.38,-3.38,-3.22,-3.50,-2.05,-2.09,-2.07
482.91,1.34,3.36,1.29,3.33,-3.33,-3.16,-3.47,-1.99,-2.04,-2.02
487.74,1.30,3.29,1.28,3.27,-3.27,-3.11,-3.43,-1.97,-1.99,-1.99
492.62,1.30,3.25,1.25,3.20,-3.20,-3.06,-3.40,-1.90,-1.95,-1.95
497.55,1.25,3.16,1.22,3.14,-3.14,-3.01,-3.36,-1.89,-1.92,-1.91
502.52,1.19,3.08,1.20,3.09,-3.09,-2.95,-3.32,-1.90,-1.89,-1.89
507.55,1.14,3.00,1.16,3.04,-3.04,-2.90,-3.28,-1.90,-1.87,-1.86
512.62,1.10,2.95,1.12,2.98,-2.98,-2.85,-3.23,-1.88,-1.86,-1.85
517.75,1.04,2.88,1.05,2.91,-2.91,-2.80,-3.19,-1.87,-1.86,-1.84
522.93,0.98,2.82,0.98,2.84,-2.84,-2.75,-3.14,-1.86,-1.86,-1.84
