frequency,raw,error,smoothed,error_smoothed,equalization,parametric_eq,fixed_band_eq,equalized_raw,equalized_smoothed,target
20.00,5.14,-2.56,5.14,-2.56,2.55,2.26,1.03,7.69,7.69,7.70
20.20,5.14,-2.55,5.14,-2.55,2.55,2.28,1.06,7.69,7.69,7.69
20.40,5.14,-2.54,5.14,-2.54,2.54,2.30,1.09,7.68,7.68,7.68
20.61,5.14,-2.54,5.14,-2.53,2.54,2.31,1.13,7.68,7.68,7.68
20.81,5.14,-2.52,5.14,-2.52,2.53,2.33,1.16,7.67,7.67,7.66
21.02,5.14,-2.52,5.14,-2.52,2.52,2.34,1.20,7.66,7.66,7.66
21.23,5.14,-2.51,5.14,-2.51,2.52,2.36,1.23,7.66,7.66,7.65
21.44,5.14,-2.52,5.14,-2.51,2.51,2.37,1.27,7.65,7.65,7.66
21.66,5.14,-2.51,5.14,-2.51,2.51,2.38,1.31,7.65,7.65,7.65
21.87,5.14,-2.50,5.14,-2.50,2.50,2.39,1.35,7.64,7.64,7.64
22.09,5.14,-2.49,5.14,-2.49,2.50,2.40,1.39,7.64,7.64,7.63
22.31,5.14,-2.49,5.14,-2.49,2.49,2.41,1.43,7.63,7.63,7.63
22.54,5.14,-2.48,5.14,-2.48,2.48,2.42,1.47,7.62,7.62,7.62
22.76,5.14,-2.47,5.14,-2.47,2.46,2.43,1.52,7.61,7.60,7.61
22.99,5.14,-2.46,5.15,-2.45,2.45,2.44,1.56,7.59,7.60,7.60
23.22,5.16,-2.43,5.16,-2.44,2.43,2.45,1.61,7.59,7.59,7.59
23.45,5.18,-2.42,5.18,-2.41,2.42,2.46,1.66,7.60,7.59,7.60
23.69,5.20,-2.39,5.20,-2.39,2.39,2.46,1.70,7.59,7.60,7.59
23.92,5.22,-2.37,5.22,-2.37,2.37,2.47,1.75,7.59,7.59,7.59
24.16,5.25,-2.35,5.25,-2.35,2.35,2.47,1.80,7.60,7.59,7.60
24.40,5.27,-2.34,5.28,-2.33,2.32,2.48,1.85,7.60,7.60,7.61
24.65,5.30,-2.31,5.30,-2.31,2.30,2.48,1.90,7.61,7.61,7.61
24.89,5.33,-2.28,5.32,-2.28,2.29,2.48,1.95,7.62,7.61,7.61
25.14,5.34,-2.26,5.34,-2.26,2.28,2.48,2.01,7.62,7.62,7.60
25.39,5.34,-2.26,5.34,-2.26,2.27,2.48,2.06,7.61,7.61,7.60
25.65,5.34,-2.26,5.34,-2.26,2.27,2.48,2.11,7.61,7.61,7.60
25.91,5.34,-2.27,5.34,-2.27,2.26,2.48,2.16,7.61,7.61,7.61
26.16,5.34,-2.28,5.34,-2.28,2.27,2.48,2.21,7.61,7.61,7.62
26.43,5.34,-2.28,5.34,-2.28,2.27,2.48,2.26,7.61,7.61,7.62
26.69,5.34,-2.28,5.34,-2.28,2.27,2.47,2.31,7.61,7.61,7.62
26.96,5.34,-2.27,5.34,-2.27,2.28,2.47,2.35,7.62,7.62,7.61
27.23,5.34,-2.27,5.34,-2.27,2.27,2.46,2.40,7.62,7.62,7.61
27.50,5.34,-2.27,5.34,-2.27,2.27,2.45,2.44,7.61,7.61,7.61
27.77,5.34,-2.28,5.34,-2.27,2.27,2.45,2.49,7.61,7.61,7.62
28.05,5.34,-2.28,5.34,-2.27,2.27,2.44,2.53,7.61,7.61,7.62
28.33,5.34,-2.26,5.34,-2.27,2.27,2.43,2.56,7.61,7.61,7.60
28.62,5.34,-2.26,5.34,-2.26,2.27,2.42,2.60,7.61,7.61,7.60
28.90,5.34,-2.27,5.34,-2.26,2.27,2.41,2.63,7.62,7.62,7.61
29.19,5.34,-2.27,5.34,-2.27,2.27,2.39,2.66,7.61,7.61,7.61
29.48,5.34,-2.26,5.34,-2.27,2.26,2.38,2.68,7.60,7.60,7.60
29.78,5.33,-2.27,5.33,-2.27,2.25,2.37,2.70,7.58,7.58,7.60
30.08,5.34,-2.27,5.35,-2.25,2.23,2.35,2.71,7.57,7.58,7.61
30.38,5.37,-2.23,5.37,-2.22,2.21,2.34,2.72,7.58,7.59,7.60
30.68,5.41,-2.17,5.41,-2.18,2.19,2.32,2.73,7.60,7.60,7.58
30.99,5.44,-2.14,5.43,-2.14,2.16,2.30,2.73,7.60,7.60,7.58
31.30,5.45,-2.12,5.45,-2.12,2.13,2.28,2.73,7.58,7.58,7.57
31.61,5.46,-2.10,5.46,-2.10,2.10,2.26,2.72,7.56,7.56,7.56
31.93,5.47,-2.08,5.47,-2.08,2.07,2.24,2.71,7.54,7.54,7.55
32.24,5.49,-2.06,5.49,-2.05,2.05,2.22,2.69,7.54,7.54,7.55
32.57,5.51,-2.02,5.51,-2.03,2.03,2.20,2.67,7.54,7.54,7.53
32.89,5.53,-2.00,5.53,-2.00,2.01,2.18,2.65,7.54,7.54,7.53
33.22,5.54,-1.99,5.54,-1.99,2.00,2.15,2.62,7.54,7.54,7.53
33.55,5.54,-1.98,5.54,-1.98,1.99,2.13,2.58,7.53,7.53,7.52
33.89,5.54,-1.99,5.54,-1.98,1.98,2.10,2.55,7.52,7.52,7.53
34.23,5.54,-1.97,5.54,-1.97,1.97,2.08,2.51,7.51,7.51,7.51
34.57,5.54,-1.97,5.54,-1.97,1.97,2.05,2.46,7.51,7.51,7.51
34.92,5.54,-1.96,5.54,-1.96,1.96,2.02,2.42,7.50,7.50,7.50
35.27,5.54,-1.97,5.54,-1.96,1.96,2.00,2.37,7.50,7.50,7.51
35.62,5.54,-1.95,5.54,-1.95,1.95,1.97,2.32,7.49,7.49,7.49
35.97,5.54,-1.95,5.54,-1.95,1.94,1.94,2.26,7.48,7.48,7.49
36.33,5.54,-1.93,5.54,-1.93,1.93,1.91,2.21,7.47,7.47,7.47
36.70,5.54,-1.92,5.54,-1.92,1.92,1.88,2.15,7.46,7.46,7.46
37.06,5.54,-1.90,5.54,-1.90,1.90,1.85,2.09,7.44,7.44,7.44
37.43,5.54,-1.88,5.54,-1.88,1.88,1.81,2.04,7.42,7.42,7.42
37.81,5.54,-1.86,5.54,-1.86,1.86,1.78,1.98,7.40,7.40,7.40
38.19,5.54,-1.83,5.54,-1.83,1.83,1.75,1.92,7.37,7.37,7.37
38.57,5.54,-1.81,5.54,-1.81,1.80,1.71,1.86,7.34,7.34,7.35
38.95,5.54,-1.78,5.54,-1.78,1.78,1.68,1.80,7.32,7.32,7.32
39.34,5.54,-1.74,5.54,-1.75,1.75,1.65,1.74,7.29,7.29,7.28
39.74,5.54,-1.72,5.54,-1.72,1.73,1.61,1.68,7.27,7.27,7.26
40.14,5.54,-1.69,5.54,-1.69,1.70,1.57,1.62,7.24,7.24,7.23
40.54,5.54,-1.67,5.54,-1.67,1.67,1.54,1.56,7.21,7.21,7.21
40.94,5.54,-1.64,5.54,-1.64,1.64,1.50,1.51,7.18,7.18,7.18
41.35,5.54,-1.62,5.53,-1.62,1.60,1.46,1.45,7.14,7.14,7.16
41.76,5.53,-1.59,5.54,-1.59,1.56,1.43,1.39,7.10,7.10,7.12
42.18,5.55,-1.55,5.56,-1.54,1.52,1.39,1.34,7.08,7.09,7.10
42.60,5.60,-1.48,5.60,-1.48,1.48,1.35,1.28,7.08,7.08,7.08
43.03,5.64,-1.41,5.63,-1.42,1.44,1.31,1.23,7.08,7.07,7.05
43.46,5.64,-1.38,5.64,-1.38,1.40,1.27,1.17,7.04,7.04,7.02
43.90,5.64,-1.36,5.64,-1.35,1.36,1.23,1.12,7.00,7.01,7.00
44.33,5.64,-1.32,5.64,-1.32,1.32,1.19,1.07,6.96,6.96,6.96
44.78,5.64,-1.29,5.64,-1.30,1.29,1.15,1.02,6.93,6.93,6.93
45.23,5.64,-1.28,5.64,-1.26,1.26,1.11,0.97,6.90,6.90,6.92
45.68,5.64,-1.23,5.64,-1.23,1.23,1.07,0.92,6.87,6.87,6.87
46.13,5.64,-1.19,5.64,-1.20,1.20,1.03,0.88,6.84,6.84,6.83
46.60,5.64,-1.16,5.64,-1.16,1.17,0.99,0.83,6.81,6.81,6.80
47.06,5.64,-1.12,5.64,-1.12,1.12,0.95,0.78,6.77,6.77,6.76
47.53,5.64,-1.09,5.64,-1.08,1.08,0.90,0.74,6.72,6.72,6.73
48.01,5.64,-1.03,5.64,-1.04,1.02,0.86,0.69,6.66,6.65,6.67
48.49,5.64,-0.98,5.64,-0.99,0.96,0.82,0.65,6.60,6.60,6.62
48.97,5.64,-0.94,5.66,-0.91,0.90,0.78,0.61,6.54,6.56,6.58
49.46,5.70,-0.84,5.70,-0.83,0.84,0.73,0.57,6.54,6.53,6.54
49.96,5.75,-0.72,5.73,-0.75,0.77,0.69,0.52,6.52,6.50,6.47
50.46,5.75,-0.68,5.75,-0.68,0.71,0.65,0.48,6.46,6.46,6.43
50.96,5.74,-0.65,5.75,-0.64,0.66,0.60,0.44,6.40,6.41,6.39
51.47,5.74,-0.61,5.74,-0.60,0.60,0.56,0.40,6.34,6.35,6.35
51.99,5.74,-0.56,5.74,-0.57,0.56,0.51,0.36,6.30,6.29,6.30
52.51,5.74,-0.52,5.74,-0.52,0.51,0.47,0.32,6.25,6.25,6.26
53.03,5.74,-0.49,5.74,-0.48,0.47,0.42,0.29,6.21,6.21,6.23
53.56,5.74,-0.43,5.74,-0.43,0.43,0.38,0.25,6.17,6.17,6.17
54.10,5.74,-0.38,5.74,-0.38,0.38,0.33,0.21,6.12,6.12,6.12
54.64,5.74,-0.34,5.74,-0.33,0.33,0.29,0.17,6.08,6.08,6.08
55.18,5.74,-0.28,5.74,-0.28,0.29,0.24,0.14,6.03,6.03,6.02
55.74,5.74,-0.23,5.74,-0.24,0.24,0.20,0.10,5.98,5.98,5.97
56.29,5.74,-0.20,5.74,-0.19,0.20,0.15,0.06,5.94,5.94,5.94
56.86,5.74,-0.16,5.74,-0.15,0.16,0.10,0.02,5.90,5.90,5.90
57.42,5.74,-0.10,5.74,-0.11,0.12,0.06,-0.01,5.86,5.86,5.84
58.00,5.74,-0.07,5.74,-0.07,0.08,0.01,-0.05,5.82,5.82,5.81
58.58,5.74,-0.04,5.74,-0.04,0.03,-0.04,-0.09,5.77,5.77,5.78
59.16,5.74,0.00,5.74,0.00,-0.01,-0.09,-0.13,5.73,5.73,5.74
59.76,5.74,0.04,5.74,0.05,-0.06,-0.13,-0.16,5.68,5.68,5.70
60.35,5.74,0.11,5.74,0.10,-0.11,-0.18,-0.20,5.63,5.63,5.63
60.96,5.74,0.16,5.74,0.17,-0.17,-0.23,-0.24,5.57,5.57,5.58
61.57,5.74,0.23,5.74,0.23,-0.23,-0.28,-0.28,5.51,5.51,5.51
62.18,5.74,0.30,5.74,0.30,-0.29,-0.33,-0.32,5.45,5.45,5.44
62.80,5.74,0.36,5.74,0.36,-0.35,-0.38,-0.36,5.39,5.39,5.38
63.43,5.74,0.42,5.74,0.42,-0.41,-0.42,-0.40,5.33,5.33,5.32
64.07,5.74,0.47,5.74,0.47,-0.47,-0.47,-0.44,5.27,5.27,5.27
64.71,5.74,0.53,5.74,0.53,-0.53,-0.52,-0.48,5.21,5.21,5.21
65.35,5.74,0.59,5.74,0.59,-0.59,-0.57,-0.52,5.15,5.15,5.15
66.01,5.74,0.65,5.74,0.65,-0.65,-0.62,-0.57,5.09,5.09,5.09
66.67,5.74,0.69,5.74,0.70,-0.70,-0.67,-0.61,5.04,5.04,5.05
67.33,5.74,0.77,5.74,0.76,-0.76,-0.72,-0.65,4.98,4.98,4.97
68.01,5.74,0.82,5.74,0.82,-0.82,-0.77,-0.70,4.92,4.92,4.92
68.69,5.74,0.89,5.74,0.89,-0.88,-0.83,-0.74,4.86,4.86,4.85
69.37,5.74,0.94,5.74,0.95,-0.95,-0.88,-0.79,4.79,4.79,4.80
70.07,5.74,1.01,5.74,1.01,-1.01,-0.93,-0.84,4.73,4.73,4.73
70.77,5.74,1.07,5.74,1.07,-1.08,-0.98,-0.89,4.66,4.66,4.67
71.48,5.74,1.14,5.74,1.14,-1.14,-1.03,-0.94,4.60,4.60,4.60
72.19,5.74,1.21,5.74,1.21,-1.21,-1.08,-0.99,4.53,4.53,4.53
72.91,5.74,1.27,5.74,1.27,-1.27,-1.14,-1.04,4.47,4.47,4.47
73.64,5.74,1.34,5.74,1.34,-1.34,-1.19,-1.09,4.40,4.40,4.40
74.38,5.74,1.40,5.74,1.40,-1.40,-1.24,-1.14,4.34,4.34,4.34
75.12,5.74,1.47,5.74,1.46,-1.46,-1.30,-1.20,4.28,4.28,4.27
75.87,5.74,1.51,5.74,1.52,-1.52,-1.35,-1.25,4.22,4.22,4.23
76.63,5.74,1.58,5.74,1.58,-1.58,-1.40,-1.31,4.16,4.16,4.16
77.40,5.74,1.63,5.74,1.63,-1.63,-1.46,-1.37,4.11,4.11,4.11
78.17,5.74,1.69,5.74,1.69,-1.69,-1.51,-1.43,4.06,4.06,4.05
78.95,5.74,1.73,5.74,1.74,-1.74,-1.57,-1.49,4.00,4.00,4.01
79.74,5.74,1.79,5.74,1.79,-1.79,-1.62,-1.55,3.95,3.95,3.95
80.54,5.74,1.85,5.74,1.85,-1.85,-1.68,-1.61,3.90,3.90,3.89
81.35,5.74,1.90,5.74,1.90,-1.90,-1.74,-1.68,3.84,3.84,3.84
82.16,5.74,1.95,5.74,1.95,-1.96,-1.79,-1.74,3.78,3.78,3.79
82.98,5.74,2.01,5.74,2.01,-2.01,-1.85,-1.81,3.73,3.73,3.73
83.81,5.74,2.07,5.74,2.07,-2.07,-1.91,-1.88,3.67,3.67,3.67
84.65,5.74,2.13,5.74,2.14,-2.13,-1.96,-1.95,3.61,3.61,3.61
85.50,5.74,2.20,5.74,2.20,-2.19,-2.02,-2.02,3.55,3.55,3.54
86.35,5.74,2.26,5.74,2.26,-2.25,-2.08,-2.10,3.49,3.49,3.48
87.22,5.74,2.31,5.74,2.32,-2.32,-2.14,-2.17,3.43,3.43,3.43
88.09,5.74,2.38,5.74,2.38,-2.38,-2.20,-2.25,3.36,3.36,3.36
88.97,5.74,2.43,5.74,2.44,-2.44,-2.26,-2.33,3.30,3.30,3.31
89.86,5.74,2.51,5.74,2.51,-2.51,-2.32,-2.41,3.23,3.23,3.23
90.76,5.74,2.57,5.74,2.57,-2.57,-2.37,-2.50,3.17,3.17,3.17
91.66,5.75,2.65,5.75,2.65,-2.64,-2.44,-2.58,3.11,3.11,3.10
92.58,5.75,2.71,5.75,2.71,-2.71,-2.50,-2.67,3.04,3.04,3.04
93.51,5.75,2.78,5.75,2.78,-2.78,-2.56,-2.75,2.97,2.97,2.97
94.44,5.75,2.85,5.75,2.85,-2.86,-2.62,-2.84,2.89,2.89,2.90
95.39,5.75,2.93,5.75,2.93,-2.93,-2.68,-2.93,2.82,2.82,2.82
96.34,5.74,3.00,5.75,3.00,-3.01,-2.74,-3.03,2.73,2.74,2.74
97.30,5.74,3.08,5.74,3.08,-3.08,-2.80,-3.12,2.66,2.66,2.66
98.28,5.73,3.16,5.73,3.16,-3.15,-2.87,-3.21,2.58,2.57,2.57
99.26,5.71,3.23,5.71,3.23,-3.22,-2.93,-3.31,2.49,2.49,2.48
100.25,5.70,3.30,5.70,3.30,-3.29,-2.99,-3.41,2.41,2.41,2.40
101.25,5.68,3.35,5.68,3.36,-3.36,-3.06,-3.51,2.32,2.32,2.33
102.27,5.67,3.43,5.67,3.43,-3.42,-3.12,-3.60,2.25,2.24,2.24
103.29,5.65,3.49,5.65,3.49,-3.49,-3.19,-3.70,2.17,2.17,2.16
104.32,5.63,3.54,5.63,3.54,-3.55,-3.25,-3.80,2.08,2.08,2.09
105.37,5.61,3.60,5.61,3.60,-3.61,-3.32,-3.90,2.00,2.00,2.01
106.42,5.58,3.66,5.58,3.66,-3.67,-3.38,-4.00,1.91,1.91,1.92
107.48,5.56,3.73,5.56,3.72,-3.73,-3.45,-4.10,1.83,1.83,1.83
108.56,5.54,3.77,5.54,3.78,-3.78,-3.51,-4.19,1.76,1.76,1.77
109.64,5.52,3.84,5.53,3.85,-3.83,-3.58,-4.29,1.69,1.70,1.68
110.74,5.50,3.90,5.51,3.90,-3.88,-3.65,-4.38,1.62,1.63,1.60
111.85,5.50,3.97,5.47,3.94,-3.92,-3.71,-4.47,1.58,1.55,1.53
112.97,5.43,3.97,5.43,3.97,-3.97,-3.78,-4.56,1.46,1.45,1.46
114.10,5.36,3.97,5.39,4.00,-4.03,-3.85,-4.64,1.33,1.36,1.39
115.24,5.36,4.05,5.36,4.05,-4.08,-3.91,-4.72,1.28,1.28,1.31
116.39,5.36,4.13,5.36,4.12,-4.14,-3.98,-4.80,1.22,1.22,1.23
117.55,5.37,4.20,5.37,4.21,-4.20,-4.05,-4.87,1.17,1.17,1.17
118.73,5.37,4.28,5.37,4.28,-4.26,-4.12,-4.94,1.11,1.11,1.09
119.92,5.38,4.35,5.38,4.35,-4.33,-4.19,-5.00,1.05,1.05,1.03
121.12,5.39,4.41,5.39,4.41,-4.41,-4.26,-5.06,0.98,0.98,0.98
122.33,5.39,4.48,5.39,4.48,-4.48,-4.32,-5.11,0.91,0.91,0.91
123.55,5.40,4.54,5.40,4.54,-4.55,-4.39,-5.16,0.85,0.85,0.86
124.79,5.41,4.61,5.41,4.61,-4.62,-4.46,-5.20,0.79,0.79,0.80
126.03,5.42,4.69,5.42,4.68,-4.69,-4.53,-5.24,0.74,0.73,0.73
127.29,5.42,4.75,5.42,4.75,-4.75,-4.60,-5.27,0.67,0.67,0.67
128.57,5.43,4.82,5.43,4.82,-4.82,-4.67,-5.29,0.61,0.61,0.61
129.85,5.43,4.89,5.43,4.89,-4.89,-4.74,-5.31,0.54,0.54,0.54
131.15,5.44,4.96,5.44,4.96,-4.96,-4.81,-5.32,0.48,0.48,0.48
132.46,5.44,5.02,5.44,5.03,-5.02,-4.88,-5.33,0.42,0.42,0.42
133.79,5.45,5.09,5.45,5.09,-5.09,-4.94,-5.34,0.36,0.36,0.36
135.12,5.45,5.15,5.45,5.15,-5.15,-5.01,-5.34,0.30,0.30,0.30
136.48,5.46,5.20,5.46,5.21,-5.21,-5.08,-5.34,0.25,0.24,0.26
137.84,5.46,5.26,5.46,5.27,-5.27,-5.15,-5.33,0.19,0.19,0.20
139.22,5.46,5.34,5.46,5.33,-5.33,-5.22,-5.33,0.13,0.13,0.12
140.61,5.46,5.38,5.47,5.39,-5.38,-5.28,-5.32,0.08,0.08,0.08
142.02,5.46,5.44,5.46,5.45,-5.43,-5.35,-5.30,0.03,0.03,0.02
143.44,5.46,5.51,5.44,5.48,-5.47,-5.42,-5.29,-0.01,-0.03,-0.05
144.87,5.40,5.50,5.41,5.51,-5.51,-5.48,-5.28,-0.11,-0.10,-0.10
146.32,5.37,5.52,5.38,5.54,-5.54,-5.55,-5.26,-0.17,-0.15,-0.15
147.78,5.36,5.57,5.36,5.57,-5.57,-5.61,-5.25,-0.21,-0.21,-0.21
149.26,5.35,5.61,5.33,5.60,-5.60,-5.68,-5.24,-0.24,-0.26,-0.26
150.75,5.30,5.63,5.30,5.63,-5.63,-5.74,-5.23,-0.33,-0.32,-0.33
152.26,5.26,5.63,5.28,5.65,-5.66,-5.81,-5.22,-0.40,-0.39,-0.37
153.78,5.26,5.69,5.26,5.69,-5.71,-5.87,-5.21,-0.45,-0.45,-0.43
155.32,5.26,5.74,5.26,5.74,-5.76,-5.93,-5.20,-0.50,-0.50,-0.48
156.88,5.26,5.80,5.26,5.80,-5.81,-5.99,-5.20,-0.55,-0.55,-0.54
158.44,5.26,5.86,5.26,5.86,-5.86,-6.05,-5.19,-0.60,-0.60,-0.60
160.03,5.26,5.92,5.27,5.93,-5.91,-6.11,-5.19,-0.65,-0.64,-0.66
161.63,5.27,5.99,5.26,5.99,-5.96,-6.17,-5.20,-0.69,-0.69,-0.72
163.24,5.26,6.05,5.24,6.03,-6.00,-6.22,-5.21,-0.74,-0.76,-0.79
164.88,5.19,6.03,5.20,6.05,-6.05,-6.28,-5.22,-0.86,-0.84,-0.84
166.53,5.16,6.07,5.17,6.07,-6.09,-6.33,-5.23,-0.93,-0.92,-0.91
168.19,5.14,6.10,5.14,6.11,-6.13,-6.38,-5.25,-0.99,-0.99,-0.96
169.87,5.14,6.16,5.13,6.16,-6.18,-6.43,-5.27,-1.04,-1.04,-1.02
171.57,5.13,6.22,5.13,6.22,-6.23,-6.48,-5.30,-1.10,-1.10,-1.09
173.29,5.12,6.27,5.12,6.27,-6.28,-6.53,-5.33,-1.15,-1.15,-1.15
175.02,5.12,6.32,5.12,6.32,-6.32,-6.58,-5.36,-1.20,-1.20,-1.20
176.77,5.12,6.37,5.12,6.38,-6.36,-6.62,-5.40,-1.24,-1.24,-1.25
178.54,5.12,6.43,5.13,6.44,-6.40,-6.66,-5.44,-1.28,-1.27,-1.31
180.32,5.12,6.49,5.10,6.47,-6.43,-6.70,-5.49,-1.31,-1.32,-1.37
182.13,5.08,6.49,5.06,6.47,-6.46,-6.74,-5.54,-1.37,-1.40,-1.41
183.95,4.97,6.43,5.00,6.46,-6.48,-6.78,-5.60,-1.51,-1.48,-1.46
185.79,4.95,6.46,4.96,6.47,-6.51,-6.82,-5.65,-1.56,-1.55,-1.51
187.65,4.96,6.51,4.95,6.51,-6.55,-6.85,-5.72,-1.59,-1.59,-1.55
189.52,4.98,6.58,4.97,6.57,-6.59,-6.88,-5.78,-1.60,-1.61,-1.60
191.42,4.99,6.62,4.99,6.63,-6.63,-6.91,-5.85,-1.64,-1.63,-1.63
193.33,5.00,6.68,5.01,6.69,-6.67,-6.93,-5.93,-1.67,-1.66,-1.68
195.27,5.02,6.75,5.01,6.74,-6.72,-6.96,-6.00,-1.70,-1.71,-1.73
197.22,5.02,6.80,5.00,6.78,-6.76,-6.98,-6.09,-1.74,-1.76,-1.78
199.19,4.97,6.78,4.98,6.80,-6.80,-7.00,-6.17,-1.83,-1.81,-1.81
201.18,4.95,6.81,4.96,6.82,-6.82,-7.02,-6.25,-1.86,-1.85,-1.86
203.19,4.95,6.84,4.94,6.84,-6.83,-7.03,-6.34,-1.88,-1.88,-1.89
205.23,4.93,6.86,4.92,6.85,-6.83,-7.04,-6.43,-1.90,-1.91,-1.93
207.28,4.88,6.84,4.87,6.84,-6.84,-7.05,-6.52,-1.96,-1.96,-1.96
209.35,4.81,6.81,4.82,6.82,-6.84,-7.06,-6.62,-2.03,-2.02,-2.00
211.44,4.76,6.81,4.77,6.82,-6.84,-7.06,-6.71,-2.08,-2.07,-2.05
213.56,4.75,6.83,4.75,6.83,-6.85,-7.07,-6.80,-2.10,-2.10,-2.08
215.69,4.74,6.86,4.74,6.86,-6.86,-7.07,-6.90,-2.12,-2.11,-2.12
217.85,4.74,6.89,4.72,6.88,-6.87,-7.06,-6.99,-2.13,-2.14,-2.15
220.03,4.69,6.89,4.69,6.88,-6.88,-7.06,-7.08,-2.19,-2.19,-2.20
222.23,4.65,6.87,4.66,6.88,-6.90,-7.05,-7.16,-2.25,-2.24,-2.22
224.45,4.63,6.88,4.64,6.89,-6.90,-7.04,-7.24,-2.27,-2.26,-2.25
226.70,4.63,6.91,4.63,6.91,-6.90,-7.03,-7.32,-2.26,-2.26,-2.28
228.96,4.64,6.94,4.62,6.92,-6.88,-7.01,-7.40,-2.24,-2.26,-2.30
231.25,4.58,6.89,4.59,6.90,-6.86,-6.99,-7.46,-2.28,-2.28,-2.31
233.57,4.54,6.88,4.52,6.86,-6.85,-6.98,-7.52,-2.31,-2.33,-2.34
235.90,4.44,6.79,4.45,6.80,-6.84,-6.95,-7.57,-2.40,-2.38,-2.35
238.26,4.39,6.76,4.41,6.77,-6.82,-6.93,-7.62,-2.43,-2.41,-2.37
240.64,4.40,6.76,4.39,6.76,-6.81,-6.90,-7.65,-2.41,-2.42,-2.36
243.05,4.41,6.78,4.41,6.79,-6.79,-6.87,-7.68,-2.38,-2.38,-2.37
245.48,4.43,6.82,4.43,6.82,-6.78,-6.84,-7.69,-2.35,-2.35,-2.39
247.93,4.44,6.84,4.42,6.81,-6.77,-6.81,-7.70,-2.33,-2.35,-2.40
250.41,4.39,6.78,4.39,6.78,-6.76,-6.78,-7.69,-2.37,-2.37,-2.39
252.92,4.33,6.72,4.35,6.75,-6.75,-6.74,-7.67,-2.42,-2.40,-2.39
255.45,4.31,6.72,4.31,6.71,-6.74,-6.70,-7.65,-2.43,-2.43,-2.41
258.00,4.29,6.71,4.27,6.69,-6.72,-6.66,-7.61,-2.43,-2.45,-2.42
260.58,4.23,6.66,4.25,6.69,-6.69,-6.62,-7.56,-2.46,-2.43,-2.43
263.19,4.22,6.66,4.23,6.67,-6.65,-6.58,-7.51,-2.43,-2.43,-2.44
265.82,4.22,6.68,4.19,6.65,-6.62,-6.53,-7.44,-2.40,-2.43,-2.46
268.48,4.14,6.60,4.15,6.62,-6.59,-6.49,-7.37,-2.45,-2.44,-2.46
271.16,4.08,6.56,4.08,6.56,-6.56,-6.44,-7.28,-2.48,-2.48,-2.48
273.87,4.01,6.50,4.00,6.50,-6.53,-6.39,-7.20,-2.52,-2.53,-2.49
276.61,3.94,6.45,3.96,6.47,-6.50,-6.34,-7.10,-2.56,-2.54,-2.51
279.38,3.91,6.45,3.92,6.45,-6.46,-6.29,-7.00,-2.55,-2.54,-2.54
282.17,3.91,6.45,3.89,6.43,-6.43,-6.24,-6.90,-2.52,-2.54,-2.54
284.99,3.87,6.41,3.88,6.42,-6.40,-6.18,-6.79,-2.53,-2.52,-2.54
287.84,3.82,6.36,3.84,6.39,-6.36,-6.13,-6.68,-2.54,-2.52,-2.54
290.72,3.83,6.39,3.78,6.33,-6.32,-6.07,-6.57,-2.49,-2.54,-2.56
293.63,3.70,6.25,3.73,6.29,-6.28,-6.02,-6.45,-2.58,-2.54,-2.55
296.57,3.65,6.20,3.69,6.24,-6.23,-5.96,-6.34,-2.58,-2.54,-2.55
299.53,3.68,6.24,3.62,6.17,-6.19,-5.90,-6.22,-2.51,-2.57,-2.56
302.53,3.57,6.12,3.57,6.13,-6.15,-5.84,-6.11,-2.58,-2.57,-2.55
305.55,3.48,6.04,3.53,6.08,-6.10,-5.79,-5.99,-2.62,-2.58,-2.56
308.61,3.49,6.04,3.47,6.03,-6.06,-5.73,-5.88,-2.57,-2.59,-2.55
311.69,3.48,6.05,3.46,6.02,-6.02,-5.67,-5.77,-2.54,-2.56,-2.57
314.81,3.42,5.98,3.45,6.02,-5.98,-5.60,-5.66,-2.56,-2.52,-2.56
317.96,3.42,6.00,3.40,5.97,-5.94,-5.54,-5.55,-2.52,-2.55,-2.58
321.14,3.36,5.93,3.32,5.89,-5.90,-5.48,-5.45,-2.54,-2.58,-2.57
324.35,3.20,5.78,3.26,5.83,-5.86,-5.42,-5.34,-2.65,-2.60,-2.58
327.59,3.18,5.75,3.19,5.77,-5.80,-5.36,-5.24,-2.62,-2.60,-2.57
330.87,3.19,5.77,3.17,5.75,-5.73,-5.30,-5.15,-2.54,-2.57,-2.58
334.18,3.13,5.72,3.14,5.72,-5.66,-5.23,-5.06,-2.53,-2.53,-2.59
337.52,3.08,5.66,3.04,5.63,-5.59,-5.17,-4.97,-2.51,-2.55,-2.58
340.90,2.91,5.50,2.92,5.50,-5.53,-5.11,-4.88,-2.62,-2.61,-2.59
344.30,2.79,5.37,2.84,5.42,-5.47,-5.05,-4.80,-2.68,-2.63,-2.58
347.75,2.78,5.35,2.79,5.37,-5.41,-4.98,-4.72,-2.63,-2.62,-2.57
351.23,2.80,5.39,2.76,5.33,-5.34,-4.92,-4.64,-2.54,-2.59,-2.59
354.74,2.73,5.30,2.71,5.29,-5.27,-4.86,-4.57,-2.54,-2.56,-2.57
358.28,2.62,5.19,2.68,5.25,-5.21,-4.79,-4.50,-2.59,-2.53,-2.57
361.87,2.60,5.17,2.61,5.17,-5.14,-4.73,-4.44,-2.54,-2.54,-2.57
365.49,2.61,5.17,2.53,5.09,-5.08,-4.67,-4.37,-2.47,-2.55,-2.56
369.14,2.41,4.96,2.45,5.01,-5.01,-4.61,-4.31,-2.60,-2.55,-2.55
372.83,2.34,4.88,2.37,4.92,-4.94,-4.55,-4.26,-2.60,-2.57,-2.54
376.56,2.32,4.87,2.31,4.85,-4.88,-4.48,-4.21,-2.56,-2.57,-2.55
380.33,2.28,4.83,2.26,4.80,-4.82,-4.42,-4.16,-2.54,-2.57,-2.55
384.13,2.21,4.75,2.19,4.73,-4.77,-4.36,-4.11,-2.56,-2.58,-2.54
387.97,2.09,4.63,2.17,4.71,-4.71,-4.30,-4.07,-2.62,-2.55,-2.54
391.85,2.13,4.68,2.15,4.70,-4.65,-4.24,-4.03,-2.52,-2.51,-2.55
395.77,2.20,4.76,2.09,4.64,-4.60,-4.18,-3.99,-2.40,-2.51,-2.56
399.73,2.00,4.56,2.01,4.57,-4.54,-4.12,-3.96,-2.54,-2.53,-2.56
403.72,1.83,4.38,1.93,4.49,-4.48,-4.06,-3.92,-2.65,-2.56,-2.55
407.76,1.84,4.41,1.81,4.38,-4.42,-4.00,-3.89,-2.58,-2.61,-2.57
411.84,1.82,4.40,1.72,4.30,-4.35,-3.94,-3.86,-2.53,-2.63,-2.58
415.96,1.61,4.19,1.69,4.27,-4.28,-3.88,-3.84,-2.66,-2.59,-2.58
420.12,1.56,4.15,1.66,4.24,-4.20,-3.82,-3.81,-2.64,-2.54,-2.59
424.32,1.72,4.30,1.60,4.17,-4.14,-3.76,-3.79,-2.42,-2.54,-2.58
428.56,1.59,4.15,1.53,4.10,-4.08,-3.70,-3.76,-2.49,-2.55,-2.56
432.85,1.35,3.89,1.46,4.00,-4.03,-3.65,-3.74,-2.68,-2.57,-2.54
437.18,1.34,3.87,1.37,3.90,-3.97,-3.59,-3.72,-2.63,-2.60,-2.53
441.55,1.43,3.93,1.37,3.87,-3.90,-3.53,-3.70,-2.47,-2.53,-2.50
445.96,1.41,3.87,1.42,3.88,-3.83,-3.48,-3.67,-2.42,-2.41,-2.46
450.42,1.40,3.82,1.42,3.84,-3.76,-3.42,-3.65,-2.36,-2.34,-2.42
454.93,1.40,3.77,1.36,3.73,-3.69,-3.37,-3.63,-2.29,-2.33,-2.37
459.48,1.31,3.62,1.31,3.62,-3.63,-3.31,-3.61,-2.32,-2.32,-2.31
464.07,1.23,3.47,1.27,3.52,-3.57,-3.26,-3.58,-2.34,-2.30,-2.24
468.71,1.25,3.44,1.26,3.44,-3.51,-3.20,-3.56,-2.26,-2.25,-2.19
473.40,1.30,3.43,1.29,3.42,-3.44,-3.15,-3.53,-2.14,-2.15,-2.13
478.13,1.33,3.40,1.32,3.40,-3.38,-3.10,-3.50,-2.05,-2.06,-2.07
482.91,1.34,3.36,1.33,3.36,-3.32,-3.04,-3.47,-1.98,-1.99,-2.02
487.74,1.30,3.29,1.32,3.30,-3.27,-2.99,-3.44,-1.97,-1.95,-1.99
492.62,1.30,3.25,1.29,3.24,-3.21,-2.94,-3.40,-1.91,-1.92,-1.95
497.55,1.25,3.16,1.25,3.16,-3.15,-2.89,-3.36,-1.90,-1.91,-1.91
502.52,1.19,3.08,1.20,3.09,-3.09,-2.84,-3.32,-1.90,-1.89,-1.89
507.55,1.14,3.00,1.14,3.01,-3.03,-2.78,-3.28,-1.89,-1.88,-1.86
512.62,1.10,2.95,1.10,2.94,-2.97,-2.73,-3.23,-1.87,-1.87,-1.85
517.75,1.04,2.88,1.03,2.87,-2.91,-2.68,-3.19,-1.87,-1.88,-1.84
522.93,0.98,2.82,0.99,2.83,-2.85,-2.63,-3.14,-1.87,-1.86,-1.84
