frequency,raw,error,smoothed,error_smoothed,equalization,parametric_eq,fixed_band_eq,equalized_raw,equalized_smoothed,target
20.00,4.26,-6.79,4.26,-6.79,6.79,6.39,2.14,11.05,11.05,11.05
20.20,4.32,-6.72,4.32,-6.72,6.72,6.35,2.20,11.04,11.04,11.04
20.40,4.38,-6.65,4.38,-6.65,6.65,6.32,2.26,11.02,11.02,11.03
20.61,4.44,-6.58,4.44,-6.58,6.58,6.29,2.32,11.01,11.01,11.02
20.81,4.50,-6.50,4.50,-6.50,6.50,6.25,2.39,11.00,11.00,11.00
21.02,4.57,-6.42,4.56,-6.43,6.43,6.22,2.46,11.00,10.99,10.99
21.23,4.63,-6.35,4.63,-6.36,6.36,6.18,2.53,10.99,10.99,10.98
21.44,4.69,-6.30,4.69,-6.29,6.29,6.14,2.60,10.98,10.98,10.99
21.66,4.75,-6.22,4.75,-6.23,6.22,6.11,2.68,10.96,10.96,10.97
21.87,4.81,-6.16,4.81,-6.15,6.15,6.07,2.76,10.95,10.96,10.97
22.09,4.88,-6.07,4.87,-6.08,6.08,6.03,2.84,10.95,10.95,10.95
22.31,4.94,-6.00,4.94,-6.00,6.01,5.99,2.92,10.94,10.94,10.94
22.54,5.00,-5.93,5.00,-5.93,5.94,5.95,3.00,10.93,10.94,10.93
22.76,5.06,-5.87,5.06,-5.87,5.87,5.91,3.09,10.93,10.93,10.93
22.99,5.12,-5.80,5.12,-5.80,5.80,5.87,3.17,10.92,10.92,10.92
23.22,5.18,-5.73,5.17,-5.74,5.74,5.83,3.26,10.92,10.91,10.91
23.45,5.23,-5.69,5.23,-5.68,5.68,5.79,3.35,10.91,10.91,10.92
23.69,5.29,-5.62,5.29,-5.62,5.62,5.74,3.45,10.90,10.90,10.91
23.92,5.35,-5.55,5.35,-5.56,5.56,5.70,3.54,10.90,10.90,10.90
24.16,5.41,-5.50,5.41,-5.50,5.50,5.66,3.64,10.90,10.90,10.91
24.40,5.47,-5.44,5.47,-5.44,5.43,5.61,3.73,10.90,10.90,10.91
24.65,5.53,-5.37,5.53,-5.38,5.37,5.57,3.83,10.90,10.90,10.90
24.89,5.59,-5.31,5.58,-5.31,5.31,5.52,3.93,10.90,10.90,10.90
25.14,5.64,-5.25,5.64,-5.25,5.25,5.48,4.03,10.89,10.89,10.89
25.39,5.70,-5.19,5.69,-5.19,5.20,5.43,4.13,10.89,10.89,10.89
25.65,5.75,-5.14,5.75,-5.14,5.14,5.39,4.23,10.89,10.89,10.89
25.91,5.81,-5.08,5.80,-5.09,5.08,5.34,4.33,10.89,10.89,10.89
26.16,5.86,-5.04,5.86,-5.03,5.03,5.30,4.43,10.89,10.89,10.90
26.43,5.92,-4.97,5.91,-4.98,4.98,5.25,4.53,10.89,10.89,10.89
26.69,5.97,-4.92,5.96,-4.92,4.92,5.20,4.63,10.89,10.89,10.89
26.96,6.02,-4.87,6.02,-4.87,4.87,5.15,4.73,10.89,10.89,10.89
27.23,6.07,-4.82,6.07,-4.82,4.82,5.11,4.82,10.88,10.89,10.89
27.50,6.13,-4.76,6.12,-4.77,4.77,5.06,4.91,10.89,10.89,10.89
27.77,6.18,-4.72,6.18,-4.72,4.72,5.01,5.00,10.89,10.89,10.90
28.05,6.23,-4.66,6.23,-4.67,4.67,4.96,5.08,10.90,10.90,10.89
28.33,6.28,-4.62,6.28,-4.62,4.62,4.91,5.16,10.90,10.90,10.90
28.62,6.33,-4.57,6.33,-4.57,4.57,4.86,5.23,10.90,10.90,10.90
28.90,6.38,-4.53,6.38,-4.53,4.52,4.81,5.29,10.90,10.90,10.91
29.19,6.43,-4.48,6.42,-4.48,4.48,4.77,5.35,10.90,10.90,10.91
29.48,6.47,-4.43,6.47,-4.43,4.43,4.72,5.41,10.90,10.90,10.90
29.78,6.52,-4.38,6.51,-4.38,4.39,4.67,5.45,10.90,10.90,10.90
30.08,6.56,-4.34,6.55,-4.34,4.35,4.62,5.49,10.90,10.90,10.90
30.38,6.59,-4.29,6.59,-4.30,4.30,4.57,5.51,10.89,10.89,10.88
30.68,6.62,-4.26,6.62,-4.26,4.26,4.52,5.53,10.88,10.88,10.88
30.99,6.65,-4.23,6.65,-4.23,4.22,4.47,5.54,10.87,10.87,10.88
31.30,6.69,-4.19,6.68,-4.19,4.18,4.42,5.54,10.87,10.87,10.88
31.61,6.72,-4.15,6.72,-4.15,4.14,4.36,5.53,10.86,10.86,10.87
31.93,6.76,-4.09,6.75,-4.10,4.10,4.31,5.52,10.86,10.86,10.85
32.24,6.79,-4.07,6.79,-4.06,4.06,4.26,5.49,10.85,10.85,10.86
32.57,6.83,-4.01,6.82,-4.02,4.02,4.21,5.45,10.85,10.84,10.84
32.89,6.86,-3.98,6.86,-3.98,3.98,4.16,5.41,10.83,10.83,10.84
33.22,6.89,-3.94,6.89,-3.94,3.94,4.11,5.36,10.82,10.83,10.83
33.55,6.93,-3.90,6.93,-3.90,3.89,4.06,5.30,10.82,10.82,10.83
33.89,6.97,-3.85,6.96,-3.85,3.85,4.01,5.23,10.82,10.82,10.82
34.23,7.00,-3.80,7.00,-3.81,3.81,3.96,5.16,10.81,10.81,10.80
34.57,7.03,-3.77,7.03,-3.77,3.77,3.91,5.08,10.80,10.80,10.80
34.92,7.06,-3.72,7.06,-3.73,3.73,3.85,5.00,10.79,10.79,10.78
35.27,7.09,-3.71,7.09,-3.70,3.70,3.80,4.91,10.78,10.78,10.80
35.62,7.12,-3.65,7.12,-3.66,3.66,3.75,4.82,10.77,10.77,10.77
35.97,7.15,-3.62,7.14,-3.62,3.62,3.70,4.73,10.76,10.76,10.77
36.33,7.17,-3.58,7.17,-3.58,3.57,3.65,4.63,10.74,10.74,10.75
36.70,7.20,-3.53,7.19,-3.53,3.53,3.60,4.53,10.73,10.73,10.73
37.06,7.22,-3.49,7.22,-3.49,3.49,3.55,4.43,10.71,10.71,10.71
37.43,7.25,-3.44,7.25,-3.44,3.45,3.50,4.33,10.69,10.69,10.69
37.81,7.28,-3.40,7.27,-3.40,3.40,3.44,4.23,10.68,10.67,10.68
38.19,7.30,-3.35,7.30,-3.35,3.36,3.39,4.12,10.65,10.66,10.65
38.57,7.32,-3.31,7.32,-3.32,3.32,3.34,4.02,10.63,10.63,10.63
38.95,7.34,-3.28,7.33,-3.28,3.27,3.29,3.92,10.61,10.61,10.62
39.34,7.35,-3.24,7.35,-3.24,3.23,3.24,3.82,10.58,10.58,10.59
39.74,7.37,-3.19,7.37,-3.20,3.20,3.19,3.72,10.56,10.56,10.56
40.14,7.39,-3.15,7.38,-3.15,3.16,3.14,3.62,10.54,10.54,10.54
40.54,7.40,-3.12,7.40,-3.12,3.12,3.09,3.52,10.52,10.52,10.52
40.94,7.42,-3.07,7.41,-3.08,3.08,3.04,3.42,10.50,10.50,10.49
41.35,7.43,-3.05,7.43,-3.04,3.04,2.99,3.33,10.47,10.47,10.48
41.76,7.45,-3.00,7.45,-3.01,3.00,2.94,3.23,10.45,10.45,10.45
42.18,7.47,-2.97,7.47,-2.97,2.96,2.88,3.14,10.43,10.43,10.44
42.60,7.49,-2.92,7.49,-2.92,2.92,2.83,3.05,10.41,10.41,10.41
43.03,7.51,-2.88,7.51,-2.88,2.88,2.78,2.97,10.38,10.38,10.39
43.46,7.53,-2.82,7.53,-2.83,2.83,2.73,2.88,10.36,10.36,10.35
43.90,7.55,-2.78,7.54,-2.78,2.79,2.68,2.80,10.34,10.33,10.33
44.33,7.56,-2.74,7.56,-2.74,2.74,2.63,2.72,10.30,10.30,10.30
44.78,7.58,-2.70,7.58,-2.70,2.70,2.58,2.64,10.27,10.27,10.28
45.23,7.60,-2.66,7.59,-2.66,2.65,2.53,2.56,10.25,10.24,10.26
45.68,7.61,-2.60,7.61,-2.60,2.60,2.48,2.49,10.21,10.21,10.21
46.13,7.63,-2.55,7.63,-2.55,2.55,2.43,2.42,10.17,10.18,10.18
46.60,7.65,-2.49,7.65,-2.49,2.50,2.38,2.34,10.14,10.14,10.14
47.06,7.67,-2.44,7.67,-2.44,2.44,2.33,2.28,10.11,10.11,10.11
47.53,7.69,-2.38,7.68,-2.38,2.38,2.28,2.21,10.07,10.06,10.07
48.01,7.70,-2.32,7.70,-2.32,2.32,2.24,2.14,10.02,10.02,10.02
48.49,7.71,-2.27,7.71,-2.27,2.27,2.19,2.08,9.97,9.98,9.98
48.97,7.73,-2.20,7.72,-2.21,2.21,2.14,2.02,9.94,9.93,9.93
49.46,7.74,-2.16,7.73,-2.15,2.16,2.09,1.96,9.89,9.89,9.90
49.96,7.75,-2.09,7.75,-2.10,2.10,2.04,1.90,9.85,9.85,9.84
50.46,7.76,-2.05,7.76,-2.05,2.04,1.99,1.85,9.80,9.80,9.81
50.96,7.78,-1.99,7.77,-1.99,1.99,1.94,1.79,9.77,9.76,9.77
51.47,7.79,-1.94,7.79,-1.94,1.94,1.89,1.74,9.72,9.73,9.73
51.99,7.81,-1.87,7.81,-1.88,1.88,1.84,1.69,9.69,9.69,9.68
52.51,7.83,-1.82,7.82,-1.83,1.83,1.80,1.63,9.65,9.65,9.65
53.03,7.84,-1.78,7.84,-1.77,1.77,1.75,1.58,9.61,9.61,9.62
53.56,7.85,-1.72,7.85,-1.72,1.72,1.70,1.54,9.56,9.56,9.57
54.10,7.86,-1.66,7.86,-1.67,1.66,1.65,1.49,9.52,9.52,9.52
54.64,7.87,-1.61,7.87,-1.61,1.61,1.60,1.44,9.48,9.48,9.48
55.18,7.88,-1.56,7.88,-1.56,1.56,1.55,1.40,9.44,9.44,9.44
55.74,7.89,-1.50,7.88,-1.52,1.52,1.51,1.35,9.40,9.40,9.39
56.29,7.89,-1.48,7.89,-1.47,1.48,1.46,1.31,9.36,9.36,9.37
56.86,7.89,-1.44,7.89,-1.43,1.44,1.41,1.26,9.32,9.33,9.33
57.42,7.89,-1.39,7.89,-1.40,1.40,1.36,1.22,9.29,9.29,9.28
58.00,7.89,-1.35,7.88,-1.36,1.37,1.32,1.18,9.25,9.25,9.24
58.58,7.88,-1.33,7.88,-1.33,1.33,1.27,1.13,9.21,9.21,9.21
59.16,7.87,-1.31,7.87,-1.30,1.29,1.22,1.09,9.16,9.16,9.18
59.76,7.87,-1.26,7.87,-1.26,1.25,1.17,1.05,9.11,9.11,9.13
60.35,7.87,-1.21,7.87,-1.21,1.20,1.13,1.01,9.07,9.06,9.08
60.96,7.87,-1.15,7.87,-1.15,1.15,1.08,0.97,9.02,9.02,9.02
61.57,7.87,-1.09,7.87,-1.09,1.10,1.03,0.92,8.96,8.96,8.96
62.18,7.87,-1.03,7.87,-1.03,1.04,0.98,0.88,8.91,8.91,8.90
62.80,7.87,-0.97,7.87,-0.97,0.98,0.94,0.84,8.85,8.85,8.84
63.43,7.87,-0.92,7.87,-0.92,0.93,0.89,0.80,8.79,8.79,8.79
64.07,7.87,-0.87,7.87,-0.87,0.87,0.84,0.76,8.74,8.74,8.74
64.71,7.87,-0.82,7.87,-0.82,0.82,0.80,0.71,8.68,8.68,8.69
65.35,7.87,-0.76,7.87,-0.77,0.76,0.75,0.67,8.63,8.63,8.63
66.01,7.87,-0.71,7.87,-0.71,0.71,0.70,0.63,8.58,8.58,8.58
66.67,7.87,-0.67,7.87,-0.66,0.66,0.66,0.58,8.53,8.53,8.54
67.33,7.87,-0.60,7.87,-0.61,0.61,0.61,0.54,8.48,8.48,8.47
68.01,7.87,-0.55,7.87,-0.55,0.55,0.56,0.50,8.42,8.42,8.42
68.69,7.87,-0.50,7.87,-0.50,0.50,0.52,0.45,8.37,8.37,8.37
69.37,7.87,-0.45,7.87,-0.45,0.44,0.47,0.41,8.31,8.31,8.32
70.07,7.87,-0.39,7.87,-0.39,0.39,0.42,0.36,8.25,8.25,8.26
70.77,7.87,-0.32,7.87,-0.33,0.33,0.38,0.32,8.19,8.19,8.19
71.48,7.87,-0.27,7.87,-0.27,0.27,0.33,0.27,8.13,8.13,8.14
72.19,7.87,-0.21,7.87,-0.21,0.21,0.29,0.23,8.07,8.07,8.08
72.91,7.87,-0.14,7.87,-0.15,0.15,0.24,0.18,8.02,8.02,8.01
73.64,7.87,-0.09,7.87,-0.09,0.09,0.19,0.13,7.96,7.96,7.96
74.38,7.87,-0.03,7.87,-0.03,0.04,0.15,0.09,7.90,7.90,7.90
75.12,7.87,0.02,7.87,0.02,-0.02,0.10,0.04,7.85,7.85,7.85
75.87,7.87,0.07,7.87,0.07,-0.07,0.05,-0.01,7.79,7.79,7.80
76.63,7.87,0.13,7.87,0.12,-0.12,0.01,-0.06,7.74,7.74,7.74
77.40,7.87,0.17,7.87,0.17,-0.17,-0.04,-0.10,7.69,7.69,7.70
78.17,7.87,0.23,7.87,0.22,-0.22,-0.09,-0.15,7.64,7.64,7.64
78.95,7.87,0.27,7.87,0.27,-0.27,-0.13,-0.20,7.59,7.59,7.60
79.74,7.87,0.32,7.87,0.32,-0.32,-0.18,-0.25,7.55,7.55,7.55
80.54,7.87,0.37,7.87,0.37,-0.37,-0.22,-0.30,7.50,7.50,7.50
81.35,7.87,0.43,7.87,0.42,-0.42,-0.27,-0.35,7.45,7.45,7.44
82.16,7.87,0.46,7.87,0.47,-0.47,-0.32,-0.40,7.40,7.40,7.41
82.98,7.87,0.52,7.87,0.52,-0.52,-0.36,-0.46,7.34,7.34,7.35
83.81,7.87,0.57,7.87,0.57,-0.57,-0.41,-0.51,7.29,7.29,7.30
84.65,7.87,0.63,7.87,0.63,-0.63,-0.46,-0.56,7.24,7.24,7.24
85.50,7.87,0.69,7.87,0.68,-0.68,-0.50,-0.62,7.19,7.19,7.18
86.35,7.87,0.74,7.87,0.74,-0.74,-0.55,-0.67,7.13,7.13,7.13
87.22,7.87,0.79,7.87,0.79,-0.79,-0.60,-0.73,7.07,7.07,7.08
88.09,7.87,0.85,7.87,0.85,-0.85,-0.64,-0.78,7.02,7.02,7.02
88.97,7.87,0.91,7.87,0.90,-0.91,-0.69,-0.84,6.96,6.96,6.96
89.86,7.87,0.96,7.87,0.96,-0.97,-0.74,-0.89,6.90,6.90,6.91
90.76,7.87,1.02,7.87,1.02,-1.03,-0.78,-0.95,6.84,6.84,6.85
91.66,7.87,1.09,7.87,1.08,-1.09,-0.83,-1.01,6.78,6.78,6.78
92.58,7.88,1.15,7.88,1.15,-1.15,-0.87,-1.07,6.73,6.73,6.73
93.51,7.89,1.21,7.88,1.21,-1.21,-0.92,-1.13,6.67,6.67,6.68
94.44,7.89,1.27,7.89,1.27,-1.27,-0.97,-1.19,6.61,6.61,6.62
95.39,7.89,1.34,7.89,1.34,-1.33,-1.01,-1.25,6.55,6.55,6.55
96.34,7.88,1.40,7.87,1.39,-1.38,-1.06,-1.31,6.49,6.49,6.48
97.30,7.86,1.44,7.86,1.44,-1.43,-1.11,-1.37,6.42,6.42,6.42
98.28,7.83,1.48,7.83,1.48,-1.47,-1.15,-1.43,6.35,6.36,6.35
99.26,7.81,1.52,7.80,1.51,-1.51,-1.20,-1.50,6.30,6.29,6.29
100.25,7.78,1.55,7.77,1.54,-1.54,-1.25,-1.56,6.23,6.23,6.23
101.25,7.74,1.56,7.74,1.57,-1.57,-1.29,-1.62,6.16,6.17,6.18
102.27,7.71,1.59,7.71,1.59,-1.60,-1.34,-1.69,6.11,6.11,6.12
103.29,7.69,1.63,7.69,1.62,-1.63,-1.39,-1.75,6.06,6.06,6.06
104.32,7.67,1.66,7.66,1.66,-1.65,-1.43,-1.81,6.02,6.01,6.01
105.37,7.64,1.69,7.64,1.69,-1.68,-1.48,-1.87,5.96,5.96,5.95
106.42,7.61,1.71,7.61,1.71,-1.70,-1.53,-1.94,5.90,5.90,5.90
107.48,7.58,1.74,7.57,1.73,-1.73,-1.57,-2.00,5.84,5.84,5.84
108.56,7.55,1.76,7.55,1.76,-1.77,-1.62,-2.06,5.78,5.78,5.79
109.64,7.53,1.80,7.53,1.80,-1.81,-1.67,-2.12,5.71,5.71,5.73
110.74,7.52,1.85,7.52,1.85,-1.86,-1.71,-2.17,5.65,5.65,5.67
111.85,7.52,1.91,7.52,1.90,-1.92,-1.76,-2.23,5.60,5.60,5.61
112.97,7.53,1.97,7.53,1.97,-1.98,-1.80,-2.28,5.54,5.54,5.56
114.10,7.54,2.04,7.54,2.05,-2.05,-1.85,-2.33,5.48,5.49,5.50
115.24,7.56,2.14,7.55,2.13,-2.12,-1.90,-2.38,5.44,5.43,5.42
116.39,7.57,2.21,7.56,2.21,-2.19,-1.94,-2.43,5.38,5.38,5.36
117.55,7.57,2.27,7.57,2.27,-2.25,-1.99,-2.48,5.32,5.32,5.30
118.73,7.56,2.32,7.56,2.31,-2.30,-2.03,-2.52,5.25,5.25,5.24
119.92,7.55,2.35,7.55,2.35,-2.35,-2.08,-2.56,5.20,5.20,5.20
121.12,7.53,2.38,7.53,2.39,-2.39,-2.12,-2.59,5.14,5.14,5.15
122.33,7.52,2.43,7.51,2.42,-2.42,-2.17,-2.62,5.10,5.09,5.09
123.55,7.49,2.45,7.48,2.45,-2.45,-2.21,-2.65,5.04,5.04,5.04
124.79,7.46,2.47,7.45,2.47,-2.47,-2.26,-2.68,4.99,4.98,4.99
126.03,7.41,2.48,7.42,2.49,-2.49,-2.30,-2.70,4.92,4.93,4.93
127.29,7.39,2.51,7.38,2.51,-2.51,-2.34,-2.72,4.87,4.87,4.88
128.57,7.36,2.55,7.35,2.53,-2.53,-2.39,-2.74,4.82,4.81,4.81
129.85,7.31,2.55,7.31,2.56,-2.56,-2.43,-2.75,4.75,4.75,4.76
131.15,7.28,2.58,7.28,2.58,-2.59,-2.47,-2.76,4.69,4.69,4.70
132.46,7.27,2.62,7.26,2.61,-2.62,-2.51,-2.77,4.65,4.64,4.65
133.79,7.24,2.65,7.24,2.65,-2.66,-2.56,-2.77,4.58,4.59,4.59
135.12,7.23,2.69,7.23,2.69,-2.69,-2.60,-2.77,4.53,4.53,4.54
136.48,7.22,2.73,7.21,2.73,-2.73,-2.64,-2.77,4.48,4.48,4.49
137.84,7.21,2.77,7.21,2.77,-2.77,-2.68,-2.77,4.43,4.44,4.44
139.22,7.20,2.82,7.20,2.81,-2.81,-2.72,-2.77,4.39,4.39,4.38
140.61,7.19,2.85,7.18,2.85,-2.84,-2.76,-2.76,4.35,4.34,4.34
142.02,7.16,2.88,7.16,2.88,-2.87,-2.80,-2.76,4.29,4.29,4.28
143.44,7.15,2.91,7.14,2.90,-2.89,-2.84,-2.75,4.25,4.25,4.24
144.87,7.11,2.91,7.11,2.92,-2.91,-2.87,-2.74,4.19,4.20,4.20
146.32,7.08,2.93,7.08,2.93,-2.93,-2.91,-2.74,4.15,4.15,4.15
147.78,7.05,2.94,7.04,2.94,-2.94,-2.95,-2.73,4.10,4.10,4.11
149.26,7.01,2.95,7.01,2.95,-2.96,-2.98,-2.72,4.05,4.05,4.06
150.75,6.98,2.96,6.98,2.96,-2.97,-3.02,-2.71,4.01,4.01,4.02
152.26,6.97,2.99,6.96,2.98,-2.99,-3.05,-2.71,3.98,3.97,3.98
153.78,6.94,3.00,6.94,3.00,-3.00,-3.08,-2.70,3.93,3.94,3.94
155.32,6.93,3.03,6.92,3.03,-3.02,-3.12,-2.70,3.90,3.90,3.90
156.88,6.89,3.04,6.89,3.05,-3.05,-3.15,-2.69,3.84,3.85,3.85
158.44,6.88,3.08,6.87,3.07,-3.07,-3.18,-2.69,3.81,3.80,3.80
160.03,6.85,3.09,6.85,3.09,-3.09,-3.21,-2.69,3.76,3.76,3.76
161.63,6.83,3.11,6.83,3.11,-3.11,-3.24,-2.69,3.71,3.71,3.72
163.24,6.81,3.14,6.80,3.14,-3.14,-3.27,-2.70,3.67,3.67,3.67
164.88,6.78,3.16,6.78,3.16,-3.16,-3.29,-2.70,3.62,3.62,3.62
166.53,6.76,3.19,6.75,3.18,-3.18,-3.32,-2.71,3.58,3.57,3.57
168.19,6.73,3.19,6.73,3.20,-3.20,-3.34,-2.72,3.53,3.53,3.54
169.87,6.70,3.22,6.70,3.22,-3.21,-3.37,-2.73,3.48,3.49,3.48
171.57,6.68,3.25,6.67,3.24,-3.23,-3.39,-2.74,3.45,3.44,3.43
173.29,6.64,3.25,6.63,3.25,-3.24,-3.41,-2.75,3.39,3.39,3.39
175.02,6.59,3.25,6.59,3.25,-3.26,-3.43,-2.77,3.33,3.33,3.34
176.77,6.55,3.26,6.55,3.26,-3.27,-3.45,-2.79,3.28,3.28,3.29
178.54,6.52,3.27,6.52,3.27,-3.29,-3.47,-2.81,3.23,3.23,3.25
180.32,6.49,3.30,6.49,3.29,-3.30,-3.49,-2.84,3.19,3.19,3.19
182.13,6.47,3.31,6.46,3.31,-3.31,-3.50,-2.86,3.15,3.15,3.16
183.95,6.44,3.33,6.44,3.33,-3.32,-3.52,-2.89,3.11,3.11,3.11
185.79,6.41,3.35,6.41,3.35,-3.33,-3.53,-2.92,3.07,3.08,3.06
187.65,6.38,3.36,6.37,3.35,-3.34,-3.54,-2.96,3.04,3.03,3.02
189.52,6.33,3.35,6.33,3.35,-3.34,-3.55,-2.99,2.98,2.98,2.98
191.42,6.28,3.34,6.28,3.34,-3.35,-3.56,-3.03,2.93,2.93,2.94
193.33,6.23,3.33,6.23,3.33,-3.35,-3.57,-3.07,2.88,2.88,2.90
195.27,6.18,3.33,6.18,3.33,-3.35,-3.58,-3.11,2.83,2.84,2.85
197.22,6.15,3.35,6.14,3.34,-3.34,-3.58,-3.15,2.80,2.80,2.80
199.19,6.11,3.34,6.11,3.34,-3.34,-3.59,-3.19,2.77,2.77,2.77
201.18,6.07,3.34,6.07,3.34,-3.33,-3.59,-3.24,2.73,2.74,2.73
203.19,6.04,3.34,6.03,3.33,-3.32,-3.59,-3.28,2.71,2.71,2.70
205.23,6.00,3.32,5.99,3.32,-3.31,-3.59,-3.33,2.68,2.68,2.68
207.28,5.95,3.30,5.95,3.31,-3.30,-3.59,-3.37,2.65,2.65,2.65
209.35,5.91,3.30,5.90,3.29,-3.28,-3.59,-3.42,2.62,2.61,2.61
211.44,5.85,3.27,5.85,3.27,-3.27,-3.58,-3.47,2.58,2.58,2.58
213.56,5.80,3.24,5.80,3.24,-3.26,-3.58,-3.51,2.54,2.54,2.56
215.69,5.76,3.23,5.75,3.23,-3.25,-3.57,-3.56,2.51,2.51,2.53
217.85,5.72,3.22,5.73,3.23,-3.24,-3.56,-3.60,2.48,2.49,2.50
220.03,5.71,3.24,5.70,3.23,-3.23,-3.55,-3.65,2.48,2.48,2.47
222.23,5.69,3.25,5.68,3.24,-3.22,-3.54,-3.69,2.47,2.46,2.44
224.45,5.66,3.23,5.65,3.23,-3.22,-3.53,-3.73,2.44,2.44,2.43
226.70,5.62,3.22,5.62,3.22,-3.22,-3.52,-3.76,2.40,2.40,2.40
228.96,5.60,3.21,5.60,3.21,-3.22,-3.50,-3.80,2.37,2.37,2.39
231.25,5.58,3.21,5.58,3.21,-3.23,-3.49,-3.83,2.35,2.35,2.37
233.57,5.58,3.23,5.57,3.23,-3.24,-3.47,-3.85,2.34,2.34,2.35
235.90,5.58,3.24,5.57,3.24,-3.25,-3.45,-3.87,2.33,2.33,2.34
238.26,5.58,3.27,5.58,3.26,-3.26,-3.44,-3.89,2.32,2.32,2.31
240.64,5.59,3.27,5.59,3.28,-3.27,-3.42,-3.90,2.31,2.31,2.32
243.05,5.60,3.30,5.59,3.30,-3.29,-3.39,-3.91,2.31,2.31,2.30
245.48,5.60,3.31,5.60,3.31,-3.30,-3.37,-3.91,2.30,2.30,2.29
247.93,5.60,3.32,5.60,3.31,-3.31,-3.35,-3.91,2.29,2.29,2.28
250.41,5.60,3.31,5.60,3.32,-3.32,-3.32,-3.90,2.28,2.28,2.29
252.92,5.60,3.32,5.60,3.32,-3.32,-3.30,-3.89,2.27,2.27,2.28
255.45,5.60,3.33,5.60,3.32,-3.33,-3.27,-3.87,2.27,2.27,2.27
258.00,5.60,3.33,5.60,3.33,-3.33,-3.25,-3.84,2.27,2.27,2.27
260.58,5.60,3.33,5.60,3.33,-3.33,-3.22,-3.81,2.27,2.27,2.27
263.19,5.60,3.33,5.60,3.33,-3.33,-3.19,-3.78,2.27,2.27,2.27
265.82,5.60,3.34,5.60,3.34,-3.33,-3.16,-3.73,2.26,2.26,2.26
268.48,5.60,3.34,5.60,3.34,-3.34,-3.13,-3.69,2.25,2.25,2.26
271.16,5.60,3.34,5.60,3.34,-3.35,-3.10,-3.64,2.25,2.25,2.26
273.87,5.60,3.34,5.60,3.34,-3.36,-3.06,-3.59,2.24,2.24,2.26
276.61,5.61,3.35,5.61,3.36,-3.36,-3.03,-3.53,2.25,2.25,2.26
279.38,5.62,3.38,5.61,3.37,-3.36,-3.00,-3.47,2.25,2.25,2.24
282.17,5.62,3.38,5.62,3.37,-3.36,-2.96,-3.41,2.25,2.25,2.24
284.99,5.62,3.37,5.62,3.37,-3.36,-2.93,-3.35,2.26,2.26,2.25
287.84,5.61,3.35,5.60,3.35,-3.35,-2.89,-3.28,2.26,2.26,2.26
290.72,5.59,3.34,5.59,3.33,-3.33,-2.86,-3.21,2.26,2.26,2.25
293.63,5.56,3.30,5.56,3.30,-3.30,-2.82,-3.14,2.25,2.26,2.26
296.57,5.54,3.27,5.53,3.27,-3.27,-2.78,-3.07,2.26,2.26,2.27
299.53,5.51,3.24,5.51,3.23,-3.24,-2.74,-3.00,2.27,2.27,2.27
302.53,5.48,3.19,5.48,3.20,-3.21,-2.70,-2.93,2.27,2.27,2.29
305.55,5.45,3.17,5.45,3.16,-3.17,-2.67,-2.85,2.28,2.28,2.28
308.61,5.42,3.13,5.42,3.13,-3.13,-2.63,-2.78,2.29,2.29,2.29
311.69,5.39,3.09,5.39,3.10,-3.09,-2.59,-2.71,2.29,2.30,2.30
314.81,5.37,3.07,5.36,3.06,-3.05,-2.55,-2.64,2.32,2.31,2.30
317.96,5.33,3.02,5.33,3.02,-3.01,-2.51,-2.57,2.32,2.32,2.31
321.14,5.29,2.97,5.29,2.97,-2.97,-2.46,-2.50,2.32,2.32,2.32
324.35,5.25,2.93,5.25,2.92,-2.93,-2.42,-2.43,2.32,2.32,2.32
327.59,5.21,2.86,5.21,2.88,-2.89,-2.38,-2.37,2.32,2.32,2.35
330.87,5.19,2.85,5.18,2.84,-2.85,-2.34,-2.30,2.34,2.33,2.34
334.18,5.16,2.81,5.15,2.81,-2.81,-2.30,-2.24,2.35,2.35,2.35
337.52,5.12,2.77,5.12,2.77,-2.76,-2.25,-2.17,2.35,2.36,2.35
340.90,5.10,2.73,5.09,2.72,-2.72,-2.21,-2.11,2.38,2.37,2.37
344.30,5.05,2.67,5.05,2.68,-2.67,-2.17,-2.05,2.37,2.38,2.38
347.75,5.01,2.63,5.01,2.63,-2.62,-2.13,-1.99,2.38,2.38,2.38
351.23,4.96,2.58,4.96,2.57,-2.57,-2.08,-1.93,2.39,2.39,2.38
354.74,4.92,2.51,4.91,2.52,-2.51,-2.04,-1.88,2.40,2.40,2.41
358.28,4.86,2.46,4.86,2.46,-2.46,-1.99,-1.82,2.40,2.40,2.40
361.87,4.81,2.40,4.81,2.40,-2.40,-1.95,-1.77,2.41,2.41,2.41
365.49,4.76,2.34,4.75,2.33,-2.34,-1.91,-1.72,2.41,2.41,2.42
369.14,4.71,2.27,4.71,2.28,-2.28,-1.86,-1.67,2.42,2.42,2.44
372.83,4.66,2.22,4.66,2.22,-2.23,-1.82,-1.62,2.43,2.43,2.44
376.56,4.62,2.18,4.62,2.17,-2.17,-1.77,-1.58,2.45,2.45,2.44
380.33,4.58,2.13,4.57,2.12,-2.11,-1.73,-1.53,2.46,2.46,2.45
384.13,4.53,2.06,4.53,2.07,-2.06,-1.68,-1.49,2.47,2.47,2.47
387.97,4.48,2.01,4.47,2.00,-2.00,-1.64,-1.44,2.47,2.47,2.47
391.85,4.42,1.94,4.42,1.94,-1.95,-1.59,-1.40,2.47,2.48,2.48
395.77,4.38,1.89,4.37,1.88,-1.89,-1.55,-1.36,2.49,2.48,2.49
399.73,4.33,1.83,4.33,1.83,-1.83,-1.50,-1.32,2.50,2.50,2.50
403.72,4.29,1.76,4.29,1.77,-1.77,-1.46,-1.28,2.51,2.52,2.53
407.76,4.25,1.73,4.24,1.72,-1.71,-1.41,-1.25,2.53,2.53,2.52
411.84,4.20,1.67,4.19,1.66,-1.65,-1.36,-1.21,2.54,2.54,2.53
415.96,4.14,1.59,4.14,1.60,-1.60,-1.32,-1.17,2.54,2.54,2.55
420.12,4.09,1.54,4.09,1.54,-1.54,-1.27,-1.14,2.54,2.54,2.55
424.32,4.04,1.48,4.04,1.47,-1.49,-1.23,-1.11,2.55,2.55,2.56
428.56,4.00,1.42,4.00,1.42,-1.43,-1.18,-1.07,2.57,2.57,2.58
432.85,3.96,1.37,3.95,1.37,-1.37,-1.13,-1.04,2.59,2.58,2.59
437.18,3.91,1.33,3.91,1.32,-1.31,-1.09,-1.00,2.59,2.59,2.58
441.55,3.86,1.27,3.85,1.26,-1.26,-1.04,-0.97,2.60,2.60,2.59
445.96,3.80,1.20,3.80,1.20,-1.20,-0.99,-0.94,2.60,2.60,2.60
450.42,3.74,1.13,3.74,1.13,-1.14,-0.94,-0.91,2.60,2.60,2.61
454.93,3.69,1.07,3.69,1.07,-1.08,-0.90,-0.87,2.61,2.61,2.62
459.48,3.65,1.02,3.65,1.02,-1.02,-0.85,-0.84,2.63,2.63,2.63
464.07,3.62,0.97,3.61,0.97,-0.96,-0.80,-0.81,2.66,2.65,2.65
468.71,3.57,0.91,3.56,0.90,-0.90,-0.75,-0.77,2.67,2.66,2.66
473.40,3.50,0.84,3.50,0.84,-0.84,-0.71,-0.74,2.65,2.66,2.66
478.13,3.44,0.77,3.44,0.78,-0.78,-0.66,-0.71,2.65,2.66,2.67
482.91,3.40,0.72,3.39,0.72,-0.73,-0.61,-0.67,2.67,2.67,2.68
487.74,3.36,0.67,3.35,0.66,-0.66,-0.56,-0.64,2.69,2.69,2.69
492.62,3.31,0.61,3.31,0.61,-0.60,-0.51,-0.60,2.71,2.71,2.70
497.55,3.26,0.55,3.26,0.55,-0.54,-0.46,-0.56,2.72,2.72,2.71
502.52,3.21,0.49,3.20,0.48,-0.47,-0.41,-0.52,2.73,2.73,2.72
507.55,3.14,0.40,3.14,0.40,-0.41,-0.36,-0.48,2.73,2.73,2.74
512.62,3.08,0.33,3.08,0.33,-0.34,-0.31,-0.45,2.74,2.74,2.75
517.75,3.02,0.25,3.02,0.26,-0.27,-0.26,-0.40,2.74,2.75,2.77
522.93,2.99,0.21,2.98,0.20,-0.20,-0.21,-0.36,2.78,2.78,2.78
528.16,2.94,0.15,2.93,0.15,-0.14,-0.15,-0.32,2.80,2.80,2.79
533.44,2.89,0.09,2.88,0.08,-0.07,-0.10,-0.28,2.81,2.81,2.80
