frequency,raw,error,smoothed,error_smoothed,equalization,parametric_eq,fixed_band_eq,equalized_raw,equalized_smoothed,target
20.00,-0.43,-8.99,-0.43,-9.00,9.00,8.60,3.20,8.57,8.57,8.56
20.20,-0.36,-8.92,-0.36,-8.93,8.93,8.58,3.29,8.57,8.57,8.56
20.40,-0.30,-8.86,-0.30,-8.87,8.87,8.57,3.38,8.57,8.56,8.56
20.61,-0.23,-8.80,-0.24,-8.80,8.80,8.55,3.48,8.57,8.56,8.56
20.81,-0.17,-8.72,-0.17,-8.74,8.74,8.54,3.57,8.57,8.56,8.55
21.02,-0.11,-8.66,-0.11,-8.67,8.67,8.51,3.67,8.56,8.56,8.55
21.23,-0.06,-8.61,-0.05,-8.61,8.61,8.49,3.77,8.55,8.56,8.55
21.44,0.01,-8.55,0.01,-8.54,8.54,8.47,3.88,8.55,8.55,8.56
21.66,0.07,-8.49,0.07,-8.48,8.48,8.44,3.99,8.55,8.55,8.55
21.87,0.13,-8.42,0.14,-8.41,8.41,8.41,4.10,8.54,8.55,8.55
22.09,0.19,-8.35,0.20,-8.35,8.35,8.38,4.21,8.54,8.54,8.54
22.31,0.25,-8.29,0.26,-8.28,8.28,8.34,4.33,8.53,8.54,8.54
22.54,0.32,-8.22,0.32,-8.22,8.22,8.31,4.45,8.54,8.53,8.53
22.76,0.38,-8.15,0.38,-8.15,8.15,8.27,4.57,8.53,8.53,8.53
22.99,0.44,-8.08,0.44,-8.09,8.09,8.23,4.69,8.53,8.53,8.52
23.22,0.50,-8.02,0.50,-8.02,8.02,8.19,4.82,8.52,8.52,8.51
23.45,0.56,-7.95,0.56,-7.96,7.96,8.15,4.95,8.52,8.51,8.51
23.69,0.62,-7.89,0.61,-7.89,7.89,8.10,5.09,8.51,8.51,8.50
23.92,0.68,-7.81,0.67,-7.83,7.83,8.06,5.22,8.51,8.50,8.49
24.16,0.73,-7.76,0.73,-7.77,7.77,8.01,5.36,8.50,8.50,8.49
24.40,0.78,-7.71,0.79,-7.71,7.71,7.96,5.50,8.49,8.49,8.49
24.65,0.84,-7.66,0.84,-7.65,7.65,7.91,5.65,8.49,8.49,8.49
24.89,0.90,-7.59,0.90,-7.59,7.59,7.86,5.79,8.49,8.49,8.49
25.14,0.95,-7.53,0.96,-7.53,7.53,7.80,5.94,8.48,8.48,8.48
25.39,1.01,-7.46,1.01,-7.47,7.47,7.75,6.09,8.48,8.48,8.47
25.65,1.07,-7.41,1.07,-7.41,7.41,7.69,6.23,8.48,8.48,8.47
25.91,1.13,-7.35,1.13,-7.36,7.36,7.63,6.38,8.48,8.48,8.47
26.16,1.18,-7.30,1.18,-7.30,7.30,7.57,6.53,8.48,8.48,8.48
26.43,1.24,-7.25,1.24,-7.24,7.24,7.51,6.68,8.48,8.48,8.48
26.69,1.30,-7.18,1.29,-7.19,7.19,7.45,6.83,8.49,8.48,8.48
26.96,1.35,-7.13,1.35,-7.13,7.13,7.39,6.97,8.48,8.48,8.47
27.23,1.41,-7.07,1.41,-7.07,7.07,7.33,7.11,8.48,8.48,8.47
27.50,1.46,-7.02,1.46,-7.01,7.01,7.26,7.25,8.47,8.47,8.47
27.77,1.51,-6.97,1.52,-6.96,6.96,7.20,7.38,8.47,8.47,8.48
28.05,1.57,-6.90,1.57,-6.90,6.90,7.13,7.51,8.47,8.47,8.47
28.33,1.62,-6.84,1.62,-6.84,6.84,7.06,7.63,8.46,8.47,8.46
28.62,1.68,-6.78,1.68,-6.78,6.78,7.00,7.74,8.46,8.46,8.45
28.90,1.73,-6.73,1.73,-6.72,6.72,6.93,7.85,8.45,8.46,8.46
29.19,1.79,-6.66,1.79,-6.66,6.66,6.86,7.94,8.45,8.45,8.45
29.48,1.84,-6.60,1.84,-6.60,6.60,6.79,8.02,8.44,8.44,8.44
29.78,1.90,-6.54,1.89,-6.55,6.55,6.72,8.09,8.44,8.44,8.43
30.08,1.95,-6.49,1.95,-6.49,6.49,6.65,8.15,8.44,8.43,8.43
30.38,2.00,-6.43,2.00,-6.43,6.43,6.58,8.19,8.43,8.43,8.42
30.68,2.05,-6.36,2.05,-6.37,6.37,6.51,8.22,8.42,8.43,8.41
30.99,2.11,-6.31,2.11,-6.31,6.31,6.44,8.24,8.42,8.42,8.41
31.30,2.16,-6.26,2.16,-6.26,6.26,6.36,8.24,8.42,8.42,8.41
31.61,2.21,-6.20,2.21,-6.20,6.20,6.29,8.22,8.41,8.42,8.41
31.93,2.26,-6.15,2.26,-6.15,6.15,6.22,8.19,8.41,8.41,8.40
32.24,2.31,-6.10,2.31,-6.09,6.09,6.14,8.15,8.41,8.41,8.41
32.57,2.37,-6.04,2.37,-6.04,6.04,6.07,8.09,8.41,8.41,8.40
32.89,2.42,-5.98,2.42,-5.99,5.99,6.00,8.02,8.41,8.40,8.40
33.22,2.47,-5.93,2.47,-5.93,5.93,5.92,7.94,8.40,8.40,8.40
33.55,2.51,-5.88,2.52,-5.87,5.87,5.85,7.84,8.38,8.39,8.39
33.89,2.57,-5.81,2.57,-5.82,5.82,5.78,7.74,8.39,8.38,8.38
34.23,2.61,-5.76,2.61,-5.76,5.76,5.70,7.63,8.37,8.37,8.36
34.57,2.67,-5.69,2.66,-5.69,5.69,5.63,7.50,8.36,8.36,8.36
34.92,2.71,-5.64,2.71,-5.63,5.63,5.55,7.37,8.34,8.34,8.34
35.27,2.76,-5.58,2.76,-5.57,5.57,5.48,7.24,8.32,8.32,8.33
35.62,2.81,-5.50,2.80,-5.50,5.50,5.40,7.10,8.31,8.30,8.30
35.97,2.85,-5.43,2.85,-5.43,5.43,5.33,6.95,8.28,8.28,8.28
36.33,2.89,-5.36,2.90,-5.36,5.36,5.26,6.80,8.25,8.25,8.25
36.70,2.94,-5.29,2.94,-5.28,5.28,5.18,6.65,8.22,8.22,8.22
37.06,2.99,-5.20,2.99,-5.21,5.21,5.11,6.50,8.20,8.20,8.19
37.43,3.03,-5.13,3.04,-5.13,5.13,5.03,6.35,8.16,8.17,8.16
37.81,3.08,-5.05,3.08,-5.05,5.05,4.96,6.19,8.13,8.14,8.13
38.19,3.12,-4.98,3.13,-4.98,4.98,4.88,6.04,8.10,8.10,8.09
38.57,3.17,-4.90,3.17,-4.90,4.90,4.81,5.89,8.07,8.07,8.07
38.95,3.22,-4.82,3.22,-4.82,4.82,4.74,5.73,8.04,8.04,8.04
39.34,3.27,-4.73,3.27,-4.75,4.75,4.66,5.58,8.02,8.01,8.00
39.74,3.32,-4.66,3.31,-4.67,4.67,4.59,5.43,7.99,7.99,7.97
40.14,3.36,-4.60,3.36,-4.60,4.60,4.52,5.29,7.96,7.96,7.95
40.54,3.40,-4.54,3.40,-4.53,4.53,4.44,5.14,7.93,7.93,7.93
40.94,3.45,-4.45,3.45,-4.46,4.46,4.37,5.00,7.91,7.90,7.90
41.35,3.49,-4.38,3.49,-4.39,4.39,4.30,4.86,7.88,7.88,7.87
41.76,3.53,-4.31,3.53,-4.32,4.32,4.22,4.72,7.85,7.85,7.84
42.18,3.58,-4.25,3.58,-4.25,4.25,4.15,4.59,7.83,7.83,7.83
42.60,3.61,-4.19,3.62,-4.19,4.19,4.08,4.46,7.80,7.80,7.80
43.03,3.66,-4.11,3.66,-4.12,4.12,4.01,4.33,7.78,7.78,7.77
43.46,3.70,-4.05,3.70,-4.06,4.06,3.93,4.20,7.76,7.76,7.75
43.90,3.74,-4.00,3.74,-4.00,4.00,3.86,4.08,7.73,7.73,7.73
44.33,3.78,-3.91,3.78,-3.93,3.93,3.79,3.96,7.71,7.70,7.69
44.78,3.81,-3.87,3.81,-3.86,3.86,3.72,3.84,7.67,7.68,7.67
45.23,3.85,-3.82,3.85,-3.79,3.79,3.65,3.73,7.64,7.65,7.66
45.68,3.89,-3.74,3.89,-3.73,3.73,3.58,3.61,7.61,7.62,7.62
46.13,3.93,-3.64,3.93,-3.65,3.65,3.50,3.50,7.58,7.58,7.57
46.60,3.96,-3.60,3.97,-3.58,3.58,3.43,3.40,7.54,7.55,7.55
47.06,4.01,-3.50,4.00,-3.50,3.50,3.36,3.29,7.51,7.51,7.51
47.53,4.04,-3.44,4.04,-3.43,3.43,3.29,3.19,7.47,7.47,7.48
48.01,4.08,-3.35,4.08,-3.35,3.35,3.22,3.09,7.43,7.43,7.42
48.49,4.12,-3.28,4.12,-3.27,3.27,3.15,3.00,7.39,7.39,7.39
48.97,4.16,-3.18,4.16,-3.19,3.19,3.08,2.90,7.35,7.34,7.34
49.46,4.19,-3.11,4.19,-3.11,3.11,3.01,2.81,7.30,7.30,7.30
49.96,4.23,-3.01,4.23,-3.02,3.02,2.94,2.72,7.25,7.25,7.24
50.46,4.26,-2.94,4.27,-2.94,2.94,2.88,2.63,7.20,7.20,7.19
50.96,4.30,-2.84,4.30,-2.86,2.86,2.81,2.55,7.16,7.16,7.14
51.47,4.34,-2.76,4.34,-2.78,2.78,2.74,2.46,7.12,7.11,7.10
51.99,4.37,-2.69,4.37,-2.69,2.69,2.67,2.38,7.06,7.06,7.06
52.51,4.41,-2.61,4.40,-2.61,2.61,2.60,2.30,7.02,7.02,7.02
53.03,4.44,-2.54,4.44,-2.53,2.53,2.53,2.22,6.97,6.97,6.98
53.56,4.47,-2.46,4.47,-2.45,2.45,2.46,2.15,6.92,6.92,6.93
54.10,4.51,-2.37,4.51,-2.37,2.37,2.40,2.07,6.88,6.88,6.88
54.64,4.53,-2.31,4.54,-2.29,2.29,2.33,2.00,6.82,6.83,6.83
55.18,4.57,-2.20,4.57,-2.22,2.22,2.26,1.93,6.79,6.79,6.77
55.74,4.60,-2.14,4.60,-2.14,2.14,2.19,1.85,6.74,6.75,6.73
56.29,4.63,-2.06,4.64,-2.07,2.07,2.13,1.78,6.70,6.70,6.69
56.86,4.66,-2.00,4.67,-1.99,1.99,2.06,1.72,6.65,6.66,6.65
57.42,4.70,-1.89,4.70,-1.92,1.92,1.99,1.65,6.62,6.61,6.59
58.00,4.73,-1.82,4.72,-1.84,1.84,1.93,1.58,6.57,6.56,6.55
58.58,4.76,-1.76,4.75,-1.76,1.76,1.86,1.51,6.52,6.51,6.52
59.16,4.79,-1.69,4.78,-1.69,1.69,1.79,1.45,6.48,6.46,6.48
59.76,4.81,-1.64,4.80,-1.61,1.61,1.73,1.38,6.42,6.41,6.44
60.35,4.83,-1.54,4.83,-1.53,1.53,1.66,1.32,6.36,6.36,6.37
60.96,4.86,-1.47,4.85,-1.45,1.45,1.59,1.26,6.31,6.30,6.32
61.57,4.87,-1.38,4.87,-1.38,1.38,1.53,1.19,6.25,6.25,6.25
62.18,4.89,-1.29,4.90,-1.30,1.30,1.46,1.13,6.19,6.19,6.18
62.80,4.91,-1.21,4.92,-1.22,1.22,1.39,1.07,6.13,6.14,6.12
63.43,4.93,-1.12,4.94,-1.14,1.14,1.33,1.01,6.07,6.08,6.05
64.07,4.95,-1.06,4.96,-1.06,1.06,1.26,0.95,6.01,6.02,6.00
64.71,4.98,-0.98,4.98,-0.98,0.98,1.20,0.89,5.96,5.96,5.95
65.35,5.00,-0.90,5.01,-0.90,0.90,1.13,0.83,5.90,5.90,5.90
66.01,5.03,-0.82,5.03,-0.82,0.82,1.06,0.77,5.85,5.85,5.84
66.67,5.06,-0.75,5.05,-0.74,0.74,1.00,0.71,5.80,5.79,5.80
67.33,5.07,-0.66,5.07,-0.66,0.66,0.93,0.64,5.73,5.74,5.73
68.01,5.10,-0.59,5.09,-0.59,0.59,0.87,0.58,5.69,5.68,5.68
68.69,5.12,-0.51,5.12,-0.51,0.51,0.80,0.52,5.63,5.63,5.62
69.37,5.14,-0.43,5.14,-0.43,0.43,0.74,0.46,5.57,5.57,5.57
70.07,5.16,-0.36,5.16,-0.36,0.36,0.67,0.40,5.52,5.51,5.52
70.77,5.18,-0.28,5.18,-0.28,0.28,0.60,0.34,5.46,5.46,5.46
71.48,5.20,-0.21,5.20,-0.20,0.20,0.54,0.28,5.40,5.40,5.40
72.19,5.21,-0.12,5.21,-0.13,0.13,0.47,0.22,5.34,5.34,5.33
72.91,5.23,-0.05,5.23,-0.05,0.05,0.41,0.16,5.28,5.28,5.28
73.64,5.24,0.03,5.24,0.02,-0.02,0.34,0.10,5.22,5.23,5.21
74.38,5.26,0.11,5.26,0.09,-0.09,0.28,0.04,5.17,5.17,5.15
75.12,5.27,0.17,5.27,0.16,-0.16,0.21,-0.03,5.11,5.11,5.10
75.87,5.29,0.23,5.29,0.23,-0.23,0.14,-0.09,5.06,5.06,5.06
76.63,5.30,0.30,5.30,0.30,-0.30,0.08,-0.15,5.00,5.00,5.00
77.40,5.31,0.37,5.31,0.36,-0.36,0.01,-0.21,4.95,4.95,4.94
78.17,5.33,0.45,5.32,0.43,-0.43,-0.06,-0.28,4.90,4.90,4.88
78.95,5.33,0.48,5.34,0.49,-0.49,-0.12,-0.34,4.84,4.84,4.85
79.74,5.35,0.56,5.35,0.55,-0.55,-0.19,-0.41,4.80,4.79,4.79
80.54,5.35,0.62,5.36,0.62,-0.62,-0.26,-0.47,4.73,4.74,4.73
81.35,5.37,0.67,5.36,0.68,-0.68,-0.32,-0.54,4.69,4.69,4.69
82.16,5.37,0.73,5.37,0.74,-0.74,-0.39,-0.61,4.63,4.64,4.64
82.98,5.38,0.80,5.38,0.79,-0.79,-0.46,-0.68,4.59,4.59,4.58
83.81,5.39,0.86,5.39,0.85,-0.85,-0.52,-0.74,4.54,4.53,4.53
84.65,5.40,0.93,5.39,0.91,-0.91,-0.59,-0.81,4.49,4.48,4.47
85.50,5.40,0.98,5.40,0.97,-0.97,-0.66,-0.88,4.43,4.43,4.42
86.35,5.41,1.04,5.40,1.03,-1.03,-0.72,-0.95,4.38,4.38,4.37
87.22,5.40,1.07,5.41,1.09,-1.09,-0.79,-1.03,4.31,4.32,4.32
88.09,5.41,1.14,5.41,1.14,-1.14,-0.86,-1.10,4.27,4.27,4.26
88.97,5.41,1.20,5.41,1.20,-1.20,-0.93,-1.17,4.21,4.21,4.21
89.86,5.42,1.27,5.42,1.26,-1.26,-0.99,-1.25,4.16,4.16,4.15
90.76,5.42,1.32,5.42,1.32,-1.32,-1.06,-1.33,4.10,4.10,4.09
91.66,5.42,1.38,5.42,1.38,-1.38,-1.13,-1.40,4.04,4.04,4.04
92.58,5.42,1.44,5.42,1.44,-1.44,-1.20,-1.48,3.98,3.98,3.98
93.51,5.42,1.49,5.42,1.51,-1.51,-1.27,-1.56,3.91,3.91,3.92
94.44,5.42,1.56,5.42,1.57,-1.57,-1.33,-1.64,3.85,3.85,3.86
95.39,5.42,1.62,5.42,1.63,-1.63,-1.40,-1.72,3.79,3.79,3.79
96.34,5.42,1.70,5.42,1.70,-1.70,-1.47,-1.80,3.72,3.72,3.72
97.30,5.41,1.75,5.42,1.76,-1.76,-1.54,-1.88,3.65,3.65,3.66
98.28,5.42,1.84,5.41,1.83,-1.83,-1.61,-1.97,3.59,3.59,3.57
99.26,5.41,1.91,5.41,1.89,-1.89,-1.68,-2.05,3.52,3.52,3.50
100.25,5.41,1.97,5.41,1.95,-1.95,-1.74,-2.13,3.46,3.46,3.44
101.25,5.40,2.02,5.40,2.01,-2.01,-1.81,-2.22,3.39,3.39,3.38
102.27,5.40,2.08,5.40,2.07,-2.07,-1.88,-2.30,3.33,3.33,3.32
103.29,5.39,2.14,5.39,2.13,-2.13,-1.95,-2.38,3.26,3.26,3.25
104.32,5.39,2.19,5.39,2.18,-2.18,-2.02,-2.47,3.21,3.20,3.20
105.37,5.38,2.23,5.38,2.24,-2.24,-2.09,-2.55,3.14,3.14,3.14
106.42,5.37,2.29,5.37,2.29,-2.29,-2.15,-2.63,3.08,3.08,3.08
107.48,5.36,2.35,5.36,2.34,-2.34,-2.22,-2.71,3.02,3.02,3.01
108.56,5.35,2.39,5.35,2.39,-2.39,-2.29,-2.79,2.96,2.96,2.96
109.64,5.34,2.43,5.34,2.44,-2.44,-2.36,-2.87,2.90,2.91,2.91
110.74,5.33,2.49,5.33,2.49,-2.49,-2.42,-2.95,2.84,2.84,2.84
111.85,5.32,2.54,5.32,2.54,-2.54,-2.49,-3.02,2.78,2.78,2.78
112.97,5.31,2.59,5.31,2.59,-2.59,-2.56,-3.09,2.72,2.72,2.72
114.10,5.30,2.64,5.29,2.64,-2.64,-2.62,-3.16,2.66,2.65,2.66
115.24,5.28,2.69,5.28,2.69,-2.69,-2.69,-3.22,2.59,2.59,2.59
116.39,5.27,2.76,5.27,2.75,-2.75,-2.75,-3.28,2.52,2.52,2.51
117.55,5.25,2.80,5.25,2.80,-2.80,-2.82,-3.34,2.45,2.45,2.45
118.73,5.24,2.87,5.24,2.85,-2.85,-2.88,-3.39,2.39,2.38,2.37
119.92,5.22,2.92,5.22,2.91,-2.91,-2.95,-3.44,2.31,2.31,2.30
121.12,5.20,2.96,5.21,2.96,-2.96,-3.01,-3.49,2.24,2.24,2.24
122.33,5.19,3.02,5.19,3.02,-3.02,-3.07,-3.52,2.17,2.17,2.16
123.55,5.17,3.07,5.17,3.08,-3.08,-3.13,-3.56,2.09,2.09,2.10
124.79,5.16,3.12,5.15,3.13,-3.13,-3.19,-3.59,2.03,2.02,2.03
126.03,5.13,3.17,5.13,3.19,-3.19,-3.25,-3.61,1.94,1.95,1.96
127.29,5.12,3.25,5.12,3.24,-3.24,-3.31,-3.63,1.88,1.87,1.87
128.57,5.10,3.30,5.10,3.29,-3.29,-3.37,-3.64,1.81,1.80,1.80
129.85,5.07,3.35,5.08,3.34,-3.34,-3.42,-3.65,1.73,1.73,1.72
131.15,5.06,3.41,5.06,3.39,-3.39,-3.48,-3.66,1.67,1.67,1.65
132.46,5.03,3.45,5.03,3.43,-3.43,-3.53,-3.66,1.60,1.60,1.58
133.79,5.01,3.49,5.01,3.48,-3.48,-3.58,-3.66,1.53,1.53,1.52
135.12,4.99,3.54,4.99,3.52,-3.52,-3.64,-3.65,1.47,1.47,1.45
136.48,4.96,3.55,4.96,3.56,-3.56,-3.69,-3.64,1.40,1.41,1.41
137.84,4.94,3.59,4.94,3.59,-3.59,-3.73,-3.62,1.35,1.35,1.35
139.22,4.92,3.64,4.92,3.62,-3.62,-3.78,-3.61,1.30,1.29,1.28
140.61,4.89,3.65,4.89,3.65,-3.65,-3.83,-3.59,1.24,1.24,1.24
142.02,4.87,3.68,4.86,3.67,-3.67,-3.87,-3.57,1.20,1.19,1.19
143.44,4.84,3.71,4.84,3.70,-3.70,-3.91,-3.55,1.14,1.14,1.13
144.87,4.81,3.72,4.81,3.72,-3.72,-3.95,-3.53,1.09,1.09,1.09
146.32,4.78,3.74,4.78,3.74,-3.74,-3.99,-3.50,1.04,1.05,1.04
147.78,4.76,3.77,4.76,3.76,-3.76,-4.02,-3.48,1.00,1.00,0.99
149.26,4.73,3.78,4.73,3.78,-3.78,-4.06,-3.46,0.95,0.95,0.95
150.75,4.69,3.80,4.70,3.79,-3.79,-4.09,-3.43,0.90,0.90,0.89
152.26,4.67,3.81,4.67,3.81,-3.81,-4.12,-3.41,0.86,0.85,0.86
153.78,4.63,3.83,4.63,3.83,-3.83,-4.14,-3.39,0.80,0.81,0.80
155.32,4.60,3.84,4.60,3.84,-3.84,-4.17,-3.36,0.76,0.76,0.76
156.88,4.57,3.86,4.57,3.86,-3.86,-4.19,-3.34,0.71,0.71,0.71
158.44,4.54,3.88,4.54,3.88,-3.88,-4.21,-3.33,0.66,0.66,0.66
160.03,4.51,3.90,4.50,3.89,-3.89,-4.23,-3.31,0.62,0.61,0.61
161.63,4.46,3.90,4.47,3.91,-3.91,-4.25,-3.29,0.55,0.56,0.56
163.24,4.43,3.94,4.44,3.93,-3.93,-4.26,-3.28,0.50,0.51,0.49
164.88,4.40,3.95,4.40,3.95,-3.95,-4.27,-3.27,0.45,0.45,0.45
166.53,4.37,3.98,4.37,3.97,-3.97,-4.28,-3.26,0.40,0.40,0.39
168.19,4.33,3.98,4.33,3.98,-3.98,-4.29,-3.26,0.35,0.35,0.35
169.87,4.29,3.99,4.30,4.00,-4.00,-4.29,-3.25,0.29,0.30,0.30
171.57,4.26,4.03,4.26,4.02,-4.02,-4.29,-3.25,0.24,0.25,0.23
173.29,4.23,4.05,4.22,4.03,-4.03,-4.29,-3.25,0.20,0.19,0.18
175.02,4.19,4.05,4.19,4.04,-4.04,-4.29,-3.26,0.15,0.14,0.14
176.77,4.15,4.06,4.15,4.06,-4.06,-4.28,-3.26,0.09,0.09,0.09
178.54,4.11,4.07,4.11,4.07,-4.07,-4.28,-3.27,0.04,0.04,0.04
180.32,4.08,4.10,4.07,4.08,-4.08,-4.27,-3.28,0.00,-0.01,-0.02
182.13,4.03,4.09,4.03,4.09,-4.09,-4.26,-3.30,-0.06,-0.06,-0.06
183.95,3.99,4.09,3.99,4.10,-4.10,-4.24,-3.32,-0.11,-0.11,-0.10
185.79,3.95,4.11,3.95,4.10,-4.10,-4.23,-3.34,-0.16,-0.16,-0.16
187.65,3.91,4.11,3.91,4.11,-4.11,-4.21,-3.36,-0.20,-0.20,-0.20
189.52,3.86,4.11,3.87,4.12,-4.12,-4.19,-3.38,-0.26,-0.25,-0.25
191.42,3.82,4.12,3.82,4.12,-4.12,-4.17,-3.41,-0.30,-0.30,-0.30
193.33,3.78,4.13,3.78,4.12,-4.12,-4.15,-3.44,-0.34,-0.34,-0.35
195.27,3.73,4.13,3.73,4.12,-4.12,-4.12,-3.47,-0.39,-0.39,-0.40
197.22,3.69,4.14,3.69,4.12,-4.12,-4.09,-3.50,-0.43,-0.43,-0.45
199.19,3.64,4.12,3.64,4.12,-4.12,-4.07,-3.53,-0.48,-0.47,-0.48
201.18,3.60,4.13,3.60,4.11,-4.11,-4.04,-3.57,-0.51,-0.52,-0.53
203.19,3.56,4.12,3.55,4.11,-4.11,-4.01,-3.61,-0.55,-0.56,-0.56
205.23,3.50,4.10,3.51,4.10,-4.10,-3.97,-3.65,-0.60,-0.60,-0.60
207.28,3.46,4.09,3.46,4.09,-4.09,-3.94,-3.68,-0.63,-0.64,-0.63
209.35,3.41,4.08,3.41,4.08,-4.08,-3.91,-3.72,-0.67,-0.67,-0.67
211.44,3.36,4.07,3.36,4.07,-4.07,-3.87,-3.76,-0.71,-0.71,-0.71
213.56,3.31,4.06,3.32,4.06,-4.06,-3.83,-3.80,-0.75,-0.74,-0.75
215.69,3.27,4.05,3.27,4.04,-4.04,-3.79,-3.84,-0.77,-0.77,-0.78
217.85,3.22,4.03,3.22,4.02,-4.02,-3.75,-3.88,-0.80,-0.81,-0.81
220.03,3.17,4.02,3.17,4.00,-4.00,-3.72,-3.92,-0.83,-0.84,-0.85
222.23,3.12,3.99,3.12,3.98,-3.98,-3.67,-3.95,-0.86,-0.87,-0.87
224.45,3.06,3.96,3.06,3.96,-3.96,-3.63,-3.98,-0.90,-0.90,-0.90
226.70,3.01,3.94,3.01,3.94,-3.94,-3.59,-4.01,-0.93,-0.92,-0.93
228.96,2.96,3.91,2.96,3.91,-3.91,-3.55,-4.04,-0.95,-0.95,-0.95
231.25,2.91,3.88,2.91,3.88,-3.88,-3.51,-4.07,-0.97,-0.98,-0.97
233.57,2.85,3.85,2.85,3.85,-3.85,-3.46,-4.09,-1.00,-1.00,-1.00
235.90,2.80,3.83,2.80,3.82,-3.82,-3.42,-4.10,-1.02,-1.02,-1.03
238.26,2.74,3.80,2.74,3.78,-3.78,-3.37,-4.11,-1.04,-1.04,-1.06
240.64,2.68,3.74,2.68,3.74,-3.74,-3.33,-4.12,-1.06,-1.06,-1.06
243.05,2.63,3.71,2.63,3.70,-3.70,-3.28,-4.12,-1.07,-1.08,-1.08
245.48,2.57,3.68,2.57,3.66,-3.66,-3.24,-4.12,-1.09,-1.10,-1.11
247.93,2.51,3.64,2.51,3.62,-3.62,-3.19,-4.11,-1.11,-1.11,-1.13
250.41,2.46,3.59,2.45,3.58,-3.58,-3.15,-4.10,-1.12,-1.13,-1.13
252.92,2.39,3.53,2.39,3.53,-3.53,-3.10,-4.08,-1.14,-1.14,-1.14
255.45,2.33,3.49,2.33,3.49,-3.49,-3.06,-4.06,-1.16,-1.16,-1.16
258.00,2.27,3.44,2.27,3.44,-3.44,-3.01,-4.03,-1.17,-1.17,-1.17
260.58,2.21,3.39,2.21,3.40,-3.40,-2.97,-3.99,-1.19,-1.18,-1.18
263.19,2.16,3.36,2.16,3.35,-3.35,-2.92,-3.95,-1.19,-1.20,-1.20
265.82,2.10,3.31,2.10,3.31,-3.31,-2.88,-3.91,-1.21,-1.21,-1.21
268.48,2.04,3.26,2.04,3.26,-3.26,-2.83,-3.86,-1.22,-1.22,-1.22
271.16,1.98,3.22,1.98,3.22,-3.22,-2.79,-3.81,-1.24,-1.24,-1.24
273.87,1.92,3.17,1.92,3.17,-3.17,-2.74,-3.75,-1.25,-1.25,-1.25
276.61,1.87,3.14,1.87,3.13,-3.13,-2.70,-3.69,-1.26,-1.26,-1.27
279.38,1.81,3.10,1.81,3.08,-3.08,-2.65,-3.62,-1.27,-1.27,-1.29
282.17,1.76,3.06,1.76,3.04,-3.04,-2.61,-3.56,-1.28,-1.28,-1.30
284.99,1.70,2.99,1.70,3.00,-3.00,-2.56,-3.49,-1.30,-1.29,-1.29
287.84,1.65,2.95,1.65,2.95,-2.95,-2.52,-3.42,-1.30,-1.30,-1.30
290.72,1.60,2.93,1.60,2.91,-2.91,-2.48,-3.34,-1.31,-1.31,-1.33
293.63,1.55,2.87,1.55,2.87,-2.87,-2.44,-3.27,-1.32,-1.32,-1.32
296.57,1.51,2.84,1.51,2.83,-2.83,-2.39,-3.20,-1.32,-1.33,-1.33
299.53,1.46,2.80,1.46,2.80,-2.80,-2.35,-3.12,-1.34,-1.33,-1.34
302.53,1.41,2.75,1.42,2.76,-2.76,-2.31,-3.04,-1.35,-1.34,-1.34
305.55,1.38,2.73,1.38,2.72,-2.72,-2.27,-2.97,-1.34,-1.34,-1.35
308.61,1.33,2.68,1.34,2.69,-2.69,-2.23,-2.89,-1.36,-1.35,-1.35
311.69,1.30,2.66,1.31,2.66,-2.66,-2.19,-2.82,-1.36,-1.35,-1.36
314.81,1.27,2.63,1.27,2.63,-2.63,-2.15,-2.74,-1.36,-1.36,-1.36
317.96,1.24,2.61,1.24,2.60,-2.60,-2.11,-2.67,-1.36,-1.36,-1.37
321.14,1.21,2.57,1.20,2.57,-2.57,-2.07,-2.59,-1.36,-1.36,-1.36
324.35,1.17,2.55,1.17,2.54,-2.54,-2.03,-2.52,-1.37,-1.36,-1.38
327.59,1.14,2.50,1.14,2.51,-2.51,-1.99,-2.45,-1.37,-1.37,-1.36
330.87,1.11,2.48,1.11,2.48,-2.48,-1.95,-2.38,-1.37,-1.37,-1.37
334.18,1.09,2.47,1.08,2.45,-2.45,-1.91,-2.31,-1.36,-1.37,-1.38
337.52,1.05,2.42,1.05,2.42,-2.42,-1.88,-2.24,-1.37,-1.37,-1.37
340.90,1.02,2.40,1.02,2.38,-2.38,-1.84,-2.18,-1.36,-1.37,-1.38
344.30,0.98,2.35,0.98,2.35,-2.35,-1.80,-2.11,-1.37,-1.37,-1.37
347.75,0.95,2.31,0.95,2.32,-2.32,-1.77,-2.05,-1.37,-1.37,-1.36
351.23,0.92,2.30,0.91,2.28,-2.28,-1.73,-1.99,-1.36,-1.37,-1.38
354.74,0.88,2.24,0.88,2.24,-2.24,-1.70,-1.93,-1.36,-1.36,-1.36
358.28,0.84,2.21,0.84,2.20,-2.20,-1.66,-1.87,-1.36,-1.36,-1.37
361.87,0.81,2.18,0.80,2.16,-2.16,-1.63,-1.81,-1.35,-1.36,-1.37
365.49,0.76,2.13,0.76,2.12,-2.12,-1.60,-1.76,-1.36,-1.36,-1.37
369.14,0.72,2.08,0.72,2.08,-2.08,-1.56,-1.70,-1.36,-1.36,-1.36
372.83,0.68,2.04,0.68,2.04,-2.04,-1.53,-1.65,-1.36,-1.36,-1.36
376.56,0.63,2.00,0.63,2.00,-2.00,-1.50,-1.60,-1.37,-1.36,-1.37
380.33,0.59,1.96,0.59,1.95,-1.95,-1.46,-1.55,-1.36,-1.36,-1.37
384.13,0.55,1.92,0.55,1.91,-1.91,-1.43,-1.50,-1.36,-1.36,-1.37
387.97,0.50,1.86,0.50,1.86,-1.86,-1.40,-1.45,-1.36,-1.36,-1.36
391.85,0.45,1.82,0.46,1.82,-1.82,-1.37,-1.41,-1.37,-1.36,-1.37
395.77,0.41,1.78,0.41,1.77,-1.77,-1.34,-1.36,-1.36,-1.36,-1.37
399.73,0.37,1.74,0.37,1.73,-1.73,-1.31,-1.32,-1.36,-1.36,-1.37
403.72,0.32,1.68,0.33,1.68,-1.68,-1.28,-1.28,-1.36,-1.36,-1.36
407.76,0.28,1.64,0.28,1.64,-1.64,-1.25,-1.24,-1.36,-1.36,-1.36
411.84,0.24,1.60,0.24,1.60,-1.60,-1.22,-1.20,-1.36,-1.36,-1.36
415.96,0.20,1.56,0.19,1.55,-1.55,-1.19,-1.16,-1.36,-1.36,-1.36
420.12,0.15,1.52,0.15,1.51,-1.51,-1.16,-1.12,-1.36,-1.36,-1.37
424.32,0.11,1.48,0.11,1.47,-1.47,-1.13,-1.08,-1.36,-1.36,-1.37
428.56,0.06,1.42,0.06,1.43,-1.43,-1.10,-1.05,-1.37,-1.36,-1.36
432.85,0.02,1.38,0.02,1.38,-1.38,-1.07,-1.01,-1.36,-1.36,-1.36
437.18,-0.03,1.34,-0.02,1.34,-1.34,-1.04,-0.98,-1.37,-1.36,-1.37
441.55,-0.06,1.31,-0.07,1.30,-1.30,-1.02,-0.94,-1.36,-1.37,-1.37
445.96,-0.11,1.27,-0.11,1.25,-1.25,-0.99,-0.91,-1.36,-1.37,-1.38
450.42,-0.16,1.22,-0.16,1.21,-1.21,-0.96,-0.88,-1.37,-1.37,-1.38
454.93,-0.20,1.18,-0.20,1.17,-1.17,-0.93,-0.85,-1.37,-1.37,-1.38
459.48,-0.25,1.13,-0.25,1.12,-1.12,-0.91,-0.82,-1.37,-1.37,-1.38
464.07,-0.30,1.07,-0.29,1.08,-1.08,-0.88,-0.79,-1.38,-1.37,-1.37
468.71,-0.34,1.03,-0.34,1.03,-1.03,-0.85,-0.76,-1.37,-1.37,-1.37
473.40,-0.38,0.99,-0.38,0.99,-0.99,-0.83,-0.73,-1.37,-1.37,-1.37
478.13,-0.43,0.94,-0.43,0.94,-0.94,-0.80,-0.70,-1.37,-1.37,-1.37
482.91,-0.47,0.90,-0.47,0.90,-0.90,-0.77,-0.67,-1.37,-1.37,-1.37
487.74,-0.51,0.86,-0.51,0.85,-0.85,-0.74,-0.64,-1.36,-1.37,-1.37
492.62,-0.56,0.81,-0.56,0.81,-0.81,-0.72,-0.62,-1.37,-1.36,-1.37
497.55,-0.60,0.77,-0.60,0.76,-0.76,-0.69,-0.59,-1.36,-1.36,-1.37
502.52,-0.64,0.73,-0.64,0.71,-0.71,-0.66,-0.56,-1.35,-1.36,-1.37
507.55,-0.69,0.67,-0.69,0.67,-0.67,-0.64,-0.54,-1.36,-1.35,-1.36
512.62,-0.73,0.63,-0.73,0.62,-0.62,-0.61,-0.51,-1.35,-1.35,-1.36
517.75,-0.76,0.58,-0.77,0.58,-0.58,-0.58,-0.48,-1.34,-1.35,-1.34
522.93,-0.81,0.53,-0.81,0.53,-0.53,-0.55,-0.46,-1.34,-1.34,-1.34
