frequency,raw,error,smoothed,error_smoothed,equalization,parametric_eq,fixed_band_eq,equalized_raw,equalized_smoothed,target
20.00,9.99,0.32,9.99,0.32,-0.33,-0.57,-0.77,9.66,9.66,9.67
20.20,10.03,0.36,10.04,0.37,-0.37,-0.59,-0.79,9.67,9.67,9.67
20.40,10.07,0.40,10.08,0.41,-0.41,-0.62,-0.80,9.67,9.67,9.67
20.61,10.12,0.45,10.12,0.45,-0.45,-0.64,-0.82,9.67,9.67,9.67
20.81,10.16,0.50,10.16,0.50,-0.49,-0.66,-0.84,9.68,9.67,9.66
21.02,10.19,0.53,10.19,0.53,-0.53,-0.69,-0.87,9.67,9.67,9.66
21.23,10.22,0.56,10.23,0.57,-0.57,-0.71,-0.89,9.66,9.66,9.66
21.44,10.26,0.59,10.26,0.60,-0.61,-0.74,-0.91,9.66,9.66,9.67
21.66,10.30,0.64,10.30,0.64,-0.65,-0.76,-0.93,9.66,9.66,9.66
21.87,10.34,0.68,10.34,0.68,-0.69,-0.79,-0.95,9.66,9.66,9.66
22.09,10.38,0.73,10.38,0.73,-0.73,-0.81,-0.98,9.66,9.65,9.65
22.31,10.41,0.76,10.42,0.77,-0.77,-0.84,-1.00,9.65,9.65,9.65
22.54,10.45,0.81,10.45,0.81,-0.81,-0.86,-1.03,9.64,9.64,9.64
22.76,10.49,0.85,10.49,0.85,-0.85,-0.89,-1.05,9.64,9.63,9.64
22.99,10.52,0.89,10.53,0.90,-0.90,-0.91,-1.08,9.62,9.63,9.63
23.22,10.56,0.94,10.56,0.94,-0.94,-0.94,-1.11,9.62,9.62,9.62
23.45,10.59,0.97,10.59,0.98,-0.98,-0.96,-1.13,9.61,9.62,9.62
23.69,10.63,1.02,10.63,1.02,-1.02,-0.99,-1.16,9.61,9.61,9.61
23.92,10.66,1.06,10.66,1.06,-1.06,-1.02,-1.19,9.61,9.61,9.60
24.16,10.70,1.10,10.70,1.10,-1.09,-1.04,-1.22,9.61,9.60,9.60
24.40,10.72,1.12,10.73,1.13,-1.13,-1.07,-1.25,9.59,9.60,9.60
24.65,10.75,1.15,10.76,1.16,-1.17,-1.10,-1.28,9.59,9.59,9.60
24.89,10.79,1.19,10.79,1.19,-1.20,-1.13,-1.31,9.59,9.59,9.60
25.14,10.82,1.23,10.82,1.23,-1.23,-1.15,-1.34,9.59,9.59,9.59
25.39,10.85,1.27,10.85,1.27,-1.26,-1.18,-1.37,9.59,9.59,9.58
25.65,10.88,1.30,10.88,1.30,-1.30,-1.21,-1.40,9.59,9.59,9.58
25.91,10.91,1.33,10.91,1.33,-1.33,-1.24,-1.43,9.58,9.58,9.58
26.16,10.94,1.35,10.94,1.36,-1.36,-1.27,-1.46,9.58,9.58,9.59
26.43,10.97,1.38,10.97,1.38,-1.39,-1.30,-1.49,9.58,9.58,9.59
26.69,11.00,1.41,11.00,1.42,-1.42,-1.32,-1.53,9.58,9.59,9.59
26.96,11.03,1.45,11.03,1.45,-1.45,-1.35,-1.56,9.59,9.59,9.58
27.23,11.06,1.48,11.06,1.48,-1.47,-1.38,-1.59,9.59,9.58,9.58
27.50,11.08,1.50,11.09,1.50,-1.50,-1.41,-1.62,9.58,9.58,9.58
27.77,11.11,1.52,11.11,1.53,-1.53,-1.44,-1.65,9.58,9.58,9.59
28.05,11.14,1.56,11.14,1.56,-1.56,-1.47,-1.68,9.58,9.58,9.58
28.33,11.16,1.59,11.17,1.59,-1.59,-1.50,-1.71,9.57,9.57,9.57
28.62,11.19,1.63,11.19,1.62,-1.62,-1.53,-1.74,9.57,9.57,9.56
28.90,11.21,1.64,11.21,1.65,-1.65,-1.56,-1.77,9.56,9.56,9.57
29.19,11.24,1.68,11.24,1.68,-1.68,-1.60,-1.79,9.56,9.56,9.56
29.48,11.26,1.71,11.27,1.71,-1.71,-1.63,-1.82,9.55,9.55,9.55
29.78,11.29,1.75,11.29,1.75,-1.75,-1.66,-1.85,9.55,9.54,9.54
30.08,11.31,1.77,11.31,1.78,-1.77,-1.69,-1.87,9.54,9.54,9.54
30.38,11.33,1.80,11.33,1.80,-1.80,-1.72,-1.89,9.53,9.53,9.53
30.68,11.35,1.83,11.35,1.83,-1.83,-1.75,-1.92,9.52,9.52,9.52
30.99,11.37,1.85,11.38,1.86,-1.86,-1.79,-1.94,9.52,9.52,9.52
31.30,11.40,1.88,11.40,1.88,-1.88,-1.82,-1.96,9.52,9.52,9.52
31.61,11.42,1.90,11.42,1.90,-1.90,-1.85,-1.98,9.52,9.52,9.52
31.93,11.44,1.93,11.44,1.93,-1.92,-1.88,-2.00,9.52,9.52,9.51
32.24,11.46,1.94,11.46,1.95,-1.95,-1.92,-2.02,9.52,9.52,9.52
32.57,11.48,1.97,11.48,1.97,-1.97,-1.95,-2.03,9.51,9.51,9.51
32.89,11.50,1.99,11.50,1.99,-1.99,-1.99,-2.05,9.51,9.51,9.51
33.22,11.52,2.01,11.52,2.01,-2.02,-2.02,-2.07,9.50,9.50,9.51
33.55,11.53,2.03,11.54,2.04,-2.04,-2.05,-2.08,9.49,9.49,9.50
33.89,11.56,2.07,11.56,2.07,-2.07,-2.09,-2.10,9.49,9.49,9.49
34.23,11.58,2.11,11.58,2.10,-2.10,-2.12,-2.11,9.48,9.48,9.47
34.57,11.60,2.13,11.60,2.14,-2.13,-2.16,-2.13,9.47,9.47,9.47
34.92,11.61,2.16,11.62,2.16,-2.16,-2.19,-2.14,9.45,9.45,9.45
35.27,11.63,2.19,11.63,2.19,-2.20,-2.23,-2.16,9.43,9.43,9.44
35.62,11.64,2.23,11.64,2.23,-2.23,-2.26,-2.17,9.41,9.41,9.41
35.97,11.65,2.26,11.66,2.27,-2.27,-2.30,-2.19,9.38,9.38,9.39
36.33,11.67,2.31,11.67,2.31,-2.31,-2.34,-2.21,9.36,9.36,9.36
36.70,11.68,2.35,11.68,2.35,-2.35,-2.37,-2.22,9.33,9.33,9.33
37.06,11.70,2.40,11.70,2.40,-2.40,-2.41,-2.24,9.30,9.30,9.30
37.43,11.71,2.44,11.72,2.45,-2.45,-2.45,-2.26,9.27,9.27,9.27
37.81,11.73,2.49,11.73,2.49,-2.49,-2.48,-2.28,9.24,9.24,9.24
38.19,11.74,2.54,11.74,2.54,-2.54,-2.52,-2.30,9.21,9.21,9.20
38.57,11.75,2.57,11.76,2.58,-2.58,-2.56,-2.32,9.17,9.18,9.18
38.95,11.77,2.62,11.77,2.63,-2.62,-2.60,-2.35,9.15,9.15,9.15
39.34,11.78,2.67,11.78,2.67,-2.66,-2.63,-2.37,9.12,9.12,9.11
39.74,11.79,2.71,11.79,2.71,-2.70,-2.67,-2.40,9.09,9.09,9.08
40.14,11.80,2.74,11.80,2.74,-2.74,-2.71,-2.43,9.06,9.06,9.06
40.54,11.80,2.76,11.81,2.77,-2.78,-2.75,-2.46,9.02,9.03,9.04
40.94,11.82,2.81,11.82,2.81,-2.82,-2.79,-2.49,9.01,9.00,9.01
41.35,11.83,2.85,11.83,2.85,-2.85,-2.83,-2.53,8.98,8.98,8.98
41.76,11.84,2.89,11.84,2.89,-2.88,-2.87,-2.56,8.96,8.96,8.95
42.18,11.85,2.91,11.85,2.92,-2.92,-2.90,-2.60,8.94,8.93,8.94
42.60,11.85,2.94,11.86,2.95,-2.95,-2.94,-2.64,8.91,8.91,8.91
43.03,11.86,2.98,11.86,2.98,-2.98,-2.98,-2.68,8.88,8.89,8.88
43.46,11.87,3.01,11.87,3.01,-3.01,-3.02,-2.73,8.86,8.86,8.86
43.90,11.87,3.03,11.87,3.04,-3.04,-3.06,-2.77,8.83,8.84,8.84
44.33,11.87,3.07,11.88,3.07,-3.07,-3.10,-2.82,8.80,8.81,8.80
44.78,11.88,3.10,11.88,3.09,-3.10,-3.14,-2.87,8.78,8.78,8.78
45.23,11.88,3.11,11.89,3.13,-3.13,-3.18,-2.93,8.75,8.75,8.77
45.68,11.89,3.16,11.89,3.16,-3.17,-3.22,-2.98,8.72,8.72,8.73
46.13,11.90,3.22,11.90,3.21,-3.21,-3.26,-3.04,8.70,8.69,8.68
46.60,11.90,3.24,11.90,3.25,-3.24,-3.31,-3.10,8.66,8.66,8.66
47.06,11.91,3.29,11.91,3.29,-3.28,-3.35,-3.16,8.63,8.62,8.62
47.53,11.90,3.31,11.91,3.33,-3.33,-3.39,-3.22,8.57,8.58,8.59
48.01,11.91,3.38,11.91,3.37,-3.37,-3.43,-3.28,8.54,8.54,8.53
48.49,11.91,3.41,11.91,3.41,-3.42,-3.47,-3.35,8.49,8.49,8.50
48.97,11.91,3.46,11.91,3.46,-3.47,-3.51,-3.42,8.45,8.45,8.45
49.46,11.91,3.50,11.91,3.51,-3.51,-3.55,-3.49,8.40,8.40,8.41
49.96,11.91,3.57,11.91,3.56,-3.56,-3.59,-3.56,8.35,8.35,8.34
50.46,11.91,3.61,11.91,3.61,-3.61,-3.64,-3.63,8.30,8.30,8.30
50.96,11.91,3.66,11.91,3.66,-3.66,-3.68,-3.70,8.26,8.26,8.25
51.47,11.91,3.70,11.91,3.71,-3.70,-3.72,-3.78,8.21,8.21,8.21
51.99,11.91,3.75,11.91,3.75,-3.74,-3.76,-3.85,8.17,8.17,8.16
52.51,11.91,3.79,11.91,3.78,-3.79,-3.80,-3.93,8.12,8.12,8.12
53.03,11.90,3.81,11.91,3.83,-3.83,-3.84,-4.00,8.07,8.08,8.09
53.56,11.90,3.86,11.90,3.86,-3.87,-3.89,-4.08,8.03,8.03,8.04
54.10,11.90,3.92,11.90,3.91,-3.92,-3.93,-4.15,7.99,7.98,7.98
54.64,11.89,3.95,11.90,3.96,-3.96,-3.97,-4.23,7.93,7.94,7.94
55.18,11.89,4.01,11.89,4.01,-4.00,-4.01,-4.30,7.89,7.89,7.88
55.74,11.89,4.05,11.89,4.05,-4.05,-4.05,-4.37,7.85,7.84,7.84
56.29,11.88,4.08,11.89,4.09,-4.09,-4.10,-4.44,7.79,7.80,7.80
56.86,11.88,4.12,11.88,4.13,-4.13,-4.14,-4.51,7.76,7.75,7.76
57.42,11.87,4.17,11.88,4.17,-4.16,-4.18,-4.57,7.71,7.71,7.70
58.00,11.87,4.21,11.87,4.21,-4.20,-4.22,-4.63,7.67,7.67,7.66
58.58,11.87,4.24,11.87,4.24,-4.24,-4.27,-4.69,7.64,7.63,7.63
59.16,11.85,4.26,11.86,4.27,-4.28,-4.31,-4.74,7.58,7.58,7.59
59.76,11.85,4.30,11.85,4.31,-4.32,-4.35,-4.79,7.53,7.53,7.55
60.35,11.84,4.36,11.84,4.35,-4.37,-4.39,-4.84,7.47,7.47,7.48
60.96,11.83,4.40,11.83,4.41,-4.42,-4.43,-4.88,7.41,7.41,7.43
61.57,11.82,4.47,11.82,4.47,-4.47,-4.47,-4.92,7.35,7.35,7.35
62.18,11.81,4.52,11.82,4.53,-4.52,-4.52,-4.96,7.29,7.29,7.29
62.80,11.81,4.58,11.81,4.59,-4.57,-4.56,-4.99,7.24,7.23,7.23
63.43,11.80,4.64,11.80,4.64,-4.63,-4.60,-5.01,7.18,7.18,7.16
64.07,11.79,4.68,11.79,4.68,-4.67,-4.64,-5.03,7.12,7.12,7.11
64.71,11.78,4.72,11.78,4.72,-4.72,-4.68,-5.05,7.06,7.06,7.06
65.35,11.76,4.75,11.77,4.76,-4.76,-4.72,-5.06,7.00,7.00,7.01
66.01,11.75,4.80,11.75,4.80,-4.80,-4.76,-5.07,6.95,6.95,6.95
66.67,11.74,4.83,11.74,4.84,-4.84,-4.81,-5.07,6.90,6.89,6.91
67.33,11.72,4.88,11.73,4.88,-4.88,-4.85,-5.08,6.84,6.84,6.84
68.01,11.71,4.92,11.71,4.92,-4.92,-4.89,-5.08,6.79,6.79,6.79
68.69,11.70,4.97,11.70,4.97,-4.96,-4.93,-5.07,6.74,6.73,6.73
69.37,11.68,5.00,11.69,5.01,-5.01,-4.97,-5.07,6.68,6.68,6.68
70.07,11.67,5.04,11.67,5.05,-5.05,-5.01,-5.06,6.62,6.62,6.63
70.77,11.66,5.09,11.66,5.09,-5.09,-5.05,-5.05,6.57,6.56,6.57
71.48,11.64,5.13,11.64,5.13,-5.14,-5.09,-5.04,6.50,6.51,6.51
72.19,11.62,5.18,11.63,5.18,-5.18,-5.13,-5.04,6.44,6.45,6.44
72.91,11.61,5.22,11.61,5.23,-5.22,-5.17,-5.03,6.39,6.38,6.39
73.64,11.59,5.27,11.59,5.27,-5.27,-5.21,-5.02,6.33,6.33,6.32
74.38,11.57,5.31,11.58,5.31,-5.31,-5.25,-5.01,6.27,6.27,6.26
75.12,11.56,5.35,11.56,5.35,-5.35,-5.28,-5.00,6.22,6.21,6.21
75.87,11.54,5.37,11.54,5.38,-5.38,-5.32,-5.00,6.16,6.16,6.17
76.63,11.52,5.41,11.52,5.42,-5.42,-5.36,-4.99,6.10,6.11,6.11
77.40,11.50,5.45,11.50,5.45,-5.45,-5.40,-4.99,6.05,6.05,6.05
78.17,11.49,5.50,11.49,5.49,-5.49,-5.44,-4.99,6.01,6.00,5.99
78.95,11.46,5.50,11.47,5.52,-5.52,-5.47,-5.00,5.95,5.95,5.96
79.74,11.45,5.55,11.45,5.55,-5.55,-5.51,-5.00,5.90,5.90,5.90
80.54,11.42,5.58,11.43,5.58,-5.58,-5.55,-5.01,5.84,5.85,5.84
81.35,11.41,5.61,11.41,5.61,-5.61,-5.59,-5.02,5.80,5.79,5.80
82.16,11.38,5.63,11.38,5.64,-5.64,-5.62,-5.04,5.74,5.74,5.75
82.98,11.36,5.67,11.36,5.67,-5.67,-5.66,-5.06,5.69,5.69,5.69
83.81,11.34,5.70,11.34,5.70,-5.70,-5.70,-5.08,5.64,5.64,5.64
84.65,11.32,5.74,11.32,5.74,-5.73,-5.73,-5.10,5.59,5.59,5.58
85.50,11.29,5.76,11.30,5.76,-5.76,-5.77,-5.13,5.53,5.53,5.53
86.35,11.27,5.79,11.27,5.79,-5.79,-5.80,-5.17,5.48,5.48,5.48
87.22,11.24,5.81,11.24,5.82,-5.82,-5.84,-5.20,5.42,5.42,5.43
88.09,11.22,5.85,11.22,5.85,-5.85,-5.87,-5.25,5.37,5.37,5.37
88.97,11.19,5.87,11.20,5.88,-5.88,-5.91,-5.29,5.31,5.32,5.32
89.86,11.17,5.91,11.17,5.91,-5.91,-5.94,-5.34,5.26,5.26,5.26
90.76,11.14,5.94,11.14,5.94,-5.94,-5.97,-5.39,5.20,5.20,5.20
91.66,11.11,5.96,11.12,5.97,-5.97,-6.01,-5.45,5.14,5.15,5.15
92.58,11.09,6.00,11.09,6.00,-6.00,-6.04,-5.51,5.09,5.09,5.09
93.51,11.06,6.03,11.07,6.03,-6.04,-6.07,-5.58,5.02,5.03,5.03
94.44,11.04,6.07,11.04,6.07,-6.08,-6.10,-5.65,4.97,4.96,4.97
95.39,11.01,6.11,11.01,6.11,-6.11,-6.14,-5.72,4.90,4.90,4.90
96.34,10.98,6.15,10.98,6.15,-6.15,-6.17,-5.79,4.83,4.83,4.83
97.30,10.95,6.18,10.95,6.19,-6.19,-6.20,-5.87,4.76,4.76,4.77
98.28,10.92,6.24,10.92,6.24,-6.23,-6.23,-5.96,4.69,4.69,4.68
99.26,10.89,6.28,10.89,6.28,-6.27,-6.26,-6.04,4.62,4.62,4.61
100.25,10.86,6.31,10.86,6.31,-6.31,-6.29,-6.13,4.56,4.56,4.55
101.25,10.83,6.34,10.83,6.34,-6.34,-6.32,-6.22,4.49,4.49,4.49
102.27,10.79,6.36,10.80,6.37,-6.37,-6.35,-6.31,4.42,4.42,4.43
103.29,10.76,6.40,10.76,6.40,-6.40,-6.38,-6.41,4.36,4.36,4.36
104.32,10.73,6.42,10.73,6.42,-6.43,-6.41,-6.50,4.30,4.30,4.31
105.37,10.70,6.45,10.70,6.46,-6.45,-6.44,-6.60,4.25,4.25,4.25
106.42,10.67,6.48,10.67,6.48,-6.48,-6.47,-6.70,4.19,4.19,4.19
107.48,10.63,6.51,10.64,6.51,-6.51,-6.49,-6.79,4.13,4.13,4.12
108.56,10.60,6.53,10.60,6.53,-6.53,-6.52,-6.89,4.07,4.07,4.07
109.64,10.56,6.54,10.57,6.55,-6.56,-6.55,-6.98,4.01,4.01,4.02
110.74,10.53,6.58,10.53,6.58,-6.58,-6.57,-7.08,3.95,3.95,3.95
111.85,10.50,6.61,10.50,6.61,-6.61,-6.60,-7.17,3.89,3.89,3.89
112.97,10.46,6.63,10.46,6.63,-6.64,-6.62,-7.25,3.83,3.83,3.83
114.10,10.43,6.66,10.43,6.66,-6.66,-6.65,-7.34,3.77,3.76,3.77
115.24,10.38,6.68,10.39,6.69,-6.69,-6.67,-7.41,3.69,3.69,3.70
116.39,10.35,6.73,10.35,6.72,-6.73,-6.70,-7.48,3.63,3.63,3.62
117.55,10.31,6.75,10.31,6.76,-6.76,-6.72,-7.55,3.56,3.56,3.56
118.73,10.27,6.79,10.27,6.79,-6.79,-6.75,-7.61,3.49,3.49,3.48
119.92,10.23,6.82,10.23,6.82,-6.82,-6.77,-7.66,3.42,3.42,3.41
121.12,10.19,6.84,10.19,6.85,-6.85,-6.79,-7.70,3.35,3.35,3.35
122.33,10.15,6.88,10.15,6.88,-6.88,-6.81,-7.74,3.27,3.27,3.27
123.55,10.11,6.90,10.11,6.90,-6.91,-6.83,-7.77,3.20,3.20,3.21
124.79,10.07,6.93,10.07,6.94,-6.94,-6.86,-7.78,3.13,3.13,3.14
126.03,10.03,6.96,10.03,6.97,-6.98,-6.88,-7.79,3.06,3.06,3.07
127.29,9.99,7.01,9.99,7.01,-7.01,-6.90,-7.79,2.98,2.98,2.98
128.57,9.95,7.04,9.95,7.04,-7.04,-6.92,-7.78,2.91,2.91,2.91
129.85,9.90,7.07,9.91,7.08,-7.07,-6.94,-7.77,2.83,2.84,2.83
131.15,9.87,7.11,9.87,7.11,-7.10,-6.95,-7.74,2.77,2.77,2.76
132.46,9.82,7.13,9.82,7.13,-7.13,-6.97,-7.71,2.69,2.70,2.69
133.79,9.78,7.15,9.78,7.15,-7.15,-6.99,-7.67,2.63,2.63,2.63
135.12,9.73,7.17,9.74,7.17,-7.17,-7.01,-7.62,2.56,2.57,2.56
136.48,9.69,7.17,9.69,7.18,-7.18,-7.02,-7.57,2.51,2.51,2.52
137.84,9.65,7.19,9.65,7.19,-7.20,-7.04,-7.52,2.46,2.45,2.46
139.22,9.60,7.21,9.60,7.20,-7.20,-7.05,-7.46,2.40,2.40,2.39
140.61,9.55,7.20,9.56,7.22,-7.21,-7.07,-7.39,2.34,2.35,2.35
142.02,9.52,7.22,9.51,7.22,-7.22,-7.08,-7.33,2.30,2.29,2.30
143.44,9.47,7.23,9.47,7.22,-7.23,-7.10,-7.26,2.25,2.24,2.24
144.87,9.42,7.22,9.43,7.23,-7.23,-7.11,-7.19,2.19,2.20,2.20
146.32,9.38,7.23,9.38,7.23,-7.23,-7.12,-7.12,2.15,2.15,2.15
147.78,9.34,7.24,9.34,7.24,-7.24,-7.13,-7.05,2.11,2.10,2.10
149.26,9.29,7.23,9.29,7.24,-7.24,-7.15,-6.98,2.06,2.06,2.06
150.75,9.24,7.24,9.25,7.24,-7.24,-7.16,-6.91,2.01,2.01,2.00
152.26,9.20,7.23,9.20,7.23,-7.24,-7.17,-6.84,1.97,1.96,1.97
153.78,9.14,7.23,9.15,7.23,-7.23,-7.18,-6.77,1.91,1.91,1.91
155.32,9.10,7.23,9.10,7.23,-7.23,-7.18,-6.71,1.87,1.87,1.87
156.88,9.05,7.23,9.05,7.23,-7.24,-7.19,-6.65,1.82,1.82,1.82
158.44,9.00,7.23,9.00,7.23,-7.24,-7.20,-6.59,1.77,1.77,1.77
160.03,8.95,7.23,8.95,7.23,-7.24,-7.20,-6.54,1.72,1.72,1.72
161.63,8.90,7.23,8.90,7.24,-7.24,-7.21,-6.49,1.66,1.66,1.67
163.24,8.85,7.25,8.85,7.25,-7.24,-7.21,-6.45,1.61,1.61,1.60
164.88,8.80,7.24,8.80,7.25,-7.24,-7.22,-6.40,1.56,1.56,1.56
166.53,8.75,7.25,8.75,7.24,-7.25,-7.22,-6.37,1.51,1.51,1.50
168.19,8.69,7.23,8.70,7.24,-7.25,-7.22,-6.33,1.45,1.45,1.46
169.87,8.65,7.24,8.65,7.25,-7.25,-7.22,-6.30,1.40,1.40,1.41
171.57,8.59,7.25,8.60,7.25,-7.25,-7.23,-6.28,1.35,1.35,1.34
173.29,8.54,7.25,8.54,7.25,-7.25,-7.23,-6.26,1.30,1.30,1.29
175.02,8.49,7.24,8.49,7.24,-7.24,-7.22,-6.25,1.25,1.24,1.25
176.77,8.43,7.23,8.44,7.24,-7.24,-7.22,-6.24,1.19,1.20,1.20
178.54,8.38,7.23,8.38,7.24,-7.24,-7.22,-6.23,1.15,1.15,1.15
180.32,8.33,7.24,8.33,7.23,-7.23,-7.21,-6.23,1.10,1.10,1.09
182.13,8.27,7.22,8.27,7.22,-7.22,-7.21,-6.23,1.05,1.05,1.05
183.95,8.21,7.20,8.22,7.21,-7.21,-7.20,-6.24,1.00,1.00,1.01
185.79,8.16,7.21,8.16,7.20,-7.21,-7.20,-6.25,0.96,0.95,0.95
187.65,8.10,7.19,8.10,7.19,-7.20,-7.19,-6.27,0.90,0.90,0.91
189.52,8.04,7.18,8.05,7.19,-7.19,-7.18,-6.29,0.85,0.86,0.86
191.42,7.99,7.18,7.99,7.18,-7.18,-7.17,-6.32,0.81,0.81,0.81
193.33,7.93,7.17,7.93,7.17,-7.17,-7.16,-6.35,0.76,0.76,0.76
195.27,7.86,7.15,7.87,7.16,-7.16,-7.14,-6.38,0.71,0.71,0.71
197.22,7.81,7.15,7.81,7.15,-7.14,-7.13,-6.42,0.67,0.67,0.66
199.19,7.75,7.12,7.75,7.13,-7.12,-7.12,-6.46,0.63,0.63,0.63
201.18,7.69,7.11,7.69,7.11,-7.10,-7.10,-6.51,0.59,0.59,0.58
203.19,7.63,7.08,7.63,7.08,-7.08,-7.08,-6.55,0.55,0.55,0.55
205.23,7.56,7.05,7.57,7.06,-7.06,-7.07,-6.60,0.50,0.51,0.51
207.28,7.51,7.03,7.51,7.03,-7.04,-7.05,-6.65,0.48,0.47,0.48
209.35,7.44,7.00,7.44,7.01,-7.01,-7.02,-6.71,0.43,0.43,0.44
211.44,7.38,6.98,7.38,6.98,-6.98,-7.00,-6.76,0.40,0.40,0.40
213.56,7.32,6.96,7.32,6.96,-6.96,-6.98,-6.81,0.37,0.36,0.36
215.69,7.26,6.93,7.26,6.93,-6.93,-6.96,-6.87,0.33,0.33,0.33
217.85,7.19,6.89,7.20,6.90,-6.90,-6.93,-6.92,0.30,0.30,0.30
220.03,7.13,6.87,7.13,6.86,-6.86,-6.90,-6.97,0.27,0.27,0.26
222.23,7.06,6.82,7.06,6.83,-6.83,-6.87,-7.02,0.24,0.24,0.24
224.45,6.99,6.78,6.99,6.79,-6.79,-6.84,-7.07,0.21,0.21,0.21
226.70,6.92,6.74,6.93,6.74,-6.75,-6.81,-7.11,0.18,0.18,0.18
228.96,6.86,6.70,6.86,6.70,-6.70,-6.78,-7.15,0.16,0.16,0.16
231.25,6.79,6.65,6.79,6.66,-6.66,-6.75,-7.18,0.13,0.13,0.14
233.57,6.72,6.61,6.72,6.62,-6.62,-6.71,-7.21,0.11,0.11,0.11
235.90,6.65,6.57,6.65,6.57,-6.57,-6.68,-7.23,0.08,0.08,0.08
238.26,6.58,6.53,6.58,6.52,-6.52,-6.64,-7.24,0.06,0.06,0.05
240.64,6.51,6.46,6.52,6.47,-6.47,-6.60,-7.25,0.04,0.04,0.05
243.05,6.45,6.42,6.45,6.42,-6.42,-6.56,-7.25,0.03,0.02,0.03
245.48,6.37,6.37,6.38,6.37,-6.37,-6.52,-7.24,0.00,0.01,-0.00
247.93,6.30,6.32,6.30,6.32,-6.31,-6.48,-7.22,-0.01,-0.01,-0.02
250.41,6.23,6.25,6.23,6.26,-6.25,-6.43,-7.19,-0.02,-0.02,-0.02
252.92,6.16,6.19,6.16,6.19,-6.20,-6.39,-7.16,-0.03,-0.04,-0.03
255.45,6.08,6.13,6.09,6.13,-6.14,-6.34,-7.11,-0.05,-0.05,-0.05
258.00,6.01,6.07,6.01,6.07,-6.08,-6.29,-7.06,-0.06,-0.06,-0.06
260.58,5.94,6.01,5.94,6.02,-6.02,-6.24,-6.99,-0.07,-0.08,-0.07
263.19,5.87,5.96,5.87,5.96,-5.96,-6.19,-6.92,-0.09,-0.09,-0.09
265.82,5.80,5.90,5.80,5.90,-5.90,-6.14,-6.84,-0.10,-0.10,-0.10
268.48,5.73,5.84,5.73,5.85,-5.85,-6.09,-6.76,-0.11,-0.11,-0.11
271.16,5.66,5.79,5.66,5.79,-5.79,-6.04,-6.66,-0.13,-0.13,-0.13
273.87,5.59,5.73,5.59,5.73,-5.74,-5.98,-6.56,-0.14,-0.15,-0.14
276.61,5.52,5.68,5.52,5.69,-5.68,-5.92,-6.46,-0.16,-0.16,-0.16
279.38,5.45,5.63,5.46,5.63,-5.63,-5.87,-6.35,-0.18,-0.17,-0.18
282.17,5.40,5.59,5.40,5.58,-5.58,-5.81,-6.24,-0.18,-0.18,-0.19
284.99,5.34,5.52,5.34,5.53,-5.53,-5.75,-6.12,-0.19,-0.19,-0.18
287.84,5.28,5.47,5.29,5.48,-5.48,-5.69,-6.00,-0.20,-0.20,-0.19
290.72,5.23,5.45,5.23,5.43,-5.44,-5.62,-5.88,-0.20,-0.21,-0.22
293.63,5.17,5.38,5.17,5.39,-5.39,-5.56,-5.76,-0.22,-0.21,-0.21
296.57,5.12,5.34,5.12,5.34,-5.34,-5.50,-5.64,-0.22,-0.22,-0.22
299.53,5.07,5.30,5.07,5.30,-5.30,-5.43,-5.52,-0.23,-0.23,-0.23
302.53,5.02,5.25,5.02,5.26,-5.26,-5.37,-5.39,-0.24,-0.24,-0.23
305.55,4.98,5.22,4.98,5.22,-5.22,-5.30,-5.27,-0.24,-0.24,-0.24
308.61,4.93,5.17,4.94,5.18,-5.18,-5.23,-5.15,-0.25,-0.25,-0.24
311.69,4.90,5.15,4.90,5.15,-5.15,-5.16,-5.03,-0.24,-0.25,-0.25
314.81,4.86,5.11,4.86,5.11,-5.11,-5.09,-4.91,-0.24,-0.25,-0.25
317.96,4.81,5.07,4.82,5.07,-5.07,-5.02,-4.79,-0.25,-0.25,-0.26
321.14,4.77,5.02,4.77,5.03,-5.03,-4.95,-4.67,-0.25,-0.26,-0.25
324.35,4.72,4.99,4.72,4.98,-4.98,-4.88,-4.56,-0.26,-0.26,-0.27
327.59,4.67,4.92,4.67,4.93,-4.94,-4.80,-4.45,-0.26,-0.26,-0.25
330.87,4.62,4.88,4.62,4.88,-4.89,-4.73,-4.34,-0.26,-0.26,-0.26
334.18,4.57,4.84,4.57,4.83,-4.83,-4.66,-4.23,-0.26,-0.26,-0.27
337.52,4.51,4.77,4.52,4.79,-4.78,-4.58,-4.13,-0.27,-0.26,-0.26
340.90,4.46,4.73,4.46,4.72,-4.72,-4.51,-4.03,-0.26,-0.26,-0.27
344.30,4.40,4.66,4.40,4.66,-4.66,-4.43,-3.93,-0.26,-0.26,-0.26
347.75,4.33,4.58,4.34,4.60,-4.60,-4.35,-3.83,-0.27,-0.26,-0.25
351.23,4.28,4.55,4.28,4.53,-4.54,-4.28,-3.74,-0.25,-0.26,-0.27
354.74,4.21,4.46,4.21,4.47,-4.47,-4.20,-3.65,-0.26,-0.26,-0.25
358.28,4.13,4.39,4.14,4.40,-4.40,-4.12,-3.56,-0.27,-0.26,-0.26
361.87,4.07,4.33,4.07,4.33,-4.33,-4.04,-3.48,-0.26,-0.26,-0.26
365.49,4.00,4.26,4.00,4.26,-4.26,-3.96,-3.39,-0.25,-0.26,-0.26
369.14,3.92,4.17,3.93,4.18,-4.18,-3.88,-3.32,-0.26,-0.26,-0.25
372.83,3.85,4.10,3.85,4.10,-4.11,-3.80,-3.24,-0.26,-0.26,-0.25
376.56,3.77,4.03,3.78,4.03,-4.03,-3.72,-3.16,-0.26,-0.26,-0.26
380.33,3.70,3.96,3.70,3.96,-3.96,-3.64,-3.09,-0.25,-0.26,-0.26
384.13,3.62,3.88,3.62,3.88,-3.88,-3.56,-3.02,-0.26,-0.26,-0.26
387.97,3.54,3.79,3.54,3.80,-3.80,-3.48,-2.96,-0.26,-0.26,-0.25
391.85,3.46,3.72,3.46,3.72,-3.72,-3.40,-2.89,-0.26,-0.26,-0.26
395.77,3.38,3.64,3.38,3.64,-3.64,-3.32,-2.83,-0.26,-0.26,-0.26
399.73,3.30,3.56,3.30,3.56,-3.56,-3.24,-2.77,-0.26,-0.26,-0.26
403.72,3.22,3.47,3.22,3.48,-3.48,-3.16,-2.71,-0.26,-0.26,-0.25
407.76,3.14,3.39,3.14,3.39,-3.40,-3.08,-2.65,-0.25,-0.25,-0.25
411.84,3.06,3.31,3.06,3.31,-3.31,-3.00,-2.60,-0.25,-0.25,-0.25
415.96,2.98,3.23,2.98,3.23,-3.23,-2.91,-2.55,-0.25,-0.25,-0.25
420.12,2.89,3.15,2.90,3.15,-3.15,-2.83,-2.49,-0.26,-0.25,-0.26
424.32,2.81,3.07,2.81,3.07,-3.07,-2.75,-2.44,-0.26,-0.26,-0.26
428.56,2.73,2.98,2.73,2.99,-2.99,-2.67,-2.39,-0.26,-0.26,-0.25
432.85,2.65,2.90,2.65,2.91,-2.91,-2.59,-2.34,-0.26,-0.26,-0.25
437.18,2.57,2.83,2.57,2.83,-2.83,-2.51,-2.30,-0.26,-0.26,-0.26
441.55,2.49,2.75,2.49,2.75,-2.75,-2.43,-2.25,-0.26,-0.26,-0.26
445.96,2.40,2.67,2.41,2.67,-2.67,-2.35,-2.20,-0.27,-0.26,-0.27
450.42,2.32,2.59,2.32,2.59,-2.59,-2.27,-2.15,-0.26,-0.27,-0.27
454.93,2.23,2.50,2.23,2.51,-2.50,-2.19,-2.11,-0.27,-0.27,-0.27
459.48,2.15,2.42,2.15,2.42,-2.42,-2.11,-2.06,-0.27,-0.27,-0.27
464.07,2.06,2.32,2.07,2.33,-2.33,-2.03,-2.02,-0.27,-0.27,-0.26
468.71,1.98,2.24,1.98,2.24,-2.25,-1.95,-1.97,-0.27,-0.27,-0.26
473.40,1.90,2.16,1.90,2.16,-2.16,-1.87,-1.92,-0.26,-0.26,-0.26
478.13,1.81,2.07,1.82,2.08,-2.08,-1.79,-1.88,-0.27,-0.26,-0.26
482.91,1.73,1.99,1.73,1.99,-1.99,-1.71,-1.83,-0.26,-0.26,-0.26
487.74,1.65,1.91,1.65,1.91,-1.91,-1.63,-1.78,-0.26,-0.26,-0.26
492.62,1.56,1.82,1.57,1.83,-1.82,-1.55,-1.73,-0.26,-0.26,-0.26
497.55,1.48,1.74,1.48,1.74,-1.73,-1.47,-1.68,-0.25,-0.26,-0.26
