frequency,raw,error,smoothed,error_smoothed,equalization,parametric_eq,fixed_band_eq,equalized_raw,equalized_smoothed,target
20.00,-15.05,-15.83,-15.05,-15.83,15.83,14.64,5.98,0.77,0.77,0.77
20.20,-14.90,-15.77,-14.90,-15.76,15.76,14.78,6.12,0.86,0.86,0.86
20.40,-14.75,-15.70,-14.75,-15.70,15.70,14.89,6.27,0.95,0.94,0.94
20.61,-14.61,-15.62,-14.60,-15.63,15.63,14.99,6.41,1.02,1.02,1.01
20.81,-14.45,-15.56,-14.45,-15.55,15.55,15.07,6.57,1.10,1.10,1.10
21.02,-14.30,-15.49,-14.30,-15.48,15.47,15.13,6.72,1.17,1.17,1.18
21.23,-14.15,-15.40,-14.15,-15.40,15.39,15.16,6.88,1.24,1.24,1.24
21.44,-14.00,-15.30,-14.00,-15.30,15.30,15.17,7.05,1.30,1.30,1.30
21.66,-13.86,-15.21,-13.85,-15.21,15.21,15.16,7.22,1.35,1.35,1.35
21.87,-13.70,-15.10,-13.70,-15.11,15.11,15.13,7.39,1.41,1.41,1.40
22.09,-13.55,-15.00,-13.55,-15.00,15.00,15.08,7.57,1.45,1.45,1.45
22.31,-13.39,-14.89,-13.40,-14.90,14.89,15.01,7.75,1.50,1.50,1.50
22.54,-13.25,-14.79,-13.24,-14.79,14.78,14.92,7.94,1.54,1.54,1.54
22.76,-13.09,-14.67,-13.09,-14.67,14.67,14.81,8.13,1.58,1.58,1.58
22.99,-12.94,-14.56,-12.94,-14.56,14.56,14.69,8.32,1.62,1.62,1.61
23.22,-12.79,-14.45,-12.79,-14.45,14.45,14.56,8.53,1.66,1.66,1.65
23.45,-12.64,-14.34,-12.64,-14.33,14.34,14.42,8.73,1.70,1.70,1.69
23.69,-12.50,-14.23,-12.49,-14.23,14.23,14.27,8.94,1.73,1.73,1.73
23.92,-12.34,-14.11,-12.34,-14.12,14.11,14.11,9.16,1.77,1.77,1.77
24.16,-12.19,-14.01,-12.19,-14.01,14.00,13.94,9.38,1.81,1.80,1.82
24.40,-12.04,-13.89,-12.04,-13.89,13.88,13.78,9.61,1.84,1.84,1.85
24.65,-11.90,-13.77,-11.89,-13.77,13.77,13.60,9.84,1.87,1.88,1.87
24.89,-11.73,-13.63,-11.74,-13.64,13.65,13.43,10.07,1.92,1.91,1.90
25.14,-11.58,-13.52,-11.58,-13.52,13.53,13.26,10.32,1.95,1.95,1.94
25.39,-11.43,-13.40,-11.43,-13.41,13.41,13.08,10.56,1.98,1.98,1.97
25.65,-11.28,-13.30,-11.28,-13.29,13.29,12.91,10.81,2.01,2.01,2.01
25.91,-11.14,-13.17,-11.14,-13.17,13.17,12.74,11.06,2.04,2.04,2.03
26.16,-10.99,-13.05,-10.99,-13.06,13.06,12.57,11.32,2.07,2.07,2.06
26.43,-10.85,-12.95,-10.84,-12.94,12.94,12.41,11.58,2.09,2.10,2.10
26.69,-10.69,-12.83,-10.70,-12.83,12.82,12.24,11.84,2.13,2.13,2.13
26.96,-10.55,-12.71,-10.55,-12.71,12.71,12.08,12.10,2.16,2.16,2.16
27.23,-10.41,-12.60,-10.40,-12.59,12.59,11.93,12.35,2.19,2.19,2.19
27.50,-10.25,-12.48,-10.26,-12.48,12.48,11.77,12.61,2.22,2.22,2.22
27.77,-10.11,-12.35,-10.11,-12.36,12.36,11.62,12.86,2.25,2.25,2.24
28.05,-9.96,-12.25,-9.97,-12.24,12.25,11.48,13.11,2.28,2.28,2.28
28.33,-9.82,-12.13,-9.82,-12.13,12.13,11.34,13.35,2.31,2.31,2.30
28.62,-9.69,-12.02,-9.68,-12.02,12.02,11.20,13.58,2.33,2.34,2.33
28.90,-9.54,-11.92,-9.54,-11.91,11.91,11.07,13.80,2.37,2.36,2.37
29.19,-9.40,-11.80,-9.40,-11.80,11.80,10.94,14.00,2.39,2.39,2.39
29.48,-9.26,-11.70,-9.26,-11.69,11.69,10.82,14.18,2.43,2.43,2.44
29.78,-9.13,-11.58,-9.12,-11.58,11.58,10.70,14.33,2.46,2.46,2.45
30.08,-8.99,-11.47,-8.99,-11.47,11.48,10.59,14.47,2.49,2.49,2.48
30.38,-8.86,-11.37,-8.86,-11.37,11.37,10.48,14.57,2.52,2.52,2.51
30.68,-8.72,-11.27,-8.73,-11.27,11.27,10.38,14.65,2.54,2.54,2.54
30.99,-8.61,-11.17,-8.60,-11.16,11.16,10.28,14.69,2.56,2.56,2.56
31.30,-8.48,-11.06,-8.48,-11.06,11.06,10.18,14.70,2.58,2.58,2.58
31.61,-8.34,-10.96,-8.35,-10.96,10.96,10.09,14.68,2.61,2.61,2.61
31.93,-8.23,-10.86,-8.22,-10.85,10.85,10.01,14.63,2.63,2.63,2.63
32.24,-8.09,-10.74,-8.10,-10.75,10.75,9.92,14.54,2.66,2.66,2.65
32.57,-7.97,-10.66,-7.97,-10.65,10.65,9.85,14.43,2.68,2.68,2.68
32.89,-7.84,-10.55,-7.84,-10.55,10.55,9.78,14.30,2.71,2.70,2.70
33.22,-7.72,-10.45,-7.72,-10.45,10.45,9.71,14.14,2.72,2.72,2.72
33.55,-7.60,-10.34,-7.61,-10.35,10.34,9.65,13.96,2.74,2.74,2.74
33.89,-7.49,-10.25,-7.49,-10.25,10.24,9.59,13.76,2.75,2.75,2.75
34.23,-7.37,-10.15,-7.37,-10.14,10.14,9.53,13.55,2.77,2.77,2.77
34.57,-7.25,-10.04,-7.26,-10.04,10.04,9.48,13.33,2.79,2.78,2.78
34.92,-7.14,-9.94,-7.14,-9.94,9.94,9.43,13.10,2.80,2.80,2.79
35.27,-7.04,-9.85,-7.03,-9.84,9.84,9.38,12.86,2.80,2.81,2.81
35.62,-6.92,-9.73,-6.93,-9.74,9.74,9.33,12.62,2.81,2.81,2.80
35.97,-6.82,-9.63,-6.82,-9.64,9.63,9.29,12.37,2.81,2.81,2.81
36.33,-6.71,-9.54,-6.72,-9.54,9.53,9.25,12.13,2.82,2.82,2.83
36.70,-6.61,-9.44,-6.61,-9.44,9.43,9.20,11.88,2.81,2.82,2.82
37.06,-6.50,-9.32,-6.50,-9.33,9.32,9.16,11.64,2.82,2.82,2.82
37.43,-6.39,-9.21,-6.39,-9.21,9.22,9.12,11.40,2.83,2.83,2.82
37.81,-6.28,-9.11,-6.29,-9.11,9.12,9.08,11.16,2.83,2.83,2.82
38.19,-6.18,-9.01,-6.19,-9.01,9.01,9.03,10.93,2.83,2.83,2.82
38.57,-6.09,-8.92,-6.09,-8.91,8.91,8.98,10.70,2.81,2.82,2.82
38.95,-5.99,-8.81,-6.00,-8.81,8.81,8.94,10.48,2.81,2.81,2.82
39.34,-5.90,-8.70,-5.90,-8.71,8.71,8.89,10.26,2.81,2.81,2.80
39.74,-5.80,-8.61,-5.81,-8.61,8.61,8.83,10.04,2.81,2.81,2.80
40.14,-5.71,-8.51,-5.72,-8.51,8.52,8.78,9.84,2.80,2.80,2.79
40.54,-5.63,-8.43,-5.63,-8.42,8.42,8.72,9.63,2.79,2.79,2.79
40.94,-5.54,-8.33,-5.55,-8.33,8.33,8.66,9.43,2.78,2.78,2.78
41.35,-5.46,-8.25,-5.46,-8.24,8.23,8.59,9.24,2.77,2.77,2.78
41.76,-5.37,-8.14,-5.37,-8.14,8.14,8.52,9.05,2.77,2.77,2.77
42.18,-5.28,-8.05,-5.29,-8.05,8.05,8.44,8.87,2.77,2.77,2.76
42.60,-5.20,-7.96,-5.20,-7.96,7.96,8.37,8.70,2.76,2.76,2.75
43.03,-5.12,-7.88,-5.13,-7.88,7.87,8.28,8.53,2.75,2.75,2.75
43.46,-5.05,-7.80,-5.05,-7.79,7.78,8.20,8.36,2.73,2.73,2.74
43.90,-4.97,-7.70,-4.97,-7.70,7.69,8.11,8.20,2.72,2.72,2.72
44.33,-4.89,-7.60,-4.90,-7.60,7.60,8.01,8.05,2.71,2.71,2.70
44.78,-4.82,-7.52,-4.82,-7.51,7.52,7.92,7.90,2.69,2.70,2.69
45.23,-4.74,-7.43,-4.75,-7.43,7.43,7.81,7.75,2.69,2.68,2.68
45.68,-4.67,-7.35,-4.67,-7.35,7.35,7.71,7.61,2.67,2.67,2.67
46.13,-4.60,-7.27,-4.60,-7.26,7.27,7.60,7.47,2.66,2.67,2.66
46.60,-4.52,-7.19,-4.53,-7.18,7.19,7.49,7.34,2.66,2.66,2.66
47.06,-4.45,-7.11,-4.46,-7.11,7.11,7.38,7.22,2.66,2.65,2.65
47.53,-4.39,-7.04,-4.39,-7.04,7.04,7.27,7.09,2.64,2.64,2.64
48.01,-4.33,-6.98,-4.33,-6.97,6.96,7.15,6.97,2.63,2.63,2.64
48.49,-4.26,-6.90,-4.26,-6.89,6.89,7.04,6.86,2.62,2.62,2.63
48.97,-4.19,-6.82,-4.20,-6.81,6.81,6.92,6.75,2.62,2.62,2.62
49.46,-4.12,-6.73,-4.13,-6.73,6.74,6.80,6.64,2.62,2.61,2.60
49.96,-4.06,-6.66,-4.06,-6.66,6.67,6.69,6.54,2.60,2.60,2.59
50.46,-3.99,-6.60,-4.00,-6.59,6.59,6.57,6.44,2.60,2.60,2.60
50.96,-3.93,-6.54,-3.93,-6.53,6.52,6.45,6.34,2.59,2.59,2.60
51.47,-3.85,-6.45,-3.86,-6.45,6.45,6.34,6.25,2.60,2.60,2.59
51.99,-3.78,-6.38,-3.79,-6.38,6.38,6.22,6.16,2.60,2.60,2.59
52.51,-3.71,-6.31,-3.72,-6.31,6.31,6.11,6.07,2.60,2.60,2.59
53.03,-3.65,-6.25,-3.65,-6.24,6.24,6.00,5.98,2.59,2.59,2.59
53.56,-3.58,-6.18,-3.58,-6.17,6.17,5.89,5.90,2.58,2.58,2.59
54.10,-3.51,-6.10,-3.51,-6.09,6.09,5.78,5.81,2.57,2.58,2.58
54.64,-3.43,-6.01,-3.44,-6.01,6.01,5.67,5.73,2.58,2.57,2.57
55.18,-3.36,-5.93,-3.36,-5.92,5.93,5.57,5.65,2.56,2.56,2.56
55.74,-3.29,-5.84,-3.29,-5.84,5.84,5.47,5.57,2.55,2.55,2.54
56.29,-3.22,-5.77,-3.22,-5.76,5.76,5.37,5.50,2.53,2.53,2.54
56.86,-3.15,-5.68,-3.15,-5.67,5.67,5.27,5.42,2.52,2.52,2.52
57.42,-3.07,-5.58,-3.08,-5.58,5.58,5.18,5.34,2.51,2.51,2.50
58.00,-3.00,-5.50,-3.00,-5.49,5.50,5.09,5.27,2.49,2.50,2.49
58.58,-2.92,-5.40,-2.93,-5.40,5.41,5.00,5.19,2.48,2.48,2.47
59.16,-2.85,-5.32,-2.86,-5.32,5.32,4.91,5.11,2.46,2.46,2.46
59.76,-2.79,-5.24,-2.79,-5.23,5.22,4.83,5.04,2.43,2.43,2.44
60.35,-2.72,-5.14,-2.72,-5.14,5.13,4.75,4.96,2.41,2.41,2.41
60.96,-2.65,-5.06,-2.65,-5.04,5.03,4.67,4.88,2.38,2.38,2.40
61.57,-2.57,-4.93,-2.58,-4.94,4.94,4.60,4.80,2.36,2.36,2.35
62.18,-2.50,-4.83,-2.51,-4.84,4.84,4.53,4.72,2.34,2.33,2.32
62.80,-2.44,-4.76,-2.44,-4.74,4.74,4.46,4.64,2.30,2.31,2.31
63.43,-2.37,-4.65,-2.37,-4.65,4.65,4.39,4.56,2.28,2.28,2.27
64.07,-2.29,-4.55,-2.30,-4.55,4.56,4.32,4.47,2.26,2.26,2.25
64.71,-2.22,-4.47,-2.22,-4.46,4.47,4.26,4.39,2.24,2.24,2.24
65.35,-2.15,-4.38,-2.15,-4.38,4.38,4.20,4.30,2.23,2.23,2.22
66.01,-2.08,-4.30,-2.08,-4.30,4.30,4.14,4.22,2.21,2.21,2.21
66.67,-2.01,-4.22,-2.02,-4.22,4.22,4.09,4.13,2.20,2.20,2.20
67.33,-1.95,-4.15,-1.95,-4.14,4.14,4.03,4.04,2.18,2.19,2.19
68.01,-1.88,-4.07,-1.88,-4.06,4.06,3.98,3.95,2.18,2.18,2.18
68.69,-1.80,-3.98,-1.81,-3.98,3.98,3.92,3.86,2.18,2.18,2.17
69.37,-1.73,-3.91,-1.73,-3.90,3.91,3.87,3.77,2.18,2.17,2.17
70.07,-1.66,-3.83,-1.67,-3.83,3.83,3.82,3.68,2.17,2.17,2.16
70.77,-1.60,-3.77,-1.60,-3.76,3.76,3.77,3.59,2.15,2.16,2.16
71.48,-1.53,-3.69,-1.53,-3.68,3.68,3.71,3.49,2.15,2.15,2.15
72.19,-1.46,-3.60,-1.47,-3.61,3.60,3.66,3.40,2.14,2.14,2.13
72.91,-1.40,-3.54,-1.40,-3.53,3.53,3.61,3.31,2.12,2.13,2.13
73.64,-1.33,-3.45,-1.34,-3.45,3.45,3.55,3.22,2.12,2.11,2.11
74.38,-1.27,-3.38,-1.27,-3.37,3.37,3.50,3.13,2.10,2.10,2.10
75.12,-1.20,-3.29,-1.21,-3.29,3.29,3.44,3.03,2.09,2.09,2.08
75.87,-1.14,-3.22,-1.14,-3.22,3.22,3.39,2.94,2.07,2.07,2.07
76.63,-1.08,-3.15,-1.08,-3.14,3.14,3.33,2.85,2.06,2.06,2.06
77.40,-1.02,-3.07,-1.02,-3.06,3.06,3.26,2.76,2.04,2.04,2.04
78.17,-0.96,-2.99,-0.96,-2.99,2.99,3.20,2.67,2.03,2.03,2.02
78.95,-0.89,-2.92,-0.90,-2.92,2.92,3.14,2.59,2.03,2.02,2.02
79.74,-0.84,-2.86,-0.84,-2.85,2.85,3.07,2.50,2.01,2.01,2.01
80.54,-0.78,-2.79,-0.78,-2.78,2.79,3.00,2.41,2.00,2.01,2.00
81.35,-0.72,-2.72,-0.73,-2.72,2.73,2.92,2.32,2.00,2.00,1.99
82.16,-0.67,-2.66,-0.68,-2.66,2.67,2.85,2.24,1.99,1.99,1.98
82.98,-0.63,-2.63,-0.63,-2.61,2.61,2.77,2.15,1.98,1.98,1.99
83.81,-0.57,-2.56,-0.58,-2.56,2.56,2.69,2.07,1.98,1.98,1.98
84.65,-0.52,-2.50,-0.53,-2.51,2.50,2.61,1.99,1.98,1.98,1.97
85.50,-0.47,-2.46,-0.47,-2.45,2.45,2.53,1.91,1.98,1.98,1.98
86.35,-0.42,-2.41,-0.42,-2.40,2.40,2.44,1.83,1.98,1.98,1.98
87.22,-0.37,-2.35,-0.37,-2.35,2.35,2.36,1.75,1.98,1.98,1.97
88.09,-0.32,-2.30,-0.32,-2.29,2.30,2.27,1.67,1.97,1.97,1.97
88.97,-0.27,-2.24,-0.28,-2.24,2.24,2.18,1.59,1.97,1.96,1.96
89.86,-0.23,-2.19,-0.23,-2.19,2.18,2.09,1.51,1.95,1.95,1.95
90.76,-0.19,-2.13,-0.19,-2.13,2.12,2.01,1.43,1.93,1.93,1.93
91.66,-0.15,-2.07,-0.15,-2.06,2.06,1.92,1.36,1.90,1.91,1.91
92.58,-0.10,-1.99,-0.10,-1.99,1.99,1.83,1.28,1.89,1.89,1.88
93.51,-0.04,-1.91,-0.05,-1.91,1.92,1.74,1.21,1.87,1.87,1.86
94.44,-0.00,-1.84,-0.01,-1.84,1.84,1.65,1.13,1.84,1.83,1.83
95.39,0.04,-1.76,0.04,-1.76,1.76,1.56,1.06,1.79,1.79,1.79
96.34,0.07,-1.69,0.07,-1.68,1.67,1.47,0.99,1.73,1.74,1.75
97.30,0.12,-1.58,0.11,-1.58,1.57,1.38,0.92,1.69,1.69,1.69
98.28,0.16,-1.49,0.16,-1.48,1.48,1.29,0.84,1.63,1.64,1.64
99.26,0.22,-1.38,0.21,-1.38,1.38,1.20,0.77,1.59,1.59,1.59
100.25,0.27,-1.27,0.26,-1.27,1.28,1.12,0.71,1.54,1.54,1.53
101.25,0.31,-1.17,0.31,-1.16,1.17,1.03,0.64,1.48,1.48,1.47
102.27,0.36,-1.06,0.35,-1.07,1.07,0.95,0.57,1.43,1.42,1.41
103.29,0.38,-0.98,0.38,-0.97,0.97,0.87,0.50,1.35,1.35,1.35
104.32,0.42,-0.89,0.42,-0.88,0.87,0.78,0.44,1.29,1.29,1.30
105.37,0.46,-0.78,0.45,-0.78,0.78,0.70,0.37,1.24,1.23,1.23
106.42,0.50,-0.68,0.49,-0.68,0.69,0.62,0.31,1.18,1.18,1.17
107.48,0.53,-0.60,0.53,-0.59,0.59,0.54,0.24,1.12,1.12,1.12
108.56,0.57,-0.50,0.56,-0.50,0.49,0.46,0.18,1.06,1.06,1.06
109.64,0.60,-0.41,0.60,-0.41,0.40,0.39,0.12,1.00,1.00,1.00
110.74,0.64,-0.32,0.64,-0.31,0.30,0.31,0.06,0.94,0.94,0.95
111.85,0.69,-0.23,0.69,-0.22,0.21,0.23,0.00,0.90,0.90,0.91
112.97,0.74,-0.11,0.73,-0.12,0.12,0.16,-0.06,0.86,0.86,0.84
114.10,0.78,-0.03,0.77,-0.03,0.04,0.09,-0.11,0.81,0.81,0.80
115.24,0.81,0.05,0.80,0.05,-0.04,0.01,-0.17,0.76,0.76,0.75
116.39,0.83,0.12,0.83,0.12,-0.12,-0.06,-0.22,0.71,0.71,0.70
117.55,0.85,0.18,0.85,0.19,-0.19,-0.13,-0.27,0.66,0.66,0.66
118.73,0.88,0.25,0.88,0.25,-0.25,-0.20,-0.32,0.63,0.63,0.62
119.92,0.91,0.31,0.90,0.31,-0.31,-0.27,-0.37,0.60,0.59,0.59
121.12,0.93,0.36,0.92,0.36,-0.36,-0.33,-0.42,0.56,0.56,0.56
122.33,0.94,0.40,0.94,0.41,-0.41,-0.40,-0.46,0.52,0.53,0.53
123.55,0.96,0.45,0.96,0.46,-0.46,-0.47,-0.50,0.49,0.50,0.50
124.79,0.99,0.51,0.98,0.51,-0.51,-0.53,-0.55,0.48,0.48,0.47
126.03,1.02,0.56,1.01,0.56,-0.56,-0.60,-0.58,0.46,0.45,0.45
127.29,1.03,0.60,1.03,0.61,-0.61,-0.66,-0.62,0.42,0.42,0.42
128.57,1.05,0.66,1.05,0.66,-0.66,-0.72,-0.66,0.39,0.39,0.38
129.85,1.07,0.70,1.07,0.71,-0.71,-0.78,-0.69,0.35,0.35,0.36
131.15,1.10,0.76,1.09,0.76,-0.77,-0.85,-0.73,0.33,0.32,0.33
132.46,1.12,0.82,1.12,0.82,-0.83,-0.91,-0.76,0.29,0.29,0.29
133.79,1.16,0.88,1.16,0.89,-0.90,-0.97,-0.79,0.26,0.27,0.27
135.12,1.22,0.97,1.21,0.96,-0.96,-1.03,-0.82,0.25,0.24,0.24
136.48,1.25,1.03,1.25,1.04,-1.04,-1.09,-0.85,0.21,0.21,0.21
137.84,1.29,1.10,1.28,1.11,-1.11,-1.14,-0.88,0.18,0.17,0.18
139.22,1.32,1.18,1.32,1.18,-1.19,-1.20,-0.90,0.13,0.14,0.13
140.61,1.36,1.25,1.36,1.26,-1.26,-1.26,-0.93,0.10,0.11,0.10
142.02,1.42,1.33,1.40,1.33,-1.32,-1.31,-0.96,0.09,0.08,0.08
143.44,1.44,1.39,1.44,1.40,-1.39,-1.37,-0.98,0.05,0.05,0.04
144.87,1.47,1.46,1.46,1.46,-1.45,-1.42,-1.01,0.02,0.02,0.00
146.32,1.48,1.51,1.47,1.51,-1.50,-1.48,-1.03,-0.02,-0.03,-0.04
147.78,1.48,1.54,1.48,1.55,-1.55,-1.53,-1.06,-0.07,-0.07,-0.07
149.26,1.49,1.58,1.49,1.59,-1.60,-1.58,-1.08,-0.11,-0.11,-0.10
150.75,1.50,1.64,1.49,1.63,-1.64,-1.63,-1.11,-0.14,-0.15,-0.15
152.26,1.50,1.68,1.50,1.69,-1.69,-1.69,-1.14,-0.19,-0.18,-0.19
153.78,1.51,1.72,1.51,1.73,-1.73,-1.74,-1.16,-0.23,-0.23,-0.22
155.32,1.52,1.78,1.51,1.77,-1.78,-1.79,-1.19,-0.26,-0.27,-0.27
156.88,1.52,1.81,1.52,1.82,-1.83,-1.83,-1.22,-0.32,-0.31,-0.30
158.44,1.53,1.88,1.53,1.88,-1.88,-1.88,-1.25,-0.36,-0.36,-0.36
160.03,1.54,1.93,1.54,1.94,-1.94,-1.93,-1.28,-0.40,-0.40,-0.40
161.63,1.56,2.00,1.55,2.00,-1.99,-1.98,-1.31,-0.44,-0.44,-0.45
163.24,1.57,2.05,1.57,2.05,-2.05,-2.02,-1.34,-0.48,-0.48,-0.49
164.88,1.58,2.10,1.58,2.11,-2.10,-2.06,-1.38,-0.53,-0.53,-0.53
166.53,1.59,2.15,1.59,2.15,-2.16,-2.11,-1.41,-0.57,-0.57,-0.57
168.19,1.60,2.20,1.60,2.20,-2.21,-2.15,-1.45,-0.61,-0.61,-0.61
169.87,1.61,2.25,1.61,2.25,-2.26,-2.19,-1.49,-0.65,-0.65,-0.65
171.57,1.63,2.30,1.62,2.31,-2.31,-2.23,-1.52,-0.68,-0.68,-0.68
173.29,1.64,2.35,1.64,2.36,-2.35,-2.27,-1.56,-0.72,-0.72,-0.72
175.02,1.65,2.40,1.64,2.40,-2.39,-2.31,-1.61,-0.75,-0.75,-0.76
176.77,1.65,2.43,1.65,2.44,-2.43,-2.35,-1.65,-0.78,-0.78,-0.79
178.54,1.65,2.46,1.65,2.47,-2.46,-2.38,-1.69,-0.81,-0.81,-0.82
180.32,1.65,2.49,1.64,2.49,-2.49,-2.42,-1.74,-0.84,-0.84,-0.85
182.13,1.64,2.50,1.64,2.51,-2.51,-2.45,-1.79,-0.87,-0.87,-0.87
183.95,1.64,2.52,1.64,2.53,-2.53,-2.48,-1.84,-0.89,-0.89,-0.89
185.79,1.64,2.54,1.64,2.54,-2.55,-2.51,-1.89,-0.91,-0.91,-0.91
187.65,1.64,2.56,1.64,2.56,-2.56,-2.54,-1.94,-0.93,-0.93,-0.93
189.52,1.64,2.57,1.64,2.58,-2.58,-2.57,-1.99,-0.94,-0.94,-0.94
191.42,1.64,2.59,1.64,2.59,-2.59,-2.60,-2.05,-0.96,-0.96,-0.96
193.33,1.64,2.60,1.64,2.60,-2.61,-2.62,-2.10,-0.97,-0.97,-0.97
195.27,1.64,2.61,1.64,2.62,-2.62,-2.65,-2.16,-0.98,-0.98,-0.98
197.22,1.64,2.63,1.64,2.64,-2.63,-2.67,-2.21,-1.00,-1.00,-1.00
199.19,1.64,2.65,1.64,2.65,-2.65,-2.69,-2.27,-1.01,-1.01,-1.02
201.18,1.64,2.66,1.64,2.66,-2.66,-2.71,-2.33,-1.02,-1.02,-1.03
203.19,1.64,2.66,1.64,2.67,-2.67,-2.73,-2.39,-1.03,-1.03,-1.03
205.23,1.64,2.68,1.64,2.68,-2.68,-2.75,-2.45,-1.05,-1.05,-1.05
207.28,1.64,2.68,1.64,2.69,-2.69,-2.76,-2.51,-1.06,-1.06,-1.05
209.35,1.64,2.70,1.64,2.71,-2.71,-2.78,-2.57,-1.07,-1.07,-1.07
211.44,1.64,2.72,1.64,2.72,-2.72,-2.79,-2.63,-1.08,-1.08,-1.09
213.56,1.64,2.73,1.64,2.73,-2.73,-2.80,-2.68,-1.09,-1.09,-1.10
215.69,1.64,2.73,1.64,2.74,-2.74,-2.81,-2.74,-1.10,-1.10,-1.10
217.85,1.64,2.75,1.64,2.75,-2.75,-2.82,-2.80,-1.12,-1.12,-1.12
220.03,1.64,2.76,1.64,2.76,-2.77,-2.83,-2.85,-1.13,-1.13,-1.13
222.23,1.64,2.78,1.64,2.78,-2.78,-2.83,-2.90,-1.14,-1.14,-1.15
224.45,1.64,2.78,1.64,2.79,-2.79,-2.83,-2.95,-1.15,-1.15,-1.15
226.70,1.64,2.80,1.64,2.80,-2.80,-2.84,-3.00,-1.16,-1.16,-1.17
228.96,1.64,2.81,1.64,2.81,-2.81,-2.84,-3.04,-1.18,-1.18,-1.18
231.25,1.64,2.82,1.64,2.83,-2.83,-2.84,-3.08,-1.19,-1.20,-1.19
233.57,1.64,2.84,1.64,2.84,-2.85,-2.83,-3.12,-1.21,-1.21,-1.21
235.90,1.64,2.85,1.64,2.86,-2.87,-2.83,-3.15,-1.23,-1.23,-1.22
238.26,1.65,2.88,1.64,2.88,-2.89,-2.82,-3.18,-1.24,-1.24,-1.24
240.64,1.65,2.90,1.65,2.90,-2.91,-2.82,-3.20,-1.26,-1.26,-1.26
243.05,1.66,2.92,1.66,2.92,-2.92,-2.81,-3.22,-1.26,-1.26,-1.27
245.48,1.66,2.93,1.66,2.94,-2.93,-2.80,-3.23,-1.27,-1.27,-1.28
247.93,1.66,2.94,1.65,2.94,-2.93,-2.79,-3.24,-1.27,-1.28,-1.29
250.41,1.64,2.93,1.64,2.93,-2.92,-2.78,-3.24,-1.29,-1.28,-1.30
252.92,1.62,2.90,1.62,2.91,-2.91,-2.77,-3.24,-1.29,-1.29,-1.29
255.45,1.60,2.88,1.59,2.88,-2.88,-2.75,-3.24,-1.29,-1.29,-1.29
258.00,1.57,2.84,1.57,2.85,-2.85,-2.74,-3.22,-1.28,-1.28,-1.28
260.58,1.54,2.81,1.54,2.81,-2.81,-2.72,-3.21,-1.27,-1.27,-1.28
263.19,1.51,2.77,1.50,2.77,-2.77,-2.70,-3.19,-1.26,-1.27,-1.27
265.82,1.46,2.71,1.47,2.72,-2.72,-2.69,-3.16,-1.26,-1.25,-1.26
268.48,1.44,2.67,1.43,2.67,-2.67,-2.67,-3.13,-1.23,-1.24,-1.24
271.16,1.41,2.62,1.40,2.62,-2.62,-2.65,-3.10,-1.22,-1.22,-1.22
273.87,1.37,2.57,1.37,2.57,-2.58,-2.63,-3.06,-1.21,-1.21,-1.21
276.61,1.34,2.51,1.34,2.53,-2.53,-2.61,-3.02,-1.20,-1.19,-1.18
279.38,1.32,2.49,1.32,2.49,-2.50,-2.58,-2.97,-1.18,-1.18,-1.18
282.17,1.31,2.46,1.30,2.46,-2.47,-2.56,-2.93,-1.16,-1.17,-1.16
284.99,1.29,2.43,1.29,2.44,-2.44,-2.54,-2.88,-1.16,-1.15,-1.15
287.84,1.29,2.41,1.29,2.42,-2.42,-2.51,-2.83,-1.14,-1.13,-1.13
290.72,1.30,2.40,1.29,2.41,-2.41,-2.49,-2.77,-1.11,-1.11,-1.11
293.63,1.31,2.40,1.31,2.40,-2.40,-2.46,-2.72,-1.09,-1.09,-1.10
296.57,1.32,2.38,1.31,2.39,-2.38,-2.44,-2.66,-1.07,-1.07,-1.07
299.53,1.32,2.37,1.32,2.38,-2.37,-2.41,-2.61,-1.05,-1.05,-1.06
302.53,1.32,2.36,1.32,2.36,-2.35,-2.38,-2.55,-1.03,-1.03,-1.05
305.55,1.32,2.33,1.32,2.34,-2.33,-2.36,-2.50,-1.01,-1.01,-1.02
308.61,1.32,2.31,1.32,2.31,-2.31,-2.33,-2.44,-0.99,-0.99,-1.00
311.69,1.32,2.28,1.32,2.28,-2.29,-2.30,-2.38,-0.97,-0.97,-0.97
314.81,1.32,2.24,1.32,2.25,-2.26,-2.27,-2.33,-0.94,-0.94,-0.93
317.96,1.32,2.23,1.32,2.23,-2.24,-2.24,-2.27,-0.92,-0.92,-0.92
321.14,1.32,2.21,1.32,2.21,-2.22,-2.21,-2.22,-0.90,-0.90,-0.90
324.35,1.32,2.19,1.32,2.20,-2.20,-2.19,-2.16,-0.88,-0.88,-0.88
327.59,1.32,2.17,1.32,2.17,-2.18,-2.16,-2.11,-0.86,-0.86,-0.86
330.87,1.32,2.15,1.32,2.15,-2.16,-2.13,-2.06,-0.84,-0.84,-0.84
334.18,1.33,2.13,1.33,2.14,-2.14,-2.10,-2.01,-0.81,-0.81,-0.81
337.52,1.34,2.12,1.33,2.12,-2.12,-2.07,-1.96,-0.78,-0.79,-0.79
340.90,1.34,2.10,1.33,2.10,-2.09,-2.04,-1.91,-0.76,-0.76,-0.77
344.30,1.33,2.06,1.33,2.07,-2.06,-2.01,-1.87,-0.74,-0.73,-0.74
347.75,1.32,2.03,1.32,2.03,-2.03,-1.98,-1.82,-0.71,-0.71,-0.72
351.23,1.31,1.99,1.30,1.99,-1.99,-1.95,-1.78,-0.68,-0.69,-0.69
354.74,1.28,1.93,1.28,1.94,-1.94,-1.92,-1.74,-0.66,-0.66,-0.66
358.28,1.25,1.89,1.25,1.89,-1.89,-1.89,-1.70,-0.64,-0.64,-0.65
361.87,1.22,1.83,1.22,1.84,-1.83,-1.86,-1.66,-0.62,-0.62,-0.62
365.49,1.19,1.77,1.19,1.78,-1.78,-1.84,-1.62,-0.59,-0.59,-0.59
369.14,1.16,1.73,1.15,1.72,-1.72,-1.81,-1.58,-0.57,-0.57,-0.58
372.83,1.12,1.66,1.12,1.67,-1.67,-1.78,-1.55,-0.55,-0.55,-0.55
376.56,1.08,1.60,1.08,1.61,-1.61,-1.75,-1.51,-0.53,-0.53,-0.53
380.33,1.06,1.55,1.05,1.55,-1.56,-1.72,-1.48,-0.50,-0.51,-0.50
384.13,1.03,1.51,1.03,1.51,-1.51,-1.69,-1.45,-0.49,-0.49,-0.49
387.97,1.01,1.47,1.00,1.47,-1.47,-1.66,-1.42,-0.47,-0.47,-0.47
391.85,0.99,1.44,0.98,1.44,-1.44,-1.64,-1.39,-0.45,-0.45,-0.46
395.77,0.97,1.39,0.97,1.41,-1.41,-1.61,-1.36,-0.45,-0.44,-0.43
399.73,0.97,1.38,0.96,1.39,-1.40,-1.58,-1.34,-0.43,-0.43,-0.42
403.72,0.97,1.38,0.97,1.38,-1.39,-1.55,-1.31,-0.42,-0.42,-0.42
407.76,0.98,1.38,0.98,1.38,-1.38,-1.53,-1.29,-0.41,-0.41,-0.41
411.84,0.99,1.38,0.98,1.39,-1.38,-1.50,-1.27,-0.40,-0.40,-0.40
415.96,0.99,1.39,0.99,1.39,-1.39,-1.47,-1.25,-0.40,-0.40,-0.41
420.12,0.99,1.39,0.99,1.40,-1.40,-1.45,-1.23,-0.41,-0.41,-0.41
424.32,1.00,1.40,1.00,1.41,-1.41,-1.42,-1.21,-0.41,-0.41,-0.41
428.56,1.01,1.41,1.00,1.41,-1.41,-1.40,-1.19,-0.41,-0.41,-0.41
432.85,1.01,1.42,1.01,1.42,-1.42,-1.37,-1.17,-0.41,-0.41,-0.42
437.18,1.01,1.42,1.01,1.42,-1.42,-1.35,-1.15,-0.41,-0.41,-0.42
441.55,1.00,1.41,1.00,1.42,-1.41,-1.32,-1.13,-0.42,-0.42,-0.42
445.96,0.99,1.41,0.98,1.41,-1.40,-1.30,-1.12,-0.42,-0.42,-0.43
450.42,0.96,1.38,0.96,1.39,-1.39,-1.27,-1.10,-0.43,-0.43,-0.43
454.93,0.94,1.36,0.94,1.37,-1.37,-1.25,-1.09,-0.43,-0.43,-0.43
459.48,0.91,1.34,0.91,1.34,-1.34,-1.23,-1.07,-0.43,-0.43,-0.44
464.07,0.89,1.31,0.88,1.31,-1.31,-1.20,-1.06,-0.42,-0.43,-0.43
468.71,0.85,1.27,0.85,1.28,-1.28,-1.18,-1.05,-0.43,-0.43,-0.43
473.40,0.81,1.24,0.81,1.24,-1.24,-1.16,-1.04,-0.44,-0.43,-0.44
478.13,0.78,1.20,0.77,1.21,-1.21,-1.14,-1.02,-0.43,-0.44,-0.43
