frequency,raw,error,smoothed,error_smoothed,equalization,parametric_eq,fixed_band_eq,equalized_raw,equalized_smoothed,target
20.00,18.36,5.57,18.36,5.57,-5.57,-5.51,-2.33,12.79,12.79,12.79
20.20,18.35,5.57,18.34,5.57,-5.57,-5.52,-2.39,12.78,12.78,12.78
20.40,18.34,5.57,18.33,5.57,-5.57,-5.52,-2.46,12.77,12.77,12.77
20.61,18.32,5.56,18.32,5.56,-5.56,-5.53,-2.53,12.75,12.75,12.76
20.81,18.31,5.57,18.31,5.57,-5.56,-5.53,-2.60,12.74,12.75,12.74
21.02,18.30,5.57,18.29,5.56,-5.56,-5.53,-2.67,12.74,12.74,12.73
21.23,18.29,5.57,18.28,5.56,-5.56,-5.54,-2.75,12.73,12.73,12.72
21.44,18.27,5.54,18.27,5.55,-5.55,-5.54,-2.83,12.71,12.72,12.73
21.66,18.26,5.55,18.26,5.54,-5.55,-5.53,-2.91,12.71,12.71,12.71
21.87,18.25,5.54,18.24,5.54,-5.54,-5.53,-2.99,12.70,12.70,12.71
22.09,18.23,5.54,18.23,5.54,-5.54,-5.53,-3.07,12.69,12.69,12.69
22.31,18.22,5.54,18.22,5.54,-5.54,-5.52,-3.16,12.68,12.68,12.68
22.54,18.21,5.54,18.20,5.53,-5.53,-5.52,-3.25,12.68,12.67,12.67
22.76,18.19,5.52,18.19,5.53,-5.52,-5.51,-3.34,12.66,12.67,12.67
22.99,18.18,5.52,18.18,5.52,-5.52,-5.51,-3.43,12.66,12.66,12.66
23.22,18.17,5.52,18.16,5.51,-5.51,-5.50,-3.53,12.66,12.66,12.65
23.45,18.15,5.49,18.15,5.50,-5.50,-5.49,-3.62,12.65,12.65,12.66
23.69,18.14,5.49,18.13,5.49,-5.49,-5.48,-3.72,12.65,12.65,12.65
23.92,18.12,5.48,18.12,5.47,-5.48,-5.47,-3.82,12.64,12.64,12.64
24.16,18.11,5.46,18.11,5.46,-5.47,-5.46,-3.93,12.64,12.64,12.65
24.40,18.10,5.45,18.10,5.45,-5.46,-5.44,-4.03,12.64,12.64,12.65
24.65,18.09,5.45,18.09,5.44,-5.45,-5.43,-4.14,12.64,12.64,12.64
24.89,18.08,5.44,18.07,5.44,-5.44,-5.42,-4.24,12.64,12.64,12.64
25.14,18.06,5.43,18.06,5.43,-5.42,-5.40,-4.35,12.63,12.64,12.63
25.39,18.05,5.42,18.04,5.42,-5.41,-5.39,-4.46,12.63,12.63,12.63
25.65,18.03,5.40,18.03,5.40,-5.40,-5.37,-4.57,12.63,12.63,12.63
25.91,18.02,5.39,18.01,5.38,-5.38,-5.36,-4.68,12.63,12.63,12.63
26.16,18.00,5.36,18.00,5.36,-5.37,-5.34,-4.79,12.63,12.63,12.64
26.43,17.98,5.35,17.98,5.35,-5.35,-5.33,-4.90,12.62,12.63,12.63
26.69,17.97,5.34,17.96,5.33,-5.34,-5.31,-5.00,12.63,12.63,12.63
26.96,17.95,5.32,17.95,5.32,-5.32,-5.29,-5.11,12.63,12.63,12.63
27.23,17.94,5.31,17.93,5.30,-5.30,-5.28,-5.21,12.63,12.63,12.63
27.50,17.92,5.29,17.92,5.29,-5.29,-5.26,-5.31,12.63,12.63,12.63
27.77,17.91,5.27,17.91,5.27,-5.27,-5.25,-5.41,12.63,12.63,12.64
28.05,17.90,5.27,17.89,5.26,-5.26,-5.23,-5.51,12.64,12.64,12.63
28.33,17.88,5.24,17.88,5.24,-5.24,-5.21,-5.60,12.64,12.64,12.64
28.62,17.87,5.23,17.86,5.22,-5.22,-5.20,-5.68,12.64,12.64,12.64
28.90,17.85,5.20,17.85,5.20,-5.21,-5.18,-5.77,12.64,12.64,12.65
29.19,17.84,5.19,17.83,5.19,-5.19,-5.16,-5.84,12.64,12.64,12.65
29.48,17.82,5.18,17.82,5.17,-5.18,-5.15,-5.91,12.64,12.64,12.64
29.78,17.80,5.16,17.80,5.16,-5.16,-5.13,-5.97,12.63,12.64,12.64
30.08,17.79,5.15,17.78,5.15,-5.15,-5.12,-6.03,12.64,12.63,12.64
30.38,17.77,5.15,17.77,5.14,-5.14,-5.10,-6.07,12.63,12.63,12.62
30.68,17.76,5.14,17.75,5.13,-5.13,-5.09,-6.11,12.62,12.62,12.62
30.99,17.74,5.12,17.74,5.12,-5.12,-5.07,-6.15,12.61,12.62,12.62
31.30,17.73,5.11,17.73,5.11,-5.12,-5.06,-6.17,12.61,12.61,12.62
31.61,17.72,5.11,17.71,5.10,-5.11,-5.04,-6.19,12.61,12.60,12.61
31.93,17.70,5.11,17.70,5.10,-5.10,-5.03,-6.20,12.59,12.60,12.59
32.24,17.69,5.09,17.69,5.10,-5.10,-5.02,-6.20,12.59,12.59,12.60
32.57,17.68,5.10,17.67,5.09,-5.09,-5.00,-6.19,12.59,12.58,12.58
32.89,17.66,5.08,17.66,5.08,-5.08,-4.99,-6.18,12.58,12.58,12.58
33.22,17.65,5.08,17.64,5.07,-5.07,-4.98,-6.15,12.57,12.57,12.57
33.55,17.63,5.06,17.63,5.06,-5.06,-4.97,-6.13,12.56,12.56,12.57
33.89,17.61,5.05,17.60,5.05,-5.05,-4.96,-6.10,12.56,12.56,12.56
34.23,17.58,5.04,17.58,5.04,-5.03,-4.95,-6.06,12.54,12.55,12.54
34.57,17.56,5.02,17.56,5.02,-5.02,-4.94,-6.02,12.54,12.54,12.54
34.92,17.54,5.02,17.53,5.00,-5.00,-4.93,-5.97,12.54,12.53,12.52
35.27,17.51,4.97,17.51,4.99,-4.99,-4.92,-5.92,12.52,12.52,12.54
35.62,17.49,4.98,17.48,4.97,-4.97,-4.91,-5.87,12.51,12.51,12.51
35.97,17.46,4.95,17.46,4.95,-4.96,-4.91,-5.82,12.49,12.49,12.51
36.33,17.44,4.95,17.44,4.95,-4.96,-4.90,-5.76,12.48,12.48,12.49
36.70,17.42,4.95,17.42,4.95,-4.95,-4.89,-5.70,12.47,12.47,12.47
37.06,17.41,4.96,17.40,4.95,-4.95,-4.89,-5.65,12.46,12.45,12.45
37.43,17.39,4.96,17.38,4.95,-4.95,-4.88,-5.59,12.44,12.43,12.43
37.81,17.37,4.95,17.37,4.96,-4.95,-4.88,-5.53,12.41,12.41,12.42
38.19,17.35,4.96,17.35,4.96,-4.96,-4.88,-5.48,12.39,12.39,12.39
38.57,17.34,4.97,17.33,4.96,-4.96,-4.87,-5.42,12.37,12.37,12.37
38.95,17.32,4.96,17.32,4.97,-4.97,-4.87,-5.37,12.35,12.35,12.36
39.34,17.30,4.97,17.30,4.97,-4.97,-4.87,-5.32,12.33,12.33,12.33
39.74,17.28,4.98,17.27,4.97,-4.97,-4.87,-5.27,12.31,12.31,12.30
40.14,17.25,4.97,17.25,4.97,-4.97,-4.87,-5.23,12.28,12.28,12.28
40.54,17.23,4.97,17.22,4.97,-4.96,-4.87,-5.18,12.26,12.26,12.26
40.94,17.20,4.97,17.20,4.97,-4.96,-4.87,-5.14,12.23,12.24,12.23
41.35,17.18,4.96,17.17,4.96,-4.96,-4.87,-5.11,12.22,12.21,12.22
41.76,17.15,4.96,17.15,4.95,-4.96,-4.87,-5.07,12.19,12.19,12.19
42.18,17.12,4.94,17.12,4.95,-4.95,-4.87,-5.04,12.16,12.17,12.18
42.60,17.10,4.95,17.10,4.95,-4.95,-4.88,-5.01,12.14,12.14,12.15
43.03,17.08,4.95,17.08,4.95,-4.96,-4.88,-4.99,12.12,12.12,12.13
43.46,17.06,4.97,17.06,4.96,-4.96,-4.89,-4.97,12.10,12.10,12.09
43.90,17.04,4.97,17.04,4.97,-4.96,-4.89,-4.95,12.07,12.07,12.07
44.33,17.02,4.98,17.02,4.97,-4.97,-4.90,-4.94,12.04,12.05,12.04
44.78,17.00,4.98,17.00,4.98,-4.98,-4.90,-4.93,12.02,12.02,12.02
45.23,16.98,4.98,16.97,4.98,-4.98,-4.91,-4.92,11.99,11.99,12.00
45.68,16.95,5.00,16.95,4.99,-4.99,-4.92,-4.92,11.96,11.96,11.95
46.13,16.92,5.00,16.92,5.00,-5.00,-4.92,-4.92,11.92,11.92,11.92
46.60,16.89,5.01,16.89,5.01,-5.01,-4.93,-4.93,11.88,11.88,11.88
47.06,16.86,5.01,16.86,5.01,-5.02,-4.94,-4.94,11.84,11.84,11.85
47.53,16.83,5.02,16.83,5.02,-5.03,-4.95,-4.95,11.80,11.80,11.81
48.01,16.80,5.04,16.80,5.04,-5.04,-4.96,-4.96,11.75,11.76,11.76
48.49,16.78,5.06,16.77,5.06,-5.06,-4.97,-4.98,11.72,11.71,11.72
48.97,16.75,5.08,16.75,5.08,-5.08,-4.98,-5.00,11.67,11.67,11.67
49.46,16.73,5.09,16.72,5.10,-5.09,-4.99,-5.03,11.63,11.63,11.64
49.96,16.70,5.12,16.70,5.11,-5.11,-5.00,-5.05,11.59,11.59,11.58
50.46,16.68,5.13,16.67,5.13,-5.12,-5.01,-5.08,11.55,11.55,11.55
50.96,16.65,5.14,16.65,5.14,-5.13,-5.03,-5.11,11.51,11.51,11.51
51.47,16.62,5.15,16.61,5.15,-5.14,-5.04,-5.15,11.47,11.47,11.47
51.99,16.58,5.16,16.58,5.15,-5.15,-5.05,-5.18,11.43,11.43,11.42
52.51,16.54,5.15,16.54,5.15,-5.16,-5.06,-5.22,11.38,11.38,11.39
53.03,16.51,5.15,16.51,5.16,-5.17,-5.08,-5.26,11.34,11.34,11.36
53.56,16.48,5.17,16.48,5.17,-5.17,-5.09,-5.29,11.30,11.30,11.31
54.10,16.45,5.19,16.45,5.18,-5.18,-5.11,-5.33,11.26,11.26,11.26
54.64,16.42,5.20,16.42,5.20,-5.20,-5.12,-5.37,11.22,11.22,11.22
55.18,16.39,5.21,16.39,5.21,-5.21,-5.13,-5.41,11.18,11.18,11.18
55.74,16.36,5.23,16.36,5.22,-5.22,-5.15,-5.45,11.14,11.14,11.13
56.29,16.34,5.23,16.33,5.23,-5.23,-5.16,-5.48,11.11,11.10,11.11
56.86,16.31,5.24,16.30,5.24,-5.24,-5.18,-5.52,11.07,11.07,11.07
57.42,16.27,5.25,16.27,5.25,-5.24,-5.19,-5.55,11.02,11.03,11.02
58.00,16.24,5.26,16.24,5.25,-5.25,-5.21,-5.58,10.99,10.99,10.98
58.58,16.21,5.26,16.20,5.25,-5.26,-5.23,-5.61,10.95,10.95,10.95
59.16,16.17,5.25,16.17,5.26,-5.27,-5.24,-5.64,10.90,10.90,10.92
59.76,16.14,5.27,16.14,5.27,-5.28,-5.26,-5.66,10.86,10.86,10.87
60.35,16.11,5.29,16.10,5.28,-5.30,-5.27,-5.67,10.81,10.81,10.82
60.96,16.07,5.31,16.07,5.31,-5.31,-5.29,-5.69,10.75,10.76,10.76
61.57,16.04,5.34,16.04,5.34,-5.34,-5.30,-5.70,10.70,10.70,10.70
62.18,16.01,5.37,16.00,5.36,-5.36,-5.32,-5.70,10.65,10.64,10.64
62.80,15.97,5.39,15.97,5.39,-5.38,-5.34,-5.70,10.59,10.59,10.58
63.43,15.93,5.40,15.93,5.40,-5.40,-5.35,-5.70,10.53,10.53,10.53
64.07,15.90,5.42,15.89,5.42,-5.42,-5.37,-5.69,10.48,10.48,10.48
64.71,15.86,5.43,15.86,5.43,-5.43,-5.38,-5.68,10.43,10.43,10.43
65.35,15.82,5.45,15.81,5.44,-5.44,-5.40,-5.67,10.37,10.37,10.37
66.01,15.77,5.45,15.77,5.45,-5.45,-5.41,-5.65,10.31,10.32,10.32
66.67,15.73,5.45,15.73,5.46,-5.46,-5.43,-5.63,10.27,10.27,10.28
67.33,15.69,5.48,15.69,5.47,-5.47,-5.44,-5.60,10.22,10.22,10.21
68.01,15.65,5.49,15.64,5.48,-5.48,-5.46,-5.57,10.17,10.17,10.16
68.69,15.60,5.49,15.60,5.49,-5.49,-5.47,-5.54,10.11,10.11,10.11
69.37,15.55,5.49,15.55,5.49,-5.50,-5.49,-5.51,10.05,10.05,10.06
70.07,15.50,5.50,15.50,5.50,-5.51,-5.50,-5.47,9.99,9.99,10.00
70.77,15.45,5.52,15.45,5.51,-5.52,-5.52,-5.44,9.92,9.93,9.93
71.48,15.41,5.53,15.41,5.53,-5.54,-5.53,-5.40,9.87,9.87,9.88
72.19,15.37,5.55,15.37,5.55,-5.55,-5.55,-5.37,9.82,9.81,9.82
72.91,15.33,5.58,15.33,5.57,-5.57,-5.56,-5.33,9.76,9.76,9.75
73.64,15.29,5.59,15.28,5.59,-5.58,-5.57,-5.30,9.70,9.70,9.70
74.38,15.25,5.61,15.24,5.60,-5.60,-5.59,-5.26,9.65,9.64,9.64
75.12,15.20,5.61,15.20,5.62,-5.62,-5.60,-5.23,9.58,9.59,9.59
75.87,15.17,5.63,15.16,5.63,-5.63,-5.61,-5.19,9.53,9.53,9.54
76.63,15.13,5.65,15.12,5.64,-5.64,-5.62,-5.16,9.48,9.48,9.48
77.40,15.09,5.65,15.09,5.65,-5.65,-5.63,-5.13,9.43,9.43,9.44
78.17,15.05,5.67,15.05,5.66,-5.66,-5.65,-5.11,9.39,9.39,9.38
78.95,15.01,5.67,15.01,5.67,-5.67,-5.66,-5.08,9.34,9.34,9.34
79.74,14.97,5.68,14.96,5.68,-5.67,-5.67,-5.06,9.29,9.29,9.29
80.54,14.92,5.68,14.92,5.68,-5.68,-5.68,-5.05,9.23,9.23,9.24
81.35,14.87,5.69,14.87,5.68,-5.69,-5.69,-5.03,9.18,9.18,9.18
82.16,14.83,5.68,14.83,5.69,-5.70,-5.70,-5.02,9.13,9.13,9.15
82.98,14.79,5.70,14.79,5.70,-5.70,-5.71,-5.01,9.09,9.09,9.09
83.81,14.75,5.71,14.75,5.71,-5.71,-5.72,-5.00,9.04,9.04,9.04
84.65,14.71,5.73,14.70,5.72,-5.71,-5.72,-5.00,9.00,8.99,8.98
85.50,14.65,5.73,14.65,5.72,-5.72,-5.73,-5.01,8.93,8.93,8.92
86.35,14.59,5.72,14.59,5.72,-5.72,-5.74,-5.01,8.86,8.87,8.87
87.22,14.53,5.71,14.53,5.72,-5.73,-5.75,-5.02,8.80,8.80,8.82
88.09,14.49,5.73,14.48,5.72,-5.73,-5.75,-5.03,8.75,8.75,8.76
88.97,14.44,5.74,14.44,5.73,-5.74,-5.76,-5.05,8.70,8.70,8.70
89.86,14.40,5.75,14.39,5.75,-5.74,-5.77,-5.07,8.66,8.65,8.65
90.76,14.34,5.75,14.34,5.76,-5.75,-5.77,-5.10,8.59,8.59,8.59
91.66,14.29,5.77,14.29,5.76,-5.76,-5.78,-5.13,8.53,8.53,8.52
92.58,14.24,5.77,14.23,5.76,-5.77,-5.78,-5.16,8.47,8.46,8.47
93.51,14.18,5.76,14.18,5.77,-5.78,-5.79,-5.19,8.40,8.40,8.42
94.44,14.14,5.78,14.13,5.78,-5.79,-5.79,-5.23,8.35,8.35,8.36
95.39,14.09,5.80,14.09,5.80,-5.80,-5.79,-5.28,8.29,8.29,8.29
96.34,14.05,5.83,14.04,5.82,-5.81,-5.80,-5.32,8.24,8.23,8.22
97.30,13.99,5.83,13.98,5.83,-5.82,-5.80,-5.37,8.17,8.16,8.16
98.28,13.92,5.83,13.92,5.83,-5.83,-5.80,-5.42,8.09,8.09,8.09
99.26,13.87,5.84,13.87,5.84,-5.84,-5.81,-5.48,8.03,8.02,8.03
100.25,13.82,5.85,13.81,5.84,-5.85,-5.81,-5.53,7.96,7.96,7.97
101.25,13.77,5.85,13.77,5.85,-5.86,-5.81,-5.59,7.90,7.90,7.92
102.27,13.72,5.86,13.72,5.87,-5.87,-5.81,-5.66,7.85,7.85,7.86
103.29,13.69,5.89,13.68,5.88,-5.88,-5.81,-5.72,7.81,7.81,7.80
104.32,13.65,5.90,13.64,5.89,-5.88,-5.81,-5.78,7.76,7.75,7.75
105.37,13.59,5.90,13.59,5.90,-5.89,-5.81,-5.85,7.70,7.70,7.69
106.42,13.53,5.89,13.53,5.90,-5.89,-5.81,-5.91,7.63,7.64,7.64
107.48,13.48,5.90,13.47,5.89,-5.89,-5.81,-5.98,7.58,7.58,7.58
108.56,13.42,5.89,13.42,5.89,-5.89,-5.81,-6.04,7.52,7.52,7.53
109.64,13.36,5.89,13.36,5.89,-5.89,-5.81,-6.11,7.47,7.47,7.47
110.74,13.30,5.89,13.30,5.89,-5.89,-5.81,-6.17,7.41,7.41,7.41
111.85,13.24,5.89,13.24,5.88,-5.89,-5.81,-6.23,7.35,7.35,7.35
112.97,13.18,5.88,13.17,5.88,-5.89,-5.80,-6.28,7.29,7.28,7.30
114.10,13.11,5.87,13.11,5.88,-5.89,-5.80,-6.34,7.22,7.22,7.24
115.24,13.05,5.89,13.05,5.89,-5.89,-5.80,-6.38,7.16,7.16,7.16
116.39,13.01,5.91,13.00,5.90,-5.89,-5.80,-6.43,7.12,7.11,7.10
117.55,12.95,5.91,12.94,5.91,-5.89,-5.79,-6.47,7.06,7.05,7.04
118.73,12.88,5.90,12.88,5.89,-5.89,-5.79,-6.50,6.99,6.99,6.98
119.92,12.82,5.88,12.81,5.88,-5.88,-5.79,-6.53,6.93,6.93,6.94
121.12,12.75,5.86,12.76,5.87,-5.88,-5.78,-6.55,6.87,6.88,6.89
122.33,12.71,5.88,12.70,5.87,-5.87,-5.78,-6.56,6.83,6.83,6.83
123.55,12.66,5.88,12.64,5.86,-5.86,-5.77,-6.57,6.79,6.78,6.78
124.79,12.58,5.85,12.58,5.86,-5.86,-5.77,-6.57,6.72,6.72,6.73
126.03,12.51,5.84,12.52,5.85,-5.86,-5.76,-6.56,6.65,6.66,6.67
127.29,12.47,5.85,12.46,5.85,-5.85,-5.76,-6.54,6.61,6.61,6.62
128.57,12.42,5.87,12.41,5.85,-5.85,-5.75,-6.52,6.56,6.55,6.55
129.85,12.35,5.85,12.35,5.86,-5.85,-5.74,-6.49,6.49,6.50,6.50
131.15,12.29,5.85,12.29,5.86,-5.85,-5.74,-6.46,6.43,6.44,6.44
132.46,12.25,5.86,12.23,5.85,-5.85,-5.73,-6.41,6.40,6.38,6.39
133.79,12.18,5.85,12.18,5.85,-5.85,-5.72,-6.36,6.33,6.33,6.33
135.12,12.11,5.83,12.12,5.84,-5.84,-5.71,-6.31,6.27,6.28,6.28
136.48,12.07,5.84,12.05,5.83,-5.83,-5.71,-6.25,6.24,6.23,6.23
137.84,11.99,5.81,12.00,5.82,-5.81,-5.70,-6.19,6.17,6.19,6.18
139.22,11.94,5.82,11.92,5.80,-5.79,-5.69,-6.12,6.14,6.13,6.12
140.61,11.86,5.78,11.85,5.77,-5.77,-5.68,-6.05,6.08,6.07,6.08
142.02,11.75,5.73,11.77,5.75,-5.75,-5.67,-5.98,5.99,6.02,6.02
143.44,11.71,5.73,11.70,5.72,-5.73,-5.66,-5.90,5.98,5.97,5.98
144.87,11.64,5.70,11.63,5.70,-5.71,-5.65,-5.83,5.93,5.93,5.94
146.32,11.58,5.69,11.57,5.68,-5.68,-5.64,-5.75,5.90,5.89,5.89
147.78,11.50,5.65,11.50,5.65,-5.65,-5.62,-5.67,5.84,5.85,5.85
149.26,11.44,5.64,11.43,5.63,-5.63,-5.61,-5.59,5.81,5.80,5.80
150.75,11.36,5.60,11.36,5.61,-5.60,-5.60,-5.52,5.75,5.76,5.76
152.26,11.31,5.59,11.30,5.58,-5.57,-5.58,-5.44,5.73,5.72,5.72
153.78,11.23,5.55,11.22,5.55,-5.55,-5.57,-5.37,5.68,5.68,5.68
155.32,11.16,5.52,11.15,5.52,-5.52,-5.56,-5.29,5.64,5.63,5.64
156.88,11.07,5.48,11.08,5.49,-5.50,-5.54,-5.22,5.57,5.58,5.59
158.44,11.02,5.48,11.01,5.46,-5.47,-5.52,-5.15,5.54,5.53,5.54
160.03,10.94,5.44,10.94,5.44,-5.45,-5.51,-5.09,5.49,5.49,5.50
161.63,10.88,5.42,10.88,5.43,-5.43,-5.49,-5.02,5.45,5.45,5.46
163.24,10.83,5.42,10.82,5.41,-5.41,-5.47,-4.96,5.42,5.41,5.41
164.88,10.75,5.39,10.76,5.40,-5.38,-5.45,-4.90,5.36,5.38,5.36
166.53,10.69,5.38,10.68,5.37,-5.36,-5.44,-4.85,5.33,5.33,5.31
168.19,10.62,5.34,10.60,5.33,-5.33,-5.42,-4.80,5.29,5.27,5.28
169.87,10.51,5.29,10.52,5.30,-5.30,-5.39,-4.75,5.20,5.22,5.22
171.57,10.44,5.27,10.44,5.27,-5.28,-5.37,-4.71,5.16,5.16,5.17
173.29,10.38,5.25,10.36,5.24,-5.25,-5.35,-4.66,5.13,5.11,5.13
175.02,10.29,5.21,10.29,5.21,-5.22,-5.33,-4.63,5.06,5.07,5.08
176.77,10.22,5.19,10.22,5.19,-5.19,-5.30,-4.59,5.02,5.03,5.03
178.54,10.16,5.17,10.16,5.17,-5.17,-5.28,-4.56,4.99,4.99,4.99
180.32,10.10,5.17,10.09,5.15,-5.14,-5.25,-4.54,4.96,4.95,4.93
182.13,10.03,5.13,10.02,5.12,-5.11,-5.23,-4.51,4.91,4.90,4.90
183.95,9.93,5.08,9.93,5.09,-5.09,-5.20,-4.49,4.84,4.85,4.85
185.79,9.85,5.05,9.85,5.05,-5.06,-5.17,-4.48,4.79,4.79,4.80
187.65,9.78,5.02,9.78,5.02,-5.03,-5.14,-4.46,4.74,4.75,4.76
189.52,9.72,5.00,9.71,5.00,-5.01,-5.11,-4.45,4.71,4.71,4.72
191.42,9.66,4.98,9.65,4.97,-4.98,-5.08,-4.44,4.68,4.67,4.68
193.33,9.59,4.95,9.59,4.96,-4.96,-5.04,-4.44,4.63,4.64,4.64
195.27,9.53,4.94,9.52,4.94,-4.93,-5.01,-4.44,4.60,4.60,4.59
197.22,9.46,4.92,9.46,4.91,-4.90,-4.98,-4.44,4.56,4.56,4.54
199.19,9.39,4.88,9.39,4.88,-4.87,-4.94,-4.44,4.52,4.52,4.51
201.18,9.32,4.85,9.31,4.84,-4.84,-4.90,-4.45,4.48,4.47,4.47
203.19,9.24,4.80,9.24,4.80,-4.80,-4.87,-4.46,4.44,4.44,4.44
205.23,9.17,4.75,9.17,4.75,-4.76,-4.83,-4.46,4.40,4.41,4.42
207.28,9.10,4.71,9.10,4.72,-4.72,-4.79,-4.48,4.38,4.38,4.39
209.35,9.04,4.69,9.03,4.68,-4.68,-4.75,-4.49,4.36,4.35,4.35
211.44,8.97,4.65,8.96,4.64,-4.64,-4.70,-4.50,4.32,4.32,4.32
213.56,8.90,4.60,8.89,4.60,-4.60,-4.66,-4.51,4.29,4.29,4.30
215.69,8.82,4.55,8.82,4.56,-4.56,-4.62,-4.52,4.25,4.26,4.27
217.85,8.76,4.52,8.76,4.53,-4.52,-4.57,-4.53,4.23,4.24,4.24
220.03,8.71,4.50,8.70,4.49,-4.48,-4.53,-4.55,4.22,4.22,4.21
222.23,8.65,4.47,8.64,4.45,-4.44,-4.48,-4.55,4.21,4.20,4.18
224.45,8.56,4.39,8.56,4.40,-4.40,-4.43,-4.56,4.16,4.17,4.17
226.70,8.49,4.35,8.49,4.34,-4.35,-4.38,-4.57,4.14,4.14,4.14
228.96,8.42,4.29,8.42,4.30,-4.30,-4.33,-4.57,4.11,4.12,4.13
231.25,8.37,4.26,8.36,4.25,-4.26,-4.28,-4.57,4.11,4.10,4.11
233.57,8.31,4.22,8.30,4.21,-4.21,-4.23,-4.56,4.10,4.09,4.09
235.90,8.22,4.14,8.23,4.16,-4.15,-4.18,-4.56,4.06,4.07,4.08
238.26,8.17,4.12,8.16,4.10,-4.10,-4.12,-4.54,4.06,4.06,4.05
240.64,8.10,4.04,8.10,4.05,-4.05,-4.07,-4.53,4.05,4.05,4.06
243.05,8.05,4.01,8.04,4.01,-4.00,-4.01,-4.51,4.05,4.04,4.04
245.48,7.99,3.96,7.98,3.95,-3.95,-3.95,-4.48,4.04,4.03,4.03
247.93,7.91,3.89,7.92,3.89,-3.89,-3.90,-4.45,4.01,4.02,4.02
250.41,7.86,3.83,7.85,3.83,-3.84,-3.84,-4.41,4.02,4.01,4.03
252.92,7.80,3.78,7.80,3.78,-3.79,-3.78,-4.36,4.01,4.01,4.02
255.45,7.75,3.74,7.75,3.73,-3.73,-3.72,-4.31,4.01,4.01,4.01
258.00,7.70,3.69,7.69,3.68,-3.68,-3.66,-4.26,4.02,4.01,4.01
260.58,7.64,3.63,7.64,3.63,-3.63,-3.60,-4.20,4.01,4.01,4.01
263.19,7.59,3.58,7.58,3.58,-3.58,-3.53,-4.13,4.01,4.01,4.01
265.82,7.53,3.53,7.53,3.53,-3.53,-3.47,-4.06,4.00,4.00,4.00
268.48,7.48,3.48,7.47,3.48,-3.48,-3.41,-3.99,4.00,4.00,4.00
271.16,7.43,3.43,7.42,3.42,-3.43,-3.34,-3.91,4.00,3.99,4.00
273.87,7.36,3.36,7.37,3.37,-3.38,-3.28,-3.83,3.98,3.99,4.00
276.61,7.32,3.32,7.32,3.33,-3.33,-3.21,-3.74,3.99,3.99,4.00
279.38,7.28,3.30,7.27,3.29,-3.27,-3.15,-3.65,4.00,4.00,3.98
282.17,7.23,3.25,7.22,3.23,-3.22,-3.08,-3.56,4.01,4.00,3.98
284.99,7.16,3.17,7.15,3.17,-3.16,-3.01,-3.46,3.99,3.99,3.99
287.84,7.08,3.08,7.09,3.10,-3.11,-2.95,-3.36,3.97,3.98,4.00
290.72,7.03,3.04,7.03,3.03,-3.05,-2.88,-3.26,3.98,3.98,3.99
293.63,6.99,2.99,6.98,2.98,-2.98,-2.81,-3.16,4.00,3.99,4.00
296.57,6.93,2.92,6.93,2.92,-2.92,-2.74,-3.06,4.01,4.01,4.01
299.53,6.88,2.87,6.87,2.86,-2.86,-2.67,-2.95,4.02,4.02,4.01
302.53,6.82,2.79,6.82,2.80,-2.80,-2.60,-2.85,4.02,4.02,4.03
305.55,6.76,2.74,6.76,2.73,-2.74,-2.53,-2.74,4.02,4.02,4.02
308.61,6.70,2.67,6.70,2.67,-2.67,-2.46,-2.64,4.02,4.02,4.03
311.69,6.64,2.60,6.64,2.61,-2.61,-2.39,-2.53,4.03,4.03,4.04
314.81,6.59,2.55,6.58,2.54,-2.54,-2.31,-2.42,4.05,4.05,4.04
317.96,6.53,2.48,6.53,2.48,-2.47,-2.24,-2.32,4.06,4.06,4.05
321.14,6.47,2.41,6.46,2.40,-2.40,-2.17,-2.22,4.07,4.06,4.06
324.35,6.39,2.33,6.39,2.32,-2.33,-2.10,-2.11,4.06,4.06,4.06
327.59,6.32,2.23,6.33,2.25,-2.25,-2.03,-2.01,4.06,4.07,4.09
330.87,6.27,2.19,6.26,2.18,-2.18,-1.95,-1.91,4.09,4.08,4.08
334.18,6.20,2.11,6.19,2.10,-2.10,-1.88,-1.80,4.10,4.09,4.09
337.52,6.12,2.03,6.12,2.03,-2.02,-1.81,-1.70,4.09,4.10,4.09
340.90,6.05,1.94,6.04,1.94,-1.94,-1.73,-1.60,4.10,4.10,4.11
344.30,5.97,1.85,5.97,1.86,-1.86,-1.66,-1.50,4.11,4.11,4.12
347.75,5.90,1.78,5.90,1.78,-1.78,-1.58,-1.41,4.12,4.12,4.12
351.23,5.83,1.71,5.82,1.70,-1.69,-1.51,-1.31,4.13,4.13,4.12
354.74,5.76,1.61,5.75,1.61,-1.61,-1.44,-1.21,4.15,4.14,4.15
358.28,5.66,1.52,5.67,1.52,-1.52,-1.36,-1.12,4.13,4.14,4.14
361.87,5.59,1.44,5.58,1.43,-1.44,-1.29,-1.02,4.15,4.15,4.15
365.49,5.51,1.35,5.51,1.35,-1.35,-1.21,-0.93,4.16,4.16,4.16
369.14,5.44,1.26,5.44,1.26,-1.27,-1.14,-0.84,4.17,4.17,4.18
372.83,5.37,1.19,5.36,1.18,-1.18,-1.06,-0.75,4.18,4.17,4.18
376.56,5.28,1.10,5.28,1.10,-1.10,-0.99,-0.66,4.17,4.18,4.18
380.33,5.21,1.02,5.21,1.02,-1.02,-0.91,-0.57,4.18,4.19,4.19
384.13,5.15,0.94,5.14,0.94,-0.94,-0.84,-0.48,4.20,4.20,4.21
387.97,5.08,0.87,5.07,0.86,-0.86,-0.76,-0.39,4.21,4.21,4.21
391.85,5.01,0.79,5.01,0.79,-0.79,-0.68,-0.30,4.22,4.22,4.22
395.77,4.94,0.71,4.94,0.71,-0.71,-0.61,-0.22,4.23,4.23,4.23
399.73,4.88,0.64,4.87,0.63,-0.63,-0.53,-0.13,4.25,4.24,4.24
403.72,4.81,0.54,4.80,0.54,-0.55,-0.46,-0.05,4.26,4.25,4.27
407.76,4.72,0.46,4.73,0.46,-0.46,-0.38,0.04,4.25,4.26,4.26
411.84,4.65,0.38,4.65,0.38,-0.38,-0.30,0.12,4.27,4.27,4.27
415.96,4.59,0.30,4.58,0.30,-0.29,-0.23,0.20,4.29,4.29,4.29
420.12,4.51,0.22,4.50,0.21,-0.21,-0.15,0.28,4.30,4.30,4.29
424.32,4.42,0.12,4.42,0.12,-0.12,-0.08,0.36,4.29,4.30,4.30
428.56,4.35,0.03,4.34,0.03,-0.04,-0.00,0.44,4.31,4.30,4.32
432.85,4.27,-0.06,4.27,-0.05,0.05,0.08,0.52,4.31,4.31,4.33
437.18,4.19,-0.13,4.20,-0.13,0.13,0.15,0.59,4.32,4.33,4.32
441.55,4.14,-0.19,4.12,-0.20,0.21,0.23,0.67,4.35,4.34,4.33
445.96,4.06,-0.28,4.05,-0.29,0.29,0.30,0.74,4.35,4.34,4.34
450.42,3.97,-0.38,3.98,-0.37,0.37,0.38,0.81,4.34,4.35,4.35
454.93,3.90,-0.46,3.90,-0.46,0.45,0.46,0.88,4.35,4.35,4.36
459.48,3.85,-0.52,3.84,-0.53,0.53,0.53,0.95,4.37,4.37,4.37
464.07,3.78,-0.61,3.78,-0.61,0.60,0.61,1.02,4.38,4.38,4.39
468.71,3.72,-0.68,3.71,-0.68,0.68,0.69,1.08,4.40,4.39,4.40
473.40,3.64,-0.76,3.65,-0.76,0.75,0.76,1.14,4.39,4.40,4.40
478.13,3.59,-0.82,3.58,-0.82,0.83,0.84,1.20,4.41,4.41,4.41
