frequency,raw,error,smoothed,error_smoothed,equalization,parametric_eq,fixed_band_eq,equalized_raw,equalized_smoothed,target
20.00,-4.41,-5.33,-4.41,-5.33,5.31,4.99,2.51,0.90,0.90,0.92
20.20,-4.39,-5.36,-4.39,-5.36,5.35,5.02,2.58,0.96,0.96,0.97
20.40,-4.37,-5.39,-4.37,-5.38,5.38,5.05,2.65,1.01,1.02,1.02
20.61,-4.35,-5.40,-4.35,-5.40,5.41,5.07,2.73,1.06,1.07,1.05
20.81,-4.33,-5.43,-4.33,-5.43,5.44,5.10,2.80,1.11,1.11,1.10
21.02,-4.31,-5.45,-4.32,-5.45,5.46,5.12,2.88,1.15,1.14,1.14
21.23,-4.31,-5.47,-4.31,-5.47,5.48,5.14,2.96,1.17,1.17,1.16
21.44,-4.31,-5.49,-4.31,-5.49,5.49,5.17,3.05,1.18,1.18,1.18
21.66,-4.31,-5.51,-4.31,-5.51,5.50,5.19,3.14,1.19,1.19,1.20
21.87,-4.31,-5.52,-4.31,-5.52,5.51,5.21,3.22,1.20,1.20,1.21
22.09,-4.30,-5.53,-4.30,-5.52,5.51,5.23,3.32,1.21,1.21,1.23
22.31,-4.28,-5.52,-4.28,-5.52,5.50,5.25,3.41,1.22,1.22,1.24
22.54,-4.26,-5.50,-4.26,-5.50,5.49,5.27,3.51,1.23,1.23,1.24
22.76,-4.23,-5.47,-4.23,-5.47,5.47,5.29,3.60,1.24,1.23,1.24
22.99,-4.21,-5.44,-4.21,-5.44,5.45,5.31,3.70,1.24,1.24,1.23
23.22,-4.19,-5.42,-4.19,-5.42,5.43,5.33,3.81,1.23,1.24,1.23
23.45,-4.17,-5.40,-4.17,-5.40,5.41,5.34,3.91,1.23,1.23,1.23
23.69,-4.15,-5.39,-4.15,-5.38,5.39,5.36,4.02,1.24,1.24,1.24
23.92,-4.13,-5.37,-4.13,-5.37,5.37,5.37,4.13,1.24,1.24,1.24
24.16,-4.12,-5.36,-4.12,-5.36,5.37,5.39,4.24,1.24,1.24,1.24
24.40,-4.12,-5.37,-4.12,-5.36,5.36,5.40,4.36,1.24,1.24,1.25
24.65,-4.12,-5.36,-4.12,-5.36,5.36,5.42,4.47,1.24,1.24,1.24
24.89,-4.12,-5.36,-4.12,-5.36,5.36,5.43,4.59,1.24,1.24,1.24
25.14,-4.12,-5.36,-4.12,-5.36,5.36,5.44,4.71,1.24,1.24,1.24
25.39,-4.12,-5.37,-4.12,-5.36,5.36,5.45,4.83,1.24,1.24,1.25
25.65,-4.12,-5.37,-4.12,-5.36,5.36,5.46,4.95,1.24,1.24,1.25
25.91,-4.12,-5.36,-4.12,-5.36,5.36,5.47,5.07,1.24,1.24,1.24
26.16,-4.12,-5.36,-4.12,-5.36,5.36,5.48,5.19,1.24,1.24,1.24
26.43,-4.12,-5.36,-4.12,-5.36,5.36,5.49,5.31,1.24,1.24,1.24
26.69,-4.12,-5.36,-4.12,-5.36,5.36,5.50,5.42,1.24,1.24,1.24
26.96,-4.12,-5.36,-4.12,-5.36,5.36,5.50,5.54,1.24,1.24,1.24
27.23,-4.12,-5.36,-4.12,-5.36,5.36,5.51,5.65,1.24,1.24,1.24
27.50,-4.12,-5.36,-4.12,-5.35,5.36,5.52,5.76,1.24,1.24,1.24
27.77,-4.12,-5.35,-4.12,-5.35,5.36,5.52,5.87,1.24,1.24,1.23
28.05,-4.12,-5.35,-4.12,-5.34,5.35,5.52,5.97,1.23,1.23,1.23
28.33,-4.12,-5.34,-4.13,-5.34,5.34,5.52,6.07,1.22,1.22,1.22
28.62,-4.12,-5.34,-4.12,-5.34,5.32,5.53,6.16,1.20,1.20,1.22
28.90,-4.12,-5.35,-4.11,-5.33,5.30,5.53,6.25,1.18,1.19,1.23
29.19,-4.08,-5.30,-4.08,-5.30,5.27,5.53,6.33,1.19,1.20,1.22
29.48,-4.03,-5.26,-4.03,-5.25,5.25,5.53,6.40,1.22,1.22,1.23
29.78,-3.97,-5.19,-3.98,-5.20,5.22,5.52,6.46,1.25,1.24,1.22
30.08,-3.93,-5.16,-3.94,-5.16,5.19,5.52,6.51,1.26,1.25,1.23
30.38,-3.93,-5.15,-3.93,-5.15,5.17,5.52,6.56,1.24,1.24,1.22
30.68,-3.93,-5.15,-3.93,-5.14,5.15,5.51,6.59,1.22,1.22,1.22
30.99,-3.93,-5.15,-3.93,-5.14,5.14,5.51,6.62,1.21,1.21,1.22
31.30,-3.93,-5.14,-3.93,-5.14,5.13,5.50,6.63,1.20,1.20,1.21
31.61,-3.93,-5.14,-3.93,-5.14,5.13,5.50,6.64,1.20,1.20,1.21
31.93,-3.93,-5.14,-3.93,-5.13,5.13,5.49,6.63,1.20,1.20,1.21
32.24,-3.93,-5.13,-3.93,-5.13,5.13,5.48,6.61,1.20,1.20,1.20
32.57,-3.93,-5.13,-3.93,-5.13,5.13,5.47,6.59,1.20,1.20,1.20
32.89,-3.93,-5.13,-3.93,-5.12,5.12,5.46,6.55,1.19,1.19,1.20
33.22,-3.93,-5.12,-3.93,-5.12,5.12,5.45,6.51,1.19,1.19,1.19
33.55,-3.93,-5.12,-3.93,-5.12,5.11,5.44,6.46,1.18,1.18,1.19
33.89,-3.93,-5.11,-3.93,-5.11,5.11,5.43,6.40,1.18,1.18,1.18
34.23,-3.93,-5.11,-3.93,-5.11,5.10,5.41,6.34,1.17,1.17,1.18
34.57,-3.93,-5.10,-3.93,-5.10,5.10,5.40,6.27,1.17,1.17,1.17
34.92,-3.93,-5.10,-3.93,-5.09,5.10,5.38,6.20,1.16,1.16,1.17
35.27,-3.93,-5.09,-3.93,-5.09,5.09,5.37,6.12,1.16,1.16,1.16
35.62,-3.93,-5.09,-3.93,-5.09,5.09,5.35,6.04,1.16,1.16,1.16
35.97,-3.93,-5.09,-3.93,-5.09,5.09,5.33,5.95,1.15,1.15,1.16
36.33,-3.93,-5.09,-3.93,-5.08,5.08,5.31,5.87,1.15,1.15,1.16
36.70,-3.93,-5.08,-3.93,-5.08,5.08,5.29,5.78,1.15,1.15,1.15
37.06,-3.93,-5.08,-3.93,-5.08,5.08,5.27,5.69,1.15,1.15,1.15
37.43,-3.93,-5.09,-3.93,-5.08,5.09,5.25,5.60,1.15,1.15,1.16
37.81,-3.93,-5.09,-3.93,-5.08,5.09,5.23,5.51,1.16,1.16,1.16
38.19,-3.93,-5.08,-3.93,-5.09,5.09,5.21,5.42,1.16,1.16,1.15
38.57,-3.93,-5.09,-3.93,-5.09,5.09,5.19,5.34,1.16,1.16,1.16
38.95,-3.93,-5.10,-3.93,-5.09,5.09,5.16,5.25,1.15,1.15,1.17
39.34,-3.93,-5.09,-3.93,-5.09,5.08,5.14,5.17,1.15,1.15,1.16
39.74,-3.92,-5.08,-3.92,-5.08,5.07,5.11,5.09,1.15,1.14,1.16
40.14,-3.91,-5.07,-3.90,-5.06,5.05,5.09,5.01,1.14,1.15,1.16
40.54,-3.87,-5.03,-3.88,-5.03,5.04,5.06,4.93,1.16,1.16,1.16
40.94,-3.84,-4.99,-3.85,-5.00,5.01,5.03,4.86,1.17,1.16,1.15
41.35,-3.83,-4.98,-3.83,-4.97,4.99,5.00,4.79,1.16,1.16,1.15
41.76,-3.82,-4.96,-3.82,-4.96,4.96,4.97,4.72,1.13,1.14,1.14
42.18,-3.80,-4.94,-3.80,-4.93,4.92,4.94,4.66,1.12,1.12,1.14
42.60,-3.77,-4.90,-3.77,-4.90,4.88,4.91,4.60,1.11,1.11,1.13
43.03,-3.73,-4.85,-3.73,-4.85,4.83,4.88,4.54,1.10,1.10,1.12
43.46,-3.69,-4.80,-3.69,-4.79,4.79,4.85,4.48,1.10,1.10,1.11
43.90,-3.65,-4.74,-3.65,-4.74,4.74,4.82,4.43,1.09,1.09,1.09
44.33,-3.61,-4.68,-3.61,-4.68,4.69,4.79,4.39,1.08,1.08,1.07
44.78,-3.58,-4.63,-3.58,-4.63,4.65,4.75,4.34,1.07,1.07,1.05
45.23,-3.56,-4.60,-3.56,-4.60,4.61,4.72,4.30,1.05,1.05,1.04
45.68,-3.55,-4.58,-3.55,-4.57,4.58,4.68,4.27,1.03,1.03,1.03
46.13,-3.54,-4.55,-3.54,-4.56,4.55,4.65,4.23,1.01,1.01,1.01
46.60,-3.54,-4.55,-3.54,-4.54,4.53,4.61,4.20,0.99,0.99,1.01
47.06,-3.54,-4.53,-3.54,-4.53,4.52,4.58,4.18,0.98,0.98,0.99
47.53,-3.54,-4.52,-3.54,-4.52,4.51,4.54,4.15,0.97,0.97,0.98
48.01,-3.54,-4.52,-3.54,-4.51,4.51,4.50,4.13,0.97,0.97,0.98
48.49,-3.54,-4.50,-3.54,-4.50,4.51,4.46,4.11,0.97,0.97,0.96
48.97,-3.54,-4.48,-3.56,-4.50,4.51,4.42,4.10,0.96,0.95,0.94
49.46,-3.59,-4.51,-3.59,-4.51,4.50,4.39,4.08,0.91,0.91,0.92
49.96,-3.64,-4.54,-3.62,-4.52,4.50,4.35,4.07,0.86,0.88,0.90
50.46,-3.64,-4.53,-3.64,-4.53,4.51,4.31,4.07,0.87,0.86,0.89
50.96,-3.64,-4.52,-3.64,-4.51,4.51,4.27,4.06,0.87,0.87,0.88
51.47,-3.64,-4.50,-3.64,-4.50,4.52,4.23,4.05,0.88,0.88,0.86
51.99,-3.64,-4.49,-3.66,-4.51,4.53,4.18,4.05,0.89,0.87,0.85
52.51,-3.69,-4.53,-3.69,-4.53,4.53,4.14,4.05,0.84,0.84,0.84
53.03,-3.73,-4.57,-3.72,-4.55,4.53,4.10,4.05,0.80,0.82,0.84
53.56,-3.73,-4.55,-3.73,-4.55,4.53,4.06,4.05,0.80,0.80,0.82
54.10,-3.73,-4.54,-3.74,-4.54,4.53,4.02,4.05,0.80,0.80,0.81
54.64,-3.73,-4.52,-3.73,-4.52,4.53,3.97,4.05,0.80,0.80,0.79
55.18,-3.73,-4.52,-3.73,-4.51,4.52,3.93,4.05,0.79,0.79,0.79
55.74,-3.73,-4.50,-3.74,-4.51,4.51,3.89,4.05,0.77,0.77,0.77
56.29,-3.73,-4.49,-3.73,-4.49,4.48,3.84,4.04,0.75,0.75,0.76
56.86,-3.73,-4.48,-3.72,-4.46,4.45,3.80,4.04,0.72,0.74,0.75
57.42,-3.69,-4.41,-3.69,-4.41,4.42,3.75,4.04,0.73,0.73,0.72
58.00,-3.64,-4.35,-3.65,-4.36,4.37,3.71,4.03,0.73,0.72,0.71
58.58,-3.61,-4.31,-3.62,-4.31,4.31,3.66,4.02,0.70,0.70,0.70
59.16,-3.58,-4.26,-3.58,-4.25,4.23,3.62,4.01,0.65,0.66,0.68
59.76,-3.53,-4.19,-3.52,-4.18,4.14,3.57,3.99,0.61,0.62,0.66
60.35,-3.45,-4.07,-3.45,-4.07,4.04,3.53,3.97,0.59,0.59,0.62
60.96,-3.35,-3.93,-3.35,-3.93,3.92,3.48,3.95,0.57,0.57,0.58
61.57,-3.25,-3.79,-3.25,-3.79,3.80,3.43,3.93,0.55,0.54,0.54
62.18,-3.16,-3.66,-3.16,-3.66,3.67,3.39,3.90,0.51,0.51,0.50
62.80,-3.08,-3.53,-3.09,-3.53,3.55,3.34,3.87,0.47,0.46,0.45
63.43,-3.02,-3.43,-3.01,-3.42,3.43,3.29,3.83,0.41,0.42,0.41
64.07,-2.95,-3.31,-2.95,-3.31,3.32,3.25,3.79,0.37,0.37,0.36
64.71,-2.89,-3.21,-2.90,-3.22,3.23,3.20,3.75,0.34,0.33,0.32
65.35,-2.86,-3.14,-2.87,-3.14,3.16,3.15,3.70,0.29,0.29,0.28
66.01,-2.86,-3.09,-2.86,-3.08,3.09,3.11,3.65,0.23,0.23,0.23
66.67,-2.86,-3.04,-2.86,-3.04,3.03,3.06,3.60,0.17,0.17,0.18
67.33,-2.86,-2.99,-2.86,-2.99,2.98,3.01,3.54,0.12,0.12,0.13
68.01,-2.86,-2.95,-2.86,-2.94,2.94,2.96,3.48,0.07,0.07,0.09
68.69,-2.86,-2.90,-2.86,-2.90,2.89,2.92,3.42,0.03,0.03,0.04
69.37,-2.86,-2.85,-2.86,-2.85,2.84,2.87,3.35,-0.02,-0.02,-0.01
70.07,-2.86,-2.80,-2.86,-2.80,2.79,2.82,3.29,-0.07,-0.07,-0.06
70.77,-2.86,-2.75,-2.86,-2.75,2.74,2.77,3.22,-0.12,-0.12,-0.11
71.48,-2.86,-2.70,-2.86,-2.69,2.68,2.73,3.15,-0.18,-0.18,-0.16
72.19,-2.86,-2.63,-2.86,-2.63,2.63,2.68,3.08,-0.24,-0.24,-0.23
72.91,-2.86,-2.57,-2.86,-2.57,2.57,2.63,3.00,-0.29,-0.29,-0.29
73.64,-2.86,-2.52,-2.86,-2.51,2.52,2.59,2.93,-0.34,-0.34,-0.34
74.38,-2.86,-2.46,-2.86,-2.46,2.47,2.54,2.86,-0.39,-0.39,-0.40
75.12,-2.87,-2.41,-2.88,-2.41,2.43,2.49,2.78,-0.44,-0.45,-0.46
75.87,-2.90,-2.38,-2.91,-2.38,2.38,2.44,2.71,-0.52,-0.52,-0.52
76.63,-2.94,-2.37,-2.93,-2.36,2.34,2.40,2.64,-0.60,-0.59,-0.57
77.40,-2.96,-2.34,-2.96,-2.33,2.31,2.35,2.56,-0.65,-0.65,-0.62
78.17,-2.96,-2.28,-2.96,-2.28,2.28,2.30,2.49,-0.68,-0.68,-0.68
78.95,-2.96,-2.24,-2.96,-2.23,2.25,2.26,2.42,-0.71,-0.71,-0.72
79.74,-2.96,-2.19,-2.98,-2.20,2.22,2.21,2.35,-0.74,-0.76,-0.77
80.54,-3.00,-2.18,-3.01,-2.18,2.19,2.16,2.28,-0.81,-0.82,-0.82
81.35,-3.05,-2.18,-3.04,-2.16,2.15,2.12,2.21,-0.90,-0.88,-0.87
82.16,-3.06,-2.14,-3.06,-2.14,2.12,2.07,2.14,-0.94,-0.94,-0.92
82.98,-3.06,-2.10,-3.07,-2.10,2.08,2.02,2.07,-0.98,-0.98,-0.96
83.81,-3.06,-2.05,-3.06,-2.05,2.05,1.98,2.01,-1.01,-1.02,-1.01
84.65,-3.06,-2.00,-3.06,-2.00,2.01,1.93,1.94,-1.06,-1.06,-1.06
85.50,-3.06,-1.96,-3.06,-1.95,1.96,1.89,1.88,-1.10,-1.10,-1.10
86.35,-3.06,-1.91,-3.06,-1.91,1.91,1.84,1.82,-1.15,-1.15,-1.15
87.22,-3.06,-1.86,-3.06,-1.86,1.85,1.80,1.75,-1.21,-1.21,-1.20
88.09,-3.06,-1.81,-3.06,-1.80,1.80,1.75,1.69,-1.26,-1.26,-1.25
88.97,-3.06,-1.75,-3.06,-1.75,1.75,1.71,1.64,-1.31,-1.31,-1.31
89.86,-3.05,-1.69,-3.05,-1.69,1.70,1.66,1.58,-1.36,-1.36,-1.36
90.76,-3.05,-1.64,-3.05,-1.64,1.64,1.62,1.52,-1.41,-1.41,-1.41
91.66,-3.05,-1.59,-3.05,-1.58,1.59,1.57,1.47,-1.46,-1.46,-1.46
92.58,-3.05,-1.53,-3.05,-1.53,1.53,1.53,1.41,-1.52,-1.52,-1.52
93.51,-3.05,-1.48,-3.05,-1.48,1.48,1.49,1.36,-1.58,-1.58,-1.57
94.44,-3.05,-1.44,-3.06,-1.44,1.42,1.44,1.31,-1.64,-1.64,-1.61
95.39,-3.05,-1.39,-3.04,-1.38,1.36,1.40,1.26,-1.69,-1.69,-1.66
96.34,-3.03,-1.32,-3.02,-1.30,1.30,1.36,1.21,-1.73,-1.72,-1.71
97.30,-2.98,-1.22,-2.99,-1.23,1.25,1.31,1.16,-1.73,-1.75,-1.76
98.28,-2.97,-1.16,-2.98,-1.17,1.20,1.27,1.11,-1.78,-1.79,-1.81
99.26,-2.99,-1.14,-2.99,-1.13,1.15,1.23,1.07,-1.84,-1.84,-1.85
100.25,-3.01,-1.11,-3.01,-1.10,1.10,1.19,1.02,-1.91,-1.91,-1.90
101.25,-3.03,-1.08,-3.03,-1.07,1.06,1.15,0.98,-1.97,-1.97,-1.95
102.27,-3.04,-1.04,-3.04,-1.04,1.03,1.10,0.94,-2.01,-2.01,-2.00
103.29,-3.05,-1.00,-3.05,-1.00,1.00,1.06,0.89,-2.05,-2.06,-2.05
104.32,-3.07,-0.98,-3.07,-0.98,0.97,1.02,0.85,-2.10,-2.10,-2.09
105.37,-3.09,-0.95,-3.09,-0.95,0.95,0.98,0.81,-2.14,-2.14,-2.14
106.42,-3.12,-0.93,-3.11,-0.92,0.93,0.94,0.77,-2.19,-2.18,-2.19
107.48,-3.14,-0.89,-3.14,-0.89,0.91,0.90,0.73,-2.23,-2.23,-2.25
108.56,-3.17,-0.87,-3.19,-0.88,0.90,0.86,0.69,-2.27,-2.29,-2.30
109.64,-3.24,-0.89,-3.24,-0.88,0.88,0.83,0.66,-2.36,-2.36,-2.35
110.74,-3.30,-0.89,-3.29,-0.88,0.86,0.79,0.62,-2.44,-2.43,-2.41
111.85,-3.32,-0.87,-3.32,-0.86,0.83,0.75,0.58,-2.49,-2.49,-2.45
112.97,-3.33,-0.82,-3.33,-0.82,0.80,0.71,0.55,-2.53,-2.53,-2.51
114.10,-3.33,-0.77,-3.34,-0.77,0.77,0.67,0.52,-2.56,-2.57,-2.56
115.24,-3.34,-0.73,-3.34,-0.72,0.73,0.64,0.48,-2.61,-2.61,-2.61
116.39,-3.33,-0.67,-3.34,-0.67,0.68,0.60,0.45,-2.65,-2.65,-2.66
117.55,-3.33,-0.63,-3.33,-0.63,0.64,0.56,0.42,-2.70,-2.70,-2.70
118.73,-3.33,-0.59,-3.33,-0.58,0.59,0.53,0.38,-2.74,-2.74,-2.74
119.92,-3.32,-0.55,-3.32,-0.54,0.54,0.49,0.35,-2.78,-2.78,-2.77
121.12,-3.31,-0.50,-3.31,-0.50,0.50,0.45,0.32,-2.81,-2.81,-2.81
122.33,-3.30,-0.46,-3.30,-0.46,0.46,0.42,0.29,-2.84,-2.84,-2.84
123.55,-3.30,-0.43,-3.30,-0.42,0.42,0.38,0.26,-2.88,-2.87,-2.87
124.79,-3.29,-0.39,-3.29,-0.39,0.39,0.35,0.23,-2.91,-2.90,-2.90
126.03,-3.28,-0.35,-3.28,-0.35,0.35,0.32,0.21,-2.93,-2.93,-2.93
127.29,-3.27,-0.32,-3.27,-0.31,0.31,0.28,0.18,-2.96,-2.96,-2.95
128.57,-3.27,-0.28,-3.27,-0.28,0.28,0.25,0.15,-3.00,-2.99,-2.99
129.85,-3.26,-0.24,-3.26,-0.24,0.24,0.22,0.12,-3.02,-3.02,-3.02
131.15,-3.26,-0.21,-3.26,-0.20,0.21,0.18,0.10,-3.06,-3.05,-3.05
132.46,-3.25,-0.17,-3.25,-0.17,0.17,0.15,0.07,-3.08,-3.08,-3.08
133.79,-3.25,-0.14,-3.25,-0.14,0.14,0.12,0.04,-3.11,-3.11,-3.11
135.12,-3.24,-0.10,-3.24,-0.10,0.10,0.09,0.02,-3.14,-3.14,-3.14
136.48,-3.24,-0.08,-3.24,-0.07,0.07,0.06,-0.01,-3.17,-3.17,-3.16
137.84,-3.24,-0.04,-3.24,-0.04,0.04,0.02,-0.03,-3.20,-3.20,-3.20
139.22,-3.24,-0.01,-3.24,-0.01,0.01,-0.01,-0.06,-3.23,-3.23,-3.23
140.61,-3.24,0.02,-3.24,0.02,-0.02,-0.04,-0.09,-3.26,-3.26,-3.26
142.02,-3.23,0.05,-3.23,0.05,-0.05,-0.07,-0.11,-3.28,-3.28,-3.28
143.44,-3.23,0.08,-3.23,0.09,-0.08,-0.10,-0.14,-3.31,-3.31,-3.31
144.87,-3.23,0.12,-3.23,0.12,-0.11,-0.12,-0.16,-3.34,-3.34,-3.35
146.32,-3.24,0.15,-3.24,0.15,-0.15,-0.15,-0.19,-3.39,-3.39,-3.39
147.78,-3.24,0.18,-3.24,0.19,-0.20,-0.18,-0.21,-3.44,-3.44,-3.42
149.26,-3.24,0.23,-3.25,0.23,-0.26,-0.21,-0.24,-3.50,-3.50,-3.47
150.75,-3.24,0.29,-3.24,0.29,-0.32,-0.24,-0.26,-3.56,-3.57,-3.53
152.26,-3.24,0.36,-3.23,0.37,-0.39,-0.26,-0.29,-3.64,-3.62,-3.60
153.78,-3.21,0.46,-3.20,0.48,-0.47,-0.29,-0.32,-3.68,-3.67,-3.67
155.32,-3.16,0.58,-3.17,0.57,-0.54,-0.32,-0.34,-3.71,-3.72,-3.74
156.88,-3.14,0.68,-3.17,0.65,-0.62,-0.34,-0.37,-3.76,-3.79,-3.82
158.44,-3.21,0.69,-3.19,0.71,-0.69,-0.37,-0.40,-3.90,-3.88,-3.90
160.03,-3.23,0.75,-3.22,0.76,-0.76,-0.40,-0.43,-3.99,-3.98,-3.98
161.63,-3.23,0.82,-3.24,0.81,-0.83,-0.42,-0.46,-4.06,-4.07,-4.05
163.24,-3.24,0.87,-3.24,0.87,-0.89,-0.45,-0.49,-4.13,-4.13,-4.11
164.88,-3.24,0.92,-3.24,0.92,-0.95,-0.47,-0.51,-4.19,-4.19,-4.16
166.53,-3.24,0.97,-3.23,0.99,-1.00,-0.50,-0.54,-4.24,-4.22,-4.21
168.19,-3.20,1.05,-3.20,1.05,-1.04,-0.52,-0.58,-4.25,-4.25,-4.25
169.87,-3.16,1.13,-3.18,1.11,-1.08,-0.54,-0.61,-4.25,-4.26,-4.29
171.57,-3.17,1.14,-3.17,1.15,-1.12,-0.57,-0.64,-4.29,-4.29,-4.31
173.29,-3.17,1.15,-3.17,1.16,-1.14,-0.59,-0.67,-4.31,-4.31,-4.32
175.02,-3.18,1.15,-3.18,1.16,-1.16,-0.61,-0.70,-4.34,-4.34,-4.33
176.77,-3.18,1.16,-3.18,1.16,-1.17,-0.63,-0.74,-4.35,-4.35,-4.34
178.54,-3.18,1.17,-3.18,1.16,-1.17,-0.66,-0.77,-4.35,-4.35,-4.35
180.32,-3.18,1.16,-3.18,1.17,-1.17,-0.68,-0.81,-4.35,-4.35,-4.34
182.13,-3.17,1.16,-3.17,1.17,-1.18,-0.70,-0.84,-4.35,-4.35,-4.33
183.95,-3.16,1.18,-3.16,1.18,-1.19,-0.72,-0.88,-4.35,-4.35,-4.34
185.79,-3.15,1.19,-3.15,1.20,-1.20,-0.74,-0.91,-4.35,-4.35,-4.34
187.65,-3.14,1.22,-3.14,1.22,-1.22,-0.76,-0.95,-4.36,-4.36,-4.36
189.52,-3.12,1.25,-3.13,1.25,-1.25,-0.78,-0.99,-4.37,-4.37,-4.37
191.42,-3.11,1.28,-3.11,1.28,-1.28,-0.80,-1.03,-4.39,-4.39,-4.39
193.33,-3.10,1.31,-3.10,1.32,-1.31,-0.82,-1.07,-4.42,-4.41,-4.41
195.27,-3.08,1.35,-3.09,1.35,-1.36,-0.84,-1.11,-4.44,-4.44,-4.43
197.22,-3.07,1.38,-3.07,1.38,-1.40,-0.86,-1.15,-4.47,-4.47,-4.45
199.19,-3.05,1.42,-3.04,1.43,-1.44,-0.88,-1.19,-4.49,-4.49,-4.47
201.18,-3.01,1.48,-3.01,1.49,-1.49,-0.90,-1.23,-4.50,-4.50,-4.49
203.19,-2.97,1.54,-2.97,1.54,-1.53,-0.91,-1.27,-4.50,-4.50,-4.51
205.23,-2.94,1.59,-2.95,1.58,-1.56,-0.93,-1.31,-4.50,-4.51,-4.53
207.28,-2.94,1.60,-2.94,1.61,-1.59,-0.95,-1.35,-4.53,-4.54,-4.54
209.35,-2.95,1.61,-2.94,1.62,-1.62,-0.97,-1.39,-4.57,-4.56,-4.56
211.44,-2.95,1.64,-2.95,1.64,-1.64,-0.98,-1.42,-4.59,-4.59,-4.59
213.56,-2.95,1.65,-2.96,1.65,-1.65,-1.00,-1.46,-4.61,-4.61,-4.60
215.69,-2.96,1.65,-2.96,1.66,-1.66,-1.02,-1.50,-4.63,-4.62,-4.61
217.85,-2.96,1.66,-2.96,1.67,-1.67,-1.03,-1.54,-4.63,-4.63,-4.62
220.03,-2.96,1.67,-2.97,1.68,-1.67,-1.05,-1.57,-4.64,-4.64,-4.63
222.23,-2.97,1.69,-2.97,1.68,-1.68,-1.07,-1.61,-4.65,-4.65,-4.66
224.45,-2.97,1.68,-2.97,1.69,-1.68,-1.08,-1.64,-4.65,-4.65,-4.65
226.70,-2.97,1.68,-2.97,1.69,-1.68,-1.10,-1.68,-4.66,-4.65,-4.65
228.96,-2.96,1.68,-2.96,1.68,-1.68,-1.11,-1.71,-4.64,-4.65,-4.64
231.25,-2.95,1.68,-2.96,1.68,-1.68,-1.13,-1.73,-4.63,-4.63,-4.63
233.57,-2.95,1.67,-2.95,1.68,-1.67,-1.14,-1.76,-4.62,-4.62,-4.62
235.90,-2.93,1.68,-2.93,1.68,-1.67,-1.15,-1.78,-4.60,-4.60,-4.61
238.26,-2.92,1.68,-2.92,1.68,-1.67,-1.17,-1.80,-4.60,-4.60,-4.60
240.64,-2.90,1.67,-2.92,1.66,-1.69,-1.18,-1.82,-4.59,-4.60,-4.57
243.05,-2.89,1.65,-2.88,1.66,-1.71,-1.20,-1.84,-4.60,-4.59,-4.54
245.48,-2.86,1.66,-2.82,1.70,-1.73,-1.21,-1.85,-4.59,-4.55,-4.52
247.93,-2.72,1.77,-2.74,1.75,-1.75,-1.22,-1.86,-4.47,-4.50,-4.49
250.41,-2.65,1.82,-2.67,1.81,-1.77,-1.24,-1.87,-4.43,-4.44,-4.47
252.92,-2.61,1.83,-2.61,1.83,-1.79,-1.25,-1.88,-4.40,-4.40,-4.44
255.45,-2.60,1.82,-2.60,1.83,-1.81,-1.26,-1.88,-4.41,-4.40,-4.42
258.00,-2.59,1.81,-2.59,1.81,-1.81,-1.27,-1.88,-4.40,-4.40,-4.40
260.58,-2.58,1.80,-2.58,1.80,-1.80,-1.29,-1.87,-4.38,-4.39,-4.38
263.19,-2.58,1.77,-2.58,1.78,-1.78,-1.30,-1.87,-4.37,-4.37,-4.35
265.82,-2.58,1.75,-2.58,1.75,-1.76,-1.31,-1.86,-4.34,-4.34,-4.33
268.48,-2.59,1.72,-2.59,1.72,-1.73,-1.32,-1.85,-4.32,-4.31,-4.31
271.16,-2.59,1.69,-2.59,1.70,-1.70,-1.33,-1.84,-4.29,-4.29,-4.28
273.87,-2.59,1.67,-2.60,1.66,-1.67,-1.34,-1.82,-4.26,-4.26,-4.26
276.61,-2.60,1.63,-2.60,1.64,-1.64,-1.35,-1.81,-4.24,-4.24,-4.23
279.38,-2.60,1.60,-2.60,1.61,-1.61,-1.37,-1.79,-4.21,-4.21,-4.20
282.17,-2.59,1.59,-2.60,1.58,-1.59,-1.38,-1.77,-4.18,-4.18,-4.18
284.99,-2.59,1.55,-2.59,1.56,-1.56,-1.39,-1.75,-4.15,-4.15,-4.14
287.84,-2.58,1.54,-2.58,1.54,-1.54,-1.40,-1.73,-4.12,-4.12,-4.12
290.72,-2.57,1.52,-2.57,1.52,-1.52,-1.41,-1.70,-4.09,-4.10,-4.09
293.63,-2.56,1.50,-2.56,1.51,-1.51,-1.42,-1.68,-4.07,-4.06,-4.06
296.57,-2.54,1.49,-2.54,1.49,-1.49,-1.43,-1.66,-4.03,-4.03,-4.03
299.53,-2.53,1.47,-2.53,1.47,-1.47,-1.44,-1.63,-4.00,-4.00,-4.00
302.53,-2.52,1.46,-2.52,1.46,-1.45,-1.45,-1.61,-3.98,-3.97,-3.98
305.55,-2.51,1.43,-2.51,1.44,-1.44,-1.45,-1.58,-3.95,-3.95,-3.94
308.61,-2.50,1.42,-2.50,1.42,-1.42,-1.46,-1.56,-3.92,-3.92,-3.92
311.69,-2.49,1.40,-2.49,1.40,-1.41,-1.47,-1.54,-3.90,-3.90,-3.89
314.81,-2.49,1.38,-2.49,1.38,-1.40,-1.48,-1.51,-3.89,-3.89,-3.87
317.96,-2.49,1.36,-2.49,1.37,-1.38,-1.49,-1.49,-3.87,-3.87,-3.85
321.14,-2.49,1.35,-2.49,1.35,-1.35,-1.50,-1.47,-3.85,-3.85,-3.84
324.35,-2.49,1.33,-2.48,1.34,-1.32,-1.51,-1.44,-3.82,-3.81,-3.82
327.59,-2.49,1.32,-2.49,1.33,-1.29,-1.52,-1.42,-3.78,-3.78,-3.81
330.87,-2.49,1.31,-2.52,1.28,-1.25,-1.52,-1.40,-3.74,-3.77,-3.80
334.18,-2.56,1.22,-2.57,1.22,-1.21,-1.53,-1.38,-3.77,-3.78,-3.78
337.52,-2.65,1.12,-2.63,1.15,-1.17,-1.54,-1.36,-3.83,-3.80,-3.77
340.90,-2.68,1.08,-2.68,1.09,-1.13,-1.55,-1.35,-3.81,-3.81,-3.76
344.30,-2.69,1.06,-2.69,1.07,-1.09,-1.55,-1.33,-3.78,-3.78,-3.75
347.75,-2.69,1.06,-2.69,1.06,-1.04,-1.56,-1.31,-3.74,-3.74,-3.75
351.23,-2.69,1.05,-2.71,1.04,-1.00,-1.57,-1.30,-3.70,-3.72,-3.74
354.74,-2.75,1.00,-2.74,1.01,-0.98,-1.58,-1.28,-3.73,-3.71,-3.75
358.28,-2.78,0.96,-2.77,0.97,-0.96,-1.58,-1.27,-3.74,-3.73,-3.74
361.87,-2.79,0.95,-2.82,0.92,-0.95,-1.59,-1.26,-3.75,-3.78,-3.74
365.49,-2.85,0.88,-2.84,0.90,-0.95,-1.60,-1.25,-3.80,-3.79,-3.73
369.14,-2.86,0.88,-2.82,0.92,-0.95,-1.60,-1.24,-3.81,-3.77,-3.74
372.83,-2.77,0.97,-2.79,0.95,-0.96,-1.61,-1.23,-3.73,-3.75,-3.74
376.56,-2.72,1.03,-2.75,1.00,-0.97,-1.62,-1.22,-3.69,-3.72,-3.75
380.33,-2.74,1.00,-2.72,1.02,-0.99,-1.62,-1.21,-3.73,-3.71,-3.74
384.13,-2.73,1.01,-2.73,1.02,-1.01,-1.63,-1.21,-3.74,-3.73,-3.74
387.97,-2.72,1.03,-2.73,1.02,-1.02,-1.64,-1.20,-3.74,-3.75,-3.75
391.85,-2.72,1.04,-2.72,1.04,-1.03,-1.64,-1.20,-3.75,-3.75,-3.76
395.77,-2.72,1.03,-2.72,1.04,-1.03,-1.65,-1.19,-3.75,-3.75,-3.75
399.73,-2.72,1.04,-2.72,1.04,-1.03,-1.66,-1.19,-3.76,-3.75,-3.76
403.72,-2.72,1.04,-2.72,1.05,-1.05,-1.66,-1.19,-3.77,-3.77,-3.76
407.76,-2.72,1.06,-2.74,1.04,-1.07,-1.67,-1.19,-3.79,-3.81,-3.78
411.84,-2.74,1.04,-2.74,1.04,-1.09,-1.67,-1.19,-3.83,-3.83,-3.78
415.96,-2.75,1.03,-2.69,1.09,-1.12,-1.68,-1.19,-3.87,-3.82,-3.78
420.12,-2.60,1.18,-2.63,1.16,-1.15,-1.69,-1.19,-3.76,-3.78,-3.78
424.32,-2.52,1.26,-2.56,1.22,-1.19,-1.69,-1.19,-3.71,-3.74,-3.78
428.56,-2.52,1.25,-2.51,1.27,-1.22,-1.70,-1.19,-3.74,-3.73,-3.77
432.85,-2.51,1.25,-2.50,1.27,-1.25,-1.70,-1.20,-3.76,-3.75,-3.76
437.18,-2.48,1.27,-2.48,1.26,-1.27,-1.71,-1.20,-3.75,-3.75,-3.75
441.55,-2.44,1.27,-2.45,1.28,-1.29,-1.71,-1.20,-3.73,-3.74,-3.71
445.96,-2.40,1.28,-2.40,1.29,-1.30,-1.72,-1.21,-3.71,-3.70,-3.68
450.42,-2.35,1.30,-2.35,1.30,-1.31,-1.73,-1.21,-3.67,-3.66,-3.65
454.93,-2.29,1.31,-2.29,1.32,-1.32,-1.73,-1.22,-3.61,-3.61,-3.60
459.48,-2.23,1.33,-2.23,1.33,-1.33,-1.74,-1.23,-3.56,-3.56,-3.56
