frequency,raw,error,smoothed,error_smoothed,equalization,parametric_eq,fixed_band_eq,equalized_raw,equalized_smoothed,target
20.00,-25.03,-26.83,-25.03,-26.85,26.85,25.49,11.68,1.81,1.81,1.79
20.20,-24.80,-26.64,-24.81,-26.65,26.65,25.48,11.85,1.85,1.85,1.83
20.40,-24.58,-26.45,-24.58,-26.46,26.46,25.45,12.03,1.88,1.88,1.87
20.61,-24.36,-26.26,-24.36,-26.26,26.26,25.41,12.21,1.90,1.90,1.90
20.81,-24.12,-26.06,-24.13,-26.06,26.06,25.36,12.40,1.94,1.93,1.94
21.02,-23.90,-25.88,-23.90,-25.86,25.86,25.30,12.59,1.95,1.95,1.98
21.23,-23.67,-25.67,-23.67,-25.65,25.65,25.23,12.79,1.98,1.98,2.00
21.44,-23.44,-25.46,-23.44,-25.44,25.44,25.14,12.99,2.00,2.00,2.02
21.66,-23.22,-25.25,-23.21,-25.23,25.23,25.04,13.19,2.02,2.02,2.04
21.87,-22.98,-25.03,-22.98,-25.02,25.02,24.93,13.40,2.04,2.04,2.05
22.09,-22.75,-24.82,-22.75,-24.81,24.81,24.80,13.61,2.06,2.06,2.07
22.31,-22.52,-24.60,-22.52,-24.59,24.59,24.66,13.83,2.07,2.07,2.08
22.54,-22.29,-24.37,-22.29,-24.37,24.37,24.51,14.06,2.08,2.09,2.08
22.76,-22.05,-24.15,-22.05,-24.15,24.15,24.35,14.29,2.09,2.10,2.09
22.99,-21.82,-23.91,-21.82,-23.92,23.92,24.18,14.53,2.10,2.10,2.09
23.22,-21.58,-23.68,-21.58,-23.69,23.69,24.00,14.77,2.12,2.11,2.10
23.45,-21.34,-23.46,-21.34,-23.46,23.46,23.80,15.02,2.12,2.12,2.11
23.69,-21.11,-23.23,-21.11,-23.24,23.24,23.60,15.28,2.13,2.13,2.12
23.92,-20.87,-23.00,-20.87,-23.01,23.01,23.39,15.55,2.14,2.14,2.13
24.16,-20.63,-22.78,-20.63,-22.78,22.78,23.18,15.83,2.15,2.15,2.15
24.40,-20.39,-22.56,-20.39,-22.55,22.55,22.95,16.11,2.16,2.16,2.17
24.65,-20.16,-22.32,-20.15,-22.32,22.32,22.72,16.41,2.16,2.17,2.17
24.89,-19.91,-22.09,-19.92,-22.09,22.09,22.49,16.71,2.18,2.18,2.18
25.14,-19.67,-21.86,-19.68,-21.86,21.86,22.25,17.02,2.19,2.19,2.19
25.39,-19.43,-21.63,-19.44,-21.64,21.64,22.00,17.35,2.20,2.20,2.20
25.65,-19.21,-21.42,-19.20,-21.41,21.41,21.75,17.68,2.20,2.21,2.21
25.91,-18.97,-21.18,-18.96,-21.18,21.18,21.50,18.03,2.21,2.22,2.21
26.16,-18.72,-20.94,-18.72,-20.95,20.95,21.24,18.39,2.22,2.23,2.22
26.43,-18.48,-20.71,-18.48,-20.71,20.71,20.98,18.76,2.23,2.23,2.23
26.69,-18.23,-20.47,-18.24,-20.48,20.48,20.72,19.15,2.25,2.24,2.24
26.96,-18.00,-20.25,-18.00,-20.25,20.25,20.46,19.55,2.25,2.25,2.26
27.23,-17.76,-20.02,-17.75,-20.01,20.01,20.20,19.96,2.26,2.26,2.27
27.50,-17.52,-19.79,-17.51,-19.78,19.78,19.94,20.39,2.27,2.27,2.27
27.77,-17.27,-19.54,-17.27,-19.55,19.55,19.67,20.83,2.28,2.28,2.27
28.05,-17.03,-19.33,-17.03,-19.31,19.31,19.41,21.28,2.28,2.29,2.29
28.33,-16.78,-19.07,-16.79,-19.08,19.08,19.14,21.74,2.30,2.29,2.29
28.62,-16.55,-18.85,-16.55,-18.85,18.85,18.88,22.20,2.30,2.30,2.30
28.90,-16.30,-18.61,-16.31,-18.62,18.62,18.61,22.66,2.31,2.31,2.31
29.19,-16.06,-18.37,-16.07,-18.39,18.39,18.35,23.11,2.32,2.32,2.30
29.48,-15.83,-18.17,-15.84,-18.16,18.16,18.08,23.54,2.33,2.32,2.33
29.78,-15.60,-17.93,-15.60,-17.93,17.93,17.82,23.94,2.34,2.33,2.33
30.08,-15.36,-17.70,-15.37,-17.71,17.71,17.55,24.28,2.35,2.33,2.34
30.38,-15.14,-17.47,-15.14,-17.48,17.48,17.29,24.56,2.34,2.34,2.34
30.68,-14.90,-17.26,-14.91,-17.26,17.26,17.03,24.74,2.35,2.35,2.35
30.99,-14.69,-17.04,-14.68,-17.04,17.04,16.77,24.82,2.35,2.36,2.35
31.30,-14.46,-16.82,-14.45,-16.81,16.81,16.51,24.78,2.36,2.36,2.36
31.61,-14.24,-16.60,-14.23,-16.60,16.60,16.25,24.63,2.36,2.37,2.37
31.93,-14.01,-16.38,-14.00,-16.38,16.38,15.99,24.37,2.37,2.38,2.37
32.24,-13.77,-16.14,-13.77,-16.16,16.16,15.73,24.02,2.38,2.38,2.37
32.57,-13.55,-15.94,-13.55,-15.94,15.94,15.48,23.59,2.39,2.39,2.39
32.89,-13.32,-15.72,-13.32,-15.72,15.72,15.22,23.11,2.39,2.40,2.40
33.22,-13.09,-15.50,-13.10,-15.50,15.50,14.97,22.58,2.41,2.40,2.40
33.55,-12.87,-15.28,-12.87,-15.28,15.28,14.72,22.03,2.41,2.41,2.41
33.89,-12.65,-15.06,-12.65,-15.06,15.06,14.46,21.47,2.42,2.41,2.42
34.23,-12.43,-14.85,-12.42,-14.84,14.84,14.21,20.91,2.42,2.42,2.42
34.57,-12.19,-14.62,-12.20,-14.62,14.62,13.96,20.34,2.43,2.43,2.43
34.92,-11.97,-14.39,-11.97,-14.40,14.40,13.71,19.79,2.44,2.43,2.43
35.27,-11.75,-14.18,-11.75,-14.19,14.19,13.47,19.24,2.44,2.43,2.43
35.62,-11.53,-13.96,-11.53,-13.97,13.97,13.22,18.70,2.44,2.44,2.44
35.97,-11.31,-13.75,-11.31,-13.75,13.75,12.97,18.18,2.44,2.44,2.43
36.33,-11.08,-13.52,-11.09,-13.52,13.52,12.73,17.66,2.44,2.44,2.44
36.70,-10.87,-13.30,-10.86,-13.30,13.30,12.48,17.16,2.44,2.44,2.44
37.06,-10.64,-13.08,-10.64,-13.08,13.08,12.24,16.67,2.44,2.44,2.44
37.43,-10.42,-12.87,-10.42,-12.86,12.86,12.00,16.19,2.43,2.44,2.45
37.81,-10.20,-12.64,-10.19,-12.63,12.63,11.76,15.73,2.44,2.44,2.44
38.19,-9.98,-12.41,-9.97,-12.40,12.40,11.52,15.27,2.43,2.43,2.44
38.57,-9.75,-12.18,-9.75,-12.18,12.18,11.28,14.83,2.43,2.43,2.43
38.95,-9.52,-11.95,-9.52,-11.95,11.95,11.04,14.39,2.43,2.43,2.43
39.34,-9.29,-11.71,-9.29,-11.72,11.72,10.80,13.96,2.43,2.42,2.42
39.74,-9.07,-11.48,-9.07,-11.49,11.49,10.57,13.54,2.42,2.42,2.41
40.14,-8.84,-11.25,-8.84,-11.26,11.26,10.33,13.12,2.42,2.42,2.42
40.54,-8.62,-11.03,-8.61,-11.02,11.02,10.09,12.71,2.41,2.41,2.41
40.94,-8.38,-10.79,-8.38,-10.79,10.79,9.86,12.31,2.41,2.41,2.40
41.35,-8.15,-10.55,-8.15,-10.56,10.56,9.63,11.92,2.40,2.40,2.40
41.76,-7.91,-10.31,-7.92,-10.32,10.32,9.39,11.53,2.41,2.40,2.40
42.18,-7.68,-10.09,-7.69,-10.08,10.08,9.16,11.14,2.40,2.40,2.40
42.60,-7.45,-9.85,-7.46,-9.85,9.85,8.93,10.76,2.40,2.39,2.40
43.03,-7.22,-9.62,-7.23,-9.61,9.61,8.70,10.38,2.39,2.39,2.40
43.46,-6.99,-9.38,-6.99,-9.38,9.38,8.47,10.00,2.38,2.38,2.39
43.90,-6.77,-9.14,-6.76,-9.14,9.14,8.24,9.63,2.37,2.38,2.37
44.33,-6.52,-8.89,-6.53,-8.90,8.90,8.01,9.26,2.38,2.37,2.37
44.78,-6.30,-8.66,-6.30,-8.66,8.66,7.78,8.89,2.37,2.37,2.36
45.23,-6.07,-8.42,-6.06,-8.42,8.42,7.55,8.52,2.36,2.36,2.35
45.68,-5.83,-8.18,-5.82,-8.18,8.18,7.33,8.16,2.36,2.36,2.35
46.13,-5.58,-7.92,-5.59,-7.94,7.94,7.10,7.79,2.35,2.35,2.34
46.60,-5.35,-7.70,-5.35,-7.69,7.69,6.87,7.43,2.34,2.34,2.35
47.06,-5.11,-7.45,-5.11,-7.44,7.44,6.65,7.07,2.33,2.33,2.34
47.53,-4.87,-7.20,-4.86,-7.19,7.19,6.42,6.71,2.32,2.32,2.33
48.01,-4.64,-6.97,-4.62,-6.94,6.94,6.20,6.35,2.30,2.31,2.34
48.49,-4.39,-6.70,-4.38,-6.68,6.68,5.98,6.00,2.29,2.30,2.31
48.97,-4.12,-6.41,-4.13,-6.42,6.42,5.75,5.64,2.30,2.29,2.29
49.46,-3.88,-6.16,-3.89,-6.17,6.17,5.53,5.28,2.28,2.28,2.28
49.96,-3.64,-5.89,-3.64,-5.91,5.91,5.31,4.93,2.27,2.26,2.25
50.46,-3.40,-5.64,-3.40,-5.64,5.64,5.09,4.57,2.25,2.25,2.25
50.96,-3.14,-5.38,-3.15,-5.38,5.38,4.86,4.22,2.24,2.23,2.23
51.47,-2.90,-5.10,-2.91,-5.12,5.12,4.64,3.87,2.21,2.21,2.20
51.99,-2.67,-4.85,-2.67,-4.85,4.85,4.42,3.52,2.19,2.19,2.18
52.51,-2.43,-4.60,-2.42,-4.59,4.59,4.20,3.17,2.17,2.17,2.18
53.03,-2.18,-4.33,-2.18,-4.33,4.33,3.98,2.83,2.15,2.15,2.15
53.56,-1.94,-4.08,-1.94,-4.07,4.07,3.77,2.49,2.12,2.12,2.13
54.10,-1.71,-3.81,-1.71,-3.81,3.81,3.55,2.15,2.10,2.10,2.10
54.64,-1.48,-3.56,-1.47,-3.55,3.55,3.33,1.82,2.08,2.08,2.08
55.18,-1.23,-3.29,-1.24,-3.30,3.30,3.11,1.49,2.06,2.06,2.05
55.74,-1.01,-3.03,-1.01,-3.04,3.04,2.90,1.17,2.03,2.04,2.02
56.29,-0.77,-2.79,-0.77,-2.78,2.78,2.68,0.86,2.01,2.01,2.01
56.86,-0.55,-2.53,-0.55,-2.53,2.53,2.47,0.56,1.98,1.99,1.98
57.42,-0.31,-2.26,-0.32,-2.28,2.28,2.25,0.26,1.96,1.96,1.95
58.00,-0.10,-2.02,-0.09,-2.02,2.02,2.04,-0.02,1.93,1.93,1.93
58.58,0.13,-1.77,0.13,-1.77,1.77,1.83,-0.29,1.90,1.90,1.90
59.16,0.36,-1.52,0.35,-1.52,1.52,1.62,-0.55,1.87,1.87,1.88
59.76,0.56,-1.29,0.57,-1.26,1.26,1.41,-0.80,1.83,1.84,1.85
60.35,0.79,-1.03,0.79,-1.01,1.01,1.20,-1.03,1.80,1.80,1.82
60.96,1.00,-0.78,1.01,-0.76,0.76,0.99,-1.25,1.77,1.77,1.78
61.57,1.21,-0.52,1.22,-0.52,0.52,0.78,-1.45,1.73,1.73,1.73
62.18,1.43,-0.26,1.42,-0.27,0.27,0.57,-1.64,1.70,1.69,1.68
62.80,1.64,-0.02,1.63,-0.02,0.02,0.36,-1.81,1.66,1.65,1.66
63.43,1.84,0.23,1.83,0.22,-0.22,0.16,-1.96,1.62,1.61,1.61
64.07,2.03,0.47,2.03,0.46,-0.46,-0.05,-2.10,1.57,1.57,1.56
64.71,2.22,0.70,2.23,0.70,-0.70,-0.25,-2.22,1.53,1.53,1.52
65.35,2.42,0.94,2.42,0.93,-0.93,-0.45,-2.33,1.48,1.48,1.48
66.01,2.60,1.17,2.60,1.17,-1.17,-0.65,-2.43,1.44,1.44,1.44
66.67,2.78,1.38,2.79,1.39,-1.39,-0.85,-2.51,1.39,1.39,1.40
67.33,2.97,1.61,2.97,1.62,-1.62,-1.05,-2.59,1.35,1.35,1.36
68.01,3.13,1.82,3.14,1.83,-1.83,-1.24,-2.65,1.30,1.30,1.31
68.69,3.31,2.05,3.31,2.05,-2.05,-1.44,-2.70,1.27,1.26,1.26
69.37,3.49,2.27,3.47,2.26,-2.26,-1.63,-2.74,1.23,1.21,1.21
70.07,3.65,2.48,3.64,2.47,-2.47,-1.82,-2.78,1.18,1.17,1.16
70.77,3.80,2.67,3.79,2.67,-2.67,-2.01,-2.82,1.13,1.12,1.12
71.48,3.94,2.86,3.95,2.87,-2.87,-2.19,-2.84,1.08,1.08,1.08
72.19,4.10,3.06,4.10,3.06,-3.06,-2.38,-2.87,1.03,1.04,1.03
72.91,4.24,3.25,4.24,3.25,-3.25,-2.56,-2.89,0.98,0.99,0.99
73.64,4.38,3.43,4.39,3.44,-3.44,-2.74,-2.91,0.94,0.95,0.94
74.38,4.52,3.61,4.53,3.62,-3.62,-2.92,-2.93,0.90,0.91,0.91
75.12,4.66,3.79,4.66,3.80,-3.80,-3.09,-2.96,0.86,0.87,0.86
75.87,4.80,3.97,4.79,3.97,-3.97,-3.27,-2.98,0.83,0.83,0.83
76.63,4.93,4.14,4.92,4.14,-4.14,-3.44,-3.00,0.79,0.79,0.79
77.40,5.05,4.30,5.05,4.30,-4.30,-3.60,-3.03,0.75,0.75,0.75
78.17,5.17,4.46,5.17,4.46,-4.46,-3.77,-3.06,0.71,0.71,0.71
78.95,5.28,4.60,5.29,4.61,-4.61,-3.93,-3.09,0.67,0.68,0.68
79.74,5.40,4.75,5.40,4.75,-4.75,-4.08,-3.13,0.64,0.64,0.65
80.54,5.52,4.90,5.50,4.89,-4.89,-4.24,-3.17,0.62,0.61,0.61
81.35,5.62,5.04,5.60,5.03,-5.03,-4.39,-3.21,0.59,0.58,0.58
82.16,5.72,5.17,5.70,5.15,-5.15,-4.53,-3.26,0.56,0.55,0.54
82.98,5.80,5.28,5.79,5.27,-5.27,-4.68,-3.32,0.52,0.51,0.52
83.81,5.88,5.39,5.87,5.39,-5.39,-4.82,-3.38,0.49,0.48,0.48
84.65,5.95,5.50,5.95,5.50,-5.50,-4.95,-3.44,0.45,0.45,0.44
85.50,6.01,5.58,6.02,5.60,-5.60,-5.08,-3.51,0.41,0.43,0.43
86.35,6.08,5.68,6.09,5.69,-5.69,-5.21,-3.58,0.38,0.40,0.40
87.22,6.14,5.78,6.15,5.78,-5.78,-5.33,-3.66,0.36,0.37,0.37
88.09,6.21,5.87,6.20,5.86,-5.86,-5.45,-3.75,0.34,0.34,0.34
88.97,6.26,5.94,6.25,5.93,-5.93,-5.57,-3.84,0.32,0.31,0.32
89.86,6.30,6.00,6.29,6.00,-6.00,-5.68,-3.94,0.29,0.29,0.29
90.76,6.34,6.08,6.32,6.07,-6.07,-5.78,-4.04,0.27,0.26,0.25
91.66,6.37,6.14,6.35,6.12,-6.12,-5.88,-4.15,0.24,0.23,0.23
92.58,6.39,6.19,6.38,6.18,-6.18,-5.98,-4.26,0.21,0.20,0.20
93.51,6.40,6.21,6.39,6.22,-6.22,-6.08,-4.38,0.18,0.17,0.18
94.44,6.40,6.25,6.40,6.26,-6.26,-6.16,-4.50,0.14,0.14,0.15
95.39,6.41,6.28,6.40,6.29,-6.29,-6.25,-4.63,0.11,0.11,0.12
96.34,6.40,6.32,6.40,6.32,-6.32,-6.33,-4.76,0.07,0.08,0.07
97.30,6.40,6.36,6.39,6.35,-6.35,-6.40,-4.90,0.05,0.04,0.04
98.28,6.39,6.38,6.38,6.37,-6.37,-6.48,-5.05,0.02,0.01,0.00
99.26,6.37,6.40,6.36,6.39,-6.39,-6.54,-5.20,-0.02,-0.03,-0.03
100.25,6.34,6.41,6.33,6.41,-6.41,-6.61,-5.35,-0.07,-0.07,-0.07
101.25,6.31,6.41,6.31,6.42,-6.42,-6.67,-5.50,-0.11,-0.11,-0.11
102.27,6.26,6.41,6.28,6.44,-6.44,-6.72,-5.66,-0.18,-0.15,-0.16
103.29,6.24,6.44,6.25,6.45,-6.45,-6.77,-5.82,-0.21,-0.20,-0.20
104.32,6.22,6.46,6.21,6.46,-6.46,-6.82,-5.99,-0.25,-0.25,-0.24
105.37,6.18,6.47,6.17,6.47,-6.47,-6.86,-6.15,-0.30,-0.30,-0.29
106.42,6.14,6.48,6.13,6.48,-6.48,-6.90,-6.32,-0.35,-0.35,-0.35
107.48,6.11,6.50,6.09,6.50,-6.50,-6.94,-6.49,-0.39,-0.41,-0.40
108.56,6.06,6.52,6.05,6.51,-6.51,-6.97,-6.65,-0.45,-0.46,-0.46
109.64,6.01,6.53,6.00,6.53,-6.53,-7.00,-6.82,-0.52,-0.52,-0.52
110.74,5.96,6.53,5.96,6.54,-6.54,-7.03,-6.98,-0.59,-0.59,-0.58
111.85,5.92,6.56,5.91,6.56,-6.56,-7.05,-7.13,-0.65,-0.65,-0.64
112.97,5.86,6.58,5.86,6.58,-6.58,-7.07,-7.29,-0.72,-0.72,-0.72
114.10,5.79,6.56,5.81,6.60,-6.60,-7.09,-7.43,-0.81,-0.79,-0.78
115.24,5.74,6.59,5.76,6.61,-6.61,-7.11,-7.57,-0.87,-0.85,-0.85
116.39,5.71,6.64,5.70,6.63,-6.63,-7.12,-7.70,-0.92,-0.92,-0.93
117.55,5.67,6.66,5.65,6.64,-6.64,-7.13,-7.82,-0.98,-0.99,-1.00
118.73,5.62,6.69,5.60,6.66,-6.66,-7.14,-7.93,-1.04,-1.06,-1.07
119.92,5.56,6.68,5.55,6.67,-6.67,-7.14,-8.02,-1.12,-1.13,-1.13
121.12,5.49,6.68,5.49,6.68,-6.68,-7.15,-8.10,-1.20,-1.19,-1.20
122.33,5.44,6.70,5.44,6.70,-6.70,-7.15,-8.17,-1.26,-1.26,-1.26
123.55,5.39,6.70,5.38,6.71,-6.71,-7.15,-8.22,-1.32,-1.32,-1.32
124.79,5.32,6.69,5.33,6.71,-6.71,-7.14,-8.26,-1.40,-1.38,-1.38
126.03,5.27,6.70,5.28,6.72,-6.72,-7.14,-8.28,-1.45,-1.44,-1.44
127.29,5.24,6.73,5.22,6.72,-6.72,-7.14,-8.29,-1.49,-1.50,-1.50
128.57,5.19,6.75,5.16,6.72,-6.72,-7.13,-8.28,-1.54,-1.56,-1.57
129.85,5.10,6.71,5.10,6.72,-6.72,-7.12,-8.25,-1.62,-1.62,-1.62
131.15,5.04,6.71,5.05,6.72,-6.72,-7.11,-8.22,-1.68,-1.67,-1.68
132.46,5.00,6.72,4.99,6.72,-6.72,-7.10,-8.16,-1.72,-1.72,-1.72
133.79,4.95,6.72,4.94,6.71,-6.71,-7.09,-8.10,-1.77,-1.78,-1.77
135.12,4.88,6.70,4.88,6.71,-6.71,-7.07,-8.03,-1.83,-1.83,-1.83
136.48,4.84,6.71,4.82,6.70,-6.70,-7.06,-7.94,-1.86,-1.87,-1.87
137.84,4.76,6.68,4.77,6.69,-6.69,-7.04,-7.85,-1.94,-1.92,-1.93
139.22,4.71,6.68,4.71,6.68,-6.68,-7.03,-7.75,-1.98,-1.97,-1.98
140.61,4.67,6.70,4.66,6.67,-6.67,-7.01,-7.65,-2.01,-2.02,-2.03
142.02,4.60,6.66,4.60,6.66,-6.66,-6.99,-7.54,-2.07,-2.06,-2.06
143.44,4.56,6.66,4.55,6.66,-6.66,-6.97,-7.42,-2.10,-2.11,-2.10
144.87,4.50,6.65,4.50,6.65,-6.65,-6.96,-7.31,-2.16,-2.15,-2.15
146.32,4.44,6.64,4.44,6.64,-6.64,-6.94,-7.19,-2.21,-2.20,-2.20
147.78,4.38,6.61,4.39,6.64,-6.64,-6.91,-7.07,-2.26,-2.25,-2.24
149.26,4.34,6.62,4.34,6.63,-6.63,-6.89,-6.95,-2.30,-2.30,-2.28
150.75,4.29,6.63,4.28,6.63,-6.63,-6.87,-6.84,-2.34,-2.34,-2.35
152.26,4.25,6.64,4.23,6.62,-6.62,-6.85,-6.72,-2.38,-2.39,-2.39
153.78,4.18,6.61,4.18,6.62,-6.62,-6.83,-6.61,-2.45,-2.44,-2.44
155.32,4.13,6.62,4.12,6.62,-6.62,-6.80,-6.50,-2.49,-2.49,-2.50
156.88,4.07,6.61,4.07,6.61,-6.61,-6.78,-6.39,-2.55,-2.54,-2.54
158.44,4.02,6.61,4.02,6.61,-6.61,-6.76,-6.28,-2.60,-2.59,-2.59
160.03,3.96,6.61,3.96,6.61,-6.61,-6.73,-6.18,-2.65,-2.65,-2.65
161.63,3.91,6.61,3.90,6.60,-6.60,-6.71,-6.08,-2.70,-2.70,-2.71
163.24,3.86,6.61,3.85,6.60,-6.60,-6.68,-5.99,-2.74,-2.75,-2.76
164.88,3.79,6.59,3.79,6.59,-6.59,-6.66,-5.90,-2.81,-2.81,-2.80
166.53,3.73,6.58,3.72,6.59,-6.59,-6.63,-5.81,-2.86,-2.86,-2.86
168.19,3.67,6.58,3.66,6.58,-6.58,-6.61,-5.73,-2.91,-2.91,-2.91
169.87,3.60,6.56,3.59,6.57,-6.57,-6.58,-5.66,-2.97,-2.97,-2.97
171.57,3.54,6.56,3.53,6.56,-6.56,-6.56,-5.59,-3.02,-3.03,-3.02
173.29,3.48,6.56,3.46,6.54,-6.54,-6.53,-5.52,-3.07,-3.09,-3.08
175.02,3.37,6.50,3.39,6.53,-6.53,-6.50,-5.46,-3.17,-3.14,-3.13
176.77,3.31,6.51,3.31,6.52,-6.52,-6.47,-5.40,-3.21,-3.20,-3.20
178.54,3.24,6.50,3.24,6.50,-6.50,-6.45,-5.35,-3.27,-3.26,-3.26
180.32,3.17,6.49,3.16,6.48,-6.48,-6.42,-5.30,-3.32,-3.32,-3.32
182.13,3.11,6.49,3.08,6.47,-6.47,-6.39,-5.25,-3.36,-3.38,-3.38
183.95,2.99,6.43,3.00,6.45,-6.45,-6.36,-5.21,-3.46,-3.45,-3.45
185.79,2.91,6.41,2.92,6.42,-6.42,-6.33,-5.18,-3.52,-3.51,-3.50
187.65,2.83,6.40,2.83,6.40,-6.40,-6.30,-5.15,-3.57,-3.57,-3.58
189.52,2.75,6.38,2.75,6.37,-6.37,-6.27,-5.12,-3.63,-3.63,-3.63
191.42,2.66,6.34,2.66,6.34,-6.34,-6.24,-5.10,-3.68,-3.68,-3.69
193.33,2.57,6.31,2.56,6.31,-6.31,-6.21,-5.08,-3.74,-3.74,-3.74
195.27,2.48,6.27,2.47,6.27,-6.27,-6.17,-5.07,-3.79,-3.80,-3.79
197.22,2.38,6.23,2.37,6.22,-6.22,-6.14,-5.05,-3.85,-3.85,-3.85
199.19,2.28,6.19,2.26,6.17,-6.17,-6.10,-5.05,-3.89,-3.91,-3.92
201.18,2.17,6.13,2.16,6.12,-6.12,-6.07,-5.04,-3.95,-3.96,-3.97
203.19,2.06,6.06,2.05,6.06,-6.06,-6.03,-5.04,-4.01,-4.01,-4.01
205.23,1.96,6.02,1.94,6.00,-6.00,-5.99,-5.04,-4.05,-4.06,-4.06
207.28,1.85,5.94,1.83,5.94,-5.94,-5.96,-5.05,-4.10,-4.11,-4.09
209.35,1.73,5.88,1.72,5.87,-5.87,-5.92,-5.05,-4.15,-4.15,-4.15
211.44,1.60,5.80,1.61,5.81,-5.81,-5.87,-5.06,-4.21,-4.20,-4.21
213.56,1.48,5.72,1.49,5.73,-5.73,-5.83,-5.07,-4.26,-4.24,-4.24
215.69,1.37,5.64,1.38,5.66,-5.66,-5.79,-5.08,-4.29,-4.28,-4.27
217.85,1.25,5.56,1.26,5.58,-5.58,-5.74,-5.09,-4.34,-4.32,-4.32
220.03,1.17,5.53,1.15,5.51,-5.51,-5.69,-5.10,-4.34,-4.35,-4.36
222.23,1.08,5.47,1.04,5.43,-5.43,-5.64,-5.12,-4.36,-4.39,-4.40
224.45,0.96,5.37,0.94,5.36,-5.36,-5.58,-5.13,-4.40,-4.42,-4.42
226.70,0.84,5.28,0.84,5.28,-5.28,-5.53,-5.14,-4.45,-4.45,-4.44
228.96,0.72,5.19,0.74,5.21,-5.21,-5.47,-5.15,-4.50,-4.47,-4.48
231.25,0.64,5.12,0.65,5.14,-5.14,-5.40,-5.16,-4.50,-4.49,-4.49
233.57,0.55,5.06,0.56,5.07,-5.07,-5.34,-5.17,-4.52,-4.51,-4.51
235.90,0.45,4.98,0.47,5.00,-5.00,-5.27,-5.18,-4.56,-4.53,-4.53
238.26,0.40,4.94,0.39,4.93,-4.93,-5.20,-5.19,-4.54,-4.54,-4.54
240.64,0.32,4.87,0.32,4.87,-4.87,-5.12,-5.19,-4.55,-4.55,-4.55
243.05,0.27,4.82,0.25,4.81,-4.81,-5.04,-5.19,-4.54,-4.56,-4.56
245.48,0.20,4.76,0.18,4.74,-4.74,-4.96,-5.19,-4.55,-4.56,-4.57
247.93,0.12,4.68,0.12,4.69,-4.69,-4.87,-5.18,-4.57,-4.57,-4.57
250.41,0.08,4.65,0.07,4.64,-4.64,-4.78,-5.17,-4.56,-4.57,-4.57
252.92,0.01,4.57,0.02,4.59,-4.59,-4.69,-5.16,-4.58,-4.56,-4.56
255.45,-0.02,4.53,-0.02,4.54,-4.54,-4.60,-5.15,-4.56,-4.56,-4.55
258.00,-0.06,4.49,-0.06,4.49,-4.49,-4.50,-5.13,-4.55,-4.55,-4.55
260.58,-0.10,4.44,-0.10,4.44,-4.44,-4.41,-5.12,-4.55,-4.55,-4.55
263.19,-0.13,4.40,-0.13,4.40,-4.40,-4.32,-5.09,-4.54,-4.54,-4.54
265.82,-0.16,4.37,-0.16,4.37,-4.37,-4.23,-5.07,-4.53,-4.53,-4.54
268.48,-0.17,4.34,-0.18,4.33,-4.33,-4.16,-5.05,-4.51,-4.52,-4.51
271.16,-0.19,4.30,-0.20,4.30,-4.30,-4.09,-5.02,-4.50,-4.51,-4.50
273.87,-0.22,4.27,-0.21,4.28,-4.28,-4.03,-4.99,-4.50,-4.49,-4.50
276.61,-0.23,4.24,-0.22,4.26,-4.26,-3.98,-4.96,-4.49,-4.48,-4.47
279.38,-0.24,4.22,-0.23,4.24,-4.24,-3.95,-4.93,-4.48,-4.47,-4.47
282.17,-0.24,4.21,-0.23,4.22,-4.22,-3.94,-4.90,-4.47,-4.46,-4.46
284.99,-0.23,4.21,-0.24,4.21,-4.21,-3.94,-4.86,-4.44,-4.45,-4.44
287.84,-0.23,4.20,-0.24,4.19,-4.19,-3.95,-4.83,-4.43,-4.43,-4.44
290.72,-0.22,4.20,-0.24,4.18,-4.18,-3.98,-4.80,-4.40,-4.42,-4.42
293.63,-0.22,4.18,-0.24,4.16,-4.16,-4.02,-4.77,-4.39,-4.41,-4.41
296.57,-0.22,4.17,-0.24,4.15,-4.15,-4.06,-4.74,-4.38,-4.39,-4.39
299.53,-0.22,4.16,-0.24,4.14,-4.14,-4.12,-4.71,-4.36,-4.38,-4.39
302.53,-0.22,4.16,-0.24,4.13,-4.13,-4.18,-4.68,-4.35,-4.37,-4.38
305.55,-0.23,4.12,-0.24,4.12,-4.12,-4.24,-4.66,-4.35,-4.36,-4.36
308.61,-0.24,4.11,-0.24,4.11,-4.11,-4.31,-4.63,-4.35,-4.35,-4.35
311.69,-0.24,4.10,-0.24,4.10,-4.10,-4.37,-4.61,-4.35,-4.34,-4.34
314.81,-0.24,4.07,-0.23,4.10,-4.10,-4.43,-4.59,-4.34,-4.33,-4.32
317.96,-0.23,4.09,-0.23,4.10,-4.10,-4.50,-4.58,-4.33,-4.33,-4.32
321.14,-0.22,4.09,-0.21,4.10,-4.10,-4.55,-4.56,-4.33,-4.32,-4.32
324.35,-0.20,4.11,-0.20,4.11,-4.11,-4.61,-4.55,-4.32,-4.31,-4.32
327.59,-0.18,4.12,-0.18,4.13,-4.13,-4.66,-4.55,-4.32,-4.31,-4.30
330.87,-0.16,4.14,-0.15,4.15,-4.15,-4.71,-4.54,-4.32,-4.30,-4.31
334.18,-0.12,4.18,-0.12,4.19,-4.19,-4.75,-4.54,-4.31,-4.30,-4.31
337.52,-0.07,4.23,-0.08,4.22,-4.22,-4.79,-4.54,-4.30,-4.30,-4.30
340.90,-0.03,4.26,-0.03,4.27,-4.27,-4.82,-4.55,-4.30,-4.30,-4.30
344.30,0.02,4.31,0.02,4.32,-4.32,-4.86,-4.56,-4.30,-4.30,-4.30
347.75,0.06,4.36,0.07,4.37,-4.37,-4.89,-4.57,-4.32,-4.30,-4.30
351.23,0.13,4.43,0.13,4.43,-4.43,-4.91,-4.58,-4.31,-4.31,-4.30
354.74,0.19,4.49,0.19,4.50,-4.50,-4.94,-4.60,-4.31,-4.31,-4.31
358.28,0.26,4.57,0.25,4.56,-4.56,-4.96,-4.63,-4.31,-4.31,-4.32
361.87,0.32,4.64,0.31,4.63,-4.63,-4.98,-4.65,-4.31,-4.32,-4.32
365.49,0.39,4.71,0.37,4.70,-4.70,-4.99,-4.68,-4.32,-4.33,-4.32
369.14,0.46,4.79,0.44,4.77,-4.77,-5.01,-4.72,-4.32,-4.33,-4.34
372.83,0.51,4.84,0.51,4.85,-4.85,-5.02,-4.75,-4.34,-4.34,-4.34
376.56,0.58,4.92,0.57,4.92,-4.92,-5.03,-4.79,-4.34,-4.35,-4.35
380.33,0.64,4.99,0.64,4.99,-4.99,-5.04,-4.84,-4.36,-4.36,-4.35
384.13,0.70,5.06,0.70,5.07,-5.07,-5.05,-4.88,-4.37,-4.36,-4.36
387.97,0.77,5.14,0.77,5.14,-5.14,-5.05,-4.93,-4.38,-4.37,-4.37
391.85,0.84,5.22,0.83,5.21,-5.21,-5.06,-4.99,-4.38,-4.38,-4.39
395.77,0.91,5.28,0.90,5.28,-5.28,-5.06,-5.04,-4.38,-4.39,-4.38
399.73,0.97,5.35,0.96,5.35,-5.35,-5.06,-5.10,-4.39,-4.39,-4.39
403.72,1.03,5.43,1.02,5.42,-5.42,-5.06,-5.16,-4.40,-4.40,-4.40
407.76,1.09,5.50,1.08,5.49,-5.49,-5.06,-5.22,-4.40,-4.40,-4.41
411.84,1.15,5.55,1.14,5.55,-5.55,-5.06,-5.28,-4.41,-4.41,-4.40
415.96,1.21,5.62,1.20,5.62,-5.62,-5.06,-5.34,-4.41,-4.41,-4.42
420.12,1.27,5.68,1.26,5.68,-5.68,-5.06,-5.41,-4.41,-4.42,-4.42
424.32,1.33,5.74,1.32,5.74,-5.74,-5.06,-5.47,-4.41,-4.42,-4.42
428.56,1.38,5.80,1.37,5.79,-5.79,-5.05,-5.54,-4.42,-4.42,-4.43
432.85,1.43,5.86,1.42,5.85,-5.85,-5.05,-5.60,-4.42,-4.43,-4.43
437.18,1.48,5.91,1.48,5.90,-5.90,-5.04,-5.67,-4.43,-4.43,-4.43
441.55,1.53,5.95,1.53,5.96,-5.96,-5.04,-5.73,-4.43,-4.43,-4.42
445.96,1.59,6.01,1.58,6.01,-6.01,-5.03,-5.79,-4.42,-4.43,-4.42
450.42,1.65,6.08,1.64,6.06,-6.06,-5.03,-5.85,-4.42,-4.43,-4.43
