frequency,raw,error,smoothed,error_smoothed,equalization,parametric_eq,fixed_band_eq,equalized_raw,equalized_smoothed,target
20.00,-1.36,-10.60,-1.37,-10.61,10.61,10.60,4.61,9.24,9.23,9.23
20.20,-1.35,-10.60,-1.34,-10.59,10.59,10.58,4.72,9.23,9.24,9.24
20.40,-1.32,-10.57,-1.31,-10.56,10.56,10.56,4.85,9.24,9.25,9.25
20.61,-1.29,-10.55,-1.28,-10.54,10.54,10.54,4.97,9.25,9.26,9.26
20.81,-1.26,-10.52,-1.25,-10.52,10.52,10.51,5.10,9.26,9.27,9.26
21.02,-1.21,-10.48,-1.22,-10.50,10.50,10.49,5.23,9.28,9.27,9.27
21.23,-1.17,-10.45,-1.19,-10.47,10.47,10.46,5.37,9.30,9.28,9.28
21.44,-1.14,-10.44,-1.16,-10.45,10.45,10.44,5.51,9.30,9.29,9.30
21.66,-1.12,-10.42,-1.13,-10.42,10.42,10.41,5.65,9.30,9.29,9.30
21.87,-1.08,-10.39,-1.09,-10.39,10.39,10.39,5.80,9.31,9.30,9.31
22.09,-1.07,-10.38,-1.06,-10.37,10.37,10.36,5.95,9.29,9.30,9.30
22.31,-1.03,-10.35,-1.03,-10.34,10.34,10.33,6.11,9.31,9.31,9.31
22.54,-0.99,-10.31,-0.99,-10.31,10.31,10.31,6.27,9.32,9.31,9.31
22.76,-0.98,-10.30,-0.96,-10.28,10.28,10.28,6.43,9.30,9.32,9.32
22.99,-0.93,-10.25,-0.93,-10.25,10.25,10.25,6.60,9.32,9.32,9.32
23.22,-0.89,-10.21,-0.89,-10.22,10.22,10.22,6.77,9.33,9.33,9.32
23.45,-0.86,-10.19,-0.86,-10.19,10.19,10.19,6.95,9.33,9.33,9.33
23.69,-0.83,-10.16,-0.83,-10.16,10.16,10.17,7.13,9.33,9.33,9.33
23.92,-0.79,-10.12,-0.79,-10.13,10.13,10.14,7.31,9.33,9.33,9.32
24.16,-0.75,-10.09,-0.76,-10.09,10.09,10.11,7.50,9.34,9.33,9.33
24.40,-0.71,-10.05,-0.72,-10.06,10.06,10.08,7.69,9.35,9.33,9.34
24.65,-0.68,-10.02,-0.69,-10.02,10.02,10.05,7.89,9.34,9.34,9.34
24.89,-0.65,-9.99,-0.65,-9.99,9.99,10.02,8.09,9.34,9.34,9.34
25.14,-0.61,-9.95,-0.62,-9.95,9.95,9.99,8.29,9.34,9.34,9.34
25.39,-0.59,-9.93,-0.58,-9.91,9.91,9.96,8.49,9.32,9.34,9.34
25.65,-0.56,-9.90,-0.54,-9.88,9.88,9.93,8.70,9.32,9.34,9.33
25.91,-0.51,-9.84,-0.51,-9.84,9.84,9.90,8.91,9.33,9.34,9.33
26.16,-0.47,-9.81,-0.47,-9.81,9.81,9.87,9.12,9.34,9.34,9.34
26.43,-0.44,-9.78,-0.44,-9.77,9.77,9.83,9.33,9.33,9.34,9.34
26.69,-0.39,-9.73,-0.41,-9.74,9.74,9.80,9.53,9.35,9.33,9.34
26.96,-0.36,-9.70,-0.37,-9.71,9.71,9.77,9.74,9.34,9.33,9.33
27.23,-0.33,-9.66,-0.34,-9.67,9.67,9.74,9.95,9.34,9.33,9.33
27.50,-0.29,-9.62,-0.31,-9.64,9.64,9.71,10.15,9.35,9.33,9.33
27.77,-0.28,-9.62,-0.28,-9.61,9.61,9.68,10.35,9.33,9.33,9.34
28.05,-0.23,-9.57,-0.25,-9.58,9.58,9.64,10.54,9.35,9.33,9.33
28.33,-0.23,-9.56,-0.22,-9.55,9.55,9.61,10.72,9.32,9.33,9.33
28.62,-0.19,-9.52,-0.19,-9.52,9.52,9.58,10.90,9.33,9.33,9.33
28.90,-0.18,-9.52,-0.16,-9.49,9.49,9.55,11.06,9.31,9.33,9.33
29.19,-0.14,-9.47,-0.13,-9.46,9.46,9.51,11.21,9.32,9.33,9.33
29.48,-0.10,-9.43,-0.11,-9.43,9.43,9.48,11.34,9.33,9.33,9.33
29.78,-0.07,-9.40,-0.08,-9.40,9.40,9.45,11.46,9.33,9.32,9.32
30.08,-0.05,-9.38,-0.05,-9.37,9.37,9.42,11.56,9.32,9.32,9.33
30.38,-0.01,-9.33,-0.02,-9.34,9.34,9.38,11.64,9.33,9.32,9.32
30.68,-0.00,-9.32,0.00,-9.31,9.31,9.35,11.70,9.31,9.31,9.31
30.99,0.05,-9.26,0.03,-9.28,9.28,9.31,11.74,9.33,9.31,9.31
31.30,0.05,-9.26,0.05,-9.25,9.25,9.28,11.76,9.30,9.31,9.31
31.61,0.09,-9.21,0.08,-9.22,9.22,9.25,11.75,9.31,9.30,9.30
31.93,0.09,-9.20,0.10,-9.19,9.19,9.21,11.73,9.28,9.30,9.29
32.24,0.13,-9.16,0.13,-9.16,9.16,9.18,11.69,9.29,9.29,9.29
32.57,0.14,-9.14,0.15,-9.13,9.13,9.14,11.62,9.27,9.28,9.28
32.89,0.19,-9.09,0.17,-9.10,9.10,9.11,11.54,9.29,9.28,9.27
33.22,0.19,-9.08,0.20,-9.07,9.07,9.07,11.44,9.26,9.27,9.27
33.55,0.23,-9.03,0.22,-9.04,9.04,9.03,11.33,9.27,9.26,9.26
33.89,0.23,-9.03,0.24,-9.01,9.01,9.00,11.20,9.24,9.25,9.26
34.23,0.27,-8.97,0.27,-8.98,8.98,8.96,11.07,9.24,9.24,9.24
34.57,0.28,-8.96,0.29,-8.94,8.94,8.92,10.92,9.22,9.23,9.24
34.92,0.33,-8.89,0.31,-8.91,8.91,8.89,10.77,9.24,9.22,9.22
35.27,0.33,-8.89,0.34,-8.88,8.88,8.85,10.61,9.20,9.21,9.22
35.62,0.37,-8.83,0.36,-8.84,8.84,8.81,10.45,9.21,9.20,9.20
35.97,0.38,-8.81,0.37,-8.81,8.81,8.77,10.28,9.19,9.19,9.19
36.33,0.42,-8.75,0.39,-8.78,8.78,8.73,10.11,9.20,9.17,9.17
36.70,0.42,-8.74,0.41,-8.74,8.74,8.69,9.95,9.16,9.15,9.15
37.06,0.42,-8.72,0.43,-8.71,8.71,8.65,9.78,9.13,9.14,9.14
37.43,0.46,-8.66,0.45,-8.67,8.67,8.61,9.61,9.13,9.12,9.12
37.81,0.47,-8.63,0.47,-8.64,8.64,8.57,9.45,9.10,9.10,9.10
38.19,0.47,-8.61,0.48,-8.60,8.60,8.53,9.28,9.07,9.08,9.08
38.57,0.48,-8.58,0.50,-8.56,8.56,8.49,9.12,9.04,9.06,9.06
38.95,0.51,-8.54,0.51,-8.53,8.53,8.44,8.97,9.03,9.04,9.04
39.34,0.52,-8.50,0.53,-8.49,8.49,8.40,8.82,9.00,9.02,9.01
39.74,0.56,-8.44,0.55,-8.45,8.45,8.36,8.67,9.01,9.00,8.99
40.14,0.56,-8.42,0.57,-8.41,8.41,8.31,8.53,8.96,8.97,8.97
40.54,0.61,-8.34,0.59,-8.36,8.36,8.27,8.39,8.97,8.95,8.95
40.94,0.61,-8.31,0.61,-8.32,8.32,8.22,8.26,8.92,8.92,8.92
41.35,0.65,-8.25,0.63,-8.27,8.27,8.17,8.13,8.92,8.90,8.90
41.76,0.65,-8.22,0.65,-8.22,8.22,8.13,8.01,8.87,8.87,8.87
42.18,0.65,-8.20,0.67,-8.17,8.17,8.08,7.89,8.82,8.84,8.84
42.60,0.70,-8.11,0.69,-8.12,8.12,8.03,7.78,8.81,8.81,8.81
43.03,0.70,-8.08,0.71,-8.06,8.06,7.98,7.67,8.76,8.78,8.78
43.46,0.74,-8.01,0.73,-8.01,8.01,7.93,7.57,8.75,8.75,8.74
43.90,0.75,-7.96,0.75,-7.96,7.96,7.88,7.47,8.71,8.71,8.71
44.33,0.78,-7.90,0.77,-7.91,7.91,7.83,7.38,8.69,8.68,8.67
44.78,0.79,-7.85,0.79,-7.85,7.85,7.78,7.30,8.64,8.64,8.64
45.23,0.84,-7.78,0.80,-7.80,7.80,7.73,7.22,8.64,8.60,8.61
45.68,0.84,-7.73,0.82,-7.74,7.74,7.68,7.14,8.58,8.56,8.57
46.13,0.84,-7.68,0.84,-7.68,7.68,7.62,7.07,8.52,8.52,8.52
46.60,0.85,-7.63,0.86,-7.62,7.62,7.57,7.01,8.47,8.48,8.48
47.06,0.89,-7.55,0.88,-7.55,7.55,7.51,6.94,8.44,8.44,8.44
47.53,0.89,-7.51,0.90,-7.49,7.49,7.46,6.89,8.38,8.39,8.40
48.01,0.89,-7.46,0.92,-7.43,7.43,7.40,6.84,8.32,8.35,8.34
48.49,0.93,-7.37,0.94,-7.36,7.36,7.34,6.79,8.29,8.30,8.30
48.97,0.95,-7.30,0.96,-7.30,7.30,7.29,6.75,8.24,8.25,8.25
49.46,0.98,-7.23,0.98,-7.23,7.23,7.23,6.71,8.21,8.21,8.21
49.96,1.01,-7.14,1.00,-7.16,7.16,7.17,6.67,8.17,8.16,8.15
50.46,1.03,-7.07,1.01,-7.09,7.09,7.11,6.64,8.12,8.11,8.10
50.96,1.05,-7.01,1.03,-7.03,7.03,7.05,6.61,8.07,8.06,8.06
51.47,1.07,-6.95,1.05,-6.96,6.96,6.99,6.58,8.03,8.01,8.01
51.99,1.07,-6.89,1.07,-6.89,6.89,6.92,6.56,7.96,7.96,7.96
52.51,1.08,-6.83,1.08,-6.83,6.83,6.86,6.53,7.90,7.91,7.91
53.03,1.11,-6.76,1.10,-6.76,6.76,6.80,6.51,7.87,7.86,7.87
53.56,1.12,-6.70,1.11,-6.70,6.70,6.73,6.49,7.81,7.80,7.81
54.10,1.12,-6.64,1.12,-6.64,6.64,6.67,6.47,7.75,7.75,7.75
54.64,1.12,-6.59,1.13,-6.58,6.58,6.60,6.46,7.69,7.70,7.70
55.18,1.12,-6.52,1.14,-6.52,6.52,6.54,6.44,7.64,7.65,7.64
55.74,1.13,-6.46,1.15,-6.46,6.46,6.47,6.42,7.59,7.61,7.59
56.29,1.17,-6.38,1.16,-6.40,6.40,6.41,6.40,7.56,7.55,7.55
56.86,1.17,-6.33,1.17,-6.33,6.33,6.34,6.38,7.50,7.50,7.50
57.42,1.17,-6.27,1.18,-6.27,6.27,6.27,6.35,7.44,7.45,7.44
58.00,1.21,-6.18,1.19,-6.20,6.20,6.20,6.33,7.41,7.40,7.39
58.58,1.21,-6.14,1.20,-6.14,6.14,6.13,6.30,7.35,7.34,7.35
59.16,1.21,-6.10,1.21,-6.07,6.07,6.06,6.26,7.28,7.28,7.30
59.76,1.21,-6.05,1.22,-6.00,6.00,5.99,6.23,7.21,7.23,7.25
60.35,1.26,-5.92,1.23,-5.93,5.93,5.92,6.19,7.19,7.17,7.18
60.96,1.26,-5.86,1.24,-5.87,5.87,5.85,6.14,7.12,7.11,7.12
61.57,1.26,-5.79,1.25,-5.80,5.80,5.78,6.10,7.05,7.05,7.05
62.18,1.26,-5.71,1.26,-5.73,5.73,5.71,6.04,6.98,6.98,6.97
62.80,1.26,-5.65,1.27,-5.65,5.65,5.63,5.98,6.91,6.92,6.91
63.43,1.26,-5.58,1.27,-5.58,5.58,5.56,5.92,6.84,6.86,6.84
64.07,1.26,-5.52,1.28,-5.51,5.51,5.49,5.85,6.77,6.79,6.78
64.71,1.28,-5.44,1.28,-5.45,5.45,5.41,5.78,6.72,6.73,6.72
65.35,1.30,-5.36,1.29,-5.38,5.38,5.34,5.70,6.67,6.66,6.66
66.01,1.31,-5.29,1.29,-5.31,5.31,5.27,5.62,6.61,6.60,6.60
66.67,1.31,-5.24,1.29,-5.24,5.24,5.19,5.53,6.55,6.53,6.55
67.33,1.31,-5.16,1.30,-5.17,5.17,5.12,5.44,6.48,6.47,6.47
68.01,1.31,-5.10,1.30,-5.10,5.10,5.04,5.35,6.41,6.40,6.40
68.69,1.31,-5.03,1.31,-5.03,5.03,4.96,5.25,6.34,6.34,6.34
69.37,1.31,-4.97,1.32,-4.95,4.95,4.89,5.15,6.26,6.27,6.28
70.07,1.31,-4.90,1.32,-4.88,4.88,4.81,5.05,6.19,6.20,6.21
70.77,1.31,-4.83,1.33,-4.80,4.80,4.74,4.94,6.11,6.13,6.14
71.48,1.34,-4.73,1.34,-4.72,4.72,4.66,4.84,6.06,6.06,6.07
72.19,1.35,-4.64,1.35,-4.64,4.64,4.58,4.73,5.99,5.99,5.99
72.91,1.35,-4.57,1.36,-4.56,4.56,4.50,4.62,5.91,5.92,5.92
73.64,1.38,-4.46,1.37,-4.48,4.48,4.43,4.51,5.86,5.85,5.84
74.38,1.40,-4.38,1.38,-4.40,4.40,4.35,4.40,5.79,5.78,5.77
75.12,1.40,-4.31,1.40,-4.31,4.31,4.27,4.29,5.71,5.71,5.70
75.87,1.41,-4.24,1.41,-4.23,4.23,4.19,4.18,5.64,5.64,5.64
76.63,1.45,-4.12,1.42,-4.15,4.15,4.12,4.07,5.60,5.58,5.57
77.40,1.45,-4.06,1.44,-4.07,4.07,4.04,3.96,5.52,5.51,5.51
78.17,1.45,-3.99,1.45,-3.99,3.99,3.96,3.85,5.44,5.44,5.44
78.95,1.45,-3.93,1.46,-3.92,3.92,3.88,3.74,5.37,5.38,5.38
79.74,1.45,-3.87,1.46,-3.85,3.85,3.80,3.64,5.29,5.31,5.31
80.54,1.47,-3.78,1.47,-3.77,3.77,3.72,3.53,5.24,5.24,5.25
81.35,1.49,-3.69,1.48,-3.70,3.70,3.65,3.43,5.19,5.18,5.18
82.16,1.49,-3.63,1.48,-3.63,3.63,3.57,3.33,5.12,5.11,5.12
82.98,1.49,-3.56,1.48,-3.56,3.56,3.49,3.23,5.05,5.04,5.05
83.81,1.49,-3.49,1.49,-3.49,3.49,3.41,3.13,4.98,4.97,4.98
84.65,1.49,-3.42,1.49,-3.42,3.42,3.33,3.03,4.91,4.90,4.90
85.50,1.49,-3.34,1.49,-3.35,3.35,3.25,2.94,4.84,4.84,4.83
86.35,1.49,-3.28,1.49,-3.28,3.28,3.17,2.85,4.76,4.77,4.76
87.22,1.49,-3.21,1.49,-3.20,3.20,3.09,2.76,4.69,4.69,4.70
88.09,1.49,-3.13,1.49,-3.13,3.13,3.02,2.67,4.62,4.62,4.62
88.97,1.49,-3.07,1.49,-3.06,3.06,2.94,2.58,4.55,4.55,4.55
89.86,1.49,-2.99,1.49,-2.99,2.99,2.86,2.49,4.48,4.48,4.47
90.76,1.49,-2.92,1.49,-2.92,2.92,2.78,2.41,4.40,4.40,4.41
91.66,1.49,-2.84,1.49,-2.84,2.84,2.70,2.33,4.33,4.33,4.33
92.58,1.49,-2.77,1.48,-2.77,2.77,2.62,2.25,4.26,4.25,4.25
93.51,1.49,-2.70,1.48,-2.69,2.69,2.55,2.17,4.18,4.18,4.18
94.44,1.49,-2.62,1.48,-2.62,2.62,2.47,2.09,4.10,4.10,4.11
95.39,1.49,-2.54,1.48,-2.54,2.54,2.39,2.02,4.03,4.02,4.03
96.34,1.49,-2.46,1.48,-2.46,2.46,2.31,1.95,3.95,3.95,3.95
97.30,1.49,-2.38,1.49,-2.38,2.38,2.23,1.87,3.87,3.87,3.87
98.28,1.49,-2.30,1.49,-2.30,2.30,2.16,1.80,3.79,3.79,3.79
99.26,1.49,-2.22,1.49,-2.22,2.22,2.08,1.74,3.71,3.72,3.70
100.25,1.49,-2.14,1.50,-2.14,2.14,2.00,1.67,3.63,3.64,3.63
101.25,1.49,-2.08,1.51,-2.06,2.06,1.92,1.60,3.55,3.57,3.56
102.27,1.49,-2.00,1.52,-1.98,1.98,1.85,1.54,3.46,3.49,3.49
103.29,1.54,-1.88,1.53,-1.89,1.89,1.77,1.47,3.43,3.42,3.41
104.32,1.54,-1.81,1.53,-1.81,1.81,1.69,1.41,3.35,3.35,3.35
105.37,1.54,-1.74,1.54,-1.73,1.73,1.62,1.35,3.27,3.27,3.27
106.42,1.56,-1.65,1.55,-1.65,1.65,1.54,1.29,3.20,3.20,3.21
107.48,1.59,-1.53,1.56,-1.56,1.56,1.46,1.23,3.15,3.13,3.12
108.56,1.59,-1.47,1.57,-1.48,1.48,1.39,1.17,3.07,3.05,3.06
109.64,1.59,-1.39,1.58,-1.40,1.40,1.31,1.12,2.99,2.98,2.98
110.74,1.59,-1.32,1.58,-1.32,1.32,1.24,1.06,2.91,2.90,2.91
111.85,1.59,-1.24,1.59,-1.24,1.24,1.16,1.01,2.83,2.83,2.83
112.97,1.59,-1.17,1.59,-1.16,1.16,1.09,0.95,2.75,2.75,2.76
114.10,1.59,-1.10,1.59,-1.08,1.08,1.01,0.90,2.67,2.68,2.68
115.24,1.59,-1.01,1.59,-1.01,1.01,0.94,0.85,2.60,2.60,2.60
116.39,1.59,-0.93,1.59,-0.93,0.93,0.86,0.79,2.52,2.53,2.52
117.55,1.59,-0.86,1.59,-0.86,0.86,0.79,0.74,2.45,2.45,2.44
118.73,1.59,-0.77,1.59,-0.79,0.79,0.72,0.69,2.37,2.37,2.36
119.92,1.59,-0.70,1.59,-0.71,0.71,0.64,0.64,2.30,2.30,2.29
121.12,1.59,-0.64,1.59,-0.64,0.64,0.57,0.59,2.22,2.22,2.23
122.33,1.59,-0.56,1.59,-0.56,0.56,0.50,0.54,2.15,2.15,2.15
123.55,1.59,-0.49,1.59,-0.49,0.49,0.42,0.49,2.07,2.07,2.08
124.79,1.59,-0.42,1.59,-0.41,0.41,0.35,0.45,2.00,2.00,2.01
126.03,1.59,-0.35,1.59,-0.34,0.34,0.28,0.40,1.93,1.93,1.93
127.29,1.59,-0.27,1.59,-0.26,0.26,0.21,0.35,1.85,1.85,1.86
128.57,1.59,-0.19,1.59,-0.19,0.19,0.14,0.30,1.78,1.78,1.78
129.85,1.59,-0.12,1.59,-0.12,0.12,0.07,0.26,1.71,1.71,1.71
131.15,1.59,-0.04,1.59,-0.05,0.05,-0.00,0.21,1.63,1.63,1.63
132.46,1.59,0.03,1.59,0.03,-0.03,-0.07,0.16,1.56,1.56,1.56
133.79,1.59,0.10,1.59,0.10,-0.10,-0.14,0.12,1.49,1.49,1.49
135.12,1.59,0.17,1.59,0.17,-0.17,-0.21,0.07,1.42,1.42,1.41
136.48,1.59,0.23,1.59,0.24,-0.24,-0.28,0.03,1.35,1.35,1.35
137.84,1.59,0.30,1.59,0.30,-0.30,-0.35,-0.02,1.28,1.28,1.29
139.22,1.59,0.38,1.59,0.37,-0.37,-0.42,-0.07,1.22,1.22,1.21
140.61,1.59,0.44,1.59,0.44,-0.44,-0.48,-0.11,1.15,1.15,1.15
142.02,1.59,0.50,1.59,0.50,-0.50,-0.55,-0.16,1.09,1.09,1.09
143.44,1.59,0.57,1.59,0.56,-0.56,-0.62,-0.21,1.03,1.03,1.02
144.87,1.59,0.62,1.59,0.62,-0.62,-0.68,-0.26,0.97,0.97,0.97
146.32,1.59,0.68,1.59,0.69,-0.69,-0.75,-0.30,0.90,0.90,0.91
147.78,1.59,0.74,1.59,0.75,-0.75,-0.81,-0.35,0.84,0.84,0.85
149.26,1.59,0.80,1.59,0.81,-0.81,-0.88,-0.40,0.78,0.79,0.79
150.75,1.59,0.87,1.59,0.87,-0.87,-0.94,-0.45,0.72,0.73,0.72
152.26,1.59,0.92,1.59,0.93,-0.93,-1.00,-0.50,0.66,0.67,0.67
153.78,1.59,0.98,1.59,0.98,-0.98,-1.07,-0.55,0.60,0.61,0.61
155.32,1.59,1.03,1.59,1.04,-1.04,-1.13,-0.60,0.55,0.55,0.55
156.88,1.59,1.10,1.58,1.09,-1.09,-1.19,-0.66,0.49,0.49,0.49
158.44,1.59,1.16,1.57,1.15,-1.15,-1.25,-0.71,0.44,0.43,0.43
160.03,1.59,1.22,1.57,1.20,-1.20,-1.31,-0.76,0.39,0.37,0.37
161.63,1.59,1.28,1.56,1.25,-1.25,-1.37,-0.82,0.34,0.31,0.31
163.24,1.54,1.30,1.55,1.31,-1.31,-1.43,-0.87,0.23,0.25,0.24
164.88,1.54,1.35,1.54,1.36,-1.36,-1.49,-0.93,0.18,0.19,0.19
166.53,1.54,1.42,1.53,1.41,-1.41,-1.54,-0.99,0.13,0.13,0.12
168.19,1.52,1.45,1.52,1.46,-1.46,-1.60,-1.05,0.06,0.06,0.07
169.87,1.49,1.48,1.52,1.51,-1.51,-1.66,-1.11,-0.03,0.00,0.01
171.57,1.49,1.54,1.51,1.56,-1.56,-1.71,-1.17,-0.08,-0.06,-0.06
173.29,1.49,1.60,1.50,1.61,-1.61,-1.76,-1.23,-0.13,-0.12,-0.12
175.02,1.49,1.66,1.49,1.66,-1.66,-1.82,-1.29,-0.18,-0.17,-0.17
176.77,1.49,1.72,1.48,1.71,-1.71,-1.87,-1.36,-0.23,-0.23,-0.23
178.54,1.49,1.78,1.47,1.76,-1.76,-1.92,-1.42,-0.28,-0.29,-0.29
180.32,1.49,1.84,1.46,1.81,-1.81,-1.97,-1.49,-0.32,-0.35,-0.35
182.13,1.46,1.86,1.46,1.86,-1.86,-2.02,-1.56,-0.40,-0.41,-0.41
183.95,1.45,1.91,1.44,1.91,-1.91,-2.07,-1.62,-0.46,-0.46,-0.46
185.79,1.45,1.97,1.43,1.95,-1.95,-2.12,-1.69,-0.50,-0.52,-0.52
187.65,1.44,2.01,1.42,2.00,-2.00,-2.17,-1.77,-0.56,-0.57,-0.57
189.52,1.40,2.03,1.41,2.04,-2.04,-2.21,-1.84,-0.64,-0.63,-0.63
191.42,1.40,2.08,1.40,2.08,-2.08,-2.26,-1.91,-0.68,-0.68,-0.68
193.33,1.40,2.13,1.39,2.13,-2.13,-2.30,-1.99,-0.73,-0.74,-0.73
195.27,1.38,2.17,1.38,2.17,-2.17,-2.35,-2.06,-0.79,-0.79,-0.79
197.22,1.35,2.19,1.37,2.21,-2.21,-2.39,-2.14,-0.86,-0.84,-0.84
199.19,1.35,2.24,1.37,2.26,-2.26,-2.43,-2.21,-0.91,-0.89,-0.89
201.18,1.35,2.29,1.37,2.30,-2.30,-2.47,-2.29,-0.95,-0.93,-0.94
203.19,1.35,2.33,1.37,2.35,-2.35,-2.51,-2.36,-1.00,-0.98,-0.98
205.23,1.36,2.38,1.37,2.40,-2.40,-2.55,-2.44,-1.04,-1.03,-1.02
207.28,1.40,2.46,1.38,2.45,-2.45,-2.59,-2.52,-1.05,-1.07,-1.06
209.35,1.40,2.51,1.38,2.49,-2.49,-2.62,-2.59,-1.09,-1.11,-1.11
211.44,1.40,2.55,1.38,2.53,-2.53,-2.66,-2.67,-1.14,-1.15,-1.15
213.56,1.40,2.59,1.39,2.58,-2.58,-2.69,-2.74,-1.18,-1.19,-1.19
215.69,1.40,2.62,1.39,2.62,-2.62,-2.72,-2.82,-1.22,-1.23,-1.22
217.85,1.40,2.66,1.39,2.66,-2.66,-2.75,-2.89,-1.26,-1.26,-1.26
220.03,1.40,2.70,1.39,2.69,-2.69,-2.78,-2.96,-1.29,-1.30,-1.30
222.23,1.40,2.74,1.39,2.72,-2.72,-2.81,-3.02,-1.32,-1.33,-1.34
224.45,1.40,2.77,1.38,2.75,-2.75,-2.84,-3.09,-1.35,-1.37,-1.37
226.70,1.36,2.76,1.37,2.77,-2.77,-2.87,-3.15,-1.41,-1.40,-1.40
228.96,1.35,2.77,1.36,2.79,-2.79,-2.89,-3.20,-1.44,-1.43,-1.42
231.25,1.35,2.80,1.35,2.81,-2.81,-2.92,-3.26,-1.46,-1.46,-1.46
233.57,1.35,2.83,1.34,2.82,-2.82,-2.94,-3.31,-1.48,-1.49,-1.49
235.90,1.35,2.86,1.33,2.84,-2.84,-2.96,-3.35,-1.49,-1.51,-1.51
238.26,1.31,2.85,1.32,2.86,-2.86,-2.98,-3.39,-1.55,-1.54,-1.54
240.64,1.31,2.86,1.32,2.88,-2.88,-3.00,-3.43,-1.57,-1.56,-1.55
243.05,1.31,2.89,1.31,2.89,-2.89,-3.02,-3.46,-1.59,-1.58,-1.58
245.48,1.31,2.91,1.31,2.91,-2.91,-3.04,-3.48,-1.60,-1.60,-1.61
247.93,1.29,2.92,1.31,2.93,-2.93,-3.06,-3.50,-1.65,-1.62,-1.63
250.41,1.31,2.95,1.32,2.96,-2.96,-3.07,-3.51,-1.65,-1.64,-1.64
252.92,1.31,2.96,1.33,2.98,-2.98,-3.08,-3.52,-1.68,-1.66,-1.65
255.45,1.31,2.99,1.33,3.01,-3.01,-3.10,-3.52,-1.70,-1.68,-1.68
258.00,1.35,3.04,1.34,3.03,-3.03,-3.11,-3.52,-1.68,-1.69,-1.69
260.58,1.35,3.05,1.35,3.05,-3.05,-3.12,-3.51,-1.71,-1.71,-1.71
263.19,1.35,3.07,1.36,3.08,-3.08,-3.13,-3.50,-1.73,-1.72,-1.72
265.82,1.37,3.10,1.36,3.10,-3.10,-3.14,-3.48,-1.73,-1.73,-1.73
268.48,1.40,3.14,1.37,3.11,-3.11,-3.14,-3.46,-1.72,-1.75,-1.74
271.16,1.40,3.15,1.37,3.13,-3.13,-3.15,-3.43,-1.73,-1.76,-1.76
273.87,1.40,3.16,1.37,3.13,-3.13,-3.15,-3.40,-1.74,-1.77,-1.77
276.61,1.39,3.17,1.36,3.14,-3.14,-3.16,-3.36,-1.75,-1.78,-1.78
279.38,1.35,3.15,1.36,3.14,-3.14,-3.16,-3.32,-1.80,-1.79,-1.80
282.17,1.35,3.15,1.35,3.14,-3.14,-3.16,-3.28,-1.80,-1.79,-1.80
284.99,1.35,3.15,1.34,3.14,-3.14,-3.16,-3.24,-1.79,-1.80,-1.80
287.84,1.31,3.11,1.33,3.13,-3.13,-3.16,-3.19,-1.82,-1.81,-1.80
290.72,1.31,3.12,1.31,3.13,-3.13,-3.16,-3.15,-1.82,-1.81,-1.82
293.63,1.28,3.09,1.30,3.12,-3.12,-3.15,-3.10,-1.84,-1.82,-1.82
296.57,1.26,3.07,1.29,3.11,-3.11,-3.15,-3.05,-1.85,-1.82,-1.81
299.53,1.26,3.08,1.27,3.09,-3.09,-3.14,-3.00,-1.84,-1.82,-1.82
302.53,1.26,3.08,1.26,3.08,-3.08,-3.14,-2.95,-1.83,-1.82,-1.82
305.55,1.26,3.09,1.24,3.07,-3.07,-3.13,-2.90,-1.81,-1.83,-1.83
308.61,1.26,3.08,1.23,3.06,-3.06,-3.12,-2.85,-1.80,-1.83,-1.83
311.69,1.23,3.06,1.22,3.05,-3.05,-3.11,-2.80,-1.82,-1.83,-1.83
314.81,1.21,3.04,1.20,3.03,-3.03,-3.10,-2.76,-1.83,-1.83,-1.83
317.96,1.21,3.04,1.19,3.02,-3.02,-3.09,-2.71,-1.81,-1.83,-1.84
321.14,1.17,3.00,1.17,3.01,-3.01,-3.08,-2.66,-1.84,-1.83,-1.83
324.35,1.17,3.01,1.16,2.99,-2.99,-3.07,-2.62,-1.82,-1.83,-1.84
327.59,1.12,2.94,1.14,2.98,-2.98,-3.06,-2.57,-1.86,-1.83,-1.82
330.87,1.12,2.95,1.13,2.96,-2.96,-3.04,-2.53,-1.84,-1.83,-1.83
334.18,1.12,2.95,1.11,2.94,-2.94,-3.03,-2.49,-1.82,-1.83,-1.83
337.52,1.07,2.90,1.10,2.92,-2.92,-3.01,-2.45,-1.85,-1.83,-1.83
340.90,1.07,2.89,1.08,2.90,-2.90,-3.00,-2.41,-1.83,-1.82,-1.82
344.30,1.07,2.89,1.06,2.88,-2.88,-2.98,-2.38,-1.81,-1.82,-1.82
347.75,1.07,2.88,1.05,2.86,-2.86,-2.96,-2.34,-1.79,-1.82,-1.81
351.23,1.03,2.85,1.03,2.84,-2.84,-2.94,-2.31,-1.81,-1.81,-1.82
354.74,1.03,2.83,1.01,2.82,-2.82,-2.92,-2.28,-1.79,-1.81,-1.80
358.28,1.03,2.83,1.00,2.80,-2.80,-2.90,-2.25,-1.77,-1.80,-1.81
361.87,0.98,2.78,0.98,2.78,-2.78,-2.88,-2.23,-1.80,-1.80,-1.80
365.49,0.98,2.77,0.97,2.76,-2.76,-2.86,-2.20,-1.78,-1.80,-1.79
369.14,0.93,2.72,0.95,2.74,-2.74,-2.84,-2.18,-1.81,-1.79,-1.79
372.83,0.93,2.71,0.94,2.72,-2.72,-2.82,-2.16,-1.79,-1.79,-1.78
376.56,0.90,2.68,0.92,2.70,-2.70,-2.80,-2.14,-1.81,-1.78,-1.78
380.33,0.89,2.67,0.91,2.68,-2.68,-2.77,-2.12,-1.80,-1.78,-1.78
384.13,0.89,2.66,0.89,2.66,-2.66,-2.75,-2.10,-1.78,-1.77,-1.77
387.97,0.89,2.65,0.88,2.65,-2.65,-2.73,-2.09,-1.76,-1.77,-1.76
391.85,0.89,2.64,0.87,2.63,-2.63,-2.70,-2.08,-1.74,-1.76,-1.76
395.77,0.86,2.62,0.86,2.61,-2.61,-2.68,-2.07,-1.75,-1.75,-1.76
399.73,0.84,2.59,0.85,2.59,-2.59,-2.65,-2.06,-1.76,-1.75,-1.75
403.72,0.84,2.57,0.83,2.58,-2.58,-2.62,-2.05,-1.74,-1.74,-1.74
407.76,0.84,2.58,0.82,2.56,-2.56,-2.60,-2.04,-1.72,-1.74,-1.74
411.84,0.81,2.54,0.81,2.54,-2.54,-2.57,-2.03,-1.73,-1.73,-1.73
415.96,0.79,2.51,0.79,2.51,-2.51,-2.54,-2.03,-1.73,-1.72,-1.72
420.12,0.78,2.50,0.77,2.49,-2.49,-2.51,-2.02,-1.71,-1.72,-1.72
424.32,0.75,2.46,0.75,2.46,-2.46,-2.49,-2.02,-1.71,-1.71,-1.72
428.56,0.75,2.45,0.73,2.43,-2.43,-2.46,-2.01,-1.68,-1.70,-1.70
432.85,0.70,2.39,0.70,2.40,-2.40,-2.43,-2.01,-1.70,-1.70,-1.69
437.18,0.68,2.37,0.68,2.37,-2.37,-2.40,-2.01,-1.69,-1.69,-1.69
441.55,0.65,2.33,0.65,2.34,-2.34,-2.37,-2.00,-1.69,-1.68,-1.68
445.96,0.62,2.29,0.63,2.30,-2.30,-2.34,-2.00,-1.68,-1.67,-1.68
450.42,0.61,2.28,0.60,2.26,-2.26,-2.30,-2.00,-1.65,-1.66,-1.67
454.93,0.56,2.22,0.57,2.22,-2.22,-2.27,-1.99,-1.66,-1.66,-1.66
459.48,0.55,2.20,0.54,2.18,-2.18,-2.24,-1.99,-1.64,-1.65,-1.65
464.07,0.51,2.14,0.51,2.14,-2.14,-2.21,-1.98,-1.64,-1.64,-1.63
468.71,0.49,2.11,0.47,2.10,-2.10,-2.17,-1.97,-1.61,-1.63,-1.62
473.40,0.46,2.07,0.44,2.06,-2.06,-2.14,-1.97,-1.60,-1.62,-1.62
478.13,0.42,2.02,0.41,2.02,-2.02,-2.11,-1.96,-1.61,-1.61,-1.61
482.91,0.37,1.97,0.39,1.99,-1.99,-2.07,-1.95,-1.62,-1.60,-1.60
487.74,0.36,1.95,0.36,1.95,-1.95,-2.04,-1.94,-1.59,-1.59,-1.59
492.62,0.33,1.91,0.34,1.92,-1.92,-2.00,-1.93,-1.59,-1.58,-1.58
497.55,0.28,1.85,0.32,1.88,-1.88,-1.97,-1.91,-1.61,-1.57,-1.57
502.52,0.28,1.84,0.29,1.85,-1.85,-1.93,-1.90,-1.57,-1.56,-1.56
507.55,0.28,1.82,0.27,1.82,-1.82,-1.89,-1.88,-1.54,-1.54,-1.54
512.62,0.25,1.78,0.25,1.79,-1.79,-1.85,-1.86,-1.54,-1.53,-1.53
517.75,0.23,1.74,0.23,1.75,-1.75,-1.81,-1.84,-1.53,-1.52,-1.52
