frequency,raw,error,smoothed,error_smoothed,equalization,parametric_eq,fixed_band_eq,equalized_raw,equalized_smoothed,target
20.00,1.84,-1.18,1.82,-1.22,1.22,-0.37,-0.09,3.06,3.04,3.02
20.20,1.88,-1.18,1.87,-1.20,1.20,-0.38,-0.09,3.07,3.07,3.06
20.40,1.93,-1.16,1.92,-1.17,1.17,-0.38,-0.09,3.10,3.10,3.09
20.61,1.97,-1.15,1.98,-1.15,1.15,-0.39,-0.09,3.11,3.12,3.12
20.81,2.02,-1.14,2.03,-1.12,1.12,-0.40,-0.09,3.14,3.15,3.16
21.02,2.07,-1.13,2.08,-1.09,1.09,-0.40,-0.09,3.16,3.17,3.20
21.23,2.12,-1.09,2.13,-1.06,1.06,-0.41,-0.09,3.18,3.19,3.21
21.44,2.17,-1.06,2.18,-1.03,1.03,-0.42,-0.09,3.20,3.21,3.23
21.66,2.23,-1.02,2.23,-1.00,1.00,-0.43,-0.09,3.22,3.23,3.25
21.87,2.28,-0.98,2.29,-0.96,0.96,-0.44,-0.09,3.24,3.25,3.26
22.09,2.33,-0.94,2.34,-0.92,0.92,-0.44,-0.09,3.25,3.26,3.27
22.31,2.39,-0.88,2.39,-0.89,0.89,-0.45,-0.09,3.28,3.28,3.27
22.54,2.45,-0.83,2.44,-0.84,0.84,-0.46,-0.09,3.29,3.29,3.28
22.76,2.51,-0.78,2.49,-0.80,0.80,-0.47,-0.09,3.31,3.29,3.29
22.99,2.57,-0.72,2.54,-0.76,0.76,-0.48,-0.09,3.33,3.30,3.29
23.22,2.61,-0.69,2.59,-0.71,0.71,-0.49,-0.09,3.32,3.31,3.30
23.45,2.65,-0.66,2.64,-0.67,0.67,-0.50,-0.09,3.32,3.31,3.31
23.69,2.69,-0.63,2.70,-0.62,0.62,-0.51,-0.09,3.31,3.32,3.32
23.92,2.74,-0.59,2.75,-0.58,0.58,-0.52,-0.09,3.32,3.32,3.33
24.16,2.79,-0.55,2.80,-0.53,0.53,-0.53,-0.09,3.32,3.33,3.34
24.40,2.84,-0.51,2.85,-0.48,0.48,-0.53,-0.09,3.32,3.33,3.35
24.65,2.89,-0.45,2.91,-0.43,0.43,-0.54,-0.09,3.31,3.33,3.34
24.89,2.95,-0.39,2.96,-0.37,0.37,-0.55,-0.09,3.32,3.34,3.34
25.14,3.00,-0.34,3.02,-0.32,0.32,-0.57,-0.09,3.31,3.34,3.34
25.39,3.06,-0.28,3.07,-0.26,0.26,-0.58,-0.09,3.32,3.34,3.34
25.65,3.12,-0.22,3.12,-0.21,0.21,-0.59,-0.10,3.33,3.34,3.34
25.91,3.18,-0.14,3.17,-0.16,0.16,-0.60,-0.10,3.34,3.33,3.32
26.16,3.24,-0.09,3.22,-0.11,0.11,-0.61,-0.10,3.35,3.33,3.33
26.43,3.30,-0.03,3.26,-0.07,0.07,-0.62,-0.10,3.36,3.33,3.33
26.69,3.36,0.03,3.31,-0.02,0.02,-0.63,-0.10,3.38,3.33,3.33
26.96,3.42,0.09,3.35,0.03,-0.03,-0.64,-0.10,3.39,3.32,3.33
27.23,3.43,0.10,3.39,0.07,-0.07,-0.65,-0.11,3.35,3.32,3.33
27.50,3.43,0.10,3.44,0.12,-0.12,-0.67,-0.11,3.31,3.32,3.33
27.77,3.43,0.11,3.48,0.17,-0.17,-0.68,-0.11,3.26,3.32,3.32
28.05,3.44,0.12,3.52,0.21,-0.21,-0.69,-0.12,3.23,3.32,3.32
28.33,3.51,0.21,3.56,0.25,-0.25,-0.70,-0.12,3.26,3.31,3.30
28.62,3.57,0.26,3.60,0.29,-0.29,-0.72,-0.13,3.28,3.31,3.31
28.90,3.64,0.33,3.64,0.33,-0.33,-0.73,-0.14,3.31,3.31,3.31
29.19,3.70,0.40,3.68,0.37,-0.37,-0.74,-0.14,3.32,3.31,3.30
29.48,3.76,0.45,3.72,0.42,-0.42,-0.75,-0.15,3.34,3.30,3.31
29.78,3.82,0.51,3.77,0.47,-0.47,-0.77,-0.16,3.35,3.30,3.31
30.08,3.86,0.55,3.82,0.52,-0.52,-0.78,-0.17,3.33,3.29,3.31
30.38,3.87,0.58,3.87,0.58,-0.58,-0.80,-0.18,3.29,3.29,3.29
30.68,3.88,0.59,3.91,0.63,-0.63,-0.81,-0.19,3.25,3.28,3.29
30.99,3.89,0.61,3.95,0.67,-0.67,-0.82,-0.21,3.22,3.28,3.28
31.30,3.96,0.68,3.98,0.70,-0.70,-0.84,-0.22,3.26,3.28,3.28
31.61,4.02,0.74,4.00,0.73,-0.73,-0.85,-0.23,3.29,3.27,3.28
31.93,4.09,0.83,4.03,0.76,-0.76,-0.87,-0.25,3.33,3.26,3.26
32.24,4.11,0.86,4.05,0.79,-0.79,-0.88,-0.27,3.31,3.26,3.25
32.57,4.11,0.86,4.08,0.83,-0.83,-0.90,-0.29,3.28,3.25,3.25
32.89,4.11,0.86,4.11,0.86,-0.86,-0.92,-0.31,3.25,3.25,3.25
33.22,4.11,0.86,4.14,0.89,-0.89,-0.93,-0.33,3.21,3.24,3.25
33.55,4.11,0.87,4.16,0.92,-0.92,-0.95,-0.35,3.19,3.24,3.24
33.89,4.11,0.87,4.18,0.95,-0.95,-0.96,-0.37,3.16,3.23,3.24
34.23,4.16,0.92,4.20,0.97,-0.97,-0.98,-0.39,3.18,3.23,3.24
34.57,4.24,1.01,4.23,1.00,-1.00,-1.00,-0.42,3.24,3.22,3.23
34.92,4.32,1.10,4.25,1.03,-1.03,-1.01,-0.44,3.29,3.22,3.22
35.27,4.34,1.12,4.28,1.06,-1.06,-1.03,-0.47,3.28,3.21,3.22
35.62,4.34,1.13,4.30,1.10,-1.10,-1.05,-0.50,3.24,3.21,3.21
35.97,4.34,1.14,4.34,1.14,-1.14,-1.07,-0.53,3.20,3.20,3.20
36.33,4.34,1.14,4.37,1.18,-1.18,-1.09,-0.56,3.16,3.20,3.20
36.70,4.34,1.14,4.41,1.22,-1.22,-1.10,-0.59,3.12,3.19,3.20
37.06,4.35,1.17,4.44,1.26,-1.26,-1.12,-0.62,3.09,3.18,3.18
37.43,4.44,1.26,4.47,1.29,-1.29,-1.14,-0.65,3.15,3.18,3.18
37.81,4.53,1.36,4.49,1.32,-1.32,-1.16,-0.68,3.21,3.17,3.17
38.19,4.57,1.41,4.51,1.34,-1.34,-1.18,-0.72,3.23,3.16,3.16
38.57,4.57,1.41,4.52,1.36,-1.36,-1.20,-0.75,3.20,3.16,3.16
38.95,4.57,1.42,4.53,1.39,-1.39,-1.22,-0.79,3.18,3.15,3.15
39.34,4.57,1.43,4.55,1.41,-1.41,-1.24,-0.83,3.16,3.14,3.14
39.74,4.57,1.45,4.56,1.43,-1.43,-1.26,-0.86,3.14,3.14,3.12
40.14,4.57,1.44,4.58,1.45,-1.45,-1.28,-0.90,3.12,3.13,3.13
40.54,4.57,1.45,4.58,1.47,-1.47,-1.30,-0.94,3.10,3.12,3.12
40.94,4.57,1.45,4.59,1.48,-1.48,-1.32,-0.98,3.09,3.10,3.12
41.35,4.57,1.47,4.58,1.49,-1.49,-1.35,-1.03,3.07,3.09,3.10
41.76,4.57,1.49,4.58,1.51,-1.51,-1.37,-1.07,3.06,3.07,3.08
42.18,4.57,1.50,4.57,1.52,-1.52,-1.39,-1.11,3.05,3.05,3.07
42.60,4.57,1.53,4.57,1.54,-1.54,-1.41,-1.16,3.03,3.03,3.04
43.03,4.57,1.54,4.57,1.57,-1.57,-1.44,-1.20,3.00,3.00,3.03
43.46,4.57,1.57,4.57,1.60,-1.60,-1.46,-1.25,2.97,2.98,3.00
43.90,4.57,1.62,4.58,1.62,-1.62,-1.48,-1.30,2.94,2.95,2.95
44.33,4.57,1.65,4.57,1.65,-1.65,-1.50,-1.35,2.92,2.92,2.92
44.78,4.57,1.68,4.57,1.67,-1.67,-1.53,-1.40,2.90,2.90,2.89
45.23,4.57,1.71,4.56,1.69,-1.69,-1.55,-1.45,2.88,2.87,2.86
45.68,4.57,1.74,4.55,1.71,-1.71,-1.58,-1.50,2.86,2.85,2.83
46.13,4.57,1.76,4.54,1.72,-1.72,-1.60,-1.55,2.85,2.82,2.81
46.60,4.57,1.77,4.53,1.73,-1.73,-1.63,-1.60,2.84,2.81,2.80
47.06,4.57,1.79,4.53,1.74,-1.74,-1.65,-1.66,2.83,2.79,2.78
47.53,4.55,1.77,4.53,1.75,-1.75,-1.68,-1.71,2.80,2.78,2.78
48.01,4.53,1.75,4.54,1.77,-1.77,-1.70,-1.77,2.76,2.77,2.78
48.49,4.50,1.74,4.55,1.78,-1.78,-1.73,-1.83,2.71,2.76,2.76
48.97,4.47,1.72,4.55,1.79,-1.79,-1.75,-1.88,2.67,2.76,2.75
49.46,4.52,1.78,4.57,1.81,-1.81,-1.78,-1.94,2.71,2.76,2.74
49.96,4.57,1.83,4.58,1.83,-1.83,-1.81,-2.00,2.74,2.75,2.74
50.46,4.59,1.84,4.61,1.86,-1.86,-1.84,-2.06,2.73,2.75,2.75
50.96,4.62,1.86,4.64,1.90,-1.90,-1.86,-2.12,2.72,2.74,2.76
51.47,4.71,1.96,4.68,1.95,-1.95,-1.89,-2.18,2.76,2.73,2.75
51.99,4.80,2.07,4.72,2.01,-2.01,-1.92,-2.24,2.79,2.71,2.73
52.51,4.80,2.08,4.76,2.07,-2.07,-1.95,-2.30,2.73,2.70,2.72
53.03,4.80,2.11,4.81,2.14,-2.14,-1.97,-2.36,2.66,2.67,2.69
53.56,4.80,2.14,4.85,2.21,-2.21,-2.00,-2.42,2.58,2.64,2.66
54.10,4.82,2.20,4.89,2.29,-2.29,-2.03,-2.48,2.53,2.60,2.62
54.64,4.95,2.38,4.93,2.36,-2.36,-2.06,-2.53,2.58,2.56,2.57
55.18,5.03,2.51,4.96,2.44,-2.44,-2.09,-2.59,2.59,2.52,2.52
55.74,5.03,2.56,4.98,2.51,-2.51,-2.12,-2.65,2.52,2.47,2.47
56.29,5.03,2.61,5.00,2.58,-2.58,-2.15,-2.70,2.44,2.41,2.42
56.86,5.03,2.67,5.02,2.66,-2.66,-2.18,-2.75,2.37,2.36,2.36
57.42,5.03,2.74,5.04,2.74,-2.74,-2.21,-2.80,2.29,2.30,2.29
58.00,5.03,2.80,5.05,2.82,-2.82,-2.24,-2.85,2.21,2.24,2.23
58.58,5.03,2.86,5.06,2.89,-2.89,-2.27,-2.89,2.14,2.17,2.17
59.16,5.03,2.91,5.07,2.96,-2.96,-2.30,-2.93,2.07,2.11,2.12
59.76,5.03,2.97,5.07,3.02,-3.02,-2.33,-2.97,2.01,2.05,2.06
60.35,5.03,3.04,5.06,3.08,-3.08,-2.36,-3.01,1.95,1.99,1.99
60.96,5.03,3.09,5.04,3.12,-3.12,-2.40,-3.04,1.91,1.93,1.94
61.57,5.03,3.16,5.01,3.14,-3.14,-2.43,-3.07,1.89,1.87,1.87
62.18,5.03,3.23,4.97,3.16,-3.16,-2.46,-3.10,1.87,1.81,1.80
62.80,5.03,3.27,4.93,3.17,-3.17,-2.49,-3.13,1.86,1.76,1.76
63.43,4.93,3.23,4.85,3.15,-3.15,-2.52,-3.15,1.78,1.71,1.70
64.07,4.80,3.14,4.77,3.11,-3.11,-2.56,-3.16,1.69,1.66,1.66
64.71,4.76,3.15,4.68,3.07,-3.07,-2.59,-3.18,1.69,1.61,1.61
65.35,4.69,3.13,4.58,3.01,-3.01,-2.62,-3.19,1.67,1.57,1.56
66.01,4.57,3.04,4.49,2.96,-2.96,-2.65,-3.20,1.61,1.53,1.53
66.67,4.42,2.93,4.40,2.91,-2.91,-2.69,-3.21,1.51,1.49,1.49
67.33,4.26,2.80,4.31,2.86,-2.86,-2.72,-3.21,1.40,1.46,1.46
68.01,4.11,2.68,4.24,2.82,-2.82,-2.75,-3.22,1.29,1.42,1.43
68.69,4.10,2.70,4.18,2.79,-2.79,-2.79,-3.22,1.31,1.39,1.40
69.37,4.01,2.65,4.15,2.79,-2.79,-2.82,-3.22,1.22,1.36,1.36
70.07,3.91,2.58,4.13,2.80,-2.80,-2.85,-3.21,1.11,1.33,1.33
70.77,4.06,2.74,4.14,2.83,-2.83,-2.89,-3.21,1.22,1.30,1.32
71.48,4.11,2.83,4.15,2.88,-2.88,-2.92,-3.21,1.23,1.27,1.28
72.19,4.16,2.90,4.17,2.93,-2.93,-2.95,-3.20,1.23,1.24,1.26
72.91,4.32,3.10,4.22,3.01,-3.01,-2.99,-3.20,1.31,1.21,1.22
73.64,4.34,3.15,4.29,3.10,-3.10,-3.02,-3.20,1.23,1.18,1.19
74.38,4.40,3.24,4.36,3.20,-3.20,-3.06,-3.19,1.20,1.15,1.16
75.12,4.52,3.39,4.42,3.30,-3.30,-3.09,-3.19,1.22,1.12,1.13
75.87,4.56,3.46,4.48,3.38,-3.38,-3.12,-3.19,1.18,1.10,1.10
76.63,4.57,3.50,4.52,3.45,-3.45,-3.16,-3.19,1.12,1.07,1.07
77.40,4.57,3.53,4.56,3.51,-3.51,-3.19,-3.19,1.05,1.04,1.04
78.17,4.57,3.56,4.59,3.57,-3.57,-3.23,-3.19,1.00,1.02,1.01
78.95,4.57,3.57,4.61,3.61,-3.61,-3.26,-3.19,0.96,1.00,1.00
79.74,4.74,3.76,4.63,3.65,-3.65,-3.30,-3.19,1.09,0.98,0.98
80.54,4.72,3.76,4.64,3.68,-3.68,-3.33,-3.20,1.04,0.96,0.96
81.35,4.62,3.68,4.66,3.71,-3.71,-3.36,-3.21,0.91,0.95,0.94
82.16,4.57,3.63,4.68,3.74,-3.74,-3.40,-3.22,0.83,0.94,0.94
82.98,4.57,3.63,4.70,3.76,-3.76,-3.43,-3.23,0.80,0.94,0.94
83.81,4.57,3.64,4.71,3.78,-3.78,-3.46,-3.25,0.79,0.93,0.93
84.65,4.72,3.80,4.73,3.80,-3.80,-3.50,-3.27,0.92,0.93,0.92
85.50,4.80,3.87,4.73,3.81,-3.81,-3.53,-3.29,0.99,0.93,0.93
86.35,4.80,3.87,4.74,3.81,-3.81,-3.56,-3.31,0.99,0.93,0.93
87.22,4.80,3.87,4.74,3.80,-3.80,-3.60,-3.34,0.99,0.93,0.93
88.09,4.80,3.87,4.73,3.80,-3.80,-3.63,-3.37,1.00,0.93,0.93
88.97,4.80,3.85,4.72,3.79,-3.79,-3.66,-3.40,1.01,0.93,0.95
89.86,4.80,3.85,4.71,3.78,-3.78,-3.69,-3.43,1.02,0.93,0.95
90.76,4.78,3.85,4.71,3.78,-3.78,-3.73,-3.47,0.99,0.93,0.93
91.66,4.64,3.70,4.71,3.79,-3.79,-3.76,-3.50,0.85,0.92,0.94
92.58,4.57,3.66,4.69,3.78,-3.78,-3.79,-3.55,0.79,0.92,0.91
93.51,4.57,3.65,4.66,3.76,-3.76,-3.82,-3.59,0.81,0.91,0.92
94.44,4.57,3.67,4.63,3.73,-3.73,-3.85,-3.64,0.83,0.89,0.90
95.39,4.57,3.68,4.60,3.72,-3.72,-3.88,-3.68,0.85,0.88,0.89
96.34,4.57,3.72,4.57,3.71,-3.71,-3.91,-3.74,0.86,0.86,0.85
97.30,4.57,3.74,4.54,3.70,-3.70,-3.94,-3.79,0.87,0.84,0.83
98.28,4.57,3.76,4.51,3.70,-3.70,-3.97,-3.84,0.87,0.81,0.81
99.26,4.57,3.79,4.48,3.70,-3.70,-4.00,-3.90,0.87,0.78,0.78
100.25,4.56,3.81,4.47,3.72,-3.72,-4.03,-3.96,0.84,0.75,0.75
101.25,4.49,3.77,4.46,3.75,-3.75,-4.06,-4.02,0.74,0.71,0.72
102.27,4.34,3.66,4.45,3.78,-3.78,-4.09,-4.08,0.56,0.67,0.68
103.29,4.34,3.71,4.43,3.80,-3.80,-4.11,-4.14,0.54,0.63,0.63
104.32,4.34,3.75,4.40,3.82,-3.82,-4.14,-4.20,0.52,0.58,0.59
105.37,4.34,3.80,4.37,3.84,-3.84,-4.17,-4.26,0.50,0.52,0.54
106.42,4.34,3.85,4.33,3.87,-3.87,-4.19,-4.33,0.47,0.47,0.49
107.48,4.34,3.92,4.30,3.90,-3.90,-4.22,-4.39,0.44,0.40,0.42
108.56,4.34,4.00,4.27,3.93,-3.93,-4.24,-4.45,0.40,0.34,0.34
109.64,4.34,4.07,4.25,3.98,-3.98,-4.27,-4.51,0.36,0.27,0.27
110.74,4.34,4.13,4.23,4.04,-4.04,-4.29,-4.57,0.30,0.20,0.21
111.85,4.14,4.00,4.22,4.09,-4.09,-4.31,-4.62,0.05,0.12,0.14
112.97,4.11,4.06,4.20,4.15,-4.15,-4.34,-4.67,-0.04,0.05,0.05
114.10,4.11,4.12,4.18,4.20,-4.20,-4.36,-4.72,-0.09,-0.02,-0.01
115.24,4.11,4.20,4.15,4.24,-4.24,-4.38,-4.77,-0.13,-0.09,-0.09
116.39,4.11,4.28,4.13,4.28,-4.28,-4.40,-4.81,-0.17,-0.15,-0.17
117.55,4.11,4.34,4.10,4.32,-4.32,-4.42,-4.85,-0.21,-0.22,-0.23
118.73,4.11,4.41,4.07,4.35,-4.35,-4.44,-4.88,-0.24,-0.28,-0.30
119.92,4.11,4.45,4.04,4.37,-4.37,-4.46,-4.91,-0.26,-0.33,-0.34
121.12,4.10,4.50,4.00,4.38,-4.38,-4.47,-4.93,-0.28,-0.38,-0.40
122.33,3.96,4.40,3.97,4.39,-4.39,-4.49,-4.95,-0.44,-0.43,-0.44
123.55,3.89,4.35,3.93,4.41,-4.41,-4.50,-4.96,-0.52,-0.47,-0.46
124.79,3.89,4.39,3.91,4.42,-4.42,-4.52,-4.96,-0.54,-0.51,-0.50
126.03,3.89,4.43,3.88,4.43,-4.43,-4.53,-4.96,-0.54,-0.55,-0.54
127.29,3.89,4.46,3.85,4.43,-4.43,-4.55,-4.95,-0.54,-0.58,-0.57
128.57,3.84,4.45,3.81,4.42,-4.42,-4.56,-4.94,-0.58,-0.61,-0.61
129.85,3.68,4.32,3.77,4.41,-4.41,-4.57,-4.92,-0.73,-0.65,-0.64
131.15,3.66,4.33,3.73,4.40,-4.40,-4.58,-4.90,-0.75,-0.68,-0.67
132.46,3.66,4.36,3.69,4.40,-4.40,-4.59,-4.87,-0.74,-0.71,-0.70
133.79,3.66,4.39,3.66,4.40,-4.40,-4.60,-4.83,-0.74,-0.74,-0.73
135.12,3.66,4.44,3.63,4.41,-4.41,-4.60,-4.79,-0.75,-0.77,-0.78
136.48,3.66,4.47,3.61,4.42,-4.42,-4.61,-4.75,-0.76,-0.81,-0.81
137.84,3.66,4.50,3.57,4.42,-4.42,-4.61,-4.70,-0.76,-0.84,-0.84
139.22,3.54,4.43,3.54,4.42,-4.42,-4.62,-4.65,-0.88,-0.88,-0.89
140.61,3.45,4.39,3.51,4.43,-4.43,-4.62,-4.60,-0.98,-0.92,-0.94
142.02,3.43,4.39,3.48,4.44,-4.44,-4.62,-4.54,-1.01,-0.96,-0.96
143.44,3.43,4.43,3.45,4.46,-4.46,-4.62,-4.48,-1.03,-1.01,-1.00
144.87,3.43,4.47,3.42,4.48,-4.48,-4.62,-4.42,-1.05,-1.06,-1.04
146.32,3.43,4.52,3.39,4.50,-4.50,-4.62,-4.36,-1.07,-1.11,-1.09
147.78,3.38,4.51,3.35,4.52,-4.52,-4.62,-4.30,-1.14,-1.17,-1.13
149.26,3.26,4.46,3.30,4.53,-4.53,-4.61,-4.24,-1.28,-1.23,-1.20
150.75,3.20,4.48,3.24,4.54,-4.54,-4.61,-4.18,-1.34,-1.30,-1.28
152.26,3.20,4.55,3.18,4.55,-4.55,-4.60,-4.12,-1.35,-1.37,-1.35
153.78,3.20,4.62,3.11,4.56,-4.56,-4.60,-4.06,-1.36,-1.44,-1.42
155.32,3.15,4.67,3.05,4.57,-4.57,-4.59,-4.00,-1.42,-1.51,-1.52
156.88,2.99,4.58,2.98,4.57,-4.57,-4.58,-3.95,-1.58,-1.59,-1.59
158.44,2.97,4.63,2.91,4.56,-4.56,-4.56,-3.89,-1.60,-1.66,-1.66
160.03,2.91,4.65,2.85,4.57,-4.57,-4.55,-3.84,-1.66,-1.72,-1.74
161.63,2.78,4.58,2.79,4.57,-4.57,-4.54,-3.79,-1.79,-1.78,-1.80
163.24,2.61,4.46,2.73,4.56,-4.56,-4.52,-3.74,-1.95,-1.83,-1.85
164.88,2.52,4.41,2.67,4.55,-4.55,-4.51,-3.69,-2.03,-1.87,-1.89
166.53,2.52,4.45,2.62,4.53,-4.53,-4.49,-3.65,-2.01,-1.91,-1.93
168.19,2.52,4.48,2.57,4.50,-4.50,-4.47,-3.60,-1.98,-1.94,-1.96
169.87,2.52,4.49,2.53,4.48,-4.48,-4.45,-3.56,-1.96,-1.95,-1.97
171.57,2.52,4.50,2.49,4.45,-4.45,-4.43,-3.53,-1.94,-1.97,-1.98
173.29,2.52,4.50,2.46,4.43,-4.43,-4.41,-3.49,-1.91,-1.97,-1.98
175.02,2.52,4.48,2.43,4.41,-4.41,-4.38,-3.46,-1.89,-1.98,-1.96
176.77,2.52,4.49,2.41,4.39,-4.39,-4.36,-3.43,-1.87,-1.98,-1.97
178.54,2.34,4.30,2.38,4.36,-4.36,-4.33,-3.41,-2.02,-1.98,-1.96
180.32,2.29,4.24,2.36,4.33,-4.33,-4.30,-3.38,-2.04,-1.98,-1.95
182.13,2.29,4.24,2.33,4.30,-4.30,-4.27,-3.36,-2.01,-1.98,-1.95
183.95,2.29,4.24,2.29,4.27,-4.27,-4.24,-3.34,-1.98,-1.98,-1.95
185.79,2.29,4.25,2.24,4.23,-4.23,-4.21,-3.33,-1.94,-1.98,-1.96
187.65,2.29,4.27,2.19,4.18,-4.18,-4.18,-3.32,-1.89,-1.99,-1.98
189.52,2.11,4.11,2.13,4.13,-4.13,-4.14,-3.30,-2.03,-2.00,-2.00
191.42,2.06,4.08,2.08,4.10,-4.10,-4.10,-3.30,-2.04,-2.02,-2.02
193.33,2.06,4.10,2.03,4.06,-4.06,-4.07,-3.29,-2.00,-2.03,-2.04
195.27,1.96,4.00,1.97,4.02,-4.02,-4.03,-3.29,-2.06,-2.05,-2.04
197.22,1.86,3.92,1.92,3.99,-3.99,-3.99,-3.28,-2.13,-2.07,-2.06
199.19,1.84,3.94,1.87,3.95,-3.95,-3.95,-3.28,-2.11,-2.09,-2.10
201.18,1.84,3.94,1.81,3.91,-3.91,-3.90,-3.28,-2.08,-2.11,-2.10
203.19,1.79,3.91,1.75,3.88,-3.88,-3.86,-3.29,-2.09,-2.12,-2.12
205.23,1.67,3.82,1.69,3.84,-3.84,-3.81,-3.29,-2.17,-2.14,-2.15
207.28,1.61,3.76,1.65,3.81,-3.81,-3.77,-3.29,-2.20,-2.16,-2.15
209.35,1.61,3.78,1.60,3.78,-3.78,-3.72,-3.30,-2.17,-2.18,-2.17
211.44,1.61,3.81,1.55,3.74,-3.74,-3.67,-3.30,-2.14,-2.19,-2.20
213.56,1.45,3.65,1.50,3.70,-3.70,-3.62,-3.31,-2.25,-2.20,-2.20
215.69,1.38,3.58,1.44,3.66,-3.66,-3.56,-3.31,-2.28,-2.22,-2.20
217.85,1.38,3.61,1.39,3.62,-3.62,-3.51,-3.31,-2.24,-2.23,-2.23
220.03,1.38,3.62,1.34,3.58,-3.58,-3.45,-3.32,-2.20,-2.24,-2.24
222.23,1.38,3.64,1.28,3.53,-3.53,-3.40,-3.32,-2.15,-2.25,-2.26
224.45,1.27,3.53,1.23,3.49,-3.49,-3.34,-3.32,-2.22,-2.26,-2.26
226.70,1.16,3.42,1.18,3.45,-3.45,-3.28,-3.31,-2.29,-2.27,-2.26
228.96,1.15,3.42,1.12,3.40,-3.40,-3.22,-3.31,-2.25,-2.28,-2.27
231.25,0.98,3.25,1.06,3.34,-3.34,-3.16,-3.30,-2.36,-2.28,-2.27
233.57,0.92,3.20,1.00,3.28,-3.28,-3.09,-3.29,-2.37,-2.28,-2.28
235.90,0.92,3.21,0.94,3.23,-3.23,-3.03,-3.27,-2.31,-2.28,-2.29
238.26,0.92,3.21,0.89,3.17,-3.17,-2.96,-3.25,-2.26,-2.29,-2.29
240.64,0.92,3.21,0.83,3.11,-3.11,-2.90,-3.23,-2.19,-2.28,-2.29
243.05,0.77,3.05,0.76,3.04,-3.04,-2.83,-3.20,-2.28,-2.28,-2.28
245.48,0.70,2.97,0.70,2.98,-2.98,-2.76,-3.17,-2.28,-2.28,-2.27
247.93,0.70,2.96,0.64,2.92,-2.92,-2.69,-3.13,-2.22,-2.27,-2.26
250.41,0.51,2.78,0.59,2.86,-2.86,-2.61,-3.09,-2.35,-2.27,-2.27
252.92,0.47,2.73,0.53,2.79,-2.79,-2.54,-3.05,-2.32,-2.26,-2.26
255.45,0.47,2.70,0.47,2.72,-2.72,-2.46,-2.99,-2.25,-2.25,-2.23
258.00,0.47,2.70,0.41,2.65,-2.65,-2.39,-2.94,-2.18,-2.24,-2.23
260.58,0.33,2.56,0.35,2.58,-2.58,-2.31,-2.88,-2.25,-2.23,-2.23
263.19,0.25,2.46,0.28,2.49,-2.49,-2.23,-2.81,-2.24,-2.22,-2.21
265.82,0.24,2.45,0.20,2.41,-2.41,-2.15,-2.74,-2.17,-2.20,-2.21
268.48,0.19,2.37,0.14,2.32,-2.32,-2.07,-2.66,-2.13,-2.19,-2.18
271.16,0.06,2.23,0.07,2.24,-2.24,-1.98,-2.58,-2.18,-2.17,-2.17
273.87,0.01,2.17,-0.00,2.15,-2.15,-1.90,-2.50,-2.14,-2.15,-2.16
276.61,-0.12,2.00,-0.08,2.05,-2.05,-1.81,-2.41,-2.17,-2.13,-2.12
279.38,-0.20,1.91,-0.16,1.94,-1.94,-1.73,-2.32,-2.14,-2.10,-2.11
282.17,-0.22,1.86,-0.25,1.83,-1.83,-1.64,-2.23,-2.05,-2.08,-2.08
284.99,-0.27,1.78,-0.34,1.71,-1.71,-1.55,-2.13,-1.99,-2.05,-2.05
287.84,-0.43,1.60,-0.43,1.60,-1.60,-1.46,-2.04,-2.03,-2.03,-2.03
290.72,-0.52,1.47,-0.52,1.48,-1.48,-1.37,-1.93,-2.00,-2.00,-1.99
293.63,-0.65,1.32,-0.62,1.35,-1.35,-1.27,-1.83,-2.00,-1.97,-1.97
296.57,-0.67,1.27,-0.72,1.22,-1.22,-1.18,-1.73,-1.89,-1.94,-1.94
299.53,-0.84,1.07,-0.82,1.10,-1.10,-1.08,-1.62,-1.94,-1.92,-1.91
302.53,-0.90,1.00,-0.91,0.99,-0.99,-0.99,-1.51,-1.89,-1.90,-1.90
305.55,-1.10,0.76,-1.00,0.88,-0.88,-0.89,-1.40,-1.98,-1.88,-1.86
308.61,-1.13,0.71,-1.10,0.76,-0.76,-0.79,-1.29,-1.89,-1.86,-1.84
311.69,-1.13,0.70,-1.21,0.63,-0.63,-0.69,-1.18,-1.77,-1.84,-1.83
314.81,-1.27,0.53,-1.32,0.51,-0.51,-0.59,-1.07,-1.78,-1.83,-1.80
317.96,-1.49,0.31,-1.42,0.39,-0.39,-0.49,-0.96,-1.88,-1.82,-1.80
321.14,-1.58,0.23,-1.53,0.28,-0.28,-0.38,-0.84,-1.86,-1.81,-1.81
324.35,-1.58,0.22,-1.63,0.17,-0.17,-0.28,-0.73,-1.75,-1.80,-1.80
327.59,-1.62,0.17,-1.73,0.06,-0.06,-0.17,-0.62,-1.68,-1.79,-1.79
330.87,-1.76,0.02,-1.83,-0.06,0.06,-0.07,-0.50,-1.70,-1.78,-1.78
334.18,-1.91,-0.13,-1.94,-0.17,0.17,0.04,-0.39,-1.74,-1.77,-1.78
337.52,-2.15,-0.38,-2.05,-0.29,0.29,0.14,-0.27,-1.86,-1.76,-1.77
340.90,-2.25,-0.51,-2.15,-0.40,0.40,0.25,-0.16,-1.85,-1.74,-1.74
344.30,-2.27,-0.54,-2.26,-0.53,0.53,0.36,-0.04,-1.74,-1.73,-1.73
347.75,-2.33,-0.61,-2.36,-0.65,0.65,0.47,0.08,-1.68,-1.71,-1.72
351.23,-2.46,-0.77,-2.46,-0.77,0.77,0.58,0.19,-1.69,-1.69,-1.69
354.74,-2.50,-0.83,-2.55,-0.88,0.88,0.68,0.31,-1.62,-1.67,-1.67
358.28,-2.61,-0.97,-2.64,-1.00,1.00,0.79,0.43,-1.61,-1.65,-1.64
361.87,-2.70,-1.08,-2.74,-1.11,1.11,0.90,0.54,-1.59,-1.62,-1.62
365.49,-2.89,-1.29,-2.82,-1.22,1.22,1.01,0.66,-1.67,-1.60,-1.60
369.14,-2.94,-1.36,-2.89,-1.31,1.31,1.12,0.78,-1.63,-1.58,-1.58
372.83,-2.95,-1.40,-2.95,-1.40,1.40,1.22,0.90,-1.55,-1.56,-1.55
376.56,-3.00,-1.47,-3.02,-1.48,1.48,1.33,1.01,-1.52,-1.54,-1.53
380.33,-3.15,-1.65,-3.09,-1.57,1.57,1.43,1.13,-1.58,-1.52,-1.50
384.13,-3.18,-1.70,-3.16,-1.66,1.66,1.54,1.25,-1.52,-1.50,-1.48
387.97,-3.18,-1.71,-3.22,-1.74,1.74,1.64,1.37,-1.44,-1.48,-1.47
391.85,-3.19,-1.72,-3.27,-1.80,1.80,1.74,1.48,-1.39,-1.47,-1.47
395.77,-3.35,-1.89,-3.33,-1.87,1.87,1.84,1.60,-1.48,-1.46,-1.46
399.73,-3.41,-1.96,-3.37,-1.92,1.92,1.94,1.72,-1.49,-1.45,-1.45
403.72,-3.41,-1.97,-3.41,-1.97,1.97,2.03,1.83,-1.44,-1.44,-1.44
407.76,-3.41,-1.98,-3.45,-2.02,2.02,2.13,1.95,-1.39,-1.43,-1.43
411.84,-3.54,-2.12,-3.51,-2.08,2.08,2.22,2.06,-1.46,-1.43,-1.42
415.96,-3.62,-2.21,-3.57,-2.15,2.15,2.31,2.18,-1.48,-1.42,-1.41
420.12,-3.63,-2.22,-3.63,-2.20,2.20,2.39,2.29,-1.43,-1.42,-1.41
424.32,-3.63,-2.22,-3.67,-2.26,2.26,2.47,2.40,-1.38,-1.42,-1.41
428.56,-3.63,-2.22,-3.73,-2.31,2.31,2.55,2.50,-1.32,-1.42,-1.41
432.85,-3.72,-2.30,-3.78,-2.37,2.37,2.62,2.61,-1.35,-1.41,-1.42
437.18,-3.84,-2.43,-3.84,-2.43,2.43,2.69,2.71,-1.41,-1.41,-1.41
441.55,-3.86,-2.46,-3.89,-2.48,2.48,2.76,2.80,-1.38,-1.40,-1.40
445.96,-4.02,-2.62,-3.94,-2.55,2.55,2.82,2.90,-1.47,-1.40,-1.40
450.42,-4.09,-2.70,-4.00,-2.61,2.61,2.88,2.99,-1.48,-1.39,-1.39
454.93,-4.09,-2.71,-4.05,-2.68,2.68,2.93,3.07,-1.42,-1.38,-1.38
459.48,-4.09,-2.72,-4.10,-2.73,2.73,2.98,3.15,-1.36,-1.36,-1.37
464.07,-4.09,-2.74,-4.14,-2.80,2.80,3.02,3.22,-1.30,-1.35,-1.35
468.71,-4.09,-2.76,-4.19,-2.86,2.86,3.06,3.28,-1.23,-1.33,-1.33
473.40,-4.23,-2.91,-4.23,-2.92,2.92,3.09,3.34,-1.32,-1.31,-1.32
478.13,-4.31,-3.02,-4.26,-2.97,2.97,3.12,3.39,-1.34,-1.29,-1.29
482.91,-4.32,-3.05,-4.28,-3.01,3.01,3.14,3.44,-1.31,-1.27,-1.27
487.74,-4.32,-3.08,-4.29,-3.05,3.05,3.16,3.47,-1.27,-1.24,-1.24
492.62,-4.32,-3.11,-4.31,-3.09,3.09,3.17,3.50,-1.24,-1.22,-1.21
497.55,-4.32,-3.13,-4.32,-3.13,3.13,3.17,3.52,-1.20,-1.20,-1.19
