frequency,raw,error,smoothed,error_smoothed,equalization,parametric_eq,fixed_band_eq,equalized_raw,equalized_smoothed,target
20.00,-11.69,-20.44,-11.69,-20.46,20.46,20.59,9.02,8.77,8.77,8.74
20.20,-11.57,-20.36,-11.58,-20.38,20.38,20.46,9.19,8.80,8.80,8.78
20.40,-11.46,-20.29,-11.46,-20.29,20.29,20.33,9.37,8.83,8.83,8.82
20.61,-11.35,-20.20,-11.34,-20.20,20.20,20.19,9.56,8.86,8.86,8.85
20.81,-11.23,-20.12,-11.23,-20.11,20.11,20.06,9.74,8.88,8.88,8.89
21.02,-11.11,-20.04,-11.11,-20.02,20.02,19.94,9.94,8.91,8.91,8.93
21.23,-10.99,-19.94,-10.99,-19.92,19.92,19.81,10.13,8.93,8.93,8.95
21.44,-10.87,-19.84,-10.87,-19.83,19.83,19.69,10.33,8.96,8.95,8.97
21.66,-10.75,-19.74,-10.76,-19.73,19.73,19.56,10.54,8.97,8.97,8.99
21.87,-10.63,-19.63,-10.64,-19.63,19.63,19.44,10.75,9.00,8.99,9.00
22.09,-10.51,-19.53,-10.52,-19.53,19.53,19.32,10.97,9.01,9.01,9.02
22.31,-10.39,-19.42,-10.39,-19.42,19.42,19.20,11.19,9.03,9.03,9.03
22.54,-10.27,-19.31,-10.27,-19.31,19.31,19.09,11.42,9.04,9.04,9.04
22.76,-10.15,-19.20,-10.15,-19.20,19.20,18.97,11.66,9.05,9.05,9.05
22.99,-10.03,-19.08,-10.03,-19.08,19.08,18.86,11.90,9.05,9.06,9.05
23.22,-9.90,-18.96,-9.90,-18.97,18.97,18.74,12.15,9.06,9.06,9.06
23.45,-9.78,-18.85,-9.78,-18.85,18.85,18.63,12.41,9.07,9.07,9.07
23.69,-9.66,-18.73,-9.66,-18.74,18.74,18.52,12.67,9.08,9.08,9.07
23.92,-9.53,-18.62,-9.53,-18.62,18.62,18.41,12.94,9.09,9.09,9.08
24.16,-9.40,-18.50,-9.41,-18.51,18.51,18.30,13.22,9.10,9.10,9.10
24.40,-9.28,-18.40,-9.28,-18.39,18.39,18.19,13.50,9.11,9.11,9.12
24.65,-9.15,-18.27,-9.15,-18.27,18.27,18.08,13.80,9.12,9.12,9.12
24.89,-9.02,-18.15,-9.03,-18.16,18.16,17.97,14.10,9.14,9.13,9.13
25.14,-8.90,-18.04,-8.90,-18.04,18.04,17.87,14.41,9.14,9.14,9.14
25.39,-8.77,-17.92,-8.77,-17.92,17.92,17.76,14.73,9.15,9.15,9.15
25.65,-8.64,-17.81,-8.64,-17.81,17.81,17.65,15.07,9.16,9.16,9.17
25.91,-8.53,-17.69,-8.52,-17.69,17.69,17.55,15.41,9.16,9.17,9.17
26.16,-8.39,-17.57,-8.39,-17.57,17.57,17.44,15.75,9.18,9.18,9.17
26.43,-8.27,-17.45,-8.26,-17.45,17.45,17.33,16.11,9.19,9.19,9.18
26.69,-8.13,-17.32,-8.13,-17.33,17.33,17.23,16.48,9.20,9.20,9.19
26.96,-8.00,-17.21,-8.01,-17.21,17.21,17.12,16.86,9.21,9.20,9.21
27.23,-7.87,-17.09,-7.88,-17.09,17.09,17.01,17.24,9.21,9.21,9.22
27.50,-7.74,-16.97,-7.75,-16.97,16.97,16.90,17.63,9.23,9.22,9.23
27.77,-7.61,-16.84,-7.62,-16.85,16.85,16.79,18.02,9.24,9.23,9.23
28.05,-7.49,-16.74,-7.49,-16.73,16.73,16.68,18.41,9.23,9.24,9.24
28.33,-7.36,-16.61,-7.36,-16.60,16.60,16.57,18.81,9.24,9.25,9.24
28.62,-7.24,-16.49,-7.23,-16.48,16.48,16.46,19.20,9.24,9.25,9.25
28.90,-7.09,-16.35,-7.10,-16.36,16.36,16.35,19.57,9.27,9.26,9.26
29.19,-6.96,-16.22,-6.97,-16.23,16.23,16.24,19.93,9.27,9.27,9.26
29.48,-6.83,-16.12,-6.84,-16.11,16.11,16.12,20.27,9.28,9.28,9.29
29.78,-6.70,-15.99,-6.71,-15.99,15.99,16.01,20.56,9.28,9.28,9.28
30.08,-6.58,-15.87,-6.58,-15.86,15.86,15.89,20.82,9.29,9.29,9.29
30.38,-6.44,-15.73,-6.45,-15.74,15.74,15.78,21.02,9.30,9.29,9.29
30.68,-6.31,-15.62,-6.32,-15.62,15.62,15.66,21.16,9.30,9.30,9.31
30.99,-6.18,-15.49,-6.19,-15.49,15.49,15.54,21.24,9.31,9.31,9.31
31.30,-6.05,-15.37,-6.06,-15.37,15.37,15.42,21.24,9.32,9.31,9.31
31.61,-5.92,-15.24,-5.93,-15.25,15.25,15.30,21.17,9.33,9.32,9.32
31.93,-5.80,-15.13,-5.80,-15.13,15.13,15.18,21.04,9.32,9.33,9.33
32.24,-5.67,-15.00,-5.67,-15.00,15.00,15.06,20.84,9.33,9.34,9.33
32.57,-5.54,-14.89,-5.54,-14.88,14.88,14.93,20.59,9.34,9.34,9.34
32.89,-5.41,-14.76,-5.41,-14.76,14.76,14.81,20.30,9.35,9.35,9.35
33.22,-5.28,-14.64,-5.28,-14.64,14.64,14.68,19.97,9.35,9.36,9.36
33.55,-5.15,-14.51,-5.15,-14.51,14.51,14.56,19.62,9.36,9.36,9.36
33.89,-5.01,-14.38,-5.02,-14.39,14.39,14.43,19.25,9.38,9.37,9.37
34.23,-4.88,-14.26,-4.89,-14.27,14.27,14.30,18.87,9.38,9.37,9.38
34.57,-4.76,-14.15,-4.76,-14.14,14.14,14.17,18.49,9.38,9.38,9.38
34.92,-4.63,-14.01,-4.63,-14.02,14.02,14.04,18.10,9.38,9.38,9.38
35.27,-4.50,-13.89,-4.50,-13.89,13.89,13.91,17.72,9.38,9.39,9.39
35.62,-4.37,-13.77,-4.37,-13.76,13.76,13.78,17.34,9.38,9.39,9.39
35.97,-4.24,-13.63,-4.23,-13.63,13.63,13.64,16.96,9.38,9.39,9.39
36.33,-4.11,-13.51,-4.10,-13.49,13.49,13.51,16.60,9.38,9.39,9.39
36.70,-3.97,-13.36,-3.97,-13.36,13.36,13.38,16.24,9.38,9.39,9.39
37.06,-3.84,-13.24,-3.83,-13.22,13.22,13.24,15.89,9.38,9.39,9.39
37.43,-3.69,-13.09,-3.70,-13.09,13.09,13.11,15.55,9.40,9.39,9.40
37.81,-3.55,-12.95,-3.56,-12.95,12.95,12.97,15.22,9.40,9.39,9.39
38.19,-3.41,-12.80,-3.43,-12.81,12.81,12.84,14.90,9.40,9.39,9.39
38.57,-3.28,-12.67,-3.29,-12.67,12.67,12.70,14.59,9.39,9.38,9.38
38.95,-3.15,-12.53,-3.15,-12.53,12.53,12.57,14.29,9.38,9.38,9.38
39.34,-3.01,-12.38,-3.02,-12.39,12.39,12.43,14.00,9.38,9.38,9.37
39.74,-2.88,-12.25,-2.88,-12.25,12.25,12.29,13.71,9.37,9.37,9.37
40.14,-2.75,-12.13,-2.75,-12.12,12.12,12.16,13.44,9.36,9.37,9.37
40.54,-2.62,-11.99,-2.61,-11.98,11.98,12.02,13.17,9.36,9.37,9.36
40.94,-2.49,-11.85,-2.48,-11.84,11.84,11.88,12.91,9.35,9.36,9.36
41.35,-2.35,-11.70,-2.35,-11.71,11.71,11.75,12.66,9.36,9.36,9.35
41.76,-2.22,-11.57,-2.22,-11.58,11.58,11.61,12.42,9.35,9.35,9.35
42.18,-2.08,-11.44,-2.09,-11.44,11.44,11.47,12.18,9.36,9.35,9.36
42.60,-1.96,-11.31,-1.97,-11.31,11.31,11.34,11.95,9.35,9.34,9.35
43.03,-1.83,-11.18,-1.84,-11.18,11.18,11.20,11.73,9.35,9.34,9.35
43.46,-1.71,-11.05,-1.72,-11.05,11.05,11.07,11.51,9.34,9.33,9.34
43.90,-1.60,-10.93,-1.59,-10.93,10.93,10.93,11.30,9.32,9.33,9.32
44.33,-1.48,-10.81,-1.47,-10.80,10.80,10.80,11.10,9.32,9.33,9.32
44.78,-1.35,-10.67,-1.35,-10.68,10.68,10.66,10.90,9.32,9.32,9.31
45.23,-1.23,-10.54,-1.24,-10.55,10.55,10.53,10.70,9.32,9.32,9.30
45.68,-1.12,-10.43,-1.12,-10.43,10.43,10.40,10.52,9.31,9.31,9.30
46.13,-1.01,-10.31,-1.01,-10.32,10.32,10.27,10.33,9.30,9.30,9.29
46.60,-0.90,-10.21,-0.90,-10.20,10.20,10.13,10.16,9.29,9.30,9.30
47.06,-0.79,-10.08,-0.79,-10.08,10.08,10.00,9.99,9.29,9.29,9.29
47.53,-0.68,-9.96,-0.69,-9.96,9.96,9.87,9.82,9.28,9.28,9.28
48.01,-0.57,-9.86,-0.58,-9.85,9.85,9.74,9.65,9.28,9.27,9.29
48.49,-0.47,-9.74,-0.48,-9.74,9.74,9.62,9.49,9.26,9.26,9.27
48.97,-0.38,-9.63,-0.38,-9.62,9.62,9.49,9.34,9.24,9.24,9.24
49.46,-0.28,-9.51,-0.28,-9.51,9.51,9.36,9.19,9.23,9.23,9.23
49.96,-0.18,-9.39,-0.19,-9.40,9.40,9.24,9.04,9.22,9.22,9.21
50.46,-0.09,-9.29,-0.09,-9.29,9.29,9.11,8.90,9.20,9.20,9.20
50.96,-0.00,-9.19,0.00,-9.18,9.18,8.99,8.76,9.18,9.18,9.19
51.47,0.10,-9.05,0.09,-9.07,9.07,8.86,8.62,9.17,9.16,9.15
51.99,0.19,-8.95,0.18,-8.96,8.96,8.74,8.49,9.14,9.14,9.13
52.51,0.28,-8.85,0.27,-8.85,8.85,8.62,8.36,9.12,9.12,9.13
53.03,0.36,-8.74,0.36,-8.74,8.74,8.50,8.23,9.10,9.10,9.10
53.56,0.45,-8.64,0.45,-8.63,8.63,8.38,8.11,9.08,9.08,9.08
54.10,0.54,-8.52,0.53,-8.52,8.52,8.26,7.98,9.06,9.06,9.06
54.64,0.62,-8.42,0.62,-8.41,8.41,8.15,7.87,9.03,9.03,9.04
55.18,0.71,-8.30,0.70,-8.31,8.31,8.03,7.75,9.02,9.01,9.01
55.74,0.79,-8.19,0.79,-8.20,8.20,7.92,7.63,8.99,8.99,8.98
56.29,0.87,-8.10,0.87,-8.09,8.09,7.80,7.52,8.96,8.96,8.97
56.86,0.96,-7.98,0.95,-7.99,7.99,7.69,7.41,8.94,8.94,8.93
57.42,1.04,-7.86,1.04,-7.88,7.88,7.58,7.30,8.91,8.91,8.90
58.00,1.12,-7.76,1.12,-7.77,7.77,7.47,7.19,8.88,8.88,8.88
58.58,1.20,-7.66,1.20,-7.65,7.65,7.36,7.09,8.85,8.85,8.86
59.16,1.28,-7.55,1.28,-7.54,7.54,7.25,6.98,8.82,8.82,8.83
59.76,1.37,-7.44,1.37,-7.42,7.42,7.15,6.88,8.79,8.79,8.81
60.35,1.45,-7.32,1.45,-7.30,7.30,7.04,6.77,8.75,8.76,8.77
60.96,1.54,-7.20,1.54,-7.18,7.18,6.94,6.67,8.72,8.72,8.73
61.57,1.62,-7.07,1.62,-7.06,7.06,6.83,6.57,8.68,8.68,8.69
62.18,1.71,-6.93,1.71,-6.94,6.94,6.73,6.47,8.64,8.65,8.64
62.80,1.79,-6.82,1.79,-6.81,6.81,6.63,6.38,8.60,8.61,8.61
63.43,1.88,-6.68,1.88,-6.69,6.69,6.53,6.28,8.56,8.57,8.56
64.07,1.96,-6.56,1.96,-6.56,6.56,6.43,6.18,8.52,8.52,8.52
64.71,2.05,-6.43,2.05,-6.43,6.43,6.33,6.08,8.48,8.48,8.48
65.35,2.14,-6.30,2.13,-6.31,6.31,6.24,5.99,8.45,8.44,8.43
66.01,2.22,-6.17,2.21,-6.18,6.18,6.14,5.90,8.40,8.39,8.39
66.67,2.30,-6.06,2.28,-6.06,6.06,6.05,5.80,8.36,8.35,8.35
67.33,2.37,-5.94,2.36,-5.94,5.94,5.96,5.71,8.31,8.30,8.31
68.01,2.44,-5.83,2.43,-5.82,5.82,5.87,5.62,8.26,8.26,8.26
68.69,2.50,-5.72,2.50,-5.71,5.71,5.78,5.53,8.21,8.21,8.22
69.37,2.57,-5.60,2.57,-5.60,5.60,5.69,5.44,8.16,8.17,8.17
70.07,2.64,-5.48,2.64,-5.49,5.49,5.60,5.35,8.12,8.12,8.12
70.77,2.69,-5.39,2.70,-5.38,5.38,5.51,5.26,8.07,8.08,8.08
71.48,2.75,-5.29,2.76,-5.28,5.28,5.43,5.17,8.02,8.03,8.04
72.19,2.81,-5.18,2.81,-5.18,5.18,5.34,5.09,7.99,7.99,7.98
72.91,2.86,-5.08,2.86,-5.08,5.08,5.26,5.00,7.94,7.94,7.94
73.64,2.92,-4.98,2.91,-4.99,4.99,5.18,4.92,7.91,7.90,7.90
74.38,2.97,-4.89,2.95,-4.91,4.91,5.10,4.84,7.87,7.86,7.86
75.12,3.01,-4.81,2.99,-4.83,4.83,5.02,4.76,7.83,7.82,7.82
75.87,3.04,-4.74,3.03,-4.75,4.75,4.94,4.68,7.79,7.78,7.78
76.63,3.08,-4.66,3.06,-4.68,4.68,4.86,4.60,7.75,7.74,7.74
77.40,3.10,-4.60,3.09,-4.61,4.61,4.78,4.53,7.70,7.70,7.70
78.17,3.13,-4.53,3.13,-4.54,4.54,4.71,4.45,7.67,7.67,7.66
78.95,3.15,-4.48,3.15,-4.48,4.48,4.63,4.38,7.62,7.63,7.63
79.74,3.17,-4.43,3.18,-4.41,4.41,4.56,4.31,7.58,7.60,7.60
80.54,3.20,-4.37,3.21,-4.36,4.36,4.49,4.24,7.55,7.56,7.57
81.35,3.22,-4.31,3.23,-4.30,4.30,4.42,4.17,7.51,7.53,7.53
82.16,3.25,-4.25,3.26,-4.24,4.24,4.35,4.10,7.49,7.50,7.50
82.98,3.28,-4.19,3.28,-4.18,4.18,4.28,4.04,7.46,7.47,7.47
83.81,3.31,-4.13,3.31,-4.13,4.13,4.21,3.97,7.43,7.44,7.43
84.65,3.35,-4.05,3.34,-4.07,4.07,4.15,3.91,7.42,7.41,7.40
85.50,3.37,-4.01,3.36,-4.01,4.01,4.08,3.85,7.38,7.38,7.38
86.35,3.40,-3.95,3.39,-3.96,3.96,4.02,3.79,7.35,7.35,7.35
87.22,3.42,-3.90,3.42,-3.90,3.90,3.95,3.73,7.32,7.32,7.32
88.09,3.44,-3.85,3.45,-3.85,3.85,3.89,3.67,7.28,7.29,7.29
88.97,3.47,-3.80,3.47,-3.79,3.79,3.83,3.62,7.26,7.27,7.27
89.86,3.50,-3.75,3.50,-3.74,3.74,3.77,3.57,7.24,7.24,7.25
90.76,3.52,-3.69,3.52,-3.70,3.70,3.71,3.51,7.21,7.21,7.20
91.66,3.54,-3.64,3.53,-3.65,3.65,3.65,3.46,7.19,7.18,7.18
92.58,3.56,-3.59,3.55,-3.61,3.61,3.59,3.41,7.16,7.15,7.15
93.51,3.58,-3.56,3.56,-3.57,3.57,3.54,3.37,7.14,7.13,7.13
94.44,3.59,-3.51,3.57,-3.53,3.53,3.48,3.32,7.11,7.09,7.10
95.39,3.59,-3.49,3.57,-3.49,3.49,3.43,3.28,7.08,7.06,7.07
96.34,3.59,-3.44,3.58,-3.45,3.45,3.37,3.23,7.04,7.03,7.03
97.30,3.58,-3.41,3.58,-3.42,3.42,3.32,3.19,6.99,7.00,6.99
98.28,3.58,-3.38,3.58,-3.38,3.38,3.27,3.15,6.95,6.96,6.96
99.26,3.57,-3.35,3.58,-3.34,3.34,3.22,3.11,6.91,6.92,6.92
100.25,3.57,-3.31,3.58,-3.30,3.30,3.17,3.07,6.86,6.88,6.88
101.25,3.57,-3.28,3.59,-3.26,3.26,3.12,3.03,6.82,6.84,6.84
102.27,3.57,-3.23,3.59,-3.21,3.21,3.07,3.00,6.78,6.80,6.80
103.29,3.57,-3.18,3.59,-3.17,3.17,3.02,2.96,6.74,6.75,6.75
104.32,3.57,-3.14,3.58,-3.12,3.12,2.97,2.93,6.69,6.71,6.71
105.37,3.58,-3.09,3.58,-3.08,3.08,2.93,2.89,6.65,6.66,6.66
106.42,3.59,-3.02,3.57,-3.03,3.03,2.88,2.86,6.62,6.60,6.61
107.48,3.60,-2.96,3.57,-2.98,2.98,2.84,2.83,6.58,6.55,6.56
108.56,3.58,-2.91,3.55,-2.94,2.94,2.80,2.79,6.51,6.49,6.49
109.64,3.57,-2.87,3.54,-2.89,2.89,2.76,2.76,6.46,6.43,6.43
110.74,3.55,-2.83,3.52,-2.85,2.85,2.71,2.73,6.39,6.37,6.38
111.85,3.51,-2.80,3.50,-2.80,2.80,2.67,2.70,6.31,6.30,6.31
112.97,3.48,-2.75,3.47,-2.76,2.76,2.63,2.67,6.24,6.23,6.23
114.10,3.44,-2.74,3.44,-2.73,2.73,2.59,2.64,6.16,6.17,6.17
115.24,3.41,-2.69,3.41,-2.69,2.69,2.56,2.61,6.10,6.10,6.10
116.39,3.38,-2.65,3.38,-2.65,2.65,2.52,2.58,6.03,6.03,6.02
117.55,3.35,-2.61,3.35,-2.61,2.61,2.48,2.56,5.95,5.96,5.96
118.73,3.32,-2.57,3.33,-2.57,2.57,2.45,2.53,5.88,5.89,5.88
119.92,3.28,-2.55,3.31,-2.52,2.52,2.41,2.50,5.80,5.83,5.83
121.12,3.26,-2.50,3.29,-2.47,2.47,2.38,2.47,5.73,5.76,5.75
122.33,3.25,-2.44,3.28,-2.42,2.42,2.34,2.44,5.67,5.70,5.69
123.55,3.24,-2.40,3.26,-2.37,2.37,2.31,2.41,5.60,5.63,5.64
124.79,3.24,-2.34,3.25,-2.32,2.32,2.28,2.38,5.55,5.57,5.58
126.03,3.25,-2.27,3.24,-2.27,2.27,2.25,2.35,5.52,5.51,5.51
127.29,3.26,-2.20,3.23,-2.22,2.22,2.22,2.32,5.48,5.45,5.45
128.57,3.26,-2.13,3.22,-2.17,2.17,2.19,2.29,5.43,5.39,5.38
129.85,3.24,-2.10,3.21,-2.13,2.13,2.16,2.26,5.37,5.34,5.33
131.15,3.22,-2.06,3.19,-2.09,2.09,2.13,2.23,5.31,5.28,5.28
132.46,3.20,-2.03,3.17,-2.06,2.06,2.10,2.20,5.25,5.23,5.23
133.79,3.17,-2.02,3.15,-2.02,2.02,2.07,2.17,5.19,5.18,5.18
135.12,3.13,-2.00,3.13,-2.00,2.00,2.05,2.13,5.12,5.13,5.13
136.48,3.10,-1.98,3.11,-1.97,1.97,2.02,2.10,5.07,5.08,5.08
137.84,3.06,-1.97,3.08,-1.95,1.95,1.99,2.07,5.01,5.03,5.03
139.22,3.04,-1.94,3.05,-1.93,1.93,1.97,2.04,4.97,4.98,4.97
140.61,3.01,-1.92,3.02,-1.91,1.91,1.95,2.01,4.92,4.94,4.92
142.02,2.98,-1.91,2.99,-1.90,1.90,1.92,1.98,4.87,4.89,4.89
143.44,2.97,-1.88,2.97,-1.88,1.88,1.90,1.95,4.84,4.84,4.85
144.87,2.94,-1.86,2.94,-1.86,1.86,1.88,1.92,4.79,4.80,4.80
146.32,2.92,-1.84,2.92,-1.84,1.84,1.85,1.89,4.75,4.75,4.75
147.78,2.89,-1.83,2.89,-1.81,1.81,1.83,1.86,4.70,4.70,4.72
149.26,2.88,-1.79,2.87,-1.79,1.79,1.81,1.83,4.66,4.66,4.67
150.75,2.85,-1.76,2.85,-1.76,1.76,1.79,1.80,4.61,4.61,4.60
152.26,2.84,-1.72,2.82,-1.74,1.74,1.77,1.77,4.57,4.56,4.56
153.78,2.81,-1.71,2.80,-1.71,1.71,1.76,1.74,4.52,4.51,4.52
155.32,2.78,-1.68,2.77,-1.69,1.69,1.74,1.72,4.47,4.46,4.45
156.88,2.74,-1.68,2.74,-1.67,1.67,1.72,1.69,4.40,4.41,4.41
158.44,2.72,-1.64,2.72,-1.64,1.64,1.70,1.66,4.36,4.36,4.36
160.03,2.69,-1.62,2.69,-1.62,1.62,1.69,1.64,4.30,4.31,4.30
161.63,2.67,-1.58,2.66,-1.59,1.59,1.67,1.61,4.26,4.25,4.24
163.24,2.64,-1.56,2.63,-1.57,1.57,1.66,1.59,4.21,4.20,4.20
164.88,2.60,-1.55,2.60,-1.54,1.54,1.64,1.57,4.14,4.15,4.15
166.53,2.57,-1.53,2.58,-1.52,1.52,1.63,1.54,4.08,4.09,4.09
168.19,2.54,-1.50,2.55,-1.49,1.49,1.61,1.52,4.03,4.04,4.04
169.87,2.51,-1.48,2.52,-1.46,1.46,1.60,1.50,3.97,3.98,3.98
171.57,2.49,-1.45,2.49,-1.43,1.43,1.59,1.48,3.92,3.93,3.93
173.29,2.47,-1.40,2.46,-1.41,1.41,1.58,1.46,3.87,3.87,3.87
175.02,2.44,-1.38,2.43,-1.38,1.38,1.56,1.44,3.81,3.81,3.82
176.77,2.41,-1.34,2.40,-1.35,1.35,1.55,1.42,3.75,3.75,3.75
178.54,2.39,-1.30,2.37,-1.32,1.32,1.54,1.41,3.71,3.69,3.69
180.32,2.36,-1.27,2.34,-1.29,1.29,1.53,1.39,3.65,3.63,3.63
182.13,2.33,-1.25,2.31,-1.26,1.26,1.52,1.37,3.59,3.57,3.57
183.95,2.27,-1.24,2.28,-1.23,1.23,1.51,1.36,3.50,3.51,3.51
185.79,2.24,-1.21,2.25,-1.20,1.20,1.50,1.34,3.43,3.45,3.45
187.65,2.21,-1.17,2.22,-1.17,1.17,1.50,1.33,3.37,3.39,3.37
189.52,2.18,-1.14,2.19,-1.14,1.14,1.49,1.32,3.32,3.33,3.32
191.42,2.15,-1.12,2.16,-1.11,1.11,1.48,1.30,3.26,3.27,3.27
193.33,2.13,-1.09,2.13,-1.08,1.08,1.47,1.29,3.21,3.21,3.21
195.27,2.10,-1.06,2.10,-1.05,1.05,1.47,1.28,3.15,3.15,3.16
197.22,2.07,-1.03,2.07,-1.03,1.03,1.46,1.27,3.09,3.10,3.10
199.19,2.05,-0.99,2.05,-1.00,1.00,1.46,1.26,3.05,3.05,3.04
201.18,2.03,-0.96,2.02,-0.97,0.97,1.45,1.25,3.00,2.99,2.99
203.19,2.01,-0.94,2.00,-0.95,0.95,1.45,1.24,2.95,2.94,2.95
205.23,1.98,-0.91,1.97,-0.92,0.92,1.44,1.24,2.90,2.89,2.89
207.28,1.95,-0.91,1.95,-0.90,0.90,1.44,1.23,2.84,2.84,2.86
209.35,1.92,-0.89,1.92,-0.88,0.88,1.44,1.22,2.79,2.80,2.80
211.44,1.90,-0.85,1.90,-0.86,0.86,1.43,1.22,2.75,2.75,2.75
213.56,1.87,-0.84,1.87,-0.84,0.84,1.43,1.21,2.71,2.71,2.71
215.69,1.84,-0.85,1.84,-0.83,0.83,1.43,1.21,2.67,2.67,2.68
217.85,1.81,-0.83,1.81,-0.82,0.82,1.43,1.20,2.63,2.63,2.64
220.03,1.80,-0.79,1.78,-0.82,0.82,1.43,1.20,2.61,2.60,2.59
222.23,1.77,-0.79,1.75,-0.81,0.81,1.42,1.19,2.58,2.57,2.56
224.45,1.74,-0.80,1.72,-0.81,0.81,1.42,1.19,2.55,2.54,2.53
226.70,1.70,-0.81,1.69,-0.81,0.81,1.42,1.19,2.51,2.51,2.51
228.96,1.66,-0.82,1.66,-0.82,0.82,1.42,1.19,2.48,2.48,2.48
231.25,1.64,-0.83,1.63,-0.83,0.83,1.43,1.18,2.46,2.46,2.46
233.57,1.60,-0.84,1.60,-0.84,0.84,1.43,1.18,2.43,2.44,2.44
235.90,1.56,-0.86,1.57,-0.85,0.85,1.43,1.18,2.41,2.43,2.42
238.26,1.53,-0.88,1.55,-0.87,0.87,1.43,1.18,2.39,2.41,2.41
240.64,1.50,-0.90,1.52,-0.89,0.89,1.43,1.18,2.38,2.40,2.40
243.05,1.49,-0.91,1.48,-0.91,0.91,1.43,1.18,2.40,2.39,2.40
245.48,1.47,-0.92,1.45,-0.94,0.94,1.44,1.18,2.40,2.39,2.39
247.93,1.43,-0.96,1.42,-0.96,0.96,1.44,1.18,2.39,2.39,2.39
250.41,1.41,-0.97,1.39,-0.99,0.99,1.44,1.18,2.40,2.39,2.38
252.92,1.38,-1.01,1.37,-1.02,1.02,1.45,1.18,2.40,2.39,2.39
255.45,1.35,-1.05,1.33,-1.06,1.06,1.45,1.18,2.41,2.39,2.40
258.00,1.32,-1.08,1.31,-1.09,1.09,1.46,1.18,2.41,2.40,2.40
260.58,1.28,-1.13,1.28,-1.13,1.13,1.46,1.19,2.41,2.41,2.40
263.19,1.24,-1.18,1.25,-1.17,1.17,1.47,1.19,2.41,2.42,2.42
265.82,1.20,-1.22,1.22,-1.21,1.21,1.47,1.19,2.41,2.43,2.42
268.48,1.18,-1.26,1.18,-1.25,1.25,1.48,1.19,2.43,2.44,2.44
271.16,1.16,-1.30,1.15,-1.29,1.29,1.49,1.20,2.45,2.45,2.45
273.87,1.12,-1.34,1.12,-1.34,1.34,1.49,1.20,2.45,2.46,2.46
276.61,1.09,-1.39,1.10,-1.38,1.38,1.50,1.21,2.46,2.47,2.48
279.38,1.07,-1.42,1.07,-1.42,1.42,1.51,1.21,2.48,2.48,2.48
282.17,1.05,-1.45,1.04,-1.45,1.45,1.51,1.22,2.50,2.50,2.50
284.99,1.03,-1.49,1.01,-1.49,1.49,1.52,1.22,2.52,2.51,2.51
287.84,0.99,-1.53,0.99,-1.53,1.53,1.53,1.23,2.52,2.52,2.52
290.72,0.96,-1.57,0.96,-1.57,1.57,1.54,1.24,2.53,2.53,2.53
293.63,0.94,-1.61,0.94,-1.61,1.61,1.55,1.25,2.55,2.55,2.55
296.57,0.91,-1.65,0.91,-1.65,1.65,1.56,1.26,2.56,2.56,2.56
299.53,0.89,-1.68,0.88,-1.69,1.69,1.57,1.27,2.58,2.57,2.57
302.53,0.87,-1.70,0.85,-1.73,1.73,1.58,1.28,2.60,2.58,2.57
305.55,0.84,-1.76,0.82,-1.77,1.77,1.59,1.29,2.61,2.59,2.60
308.61,0.81,-1.80,0.79,-1.81,1.81,1.60,1.30,2.62,2.60,2.60
311.69,0.77,-1.84,0.77,-1.84,1.84,1.61,1.31,2.61,2.61,2.61
314.81,0.75,-1.89,0.74,-1.88,1.88,1.62,1.33,2.62,2.62,2.63
317.96,0.72,-1.91,0.72,-1.91,1.91,1.63,1.34,2.62,2.63,2.63
321.14,0.69,-1.95,0.71,-1.93,1.93,1.64,1.36,2.62,2.63,2.64
324.35,0.66,-1.98,0.69,-1.95,1.95,1.65,1.38,2.61,2.64,2.63
327.59,0.64,-2.01,0.68,-1.97,1.97,1.66,1.39,2.60,2.64,2.65
330.87,0.64,-2.01,0.67,-1.98,1.98,1.67,1.41,2.62,2.65,2.65
334.18,0.64,-2.01,0.66,-1.99,1.99,1.69,1.43,2.63,2.65,2.64
337.52,0.66,-1.99,0.65,-2.00,2.00,1.70,1.46,2.66,2.65,2.65
340.90,0.66,-2.00,0.64,-2.01,2.01,1.71,1.48,2.67,2.65,2.66
344.30,0.66,-2.00,0.63,-2.02,2.02,1.72,1.50,2.68,2.65,2.65
347.75,0.65,-2.01,0.62,-2.03,2.03,1.74,1.53,2.68,2.65,2.65
351.23,0.64,-2.01,0.61,-2.04,2.04,1.75,1.55,2.68,2.65,2.65
354.74,0.62,-2.03,0.59,-2.05,2.05,1.76,1.58,2.67,2.64,2.65
358.28,0.59,-2.05,0.57,-2.07,2.07,1.78,1.61,2.66,2.64,2.63
361.87,0.56,-2.08,0.55,-2.09,2.09,1.79,1.64,2.64,2.63,2.63
365.49,0.53,-2.10,0.52,-2.11,2.11,1.80,1.67,2.64,2.63,2.63
369.14,0.49,-2.13,0.49,-2.13,2.13,1.82,1.70,2.62,2.62,2.62
372.83,0.46,-2.16,0.46,-2.16,2.16,1.83,1.73,2.61,2.61,2.62
376.56,0.42,-2.19,0.43,-2.18,2.18,1.85,1.76,2.60,2.61,2.60
380.33,0.39,-2.21,0.40,-2.20,2.20,1.86,1.80,2.58,2.60,2.60
384.13,0.36,-2.23,0.38,-2.21,2.21,1.88,1.83,2.57,2.59,2.59
387.97,0.34,-2.24,0.36,-2.22,2.22,1.89,1.87,2.56,2.58,2.58
391.85,0.32,-2.25,0.35,-2.23,2.23,1.91,1.91,2.55,2.58,2.57
395.77,0.31,-2.27,0.34,-2.23,2.23,1.92,1.95,2.54,2.57,2.57
399.73,0.30,-2.27,0.33,-2.23,2.23,1.94,1.98,2.53,2.56,2.56
403.72,0.31,-2.24,0.33,-2.23,2.23,1.95,2.02,2.54,2.55,2.55
407.76,0.32,-2.22,0.32,-2.23,2.23,1.97,2.06,2.54,2.55,2.54
411.84,0.34,-2.21,0.32,-2.22,2.22,1.98,2.10,2.56,2.54,2.55
415.96,0.35,-2.19,0.32,-2.22,2.22,2.00,2.14,2.57,2.54,2.54
420.12,0.35,-2.19,0.31,-2.22,2.22,2.01,2.18,2.57,2.53,2.54
424.32,0.33,-2.21,0.30,-2.23,2.23,2.03,2.22,2.55,2.53,2.54
428.56,0.32,-2.21,0.29,-2.24,2.24,2.04,2.26,2.55,2.53,2.52
432.85,0.30,-2.23,0.28,-2.25,2.25,2.06,2.30,2.55,2.53,2.52
437.18,0.27,-2.25,0.26,-2.27,2.27,2.07,2.34,2.54,2.53,2.52
441.55,0.24,-2.29,0.23,-2.29,2.29,2.09,2.38,2.53,2.52,2.53
445.96,0.21,-2.32,0.20,-2.32,2.32,2.11,2.42,2.53,2.53,2.53
450.42,0.17,-2.35,0.17,-2.36,2.36,2.12,2.45,2.52,2.53,2.52
454.93,0.14,-2.39,0.14,-2.39,2.39,2.14,2.49,2.53,2.53,2.53
459.48,0.10,-2.43,0.11,-2.43,2.43,2.15,2.52,2.52,2.53,2.53
464.07,0.08,-2.46,0.08,-2.46,2.46,2.17,2.55,2.53,2.54,2.54
468.71,0.05,-2.50,0.06,-2.49,2.49,2.18,2.58,2.53,2.54,2.55
473.40,0.01,-2.54,0.03,-2.51,2.51,2.20,2.61,2.52,2.55,2.54
478.13,-0.00,-2.56,0.02,-2.53,2.53,2.22,2.63,2.53,2.55,2.55
482.91,-0.02,-2.58,0.00,-2.55,2.55,2.23,2.65,2.53,2.56,2.55
487.74,-0.02,-2.59,-0.01,-2.57,2.57,2.25,2.67,2.55,2.56,2.56
492.62,-0.02,-2.59,-0.01,-2.58,2.58,2.26,2.69,2.56,2.57,2.57
497.55,-0.01,-2.58,-0.02,-2.59,2.59,2.28,2.70,2.58,2.57,2.57
502.52,-0.00,-2.58,-0.02,-2.59,2.59,2.29,2.71,2.59,2.58,2.58
507.55,-0.00,-2.58,-0.02,-2.60,2.60,2.31,2.72,2.59,2.58,2.58
512.62,-0.00,-2.58,-0.02,-2.60,2.60,2.32,2.73,2.59,2.58,2.58
517.75,-0.00,-2.59,-0.01,-2.60,2.60,2.34,2.73,2.59,2.58,2.59
