frequency,raw,error,smoothed,error_smoothed,equalization,parametric_eq,fixed_band_eq,equalized_raw,equalized_smoothed,target
20.00,3.13,-1.37,3.13,-1.37,1.37,1.03,0.42,4.50,4.50,4.50
20.20,3.12,-1.37,3.12,-1.37,1.37,1.03,0.43,4.49,4.49,4.49
20.40,3.11,-1.37,3.11,-1.37,1.36,1.04,0.45,4.47,4.48,4.48
20.61,3.11,-1.36,3.11,-1.36,1.36,1.04,0.46,4.47,4.47,4.47
20.81,3.11,-1.34,3.11,-1.34,1.35,1.04,0.48,4.46,4.46,4.45
21.02,3.12,-1.32,3.12,-1.33,1.33,1.05,0.50,4.45,4.45,4.44
21.23,3.12,-1.31,3.12,-1.31,1.32,1.05,0.51,4.44,4.44,4.43
21.44,3.13,-1.31,3.13,-1.30,1.30,1.05,0.53,4.43,4.43,4.44
21.66,3.14,-1.28,3.14,-1.29,1.28,1.05,0.55,4.42,4.42,4.42
21.87,3.15,-1.27,3.15,-1.26,1.26,1.06,0.57,4.41,4.41,4.42
22.09,3.17,-1.23,3.17,-1.23,1.23,1.06,0.59,4.40,4.40,4.40
22.31,3.19,-1.20,3.19,-1.20,1.20,1.06,0.61,4.39,4.39,4.39
22.54,3.21,-1.17,3.21,-1.17,1.17,1.06,0.63,4.38,4.38,4.38
22.76,3.24,-1.14,3.24,-1.13,1.13,1.06,0.65,4.37,4.37,4.38
22.99,3.27,-1.10,3.27,-1.10,1.10,1.07,0.67,4.37,4.37,4.37
23.22,3.31,-1.05,3.31,-1.06,1.06,1.07,0.69,4.37,4.37,4.36
23.45,3.34,-1.03,3.34,-1.02,1.03,1.07,0.71,4.37,4.37,4.37
23.69,3.37,-0.99,3.37,-0.99,0.99,1.07,0.73,4.36,4.36,4.36
23.92,3.39,-0.96,3.39,-0.97,0.96,1.07,0.76,4.35,4.36,4.35
24.16,3.42,-0.94,3.42,-0.94,0.94,1.07,0.78,4.36,4.36,4.36
24.40,3.44,-0.92,3.44,-0.92,0.91,1.07,0.80,4.36,4.36,4.36
24.65,3.46,-0.89,3.46,-0.90,0.90,1.07,0.83,4.36,4.36,4.35
24.89,3.47,-0.88,3.47,-0.88,0.89,1.07,0.85,4.36,4.36,4.35
25.14,3.47,-0.87,3.47,-0.87,0.88,1.07,0.88,4.35,4.35,4.34
25.39,3.47,-0.87,3.47,-0.87,0.88,1.07,0.90,4.35,4.35,4.34
25.65,3.46,-0.88,3.46,-0.88,0.88,1.07,0.93,4.34,4.34,4.34
25.91,3.46,-0.88,3.46,-0.89,0.88,1.07,0.95,4.34,4.34,4.34
26.16,3.45,-0.90,3.45,-0.89,0.88,1.07,0.98,4.33,4.34,4.35
26.43,3.45,-0.89,3.45,-0.89,0.89,1.06,1.00,4.34,4.34,4.34
26.69,3.45,-0.89,3.45,-0.89,0.89,1.06,1.02,4.34,4.34,4.34
26.96,3.45,-0.89,3.45,-0.89,0.89,1.06,1.05,4.34,4.34,4.34
27.23,3.45,-0.89,3.45,-0.89,0.89,1.06,1.07,4.34,4.34,4.34
27.50,3.45,-0.89,3.45,-0.89,0.89,1.06,1.09,4.34,4.34,4.34
27.77,3.45,-0.90,3.45,-0.89,0.90,1.05,1.11,4.35,4.35,4.35
28.05,3.45,-0.89,3.45,-0.90,0.90,1.05,1.13,4.35,4.35,4.34
28.33,3.45,-0.90,3.45,-0.90,0.90,1.05,1.15,4.35,4.35,4.35
28.62,3.45,-0.90,3.45,-0.90,0.90,1.04,1.17,4.35,4.35,4.35
28.90,3.45,-0.91,3.45,-0.91,0.90,1.04,1.19,4.35,4.35,4.36
29.19,3.45,-0.91,3.45,-0.91,0.90,1.04,1.20,4.35,4.35,4.36
29.48,3.45,-0.90,3.45,-0.91,0.90,1.03,1.21,4.35,4.35,4.35
29.78,3.45,-0.90,3.45,-0.90,0.90,1.03,1.22,4.35,4.35,4.35
30.08,3.45,-0.90,3.45,-0.89,0.90,1.02,1.23,4.35,4.35,4.35
30.38,3.45,-0.88,3.45,-0.89,0.89,1.02,1.24,4.34,4.34,4.33
30.68,3.45,-0.88,3.45,-0.88,0.89,1.01,1.25,4.34,4.34,4.33
30.99,3.45,-0.88,3.45,-0.88,0.88,1.01,1.25,4.33,4.33,4.33
31.30,3.45,-0.88,3.45,-0.87,0.87,1.00,1.25,4.32,4.32,4.33
31.61,3.45,-0.87,3.45,-0.87,0.86,1.00,1.25,4.32,4.31,4.32
31.93,3.45,-0.85,3.45,-0.86,0.86,0.99,1.25,4.31,4.31,4.30
32.24,3.45,-0.86,3.45,-0.85,0.85,0.98,1.24,4.30,4.30,4.31
32.57,3.46,-0.83,3.46,-0.84,0.83,0.98,1.23,4.30,4.29,4.29
32.89,3.46,-0.83,3.46,-0.83,0.82,0.97,1.22,4.28,4.29,4.29
33.22,3.47,-0.81,3.47,-0.81,0.81,0.96,1.21,4.28,4.28,4.28
33.55,3.47,-0.81,3.47,-0.81,0.81,0.95,1.20,4.28,4.28,4.28
33.89,3.47,-0.80,3.47,-0.80,0.80,0.95,1.18,4.28,4.27,4.27
34.23,3.46,-0.79,3.46,-0.80,0.81,0.94,1.17,4.27,4.27,4.25
34.57,3.44,-0.81,3.44,-0.80,0.81,0.93,1.15,4.25,4.26,4.25
34.92,3.42,-0.81,3.42,-0.82,0.82,0.92,1.13,4.24,4.25,4.23
35.27,3.40,-0.85,3.40,-0.84,0.84,0.91,1.11,4.24,4.23,4.25
35.62,3.37,-0.85,3.37,-0.86,0.85,0.90,1.09,4.22,4.22,4.22
35.97,3.34,-0.88,3.34,-0.88,0.87,0.89,1.07,4.21,4.21,4.22
36.33,3.31,-0.89,3.31,-0.89,0.89,0.88,1.04,4.20,4.20,4.20
36.70,3.28,-0.90,3.28,-0.90,0.90,0.87,1.02,4.18,4.18,4.18
37.06,3.25,-0.91,3.25,-0.91,0.92,0.86,0.99,4.17,4.17,4.16
37.43,3.21,-0.93,3.22,-0.93,0.93,0.85,0.97,4.14,4.15,4.14
37.81,3.19,-0.94,3.19,-0.94,0.94,0.84,0.94,4.13,4.12,4.13
38.19,3.16,-0.94,3.16,-0.94,0.94,0.83,0.92,4.10,4.10,4.10
38.57,3.14,-0.94,3.14,-0.95,0.94,0.82,0.89,4.08,4.08,4.08
38.95,3.12,-0.95,3.12,-0.94,0.94,0.80,0.87,4.06,4.06,4.07
39.34,3.11,-0.93,3.11,-0.93,0.92,0.79,0.84,4.03,4.03,4.04
39.74,3.10,-0.91,3.10,-0.91,0.91,0.78,0.82,4.01,4.01,4.01
40.14,3.10,-0.89,3.10,-0.89,0.88,0.77,0.79,3.99,3.99,3.99
40.54,3.11,-0.86,3.11,-0.86,0.86,0.75,0.77,3.97,3.97,3.97
40.94,3.12,-0.82,3.12,-0.83,0.83,0.74,0.74,3.95,3.95,3.94
41.35,3.13,-0.80,3.13,-0.80,0.80,0.72,0.72,3.93,3.93,3.93
41.76,3.14,-0.76,3.14,-0.77,0.77,0.71,0.69,3.91,3.91,3.90
42.18,3.14,-0.75,3.15,-0.74,0.74,0.70,0.67,3.88,3.88,3.89
42.60,3.15,-0.71,3.15,-0.71,0.71,0.68,0.65,3.86,3.86,3.86
43.03,3.15,-0.69,3.15,-0.69,0.69,0.66,0.63,3.84,3.84,3.84
43.46,3.14,-0.66,3.14,-0.66,0.67,0.65,0.60,3.81,3.82,3.80
43.90,3.13,-0.65,3.13,-0.65,0.66,0.63,0.58,3.79,3.79,3.78
44.33,3.11,-0.64,3.11,-0.64,0.65,0.62,0.56,3.76,3.76,3.75
44.78,3.09,-0.64,3.09,-0.64,0.64,0.60,0.54,3.73,3.73,3.73
45.23,3.06,-0.65,3.06,-0.64,0.64,0.58,0.52,3.70,3.70,3.71
45.68,3.03,-0.63,3.03,-0.64,0.63,0.57,0.50,3.66,3.66,3.66
46.13,3.00,-0.63,3.00,-0.63,0.63,0.55,0.48,3.63,3.63,3.63
46.60,2.97,-0.62,2.97,-0.62,0.62,0.53,0.47,3.59,3.59,3.59
47.06,2.94,-0.62,2.94,-0.62,0.62,0.51,0.45,3.56,3.56,3.56
47.53,2.91,-0.61,2.91,-0.61,0.61,0.49,0.43,3.52,3.52,3.52
48.01,2.88,-0.59,2.88,-0.59,0.59,0.48,0.41,3.48,3.47,3.47
48.49,2.85,-0.58,2.85,-0.58,0.58,0.46,0.40,3.43,3.43,3.43
48.97,2.83,-0.55,2.83,-0.56,0.56,0.44,0.38,3.39,3.39,3.38
49.46,2.81,-0.54,2.81,-0.53,0.53,0.42,0.36,3.34,3.34,3.35
49.96,2.79,-0.50,2.79,-0.51,0.50,0.40,0.35,3.29,3.29,3.29
50.46,2.78,-0.48,2.79,-0.47,0.46,0.38,0.33,3.24,3.25,3.26
50.96,2.79,-0.43,2.79,-0.43,0.42,0.35,0.32,3.21,3.21,3.22
51.47,2.80,-0.38,2.80,-0.38,0.38,0.33,0.30,3.18,3.18,3.18
51.99,2.81,-0.32,2.81,-0.33,0.33,0.31,0.29,3.14,3.15,3.13
52.51,2.82,-0.28,2.82,-0.28,0.29,0.29,0.27,3.11,3.11,3.10
53.03,2.82,-0.25,2.82,-0.24,0.25,0.27,0.26,3.07,3.07,3.07
53.56,2.81,-0.21,2.81,-0.21,0.22,0.25,0.24,3.03,3.03,3.02
54.10,2.79,-0.18,2.79,-0.18,0.19,0.22,0.23,2.98,2.98,2.97
54.64,2.77,-0.16,2.77,-0.16,0.17,0.20,0.22,2.94,2.94,2.93
55.18,2.74,-0.15,2.74,-0.15,0.15,0.18,0.20,2.89,2.89,2.89
55.74,2.71,-0.13,2.71,-0.14,0.13,0.15,0.19,2.85,2.85,2.84
56.29,2.68,-0.14,2.68,-0.13,0.12,0.13,0.17,2.80,2.81,2.82
56.86,2.66,-0.12,2.66,-0.12,0.11,0.10,0.16,2.77,2.77,2.78
57.42,2.63,-0.10,2.63,-0.10,0.10,0.08,0.14,2.73,2.74,2.73
58.00,2.61,-0.08,2.61,-0.09,0.10,0.05,0.12,2.71,2.70,2.69
58.58,2.58,-0.08,2.58,-0.08,0.09,0.03,0.11,2.67,2.67,2.66
59.16,2.55,-0.08,2.55,-0.07,0.07,0.00,0.09,2.62,2.62,2.63
59.76,2.52,-0.06,2.52,-0.06,0.06,-0.02,0.07,2.58,2.57,2.58
60.35,2.48,-0.05,2.48,-0.05,0.04,-0.05,0.05,2.52,2.52,2.53
60.96,2.45,-0.02,2.45,-0.02,0.01,-0.08,0.04,2.46,2.46,2.47
61.57,2.41,-0.00,2.42,0.01,-0.01,-0.10,0.02,2.40,2.40,2.41
62.18,2.39,0.04,2.39,0.04,-0.04,-0.13,-0.00,2.35,2.35,2.35
62.80,2.37,0.08,2.37,0.08,-0.07,-0.16,-0.02,2.30,2.30,2.29
63.43,2.35,0.11,2.35,0.11,-0.10,-0.19,-0.05,2.25,2.25,2.24
64.07,2.33,0.14,2.33,0.14,-0.13,-0.22,-0.07,2.20,2.20,2.19
64.71,2.30,0.16,2.30,0.16,-0.15,-0.25,-0.09,2.15,2.15,2.14
65.35,2.26,0.18,2.26,0.17,-0.17,-0.27,-0.11,2.10,2.09,2.08
66.01,2.21,0.18,2.21,0.18,-0.18,-0.30,-0.14,2.03,2.04,2.03
66.67,2.16,0.17,2.16,0.18,-0.18,-0.33,-0.16,1.98,1.98,1.99
67.33,2.12,0.20,2.12,0.19,-0.19,-0.36,-0.19,1.93,1.92,1.92
68.01,2.07,0.20,2.07,0.20,-0.20,-0.39,-0.22,1.87,1.87,1.87
68.69,2.03,0.21,2.03,0.21,-0.22,-0.42,-0.24,1.82,1.81,1.82
69.37,1.99,0.22,1.99,0.22,-0.23,-0.45,-0.27,1.76,1.75,1.77
70.07,1.95,0.24,1.96,0.25,-0.26,-0.48,-0.30,1.69,1.70,1.71
70.77,1.93,0.29,1.93,0.28,-0.28,-0.52,-0.33,1.65,1.65,1.64
71.48,1.91,0.32,1.91,0.32,-0.32,-0.55,-0.36,1.59,1.59,1.59
72.19,1.89,0.36,1.89,0.36,-0.35,-0.58,-0.39,1.54,1.54,1.53
72.91,1.86,0.40,1.86,0.40,-0.39,-0.61,-0.42,1.47,1.47,1.46
73.64,1.84,0.43,1.84,0.43,-0.43,-0.64,-0.45,1.41,1.41,1.41
74.38,1.82,0.47,1.82,0.47,-0.47,-0.68,-0.49,1.35,1.35,1.35
75.12,1.81,0.51,1.81,0.51,-0.52,-0.71,-0.52,1.29,1.29,1.30
75.87,1.81,0.56,1.81,0.56,-0.57,-0.74,-0.56,1.24,1.24,1.25
76.63,1.81,0.62,1.81,0.61,-0.62,-0.78,-0.59,1.19,1.19,1.19
77.40,1.81,0.66,1.81,0.67,-0.67,-0.81,-0.63,1.14,1.15,1.15
78.17,1.82,0.73,1.82,0.72,-0.72,-0.84,-0.67,1.10,1.10,1.09
78.95,1.83,0.78,1.83,0.78,-0.77,-0.88,-0.70,1.06,1.05,1.05
79.74,1.83,0.83,1.83,0.83,-0.83,-0.91,-0.74,1.00,1.01,1.00
80.54,1.83,0.88,1.83,0.88,-0.88,-0.95,-0.78,0.95,0.95,0.95
81.35,1.83,0.94,1.83,0.93,-0.93,-0.98,-0.82,0.90,0.90,0.89
82.16,1.83,0.97,1.83,0.98,-0.98,-1.01,-0.86,0.85,0.85,0.86
82.98,1.83,1.03,1.83,1.03,-1.03,-1.05,-0.90,0.80,0.80,0.80
83.81,1.83,1.08,1.83,1.08,-1.09,-1.09,-0.95,0.74,0.74,0.75
84.65,1.83,1.14,1.83,1.14,-1.14,-1.12,-0.99,0.69,0.69,0.69
85.50,1.83,1.20,1.83,1.20,-1.19,-1.16,-1.03,0.64,0.64,0.63
86.35,1.83,1.25,1.83,1.25,-1.25,-1.19,-1.08,0.58,0.58,0.58
87.22,1.83,1.30,1.83,1.30,-1.30,-1.23,-1.12,0.53,0.53,0.53
88.09,1.83,1.36,1.83,1.36,-1.36,-1.26,-1.17,0.47,0.47,0.47
88.97,1.83,1.42,1.83,1.41,-1.42,-1.30,-1.22,0.41,0.41,0.41
89.86,1.83,1.47,1.83,1.47,-1.47,-1.34,-1.27,0.36,0.36,0.36
90.76,1.83,1.53,1.83,1.53,-1.53,-1.37,-1.32,0.30,0.30,0.30
91.66,1.83,1.60,1.83,1.59,-1.59,-1.41,-1.37,0.24,0.24,0.23
92.58,1.83,1.65,1.83,1.65,-1.65,-1.45,-1.42,0.18,0.18,0.18
93.51,1.83,1.70,1.83,1.71,-1.72,-1.48,-1.47,0.11,0.12,0.13
94.44,1.84,1.77,1.84,1.77,-1.78,-1.52,-1.52,0.06,0.05,0.07
95.39,1.84,1.84,1.84,1.84,-1.85,-1.56,-1.58,-0.01,-0.00,0.00
96.34,1.85,1.92,1.85,1.92,-1.91,-1.59,-1.63,-0.06,-0.06,-0.07
97.30,1.85,1.98,1.85,1.98,-1.97,-1.63,-1.69,-0.12,-0.12,-0.13
98.28,1.85,2.05,1.85,2.04,-2.03,-1.67,-1.74,-0.18,-0.18,-0.20
99.26,1.83,2.09,1.84,2.09,-2.08,-1.71,-1.80,-0.25,-0.25,-0.26
100.25,1.82,2.14,1.82,2.14,-2.13,-1.74,-1.85,-0.31,-0.31,-0.32
101.25,1.80,2.17,1.80,2.17,-2.18,-1.78,-1.91,-0.37,-0.38,-0.37
102.27,1.77,2.20,1.78,2.21,-2.21,-1.82,-1.97,-0.44,-0.44,-0.43
103.29,1.75,2.24,1.75,2.24,-2.24,-1.86,-2.03,-0.49,-0.49,-0.49
104.32,1.73,2.27,1.73,2.27,-2.27,-1.89,-2.08,-0.54,-0.54,-0.54
105.37,1.70,2.30,1.70,2.30,-2.29,-1.93,-2.14,-0.59,-0.59,-0.60
106.42,1.67,2.32,1.67,2.32,-2.31,-1.97,-2.20,-0.64,-0.64,-0.65
107.48,1.63,2.34,1.63,2.34,-2.33,-2.01,-2.25,-0.70,-0.70,-0.71
108.56,1.59,2.35,1.59,2.35,-2.35,-2.04,-2.31,-0.76,-0.76,-0.76
109.64,1.54,2.36,1.54,2.36,-2.36,-2.08,-2.36,-0.82,-0.82,-0.82
110.74,1.49,2.37,1.49,2.37,-2.38,-2.12,-2.42,-0.89,-0.88,-0.88
111.85,1.45,2.39,1.45,2.38,-2.40,-2.16,-2.47,-0.95,-0.95,-0.94
112.97,1.41,2.40,1.41,2.40,-2.42,-2.19,-2.52,-1.01,-1.01,-0.99
114.10,1.37,2.42,1.37,2.43,-2.44,-2.23,-2.57,-1.07,-1.07,-1.05
115.24,1.34,2.47,1.34,2.46,-2.47,-2.27,-2.61,-1.13,-1.13,-1.13
116.39,1.31,2.50,1.31,2.50,-2.49,-2.31,-2.66,-1.18,-1.18,-1.19
117.55,1.28,2.53,1.28,2.53,-2.51,-2.34,-2.70,-1.23,-1.23,-1.25
118.73,1.25,2.56,1.25,2.55,-2.53,-2.38,-2.74,-1.28,-1.29,-1.31
119.92,1.21,2.56,1.21,2.56,-2.55,-2.42,-2.78,-1.34,-1.34,-1.35
121.12,1.17,2.57,1.17,2.57,-2.57,-2.45,-2.81,-1.40,-1.40,-1.40
122.33,1.12,2.58,1.13,2.58,-2.59,-2.49,-2.84,-1.47,-1.47,-1.46
123.55,1.09,2.60,1.09,2.60,-2.61,-2.53,-2.87,-1.52,-1.53,-1.51
124.79,1.05,2.61,1.06,2.62,-2.63,-2.56,-2.90,-1.58,-1.58,-1.56
126.03,1.03,2.65,1.03,2.65,-2.65,-2.60,-2.92,-1.62,-1.62,-1.62
127.29,1.01,2.68,1.01,2.68,-2.68,-2.63,-2.94,-1.67,-1.67,-1.67
128.57,0.98,2.72,0.98,2.72,-2.70,-2.67,-2.96,-1.72,-1.72,-1.74
129.85,0.95,2.74,0.95,2.74,-2.72,-2.70,-2.97,-1.77,-1.78,-1.79
131.15,0.91,2.76,0.91,2.76,-2.75,-2.74,-2.98,-1.84,-1.84,-1.85
132.46,0.86,2.76,0.86,2.77,-2.77,-2.77,-2.99,-1.91,-1.90,-1.90
133.79,0.82,2.78,0.82,2.78,-2.79,-2.81,-3.00,-1.96,-1.96,-1.96
135.12,0.78,2.79,0.78,2.79,-2.80,-2.84,-3.00,-2.02,-2.02,-2.01
136.48,0.75,2.81,0.75,2.81,-2.82,-2.88,-3.00,-2.07,-2.07,-2.06
137.84,0.72,2.83,0.72,2.83,-2.84,-2.91,-3.00,-2.12,-2.12,-2.11
139.22,0.69,2.86,0.69,2.85,-2.85,-2.95,-3.00,-2.16,-2.16,-2.17
140.61,0.66,2.87,0.66,2.88,-2.87,-2.98,-3.00,-2.21,-2.21,-2.21
142.02,0.63,2.90,0.63,2.89,-2.88,-3.01,-3.00,-2.25,-2.25,-2.27
143.44,0.60,2.91,0.59,2.90,-2.89,-3.04,-3.00,-2.29,-2.30,-2.31
144.87,0.55,2.90,0.56,2.91,-2.90,-3.08,-2.99,-2.35,-2.35,-2.35
146.32,0.51,2.91,0.51,2.91,-2.91,-3.11,-2.99,-2.40,-2.40,-2.40
147.78,0.47,2.91,0.47,2.91,-2.91,-3.14,-2.99,-2.44,-2.44,-2.44
149.26,0.42,2.91,0.43,2.91,-2.92,-3.17,-2.99,-2.50,-2.49,-2.49
150.75,0.39,2.92,0.39,2.92,-2.92,-3.20,-2.98,-2.53,-2.54,-2.53
152.26,0.35,2.92,0.35,2.92,-2.93,-3.23,-2.98,-2.58,-2.58,-2.57
153.78,0.33,2.94,0.33,2.94,-2.94,-3.26,-2.98,-2.61,-2.61,-2.61
155.32,0.31,2.96,0.31,2.96,-2.96,-3.29,-2.98,-2.65,-2.65,-2.65
156.88,0.29,2.99,0.29,2.99,-2.98,-3.32,-2.99,-2.69,-2.69,-2.70
158.44,0.26,3.01,0.26,3.01,-3.00,-3.35,-2.99,-2.74,-2.74,-2.75
160.03,0.24,3.03,0.24,3.03,-3.03,-3.38,-3.00,-2.79,-2.79,-2.79
161.63,0.22,3.05,0.22,3.05,-3.06,-3.41,-3.00,-2.84,-2.84,-2.83
163.24,0.20,3.08,0.20,3.08,-3.09,-3.44,-3.01,-2.89,-2.89,-2.88
164.88,0.19,3.12,0.19,3.12,-3.13,-3.46,-3.03,-2.94,-2.94,-2.93
166.53,0.19,3.17,0.19,3.16,-3.17,-3.49,-3.04,-2.98,-2.98,-2.98
168.19,0.19,3.20,0.19,3.21,-3.21,-3.52,-3.06,-3.02,-3.02,-3.01
169.87,0.20,3.27,0.20,3.26,-3.26,-3.54,-3.08,-3.06,-3.06,-3.07
171.57,0.20,3.32,0.20,3.32,-3.31,-3.57,-3.10,-3.11,-3.11,-3.12
173.29,0.21,3.37,0.21,3.37,-3.37,-3.59,-3.12,-3.15,-3.16,-3.16
175.02,0.21,3.42,0.21,3.42,-3.42,-3.61,-3.15,-3.21,-3.21,-3.21
176.77,0.21,3.47,0.21,3.47,-3.47,-3.64,-3.17,-3.26,-3.25,-3.26
178.54,0.21,3.51,0.21,3.52,-3.52,-3.66,-3.20,-3.30,-3.30,-3.30
180.32,0.21,3.57,0.21,3.56,-3.56,-3.68,-3.24,-3.35,-3.35,-3.36
182.13,0.21,3.60,0.21,3.61,-3.61,-3.71,-3.27,-3.40,-3.40,-3.39
183.95,0.21,3.65,0.21,3.65,-3.65,-3.73,-3.31,-3.44,-3.44,-3.44
185.79,0.21,3.70,0.21,3.70,-3.69,-3.75,-3.35,-3.48,-3.48,-3.49
187.65,0.21,3.74,0.21,3.74,-3.74,-3.77,-3.39,-3.53,-3.53,-3.53
189.52,0.21,3.78,0.21,3.78,-3.78,-3.79,-3.44,-3.57,-3.57,-3.57
191.42,0.21,3.82,0.21,3.82,-3.83,-3.81,-3.49,-3.62,-3.62,-3.61
193.33,0.21,3.86,0.21,3.86,-3.87,-3.83,-3.53,-3.66,-3.66,-3.65
195.27,0.21,3.91,0.21,3.91,-3.92,-3.84,-3.59,-3.71,-3.71,-3.70
197.22,0.22,3.97,0.22,3.96,-3.96,-3.86,-3.64,-3.74,-3.74,-3.75
199.19,0.23,4.01,0.23,4.01,-4.00,-3.88,-3.69,-3.77,-3.77,-3.78
201.18,0.23,4.05,0.23,4.05,-4.04,-3.89,-3.75,-3.81,-3.81,-3.82
203.19,0.23,4.08,0.23,4.07,-4.07,-3.91,-3.80,-3.84,-3.84,-3.85
205.23,0.22,4.09,0.22,4.10,-4.09,-3.92,-3.86,-3.87,-3.87,-3.87
207.28,0.21,4.11,0.21,4.11,-4.11,-3.94,-3.92,-3.90,-3.90,-3.90
209.35,0.19,4.13,0.19,4.12,-4.12,-3.95,-3.98,-3.93,-3.94,-3.94
211.44,0.16,4.13,0.17,4.13,-4.13,-3.96,-4.04,-3.97,-3.97,-3.97
213.56,0.14,4.13,0.14,4.13,-4.13,-3.97,-4.10,-3.99,-4.00,-3.99
215.69,0.11,4.13,0.11,4.13,-4.13,-3.99,-4.15,-4.02,-4.02,-4.02
217.85,0.08,4.13,0.08,4.13,-4.13,-4.00,-4.21,-4.05,-4.05,-4.05
220.03,0.05,4.13,0.05,4.13,-4.13,-4.01,-4.27,-4.07,-4.08,-4.08
222.23,0.02,4.13,0.02,4.12,-4.12,-4.02,-4.32,-4.10,-4.10,-4.11
224.45,-0.02,4.10,-0.01,4.11,-4.11,-4.02,-4.37,-4.13,-4.12,-4.12
226.70,-0.04,4.11,-0.04,4.10,-4.10,-4.03,-4.42,-4.14,-4.15,-4.15
228.96,-0.07,4.09,-0.07,4.09,-4.10,-4.04,-4.46,-4.17,-4.16,-4.16
231.25,-0.09,4.09,-0.09,4.09,-4.09,-4.05,-4.50,-4.18,-4.18,-4.18
233.57,-0.11,4.09,-0.11,4.09,-4.09,-4.05,-4.54,-4.20,-4.20,-4.20
235.90,-0.13,4.08,-0.13,4.09,-4.09,-4.06,-4.57,-4.22,-4.22,-4.21
238.26,-0.14,4.10,-0.14,4.09,-4.10,-4.06,-4.60,-4.24,-4.24,-4.24
240.64,-0.14,4.09,-0.14,4.10,-4.11,-4.07,-4.62,-4.25,-4.25,-4.23
243.05,-0.14,4.11,-0.13,4.12,-4.12,-4.07,-4.64,-4.26,-4.26,-4.25
245.48,-0.12,4.14,-0.12,4.13,-4.14,-4.07,-4.65,-4.26,-4.26,-4.26
247.93,-0.11,4.16,-0.11,4.15,-4.15,-4.07,-4.66,-4.26,-4.26,-4.27
250.41,-0.10,4.16,-0.10,4.17,-4.16,-4.08,-4.66,-4.26,-4.26,-4.26
252.92,-0.09,4.18,-0.09,4.18,-4.17,-4.08,-4.65,-4.26,-4.26,-4.27
255.45,-0.09,4.19,-0.09,4.18,-4.17,-4.08,-4.64,-4.26,-4.27,-4.28
258.00,-0.10,4.18,-0.10,4.18,-4.17,-4.07,-4.63,-4.27,-4.27,-4.28
260.58,-0.12,4.16,-0.12,4.16,-4.16,-4.07,-4.60,-4.28,-4.28,-4.28
263.19,-0.14,4.14,-0.14,4.15,-4.15,-4.07,-4.58,-4.29,-4.29,-4.28
265.82,-0.16,4.13,-0.16,4.13,-4.13,-4.07,-4.54,-4.29,-4.29,-4.29
268.48,-0.18,4.11,-0.18,4.11,-4.11,-4.07,-4.50,-4.29,-4.29,-4.29
271.16,-0.21,4.08,-0.21,4.08,-4.08,-4.06,-4.46,-4.29,-4.29,-4.29
273.87,-0.24,4.05,-0.24,4.05,-4.05,-4.06,-4.42,-4.29,-4.29,-4.29
276.61,-0.27,4.02,-0.27,4.02,-4.02,-4.05,-4.37,-4.29,-4.30,-4.29
279.38,-0.31,4.00,-0.31,4.00,-3.99,-4.04,-4.31,-4.30,-4.30,-4.31
282.17,-0.34,3.97,-0.34,3.97,-3.96,-4.04,-4.26,-4.30,-4.30,-4.31
284.99,-0.37,3.93,-0.37,3.93,-3.93,-4.03,-4.20,-4.30,-4.30,-4.30
287.84,-0.39,3.90,-0.39,3.90,-3.90,-4.02,-4.14,-4.29,-4.30,-4.29
290.72,-0.42,3.88,-0.42,3.87,-3.88,-4.01,-4.08,-4.30,-4.29,-4.30
293.63,-0.44,3.85,-0.44,3.85,-3.86,-4.01,-4.02,-4.29,-4.29,-4.29
296.57,-0.45,3.83,-0.45,3.83,-3.84,-4.00,-3.96,-4.29,-4.29,-4.28
299.53,-0.46,3.82,-0.46,3.82,-3.82,-3.99,-3.89,-4.28,-4.28,-4.28
302.53,-0.46,3.80,-0.46,3.81,-3.82,-3.97,-3.83,-4.27,-4.28,-4.26
305.55,-0.46,3.81,-0.46,3.81,-3.81,-3.96,-3.77,-4.27,-4.27,-4.27
308.61,-0.45,3.81,-0.45,3.81,-3.81,-3.95,-3.71,-4.25,-4.25,-4.26
311.69,-0.44,3.81,-0.44,3.81,-3.80,-3.94,-3.64,-4.24,-4.25,-4.25
314.81,-0.44,3.81,-0.44,3.81,-3.80,-3.93,-3.58,-4.24,-4.24,-4.25
317.96,-0.44,3.80,-0.44,3.80,-3.80,-3.91,-3.52,-4.24,-4.23,-4.24
321.14,-0.44,3.79,-0.44,3.79,-3.79,-3.90,-3.47,-4.23,-4.23,-4.23
324.35,-0.44,3.79,-0.44,3.78,-3.78,-3.88,-3.41,-4.22,-4.22,-4.23
327.59,-0.44,3.76,-0.44,3.77,-3.78,-3.87,-3.36,-4.22,-4.22,-4.20
330.87,-0.44,3.77,-0.44,3.77,-3.77,-3.85,-3.31,-4.21,-4.21,-4.21
334.18,-0.44,3.76,-0.44,3.76,-3.76,-3.83,-3.26,-4.20,-4.20,-4.20
337.52,-0.44,3.76,-0.44,3.75,-3.75,-3.82,-3.21,-4.19,-4.19,-4.20
340.90,-0.44,3.74,-0.44,3.74,-3.75,-3.80,-3.16,-4.19,-4.19,-4.18
344.30,-0.44,3.73,-0.44,3.74,-3.74,-3.78,-3.12,-4.18,-4.18,-4.17
347.75,-0.44,3.73,-0.44,3.73,-3.74,-3.76,-3.08,-4.18,-4.17,-4.17
351.23,-0.43,3.74,-0.43,3.73,-3.73,-3.75,-3.04,-4.16,-4.16,-4.17
354.74,-0.42,3.72,-0.42,3.73,-3.73,-3.73,-3.00,-4.15,-4.15,-4.14
358.28,-0.42,3.73,-0.42,3.73,-3.72,-3.71,-2.97,-4.14,-4.14,-4.15
361.87,-0.42,3.72,-0.42,3.71,-3.71,-3.69,-2.93,-4.13,-4.13,-4.14
365.49,-0.43,3.70,-0.43,3.70,-3.69,-3.67,-2.90,-4.12,-4.12,-4.13
369.14,-0.45,3.66,-0.45,3.67,-3.67,-3.65,-2.88,-4.12,-4.12,-4.11
372.83,-0.47,3.64,-0.47,3.64,-3.64,-3.63,-2.85,-4.11,-4.11,-4.11
376.56,-0.49,3.62,-0.49,3.61,-3.61,-3.60,-2.83,-4.10,-4.10,-4.11
380.33,-0.52,3.58,-0.52,3.58,-3.58,-3.58,-2.81,-4.10,-4.10,-4.10
384.13,-0.55,3.53,-0.55,3.54,-3.54,-3.56,-2.79,-4.09,-4.09,-4.08
387.97,-0.58,3.50,-0.58,3.50,-3.50,-3.54,-2.77,-4.08,-4.08,-4.08
391.85,-0.61,3.46,-0.61,3.46,-3.46,-3.52,-2.76,-4.07,-4.07,-4.07
395.77,-0.64,3.42,-0.64,3.42,-3.41,-3.49,-2.74,-4.05,-4.05,-4.06
399.73,-0.67,3.38,-0.67,3.37,-3.37,-3.47,-2.73,-4.04,-4.04,-4.05
403.72,-0.70,3.32,-0.70,3.33,-3.33,-3.44,-2.72,-4.03,-4.03,-4.02
407.76,-0.73,3.30,-0.73,3.29,-3.30,-3.42,-2.71,-4.03,-4.03,-4.03
411.84,-0.75,3.27,-0.75,3.26,-3.27,-3.40,-2.71,-4.02,-4.02,-4.02
415.96,-0.77,3.23,-0.77,3.24,-3.25,-3.37,-2.70,-4.02,-4.02,-4.00
420.12,-0.78,3.22,-0.77,3.22,-3.23,-3.35,-2.70,-4.01,-4.01,-4.00
424.32,-0.77,3.22,-0.77,3.21,-3.22,-3.32,-2.70,-3.99,-4.00,-3.99
428.56,-0.77,3.20,-0.77,3.21,-3.21,-3.30,-2.70,-3.98,-3.98,-3.97
432.85,-0.76,3.20,-0.76,3.21,-3.20,-3.27,-2.70,-3.96,-3.96,-3.96
437.18,-0.75,3.22,-0.76,3.21,-3.19,-3.25,-2.70,-3.94,-3.95,-3.97
441.55,-0.76,3.20,-0.76,3.20,-3.18,-3.22,-2.70,-3.94,-3.94,-3.96
445.96,-0.78,3.17,-0.78,3.18,-3.16,-3.20,-2.70,-3.94,-3.94,-3.95
450.42,-0.80,3.14,-0.80,3.14,-3.14,-3.17,-2.70,-3.94,-3.93,-3.94
454.93,-0.82,3.11,-0.82,3.11,-3.11,-3.14,-2.70,-3.93,-3.93,-3.93
459.48,-0.85,3.07,-0.85,3.07,-3.07,-3.12,-2.71,-3.92,-3.92,-3.92
464.07,-0.88,3.02,-0.88,3.02,-3.03,-3.09,-2.71,-3.91,-3.91,-3.90
468.71,-0.91,2.98,-0.91,2.98,-2.99,-3.06,-2.71,-3.90,-3.90,-3.89
473.40,-0.94,2.95,-0.94,2.95,-2.95,-3.04,-2.71,-3.89,-3.89,-3.89
478.13,-0.97,2.91,-0.97,2.91,-2.91,-3.01,-2.71,-3.88,-3.88,-3.88
482.91,-1.00,2.87,-1.00,2.87,-2.87,-2.98,-2.72,-3.87,-3.87,-3.87
487.74,-1.03,2.83,-1.03,2.83,-2.83,-2.96,-2.72,-3.86,-3.86,-3.86
492.62,-1.06,2.79,-1.06,2.79,-2.79,-2.93,-2.72,-3.85,-3.85,-3.85
497.55,-1.08,2.76,-1.08,2.76,-2.76,-2.90,-2.72,-3.84,-3.84,-3.84
