frequency,raw,error,smoothed,error_smoothed,equalization,parametric_eq,fixed_band_eq,equalized_raw,equalized_smoothed,target
20.00,5.97,-0.69,5.97,-0.70,0.70,0.83,0.62,6.67,6.66,6.66
20.20,5.92,-0.73,5.92,-0.73,0.73,0.84,0.64,6.65,6.65,6.65
20.40,5.87,-0.77,5.87,-0.77,0.77,0.85,0.66,6.63,6.64,6.64
20.61,5.83,-0.80,5.83,-0.80,0.80,0.87,0.68,6.63,6.63,6.63
20.81,5.79,-0.82,5.79,-0.83,0.83,0.88,0.70,6.61,6.62,6.61
21.02,5.76,-0.84,5.75,-0.85,0.85,0.89,0.72,6.61,6.60,6.60
21.23,5.72,-0.87,5.72,-0.87,0.87,0.90,0.74,6.59,6.59,6.59
21.44,5.69,-0.91,5.69,-0.90,0.90,0.91,0.76,6.58,6.58,6.60
21.66,5.67,-0.91,5.66,-0.91,0.91,0.92,0.78,6.58,6.57,6.58
21.87,5.64,-0.94,5.63,-0.93,0.93,0.93,0.80,6.57,6.57,6.57
22.09,5.62,-0.94,5.61,-0.95,0.95,0.94,0.83,6.56,6.56,6.55
22.31,5.60,-0.96,5.59,-0.96,0.96,0.96,0.85,6.56,6.55,6.55
22.54,5.57,-0.97,5.58,-0.96,0.96,0.97,0.88,6.53,6.54,6.54
22.76,5.55,-0.99,5.57,-0.97,0.97,0.98,0.90,6.52,6.54,6.54
22.99,5.54,-0.99,5.56,-0.97,0.97,0.99,0.93,6.51,6.53,6.53
23.22,5.53,-0.99,5.56,-0.97,0.97,1.01,0.95,6.50,6.53,6.52
23.45,5.53,-1.00,5.55,-0.97,0.97,1.02,0.98,6.50,6.52,6.53
23.69,5.54,-0.98,5.55,-0.97,0.97,1.03,1.01,6.51,6.52,6.52
23.92,5.56,-0.95,5.54,-0.97,0.97,1.04,1.04,6.53,6.51,6.50
24.16,5.57,-0.94,5.54,-0.97,0.97,1.06,1.06,6.54,6.51,6.51
24.40,5.56,-0.95,5.53,-0.97,0.97,1.07,1.09,6.53,6.51,6.51
24.65,5.55,-0.96,5.52,-0.98,0.98,1.08,1.12,6.53,6.50,6.51
24.89,5.54,-0.97,5.51,-0.99,0.99,1.10,1.15,6.53,6.50,6.51
25.14,5.51,-0.99,5.50,-1.00,1.00,1.11,1.18,6.51,6.50,6.50
25.39,5.49,-1.01,5.48,-1.02,1.02,1.12,1.21,6.51,6.50,6.49
25.65,5.46,-1.03,5.45,-1.04,1.04,1.14,1.24,6.50,6.50,6.49
25.91,5.43,-1.06,5.43,-1.07,1.07,1.15,1.27,6.50,6.49,6.49
26.16,5.40,-1.10,5.40,-1.10,1.10,1.17,1.30,6.49,6.49,6.50
26.43,5.37,-1.13,5.37,-1.13,1.13,1.18,1.33,6.49,6.49,6.50
26.69,5.34,-1.16,5.34,-1.15,1.15,1.19,1.36,6.49,6.49,6.49
26.96,5.31,-1.18,5.31,-1.18,1.18,1.21,1.39,6.49,6.49,6.49
27.23,5.28,-1.21,5.29,-1.20,1.20,1.22,1.42,6.48,6.49,6.49
27.50,5.25,-1.24,5.27,-1.22,1.22,1.24,1.44,6.47,6.49,6.49
27.77,5.23,-1.27,5.26,-1.24,1.24,1.25,1.47,6.47,6.50,6.49
28.05,5.22,-1.27,5.25,-1.25,1.25,1.27,1.50,6.47,6.50,6.49
28.33,5.21,-1.29,5.24,-1.26,1.26,1.28,1.52,6.47,6.50,6.50
28.62,5.22,-1.28,5.23,-1.27,1.27,1.30,1.54,6.49,6.50,6.50
28.90,5.22,-1.29,5.22,-1.28,1.28,1.31,1.57,6.50,6.50,6.50
29.19,5.23,-1.27,5.21,-1.28,1.28,1.32,1.58,6.51,6.49,6.50
29.48,5.23,-1.27,5.20,-1.29,1.29,1.34,1.60,6.52,6.49,6.50
29.78,5.22,-1.28,5.19,-1.30,1.30,1.35,1.62,6.52,6.49,6.49
30.08,5.21,-1.28,5.18,-1.31,1.31,1.37,1.63,6.52,6.49,6.49
30.38,5.18,-1.30,5.16,-1.32,1.32,1.38,1.65,6.50,6.48,6.48
30.68,5.16,-1.31,5.14,-1.33,1.33,1.40,1.66,6.49,6.48,6.47
30.99,5.13,-1.34,5.12,-1.35,1.35,1.41,1.66,6.48,6.47,6.47
31.30,5.10,-1.37,5.10,-1.36,1.36,1.42,1.67,6.46,6.46,6.46
31.61,5.07,-1.39,5.08,-1.38,1.38,1.44,1.67,6.45,6.46,6.46
31.93,5.04,-1.40,5.05,-1.40,1.40,1.45,1.68,6.44,6.45,6.44
32.24,5.00,-1.44,5.02,-1.42,1.42,1.46,1.68,6.41,6.44,6.44
32.57,4.98,-1.45,5.00,-1.43,1.43,1.48,1.67,6.41,6.43,6.43
32.89,4.96,-1.46,4.97,-1.45,1.45,1.49,1.67,6.41,6.42,6.42
33.22,4.95,-1.47,4.95,-1.47,1.47,1.50,1.67,6.41,6.42,6.42
33.55,4.93,-1.48,4.93,-1.48,1.48,1.52,1.66,6.41,6.41,6.41
33.89,4.91,-1.49,4.90,-1.49,1.49,1.53,1.65,6.40,6.40,6.40
34.23,4.89,-1.49,4.88,-1.51,1.51,1.54,1.64,6.39,6.39,6.38
34.57,4.87,-1.51,4.86,-1.52,1.52,1.55,1.63,6.38,6.38,6.37
34.92,4.85,-1.51,4.84,-1.53,1.53,1.56,1.61,6.37,6.37,6.36
35.27,4.83,-1.54,4.82,-1.53,1.53,1.57,1.60,6.36,6.36,6.37
35.62,4.81,-1.54,4.80,-1.54,1.54,1.58,1.59,6.35,6.34,6.35
35.97,4.79,-1.55,4.78,-1.55,1.55,1.59,1.57,6.34,6.33,6.34
36.33,4.76,-1.56,4.75,-1.56,1.56,1.60,1.56,6.32,6.31,6.32
36.70,4.72,-1.58,4.73,-1.57,1.57,1.61,1.54,6.28,6.30,6.29
37.06,4.70,-1.58,4.70,-1.57,1.57,1.62,1.52,6.27,6.28,6.28
37.43,4.68,-1.58,4.68,-1.58,1.58,1.63,1.51,6.26,6.26,6.26
37.81,4.66,-1.58,4.65,-1.58,1.58,1.64,1.49,6.24,6.24,6.24
38.19,4.63,-1.58,4.63,-1.59,1.59,1.64,1.48,6.21,6.22,6.21
38.57,4.61,-1.58,4.61,-1.59,1.59,1.65,1.46,6.19,6.19,6.19
38.95,4.58,-1.59,4.58,-1.58,1.58,1.66,1.45,6.16,6.17,6.17
39.34,4.55,-1.59,4.56,-1.58,1.58,1.66,1.43,6.13,6.14,6.14
39.74,4.52,-1.59,4.54,-1.58,1.58,1.67,1.42,6.10,6.12,6.11
40.14,4.50,-1.59,4.51,-1.58,1.58,1.67,1.41,6.08,6.09,6.09
40.54,4.48,-1.59,4.48,-1.59,1.59,1.67,1.39,6.06,6.07,6.07
40.94,4.47,-1.57,4.45,-1.59,1.59,1.68,1.38,6.06,6.05,6.04
41.35,4.45,-1.57,4.42,-1.60,1.60,1.68,1.37,6.05,6.02,6.02
41.76,4.42,-1.57,4.39,-1.61,1.61,1.68,1.36,6.02,5.99,5.99
42.18,4.38,-1.60,4.35,-1.61,1.61,1.68,1.35,5.99,5.97,5.97
42.60,4.34,-1.60,4.32,-1.62,1.62,1.68,1.34,5.96,5.94,5.94
43.03,4.29,-1.63,4.29,-1.63,1.63,1.68,1.34,5.92,5.91,5.92
43.46,4.25,-1.64,4.25,-1.64,1.64,1.68,1.33,5.88,5.89,5.88
43.90,4.20,-1.66,4.21,-1.64,1.64,1.68,1.33,5.84,5.86,5.86
44.33,4.15,-1.68,4.18,-1.65,1.65,1.67,1.32,5.80,5.83,5.82
44.78,4.12,-1.68,4.14,-1.66,1.66,1.67,1.32,5.77,5.79,5.80
45.23,4.08,-1.69,4.10,-1.66,1.66,1.67,1.32,5.74,5.76,5.77
45.68,4.06,-1.67,4.07,-1.66,1.66,1.66,1.32,5.72,5.72,5.72
46.13,4.04,-1.65,4.03,-1.65,1.65,1.66,1.32,5.69,5.69,5.69
46.60,4.02,-1.63,4.00,-1.65,1.65,1.65,1.32,5.66,5.65,5.65
47.06,3.99,-1.62,3.97,-1.63,1.63,1.64,1.32,5.62,5.60,5.61
47.53,3.95,-1.62,3.94,-1.62,1.62,1.63,1.33,5.56,5.56,5.57
48.01,3.91,-1.60,3.92,-1.60,1.60,1.63,1.33,5.51,5.52,5.51
48.49,3.88,-1.59,3.89,-1.58,1.58,1.62,1.33,5.46,5.47,5.47
48.97,3.85,-1.57,3.86,-1.57,1.57,1.61,1.34,5.42,5.43,5.42
49.46,3.82,-1.56,3.83,-1.55,1.55,1.60,1.35,5.37,5.38,5.38
49.96,3.80,-1.52,3.79,-1.54,1.54,1.59,1.35,5.34,5.33,5.32
50.46,3.78,-1.50,3.76,-1.53,1.53,1.58,1.36,5.31,5.28,5.28
50.96,3.74,-1.50,3.72,-1.52,1.52,1.56,1.37,5.26,5.24,5.24
51.47,3.70,-1.49,3.68,-1.51,1.51,1.55,1.38,5.21,5.19,5.19
51.99,3.66,-1.48,3.65,-1.50,1.50,1.54,1.39,5.16,5.14,5.14
52.51,3.61,-1.49,3.61,-1.49,1.49,1.52,1.39,5.10,5.10,5.10
53.03,3.56,-1.50,3.57,-1.48,1.48,1.51,1.40,5.04,5.05,5.06
53.56,3.51,-1.50,3.53,-1.47,1.47,1.49,1.41,4.98,5.00,5.01
54.10,3.48,-1.48,3.49,-1.47,1.47,1.48,1.42,4.95,4.96,4.95
54.64,3.45,-1.46,3.45,-1.46,1.46,1.46,1.43,4.91,4.91,4.91
55.18,3.41,-1.45,3.41,-1.46,1.46,1.45,1.43,4.87,4.87,4.86
55.74,3.38,-1.43,3.37,-1.46,1.46,1.43,1.44,4.83,4.82,4.81
56.29,3.34,-1.44,3.33,-1.45,1.45,1.41,1.45,4.79,4.78,4.77
56.86,3.30,-1.43,3.29,-1.44,1.44,1.40,1.45,4.74,4.73,4.73
57.42,3.26,-1.42,3.26,-1.43,1.43,1.38,1.45,4.68,4.69,4.67
58.00,3.22,-1.41,3.23,-1.41,1.41,1.36,1.46,4.63,4.64,4.63
58.58,3.18,-1.41,3.19,-1.39,1.39,1.34,1.46,4.57,4.58,4.59
59.16,3.15,-1.40,3.16,-1.37,1.37,1.32,1.46,4.52,4.53,4.55
59.76,3.12,-1.38,3.13,-1.35,1.35,1.30,1.45,4.47,4.48,4.50
60.35,3.10,-1.34,3.09,-1.33,1.33,1.29,1.45,4.43,4.42,4.44
60.96,3.07,-1.31,3.06,-1.31,1.31,1.27,1.44,4.38,4.37,4.38
61.57,3.04,-1.27,3.02,-1.28,1.28,1.25,1.43,4.32,4.31,4.31
62.18,3.00,-1.24,2.99,-1.26,1.26,1.23,1.42,4.25,4.25,4.24
62.80,2.96,-1.22,2.96,-1.23,1.23,1.21,1.41,4.19,4.19,4.17
63.43,2.92,-1.19,2.92,-1.20,1.20,1.19,1.40,4.12,4.12,4.11
64.07,2.89,-1.16,2.89,-1.17,1.17,1.16,1.38,4.06,4.06,4.05
64.71,2.85,-1.14,2.85,-1.15,1.15,1.14,1.36,3.99,4.00,3.99
65.35,2.81,-1.12,2.81,-1.12,1.12,1.12,1.34,3.93,3.93,3.93
66.01,2.77,-1.10,2.77,-1.10,1.10,1.10,1.32,3.86,3.87,3.87
66.67,2.74,-1.08,2.73,-1.07,1.07,1.08,1.30,3.81,3.81,3.81
67.33,2.70,-1.04,2.69,-1.05,1.05,1.06,1.27,3.75,3.74,3.74
68.01,2.65,-1.04,2.65,-1.03,1.03,1.04,1.24,3.68,3.68,3.68
68.69,2.61,-1.01,2.60,-1.01,1.01,1.02,1.21,3.62,3.61,3.62
69.37,2.57,-0.99,2.56,-0.99,0.99,0.99,1.18,3.55,3.55,3.56
70.07,2.52,-0.97,2.52,-0.96,0.96,0.97,1.15,3.48,3.48,3.49
70.77,2.47,-0.95,2.47,-0.94,0.94,0.95,1.12,3.41,3.42,3.42
71.48,2.43,-0.93,2.43,-0.92,0.92,0.93,1.09,3.35,3.35,3.35
72.19,2.38,-0.90,2.39,-0.89,0.89,0.91,1.05,3.27,3.28,3.28
72.91,2.34,-0.87,2.35,-0.87,0.87,0.89,1.02,3.21,3.21,3.21
73.64,2.30,-0.84,2.30,-0.84,0.84,0.86,0.98,3.14,3.15,3.14
74.38,2.26,-0.81,2.26,-0.82,0.82,0.84,0.95,3.08,3.08,3.07
75.12,2.23,-0.79,2.22,-0.80,0.80,0.82,0.91,3.02,3.02,3.01
75.87,2.18,-0.78,2.18,-0.77,0.77,0.80,0.87,2.95,2.95,2.95
76.63,2.14,-0.74,2.14,-0.75,0.75,0.78,0.84,2.89,2.89,2.88
77.40,2.10,-0.73,2.10,-0.73,0.73,0.75,0.80,2.83,2.83,2.83
78.17,2.06,-0.70,2.06,-0.71,0.71,0.73,0.76,2.77,2.77,2.76
78.95,2.02,-0.69,2.01,-0.69,0.69,0.71,0.72,2.71,2.70,2.71
79.74,1.98,-0.67,1.97,-0.67,0.67,0.69,0.69,2.65,2.64,2.64
80.54,1.94,-0.65,1.93,-0.65,0.65,0.66,0.65,2.59,2.58,2.59
81.35,1.90,-0.62,1.89,-0.63,0.63,0.64,0.61,2.53,2.52,2.52
82.16,1.85,-0.62,1.85,-0.61,0.61,0.62,0.58,2.46,2.46,2.47
82.98,1.80,-0.60,1.80,-0.59,0.59,0.60,0.54,2.39,2.39,2.40
83.81,1.76,-0.58,1.76,-0.57,0.57,0.57,0.50,2.33,2.33,2.33
84.65,1.71,-0.55,1.72,-0.55,0.55,0.55,0.47,2.26,2.27,2.26
85.50,1.67,-0.53,1.67,-0.53,0.53,0.53,0.43,2.19,2.20,2.20
86.35,1.64,-0.50,1.63,-0.50,0.50,0.51,0.39,2.14,2.14,2.13
87.22,1.60,-0.47,1.59,-0.48,0.48,0.48,0.36,2.08,2.07,2.07
88.09,1.55,-0.45,1.54,-0.46,0.46,0.46,0.32,2.00,2.00,2.00
88.97,1.51,-0.42,1.50,-0.43,0.43,0.44,0.29,1.94,1.93,1.93
89.86,1.46,-0.41,1.46,-0.40,0.40,0.41,0.25,1.86,1.86,1.86
90.76,1.41,-0.39,1.42,-0.38,0.38,0.39,0.22,1.78,1.79,1.79
91.66,1.37,-0.35,1.37,-0.34,0.34,0.37,0.19,1.71,1.72,1.72
92.58,1.33,-0.33,1.33,-0.31,0.31,0.34,0.15,1.64,1.65,1.65
93.51,1.29,-0.29,1.29,-0.28,0.28,0.32,0.12,1.57,1.57,1.58
94.44,1.26,-0.25,1.25,-0.25,0.25,0.30,0.08,1.51,1.50,1.51
95.39,1.21,-0.22,1.21,-0.22,0.22,0.27,0.05,1.42,1.43,1.43
96.34,1.17,-0.19,1.17,-0.18,0.18,0.25,0.02,1.35,1.35,1.36
97.30,1.13,-0.15,1.13,-0.15,0.15,0.22,-0.01,1.28,1.28,1.28
98.28,1.09,-0.11,1.09,-0.12,0.12,0.20,-0.05,1.21,1.21,1.20
99.26,1.05,-0.08,1.05,-0.09,0.09,0.17,-0.08,1.14,1.13,1.12
100.25,1.01,-0.04,1.01,-0.06,0.06,0.15,-0.11,1.06,1.06,1.05
101.25,0.97,-0.02,0.96,-0.02,0.02,0.12,-0.14,0.99,0.99,0.98
102.27,0.93,0.01,0.92,0.00,-0.00,0.09,-0.17,0.92,0.92,0.92
103.29,0.88,0.03,0.88,0.03,-0.03,0.07,-0.20,0.84,0.85,0.84
104.32,0.84,0.06,0.84,0.06,-0.06,0.04,-0.23,0.78,0.78,0.78
105.37,0.79,0.08,0.79,0.08,-0.08,0.01,-0.26,0.70,0.71,0.71
106.42,0.74,0.09,0.75,0.11,-0.11,-0.01,-0.29,0.63,0.64,0.65
107.48,0.71,0.14,0.71,0.13,-0.13,-0.04,-0.32,0.57,0.57,0.57
108.56,0.68,0.17,0.66,0.16,-0.16,-0.07,-0.35,0.52,0.50,0.51
109.64,0.63,0.19,0.62,0.18,-0.18,-0.10,-0.38,0.44,0.43,0.44
110.74,0.58,0.21,0.57,0.21,-0.21,-0.13,-0.41,0.37,0.36,0.37
111.85,0.53,0.24,0.52,0.24,-0.24,-0.16,-0.43,0.29,0.29,0.29
112.97,0.48,0.25,0.48,0.26,-0.26,-0.19,-0.46,0.22,0.22,0.23
114.10,0.43,0.28,0.43,0.29,-0.29,-0.22,-0.48,0.14,0.15,0.15
115.24,0.38,0.31,0.39,0.31,-0.31,-0.25,-0.51,0.06,0.08,0.07
116.39,0.34,0.34,0.35,0.34,-0.34,-0.28,-0.53,-0.00,0.01,-0.00
117.55,0.30,0.37,0.30,0.37,-0.37,-0.32,-0.55,-0.07,-0.06,-0.08
118.73,0.26,0.41,0.26,0.39,-0.39,-0.35,-0.58,-0.14,-0.13,-0.15
119.92,0.22,0.43,0.22,0.42,-0.42,-0.38,-0.60,-0.20,-0.20,-0.21
121.12,0.18,0.45,0.17,0.45,-0.45,-0.42,-0.62,-0.27,-0.27,-0.27
122.33,0.14,0.48,0.13,0.48,-0.48,-0.45,-0.64,-0.34,-0.34,-0.34
123.55,0.10,0.50,0.10,0.51,-0.51,-0.48,-0.65,-0.41,-0.41,-0.40
124.79,0.06,0.53,0.06,0.54,-0.54,-0.52,-0.67,-0.48,-0.48,-0.47
126.03,0.02,0.56,0.02,0.57,-0.57,-0.55,-0.69,-0.55,-0.55,-0.54
127.29,-0.02,0.58,-0.02,0.60,-0.60,-0.59,-0.70,-0.62,-0.61,-0.60
128.57,-0.06,0.62,-0.05,0.63,-0.63,-0.62,-0.72,-0.69,-0.68,-0.68
129.85,-0.09,0.65,-0.09,0.65,-0.65,-0.65,-0.73,-0.75,-0.75,-0.75
131.15,-0.13,0.69,-0.13,0.68,-0.68,-0.69,-0.74,-0.81,-0.81,-0.82
132.46,-0.16,0.72,-0.17,0.71,-0.71,-0.72,-0.76,-0.87,-0.88,-0.88
133.79,-0.19,0.76,-0.21,0.74,-0.74,-0.75,-0.77,-0.93,-0.95,-0.96
135.12,-0.23,0.78,-0.25,0.77,-0.77,-0.79,-0.78,-1.00,-1.02,-1.02
136.48,-0.27,0.80,-0.28,0.80,-0.80,-0.82,-0.79,-1.07,-1.08,-1.08
137.84,-0.32,0.82,-0.32,0.83,-0.83,-0.85,-0.80,-1.15,-1.14,-1.15
139.22,-0.37,0.84,-0.35,0.85,-0.85,-0.88,-0.81,-1.23,-1.21,-1.21
140.61,-0.41,0.86,-0.39,0.88,-0.88,-0.91,-0.82,-1.29,-1.27,-1.27
142.02,-0.44,0.89,-0.42,0.90,-0.90,-0.93,-0.83,-1.35,-1.33,-1.34
143.44,-0.47,0.92,-0.46,0.93,-0.93,-0.96,-0.84,-1.40,-1.39,-1.39
144.87,-0.49,0.95,-0.50,0.95,-0.95,-0.99,-0.84,-1.44,-1.44,-1.44
146.32,-0.51,0.99,-0.53,0.97,-0.97,-1.01,-0.85,-1.49,-1.50,-1.50
147.78,-0.54,1.01,-0.56,1.00,-1.00,-1.03,-0.86,-1.54,-1.56,-1.55
149.26,-0.57,1.04,-0.59,1.02,-1.02,-1.05,-0.87,-1.60,-1.61,-1.61
150.75,-0.61,1.06,-0.62,1.05,-1.05,-1.07,-0.88,-1.66,-1.67,-1.67
152.26,-0.65,1.07,-0.64,1.08,-1.08,-1.09,-0.89,-1.73,-1.72,-1.72
153.78,-0.69,1.08,-0.67,1.11,-1.11,-1.11,-0.90,-1.80,-1.78,-1.77
155.32,-0.72,1.11,-0.70,1.13,-1.13,-1.13,-0.91,-1.85,-1.83,-1.83
156.88,-0.74,1.14,-0.73,1.16,-1.16,-1.14,-0.92,-1.90,-1.89,-1.88
158.44,-0.76,1.18,-0.76,1.18,-1.18,-1.16,-0.93,-1.94,-1.94,-1.94
160.03,-0.77,1.22,-0.80,1.20,-1.20,-1.17,-0.94,-1.97,-2.00,-1.99
161.63,-0.80,1.25,-0.83,1.22,-1.22,-1.19,-0.96,-2.02,-2.05,-2.05
163.24,-0.84,1.27,-0.87,1.24,-1.24,-1.20,-0.97,-2.09,-2.11,-2.11
164.88,-0.88,1.28,-0.90,1.27,-1.27,-1.21,-0.98,-2.15,-2.17,-2.16
166.53,-0.93,1.30,-0.93,1.29,-1.29,-1.23,-1.00,-2.22,-2.22,-2.23
168.19,-0.97,1.30,-0.96,1.32,-1.32,-1.24,-1.01,-2.29,-2.28,-2.27
169.87,-1.02,1.31,-0.99,1.34,-1.34,-1.26,-1.03,-2.37,-2.34,-2.34
171.57,-1.05,1.34,-1.03,1.37,-1.37,-1.27,-1.04,-2.42,-2.39,-2.40
173.29,-1.08,1.36,-1.06,1.39,-1.39,-1.29,-1.06,-2.47,-2.45,-2.45
175.02,-1.10,1.40,-1.10,1.41,-1.41,-1.30,-1.08,-2.51,-2.51,-2.51
176.77,-1.13,1.43,-1.14,1.42,-1.42,-1.32,-1.10,-2.56,-2.56,-2.56
178.54,-1.15,1.47,-1.18,1.44,-1.44,-1.34,-1.12,-2.60,-2.62,-2.62
180.32,-1.18,1.50,-1.21,1.46,-1.46,-1.36,-1.14,-2.65,-2.67,-2.68
182.13,-1.22,1.51,-1.24,1.49,-1.49,-1.38,-1.16,-2.71,-2.73,-2.73
183.95,-1.26,1.52,-1.27,1.51,-1.51,-1.40,-1.19,-2.77,-2.78,-2.78
185.79,-1.31,1.53,-1.30,1.54,-1.54,-1.42,-1.21,-2.85,-2.84,-2.84
187.65,-1.35,1.54,-1.33,1.56,-1.56,-1.44,-1.23,-2.91,-2.89,-2.89
189.52,-1.38,1.56,-1.36,1.58,-1.58,-1.47,-1.26,-2.96,-2.94,-2.94
191.42,-1.42,1.57,-1.39,1.60,-1.60,-1.49,-1.29,-3.02,-2.99,-2.99
193.33,-1.44,1.59,-1.42,1.62,-1.62,-1.51,-1.31,-3.06,-3.04,-3.04
195.27,-1.45,1.64,-1.46,1.63,-1.63,-1.54,-1.34,-3.08,-3.09,-3.09
197.22,-1.47,1.67,-1.49,1.65,-1.65,-1.57,-1.37,-3.12,-3.13,-3.15
199.19,-1.49,1.69,-1.52,1.66,-1.66,-1.59,-1.40,-3.15,-3.18,-3.18
201.18,-1.52,1.71,-1.54,1.68,-1.68,-1.62,-1.43,-3.20,-3.22,-3.23
203.19,-1.56,1.70,-1.57,1.69,-1.69,-1.65,-1.46,-3.25,-3.26,-3.26
205.23,-1.59,1.70,-1.60,1.70,-1.70,-1.68,-1.49,-3.29,-3.30,-3.29
207.28,-1.63,1.70,-1.63,1.71,-1.71,-1.71,-1.52,-3.35,-3.34,-3.33
209.35,-1.66,1.71,-1.65,1.72,-1.72,-1.74,-1.55,-3.38,-3.38,-3.37
211.44,-1.69,1.72,-1.68,1.73,-1.73,-1.77,-1.58,-3.42,-3.41,-3.41
213.56,-1.72,1.72,-1.72,1.73,-1.73,-1.80,-1.61,-3.45,-3.45,-3.44
215.69,-1.74,1.73,-1.75,1.73,-1.73,-1.83,-1.64,-3.48,-3.48,-3.47
217.85,-1.77,1.74,-1.78,1.73,-1.73,-1.86,-1.67,-3.51,-3.51,-3.51
220.03,-1.79,1.75,-1.81,1.73,-1.73,-1.88,-1.69,-3.53,-3.54,-3.54
222.23,-1.82,1.76,-1.83,1.74,-1.74,-1.91,-1.72,-3.56,-3.57,-3.58
224.45,-1.85,1.75,-1.86,1.74,-1.74,-1.94,-1.75,-3.60,-3.60,-3.60
226.70,-1.88,1.75,-1.87,1.75,-1.75,-1.96,-1.78,-3.64,-3.63,-3.63
228.96,-1.90,1.74,-1.89,1.76,-1.76,-1.99,-1.80,-3.66,-3.65,-3.65
231.25,-1.92,1.75,-1.90,1.77,-1.77,-2.01,-1.83,-3.69,-3.68,-3.68
233.57,-1.93,1.76,-1.91,1.78,-1.78,-2.03,-1.85,-3.71,-3.70,-3.70
235.90,-1.94,1.77,-1.92,1.79,-1.79,-2.05,-1.87,-3.74,-3.72,-3.72
238.26,-1.94,1.80,-1.93,1.81,-1.81,-2.07,-1.89,-3.75,-3.73,-3.74
240.64,-1.93,1.81,-1.93,1.82,-1.82,-2.08,-1.91,-3.75,-3.75,-3.74
243.05,-1.92,1.84,-1.93,1.83,-1.83,-2.10,-1.93,-3.75,-3.76,-3.76
245.48,-1.91,1.86,-1.93,1.84,-1.84,-2.11,-1.94,-3.75,-3.77,-3.78
247.93,-1.91,1.88,-1.93,1.86,-1.86,-2.12,-1.95,-3.77,-3.78,-3.79
250.41,-1.91,1.88,-1.92,1.87,-1.87,-2.13,-1.96,-3.78,-3.79,-3.79
252.92,-1.91,1.88,-1.92,1.88,-1.88,-2.13,-1.97,-3.79,-3.80,-3.79
255.45,-1.91,1.90,-1.92,1.89,-1.89,-2.13,-1.98,-3.80,-3.81,-3.81
258.00,-1.91,1.90,-1.91,1.90,-1.90,-2.13,-1.98,-3.81,-3.81,-3.81
260.58,-1.91,1.90,-1.91,1.91,-1.91,-2.13,-1.99,-3.82,-3.82,-3.82
263.19,-1.91,1.91,-1.91,1.92,-1.92,-2.13,-1.99,-3.83,-3.83,-3.82
265.82,-1.91,1.92,-1.91,1.92,-1.92,-2.12,-1.99,-3.84,-3.83,-3.83
268.48,-1.91,1.92,-1.91,1.93,-1.93,-2.11,-1.99,-3.84,-3.84,-3.83
271.16,-1.91,1.92,-1.91,1.93,-1.93,-2.10,-1.99,-3.84,-3.84,-3.84
273.87,-1.91,1.94,-1.91,1.94,-1.94,-2.09,-1.98,-3.85,-3.85,-3.85
276.61,-1.91,1.94,-1.91,1.94,-1.94,-2.08,-1.98,-3.85,-3.85,-3.85
279.38,-1.91,1.96,-1.91,1.94,-1.94,-2.06,-1.97,-3.86,-3.86,-3.87
282.17,-1.91,1.96,-1.91,1.95,-1.95,-2.05,-1.97,-3.86,-3.86,-3.87
284.99,-1.91,1.95,-1.91,1.95,-1.95,-2.03,-1.96,-3.86,-3.86,-3.86
287.84,-1.91,1.95,-1.91,1.95,-1.95,-2.01,-1.96,-3.86,-3.86,-3.86
290.72,-1.91,1.96,-1.91,1.95,-1.95,-2.00,-1.95,-3.86,-3.86,-3.87
293.63,-1.91,1.94,-1.91,1.95,-1.95,-1.98,-1.94,-3.86,-3.86,-3.86
296.57,-1.91,1.94,-1.91,1.94,-1.94,-1.96,-1.93,-3.86,-3.86,-3.86
299.53,-1.91,1.94,-1.91,1.94,-1.94,-1.94,-1.93,-3.85,-3.85,-3.85
302.53,-1.91,1.93,-1.91,1.94,-1.94,-1.92,-1.92,-3.85,-3.85,-3.84
305.55,-1.91,1.94,-1.91,1.93,-1.93,-1.90,-1.92,-3.84,-3.84,-3.85
308.61,-1.91,1.92,-1.91,1.93,-1.93,-1.88,-1.91,-3.84,-3.84,-3.84
311.69,-1.91,1.92,-1.91,1.92,-1.92,-1.86,-1.91,-3.83,-3.83,-3.83
314.81,-1.91,1.92,-1.91,1.92,-1.92,-1.84,-1.90,-3.83,-3.83,-3.83
317.96,-1.91,1.91,-1.91,1.91,-1.91,-1.82,-1.90,-3.82,-3.82,-3.83
321.14,-1.91,1.90,-1.91,1.90,-1.90,-1.80,-1.90,-3.82,-3.82,-3.81
324.35,-1.91,1.91,-1.91,1.90,-1.90,-1.78,-1.90,-3.81,-3.81,-3.82
327.59,-1.91,1.88,-1.91,1.89,-1.89,-1.77,-1.90,-3.80,-3.80,-3.79
330.87,-1.91,1.89,-1.91,1.89,-1.89,-1.75,-1.91,-3.80,-3.80,-3.80
334.18,-1.91,1.88,-1.91,1.88,-1.88,-1.74,-1.91,-3.79,-3.79,-3.80
337.52,-1.91,1.88,-1.91,1.87,-1.87,-1.72,-1.92,-3.79,-3.79,-3.79
340.90,-1.91,1.86,-1.91,1.87,-1.87,-1.71,-1.92,-3.78,-3.78,-3.78
344.30,-1.91,1.86,-1.91,1.86,-1.86,-1.70,-1.93,-3.77,-3.77,-3.77
347.75,-1.91,1.85,-1.91,1.86,-1.86,-1.68,-1.94,-3.77,-3.77,-3.76
351.23,-1.91,1.86,-1.91,1.85,-1.85,-1.67,-1.95,-3.76,-3.76,-3.77
354.74,-1.91,1.83,-1.91,1.84,-1.84,-1.66,-1.97,-3.75,-3.75,-3.74
358.28,-1.91,1.84,-1.92,1.83,-1.83,-1.66,-1.98,-3.74,-3.75,-3.75
361.87,-1.91,1.83,-1.92,1.82,-1.82,-1.65,-2.00,-3.73,-3.74,-3.74
365.49,-1.91,1.82,-1.92,1.81,-1.81,-1.64,-2.01,-3.72,-3.73,-3.74
369.14,-1.91,1.81,-1.93,1.80,-1.80,-1.64,-2.03,-3.71,-3.73,-3.72
372.83,-1.91,1.80,-1.93,1.79,-1.79,-1.63,-2.05,-3.70,-3.72,-3.71
376.56,-1.92,1.79,-1.93,1.78,-1.78,-1.63,-2.08,-3.70,-3.71,-3.72
380.33,-1.93,1.78,-1.93,1.77,-1.77,-1.63,-2.10,-3.71,-3.70,-3.71
384.13,-1.94,1.75,-1.92,1.77,-1.77,-1.63,-2.12,-3.71,-3.69,-3.69
387.97,-1.93,1.75,-1.92,1.77,-1.77,-1.63,-2.15,-3.70,-3.68,-3.69
391.85,-1.92,1.76,-1.91,1.77,-1.77,-1.63,-2.18,-3.69,-3.68,-3.68
395.77,-1.91,1.76,-1.89,1.77,-1.77,-1.64,-2.21,-3.69,-3.67,-3.67
399.73,-1.89,1.77,-1.88,1.78,-1.78,-1.64,-2.23,-3.67,-3.66,-3.66
403.72,-1.87,1.76,-1.86,1.79,-1.79,-1.65,-2.26,-3.66,-3.65,-3.64
407.76,-1.84,1.80,-1.84,1.80,-1.80,-1.65,-2.30,-3.64,-3.64,-3.64
411.84,-1.81,1.82,-1.81,1.82,-1.82,-1.66,-2.33,-3.63,-3.63,-3.63
415.96,-1.78,1.83,-1.79,1.83,-1.83,-1.67,-2.36,-3.62,-3.62,-3.61
420.12,-1.75,1.86,-1.76,1.85,-1.85,-1.68,-2.39,-3.60,-3.61,-3.62
424.32,-1.72,1.89,-1.73,1.87,-1.87,-1.69,-2.42,-3.59,-3.60,-3.61
428.56,-1.69,1.90,-1.71,1.89,-1.89,-1.71,-2.46,-3.58,-3.60,-3.59
432.85,-1.66,1.92,-1.68,1.91,-1.91,-1.72,-2.49,-3.57,-3.59,-3.58
437.18,-1.65,1.93,-1.66,1.92,-1.92,-1.74,-2.52,-3.57,-3.58,-3.58
441.55,-1.63,1.94,-1.64,1.94,-1.94,-1.75,-2.55,-3.57,-3.57,-3.58
445.96,-1.61,1.95,-1.62,1.95,-1.95,-1.77,-2.58,-3.56,-3.56,-3.57
450.42,-1.59,1.97,-1.60,1.96,-1.96,-1.79,-2.61,-3.55,-3.55,-3.56
454.93,-1.57,1.98,-1.58,1.97,-1.97,-1.81,-2.63,-3.54,-3.55,-3.55
459.48,-1.55,1.99,-1.56,1.98,-1.98,-1.83,-2.66,-3.53,-3.54,-3.54
464.07,-1.54,1.98,-1.54,1.99,-1.99,-1.85,-2.68,-3.53,-3.53,-3.52
468.71,-1.52,1.99,-1.52,2.00,-2.00,-1.88,-2.71,-3.52,-3.52,-3.51
473.40,-1.51,1.99,-1.50,2.01,-2.01,-1.90,-2.73,-3.52,-3.51,-3.51
478.13,-1.49,2.01,-1.47,2.03,-2.03,-1.93,-2.74,-3.52,-3.50,-3.50
482.91,-1.46,2.03,-1.45,2.04,-2.04,-1.96,-2.76,-3.51,-3.49,-3.49
487.74,-1.43,2.05,-1.41,2.06,-2.06,-1.98,-2.77,-3.50,-3.48,-3.48
492.62,-1.39,2.08,-1.38,2.09,-2.09,-2.01,-2.78,-3.48,-3.47,-3.47
497.55,-1.35,2.11,-1.35,2.11,-2.11,-2.05,-2.78,-3.46,-3.46,-3.46
