frequency,raw,error,smoothed,error_smoothed,equalization,parametric_eq,fixed_band_eq,equalized_raw,equalized_smoothed,target
20.00,-13.40,-19.28,-13.40,-19.28,19.28,17.58,5.72,5.88,5.88,5.88
20.20,-13.28,-19.20,-13.28,-19.20,19.20,17.53,5.86,5.92,5.92,5.92
20.40,-13.15,-19.11,-13.16,-19.11,19.11,17.48,6.00,5.96,5.96,5.96
20.61,-13.03,-19.02,-13.03,-19.02,19.02,17.43,6.15,5.99,5.99,5.99
20.81,-12.90,-18.93,-12.91,-18.93,18.93,17.38,6.30,6.03,6.02,6.03
21.02,-12.78,-18.85,-12.78,-18.84,18.83,17.33,6.46,6.05,6.05,6.07
21.23,-12.65,-18.74,-12.65,-18.74,18.73,17.28,6.62,6.08,6.08,6.09
21.44,-12.52,-18.63,-12.52,-18.63,18.63,17.23,6.78,6.11,6.11,6.11
21.66,-12.39,-18.52,-12.39,-18.52,18.52,17.18,6.95,6.13,6.13,6.13
21.87,-12.26,-18.40,-12.26,-18.40,18.41,17.12,7.13,6.15,6.15,6.14
22.09,-12.14,-18.30,-12.14,-18.29,18.29,17.07,7.30,6.15,6.16,6.16
22.31,-12.01,-18.18,-12.01,-18.18,18.18,17.01,7.49,6.16,6.16,6.17
22.54,-11.88,-18.06,-11.88,-18.06,18.05,16.96,7.67,6.17,6.17,6.18
22.76,-11.75,-17.94,-11.75,-17.94,17.93,16.90,7.87,6.18,6.18,6.19
22.99,-11.62,-17.81,-11.62,-17.81,17.81,16.84,8.06,6.19,6.19,6.19
23.22,-11.49,-17.69,-11.49,-17.69,17.69,16.78,8.27,6.20,6.20,6.20
23.45,-11.35,-17.56,-11.36,-17.56,17.57,16.72,8.47,6.22,6.21,6.21
23.69,-11.22,-17.44,-11.22,-17.44,17.45,16.66,8.69,6.22,6.22,6.22
23.92,-11.09,-17.32,-11.09,-17.32,17.32,16.59,8.90,6.23,6.23,6.23
24.16,-10.96,-17.21,-10.96,-17.21,17.20,16.53,9.13,6.24,6.24,6.25
24.40,-10.83,-17.10,-10.83,-17.08,17.08,16.46,9.36,6.25,6.25,6.27
24.65,-10.69,-16.95,-10.69,-16.96,16.95,16.39,9.59,6.26,6.26,6.26
24.89,-10.56,-16.83,-10.56,-16.83,16.83,16.33,9.83,6.27,6.27,6.27
25.14,-10.42,-16.70,-10.42,-16.70,16.70,16.26,10.08,6.28,6.28,6.28
25.39,-10.29,-16.58,-10.29,-16.58,16.58,16.19,10.32,6.29,6.29,6.29
25.65,-10.15,-16.46,-10.15,-16.45,16.45,16.11,10.58,6.30,6.30,6.31
25.91,-10.02,-16.33,-10.02,-16.33,16.33,16.04,10.84,6.31,6.31,6.31
26.16,-9.88,-16.20,-9.89,-16.20,16.21,15.96,11.10,6.33,6.32,6.32
26.43,-9.75,-16.08,-9.75,-16.08,16.08,15.89,11.36,6.33,6.33,6.33
26.69,-9.62,-15.96,-9.62,-15.96,15.96,15.81,11.63,6.34,6.34,6.34
26.96,-9.48,-15.84,-9.49,-15.84,15.83,15.73,11.90,6.35,6.34,6.36
27.23,-9.35,-15.72,-9.35,-15.71,15.71,15.65,12.17,6.35,6.35,6.37
27.50,-9.21,-15.58,-9.21,-15.58,15.58,15.57,12.43,6.36,6.37,6.37
27.77,-9.07,-15.44,-9.07,-15.45,15.45,15.49,12.70,6.38,6.38,6.37
28.05,-8.93,-15.32,-8.93,-15.31,15.32,15.40,12.96,6.39,6.39,6.39
28.33,-8.80,-15.19,-8.80,-15.19,15.19,15.31,13.21,6.39,6.39,6.39
28.62,-8.66,-15.06,-8.67,-15.06,15.06,15.23,13.45,6.40,6.40,6.40
28.90,-8.53,-14.94,-8.53,-14.94,14.93,15.14,13.68,6.40,6.40,6.41
29.19,-8.39,-14.80,-8.39,-14.81,14.80,15.05,13.89,6.41,6.41,6.41
29.48,-8.25,-14.69,-8.25,-14.68,14.68,14.95,14.08,6.43,6.42,6.44
29.78,-8.11,-14.54,-8.12,-14.55,14.55,14.86,14.26,6.44,6.44,6.43
30.08,-7.98,-14.42,-7.98,-14.42,14.43,14.76,14.41,6.44,6.44,6.44
30.38,-7.85,-14.29,-7.85,-14.30,14.30,14.67,14.54,6.45,6.45,6.44
30.68,-7.72,-14.18,-7.73,-14.18,14.17,14.57,14.62,6.45,6.45,6.46
30.99,-7.60,-14.06,-7.60,-14.05,14.05,14.47,14.69,6.44,6.45,6.46
31.30,-7.46,-13.92,-7.47,-13.93,13.92,14.36,14.71,6.46,6.45,6.46
31.61,-7.33,-13.80,-7.33,-13.80,13.79,14.26,14.72,6.46,6.46,6.47
31.93,-7.19,-13.67,-7.19,-13.67,13.67,14.15,14.68,6.47,6.48,6.48
32.24,-7.05,-13.53,-7.05,-13.54,13.54,14.04,14.62,6.49,6.48,6.48
32.57,-6.91,-13.41,-6.91,-13.41,13.41,13.93,14.52,6.50,6.49,6.50
32.89,-6.78,-13.28,-6.78,-13.28,13.28,13.82,14.41,6.50,6.50,6.50
33.22,-6.64,-13.15,-6.64,-13.15,13.15,13.71,14.26,6.51,6.51,6.51
33.55,-6.51,-13.03,-6.51,-13.02,13.02,13.60,14.11,6.51,6.52,6.52
33.89,-6.37,-12.90,-6.37,-12.90,12.90,13.48,13.92,6.53,6.52,6.53
34.23,-6.24,-12.77,-6.24,-12.77,12.77,13.36,13.73,6.53,6.53,6.53
34.57,-6.11,-12.65,-6.11,-12.65,12.65,13.24,13.53,6.53,6.53,6.54
34.92,-5.98,-12.52,-5.98,-12.52,12.52,13.12,13.32,6.54,6.54,6.54
35.27,-5.85,-12.40,-5.85,-12.40,12.40,12.99,13.09,6.54,6.54,6.55
35.62,-5.72,-12.27,-5.72,-12.27,12.27,12.87,12.87,6.55,6.55,6.55
35.97,-5.59,-12.14,-5.59,-12.14,12.15,12.74,12.65,6.56,6.55,6.55
36.33,-5.47,-12.03,-5.47,-12.02,12.02,12.61,12.42,6.55,6.55,6.56
36.70,-5.34,-11.89,-5.34,-11.90,11.90,12.48,12.20,6.55,6.55,6.55
37.06,-5.22,-11.78,-5.22,-11.77,11.77,12.35,11.98,6.55,6.55,6.56
37.43,-5.09,-11.65,-5.09,-11.65,11.64,12.21,11.76,6.55,6.55,6.56
37.81,-4.96,-11.52,-4.96,-11.52,11.52,12.08,11.54,6.55,6.55,6.56
38.19,-4.83,-11.39,-4.83,-11.39,11.39,11.94,11.33,6.55,6.55,6.56
38.57,-4.71,-11.26,-4.71,-11.26,11.26,11.80,11.13,6.55,6.55,6.55
38.95,-4.58,-11.13,-4.58,-11.13,11.13,11.66,10.93,6.55,6.55,6.55
39.34,-4.46,-11.00,-4.46,-11.00,11.00,11.51,10.73,6.54,6.54,6.54
39.74,-4.33,-10.87,-4.33,-10.87,10.87,11.37,10.55,6.54,6.54,6.54
40.14,-4.21,-10.75,-4.21,-10.75,10.75,11.23,10.36,6.53,6.53,6.54
40.54,-4.09,-10.63,-4.09,-10.63,10.62,11.08,10.19,6.53,6.53,6.54
40.94,-3.97,-10.50,-3.97,-10.50,10.50,10.93,10.02,6.53,6.53,6.53
41.35,-3.85,-10.38,-3.85,-10.38,10.38,10.78,9.86,6.53,6.53,6.53
41.76,-3.73,-10.26,-3.73,-10.26,10.26,10.63,9.70,6.53,6.53,6.53
42.18,-3.61,-10.14,-3.61,-10.14,10.14,10.48,9.55,6.53,6.53,6.53
42.60,-3.50,-10.03,-3.50,-10.03,10.03,10.33,9.41,6.53,6.53,6.53
43.03,-3.38,-9.91,-3.39,-9.91,9.91,10.18,9.27,6.53,6.52,6.53
43.46,-3.27,-9.80,-3.28,-9.80,9.79,10.03,9.14,6.52,6.51,6.53
43.90,-3.17,-9.68,-3.17,-9.68,9.67,9.88,9.02,6.50,6.51,6.51
44.33,-3.05,-9.56,-3.05,-9.56,9.55,9.73,8.90,6.50,6.50,6.51
44.78,-2.93,-9.43,-2.93,-9.43,9.44,9.57,8.79,6.50,6.50,6.50
45.23,-2.81,-9.31,-2.82,-9.31,9.32,9.42,8.69,6.51,6.50,6.50
45.68,-2.70,-9.20,-2.70,-9.20,9.20,9.27,8.59,6.50,6.50,6.50
46.13,-2.59,-9.08,-2.59,-9.09,9.08,9.12,8.49,6.49,6.49,6.49
46.60,-2.48,-8.98,-2.48,-8.97,8.97,8.97,8.40,6.48,6.49,6.50
47.06,-2.37,-8.86,-2.37,-8.86,8.85,8.82,8.32,6.48,6.48,6.49
47.53,-2.25,-8.73,-2.26,-8.74,8.74,8.67,8.24,6.49,6.48,6.48
48.01,-2.14,-8.63,-2.15,-8.62,8.62,8.53,8.17,6.48,6.48,6.49
48.49,-2.04,-8.51,-2.04,-8.51,8.51,8.38,8.10,6.47,6.47,6.47
48.97,-1.94,-8.39,-1.94,-8.39,8.39,8.24,8.04,6.45,6.45,6.45
49.46,-1.84,-8.28,-1.84,-8.28,8.28,8.10,7.98,6.44,6.44,6.44
49.96,-1.74,-8.16,-1.74,-8.17,8.16,7.96,7.92,6.42,6.42,6.42
50.46,-1.64,-8.06,-1.65,-8.06,8.05,7.82,7.87,6.41,6.40,6.42
50.96,-1.55,-7.95,-1.55,-7.94,7.94,7.69,7.82,6.39,6.39,6.40
51.47,-1.45,-7.82,-1.45,-7.83,7.83,7.56,7.78,6.38,6.38,6.37
51.99,-1.35,-7.71,-1.36,-7.72,7.73,7.43,7.74,6.37,6.37,6.36
52.51,-1.27,-7.62,-1.27,-7.62,7.62,7.30,7.70,6.35,6.35,6.35
53.03,-1.19,-7.52,-1.19,-7.52,7.52,7.18,7.66,6.33,6.33,6.33
53.56,-1.11,-7.43,-1.11,-7.42,7.42,7.06,7.62,6.31,6.31,6.32
54.10,-1.03,-7.32,-1.03,-7.33,7.32,6.95,7.59,6.29,6.29,6.29
54.64,-0.95,-7.23,-0.95,-7.22,7.22,6.83,7.55,6.27,6.27,6.28
55.18,-0.87,-7.12,-0.87,-7.12,7.12,6.72,7.52,6.25,6.25,6.25
55.74,-0.79,-7.01,-0.79,-7.02,7.02,6.62,7.49,6.23,6.23,6.22
56.29,-0.71,-6.93,-0.71,-6.92,6.92,6.52,7.45,6.21,6.21,6.22
56.86,-0.64,-6.83,-0.64,-6.82,6.83,6.42,7.41,6.18,6.19,6.19
57.42,-0.56,-6.72,-0.56,-6.73,6.73,6.32,7.38,6.17,6.17,6.16
58.00,-0.49,-6.63,-0.49,-6.63,6.64,6.23,7.34,6.15,6.15,6.14
58.58,-0.42,-6.54,-0.42,-6.54,6.55,6.14,7.29,6.12,6.12,6.12
59.16,-0.35,-6.45,-0.36,-6.45,6.45,6.06,7.25,6.10,6.10,6.10
59.76,-0.29,-6.37,-0.29,-6.37,6.35,5.97,7.20,6.06,6.06,6.08
60.35,-0.22,-6.27,-0.22,-6.27,6.25,5.89,7.14,6.03,6.03,6.05
60.96,-0.15,-6.17,-0.15,-6.16,6.15,5.82,7.09,6.00,6.00,6.02
61.57,-0.07,-6.04,-0.08,-6.05,6.05,5.74,7.02,5.97,5.97,5.97
62.18,-0.00,-5.93,-0.00,-5.93,5.94,5.67,6.96,5.94,5.94,5.93
62.80,0.08,-5.83,0.08,-5.82,5.83,5.60,6.89,5.90,5.90,5.91
63.43,0.15,-5.71,0.15,-5.71,5.71,5.53,6.81,5.86,5.86,5.86
64.07,0.23,-5.59,0.23,-5.60,5.60,5.47,6.73,5.83,5.82,5.82
64.71,0.30,-5.49,0.30,-5.49,5.49,5.41,6.64,5.78,5.78,5.79
65.35,0.37,-5.38,0.37,-5.38,5.38,5.34,6.56,5.74,5.74,5.75
66.01,0.44,-5.27,0.44,-5.27,5.26,5.28,6.46,5.70,5.71,5.71
66.67,0.52,-5.16,0.52,-5.16,5.16,5.22,6.36,5.67,5.67,5.68
67.33,0.59,-5.05,0.59,-5.05,5.05,5.17,6.26,5.64,5.64,5.64
68.01,0.66,-4.94,0.66,-4.94,4.94,5.11,6.16,5.60,5.60,5.60
68.69,0.72,-4.84,0.72,-4.84,4.84,5.05,6.05,5.56,5.56,5.56
69.37,0.78,-4.74,0.78,-4.74,4.74,4.99,5.94,5.52,5.52,5.52
70.07,0.84,-4.64,0.83,-4.64,4.64,4.94,5.83,5.48,5.48,5.48
70.77,0.89,-4.55,0.89,-4.55,4.55,4.88,5.71,5.44,5.44,5.44
71.48,0.94,-4.47,0.94,-4.46,4.46,4.83,5.60,5.40,5.40,5.41
72.19,0.99,-4.37,0.99,-4.38,4.37,4.77,5.48,5.36,5.36,5.36
72.91,1.03,-4.30,1.03,-4.29,4.29,4.72,5.36,5.32,5.32,5.33
73.64,1.09,-4.20,1.08,-4.20,4.20,4.66,5.24,5.29,5.29,5.29
74.38,1.13,-4.13,1.13,-4.12,4.12,4.60,5.12,5.25,5.25,5.26
75.12,1.18,-4.04,1.18,-4.04,4.05,4.55,5.00,5.22,5.22,5.22
75.87,1.22,-3.97,1.22,-3.97,3.97,4.49,4.88,5.19,5.19,5.19
76.63,1.26,-3.90,1.26,-3.90,3.90,4.43,4.77,5.16,5.16,5.16
77.40,1.29,-3.84,1.29,-3.83,3.83,4.38,4.65,5.12,5.13,5.13
78.17,1.33,-3.77,1.33,-3.77,3.77,4.32,4.54,5.10,5.10,5.10
78.95,1.37,-3.70,1.36,-3.71,3.71,4.26,4.42,5.08,5.07,5.07
79.74,1.39,-3.66,1.39,-3.66,3.66,4.20,4.31,5.04,5.05,5.05
80.54,1.42,-3.61,1.42,-3.60,3.60,4.14,4.20,5.02,5.02,5.03
81.35,1.44,-3.56,1.44,-3.55,3.55,4.07,4.09,4.99,4.99,5.00
82.16,1.48,-3.49,1.47,-3.50,3.50,4.01,3.98,4.98,4.97,4.97
82.98,1.51,-3.45,1.50,-3.45,3.45,3.95,3.88,4.95,4.95,4.96
83.81,1.53,-3.40,1.53,-3.40,3.39,3.89,3.77,4.92,4.92,4.93
84.65,1.56,-3.34,1.56,-3.35,3.34,3.82,3.67,4.90,4.90,4.90
85.50,1.59,-3.30,1.59,-3.29,3.28,3.75,3.58,4.87,4.88,4.89
86.35,1.64,-3.23,1.63,-3.23,3.23,3.69,3.48,4.87,4.86,4.87
87.22,1.68,-3.17,1.67,-3.17,3.18,3.62,3.38,4.85,4.85,4.85
88.09,1.71,-3.12,1.71,-3.12,3.13,3.55,3.29,4.83,4.84,4.83
88.97,1.74,-3.07,1.74,-3.07,3.07,3.48,3.20,4.81,4.81,4.81
89.86,1.77,-3.03,1.76,-3.03,3.03,3.41,3.11,4.79,4.79,4.80
90.76,1.79,-2.98,1.79,-2.98,2.98,3.34,3.03,4.77,4.77,4.77
91.66,1.81,-2.94,1.81,-2.94,2.93,3.27,2.94,4.74,4.75,4.75
92.58,1.84,-2.89,1.84,-2.89,2.89,3.20,2.86,4.73,4.73,4.73
93.51,1.87,-2.85,1.86,-2.85,2.85,3.13,2.78,4.71,4.71,4.72
94.44,1.89,-2.81,1.89,-2.81,2.81,3.06,2.71,4.69,4.69,4.70
95.39,1.91,-2.77,1.91,-2.77,2.77,2.98,2.63,4.68,4.68,4.68
96.34,1.92,-2.73,1.92,-2.73,2.74,2.91,2.56,4.65,4.66,4.65
97.30,1.93,-2.69,1.93,-2.69,2.71,2.83,2.48,4.63,4.63,4.62
98.28,1.93,-2.66,1.92,-2.67,2.68,2.76,2.41,4.61,4.60,4.59
99.26,1.91,-2.66,1.91,-2.65,2.66,2.68,2.34,4.56,4.57,4.57
100.25,1.90,-2.64,1.90,-2.64,2.63,2.61,2.28,4.53,4.53,4.54
101.25,1.89,-2.62,1.89,-2.61,2.61,2.53,2.21,4.50,4.50,4.51
102.27,1.89,-2.58,1.89,-2.59,2.58,2.46,2.15,4.47,4.47,4.47
103.29,1.89,-2.55,1.89,-2.55,2.55,2.38,2.09,4.43,4.43,4.44
104.32,1.89,-2.52,1.89,-2.51,2.50,2.30,2.03,4.39,4.40,4.41
105.37,1.91,-2.46,1.91,-2.46,2.45,2.22,1.97,4.36,4.36,4.37
106.42,1.93,-2.39,1.92,-2.40,2.39,2.15,1.91,4.32,4.32,4.32
107.48,1.95,-2.34,1.95,-2.33,2.32,2.07,1.85,4.27,4.27,4.29
108.56,1.98,-2.25,1.98,-2.25,2.25,1.99,1.80,4.22,4.23,4.23
109.64,2.02,-2.16,2.01,-2.17,2.16,1.91,1.74,4.18,4.18,4.18
110.74,2.05,-2.08,2.05,-2.07,2.07,1.84,1.69,4.12,4.12,4.13
111.85,2.09,-1.99,2.09,-1.98,1.98,1.76,1.63,4.07,4.07,4.08
112.97,2.13,-1.88,2.13,-1.89,1.89,1.68,1.58,4.02,4.02,4.01
114.10,2.16,-1.80,2.16,-1.80,1.80,1.60,1.53,3.96,3.96,3.96
115.24,2.19,-1.71,2.18,-1.71,1.72,1.52,1.48,3.90,3.90,3.90
116.39,2.20,-1.63,2.20,-1.63,1.64,1.45,1.43,3.83,3.84,3.83
117.55,2.22,-1.55,2.22,-1.55,1.56,1.37,1.38,3.78,3.78,3.77
118.73,2.23,-1.48,2.22,-1.49,1.50,1.29,1.34,3.72,3.72,3.71
119.92,2.23,-1.43,2.23,-1.43,1.43,1.22,1.29,3.66,3.66,3.66
121.12,2.22,-1.38,2.22,-1.38,1.37,1.14,1.24,3.59,3.60,3.60
122.33,2.23,-1.32,2.22,-1.32,1.31,1.06,1.19,3.54,3.54,3.55
123.55,2.23,-1.27,2.23,-1.26,1.25,0.99,1.15,3.48,3.49,3.50
124.79,2.25,-1.20,2.25,-1.20,1.19,0.91,1.10,3.44,3.44,3.45
126.03,2.27,-1.13,2.26,-1.13,1.12,0.84,1.06,3.39,3.38,3.40
127.29,2.29,-1.06,2.29,-1.05,1.05,0.76,1.01,3.34,3.34,3.35
128.57,2.32,-0.97,2.32,-0.97,0.97,0.69,0.97,3.29,3.29,3.29
129.85,2.36,-0.89,2.36,-0.89,0.89,0.62,0.92,3.25,3.25,3.25
131.15,2.40,-0.80,2.39,-0.81,0.82,0.54,0.88,3.21,3.20,3.20
132.46,2.42,-0.74,2.42,-0.73,0.74,0.47,0.83,3.15,3.16,3.16
133.79,2.45,-0.67,2.45,-0.66,0.66,0.40,0.79,3.11,3.11,3.12
135.12,2.49,-0.59,2.48,-0.60,0.59,0.33,0.75,3.07,3.07,3.08
136.48,2.51,-0.53,2.51,-0.52,0.52,0.26,0.70,3.03,3.03,3.04
137.84,2.55,-0.45,2.54,-0.45,0.46,0.19,0.66,3.01,3.00,3.00
139.22,2.56,-0.39,2.56,-0.39,0.40,0.12,0.61,2.96,2.96,2.95
140.61,2.57,-0.34,2.57,-0.34,0.36,0.05,0.57,2.92,2.93,2.91
142.02,2.58,-0.31,2.58,-0.30,0.31,-0.01,0.53,2.89,2.89,2.89
143.44,2.58,-0.27,2.57,-0.27,0.27,-0.08,0.48,2.85,2.85,2.85
144.87,2.57,-0.24,2.57,-0.24,0.24,-0.14,0.44,2.80,2.80,2.81
146.32,2.56,-0.21,2.56,-0.21,0.20,-0.21,0.39,2.76,2.76,2.77
147.78,2.56,-0.18,2.56,-0.18,0.17,-0.27,0.35,2.73,2.73,2.74
149.26,2.56,-0.15,2.56,-0.14,0.13,-0.33,0.30,2.69,2.69,2.71
150.75,2.56,-0.09,2.56,-0.10,0.10,-0.40,0.26,2.65,2.65,2.65
152.26,2.56,-0.05,2.56,-0.05,0.06,-0.46,0.21,2.61,2.61,2.61
153.78,2.56,-0.02,2.56,-0.01,0.01,-0.51,0.17,2.57,2.57,2.58
155.32,2.56,0.04,2.56,0.03,-0.03,-0.57,0.12,2.53,2.53,2.52
156.88,2.56,0.07,2.56,0.08,-0.08,-0.63,0.08,2.48,2.48,2.49
158.44,2.56,0.12,2.56,0.12,-0.12,-0.69,0.03,2.43,2.43,2.44
160.03,2.56,0.17,2.56,0.17,-0.17,-0.74,-0.01,2.39,2.39,2.39
161.63,2.56,0.22,2.56,0.22,-0.21,-0.79,-0.06,2.34,2.34,2.34
163.24,2.56,0.26,2.56,0.26,-0.26,-0.85,-0.11,2.30,2.30,2.30
164.88,2.56,0.30,2.56,0.30,-0.30,-0.90,-0.16,2.25,2.25,2.26
166.53,2.56,0.35,2.56,0.35,-0.35,-0.95,-0.20,2.20,2.20,2.21
168.19,2.56,0.40,2.56,0.40,-0.40,-1.00,-0.25,2.15,2.15,2.16
169.87,2.56,0.45,2.56,0.45,-0.46,-1.04,-0.30,2.10,2.10,2.11
171.57,2.56,0.49,2.56,0.50,-0.51,-1.09,-0.35,2.05,2.05,2.07
173.29,2.57,0.56,2.57,0.56,-0.56,-1.14,-0.40,2.00,2.00,2.01
175.02,2.58,0.62,2.57,0.62,-0.62,-1.18,-0.45,1.96,1.96,1.96
176.77,2.58,0.68,2.58,0.68,-0.67,-1.22,-0.50,1.91,1.91,1.90
178.54,2.57,0.72,2.57,0.73,-0.72,-1.26,-0.55,1.85,1.86,1.85
180.32,2.56,0.77,2.56,0.77,-0.76,-1.31,-0.60,1.80,1.80,1.79
182.13,2.54,0.80,2.53,0.80,-0.79,-1.34,-0.66,1.74,1.74,1.74
183.95,2.50,0.82,2.50,0.83,-0.82,-1.38,-0.71,1.68,1.68,1.68
185.79,2.47,0.84,2.47,0.85,-0.85,-1.42,-0.76,1.62,1.62,1.63
187.65,2.44,0.88,2.43,0.87,-0.87,-1.46,-0.82,1.57,1.57,1.56
189.52,2.40,0.89,2.40,0.89,-0.89,-1.49,-0.87,1.51,1.51,1.51
191.42,2.36,0.90,2.36,0.91,-0.91,-1.52,-0.93,1.45,1.45,1.46
193.33,2.33,0.92,2.33,0.92,-0.93,-1.55,-0.98,1.39,1.39,1.41
195.27,2.31,0.95,2.30,0.95,-0.96,-1.59,-1.04,1.35,1.34,1.36
197.22,2.29,0.99,2.29,0.99,-1.00,-1.62,-1.10,1.29,1.30,1.30
199.19,2.29,1.04,2.29,1.04,-1.04,-1.64,-1.15,1.25,1.25,1.25
201.18,2.30,1.10,2.29,1.10,-1.09,-1.67,-1.21,1.21,1.21,1.20
203.19,2.31,1.14,2.30,1.15,-1.15,-1.70,-1.26,1.16,1.16,1.17
205.23,2.32,1.21,2.32,1.20,-1.21,-1.72,-1.32,1.10,1.11,1.11
207.28,2.34,1.25,2.34,1.27,-1.29,-1.75,-1.38,1.05,1.06,1.09
209.35,2.38,1.35,2.38,1.35,-1.36,-1.77,-1.43,1.02,1.02,1.03
211.44,2.43,1.45,2.42,1.44,-1.44,-1.80,-1.49,0.99,0.99,0.98
213.56,2.48,1.54,2.48,1.53,-1.52,-1.82,-1.54,0.96,0.96,0.94
215.69,2.52,1.60,2.52,1.61,-1.60,-1.84,-1.59,0.92,0.92,0.92
217.85,2.57,1.69,2.56,1.69,-1.68,-1.86,-1.65,0.89,0.88,0.88
220.03,2.60,1.76,2.60,1.76,-1.76,-1.88,-1.70,0.84,0.84,0.84
222.23,2.63,1.82,2.64,1.83,-1.83,-1.90,-1.75,0.79,0.80,0.81
224.45,2.69,1.90,2.68,1.90,-1.91,-1.91,-1.79,0.78,0.78,0.79
226.70,2.74,1.98,2.73,1.98,-1.98,-1.93,-1.84,0.76,0.75,0.76
228.96,2.79,2.06,2.78,2.05,-2.05,-1.95,-1.88,0.73,0.73,0.73
231.25,2.83,2.11,2.84,2.12,-2.13,-1.96,-1.92,0.70,0.71,0.72
233.57,2.89,2.19,2.89,2.19,-2.20,-1.98,-1.96,0.69,0.69,0.70
235.90,2.96,2.27,2.95,2.26,-2.27,-1.99,-2.00,0.69,0.69,0.69
238.26,3.01,2.33,3.01,2.33,-2.33,-2.01,-2.03,0.68,0.68,0.68
240.64,3.06,2.39,3.06,2.39,-2.38,-2.02,-2.06,0.67,0.67,0.67
243.05,3.10,2.43,3.10,2.44,-2.43,-2.04,-2.09,0.66,0.67,0.67
245.48,3.14,2.48,3.14,2.48,-2.47,-2.05,-2.11,0.66,0.66,0.66
247.93,3.17,2.51,3.17,2.51,-2.50,-2.07,-2.13,0.66,0.66,0.66
250.41,3.19,2.53,3.19,2.53,-2.53,-2.08,-2.14,0.66,0.66,0.66
252.92,3.21,2.54,3.21,2.54,-2.54,-2.09,-2.16,0.67,0.67,0.67
255.45,3.22,2.54,3.22,2.54,-2.54,-2.11,-2.17,0.68,0.68,0.68
258.00,3.23,2.54,3.23,2.54,-2.54,-2.12,-2.18,0.69,0.69,0.69
260.58,3.23,2.54,3.22,2.54,-2.53,-2.13,-2.18,0.69,0.69,0.69
263.19,3.22,2.52,3.22,2.52,-2.52,-2.15,-2.18,0.69,0.69,0.70
265.82,3.21,2.50,3.21,2.50,-2.51,-2.16,-2.18,0.70,0.70,0.71
268.48,3.21,2.48,3.21,2.49,-2.50,-2.18,-2.17,0.71,0.71,0.73
271.16,3.22,2.47,3.22,2.48,-2.48,-2.19,-2.16,0.73,0.73,0.75
273.87,3.23,2.48,3.22,2.47,-2.47,-2.20,-2.15,0.76,0.75,0.75
276.61,3.22,2.44,3.22,2.45,-2.45,-2.21,-2.14,0.77,0.77,0.78
279.38,3.21,2.43,3.21,2.43,-2.42,-2.23,-2.13,0.79,0.79,0.78
282.17,3.20,2.40,3.20,2.40,-2.39,-2.24,-2.11,0.80,0.80,0.80
284.99,3.18,2.37,3.18,2.37,-2.36,-2.25,-2.10,0.81,0.81,0.81
287.84,3.15,2.33,3.15,2.33,-2.33,-2.26,-2.08,0.82,0.82,0.82
290.72,3.12,2.29,3.12,2.28,-2.28,-2.27,-2.06,0.83,0.83,0.83
293.63,3.08,2.23,3.08,2.23,-2.24,-2.27,-2.04,0.84,0.84,0.85
296.57,3.05,2.18,3.05,2.19,-2.19,-2.27,-2.02,0.86,0.86,0.87
299.53,3.02,2.15,3.02,2.15,-2.14,-2.28,-2.00,0.87,0.87,0.87
302.53,2.99,2.11,2.98,2.10,-2.10,-2.27,-1.98,0.89,0.89,0.88
305.55,2.95,2.05,2.95,2.06,-2.05,-2.27,-1.96,0.89,0.90,0.90
308.61,2.92,2.01,2.92,2.01,-2.02,-2.26,-1.94,0.90,0.91,0.91
311.69,2.90,1.98,2.90,1.97,-1.99,-2.25,-1.92,0.91,0.91,0.92
314.81,2.89,1.94,2.88,1.95,-1.96,-2.24,-1.90,0.92,0.92,0.95
317.96,2.87,1.93,2.87,1.93,-1.95,-2.22,-1.89,0.92,0.93,0.94
321.14,2.87,1.92,2.87,1.92,-1.94,-2.20,-1.87,0.93,0.94,0.95
324.35,2.88,1.93,2.88,1.93,-1.93,-2.17,-1.85,0.95,0.95,0.95
327.59,2.89,1.93,2.89,1.93,-1.92,-2.14,-1.84,0.97,0.97,0.96
330.87,2.89,1.93,2.88,1.93,-1.91,-2.11,-1.83,0.98,0.97,0.96
334.18,2.88,1.92,2.87,1.91,-1.90,-2.08,-1.81,0.98,0.97,0.96
337.52,2.85,1.88,2.86,1.89,-1.88,-2.05,-1.80,0.96,0.97,0.97
340.90,2.84,1.87,2.83,1.87,-1.86,-2.01,-1.79,0.98,0.97,0.97
344.30,2.81,1.84,2.80,1.84,-1.84,-1.97,-1.79,0.97,0.97,0.97
347.75,2.77,1.80,2.77,1.81,-1.81,-1.94,-1.78,0.96,0.97,0.97
351.23,2.74,1.77,2.74,1.77,-1.78,-1.90,-1.77,0.96,0.96,0.97
354.74,2.71,1.74,2.70,1.74,-1.75,-1.86,-1.77,0.96,0.95,0.97
358.28,2.67,1.72,2.67,1.72,-1.73,-1.82,-1.77,0.94,0.95,0.95
361.87,2.65,1.70,2.65,1.70,-1.70,-1.78,-1.77,0.95,0.95,0.95
365.49,2.63,1.68,2.63,1.68,-1.68,-1.74,-1.77,0.95,0.95,0.95
369.14,2.61,1.67,2.60,1.66,-1.66,-1.71,-1.77,0.95,0.94,0.94
372.83,2.58,1.64,2.58,1.64,-1.64,-1.67,-1.77,0.94,0.93,0.94
376.56,2.54,1.61,2.54,1.62,-1.63,-1.63,-1.78,0.91,0.92,0.93
380.33,2.52,1.60,2.51,1.60,-1.61,-1.60,-1.78,0.91,0.91,0.92
384.13,2.49,1.58,2.49,1.59,-1.59,-1.56,-1.79,0.90,0.90,0.91
387.97,2.48,1.58,2.48,1.58,-1.57,-1.53,-1.80,0.91,0.91,0.90
391.85,2.46,1.57,2.45,1.56,-1.55,-1.49,-1.81,0.91,0.90,0.89
395.77,2.43,1.53,2.43,1.54,-1.53,-1.46,-1.82,0.90,0.90,0.90
399.73,2.39,1.50,2.39,1.51,-1.50,-1.43,-1.83,0.89,0.89,0.89
403.72,2.36,1.48,2.35,1.47,-1.48,-1.40,-1.84,0.88,0.88,0.88
407.76,2.32,1.45,2.32,1.45,-1.45,-1.36,-1.86,0.87,0.87,0.87
411.84,2.29,1.41,2.29,1.42,-1.43,-1.33,-1.87,0.86,0.86,0.88
415.96,2.27,1.41,2.26,1.40,-1.40,-1.31,-1.88,0.86,0.86,0.86
420.12,2.24,1.38,2.24,1.38,-1.39,-1.28,-1.90,0.85,0.85,0.86
424.32,2.22,1.36,2.22,1.37,-1.37,-1.25,-1.91,0.84,0.85,0.86
428.56,2.21,1.36,2.21,1.36,-1.37,-1.22,-1.92,0.84,0.84,0.85
432.85,2.21,1.36,2.21,1.36,-1.36,-1.19,-1.94,0.84,0.84,0.85
437.18,2.21,1.36,2.21,1.36,-1.36,-1.17,-1.95,0.85,0.85,0.85
441.55,2.22,1.36,2.22,1.37,-1.36,-1.14,-1.96,0.85,0.85,0.86
445.96,2.23,1.37,2.22,1.37,-1.37,-1.12,-1.97,0.86,0.86,0.86
450.42,2.23,1.38,2.23,1.37,-1.37,-1.09,-1.98,0.86,0.86,0.85
454.93,2.23,1.37,2.23,1.38,-1.37,-1.07,-1.99,0.86,0.86,0.86
459.48,2.23,1.37,2.23,1.37,-1.37,-1.04,-2.00,0.86,0.86,0.86
464.07,2.23,1.36,2.23,1.36,-1.37,-1.02,-2.00,0.86,0.86,0.87
468.71,2.23,1.35,2.23,1.36,-1.36,-1.00,-2.00,0.87,0.87,0.88
473.40,2.23,1.36,2.23,1.35,-1.36,-0.97,-2.00,0.87,0.87,0.87
478.13,2.23,1.35,2.23,1.35,-1.35,-0.95,-2.00,0.88,0.88,0.88
482.91,2.23,1.35,2.23,1.35,-1.35,-0.93,-2.00,0.88,0.88,0.88
487.74,2.23,1.34,2.23,1.34,-1.34,-0.91,-1.99,0.89,0.89,0.89
492.62,2.23,1.33,2.23,1.33,-1.34,-0.88,-1.98,0.89,0.89,0.90
497.55,2.23,1.33,2.23,1.33,-1.33,-0.86,-1.97,0.90,0.90,0.90
502.52,2.23,1.32,2.23,1.32,-1.33,-0.84,-1.95,0.90,0.90,0.91
507.55,2.23,1.32,2.23,1.32,-1.32,-0.82,-1.93,0.91,0.91,0.91
