frequency,raw,error,smoothed,error_smoothed,equalization,parametric_eq,fixed_band_eq,equalized_raw,equalized_smoothed,target
20.00,-16.42,-20.40,-16.32,-20.33,20.33,19.88,7.87,3.91,4.00,3.99
20.20,-16.23,-20.25,-16.19,-20.22,20.22,19.85,8.04,3.99,4.03,4.03
20.40,-16.04,-20.10,-16.05,-20.11,20.11,19.80,8.21,4.06,4.06,4.06
20.61,-15.86,-19.94,-15.90,-19.99,19.99,19.74,8.38,4.13,4.09,4.08
20.81,-15.67,-19.80,-15.76,-19.88,19.88,19.68,8.56,4.20,4.11,4.12
21.02,-15.50,-19.66,-15.62,-19.76,19.76,19.60,8.74,4.26,4.14,4.16
21.23,-15.40,-19.57,-15.47,-19.63,19.63,19.52,8.93,4.24,4.16,4.17
21.44,-15.29,-19.49,-15.33,-19.51,19.51,19.43,9.12,4.21,4.18,4.19
21.66,-15.20,-19.41,-15.18,-19.38,19.38,19.32,9.31,4.18,4.20,4.21
21.87,-15.09,-19.32,-15.03,-19.25,19.25,19.21,9.52,4.15,4.22,4.22
22.09,-14.96,-19.20,-14.88,-19.11,19.11,19.10,9.72,4.15,4.23,4.24
22.31,-14.80,-19.04,-14.73,-18.97,18.97,18.97,9.94,4.17,4.25,4.24
22.54,-14.65,-18.90,-14.58,-18.83,18.83,18.85,10.16,4.18,4.26,4.25
22.76,-14.48,-18.74,-14.43,-18.69,18.69,18.71,10.38,4.20,4.26,4.26
22.99,-14.33,-18.58,-14.27,-18.54,18.54,18.57,10.61,4.22,4.27,4.26
23.22,-14.13,-18.39,-14.12,-18.40,18.40,18.43,10.85,4.27,4.28,4.27
23.45,-13.92,-18.20,-13.96,-18.24,18.24,18.28,11.10,4.32,4.28,4.28
23.69,-13.73,-18.01,-13.80,-18.09,18.09,18.12,11.35,4.36,4.29,4.29
23.92,-13.51,-17.81,-13.64,-17.93,17.93,17.97,11.61,4.41,4.29,4.29
24.16,-13.39,-17.69,-13.48,-17.77,17.77,17.81,11.88,4.39,4.29,4.30
24.40,-13.28,-17.60,-13.33,-17.63,17.63,17.65,12.15,4.34,4.30,4.31
24.65,-13.19,-17.49,-13.19,-17.49,17.49,17.48,12.44,4.30,4.30,4.30
24.89,-13.07,-17.38,-13.05,-17.35,17.35,17.32,12.73,4.28,4.30,4.30
25.14,-12.95,-17.25,-12.91,-17.21,17.21,17.15,13.03,4.26,4.30,4.30
25.39,-12.80,-17.10,-12.77,-17.07,17.07,16.98,13.34,4.27,4.30,4.30
25.65,-12.66,-16.95,-12.62,-16.93,16.93,16.81,13.66,4.27,4.30,4.30
25.91,-12.51,-16.80,-12.48,-16.78,16.78,16.64,13.99,4.27,4.30,4.29
26.16,-12.36,-16.66,-12.33,-16.63,16.63,16.47,14.33,4.27,4.30,4.30
26.43,-12.23,-16.52,-12.19,-16.49,16.49,16.30,14.68,4.26,4.29,4.29
26.69,-12.09,-16.38,-12.05,-16.34,16.34,16.13,15.04,4.26,4.29,4.29
26.96,-11.94,-16.23,-11.90,-16.19,16.19,15.96,15.40,4.25,4.29,4.29
27.23,-11.75,-16.04,-11.75,-16.04,16.04,15.79,15.77,4.29,4.29,4.29
27.50,-11.55,-15.84,-11.60,-15.89,15.89,15.62,16.15,4.34,4.28,4.29
27.77,-11.34,-15.62,-11.45,-15.73,15.73,15.45,16.53,4.39,4.28,4.28
28.05,-11.18,-15.45,-11.30,-15.58,15.58,15.27,16.92,4.41,4.28,4.28
28.33,-11.11,-15.37,-11.16,-15.43,15.43,15.10,17.30,4.33,4.28,4.26
28.62,-11.04,-15.31,-11.01,-15.28,15.28,14.93,17.68,4.24,4.27,4.27
28.90,-10.97,-15.24,-10.86,-15.13,15.13,14.77,18.04,4.17,4.27,4.27
29.19,-10.82,-15.08,-10.71,-14.98,14.98,14.60,18.39,4.16,4.27,4.26
29.48,-10.62,-14.89,-10.57,-14.83,14.83,14.43,18.71,4.20,4.26,4.27
29.78,-10.44,-14.70,-10.42,-14.68,14.68,14.26,19.00,4.24,4.26,4.27
30.08,-10.25,-14.51,-10.28,-14.53,14.53,14.10,19.25,4.29,4.25,4.26
30.38,-10.11,-14.36,-10.14,-14.39,14.39,13.93,19.44,4.28,4.25,4.25
30.68,-9.96,-14.21,-10.00,-14.24,14.24,13.77,19.57,4.28,4.24,4.25
30.99,-9.82,-14.05,-9.85,-14.08,14.08,13.60,19.63,4.27,4.24,4.24
31.30,-9.67,-13.90,-9.69,-13.92,13.92,13.44,19.62,4.25,4.23,4.23
31.61,-9.53,-13.76,-9.52,-13.75,13.75,13.28,19.54,4.22,4.23,4.23
31.93,-9.38,-13.60,-9.36,-13.59,13.59,13.12,19.39,4.21,4.22,4.22
32.24,-9.23,-13.44,-9.21,-13.43,13.43,12.96,19.18,4.19,4.22,4.21
32.57,-9.09,-13.29,-9.06,-13.27,13.27,12.80,18.91,4.19,4.21,4.20
32.89,-8.94,-13.15,-8.91,-13.12,13.12,12.64,18.61,4.17,4.20,4.20
33.22,-8.78,-12.97,-8.76,-12.96,12.96,12.48,18.27,4.19,4.20,4.20
33.55,-8.59,-12.79,-8.62,-12.81,12.81,12.32,17.90,4.22,4.19,4.19
33.89,-8.42,-12.61,-8.47,-12.66,12.66,12.17,17.52,4.24,4.19,4.19
34.23,-8.29,-12.47,-8.32,-12.51,12.51,12.01,17.12,4.22,4.18,4.19
34.57,-8.18,-12.35,-8.18,-12.36,12.36,11.86,16.72,4.18,4.18,4.17
34.92,-8.08,-12.25,-8.04,-12.21,12.21,11.70,16.32,4.13,4.17,4.17
35.27,-7.91,-12.08,-7.89,-12.05,12.05,11.55,15.91,4.14,4.16,4.17
35.62,-7.73,-11.88,-7.74,-11.90,11.90,11.40,15.52,4.17,4.16,4.15
35.97,-7.55,-11.69,-7.59,-11.75,11.75,11.25,15.13,4.20,4.15,4.15
36.33,-7.45,-11.59,-7.45,-11.60,11.60,11.09,14.74,4.15,4.14,4.14
36.70,-7.35,-11.49,-7.31,-11.45,11.45,10.94,14.37,4.10,4.14,4.14
37.06,-7.23,-11.36,-7.17,-11.30,11.30,10.79,14.00,4.07,4.13,4.13
37.43,-7.05,-11.18,-7.04,-11.16,11.16,10.65,13.64,4.10,4.12,4.12
37.81,-6.89,-11.00,-6.89,-11.00,11.00,10.50,13.29,4.12,4.11,4.12
38.19,-6.72,-10.82,-6.74,-10.84,10.84,10.35,12.95,4.13,4.11,4.10
38.57,-6.57,-10.66,-6.58,-10.68,10.68,10.20,12.62,4.11,4.10,4.10
38.95,-6.40,-10.49,-6.43,-10.53,10.53,10.06,12.29,4.12,4.09,4.09
39.34,-6.30,-10.37,-6.30,-10.38,10.38,9.91,11.98,4.09,4.08,4.07
39.74,-6.20,-10.25,-6.16,-10.24,10.24,9.77,11.67,4.04,4.07,4.06
40.14,-6.07,-10.13,-6.02,-10.09,10.09,9.62,11.37,4.02,4.07,4.06
40.54,-5.90,-9.95,-5.88,-9.93,9.93,9.48,11.08,4.04,4.05,4.06
40.94,-5.73,-9.77,-5.74,-9.78,9.78,9.34,10.80,4.06,4.04,4.05
41.35,-5.56,-9.59,-5.61,-9.64,9.64,9.19,10.52,4.08,4.02,4.03
41.76,-5.39,-9.41,-5.49,-9.49,9.49,9.05,10.25,4.10,4.00,4.01
42.18,-5.29,-9.28,-5.37,-9.35,9.35,8.91,9.99,4.07,3.98,4.00
42.60,-5.27,-9.24,-5.25,-9.20,9.20,8.77,9.73,3.94,3.96,3.97
43.03,-5.24,-9.19,-5.12,-9.05,9.05,8.63,9.48,3.81,3.93,3.95
43.46,-5.04,-8.96,-4.99,-8.89,8.89,8.49,9.24,3.86,3.90,3.92
43.90,-4.85,-8.72,-4.85,-8.73,8.73,8.35,9.00,3.88,3.88,3.87
44.33,-4.72,-8.56,-4.72,-8.57,8.57,8.21,8.76,3.85,3.85,3.84
44.78,-4.62,-8.42,-4.59,-8.41,8.41,8.07,8.53,3.79,3.82,3.81
45.23,-4.50,-8.27,-4.46,-8.25,8.25,7.93,8.30,3.75,3.79,3.78
45.68,-4.37,-8.11,-4.33,-8.09,8.09,7.79,8.08,3.73,3.76,3.75
46.13,-4.22,-7.95,-4.20,-7.94,7.94,7.66,7.87,3.72,3.74,3.73
46.60,-4.04,-7.75,-4.07,-7.79,7.79,7.52,7.65,3.75,3.72,3.71
47.06,-3.86,-7.55,-3.93,-7.63,7.63,7.38,7.45,3.78,3.70,3.69
47.53,-3.74,-7.42,-3.79,-7.48,7.48,7.25,7.24,3.74,3.69,3.68
48.01,-3.61,-7.29,-3.65,-7.33,7.33,7.11,7.04,3.72,3.68,3.68
48.49,-3.52,-7.18,-3.53,-7.20,7.20,6.98,6.84,3.68,3.67,3.67
48.97,-3.43,-7.08,-3.41,-7.07,7.07,6.84,6.65,3.65,3.66,3.65
49.46,-3.32,-6.96,-3.28,-6.94,6.94,6.70,6.46,3.63,3.66,3.64
49.96,-3.21,-6.84,-3.16,-6.81,6.81,6.57,6.27,3.61,3.65,3.64
50.46,-3.08,-6.72,-3.04,-6.69,6.69,6.44,6.09,3.61,3.64,3.64
50.96,-2.94,-6.58,-2.93,-6.56,6.56,6.30,5.91,3.63,3.63,3.65
51.47,-2.79,-6.42,-2.82,-6.44,6.44,6.17,5.73,3.65,3.62,3.63
51.99,-2.64,-6.25,-2.71,-6.31,6.31,6.03,5.56,3.67,3.60,3.62
52.51,-2.58,-6.18,-2.60,-6.18,6.18,5.90,5.39,3.60,3.58,3.60
53.03,-2.51,-6.08,-2.48,-6.03,6.03,5.77,5.22,3.52,3.55,3.57
53.56,-2.39,-5.92,-2.36,-5.87,5.87,5.64,5.05,3.49,3.52,3.53
54.10,-2.27,-5.75,-2.23,-5.71,5.71,5.50,4.89,3.44,3.48,3.49
54.64,-2.14,-5.57,-2.11,-5.54,5.54,5.37,4.73,3.41,3.44,3.44
55.18,-2.02,-5.40,-1.99,-5.38,5.38,5.24,4.58,3.36,3.39,3.39
55.74,-1.89,-5.22,-1.88,-5.21,5.21,5.11,4.42,3.32,3.33,3.33
56.29,-1.77,-5.04,-1.76,-5.03,5.03,4.98,4.27,3.27,3.28,3.28
56.86,-1.64,-4.85,-1.64,-4.86,4.86,4.85,4.13,3.22,3.22,3.22
57.42,-1.51,-4.65,-1.53,-4.68,4.68,4.72,3.98,3.18,3.15,3.14
58.00,-1.38,-4.46,-1.42,-4.51,4.51,4.59,3.84,3.13,3.09,3.08
58.58,-1.25,-4.26,-1.30,-4.33,4.33,4.46,3.71,3.08,3.02,3.02
59.16,-1.15,-4.11,-1.20,-4.15,4.15,4.33,3.57,3.01,2.95,2.96
59.76,-1.15,-4.04,-1.10,-3.99,3.99,4.20,3.44,2.85,2.89,2.90
60.35,-1.07,-3.89,-1.01,-3.83,3.83,4.07,3.32,2.77,2.82,2.82
60.96,-0.93,-3.69,-0.92,-3.68,3.68,3.94,3.19,2.75,2.76,2.76
61.57,-0.79,-3.47,-0.83,-3.52,3.52,3.82,3.07,2.74,2.69,2.69
62.18,-0.69,-3.31,-0.74,-3.37,3.37,3.69,2.95,2.68,2.63,2.62
62.80,-0.69,-3.26,-0.64,-3.22,3.22,3.56,2.84,2.53,2.57,2.57
63.43,-0.59,-3.10,-0.56,-3.08,3.08,3.43,2.73,2.49,2.52,2.51
64.07,-0.47,-2.93,-0.47,-2.94,2.94,3.31,2.62,2.47,2.46,2.46
64.71,-0.43,-2.83,-0.38,-2.79,2.79,3.18,2.51,2.37,2.41,2.41
65.35,-0.36,-2.71,-0.30,-2.66,2.66,3.06,2.41,2.30,2.36,2.35
66.01,-0.24,-2.55,-0.21,-2.52,2.52,2.93,2.31,2.29,2.32,2.31
66.67,-0.09,-2.35,-0.11,-2.39,2.39,2.81,2.21,2.30,2.27,2.27
67.33,0.02,-2.21,-0.03,-2.26,2.26,2.68,2.12,2.29,2.23,2.23
68.01,0.09,-2.10,0.05,-2.14,2.14,2.56,2.02,2.23,2.19,2.19
68.69,0.18,-1.97,0.13,-2.02,2.02,2.43,1.93,2.21,2.16,2.16
69.37,0.22,-1.89,0.22,-1.90,1.90,2.31,1.84,2.13,2.12,2.12
70.07,0.24,-1.84,0.30,-1.78,1.78,2.19,1.76,2.02,2.08,2.08
70.77,0.40,-1.66,0.39,-1.66,1.66,2.07,1.67,2.06,2.05,2.06
71.48,0.45,-1.56,0.46,-1.55,1.55,1.95,1.58,2.00,2.01,2.02
72.19,0.49,-1.49,0.54,-1.43,1.43,1.82,1.50,1.92,1.97,1.99
72.91,0.65,-1.29,0.62,-1.32,1.32,1.70,1.42,1.97,1.94,1.94
73.64,0.67,-1.23,0.70,-1.21,1.21,1.58,1.34,1.88,1.90,1.91
74.38,0.73,-1.14,0.77,-1.10,1.10,1.47,1.25,1.83,1.86,1.87
75.12,0.85,-0.97,0.84,-0.99,0.99,1.35,1.17,1.84,1.83,1.83
75.87,0.89,-0.90,0.91,-0.88,0.88,1.23,1.09,1.77,1.79,1.79
76.63,1.01,-0.74,0.99,-0.77,0.77,1.11,1.01,1.78,1.76,1.75
77.40,1.10,-0.62,1.07,-0.66,0.66,1.00,0.93,1.76,1.72,1.72
78.17,1.13,-0.55,1.14,-0.56,0.56,0.88,0.85,1.69,1.69,1.68
78.95,1.13,-0.53,1.19,-0.47,0.47,0.77,0.77,1.61,1.66,1.66
79.74,1.30,-0.34,1.25,-0.38,0.38,0.65,0.69,1.69,1.64,1.64
80.54,1.36,-0.24,1.31,-0.30,0.30,0.54,0.61,1.66,1.61,1.61
81.35,1.36,-0.22,1.37,-0.22,0.22,0.43,0.53,1.59,1.59,1.58
82.16,1.38,-0.18,1.43,-0.14,0.14,0.32,0.44,1.53,1.58,1.57
82.98,1.46,-0.10,1.48,-0.08,0.08,0.21,0.36,1.54,1.56,1.56
83.81,1.57,0.03,1.52,-0.03,0.03,0.10,0.27,1.60,1.55,1.55
84.65,1.59,0.06,1.57,0.03,-0.03,-0.01,0.19,1.57,1.54,1.53
85.50,1.59,0.06,1.61,0.08,-0.08,-0.12,0.10,1.52,1.53,1.53
86.35,1.59,0.07,1.65,0.13,-0.13,-0.22,0.02,1.47,1.52,1.52
87.22,1.64,0.13,1.70,0.18,-0.18,-0.33,-0.07,1.46,1.52,1.51
88.09,1.81,0.31,1.74,0.23,-0.23,-0.43,-0.16,1.58,1.51,1.50
88.97,1.81,0.30,1.77,0.27,-0.27,-0.53,-0.25,1.55,1.50,1.51
89.86,1.81,0.32,1.80,0.31,-0.31,-0.63,-0.34,1.50,1.49,1.50
90.76,1.81,0.34,1.84,0.37,-0.37,-0.73,-0.43,1.45,1.48,1.48
91.66,1.81,0.34,1.88,0.42,-0.42,-0.83,-0.53,1.39,1.46,1.47
92.58,1.89,0.45,1.92,0.48,-0.48,-0.93,-0.62,1.42,1.45,1.44
93.51,2.00,0.57,1.96,0.53,-0.53,-1.02,-0.72,1.47,1.43,1.43
94.44,2.04,0.63,2.00,0.60,-0.60,-1.12,-0.82,1.44,1.40,1.41
95.39,2.04,0.66,2.05,0.67,-0.67,-1.21,-0.91,1.37,1.38,1.38
96.34,2.04,0.70,2.08,0.74,-0.74,-1.30,-1.01,1.31,1.35,1.34
97.30,2.04,0.73,2.12,0.80,-0.80,-1.39,-1.11,1.25,1.32,1.31
98.28,2.09,0.82,2.14,0.86,-0.86,-1.48,-1.21,1.23,1.28,1.28
99.26,2.24,1.00,2.18,0.93,-0.93,-1.57,-1.31,1.31,1.24,1.24
100.25,2.27,1.07,2.20,1.00,-1.00,-1.65,-1.41,1.28,1.20,1.20
101.25,2.27,1.12,2.22,1.06,-1.06,-1.73,-1.52,1.21,1.16,1.16
102.27,2.27,1.17,2.23,1.13,-1.13,-1.81,-1.62,1.15,1.10,1.11
103.29,2.27,1.22,2.25,1.20,-1.20,-1.89,-1.72,1.08,1.05,1.05
104.32,2.27,1.27,2.26,1.27,-1.27,-1.97,-1.82,1.00,0.99,1.00
105.37,2.27,1.33,2.29,1.36,-1.36,-2.04,-1.92,0.92,0.93,0.94
106.42,2.27,1.40,2.31,1.45,-1.45,-2.12,-2.02,0.82,0.86,0.88
107.48,2.27,1.47,2.33,1.54,-1.54,-2.19,-2.12,0.73,0.79,0.80
108.56,2.27,1.56,2.35,1.64,-1.64,-2.26,-2.21,0.64,0.71,0.71
109.64,2.27,1.64,2.36,1.73,-1.73,-2.33,-2.31,0.54,0.63,0.63
110.74,2.28,1.73,2.38,1.83,-1.83,-2.39,-2.40,0.46,0.55,0.56
111.85,2.47,1.99,2.40,1.93,-1.93,-2.46,-2.49,0.54,0.47,0.48
112.97,2.50,2.12,2.43,2.04,-2.04,-2.52,-2.57,0.46,0.39,0.38
114.10,2.50,2.20,2.46,2.15,-2.15,-2.58,-2.65,0.35,0.30,0.31
115.24,2.50,2.28,2.48,2.25,-2.25,-2.63,-2.73,0.25,0.23,0.22
116.39,2.50,2.37,2.50,2.35,-2.35,-2.69,-2.81,0.16,0.15,0.13
117.55,2.50,2.45,2.50,2.43,-2.43,-2.74,-2.87,0.08,0.08,0.06
118.73,2.50,2.52,2.51,2.50,-2.50,-2.79,-2.94,0.00,0.01,-0.02
119.92,2.50,2.57,2.50,2.56,-2.56,-2.84,-3.00,-0.05,-0.06,-0.07
121.12,2.50,2.64,2.49,2.60,-2.60,-2.89,-3.05,-0.10,-0.12,-0.13
122.33,2.50,2.69,2.47,2.64,-2.64,-2.93,-3.10,-0.14,-0.17,-0.19
123.55,2.50,2.72,2.44,2.67,-2.67,-2.97,-3.14,-0.17,-0.23,-0.22
124.79,2.50,2.78,2.41,2.68,-2.68,-3.01,-3.18,-0.18,-0.27,-0.27
126.03,2.34,2.66,2.39,2.71,-2.71,-3.05,-3.21,-0.36,-0.32,-0.31
127.29,2.29,2.65,2.36,2.73,-2.73,-3.09,-3.23,-0.43,-0.36,-0.35
128.57,2.27,2.68,2.34,2.75,-2.75,-3.12,-3.25,-0.48,-0.41,-0.40
129.85,2.27,2.72,2.32,2.77,-2.77,-3.15,-3.26,-0.50,-0.45,-0.44
131.15,2.27,2.76,2.30,2.79,-2.79,-3.18,-3.27,-0.52,-0.49,-0.48
132.46,2.27,2.80,2.29,2.82,-2.82,-3.21,-3.27,-0.55,-0.53,-0.53
133.79,2.27,2.84,2.28,2.86,-2.86,-3.23,-3.27,-0.58,-0.57,-0.57
135.12,2.27,2.90,2.28,2.89,-2.89,-3.26,-3.26,-0.62,-0.62,-0.62
136.48,2.27,2.93,2.27,2.93,-2.93,-3.28,-3.25,-0.66,-0.66,-0.66
137.84,2.27,2.97,2.27,2.97,-2.97,-3.30,-3.23,-0.70,-0.70,-0.70
139.22,2.27,3.04,2.27,3.01,-3.01,-3.31,-3.21,-0.74,-0.75,-0.76
140.61,2.27,3.09,2.26,3.06,-3.06,-3.33,-3.19,-0.78,-0.80,-0.82
142.02,2.27,3.12,2.25,3.10,-3.10,-3.34,-3.17,-0.82,-0.85,-0.85
143.44,2.27,3.17,2.23,3.13,-3.13,-3.35,-3.14,-0.86,-0.90,-0.90
144.87,2.27,3.22,2.21,3.17,-3.17,-3.36,-3.11,-0.90,-0.96,-0.95
146.32,2.27,3.28,2.19,3.22,-3.22,-3.37,-3.08,-0.94,-1.02,-1.01
147.78,2.22,3.28,2.17,3.26,-3.26,-3.38,-3.05,-1.04,-1.09,-1.05
149.26,2.10,3.23,2.16,3.32,-3.32,-3.38,-3.02,-1.21,-1.16,-1.13
150.75,2.04,3.26,2.14,3.38,-3.38,-3.39,-2.99,-1.33,-1.23,-1.21
152.26,2.04,3.33,2.12,3.44,-3.44,-3.39,-2.96,-1.39,-1.31,-1.29
153.78,2.04,3.42,2.10,3.49,-3.49,-3.39,-2.93,-1.45,-1.39,-1.37
155.32,2.04,3.52,2.07,3.54,-3.54,-3.39,-2.90,-1.50,-1.47,-1.48
156.88,2.04,3.60,2.05,3.60,-3.60,-3.38,-2.87,-1.55,-1.55,-1.56
158.44,2.04,3.68,2.03,3.66,-3.66,-3.38,-2.85,-1.61,-1.62,-1.64
160.03,2.04,3.76,2.01,3.71,-3.71,-3.37,-2.82,-1.66,-1.70,-1.72
161.63,2.04,3.83,1.99,3.75,-3.75,-3.37,-2.79,-1.71,-1.76,-1.79
163.24,2.04,3.89,1.96,3.79,-3.79,-3.36,-2.77,-1.74,-1.82,-1.84
164.88,2.04,3.93,1.94,3.81,-3.81,-3.35,-2.75,-1.77,-1.87,-1.89
166.53,1.86,3.80,1.91,3.83,-3.83,-3.34,-2.73,-1.96,-1.91,-1.94
168.19,1.81,3.78,1.88,3.83,-3.83,-3.32,-2.71,-2.01,-1.95,-1.97
169.87,1.81,3.81,1.85,3.82,-3.82,-3.31,-2.70,-2.01,-1.97,-1.99
171.57,1.81,3.82,1.82,3.81,-3.81,-3.30,-2.69,-1.99,-1.99,-2.01
173.29,1.81,3.82,1.78,3.78,-3.78,-3.28,-2.68,-1.97,-2.00,-2.01
175.02,1.81,3.81,1.74,3.75,-3.75,-3.26,-2.67,-1.94,-2.01,-2.00
176.77,1.62,3.63,1.70,3.72,-3.72,-3.25,-2.66,-2.09,-2.02,-2.01
178.54,1.59,3.60,1.66,3.68,-3.68,-3.23,-2.66,-2.09,-2.02,-2.01
180.32,1.59,3.60,1.63,3.65,-3.65,-3.21,-2.66,-2.06,-2.03,-2.01
182.13,1.59,3.60,1.59,3.63,-3.63,-3.19,-2.66,-2.03,-2.03,-2.01
183.95,1.59,3.61,1.56,3.60,-3.60,-3.17,-2.66,-2.00,-2.04,-2.01
185.79,1.59,3.62,1.53,3.58,-3.58,-3.15,-2.67,-1.98,-2.05,-2.03
187.65,1.59,3.65,1.49,3.56,-3.56,-3.13,-2.68,-1.96,-2.06,-2.05
189.52,1.41,3.49,1.47,3.55,-3.55,-3.10,-2.69,-2.13,-2.08,-2.08
191.42,1.36,3.47,1.44,3.54,-3.54,-3.08,-2.70,-2.18,-2.10,-2.10
193.33,1.36,3.49,1.41,3.53,-3.53,-3.06,-2.71,-2.17,-2.12,-2.13
195.27,1.36,3.50,1.38,3.52,-3.52,-3.03,-2.73,-2.16,-2.14,-2.14
197.22,1.36,3.52,1.35,3.52,-3.52,-3.01,-2.75,-2.15,-2.16,-2.16
199.19,1.35,3.55,1.31,3.50,-3.50,-2.98,-2.76,-2.14,-2.19,-2.20
201.18,1.22,3.44,1.27,3.48,-3.48,-2.96,-2.79,-2.25,-2.21,-2.21
203.19,1.18,3.41,1.23,3.46,-3.46,-2.93,-2.81,-2.28,-2.23,-2.23
205.23,1.30,3.56,1.19,3.44,-3.44,-2.90,-2.83,-2.14,-2.25,-2.26
207.28,1.28,3.55,1.15,3.42,-3.42,-2.88,-2.85,-2.14,-2.28,-2.27
209.35,1.16,3.46,1.10,3.40,-3.40,-2.85,-2.88,-2.23,-2.29,-2.30
211.44,1.00,3.33,1.06,3.38,-3.38,-2.82,-2.90,-2.37,-2.31,-2.32
213.56,0.91,3.24,1.02,3.35,-3.35,-2.79,-2.92,-2.44,-2.33,-2.33
215.69,0.90,3.24,0.98,3.32,-3.32,-2.76,-2.95,-2.42,-2.35,-2.34
217.85,0.90,3.27,0.93,3.29,-3.29,-2.74,-2.97,-2.39,-2.36,-2.36
220.03,0.90,3.28,0.88,3.26,-3.26,-2.71,-2.99,-2.35,-2.38,-2.38
222.23,0.90,3.31,0.83,3.22,-3.22,-2.68,-3.01,-2.32,-2.39,-2.40
224.45,0.79,3.20,0.80,3.20,-3.20,-2.65,-3.03,-2.41,-2.40,-2.41
226.70,0.68,3.09,0.75,3.17,-3.17,-2.62,-3.05,-2.48,-2.41,-2.41
228.96,0.67,3.10,0.71,3.13,-3.13,-2.59,-3.07,-2.46,-2.42,-2.42
231.25,0.67,3.10,0.67,3.10,-3.10,-2.56,-3.08,-2.42,-2.43,-2.42
233.57,0.67,3.11,0.63,3.07,-3.07,-2.53,-3.09,-2.39,-2.44,-2.44
235.90,0.67,3.12,0.59,3.03,-3.03,-2.50,-3.10,-2.36,-2.44,-2.45
238.26,0.56,3.01,0.55,2.99,-2.99,-2.47,-3.10,-2.43,-2.44,-2.45
240.64,0.46,2.91,0.50,2.94,-2.94,-2.44,-3.10,-2.48,-2.44,-2.45
243.05,0.45,2.90,0.46,2.90,-2.90,-2.41,-3.10,-2.45,-2.44,-2.44
245.48,0.45,2.90,0.42,2.87,-2.87,-2.38,-3.09,-2.41,-2.44,-2.44
247.93,0.45,2.88,0.39,2.83,-2.83,-2.36,-3.08,-2.37,-2.44,-2.43
250.41,0.26,2.70,0.35,2.79,-2.79,-2.33,-3.06,-2.52,-2.44,-2.44
252.92,0.22,2.65,0.31,2.74,-2.74,-2.30,-3.04,-2.52,-2.43,-2.43
255.45,0.22,2.63,0.27,2.70,-2.70,-2.27,-3.02,-2.47,-2.42,-2.41
258.00,0.22,2.63,0.24,2.66,-2.66,-2.24,-2.99,-2.43,-2.41,-2.41
260.58,0.22,2.63,0.21,2.62,-2.62,-2.21,-2.96,-2.39,-2.40,-2.41
263.19,0.22,2.62,0.19,2.58,-2.58,-2.18,-2.92,-2.36,-2.39,-2.39
265.82,0.22,2.61,0.16,2.54,-2.54,-2.15,-2.88,-2.32,-2.38,-2.39
268.48,0.16,2.53,0.13,2.50,-2.50,-2.12,-2.84,-2.34,-2.37,-2.37
271.16,0.03,2.39,0.10,2.45,-2.45,-2.09,-2.79,-2.41,-2.35,-2.36
273.87,-0.01,2.34,0.05,2.38,-2.38,-2.07,-2.74,-2.39,-2.33,-2.34
276.61,-0.01,2.30,0.00,2.31,-2.31,-2.04,-2.69,-2.32,-2.31,-2.31
279.38,-0.01,2.29,-0.05,2.24,-2.24,-2.01,-2.63,-2.24,-2.29,-2.29
282.17,-0.01,2.26,-0.12,2.15,-2.15,-1.98,-2.58,-2.16,-2.27,-2.27
284.99,-0.06,2.19,-0.18,2.06,-2.06,-1.95,-2.52,-2.12,-2.24,-2.25
287.84,-0.23,2.00,-0.25,1.97,-1.97,-1.93,-2.45,-2.20,-2.22,-2.22
290.72,-0.31,1.88,-0.32,1.87,-1.87,-1.90,-2.39,-2.18,-2.19,-2.19
293.63,-0.45,1.72,-0.39,1.78,-1.78,-1.87,-2.33,-2.22,-2.16,-2.16
296.57,-0.47,1.67,-0.45,1.68,-1.68,-1.84,-2.26,-2.15,-2.14,-2.14
299.53,-0.64,1.48,-0.52,1.60,-1.60,-1.82,-2.20,-2.23,-2.12,-2.11
302.53,-0.69,1.41,-0.58,1.51,-1.51,-1.79,-2.13,-2.20,-2.09,-2.10
305.55,-0.69,1.38,-0.65,1.43,-1.43,-1.76,-2.06,-2.12,-2.08,-2.06
308.61,-0.69,1.36,-0.70,1.36,-1.36,-1.74,-2.00,-2.05,-2.06,-2.05
311.69,-0.69,1.34,-0.74,1.30,-1.30,-1.71,-1.93,-1.99,-2.04,-2.03
314.81,-0.69,1.32,-0.79,1.24,-1.24,-1.69,-1.86,-1.93,-2.03,-2.00
317.96,-0.84,1.17,-0.82,1.20,-1.20,-1.66,-1.80,-2.04,-2.02,-2.01
321.14,-0.92,1.10,-0.84,1.17,-1.17,-1.64,-1.73,-2.08,-2.01,-2.01
324.35,-0.92,1.09,-0.87,1.14,-1.14,-1.61,-1.67,-2.05,-2.00,-2.01
327.59,-0.92,1.08,-0.89,1.10,-1.10,-1.59,-1.60,-2.02,-1.99,-2.00
330.87,-0.92,1.08,-0.92,1.06,-1.06,-1.56,-1.54,-1.98,-1.98,-1.99
334.18,-0.92,1.07,-0.94,1.03,-1.03,-1.54,-1.48,-1.95,-1.97,-1.99
337.52,-0.92,1.06,-0.98,0.98,-0.98,-1.51,-1.41,-1.90,-1.96,-1.98
340.90,-0.93,1.02,-1.02,0.93,-0.93,-1.49,-1.35,-1.86,-1.95,-1.95
344.30,-1.10,0.85,-1.06,0.88,-0.88,-1.47,-1.29,-1.98,-1.94,-1.94
347.75,-1.15,0.78,-1.09,0.82,-0.82,-1.44,-1.23,-1.97,-1.92,-1.93
351.23,-1.15,0.75,-1.14,0.76,-0.76,-1.42,-1.17,-1.91,-1.90,-1.90
354.74,-1.15,0.74,-1.20,0.68,-0.68,-1.40,-1.11,-1.83,-1.88,-1.88
358.28,-1.26,0.60,-1.27,0.58,-0.58,-1.37,-1.05,-1.84,-1.86,-1.85
361.87,-1.35,0.49,-1.36,0.47,-0.47,-1.35,-1.00,-1.81,-1.83,-1.84
365.49,-1.38,0.43,-1.46,0.35,-0.35,-1.33,-0.94,-1.73,-1.81,-1.81
369.14,-1.40,0.39,-1.55,0.24,-0.24,-1.31,-0.89,-1.64,-1.79,-1.79
372.83,-1.55,0.22,-1.62,0.15,-0.15,-1.29,-0.83,-1.69,-1.77,-1.76
376.56,-1.61,0.14,-1.67,0.07,-0.07,-1.27,-0.78,-1.68,-1.75,-1.74
380.33,-1.70,0.02,-1.71,0.02,-0.02,-1.25,-0.73,-1.72,-1.73,-1.72
384.13,-1.81,-0.11,-1.72,-0.01,0.01,-1.22,-0.68,-1.80,-1.71,-1.70
387.97,-1.99,-0.30,-1.72,-0.02,0.02,-1.20,-0.63,-1.96,-1.70,-1.69
391.85,-2.04,-0.35,-1.70,-0.02,0.02,-1.18,-0.58,-2.01,-1.68,-1.68
395.77,-1.89,-0.21,-1.67,-0.00,0.00,-1.16,-0.53,-1.88,-1.67,-1.67
399.73,-1.77,-0.10,-1.63,0.03,-0.03,-1.14,-0.48,-1.80,-1.66,-1.67
403.72,-1.56,0.10,-1.57,0.08,-0.08,-1.13,-0.43,-1.64,-1.65,-1.66
407.76,-1.41,0.24,-1.51,0.13,-0.13,-1.11,-0.39,-1.54,-1.65,-1.65
411.84,-1.24,0.40,-1.45,0.20,-0.20,-1.09,-0.34,-1.43,-1.64,-1.64
415.96,-1.16,0.47,-1.37,0.27,-0.27,-1.07,-0.30,-1.43,-1.64,-1.63
420.12,-1.15,0.49,-1.30,0.34,-0.34,-1.05,-0.26,-1.48,-1.64,-1.63
424.32,-1.15,0.49,-1.23,0.40,-0.40,-1.03,-0.22,-1.55,-1.64,-1.63
428.56,-1.15,0.49,-1.17,0.46,-0.46,-1.02,-0.18,-1.61,-1.63,-1.63
432.85,-1.15,0.49,-1.12,0.50,-0.50,-1.00,-0.14,-1.65,-1.63,-1.64
437.18,-1.15,0.48,-1.10,0.52,-0.52,-0.98,-0.10,-1.67,-1.62,-1.63
441.55,-1.15,0.47,-1.10,0.52,-0.52,-0.96,-0.07,-1.67,-1.62,-1.62
445.96,-1.15,0.47,-1.10,0.51,-0.51,-0.95,-0.03,-1.66,-1.61,-1.62
450.42,-1.15,0.46,-1.12,0.49,-0.49,-0.93,0.00,-1.63,-1.61,-1.61
454.93,-1.15,0.45,-1.13,0.47,-0.47,-0.91,0.03,-1.61,-1.60,-1.60
459.48,-1.15,0.45,-1.14,0.44,-0.44,-0.90,0.06,-1.59,-1.58,-1.59
