frequency,raw,error,smoothed,error_smoothed,equalization,parametric_eq,fixed_band_eq,equalized_raw,equalized_smoothed,target
20.00,-1.20,-6.86,-1.20,-6.86,6.88,6.69,2.37,5.68,5.68,5.66
20.20,-1.17,-6.86,-1.16,-6.86,6.86,6.67,2.44,5.69,5.70,5.69
20.40,-1.12,-6.84,-1.12,-6.84,6.84,6.64,2.51,5.72,5.72,5.72
20.61,-1.08,-6.82,-1.08,-6.83,6.82,6.62,2.58,5.74,5.74,5.74
20.81,-1.03,-6.80,-1.03,-6.80,6.79,6.59,2.66,5.76,5.76,5.77
21.02,-0.98,-6.78,-0.98,-6.77,6.76,6.56,2.73,5.78,5.78,5.80
21.23,-0.92,-6.73,-0.92,-6.74,6.73,6.53,2.81,5.81,5.81,5.81
21.44,-0.87,-6.69,-0.86,-6.69,6.69,6.50,2.89,5.82,5.83,5.82
21.66,-0.81,-6.64,-0.81,-6.64,6.65,6.47,2.98,5.84,5.84,5.83
21.87,-0.76,-6.59,-0.76,-6.59,6.60,6.43,3.06,5.84,5.84,5.83
22.09,-0.71,-6.55,-0.71,-6.55,6.55,6.40,3.15,5.84,5.84,5.84
22.31,-0.66,-6.50,-0.66,-6.50,6.50,6.37,3.24,5.84,5.84,5.84
22.54,-0.61,-6.45,-0.61,-6.45,6.45,6.33,3.34,5.84,5.84,5.84
22.76,-0.56,-6.40,-0.56,-6.40,6.40,6.30,3.43,5.84,5.84,5.84
22.99,-0.51,-6.34,-0.51,-6.35,6.35,6.26,3.53,5.84,5.84,5.83
23.22,-0.47,-6.30,-0.46,-6.30,6.30,6.22,3.63,5.83,5.84,5.83
23.45,-0.42,-6.25,-0.42,-6.25,6.25,6.18,3.73,5.83,5.83,5.83
23.69,-0.37,-6.20,-0.37,-6.20,6.20,6.14,3.84,5.83,5.83,5.83
23.92,-0.32,-6.15,-0.32,-6.16,6.15,6.10,3.95,5.84,5.83,5.83
24.16,-0.28,-6.11,-0.27,-6.11,6.10,6.06,4.06,5.83,5.83,5.83
24.40,-0.23,-6.06,-0.23,-6.06,6.06,6.02,4.17,5.83,5.83,5.83
24.65,-0.18,-6.00,-0.18,-6.01,6.01,5.98,4.28,5.83,5.83,5.82
24.89,-0.14,-5.96,-0.13,-5.96,5.96,5.94,4.39,5.82,5.83,5.82
25.14,-0.09,-5.91,-0.09,-5.91,5.91,5.90,4.51,5.82,5.82,5.82
25.39,-0.04,-5.86,-0.04,-5.87,5.86,5.85,4.62,5.83,5.82,5.82
25.65,-0.01,-5.83,0.00,-5.82,5.82,5.81,4.74,5.81,5.82,5.82
25.91,0.05,-5.76,0.05,-5.77,5.77,5.77,4.86,5.82,5.82,5.81
26.16,0.09,-5.72,0.09,-5.72,5.73,5.72,4.97,5.82,5.82,5.81
26.43,0.13,-5.68,0.13,-5.68,5.69,5.68,5.09,5.82,5.82,5.81
26.69,0.17,-5.64,0.17,-5.64,5.64,5.63,5.20,5.81,5.81,5.81
26.96,0.20,-5.61,0.21,-5.60,5.60,5.59,5.32,5.80,5.81,5.81
27.23,0.25,-5.55,0.24,-5.56,5.56,5.54,5.43,5.81,5.80,5.80
27.50,0.28,-5.52,0.28,-5.52,5.51,5.49,5.53,5.80,5.80,5.80
27.77,0.31,-5.48,0.32,-5.47,5.47,5.45,5.64,5.78,5.80,5.79
28.05,0.37,-5.42,0.36,-5.43,5.43,5.40,5.74,5.80,5.79,5.79
28.33,0.40,-5.38,0.40,-5.38,5.39,5.35,5.83,5.79,5.79,5.78
28.62,0.44,-5.34,0.44,-5.34,5.34,5.31,5.92,5.79,5.79,5.78
28.90,0.48,-5.30,0.48,-5.30,5.30,5.26,6.01,5.78,5.78,5.78
29.19,0.51,-5.26,0.52,-5.26,5.26,5.21,6.08,5.77,5.77,5.77
29.48,0.55,-5.22,0.55,-5.22,5.22,5.17,6.15,5.77,5.77,5.77
29.78,0.58,-5.18,0.59,-5.18,5.18,5.12,6.21,5.76,5.76,5.76
30.08,0.62,-5.14,0.62,-5.14,5.14,5.07,6.27,5.76,5.76,5.76
30.38,0.66,-5.09,0.66,-5.10,5.10,5.02,6.31,5.76,5.76,5.75
30.68,0.69,-5.06,0.69,-5.06,5.06,4.98,6.34,5.75,5.75,5.75
30.99,0.71,-5.03,0.72,-5.02,5.02,4.93,6.37,5.73,5.74,5.74
31.30,0.76,-4.97,0.76,-4.98,4.98,4.88,6.38,5.74,5.74,5.73
31.61,0.79,-4.94,0.79,-4.94,4.94,4.84,6.39,5.73,5.73,5.73
31.93,0.82,-4.90,0.82,-4.90,4.90,4.79,6.38,5.72,5.72,5.72
32.24,0.85,-4.86,0.86,-4.86,4.86,4.74,6.37,5.71,5.71,5.71
32.57,0.90,-4.81,0.90,-4.81,4.81,4.70,6.34,5.72,5.71,5.71
32.89,0.93,-4.77,0.93,-4.77,4.77,4.65,6.31,5.71,5.71,5.70
33.22,0.97,-4.72,0.97,-4.73,4.73,4.60,6.27,5.70,5.70,5.69
33.55,0.99,-4.70,1.00,-4.69,4.69,4.56,6.22,5.69,5.69,5.69
33.89,1.03,-4.65,1.03,-4.66,4.66,4.51,6.16,5.69,5.68,5.68
34.23,1.04,-4.63,1.05,-4.62,4.62,4.47,6.10,5.66,5.67,5.67
34.57,1.09,-4.57,1.08,-4.58,4.58,4.42,6.03,5.67,5.67,5.66
34.92,1.10,-4.55,1.10,-4.55,4.55,4.38,5.96,5.65,5.65,5.65
35.27,1.13,-4.51,1.13,-4.51,4.51,4.33,5.88,5.65,5.65,5.64
35.62,1.14,-4.49,1.15,-4.49,4.48,4.29,5.80,5.62,5.63,5.63
35.97,1.18,-4.44,1.17,-4.45,4.45,4.24,5.72,5.63,5.62,5.62
36.33,1.18,-4.43,1.20,-4.42,4.42,4.20,5.63,5.60,5.62,5.61
36.70,1.23,-4.37,1.22,-4.39,4.39,4.16,5.54,5.63,5.61,5.60
37.06,1.23,-4.36,1.23,-4.36,4.36,4.11,5.45,5.60,5.60,5.59
37.43,1.23,-4.35,1.25,-4.34,4.34,4.07,5.37,5.57,5.58,5.58
37.81,1.27,-4.30,1.26,-4.31,4.30,4.03,5.28,5.58,5.57,5.57
38.19,1.28,-4.28,1.29,-4.28,4.27,3.99,5.19,5.55,5.56,5.56
38.57,1.32,-4.23,1.31,-4.24,4.24,3.95,5.10,5.56,5.55,5.55
38.95,1.32,-4.22,1.34,-4.20,4.20,3.91,5.01,5.52,5.54,5.54
39.34,1.37,-4.15,1.37,-4.16,4.16,3.87,4.93,5.53,5.53,5.52
39.74,1.41,-4.10,1.40,-4.12,4.12,3.83,4.85,5.53,5.52,5.51
40.14,1.42,-4.08,1.44,-4.07,4.08,3.79,4.77,5.50,5.51,5.50
40.54,1.46,-4.03,1.46,-4.03,4.03,3.76,4.69,5.50,5.50,5.49
40.94,1.50,-3.98,1.49,-3.99,3.99,3.72,4.61,5.49,5.48,5.48
41.35,1.51,-3.96,1.53,-3.95,3.95,3.69,4.54,5.46,5.48,5.47
41.76,1.55,-3.91,1.55,-3.91,3.91,3.65,4.47,5.46,5.46,5.46
42.18,1.60,-3.85,1.58,-3.87,3.86,3.62,4.40,5.47,5.45,5.45
42.60,1.60,-3.84,1.62,-3.82,3.82,3.58,4.34,5.42,5.44,5.44
43.03,1.65,-3.78,1.65,-3.78,3.78,3.55,4.28,5.43,5.43,5.43
43.46,1.69,-3.72,1.68,-3.73,3.73,3.52,4.22,5.42,5.41,5.41
43.90,1.70,-3.69,1.71,-3.68,3.69,3.49,4.17,5.39,5.40,5.39
44.33,1.74,-3.63,1.73,-3.64,3.64,3.46,4.12,5.39,5.38,5.37
44.78,1.74,-3.61,1.76,-3.60,3.60,3.43,4.07,5.34,5.36,5.35
45.23,1.79,-3.54,1.78,-3.56,3.56,3.40,4.02,5.36,5.34,5.33
45.68,1.79,-3.53,1.79,-3.53,3.53,3.38,3.98,5.32,5.32,5.32
46.13,1.79,-3.51,1.81,-3.50,3.50,3.35,3.95,5.29,5.31,5.30
46.60,1.83,-3.46,1.82,-3.47,3.47,3.32,3.91,5.31,5.29,5.29
47.06,1.83,-3.44,1.83,-3.44,3.45,3.30,3.88,5.28,5.28,5.27
47.53,1.83,-3.42,1.84,-3.42,3.43,3.28,3.85,5.26,5.26,5.25
48.01,1.83,-3.41,1.83,-3.40,3.40,3.26,3.82,5.23,5.23,5.24
48.49,1.83,-3.38,1.83,-3.38,3.37,3.24,3.80,5.20,5.20,5.21
48.97,1.83,-3.35,1.83,-3.35,3.34,3.22,3.78,5.17,5.17,5.18
49.46,1.83,-3.32,1.84,-3.31,3.31,3.20,3.76,5.14,5.15,5.15
49.96,1.86,-3.26,1.86,-3.27,3.27,3.18,3.74,5.13,5.13,5.12
50.46,1.88,-3.22,1.87,-3.23,3.23,3.17,3.72,5.11,5.11,5.10
50.96,1.88,-3.20,1.89,-3.19,3.19,3.15,3.71,5.07,5.08,5.08
51.47,1.91,-3.14,1.91,-3.15,3.14,3.14,3.70,5.05,5.05,5.05
51.99,1.92,-3.11,1.93,-3.10,3.10,3.13,3.69,5.02,5.03,5.03
52.51,1.97,-3.04,1.96,-3.06,3.06,3.12,3.67,5.03,5.01,5.01
53.03,1.97,-3.02,1.97,-3.02,3.02,3.11,3.66,4.99,4.99,4.99
53.56,1.97,-2.99,1.98,-2.98,2.98,3.10,3.65,4.96,4.97,4.96
54.10,1.99,-2.95,1.98,-2.96,2.96,3.09,3.64,4.95,4.94,4.94
54.64,1.98,-2.93,1.98,-2.93,2.94,3.08,3.63,4.92,4.92,4.91
55.18,1.97,-2.92,1.97,-2.92,2.93,3.08,3.62,4.90,4.90,4.89
55.74,1.94,-2.92,1.95,-2.92,2.93,3.07,3.61,4.87,4.87,4.86
56.29,1.91,-2.93,1.91,-2.93,2.94,3.07,3.59,4.85,4.85,4.84
56.86,1.86,-2.96,1.86,-2.96,2.97,3.07,3.58,4.83,4.83,4.82
57.42,1.80,-2.99,1.80,-2.99,3.00,3.06,3.56,4.80,4.81,4.79
58.00,1.73,-3.04,1.74,-3.04,3.04,3.06,3.53,4.78,4.78,4.77
58.58,1.67,-3.08,1.67,-3.09,3.09,3.06,3.51,4.76,4.76,4.75
59.16,1.59,-3.14,1.59,-3.14,3.13,3.05,3.48,4.73,4.73,4.73
59.76,1.52,-3.19,1.52,-3.19,3.18,3.05,3.45,4.70,4.70,4.71
60.35,1.44,-3.24,1.45,-3.24,3.22,3.05,3.41,4.66,4.67,4.68
60.96,1.39,-3.26,1.39,-3.26,3.25,3.04,3.37,4.65,4.64,4.65
61.57,1.33,-3.28,1.34,-3.28,3.28,3.04,3.32,4.61,4.62,4.61
62.18,1.30,-3.28,1.29,-3.29,3.30,3.03,3.27,4.60,4.59,4.58
62.80,1.24,-3.31,1.25,-3.30,3.31,3.02,3.22,4.55,4.56,4.55
63.43,1.21,-3.31,1.21,-3.31,3.31,3.01,3.16,4.52,4.53,4.52
64.07,1.18,-3.31,1.19,-3.31,3.31,2.99,3.09,4.49,4.49,4.49
64.71,1.18,-3.29,1.18,-3.29,3.29,2.98,3.02,4.48,4.47,4.47
65.35,1.16,-3.28,1.17,-3.27,3.27,2.96,2.95,4.43,4.44,4.44
66.01,1.18,-3.23,1.17,-3.24,3.24,2.93,2.87,4.42,4.41,4.41
66.67,1.18,-3.20,1.18,-3.20,3.20,2.91,2.79,4.38,4.38,4.38
67.33,1.19,-3.16,1.20,-3.15,3.15,2.87,2.70,4.34,4.35,4.35
68.01,1.23,-3.09,1.23,-3.10,3.09,2.84,2.61,4.32,4.31,4.32
68.69,1.26,-3.03,1.27,-3.02,3.02,2.80,2.51,4.28,4.29,4.29
69.37,1.33,-2.93,1.33,-2.94,2.94,2.75,2.41,4.27,4.27,4.26
70.07,1.39,-2.84,1.38,-2.85,2.85,2.70,2.31,4.25,4.24,4.23
70.77,1.44,-2.76,1.45,-2.76,2.76,2.64,2.21,4.21,4.21,4.20
71.48,1.50,-2.67,1.50,-2.67,2.67,2.58,2.10,4.17,4.17,4.17
72.19,1.57,-2.56,1.57,-2.57,2.57,2.51,1.99,4.14,4.13,4.13
72.91,1.63,-2.47,1.64,-2.46,2.46,2.43,1.87,4.09,4.10,4.10
73.64,1.71,-2.35,1.71,-2.36,2.36,2.35,1.76,4.07,4.06,4.06
74.38,1.78,-2.25,1.78,-2.25,2.25,2.26,1.64,4.03,4.03,4.03
75.12,1.86,-2.13,1.86,-2.13,2.14,2.17,1.52,4.00,4.00,3.99
75.87,1.94,-2.02,1.94,-2.03,2.03,2.07,1.41,3.97,3.97,3.96
76.63,2.02,-1.91,2.02,-1.91,1.91,1.97,1.28,3.94,3.94,3.93
77.40,2.09,-1.81,2.10,-1.80,1.80,1.86,1.16,3.89,3.90,3.90
78.17,2.19,-1.67,2.18,-1.69,1.68,1.74,1.04,3.88,3.87,3.86
78.95,2.25,-1.58,2.26,-1.57,1.57,1.62,0.92,3.82,3.83,3.83
79.74,2.35,-1.45,2.35,-1.45,1.45,1.50,0.79,3.80,3.80,3.80
80.54,2.42,-1.34,2.43,-1.34,1.33,1.38,0.67,3.76,3.76,3.76
81.35,2.53,-1.20,2.52,-1.21,1.21,1.25,0.54,3.75,3.74,3.73
82.16,2.59,-1.10,2.60,-1.09,1.09,1.11,0.42,3.69,3.70,3.69
82.98,2.70,-0.96,2.69,-0.97,0.97,0.98,0.29,3.67,3.66,3.66
83.81,2.76,-0.86,2.77,-0.85,0.85,0.84,0.16,3.61,3.62,3.62
84.65,2.87,-0.71,2.86,-0.72,0.72,0.70,0.03,3.59,3.59,3.58
85.50,2.95,-0.60,2.95,-0.60,0.60,0.56,-0.09,3.55,3.55,3.55
86.35,3.04,-0.47,3.04,-0.47,0.47,0.41,-0.22,3.51,3.51,3.51
87.22,3.14,-0.33,3.13,-0.34,0.34,0.27,-0.35,3.48,3.48,3.47
88.09,3.21,-0.22,3.22,-0.21,0.21,0.12,-0.48,3.43,3.44,3.43
88.97,3.32,-0.07,3.31,-0.08,0.09,-0.02,-0.61,3.41,3.40,3.39
89.86,3.38,0.03,3.39,0.04,-0.05,-0.17,-0.74,3.34,3.35,3.35
90.76,3.49,0.19,3.48,0.17,-0.18,-0.32,-0.87,3.32,3.30,3.30
91.66,3.55,0.29,3.57,0.31,-0.31,-0.46,-1.00,3.24,3.26,3.26
92.58,3.66,0.45,3.66,0.45,-0.44,-0.61,-1.14,3.22,3.22,3.21
93.51,3.77,0.60,3.75,0.58,-0.58,-0.76,-1.27,3.19,3.17,3.17
94.44,3.83,0.70,3.85,0.72,-0.72,-0.91,-1.40,3.11,3.13,3.13
95.39,3.94,0.86,3.94,0.86,-0.86,-1.05,-1.53,3.08,3.08,3.08
96.34,4.04,1.01,4.03,1.00,-1.00,-1.20,-1.67,3.04,3.03,3.03
97.30,4.11,1.13,4.13,1.15,-1.14,-1.34,-1.80,2.97,2.99,2.98
98.28,4.22,1.29,4.22,1.28,-1.28,-1.48,-1.93,2.94,2.94,2.93
99.26,4.32,1.43,4.31,1.42,-1.42,-1.63,-2.07,2.90,2.89,2.89
100.25,4.39,1.55,4.41,1.57,-1.56,-1.77,-2.20,2.83,2.85,2.84
101.25,4.50,1.71,4.50,1.70,-1.70,-1.91,-2.33,2.80,2.79,2.79
102.27,4.59,1.85,4.59,1.85,-1.84,-2.04,-2.46,2.75,2.75,2.74
103.29,4.67,1.98,4.68,1.99,-1.98,-2.18,-2.59,2.69,2.70,2.69
104.32,4.78,2.13,4.77,2.12,-2.12,-2.31,-2.72,2.66,2.64,2.65
105.37,4.85,2.25,4.86,2.26,-2.26,-2.44,-2.85,2.59,2.60,2.60
106.42,4.95,2.40,4.96,2.40,-2.40,-2.57,-2.97,2.55,2.55,2.55
107.48,5.06,2.56,5.05,2.54,-2.54,-2.70,-3.10,2.52,2.51,2.50
108.56,5.12,2.67,5.14,2.68,-2.68,-2.82,-3.22,2.44,2.46,2.45
109.64,5.23,2.83,5.22,2.82,-2.82,-2.95,-3.33,2.42,2.40,2.40
110.74,5.29,2.94,5.30,2.95,-2.95,-3.06,-3.44,2.34,2.35,2.35
111.85,5.39,3.09,5.39,3.09,-3.09,-3.18,-3.55,2.30,2.30,2.30
112.97,5.46,3.22,5.46,3.22,-3.22,-3.29,-3.65,2.24,2.24,2.24
114.10,5.54,3.35,5.54,3.35,-3.35,-3.40,-3.75,2.19,2.19,2.19
115.24,5.61,3.48,5.61,3.48,-3.48,-3.50,-3.84,2.14,2.14,2.13
116.39,5.68,3.60,5.68,3.60,-3.60,-3.60,-3.92,2.08,2.08,2.08
117.55,5.74,3.72,5.74,3.72,-3.72,-3.69,-4.00,2.02,2.03,2.02
118.73,5.80,3.83,5.80,3.83,-3.83,-3.78,-4.07,1.97,1.97,1.97
119.92,5.86,3.94,5.86,3.94,-3.93,-3.87,-4.13,1.93,1.93,1.92
121.12,5.91,4.04,5.91,4.04,-4.03,-3.95,-4.18,1.88,1.88,1.87
122.33,5.95,4.13,5.95,4.13,-4.12,-4.02,-4.22,1.83,1.83,1.82
123.55,5.98,4.21,5.98,4.21,-4.21,-4.09,-4.26,1.78,1.77,1.77
124.79,5.99,4.27,6.00,4.28,-4.28,-4.15,-4.28,1.71,1.72,1.72
126.03,6.02,4.35,6.01,4.34,-4.35,-4.20,-4.30,1.67,1.66,1.67
127.29,6.02,4.40,6.03,4.41,-4.41,-4.25,-4.30,1.62,1.62,1.62
128.57,6.02,4.46,6.02,4.46,-4.45,-4.30,-4.30,1.57,1.57,1.56
129.85,6.02,4.51,6.01,4.50,-4.49,-4.33,-4.29,1.53,1.52,1.51
131.15,5.98,4.52,5.99,4.53,-4.52,-4.37,-4.27,1.46,1.47,1.46
132.46,5.97,4.56,5.96,4.54,-4.54,-4.39,-4.24,1.43,1.42,1.41
133.79,5.91,4.54,5.92,4.55,-4.55,-4.41,-4.21,1.36,1.37,1.37
135.12,5.86,4.54,5.87,4.54,-4.55,-4.42,-4.16,1.32,1.32,1.32
136.48,5.81,4.53,5.81,4.53,-4.53,-4.42,-4.11,1.28,1.28,1.28
137.84,5.75,4.52,5.74,4.51,-4.51,-4.42,-4.06,1.24,1.23,1.23
139.22,5.67,4.49,5.67,4.49,-4.48,-4.41,-4.00,1.19,1.19,1.18
140.61,5.58,4.44,5.59,4.45,-4.44,-4.40,-3.93,1.14,1.15,1.14
142.02,5.52,4.41,5.51,4.40,-4.40,-4.38,-3.86,1.12,1.11,1.11
143.44,5.41,4.34,5.42,4.34,-4.35,-4.35,-3.79,1.07,1.07,1.07
144.87,5.31,4.28,5.32,4.29,-4.29,-4.32,-3.71,1.03,1.03,1.03
146.32,5.22,4.23,5.22,4.22,-4.22,-4.29,-3.64,1.00,0.99,0.99
147.78,5.11,4.15,5.11,4.15,-4.15,-4.25,-3.55,0.96,0.96,0.96
149.26,5.00,4.08,5.01,4.08,-4.08,-4.20,-3.47,0.92,0.93,0.92
150.75,4.89,4.01,4.89,4.01,-4.00,-4.15,-3.39,0.89,0.89,0.88
152.26,4.78,3.94,4.77,3.93,-3.93,-4.10,-3.30,0.86,0.85,0.84
153.78,4.64,3.84,4.65,3.85,-3.85,-4.04,-3.22,0.79,0.80,0.80
155.32,4.52,3.76,4.53,3.76,-3.77,-3.98,-3.14,0.75,0.76,0.76
156.88,4.41,3.69,4.41,3.69,-3.70,-3.92,-3.05,0.72,0.71,0.72
158.44,4.30,3.62,4.30,3.62,-3.62,-3.85,-2.97,0.68,0.68,0.68
160.03,4.19,3.55,4.19,3.55,-3.55,-3.78,-2.88,0.64,0.64,0.64
161.63,4.08,3.48,4.08,3.48,-3.48,-3.71,-2.80,0.61,0.61,0.60
163.24,3.97,3.41,3.98,3.41,-3.41,-3.63,-2.72,0.57,0.57,0.56
164.88,3.87,3.34,3.87,3.34,-3.34,-3.55,-2.64,0.54,0.53,0.53
166.53,3.76,3.27,3.76,3.27,-3.27,-3.48,-2.56,0.50,0.50,0.49
168.19,3.65,3.20,3.65,3.20,-3.20,-3.40,-2.49,0.46,0.46,0.45
169.87,3.54,3.13,3.54,3.13,-3.13,-3.32,-2.41,0.42,0.42,0.41
171.57,3.43,3.06,3.43,3.05,-3.06,-3.23,-2.34,0.38,0.38,0.37
173.29,3.32,2.98,3.32,2.98,-2.99,-3.15,-2.27,0.33,0.33,0.34
175.02,3.21,2.91,3.22,2.91,-2.92,-3.07,-2.20,0.29,0.30,0.30
176.77,3.11,2.85,3.12,2.85,-2.85,-2.98,-2.13,0.26,0.26,0.26
178.54,3.02,2.80,3.01,2.79,-2.79,-2.90,-2.06,0.23,0.22,0.22
180.32,2.91,2.73,2.91,2.73,-2.72,-2.81,-2.00,0.19,0.19,0.18
182.13,2.80,2.65,2.81,2.66,-2.66,-2.73,-1.94,0.14,0.16,0.15
183.95,2.72,2.61,2.71,2.60,-2.59,-2.64,-1.88,0.13,0.12,0.11
185.79,2.61,2.53,2.61,2.53,-2.53,-2.56,-1.82,0.08,0.08,0.08
187.65,2.50,2.46,2.51,2.47,-2.46,-2.47,-1.76,0.04,0.05,0.04
189.52,2.41,2.40,2.41,2.39,-2.40,-2.39,-1.70,0.02,0.01,0.01
191.42,2.31,2.33,2.31,2.33,-2.33,-2.30,-1.65,-0.02,-0.02,-0.02
193.33,2.20,2.25,2.21,2.26,-2.26,-2.22,-1.60,-0.06,-0.05,-0.05
195.27,2.12,2.20,2.12,2.19,-2.20,-2.13,-1.54,-0.07,-0.08,-0.08
197.22,2.03,2.14,2.02,2.13,-2.13,-2.05,-1.49,-0.10,-0.10,-0.11
199.19,1.92,2.06,1.93,2.07,-2.06,-1.97,-1.45,-0.14,-0.13,-0.14
201.18,1.84,2.00,1.84,2.00,-1.99,-1.88,-1.40,-0.15,-0.15,-0.16
203.19,1.75,1.93,1.75,1.92,-1.93,-1.80,-1.35,-0.17,-0.18,-0.18
205.23,1.65,1.85,1.66,1.85,-1.86,-1.72,-1.31,-0.20,-0.20,-0.20
207.28,1.57,1.78,1.57,1.78,-1.79,-1.64,-1.26,-0.21,-0.22,-0.21
209.35,1.49,1.72,1.49,1.72,-1.72,-1.56,-1.22,-0.22,-0.23,-0.23
211.44,1.40,1.65,1.41,1.65,-1.65,-1.48,-1.17,-0.24,-0.24,-0.25
213.56,1.33,1.59,1.32,1.58,-1.58,-1.40,-1.13,-0.24,-0.25,-0.26
215.69,1.23,1.49,1.24,1.50,-1.51,-1.32,-1.09,-0.28,-0.26,-0.26
217.85,1.17,1.44,1.17,1.44,-1.44,-1.24,-1.05,-0.27,-0.27,-0.27
220.03,1.09,1.37,1.09,1.37,-1.37,-1.16,-1.01,-0.28,-0.28,-0.28
222.23,1.02,1.31,1.02,1.30,-1.30,-1.08,-0.97,-0.28,-0.28,-0.29
224.45,0.94,1.23,0.94,1.23,-1.23,-1.00,-0.93,-0.29,-0.29,-0.29
226.70,0.86,1.15,0.87,1.16,-1.16,-0.93,-0.88,-0.30,-0.29,-0.29
228.96,0.81,1.10,0.80,1.09,-1.09,-0.85,-0.84,-0.28,-0.29,-0.29
231.25,0.73,1.01,0.74,1.02,-1.02,-0.78,-0.80,-0.29,-0.28,-0.28
233.57,0.67,0.95,0.67,0.95,-0.95,-0.70,-0.76,-0.28,-0.28,-0.28
235.90,0.60,0.88,0.61,0.88,-0.87,-0.62,-0.72,-0.27,-0.27,-0.28
238.26,0.54,0.81,0.54,0.81,-0.80,-0.55,-0.67,-0.26,-0.26,-0.27
240.64,0.47,0.73,0.47,0.72,-0.72,-0.47,-0.63,-0.25,-0.25,-0.26
243.05,0.39,0.64,0.39,0.64,-0.64,-0.40,-0.58,-0.25,-0.25,-0.25
245.48,0.31,0.55,0.32,0.56,-0.56,-0.33,-0.54,-0.25,-0.24,-0.24
247.93,0.25,0.48,0.25,0.47,-0.48,-0.25,-0.49,-0.22,-0.23,-0.23
250.41,0.18,0.40,0.18,0.39,-0.39,-0.18,-0.44,-0.21,-0.21,-0.22
252.92,0.10,0.30,0.11,0.30,-0.30,-0.11,-0.39,-0.20,-0.20,-0.20
255.45,0.03,0.21,0.03,0.21,-0.21,-0.03,-0.34,-0.18,-0.18,-0.18
258.00,-0.05,0.12,-0.04,0.12,-0.12,0.04,-0.29,-0.17,-0.16,-0.17
260.58,-0.11,0.04,-0.11,0.04,-0.03,0.11,-0.24,-0.14,-0.14,-0.15
263.19,-0.18,-0.05,-0.18,-0.06,0.06,0.18,-0.18,-0.12,-0.13,-0.13
265.82,-0.26,-0.15,-0.25,-0.15,0.15,0.26,-0.13,-0.11,-0.11,-0.11
268.48,-0.34,-0.25,-0.33,-0.24,0.24,0.33,-0.07,-0.10,-0.09,-0.09
271.16,-0.39,-0.32,-0.40,-0.33,0.33,0.40,-0.01,-0.06,-0.07,-0.07
273.87,-0.47,-0.42,-0.46,-0.42,0.42,0.48,0.04,-0.05,-0.05,-0.05
276.61,-0.53,-0.50,-0.53,-0.50,0.51,0.55,0.10,-0.02,-0.02,-0.03
279.38,-0.60,-0.59,-0.60,-0.59,0.60,0.62,0.17,-0.00,-0.01,-0.01
282.17,-0.68,-0.69,-0.67,-0.68,0.68,0.69,0.23,0.01,0.02,0.01
284.99,-0.73,-0.76,-0.74,-0.77,0.77,0.77,0.29,0.04,0.03,0.03
287.84,-0.81,-0.86,-0.81,-0.86,0.86,0.84,0.36,0.05,0.05,0.05
290.72,-0.89,-0.96,-0.88,-0.95,0.95,0.91,0.43,0.06,0.07,0.07
293.63,-0.94,-1.03,-0.94,-1.04,1.03,0.99,0.49,0.10,0.09,0.09
296.57,-1.01,-1.12,-1.01,-1.12,1.12,1.06,0.56,0.12,0.11,0.11
299.53,-1.08,-1.21,-1.07,-1.21,1.22,1.13,0.63,0.14,0.14,0.13
302.53,-1.15,-1.30,-1.14,-1.30,1.31,1.21,0.70,0.16,0.16,0.15
305.55,-1.21,-1.39,-1.21,-1.39,1.40,1.28,0.78,0.19,0.19,0.18
308.61,-1.29,-1.49,-1.29,-1.49,1.49,1.36,0.85,0.20,0.21,0.20
311.69,-1.36,-1.59,-1.36,-1.59,1.58,1.43,0.93,0.23,0.23,0.23
314.81,-1.43,-1.69,-1.43,-1.68,1.68,1.51,1.00,0.25,0.25,0.26
317.96,-1.49,-1.77,-1.49,-1.78,1.77,1.58,1.08,0.28,0.28,0.28
321.14,-1.56,-1.86,-1.56,-1.86,1.86,1.66,1.16,0.30,0.30,0.30
324.35,-1.63,-1.95,-1.62,-1.94,1.95,1.73,1.24,0.32,0.33,0.32
327.59,-1.68,-2.02,-1.69,-2.03,2.04,1.81,1.32,0.36,0.35,0.34
330.87,-1.76,-2.12,-1.76,-2.12,2.13,1.89,1.40,0.37,0.37,0.36
334.18,-1.84,-2.22,-1.83,-2.21,2.22,1.96,1.49,0.38,0.38,0.38
337.52,-1.91,-2.31,-1.91,-2.31,2.30,2.04,1.57,0.40,0.40,0.40
340.90,-1.97,-2.39,-1.97,-2.40,2.39,2.12,1.66,0.42,0.42,0.42
344.30,-2.04,-2.48,-2.04,-2.48,2.48,2.20,1.75,0.44,0.44,0.44
347.75,-2.10,-2.56,-2.10,-2.56,2.56,2.27,1.84,0.46,0.46,0.46
351.23,-2.16,-2.64,-2.16,-2.64,2.64,2.35,1.93,0.49,0.48,0.48
354.74,-2.22,-2.72,-2.22,-2.72,2.72,2.43,2.03,0.51,0.50,0.50
358.28,-2.29,-2.80,-2.28,-2.80,2.80,2.51,2.12,0.52,0.52,0.51
361.87,-2.34,-2.87,-2.34,-2.88,2.88,2.59,2.22,0.54,0.53,0.53
365.49,-2.41,-2.96,-2.41,-2.96,2.95,2.66,2.32,0.55,0.55,0.55
369.14,-2.47,-3.03,-2.46,-3.03,3.03,2.74,2.42,0.56,0.56,0.56
372.83,-2.52,-3.10,-2.52,-3.10,3.09,2.82,2.52,0.58,0.58,0.58
376.56,-2.57,-3.16,-2.57,-3.16,3.16,2.90,2.62,0.59,0.59,0.59
380.33,-2.61,-3.22,-2.62,-3.23,3.23,2.98,2.73,0.62,0.61,0.61
384.13,-2.67,-3.29,-2.66,-3.28,3.29,3.06,2.83,0.62,0.63,0.62
387.97,-2.72,-3.35,-2.71,-3.34,3.35,3.13,2.94,0.63,0.64,0.63
391.85,-2.75,-3.39,-2.76,-3.40,3.41,3.21,3.05,0.66,0.65,0.64
395.77,-2.81,-3.47,-2.81,-3.47,3.47,3.29,3.15,0.66,0.66,0.66
399.73,-2.86,-3.53,-2.86,-3.53,3.53,3.36,3.26,0.67,0.67,0.67
403.72,-2.92,-3.60,-2.91,-3.59,3.58,3.44,3.37,0.67,0.68,0.68
407.76,-2.95,-3.64,-2.95,-3.65,3.64,3.51,3.48,0.69,0.69,0.69
411.84,-2.99,-3.69,-2.99,-3.69,3.69,3.59,3.59,0.70,0.70,0.70
415.96,-3.03,-3.74,-3.02,-3.74,3.74,3.66,3.70,0.71,0.72,0.71
420.12,-3.06,-3.78,-3.06,-3.79,3.79,3.73,3.81,0.73,0.72,0.72
424.32,-3.10,-3.83,-3.10,-3.83,3.83,3.80,3.92,0.74,0.73,0.73
428.56,-3.15,-3.89,-3.14,-3.88,3.88,3.87,4.02,0.73,0.74,0.74
432.85,-3.16,-3.91,-3.17,-3.92,3.92,3.94,4.13,0.76,0.75,0.75
437.18,-3.20,-3.96,-3.19,-3.96,3.96,4.00,4.23,0.76,0.77,0.76
441.55,-3.22,-4.00,-3.22,-4.00,4.00,4.06,4.33,0.78,0.78,0.78
445.96,-3.24,-4.03,-3.24,-4.04,4.04,4.12,4.42,0.80,0.80,0.79
450.42,-3.28,-4.08,-3.27,-4.08,4.08,4.18,4.51,0.80,0.81,0.80
454.93,-3.29,-4.11,-3.30,-4.11,4.11,4.24,4.60,0.82,0.82,0.82
459.48,-3.32,-4.15,-3.31,-4.15,4.15,4.29,4.68,0.83,0.83,0.83
464.07,-3.34,-4.18,-3.33,-4.18,4.18,4.34,4.75,0.84,0.85,0.84
468.71,-3.34,-4.20,-3.35,-4.21,4.21,4.39,4.82,0.87,0.86,0.86
473.40,-3.38,-4.25,-3.37,-4.24,4.24,4.44,4.88,0.86,0.88,0.87
478.13,-3.38,-4.27,-3.37,-4.26,4.27,4.48,4.94,0.89,0.90,0.89
482.91,-3.38,-4.28,-3.39,-4.29,4.30,4.52,4.99,0.92,0.91,0.90
487.74,-3.39,-4.31,-3.40,-4.32,4.33,4.55,5.02,0.94,0.93,0.92
492.62,-3.43,-4.37,-3.41,-4.35,4.35,4.58,5.05,0.93,0.94,0.94
497.55,-3.43,-4.38,-3.43,-4.38,4.38,4.61,5.08,0.95,0.95,0.95
502.52,-3.43,-4.40,-3.43,-4.40,4.40,4.63,5.09,0.97,0.96,0.97
507.55,-3.43,-4.41,-3.43,-4.42,4.41,4.65,5.10,0.98,0.98,0.98
512.62,-3.43,-4.43,-3.43,-4.43,4.43,4.67,5.09,1.00,1.00,1.00
517.75,-3.43,-4.45,-3.41,-4.44,4.44,4.68,5.08,1.01,1.02,1.02
522.93,-3.39,-4.43,-3.40,-4.44,4.44,4.69,5.06,1.06,1.05,1.04
528.16,-3.38,-4.43,-3.39,-4.44,4.45,4.70,5.04,1.07,1.06,1.05
533.44,-3.38,-4.45,-3.37,-4.44,4.45,4.70,5.00,1.07,1.08,1.07
538.77,-3.37,-4.46,-3.36,-4.46,4.45,4.70,4.96,1.09,1.09,1.09
