frequency,raw,error,smoothed,error_smoothed,equalization,parametric_eq,fixed_band_eq,equalized_raw,equalized_smoothed,target
20.00,-7.22,-8.34,-7.28,-8.43,8.43,8.56,2.07,1.21,1.15,1.12
20.20,-7.12,-8.29,-7.16,-8.35,8.35,8.48,2.13,1.23,1.19,1.17
20.40,-7.03,-8.25,-7.04,-8.27,8.27,8.40,2.19,1.24,1.23,1.22
20.61,-6.93,-8.18,-6.92,-8.18,8.18,8.32,2.26,1.25,1.26,1.25
20.81,-6.84,-8.14,-6.80,-8.09,8.09,8.23,2.32,1.26,1.29,1.30
21.02,-6.74,-8.08,-6.69,-8.01,8.01,8.14,2.39,1.27,1.32,1.34
21.23,-6.61,-7.97,-6.57,-7.91,7.91,8.05,2.46,1.31,1.34,1.36
21.44,-6.49,-7.87,-6.45,-7.82,7.82,7.95,2.53,1.33,1.37,1.38
21.66,-6.36,-7.76,-6.34,-7.72,7.72,7.86,2.61,1.36,1.39,1.40
21.87,-6.23,-7.64,-6.22,-7.63,7.63,7.76,2.69,1.40,1.41,1.41
22.09,-6.11,-7.54,-6.11,-7.53,7.53,7.66,2.76,1.42,1.42,1.43
22.31,-6.01,-7.45,-5.99,-7.42,7.42,7.56,2.85,1.42,1.43,1.44
22.54,-5.90,-7.34,-5.86,-7.30,7.30,7.46,2.93,1.40,1.44,1.44
22.76,-5.79,-7.23,-5.74,-7.19,7.19,7.36,3.01,1.40,1.44,1.44
22.99,-5.68,-7.11,-5.63,-7.07,7.07,7.25,3.10,1.40,1.45,1.43
23.22,-5.53,-6.96,-5.52,-6.97,6.97,7.15,3.19,1.44,1.45,1.43
23.45,-5.37,-6.80,-5.41,-6.86,6.86,7.04,3.28,1.49,1.45,1.43
23.69,-5.21,-6.66,-5.30,-6.74,6.74,6.94,3.38,1.53,1.45,1.44
23.92,-5.05,-6.49,-5.18,-6.63,6.63,6.83,3.47,1.58,1.45,1.44
24.16,-4.98,-6.42,-5.06,-6.51,6.51,6.72,3.57,1.53,1.45,1.44
24.40,-4.96,-6.41,-4.96,-6.40,6.40,6.62,3.66,1.45,1.45,1.45
24.65,-4.93,-6.37,-4.85,-6.30,6.30,6.51,3.76,1.37,1.45,1.44
24.89,-4.90,-6.34,-4.76,-6.20,6.20,6.40,3.86,1.31,1.45,1.44
25.14,-4.79,-6.23,-4.67,-6.11,6.11,6.29,3.97,1.33,1.45,1.44
25.39,-4.61,-6.06,-4.58,-6.02,6.02,6.18,4.07,1.42,1.45,1.45
25.65,-4.43,-5.88,-4.49,-5.94,5.94,6.07,4.17,1.51,1.45,1.45
25.91,-4.25,-5.70,-4.40,-5.84,5.84,5.96,4.27,1.59,1.45,1.44
26.16,-4.17,-5.61,-4.30,-5.75,5.75,5.85,4.37,1.58,1.45,1.44
26.43,-4.15,-5.59,-4.19,-5.64,5.64,5.75,4.47,1.49,1.44,1.44
26.69,-4.12,-5.56,-4.08,-5.52,5.52,5.64,4.57,1.40,1.44,1.44
26.96,-4.10,-5.54,-3.95,-5.39,5.39,5.53,4.67,1.30,1.44,1.44
27.23,-3.96,-5.40,-3.83,-5.27,5.27,5.42,4.76,1.31,1.44,1.44
27.50,-3.79,-5.23,-3.71,-5.15,5.15,5.31,4.85,1.36,1.44,1.44
27.77,-3.63,-5.06,-3.59,-5.03,5.03,5.20,4.94,1.40,1.44,1.43
28.05,-3.46,-4.89,-3.48,-4.92,4.92,5.10,5.02,1.46,1.44,1.43
28.33,-3.32,-4.74,-3.37,-4.81,4.81,4.99,5.10,1.49,1.43,1.42
28.62,-3.17,-4.60,-3.26,-4.69,4.69,4.88,5.17,1.52,1.43,1.42
28.90,-3.03,-4.46,-3.14,-4.57,4.57,4.78,5.23,1.54,1.43,1.43
29.19,-2.94,-4.36,-3.01,-4.44,4.44,4.67,5.29,1.51,1.43,1.42
29.48,-2.88,-4.31,-2.89,-4.32,4.32,4.56,5.33,1.44,1.43,1.43
29.78,-2.82,-4.24,-2.76,-4.19,4.19,4.46,5.37,1.37,1.43,1.42
30.08,-2.74,-4.17,-2.65,-4.07,4.07,4.35,5.40,1.33,1.43,1.43
30.38,-2.60,-4.02,-2.54,-3.96,3.96,4.25,5.42,1.36,1.42,1.42
30.68,-2.46,-3.88,-2.44,-3.86,3.86,4.15,5.43,1.40,1.42,1.42
30.99,-2.33,-3.75,-2.35,-3.77,3.77,4.04,5.43,1.44,1.42,1.42
31.30,-2.23,-3.64,-2.25,-3.67,3.67,3.94,5.42,1.44,1.42,1.41
31.61,-2.13,-3.54,-2.16,-3.58,3.58,3.84,5.40,1.45,1.42,1.41
31.93,-2.03,-3.44,-2.06,-3.47,3.47,3.74,5.37,1.44,1.41,1.41
32.24,-1.94,-3.34,-1.96,-3.37,3.37,3.64,5.33,1.43,1.41,1.40
32.57,-1.84,-3.24,-1.86,-3.27,3.27,3.54,5.27,1.43,1.40,1.40
32.89,-1.74,-3.14,-1.77,-3.17,3.17,3.44,5.21,1.43,1.40,1.40
33.22,-1.67,-3.06,-1.67,-3.07,3.07,3.34,5.14,1.40,1.40,1.39
33.55,-1.61,-3.00,-1.57,-2.96,2.96,3.24,5.06,1.36,1.39,1.39
33.89,-1.55,-2.93,-1.47,-2.85,2.85,3.14,4.97,1.31,1.39,1.38
34.23,-1.43,-2.81,-1.36,-2.74,2.74,3.04,4.88,1.31,1.38,1.38
34.57,-1.28,-2.65,-1.26,-2.64,2.64,2.95,4.77,1.36,1.38,1.37
34.92,-1.13,-2.50,-1.16,-2.53,2.53,2.85,4.67,1.40,1.37,1.37
35.27,-1.05,-2.41,-1.06,-2.43,2.43,2.76,4.55,1.38,1.37,1.36
35.62,-0.99,-2.35,-0.96,-2.33,2.33,2.66,4.43,1.34,1.37,1.36
35.97,-0.93,-2.29,-0.86,-2.23,2.23,2.57,4.31,1.30,1.36,1.36
36.33,-0.75,-2.11,-0.76,-2.13,2.13,2.48,4.18,1.38,1.36,1.36
36.70,-0.55,-1.90,-0.66,-2.03,2.03,2.38,4.06,1.48,1.36,1.35
37.06,-0.39,-1.74,-0.56,-1.93,1.93,2.29,3.92,1.54,1.36,1.35
37.43,-0.42,-1.78,-0.47,-1.83,1.83,2.20,3.79,1.41,1.36,1.36
37.81,-0.45,-1.81,-0.38,-1.74,1.74,2.11,3.66,1.29,1.36,1.36
38.19,-0.40,-1.75,-0.29,-1.65,1.65,2.02,3.52,1.25,1.36,1.35
38.57,-0.27,-1.63,-0.20,-1.57,1.57,1.93,3.39,1.30,1.36,1.36
38.95,-0.14,-1.51,-0.11,-1.48,1.48,1.84,3.25,1.34,1.36,1.37
39.34,-0.04,-1.40,-0.02,-1.39,1.39,1.75,3.11,1.35,1.36,1.36
39.74,0.06,-1.30,0.06,-1.30,1.30,1.67,2.98,1.37,1.36,1.36
40.14,0.15,-1.21,0.14,-1.23,1.23,1.58,2.84,1.38,1.36,1.36
40.54,0.22,-1.14,0.21,-1.15,1.15,1.49,2.71,1.37,1.36,1.36
40.94,0.30,-1.05,0.29,-1.06,1.06,1.41,2.57,1.37,1.36,1.35
41.35,0.40,-0.95,0.39,-0.97,0.97,1.32,2.44,1.37,1.35,1.35
41.76,0.51,-0.83,0.48,-0.86,0.86,1.24,2.31,1.38,1.34,1.34
42.18,0.59,-0.75,0.56,-0.77,0.77,1.16,2.18,1.36,1.34,1.34
42.60,0.64,-0.69,0.64,-0.69,0.69,1.07,2.05,1.33,1.33,1.33
43.03,0.68,-0.64,0.70,-0.61,0.61,0.99,1.92,1.29,1.32,1.32
43.46,0.74,-0.57,0.77,-0.53,0.53,0.91,1.79,1.28,1.30,1.31
43.90,0.81,-0.48,0.84,-0.45,0.45,0.83,1.67,1.27,1.29,1.29
44.33,0.92,-0.35,0.91,-0.37,0.37,0.75,1.54,1.30,1.28,1.27
44.78,1.06,-0.19,0.97,-0.29,0.29,0.67,1.42,1.35,1.27,1.25
45.23,1.10,-0.14,1.05,-0.20,0.20,0.59,1.30,1.31,1.25,1.24
45.68,1.06,-0.17,1.12,-0.12,0.12,0.51,1.18,1.18,1.24,1.23
46.13,1.06,-0.15,1.18,-0.04,0.04,0.43,1.06,1.10,1.23,1.21
46.60,1.18,-0.03,1.24,0.03,-0.03,0.36,0.94,1.16,1.21,1.21
47.06,1.29,0.10,1.30,0.10,-0.10,0.28,0.82,1.19,1.20,1.19
47.53,1.39,0.21,1.36,0.18,-0.18,0.21,0.71,1.21,1.18,1.18
48.01,1.48,0.30,1.42,0.26,-0.26,0.13,0.59,1.22,1.17,1.18
48.49,1.53,0.37,1.49,0.33,-0.33,0.06,0.48,1.20,1.15,1.16
48.97,1.58,0.44,1.54,0.40,-0.40,-0.02,0.37,1.18,1.14,1.14
49.46,1.63,0.51,1.59,0.46,-0.46,-0.09,0.26,1.17,1.13,1.12
49.96,1.68,0.58,1.65,0.54,-0.54,-0.16,0.15,1.15,1.11,1.10
50.46,1.62,0.53,1.71,0.61,-0.61,-0.24,0.04,1.01,1.10,1.09
50.96,1.56,0.48,1.75,0.67,-0.67,-0.31,-0.07,0.90,1.09,1.08
51.47,1.75,0.69,1.79,0.72,-0.72,-0.38,-0.18,1.03,1.07,1.06
51.99,1.96,0.91,1.83,0.77,-0.77,-0.45,-0.28,1.19,1.06,1.05
52.51,1.95,0.91,1.86,0.82,-0.82,-0.52,-0.38,1.13,1.05,1.04
53.03,1.94,0.90,1.89,0.86,-0.86,-0.58,-0.48,1.08,1.04,1.04
53.56,1.91,0.89,1.91,0.89,-0.89,-0.65,-0.58,1.02,1.02,1.02
54.10,1.90,0.89,1.94,0.93,-0.93,-0.72,-0.68,0.98,1.01,1.01
54.64,2.03,1.04,1.96,0.96,-0.96,-0.79,-0.77,1.07,1.00,0.99
55.18,2.07,1.08,2.00,1.00,-1.00,-0.85,-0.87,1.07,0.99,0.99
55.74,1.92,0.95,2.03,1.05,-1.05,-0.92,-0.96,0.87,0.98,0.97
56.29,1.96,1.00,2.07,1.10,-1.10,-0.98,-1.05,0.86,0.97,0.96
56.86,2.18,1.23,2.10,1.15,-1.15,-1.05,-1.13,1.03,0.95,0.95
57.42,2.15,1.23,2.13,1.19,-1.19,-1.11,-1.22,0.96,0.94,0.92
58.00,2.04,1.13,2.16,1.24,-1.24,-1.17,-1.30,0.80,0.92,0.91
58.58,2.11,1.21,2.20,1.30,-1.30,-1.24,-1.38,0.81,0.89,0.90
59.16,2.20,1.32,2.25,1.38,-1.38,-1.30,-1.45,0.83,0.87,0.88
59.76,2.33,1.47,2.30,1.46,-1.46,-1.36,-1.52,0.87,0.84,0.86
60.35,2.42,1.60,2.36,1.55,-1.55,-1.42,-1.59,0.88,0.81,0.82
60.96,2.49,1.71,2.41,1.63,-1.63,-1.48,-1.66,0.86,0.78,0.78
61.57,2.45,1.71,2.47,1.72,-1.72,-1.54,-1.72,0.73,0.74,0.74
62.18,2.45,1.75,2.52,1.82,-1.82,-1.60,-1.78,0.64,0.70,0.70
62.80,2.56,1.91,2.56,1.89,-1.89,-1.66,-1.83,0.67,0.66,0.65
63.43,2.54,1.93,2.59,1.97,-1.97,-1.71,-1.88,0.57,0.62,0.61
64.07,2.50,1.94,2.62,2.04,-2.04,-1.77,-1.93,0.46,0.58,0.56
64.71,2.68,2.16,2.64,2.11,-2.11,-1.83,-1.98,0.58,0.53,0.52
65.35,2.74,2.26,2.63,2.14,-2.14,-1.88,-2.02,0.60,0.48,0.48
66.01,2.71,2.28,2.60,2.17,-2.17,-1.94,-2.06,0.54,0.44,0.43
66.67,2.59,2.21,2.57,2.18,-2.18,-1.99,-2.10,0.42,0.39,0.38
67.33,2.49,2.16,2.52,2.18,-2.18,-2.05,-2.14,0.32,0.34,0.33
68.01,2.42,2.13,2.45,2.16,-2.16,-2.10,-2.17,0.26,0.29,0.29
68.69,2.38,2.14,2.37,2.13,-2.13,-2.15,-2.20,0.25,0.24,0.24
69.37,2.28,2.09,2.26,2.07,-2.07,-2.21,-2.23,0.22,0.19,0.19
70.07,2.14,2.00,2.11,1.97,-1.97,-2.26,-2.26,0.17,0.14,0.14
70.77,1.96,1.87,1.95,1.86,-1.86,-2.31,-2.29,0.10,0.08,0.09
71.48,1.81,1.77,1.76,1.73,-1.73,-2.36,-2.32,0.08,0.03,0.04
72.19,1.66,1.69,1.54,1.56,-1.56,-2.41,-2.34,0.10,-0.03,-0.03
72.91,1.46,1.55,1.32,1.41,-1.41,-2.46,-2.37,0.06,-0.08,-0.09
73.64,1.26,1.40,1.12,1.26,-1.26,-2.51,-2.40,0.00,-0.14,-0.14
74.38,1.01,1.21,0.91,1.11,-1.11,-2.56,-2.42,-0.10,-0.19,-0.20
75.12,0.72,0.98,0.72,0.97,-0.97,-2.60,-2.45,-0.25,-0.25,-0.26
75.87,0.42,0.74,0.54,0.85,-0.85,-2.65,-2.48,-0.42,-0.31,-0.32
76.63,0.23,0.60,0.39,0.75,-0.75,-2.70,-2.51,-0.52,-0.36,-0.37
77.40,0.09,0.51,0.28,0.69,-0.69,-2.74,-2.53,-0.60,-0.41,-0.42
78.17,-0.01,0.47,0.20,0.66,-0.66,-2.79,-2.56,-0.67,-0.47,-0.48
78.95,-0.08,0.44,0.14,0.66,-0.66,-2.83,-2.60,-0.73,-0.52,-0.52
79.74,-0.01,0.56,0.12,0.69,-0.69,-2.88,-2.63,-0.69,-0.57,-0.57
80.54,0.13,0.75,0.13,0.75,-0.75,-2.92,-2.66,-0.62,-0.62,-0.62
81.35,0.22,0.89,0.18,0.85,-0.85,-2.97,-2.70,-0.62,-0.66,-0.67
82.16,0.24,0.96,0.27,0.98,-0.98,-3.01,-2.74,-0.74,-0.71,-0.72
82.98,0.49,1.25,0.38,1.14,-1.14,-3.05,-2.78,-0.65,-0.76,-0.76
83.81,0.70,1.51,0.52,1.33,-1.33,-3.09,-2.82,-0.62,-0.81,-0.81
84.65,0.77,1.63,0.68,1.53,-1.53,-3.13,-2.87,-0.76,-0.85,-0.86
85.50,0.81,1.71,0.85,1.75,-1.75,-3.17,-2.91,-0.94,-0.90,-0.90
86.35,0.92,1.87,1.02,1.97,-1.97,-3.21,-2.96,-1.05,-0.95,-0.95
87.22,1.11,2.11,1.17,2.18,-2.18,-3.25,-3.01,-1.07,-1.00,-1.00
88.09,1.36,2.41,1.33,2.38,-2.38,-3.29,-3.07,-1.02,-1.05,-1.05
88.97,1.43,2.54,1.48,2.58,-2.58,-3.33,-3.12,-1.15,-1.10,-1.11
89.86,1.61,2.77,1.63,2.79,-2.79,-3.37,-3.18,-1.17,-1.15,-1.16
90.76,1.83,3.04,1.77,2.97,-2.97,-3.41,-3.24,-1.14,-1.20,-1.21
91.66,1.94,3.20,1.90,3.15,-3.15,-3.44,-3.31,-1.21,-1.26,-1.26
92.58,2.06,3.38,2.01,3.31,-3.31,-3.48,-3.37,-1.25,-1.31,-1.32
93.51,2.26,3.63,2.11,3.47,-3.47,-3.52,-3.44,-1.21,-1.36,-1.37
94.44,2.27,3.68,2.22,3.63,-3.63,-3.55,-3.51,-1.36,-1.41,-1.41
95.39,2.16,3.62,2.31,3.77,-3.77,-3.59,-3.58,-1.61,-1.46,-1.46
96.34,2.31,3.82,2.37,3.88,-3.88,-3.62,-3.66,-1.57,-1.51,-1.51
97.30,2.52,4.08,2.41,3.97,-3.97,-3.65,-3.74,-1.44,-1.55,-1.56
98.28,2.59,4.20,2.44,4.04,-4.04,-3.69,-3.81,-1.45,-1.60,-1.61
99.26,2.43,4.08,2.47,4.12,-4.12,-3.72,-3.89,-1.68,-1.65,-1.65
100.25,2.37,4.07,2.48,4.18,-4.18,-3.75,-3.98,-1.80,-1.70,-1.70
101.25,2.52,4.27,2.48,4.23,-4.23,-3.79,-4.06,-1.70,-1.75,-1.75
102.27,2.51,4.31,2.48,4.28,-4.28,-3.82,-4.14,-1.76,-1.79,-1.80
103.29,2.50,4.35,2.48,4.32,-4.32,-3.85,-4.23,-1.82,-1.84,-1.85
104.32,2.47,4.36,2.47,4.36,-4.36,-3.88,-4.31,-1.89,-1.89,-1.89
105.37,2.38,4.32,2.47,4.41,-4.41,-3.91,-4.40,-2.03,-1.94,-1.94
106.42,2.34,4.33,2.46,4.46,-4.46,-3.94,-4.48,-2.12,-1.99,-1.99
107.48,2.44,4.49,2.45,4.49,-4.49,-3.97,-4.57,-2.05,-2.05,-2.05
108.56,2.48,4.58,2.43,4.53,-4.53,-4.00,-4.65,-2.05,-2.10,-2.10
109.64,2.46,4.61,2.43,4.58,-4.58,-4.02,-4.74,-2.12,-2.15,-2.15
110.74,2.44,4.65,2.42,4.63,-4.63,-4.05,-4.82,-2.18,-2.20,-2.21
111.85,2.42,4.67,2.41,4.67,-4.67,-4.08,-4.89,-2.25,-2.25,-2.25
112.97,2.42,4.73,2.41,4.72,-4.72,-4.11,-4.97,-2.29,-2.30,-2.31
114.10,2.41,4.77,2.42,4.77,-4.77,-4.13,-5.04,-2.36,-2.35,-2.36
115.24,2.41,4.82,2.42,4.82,-4.82,-4.16,-5.11,-2.41,-2.40,-2.41
116.39,2.41,4.87,2.43,4.87,-4.87,-4.18,-5.17,-2.46,-2.44,-2.46
117.55,2.41,4.91,2.43,4.92,-4.92,-4.21,-5.23,-2.51,-2.49,-2.50
118.73,2.42,4.96,2.43,4.95,-4.95,-4.23,-5.29,-2.53,-2.53,-2.54
119.92,2.42,4.99,2.42,4.99,-4.99,-4.26,-5.34,-2.56,-2.56,-2.57
121.12,2.34,4.95,2.43,5.03,-5.03,-4.28,-5.38,-2.69,-2.60,-2.61
122.33,2.46,5.10,2.45,5.08,-5.08,-4.30,-5.42,-2.62,-2.64,-2.64
123.55,2.54,5.21,2.46,5.13,-5.13,-4.33,-5.45,-2.59,-2.67,-2.67
124.79,2.56,5.26,2.47,5.17,-5.17,-4.35,-5.48,-2.61,-2.70,-2.70
126.03,2.40,5.13,2.48,5.20,-5.20,-4.37,-5.50,-2.80,-2.73,-2.73
127.29,2.42,5.17,2.48,5.24,-5.24,-4.39,-5.52,-2.82,-2.76,-2.75
128.57,2.45,5.24,2.48,5.27,-5.27,-4.42,-5.52,-2.82,-2.79,-2.79
129.85,2.48,5.30,2.49,5.30,-5.30,-4.44,-5.53,-2.82,-2.82,-2.82
131.15,2.50,5.35,2.49,5.34,-5.34,-4.46,-5.52,-2.83,-2.84,-2.85
132.46,2.57,5.45,2.49,5.37,-5.37,-4.48,-5.51,-2.79,-2.87,-2.88
133.79,2.59,5.50,2.48,5.38,-5.38,-4.50,-5.50,-2.79,-2.90,-2.91
135.12,2.44,5.38,2.46,5.39,-5.39,-4.52,-5.48,-2.95,-2.93,-2.94
136.48,2.41,5.37,2.45,5.40,-5.40,-4.53,-5.46,-2.99,-2.96,-2.96
137.84,2.40,5.40,2.44,5.42,-5.42,-4.55,-5.44,-3.02,-2.98,-3.00
139.22,2.41,5.44,2.43,5.44,-5.44,-4.57,-5.41,-3.03,-3.01,-3.03
140.61,2.41,5.47,2.43,5.47,-5.47,-4.59,-5.38,-3.06,-3.04,-3.06
142.02,2.41,5.49,2.41,5.49,-5.49,-4.61,-5.35,-3.08,-3.08,-3.08
143.44,2.41,5.52,2.40,5.51,-5.51,-4.62,-5.31,-3.10,-3.11,-3.11
144.87,2.38,5.53,2.39,5.54,-5.54,-4.64,-5.28,-3.16,-3.15,-3.15
146.32,2.25,5.44,2.37,5.56,-5.56,-4.66,-5.24,-3.31,-3.19,-3.19
147.78,2.24,5.46,2.34,5.58,-5.58,-4.67,-5.21,-3.34,-3.24,-3.22
149.26,2.33,5.60,2.31,5.61,-5.61,-4.69,-5.17,-3.28,-3.30,-3.27
150.75,2.42,5.75,2.27,5.62,-5.62,-4.70,-5.14,-3.20,-3.35,-3.33
152.26,2.32,5.72,2.21,5.62,-5.62,-4.72,-5.10,-3.30,-3.42,-3.40
153.78,2.22,5.69,2.15,5.63,-5.63,-4.73,-5.07,-3.41,-3.48,-3.47
155.32,2.20,5.74,2.10,5.65,-5.65,-4.75,-5.04,-3.45,-3.55,-3.54
156.88,2.14,5.76,2.04,5.66,-5.66,-4.76,-5.02,-3.51,-3.62,-3.62
158.44,2.04,5.74,1.98,5.67,-5.67,-4.77,-4.99,-3.63,-3.69,-3.70
160.03,1.91,5.69,1.93,5.69,-5.69,-4.79,-4.97,-3.78,-3.76,-3.78
161.63,1.74,5.59,1.89,5.72,-5.72,-4.80,-4.95,-3.97,-3.82,-3.85
163.24,1.66,5.57,1.86,5.74,-5.74,-4.81,-4.93,-4.08,-3.89,-3.91
164.88,1.67,5.63,1.83,5.77,-5.77,-4.83,-4.92,-4.10,-3.94,-3.96
166.53,1.60,5.61,1.80,5.79,-5.79,-4.84,-4.91,-4.19,-3.99,-4.01
168.19,1.77,5.82,1.79,5.81,-5.81,-4.85,-4.90,-4.04,-4.03,-4.05
169.87,1.99,6.08,1.80,5.86,-5.86,-4.86,-4.90,-3.87,-4.06,-4.09
171.57,1.80,5.91,1.82,5.91,-5.91,-4.87,-4.90,-4.11,-4.09,-4.11
173.29,1.79,5.91,1.84,5.94,-5.94,-4.88,-4.90,-4.15,-4.11,-4.12
175.02,1.96,6.09,1.86,5.98,-5.98,-4.89,-4.91,-4.02,-4.12,-4.13
176.77,1.96,6.10,1.88,6.01,-6.01,-4.90,-4.92,-4.05,-4.13,-4.14
178.54,1.96,6.11,1.91,6.04,-6.04,-4.91,-4.94,-4.08,-4.14,-4.15
180.32,1.96,6.10,1.94,6.08,-6.08,-4.92,-4.96,-4.12,-4.14,-4.14
182.13,1.97,6.10,1.96,6.11,-6.11,-4.93,-4.98,-4.13,-4.15,-4.13
183.95,1.98,6.12,1.97,6.12,-6.12,-4.94,-5.01,-4.14,-4.15,-4.14
185.79,1.99,6.13,1.97,6.13,-6.13,-4.95,-5.04,-4.14,-4.16,-4.14
187.65,2.01,6.17,1.97,6.14,-6.14,-4.95,-5.07,-4.13,-4.17,-4.16
189.52,1.85,6.02,1.96,6.14,-6.14,-4.96,-5.11,-4.29,-4.18,-4.17
191.42,1.81,6.00,1.96,6.15,-6.15,-4.97,-5.15,-4.34,-4.19,-4.19
193.33,1.91,6.12,1.94,6.15,-6.15,-4.98,-5.20,-4.24,-4.21,-4.21
195.27,1.96,6.19,1.93,6.16,-6.16,-4.98,-5.24,-4.19,-4.22,-4.23
197.22,2.05,6.30,1.93,6.17,-6.17,-4.99,-5.29,-4.12,-4.24,-4.25
199.19,2.05,6.32,1.93,6.19,-6.19,-5.00,-5.35,-4.14,-4.26,-4.27
201.18,1.94,6.23,1.94,6.22,-6.22,-5.00,-5.40,-4.28,-4.28,-4.29
203.19,1.90,6.21,1.95,6.25,-6.25,-5.01,-5.46,-4.35,-4.30,-4.31
205.23,1.90,6.23,1.95,6.27,-6.27,-5.01,-5.52,-4.37,-4.32,-4.33
207.28,1.87,6.21,1.95,6.30,-6.30,-5.02,-5.58,-4.42,-4.34,-4.34
209.35,1.82,6.18,1.95,6.31,-6.31,-5.02,-5.64,-4.49,-4.36,-4.36
211.44,1.82,6.21,1.94,6.32,-6.32,-5.03,-5.70,-4.50,-4.38,-4.39
213.56,1.99,6.39,1.92,6.32,-6.32,-5.03,-5.76,-4.32,-4.40,-4.40
215.69,2.07,6.48,1.89,6.30,-6.30,-5.03,-5.82,-4.23,-4.41,-4.41
217.85,1.95,6.37,1.86,6.28,-6.28,-5.04,-5.88,-4.33,-4.42,-4.42
220.03,1.93,6.36,1.83,6.26,-6.26,-5.04,-5.94,-4.33,-4.43,-4.43
222.23,1.93,6.39,1.81,6.24,-6.24,-5.04,-6.00,-4.31,-4.44,-4.46
224.45,1.74,6.19,1.78,6.22,-6.22,-5.05,-6.06,-4.48,-4.44,-4.45
226.70,1.63,6.08,1.74,6.18,-6.18,-5.05,-6.11,-4.55,-4.44,-4.45
228.96,1.68,6.12,1.70,6.13,-6.13,-5.05,-6.15,-4.45,-4.43,-4.44
231.25,1.55,5.98,1.65,6.08,-6.08,-5.05,-6.20,-4.53,-4.43,-4.43
233.57,1.54,5.96,1.62,6.03,-6.03,-5.06,-6.23,-4.49,-4.41,-4.42
235.90,1.61,6.02,1.58,5.98,-5.98,-5.06,-6.26,-4.37,-4.40,-4.41
238.26,1.55,5.95,1.54,5.93,-5.93,-5.06,-6.29,-4.37,-4.38,-4.40
240.64,1.51,5.88,1.52,5.88,-5.88,-5.06,-6.31,-4.37,-4.36,-4.37
243.05,1.48,5.82,1.51,5.85,-5.85,-5.06,-6.32,-4.37,-4.34,-4.34
245.48,1.48,5.80,1.48,5.80,-5.80,-5.06,-6.33,-4.32,-4.32,-4.32
247.93,1.38,5.67,1.45,5.75,-5.75,-5.06,-6.32,-4.37,-4.29,-4.29
250.41,1.35,5.62,1.43,5.70,-5.70,-5.06,-6.31,-4.35,-4.27,-4.27
252.92,1.44,5.68,1.39,5.64,-5.64,-5.06,-6.29,-4.20,-4.25,-4.24
255.45,1.51,5.73,1.35,5.57,-5.57,-5.06,-6.27,-4.06,-4.22,-4.22
258.00,1.51,5.71,1.30,5.50,-5.50,-5.06,-6.23,-3.99,-4.20,-4.20
260.58,1.31,5.49,1.25,5.42,-5.42,-5.06,-6.19,-4.11,-4.17,-4.18
263.19,1.19,5.34,1.19,5.34,-5.34,-5.05,-6.15,-4.15,-4.15,-4.15
265.82,1.17,5.30,1.14,5.27,-5.27,-5.05,-6.09,-4.10,-4.12,-4.13
268.48,1.00,5.11,1.09,5.19,-5.19,-5.05,-6.03,-4.19,-4.10,-4.11
271.16,0.93,5.01,1.04,5.12,-5.12,-5.05,-5.96,-4.19,-4.07,-4.08
273.87,0.92,4.98,1.00,5.05,-5.05,-5.04,-5.89,-4.13,-4.05,-4.06
276.61,0.92,4.95,0.96,4.98,-4.98,-5.04,-5.82,-4.06,-4.02,-4.03
279.38,0.89,4.89,0.92,4.92,-4.92,-5.04,-5.74,-4.03,-4.00,-4.00
282.17,0.86,4.84,0.89,4.86,-4.86,-5.03,-5.65,-3.99,-3.97,-3.98
284.99,0.86,4.80,0.87,4.81,-4.81,-5.03,-5.57,-3.95,-3.94,-3.94
287.84,0.87,4.79,0.87,4.79,-4.79,-5.03,-5.48,-3.91,-3.91,-3.92
290.72,0.88,4.77,0.88,4.76,-4.76,-5.02,-5.39,-3.88,-3.88,-3.89
293.63,0.89,4.75,0.88,4.73,-4.73,-5.02,-5.29,-3.84,-3.85,-3.86
296.57,0.90,4.73,0.89,4.72,-4.72,-5.01,-5.20,-3.82,-3.82,-3.83
299.53,0.92,4.72,0.92,4.72,-4.72,-5.01,-5.11,-3.79,-3.80,-3.80
302.53,0.93,4.71,0.92,4.69,-4.69,-5.00,-5.02,-3.76,-3.77,-3.78
305.55,0.94,4.68,0.93,4.67,-4.67,-4.99,-4.92,-3.73,-3.74,-3.74
308.61,0.95,4.67,0.94,4.66,-4.66,-4.99,-4.83,-3.71,-3.72,-3.72
311.69,0.95,4.64,0.94,4.63,-4.63,-4.98,-4.74,-3.68,-3.69,-3.69
314.81,0.96,4.63,0.92,4.59,-4.59,-4.97,-4.66,-3.63,-3.67,-3.67
317.96,0.84,4.49,0.89,4.54,-4.54,-4.97,-4.57,-3.70,-3.65,-3.65
321.14,0.76,4.40,0.86,4.49,-4.49,-4.96,-4.48,-3.73,-3.63,-3.64
324.35,0.96,4.58,0.83,4.45,-4.45,-4.95,-4.40,-3.49,-3.62,-3.62
327.59,1.02,4.63,0.79,4.39,-4.39,-4.94,-4.32,-3.37,-3.60,-3.61
330.87,0.73,4.33,0.74,4.33,-4.33,-4.93,-4.24,-3.60,-3.59,-3.60
334.18,0.58,4.16,0.69,4.27,-4.27,-4.93,-4.17,-3.69,-3.58,-3.58
337.52,0.74,4.31,0.64,4.21,-4.21,-4.92,-4.10,-3.47,-3.57,-3.57
340.90,0.55,4.11,0.59,4.15,-4.15,-4.91,-4.03,-3.60,-3.56,-3.56
344.30,0.33,3.88,0.53,4.09,-4.09,-4.90,-3.96,-3.76,-3.55,-3.55
347.75,0.37,3.92,0.48,4.03,-4.03,-4.89,-3.90,-3.66,-3.55,-3.55
351.23,0.46,4.00,0.43,3.97,-3.97,-4.88,-3.83,-3.51,-3.54,-3.54
354.74,0.53,4.08,0.38,3.92,-3.92,-4.87,-3.78,-3.39,-3.54,-3.55
358.28,0.30,3.84,0.32,3.86,-3.86,-4.86,-3.72,-3.56,-3.53,-3.54
361.87,0.19,3.73,0.26,3.80,-3.80,-4.84,-3.67,-3.61,-3.53,-3.54
365.49,0.25,3.78,0.22,3.75,-3.75,-4.83,-3.62,-3.50,-3.53,-3.53
369.14,0.20,3.74,0.18,3.71,-3.71,-4.82,-3.57,-3.51,-3.53,-3.54
372.83,0.15,3.69,0.13,3.66,-3.66,-4.81,-3.53,-3.51,-3.53,-3.54
376.56,0.10,3.65,0.07,3.61,-3.61,-4.80,-3.49,-3.51,-3.54,-3.55
380.33,0.03,3.57,0.03,3.57,-3.57,-4.78,-3.45,-3.54,-3.54,-3.54
384.13,-0.01,3.53,-0.02,3.53,-3.53,-4.77,-3.41,-3.54,-3.54,-3.54
387.97,-0.07,3.48,-0.08,3.47,-3.47,-4.76,-3.38,-3.54,-3.55,-3.55
391.85,-0.17,3.39,-0.14,3.41,-3.41,-4.74,-3.35,-3.58,-3.55,-3.56
395.77,-0.23,3.32,-0.20,3.36,-3.36,-4.73,-3.32,-3.59,-3.56,-3.55
399.73,-0.20,3.36,-0.25,3.32,-3.32,-4.71,-3.29,-3.51,-3.56,-3.56
403.72,-0.38,3.18,-0.31,3.26,-3.26,-4.70,-3.27,-3.64,-3.57,-3.56
407.76,-0.47,3.11,-0.38,3.19,-3.19,-4.68,-3.24,-3.66,-3.57,-3.58
411.84,-0.30,3.28,-0.45,3.13,-3.13,-4.67,-3.22,-3.43,-3.58,-3.58
415.96,-0.41,3.17,-0.51,3.07,-3.07,-4.65,-3.20,-3.48,-3.58,-3.58
420.12,-0.52,3.06,-0.55,3.03,-3.03,-4.63,-3.19,-3.55,-3.57,-3.58
424.32,-0.59,2.99,-0.58,2.99,-2.99,-4.62,-3.17,-3.58,-3.57,-3.58
428.56,-0.65,2.92,-0.61,2.95,-2.95,-4.60,-3.16,-3.59,-3.56,-3.57
432.85,-0.68,2.88,-0.63,2.91,-2.91,-4.58,-3.14,-3.59,-3.54,-3.56
437.18,-0.73,2.82,-0.64,2.88,-2.88,-4.56,-3.13,-3.61,-3.52,-3.55
441.55,-0.76,2.75,-0.65,2.85,-2.85,-4.55,-3.12,-3.61,-3.50,-3.51
445.96,-0.76,2.72,-0.65,2.82,-2.82,-4.53,-3.11,-3.57,-3.47,-3.48
450.42,-0.71,2.74,-0.64,2.79,-2.79,-4.51,-3.09,-3.50,-3.43,-3.45
454.93,-0.66,2.74,-0.64,2.75,-2.75,-4.49,-3.08,-3.41,-3.39,-3.40
459.48,-0.48,2.88,-0.64,2.70,-2.70,-4.47,-3.07,-3.18,-3.34,-3.36
464.07,-0.44,2.87,-0.63,2.67,-2.67,-4.45,-3.06,-3.11,-3.30,-3.31
468.71,-0.60,2.65,-0.61,2.64,-2.64,-4.43,-3.05,-3.24,-3.25,-3.25
473.40,-0.58,2.63,-0.60,2.60,-2.60,-4.41,-3.04,-3.18,-3.20,-3.21
478.13,-0.52,2.63,-0.59,2.56,-2.56,-4.38,-3.03,-3.08,-3.15,-3.15
482.91,-0.56,2.55,-0.57,2.53,-2.53,-4.36,-3.01,-3.09,-3.11,-3.11
487.74,-0.65,2.42,-0.56,2.50,-2.50,-4.34,-3.00,-3.15,-3.07,-3.07
