frequency,raw,error,smoothed,error_smoothed,equalization,parametric_eq,fixed_band_eq,equalized_raw,equalized_smoothed,target
20.00,-20.56,-21.83,-20.55,-21.83,21.83,20.96,10.55,1.27,1.29,1.27
20.20,-20.56,-21.87,-20.55,-21.87,21.87,21.07,10.74,1.31,1.32,1.31
20.40,-20.56,-21.90,-20.56,-21.90,21.90,21.17,10.93,1.34,1.35,1.34
20.61,-20.56,-21.93,-20.56,-21.93,21.93,21.27,11.13,1.36,1.37,1.37
20.81,-20.56,-21.97,-20.55,-21.95,21.95,21.36,11.34,1.38,1.40,1.41
21.02,-20.56,-22.01,-20.54,-21.96,21.96,21.45,11.55,1.39,1.42,1.45
21.23,-20.51,-21.97,-20.52,-21.96,21.96,21.54,11.76,1.45,1.44,1.46
21.44,-20.46,-21.94,-20.50,-21.96,21.96,21.61,11.98,1.50,1.46,1.48
21.66,-20.42,-21.91,-20.47,-21.95,21.95,21.68,12.20,1.54,1.48,1.50
21.87,-20.36,-21.87,-20.44,-21.94,21.94,21.74,12.44,1.57,1.50,1.51
22.09,-20.33,-21.86,-20.40,-21.91,21.91,21.80,12.67,1.58,1.51,1.52
22.31,-20.31,-21.84,-20.35,-21.88,21.88,21.84,12.92,1.57,1.53,1.52
22.54,-20.30,-21.84,-20.31,-21.84,21.84,21.88,13.17,1.54,1.54,1.53
22.76,-20.29,-21.84,-20.25,-21.80,21.80,21.91,13.43,1.50,1.55,1.54
22.99,-20.28,-21.83,-20.19,-21.75,21.75,21.93,13.69,1.46,1.55,1.54
23.22,-20.19,-21.75,-20.12,-21.68,21.68,21.94,13.96,1.49,1.56,1.55
23.45,-20.09,-21.65,-20.05,-21.62,21.62,21.95,14.24,1.52,1.57,1.56
23.69,-20.00,-21.57,-19.97,-21.54,21.54,21.94,14.54,1.54,1.57,1.57
23.92,-19.89,-21.47,-19.88,-21.46,21.46,21.93,14.83,1.56,1.57,1.58
24.16,-19.79,-21.38,-19.79,-21.37,21.37,21.91,15.14,1.57,1.58,1.59
24.40,-19.69,-21.29,-19.70,-21.28,21.28,21.88,15.46,1.59,1.58,1.60
24.65,-19.60,-21.18,-19.62,-21.20,21.20,21.84,15.79,1.60,1.58,1.59
24.89,-19.49,-21.08,-19.54,-21.12,21.12,21.79,16.14,1.63,1.58,1.58
25.14,-19.40,-20.99,-19.46,-21.05,21.05,21.74,16.49,1.64,1.59,1.58
25.39,-19.31,-20.90,-19.38,-20.97,20.97,21.68,16.86,1.65,1.59,1.58
25.65,-19.22,-20.81,-19.30,-20.88,20.88,21.61,17.24,1.66,1.59,1.58
25.91,-19.14,-20.71,-19.22,-20.80,20.80,21.53,17.63,1.67,1.58,1.57
26.16,-19.11,-20.69,-19.15,-20.73,20.73,21.45,18.04,1.62,1.58,1.58
26.43,-19.11,-20.69,-19.09,-20.67,20.67,21.36,18.47,1.55,1.58,1.58
26.69,-19.12,-20.70,-19.03,-20.61,20.61,21.26,18.92,1.48,1.57,1.58
26.96,-19.13,-20.71,-18.97,-20.54,20.54,21.16,19.38,1.41,1.57,1.58
27.23,-19.00,-20.57,-18.91,-20.48,20.48,21.06,19.86,1.48,1.57,1.57
27.50,-18.84,-20.41,-18.84,-20.41,20.41,20.95,20.36,1.57,1.57,1.57
27.77,-18.66,-20.22,-18.76,-20.33,20.33,20.83,20.87,1.66,1.57,1.56
28.05,-18.53,-20.09,-18.67,-20.24,20.24,20.72,21.41,1.70,1.56,1.56
28.33,-18.52,-20.07,-18.58,-20.14,20.14,20.59,21.96,1.61,1.56,1.55
28.62,-18.51,-20.07,-18.47,-20.03,20.03,20.47,22.53,1.52,1.56,1.56
28.90,-18.50,-20.06,-18.35,-19.91,19.91,20.34,23.11,1.41,1.55,1.55
29.19,-18.37,-19.92,-18.22,-19.77,19.77,20.21,23.70,1.40,1.55,1.54
29.48,-18.17,-19.72,-18.09,-19.64,19.64,20.08,24.27,1.46,1.55,1.55
29.78,-17.98,-19.53,-17.96,-19.50,19.50,19.94,24.83,1.53,1.54,1.55
30.08,-17.80,-19.34,-17.85,-19.38,19.38,19.81,25.35,1.59,1.54,1.55
30.38,-17.69,-19.22,-17.75,-19.28,19.28,19.67,25.80,1.59,1.53,1.53
30.68,-17.56,-19.10,-17.65,-19.18,19.18,19.53,26.17,1.61,1.53,1.53
30.99,-17.46,-18.98,-17.55,-19.07,19.07,19.39,26.41,1.61,1.52,1.52
31.30,-17.36,-18.87,-17.44,-18.96,18.96,19.25,26.52,1.60,1.52,1.52
31.61,-17.25,-18.77,-17.33,-18.85,18.85,19.11,26.48,1.59,1.51,1.52
31.93,-17.16,-18.66,-17.24,-18.75,18.75,18.97,26.31,1.59,1.51,1.50
32.24,-17.13,-18.62,-17.16,-18.66,18.66,18.82,26.01,1.52,1.50,1.49
32.57,-17.14,-18.63,-17.08,-18.57,18.57,18.68,25.61,1.43,1.49,1.49
32.89,-17.14,-18.63,-17.00,-18.49,18.49,18.54,25.15,1.34,1.49,1.48
33.22,-17.04,-18.53,-16.92,-18.40,18.40,18.39,24.64,1.36,1.48,1.48
33.55,-16.88,-18.36,-16.84,-18.31,18.31,18.25,24.12,1.43,1.48,1.48
33.89,-16.73,-18.21,-16.76,-18.23,18.23,18.11,23.58,1.49,1.47,1.48
34.23,-16.64,-18.12,-16.68,-18.14,18.14,17.97,23.05,1.50,1.47,1.47
34.57,-16.59,-18.05,-16.59,-18.05,18.05,17.82,22.52,1.45,1.46,1.46
34.92,-16.54,-17.99,-16.49,-17.94,17.94,17.68,22.01,1.41,1.45,1.45
35.27,-16.39,-17.84,-16.38,-17.83,17.83,17.54,21.52,1.44,1.45,1.45
35.62,-16.21,-17.64,-16.26,-17.71,17.71,17.40,21.05,1.50,1.44,1.44
35.97,-16.02,-17.46,-16.15,-17.58,17.58,17.26,20.60,1.56,1.44,1.43
36.33,-16.01,-17.44,-16.04,-17.46,17.46,17.12,20.17,1.45,1.43,1.43
36.70,-16.00,-17.43,-15.94,-17.36,17.36,16.98,19.76,1.35,1.42,1.42
37.06,-15.97,-17.38,-15.84,-17.26,17.26,16.85,19.36,1.28,1.41,1.41
37.43,-15.78,-17.19,-15.75,-17.16,17.16,16.71,18.99,1.38,1.40,1.40
37.81,-15.59,-16.99,-15.66,-17.06,17.06,16.57,18.63,1.46,1.40,1.40
38.19,-15.47,-16.85,-15.57,-16.95,16.95,16.44,18.28,1.49,1.39,1.38
38.57,-15.39,-16.77,-15.47,-16.85,16.85,16.30,17.96,1.46,1.38,1.38
38.95,-15.32,-16.70,-15.38,-16.76,16.76,16.17,17.64,1.43,1.37,1.37
39.34,-15.30,-16.66,-15.30,-16.66,16.66,16.04,17.35,1.36,1.37,1.36
39.74,-15.29,-16.64,-15.20,-16.56,16.56,15.90,17.06,1.27,1.36,1.34
40.14,-15.23,-16.57,-15.10,-16.45,16.45,15.77,16.79,1.23,1.35,1.35
40.54,-15.06,-16.40,-14.99,-16.33,16.33,15.64,16.53,1.28,1.34,1.34
40.94,-14.88,-16.22,-14.90,-16.22,16.22,15.51,16.28,1.34,1.32,1.33
41.35,-14.80,-16.12,-14.81,-16.11,16.11,15.38,16.05,1.31,1.31,1.32
41.76,-14.72,-16.02,-14.72,-16.01,16.01,15.26,15.82,1.29,1.29,1.30
42.18,-14.63,-15.91,-14.64,-15.91,15.91,15.13,15.61,1.27,1.27,1.28
42.60,-14.51,-15.77,-14.56,-15.80,15.80,15.00,15.40,1.29,1.24,1.25
43.03,-14.39,-15.63,-14.48,-15.69,15.69,14.88,15.20,1.30,1.22,1.23
43.46,-14.29,-15.50,-14.38,-15.57,15.57,14.75,15.02,1.28,1.19,1.21
43.90,-14.20,-15.35,-14.28,-15.44,15.44,14.63,14.84,1.25,1.16,1.16
44.33,-14.17,-15.30,-14.18,-15.31,15.31,14.51,14.67,1.14,1.13,1.13
44.78,-14.17,-15.26,-14.09,-15.19,15.19,14.38,14.50,1.02,1.10,1.09
45.23,-14.11,-15.17,-14.00,-15.07,15.07,14.26,14.35,0.97,1.08,1.06
45.68,-13.98,-15.00,-13.90,-14.95,14.95,14.14,14.20,0.98,1.05,1.03
46.13,-13.86,-14.87,-13.81,-14.83,14.83,14.02,14.06,0.97,1.02,1.01
46.60,-13.79,-14.78,-13.72,-14.72,14.72,13.91,13.93,0.93,1.00,1.00
47.06,-13.69,-14.67,-13.62,-14.61,14.61,13.79,13.80,0.91,0.99,0.98
47.53,-13.45,-14.42,-13.52,-14.49,14.49,13.67,13.68,1.04,0.97,0.97
48.01,-13.23,-14.19,-13.41,-14.37,14.37,13.56,13.57,1.15,0.96,0.96
48.49,-13.20,-14.16,-13.30,-14.25,14.25,13.44,13.46,1.05,0.95,0.95
48.97,-13.17,-14.11,-13.19,-14.14,14.14,13.33,13.36,0.96,0.95,0.94
49.46,-13.10,-14.03,-13.08,-14.02,14.02,13.21,13.26,0.92,0.94,0.92
49.96,-13.04,-13.97,-12.97,-13.91,13.91,13.10,13.17,0.86,0.94,0.92
50.46,-12.94,-13.86,-12.88,-13.81,13.81,12.99,13.08,0.87,0.93,0.93
50.96,-12.82,-13.76,-12.79,-13.70,13.70,12.87,13.00,0.88,0.92,0.93
51.47,-12.68,-13.60,-12.70,-13.60,13.60,12.76,12.92,0.92,0.90,0.92
51.99,-12.55,-13.45,-12.61,-13.50,13.50,12.65,12.84,0.95,0.88,0.90
52.51,-12.45,-13.33,-12.52,-13.38,13.38,12.54,12.76,0.94,0.86,0.88
53.03,-12.35,-13.21,-12.43,-13.26,13.26,12.44,12.69,0.91,0.83,0.86
53.56,-12.35,-13.17,-12.34,-13.14,13.14,12.33,12.62,0.78,0.80,0.82
54.10,-12.33,-13.11,-12.23,-12.99,12.99,12.22,12.55,0.66,0.76,0.77
54.64,-12.21,-12.93,-12.12,-12.84,12.84,12.11,12.49,0.63,0.72,0.72
55.18,-12.08,-12.76,-12.02,-12.69,12.69,12.01,12.42,0.61,0.67,0.67
55.74,-11.96,-12.57,-11.92,-12.54,12.54,11.90,12.35,0.59,0.62,0.61
56.29,-11.83,-12.39,-11.83,-12.39,12.39,11.80,12.28,0.55,0.56,0.56
56.86,-11.71,-12.21,-11.74,-12.24,12.24,11.69,12.21,0.53,0.50,0.50
57.42,-11.57,-12.00,-11.65,-12.09,12.09,11.59,12.14,0.51,0.44,0.43
58.00,-11.44,-11.81,-11.56,-11.93,11.93,11.49,12.07,0.49,0.37,0.36
58.58,-11.44,-11.75,-11.47,-11.77,11.77,11.39,11.99,0.33,0.30,0.30
59.16,-11.40,-11.65,-11.37,-11.61,11.61,11.28,11.91,0.21,0.24,0.25
59.76,-11.28,-11.46,-11.28,-11.46,11.46,11.18,11.83,0.18,0.17,0.18
60.35,-11.22,-11.33,-11.21,-11.32,11.32,11.08,11.74,0.09,0.11,0.10
60.96,-11.21,-11.26,-11.15,-11.19,11.19,10.98,11.65,-0.02,0.04,0.05
61.57,-11.09,-11.06,-11.09,-11.07,11.07,10.88,11.56,-0.02,-0.02,-0.03
62.18,-10.98,-10.89,-11.03,-10.94,10.94,10.79,11.46,-0.04,-0.08,-0.10
62.80,-10.98,-10.84,-10.97,-10.83,10.83,10.69,11.35,-0.16,-0.14,-0.15
63.43,-10.88,-10.68,-10.90,-10.70,10.70,10.59,11.24,-0.18,-0.20,-0.21
64.07,-10.76,-10.50,-10.84,-10.58,10.58,10.49,11.13,-0.17,-0.25,-0.26
64.71,-10.75,-10.45,-10.77,-10.46,10.46,10.40,11.01,-0.29,-0.31,-0.31
65.35,-10.75,-10.39,-10.70,-10.34,10.34,10.30,10.88,-0.41,-0.35,-0.36
66.01,-10.75,-10.35,-10.62,-10.22,10.22,10.21,10.75,-0.53,-0.40,-0.41
66.67,-10.61,-10.15,-10.54,-10.10,10.10,10.11,10.62,-0.51,-0.44,-0.45
67.33,-10.45,-9.97,-10.45,-9.97,9.97,10.02,10.49,-0.49,-0.48,-0.49
68.01,-10.30,-9.78,-10.36,-9.84,9.84,9.93,10.35,-0.47,-0.52,-0.52
68.69,-10.28,-9.72,-10.28,-9.72,9.72,9.83,10.20,-0.57,-0.56,-0.56
69.37,-10.19,-9.60,-10.19,-9.60,9.60,9.74,10.06,-0.60,-0.60,-0.60
70.07,-10.07,-9.44,-10.11,-9.47,9.47,9.65,9.91,-0.60,-0.63,-0.64
70.77,-10.07,-9.42,-10.03,-9.36,9.36,9.56,9.77,-0.72,-0.67,-0.66
71.48,-9.96,-9.27,-9.95,-9.24,9.24,9.47,9.62,-0.72,-0.71,-0.70
72.19,-9.80,-9.07,-9.87,-9.13,9.13,9.38,9.47,-0.68,-0.74,-0.73
72.91,-9.64,-8.87,-9.79,-9.01,9.01,9.29,9.32,-0.64,-0.78,-0.77
73.64,-9.62,-8.82,-9.71,-8.89,8.89,9.20,9.17,-0.73,-0.82,-0.81
74.38,-9.62,-8.78,-9.63,-8.78,8.78,9.11,9.02,-0.85,-0.85,-0.84
75.12,-9.61,-8.72,-9.55,-8.66,8.66,9.02,8.87,-0.96,-0.89,-0.89
75.87,-9.56,-8.64,-9.46,-8.53,8.53,8.93,8.72,-1.03,-0.92,-0.93
76.63,-9.45,-8.49,-9.36,-8.40,8.40,8.84,8.58,-1.05,-0.96,-0.96
77.40,-9.36,-8.37,-9.27,-8.28,8.28,8.76,8.43,-1.08,-0.99,-0.99
78.17,-9.29,-8.26,-9.19,-8.17,8.17,8.67,8.29,-1.13,-1.02,-1.03
78.95,-9.17,-8.12,-9.10,-8.05,8.05,8.59,8.15,-1.12,-1.05,-1.05
79.74,-8.99,-7.92,-9.03,-7.95,7.95,8.50,8.02,-1.04,-1.08,-1.08
80.54,-8.85,-7.74,-8.96,-7.86,7.86,8.42,7.88,-0.99,-1.10,-1.11
81.35,-8.76,-7.63,-8.90,-7.78,7.78,8.33,7.75,-0.99,-1.12,-1.13
82.16,-8.70,-7.56,-8.84,-7.70,7.70,8.25,7.63,-1.01,-1.14,-1.15
82.98,-8.70,-7.55,-8.79,-7.63,7.63,8.16,7.50,-1.07,-1.15,-1.15
83.81,-8.70,-7.53,-8.75,-7.58,7.58,8.08,7.38,-1.13,-1.17,-1.17
84.65,-8.70,-7.52,-8.71,-7.53,7.53,8.00,7.26,-1.17,-1.18,-1.19
85.50,-8.70,-7.52,-8.69,-7.50,7.50,7.92,7.15,-1.20,-1.19,-1.19
86.35,-8.70,-7.51,-8.68,-7.48,7.48,7.83,7.03,-1.22,-1.19,-1.19
87.22,-8.70,-7.50,-8.67,-7.47,7.47,7.75,6.93,-1.24,-1.20,-1.20
88.09,-8.70,-7.49,-8.66,-7.45,7.45,7.67,6.82,-1.26,-1.21,-1.21
88.97,-8.70,-7.50,-8.65,-7.44,7.44,7.59,6.72,-1.27,-1.22,-1.21
89.86,-8.70,-7.49,-8.64,-7.41,7.41,7.51,6.62,-1.29,-1.23,-1.22
90.76,-8.68,-7.44,-8.61,-7.37,7.37,7.43,6.53,-1.31,-1.24,-1.24
91.66,-8.55,-7.31,-8.59,-7.33,7.33,7.35,6.43,-1.22,-1.25,-1.24
92.58,-8.48,-7.21,-8.54,-7.27,7.27,7.28,6.35,-1.22,-1.27,-1.28
93.51,-8.48,-7.20,-8.48,-7.19,7.19,7.20,6.26,-1.29,-1.29,-1.28
94.44,-8.47,-7.17,-8.42,-7.11,7.11,7.12,6.18,-1.37,-1.31,-1.31
95.39,-8.38,-7.05,-8.35,-7.01,7.01,7.04,6.10,-1.37,-1.34,-1.33
96.34,-8.25,-6.88,-8.28,-6.92,6.92,6.97,6.02,-1.34,-1.37,-1.38
97.30,-8.25,-6.85,-8.21,-6.81,6.81,6.89,5.95,-1.44,-1.40,-1.40
98.28,-8.20,-6.76,-8.14,-6.71,6.71,6.82,5.88,-1.50,-1.43,-1.44
99.26,-8.05,-6.58,-8.07,-6.60,6.60,6.74,5.81,-1.45,-1.47,-1.48
100.25,-8.01,-6.50,-8.01,-6.50,6.50,6.67,5.75,-1.52,-1.52,-1.51
101.25,-7.94,-6.38,-7.96,-6.40,6.40,6.59,5.68,-1.54,-1.56,-1.56
102.27,-7.79,-6.19,-7.93,-6.32,6.32,6.52,5.62,-1.48,-1.61,-1.61
103.29,-7.79,-6.13,-7.89,-6.22,6.22,6.45,5.56,-1.57,-1.67,-1.67
104.32,-7.79,-6.08,-7.85,-6.13,6.13,6.37,5.51,-1.67,-1.73,-1.71
105.37,-7.79,-6.02,-7.82,-6.03,6.03,6.30,5.45,-1.76,-1.79,-1.77
106.42,-7.79,-5.96,-7.80,-5.95,5.95,6.23,5.40,-1.85,-1.86,-1.84
107.48,-7.79,-5.88,-7.79,-5.86,5.86,6.16,5.35,-1.94,-1.93,-1.92
108.56,-7.79,-5.79,-7.76,-5.76,5.76,6.09,5.30,-2.04,-2.00,-2.00
109.64,-7.79,-5.71,-7.74,-5.66,5.66,6.02,5.25,-2.14,-2.08,-2.08
110.74,-7.79,-5.63,-7.72,-5.55,5.55,5.95,5.20,-2.24,-2.17,-2.16
111.85,-7.79,-5.56,-7.69,-5.44,5.44,5.88,5.15,-2.35,-2.25,-2.24
112.97,-7.77,-5.44,-7.67,-5.34,5.34,5.81,5.11,-2.43,-2.33,-2.33
114.10,-7.57,-5.15,-7.65,-5.23,5.23,5.74,5.06,-2.33,-2.41,-2.41
115.24,-7.56,-5.07,-7.61,-5.12,5.12,5.67,5.01,-2.45,-2.49,-2.50
116.39,-7.56,-4.98,-7.56,-5.00,5.00,5.60,4.96,-2.57,-2.57,-2.58
117.55,-7.55,-4.90,-7.52,-4.88,4.88,5.54,4.92,-2.68,-2.64,-2.66
118.73,-7.39,-4.66,-7.47,-4.76,4.76,5.47,4.87,-2.64,-2.71,-2.73
119.92,-7.34,-4.56,-7.42,-4.64,4.64,5.40,4.82,-2.70,-2.77,-2.79
121.12,-7.34,-4.49,-7.37,-4.53,4.53,5.34,4.77,-2.81,-2.83,-2.85
122.33,-7.34,-4.44,-7.33,-4.44,4.44,5.27,4.72,-2.91,-2.89,-2.90
123.55,-7.34,-4.41,-7.29,-4.35,4.35,5.21,4.67,-2.99,-2.94,-2.94
124.79,-7.34,-4.36,-7.26,-4.27,4.27,5.14,4.62,-3.08,-2.99,-2.99
126.03,-7.18,-4.15,-7.23,-4.19,4.19,5.08,4.56,-2.99,-3.04,-3.03
127.29,-7.13,-4.06,-7.20,-4.12,4.12,5.01,4.51,-3.02,-3.08,-3.07
128.57,-7.11,-3.99,-7.16,-4.04,4.04,4.95,4.45,-3.08,-3.12,-3.12
129.85,-7.11,-3.95,-7.12,-3.95,3.95,4.89,4.40,-3.16,-3.16,-3.16
131.15,-7.11,-3.92,-7.09,-3.88,3.88,4.83,4.34,-3.23,-3.21,-3.20
132.46,-7.11,-3.87,-7.06,-3.82,3.82,4.76,4.28,-3.30,-3.25,-3.25
133.79,-7.11,-3.83,-7.03,-3.74,3.74,4.70,4.22,-3.37,-3.29,-3.28
135.12,-7.10,-3.77,-7.00,-3.67,3.67,4.64,4.16,-3.43,-3.33,-3.34
136.48,-6.95,-3.57,-6.98,-3.61,3.61,4.58,4.10,-3.34,-3.37,-3.37
137.84,-6.88,-3.47,-6.97,-3.55,3.55,4.52,4.04,-3.33,-3.42,-3.42
139.22,-6.88,-3.40,-6.97,-3.50,3.50,4.46,3.98,-3.38,-3.46,-3.48
140.61,-6.88,-3.35,-6.96,-3.45,3.45,4.40,3.92,-3.43,-3.51,-3.53
142.02,-6.88,-3.32,-6.96,-3.39,3.39,4.34,3.86,-3.49,-3.56,-3.56
143.44,-6.89,-3.28,-6.95,-3.33,3.33,4.29,3.80,-3.56,-3.62,-3.61
144.87,-7.06,-3.40,-6.94,-3.26,3.26,4.23,3.74,-3.80,-3.68,-3.66
146.32,-6.95,-3.23,-6.93,-3.19,3.19,4.17,3.68,-3.76,-3.74,-3.72
147.78,-6.93,-3.17,-6.93,-3.12,3.12,4.12,3.62,-3.81,-3.81,-3.77
149.26,-7.05,-3.21,-6.92,-3.04,3.04,4.06,3.56,-4.02,-3.88,-3.85
150.75,-7.01,-3.08,-6.90,-2.95,2.95,4.00,3.50,-4.06,-3.95,-3.93
152.26,-6.92,-2.92,-6.90,-2.87,2.87,3.95,3.44,-4.05,-4.03,-4.01
153.78,-6.88,-2.80,-6.90,-2.79,2.79,3.89,3.38,-4.09,-4.11,-4.09
155.32,-6.88,-2.69,-6.90,-2.71,2.71,3.84,3.33,-4.17,-4.18,-4.19
156.88,-6.88,-2.61,-6.90,-2.64,2.64,3.79,3.28,-4.25,-4.26,-4.27
158.44,-6.88,-2.53,-6.90,-2.56,2.56,3.73,3.22,-4.32,-4.34,-4.35
160.03,-6.88,-2.45,-6.92,-2.51,2.51,3.68,3.17,-4.38,-4.41,-4.43
161.63,-6.88,-2.38,-6.95,-2.47,2.47,3.63,3.12,-4.41,-4.48,-4.50
163.24,-6.88,-2.33,-7.00,-2.47,2.47,3.57,3.07,-4.42,-4.54,-4.56
164.88,-6.88,-2.28,-7.06,-2.48,2.48,3.52,3.03,-4.41,-4.59,-4.61
166.53,-7.09,-2.44,-7.13,-2.50,2.50,3.47,2.98,-4.59,-4.63,-4.65
168.19,-7.27,-2.59,-7.21,-2.55,2.55,3.42,2.94,-4.72,-4.66,-4.69
169.87,-7.34,-2.63,-7.30,-2.61,2.61,3.37,2.89,-4.73,-4.69,-4.71
171.57,-7.34,-2.62,-7.38,-2.68,2.68,3.32,2.85,-4.66,-4.70,-4.72
173.29,-7.48,-2.76,-7.47,-2.75,2.75,3.27,2.82,-4.74,-4.72,-4.73
175.02,-7.56,-2.85,-7.55,-2.82,2.82,3.22,2.78,-4.74,-4.73,-4.72
176.77,-7.75,-3.03,-7.63,-2.90,2.90,3.17,2.74,-4.86,-4.73,-4.73
178.54,-7.79,-3.07,-7.70,-2.96,2.96,3.13,2.71,-4.84,-4.74,-4.73
180.32,-7.79,-3.07,-7.75,-3.01,3.01,3.08,2.68,-4.79,-4.74,-4.72
182.13,-7.79,-3.07,-7.79,-3.04,3.04,3.03,2.65,-4.76,-4.75,-4.72
183.95,-7.79,-3.07,-7.80,-3.05,3.05,2.99,2.62,-4.75,-4.76,-4.73
185.79,-7.79,-3.05,-7.80,-3.04,3.04,2.94,2.59,-4.76,-4.77,-4.75
187.65,-7.79,-3.02,-7.80,-3.02,3.02,2.89,2.56,-4.77,-4.78,-4.77
189.52,-7.79,-3.00,-7.80,-3.00,3.00,2.85,2.54,-4.79,-4.79,-4.80
191.42,-7.79,-2.98,-7.78,-2.96,2.96,2.80,2.52,-4.83,-4.81,-4.82
193.33,-7.79,-2.95,-7.74,-2.91,2.91,2.76,2.49,-4.89,-4.83,-4.84
195.27,-7.69,-2.84,-7.70,-2.84,2.84,2.71,2.47,-4.85,-4.86,-4.85
197.22,-7.59,-2.72,-7.65,-2.77,2.77,2.67,2.45,-4.82,-4.88,-4.88
199.19,-7.56,-2.65,-7.61,-2.71,2.71,2.63,2.44,-4.85,-4.90,-4.92
201.18,-7.56,-2.64,-7.58,-2.65,2.65,2.59,2.42,-4.91,-4.93,-4.93
203.19,-7.56,-2.62,-7.54,-2.59,2.59,2.54,2.40,-4.98,-4.95,-4.95
205.23,-7.56,-2.59,-7.50,-2.53,2.53,2.50,2.39,-5.04,-4.97,-4.98
207.28,-7.48,-2.50,-7.46,-2.47,2.47,2.46,2.37,-5.01,-4.99,-4.98
209.35,-7.37,-2.36,-7.43,-2.42,2.42,2.42,2.36,-4.95,-5.01,-5.01
211.44,-7.34,-2.30,-7.40,-2.37,2.37,2.38,2.34,-4.97,-5.03,-5.04
213.56,-7.34,-2.30,-7.39,-2.34,2.34,2.34,2.33,-5.01,-5.05,-5.05
215.69,-7.34,-2.29,-7.38,-2.31,2.31,2.30,2.32,-5.03,-5.06,-5.05
217.85,-7.34,-2.27,-7.37,-2.29,2.29,2.26,2.30,-5.05,-5.08,-5.08
220.03,-7.34,-2.25,-7.36,-2.27,2.27,2.22,2.29,-5.08,-5.09,-5.09
222.23,-7.34,-2.23,-7.35,-2.24,2.24,2.18,2.28,-5.10,-5.11,-5.12
224.45,-7.34,-2.22,-7.34,-2.22,2.22,2.14,2.26,-5.12,-5.12,-5.12
226.70,-7.34,-2.22,-7.33,-2.20,2.20,2.10,2.25,-5.14,-5.13,-5.13
228.96,-7.34,-2.21,-7.32,-2.18,2.18,2.07,2.23,-5.17,-5.14,-5.14
231.25,-7.34,-2.20,-7.30,-2.16,2.16,2.03,2.22,-5.19,-5.15,-5.14
233.57,-7.34,-2.19,-7.28,-2.13,2.13,1.99,2.20,-5.22,-5.15,-5.15
235.90,-7.34,-2.18,-7.25,-2.09,2.09,1.96,2.18,-5.25,-5.16,-5.16
238.26,-7.23,-2.07,-7.22,-2.06,2.06,1.92,2.16,-5.17,-5.16,-5.17
240.64,-7.12,-1.96,-7.19,-2.03,2.03,1.88,2.14,-5.10,-5.16,-5.17
243.05,-7.11,-1.96,-7.15,-1.99,1.99,1.85,2.12,-5.13,-5.16,-5.16
245.48,-7.11,-1.96,-7.10,-1.94,1.94,1.81,2.10,-5.17,-5.16,-5.16
247.93,-7.11,-1.97,-7.05,-1.90,1.90,1.78,2.07,-5.22,-5.16,-5.15
250.41,-6.92,-1.77,-7.00,-1.85,1.85,1.75,2.04,-5.08,-5.15,-5.16
252.92,-6.88,-1.74,-6.96,-1.81,1.81,1.71,2.01,-5.07,-5.15,-5.15
255.45,-6.88,-1.76,-6.92,-1.78,1.78,1.68,1.98,-5.11,-5.14,-5.13
258.00,-6.88,-1.76,-6.87,-1.74,1.74,1.64,1.95,-5.14,-5.13,-5.12
260.58,-6.88,-1.76,-6.83,-1.71,1.71,1.61,1.92,-5.18,-5.12,-5.12
263.19,-6.86,-1.75,-6.79,-1.68,1.68,1.58,1.88,-5.18,-5.11,-5.11
265.82,-6.68,-1.58,-6.76,-1.66,1.66,1.55,1.84,-5.02,-5.10,-5.11
268.48,-6.65,-1.57,-6.72,-1.64,1.64,1.51,1.81,-5.01,-5.08,-5.08
271.16,-6.65,-1.58,-6.68,-1.61,1.61,1.48,1.77,-5.04,-5.07,-5.07
273.87,-6.65,-1.60,-6.63,-1.58,1.58,1.45,1.72,-5.07,-5.05,-5.06
276.61,-6.65,-1.63,-6.59,-1.56,1.56,1.42,1.68,-5.09,-5.03,-5.02
279.38,-6.65,-1.64,-6.56,-1.56,1.56,1.39,1.64,-5.10,-5.01,-5.01
282.17,-6.48,-1.50,-6.52,-1.53,1.53,1.36,1.59,-4.95,-4.98,-4.99
284.99,-6.42,-1.46,-6.48,-1.52,1.52,1.33,1.55,-4.91,-4.96,-4.96
287.84,-6.42,-1.49,-6.43,-1.50,1.50,1.30,1.50,-4.92,-4.93,-4.94
290.72,-6.42,-1.52,-6.39,-1.48,1.48,1.27,1.45,-4.94,-4.91,-4.90
293.63,-6.31,-1.44,-6.34,-1.46,1.46,1.24,1.41,-4.86,-4.88,-4.88
296.57,-6.21,-1.36,-6.29,-1.43,1.43,1.21,1.36,-4.78,-4.85,-4.85
299.53,-6.20,-1.38,-6.23,-1.40,1.40,1.18,1.31,-4.81,-4.83,-4.83
302.53,-6.20,-1.39,-6.18,-1.37,1.37,1.15,1.26,-4.84,-4.81,-4.81
305.55,-6.20,-1.43,-6.12,-1.33,1.33,1.12,1.21,-4.88,-4.79,-4.78
308.61,-6.14,-1.38,-6.07,-1.29,1.29,1.09,1.16,-4.85,-4.77,-4.76
311.69,-5.99,-1.25,-6.02,-1.26,1.26,1.06,1.12,-4.74,-4.76,-4.75
314.81,-5.97,-1.25,-5.96,-1.22,1.22,1.03,1.07,-4.76,-4.75,-4.72
317.96,-5.83,-1.11,-5.91,-1.17,1.17,1.01,1.02,-4.66,-4.74,-4.72
321.14,-5.74,-1.02,-5.85,-1.12,1.12,0.98,0.97,-4.62,-4.73,-4.73
324.35,-5.74,-1.02,-5.78,-1.07,1.07,0.95,0.92,-4.68,-4.72,-4.72
327.59,-5.74,-1.03,-5.73,-1.02,1.02,0.92,0.87,-4.72,-4.71,-4.72
330.87,-5.74,-1.04,-5.67,-0.97,0.97,0.89,0.83,-4.78,-4.70,-4.71
334.18,-5.64,-0.94,-5.59,-0.90,0.90,0.87,0.78,-4.74,-4.69,-4.70
337.52,-5.52,-0.83,-5.52,-0.84,0.84,0.84,0.73,-4.68,-4.68,-4.69
340.90,-5.51,-0.85,-5.45,-0.79,0.79,0.81,0.68,-4.73,-4.67,-4.67
344.30,-5.33,-0.67,-5.39,-0.74,0.74,0.78,0.64,-4.60,-4.65,-4.66
347.75,-5.28,-0.64,-5.32,-0.68,0.68,0.76,0.59,-4.60,-4.64,-4.64
351.23,-5.28,-0.67,-5.24,-0.63,0.63,0.73,0.55,-4.66,-4.62,-4.62
354.74,-5.18,-0.59,-5.17,-0.58,0.58,0.70,0.50,-4.61,-4.59,-4.60
358.28,-5.08,-0.51,-5.09,-0.52,0.52,0.68,0.45,-4.57,-4.57,-4.57
361.87,-5.06,-0.51,-5.01,-0.46,0.46,0.65,0.41,-4.60,-4.55,-4.55
365.49,-4.89,-0.37,-4.95,-0.42,0.42,0.62,0.36,-4.48,-4.53,-4.53
369.14,-4.84,-0.34,-4.88,-0.38,0.38,0.59,0.32,-4.47,-4.51,-4.51
372.83,-4.83,-0.36,-4.83,-0.34,0.34,0.57,0.28,-4.49,-4.48,-4.48
376.56,-4.78,-0.32,-4.78,-0.32,0.32,0.54,0.23,-4.47,-4.46,-4.46
380.33,-4.63,-0.20,-4.73,-0.28,0.28,0.51,0.19,-4.35,-4.45,-4.43
384.13,-4.60,-0.19,-4.68,-0.25,0.25,0.49,0.14,-4.36,-4.43,-4.41
387.97,-4.60,-0.20,-4.62,-0.20,0.20,0.46,0.10,-4.40,-4.41,-4.41
391.85,-4.60,-0.21,-4.56,-0.16,0.16,0.43,0.06,-4.44,-4.40,-4.40
395.77,-4.60,-0.21,-4.52,-0.13,0.13,0.40,0.01,-4.47,-4.39,-4.39
399.73,-4.60,-0.22,-4.48,-0.10,0.10,0.38,-0.03,-4.50,-4.38,-4.38
403.72,-4.52,-0.15,-4.45,-0.08,0.08,0.35,-0.07,-4.45,-4.37,-4.37
407.76,-4.40,-0.04,-4.43,-0.07,0.07,0.32,-0.11,-4.34,-4.36,-4.36
