frequency,raw,error,smoothed,error_smoothed,equalization,parametric_eq,fixed_band_eq,equalized_raw,equalized_smoothed,target
20.00,-20.56,-20.70,-20.56,-20.69,20.73,19.90,10.10,0.16,0.17,0.14
20.20,-20.56,-20.74,-20.57,-20.74,20.76,20.00,10.29,0.19,0.19,0.18
20.40,-20.56,-20.77,-20.57,-20.78,20.78,20.09,10.48,0.21,0.21,0.21
20.61,-20.56,-20.80,-20.57,-20.81,20.79,20.17,10.68,0.23,0.22,0.23
20.81,-20.56,-20.84,-20.57,-20.84,20.81,20.25,10.88,0.24,0.24,0.28
21.02,-20.56,-20.88,-20.55,-20.86,20.81,20.32,11.08,0.25,0.26,0.32
21.23,-20.51,-20.84,-20.52,-20.85,20.81,20.39,11.29,0.30,0.30,0.33
21.44,-20.46,-20.81,-20.47,-20.82,20.81,20.45,11.51,0.34,0.34,0.35
21.66,-20.42,-20.78,-20.41,-20.77,20.79,20.50,11.73,0.38,0.38,0.36
21.87,-20.36,-20.74,-20.37,-20.74,20.78,20.54,11.96,0.41,0.41,0.38
22.09,-20.33,-20.72,-20.34,-20.72,20.76,20.58,12.19,0.42,0.42,0.39
22.31,-20.31,-20.70,-20.31,-20.70,20.73,20.61,12.43,0.42,0.42,0.39
22.54,-20.30,-20.70,-20.31,-20.71,20.70,20.63,12.68,0.40,0.39,0.40
22.76,-20.29,-20.70,-20.30,-20.70,20.67,20.64,12.93,0.38,0.37,0.41
22.99,-20.28,-20.69,-20.26,-20.67,20.63,20.65,13.20,0.35,0.37,0.41
23.22,-20.19,-20.61,-20.20,-20.61,20.58,20.64,13.47,0.39,0.39,0.42
23.45,-20.09,-20.52,-20.10,-20.53,20.52,20.63,13.74,0.42,0.41,0.43
23.69,-20.00,-20.43,-20.00,-20.43,20.44,20.61,14.03,0.45,0.45,0.44
23.92,-19.89,-20.34,-19.89,-20.34,20.35,20.58,14.32,0.46,0.46,0.45
24.16,-19.79,-20.25,-19.79,-20.25,20.25,20.54,14.63,0.46,0.46,0.46
24.40,-19.69,-20.16,-19.69,-20.15,20.15,20.49,14.94,0.46,0.46,0.47
24.65,-19.60,-20.05,-19.59,-20.05,20.04,20.44,15.26,0.45,0.45,0.46
24.89,-19.49,-19.95,-19.50,-19.95,19.94,20.38,15.60,0.45,0.44,0.46
25.14,-19.40,-19.86,-19.40,-19.86,19.85,20.31,15.95,0.45,0.45,0.46
25.39,-19.31,-19.77,-19.31,-19.76,19.77,20.23,16.31,0.46,0.47,0.46
25.65,-19.22,-19.68,-19.22,-19.67,19.72,20.15,16.68,0.49,0.50,0.46
25.91,-19.14,-19.57,-19.15,-19.60,19.67,20.06,17.06,0.53,0.51,0.44
26.16,-19.11,-19.56,-19.12,-19.56,19.62,19.97,17.46,0.50,0.50,0.45
26.43,-19.11,-19.56,-19.12,-19.57,19.56,19.87,17.87,0.45,0.44,0.45
26.69,-19.12,-19.57,-19.13,-19.58,19.50,19.77,18.30,0.37,0.37,0.45
26.96,-19.13,-19.58,-19.09,-19.54,19.43,19.66,18.74,0.29,0.33,0.45
27.23,-19.00,-19.44,-18.99,-19.44,19.36,19.55,19.20,0.36,0.36,0.45
27.50,-18.84,-19.28,-18.83,-19.28,19.28,19.44,19.67,0.45,0.45,0.45
27.77,-18.66,-19.10,-18.67,-19.11,19.21,19.32,20.16,0.55,0.54,0.44
28.05,-18.53,-18.97,-18.57,-19.00,19.12,19.21,20.66,0.59,0.55,0.44
28.33,-18.52,-18.94,-18.53,-18.95,19.02,19.09,21.17,0.49,0.49,0.42
28.62,-18.51,-18.94,-18.52,-18.94,18.91,18.97,21.68,0.39,0.39,0.43
28.90,-18.50,-18.93,-18.47,-18.89,18.79,18.86,22.20,0.29,0.32,0.43
29.19,-18.37,-18.79,-18.36,-18.78,18.68,18.74,22.71,0.30,0.32,0.42
29.48,-18.17,-18.60,-18.18,-18.61,18.56,18.62,23.19,0.39,0.38,0.43
29.78,-17.98,-18.40,-17.99,-18.41,18.43,18.51,23.65,0.45,0.44,0.43
30.08,-17.80,-18.22,-17.81,-18.24,18.28,18.39,24.06,0.49,0.47,0.43
30.38,-17.69,-18.09,-17.68,-18.09,18.13,18.28,24.40,0.44,0.45,0.41
30.68,-17.56,-17.97,-17.56,-17.96,17.98,18.16,24.65,0.41,0.42,0.41
30.99,-17.46,-17.85,-17.46,-17.86,17.85,18.05,24.80,0.40,0.39,0.40
31.30,-17.36,-17.75,-17.35,-17.74,17.75,17.94,24.83,0.40,0.41,0.40
31.61,-17.25,-17.65,-17.25,-17.64,17.68,17.83,24.75,0.42,0.43,0.40
31.93,-17.16,-17.53,-17.18,-17.56,17.61,17.72,24.56,0.45,0.43,0.38
32.24,-17.13,-17.50,-17.15,-17.52,17.54,17.61,24.28,0.41,0.39,0.37
32.57,-17.14,-17.51,-17.14,-17.51,17.47,17.51,23.93,0.33,0.33,0.37
32.89,-17.14,-17.51,-17.11,-17.48,17.40,17.40,23.52,0.26,0.29,0.37
33.22,-17.04,-17.41,-17.03,-17.39,17.33,17.30,23.08,0.29,0.31,0.37
33.55,-16.88,-17.24,-16.89,-17.25,17.25,17.19,22.61,0.37,0.36,0.36
33.89,-16.73,-17.09,-16.76,-17.11,17.16,17.09,22.14,0.42,0.40,0.36
34.23,-16.64,-17.00,-16.66,-17.01,17.04,16.99,21.66,0.40,0.38,0.36
34.57,-16.59,-16.94,-16.59,-16.94,16.92,16.89,21.19,0.32,0.33,0.35
34.92,-16.54,-16.87,-16.51,-16.85,16.80,16.79,20.73,0.26,0.29,0.34
35.27,-16.39,-16.72,-16.37,-16.70,16.69,16.70,20.28,0.30,0.32,0.34
35.62,-16.21,-16.53,-16.21,-16.53,16.58,16.60,19.84,0.38,0.38,0.33
35.97,-16.02,-16.34,-16.08,-16.40,16.48,16.51,19.43,0.45,0.40,0.32
36.33,-16.01,-16.33,-16.02,-16.34,16.37,16.41,19.02,0.35,0.34,0.32
36.70,-16.00,-16.32,-15.99,-16.30,16.25,16.32,18.63,0.24,0.26,0.32
37.06,-15.97,-16.27,-15.92,-16.22,16.13,16.23,18.26,0.15,0.20,0.30
37.43,-15.78,-16.08,-15.78,-16.08,16.02,16.14,17.90,0.24,0.23,0.30
37.81,-15.59,-15.88,-15.62,-15.91,15.92,16.05,17.56,0.33,0.30,0.29
38.19,-15.47,-15.74,-15.47,-15.75,15.84,15.96,17.23,0.37,0.36,0.28
38.57,-15.39,-15.67,-15.38,-15.66,15.74,15.87,16.91,0.35,0.36,0.28
38.95,-15.32,-15.59,-15.34,-15.60,15.64,15.78,16.61,0.32,0.31,0.27
39.34,-15.30,-15.56,-15.32,-15.57,15.55,15.69,16.32,0.24,0.23,0.25
39.74,-15.29,-15.53,-15.28,-15.52,15.45,15.59,16.04,0.16,0.17,0.24
40.14,-15.23,-15.47,-15.19,-15.43,15.37,15.50,15.78,0.14,0.18,0.25
40.54,-15.06,-15.29,-15.06,-15.30,15.28,15.41,15.52,0.22,0.21,0.24
40.94,-14.88,-15.12,-14.92,-15.15,15.17,15.31,15.28,0.29,0.25,0.24
41.35,-14.80,-15.02,-14.80,-15.02,15.05,15.21,15.05,0.25,0.25,0.22
41.76,-14.72,-14.92,-14.71,-14.91,14.92,15.10,14.82,0.20,0.21,0.20
42.18,-14.63,-14.82,-14.62,-14.80,14.79,15.00,14.61,0.15,0.16,0.18
42.60,-14.51,-14.67,-14.52,-14.68,14.66,14.88,14.40,0.15,0.15,0.16
43.03,-14.39,-14.54,-14.40,-14.53,14.55,14.77,14.20,0.15,0.15,0.15
43.46,-14.29,-14.41,-14.29,-14.40,14.44,14.65,14.02,0.14,0.15,0.12
43.90,-14.20,-14.26,-14.22,-14.30,14.34,14.53,13.84,0.14,0.12,0.07
44.33,-14.17,-14.21,-14.19,-14.22,14.24,14.40,13.66,0.06,0.05,0.03
44.78,-14.17,-14.18,-14.15,-14.15,14.14,14.27,13.50,-0.04,-0.01,0.01
45.23,-14.11,-14.08,-14.09,-14.06,14.03,14.14,13.34,-0.08,-0.06,-0.02
45.68,-13.98,-13.92,-13.99,-13.94,13.91,14.00,13.19,-0.07,-0.08,-0.05
46.13,-13.86,-13.79,-13.89,-13.82,13.78,13.86,13.04,-0.08,-0.11,-0.07
46.60,-13.79,-13.70,-13.78,-13.69,13.65,13.72,12.91,-0.14,-0.13,-0.08
47.06,-13.69,-13.59,-13.63,-13.53,13.52,13.58,12.77,-0.18,-0.11,-0.10
47.53,-13.45,-13.35,-13.46,-13.35,13.38,13.44,12.65,-0.07,-0.07,-0.10
48.01,-13.23,-13.12,-13.30,-13.19,13.26,13.30,12.53,0.04,-0.04,-0.10
48.49,-13.20,-13.08,-13.19,-13.07,13.15,13.15,12.41,-0.05,-0.04,-0.12
48.97,-13.17,-13.04,-13.15,-13.01,13.04,13.01,12.30,-0.13,-0.10,-0.13
49.46,-13.10,-12.96,-13.11,-12.97,12.94,12.87,12.20,-0.16,-0.17,-0.14
49.96,-13.04,-12.90,-13.04,-12.90,12.84,12.73,12.10,-0.21,-0.20,-0.14
50.46,-12.94,-12.80,-12.94,-12.80,12.74,12.60,12.00,-0.19,-0.20,-0.13
50.96,-12.82,-12.70,-12.82,-12.69,12.65,12.46,11.91,-0.17,-0.17,-0.12
51.47,-12.68,-12.55,-12.68,-12.55,12.56,12.32,11.82,-0.13,-0.13,-0.13
51.99,-12.55,-12.39,-12.55,-12.40,12.45,12.19,11.74,-0.09,-0.10,-0.15
52.51,-12.45,-12.28,-12.44,-12.27,12.34,12.06,11.66,-0.10,-0.10,-0.16
53.03,-12.35,-12.16,-12.39,-12.19,12.23,11.93,11.58,-0.13,-0.16,-0.19
53.56,-12.35,-12.13,-12.35,-12.12,12.11,11.80,11.50,-0.25,-0.24,-0.22
54.10,-12.33,-12.07,-12.30,-12.03,11.98,11.68,11.42,-0.36,-0.32,-0.26
54.64,-12.21,-11.89,-12.21,-11.90,11.84,11.55,11.35,-0.37,-0.38,-0.31
55.18,-12.08,-11.72,-12.09,-11.73,11.69,11.43,11.27,-0.39,-0.40,-0.37
55.74,-11.96,-11.54,-11.96,-11.54,11.53,11.31,11.20,-0.42,-0.42,-0.41
56.29,-11.83,-11.37,-11.83,-11.36,11.37,11.19,11.12,-0.47,-0.46,-0.47
56.86,-11.71,-11.18,-11.69,-11.16,11.20,11.07,11.05,-0.51,-0.49,-0.52
57.42,-11.57,-10.98,-11.57,-10.98,11.03,10.95,10.97,-0.54,-0.54,-0.60
58.00,-11.44,-10.79,-11.49,-10.84,10.87,10.83,10.90,-0.57,-0.62,-0.65
58.58,-11.44,-10.73,-11.42,-10.71,10.73,10.72,10.82,-0.72,-0.70,-0.71
59.16,-11.40,-10.64,-11.36,-10.59,10.59,10.61,10.74,-0.82,-0.77,-0.77
59.76,-11.28,-10.45,-11.31,-10.49,10.46,10.50,10.65,-0.82,-0.86,-0.82
60.35,-11.22,-10.33,-11.24,-10.36,10.33,10.39,10.56,-0.90,-0.92,-0.90
60.96,-11.21,-10.27,-11.16,-10.21,10.20,10.28,10.47,-1.02,-0.96,-0.94
61.57,-11.09,-10.07,-11.10,-10.08,10.07,10.17,10.38,-1.01,-1.03,-1.01
62.18,-10.98,-9.90,-11.03,-9.96,9.95,10.06,10.28,-1.03,-1.08,-1.08
62.80,-10.98,-9.86,-10.94,-9.81,9.84,9.95,10.18,-1.15,-1.10,-1.13
63.43,-10.88,-9.70,-10.86,-9.68,9.72,9.85,10.08,-1.16,-1.14,-1.18
64.07,-10.76,-9.53,-10.80,-9.57,9.61,9.74,9.97,-1.14,-1.19,-1.22
64.71,-10.75,-9.48,-10.77,-9.49,9.50,9.64,9.85,-1.25,-1.26,-1.27
65.35,-10.75,-9.43,-10.75,-9.43,9.39,9.54,9.74,-1.36,-1.36,-1.33
66.01,-10.75,-9.40,-10.71,-9.35,9.28,9.44,9.62,-1.48,-1.44,-1.35
66.67,-10.61,-9.21,-10.60,-9.21,9.16,9.34,9.50,-1.44,-1.43,-1.39
67.33,-10.45,-9.03,-10.47,-9.05,9.05,9.24,9.37,-1.40,-1.42,-1.43
68.01,-10.30,-8.85,-10.35,-8.89,8.94,9.14,9.24,-1.37,-1.41,-1.45
68.69,-10.28,-8.80,-10.25,-8.76,8.81,9.04,9.11,-1.47,-1.44,-1.48
69.37,-10.19,-8.67,-10.18,-8.66,8.68,8.94,8.98,-1.52,-1.50,-1.53
70.07,-10.07,-8.52,-10.13,-8.58,8.54,8.84,8.85,-1.54,-1.59,-1.55
70.77,-10.07,-8.51,-10.04,-8.47,8.41,8.75,8.71,-1.66,-1.63,-1.56
71.48,-9.96,-8.36,-9.93,-8.33,8.30,8.65,8.58,-1.66,-1.63,-1.60
72.19,-9.80,-8.18,-9.81,-8.18,8.20,8.56,8.44,-1.61,-1.61,-1.62
72.91,-9.64,-7.98,-9.69,-8.03,8.10,8.46,8.31,-1.55,-1.59,-1.66
73.64,-9.62,-7.93,-9.63,-7.93,8.00,8.37,8.17,-1.62,-1.62,-1.69
74.38,-9.62,-7.90,-9.61,-7.89,7.91,8.28,8.04,-1.72,-1.71,-1.72
75.12,-9.61,-7.86,-9.60,-7.85,7.81,8.18,7.90,-1.80,-1.79,-1.75
75.87,-9.56,-7.78,-9.55,-7.76,7.72,8.09,7.77,-1.85,-1.83,-1.78
76.63,-9.45,-7.64,-9.47,-7.65,7.61,8.00,7.64,-1.84,-1.86,-1.81
77.40,-9.36,-7.52,-9.38,-7.54,7.50,7.91,7.51,-1.87,-1.89,-1.84
78.17,-9.29,-7.42,-9.28,-7.41,7.37,7.82,7.38,-1.92,-1.90,-1.87
78.95,-9.17,-7.29,-9.15,-7.26,7.24,7.73,7.26,-1.93,-1.91,-1.88
79.74,-8.99,-7.09,-9.01,-7.10,7.11,7.64,7.14,-1.89,-1.90,-1.90
80.54,-8.85,-6.93,-8.87,-6.94,6.99,7.55,7.02,-1.86,-1.87,-1.92
81.35,-8.76,-6.82,-8.76,-6.83,6.89,7.46,6.90,-1.87,-1.87,-1.94
82.16,-8.70,-6.76,-8.72,-6.77,6.82,7.37,6.78,-1.89,-1.90,-1.94
82.98,-8.70,-6.76,-8.70,-6.75,6.76,7.28,6.67,-1.94,-1.94,-1.94
83.81,-8.70,-6.75,-8.70,-6.74,6.73,7.19,6.56,-1.97,-1.96,-1.95
84.65,-8.70,-6.74,-8.70,-6.75,6.73,7.10,6.45,-1.98,-1.98,-1.96
85.50,-8.70,-6.75,-8.70,-6.75,6.74,7.02,6.35,-1.97,-1.97,-1.95
86.35,-8.70,-6.75,-8.70,-6.75,6.75,6.93,6.25,-1.95,-1.95,-1.95
87.22,-8.70,-6.75,-8.70,-6.75,6.76,6.84,6.15,-1.95,-1.95,-1.95
88.09,-8.70,-6.75,-8.71,-6.76,6.75,6.76,6.06,-1.95,-1.95,-1.95
88.97,-8.70,-6.77,-8.72,-6.77,6.74,6.67,5.97,-1.96,-1.98,-1.93
89.86,-8.70,-6.77,-8.70,-6.76,6.72,6.59,5.88,-1.99,-1.98,-1.93
90.76,-8.68,-6.73,-8.64,-6.70,6.68,6.50,5.79,-2.00,-1.96,-1.95
91.66,-8.55,-6.61,-8.58,-6.62,6.64,6.41,5.71,-1.91,-1.94,-1.94
92.58,-8.48,-6.51,-8.52,-6.56,6.58,6.33,5.63,-1.90,-1.94,-1.97
93.51,-8.48,-6.52,-8.48,-6.51,6.52,6.24,5.55,-1.96,-1.96,-1.96
94.44,-8.47,-6.49,-8.44,-6.45,6.45,6.16,5.48,-2.03,-1.99,-1.98
95.39,-8.38,-6.39,-8.38,-6.37,6.36,6.08,5.41,-2.02,-2.01,-1.99
96.34,-8.25,-6.22,-8.31,-6.29,6.27,5.99,5.34,-1.98,-2.04,-2.03
97.30,-8.25,-6.20,-8.23,-6.18,6.18,5.91,5.27,-2.08,-2.05,-2.05
98.28,-8.20,-6.13,-8.16,-6.08,6.08,5.82,5.21,-2.13,-2.09,-2.07
99.26,-8.05,-5.95,-8.10,-6.00,5.97,5.74,5.15,-2.09,-2.14,-2.10
100.25,-8.01,-5.88,-8.00,-5.87,5.86,5.66,5.09,-2.15,-2.14,-2.13
101.25,-7.94,-5.78,-7.91,-5.74,5.76,5.57,5.03,-2.18,-2.14,-2.16
102.27,-7.79,-5.59,-7.84,-5.64,5.67,5.49,4.98,-2.13,-2.17,-2.20
103.29,-7.79,-5.54,-7.80,-5.54,5.58,5.41,4.93,-2.21,-2.21,-2.25
104.32,-7.79,-5.50,-7.78,-5.49,5.51,5.32,4.88,-2.29,-2.27,-2.29
105.37,-7.79,-5.45,-7.79,-5.45,5.44,5.24,4.83,-2.35,-2.35,-2.34
106.42,-7.79,-5.40,-7.79,-5.39,5.38,5.16,4.78,-2.41,-2.41,-2.39
107.48,-7.79,-5.33,-7.79,-5.33,5.32,5.07,4.73,-2.47,-2.47,-2.47
108.56,-7.79,-5.25,-7.79,-5.26,5.26,4.99,4.69,-2.54,-2.54,-2.54
109.64,-7.79,-5.18,-7.80,-5.19,5.18,4.91,4.64,-2.61,-2.62,-2.62
110.74,-7.79,-5.12,-7.81,-5.13,5.09,4.83,4.60,-2.70,-2.72,-2.67
111.85,-7.79,-5.05,-7.78,-5.03,4.99,4.74,4.56,-2.81,-2.79,-2.74
112.97,-7.77,-4.94,-7.71,-4.89,4.87,4.66,4.52,-2.90,-2.84,-2.83
114.10,-7.57,-4.67,-7.64,-4.74,4.75,4.58,4.47,-2.82,-2.89,-2.89
115.24,-7.56,-4.59,-7.59,-4.61,4.62,4.50,4.43,-2.94,-2.97,-2.97
116.39,-7.56,-4.51,-7.54,-4.49,4.50,4.41,4.39,-3.07,-3.04,-3.05
117.55,-7.55,-4.44,-7.50,-4.38,4.38,4.33,4.35,-3.17,-3.12,-3.12
118.73,-7.39,-4.21,-7.43,-4.25,4.28,4.25,4.31,-3.12,-3.15,-3.18
119.92,-7.34,-4.12,-7.37,-4.13,4.18,4.17,4.26,-3.16,-3.19,-3.22
121.12,-7.34,-4.06,-7.33,-4.05,4.09,4.09,4.22,-3.25,-3.24,-3.28
122.33,-7.34,-4.02,-7.36,-4.04,4.01,4.01,4.18,-3.34,-3.35,-3.32
123.55,-7.34,-4.00,-7.34,-3.99,3.93,3.93,4.13,-3.42,-3.41,-3.34
124.79,-7.34,-3.96,-7.29,-3.91,3.86,3.85,4.09,-3.49,-3.44,-3.38
126.03,-7.18,-3.76,-7.22,-3.80,3.79,3.77,4.04,-3.39,-3.43,-3.42
127.29,-7.13,-3.68,-7.15,-3.69,3.74,3.70,3.99,-3.40,-3.41,-3.45
128.57,-7.11,-3.62,-7.11,-3.62,3.68,3.62,3.95,-3.43,-3.42,-3.49
129.85,-7.11,-3.59,-7.11,-3.59,3.62,3.55,3.90,-3.49,-3.49,-3.52
131.15,-7.11,-3.56,-7.11,-3.56,3.55,3.47,3.85,-3.56,-3.56,-3.55
132.46,-7.11,-3.53,-7.13,-3.54,3.48,3.40,3.80,-3.63,-3.65,-3.58
133.79,-7.11,-3.50,-7.11,-3.49,3.41,3.33,3.75,-3.70,-3.69,-3.61
135.12,-7.10,-3.44,-7.05,-3.40,3.35,3.26,3.70,-3.75,-3.70,-3.66
136.48,-6.95,-3.25,-6.98,-3.29,3.29,3.19,3.65,-3.66,-3.69,-3.69
137.84,-6.88,-3.16,-6.91,-3.18,3.22,3.13,3.59,-3.66,-3.69,-3.72
139.22,-6.88,-3.11,-6.87,-3.10,3.16,3.07,3.54,-3.72,-3.71,-3.77
140.61,-6.88,-3.06,-6.86,-3.05,3.11,3.01,3.49,-3.77,-3.75,-3.82
142.02,-6.88,-3.04,-6.91,-3.06,3.07,2.95,3.44,-3.81,-3.83,-3.84
143.44,-6.89,-3.01,-6.94,-3.06,3.04,2.90,3.39,-3.85,-3.90,-3.88
144.87,-7.06,-3.14,-6.96,-3.03,3.02,2.85,3.34,-4.05,-3.94,-3.92
146.32,-6.95,-2.98,-6.99,-3.02,2.98,2.80,3.29,-3.97,-4.00,-3.97
147.78,-6.93,-2.92,-7.01,-2.99,2.94,2.76,3.24,-4.00,-4.07,-4.01
149.26,-7.05,-2.97,-6.99,-2.90,2.88,2.72,3.19,-4.18,-4.11,-4.08
150.75,-7.01,-2.85,-6.99,-2.83,2.80,2.68,3.14,-4.21,-4.19,-4.17
152.26,-6.92,-2.69,-6.95,-2.72,2.71,2.65,3.09,-4.21,-4.24,-4.23
153.78,-6.88,-2.58,-6.90,-2.58,2.61,2.63,3.04,-4.28,-4.29,-4.31
155.32,-6.88,-2.48,-6.88,-2.48,2.50,2.60,3.00,-4.38,-4.38,-4.40
156.88,-6.88,-2.41,-6.88,-2.41,2.40,2.58,2.95,-4.49,-4.48,-4.47
158.44,-6.88,-2.34,-6.88,-2.33,2.31,2.57,2.91,-4.57,-4.57,-4.55
160.03,-6.88,-2.26,-6.88,-2.26,2.25,2.56,2.87,-4.63,-4.63,-4.62
161.63,-6.88,-2.20,-6.86,-2.18,2.22,2.55,2.83,-4.66,-4.64,-4.68
163.24,-6.88,-2.15,-6.88,-2.14,2.21,2.54,2.79,-4.67,-4.66,-4.73
164.88,-6.88,-2.11,-6.96,-2.18,2.23,2.54,2.75,-4.65,-4.72,-4.77
166.53,-7.09,-2.28,-7.09,-2.27,2.28,2.55,2.71,-4.82,-4.81,-4.81
168.19,-7.27,-2.43,-7.21,-2.37,2.35,2.55,2.68,-4.93,-4.87,-4.84
169.87,-7.34,-2.49,-7.33,-2.47,2.44,2.56,2.65,-4.91,-4.89,-4.85
171.57,-7.34,-2.48,-7.39,-2.53,2.54,2.57,2.61,-4.80,-4.85,-4.86
173.29,-7.48,-2.62,-7.48,-2.62,2.65,2.58,2.58,-4.83,-4.83,-4.86
175.02,-7.56,-2.72,-7.60,-2.74,2.75,2.59,2.56,-4.82,-4.85,-4.84
176.77,-7.75,-2.90,-7.71,-2.87,2.82,2.61,2.53,-4.93,-4.89,-4.85
178.54,-7.79,-2.95,-7.78,-2.94,2.88,2.62,2.50,-4.91,-4.90,-4.84
180.32,-7.79,-2.96,-7.81,-2.97,2.93,2.64,2.48,-4.86,-4.88,-4.83
182.13,-7.79,-2.96,-7.80,-2.97,2.96,2.65,2.46,-4.83,-4.84,-4.83
183.95,-7.79,-2.96,-7.79,-2.96,2.98,2.66,2.44,-4.81,-4.81,-4.83
185.79,-7.79,-2.95,-7.79,-2.95,2.98,2.68,2.42,-4.82,-4.82,-4.84
187.65,-7.79,-2.93,-7.79,-2.93,2.95,2.69,2.40,-4.85,-4.85,-4.86
189.52,-7.79,-2.91,-7.80,-2.92,2.90,2.69,2.38,-4.89,-4.90,-4.88
191.42,-7.79,-2.89,-7.80,-2.90,2.86,2.70,2.37,-4.94,-4.94,-4.90
193.33,-7.79,-2.87,-7.76,-2.84,2.81,2.70,2.35,-4.98,-4.95,-4.92
195.27,-7.69,-2.77,-7.69,-2.76,2.76,2.71,2.34,-4.93,-4.93,-4.92
197.22,-7.59,-2.65,-7.62,-2.67,2.71,2.70,2.33,-4.88,-4.91,-4.94
199.19,-7.56,-2.58,-7.57,-2.60,2.65,2.70,2.32,-4.91,-4.92,-4.98
201.18,-7.56,-2.58,-7.56,-2.57,2.59,2.69,2.31,-4.98,-4.98,-4.98
203.19,-7.56,-2.56,-7.57,-2.56,2.52,2.68,2.30,-5.04,-5.05,-5.00
205.23,-7.56,-2.53,-7.54,-2.51,2.46,2.66,2.29,-5.10,-5.07,-5.03
207.28,-7.48,-2.45,-7.47,-2.43,2.41,2.65,2.28,-5.08,-5.06,-5.03
209.35,-7.37,-2.32,-7.41,-2.34,2.36,2.63,2.28,-5.01,-5.04,-5.05
211.44,-7.34,-2.26,-7.35,-2.28,2.32,2.60,2.27,-5.02,-5.03,-5.08
213.56,-7.34,-2.26,-7.34,-2.25,2.28,2.57,2.26,-5.06,-5.05,-5.08
215.69,-7.34,-2.26,-7.34,-2.25,2.25,2.55,2.26,-5.10,-5.09,-5.08
217.85,-7.34,-2.23,-7.34,-2.24,2.22,2.51,2.25,-5.12,-5.12,-5.11
220.03,-7.34,-2.22,-7.34,-2.22,2.21,2.48,2.24,-5.13,-5.13,-5.12
222.23,-7.34,-2.20,-7.34,-2.20,2.21,2.44,2.23,-5.13,-5.13,-5.14
224.45,-7.34,-2.20,-7.34,-2.20,2.21,2.41,2.23,-5.13,-5.13,-5.14
226.70,-7.34,-2.20,-7.34,-2.20,2.20,2.37,2.22,-5.14,-5.14,-5.14
228.96,-7.34,-2.19,-7.34,-2.19,2.19,2.33,2.21,-5.16,-5.16,-5.15
231.25,-7.34,-2.19,-7.35,-2.20,2.17,2.28,2.20,-5.18,-5.19,-5.15
233.57,-7.34,-2.18,-7.35,-2.18,2.14,2.24,2.18,-5.20,-5.21,-5.16
235.90,-7.34,-2.17,-7.30,-2.13,2.11,2.20,2.17,-5.23,-5.19,-5.17
238.26,-7.23,-2.06,-7.23,-2.06,2.07,2.15,2.16,-5.16,-5.16,-5.17
240.64,-7.12,-1.95,-7.16,-1.99,2.02,2.11,2.14,-5.10,-5.14,-5.17
243.05,-7.11,-1.95,-7.13,-1.97,1.97,2.06,2.12,-5.14,-5.16,-5.16
245.48,-7.11,-1.96,-7.10,-1.94,1.92,2.02,2.10,-5.19,-5.18,-5.15
247.93,-7.11,-1.97,-7.05,-1.89,1.88,1.98,2.08,-5.23,-5.17,-5.14
250.41,-6.92,-1.77,-6.97,-1.83,1.85,1.93,2.06,-5.08,-5.13,-5.15
252.92,-6.88,-1.74,-6.91,-1.77,1.81,1.89,2.03,-5.07,-5.09,-5.14
255.45,-6.88,-1.77,-6.87,-1.74,1.78,1.84,2.00,-5.11,-5.09,-5.11
258.00,-6.88,-1.77,-6.90,-1.78,1.74,1.80,1.97,-5.14,-5.16,-5.11
260.58,-6.88,-1.77,-6.87,-1.76,1.71,1.76,1.94,-5.17,-5.16,-5.11
263.19,-6.86,-1.77,-6.81,-1.71,1.69,1.71,1.91,-5.18,-5.12,-5.09
265.82,-6.68,-1.59,-6.74,-1.65,1.67,1.67,1.87,-5.01,-5.07,-5.09
268.48,-6.65,-1.59,-6.67,-1.60,1.65,1.63,1.83,-5.00,-5.02,-5.06
271.16,-6.65,-1.60,-6.64,-1.58,1.63,1.59,1.80,-5.02,-5.00,-5.05
273.87,-6.65,-1.61,-6.67,-1.63,1.61,1.55,1.75,-5.04,-5.06,-5.04
276.61,-6.65,-1.65,-6.65,-1.64,1.59,1.51,1.71,-5.06,-5.06,-5.00
279.38,-6.65,-1.66,-6.59,-1.61,1.57,1.47,1.67,-5.08,-5.02,-4.99
282.17,-6.48,-1.52,-6.52,-1.56,1.56,1.43,1.63,-4.93,-4.97,-4.96
284.99,-6.42,-1.49,-6.46,-1.52,1.54,1.40,1.58,-4.89,-4.93,-4.93
287.84,-6.42,-1.51,-6.42,-1.51,1.52,1.36,1.54,-4.91,-4.90,-4.91
290.72,-6.42,-1.55,-6.38,-1.50,1.50,1.32,1.49,-4.93,-4.88,-4.87
293.63,-6.31,-1.46,-6.32,-1.47,1.48,1.29,1.44,-4.84,-4.84,-4.85
296.57,-6.21,-1.39,-6.25,-1.42,1.46,1.25,1.39,-4.75,-4.79,-4.82
299.53,-6.20,-1.41,-6.21,-1.41,1.44,1.22,1.35,-4.76,-4.76,-4.79
302.53,-6.20,-1.42,-6.21,-1.43,1.42,1.18,1.30,-4.79,-4.79,-4.78
305.55,-6.20,-1.46,-6.18,-1.43,1.38,1.15,1.25,-4.82,-4.80,-4.74
308.61,-6.14,-1.42,-6.13,-1.40,1.34,1.12,1.20,-4.81,-4.79,-4.72
311.69,-5.99,-1.28,-6.04,-1.34,1.29,1.09,1.15,-4.70,-4.75,-4.71
314.81,-5.97,-1.29,-5.93,-1.24,1.25,1.05,1.11,-4.72,-4.68,-4.68
317.96,-5.83,-1.15,-5.84,-1.15,1.21,1.02,1.06,-4.63,-4.63,-4.68
321.14,-5.74,-1.05,-5.78,-1.09,1.16,0.99,1.01,-4.59,-4.62,-4.69
324.35,-5.74,-1.06,-5.75,-1.06,1.10,0.96,0.96,-4.65,-4.65,-4.68
327.59,-5.74,-1.07,-5.74,-1.07,1.04,0.93,0.91,-4.70,-4.70,-4.67
330.87,-5.74,-1.08,-5.71,-1.04,0.99,0.90,0.87,-4.76,-4.72,-4.66
334.18,-5.64,-0.98,-5.65,-0.99,0.94,0.87,0.82,-4.70,-4.71,-4.66
337.52,-5.52,-0.87,-5.56,-0.91,0.90,0.84,0.77,-4.63,-4.66,-4.65
340.90,-5.51,-0.89,-5.45,-0.82,0.85,0.81,0.73,-4.67,-4.60,-4.62
344.30,-5.33,-0.72,-5.38,-0.76,0.79,0.79,0.68,-4.54,-4.58,-4.61
347.75,-5.28,-0.68,-5.31,-0.72,0.73,0.76,0.63,-4.55,-4.58,-4.60
351.23,-5.28,-0.71,-5.23,-0.66,0.67,0.73,0.59,-4.62,-4.57,-4.57
354.74,-5.18,-0.63,-5.20,-0.64,0.61,0.70,0.54,-4.57,-4.58,-4.55
358.28,-5.08,-0.56,-5.11,-0.59,0.56,0.68,0.50,-4.53,-4.55,-4.52
361.87,-5.06,-0.56,-5.01,-0.50,0.51,0.65,0.45,-4.56,-4.50,-4.50
365.49,-4.89,-0.41,-4.93,-0.45,0.46,0.62,0.41,-4.44,-4.47,-4.48
369.14,-4.84,-0.38,-4.88,-0.41,0.41,0.60,0.37,-4.44,-4.47,-4.46
372.83,-4.83,-0.40,-4.80,-0.37,0.37,0.57,0.32,-4.47,-4.44,-4.43
376.56,-4.78,-0.37,-4.75,-0.33,0.33,0.54,0.28,-4.45,-4.41,-4.41
380.33,-4.63,-0.25,-4.68,-0.29,0.30,0.52,0.24,-4.33,-4.37,-4.38
384.13,-4.60,-0.24,-4.62,-0.25,0.28,0.49,0.19,-4.32,-4.33,-4.36
387.97,-4.60,-0.25,-4.59,-0.23,0.27,0.46,0.15,-4.33,-4.32,-4.35
391.85,-4.60,-0.25,-4.61,-0.26,0.25,0.44,0.11,-4.35,-4.36,-4.35
395.77,-4.60,-0.26,-4.61,-0.27,0.22,0.41,0.07,-4.38,-4.39,-4.34
399.73,-4.60,-0.27,-4.57,-0.24,0.19,0.38,0.03,-4.41,-4.38,-4.33
403.72,-4.52,-0.20,-4.51,-0.18,0.15,0.36,-0.01,-4.37,-4.36,-4.32
