frequency,raw,error,smoothed,error_smoothed,equalization,parametric_eq,fixed_band_eq,equalized_raw,equalized_smoothed,target
20.00,-8.94,-11.45,-8.94,-11.45,11.47,9.84,3.67,2.53,2.53,2.51
20.20,-8.83,-11.39,-8.83,-11.39,11.39,9.80,3.77,2.56,2.57,2.56
20.40,-8.71,-11.32,-8.71,-11.32,11.32,9.76,3.88,2.61,2.60,2.61
20.61,-8.60,-11.24,-8.60,-11.25,11.24,9.72,3.98,2.64,2.64,2.64
20.81,-8.48,-11.17,-8.48,-11.17,11.15,9.68,4.09,2.68,2.67,2.69
21.02,-8.37,-11.10,-8.36,-11.09,11.07,9.64,4.21,2.70,2.70,2.73
21.23,-8.24,-10.99,-8.24,-10.99,10.98,9.60,4.32,2.74,2.74,2.75
21.44,-8.11,-10.88,-8.11,-10.88,10.88,9.56,4.44,2.77,2.77,2.77
21.66,-7.98,-10.77,-7.98,-10.76,10.78,9.52,4.56,2.80,2.80,2.79
21.87,-7.85,-10.65,-7.85,-10.66,10.67,9.48,4.69,2.82,2.82,2.80
22.09,-7.73,-10.55,-7.74,-10.55,10.56,9.44,4.81,2.83,2.83,2.82
22.31,-7.63,-10.46,-7.62,-10.45,10.45,9.39,4.95,2.82,2.83,2.83
22.54,-7.52,-10.35,-7.52,-10.35,10.34,9.35,5.08,2.82,2.82,2.83
22.76,-7.41,-10.24,-7.41,-10.24,10.23,9.30,5.22,2.82,2.82,2.83
22.99,-7.30,-10.12,-7.30,-10.12,10.12,9.26,5.37,2.82,2.82,2.82
23.22,-7.19,-10.01,-7.19,-10.01,10.01,9.21,5.51,2.82,2.82,2.82
23.45,-7.07,-9.89,-7.07,-9.89,9.89,9.16,5.66,2.82,2.82,2.82
23.69,-6.95,-9.78,-6.95,-9.78,9.78,9.12,5.82,2.83,2.83,2.83
23.92,-6.83,-9.66,-6.83,-9.66,9.66,9.07,5.97,2.84,2.83,2.83
24.16,-6.72,-9.55,-6.72,-9.55,9.55,9.02,6.13,2.83,2.83,2.83
24.40,-6.61,-9.45,-6.61,-9.44,9.44,8.97,6.29,2.84,2.84,2.84
24.65,-6.50,-9.33,-6.50,-9.33,9.34,8.92,6.46,2.84,2.84,2.83
24.89,-6.40,-9.23,-6.40,-9.23,9.24,8.87,6.63,2.84,2.84,2.83
25.14,-6.30,-9.13,-6.30,-9.13,9.14,8.81,6.80,2.84,2.84,2.83
25.39,-6.20,-9.04,-6.20,-9.04,9.04,8.76,6.97,2.84,2.83,2.84
25.65,-6.11,-8.95,-6.11,-8.94,8.94,8.71,7.15,2.83,2.83,2.84
25.91,-6.01,-8.84,-6.01,-8.84,8.84,8.65,7.32,2.83,2.83,2.83
26.16,-5.91,-8.74,-5.91,-8.74,8.74,8.60,7.50,2.83,2.83,2.83
26.43,-5.81,-8.64,-5.81,-8.64,8.64,8.54,7.67,2.83,2.83,2.83
26.69,-5.71,-8.54,-5.71,-8.54,8.53,8.48,7.85,2.82,2.82,2.83
26.96,-5.61,-8.44,-5.61,-8.44,8.42,8.43,8.02,2.81,2.82,2.83
27.23,-5.49,-8.32,-5.49,-8.32,8.31,8.37,8.19,2.82,2.82,2.83
27.50,-5.38,-8.21,-5.38,-8.20,8.20,8.31,8.36,2.82,2.83,2.83
27.77,-5.26,-8.08,-5.26,-8.08,8.10,8.25,8.52,2.84,2.84,2.82
28.05,-5.15,-7.97,-5.16,-7.97,8.00,8.19,8.68,2.85,2.84,2.82
28.33,-5.07,-7.88,-5.07,-7.88,7.90,8.13,8.83,2.83,2.83,2.81
28.62,-4.98,-7.79,-4.98,-7.79,7.80,8.06,8.97,2.82,2.82,2.81
28.90,-4.90,-7.72,-4.89,-7.71,7.70,8.00,9.10,2.80,2.81,2.82
29.19,-4.80,-7.61,-4.80,-7.62,7.60,7.94,9.22,2.80,2.80,2.81
29.48,-4.70,-7.52,-4.70,-7.52,7.50,7.87,9.33,2.80,2.79,2.82
29.78,-4.60,-7.41,-4.60,-7.41,7.39,7.81,9.42,2.79,2.79,2.81
30.08,-4.49,-7.31,-4.49,-7.30,7.28,7.74,9.49,2.79,2.80,2.82
30.38,-4.36,-7.17,-4.36,-7.17,7.18,7.67,9.56,2.82,2.82,2.81
30.68,-4.23,-7.04,-4.23,-7.04,7.07,7.60,9.59,2.84,2.84,2.81
30.99,-4.11,-6.92,-4.13,-6.93,6.97,7.53,9.62,2.86,2.85,2.81
31.30,-4.04,-6.84,-4.04,-6.85,6.87,7.46,9.62,2.83,2.83,2.80
31.61,-3.98,-6.78,-3.97,-6.77,6.77,7.39,9.62,2.79,2.80,2.80
31.93,-3.91,-6.71,-3.90,-6.70,6.67,7.32,9.58,2.76,2.77,2.80
32.24,-3.81,-6.60,-3.81,-6.60,6.57,7.25,9.53,2.76,2.76,2.79
32.57,-3.70,-6.49,-3.70,-6.49,6.47,7.18,9.46,2.77,2.77,2.79
32.89,-3.59,-6.38,-3.59,-6.38,6.37,7.10,9.38,2.78,2.78,2.79
33.22,-3.48,-6.26,-3.48,-6.26,6.27,7.03,9.28,2.79,2.79,2.78
33.55,-3.37,-6.15,-3.37,-6.14,6.17,6.95,9.17,2.80,2.80,2.78
33.89,-3.26,-6.03,-3.27,-6.04,6.06,6.87,9.05,2.80,2.80,2.77
34.23,-3.17,-5.94,-3.18,-5.95,5.96,6.79,8.91,2.79,2.78,2.77
34.57,-3.11,-5.87,-3.11,-5.87,5.86,6.72,8.76,2.75,2.75,2.76
34.92,-3.04,-5.80,-3.03,-5.79,5.77,6.64,8.61,2.72,2.74,2.76
35.27,-2.94,-5.69,-2.94,-5.69,5.68,6.56,8.45,2.74,2.74,2.75
35.62,-2.83,-5.58,-2.83,-5.59,5.60,6.47,8.28,2.76,2.76,2.75
35.97,-2.73,-5.48,-2.74,-5.49,5.51,6.39,8.11,2.78,2.77,2.75
36.33,-2.67,-5.42,-2.67,-5.41,5.43,6.31,7.94,2.76,2.76,2.75
36.70,-2.61,-5.35,-2.60,-5.35,5.34,6.22,7.76,2.73,2.74,2.74
37.06,-2.54,-5.28,-2.54,-5.28,5.25,6.14,7.58,2.72,2.72,2.74
37.43,-2.45,-5.20,-2.45,-5.20,5.17,6.05,7.41,2.72,2.72,2.75
37.81,-2.36,-5.11,-2.36,-5.11,5.09,5.97,7.23,2.73,2.73,2.75
38.19,-2.26,-5.00,-2.26,-5.01,5.02,5.88,7.05,2.76,2.76,2.74
38.57,-2.17,-4.92,-2.16,-4.91,4.95,5.79,6.87,2.78,2.78,2.75
38.95,-2.07,-4.83,-2.09,-4.84,4.88,5.70,6.70,2.81,2.78,2.76
39.34,-2.04,-4.79,-2.05,-4.80,4.81,5.62,6.53,2.77,2.76,2.75
39.74,-2.02,-4.77,-2.01,-4.76,4.74,5.52,6.36,2.72,2.73,2.75
40.14,-1.97,-4.72,-1.96,-4.70,4.67,5.43,6.19,2.70,2.72,2.75
40.54,-1.88,-4.63,-1.88,-4.63,4.61,5.34,6.02,2.73,2.73,2.75
40.94,-1.79,-4.53,-1.81,-4.55,4.55,5.25,5.86,2.76,2.74,2.74
41.35,-1.74,-4.48,-1.74,-4.48,4.49,5.16,5.71,2.75,2.74,2.74
41.76,-1.70,-4.43,-1.69,-4.42,4.43,5.06,5.55,2.73,2.74,2.73
42.18,-1.64,-4.37,-1.63,-4.36,4.37,4.97,5.40,2.73,2.74,2.73
42.60,-1.57,-4.29,-1.57,-4.29,4.32,4.88,5.25,2.75,2.74,2.72
43.03,-1.51,-4.22,-1.54,-4.25,4.27,4.78,5.11,2.76,2.73,2.71
43.46,-1.52,-4.22,-1.52,-4.22,4.22,4.69,4.96,2.70,2.70,2.70
43.90,-1.53,-4.21,-1.51,-4.19,4.17,4.59,4.83,2.64,2.66,2.68
44.33,-1.49,-4.15,-1.49,-4.15,4.12,4.49,4.69,2.63,2.63,2.66
44.78,-1.44,-4.08,-1.44,-4.09,4.06,4.40,4.56,2.62,2.61,2.64
45.23,-1.38,-4.01,-1.38,-4.01,4.00,4.30,4.43,2.61,2.61,2.63
45.68,-1.32,-3.94,-1.32,-3.94,3.93,4.20,4.31,2.61,2.61,2.62
46.13,-1.26,-3.86,-1.25,-3.85,3.87,4.11,4.19,2.61,2.62,2.60
46.60,-1.18,-3.78,-1.18,-3.78,3.81,4.01,4.07,2.63,2.62,2.60
47.06,-1.12,-3.70,-1.14,-3.72,3.75,3.91,3.96,2.63,2.61,2.58
47.53,-1.11,-3.68,-1.11,-3.69,3.70,3.81,3.85,2.59,2.59,2.57
48.01,-1.11,-3.68,-1.10,-3.66,3.66,3.72,3.74,2.55,2.56,2.57
48.49,-1.09,-3.64,-1.09,-3.64,3.62,3.62,3.63,2.53,2.53,2.55
48.97,-1.07,-3.60,-1.07,-3.60,3.59,3.52,3.53,2.52,2.52,2.53
49.46,-1.04,-3.55,-1.04,-3.55,3.55,3.43,3.43,2.51,2.51,2.51
49.96,-1.01,-3.50,-1.03,-3.52,3.51,3.33,3.33,2.50,2.48,2.49
50.46,-1.01,-3.49,-1.01,-3.49,3.47,3.23,3.24,2.46,2.45,2.48
50.96,-1.01,-3.48,-0.97,-3.44,3.42,3.14,3.14,2.41,2.45,2.47
51.47,-0.92,-3.37,-0.91,-3.37,3.37,3.04,3.05,2.45,2.46,2.45
51.99,-0.81,-3.25,-0.86,-3.30,3.32,2.95,2.97,2.51,2.47,2.44
52.51,-0.81,-3.24,-0.81,-3.24,3.27,2.86,2.88,2.46,2.46,2.43
53.03,-0.81,-3.24,-0.79,-3.21,3.21,2.76,2.80,2.40,2.43,2.43
53.56,-0.76,-3.17,-0.77,-3.18,3.16,2.67,2.72,2.40,2.39,2.41
54.10,-0.72,-3.12,-0.71,-3.11,3.10,2.58,2.64,2.38,2.38,2.40
54.64,-0.65,-3.03,-0.65,-3.04,3.04,2.49,2.56,2.39,2.38,2.38
55.18,-0.59,-2.97,-0.60,-2.97,2.98,2.41,2.49,2.39,2.38,2.38
55.74,-0.54,-2.90,-0.54,-2.90,2.91,2.32,2.41,2.36,2.37,2.36
56.29,-0.48,-2.83,-0.48,-2.83,2.82,2.24,2.34,2.34,2.34,2.35
56.86,-0.42,-2.76,-0.42,-2.75,2.73,2.15,2.27,2.31,2.32,2.34
57.42,-0.35,-2.66,-0.34,-2.66,2.64,2.07,2.20,2.30,2.30,2.31
58.00,-0.26,-2.56,-0.26,-2.57,2.56,1.99,2.14,2.30,2.29,2.30
58.58,-0.18,-2.47,-0.18,-2.46,2.47,1.91,2.07,2.29,2.30,2.29
59.16,-0.10,-2.37,-0.09,-2.36,2.39,1.84,2.01,2.29,2.30,2.27
59.76,-0.02,-2.27,-0.04,-2.28,2.32,1.76,1.94,2.30,2.28,2.25
60.35,-0.00,-2.21,-0.01,-2.22,2.24,1.69,1.88,2.24,2.23,2.21
60.96,-0.01,-2.18,-0.01,-2.18,2.17,1.62,1.82,2.16,2.16,2.17
61.57,-0.01,-2.14,0.01,-2.12,2.09,1.55,1.76,2.08,2.10,2.13
62.18,0.02,-2.07,0.04,-2.04,2.02,1.48,1.71,2.04,2.06,2.09
62.80,0.12,-1.92,0.07,-1.97,1.95,1.42,1.65,2.07,2.02,2.04
63.43,0.12,-1.88,0.12,-1.88,1.88,1.35,1.59,2.00,2.00,2.00
64.07,0.10,-1.85,0.16,-1.79,1.82,1.29,1.54,1.92,1.98,1.95
64.71,0.22,-1.69,0.19,-1.72,1.76,1.24,1.49,1.98,1.95,1.91
65.35,0.24,-1.63,0.21,-1.66,1.70,1.18,1.43,1.94,1.91,1.87
66.01,0.19,-1.63,0.20,-1.61,1.64,1.13,1.38,1.83,1.85,1.82
66.67,0.16,-1.61,0.16,-1.61,1.58,1.07,1.33,1.74,1.75,1.77
67.33,0.15,-1.57,0.15,-1.57,1.51,1.02,1.28,1.66,1.66,1.72
68.01,0.17,-1.51,0.18,-1.49,1.43,0.98,1.23,1.60,1.62,1.68
68.69,0.25,-1.38,0.24,-1.38,1.35,0.93,1.18,1.60,1.59,1.63
69.37,0.33,-1.25,0.33,-1.25,1.26,0.89,1.13,1.59,1.58,1.58
70.07,0.40,-1.13,0.40,-1.13,1.16,0.84,1.08,1.56,1.57,1.53
70.77,0.47,-1.01,0.46,-1.02,1.07,0.80,1.04,1.54,1.52,1.48
71.48,0.49,-0.94,0.49,-0.94,0.97,0.76,0.99,1.46,1.45,1.43
72.19,0.49,-0.87,0.50,-0.87,0.88,0.73,0.94,1.37,1.37,1.36
72.91,0.49,-0.81,0.49,-0.81,0.80,0.69,0.90,1.29,1.29,1.30
73.64,0.49,-0.76,0.49,-0.76,0.73,0.66,0.85,1.22,1.22,1.25
74.38,0.49,-0.70,0.49,-0.70,0.67,0.63,0.81,1.16,1.16,1.19
75.12,0.49,-0.64,0.50,-0.63,0.62,0.60,0.76,1.11,1.13,1.13
75.87,0.52,-0.55,0.51,-0.56,0.59,0.57,0.72,1.11,1.10,1.07
76.63,0.51,-0.51,0.49,-0.52,0.56,0.54,0.67,1.07,1.05,1.02
77.40,0.46,-0.51,0.46,-0.51,0.54,0.51,0.63,1.00,1.00,0.97
78.17,0.38,-0.53,0.41,-0.51,0.53,0.49,0.59,0.91,0.94,0.91
78.95,0.36,-0.51,0.35,-0.52,0.52,0.46,0.54,0.88,0.87,0.87
79.74,0.31,-0.51,0.29,-0.52,0.51,0.44,0.50,0.82,0.81,0.82
80.54,0.24,-0.53,0.25,-0.52,0.50,0.41,0.46,0.74,0.74,0.77
81.35,0.19,-0.53,0.19,-0.53,0.47,0.39,0.41,0.66,0.66,0.72
82.16,0.19,-0.48,0.19,-0.48,0.43,0.37,0.37,0.62,0.62,0.67
82.98,0.19,-0.44,0.23,-0.40,0.39,0.34,0.33,0.58,0.62,0.63
83.81,0.31,-0.27,0.27,-0.31,0.34,0.32,0.28,0.65,0.61,0.58
84.65,0.31,-0.22,0.30,-0.23,0.29,0.30,0.24,0.60,0.59,0.53
85.50,0.30,-0.19,0.31,-0.17,0.22,0.28,0.19,0.52,0.54,0.49
86.35,0.29,-0.15,0.28,-0.16,0.16,0.26,0.15,0.45,0.44,0.44
87.22,0.27,-0.12,0.26,-0.13,0.09,0.24,0.11,0.36,0.35,0.39
88.09,0.24,-0.10,0.27,-0.07,0.02,0.22,0.06,0.26,0.29,0.34
88.97,0.29,0.01,0.30,0.02,-0.04,0.20,0.02,0.25,0.26,0.28
89.86,0.38,0.15,0.35,0.12,-0.11,0.18,-0.02,0.27,0.24,0.23
90.76,0.39,0.21,0.39,0.21,-0.17,0.16,-0.07,0.22,0.21,0.18
91.66,0.39,0.26,0.40,0.27,-0.24,0.14,-0.11,0.15,0.16,0.13
92.58,0.39,0.32,0.39,0.32,-0.31,0.12,-0.16,0.08,0.08,0.07
93.51,0.39,0.37,0.39,0.37,-0.37,0.10,-0.20,0.02,0.02,0.02
94.44,0.39,0.41,0.39,0.42,-0.42,0.08,-0.25,-0.03,-0.03,-0.02
95.39,0.39,0.46,0.39,0.46,-0.47,0.06,-0.29,-0.08,-0.08,-0.07
96.34,0.39,0.51,0.39,0.51,-0.51,0.03,-0.34,-0.12,-0.12,-0.12
97.30,0.38,0.55,0.38,0.55,-0.55,0.01,-0.38,-0.17,-0.16,-0.17
98.28,0.37,0.59,0.37,0.59,-0.58,-0.01,-0.43,-0.21,-0.21,-0.22
99.26,0.36,0.62,0.36,0.62,-0.62,-0.03,-0.47,-0.26,-0.27,-0.26
100.25,0.34,0.65,0.34,0.65,-0.66,-0.05,-0.52,-0.32,-0.32,-0.31
101.25,0.32,0.68,0.32,0.68,-0.69,-0.08,-0.56,-0.37,-0.36,-0.36
102.27,0.31,0.72,0.31,0.72,-0.72,-0.10,-0.61,-0.41,-0.41,-0.41
103.29,0.30,0.76,0.30,0.75,-0.75,-0.12,-0.65,-0.45,-0.46,-0.46
104.32,0.28,0.78,0.28,0.78,-0.79,-0.15,-0.70,-0.51,-0.51,-0.50
105.37,0.25,0.80,0.26,0.81,-0.82,-0.17,-0.74,-0.57,-0.56,-0.55
106.42,0.23,0.83,0.23,0.83,-0.84,-0.19,-0.78,-0.61,-0.61,-0.60
107.48,0.21,0.87,0.21,0.87,-0.86,-0.22,-0.83,-0.65,-0.64,-0.66
108.56,0.18,0.89,0.18,0.90,-0.86,-0.24,-0.87,-0.68,-0.68,-0.71
109.64,0.16,0.92,0.14,0.91,-0.87,-0.27,-0.91,-0.71,-0.73,-0.76
110.74,0.08,0.90,0.08,0.89,-0.88,-0.29,-0.94,-0.80,-0.80,-0.82
111.85,0.01,0.87,0.00,0.87,-0.89,-0.32,-0.98,-0.88,-0.88,-0.86
112.97,-0.08,0.84,-0.06,0.86,-0.90,-0.34,-1.02,-0.98,-0.96,-0.92
114.10,-0.09,0.88,-0.09,0.88,-0.92,-0.36,-1.05,-1.01,-1.01,-0.97
115.24,-0.09,0.93,-0.10,0.92,-0.95,-0.39,-1.09,-1.04,-1.05,-1.02
116.39,-0.09,0.98,-0.09,0.98,-0.98,-0.41,-1.12,-1.07,-1.07,-1.07
117.55,-0.09,1.02,-0.09,1.02,-1.01,-0.44,-1.15,-1.10,-1.10,-1.11
118.73,-0.08,1.07,-0.08,1.07,-1.04,-0.46,-1.17,-1.12,-1.12,-1.15
119.92,-0.08,1.10,-0.07,1.11,-1.07,-0.49,-1.20,-1.15,-1.14,-1.18
121.12,-0.07,1.15,-0.09,1.13,-1.09,-0.51,-1.22,-1.16,-1.18,-1.22
122.33,-0.12,1.13,-0.15,1.10,-1.10,-0.54,-1.24,-1.22,-1.25,-1.25
123.55,-0.23,1.05,-0.20,1.08,-1.11,-0.56,-1.26,-1.34,-1.31,-1.28
124.79,-0.27,1.04,-0.24,1.06,-1.11,-0.59,-1.27,-1.38,-1.36,-1.31
126.03,-0.24,1.10,-0.25,1.09,-1.11,-0.61,-1.29,-1.35,-1.36,-1.34
127.29,-0.23,1.13,-0.24,1.13,-1.10,-0.63,-1.30,-1.33,-1.35,-1.36
128.57,-0.24,1.16,-0.26,1.14,-1.10,-0.66,-1.30,-1.34,-1.36,-1.40
129.85,-0.31,1.12,-0.30,1.13,-1.11,-0.68,-1.31,-1.42,-1.41,-1.43
131.15,-0.35,1.11,-0.35,1.11,-1.13,-0.70,-1.31,-1.48,-1.47,-1.46
132.46,-0.39,1.10,-0.38,1.11,-1.14,-0.73,-1.31,-1.53,-1.53,-1.49
133.79,-0.40,1.12,-0.40,1.12,-1.15,-0.75,-1.31,-1.55,-1.55,-1.52
135.12,-0.40,1.15,-0.40,1.15,-1.15,-0.77,-1.31,-1.55,-1.55,-1.55
136.48,-0.40,1.17,-0.39,1.18,-1.15,-0.79,-1.31,-1.55,-1.54,-1.57
137.84,-0.39,1.22,-0.41,1.20,-1.15,-0.81,-1.30,-1.54,-1.56,-1.61
139.22,-0.45,1.19,-0.45,1.18,-1.16,-0.83,-1.29,-1.61,-1.61,-1.64
140.61,-0.51,1.16,-0.51,1.15,-1.17,-0.85,-1.28,-1.68,-1.68,-1.67
142.02,-0.59,1.10,-0.57,1.13,-1.17,-0.87,-1.28,-1.76,-1.74,-1.69
143.44,-0.59,1.13,-0.59,1.13,-1.17,-0.89,-1.26,-1.76,-1.77,-1.72
144.87,-0.59,1.17,-0.59,1.17,-1.17,-0.91,-1.25,-1.76,-1.76,-1.76
146.32,-0.59,1.21,-0.57,1.22,-1.17,-0.92,-1.24,-1.76,-1.74,-1.80
147.78,-0.57,1.26,-0.61,1.23,-1.18,-0.94,-1.23,-1.75,-1.79,-1.83
149.26,-0.64,1.24,-0.67,1.21,-1.21,-0.95,-1.22,-1.85,-1.88,-1.88
150.75,-0.79,1.15,-0.74,1.20,-1.24,-0.97,-1.20,-2.03,-1.98,-1.94
152.26,-0.80,1.21,-0.79,1.22,-1.28,-0.98,-1.19,-2.08,-2.07,-2.01
153.78,-0.79,1.29,-0.80,1.28,-1.31,-1.00,-1.18,-2.10,-2.12,-2.08
155.32,-0.79,1.36,-0.79,1.36,-1.35,-1.01,-1.17,-2.14,-2.14,-2.15
156.88,-0.80,1.43,-0.82,1.41,-1.38,-1.02,-1.15,-2.18,-2.19,-2.23
158.44,-0.87,1.44,-0.86,1.45,-1.41,-1.03,-1.14,-2.28,-2.27,-2.31
160.03,-0.93,1.46,-0.92,1.46,-1.43,-1.04,-1.13,-2.36,-2.36,-2.39
161.63,-0.99,1.47,-1.00,1.46,-1.45,-1.05,-1.12,-2.44,-2.45,-2.46
163.24,-1.06,1.46,-1.06,1.46,-1.46,-1.06,-1.11,-2.52,-2.53,-2.52
164.88,-1.13,1.44,-1.13,1.45,-1.47,-1.07,-1.10,-2.60,-2.59,-2.57
166.53,-1.18,1.44,-1.17,1.45,-1.48,-1.08,-1.09,-2.66,-2.65,-2.62
168.19,-1.20,1.46,-1.20,1.46,-1.49,-1.09,-1.08,-2.69,-2.69,-2.66
169.87,-1.21,1.49,-1.21,1.48,-1.50,-1.09,-1.08,-2.71,-2.71,-2.70
171.57,-1.22,1.50,-1.22,1.50,-1.50,-1.10,-1.07,-2.72,-2.73,-2.72
173.29,-1.22,1.51,-1.21,1.52,-1.50,-1.10,-1.07,-2.72,-2.71,-2.73
175.02,-1.22,1.52,-1.20,1.54,-1.48,-1.10,-1.06,-2.70,-2.68,-2.74
176.77,-1.19,1.56,-1.22,1.53,-1.47,-1.11,-1.06,-2.66,-2.68,-2.75
178.54,-1.24,1.52,-1.28,1.47,-1.45,-1.11,-1.06,-2.69,-2.73,-2.76
180.32,-1.38,1.37,-1.35,1.40,-1.43,-1.11,-1.05,-2.81,-2.78,-2.75
182.13,-1.45,1.29,-1.42,1.33,-1.41,-1.11,-1.05,-2.86,-2.83,-2.74
183.95,-1.42,1.33,-1.43,1.31,-1.38,-1.11,-1.05,-2.80,-2.82,-2.75
185.79,-1.40,1.35,-1.39,1.36,-1.36,-1.11,-1.05,-2.76,-2.75,-2.75
187.65,-1.37,1.40,-1.36,1.40,-1.34,-1.11,-1.06,-2.71,-2.71,-2.77
189.52,-1.34,1.44,-1.40,1.39,-1.34,-1.11,-1.06,-2.68,-2.74,-2.78
191.42,-1.46,1.34,-1.46,1.35,-1.34,-1.10,-1.06,-2.80,-2.80,-2.80
193.33,-1.56,1.26,-1.51,1.31,-1.34,-1.10,-1.07,-2.90,-2.85,-2.82
195.27,-1.55,1.29,-1.53,1.31,-1.33,-1.10,-1.07,-2.88,-2.86,-2.84
197.22,-1.51,1.35,-1.53,1.33,-1.32,-1.09,-1.08,-2.83,-2.85,-2.86
199.19,-1.50,1.38,-1.55,1.33,-1.30,-1.08,-1.08,-2.81,-2.86,-2.88
201.18,-1.63,1.27,-1.61,1.29,-1.30,-1.08,-1.09,-2.93,-2.90,-2.90
203.19,-1.70,1.22,-1.67,1.25,-1.29,-1.07,-1.10,-2.99,-2.96,-2.92
205.23,-1.69,1.25,-1.70,1.24,-1.28,-1.06,-1.10,-2.97,-2.97,-2.94
207.28,-1.68,1.27,-1.67,1.29,-1.26,-1.05,-1.11,-2.94,-2.92,-2.95
209.35,-1.66,1.31,-1.68,1.30,-1.23,-1.04,-1.12,-2.89,-2.91,-2.97
211.44,-1.69,1.31,-1.75,1.25,-1.21,-1.03,-1.12,-2.90,-2.96,-3.00
213.56,-1.87,1.14,-1.82,1.19,-1.20,-1.02,-1.13,-3.07,-3.02,-3.01
215.69,-1.93,1.09,-1.89,1.13,-1.19,-1.01,-1.14,-3.12,-3.08,-3.02
217.85,-1.90,1.13,-1.93,1.11,-1.17,-1.00,-1.14,-3.07,-3.10,-3.03
220.03,-1.91,1.13,-1.91,1.14,-1.14,-0.99,-1.15,-3.05,-3.05,-3.04
222.23,-1.91,1.16,-1.90,1.15,-1.11,-0.98,-1.15,-3.02,-3.02,-3.07
224.45,-1.91,1.15,-1.92,1.14,-1.08,-0.96,-1.16,-2.99,-3.00,-3.06
226.70,-1.95,1.11,-1.96,1.10,-1.07,-0.95,-1.16,-3.02,-3.02,-3.06
228.96,-2.00,1.05,-2.01,1.04,-1.05,-0.93,-1.16,-3.05,-3.06,-3.05
231.25,-2.08,0.96,-2.06,0.98,-1.03,-0.92,-1.16,-3.11,-3.09,-3.04
233.57,-2.09,0.94,-2.09,0.95,-1.00,-0.90,-1.16,-3.09,-3.08,-3.03
235.90,-2.08,0.94,-2.08,0.94,-0.95,-0.89,-1.16,-3.03,-3.04,-3.02
238.26,-2.06,0.95,-2.05,0.95,-0.91,-0.87,-1.15,-2.97,-2.96,-3.01
240.64,-2.04,0.94,-2.05,0.93,-0.88,-0.85,-1.15,-2.92,-2.92,-2.98
243.05,-2.04,0.91,-2.09,0.87,-0.85,-0.83,-1.14,-2.89,-2.93,-2.95
245.48,-2.16,0.77,-2.14,0.79,-0.82,-0.81,-1.13,-2.98,-2.96,-2.93
247.93,-2.21,0.69,-2.17,0.73,-0.78,-0.79,-1.12,-2.99,-2.96,-2.90
250.41,-2.17,0.71,-2.16,0.71,-0.74,-0.77,-1.10,-2.91,-2.91,-2.88
252.92,-2.11,0.74,-2.13,0.72,-0.71,-0.75,-1.09,-2.82,-2.84,-2.85
255.45,-2.09,0.74,-2.13,0.70,-0.67,-0.73,-1.07,-2.76,-2.80,-2.83
258.00,-2.18,0.63,-2.16,0.65,-0.64,-0.71,-1.05,-2.82,-2.80,-2.81
260.58,-2.22,0.57,-2.20,0.58,-0.61,-0.69,-1.02,-2.83,-2.81,-2.79
263.19,-2.22,0.54,-2.22,0.54,-0.56,-0.66,-1.00,-2.78,-2.78,-2.76
265.82,-2.22,0.52,-2.20,0.54,-0.51,-0.64,-0.97,-2.73,-2.71,-2.74
268.48,-2.20,0.52,-2.22,0.49,-0.44,-0.61,-0.94,-2.64,-2.67,-2.72
271.16,-2.24,0.45,-2.28,0.41,-0.38,-0.59,-0.91,-2.62,-2.66,-2.69
273.87,-2.39,0.28,-2.36,0.31,-0.32,-0.56,-0.88,-2.71,-2.68,-2.67
276.61,-2.44,0.20,-2.42,0.22,-0.27,-0.53,-0.84,-2.71,-2.69,-2.64
279.38,-2.45,0.16,-2.44,0.17,-0.22,-0.50,-0.81,-2.67,-2.66,-2.61
282.17,-2.42,0.17,-2.43,0.15,-0.18,-0.47,-0.77,-2.60,-2.61,-2.59
284.99,-2.40,0.15,-2.42,0.14,-0.14,-0.44,-0.73,-2.54,-2.56,-2.55
287.84,-2.43,0.10,-2.41,0.12,-0.10,-0.41,-0.69,-2.53,-2.52,-2.53
290.72,-2.41,0.09,-2.40,0.10,-0.08,-0.38,-0.65,-2.49,-2.47,-2.50
293.63,-2.38,0.09,-2.39,0.08,-0.06,-0.35,-0.61,-2.44,-2.45,-2.47
296.57,-2.36,0.08,-2.39,0.05,-0.04,-0.31,-0.56,-2.40,-2.43,-2.44
299.53,-2.43,-0.02,-2.41,-0.00,-0.01,-0.28,-0.52,-2.44,-2.42,-2.41
302.53,-2.45,-0.06,-2.43,-0.05,0.03,-0.24,-0.47,-2.42,-2.40,-2.39
305.55,-2.44,-0.09,-2.44,-0.08,0.08,-0.20,-0.43,-2.36,-2.36,-2.35
308.61,-2.43,-0.10,-2.43,-0.10,0.13,-0.16,-0.38,-2.30,-2.30,-2.33
311.69,-2.43,-0.13,-2.45,-0.15,0.18,-0.12,-0.33,-2.25,-2.27,-2.30
314.81,-2.49,-0.21,-2.50,-0.22,0.23,-0.08,-0.29,-2.26,-2.27,-2.28
317.96,-2.57,-0.31,-2.55,-0.29,0.27,-0.04,-0.24,-2.30,-2.28,-2.26
321.14,-2.61,-0.36,-2.60,-0.36,0.32,0.01,-0.19,-2.29,-2.28,-2.25
324.35,-2.62,-0.39,-2.62,-0.39,0.37,0.05,-0.14,-2.25,-2.25,-2.23
327.59,-2.62,-0.40,-2.62,-0.40,0.41,0.10,-0.09,-2.21,-2.21,-2.22
330.87,-2.62,-0.41,-2.63,-0.43,0.45,0.15,-0.04,-2.17,-2.19,-2.21
334.18,-2.65,-0.46,-2.66,-0.47,0.48,0.20,0.01,-2.17,-2.19,-2.19
337.52,-2.72,-0.54,-2.70,-0.52,0.51,0.25,0.06,-2.21,-2.19,-2.18
340.90,-2.73,-0.56,-2.72,-0.55,0.54,0.31,0.11,-2.19,-2.18,-2.17
344.30,-2.73,-0.57,-2.73,-0.57,0.57,0.36,0.16,-2.16,-2.16,-2.16
347.75,-2.73,-0.57,-2.74,-0.58,0.61,0.41,0.21,-2.12,-2.13,-2.16
351.23,-2.77,-0.62,-2.78,-0.62,0.65,0.47,0.26,-2.12,-2.12,-2.15
354.74,-2.82,-0.66,-2.83,-0.68,0.68,0.53,0.31,-2.14,-2.15,-2.16
358.28,-2.90,-0.75,-2.88,-0.73,0.70,0.58,0.36,-2.20,-2.18,-2.15
361.87,-2.92,-0.77,-2.91,-0.76,0.72,0.64,0.41,-2.20,-2.19,-2.15
365.49,-2.91,-0.77,-2.92,-0.77,0.74,0.69,0.46,-2.17,-2.18,-2.14
369.14,-2.90,-0.75,-2.90,-0.75,0.75,0.75,0.52,-2.15,-2.15,-2.15
372.83,-2.89,-0.74,-2.89,-0.74,0.76,0.80,0.57,-2.13,-2.13,-2.15
376.56,-2.89,-0.73,-2.89,-0.73,0.77,0.85,0.62,-2.12,-2.12,-2.16
380.33,-2.88,-0.73,-2.90,-0.75,0.77,0.90,0.67,-2.11,-2.13,-2.15
384.13,-2.93,-0.78,-2.92,-0.77,0.77,0.94,0.73,-2.16,-2.15,-2.15
387.97,-2.96,-0.80,-2.95,-0.79,0.77,0.98,0.78,-2.19,-2.17,-2.16
391.85,-2.96,-0.79,-2.96,-0.80,0.78,1.02,0.83,-2.18,-2.18,-2.17
395.77,-2.96,-0.80,-2.96,-0.80,0.79,1.05,0.88,-2.17,-2.18,-2.16
399.73,-2.96,-0.79,-2.96,-0.79,0.79,1.08,0.93,-2.17,-2.17,-2.17
403.72,-2.96,-0.79,-2.96,-0.79,0.79,1.10,0.99,-2.17,-2.17,-2.17
407.76,-2.97,-0.78,-2.97,-0.78,0.79,1.11,1.04,-2.18,-2.18,-2.19
411.84,-2.97,-0.78,-2.97,-0.78,0.78,1.12,1.09,-2.19,-2.19,-2.19
415.96,-2.97,-0.78,-2.97,-0.78,0.78,1.13,1.13,-2.19,-2.19,-2.19
420.12,-2.97,-0.78,-2.97,-0.78,0.78,1.12,1.18,-2.19,-2.19,-2.19
424.32,-2.97,-0.78,-2.96,-0.77,0.79,1.12,1.23,-2.18,-2.17,-2.19
428.56,-2.96,-0.78,-2.96,-0.78,0.80,1.10,1.27,-2.16,-2.16,-2.18
432.85,-2.95,-0.78,-2.97,-0.80,0.81,1.08,1.32,-2.14,-2.16,-2.17
437.18,-3.00,-0.84,-2.98,-0.83,0.82,1.06,1.36,-2.18,-2.16,-2.16
441.55,-2.98,-0.86,-2.97,-0.84,0.82,1.04,1.40,-2.16,-2.15,-2.12
445.96,-2.93,-0.84,-2.94,-0.85,0.82,1.01,1.43,-2.11,-2.12,-2.09
450.42,-2.88,-0.82,-2.88,-0.83,0.81,0.97,1.47,-2.07,-2.07,-2.06
454.93,-2.82,-0.81,-2.82,-0.80,0.81,0.94,1.50,-2.01,-2.01,-2.01
459.48,-2.76,-0.79,-2.76,-0.79,0.81,0.90,1.53,-1.95,-1.95,-1.97
464.07,-2.70,-0.78,-2.70,-0.78,0.81,0.86,1.55,-1.89,-1.89,-1.92
468.71,-2.65,-0.79,-2.65,-0.78,0.81,0.83,1.57,-1.84,-1.84,-1.86
473.40,-2.60,-0.78,-2.62,-0.81,0.82,0.79,1.59,-1.79,-1.80,-1.82
