frequency,raw,error,smoothed,error_smoothed,equalization,parametric_eq,fixed_band_eq,equalized_raw,equalized_smoothed,target
20.00,0.71,-2.06,0.64,-2.16,2.16,2.11,0.47,2.87,2.80,2.77
20.20,0.73,-2.09,0.69,-2.15,2.15,2.09,0.48,2.88,2.84,2.82
20.40,0.76,-2.11,0.74,-2.13,2.13,2.06,0.50,2.89,2.87,2.87
20.61,0.78,-2.12,0.79,-2.11,2.11,2.04,0.51,2.89,2.91,2.90
20.81,0.81,-2.14,0.85,-2.09,2.09,2.01,0.53,2.90,2.94,2.95
21.02,0.84,-2.15,0.90,-2.06,2.06,1.99,0.55,2.90,2.96,2.99
21.23,0.91,-2.10,0.95,-2.04,2.04,1.96,0.56,2.94,2.99,3.01
21.44,0.98,-2.05,1.01,-2.00,2.00,1.93,0.58,2.98,3.01,3.03
21.66,1.06,-1.99,1.06,-1.97,1.97,1.90,0.60,3.03,3.03,3.05
21.87,1.13,-1.93,1.12,-1.93,1.93,1.87,0.62,3.06,3.05,3.06
22.09,1.19,-1.89,1.17,-1.89,1.89,1.84,0.64,3.08,3.07,3.08
22.31,1.22,-1.87,1.23,-1.85,1.85,1.81,0.66,3.07,3.08,3.09
22.54,1.26,-1.83,1.31,-1.78,1.78,1.78,0.68,3.04,3.09,3.09
22.76,1.29,-1.80,1.38,-1.71,1.71,1.74,0.70,3.00,3.09,3.09
22.99,1.33,-1.75,1.44,-1.65,1.65,1.71,0.72,2.98,3.09,3.08
23.22,1.45,-1.63,1.50,-1.59,1.59,1.68,0.74,3.04,3.09,3.08
23.45,1.57,-1.51,1.56,-1.54,1.54,1.65,0.76,3.10,3.09,3.08
23.69,1.70,-1.39,1.61,-1.48,1.48,1.61,0.78,3.18,3.09,3.09
23.92,1.82,-1.27,1.66,-1.44,1.44,1.58,0.81,3.25,3.09,3.09
24.16,1.83,-1.26,1.70,-1.40,1.40,1.55,0.83,3.22,3.09,3.09
24.40,1.78,-1.32,1.72,-1.37,1.37,1.52,0.85,3.15,3.09,3.10
24.65,1.74,-1.35,1.73,-1.36,1.36,1.48,0.88,3.10,3.09,3.09
24.89,1.69,-1.40,1.73,-1.37,1.37,1.45,0.90,3.05,3.09,3.09
25.14,1.68,-1.41,1.71,-1.38,1.38,1.42,0.92,3.06,3.09,3.09
25.39,1.71,-1.39,1.70,-1.39,1.39,1.39,0.95,3.10,3.09,3.10
25.65,1.74,-1.36,1.69,-1.41,1.41,1.35,0.97,3.14,3.10,3.10
25.91,1.76,-1.33,1.68,-1.42,1.42,1.32,1.00,3.17,3.09,3.09
26.16,1.72,-1.37,1.67,-1.42,1.42,1.29,1.02,3.14,3.09,3.09
26.43,1.64,-1.45,1.68,-1.41,1.41,1.26,1.04,3.05,3.09,3.09
26.69,1.56,-1.53,1.70,-1.39,1.39,1.23,1.06,2.95,3.09,3.09
26.96,1.48,-1.61,1.74,-1.35,1.35,1.20,1.08,2.83,3.09,3.09
27.23,1.60,-1.49,1.77,-1.31,1.31,1.17,1.10,2.91,3.09,3.09
27.50,1.76,-1.33,1.81,-1.28,1.28,1.14,1.12,3.03,3.08,3.09
27.77,1.91,-1.17,1.84,-1.24,1.24,1.11,1.14,3.15,3.08,3.08
28.05,2.05,-1.03,1.89,-1.19,1.19,1.08,1.16,3.24,3.08,3.08
28.33,2.09,-0.98,1.95,-1.13,1.13,1.05,1.18,3.22,3.08,3.07
28.62,2.13,-0.94,2.01,-1.07,1.07,1.02,1.19,3.19,3.08,3.07
28.90,2.17,-0.91,2.09,-0.99,0.99,0.99,1.20,3.16,3.08,3.08
29.19,2.17,-0.90,2.16,-0.91,0.91,0.96,1.21,3.08,3.08,3.07
29.48,2.16,-0.92,2.24,-0.83,0.83,0.94,1.22,2.99,3.07,3.08
29.78,2.15,-0.92,2.30,-0.77,0.77,0.91,1.23,2.92,3.07,3.07
30.08,2.18,-0.90,2.34,-0.73,0.73,0.88,1.23,2.91,3.07,3.08
30.38,2.31,-0.76,2.36,-0.71,0.71,0.85,1.23,3.02,3.07,3.07
30.68,2.45,-0.62,2.37,-0.70,0.70,0.83,1.23,3.15,3.07,3.07
30.99,2.59,-0.48,2.37,-0.70,0.70,0.80,1.23,3.28,3.07,3.07
31.30,2.56,-0.50,2.38,-0.69,0.69,0.78,1.22,3.25,3.06,3.06
31.61,2.53,-0.53,2.40,-0.67,0.67,0.75,1.21,3.19,3.06,3.06
31.93,2.49,-0.57,2.43,-0.63,0.63,0.73,1.20,3.12,3.06,3.06
32.24,2.44,-0.61,2.47,-0.58,0.58,0.70,1.19,3.02,3.05,3.05
32.57,2.39,-0.66,2.51,-0.54,0.54,0.68,1.18,2.92,3.05,3.05
32.89,2.34,-0.71,2.55,-0.49,0.49,0.66,1.16,2.83,3.05,3.05
33.22,2.38,-0.66,2.59,-0.45,0.45,0.63,1.14,2.83,3.04,3.04
33.55,2.46,-0.58,2.62,-0.42,0.42,0.61,1.12,2.88,3.04,3.04
33.89,2.55,-0.48,2.64,-0.39,0.39,0.59,1.09,2.94,3.03,3.03
34.23,2.69,-0.34,2.66,-0.36,0.36,0.56,1.07,3.05,3.03,3.03
34.57,2.84,-0.18,2.70,-0.32,0.32,0.54,1.04,3.16,3.02,3.02
34.92,3.00,-0.02,2.75,-0.27,0.27,0.52,1.01,3.27,3.02,3.02
35.27,2.97,-0.04,2.78,-0.24,0.24,0.50,0.98,3.20,3.02,3.01
35.62,2.88,-0.13,2.80,-0.22,0.22,0.48,0.95,3.10,3.01,3.01
35.97,2.79,-0.22,2.80,-0.21,0.21,0.46,0.91,3.00,3.01,3.01
36.33,2.78,-0.23,2.80,-0.21,0.21,0.43,0.88,2.98,3.01,3.01
36.70,2.78,-0.22,2.80,-0.21,0.21,0.41,0.84,2.99,3.01,3.00
37.06,2.78,-0.22,2.78,-0.22,0.22,0.39,0.81,3.00,3.01,3.00
37.43,2.78,-0.23,2.76,-0.24,0.24,0.37,0.77,3.02,3.01,3.01
37.81,2.78,-0.23,2.75,-0.26,0.26,0.35,0.73,3.04,3.01,3.01
38.19,2.72,-0.28,2.73,-0.27,0.27,0.33,0.69,2.99,3.01,3.00
38.57,2.59,-0.42,2.73,-0.28,0.28,0.31,0.66,2.87,3.01,3.01
38.95,2.46,-0.56,2.72,-0.29,0.29,0.29,0.62,2.75,3.01,3.02
39.34,2.59,-0.42,2.72,-0.29,0.29,0.28,0.58,2.88,3.01,3.01
39.74,2.77,-0.24,2.73,-0.28,0.28,0.26,0.54,3.05,3.01,3.01
40.14,2.88,-0.13,2.74,-0.27,0.27,0.24,0.50,3.15,3.01,3.01
40.54,2.88,-0.13,2.75,-0.26,0.26,0.22,0.46,3.14,3.01,3.01
40.94,2.88,-0.12,2.76,-0.24,0.24,0.20,0.42,3.12,3.00,3.00
41.35,2.88,-0.12,2.78,-0.21,0.21,0.18,0.38,3.09,3.00,3.00
41.76,2.88,-0.11,2.81,-0.18,0.18,0.16,0.34,3.06,2.99,2.99
42.18,2.84,-0.15,2.83,-0.15,0.15,0.14,0.30,2.99,2.98,2.99
42.60,2.74,-0.24,2.86,-0.11,0.11,0.13,0.26,2.85,2.97,2.98
43.03,2.66,-0.31,2.89,-0.07,0.07,0.11,0.22,2.73,2.96,2.97
43.46,2.80,-0.16,2.90,-0.05,0.05,0.09,0.18,2.84,2.95,2.96
43.90,2.95,0.01,2.90,-0.03,0.03,0.07,0.14,2.98,2.94,2.94
44.33,2.98,0.06,2.90,-0.02,0.02,0.05,0.11,3.00,2.93,2.92
44.78,2.98,0.08,2.91,-0.00,0.00,0.03,0.07,2.98,2.91,2.90
45.23,2.98,0.09,2.93,0.03,-0.03,0.02,0.03,2.95,2.90,2.89
45.68,2.98,0.10,2.94,0.06,-0.06,-0.00,-0.01,2.92,2.89,2.88
46.13,2.98,0.12,2.95,0.08,-0.08,-0.02,-0.05,2.90,2.87,2.86
46.60,2.98,0.12,2.96,0.10,-0.10,-0.04,-0.09,2.88,2.86,2.86
47.06,2.98,0.14,2.98,0.14,-0.14,-0.06,-0.13,2.84,2.84,2.84
47.53,2.98,0.15,3.01,0.19,-0.19,-0.07,-0.17,2.79,2.83,2.83
48.01,2.98,0.15,3.03,0.21,-0.21,-0.09,-0.20,2.77,2.81,2.83
48.49,2.98,0.17,3.02,0.22,-0.22,-0.11,-0.24,2.76,2.80,2.81
48.97,2.98,0.19,3.01,0.23,-0.23,-0.13,-0.28,2.75,2.79,2.79
49.46,2.98,0.21,3.01,0.24,-0.24,-0.15,-0.32,2.74,2.77,2.77
49.96,2.98,0.23,3.02,0.26,-0.26,-0.16,-0.35,2.72,2.76,2.75
50.46,2.98,0.24,3.02,0.27,-0.27,-0.18,-0.39,2.71,2.75,2.74
50.96,2.98,0.25,3.01,0.28,-0.28,-0.20,-0.43,2.70,2.73,2.73
51.47,3.11,0.40,3.00,0.28,-0.28,-0.22,-0.47,2.83,2.72,2.71
51.99,3.25,0.55,2.96,0.26,-0.26,-0.24,-0.50,2.99,2.71,2.70
52.51,2.99,0.30,2.92,0.22,-0.22,-0.26,-0.54,2.77,2.69,2.69
53.03,2.74,0.05,2.86,0.18,-0.18,-0.28,-0.57,2.55,2.68,2.69
53.56,2.79,0.12,2.81,0.14,-0.14,-0.30,-0.61,2.65,2.67,2.67
54.10,2.82,0.16,2.74,0.09,-0.09,-0.31,-0.64,2.73,2.66,2.66
54.64,2.79,0.15,2.68,0.04,-0.04,-0.33,-0.67,2.75,2.65,2.64
55.18,2.72,0.08,2.64,0.00,-0.00,-0.35,-0.71,2.72,2.64,2.64
55.74,2.59,-0.03,2.60,-0.03,0.03,-0.37,-0.74,2.62,2.63,2.62
56.29,2.45,-0.16,2.54,-0.07,0.07,-0.39,-0.77,2.52,2.61,2.61
56.86,2.31,-0.29,2.51,-0.09,0.09,-0.41,-0.80,2.40,2.60,2.60
57.42,2.34,-0.23,2.50,-0.08,0.08,-0.43,-0.83,2.42,2.58,2.57
58.00,2.42,-0.14,2.52,-0.04,0.04,-0.45,-0.85,2.46,2.56,2.56
58.58,2.51,-0.04,2.57,0.03,-0.03,-0.47,-0.88,2.48,2.54,2.55
59.16,2.59,0.06,2.62,0.10,-0.10,-0.49,-0.91,2.49,2.52,2.53
59.76,2.68,0.17,2.67,0.18,-0.18,-0.51,-0.93,2.50,2.49,2.51
60.35,2.77,0.30,2.73,0.27,-0.27,-0.54,-0.95,2.50,2.46,2.47
60.96,2.88,0.45,2.78,0.35,-0.35,-0.56,-0.97,2.53,2.42,2.43
61.57,2.78,0.39,2.84,0.45,-0.45,-0.58,-0.99,2.33,2.39,2.39
62.18,2.82,0.47,2.89,0.54,-0.54,-0.60,-1.01,2.27,2.35,2.35
62.80,3.23,0.93,2.94,0.64,-0.64,-0.62,-1.02,2.59,2.31,2.30
63.43,3.24,0.98,3.00,0.74,-0.74,-0.64,-1.04,2.50,2.27,2.26
64.07,3.08,0.87,3.05,0.83,-0.83,-0.67,-1.05,2.25,2.22,2.21
64.71,3.08,0.91,3.08,0.91,-0.91,-0.69,-1.06,2.17,2.18,2.17
65.35,3.08,0.95,3.11,0.98,-0.98,-0.71,-1.07,2.10,2.13,2.13
66.01,3.08,1.00,3.13,1.05,-1.05,-0.73,-1.08,2.03,2.08,2.08
66.67,2.89,0.86,3.13,1.10,-1.10,-0.76,-1.09,1.79,2.03,2.03
67.33,2.93,0.95,3.13,1.14,-1.14,-0.78,-1.10,1.79,1.99,1.98
68.01,3.18,1.24,3.13,1.19,-1.19,-0.80,-1.10,1.99,1.94,1.94
68.69,3.19,1.30,3.14,1.26,-1.26,-0.83,-1.11,1.93,1.89,1.89
69.37,3.28,1.44,3.15,1.31,-1.31,-0.85,-1.11,1.97,1.84,1.84
70.07,3.42,1.63,3.14,1.35,-1.35,-0.87,-1.12,2.07,1.78,1.79
70.77,3.16,1.42,3.15,1.42,-1.42,-0.90,-1.12,1.73,1.73,1.74
71.48,3.08,1.39,3.18,1.51,-1.51,-0.92,-1.12,1.57,1.68,1.69
72.19,3.08,1.46,3.20,1.58,-1.58,-0.95,-1.12,1.49,1.62,1.62
72.91,3.08,1.52,3.22,1.65,-1.65,-0.97,-1.13,1.43,1.56,1.56
73.64,3.08,1.57,3.21,1.70,-1.70,-1.00,-1.13,1.38,1.51,1.51
74.38,3.17,1.72,3.19,1.74,-1.74,-1.02,-1.13,1.43,1.45,1.45
75.12,3.32,1.93,3.15,1.75,-1.75,-1.05,-1.13,1.56,1.40,1.39
75.87,3.32,1.99,3.11,1.77,-1.77,-1.07,-1.13,1.54,1.34,1.33
76.63,3.10,1.82,3.08,1.80,-1.80,-1.09,-1.14,1.30,1.29,1.28
77.40,3.05,1.82,3.04,1.81,-1.81,-1.12,-1.14,1.24,1.23,1.23
78.17,3.14,1.97,3.00,1.82,-1.82,-1.14,-1.14,1.31,1.18,1.17
78.95,3.05,1.92,2.98,1.85,-1.85,-1.17,-1.15,1.19,1.13,1.13
79.74,2.87,1.79,2.93,1.85,-1.85,-1.19,-1.15,1.01,1.08,1.08
80.54,2.67,1.64,2.87,1.84,-1.84,-1.22,-1.16,0.83,1.03,1.03
81.35,2.64,1.66,2.80,1.82,-1.82,-1.24,-1.16,0.82,0.98,0.98
82.16,2.78,1.85,2.75,1.81,-1.81,-1.27,-1.17,0.96,0.93,0.93
82.98,2.78,1.89,2.70,1.81,-1.81,-1.29,-1.18,0.96,0.89,0.89
83.81,2.78,1.94,2.66,1.82,-1.82,-1.31,-1.19,0.96,0.84,0.84
84.65,2.56,1.77,2.63,1.84,-1.84,-1.34,-1.20,0.72,0.79,0.79
85.50,2.51,1.76,2.60,1.86,-1.86,-1.36,-1.21,0.65,0.74,0.75
86.35,2.58,1.88,2.58,1.89,-1.89,-1.38,-1.22,0.69,0.69,0.70
87.22,2.52,1.87,2.57,1.92,-1.92,-1.41,-1.23,0.60,0.64,0.65
88.09,2.34,1.74,2.56,1.97,-1.97,-1.43,-1.25,0.37,0.59,0.60
88.97,2.51,1.97,2.54,2.00,-2.00,-1.45,-1.26,0.51,0.54,0.54
89.86,2.57,2.08,2.49,2.00,-2.00,-1.47,-1.28,0.56,0.49,0.49
90.76,2.63,2.19,2.41,1.97,-1.97,-1.49,-1.29,0.65,0.44,0.44
91.66,2.47,2.08,2.32,1.93,-1.93,-1.51,-1.31,0.53,0.39,0.39
92.58,2.26,1.93,2.24,1.90,-1.90,-1.53,-1.33,0.36,0.34,0.33
93.51,2.16,1.88,2.15,1.86,-1.86,-1.54,-1.35,0.30,0.29,0.28
94.44,2.18,1.94,2.05,1.81,-1.81,-1.56,-1.37,0.37,0.24,0.24
95.39,2.11,1.92,1.92,1.73,-1.73,-1.58,-1.39,0.38,0.19,0.19
96.34,1.85,1.71,1.78,1.64,-1.64,-1.59,-1.41,0.21,0.14,0.14
97.30,1.53,1.44,1.64,1.55,-1.55,-1.61,-1.44,-0.02,0.09,0.09
98.28,1.26,1.22,1.51,1.46,-1.46,-1.62,-1.46,-0.20,0.04,0.04
99.26,1.13,1.13,1.34,1.34,-1.34,-1.63,-1.48,-0.21,-0.00,0.00
100.25,1.09,1.14,1.17,1.23,-1.23,-1.64,-1.51,-0.14,-0.05,-0.05
101.25,1.15,1.25,1.04,1.14,-1.14,-1.65,-1.53,0.00,-0.10,-0.10
102.27,1.00,1.15,0.91,1.06,-1.06,-1.66,-1.56,-0.06,-0.15,-0.15
103.29,0.76,0.96,0.77,0.96,-0.96,-1.67,-1.58,-0.21,-0.20,-0.20
104.32,0.59,0.83,0.64,0.89,-0.89,-1.67,-1.61,-0.30,-0.25,-0.24
105.37,0.55,0.84,0.53,0.82,-0.82,-1.68,-1.64,-0.27,-0.30,-0.29
106.42,0.46,0.80,0.41,0.76,-0.76,-1.68,-1.66,-0.31,-0.35,-0.34
107.48,0.46,0.86,0.32,0.72,-0.72,-1.69,-1.69,-0.26,-0.40,-0.40
108.56,0.27,0.72,0.22,0.67,-0.67,-1.69,-1.71,-0.40,-0.45,-0.45
109.64,-0.08,0.42,0.11,0.62,-0.62,-1.69,-1.73,-0.70,-0.50,-0.50
110.74,0.08,0.64,0.01,0.56,-0.56,-1.69,-1.76,-0.48,-0.56,-0.56
111.85,0.09,0.69,-0.10,0.51,-0.51,-1.69,-1.78,-0.42,-0.61,-0.60
112.97,-0.35,0.31,-0.16,0.49,-0.49,-1.68,-1.80,-0.84,-0.66,-0.66
114.10,-0.24,0.47,-0.21,0.50,-0.50,-1.68,-1.82,-0.74,-0.71,-0.71
115.24,-0.05,0.71,-0.24,0.52,-0.52,-1.67,-1.84,-0.57,-0.75,-0.76
116.39,-0.39,0.42,-0.25,0.55,-0.55,-1.67,-1.85,-0.94,-0.80,-0.81
117.55,-0.49,0.36,-0.26,0.58,-0.58,-1.66,-1.86,-1.07,-0.84,-0.85
118.73,-0.38,0.51,-0.28,0.60,-0.60,-1.65,-1.88,-0.98,-0.88,-0.89
119.92,-0.39,0.53,-0.28,0.64,-0.64,-1.64,-1.88,-1.03,-0.92,-0.92
121.12,-0.23,0.73,-0.25,0.71,-0.71,-1.63,-1.89,-0.94,-0.95,-0.96
122.33,-0.11,0.88,-0.20,0.79,-0.79,-1.62,-1.90,-0.90,-0.99,-0.99
123.55,-0.00,1.02,-0.17,0.85,-0.85,-1.60,-1.90,-0.85,-1.02,-1.02
124.79,0.12,1.17,-0.13,0.92,-0.92,-1.59,-1.90,-0.80,-1.05,-1.05
126.03,-0.05,1.03,-0.09,0.99,-0.99,-1.58,-1.89,-1.05,-1.08,-1.08
127.29,-0.02,1.08,-0.06,1.05,-1.05,-1.56,-1.89,-1.08,-1.11,-1.10
128.57,0.03,1.17,0.01,1.15,-1.15,-1.55,-1.88,-1.12,-1.14,-1.14
129.85,-0.12,1.05,0.10,1.27,-1.27,-1.53,-1.87,-1.39,-1.17,-1.17
131.15,-0.04,1.16,0.17,1.37,-1.37,-1.51,-1.85,-1.41,-1.20,-1.20
132.46,0.31,1.54,0.24,1.46,-1.46,-1.49,-1.84,-1.15,-1.23,-1.23
133.79,0.39,1.65,0.30,1.56,-1.56,-1.48,-1.82,-1.17,-1.26,-1.26
135.12,0.29,1.58,0.35,1.64,-1.64,-1.46,-1.80,-1.35,-1.28,-1.29
136.48,0.23,1.54,0.41,1.72,-1.72,-1.44,-1.78,-1.49,-1.31,-1.31
137.84,0.29,1.64,0.47,1.81,-1.81,-1.42,-1.75,-1.52,-1.34,-1.35
139.22,0.62,2.00,0.55,1.91,-1.91,-1.40,-1.73,-1.30,-1.37,-1.38
140.61,0.85,2.26,0.63,2.03,-2.03,-1.38,-1.70,-1.18,-1.40,-1.41
142.02,0.98,2.41,0.68,2.11,-2.11,-1.36,-1.67,-1.13,-1.43,-1.43
143.44,0.77,2.23,0.73,2.19,-2.19,-1.34,-1.64,-1.42,-1.46,-1.46
144.87,0.69,2.19,0.78,2.28,-2.28,-1.32,-1.61,-1.59,-1.50,-1.50
146.32,0.69,2.23,0.81,2.35,-2.35,-1.30,-1.58,-1.66,-1.55,-1.54
147.78,0.69,2.26,0.81,2.40,-2.40,-1.28,-1.55,-1.71,-1.60,-1.57
149.26,0.69,2.31,0.78,2.43,-2.43,-1.25,-1.52,-1.75,-1.65,-1.62
150.75,0.71,2.39,0.72,2.43,-2.43,-1.23,-1.49,-1.72,-1.71,-1.68
152.26,0.75,2.50,0.62,2.39,-2.39,-1.21,-1.46,-1.64,-1.77,-1.75
153.78,0.65,2.47,0.45,2.29,-2.29,-1.19,-1.43,-1.64,-1.83,-1.82
155.32,0.47,2.36,0.27,2.17,-2.17,-1.17,-1.39,-1.71,-1.90,-1.89
156.88,0.26,2.23,0.11,2.08,-2.08,-1.15,-1.36,-1.82,-1.97,-1.97
158.44,0.31,2.36,-0.04,2.00,-2.00,-1.13,-1.33,-1.69,-2.04,-2.05
160.03,0.14,2.27,-0.19,1.93,-1.93,-1.11,-1.30,-1.79,-2.11,-2.13
161.63,-0.31,1.89,-0.33,1.84,-1.84,-1.09,-1.27,-2.15,-2.18,-2.20
163.24,-0.81,1.45,-0.48,1.76,-1.76,-1.07,-1.24,-2.58,-2.24,-2.26
164.88,-1.11,1.20,-0.59,1.70,-1.70,-1.05,-1.21,-2.81,-2.29,-2.31
166.53,-1.14,1.22,-0.68,1.66,-1.66,-1.03,-1.19,-2.80,-2.34,-2.36
168.19,-1.09,1.31,-0.75,1.63,-1.63,-1.01,-1.16,-2.73,-2.38,-2.40
169.87,-1.01,1.43,-0.78,1.64,-1.64,-0.99,-1.13,-2.65,-2.42,-2.44
171.57,-0.64,1.82,-0.76,1.68,-1.68,-0.97,-1.11,-2.32,-2.44,-2.46
173.29,-0.53,1.94,-0.73,1.73,-1.73,-0.95,-1.08,-2.26,-2.46,-2.47
175.02,-0.66,1.82,-0.68,1.79,-1.79,-0.94,-1.06,-2.45,-2.47,-2.48
176.77,-0.63,1.86,-0.62,1.86,-1.86,-0.92,-1.03,-2.49,-2.48,-2.49
178.54,-0.46,2.04,-0.54,1.95,-1.95,-0.90,-1.01,-2.41,-2.49,-2.50
180.32,-0.30,2.19,-0.46,2.04,-2.04,-0.88,-0.99,-2.34,-2.50,-2.49
182.13,-0.17,2.31,-0.40,2.11,-2.11,-0.86,-0.97,-2.28,-2.50,-2.48
183.95,-0.25,2.24,-0.37,2.14,-2.14,-0.85,-0.95,-2.39,-2.51,-2.49
185.79,-0.29,2.20,-0.37,2.15,-2.15,-0.83,-0.93,-2.44,-2.52,-2.49
187.65,-0.22,2.29,-0.38,2.14,-2.14,-0.81,-0.91,-2.37,-2.52,-2.51
189.52,-0.41,2.11,-0.43,2.10,-2.10,-0.80,-0.89,-2.51,-2.53,-2.52
191.42,-0.55,1.99,-0.51,2.04,-2.04,-0.78,-0.88,-2.59,-2.55,-2.54
193.33,-0.61,1.95,-0.56,2.00,-2.00,-0.77,-0.86,-2.61,-2.56,-2.56
195.27,-0.71,1.87,-0.61,1.96,-1.96,-0.75,-0.84,-2.68,-2.58,-2.58
197.22,-0.81,1.79,-0.68,1.92,-1.92,-0.74,-0.83,-2.73,-2.60,-2.60
199.19,-0.86,1.76,-0.76,1.86,-1.86,-0.72,-0.81,-2.72,-2.61,-2.62
201.18,-0.91,1.73,-0.83,1.80,-1.80,-0.71,-0.80,-2.72,-2.64,-2.64
203.19,-0.83,1.83,-0.90,1.76,-1.76,-0.70,-0.79,-2.59,-2.66,-2.66
205.23,-0.80,1.88,-0.96,1.72,-1.72,-0.68,-0.77,-2.52,-2.68,-2.68
207.28,-1.09,1.60,-1.01,1.69,-1.69,-0.67,-0.76,-2.78,-2.70,-2.69
209.35,-1.27,1.44,-1.06,1.66,-1.66,-0.66,-0.75,-2.93,-2.72,-2.71
211.44,-1.09,1.65,-1.11,1.63,-1.63,-0.64,-0.74,-2.72,-2.73,-2.74
213.56,-0.97,1.78,-1.15,1.59,-1.59,-0.63,-0.72,-2.57,-2.75,-2.75
215.69,-1.08,1.68,-1.21,1.55,-1.55,-0.62,-0.71,-2.63,-2.76,-2.76
217.85,-1.27,1.50,-1.28,1.50,-1.50,-0.61,-0.70,-2.77,-2.77,-2.77
220.03,-1.39,1.39,-1.33,1.45,-1.45,-0.59,-0.69,-2.84,-2.78,-2.78
222.23,-1.40,1.41,-1.40,1.39,-1.39,-0.58,-0.67,-2.79,-2.79,-2.81
224.45,-1.47,1.33,-1.49,1.31,-1.31,-0.57,-0.66,-2.78,-2.79,-2.80
226.70,-1.54,1.26,-1.57,1.23,-1.23,-0.56,-0.65,-2.77,-2.79,-2.80
228.96,-1.54,1.25,-1.63,1.16,-1.16,-0.55,-0.63,-2.70,-2.79,-2.79
231.25,-1.80,0.98,-1.70,1.08,-1.08,-0.54,-0.62,-2.89,-2.78,-2.78
233.57,-1.87,0.90,-1.78,0.99,-0.99,-0.53,-0.61,-2.86,-2.77,-2.77
235.90,-1.83,0.93,-1.87,0.89,-0.89,-0.52,-0.59,-2.72,-2.75,-2.76
238.26,-1.96,0.79,-1.94,0.79,-0.79,-0.51,-0.57,-2.76,-2.74,-2.75
240.64,-1.96,0.76,-1.99,0.72,-0.72,-0.50,-0.56,-2.69,-2.72,-2.72
243.05,-2.02,0.67,-2.05,0.64,-0.64,-0.49,-0.54,-2.67,-2.70,-2.69
245.48,-2.26,0.41,-2.13,0.55,-0.55,-0.48,-0.52,-2.81,-2.67,-2.67
247.93,-2.26,0.38,-2.20,0.45,-0.45,-0.48,-0.50,-2.71,-2.65,-2.64
250.41,-2.11,0.51,-2.26,0.36,-0.36,-0.47,-0.48,-2.47,-2.63,-2.62
252.92,-2.27,0.32,-2.33,0.27,-0.27,-0.46,-0.46,-2.55,-2.60,-2.59
255.45,-2.44,0.13,-2.39,0.19,-0.19,-0.45,-0.44,-2.63,-2.58,-2.57
258.00,-2.42,0.13,-2.45,0.10,-0.10,-0.44,-0.42,-2.53,-2.55,-2.55
260.58,-2.45,0.08,-2.52,0.00,-0.00,-0.44,-0.39,-2.46,-2.53,-2.53
263.19,-2.56,-0.06,-2.60,-0.10,0.10,-0.43,-0.37,-2.46,-2.50,-2.50
265.82,-2.61,-0.13,-2.66,-0.19,0.19,-0.42,-0.34,-2.43,-2.48,-2.48
268.48,-2.90,-0.44,-2.72,-0.27,0.27,-0.42,-0.31,-2.63,-2.45,-2.46
271.16,-2.86,-0.43,-2.78,-0.35,0.35,-0.41,-0.28,-2.51,-2.43,-2.43
273.87,-2.75,-0.34,-2.84,-0.44,0.44,-0.40,-0.25,-2.31,-2.40,-2.41
276.61,-2.88,-0.50,-2.91,-0.53,0.53,-0.40,-0.22,-2.35,-2.38,-2.38
279.38,-2.98,-0.63,-2.97,-0.62,0.62,-0.39,-0.19,-2.36,-2.35,-2.35
282.17,-3.05,-0.72,-3.02,-0.70,0.70,-0.39,-0.16,-2.35,-2.32,-2.33
284.99,-3.12,-0.83,-3.07,-0.78,0.78,-0.38,-0.13,-2.35,-2.29,-2.29
287.84,-3.16,-0.89,-3.13,-0.86,0.86,-0.37,-0.10,-2.30,-2.27,-2.27
290.72,-3.07,-0.83,-3.16,-0.93,0.93,-0.37,-0.06,-2.15,-2.24,-2.24
293.63,-3.10,-0.89,-3.19,-0.98,0.98,-0.36,-0.03,-2.12,-2.21,-2.21
296.57,-3.21,-1.03,-3.22,-1.04,1.04,-0.36,0.01,-2.17,-2.18,-2.18
299.53,-3.36,-1.21,-3.24,-1.09,1.09,-0.35,0.05,-2.27,-2.15,-2.15
302.53,-3.31,-1.18,-3.28,-1.16,1.16,-0.35,0.08,-2.16,-2.12,-2.13
305.55,-3.25,-1.16,-3.31,-1.22,1.22,-0.35,0.12,-2.04,-2.10,-2.09
308.61,-3.36,-1.29,-3.33,-1.26,1.26,-0.34,0.16,-2.10,-2.07,-2.07
311.69,-3.38,-1.34,-3.35,-1.30,1.30,-0.34,0.20,-2.08,-2.05,-2.04
314.81,-3.37,-1.35,-3.37,-1.34,1.34,-0.33,0.24,-2.03,-2.03,-2.02
317.96,-3.33,-1.33,-3.38,-1.38,1.38,-0.33,0.28,-1.96,-2.01,-2.00
321.14,-3.31,-1.32,-3.40,-1.42,1.42,-0.33,0.32,-1.90,-1.99,-1.99
324.35,-3.44,-1.47,-3.42,-1.45,1.45,-0.32,0.36,-1.99,-1.97,-1.97
327.59,-3.47,-1.51,-3.44,-1.48,1.48,-0.32,0.40,-1.99,-1.96,-1.96
330.87,-3.48,-1.53,-3.44,-1.50,1.50,-0.32,0.45,-1.98,-1.94,-1.95
334.18,-3.48,-1.55,-3.45,-1.52,1.52,-0.31,0.49,-1.96,-1.93,-1.93
337.52,-3.48,-1.56,-3.47,-1.55,1.55,-0.31,0.53,-1.93,-1.92,-1.92
340.90,-3.46,-1.55,-3.49,-1.58,1.58,-0.31,0.58,-1.88,-1.91,-1.91
344.30,-3.43,-1.53,-3.51,-1.61,1.61,-0.30,0.62,-1.82,-1.91,-1.90
347.75,-3.51,-1.61,-3.54,-1.64,1.64,-0.30,0.67,-1.87,-1.90,-1.90
351.23,-3.57,-1.68,-3.56,-1.67,1.67,-0.30,0.72,-1.91,-1.89,-1.89
354.74,-3.58,-1.68,-3.58,-1.68,1.68,-0.30,0.76,-1.90,-1.89,-1.90
358.28,-3.57,-1.68,-3.58,-1.69,1.69,-0.30,0.81,-1.88,-1.89,-1.89
361.87,-3.57,-1.68,-3.58,-1.70,1.70,-0.29,0.86,-1.88,-1.89,-1.89
365.49,-3.56,-1.68,-3.59,-1.70,1.70,-0.29,0.91,-1.86,-1.89,-1.88
369.14,-3.67,-1.78,-3.59,-1.70,1.70,-0.29,0.96,-1.97,-1.89,-1.89
372.83,-3.69,-1.80,-3.59,-1.70,1.70,-0.29,1.01,-1.99,-1.89,-1.89
376.56,-3.65,-1.75,-3.59,-1.70,1.70,-0.29,1.06,-1.96,-1.89,-1.90
380.33,-3.63,-1.74,-3.58,-1.69,1.69,-0.29,1.11,-1.94,-1.89,-1.89
384.13,-3.52,-1.63,-3.58,-1.68,1.68,-0.29,1.16,-1.84,-1.90,-1.89
387.97,-3.46,-1.56,-3.57,-1.67,1.67,-0.28,1.22,-1.80,-1.90,-1.90
391.85,-3.50,-1.59,-3.56,-1.65,1.65,-0.28,1.27,-1.85,-1.91,-1.91
395.77,-3.51,-1.61,-3.54,-1.63,1.63,-0.28,1.32,-1.88,-1.91,-1.90
399.73,-3.52,-1.61,-3.53,-1.62,1.62,-0.28,1.37,-1.91,-1.92,-1.91
403.72,-3.52,-1.61,-3.52,-1.60,1.60,-0.28,1.42,-1.92,-1.92,-1.91
407.76,-3.52,-1.59,-3.52,-1.59,1.59,-0.28,1.48,-1.93,-1.93,-1.93
411.84,-3.52,-1.59,-3.51,-1.58,1.58,-0.28,1.53,-1.94,-1.93,-1.93
415.96,-3.53,-1.60,-3.51,-1.58,1.58,-0.28,1.58,-1.95,-1.93,-1.93
420.12,-3.52,-1.59,-3.51,-1.58,1.58,-0.28,1.63,-1.94,-1.93,-1.93
424.32,-3.52,-1.59,-3.51,-1.59,1.59,-0.28,1.68,-1.93,-1.92,-1.93
428.56,-3.48,-1.56,-3.51,-1.60,1.60,-0.28,1.73,-1.88,-1.91,-1.92
432.85,-3.43,-1.52,-3.50,-1.61,1.61,-0.28,1.77,-1.83,-1.90,-1.91
437.18,-3.47,-1.57,-3.48,-1.61,1.61,-0.28,1.82,-1.86,-1.88,-1.90
441.55,-3.51,-1.65,-3.47,-1.61,1.61,-0.28,1.86,-1.90,-1.85,-1.86
445.96,-3.49,-1.66,-3.43,-1.62,1.62,-0.28,1.90,-1.88,-1.82,-1.83
450.42,-3.44,-1.64,-3.39,-1.61,1.61,-0.29,1.94,-1.83,-1.78,-1.80
454.93,-3.38,-1.63,-3.35,-1.60,1.60,-0.29,1.97,-1.78,-1.74,-1.75
459.48,-3.32,-1.61,-3.30,-1.60,1.60,-0.29,2.00,-1.72,-1.70,-1.71
464.07,-3.26,-1.60,-3.26,-1.60,1.60,-0.29,2.03,-1.66,-1.65,-1.66
468.71,-3.20,-1.60,-3.20,-1.60,1.60,-0.29,2.06,-1.61,-1.60,-1.60
473.40,-3.14,-1.58,-3.14,-1.58,1.58,-0.29,2.08,-1.56,-1.56,-1.56
478.13,-3.08,-1.58,-3.07,-1.57,1.57,-0.29,2.09,-1.52,-1.51,-1.50
482.91,-3.04,-1.58,-3.01,-1.55,1.55,-0.30,2.10,-1.49,-1.46,-1.46
487.74,-2.91,-1.49,-2.95,-1.52,1.52,-0.30,2.11,-1.39,-1.42,-1.42
