frequency,raw,error,smoothed,error_smoothed,equalization,parametric_eq,fixed_band_eq,equalized_raw,equalized_smoothed,target
20.00,1.41,-8.30,1.41,-8.30,8.29,8.16,3.39,9.71,9.71,9.71
20.20,1.43,-8.27,1.44,-8.26,8.26,8.13,3.49,9.69,9.70,9.70
20.40,1.46,-8.23,1.46,-8.23,8.23,8.11,3.58,9.69,9.69,9.69
20.61,1.48,-8.20,1.49,-8.19,8.19,8.08,3.68,9.68,9.68,9.68
20.81,1.51,-8.15,1.51,-8.15,8.16,8.06,3.79,9.67,9.67,9.66
21.02,1.53,-8.12,1.53,-8.12,8.13,8.03,3.89,9.66,9.66,9.65
21.23,1.55,-8.09,1.56,-8.09,8.09,8.01,4.00,9.65,9.65,9.64
21.44,1.57,-8.08,1.58,-8.06,8.06,7.98,4.11,9.63,9.64,9.65
21.66,1.60,-8.03,1.60,-8.03,8.03,7.96,4.22,9.63,9.63,9.63
21.87,1.62,-8.01,1.62,-8.00,8.00,7.93,4.34,9.62,9.62,9.63
22.09,1.64,-7.97,1.65,-7.97,7.97,7.90,4.46,9.61,9.61,9.61
22.31,1.66,-7.94,1.67,-7.94,7.93,7.88,4.59,9.60,9.60,9.60
22.54,1.69,-7.90,1.69,-7.90,7.90,7.85,4.71,9.60,9.59,9.59
22.76,1.71,-7.88,1.72,-7.87,7.87,7.83,4.84,9.59,9.59,9.59
22.99,1.74,-7.84,1.74,-7.84,7.84,7.80,4.98,9.58,9.58,9.58
23.22,1.76,-7.81,1.77,-7.81,7.81,7.77,5.11,9.58,9.58,9.57
23.45,1.79,-7.79,1.79,-7.78,7.78,7.75,5.25,9.58,9.58,9.58
23.69,1.81,-7.76,1.81,-7.76,7.76,7.72,5.40,9.57,9.57,9.57
23.92,1.83,-7.73,1.84,-7.73,7.73,7.70,5.54,9.57,9.57,9.56
24.16,1.85,-7.72,1.86,-7.71,7.71,7.67,5.69,9.56,9.56,9.57
24.40,1.88,-7.69,1.88,-7.69,7.68,7.65,5.84,9.57,9.56,9.57
24.65,1.90,-7.66,1.90,-7.66,7.66,7.62,5.99,9.56,9.56,9.56
24.89,1.92,-7.64,1.93,-7.63,7.63,7.59,6.15,9.56,9.56,9.56
25.14,1.94,-7.61,1.95,-7.61,7.61,7.57,6.31,9.55,9.56,9.55
25.39,1.97,-7.58,1.97,-7.58,7.58,7.54,6.46,9.56,9.56,9.55
25.65,1.99,-7.56,1.99,-7.56,7.56,7.52,6.62,9.55,9.55,9.55
25.91,2.01,-7.54,2.01,-7.54,7.54,7.49,6.78,9.55,9.55,9.55
26.16,2.03,-7.53,2.03,-7.52,7.51,7.47,6.94,9.55,9.55,9.56
26.43,2.05,-7.50,2.06,-7.50,7.49,7.45,7.10,9.55,9.55,9.55
26.69,2.08,-7.47,2.08,-7.47,7.47,7.42,7.26,9.55,9.55,9.55
26.96,2.10,-7.45,2.10,-7.45,7.45,7.40,7.42,9.55,9.55,9.55
27.23,2.12,-7.43,2.12,-7.43,7.43,7.37,7.58,9.55,9.55,9.55
27.50,2.14,-7.41,2.14,-7.41,7.41,7.35,7.73,9.55,9.55,9.55
27.77,2.16,-7.40,2.16,-7.39,7.39,7.32,7.87,9.56,9.56,9.56
28.05,2.18,-7.37,2.18,-7.37,7.37,7.30,8.01,9.56,9.56,9.55
28.33,2.20,-7.36,2.20,-7.35,7.36,7.28,8.15,9.56,9.56,9.56
28.62,2.22,-7.34,2.22,-7.34,7.34,7.25,8.28,9.56,9.56,9.56
28.90,2.24,-7.33,2.24,-7.32,7.32,7.23,8.40,9.56,9.56,9.57
29.19,2.26,-7.31,2.26,-7.30,7.30,7.20,8.50,9.56,9.56,9.57
29.48,2.28,-7.28,2.28,-7.28,7.28,7.18,8.60,9.56,9.56,9.56
29.78,2.30,-7.26,2.30,-7.26,7.25,7.16,8.69,9.56,9.56,9.56
30.08,2.32,-7.24,2.32,-7.23,7.23,7.13,8.77,9.56,9.56,9.56
30.38,2.34,-7.20,2.34,-7.20,7.21,7.11,8.83,9.55,9.55,9.54
30.68,2.36,-7.18,2.36,-7.18,7.18,7.09,8.88,9.55,9.55,9.54
30.99,2.38,-7.16,2.38,-7.16,7.16,7.06,8.91,9.54,9.54,9.54
31.30,2.39,-7.15,2.40,-7.14,7.14,7.04,8.93,9.53,9.53,9.54
31.61,2.41,-7.12,2.41,-7.12,7.11,7.02,8.94,9.53,9.53,9.53
31.93,2.43,-7.08,2.43,-7.09,7.09,6.99,8.93,9.52,9.52,9.51
32.24,2.44,-7.08,2.45,-7.06,7.06,6.97,8.91,9.51,9.51,9.52
32.57,2.46,-7.04,2.46,-7.04,7.04,6.95,8.87,9.50,9.50,9.50
32.89,2.48,-7.02,2.48,-7.02,7.01,6.92,8.82,9.50,9.50,9.50
33.22,2.50,-6.99,2.50,-6.99,6.99,6.90,8.76,9.49,9.49,9.49
33.55,2.52,-6.97,2.52,-6.96,6.96,6.88,8.69,9.49,9.49,9.49
33.89,2.53,-6.95,2.54,-6.94,6.94,6.85,8.61,9.47,9.48,9.48
34.23,2.55,-6.91,2.55,-6.91,6.92,6.83,8.53,9.47,9.47,9.46
34.57,2.56,-6.90,2.57,-6.89,6.90,6.81,8.43,9.46,9.46,9.46
34.92,2.58,-6.86,2.58,-6.87,6.87,6.78,8.33,9.46,9.45,9.44
35.27,2.59,-6.87,2.59,-6.85,6.85,6.76,8.22,9.44,9.44,9.46
35.62,2.60,-6.83,2.61,-6.83,6.82,6.73,8.11,9.43,9.43,9.43
35.97,2.62,-6.81,2.62,-6.81,6.80,6.71,8.00,9.42,9.42,9.43
36.33,2.63,-6.78,2.63,-6.77,6.77,6.69,7.88,9.41,9.41,9.41
36.70,2.64,-6.75,2.64,-6.75,6.75,6.66,7.76,9.39,9.39,9.39
37.06,2.65,-6.72,2.65,-6.72,6.72,6.64,7.64,9.37,9.38,9.37
37.43,2.66,-6.69,2.66,-6.69,6.69,6.61,7.52,9.36,9.36,9.35
37.81,2.67,-6.67,2.67,-6.66,6.67,6.59,7.40,9.34,9.34,9.34
38.19,2.67,-6.64,2.68,-6.64,6.64,6.56,7.29,9.31,9.31,9.31
38.57,2.68,-6.61,2.68,-6.61,6.61,6.54,7.17,9.29,9.29,9.29
38.95,2.68,-6.60,2.69,-6.59,6.58,6.51,7.06,9.27,9.27,9.28
39.34,2.69,-6.56,2.69,-6.56,6.55,6.49,6.95,9.25,9.25,9.25
39.74,2.69,-6.53,2.70,-6.53,6.53,6.46,6.84,9.22,9.22,9.22
40.14,2.70,-6.50,2.70,-6.49,6.50,6.43,6.73,9.20,9.20,9.20
40.54,2.71,-6.47,2.71,-6.47,6.47,6.41,6.63,9.19,9.18,9.18
40.94,2.71,-6.44,2.71,-6.44,6.45,6.38,6.54,9.16,9.16,9.15
41.35,2.71,-6.43,2.72,-6.42,6.42,6.35,6.44,9.13,9.14,9.14
41.76,2.72,-6.39,2.72,-6.39,6.39,6.33,6.35,9.12,9.11,9.11
42.18,2.72,-6.38,2.72,-6.37,6.37,6.30,6.27,9.09,9.09,9.10
42.60,2.72,-6.35,2.73,-6.35,6.35,6.27,6.19,9.07,9.07,9.07
43.03,2.72,-6.33,2.72,-6.32,6.32,6.24,6.11,9.05,9.05,9.05
43.46,2.72,-6.29,2.72,-6.29,6.30,6.21,6.04,9.02,9.02,9.01
43.90,2.71,-6.28,2.72,-6.27,6.28,6.18,5.97,8.99,8.99,8.99
44.33,2.71,-6.25,2.71,-6.25,6.25,6.15,5.90,8.97,8.96,8.96
44.78,2.70,-6.24,2.71,-6.23,6.23,6.12,5.84,8.93,8.93,8.94
45.23,2.70,-6.22,2.70,-6.21,6.20,6.09,5.79,8.90,8.90,8.92
45.68,2.70,-6.17,2.70,-6.17,6.17,6.06,5.74,8.87,8.87,8.87
46.13,2.70,-6.14,2.70,-6.14,6.14,6.03,5.69,8.84,8.84,8.84
46.60,2.70,-6.10,2.70,-6.10,6.10,6.00,5.65,8.81,8.81,8.80
47.06,2.70,-6.07,2.70,-6.06,6.06,5.97,5.61,8.77,8.77,8.77
47.53,2.70,-6.03,2.70,-6.02,6.02,5.94,5.57,8.73,8.73,8.73
48.01,2.70,-5.98,2.70,-5.98,5.98,5.91,5.54,8.68,8.68,8.68
48.49,2.70,-5.94,2.70,-5.94,5.94,5.88,5.51,8.64,8.64,8.64
48.97,2.70,-5.89,2.70,-5.89,5.89,5.84,5.49,8.60,8.60,8.59
49.46,2.70,-5.86,2.70,-5.85,5.85,5.81,5.47,8.55,8.55,8.56
49.96,2.70,-5.80,2.70,-5.81,5.81,5.78,5.45,8.51,8.51,8.50
50.46,2.70,-5.77,2.70,-5.77,5.77,5.74,5.44,8.47,8.47,8.47
50.96,2.70,-5.73,2.70,-5.72,5.73,5.71,5.42,8.43,8.43,8.43
51.47,2.70,-5.69,2.70,-5.68,5.69,5.68,5.41,8.39,8.39,8.39
51.99,2.70,-5.64,2.70,-5.64,5.65,5.64,5.41,8.35,8.35,8.34
52.51,2.70,-5.61,2.70,-5.61,5.61,5.61,5.40,8.31,8.31,8.31
53.03,2.70,-5.58,2.70,-5.57,5.56,5.57,5.39,8.27,8.27,8.28
53.56,2.70,-5.53,2.70,-5.53,5.52,5.54,5.39,8.23,8.23,8.23
54.10,2.70,-5.48,2.70,-5.48,5.48,5.50,5.39,8.18,8.18,8.18
54.64,2.70,-5.44,2.70,-5.43,5.44,5.46,5.39,8.14,8.14,8.14
55.18,2.70,-5.40,2.71,-5.39,5.39,5.43,5.38,8.10,8.10,8.10
55.74,2.71,-5.34,2.71,-5.35,5.35,5.39,5.38,8.06,8.06,8.05
56.29,2.71,-5.32,2.72,-5.31,5.31,5.35,5.38,8.02,8.02,8.03
56.86,2.72,-5.27,2.72,-5.26,5.27,5.32,5.37,7.99,7.99,7.99
57.42,2.72,-5.22,2.72,-5.22,5.23,5.28,5.37,7.95,7.95,7.94
58.00,2.72,-5.18,2.72,-5.18,5.19,5.24,5.36,7.92,7.92,7.90
58.58,2.71,-5.16,2.72,-5.15,5.16,5.20,5.35,7.87,7.87,7.87
59.16,2.71,-5.13,2.71,-5.13,5.12,5.17,5.34,7.83,7.83,7.84
59.76,2.69,-5.10,2.70,-5.09,5.08,5.13,5.32,7.78,7.78,7.79
60.35,2.68,-5.06,2.69,-5.05,5.04,5.09,5.30,7.73,7.73,7.74
60.96,2.67,-5.01,2.67,-5.01,5.01,5.05,5.28,7.68,7.68,7.68
61.57,2.65,-4.97,2.65,-4.97,4.97,5.01,5.25,7.62,7.62,7.62
62.18,2.63,-4.93,2.64,-4.92,4.93,4.97,5.22,7.56,7.57,7.56
62.80,2.62,-4.88,2.62,-4.88,4.89,4.93,5.19,7.51,7.51,7.50
63.43,2.60,-4.85,2.60,-4.85,4.85,4.89,5.15,7.46,7.46,7.45
64.07,2.58,-4.82,2.59,-4.81,4.82,4.85,5.11,7.40,7.40,7.40
64.71,2.56,-4.79,2.56,-4.78,4.78,4.81,5.07,7.35,7.35,7.35
65.35,2.54,-4.75,2.54,-4.76,4.75,4.77,5.02,7.30,7.29,7.29
66.01,2.51,-4.73,2.52,-4.73,4.72,4.73,4.97,7.24,7.24,7.24
66.67,2.49,-4.71,2.49,-4.69,4.69,4.69,4.92,7.19,7.19,7.20
67.33,2.47,-4.66,2.47,-4.66,4.66,4.65,4.86,7.14,7.14,7.13
68.01,2.45,-4.63,2.45,-4.63,4.63,4.61,4.80,7.09,7.09,7.08
68.69,2.43,-4.60,2.43,-4.60,4.60,4.57,4.74,7.03,7.03,7.03
69.37,2.41,-4.57,2.41,-4.56,4.56,4.53,4.67,6.97,6.97,6.98
70.07,2.39,-4.53,2.39,-4.52,4.52,4.49,4.61,6.91,6.91,6.92
70.77,2.37,-4.48,2.38,-4.48,4.47,4.45,4.54,6.85,6.85,6.85
71.48,2.37,-4.43,2.37,-4.43,4.42,4.41,4.47,6.80,6.79,6.80
72.19,2.36,-4.38,2.36,-4.37,4.37,4.37,4.40,6.73,6.73,6.74
72.91,2.35,-4.32,2.36,-4.32,4.31,4.33,4.33,6.67,6.67,6.67
73.64,2.36,-4.26,2.36,-4.25,4.25,4.29,4.26,6.61,6.61,6.62
74.38,2.37,-4.19,2.37,-4.19,4.19,4.25,4.19,6.56,6.56,6.56
75.12,2.38,-4.13,2.38,-4.12,4.13,4.21,4.12,6.51,6.51,6.51
75.87,2.39,-4.07,2.39,-4.07,4.07,4.17,4.05,6.47,6.46,6.46
76.63,2.39,-4.01,2.40,-4.01,4.02,4.13,3.99,6.41,6.41,6.40
77.40,2.39,-3.97,2.39,-3.96,3.97,4.09,3.92,6.36,6.36,6.36
78.17,2.38,-3.92,2.38,-3.92,3.93,4.05,3.86,6.31,6.31,6.30
78.95,2.36,-3.90,2.37,-3.89,3.89,4.01,3.79,6.26,6.26,6.26
79.74,2.35,-3.86,2.35,-3.86,3.86,3.97,3.73,6.21,6.21,6.21
80.54,2.32,-3.84,2.33,-3.83,3.83,3.93,3.67,6.15,6.16,6.16
81.35,2.30,-3.80,2.30,-3.80,3.80,3.89,3.61,6.11,6.11,6.10
82.16,2.28,-3.79,2.28,-3.78,3.77,3.86,3.56,6.06,6.05,6.07
82.98,2.25,-3.76,2.26,-3.75,3.75,3.82,3.50,6.00,6.00,6.01
83.81,2.23,-3.73,2.24,-3.72,3.72,3.78,3.45,5.95,5.95,5.96
84.65,2.21,-3.69,2.21,-3.69,3.69,3.74,3.40,5.90,5.90,5.90
85.50,2.19,-3.65,2.19,-3.65,3.66,3.71,3.35,5.85,5.85,5.84
86.35,2.16,-3.63,2.17,-3.63,3.63,3.67,3.31,5.80,5.80,5.79
87.22,2.13,-3.61,2.13,-3.60,3.61,3.63,3.26,5.74,5.74,5.74
88.09,2.10,-3.58,2.10,-3.58,3.58,3.60,3.22,5.69,5.68,5.68
88.97,2.06,-3.56,2.07,-3.56,3.56,3.56,3.19,5.62,5.63,5.62
89.86,2.03,-3.54,2.03,-3.54,3.54,3.52,3.15,5.57,5.57,5.57
90.76,1.99,-3.52,1.99,-3.51,3.51,3.49,3.12,5.51,5.50,5.51
91.66,1.95,-3.49,1.96,-3.49,3.49,3.45,3.09,5.44,5.44,5.44
92.58,1.92,-3.47,1.93,-3.46,3.46,3.42,3.06,5.38,5.39,5.39
93.51,1.90,-3.44,1.90,-3.43,3.43,3.39,3.03,5.33,5.33,5.34
94.44,1.88,-3.40,1.88,-3.40,3.39,3.35,3.01,5.27,5.27,5.28
95.39,1.85,-3.36,1.86,-3.36,3.35,3.32,2.98,5.21,5.21,5.21
96.34,1.83,-3.31,1.83,-3.31,3.32,3.29,2.96,5.15,5.15,5.14
97.30,1.80,-3.28,1.81,-3.27,3.28,3.26,2.95,5.08,5.09,5.08
98.28,1.78,-3.23,1.78,-3.23,3.24,3.22,2.93,5.02,5.02,5.01
99.26,1.75,-3.20,1.75,-3.20,3.20,3.19,2.91,4.96,4.95,4.95
100.25,1.72,-3.17,1.72,-3.17,3.16,3.16,2.90,4.89,4.89,4.89
101.25,1.69,-3.15,1.70,-3.14,3.13,3.13,2.89,4.82,4.83,4.84
102.27,1.67,-3.11,1.68,-3.10,3.09,3.09,2.88,4.77,4.77,4.78
103.29,1.66,-3.06,1.66,-3.06,3.06,3.06,2.87,4.73,4.72,4.72
104.32,1.64,-3.03,1.64,-3.02,3.03,3.03,2.86,4.67,4.67,4.67
105.37,1.62,-2.99,1.62,-2.99,3.00,3.00,2.85,4.63,4.62,4.61
106.42,1.59,-2.97,1.59,-2.96,2.97,2.96,2.85,4.57,4.57,4.56
107.48,1.56,-2.94,1.56,-2.94,2.95,2.93,2.84,4.51,4.51,4.50
108.56,1.52,-2.93,1.52,-2.92,2.93,2.89,2.83,4.45,4.45,4.45
109.64,1.48,-2.91,1.49,-2.90,2.90,2.86,2.83,4.39,4.39,4.39
110.74,1.45,-2.88,1.45,-2.88,2.87,2.82,2.82,4.33,4.33,4.33
111.85,1.42,-2.85,1.42,-2.85,2.84,2.78,2.82,4.26,4.26,4.27
112.97,1.40,-2.82,1.40,-2.81,2.80,2.74,2.81,4.20,4.20,4.22
114.10,1.38,-2.78,1.39,-2.77,2.75,2.71,2.80,4.13,4.13,4.16
115.24,1.38,-2.70,1.39,-2.70,2.69,2.67,2.80,4.07,4.07,4.08
116.39,1.39,-2.63,1.39,-2.63,2.63,2.63,2.79,4.02,4.02,4.02
117.55,1.40,-2.56,1.40,-2.55,2.57,2.59,2.78,3.97,3.97,3.96
118.73,1.41,-2.49,1.41,-2.50,2.51,2.56,2.77,3.92,3.92,3.90
119.92,1.41,-2.45,1.41,-2.44,2.46,2.52,2.75,3.87,3.87,3.86
121.12,1.40,-2.41,1.41,-2.40,2.41,2.48,2.74,3.81,3.82,3.81
122.33,1.39,-2.36,1.39,-2.37,2.37,2.45,2.72,3.76,3.76,3.75
123.55,1.36,-2.34,1.36,-2.34,2.34,2.41,2.70,3.70,3.70,3.70
124.79,1.33,-2.32,1.33,-2.31,2.31,2.38,2.68,3.64,3.64,3.65
126.03,1.29,-2.30,1.30,-2.29,2.28,2.34,2.66,3.58,3.59,3.59
127.29,1.27,-2.27,1.27,-2.26,2.26,2.31,2.63,3.53,3.53,3.54
128.57,1.24,-2.23,1.24,-2.24,2.23,2.27,2.61,3.48,3.47,3.47
129.85,1.20,-2.22,1.21,-2.21,2.21,2.24,2.58,3.41,3.42,3.42
131.15,1.17,-2.19,1.18,-2.18,2.18,2.21,2.55,3.35,3.36,3.36
132.46,1.16,-2.15,1.16,-2.15,2.15,2.18,2.52,3.32,3.31,3.31
133.79,1.13,-2.12,1.13,-2.12,2.12,2.15,2.48,3.26,3.26,3.25
135.12,1.10,-2.10,1.11,-2.09,2.10,2.12,2.45,3.20,3.20,3.20
136.48,1.08,-2.07,1.08,-2.07,2.07,2.09,2.41,3.15,3.15,3.15
137.84,1.04,-2.06,1.05,-2.04,2.04,2.06,2.37,3.09,3.09,3.10
139.22,1.03,-2.01,1.03,-2.02,2.02,2.03,2.33,3.05,3.05,3.04
140.61,1.00,-2.00,1.00,-1.99,2.00,2.00,2.29,3.00,3.00,3.00
142.02,0.97,-1.97,0.98,-1.97,1.97,1.97,2.25,2.95,2.95,2.94
143.44,0.95,-1.95,0.95,-1.95,1.95,1.94,2.21,2.91,2.90,2.90
144.87,0.91,-1.95,0.92,-1.94,1.94,1.92,2.17,2.85,2.86,2.86
146.32,0.89,-1.92,0.89,-1.92,1.92,1.89,2.12,2.81,2.81,2.81
147.78,0.86,-1.91,0.86,-1.91,1.90,1.86,2.08,2.77,2.76,2.77
149.26,0.83,-1.89,0.84,-1.89,1.89,1.84,2.04,2.72,2.72,2.72
150.75,0.80,-1.88,0.81,-1.87,1.87,1.81,1.99,2.68,2.68,2.68
152.26,0.79,-1.85,0.79,-1.85,1.86,1.79,1.95,2.65,2.64,2.64
153.78,0.76,-1.84,0.76,-1.84,1.84,1.77,1.91,2.60,2.60,2.60
155.32,0.73,-1.83,0.73,-1.82,1.82,1.74,1.87,2.56,2.55,2.56
156.88,0.69,-1.82,0.70,-1.81,1.80,1.72,1.82,2.50,2.50,2.51
158.44,0.68,-1.78,0.68,-1.79,1.78,1.70,1.78,2.46,2.46,2.46
160.03,0.65,-1.77,0.66,-1.76,1.76,1.68,1.74,2.41,2.42,2.42
161.63,0.63,-1.75,0.64,-1.74,1.74,1.65,1.70,2.37,2.38,2.38
163.24,0.62,-1.71,0.61,-1.71,1.72,1.63,1.66,2.34,2.33,2.33
164.88,0.58,-1.70,0.59,-1.69,1.70,1.61,1.62,2.28,2.29,2.28
166.53,0.56,-1.67,0.56,-1.67,1.68,1.59,1.59,2.25,2.25,2.23
168.19,0.53,-1.67,0.53,-1.66,1.67,1.57,1.55,2.20,2.19,2.20
169.87,0.48,-1.66,0.49,-1.65,1.65,1.55,1.51,2.14,2.14,2.14
171.57,0.44,-1.65,0.45,-1.65,1.64,1.53,1.48,2.09,2.09,2.09
173.29,0.40,-1.65,0.40,-1.64,1.63,1.52,1.44,2.04,2.03,2.05
175.02,0.36,-1.64,0.36,-1.64,1.63,1.50,1.41,1.99,1.99,2.00
176.77,0.32,-1.63,0.33,-1.62,1.62,1.48,1.38,1.95,1.95,1.95
178.54,0.29,-1.62,0.29,-1.61,1.63,1.46,1.35,1.92,1.92,1.91
180.32,0.25,-1.60,0.25,-1.61,1.63,1.45,1.32,1.89,1.88,1.85
182.13,0.20,-1.62,0.19,-1.62,1.64,1.43,1.29,1.84,1.83,1.82
183.95,0.11,-1.66,0.12,-1.64,1.65,1.41,1.26,1.76,1.77,1.77
185.79,0.05,-1.67,0.06,-1.67,1.66,1.40,1.23,1.71,1.72,1.72
187.65,0.00,-1.68,0.00,-1.68,1.66,1.38,1.21,1.67,1.67,1.68
189.52,-0.04,-1.68,-0.04,-1.68,1.66,1.37,1.18,1.63,1.63,1.64
191.42,-0.07,-1.67,-0.07,-1.67,1.65,1.36,1.16,1.59,1.58,1.60
193.33,-0.09,-1.65,-0.09,-1.64,1.63,1.34,1.13,1.55,1.54,1.56
195.27,-0.11,-1.62,-0.10,-1.61,1.61,1.33,1.11,1.50,1.51,1.51
197.22,-0.10,-1.56,-0.10,-1.56,1.57,1.32,1.09,1.47,1.47,1.46
199.19,-0.09,-1.52,-0.09,-1.51,1.53,1.30,1.07,1.44,1.44,1.43
201.18,-0.07,-1.46,-0.07,-1.46,1.48,1.29,1.05,1.41,1.40,1.39
203.19,-0.06,-1.42,-0.06,-1.42,1.42,1.28,1.03,1.37,1.36,1.36
205.23,-0.05,-1.39,-0.04,-1.37,1.36,1.27,1.01,1.31,1.32,1.34
207.28,-0.01,-1.32,-0.01,-1.31,1.30,1.26,0.99,1.29,1.29,1.31
209.35,0.03,-1.24,0.03,-1.24,1.23,1.25,0.97,1.26,1.27,1.27
211.44,0.08,-1.16,0.08,-1.16,1.16,1.24,0.96,1.25,1.25,1.24
213.56,0.13,-1.09,0.13,-1.08,1.10,1.23,0.94,1.23,1.23,1.22
215.69,0.17,-1.02,0.17,-1.02,1.03,1.22,0.93,1.20,1.20,1.19
217.85,0.21,-0.95,0.21,-0.95,0.96,1.21,0.92,1.17,1.17,1.16
220.03,0.23,-0.90,0.24,-0.89,0.90,1.20,0.90,1.13,1.13,1.13
222.23,0.26,-0.84,0.26,-0.84,0.83,1.19,0.89,1.10,1.10,1.10
224.45,0.29,-0.80,0.30,-0.79,0.77,1.18,0.88,1.07,1.07,1.09
226.70,0.33,-0.73,0.33,-0.73,0.72,1.18,0.87,1.05,1.05,1.06
228.96,0.37,-0.68,0.37,-0.68,0.67,1.17,0.87,1.04,1.04,1.05
231.25,0.40,-0.63,0.41,-0.62,0.62,1.16,0.86,1.03,1.03,1.03
233.57,0.43,-0.58,0.43,-0.58,0.59,1.16,0.85,1.02,1.02,1.01
235.90,0.45,-0.55,0.45,-0.55,0.56,1.15,0.85,1.02,1.01,1.00
238.26,0.44,-0.53,0.45,-0.53,0.55,1.15,0.84,0.99,1.00,0.97
240.64,0.43,-0.55,0.44,-0.54,0.55,1.14,0.84,0.98,0.99,0.98
243.05,0.41,-0.55,0.41,-0.55,0.56,1.14,0.83,0.97,0.97,0.96
245.48,0.37,-0.58,0.37,-0.58,0.58,1.13,0.83,0.95,0.95,0.95
247.93,0.32,-0.62,0.33,-0.61,0.60,1.13,0.83,0.93,0.94,0.94
250.41,0.30,-0.65,0.29,-0.65,0.63,1.13,0.83,0.94,0.93,0.95
252.92,0.25,-0.69,0.26,-0.68,0.66,1.12,0.83,0.92,0.93,0.94
255.45,0.23,-0.70,0.23,-0.70,0.69,1.12,0.83,0.93,0.93,0.93
258.00,0.21,-0.72,0.21,-0.72,0.72,1.12,0.84,0.93,0.93,0.93
260.58,0.18,-0.75,0.19,-0.74,0.75,1.12,0.84,0.93,0.93,0.93
263.19,0.16,-0.77,0.16,-0.77,0.77,1.12,0.85,0.94,0.93,0.93
265.82,0.12,-0.80,0.13,-0.79,0.80,1.12,0.85,0.92,0.93,0.92
268.48,0.10,-0.82,0.10,-0.82,0.82,1.12,0.86,0.92,0.92,0.92
271.16,0.07,-0.85,0.07,-0.85,0.84,1.12,0.87,0.92,0.91,0.92
273.87,0.03,-0.89,0.04,-0.88,0.87,1.12,0.88,0.90,0.91,0.92
276.61,0.01,-0.91,0.01,-0.90,0.89,1.12,0.89,0.91,0.91,0.92
279.38,-0.01,-0.91,-0.01,-0.91,0.92,1.12,0.90,0.91,0.91,0.90
282.17,-0.03,-0.93,-0.03,-0.93,0.95,1.12,0.91,0.92,0.92,0.90
284.99,-0.06,-0.97,-0.06,-0.97,0.98,1.13,0.92,0.92,0.92,0.91
287.84,-0.10,-1.02,-0.10,-1.01,1.01,1.13,0.94,0.92,0.92,0.92
290.72,-0.14,-1.05,-0.13,-1.05,1.05,1.13,0.95,0.91,0.92,0.91
293.63,-0.17,-1.09,-0.17,-1.08,1.08,1.14,0.97,0.91,0.92,0.92
296.57,-0.19,-1.12,-0.19,-1.12,1.11,1.14,0.98,0.93,0.92,0.93
299.53,-0.22,-1.15,-0.21,-1.15,1.14,1.15,1.00,0.92,0.93,0.93
302.53,-0.23,-1.18,-0.23,-1.17,1.16,1.15,1.02,0.93,0.93,0.95
305.55,-0.24,-1.18,-0.24,-1.19,1.18,1.16,1.04,0.94,0.94,0.94
308.61,-0.25,-1.20,-0.24,-1.19,1.19,1.17,1.06,0.94,0.95,0.95
311.69,-0.24,-1.20,-0.24,-1.19,1.19,1.17,1.08,0.96,0.96,0.96
314.81,-0.23,-1.19,-0.23,-1.19,1.20,1.18,1.10,0.97,0.97,0.96
317.96,-0.23,-1.20,-0.22,-1.19,1.20,1.19,1.13,0.98,0.98,0.97
321.14,-0.22,-1.20,-0.22,-1.20,1.20,1.20,1.15,0.99,0.99,0.98
324.35,-0.22,-1.20,-0.22,-1.21,1.21,1.21,1.18,0.99,0.99,0.98
327.59,-0.22,-1.23,-0.22,-1.21,1.21,1.22,1.20,0.99,0.99,1.01
330.87,-0.22,-1.22,-0.22,-1.22,1.21,1.23,1.23,1.00,1.00,1.00
334.18,-0.22,-1.23,-0.21,-1.22,1.22,1.24,1.26,1.00,1.00,1.01
337.52,-0.21,-1.22,-0.21,-1.22,1.22,1.25,1.29,1.02,1.01,1.01
340.90,-0.21,-1.24,-0.20,-1.23,1.23,1.26,1.32,1.02,1.03,1.03
344.30,-0.20,-1.24,-0.20,-1.23,1.24,1.27,1.35,1.04,1.04,1.04
347.75,-0.20,-1.24,-0.20,-1.24,1.25,1.29,1.39,1.05,1.05,1.04
351.23,-0.21,-1.25,-0.20,-1.25,1.26,1.30,1.42,1.06,1.06,1.04
354.74,-0.22,-1.29,-0.22,-1.28,1.28,1.32,1.46,1.07,1.06,1.07
358.28,-0.25,-1.31,-0.24,-1.31,1.31,1.33,1.49,1.07,1.07,1.06
361.87,-0.27,-1.34,-0.27,-1.34,1.34,1.35,1.53,1.08,1.08,1.07
365.49,-0.30,-1.38,-0.30,-1.38,1.38,1.36,1.57,1.08,1.08,1.08
369.14,-0.33,-1.43,-0.33,-1.42,1.42,1.38,1.61,1.09,1.09,1.10
372.83,-0.37,-1.47,-0.37,-1.46,1.46,1.40,1.65,1.09,1.09,1.10
376.56,-0.41,-1.51,-0.40,-1.51,1.50,1.41,1.69,1.09,1.10,1.10
380.33,-0.43,-1.54,-0.43,-1.54,1.54,1.43,1.73,1.11,1.11,1.11
384.13,-0.46,-1.59,-0.45,-1.58,1.57,1.45,1.78,1.12,1.12,1.13
387.97,-0.48,-1.61,-0.48,-1.61,1.61,1.47,1.82,1.13,1.13,1.13
391.85,-0.50,-1.64,-0.50,-1.64,1.64,1.49,1.86,1.14,1.14,1.14
395.77,-0.52,-1.67,-0.52,-1.67,1.67,1.51,1.91,1.15,1.15,1.15
399.73,-0.54,-1.70,-0.54,-1.70,1.70,1.54,1.96,1.16,1.16,1.16
403.72,-0.56,-1.75,-0.56,-1.73,1.73,1.56,2.00,1.17,1.17,1.19
407.76,-0.58,-1.76,-0.57,-1.76,1.76,1.58,2.05,1.18,1.18,1.18
411.84,-0.59,-1.78,-0.59,-1.78,1.79,1.60,2.09,1.20,1.20,1.19
415.96,-0.61,-1.82,-0.61,-1.81,1.82,1.63,2.14,1.22,1.21,1.21
420.12,-0.64,-1.85,-0.63,-1.85,1.86,1.65,2.19,1.22,1.22,1.21
424.32,-0.67,-1.89,-0.67,-1.89,1.89,1.68,2.23,1.23,1.23,1.22
428.56,-0.70,-1.94,-0.70,-1.93,1.93,1.71,2.28,1.24,1.23,1.24
432.85,-0.74,-1.99,-0.73,-1.98,1.97,1.73,2.32,1.24,1.24,1.25
437.18,-0.77,-2.01,-0.77,-2.01,2.01,1.76,2.37,1.25,1.25,1.24
441.55,-0.80,-2.05,-0.80,-2.05,2.05,1.79,2.41,1.26,1.26,1.25
445.96,-0.83,-2.09,-0.83,-2.09,2.09,1.82,2.45,1.26,1.26,1.26
450.42,-0.86,-2.13,-0.85,-2.12,2.12,1.85,2.49,1.27,1.27,1.27
454.93,-0.88,-2.16,-0.87,-2.15,2.15,1.88,2.53,1.27,1.27,1.28
459.48,-0.89,-2.18,-0.89,-2.18,2.17,1.91,2.56,1.28,1.28,1.29
464.07,-0.89,-2.20,-0.89,-2.19,2.18,1.94,2.59,1.30,1.30,1.31
468.71,-0.89,-2.21,-0.89,-2.20,2.19,1.97,2.62,1.31,1.31,1.32
473.40,-0.88,-2.20,-0.88,-2.20,2.20,2.00,2.65,1.32,1.32,1.32
478.13,-0.88,-2.21,-0.87,-2.20,2.20,2.04,2.67,1.33,1.33,1.33
482.91,-0.86,-2.20,-0.86,-2.20,2.20,2.07,2.69,1.35,1.34,1.34
487.74,-0.86,-2.21,-0.85,-2.20,2.21,2.10,2.71,1.35,1.35,1.35
492.62,-0.85,-2.21,-0.85,-2.21,2.21,2.14,2.73,1.37,1.37,1.36
497.55,-0.85,-2.22,-0.85,-2.22,2.23,2.17,2.74,1.38,1.38,1.37
502.52,-0.86,-2.24,-0.85,-2.24,2.25,2.21,2.74,1.39,1.39,1.38
507.55,-0.87,-2.27,-0.87,-2.26,2.27,2.24,2.75,1.41,1.40,1.40
512.62,-0.89,-2.30,-0.89,-2.30,2.30,2.28,2.75,1.42,1.41,1.41
517.75,-0.92,-2.35,-0.91,-2.34,2.34,2.31,2.74,1.42,1.43,1.43
522.93,-0.95,-2.39,-0.94,-2.38,2.38,2.35,2.74,1.43,1.44,1.44
528.16,-0.98,-2.43,-0.98,-2.43,2.42,2.39,2.73,1.45,1.45,1.45
533.44,-1.01,-2.47,-1.01,-2.47,2.47,2.42,2.71,1.46,1.46,1.46
538.77,-1.05,-2.52,-1.04,-2.51,2.52,2.46,2.70,1.47,1.47,1.47
544.16,-1.08,-2.56,-1.08,-2.56,2.56,2.50,2.68,1.48,1.48,1.48
549.60,-1.11,-2.60,-1.11,-2.60,2.60,2.53,2.66,1.50,1.49,1.49
555.10,-1.14,-2.65,-1.14,-2.64,2.64,2.57,2.64,1.51,1.50,1.51
560.65,-1.17,-2.69,-1.16,-2.68,2.68,2.60,2.61,1.51,1.51,1.52
