frequency,raw,error,smoothed,error_smoothed,equalization,parametric_eq,fixed_band_eq,equalized_raw,equalized_smoothed,target
20.00,-16.25,-20.00,-16.25,-20.02,20.02,19.46,9.21,3.77,3.78,3.75
20.20,-16.16,-19.95,-16.16,-19.97,19.97,19.66,9.39,3.81,3.81,3.79
20.40,-16.08,-19.91,-16.08,-19.92,19.92,19.83,9.58,3.84,3.84,3.83
20.61,-15.99,-19.85,-15.99,-19.86,19.86,19.99,9.76,3.87,3.87,3.86
20.81,-15.91,-19.81,-15.90,-19.80,19.80,20.13,9.96,3.89,3.89,3.90
21.02,-15.82,-19.76,-15.82,-19.74,19.74,20.25,10.15,3.92,3.92,3.94
21.23,-15.73,-19.69,-15.73,-19.68,19.68,20.35,10.36,3.95,3.94,3.96
21.44,-15.65,-19.63,-15.64,-19.61,19.61,20.42,10.56,3.96,3.97,3.98
21.66,-15.56,-19.56,-15.56,-19.54,19.54,20.47,10.78,3.99,3.99,4.00
21.87,-15.47,-19.48,-15.47,-19.48,19.48,20.50,10.99,4.01,4.01,4.01
22.09,-15.38,-19.41,-15.38,-19.41,19.41,20.50,11.22,4.03,4.03,4.03
22.31,-15.29,-19.33,-15.29,-19.33,19.33,20.48,11.45,4.05,4.04,4.04
22.54,-15.20,-19.25,-15.20,-19.26,19.26,20.44,11.68,4.06,4.06,4.05
22.76,-15.11,-19.17,-15.11,-19.18,19.18,20.37,11.92,4.07,4.07,4.06
22.99,-15.02,-19.08,-15.02,-19.10,19.10,20.29,12.17,4.08,4.07,4.06
23.22,-14.93,-19.00,-14.93,-19.01,19.01,20.20,12.43,4.08,4.08,4.07
23.45,-14.84,-18.92,-14.84,-18.93,18.93,20.08,12.69,4.09,4.09,4.08
23.69,-14.75,-18.84,-14.75,-18.85,18.85,19.96,12.96,4.10,4.10,4.09
23.92,-14.66,-18.76,-14.65,-18.76,18.76,19.82,13.24,4.11,4.11,4.10
24.16,-14.57,-18.69,-14.56,-18.68,18.68,19.68,13.52,4.11,4.12,4.12
24.40,-14.47,-18.61,-14.47,-18.60,18.60,19.52,13.82,4.13,4.13,4.14
24.65,-14.38,-18.51,-14.38,-18.51,18.51,19.36,14.12,4.13,4.14,4.13
24.89,-14.28,-18.42,-14.28,-18.43,18.43,19.20,14.43,4.15,4.15,4.14
25.14,-14.19,-18.34,-14.19,-18.35,18.35,19.03,14.75,4.16,4.16,4.15
25.39,-14.09,-18.25,-14.09,-18.26,18.26,18.86,15.08,4.18,4.17,4.16
25.65,-14.00,-18.18,-14.00,-18.18,18.18,18.69,15.42,4.18,4.18,4.18
25.91,-13.90,-18.08,-13.90,-18.09,18.09,18.52,15.77,4.19,4.19,4.18
26.16,-13.81,-18.00,-13.81,-18.01,18.01,18.36,16.13,4.20,4.20,4.19
26.43,-13.72,-17.92,-13.71,-17.92,17.92,18.19,16.50,4.20,4.21,4.20
26.69,-13.62,-17.83,-13.62,-17.84,17.84,18.02,16.88,4.22,4.22,4.21
26.96,-13.53,-17.76,-13.52,-17.75,17.75,17.86,17.26,4.22,4.22,4.23
27.23,-13.43,-17.67,-13.43,-17.66,17.66,17.70,17.66,4.23,4.23,4.24
27.50,-13.33,-17.57,-13.33,-17.58,17.58,17.55,18.06,4.25,4.24,4.24
27.77,-13.24,-17.48,-13.24,-17.49,17.49,17.39,18.46,4.25,4.25,4.24
28.05,-13.14,-17.40,-13.14,-17.40,17.40,17.25,18.87,4.26,4.26,4.26
28.33,-13.05,-17.31,-13.04,-17.31,17.31,17.10,19.27,4.26,4.27,4.26
28.62,-12.95,-17.22,-12.94,-17.22,17.22,16.96,19.67,4.27,4.28,4.27
28.90,-12.85,-17.13,-12.85,-17.13,17.13,16.82,20.06,4.28,4.29,4.28
29.19,-12.75,-17.03,-12.75,-17.04,17.04,16.69,20.43,4.29,4.29,4.28
29.48,-12.65,-16.96,-12.65,-16.95,16.95,16.57,20.78,4.30,4.30,4.31
29.78,-12.55,-16.85,-12.56,-16.86,16.86,16.44,21.09,4.31,4.31,4.30
30.08,-12.46,-16.77,-12.46,-16.77,16.77,16.32,21.36,4.31,4.31,4.31
30.38,-12.36,-16.67,-12.36,-16.68,16.68,16.21,21.58,4.32,4.32,4.31
30.68,-12.26,-16.59,-12.26,-16.59,16.59,16.10,21.74,4.33,4.33,4.33
30.99,-12.16,-16.49,-12.17,-16.50,16.50,15.99,21.83,4.34,4.33,4.33
31.30,-12.07,-16.40,-12.07,-16.41,16.41,15.89,21.85,4.34,4.34,4.33
31.61,-11.98,-16.32,-11.97,-16.32,16.32,15.79,21.79,4.34,4.35,4.34
31.93,-11.88,-16.23,-11.87,-16.23,16.23,15.70,21.68,4.35,4.36,4.35
32.24,-11.78,-16.13,-11.78,-16.14,16.14,15.61,21.50,4.36,4.36,4.35
32.57,-11.68,-16.05,-11.68,-16.05,16.05,15.52,21.27,4.37,4.37,4.37
32.89,-11.58,-15.95,-11.58,-15.96,15.96,15.44,20.99,4.38,4.38,4.37
33.22,-11.48,-15.86,-11.48,-15.87,15.87,15.36,20.69,4.39,4.39,4.38
33.55,-11.39,-15.78,-11.39,-15.78,15.78,15.28,20.36,4.39,4.39,4.39
33.89,-11.29,-15.69,-11.29,-15.69,15.69,15.21,20.01,4.40,4.40,4.40
34.23,-11.19,-15.59,-11.19,-15.59,15.59,15.14,19.65,4.41,4.40,4.40
34.57,-11.09,-15.50,-11.09,-15.50,15.50,15.07,19.29,4.41,4.41,4.41
34.92,-10.99,-15.40,-10.99,-15.41,15.41,15.01,18.93,4.42,4.42,4.41
35.27,-10.90,-15.32,-10.90,-15.32,15.32,14.94,18.57,4.42,4.42,4.42
35.62,-10.80,-15.22,-10.80,-15.22,15.22,14.88,18.21,4.42,4.43,4.42
35.97,-10.71,-15.13,-10.70,-15.13,15.13,14.83,17.86,4.42,4.43,4.42
36.33,-10.61,-15.04,-10.60,-15.03,15.03,14.77,17.52,4.43,4.43,4.43
36.70,-10.51,-14.93,-10.51,-14.94,14.94,14.72,17.19,4.43,4.43,4.42
37.06,-10.41,-14.84,-10.41,-14.84,14.84,14.66,16.87,4.44,4.43,4.43
37.43,-10.32,-14.75,-10.32,-14.75,14.75,14.61,16.56,4.43,4.43,4.43
37.81,-10.22,-14.65,-10.22,-14.65,14.65,14.56,16.26,4.43,4.43,4.43
38.19,-10.12,-14.55,-10.13,-14.56,14.56,14.51,15.97,4.44,4.43,4.43
38.57,-10.03,-14.45,-10.03,-14.46,14.46,14.46,15.69,4.43,4.43,4.42
38.95,-9.94,-14.36,-9.94,-14.36,14.36,14.41,15.43,4.43,4.42,4.42
39.34,-9.85,-14.26,-9.85,-14.27,14.27,14.36,15.17,4.42,4.42,4.41
39.74,-9.76,-14.17,-9.75,-14.17,14.17,14.31,14.92,4.41,4.42,4.41
40.14,-9.67,-14.08,-9.66,-14.07,14.07,14.26,14.68,4.40,4.42,4.41
40.54,-9.57,-13.98,-9.56,-13.98,13.98,14.21,14.45,4.41,4.41,4.41
40.94,-9.47,-13.87,-9.47,-13.88,13.88,14.15,14.23,4.41,4.41,4.40
41.35,-9.38,-13.78,-9.37,-13.78,13.78,14.10,14.02,4.40,4.41,4.40
41.76,-9.28,-13.68,-9.28,-13.68,13.68,14.04,13.82,4.41,4.40,4.40
42.18,-9.19,-13.59,-9.19,-13.59,13.59,13.98,13.62,4.40,4.40,4.40
42.60,-9.09,-13.49,-9.09,-13.49,13.49,13.91,13.44,4.40,4.40,4.40
43.03,-8.99,-13.39,-9.00,-13.39,13.39,13.85,13.26,4.40,4.40,4.40
43.46,-8.90,-13.30,-8.90,-13.30,13.30,13.78,13.09,4.40,4.39,4.40
43.90,-8.81,-13.19,-8.81,-13.20,13.20,13.71,12.93,4.39,4.39,4.38
44.33,-8.72,-13.10,-8.72,-13.11,13.11,13.63,12.77,4.39,4.39,4.38
44.78,-8.63,-13.00,-8.63,-13.01,13.01,13.55,12.63,4.39,4.39,4.37
45.23,-8.54,-12.91,-8.54,-12.92,12.92,13.47,12.49,4.38,4.38,4.37
45.68,-8.45,-12.82,-8.45,-12.83,12.83,13.38,12.35,4.38,4.38,4.37
46.13,-8.36,-12.72,-8.36,-12.73,12.73,13.29,12.22,4.38,4.37,4.36
46.60,-8.28,-12.65,-8.27,-12.64,12.64,13.19,12.10,4.36,4.37,4.37
47.06,-8.19,-12.55,-8.18,-12.55,12.55,13.09,11.99,4.36,4.36,4.36
47.53,-8.10,-12.45,-8.10,-12.45,12.45,12.99,11.88,4.35,4.35,4.35
48.01,-8.01,-12.37,-8.01,-12.35,12.35,12.88,11.77,4.34,4.34,4.36
48.49,-7.92,-12.26,-7.92,-12.26,12.26,12.77,11.67,4.34,4.34,4.34
48.97,-7.83,-12.15,-7.83,-12.16,12.16,12.65,11.58,4.33,4.33,4.32
49.46,-7.75,-12.06,-7.75,-12.06,12.06,12.53,11.49,4.31,4.32,4.31
49.96,-7.66,-11.95,-7.66,-11.96,11.96,12.41,11.41,4.30,4.30,4.29
50.46,-7.57,-11.86,-7.57,-11.86,11.86,12.28,11.32,4.29,4.29,4.29
50.96,-7.49,-11.76,-7.48,-11.75,11.75,12.15,11.25,4.26,4.27,4.27
51.47,-7.39,-11.63,-7.39,-11.65,11.65,12.01,11.17,4.26,4.26,4.24
51.99,-7.30,-11.53,-7.30,-11.54,11.54,11.87,11.10,4.24,4.24,4.23
52.51,-7.22,-11.44,-7.21,-11.44,11.44,11.73,11.04,4.22,4.22,4.22
53.03,-7.13,-11.33,-7.13,-11.33,11.33,11.59,10.97,4.20,4.20,4.20
53.56,-7.04,-11.23,-7.04,-11.22,11.22,11.44,10.90,4.18,4.18,4.19
54.10,-6.95,-11.11,-6.95,-11.12,11.12,11.29,10.84,4.17,4.17,4.16
54.64,-6.86,-11.01,-6.86,-11.01,11.01,11.14,10.78,4.15,4.15,4.15
55.18,-6.77,-10.89,-6.78,-10.91,10.91,10.99,10.72,4.14,4.13,4.12
55.74,-6.69,-10.78,-6.69,-10.80,10.80,10.84,10.66,4.11,4.11,4.09
56.29,-6.61,-10.70,-6.61,-10.69,10.69,10.68,10.59,4.09,4.09,4.09
56.86,-6.52,-10.58,-6.52,-10.59,10.59,10.53,10.53,4.07,4.07,4.06
57.42,-6.44,-10.47,-6.44,-10.48,10.48,10.37,10.46,4.05,4.05,4.03
58.00,-6.35,-10.36,-6.35,-10.37,10.37,10.21,10.39,4.03,4.02,4.01
58.58,-6.27,-10.26,-6.27,-10.27,10.27,10.06,10.32,4.00,3.99,3.99
59.16,-6.20,-10.17,-6.19,-10.16,10.16,9.90,10.24,3.96,3.97,3.97
59.76,-6.11,-10.06,-6.10,-10.04,10.04,9.74,10.17,3.94,3.94,3.95
60.35,-6.03,-9.95,-6.02,-9.93,9.93,9.58,10.08,3.90,3.91,3.92
60.96,-5.94,-9.83,-5.94,-9.82,9.82,9.42,9.99,3.88,3.88,3.89
61.57,-5.86,-9.70,-5.86,-9.71,9.71,9.27,9.90,3.85,3.85,3.84
62.18,-5.78,-9.58,-5.78,-9.59,9.59,9.11,9.80,3.81,3.81,3.80
62.80,-5.70,-9.48,-5.70,-9.47,9.47,8.96,9.70,3.78,3.78,3.78
63.43,-5.61,-9.34,-5.61,-9.36,9.36,8.80,9.59,3.75,3.74,3.73
64.07,-5.53,-9.22,-5.53,-9.24,9.24,8.65,9.48,3.71,3.70,3.69
64.71,-5.45,-9.11,-5.45,-9.12,9.12,8.50,9.36,3.67,3.67,3.66
65.35,-5.38,-9.00,-5.38,-9.00,9.00,8.34,9.24,3.62,3.63,3.62
66.01,-5.30,-8.88,-5.30,-8.89,8.89,8.20,9.11,3.59,3.59,3.58
66.67,-5.22,-8.77,-5.22,-8.77,8.77,8.05,8.98,3.55,3.55,3.55
67.33,-5.14,-8.65,-5.14,-8.65,8.65,7.90,8.84,3.52,3.51,3.51
68.01,-5.07,-8.54,-5.07,-8.54,8.54,7.75,8.70,3.47,3.47,3.47
68.69,-4.99,-8.42,-4.99,-8.43,8.43,7.61,8.56,3.44,3.43,3.43
69.37,-4.92,-8.31,-4.92,-8.31,8.31,7.47,8.42,3.39,3.39,3.39
70.07,-4.84,-8.19,-4.84,-8.20,8.20,7.33,8.27,3.36,3.35,3.35
70.77,-4.77,-8.08,-4.77,-8.08,8.08,7.19,8.12,3.32,3.32,3.31
71.48,-4.70,-7.98,-4.69,-7.97,7.97,7.05,7.97,3.27,3.28,3.28
72.19,-4.62,-7.85,-4.61,-7.85,7.85,6.92,7.81,3.23,3.24,3.23
72.91,-4.54,-7.74,-4.53,-7.74,7.74,6.78,7.66,3.20,3.20,3.20
73.64,-4.46,-7.62,-4.45,-7.62,7.62,6.65,7.51,3.16,3.17,3.16
74.38,-4.38,-7.51,-4.38,-7.51,7.51,6.52,7.35,3.13,3.13,3.13
75.12,-4.30,-7.39,-4.30,-7.39,7.39,6.39,7.20,3.10,3.10,3.09
75.87,-4.21,-7.27,-4.21,-7.28,7.28,6.27,7.05,3.07,3.07,3.06
76.63,-4.13,-7.16,-4.13,-7.17,7.17,6.14,6.89,3.04,3.04,3.03
77.40,-4.05,-7.05,-4.05,-7.05,7.05,6.02,6.74,3.00,3.01,3.00
78.17,-3.96,-6.93,-3.96,-6.94,6.94,5.90,6.60,2.98,2.98,2.97
78.95,-3.87,-6.81,-3.88,-6.82,6.82,5.78,6.45,2.96,2.95,2.94
79.74,-3.80,-6.72,-3.79,-6.71,6.71,5.66,6.30,2.92,2.92,2.92
80.54,-3.71,-6.61,-3.71,-6.60,6.60,5.55,6.16,2.89,2.90,2.90
81.35,-3.63,-6.50,-3.62,-6.49,6.49,5.43,6.02,2.86,2.87,2.87
82.16,-3.54,-6.38,-3.54,-6.39,6.39,5.32,5.88,2.85,2.85,2.84
82.98,-3.44,-6.27,-3.45,-6.28,6.28,5.21,5.74,2.84,2.83,2.83
83.81,-3.36,-6.16,-3.37,-6.17,6.17,5.10,5.61,2.81,2.81,2.80
84.65,-3.28,-6.05,-3.28,-6.07,6.07,4.99,5.48,2.79,2.78,2.77
85.50,-3.20,-5.96,-3.20,-5.96,5.96,4.89,5.35,2.76,2.76,2.76
86.35,-3.11,-5.85,-3.11,-5.86,5.86,4.78,5.22,2.75,2.74,2.74
87.22,-3.03,-5.75,-3.03,-5.75,5.75,4.68,5.10,2.72,2.72,2.72
88.09,-2.95,-5.65,-2.94,-5.65,5.65,4.58,4.97,2.70,2.71,2.70
88.97,-2.86,-5.54,-2.86,-5.55,5.55,4.48,4.86,2.69,2.69,2.68
89.86,-2.78,-5.45,-2.78,-5.44,5.44,4.38,4.74,2.67,2.67,2.67
90.76,-2.70,-5.34,-2.69,-5.34,5.34,4.29,4.63,2.64,2.65,2.64
91.66,-2.61,-5.23,-2.61,-5.24,5.24,4.19,4.51,2.63,2.63,2.62
92.58,-2.53,-5.13,-2.52,-5.13,5.13,4.10,4.40,2.61,2.61,2.60
93.51,-2.44,-5.03,-2.44,-5.03,5.03,4.01,4.30,2.59,2.59,2.59
94.44,-2.36,-4.93,-2.35,-4.92,4.92,3.91,4.19,2.56,2.57,2.57
95.39,-2.28,-4.83,-2.27,-4.81,4.81,3.82,4.09,2.53,2.55,2.55
96.34,-2.19,-4.71,-2.18,-4.70,4.70,3.74,3.99,2.52,2.52,2.52
97.30,-2.10,-4.59,-2.10,-4.60,4.60,3.65,3.89,2.50,2.50,2.49
98.28,-2.02,-4.48,-2.02,-4.49,4.49,3.56,3.80,2.47,2.47,2.46
99.26,-1.93,-4.37,-1.94,-4.38,4.38,3.48,3.70,2.45,2.44,2.44
100.25,-1.85,-4.26,-1.86,-4.27,4.27,3.40,3.61,2.43,2.41,2.41
101.25,-1.76,-4.14,-1.78,-4.17,4.17,3.31,3.52,2.41,2.38,2.38
102.27,-1.68,-4.02,-1.70,-4.06,4.06,3.23,3.44,2.38,2.35,2.34
103.29,-1.64,-3.95,-1.63,-3.94,3.94,3.15,3.35,2.31,2.32,2.31
104.32,-1.58,-3.86,-1.55,-3.83,3.83,3.07,3.26,2.25,2.28,2.28
105.37,-1.50,-3.74,-1.48,-3.72,3.72,3.00,3.18,2.22,2.24,2.24
106.42,-1.42,-3.61,-1.41,-3.61,3.61,2.92,3.10,2.19,2.20,2.19
107.48,-1.35,-3.51,-1.34,-3.49,3.49,2.84,3.02,2.15,2.15,2.16
108.56,-1.29,-3.39,-1.28,-3.38,3.38,2.77,2.94,2.09,2.10,2.10
109.64,-1.21,-3.26,-1.21,-3.27,3.27,2.69,2.87,2.06,2.05,2.05
110.74,-1.15,-3.15,-1.15,-3.15,3.15,2.62,2.79,2.00,2.00,2.00
111.85,-1.08,-3.03,-1.09,-3.04,3.04,2.55,2.71,1.96,1.94,1.95
112.97,-1.02,-2.90,-1.04,-2.93,2.93,2.48,2.64,1.91,1.89,1.88
114.10,-0.96,-2.79,-0.98,-2.81,2.81,2.41,2.57,1.85,1.83,1.83
115.24,-0.91,-2.68,-0.93,-2.70,2.70,2.34,2.50,1.79,1.77,1.77
116.39,-0.89,-2.59,-0.87,-2.59,2.59,2.27,2.43,1.70,1.71,1.70
117.55,-0.84,-2.48,-0.82,-2.48,2.48,2.20,2.36,1.64,1.65,1.64
118.73,-0.78,-2.36,-0.77,-2.37,2.37,2.13,2.29,1.59,1.60,1.58
119.92,-0.72,-2.25,-0.72,-2.26,2.26,2.06,2.22,1.54,1.54,1.53
121.12,-0.68,-2.15,-0.68,-2.16,2.16,1.99,2.15,1.48,1.48,1.47
122.33,-0.65,-2.07,-0.63,-2.05,2.05,1.93,2.08,1.40,1.43,1.42
123.55,-0.61,-1.98,-0.58,-1.95,1.95,1.86,2.02,1.34,1.37,1.37
124.79,-0.53,-1.85,-0.53,-1.85,1.85,1.79,1.95,1.32,1.32,1.32
126.03,-0.46,-1.73,-0.48,-1.75,1.75,1.73,1.88,1.29,1.27,1.27
127.29,-0.42,-1.64,-0.43,-1.65,1.65,1.66,1.82,1.23,1.22,1.22
128.57,-0.37,-1.53,-0.37,-1.55,1.55,1.60,1.75,1.18,1.17,1.16
129.85,-0.32,-1.44,-0.32,-1.45,1.45,1.53,1.69,1.13,1.13,1.12
131.15,-0.27,-1.34,-0.27,-1.35,1.35,1.47,1.62,1.08,1.08,1.07
132.46,-0.23,-1.26,-0.22,-1.25,1.25,1.40,1.56,1.02,1.04,1.03
133.79,-0.17,-1.16,-0.16,-1.16,1.16,1.34,1.49,0.99,0.99,0.99
135.12,-0.11,-1.06,-0.11,-1.07,1.07,1.27,1.43,0.96,0.95,0.95
136.48,-0.07,-0.98,-0.07,-0.98,0.98,1.21,1.36,0.91,0.91,0.91
137.84,-0.02,-0.89,-0.02,-0.89,0.89,1.14,1.30,0.88,0.87,0.87
139.22,0.01,-0.81,0.02,-0.82,0.82,1.08,1.23,0.83,0.83,0.82
140.61,0.06,-0.72,0.06,-0.74,0.74,1.01,1.17,0.80,0.80,0.78
142.02,0.12,-0.64,0.10,-0.66,0.66,0.95,1.10,0.78,0.76,0.76
143.44,0.15,-0.57,0.14,-0.59,0.59,0.88,1.04,0.74,0.72,0.72
144.87,0.19,-0.49,0.17,-0.51,0.51,0.81,0.97,0.71,0.68,0.68
146.32,0.20,-0.44,0.21,-0.44,0.44,0.75,0.91,0.64,0.65,0.64
147.78,0.23,-0.38,0.24,-0.37,0.37,0.68,0.84,0.60,0.61,0.61
149.26,0.24,-0.34,0.27,-0.30,0.30,0.62,0.78,0.54,0.57,0.58
150.75,0.28,-0.24,0.30,-0.23,0.23,0.55,0.71,0.51,0.53,0.52
152.26,0.32,-0.16,0.33,-0.16,0.16,0.48,0.64,0.48,0.49,0.48
153.78,0.35,-0.10,0.36,-0.09,0.09,0.41,0.58,0.44,0.44,0.45
155.32,0.39,-0.00,0.39,-0.02,0.02,0.34,0.51,0.41,0.40,0.39
156.88,0.42,0.06,0.42,0.06,-0.06,0.27,0.45,0.36,0.36,0.36
158.44,0.43,0.12,0.45,0.13,-0.13,0.20,0.38,0.30,0.31,0.31
160.03,0.47,0.21,0.48,0.21,-0.21,0.13,0.31,0.26,0.27,0.26
161.63,0.49,0.28,0.51,0.28,-0.28,0.06,0.24,0.21,0.22,0.21
163.24,0.52,0.35,0.53,0.35,-0.35,-0.02,0.17,0.17,0.18,0.17
164.88,0.57,0.44,0.55,0.42,-0.42,-0.09,0.10,0.15,0.13,0.13
166.53,0.59,0.51,0.57,0.49,-0.49,-0.17,0.03,0.10,0.08,0.08
168.19,0.61,0.58,0.59,0.55,-0.55,-0.24,-0.04,0.06,0.03,0.03
169.87,0.64,0.66,0.60,0.62,-0.62,-0.32,-0.11,0.03,-0.02,-0.02
171.57,0.64,0.70,0.61,0.68,-0.68,-0.40,-0.18,-0.04,-0.07,-0.06
173.29,0.64,0.76,0.62,0.74,-0.74,-0.48,-0.25,-0.10,-0.12,-0.12
175.02,0.63,0.80,0.63,0.80,-0.80,-0.56,-0.32,-0.17,-0.17,-0.17
176.77,0.62,0.85,0.65,0.87,-0.87,-0.64,-0.40,-0.25,-0.22,-0.23
178.54,0.62,0.90,0.66,0.93,-0.93,-0.72,-0.47,-0.31,-0.28,-0.28
180.32,0.63,0.97,0.67,1.00,-1.00,-0.81,-0.54,-0.37,-0.33,-0.34
182.13,0.65,1.04,0.69,1.07,-1.07,-0.89,-0.62,-0.42,-0.39,-0.39
183.95,0.69,1.14,0.70,1.15,-1.15,-0.98,-0.70,-0.46,-0.45,-0.45
185.79,0.72,1.22,0.72,1.23,-1.23,-1.06,-0.77,-0.50,-0.50,-0.50
187.65,0.74,1.31,0.75,1.31,-1.31,-1.15,-0.85,-0.57,-0.56,-0.57
189.52,0.77,1.39,0.78,1.39,-1.39,-1.23,-0.93,-0.62,-0.61,-0.62
191.42,0.81,1.48,0.81,1.47,-1.47,-1.32,-1.01,-0.66,-0.66,-0.67
193.33,0.84,1.56,0.84,1.56,-1.56,-1.41,-1.09,-0.71,-0.72,-0.72
195.27,0.87,1.64,0.87,1.64,-1.64,-1.49,-1.16,-0.76,-0.77,-0.77
197.22,0.90,1.73,0.89,1.71,-1.71,-1.58,-1.24,-0.81,-0.82,-0.83
199.19,0.93,1.81,0.91,1.78,-1.78,-1.66,-1.32,-0.85,-0.87,-0.88
201.18,0.95,1.88,0.93,1.85,-1.85,-1.74,-1.40,-0.90,-0.92,-0.93
203.19,0.97,1.93,0.95,1.91,-1.91,-1.82,-1.48,-0.94,-0.97,-0.96
205.23,0.98,2.00,0.96,1.97,-1.97,-1.90,-1.56,-0.99,-1.01,-1.02
207.28,0.98,2.02,0.97,2.02,-2.02,-1.98,-1.64,-1.04,-1.05,-1.04
209.35,0.97,2.07,0.97,2.07,-2.07,-2.05,-1.72,-1.10,-1.10,-1.10
211.44,0.96,2.11,0.97,2.11,-2.11,-2.12,-1.80,-1.15,-1.14,-1.15
213.56,0.96,2.15,0.97,2.15,-2.15,-2.19,-1.87,-1.19,-1.18,-1.19
215.69,0.96,2.17,0.97,2.19,-2.19,-2.25,-1.94,-1.23,-1.21,-1.21
217.85,0.96,2.21,0.97,2.22,-2.22,-2.31,-2.02,-1.26,-1.25,-1.25
220.03,0.96,2.25,0.97,2.25,-2.25,-2.36,-2.09,-1.29,-1.28,-1.29
222.23,0.96,2.28,0.96,2.28,-2.28,-2.41,-2.15,-1.31,-1.31,-1.32
224.45,0.96,2.30,0.96,2.30,-2.30,-2.45,-2.22,-1.34,-1.34,-1.34
226.70,0.96,2.33,0.96,2.33,-2.33,-2.49,-2.28,-1.37,-1.36,-1.37
228.96,0.96,2.36,0.97,2.35,-2.35,-2.52,-2.34,-1.39,-1.39,-1.40
231.25,0.96,2.37,0.97,2.38,-2.38,-2.54,-2.39,-1.41,-1.41,-1.41
233.57,0.96,2.39,0.97,2.39,-2.39,-2.56,-2.44,-1.43,-1.42,-1.43
235.90,0.96,2.40,0.97,2.41,-2.41,-2.57,-2.49,-1.45,-1.43,-1.44
238.26,0.96,2.41,0.98,2.42,-2.42,-2.57,-2.53,-1.46,-1.45,-1.45
240.64,0.97,2.43,0.97,2.43,-2.43,-2.57,-2.57,-1.46,-1.45,-1.46
243.05,0.98,2.44,0.97,2.43,-2.43,-2.56,-2.60,-1.45,-1.46,-1.46
245.48,0.98,2.45,0.97,2.43,-2.43,-2.55,-2.63,-1.45,-1.46,-1.47
247.93,0.97,2.44,0.96,2.42,-2.42,-2.53,-2.65,-1.45,-1.46,-1.47
250.41,0.96,2.43,0.94,2.40,-2.40,-2.51,-2.67,-1.44,-1.46,-1.47
252.92,0.94,2.40,0.92,2.38,-2.38,-2.48,-2.68,-1.44,-1.46,-1.46
255.45,0.92,2.37,0.90,2.35,-2.35,-2.45,-2.68,-1.43,-1.45,-1.45
258.00,0.89,2.33,0.88,2.32,-2.32,-2.42,-2.68,-1.43,-1.44,-1.44
260.58,0.86,2.30,0.85,2.28,-2.28,-2.38,-2.68,-1.42,-1.43,-1.44
263.19,0.83,2.26,0.82,2.24,-2.24,-2.34,-2.67,-1.41,-1.42,-1.43
265.82,0.78,2.20,0.79,2.20,-2.20,-2.30,-2.65,-1.42,-1.41,-1.42
268.48,0.76,2.16,0.76,2.16,-2.16,-2.26,-2.63,-1.39,-1.40,-1.40
271.16,0.72,2.10,0.73,2.11,-2.11,-2.22,-2.61,-1.39,-1.38,-1.38
273.87,0.68,2.06,0.70,2.07,-2.07,-2.17,-2.59,-1.39,-1.37,-1.38
276.61,0.66,2.01,0.68,2.04,-2.04,-2.13,-2.56,-1.38,-1.36,-1.35
279.38,0.64,1.99,0.66,2.01,-2.01,-2.08,-2.52,-1.36,-1.34,-1.35
282.17,0.63,1.96,0.65,1.98,-1.98,-2.04,-2.49,-1.35,-1.33,-1.33
284.99,0.61,1.93,0.64,1.96,-1.96,-1.99,-2.45,-1.35,-1.32,-1.32
287.84,0.61,1.92,0.63,1.94,-1.94,-1.95,-2.41,-1.33,-1.30,-1.31
290.72,0.62,1.92,0.63,1.92,-1.92,-1.91,-2.36,-1.30,-1.29,-1.30
293.63,0.63,1.91,0.63,1.91,-1.91,-1.86,-2.32,-1.28,-1.28,-1.28
296.57,0.64,1.90,0.64,1.90,-1.90,-1.82,-2.28,-1.26,-1.26,-1.26
299.53,0.65,1.91,0.64,1.89,-1.89,-1.78,-2.23,-1.24,-1.25,-1.26
302.53,0.65,1.90,0.64,1.88,-1.88,-1.74,-2.18,-1.22,-1.24,-1.25
305.55,0.65,1.88,0.64,1.86,-1.86,-1.71,-2.14,-1.21,-1.23,-1.23
308.61,0.65,1.87,0.63,1.85,-1.85,-1.67,-2.09,-1.19,-1.22,-1.22
311.69,0.64,1.85,0.62,1.83,-1.83,-1.63,-2.04,-1.18,-1.20,-1.21
314.81,0.63,1.81,0.61,1.80,-1.80,-1.60,-1.99,-1.17,-1.20,-1.18
317.96,0.60,1.79,0.59,1.78,-1.78,-1.57,-1.95,-1.17,-1.19,-1.19
321.14,0.58,1.76,0.57,1.75,-1.75,-1.54,-1.90,-1.17,-1.18,-1.18
324.35,0.55,1.73,0.54,1.72,-1.72,-1.51,-1.86,-1.16,-1.17,-1.18
327.59,0.51,1.68,0.52,1.68,-1.68,-1.48,-1.81,-1.17,-1.17,-1.17
330.87,0.48,1.65,0.49,1.65,-1.65,-1.45,-1.77,-1.17,-1.16,-1.17
334.18,0.45,1.62,0.46,1.62,-1.62,-1.43,-1.73,-1.17,-1.16,-1.17
337.52,0.41,1.57,0.44,1.59,-1.59,-1.41,-1.69,-1.18,-1.16,-1.16
340.90,0.39,1.55,0.41,1.57,-1.57,-1.38,-1.64,-1.17,-1.16,-1.16
344.30,0.36,1.52,0.38,1.54,-1.54,-1.36,-1.61,-1.18,-1.16,-1.16
347.75,0.35,1.51,0.36,1.52,-1.52,-1.34,-1.57,-1.17,-1.16,-1.16
351.23,0.33,1.49,0.34,1.50,-1.50,-1.32,-1.53,-1.17,-1.16,-1.16
354.74,0.32,1.48,0.31,1.48,-1.48,-1.31,-1.50,-1.16,-1.16,-1.16
358.28,0.29,1.47,0.29,1.46,-1.46,-1.29,-1.46,-1.17,-1.17,-1.18
361.87,0.28,1.46,0.27,1.44,-1.44,-1.27,-1.43,-1.16,-1.17,-1.18
365.49,0.26,1.44,0.25,1.42,-1.42,-1.26,-1.40,-1.16,-1.18,-1.18
369.14,0.24,1.43,0.22,1.40,-1.40,-1.25,-1.37,-1.16,-1.18,-1.19
372.83,0.21,1.40,0.19,1.38,-1.38,-1.23,-1.34,-1.17,-1.19,-1.19
376.56,0.17,1.37,0.17,1.36,-1.36,-1.22,-1.31,-1.19,-1.20,-1.20
380.33,0.15,1.36,0.14,1.34,-1.34,-1.21,-1.28,-1.19,-1.21,-1.21
384.13,0.11,1.33,0.11,1.32,-1.32,-1.20,-1.26,-1.21,-1.21,-1.22
387.97,0.08,1.31,0.08,1.30,-1.30,-1.19,-1.24,-1.22,-1.22,-1.23
391.85,0.05,1.29,0.06,1.29,-1.29,-1.18,-1.21,-1.23,-1.23,-1.24
395.77,0.02,1.25,0.04,1.27,-1.27,-1.18,-1.19,-1.25,-1.23,-1.23
399.73,0.00,1.24,0.02,1.26,-1.26,-1.17,-1.17,-1.26,-1.24,-1.24
403.72,-0.02,1.23,0.00,1.25,-1.25,-1.16,-1.15,-1.27,-1.25,-1.25
407.76,-0.04,1.22,-0.01,1.24,-1.24,-1.16,-1.13,-1.28,-1.25,-1.26
411.84,-0.04,1.21,-0.02,1.24,-1.24,-1.15,-1.12,-1.27,-1.26,-1.25
415.96,-0.03,1.24,-0.03,1.23,-1.23,-1.15,-1.10,-1.26,-1.26,-1.27
420.12,-0.02,1.25,-0.03,1.24,-1.24,-1.15,-1.08,-1.25,-1.26,-1.27
424.32,-0.02,1.25,-0.03,1.24,-1.24,-1.14,-1.07,-1.25,-1.27,-1.27
428.56,-0.02,1.26,-0.03,1.24,-1.24,-1.14,-1.06,-1.26,-1.27,-1.28
432.85,-0.02,1.26,-0.03,1.24,-1.24,-1.14,-1.04,-1.26,-1.27,-1.28
437.18,-0.02,1.26,-0.03,1.25,-1.25,-1.14,-1.03,-1.26,-1.27,-1.28
441.55,-0.02,1.25,-0.02,1.25,-1.25,-1.13,-1.02,-1.27,-1.27,-1.27
445.96,-0.02,1.25,-0.02,1.25,-1.25,-1.13,-1.01,-1.27,-1.27,-1.27
450.42,-0.02,1.26,-0.02,1.25,-1.25,-1.13,-1.00,-1.27,-1.27,-1.28
