frequency,raw,error,smoothed,error_smoothed,equalization,parametric_eq,fixed_band_eq,equalized_raw,equalized_smoothed,target
20.00,6.22,-1.87,6.19,-1.92,1.92,-0.31,-0.61,8.14,8.11,8.09
20.20,6.48,-1.65,6.47,-1.67,1.67,-0.34,-0.63,8.15,8.14,8.13
20.40,6.75,-1.41,6.74,-1.43,1.43,-0.36,-0.65,8.18,8.17,8.16
20.61,7.01,-1.18,7.00,-1.19,1.19,-0.39,-0.67,8.20,8.19,8.19
20.81,7.27,-0.95,7.26,-0.96,0.96,-0.42,-0.70,8.23,8.22,8.23
21.02,7.53,-0.74,7.51,-0.73,0.73,-0.46,-0.72,8.26,8.24,8.27
21.23,7.74,-0.53,7.76,-0.50,0.50,-0.49,-0.74,8.24,8.26,8.28
21.44,7.95,-0.34,8.00,-0.28,0.28,-0.53,-0.77,8.23,8.28,8.30
21.66,8.17,-0.15,8.24,-0.06,0.06,-0.57,-0.79,8.23,8.30,8.31
21.87,8.38,0.06,8.47,0.15,-0.15,-0.62,-0.81,8.23,8.32,8.32
22.09,8.61,0.27,8.69,0.36,-0.36,-0.67,-0.84,8.26,8.33,8.34
22.31,8.87,0.53,8.91,0.56,-0.56,-0.73,-0.87,8.31,8.35,8.34
22.54,9.13,0.77,9.13,0.77,-0.77,-0.79,-0.89,8.36,8.36,8.35
22.76,9.40,1.04,9.34,0.97,-0.97,-0.86,-0.92,8.43,8.37,8.36
22.99,9.66,1.30,9.55,1.17,-1.17,-0.93,-0.95,8.49,8.37,8.36
23.22,9.81,1.44,9.75,1.37,-1.37,-1.01,-0.98,8.44,8.38,8.37
23.45,9.96,1.58,9.94,1.56,-1.56,-1.10,-1.01,8.41,8.39,8.38
23.69,10.11,1.72,10.13,1.74,-1.74,-1.19,-1.04,8.37,8.39,8.39
23.92,10.26,1.86,10.30,1.91,-1.91,-1.30,-1.07,8.35,8.39,8.40
24.16,10.42,2.01,10.47,2.07,-2.07,-1.41,-1.10,8.35,8.40,8.41
24.40,10.58,2.17,10.62,2.22,-2.22,-1.52,-1.13,8.37,8.40,8.42
24.65,10.73,2.32,10.75,2.35,-2.35,-1.65,-1.17,8.38,8.40,8.41
24.89,10.89,2.49,10.87,2.47,-2.47,-1.78,-1.20,8.42,8.40,8.40
25.14,11.01,2.61,10.98,2.58,-2.58,-1.92,-1.23,8.44,8.41,8.40
25.39,11.10,2.70,11.08,2.68,-2.68,-2.06,-1.26,8.43,8.41,8.40
25.65,11.19,2.79,11.17,2.77,-2.77,-2.19,-1.29,8.42,8.40,8.40
25.91,11.28,2.89,11.26,2.86,-2.86,-2.33,-1.33,8.42,8.40,8.39
26.16,11.33,2.93,11.33,2.93,-2.93,-2.45,-1.36,8.40,8.40,8.40
26.43,11.37,2.97,11.39,2.99,-2.99,-2.55,-1.39,8.38,8.40,8.40
26.69,11.41,3.01,11.43,3.04,-3.04,-2.64,-1.42,8.37,8.39,8.40
26.96,11.44,3.05,11.46,3.07,-3.07,-2.70,-1.45,8.37,8.39,8.40
27.23,11.45,3.06,11.46,3.07,-3.07,-2.73,-1.48,8.38,8.39,8.39
27.50,11.46,3.07,11.45,3.06,-3.06,-2.73,-1.50,8.40,8.39,8.39
27.77,11.46,3.08,11.42,3.04,-3.04,-2.71,-1.53,8.43,8.38,8.38
28.05,11.45,3.07,11.39,3.00,-3.00,-2.65,-1.55,8.45,8.38,8.38
28.33,11.38,3.01,11.34,2.96,-2.96,-2.58,-1.58,8.42,8.38,8.37
28.62,11.31,2.94,11.29,2.92,-2.92,-2.48,-1.60,8.40,8.38,8.38
28.90,11.24,2.87,11.23,2.85,-2.85,-2.37,-1.62,8.39,8.37,8.37
29.19,11.14,2.78,11.15,2.78,-2.78,-2.25,-1.63,8.36,8.37,8.36
29.48,11.01,2.64,11.06,2.69,-2.69,-2.13,-1.64,8.31,8.37,8.37
29.78,10.88,2.51,10.96,2.60,-2.60,-2.00,-1.65,8.28,8.36,8.37
30.08,10.78,2.42,10.85,2.50,-2.50,-1.88,-1.66,8.28,8.36,8.37
30.38,10.72,2.37,10.74,2.39,-2.39,-1.76,-1.67,8.33,8.35,8.35
30.68,10.67,2.32,10.62,2.27,-2.27,-1.64,-1.67,8.40,8.35,8.35
30.99,10.61,2.27,10.49,2.14,-2.14,-1.54,-1.67,8.47,8.34,8.34
31.30,10.43,2.10,10.35,2.01,-2.01,-1.43,-1.66,8.42,8.34,8.34
31.61,10.24,1.91,10.22,1.88,-1.88,-1.34,-1.65,8.36,8.33,8.34
31.93,10.04,1.72,10.08,1.75,-1.75,-1.25,-1.64,8.29,8.33,8.32
32.24,9.91,1.60,9.95,1.63,-1.63,-1.17,-1.63,8.28,8.32,8.31
32.57,9.80,1.49,9.82,1.50,-1.50,-1.09,-1.61,8.30,8.31,8.31
32.89,9.69,1.39,9.69,1.38,-1.38,-1.02,-1.59,8.31,8.31,8.30
33.22,9.54,1.24,9.56,1.26,-1.26,-0.96,-1.57,8.28,8.30,8.30
33.55,9.38,1.08,9.43,1.13,-1.13,-0.90,-1.54,8.24,8.30,8.30
33.89,9.22,0.93,9.31,1.02,-1.02,-0.84,-1.51,8.21,8.29,8.29
34.23,9.13,0.84,9.19,0.90,-0.90,-0.79,-1.48,8.23,8.28,8.29
34.57,9.08,0.80,9.08,0.80,-0.80,-0.74,-1.45,8.28,8.28,8.28
34.92,9.02,0.75,8.99,0.71,-0.71,-0.70,-1.41,8.31,8.27,8.27
35.27,8.93,0.66,8.89,0.63,-0.63,-0.66,-1.37,8.31,8.27,8.27
35.62,8.82,0.56,8.80,0.54,-0.54,-0.62,-1.33,8.29,8.26,8.26
35.97,8.72,0.47,8.70,0.45,-0.45,-0.59,-1.29,8.27,8.26,8.25
36.33,8.64,0.39,8.62,0.37,-0.37,-0.55,-1.25,8.27,8.25,8.25
36.70,8.56,0.32,8.54,0.30,-0.30,-0.53,-1.20,8.26,8.24,8.24
37.06,8.48,0.25,8.47,0.24,-0.24,-0.50,-1.16,8.24,8.23,8.23
37.43,8.39,0.17,8.40,0.17,-0.17,-0.47,-1.11,8.22,8.22,8.22
37.81,8.30,0.08,8.32,0.11,-0.11,-0.45,-1.06,8.19,8.22,8.22
38.19,8.22,0.02,8.25,0.04,-0.04,-0.43,-1.01,8.18,8.21,8.20
38.57,8.13,-0.07,8.17,-0.03,0.03,-0.40,-0.97,8.16,8.20,8.20
38.95,8.04,-0.15,8.11,-0.09,0.09,-0.38,-0.92,8.13,8.19,8.19
39.34,8.03,-0.15,8.05,-0.14,0.14,-0.37,-0.87,8.17,8.19,8.18
39.74,8.03,-0.13,7.99,-0.19,0.19,-0.35,-0.82,8.22,8.18,8.16
40.14,8.00,-0.16,7.92,-0.25,0.25,-0.33,-0.77,8.25,8.17,8.17
40.54,7.91,-0.25,7.86,-0.30,0.30,-0.32,-0.72,8.21,8.16,8.16
40.94,7.81,-0.34,7.80,-0.34,0.34,-0.30,-0.67,8.15,8.14,8.15
41.35,7.74,-0.39,7.74,-0.38,0.38,-0.29,-0.62,8.12,8.13,8.14
41.76,7.67,-0.45,7.69,-0.41,0.41,-0.28,-0.57,8.08,8.11,8.12
42.18,7.62,-0.48,7.64,-0.44,0.44,-0.26,-0.52,8.06,8.08,8.10
42.60,7.59,-0.48,7.59,-0.47,0.47,-0.25,-0.47,8.06,8.06,8.07
43.03,7.56,-0.49,7.54,-0.49,0.49,-0.24,-0.42,8.06,8.03,8.05
43.46,7.47,-0.56,7.49,-0.52,0.52,-0.23,-0.37,7.99,8.01,8.03
43.90,7.37,-0.61,7.44,-0.54,0.54,-0.22,-0.32,7.91,7.98,7.98
44.33,7.35,-0.60,7.39,-0.56,0.56,-0.21,-0.27,7.91,7.95,7.95
44.78,7.35,-0.56,7.34,-0.58,0.58,-0.20,-0.22,7.93,7.92,7.91
45.23,7.33,-0.55,7.30,-0.60,0.60,-0.20,-0.17,7.93,7.89,7.88
45.68,7.30,-0.55,7.25,-0.61,0.61,-0.19,-0.12,7.91,7.87,7.85
46.13,7.26,-0.57,7.21,-0.63,0.63,-0.18,-0.07,7.89,7.84,7.83
46.60,7.18,-0.64,7.18,-0.65,0.65,-0.17,-0.03,7.83,7.82,7.82
47.06,7.12,-0.68,7.13,-0.67,0.67,-0.17,0.02,7.79,7.81,7.80
47.53,7.09,-0.69,7.09,-0.70,0.70,-0.16,0.07,7.79,7.79,7.78
48.01,7.07,-0.71,7.04,-0.74,0.74,-0.15,0.12,7.81,7.78,7.78
48.49,6.98,-0.79,7.00,-0.77,0.77,-0.15,0.17,7.75,7.77,7.77
48.97,6.89,-0.87,6.96,-0.80,0.80,-0.14,0.21,7.69,7.77,7.76
49.46,6.89,-0.85,6.92,-0.84,0.84,-0.14,0.26,7.73,7.76,7.74
49.96,6.89,-0.85,6.88,-0.88,0.88,-0.13,0.30,7.77,7.76,7.74
50.46,6.87,-0.87,6.84,-0.91,0.91,-0.13,0.35,7.78,7.75,7.75
50.96,6.85,-0.90,6.81,-0.93,0.93,-0.12,0.40,7.78,7.74,7.75
51.47,6.76,-0.97,6.77,-0.95,0.95,-0.12,0.44,7.71,7.72,7.74
51.99,6.66,-1.06,6.73,-0.97,0.97,-0.11,0.48,7.64,7.70,7.72
52.51,6.66,-1.04,6.69,-1.00,1.00,-0.11,0.53,7.66,7.68,7.70
53.03,6.66,-1.02,6.64,-1.02,1.02,-0.10,0.57,7.68,7.65,7.68
53.56,6.66,-0.98,6.59,-1.03,1.03,-0.10,0.61,7.69,7.62,7.64
54.10,6.64,-0.95,6.55,-1.03,1.03,-0.10,0.65,7.67,7.58,7.59
54.64,6.51,-1.03,6.51,-1.03,1.03,-0.09,0.69,7.54,7.54,7.54
55.18,6.43,-1.06,6.46,-1.03,1.03,-0.09,0.72,7.46,7.49,7.49
55.74,6.43,-1.00,6.42,-1.02,1.02,-0.08,0.76,7.45,7.44,7.43
56.29,6.37,-1.01,6.37,-1.01,1.01,-0.08,0.79,7.38,7.38,7.38
56.86,6.24,-1.08,6.32,-1.00,1.00,-0.08,0.82,7.24,7.32,7.32
57.42,6.21,-1.04,6.28,-0.98,0.98,-0.07,0.85,7.19,7.26,7.25
58.00,6.21,-0.97,6.24,-0.95,0.95,-0.07,0.88,7.16,7.19,7.18
58.58,6.21,-0.91,6.19,-0.94,0.94,-0.07,0.90,7.15,7.12,7.12
59.16,6.21,-0.85,6.15,-0.91,0.91,-0.06,0.92,7.12,7.06,7.07
59.76,6.21,-0.79,6.11,-0.88,0.88,-0.06,0.94,7.09,6.99,7.00
60.35,6.13,-0.79,6.08,-0.85,0.85,-0.06,0.96,6.98,6.93,6.92
60.96,5.99,-0.88,6.06,-0.80,0.80,-0.06,0.98,6.79,6.86,6.87
61.57,5.98,-0.81,6.04,-0.76,0.76,-0.05,0.99,6.74,6.80,6.79
62.18,5.98,-0.74,6.02,-0.72,0.72,-0.05,1.00,6.70,6.74,6.72
62.80,5.98,-0.69,6.01,-0.67,0.67,-0.05,1.00,6.65,6.68,6.67
63.43,5.98,-0.63,6.00,-0.62,0.62,-0.05,1.01,6.60,6.62,6.61
64.07,5.98,-0.58,5.98,-0.58,0.58,-0.04,1.01,6.56,6.57,6.56
64.71,5.98,-0.53,5.97,-0.54,0.54,-0.04,1.01,6.52,6.51,6.51
65.35,5.98,-0.48,5.97,-0.50,0.50,-0.04,1.00,6.48,6.47,6.46
66.01,5.98,-0.43,5.96,-0.46,0.46,-0.04,0.99,6.44,6.42,6.41
66.67,5.98,-0.39,5.96,-0.41,0.41,-0.03,0.98,6.39,6.38,6.37
67.33,5.98,-0.35,5.97,-0.36,0.36,-0.03,0.97,6.34,6.34,6.33
68.01,5.98,-0.32,5.98,-0.32,0.32,-0.03,0.96,6.30,6.30,6.30
68.69,5.98,-0.28,5.98,-0.28,0.28,-0.03,0.94,6.26,6.26,6.26
69.37,5.98,-0.24,5.98,-0.24,0.24,-0.03,0.92,6.22,6.22,6.22
70.07,5.98,-0.20,5.99,-0.20,0.20,-0.02,0.90,6.18,6.19,6.18
70.77,5.98,-0.18,5.99,-0.15,0.15,-0.02,0.88,6.14,6.15,6.16
71.48,5.98,-0.14,6.00,-0.11,0.11,-0.02,0.85,6.10,6.11,6.12
72.19,5.98,-0.11,6.00,-0.08,0.08,-0.02,0.83,6.06,6.08,6.09
72.91,5.98,-0.06,5.99,-0.05,0.05,-0.02,0.80,6.03,6.04,6.05
73.64,5.98,-0.03,5.98,-0.02,0.02,-0.01,0.78,6.00,6.00,6.01
74.38,5.98,0.00,5.97,-0.00,0.00,-0.01,0.75,5.98,5.97,5.98
75.12,5.98,0.05,5.95,0.02,-0.02,-0.01,0.72,5.96,5.93,5.93
75.87,5.98,0.09,5.94,0.04,-0.04,-0.01,0.69,5.94,5.90,5.89
76.63,5.98,0.13,5.93,0.07,-0.07,-0.01,0.66,5.91,5.86,5.85
77.40,5.96,0.13,5.91,0.08,-0.08,-0.01,0.63,5.88,5.83,5.83
78.17,5.89,0.10,5.88,0.09,-0.09,-0.00,0.60,5.80,5.80,5.79
78.95,5.76,-0.00,5.85,0.09,-0.09,-0.00,0.57,5.67,5.77,5.76
79.74,5.75,0.01,5.82,0.08,-0.08,-0.00,0.54,5.67,5.74,5.74
80.54,5.75,0.04,5.79,0.07,-0.07,0.00,0.51,5.68,5.72,5.71
81.35,5.75,0.06,5.75,0.05,-0.05,0.00,0.47,5.70,5.70,5.69
82.16,5.75,0.08,5.71,0.03,-0.03,0.01,0.44,5.72,5.68,5.67
82.98,5.75,0.08,5.68,0.02,-0.02,0.01,0.41,5.73,5.67,5.67
83.81,5.75,0.10,5.66,0.00,-0.00,0.01,0.38,5.75,5.65,5.65
84.65,5.60,-0.03,5.63,-0.01,0.01,0.01,0.35,5.61,5.64,5.63
85.50,5.52,-0.11,5.61,-0.02,0.02,0.01,0.32,5.55,5.63,5.63
86.35,5.52,-0.10,5.59,-0.04,0.04,0.01,0.29,5.56,5.63,5.63
87.22,5.52,-0.09,5.56,-0.06,0.06,0.02,0.26,5.58,5.62,5.62
88.09,5.52,-0.08,5.54,-0.07,0.07,0.02,0.23,5.59,5.61,5.60
88.97,5.52,-0.09,5.52,-0.08,0.08,0.02,0.20,5.60,5.60,5.61
89.86,5.52,-0.08,5.49,-0.10,0.10,0.02,0.17,5.62,5.59,5.60
90.76,5.52,-0.06,5.46,-0.12,0.12,0.02,0.14,5.64,5.58,5.58
91.66,5.52,-0.06,5.43,-0.13,0.13,0.02,0.11,5.65,5.57,5.58
92.58,5.44,-0.10,5.40,-0.15,0.15,0.03,0.08,5.59,5.55,5.54
93.51,5.34,-0.20,5.37,-0.16,0.16,0.03,0.05,5.50,5.53,5.54
94.44,5.29,-0.22,5.35,-0.15,0.15,0.03,0.02,5.44,5.51,5.51
95.39,5.29,-0.20,5.32,-0.16,0.16,0.03,-0.01,5.45,5.48,5.49
96.34,5.29,-0.15,5.29,-0.17,0.17,0.03,-0.04,5.46,5.45,5.44
97.30,5.29,-0.13,5.24,-0.18,0.18,0.03,-0.07,5.47,5.42,5.42
98.28,5.24,-0.14,5.20,-0.19,0.19,0.04,-0.10,5.43,5.39,5.38
99.26,5.10,-0.24,5.16,-0.19,0.19,0.04,-0.12,5.29,5.35,5.34
100.25,5.07,-0.24,5.12,-0.18,0.18,0.04,-0.15,5.25,5.30,5.31
101.25,5.07,-0.19,5.09,-0.17,0.17,0.04,-0.18,5.24,5.26,5.26
102.27,5.07,-0.14,5.05,-0.16,0.16,0.04,-0.21,5.23,5.21,5.21
103.29,5.07,-0.08,5.02,-0.14,0.14,0.04,-0.23,5.21,5.15,5.15
104.32,5.02,-0.09,4.98,-0.12,0.12,0.05,-0.26,5.14,5.09,5.11
105.37,4.90,-0.15,4.93,-0.10,0.10,0.05,-0.28,5.00,5.03,5.05
106.42,4.84,-0.14,4.90,-0.06,0.06,0.05,-0.31,4.91,4.96,4.98
107.48,4.84,-0.06,4.86,-0.03,0.03,0.05,-0.33,4.87,4.89,4.90
108.56,4.84,0.03,4.83,0.01,-0.01,0.05,-0.36,4.83,4.82,4.81
109.64,4.84,0.10,4.79,0.05,-0.05,0.06,-0.38,4.79,4.74,4.74
110.74,4.83,0.17,4.75,0.10,-0.10,0.06,-0.40,4.73,4.65,4.66
111.85,4.64,0.06,4.71,0.14,-0.14,0.06,-0.43,4.50,4.57,4.58
112.97,4.61,0.12,4.67,0.18,-0.18,0.06,-0.45,4.43,4.49,4.49
114.10,4.61,0.20,4.63,0.23,-0.23,0.06,-0.47,4.39,4.41,4.41
115.24,4.61,0.29,4.60,0.27,-0.27,0.07,-0.49,4.34,4.33,4.32
116.39,4.61,0.37,4.56,0.31,-0.31,0.07,-0.50,4.30,4.25,4.24
117.55,4.60,0.44,4.53,0.35,-0.35,0.07,-0.52,4.25,4.18,4.16
118.73,4.44,0.35,4.48,0.37,-0.37,0.07,-0.54,4.07,4.11,4.09
119.92,4.38,0.35,4.45,0.40,-0.40,0.07,-0.55,3.98,4.05,4.03
121.12,4.38,0.41,4.41,0.42,-0.42,0.08,-0.56,3.96,3.99,3.97
122.33,4.38,0.47,4.38,0.45,-0.45,0.08,-0.58,3.93,3.93,3.92
123.55,4.38,0.50,4.34,0.46,-0.46,0.08,-0.59,3.92,3.88,3.88
124.79,4.38,0.55,4.31,0.48,-0.48,0.08,-0.60,3.90,3.83,3.83
126.03,4.23,0.44,4.26,0.48,-0.48,0.09,-0.61,3.75,3.78,3.79
127.29,4.18,0.43,4.22,0.49,-0.49,0.09,-0.61,3.69,3.74,3.75
128.57,4.16,0.46,4.19,0.49,-0.49,0.09,-0.62,3.67,3.70,3.70
129.85,4.16,0.50,4.15,0.50,-0.50,0.09,-0.63,3.66,3.65,3.66
131.15,4.16,0.54,4.12,0.51,-0.51,0.10,-0.63,3.65,3.61,3.62
132.46,4.16,0.59,4.09,0.52,-0.52,0.10,-0.63,3.64,3.57,3.57
133.79,4.02,0.48,4.05,0.52,-0.52,0.10,-0.64,3.50,3.53,3.54
135.12,3.93,0.45,4.02,0.53,-0.53,0.10,-0.64,3.40,3.49,3.48
136.48,3.93,0.48,3.97,0.53,-0.53,0.11,-0.64,3.40,3.45,3.45
137.84,3.93,0.53,3.93,0.53,-0.53,0.11,-0.64,3.40,3.40,3.40
139.22,3.93,0.59,3.88,0.53,-0.53,0.11,-0.64,3.40,3.36,3.34
140.61,3.93,0.64,3.84,0.54,-0.54,0.11,-0.63,3.39,3.31,3.29
142.02,3.82,0.57,3.80,0.55,-0.55,0.12,-0.63,3.27,3.26,3.26
143.44,3.73,0.53,3.76,0.56,-0.56,0.12,-0.63,3.17,3.20,3.21
144.87,3.70,0.54,3.72,0.57,-0.57,0.12,-0.63,3.13,3.14,3.16
146.32,3.70,0.60,3.68,0.60,-0.60,0.12,-0.62,3.10,3.08,3.10
147.78,3.65,0.60,3.64,0.63,-0.63,0.13,-0.62,3.02,3.01,3.05
149.26,3.53,0.56,3.60,0.66,-0.66,0.13,-0.62,2.87,2.94,2.97
150.75,3.47,0.58,3.55,0.68,-0.68,0.13,-0.61,2.79,2.87,2.89
152.26,3.47,0.66,3.50,0.70,-0.70,0.14,-0.61,2.77,2.79,2.81
153.78,3.47,0.74,3.44,0.72,-0.72,0.14,-0.61,2.75,2.71,2.73
155.32,3.47,0.84,3.38,0.75,-0.75,0.14,-0.60,2.72,2.63,2.63
156.88,3.45,0.90,3.33,0.78,-0.78,0.15,-0.60,2.67,2.56,2.55
158.44,3.30,0.83,3.29,0.81,-0.81,0.15,-0.60,2.49,2.48,2.47
160.03,3.24,0.85,3.24,0.83,-0.83,0.15,-0.60,2.41,2.41,2.39
161.63,3.24,0.92,3.20,0.86,-0.86,0.16,-0.59,2.38,2.34,2.32
163.24,3.10,0.84,3.17,0.88,-0.88,0.16,-0.59,2.22,2.28,2.26
164.88,3.02,0.81,3.14,0.91,-0.91,0.16,-0.59,2.11,2.23,2.21
166.53,3.02,0.85,3.11,0.92,-0.92,0.17,-0.59,2.10,2.19,2.17
168.19,3.02,0.89,3.07,0.92,-0.92,0.17,-0.59,2.10,2.16,2.13
169.87,3.02,0.91,3.04,0.91,-0.91,0.18,-0.59,2.12,2.13,2.11
171.57,3.02,0.92,3.01,0.89,-0.89,0.18,-0.59,2.13,2.12,2.10
173.29,3.02,0.93,2.98,0.87,-0.87,0.18,-0.59,2.15,2.10,2.09
175.02,3.02,0.92,2.96,0.87,-0.87,0.19,-0.59,2.15,2.09,2.10
176.77,3.02,0.93,2.95,0.86,-0.86,0.19,-0.60,2.16,2.09,2.09
178.54,3.02,0.93,2.94,0.85,-0.85,0.20,-0.60,2.17,2.08,2.09
180.32,2.94,0.85,2.92,0.84,-0.84,0.20,-0.60,2.10,2.08,2.10
182.13,2.84,0.74,2.90,0.83,-0.83,0.21,-0.61,2.01,2.07,2.10
183.95,2.79,0.70,2.87,0.81,-0.81,0.21,-0.61,1.98,2.06,2.09
185.79,2.79,0.72,2.84,0.78,-0.78,0.21,-0.62,2.01,2.05,2.07
187.65,2.79,0.74,2.80,0.76,-0.76,0.22,-0.62,2.03,2.04,2.05
189.52,2.79,0.77,2.76,0.74,-0.74,0.22,-0.63,2.05,2.03,2.02
191.42,2.79,0.79,2.73,0.72,-0.72,0.23,-0.63,2.07,2.01,2.00
193.33,2.79,0.81,2.70,0.71,-0.71,0.23,-0.64,2.08,1.99,1.98
195.27,2.69,0.73,2.68,0.71,-0.71,0.24,-0.65,1.98,1.96,1.96
197.22,2.59,0.65,2.66,0.72,-0.72,0.24,-0.65,1.87,1.94,1.94
199.19,2.56,0.66,2.64,0.72,-0.72,0.25,-0.66,1.84,1.92,1.90
201.18,2.56,0.67,2.62,0.73,-0.73,0.26,-0.67,1.83,1.89,1.89
203.19,2.56,0.69,2.60,0.73,-0.73,0.26,-0.68,1.83,1.87,1.87
205.23,2.56,0.72,2.57,0.72,-0.72,0.27,-0.68,1.84,1.85,1.84
207.28,2.56,0.73,2.54,0.72,-0.72,0.27,-0.69,1.85,1.83,1.83
209.35,2.56,0.75,2.51,0.71,-0.71,0.28,-0.70,1.86,1.81,1.81
211.44,2.56,0.78,2.49,0.70,-0.70,0.28,-0.71,1.86,1.79,1.78
213.56,2.56,0.79,2.46,0.69,-0.69,0.29,-0.71,1.87,1.77,1.77
215.69,2.56,0.79,2.44,0.69,-0.69,0.30,-0.72,1.87,1.76,1.77
217.85,2.35,0.61,2.44,0.70,-0.70,0.30,-0.72,1.65,1.74,1.74
220.03,2.33,0.60,2.42,0.69,-0.69,0.31,-0.73,1.64,1.73,1.73
222.23,2.33,0.63,2.39,0.68,-0.68,0.32,-0.73,1.65,1.71,1.70
224.45,2.33,0.63,2.37,0.67,-0.67,0.32,-0.74,1.66,1.70,1.70
226.70,2.33,0.64,2.35,0.66,-0.66,0.33,-0.74,1.67,1.69,1.69
228.96,2.33,0.65,2.33,0.65,-0.65,0.34,-0.74,1.68,1.68,1.68
231.25,2.33,0.65,2.31,0.64,-0.64,0.35,-0.74,1.69,1.67,1.68
233.57,2.33,0.66,2.30,0.63,-0.63,0.35,-0.73,1.70,1.67,1.67
235.90,2.33,0.68,2.30,0.63,-0.63,0.36,-0.73,1.70,1.66,1.65
238.26,2.33,0.68,2.30,0.64,-0.64,0.37,-0.72,1.69,1.66,1.65
240.64,2.33,0.68,2.32,0.66,-0.66,0.38,-0.72,1.67,1.66,1.65
243.05,2.18,0.52,2.33,0.67,-0.67,0.38,-0.71,1.51,1.66,1.66
245.48,2.27,0.61,2.32,0.66,-0.66,0.39,-0.70,1.61,1.66,1.66
247.93,2.33,0.66,2.32,0.65,-0.65,0.40,-0.68,1.68,1.66,1.67
250.41,2.33,0.67,2.31,0.64,-0.64,0.41,-0.67,1.69,1.67,1.66
252.92,2.33,0.66,2.29,0.62,-0.62,0.42,-0.65,1.71,1.67,1.67
255.45,2.33,0.64,2.28,0.60,-0.60,0.43,-0.63,1.73,1.68,1.69
258.00,2.33,0.63,2.26,0.57,-0.57,0.44,-0.61,1.76,1.69,1.70
260.58,2.33,0.63,2.25,0.55,-0.55,0.45,-0.59,1.78,1.70,1.70
263.19,2.32,0.61,2.24,0.53,-0.53,0.46,-0.56,1.79,1.71,1.71
265.82,2.13,0.42,2.22,0.50,-0.50,0.47,-0.54,1.63,1.72,1.71
268.48,2.10,0.37,2.20,0.47,-0.47,0.48,-0.51,1.63,1.74,1.74
271.16,2.10,0.35,2.18,0.43,-0.43,0.49,-0.48,1.67,1.75,1.75
273.87,2.10,0.34,2.15,0.38,-0.38,0.50,-0.45,1.72,1.77,1.76
276.61,2.10,0.31,2.11,0.32,-0.32,0.51,-0.41,1.78,1.79,1.79
279.38,2.10,0.29,2.08,0.27,-0.27,0.52,-0.38,1.83,1.81,1.81
282.17,2.10,0.27,2.05,0.22,-0.22,0.53,-0.34,1.88,1.84,1.83
284.99,2.10,0.24,2.03,0.17,-0.17,0.54,-0.30,1.94,1.86,1.86
287.84,2.10,0.22,2.00,0.11,-0.11,0.55,-0.26,1.99,1.89,1.88
290.72,2.03,0.11,1.99,0.07,-0.07,0.57,-0.22,1.96,1.91,1.92
293.63,1.90,-0.04,1.98,0.04,-0.04,0.58,-0.18,1.86,1.94,1.94
296.57,1.88,-0.08,1.97,0.01,-0.01,0.59,-0.14,1.87,1.96,1.97
299.53,1.88,-0.11,1.95,-0.04,0.04,0.60,-0.09,1.92,1.99,1.99
302.53,1.88,-0.13,1.92,-0.09,0.09,0.62,-0.05,1.97,2.01,2.01
305.55,1.88,-0.16,1.89,-0.13,0.13,0.63,-0.00,2.01,2.03,2.04
308.61,1.88,-0.18,1.87,-0.18,0.18,0.64,0.04,2.06,2.04,2.06
311.69,1.88,-0.19,1.84,-0.22,0.22,0.66,0.09,2.10,2.06,2.07
314.81,1.88,-0.22,1.82,-0.25,0.25,0.67,0.14,2.13,2.07,2.10
317.96,1.88,-0.21,1.80,-0.28,0.28,0.69,0.18,2.16,2.08,2.10
321.14,1.87,-0.22,1.78,-0.31,0.31,0.70,0.23,2.18,2.09,2.09
324.35,1.70,-0.40,1.76,-0.34,0.34,0.72,0.28,2.04,2.10,2.10
327.59,1.65,-0.45,1.74,-0.37,0.37,0.74,0.33,2.02,2.11,2.10
330.87,1.65,-0.46,1.71,-0.41,0.41,0.75,0.38,2.06,2.12,2.11
334.18,1.65,-0.47,1.68,-0.45,0.45,0.77,0.43,2.10,2.13,2.12
337.52,1.65,-0.47,1.65,-0.49,0.49,0.79,0.49,2.14,2.14,2.13
340.90,1.65,-0.50,1.62,-0.54,0.54,0.80,0.54,2.19,2.15,2.15
344.30,1.65,-0.51,1.58,-0.59,0.59,0.82,0.59,2.24,2.17,2.16
347.75,1.59,-0.59,1.54,-0.65,0.65,0.84,0.64,2.24,2.18,2.18
351.23,1.46,-0.74,1.50,-0.70,0.70,0.86,0.70,2.16,2.20,2.20
354.74,1.42,-0.80,1.46,-0.76,0.76,0.88,0.75,2.18,2.23,2.22
358.28,1.42,-0.83,1.43,-0.82,0.82,0.90,0.81,2.24,2.25,2.25
361.87,1.42,-0.85,1.40,-0.87,0.87,0.92,0.86,2.29,2.27,2.27
365.49,1.42,-0.87,1.38,-0.92,0.92,0.94,0.92,2.34,2.29,2.29
369.14,1.40,-0.91,1.34,-0.97,0.97,0.96,0.97,2.37,2.31,2.31
372.83,1.25,-1.09,1.31,-1.03,1.03,0.98,1.03,2.28,2.34,2.34
376.56,1.19,-1.17,1.27,-1.08,1.08,1.00,1.09,2.27,2.36,2.36
380.33,1.19,-1.20,1.24,-1.13,1.13,1.02,1.15,2.33,2.37,2.39
384.13,1.19,-1.21,1.21,-1.18,1.18,1.05,1.20,2.38,2.39,2.40
387.97,1.19,-1.22,1.18,-1.23,1.23,1.07,1.26,2.42,2.41,2.41
391.85,1.19,-1.23,1.16,-1.26,1.26,1.09,1.32,2.45,2.42,2.42
395.77,1.19,-1.24,1.14,-1.30,1.30,1.12,1.38,2.49,2.43,2.43
399.73,1.19,-1.25,1.11,-1.33,1.33,1.14,1.44,2.52,2.44,2.44
403.72,1.11,-1.34,1.08,-1.37,1.37,1.17,1.50,2.48,2.45,2.45
407.76,0.99,-1.46,1.05,-1.40,1.40,1.20,1.56,2.39,2.45,2.46
411.84,0.96,-1.50,1.03,-1.43,1.43,1.22,1.62,2.39,2.46,2.46
415.96,0.96,-1.51,1.00,-1.46,1.46,1.25,1.68,2.42,2.46,2.47
420.12,0.96,-1.51,0.97,-1.49,1.49,1.28,1.74,2.46,2.47,2.47
424.32,0.96,-1.51,0.94,-1.53,1.53,1.31,1.80,2.49,2.47,2.47
428.56,0.96,-1.51,0.92,-1.55,1.55,1.34,1.85,2.52,2.47,2.47
432.85,0.96,-1.51,0.89,-1.59,1.59,1.37,1.91,2.55,2.47,2.47
437.18,0.86,-1.62,0.86,-1.62,1.62,1.40,1.97,2.48,2.48,2.48
441.55,0.77,-1.71,0.82,-1.66,1.66,1.43,2.02,2.43,2.48,2.49
445.96,0.74,-1.74,0.79,-1.69,1.69,1.46,2.08,2.44,2.49,2.48
450.42,0.74,-1.75,0.77,-1.73,1.73,1.49,2.13,2.47,2.50,2.49
454.93,0.74,-1.76,0.74,-1.77,1.77,1.53,2.18,2.51,2.51,2.50
459.48,0.74,-1.77,0.71,-1.81,1.81,1.56,2.23,2.55,2.52,2.51
464.07,0.74,-1.79,0.67,-1.86,1.86,1.60,2.28,2.60,2.53,2.53
468.71,0.74,-1.81,0.64,-1.91,1.91,1.63,2.32,2.65,2.55,2.55
473.40,0.60,-1.96,0.62,-1.95,1.95,1.67,2.36,2.55,2.57,2.56
478.13,0.52,-2.07,0.60,-1.99,1.99,1.70,2.40,2.51,2.59,2.59
482.91,0.51,-2.10,0.58,-2.03,2.03,1.74,2.44,2.54,2.61,2.61
487.74,0.51,-2.13,0.57,-2.07,2.07,1.78,2.48,2.58,2.64,2.64
492.62,0.51,-2.16,0.54,-2.12,2.12,1.82,2.51,2.63,2.66,2.67
497.55,0.51,-2.17,0.52,-2.17,2.17,1.86,2.54,2.68,2.69,2.69
502.52,0.51,-2.20,0.49,-2.23,2.23,1.90,2.56,2.74,2.71,2.71
507.55,0.51,-2.22,0.46,-2.28,2.28,1.94,2.59,2.79,2.74,2.73
512.62,0.51,-2.25,0.43,-2.33,2.33,1.99,2.61,2.84,2.76,2.76
517.75,0.51,-2.27,0.42,-2.37,2.37,2.03,2.63,2.88,2.78,2.78
522.93,0.45,-2.36,0.41,-2.40,2.40,2.08,2.64,2.85,2.80,2.81
528.16,0.31,-2.51,0.39,-2.43,2.43,2.12,2.66,2.74,2.82,2.82
533.44,0.28,-2.56,0.37,-2.46,2.46,2.17,2.67,2.74,2.84,2.84
538.77,0.28,-2.58,0.35,-2.51,2.51,2.21,2.68,2.79,2.85,2.86
544.16,0.28,-2.59,0.32,-2.55,2.55,2.26,2.69,2.83,2.87,2.87
549.60,0.28,-2.61,0.29,-2.59,2.59,2.31,2.70,2.87,2.88,2.89
555.10,0.28,-2.61,0.27,-2.62,2.62,2.36,2.70,2.90,2.89,2.89
