frequency,raw,error,smoothed,error_smoothed,equalization,parametric_eq,fixed_band_eq,equalized_raw,equalized_smoothed,target
20.00,6.22,-0.73,6.21,-0.74,0.70,-0.39,-1.15,6.92,6.91,6.95
20.20,6.48,-0.51,6.49,-0.50,0.49,-0.45,-1.18,6.97,6.98,6.99
20.40,6.75,-0.27,6.75,-0.27,0.28,-0.52,-1.22,7.04,7.04,7.03
20.61,7.01,-0.05,7.01,-0.05,0.07,-0.59,-1.25,7.08,7.09,7.05
20.81,7.27,0.18,7.27,0.18,-0.14,-0.66,-1.29,7.13,7.13,7.10
21.02,7.53,0.40,7.52,0.39,-0.35,-0.73,-1.33,7.18,7.16,7.13
21.23,7.74,0.60,7.74,0.59,-0.57,-0.81,-1.37,7.17,7.17,7.14
21.44,7.95,0.79,7.96,0.79,-0.79,-0.89,-1.41,7.16,7.17,7.17
21.66,8.17,0.98,8.16,0.98,-1.01,-0.98,-1.46,7.16,7.16,7.18
21.87,8.38,1.19,8.39,1.19,-1.23,-1.07,-1.50,7.15,7.15,7.19
22.09,8.61,1.41,8.62,1.42,-1.46,-1.16,-1.54,7.15,7.16,7.20
22.31,8.87,1.67,8.87,1.66,-1.69,-1.26,-1.59,7.18,7.18,7.20
22.54,9.13,1.91,9.14,1.93,-1.92,-1.36,-1.64,7.21,7.22,7.21
22.76,9.40,2.18,9.40,2.18,-2.13,-1.46,-1.69,7.27,7.27,7.22
22.99,9.66,2.44,9.63,2.40,-2.34,-1.58,-1.74,7.32,7.29,7.22
23.22,9.81,2.58,9.82,2.58,-2.53,-1.69,-1.79,7.28,7.28,7.23
23.45,9.96,2.72,9.97,2.73,-2.72,-1.82,-1.84,7.25,7.25,7.24
23.69,10.11,2.85,10.11,2.86,-2.88,-1.95,-1.89,7.23,7.23,7.25
23.92,10.26,3.00,10.27,3.00,-3.04,-2.08,-1.95,7.23,7.23,7.26
24.16,10.42,3.15,10.42,3.15,-3.18,-2.23,-2.00,7.24,7.24,7.27
24.40,10.58,3.30,10.58,3.30,-3.32,-2.37,-2.06,7.26,7.26,7.28
24.65,10.73,3.45,10.74,3.46,-3.46,-2.53,-2.11,7.27,7.28,7.27
24.89,10.89,3.62,10.88,3.61,-3.59,-2.68,-2.17,7.30,7.29,7.27
25.14,11.01,3.74,11.00,3.73,-3.71,-2.84,-2.22,7.30,7.29,7.27
25.39,11.10,3.83,11.11,3.84,-3.83,-3.01,-2.28,7.28,7.29,7.27
25.65,11.19,3.92,11.20,3.93,-3.92,-3.17,-2.34,7.27,7.28,7.27
25.91,11.28,4.02,11.27,4.00,-4.00,-3.34,-2.39,7.28,7.27,7.26
26.16,11.33,4.07,11.33,4.07,-4.06,-3.50,-2.45,7.27,7.27,7.26
26.43,11.37,4.11,11.38,4.11,-4.12,-3.65,-2.50,7.25,7.26,7.26
26.69,11.41,4.15,11.41,4.14,-4.16,-3.80,-2.56,7.26,7.25,7.26
26.96,11.44,4.18,11.44,4.17,-4.19,-3.93,-2.61,7.26,7.25,7.26
27.23,11.45,4.19,11.45,4.19,-4.20,-4.04,-2.66,7.25,7.25,7.26
27.50,11.46,4.20,11.47,4.20,-4.21,-4.14,-2.71,7.25,7.26,7.26
27.77,11.46,4.21,11.46,4.20,-4.20,-4.21,-2.76,7.26,7.26,7.25
28.05,11.45,4.20,11.43,4.19,-4.17,-4.25,-2.80,7.28,7.27,7.25
28.33,11.38,4.15,11.39,4.14,-4.12,-4.27,-2.85,7.26,7.27,7.23
28.62,11.31,4.07,11.32,4.08,-4.05,-4.26,-2.88,7.26,7.27,7.24
28.90,11.24,4.00,11.23,3.99,-3.97,-4.22,-2.92,7.27,7.26,7.24
29.19,11.14,3.91,11.13,3.89,-3.89,-4.16,-2.95,7.25,7.24,7.23
29.48,11.01,3.76,11.01,3.77,-3.80,-4.07,-2.98,7.21,7.21,7.24
29.78,10.88,3.64,10.89,3.65,-3.71,-3.96,-3.00,7.17,7.18,7.24
30.08,10.78,3.54,10.79,3.55,-3.61,-3.84,-3.02,7.17,7.18,7.24
30.38,10.72,3.50,10.73,3.50,-3.51,-3.70,-3.03,7.21,7.22,7.23
30.68,10.67,3.45,10.67,3.45,-3.40,-3.56,-3.04,7.27,7.27,7.22
30.99,10.61,3.40,10.58,3.36,-3.28,-3.41,-3.04,7.33,7.29,7.21
31.30,10.43,3.22,10.43,3.21,-3.17,-3.25,-3.04,7.26,7.26,7.21
31.61,10.24,3.03,10.25,3.04,-3.05,-3.10,-3.04,7.20,7.20,7.21
31.93,10.04,2.85,10.06,2.86,-2.91,-2.95,-3.02,7.13,7.15,7.20
32.24,9.91,2.72,9.92,2.73,-2.76,-2.80,-3.01,7.15,7.16,7.18
32.57,9.80,2.62,9.80,2.61,-2.61,-2.65,-2.99,7.19,7.19,7.18
32.89,9.69,2.50,9.68,2.49,-2.46,-2.52,-2.96,7.23,7.21,7.18
33.22,9.54,2.36,9.53,2.35,-2.33,-2.38,-2.93,7.21,7.20,7.18
33.55,9.38,2.20,9.38,2.20,-2.21,-2.25,-2.89,7.16,7.16,7.17
33.89,9.22,2.05,9.24,2.06,-2.11,-2.13,-2.85,7.11,7.13,7.17
34.23,9.13,1.96,9.14,1.97,-2.01,-2.02,-2.81,7.12,7.13,7.17
34.57,9.08,1.92,9.07,1.91,-1.91,-1.91,-2.77,7.17,7.16,7.16
34.92,9.02,1.87,9.01,1.85,-1.82,-1.81,-2.72,7.20,7.19,7.15
35.27,8.93,1.78,8.93,1.78,-1.74,-1.71,-2.66,7.19,7.18,7.15
35.62,8.82,1.68,8.83,1.68,-1.67,-1.62,-2.61,7.15,7.16,7.14
35.97,8.72,1.58,8.73,1.59,-1.59,-1.54,-2.55,7.13,7.13,7.13
36.33,8.64,1.51,8.64,1.51,-1.52,-1.46,-2.49,7.12,7.12,7.13
36.70,8.56,1.43,8.56,1.43,-1.43,-1.39,-2.43,7.13,7.13,7.13
37.06,8.48,1.36,8.48,1.35,-1.34,-1.32,-2.37,7.14,7.13,7.11
37.43,8.39,1.27,8.39,1.28,-1.26,-1.25,-2.31,7.13,7.13,7.11
37.81,8.30,1.20,8.30,1.20,-1.19,-1.19,-2.25,7.11,7.11,7.10
38.19,8.22,1.13,8.21,1.11,-1.13,-1.13,-2.19,7.09,7.08,7.09
38.57,8.13,1.04,8.13,1.03,-1.08,-1.08,-2.12,7.06,7.05,7.09
38.95,8.04,0.96,8.07,0.99,-1.02,-1.03,-2.06,7.02,7.04,7.08
39.34,8.03,0.96,8.04,0.96,-0.97,-0.98,-2.00,7.06,7.07,7.07
39.74,8.03,0.98,8.02,0.95,-0.92,-0.94,-1.93,7.11,7.10,7.05
40.14,8.00,0.94,7.98,0.92,-0.87,-0.90,-1.87,7.13,7.11,7.06
40.54,7.91,0.86,7.91,0.86,-0.82,-0.86,-1.81,7.09,7.09,7.05
40.94,7.81,0.76,7.82,0.77,-0.78,-0.82,-1.74,7.03,7.04,7.05
41.35,7.74,0.71,7.74,0.70,-0.73,-0.78,-1.68,7.01,7.00,7.03
41.76,7.67,0.66,7.67,0.65,-0.68,-0.75,-1.62,6.99,6.99,7.01
42.18,7.62,0.62,7.63,0.63,-0.63,-0.71,-1.56,6.99,7.00,7.00
42.60,7.59,0.62,7.59,0.61,-0.59,-0.68,-1.50,7.00,7.00,6.97
43.03,7.56,0.60,7.53,0.58,-0.56,-0.65,-1.45,7.00,6.97,6.96
43.46,7.47,0.54,7.47,0.54,-0.55,-0.63,-1.39,6.92,6.92,6.93
43.90,7.37,0.49,7.40,0.51,-0.54,-0.60,-1.33,6.83,6.86,6.89
44.33,7.35,0.50,7.36,0.50,-0.53,-0.57,-1.28,6.82,6.82,6.85
44.78,7.35,0.53,7.34,0.52,-0.52,-0.54,-1.23,6.83,6.82,6.82
45.23,7.33,0.54,7.33,0.54,-0.51,-0.52,-1.17,6.82,6.82,6.80
45.68,7.30,0.54,7.30,0.53,-0.50,-0.49,-1.12,6.80,6.80,6.76
46.13,7.26,0.52,7.25,0.50,-0.48,-0.47,-1.07,6.78,6.77,6.74
46.60,7.18,0.45,7.19,0.46,-0.45,-0.44,-1.02,6.73,6.74,6.73
47.06,7.12,0.41,7.14,0.42,-0.42,-0.42,-0.97,6.70,6.72,6.71
47.53,7.09,0.38,7.09,0.38,-0.38,-0.40,-0.92,6.71,6.71,6.71
48.01,7.07,0.36,7.04,0.33,-0.34,-0.37,-0.88,6.73,6.70,6.71
48.49,6.98,0.29,6.98,0.28,-0.30,-0.35,-0.83,6.68,6.68,6.69
48.97,6.89,0.21,6.93,0.24,-0.26,-0.32,-0.79,6.63,6.66,6.68
49.46,6.89,0.22,6.89,0.21,-0.22,-0.30,-0.74,6.67,6.67,6.67
49.96,6.89,0.22,6.88,0.20,-0.18,-0.28,-0.70,6.71,6.70,6.67
50.46,6.87,0.19,6.88,0.19,-0.14,-0.26,-0.66,6.73,6.73,6.68
50.96,6.85,0.16,6.82,0.14,-0.12,-0.24,-0.62,6.74,6.71,6.69
51.47,6.76,0.08,6.76,0.07,-0.09,-0.22,-0.58,6.67,6.66,6.68
51.99,6.66,-0.00,6.70,0.03,-0.07,-0.21,-0.54,6.59,6.62,6.66
52.51,6.66,0.01,6.66,0.01,-0.06,-0.20,-0.50,6.61,6.60,6.65
53.03,6.66,0.04,6.66,0.04,-0.04,-0.19,-0.46,6.62,6.62,6.62
53.56,6.66,0.07,6.66,0.06,-0.02,-0.19,-0.43,6.64,6.63,6.59
54.10,6.64,0.09,6.60,0.05,-0.01,-0.19,-0.40,6.63,6.59,6.56
54.64,6.51,0.01,6.53,0.03,-0.00,-0.19,-0.36,6.51,6.53,6.51
55.18,6.43,-0.02,6.47,0.01,-0.00,-0.20,-0.33,6.43,6.47,6.45
55.74,6.43,0.03,6.40,-0.01,-0.00,-0.21,-0.30,6.43,6.40,6.41
56.29,6.37,0.02,6.34,-0.01,-0.01,-0.21,-0.27,6.36,6.33,6.35
56.86,6.24,-0.05,6.28,-0.01,-0.02,-0.22,-0.25,6.22,6.26,6.30
57.42,6.21,-0.01,6.22,-0.01,-0.04,-0.23,-0.22,6.17,6.19,6.22
58.00,6.21,0.05,6.20,0.03,-0.06,-0.25,-0.20,6.15,6.14,6.16
58.58,6.21,0.11,6.22,0.11,-0.08,-0.26,-0.17,6.13,6.13,6.10
59.16,6.21,0.16,6.22,0.17,-0.11,-0.27,-0.15,6.10,6.11,6.05
59.76,6.21,0.22,6.18,0.19,-0.14,-0.28,-0.13,6.07,6.04,6.00
60.35,6.13,0.21,6.11,0.18,-0.17,-0.29,-0.12,5.96,5.94,5.92
60.96,5.99,0.12,6.04,0.17,-0.20,-0.29,-0.10,5.79,5.84,5.88
61.57,5.98,0.18,5.98,0.18,-0.23,-0.30,-0.09,5.75,5.76,5.81
62.18,5.98,0.25,5.97,0.22,-0.26,-0.31,-0.07,5.72,5.71,5.73
62.80,5.98,0.29,5.98,0.29,-0.29,-0.32,-0.06,5.69,5.69,5.69
63.43,5.98,0.35,5.98,0.34,-0.33,-0.33,-0.06,5.65,5.65,5.63
64.07,5.98,0.39,5.98,0.39,-0.38,-0.33,-0.05,5.60,5.60,5.60
64.71,5.98,0.44,5.98,0.44,-0.43,-0.34,-0.04,5.56,5.56,5.55
65.35,5.98,0.49,5.98,0.48,-0.47,-0.35,-0.04,5.51,5.51,5.49
66.01,5.98,0.52,5.98,0.52,-0.52,-0.35,-0.04,5.46,5.46,5.46
66.67,5.98,0.56,5.98,0.55,-0.55,-0.36,-0.04,5.43,5.43,5.42
67.33,5.98,0.59,5.98,0.58,-0.59,-0.36,-0.04,5.39,5.39,5.39
68.01,5.98,0.62,5.98,0.62,-0.62,-0.37,-0.04,5.36,5.36,5.36
68.69,5.98,0.65,5.98,0.65,-0.65,-0.38,-0.04,5.33,5.33,5.33
69.37,5.98,0.69,5.98,0.68,-0.68,-0.38,-0.05,5.30,5.30,5.29
70.07,5.98,0.72,5.98,0.71,-0.71,-0.39,-0.05,5.27,5.27,5.26
70.77,5.98,0.73,5.98,0.74,-0.74,-0.39,-0.06,5.24,5.24,5.25
71.48,5.98,0.77,5.98,0.76,-0.77,-0.40,-0.07,5.22,5.22,5.21
72.19,5.98,0.79,5.98,0.79,-0.80,-0.40,-0.08,5.18,5.18,5.19
72.91,5.98,0.83,5.98,0.82,-0.83,-0.41,-0.09,5.15,5.15,5.15
73.64,5.98,0.86,5.98,0.85,-0.87,-0.41,-0.10,5.11,5.11,5.12
74.38,5.98,0.89,5.98,0.89,-0.90,-0.42,-0.11,5.08,5.08,5.09
75.12,5.98,0.92,5.98,0.92,-0.92,-0.42,-0.12,5.06,5.06,5.06
75.87,5.98,0.95,5.99,0.95,-0.93,-0.43,-0.14,5.05,5.06,5.03
76.63,5.98,0.98,5.98,0.98,-0.93,-0.43,-0.15,5.05,5.05,5.00
77.40,5.96,0.99,5.94,0.96,-0.92,-0.44,-0.16,5.04,5.01,4.97
78.17,5.89,0.95,5.87,0.92,-0.92,-0.45,-0.18,4.97,4.95,4.94
78.95,5.76,0.83,5.80,0.87,-0.91,-0.45,-0.19,4.85,4.89,4.93
79.74,5.75,0.84,5.75,0.84,-0.90,-0.46,-0.21,4.85,4.85,4.91
80.54,5.75,0.86,5.74,0.84,-0.89,-0.46,-0.23,4.86,4.85,4.89
81.35,5.75,0.88,5.75,0.87,-0.87,-0.47,-0.24,4.88,4.88,4.87
82.16,5.75,0.88,5.76,0.89,-0.84,-0.47,-0.26,4.91,4.92,4.87
82.98,5.75,0.88,5.75,0.88,-0.82,-0.48,-0.28,4.94,4.94,4.87
83.81,5.75,0.89,5.70,0.83,-0.79,-0.49,-0.30,4.96,4.91,4.86
84.65,5.60,0.75,5.62,0.76,-0.76,-0.49,-0.31,4.84,4.86,4.85
85.50,5.52,0.66,5.55,0.69,-0.73,-0.50,-0.33,4.79,4.82,4.86
86.35,5.52,0.66,5.51,0.65,-0.71,-0.50,-0.35,4.81,4.80,4.86
87.22,5.52,0.66,5.51,0.65,-0.68,-0.51,-0.37,4.84,4.83,4.86
88.09,5.52,0.66,5.52,0.65,-0.66,-0.52,-0.39,4.86,4.86,4.86
88.97,5.52,0.64,5.52,0.64,-0.64,-0.52,-0.41,4.88,4.88,4.88
89.86,5.52,0.64,5.53,0.65,-0.62,-0.53,-0.43,4.90,4.91,4.88
90.76,5.52,0.66,5.53,0.65,-0.60,-0.54,-0.45,4.92,4.92,4.86
91.66,5.52,0.65,5.49,0.63,-0.59,-0.54,-0.47,4.93,4.91,4.87
92.58,5.44,0.60,5.43,0.58,-0.57,-0.55,-0.49,4.87,4.86,4.84
93.51,5.34,0.49,5.36,0.51,-0.55,-0.56,-0.51,4.79,4.81,4.85
94.44,5.29,0.46,5.30,0.47,-0.53,-0.56,-0.53,4.77,4.78,4.83
95.39,5.29,0.47,5.29,0.47,-0.50,-0.57,-0.55,4.79,4.79,4.82
96.34,5.29,0.51,5.30,0.50,-0.47,-0.58,-0.57,4.82,4.83,4.78
97.30,5.29,0.53,5.27,0.50,-0.45,-0.59,-0.59,4.84,4.82,4.76
98.28,5.24,0.50,5.21,0.47,-0.45,-0.59,-0.61,4.79,4.76,4.74
99.26,5.10,0.39,5.14,0.42,-0.45,-0.60,-0.64,4.65,4.69,4.71
100.25,5.07,0.39,5.08,0.40,-0.45,-0.61,-0.66,4.62,4.64,4.68
101.25,5.07,0.42,5.06,0.41,-0.44,-0.62,-0.68,4.63,4.62,4.65
102.27,5.07,0.46,5.08,0.46,-0.43,-0.62,-0.70,4.64,4.64,4.61
103.29,5.07,0.51,5.05,0.48,-0.43,-0.63,-0.72,4.64,4.62,4.56
104.32,5.02,0.50,4.99,0.47,-0.45,-0.64,-0.74,4.57,4.54,4.52
105.37,4.90,0.43,4.92,0.45,-0.47,-0.65,-0.76,4.43,4.45,4.48
106.42,4.84,0.42,4.86,0.44,-0.50,-0.65,-0.79,4.34,4.36,4.42
107.48,4.84,0.49,4.83,0.48,-0.52,-0.66,-0.81,4.32,4.31,4.35
108.56,4.84,0.57,4.85,0.57,-0.54,-0.67,-0.83,4.30,4.31,4.27
109.64,4.84,0.64,4.83,0.62,-0.56,-0.68,-0.84,4.28,4.27,4.20
110.74,4.83,0.69,4.77,0.63,-0.60,-0.68,-0.86,4.23,4.17,4.14
111.85,4.64,0.57,4.69,0.63,-0.65,-0.69,-0.88,3.99,4.05,4.07
112.97,4.61,0.63,4.63,0.63,-0.69,-0.70,-0.90,3.92,3.94,3.99
114.10,4.61,0.69,4.60,0.68,-0.73,-0.71,-0.91,3.89,3.87,3.93
115.24,4.61,0.77,4.62,0.78,-0.75,-0.71,-0.93,3.86,3.87,3.85
116.39,4.61,0.85,4.61,0.84,-0.78,-0.72,-0.94,3.83,3.83,3.76
117.55,4.60,0.90,4.55,0.85,-0.81,-0.73,-0.96,3.79,3.74,3.70
118.73,4.44,0.81,4.47,0.83,-0.84,-0.74,-0.97,3.60,3.64,3.63
119.92,4.38,0.79,4.41,0.82,-0.86,-0.75,-0.98,3.52,3.55,3.59
121.12,4.38,0.85,4.37,0.83,-0.87,-0.75,-0.99,3.51,3.50,3.54
122.33,4.38,0.89,4.39,0.89,-0.87,-0.76,-0.99,3.51,3.52,3.49
123.55,4.38,0.91,4.38,0.91,-0.87,-0.77,-1.00,3.51,3.51,3.47
124.79,4.38,0.95,4.33,0.90,-0.87,-0.78,-1.00,3.51,3.46,3.43
126.03,4.23,0.84,4.26,0.86,-0.87,-0.78,-1.01,3.36,3.39,3.39
127.29,4.18,0.82,4.20,0.84,-0.88,-0.79,-1.01,3.30,3.32,3.36
128.57,4.16,0.84,4.16,0.83,-0.87,-0.80,-1.01,3.29,3.28,3.32
129.85,4.16,0.87,4.17,0.87,-0.86,-0.81,-1.01,3.30,3.31,3.29
131.15,4.16,0.90,4.16,0.89,-0.85,-0.81,-1.01,3.32,3.32,3.26
132.46,4.16,0.93,4.11,0.88,-0.84,-0.82,-1.00,3.32,3.27,3.23
133.79,4.02,0.82,4.04,0.84,-0.85,-0.83,-1.00,3.17,3.19,3.20
135.12,3.93,0.78,3.97,0.80,-0.85,-0.83,-0.99,3.08,3.12,3.15
136.48,3.93,0.81,3.92,0.80,-0.85,-0.84,-0.99,3.08,3.07,3.12
137.84,3.93,0.84,3.93,0.85,-0.85,-0.85,-0.98,3.08,3.08,3.09
139.22,3.93,0.89,3.93,0.89,-0.84,-0.85,-0.97,3.09,3.09,3.04
140.61,3.93,0.94,3.89,0.89,-0.84,-0.86,-0.96,3.09,3.05,2.99
142.02,3.82,0.85,3.83,0.86,-0.84,-0.86,-0.95,2.98,2.99,2.97
143.44,3.73,0.80,3.76,0.83,-0.83,-0.87,-0.94,2.90,2.93,2.93
144.87,3.70,0.81,3.71,0.82,-0.83,-0.87,-0.93,2.87,2.89,2.89
146.32,3.70,0.86,3.68,0.83,-0.83,-0.88,-0.92,2.87,2.85,2.84
147.78,3.65,0.85,3.62,0.83,-0.83,-0.88,-0.90,2.82,2.79,2.80
149.26,3.53,0.80,3.55,0.82,-0.85,-0.89,-0.89,2.68,2.70,2.73
150.75,3.47,0.82,3.49,0.83,-0.88,-0.89,-0.88,2.59,2.61,2.65
152.26,3.47,0.89,3.46,0.88,-0.92,-0.90,-0.87,2.55,2.55,2.58
153.78,3.47,0.96,3.48,0.97,-0.96,-0.90,-0.86,2.51,2.52,2.51
155.32,3.47,1.06,3.46,1.04,-0.99,-0.91,-0.85,2.48,2.47,2.41
156.88,3.45,1.11,3.40,1.06,-1.02,-0.91,-0.84,2.43,2.39,2.35
158.44,3.30,1.03,3.35,1.08,-1.04,-0.91,-0.83,2.26,2.31,2.27
160.03,3.24,1.05,3.27,1.07,-1.05,-0.91,-0.82,2.19,2.22,2.19
161.63,3.24,1.11,3.18,1.04,-1.06,-0.92,-0.81,2.19,2.12,2.13
163.24,3.10,1.02,3.11,1.03,-1.05,-0.92,-0.80,2.05,2.06,2.08
164.88,3.02,0.98,3.05,1.01,-1.04,-0.92,-0.79,1.98,2.01,2.04
166.53,3.02,1.02,3.01,1.01,-1.04,-0.92,-0.78,1.98,1.97,2.00
168.19,3.02,1.05,3.01,1.03,-1.05,-0.92,-0.77,1.97,1.97,1.97
169.87,3.02,1.06,3.02,1.06,-1.05,-0.92,-0.76,1.97,1.97,1.96
171.57,3.02,1.07,3.02,1.06,-1.06,-0.92,-0.76,1.96,1.96,1.95
173.29,3.02,1.07,3.02,1.06,-1.05,-0.92,-0.75,1.97,1.97,1.95
175.02,3.02,1.05,3.03,1.06,-1.04,-0.92,-0.75,1.98,1.99,1.97
176.77,3.02,1.06,3.03,1.06,-1.01,-0.92,-0.74,2.01,2.02,1.96
178.54,3.02,1.05,2.99,1.02,-0.98,-0.92,-0.74,2.04,2.02,1.97
180.32,2.94,0.96,2.93,0.95,-0.94,-0.92,-0.73,2.00,1.99,1.98
182.13,2.84,0.86,2.86,0.87,-0.91,-0.91,-0.73,1.93,1.95,1.98
183.95,2.79,0.81,2.80,0.82,-0.89,-0.91,-0.73,1.90,1.91,1.98
185.79,2.79,0.82,2.78,0.81,-0.87,-0.91,-0.73,1.92,1.91,1.97
187.65,2.79,0.84,2.79,0.83,-0.85,-0.90,-0.73,1.94,1.94,1.95
189.52,2.79,0.86,2.80,0.87,-0.83,-0.90,-0.73,1.97,1.97,1.93
191.42,2.79,0.88,2.80,0.88,-0.81,-0.89,-0.73,1.98,1.98,1.91
193.33,2.79,0.90,2.76,0.85,-0.80,-0.89,-0.73,1.99,1.96,1.89
195.27,2.69,0.80,2.69,0.80,-0.79,-0.88,-0.73,1.90,1.90,1.89
197.22,2.59,0.72,2.62,0.75,-0.78,-0.87,-0.73,1.81,1.84,1.87
199.19,2.56,0.73,2.57,0.72,-0.77,-0.86,-0.73,1.79,1.80,1.83
201.18,2.56,0.73,2.55,0.73,-0.76,-0.85,-0.73,1.80,1.79,1.83
203.19,2.56,0.75,2.56,0.75,-0.76,-0.85,-0.73,1.80,1.79,1.81
205.23,2.56,0.78,2.56,0.76,-0.77,-0.84,-0.73,1.79,1.79,1.78
207.28,2.56,0.78,2.56,0.78,-0.78,-0.83,-0.74,1.78,1.78,1.78
209.35,2.56,0.80,2.56,0.80,-0.78,-0.81,-0.74,1.78,1.78,1.76
211.44,2.56,0.83,2.58,0.83,-0.78,-0.80,-0.74,1.78,1.80,1.73
213.56,2.56,0.83,2.55,0.82,-0.77,-0.79,-0.74,1.79,1.79,1.73
215.69,2.56,0.83,2.49,0.77,-0.75,-0.78,-0.74,1.81,1.74,1.73
217.85,2.35,0.65,2.41,0.70,-0.72,-0.76,-0.74,1.63,1.69,1.70
220.03,2.33,0.64,2.35,0.65,-0.70,-0.75,-0.74,1.63,1.65,1.69
222.23,2.33,0.66,2.31,0.63,-0.68,-0.73,-0.74,1.65,1.63,1.67
224.45,2.33,0.66,2.33,0.65,-0.67,-0.72,-0.74,1.66,1.66,1.67
226.70,2.33,0.66,2.33,0.66,-0.66,-0.70,-0.74,1.67,1.67,1.67
228.96,2.33,0.67,2.33,0.66,-0.66,-0.68,-0.74,1.67,1.67,1.66
231.25,2.33,0.67,2.33,0.67,-0.66,-0.66,-0.73,1.67,1.67,1.66
233.57,2.33,0.68,2.33,0.68,-0.66,-0.65,-0.72,1.67,1.67,1.65
235.90,2.33,0.69,2.34,0.70,-0.66,-0.63,-0.72,1.67,1.69,1.64
238.26,2.33,0.69,2.31,0.67,-0.65,-0.61,-0.71,1.68,1.66,1.64
240.64,2.33,0.69,2.28,0.63,-0.65,-0.59,-0.70,1.68,1.63,1.64
243.05,2.18,0.53,2.26,0.61,-0.65,-0.56,-0.69,1.54,1.62,1.65
245.48,2.27,0.61,2.27,0.60,-0.65,-0.54,-0.67,1.62,1.62,1.66
247.93,2.33,0.66,2.29,0.63,-0.65,-0.52,-0.66,1.68,1.64,1.67
250.41,2.33,0.67,2.34,0.66,-0.65,-0.49,-0.64,1.68,1.69,1.66
252.92,2.33,0.66,2.34,0.65,-0.64,-0.47,-0.62,1.69,1.70,1.67
255.45,2.33,0.63,2.33,0.64,-0.62,-0.44,-0.60,1.71,1.71,1.70
258.00,2.33,0.63,2.35,0.64,-0.60,-0.42,-0.58,1.73,1.75,1.70
260.58,2.33,0.63,2.32,0.61,-0.56,-0.39,-0.55,1.77,1.76,1.70
263.19,2.32,0.60,2.26,0.54,-0.52,-0.36,-0.53,1.80,1.74,1.72
265.82,2.13,0.41,2.18,0.45,-0.47,-0.34,-0.50,1.66,1.72,1.72
268.48,2.10,0.35,2.12,0.37,-0.42,-0.31,-0.47,1.68,1.70,1.75
271.16,2.10,0.34,2.08,0.32,-0.38,-0.28,-0.44,1.72,1.71,1.76
273.87,2.10,0.33,2.10,0.31,-0.34,-0.25,-0.40,1.76,1.76,1.77
276.61,2.10,0.29,2.10,0.30,-0.30,-0.22,-0.37,1.80,1.80,1.81
279.38,2.10,0.28,2.10,0.27,-0.26,-0.19,-0.33,1.84,1.84,1.82
282.17,2.10,0.25,2.11,0.25,-0.22,-0.15,-0.30,1.88,1.89,1.85
284.99,2.10,0.22,2.11,0.23,-0.17,-0.12,-0.26,1.93,1.94,1.88
287.84,2.10,0.20,2.07,0.16,-0.12,-0.09,-0.22,1.98,1.95,1.90
290.72,2.03,0.09,2.01,0.07,-0.06,-0.05,-0.18,1.97,1.95,1.94
293.63,1.90,-0.06,1.94,-0.03,0.00,-0.02,-0.14,1.90,1.94,1.96
296.57,1.88,-0.11,1.89,-0.11,0.06,0.02,-0.10,1.94,1.95,1.99
299.53,1.88,-0.14,1.87,-0.15,0.11,0.05,-0.05,1.99,1.98,2.02
302.53,1.88,-0.15,1.88,-0.17,0.15,0.09,-0.01,2.03,2.03,2.03
305.55,1.88,-0.19,1.88,-0.19,0.18,0.13,0.04,2.06,2.06,2.07
308.61,1.88,-0.21,1.88,-0.21,0.21,0.16,0.08,2.09,2.09,2.09
311.69,1.88,-0.22,1.88,-0.23,0.24,0.20,0.13,2.12,2.12,2.10
314.81,1.88,-0.25,1.90,-0.23,0.27,0.24,0.18,2.15,2.17,2.13
317.96,1.88,-0.25,1.87,-0.26,0.31,0.28,0.22,2.19,2.18,2.13
321.14,1.87,-0.25,1.82,-0.32,0.34,0.32,0.27,2.21,2.16,2.12
324.35,1.70,-0.43,1.74,-0.39,0.38,0.36,0.32,2.08,2.12,2.13
327.59,1.65,-0.49,1.67,-0.47,0.41,0.40,0.37,2.06,2.09,2.14
330.87,1.65,-0.50,1.64,-0.51,0.45,0.44,0.42,2.10,2.09,2.15
334.18,1.65,-0.50,1.65,-0.51,0.49,0.49,0.47,2.14,2.14,2.15
337.52,1.65,-0.51,1.66,-0.52,0.54,0.53,0.52,2.19,2.20,2.16
340.90,1.65,-0.54,1.66,-0.53,0.59,0.57,0.58,2.24,2.25,2.19
344.30,1.65,-0.55,1.63,-0.58,0.63,0.61,0.63,2.28,2.26,2.20
347.75,1.59,-0.62,1.57,-0.66,0.67,0.66,0.68,2.26,2.24,2.21
351.23,1.46,-0.78,1.49,-0.75,0.72,0.70,0.73,2.18,2.21,2.24
354.74,1.42,-0.84,1.43,-0.83,0.77,0.75,0.79,2.19,2.21,2.26
358.28,1.42,-0.87,1.41,-0.88,0.84,0.79,0.84,2.26,2.25,2.29
361.87,1.42,-0.89,1.43,-0.88,0.91,0.84,0.90,2.33,2.34,2.31
365.49,1.42,-0.91,1.41,-0.92,0.99,0.88,0.96,2.41,2.40,2.33
369.14,1.40,-0.95,1.35,-1.00,1.05,0.93,1.01,2.45,2.40,2.35
372.83,1.25,-1.13,1.28,-1.10,1.10,0.97,1.07,2.35,2.38,2.38
376.56,1.19,-1.21,1.22,-1.19,1.14,1.02,1.13,2.34,2.36,2.40
380.33,1.19,-1.24,1.18,-1.25,1.18,1.07,1.18,2.37,2.36,2.43
384.13,1.19,-1.26,1.19,-1.27,1.22,1.11,1.24,2.41,2.41,2.45
387.97,1.19,-1.27,1.19,-1.27,1.27,1.16,1.30,2.46,2.46,2.46
391.85,1.19,-1.27,1.20,-1.27,1.31,1.21,1.36,2.50,2.51,2.46
395.77,1.19,-1.28,1.20,-1.28,1.35,1.26,1.42,2.54,2.54,2.47
399.73,1.19,-1.29,1.16,-1.32,1.38,1.31,1.48,2.57,2.54,2.48
403.72,1.11,-1.38,1.10,-1.40,1.41,1.35,1.54,2.52,2.51,2.49
407.76,0.99,-1.51,1.02,-1.48,1.45,1.40,1.60,2.44,2.47,2.50
411.84,0.96,-1.55,0.97,-1.55,1.48,1.45,1.66,2.44,2.45,2.51
415.96,0.96,-1.56,0.95,-1.57,1.51,1.50,1.72,2.47,2.46,2.52
420.12,0.96,-1.56,0.96,-1.57,1.55,1.55,1.78,2.51,2.51,2.52
424.32,0.96,-1.56,0.97,-1.55,1.59,1.60,1.84,2.55,2.56,2.52
428.56,0.96,-1.56,0.96,-1.56,1.62,1.65,1.90,2.58,2.58,2.52
432.85,0.96,-1.55,0.93,-1.60,1.65,1.70,1.96,2.61,2.57,2.51
437.18,0.86,-1.66,0.86,-1.66,1.67,1.75,2.01,2.53,2.53,2.52
441.55,0.77,-1.76,0.80,-1.73,1.70,1.79,2.07,2.47,2.49,2.53
445.96,0.74,-1.79,0.75,-1.79,1.73,1.84,2.12,2.47,2.47,2.53
450.42,0.74,-1.80,0.73,-1.81,1.77,1.89,2.18,2.51,2.50,2.54
454.93,0.74,-1.81,0.74,-1.82,1.81,1.94,2.23,2.55,2.55,2.55
459.48,0.74,-1.82,0.75,-1.81,1.86,1.99,2.28,2.60,2.61,2.56
464.07,0.74,-1.84,0.74,-1.84,1.91,2.04,2.32,2.65,2.65,2.58
468.71,0.74,-1.86,0.69,-1.91,1.95,2.09,2.37,2.70,2.65,2.60
473.40,0.60,-2.01,0.62,-2.00,2.00,2.14,2.41,2.60,2.62,2.61
478.13,0.52,-2.12,0.55,-2.09,2.06,2.19,2.45,2.58,2.61,2.64
482.91,0.51,-2.15,0.50,-2.16,2.11,2.24,2.49,2.62,2.61,2.66
487.74,0.51,-2.18,0.50,-2.19,2.16,2.28,2.53,2.67,2.66,2.69
492.62,0.51,-2.21,0.51,-2.21,2.20,2.33,2.56,2.71,2.71,2.72
497.55,0.51,-2.23,0.51,-2.24,2.23,2.38,2.59,2.74,2.74,2.74
502.52,0.51,-2.26,0.51,-2.26,2.27,2.43,2.62,2.78,2.78,2.77
507.55,0.51,-2.27,0.52,-2.27,2.30,2.47,2.64,2.81,2.82,2.78
512.62,0.51,-2.30,0.52,-2.29,2.35,2.52,2.66,2.86,2.87,2.81
517.75,0.51,-2.32,0.49,-2.35,2.40,2.57,2.68,2.91,2.88,2.83
522.93,0.45,-2.41,0.42,-2.44,2.45,2.61,2.70,2.90,2.87,2.86
528.16,0.31,-2.56,0.35,-2.53,2.50,2.66,2.71,2.81,2.85,2.87
533.44,0.28,-2.61,0.29,-2.60,2.55,2.70,2.72,2.83,2.84,2.89
538.77,0.28,-2.63,0.27,-2.64,2.59,2.75,2.73,2.87,2.86,2.91
544.16,0.28,-2.64,0.28,-2.65,2.62,2.79,2.74,2.90,2.90,2.92
