frequency,raw,error,smoothed,error_smoothed,equalization,parametric_eq,fixed_band_eq,equalized_raw,equalized_smoothed,target
20.00,13.04,5.48,12.98,5.42,-5.42,-5.47,-2.52,7.62,7.56,7.56
20.20,13.04,5.49,13.01,5.45,-5.45,-5.48,-2.59,7.59,7.56,7.55
20.40,13.04,5.49,13.04,5.49,-5.49,-5.49,-2.66,7.55,7.55,7.55
20.61,13.04,5.49,13.07,5.52,-5.52,-5.50,-2.74,7.52,7.55,7.55
20.81,13.04,5.51,13.09,5.55,-5.55,-5.52,-2.82,7.49,7.54,7.53
21.02,13.04,5.51,13.12,5.58,-5.58,-5.53,-2.90,7.46,7.54,7.53
21.23,13.09,5.56,13.14,5.60,-5.60,-5.54,-2.98,7.49,7.54,7.53
21.44,13.14,5.60,13.16,5.63,-5.63,-5.55,-3.07,7.51,7.54,7.54
21.66,13.19,5.66,13.18,5.65,-5.65,-5.56,-3.16,7.54,7.54,7.53
21.87,13.24,5.70,13.20,5.67,-5.67,-5.57,-3.25,7.57,7.53,7.54
22.09,13.27,5.74,13.22,5.68,-5.68,-5.58,-3.34,7.59,7.53,7.53
22.31,13.27,5.73,13.23,5.70,-5.70,-5.59,-3.44,7.57,7.53,7.54
22.54,13.27,5.74,13.25,5.71,-5.71,-5.60,-3.53,7.56,7.54,7.53
22.76,13.27,5.74,13.26,5.73,-5.73,-5.61,-3.64,7.54,7.54,7.53
22.99,13.27,5.74,13.27,5.74,-5.74,-5.62,-3.74,7.54,7.54,7.53
23.22,13.27,5.74,13.28,5.74,-5.74,-5.64,-3.84,7.53,7.54,7.53
23.45,13.27,5.73,13.29,5.74,-5.74,-5.65,-3.95,7.53,7.54,7.54
23.69,13.27,5.73,13.28,5.74,-5.74,-5.66,-4.06,7.53,7.55,7.54
23.92,13.27,5.73,13.28,5.73,-5.73,-5.67,-4.18,7.54,7.55,7.54
24.16,13.27,5.72,13.28,5.72,-5.72,-5.68,-4.29,7.55,7.55,7.55
24.40,13.27,5.71,13.27,5.72,-5.72,-5.69,-4.41,7.55,7.55,7.56
24.65,13.27,5.71,13.27,5.71,-5.71,-5.70,-4.53,7.56,7.56,7.56
24.89,13.27,5.71,13.27,5.71,-5.71,-5.71,-4.65,7.56,7.56,7.56
25.14,13.27,5.72,13.27,5.71,-5.71,-5.72,-4.77,7.56,7.56,7.55
25.39,13.27,5.71,13.27,5.71,-5.71,-5.73,-4.89,7.56,7.56,7.56
25.65,13.27,5.71,13.27,5.71,-5.71,-5.74,-5.02,7.56,7.56,7.56
25.91,13.27,5.72,13.27,5.71,-5.71,-5.75,-5.14,7.56,7.56,7.55
26.16,13.27,5.71,13.27,5.71,-5.71,-5.76,-5.27,7.56,7.56,7.56
26.43,13.27,5.71,13.26,5.70,-5.70,-5.77,-5.39,7.57,7.56,7.56
26.69,13.27,5.71,13.26,5.70,-5.70,-5.78,-5.52,7.57,7.56,7.56
26.96,13.27,5.73,13.25,5.70,-5.70,-5.79,-5.64,7.57,7.55,7.54
27.23,13.27,5.73,13.26,5.71,-5.71,-5.80,-5.76,7.57,7.55,7.54
27.50,13.27,5.73,13.26,5.71,-5.71,-5.81,-5.88,7.56,7.55,7.54
27.77,13.27,5.72,13.27,5.73,-5.73,-5.82,-6.00,7.54,7.54,7.55
28.05,13.27,5.73,13.29,5.74,-5.74,-5.84,-6.11,7.53,7.54,7.54
28.33,13.27,5.74,13.30,5.77,-5.77,-5.85,-6.22,7.50,7.54,7.53
28.62,13.27,5.75,13.32,5.79,-5.79,-5.86,-6.33,7.48,7.53,7.52
28.90,13.27,5.74,13.34,5.82,-5.82,-5.87,-6.43,7.45,7.52,7.53
29.19,13.31,5.79,13.36,5.85,-5.85,-5.88,-6.52,7.47,7.52,7.52
29.48,13.38,5.88,13.38,5.88,-5.88,-5.89,-6.61,7.51,7.51,7.50
29.78,13.45,5.95,13.41,5.91,-5.91,-5.90,-6.69,7.54,7.50,7.50
30.08,13.50,6.00,13.43,5.94,-5.94,-5.91,-6.77,7.56,7.49,7.50
30.38,13.50,6.02,13.45,5.97,-5.97,-5.92,-6.83,7.53,7.48,7.48
30.68,13.50,6.03,13.47,6.00,-6.00,-5.93,-6.89,7.50,7.47,7.47
30.99,13.50,6.04,13.49,6.03,-6.03,-5.94,-6.94,7.47,7.46,7.46
31.30,13.50,6.05,13.51,6.06,-6.06,-5.95,-6.98,7.44,7.45,7.45
31.61,13.50,6.06,13.53,6.08,-6.08,-5.97,-7.01,7.42,7.45,7.44
31.93,13.50,6.08,13.53,6.09,-6.09,-5.98,-7.03,7.41,7.44,7.42
32.24,13.50,6.07,13.52,6.09,-6.09,-5.99,-7.05,7.41,7.43,7.43
32.57,13.50,6.09,13.51,6.09,-6.09,-6.00,-7.05,7.42,7.42,7.41
32.89,13.50,6.09,13.49,6.07,-6.07,-6.01,-7.05,7.43,7.42,7.41
33.22,13.50,6.09,13.47,6.05,-6.05,-6.02,-7.04,7.45,7.41,7.41
33.55,13.50,6.10,13.45,6.04,-6.04,-6.04,-7.03,7.46,7.41,7.40
33.89,13.50,6.09,13.43,6.02,-6.02,-6.05,-7.00,7.48,7.41,7.41
34.23,13.45,6.06,13.40,6.00,-6.00,-6.06,-6.98,7.45,7.40,7.39
34.57,13.37,5.97,13.38,5.98,-5.98,-6.07,-6.94,7.39,7.40,7.40
34.92,13.29,5.90,13.36,5.97,-5.97,-6.08,-6.91,7.33,7.39,7.39
35.27,13.27,5.87,13.34,5.95,-5.95,-6.10,-6.87,7.32,7.39,7.40
35.62,13.27,5.90,13.32,5.94,-5.94,-6.11,-6.82,7.33,7.38,7.37
35.97,13.27,5.90,13.30,5.93,-5.93,-6.12,-6.78,7.34,7.37,7.37
36.33,13.27,5.91,13.28,5.93,-5.93,-6.13,-6.73,7.34,7.36,7.36
36.70,13.27,5.93,13.27,5.93,-5.93,-6.15,-6.68,7.34,7.34,7.34
37.06,13.27,5.95,13.26,5.94,-5.94,-6.16,-6.63,7.33,7.32,7.32
37.43,13.27,5.96,13.25,5.95,-5.95,-6.17,-6.59,7.32,7.30,7.31
37.81,13.27,5.99,13.25,5.97,-5.97,-6.19,-6.54,7.30,7.28,7.28
38.19,13.27,6.01,13.26,6.00,-6.00,-6.20,-6.49,7.27,7.26,7.26
38.57,13.27,6.03,13.26,6.04,-6.04,-6.21,-6.45,7.24,7.23,7.24
38.95,13.27,6.06,13.27,6.07,-6.07,-6.23,-6.41,7.20,7.20,7.21
39.34,13.27,6.11,13.27,6.10,-6.10,-6.24,-6.37,7.17,7.17,7.16
39.74,13.27,6.14,13.27,6.13,-6.13,-6.26,-6.33,7.15,7.15,7.13
40.14,13.27,6.17,13.27,6.15,-6.15,-6.27,-6.30,7.12,7.12,7.10
40.54,13.27,6.19,13.27,6.19,-6.19,-6.29,-6.27,7.08,7.09,7.08
40.94,13.27,6.23,13.27,6.22,-6.22,-6.30,-6.24,7.05,7.06,7.04
41.35,13.27,6.25,13.28,6.25,-6.25,-6.32,-6.22,7.02,7.03,7.02
41.76,13.27,6.28,13.28,6.28,-6.28,-6.33,-6.20,6.99,7.00,6.99
42.18,13.27,6.30,13.29,6.32,-6.32,-6.35,-6.19,6.95,6.97,6.97
42.60,13.27,6.33,13.29,6.35,-6.35,-6.36,-6.18,6.93,6.94,6.94
43.03,13.27,6.36,13.28,6.37,-6.37,-6.38,-6.17,6.90,6.91,6.91
43.46,13.27,6.39,13.27,6.39,-6.39,-6.39,-6.17,6.89,6.89,6.88
43.90,13.27,6.41,13.26,6.40,-6.40,-6.41,-6.18,6.87,6.86,6.86
44.33,13.27,6.45,13.24,6.41,-6.41,-6.43,-6.18,6.86,6.83,6.82
44.78,13.27,6.48,13.22,6.43,-6.43,-6.44,-6.20,6.85,6.80,6.79
45.23,13.26,6.48,13.20,6.44,-6.44,-6.46,-6.21,6.82,6.77,6.78
45.68,13.23,6.50,13.18,6.45,-6.45,-6.48,-6.24,6.78,6.73,6.73
46.13,13.19,6.50,13.16,6.46,-6.46,-6.50,-6.26,6.73,6.70,6.69
46.60,13.11,6.45,13.14,6.48,-6.48,-6.51,-6.29,6.63,6.66,6.66
47.06,13.04,6.41,13.12,6.49,-6.49,-6.53,-6.33,6.55,6.62,6.63
47.53,13.04,6.44,13.10,6.51,-6.51,-6.55,-6.37,6.53,6.59,6.60
48.01,13.04,6.50,13.08,6.54,-6.54,-6.57,-6.41,6.50,6.55,6.54
48.49,13.04,6.54,13.07,6.57,-6.57,-6.59,-6.46,6.47,6.51,6.50
48.97,13.04,6.58,13.06,6.60,-6.60,-6.61,-6.51,6.44,6.47,6.46
49.46,13.04,6.62,13.05,6.63,-6.63,-6.63,-6.56,6.41,6.42,6.42
49.96,13.04,6.68,13.04,6.66,-6.66,-6.65,-6.62,6.39,6.38,6.36
50.46,13.04,6.72,13.02,6.69,-6.69,-6.67,-6.68,6.35,6.34,6.32
50.96,13.04,6.75,13.01,6.72,-6.72,-6.69,-6.74,6.32,6.29,6.29
51.47,13.04,6.79,13.00,6.75,-6.75,-6.71,-6.81,6.29,6.25,6.25
51.99,13.04,6.84,12.99,6.79,-6.79,-6.73,-6.88,6.25,6.20,6.20
52.51,13.04,6.88,12.97,6.82,-6.82,-6.75,-6.95,6.22,6.15,6.16
53.03,13.03,6.90,12.95,6.85,-6.85,-6.77,-7.02,6.19,6.11,6.13
53.56,12.92,6.86,12.94,6.88,-6.88,-6.79,-7.09,6.04,6.06,6.06
54.10,12.82,6.81,12.92,6.91,-6.91,-6.82,-7.16,5.91,6.02,6.01
54.64,12.82,6.85,12.90,6.93,-6.93,-6.84,-7.23,5.89,5.97,5.97
55.18,12.82,6.91,12.88,6.95,-6.95,-6.86,-7.30,5.87,5.93,5.91
55.74,12.82,6.96,12.85,6.97,-6.97,-6.88,-7.37,5.85,5.89,5.86
56.29,12.82,7.00,12.83,6.99,-6.99,-6.91,-7.44,5.83,5.84,5.82
56.86,12.82,7.03,12.80,7.00,-7.00,-6.93,-7.51,5.82,5.79,5.79
57.42,12.82,7.09,12.77,7.02,-7.02,-6.96,-7.57,5.80,5.75,5.73
58.00,12.82,7.13,12.75,7.05,-7.05,-6.98,-7.63,5.77,5.70,5.69
58.58,12.82,7.16,12.73,7.08,-7.08,-7.00,-7.68,5.74,5.65,5.66
59.16,12.78,7.15,12.72,7.12,-7.12,-7.03,-7.73,5.66,5.60,5.63
59.76,12.65,7.07,12.71,7.15,-7.15,-7.06,-7.77,5.50,5.55,5.58
60.35,12.59,7.08,12.69,7.19,-7.19,-7.08,-7.81,5.41,5.50,5.51
60.96,12.59,7.13,12.66,7.21,-7.21,-7.11,-7.84,5.38,5.45,5.46
61.57,12.59,7.20,12.63,7.23,-7.23,-7.13,-7.87,5.36,5.40,5.39
62.18,12.59,7.27,12.60,7.26,-7.26,-7.16,-7.89,5.33,5.34,5.32
62.80,12.59,7.32,12.57,7.28,-7.28,-7.19,-7.90,5.31,5.28,5.27
63.43,12.59,7.38,12.54,7.32,-7.32,-7.22,-7.91,5.27,5.23,5.21
64.07,12.59,7.43,12.52,7.35,-7.35,-7.24,-7.91,5.24,5.17,5.16
64.71,12.55,7.44,12.50,7.39,-7.39,-7.27,-7.90,5.16,5.11,5.11
65.35,12.48,7.44,12.47,7.42,-7.42,-7.30,-7.89,5.06,5.05,5.04
66.01,12.36,7.38,12.45,7.46,-7.46,-7.33,-7.87,4.90,4.99,4.98
66.67,12.36,7.43,12.42,7.49,-7.49,-7.36,-7.85,4.87,4.93,4.93
67.33,12.36,7.50,12.39,7.52,-7.52,-7.39,-7.82,4.84,4.87,4.86
68.01,12.36,7.55,12.35,7.55,-7.55,-7.42,-7.79,4.81,4.80,4.81
68.69,12.36,7.62,12.33,7.58,-7.58,-7.45,-7.76,4.78,4.74,4.74
69.37,12.36,7.67,12.30,7.62,-7.62,-7.48,-7.72,4.74,4.68,4.69
70.07,12.34,7.72,12.27,7.65,-7.65,-7.51,-7.68,4.69,4.62,4.62
70.77,12.18,7.62,12.23,7.68,-7.68,-7.54,-7.64,4.50,4.55,4.56
71.48,12.13,7.65,12.20,7.72,-7.72,-7.57,-7.60,4.42,4.49,4.48
72.19,12.13,7.71,12.18,7.75,-7.75,-7.60,-7.55,4.38,4.42,4.42
72.91,12.13,7.77,12.16,7.79,-7.79,-7.63,-7.51,4.34,4.36,4.36
73.64,12.13,7.85,12.13,7.83,-7.83,-7.66,-7.47,4.30,4.30,4.28
74.38,12.13,7.91,12.10,7.85,-7.85,-7.70,-7.43,4.28,4.24,4.22
75.12,12.12,7.96,12.06,7.87,-7.87,-7.73,-7.39,4.25,4.18,4.16
75.87,12.08,7.95,12.02,7.89,-7.89,-7.76,-7.35,4.19,4.13,4.13
76.63,11.96,7.90,11.98,7.91,-7.91,-7.79,-7.32,4.05,4.07,4.06
77.40,11.90,7.89,11.95,7.93,-7.93,-7.83,-7.29,3.97,4.02,4.01
78.17,11.90,7.94,11.92,7.96,-7.96,-7.86,-7.26,3.94,3.97,3.96
78.95,11.90,7.98,11.90,7.98,-7.98,-7.89,-7.24,3.92,3.92,3.92
79.74,11.90,8.04,11.86,7.99,-7.99,-7.92,-7.21,3.91,3.86,3.86
80.54,11.82,8.01,11.81,8.00,-8.00,-7.96,-7.20,3.82,3.81,3.81
81.35,11.73,7.97,11.77,8.00,-8.00,-7.99,-7.19,3.73,3.76,3.76
82.16,11.68,7.96,11.73,8.02,-8.02,-8.02,-7.18,3.66,3.71,3.72
82.98,11.68,8.02,11.69,8.04,-8.04,-8.05,-7.18,3.64,3.65,3.66
83.81,11.68,8.08,11.66,8.06,-8.06,-8.09,-7.18,3.62,3.60,3.60
84.65,11.68,8.14,11.62,8.09,-8.09,-8.12,-7.18,3.59,3.54,3.54
85.50,11.62,8.15,11.59,8.11,-8.11,-8.15,-7.20,3.51,3.48,3.47
86.35,11.51,8.10,11.56,8.14,-8.14,-8.19,-7.21,3.37,3.42,3.41
87.22,11.45,8.10,11.52,8.16,-8.16,-8.22,-7.24,3.29,3.35,3.35
88.09,11.45,8.17,11.47,8.18,-8.18,-8.25,-7.26,3.27,3.29,3.28
88.97,11.45,8.23,11.43,8.20,-8.20,-8.28,-7.30,3.25,3.23,3.22
89.86,11.45,8.30,11.39,8.23,-8.23,-8.31,-7.34,3.22,3.16,3.15
90.76,11.43,8.35,11.35,8.26,-8.26,-8.34,-7.38,3.17,3.09,3.08
91.66,11.29,8.27,11.31,8.29,-8.29,-8.37,-7.43,3.00,3.02,3.02
92.58,11.22,8.26,11.26,8.31,-8.31,-8.40,-7.48,2.91,2.95,2.96
93.51,11.22,8.33,11.22,8.33,-8.33,-8.43,-7.54,2.89,2.88,2.89
94.44,11.22,8.39,11.17,8.36,-8.36,-8.46,-7.61,2.86,2.81,2.83
95.39,11.12,8.37,11.14,8.39,-8.39,-8.49,-7.68,2.73,2.75,2.75
96.34,10.99,8.32,11.10,8.42,-8.42,-8.52,-7.75,2.57,2.68,2.67
97.30,10.99,8.38,11.05,8.44,-8.44,-8.55,-7.83,2.55,2.61,2.61
98.28,10.99,8.47,10.99,8.46,-8.46,-8.58,-7.92,2.53,2.54,2.52
99.26,10.99,8.54,10.94,8.47,-8.47,-8.60,-8.01,2.52,2.47,2.45
100.25,10.98,8.59,10.90,8.50,-8.50,-8.63,-8.10,2.48,2.40,2.39
101.25,10.91,8.58,10.86,8.52,-8.52,-8.65,-8.19,2.39,2.34,2.33
102.27,10.76,8.50,10.82,8.55,-8.55,-8.68,-8.29,2.21,2.27,2.26
103.29,10.76,8.56,10.77,8.56,-8.56,-8.70,-8.39,2.20,2.21,2.20
104.32,10.76,8.61,10.73,8.58,-8.58,-8.72,-8.50,2.18,2.15,2.15
105.37,10.70,8.61,10.69,8.60,-8.60,-8.74,-8.60,2.10,2.09,2.09
106.42,10.57,8.54,10.64,8.61,-8.61,-8.76,-8.71,1.96,2.03,2.03
107.48,10.54,8.58,10.59,8.62,-8.62,-8.78,-8.82,1.92,1.98,1.96
108.56,10.54,8.62,10.54,8.62,-8.62,-8.80,-8.92,1.92,1.92,1.92
109.64,10.54,8.68,10.48,8.62,-8.62,-8.82,-9.03,1.92,1.86,1.86
110.74,10.53,8.73,10.44,8.64,-8.64,-8.83,-9.13,1.90,1.80,1.80
111.85,10.34,8.60,10.39,8.65,-8.65,-8.85,-9.23,1.70,1.74,1.74
112.97,10.31,8.62,10.34,8.66,-8.66,-8.86,-9.33,1.65,1.68,1.69
114.10,10.31,8.68,10.29,8.67,-8.67,-8.87,-9.42,1.64,1.62,1.63
115.24,10.28,8.72,10.24,8.68,-8.68,-8.88,-9.51,1.60,1.56,1.56
116.39,10.15,8.66,10.20,8.70,-8.70,-8.89,-9.59,1.45,1.50,1.49
117.55,10.08,8.65,10.15,8.71,-8.71,-8.90,-9.66,1.37,1.43,1.43
118.73,10.08,8.72,10.10,8.73,-8.73,-8.91,-9.72,1.35,1.37,1.36
119.92,10.08,8.79,10.05,8.74,-8.74,-8.92,-9.78,1.34,1.30,1.29
121.12,10.07,8.83,10.00,8.76,-8.76,-8.92,-9.82,1.31,1.24,1.24
122.33,9.93,8.77,9.95,8.78,-8.78,-8.92,-9.86,1.15,1.17,1.16
123.55,9.85,8.74,9.91,8.81,-8.81,-8.93,-9.88,1.04,1.10,1.11
124.79,9.85,8.81,9.87,8.83,-8.83,-8.93,-9.89,1.02,1.04,1.04
126.03,9.85,8.88,9.81,8.85,-8.85,-8.93,-9.89,1.00,0.97,0.97
127.29,9.78,8.88,9.76,8.85,-8.85,-8.93,-9.88,0.93,0.90,0.90
128.57,9.68,8.84,9.70,8.86,-8.86,-8.92,-9.86,0.82,0.84,0.84
129.85,9.63,8.87,9.65,8.88,-8.88,-8.92,-9.83,0.75,0.77,0.76
131.15,9.63,8.93,9.59,8.89,-8.89,-8.92,-9.78,0.74,0.71,0.70
132.46,9.63,9.00,9.53,8.89,-8.89,-8.91,-9.73,0.74,0.64,0.63
133.79,9.49,8.92,9.48,8.90,-8.90,-8.90,-9.67,0.59,0.58,0.57
135.12,9.39,8.89,9.42,8.90,-8.90,-8.90,-9.60,0.49,0.52,0.50
136.48,9.34,8.88,9.36,8.91,-8.91,-8.89,-9.53,0.43,0.46,0.46
137.84,9.19,8.79,9.30,8.90,-8.90,-8.88,-9.45,0.29,0.40,0.40
139.22,9.17,8.84,9.23,8.89,-8.89,-8.87,-9.36,0.28,0.34,0.33
140.61,9.17,8.89,9.17,8.89,-8.89,-8.86,-9.27,0.28,0.29,0.28
142.02,9.17,8.94,9.11,8.88,-8.88,-8.84,-9.18,0.29,0.23,0.23
143.44,9.16,8.99,9.05,8.87,-8.87,-8.83,-9.08,0.29,0.18,0.17
144.87,8.98,8.85,8.99,8.86,-8.86,-8.82,-8.98,0.12,0.13,0.13
146.32,8.95,8.87,8.93,8.85,-8.85,-8.80,-8.89,0.10,0.08,0.08
147.78,8.89,8.87,8.88,8.85,-8.85,-8.79,-8.79,0.04,0.03,0.02
149.26,8.77,8.79,8.83,8.85,-8.85,-8.77,-8.69,-0.08,-0.02,-0.02
150.75,8.71,8.79,8.79,8.85,-8.85,-8.76,-8.60,-0.14,-0.07,-0.08
152.26,8.71,8.82,8.74,8.85,-8.85,-8.74,-8.51,-0.14,-0.12,-0.11
153.78,8.71,8.88,8.68,8.85,-8.85,-8.73,-8.42,-0.14,-0.17,-0.17
155.32,8.66,8.87,8.62,8.84,-8.84,-8.71,-8.33,-0.18,-0.21,-0.21
156.88,8.51,8.77,8.57,8.83,-8.83,-8.69,-8.25,-0.32,-0.26,-0.26
158.44,8.49,8.80,8.50,8.81,-8.81,-8.68,-8.17,-0.32,-0.31,-0.31
160.03,8.49,8.85,8.44,8.80,-8.80,-8.66,-8.10,-0.31,-0.36,-0.36
161.63,8.49,8.90,8.39,8.79,-8.79,-8.64,-8.03,-0.30,-0.41,-0.41
163.24,8.35,8.82,8.33,8.78,-8.78,-8.63,-7.96,-0.43,-0.46,-0.47
164.88,8.26,8.77,8.27,8.77,-8.77,-8.61,-7.90,-0.51,-0.50,-0.51
166.53,8.22,8.79,8.20,8.76,-8.76,-8.59,-7.85,-0.54,-0.55,-0.57
168.19,8.10,8.70,8.14,8.74,-8.74,-8.58,-7.80,-0.64,-0.60,-0.60
169.87,8.03,8.68,8.07,8.73,-8.73,-8.56,-7.75,-0.70,-0.66,-0.65
171.57,8.03,8.74,8.00,8.71,-8.71,-8.54,-7.71,-0.68,-0.71,-0.71
173.29,7.89,8.65,7.94,8.69,-8.69,-8.53,-7.68,-0.80,-0.76,-0.76
175.02,7.80,8.61,7.87,8.68,-8.68,-8.51,-7.65,-0.88,-0.81,-0.81
176.77,7.80,8.66,7.81,8.67,-8.67,-8.50,-7.63,-0.87,-0.86,-0.86
178.54,7.80,8.71,7.74,8.66,-8.66,-8.48,-7.62,-0.86,-0.91,-0.91
180.32,7.72,8.69,7.69,8.65,-8.65,-8.47,-7.61,-0.93,-0.96,-0.97
182.13,7.62,8.64,7.64,8.65,-8.65,-8.45,-7.60,-1.03,-1.01,-1.02
183.95,7.57,8.64,7.58,8.64,-8.64,-8.44,-7.60,-1.07,-1.07,-1.07
185.79,7.57,8.70,7.52,8.64,-8.64,-8.43,-7.61,-1.07,-1.12,-1.13
187.65,7.41,8.58,7.47,8.63,-8.63,-8.41,-7.62,-1.22,-1.17,-1.17
189.52,7.35,8.57,7.40,8.62,-8.62,-8.40,-7.64,-1.27,-1.22,-1.22
191.42,7.35,8.61,7.34,8.60,-8.60,-8.39,-7.66,-1.25,-1.26,-1.26
193.33,7.35,8.66,7.27,8.58,-8.58,-8.38,-7.69,-1.23,-1.31,-1.31
195.27,7.24,8.60,7.21,8.56,-8.56,-8.37,-7.72,-1.32,-1.35,-1.36
197.22,7.14,8.55,7.14,8.54,-8.54,-8.36,-7.75,-1.40,-1.39,-1.41
199.19,7.11,8.55,7.07,8.51,-8.51,-8.34,-7.79,-1.40,-1.44,-1.44
201.18,6.98,8.47,7.01,8.48,-8.48,-8.33,-7.84,-1.50,-1.47,-1.49
203.19,6.89,8.41,6.95,8.46,-8.46,-8.32,-7.88,-1.57,-1.51,-1.52
205.23,6.89,8.44,6.88,8.43,-8.43,-8.31,-7.93,-1.54,-1.55,-1.55
207.28,6.81,8.39,6.82,8.41,-8.41,-8.30,-7.99,-1.60,-1.59,-1.58
209.35,6.69,8.31,6.76,8.39,-8.39,-8.29,-8.04,-1.70,-1.62,-1.62
211.44,6.66,8.32,6.69,8.35,-8.35,-8.28,-8.10,-1.69,-1.66,-1.66
213.56,6.66,8.35,6.63,8.32,-8.32,-8.26,-8.15,-1.65,-1.69,-1.69
215.69,6.66,8.38,6.56,8.28,-8.28,-8.25,-8.21,-1.62,-1.72,-1.72
217.85,6.45,8.20,6.50,8.25,-8.25,-8.24,-8.27,-1.80,-1.75,-1.75
220.03,6.43,8.22,6.43,8.22,-8.22,-8.22,-8.32,-1.79,-1.78,-1.79
222.23,6.43,8.25,6.36,8.18,-8.18,-8.21,-8.38,-1.74,-1.81,-1.82
224.45,6.33,8.18,6.30,8.15,-8.15,-8.19,-8.43,-1.82,-1.85,-1.85
226.70,6.22,8.10,6.24,8.11,-8.11,-8.17,-8.47,-1.89,-1.88,-1.88
228.96,6.21,8.12,6.16,8.07,-8.07,-8.16,-8.52,-1.86,-1.90,-1.91
231.25,6.04,7.97,6.10,8.03,-8.03,-8.14,-8.55,-1.99,-1.93,-1.93
233.57,5.98,7.94,6.04,7.99,-7.99,-8.11,-8.59,-2.01,-1.95,-1.96
235.90,5.98,7.96,5.97,7.95,-7.95,-8.09,-8.61,-1.96,-1.98,-1.98
238.26,5.87,7.89,5.90,7.91,-7.91,-8.07,-8.63,-2.03,-2.00,-2.02
240.64,5.77,7.79,5.84,7.86,-7.86,-8.04,-8.63,-2.09,-2.02,-2.02
243.05,5.75,7.79,5.78,7.82,-7.82,-8.01,-8.63,-2.07,-2.04,-2.04
245.48,5.75,7.82,5.70,7.77,-7.77,-7.98,-8.62,-2.02,-2.06,-2.07
247.93,5.75,7.84,5.64,7.72,-7.72,-7.94,-8.60,-1.97,-2.08,-2.09
250.41,5.56,7.65,5.58,7.68,-7.68,-7.91,-8.57,-2.12,-2.10,-2.09
252.92,5.52,7.63,5.52,7.63,-7.63,-7.87,-8.53,-2.11,-2.11,-2.11
255.45,5.52,7.65,5.45,7.58,-7.58,-7.82,-8.48,-2.06,-2.13,-2.13
258.00,5.39,7.54,5.40,7.53,-7.53,-7.78,-8.42,-2.14,-2.14,-2.15
260.58,5.30,7.46,5.33,7.48,-7.48,-7.73,-8.35,-2.18,-2.15,-2.16
263.19,5.28,7.45,5.26,7.43,-7.43,-7.68,-8.27,-2.15,-2.16,-2.17
265.82,5.09,7.27,5.20,7.38,-7.38,-7.63,-8.18,-2.29,-2.17,-2.18
268.48,5.07,7.25,5.14,7.32,-7.32,-7.57,-8.09,-2.25,-2.18,-2.18
271.16,5.07,7.25,5.06,7.25,-7.25,-7.52,-7.98,-2.18,-2.19,-2.18
273.87,5.07,7.26,4.99,7.19,-7.19,-7.46,-7.87,-2.12,-2.19,-2.19
276.61,4.93,7.13,4.93,7.13,-7.13,-7.39,-7.76,-2.20,-2.20,-2.20
279.38,4.85,7.07,4.86,7.07,-7.07,-7.33,-7.64,-2.21,-2.20,-2.22
282.17,4.84,7.06,4.79,6.99,-6.99,-7.26,-7.52,-2.15,-2.21,-2.22
284.99,4.79,7.00,4.72,6.93,-6.93,-7.18,-7.39,-2.14,-2.21,-2.21
287.84,4.62,6.83,4.66,6.87,-6.87,-7.11,-7.26,-2.25,-2.21,-2.21
290.72,4.61,6.83,4.59,6.80,-6.80,-7.03,-7.13,-2.19,-2.21,-2.22
293.63,4.50,6.71,4.52,6.74,-6.74,-6.96,-7.00,-2.23,-2.21,-2.21
296.57,4.40,6.61,4.47,6.68,-6.68,-6.88,-6.86,-2.28,-2.21,-2.21
299.53,4.38,6.60,4.40,6.61,-6.61,-6.79,-6.73,-2.23,-2.21,-2.22
302.53,4.38,6.58,4.33,6.54,-6.54,-6.71,-6.60,-2.16,-2.21,-2.20
305.55,4.19,6.40,4.27,6.48,-6.48,-6.62,-6.47,-2.29,-2.21,-2.21
308.61,4.16,6.36,4.21,6.41,-6.41,-6.54,-6.34,-2.25,-2.21,-2.20
311.69,4.16,6.37,4.14,6.35,-6.35,-6.45,-6.21,-2.19,-2.20,-2.21
314.81,4.16,6.36,4.08,6.28,-6.28,-6.36,-6.08,-2.12,-2.20,-2.20
317.96,4.01,6.22,4.02,6.22,-6.22,-6.26,-5.96,-2.21,-2.20,-2.21
321.14,3.93,6.13,3.95,6.15,-6.15,-6.17,-5.84,-2.22,-2.20,-2.20
324.35,3.93,6.14,3.88,6.07,-6.07,-6.08,-5.72,-2.14,-2.19,-2.21
327.59,3.89,6.07,3.82,6.01,-6.01,-5.99,-5.61,-2.12,-2.19,-2.18
330.87,3.75,5.94,3.75,5.94,-5.94,-5.89,-5.49,-2.19,-2.18,-2.19
334.18,3.70,5.89,3.68,5.86,-5.86,-5.80,-5.39,-2.16,-2.18,-2.19
337.52,3.57,5.75,3.61,5.78,-5.78,-5.70,-5.28,-2.21,-2.17,-2.18
340.90,3.49,5.66,3.55,5.72,-5.72,-5.61,-5.18,-2.23,-2.17,-2.17
344.30,3.47,5.63,3.48,5.64,-5.64,-5.51,-5.08,-2.17,-2.16,-2.16
347.75,3.41,5.56,3.41,5.57,-5.57,-5.42,-4.99,-2.16,-2.15,-2.15
351.23,3.28,5.44,3.35,5.50,-5.50,-5.32,-4.90,-2.21,-2.14,-2.16
354.74,3.24,5.37,3.29,5.42,-5.42,-5.23,-4.81,-2.18,-2.14,-2.13
358.28,3.24,5.37,3.22,5.35,-5.35,-5.14,-4.73,-2.11,-2.13,-2.13
361.87,3.24,5.37,3.15,5.27,-5.27,-5.04,-4.65,-2.03,-2.12,-2.13
365.49,3.08,5.20,3.09,5.21,-5.21,-4.95,-4.57,-2.13,-2.12,-2.12
369.14,3.03,5.14,3.03,5.14,-5.14,-4.86,-4.50,-2.11,-2.11,-2.11
372.83,3.02,5.12,2.96,5.07,-5.07,-4.77,-4.43,-2.05,-2.11,-2.10
376.56,2.96,5.07,2.91,5.01,-5.01,-4.68,-4.36,-2.05,-2.10,-2.11
380.33,2.82,4.92,2.84,4.94,-4.94,-4.59,-4.30,-2.12,-2.10,-2.10
384.13,2.79,4.88,2.78,4.87,-4.87,-4.50,-4.24,-2.08,-2.10,-2.09
387.97,2.63,4.72,2.71,4.80,-4.80,-4.41,-4.18,-2.17,-2.09,-2.09
391.85,2.57,4.66,2.64,4.73,-4.73,-4.32,-4.13,-2.16,-2.09,-2.09
395.77,2.56,4.66,2.58,4.66,-4.66,-4.24,-4.08,-2.10,-2.08,-2.10
399.73,2.56,4.65,2.51,4.58,-4.58,-4.15,-4.03,-2.02,-2.08,-2.09
403.72,2.48,4.55,2.44,4.51,-4.51,-4.07,-3.98,-2.03,-2.07,-2.07
407.76,2.36,4.43,2.39,4.45,-4.45,-3.98,-3.94,-2.09,-2.06,-2.07
411.84,2.33,4.39,2.33,4.38,-4.38,-3.90,-3.90,-2.05,-2.06,-2.06
415.96,2.33,4.38,2.27,4.31,-4.31,-3.82,-3.86,-1.98,-2.05,-2.05
420.12,2.15,4.20,2.21,4.25,-4.25,-3.74,-3.82,-2.09,-2.04,-2.05
424.32,2.10,4.13,2.16,4.18,-4.18,-3.66,-3.78,-2.08,-2.03,-2.03
428.56,2.10,4.11,2.10,4.12,-4.12,-3.59,-3.74,-2.02,-2.02,-2.01
432.85,2.10,4.10,2.05,4.05,-4.05,-3.51,-3.71,-1.95,-2.00,-2.00
437.18,2.00,3.99,1.99,3.98,-3.98,-3.44,-3.67,-1.98,-1.99,-1.99
441.55,1.91,3.90,1.92,3.90,-3.90,-3.36,-3.64,-1.99,-1.98,-1.99
445.96,1.88,3.85,1.87,3.83,-3.83,-3.29,-3.61,-1.95,-1.96,-1.97
450.42,1.88,3.84,1.81,3.77,-3.77,-3.22,-3.57,-1.88,-1.95,-1.96
454.93,1.70,3.64,1.76,3.70,-3.70,-3.15,-3.54,-1.99,-1.94,-1.94
459.48,1.65,3.58,1.70,3.63,-3.63,-3.08,-3.50,-1.98,-1.92,-1.93
464.07,1.65,3.56,1.65,3.56,-3.56,-3.01,-3.47,-1.91,-1.91,-1.91
468.71,1.65,3.54,1.60,3.49,-3.49,-2.94,-3.43,-1.84,-1.90,-1.89
473.40,1.51,3.39,1.53,3.42,-3.42,-2.88,-3.39,-1.91,-1.88,-1.88
478.13,1.43,3.29,1.47,3.34,-3.34,-2.81,-3.36,-1.91,-1.87,-1.86
482.91,1.42,3.27,1.42,3.27,-3.27,-2.75,-3.31,-1.85,-1.85,-1.85
