frequency,raw,error,smoothed,error_smoothed,equalization,parametric_eq,fixed_band_eq,equalized_raw,equalized_smoothed,target
20.00,13.04,3.79,12.98,3.73,-3.73,-3.81,-1.85,9.32,9.25,9.26
20.20,13.04,3.80,13.01,3.76,-3.76,-3.82,-1.90,9.28,9.25,9.24
20.40,13.04,3.80,13.04,3.80,-3.80,-3.83,-1.95,9.24,9.24,9.24
20.61,13.04,3.80,13.07,3.83,-3.83,-3.83,-2.01,9.21,9.24,9.24
20.81,13.04,3.82,13.09,3.86,-3.86,-3.84,-2.06,9.18,9.23,9.22
21.02,13.04,3.82,13.12,3.89,-3.89,-3.85,-2.12,9.15,9.23,9.22
21.23,13.09,3.87,13.14,3.92,-3.92,-3.86,-2.18,9.17,9.23,9.22
21.44,13.14,3.91,13.16,3.94,-3.94,-3.87,-2.24,9.20,9.22,9.23
21.66,13.19,3.97,13.18,3.96,-3.96,-3.88,-2.30,9.23,9.22,9.22
21.87,13.24,4.01,13.20,3.98,-3.98,-3.89,-2.37,9.26,9.22,9.23
22.09,13.27,4.05,13.22,4.00,-4.00,-3.90,-2.43,9.27,9.22,9.22
22.31,13.27,4.04,13.23,4.01,-4.01,-3.91,-2.50,9.26,9.22,9.23
22.54,13.27,4.06,13.25,4.03,-4.03,-3.92,-2.57,9.24,9.22,9.21
22.76,13.27,4.05,13.26,4.04,-4.04,-3.93,-2.64,9.23,9.22,9.22
22.99,13.27,4.05,13.27,4.05,-4.05,-3.94,-2.72,9.22,9.22,9.22
23.22,13.27,4.05,13.28,4.06,-4.06,-3.95,-2.79,9.22,9.23,9.22
23.45,13.27,4.04,13.29,4.06,-4.06,-3.96,-2.87,9.21,9.23,9.23
23.69,13.27,4.04,13.28,4.05,-4.05,-3.97,-2.95,9.22,9.23,9.23
23.92,13.27,4.04,13.28,4.05,-4.05,-3.98,-3.03,9.22,9.23,9.23
24.16,13.27,4.04,13.28,4.04,-4.04,-3.99,-3.11,9.23,9.24,9.24
24.40,13.27,4.03,13.27,4.04,-4.04,-4.00,-3.19,9.24,9.24,9.24
24.65,13.27,4.03,13.27,4.03,-4.03,-4.01,-3.27,9.24,9.24,9.24
24.89,13.27,4.03,13.27,4.03,-4.03,-4.02,-3.36,9.24,9.24,9.24
25.14,13.27,4.03,13.27,4.03,-4.03,-4.03,-3.44,9.24,9.24,9.24
25.39,13.27,4.02,13.27,4.03,-4.03,-4.04,-3.53,9.24,9.24,9.25
25.65,13.27,4.03,13.27,4.03,-4.03,-4.05,-3.61,9.24,9.24,9.25
25.91,13.27,4.04,13.27,4.03,-4.03,-4.06,-3.70,9.24,9.24,9.23
26.16,13.27,4.03,13.27,4.03,-4.03,-4.08,-3.79,9.24,9.24,9.24
26.43,13.27,4.03,13.26,4.03,-4.03,-4.09,-3.87,9.24,9.24,9.24
26.69,13.27,4.03,13.26,4.02,-4.02,-4.10,-3.96,9.25,9.23,9.24
26.96,13.27,4.05,13.25,4.02,-4.02,-4.11,-4.04,9.25,9.23,9.23
27.23,13.27,4.05,13.26,4.03,-4.03,-4.12,-4.13,9.24,9.23,9.22
27.50,13.27,4.05,13.26,4.04,-4.04,-4.13,-4.21,9.23,9.22,9.22
27.77,13.27,4.04,13.27,4.05,-4.05,-4.14,-4.29,9.22,9.22,9.23
28.05,13.27,4.06,13.29,4.07,-4.07,-4.15,-4.37,9.20,9.22,9.22
28.33,13.27,4.06,13.30,4.09,-4.09,-4.16,-4.44,9.18,9.21,9.21
28.62,13.27,4.07,13.32,4.11,-4.11,-4.17,-4.51,9.16,9.21,9.20
28.90,13.27,4.06,13.34,4.14,-4.14,-4.19,-4.58,9.13,9.20,9.21
29.19,13.31,4.12,13.36,4.17,-4.17,-4.20,-4.64,9.14,9.19,9.19
29.48,13.38,4.20,13.38,4.20,-4.20,-4.21,-4.70,9.18,9.18,9.18
29.78,13.45,4.27,13.41,4.23,-4.23,-4.22,-4.76,9.22,9.17,9.18
30.08,13.50,4.33,13.43,4.26,-4.26,-4.23,-4.81,9.24,9.16,9.17
30.38,13.50,4.35,13.45,4.30,-4.30,-4.25,-4.85,9.20,9.15,9.15
30.68,13.50,4.35,13.47,4.33,-4.33,-4.26,-4.89,9.17,9.14,9.15
30.99,13.50,4.37,13.49,4.36,-4.36,-4.27,-4.92,9.14,9.13,9.13
31.30,13.50,4.38,13.51,4.39,-4.39,-4.28,-4.95,9.11,9.12,9.12
31.61,13.50,4.39,13.53,4.41,-4.41,-4.30,-4.97,9.09,9.11,9.11
31.93,13.50,4.41,13.53,4.43,-4.43,-4.31,-4.99,9.07,9.10,9.09
32.24,13.50,4.41,13.52,4.43,-4.43,-4.32,-5.00,9.07,9.10,9.09
32.57,13.50,4.42,13.51,4.42,-4.42,-4.34,-5.01,9.08,9.09,9.08
32.89,13.50,4.43,13.49,4.41,-4.41,-4.35,-5.01,9.09,9.08,9.08
33.22,13.50,4.43,13.47,4.39,-4.39,-4.36,-5.01,9.11,9.08,9.07
33.55,13.50,4.44,13.45,4.38,-4.38,-4.38,-5.00,9.12,9.07,9.06
33.89,13.50,4.43,13.43,4.36,-4.36,-4.39,-4.99,9.14,9.07,9.07
34.23,13.45,4.40,13.40,4.34,-4.34,-4.40,-4.98,9.11,9.06,9.05
34.57,13.37,4.31,13.38,4.33,-4.33,-4.42,-4.96,9.04,9.05,9.06
34.92,13.29,4.24,13.36,4.31,-4.31,-4.43,-4.94,8.98,9.05,9.05
35.27,13.27,4.22,13.34,4.30,-4.30,-4.45,-4.92,8.97,9.04,9.05
35.62,13.27,4.24,13.32,4.29,-4.29,-4.46,-4.89,8.98,9.03,9.03
35.97,13.27,4.25,13.30,4.28,-4.28,-4.48,-4.87,8.99,9.02,9.02
36.33,13.27,4.26,13.28,4.28,-4.28,-4.49,-4.84,8.99,9.00,9.01
36.70,13.27,4.28,13.27,4.28,-4.28,-4.51,-4.82,8.99,8.99,8.99
37.06,13.27,4.30,13.26,4.29,-4.29,-4.52,-4.79,8.98,8.97,8.97
37.43,13.27,4.32,13.25,4.31,-4.31,-4.54,-4.76,8.96,8.95,8.95
37.81,13.27,4.35,13.25,4.33,-4.33,-4.56,-4.74,8.94,8.92,8.92
38.19,13.27,4.37,13.26,4.36,-4.36,-4.57,-4.71,8.91,8.89,8.90
38.57,13.27,4.40,13.26,4.40,-4.40,-4.59,-4.69,8.87,8.87,8.87
38.95,13.27,4.43,13.27,4.43,-4.43,-4.61,-4.67,8.84,8.84,8.84
39.34,13.27,4.48,13.27,4.47,-4.47,-4.62,-4.65,8.80,8.80,8.80
39.74,13.27,4.51,13.27,4.50,-4.50,-4.64,-4.64,8.77,8.77,8.77
40.14,13.27,4.54,13.27,4.53,-4.53,-4.66,-4.62,8.74,8.74,8.74
40.54,13.27,4.57,13.27,4.56,-4.56,-4.68,-4.61,8.71,8.71,8.70
40.94,13.27,4.61,13.27,4.60,-4.60,-4.69,-4.60,8.67,8.68,8.66
41.35,13.27,4.63,13.28,4.63,-4.63,-4.71,-4.59,8.64,8.65,8.64
41.76,13.27,4.66,13.28,4.67,-4.67,-4.73,-4.59,8.60,8.61,8.61
42.18,13.27,4.68,13.29,4.70,-4.70,-4.75,-4.59,8.57,8.58,8.59
42.60,13.27,4.72,13.29,4.73,-4.73,-4.77,-4.59,8.54,8.55,8.55
43.03,13.27,4.75,13.28,4.76,-4.76,-4.79,-4.60,8.51,8.52,8.52
43.46,13.27,4.78,13.27,4.78,-4.78,-4.81,-4.61,8.49,8.49,8.49
43.90,13.27,4.81,13.26,4.80,-4.80,-4.83,-4.62,8.47,8.46,8.46
44.33,13.27,4.84,13.24,4.82,-4.82,-4.85,-4.64,8.46,8.43,8.43
44.78,13.27,4.88,13.22,4.83,-4.83,-4.87,-4.66,8.44,8.39,8.39
45.23,13.26,4.89,13.20,4.84,-4.84,-4.89,-4.68,8.42,8.36,8.37
45.68,13.23,4.90,13.18,4.86,-4.86,-4.91,-4.71,8.37,8.32,8.33
46.13,13.19,4.91,13.16,4.88,-4.88,-4.93,-4.74,8.31,8.28,8.28
46.60,13.11,4.87,13.14,4.89,-4.89,-4.96,-4.78,8.22,8.24,8.24
47.06,13.04,4.83,13.12,4.91,-4.91,-4.98,-4.81,8.13,8.20,8.21
47.53,13.04,4.87,13.10,4.94,-4.94,-5.00,-4.85,8.10,8.16,8.17
48.01,13.04,4.93,13.08,4.97,-4.97,-5.02,-4.90,8.07,8.12,8.12
48.49,13.04,4.97,13.07,5.00,-5.00,-5.05,-4.94,8.04,8.07,8.07
48.97,13.04,5.02,13.06,5.03,-5.03,-5.07,-4.99,8.01,8.03,8.02
49.46,13.04,5.06,13.05,5.07,-5.07,-5.10,-5.05,7.97,7.98,7.98
49.96,13.04,5.12,13.04,5.10,-5.10,-5.12,-5.10,7.94,7.94,7.92
50.46,13.04,5.17,13.02,5.14,-5.14,-5.14,-5.16,7.90,7.89,7.87
50.96,13.04,5.20,13.01,5.17,-5.17,-5.17,-5.22,7.87,7.84,7.84
51.47,13.04,5.25,13.00,5.21,-5.21,-5.20,-5.28,7.83,7.79,7.79
51.99,13.04,5.30,12.99,5.25,-5.25,-5.22,-5.34,7.79,7.74,7.74
52.51,13.04,5.35,12.97,5.29,-5.29,-5.25,-5.40,7.75,7.68,7.69
53.03,13.03,5.38,12.95,5.32,-5.32,-5.27,-5.47,7.71,7.63,7.65
53.56,12.92,5.34,12.94,5.36,-5.36,-5.30,-5.53,7.56,7.58,7.59
54.10,12.82,5.30,12.92,5.39,-5.39,-5.33,-5.60,7.43,7.53,7.53
54.64,12.82,5.35,12.90,5.42,-5.42,-5.36,-5.66,7.40,7.48,7.48
55.18,12.82,5.41,12.88,5.45,-5.45,-5.39,-5.73,7.37,7.43,7.41
55.74,12.82,5.46,12.85,5.48,-5.48,-5.41,-5.79,7.35,7.38,7.36
56.29,12.82,5.51,12.83,5.50,-5.50,-5.44,-5.85,7.32,7.33,7.31
56.86,12.82,5.55,12.80,5.52,-5.52,-5.47,-5.91,7.30,7.27,7.27
57.42,12.82,5.61,12.77,5.55,-5.55,-5.50,-5.97,7.27,7.22,7.21
58.00,12.82,5.66,12.75,5.58,-5.58,-5.53,-6.02,7.24,7.17,7.16
58.58,12.82,5.70,12.73,5.62,-5.62,-5.56,-6.07,7.20,7.11,7.12
59.16,12.78,5.69,12.72,5.66,-5.66,-5.60,-6.12,7.12,7.06,7.08
59.76,12.65,5.63,12.71,5.71,-5.71,-5.63,-6.16,6.94,7.00,7.03
60.35,12.59,5.64,12.69,5.75,-5.75,-5.66,-6.20,6.84,6.94,6.95
60.96,12.59,5.70,12.66,5.78,-5.78,-5.69,-6.24,6.81,6.88,6.89
61.57,12.59,5.77,12.63,5.81,-5.81,-5.72,-6.27,6.78,6.82,6.82
62.18,12.59,5.85,12.60,5.84,-5.84,-5.76,-6.30,6.75,6.76,6.74
62.80,12.59,5.91,12.57,5.87,-5.87,-5.79,-6.32,6.72,6.69,6.68
63.43,12.59,5.98,12.54,5.92,-5.92,-5.83,-6.33,6.67,6.63,6.61
64.07,12.59,6.04,12.52,5.96,-5.96,-5.86,-6.34,6.63,6.56,6.55
64.71,12.55,6.06,12.50,6.01,-6.01,-5.90,-6.35,6.55,6.49,6.49
65.35,12.48,6.06,12.47,6.05,-6.05,-5.93,-6.35,6.43,6.42,6.42
66.01,12.36,6.01,12.45,6.09,-6.09,-5.97,-6.35,6.27,6.35,6.35
66.67,12.36,6.07,12.42,6.14,-6.14,-6.00,-6.35,6.22,6.28,6.29
67.33,12.36,6.15,12.39,6.17,-6.17,-6.04,-6.34,6.19,6.21,6.21
68.01,12.36,6.21,12.35,6.21,-6.21,-6.08,-6.33,6.15,6.14,6.15
68.69,12.36,6.29,12.33,6.26,-6.26,-6.11,-6.32,6.11,6.07,6.07
69.37,12.36,6.35,12.30,6.30,-6.30,-6.15,-6.30,6.06,6.00,6.01
70.07,12.34,6.41,12.27,6.34,-6.34,-6.19,-6.28,6.00,5.92,5.93
70.77,12.18,6.32,12.23,6.38,-6.38,-6.23,-6.26,5.80,5.85,5.86
71.48,12.13,6.35,12.20,6.43,-6.43,-6.27,-6.25,5.71,5.78,5.78
72.19,12.13,6.43,12.18,6.47,-6.47,-6.31,-6.23,5.66,5.70,5.70
72.91,12.13,6.50,12.16,6.52,-6.52,-6.34,-6.21,5.61,5.63,5.63
73.64,12.13,6.59,12.13,6.57,-6.57,-6.38,-6.19,5.56,5.56,5.54
74.38,12.13,6.66,12.10,6.61,-6.61,-6.42,-6.17,5.53,5.49,5.48
75.12,12.12,6.71,12.06,6.64,-6.64,-6.46,-6.16,5.49,5.42,5.41
75.87,12.08,6.72,12.02,6.66,-6.66,-6.51,-6.14,5.42,5.35,5.36
76.63,11.96,6.68,11.98,6.69,-6.69,-6.55,-6.13,5.27,5.29,5.28
77.40,11.90,6.68,11.95,6.73,-6.73,-6.59,-6.12,5.17,5.23,5.22
78.17,11.90,6.74,11.92,6.76,-6.76,-6.63,-6.12,5.14,5.16,5.16
78.95,11.90,6.80,11.90,6.80,-6.80,-6.67,-6.11,5.10,5.10,5.10
79.74,11.90,6.86,11.86,6.82,-6.82,-6.71,-6.11,5.08,5.04,5.04
80.54,11.82,6.84,11.81,6.84,-6.84,-6.75,-6.12,4.98,4.97,4.98
81.35,11.73,6.82,11.77,6.86,-6.86,-6.80,-6.13,4.88,4.91,4.91
82.16,11.68,6.82,11.73,6.88,-6.88,-6.84,-6.14,4.80,4.85,4.86
82.98,11.68,6.89,11.69,6.92,-6.92,-6.88,-6.15,4.77,4.78,4.79
83.81,11.68,6.96,11.66,6.95,-6.95,-6.92,-6.17,4.73,4.71,4.72
84.65,11.68,7.04,11.62,6.98,-6.98,-6.97,-6.20,4.70,4.64,4.65
85.50,11.62,7.06,11.59,7.02,-7.02,-7.01,-6.23,4.60,4.57,4.56
86.35,11.51,7.01,11.56,7.06,-7.06,-7.05,-6.26,4.45,4.50,4.50
87.22,11.45,7.03,11.52,7.10,-7.10,-7.09,-6.30,4.35,4.42,4.42
88.09,11.45,7.11,11.47,7.13,-7.13,-7.14,-6.34,4.32,4.35,4.34
88.97,11.45,7.18,11.43,7.16,-7.16,-7.18,-6.39,4.29,4.27,4.27
89.86,11.45,7.26,11.39,7.20,-7.20,-7.22,-6.44,4.25,4.19,4.19
90.76,11.43,7.32,11.35,7.24,-7.24,-7.26,-6.50,4.19,4.11,4.11
91.66,11.29,7.26,11.31,7.28,-7.28,-7.30,-6.56,4.01,4.03,4.03
92.58,11.22,7.26,11.26,7.31,-7.31,-7.35,-6.63,3.91,3.95,3.96
93.51,11.22,7.34,11.22,7.35,-7.35,-7.39,-6.70,3.87,3.87,3.88
94.44,11.22,7.42,11.17,7.39,-7.39,-7.43,-6.77,3.84,3.79,3.80
95.39,11.12,7.41,11.14,7.43,-7.43,-7.47,-6.85,3.69,3.70,3.71
96.34,10.99,7.37,11.10,7.47,-7.47,-7.51,-6.93,3.52,3.62,3.62
97.30,10.99,7.45,11.05,7.51,-7.51,-7.55,-7.02,3.48,3.54,3.54
98.28,10.99,7.54,10.99,7.53,-7.53,-7.59,-7.11,3.46,3.46,3.45
99.26,10.99,7.62,10.94,7.56,-7.56,-7.63,-7.21,3.43,3.38,3.37
100.25,10.98,7.69,10.90,7.60,-7.60,-7.67,-7.31,3.38,3.30,3.29
101.25,10.91,7.69,10.86,7.64,-7.64,-7.70,-7.41,3.27,3.22,3.22
102.27,10.76,7.62,10.82,7.67,-7.67,-7.74,-7.51,3.09,3.15,3.14
103.29,10.76,7.69,10.77,7.70,-7.70,-7.78,-7.62,3.06,3.07,3.07
104.32,10.76,7.76,10.73,7.73,-7.73,-7.81,-7.73,3.03,3.00,3.00
105.37,10.70,7.78,10.69,7.76,-7.76,-7.85,-7.84,2.94,2.93,2.93
106.42,10.57,7.71,10.64,7.79,-7.79,-7.88,-7.95,2.78,2.86,2.86
107.48,10.54,7.77,10.59,7.81,-7.81,-7.91,-8.06,2.73,2.79,2.77
108.56,10.54,7.82,10.54,7.82,-7.82,-7.95,-8.17,2.72,2.71,2.72
109.64,10.54,7.90,10.48,7.84,-7.84,-7.98,-8.28,2.70,2.64,2.64
110.74,10.53,7.95,10.44,7.86,-7.86,-8.01,-8.38,2.67,2.57,2.58
111.85,10.34,7.84,10.39,7.89,-7.89,-8.04,-8.49,2.45,2.50,2.50
112.97,10.31,7.87,10.34,7.91,-7.91,-8.07,-8.59,2.40,2.43,2.44
114.10,10.31,7.94,10.29,7.94,-7.94,-8.09,-8.68,2.37,2.35,2.37
115.24,10.28,8.00,10.24,7.96,-7.96,-8.12,-8.77,2.32,2.28,2.28
116.39,10.15,7.95,10.20,7.99,-7.99,-8.14,-8.85,2.16,2.20,2.20
117.55,10.08,7.95,10.15,8.02,-8.02,-8.17,-8.93,2.06,2.13,2.13
118.73,10.08,8.04,10.10,8.04,-8.04,-8.19,-9.00,2.04,2.05,2.04
119.92,10.08,8.12,10.05,8.07,-8.07,-8.21,-9.06,2.01,1.97,1.96
121.12,10.07,8.17,10.00,8.10,-8.10,-8.23,-9.11,1.97,1.90,1.90
122.33,9.93,8.12,9.95,8.14,-8.14,-8.25,-9.15,1.80,1.82,1.81
123.55,9.85,8.11,9.91,8.18,-8.18,-8.27,-9.18,1.67,1.74,1.74
124.79,9.85,8.19,9.87,8.21,-8.21,-8.28,-9.20,1.64,1.66,1.66
126.03,9.85,8.26,9.81,8.24,-8.24,-8.30,-9.21,1.61,1.58,1.59
127.29,9.78,8.28,9.76,8.26,-8.26,-8.31,-9.20,1.52,1.50,1.50
128.57,9.68,8.26,9.70,8.28,-8.28,-8.33,-9.19,1.40,1.42,1.42
129.85,9.63,8.29,9.65,8.31,-8.31,-8.34,-9.17,1.32,1.34,1.34
131.15,9.63,8.37,9.59,8.33,-8.33,-8.35,-9.14,1.30,1.26,1.26
132.46,9.63,8.45,9.53,8.34,-8.34,-8.36,-9.10,1.29,1.19,1.18
133.79,9.49,8.38,9.48,8.36,-8.36,-8.36,-9.05,1.13,1.11,1.11
135.12,9.39,8.36,9.42,8.38,-8.38,-8.37,-9.00,1.01,1.04,1.03
136.48,9.34,8.37,9.36,8.40,-8.40,-8.38,-8.93,0.94,0.97,0.97
137.84,9.19,8.29,9.30,8.40,-8.40,-8.38,-8.87,0.79,0.89,0.90
139.22,9.17,8.35,9.23,8.41,-8.41,-8.38,-8.79,0.76,0.82,0.82
140.61,9.17,8.42,9.17,8.41,-8.41,-8.39,-8.72,0.76,0.76,0.75
142.02,9.17,8.48,9.11,8.42,-8.42,-8.39,-8.64,0.75,0.69,0.69
143.44,9.16,8.54,9.05,8.43,-8.43,-8.39,-8.56,0.73,0.63,0.62
144.87,8.98,8.41,8.99,8.42,-8.42,-8.39,-8.47,0.56,0.56,0.57
146.32,8.95,8.44,8.93,8.43,-8.43,-8.39,-8.39,0.52,0.50,0.51
147.78,8.89,8.45,8.88,8.44,-8.44,-8.38,-8.31,0.45,0.44,0.44
149.26,8.77,8.39,8.83,8.45,-8.45,-8.38,-8.23,0.32,0.38,0.38
150.75,8.71,8.40,8.79,8.47,-8.47,-8.38,-8.15,0.24,0.32,0.31
152.26,8.71,8.45,8.74,8.48,-8.48,-8.37,-8.07,0.23,0.26,0.26
153.78,8.71,8.51,8.68,8.48,-8.48,-8.37,-7.99,0.23,0.20,0.20
155.32,8.66,8.52,8.62,8.49,-8.49,-8.36,-7.92,0.17,0.14,0.15
156.88,8.51,8.43,8.57,8.49,-8.49,-8.36,-7.85,0.02,0.08,0.08
158.44,8.49,8.47,8.50,8.48,-8.48,-8.35,-7.78,0.01,0.02,0.02
160.03,8.49,8.53,8.44,8.48,-8.48,-8.34,-7.72,0.01,-0.04,-0.04
161.63,8.49,8.59,8.39,8.49,-8.49,-8.34,-7.66,0.00,-0.10,-0.10
163.24,8.35,8.52,8.33,8.49,-8.49,-8.33,-7.61,-0.14,-0.16,-0.17
164.88,8.26,8.48,8.27,8.48,-8.48,-8.32,-7.56,-0.22,-0.22,-0.22
166.53,8.22,8.51,8.20,8.48,-8.48,-8.31,-7.52,-0.26,-0.28,-0.29
168.19,8.10,8.43,8.14,8.48,-8.48,-8.30,-7.48,-0.38,-0.34,-0.33
169.87,8.03,8.42,8.07,8.47,-8.47,-8.30,-7.45,-0.44,-0.40,-0.39
171.57,8.03,8.48,8.00,8.46,-8.46,-8.29,-7.42,-0.43,-0.46,-0.45
173.29,7.89,8.40,7.94,8.45,-8.45,-8.28,-7.40,-0.56,-0.52,-0.51
175.02,7.80,8.37,7.87,8.45,-8.45,-8.27,-7.39,-0.65,-0.58,-0.57
176.77,7.80,8.44,7.81,8.45,-8.45,-8.26,-7.38,-0.65,-0.64,-0.64
178.54,7.80,8.50,7.74,8.44,-8.44,-8.26,-7.37,-0.64,-0.70,-0.70
180.32,7.72,8.48,7.69,8.45,-8.45,-8.25,-7.37,-0.73,-0.76,-0.76
182.13,7.62,8.44,7.64,8.46,-8.46,-8.24,-7.38,-0.84,-0.82,-0.82
183.95,7.57,8.45,7.58,8.46,-8.46,-8.23,-7.39,-0.89,-0.88,-0.88
185.79,7.57,8.52,7.52,8.46,-8.46,-8.23,-7.40,-0.89,-0.94,-0.95
187.65,7.41,8.41,7.47,8.46,-8.46,-8.22,-7.43,-1.05,-1.00,-1.00
189.52,7.35,8.41,7.40,8.46,-8.46,-8.21,-7.45,-1.11,-1.05,-1.06
191.42,7.35,8.46,7.34,8.45,-8.45,-8.20,-7.48,-1.10,-1.11,-1.11
193.33,7.35,8.51,7.27,8.43,-8.43,-8.20,-7.52,-1.08,-1.16,-1.16
195.27,7.24,8.46,7.21,8.43,-8.43,-8.19,-7.56,-1.18,-1.22,-1.22
197.22,7.14,8.41,7.14,8.41,-8.41,-8.18,-7.61,-1.27,-1.26,-1.27
199.19,7.11,8.43,7.07,8.38,-8.38,-8.18,-7.65,-1.27,-1.31,-1.32
201.18,6.98,8.35,7.01,8.37,-8.37,-8.17,-7.71,-1.39,-1.36,-1.37
203.19,6.89,8.30,6.95,8.35,-8.35,-8.16,-7.76,-1.46,-1.40,-1.41
205.23,6.89,8.33,6.88,8.33,-8.33,-8.15,-7.82,-1.44,-1.45,-1.44
207.28,6.81,8.29,6.82,8.31,-8.31,-8.15,-7.88,-1.50,-1.49,-1.48
209.35,6.69,8.22,6.76,8.30,-8.30,-8.14,-7.95,-1.60,-1.53,-1.53
211.44,6.66,8.23,6.69,8.27,-8.27,-8.13,-8.01,-1.61,-1.57,-1.57
213.56,6.66,8.27,6.63,8.24,-8.24,-8.12,-8.08,-1.58,-1.61,-1.61
215.69,6.66,8.30,6.56,8.21,-8.21,-8.11,-8.14,-1.55,-1.65,-1.64
217.85,6.45,8.13,6.50,8.19,-8.19,-8.10,-8.21,-1.74,-1.69,-1.68
220.03,6.43,8.15,6.43,8.15,-8.15,-8.09,-8.27,-1.72,-1.72,-1.72
222.23,6.43,8.20,6.36,8.12,-8.12,-8.08,-8.33,-1.69,-1.76,-1.77
224.45,6.33,8.13,6.30,8.09,-8.09,-8.07,-8.39,-1.76,-1.79,-1.80
226.70,6.22,8.05,6.24,8.06,-8.06,-8.06,-8.44,-1.84,-1.83,-1.83
228.96,6.21,8.07,6.16,8.03,-8.03,-8.04,-8.49,-1.81,-1.86,-1.86
231.25,6.04,7.93,6.10,7.99,-7.99,-8.02,-8.54,-1.95,-1.89,-1.89
233.57,5.98,7.90,6.04,7.96,-7.96,-8.01,-8.58,-1.98,-1.92,-1.92
235.90,5.98,7.93,5.97,7.92,-7.92,-7.99,-8.61,-1.94,-1.95,-1.95
238.26,5.87,7.86,5.90,7.88,-7.88,-7.97,-8.63,-2.01,-1.98,-1.99
240.64,5.77,7.77,5.84,7.85,-7.85,-7.94,-8.64,-2.08,-2.01,-2.00
243.05,5.75,7.78,5.78,7.81,-7.81,-7.92,-8.65,-2.06,-2.03,-2.03
245.48,5.75,7.80,5.70,7.76,-7.76,-7.89,-8.64,-2.01,-2.05,-2.05
247.93,5.75,7.83,5.64,7.71,-7.71,-7.86,-8.62,-1.96,-2.07,-2.08
250.41,5.56,7.65,5.58,7.67,-7.67,-7.83,-8.60,-2.11,-2.09,-2.09
252.92,5.52,7.63,5.52,7.63,-7.63,-7.80,-8.56,-2.11,-2.11,-2.11
255.45,5.52,7.66,5.45,7.58,-7.58,-7.76,-8.51,-2.06,-2.13,-2.14
258.00,5.39,7.54,5.40,7.54,-7.54,-7.72,-8.46,-2.15,-2.15,-2.15
260.58,5.30,7.46,5.33,7.49,-7.49,-7.68,-8.39,-2.19,-2.16,-2.16
263.19,5.28,7.46,5.26,7.44,-7.44,-7.64,-8.31,-2.16,-2.18,-2.18
265.82,5.09,7.28,5.20,7.39,-7.39,-7.59,-8.23,-2.30,-2.19,-2.19
268.48,5.07,7.27,5.14,7.34,-7.34,-7.54,-8.13,-2.27,-2.20,-2.20
271.16,5.07,7.27,5.06,7.27,-7.27,-7.49,-8.03,-2.20,-2.21,-2.20
273.87,5.07,7.29,4.99,7.21,-7.21,-7.43,-7.92,-2.14,-2.22,-2.21
276.61,4.93,7.16,4.93,7.15,-7.15,-7.38,-7.81,-2.22,-2.23,-2.23
279.38,4.85,7.10,4.86,7.10,-7.10,-7.32,-7.69,-2.25,-2.23,-2.25
282.17,4.84,7.09,4.79,7.03,-7.03,-7.25,-7.57,-2.19,-2.24,-2.25
284.99,4.79,7.04,4.72,6.96,-6.96,-7.19,-7.44,-2.17,-2.24,-2.25
287.84,4.62,6.87,4.66,6.91,-6.91,-7.12,-7.31,-2.29,-2.25,-2.25
290.72,4.61,6.87,4.59,6.84,-6.84,-7.05,-7.18,-2.23,-2.25,-2.25
293.63,4.50,6.75,4.52,6.78,-6.78,-6.98,-7.05,-2.28,-2.25,-2.25
296.57,4.40,6.65,4.47,6.72,-6.72,-6.90,-6.92,-2.32,-2.26,-2.25
299.53,4.38,6.64,4.40,6.65,-6.65,-6.83,-6.78,-2.27,-2.26,-2.26
302.53,4.38,6.63,4.33,6.59,-6.59,-6.75,-6.65,-2.21,-2.26,-2.25
305.55,4.19,6.45,4.27,6.53,-6.53,-6.67,-6.52,-2.34,-2.26,-2.26
308.61,4.16,6.41,4.21,6.47,-6.47,-6.58,-6.39,-2.31,-2.26,-2.25
311.69,4.16,6.42,4.14,6.40,-6.40,-6.50,-6.26,-2.24,-2.26,-2.26
314.81,4.16,6.42,4.08,6.34,-6.34,-6.41,-6.14,-2.18,-2.26,-2.26
317.96,4.01,6.27,4.02,6.28,-6.28,-6.33,-6.01,-2.26,-2.26,-2.26
321.14,3.93,6.19,3.95,6.21,-6.21,-6.24,-5.89,-2.28,-2.26,-2.26
324.35,3.93,6.20,3.88,6.13,-6.13,-6.15,-5.78,-2.20,-2.25,-2.27
327.59,3.89,6.13,3.82,6.07,-6.07,-6.06,-5.66,-2.18,-2.25,-2.24
330.87,3.75,6.00,3.75,6.00,-6.00,-5.97,-5.55,-2.25,-2.25,-2.25
334.18,3.70,5.95,3.68,5.92,-5.92,-5.88,-5.44,-2.22,-2.24,-2.25
337.52,3.57,5.82,3.61,5.85,-5.85,-5.79,-5.34,-2.28,-2.24,-2.25
340.90,3.49,5.72,3.55,5.78,-5.78,-5.70,-5.24,-2.29,-2.23,-2.23
344.30,3.47,5.70,3.48,5.71,-5.71,-5.61,-5.14,-2.24,-2.23,-2.23
347.75,3.41,5.63,3.41,5.64,-5.64,-5.51,-5.05,-2.23,-2.22,-2.22
351.23,3.28,5.51,3.35,5.57,-5.57,-5.42,-4.96,-2.29,-2.22,-2.23
354.74,3.24,5.44,3.29,5.50,-5.50,-5.33,-4.87,-2.26,-2.21,-2.20
358.28,3.24,5.45,3.22,5.42,-5.42,-5.24,-4.79,-2.18,-2.20,-2.20
361.87,3.24,5.44,3.15,5.35,-5.35,-5.15,-4.71,-2.11,-2.20,-2.20
365.49,3.08,5.27,3.09,5.28,-5.28,-5.06,-4.64,-2.20,-2.19,-2.19
369.14,3.03,5.22,3.03,5.22,-5.22,-4.96,-4.56,-2.19,-2.19,-2.19
372.83,3.02,5.20,2.96,5.15,-5.15,-4.87,-4.50,-2.13,-2.19,-2.18
376.56,2.96,5.14,2.91,5.09,-5.09,-4.78,-4.43,-2.13,-2.18,-2.18
380.33,2.82,5.00,2.84,5.02,-5.02,-4.70,-4.37,-2.20,-2.18,-2.18
384.13,2.79,4.96,2.78,4.95,-4.95,-4.61,-4.31,-2.16,-2.18,-2.17
387.97,2.63,4.80,2.71,4.88,-4.88,-4.52,-4.26,-2.25,-2.17,-2.17
391.85,2.57,4.74,2.64,4.81,-4.81,-4.43,-4.20,-2.24,-2.17,-2.16
395.77,2.56,4.74,2.58,4.74,-4.74,-4.35,-4.15,-2.18,-2.16,-2.18
399.73,2.56,4.73,2.51,4.67,-4.67,-4.26,-4.11,-2.11,-2.16,-2.17
403.72,2.48,4.63,2.44,4.59,-4.59,-4.18,-4.06,-2.11,-2.15,-2.15
407.76,2.36,4.52,2.39,4.54,-4.54,-4.10,-4.02,-2.18,-2.15,-2.16
411.84,2.33,4.47,2.33,4.47,-4.47,-4.02,-3.98,-2.14,-2.14,-2.14
415.96,2.33,4.46,2.27,4.40,-4.40,-3.94,-3.94,-2.07,-2.13,-2.13
420.12,2.15,4.28,2.21,4.33,-4.33,-3.86,-3.90,-2.18,-2.12,-2.13
424.32,2.10,4.22,2.16,4.27,-4.27,-3.78,-3.87,-2.17,-2.11,-2.11
428.56,2.10,4.20,2.10,4.21,-4.21,-3.70,-3.83,-2.11,-2.10,-2.10
432.85,2.10,4.19,2.05,4.14,-4.14,-3.62,-3.80,-2.04,-2.09,-2.09
437.18,2.00,4.08,1.99,4.07,-4.07,-3.55,-3.76,-2.06,-2.08,-2.08
441.55,1.91,3.98,1.92,3.99,-3.99,-3.47,-3.73,-2.08,-2.07,-2.07
445.96,1.88,3.93,1.87,3.92,-3.92,-3.40,-3.70,-2.04,-2.05,-2.05
450.42,1.88,3.93,1.81,3.86,-3.86,-3.33,-3.67,-1.98,-2.04,-2.05
454.93,1.70,3.73,1.76,3.79,-3.79,-3.26,-3.64,-2.09,-2.03,-2.03
459.48,1.65,3.67,1.70,3.72,-3.72,-3.19,-3.60,-2.07,-2.02,-2.02
464.07,1.65,3.65,1.65,3.65,-3.65,-3.12,-3.57,-2.00,-2.00,-2.00
468.71,1.65,3.63,1.60,3.59,-3.59,-3.05,-3.53,-1.94,-1.99,-1.98
473.40,1.51,3.48,1.53,3.51,-3.51,-2.99,-3.50,-2.00,-1.97,-1.97
478.13,1.43,3.38,1.47,3.43,-3.43,-2.92,-3.46,-2.00,-1.96,-1.95
482.91,1.42,3.37,1.42,3.36,-3.36,-2.86,-3.42,-1.94,-1.94,-1.95
487.74,1.42,3.35,1.36,3.29,-3.29,-2.79,-3.38,-1.87,-1.92,-1.93
