frequency,raw,error,smoothed,error_smoothed,equalization,parametric_eq,fixed_band_eq,equalized_raw,equalized_smoothed,target
20.00,-13.90,-17.97,-13.82,-17.91,17.91,17.88,7.14,4.01,4.10,4.07
20.20,-13.76,-17.87,-13.71,-17.84,17.84,17.98,7.30,4.08,4.12,4.11
20.40,-13.62,-17.76,-13.61,-17.76,17.76,18.04,7.46,4.14,4.15,4.14
20.61,-13.48,-17.66,-13.50,-17.68,17.68,18.09,7.62,4.20,4.18,4.17
20.81,-13.35,-17.56,-13.40,-17.60,17.60,18.11,7.79,4.25,4.20,4.21
21.02,-13.21,-17.46,-13.29,-17.51,17.51,18.11,7.96,4.30,4.23,4.25
21.23,-13.11,-17.37,-13.17,-17.42,17.42,18.09,8.14,4.31,4.25,4.26
21.44,-13.01,-17.29,-13.06,-17.33,17.33,18.04,8.32,4.32,4.27,4.28
21.66,-12.91,-17.22,-12.94,-17.23,17.23,17.98,8.50,4.32,4.29,4.30
21.87,-12.81,-17.12,-12.82,-17.13,17.13,17.89,8.69,4.32,4.30,4.31
22.09,-12.70,-17.02,-12.70,-17.02,17.02,17.79,8.89,4.32,4.32,4.32
22.31,-12.59,-16.91,-12.58,-16.91,16.91,17.68,9.09,4.32,4.33,4.32
22.54,-12.48,-16.82,-12.46,-16.80,16.80,17.55,9.30,4.32,4.34,4.33
22.76,-12.37,-16.71,-12.34,-16.69,16.69,17.41,9.51,4.32,4.35,4.34
22.99,-12.27,-16.61,-12.21,-16.57,16.57,17.26,9.72,4.30,4.36,4.34
23.22,-12.12,-16.47,-12.08,-16.44,16.44,17.10,9.95,4.32,4.37,4.35
23.45,-11.97,-16.33,-11.94,-16.31,16.31,16.94,10.17,4.34,4.37,4.36
23.69,-11.82,-16.20,-11.80,-16.17,16.17,16.77,10.41,4.35,4.38,4.37
23.92,-11.67,-16.05,-11.66,-16.04,16.04,16.60,10.65,4.37,4.38,4.38
24.16,-11.51,-15.90,-11.52,-15.90,15.90,16.43,10.89,4.39,4.38,4.39
24.40,-11.36,-15.76,-11.38,-15.77,15.77,16.26,11.14,4.41,4.39,4.40
24.65,-11.20,-15.60,-11.25,-15.64,15.64,16.09,11.40,4.44,4.39,4.39
24.89,-11.05,-15.44,-11.12,-15.51,15.51,15.92,11.67,4.47,4.39,4.39
25.14,-10.93,-15.32,-11.00,-15.39,15.39,15.74,11.94,4.46,4.39,4.39
25.39,-10.84,-15.23,-10.87,-15.27,15.27,15.58,12.21,4.43,4.39,4.39
25.65,-10.75,-15.14,-10.75,-15.15,15.15,15.41,12.49,4.40,4.39,4.39
25.91,-10.66,-15.04,-10.64,-15.03,15.03,15.25,12.78,4.37,4.39,4.37
26.16,-10.57,-14.95,-10.54,-14.93,14.93,15.09,13.07,4.36,4.39,4.38
26.43,-10.47,-14.86,-10.44,-14.82,14.82,14.93,13.37,4.35,4.39,4.38
26.69,-10.37,-14.75,-10.34,-14.72,14.72,14.78,13.67,4.35,4.38,4.38
26.96,-10.28,-14.67,-10.25,-14.63,14.63,14.63,13.97,4.34,4.38,4.38
27.23,-10.16,-14.55,-10.15,-14.53,14.53,14.48,14.28,4.37,4.38,4.38
27.50,-10.04,-14.42,-10.06,-14.44,14.44,14.34,14.58,4.40,4.38,4.38
27.77,-9.92,-14.29,-9.96,-14.34,14.34,14.20,14.89,4.42,4.37,4.37
28.05,-9.81,-14.18,-9.87,-14.24,14.24,14.07,15.18,4.43,4.37,4.37
28.33,-9.74,-14.09,-9.77,-14.14,14.14,13.93,15.48,4.40,4.37,4.35
28.62,-9.67,-14.04,-9.66,-14.03,14.03,13.81,15.76,4.36,4.37,4.36
28.90,-9.59,-13.95,-9.56,-13.92,13.92,13.68,16.03,4.33,4.37,4.36
29.19,-9.49,-13.84,-9.44,-13.80,13.80,13.56,16.28,4.32,4.36,4.35
29.48,-9.36,-13.72,-9.32,-13.68,13.68,13.45,16.51,4.32,4.36,4.36
29.78,-9.23,-13.60,-9.20,-13.56,13.56,13.33,16.71,4.33,4.35,4.36
30.08,-9.11,-13.48,-9.08,-13.43,13.43,13.22,16.88,4.32,4.35,4.36
30.38,-8.98,-13.33,-8.96,-13.30,13.30,13.11,17.01,4.32,4.35,4.34
30.68,-8.86,-13.20,-8.83,-13.17,13.17,13.01,17.11,4.31,4.34,4.34
30.99,-8.74,-13.08,-8.71,-13.05,13.05,12.91,17.16,4.30,4.34,4.33
31.30,-8.57,-12.91,-8.58,-12.92,12.92,12.81,17.18,4.34,4.33,4.33
31.61,-8.41,-12.74,-8.46,-12.79,12.79,12.71,17.15,4.38,4.33,4.33
31.93,-8.25,-12.57,-8.35,-12.67,12.67,12.61,17.07,4.42,4.32,4.31
32.24,-8.16,-12.46,-8.25,-12.56,12.56,12.52,16.96,4.40,4.32,4.30
32.57,-8.09,-12.39,-8.14,-12.45,12.45,12.43,16.81,4.36,4.31,4.30
32.89,-8.02,-12.32,-8.04,-12.34,12.34,12.33,16.63,4.33,4.31,4.30
33.22,-7.94,-12.24,-7.94,-12.24,12.24,12.24,16.42,4.30,4.30,4.30
33.55,-7.86,-12.15,-7.84,-12.13,12.13,12.16,16.19,4.28,4.30,4.29
33.89,-7.78,-12.07,-7.74,-12.03,12.03,12.07,15.94,4.25,4.29,4.29
34.23,-7.70,-11.99,-7.65,-11.93,11.93,11.98,15.67,4.23,4.29,4.29
34.57,-7.62,-11.90,-7.55,-11.83,11.83,11.89,15.39,4.21,4.28,4.28
34.92,-7.54,-11.82,-7.45,-11.73,11.73,11.80,15.11,4.19,4.28,4.27
35.27,-7.40,-11.68,-7.36,-11.63,11.63,11.71,14.82,4.22,4.27,4.27
35.62,-7.24,-11.51,-7.26,-11.52,11.52,11.63,14.53,4.28,4.27,4.26
35.97,-7.08,-11.33,-7.15,-11.41,11.41,11.54,14.23,4.33,4.26,4.25
36.33,-6.99,-11.24,-7.04,-11.30,11.30,11.45,13.94,4.31,4.25,4.25
36.70,-6.91,-11.16,-6.94,-11.18,11.18,11.36,13.66,4.27,4.25,4.25
37.06,-6.82,-11.05,-6.84,-11.08,11.08,11.26,13.37,4.26,4.24,4.23
37.43,-6.72,-10.95,-6.74,-10.97,10.97,11.17,13.09,4.26,4.23,4.23
37.81,-6.61,-10.83,-6.64,-10.87,10.87,11.07,12.82,4.26,4.23,4.22
38.19,-6.53,-10.74,-6.54,-10.76,10.76,10.98,12.55,4.23,4.22,4.21
38.57,-6.46,-10.67,-6.44,-10.66,10.66,10.88,12.29,4.20,4.21,4.21
38.95,-6.39,-10.59,-6.35,-10.55,10.55,10.78,12.03,4.16,4.21,4.20
39.34,-6.29,-10.48,-6.26,-10.46,10.46,10.68,11.78,4.17,4.20,4.19
39.74,-6.19,-10.36,-6.17,-10.36,10.36,10.57,11.54,4.17,4.19,4.17
40.14,-6.09,-10.28,-6.08,-10.26,10.26,10.47,11.30,4.17,4.18,4.18
40.54,-6.02,-10.19,-5.98,-10.16,10.16,10.36,11.07,4.14,4.17,4.17
40.94,-5.94,-10.11,-5.89,-10.05,10.05,10.25,10.84,4.11,4.16,4.17
41.35,-5.78,-9.93,-5.80,-9.94,9.94,10.14,10.63,4.16,4.15,4.15
41.76,-5.62,-9.75,-5.71,-9.83,9.83,10.02,10.41,4.21,4.13,4.13
42.18,-5.51,-9.63,-5.61,-9.72,9.72,9.91,10.21,4.21,4.11,4.12
42.60,-5.49,-9.58,-5.51,-9.60,9.60,9.79,10.01,4.11,4.08,4.09
43.03,-5.46,-9.54,-5.41,-9.47,9.47,9.67,9.82,4.01,4.06,4.08
43.46,-5.36,-9.41,-5.32,-9.35,9.35,9.55,9.63,3.99,4.03,4.05
43.90,-5.26,-9.27,-5.23,-9.24,9.24,9.42,9.45,3.98,4.01,4.00
44.33,-5.16,-9.13,-5.14,-9.12,9.12,9.30,9.27,3.96,3.98,3.97
44.78,-5.06,-9.00,-5.05,-9.00,9.00,9.17,9.10,3.94,3.95,3.94
45.23,-4.96,-8.88,-4.96,-8.88,8.88,9.05,8.93,3.92,3.93,3.91
45.68,-4.86,-8.74,-4.87,-8.77,8.77,8.92,8.77,3.91,3.90,3.88
46.13,-4.76,-8.62,-4.79,-8.67,8.67,8.79,8.61,3.91,3.88,3.86
46.60,-4.65,-8.51,-4.70,-8.56,8.56,8.66,8.46,3.91,3.86,3.85
47.06,-4.56,-8.39,-4.60,-8.45,8.45,8.53,8.31,3.89,3.85,3.83
47.53,-4.53,-8.36,-4.51,-8.34,8.34,8.40,8.17,3.81,3.83,3.83
48.01,-4.51,-8.34,-4.42,-8.24,8.24,8.27,8.03,3.73,3.83,3.83
48.49,-4.36,-8.17,-4.33,-8.15,8.15,8.14,7.90,3.79,3.82,3.81
48.97,-4.21,-8.01,-4.25,-8.06,8.06,8.01,7.77,3.85,3.82,3.80
49.46,-4.15,-7.94,-4.16,-7.98,7.98,7.88,7.64,3.83,3.81,3.79
49.96,-4.10,-7.89,-4.08,-7.89,7.89,7.75,7.52,3.79,3.81,3.79
50.46,-3.99,-7.79,-4.00,-7.81,7.81,7.62,7.40,3.82,3.81,3.80
50.96,-3.88,-7.69,-3.93,-7.73,7.73,7.49,7.29,3.85,3.80,3.81
51.47,-3.82,-7.62,-3.85,-7.64,7.64,7.36,7.17,3.82,3.79,3.80
51.99,-3.77,-7.55,-3.77,-7.54,7.54,7.23,7.06,3.77,3.77,3.78
52.51,-3.71,-7.48,-3.69,-7.44,7.44,7.10,6.96,3.73,3.75,3.77
53.03,-3.64,-7.38,-3.61,-7.33,7.33,6.98,6.85,3.69,3.73,3.74
53.56,-3.52,-7.23,-3.53,-7.22,7.22,6.85,6.75,3.70,3.70,3.71
54.10,-3.42,-7.10,-3.45,-7.11,7.11,6.73,6.65,3.69,3.66,3.67
54.64,-3.42,-7.04,-3.37,-6.99,6.99,6.60,6.55,3.57,3.62,3.62
55.18,-3.38,-6.95,-3.29,-6.87,6.87,6.48,6.46,3.49,3.58,3.57
55.74,-3.25,-6.78,-3.22,-6.74,6.74,6.36,6.36,3.49,3.53,3.52
56.29,-3.12,-6.59,-3.15,-6.62,6.62,6.24,6.27,3.50,3.47,3.47
56.86,-2.99,-6.41,-3.08,-6.49,6.49,6.12,6.18,3.50,3.41,3.41
57.42,-2.96,-6.30,-3.01,-6.37,6.37,6.01,6.09,3.41,3.35,3.34
58.00,-2.96,-6.24,-2.94,-6.24,6.24,5.89,6.00,3.28,3.29,3.28
58.58,-2.83,-6.05,-2.88,-6.11,6.11,5.78,5.91,3.28,3.23,3.22
59.16,-2.74,-5.91,-2.82,-5.99,5.99,5.67,5.82,3.25,3.17,3.17
59.76,-2.74,-5.85,-2.76,-5.87,5.87,5.56,5.73,3.13,3.11,3.11
60.35,-2.74,-5.78,-2.69,-5.74,5.74,5.45,5.64,3.00,3.05,3.04
60.96,-2.74,-5.73,-2.63,-5.61,5.61,5.34,5.55,2.87,2.99,2.99
61.57,-2.61,-5.54,-2.57,-5.49,5.49,5.23,5.47,2.88,2.93,2.92
62.18,-2.51,-5.36,-2.51,-5.38,5.38,5.13,5.38,2.87,2.87,2.85
62.80,-2.51,-5.32,-2.45,-5.27,5.27,5.03,5.29,2.76,2.82,2.81
63.43,-2.41,-5.16,-2.38,-5.15,5.15,4.93,5.20,2.74,2.76,2.75
64.07,-2.28,-5.00,-2.32,-5.03,5.03,4.83,5.11,2.75,2.72,2.71
64.71,-2.24,-4.90,-2.26,-4.93,4.93,4.73,5.02,2.69,2.67,2.66
65.35,-2.17,-4.78,-2.20,-4.82,4.82,4.63,4.93,2.65,2.63,2.61
66.01,-2.05,-4.63,-2.12,-4.71,4.71,4.54,4.84,2.66,2.59,2.58
66.67,-2.05,-4.59,-2.04,-4.59,4.59,4.44,4.75,2.54,2.55,2.54
67.33,-2.02,-4.53,-1.97,-4.49,4.49,4.35,4.66,2.47,2.51,2.51
68.01,-1.95,-4.43,-1.91,-4.39,4.39,4.26,4.57,2.44,2.48,2.48
68.69,-1.86,-4.31,-1.87,-4.32,4.32,4.17,4.48,2.46,2.45,2.45
69.37,-1.82,-4.23,-1.83,-4.25,4.25,4.09,4.39,2.43,2.42,2.41
70.07,-1.82,-4.20,-1.80,-4.19,4.19,4.00,4.30,2.37,2.39,2.38
70.77,-1.82,-4.19,-1.79,-4.15,4.15,3.92,4.21,2.33,2.36,2.37
71.48,-1.71,-4.04,-1.78,-4.11,4.11,3.84,4.12,2.40,2.33,2.33
72.19,-1.60,-3.91,-1.76,-4.06,4.06,3.76,4.03,2.46,2.30,2.31
72.91,-1.60,-3.87,-1.76,-4.03,4.03,3.68,3.94,2.42,2.27,2.27
73.64,-1.74,-3.98,-1.75,-3.99,3.99,3.60,3.85,2.25,2.24,2.24
74.38,-1.82,-4.03,-1.75,-3.96,3.96,3.52,3.76,2.14,2.21,2.21
75.12,-1.82,-4.00,-1.74,-3.92,3.92,3.45,3.68,2.10,2.18,2.18
75.87,-1.82,-3.97,-1.75,-3.90,3.90,3.37,3.59,2.08,2.15,2.15
76.63,-1.82,-3.94,-1.74,-3.87,3.87,3.30,3.51,2.05,2.13,2.12
77.40,-1.80,-3.89,-1.73,-3.83,3.83,3.23,3.42,2.03,2.10,2.09
78.17,-1.73,-3.79,-1.70,-3.78,3.78,3.16,3.34,2.05,2.08,2.06
78.95,-1.61,-3.66,-1.67,-3.73,3.73,3.09,3.26,2.12,2.05,2.05
79.74,-1.60,-3.63,-1.64,-3.68,3.68,3.02,3.18,2.08,2.04,2.03
80.54,-1.60,-3.61,-1.60,-3.62,3.62,2.95,3.10,2.02,2.02,2.01
81.35,-1.59,-3.58,-1.54,-3.55,3.55,2.89,3.02,1.96,2.01,1.99
82.16,-1.55,-3.54,-1.47,-3.47,3.47,2.82,2.94,1.92,2.00,1.99
82.98,-1.37,-3.36,-1.40,-3.39,3.39,2.76,2.86,2.02,1.99,1.99
83.81,-1.37,-3.35,-1.34,-3.33,3.33,2.70,2.79,1.96,1.99,1.98
84.65,-1.22,-3.19,-1.28,-3.27,3.27,2.64,2.71,2.05,1.99,1.97
85.50,-1.14,-3.12,-1.22,-3.20,3.20,2.58,2.64,2.06,1.99,1.98
86.35,-1.14,-3.12,-1.16,-3.14,3.14,2.52,2.57,2.00,1.99,1.98
87.22,-1.13,-3.11,-1.10,-3.09,3.09,2.46,2.50,1.96,1.99,1.98
88.09,-1.07,-3.05,-1.04,-3.03,3.03,2.40,2.43,1.96,1.99,1.98
88.97,-0.92,-2.92,-0.98,-2.97,2.97,2.35,2.36,2.05,1.99,2.00
89.86,-0.91,-2.91,-0.94,-2.92,2.92,2.29,2.29,2.01,1.99,2.00
90.76,-0.91,-2.89,-0.89,-2.88,2.88,2.24,2.23,1.97,1.99,1.98
91.66,-0.91,-2.90,-0.85,-2.83,2.83,2.18,2.16,1.92,1.98,1.99
92.58,-0.83,-2.79,-0.81,-2.79,2.79,2.13,2.10,1.96,1.97,1.96
93.51,-0.73,-2.70,-0.77,-2.74,2.74,2.08,2.03,2.01,1.96,1.97
94.44,-0.68,-2.63,-0.74,-2.69,2.69,2.03,1.97,2.01,1.95,1.95
95.39,-0.68,-2.62,-0.70,-2.63,2.63,1.98,1.91,1.95,1.93,1.94
96.34,-0.68,-2.58,-0.66,-2.58,2.58,1.93,1.85,1.90,1.92,1.90
97.30,-0.68,-2.56,-0.64,-2.53,2.53,1.88,1.79,1.85,1.89,1.88
98.28,-0.68,-2.54,-0.61,-2.48,2.48,1.83,1.73,1.80,1.87,1.86
99.26,-0.62,-2.45,-0.59,-2.42,2.42,1.78,1.68,1.80,1.84,1.83
100.25,-0.46,-2.26,-0.55,-2.36,2.36,1.73,1.62,1.90,1.81,1.80
101.25,-0.46,-2.23,-0.52,-2.29,2.29,1.69,1.57,1.83,1.77,1.77
102.27,-0.46,-2.19,-0.48,-2.21,2.21,1.64,1.51,1.75,1.73,1.73
103.29,-0.46,-2.14,-0.46,-2.14,2.14,1.59,1.46,1.68,1.68,1.68
104.32,-0.46,-2.10,-0.43,-2.06,2.06,1.55,1.41,1.60,1.63,1.64
105.37,-0.46,-2.05,-0.40,-1.98,1.98,1.50,1.35,1.52,1.58,1.59
106.42,-0.46,-2.00,-0.37,-1.90,1.90,1.46,1.30,1.44,1.52,1.54
107.48,-0.36,-1.83,-0.35,-1.81,1.81,1.41,1.25,1.45,1.46,1.47
108.56,-0.24,-1.63,-0.33,-1.72,1.72,1.37,1.21,1.48,1.40,1.39
109.64,-0.23,-1.55,-0.30,-1.63,1.63,1.33,1.16,1.40,1.33,1.32
110.74,-0.23,-1.49,-0.28,-1.54,1.54,1.28,1.11,1.31,1.25,1.26
111.85,-0.23,-1.42,-0.26,-1.44,1.44,1.24,1.07,1.21,1.18,1.19
112.97,-0.23,-1.33,-0.23,-1.34,1.34,1.20,1.02,1.11,1.11,1.10
114.10,-0.23,-1.27,-0.20,-1.23,1.23,1.15,0.98,1.00,1.04,1.04
115.24,-0.23,-1.19,-0.17,-1.14,1.14,1.11,0.94,0.91,0.97,0.96
116.39,-0.23,-1.11,-0.14,-1.04,1.04,1.07,0.89,0.81,0.90,0.88
117.55,-0.22,-1.04,-0.11,-0.95,0.95,1.02,0.85,0.73,0.84,0.82
118.73,-0.06,-0.81,-0.09,-0.87,0.87,0.98,0.81,0.81,0.78,0.75
119.92,-0.00,-0.71,-0.09,-0.81,0.81,0.94,0.77,0.81,0.73,0.71
121.12,0.00,-0.65,-0.08,-0.76,0.76,0.89,0.74,0.76,0.68,0.65
122.33,0.00,-0.61,-0.06,-0.69,0.69,0.85,0.70,0.69,0.63,0.61
123.55,0.00,-0.59,-0.04,-0.63,0.63,0.81,0.66,0.63,0.59,0.59
124.79,0.00,-0.55,-0.02,-0.57,0.57,0.76,0.63,0.57,0.55,0.55
126.03,0.00,-0.51,0.00,-0.51,0.51,0.72,0.60,0.51,0.51,0.51
127.29,0.00,-0.48,0.03,-0.45,0.45,0.67,0.56,0.45,0.48,0.48
128.57,0.00,-0.44,0.05,-0.39,0.39,0.63,0.53,0.39,0.44,0.44
129.85,0.00,-0.41,0.07,-0.34,0.34,0.58,0.50,0.34,0.41,0.41
131.15,0.00,-0.38,0.09,-0.29,0.29,0.54,0.47,0.29,0.38,0.38
132.46,0.00,-0.35,0.10,-0.25,0.25,0.49,0.44,0.25,0.35,0.35
133.79,0.14,-0.18,0.12,-0.20,0.20,0.44,0.41,0.34,0.31,0.32
135.12,0.23,-0.04,0.14,-0.14,0.14,0.40,0.39,0.37,0.28,0.27
136.48,0.23,-0.01,0.16,-0.09,0.09,0.35,0.36,0.32,0.25,0.24
137.84,0.23,0.02,0.18,-0.03,0.03,0.30,0.33,0.26,0.21,0.21
139.22,0.23,0.07,0.20,0.02,-0.02,0.25,0.31,0.21,0.18,0.16
140.61,0.23,0.12,0.22,0.08,-0.08,0.20,0.28,0.15,0.14,0.11
142.02,0.23,0.14,0.23,0.13,-0.13,0.15,0.26,0.10,0.10,0.09
143.44,0.23,0.18,0.24,0.19,-0.19,0.09,0.23,0.04,0.05,0.05
144.87,0.23,0.22,0.25,0.25,-0.25,0.04,0.21,-0.02,-0.00,0.01
146.32,0.23,0.27,0.25,0.30,-0.30,-0.01,0.18,-0.07,-0.06,-0.04
147.78,0.23,0.31,0.24,0.36,-0.36,-0.07,0.16,-0.13,-0.11,-0.08
149.26,0.23,0.38,0.24,0.41,-0.41,-0.13,0.14,-0.18,-0.18,-0.15
150.75,0.23,0.46,0.24,0.48,-0.48,-0.18,0.11,-0.25,-0.24,-0.23
152.26,0.23,0.53,0.25,0.56,-0.56,-0.24,0.09,-0.33,-0.31,-0.30
153.78,0.23,0.60,0.25,0.63,-0.63,-0.30,0.06,-0.40,-0.38,-0.37
155.32,0.23,0.70,0.24,0.70,-0.70,-0.36,0.04,-0.47,-0.46,-0.47
156.88,0.23,0.77,0.24,0.76,-0.76,-0.42,0.02,-0.53,-0.53,-0.54
158.44,0.23,0.84,0.22,0.82,-0.82,-0.48,-0.01,-0.59,-0.60,-0.61
160.03,0.23,0.92,0.21,0.87,-0.87,-0.54,-0.03,-0.64,-0.66,-0.69
161.63,0.23,0.98,0.19,0.91,-0.91,-0.60,-0.06,-0.68,-0.72,-0.75
163.24,0.23,1.03,0.17,0.95,-0.95,-0.66,-0.08,-0.72,-0.77,-0.80
164.88,0.23,1.07,0.15,0.97,-0.97,-0.72,-0.11,-0.74,-0.82,-0.84
166.53,0.19,1.07,0.13,0.98,-0.98,-0.78,-0.13,-0.79,-0.85,-0.88
168.19,0.07,0.98,0.11,0.98,-0.98,-0.83,-0.16,-0.91,-0.88,-0.91
169.87,0.00,0.92,0.08,0.98,-0.98,-0.89,-0.19,-0.98,-0.90,-0.92
171.57,0.00,0.93,0.07,0.97,-0.97,-0.94,-0.21,-0.97,-0.91,-0.93
173.29,0.00,0.93,0.05,0.97,-0.97,-0.98,-0.24,-0.97,-0.91,-0.93
175.02,0.00,0.91,0.04,0.96,-0.96,-1.03,-0.27,-0.96,-0.92,-0.91
176.77,0.00,0.92,0.03,0.95,-0.95,-1.07,-0.30,-0.95,-0.92,-0.92
178.54,0.00,0.91,0.01,0.93,-0.93,-1.10,-0.33,-0.93,-0.92,-0.91
180.32,0.00,0.90,-0.01,0.91,-0.91,-1.14,-0.36,-0.91,-0.92,-0.90
182.13,0.00,0.90,-0.03,0.89,-0.89,-1.16,-0.39,-0.89,-0.92,-0.90
183.95,0.00,0.90,-0.04,0.88,-0.88,-1.18,-0.42,-0.88,-0.92,-0.90
185.79,0.00,0.91,-0.05,0.87,-0.87,-1.20,-0.45,-0.87,-0.93,-0.91
187.65,0.00,0.93,-0.06,0.87,-0.87,-1.21,-0.48,-0.87,-0.93,-0.93
189.52,-0.00,0.95,-0.08,0.86,-0.86,-1.21,-0.51,-0.86,-0.94,-0.95
191.42,-0.06,0.91,-0.10,0.85,-0.85,-1.21,-0.54,-0.91,-0.96,-0.97
193.33,-0.18,0.81,-0.13,0.85,-0.85,-1.20,-0.57,-1.03,-0.98,-0.99
195.27,-0.23,0.76,-0.15,0.84,-0.84,-1.19,-0.61,-1.07,-0.99,-0.99
197.22,-0.23,0.78,-0.17,0.84,-0.84,-1.18,-0.64,-1.07,-1.01,-1.01
199.19,-0.23,0.82,-0.19,0.84,-0.84,-1.16,-0.67,-1.07,-1.03,-1.05
201.18,-0.23,0.82,-0.21,0.84,-0.84,-1.13,-0.71,-1.07,-1.05,-1.05
203.19,-0.23,0.84,-0.22,0.84,-0.84,-1.11,-0.74,-1.07,-1.07,-1.07
205.23,-0.23,0.87,-0.24,0.85,-0.85,-1.08,-0.77,-1.08,-1.09,-1.10
207.28,-0.23,0.87,-0.24,0.86,-0.86,-1.05,-0.80,-1.09,-1.10,-1.10
209.35,-0.23,0.89,-0.25,0.87,-0.87,-1.01,-0.84,-1.10,-1.12,-1.12
211.44,-0.23,0.92,-0.25,0.89,-0.89,-0.98,-0.87,-1.12,-1.13,-1.15
213.56,-0.23,0.92,-0.23,0.91,-0.91,-0.94,-0.90,-1.14,-1.15,-1.15
215.69,-0.23,0.92,-0.22,0.94,-0.94,-0.91,-0.93,-1.17,-1.16,-1.15
217.85,-0.23,0.95,-0.21,0.96,-0.96,-0.87,-0.96,-1.19,-1.17,-1.18
220.03,-0.23,0.96,-0.21,0.97,-0.97,-0.83,-0.98,-1.20,-1.18,-1.19
222.23,-0.23,0.98,-0.22,0.98,-0.98,-0.80,-1.01,-1.21,-1.20,-1.21
224.45,-0.23,0.98,-0.23,0.97,-0.97,-0.76,-1.04,-1.20,-1.20,-1.21
226.70,-0.23,0.98,-0.25,0.97,-0.97,-0.73,-1.06,-1.20,-1.21,-1.21
228.96,-0.23,0.99,-0.27,0.95,-0.95,-0.69,-1.08,-1.18,-1.22,-1.22
231.25,-0.23,0.99,-0.30,0.93,-0.93,-0.66,-1.10,-1.16,-1.22,-1.22
233.57,-0.23,1.00,-0.32,0.91,-0.91,-0.63,-1.12,-1.14,-1.23,-1.23
235.90,-0.23,1.01,-0.33,0.89,-0.89,-0.60,-1.13,-1.12,-1.23,-1.24
238.26,-0.34,0.90,-0.35,0.88,-0.88,-0.57,-1.15,-1.22,-1.23,-1.24
240.64,-0.44,0.80,-0.36,0.87,-0.87,-0.54,-1.16,-1.31,-1.23,-1.24
243.05,-0.46,0.77,-0.36,0.86,-0.86,-0.51,-1.16,-1.32,-1.22,-1.23
245.48,-0.46,0.76,-0.37,0.85,-0.85,-0.49,-1.17,-1.31,-1.22,-1.22
247.93,-0.46,0.75,-0.36,0.85,-0.85,-0.46,-1.17,-1.31,-1.22,-1.21
250.41,-0.46,0.76,-0.36,0.85,-0.85,-0.44,-1.17,-1.31,-1.21,-1.22
252.92,-0.41,0.80,-0.35,0.85,-0.85,-0.41,-1.17,-1.26,-1.20,-1.21
255.45,-0.26,0.92,-0.34,0.85,-0.85,-0.39,-1.16,-1.11,-1.19,-1.18
258.00,-0.23,0.95,-0.33,0.86,-0.86,-0.37,-1.15,-1.09,-1.18,-1.18
260.58,-0.23,0.95,-0.31,0.87,-0.87,-0.35,-1.14,-1.10,-1.17,-1.18
263.19,-0.23,0.93,-0.28,0.88,-0.88,-0.34,-1.13,-1.11,-1.16,-1.16
265.82,-0.23,0.93,-0.24,0.90,-0.90,-0.32,-1.11,-1.13,-1.14,-1.16
268.48,-0.23,0.90,-0.22,0.91,-0.91,-0.30,-1.09,-1.14,-1.13,-1.13
271.16,-0.23,0.89,-0.21,0.90,-0.90,-0.29,-1.07,-1.13,-1.11,-1.12
273.87,-0.23,0.88,-0.21,0.89,-0.89,-0.27,-1.05,-1.12,-1.09,-1.11
276.61,-0.23,0.84,-0.21,0.86,-0.86,-0.26,-1.02,-1.09,-1.07,-1.07
279.38,-0.23,0.83,-0.23,0.82,-0.82,-0.24,-0.99,-1.05,-1.05,-1.06
282.17,-0.23,0.80,-0.25,0.77,-0.77,-0.23,-0.97,-1.00,-1.02,-1.03
284.99,-0.23,0.77,-0.28,0.72,-0.72,-0.22,-0.93,-0.95,-1.00,-1.00
287.84,-0.23,0.75,-0.30,0.67,-0.67,-0.21,-0.90,-0.90,-0.97,-0.98
290.72,-0.23,0.71,-0.32,0.62,-0.62,-0.20,-0.87,-0.85,-0.94,-0.94
293.63,-0.34,0.58,-0.34,0.57,-0.57,-0.19,-0.83,-0.91,-0.91,-0.92
296.57,-0.44,0.45,-0.36,0.52,-0.52,-0.18,-0.80,-0.96,-0.89,-0.89
299.53,-0.46,0.40,-0.39,0.48,-0.48,-0.17,-0.76,-0.94,-0.86,-0.86
302.53,-0.46,0.39,-0.41,0.43,-0.43,-0.16,-0.73,-0.89,-0.84,-0.85
305.55,-0.46,0.35,-0.43,0.39,-0.39,-0.15,-0.69,-0.85,-0.82,-0.81
308.61,-0.46,0.33,-0.44,0.36,-0.36,-0.15,-0.65,-0.82,-0.80,-0.79
311.69,-0.46,0.32,-0.46,0.33,-0.33,-0.14,-0.61,-0.79,-0.79,-0.78
314.81,-0.46,0.29,-0.47,0.30,-0.30,-0.13,-0.57,-0.76,-0.77,-0.75
317.96,-0.46,0.29,-0.48,0.28,-0.28,-0.13,-0.54,-0.74,-0.76,-0.75
321.14,-0.46,0.30,-0.48,0.27,-0.27,-0.12,-0.50,-0.73,-0.75,-0.76
324.35,-0.46,0.29,-0.48,0.27,-0.27,-0.11,-0.46,-0.73,-0.74,-0.75
327.59,-0.46,0.28,-0.47,0.26,-0.26,-0.11,-0.42,-0.72,-0.73,-0.74
330.87,-0.46,0.27,-0.46,0.26,-0.26,-0.10,-0.38,-0.72,-0.72,-0.73
334.18,-0.46,0.27,-0.46,0.25,-0.25,-0.10,-0.34,-0.71,-0.71,-0.73
337.52,-0.46,0.26,-0.46,0.24,-0.24,-0.10,-0.30,-0.70,-0.70,-0.72
340.90,-0.46,0.23,-0.45,0.24,-0.24,-0.09,-0.26,-0.70,-0.69,-0.69
344.30,-0.46,0.22,-0.44,0.23,-0.23,-0.09,-0.22,-0.69,-0.67,-0.68
347.75,-0.46,0.21,-0.44,0.21,-0.21,-0.08,-0.19,-0.67,-0.65,-0.67
351.23,-0.46,0.18,-0.45,0.19,-0.19,-0.08,-0.15,-0.65,-0.63,-0.64
354.74,-0.46,0.16,-0.46,0.16,-0.16,-0.08,-0.11,-0.62,-0.61,-0.62
358.28,-0.46,0.13,-0.47,0.12,-0.12,-0.07,-0.07,-0.58,-0.59,-0.59
361.87,-0.46,0.11,-0.48,0.08,-0.08,-0.07,-0.03,-0.54,-0.57,-0.57
365.49,-0.46,0.09,-0.50,0.04,-0.04,-0.07,0.00,-0.50,-0.54,-0.55
369.14,-0.46,0.07,-0.52,0.00,-0.00,-0.07,0.04,-0.46,-0.52,-0.53
372.83,-0.46,0.04,-0.54,-0.04,0.04,-0.06,0.08,-0.42,-0.50,-0.50
376.56,-0.51,-0.03,-0.56,-0.08,0.08,-0.06,0.12,-0.43,-0.48,-0.48
380.33,-0.65,-0.20,-0.58,-0.12,0.12,-0.06,0.15,-0.53,-0.46,-0.45
384.13,-0.68,-0.25,-0.60,-0.16,0.16,-0.06,0.19,-0.52,-0.44,-0.43
387.97,-0.68,-0.26,-0.62,-0.20,0.20,-0.06,0.23,-0.48,-0.43,-0.42
391.85,-0.68,-0.26,-0.64,-0.23,0.23,-0.05,0.26,-0.45,-0.41,-0.42
395.77,-0.68,-0.27,-0.66,-0.26,0.26,-0.05,0.30,-0.42,-0.40,-0.41
399.73,-0.68,-0.28,-0.67,-0.28,0.28,-0.05,0.34,-0.40,-0.39,-0.40
403.72,-0.68,-0.29,-0.69,-0.30,0.30,-0.05,0.37,-0.38,-0.38,-0.39
407.76,-0.68,-0.30,-0.69,-0.32,0.32,-0.05,0.41,-0.36,-0.38,-0.38
411.84,-0.68,-0.31,-0.69,-0.32,0.32,-0.05,0.44,-0.36,-0.37,-0.37
415.96,-0.68,-0.32,-0.68,-0.32,0.32,-0.05,0.48,-0.36,-0.37,-0.36
420.12,-0.68,-0.32,-0.67,-0.31,0.31,-0.05,0.51,-0.37,-0.36,-0.36
424.32,-0.68,-0.32,-0.66,-0.30,0.30,-0.05,0.54,-0.38,-0.36,-0.36
428.56,-0.68,-0.32,-0.67,-0.31,0.31,-0.05,0.57,-0.37,-0.36,-0.36
432.85,-0.68,-0.31,-0.68,-0.32,0.32,-0.04,0.61,-0.36,-0.36,-0.37
437.18,-0.68,-0.32,-0.69,-0.34,0.34,-0.04,0.64,-0.34,-0.35,-0.36
441.55,-0.68,-0.33,-0.70,-0.36,0.36,-0.04,0.67,-0.32,-0.35,-0.35
445.96,-0.68,-0.33,-0.72,-0.38,0.38,-0.04,0.70,-0.30,-0.34,-0.35
450.42,-0.68,-0.34,-0.74,-0.41,0.41,-0.04,0.72,-0.27,-0.33,-0.34
454.93,-0.68,-0.35,-0.76,-0.44,0.44,-0.04,0.75,-0.24,-0.32,-0.33
