frequency,raw,error,smoothed,error_smoothed,equalization,parametric_eq,fixed_band_eq,equalized_raw,equalized_smoothed,target
20.00,-4.87,-7.74,-4.87,-7.74,7.74,7.09,2.55,2.87,2.87,2.87
20.20,-4.80,-7.71,-4.80,-7.72,7.72,7.11,2.63,2.91,2.91,2.91
20.40,-4.73,-7.68,-4.73,-7.68,7.69,7.13,2.70,2.95,2.95,2.95
20.61,-4.66,-7.65,-4.66,-7.65,7.65,7.14,2.78,2.99,2.99,2.98
20.81,-4.59,-7.61,-4.59,-7.62,7.61,7.15,2.86,3.02,3.02,3.02
21.02,-4.52,-7.58,-4.52,-7.57,7.57,7.16,2.94,3.05,3.05,3.06
21.23,-4.44,-7.52,-4.45,-7.53,7.53,7.16,3.02,3.08,3.08,3.08
21.44,-4.37,-7.47,-4.37,-7.48,7.48,7.16,3.11,3.10,3.10,3.10
21.66,-4.30,-7.42,-4.30,-7.42,7.42,7.16,3.19,3.12,3.12,3.12
21.87,-4.22,-7.35,-4.23,-7.36,7.36,7.16,3.28,3.14,3.13,3.13
22.09,-4.15,-7.30,-4.15,-7.30,7.30,7.15,3.38,3.14,3.14,3.15
22.31,-4.07,-7.23,-4.07,-7.23,7.23,7.14,3.47,3.15,3.15,3.16
22.54,-3.99,-7.17,-3.99,-7.16,7.16,7.12,3.57,3.16,3.16,3.17
22.76,-3.90,-7.08,-3.91,-7.08,7.08,7.10,3.67,3.18,3.18,3.18
22.99,-3.82,-7.00,-3.82,-7.01,7.02,7.08,3.77,3.19,3.19,3.18
23.22,-3.74,-6.93,-3.75,-6.94,6.95,7.06,3.88,3.21,3.20,3.19
23.45,-3.67,-6.87,-3.67,-6.87,6.88,7.03,3.98,3.21,3.21,3.20
23.69,-3.60,-6.82,-3.60,-6.81,6.82,7.00,4.09,3.21,3.22,3.21
23.92,-3.52,-6.74,-3.53,-6.76,6.76,6.97,4.21,3.23,3.22,3.22
24.16,-3.47,-6.71,-3.47,-6.71,6.70,6.93,4.32,3.22,3.23,3.24
24.40,-3.40,-6.66,-3.40,-6.65,6.64,6.90,4.43,3.23,3.24,3.26
24.65,-3.32,-6.58,-3.32,-6.58,6.58,6.86,4.55,3.25,3.25,3.25
24.89,-3.24,-6.50,-3.25,-6.51,6.51,6.81,4.67,3.27,3.27,3.26
25.14,-3.17,-6.44,-3.17,-6.44,6.45,6.77,4.79,3.28,3.28,3.27
25.39,-3.10,-6.38,-3.10,-6.39,6.39,6.72,4.91,3.28,3.28,3.28
25.65,-3.03,-6.33,-3.03,-6.32,6.32,6.67,5.03,3.29,3.29,3.30
25.91,-2.95,-6.26,-2.95,-6.26,6.26,6.62,5.15,3.30,3.30,3.30
26.16,-2.87,-6.18,-2.88,-6.19,6.19,6.57,5.27,3.32,3.32,3.31
26.43,-2.80,-6.13,-2.80,-6.12,6.13,6.51,5.39,3.33,3.33,3.32
26.69,-2.73,-6.06,-2.73,-6.07,6.07,6.46,5.50,3.34,3.34,3.33
26.96,-2.66,-6.01,-2.66,-6.01,6.01,6.40,5.62,3.34,3.34,3.35
27.23,-2.59,-5.96,-2.59,-5.95,5.94,6.34,5.73,3.35,3.35,3.36
27.50,-2.52,-5.88,-2.52,-5.89,5.88,6.28,5.84,3.36,3.36,3.36
27.77,-2.45,-5.81,-2.45,-5.82,5.82,6.22,5.95,3.37,3.37,3.36
28.05,-2.38,-5.76,-2.38,-5.76,5.76,6.15,6.05,3.38,3.38,3.38
28.33,-2.31,-5.69,-2.31,-5.70,5.70,6.09,6.15,3.39,3.39,3.38
28.62,-2.24,-5.64,-2.25,-5.64,5.64,6.02,6.24,3.40,3.40,3.39
28.90,-2.18,-5.58,-2.18,-5.58,5.58,5.95,6.32,3.40,3.40,3.40
29.19,-2.11,-5.51,-2.11,-5.52,5.53,5.89,6.40,3.41,3.41,3.40
29.48,-2.05,-5.48,-2.05,-5.47,5.47,5.82,6.46,3.42,3.42,3.43
29.78,-1.99,-5.41,-2.00,-5.42,5.42,5.75,6.52,3.42,3.42,3.42
30.08,-1.94,-5.37,-1.94,-5.37,5.36,5.68,6.57,3.42,3.42,3.43
30.38,-1.87,-5.31,-1.87,-5.31,5.30,5.61,6.61,3.43,3.43,3.43
30.68,-1.80,-5.25,-1.81,-5.25,5.25,5.54,6.64,3.44,3.44,3.45
30.99,-1.73,-5.19,-1.74,-5.19,5.19,5.47,6.66,3.46,3.46,3.45
31.30,-1.67,-5.13,-1.67,-5.13,5.14,5.40,6.67,3.46,3.47,3.45
31.61,-1.61,-5.07,-1.62,-5.08,5.08,5.33,6.67,3.47,3.47,3.46
31.93,-1.56,-5.03,-1.56,-5.03,5.03,5.26,6.66,3.47,3.47,3.47
32.24,-1.51,-4.98,-1.51,-4.99,4.98,5.18,6.64,3.47,3.47,3.47
32.57,-1.45,-4.94,-1.45,-4.94,4.93,5.11,6.60,3.48,3.48,3.49
32.89,-1.39,-4.88,-1.40,-4.89,4.89,5.04,6.56,3.49,3.49,3.49
33.22,-1.34,-4.84,-1.34,-4.84,4.84,4.97,6.51,3.50,3.50,3.50
33.55,-1.28,-4.79,-1.28,-4.79,4.80,4.90,6.45,3.52,3.52,3.51
33.89,-1.22,-4.74,-1.23,-4.75,4.76,4.83,6.39,3.53,3.53,3.52
34.23,-1.18,-4.70,-1.18,-4.71,4.71,4.75,6.32,3.53,3.53,3.52
34.57,-1.14,-4.67,-1.14,-4.67,4.67,4.68,6.24,3.52,3.53,3.53
34.92,-1.10,-4.63,-1.10,-4.63,4.62,4.61,6.15,3.52,3.52,3.53
35.27,-1.05,-4.59,-1.05,-4.59,4.58,4.54,6.07,3.53,3.53,3.54
35.62,-1.00,-4.54,-1.00,-4.54,4.54,4.47,5.97,3.54,3.54,3.54
35.97,-0.95,-4.49,-0.95,-4.50,4.51,4.40,5.88,3.55,3.55,3.54
36.33,-0.90,-4.45,-0.91,-4.45,4.47,4.33,5.78,3.56,3.56,3.55
36.70,-0.87,-4.41,-0.87,-4.42,4.43,4.26,5.68,3.55,3.55,3.54
37.06,-0.84,-4.39,-0.84,-4.39,4.38,4.19,5.58,3.54,3.54,3.55
37.43,-0.80,-4.35,-0.80,-4.35,4.34,4.12,5.48,3.54,3.54,3.55
37.81,-0.75,-4.30,-0.75,-4.31,4.30,4.06,5.38,3.54,3.54,3.55
38.19,-0.70,-4.25,-0.71,-4.26,4.25,3.99,5.28,3.55,3.55,3.55
38.57,-0.66,-4.20,-0.66,-4.20,4.21,3.92,5.18,3.54,3.55,3.54
38.95,-0.61,-4.15,-0.62,-4.15,4.16,3.86,5.08,3.55,3.54,3.54
39.34,-0.57,-4.10,-0.57,-4.11,4.11,3.79,4.98,3.54,3.54,3.53
39.74,-0.53,-4.06,-0.53,-4.06,4.06,3.72,4.88,3.53,3.53,3.53
40.14,-0.48,-4.01,-0.49,-4.02,4.02,3.66,4.79,3.53,3.53,3.53
40.54,-0.44,-3.97,-0.44,-3.97,3.97,3.60,4.70,3.53,3.53,3.53
40.94,-0.40,-3.92,-0.40,-3.93,3.94,3.53,4.61,3.53,3.53,3.52
41.35,-0.37,-3.89,-0.37,-3.89,3.90,3.47,4.52,3.53,3.53,3.52
41.76,-0.33,-3.85,-0.34,-3.86,3.86,3.41,4.44,3.53,3.53,3.52
42.18,-0.30,-3.82,-0.30,-3.83,3.82,3.34,4.36,3.52,3.52,3.52
42.60,-0.27,-3.79,-0.27,-3.80,3.78,3.28,4.28,3.51,3.51,3.52
43.03,-0.24,-3.76,-0.24,-3.76,3.75,3.22,4.20,3.50,3.51,3.52
43.46,-0.20,-3.72,-0.20,-3.72,3.71,3.16,4.13,3.51,3.51,3.52
43.90,-0.15,-3.66,-0.16,-3.67,3.67,3.10,4.06,3.52,3.51,3.50
44.33,-0.12,-3.62,-0.12,-3.62,3.63,3.04,3.99,3.51,3.51,3.50
44.78,-0.08,-3.57,-0.09,-3.58,3.59,2.98,3.93,3.51,3.50,3.49
45.23,-0.06,-3.55,-0.06,-3.55,3.55,2.92,3.87,3.49,3.49,3.49
45.68,-0.03,-3.52,-0.03,-3.52,3.51,2.87,3.81,3.48,3.48,3.49
46.13,0.01,-3.47,0.00,-3.48,3.48,2.81,3.76,3.48,3.48,3.48
46.60,0.04,-3.45,0.04,-3.45,3.44,2.75,3.71,3.48,3.48,3.49
47.06,0.07,-3.41,0.07,-3.42,3.41,2.70,3.66,3.48,3.48,3.48
47.53,0.09,-3.38,0.09,-3.39,3.39,2.64,3.61,3.47,3.48,3.47
48.01,0.11,-3.37,0.11,-3.36,3.37,2.59,3.57,3.47,3.47,3.48
48.49,0.12,-3.34,0.11,-3.35,3.35,2.53,3.53,3.47,3.47,3.46
48.97,0.11,-3.33,0.11,-3.34,3.35,2.48,3.49,3.46,3.46,3.44
49.46,0.09,-3.34,0.08,-3.34,3.35,2.43,3.45,3.44,3.44,3.43
49.96,0.05,-3.36,0.05,-3.37,3.37,2.37,3.42,3.42,3.42,3.41
50.46,0.01,-3.40,0.01,-3.40,3.40,2.32,3.39,3.40,3.40,3.41
50.96,-0.04,-3.43,-0.04,-3.43,3.43,2.27,3.36,3.39,3.39,3.39
51.47,-0.10,-3.46,-0.10,-3.47,3.48,2.22,3.33,3.37,3.37,3.36
51.99,-0.17,-3.52,-0.17,-3.52,3.53,2.17,3.30,3.36,3.36,3.35
52.51,-0.24,-3.58,-0.24,-3.58,3.59,2.12,3.28,3.34,3.34,3.34
53.03,-0.32,-3.64,-0.32,-3.65,3.65,2.07,3.25,3.32,3.32,3.32
53.56,-0.40,-3.71,-0.40,-3.71,3.71,2.02,3.23,3.30,3.31,3.31
54.10,-0.48,-3.76,-0.48,-3.77,3.77,1.97,3.20,3.29,3.29,3.28
54.64,-0.56,-3.83,-0.56,-3.83,3.83,1.93,3.18,3.27,3.26,3.27
55.18,-0.64,-3.88,-0.64,-3.88,3.88,1.88,3.15,3.24,3.24,3.24
55.74,-0.71,-3.92,-0.71,-3.94,3.93,1.83,3.13,3.22,3.22,3.21
56.29,-0.77,-3.98,-0.77,-3.97,3.97,1.79,3.10,3.20,3.20,3.21
56.86,-0.82,-4.00,-0.82,-4.00,4.00,1.74,3.08,3.18,3.18,3.18
57.42,-0.85,-4.00,-0.86,-4.01,4.02,1.69,3.05,3.16,3.16,3.15
58.00,-0.88,-4.01,-0.89,-4.02,4.02,1.65,3.02,3.14,3.13,3.13
58.58,-0.90,-4.01,-0.90,-4.01,4.01,1.61,2.99,3.11,3.11,3.11
59.16,-0.90,-3.99,-0.90,-3.99,3.98,1.56,2.96,3.08,3.09,3.09
59.76,-0.87,-3.94,-0.88,-3.95,3.94,1.52,2.92,3.07,3.06,3.07
60.35,-0.84,-3.88,-0.85,-3.89,3.88,1.47,2.89,3.03,3.03,3.04
60.96,-0.80,-3.81,-0.80,-3.81,3.80,1.43,2.85,2.99,3.00,3.01
61.57,-0.74,-3.70,-0.74,-3.71,3.70,1.39,2.80,2.96,2.96,2.96
62.18,-0.66,-3.58,-0.66,-3.59,3.59,1.35,2.76,2.93,2.93,2.92
62.80,-0.56,-3.46,-0.57,-3.46,3.46,1.30,2.71,2.90,2.89,2.90
63.43,-0.46,-3.31,-0.46,-3.32,3.32,1.26,2.66,2.86,2.86,2.85
64.07,-0.35,-3.17,-0.35,-3.17,3.17,1.22,2.61,2.81,2.81,2.81
64.71,-0.23,-3.01,-0.23,-3.01,3.01,1.18,2.55,2.77,2.77,2.78
65.35,-0.10,-2.84,-0.10,-2.84,2.84,1.14,2.49,2.74,2.74,2.74
66.01,0.04,-2.66,0.04,-2.67,2.66,1.10,2.43,2.70,2.70,2.70
66.67,0.19,-2.48,0.18,-2.48,2.49,1.06,2.36,2.68,2.67,2.67
67.33,0.33,-2.30,0.33,-2.30,2.31,1.02,2.29,2.64,2.64,2.63
68.01,0.47,-2.12,0.46,-2.13,2.13,0.98,2.22,2.60,2.59,2.59
68.69,0.59,-1.96,0.59,-1.96,1.96,0.94,2.15,2.54,2.55,2.55
69.37,0.72,-1.79,0.72,-1.79,1.79,0.90,2.08,2.51,2.51,2.51
70.07,0.86,-1.61,0.85,-1.62,1.62,0.86,2.00,2.48,2.47,2.47
70.77,0.98,-1.45,0.98,-1.46,1.47,0.82,1.92,2.44,2.44,2.43
71.48,1.09,-1.31,1.09,-1.31,1.31,0.79,1.84,2.40,2.40,2.40
72.19,1.19,-1.16,1.19,-1.17,1.17,0.75,1.76,2.36,2.36,2.35
72.91,1.28,-1.04,1.28,-1.04,1.03,0.71,1.67,2.31,2.32,2.32
73.64,1.38,-0.90,1.38,-0.91,0.91,0.67,1.59,2.28,2.28,2.28
74.38,1.47,-0.78,1.47,-0.78,0.78,0.64,1.50,2.25,2.25,2.25
75.12,1.55,-0.66,1.55,-0.67,0.67,0.60,1.42,2.22,2.22,2.21
75.87,1.62,-0.56,1.62,-0.57,0.56,0.56,1.33,2.18,2.18,2.18
76.63,1.68,-0.47,1.68,-0.47,0.47,0.52,1.24,2.14,2.15,2.15
77.40,1.75,-0.37,1.75,-0.38,0.37,0.49,1.15,2.12,2.12,2.12
78.17,1.81,-0.28,1.81,-0.29,0.29,0.45,1.06,2.10,2.09,2.09
78.95,1.86,-0.20,1.86,-0.21,0.21,0.41,0.97,2.07,2.07,2.06
79.74,1.91,-0.13,1.90,-0.14,0.14,0.38,0.89,2.05,2.04,2.04
80.54,1.94,-0.08,1.94,-0.08,0.07,0.34,0.80,2.01,2.01,2.02
81.35,1.97,-0.02,1.97,-0.02,0.02,0.30,0.70,1.98,1.99,1.99
82.16,2.01,0.05,2.00,0.03,-0.04,0.27,0.61,1.97,1.97,1.96
82.98,2.03,0.08,2.03,0.08,-0.08,0.23,0.52,1.95,1.95,1.95
83.81,2.05,0.13,2.04,0.12,-0.12,0.20,0.43,1.93,1.92,1.92
84.65,2.05,0.16,2.05,0.15,-0.15,0.16,0.34,1.90,1.90,1.89
85.50,2.06,0.18,2.06,0.18,-0.18,0.12,0.25,1.88,1.88,1.88
86.35,2.07,0.21,2.06,0.20,-0.20,0.09,0.16,1.87,1.86,1.86
87.22,2.06,0.22,2.06,0.22,-0.22,0.05,0.07,1.84,1.84,1.84
88.09,2.06,0.24,2.05,0.23,-0.23,0.02,-0.02,1.82,1.82,1.82
88.97,2.05,0.25,2.05,0.24,-0.25,-0.02,-0.12,1.80,1.80,1.80
89.86,2.04,0.25,2.04,0.26,-0.26,-0.06,-0.21,1.77,1.78,1.79
90.76,2.04,0.28,2.04,0.27,-0.28,-0.09,-0.30,1.76,1.76,1.76
91.66,2.04,0.30,2.04,0.29,-0.29,-0.13,-0.39,1.75,1.74,1.74
92.58,2.04,0.32,2.04,0.31,-0.31,-0.16,-0.48,1.73,1.73,1.72
93.51,2.04,0.33,2.04,0.33,-0.32,-0.20,-0.58,1.71,1.71,1.71
94.44,2.04,0.35,2.03,0.34,-0.34,-0.24,-0.67,1.70,1.69,1.69
95.39,2.03,0.36,2.03,0.36,-0.36,-0.27,-0.76,1.67,1.67,1.67
96.34,2.03,0.39,2.02,0.38,-0.38,-0.31,-0.85,1.64,1.64,1.64
97.30,2.02,0.41,2.02,0.41,-0.41,-0.35,-0.95,1.61,1.61,1.61
98.28,2.02,0.44,2.02,0.43,-0.44,-0.38,-1.04,1.58,1.58,1.58
99.26,2.03,0.47,2.03,0.47,-0.47,-0.42,-1.13,1.56,1.55,1.56
100.25,2.04,0.51,2.04,0.51,-0.51,-0.46,-1.22,1.52,1.52,1.53
101.25,2.06,0.56,2.06,0.56,-0.56,-0.49,-1.31,1.50,1.50,1.50
102.27,2.08,0.62,2.08,0.61,-0.61,-0.53,-1.40,1.46,1.46,1.46
103.29,2.11,0.68,2.11,0.67,-0.67,-0.57,-1.49,1.43,1.43,1.43
104.32,2.14,0.74,2.14,0.74,-0.74,-0.60,-1.58,1.40,1.40,1.40
105.37,2.17,0.81,2.17,0.81,-0.81,-0.64,-1.66,1.36,1.36,1.36
106.42,2.20,0.89,2.20,0.88,-0.88,-0.68,-1.75,1.32,1.32,1.31
107.48,2.23,0.95,2.23,0.95,-0.96,-0.72,-1.83,1.27,1.27,1.28
108.56,2.26,1.04,2.26,1.03,-1.03,-0.76,-1.91,1.22,1.22,1.22
109.64,2.29,1.12,2.29,1.11,-1.11,-0.79,-1.99,1.17,1.17,1.17
110.74,2.32,1.20,2.31,1.20,-1.19,-0.83,-2.06,1.12,1.12,1.12
111.85,2.34,1.27,2.34,1.27,-1.27,-0.87,-2.13,1.07,1.07,1.07
112.97,2.36,1.36,2.35,1.35,-1.35,-0.91,-2.20,1.01,1.01,1.00
114.10,2.37,1.42,2.37,1.42,-1.42,-0.95,-2.26,0.95,0.95,0.95
115.24,2.38,1.49,2.38,1.49,-1.49,-0.99,-2.32,0.89,0.89,0.89
116.39,2.39,1.57,2.38,1.56,-1.55,-1.02,-2.38,0.84,0.83,0.82
117.55,2.38,1.62,2.38,1.62,-1.61,-1.06,-2.43,0.76,0.76,0.76
118.73,2.38,1.68,2.38,1.67,-1.67,-1.10,-2.47,0.70,0.70,0.70
119.92,2.37,1.72,2.37,1.72,-1.73,-1.14,-2.51,0.63,0.64,0.65
121.12,2.38,1.79,2.37,1.78,-1.79,-1.18,-2.54,0.59,0.59,0.59
122.33,2.38,1.84,2.38,1.84,-1.84,-1.22,-2.57,0.54,0.54,0.54
123.55,2.39,1.90,2.39,1.90,-1.89,-1.26,-2.59,0.50,0.49,0.49
124.79,2.39,1.95,2.38,1.94,-1.94,-1.30,-2.61,0.45,0.45,0.44
126.03,2.38,1.99,2.38,1.99,-1.98,-1.34,-2.62,0.40,0.40,0.39
127.29,2.36,2.02,2.36,2.02,-2.02,-1.38,-2.62,0.34,0.34,0.34
128.57,2.34,2.06,2.34,2.05,-2.05,-1.42,-2.62,0.29,0.29,0.28
129.85,2.32,2.08,2.31,2.08,-2.07,-1.46,-2.61,0.25,0.24,0.24
131.15,2.29,2.10,2.29,2.09,-2.09,-1.50,-2.60,0.20,0.20,0.19
132.46,2.26,2.11,2.26,2.11,-2.11,-1.54,-2.58,0.15,0.15,0.15
133.79,2.23,2.12,2.23,2.12,-2.12,-1.58,-2.55,0.11,0.11,0.11
135.12,2.20,2.13,2.20,2.13,-2.13,-1.62,-2.52,0.06,0.06,0.07
136.48,2.17,2.14,2.17,2.14,-2.15,-1.66,-2.49,0.02,0.02,0.03
137.84,2.15,2.16,2.14,2.16,-2.16,-1.70,-2.45,-0.01,-0.02,-0.01
139.22,2.12,2.18,2.12,2.17,-2.17,-1.74,-2.41,-0.05,-0.05,-0.06
140.61,2.10,2.20,2.10,2.19,-2.18,-1.78,-2.36,-0.09,-0.09,-0.10
142.02,2.08,2.20,2.08,2.20,-2.20,-1.82,-2.31,-0.12,-0.12,-0.12
143.44,2.06,2.22,2.05,2.21,-2.21,-1.86,-2.26,-0.16,-0.16,-0.16
144.87,2.03,2.23,2.03,2.23,-2.23,-1.90,-2.21,-0.20,-0.20,-0.20
146.32,2.01,2.25,2.01,2.24,-2.25,-1.93,-2.15,-0.24,-0.24,-0.24
147.78,1.99,2.26,1.98,2.25,-2.26,-1.97,-2.09,-0.28,-0.28,-0.27
149.26,1.97,2.27,1.97,2.28,-2.28,-2.01,-2.03,-0.32,-0.32,-0.30
150.75,1.95,2.31,1.95,2.30,-2.30,-2.04,-1.97,-0.36,-0.35,-0.36
152.26,1.94,2.34,1.93,2.33,-2.32,-2.08,-1.91,-0.39,-0.39,-0.40
153.78,1.92,2.35,1.91,2.35,-2.34,-2.12,-1.84,-0.43,-0.43,-0.43
155.32,1.89,2.38,1.89,2.37,-2.36,-2.15,-1.78,-0.47,-0.47,-0.49
156.88,1.86,2.38,1.85,2.38,-2.38,-2.18,-1.72,-0.52,-0.52,-0.52
158.44,1.82,2.39,1.82,2.39,-2.39,-2.21,-1.65,-0.57,-0.57,-0.57
160.03,1.78,2.40,1.78,2.40,-2.40,-2.25,-1.59,-0.62,-0.62,-0.62
161.63,1.75,2.42,1.74,2.41,-2.41,-2.28,-1.53,-0.66,-0.66,-0.67
163.24,1.71,2.42,1.71,2.42,-2.41,-2.30,-1.46,-0.71,-0.71,-0.71
164.88,1.67,2.42,1.67,2.42,-2.42,-2.33,-1.40,-0.75,-0.75,-0.75
166.53,1.63,2.43,1.62,2.42,-2.43,-2.36,-1.34,-0.80,-0.80,-0.80
168.19,1.58,2.43,1.58,2.43,-2.44,-2.38,-1.28,-0.86,-0.85,-0.85
169.87,1.54,2.44,1.54,2.44,-2.44,-2.40,-1.22,-0.91,-0.90,-0.90
171.57,1.51,2.45,1.50,2.44,-2.45,-2.42,-1.15,-0.94,-0.95,-0.94
173.29,1.46,2.46,1.46,2.46,-2.46,-2.44,-1.10,-1.00,-0.99,-1.00
175.02,1.42,2.47,1.42,2.47,-2.46,-2.45,-1.04,-1.04,-1.04,-1.05
176.77,1.37,2.48,1.36,2.47,-2.46,-2.46,-0.98,-1.09,-1.10,-1.11
178.54,1.30,2.46,1.30,2.46,-2.45,-2.47,-0.92,-1.16,-1.15,-1.16
180.32,1.23,2.45,1.23,2.45,-2.45,-2.48,-0.86,-1.22,-1.22,-1.22
182.13,1.16,2.43,1.16,2.43,-2.43,-2.48,-0.81,-1.28,-1.28,-1.27
183.95,1.09,2.42,1.08,2.41,-2.42,-2.48,-0.75,-1.33,-1.33,-1.33
185.79,1.01,2.39,1.01,2.39,-2.40,-2.48,-0.70,-1.39,-1.39,-1.38
187.65,0.93,2.38,0.93,2.37,-2.38,-2.47,-0.65,-1.45,-1.44,-1.45
189.52,0.86,2.36,0.86,2.35,-2.35,-2.46,-0.59,-1.49,-1.50,-1.50
191.42,0.78,2.33,0.78,2.33,-2.32,-2.44,-0.54,-1.55,-1.55,-1.55
193.33,0.70,2.30,0.69,2.29,-2.29,-2.42,-0.49,-1.60,-1.60,-1.60
195.27,0.60,2.25,0.60,2.25,-2.26,-2.39,-0.44,-1.66,-1.65,-1.65
197.22,0.51,2.22,0.51,2.22,-2.21,-2.36,-0.39,-1.71,-1.70,-1.71
199.19,0.42,2.18,0.41,2.17,-2.17,-2.32,-0.34,-1.75,-1.75,-1.76
201.18,0.32,2.13,0.31,2.12,-2.11,-2.27,-0.30,-1.80,-1.80,-1.81
203.19,0.21,2.05,0.21,2.06,-2.06,-2.22,-0.25,-1.85,-1.85,-1.84
205.23,0.10,2.00,0.10,1.99,-1.99,-2.17,-0.21,-1.90,-1.89,-1.90
207.28,-0.01,1.91,-0.01,1.92,-1.92,-2.11,-0.16,-1.94,-1.94,-1.92
209.35,-0.13,1.85,-0.13,1.85,-1.85,-2.03,-0.12,-1.98,-1.98,-1.98
211.44,-0.25,1.78,-0.25,1.77,-1.76,-1.96,-0.08,-2.02,-2.02,-2.03
213.56,-0.38,1.69,-0.39,1.68,-1.67,-1.87,-0.04,-2.06,-2.06,-2.07
215.69,-0.52,1.57,-0.52,1.58,-1.58,-1.78,-0.00,-2.10,-2.10,-2.09
217.85,-0.66,1.47,-0.66,1.47,-1.47,-1.68,0.03,-2.13,-2.13,-2.13
220.03,-0.80,1.37,-0.81,1.36,-1.36,-1.57,0.07,-2.16,-2.16,-2.17
222.23,-0.96,1.24,-0.96,1.24,-1.23,-1.45,0.10,-2.20,-2.19,-2.20
224.45,-1.11,1.11,-1.12,1.11,-1.10,-1.32,0.13,-2.21,-2.22,-2.22
226.70,-1.28,0.97,-1.29,0.96,-0.96,-1.19,0.16,-2.24,-2.25,-2.25
228.96,-1.46,0.82,-1.46,0.81,-0.81,-1.05,0.19,-2.28,-2.27,-2.28
231.25,-1.64,0.65,-1.64,0.66,-0.66,-0.89,0.22,-2.30,-2.29,-2.29
233.57,-1.80,0.51,-1.81,0.50,-0.50,-0.73,0.24,-2.30,-2.31,-2.31
235.90,-1.98,0.34,-1.99,0.33,-0.33,-0.57,0.26,-2.32,-2.32,-2.32
238.26,-2.16,0.17,-2.17,0.16,-0.16,-0.39,0.28,-2.33,-2.33,-2.33
240.64,-2.35,-0.01,-2.35,-0.01,0.01,-0.21,0.29,-2.35,-2.34,-2.34
243.05,-2.52,-0.18,-2.52,-0.18,0.18,-0.02,0.30,-2.34,-2.34,-2.34
245.48,-2.69,-0.34,-2.70,-0.35,0.35,0.17,0.31,-2.34,-2.34,-2.35
247.93,-2.86,-0.51,-2.86,-0.52,0.52,0.37,0.32,-2.34,-2.34,-2.35
250.41,-3.03,-0.68,-3.03,-0.69,0.69,0.56,0.33,-2.35,-2.35,-2.35
252.92,-3.19,-0.85,-3.19,-0.85,0.85,0.76,0.33,-2.34,-2.34,-2.34
255.45,-3.34,-1.01,-3.34,-1.01,1.01,0.95,0.33,-2.34,-2.33,-2.33
258.00,-3.47,-1.15,-3.48,-1.15,1.15,1.14,0.33,-2.32,-2.32,-2.32
260.58,-3.60,-1.28,-3.61,-1.29,1.29,1.32,0.32,-2.31,-2.31,-2.32
263.19,-3.72,-1.41,-3.73,-1.42,1.42,1.49,0.31,-2.30,-2.31,-2.31
265.82,-3.84,-1.54,-3.84,-1.54,1.54,1.65,0.30,-2.31,-2.30,-2.30
268.48,-3.93,-1.65,-3.93,-1.65,1.64,1.79,0.29,-2.30,-2.29,-2.28
271.16,-3.99,-1.73,-4.00,-1.73,1.72,1.91,0.27,-2.27,-2.27,-2.26
273.87,-4.04,-1.78,-4.05,-1.80,1.79,2.02,0.26,-2.25,-2.25,-2.26
276.61,-4.08,-1.85,-4.08,-1.85,1.85,2.09,0.24,-2.23,-2.24,-2.23
279.38,-4.11,-1.88,-4.11,-1.89,1.89,2.15,0.22,-2.23,-2.23,-2.23
282.17,-4.12,-1.91,-4.12,-1.91,1.91,2.17,0.19,-2.21,-2.22,-2.21
284.99,-4.12,-1.92,-4.12,-1.92,1.92,2.18,0.17,-2.21,-2.20,-2.20
287.84,-4.09,-1.90,-4.09,-1.91,1.91,2.15,0.14,-2.19,-2.19,-2.19
290.72,-4.05,-1.87,-4.06,-1.88,1.89,2.11,0.11,-2.17,-2.17,-2.18
293.63,-4.01,-1.85,-4.01,-1.85,1.85,2.04,0.09,-2.16,-2.16,-2.16
296.57,-3.96,-1.82,-3.96,-1.81,1.81,1.96,0.06,-2.15,-2.15,-2.14
299.53,-3.89,-1.75,-3.89,-1.76,1.75,1.86,0.02,-2.14,-2.14,-2.14
302.53,-3.81,-1.68,-3.81,-1.69,1.69,1.75,-0.01,-2.12,-2.12,-2.13
305.55,-3.72,-1.61,-3.73,-1.61,1.62,1.62,-0.04,-2.11,-2.11,-2.11
308.61,-3.63,-1.53,-3.63,-1.53,1.53,1.49,-0.08,-2.10,-2.10,-2.10
311.69,-3.53,-1.44,-3.53,-1.45,1.45,1.35,-0.11,-2.09,-2.08,-2.09
314.81,-3.42,-1.36,-3.43,-1.36,1.35,1.21,-0.15,-2.07,-2.07,-2.06
317.96,-3.32,-1.25,-3.32,-1.26,1.26,1.07,-0.18,-2.06,-2.06,-2.07
321.14,-3.21,-1.15,-3.21,-1.15,1.16,0.93,-0.22,-2.05,-2.05,-2.06
324.35,-3.10,-1.04,-3.11,-1.05,1.06,0.79,-0.26,-2.04,-2.05,-2.06
327.59,-3.00,-0.95,-3.01,-0.95,0.96,0.65,-0.29,-2.05,-2.05,-2.05
330.87,-2.91,-0.86,-2.90,-0.85,0.85,0.52,-0.33,-2.06,-2.05,-2.05
334.18,-2.79,-0.74,-2.79,-0.75,0.74,0.39,-0.37,-2.05,-2.05,-2.05
337.52,-2.67,-0.63,-2.68,-0.64,0.64,0.26,-0.41,-2.04,-2.04,-2.04
340.90,-2.56,-0.52,-2.56,-0.52,0.53,0.14,-0.45,-2.04,-2.04,-2.04
344.30,-2.45,-0.41,-2.45,-0.41,0.41,0.03,-0.49,-2.04,-2.04,-2.04
347.75,-2.33,-0.29,-2.33,-0.30,0.29,-0.08,-0.53,-2.04,-2.04,-2.04
351.23,-2.21,-0.17,-2.22,-0.18,0.17,-0.19,-0.58,-2.04,-2.05,-2.04
354.74,-2.10,-0.06,-2.10,-0.05,0.05,-0.29,-0.62,-2.05,-2.05,-2.04
358.28,-1.98,0.08,-1.98,0.07,-0.07,-0.38,-0.66,-2.05,-2.05,-2.06
361.87,-1.85,0.21,-1.86,0.20,-0.19,-0.47,-0.70,-2.04,-2.05,-2.06
365.49,-1.74,0.32,-1.74,0.32,-0.31,-0.56,-0.75,-2.06,-2.06,-2.06
369.14,-1.63,0.44,-1.63,0.43,-0.44,-0.63,-0.79,-2.07,-2.07,-2.07
372.83,-1.52,0.55,-1.52,0.55,-0.56,-0.71,-0.83,-2.08,-2.08,-2.07
376.56,-1.41,0.67,-1.41,0.67,-0.68,-0.78,-0.88,-2.09,-2.09,-2.08
380.33,-1.30,0.79,-1.30,0.79,-0.79,-0.84,-0.92,-2.09,-2.09,-2.09
384.13,-1.19,0.91,-1.19,0.91,-0.90,-0.91,-0.97,-2.09,-2.09,-2.10
387.97,-1.09,1.02,-1.09,1.01,-1.00,-0.96,-1.01,-2.09,-2.09,-2.11
391.85,-1.00,1.12,-1.01,1.11,-1.09,-1.02,-1.06,-2.09,-2.10,-2.12
395.77,-0.93,1.18,-0.93,1.18,-1.18,-1.07,-1.10,-2.11,-2.11,-2.11
399.73,-0.86,1.26,-0.86,1.26,-1.26,-1.12,-1.15,-2.12,-2.12,-2.12
403.72,-0.80,1.33,-0.80,1.32,-1.33,-1.16,-1.19,-2.13,-2.13,-2.13
407.76,-0.74,1.40,-0.74,1.39,-1.40,-1.20,-1.24,-2.14,-2.14,-2.14
411.84,-0.68,1.45,-0.68,1.46,-1.46,-1.24,-1.28,-2.15,-2.14,-2.13
415.96,-0.62,1.53,-0.62,1.52,-1.52,-1.28,-1.33,-2.15,-2.15,-2.15
420.12,-0.56,1.59,-0.57,1.58,-1.58,-1.31,-1.37,-2.15,-2.15,-2.15
424.32,-0.52,1.63,-0.52,1.64,-1.64,-1.34,-1.42,-2.16,-2.15,-2.15
428.56,-0.46,1.70,-0.47,1.69,-1.69,-1.37,-1.46,-2.15,-2.15,-2.16
432.85,-0.42,1.74,-0.42,1.73,-1.73,-1.40,-1.50,-2.15,-2.15,-2.16
437.18,-0.38,1.78,-0.38,1.77,-1.76,-1.43,-1.54,-2.15,-2.15,-2.16
441.55,-0.35,1.80,-0.35,1.80,-1.79,-1.45,-1.59,-2.15,-2.15,-2.15
445.96,-0.32,1.83,-0.33,1.82,-1.82,-1.48,-1.63,-2.14,-2.15,-2.15
450.42,-0.31,1.85,-0.31,1.84,-1.84,-1.50,-1.66,-2.15,-2.15,-2.16
454.93,-0.29,1.86,-0.30,1.86,-1.86,-1.52,-1.70,-2.15,-2.16,-2.15
459.48,-0.28,1.87,-0.28,1.87,-1.88,-1.54,-1.73,-2.16,-2.16,-2.15
464.07,-0.25,1.89,-0.25,1.89,-1.90,-1.56,-1.77,-2.15,-2.15,-2.14
468.71,-0.22,1.91,-0.23,1.91,-1.92,-1.58,-1.80,-2.14,-2.14,-2.13
473.40,-0.19,1.95,-0.19,1.94,-1.93,-1.59,-1.83,-2.13,-2.13,-2.14
478.13,-0.17,1.96,-0.17,1.96,-1.95,-1.61,-1.85,-2.12,-2.12,-2.13
482.91,-0.14,1.99,-0.15,1.98,-1.97,-1.63,-1.88,-2.11,-2.11,-2.13
487.74,-0.13,1.99,-0.13,1.99,-1.98,-1.64,-1.90,-2.12,-2.11,-2.12
492.62,-0.11,2.00,-0.11,2.00,-2.00,-1.65,-1.92,-2.11,-2.11,-2.11
