frequency,raw,error,smoothed,error_smoothed,equalization,parametric_eq,fixed_band_eq,equalized_raw,equalized_smoothed,target
20.00,6.07,-1.84,6.07,-1.84,1.84,1.30,0.59,7.91,7.91,7.90
20.20,6.08,-1.82,6.08,-1.82,1.82,1.32,0.61,7.89,7.89,7.89
20.40,6.09,-1.80,6.09,-1.79,1.79,1.34,0.63,7.88,7.88,7.88
20.61,6.11,-1.77,6.10,-1.77,1.77,1.35,0.65,7.87,7.87,7.87
20.81,6.12,-1.74,6.11,-1.75,1.75,1.37,0.67,7.86,7.86,7.85
21.02,6.13,-1.72,6.12,-1.72,1.72,1.39,0.70,7.85,7.85,7.84
21.23,6.14,-1.70,6.14,-1.70,1.70,1.41,0.72,7.84,7.84,7.83
21.44,6.15,-1.70,6.15,-1.68,1.68,1.42,0.74,7.83,7.83,7.84
21.66,6.16,-1.67,6.16,-1.66,1.66,1.44,0.76,7.82,7.82,7.82
21.87,6.17,-1.66,6.17,-1.64,1.64,1.45,0.79,7.81,7.81,7.82
22.09,6.18,-1.63,6.18,-1.62,1.62,1.47,0.81,7.80,7.80,7.80
22.31,6.20,-1.60,6.19,-1.60,1.60,1.48,0.84,7.80,7.80,7.79
22.54,6.21,-1.58,6.20,-1.59,1.59,1.49,0.87,7.79,7.79,7.78
22.76,6.22,-1.57,6.21,-1.57,1.57,1.50,0.89,7.79,7.78,7.78
22.99,6.23,-1.55,6.22,-1.55,1.55,1.51,0.92,7.78,7.78,7.77
23.22,6.24,-1.53,6.24,-1.54,1.54,1.52,0.95,7.77,7.77,7.76
23.45,6.25,-1.53,6.25,-1.52,1.52,1.53,0.98,7.77,7.77,7.77
23.69,6.26,-1.51,6.26,-1.51,1.51,1.54,1.01,7.76,7.76,7.76
23.92,6.27,-1.49,6.27,-1.49,1.49,1.55,1.04,7.76,7.76,7.75
24.16,6.28,-1.49,6.28,-1.48,1.48,1.55,1.07,7.75,7.76,7.76
24.40,6.29,-1.48,6.29,-1.47,1.47,1.56,1.10,7.75,7.75,7.76
24.65,6.30,-1.46,6.30,-1.46,1.46,1.56,1.13,7.75,7.75,7.75
24.89,6.31,-1.45,6.31,-1.44,1.44,1.56,1.16,7.75,7.75,7.75
25.14,6.32,-1.43,6.32,-1.43,1.43,1.57,1.19,7.75,7.75,7.74
25.39,6.33,-1.42,6.33,-1.42,1.42,1.57,1.23,7.75,7.75,7.74
25.65,6.34,-1.41,6.33,-1.41,1.41,1.57,1.26,7.75,7.75,7.74
25.91,6.35,-1.40,6.34,-1.40,1.40,1.56,1.29,7.75,7.74,7.74
26.16,6.36,-1.40,6.35,-1.39,1.39,1.56,1.32,7.75,7.74,7.75
26.43,6.36,-1.39,6.36,-1.38,1.38,1.56,1.35,7.74,7.74,7.74
26.69,6.37,-1.38,6.37,-1.38,1.38,1.55,1.38,7.74,7.74,7.74
26.96,6.38,-1.37,6.38,-1.37,1.37,1.54,1.41,7.74,7.75,7.74
27.23,6.39,-1.36,6.38,-1.36,1.36,1.54,1.44,7.75,7.75,7.74
27.50,6.40,-1.35,6.39,-1.36,1.36,1.53,1.47,7.75,7.75,7.74
27.77,6.40,-1.36,6.40,-1.35,1.35,1.52,1.49,7.75,7.75,7.75
28.05,6.41,-1.34,6.41,-1.35,1.35,1.51,1.52,7.75,7.75,7.74
28.33,6.42,-1.34,6.41,-1.34,1.34,1.49,1.54,7.76,7.75,7.75
28.62,6.42,-1.34,6.42,-1.34,1.34,1.48,1.56,7.75,7.75,7.75
28.90,6.43,-1.34,6.42,-1.33,1.33,1.47,1.58,7.75,7.75,7.76
29.19,6.43,-1.34,6.43,-1.32,1.32,1.45,1.60,7.75,7.75,7.76
29.48,6.44,-1.32,6.44,-1.31,1.31,1.44,1.61,7.75,7.75,7.75
29.78,6.45,-1.31,6.44,-1.31,1.31,1.42,1.62,7.75,7.75,7.75
30.08,6.45,-1.31,6.45,-1.30,1.30,1.40,1.63,7.74,7.75,7.75
30.38,6.46,-1.28,6.46,-1.29,1.29,1.38,1.64,7.74,7.74,7.73
30.68,6.46,-1.28,6.46,-1.28,1.28,1.36,1.64,7.73,7.74,7.73
30.99,6.47,-1.27,6.47,-1.27,1.27,1.34,1.64,7.73,7.73,7.73
31.30,6.48,-1.26,6.47,-1.26,1.26,1.32,1.64,7.73,7.73,7.73
31.61,6.48,-1.25,6.48,-1.24,1.24,1.30,1.64,7.72,7.72,7.72
31.93,6.49,-1.22,6.48,-1.23,1.23,1.28,1.63,7.72,7.71,7.70
32.24,6.49,-1.23,6.49,-1.22,1.22,1.26,1.62,7.71,7.71,7.71
32.57,6.50,-1.20,6.49,-1.21,1.21,1.23,1.60,7.71,7.70,7.69
32.89,6.50,-1.20,6.49,-1.20,1.20,1.21,1.59,7.70,7.69,7.69
33.22,6.50,-1.19,6.50,-1.19,1.19,1.19,1.57,7.69,7.69,7.68
33.55,6.50,-1.19,6.50,-1.18,1.18,1.16,1.55,7.68,7.68,7.68
33.89,6.50,-1.18,6.50,-1.18,1.18,1.14,1.53,7.67,7.67,7.67
34.23,6.50,-1.16,6.50,-1.17,1.17,1.11,1.50,7.66,7.66,7.65
34.57,6.50,-1.16,6.49,-1.16,1.16,1.09,1.47,7.66,7.66,7.65
34.92,6.50,-1.14,6.49,-1.15,1.15,1.06,1.44,7.65,7.65,7.63
35.27,6.50,-1.16,6.49,-1.14,1.14,1.04,1.41,7.64,7.63,7.65
35.62,6.49,-1.14,6.49,-1.14,1.14,1.01,1.38,7.62,7.62,7.62
35.97,6.49,-1.14,6.49,-1.12,1.12,0.98,1.35,7.61,7.61,7.62
36.33,6.49,-1.12,6.48,-1.11,1.11,0.96,1.31,7.60,7.60,7.60
36.70,6.48,-1.11,6.48,-1.10,1.10,0.93,1.27,7.58,7.58,7.58
37.06,6.48,-1.09,6.48,-1.08,1.08,0.90,1.24,7.56,7.56,7.56
37.43,6.48,-1.07,6.48,-1.07,1.07,0.88,1.20,7.54,7.55,7.54
37.81,6.48,-1.06,6.48,-1.05,1.05,0.85,1.16,7.53,7.53,7.53
38.19,6.48,-1.03,6.48,-1.03,1.03,0.83,1.13,7.51,7.51,7.50
38.57,6.48,-1.01,6.48,-1.01,1.01,0.80,1.09,7.49,7.49,7.48
38.95,6.48,-1.00,6.48,-0.99,0.99,0.77,1.05,7.47,7.47,7.47
39.34,6.48,-0.97,6.48,-0.97,0.97,0.75,1.01,7.44,7.44,7.44
39.74,6.48,-0.94,6.48,-0.95,0.95,0.72,0.97,7.42,7.42,7.41
40.14,6.48,-0.92,6.47,-0.92,0.92,0.69,0.93,7.40,7.40,7.39
40.54,6.48,-0.90,6.47,-0.90,0.90,0.67,0.90,7.38,7.38,7.37
40.94,6.48,-0.87,6.47,-0.88,0.88,0.64,0.86,7.36,7.35,7.34
41.35,6.48,-0.86,6.47,-0.86,0.86,0.61,0.82,7.33,7.33,7.33
41.76,6.48,-0.83,6.48,-0.83,0.83,0.59,0.78,7.31,7.31,7.30
42.18,6.48,-0.82,6.48,-0.81,0.81,0.56,0.75,7.29,7.28,7.29
42.60,6.48,-0.79,6.48,-0.78,0.78,0.54,0.71,7.26,7.26,7.26
43.03,6.48,-0.77,6.48,-0.76,0.76,0.51,0.67,7.24,7.24,7.24
43.46,6.48,-0.73,6.48,-0.73,0.73,0.49,0.64,7.21,7.21,7.20
43.90,6.48,-0.71,6.48,-0.70,0.70,0.46,0.60,7.18,7.19,7.18
44.33,6.48,-0.68,6.49,-0.67,0.67,0.43,0.57,7.15,7.16,7.15
44.78,6.49,-0.65,6.49,-0.64,0.64,0.41,0.53,7.13,7.13,7.13
45.23,6.49,-0.63,6.49,-0.61,0.61,0.38,0.50,7.09,7.10,7.11
45.68,6.50,-0.57,6.49,-0.57,0.57,0.36,0.47,7.07,7.06,7.06
46.13,6.50,-0.54,6.49,-0.54,0.54,0.33,0.44,7.03,7.03,7.03
46.60,6.50,-0.50,6.49,-0.50,0.50,0.31,0.40,7.00,6.99,6.99
47.06,6.50,-0.47,6.49,-0.46,0.46,0.28,0.37,6.96,6.95,6.96
47.53,6.50,-0.43,6.49,-0.42,0.42,0.26,0.34,6.92,6.91,6.92
48.01,6.50,-0.38,6.49,-0.39,0.39,0.23,0.31,6.88,6.87,6.87
48.49,6.49,-0.35,6.48,-0.35,0.35,0.21,0.28,6.84,6.83,6.83
48.97,6.48,-0.31,6.48,-0.32,0.32,0.19,0.25,6.79,6.79,6.78
49.46,6.47,-0.29,6.47,-0.28,0.28,0.16,0.22,6.75,6.75,6.75
49.96,6.46,-0.24,6.46,-0.25,0.25,0.14,0.19,6.71,6.71,6.69
50.46,6.45,-0.22,6.45,-0.22,0.22,0.11,0.16,6.66,6.67,6.66
50.96,6.44,-0.19,6.43,-0.19,0.19,0.09,0.13,6.63,6.62,6.62
51.47,6.43,-0.16,6.42,-0.16,0.16,0.07,0.10,6.59,6.58,6.58
51.99,6.41,-0.13,6.40,-0.14,0.14,0.04,0.08,6.54,6.54,6.53
52.51,6.39,-0.12,6.39,-0.11,0.11,0.02,0.05,6.50,6.50,6.50
53.03,6.38,-0.10,6.37,-0.09,0.09,-0.01,0.02,6.46,6.46,6.47
53.56,6.36,-0.07,6.35,-0.06,0.06,-0.03,-0.01,6.42,6.42,6.42
54.10,6.34,-0.04,6.34,-0.04,0.04,-0.05,-0.04,6.38,6.38,6.37
54.64,6.32,-0.02,6.32,-0.02,0.02,-0.08,-0.06,6.34,6.34,6.33
55.18,6.30,0.00,6.30,-0.00,0.00,-0.10,-0.09,6.30,6.30,6.29
55.74,6.28,0.03,6.28,0.01,-0.01,-0.13,-0.12,6.26,6.26,6.24
56.29,6.26,0.03,6.26,0.03,-0.03,-0.15,-0.14,6.22,6.22,6.22
56.86,6.24,0.05,6.24,0.05,-0.05,-0.17,-0.17,6.18,6.18,6.18
57.42,6.23,0.09,6.22,0.08,-0.08,-0.20,-0.20,6.15,6.14,6.13
58.00,6.21,0.11,6.20,0.10,-0.10,-0.22,-0.23,6.10,6.10,6.09
58.58,6.19,0.12,6.19,0.13,-0.13,-0.25,-0.25,6.06,6.05,6.06
59.16,6.18,0.14,6.17,0.16,-0.16,-0.27,-0.28,6.01,6.01,6.03
59.76,6.16,0.17,6.16,0.20,-0.20,-0.29,-0.31,5.96,5.96,5.98
60.35,6.15,0.21,6.15,0.24,-0.24,-0.32,-0.33,5.91,5.92,5.93
60.96,6.14,0.26,6.15,0.28,-0.28,-0.34,-0.36,5.86,5.87,5.87
61.57,6.13,0.31,6.14,0.33,-0.33,-0.37,-0.39,5.80,5.81,5.81
62.18,6.13,0.37,6.14,0.38,-0.38,-0.39,-0.42,5.75,5.76,5.75
62.80,6.13,0.43,6.14,0.44,-0.44,-0.42,-0.45,5.69,5.71,5.69
63.43,6.14,0.49,6.15,0.49,-0.49,-0.44,-0.48,5.65,5.66,5.64
64.07,6.15,0.55,6.15,0.55,-0.55,-0.47,-0.50,5.60,5.60,5.59
64.71,6.16,0.61,6.15,0.61,-0.61,-0.49,-0.53,5.55,5.55,5.54
65.35,6.17,0.68,6.15,0.66,-0.66,-0.52,-0.56,5.50,5.49,5.48
66.01,6.18,0.74,6.16,0.72,-0.72,-0.54,-0.59,5.46,5.44,5.43
66.67,6.17,0.77,6.16,0.78,-0.78,-0.57,-0.62,5.39,5.38,5.39
67.33,6.17,0.84,6.15,0.83,-0.83,-0.60,-0.65,5.34,5.33,5.32
68.01,6.16,0.88,6.15,0.88,-0.88,-0.62,-0.69,5.28,5.27,5.27
68.69,6.15,0.92,6.14,0.92,-0.92,-0.65,-0.72,5.22,5.22,5.22
69.37,6.13,0.95,6.13,0.97,-0.97,-0.67,-0.75,5.16,5.16,5.17
70.07,6.12,1.00,6.11,1.01,-1.01,-0.70,-0.78,5.11,5.10,5.11
70.77,6.10,1.05,6.09,1.04,-1.04,-0.73,-0.82,5.05,5.05,5.04
71.48,6.08,1.08,6.07,1.08,-1.08,-0.75,-0.85,5.00,4.99,4.99
72.19,6.05,1.11,6.04,1.11,-1.11,-0.78,-0.89,4.93,4.93,4.93
72.91,6.02,1.15,6.02,1.15,-1.15,-0.81,-0.92,4.87,4.88,4.86
73.64,6.00,1.18,6.00,1.18,-1.18,-0.84,-0.96,4.82,4.82,4.81
74.38,5.97,1.21,5.97,1.21,-1.21,-0.87,-1.00,4.75,4.76,4.75
75.12,5.95,1.24,5.95,1.24,-1.24,-0.90,-1.03,4.70,4.71,4.70
75.87,5.92,1.26,5.93,1.27,-1.27,-0.92,-1.07,4.64,4.65,4.65
76.63,5.90,1.30,5.91,1.31,-1.31,-0.95,-1.11,4.59,4.60,4.59
77.40,5.88,1.32,5.89,1.34,-1.34,-0.98,-1.15,4.54,4.55,4.55
78.17,5.87,1.37,5.87,1.37,-1.37,-1.01,-1.20,4.49,4.50,4.49
78.95,5.86,1.40,5.86,1.41,-1.41,-1.04,-1.24,4.45,4.45,4.45
79.74,5.85,1.44,5.84,1.44,-1.44,-1.07,-1.28,4.40,4.40,4.40
80.54,5.83,1.47,5.83,1.48,-1.48,-1.10,-1.33,4.35,4.35,4.35
81.35,5.82,1.52,5.82,1.52,-1.52,-1.14,-1.38,4.30,4.30,4.29
82.16,5.81,1.54,5.80,1.55,-1.55,-1.17,-1.42,4.26,4.25,4.26
82.98,5.79,1.58,5.78,1.59,-1.59,-1.20,-1.47,4.20,4.20,4.20
83.81,5.78,1.62,5.77,1.62,-1.62,-1.23,-1.52,4.15,4.15,4.15
84.65,5.77,1.67,5.75,1.65,-1.65,-1.27,-1.57,4.11,4.09,4.09
85.50,5.75,1.71,5.73,1.69,-1.69,-1.30,-1.63,4.06,4.04,4.03
86.35,5.72,1.73,5.70,1.72,-1.72,-1.33,-1.68,4.00,3.99,3.98
87.22,5.68,1.74,5.68,1.74,-1.74,-1.37,-1.74,3.93,3.93,3.93
88.09,5.66,1.78,5.65,1.77,-1.77,-1.40,-1.79,3.88,3.88,3.87
88.97,5.63,1.81,5.62,1.80,-1.80,-1.44,-1.85,3.82,3.82,3.81
89.86,5.60,1.83,5.60,1.84,-1.84,-1.47,-1.91,3.76,3.76,3.76
90.76,5.57,1.86,5.57,1.87,-1.87,-1.51,-1.97,3.69,3.70,3.70
91.66,5.55,1.91,5.55,1.91,-1.91,-1.55,-2.04,3.63,3.64,3.63
92.58,5.52,1.93,5.54,1.95,-1.95,-1.58,-2.10,3.56,3.58,3.58
93.51,5.50,1.96,5.52,2.00,-2.00,-1.62,-2.17,3.50,3.52,3.53
94.44,5.50,2.02,5.51,2.05,-2.05,-1.66,-2.23,3.45,3.46,3.47
95.39,5.49,2.08,5.50,2.10,-2.10,-1.70,-2.30,3.39,3.40,3.40
96.34,5.48,2.14,5.49,2.16,-2.16,-1.74,-2.37,3.32,3.34,3.33
97.30,5.49,2.21,5.49,2.21,-2.21,-1.78,-2.44,3.27,3.27,3.27
98.28,5.50,2.29,5.49,2.27,-2.27,-1.82,-2.51,3.22,3.21,3.20
99.26,5.51,2.36,5.49,2.34,-2.34,-1.86,-2.58,3.17,3.15,3.14
100.25,5.51,2.42,5.50,2.40,-2.40,-1.90,-2.66,3.10,3.09,3.08
101.25,5.51,2.47,5.50,2.47,-2.47,-1.94,-2.73,3.04,3.03,3.03
102.27,5.51,2.53,5.51,2.53,-2.53,-1.98,-2.80,2.97,2.98,2.97
103.29,5.51,2.59,5.51,2.60,-2.60,-2.03,-2.88,2.91,2.92,2.91
104.32,5.51,2.64,5.52,2.66,-2.66,-2.07,-2.95,2.85,2.86,2.86
105.37,5.51,2.70,5.52,2.71,-2.71,-2.11,-3.02,2.79,2.81,2.80
106.42,5.52,2.76,5.52,2.77,-2.77,-2.16,-3.10,2.75,2.75,2.75
107.48,5.52,2.82,5.51,2.82,-2.82,-2.20,-3.17,2.69,2.69,2.69
108.56,5.53,2.88,5.51,2.87,-2.87,-2.25,-3.24,2.65,2.63,2.64
109.64,5.52,2.93,5.49,2.92,-2.92,-2.30,-3.31,2.60,2.58,2.58
110.74,5.51,2.98,5.48,2.96,-2.96,-2.34,-3.38,2.55,2.52,2.52
111.85,5.48,3.01,5.46,3.00,-3.00,-2.39,-3.44,2.48,2.46,2.46
112.97,5.45,3.03,5.44,3.04,-3.04,-2.44,-3.51,2.41,2.40,2.41
114.10,5.42,3.06,5.41,3.07,-3.07,-2.49,-3.57,2.35,2.34,2.35
115.24,5.39,3.11,5.38,3.10,-3.10,-2.54,-3.63,2.29,2.28,2.27
116.39,5.36,3.14,5.35,3.13,-3.13,-2.59,-3.68,2.23,2.23,2.21
117.55,5.33,3.17,5.32,3.15,-3.15,-2.64,-3.74,2.17,2.17,2.15
118.73,5.29,3.19,5.29,3.18,-3.18,-2.69,-3.78,2.11,2.11,2.09
119.92,5.25,3.19,5.26,3.21,-3.21,-2.74,-3.83,2.04,2.06,2.05
121.12,5.22,3.21,5.24,3.24,-3.24,-2.79,-3.87,1.98,2.00,2.00
122.33,5.21,3.26,5.21,3.27,-3.27,-2.84,-3.90,1.93,1.94,1.94
123.55,5.19,3.29,5.19,3.31,-3.31,-2.90,-3.94,1.88,1.89,1.89
124.79,5.16,3.31,5.18,3.35,-3.35,-2.95,-3.96,1.81,1.83,1.84
126.03,5.16,3.37,5.16,3.39,-3.39,-3.00,-3.99,1.77,1.78,1.78
127.29,5.16,3.42,5.15,3.43,-3.43,-3.06,-4.00,1.72,1.72,1.73
128.57,5.17,3.50,5.15,3.48,-3.48,-3.11,-4.02,1.68,1.67,1.66
129.85,5.17,3.55,5.15,3.54,-3.54,-3.17,-4.03,1.63,1.61,1.61
131.15,5.17,3.61,5.16,3.60,-3.60,-3.22,-4.03,1.57,1.56,1.55
132.46,5.16,3.65,5.17,3.66,-3.66,-3.28,-4.03,1.49,1.50,1.50
133.79,5.16,3.71,5.18,3.73,-3.73,-3.33,-4.03,1.42,1.45,1.44
135.12,5.18,3.78,5.20,3.80,-3.80,-3.39,-4.02,1.37,1.39,1.39
136.48,5.19,3.84,5.21,3.87,-3.87,-3.45,-4.02,1.31,1.34,1.34
137.84,5.23,3.93,5.23,3.94,-3.94,-3.50,-4.01,1.28,1.29,1.29
139.22,5.25,4.01,5.25,4.01,-4.01,-3.56,-3.99,1.23,1.24,1.23
140.61,5.28,4.08,5.27,4.08,-4.08,-3.62,-3.98,1.20,1.19,1.19
142.02,5.31,4.17,5.29,4.14,-4.14,-3.67,-3.96,1.16,1.14,1.13
143.44,5.32,4.22,5.30,4.20,-4.20,-3.73,-3.94,1.11,1.10,1.09
144.87,5.34,4.28,5.31,4.26,-4.26,-3.79,-3.92,1.07,1.05,1.05
146.32,5.34,4.33,5.32,4.32,-4.32,-3.84,-3.91,1.02,1.01,1.00
147.78,5.34,4.37,5.33,4.37,-4.37,-3.90,-3.89,0.97,0.96,0.96
149.26,5.34,4.42,5.33,4.41,-4.41,-3.95,-3.87,0.93,0.92,0.91
150.75,5.33,4.45,5.32,4.45,-4.45,-4.01,-3.85,0.88,0.87,0.87
152.26,5.32,4.48,5.31,4.48,-4.48,-4.06,-3.83,0.84,0.83,0.83
153.78,5.30,4.50,5.30,4.51,-4.51,-4.12,-3.82,0.79,0.79,0.79
155.32,5.29,4.53,5.28,4.53,-4.53,-4.17,-3.80,0.75,0.75,0.75
156.88,5.26,4.55,5.26,4.56,-4.56,-4.23,-3.79,0.70,0.70,0.70
158.44,5.24,4.58,5.24,4.58,-4.58,-4.28,-3.78,0.65,0.66,0.65
160.03,5.21,4.59,5.22,4.61,-4.61,-4.33,-3.77,0.60,0.61,0.61
161.63,5.19,4.61,5.19,4.63,-4.63,-4.38,-3.76,0.56,0.57,0.57
163.24,5.16,4.63,5.17,4.65,-4.65,-4.43,-3.76,0.51,0.52,0.52
164.88,5.13,4.65,5.15,4.67,-4.67,-4.48,-3.76,0.45,0.48,0.47
166.53,5.11,4.68,5.12,4.69,-4.69,-4.53,-3.76,0.42,0.43,0.42
168.19,5.10,4.70,5.09,4.71,-4.71,-4.57,-3.76,0.39,0.38,0.39
169.87,5.07,4.73,5.06,4.73,-4.73,-4.62,-3.77,0.34,0.33,0.33
171.57,5.05,4.76,5.03,4.74,-4.74,-4.66,-3.78,0.31,0.29,0.28
173.29,5.03,4.78,4.99,4.76,-4.76,-4.70,-3.79,0.27,0.24,0.24
175.02,4.98,4.78,4.96,4.77,-4.77,-4.75,-3.80,0.21,0.19,0.19
176.77,4.94,4.79,4.93,4.78,-4.78,-4.78,-3.82,0.15,0.15,0.14
178.54,4.90,4.79,4.89,4.79,-4.79,-4.82,-3.84,0.10,0.10,0.10
180.32,4.86,4.81,4.86,4.80,-4.80,-4.86,-3.86,0.05,0.05,0.04
182.13,4.81,4.79,4.82,4.81,-4.81,-4.89,-3.89,-0.01,0.01,0.01
183.95,4.75,4.78,4.78,4.82,-4.82,-4.92,-3.92,-0.08,-0.04,-0.04
185.79,4.72,4.80,4.74,4.83,-4.83,-4.95,-3.95,-0.11,-0.08,-0.09
187.65,4.70,4.82,4.70,4.83,-4.83,-4.97,-3.99,-0.13,-0.13,-0.13
189.52,4.68,4.84,4.66,4.83,-4.83,-5.00,-4.03,-0.16,-0.17,-0.17
191.42,4.65,4.85,4.62,4.84,-4.84,-5.02,-4.07,-0.19,-0.21,-0.21
193.33,4.61,4.85,4.59,4.84,-4.84,-5.04,-4.11,-0.23,-0.25,-0.25
195.27,4.56,4.85,4.55,4.84,-4.84,-5.05,-4.16,-0.29,-0.29,-0.30
197.22,4.51,4.85,4.51,4.85,-4.85,-5.07,-4.20,-0.34,-0.33,-0.35
199.19,4.47,4.84,4.48,4.84,-4.84,-5.08,-4.25,-0.38,-0.37,-0.38
201.18,4.43,4.84,4.44,4.84,-4.84,-5.09,-4.30,-0.42,-0.41,-0.42
203.19,4.39,4.83,4.40,4.84,-4.84,-5.09,-4.36,-0.45,-0.44,-0.45
205.23,4.36,4.82,4.36,4.83,-4.83,-5.10,-4.41,-0.48,-0.47,-0.47
207.28,4.34,4.83,4.32,4.83,-4.83,-5.10,-4.46,-0.49,-0.51,-0.50
209.35,4.30,4.83,4.28,4.82,-4.82,-5.10,-4.52,-0.52,-0.54,-0.54
211.44,4.26,4.82,4.24,4.81,-4.81,-5.09,-4.58,-0.56,-0.57,-0.57
213.56,4.21,4.79,4.21,4.80,-4.80,-5.08,-4.63,-0.59,-0.60,-0.59
215.69,4.16,4.77,4.17,4.79,-4.79,-5.07,-4.69,-0.64,-0.62,-0.62
217.85,4.11,4.75,4.13,4.78,-4.78,-5.06,-4.74,-0.67,-0.65,-0.65
220.03,4.08,4.75,4.09,4.77,-4.77,-5.05,-4.79,-0.69,-0.67,-0.68
222.23,4.06,4.76,4.06,4.75,-4.75,-5.03,-4.84,-0.70,-0.70,-0.71
224.45,4.04,4.75,4.02,4.74,-4.74,-5.01,-4.89,-0.70,-0.72,-0.72
226.70,4.00,4.74,3.98,4.72,-4.72,-4.99,-4.93,-0.73,-0.74,-0.75
228.96,3.96,4.71,3.94,4.70,-4.70,-4.96,-4.97,-0.75,-0.76,-0.76
231.25,3.92,4.69,3.90,4.68,-4.68,-4.93,-5.01,-0.77,-0.78,-0.78
233.57,3.87,4.66,3.87,4.66,-4.66,-4.90,-5.04,-0.80,-0.80,-0.80
235.90,3.81,4.61,3.83,4.64,-4.64,-4.87,-5.07,-0.84,-0.81,-0.81
238.26,3.79,4.62,3.80,4.62,-4.62,-4.84,-5.09,-0.83,-0.82,-0.84
240.64,3.75,4.57,3.76,4.60,-4.60,-4.80,-5.10,-0.85,-0.83,-0.83
243.05,3.73,4.57,3.72,4.57,-4.57,-4.77,-5.11,-0.84,-0.84,-0.85
245.48,3.70,4.55,3.69,4.54,-4.54,-4.73,-5.12,-0.84,-0.85,-0.86
247.93,3.66,4.52,3.65,4.51,-4.51,-4.69,-5.11,-0.85,-0.86,-0.87
250.41,3.63,4.48,3.61,4.47,-4.47,-4.64,-5.10,-0.85,-0.86,-0.86
252.92,3.57,4.43,3.57,4.44,-4.44,-4.60,-5.09,-0.88,-0.87,-0.87
255.45,3.54,4.41,3.54,4.41,-4.41,-4.55,-5.06,-0.87,-0.87,-0.88
258.00,3.50,4.37,3.50,4.38,-4.38,-4.51,-5.03,-0.88,-0.88,-0.88
260.58,3.46,4.33,3.46,4.34,-4.34,-4.46,-5.00,-0.89,-0.88,-0.88
263.19,3.43,4.30,3.42,4.31,-4.31,-4.41,-4.96,-0.88,-0.88,-0.88
265.82,3.38,4.26,3.38,4.27,-4.27,-4.36,-4.91,-0.89,-0.89,-0.89
268.48,3.35,4.23,3.34,4.23,-4.23,-4.31,-4.85,-0.88,-0.89,-0.89
271.16,3.31,4.19,3.29,4.19,-4.19,-4.26,-4.79,-0.88,-0.89,-0.89
273.87,3.25,4.13,3.25,4.14,-4.14,-4.21,-4.73,-0.90,-0.89,-0.89
276.61,3.21,4.09,3.21,4.10,-4.10,-4.15,-4.66,-0.89,-0.89,-0.89
279.38,3.17,4.07,3.16,4.05,-4.05,-4.10,-4.59,-0.89,-0.89,-0.91
282.17,3.12,4.02,3.11,4.01,-4.01,-4.04,-4.52,-0.89,-0.89,-0.91
284.99,3.08,3.97,3.06,3.96,-3.96,-3.99,-4.44,-0.88,-0.89,-0.90
287.84,3.02,3.90,3.02,3.91,-3.91,-3.93,-4.36,-0.89,-0.89,-0.89
290.72,2.97,3.86,2.97,3.86,-3.86,-3.88,-4.28,-0.89,-0.89,-0.90
293.63,2.93,3.81,2.93,3.81,-3.81,-3.82,-4.20,-0.89,-0.89,-0.89
296.57,2.89,3.76,2.89,3.77,-3.77,-3.77,-4.11,-0.88,-0.88,-0.88
299.53,2.84,3.71,2.84,3.72,-3.72,-3.71,-4.03,-0.88,-0.88,-0.88
302.53,2.79,3.64,2.80,3.67,-3.67,-3.66,-3.95,-0.89,-0.87,-0.86
305.55,2.75,3.61,2.76,3.63,-3.63,-3.60,-3.86,-0.88,-0.86,-0.87
308.61,2.71,3.56,2.72,3.58,-3.58,-3.54,-3.78,-0.87,-0.86,-0.86
311.69,2.69,3.53,2.69,3.53,-3.53,-3.49,-3.69,-0.85,-0.85,-0.85
314.81,2.68,3.52,2.65,3.49,-3.49,-3.43,-3.61,-0.81,-0.84,-0.85
317.96,2.64,3.47,2.62,3.45,-3.45,-3.38,-3.53,-0.81,-0.84,-0.84
321.14,2.60,3.42,2.58,3.41,-3.41,-3.32,-3.45,-0.81,-0.83,-0.83
324.35,2.56,3.38,2.55,3.37,-3.37,-3.27,-3.37,-0.81,-0.82,-0.83
327.59,2.52,3.31,2.52,3.33,-3.33,-3.21,-3.30,-0.82,-0.81,-0.80
330.87,2.48,3.28,2.49,3.30,-3.30,-3.16,-3.22,-0.82,-0.81,-0.81
334.18,2.45,3.24,2.46,3.26,-3.26,-3.11,-3.15,-0.81,-0.80,-0.80
337.52,2.42,3.21,2.43,3.22,-3.22,-3.05,-3.08,-0.81,-0.79,-0.80
340.90,2.41,3.18,2.40,3.18,-3.18,-3.00,-3.01,-0.78,-0.78,-0.78
344.30,2.38,3.14,2.37,3.15,-3.15,-2.95,-2.94,-0.77,-0.77,-0.77
347.75,2.36,3.12,2.34,3.11,-3.11,-2.89,-2.88,-0.75,-0.76,-0.77
351.23,2.33,3.09,2.31,3.07,-3.07,-2.84,-2.82,-0.75,-0.76,-0.77
354.74,2.30,3.03,2.29,3.04,-3.04,-2.79,-2.76,-0.74,-0.75,-0.74
358.28,2.27,3.01,2.26,3.00,-3.00,-2.74,-2.70,-0.74,-0.74,-0.75
361.87,2.24,2.97,2.24,2.97,-2.97,-2.69,-2.64,-0.73,-0.73,-0.74
365.49,2.21,2.93,2.21,2.94,-2.94,-2.64,-2.59,-0.73,-0.73,-0.73
369.14,2.18,2.88,2.18,2.90,-2.90,-2.59,-2.54,-0.72,-0.72,-0.71
372.83,2.16,2.86,2.16,2.86,-2.86,-2.54,-2.49,-0.71,-0.71,-0.71
376.56,2.12,2.82,2.13,2.83,-2.83,-2.50,-2.44,-0.71,-0.70,-0.71
380.33,2.10,2.79,2.10,2.79,-2.79,-2.45,-2.39,-0.69,-0.69,-0.70
384.13,2.07,2.74,2.07,2.75,-2.75,-2.40,-2.35,-0.68,-0.68,-0.68
387.97,2.05,2.72,2.04,2.71,-2.71,-2.36,-2.31,-0.67,-0.67,-0.68
391.85,2.03,2.69,2.02,2.68,-2.68,-2.31,-2.27,-0.65,-0.66,-0.67
395.77,2.00,2.65,1.99,2.64,-2.64,-2.27,-2.23,-0.65,-0.65,-0.66
399.73,1.96,2.60,1.97,2.61,-2.61,-2.22,-2.19,-0.65,-0.64,-0.65
403.72,1.93,2.54,1.94,2.57,-2.57,-2.18,-2.16,-0.65,-0.63,-0.62
407.76,1.90,2.52,1.91,2.53,-2.53,-2.14,-2.13,-0.64,-0.62,-0.63
411.84,1.87,2.48,1.88,2.49,-2.49,-2.09,-2.09,-0.63,-0.61,-0.62
415.96,1.85,2.44,1.85,2.45,-2.45,-2.05,-2.06,-0.60,-0.60,-0.60
420.12,1.83,2.42,1.81,2.41,-2.41,-2.01,-2.03,-0.58,-0.59,-0.60
424.32,1.81,2.39,1.77,2.36,-2.36,-1.97,-2.00,-0.55,-0.59,-0.59
428.56,1.77,2.33,1.74,2.31,-2.31,-1.93,-1.98,-0.55,-0.58,-0.57
432.85,1.72,2.27,1.70,2.26,-2.26,-1.89,-1.95,-0.55,-0.57,-0.56
437.18,1.67,2.23,1.66,2.22,-2.22,-1.85,-1.92,-0.55,-0.56,-0.57
441.55,1.62,2.17,1.62,2.17,-2.17,-1.81,-1.90,-0.55,-0.55,-0.56
445.96,1.57,2.11,1.58,2.12,-2.12,-1.77,-1.87,-0.55,-0.54,-0.55
450.42,1.51,2.04,1.54,2.07,-2.07,-1.74,-1.85,-0.56,-0.53,-0.54
454.93,1.47,1.99,1.49,2.02,-2.02,-1.70,-1.82,-0.55,-0.52,-0.53
459.48,1.43,1.94,1.45,1.96,-1.96,-1.66,-1.80,-0.54,-0.51,-0.52
464.07,1.41,1.90,1.40,1.91,-1.91,-1.63,-1.78,-0.51,-0.51,-0.50
468.71,1.38,1.86,1.36,1.86,-1.86,-1.59,-1.75,-0.48,-0.50,-0.49
473.40,1.34,1.82,1.32,1.81,-1.81,-1.56,-1.73,-0.47,-0.49,-0.49
478.13,1.31,1.78,1.29,1.76,-1.76,-1.52,-1.71,-0.46,-0.48,-0.48
482.91,1.26,1.72,1.25,1.72,-1.72,-1.49,-1.68,-0.46,-0.47,-0.47
487.74,1.22,1.67,1.22,1.67,-1.67,-1.46,-1.66,-0.46,-0.45,-0.46
492.62,1.18,1.62,1.19,1.63,-1.63,-1.43,-1.63,-0.45,-0.44,-0.45
497.55,1.14,1.57,1.16,1.59,-1.59,-1.39,-1.61,-0.45,-0.43,-0.44
502.52,1.12,1.54,1.12,1.54,-1.54,-1.36,-1.58,-0.43,-0.42,-0.43
507.55,1.09,1.49,1.09,1.50,-1.50,-1.33,-1.55,-0.42,-0.41,-0.41
512.62,1.07,1.46,1.07,1.46,-1.46,-1.30,-1.53,-0.40,-0.40,-0.40
517.75,1.04,1.41,1.04,1.42,-1.42,-1.27,-1.50,-0.39,-0.38,-0.38
522.93,1.02,1.38,1.01,1.38,-1.38,-1.24,-1.47,-0.37,-0.37,-0.37
528.16,1.00,1.35,0.99,1.35,-1.35,-1.21,-1.44,-0.35,-0.36,-0.36
