frequency,raw,error,smoothed,error_smoothed,equalization,parametric_eq,fixed_band_eq,equalized_raw,equalized_smoothed,target
20.00,1.13,-2.59,1.10,-2.65,2.65,1.79,0.17,3.79,3.75,3.73
20.20,1.21,-2.56,1.20,-2.59,2.59,1.75,0.17,3.80,3.79,3.78
20.40,1.30,-2.53,1.30,-2.53,2.53,1.70,0.18,3.82,3.83,3.83
20.61,1.37,-2.48,1.40,-2.46,2.46,1.65,0.18,3.84,3.86,3.86
20.81,1.47,-2.44,1.49,-2.40,2.40,1.59,0.19,3.87,3.89,3.91
21.02,1.54,-2.40,1.58,-2.34,2.34,1.53,0.19,3.88,3.92,3.95
21.23,1.64,-2.32,1.67,-2.28,2.28,1.47,0.20,3.92,3.95,3.97
21.44,1.75,-2.24,1.75,-2.22,2.22,1.41,0.21,3.96,3.97,3.99
21.66,1.84,-2.16,1.83,-2.16,2.16,1.34,0.21,4.00,3.99,4.01
21.87,1.95,-2.07,1.91,-2.10,2.10,1.28,0.22,4.05,4.01,4.02
22.09,2.03,-2.01,1.98,-2.04,2.04,1.22,0.23,4.07,4.02,4.04
22.31,2.08,-1.97,2.05,-1.98,1.98,1.16,0.23,4.06,4.04,4.05
22.54,2.12,-1.92,2.12,-1.92,1.92,1.10,0.24,4.05,4.04,4.05
22.76,2.18,-1.86,2.18,-1.86,1.86,1.05,0.25,4.05,4.05,4.05
22.99,2.23,-1.80,2.24,-1.81,1.81,0.99,0.25,4.04,4.05,4.04
23.22,2.29,-1.74,2.29,-1.76,1.76,0.94,0.26,4.05,4.05,4.04
23.45,2.34,-1.69,2.34,-1.71,1.71,0.89,0.27,4.05,4.05,4.04
23.69,2.40,-1.64,2.40,-1.65,1.65,0.84,0.28,4.06,4.05,4.05
23.92,2.47,-1.58,2.45,-1.59,1.59,0.79,0.28,4.06,4.05,4.05
24.16,2.51,-1.53,2.52,-1.53,1.53,0.75,0.29,4.05,4.05,4.05
24.40,2.56,-1.50,2.58,-1.46,1.46,0.71,0.30,4.02,4.05,4.06
24.65,2.60,-1.44,2.66,-1.39,1.39,0.67,0.31,3.99,4.05,4.05
24.89,2.65,-1.40,2.74,-1.31,1.31,0.63,0.31,3.96,4.05,4.05
25.14,2.74,-1.31,2.82,-1.23,1.23,0.60,0.32,3.97,4.05,4.05
25.39,2.85,-1.21,2.89,-1.16,1.16,0.57,0.33,4.01,4.05,4.06
25.65,2.96,-1.09,2.95,-1.10,1.10,0.53,0.34,4.06,4.05,4.06
25.91,3.08,-0.96,3.02,-1.03,1.03,0.50,0.34,4.12,4.05,4.05
26.16,3.17,-0.88,3.08,-0.97,0.97,0.48,0.35,4.14,4.05,4.05
26.43,3.21,-0.83,3.13,-0.91,0.91,0.45,0.36,4.13,4.05,4.05
26.69,3.27,-0.77,3.19,-0.86,0.86,0.42,0.37,4.13,4.04,4.05
26.96,3.33,-0.71,3.24,-0.80,0.80,0.40,0.37,4.14,4.04,4.05
27.23,3.32,-0.72,3.29,-0.75,0.75,0.38,0.38,4.08,4.04,4.05
27.50,3.30,-0.74,3.34,-0.70,0.70,0.35,0.38,4.01,4.04,4.05
27.77,3.29,-0.74,3.38,-0.66,0.66,0.33,0.39,3.95,4.04,4.04
28.05,3.29,-0.74,3.42,-0.62,0.62,0.31,0.39,3.91,4.04,4.04
28.33,3.38,-0.65,3.46,-0.58,0.58,0.30,0.40,3.95,4.03,4.03
28.62,3.45,-0.57,3.49,-0.54,0.54,0.28,0.40,3.99,4.03,4.03
28.90,3.53,-0.50,3.53,-0.50,0.50,0.26,0.40,4.03,4.03,4.04
29.19,3.60,-0.42,3.58,-0.45,0.45,0.24,0.40,4.06,4.03,4.03
29.48,3.67,-0.37,3.63,-0.40,0.40,0.23,0.41,4.07,4.03,4.04
29.78,3.72,-0.30,3.68,-0.35,0.35,0.21,0.41,4.07,4.03,4.03
30.08,3.77,-0.26,3.74,-0.29,0.29,0.20,0.41,4.06,4.03,4.04
30.38,3.81,-0.21,3.80,-0.22,0.22,0.19,0.40,4.04,4.03,4.03
30.68,3.85,-0.17,3.86,-0.16,0.16,0.17,0.40,4.01,4.02,4.03
30.99,3.89,-0.13,3.92,-0.10,0.10,0.16,0.40,4.00,4.02,4.03
31.30,3.94,-0.07,3.97,-0.05,0.05,0.15,0.39,3.99,4.02,4.02
31.61,3.99,-0.02,4.01,-0.00,0.00,0.14,0.39,4.00,4.02,4.02
31.93,4.05,0.04,4.06,0.04,-0.04,0.12,0.38,4.01,4.01,4.02
32.24,4.11,0.10,4.10,0.09,-0.09,0.11,0.37,4.02,4.01,4.01
32.57,4.16,0.16,4.14,0.13,-0.13,0.10,0.36,4.03,4.01,4.01
32.89,4.22,0.22,4.17,0.17,-0.17,0.09,0.35,4.05,4.00,4.01
33.22,4.24,0.25,4.21,0.21,-0.21,0.08,0.34,4.03,4.00,4.00
33.55,4.25,0.26,4.25,0.26,-0.26,0.07,0.33,3.99,3.99,4.00
33.89,4.26,0.28,4.30,0.31,-0.31,0.06,0.32,3.95,3.99,3.99
34.23,4.29,0.31,4.34,0.36,-0.36,0.05,0.31,3.94,3.98,3.99
34.57,4.34,0.37,4.37,0.39,-0.39,0.05,0.29,3.95,3.98,3.98
34.92,4.39,0.42,4.39,0.42,-0.42,0.04,0.28,3.98,3.97,3.98
35.27,4.42,0.46,4.42,0.45,-0.45,0.03,0.26,3.98,3.97,3.97
35.62,4.44,0.48,4.45,0.48,-0.48,0.02,0.25,3.96,3.97,3.97
35.97,4.47,0.50,4.48,0.52,-0.52,0.01,0.23,3.95,3.97,3.97
36.33,4.54,0.57,4.52,0.56,-0.56,0.00,0.22,3.98,3.96,3.97
36.70,4.61,0.66,4.56,0.59,-0.59,-0.00,0.20,4.02,3.96,3.96
37.06,4.66,0.71,4.59,0.63,-0.63,-0.01,0.18,4.03,3.96,3.96
37.43,4.59,0.63,4.63,0.66,-0.66,-0.02,0.16,3.93,3.96,3.97
37.81,4.52,0.56,4.66,0.70,-0.70,-0.03,0.15,3.83,3.96,3.97
38.19,4.56,0.61,4.69,0.72,-0.72,-0.03,0.13,3.84,3.96,3.96
38.57,4.71,0.75,4.71,0.74,-0.74,-0.04,0.11,3.97,3.96,3.97
38.95,4.85,0.88,4.73,0.76,-0.76,-0.05,0.09,4.09,3.97,3.98
39.34,4.84,0.88,4.75,0.78,-0.78,-0.06,0.07,4.06,3.97,3.97
39.74,4.80,0.84,4.76,0.80,-0.80,-0.06,0.05,4.01,3.97,3.97
40.14,4.77,0.81,4.77,0.81,-0.81,-0.07,0.04,3.97,3.97,3.97
40.54,4.77,0.81,4.78,0.82,-0.82,-0.08,0.02,3.96,3.96,3.97
40.94,4.77,0.82,4.79,0.83,-0.83,-0.09,-0.00,3.95,3.96,3.96
41.35,4.77,0.82,4.80,0.84,-0.84,-0.09,-0.02,3.93,3.95,3.96
41.76,4.77,0.83,4.79,0.85,-0.85,-0.10,-0.04,3.93,3.95,3.95
42.18,4.77,0.83,4.78,0.84,-0.84,-0.11,-0.06,3.93,3.94,3.95
42.60,4.77,0.84,4.77,0.84,-0.84,-0.11,-0.08,3.94,3.93,3.94
43.03,4.77,0.85,4.75,0.84,-0.84,-0.12,-0.10,3.94,3.92,3.93
43.46,4.77,0.86,4.75,0.85,-0.85,-0.13,-0.12,3.93,3.90,3.92
43.90,4.77,0.88,4.76,0.87,-0.87,-0.14,-0.13,3.91,3.89,3.90
44.33,4.77,0.90,4.78,0.90,-0.90,-0.14,-0.15,3.88,3.88,3.88
44.78,4.77,0.92,4.79,0.93,-0.93,-0.15,-0.17,3.85,3.87,3.86
45.23,4.75,0.91,4.81,0.96,-0.96,-0.16,-0.19,3.80,3.85,3.85
45.68,4.70,0.87,4.83,0.99,-0.99,-0.17,-0.21,3.72,3.84,3.84
46.13,4.73,0.91,4.85,1.03,-1.03,-0.17,-0.23,3.70,3.83,3.82
46.60,4.88,1.07,4.88,1.07,-1.07,-0.18,-0.25,3.82,3.81,3.82
47.06,5.02,1.23,4.90,1.10,-1.10,-0.19,-0.27,3.92,3.80,3.80
47.53,4.99,1.21,4.92,1.13,-1.13,-0.20,-0.29,3.86,3.78,3.79
48.01,4.97,1.19,4.93,1.16,-1.16,-0.20,-0.31,3.81,3.77,3.79
48.49,4.97,1.21,4.94,1.19,-1.19,-0.21,-0.33,3.79,3.75,3.77
48.97,4.97,1.23,4.95,1.21,-1.21,-0.22,-0.35,3.77,3.74,3.75
49.46,4.97,1.25,4.96,1.23,-1.23,-0.23,-0.37,3.75,3.73,3.73
49.96,4.97,1.27,4.96,1.25,-1.25,-0.24,-0.39,3.73,3.72,3.71
50.46,4.97,1.28,4.96,1.26,-1.26,-0.25,-0.41,3.71,3.70,3.70
50.96,4.97,1.29,4.96,1.27,-1.27,-0.25,-0.43,3.70,3.69,3.69
51.47,4.89,1.23,4.94,1.27,-1.27,-0.26,-0.45,3.63,3.68,3.67
51.99,4.81,1.15,4.93,1.26,-1.26,-0.27,-0.47,3.54,3.66,3.66
52.51,4.84,1.20,4.90,1.25,-1.25,-0.28,-0.49,3.59,3.65,3.65
53.03,4.87,1.23,4.88,1.24,-1.24,-0.29,-0.51,3.63,3.64,3.65
53.56,4.87,1.25,4.86,1.24,-1.24,-0.30,-0.53,3.63,3.62,3.63
54.10,4.87,1.26,4.84,1.23,-1.23,-0.31,-0.55,3.65,3.61,3.62
54.64,4.86,1.27,4.81,1.20,-1.20,-0.32,-0.57,3.66,3.60,3.60
55.18,4.84,1.25,4.77,1.18,-1.18,-0.33,-0.59,3.67,3.59,3.60
55.74,4.77,1.19,4.73,1.15,-1.15,-0.34,-0.61,3.61,3.58,3.58
56.29,4.71,1.15,4.70,1.13,-1.13,-0.35,-0.63,3.58,3.57,3.57
56.86,4.68,1.13,4.66,1.11,-1.11,-0.36,-0.65,3.57,3.55,3.56
57.42,4.58,1.06,4.63,1.09,-1.09,-0.37,-0.67,3.50,3.54,3.53
58.00,4.45,0.94,4.58,1.06,-1.06,-0.38,-0.69,3.39,3.52,3.52
58.58,4.53,1.03,4.52,1.03,-1.03,-0.39,-0.71,3.51,3.50,3.51
59.16,4.52,1.04,4.46,0.99,-0.99,-0.40,-0.73,3.53,3.47,3.49
59.76,4.32,0.85,4.40,0.95,-0.95,-0.41,-0.75,3.36,3.44,3.47
60.35,4.27,0.85,4.33,0.92,-0.92,-0.42,-0.77,3.35,3.41,3.43
60.96,4.35,0.97,4.27,0.89,-0.89,-0.43,-0.80,3.46,3.38,3.39
61.57,4.30,0.96,4.21,0.87,-0.87,-0.44,-0.82,3.44,3.34,3.35
62.18,4.22,0.92,4.15,0.85,-0.85,-0.46,-0.84,3.38,3.31,3.31
62.80,4.07,0.82,4.10,0.84,-0.84,-0.47,-0.86,3.24,3.26,3.26
63.43,4.00,0.79,4.04,0.82,-0.82,-0.48,-0.88,3.18,3.22,3.22
64.07,3.96,0.80,3.98,0.81,-0.81,-0.49,-0.90,3.16,3.18,3.17
64.71,3.85,0.72,3.92,0.79,-0.79,-0.50,-0.92,3.05,3.13,3.13
65.35,3.79,0.71,3.87,0.78,-0.78,-0.51,-0.94,3.01,3.08,3.09
66.01,3.81,0.78,3.80,0.77,-0.77,-0.52,-0.96,3.05,3.04,3.04
66.67,3.74,0.76,3.74,0.75,-0.75,-0.53,-0.98,2.99,2.99,2.99
67.33,3.69,0.76,3.68,0.74,-0.74,-0.54,-1.00,2.96,2.94,2.94
68.01,3.66,0.77,3.61,0.72,-0.72,-0.55,-1.03,2.95,2.89,2.90
68.69,3.63,0.79,3.56,0.72,-0.72,-0.56,-1.05,2.92,2.84,2.85
69.37,3.51,0.72,3.51,0.72,-0.72,-0.57,-1.07,2.79,2.79,2.80
70.07,3.34,0.60,3.46,0.72,-0.72,-0.57,-1.09,2.62,2.74,2.75
70.77,3.37,0.68,3.40,0.72,-0.72,-0.58,-1.12,2.66,2.69,2.70
71.48,3.36,0.72,3.33,0.70,-0.70,-0.58,-1.14,2.67,2.63,2.65
72.19,3.25,0.68,3.25,0.67,-0.67,-0.58,-1.17,2.58,2.58,2.58
72.91,2.97,0.45,3.15,0.63,-0.63,-0.58,-1.19,2.33,2.52,2.52
73.64,3.14,0.68,3.05,0.59,-0.59,-0.57,-1.22,2.56,2.46,2.47
74.38,3.13,0.73,2.95,0.54,-0.54,-0.55,-1.25,2.60,2.41,2.41
75.12,2.90,0.56,2.83,0.48,-0.48,-0.54,-1.28,2.43,2.35,2.35
75.87,2.81,0.53,2.71,0.41,-0.41,-0.51,-1.31,2.40,2.30,2.29
76.63,2.64,0.41,2.59,0.34,-0.34,-0.47,-1.34,2.30,2.24,2.24
77.40,2.46,0.28,2.46,0.28,-0.28,-0.43,-1.37,2.19,2.19,2.19
78.17,2.29,0.17,2.33,0.20,-0.20,-0.37,-1.40,2.09,2.13,2.13
78.95,2.09,0.01,2.20,0.12,-0.12,-0.29,-1.44,1.98,2.08,2.09
79.74,2.01,-0.02,2.08,0.04,-0.04,-0.21,-1.47,1.97,2.03,2.04
80.54,1.98,-0.00,1.97,-0.02,0.02,-0.11,-1.51,2.00,1.99,1.99
81.35,1.87,-0.06,1.86,-0.07,0.07,-0.02,-1.55,1.95,1.94,1.94
82.16,1.68,-0.20,1.76,-0.13,0.13,0.06,-1.58,1.81,1.89,1.89
82.98,1.67,-0.17,1.69,-0.16,0.16,0.11,-1.63,1.83,1.84,1.85
83.81,1.65,-0.14,1.64,-0.16,0.16,0.12,-1.67,1.81,1.80,1.80
84.65,1.58,-0.16,1.61,-0.14,0.14,0.06,-1.71,1.73,1.75,1.75
85.50,1.55,-0.15,1.60,-0.10,0.10,-0.05,-1.76,1.65,1.70,1.71
86.35,1.57,-0.08,1.61,-0.04,0.04,-0.20,-1.80,1.62,1.65,1.66
87.22,1.62,0.02,1.63,0.03,-0.03,-0.38,-1.85,1.60,1.60,1.61
88.09,1.70,0.15,1.67,0.12,-0.12,-0.56,-1.90,1.58,1.55,1.56
88.97,1.67,0.18,1.72,0.23,-0.23,-0.74,-1.95,1.45,1.50,1.50
89.86,1.77,0.33,1.79,0.34,-0.34,-0.91,-2.00,1.43,1.45,1.45
90.76,1.90,0.51,1.88,0.48,-0.48,-1.06,-2.06,1.42,1.40,1.40
91.66,1.98,0.64,1.98,0.63,-0.63,-1.21,-2.11,1.36,1.35,1.35
92.58,2.07,0.79,2.08,0.79,-0.79,-1.34,-2.17,1.29,1.30,1.29
93.51,2.22,0.99,2.20,0.96,-0.96,-1.46,-2.23,1.26,1.24,1.24
94.44,2.36,1.17,2.34,1.15,-1.15,-1.57,-2.29,1.22,1.19,1.20
95.39,2.44,1.30,2.49,1.35,-1.35,-1.68,-2.35,1.09,1.14,1.15
96.34,2.61,1.52,2.65,1.55,-1.55,-1.79,-2.41,1.06,1.10,1.10
97.30,2.85,1.81,2.81,1.77,-1.77,-1.88,-2.48,1.09,1.05,1.05
98.28,2.93,1.94,2.98,1.99,-1.99,-1.98,-2.54,0.95,1.00,1.00
99.26,3.05,2.10,3.16,2.21,-2.21,-2.07,-2.61,0.85,0.95,0.96
100.25,3.27,2.37,3.33,2.42,-2.42,-2.17,-2.67,0.85,0.90,0.91
101.25,3.50,2.64,3.49,2.64,-2.64,-2.26,-2.74,0.86,0.86,0.86
102.27,3.69,2.89,3.66,2.85,-2.85,-2.35,-2.80,0.85,0.81,0.81
103.29,3.86,3.11,3.81,3.05,-3.05,-2.44,-2.87,0.81,0.76,0.76
104.32,4.03,3.32,3.95,3.24,-3.24,-2.53,-2.94,0.80,0.71,0.72
105.37,4.15,3.49,4.08,3.42,-3.42,-2.61,-3.00,0.73,0.66,0.67
106.42,4.21,3.60,4.20,3.59,-3.59,-2.70,-3.07,0.62,0.61,0.62
107.48,4.33,3.78,4.30,3.74,-3.74,-2.79,-3.13,0.59,0.55,0.56
108.56,4.38,3.88,4.38,3.88,-3.88,-2.87,-3.19,0.51,0.50,0.51
109.64,4.41,3.96,4.45,4.00,-4.00,-2.96,-3.25,0.42,0.45,0.46
110.74,4.47,4.08,4.49,4.10,-4.10,-3.04,-3.31,0.38,0.40,0.40
111.85,4.50,4.15,4.52,4.17,-4.17,-3.12,-3.36,0.34,0.35,0.36
112.97,4.50,4.21,4.52,4.22,-4.22,-3.20,-3.41,0.29,0.30,0.30
114.10,4.49,4.25,4.50,4.25,-4.25,-3.28,-3.46,0.24,0.25,0.25
115.24,4.49,4.30,4.48,4.27,-4.27,-3.35,-3.50,0.22,0.20,0.20
116.39,4.47,4.33,4.44,4.28,-4.28,-3.42,-3.54,0.19,0.16,0.15
117.55,4.42,4.32,4.38,4.26,-4.26,-3.49,-3.58,0.16,0.12,0.11
118.73,4.29,4.23,4.30,4.22,-4.22,-3.55,-3.61,0.07,0.08,0.07
119.92,4.21,4.18,4.20,4.16,-4.16,-3.61,-3.63,0.06,0.04,0.04
121.12,4.10,4.11,4.08,4.08,-4.08,-3.66,-3.65,0.03,0.00,-0.00
122.33,3.97,4.01,3.93,3.97,-3.97,-3.71,-3.66,0.01,-0.03,-0.03
123.55,3.84,3.91,3.78,3.84,-3.84,-3.75,-3.67,0.00,-0.07,-0.06
124.79,3.71,3.80,3.63,3.73,-3.73,-3.78,-3.67,-0.03,-0.10,-0.09
126.03,3.59,3.72,3.49,3.62,-3.62,-3.81,-3.66,-0.02,-0.13,-0.12
127.29,3.40,3.55,3.35,3.50,-3.50,-3.83,-3.65,-0.10,-0.16,-0.14
128.57,3.18,3.36,3.21,3.40,-3.40,-3.84,-3.63,-0.23,-0.19,-0.18
129.85,2.93,3.15,3.09,3.30,-3.30,-3.84,-3.61,-0.37,-0.22,-0.21
131.15,2.81,3.06,2.98,3.22,-3.22,-3.84,-3.58,-0.41,-0.24,-0.24
132.46,2.77,3.05,2.89,3.16,-3.16,-3.83,-3.54,-0.38,-0.27,-0.27
133.79,2.61,2.92,2.82,3.13,-3.13,-3.81,-3.50,-0.51,-0.30,-0.30
135.12,2.63,2.96,2.79,3.12,-3.12,-3.78,-3.46,-0.49,-0.33,-0.33
136.48,2.83,3.19,2.78,3.13,-3.13,-3.75,-3.41,-0.30,-0.36,-0.35
137.84,2.90,3.30,2.79,3.17,-3.17,-3.71,-3.35,-0.26,-0.38,-0.39
139.22,2.74,3.17,2.80,3.22,-3.22,-3.66,-3.29,-0.47,-0.41,-0.42
140.61,2.73,3.19,2.84,3.28,-3.28,-3.61,-3.23,-0.55,-0.44,-0.45
142.02,2.80,3.28,2.88,3.35,-3.35,-3.55,-3.17,-0.55,-0.47,-0.47
143.44,2.77,3.28,2.91,3.42,-3.42,-3.49,-3.10,-0.65,-0.51,-0.50
144.87,2.89,3.44,2.93,3.48,-3.48,-3.42,-3.03,-0.59,-0.55,-0.54
146.32,3.02,3.61,2.89,3.48,-3.48,-3.35,-2.96,-0.46,-0.59,-0.58
147.78,3.03,3.65,2.76,3.40,-3.40,-3.27,-2.89,-0.37,-0.64,-0.61
149.26,2.86,3.53,2.60,3.30,-3.30,-3.20,-2.81,-0.43,-0.69,-0.66
150.75,2.73,3.46,2.40,3.16,-3.16,-3.12,-2.74,-0.42,-0.75,-0.72
152.26,2.47,3.27,2.18,2.99,-2.99,-3.04,-2.66,-0.52,-0.81,-0.79
153.78,2.23,3.10,1.92,2.80,-2.80,-2.96,-2.58,-0.57,-0.88,-0.86
155.32,2.00,2.94,1.68,2.63,-2.63,-2.87,-2.51,-0.62,-0.95,-0.93
156.88,1.58,2.59,1.44,2.46,-2.46,-2.79,-2.43,-0.89,-1.02,-1.01
158.44,1.17,2.27,1.25,2.34,-2.34,-2.71,-2.36,-1.17,-1.09,-1.09
160.03,0.66,1.83,1.09,2.25,-2.25,-2.62,-2.28,-1.59,-1.16,-1.17
161.63,0.02,1.26,0.95,2.17,-2.17,-2.54,-2.21,-2.16,-1.22,-1.24
163.24,0.01,1.31,0.84,2.12,-2.12,-2.46,-2.13,-2.11,-1.28,-1.30
164.88,0.55,1.91,0.75,2.09,-2.09,-2.37,-2.06,-1.54,-1.34,-1.35
166.53,0.51,1.92,0.71,2.10,-2.10,-2.29,-1.99,-1.58,-1.39,-1.40
168.19,0.56,2.01,0.71,2.14,-2.14,-2.21,-1.92,-1.58,-1.43,-1.44
169.87,0.72,2.20,0.73,2.20,-2.20,-2.14,-1.85,-1.48,-1.46,-1.48
171.57,1.26,2.77,0.75,2.24,-2.24,-2.06,-1.78,-0.97,-1.49,-1.50
173.29,1.42,2.94,0.77,2.28,-2.28,-1.98,-1.71,-0.85,-1.51,-1.51
175.02,1.43,2.96,0.80,2.32,-2.32,-1.91,-1.65,-0.88,-1.52,-1.52
176.77,1.03,2.57,0.82,2.35,-2.35,-1.84,-1.58,-1.32,-1.53,-1.53
178.54,0.76,2.31,0.81,2.35,-2.35,-1.76,-1.52,-1.58,-1.54,-1.54
180.32,0.60,2.14,0.74,2.28,-2.28,-1.69,-1.46,-1.68,-1.54,-1.53
182.13,0.51,2.04,0.60,2.15,-2.15,-1.63,-1.40,-1.63,-1.55,-1.52
183.95,0.61,2.15,0.44,1.99,-1.99,-1.56,-1.34,-1.38,-1.55,-1.53
185.79,0.30,1.84,0.29,1.85,-1.85,-1.49,-1.28,-1.54,-1.56,-1.53
187.65,-0.19,1.36,0.12,1.68,-1.68,-1.43,-1.22,-1.88,-1.57,-1.55
189.52,-0.33,1.24,-0.09,1.49,-1.49,-1.37,-1.16,-1.81,-1.58,-1.56
191.42,-0.33,1.26,-0.28,1.31,-1.31,-1.31,-1.11,-1.63,-1.59,-1.58
193.33,-0.32,1.29,-0.42,1.18,-1.18,-1.25,-1.06,-1.50,-1.61,-1.60
195.27,-0.52,1.10,-0.57,1.05,-1.05,-1.19,-1.00,-1.57,-1.62,-1.62
197.22,-0.88,0.77,-0.69,0.95,-0.95,-1.14,-0.95,-1.82,-1.64,-1.64
199.19,-0.94,0.73,-0.81,0.85,-0.85,-1.08,-0.90,-1.79,-1.66,-1.66
201.18,-0.72,0.97,-0.91,0.77,-0.77,-1.03,-0.85,-1.49,-1.68,-1.68
203.19,-0.83,0.88,-0.99,0.71,-0.71,-0.97,-0.80,-1.54,-1.70,-1.70
205.23,-1.00,0.73,-1.05,0.67,-0.67,-0.92,-0.76,-1.67,-1.72,-1.72
207.28,-1.23,0.51,-1.08,0.66,-0.66,-0.87,-0.71,-1.89,-1.74,-1.73
209.35,-1.30,0.46,-1.12,0.64,-0.64,-0.82,-0.67,-1.93,-1.76,-1.75
211.44,-1.02,0.77,-1.20,0.58,-0.58,-0.77,-0.62,-1.59,-1.78,-1.78
213.56,-1.33,0.47,-1.25,0.54,-0.54,-0.73,-0.58,-1.87,-1.79,-1.79
215.69,-1.58,0.22,-1.26,0.55,-0.55,-0.68,-0.54,-2.13,-1.81,-1.80
217.85,-1.09,0.73,-1.22,0.59,-0.59,-0.63,-0.49,-1.68,-1.82,-1.81
220.03,-1.05,0.78,-1.19,0.64,-0.64,-0.59,-0.45,-1.69,-1.83,-1.82
222.23,-1.09,0.77,-1.19,0.64,-0.64,-0.54,-0.41,-1.73,-1.83,-1.85
224.45,-1.16,0.69,-1.17,0.67,-0.67,-0.50,-0.38,-1.82,-1.84,-1.84
226.70,-1.27,0.58,-1.14,0.70,-0.70,-0.46,-0.34,-1.97,-1.84,-1.84
228.96,-1.37,0.47,-1.12,0.71,-0.71,-0.41,-0.30,-2.07,-1.83,-1.83
231.25,-1.43,0.39,-1.09,0.73,-0.73,-0.37,-0.27,-2.17,-1.82,-1.82
233.57,-1.08,0.74,-1.07,0.75,-0.75,-0.33,-0.23,-1.82,-1.81,-1.81
235.90,-0.56,1.25,-1.10,0.70,-0.70,-0.29,-0.20,-1.25,-1.80,-1.80
238.26,-0.68,1.12,-1.13,0.65,-0.65,-0.25,-0.16,-1.33,-1.78,-1.79
240.64,-0.91,0.86,-1.13,0.63,-0.63,-0.21,-0.13,-1.54,-1.76,-1.76
243.05,-1.37,0.37,-1.16,0.58,-0.58,-0.16,-0.10,-1.94,-1.74,-1.73
245.48,-1.47,0.25,-1.20,0.52,-0.52,-0.12,-0.07,-1.99,-1.72,-1.71
247.93,-1.03,0.66,-1.25,0.45,-0.45,-0.08,-0.04,-1.47,-1.69,-1.68
250.41,-1.54,0.13,-1.30,0.38,-0.38,-0.04,-0.01,-1.91,-1.67,-1.66
252.92,-1.47,0.17,-1.34,0.31,-0.31,-0.00,0.02,-1.77,-1.65,-1.63
255.45,-1.20,0.42,-1.40,0.22,-0.22,0.04,0.04,-1.42,-1.62,-1.61
258.00,-1.63,-0.03,-1.48,0.12,-0.12,0.08,0.07,-1.75,-1.60,-1.59
260.58,-1.95,-0.37,-1.57,0.01,-0.01,0.12,0.10,-1.95,-1.57,-1.57
263.19,-1.36,0.19,-1.61,-0.06,0.06,0.16,0.12,-1.29,-1.55,-1.54
265.82,-1.09,0.44,-1.63,-0.10,0.10,0.20,0.15,-0.98,-1.52,-1.52
268.48,-1.84,-0.34,-1.63,-0.13,0.13,0.24,0.17,-1.71,-1.50,-1.50
271.16,-2.02,-0.54,-1.63,-0.16,0.16,0.28,0.19,-1.86,-1.47,-1.47
273.87,-1.80,-0.34,-1.66,-0.21,0.21,0.32,0.22,-1.59,-1.45,-1.45
276.61,-1.57,-0.14,-1.70,-0.28,0.28,0.36,0.24,-1.29,-1.42,-1.42
279.38,-1.60,-0.20,-1.70,-0.30,0.30,0.40,0.26,-1.30,-1.40,-1.39
282.17,-1.76,-0.38,-1.73,-0.36,0.36,0.44,0.28,-1.40,-1.37,-1.37
284.99,-1.74,-0.40,-1.76,-0.42,0.42,0.48,0.31,-1.32,-1.34,-1.33
287.84,-1.62,-0.30,-1.76,-0.45,0.45,0.52,0.33,-1.16,-1.31,-1.31
290.72,-1.64,-0.35,-1.79,-0.50,0.50,0.56,0.35,-1.13,-1.28,-1.28
293.63,-2.01,-0.75,-1.84,-0.58,0.58,0.61,0.37,-1.42,-1.25,-1.25
296.57,-1.84,-0.61,-1.86,-0.63,0.63,0.65,0.39,-1.20,-1.22,-1.22
299.53,-1.84,-0.64,-1.85,-0.66,0.66,0.69,0.42,-1.18,-1.19,-1.19
302.53,-2.07,-0.89,-1.90,-0.73,0.73,0.74,0.44,-1.34,-1.17,-1.17
305.55,-1.97,-0.83,-1.96,-0.82,0.82,0.78,0.46,-1.14,-1.14,-1.13
308.61,-1.93,-0.81,-2.02,-0.91,0.91,0.82,0.48,-1.02,-1.12,-1.11
311.69,-2.14,-1.05,-2.07,-0.98,0.98,0.87,0.51,-1.16,-1.09,-1.08
314.81,-2.09,-1.02,-2.12,-1.05,1.05,0.91,0.53,-1.03,-1.07,-1.06
317.96,-2.07,-1.02,-2.18,-1.13,1.13,0.95,0.56,-0.93,-1.05,-1.04
321.14,-2.15,-1.11,-2.24,-1.21,1.21,1.00,0.58,-0.93,-1.03,-1.03
324.35,-2.31,-1.29,-2.29,-1.28,1.28,1.04,0.61,-1.03,-1.01,-1.01
327.59,-2.43,-1.42,-2.33,-1.33,1.33,1.09,0.63,-1.09,-1.00,-1.00
330.87,-2.45,-1.45,-2.40,-1.42,1.42,1.13,0.66,-1.03,-0.99,-0.99
334.18,-2.49,-1.51,-2.45,-1.48,1.48,1.17,0.69,-1.01,-0.98,-0.97
337.52,-2.50,-1.53,-2.49,-1.53,1.53,1.22,0.71,-0.97,-0.96,-0.96
340.90,-2.54,-1.58,-2.55,-1.59,1.59,1.26,0.74,-0.95,-0.96,-0.95
344.30,-2.63,-1.68,-2.59,-1.64,1.64,1.30,0.77,-0.99,-0.95,-0.94
347.75,-2.64,-1.69,-2.63,-1.68,1.68,1.34,0.80,-0.95,-0.95,-0.94
351.23,-2.66,-1.72,-2.67,-1.73,1.73,1.38,0.83,-0.92,-0.94,-0.93
354.74,-2.70,-1.75,-2.70,-1.77,1.77,1.42,0.86,-0.93,-0.94,-0.94
358.28,-2.69,-1.75,-2.71,-1.77,1.77,1.46,0.89,-0.91,-0.93,-0.93
361.87,-2.75,-1.81,-2.71,-1.77,1.77,1.50,0.93,-0.97,-0.93,-0.93
365.49,-2.76,-1.83,-2.71,-1.78,1.78,1.53,0.96,-0.97,-0.93,-0.92
369.14,-2.65,-1.71,-2.72,-1.79,1.79,1.57,0.99,-0.85,-0.93,-0.93
372.83,-2.72,-1.78,-2.73,-1.80,1.80,1.60,1.03,-0.92,-0.93,-0.93
376.56,-2.83,-1.88,-2.73,-1.79,1.79,1.63,1.06,-1.03,-0.94,-0.94
380.33,-2.79,-1.85,-2.73,-1.79,1.79,1.65,1.10,-0.99,-0.94,-0.93
384.13,-2.76,-1.82,-2.74,-1.80,1.80,1.68,1.14,-0.95,-0.94,-0.93
387.97,-2.71,-1.76,-2.76,-1.81,1.81,1.70,1.17,-0.90,-0.95,-0.94
391.85,-2.58,-1.62,-2.76,-1.81,1.81,1.72,1.21,-0.77,-0.95,-0.95
395.77,-2.62,-1.67,-2.75,-1.80,1.80,1.74,1.25,-0.82,-0.96,-0.94
399.73,-2.79,-1.83,-2.75,-1.78,1.78,1.75,1.29,-1.00,-0.96,-0.95
403.72,-2.81,-1.85,-2.74,-1.77,1.77,1.76,1.32,-1.04,-0.97,-0.95
407.76,-2.76,-1.78,-2.72,-1.75,1.75,1.77,1.36,-1.00,-0.97,-0.97
411.84,-2.75,-1.77,-2.71,-1.74,1.74,1.78,1.40,-1.01,-0.97,-0.97
415.96,-2.75,-1.77,-2.68,-1.71,1.71,1.78,1.44,-1.04,-0.98,-0.97
420.12,-2.83,-1.85,-2.66,-1.68,1.68,1.78,1.48,-1.14,-0.97,-0.97
424.32,-2.73,-1.75,-2.63,-1.66,1.66,1.78,1.51,-1.06,-0.97,-0.97
428.56,-2.50,-1.53,-2.60,-1.64,1.64,1.77,1.55,-0.85,-0.96,-0.96
432.85,-2.43,-1.47,-2.56,-1.62,1.62,1.76,1.58,-0.81,-0.94,-0.95
437.18,-2.47,-1.52,-2.51,-1.59,1.59,1.75,1.62,-0.87,-0.92,-0.94
441.55,-2.45,-1.54,-2.45,-1.56,1.56,1.74,1.65,-0.89,-0.90,-0.90
445.96,-2.41,-1.53,-2.39,-1.53,1.53,1.72,1.68,-0.88,-0.86,-0.87
450.42,-2.36,-1.51,-2.34,-1.51,1.51,1.70,1.71,-0.84,-0.83,-0.84
454.93,-2.30,-1.50,-2.29,-1.50,1.50,1.68,1.74,-0.80,-0.79,-0.79
459.48,-2.24,-1.48,-2.23,-1.48,1.48,1.66,1.76,-0.75,-0.74,-0.75
464.07,-2.17,-1.46,-2.17,-1.47,1.47,1.64,1.79,-0.70,-0.70,-0.70
468.71,-2.12,-1.47,-2.11,-1.46,1.46,1.61,1.81,-0.66,-0.65,-0.64
473.40,-2.06,-1.45,-2.06,-1.46,1.46,1.58,1.83,-0.60,-0.60,-0.60
478.13,-2.00,-1.45,-2.01,-1.46,1.46,1.56,1.84,-0.54,-0.55,-0.54
482.91,-1.97,-1.46,-1.96,-1.45,1.45,1.53,1.85,-0.51,-0.51,-0.50
487.74,-2.01,-1.54,-1.91,-1.44,1.44,1.50,1.86,-0.56,-0.47,-0.46
492.62,-1.91,-1.49,-1.86,-1.43,1.43,1.47,1.87,-0.47,-0.43,-0.41
497.55,-1.77,-1.37,-1.82,-1.42,1.42,1.43,1.87,-0.35,-0.40,-0.39
502.52,-1.73,-1.36,-1.78,-1.40,1.40,1.40,1.87,-0.32,-0.38,-0.36
507.55,-1.71,-1.35,-1.75,-1.39,1.39,1.37,1.86,-0.32,-0.36,-0.35
