frequency,raw,error,smoothed,error_smoothed,equalization,parametric_eq,fixed_band_eq,equalized_raw,equalized_smoothed,target
20.00,3.95,-4.31,3.95,-4.31,4.32,3.84,1.22,8.27,8.27,8.26
20.20,4.01,-4.24,4.01,-4.24,4.24,3.81,1.25,8.25,8.25,8.25
20.40,4.07,-4.17,4.07,-4.17,4.17,3.79,1.29,8.24,8.23,8.24
20.61,4.13,-4.11,4.13,-4.10,4.09,3.76,1.33,8.22,8.22,8.24
20.81,4.19,-4.03,4.19,-4.03,4.02,3.73,1.37,8.21,8.21,8.22
21.02,4.25,-3.97,4.25,-3.97,3.96,3.70,1.41,8.20,8.20,8.22
21.23,4.31,-3.90,4.31,-3.90,3.89,3.66,1.45,8.20,8.20,8.21
21.44,4.38,-3.84,4.38,-3.83,3.83,3.63,1.50,8.20,8.20,8.21
21.66,4.45,-3.76,4.45,-3.76,3.76,3.60,1.54,8.21,8.21,8.21
21.87,4.51,-3.69,4.51,-3.69,3.70,3.56,1.59,8.21,8.21,8.19
22.09,4.57,-3.62,4.56,-3.63,3.64,3.52,1.64,8.21,8.20,8.19
22.31,4.60,-3.59,4.60,-3.58,3.58,3.49,1.68,8.18,8.18,8.18
22.54,4.64,-3.54,4.64,-3.53,3.53,3.45,1.73,8.17,8.17,8.18
22.76,4.68,-3.49,4.68,-3.49,3.48,3.41,1.79,8.16,8.16,8.17
22.99,4.72,-3.44,4.71,-3.44,3.44,3.37,1.84,8.16,8.16,8.16
23.22,4.75,-3.40,4.75,-3.40,3.41,3.33,1.89,8.16,8.16,8.15
23.45,4.78,-3.38,4.78,-3.37,3.38,3.29,1.95,8.15,8.15,8.16
23.69,4.81,-3.34,4.81,-3.34,3.34,3.25,2.00,8.15,8.15,8.15
23.92,4.84,-3.31,4.84,-3.31,3.31,3.20,2.06,8.15,8.15,8.15
24.16,4.87,-3.29,4.87,-3.28,3.28,3.16,2.12,8.15,8.15,8.16
24.40,4.91,-3.26,4.91,-3.26,3.25,3.12,2.17,8.16,8.15,8.17
24.65,4.95,-3.22,4.94,-3.22,3.22,3.07,2.23,8.16,8.16,8.17
24.89,4.98,-3.19,4.98,-3.18,3.18,3.03,2.29,8.16,8.17,8.16
25.14,5.03,-3.13,5.03,-3.13,3.14,2.98,2.35,8.17,8.17,8.16
25.39,5.07,-3.09,5.07,-3.09,3.09,2.94,2.41,8.16,8.16,8.16
25.65,5.12,-3.04,5.11,-3.05,3.03,2.89,2.47,8.15,8.14,8.16
25.91,5.16,-3.01,5.17,-3.00,2.97,2.85,2.53,8.12,8.13,8.16
26.16,5.24,-2.94,5.24,-2.93,2.90,2.80,2.58,8.14,8.14,8.18
26.43,5.33,-2.85,5.33,-2.84,2.84,2.76,2.64,8.16,8.17,8.18
26.69,5.42,-2.76,5.42,-2.75,2.78,2.71,2.70,8.19,8.20,8.18
26.96,5.52,-2.65,5.49,-2.67,2.72,2.66,2.75,8.24,8.22,8.17
27.23,5.54,-2.63,5.54,-2.63,2.67,2.61,2.80,8.21,8.21,8.17
27.50,5.55,-2.62,5.55,-2.62,2.63,2.57,2.85,8.18,8.18,8.17
27.77,5.55,-2.63,5.55,-2.62,2.59,2.52,2.90,8.14,8.14,8.18
28.05,5.57,-2.61,5.57,-2.60,2.56,2.47,2.95,8.13,8.13,8.17
28.33,5.60,-2.56,5.60,-2.56,2.55,2.43,2.99,8.15,8.15,8.16
28.62,5.64,-2.52,5.64,-2.52,2.53,2.38,3.02,8.17,8.17,8.16
28.90,5.68,-2.49,5.67,-2.49,2.52,2.33,3.06,8.19,8.19,8.17
29.19,5.70,-2.47,5.69,-2.47,2.49,2.28,3.09,8.18,8.18,8.17
29.48,5.70,-2.46,5.70,-2.46,2.45,2.24,3.11,8.15,8.15,8.16
29.78,5.71,-2.45,5.71,-2.45,2.41,2.19,3.13,8.11,8.12,8.16
30.08,5.74,-2.43,5.75,-2.41,2.37,2.14,3.14,8.11,8.12,8.16
30.38,5.81,-2.35,5.81,-2.34,2.34,2.10,3.15,8.14,8.15,8.16
30.68,5.88,-2.26,5.88,-2.26,2.31,2.05,3.15,8.18,8.19,8.14
30.99,5.96,-2.18,5.93,-2.20,2.27,2.00,3.15,8.22,8.20,8.14
31.30,5.94,-2.19,5.93,-2.19,2.22,1.95,3.14,8.16,8.15,8.13
31.61,5.92,-2.20,5.92,-2.20,2.17,1.91,3.12,8.09,8.09,8.12
31.93,5.90,-2.21,5.92,-2.18,2.12,1.86,3.10,8.01,8.04,8.11
32.24,5.97,-2.14,5.98,-2.12,2.06,1.82,3.08,8.03,8.04,8.10
32.57,6.07,-2.02,6.06,-2.03,2.02,1.77,3.04,8.08,8.08,8.09
32.89,6.17,-1.92,6.15,-1.94,1.97,1.72,3.01,8.14,8.12,8.09
33.22,6.21,-1.88,6.21,-1.88,1.93,1.68,2.96,8.14,8.13,8.09
33.55,6.23,-1.85,6.24,-1.84,1.88,1.63,2.92,8.11,8.12,8.08
33.89,6.25,-1.84,6.25,-1.83,1.85,1.59,2.86,8.09,8.09,8.09
34.23,6.26,-1.81,6.25,-1.82,1.81,1.54,2.81,8.07,8.07,8.07
34.57,6.26,-1.81,6.26,-1.81,1.79,1.50,2.75,8.05,8.05,8.07
34.92,6.26,-1.80,6.27,-1.79,1.77,1.45,2.68,8.02,8.03,8.06
35.27,6.29,-1.78,6.29,-1.77,1.74,1.41,2.62,8.03,8.03,8.06
35.62,6.33,-1.72,6.32,-1.73,1.71,1.36,2.55,8.04,8.04,8.05
35.97,6.37,-1.68,6.36,-1.68,1.68,1.32,2.47,8.05,8.04,8.04
36.33,6.40,-1.63,6.40,-1.63,1.65,1.27,2.40,8.05,8.05,8.02
36.70,6.43,-1.59,6.43,-1.58,1.61,1.23,2.32,8.04,8.04,8.02
37.06,6.46,-1.54,6.44,-1.55,1.57,1.19,2.24,8.03,8.02,7.99
37.43,6.45,-1.53,6.44,-1.53,1.53,1.14,2.17,7.98,7.97,7.97
37.81,6.44,-1.52,6.45,-1.51,1.48,1.10,2.09,7.92,7.93,7.96
38.19,6.45,-1.48,6.46,-1.47,1.43,1.05,2.00,7.88,7.89,7.93
38.57,6.50,-1.41,6.49,-1.41,1.38,1.01,1.92,7.88,7.87,7.91
38.95,6.55,-1.33,6.54,-1.33,1.32,0.97,1.84,7.87,7.87,7.87
39.34,6.59,-1.25,6.59,-1.25,1.27,0.93,1.76,7.86,7.86,7.83
39.74,6.63,-1.19,6.62,-1.19,1.22,0.88,1.68,7.85,7.85,7.82
40.14,6.65,-1.14,6.65,-1.14,1.17,0.84,1.60,7.82,7.82,7.79
40.54,6.66,-1.11,6.66,-1.11,1.13,0.80,1.52,7.78,7.78,7.77
40.94,6.66,-1.08,6.65,-1.08,1.08,0.76,1.44,7.74,7.74,7.73
41.35,6.65,-1.07,6.64,-1.07,1.04,0.71,1.36,7.69,7.68,7.71
41.76,6.63,-1.05,6.64,-1.04,1.00,0.67,1.28,7.63,7.64,7.67
42.18,6.65,-1.01,6.66,-0.99,0.97,0.63,1.20,7.61,7.63,7.65
42.60,6.71,-0.93,6.70,-0.93,0.93,0.59,1.12,7.64,7.63,7.63
43.03,6.76,-0.85,6.74,-0.87,0.89,0.55,1.04,7.65,7.63,7.61
43.46,6.76,-0.82,6.76,-0.82,0.85,0.51,0.96,7.60,7.61,7.58
43.90,6.76,-0.80,6.76,-0.78,0.81,0.47,0.89,7.56,7.57,7.56
44.33,6.76,-0.76,6.76,-0.76,0.77,0.42,0.81,7.52,7.52,7.51
44.78,6.76,-0.73,6.76,-0.74,0.73,0.38,0.74,7.49,7.49,7.49
45.23,6.76,-0.72,6.76,-0.70,0.70,0.34,0.66,7.45,7.45,7.48
45.68,6.76,-0.67,6.76,-0.67,0.66,0.30,0.59,7.42,7.42,7.43
46.13,6.77,-0.62,6.77,-0.62,0.61,0.26,0.52,7.38,7.38,7.38
46.60,6.79,-0.57,6.79,-0.57,0.56,0.22,0.45,7.35,7.35,7.36
47.06,6.81,-0.51,6.81,-0.51,0.49,0.18,0.38,7.30,7.30,7.31
47.53,6.84,-0.45,6.83,-0.44,0.42,0.14,0.31,7.26,7.25,7.28
48.01,6.86,-0.37,6.87,-0.35,0.35,0.10,0.24,7.20,7.22,7.23
48.49,6.92,-0.26,6.92,-0.26,0.27,0.06,0.17,7.19,7.19,7.18
48.97,6.98,-0.16,6.96,-0.18,0.20,0.02,0.10,7.18,7.16,7.13
49.46,6.98,-0.12,6.98,-0.11,0.14,-0.02,0.03,7.11,7.11,7.09
49.96,6.97,-0.06,6.98,-0.06,0.07,-0.06,-0.04,7.04,7.05,7.03
50.46,6.97,-0.02,6.96,-0.02,0.02,-0.10,-0.10,6.99,6.99,6.99
50.96,6.96,0.01,6.96,0.02,-0.02,-0.14,-0.17,6.94,6.94,6.94
51.47,6.96,0.05,6.96,0.06,-0.06,-0.19,-0.23,6.90,6.90,6.91
51.99,6.96,0.10,6.96,0.10,-0.10,-0.23,-0.30,6.86,6.86,6.86
52.51,6.96,0.14,6.96,0.14,-0.14,-0.27,-0.36,6.82,6.81,6.82
53.03,6.96,0.17,6.95,0.17,-0.19,-0.31,-0.42,6.76,6.75,6.79
53.56,6.95,0.22,6.95,0.22,-0.25,-0.35,-0.48,6.70,6.70,6.73
54.10,6.95,0.27,6.97,0.29,-0.31,-0.39,-0.54,6.63,6.66,6.68
54.64,7.02,0.38,7.01,0.38,-0.38,-0.43,-0.60,6.64,6.63,6.64
55.18,7.06,0.48,7.04,0.46,-0.44,-0.47,-0.66,6.62,6.60,6.57
55.74,7.06,0.53,7.06,0.53,-0.50,-0.51,-0.72,6.56,6.56,6.53
56.29,7.06,0.56,7.06,0.57,-0.56,-0.55,-0.77,6.50,6.51,6.49
56.86,7.06,0.60,7.06,0.61,-0.61,-0.59,-0.83,6.45,6.45,6.46
57.42,7.06,0.66,7.06,0.65,-0.65,-0.63,-0.88,6.41,6.41,6.39
58.00,7.06,0.69,7.06,0.69,-0.70,-0.68,-0.93,6.36,6.36,6.37
58.58,7.06,0.72,7.06,0.73,-0.74,-0.72,-0.98,6.32,6.32,6.34
59.16,7.06,0.76,7.06,0.76,-0.78,-0.76,-1.03,6.28,6.28,6.29
59.76,7.06,0.80,7.06,0.81,-0.83,-0.80,-1.08,6.23,6.23,6.26
60.35,7.06,0.87,7.06,0.87,-0.87,-0.84,-1.13,6.19,6.19,6.18
60.96,7.06,0.92,7.06,0.93,-0.92,-0.89,-1.17,6.14,6.15,6.14
61.57,7.06,0.99,7.05,0.99,-0.96,-0.93,-1.21,6.10,6.09,6.07
62.18,7.04,1.04,7.02,1.02,-1.01,-0.97,-1.26,6.03,6.01,5.99
62.80,6.98,1.04,6.99,1.06,-1.06,-1.01,-1.30,5.92,5.94,5.93
63.43,6.96,1.08,6.97,1.09,-1.10,-1.06,-1.33,5.85,5.86,5.87
64.07,6.96,1.13,6.95,1.13,-1.15,-1.10,-1.37,5.81,5.80,5.83
64.71,6.96,1.19,6.96,1.19,-1.20,-1.14,-1.41,5.76,5.76,5.77
65.35,6.96,1.25,6.96,1.25,-1.25,-1.19,-1.44,5.71,5.71,5.70
66.01,6.96,1.31,6.96,1.31,-1.30,-1.23,-1.47,5.65,5.65,5.65
66.67,6.96,1.35,6.96,1.36,-1.36,-1.27,-1.50,5.60,5.60,5.61
67.33,6.96,1.43,6.96,1.42,-1.42,-1.32,-1.53,5.54,5.54,5.52
68.01,6.96,1.48,6.96,1.48,-1.48,-1.36,-1.56,5.47,5.47,5.48
68.69,6.96,1.55,6.96,1.55,-1.55,-1.41,-1.59,5.41,5.41,5.41
69.37,6.96,1.60,6.96,1.61,-1.61,-1.45,-1.62,5.35,5.35,5.35
70.07,6.96,1.67,6.96,1.67,-1.67,-1.49,-1.65,5.28,5.28,5.29
70.77,6.96,1.73,6.96,1.73,-1.74,-1.54,-1.68,5.22,5.22,5.23
71.48,6.96,1.80,6.96,1.80,-1.81,-1.59,-1.71,5.15,5.15,5.16
72.19,6.96,1.87,6.96,1.87,-1.88,-1.63,-1.74,5.08,5.08,5.08
72.91,6.96,1.93,6.96,1.94,-1.94,-1.68,-1.76,5.02,5.02,5.02
73.64,6.96,2.00,6.96,2.01,-1.99,-1.72,-1.79,4.96,4.97,4.95
74.38,6.96,2.06,6.96,2.06,-2.04,-1.77,-1.82,4.92,4.92,4.90
75.12,6.95,2.12,6.94,2.11,-2.08,-1.82,-1.85,4.87,4.87,4.82
75.87,6.92,2.13,6.91,2.13,-2.11,-1.86,-1.88,4.81,4.80,4.78
76.63,6.86,2.14,6.86,2.14,-2.14,-1.91,-1.91,4.72,4.72,4.71
77.40,6.80,2.13,6.80,2.14,-2.16,-1.96,-1.95,4.63,4.64,4.67
78.17,6.76,2.15,6.77,2.16,-2.19,-2.01,-1.98,4.57,4.58,4.60
78.95,6.76,2.19,6.75,2.20,-2.22,-2.05,-2.01,4.54,4.53,4.56
79.74,6.76,2.25,6.75,2.25,-2.26,-2.10,-2.05,4.50,4.49,4.50
80.54,6.76,2.31,6.76,2.31,-2.31,-2.15,-2.09,4.45,4.45,4.44
81.35,6.76,2.36,6.76,2.36,-2.36,-2.20,-2.13,4.40,4.40,4.40
82.16,6.76,2.41,6.76,2.42,-2.41,-2.25,-2.17,4.35,4.35,4.35
82.98,6.76,2.47,6.76,2.48,-2.46,-2.30,-2.21,4.30,4.30,4.28
83.81,6.76,2.53,6.76,2.53,-2.51,-2.35,-2.26,4.25,4.25,4.22
84.65,6.75,2.58,6.73,2.57,-2.56,-2.40,-2.30,4.19,4.17,4.17
85.50,6.70,2.60,6.70,2.60,-2.61,-2.45,-2.35,4.09,4.10,4.10
86.35,6.66,2.62,6.67,2.63,-2.66,-2.50,-2.40,4.00,4.02,4.03
87.22,6.66,2.67,6.65,2.67,-2.70,-2.55,-2.45,3.95,3.95,3.99
88.09,6.66,2.74,6.66,2.74,-2.75,-2.60,-2.50,3.91,3.90,3.92
88.97,6.66,2.79,6.67,2.81,-2.80,-2.65,-2.56,3.86,3.87,3.87
89.86,6.67,2.88,6.66,2.87,-2.84,-2.70,-2.62,3.83,3.82,3.79
90.76,6.65,2.92,6.64,2.91,-2.88,-2.75,-2.68,3.77,3.76,3.73
91.66,6.59,2.93,6.60,2.95,-2.92,-2.80,-2.74,3.66,3.68,3.65
92.58,6.57,2.97,6.56,2.96,-2.97,-2.85,-2.80,3.60,3.59,3.60
93.51,6.52,2.99,6.52,2.99,-3.01,-2.91,-2.87,3.50,3.50,3.53
94.44,6.48,3.02,6.49,3.03,-3.06,-2.96,-2.93,3.41,3.42,3.45
95.39,6.47,3.09,6.47,3.09,-3.12,-3.01,-3.00,3.35,3.35,3.38
96.34,6.46,3.16,6.46,3.16,-3.18,-3.06,-3.07,3.28,3.28,3.30
97.30,6.46,3.24,6.45,3.24,-3.25,-3.11,-3.14,3.21,3.21,3.21
98.28,6.45,3.32,6.44,3.32,-3.31,-3.17,-3.22,3.13,3.13,3.13
99.26,6.43,3.39,6.44,3.40,-3.37,-3.22,-3.29,3.06,3.06,3.04
100.25,6.42,3.46,6.42,3.46,-3.42,-3.27,-3.37,3.00,3.00,2.95
101.25,6.40,3.51,6.39,3.51,-3.47,-3.32,-3.44,2.93,2.92,2.88
102.27,6.34,3.54,6.32,3.52,-3.51,-3.38,-3.52,2.83,2.81,2.80
103.29,6.23,3.51,6.24,3.52,-3.55,-3.43,-3.60,2.68,2.69,2.72
104.32,6.15,3.50,6.17,3.53,-3.58,-3.48,-3.68,2.57,2.59,2.64
105.37,6.13,3.56,6.12,3.56,-3.60,-3.53,-3.76,2.52,2.52,2.57
106.42,6.11,3.63,6.10,3.63,-3.63,-3.58,-3.83,2.48,2.48,2.48
107.48,6.08,3.69,6.08,3.69,-3.65,-3.64,-3.91,2.43,2.43,2.38
108.56,6.05,3.72,6.03,3.72,-3.67,-3.69,-3.99,2.38,2.36,2.33
109.64,5.97,3.73,5.96,3.73,-3.70,-3.74,-4.06,2.26,2.26,2.23
110.74,5.89,3.73,5.89,3.73,-3.74,-3.79,-4.13,2.15,2.15,2.16
111.85,5.81,3.72,5.82,3.74,-3.78,-3.84,-4.20,2.02,2.04,2.09
112.97,5.79,3.77,5.79,3.77,-3.83,-3.89,-4.27,1.96,1.96,2.02
114.10,5.78,3.83,5.77,3.83,-3.87,-3.94,-4.34,1.91,1.91,1.95
115.24,5.78,3.91,5.78,3.92,-3.91,-3.99,-4.40,1.87,1.88,1.87
116.39,5.78,3.99,5.79,3.99,-3.95,-4.04,-4.46,1.83,1.84,1.79
117.55,5.79,4.06,5.76,4.04,-3.99,-4.09,-4.51,1.80,1.77,1.72
118.73,5.72,4.07,5.71,4.06,-4.03,-4.14,-4.56,1.69,1.69,1.65
119.92,5.63,4.04,5.65,4.07,-4.06,-4.19,-4.60,1.56,1.59,1.59
121.12,5.60,4.06,5.59,4.07,-4.10,-4.24,-4.64,1.50,1.50,1.54
122.33,5.57,4.10,5.56,4.08,-4.13,-4.29,-4.68,1.44,1.43,1.47
123.55,5.53,4.11,5.54,4.13,-4.16,-4.33,-4.71,1.37,1.38,1.42
124.79,5.53,4.17,5.53,4.18,-4.19,-4.38,-4.73,1.34,1.34,1.36
126.03,5.53,4.24,5.53,4.24,-4.23,-4.42,-4.75,1.30,1.31,1.28
127.29,5.54,4.31,5.53,4.30,-4.27,-4.47,-4.76,1.27,1.26,1.22
128.57,5.51,4.34,5.50,4.34,-4.31,-4.51,-4.77,1.20,1.19,1.17
129.85,5.45,4.35,5.45,4.35,-4.35,-4.55,-4.77,1.10,1.10,1.09
131.15,5.39,4.35,5.40,4.37,-4.39,-4.60,-4.77,1.00,1.01,1.04
132.46,5.37,4.39,5.38,4.40,-4.42,-4.64,-4.76,0.95,0.96,0.97
133.79,5.37,4.45,5.36,4.44,-4.44,-4.68,-4.75,0.92,0.92,0.92
135.12,5.36,4.50,5.34,4.48,-4.47,-4.71,-4.73,0.89,0.88,0.85
136.48,5.30,4.48,5.31,4.50,-4.49,-4.75,-4.71,0.81,0.82,0.82
137.84,5.27,4.51,5.26,4.51,-4.51,-4.79,-4.69,0.75,0.75,0.76
139.22,5.22,4.54,5.22,4.53,-4.54,-4.82,-4.67,0.68,0.68,0.68
140.61,5.18,4.54,5.19,4.56,-4.57,-4.86,-4.64,0.61,0.62,0.64
142.02,5.18,4.60,5.15,4.58,-4.59,-4.89,-4.61,0.59,0.56,0.58
143.44,5.11,4.60,5.12,4.60,-4.62,-4.92,-4.58,0.49,0.50,0.51
144.87,5.08,4.62,5.10,4.64,-4.64,-4.95,-4.55,0.44,0.46,0.46
146.32,5.08,4.67,5.07,4.67,-4.66,-4.98,-4.51,0.42,0.41,0.41
147.78,5.06,4.71,5.04,4.69,-4.68,-5.01,-4.48,0.38,0.36,0.34
149.26,5.00,4.70,4.99,4.70,-4.69,-5.03,-4.45,0.31,0.30,0.30
150.75,4.92,4.69,4.94,4.71,-4.70,-5.06,-4.42,0.22,0.24,0.22
152.26,4.89,4.70,4.89,4.71,-4.71,-5.08,-4.38,0.18,0.18,0.19
153.78,4.87,4.74,4.85,4.72,-4.72,-5.10,-4.35,0.14,0.13,0.12
155.32,4.81,4.73,4.80,4.73,-4.74,-5.12,-4.33,0.07,0.06,0.08
156.88,4.74,4.72,4.74,4.73,-4.76,-5.13,-4.30,-0.02,-0.01,0.02
158.44,4.69,4.73,4.70,4.74,-4.77,-5.15,-4.28,-0.09,-0.07,-0.05
160.03,4.68,4.78,4.68,4.79,-4.80,-5.16,-4.25,-0.12,-0.11,-0.10
161.63,4.68,4.84,4.68,4.84,-4.82,-5.18,-4.23,-0.14,-0.14,-0.16
163.24,4.67,4.90,4.64,4.87,-4.84,-5.19,-4.22,-0.17,-0.20,-0.24
164.88,4.59,4.87,4.58,4.87,-4.86,-5.20,-4.20,-0.27,-0.27,-0.28
166.53,4.49,4.84,4.52,4.87,-4.87,-5.20,-4.19,-0.38,-0.35,-0.35
168.19,4.46,4.86,4.47,4.87,-4.88,-5.21,-4.18,-0.43,-0.42,-0.40
169.87,4.45,4.91,4.42,4.89,-4.89,-5.21,-4.18,-0.45,-0.47,-0.47
171.57,4.38,4.91,4.36,4.89,-4.90,-5.21,-4.17,-0.52,-0.54,-0.53
173.29,4.28,4.87,4.30,4.89,-4.90,-5.21,-4.17,-0.62,-0.61,-0.59
175.02,4.23,4.87,4.25,4.90,-4.91,-5.21,-4.18,-0.68,-0.66,-0.64
176.77,4.23,4.92,4.22,4.92,-4.92,-5.20,-4.18,-0.69,-0.69,-0.69
178.54,4.23,4.98,4.18,4.94,-4.92,-5.20,-4.20,-0.70,-0.74,-0.75
180.32,4.12,4.93,4.14,4.94,-4.93,-5.19,-4.21,-0.81,-0.79,-0.82
182.13,4.05,4.90,4.08,4.94,-4.93,-5.18,-4.23,-0.88,-0.85,-0.85
183.95,4.05,4.95,4.03,4.93,-4.94,-5.17,-4.25,-0.89,-0.91,-0.90
185.79,4.00,4.95,3.99,4.94,-4.95,-5.16,-4.27,-0.95,-0.96,-0.95
187.65,3.96,4.95,3.95,4.95,-4.96,-5.14,-4.30,-1.01,-1.01,-0.99
189.52,3.90,4.94,3.92,4.96,-4.98,-5.13,-4.32,-1.08,-1.06,-1.04
191.42,3.90,4.97,3.90,4.98,-4.99,-5.11,-4.36,-1.10,-1.09,-1.07
193.33,3.91,5.03,3.89,5.02,-5.01,-5.09,-4.39,-1.10,-1.12,-1.12
195.27,3.88,5.05,3.87,5.04,-5.03,-5.07,-4.43,-1.15,-1.16,-1.17
197.22,3.84,5.06,3.84,5.06,-5.04,-5.05,-4.47,-1.21,-1.21,-1.22
199.19,3.78,5.03,3.79,5.05,-5.05,-5.02,-4.51,-1.27,-1.26,-1.25
201.18,3.76,5.06,3.76,5.06,-5.06,-5.00,-4.55,-1.30,-1.30,-1.30
203.19,3.73,5.06,3.72,5.06,-5.05,-4.97,-4.60,-1.33,-1.33,-1.33
205.23,3.69,5.06,3.68,5.05,-5.04,-4.94,-4.65,-1.35,-1.36,-1.37
207.28,3.61,5.01,3.61,5.02,-5.02,-4.91,-4.69,-1.42,-1.41,-1.40
209.35,3.55,4.99,3.55,5.00,-5.00,-4.88,-4.74,-1.46,-1.46,-1.44
211.44,3.48,4.97,3.50,4.99,-4.98,-4.85,-4.79,-1.51,-1.48,-1.49
213.56,3.46,4.98,3.44,4.97,-4.97,-4.82,-4.84,-1.51,-1.52,-1.52
215.69,3.42,4.98,3.38,4.94,-4.95,-4.78,-4.89,-1.53,-1.57,-1.56
217.85,3.27,4.86,3.31,4.91,-4.93,-4.75,-4.94,-1.67,-1.62,-1.59
220.03,3.25,4.89,3.26,4.90,-4.92,-4.71,-4.98,-1.67,-1.65,-1.64
222.23,3.24,4.90,3.23,4.90,-4.90,-4.68,-5.03,-1.66,-1.66,-1.66
224.45,3.24,4.93,3.20,4.90,-4.88,-4.64,-5.07,-1.64,-1.67,-1.69
226.70,3.16,4.88,3.15,4.87,-4.85,-4.60,-5.11,-1.69,-1.70,-1.72
228.96,3.05,4.79,3.10,4.84,-4.83,-4.56,-5.14,-1.78,-1.73,-1.74
231.25,3.05,4.80,3.03,4.79,-4.80,-4.52,-5.17,-1.76,-1.77,-1.75
233.57,3.03,4.81,2.98,4.76,-4.78,-4.48,-5.20,-1.75,-1.80,-1.78
235.90,2.89,4.68,2.94,4.74,-4.75,-4.43,-5.22,-1.86,-1.81,-1.79
238.26,2.89,4.70,2.91,4.71,-4.72,-4.39,-5.24,-1.83,-1.81,-1.81
240.64,2.91,4.71,2.87,4.68,-4.68,-4.35,-5.25,-1.78,-1.81,-1.80
243.05,2.87,4.68,2.85,4.67,-4.66,-4.30,-5.25,-1.79,-1.80,-1.81
245.48,2.78,4.61,2.81,4.64,-4.63,-4.26,-5.25,-1.85,-1.82,-1.83
247.93,2.77,4.61,2.77,4.60,-4.61,-4.21,-5.24,-1.84,-1.84,-1.84
250.41,2.75,4.58,2.73,4.57,-4.58,-4.17,-5.22,-1.83,-1.85,-1.83
252.92,2.70,4.53,2.70,4.54,-4.55,-4.12,-5.20,-1.85,-1.85,-1.83
255.45,2.65,4.50,2.66,4.51,-4.52,-4.08,-5.17,-1.87,-1.85,-1.85
258.00,2.63,4.49,2.64,4.50,-4.49,-4.03,-5.14,-1.86,-1.85,-1.86
260.58,2.63,4.50,2.60,4.48,-4.46,-3.99,-5.09,-1.83,-1.86,-1.87
263.19,2.56,4.44,2.54,4.43,-4.43,-3.94,-5.05,-1.87,-1.88,-1.88
265.82,2.45,4.35,2.48,4.38,-4.39,-3.89,-4.99,-1.94,-1.91,-1.90
268.48,2.42,4.32,2.43,4.34,-4.35,-3.84,-4.93,-1.94,-1.93,-1.90
271.16,2.42,4.34,2.39,4.31,-4.31,-3.80,-4.87,-1.90,-1.92,-1.92
273.87,2.35,4.28,2.36,4.29,-4.28,-3.75,-4.80,-1.93,-1.92,-1.93
276.61,2.30,4.25,2.29,4.25,-4.24,-3.70,-4.73,-1.94,-1.95,-1.95
279.38,2.23,4.21,2.22,4.19,-4.21,-3.65,-4.65,-1.98,-1.99,-1.98
282.17,2.15,4.13,2.16,4.15,-4.18,-3.61,-4.57,-2.03,-2.01,-1.98
284.99,2.12,4.10,2.14,4.13,-4.14,-3.56,-4.48,-2.02,-2.00,-1.98
287.84,2.13,4.11,2.12,4.11,-4.10,-3.51,-4.40,-1.97,-1.98,-1.98
290.72,2.14,4.14,2.10,4.09,-4.05,-3.46,-4.31,-1.92,-1.96,-2.00
293.63,2.02,4.01,2.04,4.04,-4.01,-3.42,-4.22,-1.99,-1.97,-1.99
296.57,1.97,3.96,1.97,3.97,-3.97,-3.37,-4.13,-2.00,-2.00,-1.99
299.53,1.89,3.89,1.89,3.89,-3.92,-3.32,-4.04,-2.03,-2.03,-2.00
302.53,1.85,3.84,1.85,3.85,-3.87,-3.28,-3.95,-2.03,-2.02,-1.99
305.55,1.81,3.81,1.82,3.82,-3.82,-3.23,-3.86,-2.02,-2.00,-2.00
308.61,1.81,3.80,1.78,3.78,-3.78,-3.18,-3.77,-1.97,-1.99,-1.99
311.69,1.74,3.75,1.73,3.73,-3.73,-3.14,-3.68,-1.99,-2.00,-2.01
314.81,1.65,3.65,1.67,3.68,-3.69,-3.09,-3.59,-2.04,-2.01,-2.00
317.96,1.61,3.63,1.62,3.64,-3.64,-3.04,-3.50,-2.03,-2.02,-2.02
321.14,1.60,3.61,1.58,3.60,-3.59,-3.00,-3.42,-2.00,-2.02,-2.01
324.35,1.54,3.56,1.54,3.56,-3.54,-2.95,-3.33,-2.00,-2.00,-2.02
327.59,1.48,3.49,1.48,3.50,-3.49,-2.91,-3.25,-2.01,-2.01,-2.01
330.87,1.42,3.44,1.41,3.43,-3.44,-2.86,-3.17,-2.02,-2.03,-2.02
334.18,1.33,3.36,1.34,3.37,-3.38,-2.82,-3.09,-2.05,-2.04,-2.03
337.52,1.28,3.30,1.28,3.31,-3.33,-2.77,-3.01,-2.05,-2.05,-2.02
340.90,1.23,3.26,1.23,3.26,-3.27,-2.73,-2.93,-2.04,-2.04,-2.03
344.30,1.21,3.23,1.20,3.22,-3.22,-2.69,-2.86,-2.01,-2.02,-2.02
347.75,1.15,3.16,1.15,3.18,-3.16,-2.64,-2.79,-2.01,-2.01,-2.01
351.23,1.10,3.13,1.09,3.12,-3.11,-2.60,-2.72,-2.01,-2.02,-2.03
354.74,1.04,3.05,1.03,3.05,-3.06,-2.56,-2.65,-2.02,-2.03,-2.01
358.28,0.96,2.97,0.99,3.00,-3.00,-2.51,-2.58,-2.04,-2.02,-2.01
361.87,0.93,2.94,0.94,2.95,-2.94,-2.47,-2.52,-2.02,-2.00,-2.01
365.49,0.94,2.94,0.88,2.88,-2.88,-2.43,-2.46,-1.95,-2.00,-2.00
369.14,0.81,2.80,0.83,2.83,-2.82,-2.39,-2.40,-2.01,-1.99,-1.99
372.83,0.74,2.72,0.78,2.77,-2.76,-2.35,-2.34,-2.02,-1.98,-1.98
376.56,0.76,2.75,0.71,2.70,-2.71,-2.31,-2.28,-1.95,-2.00,-1.99
380.33,0.67,2.66,0.65,2.64,-2.65,-2.27,-2.23,-1.99,-2.00,-1.99
384.13,0.56,2.54,0.60,2.59,-2.60,-2.23,-2.18,-2.04,-2.00,-1.98
387.97,0.55,2.53,0.55,2.54,-2.55,-2.19,-2.13,-2.01,-2.00,-1.98
391.85,0.55,2.54,0.52,2.51,-2.51,-2.15,-2.08,-1.96,-1.99,-1.99
395.77,0.49,2.49,0.48,2.48,-2.47,-2.11,-2.03,-1.98,-1.99,-2.00
399.73,0.42,2.42,0.43,2.44,-2.43,-2.07,-1.98,-2.02,-2.00,-2.00
403.72,0.37,2.36,0.38,2.38,-2.40,-2.03,-1.94,-2.03,-2.02,-1.99
407.76,0.36,2.37,0.34,2.35,-2.35,-1.99,-1.90,-2.00,-2.02,-2.01
411.84,0.29,2.31,0.31,2.33,-2.31,-1.95,-1.85,-2.02,-2.00,-2.02
415.96,0.26,2.28,0.25,2.28,-2.26,-1.91,-1.81,-2.00,-2.01,-2.02
420.12,0.21,2.24,0.17,2.20,-2.20,-1.88,-1.78,-2.00,-2.03,-2.03
424.32,0.08,2.10,0.13,2.15,-2.15,-1.84,-1.74,-2.07,-2.02,-2.02
428.56,0.07,2.07,0.07,2.08,-2.09,-1.80,-1.70,-2.02,-2.02,-2.00
432.85,0.09,2.07,0.02,2.01,-2.03,-1.77,-1.67,-1.94,-2.01,-1.98
437.18,-0.04,1.93,0.00,1.97,-1.97,-1.73,-1.63,-2.01,-1.96,-1.97
441.55,-0.06,1.88,-0.02,1.92,-1.91,-1.69,-1.60,-1.97,-1.93,-1.94
445.96,0.01,1.91,-0.06,1.85,-1.85,-1.66,-1.56,-1.84,-1.91,-1.90
450.42,-0.07,1.79,-0.07,1.80,-1.80,-1.62,-1.53,-1.87,-1.87,-1.86
454.93,-0.12,1.69,-0.07,1.74,-1.75,-1.59,-1.50,-1.87,-1.82,-1.81
459.48,-0.05,1.70,-0.07,1.69,-1.70,-1.55,-1.47,-1.75,-1.77,-1.75
464.07,-0.01,1.67,-0.04,1.66,-1.66,-1.52,-1.44,-1.67,-1.70,-1.68
468.71,-0.01,1.62,-0.01,1.62,-1.61,-1.48,-1.41,-1.63,-1.63,-1.63
473.40,-0.02,1.55,-0.00,1.57,-1.57,-1.45,-1.38,-1.59,-1.57,-1.57
478.13,-0.00,1.51,0.00,1.52,-1.53,-1.41,-1.35,-1.53,-1.52,-1.51
482.91,0.04,1.50,0.02,1.49,-1.48,-1.38,-1.32,-1.44,-1.46,-1.46
487.74,0.01,1.44,0.02,1.45,-1.43,-1.34,-1.29,-1.42,-1.40,-1.43
492.62,0.01,1.40,-0.01,1.38,-1.37,-1.31,-1.26,-1.36,-1.38,-1.39
497.55,-0.04,1.31,-0.06,1.30,-1.31,-1.27,-1.23,-1.35,-1.37,-1.35
502.52,-0.14,1.19,-0.08,1.25,-1.25,-1.24,-1.20,-1.39,-1.32,-1.33
507.55,-0.11,1.19,-0.12,1.19,-1.19,-1.20,-1.16,-1.30,-1.31,-1.30
512.62,-0.09,1.20,-0.18,1.12,-1.14,-1.17,-1.13,-1.23,-1.31,-1.29
517.75,-0.27,1.01,-0.23,1.05,-1.08,-1.14,-1.10,-1.35,-1.32,-1.28
