frequency,raw,error,smoothed,error_smoothed,equalization,parametric_eq,fixed_band_eq,equalized_raw,equalized_smoothed,target
20.00,2.23,-5.30,2.23,-5.31,5.31,4.95,2.24,7.53,7.53,7.53
20.20,2.24,-5.28,2.24,-5.28,5.28,4.96,2.30,7.52,7.52,7.52
20.40,2.25,-5.26,2.25,-5.26,5.26,4.97,2.37,7.50,7.51,7.51
20.61,2.27,-5.23,2.26,-5.23,5.23,4.98,2.44,7.50,7.49,7.50
20.81,2.28,-5.20,2.27,-5.21,5.21,4.99,2.51,7.49,7.48,7.48
21.02,2.29,-5.18,2.28,-5.19,5.19,4.99,2.58,7.47,7.47,7.47
21.23,2.30,-5.16,2.30,-5.16,5.16,5.00,2.66,7.46,7.46,7.46
21.44,2.31,-5.16,2.31,-5.14,5.14,5.00,2.73,7.45,7.45,7.46
21.66,2.32,-5.13,2.32,-5.12,5.12,5.01,2.81,7.44,7.44,7.44
21.87,2.33,-5.12,2.33,-5.10,5.10,5.01,2.89,7.43,7.43,7.44
22.09,2.34,-5.08,2.34,-5.08,5.08,5.02,2.98,7.42,7.43,7.42
22.31,2.36,-5.06,2.35,-5.07,5.07,5.02,3.06,7.42,7.42,7.42
22.54,2.37,-5.04,2.36,-5.05,5.05,5.03,3.15,7.41,7.41,7.41
22.76,2.38,-5.03,2.37,-5.03,5.03,5.03,3.24,7.41,7.41,7.41
22.99,2.39,-5.01,2.38,-5.02,5.02,5.03,3.33,7.40,7.40,7.40
23.22,2.40,-4.99,2.40,-5.00,5.00,5.03,3.43,7.40,7.39,7.39
23.45,2.41,-4.99,2.41,-4.98,4.98,5.03,3.53,7.39,7.39,7.39
23.69,2.42,-4.97,2.42,-4.97,4.97,5.03,3.62,7.38,7.38,7.38
23.92,2.43,-4.95,2.43,-4.95,4.95,5.03,3.72,7.38,7.38,7.37
24.16,2.44,-4.94,2.44,-4.94,4.94,5.03,3.83,7.37,7.38,7.38
24.40,2.45,-4.93,2.45,-4.93,4.93,5.03,3.93,7.37,7.37,7.38
24.65,2.46,-4.92,2.46,-4.91,4.91,5.03,4.04,7.37,7.37,7.38
24.89,2.47,-4.91,2.47,-4.90,4.90,5.03,4.14,7.37,7.37,7.37
25.14,2.48,-4.89,2.48,-4.89,4.89,5.02,4.25,7.37,7.37,7.36
25.39,2.49,-4.88,2.49,-4.88,4.88,5.02,4.36,7.37,7.36,7.36
25.65,2.50,-4.86,2.49,-4.87,4.87,5.02,4.47,7.37,7.36,7.36
25.91,2.51,-4.85,2.50,-4.86,4.86,5.01,4.58,7.37,7.36,7.36
26.16,2.52,-4.85,2.51,-4.85,4.85,5.01,4.69,7.36,7.36,7.37
26.43,2.52,-4.85,2.52,-4.84,4.84,5.00,4.79,7.36,7.36,7.36
26.69,2.53,-4.84,2.53,-4.83,4.83,4.99,4.90,7.36,7.36,7.36
26.96,2.54,-4.82,2.54,-4.82,4.82,4.99,5.00,7.36,7.36,7.36
27.23,2.55,-4.81,2.55,-4.82,4.82,4.98,5.11,7.36,7.36,7.36
27.50,2.56,-4.80,2.55,-4.81,4.81,4.97,5.21,7.36,7.36,7.35
27.77,2.56,-4.81,2.56,-4.80,4.80,4.96,5.30,7.36,7.36,7.36
28.05,2.57,-4.79,2.57,-4.79,4.79,4.95,5.39,7.36,7.36,7.36
28.33,2.58,-4.79,2.58,-4.79,4.79,4.94,5.48,7.36,7.36,7.37
28.62,2.59,-4.78,2.58,-4.78,4.78,4.93,5.56,7.37,7.36,7.36
28.90,2.60,-4.77,2.59,-4.77,4.77,4.92,5.64,7.37,7.36,7.37
29.19,2.60,-4.77,2.60,-4.76,4.76,4.91,5.71,7.36,7.36,7.37
29.48,2.61,-4.76,2.61,-4.75,4.75,4.89,5.77,7.36,7.36,7.36
29.78,2.62,-4.74,2.61,-4.74,4.74,4.88,5.82,7.36,7.36,7.36
30.08,2.62,-4.74,2.62,-4.73,4.73,4.87,5.86,7.35,7.35,7.36
30.38,2.63,-4.72,2.62,-4.72,4.72,4.85,5.90,7.35,7.35,7.34
30.68,2.63,-4.71,2.63,-4.71,4.71,4.84,5.93,7.34,7.34,7.34
30.99,2.64,-4.70,2.64,-4.70,4.70,4.82,5.94,7.34,7.34,7.34
31.30,2.64,-4.70,2.64,-4.69,4.69,4.81,5.95,7.33,7.33,7.33
31.61,2.65,-4.68,2.64,-4.68,4.68,4.79,5.95,7.32,7.32,7.33
31.93,2.65,-4.66,2.65,-4.67,4.67,4.77,5.94,7.31,7.31,7.30
32.24,2.65,-4.66,2.65,-4.66,4.66,4.75,5.92,7.30,7.31,7.31
32.57,2.66,-4.64,2.65,-4.65,4.65,4.73,5.89,7.30,7.30,7.29
32.89,2.66,-4.63,2.65,-4.64,4.64,4.71,5.85,7.29,7.29,7.29
33.22,2.66,-4.63,2.65,-4.63,4.63,4.69,5.80,7.29,7.28,7.28
33.55,2.66,-4.62,2.65,-4.62,4.62,4.67,5.75,7.28,7.27,7.28
33.89,2.66,-4.61,2.65,-4.62,4.62,4.65,5.69,7.27,7.27,7.26
34.23,2.66,-4.59,2.65,-4.61,4.61,4.63,5.62,7.27,7.26,7.25
34.57,2.65,-4.60,2.65,-4.60,4.60,4.61,5.55,7.25,7.25,7.24
34.92,2.64,-4.59,2.64,-4.59,4.59,4.58,5.47,7.23,7.23,7.23
35.27,2.64,-4.60,2.64,-4.58,4.58,4.56,5.39,7.22,7.22,7.24
35.62,2.63,-4.59,2.64,-4.57,4.57,4.54,5.31,7.20,7.21,7.21
35.97,2.63,-4.58,2.63,-4.56,4.56,4.51,5.22,7.19,7.20,7.21
36.33,2.63,-4.56,2.63,-4.55,4.55,4.48,5.13,7.18,7.18,7.19
36.70,2.63,-4.53,2.63,-4.54,4.54,4.46,5.04,7.16,7.16,7.16
37.06,2.63,-4.52,2.62,-4.52,4.52,4.43,4.95,7.15,7.14,7.14
37.43,2.63,-4.50,2.62,-4.50,4.50,4.40,4.85,7.13,7.13,7.12
37.81,2.63,-4.48,2.62,-4.48,4.48,4.37,4.76,7.11,7.10,7.11
38.19,2.63,-4.45,2.62,-4.46,4.46,4.35,4.67,7.09,7.08,7.08
38.57,2.62,-4.44,2.62,-4.44,4.44,4.32,4.57,7.06,7.06,7.06
38.95,2.62,-4.42,2.61,-4.42,4.42,4.29,4.48,7.04,7.04,7.04
39.34,2.62,-4.39,2.61,-4.40,4.40,4.25,4.39,7.02,7.01,7.01
39.74,2.61,-4.37,2.61,-4.38,4.38,4.22,4.31,6.98,6.99,6.98
40.14,2.61,-4.35,2.61,-4.35,4.35,4.19,4.22,6.96,6.96,6.96
40.54,2.61,-4.33,2.61,-4.33,4.33,4.16,4.13,6.94,6.94,6.94
40.94,2.61,-4.30,2.61,-4.30,4.30,4.12,4.05,6.91,6.91,6.91
41.35,2.61,-4.28,2.61,-4.28,4.28,4.09,3.97,6.88,6.89,6.89
41.76,2.61,-4.25,2.61,-4.25,4.25,4.05,3.90,6.86,6.86,6.85
42.18,2.61,-4.23,2.62,-4.22,4.22,4.02,3.82,6.83,6.84,6.84
42.60,2.62,-4.19,2.62,-4.19,4.19,3.98,3.75,6.81,6.81,6.81
43.03,2.63,-4.16,2.63,-4.16,4.16,3.95,3.68,6.78,6.78,6.78
43.46,2.64,-4.11,2.63,-4.12,4.12,3.91,3.61,6.76,6.75,6.75
43.90,2.65,-4.08,2.64,-4.08,4.08,3.87,3.55,6.73,6.73,6.73
44.33,2.66,-4.03,2.65,-4.04,4.04,3.83,3.49,6.70,6.69,6.69
44.78,2.67,-4.00,2.66,-4.00,4.00,3.79,3.43,6.66,6.66,6.67
45.23,2.68,-3.96,2.68,-3.95,3.95,3.75,3.38,6.63,6.63,6.64
45.68,2.69,-3.91,2.69,-3.90,3.90,3.71,3.32,6.59,6.59,6.59
46.13,2.70,-3.86,2.70,-3.85,3.85,3.67,3.27,6.55,6.55,6.55
46.60,2.72,-3.80,2.72,-3.80,3.80,3.63,3.23,6.51,6.51,6.52
47.06,2.73,-3.75,2.73,-3.74,3.74,3.59,3.18,6.47,6.47,6.48
47.53,2.75,-3.69,2.75,-3.68,3.68,3.54,3.14,6.43,6.43,6.44
48.01,2.77,-3.61,2.76,-3.62,3.62,3.50,3.10,6.39,6.38,6.38
48.49,2.78,-3.56,2.78,-3.56,3.56,3.46,3.06,6.34,6.34,6.34
48.97,2.80,-3.49,2.79,-3.50,3.50,3.41,3.03,6.29,6.29,6.29
49.46,2.81,-3.44,2.81,-3.43,3.43,3.37,2.99,6.24,6.25,6.24
49.96,2.83,-3.36,2.83,-3.37,3.37,3.32,2.96,6.20,6.20,6.18
50.46,2.85,-3.30,2.85,-3.31,3.31,3.27,2.93,6.15,6.15,6.15
50.96,2.87,-3.24,2.86,-3.24,3.24,3.23,2.90,6.11,6.10,6.10
51.47,2.88,-3.18,2.88,-3.18,3.18,3.18,2.88,6.05,6.06,6.06
51.99,2.90,-3.11,2.90,-3.12,3.12,3.13,2.85,6.01,6.01,6.00
52.51,2.92,-3.05,2.91,-3.05,3.05,3.08,2.83,5.97,5.96,5.97
53.03,2.93,-3.00,2.92,-2.99,2.99,3.03,2.80,5.92,5.92,5.93
53.56,2.94,-2.94,2.94,-2.93,2.93,2.98,2.78,5.87,5.87,5.88
54.10,2.95,-2.87,2.95,-2.88,2.88,2.93,2.76,5.82,5.82,5.82
54.64,2.96,-2.82,2.96,-2.82,2.82,2.88,2.74,5.78,5.78,5.78
55.18,2.97,-2.76,2.96,-2.77,2.77,2.83,2.71,5.74,5.74,5.73
55.74,2.98,-2.70,2.97,-2.73,2.73,2.78,2.69,5.70,5.69,5.68
56.29,2.98,-2.67,2.97,-2.68,2.68,2.72,2.67,5.65,5.65,5.64
56.86,2.98,-2.62,2.97,-2.63,2.63,2.67,2.64,5.61,5.60,5.60
57.42,2.98,-2.57,2.97,-2.58,2.58,2.62,2.62,5.56,5.55,5.54
58.00,2.98,-2.52,2.97,-2.53,2.53,2.56,2.59,5.51,5.50,5.50
58.58,2.97,-2.49,2.97,-2.48,2.48,2.51,2.56,5.45,5.45,5.46
59.16,2.96,-2.46,2.97,-2.43,2.43,2.45,2.53,5.39,5.40,5.42
59.76,2.96,-2.41,2.97,-2.38,2.38,2.40,2.50,5.34,5.35,5.37
60.35,2.96,-2.35,2.96,-2.33,2.33,2.34,2.47,5.28,5.29,5.31
60.96,2.96,-2.29,2.96,-2.27,2.27,2.28,2.43,5.23,5.23,5.25
61.57,2.96,-2.22,2.96,-2.22,2.22,2.22,2.39,5.17,5.17,5.17
62.18,2.96,-2.15,2.96,-2.16,2.16,2.17,2.35,5.11,5.11,5.11
62.80,2.96,-2.09,2.96,-2.10,2.10,2.11,2.31,5.05,5.05,5.04
63.43,2.96,-2.02,2.95,-2.04,2.04,2.05,2.26,4.99,4.99,4.98
64.07,2.96,-1.96,2.95,-1.97,1.97,1.99,2.21,4.93,4.93,4.92
64.71,2.96,-1.90,2.95,-1.91,1.91,1.93,2.16,4.87,4.86,4.86
65.35,2.96,-1.84,2.96,-1.84,1.84,1.87,2.11,4.80,4.80,4.80
66.01,2.96,-1.78,2.96,-1.78,1.78,1.81,2.05,4.74,4.74,4.73
66.67,2.96,-1.73,2.96,-1.72,1.72,1.75,1.99,4.67,4.67,4.68
67.33,2.96,-1.65,2.96,-1.65,1.65,1.69,1.93,4.61,4.61,4.61
68.01,2.96,-1.59,2.96,-1.59,1.59,1.63,1.87,4.54,4.54,4.55
68.69,2.96,-1.53,2.96,-1.52,1.52,1.56,1.80,4.48,4.48,4.48
69.37,2.96,-1.47,2.96,-1.46,1.46,1.50,1.73,4.42,4.42,4.43
70.07,2.96,-1.40,2.96,-1.39,1.39,1.44,1.66,4.35,4.35,4.36
70.77,2.96,-1.33,2.96,-1.33,1.33,1.38,1.59,4.28,4.28,4.28
71.48,2.96,-1.27,2.96,-1.26,1.26,1.31,1.52,4.22,4.22,4.22
72.19,2.96,-1.19,2.96,-1.19,1.19,1.25,1.45,4.15,4.15,4.15
72.91,2.96,-1.12,2.96,-1.13,1.13,1.18,1.37,4.08,4.08,4.07
73.64,2.96,-1.05,2.96,-1.06,1.06,1.12,1.30,4.01,4.01,4.01
74.38,2.96,-0.98,2.96,-0.99,0.99,1.05,1.22,3.95,3.95,3.94
75.12,2.96,-0.92,2.96,-0.93,0.93,0.99,1.14,3.88,3.88,3.88
75.87,2.96,-0.86,2.96,-0.86,0.86,0.92,1.06,3.82,3.82,3.82
76.63,2.96,-0.79,2.96,-0.80,0.80,0.86,0.98,3.76,3.76,3.75
77.40,2.96,-0.74,2.96,-0.74,0.74,0.79,0.90,3.69,3.69,3.70
78.17,2.96,-0.67,2.96,-0.68,0.68,0.72,0.82,3.63,3.63,3.62
78.95,2.96,-0.62,2.96,-0.61,0.61,0.66,0.74,3.57,3.57,3.58
79.74,2.96,-0.55,2.96,-0.55,0.55,0.59,0.66,3.51,3.51,3.51
80.54,2.96,-0.50,2.96,-0.49,0.49,0.52,0.58,3.45,3.45,3.45
81.35,2.96,-0.43,2.96,-0.43,0.43,0.46,0.50,3.39,3.39,3.38
82.16,2.96,-0.38,2.96,-0.37,0.37,0.39,0.42,3.32,3.32,3.33
82.98,2.96,-0.31,2.96,-0.31,0.31,0.32,0.34,3.26,3.26,3.26
83.81,2.96,-0.25,2.96,-0.24,0.24,0.25,0.26,3.20,3.20,3.20
84.65,2.96,-0.17,2.96,-0.18,0.18,0.19,0.18,3.13,3.13,3.13
85.50,2.96,-0.11,2.96,-0.11,0.11,0.12,0.10,3.07,3.07,3.07
86.35,2.96,-0.04,2.96,-0.05,0.05,0.05,0.01,3.00,3.00,3.00
87.22,2.96,0.02,2.96,0.02,-0.02,-0.02,-0.07,2.94,2.94,2.93
88.09,2.96,0.09,2.96,0.09,-0.09,-0.09,-0.15,2.87,2.87,2.87
88.97,2.96,0.16,2.96,0.16,-0.16,-0.16,-0.23,2.80,2.80,2.80
89.86,2.96,0.22,2.96,0.23,-0.23,-0.22,-0.31,2.73,2.73,2.73
90.76,2.96,0.29,2.96,0.30,-0.30,-0.29,-0.40,2.66,2.66,2.66
91.66,2.96,0.37,2.96,0.37,-0.37,-0.36,-0.48,2.59,2.59,2.58
92.58,2.96,0.43,2.96,0.44,-0.44,-0.43,-0.56,2.52,2.52,2.52
93.51,2.96,0.51,2.96,0.51,-0.51,-0.50,-0.64,2.44,2.44,2.45
94.44,2.96,0.58,2.96,0.59,-0.59,-0.57,-0.73,2.37,2.37,2.38
95.39,2.96,0.66,2.96,0.66,-0.66,-0.64,-0.81,2.29,2.29,2.30
96.34,2.96,0.73,2.96,0.74,-0.74,-0.71,-0.89,2.22,2.22,2.22
97.30,2.96,0.81,2.96,0.81,-0.81,-0.78,-0.97,2.15,2.15,2.15
98.28,2.96,0.89,2.96,0.88,-0.88,-0.85,-1.06,2.07,2.07,2.06
99.26,2.96,0.97,2.96,0.96,-0.96,-0.92,-1.14,2.00,2.00,1.99
100.25,2.96,1.04,2.96,1.03,-1.03,-0.98,-1.22,1.93,1.93,1.92
101.25,2.96,1.10,2.96,1.10,-1.10,-1.05,-1.31,1.86,1.86,1.85
102.27,2.96,1.17,2.96,1.17,-1.17,-1.12,-1.39,1.79,1.79,1.79
103.29,2.96,1.25,2.96,1.24,-1.24,-1.19,-1.47,1.72,1.72,1.71
104.32,2.96,1.31,2.96,1.31,-1.31,-1.26,-1.55,1.65,1.65,1.65
105.37,2.96,1.38,2.96,1.38,-1.38,-1.33,-1.63,1.58,1.58,1.58
106.42,2.96,1.44,2.96,1.45,-1.45,-1.40,-1.71,1.51,1.51,1.51
107.48,2.96,1.52,2.96,1.52,-1.52,-1.46,-1.79,1.44,1.44,1.44
108.56,2.96,1.58,2.96,1.59,-1.59,-1.53,-1.87,1.37,1.37,1.37
109.64,2.96,1.65,2.96,1.66,-1.66,-1.60,-1.94,1.30,1.30,1.31
110.74,2.96,1.72,2.96,1.73,-1.73,-1.67,-2.02,1.23,1.23,1.23
111.85,2.96,1.80,2.96,1.80,-1.80,-1.74,-2.09,1.16,1.16,1.16
112.97,2.96,1.86,2.96,1.87,-1.87,-1.80,-2.16,1.09,1.09,1.09
114.10,2.96,1.94,2.96,1.94,-1.94,-1.87,-2.23,1.01,1.01,1.02
115.24,2.96,2.02,2.96,2.01,-2.01,-1.94,-2.30,0.94,0.94,0.94
116.39,2.96,2.09,2.96,2.08,-2.08,-2.01,-2.37,0.87,0.87,0.86
117.55,2.96,2.17,2.96,2.15,-2.15,-2.07,-2.43,0.80,0.80,0.79
118.73,2.96,2.24,2.96,2.22,-2.22,-2.14,-2.49,0.73,0.73,0.72
119.92,2.96,2.30,2.96,2.29,-2.29,-2.20,-2.55,0.66,0.66,0.66
121.12,2.96,2.36,2.96,2.36,-2.36,-2.27,-2.60,0.59,0.59,0.60
122.33,2.96,2.43,2.95,2.43,-2.43,-2.34,-2.65,0.53,0.53,0.53
123.55,2.96,2.49,2.95,2.50,-2.50,-2.40,-2.70,0.46,0.46,0.47
124.79,2.96,2.56,2.96,2.57,-2.57,-2.47,-2.75,0.39,0.39,0.40
126.03,2.96,2.63,2.96,2.64,-2.64,-2.53,-2.79,0.32,0.32,0.33
127.29,2.96,2.69,2.96,2.70,-2.70,-2.59,-2.83,0.25,0.25,0.26
128.57,2.96,2.77,2.96,2.77,-2.77,-2.66,-2.86,0.18,0.19,0.19
129.85,2.96,2.83,2.96,2.84,-2.84,-2.72,-2.90,0.11,0.12,0.12
131.15,2.96,2.91,2.97,2.91,-2.91,-2.78,-2.93,0.04,0.05,0.05
132.46,2.96,2.97,2.97,2.98,-2.98,-2.85,-2.96,-0.03,-0.01,-0.02
133.79,2.96,3.04,2.97,3.05,-3.05,-2.91,-2.99,-0.10,-0.08,-0.09
135.12,2.97,3.12,2.97,3.12,-3.12,-2.97,-3.01,-0.15,-0.15,-0.15
136.48,2.98,3.19,2.97,3.18,-3.18,-3.03,-3.03,-0.20,-0.21,-0.21
137.84,2.98,3.25,2.96,3.24,-3.24,-3.09,-3.06,-0.26,-0.28,-0.28
139.22,2.97,3.31,2.95,3.29,-3.29,-3.15,-3.08,-0.32,-0.34,-0.35
140.61,2.96,3.36,2.94,3.34,-3.34,-3.21,-3.10,-0.38,-0.40,-0.40
142.02,2.94,3.40,2.92,3.38,-3.38,-3.27,-3.11,-0.45,-0.46,-0.47
143.44,2.92,3.44,2.90,3.42,-3.42,-3.33,-3.13,-0.51,-0.52,-0.52
144.87,2.89,3.46,2.88,3.46,-3.46,-3.39,-3.15,-0.57,-0.58,-0.58
146.32,2.86,3.49,2.85,3.48,-3.48,-3.45,-3.17,-0.63,-0.63,-0.64
147.78,2.83,3.51,2.82,3.51,-3.51,-3.51,-3.19,-0.68,-0.69,-0.69
149.26,2.80,3.54,2.79,3.54,-3.54,-3.56,-3.21,-0.74,-0.74,-0.75
150.75,2.76,3.56,2.76,3.56,-3.56,-3.62,-3.23,-0.80,-0.80,-0.80
152.26,2.73,3.58,2.73,3.58,-3.58,-3.68,-3.25,-0.86,-0.86,-0.85
153.78,2.70,3.60,2.70,3.61,-3.61,-3.73,-3.27,-0.92,-0.91,-0.91
155.32,2.67,3.63,2.68,3.64,-3.64,-3.79,-3.30,-0.98,-0.96,-0.96
156.88,2.64,3.65,2.66,3.68,-3.68,-3.84,-3.32,-1.04,-1.02,-1.01
158.44,2.63,3.70,2.65,3.72,-3.72,-3.89,-3.35,-1.09,-1.07,-1.07
160.03,2.61,3.73,2.64,3.77,-3.77,-3.95,-3.38,-1.16,-1.13,-1.13
161.63,2.61,3.79,2.63,3.82,-3.82,-4.00,-3.41,-1.21,-1.19,-1.18
163.24,2.61,3.85,2.63,3.87,-3.87,-4.05,-3.45,-1.26,-1.24,-1.24
164.88,2.63,3.92,2.63,3.92,-3.92,-4.10,-3.48,-1.30,-1.30,-1.30
166.53,2.63,3.99,2.63,3.98,-3.98,-4.15,-3.52,-1.36,-1.35,-1.36
168.19,2.64,4.04,2.63,4.04,-4.04,-4.20,-3.56,-1.40,-1.41,-1.41
169.87,2.65,4.11,2.62,4.09,-4.09,-4.25,-3.61,-1.45,-1.47,-1.47
171.57,2.65,4.18,2.62,4.15,-4.15,-4.30,-3.66,-1.50,-1.53,-1.53
173.29,2.64,4.22,2.61,4.20,-4.20,-4.35,-3.71,-1.56,-1.58,-1.58
175.02,2.63,4.26,2.60,4.24,-4.24,-4.40,-3.76,-1.62,-1.64,-1.64
176.77,2.61,4.30,2.59,4.28,-4.28,-4.44,-3.82,-1.68,-1.70,-1.70
178.54,2.59,4.34,2.57,4.32,-4.32,-4.49,-3.88,-1.74,-1.75,-1.75
180.32,2.56,4.37,2.55,4.35,-4.35,-4.53,-3.94,-1.80,-1.81,-1.82
182.13,2.53,4.39,2.52,4.38,-4.38,-4.58,-4.00,-1.86,-1.86,-1.86
183.95,2.49,4.40,2.49,4.41,-4.41,-4.62,-4.07,-1.92,-1.92,-1.91
185.79,2.45,4.42,2.46,4.43,-4.43,-4.66,-4.14,-1.98,-1.97,-1.97
187.65,2.43,4.45,2.43,4.45,-4.45,-4.71,-4.21,-2.03,-2.02,-2.02
189.52,2.40,4.47,2.40,4.47,-4.47,-4.75,-4.29,-2.08,-2.07,-2.07
191.42,2.37,4.49,2.37,4.50,-4.50,-4.79,-4.37,-2.13,-2.13,-2.12
193.33,2.34,4.50,2.35,4.53,-4.53,-4.83,-4.45,-2.19,-2.17,-2.17
195.27,2.32,4.54,2.33,4.55,-4.55,-4.87,-4.54,-2.24,-2.22,-2.22
197.22,2.30,4.57,2.32,4.58,-4.58,-4.90,-4.62,-2.29,-2.27,-2.28
199.19,2.29,4.60,2.31,4.62,-4.62,-4.94,-4.71,-2.33,-2.31,-2.31
201.18,2.28,4.64,2.30,4.65,-4.65,-4.98,-4.80,-2.37,-2.35,-2.36
203.19,2.29,4.68,2.29,4.69,-4.69,-5.01,-4.89,-2.40,-2.39,-2.40
205.23,2.30,4.72,2.29,4.72,-4.72,-5.05,-4.98,-2.42,-2.43,-2.43
207.28,2.31,4.77,2.28,4.76,-4.76,-5.08,-5.08,-2.45,-2.47,-2.47
209.35,2.31,4.81,2.28,4.79,-4.79,-5.12,-5.17,-2.49,-2.51,-2.51
211.44,2.31,4.85,2.28,4.83,-4.83,-5.15,-5.27,-2.52,-2.55,-2.54
213.56,2.31,4.88,2.28,4.86,-4.86,-5.18,-5.36,-2.55,-2.58,-2.57
215.69,2.30,4.90,2.28,4.89,-4.89,-5.21,-5.45,-2.60,-2.61,-2.61
217.85,2.29,4.93,2.28,4.93,-4.93,-5.24,-5.54,-2.64,-2.64,-2.64
220.03,2.28,4.95,2.29,4.96,-4.96,-5.27,-5.63,-2.68,-2.67,-2.68
222.23,2.28,4.99,2.29,4.99,-4.99,-5.30,-5.72,-2.72,-2.70,-2.71
224.45,2.29,5.02,2.30,5.03,-5.03,-5.33,-5.80,-2.74,-2.73,-2.73
226.70,2.31,5.07,2.31,5.07,-5.07,-5.35,-5.88,-2.76,-2.76,-2.77
228.96,2.32,5.09,2.32,5.11,-5.11,-5.38,-5.96,-2.79,-2.79,-2.78
231.25,2.33,5.13,2.34,5.15,-5.15,-5.40,-6.03,-2.82,-2.81,-2.81
233.57,2.35,5.18,2.37,5.20,-5.20,-5.43,-6.10,-2.85,-2.83,-2.83
235.90,2.40,5.24,2.41,5.25,-5.25,-5.45,-6.16,-2.86,-2.85,-2.85
238.26,2.44,5.31,2.45,5.31,-5.31,-5.47,-6.21,-2.88,-2.87,-2.88
240.64,2.49,5.36,2.50,5.38,-5.38,-5.49,-6.26,-2.89,-2.88,-2.88
243.05,2.53,5.42,2.55,5.44,-5.44,-5.51,-6.30,-2.92,-2.89,-2.89
245.48,2.59,5.50,2.61,5.51,-5.51,-5.53,-6.33,-2.92,-2.90,-2.91
247.93,2.67,5.59,2.67,5.58,-5.58,-5.55,-6.35,-2.92,-2.92,-2.93
250.41,2.73,5.65,2.73,5.65,-5.65,-5.57,-6.37,-2.93,-2.92,-2.92
252.92,2.81,5.73,2.79,5.73,-5.73,-5.59,-6.38,-2.92,-2.93,-2.93
255.45,2.87,5.81,2.86,5.80,-5.80,-5.60,-6.38,-2.93,-2.94,-2.94
258.00,2.93,5.87,2.92,5.87,-5.87,-5.62,-6.37,-2.94,-2.95,-2.95
260.58,3.00,5.95,2.98,5.94,-5.94,-5.63,-6.35,-2.94,-2.95,-2.95
263.19,3.05,6.00,3.04,6.00,-6.00,-5.65,-6.33,-2.95,-2.96,-2.95
265.82,3.11,6.07,3.09,6.05,-6.05,-5.66,-6.30,-2.95,-2.97,-2.97
268.48,3.14,6.10,3.13,6.11,-6.11,-5.67,-6.27,-2.97,-2.97,-2.97
271.16,3.19,6.16,3.17,6.15,-6.15,-5.68,-6.23,-2.97,-2.98,-2.97
273.87,3.23,6.21,3.21,6.19,-6.19,-5.69,-6.18,-2.96,-2.98,-2.98
276.61,3.25,6.23,3.24,6.22,-6.22,-5.70,-6.13,-2.97,-2.98,-2.98
279.38,3.27,6.27,3.26,6.25,-6.25,-5.71,-6.08,-2.98,-2.99,-3.00
282.17,3.28,6.28,3.28,6.27,-6.27,-5.72,-6.02,-2.99,-2.99,-3.00
284.99,3.29,6.28,3.29,6.28,-6.28,-5.73,-5.96,-3.00,-2.99,-2.99
287.84,3.31,6.30,3.30,6.29,-6.29,-5.73,-5.90,-2.99,-2.99,-2.99
290.72,3.30,6.30,3.31,6.30,-6.30,-5.74,-5.84,-3.00,-2.99,-3.00
293.63,3.30,6.29,3.31,6.30,-6.30,-5.74,-5.78,-3.00,-2.99,-2.99
296.57,3.29,6.27,3.31,6.30,-6.30,-5.74,-5.71,-3.01,-2.99,-2.99
299.53,3.30,6.28,3.31,6.29,-6.29,-5.75,-5.65,-3.00,-2.99,-2.99
302.53,3.30,6.27,3.30,6.28,-6.28,-5.75,-5.59,-2.99,-2.98,-2.97
305.55,3.30,6.28,3.29,6.27,-6.27,-5.75,-5.52,-2.97,-2.98,-2.98
308.61,3.29,6.25,3.28,6.26,-6.26,-5.75,-5.46,-2.97,-2.97,-2.97
311.69,3.27,6.23,3.27,6.23,-6.23,-5.75,-5.41,-2.97,-2.97,-2.97
314.81,3.26,6.22,3.25,6.21,-6.21,-5.75,-5.35,-2.95,-2.96,-2.96
317.96,3.24,6.20,3.23,6.18,-6.18,-5.74,-5.30,-2.95,-2.96,-2.96
321.14,3.22,6.16,3.20,6.15,-6.15,-5.74,-5.25,-2.93,-2.95,-2.95
324.35,3.19,6.14,3.17,6.11,-6.11,-5.74,-5.20,-2.92,-2.94,-2.95
327.59,3.15,6.07,3.13,6.07,-6.07,-5.73,-5.15,-2.92,-2.94,-2.93
330.87,3.11,6.04,3.09,6.02,-6.02,-5.72,-5.11,-2.91,-2.93,-2.93
334.18,3.06,5.98,3.04,5.97,-5.97,-5.72,-5.07,-2.91,-2.93,-2.93
337.52,3.01,5.93,3.00,5.92,-5.92,-5.71,-5.04,-2.91,-2.92,-2.92
340.90,2.96,5.86,2.95,5.87,-5.87,-5.70,-5.01,-2.91,-2.91,-2.91
344.30,2.90,5.80,2.91,5.82,-5.82,-5.69,-4.98,-2.92,-2.91,-2.90
347.75,2.86,5.75,2.87,5.76,-5.76,-5.68,-4.95,-2.91,-2.90,-2.90
351.23,2.80,5.70,2.82,5.72,-5.72,-5.67,-4.93,-2.92,-2.89,-2.90
354.74,2.76,5.63,2.78,5.67,-5.67,-5.66,-4.92,-2.91,-2.89,-2.88
358.28,2.73,5.61,2.75,5.63,-5.63,-5.65,-4.91,-2.90,-2.88,-2.88
361.87,2.71,5.58,2.72,5.59,-5.59,-5.64,-4.90,-2.89,-2.87,-2.87
365.49,2.68,5.54,2.69,5.56,-5.56,-5.62,-4.89,-2.88,-2.87,-2.87
369.14,2.67,5.52,2.67,5.53,-5.53,-5.61,-4.89,-2.86,-2.86,-2.85
372.83,2.66,5.50,2.65,5.50,-5.50,-5.59,-4.89,-2.84,-2.85,-2.85
376.56,2.63,5.47,2.63,5.47,-5.47,-5.58,-4.90,-2.84,-2.84,-2.85
380.33,2.61,5.45,2.61,5.44,-5.44,-5.56,-4.91,-2.84,-2.83,-2.84
384.13,2.60,5.42,2.59,5.41,-5.41,-5.55,-4.92,-2.82,-2.83,-2.82
387.97,2.59,5.40,2.57,5.38,-5.38,-5.53,-4.94,-2.80,-2.82,-2.82
391.85,2.57,5.38,2.55,5.35,-5.35,-5.51,-4.96,-2.79,-2.81,-2.81
395.77,2.55,5.35,2.52,5.32,-5.32,-5.49,-4.98,-2.77,-2.80,-2.80
399.73,2.52,5.31,2.49,5.28,-5.28,-5.47,-5.00,-2.77,-2.79,-2.80
403.72,2.48,5.24,2.47,5.25,-5.25,-5.45,-5.03,-2.77,-2.78,-2.77
407.76,2.45,5.22,2.44,5.21,-5.21,-5.43,-5.05,-2.76,-2.77,-2.77
411.84,2.41,5.17,2.41,5.17,-5.17,-5.41,-5.08,-2.77,-2.76,-2.76
415.96,2.38,5.12,2.39,5.14,-5.14,-5.39,-5.12,-2.76,-2.75,-2.75
420.12,2.35,5.09,2.36,5.11,-5.11,-5.36,-5.15,-2.76,-2.75,-2.75
424.32,2.33,5.07,2.34,5.08,-5.08,-5.34,-5.18,-2.76,-2.74,-2.74
428.56,2.31,5.03,2.33,5.06,-5.06,-5.32,-5.21,-2.75,-2.73,-2.72
432.85,2.29,5.00,2.31,5.03,-5.03,-5.29,-5.25,-2.75,-2.72,-2.71
437.18,2.29,5.00,2.30,5.01,-5.01,-5.27,-5.28,-2.73,-2.71,-2.72
441.55,2.29,4.99,2.29,5.00,-5.00,-5.24,-5.31,-2.71,-2.70,-2.71
445.96,2.30,5.00,2.29,4.99,-4.99,-5.22,-5.34,-2.69,-2.70,-2.70
450.42,2.30,4.99,2.29,4.98,-4.98,-5.19,-5.37,-2.68,-2.69,-2.69
454.93,2.31,4.99,2.29,4.97,-4.97,-5.16,-5.39,-2.67,-2.68,-2.68
459.48,2.31,4.98,2.30,4.97,-4.97,-5.13,-5.41,-2.66,-2.67,-2.67
464.07,2.31,4.96,2.30,4.97,-4.97,-5.11,-5.43,-2.66,-2.66,-2.66
468.71,2.31,4.95,2.31,4.96,-4.96,-5.08,-5.45,-2.66,-2.65,-2.65
473.40,2.31,4.94,2.32,4.96,-4.96,-5.05,-5.46,-2.65,-2.64,-2.64
478.13,2.31,4.94,2.32,4.95,-4.95,-5.02,-5.46,-2.64,-2.63,-2.63
482.91,2.32,4.94,2.32,4.94,-4.94,-4.99,-5.46,-2.62,-2.62,-2.62
487.74,2.33,4.94,2.32,4.93,-4.93,-4.96,-5.45,-2.60,-2.61,-2.61
492.62,2.33,4.93,2.31,4.91,-4.91,-4.93,-5.44,-2.59,-2.60,-2.60
497.55,2.32,4.91,2.31,4.90,-4.90,-4.90,-5.42,-2.58,-2.59,-2.59
502.52,2.31,4.89,2.29,4.87,-4.87,-4.86,-5.40,-2.57,-2.58,-2.59
507.55,2.29,4.85,2.28,4.85,-4.85,-4.83,-5.37,-2.56,-2.57,-2.57
512.62,2.27,4.82,2.26,4.82,-4.82,-4.80,-5.33,-2.55,-2.56,-2.56
517.75,2.24,4.77,2.24,4.78,-4.78,-4.77,-5.29,-2.55,-2.54,-2.54
522.93,2.21,4.74,2.21,4.74,-4.74,-4.73,-5.24,-2.53,-2.53,-2.53
