frequency,raw,error,smoothed,error_smoothed,equalization,parametric_eq,fixed_band_eq,equalized_raw,equalized_smoothed,target
20.00,-19.18,-19.65,-19.18,-19.67,19.67,19.28,8.38,0.49,0.49,0.47
20.20,-19.03,-19.59,-19.03,-19.60,19.60,19.26,8.55,0.57,0.57,0.56
20.40,-18.87,-19.51,-18.87,-19.52,19.52,19.22,8.71,0.65,0.64,0.64
20.61,-18.72,-19.43,-18.72,-19.43,19.43,19.19,8.88,0.71,0.72,0.71
20.81,-18.56,-19.36,-18.56,-19.35,19.35,19.14,9.05,0.79,0.79,0.80
21.02,-18.40,-19.28,-18.40,-19.26,19.26,19.09,9.23,0.86,0.85,0.88
21.23,-18.25,-19.19,-18.25,-19.16,19.16,19.04,9.41,0.91,0.92,0.94
21.44,-18.09,-19.09,-18.09,-19.07,19.07,18.97,9.60,0.98,0.98,1.00
21.66,-17.93,-18.98,-17.93,-18.97,18.97,18.91,9.79,1.03,1.04,1.05
21.87,-17.77,-18.87,-17.77,-18.86,18.86,18.83,9.99,1.10,1.09,1.10
22.09,-17.61,-18.76,-17.61,-18.76,18.76,18.76,10.19,1.15,1.14,1.15
22.31,-17.45,-18.65,-17.45,-18.65,18.65,18.67,10.39,1.20,1.20,1.20
22.54,-17.29,-18.53,-17.29,-18.53,18.53,18.59,10.60,1.24,1.24,1.24
22.76,-17.13,-18.41,-17.13,-18.41,18.41,18.49,10.82,1.28,1.28,1.28
22.99,-16.97,-18.28,-16.96,-18.28,18.28,18.40,11.04,1.32,1.32,1.31
23.22,-16.80,-18.15,-16.80,-18.16,18.16,18.29,11.27,1.36,1.36,1.35
23.45,-16.64,-18.03,-16.63,-18.03,18.03,18.19,11.51,1.39,1.40,1.39
23.69,-16.47,-17.90,-16.47,-17.90,17.90,18.08,11.75,1.43,1.43,1.43
23.92,-16.30,-17.77,-16.30,-17.77,17.77,17.96,12.00,1.47,1.47,1.47
24.16,-16.14,-17.66,-16.14,-17.64,17.64,17.84,12.26,1.50,1.50,1.52
24.40,-15.97,-17.52,-15.97,-17.51,17.51,17.72,12.52,1.54,1.54,1.55
24.65,-15.80,-17.37,-15.80,-17.37,17.37,17.60,12.80,1.57,1.57,1.57
24.89,-15.63,-17.23,-15.63,-17.24,17.24,17.47,13.08,1.61,1.61,1.60
25.14,-15.46,-17.10,-15.46,-17.10,17.10,17.34,13.36,1.64,1.64,1.64
25.39,-15.29,-16.96,-15.29,-16.96,16.96,17.20,13.66,1.68,1.67,1.67
25.65,-15.12,-16.83,-15.12,-16.82,16.82,17.07,13.97,1.70,1.70,1.71
25.91,-14.95,-16.68,-14.95,-16.68,16.68,16.93,14.28,1.73,1.73,1.73
26.16,-14.78,-16.54,-14.78,-16.54,16.54,16.79,14.60,1.77,1.77,1.76
26.43,-14.61,-16.41,-14.60,-16.40,16.40,16.64,14.93,1.79,1.79,1.80
26.69,-14.43,-16.26,-14.43,-16.26,16.26,16.50,15.27,1.83,1.82,1.83
26.96,-14.26,-16.12,-14.26,-16.11,16.11,16.35,15.62,1.85,1.85,1.86
27.23,-14.08,-15.97,-14.08,-15.97,15.97,16.20,15.98,1.89,1.89,1.89
27.50,-13.91,-15.83,-13.91,-15.83,15.83,16.05,16.34,1.92,1.92,1.92
27.77,-13.73,-15.67,-13.73,-15.68,15.68,15.89,16.70,1.95,1.95,1.94
28.05,-13.56,-15.54,-13.56,-15.53,15.53,15.74,17.07,1.98,1.98,1.98
28.33,-13.38,-15.38,-13.38,-15.39,15.39,15.58,17.43,2.01,2.01,2.00
28.62,-13.21,-15.24,-13.21,-15.24,15.24,15.42,17.79,2.03,2.04,2.03
28.90,-13.03,-15.10,-13.03,-15.09,15.09,15.27,18.14,2.07,2.07,2.07
29.19,-12.85,-14.94,-12.85,-14.94,14.94,15.10,18.48,2.10,2.09,2.09
29.48,-12.67,-14.81,-12.67,-14.79,14.79,14.94,18.79,2.13,2.12,2.14
29.78,-12.49,-14.64,-12.49,-14.64,14.64,14.78,19.07,2.15,2.15,2.15
30.08,-12.32,-14.50,-12.31,-14.49,14.49,14.62,19.30,2.17,2.18,2.18
30.38,-12.14,-14.35,-12.13,-14.34,14.34,14.45,19.48,2.20,2.21,2.21
30.68,-11.96,-14.20,-11.96,-14.19,14.19,14.28,19.61,2.23,2.23,2.24
30.99,-11.78,-14.04,-11.78,-14.04,14.04,14.12,19.66,2.26,2.26,2.26
31.30,-11.60,-13.88,-11.60,-13.88,13.88,13.95,19.65,2.28,2.28,2.28
31.61,-11.41,-13.72,-11.42,-13.73,13.73,13.78,19.56,2.32,2.31,2.31
31.93,-11.23,-13.56,-11.24,-13.57,13.57,13.61,19.40,2.34,2.33,2.33
32.24,-11.06,-13.41,-11.06,-13.42,13.42,13.44,19.18,2.36,2.36,2.35
32.57,-10.88,-13.26,-10.89,-13.26,13.26,13.27,18.90,2.38,2.38,2.38
32.89,-10.71,-13.11,-10.71,-13.11,13.11,13.09,18.57,2.40,2.40,2.40
33.22,-10.53,-12.95,-10.53,-12.95,12.95,12.92,18.20,2.42,2.42,2.42
33.55,-10.36,-12.80,-10.35,-12.79,12.79,12.75,17.81,2.43,2.43,2.44
33.89,-10.19,-12.64,-10.18,-12.63,12.63,12.57,17.39,2.44,2.45,2.45
34.23,-10.01,-12.48,-10.00,-12.46,12.46,12.40,16.96,2.45,2.46,2.47
34.57,-9.83,-12.31,-9.82,-12.30,12.30,12.22,16.52,2.47,2.48,2.48
34.92,-9.64,-12.13,-9.65,-12.14,12.14,12.04,16.07,2.49,2.49,2.49
35.27,-9.47,-11.98,-9.47,-11.97,11.97,11.86,15.63,2.50,2.50,2.51
35.62,-9.29,-11.79,-9.29,-11.80,11.80,11.68,15.19,2.51,2.51,2.50
35.97,-9.11,-11.62,-9.12,-11.63,11.63,11.50,14.75,2.52,2.51,2.51
36.33,-8.94,-11.47,-8.94,-11.46,11.46,11.32,14.32,2.52,2.52,2.53
36.70,-8.76,-11.28,-8.76,-11.28,11.28,11.14,13.89,2.52,2.52,2.52
37.06,-8.59,-11.11,-8.58,-11.11,11.11,10.96,13.47,2.52,2.52,2.52
37.43,-8.41,-10.93,-8.41,-10.93,10.93,10.78,13.06,2.52,2.52,2.52
37.81,-8.23,-10.75,-8.23,-10.75,10.75,10.59,12.65,2.52,2.52,2.52
38.19,-8.05,-10.57,-8.06,-10.57,10.57,10.41,12.26,2.52,2.52,2.52
38.57,-7.88,-10.40,-7.88,-10.40,10.40,10.22,11.86,2.52,2.51,2.52
38.95,-7.71,-10.23,-7.71,-10.22,10.22,10.03,11.48,2.51,2.51,2.52
39.34,-7.53,-10.03,-7.53,-10.04,10.04,9.84,11.10,2.51,2.51,2.50
39.74,-7.36,-9.86,-7.35,-9.86,9.86,9.65,10.73,2.50,2.50,2.50
40.14,-7.18,-9.67,-7.18,-9.67,9.67,9.46,10.37,2.49,2.50,2.49
40.54,-7.00,-9.49,-7.00,-9.49,9.49,9.27,10.01,2.49,2.49,2.49
40.94,-6.83,-9.31,-6.82,-9.30,9.30,9.08,9.66,2.48,2.48,2.48
41.35,-6.64,-9.12,-6.64,-9.12,9.12,8.89,9.31,2.48,2.48,2.48
41.76,-6.46,-8.93,-6.46,-8.93,8.93,8.69,8.97,2.47,2.47,2.47
42.18,-6.28,-8.74,-6.28,-8.74,8.74,8.49,8.63,2.46,2.46,2.46
42.60,-6.10,-8.55,-6.10,-8.55,8.55,8.30,8.29,2.45,2.45,2.45
43.03,-5.92,-8.37,-5.91,-8.35,8.35,8.10,7.96,2.43,2.44,2.45
43.46,-5.73,-8.17,-5.73,-8.16,8.16,7.90,7.63,2.43,2.43,2.44
43.90,-5.54,-7.96,-5.54,-7.96,7.96,7.70,7.31,2.42,2.42,2.42
44.33,-5.35,-7.75,-5.35,-7.76,7.76,7.49,6.99,2.41,2.41,2.40
44.78,-5.16,-7.55,-5.16,-7.56,7.56,7.29,6.67,2.40,2.40,2.39
45.23,-4.97,-7.35,-4.97,-7.35,7.35,7.09,6.35,2.38,2.39,2.38
45.68,-4.78,-7.15,-4.77,-7.14,7.14,6.88,6.04,2.36,2.38,2.37
46.13,-4.58,-6.94,-4.57,-6.94,6.94,6.67,5.73,2.36,2.36,2.36
46.60,-4.37,-6.73,-4.37,-6.73,6.73,6.46,5.42,2.35,2.35,2.36
47.06,-4.16,-6.51,-4.17,-6.51,6.51,6.25,5.11,2.35,2.35,2.35
47.53,-3.96,-6.30,-3.96,-6.30,6.30,6.04,4.81,2.34,2.34,2.34
48.01,-3.76,-6.10,-3.75,-6.08,6.08,5.82,4.50,2.32,2.33,2.34
48.49,-3.54,-5.87,-3.54,-5.86,5.86,5.61,4.20,2.32,2.32,2.33
48.97,-3.32,-5.64,-3.33,-5.65,5.65,5.39,3.90,2.33,2.32,2.32
49.46,-3.11,-5.41,-3.11,-5.42,5.42,5.17,3.60,2.32,2.31,2.30
49.96,-2.89,-5.18,-2.89,-5.20,5.20,4.95,3.31,2.31,2.31,2.29
50.46,-2.67,-4.97,-2.67,-4.97,4.97,4.73,3.01,2.30,2.30,2.30
50.96,-2.45,-4.75,-2.44,-4.74,4.74,4.50,2.72,2.29,2.30,2.30
51.47,-2.21,-4.50,-2.21,-4.50,4.50,4.28,2.43,2.29,2.30,2.29
51.99,-1.98,-4.27,-1.97,-4.26,4.26,4.05,2.15,2.28,2.29,2.29
52.51,-1.74,-4.03,-1.73,-4.02,4.02,3.82,1.86,2.28,2.29,2.29
53.03,-1.50,-3.79,-1.49,-3.77,3.77,3.60,1.59,2.27,2.28,2.29
53.56,-1.25,-3.54,-1.24,-3.52,3.52,3.36,1.31,2.27,2.28,2.29
54.10,-0.99,-3.27,-0.99,-3.26,3.26,3.13,1.04,2.27,2.27,2.28
54.64,-0.73,-3.00,-0.74,-3.00,3.00,2.90,0.78,2.27,2.26,2.27
55.18,-0.47,-2.73,-0.48,-2.74,2.74,2.66,0.52,2.27,2.26,2.26
55.74,-0.22,-2.46,-0.22,-2.47,2.47,2.42,0.27,2.25,2.25,2.24
56.29,0.04,-2.20,0.04,-2.20,2.20,2.19,0.02,2.24,2.23,2.24
56.86,0.29,-1.93,0.30,-1.92,1.92,1.95,-0.21,2.21,2.22,2.22
57.42,0.56,-1.64,0.56,-1.64,1.64,1.71,-0.44,2.21,2.21,2.20
58.00,0.82,-1.37,0.83,-1.36,1.36,1.47,-0.66,2.18,2.19,2.19
58.58,1.08,-1.09,1.09,-1.07,1.07,1.23,-0.86,2.15,2.17,2.17
59.16,1.35,-0.81,1.36,-0.79,0.79,0.98,-1.06,2.14,2.15,2.16
59.76,1.62,-0.52,1.62,-0.50,0.50,0.74,-1.24,2.12,2.12,2.14
60.35,1.89,-0.22,1.89,-0.21,0.21,0.50,-1.41,2.11,2.10,2.11
60.96,2.15,0.05,2.15,0.07,-0.07,0.26,-1.56,2.08,2.08,2.10
61.57,2.41,0.36,2.41,0.36,-0.36,0.02,-1.71,2.05,2.05,2.05
62.18,2.67,0.65,2.67,0.64,-0.64,-0.22,-1.84,2.03,2.03,2.02
62.80,2.92,0.91,2.92,0.92,-0.92,-0.46,-1.95,2.01,2.01,2.01
63.43,3.17,1.20,3.17,1.19,-1.19,-0.70,-2.05,1.98,1.98,1.97
64.07,3.41,1.46,3.42,1.45,-1.45,-0.93,-2.14,1.96,1.96,1.95
64.71,3.65,1.71,3.65,1.71,-1.71,-1.16,-2.21,1.94,1.95,1.94
65.35,3.88,1.96,3.88,1.95,-1.95,-1.39,-2.27,1.93,1.93,1.92
66.01,4.10,2.19,4.10,2.19,-2.19,-1.62,-2.32,1.91,1.91,1.91
66.67,4.31,2.41,4.31,2.41,-2.41,-1.84,-2.36,1.90,1.90,1.90
67.33,4.52,2.63,4.51,2.62,-2.62,-2.05,-2.38,1.90,1.89,1.89
68.01,4.71,2.83,4.70,2.82,-2.82,-2.26,-2.40,1.89,1.88,1.88
68.69,4.89,3.02,4.88,3.01,-3.01,-2.46,-2.41,1.88,1.87,1.87
69.37,5.05,3.18,5.04,3.18,-3.18,-2.66,-2.41,1.87,1.86,1.87
70.07,5.20,3.34,5.20,3.34,-3.34,-2.85,-2.40,1.86,1.86,1.86
70.77,5.34,3.48,5.34,3.49,-3.49,-3.02,-2.38,1.85,1.85,1.86
71.48,5.47,3.62,5.46,3.63,-3.63,-3.19,-2.37,1.84,1.84,1.85
72.19,5.58,3.75,5.58,3.75,-3.75,-3.35,-2.34,1.83,1.83,1.83
72.91,5.69,3.86,5.68,3.86,-3.86,-3.50,-2.32,1.83,1.82,1.83
73.64,5.77,3.96,5.77,3.96,-3.96,-3.64,-2.29,1.81,1.81,1.81
74.38,5.84,4.04,5.84,4.05,-4.05,-3.76,-2.25,1.79,1.79,1.80
75.12,5.91,4.13,5.91,4.13,-4.13,-3.88,-2.22,1.78,1.78,1.78
75.87,5.96,4.19,5.96,4.19,-4.19,-3.98,-2.18,1.77,1.77,1.77
76.63,6.00,4.24,6.00,4.24,-4.24,-4.07,-2.15,1.76,1.76,1.76
77.40,6.02,4.28,6.03,4.29,-4.29,-4.14,-2.11,1.73,1.74,1.74
78.17,6.04,4.32,6.05,4.32,-4.32,-4.21,-2.08,1.72,1.73,1.72
78.95,6.06,4.34,6.05,4.34,-4.34,-4.26,-2.05,1.73,1.72,1.72
79.74,6.06,4.35,6.05,4.34,-4.34,-4.29,-2.02,1.72,1.71,1.71
80.54,6.04,4.34,6.04,4.34,-4.34,-4.32,-1.98,1.70,1.70,1.70
81.35,6.02,4.33,6.02,4.32,-4.32,-4.33,-1.96,1.70,1.70,1.69
82.16,5.98,4.30,5.99,4.30,-4.30,-4.34,-1.93,1.68,1.69,1.68
82.98,5.95,4.26,5.95,4.26,-4.26,-4.33,-1.90,1.69,1.69,1.69
83.81,5.90,4.22,5.90,4.22,-4.22,-4.31,-1.88,1.68,1.68,1.68
84.65,5.84,4.17,5.84,4.16,-4.16,-4.29,-1.86,1.68,1.68,1.67
85.50,5.78,4.10,5.78,4.10,-4.10,-4.25,-1.84,1.68,1.68,1.68
86.35,5.71,4.03,5.70,4.03,-4.03,-4.21,-1.83,1.68,1.67,1.68
87.22,5.64,3.97,5.62,3.95,-3.95,-4.16,-1.82,1.69,1.67,1.67
88.09,5.54,3.87,5.53,3.87,-3.87,-4.11,-1.81,1.67,1.66,1.67
88.97,5.44,3.78,5.44,3.79,-3.79,-4.05,-1.80,1.65,1.65,1.66
89.86,5.35,3.70,5.34,3.70,-3.70,-3.98,-1.79,1.65,1.64,1.65
90.76,5.23,3.60,5.24,3.61,-3.61,-3.91,-1.79,1.62,1.63,1.63
91.66,5.11,3.50,5.13,3.53,-3.53,-3.84,-1.79,1.58,1.60,1.61
92.58,5.00,3.42,5.01,3.43,-3.43,-3.76,-1.80,1.57,1.58,1.58
93.51,4.89,3.33,4.89,3.34,-3.34,-3.68,-1.80,1.55,1.55,1.56
94.44,4.78,3.25,4.77,3.26,-3.26,-3.60,-1.81,1.52,1.52,1.53
95.39,4.66,3.17,4.65,3.17,-3.17,-3.52,-1.82,1.49,1.48,1.49
96.34,4.55,3.10,4.53,3.10,-3.10,-3.43,-1.84,1.45,1.43,1.45
97.30,4.42,3.03,4.41,3.02,-3.02,-3.35,-1.85,1.40,1.39,1.39
98.28,4.28,2.94,4.29,2.96,-2.96,-3.26,-1.87,1.33,1.34,1.34
99.26,4.15,2.86,4.17,2.89,-2.89,-3.18,-1.89,1.26,1.29,1.29
100.25,4.02,2.79,4.05,2.82,-2.82,-3.09,-1.91,1.20,1.23,1.23
101.25,3.89,2.72,3.93,2.76,-2.76,-3.00,-1.93,1.13,1.17,1.17
102.27,3.77,2.66,3.81,2.69,-2.69,-2.92,-1.96,1.08,1.11,1.11
103.29,3.71,2.66,3.68,2.63,-2.63,-2.84,-1.98,1.08,1.05,1.05
104.32,3.62,2.62,3.56,2.56,-2.56,-2.75,-2.01,1.06,0.99,1.00
105.37,3.48,2.55,3.43,2.50,-2.50,-2.67,-2.03,0.98,0.93,0.93
106.42,3.34,2.47,3.31,2.44,-2.44,-2.59,-2.06,0.90,0.88,0.87
107.48,3.20,2.38,3.19,2.38,-2.38,-2.51,-2.09,0.82,0.82,0.82
108.56,3.07,2.31,3.08,2.32,-2.32,-2.43,-2.12,0.75,0.76,0.76
109.64,2.94,2.24,2.96,2.26,-2.26,-2.35,-2.14,0.68,0.70,0.70
110.74,2.83,2.18,2.85,2.20,-2.20,-2.28,-2.17,0.63,0.65,0.65
111.85,2.71,2.10,2.74,2.14,-2.14,-2.20,-2.20,0.57,0.60,0.61
112.97,2.59,2.05,2.63,2.09,-2.09,-2.13,-2.22,0.50,0.55,0.54
114.10,2.49,1.99,2.53,2.03,-2.03,-2.06,-2.24,0.46,0.50,0.50
115.24,2.41,1.96,2.42,1.97,-1.97,-1.99,-2.26,0.44,0.45,0.45
116.39,2.36,1.96,2.33,1.92,-1.92,-1.92,-2.28,0.44,0.41,0.40
117.55,2.27,1.91,2.24,1.87,-1.87,-1.85,-2.30,0.40,0.37,0.36
118.73,2.16,1.84,2.15,1.82,-1.82,-1.79,-2.31,0.34,0.33,0.32
119.92,2.05,1.76,2.06,1.77,-1.77,-1.72,-2.32,0.28,0.29,0.29
121.12,1.96,1.70,1.98,1.72,-1.72,-1.66,-2.33,0.24,0.26,0.26
122.33,1.91,1.68,1.90,1.67,-1.67,-1.60,-2.33,0.24,0.23,0.23
123.55,1.83,1.63,1.81,1.62,-1.62,-1.54,-2.33,0.21,0.20,0.20
124.79,1.73,1.56,1.73,1.57,-1.57,-1.48,-2.33,0.16,0.17,0.17
126.03,1.64,1.49,1.65,1.51,-1.51,-1.43,-2.32,0.13,0.14,0.15
127.29,1.58,1.46,1.57,1.46,-1.46,-1.37,-2.31,0.12,0.11,0.12
128.57,1.50,1.42,1.49,1.41,-1.41,-1.32,-2.30,0.10,0.08,0.08
129.85,1.41,1.35,1.41,1.35,-1.35,-1.27,-2.28,0.06,0.05,0.06
131.15,1.31,1.28,1.33,1.31,-1.31,-1.22,-2.26,0.01,0.03,0.03
132.46,1.27,1.28,1.26,1.26,-1.26,-1.17,-2.24,0.01,-0.00,-0.01
133.79,1.19,1.22,1.18,1.22,-1.22,-1.12,-2.21,-0.03,-0.03,-0.03
135.12,1.10,1.16,1.11,1.18,-1.18,-1.08,-2.18,-0.08,-0.07,-0.06
136.48,1.04,1.13,1.04,1.13,-1.13,-1.03,-2.15,-0.09,-0.10,-0.09
137.84,0.95,1.07,0.97,1.10,-1.10,-0.99,-2.11,-0.15,-0.13,-0.12
139.22,0.90,1.07,0.90,1.06,-1.06,-0.95,-2.08,-0.16,-0.16,-0.17
140.61,0.85,1.05,0.84,1.03,-1.03,-0.91,-2.04,-0.18,-0.20,-0.20
142.02,0.76,0.98,0.77,1.00,-1.00,-0.87,-2.00,-0.24,-0.23,-0.22
143.44,0.72,0.98,0.71,0.98,-0.98,-0.83,-1.95,-0.26,-0.26,-0.26
144.87,0.65,0.95,0.66,0.95,-0.95,-0.80,-1.91,-0.30,-0.30,-0.30
146.32,0.60,0.94,0.60,0.93,-0.93,-0.76,-1.87,-0.33,-0.33,-0.34
147.78,0.53,0.90,0.54,0.91,-0.91,-0.73,-1.82,-0.38,-0.37,-0.37
149.26,0.48,0.88,0.49,0.90,-0.90,-0.69,-1.78,-0.42,-0.41,-0.40
150.75,0.43,0.88,0.43,0.88,-0.88,-0.66,-1.73,-0.45,-0.45,-0.45
152.26,0.39,0.88,0.38,0.87,-0.87,-0.63,-1.68,-0.48,-0.49,-0.49
153.78,0.34,0.86,0.33,0.86,-0.86,-0.60,-1.64,-0.52,-0.53,-0.52
155.32,0.29,0.86,0.28,0.85,-0.85,-0.57,-1.59,-0.56,-0.57,-0.57
156.88,0.23,0.83,0.23,0.84,-0.84,-0.54,-1.55,-0.61,-0.62,-0.60
158.44,0.18,0.84,0.18,0.84,-0.84,-0.51,-1.50,-0.66,-0.66,-0.66
160.03,0.11,0.81,0.13,0.84,-0.84,-0.49,-1.46,-0.72,-0.70,-0.70
161.63,0.08,0.83,0.09,0.83,-0.83,-0.46,-1.41,-0.75,-0.74,-0.75
163.24,0.05,0.84,0.04,0.83,-0.83,-0.44,-1.37,-0.78,-0.79,-0.79
164.88,-0.01,0.82,-0.00,0.83,-0.83,-0.41,-1.33,-0.84,-0.83,-0.83
166.53,-0.05,0.82,-0.05,0.82,-0.82,-0.39,-1.29,-0.87,-0.87,-0.87
168.19,-0.08,0.83,-0.09,0.82,-0.82,-0.37,-1.25,-0.90,-0.91,-0.91
169.87,-0.13,0.82,-0.14,0.82,-0.82,-0.35,-1.21,-0.94,-0.95,-0.95
171.57,-0.16,0.82,-0.18,0.81,-0.81,-0.33,-1.17,-0.97,-0.99,-0.98
173.29,-0.20,0.82,-0.21,0.81,-0.81,-0.31,-1.13,-1.01,-1.02,-1.02
175.02,-0.26,0.80,-0.25,0.81,-0.81,-0.29,-1.10,-1.07,-1.06,-1.06
176.77,-0.30,0.79,-0.28,0.80,-0.80,-0.27,-1.06,-1.10,-1.09,-1.09
178.54,-0.33,0.79,-0.32,0.80,-0.80,-0.25,-1.03,-1.13,-1.12,-1.12
180.32,-0.36,0.79,-0.35,0.79,-0.79,-0.24,-0.99,-1.15,-1.14,-1.15
182.13,-0.39,0.78,-0.38,0.79,-0.79,-0.22,-0.96,-1.18,-1.17,-1.17
183.95,-0.42,0.77,-0.40,0.78,-0.78,-0.20,-0.93,-1.20,-1.19,-1.19
185.79,-0.44,0.77,-0.43,0.78,-0.78,-0.19,-0.90,-1.22,-1.21,-1.21
187.65,-0.45,0.78,-0.45,0.78,-0.78,-0.17,-0.87,-1.23,-1.23,-1.23
189.52,-0.47,0.77,-0.48,0.77,-0.77,-0.16,-0.84,-1.24,-1.25,-1.24
191.42,-0.49,0.77,-0.50,0.76,-0.76,-0.15,-0.82,-1.25,-1.26,-1.26
193.33,-0.52,0.75,-0.52,0.76,-0.76,-0.13,-0.79,-1.27,-1.28,-1.27
195.27,-0.54,0.74,-0.54,0.75,-0.75,-0.12,-0.77,-1.28,-1.29,-1.28
197.22,-0.56,0.74,-0.57,0.73,-0.73,-0.11,-0.74,-1.29,-1.30,-1.30
199.19,-0.58,0.74,-0.60,0.72,-0.72,-0.10,-0.72,-1.30,-1.31,-1.32
201.18,-0.60,0.73,-0.62,0.70,-0.70,-0.09,-0.70,-1.30,-1.33,-1.33
203.19,-0.63,0.70,-0.65,0.69,-0.69,-0.08,-0.67,-1.32,-1.34,-1.33
205.23,-0.67,0.68,-0.67,0.68,-0.68,-0.07,-0.65,-1.35,-1.35,-1.35
207.28,-0.71,0.64,-0.70,0.66,-0.66,-0.06,-0.63,-1.37,-1.36,-1.35
209.35,-0.74,0.63,-0.72,0.65,-0.65,-0.05,-0.61,-1.39,-1.37,-1.37
211.44,-0.77,0.62,-0.75,0.64,-0.64,-0.04,-0.59,-1.41,-1.39,-1.39
213.56,-0.80,0.60,-0.77,0.63,-0.63,-0.03,-0.57,-1.43,-1.40,-1.40
215.69,-0.81,0.59,-0.79,0.62,-0.62,-0.02,-0.56,-1.43,-1.41,-1.40
217.85,-0.82,0.60,-0.81,0.61,-0.61,-0.01,-0.54,-1.43,-1.42,-1.42
220.03,-0.83,0.60,-0.83,0.60,-0.60,-0.00,-0.52,-1.43,-1.43,-1.43
222.23,-0.84,0.61,-0.85,0.60,-0.60,0.00,-0.50,-1.44,-1.44,-1.45
224.45,-0.85,0.60,-0.87,0.59,-0.59,0.01,-0.49,-1.44,-1.46,-1.45
226.70,-0.86,0.61,-0.89,0.58,-0.58,0.02,-0.47,-1.44,-1.47,-1.47
228.96,-0.89,0.59,-0.91,0.58,-0.58,0.02,-0.45,-1.47,-1.49,-1.48
231.25,-0.91,0.58,-0.93,0.57,-0.57,0.03,-0.44,-1.48,-1.50,-1.49
233.57,-0.94,0.57,-0.96,0.56,-0.56,0.04,-0.42,-1.50,-1.52,-1.51
235.90,-0.98,0.54,-0.98,0.55,-0.55,0.04,-0.41,-1.53,-1.53,-1.52
238.26,-1.01,0.53,-1.00,0.54,-0.54,0.05,-0.39,-1.55,-1.54,-1.54
240.64,-1.04,0.52,-1.03,0.53,-0.53,0.05,-0.37,-1.57,-1.56,-1.56
243.05,-1.07,0.50,-1.05,0.52,-0.52,0.06,-0.36,-1.59,-1.57,-1.57
245.48,-1.10,0.48,-1.07,0.50,-0.50,0.06,-0.34,-1.60,-1.58,-1.58
247.93,-1.12,0.47,-1.10,0.49,-0.49,0.07,-0.33,-1.61,-1.58,-1.59
250.41,-1.13,0.47,-1.12,0.47,-0.47,0.07,-0.31,-1.60,-1.59,-1.60
252.92,-1.15,0.44,-1.14,0.45,-0.45,0.08,-0.29,-1.60,-1.59,-1.59
255.45,-1.16,0.43,-1.16,0.43,-0.43,0.08,-0.28,-1.59,-1.59,-1.59
258.00,-1.17,0.41,-1.18,0.40,-0.40,0.08,-0.26,-1.57,-1.58,-1.58
260.58,-1.18,0.40,-1.20,0.38,-0.38,0.09,-0.24,-1.56,-1.58,-1.58
263.19,-1.19,0.38,-1.22,0.35,-0.35,0.09,-0.22,-1.54,-1.57,-1.57
265.82,-1.23,0.33,-1.24,0.31,-0.31,0.10,-0.21,-1.54,-1.56,-1.56
268.48,-1.25,0.29,-1.27,0.27,-0.27,0.10,-0.19,-1.52,-1.54,-1.54
271.16,-1.28,0.24,-1.30,0.23,-0.23,0.10,-0.17,-1.51,-1.53,-1.52
273.87,-1.33,0.18,-1.33,0.18,-0.18,0.11,-0.15,-1.51,-1.51,-1.51
276.61,-1.36,0.12,-1.36,0.14,-0.14,0.11,-0.13,-1.50,-1.50,-1.48
279.38,-1.39,0.09,-1.39,0.09,-0.09,0.11,-0.12,-1.48,-1.48,-1.48
282.17,-1.41,0.05,-1.42,0.05,-0.05,0.11,-0.10,-1.46,-1.47,-1.46
284.99,-1.44,0.01,-1.44,0.01,-0.01,0.12,-0.08,-1.45,-1.45,-1.45
287.84,-1.48,-0.05,-1.46,-0.03,0.03,0.12,-0.06,-1.45,-1.43,-1.43
290.72,-1.50,-0.09,-1.47,-0.06,0.06,0.12,-0.04,-1.44,-1.41,-1.41
293.63,-1.52,-0.12,-1.48,-0.09,0.09,0.13,-0.02,-1.43,-1.40,-1.40
296.57,-1.52,-0.15,-1.48,-0.11,0.11,0.13,0.00,-1.41,-1.38,-1.37
299.53,-1.50,-0.14,-1.48,-0.12,0.12,0.13,0.02,-1.38,-1.36,-1.36
302.53,-1.47,-0.12,-1.46,-0.13,0.13,0.13,0.04,-1.34,-1.34,-1.35
305.55,-1.44,-0.12,-1.44,-0.13,0.13,0.14,0.06,-1.31,-1.32,-1.32
308.61,-1.42,-0.12,-1.42,-0.13,0.13,0.14,0.09,-1.29,-1.30,-1.30
311.69,-1.39,-0.12,-1.39,-0.12,0.12,0.14,0.11,-1.27,-1.27,-1.27
314.81,-1.36,-0.13,-1.36,-0.11,0.11,0.15,0.13,-1.25,-1.25,-1.23
317.96,-1.33,-0.11,-1.33,-0.10,0.10,0.15,0.15,-1.23,-1.23,-1.22
321.14,-1.30,-0.10,-1.29,-0.09,0.09,0.15,0.17,-1.21,-1.21,-1.20
324.35,-1.26,-0.08,-1.26,-0.08,0.08,0.15,0.20,-1.18,-1.18,-1.18
327.59,-1.22,-0.06,-1.23,-0.08,0.08,0.16,0.22,-1.14,-1.16,-1.16
330.87,-1.20,-0.06,-1.21,-0.07,0.07,0.16,0.24,-1.13,-1.14,-1.14
334.18,-1.18,-0.07,-1.19,-0.08,0.08,0.16,0.27,-1.10,-1.11,-1.11
337.52,-1.15,-0.06,-1.17,-0.09,0.09,0.17,0.29,-1.06,-1.09,-1.09
340.90,-1.14,-0.07,-1.16,-0.10,0.10,0.17,0.31,-1.04,-1.07,-1.07
344.30,-1.13,-0.09,-1.15,-0.11,0.11,0.17,0.34,-1.02,-1.04,-1.04
347.75,-1.13,-0.11,-1.14,-0.12,0.12,0.18,0.36,-1.01,-1.02,-1.02
351.23,-1.14,-0.15,-1.13,-0.14,0.14,0.18,0.39,-1.00,-0.99,-0.99
354.74,-1.14,-0.18,-1.13,-0.16,0.16,0.18,0.41,-0.98,-0.97,-0.96
358.28,-1.15,-0.20,-1.13,-0.18,0.18,0.19,0.44,-0.97,-0.95,-0.95
361.87,-1.15,-0.23,-1.13,-0.21,0.21,0.19,0.47,-0.94,-0.92,-0.92
365.49,-1.15,-0.26,-1.13,-0.23,0.23,0.20,0.49,-0.92,-0.90,-0.89
369.14,-1.15,-0.27,-1.13,-0.25,0.25,0.20,0.52,-0.90,-0.87,-0.88
372.83,-1.14,-0.29,-1.13,-0.28,0.28,0.21,0.55,-0.86,-0.85,-0.85
376.56,-1.13,-0.30,-1.13,-0.31,0.31,0.21,0.57,-0.82,-0.83,-0.83
380.33,-1.13,-0.33,-1.14,-0.33,0.33,0.22,0.60,-0.80,-0.81,-0.80
384.13,-1.13,-0.34,-1.15,-0.36,0.36,0.22,0.63,-0.77,-0.79,-0.79
387.97,-1.14,-0.37,-1.16,-0.39,0.39,0.23,0.66,-0.75,-0.77,-0.77
391.85,-1.15,-0.39,-1.17,-0.41,0.41,0.23,0.68,-0.73,-0.76,-0.76
395.77,-1.17,-0.44,-1.19,-0.45,0.45,0.24,0.71,-0.72,-0.74,-0.73
399.73,-1.20,-0.48,-1.21,-0.48,0.48,0.25,0.74,-0.72,-0.73,-0.72
403.72,-1.23,-0.51,-1.24,-0.51,0.51,0.26,0.77,-0.72,-0.72,-0.72
407.76,-1.26,-0.55,-1.26,-0.55,0.55,0.26,0.80,-0.71,-0.72,-0.71
411.84,-1.29,-0.59,-1.29,-0.58,0.58,0.27,0.82,-0.71,-0.71,-0.70
415.96,-1.33,-0.62,-1.33,-0.62,0.62,0.28,0.85,-0.71,-0.71,-0.71
420.12,-1.36,-0.65,-1.36,-0.65,0.65,0.29,0.88,-0.71,-0.71,-0.71
424.32,-1.39,-0.68,-1.39,-0.67,0.67,0.30,0.90,-0.71,-0.71,-0.71
428.56,-1.42,-0.71,-1.41,-0.70,0.70,0.31,0.93,-0.72,-0.71,-0.71
432.85,-1.45,-0.73,-1.43,-0.72,0.72,0.32,0.96,-0.73,-0.71,-0.72
437.18,-1.48,-0.76,-1.45,-0.73,0.73,0.33,0.98,-0.75,-0.72,-0.72
441.55,-1.49,-0.77,-1.47,-0.74,0.74,0.35,1.00,-0.75,-0.72,-0.72
445.96,-1.50,-0.77,-1.48,-0.75,0.75,0.36,1.02,-0.75,-0.73,-0.73
450.42,-1.50,-0.77,-1.48,-0.75,0.75,0.37,1.04,-0.74,-0.73,-0.73
454.93,-1.49,-0.76,-1.49,-0.76,0.76,0.39,1.06,-0.73,-0.73,-0.73
459.48,-1.48,-0.74,-1.49,-0.75,0.75,0.40,1.08,-0.72,-0.73,-0.74
