frequency,raw,error,smoothed,error_smoothed,equalization,parametric_eq,fixed_band_eq,equalized_raw,equalized_smoothed,target
20.00,-0.76,-3.40,-0.76,-3.41,3.38,3.82,0.83,2.62,2.61,2.65
20.20,-0.70,-3.39,-0.70,-3.39,3.38,3.79,0.86,2.68,2.69,2.70
20.40,-0.64,-3.38,-0.63,-3.38,3.38,3.76,0.88,2.75,2.75,2.75
20.61,-0.58,-3.35,-0.58,-3.36,3.38,3.72,0.91,2.80,2.80,2.77
20.81,-0.52,-3.34,-0.52,-3.34,3.37,3.69,0.94,2.85,2.85,2.83
21.02,-0.46,-3.32,-0.47,-3.33,3.35,3.65,0.96,2.90,2.89,2.87
21.23,-0.43,-3.31,-0.43,-3.32,3.33,3.60,0.99,2.91,2.91,2.89
21.44,-0.40,-3.30,-0.40,-3.30,3.31,3.56,1.02,2.91,2.91,2.91
21.66,-0.37,-3.29,-0.37,-3.29,3.28,3.52,1.05,2.91,2.91,2.93
21.87,-0.34,-3.27,-0.33,-3.27,3.25,3.47,1.08,2.91,2.91,2.94
22.09,-0.29,-3.24,-0.28,-3.24,3.20,3.42,1.12,2.92,2.92,2.96
22.31,-0.22,-3.18,-0.22,-3.18,3.16,3.37,1.15,2.94,2.94,2.97
22.54,-0.14,-3.11,-0.14,-3.10,3.11,3.32,1.18,2.97,2.97,2.97
22.76,-0.07,-3.03,-0.06,-3.03,3.06,3.27,1.22,2.99,2.99,2.97
22.99,0.01,-2.94,-0.01,-2.96,3.01,3.22,1.25,3.02,3.00,2.96
23.22,0.03,-2.92,0.04,-2.92,2.96,3.17,1.29,2.99,2.99,2.96
23.45,0.06,-2.89,0.06,-2.90,2.91,3.12,1.32,2.97,2.97,2.96
23.69,0.09,-2.87,0.08,-2.88,2.86,3.06,1.36,2.95,2.94,2.97
23.92,0.11,-2.85,0.13,-2.84,2.81,3.01,1.40,2.92,2.94,2.97
24.16,0.18,-2.78,0.18,-2.79,2.75,2.95,1.44,2.94,2.94,2.97
24.40,0.26,-2.71,0.26,-2.71,2.69,2.90,1.48,2.95,2.95,2.98
24.65,0.34,-2.62,0.34,-2.63,2.62,2.85,1.52,2.96,2.96,2.97
24.89,0.42,-2.54,0.42,-2.54,2.53,2.79,1.56,2.96,2.96,2.97
25.14,0.51,-2.45,0.51,-2.46,2.45,2.74,1.60,2.96,2.96,2.97
25.39,0.59,-2.38,0.60,-2.37,2.38,2.68,1.64,2.97,2.98,2.98
25.65,0.68,-2.29,0.69,-2.29,2.32,2.63,1.68,3.00,3.01,2.98
25.91,0.76,-2.21,0.74,-2.23,2.28,2.58,1.72,3.04,3.03,2.97
26.16,0.77,-2.19,0.77,-2.20,2.25,2.52,1.75,3.03,3.02,2.97
26.43,0.75,-2.21,0.75,-2.22,2.23,2.47,1.79,2.99,2.98,2.97
26.69,0.72,-2.24,0.72,-2.25,2.22,2.42,1.83,2.94,2.94,2.97
26.96,0.69,-2.27,0.71,-2.25,2.20,2.37,1.87,2.89,2.91,2.97
27.23,0.74,-2.22,0.74,-2.22,2.18,2.32,1.90,2.92,2.92,2.97
27.50,0.80,-2.16,0.79,-2.17,2.14,2.27,1.94,2.94,2.93,2.97
27.77,0.86,-2.09,0.86,-2.10,2.09,2.22,1.97,2.96,2.95,2.96
28.05,0.92,-2.03,0.93,-2.02,2.03,2.17,2.00,2.95,2.96,2.96
28.33,1.00,-1.94,1.00,-1.95,1.95,2.12,2.03,2.95,2.95,2.95
28.62,1.08,-1.87,1.08,-1.87,1.86,2.07,2.05,2.94,2.94,2.95
28.90,1.16,-1.79,1.16,-1.79,1.79,2.02,2.08,2.95,2.95,2.96
29.19,1.23,-1.71,1.23,-1.72,1.73,1.98,2.10,2.96,2.96,2.95
29.48,1.30,-1.65,1.31,-1.64,1.68,1.93,2.11,2.98,2.99,2.96
29.78,1.36,-1.58,1.36,-1.59,1.65,1.89,2.13,3.01,3.01,2.95
30.08,1.40,-1.55,1.38,-1.57,1.62,1.84,2.14,3.02,3.00,2.96
30.38,1.36,-1.58,1.36,-1.59,1.59,1.80,2.15,2.95,2.95,2.95
30.68,1.33,-1.61,1.33,-1.62,1.56,1.76,2.15,2.90,2.89,2.95
30.99,1.29,-1.65,1.33,-1.61,1.53,1.72,2.15,2.83,2.86,2.95
31.30,1.38,-1.56,1.38,-1.56,1.50,1.67,2.15,2.88,2.88,2.94
31.61,1.47,-1.46,1.47,-1.47,1.47,1.63,2.14,2.94,2.93,2.94
31.93,1.57,-1.37,1.55,-1.38,1.43,1.59,2.13,3.00,2.98,2.94
32.24,1.60,-1.32,1.60,-1.33,1.38,1.56,2.12,2.98,2.98,2.93
32.57,1.62,-1.30,1.63,-1.30,1.32,1.52,2.10,2.94,2.95,2.93
32.89,1.64,-1.28,1.65,-1.28,1.27,1.48,2.08,2.91,2.92,2.93
33.22,1.67,-1.24,1.67,-1.24,1.23,1.44,2.05,2.90,2.90,2.92
33.55,1.71,-1.20,1.71,-1.21,1.19,1.41,2.02,2.91,2.90,2.92
33.89,1.74,-1.16,1.74,-1.17,1.16,1.37,1.99,2.90,2.90,2.91
34.23,1.77,-1.13,1.77,-1.13,1.13,1.34,1.96,2.90,2.90,2.91
34.57,1.81,-1.08,1.81,-1.09,1.09,1.30,1.93,2.90,2.89,2.90
34.92,1.84,-1.05,1.84,-1.05,1.04,1.27,1.89,2.89,2.89,2.90
35.27,1.88,-1.00,1.88,-1.01,1.00,1.24,1.85,2.88,2.88,2.89
35.62,1.92,-0.96,1.92,-0.97,0.96,1.20,1.81,2.88,2.88,2.89
35.97,1.96,-0.92,1.96,-0.93,0.92,1.17,1.76,2.89,2.88,2.89
36.33,1.99,-0.89,2.00,-0.89,0.89,1.14,1.72,2.89,2.89,2.89
36.70,2.02,-0.85,2.02,-0.86,0.87,1.11,1.67,2.90,2.90,2.88
37.06,2.05,-0.82,2.04,-0.84,0.86,1.08,1.63,2.91,2.90,2.88
37.43,2.05,-0.83,2.05,-0.83,0.85,1.05,1.58,2.90,2.90,2.89
37.81,2.05,-0.83,2.05,-0.83,0.84,1.02,1.53,2.89,2.89,2.89
38.19,2.05,-0.82,2.04,-0.84,0.82,0.99,1.48,2.87,2.86,2.88
38.57,2.04,-0.84,2.04,-0.84,0.80,0.97,1.44,2.84,2.84,2.89
38.95,2.04,-0.85,2.07,-0.82,0.77,0.94,1.39,2.81,2.84,2.90
39.34,2.12,-0.76,2.12,-0.77,0.75,0.91,1.34,2.87,2.87,2.89
39.74,2.20,-0.68,2.19,-0.70,0.72,0.88,1.29,2.92,2.91,2.89
40.14,2.26,-0.62,2.25,-0.64,0.69,0.86,1.24,2.95,2.94,2.89
40.54,2.26,-0.62,2.27,-0.62,0.66,0.83,1.20,2.92,2.93,2.89
40.94,2.26,-0.61,2.26,-0.62,0.63,0.81,1.15,2.89,2.89,2.88
41.35,2.25,-0.62,2.25,-0.63,0.60,0.78,1.10,2.85,2.85,2.88
41.76,2.24,-0.62,2.25,-0.62,0.58,0.76,1.06,2.82,2.83,2.87
42.18,2.26,-0.60,2.27,-0.59,0.56,0.73,1.01,2.82,2.83,2.87
42.60,2.31,-0.54,2.31,-0.55,0.54,0.71,0.97,2.85,2.85,2.86
43.03,2.36,-0.48,2.34,-0.50,0.52,0.68,0.92,2.88,2.86,2.85
43.46,2.36,-0.47,2.36,-0.47,0.49,0.66,0.88,2.85,2.85,2.84
43.90,2.36,-0.45,2.37,-0.45,0.46,0.64,0.84,2.82,2.83,2.82
44.33,2.36,-0.43,2.36,-0.43,0.44,0.61,0.79,2.80,2.80,2.80
44.78,2.36,-0.41,2.36,-0.42,0.42,0.59,0.75,2.78,2.78,2.78
45.23,2.36,-0.40,2.36,-0.40,0.40,0.57,0.71,2.76,2.76,2.77
45.68,2.36,-0.39,2.36,-0.39,0.39,0.55,0.67,2.75,2.75,2.76
46.13,2.36,-0.37,2.36,-0.38,0.38,0.52,0.63,2.74,2.74,2.74
46.60,2.36,-0.37,2.36,-0.37,0.37,0.50,0.59,2.73,2.73,2.74
47.06,2.36,-0.35,2.36,-0.36,0.35,0.48,0.55,2.71,2.71,2.72
47.53,2.36,-0.34,2.36,-0.35,0.34,0.46,0.52,2.70,2.70,2.71
48.01,2.36,-0.34,2.36,-0.33,0.34,0.44,0.48,2.70,2.70,2.71
48.49,2.36,-0.32,2.36,-0.32,0.33,0.42,0.44,2.69,2.69,2.69
48.97,2.36,-0.30,2.36,-0.31,0.33,0.39,0.41,2.69,2.68,2.67
49.46,2.34,-0.30,2.34,-0.30,0.32,0.37,0.37,2.66,2.66,2.65
49.96,2.32,-0.30,2.31,-0.32,0.31,0.35,0.34,2.63,2.62,2.63
50.46,2.29,-0.32,2.29,-0.33,0.29,0.33,0.30,2.58,2.58,2.62
50.96,2.26,-0.34,2.29,-0.31,0.28,0.31,0.27,2.54,2.57,2.61
51.47,2.31,-0.27,2.31,-0.28,0.27,0.29,0.24,2.58,2.58,2.59
51.99,2.36,-0.21,2.34,-0.24,0.26,0.26,0.20,2.62,2.60,2.58
52.51,2.35,-0.21,2.36,-0.21,0.25,0.24,0.17,2.61,2.61,2.57
53.03,2.35,-0.21,2.34,-0.22,0.25,0.22,0.14,2.60,2.59,2.57
53.56,2.30,-0.24,2.30,-0.24,0.24,0.20,0.11,2.54,2.55,2.55
54.10,2.26,-0.27,2.28,-0.26,0.24,0.17,0.07,2.50,2.51,2.54
54.64,2.26,-0.25,2.26,-0.26,0.23,0.15,0.04,2.49,2.49,2.52
55.18,2.26,-0.25,2.26,-0.25,0.23,0.13,0.01,2.49,2.49,2.52
55.74,2.27,-0.22,2.27,-0.23,0.23,0.10,-0.02,2.50,2.50,2.50
56.29,2.27,-0.21,2.27,-0.22,0.23,0.08,-0.05,2.50,2.50,2.49
56.86,2.26,-0.21,2.27,-0.20,0.22,0.06,-0.08,2.48,2.49,2.48
57.42,2.26,-0.18,2.26,-0.19,0.21,0.03,-0.11,2.47,2.47,2.45
58.00,2.26,-0.17,2.24,-0.19,0.20,0.00,-0.14,2.46,2.44,2.44
58.58,2.22,-0.20,2.23,-0.19,0.17,-0.02,-0.17,2.40,2.40,2.43
59.16,2.20,-0.20,2.22,-0.18,0.15,-0.05,-0.19,2.35,2.37,2.41
59.76,2.24,-0.14,2.23,-0.15,0.12,-0.08,-0.22,2.36,2.36,2.39
60.35,2.26,-0.08,2.25,-0.10,0.09,-0.11,-0.25,2.36,2.35,2.35
60.96,2.26,-0.04,2.27,-0.04,0.06,-0.14,-0.28,2.33,2.33,2.31
61.57,2.26,-0.00,2.27,0.00,0.03,-0.17,-0.31,2.29,2.30,2.27
62.18,2.26,0.04,2.26,0.04,-0.01,-0.20,-0.34,2.25,2.25,2.23
62.80,2.25,0.08,2.23,0.05,-0.06,-0.24,-0.36,2.20,2.18,2.18
63.43,2.21,0.08,2.21,0.08,-0.10,-0.27,-0.39,2.11,2.11,2.14
64.07,2.16,0.08,2.20,0.12,-0.14,-0.31,-0.42,2.02,2.06,2.09
64.71,2.23,0.19,2.22,0.17,-0.18,-0.35,-0.45,2.05,2.03,2.05
65.35,2.26,0.26,2.24,0.24,-0.23,-0.39,-0.48,2.03,2.01,2.01
66.01,2.26,0.31,2.27,0.31,-0.28,-0.43,-0.51,1.98,1.98,1.96
66.67,2.26,0.36,2.26,0.35,-0.35,-0.48,-0.53,1.92,1.91,1.91
67.33,2.26,0.41,2.26,0.40,-0.41,-0.53,-0.56,1.85,1.85,1.86
68.01,2.26,0.45,2.29,0.48,-0.49,-0.58,-0.59,1.77,1.80,1.82
68.69,2.34,0.58,2.32,0.55,-0.57,-0.63,-0.62,1.77,1.75,1.77
69.37,2.37,0.66,2.36,0.64,-0.65,-0.69,-0.65,1.72,1.71,1.72
70.07,2.37,0.71,2.41,0.74,-0.75,-0.75,-0.68,1.63,1.67,1.67
70.77,2.47,0.86,2.44,0.82,-0.84,-0.81,-0.71,1.63,1.60,1.62
71.48,2.49,0.93,2.49,0.93,-0.94,-0.87,-0.74,1.55,1.55,1.57
72.19,2.50,1.01,2.55,1.05,-1.03,-0.94,-0.77,1.47,1.52,1.50
72.91,2.61,1.18,2.58,1.14,-1.11,-1.01,-0.81,1.50,1.47,1.44
73.64,2.62,1.24,2.61,1.22,-1.18,-1.08,-0.84,1.44,1.42,1.39
74.38,2.60,1.28,2.60,1.28,-1.25,-1.15,-0.87,1.35,1.35,1.33
75.12,2.56,1.30,2.58,1.31,-1.32,-1.22,-0.91,1.24,1.26,1.27
75.87,2.56,1.36,2.56,1.35,-1.39,-1.29,-0.94,1.17,1.17,1.21
76.63,2.56,1.41,2.55,1.40,-1.46,-1.36,-0.98,1.11,1.09,1.16
77.40,2.56,1.46,2.57,1.47,-1.51,-1.42,-1.01,1.05,1.06,1.11
78.17,2.58,1.54,2.62,1.56,-1.56,-1.48,-1.05,1.02,1.05,1.05
78.95,2.68,1.68,2.66,1.66,-1.61,-1.53,-1.09,1.07,1.05,1.01
79.74,2.70,1.75,2.67,1.71,-1.65,-1.57,-1.13,1.05,1.02,0.96
80.54,2.63,1.73,2.63,1.72,-1.69,-1.60,-1.17,0.95,0.94,0.91
81.35,2.53,1.68,2.56,1.70,-1.71,-1.62,-1.21,0.82,0.85,0.86
82.16,2.48,1.68,2.49,1.68,-1.71,-1.63,-1.25,0.77,0.78,0.81
82.98,2.46,1.70,2.44,1.68,-1.71,-1.63,-1.30,0.75,0.73,0.77
83.81,2.40,1.69,2.41,1.69,-1.69,-1.63,-1.34,0.71,0.71,0.72
84.65,2.35,1.69,2.36,1.69,-1.68,-1.61,-1.39,0.67,0.68,0.67
85.50,2.30,1.68,2.29,1.67,-1.67,-1.59,-1.43,0.64,0.63,0.63
86.35,2.22,1.65,2.22,1.65,-1.66,-1.57,-1.48,0.56,0.57,0.58
87.22,2.15,1.63,2.16,1.63,-1.64,-1.55,-1.53,0.51,0.51,0.53
88.09,2.09,1.62,2.09,1.62,-1.62,-1.52,-1.58,0.47,0.47,0.48
88.97,2.04,1.63,2.04,1.62,-1.60,-1.50,-1.64,0.44,0.43,0.42
89.86,1.97,1.61,1.98,1.61,-1.58,-1.47,-1.69,0.39,0.40,0.37
90.76,1.90,1.59,1.90,1.58,-1.56,-1.45,-1.74,0.34,0.33,0.32
91.66,1.82,1.56,1.79,1.53,-1.55,-1.43,-1.80,0.27,0.24,0.27
92.58,1.68,1.48,1.70,1.49,-1.55,-1.41,-1.86,0.13,0.16,0.21
93.51,1.61,1.46,1.66,1.50,-1.54,-1.40,-1.92,0.07,0.12,0.16
94.44,1.65,1.54,1.63,1.52,-1.53,-1.39,-1.98,0.12,0.10,0.12
95.39,1.65,1.59,1.62,1.55,-1.51,-1.39,-2.04,0.14,0.10,0.07
96.34,1.55,1.54,1.58,1.56,-1.50,-1.39,-2.10,0.06,0.08,0.02
97.30,1.49,1.53,1.49,1.52,-1.48,-1.39,-2.16,0.01,0.01,-0.03
98.28,1.40,1.49,1.39,1.47,-1.46,-1.40,-2.22,-0.06,-0.07,-0.08
99.26,1.28,1.41,1.29,1.42,-1.44,-1.40,-2.29,-0.16,-0.15,-0.12
100.25,1.19,1.37,1.19,1.37,-1.42,-1.42,-2.35,-0.23,-0.23,-0.17
101.25,1.11,1.34,1.13,1.35,-1.40,-1.43,-2.42,-0.29,-0.27,-0.22
102.27,1.09,1.37,1.09,1.36,-1.38,-1.45,-2.48,-0.28,-0.29,-0.27
103.29,1.07,1.40,1.05,1.37,-1.36,-1.48,-2.55,-0.29,-0.31,-0.32
104.32,1.01,1.38,1.02,1.39,-1.35,-1.50,-2.61,-0.33,-0.32,-0.36
105.37,0.95,1.37,0.98,1.39,-1.34,-1.53,-2.67,-0.39,-0.36,-0.41
106.42,0.95,1.42,0.91,1.37,-1.35,-1.56,-2.74,-0.40,-0.44,-0.46
107.48,0.83,1.36,0.81,1.33,-1.36,-1.60,-2.80,-0.53,-0.55,-0.52
108.56,0.70,1.28,0.74,1.31,-1.37,-1.64,-2.86,-0.67,-0.63,-0.57
109.64,0.66,1.29,0.72,1.35,-1.38,-1.68,-2.92,-0.72,-0.66,-0.62
110.74,0.78,1.47,0.74,1.42,-1.40,-1.72,-2.98,-0.62,-0.66,-0.68
111.85,0.82,1.55,0.76,1.49,-1.44,-1.77,-3.03,-0.62,-0.69,-0.72
112.97,0.72,1.51,0.76,1.54,-1.50,-1.82,-3.09,-0.78,-0.74,-0.78
114.10,0.70,1.54,0.74,1.57,-1.59,-1.88,-3.13,-0.88,-0.85,-0.83
115.24,0.78,1.67,0.75,1.64,-1.69,-1.93,-3.18,-0.91,-0.94,-0.88
116.39,0.83,1.77,0.83,1.76,-1.81,-1.99,-3.22,-0.98,-0.99,-0.93
117.55,0.91,1.89,0.94,1.92,-1.95,-2.05,-3.26,-1.03,-1.00,-0.97
118.73,1.07,2.09,1.07,2.09,-2.09,-2.12,-3.30,-1.02,-1.01,-1.01
119.92,1.25,2.30,1.22,2.27,-2.24,-2.19,-3.32,-0.99,-1.02,-1.04
121.12,1.36,2.45,1.36,2.44,-2.41,-2.26,-3.35,-1.05,-1.05,-1.08
122.33,1.47,2.59,1.48,2.60,-2.57,-2.33,-3.37,-1.10,-1.09,-1.11
123.55,1.59,2.74,1.60,2.75,-2.74,-2.41,-3.38,-1.14,-1.13,-1.14
124.79,1.73,2.91,1.71,2.88,-2.89,-2.49,-3.39,-1.16,-1.18,-1.17
126.03,1.82,3.03,1.81,3.01,-3.03,-2.57,-3.40,-1.21,-1.22,-1.20
127.29,1.87,3.10,1.92,3.15,-3.16,-2.66,-3.40,-1.28,-1.24,-1.22
128.57,2.01,3.28,2.00,3.27,-3.27,-2.74,-3.39,-1.26,-1.27,-1.26
129.85,2.15,3.45,2.10,3.39,-3.38,-2.83,-3.38,-1.23,-1.28,-1.29
131.15,2.13,3.46,2.20,3.52,-3.48,-2.92,-3.37,-1.35,-1.29,-1.32
132.46,2.26,3.62,2.22,3.57,-3.58,-3.01,-3.35,-1.32,-1.36,-1.35
133.79,2.27,3.66,2.23,3.62,-3.66,-3.11,-3.32,-1.39,-1.43,-1.38
135.12,2.20,3.62,2.29,3.71,-3.72,-3.20,-3.30,-1.52,-1.43,-1.41
136.48,2.34,3.78,2.33,3.77,-3.77,-3.29,-3.26,-1.42,-1.43,-1.43
137.84,2.43,3.91,2.37,3.85,-3.80,-3.39,-3.23,-1.37,-1.42,-1.47
139.22,2.37,3.88,2.38,3.88,-3.82,-3.48,-3.19,-1.45,-1.44,-1.50
140.61,2.31,3.85,2.31,3.84,-3.84,-3.57,-3.15,-1.53,-1.53,-1.53
142.02,2.23,3.79,2.24,3.80,-3.86,-3.65,-3.11,-1.62,-1.61,-1.55
143.44,2.19,3.78,2.21,3.80,-3.87,-3.74,-3.06,-1.67,-1.66,-1.58
144.87,2.21,3.84,2.20,3.82,-3.86,-3.82,-3.02,-1.65,-1.67,-1.62
146.32,2.19,3.86,2.20,3.86,-3.85,-3.89,-2.97,-1.66,-1.65,-1.66
147.78,2.18,3.88,2.18,3.88,-3.83,-3.96,-2.92,-1.65,-1.65,-1.69
149.26,2.14,3.89,2.11,3.86,-3.81,-4.03,-2.87,-1.67,-1.70,-1.74
150.75,2.01,3.82,2.01,3.81,-3.79,-4.08,-2.82,-1.78,-1.79,-1.80
152.26,1.85,3.73,1.87,3.75,-3.76,-4.13,-2.77,-1.91,-1.89,-1.87
153.78,1.73,3.68,1.74,3.68,-3.71,-4.17,-2.72,-1.98,-1.97,-1.94
155.32,1.63,3.65,1.62,3.64,-3.65,-4.20,-2.68,-2.01,-2.03,-2.01
156.88,1.50,3.60,1.50,3.59,-3.56,-4.21,-2.63,-2.06,-2.06,-2.09
158.44,1.36,3.54,1.37,3.54,-3.48,-4.22,-2.58,-2.12,-2.11,-2.17
160.03,1.22,3.48,1.22,3.47,-3.41,-4.23,-2.53,-2.19,-2.19,-2.25
161.63,1.07,3.40,1.06,3.38,-3.37,-4.22,-2.49,-2.30,-2.31,-2.32
163.24,0.92,3.31,0.91,3.30,-3.37,-4.20,-2.44,-2.45,-2.46,-2.38
164.88,0.80,3.24,0.82,3.26,-3.40,-4.17,-2.40,-2.60,-2.58,-2.43
166.53,0.80,3.29,0.83,3.31,-3.46,-4.13,-2.36,-2.66,-2.64,-2.48
168.19,0.93,3.46,0.94,3.46,-3.54,-4.09,-2.32,-2.61,-2.60,-2.52
169.87,1.10,3.67,1.11,3.67,-3.63,-4.04,-2.28,-2.53,-2.52,-2.56
171.57,1.29,3.88,1.25,3.84,-3.72,-3.98,-2.24,-2.42,-2.46,-2.58
173.29,1.34,3.94,1.34,3.94,-3.79,-3.92,-2.21,-2.45,-2.45,-2.59
175.02,1.33,3.94,1.34,3.94,-3.84,-3.85,-2.18,-2.51,-2.51,-2.60
176.77,1.29,3.91,1.27,3.89,-3.86,-3.79,-2.14,-2.57,-2.59,-2.61
178.54,1.17,3.80,1.21,3.82,-3.84,-3.72,-2.11,-2.67,-2.64,-2.62
180.32,1.13,3.75,1.13,3.75,-3.79,-3.64,-2.08,-2.66,-2.66,-2.61
182.13,1.09,3.70,1.06,3.67,-3.72,-3.57,-2.06,-2.63,-2.66,-2.60
183.95,0.98,3.60,1.02,3.63,-3.65,-3.50,-2.03,-2.67,-2.63,-2.61
185.79,0.96,3.58,0.96,3.57,-3.59,-3.44,-2.01,-2.62,-2.63,-2.61
187.65,0.91,3.55,0.89,3.52,-3.53,-3.37,-1.99,-2.62,-2.64,-2.63
189.52,0.82,3.47,0.83,3.48,-3.49,-3.31,-1.97,-2.66,-2.65,-2.64
191.42,0.75,3.42,0.77,3.43,-3.44,-3.25,-1.95,-2.68,-2.67,-2.66
193.33,0.71,3.40,0.71,3.39,-3.38,-3.20,-1.93,-2.67,-2.67,-2.68
195.27,0.66,3.37,0.65,3.35,-3.33,-3.15,-1.92,-2.66,-2.68,-2.70
197.22,0.57,3.30,0.57,3.29,-3.26,-3.11,-1.90,-2.69,-2.69,-2.72
199.19,0.45,3.20,0.46,3.20,-3.19,-3.07,-1.89,-2.74,-2.74,-2.74
201.18,0.34,3.11,0.34,3.10,-3.12,-3.04,-1.88,-2.78,-2.78,-2.76
203.19,0.22,3.01,0.24,3.02,-3.04,-3.00,-1.86,-2.82,-2.80,-2.78
205.23,0.14,2.95,0.14,2.94,-2.96,-2.97,-1.85,-2.82,-2.82,-2.80
207.28,0.07,2.89,0.05,2.87,-2.87,-2.93,-1.84,-2.80,-2.82,-2.81
209.35,-0.05,2.79,-0.04,2.80,-2.79,-2.89,-1.84,-2.84,-2.83,-2.83
211.44,-0.14,2.73,-0.13,2.72,-2.71,-2.83,-1.83,-2.85,-2.85,-2.86
213.56,-0.23,2.65,-0.24,2.64,-2.64,-2.76,-1.82,-2.87,-2.88,-2.87
215.69,-0.33,2.56,-0.33,2.55,-2.57,-2.69,-1.81,-2.90,-2.90,-2.88
217.85,-0.44,2.46,-0.42,2.47,-2.49,-2.59,-1.80,-2.93,-2.91,-2.89
220.03,-0.50,2.41,-0.50,2.41,-2.41,-2.49,-1.80,-2.91,-2.91,-2.90
222.23,-0.58,2.36,-0.58,2.35,-2.32,-2.38,-1.79,-2.90,-2.90,-2.93
224.45,-0.65,2.28,-0.66,2.26,-2.24,-2.27,-1.78,-2.89,-2.90,-2.92
226.70,-0.76,2.17,-0.76,2.17,-2.16,-2.15,-1.77,-2.92,-2.92,-2.92
228.96,-0.87,2.05,-0.85,2.07,-2.08,-2.04,-1.77,-2.94,-2.92,-2.91
231.25,-0.93,1.98,-0.94,1.97,-1.99,-1.92,-1.76,-2.92,-2.93,-2.90
233.57,-1.00,1.90,-1.01,1.89,-1.91,-1.81,-1.75,-2.91,-2.92,-2.89
235.90,-1.08,1.81,-1.07,1.81,-1.82,-1.71,-1.73,-2.90,-2.89,-2.88
238.26,-1.14,1.74,-1.13,1.74,-1.73,-1.61,-1.72,-2.87,-2.85,-2.87
240.64,-1.18,1.67,-1.19,1.66,-1.64,-1.51,-1.71,-2.82,-2.83,-2.84
243.05,-1.23,1.59,-1.26,1.56,-1.55,-1.42,-1.69,-2.78,-2.81,-2.81
245.48,-1.35,1.45,-1.32,1.47,-1.47,-1.34,-1.68,-2.82,-2.79,-2.79
247.93,-1.41,1.36,-1.40,1.36,-1.38,-1.26,-1.66,-2.79,-2.78,-2.76
250.41,-1.44,1.31,-1.48,1.26,-1.29,-1.18,-1.64,-2.72,-2.76,-2.74
252.92,-1.57,1.15,-1.53,1.19,-1.19,-1.11,-1.62,-2.76,-2.72,-2.71
255.45,-1.58,1.12,-1.58,1.12,-1.10,-1.04,-1.60,-2.68,-2.68,-2.69
258.00,-1.62,1.06,-1.65,1.02,-1.01,-0.97,-1.57,-2.63,-2.66,-2.67
260.58,-1.72,0.94,-1.72,0.93,-0.93,-0.91,-1.55,-2.65,-2.65,-2.65
263.19,-1.82,0.81,-1.80,0.83,-0.84,-0.85,-1.52,-2.66,-2.64,-2.62
265.82,-1.88,0.73,-1.85,0.75,-0.76,-0.79,-1.49,-2.64,-2.61,-2.60
268.48,-1.88,0.71,-1.90,0.68,-0.67,-0.73,-1.46,-2.55,-2.58,-2.58
271.16,-1.92,0.64,-1.96,0.60,-0.59,-0.67,-1.43,-2.51,-2.55,-2.55
273.87,-2.06,0.48,-2.02,0.52,-0.51,-0.61,-1.40,-2.57,-2.52,-2.53
276.61,-2.09,0.42,-2.08,0.42,-0.43,-0.56,-1.37,-2.52,-2.51,-2.50
279.38,-2.11,0.37,-2.13,0.35,-0.35,-0.51,-1.33,-2.46,-2.48,-2.47
282.17,-2.17,0.29,-2.16,0.29,-0.29,-0.45,-1.30,-2.45,-2.44,-2.45
284.99,-2.19,0.23,-2.20,0.22,-0.22,-0.40,-1.26,-2.41,-2.42,-2.41
287.84,-2.23,0.17,-2.23,0.16,-0.17,-0.35,-1.22,-2.40,-2.40,-2.39
290.72,-2.27,0.10,-2.25,0.11,-0.13,-0.30,-1.19,-2.40,-2.38,-2.36
293.63,-2.26,0.08,-2.26,0.08,-0.10,-0.24,-1.15,-2.35,-2.35,-2.33
296.57,-2.24,0.07,-2.25,0.06,-0.07,-0.19,-1.11,-2.31,-2.32,-2.30
299.53,-2.23,0.05,-2.23,0.05,-0.05,-0.14,-1.07,-2.27,-2.27,-2.27
302.53,-2.22,0.04,-2.22,0.03,-0.02,-0.09,-1.03,-2.24,-2.24,-2.25
305.55,-2.21,0.01,-2.20,0.02,0.01,-0.04,-0.99,-2.20,-2.20,-2.21
308.61,-2.20,-0.00,-2.19,-0.00,0.03,0.01,-0.95,-2.17,-2.16,-2.19
311.69,-2.19,-0.02,-2.21,-0.04,0.06,0.06,-0.91,-2.13,-2.15,-2.16
314.81,-2.23,-0.08,-2.24,-0.09,0.08,0.11,-0.88,-2.14,-2.15,-2.14
317.96,-2.29,-0.16,-2.27,-0.14,0.11,0.16,-0.84,-2.18,-2.16,-2.12
321.14,-2.30,-0.18,-2.29,-0.18,0.14,0.21,-0.80,-2.16,-2.15,-2.11
324.35,-2.29,-0.19,-2.30,-0.20,0.18,0.25,-0.76,-2.11,-2.12,-2.09
327.59,-2.29,-0.20,-2.28,-0.20,0.22,0.30,-0.72,-2.07,-2.06,-2.08
330.87,-2.29,-0.21,-2.28,-0.21,0.26,0.34,-0.68,-2.03,-2.01,-2.07
334.18,-2.28,-0.22,-2.31,-0.26,0.30,0.38,-0.64,-1.98,-2.01,-2.05
337.52,-2.37,-0.32,-2.38,-0.33,0.34,0.42,-0.61,-2.03,-2.04,-2.04
340.90,-2.48,-0.44,-2.45,-0.41,0.38,0.46,-0.57,-2.10,-2.07,-2.03
344.30,-2.51,-0.48,-2.50,-0.47,0.42,0.49,-0.53,-2.09,-2.08,-2.02
347.75,-2.50,-0.47,-2.50,-0.48,0.46,0.51,-0.49,-2.04,-2.04,-2.02
351.23,-2.50,-0.48,-2.50,-0.48,0.50,0.54,-0.46,-2.00,-2.00,-2.01
354.74,-2.49,-0.46,-2.52,-0.50,0.53,0.56,-0.42,-1.96,-1.99,-2.02
358.28,-2.55,-0.53,-2.55,-0.53,0.54,0.57,-0.38,-2.00,-2.01,-2.01
361.87,-2.61,-0.59,-2.58,-0.56,0.55,0.58,-0.35,-2.06,-2.03,-2.01
365.49,-2.59,-0.58,-2.59,-0.58,0.55,0.58,-0.31,-2.04,-2.04,-2.00
369.14,-2.57,-0.55,-2.58,-0.56,0.55,0.58,-0.28,-2.02,-2.03,-2.01
372.83,-2.56,-0.54,-2.56,-0.54,0.55,0.58,-0.24,-2.01,-2.01,-2.01
376.56,-2.55,-0.52,-2.55,-0.53,0.55,0.57,-0.21,-2.00,-2.00,-2.02
380.33,-2.55,-0.53,-2.55,-0.53,0.54,0.56,-0.17,-2.01,-2.01,-2.01
384.13,-2.54,-0.52,-2.54,-0.52,0.52,0.54,-0.14,-2.01,-2.02,-2.01
387.97,-2.54,-0.51,-2.54,-0.51,0.52,0.52,-0.10,-2.02,-2.02,-2.02
391.85,-2.53,-0.49,-2.53,-0.50,0.51,0.50,-0.07,-2.02,-2.02,-2.03
395.77,-2.53,-0.50,-2.53,-0.50,0.50,0.48,-0.04,-2.02,-2.02,-2.02
399.73,-2.53,-0.49,-2.53,-0.49,0.50,0.45,-0.01,-2.03,-2.03,-2.03
403.72,-2.53,-0.49,-2.53,-0.49,0.49,0.43,0.03,-2.04,-2.04,-2.03
407.76,-2.54,-0.48,-2.54,-0.50,0.48,0.40,0.06,-2.06,-2.07,-2.05
411.84,-2.54,-0.48,-2.54,-0.48,0.47,0.38,0.09,-2.07,-2.07,-2.05
415.96,-2.54,-0.48,-2.50,-0.44,0.45,0.35,0.12,-2.08,-2.05,-2.05
420.12,-2.44,-0.38,-2.47,-0.41,0.43,0.32,0.15,-2.01,-2.04,-2.05
424.32,-2.41,-0.35,-2.45,-0.40,0.40,0.30,0.18,-2.01,-2.05,-2.05
428.56,-2.46,-0.41,-2.42,-0.37,0.36,0.27,0.20,-2.09,-2.05,-2.04
432.85,-2.42,-0.38,-2.39,-0.36,0.32,0.25,0.23,-2.10,-2.07,-2.03
437.18,-2.29,-0.26,-2.33,-0.32,0.28,0.22,0.26,-2.01,-2.06,-2.02
441.55,-2.25,-0.26,-2.22,-0.23,0.24,0.20,0.28,-2.01,-1.99,-1.98
445.96,-2.14,-0.18,-2.12,-0.16,0.20,0.18,0.30,-1.94,-1.92,-1.95
450.42,-2.00,-0.07,-2.04,-0.12,0.16,0.15,0.33,-1.84,-1.88,-1.92
454.93,-1.98,-0.10,-1.97,-0.09,0.12,0.13,0.35,-1.86,-1.85,-1.87
459.48,-1.93,-0.09,-1.92,-0.09,0.07,0.11,0.36,-1.86,-1.85,-1.83
464.07,-1.87,-0.08,-1.88,-0.10,0.04,0.09,0.38,-1.83,-1.85,-1.78
468.71,-1.82,-0.09,-1.79,-0.06,0.02,0.07,0.40,-1.80,-1.78,-1.72
473.40,-1.72,-0.03,-1.69,-0.01,0.02,0.06,0.41,-1.70,-1.67,-1.68
478.13,-1.54,0.09,-1.58,0.05,0.02,0.04,0.42,-1.52,-1.56,-1.62
482.91,-1.51,0.08,-1.53,0.06,0.03,0.02,0.43,-1.48,-1.49,-1.58
487.74,-1.52,0.03,-1.54,-0.00,0.04,0.01,0.44,-1.48,-1.50,-1.54
492.62,-1.63,-0.13,-1.58,-0.08,0.05,-0.01,0.44,-1.58,-1.53,-1.49
497.55,-1.61,-0.13,-1.58,-0.11,0.04,-0.02,0.45,-1.57,-1.54,-1.47
