frequency,raw,error,smoothed,error_smoothed,equalization,parametric_eq,fixed_band_eq,equalized_raw,equalized_smoothed,target
20.00,1.58,-5.89,1.58,-5.90,5.90,5.58,2.37,7.48,7.48,7.47
20.20,1.59,-5.87,1.59,-5.87,5.87,5.58,2.44,7.46,7.46,7.46
20.40,1.60,-5.85,1.60,-5.85,5.85,5.57,2.51,7.45,7.45,7.45
20.61,1.61,-5.83,1.61,-5.83,5.83,5.56,2.58,7.44,7.44,7.44
20.81,1.62,-5.80,1.62,-5.81,5.81,5.55,2.66,7.43,7.43,7.42
21.02,1.63,-5.78,1.63,-5.79,5.79,5.55,2.74,7.42,7.42,7.41
21.23,1.64,-5.76,1.64,-5.77,5.77,5.54,2.82,7.41,7.41,7.40
21.44,1.66,-5.75,1.66,-5.75,5.75,5.53,2.90,7.41,7.40,7.41
21.66,1.67,-5.72,1.67,-5.73,5.72,5.51,2.99,7.39,7.39,7.39
21.87,1.68,-5.71,1.68,-5.71,5.70,5.50,3.08,7.38,7.38,7.39
22.09,1.69,-5.68,1.69,-5.68,5.68,5.49,3.17,7.37,7.38,7.37
22.31,1.71,-5.65,1.71,-5.66,5.66,5.48,3.26,7.37,7.37,7.36
22.54,1.72,-5.63,1.72,-5.64,5.64,5.47,3.35,7.36,7.36,7.35
22.76,1.73,-5.62,1.73,-5.62,5.62,5.45,3.45,7.35,7.35,7.35
22.99,1.74,-5.60,1.74,-5.61,5.61,5.44,3.55,7.35,7.35,7.34
23.22,1.75,-5.58,1.75,-5.59,5.59,5.43,3.65,7.34,7.34,7.33
23.45,1.76,-5.58,1.76,-5.58,5.57,5.41,3.76,7.33,7.34,7.34
23.69,1.77,-5.56,1.77,-5.56,5.56,5.40,3.86,7.33,7.33,7.33
23.92,1.79,-5.53,1.79,-5.55,5.55,5.38,3.97,7.34,7.33,7.32
24.16,1.80,-5.53,1.80,-5.53,5.53,5.37,4.08,7.33,7.33,7.33
24.40,1.81,-5.52,1.81,-5.52,5.52,5.35,4.20,7.33,7.33,7.33
24.65,1.82,-5.50,1.82,-5.51,5.50,5.34,4.31,7.32,7.32,7.32
24.89,1.83,-5.49,1.83,-5.49,5.49,5.32,4.43,7.32,7.32,7.32
25.14,1.85,-5.46,1.85,-5.47,5.47,5.31,4.54,7.32,7.32,7.31
25.39,1.86,-5.45,1.86,-5.45,5.46,5.29,4.66,7.32,7.32,7.31
25.65,1.87,-5.44,1.87,-5.44,5.45,5.27,4.78,7.32,7.32,7.31
25.91,1.88,-5.43,1.88,-5.44,5.44,5.26,4.90,7.32,7.32,7.31
26.16,1.89,-5.43,1.89,-5.43,5.42,5.24,5.01,7.31,7.31,7.32
26.43,1.90,-5.41,1.90,-5.42,5.41,5.22,5.13,7.31,7.31,7.31
26.69,1.91,-5.40,1.91,-5.40,5.40,5.21,5.25,7.31,7.31,7.31
26.96,1.93,-5.38,1.93,-5.39,5.39,5.19,5.36,7.32,7.32,7.31
27.23,1.94,-5.37,1.94,-5.38,5.38,5.18,5.47,7.32,7.32,7.31
27.50,1.95,-5.36,1.95,-5.37,5.37,5.16,5.58,7.32,7.32,7.31
27.77,1.96,-5.36,1.96,-5.36,5.36,5.14,5.69,7.32,7.32,7.32
28.05,1.97,-5.34,1.97,-5.35,5.35,5.13,5.79,7.32,7.32,7.31
28.33,1.98,-5.34,1.98,-5.34,5.34,5.11,5.88,7.32,7.32,7.32
28.62,1.99,-5.33,1.99,-5.33,5.33,5.10,5.97,7.32,7.33,7.32
28.90,2.01,-5.32,2.01,-5.32,5.32,5.08,6.06,7.33,7.33,7.33
29.19,2.02,-5.31,2.02,-5.31,5.31,5.07,6.14,7.33,7.33,7.33
29.48,2.03,-5.29,2.03,-5.30,5.30,5.05,6.21,7.33,7.33,7.32
29.78,2.04,-5.28,2.04,-5.28,5.28,5.04,6.27,7.32,7.32,7.32
30.08,2.05,-5.27,2.05,-5.26,5.27,5.02,6.32,7.32,7.32,7.32
30.38,2.07,-5.24,2.07,-5.24,5.25,5.01,6.36,7.32,7.32,7.30
30.68,2.08,-5.22,2.08,-5.23,5.23,4.99,6.40,7.31,7.31,7.30
30.99,2.09,-5.21,2.09,-5.21,5.21,4.98,6.42,7.30,7.30,7.30
31.30,2.10,-5.20,2.10,-5.20,5.19,4.96,6.43,7.29,7.29,7.30
31.61,2.11,-5.18,2.11,-5.18,5.17,4.95,6.44,7.28,7.29,7.29
31.93,2.13,-5.15,2.13,-5.16,5.16,4.93,6.43,7.29,7.28,7.27
32.24,2.14,-5.14,2.14,-5.14,5.14,4.92,6.41,7.28,7.28,7.28
32.57,2.15,-5.11,2.15,-5.12,5.13,4.90,6.39,7.28,7.28,7.26
32.89,2.16,-5.10,2.16,-5.11,5.11,4.89,6.35,7.27,7.27,7.26
33.22,2.16,-5.09,2.16,-5.09,5.09,4.88,6.31,7.25,7.26,7.25
33.55,2.17,-5.08,2.17,-5.08,5.08,4.86,6.26,7.25,7.25,7.25
33.89,2.17,-5.07,2.17,-5.07,5.06,4.85,6.20,7.23,7.24,7.24
34.23,2.18,-5.04,2.18,-5.05,5.05,4.83,6.14,7.23,7.23,7.22
34.57,2.19,-5.03,2.19,-5.03,5.04,4.82,6.07,7.23,7.22,7.22
34.92,2.20,-5.00,2.20,-5.01,5.02,4.80,5.99,7.22,7.22,7.20
35.27,2.21,-5.01,2.21,-5.00,5.00,4.79,5.91,7.21,7.21,7.22
35.62,2.22,-4.97,2.22,-4.98,4.98,4.77,5.83,7.20,7.20,7.19
35.97,2.23,-4.96,2.23,-4.96,4.95,4.76,5.74,7.18,7.18,7.19
36.33,2.24,-4.93,2.24,-4.93,4.93,4.74,5.65,7.17,7.17,7.17
36.70,2.25,-4.90,2.25,-4.91,4.91,4.73,5.56,7.16,7.16,7.15
37.06,2.26,-4.87,2.26,-4.87,4.88,4.71,5.46,7.14,7.14,7.13
37.43,2.27,-4.84,2.27,-4.85,4.85,4.70,5.37,7.12,7.12,7.11
37.81,2.28,-4.82,2.28,-4.82,4.82,4.68,5.28,7.10,7.10,7.10
38.19,2.28,-4.79,2.28,-4.80,4.80,4.66,5.18,7.08,7.08,7.07
38.57,2.29,-4.76,2.29,-4.77,4.77,4.64,5.09,7.06,7.06,7.05
38.95,2.29,-4.75,2.29,-4.75,4.74,4.63,5.00,7.03,7.03,7.04
39.34,2.29,-4.72,2.30,-4.72,4.72,4.61,4.91,7.01,7.01,7.01
39.74,2.30,-4.68,2.30,-4.69,4.69,4.59,4.82,6.99,6.99,6.98
40.14,2.30,-4.66,2.30,-4.67,4.67,4.57,4.74,6.97,6.97,6.96
40.54,2.29,-4.65,2.30,-4.65,4.65,4.55,4.65,6.94,6.95,6.94
40.94,2.29,-4.62,2.29,-4.63,4.63,4.53,4.57,6.92,6.92,6.91
41.35,2.29,-4.61,2.29,-4.61,4.61,4.51,4.49,6.90,6.90,6.90
41.76,2.28,-4.59,2.28,-4.60,4.60,4.48,4.42,6.88,6.88,6.87
42.18,2.28,-4.58,2.28,-4.58,4.58,4.46,4.34,6.86,6.85,6.86
42.60,2.27,-4.56,2.27,-4.56,4.56,4.44,4.27,6.83,6.83,6.83
43.03,2.27,-4.54,2.27,-4.54,4.54,4.41,4.20,6.81,6.81,6.81
43.46,2.27,-4.50,2.27,-4.51,4.51,4.38,4.14,6.78,6.78,6.77
43.90,2.27,-4.48,2.27,-4.48,4.49,4.36,4.08,6.76,6.76,6.75
44.33,2.27,-4.45,2.27,-4.46,4.46,4.33,4.02,6.73,6.73,6.72
44.78,2.27,-4.43,2.27,-4.43,4.43,4.30,3.96,6.70,6.70,6.70
45.23,2.27,-4.41,2.27,-4.41,4.40,4.27,3.91,6.67,6.67,6.68
45.68,2.27,-4.36,2.27,-4.37,4.37,4.24,3.86,6.64,6.64,6.63
46.13,2.27,-4.33,2.27,-4.33,4.33,4.21,3.81,6.60,6.60,6.60
46.60,2.27,-4.29,2.27,-4.30,4.30,4.17,3.77,6.57,6.57,6.56
47.06,2.27,-4.26,2.27,-4.26,4.26,4.14,3.73,6.53,6.53,6.53
47.53,2.27,-4.22,2.27,-4.22,4.22,4.10,3.69,6.49,6.49,6.49
48.01,2.27,-4.17,2.27,-4.18,4.18,4.07,3.66,6.45,6.45,6.44
48.49,2.27,-4.13,2.27,-4.13,4.13,4.03,3.62,6.40,6.40,6.40
48.97,2.27,-4.08,2.27,-4.09,4.09,3.99,3.59,6.36,6.36,6.35
49.46,2.27,-4.05,2.27,-4.05,4.05,3.95,3.57,6.32,6.32,6.32
49.96,2.27,-3.99,2.27,-4.00,4.00,3.91,3.54,6.27,6.27,6.26
50.46,2.27,-3.96,2.27,-3.96,3.97,3.87,3.52,6.24,6.24,6.23
50.96,2.27,-3.92,2.27,-3.92,3.93,3.83,3.49,6.20,6.20,6.19
51.47,2.27,-3.88,2.27,-3.89,3.89,3.79,3.47,6.16,6.16,6.15
51.99,2.26,-3.84,2.26,-3.85,3.86,3.74,3.45,6.12,6.12,6.10
52.51,2.25,-3.82,2.25,-3.82,3.82,3.70,3.44,6.07,6.07,6.07
53.03,2.25,-3.79,2.25,-3.79,3.78,3.65,3.42,6.03,6.03,6.04
53.56,2.24,-3.75,2.24,-3.75,3.74,3.60,3.40,5.98,5.99,5.99
54.10,2.24,-3.70,2.24,-3.71,3.70,3.56,3.39,5.94,5.95,5.94
54.64,2.25,-3.65,2.25,-3.66,3.66,3.51,3.37,5.91,5.91,5.90
55.18,2.25,-3.61,2.25,-3.61,3.61,3.46,3.36,5.86,5.87,5.86
55.74,2.26,-3.56,2.26,-3.57,3.57,3.41,3.34,5.83,5.83,5.81
56.29,2.27,-3.52,2.27,-3.52,3.52,3.36,3.32,5.79,5.79,5.79
56.86,2.28,-3.47,2.28,-3.47,3.47,3.31,3.31,5.75,5.75,5.75
57.42,2.29,-3.41,2.29,-3.42,3.42,3.26,3.29,5.71,5.71,5.70
58.00,2.30,-3.36,2.30,-3.37,3.37,3.20,3.27,5.67,5.67,5.66
58.58,2.32,-3.31,2.32,-3.32,3.32,3.15,3.25,5.64,5.63,5.63
59.16,2.33,-3.27,2.33,-3.27,3.26,3.10,3.23,5.59,5.59,5.60
59.76,2.35,-3.21,2.35,-3.21,3.19,3.04,3.20,5.54,5.54,5.55
60.35,2.37,-3.13,2.37,-3.14,3.12,2.99,3.17,5.49,5.49,5.50
60.96,2.39,-3.05,2.39,-3.05,3.05,2.94,3.14,5.44,5.44,5.44
61.57,2.41,-2.97,2.41,-2.97,2.98,2.88,3.11,5.39,5.39,5.38
62.18,2.44,-2.88,2.43,-2.89,2.90,2.83,3.08,5.34,5.33,5.32
62.80,2.45,-2.81,2.46,-2.81,2.82,2.77,3.04,5.27,5.28,5.26
63.43,2.48,-2.73,2.48,-2.74,2.74,2.72,3.00,5.22,5.22,5.21
64.07,2.50,-2.66,2.50,-2.66,2.66,2.66,2.96,5.16,5.16,5.16
64.71,2.52,-2.59,2.52,-2.59,2.59,2.61,2.91,5.11,5.11,5.11
65.35,2.54,-2.51,2.54,-2.52,2.52,2.55,2.86,5.06,5.06,5.05
66.01,2.56,-2.44,2.56,-2.45,2.45,2.49,2.81,5.01,5.01,5.00
66.67,2.57,-2.39,2.57,-2.38,2.38,2.44,2.76,4.95,4.95,4.96
67.33,2.59,-2.30,2.59,-2.31,2.31,2.38,2.70,4.90,4.90,4.89
68.01,2.60,-2.24,2.60,-2.24,2.24,2.33,2.65,4.84,4.84,4.84
68.69,2.62,-2.17,2.62,-2.18,2.17,2.27,2.59,4.79,4.79,4.79
69.37,2.63,-2.11,2.63,-2.11,2.11,2.22,2.53,4.74,4.74,4.74
70.07,2.64,-2.04,2.64,-2.04,2.05,2.16,2.46,4.69,4.69,4.68
70.77,2.64,-1.97,2.64,-1.98,1.99,2.10,2.40,4.63,4.63,4.61
71.48,2.63,-1.93,2.63,-1.93,1.93,2.05,2.33,4.56,4.56,4.56
72.19,2.62,-1.88,2.62,-1.88,1.88,1.99,2.27,4.50,4.50,4.50
72.91,2.60,-1.83,2.60,-1.84,1.84,1.94,2.20,4.44,4.44,4.43
73.64,2.59,-1.79,2.59,-1.79,1.79,1.88,2.13,4.38,4.38,4.38
74.38,2.57,-1.75,2.57,-1.76,1.76,1.83,2.06,4.33,4.33,4.32
75.12,2.55,-1.72,2.55,-1.72,1.72,1.78,1.99,4.27,4.27,4.27
75.87,2.53,-1.69,2.53,-1.69,1.69,1.72,1.92,4.22,4.22,4.22
76.63,2.50,-1.66,2.50,-1.67,1.67,1.67,1.85,4.17,4.17,4.16
77.40,2.48,-1.64,2.48,-1.64,1.64,1.61,1.78,4.12,4.12,4.12
78.17,2.45,-1.61,2.45,-1.62,1.62,1.56,1.71,4.07,4.07,4.06
78.95,2.43,-1.59,2.43,-1.60,1.60,1.51,1.64,4.03,4.02,4.02
79.74,2.40,-1.57,2.40,-1.57,1.57,1.45,1.57,3.97,3.97,3.97
80.54,2.37,-1.55,2.37,-1.55,1.55,1.40,1.50,3.92,3.93,3.92
81.35,2.35,-1.51,2.35,-1.53,1.53,1.35,1.44,3.88,3.88,3.86
82.16,2.33,-1.50,2.32,-1.50,1.50,1.29,1.37,3.83,3.82,3.83
82.98,2.30,-1.47,2.30,-1.47,1.47,1.24,1.30,3.77,3.77,3.77
83.81,2.28,-1.44,2.28,-1.44,1.43,1.19,1.24,3.71,3.72,3.72
84.65,2.27,-1.39,2.27,-1.40,1.39,1.14,1.17,3.66,3.66,3.66
85.50,2.26,-1.34,2.26,-1.35,1.35,1.09,1.10,3.61,3.61,3.60
86.35,2.25,-1.30,2.25,-1.30,1.30,1.04,1.04,3.55,3.55,3.55
87.22,2.25,-1.25,2.25,-1.25,1.25,0.98,0.98,3.50,3.50,3.50
88.09,2.25,-1.19,2.25,-1.19,1.19,0.93,0.91,3.44,3.44,3.44
88.97,2.26,-1.12,2.26,-1.13,1.13,0.88,0.85,3.39,3.39,3.38
89.86,2.27,-1.06,2.27,-1.06,1.07,0.83,0.79,3.34,3.34,3.33
90.76,2.27,-1.00,2.27,-1.00,1.01,0.78,0.73,3.28,3.28,3.27
91.66,2.27,-0.93,2.27,-0.94,0.95,0.73,0.66,3.22,3.22,3.20
92.58,2.27,-0.88,2.27,-0.89,0.89,0.68,0.60,3.16,3.16,3.15
93.51,2.27,-0.83,2.27,-0.83,0.82,0.63,0.54,3.09,3.09,3.10
94.44,2.27,-0.77,2.27,-0.77,0.76,0.58,0.49,3.03,3.03,3.04
95.39,2.27,-0.70,2.27,-0.71,0.70,0.54,0.43,2.97,2.97,2.97
96.34,2.27,-0.63,2.27,-0.64,0.64,0.49,0.37,2.91,2.91,2.90
97.30,2.27,-0.57,2.27,-0.57,0.57,0.44,0.31,2.84,2.84,2.84
98.28,2.27,-0.50,2.27,-0.51,0.51,0.39,0.25,2.78,2.78,2.77
99.26,2.27,-0.44,2.27,-0.45,0.45,0.34,0.20,2.72,2.72,2.71
100.25,2.27,-0.38,2.27,-0.39,0.39,0.29,0.14,2.66,2.66,2.65
101.25,2.27,-0.33,2.27,-0.33,0.33,0.24,0.09,2.60,2.60,2.60
102.27,2.27,-0.27,2.27,-0.27,0.27,0.20,0.03,2.54,2.54,2.54
103.29,2.27,-0.21,2.27,-0.22,0.22,0.15,-0.02,2.49,2.49,2.48
104.32,2.27,-0.16,2.27,-0.16,0.16,0.10,-0.07,2.43,2.43,2.43
105.37,2.27,-0.10,2.27,-0.11,0.11,0.05,-0.13,2.38,2.38,2.37
106.42,2.27,-0.05,2.27,-0.05,0.05,0.01,-0.18,2.32,2.32,2.32
107.48,2.27,0.01,2.27,0.00,-0.00,-0.04,-0.23,2.27,2.27,2.26
108.56,2.27,0.06,2.27,0.06,-0.06,-0.09,-0.28,2.21,2.21,2.21
109.64,2.27,0.12,2.27,0.12,-0.12,-0.14,-0.33,2.15,2.15,2.15
110.74,2.27,0.18,2.27,0.17,-0.17,-0.18,-0.37,2.10,2.10,2.09
111.85,2.27,0.24,2.27,0.23,-0.23,-0.23,-0.42,2.04,2.04,2.03
112.97,2.27,0.29,2.27,0.29,-0.29,-0.28,-0.47,1.98,1.98,1.98
114.10,2.27,0.35,2.27,0.35,-0.36,-0.32,-0.51,1.91,1.91,1.92
115.24,2.27,0.43,2.27,0.42,-0.42,-0.37,-0.56,1.85,1.85,1.84
116.39,2.27,0.49,2.27,0.49,-0.48,-0.42,-0.60,1.79,1.79,1.78
117.55,2.27,0.55,2.27,0.55,-0.54,-0.46,-0.64,1.73,1.73,1.72
118.73,2.27,0.61,2.27,0.60,-0.60,-0.51,-0.68,1.67,1.67,1.66
119.92,2.28,0.66,2.28,0.66,-0.66,-0.56,-0.72,1.62,1.62,1.62
121.12,2.29,0.72,2.29,0.72,-0.72,-0.60,-0.75,1.57,1.57,1.57
122.33,2.29,0.78,2.29,0.77,-0.77,-0.65,-0.79,1.52,1.52,1.51
123.55,2.29,0.83,2.29,0.82,-0.82,-0.70,-0.82,1.47,1.47,1.46
124.79,2.28,0.87,2.28,0.87,-0.87,-0.74,-0.86,1.41,1.41,1.41
126.03,2.27,0.92,2.27,0.91,-0.91,-0.79,-0.89,1.36,1.36,1.35
127.29,2.25,0.95,2.25,0.95,-0.95,-0.84,-0.92,1.30,1.30,1.30
128.57,2.23,1.00,2.22,0.98,-0.98,-0.88,-0.95,1.25,1.24,1.23
129.85,2.19,1.01,2.19,1.01,-1.01,-0.93,-0.98,1.18,1.18,1.18
131.15,2.15,1.03,2.16,1.03,-1.03,-0.98,-1.00,1.12,1.13,1.12
132.46,2.13,1.06,2.12,1.05,-1.05,-1.02,-1.03,1.08,1.07,1.07
133.79,2.10,1.09,2.09,1.08,-1.07,-1.07,-1.05,1.03,1.02,1.01
135.12,2.05,1.09,2.06,1.09,-1.09,-1.12,-1.08,0.96,0.97,0.96
136.48,2.03,1.12,2.02,1.11,-1.11,-1.16,-1.10,0.92,0.91,0.91
137.84,1.99,1.13,1.99,1.13,-1.14,-1.21,-1.12,0.85,0.86,0.86
139.22,1.97,1.17,1.97,1.16,-1.16,-1.25,-1.15,0.81,0.81,0.80
140.61,1.95,1.19,1.95,1.19,-1.19,-1.30,-1.17,0.76,0.76,0.76
142.02,1.93,1.23,1.93,1.22,-1.23,-1.35,-1.19,0.70,0.71,0.70
143.44,1.92,1.26,1.92,1.26,-1.27,-1.39,-1.21,0.65,0.66,0.66
144.87,1.92,1.30,1.92,1.30,-1.31,-1.44,-1.23,0.61,0.61,0.62
146.32,1.93,1.36,1.93,1.35,-1.35,-1.48,-1.25,0.58,0.57,0.57
147.78,1.94,1.41,1.94,1.41,-1.40,-1.53,-1.27,0.54,0.54,0.53
149.26,1.95,1.47,1.95,1.46,-1.45,-1.57,-1.30,0.50,0.50,0.48
150.75,1.95,1.51,1.95,1.51,-1.50,-1.62,-1.32,0.45,0.45,0.44
152.26,1.95,1.55,1.95,1.55,-1.54,-1.66,-1.34,0.41,0.41,0.40
153.78,1.95,1.59,1.95,1.59,-1.59,-1.71,-1.37,0.36,0.36,0.36
155.32,1.95,1.63,1.95,1.63,-1.63,-1.75,-1.39,0.32,0.32,0.32
156.88,1.95,1.68,1.95,1.68,-1.68,-1.80,-1.42,0.27,0.27,0.27
158.44,1.95,1.73,1.95,1.72,-1.72,-1.84,-1.44,0.23,0.23,0.22
160.03,1.95,1.77,1.95,1.77,-1.76,-1.89,-1.47,0.19,0.19,0.18
161.63,1.95,1.81,1.95,1.81,-1.81,-1.93,-1.50,0.14,0.14,0.14
163.24,1.95,1.86,1.95,1.86,-1.86,-1.97,-1.53,0.09,0.09,0.09
164.88,1.95,1.91,1.95,1.90,-1.90,-2.01,-1.56,0.05,0.05,0.04
166.53,1.95,1.96,1.95,1.95,-1.95,-2.06,-1.59,0.00,0.00,-0.01
168.19,1.95,1.99,1.95,2.00,-2.00,-2.10,-1.62,-0.05,-0.05,-0.04
169.87,1.95,2.05,1.95,2.04,-2.04,-2.14,-1.66,-0.09,-0.09,-0.10
171.57,1.95,2.10,1.95,2.09,-2.09,-2.18,-1.70,-0.14,-0.14,-0.15
173.29,1.95,2.14,1.95,2.14,-2.14,-2.22,-1.73,-0.19,-0.19,-0.19
175.02,1.95,2.19,1.95,2.18,-2.19,-2.26,-1.77,-0.24,-0.24,-0.24
176.77,1.95,2.24,1.95,2.23,-2.23,-2.30,-1.81,-0.28,-0.28,-0.29
178.54,1.95,2.28,1.95,2.28,-2.28,-2.34,-1.86,-0.33,-0.33,-0.33
180.32,1.95,2.34,1.95,2.33,-2.33,-2.38,-1.90,-0.38,-0.38,-0.39
182.13,1.95,2.37,1.95,2.37,-2.37,-2.41,-1.94,-0.42,-0.42,-0.42
183.95,1.95,2.42,1.95,2.42,-2.42,-2.45,-1.99,-0.47,-0.47,-0.47
185.79,1.95,2.47,1.95,2.46,-2.46,-2.49,-2.04,-0.51,-0.51,-0.52
187.65,1.95,2.51,1.95,2.51,-2.50,-2.52,-2.09,-0.55,-0.55,-0.56
189.52,1.95,2.55,1.95,2.55,-2.55,-2.56,-2.14,-0.60,-0.60,-0.60
191.42,1.95,2.59,1.95,2.58,-2.59,-2.59,-2.19,-0.64,-0.64,-0.64
193.33,1.95,2.63,1.95,2.63,-2.63,-2.62,-2.24,-0.68,-0.68,-0.68
195.27,1.95,2.68,1.95,2.67,-2.68,-2.65,-2.30,-0.73,-0.73,-0.73
197.22,1.95,2.73,1.95,2.72,-2.71,-2.68,-2.35,-0.76,-0.76,-0.78
199.19,1.95,2.76,1.95,2.76,-2.75,-2.71,-2.41,-0.80,-0.80,-0.81
201.18,1.95,2.80,1.95,2.79,-2.79,-2.74,-2.47,-0.84,-0.84,-0.85
203.19,1.95,2.83,1.95,2.82,-2.82,-2.77,-2.52,-0.87,-0.87,-0.88
205.23,1.95,2.85,1.95,2.85,-2.85,-2.79,-2.58,-0.90,-0.90,-0.90
207.28,1.95,2.88,1.95,2.88,-2.88,-2.82,-2.64,-0.93,-0.93,-0.93
209.35,1.95,2.92,1.95,2.91,-2.91,-2.84,-2.69,-0.96,-0.96,-0.97
211.44,1.95,2.95,1.95,2.94,-2.95,-2.86,-2.75,-1.00,-1.00,-1.00
213.56,1.95,2.97,1.95,2.97,-2.98,-2.88,-2.81,-1.03,-1.03,-1.02
215.69,1.95,3.00,1.95,3.00,-3.01,-2.90,-2.86,-1.06,-1.06,-1.05
217.85,1.96,3.04,1.96,3.04,-3.04,-2.92,-2.92,-1.08,-1.08,-1.08
220.03,1.97,3.08,1.97,3.07,-3.06,-2.94,-2.97,-1.09,-1.10,-1.11
222.23,1.97,3.11,1.97,3.10,-3.09,-2.95,-3.02,-1.12,-1.12,-1.14
224.45,1.96,3.11,1.96,3.11,-3.10,-2.97,-3.07,-1.14,-1.14,-1.15
226.70,1.94,3.12,1.94,3.11,-3.11,-2.98,-3.11,-1.17,-1.17,-1.18
228.96,1.92,3.11,1.92,3.11,-3.11,-2.99,-3.15,-1.19,-1.19,-1.19
231.25,1.90,3.11,1.90,3.10,-3.11,-3.00,-3.19,-1.21,-1.21,-1.21
233.57,1.88,3.11,1.87,3.10,-3.10,-3.01,-3.23,-1.22,-1.23,-1.23
235.90,1.83,3.07,1.84,3.08,-3.08,-3.02,-3.26,-1.25,-1.24,-1.24
238.26,1.81,3.08,1.81,3.06,-3.06,-3.02,-3.29,-1.25,-1.25,-1.27
240.64,1.78,3.04,1.78,3.04,-3.04,-3.03,-3.31,-1.26,-1.26,-1.26
243.05,1.74,3.02,1.74,3.02,-3.01,-3.03,-3.33,-1.27,-1.27,-1.28
245.48,1.71,3.00,1.71,2.99,-2.99,-3.03,-3.35,-1.28,-1.28,-1.29
247.93,1.67,2.97,1.67,2.96,-2.97,-3.03,-3.36,-1.30,-1.29,-1.30
250.41,1.65,2.94,1.65,2.94,-2.95,-3.03,-3.36,-1.30,-1.30,-1.29
252.92,1.62,2.92,1.62,2.92,-2.94,-3.03,-3.36,-1.32,-1.31,-1.30
255.45,1.61,2.92,1.61,2.91,-2.93,-3.02,-3.35,-1.32,-1.32,-1.31
258.00,1.61,2.92,1.61,2.92,-2.93,-3.02,-3.34,-1.32,-1.32,-1.31
260.58,1.62,2.93,1.62,2.93,-2.93,-3.01,-3.33,-1.31,-1.31,-1.31
263.19,1.63,2.94,1.63,2.94,-2.93,-3.00,-3.31,-1.30,-1.30,-1.31
265.82,1.63,2.95,1.63,2.94,-2.93,-2.99,-3.29,-1.30,-1.30,-1.32
268.48,1.62,2.94,1.62,2.94,-2.92,-2.98,-3.26,-1.30,-1.30,-1.32
271.16,1.61,2.93,1.60,2.92,-2.92,-2.97,-3.23,-1.31,-1.31,-1.32
273.87,1.58,2.90,1.58,2.90,-2.90,-2.95,-3.19,-1.32,-1.32,-1.32
276.61,1.55,2.87,1.56,2.88,-2.88,-2.94,-3.15,-1.33,-1.32,-1.32
279.38,1.53,2.87,1.53,2.86,-2.85,-2.92,-3.11,-1.32,-1.32,-1.34
282.17,1.50,2.84,1.50,2.83,-2.82,-2.90,-3.07,-1.32,-1.32,-1.34
284.99,1.46,2.79,1.46,2.79,-2.78,-2.89,-3.03,-1.32,-1.32,-1.33
287.84,1.42,2.74,1.42,2.74,-2.74,-2.87,-2.98,-1.33,-1.33,-1.32
290.72,1.38,2.71,1.38,2.70,-2.71,-2.85,-2.93,-1.33,-1.33,-1.33
293.63,1.35,2.67,1.35,2.67,-2.68,-2.83,-2.88,-1.33,-1.33,-1.32
296.57,1.33,2.64,1.33,2.64,-2.65,-2.80,-2.83,-1.32,-1.32,-1.31
299.53,1.32,2.63,1.32,2.62,-2.63,-2.78,-2.78,-1.31,-1.31,-1.31
302.53,1.31,2.60,1.31,2.60,-2.61,-2.76,-2.73,-1.30,-1.30,-1.29
305.55,1.30,2.60,1.30,2.59,-2.59,-2.73,-2.68,-1.29,-1.29,-1.30
308.61,1.29,2.58,1.29,2.57,-2.57,-2.71,-2.63,-1.28,-1.28,-1.29
311.69,1.28,2.56,1.28,2.56,-2.56,-2.68,-2.58,-1.28,-1.28,-1.28
314.81,1.27,2.55,1.27,2.54,-2.54,-2.66,-2.53,-1.27,-1.27,-1.28
317.96,1.26,2.53,1.26,2.53,-2.51,-2.63,-2.48,-1.25,-1.25,-1.27
321.14,1.24,2.50,1.24,2.49,-2.48,-2.60,-2.43,-1.24,-1.25,-1.26
324.35,1.21,2.47,1.21,2.45,-2.45,-2.58,-2.38,-1.24,-1.24,-1.26
327.59,1.17,2.40,1.18,2.41,-2.41,-2.55,-2.34,-1.24,-1.24,-1.23
330.87,1.14,2.38,1.14,2.37,-2.38,-2.52,-2.29,-1.24,-1.24,-1.24
334.18,1.11,2.34,1.11,2.33,-2.34,-2.49,-2.25,-1.23,-1.23,-1.23
337.52,1.07,2.30,1.08,2.30,-2.29,-2.46,-2.21,-1.22,-1.22,-1.23
340.90,1.05,2.26,1.05,2.25,-2.26,-2.43,-2.17,-1.21,-1.21,-1.21
344.30,1.02,2.22,1.02,2.22,-2.22,-2.40,-2.13,-1.20,-1.20,-1.20
347.75,1.00,2.20,1.00,2.19,-2.19,-2.37,-2.09,-1.19,-1.19,-1.20
351.23,0.98,2.18,0.98,2.16,-2.17,-2.34,-2.06,-1.19,-1.19,-1.20
354.74,0.96,2.13,0.96,2.14,-2.15,-2.31,-2.02,-1.19,-1.19,-1.17
358.28,0.95,2.13,0.95,2.13,-2.13,-2.28,-1.99,-1.18,-1.18,-1.18
361.87,0.96,2.13,0.96,2.12,-2.12,-2.25,-1.96,-1.16,-1.17,-1.17
365.49,0.96,2.12,0.96,2.12,-2.11,-2.22,-1.93,-1.15,-1.15,-1.16
369.14,0.97,2.11,0.97,2.11,-2.11,-2.19,-1.90,-1.14,-1.14,-1.14
372.83,0.97,2.11,0.97,2.11,-2.10,-2.16,-1.88,-1.13,-1.13,-1.14
376.56,0.97,2.11,0.97,2.10,-2.10,-2.12,-1.85,-1.13,-1.13,-1.14
380.33,0.97,2.10,0.97,2.09,-2.09,-2.09,-1.83,-1.12,-1.12,-1.13
384.13,0.97,2.08,0.97,2.08,-2.08,-2.06,-1.81,-1.11,-1.11,-1.11
387.97,0.97,2.08,0.97,2.07,-2.07,-2.03,-1.79,-1.10,-1.10,-1.11
391.85,0.97,2.07,0.97,2.07,-2.06,-2.00,-1.77,-1.09,-1.09,-1.10
395.77,0.97,2.06,0.97,2.05,-2.05,-1.97,-1.75,-1.08,-1.08,-1.09
399.73,0.97,2.05,0.97,2.04,-2.04,-1.94,-1.74,-1.07,-1.07,-1.08
403.72,0.97,2.02,0.97,2.03,-2.03,-1.91,-1.72,-1.06,-1.06,-1.05
407.76,0.97,2.03,0.97,2.02,-2.02,-1.88,-1.71,-1.05,-1.05,-1.06
411.84,0.97,2.02,0.97,2.01,-2.02,-1.85,-1.69,-1.05,-1.05,-1.05
415.96,0.98,2.01,0.98,2.01,-2.01,-1.82,-1.68,-1.03,-1.04,-1.03
420.12,0.98,2.01,0.98,2.01,-2.01,-1.79,-1.67,-1.03,-1.02,-1.03
424.32,0.99,2.01,0.99,2.00,-2.00,-1.76,-1.66,-1.01,-1.01,-1.02
428.56,1.00,2.00,0.99,1.99,-1.99,-1.73,-1.65,-0.99,-1.00,-1.00
432.85,0.99,1.98,0.99,1.99,-1.98,-1.70,-1.64,-0.99,-0.99,-0.99
437.18,0.98,1.98,0.98,1.97,-1.96,-1.67,-1.63,-0.98,-0.98,-1.00
441.55,0.97,1.96,0.96,1.95,-1.94,-1.65,-1.62,-0.97,-0.97,-0.99
445.96,0.94,1.92,0.94,1.92,-1.91,-1.62,-1.61,-0.97,-0.97,-0.98
450.42,0.91,1.88,0.91,1.88,-1.87,-1.59,-1.60,-0.96,-0.96,-0.97
454.93,0.88,1.84,0.88,1.83,-1.83,-1.56,-1.59,-0.95,-0.96,-0.96
459.48,0.84,1.79,0.85,1.79,-1.79,-1.53,-1.59,-0.95,-0.94,-0.95
464.07,0.82,1.75,0.81,1.74,-1.75,-1.51,-1.58,-0.93,-0.93,-0.93
468.71,0.78,1.70,0.78,1.70,-1.70,-1.48,-1.57,-0.92,-0.92,-0.92
473.40,0.74,1.66,0.75,1.66,-1.66,-1.45,-1.56,-0.92,-0.91,-0.92
478.13,0.72,1.63,0.72,1.62,-1.62,-1.43,-1.55,-0.90,-0.90,-0.91
482.91,0.69,1.59,0.69,1.59,-1.58,-1.40,-1.53,-0.89,-0.89,-0.90
487.74,0.67,1.56,0.67,1.55,-1.55,-1.38,-1.52,-0.88,-0.89,-0.89
492.62,0.65,1.53,0.65,1.52,-1.53,-1.35,-1.51,-0.88,-0.88,-0.88
497.55,0.63,1.50,0.64,1.50,-1.51,-1.33,-1.50,-0.88,-0.88,-0.87
502.52,0.63,1.49,0.63,1.48,-1.50,-1.30,-1.48,-0.87,-0.87,-0.86
507.55,0.64,1.48,0.64,1.48,-1.48,-1.28,-1.47,-0.84,-0.84,-0.84
512.62,0.65,1.48,0.65,1.48,-1.47,-1.25,-1.45,-0.82,-0.82,-0.83
517.75,0.67,1.48,0.66,1.47,-1.46,-1.23,-1.43,-0.79,-0.80,-0.81
522.93,0.66,1.46,0.66,1.46,-1.45,-1.21,-1.42,-0.79,-0.78,-0.80
528.16,0.65,1.44,0.65,1.44,-1.43,-1.19,-1.40,-0.78,-0.77,-0.79
