frequency,raw,error,smoothed,error_smoothed,equalization,parametric_eq,fixed_band_eq,equalized_raw,equalized_smoothed,target
20.00,1.64,-1.38,1.65,-1.38,1.41,1.26,0.32,3.06,3.06,3.03
20.20,1.65,-1.42,1.65,-1.42,1.44,1.25,0.33,3.09,3.09,3.08
20.40,1.67,-1.46,1.67,-1.46,1.46,1.24,0.34,3.13,3.12,3.13
20.61,1.68,-1.47,1.68,-1.49,1.47,1.23,0.35,3.15,3.15,3.16
20.81,1.70,-1.51,1.70,-1.51,1.48,1.22,0.36,3.18,3.18,3.21
21.02,1.71,-1.53,1.73,-1.51,1.48,1.21,0.37,3.19,3.21,3.25
21.23,1.77,-1.49,1.77,-1.50,1.48,1.20,0.39,3.25,3.25,3.27
21.44,1.83,-1.46,1.82,-1.47,1.47,1.19,0.40,3.29,3.29,3.29
21.66,1.87,-1.44,1.88,-1.43,1.45,1.17,0.41,3.32,3.32,3.31
21.87,1.93,-1.39,1.92,-1.40,1.42,1.16,0.43,3.35,3.34,3.32
22.09,1.96,-1.37,1.96,-1.38,1.39,1.15,0.44,3.36,3.35,3.34
22.31,1.98,-1.36,1.99,-1.36,1.36,1.14,0.45,3.35,3.35,3.35
22.54,2.00,-1.35,2.01,-1.34,1.33,1.12,0.47,3.34,3.34,3.35
22.76,2.03,-1.31,2.03,-1.32,1.31,1.11,0.48,3.34,3.34,3.35
22.99,2.05,-1.28,2.06,-1.28,1.28,1.10,0.50,3.34,3.34,3.34
23.22,2.08,-1.25,2.08,-1.26,1.26,1.08,0.52,3.34,3.34,3.34
23.45,2.11,-1.22,2.11,-1.23,1.23,1.07,0.53,3.35,3.35,3.34
23.69,2.14,-1.21,2.14,-1.20,1.20,1.06,0.55,3.35,3.35,3.35
23.92,2.17,-1.17,2.17,-1.18,1.17,1.04,0.56,3.35,3.34,3.35
24.16,2.20,-1.14,2.21,-1.14,1.14,1.03,0.58,3.34,3.35,3.35
24.40,2.25,-1.11,2.24,-1.11,1.10,1.01,0.60,3.35,3.35,3.36
24.65,2.28,-1.07,2.28,-1.07,1.07,1.00,0.62,3.36,3.35,3.35
24.89,2.32,-1.03,2.32,-1.03,1.04,0.98,0.63,3.35,3.36,3.35
25.14,2.35,-0.99,2.35,-1.00,1.00,0.97,0.65,3.36,3.36,3.35
25.39,2.39,-0.97,2.38,-0.97,0.97,0.95,0.67,3.36,3.36,3.36
25.65,2.41,-0.94,2.42,-0.94,0.94,0.94,0.68,3.35,3.36,3.36
25.91,2.44,-0.91,2.44,-0.91,0.91,0.92,0.70,3.35,3.35,3.35
26.16,2.47,-0.87,2.47,-0.88,0.88,0.91,0.72,3.36,3.35,3.35
26.43,2.49,-0.86,2.50,-0.85,0.85,0.89,0.73,3.35,3.35,3.35
26.69,2.52,-0.82,2.52,-0.82,0.83,0.87,0.75,3.35,3.35,3.35
26.96,2.55,-0.80,2.55,-0.80,0.80,0.86,0.77,3.35,3.35,3.35
27.23,2.57,-0.78,2.58,-0.77,0.77,0.84,0.78,3.34,3.34,3.35
27.50,2.60,-0.74,2.61,-0.74,0.73,0.82,0.79,3.34,3.34,3.35
27.77,2.63,-0.70,2.63,-0.71,0.70,0.81,0.81,3.34,3.34,3.34
28.05,2.66,-0.67,2.66,-0.67,0.68,0.79,0.82,3.34,3.34,3.34
28.33,2.68,-0.64,2.69,-0.64,0.65,0.77,0.83,3.34,3.34,3.33
28.62,2.71,-0.62,2.72,-0.61,0.63,0.75,0.84,3.34,3.35,3.33
28.90,2.74,-0.59,2.74,-0.59,0.61,0.73,0.85,3.35,3.35,3.34
29.19,2.76,-0.56,2.76,-0.58,0.58,0.71,0.85,3.35,3.34,3.33
29.48,2.76,-0.57,2.77,-0.57,0.56,0.69,0.86,3.32,3.32,3.34
29.78,2.77,-0.56,2.78,-0.56,0.53,0.68,0.86,3.30,3.31,3.33
30.08,2.79,-0.54,2.80,-0.53,0.50,0.66,0.86,3.29,3.30,3.34
30.38,2.84,-0.49,2.85,-0.48,0.47,0.64,0.86,3.32,3.32,3.33
30.68,2.90,-0.42,2.90,-0.43,0.45,0.62,0.86,3.35,3.35,3.33
30.99,2.95,-0.38,2.94,-0.39,0.42,0.60,0.86,3.37,3.36,3.33
31.30,2.95,-0.36,2.96,-0.37,0.40,0.57,0.85,3.35,3.35,3.32
31.61,2.95,-0.36,2.96,-0.36,0.37,0.55,0.84,3.33,3.33,3.32
31.93,2.95,-0.36,2.96,-0.36,0.35,0.53,0.83,3.31,3.31,3.32
32.24,2.96,-0.34,2.96,-0.35,0.33,0.51,0.82,3.29,3.29,3.31
32.57,2.97,-0.33,2.97,-0.33,0.31,0.49,0.80,3.28,3.28,3.31
32.89,2.99,-0.31,3.00,-0.31,0.28,0.47,0.79,3.28,3.28,3.31
33.22,3.03,-0.26,3.04,-0.26,0.25,0.44,0.77,3.29,3.29,3.30
33.55,3.09,-0.21,3.09,-0.21,0.22,0.42,0.75,3.31,3.31,3.30
33.89,3.13,-0.15,3.13,-0.17,0.19,0.40,0.72,3.33,3.32,3.29
34.23,3.15,-0.13,3.15,-0.14,0.16,0.37,0.70,3.32,3.31,3.29
34.57,3.15,-0.12,3.16,-0.12,0.14,0.35,0.68,3.29,3.29,3.28
34.92,3.15,-0.12,3.16,-0.12,0.11,0.33,0.65,3.27,3.27,3.28
35.27,3.16,-0.11,3.17,-0.10,0.09,0.30,0.62,3.26,3.26,3.27
35.62,3.18,-0.08,3.18,-0.09,0.08,0.28,0.59,3.26,3.26,3.27
35.97,3.20,-0.06,3.20,-0.06,0.06,0.25,0.56,3.26,3.26,3.27
36.33,3.22,-0.04,3.22,-0.04,0.04,0.23,0.53,3.26,3.26,3.27
36.70,3.24,-0.02,3.24,-0.02,0.02,0.20,0.50,3.26,3.26,3.26
37.06,3.26,0.01,3.27,0.00,-0.01,0.18,0.47,3.26,3.26,3.26
37.43,3.30,0.03,3.30,0.04,-0.03,0.15,0.44,3.27,3.27,3.27
37.81,3.33,0.07,3.33,0.06,-0.05,0.13,0.40,3.29,3.28,3.27
38.19,3.35,0.09,3.35,0.08,-0.07,0.10,0.37,3.28,3.28,3.26
38.57,3.35,0.09,3.36,0.09,-0.09,0.07,0.33,3.26,3.26,3.27
38.95,3.35,0.08,3.37,0.09,-0.11,0.04,0.30,3.24,3.25,3.28
39.34,3.38,0.12,3.39,0.12,-0.13,0.02,0.26,3.26,3.26,3.27
39.74,3.42,0.15,3.42,0.15,-0.14,-0.01,0.23,3.28,3.28,3.27
40.14,3.45,0.18,3.45,0.18,-0.16,-0.04,0.19,3.30,3.29,3.27
40.54,3.45,0.19,3.46,0.19,-0.17,-0.07,0.16,3.28,3.29,3.27
40.94,3.45,0.20,3.46,0.19,-0.19,-0.10,0.12,3.27,3.27,3.26
41.35,3.45,0.20,3.45,0.19,-0.21,-0.12,0.09,3.25,3.24,3.26
41.76,3.45,0.21,3.46,0.21,-0.23,-0.15,0.05,3.23,3.23,3.25
42.18,3.47,0.23,3.49,0.24,-0.25,-0.18,0.01,3.22,3.24,3.25
42.60,3.52,0.29,3.52,0.28,-0.28,-0.21,-0.02,3.25,3.24,3.24
43.03,3.56,0.34,3.55,0.32,-0.31,-0.24,-0.06,3.25,3.24,3.23
43.46,3.56,0.35,3.56,0.35,-0.35,-0.27,-0.10,3.21,3.21,3.22
43.90,3.56,0.36,3.58,0.38,-0.39,-0.30,-0.13,3.17,3.19,3.20
44.33,3.59,0.42,3.60,0.42,-0.43,-0.34,-0.17,3.17,3.17,3.18
44.78,3.64,0.48,3.63,0.47,-0.46,-0.37,-0.21,3.18,3.17,3.16
45.23,3.66,0.51,3.66,0.51,-0.49,-0.40,-0.24,3.17,3.17,3.15
45.68,3.66,0.53,3.67,0.53,-0.51,-0.43,-0.28,3.15,3.15,3.14
46.13,3.66,0.55,3.67,0.54,-0.53,-0.46,-0.32,3.14,3.14,3.12
46.60,3.66,0.55,3.66,0.55,-0.54,-0.50,-0.35,3.12,3.12,3.12
47.06,3.66,0.57,3.66,0.56,-0.56,-0.53,-0.39,3.11,3.11,3.10
47.53,3.66,0.58,3.67,0.57,-0.57,-0.56,-0.43,3.09,3.09,3.09
48.01,3.66,0.58,3.66,0.57,-0.60,-0.59,-0.47,3.07,3.06,3.09
48.49,3.66,0.60,3.66,0.59,-0.63,-0.63,-0.50,3.03,3.02,3.07
48.97,3.65,0.61,3.69,0.64,-0.67,-0.66,-0.54,2.98,3.01,3.05
49.46,3.73,0.71,3.74,0.71,-0.72,-0.70,-0.58,3.02,3.02,3.03
49.96,3.82,0.81,3.80,0.78,-0.76,-0.73,-0.61,3.06,3.03,3.01
50.46,3.84,0.84,3.85,0.85,-0.81,-0.77,-0.65,3.04,3.04,3.00
50.96,3.86,0.88,3.87,0.88,-0.85,-0.80,-0.69,3.02,3.02,2.99
51.47,3.86,0.90,3.87,0.89,-0.88,-0.84,-0.73,2.98,2.98,2.97
51.99,3.86,0.91,3.87,0.91,-0.91,-0.87,-0.76,2.96,2.96,2.96
52.51,3.86,0.92,3.86,0.91,-0.92,-0.91,-0.80,2.94,2.94,2.95
53.03,3.86,0.92,3.86,0.92,-0.93,-0.94,-0.84,2.93,2.93,2.95
53.56,3.86,0.94,3.86,0.93,-0.94,-0.98,-0.88,2.93,2.93,2.93
54.10,3.86,0.95,3.86,0.95,-0.94,-1.02,-0.91,2.92,2.92,2.92
54.64,3.86,0.97,3.86,0.96,-0.95,-1.05,-0.95,2.91,2.91,2.90
55.18,3.86,0.97,3.86,0.97,-0.97,-1.09,-0.99,2.90,2.90,2.90
55.74,3.86,0.99,3.86,0.98,-0.98,-1.13,-1.02,2.88,2.88,2.88
56.29,3.86,1.00,3.86,0.99,-1.01,-1.16,-1.06,2.86,2.86,2.87
56.86,3.86,1.01,3.87,1.02,-1.03,-1.20,-1.09,2.83,2.84,2.86
57.42,3.88,1.06,3.89,1.05,-1.06,-1.24,-1.13,2.83,2.83,2.83
58.00,3.91,1.10,3.92,1.10,-1.09,-1.28,-1.16,2.82,2.83,2.82
58.58,3.94,1.14,3.94,1.14,-1.12,-1.32,-1.20,2.82,2.82,2.81
59.16,3.97,1.19,3.96,1.17,-1.16,-1.36,-1.23,2.81,2.80,2.79
59.76,3.96,1.20,3.97,1.20,-1.20,-1.39,-1.26,2.76,2.77,2.77
60.35,3.96,1.24,3.97,1.24,-1.24,-1.43,-1.30,2.72,2.73,2.73
60.96,3.96,1.27,3.96,1.27,-1.28,-1.47,-1.33,2.68,2.68,2.69
61.57,3.96,1.31,3.96,1.32,-1.32,-1.51,-1.36,2.65,2.65,2.65
62.18,3.96,1.36,3.96,1.36,-1.36,-1.55,-1.39,2.61,2.61,2.61
62.80,3.96,1.41,3.96,1.40,-1.40,-1.59,-1.42,2.56,2.56,2.56
63.43,3.96,1.45,3.96,1.45,-1.44,-1.63,-1.45,2.52,2.52,2.52
64.07,3.96,1.49,3.96,1.49,-1.49,-1.67,-1.48,2.48,2.48,2.47
64.71,3.96,1.53,3.96,1.53,-1.53,-1.71,-1.51,2.43,2.43,2.43
65.35,3.96,1.58,3.96,1.58,-1.58,-1.75,-1.54,2.38,2.38,2.39
66.01,3.96,1.62,3.96,1.63,-1.63,-1.79,-1.57,2.34,2.34,2.34
66.67,3.96,1.68,3.96,1.67,-1.67,-1.83,-1.59,2.29,2.29,2.29
67.33,3.96,1.73,3.96,1.72,-1.72,-1.87,-1.62,2.25,2.25,2.24
68.01,3.96,1.77,3.96,1.77,-1.77,-1.91,-1.65,2.20,2.20,2.20
68.69,3.96,1.82,3.96,1.82,-1.82,-1.95,-1.68,2.15,2.15,2.15
69.37,3.96,1.87,3.96,1.86,-1.87,-1.99,-1.71,2.09,2.09,2.10
70.07,3.96,1.92,3.96,1.91,-1.93,-2.04,-1.73,2.04,2.04,2.05
70.77,3.96,1.97,3.96,1.97,-1.98,-2.08,-1.76,1.99,1.99,2.00
71.48,3.96,2.01,3.96,2.02,-2.03,-2.12,-1.79,1.94,1.94,1.95
72.19,3.96,2.09,3.97,2.09,-2.07,-2.16,-1.82,1.90,1.90,1.88
72.91,3.96,2.15,3.97,2.15,-2.11,-2.20,-1.85,1.85,1.86,1.82
73.64,3.96,2.20,3.94,2.18,-2.15,-2.24,-1.88,1.81,1.79,1.77
74.38,3.91,2.21,3.90,2.19,-2.19,-2.28,-1.92,1.72,1.70,1.71
75.12,3.82,2.18,3.86,2.21,-2.24,-2.32,-1.95,1.59,1.62,1.65
75.87,3.82,2.24,3.83,2.24,-2.28,-2.36,-1.99,1.55,1.56,1.59
76.63,3.85,2.32,3.84,2.30,-2.32,-2.41,-2.02,1.53,1.52,1.54
77.40,3.86,2.38,3.86,2.37,-2.37,-2.45,-2.06,1.50,1.49,1.49
78.17,3.86,2.44,3.87,2.43,-2.41,-2.49,-2.10,1.45,1.45,1.43
78.95,3.86,2.48,3.87,2.48,-2.47,-2.53,-2.14,1.40,1.40,1.39
79.74,3.86,2.53,3.86,2.53,-2.52,-2.57,-2.18,1.34,1.34,1.34
80.54,3.86,2.58,3.86,2.58,-2.58,-2.61,-2.23,1.28,1.28,1.29
81.35,3.86,2.63,3.86,2.62,-2.63,-2.65,-2.27,1.23,1.23,1.24
82.16,3.86,2.68,3.86,2.67,-2.68,-2.69,-2.32,1.19,1.19,1.19
82.98,3.86,2.72,3.86,2.72,-2.72,-2.73,-2.37,1.15,1.15,1.15
83.81,3.86,2.77,3.87,2.77,-2.76,-2.77,-2.42,1.10,1.10,1.10
84.65,3.86,2.82,3.87,2.82,-2.81,-2.81,-2.47,1.06,1.06,1.05
85.50,3.86,2.86,3.87,2.86,-2.85,-2.85,-2.53,1.02,1.02,1.01
86.35,3.85,2.90,3.82,2.86,-2.88,-2.89,-2.59,0.97,0.94,0.96
87.22,3.79,2.89,3.79,2.88,-2.91,-2.93,-2.65,0.89,0.88,0.91
88.09,3.71,2.86,3.79,2.94,-2.92,-2.97,-2.71,0.79,0.87,0.86
88.97,3.81,3.01,3.78,2.98,-2.94,-3.01,-2.77,0.88,0.85,0.80
89.86,3.82,3.08,3.74,2.99,-2.95,-3.04,-2.84,0.88,0.79,0.75
90.76,3.64,2.94,3.67,2.97,-2.96,-3.08,-2.91,0.67,0.71,0.70
91.66,3.53,2.89,3.58,2.94,-2.98,-3.12,-2.98,0.55,0.60,0.65
92.58,3.54,2.96,3.53,2.94,-3.00,-3.16,-3.05,0.54,0.53,0.59
93.51,3.56,3.02,3.55,3.00,-3.03,-3.19,-3.12,0.54,0.52,0.54
94.44,3.56,3.07,3.57,3.07,-3.06,-3.23,-3.20,0.51,0.51,0.50
95.39,3.56,3.11,3.57,3.12,-3.09,-3.26,-3.28,0.47,0.47,0.45
96.34,3.56,3.17,3.56,3.16,-3.14,-3.30,-3.36,0.42,0.42,0.40
97.30,3.55,3.21,3.55,3.20,-3.19,-3.33,-3.44,0.36,0.36,0.35
98.28,3.54,3.25,3.54,3.24,-3.25,-3.37,-3.52,0.29,0.29,0.30
99.26,3.53,3.28,3.55,3.29,-3.30,-3.40,-3.60,0.23,0.25,0.26
100.25,3.56,3.36,3.56,3.35,-3.36,-3.44,-3.69,0.21,0.21,0.21
101.25,3.59,3.44,3.58,3.42,-3.41,-3.47,-3.78,0.18,0.16,0.16
102.27,3.58,3.48,3.59,3.48,-3.48,-3.50,-3.86,0.10,0.11,0.11
103.29,3.59,3.54,3.59,3.53,-3.55,-3.53,-3.95,0.05,0.04,0.06
104.32,3.59,3.58,3.61,3.59,-3.61,-3.56,-4.04,-0.02,0.00,0.02
105.37,3.63,3.66,3.65,3.68,-3.68,-3.59,-4.12,-0.04,-0.03,-0.03
106.42,3.70,3.79,3.67,3.76,-3.74,-3.62,-4.21,-0.03,-0.07,-0.08
107.48,3.68,3.83,3.68,3.82,-3.80,-3.65,-4.29,-0.11,-0.11,-0.14
108.56,3.65,3.85,3.66,3.86,-3.85,-3.68,-4.37,-0.19,-0.18,-0.19
109.64,3.63,3.88,3.63,3.88,-3.89,-3.71,-4.45,-0.25,-0.26,-0.24
110.74,3.61,3.92,3.63,3.93,-3.93,-3.74,-4.53,-0.31,-0.29,-0.30
111.85,3.62,3.97,3.62,3.97,-3.96,-3.76,-4.61,-0.34,-0.34,-0.34
112.97,3.63,4.03,3.59,3.99,-3.99,-3.79,-4.68,-0.35,-0.40,-0.40
114.10,3.53,3.99,3.55,4.00,-4.01,-3.81,-4.74,-0.48,-0.46,-0.45
115.24,3.48,3.99,3.51,4.01,-4.04,-3.84,-4.80,-0.55,-0.52,-0.50
116.39,3.49,4.05,3.49,4.04,-4.06,-3.86,-4.86,-0.56,-0.57,-0.55
117.55,3.50,4.10,3.50,4.09,-4.07,-3.89,-4.91,-0.57,-0.58,-0.59
118.73,3.49,4.13,3.48,4.11,-4.08,-3.91,-4.95,-0.59,-0.60,-0.63
119.92,3.44,4.11,3.44,4.10,-4.09,-3.93,-4.99,-0.64,-0.65,-0.66
121.12,3.37,4.08,3.39,4.09,-4.09,-3.95,-5.02,-0.71,-0.70,-0.70
122.33,3.33,4.07,3.35,4.08,-4.08,-3.97,-5.04,-0.74,-0.73,-0.73
123.55,3.32,4.09,3.32,4.08,-4.07,-3.99,-5.06,-0.74,-0.75,-0.76
124.79,3.29,4.09,3.28,4.07,-4.05,-4.01,-5.06,-0.76,-0.77,-0.79
126.03,3.23,4.06,3.24,4.05,-4.05,-4.03,-5.06,-0.81,-0.81,-0.82
127.29,3.18,4.03,3.19,4.03,-4.06,-4.05,-5.05,-0.87,-0.87,-0.84
128.57,3.15,4.04,3.16,4.04,-4.08,-4.07,-5.04,-0.93,-0.92,-0.88
129.85,3.15,4.07,3.16,4.07,-4.12,-4.09,-5.01,-0.97,-0.96,-0.91
131.15,3.20,4.15,3.20,4.14,-4.17,-4.11,-4.98,-0.96,-0.97,-0.94
132.46,3.24,4.22,3.26,4.23,-4.22,-4.13,-4.94,-0.98,-0.97,-0.97
133.79,3.32,4.32,3.32,4.32,-4.28,-4.14,-4.90,-0.96,-0.97,-1.00
135.12,3.37,4.41,3.36,4.38,-4.35,-4.16,-4.85,-0.97,-0.99,-1.03
136.48,3.37,4.43,3.38,4.44,-4.41,-4.18,-4.80,-1.03,-1.03,-1.05
137.84,3.37,4.47,3.38,4.47,-4.46,-4.20,-4.73,-1.09,-1.08,-1.09
139.22,3.38,4.51,3.38,4.50,-4.51,-4.21,-4.67,-1.12,-1.12,-1.12
140.61,3.38,4.54,3.38,4.53,-4.54,-4.23,-4.60,-1.16,-1.16,-1.15
142.02,3.38,4.56,3.39,4.56,-4.57,-4.25,-4.53,-1.19,-1.19,-1.17
143.44,3.38,4.59,3.38,4.59,-4.60,-4.27,-4.45,-1.21,-1.21,-1.20
144.87,3.38,4.63,3.39,4.63,-4.62,-4.28,-4.37,-1.24,-1.24,-1.24
146.32,3.38,4.67,3.39,4.66,-4.65,-4.30,-4.29,-1.27,-1.26,-1.28
147.78,3.38,4.70,3.37,4.69,-4.69,-4.32,-4.21,-1.30,-1.32,-1.31
149.26,3.35,4.72,3.34,4.71,-4.72,-4.34,-4.13,-1.37,-1.38,-1.36
150.75,3.29,4.72,3.32,4.74,-4.76,-4.36,-4.05,-1.47,-1.44,-1.42
152.26,3.28,4.78,3.29,4.78,-4.80,-4.38,-3.97,-1.52,-1.51,-1.49
153.78,3.28,4.85,3.26,4.82,-4.83,-4.40,-3.88,-1.55,-1.57,-1.56
155.32,3.21,4.85,3.23,4.86,-4.86,-4.42,-3.80,-1.64,-1.62,-1.63
156.88,3.18,4.90,3.17,4.88,-4.86,-4.44,-3.72,-1.67,-1.69,-1.71
158.44,3.07,4.87,3.09,4.88,-4.84,-4.46,-3.64,-1.77,-1.76,-1.79
160.03,2.98,4.86,2.99,4.86,-4.80,-4.49,-3.57,-1.82,-1.81,-1.87
161.63,2.87,4.82,2.86,4.79,-4.74,-4.51,-3.49,-1.87,-1.89,-1.94
163.24,2.71,4.71,2.70,4.71,-4.68,-4.53,-3.41,-1.96,-1.97,-2.00
164.88,2.52,4.58,2.54,4.60,-4.61,-4.56,-3.34,-2.08,-2.06,-2.05
166.53,2.38,4.49,2.38,4.48,-4.54,-4.58,-3.27,-2.16,-2.16,-2.10
168.19,2.27,4.42,2.27,4.41,-4.49,-4.60,-3.20,-2.22,-2.22,-2.14
169.87,2.17,4.36,2.22,4.39,-4.45,-4.62,-3.14,-2.28,-2.23,-2.18
171.57,2.22,4.43,2.21,4.41,-4.43,-4.64,-3.07,-2.20,-2.22,-2.20
173.29,2.24,4.46,2.22,4.44,-4.42,-4.66,-3.01,-2.18,-2.20,-2.21
175.02,2.23,4.46,2.24,4.47,-4.43,-4.68,-2.95,-2.19,-2.18,-2.22
176.77,2.23,4.47,2.24,4.47,-4.44,-4.69,-2.89,-2.20,-2.20,-2.23
178.54,2.23,4.48,2.24,4.47,-4.45,-4.70,-2.84,-2.21,-2.21,-2.24
180.32,2.23,4.47,2.22,4.45,-4.45,-4.71,-2.78,-2.22,-2.23,-2.23
182.13,2.20,4.43,2.19,4.42,-4.44,-4.71,-2.73,-2.23,-2.25,-2.22
183.95,2.13,4.37,2.18,4.40,-4.41,-4.71,-2.69,-2.28,-2.24,-2.23
185.79,2.14,4.38,2.16,4.39,-4.38,-4.70,-2.64,-2.24,-2.22,-2.23
187.65,2.17,4.43,2.12,4.36,-4.34,-4.68,-2.60,-2.17,-2.23,-2.25
189.52,2.05,4.32,2.05,4.32,-4.31,-4.65,-2.55,-2.25,-2.25,-2.26
191.42,1.93,4.22,1.97,4.25,-4.27,-4.62,-2.51,-2.33,-2.30,-2.28
193.33,1.87,4.18,1.88,4.18,-4.22,-4.58,-2.48,-2.34,-2.33,-2.30
195.27,1.84,4.17,1.83,4.15,-4.16,-4.53,-2.44,-2.31,-2.33,-2.32
197.22,1.78,4.13,1.78,4.12,-4.09,-4.46,-2.40,-2.31,-2.31,-2.34
199.19,1.69,4.06,1.70,4.06,-4.02,-4.40,-2.37,-2.33,-2.32,-2.36
201.18,1.60,3.99,1.59,3.97,-3.96,-4.31,-2.34,-2.36,-2.37,-2.38
203.19,1.46,3.86,1.46,3.86,-3.89,-4.23,-2.31,-2.43,-2.43,-2.40
205.23,1.33,3.76,1.36,3.78,-3.82,-4.13,-2.28,-2.49,-2.46,-2.42
207.28,1.27,3.71,1.29,3.72,-3.74,-4.02,-2.25,-2.47,-2.45,-2.43
209.35,1.24,3.70,1.22,3.67,-3.66,-3.91,-2.22,-2.41,-2.44,-2.45
211.44,1.15,3.63,1.14,3.61,-3.57,-3.79,-2.19,-2.42,-2.43,-2.48
213.56,1.00,3.50,1.01,3.51,-3.49,-3.66,-2.17,-2.48,-2.47,-2.49
215.69,0.88,3.38,0.88,3.38,-3.40,-3.53,-2.14,-2.51,-2.52,-2.50
217.85,0.73,3.25,0.76,3.28,-3.30,-3.39,-2.11,-2.56,-2.53,-2.51
220.03,0.67,3.20,0.68,3.20,-3.19,-3.25,-2.09,-2.52,-2.52,-2.52
222.23,0.59,3.15,0.56,3.10,-3.08,-3.10,-2.06,-2.49,-2.52,-2.55
224.45,0.46,3.00,0.44,2.98,-2.97,-2.96,-2.03,-2.50,-2.53,-2.54
226.70,0.25,2.80,0.30,2.84,-2.86,-2.81,-2.00,-2.60,-2.56,-2.54
228.96,0.16,2.70,0.18,2.71,-2.75,-2.66,-1.97,-2.58,-2.56,-2.53
231.25,0.11,2.64,0.09,2.61,-2.63,-2.51,-1.94,-2.52,-2.55,-2.52
233.57,0.02,2.54,0.01,2.52,-2.52,-2.36,-1.91,-2.49,-2.51,-2.51
235.90,-0.11,2.40,-0.09,2.42,-2.39,-2.20,-1.87,-2.50,-2.48,-2.50
238.26,-0.20,2.30,-0.20,2.28,-2.26,-2.05,-1.83,-2.46,-2.47,-2.49
240.64,-0.31,2.15,-0.31,2.15,-2.13,-1.90,-1.79,-2.44,-2.45,-2.46
243.05,-0.44,2.00,-0.42,2.02,-2.00,-1.75,-1.75,-2.43,-2.42,-2.43
245.48,-0.54,1.88,-0.53,1.87,-1.86,-1.60,-1.71,-2.40,-2.39,-2.41
247.93,-0.65,1.73,-0.67,1.71,-1.73,-1.45,-1.66,-2.37,-2.40,-2.38
250.41,-0.80,1.56,-0.81,1.55,-1.60,-1.31,-1.61,-2.39,-2.40,-2.36
252.92,-0.98,1.36,-0.91,1.42,-1.47,-1.16,-1.56,-2.45,-2.39,-2.33
255.45,-0.99,1.33,-1.00,1.31,-1.35,-1.02,-1.50,-2.33,-2.35,-2.31
258.00,-1.04,1.26,-1.07,1.22,-1.21,-0.87,-1.45,-2.25,-2.28,-2.29
260.58,-1.15,1.13,-1.13,1.14,-1.08,-0.73,-1.39,-2.22,-2.21,-2.27
263.19,-1.26,0.99,-1.25,0.99,-0.94,-0.59,-1.32,-2.19,-2.19,-2.24
265.82,-1.39,0.84,-1.41,0.82,-0.79,-0.45,-1.26,-2.17,-2.19,-2.22
268.48,-1.58,0.63,-1.58,0.61,-0.62,-0.31,-1.19,-2.20,-2.21,-2.20
271.16,-1.79,0.38,-1.77,0.41,-0.44,-0.17,-1.12,-2.23,-2.21,-2.17
273.87,-1.95,0.20,-1.93,0.22,-0.25,-0.04,-1.04,-2.19,-2.17,-2.15
276.61,-2.07,0.06,-2.06,0.06,-0.04,0.10,-0.97,-2.11,-2.11,-2.12
279.38,-2.19,-0.09,-2.22,-0.13,0.16,0.23,-0.89,-2.02,-2.06,-2.09
282.17,-2.41,-0.34,-2.42,-0.36,0.36,0.36,-0.81,-2.04,-2.06,-2.07
284.99,-2.66,-0.63,-2.62,-0.58,0.56,0.50,-0.73,-2.10,-2.06,-2.03
287.84,-2.83,-0.82,-2.80,-0.80,0.76,0.63,-0.64,-2.07,-2.05,-2.01
290.72,-2.92,-0.94,-2.95,-0.97,0.96,0.75,-0.56,-1.96,-1.99,-1.98
293.63,-3.09,-1.13,-3.08,-1.13,1.16,0.88,-0.47,-1.92,-1.92,-1.95
296.57,-3.22,-1.29,-3.22,-1.30,1.35,1.01,-0.38,-1.86,-1.87,-1.92
299.53,-3.40,-1.50,-3.39,-1.49,1.51,1.13,-0.29,-1.88,-1.87,-1.89
302.53,-3.54,-1.66,-3.56,-1.70,1.65,1.26,-0.20,-1.88,-1.91,-1.87
305.55,-3.71,-1.87,-3.70,-1.86,1.78,1.38,-0.11,-1.92,-1.92,-1.83
308.61,-3.85,-2.03,-3.79,-1.98,1.90,1.50,-0.01,-1.94,-1.89,-1.81
311.69,-3.79,-2.00,-3.82,-2.04,2.02,1.62,0.08,-1.77,-1.80,-1.78
314.81,-3.84,-2.07,-3.81,-2.05,2.12,1.74,0.18,-1.71,-1.69,-1.76
317.96,-3.82,-2.07,-3.85,-2.10,2.22,1.86,0.28,-1.60,-1.63,-1.74
321.14,-3.93,-2.19,-3.98,-2.25,2.30,1.97,0.38,-1.63,-1.69,-1.73
324.35,-4.15,-2.43,-4.12,-2.40,2.37,2.09,0.48,-1.78,-1.75,-1.71
327.59,-4.30,-2.59,-4.19,-2.49,2.43,2.20,0.58,-1.87,-1.76,-1.70
330.87,-4.23,-2.53,-4.26,-2.57,2.49,2.31,0.68,-1.74,-1.77,-1.69
334.18,-4.16,-2.48,-4.29,-2.62,2.57,2.42,0.79,-1.59,-1.72,-1.67
337.52,-4.44,-2.77,-4.31,-2.65,2.67,2.53,0.89,-1.77,-1.64,-1.66
340.90,-4.38,-2.72,-4.34,-2.69,2.78,2.63,1.00,-1.60,-1.56,-1.65
344.30,-4.34,-2.69,-4.40,-2.76,2.87,2.73,1.10,-1.46,-1.53,-1.64
347.75,-4.45,-2.80,-4.50,-2.86,2.97,2.83,1.21,-1.47,-1.53,-1.64
351.23,-4.75,-3.11,-4.73,-3.10,3.09,2.93,1.32,-1.66,-1.65,-1.63
354.74,-5.01,-3.36,-4.98,-3.35,3.21,3.03,1.43,-1.80,-1.77,-1.64
358.28,-5.16,-3.52,-5.09,-3.46,3.33,3.12,1.54,-1.82,-1.75,-1.63
361.87,-5.14,-3.50,-5.09,-3.46,3.45,3.21,1.65,-1.68,-1.64,-1.63
365.49,-4.96,-3.34,-5.10,-3.48,3.55,3.30,1.77,-1.41,-1.55,-1.62
369.14,-5.17,-3.53,-5.19,-3.56,3.62,3.38,1.88,-1.54,-1.57,-1.63
372.83,-5.39,-3.75,-5.33,-3.70,3.68,3.46,2.00,-1.70,-1.65,-1.63
376.56,-5.49,-3.84,-5.40,-3.76,3.71,3.54,2.11,-1.77,-1.68,-1.64
380.33,-5.38,-3.74,-5.37,-3.73,3.73,3.61,2.23,-1.65,-1.64,-1.63
384.13,-5.20,-3.56,-5.36,-3.73,3.73,3.68,2.35,-1.47,-1.64,-1.63
387.97,-5.41,-3.76,-5.37,-3.73,3.72,3.75,2.47,-1.68,-1.65,-1.64
391.85,-5.53,-3.87,-5.39,-3.75,3.70,3.81,2.59,-1.82,-1.69,-1.65
395.77,-5.34,-3.69,-5.38,-3.74,3.68,3.87,2.71,-1.66,-1.70,-1.64
399.73,-5.25,-3.59,-5.30,-3.65,3.67,3.92,2.83,-1.58,-1.63,-1.65
403.72,-5.26,-3.60,-5.23,-3.57,3.68,3.98,2.95,-1.58,-1.55,-1.65
407.76,-5.26,-3.58,-5.23,-3.56,3.70,4.02,3.07,-1.56,-1.53,-1.67
411.84,-5.26,-3.58,-5.33,-3.66,3.72,4.06,3.19,-1.54,-1.61,-1.67
415.96,-5.40,-3.72,-5.44,-3.77,3.74,4.10,3.31,-1.66,-1.71,-1.67
420.12,-5.67,-3.99,-5.50,-3.83,3.75,4.13,3.42,-1.91,-1.74,-1.67
424.32,-5.52,-3.84,-5.55,-3.88,3.77,4.16,3.54,-1.75,-1.78,-1.67
428.56,-5.39,-3.72,-5.52,-3.86,3.78,4.19,3.65,-1.61,-1.75,-1.66
432.85,-5.54,-3.88,-5.41,-3.75,3.77,4.21,3.76,-1.77,-1.64,-1.65
437.18,-5.36,-3.72,-5.33,-3.70,3.73,4.22,3.87,-1.62,-1.60,-1.64
441.55,-5.16,-3.55,-5.26,-3.65,3.69,4.24,3.97,-1.47,-1.57,-1.60
445.96,-5.19,-3.61,-5.19,-3.62,3.64,4.24,4.07,-1.55,-1.55,-1.57
450.42,-5.18,-3.63,-5.11,-3.58,3.59,4.24,4.16,-1.58,-1.52,-1.54
454.93,-5.12,-3.62,-5.04,-3.54,3.55,4.24,4.25,-1.56,-1.48,-1.49
459.48,-4.83,-3.38,-4.99,-3.54,3.53,4.24,4.33,-1.29,-1.45,-1.45
464.07,-4.94,-3.53,-4.95,-3.55,3.53,4.23,4.40,-1.40,-1.42,-1.40
468.71,-5.05,-3.70,-4.89,-3.54,3.54,4.21,4.47,-1.50,-1.34,-1.34
473.40,-4.84,-3.53,-4.85,-3.56,3.57,4.20,4.53,-1.27,-1.28,-1.30
478.13,-4.68,-3.43,-4.79,-3.54,3.59,4.17,4.58,-1.09,-1.20,-1.24
482.91,-4.78,-3.57,-4.78,-3.58,3.62,4.15,4.62,-1.16,-1.16,-1.20
487.74,-4.90,-3.73,-4.84,-3.68,3.65,4.12,4.65,-1.25,-1.19,-1.16
492.62,-4.90,-3.78,-4.85,-3.74,3.68,4.09,4.67,-1.22,-1.18,-1.11
497.55,-4.81,-3.71,-4.84,-3.75,3.71,4.05,4.68,-1.10,-1.13,-1.09
502.52,-4.74,-3.67,-4.80,-3.74,3.74,4.01,4.68,-1.00,-1.06,-1.06
