frequency,raw,error,smoothed,error_smoothed,equalization,parametric_eq,fixed_band_eq,equalized_raw,equalized_smoothed,target
20.00,2.25,-10.47,2.27,-10.44,10.44,9.98,3.71,12.69,12.72,12.71
20.20,2.33,-10.38,2.34,-10.37,10.37,9.95,3.81,12.70,12.71,12.70
20.40,2.40,-10.29,2.40,-10.30,10.30,9.91,3.91,12.70,12.70,12.69
20.61,2.48,-10.22,2.46,-10.22,10.22,9.87,4.02,12.70,12.69,12.69
20.81,2.56,-10.11,2.53,-10.15,10.15,9.83,4.13,12.71,12.68,12.67
21.02,2.63,-10.04,2.59,-10.08,10.08,9.79,4.24,12.71,12.67,12.67
21.23,2.68,-9.98,2.65,-10.01,10.01,9.75,4.36,12.68,12.66,12.66
21.44,2.72,-9.95,2.72,-9.94,9.94,9.71,4.48,12.65,12.65,12.67
21.66,2.76,-9.90,2.78,-9.86,9.86,9.67,4.60,12.62,12.65,12.66
21.87,2.81,-9.84,2.85,-9.79,9.79,9.63,4.72,12.60,12.64,12.65
22.09,2.87,-9.77,2.91,-9.72,9.72,9.58,4.85,12.59,12.64,12.64
22.31,2.96,-9.68,2.98,-9.65,9.65,9.54,4.99,12.61,12.63,12.63
22.54,3.05,-9.58,3.04,-9.58,9.58,9.49,5.12,12.63,12.62,12.62
22.76,3.14,-9.48,3.10,-9.52,9.52,9.45,5.26,12.66,12.62,12.62
22.99,3.23,-9.38,3.17,-9.45,9.45,9.40,5.41,12.68,12.62,12.61
23.22,3.27,-9.33,3.23,-9.38,9.38,9.35,5.55,12.65,12.61,12.60
23.45,3.32,-9.29,3.30,-9.30,9.30,9.30,5.70,12.62,12.61,12.61
23.69,3.36,-9.24,3.38,-9.23,9.23,9.25,5.85,12.59,12.61,12.60
23.92,3.41,-9.19,3.45,-9.15,9.15,9.20,6.01,12.56,12.60,12.60
24.16,3.48,-9.13,3.52,-9.08,9.08,9.15,6.17,12.56,12.60,12.60
24.40,3.57,-9.04,3.59,-9.01,9.01,9.09,6.33,12.58,12.60,12.61
24.65,3.65,-8.96,3.66,-8.94,8.94,9.04,6.50,12.59,12.61,12.61
24.89,3.74,-8.87,3.73,-8.88,8.88,8.99,6.67,12.62,12.61,12.61
25.14,3.82,-8.79,3.80,-8.81,8.81,8.93,6.84,12.63,12.61,12.61
25.39,3.89,-8.72,3.86,-8.75,8.75,8.87,7.01,12.64,12.61,12.61
25.65,3.96,-8.65,3.93,-8.68,8.68,8.82,7.18,12.64,12.61,12.60
25.91,4.02,-8.60,4.00,-8.62,8.62,8.76,7.36,12.63,12.61,12.61
26.16,4.09,-8.53,4.07,-8.55,8.55,8.70,7.53,12.64,12.61,12.62
26.43,4.14,-8.48,4.14,-8.48,8.48,8.64,7.71,12.61,12.61,12.62
26.69,4.20,-8.42,4.21,-8.41,8.41,8.58,7.88,12.61,12.61,12.62
26.96,4.25,-8.37,4.27,-8.34,8.34,8.52,8.05,12.59,12.61,12.61
27.23,4.32,-8.29,4.34,-8.27,8.27,8.46,8.22,12.59,12.61,12.61
27.50,4.39,-8.22,4.41,-8.20,8.20,8.40,8.39,12.59,12.61,12.61
27.77,4.45,-8.17,4.48,-8.13,8.13,8.34,8.55,12.58,12.61,12.62
28.05,4.53,-8.09,4.55,-8.06,8.06,8.28,8.70,12.59,12.61,12.61
28.33,4.62,-7.98,4.63,-7.98,7.98,8.21,8.85,12.60,12.61,12.60
28.62,4.71,-7.89,4.70,-7.91,7.91,8.15,8.99,12.61,12.61,12.60
28.90,4.80,-7.81,4.77,-7.83,7.83,8.08,9.12,12.63,12.60,12.61
29.19,4.87,-7.73,4.84,-7.76,7.76,8.02,9.23,12.63,12.60,12.60
29.48,4.92,-7.68,4.91,-7.69,7.69,7.95,9.34,12.61,12.60,12.60
29.78,4.98,-7.62,4.97,-7.63,7.63,7.88,9.43,12.60,12.59,12.60
30.08,5.04,-7.57,5.02,-7.56,7.56,7.82,9.50,12.60,12.59,12.60
30.38,5.10,-7.49,5.08,-7.50,7.50,7.75,9.56,12.60,12.58,12.59
30.68,5.16,-7.42,5.13,-7.45,7.45,7.68,9.60,12.60,12.57,12.57
30.99,5.23,-7.34,5.18,-7.39,7.39,7.61,9.63,12.62,12.57,12.57
31.30,5.24,-7.32,5.22,-7.34,7.34,7.54,9.63,12.57,12.56,12.56
31.61,5.25,-7.30,5.27,-7.28,7.28,7.47,9.62,12.53,12.55,12.55
31.93,5.27,-7.27,5.32,-7.23,7.23,7.40,9.58,12.50,12.54,12.54
32.24,5.32,-7.22,5.37,-7.17,7.17,7.33,9.54,12.49,12.54,12.53
32.57,5.38,-7.14,5.42,-7.11,7.11,7.26,9.47,12.49,12.53,12.52
32.89,5.45,-7.07,5.48,-7.04,7.04,7.18,9.39,12.49,12.52,12.51
33.22,5.51,-7.00,5.53,-6.98,6.98,7.11,9.29,12.49,12.51,12.51
33.55,5.58,-6.93,5.59,-6.92,6.92,7.04,9.18,12.50,12.51,12.50
33.89,5.65,-6.86,5.63,-6.87,6.87,6.96,9.06,12.52,12.50,12.51
34.23,5.72,-6.78,5.68,-6.81,6.81,6.89,8.92,12.53,12.50,12.49
34.57,5.78,-6.71,5.74,-6.75,6.75,6.81,8.78,12.53,12.49,12.49
34.92,5.85,-6.63,5.80,-6.68,6.68,6.74,8.63,12.53,12.48,12.48
35.27,5.90,-6.59,5.86,-6.62,6.62,6.66,8.47,12.52,12.47,12.48
35.62,5.94,-6.53,5.91,-6.55,6.55,6.59,8.30,12.49,12.46,12.47
35.97,5.99,-6.47,5.96,-6.49,6.49,6.51,8.13,12.48,12.45,12.46
36.33,5.99,-6.46,6.01,-6.42,6.42,6.43,7.96,12.41,12.44,12.44
36.70,5.99,-6.44,6.06,-6.36,6.36,6.35,7.79,12.34,12.42,12.43
37.06,6.01,-6.40,6.12,-6.28,6.28,6.28,7.61,12.29,12.40,12.41
37.43,6.13,-6.25,6.17,-6.21,6.21,6.20,7.44,12.34,12.38,12.38
37.81,6.26,-6.10,6.22,-6.14,6.14,6.12,7.26,12.40,12.36,12.36
38.19,6.33,-6.01,6.27,-6.06,6.06,6.04,7.09,12.39,12.33,12.33
38.57,6.35,-5.96,6.32,-5.99,5.99,5.96,6.91,12.33,12.30,12.30
38.95,6.37,-5.91,6.38,-5.89,5.89,5.88,6.74,12.26,12.28,12.27
39.34,6.44,-5.80,6.45,-5.79,5.79,5.80,6.57,12.23,12.25,12.23
39.74,6.53,-5.69,6.52,-5.70,5.70,5.72,6.40,12.23,12.22,12.21
40.14,6.59,-5.60,6.58,-5.61,5.61,5.64,6.24,12.19,12.19,12.18
40.54,6.63,-5.53,6.64,-5.51,5.51,5.56,6.07,12.14,12.16,12.15
40.94,6.66,-5.46,6.70,-5.42,5.42,5.47,5.92,12.08,12.13,12.12
41.35,6.73,-5.37,6.76,-5.34,5.34,5.39,5.76,12.07,12.10,12.10
41.76,6.80,-5.26,6.81,-5.26,5.26,5.31,5.61,12.06,12.07,12.06
42.18,6.88,-5.16,6.85,-5.19,5.19,5.23,5.46,12.06,12.04,12.04
42.60,6.99,-5.02,6.90,-5.10,5.10,5.14,5.31,12.09,12.01,12.01
43.03,7.08,-4.90,6.96,-5.02,5.02,5.06,5.17,12.10,11.98,11.98
43.46,7.01,-4.94,7.01,-4.94,4.94,4.98,5.03,11.95,11.95,11.94
43.90,6.95,-4.97,7.05,-4.87,4.87,4.89,4.90,11.82,11.92,11.92
44.33,7.03,-4.86,7.09,-4.79,4.79,4.81,4.77,11.82,11.89,11.89
44.78,7.16,-4.69,7.14,-4.72,4.72,4.72,4.64,11.87,11.85,11.85
45.23,7.21,-4.63,7.17,-4.64,4.64,4.64,4.52,11.85,11.82,11.83
45.68,7.19,-4.60,7.21,-4.57,4.57,4.55,4.40,11.76,11.78,11.79
46.13,7.21,-4.53,7.25,-4.49,4.49,4.47,4.28,11.70,11.74,11.74
46.60,7.31,-4.39,7.29,-4.41,4.41,4.38,4.16,11.71,11.70,11.70
47.06,7.39,-4.28,7.34,-4.32,4.32,4.29,4.05,11.71,11.65,11.66
47.53,7.38,-4.25,7.38,-4.23,4.23,4.21,3.94,11.61,11.61,11.62
48.01,7.38,-4.19,7.42,-4.15,4.15,4.12,3.84,11.52,11.56,11.56
48.49,7.43,-4.09,7.46,-4.06,4.06,4.03,3.74,11.48,11.51,11.51
48.97,7.48,-3.98,7.50,-3.96,3.96,3.95,3.64,11.44,11.47,11.46
49.46,7.52,-3.90,7.53,-3.88,3.88,3.86,3.54,11.40,11.42,11.42
49.96,7.57,-3.78,7.56,-3.80,3.80,3.77,3.44,11.37,11.37,11.35
50.46,7.68,-3.63,7.60,-3.71,3.71,3.69,3.35,11.39,11.31,11.30
50.96,7.79,-3.47,7.65,-3.61,3.61,3.60,3.26,11.40,11.26,11.26
51.47,7.71,-3.51,7.69,-3.52,3.52,3.51,3.17,11.23,11.21,11.21
51.99,7.62,-3.54,7.72,-3.44,3.44,3.42,3.09,11.06,11.16,11.16
52.51,7.67,-3.44,7.75,-3.36,3.36,3.33,3.00,11.03,11.11,11.11
53.03,7.72,-3.36,7.78,-3.28,3.28,3.24,2.92,10.99,11.06,11.07
53.56,7.82,-3.20,7.81,-3.19,3.19,3.16,2.84,11.01,11.00,11.01
54.10,7.91,-3.05,7.85,-3.10,3.10,3.07,2.76,11.01,10.95,10.96
54.64,7.89,-3.02,7.90,-3.01,3.01,2.98,2.69,10.90,10.91,10.90
55.18,7.92,-2.92,7.92,-2.94,2.94,2.89,2.61,10.85,10.86,10.84
55.74,8.06,-2.73,7.94,-2.87,2.87,2.80,2.53,10.93,10.81,10.79
56.29,8.04,-2.71,7.97,-2.79,2.79,2.71,2.46,10.83,10.76,10.75
56.86,7.89,-2.81,8.01,-2.70,2.70,2.62,2.38,10.59,10.71,10.70
57.42,7.95,-2.69,8.06,-2.60,2.60,2.53,2.31,10.55,10.66,10.64
58.00,8.08,-2.52,8.10,-2.50,2.50,2.44,2.24,10.58,10.60,10.60
58.58,8.20,-2.37,8.13,-2.42,2.42,2.35,2.17,10.62,10.55,10.56
59.16,8.27,-2.25,8.15,-2.34,2.34,2.26,2.09,10.61,10.49,10.51
59.76,8.22,-2.25,8.19,-2.25,2.25,2.17,2.02,10.46,10.43,10.46
60.35,8.14,-2.26,8.23,-2.15,2.15,2.08,1.95,10.28,10.38,10.39
60.96,8.05,-2.28,8.26,-2.05,2.05,1.99,1.88,10.10,10.32,10.33
61.57,8.32,-1.94,8.29,-1.96,1.96,1.90,1.80,10.28,10.26,10.26
62.18,8.50,-1.69,8.32,-1.87,1.87,1.81,1.73,10.36,10.19,10.18
62.80,8.42,-1.69,8.36,-1.76,1.76,1.72,1.65,10.18,10.13,10.11
63.43,8.39,-1.65,8.39,-1.67,1.67,1.63,1.58,10.06,10.06,10.04
64.07,8.39,-1.59,8.41,-1.58,1.58,1.54,1.51,9.97,9.99,9.98
64.71,8.39,-1.52,8.43,-1.49,1.49,1.45,1.43,9.88,9.92,9.91
65.35,8.48,-1.37,8.46,-1.39,1.39,1.35,1.35,9.87,9.85,9.85
66.01,8.65,-1.13,8.50,-1.29,1.29,1.26,1.28,9.93,9.78,9.78
66.67,8.44,-1.29,8.54,-1.17,1.17,1.17,1.20,9.61,9.71,9.73
67.33,8.41,-1.23,8.57,-1.07,1.07,1.08,1.12,9.48,9.64,9.64
68.01,8.56,-1.02,8.58,-0.99,0.99,0.99,1.04,9.55,9.57,9.58
68.69,8.58,-0.92,8.57,-0.93,0.93,0.90,0.96,9.51,9.50,9.50
69.37,8.59,-0.85,8.58,-0.85,0.85,0.81,0.88,9.44,9.43,9.44
70.07,8.61,-0.75,8.61,-0.75,0.75,0.72,0.80,9.36,9.36,9.36
70.77,8.79,-0.50,8.64,-0.65,0.65,0.63,0.72,9.43,9.28,9.29
71.48,8.79,-0.43,8.66,-0.55,0.55,0.54,0.63,9.34,9.21,9.22
72.19,8.72,-0.42,8.69,-0.45,0.45,0.45,0.55,9.17,9.14,9.13
72.91,8.69,-0.37,8.71,-0.36,0.36,0.36,0.47,9.04,9.06,9.06
73.64,8.63,-0.35,8.73,-0.26,0.26,0.27,0.38,8.89,8.99,8.98
74.38,8.59,-0.33,8.76,-0.16,0.16,0.18,0.29,8.75,8.92,8.91
75.12,8.62,-0.22,8.77,-0.08,0.08,0.09,0.21,8.70,8.85,8.84
75.87,8.77,-0.01,8.79,0.01,-0.01,-0.01,0.12,8.76,8.78,8.77
76.63,8.96,0.25,8.81,0.10,-0.10,-0.10,0.03,8.86,8.71,8.70
77.40,8.99,0.35,8.84,0.19,-0.19,-0.19,-0.06,8.79,8.64,8.64
78.17,8.89,0.32,8.86,0.28,-0.28,-0.28,-0.14,8.60,8.57,8.57
78.95,8.89,0.38,8.88,0.37,-0.37,-0.37,-0.23,8.52,8.51,8.51
79.74,8.89,0.44,8.91,0.47,-0.47,-0.46,-0.33,8.42,8.44,8.45
80.54,8.89,0.51,8.94,0.57,-0.57,-0.54,-0.42,8.32,8.37,8.38
81.35,8.89,0.58,8.97,0.67,-0.67,-0.63,-0.51,8.22,8.31,8.31
82.16,8.91,0.66,8.98,0.74,-0.74,-0.72,-0.60,8.17,8.24,8.25
82.98,9.03,0.85,8.97,0.80,-0.80,-0.81,-0.70,8.23,8.17,8.18
83.81,9.13,1.02,8.97,0.86,-0.86,-0.90,-0.79,8.26,8.10,8.11
84.65,9.05,1.01,8.97,0.93,-0.93,-0.99,-0.89,8.11,8.03,8.03
85.50,8.99,1.04,8.97,1.01,-1.01,-1.08,-0.99,7.98,7.96,7.95
86.35,8.99,1.10,8.99,1.10,-1.10,-1.17,-1.08,7.88,7.89,7.89
87.22,8.99,1.17,9.02,1.20,-1.20,-1.26,-1.18,7.79,7.82,7.82
88.09,8.99,1.25,9.04,1.30,-1.30,-1.34,-1.28,7.69,7.74,7.74
88.97,8.99,1.31,9.06,1.39,-1.39,-1.43,-1.38,7.60,7.67,7.67
89.86,8.96,1.37,9.08,1.49,-1.49,-1.52,-1.49,7.47,7.59,7.59
90.76,8.84,1.32,9.10,1.58,-1.58,-1.61,-1.59,7.25,7.51,7.52
91.66,9.15,1.72,9.11,1.68,-1.68,-1.69,-1.70,7.47,7.43,7.43
92.58,9.35,1.99,9.12,1.77,-1.77,-1.78,-1.80,7.58,7.35,7.36
93.51,9.29,2.01,9.14,1.87,-1.87,-1.87,-1.91,7.42,7.27,7.27
94.44,9.20,2.00,9.16,1.98,-1.98,-1.95,-2.02,7.22,7.18,7.19
95.39,9.20,2.10,9.18,2.09,-2.09,-2.04,-2.13,7.11,7.09,7.10
96.34,9.19,2.18,9.19,2.18,-2.18,-2.12,-2.24,7.01,7.00,7.01
97.30,9.19,2.27,9.18,2.27,-2.27,-2.21,-2.35,6.92,6.91,6.91
98.28,9.18,2.36,9.17,2.35,-2.35,-2.29,-2.46,6.83,6.82,6.82
99.26,9.16,2.44,9.17,2.44,-2.44,-2.38,-2.57,6.71,6.73,6.72
100.25,9.15,2.53,9.17,2.54,-2.54,-2.46,-2.68,6.61,6.63,6.62
101.25,9.13,2.59,9.16,2.62,-2.62,-2.55,-2.80,6.51,6.54,6.54
102.27,9.12,2.68,9.13,2.69,-2.69,-2.63,-2.91,6.43,6.44,6.44
103.29,9.10,2.75,9.11,2.77,-2.77,-2.71,-3.02,6.33,6.35,6.35
104.32,9.08,2.82,9.11,2.86,-2.86,-2.80,-3.14,6.22,6.25,6.26
105.37,9.06,2.89,9.11,2.95,-2.95,-2.88,-3.25,6.11,6.16,6.16
106.42,9.03,2.96,9.11,3.04,-3.04,-2.96,-3.36,5.98,6.07,6.07
107.48,9.05,3.08,9.11,3.14,-3.14,-3.04,-3.47,5.91,5.98,5.96
108.56,9.20,3.31,9.11,3.22,-3.22,-3.13,-3.58,5.97,5.88,5.89
109.64,9.27,3.47,9.08,3.29,-3.29,-3.21,-3.69,5.98,5.79,5.79
110.74,9.10,3.40,9.06,3.36,-3.36,-3.29,-3.79,5.74,5.70,5.70
111.85,9.03,3.41,9.05,3.44,-3.44,-3.37,-3.89,5.59,5.61,5.61
112.97,9.02,3.49,9.02,3.50,-3.50,-3.45,-3.99,5.52,5.52,5.53
114.10,9.01,3.56,8.99,3.55,-3.55,-3.52,-4.09,5.45,5.44,5.44
115.24,9.01,3.66,8.97,3.61,-3.61,-3.60,-4.18,5.40,5.35,5.35
116.39,9.01,3.75,8.94,3.67,-3.67,-3.68,-4.27,5.34,5.27,5.26
117.55,8.99,3.80,8.92,3.73,-3.73,-3.76,-4.35,5.26,5.19,5.19
118.73,8.79,3.69,8.90,3.78,-3.78,-3.84,-4.43,5.00,5.11,5.09
119.92,8.71,3.69,8.88,3.84,-3.84,-3.91,-4.51,4.87,5.03,5.02
121.12,8.73,3.77,8.86,3.90,-3.90,-3.99,-4.58,4.82,4.96,4.96
122.33,8.91,4.03,8.86,3.98,-3.98,-4.06,-4.64,4.93,4.88,4.88
123.55,8.88,4.07,8.87,4.06,-4.06,-4.14,-4.70,4.81,4.80,4.81
124.79,8.76,4.02,8.88,4.15,-4.15,-4.21,-4.75,4.61,4.73,4.74
126.03,8.94,4.27,8.89,4.23,-4.23,-4.29,-4.80,4.71,4.66,4.66
127.29,8.96,4.37,8.90,4.32,-4.32,-4.36,-4.84,4.64,4.58,4.59
128.57,8.98,4.47,8.92,4.41,-4.41,-4.43,-4.88,4.57,4.51,4.51
129.85,8.98,4.54,8.94,4.50,-4.50,-4.50,-4.91,4.48,4.44,4.44
131.15,8.99,4.63,8.96,4.60,-4.60,-4.57,-4.93,4.39,4.37,4.36
132.46,8.99,4.70,9.00,4.71,-4.71,-4.64,-4.96,4.28,4.29,4.29
133.79,9.00,4.78,9.02,4.80,-4.80,-4.71,-4.97,4.20,4.22,4.22
135.12,9.00,4.85,9.02,4.87,-4.87,-4.78,-4.99,4.13,4.15,4.15
136.48,9.01,4.92,9.01,4.93,-4.93,-4.85,-5.00,4.08,4.08,4.09
137.84,9.01,4.99,9.01,5.00,-5.00,-4.92,-5.00,4.01,4.01,4.02
139.22,9.01,5.08,9.00,5.06,-5.06,-4.98,-5.01,3.95,3.94,3.93
140.61,9.01,5.14,8.98,5.11,-5.11,-5.05,-5.01,3.90,3.87,3.87
142.02,9.01,5.21,8.97,5.17,-5.17,-5.12,-5.01,3.84,3.80,3.80
143.44,9.01,5.29,8.95,5.22,-5.22,-5.18,-5.01,3.79,3.73,3.72
144.87,9.01,5.35,8.93,5.27,-5.27,-5.24,-5.01,3.74,3.66,3.66
146.32,8.97,5.37,8.92,5.33,-5.33,-5.31,-5.01,3.64,3.59,3.60
147.78,8.78,5.25,8.93,5.40,-5.40,-5.37,-5.01,3.38,3.53,3.53
149.26,8.77,5.31,8.93,5.47,-5.47,-5.43,-5.01,3.30,3.46,3.46
150.75,8.88,5.50,8.93,5.54,-5.54,-5.49,-5.01,3.33,3.39,3.38
152.26,8.91,5.58,8.94,5.62,-5.62,-5.55,-5.01,3.29,3.32,3.32
153.78,8.91,5.65,8.93,5.68,-5.68,-5.61,-5.01,3.23,3.25,3.26
155.32,8.91,5.71,8.92,5.73,-5.73,-5.67,-5.02,3.18,3.19,3.19
156.88,8.91,5.79,8.90,5.78,-5.78,-5.72,-5.03,3.12,3.12,3.12
158.44,8.91,5.86,8.88,5.83,-5.83,-5.78,-5.04,3.07,3.05,3.05
160.03,8.99,6.01,8.86,5.89,-5.89,-5.83,-5.05,3.10,2.98,2.98
161.63,9.12,6.21,8.85,5.94,-5.94,-5.89,-5.07,3.18,2.91,2.91
163.24,8.94,6.10,8.83,5.99,-5.99,-5.94,-5.09,2.94,2.84,2.83
164.88,8.81,6.04,8.81,6.05,-6.05,-5.99,-5.11,2.76,2.77,2.77
166.53,8.80,6.11,8.79,6.10,-6.10,-6.04,-5.13,2.70,2.70,2.69
168.19,8.59,5.96,8.77,6.14,-6.14,-6.09,-5.16,2.44,2.63,2.63
169.87,8.45,5.89,8.74,6.18,-6.18,-6.14,-5.20,2.27,2.56,2.56
171.57,8.63,6.14,8.69,6.21,-6.21,-6.19,-5.24,2.42,2.49,2.49
173.29,8.68,6.26,8.65,6.23,-6.23,-6.24,-5.28,2.45,2.42,2.42
175.02,8.67,6.31,8.63,6.27,-6.27,-6.28,-5.33,2.39,2.35,2.36
176.77,8.67,6.38,8.61,6.32,-6.32,-6.33,-5.38,2.34,2.29,2.29
178.54,8.67,6.44,8.61,6.38,-6.38,-6.37,-5.43,2.29,2.23,2.22
180.32,8.67,6.51,8.62,6.45,-6.45,-6.42,-5.49,2.22,2.17,2.16
182.13,8.68,6.57,8.63,6.52,-6.52,-6.46,-5.55,2.16,2.11,2.10
183.95,8.68,6.63,8.63,6.58,-6.58,-6.50,-5.62,2.10,2.05,2.05
185.79,8.47,6.48,8.63,6.63,-6.63,-6.54,-5.69,1.83,1.99,1.99
187.65,8.40,6.46,8.63,6.69,-6.69,-6.57,-5.76,1.71,1.94,1.94
189.52,8.57,6.69,8.61,6.73,-6.73,-6.61,-5.84,1.84,1.88,1.88
191.42,8.78,6.93,8.57,6.74,-6.74,-6.65,-5.92,2.04,1.83,1.84
193.33,8.85,7.06,8.56,6.78,-6.78,-6.68,-6.01,2.07,1.78,1.79
195.27,8.67,6.94,8.57,6.84,-6.84,-6.71,-6.10,1.83,1.73,1.73
197.22,8.58,6.90,8.58,6.89,-6.89,-6.75,-6.19,1.69,1.68,1.68
199.19,8.45,6.82,8.57,6.93,-6.93,-6.78,-6.29,1.52,1.64,1.63
201.18,8.29,6.71,8.55,6.96,-6.96,-6.80,-6.39,1.32,1.59,1.58
203.19,8.40,6.86,8.53,6.99,-6.99,-6.83,-6.49,1.40,1.54,1.54
205.23,8.51,7.01,8.52,7.02,-7.02,-6.86,-6.59,1.48,1.49,1.50
207.28,8.51,7.05,8.51,7.06,-7.06,-6.89,-6.70,1.44,1.45,1.46
209.35,8.51,7.10,8.49,7.08,-7.08,-6.91,-6.80,1.42,1.40,1.41
211.44,8.55,7.19,8.42,7.06,-7.06,-6.93,-6.91,1.48,1.36,1.36
213.56,8.72,7.39,8.37,7.06,-7.06,-6.95,-7.02,1.66,1.32,1.32
215.69,8.62,7.34,8.36,7.09,-7.09,-6.97,-7.12,1.53,1.27,1.28
217.85,8.12,6.88,8.37,7.13,-7.13,-6.99,-7.23,0.99,1.23,1.24
220.03,8.15,6.96,8.37,7.17,-7.17,-7.01,-7.33,0.98,1.20,1.19
222.23,8.25,7.09,8.35,7.18,-7.18,-7.03,-7.43,1.06,1.16,1.15
224.45,8.28,7.16,8.30,7.17,-7.17,-7.04,-7.52,1.10,1.13,1.12
226.70,8.28,7.19,8.26,7.16,-7.16,-7.06,-7.61,1.12,1.10,1.09
228.96,8.29,7.22,8.23,7.16,-7.16,-7.07,-7.70,1.13,1.07,1.07
231.25,8.06,7.01,8.21,7.16,-7.16,-7.08,-7.78,0.89,1.04,1.05
233.57,8.02,7.00,8.20,7.18,-7.18,-7.09,-7.85,0.84,1.02,1.02
235.90,8.46,7.46,8.18,7.18,-7.18,-7.10,-7.91,1.28,1.00,1.00
238.26,8.41,7.43,8.16,7.17,-7.17,-7.10,-7.97,1.24,0.99,0.98
240.64,8.19,7.21,8.14,7.17,-7.17,-7.11,-8.01,1.02,0.97,0.98
243.05,7.99,7.03,8.14,7.18,-7.18,-7.11,-8.05,0.81,0.96,0.96
245.48,7.84,6.89,8.12,7.17,-7.17,-7.11,-8.08,0.66,0.95,0.95
247.93,8.07,7.14,8.11,7.18,-7.18,-7.11,-8.09,0.89,0.94,0.93
250.41,8.35,7.41,8.11,7.18,-7.18,-7.11,-8.09,1.17,0.93,0.93
252.92,8.22,7.29,8.07,7.16,-7.16,-7.11,-8.09,1.06,0.92,0.93
255.45,8.09,7.18,8.04,7.14,-7.14,-7.11,-8.07,0.95,0.90,0.90
258.00,7.97,7.07,8.03,7.14,-7.14,-7.10,-8.04,0.82,0.89,0.90
260.58,7.74,6.85,8.01,7.14,-7.14,-7.10,-8.00,0.60,0.88,0.89
263.19,7.82,6.95,7.96,7.10,-7.10,-7.09,-7.95,0.72,0.86,0.87
265.82,7.96,7.11,7.93,7.08,-7.08,-7.08,-7.89,0.88,0.85,0.85
268.48,8.19,7.35,7.89,7.06,-7.06,-7.07,-7.82,1.12,0.83,0.84
271.16,8.11,7.29,7.88,7.06,-7.06,-7.06,-7.75,1.05,0.82,0.82
273.87,7.87,7.06,7.86,7.06,-7.06,-7.05,-7.67,0.81,0.80,0.80
276.61,7.59,6.80,7.81,7.02,-7.02,-7.03,-7.58,0.57,0.79,0.78
279.38,7.55,6.80,7.75,6.98,-6.98,-7.02,-7.49,0.57,0.77,0.75
282.17,7.88,7.13,7.72,6.96,-6.96,-7.00,-7.39,0.92,0.76,0.75
284.99,7.95,7.20,7.71,6.95,-6.95,-6.98,-7.29,0.99,0.75,0.74
287.84,7.51,6.76,7.69,6.95,-6.95,-6.96,-7.19,0.56,0.74,0.74
290.72,7.32,6.59,7.65,6.92,-6.92,-6.94,-7.08,0.40,0.73,0.72
293.63,7.55,6.82,7.60,6.88,-6.88,-6.92,-6.98,0.67,0.73,0.73
296.57,7.73,7.00,7.55,6.83,-6.83,-6.90,-6.87,0.90,0.72,0.73
299.53,7.88,7.16,7.51,6.80,-6.80,-6.87,-6.76,1.08,0.72,0.72
302.53,7.51,6.79,7.48,6.77,-6.77,-6.85,-6.66,0.74,0.71,0.72
305.55,7.20,6.48,7.46,6.75,-6.75,-6.82,-6.55,0.44,0.71,0.71
308.61,7.33,6.61,7.44,6.74,-6.74,-6.79,-6.45,0.59,0.71,0.72
311.69,7.49,6.79,7.40,6.70,-6.70,-6.76,-6.35,0.79,0.70,0.70
314.81,7.57,6.87,7.35,6.65,-6.65,-6.73,-6.25,0.92,0.70,0.70
317.96,7.25,6.56,7.32,6.62,-6.62,-6.70,-6.16,0.63,0.69,0.69
321.14,7.13,6.44,7.29,6.60,-6.60,-6.66,-6.06,0.52,0.69,0.69
324.35,7.24,6.55,7.24,6.55,-6.55,-6.63,-5.97,0.69,0.69,0.68
327.59,7.18,6.49,7.15,6.47,-6.47,-6.59,-5.89,0.71,0.68,0.69
330.87,7.12,6.44,7.11,6.43,-6.43,-6.55,-5.81,0.69,0.68,0.68
334.18,7.07,6.40,7.08,6.40,-6.40,-6.51,-5.73,0.67,0.67,0.67
337.52,7.20,6.53,7.04,6.37,-6.37,-6.47,-5.66,0.83,0.67,0.67
340.90,7.04,6.37,7.00,6.33,-6.33,-6.43,-5.59,0.71,0.67,0.67
344.30,6.85,6.18,6.95,6.28,-6.28,-6.39,-5.52,0.57,0.67,0.67
347.75,6.84,6.16,6.89,6.22,-6.22,-6.35,-5.46,0.62,0.67,0.68
351.23,6.80,6.13,6.85,6.18,-6.18,-6.30,-5.40,0.62,0.68,0.66
354.74,6.75,6.07,6.83,6.15,-6.15,-6.26,-5.35,0.60,0.68,0.68
358.28,6.68,6.00,6.77,6.09,-6.09,-6.21,-5.30,0.58,0.68,0.67
361.87,6.80,6.12,6.71,6.02,-6.02,-6.16,-5.25,0.77,0.68,0.68
365.49,6.93,6.24,6.65,5.96,-5.96,-6.11,-5.21,0.97,0.69,0.69
369.14,6.51,5.81,6.58,5.89,-5.89,-6.06,-5.18,0.61,0.69,0.69
372.83,6.37,5.67,6.51,5.82,-5.82,-6.01,-5.14,0.55,0.69,0.70
376.56,6.65,5.95,6.44,5.74,-5.74,-5.96,-5.11,0.90,0.69,0.70
380.33,6.43,5.73,6.38,5.68,-5.68,-5.90,-5.09,0.74,0.69,0.69
384.13,6.17,5.47,6.31,5.62,-5.62,-5.85,-5.07,0.55,0.69,0.70
387.97,6.33,5.63,6.24,5.55,-5.55,-5.79,-5.05,0.78,0.69,0.70
391.85,6.14,5.44,6.15,5.47,-5.47,-5.73,-5.03,0.67,0.68,0.69
395.77,5.92,5.24,6.06,5.38,-5.38,-5.68,-5.02,0.54,0.68,0.68
399.73,5.91,5.23,5.96,5.29,-5.29,-5.62,-5.01,0.62,0.67,0.68
403.72,5.90,5.21,5.86,5.20,-5.20,-5.56,-5.00,0.70,0.67,0.69
407.76,5.82,5.15,5.79,5.12,-5.12,-5.50,-4.99,0.69,0.66,0.66
411.84,5.69,5.03,5.72,5.06,-5.06,-5.43,-4.99,0.63,0.66,0.66
415.96,5.73,5.07,5.60,4.95,-4.95,-5.37,-4.99,0.78,0.66,0.66
420.12,5.59,4.94,5.50,4.84,-4.84,-5.31,-4.98,0.75,0.66,0.65
424.32,5.49,4.83,5.43,4.76,-4.76,-5.24,-4.98,0.73,0.67,0.65
428.56,5.36,4.69,5.35,4.67,-4.67,-5.17,-4.98,0.69,0.68,0.67
432.85,5.18,4.49,5.27,4.57,-4.57,-5.11,-4.98,0.61,0.70,0.69
437.18,5.23,4.53,5.22,4.50,-4.50,-5.04,-4.98,0.73,0.72,0.70
441.55,5.20,4.46,5.18,4.42,-4.42,-4.97,-4.98,0.78,0.75,0.74
445.96,5.15,4.37,5.14,4.35,-4.35,-4.90,-4.97,0.80,0.79,0.78
450.42,5.11,4.29,5.13,4.30,-4.30,-4.83,-4.97,0.81,0.83,0.81
454.93,4.86,4.00,5.15,4.27,-4.27,-4.76,-4.96,0.59,0.88,0.86
459.48,4.95,4.03,5.20,4.27,-4.27,-4.68,-4.94,0.68,0.93,0.92
464.07,5.36,4.37,5.25,4.27,-4.27,-4.61,-4.93,1.09,0.98,0.99
468.71,5.19,4.15,5.32,4.28,-4.28,-4.53,-4.91,0.90,1.04,1.04
473.40,5.32,4.22,5.39,4.30,-4.30,-4.46,-4.88,1.02,1.09,1.10
478.13,5.52,4.36,5.45,4.31,-4.31,-4.38,-4.85,1.21,1.14,1.15
482.91,5.54,4.33,5.52,4.33,-4.33,-4.30,-4.82,1.21,1.19,1.20
487.74,5.61,4.37,5.57,4.34,-4.34,-4.22,-4.78,1.27,1.24,1.24
492.62,5.82,4.54,5.63,4.35,-4.35,-4.14,-4.73,1.47,1.28,1.28
497.55,5.85,4.53,5.67,4.36,-4.36,-4.06,-4.68,1.49,1.31,1.32
502.52,5.90,4.56,5.68,4.34,-4.34,-3.98,-4.62,1.55,1.34,1.34
507.55,5.74,4.37,5.67,4.32,-4.32,-3.90,-4.55,1.42,1.35,1.37
512.62,5.55,4.17,5.62,4.26,-4.26,-3.81,-4.48,1.29,1.36,1.38
517.75,5.47,4.08,5.56,4.19,-4.19,-3.73,-4.40,1.27,1.37,1.39
522.93,5.40,4.01,5.50,4.14,-4.14,-3.64,-4.32,1.26,1.36,1.39
528.16,5.40,4.03,5.41,4.06,-4.06,-3.55,-4.23,1.34,1.35,1.36
