frequency,raw,error,smoothed,error_smoothed,equalization,parametric_eq,fixed_band_eq,equalized_raw,equalized_smoothed,target
20.00,5.75,-3.37,5.74,-3.38,3.38,2.64,0.44,9.13,9.12,9.12
20.20,5.81,-3.31,5.80,-3.32,3.32,2.65,0.45,9.13,9.12,9.12
20.40,5.86,-3.26,5.86,-3.26,3.26,2.65,0.46,9.12,9.12,9.12
20.61,5.92,-3.20,5.91,-3.20,3.20,2.62,0.48,9.11,9.11,9.12
20.81,5.98,-3.13,5.97,-3.14,3.14,2.58,0.49,9.11,9.11,9.10
21.02,6.03,-3.08,6.03,-3.07,3.07,2.52,0.51,9.10,9.11,9.10
21.23,6.08,-3.03,6.10,-3.01,3.01,2.45,0.52,9.09,9.10,9.10
21.44,6.15,-2.96,6.16,-2.94,2.94,2.37,0.54,9.09,9.10,9.11
21.66,6.21,-2.89,6.22,-2.88,2.88,2.29,0.56,9.08,9.10,9.10
21.87,6.28,-2.82,6.28,-2.81,2.81,2.19,0.57,9.09,9.09,9.10
22.09,6.35,-2.74,6.35,-2.74,2.74,2.10,0.59,9.09,9.09,9.09
22.31,6.41,-2.68,6.41,-2.67,2.67,2.00,0.61,9.08,9.09,9.09
22.54,6.48,-2.60,6.48,-2.60,2.60,1.90,0.62,9.08,9.08,9.08
22.76,6.55,-2.53,6.55,-2.53,2.53,1.81,0.64,9.08,9.07,9.08
22.99,6.62,-2.46,6.61,-2.45,2.45,1.71,0.66,9.07,9.07,9.07
23.22,6.69,-2.38,6.68,-2.38,2.38,1.62,0.68,9.07,9.06,9.06
23.45,6.76,-2.30,6.75,-2.31,2.31,1.54,0.70,9.06,9.06,9.06
23.69,6.83,-2.22,6.82,-2.23,2.23,1.45,0.72,9.06,9.05,9.05
23.92,6.89,-2.15,6.89,-2.16,2.16,1.37,0.74,9.05,9.05,9.04
24.16,6.96,-2.08,6.96,-2.09,2.09,1.30,0.76,9.04,9.04,9.04
24.40,7.02,-2.02,7.02,-2.01,2.01,1.23,0.78,9.03,9.04,9.04
24.65,7.09,-1.95,7.09,-1.94,1.94,1.16,0.80,9.03,9.03,9.03
24.89,7.16,-1.87,7.16,-1.87,1.87,1.10,0.82,9.03,9.03,9.03
25.14,7.22,-1.81,7.22,-1.81,1.81,1.04,0.84,9.03,9.03,9.03
25.39,7.29,-1.73,7.28,-1.74,1.74,0.99,0.86,9.03,9.02,9.02
25.65,7.35,-1.67,7.35,-1.68,1.68,0.93,0.88,9.02,9.02,9.02
25.91,7.41,-1.61,7.41,-1.61,1.61,0.89,0.90,9.02,9.02,9.02
26.16,7.48,-1.55,7.47,-1.55,1.55,0.84,0.92,9.02,9.02,9.02
26.43,7.54,-1.48,7.54,-1.48,1.48,0.80,0.94,9.02,9.02,9.02
26.69,7.60,-1.42,7.60,-1.42,1.42,0.76,0.96,9.02,9.02,9.02
26.96,7.66,-1.36,7.66,-1.36,1.36,0.72,0.98,9.01,9.02,9.02
27.23,7.73,-1.29,7.72,-1.29,1.29,0.69,0.99,9.02,9.01,9.01
27.50,7.78,-1.23,7.78,-1.23,1.23,0.65,1.01,9.01,9.01,9.01
27.77,7.84,-1.18,7.84,-1.17,1.17,0.62,1.02,9.01,9.01,9.02
28.05,7.91,-1.10,7.90,-1.10,1.10,0.59,1.04,9.01,9.01,9.01
28.33,7.96,-1.05,7.96,-1.04,1.04,0.57,1.05,9.00,9.00,9.00
28.62,8.02,-0.98,8.02,-0.98,0.98,0.54,1.06,8.99,9.00,8.99
28.90,8.07,-0.93,8.08,-0.91,0.91,0.52,1.07,8.98,8.99,9.00
29.19,8.14,-0.85,8.14,-0.85,0.85,0.49,1.07,8.99,8.98,8.99
29.48,8.19,-0.78,8.19,-0.78,0.78,0.47,1.08,8.97,8.98,8.97
29.78,8.26,-0.71,8.25,-0.72,0.72,0.45,1.08,8.98,8.97,8.97
30.08,8.31,-0.66,8.31,-0.66,0.66,0.43,1.08,8.96,8.96,8.97
30.38,8.37,-0.59,8.36,-0.59,0.59,0.42,1.08,8.96,8.96,8.95
30.68,8.42,-0.53,8.42,-0.53,0.53,0.40,1.07,8.95,8.95,8.95
30.99,8.48,-0.47,8.48,-0.47,0.47,0.38,1.06,8.95,8.95,8.94
31.30,8.53,-0.41,8.53,-0.41,0.41,0.37,1.06,8.94,8.95,8.94
31.61,8.59,-0.35,8.58,-0.36,0.36,0.35,1.04,8.94,8.94,8.94
31.93,8.64,-0.29,8.64,-0.30,0.30,0.34,1.03,8.94,8.94,8.93
32.24,8.69,-0.25,8.69,-0.24,0.24,0.33,1.01,8.93,8.93,8.94
32.57,8.74,-0.19,8.74,-0.19,0.19,0.31,0.99,8.93,8.93,8.92
32.89,8.79,-0.14,8.79,-0.14,0.14,0.30,0.97,8.92,8.92,8.93
33.22,8.84,-0.08,8.84,-0.08,0.08,0.29,0.95,8.92,8.92,8.92
33.55,8.88,-0.04,8.88,-0.03,0.03,0.28,0.92,8.91,8.91,8.92
33.89,8.93,0.03,8.92,0.02,-0.02,0.27,0.90,8.90,8.90,8.90
34.23,8.97,0.08,8.97,0.08,-0.08,0.26,0.87,8.89,8.89,8.89
34.57,9.01,0.13,9.01,0.13,-0.13,0.25,0.83,8.87,8.87,8.88
34.92,9.05,0.19,9.04,0.19,-0.19,0.24,0.80,8.86,8.85,8.85
35.27,9.08,0.23,9.08,0.24,-0.24,0.24,0.77,8.83,8.83,8.85
35.62,9.12,0.31,9.11,0.30,-0.30,0.23,0.73,8.82,8.81,8.81
35.97,9.14,0.34,9.14,0.36,-0.36,0.22,0.69,8.78,8.79,8.79
36.33,9.17,0.40,9.17,0.41,-0.41,0.21,0.66,8.76,8.76,8.77
36.70,9.20,0.47,9.20,0.47,-0.47,0.21,0.62,8.73,8.73,8.73
37.06,9.22,0.52,9.22,0.52,-0.52,0.20,0.58,8.70,8.70,8.70
37.43,9.24,0.58,9.24,0.58,-0.58,0.19,0.54,8.66,8.67,8.66
37.81,9.27,0.63,9.26,0.63,-0.63,0.19,0.49,8.64,8.63,8.63
38.19,9.28,0.68,9.28,0.68,-0.68,0.18,0.45,8.60,8.60,8.60
38.57,9.30,0.73,9.30,0.73,-0.73,0.17,0.41,8.57,8.57,8.57
38.95,9.31,0.77,9.31,0.77,-0.77,0.17,0.37,8.53,8.54,8.54
39.34,9.33,0.83,9.32,0.82,-0.82,0.16,0.32,8.51,8.50,8.50
39.74,9.33,0.86,9.33,0.86,-0.86,0.16,0.28,8.47,8.47,8.47
40.14,9.34,0.90,9.34,0.89,-0.89,0.15,0.23,8.44,8.44,8.44
40.54,9.34,0.92,9.34,0.93,-0.93,0.15,0.19,8.41,8.41,8.42
40.94,9.35,0.96,9.34,0.96,-0.96,0.14,0.14,8.39,8.38,8.38
41.35,9.35,0.99,9.34,0.98,-0.98,0.14,0.10,8.36,8.36,8.35
41.76,9.34,1.02,9.34,1.01,-1.01,0.14,0.05,8.33,8.33,8.32
42.18,9.34,1.03,9.33,1.03,-1.03,0.13,0.01,8.31,8.30,8.31
42.60,9.32,1.04,9.32,1.05,-1.05,0.13,-0.04,8.27,8.28,8.28
43.03,9.32,1.08,9.31,1.06,-1.06,0.13,-0.08,8.26,8.25,8.24
43.46,9.30,1.08,9.30,1.08,-1.08,0.12,-0.13,8.22,8.22,8.22
43.90,9.28,1.08,9.28,1.09,-1.09,0.12,-0.18,8.19,8.19,8.19
44.33,9.26,1.10,9.26,1.10,-1.10,0.11,-0.22,8.16,8.16,8.16
44.78,9.24,1.10,9.24,1.11,-1.11,0.11,-0.27,8.13,8.13,8.13
45.23,9.21,1.09,9.21,1.12,-1.12,0.11,-0.32,8.09,8.10,8.12
45.68,9.19,1.12,9.19,1.12,-1.12,0.11,-0.36,8.07,8.07,8.07
46.13,9.17,1.14,9.16,1.13,-1.13,0.10,-0.41,8.04,8.03,8.02
46.60,9.13,1.13,9.13,1.14,-1.14,0.10,-0.46,7.99,7.99,7.99
47.06,9.10,1.14,9.10,1.15,-1.15,0.10,-0.50,7.95,7.95,7.96
47.53,9.07,1.15,9.06,1.16,-1.16,0.09,-0.55,7.91,7.90,7.92
48.01,9.03,1.17,9.03,1.17,-1.17,0.09,-0.60,7.86,7.86,7.86
48.49,8.99,1.17,8.99,1.18,-1.18,0.09,-0.65,7.81,7.81,7.82
48.97,8.95,1.18,8.95,1.19,-1.19,0.09,-0.69,7.76,7.76,7.76
49.46,8.91,1.18,8.91,1.19,-1.19,0.09,-0.74,7.71,7.72,7.72
49.96,8.87,1.22,8.87,1.20,-1.20,0.08,-0.79,7.67,7.66,7.65
50.46,8.82,1.21,8.82,1.21,-1.21,0.08,-0.83,7.61,7.61,7.61
50.96,8.78,1.23,8.78,1.22,-1.22,0.08,-0.88,7.56,7.56,7.55
51.47,8.73,1.22,8.73,1.22,-1.22,0.08,-0.93,7.51,7.51,7.51
51.99,8.69,1.24,8.68,1.23,-1.23,0.07,-0.97,7.46,7.46,7.45
52.51,8.64,1.23,8.63,1.23,-1.23,0.07,-1.02,7.41,7.40,7.40
53.03,8.59,1.22,8.58,1.23,-1.23,0.07,-1.06,7.35,7.35,7.37
53.56,8.53,1.22,8.53,1.24,-1.24,0.07,-1.10,7.29,7.30,7.31
54.10,8.49,1.24,8.48,1.23,-1.23,0.07,-1.14,7.25,7.25,7.25
54.64,8.43,1.23,8.43,1.23,-1.23,0.07,-1.19,7.20,7.20,7.20
55.18,8.38,1.24,8.38,1.23,-1.23,0.06,-1.23,7.15,7.15,7.14
55.74,8.32,1.23,8.32,1.22,-1.22,0.06,-1.26,7.10,7.10,7.08
56.29,8.26,1.22,8.26,1.22,-1.22,0.06,-1.30,7.04,7.05,7.04
56.86,8.21,1.21,8.21,1.21,-1.21,0.06,-1.33,7.00,7.00,7.00
57.42,8.15,1.22,8.15,1.20,-1.20,0.06,-1.37,6.94,6.95,6.93
58.00,8.09,1.20,8.09,1.20,-1.20,0.06,-1.40,6.89,6.89,6.88
58.58,8.04,1.19,8.03,1.19,-1.19,0.06,-1.43,6.84,6.83,6.85
59.16,7.97,1.17,7.97,1.19,-1.19,0.05,-1.45,6.78,6.78,6.80
59.76,7.91,1.16,7.90,1.19,-1.19,0.05,-1.48,6.72,6.72,6.75
60.35,7.84,1.16,7.84,1.18,-1.18,0.05,-1.50,6.65,6.66,6.68
60.96,7.78,1.16,7.78,1.18,-1.18,0.05,-1.52,6.60,6.60,6.61
61.57,7.71,1.18,7.71,1.18,-1.18,0.05,-1.53,6.53,6.53,6.53
62.18,7.64,1.18,7.65,1.18,-1.18,0.05,-1.55,6.46,6.47,6.46
62.80,7.58,1.19,7.58,1.18,-1.18,0.05,-1.56,6.40,6.40,6.39
63.43,7.51,1.19,7.51,1.17,-1.17,0.05,-1.56,6.33,6.34,6.31
64.07,7.45,1.19,7.44,1.17,-1.17,0.04,-1.57,6.28,6.27,6.25
64.71,7.38,1.18,7.37,1.17,-1.17,0.04,-1.57,6.21,6.20,6.20
65.35,7.30,1.16,7.30,1.17,-1.17,0.04,-1.57,6.13,6.14,6.13
66.01,7.24,1.17,7.23,1.16,-1.16,0.04,-1.57,6.08,6.07,6.07
66.67,7.17,1.15,7.16,1.16,-1.16,0.04,-1.56,6.01,6.01,6.02
67.33,7.09,1.14,7.09,1.15,-1.15,0.04,-1.56,5.94,5.94,5.94
68.01,7.02,1.14,7.02,1.14,-1.14,0.04,-1.55,5.88,5.88,5.88
68.69,6.95,1.14,6.95,1.13,-1.13,0.04,-1.54,5.81,5.81,5.81
69.37,6.87,1.11,6.87,1.13,-1.13,0.04,-1.52,5.74,5.75,5.75
70.07,6.80,1.10,6.80,1.12,-1.12,0.04,-1.51,5.68,5.68,5.69
70.77,6.73,1.11,6.73,1.11,-1.11,0.04,-1.49,5.62,5.61,5.62
71.48,6.66,1.11,6.65,1.11,-1.11,0.04,-1.48,5.55,5.55,5.55
72.19,6.58,1.10,6.58,1.10,-1.10,0.03,-1.46,5.48,5.48,5.48
72.91,6.51,1.10,6.50,1.09,-1.09,0.03,-1.44,5.42,5.41,5.41
73.64,6.43,1.09,6.43,1.08,-1.08,0.03,-1.42,5.34,5.34,5.33
74.38,6.35,1.08,6.35,1.07,-1.07,0.03,-1.40,5.27,5.28,5.27
75.12,6.27,1.07,6.27,1.06,-1.06,0.03,-1.38,5.21,5.21,5.20
75.87,6.20,1.05,6.19,1.05,-1.05,0.03,-1.36,5.15,5.14,5.15
76.63,6.12,1.04,6.12,1.04,-1.04,0.03,-1.34,5.08,5.08,5.08
77.40,6.04,1.02,6.04,1.02,-1.02,0.03,-1.32,5.01,5.01,5.01
78.17,5.96,1.02,5.96,1.01,-1.01,0.03,-1.30,4.95,4.95,4.94
78.95,5.88,0.98,5.88,0.99,-0.99,0.03,-1.28,4.89,4.89,4.89
79.74,5.80,0.97,5.80,0.97,-0.97,0.03,-1.26,4.82,4.82,4.83
80.54,5.72,0.96,5.72,0.96,-0.96,0.03,-1.24,4.76,4.76,4.76
81.35,5.64,0.94,5.64,0.94,-0.94,0.03,-1.22,4.70,4.70,4.70
82.16,5.56,0.91,5.56,0.92,-0.92,0.03,-1.20,4.64,4.64,4.64
82.98,5.47,0.90,5.48,0.90,-0.90,0.03,-1.19,4.56,4.57,4.57
83.81,5.40,0.89,5.39,0.88,-0.88,0.02,-1.17,4.51,4.51,4.51
84.65,5.32,0.88,5.31,0.87,-0.87,0.02,-1.16,4.45,4.44,4.44
85.50,5.23,0.85,5.23,0.85,-0.85,0.02,-1.14,4.38,4.38,4.37
86.35,5.16,0.84,5.15,0.83,-0.83,0.02,-1.13,4.32,4.32,4.32
87.22,5.07,0.82,5.07,0.82,-0.82,0.02,-1.11,4.25,4.25,4.25
88.09,4.99,0.80,4.99,0.80,-0.80,0.02,-1.10,4.18,4.18,4.19
88.97,4.91,0.79,4.91,0.79,-0.79,0.02,-1.09,4.12,4.12,4.12
89.86,4.83,0.78,4.83,0.78,-0.78,0.02,-1.08,4.05,4.05,4.05
90.76,4.75,0.77,4.75,0.77,-0.77,0.02,-1.07,3.98,3.98,3.98
91.66,4.67,0.76,4.67,0.76,-0.76,0.02,-1.06,3.91,3.91,3.91
92.58,4.59,0.75,4.59,0.75,-0.75,0.02,-1.05,3.83,3.83,3.84
93.51,4.51,0.74,4.51,0.75,-0.75,0.02,-1.04,3.76,3.76,3.77
94.44,4.43,0.73,4.43,0.74,-0.74,0.02,-1.04,3.68,3.68,3.70
95.39,4.35,0.73,4.35,0.74,-0.74,0.02,-1.03,3.61,3.61,3.61
96.34,4.27,0.74,4.27,0.74,-0.74,0.02,-1.03,3.53,3.53,3.53
97.30,4.19,0.73,4.19,0.74,-0.74,0.02,-1.02,3.45,3.45,3.46
98.28,4.12,0.75,4.11,0.74,-0.74,0.02,-1.02,3.38,3.37,3.36
99.26,4.03,0.75,4.03,0.74,-0.74,0.02,-1.02,3.29,3.29,3.28
100.25,3.96,0.75,3.96,0.74,-0.74,0.02,-1.02,3.22,3.21,3.20
101.25,3.88,0.75,3.88,0.74,-0.74,0.02,-1.02,3.14,3.14,3.13
102.27,3.80,0.74,3.80,0.74,-0.74,0.02,-1.01,3.06,3.06,3.05
103.29,3.73,0.75,3.73,0.74,-0.74,0.02,-1.01,2.99,2.99,2.98
104.32,3.66,0.74,3.65,0.74,-0.74,0.02,-1.01,2.92,2.91,2.91
105.37,3.58,0.74,3.58,0.74,-0.74,0.02,-1.02,2.84,2.84,2.84
106.42,3.51,0.74,3.51,0.74,-0.74,0.02,-1.02,2.77,2.77,2.77
107.48,3.44,0.75,3.44,0.74,-0.74,0.02,-1.02,2.69,2.70,2.69
108.56,3.37,0.75,3.37,0.74,-0.74,0.02,-1.02,2.62,2.62,2.62
109.64,3.30,0.74,3.30,0.75,-0.75,0.01,-1.02,2.55,2.55,2.56
110.74,3.23,0.75,3.23,0.75,-0.75,0.01,-1.02,2.47,2.48,2.48
111.85,3.17,0.76,3.16,0.76,-0.76,0.01,-1.03,2.41,2.40,2.41
112.97,3.10,0.77,3.10,0.77,-0.77,0.01,-1.03,2.32,2.32,2.33
114.10,3.04,0.78,3.03,0.78,-0.78,0.01,-1.03,2.25,2.25,2.26
115.24,2.96,0.78,2.97,0.80,-0.80,0.01,-1.03,2.16,2.17,2.17
116.39,2.90,0.82,2.90,0.81,-0.81,0.01,-1.03,2.08,2.09,2.08
117.55,2.84,0.83,2.84,0.83,-0.83,0.01,-1.04,2.01,2.01,2.01
118.73,2.78,0.86,2.78,0.85,-0.85,0.01,-1.04,1.93,1.93,1.92
119.92,2.72,0.88,2.72,0.87,-0.87,0.01,-1.04,1.85,1.84,1.83
121.12,2.66,0.89,2.65,0.90,-0.90,0.01,-1.04,1.76,1.76,1.76
122.33,2.60,0.92,2.59,0.92,-0.92,0.01,-1.04,1.68,1.67,1.67
123.55,2.54,0.94,2.53,0.95,-0.95,0.01,-1.04,1.59,1.59,1.59
124.79,2.48,0.96,2.47,0.97,-0.97,0.01,-1.04,1.51,1.50,1.52
126.03,2.41,0.98,2.41,1.00,-1.00,0.01,-1.04,1.41,1.42,1.43
127.29,2.35,1.02,2.35,1.02,-1.02,0.01,-1.04,1.33,1.33,1.33
128.57,2.30,1.05,2.29,1.05,-1.05,0.01,-1.03,1.25,1.25,1.24
129.85,2.23,1.07,2.23,1.07,-1.07,0.01,-1.03,1.16,1.16,1.16
131.15,2.18,1.10,2.18,1.09,-1.09,0.01,-1.03,1.08,1.08,1.08
132.46,2.11,1.12,2.12,1.11,-1.11,0.01,-1.03,0.99,1.00,0.99
133.79,2.06,1.14,2.06,1.13,-1.13,0.01,-1.02,0.93,0.93,0.92
135.12,2.00,1.16,2.00,1.15,-1.15,0.01,-1.02,0.85,0.85,0.84
136.48,1.95,1.17,1.94,1.17,-1.17,0.01,-1.02,0.78,0.78,0.78
137.84,1.89,1.18,1.89,1.18,-1.18,0.01,-1.01,0.71,0.71,0.71
139.22,1.83,1.20,1.83,1.19,-1.19,0.01,-1.01,0.64,0.64,0.63
140.61,1.77,1.19,1.77,1.20,-1.20,0.01,-1.00,0.57,0.57,0.58
142.02,1.72,1.21,1.71,1.20,-1.20,0.01,-1.00,0.52,0.51,0.51
143.44,1.66,1.21,1.65,1.20,-1.20,0.01,-1.00,0.46,0.45,0.45
144.87,1.59,1.19,1.59,1.20,-1.20,0.01,-0.99,0.39,0.39,0.39
146.32,1.53,1.20,1.53,1.20,-1.20,0.01,-0.99,0.33,0.33,0.33
147.78,1.47,1.20,1.47,1.20,-1.20,0.01,-0.99,0.27,0.27,0.27
149.26,1.41,1.20,1.40,1.19,-1.19,0.01,-0.98,0.22,0.21,0.21
150.75,1.34,1.19,1.34,1.19,-1.19,0.01,-0.98,0.15,0.15,0.14
152.26,1.28,1.18,1.27,1.18,-1.18,0.01,-0.98,0.09,0.09,0.10
153.78,1.21,1.18,1.21,1.18,-1.18,0.01,-0.98,0.03,0.03,0.03
155.32,1.15,1.17,1.14,1.17,-1.17,0.01,-0.98,-0.02,-0.03,-0.02
156.88,1.08,1.16,1.08,1.17,-1.17,0.01,-0.98,-0.09,-0.09,-0.09
158.44,1.02,1.16,1.01,1.16,-1.16,0.01,-0.98,-0.15,-0.15,-0.15
160.03,0.96,1.16,0.95,1.16,-1.16,0.01,-0.98,-0.21,-0.21,-0.21
161.63,0.89,1.15,0.89,1.17,-1.17,0.01,-0.98,-0.28,-0.27,-0.27
163.24,0.83,1.17,0.83,1.17,-1.17,0.01,-0.98,-0.34,-0.34,-0.34
164.88,0.78,1.18,0.78,1.17,-1.17,0.01,-0.98,-0.40,-0.40,-0.40
166.53,0.72,1.18,0.72,1.18,-1.18,0.01,-0.99,-0.47,-0.46,-0.46
168.19,0.67,1.19,0.67,1.20,-1.20,0.01,-0.99,-0.53,-0.52,-0.52
169.87,0.62,1.20,0.63,1.21,-1.21,0.01,-1.00,-0.59,-0.58,-0.58
171.57,0.58,1.23,0.58,1.23,-1.23,0.01,-1.00,-0.65,-0.65,-0.65
173.29,0.54,1.25,0.55,1.25,-1.25,0.01,-1.01,-0.71,-0.71,-0.71
175.02,0.50,1.27,0.51,1.28,-1.28,0.01,-1.02,-0.78,-0.77,-0.77
176.77,0.47,1.29,0.48,1.30,-1.30,0.01,-1.02,-0.84,-0.83,-0.83
178.54,0.44,1.32,0.45,1.33,-1.33,0.01,-1.03,-0.90,-0.89,-0.88
180.32,0.42,1.37,0.42,1.36,-1.36,0.01,-1.04,-0.95,-0.94,-0.95
182.13,0.39,1.39,0.39,1.40,-1.40,0.01,-1.05,-1.01,-1.00,-1.00
183.95,0.37,1.42,0.37,1.43,-1.43,0.01,-1.07,-1.06,-1.06,-1.05
185.79,0.35,1.46,0.34,1.46,-1.46,0.01,-1.08,-1.11,-1.12,-1.12
187.65,0.33,1.49,0.31,1.49,-1.49,0.01,-1.09,-1.16,-1.18,-1.17
189.52,0.29,1.51,0.28,1.51,-1.51,0.01,-1.10,-1.23,-1.23,-1.23
191.42,0.26,1.54,0.25,1.53,-1.53,0.01,-1.12,-1.28,-1.28,-1.28
193.33,0.23,1.57,0.22,1.55,-1.55,0.01,-1.13,-1.33,-1.34,-1.34
195.27,0.19,1.58,0.18,1.57,-1.57,0.01,-1.15,-1.38,-1.39,-1.40
197.22,0.15,1.60,0.14,1.58,-1.58,0.01,-1.16,-1.43,-1.44,-1.45
199.19,0.10,1.59,0.09,1.59,-1.59,0.01,-1.18,-1.49,-1.49,-1.49
201.18,0.05,1.59,0.05,1.59,-1.59,0.01,-1.20,-1.54,-1.54,-1.55
203.19,-0.00,1.59,-0.00,1.58,-1.58,0.01,-1.21,-1.59,-1.59,-1.59
205.23,-0.06,1.57,-0.06,1.58,-1.58,0.01,-1.23,-1.64,-1.63,-1.63
207.28,-0.11,1.56,-0.11,1.56,-1.56,0.01,-1.25,-1.68,-1.68,-1.67
209.35,-0.17,1.55,-0.17,1.55,-1.55,0.01,-1.27,-1.72,-1.72,-1.72
211.44,-0.23,1.52,-0.23,1.53,-1.53,0.01,-1.28,-1.76,-1.76,-1.76
213.56,-0.29,1.51,-0.29,1.51,-1.51,0.01,-1.30,-1.80,-1.80,-1.80
215.69,-0.35,1.49,-0.36,1.48,-1.48,0.01,-1.32,-1.83,-1.84,-1.84
217.85,-0.42,1.45,-0.42,1.45,-1.45,0.01,-1.33,-1.88,-1.88,-1.88
220.03,-0.48,1.44,-0.49,1.43,-1.43,0.01,-1.35,-1.91,-1.91,-1.92
222.23,-0.55,1.40,-0.55,1.40,-1.40,0.01,-1.36,-1.95,-1.95,-1.95
224.45,-0.62,1.36,-0.62,1.36,-1.36,0.01,-1.38,-1.99,-1.98,-1.99
226.70,-0.69,1.33,-0.68,1.33,-1.33,0.01,-1.39,-2.02,-2.02,-2.02
228.96,-0.75,1.29,-0.75,1.30,-1.30,0.01,-1.40,-2.05,-2.05,-2.04
231.25,-0.81,1.26,-0.82,1.26,-1.26,0.01,-1.41,-2.07,-2.08,-2.07
233.57,-0.88,1.22,-0.88,1.22,-1.22,0.01,-1.42,-2.11,-2.11,-2.10
235.90,-0.94,1.20,-0.95,1.19,-1.19,0.01,-1.43,-2.13,-2.13,-2.14
238.26,-1.01,1.16,-1.01,1.15,-1.15,0.01,-1.44,-2.16,-2.16,-2.17
240.64,-1.07,1.10,-1.07,1.11,-1.11,0.01,-1.44,-2.18,-2.18,-2.18
243.05,-1.12,1.08,-1.13,1.07,-1.07,0.01,-1.44,-2.20,-2.21,-2.20
245.48,-1.19,1.04,-1.19,1.04,-1.04,0.01,-1.44,-2.23,-2.23,-2.23
247.93,-1.25,1.01,-1.24,1.00,-1.00,0.01,-1.44,-2.26,-2.25,-2.26
250.41,-1.29,0.97,-1.30,0.97,-0.97,0.01,-1.44,-2.26,-2.27,-2.26
252.92,-1.35,0.93,-1.35,0.93,-0.93,0.01,-1.43,-2.29,-2.29,-2.28
255.45,-1.40,0.90,-1.40,0.90,-0.90,0.01,-1.43,-2.31,-2.30,-2.30
258.00,-1.45,0.87,-1.45,0.87,-0.87,0.01,-1.42,-2.33,-2.32,-2.32
260.58,-1.49,0.84,-1.49,0.84,-0.84,0.01,-1.41,-2.34,-2.34,-2.33
263.19,-1.53,0.82,-1.54,0.82,-0.82,0.01,-1.39,-2.35,-2.35,-2.35
265.82,-1.57,0.79,-1.58,0.79,-0.79,0.01,-1.38,-2.37,-2.37,-2.37
268.48,-1.61,0.77,-1.61,0.77,-0.77,0.01,-1.36,-2.39,-2.39,-2.38
271.16,-1.64,0.76,-1.65,0.75,-0.75,0.01,-1.35,-2.40,-2.40,-2.40
273.87,-1.68,0.73,-1.68,0.74,-0.74,0.01,-1.33,-2.42,-2.42,-2.41
276.61,-1.71,0.72,-1.70,0.73,-0.73,0.01,-1.31,-2.44,-2.43,-2.43
279.38,-1.73,0.72,-1.73,0.71,-0.71,0.01,-1.28,-2.45,-2.44,-2.45
282.17,-1.75,0.71,-1.75,0.71,-0.71,0.01,-1.26,-2.46,-2.46,-2.46
284.99,-1.77,0.69,-1.77,0.70,-0.70,0.01,-1.24,-2.47,-2.47,-2.46
287.84,-1.79,0.68,-1.79,0.69,-0.69,0.01,-1.21,-2.49,-2.48,-2.47
290.72,-1.79,0.71,-1.80,0.69,-0.69,0.01,-1.19,-2.49,-2.49,-2.50
293.63,-1.81,0.69,-1.81,0.69,-0.69,0.01,-1.16,-2.51,-2.50,-2.50
296.57,-1.81,0.70,-1.82,0.70,-0.70,0.02,-1.14,-2.51,-2.51,-2.51
299.53,-1.82,0.70,-1.82,0.70,-0.70,0.02,-1.11,-2.52,-2.52,-2.52
302.53,-1.82,0.70,-1.82,0.70,-0.70,0.02,-1.08,-2.53,-2.53,-2.53
305.55,-1.82,0.71,-1.82,0.71,-0.71,0.02,-1.06,-2.54,-2.53,-2.53
308.61,-1.82,0.72,-1.82,0.72,-0.72,0.02,-1.03,-2.54,-2.54,-2.54
311.69,-1.81,0.74,-1.81,0.73,-0.73,0.02,-1.00,-2.55,-2.55,-2.55
314.81,-1.80,0.75,-1.81,0.75,-0.75,0.02,-0.98,-2.55,-2.55,-2.55
317.96,-1.80,0.76,-1.80,0.76,-0.76,0.02,-0.95,-2.56,-2.56,-2.56
321.14,-1.78,0.77,-1.79,0.77,-0.77,0.02,-0.92,-2.56,-2.56,-2.56
324.35,-1.78,0.79,-1.78,0.79,-0.79,0.02,-0.90,-2.57,-2.56,-2.57
327.59,-1.76,0.80,-1.76,0.81,-0.81,0.02,-0.87,-2.57,-2.57,-2.56
330.87,-1.75,0.81,-1.75,0.82,-0.82,0.02,-0.85,-2.58,-2.57,-2.56
334.18,-1.72,0.86,-1.73,0.84,-0.84,0.02,-0.82,-2.56,-2.57,-2.58
337.52,-1.71,0.86,-1.71,0.86,-0.86,0.02,-0.80,-2.57,-2.57,-2.58
340.90,-1.69,0.89,-1.69,0.88,-0.88,0.02,-0.77,-2.57,-2.57,-2.58
344.30,-1.68,0.89,-1.68,0.90,-0.90,0.02,-0.75,-2.58,-2.58,-2.57
347.75,-1.66,0.91,-1.66,0.92,-0.92,0.02,-0.73,-2.58,-2.58,-2.57
351.23,-1.63,0.95,-1.64,0.94,-0.94,0.02,-0.71,-2.57,-2.58,-2.58
354.74,-1.61,0.96,-1.62,0.96,-0.96,0.02,-0.68,-2.57,-2.58,-2.57
358.28,-1.60,0.98,-1.60,0.98,-0.98,0.02,-0.66,-2.58,-2.58,-2.58
361.87,-1.57,1.00,-1.58,1.00,-1.00,0.02,-0.64,-2.57,-2.58,-2.58
365.49,-1.56,1.02,-1.56,1.02,-1.02,0.03,-0.62,-2.58,-2.58,-2.58
369.14,-1.54,1.03,-1.54,1.04,-1.04,0.03,-0.60,-2.58,-2.58,-2.57
372.83,-1.52,1.05,-1.53,1.05,-1.05,0.03,-0.58,-2.58,-2.58,-2.58
376.56,-1.51,1.07,-1.51,1.07,-1.07,0.03,-0.57,-2.58,-2.58,-2.58
380.33,-1.49,1.09,-1.49,1.09,-1.09,0.03,-0.55,-2.58,-2.58,-2.58
384.13,-1.48,1.10,-1.48,1.10,-1.10,0.03,-0.53,-2.58,-2.58,-2.59
387.97,-1.46,1.12,-1.47,1.12,-1.12,0.03,-0.51,-2.58,-2.58,-2.58
391.85,-1.46,1.12,-1.46,1.13,-1.13,0.03,-0.50,-2.59,-2.58,-2.58
395.77,-1.44,1.14,-1.45,1.14,-1.14,0.03,-0.48,-2.58,-2.58,-2.59
399.73,-1.43,1.16,-1.44,1.15,-1.15,0.03,-0.46,-2.58,-2.58,-2.59
403.72,-1.43,1.15,-1.43,1.15,-1.15,0.03,-0.45,-2.59,-2.58,-2.58
407.76,-1.42,1.16,-1.42,1.16,-1.16,0.04,-0.43,-2.58,-2.58,-2.58
411.84,-1.42,1.16,-1.42,1.17,-1.17,0.04,-0.42,-2.59,-2.59,-2.59
415.96,-1.41,1.17,-1.42,1.17,-1.17,0.04,-0.41,-2.58,-2.59,-2.58
420.12,-1.42,1.17,-1.42,1.17,-1.17,0.04,-0.39,-2.59,-2.59,-2.59
424.32,-1.42,1.17,-1.42,1.17,-1.17,0.04,-0.38,-2.59,-2.59,-2.59
428.56,-1.42,1.16,-1.43,1.16,-1.16,0.04,-0.37,-2.59,-2.59,-2.58
432.85,-1.43,1.15,-1.43,1.16,-1.16,0.04,-0.36,-2.59,-2.59,-2.59
437.18,-1.44,1.16,-1.44,1.15,-1.15,0.05,-0.34,-2.59,-2.60,-2.60
441.55,-1.45,1.15,-1.45,1.14,-1.14,0.05,-0.33,-2.60,-2.60,-2.60
445.96,-1.46,1.14,-1.47,1.13,-1.13,0.05,-0.32,-2.59,-2.60,-2.60
450.42,-1.48,1.12,-1.48,1.12,-1.12,0.05,-0.31,-2.60,-2.60,-2.60
454.93,-1.50,1.10,-1.50,1.10,-1.10,0.05,-0.30,-2.60,-2.60,-2.60
459.48,-1.52,1.08,-1.52,1.08,-1.08,0.06,-0.29,-2.61,-2.60,-2.61
464.07,-1.54,1.06,-1.54,1.07,-1.07,0.06,-0.28,-2.61,-2.60,-2.60
468.71,-1.56,1.04,-1.56,1.04,-1.04,0.06,-0.27,-2.61,-2.60,-2.60
473.40,-1.58,1.02,-1.59,1.02,-1.02,0.06,-0.26,-2.60,-2.60,-2.60
478.13,-1.61,0.99,-1.61,0.99,-0.99,0.07,-0.26,-2.60,-2.60,-2.60
482.91,-1.63,0.97,-1.64,0.96,-0.96,0.07,-0.25,-2.59,-2.60,-2.60
487.74,-1.67,0.92,-1.67,0.93,-0.93,0.07,-0.24,-2.60,-2.60,-2.59
492.62,-1.70,0.89,-1.70,0.89,-0.89,0.08,-0.23,-2.60,-2.60,-2.60
497.55,-1.73,0.86,-1.74,0.86,-0.86,0.08,-0.23,-2.59,-2.59,-2.60
502.52,-1.77,0.83,-1.77,0.82,-0.82,0.08,-0.22,-2.59,-2.59,-2.60
507.55,-1.81,0.78,-1.81,0.78,-0.78,0.09,-0.22,-2.59,-2.59,-2.59
512.62,-1.85,0.74,-1.85,0.73,-0.73,0.09,-0.21,-2.59,-2.59,-2.59
517.75,-1.89,0.68,-1.89,0.69,-0.69,0.10,-0.20,-2.58,-2.58,-2.57
522.93,-1.94,0.63,-1.94,0.64,-0.64,0.10,-0.20,-2.58,-2.58,-2.57
528.16,-1.98,0.59,-1.98,0.59,-0.59,0.11,-0.20,-2.57,-2.57,-2.57
