frequency,raw,error,smoothed,error_smoothed,equalization,parametric_eq,fixed_band_eq,equalized_raw,equalized_smoothed,target
20.00,5.31,-3.82,5.31,-3.82,3.82,3.70,1.45,9.13,9.13,9.13
20.20,5.32,-3.80,5.32,-3.80,3.80,3.71,1.49,9.12,9.12,9.12
20.40,5.33,-3.78,5.34,-3.77,3.77,3.72,1.54,9.10,9.11,9.11
20.61,5.35,-3.75,5.35,-3.75,3.75,3.72,1.58,9.10,9.10,9.10
20.81,5.36,-3.72,5.36,-3.72,3.72,3.71,1.63,9.09,9.08,9.08
21.02,5.37,-3.70,5.37,-3.70,3.70,3.71,1.68,9.07,9.07,9.07
21.23,5.38,-3.67,5.38,-3.68,3.68,3.70,1.73,9.06,9.06,9.06
21.44,5.39,-3.67,5.39,-3.66,3.66,3.68,1.79,9.05,9.05,9.07
21.66,5.40,-3.64,5.41,-3.64,3.64,3.67,1.84,9.04,9.04,9.04
21.87,5.41,-3.63,5.42,-3.62,3.62,3.65,1.90,9.03,9.03,9.04
22.09,5.42,-3.60,5.43,-3.60,3.60,3.62,1.95,9.02,9.03,9.02
22.31,5.44,-3.58,5.44,-3.58,3.58,3.60,2.01,9.02,9.02,9.02
22.54,5.45,-3.56,5.45,-3.56,3.56,3.57,2.07,9.02,9.01,9.01
22.76,5.46,-3.55,5.46,-3.55,3.55,3.55,2.14,9.01,9.01,9.01
22.99,5.47,-3.53,5.47,-3.53,3.53,3.52,2.20,9.00,9.00,9.00
23.22,5.48,-3.50,5.48,-3.51,3.51,3.49,2.26,9.00,9.00,8.99
23.45,5.49,-3.50,5.49,-3.50,3.50,3.47,2.33,8.99,8.99,9.00
23.69,5.50,-3.48,5.50,-3.48,3.48,3.44,2.40,8.98,8.99,8.98
23.92,5.51,-3.46,5.51,-3.47,3.47,3.41,2.47,8.98,8.98,8.97
24.16,5.52,-3.46,5.52,-3.45,3.45,3.38,2.54,8.98,8.98,8.98
24.40,5.53,-3.45,5.53,-3.44,3.44,3.36,2.61,8.97,8.97,8.98
24.65,5.54,-3.44,5.54,-3.43,3.43,3.33,2.68,8.97,8.97,8.98
24.89,5.55,-3.42,5.55,-3.42,3.42,3.31,2.75,8.97,8.97,8.98
25.14,5.56,-3.40,5.56,-3.41,3.41,3.28,2.83,8.97,8.97,8.96
25.39,5.57,-3.39,5.57,-3.39,3.39,3.26,2.90,8.97,8.97,8.96
25.65,5.58,-3.38,5.58,-3.38,3.38,3.23,2.97,8.97,8.96,8.96
25.91,5.59,-3.37,5.59,-3.37,3.37,3.21,3.05,8.97,8.96,8.96
26.16,5.60,-3.36,5.60,-3.36,3.36,3.19,3.12,8.97,8.96,8.97
26.43,5.60,-3.36,5.61,-3.36,3.36,3.17,3.19,8.96,8.96,8.97
26.69,5.61,-3.35,5.62,-3.35,3.35,3.16,3.26,8.96,8.96,8.96
26.96,5.62,-3.34,5.62,-3.34,3.34,3.14,3.33,8.96,8.96,8.96
27.23,5.63,-3.33,5.63,-3.33,3.33,3.12,3.40,8.96,8.96,8.96
27.50,5.64,-3.31,5.64,-3.33,3.33,3.11,3.47,8.97,8.96,8.96
27.77,5.64,-3.32,5.64,-3.32,3.32,3.09,3.53,8.96,8.96,8.96
28.05,5.65,-3.31,5.65,-3.31,3.31,3.08,3.59,8.97,8.97,8.96
28.33,5.66,-3.31,5.66,-3.31,3.31,3.06,3.65,8.97,8.97,8.97
28.62,5.66,-3.30,5.67,-3.30,3.30,3.05,3.71,8.96,8.97,8.97
28.90,5.67,-3.30,5.67,-3.29,3.29,3.04,3.76,8.96,8.96,8.97
29.19,5.68,-3.29,5.68,-3.28,3.28,3.03,3.80,8.96,8.96,8.97
29.48,5.68,-3.28,5.69,-3.27,3.27,3.02,3.84,8.96,8.96,8.97
29.78,5.69,-3.27,5.69,-3.26,3.26,3.01,3.88,8.96,8.96,8.96
30.08,5.70,-3.26,5.70,-3.25,3.25,3.00,3.91,8.96,8.95,8.96
30.38,5.71,-3.23,5.71,-3.24,3.24,2.99,3.93,8.95,8.95,8.95
30.68,5.71,-3.23,5.71,-3.23,3.23,2.98,3.95,8.94,8.95,8.94
30.99,5.72,-3.22,5.72,-3.22,3.22,2.97,3.96,8.94,8.94,8.94
31.30,5.72,-3.21,5.72,-3.21,3.21,2.97,3.97,8.93,8.93,8.93
31.61,5.73,-3.20,5.73,-3.19,3.19,2.96,3.97,8.93,8.92,8.93
31.93,5.73,-3.17,5.73,-3.18,3.18,2.95,3.96,8.92,8.92,8.91
32.24,5.73,-3.18,5.74,-3.17,3.17,2.94,3.95,8.90,8.91,8.91
32.57,5.74,-3.15,5.74,-3.16,3.16,2.94,3.93,8.90,8.90,8.90
32.89,5.74,-3.15,5.74,-3.15,3.15,2.93,3.91,8.90,8.89,8.89
33.22,5.74,-3.14,5.74,-3.15,3.15,2.93,3.88,8.89,8.88,8.89
33.55,5.74,-3.14,5.74,-3.14,3.14,2.92,3.85,8.88,8.88,8.88
33.89,5.74,-3.12,5.74,-3.13,3.13,2.91,3.81,8.87,8.87,8.86
34.23,5.74,-3.11,5.74,-3.12,3.12,2.91,3.77,8.86,8.86,8.85
34.57,5.73,-3.11,5.74,-3.11,3.11,2.90,3.72,8.84,8.85,8.84
34.92,5.73,-3.09,5.74,-3.10,3.10,2.89,3.67,8.83,8.84,8.83
35.27,5.73,-3.11,5.74,-3.09,3.09,2.89,3.62,8.82,8.82,8.84
35.62,5.73,-3.08,5.74,-3.07,3.07,2.88,3.56,8.81,8.81,8.81
35.97,5.73,-3.07,5.74,-3.06,3.06,2.88,3.50,8.79,8.80,8.81
36.33,5.73,-3.06,5.74,-3.04,3.04,2.87,3.44,8.77,8.78,8.79
36.70,5.74,-3.02,5.74,-3.02,3.02,2.86,3.38,8.77,8.76,8.76
37.06,5.74,-3.00,5.74,-3.01,3.01,2.86,3.32,8.75,8.75,8.74
37.43,5.74,-2.98,5.74,-2.99,2.99,2.85,3.26,8.73,8.73,8.73
37.81,5.74,-2.97,5.74,-2.96,2.96,2.84,3.19,8.71,8.71,8.71
38.19,5.74,-2.94,5.74,-2.94,2.94,2.83,3.13,8.69,8.68,8.68
38.57,5.74,-2.92,5.74,-2.92,2.92,2.83,3.07,8.66,8.66,8.66
38.95,5.74,-2.90,5.74,-2.90,2.90,2.82,3.00,8.64,8.64,8.64
39.34,5.73,-2.88,5.73,-2.88,2.88,2.81,2.94,8.61,8.61,8.61
39.74,5.73,-2.85,5.73,-2.86,2.86,2.80,2.88,8.59,8.59,8.58
40.14,5.72,-2.84,5.72,-2.84,2.84,2.79,2.82,8.56,8.56,8.56
40.54,5.71,-2.83,5.72,-2.82,2.82,2.78,2.76,8.53,8.54,8.54
40.94,5.71,-2.80,5.71,-2.81,2.81,2.77,2.70,8.52,8.51,8.51
41.35,5.70,-2.78,5.70,-2.79,2.79,2.76,2.65,8.49,8.49,8.49
41.76,5.69,-2.76,5.69,-2.77,2.77,2.75,2.59,8.47,8.46,8.45
42.18,5.67,-2.77,5.68,-2.76,2.76,2.74,2.54,8.43,8.44,8.44
42.60,5.66,-2.75,5.67,-2.74,2.74,2.73,2.49,8.41,8.41,8.41
43.03,5.65,-2.73,5.65,-2.73,2.73,2.72,2.44,8.38,8.38,8.39
43.46,5.64,-2.71,5.64,-2.72,2.72,2.71,2.39,8.36,8.36,8.35
43.90,5.62,-2.70,5.63,-2.70,2.70,2.69,2.34,8.32,8.33,8.33
44.33,5.61,-2.68,5.61,-2.68,2.68,2.68,2.30,8.30,8.30,8.29
44.78,5.60,-2.66,5.60,-2.67,2.67,2.67,2.26,8.27,8.26,8.27
45.23,5.58,-2.66,5.58,-2.65,2.65,2.65,2.22,8.23,8.23,8.24
45.68,5.56,-2.63,5.57,-2.63,2.63,2.64,2.18,8.19,8.19,8.19
46.13,5.55,-2.60,5.55,-2.60,2.60,2.62,2.14,8.16,8.15,8.16
46.60,5.53,-2.59,5.53,-2.58,2.58,2.61,2.11,8.11,8.11,8.12
47.06,5.52,-2.56,5.52,-2.55,2.55,2.59,2.07,8.07,8.07,8.08
47.53,5.50,-2.54,5.50,-2.53,2.53,2.57,2.04,8.03,8.03,8.04
48.01,5.49,-2.49,5.49,-2.50,2.50,2.56,2.01,7.99,7.98,7.98
48.49,5.47,-2.47,5.47,-2.47,2.47,2.54,1.98,7.94,7.94,7.94
48.97,5.45,-2.44,5.46,-2.44,2.44,2.52,1.96,7.89,7.89,7.89
49.46,5.44,-2.40,5.44,-2.41,2.41,2.50,1.93,7.85,7.85,7.85
49.96,5.43,-2.35,5.43,-2.37,2.37,2.48,1.90,7.80,7.80,7.78
50.46,5.42,-2.33,5.42,-2.34,2.34,2.46,1.88,7.76,7.75,7.75
50.96,5.40,-2.30,5.41,-2.30,2.30,2.44,1.86,7.70,7.71,7.71
51.47,5.39,-2.27,5.40,-2.26,2.26,2.42,1.84,7.66,7.66,7.66
51.99,5.38,-2.22,5.39,-2.22,2.22,2.40,1.81,7.61,7.61,7.60
52.51,5.37,-2.20,5.38,-2.18,2.18,2.37,1.79,7.55,7.56,7.57
53.03,5.37,-2.16,5.38,-2.14,2.14,2.35,1.77,7.51,7.52,7.53
53.56,5.37,-2.11,5.38,-2.10,2.10,2.33,1.75,7.47,7.47,7.48
54.10,5.37,-2.05,5.38,-2.05,2.05,2.30,1.73,7.42,7.43,7.42
54.64,5.37,-2.01,5.38,-2.01,2.01,2.27,1.72,7.38,7.38,7.38
55.18,5.37,-1.96,5.38,-1.96,1.96,2.25,1.70,7.33,7.34,7.33
55.74,5.38,-1.90,5.38,-1.92,1.92,2.22,1.67,7.30,7.29,7.28
56.29,5.38,-1.86,5.38,-1.87,1.87,2.19,1.65,7.25,7.25,7.24
56.86,5.39,-1.81,5.38,-1.82,1.82,2.17,1.63,7.21,7.20,7.20
57.42,5.39,-1.75,5.39,-1.77,1.77,2.14,1.61,7.16,7.15,7.14
58.00,5.39,-1.70,5.39,-1.72,1.72,2.11,1.59,7.11,7.10,7.10
58.58,5.39,-1.67,5.39,-1.66,1.66,2.08,1.56,7.06,7.05,7.06
59.16,5.39,-1.63,5.39,-1.61,1.61,2.04,1.53,7.00,7.00,7.02
59.76,5.39,-1.58,5.39,-1.55,1.55,2.01,1.51,6.95,6.95,6.97
60.35,5.39,-1.52,5.39,-1.50,1.50,1.98,1.48,6.89,6.89,6.91
60.96,5.39,-1.46,5.39,-1.44,1.44,1.94,1.45,6.83,6.83,6.85
61.57,5.39,-1.38,5.39,-1.38,1.38,1.91,1.41,6.77,6.78,6.77
62.18,5.39,-1.32,5.39,-1.32,1.32,1.87,1.38,6.72,6.72,6.71
62.80,5.39,-1.25,5.39,-1.26,1.26,1.84,1.34,6.65,6.65,6.64
63.43,5.39,-1.18,5.39,-1.20,1.20,1.80,1.30,6.59,6.59,6.58
64.07,5.39,-1.13,5.39,-1.14,1.14,1.76,1.26,6.53,6.53,6.52
64.71,5.39,-1.07,5.39,-1.07,1.07,1.73,1.22,6.47,6.47,6.46
65.35,5.39,-1.01,5.39,-1.01,1.01,1.69,1.17,6.40,6.40,6.40
66.01,5.39,-0.94,5.39,-0.95,0.95,1.65,1.12,6.34,6.34,6.34
66.67,5.39,-0.89,5.39,-0.88,0.88,1.60,1.07,6.27,6.27,6.28
67.33,5.39,-0.82,5.39,-0.82,0.82,1.56,1.02,6.21,6.21,6.21
68.01,5.39,-0.76,5.39,-0.75,0.75,1.52,0.97,6.15,6.15,6.15
68.69,5.39,-0.69,5.39,-0.69,0.69,1.48,0.91,6.08,6.08,6.09
69.37,5.39,-0.63,5.39,-0.62,0.62,1.43,0.86,6.02,6.02,6.03
70.07,5.39,-0.56,5.39,-0.56,0.56,1.39,0.80,5.95,5.95,5.96
70.77,5.39,-0.49,5.39,-0.49,0.49,1.34,0.74,5.88,5.88,5.89
71.48,5.39,-0.43,5.39,-0.42,0.42,1.29,0.68,5.82,5.82,5.82
72.19,5.39,-0.36,5.39,-0.36,0.36,1.25,0.62,5.75,5.75,5.75
72.91,5.39,-0.28,5.39,-0.29,0.29,1.20,0.55,5.68,5.68,5.67
73.64,5.39,-0.22,5.39,-0.22,0.22,1.15,0.49,5.62,5.62,5.61
74.38,5.39,-0.15,5.39,-0.16,0.16,1.10,0.42,5.55,5.55,5.54
75.12,5.39,-0.09,5.39,-0.09,0.09,1.05,0.36,5.49,5.49,5.48
75.87,5.39,-0.03,5.39,-0.03,0.03,0.99,0.29,5.42,5.42,5.42
76.63,5.39,0.04,5.39,0.03,-0.03,0.94,0.22,5.36,5.36,5.35
77.40,5.39,0.09,5.39,0.10,-0.10,0.89,0.15,5.30,5.30,5.30
78.17,5.39,0.17,5.39,0.16,-0.16,0.83,0.08,5.23,5.23,5.22
78.95,5.39,0.21,5.39,0.22,-0.22,0.78,0.01,5.17,5.17,5.18
79.74,5.39,0.28,5.39,0.28,-0.28,0.72,-0.06,5.11,5.11,5.11
80.54,5.39,0.34,5.39,0.34,-0.34,0.66,-0.13,5.05,5.05,5.05
81.35,5.39,0.41,5.39,0.40,-0.40,0.60,-0.20,4.99,4.99,4.99
82.16,5.39,0.46,5.39,0.47,-0.47,0.54,-0.28,4.93,4.93,4.94
82.98,5.39,0.53,5.39,0.53,-0.53,0.48,-0.35,4.86,4.86,4.87
83.81,5.39,0.59,5.39,0.59,-0.59,0.42,-0.42,4.80,4.80,4.80
84.65,5.39,0.66,5.39,0.66,-0.66,0.36,-0.50,4.74,4.73,4.73
85.50,5.39,0.73,5.39,0.72,-0.72,0.30,-0.57,4.67,4.67,4.67
86.35,5.39,0.79,5.39,0.79,-0.79,0.23,-0.65,4.60,4.60,4.60
87.22,5.39,0.86,5.40,0.86,-0.86,0.17,-0.73,4.53,4.54,4.54
88.09,5.39,0.92,5.40,0.93,-0.93,0.10,-0.80,4.46,4.47,4.47
88.97,5.39,0.99,5.40,1.00,-1.00,0.03,-0.88,4.39,4.40,4.40
89.86,5.39,1.06,5.41,1.08,-1.08,-0.03,-0.96,4.32,4.33,4.33
90.76,5.40,1.14,5.41,1.15,-1.15,-0.10,-1.04,4.25,4.26,4.26
91.66,5.40,1.22,5.41,1.22,-1.22,-0.17,-1.12,4.18,4.19,4.18
92.58,5.41,1.29,5.41,1.29,-1.29,-0.24,-1.20,4.12,4.12,4.12
93.51,5.41,1.36,5.40,1.36,-1.36,-0.31,-1.28,4.05,4.04,4.05
94.44,5.41,1.43,5.39,1.42,-1.42,-0.38,-1.36,3.99,3.97,3.98
95.39,5.41,1.52,5.38,1.49,-1.49,-0.46,-1.44,3.92,3.90,3.90
96.34,5.39,1.57,5.37,1.55,-1.55,-0.53,-1.52,3.84,3.82,3.82
97.30,5.37,1.62,5.36,1.61,-1.61,-0.61,-1.61,3.76,3.75,3.75
98.28,5.34,1.68,5.34,1.66,-1.66,-0.68,-1.69,3.68,3.67,3.67
99.26,5.31,1.72,5.31,1.71,-1.71,-0.76,-1.77,3.60,3.60,3.59
100.25,5.28,1.76,5.29,1.76,-1.76,-0.83,-1.86,3.52,3.53,3.52
101.25,5.25,1.80,5.26,1.80,-1.80,-0.91,-1.94,3.45,3.46,3.45
102.27,5.22,1.84,5.23,1.84,-1.84,-0.99,-2.03,3.38,3.39,3.39
103.29,5.20,1.89,5.20,1.88,-1.88,-1.07,-2.11,3.32,3.32,3.31
104.32,5.18,1.94,5.17,1.92,-1.92,-1.15,-2.19,3.26,3.25,3.25
105.37,5.15,1.97,5.15,1.97,-1.97,-1.23,-2.27,3.19,3.18,3.18
106.42,5.12,2.01,5.12,2.01,-2.01,-1.31,-2.36,3.11,3.11,3.12
107.48,5.09,2.05,5.11,2.07,-2.07,-1.39,-2.44,3.03,3.04,3.04
108.56,5.07,2.10,5.09,2.12,-2.12,-1.48,-2.52,2.95,2.97,2.97
109.64,5.05,2.14,5.08,2.18,-2.18,-1.56,-2.59,2.87,2.90,2.91
110.74,5.04,2.21,5.08,2.25,-2.25,-1.64,-2.67,2.80,2.83,2.83
111.85,5.05,2.29,5.07,2.32,-2.32,-1.73,-2.74,2.74,2.76,2.76
112.97,5.06,2.37,5.07,2.39,-2.39,-1.81,-2.82,2.68,2.69,2.70
114.10,5.07,2.45,5.07,2.46,-2.46,-1.90,-2.88,2.61,2.62,2.62
115.24,5.08,2.54,5.07,2.53,-2.53,-1.98,-2.95,2.55,2.54,2.54
116.39,5.08,2.62,5.07,2.60,-2.60,-2.07,-3.01,2.48,2.47,2.46
117.55,5.09,2.70,5.07,2.67,-2.67,-2.16,-3.08,2.42,2.40,2.39
118.73,5.09,2.77,5.07,2.74,-2.74,-2.24,-3.13,2.36,2.33,2.32
119.92,5.08,2.82,5.06,2.80,-2.80,-2.33,-3.19,2.28,2.27,2.26
121.12,5.07,2.87,5.05,2.86,-2.86,-2.42,-3.23,2.21,2.20,2.20
122.33,5.06,2.93,5.04,2.91,-2.91,-2.51,-3.28,2.15,2.13,2.13
123.55,5.03,2.96,5.02,2.96,-2.96,-2.60,-3.32,2.07,2.06,2.07
124.79,5.00,3.00,4.99,3.00,-3.00,-2.68,-3.36,2.00,1.99,2.00
126.03,4.96,3.03,4.96,3.04,-3.04,-2.77,-3.39,1.92,1.92,1.93
127.29,4.94,3.08,4.93,3.08,-3.08,-2.86,-3.42,1.86,1.86,1.86
128.57,4.91,3.12,4.90,3.12,-3.12,-2.95,-3.45,1.80,1.79,1.79
129.85,4.86,3.14,4.88,3.15,-3.15,-3.04,-3.47,1.71,1.72,1.72
131.15,4.83,3.18,4.85,3.20,-3.20,-3.12,-3.49,1.64,1.65,1.65
132.46,4.81,3.23,4.83,3.24,-3.24,-3.21,-3.51,1.57,1.59,1.59
133.79,4.78,3.27,4.81,3.29,-3.29,-3.30,-3.52,1.50,1.52,1.51
135.12,4.75,3.30,4.79,3.34,-3.34,-3.38,-3.53,1.42,1.45,1.45
136.48,4.74,3.35,4.77,3.39,-3.39,-3.47,-3.53,1.36,1.39,1.39
137.84,4.74,3.42,4.76,3.44,-3.44,-3.55,-3.54,1.30,1.32,1.32
139.22,4.74,3.49,4.75,3.49,-3.49,-3.64,-3.54,1.25,1.26,1.26
140.61,4.75,3.55,4.74,3.54,-3.54,-3.72,-3.54,1.21,1.20,1.20
142.02,4.75,3.62,4.73,3.59,-3.59,-3.80,-3.54,1.16,1.14,1.13
143.44,4.74,3.66,4.72,3.63,-3.63,-3.88,-3.54,1.11,1.08,1.08
144.87,4.73,3.71,4.70,3.68,-3.68,-3.96,-3.54,1.05,1.02,1.03
146.32,4.71,3.75,4.68,3.72,-3.72,-4.04,-3.54,1.00,0.97,0.96
147.78,4.68,3.77,4.66,3.75,-3.75,-4.12,-3.54,0.93,0.91,0.91
149.26,4.65,3.80,4.64,3.78,-3.78,-4.19,-3.54,0.87,0.86,0.85
150.75,4.62,3.83,4.61,3.81,-3.81,-4.27,-3.54,0.81,0.80,0.80
152.26,4.59,3.84,4.59,3.84,-3.84,-4.34,-3.54,0.75,0.75,0.75
153.78,4.55,3.86,4.56,3.87,-3.87,-4.41,-3.54,0.68,0.69,0.69
155.32,4.52,3.88,4.53,3.90,-3.90,-4.48,-3.54,0.63,0.64,0.64
156.88,4.48,3.89,4.51,3.93,-3.93,-4.54,-3.55,0.55,0.58,0.59
158.44,4.46,3.94,4.49,3.96,-3.96,-4.61,-3.55,0.50,0.53,0.53
160.03,4.43,3.96,4.47,4.00,-4.00,-4.67,-3.56,0.43,0.47,0.48
161.63,4.42,4.00,4.45,4.04,-4.04,-4.73,-3.57,0.38,0.42,0.42
163.24,4.42,4.06,4.44,4.08,-4.08,-4.79,-3.58,0.34,0.36,0.36
164.88,4.42,4.12,4.43,4.12,-4.12,-4.84,-3.60,0.30,0.30,0.30
166.53,4.43,4.19,4.41,4.17,-4.17,-4.89,-3.62,0.26,0.25,0.24
168.19,4.42,4.23,4.40,4.21,-4.21,-4.94,-3.64,0.21,0.19,0.20
169.87,4.41,4.28,4.39,4.25,-4.25,-4.98,-3.66,0.16,0.13,0.13
171.57,4.40,4.33,4.37,4.29,-4.29,-5.03,-3.69,0.11,0.07,0.07
173.29,4.38,4.36,4.35,4.33,-4.33,-5.07,-3.72,0.05,0.02,0.02
175.02,4.34,4.38,4.33,4.37,-4.37,-5.10,-3.75,-0.03,-0.04,-0.04
176.77,4.31,4.41,4.30,4.40,-4.40,-5.13,-3.79,-0.09,-0.09,-0.09
178.54,4.28,4.43,4.28,4.43,-4.43,-5.16,-3.82,-0.15,-0.15,-0.15
180.32,4.25,4.47,4.25,4.45,-4.45,-5.19,-3.86,-0.20,-0.21,-0.21
182.13,4.22,4.48,4.22,4.48,-4.48,-5.21,-3.91,-0.26,-0.26,-0.26
183.95,4.17,4.48,4.19,4.50,-4.50,-5.23,-3.96,-0.33,-0.32,-0.31
185.79,4.14,4.51,4.16,4.53,-4.53,-5.25,-4.01,-0.39,-0.37,-0.37
187.65,4.12,4.54,4.14,4.56,-4.56,-5.26,-4.06,-0.44,-0.42,-0.42
189.52,4.10,4.57,4.12,4.60,-4.60,-5.27,-4.11,-0.49,-0.47,-0.47
191.42,4.09,4.61,4.11,4.63,-4.63,-5.28,-4.17,-0.54,-0.52,-0.52
193.33,4.07,4.64,4.10,4.68,-4.68,-5.28,-4.23,-0.60,-0.57,-0.57
195.27,4.07,4.69,4.10,4.72,-4.72,-5.28,-4.29,-0.65,-0.62,-0.62
197.22,4.08,4.76,4.10,4.76,-4.76,-5.27,-4.36,-0.68,-0.66,-0.68
199.19,4.09,4.80,4.10,4.80,-4.80,-5.27,-4.43,-0.71,-0.71,-0.71
201.18,4.10,4.87,4.09,4.84,-4.84,-5.26,-4.49,-0.74,-0.75,-0.76
203.19,4.11,4.91,4.09,4.89,-4.89,-5.24,-4.56,-0.77,-0.79,-0.80
205.23,4.12,4.95,4.09,4.93,-4.93,-5.23,-4.63,-0.80,-0.83,-0.83
207.28,4.11,4.98,4.09,4.96,-4.96,-5.21,-4.71,-0.85,-0.87,-0.87
209.35,4.10,5.01,4.08,4.99,-4.99,-5.18,-4.78,-0.89,-0.91,-0.90
211.44,4.09,5.03,4.07,5.02,-5.02,-5.16,-4.85,-0.92,-0.94,-0.94
213.56,4.07,5.04,4.06,5.04,-5.04,-5.13,-4.92,-0.96,-0.98,-0.97
215.69,4.03,5.04,4.04,5.05,-5.05,-5.10,-4.99,-1.02,-1.01,-1.01
217.85,4.00,5.04,4.02,5.06,-5.06,-5.07,-5.06,-1.06,-1.04,-1.04
220.03,3.98,5.06,3.99,5.06,-5.06,-5.04,-5.13,-1.08,-1.07,-1.08
222.23,3.95,5.06,3.96,5.06,-5.06,-5.00,-5.19,-1.11,-1.10,-1.11
224.45,3.93,5.07,3.92,5.06,-5.06,-4.96,-5.25,-1.12,-1.13,-1.13
226.70,3.89,5.06,3.89,5.05,-5.05,-4.92,-5.31,-1.16,-1.16,-1.17
228.96,3.86,5.04,3.86,5.04,-5.04,-4.88,-5.37,-1.18,-1.18,-1.18
231.25,3.83,5.04,3.82,5.03,-5.03,-4.83,-5.42,-1.20,-1.21,-1.21
233.57,3.79,5.02,3.79,5.02,-5.02,-4.79,-5.46,-1.23,-1.23,-1.23
235.90,3.74,4.99,3.76,5.01,-5.01,-4.74,-5.50,-1.26,-1.25,-1.25
238.26,3.71,4.99,3.73,4.99,-4.99,-4.69,-5.53,-1.28,-1.26,-1.28
240.64,3.68,4.96,3.70,4.98,-4.98,-4.64,-5.55,-1.29,-1.28,-1.27
243.05,3.65,4.94,3.66,4.96,-4.96,-4.59,-5.57,-1.30,-1.29,-1.29
245.48,3.63,4.94,3.63,4.93,-4.93,-4.54,-5.58,-1.30,-1.30,-1.31
247.93,3.60,4.93,3.60,4.91,-4.91,-4.48,-5.58,-1.31,-1.31,-1.32
250.41,3.58,4.90,3.56,4.89,-4.89,-4.43,-5.58,-1.30,-1.32,-1.32
252.92,3.54,4.87,3.53,4.86,-4.86,-4.37,-5.56,-1.32,-1.33,-1.33
255.45,3.52,4.86,3.50,4.84,-4.84,-4.32,-5.54,-1.32,-1.34,-1.34
258.00,3.48,4.83,3.47,4.82,-4.82,-4.26,-5.51,-1.34,-1.35,-1.34
260.58,3.43,4.78,3.44,4.80,-4.80,-4.21,-5.47,-1.36,-1.35,-1.35
263.19,3.39,4.74,3.41,4.77,-4.77,-4.15,-5.43,-1.38,-1.36,-1.35
265.82,3.35,4.72,3.38,4.74,-4.74,-4.09,-5.38,-1.39,-1.36,-1.36
268.48,3.33,4.70,3.34,4.71,-4.71,-4.03,-5.32,-1.38,-1.37,-1.37
271.16,3.31,4.68,3.31,4.68,-4.68,-3.98,-5.26,-1.37,-1.38,-1.37
273.87,3.28,4.66,3.27,4.65,-4.65,-3.92,-5.19,-1.36,-1.38,-1.38
276.61,3.25,4.63,3.23,4.61,-4.61,-3.86,-5.12,-1.36,-1.38,-1.38
279.38,3.22,4.62,3.19,4.58,-4.58,-3.80,-5.04,-1.36,-1.39,-1.40
282.17,3.17,4.57,3.16,4.55,-4.55,-3.74,-4.96,-1.37,-1.39,-1.40
284.99,3.13,4.52,3.12,4.51,-4.51,-3.68,-4.88,-1.38,-1.39,-1.39
287.84,3.07,4.46,3.09,4.48,-4.48,-3.63,-4.79,-1.41,-1.39,-1.39
290.72,3.02,4.42,3.05,4.44,-4.44,-3.57,-4.70,-1.42,-1.39,-1.40
293.63,2.98,4.37,3.02,4.41,-4.41,-3.51,-4.61,-1.42,-1.39,-1.39
296.57,2.95,4.34,2.98,4.37,-4.37,-3.46,-4.52,-1.41,-1.39,-1.39
299.53,2.94,4.33,2.94,4.33,-4.33,-3.40,-4.43,-1.38,-1.38,-1.38
302.53,2.92,4.29,2.90,4.29,-4.29,-3.34,-4.34,-1.36,-1.38,-1.37
305.55,2.89,4.27,2.87,4.25,-4.25,-3.29,-4.25,-1.36,-1.38,-1.38
308.61,2.86,4.23,2.84,4.21,-4.21,-3.23,-4.15,-1.35,-1.37,-1.37
311.69,2.81,4.18,2.81,4.17,-4.17,-3.18,-4.06,-1.36,-1.36,-1.36
314.81,2.77,4.13,2.78,4.14,-4.14,-3.12,-3.97,-1.37,-1.36,-1.36
317.96,2.73,4.09,2.75,4.10,-4.10,-3.07,-3.88,-1.37,-1.35,-1.36
321.14,2.70,4.05,2.72,4.07,-4.07,-3.01,-3.80,-1.37,-1.35,-1.34
324.35,2.67,4.02,2.69,4.03,-4.03,-2.96,-3.71,-1.36,-1.34,-1.35
327.59,2.65,3.98,2.65,3.99,-3.99,-2.91,-3.63,-1.34,-1.34,-1.33
330.87,2.64,3.97,2.62,3.95,-3.95,-2.86,-3.55,-1.31,-1.33,-1.33
334.18,2.60,3.93,2.58,3.91,-3.91,-2.81,-3.47,-1.30,-1.32,-1.33
337.52,2.56,3.88,2.55,3.86,-3.86,-2.76,-3.39,-1.30,-1.32,-1.32
340.90,2.51,3.82,2.51,3.82,-3.82,-2.71,-3.31,-1.31,-1.31,-1.31
344.30,2.46,3.76,2.47,3.78,-3.78,-2.66,-3.24,-1.31,-1.30,-1.30
347.75,2.42,3.72,2.43,3.73,-3.73,-2.61,-3.17,-1.31,-1.30,-1.30
351.23,2.38,3.68,2.39,3.68,-3.68,-2.56,-3.10,-1.30,-1.29,-1.30
354.74,2.35,3.63,2.35,3.63,-3.63,-2.52,-3.03,-1.28,-1.28,-1.27
358.28,2.31,3.59,2.31,3.58,-3.58,-2.47,-2.97,-1.27,-1.28,-1.28
361.87,2.28,3.55,2.26,3.53,-3.53,-2.43,-2.91,-1.25,-1.27,-1.27
365.49,2.23,3.50,2.22,3.48,-3.48,-2.38,-2.85,-1.25,-1.26,-1.27
369.14,2.18,3.43,2.17,3.43,-3.43,-2.34,-2.79,-1.25,-1.26,-1.25
372.83,2.13,3.38,2.13,3.38,-3.38,-2.30,-2.74,-1.25,-1.25,-1.24
376.56,2.08,3.33,2.09,3.33,-3.33,-2.25,-2.68,-1.25,-1.24,-1.25
380.33,2.03,3.27,2.05,3.29,-3.29,-2.21,-2.63,-1.25,-1.23,-1.24
384.13,1.99,3.22,2.02,3.24,-3.24,-2.17,-2.59,-1.25,-1.22,-1.22
387.97,1.96,3.18,1.98,3.19,-3.19,-2.13,-2.54,-1.23,-1.22,-1.22
391.85,1.94,3.15,1.94,3.15,-3.15,-2.09,-2.50,-1.21,-1.21,-1.21
395.77,1.91,3.11,1.91,3.10,-3.10,-2.05,-2.45,-1.19,-1.20,-1.20
399.73,1.88,3.08,1.87,3.06,-3.06,-2.02,-2.41,-1.18,-1.19,-1.19
403.72,1.84,3.01,1.84,3.02,-3.02,-1.98,-2.37,-1.18,-1.18,-1.17
407.76,1.80,2.97,1.81,2.98,-2.98,-1.94,-2.34,-1.18,-1.17,-1.17
411.84,1.77,2.93,1.78,2.94,-2.94,-1.91,-2.30,-1.17,-1.16,-1.16
415.96,1.74,2.89,1.74,2.90,-2.90,-1.88,-2.27,-1.15,-1.15,-1.14
420.12,1.71,2.86,1.71,2.85,-2.85,-1.84,-2.24,-1.14,-1.14,-1.15
424.32,1.69,2.83,1.67,2.80,-2.80,-1.81,-2.21,-1.11,-1.14,-1.14
428.56,1.65,2.77,1.63,2.76,-2.76,-1.78,-2.18,-1.11,-1.13,-1.12
432.85,1.61,2.72,1.59,2.71,-2.71,-1.75,-2.15,-1.10,-1.12,-1.11
437.18,1.56,2.68,1.55,2.66,-2.66,-1.71,-2.12,-1.10,-1.11,-1.11
441.55,1.51,2.62,1.51,2.61,-2.61,-1.68,-2.10,-1.10,-1.10,-1.11
445.96,1.45,2.55,1.47,2.56,-2.56,-1.66,-2.07,-1.11,-1.09,-1.10
450.42,1.39,2.48,1.42,2.51,-2.51,-1.63,-2.05,-1.12,-1.09,-1.09
454.93,1.36,2.44,1.38,2.46,-2.46,-1.60,-2.02,-1.10,-1.08,-1.08
459.48,1.32,2.40,1.34,2.41,-2.41,-1.57,-2.00,-1.09,-1.07,-1.07
464.07,1.30,2.36,1.30,2.36,-2.36,-1.55,-1.98,-1.06,-1.06,-1.05
468.71,1.27,2.32,1.26,2.31,-2.31,-1.52,-1.95,-1.04,-1.05,-1.05
473.40,1.23,2.27,1.22,2.26,-2.26,-1.50,-1.93,-1.03,-1.04,-1.04
478.13,1.19,2.22,1.19,2.22,-2.22,-1.47,-1.91,-1.03,-1.03,-1.03
482.91,1.15,2.17,1.15,2.17,-2.17,-1.45,-1.89,-1.02,-1.02,-1.02
487.74,1.10,2.11,1.12,2.13,-2.13,-1.43,-1.87,-1.03,-1.01,-1.01
492.62,1.06,2.06,1.09,2.08,-2.08,-1.40,-1.85,-1.02,-1.00,-1.00
497.55,1.04,2.04,1.05,2.04,-2.04,-1.38,-1.83,-1.00,-0.99,-0.99
502.52,1.02,2.01,1.02,1.99,-1.99,-1.36,-1.81,-0.97,-0.98,-0.98
507.55,1.00,1.97,0.98,1.95,-1.95,-1.34,-1.78,-0.94,-0.97,-0.97
512.62,0.97,1.93,0.95,1.90,-1.90,-1.32,-1.76,-0.93,-0.95,-0.96
517.75,0.93,1.87,0.91,1.86,-1.86,-1.30,-1.74,-0.92,-0.94,-0.94
522.93,0.88,1.81,0.88,1.81,-1.81,-1.28,-1.72,-0.93,-0.93,-0.93
528.16,0.84,1.76,0.85,1.77,-1.77,-1.26,-1.70,-0.92,-0.92,-0.92
