frequency,raw,error,smoothed,error_smoothed,equalization,parametric_eq,fixed_band_eq,equalized_raw,equalized_smoothed,target
20.00,-2.69,-6.20,-2.69,-6.24,6.24,6.46,2.44,3.55,3.54,3.51
20.20,-2.65,-6.21,-2.65,-6.23,6.23,6.44,2.51,3.58,3.58,3.56
20.40,-2.61,-6.22,-2.60,-6.22,6.22,6.42,2.58,3.61,3.62,3.61
20.61,-2.57,-6.21,-2.55,-6.20,6.20,6.40,2.66,3.63,3.65,3.64
20.81,-2.53,-6.22,-2.51,-6.19,6.19,6.37,2.73,3.66,3.68,3.69
21.02,-2.48,-6.21,-2.47,-6.17,6.17,6.35,2.81,3.70,3.71,3.73
21.23,-2.43,-6.18,-2.42,-6.16,6.16,6.33,2.90,3.73,3.73,3.75
21.44,-2.37,-6.14,-2.38,-6.14,6.14,6.30,2.98,3.77,3.76,3.77
21.66,-2.31,-6.10,-2.34,-6.12,6.12,6.28,3.07,3.81,3.78,3.79
21.87,-2.25,-6.05,-2.31,-6.10,6.10,6.25,3.16,3.85,3.80,3.80
22.09,-2.22,-6.04,-2.27,-6.08,6.08,6.22,3.25,3.86,3.81,3.82
22.31,-2.21,-6.04,-2.24,-6.06,6.06,6.19,3.34,3.85,3.83,3.83
22.54,-2.20,-6.03,-2.20,-6.03,6.03,6.17,3.44,3.83,3.83,3.83
22.76,-2.20,-6.03,-2.17,-6.00,6.00,6.14,3.54,3.81,3.83,3.83
22.99,-2.19,-6.01,-2.14,-5.98,5.98,6.11,3.64,3.79,3.84,3.82
23.22,-2.15,-5.97,-2.11,-5.95,5.95,6.08,3.74,3.80,3.84,3.82
23.45,-2.11,-5.93,-2.09,-5.92,5.92,6.05,3.85,3.81,3.84,3.82
23.69,-2.07,-5.90,-2.06,-5.90,5.90,6.02,3.96,3.83,3.84,3.83
23.92,-2.02,-5.85,-2.03,-5.87,5.87,5.99,4.07,3.85,3.84,3.83
24.16,-1.99,-5.82,-2.01,-5.85,5.85,5.96,4.18,3.86,3.84,3.83
24.40,-1.97,-5.81,-1.98,-5.82,5.82,5.93,4.30,3.85,3.84,3.84
24.65,-1.94,-5.77,-1.95,-5.78,5.78,5.90,4.41,3.84,3.84,3.83
24.89,-1.91,-5.74,-1.91,-5.75,5.75,5.88,4.53,3.84,3.84,3.83
25.14,-1.89,-5.72,-1.88,-5.72,5.72,5.85,4.65,3.83,3.84,3.83
25.39,-1.86,-5.70,-1.85,-5.69,5.69,5.82,4.77,3.83,3.84,3.84
25.65,-1.83,-5.67,-1.83,-5.67,5.67,5.79,4.89,3.84,3.84,3.84
25.91,-1.81,-5.64,-1.80,-5.64,5.64,5.76,5.01,3.83,3.84,3.83
26.16,-1.78,-5.61,-1.78,-5.62,5.62,5.74,5.13,3.84,3.84,3.83
26.43,-1.76,-5.59,-1.76,-5.60,5.60,5.71,5.25,3.84,3.84,3.83
26.69,-1.73,-5.56,-1.75,-5.58,5.58,5.68,5.37,3.85,3.83,3.83
26.96,-1.70,-5.53,-1.73,-5.56,5.56,5.66,5.49,3.86,3.83,3.83
27.23,-1.70,-5.53,-1.71,-5.54,5.54,5.64,5.61,3.84,3.83,3.83
27.50,-1.70,-5.53,-1.69,-5.52,5.52,5.61,5.72,3.82,3.83,3.83
27.77,-1.70,-5.52,-1.68,-5.51,5.51,5.59,5.83,3.81,3.83,3.82
28.05,-1.69,-5.51,-1.67,-5.49,5.49,5.57,5.94,3.80,3.83,3.82
28.33,-1.67,-5.48,-1.65,-5.48,5.48,5.54,6.04,3.81,3.82,3.81
28.62,-1.64,-5.45,-1.64,-5.46,5.46,5.52,6.13,3.82,3.82,3.81
28.90,-1.61,-5.43,-1.62,-5.45,5.45,5.50,6.22,3.84,3.82,3.82
29.19,-1.60,-5.41,-1.61,-5.43,5.43,5.48,6.31,3.83,3.82,3.81
29.48,-1.60,-5.42,-1.60,-5.42,5.42,5.46,6.38,3.82,3.82,3.82
29.78,-1.60,-5.41,-1.59,-5.41,5.41,5.44,6.45,3.81,3.82,3.81
30.08,-1.59,-5.41,-1.57,-5.39,5.39,5.43,6.51,3.80,3.82,3.82
30.38,-1.56,-5.37,-1.55,-5.37,5.37,5.41,6.56,3.81,3.81,3.81
30.68,-1.53,-5.34,-1.54,-5.35,5.35,5.39,6.60,3.82,3.81,3.81
30.99,-1.50,-5.31,-1.52,-5.33,5.33,5.38,6.63,3.83,3.81,3.81
31.30,-1.50,-5.30,-1.50,-5.31,5.31,5.36,6.65,3.81,3.81,3.80
31.61,-1.50,-5.30,-1.49,-5.29,5.29,5.35,6.66,3.79,3.81,3.80
31.93,-1.50,-5.30,-1.47,-5.28,5.28,5.34,6.67,3.78,3.80,3.80
32.24,-1.48,-5.27,-1.46,-5.26,5.26,5.33,6.66,3.78,3.80,3.79
32.57,-1.44,-5.23,-1.44,-5.24,5.24,5.31,6.64,3.80,3.79,3.79
32.89,-1.41,-5.20,-1.43,-5.22,5.22,5.30,6.62,3.81,3.79,3.79
33.22,-1.40,-5.18,-1.42,-5.21,5.21,5.29,6.59,3.81,3.79,3.78
33.55,-1.40,-5.18,-1.41,-5.19,5.19,5.28,6.55,3.79,3.78,3.78
33.89,-1.40,-5.17,-1.41,-5.18,5.18,5.27,6.50,3.78,3.78,3.77
34.23,-1.40,-5.17,-1.40,-5.17,5.17,5.27,6.45,3.77,3.77,3.77
34.57,-1.40,-5.16,-1.40,-5.16,5.16,5.26,6.39,3.76,3.77,3.76
34.92,-1.40,-5.16,-1.39,-5.15,5.15,5.25,6.33,3.75,3.76,3.76
35.27,-1.40,-5.15,-1.38,-5.14,5.14,5.25,6.26,3.75,3.76,3.75
35.62,-1.40,-5.15,-1.39,-5.14,5.14,5.24,6.19,3.74,3.76,3.75
35.97,-1.40,-5.15,-1.39,-5.15,5.15,5.23,6.12,3.75,3.75,3.75
36.33,-1.40,-5.15,-1.40,-5.15,5.15,5.23,6.04,3.75,3.75,3.75
36.70,-1.40,-5.14,-1.41,-5.16,5.16,5.22,5.96,3.76,3.75,3.74
37.06,-1.40,-5.14,-1.42,-5.17,5.17,5.22,5.89,3.77,3.75,3.74
37.43,-1.40,-5.15,-1.42,-5.18,5.18,5.22,5.81,3.78,3.75,3.75
37.81,-1.40,-5.15,-1.43,-5.19,5.19,5.21,5.73,3.79,3.75,3.75
38.19,-1.42,-5.16,-1.44,-5.20,5.20,5.21,5.66,3.78,3.75,3.74
38.57,-1.46,-5.21,-1.45,-5.21,5.21,5.21,5.58,3.75,3.75,3.75
38.95,-1.50,-5.26,-1.46,-5.22,5.22,5.20,5.51,3.72,3.75,3.76
39.34,-1.50,-5.25,-1.47,-5.23,5.23,5.20,5.44,3.73,3.75,3.75
39.74,-1.50,-5.25,-1.48,-5.24,5.24,5.20,5.37,3.74,3.75,3.75
40.14,-1.50,-5.25,-1.49,-5.25,5.25,5.20,5.30,3.75,3.75,3.75
40.54,-1.50,-5.25,-1.50,-5.25,5.25,5.19,5.24,3.75,3.75,3.75
40.94,-1.50,-5.24,-1.51,-5.25,5.25,5.19,5.18,3.76,3.75,3.74
41.35,-1.50,-5.24,-1.51,-5.25,5.25,5.19,5.12,3.75,3.74,3.74
41.76,-1.50,-5.23,-1.51,-5.24,5.24,5.19,5.07,3.75,3.74,3.73
42.18,-1.50,-5.23,-1.50,-5.23,5.23,5.18,5.02,3.73,3.73,3.73
42.60,-1.50,-5.22,-1.50,-5.21,5.21,5.18,4.97,3.72,3.72,3.72
43.03,-1.50,-5.21,-1.49,-5.19,5.19,5.18,4.93,3.69,3.71,3.71
43.46,-1.50,-5.20,-1.48,-5.17,5.17,5.17,4.89,3.67,3.69,3.70
43.90,-1.50,-5.18,-1.47,-5.15,5.15,5.17,4.85,3.65,3.68,3.68
44.33,-1.47,-5.13,-1.46,-5.13,5.13,5.16,4.82,3.66,3.67,3.66
44.78,-1.44,-5.08,-1.45,-5.11,5.11,5.16,4.79,3.67,3.66,3.64
45.23,-1.42,-5.05,-1.44,-5.08,5.08,5.15,4.76,3.66,3.64,3.63
45.68,-1.41,-5.03,-1.43,-5.06,5.06,5.15,4.74,3.65,3.63,3.62
46.13,-1.40,-5.00,-1.42,-5.04,5.04,5.14,4.72,3.64,3.62,3.60
46.60,-1.40,-5.00,-1.41,-5.01,5.01,5.14,4.71,3.61,3.60,3.60
47.06,-1.40,-4.98,-1.41,-4.99,4.99,5.13,4.70,3.59,3.59,3.58
47.53,-1.40,-4.97,-1.40,-4.97,4.97,5.12,4.69,3.57,3.57,3.57
48.01,-1.40,-4.97,-1.39,-4.95,4.95,5.11,4.69,3.55,3.56,3.57
48.49,-1.40,-4.95,-1.39,-4.93,4.93,5.10,4.69,3.53,3.54,3.55
48.97,-1.40,-4.93,-1.39,-4.92,4.92,5.09,4.69,3.52,3.53,3.53
49.46,-1.40,-4.91,-1.39,-4.91,4.91,5.08,4.69,3.51,3.52,3.51
49.96,-1.40,-4.89,-1.39,-4.90,4.90,5.07,4.70,3.50,3.50,3.49
50.46,-1.40,-4.88,-1.40,-4.89,4.89,5.06,4.71,3.49,3.49,3.48
50.96,-1.40,-4.87,-1.40,-4.88,4.88,5.04,4.72,3.48,3.48,3.47
51.47,-1.40,-4.85,-1.41,-4.87,4.87,5.03,4.73,3.48,3.46,3.45
51.99,-1.40,-4.84,-1.42,-4.87,4.87,5.01,4.75,3.47,3.45,3.44
52.51,-1.41,-4.84,-1.43,-4.86,4.86,5.00,4.77,3.45,3.44,3.43
53.03,-1.41,-4.84,-1.44,-4.86,4.86,4.98,4.78,3.45,3.43,3.43
53.56,-1.46,-4.87,-1.45,-4.86,4.86,4.96,4.80,3.40,3.41,3.41
54.10,-1.50,-4.90,-1.46,-4.87,4.87,4.94,4.82,3.37,3.40,3.40
54.64,-1.50,-4.88,-1.48,-4.87,4.87,4.92,4.83,3.37,3.39,3.38
55.18,-1.50,-4.88,-1.49,-4.87,4.87,4.90,4.85,3.37,3.38,3.38
55.74,-1.50,-4.86,-1.50,-4.87,4.87,4.87,4.87,3.37,3.37,3.36
56.29,-1.51,-4.86,-1.52,-4.88,4.88,4.85,4.88,3.37,3.36,3.35
56.86,-1.54,-4.88,-1.54,-4.88,4.88,4.82,4.89,3.34,3.34,3.34
57.42,-1.57,-4.88,-1.56,-4.89,4.89,4.80,4.90,3.32,3.33,3.31
58.00,-1.60,-4.90,-1.58,-4.89,4.89,4.77,4.91,3.29,3.31,3.30
58.58,-1.60,-4.89,-1.60,-4.89,4.89,4.74,4.91,3.29,3.28,3.29
59.16,-1.60,-4.87,-1.63,-4.89,4.89,4.71,4.92,3.29,3.26,3.27
59.76,-1.60,-4.85,-1.66,-4.90,4.90,4.68,4.91,3.30,3.23,3.25
60.35,-1.64,-4.85,-1.69,-4.90,4.90,4.65,4.91,3.26,3.20,3.21
60.96,-1.70,-4.87,-1.72,-4.89,4.89,4.62,4.89,3.19,3.17,3.17
61.57,-1.76,-4.89,-1.75,-4.88,4.88,4.58,4.88,3.12,3.13,3.13
62.18,-1.80,-4.89,-1.77,-4.87,4.87,4.55,4.86,3.07,3.09,3.09
62.80,-1.80,-4.84,-1.79,-4.84,4.84,4.51,4.83,3.04,3.05,3.04
63.43,-1.83,-4.83,-1.80,-4.81,4.81,4.48,4.80,2.98,3.01,3.00
64.07,-1.86,-4.81,-1.81,-4.77,4.77,4.44,4.77,2.91,2.97,2.95
64.71,-1.89,-4.80,-1.81,-4.73,4.73,4.40,4.73,2.84,2.92,2.91
65.35,-1.86,-4.73,-1.80,-4.67,4.67,4.36,4.68,2.81,2.87,2.87
66.01,-1.80,-4.62,-1.78,-4.61,4.61,4.32,4.63,2.81,2.83,2.82
66.67,-1.74,-4.51,-1.76,-4.54,4.54,4.28,4.58,2.80,2.78,2.77
67.33,-1.71,-4.43,-1.73,-4.46,4.46,4.24,4.53,2.75,2.73,2.72
68.01,-1.70,-4.38,-1.69,-4.38,4.38,4.19,4.47,2.68,2.68,2.68
68.69,-1.63,-4.26,-1.66,-4.29,4.29,4.15,4.40,2.66,2.63,2.63
69.37,-1.60,-4.18,-1.62,-4.21,4.21,4.11,4.34,2.61,2.58,2.58
70.07,-1.59,-4.12,-1.59,-4.12,4.12,4.06,4.27,2.53,2.53,2.53
70.77,-1.52,-4.00,-1.56,-4.04,4.04,4.02,4.20,2.52,2.47,2.48
71.48,-1.50,-3.93,-1.54,-3.96,3.96,3.97,4.13,2.46,2.42,2.43
72.19,-1.50,-3.86,-1.52,-3.88,3.88,3.93,4.05,2.38,2.36,2.36
72.91,-1.50,-3.80,-1.50,-3.81,3.81,3.88,3.98,2.31,2.31,2.30
73.64,-1.50,-3.75,-1.49,-3.75,3.75,3.83,3.90,2.25,2.25,2.25
74.38,-1.50,-3.69,-1.49,-3.68,3.68,3.79,3.83,2.18,2.20,2.19
75.12,-1.50,-3.63,-1.48,-3.62,3.62,3.74,3.75,2.12,2.14,2.13
75.87,-1.50,-3.57,-1.48,-3.56,3.56,3.69,3.68,2.06,2.08,2.07
76.63,-1.50,-3.52,-1.48,-3.51,3.51,3.65,3.60,2.01,2.03,2.02
77.40,-1.50,-3.47,-1.49,-3.46,3.46,3.60,3.53,1.97,1.98,1.97
78.17,-1.50,-3.41,-1.50,-3.42,3.42,3.55,3.45,1.92,1.92,1.91
78.95,-1.50,-3.37,-1.52,-3.39,3.39,3.50,3.38,1.89,1.87,1.87
79.74,-1.50,-3.32,-1.53,-3.36,3.36,3.46,3.31,1.86,1.82,1.82
80.54,-1.50,-3.27,-1.55,-3.32,3.32,3.41,3.24,1.82,1.77,1.77
81.35,-1.53,-3.25,-1.57,-3.29,3.29,3.36,3.17,1.76,1.73,1.72
82.16,-1.58,-3.25,-1.59,-3.27,3.27,3.31,3.10,1.69,1.68,1.67
82.98,-1.60,-3.23,-1.61,-3.24,3.24,3.27,3.04,1.64,1.63,1.63
83.81,-1.65,-3.23,-1.63,-3.22,3.22,3.22,2.98,1.57,1.58,1.58
84.65,-1.69,-3.22,-1.65,-3.18,3.18,3.17,2.92,1.50,1.54,1.53
85.50,-1.70,-3.19,-1.66,-3.15,3.15,3.13,2.86,1.45,1.49,1.49
86.35,-1.70,-3.14,-1.67,-3.11,3.11,3.08,2.80,1.41,1.44,1.44
87.22,-1.70,-3.09,-1.68,-3.07,3.07,3.04,2.74,1.37,1.39,1.39
88.09,-1.70,-3.04,-1.68,-3.02,3.02,2.99,2.69,1.32,1.34,1.34
88.97,-1.70,-2.98,-1.68,-2.97,2.97,2.94,2.64,1.27,1.29,1.28
89.86,-1.70,-2.93,-1.67,-2.91,2.91,2.90,2.59,1.21,1.24,1.23
90.76,-1.70,-2.88,-1.66,-2.85,2.85,2.85,2.54,1.15,1.19,1.18
91.66,-1.64,-2.77,-1.65,-2.79,2.79,2.81,2.50,1.15,1.13,1.13
92.58,-1.60,-2.67,-1.64,-2.72,2.72,2.77,2.46,1.12,1.08,1.07
93.51,-1.59,-2.61,-1.63,-2.66,2.66,2.72,2.41,1.07,1.03,1.02
94.44,-1.59,-2.57,-1.62,-2.60,2.60,2.68,2.37,1.01,0.98,0.98
95.39,-1.60,-2.53,-1.61,-2.55,2.55,2.64,2.34,0.95,0.93,0.93
96.34,-1.60,-2.48,-1.61,-2.49,2.49,2.59,2.30,0.89,0.88,0.88
97.30,-1.61,-2.44,-1.61,-2.44,2.44,2.55,2.27,0.83,0.84,0.83
98.28,-1.61,-2.39,-1.61,-2.40,2.40,2.51,2.23,0.79,0.79,0.78
99.26,-1.63,-2.37,-1.62,-2.36,2.36,2.47,2.20,0.73,0.74,0.74
100.25,-1.65,-2.34,-1.63,-2.33,2.33,2.43,2.17,0.68,0.69,0.69
101.25,-1.67,-2.31,-1.66,-2.30,2.30,2.39,2.14,0.63,0.64,0.64
102.27,-1.68,-2.27,-1.69,-2.28,2.28,2.35,2.12,0.60,0.60,0.59
103.29,-1.69,-2.23,-1.72,-2.26,2.26,2.31,2.09,0.57,0.55,0.54
104.32,-1.71,-2.21,-1.74,-2.24,2.24,2.27,2.07,0.53,0.50,0.50
105.37,-1.73,-2.18,-1.78,-2.22,2.22,2.23,2.04,0.49,0.45,0.45
106.42,-1.77,-2.17,-1.81,-2.20,2.20,2.19,2.02,0.43,0.40,0.40
107.48,-1.85,-2.19,-1.83,-2.18,2.18,2.15,2.00,0.33,0.34,0.34
108.56,-1.91,-2.20,-1.86,-2.15,2.15,2.12,1.98,0.24,0.29,0.29
109.64,-1.93,-2.17,-1.88,-2.12,2.12,2.08,1.96,0.19,0.24,0.24
110.74,-1.95,-2.13,-1.91,-2.10,2.10,2.04,1.94,0.15,0.19,0.18
111.85,-1.96,-2.10,-1.93,-2.07,2.07,2.01,1.92,0.11,0.14,0.14
112.97,-1.97,-2.05,-1.96,-2.04,2.04,1.97,1.90,0.07,0.09,0.08
114.10,-1.98,-2.01,-1.98,-2.01,2.01,1.94,1.88,0.04,0.04,0.03
115.24,-1.98,-1.96,-1.99,-1.99,1.99,1.90,1.86,0.01,-0.01,-0.02
116.39,-1.98,-1.91,-2.01,-1.95,1.95,1.87,1.85,-0.03,-0.05,-0.07
117.55,-1.98,-1.87,-2.01,-1.92,1.92,1.83,1.83,-0.06,-0.10,-0.11
118.73,-1.97,-1.82,-2.02,-1.88,1.88,1.80,1.81,-0.09,-0.14,-0.15
119.92,-2.03,-1.85,-2.02,-1.85,1.85,1.77,1.79,-0.18,-0.17,-0.18
121.12,-2.06,-1.84,-2.02,-1.81,1.81,1.74,1.77,-0.25,-0.21,-0.22
122.33,-2.05,-1.80,-2.02,-1.78,1.78,1.70,1.75,-0.27,-0.24,-0.25
123.55,-2.04,-1.76,-2.02,-1.75,1.75,1.67,1.73,-0.29,-0.28,-0.28
124.79,-2.03,-1.72,-2.02,-1.71,1.71,1.64,1.71,-0.32,-0.31,-0.31
126.03,-2.03,-1.69,-2.02,-1.68,1.68,1.61,1.68,-0.35,-0.34,-0.34
127.29,-2.02,-1.66,-2.01,-1.65,1.65,1.58,1.66,-0.37,-0.37,-0.36
128.57,-2.01,-1.61,-2.01,-1.61,1.61,1.55,1.64,-0.39,-0.40,-0.40
129.85,-2.01,-1.58,-2.01,-1.58,1.58,1.52,1.62,-0.42,-0.43,-0.43
131.15,-2.00,-1.54,-2.01,-1.56,1.56,1.49,1.59,-0.44,-0.45,-0.46
132.46,-2.00,-1.51,-2.01,-1.53,1.53,1.47,1.57,-0.47,-0.48,-0.49
133.79,-1.99,-1.47,-2.01,-1.50,1.50,1.44,1.54,-0.49,-0.51,-0.52
135.12,-1.99,-1.44,-2.01,-1.47,1.47,1.41,1.52,-0.52,-0.54,-0.55
136.48,-1.99,-1.42,-2.02,-1.45,1.45,1.38,1.49,-0.54,-0.57,-0.57
137.84,-1.98,-1.37,-2.03,-1.43,1.43,1.36,1.46,-0.55,-0.59,-0.61
139.22,-2.04,-1.40,-2.03,-1.41,1.41,1.33,1.44,-0.63,-0.62,-0.64
140.61,-2.08,-1.41,-2.03,-1.38,1.38,1.30,1.41,-0.70,-0.65,-0.67
142.02,-2.08,-1.39,-2.04,-1.36,1.36,1.28,1.38,-0.72,-0.69,-0.69
143.44,-2.08,-1.36,-2.05,-1.33,1.33,1.25,1.35,-0.75,-0.72,-0.72
144.87,-2.08,-1.32,-2.06,-1.30,1.30,1.23,1.33,-0.78,-0.76,-0.76
146.32,-2.08,-1.28,-2.07,-1.27,1.27,1.20,1.30,-0.81,-0.80,-0.80
147.78,-2.08,-1.25,-2.08,-1.23,1.23,1.18,1.27,-0.85,-0.85,-0.83
149.26,-2.08,-1.20,-2.09,-1.19,1.19,1.16,1.25,-0.89,-0.91,-0.88
150.75,-2.08,-1.14,-2.10,-1.14,1.14,1.13,1.22,-0.94,-0.96,-0.94
152.26,-2.08,-1.07,-2.11,-1.08,1.08,1.11,1.19,-0.99,-1.03,-1.01
153.78,-2.08,-1.00,-2.12,-1.03,1.03,1.09,1.17,-1.05,-1.09,-1.08
155.32,-2.14,-0.99,-2.13,-0.97,0.97,1.07,1.14,-1.17,-1.16,-1.15
156.88,-2.18,-0.95,-2.15,-0.92,0.92,1.04,1.12,-1.26,-1.23,-1.23
158.44,-2.18,-0.87,-2.16,-0.86,0.86,1.02,1.09,-1.32,-1.30,-1.31
160.03,-2.18,-0.79,-2.18,-0.82,0.82,1.00,1.07,-1.36,-1.37,-1.39
161.63,-2.18,-0.72,-2.20,-0.77,0.77,0.98,1.04,-1.41,-1.43,-1.46
163.24,-2.19,-0.67,-2.22,-0.73,0.73,0.96,1.02,-1.46,-1.50,-1.52
164.88,-2.25,-0.68,-2.24,-0.69,0.69,0.94,1.00,-1.56,-1.55,-1.57
166.53,-2.28,-0.66,-2.26,-0.66,0.66,0.92,0.98,-1.62,-1.60,-1.62
168.19,-2.30,-0.64,-2.27,-0.63,0.63,0.90,0.95,-1.67,-1.64,-1.66
169.87,-2.31,-0.61,-2.29,-0.62,0.62,0.88,0.93,-1.69,-1.67,-1.70
171.57,-2.31,-0.59,-2.30,-0.60,0.60,0.86,0.91,-1.70,-1.70,-1.72
173.29,-2.32,-0.59,-2.31,-0.60,0.60,0.84,0.89,-1.72,-1.72,-1.73
175.02,-2.32,-0.58,-2.33,-0.60,0.60,0.83,0.87,-1.72,-1.73,-1.74
176.77,-2.33,-0.58,-2.34,-0.60,0.60,0.81,0.85,-1.73,-1.74,-1.75
178.54,-2.33,-0.57,-2.35,-0.60,0.60,0.79,0.84,-1.73,-1.75,-1.76
180.32,-2.32,-0.57,-2.35,-0.60,0.60,0.77,0.82,-1.72,-1.75,-1.75
182.13,-2.33,-0.59,-2.35,-0.59,0.59,0.75,0.80,-1.73,-1.76,-1.74
183.95,-2.37,-0.62,-2.35,-0.58,0.58,0.74,0.79,-1.79,-1.76,-1.75
185.79,-2.40,-0.65,-2.35,-0.57,0.57,0.72,0.77,-1.83,-1.77,-1.75
187.65,-2.38,-0.61,-2.34,-0.56,0.56,0.70,0.75,-1.81,-1.78,-1.77
189.52,-2.37,-0.59,-2.34,-0.56,0.56,0.69,0.74,-1.81,-1.79,-1.78
191.42,-2.36,-0.56,-2.34,-0.54,0.54,0.67,0.73,-1.82,-1.80,-1.80
193.33,-2.34,-0.52,-2.34,-0.53,0.53,0.66,0.71,-1.81,-1.82,-1.82
195.27,-2.32,-0.48,-2.34,-0.51,0.51,0.64,0.70,-1.81,-1.83,-1.84
197.22,-2.31,-0.45,-2.34,-0.49,0.49,0.63,0.69,-1.82,-1.85,-1.86
199.19,-2.30,-0.42,-2.34,-0.47,0.47,0.61,0.67,-1.83,-1.87,-1.88
201.18,-2.30,-0.40,-2.34,-0.45,0.45,0.60,0.66,-1.85,-1.89,-1.90
203.19,-2.35,-0.43,-2.35,-0.44,0.44,0.58,0.65,-1.91,-1.91,-1.92
205.23,-2.39,-0.45,-2.36,-0.42,0.42,0.57,0.64,-1.97,-1.93,-1.94
207.28,-2.39,-0.44,-2.37,-0.42,0.42,0.55,0.63,-1.97,-1.95,-1.95
209.35,-2.39,-0.42,-2.39,-0.41,0.41,0.54,0.62,-1.98,-1.97,-1.97
211.44,-2.39,-0.39,-2.40,-0.41,0.41,0.53,0.61,-1.97,-1.99,-2.00
213.56,-2.39,-0.38,-2.42,-0.42,0.42,0.51,0.60,-1.97,-2.00,-2.01
215.69,-2.40,-0.38,-2.44,-0.42,0.42,0.50,0.59,-1.98,-2.02,-2.02
217.85,-2.48,-0.45,-2.46,-0.43,0.43,0.48,0.58,-2.05,-2.03,-2.03
220.03,-2.50,-0.46,-2.47,-0.43,0.43,0.47,0.57,-2.07,-2.04,-2.04
222.23,-2.51,-0.44,-2.48,-0.44,0.44,0.46,0.57,-2.07,-2.05,-2.07
224.45,-2.51,-0.45,-2.49,-0.44,0.44,0.45,0.56,-2.07,-2.05,-2.06
226.70,-2.51,-0.45,-2.49,-0.44,0.44,0.43,0.55,-2.06,-2.05,-2.06
228.96,-2.50,-0.45,-2.50,-0.45,0.45,0.42,0.54,-2.05,-2.04,-2.05
231.25,-2.50,-0.46,-2.50,-0.46,0.46,0.41,0.54,-2.04,-2.03,-2.04
233.57,-2.49,-0.46,-2.49,-0.47,0.47,0.40,0.53,-2.02,-2.02,-2.03
235.90,-2.47,-0.45,-2.48,-0.47,0.47,0.39,0.52,-2.00,-2.01,-2.02
238.26,-2.46,-0.45,-2.46,-0.47,0.47,0.37,0.52,-1.99,-1.99,-2.01
240.64,-2.44,-0.46,-2.44,-0.47,0.47,0.36,0.51,-1.97,-1.97,-1.98
243.05,-2.43,-0.48,-2.41,-0.46,0.46,0.35,0.51,-1.97,-1.95,-1.95
245.48,-2.41,-0.48,-2.39,-0.46,0.46,0.34,0.50,-1.95,-1.93,-1.93
247.93,-2.38,-0.48,-2.36,-0.46,0.46,0.33,0.49,-1.92,-1.90,-1.90
250.41,-2.36,-0.48,-2.34,-0.46,0.46,0.32,0.49,-1.90,-1.88,-1.88
252.92,-2.34,-0.49,-2.31,-0.46,0.46,0.31,0.48,-1.88,-1.86,-1.85
255.45,-2.25,-0.42,-2.29,-0.46,0.46,0.30,0.48,-1.79,-1.83,-1.83
258.00,-2.22,-0.41,-2.27,-0.47,0.47,0.29,0.47,-1.75,-1.81,-1.81
260.58,-2.22,-0.43,-2.26,-0.48,0.48,0.28,0.47,-1.74,-1.78,-1.79
263.19,-2.22,-0.46,-2.25,-0.49,0.49,0.27,0.46,-1.73,-1.76,-1.76
265.82,-2.22,-0.48,-2.24,-0.50,0.50,0.26,0.46,-1.71,-1.73,-1.74
268.48,-2.22,-0.50,-2.23,-0.52,0.52,0.24,0.46,-1.70,-1.71,-1.72
271.16,-2.23,-0.54,-2.23,-0.54,0.54,0.24,0.45,-1.69,-1.68,-1.69
273.87,-2.23,-0.56,-2.22,-0.56,0.56,0.23,0.45,-1.67,-1.66,-1.67
276.61,-2.23,-0.59,-2.22,-0.58,0.58,0.22,0.44,-1.65,-1.63,-1.64
279.38,-2.23,-0.62,-2.21,-0.60,0.60,0.21,0.44,-1.63,-1.61,-1.61
282.17,-2.23,-0.64,-2.20,-0.62,0.62,0.20,0.44,-1.61,-1.58,-1.59
284.99,-2.22,-0.67,-2.19,-0.64,0.64,0.19,0.43,-1.58,-1.55,-1.55
287.84,-2.21,-0.68,-2.18,-0.66,0.66,0.18,0.43,-1.55,-1.52,-1.53
290.72,-2.20,-0.70,-2.16,-0.67,0.67,0.17,0.43,-1.53,-1.49,-1.50
293.63,-2.19,-0.72,-2.14,-0.68,0.68,0.16,0.43,-1.51,-1.46,-1.47
296.57,-2.10,-0.66,-2.13,-0.70,0.70,0.15,0.42,-1.40,-1.43,-1.44
299.53,-2.06,-0.65,-2.12,-0.71,0.71,0.14,0.42,-1.35,-1.41,-1.41
302.53,-2.05,-0.66,-2.10,-0.72,0.72,0.13,0.42,-1.33,-1.38,-1.39
305.55,-2.04,-0.69,-2.08,-0.73,0.73,0.12,0.42,-1.31,-1.35,-1.35
308.61,-2.03,-0.70,-2.06,-0.73,0.73,0.12,0.42,-1.30,-1.33,-1.33
311.69,-2.03,-0.73,-2.03,-0.73,0.73,0.11,0.42,-1.30,-1.30,-1.30
314.81,-2.02,-0.74,-2.01,-0.73,0.73,0.10,0.41,-1.29,-1.28,-1.28
317.96,-2.02,-0.76,-1.99,-0.73,0.73,0.09,0.41,-1.29,-1.26,-1.26
321.14,-2.02,-0.77,-1.97,-0.72,0.72,0.08,0.41,-1.29,-1.24,-1.25
324.35,-2.02,-0.79,-1.95,-0.72,0.72,0.07,0.41,-1.30,-1.23,-1.23
327.59,-2.02,-0.80,-1.93,-0.72,0.72,0.07,0.41,-1.30,-1.21,-1.22
330.87,-1.88,-0.67,-1.93,-0.73,0.73,0.06,0.41,-1.15,-1.20,-1.21
334.18,-1.83,-0.64,-1.92,-0.73,0.73,0.05,0.42,-1.10,-1.19,-1.19
337.52,-1.83,-0.65,-1.90,-0.72,0.72,0.04,0.42,-1.11,-1.18,-1.18
340.90,-1.83,-0.66,-1.87,-0.70,0.70,0.03,0.42,-1.13,-1.17,-1.17
344.30,-1.83,-0.67,-1.84,-0.68,0.68,0.03,0.42,-1.15,-1.16,-1.16
347.75,-1.83,-0.67,-1.81,-0.66,0.66,0.02,0.42,-1.17,-1.16,-1.16
351.23,-1.83,-0.68,-1.79,-0.64,0.64,0.01,0.42,-1.19,-1.15,-1.15
354.74,-1.83,-0.67,-1.77,-0.62,0.62,0.00,0.43,-1.21,-1.15,-1.16
358.28,-1.82,-0.67,-1.76,-0.61,0.61,-0.01,0.43,-1.21,-1.14,-1.15
361.87,-1.82,-0.67,-1.75,-0.61,0.61,-0.01,0.43,-1.21,-1.14,-1.15
365.49,-1.78,-0.64,-1.75,-0.61,0.61,-0.02,0.44,-1.17,-1.14,-1.14
369.14,-1.64,-0.49,-1.75,-0.61,0.61,-0.03,0.44,-1.03,-1.14,-1.15
372.83,-1.59,-0.44,-1.74,-0.60,0.60,-0.03,0.44,-0.99,-1.14,-1.15
376.56,-1.61,-0.45,-1.73,-0.58,0.58,-0.04,0.45,-1.03,-1.15,-1.16
380.33,-1.71,-0.56,-1.71,-0.56,0.56,-0.05,0.45,-1.15,-1.15,-1.15
384.13,-1.76,-0.61,-1.69,-0.53,0.53,-0.06,0.46,-1.23,-1.15,-1.15
387.97,-1.77,-0.61,-1.67,-0.51,0.51,-0.06,0.46,-1.26,-1.16,-1.16
391.85,-1.76,-0.59,-1.66,-0.50,0.50,-0.07,0.47,-1.26,-1.16,-1.17
395.77,-1.75,-0.59,-1.65,-0.49,0.49,-0.08,0.47,-1.26,-1.17,-1.16
399.73,-1.68,-0.51,-1.65,-0.48,0.48,-0.08,0.48,-1.20,-1.17,-1.17
403.72,-1.62,-0.45,-1.66,-0.48,0.48,-0.09,0.48,-1.14,-1.18,-1.17
407.76,-1.58,-0.39,-1.67,-0.48,0.48,-0.10,0.49,-1.09,-1.18,-1.19
411.84,-1.56,-0.37,-1.68,-0.49,0.49,-0.10,0.49,-1.07,-1.19,-1.19
415.96,-1.57,-0.38,-1.68,-0.49,0.49,-0.11,0.50,-1.08,-1.19,-1.19
420.12,-1.59,-0.40,-1.67,-0.49,0.49,-0.12,0.51,-1.10,-1.18,-1.19
424.32,-1.66,-0.47,-1.66,-0.48,0.48,-0.12,0.51,-1.17,-1.18,-1.19
428.56,-1.72,-0.54,-1.66,-0.49,0.49,-0.13,0.52,-1.23,-1.17,-1.18
432.85,-1.74,-0.57,-1.65,-0.50,0.50,-0.14,0.52,-1.24,-1.15,-1.17
437.18,-1.72,-0.56,-1.64,-0.50,0.50,-0.14,0.52,-1.21,-1.13,-1.16
441.55,-1.68,-0.56,-1.62,-0.51,0.51,-0.15,0.53,-1.17,-1.11,-1.12
445.96,-1.64,-0.55,-1.59,-0.52,0.52,-0.16,0.53,-1.12,-1.07,-1.09
450.42,-1.58,-0.52,-1.56,-0.52,0.52,-0.16,0.54,-1.06,-1.04,-1.06
454.93,-1.53,-0.52,-1.51,-0.51,0.51,-0.17,0.54,-1.02,-1.00,-1.01
459.48,-1.46,-0.49,-1.46,-0.50,0.50,-0.17,0.54,-0.96,-0.95,-0.97
464.07,-1.40,-0.48,-1.39,-0.49,0.49,-0.18,0.54,-0.91,-0.91,-0.92
468.71,-1.35,-0.49,-1.33,-0.47,0.47,-0.18,0.54,-0.88,-0.86,-0.86
473.40,-1.26,-0.44,-1.26,-0.45,0.45,-0.19,0.54,-0.81,-0.81,-0.82
478.13,-1.13,-0.37,-1.19,-0.43,0.43,-0.20,0.54,-0.70,-0.76,-0.76
