frequency,raw,error,smoothed,error_smoothed,equalization,parametric_eq,fixed_band_eq,equalized_raw,equalized_smoothed,target
20.00,-13.29,-12.36,-13.29,-12.36,12.37,12.50,4.54,-0.92,-0.92,-0.93
20.20,-13.17,-12.33,-13.17,-12.33,12.33,12.41,4.66,-0.84,-0.84,-0.84
20.40,-13.05,-12.29,-13.05,-12.29,12.30,12.31,4.78,-0.75,-0.75,-0.75
20.61,-12.93,-12.24,-12.93,-12.25,12.25,12.22,4.91,-0.68,-0.67,-0.69
20.81,-12.81,-12.21,-12.81,-12.21,12.21,12.13,5.04,-0.60,-0.60,-0.59
21.02,-12.69,-12.17,-12.69,-12.17,12.16,12.04,5.17,-0.53,-0.53,-0.52
21.23,-12.57,-12.11,-12.56,-12.11,12.10,11.94,5.31,-0.47,-0.46,-0.45
21.44,-12.44,-12.04,-12.44,-12.05,12.04,11.85,5.45,-0.39,-0.40,-0.39
21.66,-12.32,-11.97,-12.32,-11.97,11.98,11.76,5.59,-0.34,-0.34,-0.35
21.87,-12.20,-11.90,-12.20,-11.90,11.91,11.68,5.74,-0.29,-0.29,-0.29
22.09,-12.08,-11.83,-12.08,-11.83,11.84,11.59,5.89,-0.24,-0.24,-0.24
22.31,-11.96,-11.76,-11.96,-11.76,11.76,11.50,6.04,-0.20,-0.20,-0.19
22.54,-11.84,-11.68,-11.84,-11.68,11.68,11.42,6.20,-0.16,-0.16,-0.16
22.76,-11.72,-11.60,-11.72,-11.60,11.60,11.33,6.37,-0.12,-0.12,-0.11
22.99,-11.60,-11.51,-11.60,-11.52,11.52,11.25,6.54,-0.08,-0.08,-0.09
23.22,-11.48,-11.43,-11.48,-11.43,11.44,11.16,6.71,-0.04,-0.04,-0.05
23.45,-11.36,-11.35,-11.36,-11.35,11.36,11.08,6.89,0.00,-0.00,-0.00
23.69,-11.24,-11.27,-11.24,-11.27,11.28,11.00,7.07,0.04,0.04,0.03
23.92,-11.12,-11.19,-11.12,-11.20,11.19,10.92,7.25,0.08,0.08,0.08
24.16,-11.00,-11.12,-11.00,-11.12,11.11,10.84,7.44,0.11,0.11,0.13
24.40,-10.88,-11.03,-10.88,-11.03,11.03,10.76,7.64,0.15,0.15,0.16
24.65,-10.77,-10.94,-10.76,-10.94,10.94,10.68,7.83,0.17,0.18,0.17
24.89,-10.65,-10.85,-10.65,-10.86,10.86,10.60,8.03,0.21,0.21,0.21
25.14,-10.53,-10.77,-10.53,-10.77,10.77,10.53,8.24,0.25,0.24,0.25
25.39,-10.42,-10.69,-10.41,-10.69,10.69,10.45,8.45,0.27,0.28,0.28
25.65,-10.30,-10.61,-10.30,-10.61,10.61,10.38,8.66,0.31,0.31,0.31
25.91,-10.18,-10.52,-10.18,-10.52,10.52,10.30,8.87,0.34,0.34,0.33
26.16,-10.07,-10.43,-10.07,-10.44,10.44,10.23,9.08,0.38,0.37,0.37
26.43,-9.96,-10.36,-9.96,-10.36,10.36,10.15,9.30,0.40,0.40,0.40
26.69,-9.85,-10.28,-9.85,-10.28,10.28,10.08,9.51,0.43,0.43,0.43
26.96,-9.74,-10.20,-9.74,-10.21,10.20,10.01,9.73,0.46,0.46,0.46
27.23,-9.63,-10.12,-9.63,-10.12,10.11,9.94,9.94,0.49,0.49,0.49
27.50,-9.51,-10.03,-9.51,-10.03,10.03,9.87,10.15,0.53,0.52,0.52
27.77,-9.40,-9.94,-9.40,-9.95,9.95,9.80,10.36,0.56,0.56,0.55
28.05,-9.29,-9.87,-9.29,-9.87,9.87,9.73,10.56,0.59,0.59,0.59
28.33,-9.19,-9.79,-9.19,-9.79,9.80,9.66,10.76,0.61,0.61,0.61
28.62,-9.08,-9.71,-9.08,-9.72,9.72,9.59,10.94,0.64,0.64,0.63
28.90,-8.98,-9.65,-8.98,-9.65,9.64,9.52,11.11,0.66,0.67,0.68
29.19,-8.87,-9.56,-8.87,-9.57,9.57,9.45,11.28,0.70,0.70,0.69
29.48,-8.77,-9.51,-8.77,-9.50,9.50,9.39,11.42,0.73,0.73,0.74
29.78,-8.67,-9.42,-8.67,-9.43,9.43,9.32,11.55,0.77,0.77,0.75
30.08,-8.57,-9.35,-8.58,-9.36,9.37,9.25,11.67,0.80,0.79,0.78
30.38,-8.49,-9.30,-8.49,-9.30,9.30,9.19,11.76,0.82,0.82,0.81
30.68,-8.41,-9.25,-8.41,-9.25,9.24,9.12,11.83,0.83,0.84,0.84
30.99,-8.32,-9.18,-8.32,-9.19,9.18,9.06,11.88,0.86,0.86,0.86
31.30,-8.24,-9.12,-8.24,-9.12,9.12,8.99,11.91,0.88,0.88,0.88
31.61,-8.15,-9.06,-8.15,-9.06,9.06,8.93,11.91,0.91,0.91,0.91
31.93,-8.06,-8.99,-8.06,-9.00,9.00,8.87,11.89,0.94,0.94,0.93
32.24,-7.98,-8.93,-7.98,-8.94,8.94,8.80,11.85,0.96,0.96,0.96
32.57,-7.90,-8.88,-7.90,-8.88,8.88,8.74,11.79,0.98,0.98,0.98
32.89,-7.82,-8.82,-7.81,-8.82,8.81,8.68,11.71,1.00,1.00,1.01
33.22,-7.73,-8.75,-7.73,-8.76,8.75,8.62,11.61,1.02,1.02,1.02
33.55,-7.65,-8.69,-7.65,-8.69,8.69,8.55,11.50,1.04,1.04,1.05
33.89,-7.57,-8.62,-7.57,-8.63,8.63,8.49,11.37,1.06,1.06,1.05
34.23,-7.49,-8.56,-7.49,-8.56,8.57,8.43,11.23,1.08,1.08,1.07
34.57,-7.42,-8.50,-7.42,-8.51,8.51,8.37,11.07,1.09,1.09,1.08
34.92,-7.35,-8.44,-7.35,-8.45,8.44,8.31,10.91,1.09,1.10,1.09
35.27,-7.28,-8.39,-7.28,-8.38,8.38,8.25,10.75,1.10,1.10,1.11
35.62,-7.21,-8.31,-7.21,-8.32,8.32,8.19,10.58,1.11,1.11,1.10
35.97,-7.14,-8.25,-7.14,-8.26,8.26,8.13,10.40,1.12,1.12,1.12
36.33,-7.07,-8.20,-7.07,-8.19,8.19,8.07,10.22,1.12,1.12,1.13
36.70,-7.00,-8.12,-7.00,-8.13,8.13,8.01,10.04,1.13,1.13,1.12
37.06,-6.94,-8.06,-6.94,-8.06,8.07,7.95,9.87,1.13,1.13,1.12
37.43,-6.88,-8.00,-6.87,-8.00,8.00,7.90,9.69,1.13,1.13,1.12
37.81,-6.81,-7.93,-6.81,-7.94,7.94,7.84,9.51,1.13,1.13,1.12
38.19,-6.75,-7.87,-6.75,-7.88,7.88,7.78,9.34,1.13,1.13,1.12
38.57,-6.70,-7.82,-6.70,-7.82,7.82,7.72,9.17,1.12,1.12,1.12
38.95,-6.65,-7.77,-6.64,-7.76,7.76,7.67,9.00,1.11,1.11,1.12
39.34,-6.59,-7.69,-6.59,-7.70,7.70,7.61,8.84,1.11,1.11,1.10
39.74,-6.53,-7.63,-6.53,-7.63,7.63,7.56,8.68,1.11,1.11,1.10
40.14,-6.47,-7.56,-6.47,-7.57,7.57,7.50,8.53,1.10,1.10,1.10
40.54,-6.42,-7.51,-6.42,-7.51,7.51,7.45,8.38,1.09,1.09,1.09
40.94,-6.37,-7.45,-6.36,-7.45,7.45,7.39,8.23,1.08,1.09,1.08
41.35,-6.31,-7.39,-6.31,-7.39,7.39,7.34,8.09,1.08,1.08,1.08
41.76,-6.26,-7.33,-6.26,-7.33,7.33,7.28,7.96,1.08,1.07,1.07
42.18,-6.21,-7.27,-6.21,-7.27,7.28,7.23,7.83,1.07,1.07,1.06
42.60,-6.16,-7.21,-6.16,-7.22,7.22,7.18,7.70,1.06,1.06,1.05
43.03,-6.11,-7.16,-6.11,-7.16,7.16,7.12,7.59,1.05,1.05,1.05
43.46,-6.07,-7.11,-6.07,-7.11,7.10,7.07,7.47,1.04,1.03,1.04
43.90,-6.03,-7.05,-6.03,-7.05,7.05,7.02,7.36,1.02,1.02,1.03
44.33,-5.99,-6.99,-5.98,-6.99,6.99,6.97,7.26,1.01,1.01,1.00
44.78,-5.94,-6.93,-5.94,-6.94,6.94,6.92,7.16,1.00,1.00,0.99
45.23,-5.90,-6.88,-5.90,-6.89,6.89,6.87,7.07,0.99,0.99,0.99
45.68,-5.87,-6.84,-5.86,-6.84,6.84,6.82,6.98,0.98,0.98,0.97
46.13,-5.83,-6.79,-5.83,-6.80,6.80,6.77,6.90,0.97,0.97,0.96
46.60,-5.79,-6.75,-5.79,-6.75,6.75,6.72,6.82,0.96,0.96,0.96
47.06,-5.76,-6.71,-5.75,-6.71,6.71,6.67,6.75,0.95,0.95,0.95
47.53,-5.72,-6.66,-5.72,-6.67,6.66,6.63,6.68,0.94,0.94,0.94
48.01,-5.68,-6.62,-5.68,-6.62,6.62,6.58,6.61,0.94,0.94,0.94
48.49,-5.65,-6.58,-5.64,-6.58,6.58,6.53,6.55,0.93,0.93,0.93
48.97,-5.61,-6.53,-5.61,-6.53,6.54,6.49,6.50,0.93,0.93,0.92
49.46,-5.58,-6.48,-5.58,-6.49,6.50,6.44,6.45,0.92,0.92,0.90
49.96,-5.55,-6.44,-5.55,-6.45,6.46,6.40,6.40,0.91,0.91,0.89
50.46,-5.53,-6.43,-5.53,-6.42,6.43,6.35,6.35,0.90,0.90,0.90
50.96,-5.50,-6.40,-5.50,-6.40,6.39,6.31,6.31,0.89,0.89,0.90
51.47,-5.47,-6.36,-5.47,-6.37,6.36,6.27,6.27,0.89,0.89,0.89
51.99,-5.44,-6.33,-5.44,-6.33,6.33,6.23,6.24,0.89,0.89,0.89
52.51,-5.40,-6.29,-5.40,-6.30,6.30,6.19,6.21,0.90,0.90,0.89
53.03,-5.37,-6.26,-5.37,-6.26,6.27,6.15,6.18,0.90,0.90,0.89
53.56,-5.34,-6.23,-5.34,-6.23,6.23,6.11,6.15,0.89,0.89,0.89
54.10,-5.31,-6.19,-5.31,-6.19,6.19,6.07,6.13,0.88,0.88,0.88
54.64,-5.28,-6.15,-5.28,-6.15,6.15,6.03,6.10,0.87,0.87,0.87
55.18,-5.25,-6.11,-5.25,-6.11,6.11,5.99,6.08,0.86,0.86,0.86
55.74,-5.22,-6.06,-5.22,-6.07,6.07,5.96,6.06,0.85,0.85,0.85
56.29,-5.19,-6.03,-5.19,-6.03,6.02,5.92,6.04,0.84,0.84,0.84
56.86,-5.16,-5.98,-5.16,-5.98,5.98,5.89,6.02,0.82,0.82,0.83
57.42,-5.12,-5.92,-5.12,-5.93,5.93,5.85,6.00,0.81,0.81,0.80
58.00,-5.09,-5.88,-5.09,-5.88,5.88,5.82,5.98,0.79,0.79,0.79
58.58,-5.06,-5.83,-5.05,-5.83,5.83,5.79,5.96,0.77,0.78,0.77
59.16,-5.02,-5.78,-5.02,-5.78,5.78,5.76,5.94,0.76,0.76,0.76
59.76,-4.99,-5.73,-4.99,-5.74,5.73,5.73,5.92,0.74,0.74,0.75
60.35,-4.97,-5.68,-4.96,-5.68,5.68,5.70,5.90,0.71,0.72,0.71
60.96,-4.94,-5.64,-4.94,-5.63,5.63,5.68,5.88,0.69,0.69,0.70
61.57,-4.92,-5.57,-4.92,-5.58,5.59,5.65,5.85,0.67,0.67,0.66
62.18,-4.91,-5.53,-4.91,-5.54,5.55,5.63,5.83,0.64,0.64,0.62
62.80,-4.91,-5.52,-4.91,-5.51,5.51,5.60,5.80,0.61,0.61,0.61
63.43,-4.91,-5.48,-4.91,-5.49,5.49,5.58,5.78,0.58,0.58,0.57
64.07,-4.91,-5.46,-4.91,-5.47,5.46,5.56,5.75,0.55,0.56,0.56
64.71,-4.91,-5.45,-4.91,-5.45,5.45,5.54,5.72,0.54,0.54,0.54
65.35,-4.91,-5.43,-4.91,-5.44,5.44,5.52,5.69,0.53,0.53,0.52
66.01,-4.92,-5.43,-4.92,-5.44,5.44,5.50,5.66,0.52,0.52,0.51
66.67,-4.94,-5.44,-4.94,-5.44,5.44,5.49,5.62,0.51,0.51,0.50
67.33,-4.96,-5.45,-4.96,-5.45,5.46,5.47,5.59,0.50,0.49,0.49
68.01,-4.99,-5.47,-4.99,-5.47,5.47,5.46,5.56,0.48,0.49,0.48
68.69,-5.02,-5.49,-5.02,-5.49,5.50,5.45,5.52,0.48,0.48,0.47
69.37,-5.05,-5.52,-5.05,-5.52,5.53,5.44,5.49,0.48,0.47,0.47
70.07,-5.09,-5.55,-5.09,-5.56,5.56,5.43,5.45,0.47,0.47,0.46
70.77,-5.14,-5.60,-5.14,-5.60,5.60,5.42,5.42,0.46,0.46,0.46
71.48,-5.19,-5.64,-5.18,-5.64,5.64,5.41,5.39,0.45,0.45,0.45
72.19,-5.23,-5.66,-5.23,-5.67,5.68,5.41,5.36,0.45,0.44,0.43
72.91,-5.28,-5.71,-5.28,-5.71,5.72,5.41,5.33,0.44,0.43,0.43
73.64,-5.34,-5.75,-5.34,-5.75,5.76,5.40,5.30,0.42,0.42,0.41
74.38,-5.40,-5.80,-5.40,-5.80,5.79,5.41,5.27,0.39,0.39,0.40
75.12,-5.45,-5.83,-5.45,-5.84,5.82,5.41,5.25,0.37,0.37,0.38
75.87,-5.49,-5.86,-5.49,-5.87,5.85,5.41,5.23,0.36,0.36,0.37
76.63,-5.53,-5.89,-5.52,-5.88,5.88,5.42,5.21,0.35,0.36,0.36
77.40,-5.56,-5.90,-5.56,-5.90,5.91,5.42,5.19,0.35,0.35,0.34
78.17,-5.59,-5.91,-5.59,-5.93,5.94,5.43,5.18,0.35,0.34,0.32
78.95,-5.64,-5.96,-5.63,-5.96,5.97,5.44,5.16,0.33,0.33,0.32
79.74,-5.68,-5.99,-5.68,-5.99,6.00,5.46,5.16,0.32,0.32,0.31
80.54,-5.73,-6.03,-5.73,-6.03,6.03,5.47,5.15,0.30,0.30,0.30
81.35,-5.78,-6.07,-5.78,-6.07,6.07,5.48,5.15,0.29,0.29,0.29
82.16,-5.82,-6.10,-5.82,-6.11,6.10,5.50,5.15,0.29,0.29,0.28
82.98,-5.86,-6.15,-5.86,-6.14,6.14,5.52,5.16,0.28,0.29,0.29
83.81,-5.89,-6.17,-5.89,-6.18,6.18,5.54,5.16,0.29,0.29,0.28
84.65,-5.93,-6.20,-5.93,-6.21,6.22,5.57,5.18,0.29,0.29,0.27
85.50,-5.96,-6.24,-5.96,-6.24,6.25,5.59,5.19,0.29,0.29,0.28
86.35,-6.00,-6.28,-6.00,-6.28,6.28,5.62,5.21,0.28,0.28,0.28
87.22,-6.04,-6.31,-6.03,-6.31,6.30,5.64,5.24,0.26,0.27,0.27
88.09,-6.06,-6.33,-6.06,-6.33,6.32,5.67,5.26,0.26,0.26,0.27
88.97,-6.07,-6.33,-6.07,-6.34,6.33,5.70,5.30,0.26,0.26,0.26
89.86,-6.08,-6.33,-6.08,-6.33,6.34,5.74,5.33,0.26,0.26,0.25
90.76,-6.10,-6.33,-6.10,-6.33,6.34,5.77,5.37,0.24,0.25,0.23
91.66,-6.11,-6.32,-6.11,-6.33,6.34,5.81,5.41,0.23,0.22,0.21
92.58,-6.14,-6.32,-6.14,-6.33,6.33,5.84,5.46,0.19,0.19,0.18
93.51,-6.16,-6.32,-6.16,-6.32,6.31,5.88,5.51,0.15,0.16,0.16
94.44,-6.18,-6.31,-6.18,-6.31,6.30,5.92,5.56,0.12,0.12,0.13
95.39,-6.19,-6.28,-6.19,-6.29,6.28,5.96,5.62,0.09,0.09,0.10
96.34,-6.21,-6.26,-6.21,-6.26,6.26,6.00,5.68,0.05,0.05,0.05
97.30,-6.23,-6.22,-6.23,-6.23,6.24,6.04,5.75,0.01,0.01,-0.01
98.28,-6.26,-6.20,-6.26,-6.21,6.22,6.08,5.81,-0.04,-0.04,-0.05
99.26,-6.31,-6.20,-6.30,-6.19,6.20,6.12,5.88,-0.11,-0.10,-0.11
100.25,-6.35,-6.18,-6.35,-6.19,6.18,6.16,5.95,-0.16,-0.17,-0.17
101.25,-6.41,-6.18,-6.41,-6.18,6.17,6.20,6.02,-0.24,-0.23,-0.23
102.27,-6.46,-6.17,-6.45,-6.17,6.17,6.24,6.10,-0.29,-0.28,-0.28
103.29,-6.50,-6.15,-6.50,-6.16,6.17,6.28,6.18,-0.33,-0.34,-0.35
104.32,-6.55,-6.15,-6.56,-6.16,6.17,6.32,6.25,-0.38,-0.39,-0.40
105.37,-6.63,-6.16,-6.62,-6.16,6.17,6.35,6.33,-0.46,-0.46,-0.46
106.42,-6.70,-6.17,-6.70,-6.18,6.17,6.39,6.41,-0.53,-0.53,-0.53
107.48,-6.77,-6.19,-6.77,-6.19,6.18,6.42,6.48,-0.59,-0.59,-0.58
108.56,-6.83,-6.19,-6.82,-6.19,6.19,6.45,6.56,-0.64,-0.64,-0.64
109.64,-6.88,-6.18,-6.88,-6.19,6.20,6.48,6.63,-0.68,-0.68,-0.70
110.74,-6.94,-6.19,-6.94,-6.20,6.21,6.51,6.70,-0.73,-0.74,-0.75
111.85,-7.01,-6.22,-7.01,-6.21,6.21,6.53,6.77,-0.79,-0.79,-0.79
112.97,-7.08,-6.22,-7.08,-6.23,6.22,6.55,6.83,-0.86,-0.86,-0.85
114.10,-7.14,-6.24,-7.14,-6.24,6.23,6.56,6.89,-0.91,-0.91,-0.89
115.24,-7.19,-6.24,-7.18,-6.23,6.23,6.57,6.94,-0.95,-0.95,-0.94
116.39,-7.22,-6.22,-7.22,-6.23,6.24,6.58,6.99,-0.98,-0.98,-1.00
117.55,-7.26,-6.22,-7.27,-6.23,6.25,6.58,7.03,-1.01,-1.02,-1.04
118.73,-7.31,-6.23,-7.31,-6.24,6.25,6.57,7.06,-1.06,-1.06,-1.08
119.92,-7.37,-6.26,-7.36,-6.25,6.25,6.57,7.08,-1.12,-1.11,-1.11
121.12,-7.40,-6.26,-7.39,-6.26,6.25,6.55,7.09,-1.15,-1.15,-1.13
122.33,-7.41,-6.24,-7.41,-6.25,6.24,6.53,7.09,-1.17,-1.17,-1.17
123.55,-7.42,-6.22,-7.42,-6.23,6.22,6.51,7.09,-1.19,-1.20,-1.20
124.79,-7.43,-6.20,-7.42,-6.20,6.20,6.48,7.07,-1.23,-1.23,-1.22
126.03,-7.42,-6.17,-7.42,-6.17,6.16,6.45,7.04,-1.26,-1.26,-1.25
127.29,-7.41,-6.13,-7.41,-6.13,6.11,6.41,7.00,-1.29,-1.29,-1.28
128.57,-7.38,-6.06,-7.38,-6.07,6.06,6.36,6.95,-1.32,-1.32,-1.31
129.85,-7.34,-6.00,-7.34,-6.00,6.00,6.31,6.90,-1.34,-1.34,-1.34
131.15,-7.29,-5.92,-7.30,-5.93,5.93,6.26,6.83,-1.36,-1.36,-1.37
132.46,-7.26,-5.85,-7.25,-5.86,5.86,6.20,6.75,-1.39,-1.39,-1.41
133.79,-7.22,-5.79,-7.22,-5.79,5.80,6.14,6.67,-1.42,-1.42,-1.43
135.12,-7.18,-5.72,-7.18,-5.73,5.73,6.07,6.57,-1.45,-1.45,-1.46
136.48,-7.16,-5.67,-7.15,-5.67,5.67,6.00,6.47,-1.49,-1.49,-1.49
137.84,-7.13,-5.61,-7.13,-5.61,5.61,5.93,6.37,-1.52,-1.52,-1.52
139.22,-7.12,-5.55,-7.11,-5.56,5.56,5.86,6.26,-1.56,-1.55,-1.57
140.61,-7.10,-5.50,-7.10,-5.51,5.52,5.78,6.14,-1.58,-1.58,-1.60
142.02,-7.10,-5.48,-7.10,-5.47,5.48,5.70,6.02,-1.62,-1.62,-1.62
143.44,-7.10,-5.44,-7.10,-5.44,5.45,5.62,5.89,-1.65,-1.65,-1.66
144.87,-7.11,-5.41,-7.11,-5.42,5.42,5.54,5.77,-1.69,-1.69,-1.70
146.32,-7.12,-5.38,-7.12,-5.39,5.39,5.45,5.64,-1.73,-1.73,-1.74
147.78,-7.14,-5.37,-7.13,-5.37,5.36,5.37,5.50,-1.78,-1.77,-1.77
149.26,-7.14,-5.34,-7.14,-5.34,5.33,5.29,5.37,-1.81,-1.81,-1.80
150.75,-7.14,-5.29,-7.14,-5.30,5.29,5.20,5.24,-1.85,-1.85,-1.85
152.26,-7.13,-5.24,-7.13,-5.25,5.24,5.12,5.10,-1.88,-1.89,-1.89
153.78,-7.12,-5.20,-7.12,-5.20,5.19,5.04,4.97,-1.93,-1.93,-1.92
155.32,-7.11,-5.14,-7.10,-5.14,5.13,4.96,4.84,-1.97,-1.97,-1.97
156.88,-7.07,-5.07,-7.08,-5.07,5.07,4.88,4.71,-2.00,-2.00,-2.00
158.44,-7.05,-4.99,-7.05,-5.00,5.00,4.80,4.57,-2.05,-2.05,-2.06
160.03,-7.02,-4.92,-7.02,-4.92,4.93,4.73,4.45,-2.09,-2.09,-2.10
161.63,-7.00,-4.85,-7.00,-4.85,4.86,4.66,4.32,-2.14,-2.14,-2.15
163.24,-6.97,-4.78,-6.96,-4.78,4.78,4.59,4.19,-2.19,-2.18,-2.19
164.88,-6.93,-4.70,-6.93,-4.71,4.70,4.52,4.07,-2.23,-2.23,-2.23
166.53,-6.89,-4.62,-6.89,-4.62,4.62,4.46,3.95,-2.27,-2.27,-2.27
168.19,-6.86,-4.55,-6.85,-4.54,4.54,4.40,3.83,-2.31,-2.31,-2.31
169.87,-6.80,-4.45,-6.81,-4.47,4.46,4.34,3.71,-2.33,-2.34,-2.35
171.57,-6.77,-4.39,-6.77,-4.39,4.39,4.29,3.60,-2.38,-2.38,-2.38
173.29,-6.73,-4.31,-6.72,-4.31,4.31,4.24,3.48,-2.42,-2.41,-2.42
175.02,-6.68,-4.22,-6.68,-4.23,4.24,4.19,3.38,-2.44,-2.45,-2.46
176.77,-6.64,-4.15,-6.64,-4.15,4.17,4.15,3.27,-2.47,-2.48,-2.49
178.54,-6.61,-4.09,-6.61,-4.09,4.09,4.10,3.16,-2.52,-2.51,-2.52
180.32,-6.57,-4.02,-6.57,-4.03,4.02,4.06,3.06,-2.55,-2.55,-2.55
182.13,-6.54,-3.97,-6.53,-3.96,3.95,4.01,2.96,-2.59,-2.58,-2.57
183.95,-6.47,-3.88,-6.47,-3.89,3.88,3.96,2.86,-2.59,-2.59,-2.59
185.79,-6.42,-3.81,-6.41,-3.81,3.81,3.91,2.77,-2.61,-2.60,-2.61
187.65,-6.35,-3.72,-6.35,-3.73,3.74,3.85,2.67,-2.61,-2.61,-2.63
189.52,-6.30,-3.66,-6.30,-3.66,3.67,3.79,2.58,-2.63,-2.63,-2.64
191.42,-6.25,-3.59,-6.25,-3.60,3.60,3.72,2.49,-2.65,-2.65,-2.66
193.33,-6.20,-3.53,-6.20,-3.53,3.53,3.64,2.41,-2.67,-2.67,-2.67
195.27,-6.15,-3.47,-6.15,-3.47,3.46,3.55,2.32,-2.69,-2.69,-2.68
197.22,-6.09,-3.39,-6.09,-3.39,3.39,3.45,2.24,-2.70,-2.70,-2.70
199.19,-6.03,-3.31,-6.02,-3.31,3.31,3.35,2.16,-2.72,-2.71,-2.72
201.18,-5.95,-3.22,-5.95,-3.23,3.24,3.24,2.08,-2.71,-2.72,-2.73
203.19,-5.88,-3.15,-5.88,-3.15,3.15,3.13,2.00,-2.72,-2.73,-2.73
205.23,-5.81,-3.06,-5.81,-3.07,3.07,3.01,1.93,-2.74,-2.74,-2.75
207.28,-5.74,-2.99,-5.74,-2.99,2.98,2.90,1.85,-2.76,-2.76,-2.75
209.35,-5.66,-2.89,-5.66,-2.89,2.89,2.78,1.78,-2.77,-2.77,-2.77
211.44,-5.58,-2.79,-5.58,-2.80,2.80,2.66,1.71,-2.78,-2.78,-2.79
213.56,-5.49,-2.69,-5.48,-2.69,2.70,2.54,1.65,-2.79,-2.78,-2.80
215.69,-5.39,-2.59,-5.39,-2.59,2.60,2.43,1.58,-2.79,-2.79,-2.80
217.85,-5.30,-2.48,-5.31,-2.49,2.50,2.32,1.52,-2.80,-2.81,-2.82
220.03,-5.23,-2.40,-5.22,-2.40,2.39,2.21,1.45,-2.84,-2.83,-2.83
222.23,-5.14,-2.29,-5.13,-2.29,2.28,2.10,1.39,-2.86,-2.85,-2.85
224.45,-5.03,-2.18,-5.02,-2.17,2.17,2.00,1.33,-2.86,-2.86,-2.85
226.70,-4.91,-2.04,-4.91,-2.05,2.05,1.90,1.28,-2.86,-2.86,-2.87
228.96,-4.78,-1.90,-4.80,-1.92,1.93,1.80,1.22,-2.85,-2.87,-2.88
231.25,-4.70,-1.81,-4.69,-1.80,1.81,1.71,1.17,-2.89,-2.88,-2.89
233.57,-4.59,-1.68,-4.58,-1.68,1.68,1.62,1.11,-2.91,-2.90,-2.91
235.90,-4.46,-1.54,-4.47,-1.55,1.55,1.53,1.06,-2.91,-2.92,-2.92
238.26,-4.37,-1.43,-4.36,-1.42,1.42,1.44,1.01,-2.95,-2.94,-2.94
240.64,-4.24,-1.28,-4.25,-1.30,1.29,1.35,0.96,-2.95,-2.96,-2.96
243.05,-4.14,-1.17,-4.13,-1.17,1.16,1.27,0.92,-2.98,-2.97,-2.97
245.48,-4.02,-1.04,-4.01,-1.03,1.04,1.18,0.87,-2.98,-2.97,-2.98
247.93,-3.88,-0.89,-3.89,-0.90,0.92,1.10,0.83,-2.96,-2.97,-2.99
250.41,-3.78,-0.78,-3.77,-0.78,0.80,1.02,0.79,-2.98,-2.97,-3.00
252.92,-3.66,-0.67,-3.67,-0.68,0.69,0.94,0.74,-2.97,-2.98,-2.99
255.45,-3.58,-0.59,-3.57,-0.59,0.59,0.86,0.70,-2.99,-2.99,-2.99
258.00,-3.49,-0.51,-3.48,-0.50,0.49,0.78,0.67,-3.00,-2.99,-2.98
260.58,-3.38,-0.40,-3.39,-0.41,0.40,0.70,0.63,-2.98,-2.99,-2.98
263.19,-3.29,-0.32,-3.28,-0.31,0.31,0.61,0.59,-2.98,-2.97,-2.97
265.82,-3.17,-0.21,-3.18,-0.22,0.23,0.53,0.56,-2.94,-2.95,-2.96
268.48,-3.07,-0.13,-3.08,-0.14,0.14,0.45,0.52,-2.92,-2.93,-2.94
271.16,-2.99,-0.07,-2.98,-0.06,0.06,0.37,0.49,-2.93,-2.91,-2.92
273.87,-2.88,0.03,-2.88,0.02,-0.02,0.29,0.46,-2.90,-2.90,-2.91
276.61,-2.79,0.09,-2.79,0.09,-0.10,0.20,0.42,-2.89,-2.89,-2.88
279.38,-2.70,0.18,-2.70,0.17,-0.18,0.12,0.39,-2.88,-2.87,-2.88
282.17,-2.61,0.25,-2.61,0.25,-0.25,0.03,0.36,-2.86,-2.86,-2.86
284.99,-2.52,0.33,-2.52,0.33,-0.33,-0.05,0.33,-2.84,-2.84,-2.85
287.84,-2.43,0.40,-2.43,0.40,-0.40,-0.14,0.31,-2.83,-2.82,-2.83
290.72,-2.34,0.47,-2.34,0.47,-0.47,-0.23,0.28,-2.80,-2.81,-2.81
293.63,-2.26,0.54,-2.26,0.53,-0.53,-0.32,0.25,-2.79,-2.79,-2.80
296.57,-2.18,0.59,-2.18,0.59,-0.59,-0.41,0.22,-2.77,-2.77,-2.77
299.53,-2.11,0.65,-2.11,0.65,-0.64,-0.51,0.19,-2.75,-2.75,-2.76
302.53,-2.04,0.71,-2.04,0.70,-0.69,-0.60,0.17,-2.73,-2.73,-2.75
305.55,-1.98,0.74,-1.98,0.74,-0.73,-0.69,0.14,-2.71,-2.71,-2.72
308.61,-1.92,0.78,-1.91,0.78,-0.77,-0.78,0.11,-2.69,-2.69,-2.70
311.69,-1.85,0.82,-1.86,0.81,-0.81,-0.87,0.09,-2.66,-2.67,-2.67
314.81,-1.80,0.83,-1.80,0.84,-0.85,-0.96,0.06,-2.65,-2.65,-2.63
317.96,-1.74,0.88,-1.74,0.88,-0.89,-1.05,0.03,-2.63,-2.63,-2.62
321.14,-1.67,0.93,-1.67,0.93,-0.93,-1.13,0.01,-2.60,-2.60,-2.60
324.35,-1.60,0.98,-1.60,0.98,-0.98,-1.20,-0.02,-2.57,-2.57,-2.58
327.59,-1.52,1.04,-1.53,1.03,-1.02,-1.28,-0.05,-2.54,-2.55,-2.56
330.87,-1.47,1.07,-1.46,1.07,-1.07,-1.34,-0.07,-2.53,-2.53,-2.54
334.18,-1.40,1.11,-1.39,1.12,-1.11,-1.39,-0.10,-2.51,-2.51,-2.51
337.52,-1.32,1.17,-1.33,1.15,-1.16,-1.44,-0.13,-2.48,-2.49,-2.49
340.90,-1.27,1.20,-1.26,1.20,-1.20,-1.48,-0.15,-2.47,-2.46,-2.47
344.30,-1.20,1.24,-1.20,1.24,-1.24,-1.51,-0.18,-2.44,-2.44,-2.44
347.75,-1.13,1.29,-1.13,1.28,-1.28,-1.53,-0.21,-2.41,-2.41,-2.42
351.23,-1.07,1.32,-1.07,1.32,-1.32,-1.54,-0.24,-2.38,-2.38,-2.39
354.74,-1.01,1.35,-1.01,1.36,-1.35,-1.55,-0.26,-2.36,-2.35,-2.36
358.28,-0.95,1.40,-0.95,1.38,-1.38,-1.54,-0.29,-2.33,-2.33,-2.35
361.87,-0.90,1.42,-0.90,1.41,-1.41,-1.53,-0.32,-2.31,-2.31,-2.32
365.49,-0.86,1.43,-0.86,1.44,-1.44,-1.52,-0.35,-2.30,-2.30,-2.29
369.14,-0.81,1.47,-0.81,1.46,-1.47,-1.50,-0.38,-2.28,-2.28,-2.28
372.83,-0.76,1.49,-0.75,1.49,-1.50,-1.48,-0.41,-2.26,-2.25,-2.25
376.56,-0.69,1.54,-0.70,1.53,-1.53,-1.45,-0.44,-2.22,-2.22,-2.23
380.33,-0.64,1.56,-0.64,1.56,-1.56,-1.42,-0.47,-2.20,-2.20,-2.20
384.13,-0.60,1.59,-0.59,1.59,-1.59,-1.39,-0.50,-2.19,-2.18,-2.19
387.97,-0.55,1.62,-0.55,1.62,-1.62,-1.36,-0.53,-2.16,-2.16,-2.17
391.85,-0.50,1.66,-0.50,1.65,-1.64,-1.34,-0.57,-2.14,-2.14,-2.16
395.77,-0.46,1.67,-0.46,1.67,-1.67,-1.31,-0.60,-2.13,-2.13,-2.13
399.73,-0.42,1.70,-0.42,1.70,-1.70,-1.28,-0.63,-2.12,-2.12,-2.12
403.72,-0.39,1.73,-0.39,1.72,-1.72,-1.26,-0.66,-2.11,-2.12,-2.12
407.76,-0.37,1.74,-0.36,1.74,-1.75,-1.23,-0.69,-2.12,-2.12,-2.11
411.84,-0.34,1.76,-0.34,1.77,-1.78,-1.21,-0.72,-2.12,-2.12,-2.10
415.96,-0.31,1.80,-0.31,1.79,-1.80,-1.20,-0.76,-2.11,-2.11,-2.11
420.12,-0.28,1.83,-0.28,1.82,-1.82,-1.18,-0.79,-2.10,-2.10,-2.11
424.32,-0.26,1.85,-0.26,1.85,-1.83,-1.16,-0.82,-2.09,-2.10,-2.11
428.56,-0.26,1.85,-0.26,1.85,-1.84,-1.15,-0.85,-2.10,-2.10,-2.11
432.85,-0.27,1.85,-0.27,1.84,-1.83,-1.14,-0.88,-2.10,-2.10,-2.12
437.18,-0.30,1.82,-0.30,1.82,-1.81,-1.13,-0.91,-2.11,-2.11,-2.12
441.55,-0.34,1.78,-0.34,1.78,-1.78,-1.12,-0.94,-2.12,-2.12,-2.12
445.96,-0.39,1.74,-0.39,1.73,-1.73,-1.12,-0.97,-2.12,-2.12,-2.13
450.42,-0.45,1.68,-0.45,1.68,-1.67,-1.11,-1.00,-2.12,-2.12,-2.13
454.93,-0.52,1.61,-0.52,1.61,-1.60,-1.11,-1.03,-2.12,-2.12,-2.13
