frequency,raw,error,smoothed,error_smoothed,equalization,parametric_eq,fixed_band_eq,equalized_raw,equalized_smoothed,target
20.00,-2.10,-10.44,-2.10,-10.44,10.44,9.86,2.93,8.34,8.34,8.34
20.20,-1.98,-10.36,-1.98,-10.36,10.36,9.77,3.01,8.38,8.38,8.38
20.40,-1.86,-10.28,-1.86,-10.28,10.28,9.69,3.10,8.42,8.42,8.42
20.61,-1.73,-10.19,-1.74,-10.19,10.19,9.61,3.19,8.46,8.46,8.45
20.81,-1.61,-10.10,-1.61,-10.11,10.10,9.53,3.28,8.49,8.49,8.49
21.02,-1.49,-10.02,-1.49,-10.01,10.01,9.44,3.37,8.52,8.52,8.53
21.23,-1.36,-9.91,-1.36,-9.92,9.91,9.36,3.47,8.55,8.55,8.55
21.44,-1.24,-9.81,-1.24,-9.81,9.81,9.27,3.57,8.57,8.57,8.57
21.66,-1.12,-9.71,-1.12,-9.71,9.71,9.19,3.67,8.59,8.59,8.59
21.87,-0.99,-9.59,-0.99,-9.60,9.60,9.10,3.78,8.61,8.61,8.60
22.09,-0.87,-9.49,-0.87,-9.49,9.49,9.01,3.88,8.62,8.62,8.62
22.31,-0.74,-9.37,-0.74,-9.37,9.38,8.93,4.00,8.64,8.63,8.63
22.54,-0.62,-9.27,-0.62,-9.26,9.26,8.84,4.11,8.64,8.64,8.64
22.76,-0.49,-9.14,-0.49,-9.14,9.14,8.75,4.23,8.65,8.65,8.65
22.99,-0.37,-9.02,-0.37,-9.02,9.02,8.66,4.34,8.65,8.66,8.65
23.22,-0.24,-8.90,-0.24,-8.90,8.91,8.57,4.47,8.67,8.67,8.66
23.45,-0.11,-8.78,-0.11,-8.78,8.79,8.48,4.59,8.68,8.68,8.67
23.69,0.02,-8.67,0.02,-8.66,8.67,8.39,4.72,8.68,8.69,8.68
23.92,0.15,-8.54,0.15,-8.55,8.55,8.30,4.85,8.70,8.70,8.69
24.16,0.28,-8.43,0.28,-8.43,8.43,8.20,4.98,8.71,8.71,8.71
24.40,0.41,-8.32,0.41,-8.31,8.31,8.11,5.12,8.72,8.72,8.73
24.65,0.54,-8.18,0.54,-8.19,8.19,8.02,5.26,8.73,8.73,8.72
24.89,0.67,-8.06,0.67,-8.06,8.07,7.92,5.40,8.74,8.74,8.73
25.14,0.80,-7.94,0.80,-7.94,7.95,7.83,5.54,8.75,8.75,8.74
25.39,0.93,-7.82,0.93,-7.83,7.83,7.73,5.68,8.76,8.76,8.75
25.65,1.06,-7.71,1.06,-7.71,7.70,7.63,5.82,8.76,8.76,8.77
25.91,1.19,-7.59,1.19,-7.59,7.58,7.54,5.97,8.77,8.77,8.77
26.16,1.32,-7.46,1.32,-7.46,7.46,7.44,6.11,8.78,8.78,8.78
26.43,1.46,-7.34,1.46,-7.34,7.34,7.34,6.25,8.80,8.80,8.79
26.69,1.59,-7.21,1.59,-7.22,7.22,7.24,6.39,8.81,8.81,8.80
26.96,1.72,-7.10,1.72,-7.10,7.10,7.14,6.53,8.82,8.82,8.82
27.23,1.85,-6.99,1.85,-6.98,6.98,7.04,6.66,8.82,8.82,8.83
27.50,1.98,-6.85,1.98,-6.86,6.85,6.93,6.80,8.83,8.83,8.83
27.77,2.11,-6.72,2.11,-6.73,6.73,6.83,6.92,8.84,8.84,8.83
28.05,2.24,-6.61,2.24,-6.60,6.60,6.73,7.04,8.84,8.85,8.85
28.33,2.38,-6.47,2.38,-6.48,6.48,6.62,7.15,8.86,8.85,8.85
28.62,2.51,-6.36,2.51,-6.35,6.35,6.52,7.26,8.86,8.86,8.86
28.90,2.64,-6.23,2.64,-6.23,6.22,6.41,7.34,8.86,8.87,8.87
29.19,2.78,-6.09,2.78,-6.11,6.10,6.30,7.43,8.88,8.88,8.87
29.48,2.91,-5.99,2.91,-5.98,5.98,6.20,7.49,8.89,8.89,8.90
29.78,3.04,-5.85,3.04,-5.86,5.87,6.09,7.55,8.91,8.91,8.89
30.08,3.17,-5.74,3.16,-5.75,5.76,5.98,7.59,8.92,8.91,8.90
30.38,3.27,-5.63,3.27,-5.64,5.65,5.87,7.62,8.91,8.92,8.90
30.68,3.37,-5.55,3.37,-5.54,5.54,5.75,7.62,8.91,8.91,8.92
30.99,3.48,-5.44,3.48,-5.44,5.44,5.64,7.61,8.91,8.91,8.92
31.30,3.59,-5.33,3.59,-5.34,5.33,5.53,7.58,8.92,8.92,8.92
31.61,3.70,-5.23,3.70,-5.23,5.23,5.41,7.54,8.93,8.93,8.93
31.93,3.81,-5.14,3.81,-5.13,5.13,5.30,7.47,8.93,8.94,8.94
32.24,3.93,-5.01,3.93,-5.02,5.02,5.18,7.40,8.95,8.95,8.94
32.57,4.05,-4.91,4.05,-4.91,4.91,5.06,7.29,8.96,8.96,8.96
32.89,4.17,-4.79,4.17,-4.79,4.80,4.95,7.19,8.97,8.97,8.96
33.22,4.29,-4.68,4.29,-4.68,4.68,4.83,7.05,8.97,8.98,8.97
33.55,4.42,-4.56,4.42,-4.57,4.57,4.71,6.92,8.99,8.98,8.98
33.89,4.54,-4.45,4.54,-4.45,4.44,4.58,6.76,8.98,8.99,8.99
34.23,4.67,-4.32,4.67,-4.32,4.32,4.46,6.60,8.99,8.99,8.99
34.57,4.81,-4.19,4.81,-4.19,4.19,4.34,6.42,9.00,9.00,9.00
34.92,4.95,-4.06,4.95,-4.06,4.06,4.21,6.23,9.01,9.00,9.00
35.27,5.09,-3.93,5.09,-3.92,3.92,4.09,6.04,9.01,9.01,9.01
35.62,5.23,-3.78,5.23,-3.78,3.78,3.96,5.84,9.01,9.01,9.01
35.97,5.38,-3.63,5.38,-3.64,3.64,3.83,5.63,9.02,9.02,9.01
36.33,5.52,-3.50,5.52,-3.49,3.50,3.70,5.42,9.02,9.02,9.02
36.70,5.67,-3.34,5.67,-3.35,3.35,3.57,5.21,9.02,9.02,9.01
37.06,5.82,-3.20,5.82,-3.20,3.20,3.44,4.99,9.03,9.02,9.02
37.43,5.97,-3.05,5.97,-3.06,3.05,3.31,4.77,9.02,9.02,9.02
37.81,6.11,-2.91,6.12,-2.91,2.90,3.17,4.55,9.01,9.01,9.02
38.19,6.27,-2.75,6.27,-2.75,2.74,3.04,4.32,9.01,9.01,9.02
38.57,6.43,-2.58,6.43,-2.59,2.58,2.90,4.10,9.01,9.01,9.01
38.95,6.59,-2.42,6.59,-2.42,2.42,2.77,3.87,9.02,9.02,9.01
39.34,6.75,-2.25,6.75,-2.26,2.26,2.63,3.65,9.01,9.01,9.00
39.74,6.91,-2.09,6.91,-2.10,2.10,2.49,3.42,9.01,9.01,9.00
40.14,7.06,-1.95,7.06,-1.94,1.94,2.35,3.19,9.00,9.00,9.00
40.54,7.22,-1.78,7.22,-1.78,1.78,2.20,2.97,9.00,9.00,9.00
40.94,7.37,-1.62,7.37,-1.63,1.63,2.06,2.75,9.00,8.99,8.99
41.35,7.52,-1.47,7.52,-1.47,1.47,1.91,2.52,8.99,8.99,8.99
41.76,7.67,-1.32,7.67,-1.32,1.32,1.77,2.30,8.99,8.99,8.99
42.18,7.82,-1.17,7.82,-1.17,1.17,1.62,2.08,8.99,8.99,8.99
42.60,7.97,-1.02,7.97,-1.03,1.03,1.47,1.86,9.00,8.99,8.99
43.03,8.11,-0.88,8.11,-0.88,0.88,1.32,1.63,8.99,8.99,8.99
43.46,8.24,-0.75,8.24,-0.74,0.74,1.17,1.42,8.98,8.99,8.99
43.90,8.38,-0.60,8.37,-0.60,0.61,1.02,1.20,8.98,8.98,8.97
44.33,8.50,-0.47,8.50,-0.47,0.47,0.87,0.98,8.97,8.97,8.97
44.78,8.63,-0.33,8.63,-0.34,0.34,0.72,0.76,8.97,8.97,8.96
45.23,8.75,-0.21,8.75,-0.21,0.22,0.56,0.54,8.96,8.96,8.96
45.68,8.87,-0.09,8.87,-0.09,0.09,0.41,0.33,8.96,8.96,8.96
46.13,8.99,0.04,8.99,0.03,-0.03,0.25,0.11,8.96,8.96,8.95
46.60,9.11,0.15,9.11,0.15,-0.15,0.09,-0.10,8.96,8.96,8.96
47.06,9.23,0.28,9.23,0.27,-0.27,-0.06,-0.32,8.96,8.95,8.95
47.53,9.34,0.40,9.34,0.39,-0.40,-0.22,-0.53,8.94,8.95,8.94
48.01,9.46,0.51,9.46,0.51,-0.52,-0.38,-0.74,8.94,8.94,8.95
48.49,9.57,0.64,9.57,0.64,-0.64,-0.54,-0.95,8.93,8.93,8.93
48.97,9.68,0.77,9.68,0.77,-0.76,-0.70,-1.17,8.92,8.92,8.91
49.46,9.80,0.90,9.80,0.90,-0.89,-0.86,-1.38,8.91,8.91,8.90
49.96,9.91,1.03,9.91,1.02,-1.01,-1.02,-1.58,8.89,8.89,8.88
50.46,10.02,1.14,10.02,1.14,-1.14,-1.18,-1.79,8.88,8.87,8.88
50.96,10.12,1.26,10.12,1.26,-1.27,-1.34,-2.00,8.85,8.86,8.86
51.47,10.23,1.40,10.23,1.39,-1.39,-1.50,-2.20,8.84,8.84,8.83
51.99,10.35,1.53,10.34,1.52,-1.52,-1.66,-2.41,8.83,8.82,8.82
52.51,10.46,1.65,10.46,1.65,-1.65,-1.82,-2.61,8.81,8.81,8.81
53.03,10.58,1.79,10.58,1.78,-1.78,-1.97,-2.80,8.80,8.80,8.79
53.56,10.69,1.91,10.69,1.91,-1.91,-2.13,-3.00,8.78,8.78,8.78
54.10,10.80,2.05,10.80,2.04,-2.04,-2.29,-3.19,8.75,8.76,8.75
54.64,10.91,2.17,10.91,2.18,-2.18,-2.44,-3.38,8.73,8.73,8.74
55.18,11.03,2.32,11.03,2.31,-2.31,-2.59,-3.56,8.72,8.72,8.71
55.74,11.14,2.46,11.14,2.45,-2.44,-2.75,-3.74,8.69,8.70,8.68
56.29,11.26,2.58,11.25,2.58,-2.58,-2.90,-3.91,8.68,8.68,8.68
56.86,11.36,2.71,11.36,2.71,-2.71,-3.04,-4.07,8.65,8.65,8.65
57.42,11.47,2.85,11.47,2.84,-2.84,-3.19,-4.23,8.63,8.63,8.62
58.00,11.58,2.98,11.58,2.98,-2.97,-3.33,-4.38,8.60,8.60,8.60
58.58,11.69,3.11,11.69,3.11,-3.11,-3.47,-4.53,8.58,8.58,8.58
59.16,11.80,3.24,11.80,3.24,-3.24,-3.61,-4.66,8.56,8.56,8.56
59.76,11.91,3.37,11.91,3.36,-3.37,-3.74,-4.78,8.54,8.54,8.54
60.35,12.01,3.50,12.01,3.50,-3.50,-3.87,-4.90,8.51,8.51,8.51
60.96,12.11,3.63,12.11,3.64,-3.64,-4.00,-5.01,8.47,8.47,8.48
61.57,12.21,3.78,12.21,3.77,-3.77,-4.12,-5.10,8.44,8.44,8.43
62.18,12.31,3.92,12.31,3.91,-3.90,-4.24,-5.19,8.41,8.40,8.39
62.80,12.40,4.03,12.40,4.04,-4.04,-4.35,-5.26,8.36,8.36,8.37
63.43,12.49,4.17,12.49,4.17,-4.16,-4.46,-5.33,8.32,8.33,8.32
64.07,12.58,4.30,12.58,4.29,-4.29,-4.57,-5.38,8.29,8.29,8.28
64.71,12.67,4.42,12.67,4.42,-4.42,-4.67,-5.43,8.25,8.25,8.25
65.35,12.75,4.54,12.75,4.54,-4.54,-4.77,-5.46,8.21,8.21,8.21
66.01,12.83,4.66,12.83,4.65,-4.65,-4.86,-5.49,8.17,8.17,8.17
66.67,12.90,4.76,12.90,4.76,-4.77,-4.95,-5.51,8.13,8.14,8.14
67.33,12.98,4.88,12.98,4.88,-4.88,-5.03,-5.52,8.10,8.10,8.10
68.01,13.05,4.99,13.05,4.98,-4.98,-5.11,-5.52,8.07,8.06,8.06
68.69,13.11,5.09,13.11,5.09,-5.08,-5.18,-5.52,8.03,8.03,8.02
69.37,13.16,5.18,13.16,5.18,-5.18,-5.25,-5.51,7.98,7.98,7.98
70.07,13.21,5.27,13.21,5.27,-5.27,-5.32,-5.50,7.94,7.94,7.94
70.77,13.26,5.36,13.25,5.35,-5.35,-5.38,-5.48,7.91,7.90,7.90
71.48,13.29,5.42,13.30,5.43,-5.43,-5.44,-5.46,7.86,7.87,7.87
72.19,13.33,5.51,13.33,5.50,-5.50,-5.49,-5.44,7.83,7.83,7.82
72.91,13.37,5.58,13.36,5.57,-5.56,-5.54,-5.41,7.81,7.80,7.79
73.64,13.38,5.63,13.38,5.63,-5.62,-5.59,-5.39,7.76,7.76,7.75
74.38,13.39,5.67,13.39,5.67,-5.67,-5.63,-5.36,7.72,7.72,7.72
75.12,13.39,5.71,13.39,5.71,-5.72,-5.67,-5.33,7.67,7.68,7.68
75.87,13.41,5.76,13.41,5.75,-5.76,-5.70,-5.30,7.64,7.64,7.65
76.63,13.42,5.80,13.42,5.80,-5.81,-5.73,-5.28,7.61,7.61,7.62
77.40,13.44,5.85,13.44,5.85,-5.85,-5.76,-5.25,7.59,7.59,7.59
78.17,13.45,5.89,13.45,5.89,-5.89,-5.79,-5.23,7.56,7.57,7.56
78.95,13.47,5.94,13.47,5.93,-5.92,-5.81,-5.21,7.55,7.54,7.53
79.74,13.48,5.97,13.47,5.96,-5.96,-5.83,-5.19,7.52,7.52,7.51
80.54,13.48,5.99,13.48,5.99,-5.99,-5.85,-5.18,7.49,7.49,7.49
81.35,13.48,6.02,13.48,6.02,-6.02,-5.87,-5.16,7.45,7.46,7.46
82.16,13.49,6.06,13.49,6.05,-6.05,-5.89,-5.15,7.44,7.43,7.43
82.98,13.49,6.07,13.49,6.08,-6.08,-5.90,-5.15,7.41,7.41,7.42
83.81,13.50,6.11,13.50,6.11,-6.10,-5.92,-5.14,7.40,7.39,7.39
84.65,13.50,6.14,13.50,6.13,-6.12,-5.93,-5.14,7.37,7.37,7.36
85.50,13.50,6.15,13.50,6.15,-6.15,-5.94,-5.15,7.35,7.35,7.35
86.35,13.50,6.17,13.50,6.17,-6.17,-5.95,-5.16,7.33,7.33,7.33
87.22,13.50,6.19,13.50,6.18,-6.19,-5.96,-5.17,7.31,7.31,7.31
88.09,13.49,6.20,13.49,6.20,-6.21,-5.97,-5.19,7.28,7.28,7.29
88.97,13.49,6.22,13.49,6.21,-6.22,-5.98,-5.21,7.27,7.27,7.27
89.86,13.49,6.23,13.49,6.23,-6.23,-5.99,-5.23,7.26,7.26,7.26
90.76,13.49,6.26,13.49,6.25,-6.24,-6.00,-5.26,7.25,7.25,7.23
91.66,13.48,6.27,13.47,6.26,-6.24,-6.00,-5.29,7.24,7.23,7.21
92.58,13.45,6.26,13.45,6.26,-6.24,-6.01,-5.33,7.20,7.21,7.19
93.51,13.42,6.24,13.42,6.24,-6.25,-6.02,-5.37,7.17,7.17,7.18
94.44,13.39,6.23,13.39,6.23,-6.25,-6.03,-5.42,7.14,7.14,7.16
95.39,13.36,6.22,13.37,6.22,-6.25,-6.03,-5.46,7.11,7.12,7.14
96.34,13.35,6.24,13.35,6.24,-6.24,-6.04,-5.52,7.11,7.11,7.11
97.30,13.33,6.25,13.33,6.24,-6.23,-6.05,-5.57,7.09,7.09,7.08
98.28,13.31,6.26,13.31,6.25,-6.23,-6.06,-5.63,7.08,7.08,7.05
99.26,13.27,6.24,13.27,6.24,-6.22,-6.06,-5.69,7.04,7.05,7.03
100.25,13.23,6.23,13.22,6.22,-6.22,-6.07,-5.76,7.01,7.00,7.00
101.25,13.17,6.20,13.17,6.20,-6.21,-6.08,-5.82,6.96,6.96,6.97
102.27,13.12,6.19,13.13,6.19,-6.20,-6.09,-5.89,6.92,6.93,6.93
103.29,13.10,6.20,13.09,6.19,-6.19,-6.10,-5.96,6.91,6.90,6.90
104.32,13.06,6.19,13.05,6.19,-6.18,-6.11,-6.03,6.88,6.87,6.87
105.37,13.01,6.18,13.01,6.18,-6.18,-6.12,-6.11,6.83,6.83,6.83
106.42,12.96,6.18,12.97,6.18,-6.18,-6.13,-6.18,6.78,6.78,6.78
107.48,12.93,6.18,12.92,6.18,-6.19,-6.14,-6.25,6.74,6.74,6.75
108.56,12.89,6.20,12.89,6.19,-6.19,-6.15,-6.33,6.70,6.70,6.69
109.64,12.85,6.21,12.85,6.21,-6.20,-6.16,-6.40,6.65,6.66,6.64
110.74,12.82,6.23,12.81,6.22,-6.21,-6.17,-6.47,6.61,6.60,6.59
111.85,12.77,6.23,12.77,6.23,-6.22,-6.18,-6.54,6.55,6.54,6.54
112.97,12.71,6.24,12.72,6.23,-6.24,-6.20,-6.60,6.47,6.47,6.47
114.10,12.67,6.25,12.67,6.25,-6.27,-6.21,-6.67,6.40,6.40,6.42
115.24,12.63,6.27,12.63,6.27,-6.29,-6.22,-6.73,6.34,6.34,6.36
116.39,12.61,6.32,12.61,6.31,-6.32,-6.23,-6.78,6.29,6.29,6.29
117.55,12.59,6.36,12.59,6.35,-6.35,-6.24,-6.83,6.24,6.24,6.23
118.73,12.57,6.40,12.56,6.39,-6.37,-6.26,-6.87,6.20,6.19,6.17
119.92,12.53,6.41,12.53,6.41,-6.40,-6.27,-6.90,6.13,6.13,6.12
121.12,12.50,6.44,12.50,6.44,-6.43,-6.28,-6.94,6.07,6.07,6.06
122.33,12.47,6.46,12.46,6.45,-6.45,-6.29,-6.96,6.02,6.01,6.01
123.55,12.43,6.47,12.43,6.47,-6.48,-6.30,-6.97,5.95,5.95,5.96
124.79,12.39,6.48,12.39,6.48,-6.50,-6.32,-6.98,5.89,5.90,5.91
126.03,12.36,6.50,12.36,6.50,-6.52,-6.33,-6.98,5.84,5.85,5.86
127.29,12.34,6.53,12.34,6.53,-6.53,-6.34,-6.97,5.81,5.81,5.81
128.57,12.32,6.57,12.31,6.55,-6.54,-6.35,-6.96,5.77,5.77,5.75
129.85,12.28,6.57,12.28,6.57,-6.55,-6.36,-6.94,5.73,5.72,5.71
131.15,12.23,6.57,12.24,6.57,-6.56,-6.37,-6.91,5.67,5.68,5.66
132.46,12.19,6.57,12.19,6.56,-6.56,-6.38,-6.87,5.63,5.63,5.62
133.79,12.14,6.56,12.13,6.55,-6.55,-6.40,-6.83,5.59,5.58,5.58
135.12,12.07,6.53,12.07,6.53,-6.54,-6.41,-6.78,5.53,5.53,5.54
136.48,12.02,6.52,12.01,6.51,-6.52,-6.42,-6.74,5.50,5.49,5.50
137.84,11.95,6.49,11.96,6.50,-6.50,-6.42,-6.68,5.45,5.46,5.46
139.22,11.91,6.50,11.90,6.49,-6.48,-6.43,-6.62,5.43,5.42,5.41
140.61,11.85,6.48,11.84,6.46,-6.46,-6.44,-6.56,5.39,5.39,5.37
142.02,11.77,6.42,11.78,6.43,-6.43,-6.45,-6.49,5.34,5.35,5.35
143.44,11.72,6.41,11.71,6.40,-6.40,-6.46,-6.43,5.32,5.31,5.31
144.87,11.64,6.37,11.65,6.37,-6.37,-6.46,-6.36,5.26,5.27,5.27
146.32,11.59,6.36,11.59,6.35,-6.35,-6.47,-6.29,5.24,5.24,5.23
147.78,11.52,6.32,11.51,6.31,-6.32,-6.47,-6.22,5.20,5.20,5.20
149.26,11.45,6.28,11.45,6.29,-6.29,-6.48,-6.15,5.16,5.16,5.17
150.75,11.37,6.26,11.38,6.25,-6.26,-6.48,-6.08,5.11,5.12,5.11
152.26,11.32,6.25,11.31,6.23,-6.23,-6.48,-6.02,5.08,5.08,5.07
153.78,11.24,6.20,11.25,6.21,-6.21,-6.48,-5.95,5.03,5.03,5.04
155.32,11.19,6.21,11.19,6.19,-6.19,-6.48,-5.89,4.99,4.99,4.98
156.88,11.12,6.17,11.12,6.17,-6.18,-6.49,-5.83,4.94,4.94,4.95
158.44,11.07,6.17,11.06,6.16,-6.17,-6.48,-5.77,4.90,4.90,4.90
160.03,11.00,6.15,11.01,6.16,-6.16,-6.48,-5.72,4.84,4.85,4.85
161.63,10.96,6.16,10.96,6.15,-6.15,-6.48,-5.67,4.81,4.81,4.80
163.24,10.92,6.16,10.91,6.14,-6.14,-6.48,-5.62,4.78,4.76,4.76
164.88,10.85,6.13,10.86,6.14,-6.13,-6.47,-5.58,4.72,4.72,4.72
166.53,10.80,6.13,10.81,6.13,-6.12,-6.47,-5.53,4.67,4.68,4.67
168.19,10.76,6.14,10.75,6.12,-6.12,-6.46,-5.50,4.64,4.63,4.62
169.87,10.69,6.12,10.69,6.11,-6.11,-6.45,-5.46,4.58,4.58,4.57
171.57,10.62,6.09,10.62,6.10,-6.10,-6.44,-5.44,4.52,4.52,4.53
173.29,10.56,6.09,10.56,6.08,-6.09,-6.43,-5.41,4.47,4.46,4.47
175.02,10.49,6.07,10.50,6.08,-6.09,-6.42,-5.39,4.40,4.41,4.42
176.77,10.45,6.09,10.45,6.08,-6.09,-6.41,-5.37,4.36,4.36,4.36
178.54,10.40,6.09,10.40,6.09,-6.09,-6.40,-5.36,4.31,4.32,4.31
180.32,10.36,6.11,10.36,6.10,-6.09,-6.38,-5.35,4.27,4.27,4.25
182.13,10.32,6.12,10.30,6.10,-6.10,-6.37,-5.35,4.22,4.21,4.20
183.95,10.24,6.10,10.25,6.11,-6.11,-6.35,-5.35,4.13,4.15,4.14
185.79,10.20,6.11,10.20,6.11,-6.12,-6.34,-5.35,4.08,4.08,4.09
187.65,10.16,6.14,10.16,6.13,-6.13,-6.32,-5.36,4.03,4.03,4.02
189.52,10.12,6.15,10.12,6.14,-6.14,-6.30,-5.37,3.98,3.98,3.97
191.42,10.08,6.16,10.08,6.16,-6.16,-6.28,-5.38,3.92,3.92,3.92
193.33,10.04,6.17,10.04,6.17,-6.18,-6.26,-5.40,3.86,3.86,3.87
195.27,10.01,6.19,10.01,6.19,-6.20,-6.24,-5.42,3.81,3.81,3.82
197.22,9.99,6.23,9.99,6.22,-6.22,-6.21,-5.45,3.76,3.76,3.76
199.19,9.97,6.26,9.97,6.25,-6.25,-6.19,-5.48,3.72,3.72,3.71
201.18,9.95,6.29,9.95,6.28,-6.27,-6.16,-5.51,3.68,3.68,3.66
203.19,9.92,6.29,9.92,6.29,-6.29,-6.14,-5.54,3.63,3.63,3.63
205.23,9.89,6.32,9.89,6.30,-6.31,-6.11,-5.57,3.58,3.58,3.57
207.28,9.85,6.30,9.85,6.31,-6.32,-6.08,-5.61,3.53,3.53,3.55
209.35,9.82,6.33,9.82,6.33,-6.33,-6.05,-5.65,3.49,3.49,3.49
211.44,9.78,6.34,9.78,6.33,-6.33,-6.02,-5.69,3.45,3.45,3.44
213.56,9.74,6.34,9.74,6.33,-6.33,-5.99,-5.72,3.41,3.41,3.40
215.69,9.70,6.32,9.70,6.32,-6.33,-5.96,-5.76,3.37,3.37,3.38
217.85,9.65,6.31,9.66,6.32,-6.31,-5.92,-5.80,3.34,3.34,3.34
220.03,9.61,6.31,9.61,6.30,-6.29,-5.89,-5.84,3.32,3.32,3.30
222.23,9.55,6.28,9.54,6.27,-6.25,-5.86,-5.87,3.30,3.29,3.27
224.45,9.47,6.22,9.47,6.22,-6.21,-5.82,-5.91,3.26,3.26,3.25
226.70,9.38,6.16,9.38,6.16,-6.16,-5.78,-5.94,3.22,3.22,3.22
228.96,9.28,6.09,9.30,6.10,-6.10,-5.75,-5.97,3.18,3.20,3.19
231.25,9.22,6.04,9.20,6.03,-6.04,-5.71,-5.99,3.18,3.17,3.18
233.57,9.13,5.97,9.12,5.96,-5.97,-5.67,-6.01,3.16,3.15,3.16
235.90,9.02,5.87,9.04,5.89,-5.90,-5.63,-6.03,3.12,3.14,3.15
238.26,8.97,5.83,8.96,5.82,-5.82,-5.59,-6.04,3.15,3.14,3.14
240.64,8.88,5.75,8.88,5.75,-5.74,-5.55,-6.04,3.14,3.14,3.13
243.05,8.81,5.68,8.80,5.67,-5.66,-5.51,-6.04,3.15,3.14,3.13
245.48,8.71,5.59,8.71,5.59,-5.58,-5.47,-6.04,3.13,3.13,3.12
247.93,8.61,5.49,8.62,5.49,-5.49,-5.43,-6.02,3.12,3.12,3.12
250.41,8.53,5.41,8.52,5.39,-5.40,-5.39,-6.00,3.13,3.12,3.12
252.92,8.42,5.29,8.43,5.30,-5.30,-5.34,-5.98,3.12,3.13,3.13
255.45,8.34,5.20,8.34,5.20,-5.20,-5.30,-5.94,3.14,3.14,3.14
258.00,8.25,5.10,8.24,5.09,-5.09,-5.25,-5.91,3.16,3.15,3.15
260.58,8.14,4.99,8.14,4.99,-4.98,-5.21,-5.86,3.16,3.17,3.15
263.19,8.05,4.89,8.04,4.87,-4.87,-5.16,-5.81,3.18,3.17,3.16
265.82,7.92,4.75,7.93,4.76,-4.75,-5.12,-5.75,3.17,3.18,3.17
268.48,7.83,4.64,7.83,4.64,-4.64,-5.07,-5.69,3.19,3.19,3.19
271.16,7.75,4.54,7.73,4.52,-4.53,-5.03,-5.62,3.22,3.20,3.21
273.87,7.63,4.42,7.64,4.42,-4.43,-4.98,-5.55,3.20,3.21,3.21
276.61,7.55,4.31,7.55,4.32,-4.33,-4.93,-5.48,3.22,3.23,3.24
279.38,7.48,4.24,7.48,4.23,-4.23,-4.88,-5.40,3.25,3.25,3.24
282.17,7.42,4.16,7.42,4.15,-4.15,-4.84,-5.32,3.27,3.27,3.26
284.99,7.36,4.09,7.35,4.08,-4.07,-4.79,-5.23,3.29,3.28,3.27
287.84,7.29,4.01,7.30,4.01,-4.01,-4.74,-5.15,3.28,3.28,3.28
290.72,7.25,3.96,7.25,3.95,-3.96,-4.69,-5.06,3.29,3.29,3.29
293.63,7.23,3.92,7.22,3.91,-3.93,-4.64,-4.97,3.30,3.30,3.31
296.57,7.21,3.88,7.22,3.89,-3.90,-4.60,-4.88,3.31,3.31,3.33
299.53,7.23,3.90,7.22,3.89,-3.89,-4.55,-4.80,3.34,3.33,3.33
302.53,7.24,3.90,7.24,3.89,-3.89,-4.50,-4.71,3.34,3.34,3.34
305.55,7.26,3.90,7.27,3.91,-3.91,-4.45,-4.62,3.35,3.36,3.36
308.61,7.30,3.93,7.30,3.93,-3.93,-4.40,-4.53,3.37,3.37,3.37
311.69,7.35,3.97,7.34,3.96,-3.95,-4.35,-4.45,3.39,3.39,3.38
314.81,7.39,3.98,7.39,3.99,-3.98,-4.30,-4.36,3.41,3.40,3.41
317.96,7.42,4.02,7.42,4.01,-4.01,-4.25,-4.28,3.41,3.41,3.40
321.14,7.45,4.04,7.45,4.04,-4.04,-4.20,-4.20,3.41,3.42,3.41
324.35,7.48,4.07,7.47,4.06,-4.06,-4.15,-4.12,3.42,3.42,3.41
327.59,7.49,4.07,7.49,4.07,-4.07,-4.10,-4.05,3.42,3.42,3.42
330.87,7.50,4.08,7.50,4.08,-4.08,-4.05,-3.97,3.42,3.43,3.42
334.18,7.51,4.09,7.50,4.08,-4.07,-4.00,-3.90,3.44,3.43,3.42
337.52,7.50,4.07,7.50,4.07,-4.06,-3.95,-3.83,3.44,3.44,3.43
340.90,7.48,4.05,7.48,4.05,-4.04,-3.90,-3.77,3.43,3.44,3.43
344.30,7.45,4.02,7.45,4.01,-4.02,-3.85,-3.71,3.43,3.43,3.43
347.75,7.41,3.98,7.41,3.98,-3.98,-3.80,-3.64,3.43,3.43,3.43
351.23,7.36,3.93,7.37,3.93,-3.93,-3.75,-3.59,3.43,3.43,3.43
354.74,7.32,3.89,7.31,3.89,-3.88,-3.71,-3.53,3.44,3.43,3.43
358.28,7.25,3.84,7.25,3.83,-3.82,-3.66,-3.48,3.43,3.42,3.41
361.87,7.17,3.76,7.17,3.76,-3.76,-3.61,-3.43,3.41,3.41,3.41
365.49,7.08,3.67,7.09,3.68,-3.68,-3.56,-3.38,3.39,3.41,3.41
369.14,7.01,3.61,7.01,3.60,-3.61,-3.51,-3.34,3.40,3.40,3.40
372.83,6.94,3.54,6.93,3.53,-3.53,-3.46,-3.30,3.41,3.40,3.40
376.56,6.83,3.44,6.84,3.45,-3.44,-3.41,-3.26,3.39,3.40,3.39
380.33,6.74,3.36,6.74,3.36,-3.35,-3.36,-3.22,3.39,3.39,3.38
384.13,6.64,3.27,6.63,3.26,-3.25,-3.31,-3.18,3.38,3.38,3.37
387.97,6.53,3.17,6.53,3.17,-3.16,-3.27,-3.15,3.37,3.37,3.36
391.85,6.43,3.08,6.43,3.07,-3.07,-3.22,-3.12,3.36,3.36,3.35
395.77,6.33,2.97,6.33,2.97,-2.98,-3.17,-3.09,3.35,3.35,3.36
399.73,6.24,2.89,6.24,2.89,-2.90,-3.12,-3.07,3.34,3.34,3.35
403.72,6.16,2.82,6.16,2.82,-2.82,-3.07,-3.04,3.33,3.34,3.34
407.76,6.10,2.77,6.09,2.76,-2.76,-3.03,-3.02,3.34,3.33,3.33
411.84,6.04,2.70,6.04,2.71,-2.71,-2.98,-3.00,3.33,3.33,3.34
415.96,5.99,2.67,5.99,2.66,-2.67,-2.93,-2.97,3.32,3.32,3.32
420.12,5.96,2.64,5.96,2.64,-2.65,-2.88,-2.95,3.31,3.32,3.32
424.32,5.95,2.63,5.95,2.63,-2.63,-2.84,-2.93,3.32,3.32,3.32
428.56,5.94,2.63,5.94,2.62,-2.62,-2.79,-2.92,3.31,3.31,3.31
432.85,5.94,2.63,5.94,2.62,-2.63,-2.74,-2.90,3.31,3.31,3.31
437.18,5.94,2.63,5.94,2.62,-2.63,-2.70,-2.88,3.31,3.31,3.31
441.55,5.95,2.63,5.95,2.63,-2.64,-2.65,-2.86,3.31,3.32,3.32
445.96,5.96,2.64,5.96,2.64,-2.64,-2.60,-2.84,3.32,3.32,3.32
450.42,5.98,2.67,5.97,2.65,-2.64,-2.56,-2.82,3.34,3.33,3.31
454.93,5.97,2.65,5.97,2.65,-2.63,-2.51,-2.80,3.34,3.34,3.32
459.48,5.95,2.63,5.95,2.63,-2.62,-2.46,-2.78,3.33,3.34,3.32
464.07,5.93,2.60,5.93,2.60,-2.60,-2.42,-2.75,3.33,3.33,3.33
468.71,5.91,2.57,5.90,2.57,-2.57,-2.37,-2.73,3.34,3.33,3.34
473.40,5.87,2.54,5.88,2.54,-2.54,-2.33,-2.70,3.33,3.34,3.33
478.13,5.85,2.51,5.84,2.50,-2.50,-2.28,-2.67,3.35,3.34,3.34
482.91,5.81,2.47,5.81,2.47,-2.46,-2.23,-2.64,3.35,3.35,3.34
487.74,5.78,2.43,5.78,2.43,-2.42,-2.19,-2.60,3.35,3.35,3.35
492.62,5.75,2.39,5.74,2.39,-2.39,-2.14,-2.57,3.36,3.35,3.36
497.55,5.71,2.35,5.71,2.35,-2.36,-2.10,-2.53,3.35,3.36,3.36
502.52,5.69,2.32,5.69,2.32,-2.33,-2.05,-2.48,3.36,3.36,3.37
507.55,5.67,2.30,5.67,2.30,-2.30,-2.01,-2.44,3.37,3.37,3.37
512.62,5.66,2.29,5.66,2.28,-2.28,-1.96,-2.39,3.38,3.37,3.37
517.75,5.64,2.26,5.64,2.26,-2.27,-1.92,-2.34,3.37,3.37,3.38
522.93,5.63,2.25,5.63,2.25,-2.25,-1.87,-2.29,3.38,3.38,3.38
