frequency,raw,error,smoothed,error_smoothed,equalization,parametric_eq,fixed_band_eq,equalized_raw,equalized_smoothed,target
20.00,8.77,0.22,9.00,0.41,-0.41,-0.26,-0.25,8.36,8.59,8.56
20.20,8.85,0.25,8.96,0.34,-0.34,-0.27,-0.26,8.51,8.62,8.61
20.40,8.92,0.27,8.93,0.28,-0.28,-0.27,-0.26,8.65,8.66,8.66
20.61,9.00,0.32,8.91,0.22,-0.22,-0.28,-0.26,8.78,8.69,8.69
20.81,9.07,0.34,8.89,0.16,-0.16,-0.28,-0.27,8.91,8.72,8.74
21.02,9.13,0.36,8.87,0.12,-0.12,-0.29,-0.27,9.01,8.75,8.78
21.23,9.03,0.24,8.85,0.08,-0.08,-0.30,-0.27,8.95,8.77,8.79
21.44,8.92,0.11,8.84,0.04,-0.04,-0.30,-0.28,8.88,8.80,8.81
21.66,8.82,-0.01,8.83,0.02,-0.02,-0.31,-0.28,8.81,8.82,8.83
21.87,8.71,-0.13,8.83,-0.00,0.00,-0.31,-0.28,8.72,8.83,8.84
22.09,8.67,-0.19,8.83,-0.02,0.02,-0.32,-0.29,8.69,8.85,8.86
22.31,8.71,-0.16,8.83,-0.03,0.03,-0.33,-0.29,8.74,8.86,8.87
22.54,8.75,-0.12,8.82,-0.05,0.05,-0.33,-0.30,8.80,8.87,8.87
22.76,8.80,-0.07,8.81,-0.06,0.06,-0.34,-0.30,8.86,8.87,8.87
22.99,8.84,-0.02,8.82,-0.06,0.06,-0.35,-0.30,8.90,8.87,8.86
23.22,8.87,0.01,8.83,-0.04,0.04,-0.35,-0.31,8.92,8.87,8.86
23.45,8.91,0.05,8.86,-0.01,0.01,-0.36,-0.31,8.92,8.87,8.86
23.69,8.94,0.07,8.92,0.05,-0.05,-0.37,-0.32,8.89,8.87,8.87
23.92,8.98,0.12,8.99,0.11,-0.11,-0.37,-0.32,8.87,8.87,8.87
24.16,9.02,0.15,9.06,0.18,-0.18,-0.38,-0.32,8.84,8.87,8.88
24.40,9.06,0.18,9.11,0.24,-0.24,-0.39,-0.33,8.83,8.87,8.88
24.65,9.11,0.24,9.15,0.28,-0.28,-0.40,-0.33,8.84,8.87,8.87
24.89,9.15,0.28,9.18,0.30,-0.30,-0.41,-0.34,8.85,8.87,8.87
25.14,9.21,0.34,9.20,0.32,-0.32,-0.41,-0.34,8.89,8.87,8.87
25.39,9.29,0.41,9.23,0.35,-0.35,-0.42,-0.35,8.94,8.88,8.88
25.65,9.37,0.49,9.26,0.39,-0.39,-0.43,-0.35,8.99,8.88,8.88
25.91,9.44,0.57,9.30,0.42,-0.42,-0.44,-0.35,9.02,8.87,8.87
26.16,9.41,0.54,9.32,0.45,-0.45,-0.45,-0.36,8.96,8.87,8.87
26.43,9.32,0.46,9.34,0.46,-0.46,-0.46,-0.36,8.86,8.87,8.87
26.69,9.23,0.37,9.34,0.47,-0.47,-0.46,-0.37,8.76,8.87,8.87
26.96,9.14,0.27,9.34,0.48,-0.48,-0.47,-0.37,8.67,8.87,8.87
27.23,9.23,0.36,9.35,0.48,-0.48,-0.48,-0.38,8.75,8.86,8.87
27.50,9.35,0.48,9.35,0.49,-0.49,-0.49,-0.38,8.86,8.86,8.87
27.77,9.47,0.61,9.36,0.50,-0.50,-0.50,-0.39,8.97,8.86,8.86
28.05,9.55,0.69,9.38,0.52,-0.52,-0.51,-0.39,9.03,8.86,8.86
28.33,9.46,0.62,9.39,0.54,-0.54,-0.52,-0.40,8.93,8.86,8.85
28.62,9.37,0.53,9.42,0.56,-0.56,-0.53,-0.40,8.81,8.85,8.84
28.90,9.28,0.43,9.45,0.59,-0.59,-0.54,-0.40,8.69,8.85,8.85
29.19,9.33,0.49,9.48,0.63,-0.63,-0.55,-0.41,8.70,8.85,8.84
29.48,9.45,0.59,9.52,0.67,-0.67,-0.57,-0.41,8.78,8.85,8.86
29.78,9.58,0.73,9.56,0.71,-0.71,-0.58,-0.42,8.87,8.85,8.85
30.08,9.67,0.82,9.58,0.74,-0.74,-0.59,-0.42,8.93,8.84,8.86
30.38,9.67,0.83,9.60,0.75,-0.75,-0.60,-0.43,8.92,8.84,8.84
30.68,9.67,0.83,9.61,0.77,-0.77,-0.61,-0.43,8.90,8.84,8.84
30.99,9.67,0.83,9.63,0.79,-0.79,-0.62,-0.44,8.89,8.84,8.84
31.30,9.67,0.84,9.65,0.81,-0.81,-0.64,-0.45,8.86,8.84,8.84
31.61,9.67,0.84,9.67,0.84,-0.84,-0.65,-0.45,8.84,8.83,8.83
31.93,9.67,0.84,9.69,0.86,-0.86,-0.66,-0.46,8.81,8.83,8.83
32.24,9.67,0.85,9.69,0.87,-0.87,-0.67,-0.46,8.80,8.83,8.82
32.57,9.67,0.85,9.69,0.87,-0.87,-0.69,-0.47,8.80,8.82,8.83
32.89,9.67,0.85,9.68,0.87,-0.87,-0.70,-0.48,8.81,8.81,8.82
33.22,9.67,0.86,9.68,0.87,-0.87,-0.71,-0.49,8.81,8.81,8.81
33.55,9.67,0.87,9.68,0.88,-0.88,-0.73,-0.49,8.80,8.80,8.81
33.89,9.67,0.88,9.69,0.89,-0.89,-0.74,-0.50,8.78,8.80,8.79
34.23,9.67,0.87,9.70,0.91,-0.91,-0.76,-0.51,8.77,8.79,8.80
34.57,9.67,0.89,9.71,0.92,-0.92,-0.77,-0.52,8.75,8.79,8.79
34.92,9.67,0.89,9.71,0.93,-0.93,-0.79,-0.53,8.75,8.78,8.78
35.27,9.70,0.92,9.72,0.94,-0.94,-0.80,-0.54,8.76,8.78,8.78
35.62,9.73,0.96,9.74,0.96,-0.96,-0.82,-0.55,8.77,8.78,8.78
35.97,9.77,1.00,9.76,0.98,-0.98,-0.83,-0.56,8.79,8.77,8.77
36.33,9.77,1.00,9.76,0.99,-0.99,-0.85,-0.57,8.78,8.77,8.78
36.70,9.77,1.01,9.75,0.98,-0.98,-0.87,-0.58,8.79,8.77,8.76
37.06,9.76,1.00,9.73,0.96,-0.96,-0.88,-0.59,8.80,8.77,8.76
37.43,9.70,0.93,9.68,0.92,-0.92,-0.90,-0.60,8.79,8.77,8.77
37.81,9.63,0.86,9.63,0.86,-0.86,-0.92,-0.62,8.77,8.77,8.77
38.19,9.61,0.85,9.58,0.81,-0.81,-0.93,-0.63,8.80,8.77,8.76
38.57,9.64,0.88,9.52,0.75,-0.75,-0.95,-0.64,8.89,8.77,8.77
38.95,9.67,0.90,9.44,0.68,-0.68,-0.97,-0.66,8.99,8.77,8.77
39.34,9.47,0.70,9.37,0.60,-0.60,-0.99,-0.67,8.87,8.76,8.77
39.74,9.23,0.47,9.28,0.52,-0.52,-1.01,-0.69,8.71,8.76,8.76
40.14,9.05,0.29,9.20,0.44,-0.44,-1.03,-0.70,8.61,8.76,8.76
40.54,8.98,0.23,9.13,0.37,-0.37,-1.05,-0.72,8.61,8.76,8.76
40.94,8.90,0.15,9.07,0.32,-0.32,-1.07,-0.74,8.58,8.75,8.75
41.35,8.95,0.21,9.03,0.28,-0.28,-1.09,-0.76,8.67,8.75,8.74
41.76,9.03,0.30,9.01,0.27,-0.27,-1.11,-0.77,8.76,8.74,8.74
42.18,9.04,0.30,8.99,0.27,-0.27,-1.13,-0.79,8.78,8.73,8.74
42.60,8.96,0.24,8.99,0.27,-0.27,-1.15,-0.81,8.69,8.72,8.72
43.03,8.89,0.18,9.00,0.30,-0.30,-1.18,-0.83,8.60,8.70,8.71
43.46,8.95,0.25,9.02,0.33,-0.33,-1.20,-0.85,8.62,8.69,8.70
43.90,9.02,0.35,9.07,0.39,-0.39,-1.22,-0.87,8.63,8.68,8.68
44.33,9.11,0.46,9.10,0.44,-0.44,-1.25,-0.90,8.67,8.66,8.66
44.78,9.22,0.58,9.14,0.49,-0.49,-1.27,-0.92,8.74,8.65,8.64
45.23,9.27,0.64,9.16,0.53,-0.53,-1.29,-0.94,8.74,8.63,8.63
45.68,9.27,0.66,9.19,0.57,-0.57,-1.32,-0.97,8.70,8.62,8.61
46.13,9.26,0.67,9.19,0.59,-0.59,-1.34,-0.99,8.67,8.60,8.59
46.60,9.21,0.63,9.18,0.59,-0.59,-1.37,-1.02,8.62,8.58,8.59
47.06,9.16,0.60,9.16,0.59,-0.59,-1.39,-1.04,8.57,8.57,8.57
47.53,9.12,0.57,9.13,0.58,-0.58,-1.42,-1.07,8.54,8.55,8.55
48.01,9.07,0.52,9.09,0.56,-0.56,-1.45,-1.10,8.51,8.53,8.55
48.49,9.04,0.51,9.04,0.53,-0.53,-1.48,-1.12,8.52,8.52,8.53
48.97,9.00,0.50,8.97,0.47,-0.47,-1.50,-1.15,8.53,8.50,8.51
49.46,8.98,0.50,8.89,0.40,-0.40,-1.53,-1.18,8.58,8.49,8.48
49.96,8.95,0.49,8.82,0.35,-0.35,-1.56,-1.21,8.60,8.47,8.46
50.46,8.76,0.31,8.76,0.30,-0.30,-1.59,-1.24,8.46,8.46,8.45
50.96,8.56,0.12,8.70,0.26,-0.26,-1.62,-1.27,8.31,8.44,8.44
51.47,8.56,0.15,8.66,0.23,-0.23,-1.65,-1.30,8.33,8.42,8.41
51.99,8.59,0.19,8.65,0.24,-0.24,-1.68,-1.34,8.35,8.41,8.40
52.51,8.62,0.23,8.66,0.26,-0.26,-1.71,-1.37,8.36,8.39,8.39
53.03,8.64,0.26,8.66,0.29,-0.29,-1.75,-1.40,8.36,8.38,8.38
53.56,8.53,0.17,8.66,0.30,-0.30,-1.78,-1.43,8.23,8.36,8.37
54.10,8.48,0.13,8.67,0.32,-0.32,-1.81,-1.47,8.16,8.35,8.35
54.64,8.70,0.37,8.70,0.37,-0.37,-1.85,-1.50,8.33,8.33,8.33
55.18,8.85,0.53,8.76,0.44,-0.44,-1.88,-1.54,8.42,8.32,8.32
55.74,8.87,0.57,8.82,0.52,-0.52,-1.92,-1.57,8.36,8.31,8.30
56.29,9.00,0.71,8.89,0.60,-0.60,-1.95,-1.61,8.40,8.29,8.29
56.86,9.23,0.96,8.97,0.70,-0.70,-1.99,-1.64,8.53,8.27,8.27
57.42,9.17,0.94,9.05,0.80,-0.80,-2.03,-1.68,8.37,8.25,8.24
58.00,9.00,0.78,9.13,0.90,-0.90,-2.06,-1.72,8.10,8.23,8.22
58.58,8.93,0.72,9.20,1.00,-1.00,-2.10,-1.75,7.94,8.20,8.21
59.16,9.02,0.83,9.25,1.08,-1.08,-2.14,-1.79,7.93,8.17,8.18
59.76,9.46,1.30,9.34,1.20,-1.20,-2.18,-1.83,8.26,8.14,8.16
60.35,9.60,1.49,9.42,1.32,-1.32,-2.22,-1.87,8.29,8.10,8.11
60.96,9.53,1.46,9.50,1.43,-1.43,-2.26,-1.90,8.10,8.07,8.08
61.57,9.51,1.48,9.56,1.53,-1.53,-2.30,-1.94,7.98,8.03,8.03
62.18,9.58,1.60,9.62,1.64,-1.64,-2.34,-1.98,7.94,7.98,7.98
62.80,9.87,1.94,9.71,1.77,-1.77,-2.39,-2.02,8.10,7.94,7.93
63.43,9.83,1.95,9.80,1.91,-1.91,-2.43,-2.05,7.93,7.89,7.88
64.07,9.66,1.83,9.90,2.06,-2.06,-2.47,-2.09,7.61,7.84,7.83
64.71,9.81,2.03,10.00,2.21,-2.21,-2.52,-2.13,7.60,7.79,7.78
65.35,10.09,2.35,10.09,2.35,-2.35,-2.57,-2.17,7.74,7.74,7.74
66.01,10.45,2.77,10.14,2.46,-2.46,-2.61,-2.21,7.99,7.68,7.68
66.67,10.26,2.64,10.19,2.56,-2.56,-2.66,-2.25,7.71,7.63,7.63
67.33,10.15,2.58,10.26,2.69,-2.69,-2.71,-2.30,7.47,7.58,7.57
68.01,10.13,2.61,10.34,2.81,-2.81,-2.76,-2.34,7.32,7.52,7.53
68.69,10.56,3.09,10.40,2.93,-2.93,-2.80,-2.38,7.63,7.47,7.47
69.37,10.64,3.23,10.45,3.04,-3.04,-2.85,-2.43,7.60,7.41,7.41
70.07,10.45,3.10,10.49,3.13,-3.13,-2.91,-2.47,7.32,7.35,7.35
70.77,10.57,3.27,10.53,3.24,-3.24,-2.96,-2.52,7.34,7.29,7.30
71.48,10.58,3.34,10.58,3.35,-3.35,-3.01,-2.57,7.23,7.23,7.24
72.19,10.54,3.38,10.62,3.45,-3.45,-3.06,-2.61,7.09,7.17,7.17
72.91,10.54,3.44,10.66,3.55,-3.55,-3.12,-2.67,6.99,7.10,7.10
73.64,10.76,3.72,10.71,3.67,-3.67,-3.17,-2.72,7.09,7.04,7.04
74.38,10.80,3.83,10.78,3.81,-3.81,-3.23,-2.77,7.00,6.98,6.97
75.12,10.68,3.77,10.86,3.94,-3.94,-3.28,-2.83,6.74,6.91,6.91
75.87,10.82,3.98,10.91,4.05,-4.05,-3.34,-2.89,6.77,6.85,6.84
76.63,10.81,4.03,10.93,4.14,-4.14,-3.40,-2.95,6.67,6.79,6.78
77.40,10.91,4.19,10.98,4.25,-4.25,-3.46,-3.01,6.66,6.73,6.72
78.17,11.13,4.48,11.03,4.37,-4.37,-3.52,-3.07,6.77,6.67,6.65
78.95,11.37,4.76,11.07,4.46,-4.46,-3.58,-3.14,6.91,6.61,6.61
79.74,11.28,4.73,11.10,4.55,-4.55,-3.64,-3.21,6.73,6.55,6.55
80.54,11.21,4.71,11.14,4.64,-4.64,-3.70,-3.28,6.57,6.49,6.50
81.35,11.18,4.75,11.18,4.74,-4.74,-3.76,-3.35,6.44,6.44,6.43
82.16,11.18,4.80,11.20,4.82,-4.82,-3.82,-3.43,6.36,6.38,6.38
82.98,11.18,4.85,11.23,4.90,-4.90,-3.89,-3.51,6.28,6.33,6.33
83.81,11.03,4.76,11.25,4.97,-4.97,-3.95,-3.59,6.06,6.27,6.27
84.65,11.08,4.87,11.25,5.03,-5.03,-4.02,-3.68,6.05,6.21,6.21
85.50,11.20,5.04,11.25,5.10,-5.10,-4.09,-3.76,6.11,6.16,6.16
86.35,11.28,5.18,11.24,5.15,-5.15,-4.15,-3.86,6.14,6.10,6.10
87.22,11.28,5.24,11.24,5.20,-5.20,-4.22,-3.95,6.09,6.04,6.04
88.09,11.30,5.32,11.24,5.26,-5.26,-4.29,-4.05,6.05,5.98,5.98
88.97,11.45,5.53,11.26,5.33,-5.33,-4.36,-4.15,6.12,5.92,5.92
89.86,11.37,5.51,11.27,5.41,-5.41,-4.43,-4.25,5.97,5.86,5.86
90.76,11.12,5.33,11.28,5.48,-5.48,-4.50,-4.35,5.65,5.80,5.80
91.66,11.21,5.47,11.30,5.56,-5.56,-4.57,-4.46,5.65,5.74,5.75
92.58,11.29,5.62,11.31,5.63,-5.63,-4.64,-4.58,5.66,5.68,5.67
93.51,11.29,5.68,11.32,5.70,-5.70,-4.71,-4.69,5.60,5.62,5.62
94.44,11.29,5.73,11.31,5.74,-5.74,-4.78,-4.81,5.55,5.56,5.56
95.39,11.29,5.79,11.29,5.79,-5.79,-4.86,-4.93,5.51,5.50,5.51
96.34,11.28,5.84,11.27,5.83,-5.83,-4.93,-5.05,5.45,5.44,5.44
97.30,11.28,5.90,11.26,5.87,-5.87,-5.01,-5.18,5.41,5.39,5.39
98.28,11.27,5.94,11.25,5.92,-5.92,-5.08,-5.31,5.35,5.33,5.33
99.26,11.28,6.01,11.24,5.97,-5.97,-5.15,-5.44,5.31,5.27,5.27
100.25,11.35,6.14,11.25,6.03,-6.03,-5.23,-5.57,5.32,5.21,5.21
101.25,11.28,6.12,11.24,6.08,-6.08,-5.31,-5.71,5.20,5.16,5.16
102.27,11.05,5.95,11.22,6.12,-6.12,-5.38,-5.84,4.93,5.10,5.10
103.29,11.11,6.08,11.20,6.16,-6.16,-5.46,-5.98,4.95,5.04,5.03
104.32,11.15,6.17,11.19,6.21,-6.21,-5.53,-6.11,4.95,4.98,4.98
105.37,11.15,6.23,11.17,6.25,-6.25,-5.61,-6.25,4.91,4.92,4.93
106.42,11.13,6.26,11.14,6.28,-6.28,-5.68,-6.39,4.85,4.86,4.87
107.48,11.14,6.34,11.11,6.31,-6.31,-5.76,-6.52,4.83,4.80,4.80
108.56,11.17,6.44,11.07,6.33,-6.33,-5.83,-6.65,4.84,4.73,4.73
109.64,11.10,6.43,11.03,6.35,-6.35,-5.91,-6.78,4.75,4.67,4.68
110.74,10.96,6.35,10.98,6.37,-6.37,-5.98,-6.91,4.59,4.61,4.61
111.85,10.96,6.40,10.94,6.39,-6.39,-6.06,-7.03,4.57,4.55,4.56
112.97,10.99,6.51,10.91,6.42,-6.42,-6.13,-7.15,4.58,4.49,4.48
114.10,10.86,6.44,10.88,6.45,-6.45,-6.20,-7.26,4.42,4.43,4.43
115.24,10.79,6.42,10.84,6.46,-6.46,-6.27,-7.37,4.33,4.38,4.37
116.39,10.72,6.42,10.79,6.47,-6.47,-6.34,-7.46,4.25,4.32,4.31
117.55,10.65,6.39,10.74,6.47,-6.47,-6.41,-7.55,4.18,4.27,4.26
118.73,10.61,6.41,10.71,6.49,-6.49,-6.48,-7.63,4.12,4.22,4.21
119.92,10.62,6.45,10.67,6.50,-6.50,-6.55,-7.70,4.13,4.17,4.17
121.12,10.62,6.51,10.62,6.50,-6.50,-6.62,-7.76,4.13,4.12,4.12
122.33,10.67,6.60,10.59,6.51,-6.51,-6.68,-7.81,4.16,4.08,4.07
123.55,10.63,6.59,10.56,6.52,-6.52,-6.74,-7.84,4.11,4.04,4.04
124.79,10.56,6.56,10.51,6.52,-6.52,-6.80,-7.87,4.04,3.99,4.00
126.03,10.59,6.63,10.47,6.52,-6.52,-6.86,-7.88,4.08,3.96,3.96
127.29,10.44,6.52,10.44,6.53,-6.53,-6.92,-7.88,3.91,3.92,3.93
128.57,10.35,6.48,10.42,6.54,-6.54,-6.97,-7.86,3.81,3.88,3.88
129.85,10.39,6.55,10.39,6.55,-6.55,-7.02,-7.84,3.84,3.84,3.84
131.15,10.40,6.60,10.38,6.58,-6.58,-7.07,-7.81,3.82,3.80,3.80
132.46,10.22,6.46,10.37,6.60,-6.60,-7.12,-7.76,3.62,3.76,3.76
133.79,10.22,6.50,10.35,6.63,-6.63,-7.16,-7.71,3.60,3.73,3.73
135.12,10.33,6.65,10.34,6.65,-6.65,-7.20,-7.65,3.69,3.69,3.68
136.48,10.21,6.56,10.32,6.67,-6.67,-7.23,-7.58,3.55,3.65,3.65
137.84,10.19,6.58,10.30,6.68,-6.68,-7.27,-7.50,3.51,3.62,3.61
139.22,10.32,6.75,10.27,6.69,-6.69,-7.30,-7.42,3.63,3.58,3.57
140.61,10.37,6.85,10.22,6.68,-6.68,-7.32,-7.33,3.69,3.54,3.53
142.02,10.33,6.83,10.17,6.66,-6.66,-7.35,-7.24,3.67,3.50,3.50
143.44,10.31,6.85,10.11,6.66,-6.66,-7.37,-7.14,3.66,3.46,3.46
144.87,10.26,6.85,10.08,6.66,-6.66,-7.38,-7.04,3.60,3.41,3.41
146.32,10.01,6.65,10.03,6.67,-6.67,-7.39,-6.94,3.34,3.36,3.37
147.78,9.91,6.58,9.96,6.66,-6.66,-7.40,-6.84,3.25,3.30,3.33
149.26,9.78,6.51,9.87,6.63,-6.63,-7.40,-6.74,3.15,3.24,3.27
150.75,9.68,6.49,9.76,6.59,-6.59,-7.40,-6.64,3.10,3.17,3.20
152.26,9.51,6.39,9.66,6.55,-6.55,-7.39,-6.54,2.96,3.10,3.12
153.78,9.43,6.38,9.56,6.53,-6.53,-7.38,-6.45,2.90,3.03,3.05
155.32,9.42,6.46,9.48,6.52,-6.52,-7.37,-6.35,2.90,2.95,2.97
156.88,9.56,6.68,9.42,6.54,-6.54,-7.35,-6.26,3.02,2.88,2.89
158.44,9.71,6.92,9.38,6.58,-6.58,-7.33,-6.17,3.13,2.80,2.79
160.03,9.48,6.78,9.35,6.63,-6.63,-7.30,-6.08,2.86,2.72,2.71
161.63,9.03,6.41,9.34,6.69,-6.69,-7.27,-6.00,2.35,2.65,2.63
163.24,8.96,6.40,9.34,6.75,-6.75,-7.24,-5.92,2.21,2.58,2.56
164.88,9.05,6.55,9.33,6.81,-6.81,-7.20,-5.84,2.24,2.52,2.50
166.53,9.26,6.82,9.33,6.86,-6.86,-7.16,-5.76,2.40,2.47,2.45
168.19,9.45,7.05,9.33,6.91,-6.91,-7.11,-5.70,2.54,2.42,2.40
169.87,9.56,7.20,9.33,6.95,-6.95,-7.06,-5.63,2.61,2.38,2.36
171.57,9.52,7.19,9.32,6.97,-6.97,-7.01,-5.57,2.55,2.35,2.34
173.29,9.45,7.14,9.30,6.97,-6.97,-6.95,-5.51,2.48,2.32,2.31
175.02,9.31,7.01,9.26,6.96,-6.96,-6.89,-5.46,2.35,2.30,2.30
176.77,9.23,6.95,9.23,6.95,-6.95,-6.83,-5.41,2.29,2.29,2.28
178.54,9.17,6.90,9.22,6.94,-6.94,-6.76,-5.37,2.23,2.28,2.27
180.32,9.13,6.86,9.19,6.93,-6.93,-6.70,-5.33,2.21,2.26,2.27
182.13,9.08,6.81,9.12,6.87,-6.87,-6.62,-5.29,2.21,2.25,2.28
183.95,9.07,6.81,9.03,6.79,-6.79,-6.55,-5.26,2.28,2.24,2.26
185.79,8.96,6.71,8.94,6.71,-6.71,-6.47,-5.23,2.26,2.23,2.25
187.65,8.81,6.59,8.84,6.63,-6.63,-6.39,-5.20,2.19,2.22,2.23
189.52,8.76,6.55,8.76,6.56,-6.56,-6.31,-5.18,2.21,2.20,2.21
191.42,8.62,6.43,8.68,6.50,-6.50,-6.23,-5.17,2.13,2.19,2.19
193.33,8.55,6.39,8.61,6.44,-6.44,-6.14,-5.15,2.11,2.17,2.17
195.27,8.55,6.41,8.54,6.39,-6.39,-6.06,-5.14,2.16,2.14,2.14
197.22,8.47,6.35,8.46,6.34,-6.34,-5.97,-5.13,2.13,2.12,2.12
199.19,8.36,6.27,8.38,6.28,-6.28,-5.88,-5.13,2.08,2.10,2.09
201.18,8.30,6.23,8.31,6.23,-6.23,-5.79,-5.13,2.07,2.07,2.07
203.19,8.23,6.18,8.23,6.18,-6.18,-5.69,-5.13,2.05,2.05,2.05
205.23,8.17,6.15,8.16,6.14,-6.14,-5.60,-5.13,2.04,2.02,2.02
207.28,8.11,6.10,8.09,6.09,-6.09,-5.51,-5.13,2.02,2.00,2.01
209.35,8.00,6.02,8.02,6.04,-6.04,-5.41,-5.13,1.96,1.98,1.99
211.44,7.90,5.95,7.94,5.99,-5.99,-5.31,-5.14,1.92,1.96,1.95
213.56,7.87,5.93,7.86,5.92,-5.92,-5.22,-5.14,1.95,1.94,1.94
215.69,7.81,5.89,7.77,5.85,-5.85,-5.12,-5.15,1.97,1.92,1.93
217.85,7.70,5.79,7.68,5.77,-5.77,-5.02,-5.15,1.94,1.91,1.91
220.03,7.60,5.71,7.59,5.69,-5.69,-4.92,-5.15,1.91,1.90,1.90
222.23,7.54,5.67,7.50,5.61,-5.61,-4.82,-5.15,1.93,1.89,1.87
224.45,7.42,5.55,7.40,5.52,-5.52,-4.72,-5.15,1.90,1.88,1.88
226.70,7.30,5.43,7.31,5.43,-5.43,-4.62,-5.14,1.88,1.88,1.87
228.96,7.16,5.28,7.21,5.33,-5.33,-4.52,-5.13,1.84,1.88,1.88
231.25,7.06,5.18,7.11,5.22,-5.22,-4.42,-5.12,1.84,1.89,1.89
233.57,6.94,5.05,7.01,5.12,-5.12,-4.32,-5.10,1.83,1.90,1.90
235.90,6.85,4.95,6.91,5.00,-5.00,-4.21,-5.07,1.85,1.91,1.90
238.26,6.81,4.90,6.80,4.88,-4.88,-4.11,-5.04,1.93,1.92,1.91
240.64,6.75,4.82,6.70,4.76,-4.76,-4.01,-5.01,1.99,1.94,1.93
243.05,6.63,4.67,6.60,4.64,-4.64,-3.91,-4.96,1.99,1.96,1.96
245.48,6.51,4.53,6.49,4.51,-4.51,-3.81,-4.91,2.00,1.98,1.98
247.93,6.37,4.36,6.36,4.36,-4.36,-3.71,-4.86,2.01,2.00,2.01
250.41,6.25,4.23,6.24,4.22,-4.22,-3.61,-4.79,2.04,2.02,2.02
252.92,6.11,4.06,6.11,4.06,-4.06,-3.51,-4.72,2.05,2.04,2.05
255.45,6.03,3.96,5.97,3.91,-3.91,-3.40,-4.64,2.12,2.06,2.07
258.00,5.89,3.80,5.84,3.75,-3.75,-3.30,-4.55,2.14,2.09,2.09
260.58,5.72,3.62,5.70,3.59,-3.59,-3.20,-4.45,2.13,2.11,2.11
263.19,5.57,3.43,5.56,3.43,-3.43,-3.10,-4.35,2.15,2.13,2.14
265.82,5.43,3.28,5.42,3.26,-3.26,-3.00,-4.24,2.17,2.16,2.15
268.48,5.21,3.04,5.28,3.10,-3.10,-2.90,-4.13,2.11,2.18,2.17
271.16,5.00,2.80,5.15,2.95,-2.95,-2.80,-4.00,2.05,2.20,2.21
273.87,4.92,2.70,5.03,2.80,-2.80,-2.70,-3.88,2.12,2.23,2.22
276.61,4.90,2.65,4.90,2.65,-2.65,-2.60,-3.74,2.25,2.25,2.25
279.38,4.80,2.53,4.78,2.50,-2.50,-2.50,-3.60,2.30,2.28,2.28
282.17,4.70,2.40,4.66,2.36,-2.36,-2.40,-3.46,2.34,2.30,2.30
284.99,4.58,2.25,4.54,2.21,-2.21,-2.31,-3.31,2.37,2.33,2.34
287.84,4.45,2.10,4.43,2.07,-2.07,-2.21,-3.16,2.38,2.36,2.35
290.72,4.35,1.97,4.32,1.94,-1.94,-2.11,-3.01,2.42,2.39,2.38
293.63,4.23,1.82,4.21,1.80,-1.80,-2.01,-2.85,2.44,2.41,2.41
296.57,4.10,1.66,4.10,1.66,-1.66,-1.91,-2.69,2.44,2.44,2.44
299.53,4.00,1.53,3.99,1.52,-1.52,-1.81,-2.53,2.48,2.47,2.47
302.53,3.88,1.40,3.88,1.38,-1.38,-1.72,-2.37,2.50,2.49,2.48
305.55,3.75,1.22,3.76,1.24,-1.24,-1.62,-2.20,2.51,2.52,2.53
308.61,3.63,1.09,3.64,1.10,-1.10,-1.52,-2.04,2.54,2.54,2.55
311.69,3.51,0.94,3.52,0.95,-0.95,-1.42,-1.87,2.56,2.57,2.57
314.81,3.39,0.79,3.40,0.81,-0.81,-1.32,-1.70,2.58,2.59,2.60
317.96,3.26,0.65,3.28,0.67,-0.67,-1.23,-1.53,2.59,2.61,2.61
321.14,3.14,0.52,3.17,0.54,-0.54,-1.13,-1.36,2.60,2.62,2.62
324.35,3.04,0.41,3.05,0.41,-0.41,-1.03,-1.20,2.63,2.64,2.64
327.59,2.99,0.34,2.94,0.28,-0.28,-0.93,-1.03,2.71,2.65,2.65
330.87,2.86,0.20,2.83,0.16,-0.16,-0.83,-0.85,2.70,2.67,2.66
334.18,2.75,0.08,2.72,0.04,-0.04,-0.74,-0.68,2.71,2.68,2.68
337.52,2.63,-0.05,2.62,-0.07,0.07,-0.64,-0.51,2.70,2.69,2.68
340.90,2.48,-0.22,2.53,-0.17,0.17,-0.54,-0.34,2.65,2.69,2.70
344.30,2.39,-0.32,2.44,-0.26,0.26,-0.44,-0.17,2.65,2.70,2.71
347.75,2.32,-0.38,2.36,-0.35,0.35,-0.34,0.00,2.67,2.71,2.71
351.23,2.25,-0.46,2.28,-0.43,0.43,-0.25,0.17,2.69,2.71,2.71
354.74,2.20,-0.51,2.20,-0.51,0.51,-0.15,0.35,2.71,2.71,2.71
358.28,2.09,-0.63,2.14,-0.58,0.58,-0.05,0.52,2.67,2.72,2.72
361.87,2.03,-0.68,2.07,-0.64,0.64,0.05,0.69,2.68,2.72,2.72
365.49,2.02,-0.70,2.01,-0.71,0.71,0.15,0.86,2.74,2.72,2.72
369.14,1.96,-0.75,1.94,-0.78,0.78,0.25,1.04,2.74,2.72,2.71
372.83,1.90,-0.81,1.88,-0.84,0.84,0.35,1.21,2.74,2.71,2.71
376.56,1.85,-0.85,1.81,-0.90,0.90,0.45,1.39,2.75,2.71,2.71
380.33,1.75,-0.96,1.74,-0.96,0.96,0.56,1.56,2.72,2.71,2.72
384.13,1.68,-1.03,1.67,-1.03,1.03,0.66,1.73,2.71,2.70,2.71
387.97,1.66,-1.04,1.60,-1.10,1.10,0.76,1.91,2.76,2.70,2.70
391.85,1.57,-1.12,1.52,-1.18,1.18,0.86,2.08,2.75,2.69,2.69
395.77,1.43,-1.27,1.43,-1.25,1.25,0.97,2.26,2.69,2.69,2.70
399.73,1.29,-1.39,1.34,-1.34,1.34,1.07,2.43,2.63,2.68,2.69
403.72,1.19,-1.49,1.25,-1.43,1.43,1.18,2.60,2.62,2.68,2.69
407.76,1.13,-1.54,1.15,-1.52,1.52,1.28,2.78,2.66,2.67,2.67
411.84,1.07,-1.60,1.05,-1.62,1.62,1.39,2.95,2.69,2.67,2.67
415.96,0.98,-1.69,0.95,-1.72,1.72,1.49,3.12,2.70,2.67,2.67
420.12,0.91,-1.76,0.86,-1.81,1.81,1.60,3.29,2.72,2.67,2.67
424.32,0.79,-1.88,0.78,-1.90,1.90,1.71,3.45,2.69,2.67,2.67
428.56,0.65,-2.02,0.69,-2.00,2.00,1.82,3.61,2.65,2.68,2.68
432.85,0.56,-2.12,0.61,-2.09,2.09,1.93,3.77,2.66,2.70,2.69
437.18,0.47,-2.22,0.53,-2.19,2.19,2.04,3.93,2.66,2.72,2.70
441.55,0.40,-2.33,0.47,-2.28,2.28,2.15,4.08,2.68,2.75,2.73
445.96,0.39,-2.37,0.41,-2.37,2.37,2.27,4.23,2.76,2.78,2.76
450.42,0.32,-2.47,0.35,-2.46,2.46,2.38,4.37,2.79,2.81,2.79
454.93,0.27,-2.57,0.29,-2.57,2.57,2.50,4.51,2.84,2.85,2.84
459.48,0.26,-2.63,0.23,-2.67,2.67,2.61,4.64,2.93,2.90,2.89
464.07,0.20,-2.74,0.17,-2.78,2.78,2.73,4.76,2.98,2.94,2.94
468.71,0.10,-2.90,0.10,-2.89,2.89,2.85,4.87,2.99,2.99,3.00
473.40,0.00,-3.03,0.04,-3.00,3.00,2.97,4.98,3.01,3.04,3.04
478.13,-0.01,-3.10,-0.04,-3.13,3.13,3.09,5.07,3.12,3.09,3.10
482.91,-0.06,-3.19,-0.13,-3.26,3.26,3.21,5.16,3.20,3.13,3.14
487.74,-0.15,-3.32,-0.22,-3.40,3.40,3.34,5.24,3.25,3.17,3.18
492.62,-0.27,-3.49,-0.33,-3.54,3.54,3.46,5.30,3.28,3.21,3.22
497.55,-0.42,-3.66,-0.45,-3.69,3.69,3.59,5.36,3.27,3.24,3.24
502.52,-0.55,-3.82,-0.56,-3.83,3.83,3.72,5.40,3.28,3.26,3.27
507.55,-0.68,-3.96,-0.67,-3.95,3.95,3.84,5.44,3.27,3.28,3.28
512.62,-0.80,-4.09,-0.78,-4.06,4.06,3.97,5.46,3.26,3.28,3.29
517.75,-0.95,-4.25,-0.87,-4.15,4.15,4.10,5.48,3.20,3.28,3.30
522.93,-1.06,-4.35,-0.97,-4.23,4.23,4.24,5.48,3.18,3.27,3.29
528.16,-1.20,-4.46,-1.07,-4.31,4.31,4.37,5.48,3.11,3.25,3.26
533.44,-1.29,-4.52,-1.17,-4.39,4.39,4.50,5.47,3.10,3.22,3.23
