frequency,raw,error,smoothed,error_smoothed,equalization,parametric_eq,fixed_band_eq,equalized_raw,equalized_smoothed,target
20.00,-31.46,-39.36,-31.20,-39.10,39.10,0.00,18.05,7.64,7.90,7.90
20.20,-31.29,-39.18,-31.16,-39.06,39.06,0.00,18.27,7.77,7.90,7.89
20.40,-31.11,-39.01,-31.11,-39.00,39.00,0.00,18.50,7.89,7.89,7.89
20.61,-30.95,-38.84,-31.05,-38.94,38.94,0.00,18.73,7.99,7.89,7.89
20.81,-30.76,-38.64,-30.98,-38.86,38.86,0.00,18.97,8.10,7.88,7.87
21.02,-30.62,-38.49,-30.89,-38.77,38.77,0.00,19.22,8.16,7.88,7.87
21.23,-30.60,-38.47,-30.80,-38.68,38.68,0.00,19.47,8.08,7.88,7.87
21.44,-30.59,-38.47,-30.69,-38.57,38.57,0.00,19.72,7.98,7.88,7.88
21.66,-30.57,-38.44,-30.57,-38.45,38.45,0.00,19.99,7.88,7.88,7.87
21.87,-30.55,-38.44,-30.45,-38.32,38.32,0.00,20.26,7.77,7.88,7.88
22.09,-30.46,-38.34,-30.31,-38.18,38.18,0.00,20.54,7.72,7.87,7.87
22.31,-30.27,-38.16,-30.16,-38.03,38.03,0.00,20.82,7.76,7.87,7.88
22.54,-30.09,-37.96,-30.01,-37.89,37.89,0.00,21.12,7.80,7.88,7.87
22.76,-29.89,-37.77,-29.86,-37.73,37.73,0.00,21.42,7.84,7.88,7.87
22.99,-29.71,-37.58,-29.68,-37.56,37.56,0.00,21.73,7.85,7.88,7.87
23.22,-29.48,-37.35,-29.48,-37.37,37.37,0.00,22.05,7.89,7.88,7.87
23.45,-29.23,-37.12,-29.26,-37.14,37.14,0.00,22.38,7.91,7.89,7.88
23.69,-29.01,-36.89,-29.00,-36.89,36.89,0.00,22.73,7.88,7.89,7.88
23.92,-28.77,-36.66,-28.73,-36.62,36.62,0.00,23.08,7.85,7.89,7.88
24.16,-28.51,-36.41,-28.46,-36.35,36.35,0.00,23.45,7.84,7.89,7.89
24.40,-28.25,-36.16,-28.21,-36.10,36.10,0.00,23.84,7.85,7.89,7.90
24.65,-28.00,-35.90,-27.98,-35.88,35.88,0.00,24.24,7.88,7.90,7.90
24.89,-27.72,-35.63,-27.78,-35.68,35.68,0.00,24.65,7.96,7.90,7.90
25.14,-27.47,-35.37,-27.59,-35.49,35.49,0.00,25.09,8.01,7.90,7.89
25.39,-27.23,-35.14,-27.37,-35.27,35.27,0.00,25.55,8.04,7.90,7.90
25.65,-26.99,-34.89,-27.15,-35.05,35.05,0.00,26.02,8.06,7.90,7.90
25.91,-26.75,-34.65,-26.93,-34.83,34.83,0.00,26.53,8.08,7.90,7.89
26.16,-26.67,-34.57,-26.73,-34.63,34.63,0.00,27.06,7.96,7.90,7.90
26.43,-26.68,-34.58,-26.57,-34.47,34.47,0.00,27.63,7.79,7.90,7.90
26.69,-26.69,-34.59,-26.43,-34.33,34.33,0.00,28.23,7.64,7.90,7.90
26.96,-26.70,-34.58,-26.32,-34.21,34.21,0.00,28.87,7.52,7.89,7.88
27.23,-26.38,-34.26,-26.21,-34.10,34.10,0.00,29.57,7.72,7.89,7.88
27.50,-26.00,-33.88,-26.11,-34.00,34.00,0.00,30.32,8.00,7.89,7.88
27.77,-25.60,-33.50,-26.01,-33.90,33.90,0.00,31.14,8.30,7.89,7.89
28.05,-25.34,-33.22,-25.90,-33.78,33.78,0.00,32.05,8.44,7.88,7.88
28.33,-25.53,-33.40,-25.77,-33.65,33.65,0.00,33.07,8.12,7.88,7.87
28.62,-25.72,-33.59,-25.63,-33.50,33.50,0.00,34.25,7.77,7.87,7.86
28.90,-25.92,-33.79,-25.48,-33.34,33.34,0.00,35.63,7.43,7.86,7.87
29.19,-25.79,-33.65,-25.32,-33.18,33.18,0.00,37.33,7.39,7.86,7.86
29.48,-25.46,-33.31,-25.17,-33.02,33.02,0.00,39.62,7.55,7.85,7.84
29.78,-25.16,-33.00,-25.02,-32.86,32.86,0.00,43.32,7.70,7.84,7.84
30.08,-24.87,-32.72,-24.88,-32.72,32.72,0.00,,7.85,7.83,7.84
30.38,-24.63,-32.45,-24.76,-32.59,32.59,0.00,,7.96,7.82,7.82
30.68,-24.38,-32.19,-24.64,-32.45,32.45,0.00,,8.07,7.81,7.81
30.99,-24.14,-31.94,-24.50,-32.30,32.30,0.00,,8.16,7.80,7.80
31.30,-24.13,-31.92,-24.34,-32.13,32.13,0.00,,8.01,7.80,7.79
31.61,-24.12,-31.90,-24.16,-31.95,31.95,0.00,,7.83,7.79,7.78
31.93,-24.12,-31.88,-24.00,-31.78,31.78,0.00,,7.66,7.78,7.76
32.24,-23.97,-31.75,-23.86,-31.63,31.63,0.00,,7.65,7.77,7.77
32.57,-23.81,-31.56,-23.73,-31.49,31.49,0.00,55.05,7.68,7.77,7.75
32.89,-23.63,-31.38,-23.60,-31.36,31.36,0.00,43.12,7.73,7.76,7.75
33.22,-23.49,-31.24,-23.46,-31.22,31.22,0.00,39.88,7.73,7.76,7.75
33.55,-23.36,-31.11,-23.33,-31.09,31.09,0.00,37.83,7.72,7.75,7.74
33.89,-23.26,-31.01,-23.20,-30.95,30.95,0.00,36.30,7.70,7.75,7.75
34.23,-23.11,-30.84,-23.06,-30.81,30.81,0.00,35.07,7.70,7.74,7.73
34.57,-22.94,-30.68,-22.90,-30.64,30.64,0.00,34.04,7.70,7.74,7.74
34.92,-22.78,-30.51,-22.71,-30.44,30.44,0.00,33.15,7.67,7.73,7.73
35.27,-22.51,-30.25,-22.51,-30.24,30.24,0.00,32.37,7.73,7.73,7.74
35.62,-22.22,-29.93,-22.30,-30.02,30.02,0.00,31.67,7.80,7.72,7.71
35.97,-21.92,-29.63,-22.09,-29.80,29.80,0.00,31.05,7.89,7.71,7.71
36.33,-21.89,-29.59,-21.90,-29.60,29.60,0.00,30.49,7.71,7.70,7.70
36.70,-21.87,-29.55,-21.72,-29.40,29.40,0.00,29.97,7.53,7.68,7.68
37.06,-21.79,-29.46,-21.55,-29.21,29.21,0.00,29.50,7.42,7.66,7.66
37.43,-21.43,-29.09,-21.39,-29.03,29.03,0.00,29.06,7.60,7.64,7.65
37.81,-21.09,-28.71,-21.24,-28.86,28.86,0.00,28.66,7.77,7.62,7.62
38.19,-20.85,-28.45,-21.10,-28.69,28.69,0.00,28.29,7.85,7.60,7.60
38.57,-20.72,-28.30,-20.96,-28.53,28.53,0.00,27.95,7.81,7.57,7.58
38.95,-20.59,-28.14,-20.82,-28.36,28.36,0.00,27.63,7.78,7.54,7.55
39.34,-20.62,-28.12,-20.68,-28.19,28.19,0.00,27.33,7.57,7.51,7.50
39.74,-20.68,-28.15,-20.54,-28.02,28.02,0.00,27.05,7.35,7.49,7.47
40.14,-20.66,-28.10,-20.40,-27.86,27.86,0.00,26.79,7.20,7.46,7.44
40.54,-20.49,-27.91,-20.25,-27.67,27.67,0.00,26.55,7.18,7.43,7.42
40.94,-20.31,-27.70,-20.09,-27.49,27.49,0.00,26.33,7.17,7.40,7.38
41.35,-20.07,-27.43,-19.95,-27.31,27.31,0.00,26.12,7.25,7.37,7.36
41.76,-19.80,-27.14,-19.81,-27.15,27.15,0.00,25.93,7.35,7.34,7.33
42.18,-19.56,-26.88,-19.67,-26.98,26.98,0.00,25.75,7.41,7.31,7.31
42.60,-19.35,-26.64,-19.53,-26.81,26.81,0.00,25.58,7.45,7.28,7.28
43.03,-19.16,-26.41,-19.38,-26.64,26.64,0.00,25.43,7.48,7.25,7.25
43.46,-19.14,-26.36,-19.23,-26.45,26.45,0.00,25.29,7.32,7.23,7.22
43.90,-19.12,-26.32,-19.05,-26.25,26.25,0.00,25.16,7.14,7.20,7.20
44.33,-18.91,-26.08,-18.90,-26.07,26.07,0.00,25.05,7.15,7.17,7.16
44.78,-18.66,-25.79,-18.76,-25.90,25.90,0.00,24.94,7.24,7.14,7.13
45.23,-18.52,-25.64,-18.62,-25.73,25.73,0.00,24.85,7.21,7.11,7.12
45.68,-18.49,-25.56,-18.47,-25.54,25.54,0.00,24.76,7.06,7.07,7.07
46.13,-18.45,-25.48,-18.31,-25.35,25.35,0.00,24.69,6.91,7.04,7.03
46.60,-18.37,-25.37,-18.15,-25.16,25.16,0.00,24.62,6.79,7.00,7.00
47.06,-18.24,-25.22,-18.00,-24.97,24.97,0.00,24.57,6.72,6.97,6.97
47.53,-17.89,-24.84,-17.85,-24.77,24.77,0.00,24.52,6.88,6.93,6.94
48.01,-17.56,-24.44,-17.68,-24.57,24.57,0.00,24.48,7.01,6.89,6.88
48.49,-17.50,-24.34,-17.50,-24.35,24.35,0.00,24.46,6.85,6.85,6.84
48.97,-17.42,-24.23,-17.33,-24.14,24.14,0.00,24.43,6.71,6.81,6.80
49.46,-17.07,-23.84,-17.17,-23.94,23.94,0.00,24.42,6.87,6.77,6.76
49.96,-16.71,-23.41,-17.02,-23.74,23.74,0.00,24.42,7.04,6.72,6.70
50.46,-16.67,-23.33,-16.86,-23.54,23.54,0.00,24.42,6.88,6.68,6.66
50.96,-16.65,-23.28,-16.70,-23.34,23.34,0.00,24.42,6.69,6.63,6.63
51.47,-16.63,-23.22,-16.55,-23.14,23.14,0.00,24.44,6.51,6.59,6.59
51.99,-16.60,-23.14,-16.40,-22.94,22.94,0.00,24.45,6.35,6.54,6.54
52.51,-16.34,-22.84,-16.26,-22.76,22.76,0.00,24.48,6.42,6.50,6.50
53.03,-16.09,-22.56,-16.14,-22.58,22.58,0.00,24.50,6.50,6.45,6.47
53.56,-16.02,-22.42,-16.00,-22.40,22.40,0.00,24.53,6.39,6.40,6.40
54.10,-15.94,-22.29,-15.86,-22.22,22.22,0.00,24.56,6.28,6.36,6.35
54.64,-15.82,-22.13,-15.72,-22.03,22.03,0.00,24.59,6.22,6.31,6.31
55.18,-15.64,-21.90,-15.59,-21.86,21.86,0.00,24.62,6.22,6.27,6.25
55.74,-15.40,-21.60,-15.45,-21.68,21.68,0.00,24.65,6.28,6.23,6.20
56.29,-15.21,-21.37,-15.29,-21.47,21.47,0.00,24.67,6.27,6.18,6.16
56.86,-15.07,-21.20,-15.13,-21.27,21.27,0.00,24.68,6.20,6.14,6.13
57.42,-14.95,-21.02,-14.98,-21.07,21.07,0.00,24.69,6.13,6.09,6.07
58.00,-14.82,-20.85,-14.84,-20.88,20.88,0.00,24.69,6.06,6.04,6.03
58.58,-14.69,-20.69,-14.70,-20.69,20.69,0.00,24.68,6.00,5.99,6.00
59.16,-14.56,-20.53,-14.55,-20.50,20.50,0.00,24.66,5.94,5.94,5.97
59.76,-14.43,-20.35,-14.40,-20.30,20.30,0.00,24.62,5.87,5.90,5.92
60.35,-14.29,-20.14,-14.26,-20.10,20.10,0.00,24.56,5.82,5.84,5.85
60.96,-14.15,-19.95,-14.12,-19.91,19.91,0.00,24.49,5.77,5.79,5.80
61.57,-14.01,-19.74,-13.98,-19.72,19.72,0.00,24.39,5.72,5.74,5.73
62.18,-13.87,-19.53,-13.84,-19.52,19.52,0.00,24.28,5.66,5.68,5.66
62.80,-13.73,-19.34,-13.69,-19.31,19.31,0.00,24.15,5.59,5.63,5.61
63.43,-13.55,-19.10,-13.54,-19.11,19.11,0.00,23.99,5.56,5.57,5.55
64.07,-13.35,-18.85,-13.39,-18.90,18.90,0.00,23.82,5.55,5.51,5.50
64.71,-13.23,-18.68,-13.25,-18.70,18.70,0.00,23.62,5.47,5.45,5.45
65.35,-13.12,-18.50,-13.11,-18.50,18.50,0.00,23.41,5.38,5.39,5.38
66.01,-13.00,-18.32,-12.97,-18.30,18.30,0.00,23.18,5.31,5.33,5.32
66.67,-12.85,-18.12,-12.84,-18.11,18.11,0.00,22.94,5.26,5.27,5.27
67.33,-12.65,-17.86,-12.70,-17.91,17.91,0.00,22.68,5.26,5.21,5.20
68.01,-12.45,-17.60,-12.57,-17.71,17.71,0.00,22.41,5.27,5.15,5.15
68.69,-12.36,-17.44,-12.43,-17.52,17.52,0.00,22.12,5.16,5.08,5.08
69.37,-12.32,-17.35,-12.30,-17.32,17.32,0.00,21.83,5.00,5.02,5.03
70.07,-12.30,-17.26,-12.17,-17.12,17.12,0.00,21.54,4.83,4.96,4.96
70.77,-12.14,-17.04,-12.04,-16.93,16.93,0.00,21.24,4.79,4.89,4.90
71.48,-11.98,-16.80,-11.91,-16.74,16.74,0.00,20.93,4.76,4.83,4.82
72.19,-11.81,-16.57,-11.79,-16.55,16.55,0.00,20.62,4.75,4.76,4.76
72.91,-11.65,-16.35,-11.66,-16.36,16.36,0.00,20.31,4.72,4.70,4.70
73.64,-11.49,-16.11,-11.53,-16.17,16.17,0.00,20.00,4.69,4.64,4.62
74.38,-11.35,-15.91,-11.41,-15.99,15.99,0.00,19.70,4.65,4.58,4.56
75.12,-11.23,-15.73,-11.29,-15.81,15.81,0.00,19.39,4.59,4.52,4.50
75.87,-11.14,-15.61,-11.16,-15.63,15.63,0.00,19.08,4.49,4.47,4.47
76.63,-11.01,-15.41,-11.03,-15.44,15.44,0.00,18.78,4.44,4.41,4.40
77.40,-10.93,-15.28,-10.90,-15.26,15.26,0.00,18.48,4.34,4.36,4.35
78.17,-10.86,-15.16,-10.78,-15.09,15.09,0.00,18.19,4.23,4.31,4.30
78.95,-10.73,-14.99,-10.67,-14.92,14.92,0.00,17.90,4.20,4.26,4.26
79.74,-10.55,-14.75,-10.55,-14.76,14.76,0.00,17.61,4.21,4.21,4.20
80.54,-10.41,-14.56,-10.44,-14.59,14.59,0.00,17.33,4.19,4.15,4.15
81.35,-10.32,-14.42,-10.32,-14.43,14.43,0.00,17.06,4.11,4.10,4.10
82.16,-10.22,-14.28,-10.20,-14.25,14.25,0.00,16.78,4.04,4.05,4.06
82.98,-10.04,-14.04,-10.09,-14.08,14.08,0.00,16.52,4.04,3.99,4.00
83.81,-10.04,-13.98,-9.97,-13.91,13.91,0.00,16.26,3.87,3.94,3.94
84.65,-9.89,-13.77,-9.87,-13.74,13.74,0.00,16.00,3.86,3.88,3.88
85.50,-9.75,-13.56,-9.75,-13.57,13.57,0.00,15.75,3.83,3.82,3.81
86.35,-9.64,-13.39,-9.64,-13.40,13.40,0.00,15.50,3.76,3.76,3.75
87.22,-9.53,-13.22,-9.53,-13.23,13.23,0.00,15.26,3.70,3.69,3.69
88.09,-9.35,-12.97,-9.44,-13.07,13.07,0.00,15.02,3.72,3.63,3.62
88.97,-9.35,-12.91,-9.34,-12.91,12.91,0.00,14.79,3.56,3.57,3.56
89.86,-9.20,-12.69,-9.24,-12.74,12.74,0.00,14.57,3.55,3.50,3.49
90.76,-9.14,-12.56,-9.14,-12.57,12.57,0.00,14.34,3.43,3.43,3.42
91.66,-9.13,-12.49,-9.04,-12.40,12.40,0.00,14.13,3.27,3.36,3.36
92.58,-9.05,-12.35,-8.94,-12.24,12.24,0.00,13.92,3.19,3.30,3.30
93.51,-8.85,-12.08,-8.85,-12.07,12.07,0.00,13.71,3.22,3.23,3.23
94.44,-8.69,-11.86,-8.76,-11.92,11.92,0.00,13.50,3.23,3.16,3.17
95.39,-8.67,-11.76,-8.68,-11.76,11.76,0.00,13.31,3.10,3.09,3.09
96.34,-8.64,-11.65,-8.59,-11.61,11.61,0.00,13.11,2.97,3.02,3.01
97.30,-8.53,-11.48,-8.51,-11.46,11.46,0.00,12.92,2.93,2.95,2.95
98.28,-8.39,-11.25,-8.43,-11.31,11.31,0.00,12.73,2.92,2.88,2.86
99.26,-8.25,-11.04,-8.35,-11.16,11.16,0.00,12.55,2.91,2.81,2.79
100.25,-8.22,-10.95,-8.27,-11.01,11.01,0.00,12.37,2.79,2.74,2.73
101.25,-8.22,-10.89,-8.18,-10.86,10.86,0.00,12.20,2.64,2.68,2.67
102.27,-8.19,-10.79,-8.11,-10.72,10.72,0.00,12.02,2.54,2.61,2.60
103.29,-8.07,-10.61,-8.04,-10.59,10.59,0.00,11.86,2.53,2.55,2.54
104.32,-7.99,-10.48,-7.97,-10.47,10.47,0.00,11.69,2.48,2.49,2.49
105.37,-7.93,-10.36,-7.90,-10.33,10.33,0.00,11.53,2.41,2.43,2.43
106.42,-7.80,-10.17,-7.83,-10.21,10.21,0.00,11.37,2.41,2.37,2.37
107.48,-7.76,-10.06,-7.77,-10.08,10.08,0.00,11.21,2.33,2.32,2.30
108.56,-7.76,-10.02,-7.70,-9.96,9.96,0.00,11.06,2.20,2.26,2.26
109.64,-7.61,-9.81,-7.64,-9.84,9.84,0.00,10.91,2.23,2.20,2.20
110.74,-7.53,-9.67,-7.57,-9.72,9.72,0.00,10.76,2.19,2.14,2.14
111.85,-7.53,-9.61,-7.51,-9.59,9.59,0.00,10.61,2.07,2.08,2.08
112.97,-7.51,-9.54,-7.44,-9.47,9.47,0.00,10.47,1.96,2.02,2.03
114.10,-7.30,-9.27,-7.38,-9.34,9.34,0.00,10.32,2.05,1.96,1.97
115.24,-7.30,-9.20,-7.33,-9.23,9.23,0.00,10.18,1.93,1.90,1.90
116.39,-7.30,-9.13,-7.28,-9.11,9.11,0.00,10.04,1.82,1.84,1.83
117.55,-7.29,-9.06,-7.22,-9.00,9.00,0.00,9.91,1.71,1.77,1.77
118.73,-7.13,-8.83,-7.17,-8.88,8.88,0.00,9.77,1.75,1.71,1.70
119.92,-7.08,-8.71,-7.11,-8.76,8.76,0.00,9.64,1.68,1.65,1.63
121.12,-7.08,-8.66,-7.05,-8.63,8.63,0.00,9.50,1.56,1.58,1.58
122.33,-7.08,-8.58,-7.00,-8.52,8.52,0.00,9.37,1.44,1.51,1.50
123.55,-6.98,-8.43,-6.96,-8.40,8.40,0.00,9.24,1.43,1.44,1.45
124.79,-6.86,-8.24,-6.91,-8.28,8.28,0.00,9.11,1.43,1.38,1.38
126.03,-6.85,-8.16,-6.86,-8.17,8.17,0.00,8.98,1.32,1.31,1.31
127.29,-6.85,-8.09,-6.81,-8.06,8.06,0.00,8.85,1.21,1.24,1.24
128.57,-6.80,-7.98,-6.76,-7.94,7.94,0.00,8.72,1.14,1.18,1.18
129.85,-6.64,-7.74,-6.71,-7.82,7.82,0.00,8.60,1.18,1.11,1.10
131.15,-6.62,-7.66,-6.66,-7.70,7.70,0.00,8.47,1.09,1.05,1.04
132.46,-6.62,-7.59,-6.62,-7.60,7.60,0.00,8.35,0.98,0.98,0.97
133.79,-6.62,-7.53,-6.57,-7.49,7.49,0.00,8.22,0.88,0.92,0.91
135.12,-6.61,-7.45,-6.53,-7.39,7.39,0.00,8.10,0.78,0.86,0.84
136.48,-6.56,-7.36,-6.50,-7.30,7.30,0.00,7.98,0.74,0.80,0.80
137.84,-6.41,-7.15,-6.48,-7.22,7.22,0.00,7.86,0.81,0.74,0.74
139.22,-6.39,-7.06,-6.46,-7.15,7.15,0.00,7.74,0.76,0.68,0.67
140.61,-6.39,-7.01,-6.44,-7.07,7.07,0.00,7.62,0.68,0.63,0.62
142.02,-6.39,-6.96,-6.42,-6.99,6.99,0.00,7.50,0.61,0.57,0.57
143.44,-6.39,-6.90,-6.40,-6.92,6.92,0.00,7.38,0.54,0.52,0.51
144.87,-6.39,-6.86,-6.39,-6.86,6.86,0.00,7.27,0.47,0.47,0.47
146.32,-6.39,-6.81,-6.36,-6.78,6.78,0.00,7.15,0.40,0.42,0.42
147.78,-6.39,-6.75,-6.34,-6.71,6.71,0.00,7.04,0.32,0.37,0.36
149.26,-6.39,-6.71,-6.32,-6.64,6.64,0.00,6.93,0.25,0.32,0.32
150.75,-6.39,-6.65,-6.31,-6.58,6.58,0.00,6.81,0.19,0.27,0.26
152.26,-6.38,-6.61,-6.30,-6.52,6.52,0.00,6.70,0.14,0.22,0.23
153.78,-6.24,-6.41,-6.28,-6.46,6.46,0.00,6.60,0.22,0.18,0.17
155.32,-6.17,-6.30,-6.26,-6.39,6.39,0.00,6.49,0.22,0.13,0.13
156.88,-6.16,-6.24,-6.23,-6.31,6.31,0.00,6.38,0.15,0.08,0.08
158.44,-6.16,-6.19,-6.20,-6.23,6.23,0.00,6.28,0.07,0.03,0.03
160.03,-6.16,-6.14,-6.17,-6.16,6.16,0.00,6.17,0.00,-0.02,-0.02
161.63,-6.16,-6.09,-6.15,-6.08,6.08,0.00,6.07,-0.07,-0.07,-0.07
163.24,-6.16,-6.03,-6.12,-6.00,6.00,0.00,5.97,-0.15,-0.12,-0.13
164.88,-6.16,-5.99,-6.09,-5.92,5.92,0.00,5.87,-0.24,-0.16,-0.17
166.53,-6.12,-5.89,-6.05,-5.84,5.84,0.00,5.77,-0.28,-0.21,-0.23
168.19,-6.01,-5.75,-6.02,-5.75,5.75,0.00,5.68,-0.25,-0.26,-0.26
169.87,-5.94,-5.63,-5.99,-5.68,5.68,0.00,5.58,-0.26,-0.32,-0.31
171.57,-5.94,-5.57,-5.97,-5.61,5.61,0.00,5.49,-0.33,-0.37,-0.37
173.29,-5.94,-5.52,-5.94,-5.52,5.52,0.00,5.40,-0.41,-0.42,-0.42
175.02,-5.94,-5.47,-5.90,-5.43,5.43,0.00,5.31,-0.51,-0.47,-0.47
176.77,-5.94,-5.42,-5.85,-5.33,5.33,0.00,5.22,-0.60,-0.52,-0.52
178.54,-5.76,-5.19,-5.81,-5.24,5.24,0.00,5.13,-0.52,-0.57,-0.57
180.32,-5.71,-5.08,-5.77,-5.15,5.15,0.00,5.04,-0.56,-0.62,-0.63
182.13,-5.71,-5.03,-5.73,-5.06,5.06,0.00,4.95,-0.65,-0.67,-0.68
183.95,-5.71,-4.98,-5.70,-4.97,4.97,0.00,4.87,-0.74,-0.73,-0.73
185.79,-5.71,-4.92,-5.66,-4.88,4.88,0.00,4.79,-0.82,-0.78,-0.79
187.65,-5.71,-4.88,-5.62,-4.79,4.79,0.00,4.70,-0.91,-0.83,-0.83
189.52,-5.53,-4.65,-5.58,-4.70,4.70,0.00,4.62,-0.82,-0.88,-0.88
191.42,-5.48,-4.56,-5.53,-4.61,4.61,0.00,4.54,-0.86,-0.92,-0.92
193.33,-5.48,-4.51,-5.49,-4.52,4.52,0.00,4.46,-0.95,-0.97,-0.97
195.27,-5.48,-4.46,-5.45,-4.44,4.44,0.00,4.39,-1.04,-1.01,-1.02
197.22,-5.48,-4.41,-5.41,-4.36,4.36,0.00,4.31,-1.12,-1.05,-1.07
199.19,-5.47,-4.37,-5.39,-4.29,4.29,0.00,4.24,-1.17,-1.09,-1.10
201.18,-5.34,-4.19,-5.35,-4.22,4.22,0.00,4.16,-1.12,-1.13,-1.15
203.19,-5.25,-4.07,-5.32,-4.15,4.15,0.00,4.09,-1.10,-1.17,-1.18
205.23,-5.25,-4.04,-5.30,-4.09,4.09,0.00,4.02,-1.16,-1.21,-1.21
207.28,-5.25,-4.01,-5.28,-4.03,4.03,0.00,3.95,-1.22,-1.25,-1.24
209.35,-5.25,-3.97,-5.26,-3.98,3.98,0.00,3.88,-1.27,-1.28,-1.28
211.44,-5.25,-3.93,-5.26,-3.94,3.94,0.00,3.81,-1.31,-1.32,-1.32
213.56,-5.25,-3.90,-5.24,-3.90,3.90,0.00,3.75,-1.35,-1.35,-1.35
215.69,-5.25,-3.87,-5.24,-3.85,3.85,0.00,3.68,-1.39,-1.38,-1.38
217.85,-5.25,-3.84,-5.23,-3.82,3.82,0.00,3.62,-1.43,-1.41,-1.41
220.03,-5.25,-3.80,-5.23,-3.78,3.78,0.00,3.55,-1.46,-1.44,-1.45
222.23,-5.25,-3.77,-5.23,-3.76,3.76,0.00,3.49,-1.49,-1.47,-1.48
224.45,-5.25,-3.74,-5.24,-3.74,3.74,0.00,3.43,-1.51,-1.50,-1.51
226.70,-5.25,-3.71,-5.25,-3.71,3.71,0.00,3.37,-1.53,-1.53,-1.54
228.96,-5.25,-3.68,-5.25,-3.68,3.68,0.00,3.32,-1.56,-1.56,-1.57
231.25,-5.25,-3.66,-5.25,-3.66,3.66,0.00,3.26,-1.59,-1.59,-1.59
233.57,-5.25,-3.63,-5.25,-3.64,3.64,0.00,3.20,-1.61,-1.61,-1.62
235.90,-5.25,-3.61,-5.26,-3.62,3.62,0.00,3.15,-1.62,-1.64,-1.64
238.26,-5.25,-3.57,-5.26,-3.60,3.60,0.00,3.10,-1.64,-1.66,-1.68
240.64,-5.25,-3.57,-5.26,-3.58,3.58,0.00,3.05,-1.67,-1.68,-1.68
243.05,-5.25,-3.55,-5.26,-3.55,3.55,0.00,3.00,-1.69,-1.70,-1.70
245.48,-5.25,-3.52,-5.24,-3.52,3.52,0.00,2.95,-1.72,-1.72,-1.73
247.93,-5.25,-3.50,-5.24,-3.50,3.50,0.00,2.90,-1.75,-1.74,-1.75
250.41,-5.25,-3.50,-5.23,-3.47,3.47,0.00,2.86,-1.77,-1.76,-1.75
252.92,-5.25,-3.48,-5.21,-3.44,3.44,0.00,2.81,-1.80,-1.77,-1.77
255.45,-5.25,-3.46,-5.19,-3.40,3.40,0.00,2.77,-1.84,-1.79,-1.79
258.00,-5.25,-3.44,-5.16,-3.36,3.36,0.00,2.73,-1.88,-1.80,-1.81
260.58,-5.11,-3.29,-5.13,-3.32,3.32,0.00,2.69,-1.79,-1.81,-1.82
263.19,-5.03,-3.20,-5.10,-3.28,3.28,0.00,2.65,-1.75,-1.82,-1.83
265.82,-5.02,-3.18,-5.07,-3.24,3.24,0.00,2.62,-1.78,-1.83,-1.84
268.48,-5.02,-3.18,-5.03,-3.19,3.19,0.00,2.58,-1.82,-1.84,-1.84
271.16,-5.02,-3.18,-4.99,-3.15,3.15,0.00,2.55,-1.87,-1.85,-1.84
273.87,-5.02,-3.17,-4.95,-3.10,3.10,0.00,2.51,-1.92,-1.85,-1.85
276.61,-4.89,-3.03,-4.91,-3.05,3.05,0.00,2.48,-1.84,-1.86,-1.86
279.38,-4.81,-2.93,-4.86,-3.00,3.00,0.00,2.45,-1.81,-1.86,-1.88
282.17,-4.80,-2.92,-4.82,-2.96,2.96,0.00,2.42,-1.84,-1.87,-1.88
284.99,-4.80,-2.93,-4.79,-2.92,2.92,0.00,2.39,-1.87,-1.87,-1.87
287.84,-4.80,-2.93,-4.76,-2.89,2.89,0.00,2.36,-1.90,-1.87,-1.87
290.72,-4.80,-2.92,-4.73,-2.86,2.86,0.00,2.34,-1.94,-1.87,-1.88
293.63,-4.69,-2.82,-4.69,-2.82,2.82,0.00,2.31,-1.86,-1.87,-1.87
296.57,-4.58,-2.71,-4.66,-2.79,2.79,0.00,2.29,-1.79,-1.87,-1.87
299.53,-4.57,-2.69,-4.62,-2.75,2.75,0.00,2.27,-1.81,-1.87,-1.88
302.53,-4.57,-2.71,-4.59,-2.72,2.72,0.00,2.24,-1.85,-1.87,-1.86
305.55,-4.57,-2.70,-4.55,-2.68,2.68,0.00,2.22,-1.89,-1.87,-1.87
308.61,-4.57,-2.71,-4.52,-2.66,2.66,0.00,2.20,-1.91,-1.86,-1.86
311.69,-4.57,-2.70,-4.49,-2.62,2.62,0.00,2.18,-1.94,-1.86,-1.87
314.81,-4.43,-2.57,-4.45,-2.59,2.59,0.00,2.16,-1.84,-1.86,-1.86
317.96,-4.35,-2.48,-4.40,-2.55,2.55,0.00,2.15,-1.80,-1.86,-1.87
321.14,-4.34,-2.48,-4.35,-2.50,2.50,0.00,2.13,-1.84,-1.86,-1.86
324.35,-4.34,-2.47,-4.30,-2.45,2.45,0.00,2.11,-1.89,-1.85,-1.87
327.59,-4.31,-2.47,-4.25,-2.40,2.40,0.00,2.10,-1.90,-1.85,-1.84
330.87,-4.16,-2.31,-4.20,-2.35,2.35,0.00,2.09,-1.80,-1.84,-1.85
334.18,-4.11,-2.26,-4.13,-2.29,2.29,0.00,2.07,-1.82,-1.84,-1.85
337.52,-4.11,-2.27,-4.06,-2.22,2.22,0.00,2.06,-1.88,-1.83,-1.84
340.90,-4.11,-2.28,-3.98,-2.16,2.16,0.00,2.05,-1.95,-1.83,-1.83
344.30,-3.93,-2.11,-3.91,-2.09,2.09,0.00,2.04,-1.84,-1.82,-1.82
347.75,-3.82,-2.01,-3.85,-2.03,2.03,0.00,2.03,-1.78,-1.81,-1.81
351.23,-3.70,-1.88,-3.79,-1.99,1.99,0.00,2.02,-1.71,-1.80,-1.82
354.74,-3.66,-1.87,-3.73,-1.93,1.93,0.00,2.01,-1.72,-1.80,-1.79
358.28,-3.66,-1.87,-3.66,-1.87,1.87,0.00,2.00,-1.78,-1.79,-1.79
361.87,-3.66,-1.87,-3.60,-1.82,1.82,0.00,2.00,-1.84,-1.78,-1.79
365.49,-3.49,-1.71,-3.55,-1.78,1.78,0.00,1.99,-1.71,-1.78,-1.78
369.14,-3.44,-1.67,-3.51,-1.74,1.74,0.00,1.99,-1.70,-1.77,-1.77
372.83,-3.43,-1.67,-3.45,-1.69,1.69,0.00,1.98,-1.74,-1.77,-1.76
376.56,-3.43,-1.66,-3.40,-1.64,1.64,0.00,1.98,-1.79,-1.76,-1.77
380.33,-3.43,-1.67,-3.35,-1.60,1.60,0.00,1.98,-1.83,-1.76,-1.76
384.13,-3.43,-1.68,-3.31,-1.56,1.56,0.00,1.98,-1.87,-1.75,-1.75
387.97,-3.28,-1.53,-3.27,-1.52,1.52,0.00,1.98,-1.76,-1.75,-1.75
391.85,-3.21,-1.46,-3.22,-1.48,1.48,0.00,1.97,-1.73,-1.75,-1.75
395.77,-3.20,-1.44,-3.17,-1.43,1.43,0.00,1.97,-1.77,-1.74,-1.76
399.73,-3.20,-1.45,-3.11,-1.38,1.38,0.00,1.98,-1.82,-1.73,-1.75
403.72,-3.12,-1.39,-3.07,-1.34,1.34,0.00,1.98,-1.77,-1.73,-1.73
407.76,-3.00,-1.27,-3.04,-1.31,1.31,0.00,1.98,-1.68,-1.72,-1.73
411.84,-2.97,-1.25,-3.01,-1.29,1.29,0.00,1.98,-1.68,-1.71,-1.72
415.96,-2.97,-1.26,-2.99,-1.28,1.28,0.00,1.98,-1.69,-1.71,-1.71
420.12,-2.97,-1.26,-2.99,-1.29,1.29,0.00,1.99,-1.68,-1.70,-1.71
424.32,-2.97,-1.28,-3.00,-1.31,1.31,0.00,1.99,-1.65,-1.69,-1.69
