frequency,raw,error,smoothed,error_smoothed,equalization,parametric_eq,fixed_band_eq,equalized_raw,equalized_smoothed,target
20.00,-31.46,-30.78,-31.48,-30.80,30.65,31.08,15.34,-0.81,-0.83,-0.67
20.20,-31.29,-30.60,-31.27,-30.59,30.54,30.88,15.54,-0.75,-0.73,-0.68
20.40,-31.11,-30.43,-31.09,-30.41,30.43,30.68,15.74,-0.68,-0.66,-0.68
20.61,-30.95,-30.27,-30.93,-30.24,30.32,30.49,15.95,-0.63,-0.61,-0.68
20.81,-30.76,-30.06,-30.77,-30.07,30.22,30.31,16.17,-0.55,-0.55,-0.70
21.02,-30.62,-29.91,-30.65,-29.95,30.11,30.13,16.39,-0.51,-0.55,-0.70
21.23,-30.60,-29.89,-30.59,-29.88,30.00,29.96,16.61,-0.60,-0.59,-0.70
21.44,-30.59,-29.89,-30.58,-29.88,29.89,29.79,16.84,-0.69,-0.68,-0.69
21.66,-30.57,-29.86,-30.58,-29.88,29.83,29.62,17.08,-0.74,-0.75,-0.70
21.87,-30.55,-29.86,-30.54,-29.84,29.75,29.46,17.32,-0.80,-0.78,-0.69
22.09,-30.46,-29.76,-30.44,-29.74,29.66,29.30,17.57,-0.80,-0.78,-0.70
22.31,-30.27,-29.58,-30.29,-29.59,29.55,29.15,17.82,-0.73,-0.74,-0.69
22.54,-30.09,-29.38,-30.10,-29.40,29.40,28.99,18.08,-0.69,-0.70,-0.70
22.76,-29.89,-29.20,-29.90,-29.20,29.22,28.84,18.35,-0.67,-0.68,-0.69
22.99,-29.71,-29.01,-29.69,-29.00,29.02,28.69,18.63,-0.69,-0.68,-0.69
23.22,-29.48,-28.78,-29.48,-28.79,28.80,28.54,18.92,-0.68,-0.68,-0.69
23.45,-29.23,-28.55,-29.25,-28.56,28.56,28.39,19.21,-0.67,-0.68,-0.68
23.69,-29.01,-28.33,-29.01,-28.32,28.33,28.25,19.52,-0.68,-0.68,-0.68
23.92,-28.77,-28.09,-28.76,-28.09,28.08,28.10,19.83,-0.69,-0.68,-0.68
24.16,-28.51,-27.84,-28.52,-27.84,27.83,27.96,20.15,-0.68,-0.69,-0.67
24.40,-28.25,-27.59,-28.26,-27.59,27.57,27.81,20.49,-0.68,-0.69,-0.66
24.65,-28.00,-27.33,-27.99,-27.33,27.30,27.66,20.84,-0.70,-0.69,-0.66
24.89,-27.72,-27.06,-27.73,-27.07,27.03,27.52,21.20,-0.69,-0.70,-0.66
25.14,-27.47,-26.81,-27.48,-26.82,26.79,27.37,21.58,-0.68,-0.68,-0.66
25.39,-27.23,-26.58,-27.21,-26.55,26.59,27.23,21.97,-0.64,-0.62,-0.65
25.65,-26.99,-26.33,-26.97,-26.32,26.43,27.08,22.38,-0.56,-0.54,-0.65
25.91,-26.75,-26.09,-26.79,-26.13,26.29,26.93,22.81,-0.46,-0.50,-0.66
26.16,-26.67,-26.01,-26.69,-26.03,26.16,26.78,23.25,-0.51,-0.53,-0.65
26.43,-26.68,-26.02,-26.69,-26.03,26.00,26.63,23.72,-0.68,-0.69,-0.65
26.69,-26.69,-26.03,-26.70,-26.04,25.82,26.48,24.21,-0.86,-0.88,-0.65
26.96,-26.70,-26.03,-26.61,-25.95,25.65,26.32,24.73,-1.05,-0.96,-0.66
27.23,-26.38,-25.72,-26.37,-25.70,25.50,26.17,25.27,-0.88,-0.87,-0.66
27.50,-26.00,-25.33,-25.98,-25.32,25.38,26.01,25.84,-0.62,-0.60,-0.66
27.77,-25.60,-24.95,-25.62,-24.96,25.28,25.86,26.44,-0.32,-0.35,-0.65
28.05,-25.34,-24.67,-25.46,-24.80,25.18,25.70,27.08,-0.16,-0.28,-0.66
28.33,-25.53,-24.86,-25.53,-24.86,25.08,25.54,27.76,-0.45,-0.45,-0.66
28.62,-25.72,-25.05,-25.71,-25.04,24.97,25.37,28.47,-0.75,-0.74,-0.67
28.90,-25.92,-25.25,-25.83,-25.16,24.87,25.21,29.21,-1.04,-0.96,-0.66
29.19,-25.79,-25.11,-25.74,-25.07,24.76,25.04,29.99,-1.02,-0.98,-0.67
29.48,-25.46,-24.78,-25.50,-24.83,24.64,24.88,30.78,-0.83,-0.87,-0.68
29.78,-25.16,-24.47,-25.18,-24.49,24.47,24.71,31.58,-0.69,-0.71,-0.68
30.08,-24.87,-24.19,-24.88,-24.19,24.27,24.54,32.34,-0.60,-0.61,-0.68
30.38,-24.63,-23.93,-24.60,-23.90,24.04,24.37,33.01,-0.59,-0.56,-0.70
30.68,-24.38,-23.67,-24.37,-23.66,23.82,24.19,33.52,-0.56,-0.55,-0.70
30.99,-24.14,-23.42,-24.20,-23.49,23.62,24.02,33.79,-0.52,-0.58,-0.71
31.30,-24.13,-23.40,-24.13,-23.41,23.46,23.84,33.78,-0.67,-0.67,-0.72
31.61,-24.12,-23.39,-24.11,-23.38,23.33,23.66,33.49,-0.78,-0.77,-0.72
31.93,-24.12,-23.37,-24.08,-23.34,23.23,23.48,32.98,-0.89,-0.85,-0.74
32.24,-23.97,-23.24,-23.97,-23.23,23.13,23.30,32.30,-0.84,-0.84,-0.73
32.57,-23.81,-23.06,-23.81,-23.07,23.04,23.12,31.54,-0.77,-0.78,-0.74
32.89,-23.63,-22.88,-23.64,-22.89,22.93,22.94,30.74,-0.69,-0.70,-0.74
33.22,-23.49,-22.74,-23.49,-22.75,22.82,22.76,29.95,-0.67,-0.68,-0.74
33.55,-23.36,-22.62,-23.37,-22.63,22.67,22.58,29.18,-0.69,-0.70,-0.74
33.89,-23.26,-22.52,-23.24,-22.50,22.50,22.39,28.43,-0.76,-0.74,-0.73
34.23,-23.11,-22.36,-23.11,-22.37,22.31,22.21,27.73,-0.80,-0.80,-0.74
34.57,-22.94,-22.20,-22.95,-22.22,22.12,22.02,27.06,-0.81,-0.83,-0.73
34.92,-22.78,-22.04,-22.75,-22.02,21.95,21.84,26.42,-0.83,-0.80,-0.73
35.27,-22.51,-21.79,-22.48,-21.75,21.78,21.65,25.82,-0.73,-0.70,-0.72
35.62,-22.22,-21.47,-22.21,-21.48,21.60,21.46,25.25,-0.62,-0.62,-0.74
35.97,-21.92,-21.17,-22.00,-21.26,21.40,21.28,24.71,-0.52,-0.60,-0.74
36.33,-21.89,-21.14,-21.91,-21.15,21.19,21.09,24.20,-0.70,-0.72,-0.74
36.70,-21.87,-21.10,-21.84,-21.08,20.96,20.90,23.71,-0.90,-0.87,-0.76
37.06,-21.79,-21.02,-21.70,-20.93,20.74,20.71,23.25,-1.05,-0.96,-0.77
37.43,-21.43,-20.65,-21.44,-20.65,20.53,20.53,22.81,-0.90,-0.91,-0.78
37.81,-21.09,-20.28,-21.14,-20.34,20.35,20.34,22.38,-0.73,-0.78,-0.80
38.19,-20.85,-20.03,-20.86,-20.04,20.19,20.15,21.98,-0.65,-0.66,-0.81
38.57,-20.72,-19.88,-20.69,-19.86,20.05,19.97,21.59,-0.67,-0.64,-0.83
38.95,-20.59,-19.73,-20.63,-19.77,19.91,19.78,21.21,-0.68,-0.72,-0.85
39.34,-20.62,-19.72,-20.64,-19.75,19.78,19.60,20.85,-0.84,-0.86,-0.89
39.74,-20.68,-19.76,-20.64,-19.73,19.66,19.41,20.51,-1.02,-0.99,-0.91
40.14,-20.66,-19.72,-20.62,-19.68,19.54,19.23,20.17,-1.12,-1.09,-0.93
40.54,-20.49,-19.53,-20.51,-19.55,19.40,19.04,19.85,-1.09,-1.11,-0.95
40.94,-20.31,-19.33,-20.31,-19.33,19.24,18.86,19.54,-1.08,-1.07,-0.98
41.35,-20.07,-19.07,-20.06,-19.07,19.05,18.68,19.24,-1.01,-1.01,-0.99
41.76,-19.80,-18.79,-19.82,-18.80,18.85,18.49,18.94,-0.96,-0.97,-1.01
42.18,-19.56,-18.54,-19.56,-18.53,18.63,18.31,18.66,-0.93,-0.92,-1.02
42.60,-19.35,-18.31,-19.35,-18.30,18.42,18.13,18.39,-0.94,-0.93,-1.04
43.03,-19.16,-18.09,-19.22,-18.16,18.20,17.95,18.12,-0.95,-1.02,-1.06
43.46,-19.14,-18.05,-19.14,-18.06,18.02,17.77,17.86,-1.12,-1.12,-1.08
43.90,-19.12,-18.02,-19.04,-17.94,17.87,17.60,17.61,-1.25,-1.17,-1.09
44.33,-18.91,-17.80,-18.89,-17.78,17.74,17.42,17.36,-1.17,-1.15,-1.11
44.78,-18.66,-17.52,-18.71,-17.58,17.62,17.24,17.12,-1.03,-1.08,-1.13
45.23,-18.52,-17.38,-18.55,-17.41,17.50,17.07,16.89,-1.02,-1.05,-1.13
45.68,-18.49,-17.32,-18.47,-17.31,17.36,16.89,16.66,-1.12,-1.11,-1.16
46.13,-18.45,-17.25,-18.45,-17.26,17.21,16.72,16.44,-1.24,-1.24,-1.19
46.60,-18.37,-17.15,-18.37,-17.16,17.04,16.55,16.22,-1.33,-1.33,-1.21
47.06,-18.24,-17.02,-18.16,-16.93,16.85,16.38,16.01,-1.39,-1.31,-1.22
47.53,-17.89,-16.65,-17.90,-16.65,16.64,16.21,15.80,-1.25,-1.26,-1.24
48.01,-17.56,-16.27,-17.68,-16.41,16.41,16.04,15.60,-1.15,-1.27,-1.28
48.49,-17.50,-16.19,-17.49,-16.19,16.18,15.87,15.40,-1.31,-1.31,-1.30
48.97,-17.42,-16.09,-17.29,-15.96,15.96,15.71,15.20,-1.47,-1.33,-1.33
49.46,-17.07,-15.72,-17.07,-15.71,15.74,15.54,15.01,-1.33,-1.32,-1.35
49.96,-16.71,-15.31,-16.83,-15.44,15.55,15.38,14.83,-1.16,-1.28,-1.39
50.46,-16.67,-15.25,-16.66,-15.25,15.38,15.21,14.64,-1.29,-1.28,-1.41
50.96,-16.65,-15.22,-16.64,-15.21,15.22,15.05,14.46,-1.42,-1.41,-1.42
51.47,-16.63,-15.18,-16.63,-15.18,15.08,14.89,14.29,-1.55,-1.55,-1.44
51.99,-16.60,-15.12,-16.51,-15.05,14.95,14.73,14.11,-1.65,-1.57,-1.47
52.51,-16.34,-14.84,-16.34,-14.85,14.81,14.57,13.94,-1.52,-1.53,-1.49
53.03,-16.09,-14.58,-16.16,-14.65,14.68,14.42,13.78,-1.41,-1.49,-1.50
53.56,-16.02,-14.47,-16.01,-14.47,14.52,14.26,13.61,-1.49,-1.49,-1.54
54.10,-15.94,-14.36,-15.92,-14.35,14.35,14.11,13.45,-1.59,-1.57,-1.57
54.64,-15.82,-14.22,-15.80,-14.20,14.15,13.96,13.29,-1.67,-1.65,-1.59
55.18,-15.64,-14.02,-15.62,-14.00,13.96,13.80,13.14,-1.69,-1.66,-1.62
55.74,-15.40,-13.75,-15.42,-13.78,13.78,13.65,12.98,-1.62,-1.64,-1.64
56.29,-15.21,-13.54,-15.23,-13.57,13.61,13.50,12.83,-1.60,-1.62,-1.66
56.86,-15.07,-13.40,-15.06,-13.39,13.44,13.36,12.68,-1.62,-1.62,-1.66
57.42,-14.95,-13.25,-14.94,-13.25,13.28,13.21,12.54,-1.67,-1.66,-1.69
58.00,-14.82,-13.11,-14.81,-13.12,13.12,13.06,12.39,-1.70,-1.70,-1.70
58.58,-14.69,-12.98,-14.69,-12.98,12.97,12.92,12.25,-1.72,-1.72,-1.70
59.16,-14.56,-12.85,-14.56,-12.85,12.82,12.78,12.11,-1.73,-1.73,-1.70
59.76,-14.43,-12.70,-14.42,-12.70,12.68,12.64,11.98,-1.75,-1.74,-1.72
60.35,-14.29,-12.53,-14.29,-12.54,12.53,12.50,11.84,-1.76,-1.76,-1.75
60.96,-14.15,-12.37,-14.15,-12.37,12.37,12.36,11.71,-1.78,-1.78,-1.77
61.57,-14.01,-12.20,-14.01,-12.20,12.20,12.22,11.58,-1.81,-1.81,-1.80
62.18,-13.87,-12.03,-13.87,-12.04,12.03,12.08,11.45,-1.84,-1.84,-1.83
62.80,-13.73,-11.87,-13.71,-11.85,11.86,11.95,11.32,-1.87,-1.85,-1.85
63.43,-13.55,-11.67,-13.54,-11.67,11.69,11.81,11.19,-1.86,-1.85,-1.87
64.07,-13.35,-11.46,-13.37,-11.49,11.52,11.68,11.07,-1.83,-1.86,-1.88
64.71,-13.23,-11.33,-13.23,-11.33,11.34,11.55,10.95,-1.88,-1.89,-1.89
65.35,-13.12,-11.20,-13.11,-11.20,11.17,11.42,10.82,-1.95,-1.94,-1.91
66.01,-13.00,-11.06,-12.99,-11.06,11.01,11.29,10.71,-1.99,-1.98,-1.93
66.67,-12.85,-10.90,-12.83,-10.88,10.86,11.16,10.59,-1.99,-1.97,-1.94
67.33,-12.65,-10.69,-12.64,-10.68,10.72,11.04,10.47,-1.94,-1.93,-1.96
68.01,-12.45,-10.47,-12.48,-10.51,10.59,10.91,10.36,-1.86,-1.90,-1.97
68.69,-12.36,-10.36,-12.38,-10.39,10.45,10.79,10.24,-1.90,-1.93,-1.99
69.37,-12.32,-10.32,-12.32,-10.32,10.32,10.67,10.13,-2.00,-2.00,-1.99
70.07,-12.30,-10.28,-12.25,-10.24,10.17,10.55,10.02,-2.12,-2.08,-2.01
70.77,-12.14,-10.11,-12.14,-10.11,10.03,10.43,9.91,-2.10,-2.11,-2.02
71.48,-11.98,-9.93,-11.99,-9.95,9.89,10.31,9.81,-2.09,-2.10,-2.04
72.19,-11.81,-9.75,-11.81,-9.75,9.75,10.19,9.70,-2.06,-2.06,-2.05
72.91,-11.65,-9.58,-11.64,-9.57,9.60,10.08,9.60,-2.04,-2.04,-2.06
73.64,-11.49,-9.40,-11.49,-9.41,9.45,9.96,9.49,-2.03,-2.03,-2.08
74.38,-11.35,-9.26,-11.35,-9.27,9.31,9.85,9.39,-2.04,-2.04,-2.08
75.12,-11.23,-9.14,-11.23,-9.15,9.18,9.74,9.29,-2.05,-2.05,-2.08
75.87,-11.14,-9.07,-11.12,-9.05,9.06,9.62,9.19,-2.07,-2.06,-2.06
76.63,-11.01,-8.94,-11.02,-8.96,8.95,9.51,9.10,-2.05,-2.07,-2.06
77.40,-10.93,-8.87,-10.94,-8.89,8.85,9.41,9.00,-2.07,-2.09,-2.05
78.17,-10.86,-8.81,-10.83,-8.79,8.75,9.30,8.91,-2.10,-2.08,-2.04
78.95,-10.73,-8.70,-10.71,-8.68,8.65,9.19,8.81,-2.07,-2.05,-2.02
79.74,-10.55,-8.53,-10.56,-8.55,8.55,9.09,8.72,-1.99,-2.01,-2.01
80.54,-10.41,-8.41,-10.43,-8.44,8.46,8.99,8.63,-1.95,-1.98,-1.99
81.35,-10.32,-8.33,-10.29,-8.32,8.35,8.88,8.54,-1.96,-1.94,-1.98
82.16,-10.22,-8.26,-10.19,-8.23,8.25,8.78,8.45,-1.97,-1.95,-1.95
82.98,-10.04,-8.09,-10.10,-8.15,8.14,8.68,8.36,-1.90,-1.96,-1.94
83.81,-10.04,-8.10,-9.99,-8.06,8.03,8.58,8.28,-2.00,-1.95,-1.93
84.65,-9.89,-7.96,-9.88,-7.95,7.93,8.49,8.19,-1.96,-1.95,-1.92
85.50,-9.75,-7.82,-9.78,-7.86,7.83,8.39,8.11,-1.92,-1.95,-1.92
86.35,-9.64,-7.73,-9.62,-7.71,7.73,8.30,8.03,-1.91,-1.89,-1.90
87.22,-9.53,-7.63,-9.51,-7.61,7.64,8.20,7.94,-1.89,-1.87,-1.89
88.09,-9.35,-7.46,-9.40,-7.52,7.55,8.11,7.86,-1.80,-1.85,-1.88
88.97,-9.35,-7.47,-9.29,-7.42,7.46,8.02,7.79,-1.89,-1.84,-1.87
89.86,-9.20,-7.33,-9.22,-7.35,7.37,7.93,7.71,-1.83,-1.85,-1.86
90.76,-9.14,-7.28,-9.18,-7.32,7.29,7.84,7.63,-1.85,-1.89,-1.85
91.66,-9.13,-7.28,-9.10,-7.26,7.21,7.75,7.56,-1.91,-1.89,-1.84
92.58,-9.05,-7.22,-9.00,-7.17,7.14,7.66,7.48,-1.91,-1.86,-1.82
93.51,-8.85,-7.03,-8.86,-7.05,7.06,7.58,7.41,-1.79,-1.81,-1.81
94.44,-8.69,-6.89,-8.74,-6.94,6.97,7.49,7.34,-1.72,-1.78,-1.79
95.39,-8.67,-6.87,-8.66,-6.87,6.88,7.41,7.27,-1.79,-1.78,-1.79
96.34,-8.64,-6.84,-8.60,-6.82,6.79,7.33,7.20,-1.85,-1.81,-1.79
97.30,-8.53,-6.75,-8.51,-6.73,6.71,7.25,7.13,-1.82,-1.80,-1.77
98.28,-8.39,-6.61,-8.39,-6.61,6.64,7.17,7.06,-1.75,-1.75,-1.77
99.26,-8.25,-6.48,-8.28,-6.52,6.57,7.09,6.99,-1.67,-1.71,-1.76
100.25,-8.22,-6.47,-8.23,-6.48,6.52,7.01,6.93,-1.70,-1.71,-1.74
101.25,-8.22,-6.49,-8.20,-6.47,6.47,6.93,6.86,-1.75,-1.73,-1.72
102.27,-8.19,-6.48,-8.16,-6.45,6.41,6.86,6.80,-1.77,-1.74,-1.70
103.29,-8.07,-6.38,-8.09,-6.41,6.36,6.78,6.73,-1.70,-1.73,-1.68
104.32,-7.99,-6.33,-7.99,-6.34,6.32,6.71,6.67,-1.66,-1.67,-1.65
105.37,-7.93,-6.29,-7.89,-6.26,6.28,6.63,6.61,-1.64,-1.61,-1.63
106.42,-7.80,-6.19,-7.84,-6.23,6.24,6.56,6.55,-1.56,-1.60,-1.60
107.48,-7.76,-6.16,-7.77,-6.18,6.19,6.49,6.49,-1.56,-1.58,-1.59
108.56,-7.76,-6.20,-7.69,-6.13,6.14,6.42,6.43,-1.61,-1.55,-1.55
109.64,-7.61,-6.07,-7.63,-6.09,6.09,6.35,6.37,-1.51,-1.53,-1.53
110.74,-7.53,-6.02,-7.58,-6.07,6.05,6.29,6.31,-1.47,-1.52,-1.50
111.85,-7.53,-6.04,-7.50,-6.02,6.02,6.22,6.25,-1.51,-1.48,-1.48
112.97,-7.51,-6.05,-7.44,-5.98,5.98,6.15,6.20,-1.53,-1.46,-1.45
114.10,-7.30,-5.86,-7.37,-5.93,5.94,6.09,6.14,-1.36,-1.43,-1.43
115.24,-7.30,-5.87,-7.32,-5.90,5.90,6.03,6.08,-1.40,-1.42,-1.42
116.39,-7.30,-5.88,-7.27,-5.86,5.86,5.96,6.03,-1.43,-1.41,-1.41
117.55,-7.29,-5.89,-7.23,-5.83,5.83,5.90,5.97,-1.46,-1.41,-1.39
118.73,-7.13,-5.74,-7.16,-5.78,5.79,5.84,5.91,-1.34,-1.38,-1.38
119.92,-7.08,-5.70,-7.11,-5.74,5.75,5.78,5.86,-1.32,-1.36,-1.37
121.12,-7.08,-5.73,-7.07,-5.72,5.72,5.72,5.80,-1.36,-1.35,-1.34
122.33,-7.08,-5.73,-7.03,-5.69,5.68,5.66,5.75,-1.40,-1.35,-1.34
123.55,-6.98,-5.65,-6.97,-5.64,5.64,5.60,5.69,-1.34,-1.33,-1.32
124.79,-6.86,-5.54,-6.90,-5.59,5.59,5.55,5.64,-1.27,-1.31,-1.31
126.03,-6.85,-5.54,-6.86,-5.55,5.54,5.49,5.58,-1.31,-1.32,-1.30
127.29,-6.85,-5.54,-6.81,-5.51,5.50,5.44,5.53,-1.35,-1.31,-1.30
128.57,-6.80,-5.50,-6.76,-5.46,5.46,5.38,5.47,-1.34,-1.30,-1.29
129.85,-6.64,-5.34,-6.69,-5.39,5.42,5.33,5.42,-1.22,-1.26,-1.29
131.15,-6.62,-5.33,-6.63,-5.34,5.38,5.28,5.36,-1.23,-1.24,-1.28
132.46,-6.62,-5.33,-6.61,-5.32,5.34,5.23,5.31,-1.27,-1.26,-1.28
133.79,-6.62,-5.34,-6.62,-5.35,5.30,5.18,5.25,-1.31,-1.32,-1.27
135.12,-6.61,-5.33,-6.59,-5.32,5.27,5.13,5.20,-1.34,-1.32,-1.27
136.48,-6.56,-5.30,-6.52,-5.26,5.24,5.08,5.14,-1.32,-1.29,-1.25
137.84,-6.41,-5.16,-6.45,-5.20,5.21,5.03,5.09,-1.19,-1.24,-1.24
139.22,-6.39,-5.14,-6.40,-5.16,5.20,4.98,5.04,-1.19,-1.20,-1.24
140.61,-6.39,-5.15,-6.37,-5.14,5.18,4.94,4.99,-1.20,-1.19,-1.23
142.02,-6.39,-5.16,-6.38,-5.16,5.18,4.89,4.94,-1.21,-1.21,-1.22
143.44,-6.39,-5.17,-6.39,-5.18,5.18,4.84,4.88,-1.21,-1.21,-1.21
144.87,-6.39,-5.19,-6.39,-5.19,5.18,4.80,4.83,-1.20,-1.20,-1.19
146.32,-6.39,-5.20,-6.39,-5.20,5.19,4.76,4.79,-1.19,-1.19,-1.18
147.78,-6.39,-5.20,-6.39,-5.21,5.20,4.71,4.74,-1.19,-1.19,-1.18
149.26,-6.39,-5.21,-6.40,-5.22,5.19,4.67,4.69,-1.20,-1.21,-1.17
150.75,-6.39,-5.21,-6.38,-5.21,5.17,4.63,4.64,-1.22,-1.21,-1.17
152.26,-6.38,-5.22,-6.33,-5.17,5.14,4.59,4.60,-1.23,-1.19,-1.15
153.78,-6.24,-5.08,-6.26,-5.11,5.11,4.55,4.55,-1.12,-1.15,-1.15
155.32,-6.17,-5.02,-6.19,-5.05,5.09,4.51,4.51,-1.08,-1.10,-1.14
156.88,-6.16,-5.01,-6.15,-5.00,5.06,4.47,4.47,-1.09,-1.08,-1.14
158.44,-6.16,-5.01,-6.15,-5.01,5.04,4.43,4.43,-1.11,-1.11,-1.14
160.03,-6.16,-5.01,-6.16,-5.01,5.02,4.39,4.39,-1.14,-1.14,-1.14
161.63,-6.16,-5.01,-6.16,-5.01,4.99,4.36,4.35,-1.17,-1.17,-1.14
163.24,-6.16,-5.00,-6.16,-5.01,4.96,4.32,4.31,-1.19,-1.20,-1.15
164.88,-6.16,-5.00,-6.14,-4.99,4.94,4.28,4.28,-1.21,-1.20,-1.15
166.53,-6.12,-4.95,-6.09,-4.93,4.92,4.25,4.25,-1.20,-1.17,-1.16
168.19,-6.01,-4.85,-6.02,-4.86,4.89,4.21,4.21,-1.12,-1.13,-1.15
169.87,-5.94,-4.77,-5.96,-4.80,4.85,4.18,4.18,-1.09,-1.11,-1.16
171.57,-5.94,-4.76,-5.93,-4.76,4.79,4.15,4.15,-1.14,-1.14,-1.17
173.29,-5.94,-4.75,-5.95,-4.76,4.74,4.11,4.13,-1.20,-1.21,-1.18
175.02,-5.94,-4.74,-5.93,-4.74,4.68,4.08,4.10,-1.25,-1.25,-1.19
176.77,-5.94,-4.72,-5.87,-4.66,4.63,4.05,4.07,-1.30,-1.24,-1.21
178.54,-5.76,-4.53,-5.80,-4.57,4.59,4.02,4.05,-1.17,-1.21,-1.22
180.32,-5.71,-4.46,-5.73,-4.49,4.54,3.99,4.03,-1.17,-1.19,-1.24
182.13,-5.71,-4.44,-5.69,-4.43,4.48,3.96,4.01,-1.23,-1.21,-1.26
183.95,-5.71,-4.43,-5.72,-4.44,4.41,3.93,3.99,-1.29,-1.30,-1.27
185.79,-5.71,-4.40,-5.70,-4.40,4.35,3.90,3.97,-1.35,-1.35,-1.30
187.65,-5.71,-4.39,-5.64,-4.33,4.30,3.87,3.96,-1.41,-1.35,-1.31
189.52,-5.53,-4.19,-5.57,-4.24,4.25,3.84,3.94,-1.28,-1.32,-1.33
191.42,-5.48,-4.13,-5.50,-4.15,4.20,3.81,3.93,-1.28,-1.30,-1.34
193.33,-5.48,-4.11,-5.46,-4.10,4.14,3.79,3.92,-1.33,-1.32,-1.36
195.27,-5.48,-4.09,-5.48,-4.10,4.08,3.76,3.90,-1.39,-1.40,-1.38
197.22,-5.48,-4.07,-5.48,-4.07,4.02,3.73,3.89,-1.46,-1.46,-1.40
199.19,-5.47,-4.05,-5.42,-4.00,3.96,3.71,3.89,-1.50,-1.46,-1.41
201.18,-5.34,-3.90,-5.35,-3.92,3.92,3.68,3.88,-1.42,-1.43,-1.43
203.19,-5.25,-3.80,-5.28,-3.84,3.87,3.65,3.87,-1.37,-1.41,-1.44
205.23,-5.25,-3.80,-5.24,-3.79,3.84,3.63,3.87,-1.41,-1.40,-1.44
207.28,-5.25,-3.79,-5.24,-3.78,3.80,3.61,3.86,-1.44,-1.43,-1.45
209.35,-5.25,-3.77,-5.25,-3.78,3.77,3.58,3.85,-1.47,-1.47,-1.47
211.44,-5.25,-3.76,-5.25,-3.76,3.75,3.56,3.85,-1.50,-1.50,-1.48
213.56,-5.25,-3.75,-5.25,-3.75,3.74,3.53,3.85,-1.51,-1.51,-1.49
215.69,-5.25,-3.74,-5.25,-3.74,3.73,3.51,3.84,-1.52,-1.52,-1.50
217.85,-5.25,-3.73,-5.25,-3.73,3.72,3.49,3.84,-1.52,-1.52,-1.51
220.03,-5.25,-3.71,-5.25,-3.71,3.71,3.47,3.83,-1.53,-1.53,-1.53
222.23,-5.25,-3.69,-5.25,-3.70,3.70,3.44,3.83,-1.55,-1.55,-1.55
224.45,-5.25,-3.68,-5.25,-3.68,3.69,3.42,3.82,-1.56,-1.56,-1.56
226.70,-5.25,-3.67,-5.25,-3.67,3.67,3.40,3.81,-1.57,-1.57,-1.57
228.96,-5.25,-3.66,-5.25,-3.66,3.66,3.38,3.81,-1.59,-1.59,-1.58
231.25,-5.25,-3.65,-5.25,-3.65,3.65,3.36,3.80,-1.60,-1.60,-1.59
233.57,-5.25,-3.64,-5.25,-3.64,3.64,3.34,3.79,-1.61,-1.61,-1.60
235.90,-5.25,-3.63,-5.25,-3.63,3.63,3.32,3.78,-1.62,-1.62,-1.61
238.26,-5.25,-3.61,-5.25,-3.62,3.62,3.30,3.76,-1.62,-1.62,-1.63
240.64,-5.25,-3.62,-5.25,-3.62,3.62,3.28,3.75,-1.63,-1.63,-1.62
243.05,-5.25,-3.61,-5.25,-3.61,3.62,3.26,3.73,-1.63,-1.63,-1.63
245.48,-5.25,-3.60,-5.25,-3.60,3.62,3.24,3.71,-1.63,-1.63,-1.64
247.93,-5.25,-3.59,-5.25,-3.60,3.61,3.22,3.69,-1.64,-1.64,-1.65
250.41,-5.25,-3.60,-5.25,-3.59,3.59,3.20,3.67,-1.65,-1.65,-1.64
252.92,-5.25,-3.59,-5.26,-3.60,3.57,3.18,3.65,-1.68,-1.69,-1.65
255.45,-5.25,-3.58,-5.25,-3.59,3.54,3.17,3.62,-1.71,-1.71,-1.66
258.00,-5.25,-3.58,-5.20,-3.53,3.51,3.15,3.59,-1.74,-1.69,-1.66
260.58,-5.11,-3.44,-5.13,-3.46,3.48,3.13,3.56,-1.63,-1.65,-1.66
263.19,-5.03,-3.36,-5.06,-3.39,3.44,3.11,3.53,-1.58,-1.61,-1.66
265.82,-5.02,-3.35,-5.01,-3.35,3.40,3.09,3.49,-1.62,-1.61,-1.66
268.48,-5.02,-3.35,-5.02,-3.36,3.35,3.08,3.46,-1.67,-1.67,-1.66
271.16,-5.02,-3.36,-5.02,-3.36,3.31,3.06,3.42,-1.71,-1.71,-1.65
273.87,-5.02,-3.36,-4.97,-3.31,3.27,3.04,3.38,-1.74,-1.70,-1.65
276.61,-4.89,-3.23,-4.90,-3.25,3.25,3.02,3.34,-1.64,-1.65,-1.65
279.38,-4.81,-3.14,-4.84,-3.18,3.22,3.01,3.30,-1.58,-1.61,-1.66
282.17,-4.80,-3.14,-4.79,-3.14,3.19,2.99,3.26,-1.61,-1.60,-1.65
284.99,-4.80,-3.15,-4.80,-3.15,3.15,2.97,3.22,-1.65,-1.65,-1.64
287.84,-4.80,-3.16,-4.80,-3.16,3.11,2.95,3.18,-1.69,-1.69,-1.63
290.72,-4.80,-3.16,-4.76,-3.13,3.08,2.94,3.14,-1.72,-1.68,-1.63
293.63,-4.69,-3.06,-4.69,-3.06,3.06,2.92,3.09,-1.63,-1.63,-1.62
296.57,-4.58,-2.96,-4.61,-3.00,3.04,2.90,3.05,-1.54,-1.58,-1.61
299.53,-4.57,-2.95,-4.56,-2.96,3.02,2.89,3.01,-1.55,-1.55,-1.61
302.53,-4.57,-2.97,-4.56,-2.96,2.99,2.87,2.97,-1.58,-1.57,-1.59
305.55,-4.57,-2.97,-4.58,-2.99,2.96,2.85,2.93,-1.61,-1.62,-1.59
308.61,-4.57,-2.98,-4.57,-2.98,2.93,2.83,2.89,-1.64,-1.64,-1.58
311.69,-4.57,-2.98,-4.52,-2.93,2.90,2.81,2.85,-1.67,-1.62,-1.58
314.81,-4.43,-2.85,-4.45,-2.87,2.87,2.79,2.81,-1.55,-1.57,-1.57
317.96,-4.35,-2.77,-4.38,-2.80,2.84,2.77,2.77,-1.51,-1.54,-1.57
321.14,-4.34,-2.77,-4.34,-2.78,2.80,2.75,2.74,-1.53,-1.54,-1.56
324.35,-4.34,-2.77,-4.32,-2.76,2.76,2.73,2.70,-1.58,-1.56,-1.56
327.59,-4.31,-2.77,-4.26,-2.72,2.72,2.71,2.67,-1.59,-1.55,-1.53
330.87,-4.16,-2.62,-4.19,-2.65,2.66,2.68,2.64,-1.49,-1.53,-1.53
334.18,-4.11,-2.57,-4.14,-2.62,2.61,2.66,2.61,-1.50,-1.53,-1.53
337.52,-4.11,-2.58,-4.10,-2.57,2.55,2.63,2.58,-1.55,-1.54,-1.52
340.90,-4.11,-2.60,-4.05,-2.54,2.49,2.60,2.55,-1.61,-1.56,-1.50
344.30,-3.93,-2.43,-3.95,-2.45,2.43,2.57,2.52,-1.50,-1.52,-1.49
347.75,-3.82,-2.33,-3.82,-2.33,2.36,2.54,2.50,-1.45,-1.46,-1.48
351.23,-3.70,-2.21,-3.71,-2.24,2.30,2.50,2.47,-1.40,-1.42,-1.48
354.74,-3.66,-2.20,-3.68,-2.22,2.23,2.45,2.45,-1.42,-1.45,-1.45
358.28,-3.66,-2.20,-3.64,-2.19,2.18,2.41,2.43,-1.48,-1.47,-1.45
361.87,-3.66,-2.21,-3.59,-2.15,2.13,2.35,2.41,-1.53,-1.46,-1.44
365.49,-3.49,-2.05,-3.53,-2.09,2.09,2.29,2.39,-1.39,-1.43,-1.43
369.14,-3.44,-2.01,-3.46,-2.03,2.07,2.23,2.38,-1.37,-1.39,-1.42
372.83,-3.43,-2.01,-3.42,-2.00,2.04,2.15,2.36,-1.39,-1.38,-1.41
376.56,-3.43,-2.01,-3.44,-2.03,2.01,2.07,2.35,-1.42,-1.43,-1.41
380.33,-3.43,-2.02,-3.42,-2.02,1.98,1.98,2.34,-1.45,-1.45,-1.40
384.13,-3.43,-2.03,-3.37,-1.98,1.94,1.90,2.33,-1.48,-1.43,-1.39
