frequency,raw,error,smoothed,error_smoothed,equalization,parametric_eq,fixed_band_eq,equalized_raw,equalized_smoothed,target
20.00,4.55,-4.66,4.57,-4.65,4.65,3.25,1.83,9.20,9.22,9.21
20.20,4.59,-4.61,4.60,-4.61,4.61,3.31,1.89,9.20,9.21,9.20
20.40,4.63,-4.56,4.62,-4.57,4.57,3.37,1.94,9.20,9.20,9.19
20.61,4.67,-4.52,4.65,-4.54,4.54,3.44,2.00,9.21,9.19,9.19
20.81,4.70,-4.47,4.67,-4.51,4.51,3.50,2.06,9.21,9.18,9.17
21.02,4.74,-4.43,4.70,-4.47,4.47,3.56,2.12,9.21,9.17,9.17
21.23,4.74,-4.42,4.72,-4.44,4.44,3.62,2.19,9.18,9.16,9.16
21.44,4.74,-4.43,4.74,-4.41,4.41,3.68,2.25,9.15,9.16,9.17
21.66,4.74,-4.42,4.76,-4.39,4.39,3.74,2.32,9.13,9.15,9.16
21.87,4.74,-4.41,4.78,-4.36,4.36,3.80,2.39,9.10,9.14,9.15
22.09,4.75,-4.39,4.80,-4.34,4.34,3.85,2.46,9.09,9.14,9.14
22.31,4.77,-4.37,4.82,-4.31,4.31,3.91,2.54,9.08,9.13,9.14
22.54,4.79,-4.34,4.84,-4.28,4.28,3.97,2.61,9.07,9.13,9.13
22.76,4.82,-4.30,4.86,-4.26,4.26,4.02,2.69,9.08,9.12,9.12
22.99,4.84,-4.27,4.88,-4.24,4.24,4.08,2.77,9.08,9.12,9.11
23.22,4.89,-4.21,4.89,-4.23,4.23,4.13,2.85,9.12,9.12,9.10
23.45,4.95,-4.16,4.90,-4.21,4.21,4.18,2.94,9.16,9.11,9.11
23.69,5.00,-4.10,4.91,-4.20,4.20,4.23,3.02,9.20,9.11,9.10
23.92,5.05,-4.05,4.93,-4.18,4.18,4.27,3.11,9.23,9.11,9.10
24.16,5.03,-4.08,4.94,-4.17,4.17,4.32,3.19,9.20,9.11,9.11
24.40,4.98,-4.14,4.96,-4.15,4.15,4.36,3.28,9.13,9.11,9.12
24.65,4.92,-4.20,4.97,-4.15,4.15,4.40,3.37,9.07,9.11,9.12
24.89,4.86,-4.26,4.97,-4.14,4.14,4.43,3.47,9.00,9.11,9.12
25.14,4.87,-4.24,4.98,-4.13,4.13,4.47,3.56,9.01,9.11,9.11
25.39,4.92,-4.19,4.98,-4.13,4.13,4.50,3.65,9.05,9.12,9.11
25.65,4.97,-4.14,4.99,-4.13,4.13,4.53,3.74,9.10,9.12,9.11
25.91,5.02,-4.10,4.99,-4.13,4.13,4.55,3.84,9.15,9.12,9.12
26.16,5.04,-4.09,4.99,-4.13,4.13,4.57,3.93,9.17,9.12,9.13
26.43,5.04,-4.09,5.00,-4.13,4.13,4.59,4.02,9.17,9.12,9.13
26.69,5.04,-4.09,5.01,-4.12,4.12,4.60,4.11,9.16,9.12,9.13
26.96,5.04,-4.08,5.02,-4.11,4.11,4.61,4.20,9.15,9.12,9.12
27.23,5.04,-4.08,5.03,-4.09,4.09,4.61,4.29,9.13,9.12,9.12
27.50,5.04,-4.08,5.04,-4.08,4.08,4.61,4.38,9.12,9.12,9.12
27.77,5.04,-4.09,5.05,-4.08,4.08,4.61,4.46,9.12,9.12,9.13
28.05,5.04,-4.09,5.05,-4.08,4.08,4.60,4.54,9.12,9.12,9.13
28.33,5.04,-4.07,5.05,-4.08,4.08,4.59,4.61,9.12,9.12,9.11
28.62,5.04,-4.07,5.05,-4.07,4.07,4.58,4.68,9.11,9.12,9.11
28.90,5.04,-4.08,5.05,-4.07,4.07,4.56,4.74,9.11,9.12,9.12
29.19,5.05,-4.07,5.06,-4.06,4.06,4.54,4.80,9.11,9.12,9.12
29.48,5.05,-4.06,5.07,-4.05,4.05,4.52,4.86,9.10,9.11,9.11
29.78,5.06,-4.05,5.08,-4.03,4.03,4.49,4.90,9.09,9.11,9.11
30.08,5.08,-4.04,5.09,-4.02,4.02,4.46,4.94,9.10,9.11,9.12
30.38,5.10,-4.01,5.10,-4.00,4.00,4.42,4.97,9.10,9.10,9.11
30.68,5.12,-3.97,5.11,-3.99,3.99,4.38,5.00,9.11,9.09,9.09
30.99,5.14,-3.95,5.11,-3.97,3.97,4.34,5.01,9.11,9.09,9.09
31.30,5.14,-3.94,5.12,-3.96,3.96,4.30,5.02,9.10,9.08,9.08
31.61,5.14,-3.93,5.13,-3.94,3.94,4.25,5.02,9.08,9.07,9.07
31.93,5.14,-3.92,5.14,-3.93,3.93,4.20,5.01,9.07,9.07,9.06
32.24,5.14,-3.92,5.15,-3.91,3.91,4.15,5.00,9.05,9.06,9.06
32.57,5.14,-3.90,5.15,-3.91,3.91,4.10,4.98,9.05,9.05,9.04
32.89,5.14,-3.90,5.14,-3.91,3.91,4.05,4.95,9.05,9.05,9.04
33.22,5.14,-3.90,5.13,-3.91,3.91,3.99,4.91,9.05,9.04,9.04
33.55,5.14,-3.89,5.13,-3.91,3.91,3.93,4.87,9.05,9.04,9.03
33.89,5.14,-3.90,5.12,-3.91,3.91,3.87,4.82,9.05,9.03,9.04
34.23,5.14,-3.88,5.12,-3.91,3.91,3.81,4.76,9.05,9.03,9.02
34.57,5.14,-3.88,5.12,-3.90,3.90,3.75,4.71,9.04,9.02,9.02
34.92,5.14,-3.87,5.12,-3.89,3.89,3.69,4.64,9.03,9.02,9.01
35.27,5.11,-3.91,5.13,-3.88,3.88,3.62,4.57,8.99,9.01,9.02
35.62,5.07,-3.93,5.14,-3.86,3.86,3.56,4.50,8.94,9.00,9.00
35.97,5.03,-3.97,5.15,-3.85,3.85,3.49,4.43,8.88,8.99,9.00
36.33,5.10,-3.88,5.16,-3.82,3.82,3.43,4.36,8.92,8.98,8.98
36.70,5.18,-3.79,5.17,-3.80,3.80,3.37,4.28,8.98,8.96,8.97
37.06,5.24,-3.71,5.18,-3.77,3.77,3.30,4.20,9.01,8.94,8.95
37.43,5.24,-3.69,5.19,-3.74,3.74,3.23,4.12,8.98,8.93,8.93
37.81,5.24,-3.67,5.20,-3.70,3.70,3.17,4.04,8.94,8.90,8.91
38.19,5.24,-3.64,5.21,-3.67,3.67,3.10,3.96,8.91,8.88,8.88
38.57,5.24,-3.62,5.23,-3.63,3.63,3.04,3.88,8.87,8.86,8.86
38.95,5.24,-3.59,5.24,-3.59,3.59,2.98,3.80,8.83,8.83,8.83
39.34,5.24,-3.55,5.25,-3.56,3.56,2.91,3.72,8.80,8.80,8.79
39.74,5.24,-3.53,5.25,-3.52,3.52,2.85,3.65,8.76,8.78,8.77
40.14,5.24,-3.50,5.25,-3.49,3.49,2.78,3.57,8.73,8.75,8.74
40.54,5.24,-3.48,5.25,-3.47,3.47,2.72,3.50,8.71,8.72,8.72
40.94,5.24,-3.45,5.24,-3.45,3.45,2.66,3.43,8.69,8.69,8.69
41.35,5.24,-3.43,5.24,-3.43,3.43,2.60,3.36,8.67,8.67,8.67
41.76,5.24,-3.39,5.24,-3.40,3.40,2.54,3.29,8.64,8.64,8.63
42.18,5.24,-3.37,5.24,-3.37,3.37,2.48,3.22,8.61,8.61,8.61
42.60,5.24,-3.35,5.24,-3.35,3.35,2.42,3.16,8.59,8.59,8.59
43.03,5.24,-3.32,5.24,-3.32,3.32,2.36,3.09,8.56,8.56,8.56
43.46,5.24,-3.29,5.24,-3.29,3.29,2.30,3.03,8.53,8.53,8.53
43.90,5.24,-3.27,5.24,-3.27,3.27,2.25,2.98,8.51,8.51,8.51
44.33,5.24,-3.23,5.24,-3.24,3.24,2.19,2.92,8.48,8.48,8.47
44.78,5.24,-3.20,5.24,-3.21,3.21,2.13,2.87,8.45,8.45,8.44
45.23,5.24,-3.19,5.24,-3.17,3.17,2.08,2.82,8.41,8.41,8.43
45.68,5.24,-3.14,5.24,-3.14,3.14,2.03,2.77,8.38,8.38,8.38
46.13,5.24,-3.10,5.24,-3.10,3.10,1.97,2.72,8.34,8.34,8.34
46.60,5.24,-3.07,5.24,-3.07,3.07,1.92,2.68,8.31,8.31,8.31
47.06,5.24,-3.03,5.24,-3.02,3.02,1.87,2.64,8.26,8.26,8.27
47.53,5.24,-3.00,5.24,-2.98,2.98,1.82,2.60,8.22,8.22,8.24
48.01,5.24,-2.94,5.24,-2.94,2.94,1.77,2.56,8.18,8.18,8.18
48.49,5.24,-2.89,5.24,-2.90,2.90,1.72,2.52,8.14,8.14,8.13
48.97,5.24,-2.85,5.24,-2.85,2.85,1.67,2.49,8.09,8.09,8.09
49.46,5.24,-2.81,5.24,-2.81,2.81,1.63,2.45,8.05,8.05,8.05
49.96,5.24,-2.74,5.24,-2.76,2.76,1.58,2.42,8.00,8.00,7.98
50.46,5.24,-2.70,5.24,-2.71,2.71,1.53,2.39,7.95,7.95,7.94
50.96,5.24,-2.66,5.24,-2.67,2.67,1.49,2.36,7.91,7.91,7.90
51.47,5.24,-2.62,5.24,-2.62,2.62,1.44,2.34,7.86,7.86,7.86
51.99,5.24,-2.57,5.24,-2.57,2.57,1.40,2.31,7.81,7.81,7.81
52.51,5.24,-2.53,5.24,-2.53,2.53,1.36,2.28,7.77,7.77,7.77
53.03,5.24,-2.50,5.24,-2.48,2.48,1.32,2.26,7.72,7.72,7.74
53.56,5.24,-2.44,5.24,-2.43,2.43,1.27,2.24,7.67,7.67,7.68
54.10,5.24,-2.39,5.24,-2.39,2.39,1.23,2.21,7.63,7.63,7.63
54.64,5.24,-2.35,5.24,-2.35,2.35,1.19,2.19,7.59,7.59,7.59
55.18,5.24,-2.29,5.24,-2.30,2.30,1.15,2.17,7.54,7.54,7.53
55.74,5.24,-2.24,5.24,-2.26,2.26,1.11,2.14,7.50,7.50,7.48
56.29,5.24,-2.21,5.24,-2.22,2.22,1.08,2.12,7.46,7.46,7.45
56.86,5.24,-2.17,5.24,-2.18,2.18,1.04,2.09,7.42,7.42,7.41
57.42,5.24,-2.11,5.24,-2.13,2.13,1.00,2.07,7.37,7.37,7.35
58.00,5.24,-2.08,5.24,-2.08,2.08,0.96,2.04,7.32,7.32,7.32
58.58,5.24,-2.05,5.24,-2.04,2.04,0.93,2.02,7.28,7.28,7.29
59.16,5.24,-2.01,5.24,-1.99,1.99,0.89,1.99,7.23,7.23,7.25
59.76,5.24,-1.97,5.24,-1.94,1.94,0.86,1.96,7.18,7.18,7.21
60.35,5.24,-1.90,5.24,-1.89,1.89,0.82,1.93,7.13,7.13,7.14
60.96,5.24,-1.85,5.24,-1.83,1.83,0.79,1.90,7.07,7.07,7.09
61.57,5.24,-1.78,5.24,-1.78,1.78,0.75,1.86,7.02,7.02,7.02
62.18,5.24,-1.71,5.24,-1.73,1.73,0.72,1.83,6.97,6.96,6.95
62.80,5.24,-1.65,5.23,-1.67,1.67,0.68,1.79,6.91,6.91,6.89
63.43,5.24,-1.59,5.24,-1.61,1.61,0.65,1.75,6.85,6.85,6.83
64.07,5.24,-1.54,5.25,-1.54,1.54,0.62,1.71,6.78,6.79,6.78
64.71,5.24,-1.48,5.25,-1.47,1.47,0.59,1.67,6.71,6.73,6.72
65.35,5.24,-1.42,5.25,-1.41,1.41,0.56,1.62,6.65,6.67,6.66
66.01,5.24,-1.36,5.25,-1.35,1.35,0.52,1.58,6.59,6.60,6.60
66.67,5.24,-1.32,5.25,-1.29,1.29,0.49,1.53,6.53,6.54,6.56
67.33,5.24,-1.24,5.25,-1.24,1.24,0.46,1.48,6.48,6.48,6.48
68.01,5.24,-1.19,5.24,-1.18,1.18,0.43,1.43,6.42,6.42,6.43
68.69,5.25,-1.11,5.23,-1.13,1.13,0.40,1.37,6.38,6.36,6.36
69.37,5.29,-1.02,5.22,-1.07,1.07,0.37,1.32,6.37,6.30,6.31
70.07,5.34,-0.90,5.22,-1.02,1.02,0.34,1.26,6.36,6.24,6.24
70.77,5.19,-0.99,5.21,-0.97,0.97,0.31,1.20,6.16,6.17,6.18
71.48,5.14,-0.97,5.20,-0.91,0.91,0.28,1.15,6.05,6.11,6.11
72.19,5.14,-0.90,5.20,-0.85,0.85,0.25,1.09,5.99,6.05,6.04
72.91,5.14,-0.84,5.18,-0.80,0.80,0.22,1.03,5.94,5.98,5.98
73.64,5.14,-0.77,5.17,-0.75,0.75,0.19,0.97,5.89,5.92,5.91
74.38,5.14,-0.71,5.15,-0.70,0.70,0.16,0.91,5.84,5.86,5.85
75.12,5.14,-0.64,5.14,-0.66,0.66,0.13,0.84,5.80,5.80,5.78
75.87,5.14,-0.60,5.12,-0.62,0.62,0.11,0.78,5.76,5.74,5.74
76.63,5.14,-0.53,5.10,-0.58,0.58,0.08,0.72,5.72,5.68,5.67
77.40,5.14,-0.48,5.09,-0.53,0.53,0.05,0.65,5.67,5.62,5.62
78.17,5.14,-0.42,5.08,-0.49,0.49,0.02,0.59,5.63,5.57,5.56
78.95,5.14,-0.38,5.08,-0.43,0.43,-0.01,0.53,5.57,5.51,5.52
79.74,4.98,-0.48,5.07,-0.39,0.39,-0.04,0.46,5.37,5.46,5.46
80.54,4.98,-0.42,5.05,-0.35,0.35,-0.07,0.40,5.33,5.40,5.40
81.35,5.03,-0.32,5.05,-0.29,0.29,-0.09,0.33,5.32,5.35,5.35
82.16,5.04,-0.26,5.05,-0.24,0.24,-0.12,0.27,5.28,5.29,5.30
82.98,5.04,-0.20,5.05,-0.18,0.18,-0.15,0.20,5.22,5.23,5.24
83.81,5.04,-0.14,5.05,-0.13,0.13,-0.18,0.14,5.17,5.18,5.18
84.65,5.04,-0.08,5.05,-0.07,0.07,-0.21,0.07,5.11,5.12,5.12
85.50,5.04,-0.01,5.05,-0.01,0.01,-0.24,0.01,5.05,5.06,5.05
86.35,5.04,0.05,5.05,0.05,-0.05,-0.27,-0.06,4.99,5.00,4.99
87.22,5.04,0.10,5.05,0.11,-0.11,-0.30,-0.12,4.93,4.94,4.94
88.09,5.05,0.18,5.06,0.18,-0.18,-0.32,-0.19,4.87,4.88,4.87
88.97,5.16,0.34,5.05,0.24,-0.24,-0.35,-0.25,4.92,4.81,4.82
89.86,5.17,0.43,5.04,0.29,-0.29,-0.38,-0.32,4.88,4.75,4.74
90.76,5.00,0.32,5.02,0.34,-0.34,-0.41,-0.39,4.66,4.68,4.68
91.66,4.95,0.34,5.00,0.39,-0.39,-0.44,-0.45,4.56,4.61,4.61
92.58,4.95,0.40,4.98,0.43,-0.43,-0.47,-0.52,4.52,4.54,4.55
93.51,4.95,0.47,4.95,0.48,-0.48,-0.50,-0.59,4.47,4.47,4.48
94.44,4.95,0.54,4.93,0.53,-0.53,-0.53,-0.65,4.42,4.40,4.41
95.39,4.95,0.62,4.91,0.59,-0.59,-0.56,-0.72,4.36,4.32,4.33
96.34,4.89,0.64,4.89,0.65,-0.65,-0.60,-0.79,4.24,4.24,4.25
97.30,4.77,0.60,4.87,0.70,-0.70,-0.63,-0.86,4.07,4.17,4.17
98.28,4.75,0.67,4.84,0.76,-0.76,-0.66,-0.92,3.99,4.09,4.08
99.26,4.81,0.82,4.82,0.82,-0.82,-0.69,-0.99,3.99,4.00,3.99
100.25,4.80,0.89,4.81,0.89,-0.89,-0.72,-1.06,3.91,3.92,3.91
101.25,4.78,0.94,4.79,0.95,-0.95,-0.75,-1.13,3.83,3.84,3.84
102.27,4.77,1.02,4.76,1.01,-1.01,-0.79,-1.19,3.76,3.76,3.75
103.29,4.78,1.11,4.73,1.05,-1.05,-0.82,-1.26,3.73,3.67,3.67
104.32,4.81,1.21,4.69,1.10,-1.10,-0.85,-1.32,3.71,3.59,3.60
105.37,4.78,1.26,4.65,1.14,-1.14,-0.89,-1.39,3.64,3.51,3.52
106.42,4.63,1.20,4.61,1.18,-1.18,-0.92,-1.45,3.45,3.43,3.43
107.48,4.56,1.22,4.57,1.22,-1.22,-0.95,-1.52,3.34,3.35,3.34
108.56,4.54,1.26,4.54,1.27,-1.27,-0.99,-1.58,3.27,3.27,3.28
109.64,4.52,1.33,4.51,1.31,-1.31,-1.03,-1.64,3.21,3.19,3.19
110.74,4.40,1.29,4.47,1.36,-1.36,-1.06,-1.70,3.04,3.12,3.11
111.85,4.28,1.24,4.44,1.40,-1.40,-1.10,-1.76,2.88,3.04,3.04
112.97,4.34,1.37,4.42,1.46,-1.46,-1.13,-1.82,2.88,2.97,2.97
114.10,4.36,1.46,4.40,1.51,-1.51,-1.17,-1.87,2.85,2.89,2.90
115.24,4.36,1.54,4.38,1.56,-1.56,-1.21,-1.92,2.80,2.82,2.82
116.39,4.36,1.62,4.36,1.61,-1.61,-1.25,-1.97,2.75,2.75,2.74
117.55,4.37,1.69,4.35,1.66,-1.66,-1.28,-2.02,2.71,2.68,2.68
118.73,4.40,1.80,4.34,1.72,-1.72,-1.32,-2.07,2.68,2.62,2.60
119.92,4.49,1.95,4.33,1.78,-1.78,-1.36,-2.11,2.71,2.55,2.54
121.12,4.42,1.93,4.32,1.83,-1.83,-1.40,-2.15,2.59,2.49,2.49
122.33,4.34,1.92,4.31,1.89,-1.89,-1.44,-2.19,2.45,2.42,2.42
123.55,4.30,1.93,4.32,1.96,-1.96,-1.48,-2.22,2.34,2.36,2.37
124.79,4.31,2.00,4.32,2.02,-2.02,-1.53,-2.25,2.29,2.30,2.31
126.03,4.15,1.91,4.30,2.06,-2.06,-1.57,-2.28,2.09,2.24,2.24
127.29,4.17,1.99,4.28,2.10,-2.10,-1.61,-2.31,2.07,2.18,2.18
128.57,4.21,2.09,4.25,2.14,-2.14,-1.65,-2.33,2.07,2.12,2.12
129.85,4.23,2.18,4.23,2.17,-2.17,-1.70,-2.35,2.06,2.06,2.05
131.15,4.24,2.25,4.20,2.21,-2.21,-1.74,-2.37,2.03,2.00,1.99
132.46,4.24,2.31,4.18,2.24,-2.24,-1.79,-2.38,2.00,1.94,1.93
133.79,4.25,2.38,4.16,2.28,-2.28,-1.83,-2.40,1.97,1.88,1.87
135.12,4.29,2.48,4.15,2.34,-2.34,-1.88,-2.41,1.95,1.82,1.81
136.48,4.20,2.43,4.15,2.39,-2.39,-1.92,-2.42,1.81,1.76,1.77
137.84,3.98,2.27,4.14,2.44,-2.44,-1.97,-2.42,1.54,1.70,1.71
139.22,4.02,2.39,4.13,2.49,-2.49,-2.02,-2.43,1.53,1.64,1.63
140.61,4.06,2.47,4.11,2.53,-2.53,-2.07,-2.43,1.53,1.58,1.59
142.02,4.06,2.53,4.08,2.56,-2.56,-2.11,-2.44,1.50,1.53,1.53
143.44,4.06,2.60,4.05,2.58,-2.58,-2.16,-2.44,1.48,1.47,1.46
144.87,4.06,2.65,4.03,2.61,-2.61,-2.21,-2.44,1.45,1.42,1.41
146.32,4.06,2.70,4.01,2.65,-2.65,-2.26,-2.45,1.41,1.36,1.36
147.78,4.08,2.78,3.99,2.69,-2.69,-2.31,-2.45,1.39,1.30,1.30
149.26,4.08,2.83,3.97,2.72,-2.72,-2.36,-2.45,1.36,1.25,1.25
150.75,3.90,2.72,3.95,2.76,-2.76,-2.41,-2.46,1.14,1.19,1.18
152.26,3.83,2.69,3.93,2.80,-2.80,-2.46,-2.46,1.03,1.13,1.14
153.78,3.85,2.77,3.92,2.84,-2.84,-2.51,-2.47,1.01,1.08,1.08
155.32,3.86,2.83,3.88,2.86,-2.86,-2.56,-2.47,1.00,1.02,1.03
156.88,3.86,2.89,3.85,2.88,-2.88,-2.61,-2.48,0.98,0.96,0.97
158.44,3.86,2.95,3.82,2.92,-2.92,-2.67,-2.49,0.94,0.91,0.91
160.03,3.86,3.01,3.80,2.95,-2.95,-2.72,-2.50,0.91,0.85,0.85
161.63,3.79,3.00,3.77,2.98,-2.98,-2.77,-2.51,0.81,0.79,0.79
163.24,3.74,3.02,3.74,3.01,-3.01,-2.82,-2.52,0.73,0.73,0.72
164.88,3.66,2.99,3.71,3.04,-3.04,-2.87,-2.54,0.62,0.67,0.67
166.53,3.65,3.05,3.69,3.08,-3.08,-2.92,-2.56,0.57,0.61,0.60
168.19,3.64,3.09,3.67,3.13,-3.13,-2.97,-2.58,0.51,0.55,0.55
169.87,3.64,3.15,3.64,3.15,-3.15,-3.02,-2.60,0.49,0.49,0.49
171.57,3.63,3.21,3.60,3.17,-3.17,-3.07,-2.62,0.46,0.43,0.42
173.29,3.62,3.26,3.56,3.20,-3.20,-3.12,-2.64,0.42,0.37,0.36
175.02,3.60,3.29,3.54,3.23,-3.23,-3.17,-2.67,0.37,0.31,0.31
176.77,3.52,3.26,3.51,3.25,-3.25,-3.22,-2.70,0.27,0.26,0.26
178.54,3.45,3.25,3.49,3.28,-3.28,-3.26,-2.73,0.17,0.20,0.20
180.32,3.42,3.28,3.47,3.32,-3.32,-3.31,-2.77,0.10,0.15,0.14
182.13,3.42,3.32,3.46,3.36,-3.36,-3.36,-2.80,0.06,0.10,0.10
183.95,3.43,3.38,3.44,3.38,-3.38,-3.40,-2.84,0.05,0.05,0.05
185.79,3.43,3.43,3.41,3.41,-3.41,-3.44,-2.88,0.02,0.00,0.00
187.65,3.26,3.30,3.40,3.45,-3.45,-3.48,-2.92,-0.19,-0.04,-0.04
189.52,3.39,3.48,3.39,3.48,-3.48,-3.52,-2.97,-0.09,-0.09,-0.09
191.42,3.50,3.62,3.37,3.50,-3.50,-3.56,-3.01,-0.00,-0.13,-0.12
193.33,3.38,3.55,3.35,3.52,-3.52,-3.60,-3.06,-0.14,-0.17,-0.17
195.27,3.31,3.53,3.32,3.53,-3.53,-3.63,-3.11,-0.22,-0.22,-0.22
197.22,3.33,3.60,3.30,3.56,-3.56,-3.66,-3.16,-0.23,-0.26,-0.27
199.19,3.34,3.64,3.28,3.58,-3.58,-3.69,-3.21,-0.24,-0.30,-0.30
201.18,3.21,3.56,3.27,3.61,-3.61,-3.72,-3.27,-0.40,-0.34,-0.35
203.19,3.22,3.60,3.25,3.63,-3.63,-3.75,-3.32,-0.41,-0.38,-0.38
205.23,3.30,3.72,3.21,3.63,-3.63,-3.77,-3.38,-0.33,-0.42,-0.42
207.28,3.21,3.66,3.17,3.63,-3.63,-3.80,-3.43,-0.42,-0.46,-0.45
209.35,3.04,3.53,3.13,3.63,-3.63,-3.82,-3.49,-0.59,-0.50,-0.49
211.44,2.93,3.47,3.08,3.62,-3.62,-3.83,-3.54,-0.69,-0.54,-0.54
213.56,3.01,3.58,3.05,3.63,-3.63,-3.85,-3.60,-0.62,-0.57,-0.57
215.69,3.09,3.70,3.03,3.64,-3.64,-3.86,-3.65,-0.55,-0.61,-0.61
217.85,3.17,3.81,2.99,3.64,-3.64,-3.87,-3.70,-0.47,-0.64,-0.64
220.03,3.01,3.70,2.95,3.62,-3.62,-3.87,-3.75,-0.61,-0.68,-0.69
222.23,2.93,3.64,2.91,3.62,-3.62,-3.88,-3.80,-0.69,-0.71,-0.71
224.45,2.76,3.50,2.89,3.63,-3.63,-3.88,-3.85,-0.87,-0.73,-0.74
226.70,2.69,3.46,2.86,3.62,-3.62,-3.88,-3.89,-0.93,-0.76,-0.77
228.96,2.82,3.61,2.83,3.61,-3.61,-3.87,-3.93,-0.79,-0.78,-0.79
231.25,2.94,3.74,2.80,3.61,-3.61,-3.87,-3.96,-0.67,-0.80,-0.80
233.57,2.89,3.72,2.78,3.60,-3.60,-3.86,-4.00,-0.71,-0.82,-0.83
235.90,2.77,3.61,2.76,3.59,-3.59,-3.84,-4.02,-0.82,-0.83,-0.84
238.26,2.59,3.45,2.73,3.57,-3.57,-3.83,-4.04,-0.98,-0.85,-0.86
240.64,2.59,3.44,2.70,3.56,-3.56,-3.81,-4.06,-0.97,-0.86,-0.85
243.05,2.68,3.54,2.69,3.55,-3.55,-3.79,-4.07,-0.87,-0.87,-0.86
245.48,2.82,3.70,2.68,3.56,-3.56,-3.77,-4.08,-0.74,-0.87,-0.88
247.93,2.73,3.62,2.66,3.54,-3.54,-3.74,-4.08,-0.81,-0.88,-0.89
250.41,2.51,3.39,2.64,3.53,-3.53,-3.72,-4.07,-1.02,-0.89,-0.88
252.92,2.58,3.46,2.61,3.51,-3.51,-3.69,-4.06,-0.93,-0.89,-0.88
255.45,2.60,3.50,2.58,3.48,-3.48,-3.66,-4.04,-0.88,-0.90,-0.90
258.00,2.61,3.52,2.55,3.46,-3.46,-3.63,-4.01,-0.85,-0.91,-0.91
260.58,2.58,3.50,2.51,3.43,-3.43,-3.59,-3.98,-0.85,-0.92,-0.92
263.19,2.53,3.46,2.47,3.41,-3.41,-3.55,-3.95,-0.88,-0.94,-0.93
265.82,2.44,3.39,2.44,3.39,-3.39,-3.52,-3.91,-0.95,-0.95,-0.95
268.48,2.41,3.36,2.41,3.37,-3.37,-3.48,-3.86,-0.96,-0.96,-0.95
271.16,2.32,3.29,2.36,3.33,-3.33,-3.44,-3.81,-1.01,-0.97,-0.97
273.87,2.18,3.16,2.31,3.29,-3.29,-3.39,-3.75,-1.11,-0.98,-0.98
276.61,2.37,3.37,2.28,3.28,-3.28,-3.35,-3.70,-0.91,-1.00,-1.00
279.38,2.30,3.33,2.26,3.26,-3.26,-3.31,-3.63,-0.96,-1.01,-1.03
282.17,2.18,3.21,2.22,3.23,-3.23,-3.26,-3.57,-1.05,-1.02,-1.03
284.99,2.01,3.04,2.17,3.20,-3.20,-3.22,-3.50,-1.19,-1.02,-1.03
287.84,2.01,3.04,2.13,3.16,-3.16,-3.17,-3.43,-1.15,-1.03,-1.03
290.72,2.26,3.31,2.09,3.13,-3.13,-3.12,-3.36,-0.87,-1.04,-1.05
293.63,2.21,3.25,2.06,3.10,-3.10,-3.07,-3.28,-0.89,-1.04,-1.04
296.57,2.07,3.11,2.03,3.08,-3.08,-3.02,-3.21,-1.01,-1.04,-1.04
299.53,1.87,2.92,2.00,3.05,-3.05,-2.98,-3.13,-1.18,-1.05,-1.05
302.53,1.97,3.01,1.98,3.03,-3.03,-2.93,-3.06,-1.06,-1.05,-1.04
305.55,2.08,3.13,1.95,3.00,-3.00,-2.88,-2.98,-0.92,-1.05,-1.05
308.61,1.92,2.96,1.91,2.96,-2.96,-2.83,-2.90,-1.04,-1.05,-1.04
311.69,1.76,2.82,1.88,2.93,-2.93,-2.78,-2.83,-1.17,-1.05,-1.06
314.81,1.70,2.75,1.84,2.90,-2.90,-2.73,-2.75,-1.20,-1.06,-1.05
317.96,1.77,2.84,1.80,2.86,-2.86,-2.68,-2.68,-1.09,-1.06,-1.07
321.14,1.83,2.89,1.75,2.81,-2.81,-2.63,-2.60,-0.98,-1.06,-1.06
324.35,1.83,2.90,1.70,2.76,-2.76,-2.58,-2.53,-0.93,-1.06,-1.07
327.59,1.73,2.79,1.66,2.73,-2.73,-2.53,-2.46,-1.00,-1.07,-1.06
330.87,1.63,2.70,1.63,2.70,-2.70,-2.48,-2.39,-1.07,-1.07,-1.07
334.18,1.57,2.65,1.59,2.66,-2.66,-2.43,-2.32,-1.09,-1.07,-1.08
337.52,1.51,2.58,1.54,2.61,-2.61,-2.38,-2.25,-1.10,-1.07,-1.07
340.90,1.43,2.51,1.50,2.57,-2.57,-2.33,-2.18,-1.14,-1.07,-1.08
344.30,1.40,2.47,1.47,2.54,-2.54,-2.28,-2.12,-1.14,-1.07,-1.07
347.75,1.40,2.46,1.41,2.48,-2.48,-2.24,-2.05,-1.08,-1.07,-1.06
351.23,1.39,2.47,1.35,2.41,-2.41,-2.19,-1.99,-1.02,-1.06,-1.08
354.74,1.33,2.39,1.30,2.36,-2.36,-2.14,-1.93,-1.03,-1.06,-1.06
358.28,1.26,2.32,1.26,2.31,-2.31,-2.09,-1.87,-1.05,-1.06,-1.06
361.87,1.22,2.28,1.21,2.26,-2.26,-2.05,-1.81,-1.04,-1.05,-1.06
365.49,1.21,2.26,1.17,2.21,-2.21,-2.00,-1.76,-1.00,-1.05,-1.05
369.14,1.15,2.19,1.14,2.18,-2.18,-1.96,-1.70,-1.03,-1.04,-1.04
372.83,1.09,2.12,1.10,2.14,-2.14,-1.91,-1.65,-1.05,-1.04,-1.03
376.56,1.05,2.09,1.05,2.09,-2.09,-1.87,-1.60,-1.04,-1.04,-1.04
380.33,0.87,1.91,1.01,2.05,-2.05,-1.83,-1.55,-1.17,-1.04,-1.04
384.13,0.81,1.84,0.96,2.00,-2.00,-1.78,-1.50,-1.19,-1.04,-1.03
387.97,1.02,2.05,0.90,1.95,-1.95,-1.74,-1.45,-0.93,-1.04,-1.03
391.85,1.09,2.13,0.85,1.90,-1.90,-1.70,-1.40,-0.81,-1.05,-1.04
395.77,0.79,1.84,0.80,1.85,-1.85,-1.66,-1.36,-1.06,-1.05,-1.05
399.73,0.62,1.67,0.75,1.80,-1.80,-1.61,-1.32,-1.18,-1.05,-1.05
403.72,0.78,1.82,0.69,1.75,-1.75,-1.57,-1.27,-0.97,-1.06,-1.04
407.76,0.80,1.86,0.64,1.71,-1.71,-1.53,-1.23,-0.91,-1.06,-1.06
411.84,0.49,1.56,0.61,1.68,-1.68,-1.49,-1.19,-1.19,-1.07,-1.07
415.96,0.48,1.55,0.57,1.63,-1.63,-1.45,-1.15,-1.15,-1.07,-1.07
420.12,0.52,1.60,0.51,1.58,-1.58,-1.41,-1.11,-1.06,-1.06,-1.08
424.32,0.46,1.53,0.47,1.53,-1.53,-1.38,-1.08,-1.07,-1.06,-1.07
428.56,0.40,1.45,0.44,1.49,-1.49,-1.34,-1.04,-1.09,-1.04,-1.05
432.85,0.38,1.41,0.41,1.44,-1.44,-1.30,-1.01,-1.06,-1.02,-1.03
437.18,0.40,1.42,0.39,1.39,-1.39,-1.26,-0.97,-0.99,-1.00,-1.02
441.55,0.42,1.41,0.41,1.37,-1.37,-1.23,-0.94,-0.95,-0.97,-0.99
445.96,0.40,1.35,0.42,1.35,-1.35,-1.19,-0.91,-0.95,-0.93,-0.95
450.42,0.41,1.32,0.41,1.30,-1.30,-1.15,-0.87,-0.89,-0.89,-0.91
454.93,0.40,1.26,0.40,1.24,-1.24,-1.12,-0.84,-0.84,-0.84,-0.86
459.48,0.24,1.04,0.41,1.20,-1.20,-1.08,-0.81,-0.96,-0.79,-0.80
464.07,0.37,1.10,0.43,1.16,-1.16,-1.04,-0.78,-0.79,-0.74,-0.73
468.71,0.62,1.30,0.43,1.12,-1.12,-1.01,-0.75,-0.50,-0.68,-0.68
473.40,0.66,1.28,0.44,1.07,-1.07,-0.97,-0.72,-0.41,-0.63,-0.62
478.13,0.35,0.91,0.44,1.01,-1.01,-0.94,-0.70,-0.66,-0.58,-0.56
482.91,0.38,0.89,0.43,0.96,-0.96,-0.90,-0.67,-0.58,-0.53,-0.51
487.74,0.58,1.06,0.42,0.91,-0.91,-0.87,-0.64,-0.33,-0.48,-0.48
492.62,0.34,0.78,0.40,0.84,-0.84,-0.84,-0.62,-0.50,-0.44,-0.44
497.55,0.18,0.58,0.38,0.79,-0.79,-0.80,-0.59,-0.61,-0.41,-0.40
502.52,0.31,0.69,0.37,0.75,-0.75,-0.77,-0.56,-0.44,-0.38,-0.38
507.55,0.46,0.81,0.35,0.71,-0.71,-0.73,-0.54,-0.25,-0.36,-0.35
512.62,0.48,0.82,0.30,0.66,-0.66,-0.70,-0.51,-0.18,-0.35,-0.34
517.75,0.15,0.48,0.23,0.58,-0.58,-0.66,-0.49,-0.43,-0.35,-0.33
522.93,0.12,0.45,0.18,0.53,-0.53,-0.63,-0.46,-0.41,-0.35,-0.33
528.16,0.16,0.51,0.14,0.50,-0.50,-0.59,-0.44,-0.34,-0.36,-0.35
