frequency,raw,error,smoothed,error_smoothed,equalization,parametric_eq,fixed_band_eq,equalized_raw,equalized_smoothed,target
20.00,3.46,-3.01,3.47,-3.03,3.03,2.33,1.53,6.49,6.50,6.47
20.20,3.44,-3.03,3.44,-3.05,3.05,2.36,1.57,6.49,6.49,6.47
20.40,3.41,-3.06,3.41,-3.07,3.07,2.40,1.62,6.48,6.48,6.47
20.61,3.39,-3.08,3.38,-3.09,3.09,2.44,1.66,6.48,6.47,6.47
20.81,3.36,-3.11,3.35,-3.11,3.11,2.47,1.71,6.47,6.46,6.47
21.02,3.33,-3.14,3.33,-3.12,3.12,2.51,1.76,6.45,6.45,6.47
21.23,3.31,-3.14,3.30,-3.14,3.14,2.55,1.81,6.45,6.44,6.45
21.44,3.27,-3.17,3.27,-3.15,3.15,2.58,1.86,6.42,6.42,6.44
21.66,3.24,-3.18,3.25,-3.16,3.16,2.62,1.91,6.40,6.41,6.42
21.87,3.21,-3.19,3.23,-3.17,3.17,2.66,1.97,6.38,6.39,6.40
22.09,3.19,-3.20,3.20,-3.17,3.17,2.70,2.02,6.36,6.38,6.39
22.31,3.17,-3.19,3.18,-3.18,3.18,2.73,2.08,6.35,6.36,6.36
22.54,3.14,-3.20,3.16,-3.18,3.18,2.77,2.14,6.32,6.34,6.34
22.76,3.14,-3.18,3.14,-3.18,3.18,2.81,2.20,6.32,6.32,6.32
22.99,3.12,-3.17,3.12,-3.18,3.18,2.85,2.26,6.30,6.29,6.29
23.22,3.10,-3.16,3.10,-3.17,3.17,2.89,2.32,6.27,6.27,6.26
23.45,3.09,-3.14,3.08,-3.17,3.17,2.92,2.39,6.26,6.25,6.23
23.69,3.07,-3.15,3.06,-3.17,3.17,2.96,2.45,6.24,6.23,6.22
23.92,3.05,-3.15,3.04,-3.16,3.16,3.00,2.52,6.21,6.21,6.20
24.16,3.03,-3.16,3.02,-3.16,3.16,3.04,2.59,6.19,6.19,6.19
24.40,3.00,-3.17,3.00,-3.16,3.16,3.07,2.66,6.16,6.17,6.17
24.65,2.98,-3.17,2.99,-3.16,3.16,3.11,2.73,6.14,6.15,6.15
24.89,2.96,-3.17,2.97,-3.17,3.17,3.15,2.80,6.13,6.13,6.13
25.14,2.94,-3.18,2.94,-3.17,3.17,3.18,2.87,6.11,6.11,6.12
25.39,2.92,-3.18,2.92,-3.18,3.18,3.22,2.94,6.10,6.10,6.10
25.65,2.90,-3.19,2.90,-3.18,3.18,3.26,3.02,6.08,6.08,6.09
25.91,2.88,-3.18,2.87,-3.19,3.19,3.29,3.09,6.07,6.06,6.06
26.16,2.85,-3.19,2.85,-3.20,3.20,3.33,3.16,6.05,6.05,6.04
26.43,2.83,-3.20,2.83,-3.20,3.20,3.36,3.23,6.03,6.03,6.03
26.69,2.81,-3.20,2.80,-3.21,3.21,3.40,3.31,6.02,6.02,6.01
26.96,2.78,-3.22,2.78,-3.22,3.22,3.43,3.38,6.00,6.00,6.00
27.23,2.76,-3.23,2.76,-3.23,3.23,3.46,3.45,5.99,5.98,5.99
27.50,2.72,-3.26,2.73,-3.24,3.24,3.50,3.51,5.96,5.97,5.98
27.77,2.70,-3.26,2.71,-3.25,3.25,3.53,3.58,5.95,5.96,5.96
28.05,2.68,-3.26,2.68,-3.26,3.26,3.56,3.64,5.94,5.94,5.94
28.33,2.65,-3.27,2.65,-3.28,3.28,3.59,3.70,5.93,5.93,5.92
28.62,2.63,-3.28,2.63,-3.29,3.29,3.62,3.76,5.92,5.91,5.91
28.90,2.60,-3.30,2.60,-3.30,3.30,3.65,3.82,5.90,5.90,5.90
29.19,2.56,-3.32,2.57,-3.32,3.32,3.68,3.87,5.88,5.89,5.88
29.48,2.54,-3.34,2.54,-3.34,3.34,3.71,3.92,5.88,5.87,5.88
29.78,2.51,-3.35,2.50,-3.36,3.36,3.74,3.96,5.87,5.86,5.86
30.08,2.48,-3.37,2.47,-3.37,3.37,3.76,4.00,5.85,5.84,5.85
30.38,2.43,-3.40,2.44,-3.39,3.39,3.79,4.04,5.82,5.83,5.83
30.68,2.40,-3.42,2.40,-3.42,3.42,3.81,4.07,5.82,5.81,5.82
30.99,2.37,-3.42,2.36,-3.44,3.44,3.83,4.09,5.81,5.80,5.80
31.30,2.32,-3.46,2.32,-3.46,3.46,3.86,4.11,5.78,5.78,5.78
31.61,2.28,-3.49,2.28,-3.49,3.49,3.88,4.13,5.77,5.76,5.77
31.93,2.23,-3.52,2.23,-3.51,3.51,3.90,4.14,5.74,5.74,5.75
32.24,2.18,-3.54,2.19,-3.53,3.53,3.92,4.15,5.71,5.72,5.71
32.57,2.15,-3.55,2.15,-3.56,3.56,3.94,4.15,5.71,5.70,5.70
32.89,2.10,-3.59,2.10,-3.58,3.58,3.95,4.15,5.68,5.68,5.69
33.22,2.06,-3.60,2.06,-3.61,3.61,3.97,4.14,5.67,5.66,5.66
33.55,2.01,-3.63,2.01,-3.63,3.63,3.98,4.13,5.64,5.64,5.64
33.89,1.96,-3.66,1.97,-3.65,3.65,4.00,4.12,5.61,5.62,5.62
34.23,1.92,-3.68,1.92,-3.67,3.67,4.01,4.11,5.59,5.60,5.60
34.57,1.88,-3.69,1.88,-3.69,3.69,4.02,4.09,5.57,5.58,5.57
34.92,1.84,-3.71,1.84,-3.71,3.71,4.03,4.07,5.55,5.55,5.55
35.27,1.80,-3.74,1.80,-3.73,3.73,4.04,4.05,5.53,5.53,5.54
35.62,1.76,-3.75,1.76,-3.75,3.75,4.05,4.03,5.51,5.51,5.51
35.97,1.72,-3.77,1.72,-3.77,3.77,4.06,4.00,5.49,5.49,5.49
36.33,1.69,-3.78,1.69,-3.78,3.78,4.06,3.98,5.47,5.47,5.47
36.70,1.65,-3.80,1.65,-3.80,3.80,4.07,3.95,5.45,5.45,5.45
37.06,1.62,-3.80,1.61,-3.81,3.81,4.07,3.93,5.43,5.43,5.42
37.43,1.58,-3.83,1.58,-3.83,3.83,4.07,3.90,5.41,5.40,5.41
37.81,1.54,-3.84,1.54,-3.84,3.84,4.07,3.88,5.38,5.38,5.38
38.19,1.51,-3.85,1.51,-3.85,3.85,4.07,3.86,5.36,5.36,5.36
38.57,1.47,-3.87,1.47,-3.87,3.87,4.07,3.83,5.34,5.34,5.34
38.95,1.44,-3.88,1.44,-3.88,3.88,4.07,3.81,5.32,5.32,5.32
39.34,1.41,-3.88,1.41,-3.89,3.89,4.07,3.80,5.30,5.30,5.29
39.74,1.37,-3.90,1.37,-3.91,3.91,4.06,3.78,5.28,5.28,5.27
40.14,1.34,-3.92,1.34,-3.92,3.92,4.06,3.76,5.26,5.26,5.26
40.54,1.30,-3.93,1.31,-3.93,3.93,4.05,3.75,5.23,5.24,5.23
40.94,1.28,-3.94,1.28,-3.94,3.94,4.05,3.74,5.22,5.22,5.22
41.35,1.24,-3.95,1.24,-3.96,3.96,4.04,3.73,5.20,5.20,5.19
41.76,1.22,-3.96,1.21,-3.97,3.97,4.03,3.73,5.19,5.18,5.18
42.18,1.18,-3.99,1.18,-3.98,3.98,4.02,3.73,5.16,5.16,5.17
42.60,1.15,-3.99,1.15,-3.99,3.99,4.01,3.73,5.14,5.14,5.14
43.03,1.12,-4.01,1.12,-4.00,4.00,4.00,3.73,5.12,5.12,5.13
43.46,1.09,-4.01,1.09,-4.01,4.01,3.99,3.74,5.10,5.10,5.10
43.90,1.06,-4.01,1.06,-4.02,4.02,3.98,3.75,5.08,5.08,5.07
44.33,1.03,-4.02,1.03,-4.02,4.02,3.97,3.76,5.05,5.06,5.05
44.78,1.00,-4.03,1.00,-4.03,4.03,3.95,3.77,5.03,5.04,5.03
45.23,0.98,-4.02,0.98,-4.04,4.04,3.94,3.79,5.02,5.02,5.00
45.68,0.94,-4.04,0.95,-4.05,4.05,3.93,3.81,4.99,4.99,4.98
46.13,0.92,-4.04,0.92,-4.05,4.05,3.92,3.84,4.97,4.97,4.96
46.60,0.90,-4.05,0.89,-4.06,4.06,3.90,3.86,4.96,4.95,4.95
47.06,0.87,-4.06,0.87,-4.06,4.06,3.89,3.89,4.93,4.93,4.93
47.53,0.84,-4.07,0.84,-4.06,4.06,3.88,3.93,4.90,4.90,4.91
48.01,0.82,-4.08,0.82,-4.06,4.06,3.86,3.96,4.88,4.88,4.90
48.49,0.79,-4.08,0.79,-4.07,4.07,3.85,4.00,4.86,4.86,4.87
48.97,0.76,-4.07,0.76,-4.07,4.07,3.84,4.04,4.83,4.83,4.83
49.46,0.74,-4.06,0.74,-4.07,4.07,3.82,4.08,4.81,4.81,4.80
49.96,0.71,-4.06,0.72,-4.07,4.07,3.81,4.12,4.78,4.78,4.77
50.46,0.69,-4.07,0.69,-4.07,4.07,3.80,4.16,4.76,4.76,4.76
50.96,0.67,-4.07,0.67,-4.07,4.07,3.79,4.21,4.74,4.73,4.74
51.47,0.64,-4.06,0.64,-4.06,4.06,3.78,4.26,4.70,4.71,4.70
51.99,0.62,-4.05,0.62,-4.06,4.06,3.77,4.31,4.68,4.68,4.67
52.51,0.59,-4.07,0.59,-4.06,4.06,3.76,4.36,4.65,4.65,4.66
53.03,0.57,-4.06,0.57,-4.06,4.06,3.75,4.40,4.63,4.63,4.63
53.56,0.55,-4.05,0.55,-4.05,4.05,3.74,4.45,4.60,4.60,4.60
54.10,0.53,-4.04,0.52,-4.05,4.05,3.73,4.50,4.58,4.57,4.58
54.64,0.50,-4.05,0.50,-4.04,4.04,3.73,4.55,4.54,4.55,4.55
55.18,0.47,-4.05,0.48,-4.04,4.04,3.72,4.60,4.51,4.52,4.52
55.74,0.45,-4.04,0.45,-4.04,4.04,3.72,4.64,4.49,4.49,4.49
56.29,0.43,-4.04,0.43,-4.03,4.03,3.72,4.68,4.46,4.46,4.47
56.86,0.41,-4.02,0.41,-4.03,4.03,3.71,4.72,4.44,4.44,4.43
57.42,0.38,-4.02,0.38,-4.03,4.03,3.72,4.76,4.41,4.41,4.40
58.00,0.36,-4.02,0.36,-4.02,4.02,3.72,4.79,4.38,4.38,4.38
58.58,0.33,-4.02,0.33,-4.02,4.02,3.72,4.82,4.35,4.35,4.35
59.16,0.31,-4.01,0.31,-4.01,4.01,3.73,4.84,4.32,4.32,4.32
59.76,0.28,-4.02,0.28,-4.01,4.01,3.73,4.86,4.29,4.29,4.30
60.35,0.25,-4.01,0.25,-4.01,4.01,3.74,4.87,4.26,4.26,4.26
60.96,0.22,-4.02,0.22,-4.00,4.00,3.76,4.88,4.22,4.23,4.24
61.57,0.19,-4.01,0.19,-4.00,4.00,3.77,4.88,4.19,4.19,4.20
62.18,0.16,-4.00,0.16,-4.00,4.00,3.78,4.88,4.16,4.16,4.16
62.80,0.13,-4.00,0.13,-4.01,4.01,3.80,4.87,4.14,4.13,4.13
63.43,0.09,-4.00,0.09,-4.01,4.01,3.82,4.86,4.10,4.10,4.09
64.07,0.05,-4.01,0.05,-4.02,4.02,3.85,4.84,4.07,4.07,4.06
64.71,0.02,-4.02,0.01,-4.02,4.02,3.87,4.81,4.04,4.04,4.04
65.35,-0.03,-4.03,-0.03,-4.03,4.03,3.90,4.78,4.00,4.01,4.00
66.01,-0.07,-4.05,-0.07,-4.05,4.05,3.93,4.74,3.98,3.98,3.98
66.67,-0.11,-4.05,-0.12,-4.06,4.06,3.97,4.70,3.95,3.94,3.94
67.33,-0.16,-4.08,-0.16,-4.08,4.08,4.01,4.66,3.92,3.91,3.92
68.01,-0.21,-4.09,-0.21,-4.10,4.10,4.05,4.61,3.89,3.88,3.88
68.69,-0.26,-4.11,-0.27,-4.12,4.12,4.09,4.55,3.86,3.85,3.86
69.37,-0.32,-4.14,-0.32,-4.14,4.14,4.13,4.50,3.82,3.82,3.82
70.07,-0.38,-4.17,-0.38,-4.16,4.16,4.18,4.44,3.78,3.79,3.79
70.77,-0.44,-4.20,-0.44,-4.19,4.19,4.23,4.37,3.75,3.75,3.76
71.48,-0.49,-4.21,-0.50,-4.21,4.21,4.29,4.31,3.72,3.72,3.72
72.19,-0.56,-4.24,-0.56,-4.24,4.24,4.34,4.24,3.68,3.68,3.68
72.91,-0.62,-4.26,-0.63,-4.27,4.27,4.40,4.17,3.65,3.64,3.64
73.64,-0.69,-4.29,-0.69,-4.29,4.29,4.46,4.11,3.60,3.60,3.60
74.38,-0.76,-4.32,-0.76,-4.32,4.32,4.52,4.04,3.56,3.56,3.56
75.12,-0.83,-4.34,-0.83,-4.34,4.34,4.58,3.97,3.51,3.51,3.51
75.87,-0.90,-4.37,-0.90,-4.37,4.37,4.64,3.90,3.47,3.47,3.47
76.63,-0.97,-4.40,-0.97,-4.39,4.39,4.69,3.83,3.42,3.43,3.43
77.40,-1.04,-4.42,-1.03,-4.41,4.41,4.75,3.77,3.37,3.38,3.38
78.17,-1.10,-4.42,-1.10,-4.43,4.43,4.80,3.70,3.33,3.33,3.32
78.95,-1.17,-4.46,-1.17,-4.45,4.45,4.85,3.63,3.28,3.28,3.29
79.74,-1.23,-4.47,-1.23,-4.47,4.47,4.90,3.57,3.23,3.23,3.24
80.54,-1.30,-4.49,-1.29,-4.48,4.48,4.94,3.51,3.18,3.18,3.19
81.35,-1.35,-4.48,-1.36,-4.49,4.49,4.97,3.45,3.14,3.13,3.13
82.16,-1.41,-4.49,-1.41,-4.49,4.49,4.99,3.39,3.08,3.08,3.08
82.98,-1.47,-4.50,-1.47,-4.49,4.49,5.01,3.34,3.02,3.03,3.03
83.81,-1.52,-4.48,-1.52,-4.49,4.49,5.01,3.28,2.97,2.97,2.96
84.65,-1.58,-4.49,-1.57,-4.49,4.49,5.01,3.23,2.91,2.91,2.91
85.50,-1.62,-4.48,-1.62,-4.48,4.48,5.00,3.18,2.86,2.86,2.86
86.35,-1.67,-4.47,-1.66,-4.46,4.46,4.97,3.13,2.79,2.80,2.80
87.22,-1.71,-4.45,-1.71,-4.45,4.45,4.94,3.09,2.74,2.74,2.74
88.09,-1.74,-4.42,-1.74,-4.43,4.43,4.89,3.05,2.69,2.68,2.68
88.97,-1.78,-4.41,-1.78,-4.40,4.40,4.84,3.01,2.62,2.62,2.63
89.86,-1.81,-4.38,-1.81,-4.37,4.37,4.77,2.97,2.56,2.56,2.57
90.76,-1.84,-4.33,-1.84,-4.34,4.34,4.70,2.93,2.50,2.50,2.49
91.66,-1.87,-4.31,-1.86,-4.31,4.31,4.61,2.90,2.44,2.44,2.44
92.58,-1.89,-4.26,-1.89,-4.27,4.27,4.53,2.87,2.38,2.38,2.37
93.51,-1.91,-4.23,-1.91,-4.22,4.22,4.43,2.84,2.31,2.32,2.32
94.44,-1.92,-4.18,-1.92,-4.17,4.17,4.33,2.82,2.25,2.25,2.26
95.39,-1.93,-4.12,-1.94,-4.12,4.12,4.23,2.79,2.19,2.18,2.19
96.34,-1.95,-4.07,-1.95,-4.07,4.07,4.12,2.77,2.12,2.12,2.12
97.30,-1.96,-4.01,-1.96,-4.01,4.01,4.01,2.75,2.05,2.05,2.05
98.28,-1.96,-3.94,-1.96,-3.95,3.95,3.90,2.73,1.99,1.98,1.98
99.26,-1.97,-3.88,-1.97,-3.88,3.88,3.79,2.71,1.91,1.91,1.91
100.25,-1.97,-3.81,-1.97,-3.81,3.81,3.68,2.70,1.84,1.84,1.84
101.25,-1.97,-3.74,-1.97,-3.74,3.74,3.57,2.68,1.77,1.77,1.77
102.27,-1.97,-3.67,-1.97,-3.67,3.67,3.46,2.67,1.70,1.70,1.70
103.29,-1.96,-3.58,-1.97,-3.59,3.59,3.35,2.66,1.63,1.63,1.62
104.32,-1.96,-3.51,-1.96,-3.51,3.51,3.25,2.65,1.55,1.55,1.55
105.37,-1.95,-3.43,-1.96,-3.43,3.43,3.14,2.64,1.48,1.48,1.48
106.42,-1.95,-3.36,-1.95,-3.35,3.35,3.04,2.63,1.40,1.40,1.41
107.48,-1.94,-3.27,-1.94,-3.27,3.27,2.94,2.62,1.33,1.33,1.33
108.56,-1.93,-3.18,-1.93,-3.18,3.18,2.85,2.61,1.25,1.25,1.25
109.64,-1.92,-3.09,-1.92,-3.09,3.09,2.75,2.60,1.17,1.17,1.17
110.74,-1.91,-3.01,-1.91,-3.00,3.00,2.66,2.59,1.09,1.10,1.10
111.85,-1.90,-2.93,-1.90,-2.91,2.91,2.57,2.58,1.01,1.02,1.03
112.97,-1.89,-2.82,-1.88,-2.82,2.82,2.48,2.57,0.93,0.94,0.93
114.10,-1.87,-2.73,-1.87,-2.73,2.73,2.40,2.56,0.86,0.86,0.86
115.24,-1.85,-2.64,-1.86,-2.64,2.64,2.32,2.54,0.79,0.79,0.79
116.39,-1.84,-2.54,-1.84,-2.55,2.55,2.24,2.53,0.71,0.71,0.70
117.55,-1.83,-2.46,-1.83,-2.46,2.46,2.16,2.51,0.63,0.63,0.63
118.73,-1.81,-2.36,-1.81,-2.37,2.37,2.08,2.49,0.56,0.56,0.55
119.92,-1.80,-2.29,-1.80,-2.28,2.28,2.01,2.47,0.48,0.49,0.49
121.12,-1.78,-2.19,-1.78,-2.19,2.19,1.94,2.45,0.41,0.41,0.41
122.33,-1.76,-2.10,-1.76,-2.10,2.10,1.87,2.42,0.34,0.34,0.34
123.55,-1.74,-2.02,-1.74,-2.01,2.01,1.80,2.39,0.27,0.27,0.28
124.79,-1.73,-1.94,-1.73,-1.93,1.93,1.73,2.36,0.20,0.20,0.21
126.03,-1.71,-1.85,-1.71,-1.84,1.84,1.67,2.33,0.13,0.13,0.14
127.29,-1.69,-1.76,-1.69,-1.76,1.76,1.61,2.29,0.07,0.07,0.07
128.57,-1.67,-1.66,-1.67,-1.67,1.67,1.54,2.25,0.00,0.00,-0.01
129.85,-1.64,-1.57,-1.65,-1.59,1.59,1.48,2.21,-0.05,-0.06,-0.07
131.15,-1.63,-1.51,-1.63,-1.51,1.51,1.42,2.16,-0.12,-0.12,-0.12
132.46,-1.61,-1.42,-1.61,-1.43,1.43,1.36,2.12,-0.18,-0.18,-0.19
133.79,-1.59,-1.35,-1.59,-1.35,1.35,1.31,2.07,-0.24,-0.24,-0.24
135.12,-1.57,-1.27,-1.57,-1.27,1.27,1.25,2.01,-0.30,-0.30,-0.30
136.48,-1.55,-1.20,-1.55,-1.20,1.20,1.19,1.96,-0.35,-0.35,-0.35
137.84,-1.53,-1.14,-1.53,-1.13,1.13,1.14,1.90,-0.40,-0.40,-0.39
139.22,-1.51,-1.05,-1.51,-1.06,1.06,1.08,1.84,-0.45,-0.45,-0.46
140.61,-1.49,-0.98,-1.49,-1.00,1.00,1.03,1.78,-0.49,-0.49,-0.51
142.02,-1.46,-0.93,-1.47,-0.93,0.93,0.97,1.72,-0.53,-0.53,-0.53
143.44,-1.45,-0.88,-1.45,-0.87,0.87,0.92,1.66,-0.58,-0.58,-0.57
144.87,-1.43,-0.81,-1.43,-0.81,0.81,0.86,1.60,-0.62,-0.62,-0.62
146.32,-1.40,-0.74,-1.41,-0.75,0.75,0.81,1.53,-0.65,-0.65,-0.66
147.78,-1.39,-0.71,-1.39,-0.70,0.70,0.76,1.46,-0.69,-0.69,-0.68
149.26,-1.36,-0.64,-1.37,-0.64,0.64,0.70,1.40,-0.72,-0.73,-0.72
150.75,-1.35,-0.58,-1.35,-0.58,0.58,0.65,1.33,-0.77,-0.76,-0.77
152.26,-1.33,-0.53,-1.33,-0.53,0.53,0.59,1.26,-0.80,-0.80,-0.80
153.78,-1.31,-0.48,-1.31,-0.47,0.47,0.54,1.19,-0.84,-0.83,-0.83
155.32,-1.29,-0.42,-1.29,-0.42,0.42,0.49,1.12,-0.87,-0.87,-0.87
156.88,-1.27,-0.37,-1.27,-0.37,0.37,0.43,1.05,-0.90,-0.90,-0.90
158.44,-1.25,-0.31,-1.25,-0.31,0.31,0.38,0.98,-0.94,-0.94,-0.94
160.03,-1.23,-0.25,-1.23,-0.26,0.26,0.33,0.91,-0.97,-0.97,-0.98
161.63,-1.21,-0.19,-1.21,-0.20,0.20,0.27,0.84,-1.01,-1.01,-1.02
163.24,-1.19,-0.15,-1.19,-0.15,0.15,0.22,0.77,-1.04,-1.04,-1.04
164.88,-1.17,-0.10,-1.17,-0.09,0.09,0.16,0.70,-1.08,-1.08,-1.07
166.53,-1.15,-0.04,-1.15,-0.04,0.04,0.11,0.63,-1.11,-1.11,-1.11
168.19,-1.13,0.02,-1.13,0.02,-0.02,0.05,0.56,-1.15,-1.15,-1.15
169.87,-1.11,0.08,-1.11,0.08,-0.08,-0.01,0.49,-1.19,-1.19,-1.19
171.57,-1.09,0.13,-1.09,0.13,-0.13,-0.06,0.42,-1.22,-1.22,-1.22
173.29,-1.07,0.18,-1.07,0.19,-0.19,-0.12,0.35,-1.26,-1.26,-1.25
175.02,-1.05,0.24,-1.05,0.25,-0.25,-0.18,0.28,-1.30,-1.30,-1.29
176.77,-1.03,0.31,-1.03,0.31,-0.31,-0.23,0.21,-1.34,-1.34,-1.34
178.54,-1.01,0.37,-1.01,0.37,-0.37,-0.29,0.14,-1.38,-1.38,-1.38
180.32,-0.99,0.43,-0.99,0.43,-0.43,-0.35,0.07,-1.42,-1.42,-1.42
182.13,-0.97,0.49,-0.97,0.49,-0.49,-0.41,0.00,-1.46,-1.46,-1.46
183.95,-0.96,0.54,-0.95,0.55,-0.55,-0.46,-0.07,-1.51,-1.50,-1.50
185.79,-0.93,0.61,-0.93,0.61,-0.61,-0.52,-0.14,-1.54,-1.54,-1.54
187.65,-0.91,0.68,-0.91,0.66,-0.66,-0.58,-0.21,-1.57,-1.58,-1.59
189.52,-0.90,0.72,-0.90,0.72,-0.72,-0.64,-0.28,-1.62,-1.61,-1.62
191.42,-0.88,0.77,-0.88,0.77,-0.77,-0.70,-0.35,-1.65,-1.65,-1.65
193.33,-0.86,0.82,-0.86,0.82,-0.82,-0.75,-0.41,-1.68,-1.69,-1.68
195.27,-0.85,0.86,-0.85,0.87,-0.87,-0.81,-0.48,-1.72,-1.72,-1.71
197.22,-0.84,0.90,-0.84,0.91,-0.91,-0.87,-0.55,-1.75,-1.75,-1.74
199.19,-0.82,0.97,-0.83,0.95,-0.95,-0.92,-0.62,-1.77,-1.78,-1.79
201.18,-0.80,1.01,-0.82,0.99,-0.99,-0.97,-0.68,-1.79,-1.81,-1.81
203.19,-0.80,1.03,-0.81,1.03,-1.03,-1.03,-0.75,-1.83,-1.83,-1.83
205.23,-0.79,1.07,-0.80,1.06,-1.06,-1.08,-0.82,-1.85,-1.86,-1.86
207.28,-0.78,1.09,-0.79,1.09,-1.09,-1.13,-0.88,-1.87,-1.88,-1.87
209.35,-0.78,1.13,-0.78,1.12,-1.12,-1.18,-0.94,-1.90,-1.91,-1.91
211.44,-0.77,1.17,-0.78,1.15,-1.15,-1.22,-1.01,-1.92,-1.93,-1.94
213.56,-0.77,1.18,-0.77,1.18,-1.18,-1.27,-1.07,-1.95,-1.95,-1.95
215.69,-0.76,1.20,-0.75,1.21,-1.21,-1.31,-1.13,-1.97,-1.97,-1.96
217.85,-0.75,1.22,-0.74,1.24,-1.24,-1.35,-1.18,-1.99,-1.98,-1.97
220.03,-0.74,1.26,-0.72,1.27,-1.27,-1.39,-1.24,-2.01,-1.99,-2.00
222.23,-0.71,1.30,-0.70,1.30,-1.30,-1.42,-1.29,-2.01,-2.00,-2.01
224.45,-0.69,1.32,-0.67,1.34,-1.34,-1.45,-1.34,-2.03,-2.01,-2.01
226.70,-0.66,1.36,-0.64,1.38,-1.38,-1.48,-1.39,-2.04,-2.02,-2.02
228.96,-0.62,1.40,-0.60,1.42,-1.42,-1.50,-1.43,-2.04,-2.02,-2.02
231.25,-0.58,1.44,-0.56,1.46,-1.46,-1.52,-1.47,-2.04,-2.02,-2.02
233.57,-0.53,1.48,-0.52,1.50,-1.50,-1.54,-1.51,-2.03,-2.01,-2.01
235.90,-0.48,1.53,-0.48,1.53,-1.53,-1.55,-1.54,-2.01,-2.01,-2.01
238.26,-0.43,1.58,-0.44,1.57,-1.57,-1.56,-1.58,-2.00,-2.00,-2.01
240.64,-0.39,1.60,-0.40,1.59,-1.59,-1.57,-1.60,-1.98,-1.99,-1.99
243.05,-0.34,1.64,-0.36,1.62,-1.62,-1.57,-1.62,-1.96,-1.98,-1.98
245.48,-0.32,1.64,-0.33,1.63,-1.63,-1.57,-1.64,-1.95,-1.97,-1.96
247.93,-0.29,1.66,-0.31,1.64,-1.64,-1.56,-1.66,-1.93,-1.95,-1.95
250.41,-0.26,1.68,-0.29,1.64,-1.64,-1.55,-1.66,-1.90,-1.93,-1.94
252.92,-0.26,1.65,-0.29,1.63,-1.63,-1.54,-1.67,-1.89,-1.92,-1.91
255.45,-0.27,1.62,-0.28,1.61,-1.61,-1.52,-1.67,-1.88,-1.90,-1.89
258.00,-0.28,1.59,-0.29,1.59,-1.59,-1.50,-1.67,-1.87,-1.88,-1.87
260.58,-0.29,1.57,-0.30,1.56,-1.56,-1.48,-1.66,-1.85,-1.86,-1.86
263.19,-0.32,1.51,-0.31,1.52,-1.52,-1.46,-1.65,-1.84,-1.83,-1.83
265.82,-0.34,1.47,-0.33,1.48,-1.48,-1.43,-1.63,-1.82,-1.81,-1.81
268.48,-0.36,1.43,-0.35,1.43,-1.43,-1.40,-1.61,-1.79,-1.79,-1.79
271.16,-0.38,1.38,-0.38,1.39,-1.39,-1.36,-1.59,-1.77,-1.77,-1.76
273.87,-0.42,1.32,-0.40,1.34,-1.34,-1.33,-1.56,-1.76,-1.74,-1.74
276.61,-0.44,1.27,-0.43,1.29,-1.29,-1.29,-1.54,-1.73,-1.72,-1.71
279.38,-0.46,1.24,-0.46,1.24,-1.24,-1.25,-1.50,-1.70,-1.70,-1.70
282.17,-0.48,1.19,-0.48,1.19,-1.19,-1.21,-1.47,-1.67,-1.67,-1.67
284.99,-0.51,1.14,-0.50,1.15,-1.15,-1.17,-1.43,-1.66,-1.65,-1.65
287.84,-0.53,1.09,-0.52,1.10,-1.10,-1.12,-1.39,-1.63,-1.62,-1.62
290.72,-0.54,1.05,-0.54,1.05,-1.05,-1.08,-1.35,-1.59,-1.59,-1.59
293.63,-0.56,1.01,-0.56,1.01,-1.01,-1.03,-1.31,-1.57,-1.57,-1.57
296.57,-0.58,0.96,-0.58,0.96,-0.96,-0.99,-1.27,-1.54,-1.54,-1.54
299.53,-0.59,0.92,-0.59,0.91,-0.91,-0.94,-1.22,-1.50,-1.51,-1.51
302.53,-0.61,0.88,-0.61,0.87,-0.87,-0.89,-1.18,-1.48,-1.48,-1.49
305.55,-0.63,0.81,-0.62,0.82,-0.82,-0.85,-1.13,-1.45,-1.45,-1.44
308.61,-0.64,0.78,-0.64,0.78,-0.78,-0.80,-1.09,-1.42,-1.42,-1.42
311.69,-0.65,0.73,-0.66,0.73,-0.73,-0.75,-1.04,-1.38,-1.39,-1.38
314.81,-0.67,0.68,-0.67,0.68,-0.68,-0.71,-0.99,-1.35,-1.35,-1.35
317.96,-0.69,0.63,-0.69,0.63,-0.63,-0.66,-0.94,-1.32,-1.32,-1.32
321.14,-0.70,0.59,-0.71,0.59,-0.59,-0.61,-0.90,-1.29,-1.29,-1.29
324.35,-0.73,0.54,-0.73,0.54,-0.54,-0.57,-0.85,-1.27,-1.26,-1.27
327.59,-0.74,0.49,-0.75,0.49,-0.49,-0.52,-0.80,-1.23,-1.24,-1.23
330.87,-0.76,0.44,-0.77,0.44,-0.44,-0.48,-0.75,-1.20,-1.21,-1.20
334.18,-0.79,0.40,-0.79,0.40,-0.40,-0.44,-0.71,-1.19,-1.18,-1.19
337.52,-0.80,0.36,-0.81,0.35,-0.35,-0.39,-0.66,-1.15,-1.16,-1.16
340.90,-0.83,0.30,-0.83,0.30,-0.30,-0.35,-0.61,-1.13,-1.14,-1.13
344.30,-0.85,0.27,-0.85,0.26,-0.26,-0.31,-0.57,-1.11,-1.11,-1.12
347.75,-0.88,0.21,-0.88,0.22,-0.22,-0.27,-0.52,-1.10,-1.09,-1.09
351.23,-0.90,0.17,-0.90,0.18,-0.18,-0.23,-0.48,-1.08,-1.07,-1.07
354.74,-0.92,0.13,-0.92,0.14,-0.14,-0.19,-0.43,-1.06,-1.05,-1.05
358.28,-0.94,0.10,-0.94,0.10,-0.10,-0.16,-0.39,-1.04,-1.03,-1.04
361.87,-0.96,0.06,-0.95,0.06,-0.06,-0.12,-0.34,-1.02,-1.02,-1.02
365.49,-0.97,0.02,-0.97,0.03,-0.03,-0.08,-0.30,-1.00,-1.00,-0.99
369.14,-0.99,-0.01,-0.98,-0.01,0.01,-0.05,-0.26,-0.98,-0.98,-0.98
372.83,-1.00,-0.04,-1.00,-0.04,0.04,-0.01,-0.21,-0.96,-0.96,-0.96
376.56,-1.00,-0.05,-1.01,-0.07,0.07,0.02,-0.17,-0.93,-0.94,-0.95
380.33,-1.01,-0.09,-1.02,-0.10,0.10,0.05,-0.13,-0.91,-0.92,-0.92
384.13,-1.02,-0.12,-1.02,-0.12,0.12,0.08,-0.09,-0.90,-0.90,-0.90
387.97,-1.03,-0.15,-1.03,-0.15,0.15,0.11,-0.05,-0.88,-0.88,-0.88
391.85,-1.03,-0.17,-1.03,-0.17,0.17,0.14,-0.01,-0.86,-0.86,-0.86
395.77,-1.03,-0.19,-1.03,-0.19,0.19,0.17,0.03,-0.84,-0.84,-0.84
399.73,-1.03,-0.21,-1.03,-0.21,0.21,0.20,0.07,-0.82,-0.82,-0.82
403.72,-1.03,-0.23,-1.03,-0.23,0.23,0.23,0.11,-0.80,-0.80,-0.80
407.76,-1.03,-0.25,-1.02,-0.24,0.24,0.25,0.15,-0.79,-0.78,-0.78
411.84,-1.02,-0.27,-1.01,-0.25,0.25,0.28,0.19,-0.77,-0.75,-0.75
415.96,-1.00,-0.27,-1.00,-0.27,0.27,0.30,0.23,-0.73,-0.73,-0.73
420.12,-0.99,-0.28,-0.99,-0.28,0.28,0.33,0.26,-0.71,-0.71,-0.71
424.32,-0.98,-0.29,-0.97,-0.29,0.29,0.35,0.30,-0.69,-0.69,-0.69
428.56,-0.97,-0.30,-0.96,-0.30,0.30,0.37,0.33,-0.67,-0.67,-0.67
432.85,-0.95,-0.30,-0.95,-0.31,0.31,0.39,0.37,-0.64,-0.64,-0.65
437.18,-0.93,-0.31,-0.94,-0.32,0.32,0.41,0.40,-0.61,-0.62,-0.62
441.55,-0.91,-0.32,-0.93,-0.33,0.33,0.43,0.43,-0.58,-0.59,-0.59
445.96,-0.89,-0.32,-0.92,-0.35,0.35,0.45,0.47,-0.54,-0.57,-0.57
450.42,-0.89,-0.34,-0.90,-0.36,0.36,0.47,0.50,-0.53,-0.54,-0.55
454.93,-0.89,-0.38,-0.90,-0.38,0.38,0.49,0.52,-0.51,-0.52,-0.51
459.48,-0.88,-0.39,-0.89,-0.40,0.40,0.51,0.55,-0.48,-0.49,-0.49
464.07,-0.89,-0.43,-0.88,-0.42,0.42,0.53,0.58,-0.47,-0.46,-0.46
468.71,-0.88,-0.45,-0.88,-0.44,0.44,0.54,0.60,-0.44,-0.43,-0.43
473.40,-0.88,-0.47,-0.87,-0.46,0.46,0.56,0.63,-0.42,-0.41,-0.41
478.13,-0.87,-0.49,-0.87,-0.49,0.49,0.57,0.65,-0.38,-0.38,-0.38
482.91,-0.87,-0.52,-0.86,-0.51,0.51,0.59,0.67,-0.36,-0.35,-0.35
487.74,-0.86,-0.54,-0.85,-0.53,0.53,0.60,0.69,-0.33,-0.32,-0.32
492.62,-0.84,-0.55,-0.85,-0.55,0.55,0.62,0.71,-0.29,-0.29,-0.29
497.55,-0.83,-0.56,-0.84,-0.57,0.57,0.63,0.72,-0.26,-0.26,-0.27
