frequency,raw,error,smoothed,error_smoothed,equalization,parametric_eq,fixed_band_eq,equalized_raw,equalized_smoothed,target
20.00,-0.34,-7.48,-0.34,-7.48,7.48,7.06,2.34,7.14,7.14,7.14
20.20,-0.27,-7.40,-0.28,-7.40,7.40,7.02,2.41,7.13,7.13,7.13
20.40,-0.21,-7.33,-0.21,-7.32,7.32,6.98,2.48,7.11,7.12,7.12
20.61,-0.14,-7.25,-0.14,-7.25,7.25,6.94,2.56,7.10,7.10,7.11
20.81,-0.08,-7.17,-0.08,-7.17,7.17,6.90,2.63,7.09,7.09,7.09
21.02,-0.01,-7.09,-0.01,-7.09,7.09,6.85,2.71,7.08,7.08,7.08
21.23,0.05,-7.02,0.06,-7.02,7.02,6.81,2.79,7.07,7.07,7.07
21.44,0.12,-6.96,0.12,-6.94,6.94,6.77,2.87,7.06,7.06,7.08
21.66,0.19,-6.87,0.19,-6.87,6.87,6.73,2.96,7.05,7.05,7.06
21.87,0.25,-6.81,0.25,-6.79,6.79,6.68,3.04,7.04,7.05,7.06
22.09,0.32,-6.72,0.32,-6.72,6.72,6.64,3.13,7.04,7.04,7.04
22.31,0.39,-6.64,0.39,-6.65,6.65,6.59,3.22,7.04,7.03,7.03
22.54,0.45,-6.57,0.45,-6.57,6.57,6.55,3.32,7.02,7.02,7.02
22.76,0.52,-6.50,0.52,-6.50,6.50,6.50,3.41,7.02,7.02,7.02
22.99,0.59,-6.42,0.58,-6.43,6.43,6.46,3.51,7.02,7.01,7.01
23.22,0.65,-6.35,0.65,-6.36,6.36,6.41,3.61,7.01,7.01,7.00
23.45,0.71,-6.30,0.71,-6.29,6.29,6.36,3.72,7.00,7.00,7.01
23.69,0.78,-6.22,0.78,-6.22,6.22,6.32,3.82,7.00,7.00,7.00
23.92,0.84,-6.15,0.84,-6.15,6.15,6.27,3.93,6.99,6.99,6.99
24.16,0.90,-6.10,0.91,-6.08,6.08,6.22,4.04,6.98,6.99,7.00
24.40,0.97,-6.03,0.97,-6.02,6.02,6.17,4.15,6.99,6.99,7.00
24.65,1.04,-5.95,1.04,-5.95,5.95,6.12,4.27,6.99,6.99,6.99
24.89,1.10,-5.89,1.10,-5.89,5.89,6.08,4.38,6.99,6.98,6.99
25.14,1.16,-5.82,1.16,-5.82,5.82,6.03,4.50,6.98,6.98,6.98
25.39,1.23,-5.75,1.22,-5.76,5.76,5.98,4.61,6.99,6.98,6.98
25.65,1.29,-5.69,1.29,-5.69,5.69,5.93,4.73,6.98,6.98,6.98
25.91,1.35,-5.63,1.35,-5.63,5.63,5.88,4.85,6.98,6.98,6.98
26.16,1.41,-5.58,1.41,-5.57,5.57,5.83,4.96,6.98,6.98,6.99
26.43,1.47,-5.51,1.47,-5.51,5.51,5.78,5.08,6.98,6.98,6.98
26.69,1.53,-5.45,1.53,-5.45,5.45,5.72,5.19,6.98,6.98,6.98
26.96,1.59,-5.39,1.59,-5.39,5.39,5.67,5.30,6.98,6.98,6.98
27.23,1.65,-5.33,1.65,-5.33,5.33,5.62,5.41,6.98,6.98,6.98
27.50,1.71,-5.27,1.71,-5.27,5.27,5.57,5.52,6.98,6.98,6.98
27.77,1.77,-5.22,1.77,-5.21,5.21,5.52,5.62,6.98,6.99,6.99
28.05,1.83,-5.15,1.83,-5.16,5.16,5.46,5.72,6.99,6.99,6.98
28.33,1.89,-5.10,1.89,-5.10,5.10,5.41,5.81,6.99,6.99,6.99
28.62,1.94,-5.05,1.94,-5.05,5.05,5.36,5.90,6.98,6.99,6.99
28.90,2.00,-5.00,2.00,-4.99,4.99,5.31,5.98,6.99,6.99,7.00
29.19,2.05,-4.95,2.05,-4.94,4.94,5.25,6.05,6.99,6.99,7.00
29.48,2.11,-4.88,2.10,-4.89,4.89,5.20,6.12,6.99,6.99,6.99
29.78,2.16,-4.83,2.15,-4.83,4.83,5.14,6.17,6.99,6.98,6.99
30.08,2.21,-4.78,2.20,-4.78,4.78,5.09,6.21,6.99,6.98,6.99
30.38,2.25,-4.72,2.25,-4.73,4.73,5.04,6.25,6.98,6.98,6.97
30.68,2.29,-4.68,2.29,-4.68,4.68,4.98,6.27,6.97,6.97,6.97
30.99,2.33,-4.64,2.34,-4.63,4.63,4.93,6.28,6.96,6.97,6.97
31.30,2.37,-4.60,2.38,-4.58,4.58,4.87,6.29,6.95,6.96,6.97
31.61,2.42,-4.54,2.42,-4.54,4.54,4.82,6.28,6.95,6.95,6.96
31.93,2.46,-4.48,2.46,-4.49,4.49,4.76,6.26,6.95,6.95,6.94
32.24,2.50,-4.45,2.50,-4.44,4.44,4.71,6.22,6.94,6.94,6.95
32.57,2.54,-4.39,2.54,-4.40,4.40,4.65,6.18,6.94,6.93,6.93
32.89,2.58,-4.35,2.57,-4.35,4.35,4.59,6.13,6.93,6.93,6.93
33.22,2.61,-4.31,2.61,-4.31,4.31,4.54,6.07,6.92,6.92,6.92
33.55,2.65,-4.27,2.65,-4.27,4.27,4.48,6.00,6.92,6.91,6.92
33.89,2.69,-4.22,2.69,-4.22,4.22,4.43,5.92,6.91,6.91,6.91
34.23,2.72,-4.17,2.72,-4.17,4.17,4.37,5.83,6.89,6.90,6.89
34.57,2.76,-4.13,2.76,-4.13,4.13,4.31,5.74,6.89,6.89,6.89
34.92,2.79,-4.08,2.80,-4.08,4.08,4.26,5.64,6.87,6.88,6.87
35.27,2.83,-4.06,2.83,-4.03,4.03,4.20,5.54,6.86,6.87,6.89
35.62,2.87,-3.99,2.87,-3.99,3.99,4.14,5.43,6.86,6.86,6.86
35.97,2.91,-3.95,2.91,-3.94,3.94,4.09,5.32,6.85,6.85,6.86
36.33,2.94,-3.90,2.94,-3.89,3.89,4.03,5.20,6.83,6.83,6.84
36.70,2.98,-3.84,2.98,-3.84,3.84,3.97,5.09,6.82,6.82,6.82
37.06,3.02,-3.78,3.01,-3.79,3.79,3.91,4.97,6.80,6.80,6.80
37.43,3.05,-3.73,3.05,-3.73,3.73,3.86,4.85,6.78,6.78,6.78
37.81,3.08,-3.69,3.08,-3.68,3.68,3.80,4.72,6.76,6.76,6.77
38.19,3.12,-3.62,3.11,-3.63,3.63,3.74,4.60,6.75,6.74,6.74
38.57,3.15,-3.57,3.15,-3.58,3.58,3.68,4.48,6.72,6.72,6.72
38.95,3.18,-3.53,3.17,-3.52,3.52,3.63,4.36,6.70,6.70,6.71
39.34,3.20,-3.48,3.20,-3.47,3.47,3.57,4.24,6.67,6.68,6.68
39.74,3.23,-3.42,3.23,-3.43,3.43,3.51,4.12,6.66,6.66,6.65
40.14,3.26,-3.37,3.26,-3.38,3.38,3.45,4.00,6.64,6.63,6.63
40.54,3.28,-3.33,3.28,-3.33,3.33,3.39,3.89,6.61,6.61,6.61
40.94,3.31,-3.27,3.30,-3.28,3.28,3.34,3.77,6.59,6.59,6.58
41.35,3.33,-3.24,3.33,-3.24,3.24,3.28,3.66,6.57,6.57,6.57
41.76,3.35,-3.19,3.35,-3.19,3.19,3.22,3.55,6.54,6.54,6.54
42.18,3.37,-3.16,3.37,-3.15,3.15,3.16,3.44,6.52,6.52,6.53
42.60,3.39,-3.11,3.39,-3.10,3.10,3.10,3.34,6.49,6.50,6.50
43.03,3.41,-3.07,3.42,-3.06,3.06,3.05,3.23,6.46,6.47,6.48
43.46,3.44,-3.00,3.44,-3.01,3.01,2.99,3.13,6.45,6.45,6.44
43.90,3.46,-2.96,3.46,-2.96,2.96,2.93,3.03,6.42,6.42,6.42
44.33,3.48,-2.91,3.48,-2.91,2.91,2.87,2.94,6.39,6.39,6.39
44.78,3.50,-2.87,3.50,-2.86,2.86,2.81,2.84,6.36,6.36,6.37
45.23,3.52,-2.83,3.52,-2.81,2.81,2.75,2.75,6.33,6.33,6.35
45.68,3.55,-2.75,3.55,-2.75,2.75,2.70,2.66,6.30,6.30,6.30
46.13,3.58,-2.69,3.57,-2.69,2.69,2.64,2.57,6.27,6.26,6.27
46.60,3.59,-2.64,3.59,-2.64,2.64,2.58,2.49,6.22,6.23,6.23
47.06,3.61,-2.59,3.61,-2.57,2.57,2.52,2.40,6.18,6.19,6.20
47.53,3.63,-2.53,3.64,-2.51,2.51,2.46,2.32,6.14,6.15,6.16
48.01,3.65,-2.46,3.66,-2.45,2.45,2.40,2.24,6.10,6.11,6.11
48.49,3.67,-2.40,3.67,-2.40,2.40,2.35,2.16,6.06,6.07,6.07
48.97,3.70,-2.32,3.69,-2.34,2.34,2.29,2.09,6.04,6.03,6.02
49.46,3.72,-2.27,3.71,-2.28,2.28,2.23,2.01,6.00,5.99,5.99
49.96,3.74,-2.19,3.72,-2.22,2.22,2.17,1.94,5.96,5.94,5.93
50.46,3.75,-2.15,3.74,-2.16,2.16,2.11,1.87,5.91,5.90,5.90
50.96,3.76,-2.10,3.75,-2.11,2.11,2.05,1.80,5.86,5.86,5.86
51.47,3.77,-2.05,3.77,-2.05,2.05,2.00,1.74,5.82,5.82,5.82
51.99,3.78,-1.99,3.78,-1.99,1.99,1.94,1.67,5.77,5.77,5.77
52.51,3.79,-1.95,3.80,-1.94,1.94,1.88,1.61,5.73,5.73,5.74
53.03,3.80,-1.91,3.81,-1.88,1.88,1.82,1.54,5.68,5.69,5.71
53.56,3.82,-1.84,3.83,-1.82,1.82,1.76,1.48,5.64,5.65,5.66
54.10,3.83,-1.78,3.85,-1.77,1.77,1.71,1.42,5.60,5.61,5.61
54.64,3.86,-1.71,3.86,-1.71,1.71,1.65,1.36,5.57,5.57,5.57
55.18,3.88,-1.65,3.88,-1.65,1.65,1.59,1.31,5.53,5.54,5.53
55.74,3.90,-1.58,3.90,-1.60,1.60,1.53,1.25,5.50,5.50,5.48
56.29,3.92,-1.54,3.92,-1.54,1.54,1.47,1.20,5.46,5.46,5.46
56.86,3.94,-1.48,3.94,-1.48,1.48,1.42,1.14,5.42,5.42,5.42
57.42,3.97,-1.40,3.96,-1.42,1.42,1.36,1.09,5.39,5.38,5.37
58.00,3.99,-1.34,3.98,-1.36,1.36,1.30,1.03,5.34,5.33,5.33
58.58,4.01,-1.29,4.00,-1.29,1.29,1.24,0.98,5.30,5.29,5.30
59.16,4.02,-1.25,4.02,-1.23,1.23,1.18,0.93,5.25,5.24,5.27
59.76,4.04,-1.18,4.04,-1.16,1.16,1.13,0.88,5.20,5.20,5.22
60.35,4.05,-1.12,4.06,-1.09,1.09,1.07,0.83,5.14,5.15,5.17
60.96,4.06,-1.05,4.07,-1.03,1.03,1.01,0.78,5.09,5.10,5.11
61.57,4.08,-0.97,4.09,-0.96,0.96,0.95,0.74,5.04,5.05,5.05
62.18,4.11,-0.88,4.11,-0.89,0.89,0.90,0.69,5.00,5.00,4.99
62.80,4.12,-0.81,4.13,-0.81,0.81,0.84,0.64,4.93,4.94,4.93
63.43,4.14,-0.74,4.15,-0.74,0.74,0.78,0.59,4.88,4.89,4.88
64.07,4.16,-0.67,4.16,-0.68,0.68,0.73,0.55,4.83,4.84,4.83
64.71,4.18,-0.60,4.17,-0.61,0.61,0.67,0.50,4.78,4.78,4.78
65.35,4.20,-0.52,4.19,-0.54,0.54,0.61,0.46,4.74,4.73,4.72
66.01,4.21,-0.46,4.20,-0.47,0.47,0.55,0.41,4.68,4.67,4.67
66.67,4.22,-0.41,4.21,-0.41,0.41,0.50,0.36,4.63,4.62,4.63
67.33,4.22,-0.34,4.21,-0.35,0.35,0.44,0.32,4.57,4.56,4.56
68.01,4.23,-0.28,4.22,-0.29,0.29,0.38,0.27,4.52,4.51,4.51
68.69,4.23,-0.23,4.22,-0.23,0.23,0.33,0.23,4.46,4.45,4.46
69.37,4.23,-0.18,4.22,-0.17,0.17,0.27,0.18,4.40,4.39,4.41
70.07,4.22,-0.13,4.22,-0.12,0.12,0.21,0.14,4.33,4.34,4.35
70.77,4.21,-0.07,4.22,-0.06,0.06,0.16,0.10,4.27,4.28,4.28
71.48,4.21,-0.02,4.22,-0.00,0.00,0.10,0.05,4.21,4.22,4.23
72.19,4.21,0.04,4.22,0.05,-0.05,0.04,0.01,4.16,4.17,4.17
72.91,4.21,0.11,4.21,0.10,-0.10,-0.01,-0.04,4.10,4.11,4.10
73.64,4.21,0.16,4.21,0.16,-0.16,-0.07,-0.08,4.05,4.05,4.05
74.38,4.21,0.22,4.21,0.21,-0.21,-0.13,-0.13,4.00,4.00,3.99
75.12,4.21,0.27,4.21,0.27,-0.27,-0.18,-0.18,3.94,3.94,3.94
75.87,4.21,0.32,4.21,0.32,-0.32,-0.24,-0.22,3.89,3.89,3.89
76.63,4.21,0.38,4.21,0.37,-0.37,-0.29,-0.27,3.84,3.84,3.83
77.40,4.21,0.42,4.21,0.42,-0.42,-0.35,-0.31,3.79,3.78,3.79
78.17,4.21,0.48,4.21,0.47,-0.47,-0.41,-0.36,3.73,3.73,3.73
78.95,4.21,0.52,4.21,0.53,-0.53,-0.46,-0.41,3.68,3.68,3.69
79.74,4.21,0.57,4.21,0.58,-0.58,-0.52,-0.45,3.63,3.63,3.64
80.54,4.21,0.62,4.21,0.62,-0.62,-0.57,-0.50,3.58,3.58,3.59
81.35,4.21,0.68,4.21,0.67,-0.67,-0.63,-0.55,3.53,3.53,3.53
82.16,4.21,0.71,4.21,0.73,-0.73,-0.68,-0.60,3.48,3.48,3.50
82.98,4.21,0.77,4.21,0.78,-0.78,-0.74,-0.65,3.43,3.43,3.44
83.81,4.21,0.82,4.21,0.83,-0.83,-0.80,-0.70,3.38,3.38,3.39
84.65,4.21,0.88,4.21,0.88,-0.88,-0.85,-0.75,3.33,3.33,3.33
85.50,4.21,0.94,4.21,0.94,-0.94,-0.91,-0.80,3.27,3.27,3.27
86.35,4.21,0.99,4.21,0.99,-0.99,-0.96,-0.85,3.22,3.22,3.22
87.22,4.21,1.04,4.21,1.04,-1.04,-1.02,-0.91,3.17,3.17,3.17
88.09,4.21,1.10,4.21,1.10,-1.10,-1.07,-0.96,3.11,3.11,3.11
88.97,4.21,1.16,4.21,1.16,-1.16,-1.12,-1.01,3.05,3.05,3.05
89.86,4.21,1.21,4.21,1.21,-1.21,-1.18,-1.07,2.99,2.99,3.00
90.76,4.21,1.27,4.21,1.27,-1.27,-1.23,-1.12,2.94,2.94,2.94
91.66,4.21,1.34,4.21,1.33,-1.33,-1.29,-1.18,2.88,2.88,2.87
92.58,4.21,1.39,4.21,1.39,-1.39,-1.34,-1.24,2.82,2.82,2.82
93.51,4.21,1.44,4.21,1.45,-1.45,-1.40,-1.30,2.75,2.75,2.77
94.44,4.21,1.50,4.21,1.52,-1.52,-1.45,-1.35,2.69,2.69,2.71
95.39,4.21,1.57,4.21,1.58,-1.58,-1.50,-1.41,2.63,2.63,2.64
96.34,4.21,1.64,4.21,1.64,-1.64,-1.56,-1.47,2.57,2.57,2.57
97.30,4.21,1.70,4.21,1.70,-1.70,-1.61,-1.53,2.51,2.51,2.51
98.28,4.21,1.77,4.21,1.76,-1.76,-1.67,-1.60,2.45,2.45,2.44
99.26,4.21,1.83,4.21,1.82,-1.82,-1.72,-1.66,2.39,2.39,2.38
100.25,4.21,1.89,4.21,1.88,-1.88,-1.77,-1.72,2.33,2.33,2.32
101.25,4.21,1.94,4.21,1.94,-1.94,-1.83,-1.78,2.27,2.27,2.27
102.27,4.21,2.00,4.21,2.00,-2.00,-1.88,-1.85,2.21,2.21,2.21
103.29,4.21,2.06,4.21,2.06,-2.06,-1.93,-1.91,2.15,2.15,2.15
104.32,4.21,2.11,4.21,2.11,-2.11,-1.98,-1.97,2.10,2.10,2.10
105.37,4.21,2.17,4.21,2.17,-2.17,-2.04,-2.04,2.04,2.04,2.04
106.42,4.21,2.22,4.21,2.22,-2.22,-2.09,-2.10,1.99,1.98,1.99
107.48,4.21,2.28,4.21,2.28,-2.28,-2.14,-2.16,1.93,1.93,1.93
108.56,4.21,2.33,4.21,2.34,-2.34,-2.19,-2.23,1.87,1.87,1.88
109.64,4.21,2.39,4.21,2.40,-2.40,-2.25,-2.29,1.81,1.81,1.82
110.74,4.21,2.45,4.21,2.46,-2.46,-2.30,-2.35,1.75,1.75,1.76
111.85,4.21,2.51,4.22,2.52,-2.52,-2.35,-2.41,1.69,1.69,1.70
112.97,4.21,2.56,4.22,2.58,-2.58,-2.40,-2.47,1.63,1.63,1.65
114.10,4.21,2.62,4.22,2.65,-2.65,-2.45,-2.52,1.56,1.58,1.59
115.24,4.21,2.70,4.22,2.70,-2.70,-2.50,-2.58,1.51,1.52,1.51
116.39,4.21,2.76,4.22,2.76,-2.76,-2.55,-2.64,1.45,1.46,1.45
117.55,4.22,2.83,4.22,2.82,-2.82,-2.60,-2.69,1.40,1.40,1.39
118.73,4.23,2.90,4.22,2.87,-2.87,-2.66,-2.74,1.36,1.35,1.33
119.92,4.23,2.94,4.21,2.92,-2.92,-2.71,-2.79,1.31,1.29,1.29
121.12,4.22,2.98,4.20,2.97,-2.97,-2.76,-2.83,1.25,1.23,1.24
122.33,4.21,3.03,4.19,3.01,-3.01,-2.81,-2.88,1.20,1.18,1.18
123.55,4.19,3.06,4.17,3.05,-3.05,-2.86,-2.92,1.14,1.12,1.13
124.79,4.16,3.08,4.14,3.08,-3.08,-2.91,-2.96,1.08,1.07,1.08
126.03,4.12,3.10,4.12,3.11,-3.11,-2.96,-3.00,1.01,1.01,1.02
127.29,4.10,3.13,4.09,3.14,-3.14,-3.00,-3.03,0.96,0.96,0.97
128.57,4.07,3.17,4.06,3.16,-3.16,-3.05,-3.07,0.91,0.90,0.90
129.85,4.03,3.18,4.03,3.19,-3.19,-3.10,-3.10,0.84,0.85,0.85
131.15,3.99,3.20,4.01,3.21,-3.21,-3.15,-3.13,0.78,0.79,0.79
132.46,3.97,3.23,3.98,3.24,-3.24,-3.20,-3.15,0.73,0.74,0.74
133.79,3.94,3.26,3.96,3.27,-3.27,-3.25,-3.18,0.67,0.68,0.68
135.12,3.90,3.27,3.94,3.31,-3.31,-3.30,-3.20,0.59,0.63,0.63
136.48,3.89,3.31,3.92,3.34,-3.34,-3.34,-3.23,0.55,0.58,0.58
137.84,3.88,3.35,3.90,3.38,-3.38,-3.39,-3.25,0.50,0.52,0.53
139.22,3.88,3.41,3.89,3.42,-3.42,-3.44,-3.27,0.46,0.47,0.47
140.61,3.88,3.45,3.88,3.45,-3.45,-3.49,-3.29,0.43,0.42,0.43
142.02,3.88,3.51,3.87,3.49,-3.49,-3.53,-3.31,0.39,0.38,0.37
143.44,3.88,3.55,3.86,3.52,-3.52,-3.58,-3.34,0.36,0.33,0.33
144.87,3.86,3.57,3.84,3.56,-3.56,-3.62,-3.36,0.30,0.28,0.29
146.32,3.85,3.61,3.83,3.59,-3.59,-3.67,-3.38,0.26,0.24,0.24
147.78,3.82,3.62,3.81,3.61,-3.61,-3.72,-3.40,0.20,0.20,0.20
149.26,3.79,3.64,3.79,3.64,-3.64,-3.76,-3.43,0.15,0.15,0.15
150.75,3.76,3.65,3.77,3.66,-3.66,-3.81,-3.45,0.10,0.11,0.11
152.26,3.75,3.68,3.74,3.67,-3.67,-3.85,-3.48,0.08,0.07,0.07
153.78,3.72,3.69,3.71,3.68,-3.68,-3.90,-3.51,0.04,0.02,0.03
155.32,3.68,3.69,3.67,3.69,-3.69,-3.94,-3.54,-0.01,-0.02,-0.01
156.88,3.63,3.69,3.64,3.70,-3.70,-3.99,-3.57,-0.07,-0.06,-0.06
158.44,3.59,3.70,3.60,3.71,-3.71,-4.03,-3.60,-0.12,-0.11,-0.11
160.03,3.54,3.69,3.56,3.72,-3.72,-4.08,-3.64,-0.18,-0.15,-0.15
161.63,3.51,3.70,3.52,3.72,-3.72,-4.12,-3.68,-0.21,-0.20,-0.19
163.24,3.48,3.72,3.48,3.72,-3.72,-4.16,-3.72,-0.25,-0.24,-0.24
164.88,3.42,3.71,3.44,3.73,-3.73,-4.21,-3.77,-0.31,-0.29,-0.29
166.53,3.39,3.73,3.39,3.73,-3.73,-4.25,-3.81,-0.34,-0.34,-0.34
168.19,3.36,3.73,3.34,3.73,-3.73,-4.29,-3.86,-0.37,-0.38,-0.37
169.87,3.31,3.74,3.29,3.72,-3.72,-4.34,-3.92,-0.42,-0.43,-0.43
171.57,3.27,3.75,3.24,3.72,-3.72,-4.38,-3.97,-0.45,-0.48,-0.48
173.29,3.22,3.74,3.19,3.71,-3.71,-4.42,-4.03,-0.49,-0.53,-0.52
175.02,3.13,3.70,3.13,3.70,-3.70,-4.46,-4.09,-0.57,-0.57,-0.57
176.77,3.07,3.69,3.07,3.69,-3.69,-4.51,-4.16,-0.62,-0.62,-0.62
178.54,3.01,3.67,3.01,3.67,-3.67,-4.55,-4.23,-0.66,-0.67,-0.66
180.32,2.95,3.67,2.94,3.66,-3.66,-4.59,-4.30,-0.71,-0.71,-0.72
182.13,2.90,3.65,2.88,3.64,-3.64,-4.63,-4.38,-0.74,-0.76,-0.75
183.95,2.83,3.63,2.82,3.62,-3.62,-4.68,-4.45,-0.79,-0.80,-0.80
185.79,2.77,3.62,2.75,3.60,-3.60,-4.72,-4.54,-0.84,-0.85,-0.85
187.65,2.71,3.60,2.70,3.59,-3.59,-4.76,-4.62,-0.88,-0.89,-0.89
189.52,2.65,3.58,2.65,3.58,-3.58,-4.81,-4.71,-0.93,-0.94,-0.93
191.42,2.61,3.58,2.61,3.58,-3.58,-4.85,-4.80,-0.97,-0.98,-0.97
193.33,2.58,3.59,2.58,3.60,-3.60,-4.89,-4.89,-1.02,-1.02,-1.01
195.27,2.56,3.62,2.56,3.62,-3.62,-4.94,-4.99,-1.06,-1.06,-1.06
197.22,2.56,3.67,2.57,3.66,-3.66,-4.98,-5.09,-1.10,-1.10,-1.11
199.19,2.56,3.70,2.59,3.72,-3.72,-5.03,-5.19,-1.16,-1.13,-1.14
201.18,2.58,3.76,2.62,3.80,-3.80,-5.07,-5.29,-1.22,-1.17,-1.18
203.19,2.63,3.84,2.68,3.89,-3.89,-5.12,-5.39,-1.26,-1.21,-1.21
205.23,2.71,3.94,2.76,4.00,-4.00,-5.17,-5.50,-1.29,-1.24,-1.23
207.28,2.82,4.08,2.87,4.14,-4.14,-5.22,-5.60,-1.32,-1.27,-1.26
209.35,2.95,4.25,2.99,4.29,-4.29,-5.27,-5.71,-1.35,-1.30,-1.30
211.44,3.11,4.44,3.13,4.47,-4.47,-5.32,-5.82,-1.36,-1.33,-1.33
213.56,3.28,4.63,3.30,4.66,-4.66,-5.38,-5.92,-1.38,-1.36,-1.35
215.69,3.47,4.85,3.47,4.86,-4.86,-5.44,-6.03,-1.39,-1.39,-1.38
217.85,3.68,5.09,3.66,5.07,-5.07,-5.50,-6.13,-1.39,-1.41,-1.41
220.03,3.83,5.27,3.85,5.29,-5.29,-5.56,-6.23,-1.46,-1.44,-1.44
222.23,4.03,5.50,4.05,5.51,-5.51,-5.63,-6.33,-1.49,-1.46,-1.47
224.45,4.26,5.74,4.25,5.74,-5.74,-5.70,-6.42,-1.48,-1.49,-1.48
226.70,4.48,5.99,4.45,5.96,-5.96,-5.78,-6.51,-1.48,-1.51,-1.51
228.96,4.70,6.22,4.64,6.17,-6.17,-5.86,-6.60,-1.47,-1.53,-1.52
231.25,4.84,6.38,4.82,6.37,-6.37,-5.95,-6.68,-1.53,-1.54,-1.54
233.57,5.02,6.58,4.99,6.55,-6.55,-6.05,-6.75,-1.53,-1.56,-1.56
235.90,5.19,6.76,5.15,6.72,-6.72,-6.16,-6.82,-1.54,-1.58,-1.57
238.26,5.30,6.90,5.29,6.88,-6.88,-6.27,-6.87,-1.58,-1.59,-1.60
240.64,5.43,7.02,5.42,7.02,-7.02,-6.39,-6.92,-1.59,-1.60,-1.59
243.05,5.52,7.13,5.53,7.14,-7.14,-6.52,-6.96,-1.62,-1.61,-1.61
245.48,5.62,7.24,5.62,7.24,-7.24,-6.66,-7.00,-1.62,-1.62,-1.62
247.93,5.72,7.35,5.69,7.32,-7.32,-6.81,-7.02,-1.60,-1.62,-1.63
250.41,5.76,7.38,5.75,7.38,-7.38,-6.96,-7.03,-1.62,-1.63,-1.62
252.92,5.80,7.43,5.78,7.42,-7.42,-7.11,-7.04,-1.62,-1.63,-1.63
255.45,5.82,7.46,5.80,7.44,-7.44,-7.25,-7.03,-1.62,-1.64,-1.64
258.00,5.84,7.48,5.81,7.45,-7.45,-7.38,-7.01,-1.62,-1.64,-1.64
260.58,5.82,7.46,5.80,7.45,-7.45,-7.49,-6.99,-1.63,-1.65,-1.64
263.19,5.78,7.42,5.78,7.43,-7.43,-7.57,-6.96,-1.65,-1.65,-1.64
265.82,5.73,7.38,5.74,7.39,-7.39,-7.61,-6.92,-1.66,-1.65,-1.65
268.48,5.71,7.36,5.69,7.35,-7.35,-7.61,-6.87,-1.64,-1.66,-1.65
271.16,5.66,7.31,5.64,7.30,-7.30,-7.57,-6.81,-1.64,-1.66,-1.65
273.87,5.57,7.22,5.58,7.23,-7.23,-7.50,-6.75,-1.67,-1.66,-1.65
276.61,5.50,7.15,5.51,7.17,-7.17,-7.40,-6.68,-1.67,-1.66,-1.65
279.38,5.43,7.10,5.44,7.10,-7.10,-7.29,-6.61,-1.67,-1.66,-1.67
282.17,5.35,7.02,5.37,7.03,-7.03,-7.16,-6.54,-1.68,-1.66,-1.67
284.99,5.28,6.94,5.29,6.95,-6.95,-7.03,-6.46,-1.67,-1.66,-1.66
287.84,5.19,6.84,5.22,6.88,-6.88,-6.90,-6.38,-1.69,-1.66,-1.65
290.72,5.13,6.79,5.15,6.81,-6.81,-6.78,-6.30,-1.68,-1.65,-1.66
293.63,5.08,6.73,5.09,6.74,-6.74,-6.67,-6.21,-1.66,-1.65,-1.65
296.57,5.03,6.67,5.02,6.67,-6.67,-6.56,-6.13,-1.64,-1.65,-1.64
299.53,4.97,6.61,4.96,6.61,-6.61,-6.47,-6.05,-1.64,-1.64,-1.64
302.53,4.91,6.53,4.91,6.55,-6.55,-6.38,-5.96,-1.64,-1.64,-1.62
305.55,4.86,6.49,4.86,6.49,-6.49,-6.30,-5.88,-1.63,-1.63,-1.63
308.61,4.81,6.43,4.82,6.44,-6.44,-6.23,-5.80,-1.63,-1.62,-1.62
311.69,4.76,6.37,4.78,6.39,-6.39,-6.16,-5.72,-1.63,-1.61,-1.61
314.81,4.73,6.34,4.74,6.35,-6.35,-6.10,-5.64,-1.62,-1.61,-1.61
317.96,4.69,6.29,4.70,6.30,-6.30,-6.05,-5.57,-1.61,-1.60,-1.60
321.14,4.67,6.26,4.67,6.26,-6.26,-6.00,-5.50,-1.59,-1.59,-1.59
324.35,4.64,6.23,4.63,6.22,-6.22,-5.96,-5.43,-1.58,-1.58,-1.59
327.59,4.62,6.18,4.60,6.17,-6.17,-5.91,-5.36,-1.56,-1.58,-1.56
330.87,4.59,6.16,4.57,6.14,-6.14,-5.87,-5.30,-1.55,-1.57,-1.57
334.18,4.55,6.11,4.54,6.10,-6.10,-5.84,-5.24,-1.55,-1.56,-1.56
337.52,4.51,6.07,4.51,6.06,-6.06,-5.80,-5.19,-1.55,-1.55,-1.56
340.90,4.47,6.01,4.48,6.02,-6.02,-5.77,-5.14,-1.55,-1.55,-1.54
344.30,4.44,5.97,4.45,5.99,-5.99,-5.74,-5.09,-1.55,-1.54,-1.53
347.75,4.40,5.93,4.42,5.95,-5.95,-5.71,-5.05,-1.55,-1.53,-1.53
351.23,4.38,5.91,4.39,5.91,-5.91,-5.68,-5.01,-1.53,-1.52,-1.53
354.74,4.36,5.86,4.36,5.87,-5.87,-5.65,-4.97,-1.51,-1.51,-1.50
358.28,4.33,5.84,4.33,5.83,-5.83,-5.62,-4.94,-1.50,-1.51,-1.51
361.87,4.31,5.81,4.30,5.80,-5.80,-5.59,-4.91,-1.49,-1.50,-1.50
365.49,4.28,5.77,4.27,5.76,-5.76,-5.56,-4.88,-1.48,-1.49,-1.49
369.14,4.25,5.72,4.24,5.73,-5.73,-5.54,-4.86,-1.48,-1.48,-1.47
372.83,4.22,5.69,4.22,5.69,-5.69,-5.51,-4.85,-1.47,-1.47,-1.47
376.56,4.18,5.65,4.19,5.66,-5.66,-5.48,-4.83,-1.48,-1.47,-1.47
380.33,4.16,5.62,4.17,5.62,-5.62,-5.45,-4.82,-1.46,-1.46,-1.46
384.13,4.13,5.57,4.14,5.59,-5.59,-5.43,-4.82,-1.46,-1.45,-1.44
387.97,4.10,5.54,4.11,5.55,-5.55,-5.40,-4.81,-1.45,-1.44,-1.44
391.85,4.08,5.51,4.08,5.51,-5.51,-5.37,-4.81,-1.43,-1.43,-1.43
395.77,4.06,5.48,4.05,5.47,-5.47,-5.34,-4.82,-1.41,-1.42,-1.42
399.73,4.04,5.45,4.02,5.43,-5.43,-5.31,-4.82,-1.39,-1.41,-1.41
403.72,4.01,5.39,3.99,5.38,-5.38,-5.29,-4.83,-1.37,-1.40,-1.38
407.76,3.97,5.36,3.96,5.34,-5.34,-5.26,-4.84,-1.37,-1.39,-1.39
411.84,3.93,5.31,3.92,5.30,-5.30,-5.23,-4.85,-1.37,-1.38,-1.38
415.96,3.89,5.25,3.89,5.26,-5.26,-5.20,-4.86,-1.37,-1.37,-1.36
420.12,3.85,5.21,3.86,5.22,-5.22,-5.16,-4.88,-1.37,-1.36,-1.36
424.32,3.81,5.16,3.83,5.18,-5.18,-5.13,-4.89,-1.37,-1.35,-1.35
428.56,3.78,5.11,3.80,5.14,-5.14,-5.10,-4.91,-1.36,-1.34,-1.33
432.85,3.75,5.07,3.76,5.10,-5.10,-5.07,-4.93,-1.35,-1.33,-1.32
437.18,3.72,5.05,3.73,5.05,-5.05,-5.03,-4.94,-1.33,-1.32,-1.33
441.55,3.71,5.03,3.69,5.01,-5.01,-5.00,-4.96,-1.30,-1.32,-1.32
445.96,3.69,5.00,3.66,4.97,-4.97,-4.97,-4.97,-1.28,-1.31,-1.31
450.42,3.65,4.95,3.63,4.93,-4.93,-4.93,-4.98,-1.28,-1.30,-1.30
454.93,3.61,4.90,3.60,4.89,-4.89,-4.89,-4.99,-1.28,-1.29,-1.29
459.48,3.57,4.85,3.57,4.85,-4.85,-4.86,-5.00,-1.28,-1.28,-1.28
464.07,3.53,4.79,3.54,4.81,-4.81,-4.82,-5.01,-1.28,-1.27,-1.26
468.71,3.49,4.74,3.51,4.77,-4.77,-4.78,-5.01,-1.28,-1.26,-1.25
473.40,3.45,4.70,3.48,4.73,-4.73,-4.74,-5.01,-1.28,-1.25,-1.25
478.13,3.43,4.67,3.44,4.68,-4.68,-4.70,-5.00,-1.25,-1.24,-1.24
482.91,3.41,4.64,3.40,4.64,-4.64,-4.66,-4.99,-1.23,-1.23,-1.23
487.74,3.40,4.62,3.37,4.59,-4.59,-4.62,-4.98,-1.19,-1.22,-1.22
492.62,3.36,4.57,3.33,4.54,-4.54,-4.58,-4.96,-1.18,-1.21,-1.21
497.55,3.32,4.52,3.30,4.49,-4.49,-4.54,-4.93,-1.17,-1.20,-1.20
502.52,3.27,4.46,3.26,4.45,-4.45,-4.49,-4.91,-1.18,-1.19,-1.19
507.55,3.22,4.39,3.23,4.40,-4.40,-4.45,-4.87,-1.18,-1.17,-1.17
512.62,3.17,4.33,3.19,4.35,-4.35,-4.41,-4.83,-1.18,-1.16,-1.16
517.75,3.13,4.27,3.15,4.30,-4.30,-4.36,-4.79,-1.17,-1.15,-1.14
522.93,3.10,4.23,3.12,4.25,-4.25,-4.31,-4.74,-1.15,-1.14,-1.13
