frequency,raw,error,smoothed,error_smoothed,equalization,parametric_eq,fixed_band_eq,equalized_raw,equalized_smoothed,target
20.00,-14.29,-17.29,-14.33,-17.36,17.36,15.52,4.40,3.07,3.03,3.00
20.20,-14.11,-17.16,-14.14,-17.21,17.21,15.85,4.51,3.10,3.07,3.05
20.40,-13.94,-17.04,-13.95,-17.05,17.05,16.16,4.63,3.11,3.10,3.10
20.61,-13.76,-16.89,-13.75,-16.89,16.89,16.42,4.75,3.13,3.14,3.13
20.81,-13.59,-16.77,-13.55,-16.72,16.72,16.64,4.87,3.14,3.17,3.18
21.02,-13.41,-16.63,-13.36,-16.55,16.55,16.80,5.00,3.15,3.20,3.22
21.23,-13.20,-16.44,-13.16,-16.38,16.38,16.91,5.13,3.18,3.22,3.24
21.44,-12.99,-16.25,-12.96,-16.20,16.20,16.95,5.27,3.22,3.25,3.26
21.66,-12.77,-16.05,-12.76,-16.02,16.02,16.92,5.41,3.25,3.27,3.28
21.87,-12.56,-15.85,-12.55,-15.84,15.84,16.83,5.55,3.28,3.28,3.29
22.09,-12.35,-15.66,-12.35,-15.65,15.65,16.69,5.69,3.30,3.30,3.31
22.31,-12.13,-15.45,-12.14,-15.46,15.46,16.49,5.84,3.33,3.31,3.32
22.54,-11.91,-15.23,-11.93,-15.25,15.25,16.25,6.00,3.34,3.32,3.32
22.76,-11.69,-15.01,-11.72,-15.04,15.04,15.98,6.15,3.36,3.32,3.32
22.99,-11.47,-14.78,-11.51,-14.83,14.83,15.68,6.32,3.36,3.32,3.31
23.22,-11.27,-14.58,-11.30,-14.62,14.62,15.37,6.48,3.35,3.33,3.31
23.45,-11.08,-14.39,-11.08,-14.41,14.41,15.05,6.65,3.33,3.33,3.31
23.69,-10.89,-14.21,-10.87,-14.19,14.19,14.72,6.82,3.30,3.33,3.32
23.92,-10.69,-14.01,-10.65,-13.97,13.97,14.39,7.00,3.29,3.33,3.32
24.16,-10.47,-13.79,-10.43,-13.76,13.76,14.06,7.18,3.29,3.33,3.32
24.40,-10.25,-13.58,-10.21,-13.54,13.54,13.74,7.37,3.29,3.33,3.33
24.65,-10.02,-13.34,-10.00,-13.32,13.32,13.43,7.56,3.30,3.32,3.32
24.89,-9.78,-13.11,-9.78,-13.11,13.11,13.13,7.75,3.32,3.33,3.32
25.14,-9.56,-12.88,-9.57,-12.89,12.89,12.84,7.94,3.34,3.33,3.32
25.39,-9.31,-12.65,-9.35,-12.68,12.68,12.56,8.14,3.36,3.33,3.33
25.65,-9.09,-12.42,-9.13,-12.46,12.46,12.30,8.34,3.37,3.33,3.33
25.91,-8.86,-12.19,-8.91,-12.24,12.24,12.05,8.54,3.37,3.33,3.32
26.16,-8.65,-11.97,-8.69,-12.01,12.01,11.81,8.75,3.37,3.33,3.32
26.43,-8.46,-11.78,-8.46,-11.78,11.78,11.58,8.95,3.32,3.32,3.32
26.69,-8.27,-11.59,-8.23,-11.56,11.56,11.36,9.15,3.29,3.32,3.32
26.96,-8.08,-11.40,-8.01,-11.33,11.33,11.16,9.36,3.25,3.32,3.32
27.23,-7.84,-11.16,-7.79,-11.10,11.10,10.96,9.56,3.26,3.32,3.32
27.50,-7.59,-10.91,-7.56,-10.88,10.88,10.77,9.75,3.29,3.32,3.32
27.77,-7.34,-10.65,-7.34,-10.66,10.66,10.59,9.94,3.32,3.32,3.31
28.05,-7.10,-10.41,-7.12,-10.43,10.43,10.41,10.13,3.33,3.31,3.31
28.33,-6.86,-10.16,-6.89,-10.20,10.20,10.23,10.31,3.35,3.31,3.30
28.62,-6.63,-9.94,-6.66,-9.97,9.97,10.05,10.47,3.34,3.31,3.30
28.90,-6.40,-9.71,-6.43,-9.74,9.74,9.87,10.63,3.35,3.31,3.31
29.19,-6.18,-9.48,-6.20,-9.51,9.51,9.68,10.77,3.33,3.31,3.30
29.48,-5.97,-9.28,-5.97,-9.28,9.28,9.48,10.89,3.31,3.31,3.31
29.78,-5.76,-9.06,-5.73,-9.04,9.04,9.28,11.00,3.28,3.31,3.30
30.08,-5.54,-8.85,-5.50,-8.80,8.80,9.06,11.09,3.26,3.30,3.31
30.38,-5.29,-8.60,-5.27,-8.57,8.57,8.84,11.15,3.28,3.30,3.30
30.68,-5.05,-8.35,-5.03,-8.33,8.33,8.60,11.19,3.28,3.30,3.30
30.99,-4.80,-8.10,-4.80,-8.10,8.10,8.36,11.21,3.30,3.30,3.30
31.30,-4.57,-7.86,-4.57,-7.86,7.86,8.12,11.20,3.29,3.30,3.29
31.61,-4.34,-7.63,-4.33,-7.63,7.63,7.87,11.17,3.29,3.29,3.29
31.93,-4.10,-7.39,-4.10,-7.39,7.39,7.61,11.11,3.29,3.29,3.29
32.24,-3.86,-7.14,-3.86,-7.15,7.15,7.36,11.03,3.29,3.29,3.28
32.57,-3.61,-6.89,-3.63,-6.91,6.91,7.10,10.92,3.30,3.28,3.28
32.89,-3.36,-6.64,-3.40,-6.68,6.68,6.85,10.80,3.33,3.28,3.28
33.22,-3.15,-6.42,-3.18,-6.45,6.45,6.60,10.65,3.31,3.27,3.27
33.55,-2.95,-6.22,-2.96,-6.23,6.23,6.35,10.49,3.28,3.27,3.27
33.89,-2.75,-6.01,-2.75,-6.01,6.01,6.11,10.31,3.26,3.26,3.26
34.23,-2.54,-5.80,-2.53,-5.79,5.79,5.87,10.12,3.25,3.26,3.26
34.57,-2.32,-5.57,-2.31,-5.57,5.57,5.64,9.91,3.25,3.26,3.25
34.92,-2.09,-5.34,-2.10,-5.35,5.35,5.42,9.70,3.26,3.25,3.25
35.27,-1.90,-5.14,-1.88,-5.13,5.13,5.19,9.48,3.23,3.25,3.24
35.62,-1.70,-4.94,-1.67,-4.91,4.91,4.98,9.25,3.21,3.25,3.24
35.97,-1.51,-4.75,-1.45,-4.70,4.70,4.77,9.01,3.19,3.24,3.24
36.33,-1.28,-4.52,-1.24,-4.49,4.49,4.56,8.78,3.21,3.24,3.24
36.70,-1.05,-4.28,-1.04,-4.28,4.28,4.36,8.54,3.23,3.24,3.23
37.06,-0.82,-4.05,-0.82,-4.06,4.06,4.16,8.30,3.25,3.24,3.23
37.43,-0.58,-3.82,-0.61,-3.85,3.85,3.96,8.06,3.27,3.24,3.24
37.81,-0.35,-3.59,-0.40,-3.64,3.64,3.77,7.82,3.29,3.24,3.24
38.19,-0.15,-3.38,-0.19,-3.44,3.44,3.58,7.58,3.29,3.24,3.23
38.57,0.01,-3.23,0.00,-3.24,3.24,3.40,7.34,3.25,3.24,3.24
38.95,0.17,-3.08,0.20,-3.05,3.05,3.21,7.10,3.22,3.24,3.25
39.34,0.36,-2.88,0.39,-2.86,2.86,3.03,6.87,3.22,3.24,3.24
39.74,0.55,-2.69,0.57,-2.67,2.67,2.86,6.63,3.22,3.24,3.24
40.14,0.74,-2.50,0.75,-2.49,2.49,2.68,6.40,3.23,3.24,3.24
40.54,0.95,-2.29,0.92,-2.32,2.32,2.50,6.18,3.27,3.24,3.24
40.94,1.16,-2.07,1.09,-2.15,2.15,2.33,5.95,3.31,3.24,3.23
41.35,1.27,-1.96,1.24,-1.99,1.99,2.16,5.73,3.26,3.23,3.23
41.76,1.37,-1.85,1.40,-1.82,1.82,1.99,5.51,3.19,3.22,3.22
42.18,1.50,-1.72,1.56,-1.65,1.65,1.82,5.29,3.16,3.22,3.22
42.60,1.69,-1.52,1.72,-1.49,1.49,1.66,5.08,3.18,3.21,3.21
43.03,1.87,-1.33,1.87,-1.32,1.32,1.50,4.87,3.19,3.19,3.20
43.46,2.01,-1.18,2.02,-1.16,1.16,1.34,4.66,3.17,3.18,3.19
43.90,2.15,-1.02,2.17,-1.00,1.00,1.19,4.46,3.15,3.17,3.17
44.33,2.27,-0.88,2.30,-0.85,0.85,1.04,4.26,3.13,3.16,3.15
44.78,2.40,-0.73,2.44,-0.71,0.71,0.90,4.06,3.11,3.15,3.13
45.23,2.54,-0.58,2.56,-0.57,0.57,0.76,3.86,3.11,3.13,3.12
45.68,2.70,-0.41,2.67,-0.45,0.45,0.63,3.67,3.15,3.12,3.11
46.13,2.83,-0.26,2.78,-0.32,0.32,0.51,3.48,3.15,3.10,3.09
46.60,2.90,-0.19,2.88,-0.21,0.21,0.40,3.29,3.11,3.09,3.09
47.06,2.97,-0.10,2.96,-0.11,0.11,0.30,3.10,3.09,3.07,3.07
47.53,3.04,-0.02,3.02,-0.04,0.04,0.21,2.92,3.08,3.06,3.06
48.01,3.11,0.05,3.07,0.03,-0.03,0.13,2.74,3.09,3.05,3.06
48.49,3.12,0.08,3.10,0.07,-0.07,0.07,2.56,3.05,3.03,3.04
48.97,3.14,0.12,3.12,0.10,-0.10,0.02,2.38,3.04,3.02,3.02
49.46,3.13,0.13,3.11,0.11,-0.11,-0.02,2.21,3.02,3.01,3.00
49.96,3.11,0.13,3.09,0.10,-0.10,-0.05,2.04,3.01,2.99,2.98
50.46,3.09,0.12,3.07,0.09,-0.09,-0.07,1.87,3.00,2.98,2.97
50.96,3.07,0.11,3.03,0.07,-0.07,-0.07,1.70,3.01,2.96,2.96
51.47,3.01,0.07,2.99,0.04,-0.04,-0.07,1.54,2.97,2.95,2.94
51.99,2.95,0.02,2.94,0.00,-0.00,-0.05,1.38,2.95,2.94,2.93
52.51,2.86,-0.06,2.90,-0.03,0.03,-0.03,1.23,2.89,2.93,2.92
53.03,2.78,-0.14,2.85,-0.06,0.06,0.00,1.07,2.84,2.91,2.92
53.56,2.74,-0.16,2.82,-0.08,0.08,0.04,0.93,2.82,2.90,2.90
54.10,2.71,-0.18,2.79,-0.10,0.10,0.08,0.78,2.81,2.89,2.89
54.64,2.70,-0.17,2.76,-0.12,0.12,0.13,0.64,2.82,2.88,2.87
55.18,2.70,-0.17,2.74,-0.13,0.13,0.18,0.51,2.83,2.87,2.87
55.74,2.71,-0.14,2.72,-0.14,0.14,0.23,0.38,2.85,2.86,2.85
56.29,2.69,-0.15,2.70,-0.15,0.15,0.28,0.25,2.84,2.85,2.84
56.86,2.63,-0.20,2.67,-0.16,0.16,0.34,0.13,2.79,2.83,2.83
57.42,2.64,-0.16,2.65,-0.17,0.17,0.39,0.02,2.81,2.82,2.80
58.00,2.69,-0.10,2.61,-0.18,0.18,0.45,-0.09,2.88,2.80,2.79
58.58,2.68,-0.10,2.57,-0.20,0.20,0.50,-0.19,2.88,2.77,2.78
59.16,2.63,-0.13,2.51,-0.23,0.23,0.55,-0.29,2.86,2.75,2.76
59.76,2.47,-0.27,2.44,-0.28,0.28,0.61,-0.37,2.75,2.72,2.74
60.35,2.36,-0.34,2.36,-0.34,0.34,0.66,-0.45,2.70,2.69,2.70
60.96,2.29,-0.37,2.25,-0.41,0.41,0.71,-0.53,2.70,2.66,2.66
61.57,2.12,-0.50,2.13,-0.49,0.49,0.75,-0.59,2.61,2.62,2.62
62.18,1.97,-0.61,2.01,-0.58,0.58,0.80,-0.65,2.55,2.58,2.58
62.80,1.89,-0.64,1.88,-0.66,0.66,0.84,-0.70,2.55,2.54,2.53
63.43,1.76,-0.73,1.74,-0.76,0.76,0.89,-0.74,2.52,2.50,2.49
64.07,1.62,-0.82,1.60,-0.85,0.85,0.93,-0.77,2.48,2.45,2.44
64.71,1.45,-0.95,1.46,-0.95,0.95,0.97,-0.80,2.40,2.41,2.40
65.35,1.29,-1.07,1.33,-1.03,1.03,1.00,-0.82,2.32,2.36,2.36
66.01,1.14,-1.17,1.20,-1.11,1.11,1.04,-0.83,2.25,2.31,2.31
66.67,1.00,-1.26,1.09,-1.18,1.18,1.07,-0.84,2.18,2.27,2.26
67.33,0.91,-1.30,0.97,-1.25,1.25,1.11,-0.84,2.16,2.22,2.21
68.01,0.88,-1.29,0.86,-1.31,1.31,1.14,-0.84,2.19,2.17,2.17
68.69,0.80,-1.32,0.77,-1.36,1.36,1.17,-0.82,2.16,2.12,2.12
69.37,0.70,-1.37,0.67,-1.39,1.39,1.19,-0.81,2.09,2.07,2.07
70.07,0.58,-1.44,0.59,-1.43,1.43,1.22,-0.79,2.01,2.02,2.02
70.77,0.53,-1.44,0.51,-1.45,1.45,1.25,-0.76,1.98,1.96,1.97
71.48,0.45,-1.47,0.44,-1.47,1.47,1.27,-0.73,1.92,1.91,1.92
72.19,0.36,-1.49,0.38,-1.47,1.47,1.29,-0.69,1.84,1.85,1.85
72.91,0.31,-1.48,0.32,-1.48,1.48,1.32,-0.66,1.79,1.80,1.79
73.64,0.25,-1.49,0.26,-1.48,1.48,1.34,-0.62,1.73,1.74,1.74
74.38,0.20,-1.48,0.21,-1.48,1.48,1.36,-0.57,1.68,1.68,1.68
75.12,0.14,-1.48,0.16,-1.47,1.47,1.37,-0.53,1.61,1.63,1.62
75.87,0.14,-1.42,0.11,-1.46,1.46,1.39,-0.48,1.61,1.57,1.56
76.63,0.08,-1.43,0.07,-1.45,1.45,1.41,-0.43,1.53,1.52,1.51
77.40,0.00,-1.46,0.03,-1.44,1.44,1.42,-0.38,1.44,1.46,1.46
78.17,-0.06,-1.46,-0.02,-1.43,1.43,1.44,-0.33,1.37,1.41,1.40
78.95,-0.06,-1.42,-0.06,-1.42,1.42,1.45,-0.28,1.36,1.36,1.36
79.74,-0.07,-1.38,-0.09,-1.40,1.40,1.46,-0.22,1.34,1.31,1.31
80.54,-0.11,-1.37,-0.13,-1.39,1.39,1.48,-0.17,1.28,1.26,1.26
81.35,-0.15,-1.36,-0.17,-1.39,1.39,1.49,-0.12,1.24,1.22,1.21
82.16,-0.17,-1.33,-0.21,-1.38,1.38,1.50,-0.06,1.21,1.17,1.16
82.98,-0.25,-1.37,-0.25,-1.37,1.37,1.51,-0.00,1.12,1.12,1.12
83.81,-0.32,-1.39,-0.29,-1.36,1.36,1.51,0.05,1.05,1.07,1.07
84.65,-0.35,-1.37,-0.34,-1.36,1.36,1.52,0.11,1.01,1.02,1.02
85.50,-0.40,-1.38,-0.38,-1.35,1.35,1.53,0.17,0.95,0.97,0.98
86.35,-0.44,-1.37,-0.41,-1.34,1.34,1.53,0.22,0.90,0.93,0.93
87.22,-0.44,-1.32,-0.46,-1.34,1.34,1.54,0.28,0.90,0.88,0.88
88.09,-0.46,-1.29,-0.51,-1.34,1.34,1.54,0.34,0.88,0.83,0.83
88.97,-0.61,-1.38,-0.56,-1.33,1.33,1.54,0.39,0.73,0.78,0.77
89.86,-0.63,-1.35,-0.60,-1.33,1.33,1.54,0.45,0.70,0.72,0.72
90.76,-0.63,-1.30,-0.65,-1.32,1.32,1.55,0.51,0.69,0.67,0.67
91.66,-0.66,-1.28,-0.70,-1.32,1.32,1.55,0.57,0.66,0.62,0.62
92.58,-0.75,-1.31,-0.74,-1.32,1.32,1.55,0.62,0.57,0.57,0.56
93.51,-0.82,-1.33,-0.79,-1.31,1.31,1.54,0.68,0.49,0.52,0.51
94.44,-0.82,-1.29,-0.84,-1.32,1.32,1.54,0.74,0.50,0.47,0.47
95.39,-0.89,-1.31,-0.90,-1.32,1.32,1.54,0.79,0.43,0.42,0.42
96.34,-1.01,-1.38,-0.96,-1.33,1.33,1.53,0.85,0.32,0.37,0.37
97.30,-1.02,-1.34,-1.02,-1.34,1.34,1.53,0.90,0.33,0.32,0.32
98.28,-1.04,-1.31,-1.08,-1.35,1.35,1.53,0.96,0.31,0.28,0.27
99.26,-1.09,-1.32,-1.13,-1.36,1.36,1.52,1.01,0.27,0.23,0.23
100.25,-1.22,-1.40,-1.20,-1.38,1.38,1.51,1.07,0.16,0.18,0.18
101.25,-1.27,-1.40,-1.26,-1.40,1.40,1.50,1.12,0.13,0.13,0.13
102.27,-1.31,-1.39,-1.33,-1.41,1.41,1.50,1.18,0.10,0.08,0.08
103.29,-1.40,-1.43,-1.39,-1.42,1.42,1.49,1.23,0.03,0.04,0.03
104.32,-1.49,-1.48,-1.45,-1.44,1.44,1.48,1.28,-0.05,-0.01,-0.01
105.37,-1.53,-1.47,-1.51,-1.45,1.45,1.47,1.33,-0.08,-0.06,-0.06
106.42,-1.55,-1.44,-1.57,-1.46,1.46,1.46,1.38,-0.09,-0.12,-0.11
107.48,-1.61,-1.44,-1.63,-1.47,1.47,1.45,1.43,-0.14,-0.17,-0.17
108.56,-1.68,-1.46,-1.69,-1.47,1.47,1.44,1.48,-0.21,-0.22,-0.22
109.64,-1.77,-1.50,-1.74,-1.47,1.47,1.42,1.53,-0.30,-0.27,-0.27
110.74,-1.83,-1.50,-1.79,-1.47,1.47,1.41,1.57,-0.36,-0.32,-0.33
111.85,-1.85,-1.48,-1.84,-1.46,1.46,1.40,1.61,-0.39,-0.38,-0.37
112.97,-1.86,-1.43,-1.88,-1.46,1.46,1.39,1.65,-0.40,-0.42,-0.43
114.10,-1.92,-1.44,-1.93,-1.45,1.45,1.37,1.69,-0.47,-0.47,-0.48
115.24,-1.97,-1.44,-1.96,-1.44,1.44,1.36,1.72,-0.53,-0.52,-0.53
116.39,-2.03,-1.45,-2.00,-1.43,1.43,1.35,1.76,-0.60,-0.57,-0.58
117.55,-2.06,-1.44,-2.03,-1.42,1.42,1.33,1.79,-0.64,-0.61,-0.62
118.73,-2.05,-1.39,-2.06,-1.42,1.42,1.32,1.81,-0.63,-0.65,-0.66
119.92,-2.04,-1.35,-2.09,-1.41,1.41,1.30,1.84,-0.63,-0.69,-0.69
121.12,-2.11,-1.38,-2.12,-1.40,1.40,1.29,1.86,-0.71,-0.72,-0.73
122.33,-2.18,-1.42,-2.14,-1.39,1.39,1.27,1.87,-0.79,-0.76,-0.76
123.55,-2.21,-1.42,-2.17,-1.38,1.38,1.26,1.89,-0.82,-0.79,-0.79
124.79,-2.21,-1.39,-2.21,-1.39,1.39,1.24,1.90,-0.82,-0.82,-0.82
126.03,-2.20,-1.35,-2.24,-1.39,1.39,1.23,1.90,-0.81,-0.85,-0.85
127.29,-2.22,-1.35,-2.27,-1.39,1.39,1.21,1.91,-0.83,-0.88,-0.87
128.57,-2.28,-1.37,-2.30,-1.39,1.39,1.20,1.91,-0.88,-0.91,-0.91
129.85,-2.36,-1.42,-2.33,-1.39,1.39,1.18,1.91,-0.96,-0.94,-0.94
131.15,-2.37,-1.40,-2.36,-1.40,1.40,1.17,1.90,-0.97,-0.97,-0.97
132.46,-2.38,-1.38,-2.40,-1.40,1.40,1.15,1.89,-0.98,-0.99,-1.00
133.79,-2.44,-1.41,-2.42,-1.40,1.40,1.14,1.88,-1.04,-1.02,-1.03
135.12,-2.47,-1.41,-2.45,-1.40,1.40,1.12,1.86,-1.07,-1.05,-1.06
136.48,-2.52,-1.44,-2.47,-1.39,1.39,1.11,1.85,-1.12,-1.08,-1.08
137.84,-2.54,-1.42,-2.50,-1.40,1.40,1.09,1.83,-1.14,-1.11,-1.12
139.22,-2.54,-1.39,-2.53,-1.40,1.40,1.08,1.81,-1.14,-1.13,-1.15
140.61,-2.54,-1.36,-2.56,-1.39,1.39,1.06,1.78,-1.15,-1.16,-1.18
142.02,-2.53,-1.33,-2.58,-1.38,1.38,1.05,1.76,-1.15,-1.20,-1.20
143.44,-2.57,-1.34,-2.59,-1.36,1.36,1.03,1.73,-1.21,-1.23,-1.23
144.87,-2.62,-1.35,-2.61,-1.34,1.34,1.02,1.70,-1.28,-1.27,-1.27
146.32,-2.63,-1.32,-2.63,-1.31,1.31,1.01,1.67,-1.31,-1.31,-1.31
147.78,-2.63,-1.29,-2.65,-1.28,1.28,0.99,1.64,-1.34,-1.36,-1.34
149.26,-2.69,-1.30,-2.67,-1.25,1.25,0.98,1.61,-1.44,-1.42,-1.39
150.75,-2.73,-1.28,-2.69,-1.21,1.21,0.97,1.58,-1.52,-1.47,-1.45
152.26,-2.73,-1.21,-2.71,-1.17,1.17,0.95,1.55,-1.55,-1.54,-1.52
153.78,-2.73,-1.14,-2.74,-1.13,1.13,0.94,1.52,-1.59,-1.60,-1.59
155.32,-2.73,-1.07,-2.76,-1.09,1.09,0.93,1.49,-1.64,-1.67,-1.66
156.88,-2.73,-0.99,-2.79,-1.05,1.05,0.92,1.46,-1.68,-1.74,-1.74
158.44,-2.80,-0.98,-2.81,-1.00,1.00,0.91,1.43,-1.80,-1.81,-1.82
160.03,-2.82,-0.92,-2.84,-0.96,0.96,0.89,1.40,-1.86,-1.88,-1.90
161.63,-2.89,-0.92,-2.85,-0.91,0.91,0.88,1.37,-1.98,-1.94,-1.97
163.24,-2.91,-0.88,-2.87,-0.86,0.86,0.87,1.34,-2.05,-2.01,-2.03
164.88,-2.92,-0.84,-2.88,-0.82,0.82,0.86,1.31,-2.10,-2.06,-2.08
166.53,-2.93,-0.80,-2.90,-0.79,0.79,0.85,1.28,-2.14,-2.11,-2.13
168.19,-2.93,-0.76,-2.92,-0.76,0.76,0.84,1.25,-2.16,-2.15,-2.17
169.87,-2.94,-0.73,-2.94,-0.75,0.75,0.83,1.22,-2.18,-2.18,-2.21
171.57,-2.95,-0.72,-2.96,-0.75,0.75,0.82,1.19,-2.20,-2.21,-2.23
173.29,-2.95,-0.71,-2.98,-0.75,0.75,0.82,1.17,-2.20,-2.23,-2.24
175.02,-2.96,-0.71,-3.00,-0.75,0.75,0.81,1.14,-2.20,-2.24,-2.25
176.77,-2.96,-0.70,-3.01,-0.76,0.76,0.80,1.12,-2.20,-2.25,-2.26
178.54,-2.96,-0.69,-3.02,-0.76,0.76,0.79,1.10,-2.20,-2.26,-2.27
180.32,-3.03,-0.77,-3.03,-0.77,0.77,0.78,1.07,-2.26,-2.26,-2.26
182.13,-3.05,-0.80,-3.05,-0.78,0.78,0.78,1.05,-2.27,-2.27,-2.25
183.95,-3.14,-0.88,-3.06,-0.78,0.78,0.77,1.03,-2.36,-2.28,-2.26
185.79,-3.12,-0.86,-3.06,-0.78,0.78,0.76,1.01,-2.34,-2.28,-2.26
187.65,-3.11,-0.83,-3.06,-0.77,0.77,0.76,0.99,-2.34,-2.29,-2.28
189.52,-3.09,-0.80,-3.06,-0.76,0.76,0.75,0.97,-2.32,-2.30,-2.29
191.42,-3.08,-0.77,-3.06,-0.75,0.75,0.75,0.95,-2.33,-2.31,-2.31
193.33,-3.07,-0.74,-3.06,-0.73,0.73,0.74,0.94,-2.33,-2.33,-2.33
195.27,-3.05,-0.70,-3.06,-0.71,0.71,0.74,0.92,-2.34,-2.34,-2.35
197.22,-3.04,-0.67,-3.05,-0.69,0.69,0.73,0.91,-2.35,-2.36,-2.37
199.19,-3.03,-0.64,-3.05,-0.67,0.67,0.73,0.89,-2.36,-2.38,-2.39
201.18,-3.02,-0.61,-3.05,-0.65,0.65,0.73,0.88,-2.37,-2.40,-2.41
203.19,-3.01,-0.58,-3.05,-0.63,0.63,0.72,0.86,-2.38,-2.42,-2.43
205.23,-3.01,-0.56,-3.06,-0.61,0.61,0.72,0.85,-2.39,-2.45,-2.45
207.28,-3.05,-0.59,-3.08,-0.61,0.61,0.72,0.84,-2.44,-2.47,-2.46
209.35,-3.10,-0.62,-3.09,-0.61,0.61,0.72,0.83,-2.49,-2.48,-2.48
211.44,-3.11,-0.60,-3.11,-0.61,0.61,0.72,0.82,-2.50,-2.50,-2.51
213.56,-3.12,-0.60,-3.13,-0.62,0.62,0.71,0.81,-2.50,-2.52,-2.52
215.69,-3.18,-0.65,-3.15,-0.62,0.62,0.71,0.80,-2.56,-2.53,-2.53
217.85,-3.22,-0.68,-3.17,-0.63,0.63,0.71,0.79,-2.59,-2.54,-2.54
220.03,-3.22,-0.67,-3.18,-0.63,0.63,0.71,0.79,-2.59,-2.55,-2.55
222.23,-3.23,-0.65,-3.20,-0.64,0.64,0.71,0.78,-2.59,-2.56,-2.58
224.45,-3.23,-0.66,-3.21,-0.65,0.65,0.72,0.77,-2.58,-2.56,-2.57
226.70,-3.23,-0.66,-3.22,-0.66,0.66,0.72,0.77,-2.57,-2.56,-2.57
228.96,-3.22,-0.66,-3.22,-0.67,0.67,0.72,0.76,-2.55,-2.55,-2.56
231.25,-3.21,-0.66,-3.22,-0.68,0.68,0.72,0.75,-2.53,-2.55,-2.55
233.57,-3.21,-0.67,-3.22,-0.68,0.68,0.72,0.75,-2.52,-2.53,-2.54
235.90,-3.19,-0.66,-3.21,-0.69,0.69,0.73,0.75,-2.49,-2.52,-2.53
238.26,-3.18,-0.66,-3.21,-0.70,0.70,0.73,0.74,-2.47,-2.50,-2.52
240.64,-3.18,-0.69,-3.20,-0.71,0.71,0.74,0.74,-2.47,-2.48,-2.49
243.05,-3.21,-0.75,-3.19,-0.72,0.72,0.74,0.74,-2.48,-2.46,-2.46
245.48,-3.22,-0.78,-3.18,-0.74,0.74,0.75,0.74,-2.48,-2.44,-2.44
247.93,-3.19,-0.78,-3.17,-0.76,0.76,0.75,0.73,-2.43,-2.42,-2.41
250.41,-3.17,-0.78,-3.17,-0.77,0.77,0.76,0.73,-2.40,-2.39,-2.39
252.92,-3.16,-0.80,-3.16,-0.79,0.79,0.76,0.73,-2.37,-2.37,-2.36
255.45,-3.15,-0.81,-3.16,-0.81,0.81,0.77,0.73,-2.34,-2.34,-2.34
258.00,-3.14,-0.82,-3.15,-0.83,0.83,0.78,0.73,-2.31,-2.32,-2.32
260.58,-3.13,-0.83,-3.15,-0.85,0.85,0.79,0.73,-2.27,-2.29,-2.30
263.19,-3.13,-0.86,-3.15,-0.88,0.88,0.80,0.74,-2.25,-2.27,-2.27
265.82,-3.13,-0.88,-3.14,-0.90,0.90,0.81,0.74,-2.23,-2.25,-2.25
268.48,-3.14,-0.91,-3.14,-0.92,0.92,0.82,0.74,-2.22,-2.22,-2.23
271.16,-3.14,-0.94,-3.14,-0.94,0.94,0.83,0.74,-2.20,-2.20,-2.20
273.87,-3.14,-0.96,-3.13,-0.96,0.96,0.84,0.75,-2.18,-2.17,-2.18
276.61,-3.15,-1.00,-3.13,-0.99,0.99,0.85,0.75,-2.16,-2.15,-2.15
279.38,-3.14,-1.02,-3.13,-1.01,1.01,0.86,0.76,-2.12,-2.12,-2.12
282.17,-3.14,-1.04,-3.13,-1.04,1.04,0.88,0.76,-2.10,-2.09,-2.10
284.99,-3.14,-1.08,-3.12,-1.06,1.06,0.89,0.77,-2.08,-2.06,-2.06
287.84,-3.13,-1.09,-3.12,-1.09,1.09,0.91,0.77,-2.04,-2.03,-2.04
290.72,-3.12,-1.11,-3.11,-1.11,1.11,0.92,0.78,-2.01,-2.00,-2.01
293.63,-3.11,-1.13,-3.10,-1.13,1.13,0.94,0.79,-1.98,-1.97,-1.98
296.57,-3.09,-1.14,-3.09,-1.15,1.15,0.95,0.80,-1.94,-1.95,-1.95
299.53,-3.08,-1.16,-3.08,-1.17,1.17,0.97,0.80,-1.91,-1.92,-1.92
302.53,-3.07,-1.17,-3.07,-1.18,1.18,0.99,0.81,-1.89,-1.89,-1.90
305.55,-3.06,-1.20,-3.07,-1.20,1.20,1.01,0.82,-1.86,-1.86,-1.86
308.61,-3.05,-1.21,-3.06,-1.22,1.22,1.03,0.84,-1.83,-1.84,-1.84
311.69,-3.04,-1.23,-3.05,-1.23,1.23,1.04,0.85,-1.80,-1.82,-1.81
314.81,-3.04,-1.25,-3.04,-1.25,1.25,1.06,0.86,-1.79,-1.79,-1.79
317.96,-3.04,-1.27,-3.04,-1.27,1.27,1.08,0.87,-1.77,-1.77,-1.77
321.14,-3.04,-1.28,-3.04,-1.29,1.29,1.11,0.89,-1.75,-1.75,-1.76
324.35,-3.04,-1.30,-3.04,-1.31,1.31,1.13,0.90,-1.73,-1.74,-1.74
327.59,-3.04,-1.31,-3.04,-1.32,1.32,1.15,0.92,-1.72,-1.72,-1.73
330.87,-3.04,-1.32,-3.05,-1.34,1.34,1.17,0.94,-1.70,-1.71,-1.72
334.18,-3.04,-1.34,-3.04,-1.35,1.35,1.19,0.95,-1.69,-1.70,-1.70
337.52,-3.04,-1.35,-3.04,-1.35,1.35,1.22,0.97,-1.69,-1.69,-1.69
340.90,-3.04,-1.36,-3.03,-1.35,1.35,1.24,0.99,-1.69,-1.68,-1.68
344.30,-3.05,-1.38,-3.02,-1.35,1.35,1.26,1.01,-1.70,-1.67,-1.67
347.75,-3.05,-1.38,-3.01,-1.35,1.35,1.29,1.03,-1.70,-1.67,-1.67
351.23,-3.04,-1.38,-3.01,-1.34,1.34,1.31,1.05,-1.70,-1.66,-1.66
354.74,-3.04,-1.37,-3.00,-1.34,1.34,1.33,1.08,-1.70,-1.66,-1.67
358.28,-2.98,-1.32,-2.99,-1.33,1.33,1.36,1.10,-1.64,-1.66,-1.66
361.87,-2.95,-1.29,-2.98,-1.33,1.33,1.38,1.12,-1.62,-1.66,-1.66
365.49,-2.93,-1.28,-2.97,-1.32,1.32,1.40,1.15,-1.61,-1.65,-1.65
369.14,-2.92,-1.26,-2.96,-1.31,1.31,1.42,1.17,-1.61,-1.65,-1.66
372.83,-2.92,-1.26,-2.96,-1.30,1.30,1.44,1.20,-1.62,-1.66,-1.66
376.56,-2.97,-1.30,-2.96,-1.30,1.30,1.46,1.23,-1.67,-1.66,-1.67
380.33,-2.99,-1.33,-2.96,-1.30,1.30,1.48,1.26,-1.69,-1.66,-1.66
384.13,-2.99,-1.33,-2.96,-1.30,1.30,1.50,1.28,-1.69,-1.67,-1.66
387.97,-2.98,-1.31,-2.97,-1.30,1.30,1.52,1.31,-1.68,-1.67,-1.67
391.85,-2.98,-1.30,-2.98,-1.31,1.31,1.54,1.34,-1.67,-1.67,-1.68
395.77,-2.98,-1.31,-3.00,-1.32,1.32,1.55,1.37,-1.66,-1.68,-1.67
399.73,-2.98,-1.30,-3.02,-1.33,1.33,1.56,1.40,-1.65,-1.69,-1.68
403.72,-3.00,-1.32,-3.04,-1.35,1.35,1.57,1.43,-1.65,-1.69,-1.68
407.76,-3.06,-1.36,-3.06,-1.36,1.36,1.58,1.46,-1.70,-1.70,-1.70
411.84,-3.08,-1.38,-3.07,-1.38,1.38,1.59,1.49,-1.70,-1.70,-1.70
415.96,-3.09,-1.39,-3.08,-1.39,1.39,1.60,1.52,-1.70,-1.70,-1.70
420.12,-3.08,-1.38,-3.09,-1.39,1.39,1.60,1.55,-1.69,-1.70,-1.70
424.32,-3.08,-1.38,-3.09,-1.40,1.40,1.60,1.58,-1.68,-1.69,-1.70
428.56,-3.12,-1.43,-3.09,-1.41,1.41,1.60,1.61,-1.71,-1.68,-1.69
432.85,-3.14,-1.46,-3.08,-1.42,1.42,1.60,1.64,-1.72,-1.66,-1.68
437.18,-3.12,-1.45,-3.07,-1.43,1.43,1.59,1.66,-1.69,-1.64,-1.67
441.55,-3.09,-1.46,-3.05,-1.43,1.43,1.58,1.69,-1.66,-1.62,-1.63
445.96,-3.04,-1.44,-3.02,-1.44,1.44,1.57,1.71,-1.60,-1.59,-1.60
450.42,-2.99,-1.42,-2.99,-1.44,1.44,1.56,1.73,-1.55,-1.55,-1.57
454.93,-2.93,-1.41,-2.95,-1.44,1.44,1.55,1.75,-1.49,-1.51,-1.52
459.48,-2.87,-1.39,-2.91,-1.45,1.45,1.53,1.77,-1.42,-1.47,-1.48
464.07,-2.85,-1.42,-2.87,-1.45,1.45,1.52,1.78,-1.40,-1.42,-1.43
468.71,-2.84,-1.47,-2.83,-1.46,1.46,1.50,1.79,-1.38,-1.37,-1.37
473.40,-2.79,-1.46,-2.79,-1.47,1.47,1.47,1.80,-1.32,-1.32,-1.33
