frequency,raw,error,smoothed,error_smoothed,equalization,parametric_eq,fixed_band_eq,equalized_raw,equalized_smoothed,target
20.00,-18.81,-21.16,-18.81,-21.17,21.16,20.32,8.73,2.35,2.35,2.36
20.20,-18.66,-21.06,-18.65,-21.06,21.05,20.32,8.90,2.40,2.40,2.41
20.40,-18.50,-20.95,-18.50,-20.95,20.95,20.31,9.08,2.45,2.45,2.46
20.61,-18.35,-20.84,-18.34,-20.84,20.84,20.30,9.25,2.49,2.50,2.49
20.81,-18.19,-20.72,-18.19,-20.72,20.74,20.28,9.44,2.55,2.55,2.54
21.02,-18.04,-20.61,-18.04,-20.61,20.63,20.26,9.62,2.59,2.59,2.58
21.23,-17.91,-20.50,-17.91,-20.51,20.52,20.23,9.82,2.61,2.61,2.60
21.44,-17.79,-20.40,-17.79,-20.40,20.41,20.19,10.01,2.62,2.62,2.62
21.66,-17.67,-20.31,-17.66,-20.30,20.29,20.14,10.21,2.63,2.63,2.64
21.87,-17.54,-20.18,-17.54,-20.19,20.18,20.09,10.42,2.65,2.64,2.65
22.09,-17.41,-20.07,-17.41,-20.07,20.06,20.03,10.63,2.66,2.66,2.67
22.31,-17.28,-19.95,-17.28,-19.95,19.94,19.97,10.85,2.67,2.67,2.68
22.54,-17.15,-19.83,-17.15,-19.83,19.82,19.90,11.08,2.67,2.67,2.68
22.76,-17.02,-19.69,-17.02,-19.69,19.70,19.82,11.31,2.68,2.68,2.68
22.99,-16.89,-19.55,-16.89,-19.56,19.57,19.74,11.54,2.68,2.68,2.67
23.22,-16.76,-19.42,-16.76,-19.43,19.44,19.65,11.79,2.68,2.68,2.67
23.45,-16.64,-19.30,-16.64,-19.31,19.31,19.56,12.04,2.67,2.68,2.67
23.69,-16.51,-19.19,-16.51,-19.18,19.18,19.46,12.30,2.67,2.67,2.68
23.92,-16.39,-19.06,-16.38,-19.06,19.04,19.35,12.56,2.66,2.66,2.68
24.16,-16.25,-18.92,-16.24,-18.93,18.91,19.24,12.84,2.66,2.66,2.68
24.40,-16.10,-18.78,-16.10,-18.78,18.77,19.13,13.12,2.68,2.67,2.69
24.65,-15.96,-18.64,-15.95,-18.63,18.64,19.01,13.41,2.68,2.69,2.68
24.89,-15.81,-18.48,-15.81,-18.49,18.50,18.89,13.71,2.70,2.69,2.68
25.14,-15.68,-18.35,-15.68,-18.36,18.37,18.76,14.02,2.69,2.69,2.68
25.39,-15.55,-18.23,-15.55,-18.23,18.24,18.63,14.34,2.69,2.69,2.69
25.65,-15.43,-18.12,-15.43,-18.11,18.11,18.49,14.67,2.69,2.69,2.69
25.91,-15.31,-17.99,-15.30,-17.99,17.99,18.35,15.01,2.68,2.69,2.68
26.16,-15.18,-17.85,-15.18,-17.86,17.87,18.21,15.36,2.69,2.68,2.68
26.43,-15.06,-17.74,-15.06,-17.74,17.74,18.07,15.72,2.68,2.67,2.68
26.69,-14.94,-17.61,-14.94,-17.62,17.60,17.92,16.09,2.66,2.66,2.68
26.96,-14.82,-17.50,-14.81,-17.49,17.46,17.77,16.47,2.64,2.65,2.68
27.23,-14.66,-17.34,-14.66,-17.33,17.31,17.61,16.86,2.65,2.65,2.68
27.50,-14.49,-17.17,-14.49,-17.17,17.16,17.46,17.26,2.67,2.67,2.68
27.77,-14.32,-16.99,-14.32,-16.99,17.01,17.30,17.66,2.69,2.69,2.67
28.05,-14.16,-16.82,-14.17,-16.83,16.86,17.14,18.07,2.70,2.69,2.67
28.33,-14.03,-16.68,-14.02,-16.69,16.71,16.98,18.48,2.68,2.68,2.66
28.62,-13.89,-16.55,-13.89,-16.55,16.55,16.82,18.89,2.67,2.67,2.66
28.90,-13.76,-16.42,-13.75,-16.41,16.40,16.66,19.29,2.65,2.65,2.67
29.19,-13.61,-16.26,-13.60,-16.27,16.25,16.49,19.68,2.64,2.65,2.66
29.48,-13.45,-16.11,-13.45,-16.12,16.10,16.32,20.04,2.65,2.65,2.67
29.78,-13.30,-15.96,-13.30,-15.96,15.94,16.16,20.36,2.65,2.65,2.66
30.08,-13.14,-15.81,-13.13,-15.80,15.79,15.99,20.64,2.65,2.65,2.67
30.38,-12.97,-15.63,-12.97,-15.63,15.63,15.82,20.87,2.66,2.66,2.66
30.68,-12.80,-15.45,-12.80,-15.46,15.47,15.65,21.02,2.68,2.67,2.66
30.99,-12.64,-15.30,-12.65,-15.30,15.32,15.48,21.10,2.68,2.68,2.66
31.30,-12.51,-15.16,-12.51,-15.16,15.18,15.31,21.10,2.67,2.67,2.65
31.61,-12.38,-15.02,-12.37,-15.02,15.04,15.13,21.02,2.66,2.66,2.65
31.93,-12.25,-14.90,-12.25,-14.89,14.90,14.96,20.85,2.65,2.65,2.65
32.24,-12.12,-14.75,-12.12,-14.77,14.75,14.79,20.62,2.64,2.63,2.64
32.57,-12.00,-14.64,-12.00,-14.63,14.61,14.61,20.33,2.61,2.61,2.64
32.89,-11.87,-14.50,-11.86,-14.49,14.45,14.44,19.98,2.59,2.60,2.64
33.22,-11.70,-14.32,-11.69,-14.32,14.30,14.27,19.60,2.60,2.61,2.63
33.55,-11.51,-14.13,-11.50,-14.13,14.13,14.09,19.20,2.63,2.63,2.63
33.89,-11.31,-13.93,-11.32,-13.94,13.97,13.92,18.77,2.66,2.65,2.62
34.23,-11.15,-13.77,-11.15,-13.77,13.80,13.74,18.34,2.65,2.65,2.62
34.57,-11.01,-13.61,-11.00,-13.61,13.63,13.57,17.90,2.62,2.62,2.61
34.92,-10.86,-13.47,-10.86,-13.46,13.45,13.40,17.46,2.59,2.60,2.61
35.27,-10.70,-13.30,-10.70,-13.30,13.28,13.22,17.03,2.58,2.58,2.60
35.62,-10.54,-13.14,-10.54,-13.13,13.11,13.05,16.60,2.57,2.57,2.60
35.97,-10.37,-12.96,-10.36,-12.96,12.95,12.87,16.18,2.58,2.58,2.60
36.33,-10.19,-12.78,-10.18,-12.78,12.79,12.70,15.77,2.60,2.61,2.60
36.70,-10.01,-12.60,-10.01,-12.60,12.63,12.52,15.36,2.62,2.62,2.59
37.06,-9.84,-12.42,-9.85,-12.44,12.48,12.35,14.97,2.64,2.62,2.59
37.43,-9.72,-12.31,-9.72,-12.31,12.32,12.18,14.59,2.61,2.61,2.60
37.81,-9.60,-12.19,-9.59,-12.18,12.17,12.00,14.21,2.57,2.58,2.60
38.19,-9.46,-12.05,-9.45,-12.05,12.02,11.83,13.85,2.56,2.57,2.59
38.57,-9.30,-11.89,-9.30,-11.90,11.88,11.65,13.50,2.58,2.57,2.60
38.95,-9.14,-11.74,-9.13,-11.73,11.73,11.48,13.15,2.59,2.60,2.61
39.34,-8.97,-11.56,-8.96,-11.56,11.57,11.31,12.81,2.61,2.61,2.60
39.74,-8.79,-11.39,-8.79,-11.39,11.41,11.13,12.49,2.62,2.61,2.60
40.14,-8.63,-11.23,-8.64,-11.24,11.23,10.96,12.17,2.60,2.59,2.60
40.54,-8.49,-11.09,-8.49,-11.08,11.05,10.79,11.86,2.57,2.57,2.60
40.94,-8.34,-10.92,-8.32,-10.91,10.88,10.62,11.55,2.54,2.56,2.59
41.35,-8.13,-10.71,-8.12,-10.71,10.70,10.45,11.26,2.58,2.58,2.59
41.76,-7.91,-10.48,-7.92,-10.50,10.53,10.27,10.97,2.63,2.61,2.58
42.18,-7.73,-10.30,-7.74,-10.32,10.36,10.10,10.68,2.64,2.62,2.58
42.60,-7.60,-10.16,-7.59,-10.16,10.19,9.93,10.41,2.59,2.59,2.57
43.03,-7.48,-10.03,-7.47,-10.03,10.01,9.76,10.13,2.53,2.54,2.56
43.46,-7.33,-9.87,-7.33,-9.88,9.83,9.59,9.87,2.51,2.50,2.55
43.90,-7.19,-9.72,-7.17,-9.70,9.66,9.42,9.61,2.48,2.49,2.53
44.33,-7.00,-9.50,-6.99,-9.49,9.50,9.25,9.35,2.50,2.51,2.51
44.78,-6.79,-9.28,-6.81,-9.30,9.33,9.08,9.10,2.54,2.52,2.49
45.23,-6.63,-9.11,-6.65,-9.12,9.16,8.91,8.85,2.53,2.51,2.48
45.68,-6.52,-8.99,-6.51,-8.97,8.98,8.74,8.61,2.46,2.47,2.47
46.13,-6.39,-8.83,-6.37,-8.83,8.80,8.57,8.37,2.42,2.43,2.45
46.60,-6.22,-8.67,-6.22,-8.66,8.63,8.40,8.14,2.41,2.41,2.45
47.06,-6.04,-8.46,-6.03,-8.46,8.46,8.23,7.91,2.42,2.42,2.43
47.53,-5.85,-8.26,-5.85,-8.27,8.28,8.07,7.68,2.43,2.43,2.42
48.01,-5.66,-8.08,-5.68,-8.09,8.10,7.90,7.46,2.44,2.42,2.42
48.49,-5.52,-7.92,-5.52,-7.91,7.91,7.73,7.24,2.40,2.40,2.40
48.97,-5.38,-7.75,-5.36,-7.74,7.72,7.56,7.02,2.35,2.37,2.38
49.46,-5.19,-7.54,-5.19,-7.55,7.54,7.40,6.81,2.35,2.34,2.36
49.96,-5.01,-7.35,-5.01,-7.35,7.35,7.23,6.60,2.34,2.34,2.34
50.46,-4.83,-7.16,-4.83,-7.15,7.17,7.06,6.39,2.34,2.34,2.33
50.96,-4.65,-6.96,-4.66,-6.97,6.99,6.90,6.19,2.34,2.33,2.32
51.47,-4.51,-6.80,-4.50,-6.80,6.81,6.73,5.99,2.30,2.30,2.30
51.99,-4.36,-6.65,-4.35,-6.64,6.63,6.57,5.79,2.27,2.28,2.29
52.51,-4.19,-6.47,-4.19,-6.47,6.46,6.40,5.59,2.27,2.27,2.28
53.03,-4.01,-6.28,-4.01,-6.29,6.29,6.24,5.40,2.28,2.27,2.28
53.56,-3.85,-6.10,-3.85,-6.11,6.12,6.07,5.21,2.27,2.27,2.26
54.10,-3.69,-5.94,-3.69,-5.94,5.95,5.91,5.02,2.26,2.25,2.25
54.64,-3.55,-5.78,-3.54,-5.78,5.77,5.75,4.84,2.22,2.23,2.23
55.18,-3.40,-5.62,-3.39,-5.61,5.59,5.58,4.66,2.20,2.21,2.23
55.74,-3.22,-5.43,-3.22,-5.43,5.42,5.42,4.48,2.20,2.20,2.21
56.29,-3.05,-5.24,-3.04,-5.24,5.24,5.26,4.30,2.20,2.20,2.20
56.86,-2.87,-5.06,-2.88,-5.06,5.07,5.10,4.13,2.20,2.19,2.19
57.42,-2.72,-4.87,-2.72,-4.88,4.90,4.94,3.97,2.18,2.18,2.16
58.00,-2.58,-4.73,-2.56,-4.71,4.73,4.78,3.80,2.15,2.17,2.15
58.58,-2.41,-4.55,-2.41,-4.55,4.56,4.62,3.64,2.15,2.15,2.14
59.16,-2.26,-4.37,-2.27,-4.38,4.38,4.46,3.48,2.13,2.12,2.12
59.76,-2.13,-4.23,-2.13,-4.23,4.20,4.30,3.33,2.08,2.07,2.10
60.35,-2.01,-4.06,-2.00,-4.06,4.02,4.14,3.18,2.02,2.02,2.06
60.96,-1.88,-3.90,-1.85,-3.87,3.84,3.98,3.03,1.96,1.99,2.02
61.57,-1.68,-3.66,-1.68,-3.66,3.66,3.82,2.88,1.98,1.98,1.98
62.18,-1.49,-3.42,-1.51,-3.44,3.48,3.66,2.74,1.99,1.97,1.94
62.80,-1.36,-3.24,-1.36,-3.25,3.30,3.50,2.61,1.94,1.94,1.89
63.43,-1.25,-3.09,-1.24,-3.09,3.11,3.35,2.47,1.86,1.87,1.85
64.07,-1.14,-2.94,-1.13,-2.93,2.92,3.19,2.34,1.79,1.79,1.80
64.71,-1.02,-2.78,-1.01,-2.77,2.74,3.04,2.21,1.72,1.73,1.76
65.35,-0.87,-2.58,-0.87,-2.58,2.56,2.88,2.09,1.69,1.69,1.72
66.01,-0.72,-2.39,-0.71,-2.38,2.37,2.73,1.97,1.65,1.66,1.67
66.67,-0.55,-2.17,-0.56,-2.18,2.18,2.57,1.85,1.63,1.62,1.62
67.33,-0.40,-1.96,-0.41,-1.98,1.98,2.42,1.73,1.59,1.57,1.57
68.01,-0.28,-1.81,-0.26,-1.79,1.78,2.26,1.62,1.50,1.52,1.53
68.69,-0.12,-1.60,-0.11,-1.59,1.58,2.11,1.50,1.46,1.47,1.48
69.37,0.04,-1.38,0.04,-1.39,1.39,1.96,1.39,1.43,1.43,1.43
70.07,0.19,-1.19,0.19,-1.19,1.21,1.81,1.28,1.40,1.40,1.38
70.77,0.33,-0.99,0.33,-0.99,1.03,1.66,1.17,1.36,1.36,1.33
71.48,0.45,-0.83,0.44,-0.83,0.85,1.51,1.06,1.30,1.29,1.28
72.19,0.54,-0.66,0.53,-0.68,0.68,1.36,0.96,1.22,1.21,1.21
72.91,0.58,-0.56,0.62,-0.53,0.51,1.21,0.85,1.09,1.13,1.15
73.64,0.73,-0.36,0.73,-0.37,0.33,1.06,0.74,1.06,1.06,1.10
74.38,0.86,-0.17,0.84,-0.19,0.16,0.92,0.64,1.02,1.00,1.04
75.12,0.97,-0.00,0.98,0.00,-0.01,0.77,0.53,0.97,0.97,0.98
75.87,1.09,0.18,1.11,0.19,-0.17,0.62,0.43,0.92,0.94,0.92
76.63,1.24,0.38,1.23,0.37,-0.34,0.48,0.32,0.91,0.89,0.87
77.40,1.35,0.54,1.34,0.53,-0.49,0.34,0.21,0.86,0.85,0.82
78.17,1.42,0.67,1.43,0.66,-0.64,0.19,0.10,0.78,0.78,0.76
78.95,1.50,0.79,1.49,0.78,-0.79,0.05,-0.01,0.72,0.70,0.72
79.74,1.54,0.88,1.56,0.90,-0.93,-0.09,-0.12,0.62,0.64,0.67
80.54,1.64,1.03,1.65,1.04,-1.06,-0.23,-0.23,0.58,0.59,0.62
81.35,1.76,1.19,1.75,1.18,-1.19,-0.37,-0.34,0.57,0.56,0.57
82.16,1.85,1.34,1.83,1.31,-1.32,-0.51,-0.46,0.54,0.52,0.52
82.98,1.90,1.43,1.91,1.44,-1.43,-0.65,-0.57,0.47,0.48,0.48
83.81,1.96,1.54,2.01,1.58,-1.55,-0.78,-0.69,0.41,0.46,0.43
84.65,2.11,1.74,2.08,1.70,-1.67,-0.92,-0.81,0.45,0.42,0.38
85.50,2.17,1.83,2.12,1.79,-1.78,-1.05,-0.93,0.39,0.34,0.34
86.35,2.13,1.85,2.15,1.86,-1.89,-1.19,-1.06,0.25,0.27,0.29
87.22,2.12,1.89,2.19,1.95,-1.99,-1.32,-1.19,0.14,0.20,0.24
88.09,2.27,2.08,2.24,2.06,-2.08,-1.45,-1.31,0.19,0.16,0.19
88.97,2.36,2.24,2.33,2.20,-2.18,-1.58,-1.45,0.18,0.15,0.13
89.86,2.36,2.29,2.40,2.32,-2.28,-1.71,-1.58,0.08,0.12,0.08
90.76,2.44,2.41,2.43,2.40,-2.39,-1.84,-1.71,0.05,0.04,0.03
91.66,2.46,2.49,2.45,2.48,-2.50,-1.96,-1.85,-0.03,-0.05,-0.02
92.58,2.48,2.57,2.49,2.57,-2.60,-2.09,-1.99,-0.12,-0.11,-0.08
93.51,2.53,2.67,2.56,2.69,-2.70,-2.21,-2.14,-0.17,-0.14,-0.13
94.44,2.64,2.82,2.65,2.83,-2.80,-2.34,-2.28,-0.16,-0.15,-0.17
95.39,2.77,2.99,2.72,2.94,-2.90,-2.46,-2.43,-0.13,-0.19,-0.22
96.34,2.77,3.05,2.75,3.03,-3.02,-2.58,-2.57,-0.24,-0.26,-0.27
97.30,2.72,3.05,2.78,3.10,-3.13,-2.70,-2.73,-0.41,-0.35,-0.32
98.28,2.82,3.19,2.83,3.20,-3.25,-2.82,-2.88,-0.43,-0.42,-0.37
99.26,2.94,3.36,2.93,3.34,-3.37,-2.93,-3.03,-0.43,-0.44,-0.41
100.25,3.05,3.52,3.04,3.50,-3.49,-3.05,-3.19,-0.44,-0.45,-0.46
101.25,3.12,3.64,3.12,3.63,-3.61,-3.16,-3.34,-0.48,-0.49,-0.51
102.27,3.17,3.74,3.18,3.75,-3.73,-3.27,-3.50,-0.55,-0.54,-0.56
103.29,3.23,3.85,3.23,3.84,-3.84,-3.38,-3.66,-0.60,-0.61,-0.61
104.32,3.28,3.94,3.27,3.93,-3.94,-3.49,-3.81,-0.65,-0.66,-0.65
105.37,3.30,4.01,3.33,4.04,-4.02,-3.60,-3.97,-0.72,-0.69,-0.70
106.42,3.37,4.13,3.38,4.13,-4.10,-3.70,-4.12,-0.72,-0.72,-0.75
107.48,3.43,4.25,3.37,4.17,-4.16,-3.81,-4.28,-0.73,-0.80,-0.81
108.56,3.34,4.21,3.35,4.22,-4.22,-3.91,-4.43,-0.88,-0.87,-0.86
109.64,3.26,4.18,3.34,4.26,-4.28,-4.01,-4.58,-1.02,-0.94,-0.91
110.74,3.38,4.36,3.34,4.31,-4.34,-4.11,-4.73,-0.95,-0.99,-0.97
111.85,3.40,4.42,3.38,4.40,-4.40,-4.20,-4.87,-0.99,-1.02,-1.01
112.97,3.39,4.47,3.40,4.47,-4.46,-4.30,-5.01,-1.07,-1.06,-1.07
114.10,3.39,4.52,3.39,4.52,-4.54,-4.39,-5.14,-1.15,-1.14,-1.12
115.24,3.40,4.58,3.42,4.59,-4.62,-4.48,-5.27,-1.22,-1.20,-1.17
116.39,3.46,4.69,3.47,4.69,-4.70,-4.57,-5.39,-1.24,-1.23,-1.22
117.55,3.53,4.80,3.53,4.79,-4.78,-4.66,-5.50,-1.24,-1.25,-1.26
118.73,3.59,4.90,3.58,4.88,-4.85,-4.75,-5.61,-1.26,-1.27,-1.30
119.92,3.60,4.94,3.61,4.94,-4.91,-4.83,-5.70,-1.31,-1.31,-1.33
121.12,3.61,4.99,3.62,4.99,-4.97,-4.92,-5.79,-1.36,-1.36,-1.37
122.33,3.62,5.03,3.62,5.03,-5.03,-5.00,-5.87,-1.41,-1.40,-1.40
123.55,3.63,5.07,3.63,5.07,-5.07,-5.08,-5.94,-1.44,-1.44,-1.43
124.79,3.64,5.11,3.64,5.10,-5.11,-5.15,-5.99,-1.47,-1.47,-1.46
126.03,3.64,5.14,3.65,5.14,-5.14,-5.23,-6.04,-1.50,-1.50,-1.49
127.29,3.65,5.17,3.65,5.17,-5.18,-5.30,-6.08,-1.52,-1.52,-1.51
128.57,3.66,5.22,3.66,5.21,-5.21,-5.37,-6.11,-1.55,-1.55,-1.55
129.85,3.66,5.25,3.67,5.25,-5.25,-5.44,-6.13,-1.58,-1.58,-1.58
131.15,3.67,5.29,3.67,5.28,-5.28,-5.51,-6.14,-1.61,-1.61,-1.61
132.46,3.67,5.32,3.68,5.32,-5.32,-5.58,-6.15,-1.64,-1.64,-1.64
133.79,3.68,5.36,3.68,5.35,-5.35,-5.64,-6.14,-1.67,-1.67,-1.67
135.12,3.68,5.39,3.68,5.38,-5.38,-5.70,-6.13,-1.70,-1.70,-1.70
136.48,3.68,5.41,3.68,5.41,-5.42,-5.76,-6.11,-1.73,-1.73,-1.72
137.84,3.68,5.45,3.69,5.45,-5.45,-5.82,-6.09,-1.76,-1.76,-1.76
139.22,3.69,5.49,3.69,5.48,-5.48,-5.88,-6.06,-1.78,-1.79,-1.79
140.61,3.69,5.52,3.69,5.51,-5.51,-5.93,-6.03,-1.81,-1.81,-1.82
142.02,3.69,5.54,3.69,5.54,-5.54,-5.98,-5.99,-1.84,-1.84,-1.84
143.44,3.69,5.57,3.69,5.57,-5.57,-6.03,-5.95,-1.88,-1.88,-1.87
144.87,3.69,5.61,3.69,5.60,-5.60,-6.08,-5.91,-1.91,-1.91,-1.91
146.32,3.69,5.65,3.69,5.64,-5.64,-6.13,-5.87,-1.95,-1.95,-1.95
147.78,3.69,5.68,3.69,5.68,-5.69,-6.18,-5.82,-1.99,-1.99,-1.98
149.26,3.69,5.73,3.69,5.73,-5.74,-6.22,-5.78,-2.04,-2.04,-2.03
150.75,3.69,5.79,3.69,5.79,-5.79,-6.26,-5.74,-2.10,-2.10,-2.09
152.26,3.69,5.86,3.69,5.85,-5.86,-6.30,-5.69,-2.17,-2.17,-2.16
153.78,3.69,5.93,3.69,5.92,-5.93,-6.34,-5.65,-2.24,-2.24,-2.23
155.32,3.69,6.00,3.69,6.00,-6.01,-6.37,-5.62,-2.32,-2.32,-2.30
156.88,3.69,6.08,3.69,6.07,-6.09,-6.41,-5.58,-2.40,-2.40,-2.38
158.44,3.69,6.16,3.69,6.15,-6.16,-6.44,-5.55,-2.47,-2.47,-2.46
160.03,3.69,6.24,3.71,6.25,-6.23,-6.47,-5.51,-2.54,-2.52,-2.54
161.63,3.71,6.33,3.71,6.32,-6.28,-6.50,-5.49,-2.57,-2.57,-2.61
163.24,3.73,6.41,3.69,6.37,-6.33,-6.53,-5.46,-2.60,-2.64,-2.67
164.88,3.64,6.37,3.66,6.38,-6.37,-6.55,-5.44,-2.73,-2.71,-2.72
166.53,3.59,6.37,3.61,6.38,-6.40,-6.58,-5.43,-2.80,-2.79,-2.77
168.19,3.57,6.39,3.57,6.39,-6.42,-6.60,-5.41,-2.84,-2.84,-2.81
169.87,3.57,6.43,3.57,6.41,-6.43,-6.62,-5.40,-2.85,-2.86,-2.85
171.57,3.56,6.44,3.56,6.43,-6.43,-6.64,-5.40,-2.87,-2.87,-2.87
173.29,3.55,6.44,3.56,6.44,-6.43,-6.66,-5.40,-2.88,-2.88,-2.88
175.02,3.55,6.45,3.55,6.44,-6.44,-6.68,-5.40,-2.88,-2.89,-2.89
176.77,3.54,6.45,3.55,6.45,-6.44,-6.69,-5.41,-2.90,-2.90,-2.90
178.54,3.54,6.46,3.55,6.45,-6.45,-6.71,-5.42,-2.91,-2.90,-2.91
180.32,3.55,6.46,3.55,6.45,-6.45,-6.72,-5.44,-2.90,-2.91,-2.90
182.13,3.55,6.45,3.55,6.45,-6.46,-6.73,-5.46,-2.91,-2.91,-2.89
183.95,3.56,6.47,3.56,6.46,-6.47,-6.74,-5.48,-2.91,-2.91,-2.90
185.79,3.57,6.48,3.58,6.48,-6.49,-6.75,-5.51,-2.92,-2.91,-2.90
187.65,3.59,6.52,3.59,6.51,-6.51,-6.76,-5.55,-2.92,-2.92,-2.92
189.52,3.60,6.54,3.60,6.54,-6.54,-6.76,-5.58,-2.94,-2.94,-2.93
191.42,3.61,6.57,3.62,6.57,-6.57,-6.77,-5.62,-2.96,-2.95,-2.95
193.33,3.63,6.61,3.63,6.60,-6.60,-6.77,-5.67,-2.97,-2.97,-2.97
195.27,3.65,6.65,3.65,6.64,-6.64,-6.77,-5.72,-2.99,-2.99,-2.99
197.22,3.66,6.68,3.66,6.68,-6.67,-6.77,-5.77,-3.01,-3.01,-3.01
199.19,3.67,6.71,3.67,6.71,-6.70,-6.77,-5.83,-3.03,-3.03,-3.03
201.18,3.68,6.74,3.68,6.73,-6.73,-6.77,-5.88,-3.05,-3.05,-3.05
203.19,3.68,6.76,3.69,6.76,-6.76,-6.77,-5.95,-3.08,-3.07,-3.07
205.23,3.69,6.79,3.69,6.78,-6.78,-6.77,-6.01,-3.09,-3.09,-3.09
207.28,3.69,6.80,3.69,6.80,-6.79,-6.76,-6.07,-3.10,-3.10,-3.10
209.35,3.68,6.81,3.69,6.81,-6.80,-6.76,-6.14,-3.12,-3.12,-3.12
211.44,3.68,6.84,3.69,6.83,-6.82,-6.75,-6.21,-3.13,-3.13,-3.15
213.56,3.68,6.85,3.68,6.84,-6.83,-6.74,-6.28,-3.15,-3.16,-3.16
215.69,3.67,6.85,3.66,6.83,-6.85,-6.74,-6.35,-3.18,-3.20,-3.17
217.85,3.64,6.83,3.65,6.84,-6.87,-6.73,-6.42,-3.23,-3.22,-3.18
220.03,3.63,6.83,3.67,6.87,-6.89,-6.72,-6.49,-3.26,-3.23,-3.19
222.23,3.72,6.95,3.70,6.91,-6.91,-6.71,-6.56,-3.19,-3.21,-3.22
224.45,3.76,6.98,3.75,6.96,-6.94,-6.70,-6.63,-3.17,-3.19,-3.21
226.70,3.77,6.99,3.78,6.99,-6.95,-6.68,-6.69,-3.18,-3.18,-3.21
228.96,3.77,6.98,3.78,6.98,-6.97,-6.67,-6.76,-3.20,-3.19,-3.20
231.25,3.78,6.98,3.78,6.98,-6.98,-6.66,-6.82,-3.20,-3.20,-3.19
233.57,3.79,6.98,3.79,6.98,-6.98,-6.64,-6.87,-3.19,-3.19,-3.18
235.90,3.80,6.98,3.80,6.98,-6.98,-6.63,-6.93,-3.18,-3.18,-3.17
238.26,3.81,6.98,3.82,6.97,-6.97,-6.62,-6.97,-3.16,-3.16,-3.16
240.64,3.83,6.97,3.83,6.96,-6.96,-6.60,-7.02,-3.13,-3.14,-3.13
243.05,3.84,6.95,3.85,6.95,-6.96,-6.58,-7.05,-3.12,-3.11,-3.10
245.48,3.86,6.95,3.87,6.95,-6.95,-6.57,-7.09,-3.09,-3.09,-3.08
247.93,3.89,6.95,3.89,6.94,-6.95,-6.55,-7.11,-3.06,-3.06,-3.05
250.41,3.91,6.95,3.91,6.94,-6.94,-6.53,-7.13,-3.03,-3.03,-3.03
252.92,3.93,6.94,3.93,6.94,-6.93,-6.52,-7.15,-3.00,-3.00,-3.00
255.45,3.94,6.93,3.94,6.93,-6.91,-6.50,-7.16,-2.97,-2.97,-2.98
258.00,3.95,6.92,3.95,6.91,-6.90,-6.48,-7.16,-2.95,-2.95,-2.96
260.58,3.95,6.90,3.96,6.90,-6.89,-6.46,-7.16,-2.94,-2.93,-2.94
263.19,3.96,6.88,3.94,6.86,-6.88,-6.44,-7.16,-2.92,-2.94,-2.91
265.82,3.94,6.84,3.95,6.84,-6.87,-6.42,-7.15,-2.92,-2.92,-2.89
268.48,3.93,6.81,3.97,6.84,-6.85,-6.40,-7.13,-2.92,-2.88,-2.87
271.16,4.02,6.87,4.00,6.84,-6.84,-6.38,-7.11,-2.82,-2.84,-2.84
273.87,4.04,6.87,4.03,6.85,-6.83,-6.36,-7.09,-2.79,-2.80,-2.82
276.61,4.04,6.84,4.05,6.84,-6.82,-6.34,-7.07,-2.78,-2.77,-2.79
279.38,4.04,6.81,4.05,6.81,-6.81,-6.32,-7.04,-2.77,-2.76,-2.76
282.17,4.05,6.80,4.04,6.78,-6.80,-6.30,-7.01,-2.75,-2.76,-2.74
284.99,4.05,6.76,4.07,6.78,-6.78,-6.28,-6.98,-2.73,-2.72,-2.70
287.84,4.06,6.75,4.09,6.77,-6.77,-6.26,-6.95,-2.70,-2.68,-2.68
290.72,4.16,6.82,4.10,6.75,-6.74,-6.24,-6.92,-2.58,-2.64,-2.65
293.63,4.09,6.72,4.11,6.73,-6.72,-6.22,-6.89,-2.63,-2.61,-2.62
296.57,4.09,6.69,4.11,6.71,-6.70,-6.20,-6.86,-2.61,-2.59,-2.59
299.53,4.11,6.68,4.10,6.67,-6.69,-6.19,-6.84,-2.57,-2.58,-2.56
302.53,4.12,6.67,4.12,6.66,-6.67,-6.17,-6.81,-2.55,-2.55,-2.54
305.55,4.13,6.64,4.13,6.64,-6.65,-6.15,-6.79,-2.51,-2.51,-2.50
308.61,4.14,6.63,4.14,6.62,-6.62,-6.13,-6.77,-2.48,-2.48,-2.48
311.69,4.14,6.60,4.15,6.60,-6.59,-6.11,-6.75,-2.45,-2.44,-2.45
314.81,4.15,6.59,4.15,6.59,-6.56,-6.09,-6.74,-2.41,-2.41,-2.43
317.96,4.15,6.57,4.13,6.55,-6.53,-6.08,-6.73,-2.38,-2.40,-2.41
321.14,4.10,6.51,4.11,6.51,-6.51,-6.06,-6.72,-2.40,-2.40,-2.40
324.35,4.06,6.45,4.08,6.46,-6.48,-6.04,-6.72,-2.42,-2.41,-2.38
327.59,4.05,6.43,4.05,6.42,-6.45,-6.03,-6.72,-2.40,-2.41,-2.37
330.87,4.05,6.42,4.06,6.42,-6.43,-6.01,-6.73,-2.38,-2.37,-2.36
334.18,4.05,6.40,4.08,6.42,-6.41,-6.00,-6.74,-2.36,-2.33,-2.34
337.52,4.12,6.46,4.08,6.41,-6.39,-5.98,-6.76,-2.27,-2.31,-2.33
340.90,4.07,6.40,4.08,6.40,-6.38,-5.97,-6.78,-2.31,-2.30,-2.32
344.30,4.04,6.36,4.06,6.37,-6.37,-5.96,-6.80,-2.33,-2.31,-2.31
347.75,4.04,6.36,4.04,6.35,-6.36,-5.95,-6.84,-2.32,-2.32,-2.31
351.23,4.04,6.35,4.04,6.35,-6.36,-5.94,-6.87,-2.31,-2.31,-2.30
354.74,4.05,6.37,4.05,6.36,-6.35,-5.93,-6.91,-2.30,-2.30,-2.31
358.28,4.05,6.36,4.05,6.36,-6.36,-5.92,-6.96,-2.30,-2.30,-2.30
361.87,4.06,6.37,4.05,6.35,-6.37,-5.91,-7.01,-2.31,-2.32,-2.30
365.49,4.06,6.36,4.07,6.36,-6.39,-5.91,-7.07,-2.33,-2.32,-2.29
369.14,4.07,6.38,4.10,6.40,-6.41,-5.90,-7.13,-2.34,-2.31,-2.30
372.83,4.15,6.46,4.14,6.44,-6.44,-5.90,-7.20,-2.28,-2.30,-2.30
376.56,4.19,6.51,4.18,6.48,-6.46,-5.90,-7.27,-2.27,-2.28,-2.31
380.33,4.19,6.50,4.20,6.51,-6.48,-5.90,-7.35,-2.29,-2.28,-2.30
384.13,4.20,6.51,4.20,6.51,-6.50,-5.90,-7.43,-2.30,-2.30,-2.30
387.97,4.20,6.52,4.21,6.52,-6.52,-5.91,-7.51,-2.31,-2.31,-2.31
391.85,4.21,6.54,4.21,6.53,-6.52,-5.91,-7.60,-2.31,-2.31,-2.32
395.77,4.21,6.53,4.21,6.53,-6.53,-5.92,-7.70,-2.31,-2.31,-2.31
399.73,4.21,6.54,4.21,6.53,-6.53,-5.93,-7.80,-2.32,-2.32,-2.32
403.72,4.21,6.54,4.21,6.53,-6.54,-5.94,-7.90,-2.33,-2.33,-2.32
407.76,4.20,6.55,4.20,6.54,-6.55,-5.96,-8.00,-2.35,-2.35,-2.34
411.84,4.20,6.55,4.21,6.55,-6.57,-5.98,-8.11,-2.37,-2.36,-2.34
415.96,4.23,6.58,4.24,6.58,-6.60,-6.00,-8.22,-2.36,-2.36,-2.34
420.12,4.29,6.64,4.29,6.63,-6.63,-6.02,-8.33,-2.34,-2.34,-2.34
424.32,4.34,6.69,4.34,6.68,-6.67,-6.04,-8.44,-2.33,-2.33,-2.34
428.56,4.40,6.74,4.38,6.72,-6.72,-6.07,-8.55,-2.32,-2.34,-2.33
432.85,4.43,6.76,4.44,6.77,-6.77,-6.10,-8.67,-2.34,-2.33,-2.32
437.18,4.49,6.81,4.53,6.83,-6.83,-6.14,-8.77,-2.34,-2.31,-2.31
441.55,4.64,6.92,4.62,6.89,-6.90,-6.18,-8.88,-2.25,-2.28,-2.27
445.96,4.74,6.99,4.72,6.97,-6.96,-6.22,-8.98,-2.22,-2.24,-2.24
450.42,4.79,7.01,4.82,7.03,-7.03,-6.27,-9.08,-2.23,-2.20,-2.21
454.93,4.93,7.10,4.91,7.08,-7.09,-6.32,-9.17,-2.16,-2.18,-2.16
