frequency,raw,error,smoothed,error_smoothed,equalization,parametric_eq,fixed_band_eq,equalized_raw,equalized_smoothed,target
20.00,-18.81,-21.16,-18.77,-21.15,21.15,19.17,8.73,2.35,2.39,2.36
20.20,-18.66,-21.06,-18.63,-21.05,21.05,19.27,8.90,2.40,2.42,2.41
20.40,-18.50,-20.95,-18.49,-20.95,20.95,19.37,9.08,2.45,2.46,2.46
20.61,-18.35,-20.84,-18.35,-20.85,20.85,19.46,9.26,2.50,2.49,2.49
20.81,-18.19,-20.72,-18.22,-20.74,20.74,19.54,9.44,2.55,2.52,2.54
21.02,-18.04,-20.61,-18.08,-20.63,20.63,19.61,9.63,2.59,2.55,2.58
21.23,-17.91,-20.50,-17.94,-20.52,20.52,19.67,9.82,2.61,2.58,2.60
21.44,-17.79,-20.40,-17.81,-20.41,20.41,19.72,10.02,2.62,2.60,2.62
21.66,-17.67,-20.31,-17.67,-20.29,20.29,19.76,10.22,2.62,2.62,2.64
21.87,-17.54,-20.18,-17.54,-20.18,20.18,19.79,10.43,2.64,2.64,2.65
22.09,-17.41,-20.07,-17.40,-20.06,20.06,19.80,10.65,2.65,2.65,2.67
22.31,-17.28,-19.95,-17.27,-19.94,19.94,19.81,10.87,2.66,2.67,2.68
22.54,-17.15,-19.83,-17.14,-19.82,19.82,19.80,11.09,2.67,2.67,2.68
22.76,-17.02,-19.69,-17.02,-19.70,19.70,19.78,11.32,2.68,2.68,2.68
22.99,-16.89,-19.55,-16.89,-19.57,19.57,19.75,11.56,2.68,2.68,2.67
23.22,-16.76,-19.42,-16.76,-19.44,19.44,19.71,11.81,2.68,2.68,2.67
23.45,-16.64,-19.30,-16.63,-19.31,19.31,19.65,12.07,2.67,2.68,2.67
23.69,-16.51,-19.19,-16.49,-19.18,19.18,19.58,12.33,2.67,2.68,2.68
23.92,-16.39,-19.06,-16.36,-19.04,19.04,19.50,12.60,2.66,2.68,2.68
24.16,-16.25,-18.92,-16.23,-18.91,18.91,19.41,12.88,2.66,2.68,2.68
24.40,-16.10,-18.78,-16.09,-18.77,18.77,19.31,13.16,2.68,2.68,2.69
24.65,-15.96,-18.64,-15.97,-18.64,18.64,19.20,13.46,2.69,2.68,2.68
24.89,-15.81,-18.48,-15.84,-18.52,18.52,19.07,13.77,2.71,2.68,2.68
25.14,-15.68,-18.35,-15.71,-18.39,18.39,18.94,14.08,2.71,2.68,2.68
25.39,-15.55,-18.23,-15.58,-18.26,18.26,18.80,14.41,2.71,2.68,2.69
25.65,-15.43,-18.12,-15.44,-18.13,18.13,18.65,14.75,2.70,2.68,2.69
25.91,-15.31,-17.99,-15.31,-17.99,17.99,18.50,15.10,2.68,2.68,2.68
26.16,-15.18,-17.85,-15.17,-17.85,17.85,18.34,15.46,2.68,2.68,2.68
26.43,-15.06,-17.74,-15.04,-17.72,17.72,18.17,15.83,2.66,2.68,2.68
26.69,-14.94,-17.61,-14.90,-17.58,17.58,17.99,16.22,2.64,2.68,2.68
26.96,-14.82,-17.50,-14.77,-17.44,17.44,17.82,16.62,2.62,2.67,2.68
27.23,-14.66,-17.34,-14.63,-17.30,17.30,17.63,17.03,2.64,2.67,2.68
27.50,-14.49,-17.17,-14.49,-17.16,17.16,17.45,17.45,2.67,2.67,2.68
27.77,-14.32,-16.99,-14.35,-17.02,17.02,17.26,17.88,2.69,2.67,2.67
28.05,-14.16,-16.82,-14.20,-16.87,16.87,17.06,18.32,2.71,2.67,2.67
28.33,-14.03,-16.68,-14.05,-16.72,16.72,16.87,18.76,2.69,2.67,2.66
28.62,-13.89,-16.55,-13.90,-16.56,16.56,16.67,19.21,2.67,2.67,2.66
28.90,-13.76,-16.42,-13.74,-16.40,16.40,16.47,19.65,2.65,2.66,2.67
29.19,-13.61,-16.26,-13.58,-16.25,16.25,16.27,20.08,2.64,2.66,2.66
29.48,-13.45,-16.11,-13.43,-16.09,16.09,16.07,20.49,2.64,2.66,2.67
29.78,-13.30,-15.96,-13.27,-15.93,15.93,15.87,20.87,2.64,2.66,2.66
30.08,-13.14,-15.81,-13.13,-15.78,15.78,15.67,21.20,2.64,2.66,2.67
30.38,-12.97,-15.63,-12.98,-15.64,15.64,15.47,21.47,2.67,2.66,2.66
30.68,-12.80,-15.45,-12.84,-15.50,15.50,15.26,21.67,2.70,2.66,2.66
30.99,-12.64,-15.30,-12.70,-15.35,15.35,15.06,21.78,2.71,2.65,2.66
31.30,-12.51,-15.16,-12.55,-15.20,15.20,14.86,21.79,2.69,2.65,2.65
31.61,-12.38,-15.02,-12.40,-15.05,15.05,14.66,21.71,2.67,2.65,2.65
31.93,-12.25,-14.90,-12.25,-14.89,14.89,14.46,21.54,2.64,2.65,2.65
32.24,-12.12,-14.75,-12.10,-14.74,14.74,14.26,21.28,2.62,2.64,2.64
32.57,-12.00,-14.64,-11.95,-14.59,14.59,14.06,20.95,2.59,2.64,2.64
32.89,-11.87,-14.50,-11.80,-14.43,14.43,13.86,20.57,2.57,2.63,2.64
33.22,-11.70,-14.32,-11.65,-14.28,14.28,13.66,20.15,2.58,2.63,2.63
33.55,-11.51,-14.13,-11.50,-14.12,14.12,13.46,19.70,2.62,2.62,2.63
33.89,-11.31,-13.93,-11.34,-13.96,13.96,13.26,19.24,2.65,2.62,2.62
34.23,-11.15,-13.77,-11.18,-13.79,13.79,13.07,18.76,2.65,2.61,2.62
34.57,-11.01,-13.61,-11.02,-13.63,13.63,12.87,18.29,2.62,2.61,2.61
34.92,-10.86,-13.47,-10.85,-13.46,13.46,12.68,17.82,2.60,2.61,2.61
35.27,-10.70,-13.30,-10.69,-13.29,13.29,12.49,17.35,2.59,2.60,2.60
35.62,-10.54,-13.14,-10.53,-13.13,13.13,12.30,16.90,2.59,2.60,2.60
35.97,-10.37,-12.96,-10.36,-12.96,12.96,12.11,16.45,2.60,2.60,2.60
36.33,-10.19,-12.78,-10.20,-12.80,12.80,11.92,16.02,2.61,2.60,2.60
36.70,-10.01,-12.60,-10.04,-12.64,12.64,11.73,15.59,2.63,2.60,2.59
37.06,-9.84,-12.42,-9.89,-12.49,12.49,11.54,15.18,2.65,2.59,2.59
37.43,-9.72,-12.31,-9.74,-12.34,12.34,11.36,14.78,2.62,2.60,2.60
37.81,-9.60,-12.19,-9.59,-12.18,12.18,11.17,14.40,2.59,2.60,2.60
38.19,-9.46,-12.05,-9.43,-12.03,12.03,10.99,14.02,2.57,2.60,2.59
38.57,-9.30,-11.89,-9.27,-11.87,11.87,10.81,13.65,2.57,2.60,2.60
38.95,-9.14,-11.74,-9.11,-11.70,11.70,10.63,13.30,2.57,2.60,2.61
39.34,-8.97,-11.56,-8.94,-11.54,11.54,10.45,12.95,2.58,2.60,2.60
39.74,-8.79,-11.39,-8.78,-11.38,11.38,10.27,12.62,2.59,2.60,2.60
40.14,-8.63,-11.23,-8.63,-11.22,11.22,10.09,12.29,2.59,2.60,2.60
40.54,-8.49,-11.09,-8.47,-11.06,11.06,9.92,11.97,2.57,2.59,2.60
40.94,-8.34,-10.92,-8.30,-10.89,10.89,9.74,11.66,2.55,2.59,2.59
41.35,-8.13,-10.71,-8.13,-10.72,10.72,9.57,11.35,2.59,2.59,2.59
41.76,-7.91,-10.48,-7.96,-10.54,10.54,9.40,11.06,2.63,2.58,2.58
42.18,-7.73,-10.30,-7.79,-10.36,10.36,9.22,10.77,2.64,2.57,2.58
42.60,-7.60,-10.16,-7.63,-10.19,10.19,9.05,10.49,2.59,2.56,2.57
43.03,-7.48,-10.03,-7.47,-10.02,10.02,8.88,10.21,2.54,2.55,2.56
43.46,-7.33,-9.87,-7.31,-9.84,9.84,8.72,9.94,2.52,2.54,2.55
43.90,-7.19,-9.72,-7.14,-9.67,9.67,8.55,9.67,2.48,2.53,2.53
44.33,-7.00,-9.50,-6.98,-9.50,9.50,8.38,9.41,2.50,2.51,2.51
44.78,-6.79,-9.28,-6.82,-9.32,9.32,8.22,9.16,2.54,2.50,2.49
45.23,-6.63,-9.11,-6.67,-9.15,9.15,8.05,8.91,2.52,2.49,2.48
45.68,-6.52,-8.99,-6.51,-8.98,8.98,7.89,8.66,2.46,2.47,2.47
46.13,-6.39,-8.83,-6.35,-8.81,8.81,7.73,8.42,2.42,2.46,2.45
46.60,-6.22,-8.67,-6.19,-8.63,8.63,7.56,8.18,2.41,2.44,2.45
47.06,-6.04,-8.46,-6.02,-8.45,8.45,7.40,7.95,2.41,2.43,2.43
47.53,-5.85,-8.26,-5.85,-8.27,8.27,7.24,7.72,2.42,2.41,2.42
48.01,-5.66,-8.08,-5.68,-8.08,8.08,7.09,7.50,2.43,2.40,2.42
48.49,-5.52,-7.92,-5.52,-7.90,7.90,6.93,7.27,2.39,2.39,2.40
48.97,-5.38,-7.75,-5.35,-7.72,7.72,6.77,7.05,2.35,2.37,2.38
49.46,-5.19,-7.54,-5.18,-7.54,7.54,6.62,6.84,2.36,2.36,2.36
49.96,-5.01,-7.35,-5.02,-7.36,7.36,6.46,6.62,2.35,2.35,2.34
50.46,-4.83,-7.16,-4.85,-7.18,7.18,6.31,6.41,2.35,2.33,2.33
50.96,-4.65,-6.96,-4.68,-7.00,7.00,6.15,6.21,2.35,2.32,2.32
51.47,-4.51,-6.80,-4.51,-6.82,6.82,6.00,6.00,2.31,2.31,2.30
51.99,-4.36,-6.65,-4.34,-6.64,6.64,5.85,5.80,2.28,2.29,2.29
52.51,-4.19,-6.47,-4.18,-6.46,6.46,5.70,5.60,2.27,2.28,2.28
53.03,-4.01,-6.28,-4.02,-6.29,6.29,5.55,5.41,2.28,2.27,2.28
53.56,-3.85,-6.10,-3.85,-6.11,6.11,5.40,5.22,2.26,2.26,2.26
54.10,-3.69,-5.94,-3.69,-5.93,5.93,5.26,5.03,2.24,2.25,2.25
54.64,-3.55,-5.78,-3.52,-5.76,5.76,5.11,4.84,2.21,2.24,2.23
55.18,-3.40,-5.62,-3.37,-5.59,5.59,4.96,4.66,2.19,2.23,2.23
55.74,-3.22,-5.43,-3.21,-5.42,5.42,4.82,4.48,2.21,2.21,2.21
56.29,-3.05,-5.24,-3.05,-5.26,5.26,4.67,4.30,2.21,2.20,2.20
56.86,-2.87,-5.06,-2.90,-5.08,5.08,4.53,4.13,2.21,2.19,2.19
57.42,-2.72,-4.87,-2.73,-4.90,4.90,4.39,3.96,2.19,2.17,2.16
58.00,-2.58,-4.73,-2.58,-4.73,4.73,4.25,3.79,2.15,2.15,2.15
58.58,-2.41,-4.55,-2.42,-4.55,4.55,4.11,3.63,2.14,2.13,2.14
59.16,-2.26,-4.37,-2.27,-4.37,4.37,3.97,3.47,2.12,2.10,2.12
59.76,-2.13,-4.23,-2.12,-4.20,4.20,3.83,3.31,2.07,2.08,2.10
60.35,-2.01,-4.06,-1.98,-4.02,4.02,3.69,3.16,2.01,2.05,2.06
60.96,-1.88,-3.90,-1.83,-3.84,3.84,3.55,3.01,1.96,2.01,2.02
61.57,-1.68,-3.66,-1.69,-3.66,3.66,3.42,2.87,1.98,1.98,1.98
62.18,-1.49,-3.42,-1.55,-3.48,3.48,3.28,2.72,2.00,1.94,1.94
62.80,-1.36,-3.24,-1.41,-3.30,3.30,3.15,2.59,1.95,1.90,1.89
63.43,-1.25,-3.09,-1.27,-3.12,3.12,3.01,2.45,1.87,1.85,1.85
64.07,-1.14,-2.94,-1.12,-2.93,2.93,2.88,2.32,1.79,1.81,1.80
64.71,-1.02,-2.78,-0.98,-2.74,2.74,2.75,2.19,1.72,1.76,1.76
65.35,-0.87,-2.58,-0.83,-2.54,2.54,2.62,2.06,1.68,1.72,1.72
66.01,-0.72,-2.39,-0.68,-2.35,2.35,2.49,1.94,1.63,1.67,1.67
66.67,-0.55,-2.17,-0.54,-2.16,2.16,2.36,1.82,1.61,1.62,1.62
67.33,-0.40,-1.96,-0.39,-1.97,1.97,2.23,1.70,1.57,1.57,1.57
68.01,-0.28,-1.81,-0.26,-1.78,1.78,2.10,1.59,1.50,1.53,1.53
68.69,-0.12,-1.60,-0.13,-1.60,1.60,1.97,1.47,1.48,1.48,1.48
69.37,0.04,-1.38,0.01,-1.42,1.42,1.85,1.36,1.46,1.42,1.43
70.07,0.19,-1.19,0.14,-1.23,1.23,1.72,1.25,1.42,1.37,1.38
70.77,0.33,-0.99,0.28,-1.04,1.04,1.60,1.14,1.37,1.32,1.33
71.48,0.45,-0.83,0.41,-0.85,0.85,1.47,1.04,1.30,1.26,1.28
72.19,0.54,-0.66,0.54,-0.67,0.67,1.35,0.93,1.21,1.21,1.21
72.91,0.58,-0.56,0.66,-0.49,0.49,1.23,0.82,1.07,1.15,1.15
73.64,0.73,-0.36,0.77,-0.32,0.32,1.11,0.72,1.05,1.10,1.10
74.38,0.86,-0.17,0.89,-0.15,0.15,0.99,0.61,1.02,1.04,1.04
75.12,0.97,-0.00,1.00,0.01,-0.01,0.87,0.50,0.96,0.98,0.98
75.87,1.09,0.18,1.10,0.17,-0.17,0.75,0.40,0.92,0.93,0.92
76.63,1.24,0.38,1.20,0.32,-0.32,0.63,0.29,0.92,0.87,0.87
77.40,1.35,0.54,1.30,0.48,-0.48,0.51,0.18,0.87,0.82,0.82
78.17,1.42,0.67,1.40,0.64,-0.64,0.40,0.08,0.79,0.77,0.76
78.95,1.50,0.79,1.50,0.78,-0.78,0.28,-0.03,0.72,0.72,0.72
79.74,1.54,0.88,1.59,0.92,-0.92,0.17,-0.14,0.62,0.67,0.67
80.54,1.64,1.03,1.68,1.06,-1.06,0.05,-0.25,0.58,0.62,0.62
81.35,1.76,1.19,1.76,1.19,-1.19,-0.06,-0.37,0.57,0.57,0.57
82.16,1.85,1.34,1.84,1.32,-1.32,-0.17,-0.48,0.54,0.52,0.52
82.98,1.90,1.43,1.91,1.44,-1.44,-0.28,-0.60,0.47,0.47,0.48
83.81,1.96,1.54,1.98,1.55,-1.55,-0.39,-0.72,0.41,0.43,0.43
84.65,2.11,1.74,2.04,1.66,-1.66,-0.50,-0.84,0.45,0.38,0.38
85.50,2.17,1.83,2.09,1.76,-1.76,-0.61,-0.96,0.41,0.33,0.34
86.35,2.13,1.85,2.15,1.87,-1.87,-0.72,-1.08,0.26,0.28,0.29
87.22,2.12,1.89,2.22,1.99,-1.99,-0.82,-1.21,0.14,0.23,0.24
88.09,2.27,2.08,2.28,2.09,-2.09,-0.93,-1.34,0.18,0.18,0.19
88.97,2.36,2.24,2.33,2.20,-2.20,-1.04,-1.47,0.17,0.13,0.13
89.86,2.36,2.29,2.37,2.29,-2.29,-1.14,-1.60,0.07,0.08,0.08
90.76,2.44,2.41,2.42,2.39,-2.39,-1.24,-1.74,0.05,0.03,0.03
91.66,2.46,2.49,2.47,2.49,-2.49,-1.35,-1.87,-0.03,-0.02,-0.02
92.58,2.48,2.57,2.52,2.59,-2.59,-1.45,-2.01,-0.11,-0.07,-0.08
93.51,2.53,2.67,2.58,2.70,-2.70,-1.55,-2.16,-0.17,-0.12,-0.13
94.44,2.64,2.82,2.63,2.81,-2.81,-1.65,-2.30,-0.16,-0.17,-0.17
95.39,2.77,2.99,2.70,2.92,-2.92,-1.75,-2.45,-0.15,-0.22,-0.22
96.34,2.77,3.05,2.76,3.04,-3.04,-1.85,-2.60,-0.26,-0.27,-0.27
97.30,2.72,3.05,2.83,3.15,-3.15,-1.94,-2.75,-0.43,-0.32,-0.32
98.28,2.82,3.19,2.90,3.27,-3.27,-2.04,-2.90,-0.45,-0.37,-0.37
99.26,2.94,3.36,2.97,3.38,-3.38,-2.14,-3.05,-0.44,-0.42,-0.41
100.25,3.05,3.52,3.03,3.49,-3.49,-2.23,-3.21,-0.44,-0.46,-0.46
101.25,3.12,3.64,3.09,3.60,-3.60,-2.32,-3.36,-0.48,-0.51,-0.51
102.27,3.17,3.74,3.15,3.71,-3.71,-2.42,-3.52,-0.54,-0.56,-0.56
103.29,3.23,3.85,3.20,3.81,-3.81,-2.51,-3.67,-0.58,-0.61,-0.61
104.32,3.28,3.94,3.24,3.90,-3.90,-2.60,-3.83,-0.62,-0.66,-0.65
105.37,3.30,4.01,3.27,3.98,-3.98,-2.69,-3.99,-0.68,-0.71,-0.70
106.42,3.37,4.13,3.30,4.06,-4.06,-2.78,-4.14,-0.69,-0.76,-0.75
107.48,3.43,4.25,3.33,4.15,-4.15,-2.87,-4.30,-0.71,-0.81,-0.81
108.56,3.34,4.21,3.36,4.23,-4.23,-2.96,-4.45,-0.88,-0.87,-0.86
109.64,3.26,4.18,3.38,4.30,-4.30,-3.04,-4.60,-1.03,-0.92,-0.91
110.74,3.38,4.36,3.39,4.36,-4.36,-3.13,-4.74,-0.98,-0.97,-0.97
111.85,3.40,4.42,3.41,4.43,-4.43,-3.22,-4.89,-1.03,-1.02,-1.01
112.97,3.39,4.47,3.43,4.50,-4.50,-3.30,-5.02,-1.11,-1.07,-1.07
114.10,3.39,4.52,3.45,4.57,-4.57,-3.38,-5.15,-1.18,-1.12,-1.12
115.24,3.40,4.58,3.47,4.63,-4.63,-3.47,-5.28,-1.23,-1.17,-1.17
116.39,3.46,4.69,3.49,4.70,-4.70,-3.55,-5.40,-1.24,-1.21,-1.22
117.55,3.53,4.80,3.51,4.76,-4.76,-3.63,-5.51,-1.23,-1.25,-1.26
118.73,3.59,4.90,3.53,4.83,-4.83,-3.71,-5.62,-1.23,-1.29,-1.30
119.92,3.60,4.94,3.56,4.89,-4.89,-3.79,-5.71,-1.29,-1.33,-1.33
121.12,3.61,4.99,3.59,4.95,-4.95,-3.87,-5.80,-1.34,-1.37,-1.37
122.33,3.62,5.03,3.61,5.01,-5.01,-3.95,-5.88,-1.39,-1.40,-1.40
123.55,3.63,5.07,3.62,5.06,-5.06,-4.02,-5.94,-1.43,-1.43,-1.43
124.79,3.64,5.11,3.64,5.11,-5.11,-4.10,-6.00,-1.46,-1.47,-1.46
126.03,3.64,5.14,3.65,5.15,-5.15,-4.17,-6.05,-1.51,-1.50,-1.49
127.29,3.65,5.17,3.66,5.19,-5.19,-4.25,-6.09,-1.54,-1.53,-1.51
128.57,3.66,5.22,3.67,5.23,-5.23,-4.32,-6.12,-1.56,-1.55,-1.55
129.85,3.66,5.25,3.67,5.26,-5.26,-4.39,-6.13,-1.59,-1.58,-1.58
131.15,3.67,5.29,3.67,5.28,-5.28,-4.47,-6.15,-1.61,-1.61,-1.61
132.46,3.67,5.32,3.67,5.32,-5.32,-4.54,-6.15,-1.64,-1.64,-1.64
133.79,3.68,5.36,3.68,5.35,-5.35,-4.61,-6.14,-1.66,-1.67,-1.67
135.12,3.68,5.39,3.68,5.38,-5.38,-4.68,-6.13,-1.70,-1.70,-1.70
136.48,3.68,5.41,3.68,5.41,-5.41,-4.74,-6.11,-1.73,-1.72,-1.72
137.84,3.68,5.45,3.69,5.44,-5.44,-4.81,-6.08,-1.76,-1.75,-1.76
139.22,3.69,5.49,3.69,5.47,-5.47,-4.88,-6.05,-1.78,-1.78,-1.79
140.61,3.69,5.52,3.69,5.50,-5.50,-4.94,-6.02,-1.81,-1.81,-1.82
142.02,3.69,5.54,3.69,5.53,-5.53,-5.01,-5.98,-1.84,-1.84,-1.84
143.44,3.69,5.57,3.69,5.57,-5.57,-5.07,-5.94,-1.88,-1.88,-1.87
144.87,3.69,5.61,3.69,5.61,-5.61,-5.14,-5.90,-1.92,-1.92,-1.91
146.32,3.69,5.65,3.69,5.65,-5.65,-5.20,-5.85,-1.96,-1.96,-1.95
147.78,3.69,5.68,3.69,5.70,-5.70,-5.26,-5.81,-2.01,-2.01,-1.98
149.26,3.69,5.73,3.70,5.76,-5.76,-5.32,-5.76,-2.07,-2.06,-2.03
150.75,3.69,5.79,3.70,5.82,-5.82,-5.38,-5.72,-2.13,-2.12,-2.09
152.26,3.69,5.86,3.70,5.89,-5.89,-5.44,-5.68,-2.19,-2.18,-2.16
153.78,3.69,5.93,3.70,5.95,-5.95,-5.50,-5.63,-2.26,-2.25,-2.23
155.32,3.69,6.00,3.70,6.02,-6.02,-5.56,-5.59,-2.32,-2.32,-2.30
156.88,3.69,6.08,3.69,6.08,-6.08,-5.62,-5.56,-2.39,-2.39,-2.38
158.44,3.69,6.16,3.69,6.14,-6.14,-5.67,-5.52,-2.45,-2.46,-2.46
160.03,3.69,6.24,3.68,6.20,-6.20,-5.73,-5.49,-2.51,-2.53,-2.54
161.63,3.71,6.33,3.66,6.26,-6.26,-5.78,-5.46,-2.54,-2.59,-2.61
163.24,3.73,6.41,3.65,6.30,-6.30,-5.84,-5.43,-2.57,-2.65,-2.67
164.88,3.64,6.37,3.64,6.35,-6.35,-5.89,-5.41,-2.70,-2.71,-2.72
166.53,3.59,6.37,3.62,6.38,-6.38,-5.94,-5.39,-2.79,-2.76,-2.77
168.19,3.57,6.39,3.61,6.40,-6.40,-5.99,-5.38,-2.83,-2.80,-2.81
169.87,3.57,6.43,3.59,6.42,-6.42,-6.05,-5.36,-2.85,-2.83,-2.85
171.57,3.56,6.44,3.58,6.43,-6.43,-6.10,-5.36,-2.87,-2.85,-2.87
173.29,3.55,6.44,3.57,6.44,-6.44,-6.14,-5.35,-2.89,-2.87,-2.88
175.02,3.55,6.45,3.56,6.45,-6.45,-6.19,-5.36,-2.89,-2.89,-2.89
176.77,3.54,6.45,3.55,6.45,-6.45,-6.24,-5.36,-2.91,-2.90,-2.90
178.54,3.54,6.46,3.55,6.45,-6.45,-6.29,-5.37,-2.91,-2.90,-2.91
180.32,3.55,6.46,3.55,6.46,-6.46,-6.34,-5.39,-2.91,-2.91,-2.90
182.13,3.55,6.45,3.55,6.47,-6.47,-6.38,-5.40,-2.92,-2.92,-2.89
183.95,3.56,6.47,3.57,6.49,-6.49,-6.43,-5.43,-2.93,-2.92,-2.90
185.79,3.57,6.48,3.58,6.51,-6.51,-6.47,-5.45,-2.94,-2.93,-2.90
187.65,3.59,6.52,3.59,6.53,-6.53,-6.51,-5.49,-2.94,-2.94,-2.92
189.52,3.60,6.54,3.60,6.55,-6.55,-6.56,-5.52,-2.95,-2.95,-2.93
191.42,3.61,6.57,3.62,6.58,-6.58,-6.60,-5.56,-2.96,-2.96,-2.95
193.33,3.63,6.61,3.63,6.60,-6.60,-6.64,-5.60,-2.97,-2.97,-2.97
195.27,3.65,6.65,3.64,6.64,-6.64,-6.68,-5.65,-2.98,-2.99,-2.99
197.22,3.66,6.68,3.66,6.67,-6.67,-6.72,-5.70,-3.00,-3.01,-3.01
199.19,3.67,6.71,3.66,6.69,-6.69,-6.76,-5.75,-3.02,-3.03,-3.03
201.18,3.68,6.74,3.67,6.71,-6.71,-6.80,-5.81,-3.03,-3.05,-3.05
203.19,3.68,6.76,3.67,6.74,-6.74,-6.84,-5.86,-3.06,-3.07,-3.07
205.23,3.69,6.79,3.67,6.76,-6.76,-6.88,-5.93,-3.07,-3.09,-3.09
207.28,3.69,6.80,3.68,6.79,-6.79,-6.91,-5.99,-3.09,-3.11,-3.10
209.35,3.68,6.81,3.68,6.81,-6.81,-6.95,-6.05,-3.13,-3.13,-3.12
211.44,3.68,6.84,3.68,6.83,-6.83,-6.98,-6.12,-3.15,-3.15,-3.15
213.56,3.68,6.85,3.69,6.85,-6.85,-7.02,-6.19,-3.17,-3.16,-3.16
215.69,3.67,6.85,3.69,6.87,-6.87,-7.05,-6.26,-3.20,-3.18,-3.17
217.85,3.64,6.83,3.70,6.89,-6.89,-7.09,-6.32,-3.24,-3.19,-3.18
220.03,3.63,6.83,3.71,6.90,-6.90,-7.12,-6.39,-3.27,-3.20,-3.19
222.23,3.72,6.95,3.72,6.92,-6.92,-7.15,-6.46,-3.20,-3.20,-3.22
224.45,3.76,6.98,3.73,6.93,-6.93,-7.18,-6.53,-3.17,-3.20,-3.21
226.70,3.77,6.99,3.74,6.94,-6.94,-7.21,-6.59,-3.17,-3.20,-3.21
228.96,3.77,6.98,3.75,6.95,-6.95,-7.24,-6.65,-3.18,-3.20,-3.20
231.25,3.78,6.98,3.77,6.96,-6.96,-7.27,-6.71,-3.18,-3.19,-3.19
233.57,3.79,6.98,3.79,6.97,-6.97,-7.30,-6.77,-3.18,-3.18,-3.18
235.90,3.80,6.98,3.81,6.97,-6.97,-7.33,-6.82,-3.17,-3.17,-3.17
238.26,3.81,6.98,3.83,6.98,-6.98,-7.36,-6.87,-3.16,-3.15,-3.16
240.64,3.83,6.97,3.85,6.98,-6.98,-7.38,-6.91,-3.15,-3.13,-3.13
243.05,3.84,6.95,3.86,6.97,-6.97,-7.41,-6.95,-3.13,-3.11,-3.10
245.48,3.86,6.95,3.87,6.96,-6.96,-7.44,-6.98,-3.10,-3.09,-3.08
247.93,3.89,6.95,3.88,6.94,-6.94,-7.46,-7.01,-3.05,-3.06,-3.05
250.41,3.91,6.95,3.89,6.93,-6.93,-7.49,-7.03,-3.02,-3.04,-3.03
252.92,3.93,6.94,3.91,6.92,-6.92,-7.51,-7.05,-2.99,-3.01,-3.00
255.45,3.94,6.93,3.93,6.92,-6.92,-7.53,-7.07,-2.97,-2.99,-2.98
258.00,3.95,6.92,3.94,6.91,-6.91,-7.56,-7.07,-2.95,-2.97,-2.96
260.58,3.95,6.90,3.95,6.89,-6.89,-7.58,-7.08,-2.94,-2.94,-2.94
263.19,3.96,6.88,3.97,6.88,-6.88,-7.60,-7.07,-2.92,-2.92,-2.91
265.82,3.94,6.84,3.98,6.87,-6.87,-7.62,-7.07,-2.93,-2.89,-2.89
268.48,3.93,6.81,3.99,6.86,-6.86,-7.64,-7.06,-2.93,-2.87,-2.87
271.16,4.02,6.87,4.01,6.85,-6.85,-7.66,-7.05,-2.83,-2.84,-2.84
273.87,4.04,6.87,4.02,6.83,-6.83,-7.68,-7.03,-2.79,-2.82,-2.82
276.61,4.04,6.84,4.03,6.82,-6.82,-7.70,-7.01,-2.78,-2.79,-2.79
279.38,4.04,6.81,4.04,6.81,-6.81,-7.72,-6.99,-2.76,-2.76,-2.76
282.17,4.05,6.80,4.05,6.79,-6.79,-7.74,-6.97,-2.74,-2.74,-2.74
284.99,4.05,6.76,4.07,6.77,-6.77,-7.75,-6.95,-2.72,-2.71,-2.70
287.84,4.06,6.75,4.08,6.76,-6.76,-7.77,-6.93,-2.70,-2.68,-2.68
290.72,4.16,6.82,4.10,6.75,-6.75,-7.79,-6.91,-2.59,-2.65,-2.65
293.63,4.09,6.72,4.11,6.73,-6.73,-7.80,-6.88,-2.64,-2.62,-2.62
296.57,4.09,6.69,4.12,6.71,-6.71,-7.82,-6.86,-2.62,-2.59,-2.59
299.53,4.11,6.68,4.13,6.69,-6.69,-7.83,-6.84,-2.58,-2.56,-2.56
302.53,4.12,6.67,4.12,6.66,-6.66,-7.85,-6.83,-2.53,-2.54,-2.54
305.55,4.13,6.64,4.12,6.63,-6.63,-7.86,-6.81,-2.50,-2.51,-2.50
308.61,4.14,6.63,4.13,6.61,-6.61,-7.87,-6.80,-2.47,-2.49,-2.48
311.69,4.14,6.60,4.12,6.59,-6.59,-7.88,-6.79,-2.44,-2.46,-2.45
314.81,4.15,6.59,4.12,6.56,-6.56,-7.90,-6.79,-2.41,-2.44,-2.43
317.96,4.15,6.57,4.11,6.53,-6.53,-7.91,-6.79,-2.38,-2.42,-2.41
321.14,4.10,6.51,4.11,6.51,-6.51,-7.92,-6.79,-2.40,-2.40,-2.40
324.35,4.06,6.45,4.10,6.48,-6.48,-7.93,-6.80,-2.42,-2.38,-2.38
327.59,4.05,6.43,4.09,6.46,-6.46,-7.94,-6.81,-2.41,-2.37,-2.37
330.87,4.05,6.42,4.08,6.44,-6.44,-7.95,-6.82,-2.39,-2.36,-2.36
334.18,4.05,6.40,4.07,6.41,-6.41,-7.95,-6.84,-2.36,-2.34,-2.34
337.52,4.12,6.46,4.06,6.39,-6.39,-7.96,-6.87,-2.27,-2.33,-2.33
340.90,4.07,6.40,4.05,6.38,-6.38,-7.97,-6.90,-2.30,-2.33,-2.32
344.30,4.04,6.36,4.05,6.37,-6.37,-7.98,-6.93,-2.32,-2.32,-2.31
347.75,4.04,6.36,4.05,6.36,-6.36,-7.98,-6.97,-2.32,-2.31,-2.31
351.23,4.04,6.35,4.05,6.36,-6.36,-7.99,-7.02,-2.32,-2.31,-2.30
354.74,4.05,6.37,4.06,6.37,-6.37,-7.99,-7.07,-2.31,-2.30,-2.31
358.28,4.05,6.36,4.08,6.38,-6.38,-8.00,-7.12,-2.33,-2.30,-2.30
361.87,4.06,6.37,4.09,6.39,-6.39,-8.00,-7.18,-2.33,-2.30,-2.30
365.49,4.06,6.36,4.10,6.40,-6.40,-8.01,-7.25,-2.34,-2.30,-2.29
369.14,4.07,6.38,4.12,6.42,-6.42,-8.01,-7.32,-2.34,-2.30,-2.30
372.83,4.15,6.46,4.13,6.43,-6.43,-8.01,-7.40,-2.28,-2.30,-2.30
376.56,4.19,6.51,4.14,6.44,-6.44,-8.01,-7.48,-2.25,-2.30,-2.31
380.33,4.19,6.50,4.15,6.46,-6.46,-8.01,-7.57,-2.27,-2.31,-2.30
384.13,4.20,6.51,4.16,6.47,-6.47,-8.01,-7.66,-2.27,-2.31,-2.30
387.97,4.20,6.52,4.17,6.49,-6.49,-8.01,-7.76,-2.29,-2.31,-2.31
391.85,4.21,6.54,4.19,6.50,-6.50,-8.01,-7.86,-2.29,-2.32,-2.32
395.77,4.21,6.53,4.19,6.52,-6.52,-8.01,-7.96,-2.30,-2.33,-2.31
399.73,4.21,6.54,4.20,6.53,-6.53,-8.01,-8.07,-2.32,-2.33,-2.32
403.72,4.21,6.54,4.21,6.55,-6.55,-8.01,-8.18,-2.34,-2.34,-2.32
407.76,4.20,6.55,4.23,6.57,-6.57,-8.01,-8.30,-2.37,-2.34,-2.34
411.84,4.20,6.55,4.25,6.59,-6.59,-8.00,-8.42,-2.39,-2.34,-2.34
415.96,4.23,6.58,4.27,6.61,-6.61,-8.00,-8.54,-2.38,-2.34,-2.34
420.12,4.29,6.64,4.30,6.64,-6.64,-7.99,-8.66,-2.35,-2.34,-2.34
424.32,4.34,6.69,4.35,6.68,-6.68,-7.99,-8.78,-2.34,-2.34,-2.34
428.56,4.40,6.74,4.41,6.73,-6.73,-7.98,-8.91,-2.33,-2.32,-2.33
432.85,4.43,6.76,4.47,6.78,-6.78,-7.98,-9.03,-2.35,-2.31,-2.32
437.18,4.49,6.81,4.55,6.83,-6.83,-7.97,-9.15,-2.34,-2.29,-2.31
441.55,4.64,6.92,4.63,6.89,-6.89,-7.96,-9.26,-2.25,-2.26,-2.27
445.96,4.74,6.99,4.72,6.95,-6.95,-7.95,-9.38,-2.21,-2.23,-2.24
450.42,4.79,7.01,4.82,7.01,-7.01,-7.94,-9.48,-2.22,-2.20,-2.21
454.93,4.93,7.10,4.92,7.08,-7.08,-7.93,-9.59,-2.14,-2.15,-2.16
