frequency,raw,error,smoothed,error_smoothed,equalization,parametric_eq,fixed_band_eq,equalized_raw,equalized_smoothed,target
20.00,4.78,2.12,4.78,2.12,-2.11,-2.39,-1.11,2.67,2.67,2.67
20.20,4.92,2.26,4.92,2.25,-2.25,-2.45,-1.14,2.67,2.67,2.67
20.40,5.04,2.38,5.05,2.38,-2.38,-2.51,-1.17,2.66,2.67,2.67
20.61,5.17,2.50,5.17,2.50,-2.51,-2.56,-1.20,2.66,2.66,2.67
20.81,5.29,2.63,5.29,2.62,-2.63,-2.62,-1.24,2.67,2.66,2.67
21.02,5.39,2.73,5.40,2.74,-2.74,-2.68,-1.27,2.65,2.66,2.67
21.23,5.49,2.85,5.49,2.84,-2.84,-2.73,-1.31,2.65,2.65,2.65
21.44,5.58,2.95,5.58,2.94,-2.94,-2.78,-1.35,2.64,2.64,2.64
21.66,5.65,3.03,5.66,3.04,-3.04,-2.83,-1.39,2.62,2.62,2.62
21.87,5.72,3.13,5.72,3.12,-3.12,-2.88,-1.42,2.60,2.60,2.60
22.09,5.78,3.20,5.78,3.20,-3.20,-2.92,-1.47,2.58,2.58,2.59
22.31,5.82,3.27,5.83,3.27,-3.27,-2.97,-1.51,2.55,2.56,2.56
22.54,5.86,3.33,5.86,3.33,-3.33,-3.00,-1.55,2.53,2.53,2.54
22.76,5.89,3.38,5.89,3.38,-3.38,-3.04,-1.59,2.51,2.51,2.52
22.99,5.91,3.43,5.91,3.42,-3.42,-3.07,-1.64,2.49,2.49,2.49
23.22,5.91,3.46,5.91,3.46,-3.45,-3.09,-1.68,2.46,2.46,2.46
23.45,5.91,3.49,5.91,3.48,-3.47,-3.11,-1.73,2.44,2.44,2.43
23.69,5.89,3.48,5.90,3.48,-3.48,-3.13,-1.78,2.41,2.42,2.42
23.92,5.88,3.49,5.88,3.48,-3.48,-3.14,-1.82,2.40,2.40,2.40
24.16,5.85,3.47,5.85,3.47,-3.47,-3.15,-1.87,2.38,2.38,2.39
24.40,5.81,3.45,5.82,3.45,-3.45,-3.15,-1.92,2.36,2.36,2.37
24.65,5.77,3.43,5.77,3.43,-3.43,-3.15,-1.97,2.35,2.35,2.35
24.89,5.73,3.41,5.73,3.40,-3.40,-3.14,-2.02,2.33,2.33,2.33
25.14,5.67,3.36,5.68,3.36,-3.36,-3.12,-2.07,2.31,2.32,2.32
25.39,5.62,3.33,5.62,3.32,-3.32,-3.11,-2.12,2.30,2.30,2.30
25.65,5.56,3.28,5.56,3.28,-3.28,-3.09,-2.18,2.28,2.28,2.29
25.91,5.49,3.24,5.50,3.23,-3.23,-3.06,-2.23,2.26,2.26,2.26
26.16,5.43,3.19,5.43,3.18,-3.19,-3.03,-2.28,2.25,2.24,2.25
26.43,5.36,3.13,5.36,3.13,-3.14,-3.00,-2.33,2.23,2.23,2.24
26.69,5.29,3.09,5.30,3.08,-3.08,-2.96,-2.37,2.21,2.22,2.21
26.96,5.23,3.04,5.23,3.03,-3.03,-2.92,-2.42,2.20,2.20,2.20
27.23,5.16,2.98,5.16,2.98,-2.97,-2.88,-2.47,2.19,2.19,2.19
27.50,5.08,2.91,5.09,2.92,-2.92,-2.83,-2.51,2.16,2.17,2.18
27.77,5.02,2.87,5.02,2.86,-2.86,-2.79,-2.55,2.16,2.15,2.16
28.05,4.95,2.81,4.95,2.80,-2.81,-2.74,-2.59,2.14,2.14,2.15
28.33,4.87,2.75,4.88,2.75,-2.75,-2.69,-2.63,2.12,2.13,2.13
28.62,4.81,2.70,4.81,2.70,-2.70,-2.64,-2.67,2.12,2.11,2.12
28.90,4.74,2.65,4.74,2.64,-2.64,-2.58,-2.70,2.10,2.10,2.10
29.19,4.66,2.59,4.67,2.59,-2.58,-2.53,-2.73,2.08,2.09,2.08
29.48,4.60,2.53,4.60,2.53,-2.52,-2.48,-2.75,2.08,2.08,2.08
29.78,4.53,2.47,4.53,2.47,-2.47,-2.43,-2.77,2.07,2.06,2.07
30.08,4.46,2.41,4.46,2.40,-2.41,-2.37,-2.79,2.06,2.05,2.06
30.38,4.38,2.35,4.39,2.35,-2.35,-2.32,-2.80,2.03,2.04,2.04
30.68,4.31,2.29,4.31,2.29,-2.29,-2.27,-2.81,2.02,2.02,2.03
30.99,4.24,2.25,4.24,2.24,-2.24,-2.22,-2.81,2.01,2.00,2.00
31.30,4.16,2.18,4.17,2.18,-2.18,-2.17,-2.81,1.98,1.99,1.99
31.61,4.10,2.13,4.10,2.12,-2.13,-2.12,-2.81,1.97,1.97,1.98
31.93,4.02,2.07,4.03,2.07,-2.08,-2.07,-2.80,1.95,1.95,1.96
32.24,3.95,2.03,3.96,2.03,-2.03,-2.02,-2.79,1.92,1.93,1.93
32.57,3.89,1.99,3.89,1.98,-1.98,-1.97,-2.77,1.92,1.91,1.91
32.89,3.82,1.93,3.82,1.93,-1.93,-1.93,-2.75,1.89,1.89,1.90
33.22,3.75,1.89,3.75,1.88,-1.88,-1.88,-2.72,1.87,1.87,1.87
33.55,3.68,1.83,3.68,1.83,-1.83,-1.84,-2.69,1.85,1.85,1.86
33.89,3.61,1.79,3.61,1.78,-1.78,-1.80,-2.66,1.83,1.83,1.83
34.23,3.54,1.74,3.54,1.74,-1.73,-1.76,-2.63,1.81,1.81,1.81
34.57,3.47,1.69,3.47,1.68,-1.68,-1.72,-2.59,1.80,1.79,1.79
34.92,3.39,1.63,3.39,1.63,-1.62,-1.68,-2.55,1.77,1.77,1.77
35.27,3.31,1.57,3.32,1.57,-1.57,-1.64,-2.50,1.75,1.75,1.75
35.62,3.24,1.52,3.24,1.52,-1.52,-1.61,-2.46,1.73,1.73,1.73
35.97,3.17,1.47,3.17,1.46,-1.47,-1.57,-2.41,1.71,1.70,1.71
36.33,3.10,1.42,3.10,1.42,-1.42,-1.54,-2.36,1.68,1.68,1.69
36.70,3.03,1.37,3.04,1.37,-1.38,-1.51,-2.31,1.65,1.66,1.67
37.06,2.99,1.35,2.99,1.34,-1.35,-1.47,-2.26,1.64,1.64,1.65
37.43,2.94,1.32,2.94,1.32,-1.32,-1.44,-2.21,1.62,1.62,1.63
37.81,2.90,1.30,2.91,1.30,-1.30,-1.42,-2.16,1.60,1.61,1.61
38.19,2.87,1.30,2.87,1.28,-1.28,-1.39,-2.11,1.59,1.58,1.58
38.57,2.83,1.27,2.83,1.27,-1.27,-1.36,-2.06,1.56,1.56,1.57
38.95,2.80,1.27,2.81,1.27,-1.27,-1.34,-2.00,1.54,1.54,1.54
39.34,2.78,1.27,2.78,1.26,-1.26,-1.31,-1.95,1.52,1.52,1.52
39.74,2.76,1.27,2.76,1.26,-1.26,-1.29,-1.90,1.50,1.50,1.50
40.14,2.74,1.26,2.74,1.26,-1.26,-1.27,-1.85,1.49,1.48,1.49
40.54,2.71,1.25,2.72,1.25,-1.26,-1.25,-1.80,1.46,1.46,1.47
40.94,2.70,1.26,2.70,1.25,-1.26,-1.23,-1.75,1.45,1.44,1.45
41.35,2.68,1.27,2.68,1.26,-1.26,-1.21,-1.70,1.42,1.43,1.42
41.76,2.67,1.26,2.67,1.26,-1.26,-1.19,-1.65,1.41,1.41,1.42
42.18,2.66,1.27,2.66,1.26,-1.26,-1.17,-1.61,1.40,1.40,1.40
42.60,2.64,1.27,2.64,1.26,-1.27,-1.16,-1.56,1.38,1.38,1.38
43.03,2.62,1.26,2.62,1.26,-1.27,-1.14,-1.52,1.35,1.36,1.37
43.46,2.60,1.27,2.61,1.27,-1.27,-1.13,-1.47,1.33,1.34,1.34
43.90,2.59,1.28,2.59,1.27,-1.27,-1.11,-1.43,1.33,1.32,1.32
44.33,2.56,1.27,2.56,1.27,-1.26,-1.10,-1.39,1.30,1.30,1.30
44.78,2.53,1.26,2.53,1.26,-1.26,-1.09,-1.35,1.28,1.28,1.28
45.23,2.50,1.26,2.50,1.25,-1.25,-1.07,-1.31,1.26,1.25,1.25
45.68,2.46,1.24,2.47,1.24,-1.23,-1.06,-1.27,1.23,1.23,1.23
46.13,2.43,1.22,2.43,1.22,-1.22,-1.05,-1.23,1.22,1.22,1.22
46.60,2.40,1.20,2.40,1.20,-1.20,-1.04,-1.20,1.20,1.20,1.21
47.06,2.37,1.19,2.37,1.18,-1.18,-1.03,-1.16,1.19,1.19,1.19
47.53,2.33,1.17,2.34,1.17,-1.17,-1.03,-1.13,1.16,1.17,1.17
48.01,2.30,1.15,2.30,1.15,-1.15,-1.02,-1.09,1.15,1.14,1.16
48.49,2.26,1.14,2.26,1.14,-1.14,-1.01,-1.06,1.12,1.12,1.13
48.97,2.22,1.13,2.23,1.13,-1.13,-1.01,-1.03,1.09,1.09,1.10
49.46,2.19,1.13,2.19,1.13,-1.13,-1.00,-1.00,1.07,1.07,1.07
49.96,2.16,1.13,2.17,1.12,-1.12,-1.00,-0.97,1.04,1.05,1.04
50.46,2.14,1.12,2.14,1.12,-1.11,-0.99,-0.94,1.03,1.03,1.03
50.96,2.11,1.11,2.11,1.11,-1.10,-0.99,-0.92,1.01,1.01,1.01
51.47,2.07,1.10,2.08,1.10,-1.10,-0.98,-0.89,0.98,0.98,0.98
51.99,2.04,1.09,2.04,1.08,-1.09,-0.98,-0.87,0.96,0.95,0.96
52.51,2.00,1.07,2.01,1.07,-1.07,-0.98,-0.85,0.93,0.93,0.94
53.03,1.97,1.06,1.97,1.06,-1.06,-0.98,-0.82,0.92,0.92,0.92
53.56,1.93,1.05,1.93,1.04,-1.04,-0.97,-0.80,0.89,0.89,0.89
54.10,1.89,1.03,1.89,1.02,-1.02,-0.97,-0.78,0.88,0.87,0.87
54.64,1.83,1.00,1.84,1.00,-0.99,-0.97,-0.76,0.84,0.84,0.84
55.18,1.78,0.97,1.78,0.97,-0.97,-0.97,-0.75,0.81,0.81,0.82
55.74,1.73,0.95,1.73,0.94,-0.94,-0.97,-0.73,0.79,0.79,0.79
56.29,1.67,0.91,1.68,0.91,-0.91,-0.97,-0.72,0.76,0.76,0.77
56.86,1.62,0.89,1.62,0.88,-0.88,-0.98,-0.70,0.74,0.74,0.74
57.42,1.57,0.86,1.57,0.85,-0.86,-0.98,-0.69,0.72,0.71,0.72
58.00,1.52,0.83,1.52,0.83,-0.83,-0.98,-0.68,0.69,0.69,0.70
58.58,1.47,0.81,1.47,0.80,-0.80,-0.98,-0.67,0.67,0.67,0.67
59.16,1.43,0.79,1.43,0.78,-0.78,-0.99,-0.67,0.65,0.65,0.65
59.76,1.38,0.76,1.38,0.76,-0.76,-0.99,-0.66,0.62,0.62,0.63
60.35,1.34,0.75,1.34,0.74,-0.74,-0.99,-0.66,0.60,0.59,0.60
60.96,1.29,0.72,1.30,0.73,-0.73,-1.00,-0.65,0.56,0.57,0.58
61.57,1.26,0.73,1.26,0.72,-0.72,-1.00,-0.65,0.54,0.54,0.54
62.18,1.23,0.73,1.23,0.72,-0.72,-1.01,-0.65,0.51,0.51,0.51
62.80,1.19,0.72,1.19,0.72,-0.72,-1.01,-0.65,0.47,0.48,0.48
63.43,1.16,0.72,1.17,0.72,-0.72,-1.02,-0.66,0.44,0.44,0.45
64.07,1.14,0.73,1.15,0.73,-0.73,-1.03,-0.66,0.41,0.42,0.42
64.71,1.14,0.75,1.14,0.74,-0.74,-1.03,-0.67,0.40,0.40,0.40
65.35,1.13,0.76,1.13,0.76,-0.75,-1.04,-0.68,0.38,0.38,0.38
66.01,1.12,0.77,1.13,0.77,-0.77,-1.05,-0.69,0.35,0.35,0.36
66.67,1.12,0.80,1.12,0.79,-0.80,-1.06,-0.70,0.33,0.33,0.33
67.33,1.12,0.82,1.12,0.82,-0.82,-1.07,-0.71,0.30,0.30,0.31
68.01,1.12,0.85,1.13,0.85,-0.85,-1.07,-0.73,0.27,0.28,0.28
68.69,1.13,0.88,1.13,0.88,-0.88,-1.08,-0.74,0.25,0.25,0.26
69.37,1.14,0.92,1.14,0.91,-0.91,-1.09,-0.76,0.23,0.23,0.23
70.07,1.14,0.95,1.15,0.95,-0.94,-1.10,-0.78,0.20,0.21,0.20
70.77,1.15,0.98,1.15,0.98,-0.97,-1.11,-0.80,0.18,0.17,0.18
71.48,1.15,1.01,1.15,1.01,-1.01,-1.12,-0.82,0.14,0.15,0.15
72.19,1.15,1.04,1.16,1.04,-1.04,-1.13,-0.84,0.11,0.11,0.12
72.91,1.16,1.09,1.15,1.07,-1.08,-1.14,-0.87,0.09,0.08,0.08
73.64,1.15,1.11,1.16,1.11,-1.11,-1.16,-0.89,0.04,0.04,0.05
74.38,1.15,1.14,1.16,1.15,-1.15,-1.17,-0.92,0.00,0.01,0.02
75.12,1.16,1.20,1.16,1.18,-1.18,-1.18,-0.95,-0.02,-0.03,-0.03
75.87,1.16,1.23,1.16,1.22,-1.22,-1.19,-0.97,-0.06,-0.06,-0.06
76.63,1.15,1.25,1.16,1.26,-1.26,-1.21,-1.00,-0.10,-0.10,-0.09
77.40,1.15,1.29,1.15,1.29,-1.29,-1.22,-1.04,-0.14,-0.14,-0.13
78.17,1.15,1.35,1.15,1.33,-1.32,-1.23,-1.07,-0.17,-0.18,-0.19
78.95,1.14,1.36,1.14,1.36,-1.36,-1.25,-1.10,-0.22,-0.22,-0.21
79.74,1.13,1.39,1.13,1.39,-1.39,-1.26,-1.13,-0.26,-0.26,-0.25
80.54,1.11,1.42,1.12,1.42,-1.43,-1.28,-1.17,-0.31,-0.31,-0.30
81.35,1.11,1.46,1.11,1.45,-1.46,-1.29,-1.21,-0.35,-0.35,-0.34
82.16,1.10,1.50,1.10,1.49,-1.49,-1.31,-1.24,-0.39,-0.39,-0.39
82.98,1.08,1.52,1.09,1.53,-1.53,-1.32,-1.28,-0.44,-0.44,-0.43
83.81,1.07,1.57,1.07,1.56,-1.56,-1.34,-1.32,-0.48,-0.49,-0.49
84.65,1.05,1.59,1.06,1.59,-1.59,-1.35,-1.36,-0.53,-0.53,-0.53
85.50,1.04,1.62,1.04,1.62,-1.61,-1.37,-1.41,-0.57,-0.57,-0.57
86.35,1.02,1.65,1.02,1.64,-1.64,-1.39,-1.45,-0.61,-0.62,-0.62
87.22,0.98,1.66,0.99,1.66,-1.66,-1.41,-1.49,-0.67,-0.67,-0.67
88.09,0.95,1.69,0.95,1.68,-1.67,-1.42,-1.54,-0.72,-0.72,-0.73
88.97,0.91,1.69,0.91,1.69,-1.69,-1.44,-1.59,-0.78,-0.78,-0.77
89.86,0.87,1.70,0.87,1.70,-1.70,-1.46,-1.63,-0.83,-0.83,-0.82
90.76,0.83,1.72,0.83,1.71,-1.72,-1.48,-1.68,-0.88,-0.88,-0.88
91.66,0.79,1.73,0.79,1.73,-1.73,-1.50,-1.73,-0.94,-0.94,-0.93
92.58,0.76,1.76,0.76,1.75,-1.74,-1.52,-1.78,-0.98,-0.99,-0.99
93.51,0.72,1.76,0.73,1.76,-1.76,-1.54,-1.84,-1.04,-1.04,-1.03
94.44,0.69,1.78,0.69,1.78,-1.78,-1.56,-1.89,-1.09,-1.09,-1.08
95.39,0.66,1.81,0.66,1.80,-1.80,-1.58,-1.94,-1.14,-1.15,-1.14
96.34,0.62,1.84,0.63,1.83,-1.83,-1.60,-2.00,-1.21,-1.21,-1.21
97.30,0.59,1.86,0.59,1.86,-1.86,-1.62,-2.05,-1.27,-1.27,-1.26
98.28,0.57,1.90,0.57,1.90,-1.90,-1.64,-2.11,-1.33,-1.33,-1.32
99.26,0.54,1.94,0.55,1.93,-1.94,-1.66,-2.17,-1.40,-1.39,-1.39
100.25,0.53,1.98,0.53,1.98,-1.98,-1.68,-2.23,-1.45,-1.45,-1.44
101.25,0.52,2.03,0.52,2.03,-2.03,-1.71,-2.28,-1.51,-1.51,-1.50
102.27,0.51,2.09,0.51,2.08,-2.08,-1.73,-2.34,-1.57,-1.57,-1.57
103.29,0.50,2.15,0.50,2.14,-2.13,-1.75,-2.40,-1.63,-1.63,-1.64
104.32,0.49,2.19,0.49,2.19,-2.19,-1.77,-2.46,-1.69,-1.69,-1.69
105.37,0.48,2.24,0.48,2.24,-2.24,-1.80,-2.52,-1.76,-1.76,-1.75
106.42,0.47,2.30,0.47,2.30,-2.30,-1.82,-2.57,-1.83,-1.83,-1.82
107.48,0.46,2.36,0.46,2.35,-2.35,-1.84,-2.63,-1.89,-1.89,-1.89
108.56,0.45,2.42,0.45,2.41,-2.41,-1.87,-2.69,-1.96,-1.96,-1.96
109.64,0.44,2.47,0.45,2.47,-2.47,-1.89,-2.74,-2.03,-2.02,-2.02
110.74,0.44,2.53,0.44,2.53,-2.53,-1.92,-2.79,-2.09,-2.09,-2.08
111.85,0.43,2.59,0.43,2.58,-2.59,-1.94,-2.84,-2.16,-2.16,-2.15
112.97,0.41,2.65,0.42,2.64,-2.65,-1.97,-2.89,-2.24,-2.23,-2.23
114.10,0.40,2.70,0.41,2.70,-2.71,-2.00,-2.94,-2.30,-2.30,-2.29
115.24,0.40,2.77,0.40,2.76,-2.76,-2.02,-2.98,-2.36,-2.36,-2.36
116.39,0.38,2.82,0.38,2.82,-2.81,-2.05,-3.03,-2.43,-2.43,-2.43
117.55,0.36,2.87,0.36,2.87,-2.86,-2.07,-3.07,-2.50,-2.49,-2.50
118.73,0.34,2.91,0.34,2.90,-2.90,-2.10,-3.10,-2.56,-2.56,-2.56
119.92,0.31,2.94,0.31,2.94,-2.93,-2.13,-3.13,-2.62,-2.62,-2.62
121.12,0.28,2.97,0.28,2.97,-2.96,-2.16,-3.16,-2.68,-2.68,-2.68
122.33,0.24,3.00,0.24,2.99,-2.99,-2.18,-3.19,-2.74,-2.74,-2.75
123.55,0.20,3.01,0.20,3.01,-3.01,-2.21,-3.21,-2.81,-2.81,-2.80
124.79,0.16,3.03,0.16,3.02,-3.03,-2.24,-3.22,-2.87,-2.87,-2.86
126.03,0.12,3.04,0.12,3.04,-3.05,-2.27,-3.24,-2.93,-2.93,-2.91
127.29,0.08,3.06,0.09,3.06,-3.07,-2.30,-3.25,-2.99,-2.98,-2.97
128.57,0.05,3.10,0.05,3.09,-3.09,-2.33,-3.25,-3.04,-3.04,-3.04
129.85,0.02,3.12,0.02,3.11,-3.11,-2.36,-3.26,-3.09,-3.09,-3.09
131.15,-0.02,3.13,-0.01,3.13,-3.13,-2.39,-3.26,-3.15,-3.14,-3.14
132.46,-0.05,3.16,-0.05,3.15,-3.15,-2.42,-3.25,-3.20,-3.20,-3.20
133.79,-0.08,3.17,-0.08,3.17,-3.17,-2.45,-3.24,-3.25,-3.25,-3.24
135.12,-0.11,3.20,-0.11,3.19,-3.19,-2.48,-3.23,-3.30,-3.30,-3.30
136.48,-0.14,3.20,-0.14,3.20,-3.21,-2.51,-3.22,-3.35,-3.34,-3.33
137.84,-0.16,3.22,-0.16,3.22,-3.23,-2.54,-3.20,-3.39,-3.39,-3.37
139.22,-0.18,3.25,-0.17,3.24,-3.25,-2.57,-3.19,-3.42,-3.42,-3.42
140.61,-0.19,3.28,-0.19,3.27,-3.27,-2.60,-3.17,-3.45,-3.45,-3.46
142.02,-0.20,3.29,-0.20,3.29,-3.28,-2.63,-3.15,-3.48,-3.48,-3.48
143.44,-0.22,3.30,-0.22,3.30,-3.30,-2.66,-3.12,-3.51,-3.51,-3.51
144.87,-0.24,3.32,-0.24,3.31,-3.31,-2.69,-3.10,-3.55,-3.55,-3.55
146.32,-0.26,3.33,-0.26,3.32,-3.32,-2.73,-3.08,-3.58,-3.58,-3.58
147.78,-0.29,3.32,-0.28,3.33,-3.33,-2.76,-3.05,-3.61,-3.61,-3.60
149.26,-0.31,3.33,-0.31,3.33,-3.33,-2.79,-3.03,-3.64,-3.64,-3.63
150.75,-0.34,3.34,-0.34,3.33,-3.33,-2.82,-3.01,-3.67,-3.67,-3.67
152.26,-0.37,3.33,-0.37,3.33,-3.33,-2.85,-2.98,-3.69,-3.69,-3.69
153.78,-0.40,3.33,-0.40,3.33,-3.32,-2.89,-2.96,-3.72,-3.72,-3.72
155.32,-0.43,3.32,-0.43,3.32,-3.32,-2.92,-2.94,-3.75,-3.75,-3.74
156.88,-0.46,3.32,-0.46,3.31,-3.32,-2.95,-2.92,-3.78,-3.78,-3.77
158.44,-0.50,3.31,-0.49,3.31,-3.31,-2.99,-2.90,-3.81,-3.81,-3.80
160.03,-0.52,3.32,-0.52,3.31,-3.31,-3.02,-2.88,-3.83,-3.83,-3.83
161.63,-0.56,3.31,-0.56,3.31,-3.30,-3.05,-2.86,-3.86,-3.86,-3.86
163.24,-0.59,3.31,-0.59,3.30,-3.30,-3.09,-2.85,-3.88,-3.89,-3.89
164.88,-0.63,3.29,-0.62,3.29,-3.29,-3.12,-2.83,-3.92,-3.91,-3.91
166.53,-0.66,3.28,-0.66,3.28,-3.28,-3.15,-2.82,-3.94,-3.94,-3.93
168.19,-0.70,3.28,-0.70,3.27,-3.27,-3.19,-2.81,-3.97,-3.97,-3.97
169.87,-0.75,3.26,-0.74,3.26,-3.26,-3.22,-2.80,-4.01,-4.00,-4.00
171.57,-0.78,3.26,-0.78,3.25,-3.25,-3.26,-2.80,-4.03,-4.03,-4.03
173.29,-0.83,3.23,-0.83,3.23,-3.24,-3.29,-2.79,-4.07,-4.06,-4.05
175.02,-0.87,3.23,-0.87,3.23,-3.23,-3.33,-2.79,-4.09,-4.10,-4.09
176.77,-0.92,3.22,-0.92,3.21,-3.22,-3.36,-2.79,-4.13,-4.13,-4.13
178.54,-0.97,3.21,-0.97,3.20,-3.20,-3.39,-2.79,-4.17,-4.17,-4.17
180.32,-1.02,3.19,-1.02,3.19,-3.19,-3.43,-2.80,-4.21,-4.21,-4.20
182.13,-1.07,3.17,-1.07,3.17,-3.17,-3.46,-2.80,-4.24,-4.24,-4.23
183.95,-1.13,3.15,-1.13,3.15,-3.15,-3.50,-2.81,-4.27,-4.27,-4.27
185.79,-1.19,3.13,-1.19,3.13,-3.12,-3.53,-2.82,-4.30,-4.30,-4.31
187.65,-1.25,3.11,-1.25,3.10,-3.08,-3.57,-2.83,-4.33,-4.34,-4.35
189.52,-1.33,3.06,-1.32,3.06,-3.05,-3.60,-2.85,-4.38,-4.37,-4.38
191.42,-1.39,3.02,-1.39,3.01,-3.01,-3.64,-2.86,-4.40,-4.40,-4.40
193.33,-1.47,2.96,-1.47,2.96,-2.97,-3.67,-2.88,-4.44,-4.44,-4.42
195.27,-1.54,2.92,-1.54,2.92,-2.93,-3.70,-2.90,-4.47,-4.47,-4.45
197.22,-1.61,2.88,-1.60,2.89,-2.89,-3.74,-2.92,-4.50,-4.49,-4.48
199.19,-1.66,2.88,-1.66,2.86,-2.86,-3.77,-2.95,-4.52,-4.52,-4.53
201.18,-1.71,2.84,-1.71,2.84,-2.83,-3.81,-2.97,-4.54,-4.54,-4.54
203.19,-1.76,2.81,-1.75,2.81,-2.81,-3.84,-3.00,-4.57,-4.57,-4.56
205.23,-1.79,2.80,-1.79,2.79,-2.80,-3.88,-3.02,-4.59,-4.59,-4.58
207.28,-1.81,2.79,-1.81,2.79,-2.79,-3.91,-3.05,-4.60,-4.60,-4.59
209.35,-1.83,2.80,-1.82,2.80,-2.79,-3.94,-3.08,-4.62,-4.62,-4.62
211.44,-1.83,2.82,-1.84,2.81,-2.80,-3.98,-3.11,-4.63,-4.64,-4.64
213.56,-1.85,2.82,-1.84,2.81,-2.81,-4.01,-3.14,-4.66,-4.66,-4.66
215.69,-1.84,2.83,-1.84,2.83,-2.84,-4.05,-3.18,-4.67,-4.67,-4.66
217.85,-1.83,2.85,-1.83,2.86,-2.87,-4.08,-3.21,-4.69,-4.69,-4.67
220.03,-1.80,2.91,-1.80,2.90,-2.90,-4.11,-3.24,-4.70,-4.70,-4.70
222.23,-1.77,2.95,-1.77,2.94,-2.94,-4.15,-3.27,-4.71,-4.71,-4.71
224.45,-1.73,2.98,-1.72,2.99,-2.98,-4.18,-3.31,-4.71,-4.71,-4.70
226.70,-1.68,3.04,-1.68,3.04,-3.03,-4.21,-3.34,-4.71,-4.71,-4.71
228.96,-1.62,3.10,-1.62,3.09,-3.09,-4.25,-3.37,-4.70,-4.71,-4.71
231.25,-1.57,3.14,-1.57,3.14,-3.14,-4.28,-3.40,-4.71,-4.71,-4.70
233.57,-1.51,3.19,-1.51,3.19,-3.20,-4.31,-3.43,-4.71,-4.70,-4.69
235.90,-1.45,3.25,-1.44,3.25,-3.26,-4.34,-3.46,-4.70,-4.70,-4.69
238.26,-1.37,3.33,-1.37,3.31,-3.31,-4.38,-3.49,-4.68,-4.68,-4.69
240.64,-1.31,3.37,-1.30,3.37,-3.37,-4.41,-3.51,-4.67,-4.67,-4.67
243.05,-1.23,3.43,-1.24,3.42,-3.42,-4.44,-3.54,-4.65,-4.65,-4.65
245.48,-1.18,3.46,-1.17,3.47,-3.46,-4.47,-3.56,-4.64,-4.63,-4.63
247.93,-1.11,3.52,-1.11,3.52,-3.50,-4.50,-3.58,-4.61,-4.61,-4.62
250.41,-1.05,3.57,-1.05,3.55,-3.54,-4.53,-3.60,-4.59,-4.59,-4.61
252.92,-1.00,3.58,-1.00,3.58,-3.57,-4.56,-3.62,-4.57,-4.57,-4.57
255.45,-0.97,3.59,-0.96,3.60,-3.60,-4.59,-3.64,-4.57,-4.56,-4.55
258.00,-0.92,3.62,-0.92,3.62,-3.63,-4.62,-3.65,-4.55,-4.55,-4.53
260.58,-0.86,3.66,-0.87,3.65,-3.66,-4.65,-3.67,-4.52,-4.53,-4.51
263.19,-0.82,3.68,-0.81,3.69,-3.69,-4.68,-3.68,-4.51,-4.50,-4.49
265.82,-0.75,3.73,-0.75,3.72,-3.73,-4.71,-3.69,-4.47,-4.47,-4.47
268.48,-0.68,3.77,-0.68,3.76,-3.76,-4.74,-3.70,-4.44,-4.45,-4.44
271.16,-0.61,3.81,-0.61,3.81,-3.80,-4.77,-3.72,-4.41,-4.41,-4.41
273.87,-0.55,3.85,-0.54,3.85,-3.84,-4.80,-3.72,-4.39,-4.38,-4.39
276.61,-0.48,3.89,-0.48,3.89,-3.88,-4.82,-3.73,-4.36,-4.36,-4.36
279.38,-0.42,3.93,-0.42,3.92,-3.92,-4.85,-3.74,-4.33,-4.34,-4.34
282.17,-0.37,3.96,-0.37,3.95,-3.95,-4.88,-3.75,-4.32,-4.32,-4.32
284.99,-0.32,3.98,-0.31,3.98,-3.99,-4.90,-3.76,-4.30,-4.30,-4.29
287.84,-0.26,4.02,-0.26,4.01,-4.02,-4.93,-3.77,-4.28,-4.28,-4.27
290.72,-0.19,4.05,-0.19,4.05,-4.06,-4.96,-3.78,-4.25,-4.25,-4.23
293.63,-0.13,4.09,-0.12,4.09,-4.10,-4.98,-3.80,-4.22,-4.22,-4.21
296.57,-0.06,4.13,-0.06,4.13,-4.13,-5.01,-3.81,-4.19,-4.18,-4.18
299.53,0.01,4.17,0.01,4.17,-4.16,-5.03,-3.82,-4.14,-4.15,-4.15
302.53,0.07,4.21,0.07,4.20,-4.18,-5.05,-3.84,-4.11,-4.11,-4.13
305.55,0.12,4.21,0.13,4.22,-4.20,-5.08,-3.86,-4.07,-4.07,-4.08
308.61,0.17,4.23,0.17,4.22,-4.21,-5.10,-3.88,-4.04,-4.04,-4.05
311.69,0.20,4.22,0.20,4.21,-4.22,-5.12,-3.90,-4.01,-4.02,-4.01
314.81,0.22,4.21,0.23,4.21,-4.22,-5.14,-3.93,-4.00,-3.99,-3.98
317.96,0.25,4.21,0.26,4.21,-4.22,-5.17,-3.95,-3.97,-3.96,-3.95
321.14,0.29,4.22,0.29,4.21,-4.22,-5.19,-3.98,-3.93,-3.93,-3.92
324.35,0.32,4.23,0.32,4.22,-4.22,-5.21,-4.02,-3.90,-3.90,-3.90
327.59,0.36,4.23,0.36,4.23,-4.23,-5.23,-4.05,-3.87,-3.87,-3.86
330.87,0.40,4.24,0.40,4.24,-4.25,-5.25,-4.09,-3.84,-3.84,-3.83
334.18,0.44,4.26,0.45,4.26,-4.26,-5.27,-4.13,-3.82,-3.81,-3.81
337.52,0.50,4.30,0.50,4.29,-4.28,-5.28,-4.18,-3.78,-3.78,-3.79
340.90,0.55,4.32,0.55,4.31,-4.31,-5.30,-4.22,-3.75,-3.76,-3.76
344.30,0.59,4.34,0.60,4.34,-4.33,-5.32,-4.27,-3.74,-3.74,-3.74
347.75,0.64,4.36,0.65,4.36,-4.37,-5.33,-4.33,-3.72,-3.72,-3.71
351.23,0.70,4.40,0.70,4.40,-4.40,-5.35,-4.39,-3.70,-3.70,-3.69
354.74,0.76,4.45,0.76,4.44,-4.44,-5.37,-4.45,-3.68,-3.68,-3.68
358.28,0.81,4.48,0.82,4.48,-4.48,-5.38,-4.51,-3.67,-3.66,-3.66
361.87,0.88,4.53,0.89,4.53,-4.53,-5.39,-4.58,-3.65,-3.65,-3.64
365.49,0.96,4.58,0.96,4.58,-4.58,-5.41,-4.65,-3.62,-3.63,-3.61
369.14,1.03,4.64,1.03,4.64,-4.64,-5.42,-4.72,-3.61,-3.60,-3.60
372.83,1.10,4.70,1.11,4.70,-4.69,-5.43,-4.80,-3.59,-3.58,-3.59
376.56,1.19,4.77,1.19,4.76,-4.75,-5.44,-4.88,-3.56,-3.56,-3.57
380.33,1.26,4.81,1.26,4.81,-4.81,-5.46,-4.97,-3.54,-3.54,-3.54
384.13,1.34,4.87,1.34,4.87,-4.86,-5.47,-5.05,-3.52,-3.52,-3.52
387.97,1.41,4.92,1.41,4.92,-4.92,-5.48,-5.14,-3.51,-3.50,-3.50
391.85,1.49,4.98,1.49,4.97,-4.97,-5.48,-5.23,-3.48,-3.48,-3.48
395.77,1.56,5.02,1.57,5.02,-5.02,-5.49,-5.33,-3.46,-3.46,-3.45
399.73,1.64,5.08,1.64,5.08,-5.08,-5.50,-5.43,-3.44,-3.44,-3.43
403.72,1.71,5.14,1.71,5.13,-5.13,-5.51,-5.52,-3.42,-3.42,-3.42
407.76,1.78,5.19,1.78,5.18,-5.18,-5.51,-5.62,-3.40,-3.40,-3.40
411.84,1.85,5.23,1.86,5.24,-5.23,-5.52,-5.73,-3.38,-3.38,-3.37
415.96,1.93,5.29,1.93,5.29,-5.29,-5.52,-5.83,-3.35,-3.35,-3.35
420.12,2.01,5.35,2.01,5.34,-5.34,-5.53,-5.93,-3.33,-3.33,-3.33
424.32,2.08,5.39,2.08,5.39,-5.39,-5.53,-6.03,-3.31,-3.31,-3.30
428.56,2.15,5.44,2.15,5.44,-5.44,-5.53,-6.13,-3.29,-3.28,-3.28
432.85,2.22,5.49,2.23,5.48,-5.49,-5.54,-6.23,-3.27,-3.26,-3.26
437.18,2.30,5.54,2.30,5.53,-5.54,-5.54,-6.33,-3.23,-3.24,-3.23
441.55,2.37,5.58,2.37,5.58,-5.58,-5.54,-6.42,-3.21,-3.21,-3.20
445.96,2.44,5.63,2.44,5.63,-5.63,-5.54,-6.52,-3.19,-3.19,-3.18
450.42,2.51,5.69,2.51,5.67,-5.67,-5.54,-6.60,-3.16,-3.16,-3.17
454.93,2.57,5.71,2.58,5.72,-5.71,-5.54,-6.68,-3.14,-3.13,-3.13
459.48,2.65,5.77,2.65,5.76,-5.75,-5.53,-6.76,-3.10,-3.11,-3.11
464.07,2.71,5.80,2.71,5.79,-5.79,-5.53,-6.83,-3.07,-3.08,-3.08
468.71,2.76,5.81,2.77,5.82,-5.82,-5.53,-6.89,-3.06,-3.05,-3.04
473.40,2.82,5.85,2.82,5.84,-5.85,-5.52,-6.94,-3.03,-3.03,-3.02
478.13,2.88,5.88,2.88,5.87,-5.87,-5.52,-6.99,-2.99,-3.00,-2.99
482.91,2.93,5.90,2.94,5.90,-5.90,-5.51,-7.02,-2.97,-2.96,-2.96
