frequency,raw,error,smoothed,error_smoothed,equalization,parametric_eq,fixed_band_eq,equalized_raw,equalized_smoothed,target
20.00,0.64,-6.41,0.61,-6.47,6.47,6.35,1.68,7.11,7.08,7.05
20.20,0.71,-6.39,0.68,-6.44,6.44,6.30,1.73,7.15,7.12,7.10
20.40,0.78,-6.37,0.75,-6.41,6.41,6.25,1.78,7.19,7.15,7.15
20.61,0.85,-6.33,0.82,-6.37,6.37,6.19,1.83,7.22,7.18,7.18
20.81,0.92,-6.31,0.89,-6.33,6.33,6.14,1.89,7.25,7.22,7.23
21.02,0.98,-6.29,0.96,-6.28,6.28,6.08,1.95,7.26,7.24,7.27
21.23,1.02,-6.27,1.04,-6.23,6.23,6.01,2.01,7.25,7.27,7.29
21.44,1.05,-6.26,1.12,-6.18,6.18,5.95,2.07,7.23,7.29,7.31
21.66,1.08,-6.25,1.20,-6.12,6.12,5.89,2.13,7.20,7.31,7.33
21.87,1.11,-6.23,1.28,-6.06,6.06,5.82,2.20,7.17,7.33,7.34
22.09,1.20,-6.16,1.36,-5.99,5.99,5.75,2.26,7.19,7.35,7.36
22.31,1.36,-6.01,1.44,-5.92,5.92,5.68,2.33,7.28,7.36,7.37
22.54,1.51,-5.86,1.54,-5.83,5.83,5.61,2.40,7.34,7.37,7.37
22.76,1.67,-5.70,1.63,-5.74,5.74,5.54,2.47,7.41,7.37,7.37
22.99,1.83,-5.53,1.72,-5.65,5.65,5.47,2.55,7.48,7.37,7.36
23.22,1.92,-5.44,1.81,-5.56,5.56,5.39,2.62,7.49,7.37,7.36
23.45,2.00,-5.36,1.90,-5.47,5.47,5.31,2.70,7.47,7.37,7.36
23.69,2.08,-5.29,2.00,-5.37,5.37,5.24,2.78,7.45,7.37,7.37
23.92,2.16,-5.21,2.11,-5.27,5.27,5.16,2.86,7.43,7.37,7.37
24.16,2.21,-5.16,2.21,-5.16,5.16,5.08,2.94,7.38,7.37,7.37
24.40,2.24,-5.14,2.30,-5.08,5.08,5.00,3.02,7.32,7.37,7.38
24.65,2.27,-5.10,2.37,-5.01,5.01,4.91,3.11,7.28,7.37,7.37
24.89,2.30,-5.07,2.43,-4.95,4.95,4.83,3.19,7.25,7.37,7.37
25.14,2.40,-4.97,2.49,-4.89,4.89,4.75,3.27,7.29,7.37,7.37
25.39,2.56,-4.82,2.56,-4.82,4.82,4.66,3.36,7.38,7.37,7.38
25.65,2.71,-4.67,2.63,-4.74,4.74,4.57,3.44,7.45,7.37,7.38
25.91,2.87,-4.50,2.72,-4.65,4.65,4.49,3.53,7.52,7.37,7.37
26.16,2.93,-4.44,2.82,-4.56,4.56,4.40,3.61,7.49,7.37,7.37
26.43,2.93,-4.44,2.91,-4.46,4.46,4.31,3.69,7.39,7.37,7.37
26.69,2.93,-4.44,3.02,-4.35,4.35,4.22,3.77,7.28,7.37,7.37
26.96,2.93,-4.44,3.12,-4.24,4.24,4.13,3.85,7.17,7.37,7.37
27.23,3.10,-4.27,3.24,-4.13,4.13,4.04,3.93,7.23,7.37,7.37
27.50,3.30,-4.07,3.35,-4.01,4.01,3.95,4.00,7.31,7.36,7.37
27.77,3.50,-3.86,3.47,-3.90,3.90,3.86,4.07,7.40,7.36,7.36
28.05,3.67,-3.69,3.57,-3.79,3.79,3.77,4.13,7.46,7.36,7.36
28.33,3.75,-3.60,3.67,-3.69,3.69,3.67,4.19,7.44,7.36,7.35
28.62,3.82,-3.53,3.78,-3.58,3.58,3.58,4.24,7.40,7.36,7.35
28.90,3.89,-3.47,3.88,-3.47,3.47,3.49,4.29,7.37,7.36,7.36
29.19,4.00,-3.35,4.00,-3.36,3.36,3.39,4.32,7.36,7.36,7.35
29.48,4.11,-3.25,4.11,-3.24,3.24,3.30,4.36,7.35,7.35,7.36
29.78,4.23,-3.12,4.22,-3.14,3.14,3.21,4.38,7.37,7.35,7.35
30.08,4.33,-3.03,4.30,-3.05,3.05,3.11,4.39,7.38,7.35,7.36
30.38,4.38,-2.97,4.37,-2.97,2.97,3.02,4.40,7.36,7.35,7.35
30.68,4.42,-2.93,4.44,-2.91,2.91,2.92,4.40,7.33,7.35,7.35
30.99,4.47,-2.88,4.50,-2.85,2.85,2.83,4.38,7.32,7.35,7.35
31.30,4.57,-2.77,4.57,-2.78,2.78,2.73,4.36,7.35,7.34,7.34
31.61,4.68,-2.66,4.64,-2.71,2.71,2.63,4.33,7.39,7.34,7.34
31.93,4.78,-2.56,4.71,-2.63,2.63,2.54,4.29,7.41,7.34,7.34
32.24,4.82,-2.51,4.78,-2.56,2.56,2.44,4.24,7.38,7.33,7.33
32.57,4.84,-2.49,4.86,-2.47,2.47,2.35,4.18,7.31,7.33,7.33
32.89,4.85,-2.48,4.94,-2.38,2.38,2.25,4.11,7.23,7.32,7.33
33.22,4.94,-2.38,5.04,-2.28,2.28,2.15,4.03,7.22,7.32,7.32
33.55,5.06,-2.26,5.14,-2.18,2.18,2.06,3.94,7.24,7.32,7.32
33.89,5.17,-2.14,5.24,-2.07,2.07,1.96,3.85,7.24,7.31,7.31
34.23,5.30,-2.01,5.35,-1.96,1.96,1.87,3.75,7.26,7.31,7.31
34.57,5.43,-1.87,5.45,-1.85,1.85,1.77,3.64,7.28,7.30,7.30
34.92,5.57,-1.73,5.56,-1.74,1.74,1.67,3.53,7.31,7.30,7.30
35.27,5.71,-1.58,5.66,-1.64,1.64,1.58,3.41,7.35,7.30,7.29
35.62,5.85,-1.44,5.76,-1.54,1.54,1.48,3.29,7.39,7.29,7.29
35.97,5.99,-1.30,5.85,-1.44,1.44,1.39,3.16,7.43,7.29,7.29
36.33,6.02,-1.27,5.95,-1.34,1.34,1.29,3.03,7.36,7.29,7.29
36.70,6.05,-1.23,6.04,-1.25,1.25,1.20,2.90,7.30,7.29,7.28
37.06,6.08,-1.20,6.12,-1.17,1.17,1.10,2.76,7.25,7.29,7.28
37.43,6.17,-1.12,6.18,-1.10,1.10,1.01,2.62,7.28,7.29,7.29
37.81,6.26,-1.03,6.25,-1.04,1.04,0.91,2.48,7.30,7.29,7.29
38.19,6.31,-0.97,6.31,-0.98,0.98,0.82,2.34,7.29,7.29,7.28
38.57,6.33,-0.96,6.37,-0.92,0.92,0.72,2.20,7.25,7.29,7.29
38.95,6.36,-0.94,6.44,-0.85,0.85,0.63,2.05,7.21,7.29,7.30
39.34,6.46,-0.83,6.51,-0.78,0.78,0.54,1.91,7.25,7.29,7.29
39.74,6.58,-0.71,6.58,-0.71,0.71,0.44,1.76,7.29,7.29,7.29
40.14,6.68,-0.61,6.66,-0.63,0.63,0.35,1.62,7.31,7.29,7.29
40.54,6.73,-0.56,6.75,-0.54,0.54,0.26,1.47,7.27,7.29,7.29
40.94,6.78,-0.50,6.84,-0.44,0.44,0.16,1.33,7.22,7.28,7.28
41.35,6.91,-0.37,6.94,-0.34,0.34,0.07,1.18,7.25,7.28,7.28
41.76,7.05,-0.22,7.03,-0.24,0.24,-0.02,1.04,7.29,7.27,7.27
42.18,7.16,-0.11,7.12,-0.15,0.15,-0.11,0.89,7.31,7.26,7.27
42.60,7.24,-0.02,7.21,-0.04,0.04,-0.20,0.75,7.28,7.25,7.26
43.03,7.32,0.07,7.31,0.07,-0.07,-0.30,0.60,7.25,7.24,7.25
43.46,7.40,0.16,7.40,0.17,-0.17,-0.39,0.46,7.23,7.23,7.24
43.90,7.48,0.26,7.48,0.26,-0.26,-0.48,0.32,7.22,7.22,7.22
44.33,7.58,0.38,7.55,0.35,-0.35,-0.57,0.17,7.24,7.21,7.20
44.78,7.68,0.50,7.62,0.43,-0.43,-0.65,0.03,7.25,7.19,7.18
45.23,7.73,0.56,7.70,0.52,-0.52,-0.74,-0.11,7.21,7.18,7.17
45.68,7.72,0.56,7.78,0.62,-0.62,-0.83,-0.26,7.11,7.17,7.16
46.13,7.76,0.62,7.85,0.70,-0.70,-0.92,-0.40,7.06,7.15,7.14
46.60,7.92,0.78,7.92,0.78,-0.78,-1.01,-0.54,7.14,7.14,7.14
47.06,8.06,0.94,7.99,0.87,-0.87,-1.10,-0.68,7.19,7.12,7.12
47.53,8.05,0.94,8.06,0.95,-0.95,-1.18,-0.83,7.10,7.11,7.11
48.01,8.05,0.94,8.13,1.04,-1.04,-1.27,-0.97,7.02,7.09,7.11
48.49,8.16,1.07,8.20,1.12,-1.12,-1.35,-1.11,7.04,7.08,7.09
48.97,8.26,1.19,8.27,1.20,-1.20,-1.44,-1.25,7.06,7.07,7.07
49.46,8.39,1.34,8.34,1.29,-1.29,-1.52,-1.39,7.10,7.05,7.05
49.96,8.52,1.49,8.42,1.38,-1.38,-1.61,-1.53,7.14,7.04,7.03
50.46,8.52,1.50,8.49,1.47,-1.47,-1.69,-1.66,7.05,7.03,7.02
50.96,8.50,1.49,8.57,1.56,-1.56,-1.78,-1.80,6.95,7.01,7.01
51.47,8.58,1.59,8.63,1.63,-1.63,-1.86,-1.94,6.95,7.00,6.99
51.99,8.67,1.69,8.70,1.71,-1.71,-1.94,-2.07,6.96,6.99,6.98
52.51,8.75,1.78,8.76,1.79,-1.79,-2.02,-2.21,6.97,6.97,6.97
53.03,8.83,1.86,8.83,1.86,-1.86,-2.10,-2.34,6.97,6.96,6.97
53.56,8.93,1.98,8.89,1.94,-1.94,-2.18,-2.47,6.99,6.95,6.95
54.10,9.01,2.07,8.95,2.01,-2.01,-2.26,-2.59,7.00,6.94,6.94
54.64,9.02,2.10,9.01,2.08,-2.08,-2.34,-2.72,6.94,6.93,6.92
55.18,9.04,2.12,9.06,2.14,-2.14,-2.42,-2.84,6.90,6.92,6.92
55.74,9.09,2.19,9.11,2.21,-2.21,-2.50,-2.96,6.88,6.91,6.90
56.29,9.15,2.26,9.18,2.28,-2.28,-2.58,-3.07,6.87,6.89,6.89
56.86,9.21,2.33,9.24,2.36,-2.36,-2.65,-3.18,6.85,6.88,6.88
57.42,9.27,2.42,9.29,2.43,-2.43,-2.73,-3.29,6.85,6.86,6.85
58.00,9.33,2.49,9.34,2.50,-2.50,-2.81,-3.39,6.83,6.84,6.84
58.58,9.41,2.58,9.39,2.57,-2.57,-2.88,-3.49,6.84,6.82,6.83
59.16,9.48,2.67,9.44,2.65,-2.65,-2.96,-3.58,6.84,6.79,6.81
59.76,9.52,2.73,9.49,2.72,-2.72,-3.03,-3.67,6.80,6.77,6.79
60.35,9.53,2.78,9.54,2.80,-2.80,-3.11,-3.75,6.73,6.74,6.75
60.96,9.53,2.82,9.59,2.89,-2.89,-3.18,-3.83,6.64,6.70,6.71
61.57,9.64,2.97,9.64,2.98,-2.98,-3.25,-3.90,6.66,6.67,6.67
62.18,9.73,3.10,9.69,3.06,-3.06,-3.32,-3.96,6.67,6.63,6.63
62.80,9.73,3.15,9.74,3.15,-3.15,-3.39,-4.02,6.59,6.59,6.58
63.43,9.77,3.23,9.78,3.23,-3.23,-3.46,-4.07,6.54,6.55,6.54
64.07,9.83,3.34,9.82,3.32,-3.32,-3.53,-4.12,6.52,6.50,6.49
64.71,9.83,3.38,9.85,3.40,-3.40,-3.60,-4.16,6.43,6.46,6.45
65.35,9.87,3.46,9.89,3.48,-3.48,-3.67,-4.19,6.39,6.41,6.41
66.01,9.93,3.57,9.93,3.57,-3.57,-3.74,-4.22,6.36,6.36,6.36
66.67,10.00,3.69,9.97,3.65,-3.65,-3.80,-4.25,6.35,6.31,6.31
67.33,10.03,3.77,10.00,3.73,-3.73,-3.87,-4.27,6.30,6.27,6.26
68.01,10.03,3.81,10.03,3.81,-3.81,-3.94,-4.29,6.22,6.22,6.22
68.69,10.03,3.86,10.06,3.89,-3.89,-4.00,-4.30,6.14,6.17,6.17
69.37,10.07,3.95,10.09,3.97,-3.97,-4.07,-4.31,6.10,6.12,6.12
70.07,10.13,4.06,10.12,4.06,-4.06,-4.13,-4.32,6.07,6.06,6.07
70.77,10.13,4.11,10.15,4.14,-4.14,-4.19,-4.32,5.99,6.01,6.02
71.48,10.17,4.20,10.18,4.23,-4.23,-4.25,-4.33,5.94,5.96,5.97
72.19,10.22,4.32,10.21,4.31,-4.31,-4.32,-4.33,5.91,5.90,5.90
72.91,10.23,4.39,10.23,4.39,-4.39,-4.38,-4.33,5.85,5.84,5.84
73.64,10.23,4.44,10.25,4.46,-4.46,-4.44,-4.33,5.77,5.79,5.79
74.38,10.27,4.54,10.26,4.53,-4.53,-4.50,-4.34,5.74,5.73,5.73
75.12,10.33,4.66,10.28,4.61,-4.61,-4.55,-4.34,5.72,5.68,5.67
75.87,10.33,4.72,10.30,4.68,-4.68,-4.61,-4.34,5.65,5.62,5.61
76.63,10.33,4.77,10.32,4.75,-4.75,-4.67,-4.35,5.58,5.57,5.56
77.40,10.33,4.82,10.33,4.82,-4.82,-4.73,-4.35,5.51,5.51,5.51
78.17,10.33,4.88,10.35,4.89,-4.89,-4.78,-4.36,5.44,5.46,5.45
78.95,10.33,4.92,10.36,4.95,-4.95,-4.84,-4.37,5.38,5.41,5.41
79.74,10.33,4.97,10.37,5.01,-5.01,-4.89,-4.38,5.32,5.36,5.36
80.54,10.34,5.03,10.38,5.07,-5.07,-4.94,-4.39,5.27,5.31,5.31
81.35,10.38,5.12,10.39,5.13,-5.13,-5.00,-4.41,5.25,5.26,5.26
82.16,10.43,5.22,10.40,5.18,-5.18,-5.05,-4.43,5.25,5.21,5.21
82.98,10.43,5.26,10.40,5.24,-5.24,-5.10,-4.45,5.19,5.17,5.17
83.81,10.43,5.31,10.41,5.29,-5.29,-5.15,-4.48,5.14,5.12,5.12
84.65,10.43,5.36,10.42,5.35,-5.35,-5.20,-4.51,5.08,5.07,5.07
85.50,10.43,5.40,10.43,5.40,-5.40,-5.25,-4.54,5.03,5.02,5.03
86.35,10.43,5.45,10.43,5.46,-5.46,-5.30,-4.58,4.97,4.97,4.98
87.22,10.43,5.50,10.44,5.52,-5.52,-5.35,-4.61,4.91,4.92,4.93
88.09,10.43,5.55,10.45,5.58,-5.58,-5.39,-4.66,4.85,4.87,4.88
88.97,10.43,5.61,10.45,5.63,-5.63,-5.44,-4.70,4.80,4.82,4.82
89.86,10.44,5.67,10.45,5.68,-5.68,-5.48,-4.75,4.76,4.77,4.77
90.76,10.44,5.72,10.45,5.73,-5.73,-5.53,-4.81,4.71,4.72,4.72
91.66,10.44,5.77,10.44,5.77,-5.77,-5.57,-4.87,4.67,4.67,4.67
92.58,10.44,5.83,10.43,5.82,-5.82,-5.62,-4.93,4.63,4.62,4.61
93.51,10.44,5.88,10.43,5.86,-5.86,-5.66,-4.99,4.58,4.57,4.56
94.44,10.44,5.92,10.42,5.90,-5.90,-5.70,-5.06,4.54,4.52,4.52
95.39,10.44,5.97,10.40,5.93,-5.93,-5.74,-5.13,4.51,4.47,4.47
96.34,10.42,6.00,10.39,5.97,-5.97,-5.78,-5.20,4.45,4.42,4.42
97.30,10.37,6.00,10.37,6.00,-6.00,-5.82,-5.28,4.37,4.37,4.37
98.28,10.32,6.00,10.36,6.03,-6.03,-5.86,-5.36,4.29,4.32,4.32
99.26,10.30,6.02,10.34,6.06,-6.06,-5.89,-5.44,4.24,4.28,4.28
100.25,10.29,6.06,10.32,6.09,-6.09,-5.93,-5.53,4.20,4.23,4.23
101.25,10.27,6.09,10.30,6.12,-6.12,-5.97,-5.62,4.15,4.18,4.18
102.27,10.26,6.13,10.27,6.14,-6.14,-6.00,-5.71,4.12,4.13,4.13
103.29,10.24,6.16,10.24,6.16,-6.16,-6.04,-5.80,4.08,4.08,4.08
104.32,10.22,6.18,10.21,6.17,-6.17,-6.07,-5.89,4.05,4.03,4.04
105.37,10.20,6.21,10.17,6.19,-6.19,-6.10,-5.98,4.02,3.98,3.99
106.42,10.18,6.24,10.13,6.20,-6.20,-6.13,-6.07,3.98,3.93,3.94
107.48,10.15,6.27,10.10,6.22,-6.22,-6.16,-6.17,3.93,3.88,3.88
108.56,10.12,6.29,10.07,6.24,-6.24,-6.19,-6.26,3.88,3.83,3.83
109.64,10.05,6.27,10.04,6.26,-6.26,-6.22,-6.35,3.79,3.77,3.78
110.74,9.97,6.25,10.01,6.28,-6.28,-6.25,-6.44,3.69,3.72,3.72
111.85,9.88,6.20,9.97,6.30,-6.30,-6.28,-6.52,3.58,3.67,3.68
112.97,9.86,6.24,9.93,6.31,-6.31,-6.31,-6.60,3.55,3.62,3.62
114.10,9.85,6.28,9.90,6.33,-6.33,-6.33,-6.68,3.53,3.57,3.57
115.24,9.85,6.33,9.87,6.34,-6.34,-6.36,-6.76,3.51,3.53,3.52
116.39,9.85,6.38,9.84,6.36,-6.36,-6.38,-6.83,3.49,3.48,3.47
117.55,9.86,6.43,9.82,6.38,-6.38,-6.41,-6.89,3.48,3.44,3.43
118.73,9.86,6.47,9.80,6.40,-6.40,-6.43,-6.95,3.46,3.40,3.39
119.92,9.80,6.44,9.78,6.42,-6.42,-6.45,-6.99,3.38,3.36,3.36
121.12,9.76,6.44,9.76,6.44,-6.44,-6.47,-7.04,3.33,3.33,3.32
122.33,9.71,6.42,9.75,6.46,-6.46,-6.49,-7.07,3.25,3.29,3.29
123.55,9.69,6.43,9.73,6.48,-6.48,-6.51,-7.10,3.21,3.26,3.26
124.79,9.70,6.47,9.72,6.49,-6.49,-6.53,-7.12,3.21,3.23,3.23
126.03,9.71,6.51,9.70,6.50,-6.50,-6.55,-7.13,3.21,3.20,3.20
127.29,9.71,6.53,9.67,6.50,-6.50,-6.57,-7.13,3.21,3.17,3.18
128.57,9.68,6.54,9.65,6.51,-6.51,-6.58,-7.12,3.17,3.14,3.14
129.85,9.62,6.51,9.62,6.51,-6.51,-6.60,-7.11,3.11,3.11,3.11
131.15,9.57,6.49,9.59,6.51,-6.51,-6.61,-7.09,3.06,3.08,3.08
132.46,9.54,6.49,9.57,6.51,-6.51,-6.63,-7.06,3.03,3.05,3.05
133.79,9.54,6.52,9.54,6.51,-6.51,-6.64,-7.03,3.03,3.02,3.02
135.12,9.53,6.54,9.51,6.51,-6.51,-6.65,-6.99,3.02,3.00,2.99
136.48,9.47,6.50,9.47,6.50,-6.50,-6.66,-6.95,2.97,2.97,2.97
137.84,9.45,6.52,9.43,6.49,-6.49,-6.67,-6.90,2.96,2.94,2.93
139.22,9.39,6.49,9.40,6.48,-6.48,-6.68,-6.84,2.91,2.91,2.90
140.61,9.35,6.48,9.36,6.48,-6.48,-6.69,-6.79,2.88,2.88,2.87
142.02,9.35,6.50,9.32,6.47,-6.47,-6.70,-6.73,2.88,2.85,2.85
143.44,9.28,6.46,9.28,6.47,-6.47,-6.71,-6.67,2.81,2.82,2.82
144.87,9.22,6.44,9.25,6.47,-6.47,-6.71,-6.60,2.75,2.78,2.78
146.32,9.17,6.43,9.21,6.48,-6.48,-6.72,-6.54,2.69,2.73,2.74
147.78,9.15,6.44,9.17,6.49,-6.49,-6.72,-6.48,2.66,2.68,2.71
149.26,9.14,6.48,9.13,6.50,-6.50,-6.72,-6.42,2.64,2.63,2.66
150.75,9.09,6.49,9.09,6.52,-6.52,-6.73,-6.35,2.57,2.57,2.60
152.26,9.06,6.53,9.06,6.55,-6.55,-6.73,-6.29,2.51,2.51,2.53
153.78,9.04,6.58,9.02,6.57,-6.57,-6.73,-6.24,2.47,2.44,2.46
155.32,8.98,6.59,8.98,6.60,-6.60,-6.73,-6.18,2.38,2.38,2.39
156.88,8.91,6.60,8.93,6.62,-6.62,-6.73,-6.13,2.29,2.31,2.31
158.44,8.86,6.63,8.87,6.64,-6.64,-6.73,-6.08,2.23,2.24,2.23
160.03,8.85,6.70,8.81,6.64,-6.64,-6.72,-6.03,2.21,2.17,2.15
161.63,8.81,6.73,8.75,6.65,-6.65,-6.72,-5.98,2.16,2.10,2.08
163.24,8.70,6.68,8.69,6.65,-6.65,-6.71,-5.94,2.05,2.04,2.02
164.88,8.64,6.67,8.63,6.64,-6.64,-6.71,-5.91,2.00,1.98,1.97
166.53,8.61,6.69,8.56,6.63,-6.63,-6.70,-5.87,1.99,1.94,1.92
168.19,8.50,6.62,8.50,6.60,-6.60,-6.70,-5.85,1.90,1.90,1.88
169.87,8.38,6.54,8.43,6.57,-6.57,-6.69,-5.82,1.81,1.86,1.84
171.57,8.31,6.49,8.37,6.53,-6.53,-6.68,-5.80,1.78,1.84,1.82
173.29,8.24,6.43,8.31,6.49,-6.49,-6.67,-5.79,1.75,1.82,1.81
175.02,8.20,6.40,8.25,6.44,-6.44,-6.66,-5.78,1.76,1.80,1.80
176.77,8.20,6.41,8.19,6.39,-6.39,-6.65,-5.77,1.81,1.80,1.79
178.54,8.20,6.42,8.14,6.35,-6.35,-6.63,-5.77,1.85,1.79,1.78
180.32,8.09,6.30,8.09,6.31,-6.31,-6.62,-5.77,1.78,1.78,1.79
182.13,8.02,6.22,8.05,6.27,-6.27,-6.60,-5.77,1.75,1.78,1.80
183.95,8.02,6.23,8.00,6.23,-6.23,-6.59,-5.79,1.79,1.77,1.79
185.79,7.95,6.16,7.96,6.19,-6.19,-6.57,-5.80,1.76,1.76,1.79
187.65,7.86,6.09,7.91,6.15,-6.15,-6.56,-5.82,1.71,1.76,1.77
189.52,7.86,6.10,7.86,6.12,-6.12,-6.54,-5.84,1.75,1.75,1.76
191.42,7.82,6.08,7.81,6.08,-6.08,-6.52,-5.87,1.75,1.73,1.74
193.33,7.78,6.06,7.75,6.04,-6.04,-6.50,-5.90,1.75,1.72,1.72
195.27,7.73,6.03,7.69,5.99,-5.99,-6.48,-5.93,1.74,1.70,1.70
197.22,7.67,5.99,7.62,5.94,-5.94,-6.45,-5.97,1.73,1.68,1.68
199.19,7.59,5.93,7.55,5.89,-5.89,-6.43,-6.01,1.70,1.67,1.66
201.18,7.47,5.83,7.48,5.84,-5.84,-6.41,-6.06,1.63,1.64,1.64
203.19,7.37,5.75,7.40,5.77,-5.77,-6.38,-6.10,1.60,1.62,1.62
205.23,7.31,5.71,7.30,5.70,-5.70,-6.36,-6.15,1.61,1.60,1.60
207.28,7.25,5.66,7.21,5.63,-5.63,-6.33,-6.20,1.62,1.58,1.59
209.35,7.18,5.61,7.11,5.55,-5.55,-6.30,-6.25,1.63,1.56,1.57
211.44,7.11,5.57,7.01,5.46,-5.46,-6.27,-6.30,1.65,1.55,1.54
213.56,7.00,5.47,6.93,5.40,-5.40,-6.24,-6.35,1.61,1.53,1.53
215.69,6.89,5.37,6.87,5.35,-5.35,-6.21,-6.41,1.54,1.52,1.52
217.85,6.82,5.31,6.83,5.33,-5.33,-6.18,-6.46,1.49,1.51,1.51
220.03,6.77,5.27,6.83,5.33,-5.33,-6.15,-6.50,1.44,1.50,1.50
222.23,6.69,5.22,6.86,5.37,-5.37,-6.11,-6.55,1.32,1.49,1.47
224.45,6.70,5.22,6.92,5.44,-5.44,-6.08,-6.59,1.27,1.49,1.48
226.70,6.77,5.29,7.01,5.52,-5.52,-6.04,-6.63,1.25,1.49,1.48
228.96,6.88,5.39,7.12,5.62,-5.62,-6.01,-6.67,1.26,1.49,1.49
231.25,7.08,5.58,7.24,5.74,-5.74,-5.97,-6.70,1.35,1.50,1.50
233.57,7.32,5.81,7.38,5.86,-5.86,-5.93,-6.72,1.46,1.51,1.51
235.90,7.63,6.11,7.52,5.99,-5.99,-5.89,-6.74,1.64,1.53,1.52
238.26,7.84,6.31,7.66,6.12,-6.12,-5.85,-6.75,1.72,1.54,1.53
240.64,8.01,6.45,7.81,6.25,-6.25,-5.81,-6.75,1.77,1.56,1.56
243.05,8.15,6.56,7.94,6.36,-6.36,-5.76,-6.75,1.80,1.58,1.59
245.48,8.22,6.61,8.05,6.44,-6.44,-5.72,-6.73,1.78,1.61,1.61
247.93,8.25,6.61,8.14,6.51,-6.51,-5.68,-6.71,1.74,1.63,1.64
250.41,8.23,6.57,8.20,6.54,-6.54,-5.63,-6.68,1.69,1.65,1.66
252.92,8.16,6.47,8.22,6.54,-6.54,-5.58,-6.64,1.62,1.68,1.69
255.45,8.18,6.47,8.21,6.51,-6.51,-5.54,-6.59,1.68,1.70,1.71
258.00,8.18,6.45,8.18,6.45,-6.45,-5.49,-6.53,1.73,1.73,1.73
260.58,8.07,6.32,8.12,6.37,-6.37,-5.44,-6.46,1.70,1.75,1.75
263.19,8.01,6.23,8.05,6.27,-6.27,-5.39,-6.39,1.74,1.78,1.78
265.82,8.03,6.23,7.97,6.17,-6.17,-5.34,-6.31,1.87,1.80,1.80
268.48,7.88,6.06,7.88,6.06,-6.06,-5.28,-6.22,1.82,1.83,1.82
271.16,7.76,5.91,7.80,5.95,-5.95,-5.23,-6.12,1.81,1.85,1.85
273.87,7.69,5.82,7.72,5.84,-5.84,-5.18,-6.01,1.85,1.88,1.87
276.61,7.59,5.69,7.63,5.73,-5.73,-5.12,-5.91,1.86,1.90,1.90
279.38,7.48,5.55,7.54,5.62,-5.62,-5.07,-5.79,1.87,1.93,1.93
282.17,7.51,5.56,7.46,5.51,-5.51,-5.01,-5.67,2.00,1.96,1.95
284.99,7.43,5.44,7.38,5.39,-5.39,-4.95,-5.55,2.04,1.98,1.99
287.84,7.24,5.23,7.30,5.28,-5.28,-4.89,-5.43,1.96,2.01,2.01
290.72,7.22,5.18,7.23,5.18,-5.18,-4.83,-5.30,2.04,2.04,2.04
293.63,7.14,5.07,7.16,5.08,-5.08,-4.77,-5.17,2.06,2.07,2.07
296.57,7.10,5.00,7.09,4.99,-4.99,-4.71,-5.04,2.12,2.10,2.10
299.53,7.02,4.89,7.03,4.90,-4.90,-4.65,-4.91,2.12,2.13,2.13
302.53,6.87,4.72,6.97,4.81,-4.81,-4.59,-4.78,2.06,2.16,2.15
305.55,6.85,4.66,6.91,4.73,-4.73,-4.53,-4.65,2.12,2.18,2.19
308.61,6.91,4.70,6.86,4.65,-4.65,-4.47,-4.51,2.26,2.21,2.21
311.69,6.83,4.59,6.80,4.57,-4.57,-4.40,-4.38,2.26,2.23,2.24
314.81,6.71,4.45,6.73,4.48,-4.48,-4.34,-4.25,2.23,2.25,2.26
317.96,6.71,4.43,6.67,4.40,-4.40,-4.27,-4.13,2.32,2.27,2.28
321.14,6.68,4.39,6.60,4.31,-4.31,-4.21,-4.00,2.37,2.29,2.29
324.35,6.52,4.21,6.53,4.22,-4.22,-4.15,-3.87,2.30,2.31,2.31
327.59,6.45,4.13,6.45,4.13,-4.13,-4.08,-3.75,2.32,2.32,2.32
330.87,6.42,4.09,6.37,4.04,-4.04,-4.02,-3.63,2.39,2.34,2.33
334.18,6.32,3.97,6.29,3.94,-3.94,-3.95,-3.51,2.38,2.35,2.35
337.52,6.26,3.90,6.20,3.85,-3.85,-3.89,-3.39,2.42,2.36,2.36
340.90,6.10,3.73,6.12,3.75,-3.75,-3.82,-3.28,2.35,2.37,2.37
344.30,5.97,3.59,6.03,3.66,-3.66,-3.76,-3.16,2.31,2.37,2.38
347.75,5.90,3.52,5.95,3.57,-3.57,-3.69,-3.05,2.33,2.38,2.38
351.23,5.83,3.44,5.87,3.49,-3.49,-3.63,-2.94,2.34,2.38,2.39
354.74,5.78,3.40,5.79,3.41,-3.41,-3.57,-2.84,2.38,2.39,2.38
358.28,5.71,3.32,5.72,3.33,-3.33,-3.51,-2.73,2.38,2.39,2.39
361.87,5.65,3.26,5.66,3.27,-3.27,-3.45,-2.63,2.38,2.39,2.39
365.49,5.61,3.21,5.60,3.21,-3.21,-3.39,-2.53,2.40,2.39,2.40
369.14,5.53,3.14,5.55,3.16,-3.16,-3.33,-2.43,2.37,2.39,2.39
372.83,5.52,3.13,5.51,3.12,-3.12,-3.28,-2.33,2.40,2.39,2.39
376.56,5.54,3.16,5.47,3.08,-3.08,-3.22,-2.24,2.46,2.39,2.38
380.33,5.44,3.05,5.45,3.06,-3.06,-3.17,-2.15,2.38,2.39,2.39
384.13,5.33,2.94,5.42,3.03,-3.03,-3.12,-2.06,2.30,2.38,2.39
387.97,5.32,2.94,5.38,3.00,-3.00,-3.07,-1.97,2.32,2.38,2.38
391.85,5.34,2.97,5.34,2.97,-2.97,-3.03,-1.88,2.37,2.37,2.37
395.77,5.34,2.96,5.31,2.94,-2.94,-2.99,-1.80,2.40,2.37,2.38
399.73,5.34,2.97,5.29,2.92,-2.92,-2.95,-1.71,2.42,2.36,2.37
403.72,5.33,2.96,5.26,2.90,-2.90,-2.92,-1.63,2.43,2.36,2.37
407.76,5.27,2.92,5.22,2.87,-2.87,-2.89,-1.55,2.40,2.35,2.35
411.84,5.20,2.85,5.19,2.84,-2.84,-2.86,-1.47,2.36,2.35,2.35
415.96,5.15,2.80,5.16,2.81,-2.81,-2.84,-1.39,2.34,2.35,2.35
420.12,5.13,2.78,5.13,2.78,-2.78,-2.82,-1.32,2.35,2.35,2.35
424.32,5.06,2.71,5.11,2.76,-2.76,-2.80,-1.24,2.30,2.36,2.35
428.56,5.03,2.67,5.10,2.73,-2.73,-2.79,-1.17,2.30,2.37,2.36
432.85,5.06,2.69,5.09,2.70,-2.70,-2.78,-1.10,2.36,2.38,2.37
437.18,5.12,2.74,5.08,2.67,-2.67,-2.77,-1.03,2.45,2.40,2.38
441.55,5.07,2.65,5.08,2.65,-2.65,-2.77,-0.96,2.42,2.43,2.42
445.96,4.97,2.52,5.09,2.63,-2.63,-2.76,-0.89,2.34,2.46,2.45
450.42,5.02,2.54,5.10,2.60,-2.60,-2.76,-0.82,2.42,2.50,2.48
454.93,5.08,2.55,5.11,2.57,-2.57,-2.75,-0.75,2.51,2.54,2.53
459.48,5.14,2.57,5.13,2.55,-2.55,-2.74,-0.69,2.59,2.58,2.57
464.07,5.17,2.55,5.14,2.51,-2.51,-2.72,-0.62,2.66,2.63,2.62
468.71,5.17,2.49,5.15,2.48,-2.48,-2.68,-0.55,2.70,2.68,2.68
473.40,5.17,2.45,5.15,2.43,-2.43,-2.64,-0.49,2.74,2.72,2.72
478.13,5.19,2.41,5.14,2.37,-2.37,-2.58,-0.43,2.82,2.77,2.78
482.91,5.13,2.31,5.12,2.30,-2.30,-2.51,-0.36,2.83,2.82,2.82
487.74,5.11,2.25,5.08,2.22,-2.22,-2.41,-0.30,2.89,2.86,2.86
492.62,4.96,2.05,5.02,2.12,-2.12,-2.29,-0.24,2.84,2.89,2.91
497.55,4.87,1.94,4.95,2.03,-2.03,-2.14,-0.18,2.84,2.93,2.93
502.52,4.85,1.89,4.85,1.90,-1.90,-1.97,-0.11,2.95,2.95,2.96
507.55,4.75,1.78,4.71,1.75,-1.75,-1.78,-0.05,3.01,2.96,2.97
512.62,4.58,1.60,4.54,1.57,-1.57,-1.56,0.01,3.01,2.97,2.98
517.75,4.39,1.40,4.34,1.37,-1.37,-1.31,0.07,3.02,2.97,2.99
522.93,4.14,1.16,4.10,1.14,-1.14,-1.05,0.13,3.00,2.96,2.98
528.16,3.90,0.95,3.84,0.91,-0.91,-0.77,0.19,3.00,2.94,2.95
533.44,3.60,0.68,3.54,0.64,-0.64,-0.48,0.25,2.97,2.91,2.92
538.77,3.23,0.34,3.20,0.33,-0.33,-0.18,0.31,2.90,2.87,2.89
544.16,3.01,0.17,2.83,0.01,-0.01,0.13,0.37,3.00,2.83,2.84
