frequency,raw,error,smoothed,error_smoothed,equalization,parametric_eq,fixed_band_eq,equalized_raw,equalized_smoothed,target
20.00,-3.61,-8.99,-3.64,-9.04,9.04,8.16,3.52,5.42,5.40,5.38
20.20,-3.58,-8.99,-3.59,-9.01,9.01,8.23,3.61,5.42,5.42,5.41
20.40,-3.54,-8.98,-3.53,-8.98,8.98,8.29,3.71,5.43,5.44,5.44
20.61,-3.48,-8.94,-3.48,-8.95,8.95,8.36,3.81,5.46,5.46,5.46
20.81,-3.43,-8.92,-3.43,-8.91,8.91,8.41,3.92,5.48,5.48,5.49
21.02,-3.39,-8.91,-3.39,-8.88,8.88,8.47,4.02,5.49,5.49,5.52
21.23,-3.35,-8.88,-3.34,-8.85,8.85,8.52,4.13,5.49,5.51,5.53
21.44,-3.30,-8.84,-3.29,-8.81,8.81,8.56,4.25,5.51,5.52,5.54
21.66,-3.26,-8.81,-3.24,-8.78,8.78,8.60,4.36,5.51,5.53,5.55
21.87,-3.21,-8.76,-3.20,-8.74,8.74,8.64,4.48,5.53,5.54,5.55
22.09,-3.15,-8.71,-3.15,-8.70,8.70,8.67,4.60,5.55,5.55,5.55
22.31,-3.09,-8.65,-3.11,-8.66,8.66,8.70,4.73,5.57,5.55,5.55
22.54,-3.04,-8.60,-3.07,-8.62,8.62,8.72,4.86,5.58,5.55,5.55
22.76,-3.01,-8.57,-3.02,-8.58,8.58,8.74,4.99,5.56,5.55,5.55
22.99,-2.96,-8.51,-2.98,-8.54,8.54,8.75,5.12,5.57,5.55,5.54
23.22,-2.93,-8.48,-2.94,-8.49,8.49,8.75,5.26,5.56,5.55,5.54
23.45,-2.90,-8.44,-2.90,-8.45,8.45,8.76,5.40,5.55,5.55,5.54
23.69,-2.87,-8.41,-2.86,-8.41,8.41,8.75,5.54,5.53,5.55,5.54
23.92,-2.83,-8.37,-2.82,-8.36,8.36,8.74,5.69,5.53,5.54,5.54
24.16,-2.78,-8.33,-2.78,-8.32,8.32,8.73,5.84,5.54,5.54,5.55
24.40,-2.75,-8.30,-2.74,-8.28,8.28,8.71,5.99,5.53,5.54,5.55
24.65,-2.72,-8.26,-2.70,-8.24,8.24,8.69,6.15,5.51,5.54,5.54
24.89,-2.67,-8.21,-2.66,-8.20,8.20,8.66,6.30,5.52,5.54,5.54
25.14,-2.63,-8.17,-2.62,-8.16,8.16,8.63,6.46,5.52,5.53,5.53
25.39,-2.57,-8.11,-2.59,-8.12,8.12,8.59,6.62,5.54,5.53,5.53
25.65,-2.52,-8.06,-2.55,-8.08,8.08,8.55,6.78,5.56,5.53,5.53
25.91,-2.50,-8.03,-2.52,-8.04,8.04,8.51,6.94,5.54,5.53,5.52
26.16,-2.46,-7.98,-2.48,-8.01,8.01,8.46,7.11,5.54,5.52,5.52
26.43,-2.43,-7.95,-2.45,-7.97,7.97,8.41,7.27,5.54,5.52,5.52
26.69,-2.42,-7.94,-2.42,-7.94,7.94,8.36,7.43,5.52,5.52,5.52
26.96,-2.37,-7.89,-2.39,-7.91,7.91,8.30,7.59,5.53,5.51,5.52
27.23,-2.37,-7.89,-2.37,-7.88,7.88,8.24,7.74,5.50,5.51,5.51
27.50,-2.33,-7.85,-2.34,-7.85,7.85,8.18,7.89,5.51,5.51,5.51
27.77,-2.33,-7.83,-2.32,-7.82,7.82,8.12,8.04,5.49,5.50,5.50
28.05,-2.29,-7.79,-2.29,-7.79,7.79,8.05,8.18,5.50,5.50,5.50
28.33,-2.28,-7.77,-2.26,-7.76,7.76,7.98,8.32,5.47,5.49,5.49
28.62,-2.24,-7.73,-2.23,-7.72,7.72,7.91,8.45,5.48,5.49,5.49
28.90,-2.20,-7.69,-2.20,-7.69,7.69,7.84,8.57,5.48,5.49,5.49
29.19,-2.18,-7.66,-2.16,-7.64,7.64,7.77,8.68,5.46,5.48,5.47
29.48,-2.14,-7.62,-2.13,-7.60,7.60,7.70,8.78,5.46,5.47,5.48
29.78,-2.09,-7.56,-2.09,-7.56,7.56,7.62,8.87,5.46,5.47,5.47
30.08,-2.05,-7.52,-2.05,-7.51,7.51,7.55,8.94,5.46,5.46,5.47
30.38,-2.00,-7.46,-2.01,-7.47,7.47,7.47,9.01,5.46,5.46,5.46
30.68,-1.96,-7.42,-1.97,-7.42,7.42,7.40,9.06,5.45,5.45,5.45
30.99,-1.91,-7.36,-1.93,-7.37,7.37,7.32,9.09,5.46,5.44,5.44
31.30,-1.87,-7.31,-1.89,-7.33,7.33,7.25,9.11,5.45,5.44,5.44
31.61,-1.83,-7.27,-1.85,-7.28,7.28,7.17,9.12,5.45,5.43,5.44
31.93,-1.80,-7.23,-1.82,-7.24,7.24,7.10,9.11,5.44,5.42,5.42
32.24,-1.77,-7.18,-1.78,-7.20,7.20,7.03,9.09,5.43,5.42,5.41
32.57,-1.76,-7.17,-1.75,-7.16,7.16,6.95,9.06,5.40,5.41,5.41
32.89,-1.72,-7.13,-1.72,-7.12,7.12,6.88,9.01,5.40,5.40,5.40
33.22,-1.68,-7.08,-1.70,-7.09,7.09,6.81,8.95,5.41,5.39,5.39
33.55,-1.65,-7.04,-1.67,-7.05,7.05,6.74,8.89,5.40,5.38,5.39
33.89,-1.64,-7.02,-1.64,-7.02,7.02,6.67,8.81,5.37,5.38,5.38
34.23,-1.64,-7.02,-1.61,-6.98,6.98,6.61,8.72,5.34,5.37,5.37
34.57,-1.59,-6.95,-1.59,-6.95,6.95,6.54,8.63,5.35,5.36,5.36
34.92,-1.57,-6.92,-1.56,-6.91,6.91,6.48,8.53,5.34,5.35,5.35
35.27,-1.54,-6.89,-1.53,-6.87,6.87,6.41,8.42,5.33,5.34,5.34
35.62,-1.51,-6.84,-1.51,-6.83,6.83,6.35,8.31,5.32,5.33,5.33
35.97,-1.46,-6.78,-1.48,-6.79,6.79,6.29,8.20,5.33,5.32,5.31
36.33,-1.43,-6.74,-1.45,-6.75,6.75,6.24,8.09,5.32,5.31,5.31
36.70,-1.42,-6.72,-1.42,-6.71,6.71,6.18,7.97,5.29,5.29,5.29
37.06,-1.38,-6.66,-1.39,-6.67,6.67,6.13,7.85,5.29,5.28,5.28
37.43,-1.36,-6.64,-1.36,-6.63,6.63,6.08,7.74,5.27,5.27,5.27
37.81,-1.33,-6.59,-1.33,-6.59,6.59,6.03,7.62,5.26,5.26,5.26
38.19,-1.30,-6.55,-1.30,-6.55,6.55,5.98,7.51,5.25,5.25,5.25
38.57,-1.27,-6.51,-1.28,-6.51,6.51,5.94,7.39,5.24,5.23,5.24
38.95,-1.25,-6.48,-1.26,-6.48,6.48,5.90,7.28,5.23,5.22,5.22
39.34,-1.22,-6.43,-1.24,-6.45,6.45,5.86,7.18,5.23,5.21,5.21
39.74,-1.20,-6.40,-1.22,-6.42,6.42,5.82,7.07,5.21,5.20,5.19
40.14,-1.20,-6.39,-1.20,-6.39,6.39,5.79,6.97,5.19,5.19,5.19
40.54,-1.16,-6.33,-1.18,-6.36,6.36,5.76,6.87,5.19,5.18,5.17
40.94,-1.16,-6.33,-1.16,-6.32,6.32,5.73,6.78,5.16,5.16,5.16
41.35,-1.15,-6.30,-1.14,-6.29,6.29,5.70,6.69,5.14,5.15,5.15
41.76,-1.12,-6.26,-1.12,-6.26,6.26,5.68,6.60,5.13,5.14,5.14
42.18,-1.12,-6.25,-1.10,-6.22,6.22,5.66,6.52,5.10,5.12,5.13
42.60,-1.09,-6.21,-1.08,-6.18,6.18,5.65,6.45,5.09,5.11,5.11
43.03,-1.07,-6.18,-1.05,-6.15,6.15,5.64,6.38,5.07,5.09,5.11
43.46,-1.04,-6.13,-1.03,-6.11,6.11,5.63,6.31,5.07,5.08,5.09
43.90,-0.99,-6.05,-1.01,-6.07,6.07,5.62,6.24,5.08,5.06,5.06
44.33,-0.99,-6.03,-0.99,-6.03,6.03,5.62,6.19,5.04,5.04,5.04
44.78,-0.94,-5.96,-0.97,-6.00,6.00,5.62,6.13,5.05,5.03,5.02
45.23,-0.94,-5.94,-0.95,-5.96,5.96,5.63,6.08,5.01,5.01,5.00
45.68,-0.94,-5.92,-0.93,-5.92,5.92,5.64,6.04,4.97,4.99,4.98
46.13,-0.90,-5.86,-0.92,-5.88,5.88,5.65,6.00,4.98,4.97,4.96
46.60,-0.90,-5.85,-0.91,-5.85,5.85,5.67,5.96,4.95,4.95,4.95
47.06,-0.90,-5.83,-0.90,-5.82,5.82,5.69,5.93,4.92,4.92,4.93
47.53,-0.90,-5.81,-0.90,-5.80,5.80,5.71,5.90,4.89,4.90,4.91
48.01,-0.90,-5.80,-0.90,-5.78,5.78,5.74,5.88,4.87,4.87,4.89
48.49,-0.90,-5.77,-0.91,-5.76,5.76,5.77,5.86,4.86,4.85,4.86
48.97,-0.90,-5.73,-0.93,-5.75,5.75,5.80,5.84,4.85,4.83,4.83
49.46,-0.93,-5.73,-0.95,-5.75,5.75,5.84,5.83,4.81,4.80,4.79
49.96,-0.96,-5.72,-0.97,-5.75,5.75,5.88,5.81,4.78,4.78,4.76
50.46,-0.99,-5.74,-1.00,-5.75,5.75,5.92,5.81,4.76,4.75,4.75
50.96,-1.03,-5.76,-1.04,-5.76,5.76,5.96,5.80,4.72,4.72,4.72
51.47,-1.07,-5.76,-1.08,-5.77,5.77,6.01,5.80,4.70,4.69,4.69
51.99,-1.10,-5.76,-1.12,-5.78,5.78,6.06,5.80,4.68,4.67,4.66
52.51,-1.14,-5.79,-1.16,-5.80,5.80,6.10,5.80,4.65,4.64,4.64
53.03,-1.18,-5.80,-1.20,-5.81,5.81,6.15,5.80,4.63,4.61,4.62
53.56,-1.24,-5.83,-1.24,-5.83,5.83,6.20,5.80,4.58,4.58,4.59
54.10,-1.30,-5.86,-1.29,-5.84,5.84,6.24,5.81,4.54,4.56,4.56
54.64,-1.34,-5.88,-1.32,-5.85,5.85,6.29,5.81,4.51,4.53,4.53
55.18,-1.38,-5.89,-1.36,-5.86,5.86,6.33,5.81,4.48,4.51,4.50
55.74,-1.42,-5.90,-1.38,-5.86,5.86,6.36,5.81,4.44,4.48,4.47
56.29,-1.42,-5.88,-1.41,-5.86,5.86,6.39,5.81,4.44,4.45,4.45
56.86,-1.42,-5.84,-1.43,-5.85,5.85,6.42,5.81,4.43,4.43,4.42
57.42,-1.46,-5.85,-1.44,-5.84,5.84,6.43,5.80,4.38,4.40,4.39
58.00,-1.46,-5.83,-1.46,-5.82,5.82,6.44,5.79,4.36,4.37,4.36
58.58,-1.46,-5.80,-1.46,-5.80,5.80,6.44,5.78,4.34,4.34,4.34
59.16,-1.46,-5.78,-1.47,-5.78,5.78,6.43,5.77,4.31,4.31,4.32
59.76,-1.46,-5.76,-1.47,-5.75,5.75,6.41,5.75,4.29,4.28,4.29
60.35,-1.46,-5.72,-1.47,-5.72,5.72,6.38,5.72,4.26,4.25,4.26
60.96,-1.46,-5.69,-1.48,-5.70,5.70,6.34,5.69,4.23,4.22,4.23
61.57,-1.46,-5.65,-1.49,-5.67,5.67,6.29,5.66,4.21,4.18,4.18
62.18,-1.46,-5.61,-1.50,-5.65,5.65,6.23,5.62,4.18,4.15,4.14
62.80,-1.46,-5.58,-1.51,-5.63,5.63,6.16,5.57,4.16,4.12,4.11
63.43,-1.50,-5.58,-1.52,-5.60,5.60,6.09,5.52,4.10,4.08,4.07
64.07,-1.51,-5.56,-1.52,-5.57,5.57,6.00,5.46,4.06,4.05,4.04
64.71,-1.51,-5.52,-1.53,-5.54,5.54,5.90,5.40,4.03,4.01,4.01
65.35,-1.51,-5.49,-1.52,-5.50,5.50,5.80,5.33,3.99,3.98,3.98
66.01,-1.53,-5.48,-1.51,-5.46,5.46,5.70,5.26,3.92,3.94,3.94
66.67,-1.53,-5.44,-1.49,-5.40,5.40,5.58,5.18,3.87,3.91,3.91
67.33,-1.51,-5.39,-1.47,-5.34,5.34,5.47,5.10,3.83,3.87,3.87
68.01,-1.49,-5.33,-1.43,-5.27,5.27,5.35,5.01,3.77,3.84,3.84
68.69,-1.42,-5.22,-1.38,-5.18,5.18,5.23,4.92,3.76,3.80,3.80
69.37,-1.36,-5.13,-1.33,-5.09,5.09,5.11,4.83,3.73,3.76,3.76
70.07,-1.26,-4.99,-1.26,-4.98,4.98,4.98,4.73,3.72,3.73,3.72
70.77,-1.18,-4.88,-1.18,-4.87,4.87,4.86,4.63,3.68,3.69,3.69
71.48,-1.10,-4.76,-1.10,-4.74,4.74,4.74,4.53,3.64,3.65,3.65
72.19,-0.99,-4.60,-1.01,-4.61,4.61,4.62,4.43,3.62,3.61,3.61
72.91,-0.90,-4.47,-0.92,-4.49,4.49,4.50,4.32,3.58,3.57,3.57
73.64,-0.83,-4.36,-0.83,-4.36,4.36,4.38,4.22,3.53,3.53,3.52
74.38,-0.73,-4.22,-0.75,-4.24,4.24,4.26,4.11,3.51,3.49,3.49
75.12,-0.65,-4.09,-0.68,-4.12,4.12,4.15,4.00,3.47,3.45,3.44
75.87,-0.57,-3.98,-0.61,-4.01,4.01,4.04,3.90,3.44,3.41,3.40
76.63,-0.49,-3.86,-0.54,-3.91,3.91,3.93,3.79,3.42,3.37,3.37
77.40,-0.42,-3.75,-0.48,-3.81,3.81,3.82,3.68,3.39,3.33,3.33
78.17,-0.38,-3.66,-0.43,-3.72,3.72,3.71,3.58,3.33,3.28,3.28
78.95,-0.38,-3.63,-0.39,-3.63,3.63,3.61,3.48,3.24,3.24,3.25
79.74,-0.38,-3.59,-0.34,-3.54,3.54,3.51,3.37,3.16,3.20,3.20
80.54,-0.36,-3.52,-0.31,-3.46,3.46,3.42,3.27,3.10,3.16,3.16
81.35,-0.31,-3.43,-0.27,-3.39,3.39,3.32,3.17,3.07,3.12,3.12
82.16,-0.26,-3.34,-0.24,-3.31,3.31,3.23,3.07,3.05,3.07,3.07
82.98,-0.20,-3.24,-0.21,-3.24,3.24,3.14,2.97,3.04,3.03,3.04
83.81,-0.17,-3.15,-0.18,-3.16,3.16,3.06,2.88,2.99,2.98,2.98
84.65,-0.14,-3.08,-0.15,-3.09,3.09,2.97,2.78,2.95,2.94,2.93
85.50,-0.11,-3.01,-0.12,-3.02,3.02,2.89,2.69,2.90,2.89,2.89
86.35,-0.08,-2.93,-0.09,-2.94,2.94,2.81,2.60,2.85,2.85,2.85
87.22,-0.05,-2.85,-0.06,-2.86,2.86,2.73,2.51,2.80,2.80,2.80
88.09,-0.03,-2.78,-0.03,-2.77,2.77,2.65,2.43,2.74,2.75,2.75
88.97,0.01,-2.70,0.00,-2.69,2.69,2.58,2.34,2.70,2.70,2.70
89.86,0.01,-2.65,0.03,-2.62,2.62,2.50,2.26,2.63,2.65,2.65
90.76,0.05,-2.54,0.05,-2.55,2.55,2.43,2.18,2.60,2.60,2.59
91.66,0.07,-2.48,0.06,-2.48,2.48,2.36,2.09,2.54,2.54,2.55
92.58,0.10,-2.39,0.08,-2.41,2.41,2.29,2.02,2.51,2.49,2.48
93.51,0.10,-2.34,0.09,-2.34,2.34,2.22,1.94,2.44,2.44,2.44
94.44,0.14,-2.25,0.11,-2.27,2.27,2.16,1.86,2.41,2.38,2.38
95.39,0.14,-2.19,0.12,-2.20,2.20,2.09,1.79,2.34,2.32,2.33
96.34,0.14,-2.13,0.13,-2.13,2.13,2.02,1.72,2.27,2.27,2.26
97.30,0.14,-2.07,0.14,-2.07,2.07,1.96,1.65,2.20,2.21,2.21
98.28,0.14,-2.01,0.15,-2.00,2.00,1.90,1.58,2.14,2.15,2.15
99.26,0.14,-1.96,0.16,-1.93,1.93,1.83,1.51,2.07,2.10,2.09
100.25,0.18,-1.86,0.17,-1.87,1.87,1.77,1.45,2.04,2.04,2.04
101.25,0.18,-1.80,0.18,-1.80,1.80,1.71,1.38,1.98,1.98,1.98
102.27,0.18,-1.75,0.19,-1.73,1.73,1.65,1.32,1.91,1.92,1.92
103.29,0.20,-1.66,0.20,-1.66,1.66,1.59,1.25,1.86,1.86,1.85
104.32,0.23,-1.58,0.21,-1.59,1.59,1.53,1.19,1.82,1.81,1.81
105.37,0.23,-1.52,0.22,-1.52,1.52,1.47,1.13,1.75,1.75,1.75
106.42,0.23,-1.46,0.24,-1.45,1.45,1.40,1.08,1.68,1.69,1.69
107.48,0.27,-1.37,0.25,-1.38,1.38,1.34,1.02,1.64,1.63,1.63
108.56,0.27,-1.30,0.27,-1.30,1.30,1.28,0.96,1.57,1.57,1.57
109.64,0.27,-1.24,0.28,-1.23,1.23,1.22,0.91,1.49,1.51,1.51
110.74,0.31,-1.14,0.29,-1.15,1.15,1.16,0.85,1.46,1.44,1.45
111.85,0.31,-1.09,0.31,-1.08,1.08,1.10,0.80,1.38,1.38,1.39
112.97,0.31,-1.01,0.32,-1.00,1.00,1.04,0.75,1.31,1.32,1.32
114.10,0.31,-0.95,0.33,-0.93,0.93,0.98,0.70,1.24,1.26,1.26
115.24,0.33,-0.87,0.33,-0.86,0.86,0.92,0.65,1.19,1.20,1.19
116.39,0.36,-0.77,0.34,-0.79,0.79,0.86,0.60,1.15,1.13,1.13
117.55,0.36,-0.71,0.34,-0.73,0.73,0.80,0.56,1.08,1.07,1.06
118.73,0.36,-0.64,0.34,-0.67,0.67,0.74,0.51,1.02,1.01,1.00
119.92,0.36,-0.59,0.34,-0.61,0.61,0.68,0.47,0.96,0.94,0.94
121.12,0.36,-0.52,0.33,-0.55,0.55,0.62,0.42,0.90,0.88,0.88
122.33,0.36,-0.46,0.33,-0.49,0.49,0.56,0.38,0.84,0.82,0.82
123.55,0.31,-0.46,0.33,-0.43,0.43,0.50,0.34,0.74,0.76,0.76
124.79,0.31,-0.39,0.32,-0.37,0.37,0.44,0.30,0.68,0.69,0.70
126.03,0.31,-0.33,0.31,-0.32,0.32,0.38,0.26,0.63,0.63,0.64
127.29,0.29,-0.29,0.30,-0.27,0.27,0.31,0.22,0.55,0.57,0.58
128.57,0.27,-0.24,0.30,-0.22,0.22,0.25,0.18,0.48,0.51,0.51
129.85,0.27,-0.18,0.29,-0.17,0.17,0.19,0.15,0.43,0.45,0.45
131.15,0.31,-0.09,0.28,-0.11,0.11,0.13,0.11,0.42,0.40,0.39
132.46,0.31,-0.03,0.28,-0.06,0.06,0.07,0.08,0.36,0.34,0.33
133.79,0.31,0.02,0.28,0.00,-0.00,0.01,0.04,0.31,0.28,0.29
135.12,0.31,0.08,0.29,0.06,-0.06,-0.06,0.01,0.25,0.23,0.22
136.48,0.27,0.09,0.29,0.12,-0.12,-0.12,-0.03,0.15,0.17,0.18
137.84,0.27,0.14,0.31,0.18,-0.18,-0.18,-0.06,0.08,0.12,0.12
139.22,0.31,0.25,0.32,0.25,-0.25,-0.24,-0.09,0.06,0.07,0.06
140.61,0.31,0.30,0.33,0.31,-0.31,-0.30,-0.13,-0.00,0.02,0.01
142.02,0.34,0.36,0.34,0.37,-0.37,-0.36,-0.16,-0.03,-0.03,-0.02
143.44,0.36,0.43,0.36,0.43,-0.43,-0.43,-0.19,-0.07,-0.08,-0.07
144.87,0.37,0.49,0.37,0.49,-0.49,-0.49,-0.22,-0.12,-0.12,-0.12
146.32,0.40,0.57,0.38,0.55,-0.55,-0.55,-0.26,-0.15,-0.17,-0.17
147.78,0.40,0.61,0.39,0.61,-0.61,-0.61,-0.29,-0.21,-0.22,-0.21
149.26,0.44,0.69,0.40,0.67,-0.67,-0.67,-0.32,-0.23,-0.26,-0.26
150.75,0.44,0.75,0.42,0.73,-0.73,-0.73,-0.36,-0.29,-0.31,-0.31
152.26,0.44,0.79,0.43,0.79,-0.79,-0.78,-0.39,-0.35,-0.36,-0.36
153.78,0.44,0.83,0.44,0.84,-0.84,-0.84,-0.42,-0.40,-0.40,-0.40
155.32,0.44,0.89,0.45,0.89,-0.89,-0.90,-0.46,-0.46,-0.45,-0.45
156.88,0.44,0.93,0.45,0.95,-0.95,-0.96,-0.49,-0.51,-0.50,-0.49
158.44,0.44,0.98,0.46,1.00,-1.00,-1.01,-0.53,-0.56,-0.54,-0.54
160.03,0.45,1.04,0.46,1.05,-1.05,-1.07,-0.56,-0.60,-0.59,-0.59
161.63,0.47,1.11,0.46,1.09,-1.09,-1.12,-0.60,-0.63,-0.63,-0.64
163.24,0.47,1.15,0.46,1.14,-1.14,-1.17,-0.63,-0.67,-0.68,-0.69
164.88,0.47,1.19,0.45,1.18,-1.18,-1.23,-0.67,-0.72,-0.73,-0.73
166.53,0.47,1.24,0.45,1.23,-1.23,-1.28,-0.71,-0.76,-0.77,-0.77
168.19,0.47,1.28,0.45,1.27,-1.27,-1.33,-0.75,-0.80,-0.82,-0.82
169.87,0.47,1.33,0.46,1.32,-1.32,-1.38,-0.79,-0.85,-0.86,-0.86
171.57,0.47,1.37,0.46,1.36,-1.36,-1.42,-0.83,-0.90,-0.91,-0.90
173.29,0.44,1.38,0.46,1.41,-1.41,-1.47,-0.87,-0.97,-0.95,-0.94
175.02,0.44,1.42,0.46,1.46,-1.46,-1.52,-0.91,-1.02,-0.99,-0.99
176.77,0.44,1.47,0.46,1.50,-1.50,-1.56,-0.95,-1.06,-1.04,-1.04
178.54,0.45,1.53,0.46,1.54,-1.54,-1.60,-1.00,-1.10,-1.08,-1.09
180.32,0.47,1.59,0.46,1.59,-1.59,-1.64,-1.04,-1.12,-1.12,-1.12
182.13,0.49,1.65,0.47,1.63,-1.63,-1.68,-1.09,-1.15,-1.16,-1.16
183.95,0.49,1.69,0.47,1.68,-1.68,-1.72,-1.13,-1.19,-1.21,-1.21
185.79,0.49,1.73,0.48,1.72,-1.72,-1.76,-1.18,-1.24,-1.25,-1.24
187.65,0.49,1.78,0.48,1.77,-1.77,-1.79,-1.23,-1.28,-1.29,-1.29
189.52,0.49,1.81,0.48,1.81,-1.81,-1.82,-1.28,-1.32,-1.32,-1.32
191.42,0.49,1.84,0.49,1.85,-1.85,-1.86,-1.33,-1.36,-1.36,-1.36
193.33,0.49,1.88,0.49,1.89,-1.89,-1.89,-1.38,-1.40,-1.39,-1.39
195.27,0.49,1.91,0.49,1.92,-1.92,-1.91,-1.43,-1.44,-1.43,-1.42
197.22,0.49,1.94,0.49,1.95,-1.95,-1.94,-1.48,-1.47,-1.46,-1.46
199.19,0.51,2.00,0.49,1.98,-1.98,-1.97,-1.53,-1.47,-1.49,-1.50
201.18,0.51,2.02,0.49,2.01,-2.01,-1.99,-1.58,-1.50,-1.51,-1.52
203.19,0.50,2.03,0.49,2.03,-2.03,-2.01,-1.63,-1.54,-1.54,-1.54
205.23,0.49,2.05,0.49,2.06,-2.06,-2.03,-1.68,-1.57,-1.56,-1.57
207.28,0.49,2.06,0.49,2.08,-2.08,-2.05,-1.73,-1.59,-1.58,-1.57
209.35,0.49,2.09,0.49,2.10,-2.10,-2.06,-1.78,-1.61,-1.60,-1.60
211.44,0.49,2.12,0.49,2.11,-2.11,-2.08,-1.84,-1.62,-1.62,-1.63
213.56,0.49,2.12,0.49,2.12,-2.12,-2.09,-1.88,-1.64,-1.64,-1.64
215.69,0.49,2.13,0.48,2.13,-2.13,-2.10,-1.93,-1.64,-1.65,-1.64
217.85,0.49,2.14,0.48,2.14,-2.14,-2.11,-1.98,-1.65,-1.66,-1.66
220.03,0.49,2.16,0.47,2.14,-2.14,-2.12,-2.03,-1.65,-1.67,-1.67
222.23,0.49,2.17,0.47,2.14,-2.14,-2.13,-2.07,-1.66,-1.68,-1.69
224.45,0.47,2.15,0.47,2.15,-2.15,-2.14,-2.11,-1.68,-1.68,-1.68
226.70,0.45,2.13,0.46,2.15,-2.15,-2.14,-2.15,-1.70,-1.69,-1.68
228.96,0.44,2.12,0.46,2.15,-2.15,-2.14,-2.19,-1.71,-1.69,-1.69
231.25,0.44,2.12,0.45,2.14,-2.14,-2.14,-2.23,-1.71,-1.69,-1.68
233.57,0.44,2.12,0.45,2.14,-2.14,-2.14,-2.26,-1.70,-1.69,-1.68
235.90,0.44,2.12,0.44,2.12,-2.12,-2.14,-2.29,-1.69,-1.68,-1.68
238.26,0.45,2.13,0.43,2.11,-2.11,-2.14,-2.31,-1.67,-1.68,-1.69
240.64,0.45,2.12,0.42,2.10,-2.10,-2.14,-2.33,-1.65,-1.67,-1.68
243.05,0.44,2.10,0.41,2.08,-2.08,-2.13,-2.35,-1.65,-1.67,-1.67
245.48,0.44,2.09,0.41,2.07,-2.07,-2.12,-2.36,-1.63,-1.66,-1.66
247.93,0.40,2.04,0.40,2.05,-2.05,-2.12,-2.37,-1.65,-1.65,-1.65
250.41,0.40,2.04,0.40,2.03,-2.03,-2.11,-2.38,-1.64,-1.64,-1.65
252.92,0.40,2.02,0.39,2.02,-2.02,-2.10,-2.38,-1.62,-1.62,-1.63
255.45,0.36,1.96,0.39,2.00,-2.00,-2.09,-2.38,-1.64,-1.61,-1.60
258.00,0.36,1.95,0.39,1.98,-1.98,-2.07,-2.37,-1.62,-1.59,-1.59
260.58,0.36,1.94,0.38,1.96,-1.96,-2.06,-2.36,-1.60,-1.58,-1.58
263.19,0.38,1.94,0.38,1.94,-1.94,-2.05,-2.35,-1.56,-1.56,-1.56
265.82,0.38,1.92,0.38,1.92,-1.92,-2.03,-2.33,-1.55,-1.54,-1.55
268.48,0.40,1.92,0.38,1.91,-1.91,-2.02,-2.31,-1.51,-1.53,-1.52
271.16,0.40,1.90,0.38,1.89,-1.89,-2.00,-2.29,-1.49,-1.51,-1.50
273.87,0.40,1.88,0.38,1.87,-1.87,-1.99,-2.26,-1.48,-1.49,-1.49
276.61,0.40,1.86,0.39,1.86,-1.86,-1.97,-2.24,-1.46,-1.47,-1.46
279.38,0.40,1.85,0.39,1.84,-1.84,-1.95,-2.20,-1.45,-1.45,-1.45
282.17,0.40,1.83,0.39,1.83,-1.83,-1.93,-2.17,-1.43,-1.43,-1.44
284.99,0.40,1.81,0.40,1.81,-1.81,-1.91,-2.14,-1.41,-1.42,-1.41
287.84,0.40,1.79,0.40,1.79,-1.79,-1.90,-2.10,-1.40,-1.40,-1.40
290.72,0.40,1.77,0.40,1.78,-1.78,-1.88,-2.06,-1.38,-1.38,-1.37
293.63,0.40,1.75,0.40,1.76,-1.76,-1.86,-2.02,-1.36,-1.35,-1.36
296.57,0.40,1.73,0.41,1.74,-1.74,-1.83,-1.98,-1.34,-1.33,-1.33
299.53,0.40,1.71,0.41,1.72,-1.72,-1.81,-1.94,-1.32,-1.31,-1.32
302.53,0.40,1.70,0.41,1.70,-1.70,-1.79,-1.90,-1.30,-1.29,-1.30
305.55,0.40,1.66,0.41,1.68,-1.68,-1.77,-1.86,-1.29,-1.27,-1.27
308.61,0.40,1.65,0.41,1.66,-1.66,-1.75,-1.82,-1.26,-1.25,-1.25
311.69,0.44,1.66,0.41,1.64,-1.64,-1.73,-1.78,-1.20,-1.23,-1.23
314.81,0.44,1.63,0.41,1.61,-1.61,-1.70,-1.74,-1.18,-1.20,-1.19
317.96,0.44,1.61,0.40,1.58,-1.58,-1.68,-1.70,-1.15,-1.18,-1.17
321.14,0.41,1.56,0.40,1.56,-1.56,-1.66,-1.66,-1.15,-1.16,-1.16
324.35,0.40,1.54,0.39,1.53,-1.53,-1.64,-1.62,-1.13,-1.14,-1.14
327.59,0.40,1.51,0.38,1.50,-1.50,-1.61,-1.58,-1.10,-1.12,-1.11
330.87,0.36,1.45,0.37,1.47,-1.47,-1.59,-1.54,-1.11,-1.10,-1.10
334.18,0.36,1.44,0.36,1.44,-1.44,-1.57,-1.51,-1.08,-1.08,-1.08
337.52,0.36,1.42,0.35,1.41,-1.41,-1.54,-1.47,-1.05,-1.06,-1.06
340.90,0.31,1.34,0.34,1.38,-1.38,-1.52,-1.44,-1.07,-1.04,-1.04
344.30,0.31,1.33,0.33,1.35,-1.35,-1.50,-1.40,-1.04,-1.02,-1.02
347.75,0.31,1.31,0.32,1.32,-1.32,-1.47,-1.37,-1.01,-1.00,-1.00
351.23,0.31,1.29,0.31,1.30,-1.30,-1.45,-1.34,-0.99,-0.99,-0.99
354.74,0.31,1.27,0.31,1.27,-1.27,-1.43,-1.31,-0.97,-0.97,-0.97
358.28,0.31,1.26,0.30,1.25,-1.25,-1.40,-1.28,-0.95,-0.95,-0.95
361.87,0.31,1.24,0.30,1.24,-1.24,-1.38,-1.25,-0.93,-0.93,-0.93
365.49,0.31,1.22,0.30,1.22,-1.22,-1.36,-1.22,-0.92,-0.92,-0.91
369.14,0.31,1.21,0.31,1.21,-1.21,-1.33,-1.20,-0.90,-0.90,-0.91
372.83,0.31,1.19,0.30,1.19,-1.19,-1.31,-1.17,-0.89,-0.89,-0.89
376.56,0.31,1.19,0.30,1.18,-1.18,-1.29,-1.15,-0.87,-0.87,-0.88
380.33,0.31,1.16,0.31,1.17,-1.17,-1.26,-1.13,-0.86,-0.86,-0.85
384.13,0.31,1.15,0.30,1.15,-1.15,-1.24,-1.10,-0.84,-0.85,-0.84
387.97,0.31,1.14,0.30,1.13,-1.13,-1.22,-1.08,-0.83,-0.84,-0.84
391.85,0.31,1.13,0.30,1.12,-1.12,-1.20,-1.06,-0.81,-0.82,-0.83
395.77,0.31,1.12,0.29,1.11,-1.11,-1.17,-1.04,-0.80,-0.81,-0.81
399.73,0.31,1.11,0.29,1.09,-1.09,-1.15,-1.03,-0.79,-0.80,-0.80
403.72,0.27,1.06,0.29,1.08,-1.08,-1.13,-1.01,-0.81,-0.79,-0.79
407.76,0.27,1.05,0.28,1.06,-1.06,-1.11,-0.99,-0.80,-0.78,-0.78
411.84,0.27,1.03,0.28,1.05,-1.05,-1.09,-0.98,-0.78,-0.77,-0.77
415.96,0.27,1.02,0.27,1.03,-1.03,-1.07,-0.96,-0.77,-0.76,-0.76
420.12,0.27,1.01,0.27,1.02,-1.02,-1.04,-0.95,-0.75,-0.75,-0.75
424.32,0.27,1.01,0.26,1.00,-1.00,-1.02,-0.93,-0.74,-0.74,-0.74
428.56,0.27,1.00,0.26,0.99,-0.99,-1.00,-0.92,-0.72,-0.73,-0.73
432.85,0.27,0.99,0.25,0.97,-0.97,-0.98,-0.90,-0.70,-0.72,-0.72
437.18,0.26,0.97,0.25,0.95,-0.95,-0.96,-0.89,-0.70,-0.71,-0.71
441.55,0.25,0.94,0.24,0.94,-0.94,-0.94,-0.88,-0.69,-0.70,-0.69
445.96,0.25,0.93,0.24,0.92,-0.92,-0.92,-0.87,-0.68,-0.68,-0.68
450.42,0.23,0.90,0.24,0.91,-0.91,-0.90,-0.85,-0.68,-0.67,-0.68
454.93,0.23,0.88,0.24,0.89,-0.89,-0.88,-0.84,-0.67,-0.66,-0.66
459.48,0.23,0.87,0.23,0.88,-0.88,-0.86,-0.83,-0.65,-0.64,-0.65
464.07,0.23,0.85,0.23,0.86,-0.86,-0.84,-0.82,-0.63,-0.63,-0.63
468.71,0.23,0.84,0.23,0.84,-0.84,-0.82,-0.81,-0.62,-0.62,-0.61
473.40,0.23,0.83,0.23,0.83,-0.83,-0.80,-0.79,-0.60,-0.60,-0.60
478.13,0.23,0.81,0.22,0.81,-0.81,-0.78,-0.78,-0.58,-0.58,-0.58
482.91,0.23,0.80,0.22,0.79,-0.79,-0.76,-0.77,-0.57,-0.57,-0.57
487.74,0.23,0.78,0.22,0.78,-0.78,-0.74,-0.76,-0.55,-0.55,-0.55
492.62,0.23,0.76,0.22,0.76,-0.76,-0.72,-0.74,-0.54,-0.54,-0.53
497.55,0.23,0.75,0.23,0.75,-0.75,-0.71,-0.73,-0.52,-0.52,-0.52
502.52,0.23,0.73,0.23,0.73,-0.73,-0.69,-0.72,-0.51,-0.51,-0.50
