frequency,raw,error,smoothed,error_smoothed,equalization,parametric_eq,fixed_band_eq,equalized_raw,equalized_smoothed,target
20.00,-3.61,-7.86,-3.64,-7.90,7.90,7.01,2.90,4.29,4.26,4.24
20.20,-3.58,-7.86,-3.59,-7.87,7.87,7.08,2.98,4.29,4.29,4.27
20.40,-3.54,-7.85,-3.53,-7.84,7.84,7.13,3.07,4.30,4.31,4.30
20.61,-3.48,-7.81,-3.48,-7.81,7.81,7.19,3.16,4.33,4.33,4.32
20.81,-3.43,-7.79,-3.43,-7.78,7.78,7.24,3.25,4.35,4.34,4.35
21.02,-3.39,-7.78,-3.39,-7.75,7.75,7.29,3.34,4.35,4.36,4.38
21.23,-3.35,-7.75,-3.34,-7.71,7.71,7.34,3.44,4.36,4.38,4.39
21.44,-3.30,-7.71,-3.29,-7.68,7.68,7.38,3.54,4.38,4.39,4.40
21.66,-3.26,-7.68,-3.24,-7.64,7.64,7.41,3.64,4.38,4.40,4.41
21.87,-3.21,-7.63,-3.20,-7.61,7.61,7.45,3.74,4.40,4.41,4.41
22.09,-3.15,-7.58,-3.15,-7.57,7.57,7.48,3.85,4.42,4.42,4.42
22.31,-3.09,-7.52,-3.11,-7.53,7.53,7.50,3.96,4.44,4.42,4.42
22.54,-3.04,-7.47,-3.07,-7.49,7.49,7.52,4.08,4.45,4.42,4.42
22.76,-3.01,-7.44,-3.02,-7.45,7.45,7.54,4.19,4.44,4.42,4.42
22.99,-2.96,-7.38,-2.98,-7.41,7.41,7.55,4.31,4.44,4.42,4.41
23.22,-2.93,-7.35,-2.94,-7.36,7.36,7.56,4.44,4.43,4.42,4.41
23.45,-2.90,-7.32,-2.90,-7.32,7.32,7.56,4.56,4.42,4.42,4.41
23.69,-2.87,-7.29,-2.86,-7.28,7.28,7.56,4.69,4.40,4.42,4.41
23.92,-2.83,-7.25,-2.82,-7.23,7.23,7.56,4.82,4.40,4.41,4.41
24.16,-2.78,-7.20,-2.78,-7.19,7.19,7.55,4.95,4.41,4.41,4.41
24.40,-2.75,-7.17,-2.74,-7.15,7.15,7.53,5.09,4.40,4.41,4.41
24.65,-2.72,-7.13,-2.70,-7.11,7.11,7.52,5.23,4.38,4.41,4.40
24.89,-2.67,-7.08,-2.66,-7.07,7.07,7.49,5.37,4.40,4.41,4.40
25.14,-2.63,-7.04,-2.62,-7.03,7.03,7.47,5.51,4.40,4.40,4.40
25.39,-2.57,-6.98,-2.59,-6.99,6.99,7.44,5.65,4.42,4.40,4.40
25.65,-2.52,-6.93,-2.55,-6.95,6.95,7.40,5.79,4.43,4.40,4.40
25.91,-2.50,-6.90,-2.52,-6.91,6.91,7.37,5.94,4.41,4.40,4.39
26.16,-2.46,-6.86,-2.48,-6.88,6.88,7.32,6.08,4.41,4.40,4.39
26.43,-2.43,-6.83,-2.45,-6.84,6.84,7.28,6.23,4.41,4.39,4.39
26.69,-2.42,-6.82,-2.42,-6.81,6.81,7.23,6.37,4.39,4.39,4.39
26.96,-2.37,-6.77,-2.39,-6.78,6.78,7.18,6.51,4.41,4.39,4.39
27.23,-2.37,-6.76,-2.37,-6.75,6.75,7.13,6.65,4.38,4.38,4.38
27.50,-2.33,-6.72,-2.34,-6.72,6.72,7.07,6.78,4.39,4.38,4.38
27.77,-2.33,-6.71,-2.32,-6.69,6.69,7.02,6.92,4.36,4.38,4.37
28.05,-2.29,-6.67,-2.29,-6.66,6.66,6.96,7.04,4.37,4.37,4.37
28.33,-2.28,-6.65,-2.26,-6.63,6.63,6.89,7.16,4.35,4.37,4.36
28.62,-2.24,-6.61,-2.23,-6.60,6.60,6.83,7.28,4.35,4.36,4.36
28.90,-2.20,-6.57,-2.20,-6.56,6.56,6.77,7.39,4.36,4.36,4.36
29.19,-2.18,-6.54,-2.16,-6.52,6.52,6.70,7.49,4.34,4.36,4.35
29.48,-2.14,-6.50,-2.13,-6.48,6.48,6.63,7.57,4.33,4.35,4.35
29.78,-2.09,-6.44,-2.09,-6.43,6.43,6.56,7.65,4.34,4.35,4.34
30.08,-2.05,-6.40,-2.05,-6.39,6.39,6.49,7.72,4.34,4.34,4.34
30.38,-2.00,-6.34,-2.01,-6.34,6.34,6.42,7.78,4.34,4.33,4.33
30.68,-1.96,-6.30,-1.97,-6.30,6.30,6.35,7.83,4.33,4.33,4.33
30.99,-1.91,-6.24,-1.93,-6.25,6.25,6.28,7.86,4.34,4.32,4.32
31.30,-1.87,-6.19,-1.89,-6.21,6.21,6.21,7.88,4.33,4.32,4.31
31.61,-1.83,-6.15,-1.85,-6.16,6.16,6.14,7.89,4.33,4.31,4.31
31.93,-1.80,-6.11,-1.82,-6.12,6.12,6.07,7.88,4.32,4.31,4.30
32.24,-1.77,-6.07,-1.78,-6.08,6.08,6.00,7.87,4.31,4.30,4.29
32.57,-1.76,-6.06,-1.75,-6.04,6.04,5.93,7.84,4.28,4.29,4.29
32.89,-1.72,-6.01,-1.72,-6.01,6.01,5.86,7.80,4.28,4.28,4.28
33.22,-1.68,-5.96,-1.70,-5.97,5.97,5.79,7.75,4.29,4.28,4.27
33.55,-1.65,-5.93,-1.67,-5.94,5.94,5.73,7.69,4.28,4.27,4.27
33.89,-1.64,-5.91,-1.64,-5.90,5.90,5.66,7.62,4.26,4.26,4.26
34.23,-1.64,-5.90,-1.61,-5.87,5.87,5.59,7.55,4.22,4.25,4.25
34.57,-1.59,-5.84,-1.59,-5.83,5.83,5.53,7.46,4.24,4.24,4.24
34.92,-1.57,-5.81,-1.56,-5.80,5.80,5.46,7.37,4.22,4.23,4.23
35.27,-1.54,-5.77,-1.53,-5.76,5.76,5.40,7.28,4.21,4.22,4.22
35.62,-1.51,-5.73,-1.51,-5.72,5.72,5.34,7.18,4.21,4.22,4.21
35.97,-1.46,-5.67,-1.48,-5.68,5.68,5.28,7.08,4.22,4.21,4.20
36.33,-1.43,-5.63,-1.45,-5.64,5.64,5.23,6.98,4.21,4.19,4.19
36.70,-1.42,-5.61,-1.42,-5.60,5.60,5.17,6.87,4.18,4.18,4.18
37.06,-1.38,-5.56,-1.39,-5.56,5.56,5.12,6.77,4.18,4.17,4.17
37.43,-1.36,-5.53,-1.36,-5.52,5.52,5.06,6.66,4.16,4.16,4.16
37.81,-1.33,-5.49,-1.33,-5.48,5.48,5.01,6.56,4.15,4.15,4.15
38.19,-1.30,-5.45,-1.30,-5.44,5.44,4.96,6.45,4.14,4.14,4.14
38.57,-1.27,-5.41,-1.28,-5.41,5.41,4.92,6.35,4.14,4.13,4.13
38.95,-1.25,-5.38,-1.26,-5.38,5.38,4.87,6.25,4.12,4.12,4.12
39.34,-1.22,-5.33,-1.24,-5.35,5.35,4.83,6.15,4.12,4.11,4.10
39.74,-1.20,-5.30,-1.22,-5.32,5.32,4.79,6.05,4.11,4.10,4.09
40.14,-1.20,-5.29,-1.20,-5.29,5.29,4.76,5.96,4.09,4.09,4.08
40.54,-1.16,-5.24,-1.18,-5.26,5.26,4.72,5.87,4.09,4.08,4.07
40.94,-1.16,-5.23,-1.16,-5.22,5.22,4.69,5.78,4.06,4.07,4.06
41.35,-1.15,-5.21,-1.14,-5.19,5.19,4.66,5.70,4.04,4.05,4.05
41.76,-1.12,-5.17,-1.12,-5.16,5.16,4.64,5.62,4.04,4.04,4.04
42.18,-1.12,-5.16,-1.10,-5.13,5.13,4.62,5.54,4.00,4.03,4.03
42.60,-1.09,-5.12,-1.08,-5.09,5.09,4.60,5.47,4.00,4.02,4.02
43.03,-1.07,-5.09,-1.05,-5.06,5.06,4.58,5.40,3.98,4.00,4.01
43.46,-1.04,-5.04,-1.03,-5.02,5.02,4.57,5.34,3.98,3.99,3.99
43.90,-0.99,-4.97,-1.01,-4.99,4.99,4.56,5.28,3.99,3.97,3.97
44.33,-0.99,-4.95,-0.99,-4.95,4.95,4.55,5.22,3.96,3.96,3.95
44.78,-0.94,-4.88,-0.97,-4.91,4.91,4.55,5.17,3.97,3.94,3.93
45.23,-0.94,-4.86,-0.95,-4.88,4.88,4.55,5.12,3.93,3.93,3.91
45.68,-0.94,-4.85,-0.93,-4.84,4.84,4.55,5.07,3.89,3.91,3.90
46.13,-0.90,-4.79,-0.92,-4.80,4.80,4.56,5.03,3.90,3.89,3.88
46.60,-0.90,-4.78,-0.91,-4.78,4.78,4.57,5.00,3.87,3.87,3.87
47.06,-0.90,-4.76,-0.90,-4.75,4.75,4.59,4.96,3.84,3.85,3.85
47.53,-0.90,-4.74,-0.90,-4.73,4.73,4.60,4.93,3.82,3.83,3.83
48.01,-0.90,-4.73,-0.90,-4.71,4.71,4.63,4.91,3.81,3.81,3.82
48.49,-0.90,-4.70,-0.91,-4.70,4.70,4.65,4.88,3.79,3.78,3.79
48.97,-0.90,-4.67,-0.93,-4.69,4.69,4.68,4.86,3.79,3.76,3.76
49.46,-0.93,-4.67,-0.95,-4.68,4.68,4.71,4.85,3.75,3.74,3.73
49.96,-0.96,-4.67,-0.97,-4.69,4.69,4.75,4.83,3.72,3.72,3.70
50.46,-0.99,-4.68,-1.00,-4.69,4.69,4.78,4.82,3.70,3.69,3.68
50.96,-1.03,-4.70,-1.04,-4.70,4.70,4.82,4.81,3.67,3.67,3.66
51.47,-1.07,-4.71,-1.08,-4.72,4.72,4.86,4.80,3.64,3.64,3.63
51.99,-1.10,-4.72,-1.12,-4.73,4.73,4.90,4.80,3.63,3.62,3.61
52.51,-1.14,-4.74,-1.16,-4.75,4.75,4.94,4.79,3.61,3.59,3.59
53.03,-1.18,-4.76,-1.20,-4.77,4.77,4.98,4.79,3.58,3.57,3.57
53.56,-1.24,-4.79,-1.24,-4.79,4.79,5.02,4.79,3.54,3.54,3.54
54.10,-1.30,-4.83,-1.29,-4.80,4.80,5.05,4.78,3.50,3.52,3.52
54.64,-1.34,-4.84,-1.32,-4.82,4.82,5.08,4.78,3.48,3.50,3.49
55.18,-1.38,-4.86,-1.36,-4.83,4.83,5.10,4.78,3.45,3.47,3.47
55.74,-1.42,-4.87,-1.38,-4.84,4.84,5.12,4.77,3.41,3.45,3.44
56.29,-1.42,-4.85,-1.41,-4.84,4.84,5.13,4.77,3.41,3.43,3.42
56.86,-1.42,-4.83,-1.43,-4.83,4.83,5.14,4.76,3.41,3.41,3.40
57.42,-1.46,-4.84,-1.44,-4.82,4.82,5.13,4.75,3.36,3.38,3.37
58.00,-1.46,-4.82,-1.46,-4.81,4.81,5.12,4.74,3.35,3.36,3.35
58.58,-1.46,-4.80,-1.46,-4.79,4.79,5.09,4.73,3.33,3.33,3.33
59.16,-1.46,-4.78,-1.47,-4.77,4.77,5.05,4.71,3.31,3.30,3.31
59.76,-1.46,-4.76,-1.47,-4.75,4.75,5.01,4.69,3.29,3.28,3.29
60.35,-1.46,-4.73,-1.47,-4.73,4.73,4.95,4.67,3.26,3.25,3.26
60.96,-1.46,-4.70,-1.48,-4.70,4.70,4.88,4.64,3.24,3.23,3.23
61.57,-1.46,-4.66,-1.49,-4.68,4.68,4.80,4.61,3.22,3.20,3.19
62.18,-1.46,-4.63,-1.50,-4.67,4.67,4.72,4.57,3.20,3.17,3.16
62.80,-1.46,-4.60,-1.51,-4.65,4.65,4.62,4.53,3.18,3.14,3.13
63.43,-1.50,-4.61,-1.52,-4.63,4.63,4.52,4.48,3.12,3.11,3.10
64.07,-1.51,-4.59,-1.52,-4.60,4.60,4.41,4.43,3.09,3.08,3.07
64.71,-1.51,-4.57,-1.53,-4.58,4.58,4.30,4.38,3.06,3.05,3.05
65.35,-1.51,-4.54,-1.52,-4.55,4.55,4.18,4.32,3.03,3.02,3.02
66.01,-1.53,-4.53,-1.51,-4.50,4.50,4.07,4.26,2.97,2.99,2.99
66.67,-1.53,-4.50,-1.49,-4.46,4.46,3.94,4.19,2.92,2.96,2.96
67.33,-1.51,-4.45,-1.47,-4.40,4.40,3.82,4.12,2.89,2.93,2.93
68.01,-1.49,-4.40,-1.43,-4.33,4.33,3.70,4.05,2.84,2.90,2.90
68.69,-1.42,-4.30,-1.38,-4.26,4.26,3.58,3.97,2.83,2.87,2.87
69.37,-1.36,-4.21,-1.33,-4.17,4.17,3.46,3.89,2.81,2.84,2.84
70.07,-1.26,-4.08,-1.26,-4.07,4.07,3.34,3.81,2.81,2.81,2.81
70.77,-1.18,-3.97,-1.18,-3.96,3.96,3.23,3.72,2.78,2.78,2.78
71.48,-1.10,-3.86,-1.10,-3.84,3.84,3.11,3.64,2.74,2.75,2.75
72.19,-0.99,-3.71,-1.01,-3.72,3.72,3.00,3.55,2.73,2.71,2.71
72.91,-0.90,-3.59,-0.92,-3.60,3.60,2.89,3.46,2.70,2.68,2.68
73.64,-0.83,-3.48,-0.83,-3.48,3.48,2.79,3.37,2.65,2.65,2.64
74.38,-0.73,-3.35,-0.75,-3.37,3.37,2.68,3.28,2.63,2.61,2.61
75.12,-0.65,-3.23,-0.68,-3.26,3.26,2.58,3.19,2.60,2.58,2.57
75.87,-0.57,-3.12,-0.61,-3.15,3.15,2.49,3.10,2.58,2.55,2.54
76.63,-0.49,-3.01,-0.54,-3.06,3.06,2.39,3.00,2.56,2.51,2.51
77.40,-0.42,-2.91,-0.48,-2.97,2.97,2.30,2.91,2.54,2.48,2.48
78.17,-0.38,-2.83,-0.43,-2.88,2.88,2.22,2.82,2.50,2.45,2.44
78.95,-0.38,-2.80,-0.39,-2.80,2.80,2.13,2.73,2.41,2.41,2.41
79.74,-0.38,-2.77,-0.34,-2.72,2.72,2.05,2.64,2.34,2.38,2.38
80.54,-0.36,-2.71,-0.31,-2.65,2.65,1.97,2.56,2.29,2.35,2.34
81.35,-0.31,-2.63,-0.27,-2.58,2.58,1.90,2.47,2.27,2.31,2.31
82.16,-0.26,-2.54,-0.24,-2.51,2.51,1.82,2.38,2.25,2.28,2.27
82.98,-0.20,-2.45,-0.21,-2.45,2.45,1.75,2.30,2.25,2.24,2.24
83.81,-0.17,-2.38,-0.18,-2.39,2.39,1.68,2.21,2.21,2.21,2.20
84.65,-0.14,-2.31,-0.15,-2.32,2.32,1.61,2.13,2.18,2.17,2.16
85.50,-0.11,-2.25,-0.12,-2.25,2.25,1.55,2.05,2.14,2.13,2.13
86.35,-0.08,-2.18,-0.09,-2.18,2.18,1.49,1.97,2.10,2.09,2.09
87.22,-0.05,-2.11,-0.06,-2.11,2.11,1.43,1.89,2.06,2.05,2.05
88.09,-0.03,-2.05,-0.03,-2.04,2.04,1.37,1.81,2.00,2.01,2.01
88.97,0.01,-1.97,0.00,-1.97,1.97,1.31,1.74,1.97,1.97,1.97
89.86,0.01,-1.93,0.03,-1.90,1.90,1.26,1.66,1.91,1.93,1.93
90.76,0.05,-1.84,0.05,-1.84,1.84,1.20,1.59,1.89,1.89,1.88
91.66,0.07,-1.78,0.06,-1.78,1.78,1.15,1.52,1.84,1.84,1.84
92.58,0.10,-1.70,0.08,-1.72,1.72,1.10,1.45,1.81,1.80,1.79
93.51,0.10,-1.66,0.09,-1.66,1.66,1.05,1.38,1.75,1.75,1.75
94.44,0.14,-1.58,0.11,-1.60,1.60,1.00,1.31,1.73,1.71,1.71
95.39,0.14,-1.53,0.12,-1.54,1.54,0.95,1.24,1.67,1.66,1.66
96.34,0.14,-1.48,0.13,-1.48,1.48,0.91,1.17,1.62,1.61,1.61
97.30,0.14,-1.43,0.14,-1.42,1.42,0.86,1.11,1.56,1.57,1.56
98.28,0.14,-1.38,0.15,-1.37,1.37,0.82,1.04,1.50,1.52,1.51
99.26,0.14,-1.34,0.16,-1.31,1.31,0.77,0.98,1.45,1.47,1.47
100.25,0.18,-1.25,0.17,-1.25,1.25,0.73,0.92,1.43,1.42,1.42
101.25,0.18,-1.20,0.18,-1.20,1.20,0.69,0.86,1.37,1.38,1.37
102.27,0.18,-1.15,0.19,-1.14,1.14,0.65,0.80,1.31,1.33,1.32
103.29,0.20,-1.08,0.20,-1.08,1.08,0.61,0.74,1.27,1.28,1.27
104.32,0.23,-1.01,0.21,-1.02,1.02,0.57,0.68,1.24,1.23,1.23
105.37,0.23,-0.96,0.22,-0.96,0.96,0.53,0.63,1.18,1.18,1.18
106.42,0.23,-0.91,0.24,-0.90,0.90,0.49,0.57,1.12,1.13,1.13
107.48,0.27,-0.82,0.25,-0.83,0.83,0.45,0.52,1.10,1.08,1.08
108.56,0.27,-0.77,0.27,-0.77,0.77,0.42,0.47,1.03,1.03,1.03
109.64,0.27,-0.72,0.28,-0.70,0.70,0.38,0.42,0.97,0.98,0.98
110.74,0.31,-0.63,0.29,-0.63,0.63,0.34,0.36,0.94,0.93,0.93
111.85,0.31,-0.58,0.31,-0.57,0.57,0.31,0.32,0.88,0.88,0.88
112.97,0.31,-0.52,0.32,-0.51,0.51,0.27,0.27,0.81,0.82,0.82
114.10,0.31,-0.47,0.33,-0.44,0.44,0.24,0.22,0.75,0.77,0.77
115.24,0.33,-0.39,0.33,-0.38,0.38,0.20,0.18,0.71,0.72,0.71
116.39,0.36,-0.31,0.34,-0.33,0.33,0.16,0.13,0.68,0.67,0.66
117.55,0.36,-0.25,0.34,-0.27,0.27,0.13,0.09,0.63,0.61,0.60
118.73,0.36,-0.20,0.34,-0.22,0.22,0.10,0.05,0.58,0.56,0.55
119.92,0.36,-0.15,0.34,-0.17,0.17,0.06,0.01,0.53,0.51,0.50
121.12,0.36,-0.10,0.33,-0.12,0.12,0.03,-0.03,0.48,0.45,0.45
122.33,0.36,-0.05,0.33,-0.07,0.07,-0.01,-0.07,0.43,0.40,0.40
123.55,0.31,-0.05,0.33,-0.02,0.02,-0.04,-0.11,0.33,0.35,0.35
124.79,0.31,0.00,0.32,0.02,-0.02,-0.08,-0.14,0.28,0.30,0.30
126.03,0.31,0.05,0.31,0.07,-0.07,-0.11,-0.18,0.24,0.25,0.25
127.29,0.29,0.08,0.30,0.11,-0.11,-0.14,-0.21,0.18,0.20,0.20
128.57,0.27,0.12,0.30,0.15,-0.15,-0.18,-0.24,0.12,0.15,0.14
129.85,0.27,0.17,0.29,0.19,-0.19,-0.21,-0.27,0.07,0.10,0.09
131.15,0.31,0.26,0.28,0.24,-0.24,-0.25,-0.30,0.07,0.05,0.04
132.46,0.31,0.31,0.28,0.28,-0.28,-0.28,-0.33,0.02,-0.00,-0.01
133.79,0.31,0.35,0.28,0.33,-0.33,-0.31,-0.36,-0.02,-0.05,-0.05
135.12,0.31,0.40,0.29,0.38,-0.38,-0.35,-0.38,-0.08,-0.10,-0.10
136.48,0.27,0.40,0.29,0.43,-0.43,-0.38,-0.41,-0.17,-0.14,-0.14
137.84,0.27,0.45,0.31,0.49,-0.49,-0.42,-0.44,-0.22,-0.18,-0.19
139.22,0.31,0.54,0.32,0.54,-0.54,-0.45,-0.46,-0.24,-0.23,-0.24
140.61,0.31,0.58,0.33,0.60,-0.60,-0.49,-0.48,-0.29,-0.27,-0.28
142.02,0.34,0.64,0.34,0.65,-0.65,-0.52,-0.51,-0.31,-0.31,-0.31
143.44,0.36,0.70,0.36,0.70,-0.70,-0.56,-0.53,-0.35,-0.35,-0.35
144.87,0.37,0.75,0.37,0.75,-0.75,-0.59,-0.56,-0.39,-0.39,-0.39
146.32,0.40,0.82,0.38,0.80,-0.80,-0.63,-0.58,-0.41,-0.43,-0.43
147.78,0.40,0.85,0.39,0.85,-0.85,-0.67,-0.60,-0.46,-0.46,-0.46
149.26,0.44,0.93,0.40,0.91,-0.91,-0.70,-0.63,-0.47,-0.50,-0.50
150.75,0.44,0.97,0.42,0.96,-0.96,-0.74,-0.65,-0.52,-0.54,-0.54
152.26,0.44,1.01,0.43,1.01,-1.01,-0.77,-0.68,-0.57,-0.58,-0.58
153.78,0.44,1.05,0.44,1.06,-1.06,-0.81,-0.70,-0.62,-0.62,-0.62
155.32,0.44,1.09,0.45,1.10,-1.10,-0.85,-0.72,-0.67,-0.66,-0.66
156.88,0.44,1.13,0.45,1.15,-1.15,-0.89,-0.75,-0.71,-0.70,-0.70
158.44,0.44,1.17,0.46,1.19,-1.19,-0.92,-0.78,-0.75,-0.73,-0.74
160.03,0.45,1.22,0.46,1.23,-1.23,-0.96,-0.80,-0.78,-0.77,-0.78
161.63,0.47,1.28,0.46,1.27,-1.27,-1.00,-0.83,-0.80,-0.81,-0.82
163.24,0.47,1.32,0.46,1.31,-1.31,-1.04,-0.86,-0.84,-0.85,-0.86
164.88,0.47,1.35,0.45,1.35,-1.35,-1.08,-0.89,-0.88,-0.89,-0.89
166.53,0.47,1.39,0.45,1.38,-1.38,-1.12,-0.92,-0.92,-0.93,-0.93
168.19,0.47,1.43,0.45,1.42,-1.42,-1.16,-0.95,-0.96,-0.97,-0.97
169.87,0.47,1.47,0.46,1.46,-1.46,-1.19,-0.98,-1.00,-1.01,-1.01
171.57,0.47,1.51,0.46,1.50,-1.50,-1.23,-1.01,-1.04,-1.04,-1.05
173.29,0.44,1.51,0.46,1.54,-1.54,-1.27,-1.04,-1.11,-1.08,-1.08
175.02,0.44,1.55,0.46,1.58,-1.58,-1.31,-1.08,-1.15,-1.12,-1.12
176.77,0.44,1.59,0.46,1.62,-1.62,-1.35,-1.11,-1.18,-1.16,-1.16
178.54,0.45,1.64,0.46,1.66,-1.66,-1.39,-1.15,-1.21,-1.19,-1.20
180.32,0.47,1.70,0.46,1.70,-1.70,-1.43,-1.18,-1.23,-1.23,-1.24
182.13,0.49,1.75,0.47,1.74,-1.74,-1.47,-1.22,-1.25,-1.27,-1.27
183.95,0.49,1.79,0.47,1.78,-1.78,-1.51,-1.26,-1.29,-1.30,-1.31
185.79,0.49,1.82,0.48,1.82,-1.82,-1.55,-1.30,-1.33,-1.34,-1.34
187.65,0.49,1.86,0.48,1.85,-1.85,-1.58,-1.34,-1.37,-1.37,-1.38
189.52,0.49,1.89,0.48,1.89,-1.89,-1.62,-1.38,-1.40,-1.41,-1.41
191.42,0.49,1.92,0.49,1.93,-1.93,-1.66,-1.42,-1.44,-1.44,-1.44
193.33,0.49,1.95,0.49,1.96,-1.96,-1.70,-1.47,-1.48,-1.47,-1.47
195.27,0.49,1.98,0.49,1.99,-1.99,-1.73,-1.51,-1.51,-1.50,-1.50
197.22,0.49,2.01,0.49,2.02,-2.02,-1.77,-1.56,-1.53,-1.52,-1.53
199.19,0.51,2.06,0.49,2.04,-2.04,-1.80,-1.60,-1.54,-1.55,-1.56
201.18,0.51,2.08,0.49,2.07,-2.07,-1.84,-1.64,-1.56,-1.57,-1.58
203.19,0.50,2.09,0.49,2.09,-2.09,-1.87,-1.69,-1.59,-1.59,-1.60
205.23,0.49,2.10,0.49,2.11,-2.11,-1.90,-1.74,-1.62,-1.61,-1.62
207.28,0.49,2.11,0.49,2.13,-2.13,-1.93,-1.78,-1.64,-1.63,-1.63
209.35,0.49,2.13,0.49,2.14,-2.14,-1.96,-1.83,-1.65,-1.65,-1.65
211.44,0.49,2.15,0.49,2.15,-2.15,-1.99,-1.87,-1.67,-1.66,-1.67
213.56,0.49,2.16,0.49,2.16,-2.16,-2.02,-1.91,-1.67,-1.67,-1.68
215.69,0.49,2.16,0.48,2.16,-2.16,-2.04,-1.96,-1.68,-1.68,-1.68
217.85,0.49,2.17,0.48,2.17,-2.17,-2.07,-2.00,-1.68,-1.69,-1.69
220.03,0.49,2.18,0.47,2.17,-2.17,-2.09,-2.04,-1.68,-1.70,-1.70
222.23,0.49,2.19,0.47,2.17,-2.17,-2.11,-2.08,-1.68,-1.70,-1.71
224.45,0.47,2.17,0.47,2.17,-2.17,-2.13,-2.12,-1.70,-1.70,-1.71
226.70,0.45,2.15,0.46,2.17,-2.17,-2.14,-2.15,-1.72,-1.70,-1.71
228.96,0.44,2.14,0.46,2.16,-2.16,-2.16,-2.18,-1.73,-1.70,-1.71
231.25,0.44,2.13,0.45,2.16,-2.16,-2.17,-2.21,-1.72,-1.70,-1.70
233.57,0.44,2.13,0.45,2.15,-2.15,-2.18,-2.24,-1.71,-1.70,-1.70
235.90,0.44,2.13,0.44,2.13,-2.13,-2.19,-2.27,-1.70,-1.69,-1.70
238.26,0.45,2.13,0.43,2.12,-2.12,-2.20,-2.29,-1.67,-1.69,-1.69
240.64,0.45,2.12,0.42,2.10,-2.10,-2.20,-2.30,-1.65,-1.68,-1.68
243.05,0.44,2.10,0.41,2.08,-2.08,-2.21,-2.32,-1.65,-1.67,-1.67
245.48,0.44,2.09,0.41,2.06,-2.06,-2.21,-2.33,-1.63,-1.66,-1.66
247.93,0.40,2.04,0.40,2.05,-2.05,-2.21,-2.34,-1.65,-1.64,-1.65
250.41,0.40,2.03,0.40,2.03,-2.03,-2.20,-2.34,-1.63,-1.63,-1.64
252.92,0.40,2.01,0.39,2.01,-2.01,-2.20,-2.34,-1.61,-1.62,-1.62
255.45,0.36,1.95,0.39,1.99,-1.99,-2.19,-2.34,-1.63,-1.60,-1.60
258.00,0.36,1.94,0.39,1.97,-1.97,-2.18,-2.33,-1.61,-1.58,-1.59
260.58,0.36,1.92,0.38,1.95,-1.95,-2.17,-2.32,-1.59,-1.57,-1.57
263.19,0.38,1.92,0.38,1.93,-1.93,-2.16,-2.30,-1.55,-1.55,-1.55
265.82,0.38,1.90,0.38,1.91,-1.91,-2.14,-2.28,-1.53,-1.53,-1.53
268.48,0.40,1.90,0.38,1.89,-1.89,-2.12,-2.26,-1.49,-1.51,-1.51
271.16,0.40,1.88,0.38,1.87,-1.87,-2.11,-2.24,-1.47,-1.49,-1.49
273.87,0.40,1.86,0.38,1.85,-1.85,-2.09,-2.21,-1.46,-1.47,-1.47
276.61,0.40,1.84,0.39,1.84,-1.84,-2.06,-2.18,-1.44,-1.45,-1.45
279.38,0.40,1.82,0.39,1.82,-1.82,-2.04,-2.15,-1.42,-1.43,-1.43
282.17,0.40,1.80,0.39,1.80,-1.80,-2.02,-2.12,-1.40,-1.41,-1.41
284.99,0.40,1.78,0.40,1.78,-1.78,-1.99,-2.08,-1.39,-1.39,-1.39
287.84,0.40,1.76,0.40,1.77,-1.77,-1.97,-2.04,-1.37,-1.37,-1.37
290.72,0.40,1.74,0.40,1.75,-1.75,-1.94,-2.01,-1.35,-1.35,-1.35
293.63,0.40,1.72,0.40,1.73,-1.73,-1.91,-1.97,-1.33,-1.32,-1.33
296.57,0.40,1.70,0.41,1.71,-1.71,-1.88,-1.93,-1.31,-1.30,-1.31
299.53,0.40,1.68,0.41,1.69,-1.69,-1.85,-1.89,-1.29,-1.28,-1.29
302.53,0.40,1.66,0.41,1.67,-1.67,-1.82,-1.85,-1.27,-1.26,-1.27
305.55,0.40,1.63,0.41,1.65,-1.65,-1.79,-1.81,-1.25,-1.23,-1.24
308.61,0.40,1.61,0.41,1.62,-1.62,-1.76,-1.77,-1.23,-1.21,-1.22
311.69,0.44,1.62,0.41,1.60,-1.60,-1.73,-1.73,-1.16,-1.19,-1.19
314.81,0.44,1.59,0.41,1.57,-1.57,-1.70,-1.68,-1.14,-1.17,-1.16
317.96,0.44,1.57,0.40,1.55,-1.55,-1.67,-1.65,-1.11,-1.14,-1.14
321.14,0.41,1.52,0.40,1.52,-1.52,-1.63,-1.61,-1.11,-1.12,-1.12
324.35,0.40,1.49,0.39,1.49,-1.49,-1.60,-1.57,-1.09,-1.10,-1.10
327.59,0.40,1.47,0.38,1.46,-1.46,-1.57,-1.53,-1.06,-1.08,-1.08
330.87,0.36,1.41,0.37,1.42,-1.42,-1.54,-1.49,-1.07,-1.05,-1.06
334.18,0.36,1.39,0.36,1.39,-1.39,-1.50,-1.46,-1.04,-1.03,-1.04
337.52,0.36,1.37,0.35,1.36,-1.36,-1.47,-1.42,-1.01,-1.01,-1.02
340.90,0.31,1.30,0.34,1.33,-1.33,-1.44,-1.39,-1.03,-0.99,-1.00
344.30,0.31,1.28,0.33,1.30,-1.30,-1.41,-1.35,-1.00,-0.98,-0.98
347.75,0.31,1.26,0.32,1.27,-1.27,-1.38,-1.32,-0.97,-0.96,-0.96
351.23,0.31,1.24,0.31,1.25,-1.25,-1.34,-1.29,-0.94,-0.94,-0.94
354.74,0.31,1.22,0.31,1.23,-1.23,-1.31,-1.26,-0.92,-0.92,-0.92
358.28,0.31,1.21,0.30,1.21,-1.21,-1.28,-1.23,-0.90,-0.90,-0.91
361.87,0.31,1.19,0.30,1.19,-1.19,-1.25,-1.20,-0.88,-0.89,-0.89
365.49,0.31,1.17,0.30,1.17,-1.17,-1.22,-1.17,-0.87,-0.87,-0.87
369.14,0.31,1.16,0.31,1.16,-1.16,-1.19,-1.15,-0.85,-0.85,-0.86
372.83,0.31,1.14,0.30,1.14,-1.14,-1.16,-1.12,-0.84,-0.84,-0.84
376.56,0.31,1.13,0.30,1.13,-1.13,-1.13,-1.10,-0.82,-0.82,-0.83
380.33,0.31,1.11,0.31,1.12,-1.12,-1.10,-1.07,-0.81,-0.81,-0.81
384.13,0.31,1.10,0.30,1.10,-1.10,-1.07,-1.05,-0.79,-0.80,-0.80
387.97,0.31,1.09,0.30,1.08,-1.08,-1.05,-1.03,-0.78,-0.78,-0.79
391.85,0.31,1.08,0.30,1.07,-1.07,-1.02,-1.01,-0.76,-0.77,-0.78
395.77,0.31,1.06,0.29,1.05,-1.05,-0.99,-0.99,-0.75,-0.76,-0.76
399.73,0.31,1.05,0.29,1.04,-1.04,-0.96,-0.97,-0.73,-0.75,-0.75
403.72,0.27,1.00,0.29,1.03,-1.03,-0.94,-0.95,-0.76,-0.74,-0.74
407.76,0.27,0.99,0.28,1.01,-1.01,-0.91,-0.94,-0.74,-0.73,-0.73
411.84,0.27,0.98,0.28,1.00,-1.00,-0.89,-0.92,-0.73,-0.72,-0.72
415.96,0.27,0.97,0.27,0.98,-0.98,-0.86,-0.90,-0.71,-0.71,-0.71
420.12,0.27,0.96,0.27,0.96,-0.96,-0.84,-0.89,-0.70,-0.70,-0.70
424.32,0.27,0.95,0.26,0.95,-0.95,-0.81,-0.87,-0.68,-0.69,-0.69
428.56,0.27,0.94,0.26,0.93,-0.93,-0.79,-0.86,-0.67,-0.67,-0.68
432.85,0.27,0.93,0.25,0.91,-0.91,-0.77,-0.85,-0.65,-0.66,-0.67
437.18,0.26,0.91,0.25,0.90,-0.90,-0.74,-0.83,-0.64,-0.65,-0.66
441.55,0.25,0.88,0.24,0.88,-0.88,-0.72,-0.82,-0.64,-0.64,-0.64
445.96,0.25,0.87,0.24,0.87,-0.87,-0.70,-0.81,-0.62,-0.63,-0.63
450.42,0.23,0.84,0.24,0.85,-0.85,-0.68,-0.79,-0.63,-0.61,-0.62
454.93,0.23,0.82,0.24,0.84,-0.84,-0.66,-0.78,-0.61,-0.60,-0.60
459.48,0.23,0.81,0.23,0.82,-0.82,-0.63,-0.77,-0.59,-0.59,-0.59
464.07,0.23,0.80,0.23,0.80,-0.80,-0.61,-0.76,-0.58,-0.57,-0.58
468.71,0.23,0.78,0.23,0.79,-0.79,-0.59,-0.74,-0.56,-0.56,-0.56
473.40,0.23,0.77,0.23,0.77,-0.77,-0.57,-0.73,-0.54,-0.54,-0.55
478.13,0.23,0.75,0.22,0.75,-0.75,-0.55,-0.72,-0.53,-0.53,-0.53
482.91,0.23,0.74,0.22,0.74,-0.74,-0.53,-0.70,-0.51,-0.51,-0.52
487.74,0.23,0.72,0.22,0.72,-0.72,-0.51,-0.69,-0.50,-0.50,-0.50
492.62,0.23,0.70,0.22,0.71,-0.71,-0.50,-0.68,-0.48,-0.48,-0.48
497.55,0.23,0.69,0.23,0.69,-0.69,-0.48,-0.67,-0.46,-0.47,-0.47
502.52,0.23,0.67,0.23,0.68,-0.68,-0.46,-0.65,-0.45,-0.45,-0.45
