frequency,raw,error,smoothed,error_smoothed,equalization,parametric_eq,fixed_band_eq,equalized_raw,equalized_smoothed,target
20.00,-1.88,-2.82,-1.88,-2.82,2.83,3.77,0.08,0.95,0.95,0.94
20.20,-1.82,-2.76,-1.82,-2.76,2.76,3.74,0.08,0.94,0.94,0.94
20.40,-1.76,-2.70,-1.76,-2.70,2.70,3.68,0.09,0.94,0.94,0.94
20.61,-1.70,-2.64,-1.70,-2.64,2.63,3.60,0.09,0.93,0.94,0.94
20.81,-1.63,-2.57,-1.63,-2.57,2.57,3.49,0.09,0.94,0.93,0.94
21.02,-1.57,-2.51,-1.57,-2.50,2.49,3.37,0.09,0.92,0.93,0.94
21.23,-1.50,-2.42,-1.50,-2.42,2.42,3.24,0.09,0.92,0.92,0.92
21.44,-1.43,-2.34,-1.43,-2.34,2.34,3.10,0.10,0.92,0.91,0.91
21.66,-1.37,-2.26,-1.37,-2.26,2.26,2.95,0.10,0.89,0.90,0.89
21.87,-1.31,-2.18,-1.31,-2.18,2.18,2.80,0.10,0.87,0.88,0.87
22.09,-1.24,-2.10,-1.24,-2.10,2.10,2.65,0.10,0.86,0.85,0.86
22.31,-1.18,-2.01,-1.18,-2.01,2.01,2.50,0.11,0.83,0.83,0.83
22.54,-1.12,-1.93,-1.11,-1.93,1.92,2.35,0.11,0.80,0.81,0.81
22.76,-1.05,-1.84,-1.05,-1.84,1.84,2.21,0.11,0.79,0.78,0.79
22.99,-0.99,-1.75,-0.99,-1.75,1.75,2.08,0.11,0.76,0.76,0.76
23.22,-0.94,-1.67,-0.93,-1.66,1.67,1.95,0.12,0.73,0.74,0.73
23.45,-0.87,-1.57,-0.87,-1.58,1.59,1.83,0.12,0.72,0.71,0.70
23.69,-0.81,-1.50,-0.81,-1.50,1.50,1.72,0.12,0.69,0.69,0.69
23.92,-0.75,-1.42,-0.75,-1.42,1.42,1.61,0.12,0.68,0.68,0.67
24.16,-0.69,-1.35,-0.69,-1.35,1.35,1.51,0.13,0.66,0.65,0.66
24.40,-0.64,-1.28,-0.64,-1.27,1.27,1.41,0.13,0.63,0.63,0.64
24.65,-0.58,-1.20,-0.58,-1.20,1.19,1.33,0.13,0.61,0.62,0.62
24.89,-0.51,-1.11,-0.51,-1.12,1.12,1.24,0.13,0.61,0.60,0.60
25.14,-0.45,-1.04,-0.45,-1.04,1.04,1.17,0.14,0.59,0.59,0.59
25.39,-0.39,-0.96,-0.39,-0.96,0.96,1.09,0.14,0.57,0.57,0.57
25.65,-0.33,-0.89,-0.33,-0.88,0.88,1.03,0.14,0.55,0.55,0.56
25.91,-0.27,-0.80,-0.27,-0.81,0.81,0.96,0.14,0.54,0.54,0.53
26.16,-0.21,-0.73,-0.21,-0.73,0.73,0.90,0.15,0.52,0.52,0.52
26.43,-0.16,-0.67,-0.16,-0.66,0.66,0.85,0.15,0.50,0.50,0.51
26.69,-0.10,-0.58,-0.10,-0.59,0.59,0.80,0.15,0.49,0.49,0.48
26.96,-0.05,-0.52,-0.05,-0.52,0.52,0.75,0.15,0.47,0.47,0.47
27.23,0.01,-0.45,0.00,-0.45,0.46,0.70,0.15,0.46,0.46,0.46
27.50,0.05,-0.40,0.05,-0.39,0.39,0.66,0.16,0.44,0.44,0.45
27.77,0.10,-0.33,0.10,-0.33,0.32,0.62,0.16,0.43,0.43,0.43
28.05,0.16,-0.26,0.15,-0.26,0.26,0.58,0.16,0.42,0.42,0.42
28.33,0.20,-0.20,0.20,-0.20,0.20,0.55,0.16,0.40,0.40,0.40
28.62,0.25,-0.14,0.25,-0.14,0.14,0.51,0.16,0.39,0.39,0.39
28.90,0.29,-0.08,0.29,-0.08,0.08,0.48,0.16,0.37,0.37,0.37
29.19,0.33,-0.02,0.33,-0.02,0.03,0.45,0.16,0.36,0.36,0.35
29.48,0.38,0.03,0.38,0.03,-0.03,0.42,0.16,0.35,0.35,0.35
29.78,0.42,0.08,0.42,0.08,-0.08,0.40,0.16,0.34,0.34,0.34
30.08,0.46,0.13,0.46,0.13,-0.13,0.37,0.15,0.32,0.32,0.33
30.38,0.49,0.18,0.49,0.18,-0.18,0.35,0.15,0.31,0.31,0.31
30.68,0.53,0.23,0.53,0.23,-0.23,0.32,0.15,0.30,0.30,0.30
30.99,0.56,0.29,0.56,0.28,-0.28,0.30,0.15,0.28,0.28,0.27
31.30,0.58,0.32,0.59,0.32,-0.32,0.28,0.14,0.26,0.27,0.26
31.61,0.61,0.36,0.61,0.36,-0.36,0.26,0.14,0.25,0.24,0.25
31.93,0.63,0.40,0.63,0.40,-0.40,0.24,0.14,0.23,0.22,0.23
32.24,0.64,0.44,0.64,0.44,-0.44,0.22,0.13,0.20,0.20,0.20
32.57,0.66,0.48,0.66,0.48,-0.48,0.21,0.13,0.18,0.18,0.18
32.89,0.67,0.50,0.67,0.51,-0.51,0.19,0.12,0.16,0.16,0.17
33.22,0.69,0.55,0.69,0.54,-0.54,0.17,0.11,0.15,0.14,0.14
33.55,0.70,0.57,0.70,0.57,-0.57,0.16,0.11,0.13,0.12,0.13
33.89,0.70,0.60,0.71,0.60,-0.60,0.14,0.10,0.10,0.10,0.10
34.23,0.71,0.63,0.71,0.63,-0.63,0.13,0.09,0.08,0.08,0.08
34.57,0.72,0.66,0.72,0.66,-0.65,0.11,0.09,0.07,0.06,0.06
34.92,0.72,0.68,0.72,0.68,-0.68,0.10,0.08,0.04,0.04,0.04
35.27,0.72,0.70,0.72,0.70,-0.70,0.09,0.07,0.02,0.02,0.02
35.62,0.72,0.72,0.72,0.72,-0.72,0.07,0.06,0.00,-0.00,0.00
35.97,0.71,0.73,0.72,0.74,-0.74,0.06,0.05,-0.03,-0.02,-0.02
36.33,0.72,0.76,0.71,0.75,-0.76,0.05,0.05,-0.04,-0.04,-0.04
36.70,0.71,0.77,0.71,0.77,-0.77,0.04,0.04,-0.06,-0.06,-0.06
37.06,0.71,0.79,0.71,0.79,-0.79,0.02,0.03,-0.08,-0.08,-0.08
37.43,0.70,0.80,0.70,0.80,-0.81,0.01,0.02,-0.11,-0.10,-0.10
37.81,0.70,0.82,0.70,0.82,-0.82,0.00,0.01,-0.12,-0.12,-0.12
38.19,0.69,0.84,0.69,0.83,-0.83,-0.01,0.00,-0.14,-0.14,-0.15
38.57,0.68,0.84,0.68,0.85,-0.84,-0.02,-0.01,-0.16,-0.16,-0.16
38.95,0.67,0.86,0.67,0.86,-0.85,-0.03,-0.02,-0.18,-0.18,-0.19
39.34,0.65,0.86,0.65,0.86,-0.86,-0.04,-0.03,-0.21,-0.21,-0.21
39.74,0.64,0.87,0.64,0.86,-0.86,-0.05,-0.03,-0.22,-0.23,-0.23
40.14,0.62,0.86,0.62,0.86,-0.87,-0.06,-0.04,-0.25,-0.25,-0.24
40.54,0.60,0.86,0.60,0.87,-0.87,-0.07,-0.05,-0.27,-0.26,-0.26
40.94,0.59,0.87,0.58,0.87,-0.87,-0.08,-0.06,-0.28,-0.28,-0.28
41.35,0.56,0.87,0.57,0.87,-0.86,-0.09,-0.07,-0.30,-0.30,-0.31
41.76,0.55,0.86,0.55,0.87,-0.86,-0.10,-0.08,-0.31,-0.31,-0.31
42.18,0.53,0.86,0.53,0.86,-0.86,-0.11,-0.09,-0.33,-0.33,-0.33
42.60,0.51,0.86,0.51,0.85,-0.86,-0.12,-0.10,-0.35,-0.35,-0.35
43.03,0.48,0.84,0.48,0.85,-0.85,-0.13,-0.11,-0.37,-0.37,-0.36
43.46,0.46,0.85,0.46,0.85,-0.85,-0.14,-0.12,-0.39,-0.39,-0.39
43.90,0.44,0.85,0.44,0.84,-0.85,-0.15,-0.13,-0.41,-0.41,-0.41
44.33,0.41,0.84,0.41,0.84,-0.84,-0.16,-0.14,-0.43,-0.43,-0.43
44.78,0.38,0.83,0.38,0.84,-0.84,-0.17,-0.15,-0.46,-0.45,-0.45
45.23,0.36,0.84,0.36,0.83,-0.83,-0.18,-0.16,-0.47,-0.47,-0.48
45.68,0.33,0.83,0.33,0.83,-0.82,-0.20,-0.16,-0.49,-0.49,-0.50
46.13,0.31,0.82,0.31,0.82,-0.81,-0.21,-0.17,-0.50,-0.51,-0.51
46.60,0.28,0.80,0.28,0.80,-0.80,-0.22,-0.18,-0.52,-0.52,-0.52
47.06,0.25,0.79,0.25,0.79,-0.80,-0.23,-0.19,-0.55,-0.54,-0.54
47.53,0.23,0.79,0.23,0.78,-0.79,-0.24,-0.20,-0.56,-0.56,-0.56
48.01,0.20,0.77,0.20,0.78,-0.79,-0.25,-0.21,-0.59,-0.58,-0.57
48.49,0.18,0.78,0.18,0.78,-0.78,-0.26,-0.22,-0.60,-0.61,-0.60
48.97,0.15,0.78,0.15,0.78,-0.78,-0.27,-0.23,-0.63,-0.63,-0.63
49.46,0.12,0.78,0.13,0.79,-0.78,-0.28,-0.25,-0.66,-0.65,-0.66
49.96,0.10,0.79,0.10,0.78,-0.78,-0.29,-0.26,-0.68,-0.68,-0.69
50.46,0.08,0.78,0.07,0.78,-0.77,-0.30,-0.27,-0.69,-0.70,-0.70
50.96,0.04,0.76,0.04,0.77,-0.77,-0.31,-0.28,-0.73,-0.72,-0.72
51.47,0.01,0.76,0.01,0.76,-0.76,-0.33,-0.29,-0.75,-0.75,-0.75
51.99,-0.02,0.75,-0.02,0.75,-0.75,-0.34,-0.30,-0.77,-0.77,-0.77
52.51,-0.06,0.73,-0.06,0.73,-0.74,-0.35,-0.31,-0.80,-0.79,-0.79
53.03,-0.09,0.72,-0.09,0.72,-0.72,-0.36,-0.33,-0.81,-0.81,-0.81
53.56,-0.13,0.71,-0.13,0.71,-0.71,-0.37,-0.34,-0.84,-0.84,-0.84
54.10,-0.16,0.70,-0.17,0.70,-0.70,-0.39,-0.35,-0.86,-0.86,-0.86
54.64,-0.21,0.68,-0.21,0.68,-0.68,-0.40,-0.37,-0.89,-0.89,-0.89
55.18,-0.25,0.66,-0.25,0.66,-0.66,-0.41,-0.38,-0.91,-0.91,-0.91
55.74,-0.29,0.65,-0.29,0.64,-0.64,-0.43,-0.40,-0.93,-0.94,-0.94
56.29,-0.34,0.62,-0.34,0.62,-0.62,-0.44,-0.41,-0.96,-0.96,-0.96
56.86,-0.39,0.60,-0.39,0.60,-0.60,-0.46,-0.43,-0.98,-0.98,-0.99
57.42,-0.44,0.57,-0.44,0.57,-0.57,-0.47,-0.44,-1.01,-1.01,-1.01
58.00,-0.49,0.54,-0.49,0.54,-0.54,-0.48,-0.46,-1.03,-1.03,-1.03
58.58,-0.55,0.51,-0.54,0.51,-0.51,-0.50,-0.48,-1.06,-1.06,-1.06
59.16,-0.59,0.49,-0.59,0.49,-0.48,-0.52,-0.50,-1.07,-1.08,-1.08
59.76,-0.65,0.45,-0.65,0.46,-0.46,-0.53,-0.52,-1.11,-1.11,-1.10
60.35,-0.69,0.44,-0.70,0.43,-0.44,-0.55,-0.54,-1.13,-1.13,-1.13
60.96,-0.75,0.40,-0.74,0.41,-0.42,-0.56,-0.56,-1.17,-1.16,-1.15
61.57,-0.79,0.40,-0.79,0.40,-0.41,-0.58,-0.58,-1.20,-1.19,-1.19
62.18,-0.82,0.40,-0.82,0.39,-0.39,-0.60,-0.60,-1.21,-1.22,-1.22
62.80,-0.86,0.39,-0.86,0.39,-0.39,-0.62,-0.63,-1.25,-1.24,-1.25
63.43,-0.89,0.39,-0.89,0.39,-0.38,-0.64,-0.65,-1.27,-1.27,-1.28
64.07,-0.93,0.38,-0.93,0.38,-0.38,-0.65,-0.68,-1.31,-1.30,-1.31
64.71,-0.95,0.38,-0.95,0.38,-0.38,-0.67,-0.70,-1.33,-1.33,-1.33
65.35,-0.98,0.37,-0.98,0.37,-0.38,-0.69,-0.73,-1.36,-1.36,-1.35
66.01,-1.00,0.37,-1.00,0.38,-0.38,-0.72,-0.76,-1.38,-1.38,-1.37
66.67,-1.01,0.39,-1.01,0.38,-0.39,-0.74,-0.79,-1.40,-1.40,-1.40
67.33,-1.02,0.40,-1.02,0.40,-0.40,-0.76,-0.82,-1.42,-1.42,-1.42
68.01,-1.04,0.41,-1.03,0.41,-0.41,-0.78,-0.85,-1.45,-1.45,-1.45
68.69,-1.04,0.43,-1.04,0.43,-0.43,-0.80,-0.89,-1.47,-1.47,-1.47
69.37,-1.05,0.45,-1.05,0.45,-0.45,-0.83,-0.92,-1.50,-1.50,-1.50
70.07,-1.05,0.48,-1.05,0.48,-0.47,-0.85,-0.96,-1.52,-1.52,-1.53
70.77,-1.05,0.50,-1.05,0.50,-0.50,-0.88,-0.99,-1.55,-1.55,-1.55
71.48,-1.05,0.53,-1.05,0.53,-0.53,-0.90,-1.03,-1.58,-1.58,-1.58
72.19,-1.05,0.56,-1.05,0.56,-0.57,-0.93,-1.07,-1.62,-1.61,-1.61
72.91,-1.04,0.61,-1.04,0.60,-0.60,-0.96,-1.11,-1.64,-1.65,-1.65
73.64,-1.04,0.64,-1.04,0.64,-0.65,-0.99,-1.15,-1.69,-1.68,-1.68
74.38,-1.03,0.68,-1.03,0.69,-0.69,-1.02,-1.19,-1.72,-1.72,-1.71
75.12,-1.01,0.75,-1.02,0.74,-0.74,-1.05,-1.24,-1.75,-1.75,-1.76
75.87,-1.00,0.79,-1.00,0.79,-0.79,-1.08,-1.28,-1.79,-1.79,-1.79
76.63,-0.99,0.83,-0.99,0.84,-0.84,-1.11,-1.33,-1.83,-1.83,-1.82
77.40,-0.97,0.89,-0.97,0.89,-0.89,-1.14,-1.38,-1.86,-1.87,-1.86
78.17,-0.96,0.96,-0.96,0.95,-0.95,-1.18,-1.43,-1.91,-1.90,-1.92
78.95,-0.94,1.00,-0.94,1.01,-1.01,-1.21,-1.48,-1.95,-1.95,-1.94
79.74,-0.92,1.06,-0.92,1.06,-1.06,-1.25,-1.53,-1.98,-1.99,-1.98
80.54,-0.91,1.12,-0.91,1.12,-1.12,-1.29,-1.58,-2.03,-2.03,-2.03
81.35,-0.89,1.18,-0.89,1.18,-1.18,-1.33,-1.64,-2.07,-2.07,-2.07
82.16,-0.87,1.25,-0.87,1.24,-1.24,-1.37,-1.69,-2.11,-2.11,-2.12
82.98,-0.86,1.30,-0.86,1.31,-1.30,-1.41,-1.75,-2.16,-2.16,-2.16
83.81,-0.85,1.37,-0.85,1.36,-1.36,-1.45,-1.81,-2.21,-2.21,-2.22
84.65,-0.84,1.42,-0.84,1.42,-1.42,-1.50,-1.87,-2.26,-2.26,-2.26
85.50,-0.82,1.48,-0.83,1.48,-1.48,-1.54,-1.94,-2.30,-2.31,-2.30
86.35,-0.81,1.54,-0.81,1.54,-1.55,-1.59,-2.00,-2.36,-2.36,-2.35
87.22,-0.80,1.60,-0.79,1.61,-1.61,-1.64,-2.07,-2.41,-2.41,-2.40
88.09,-0.77,1.69,-0.77,1.68,-1.68,-1.69,-2.14,-2.45,-2.45,-2.46
88.97,-0.75,1.75,-0.75,1.75,-1.75,-1.74,-2.21,-2.50,-2.50,-2.50
89.86,-0.73,1.82,-0.73,1.82,-1.82,-1.79,-2.28,-2.55,-2.55,-2.55
90.76,-0.71,1.90,-0.71,1.90,-1.90,-1.85,-2.35,-2.61,-2.61,-2.61
91.66,-0.69,1.97,-0.69,1.97,-1.97,-1.90,-2.43,-2.66,-2.66,-2.66
92.58,-0.67,2.05,-0.67,2.05,-2.05,-1.96,-2.50,-2.72,-2.72,-2.72
93.51,-0.64,2.12,-0.64,2.12,-2.13,-2.02,-2.58,-2.77,-2.77,-2.76
94.44,-0.61,2.20,-0.61,2.20,-2.20,-2.08,-2.66,-2.81,-2.82,-2.81
95.39,-0.59,2.28,-0.59,2.28,-2.28,-2.14,-2.74,-2.87,-2.87,-2.87
96.34,-0.57,2.37,-0.57,2.36,-2.36,-2.21,-2.83,-2.93,-2.93,-2.94
97.30,-0.56,2.43,-0.56,2.44,-2.43,-2.27,-2.91,-2.99,-2.99,-2.99
98.28,-0.54,2.51,-0.54,2.51,-2.51,-2.34,-2.99,-3.05,-3.05,-3.05
99.26,-0.53,2.59,-0.53,2.58,-2.58,-2.40,-3.08,-3.11,-3.11,-3.12
100.25,-0.52,2.65,-0.52,2.65,-2.65,-2.47,-3.16,-3.17,-3.17,-3.17
101.25,-0.52,2.71,-0.52,2.72,-2.72,-2.54,-3.25,-3.24,-3.23,-3.23
102.27,-0.51,2.79,-0.52,2.78,-2.78,-2.61,-3.33,-3.29,-3.30,-3.30
103.29,-0.52,2.85,-0.52,2.85,-2.84,-2.69,-3.42,-3.36,-3.36,-3.37
104.32,-0.52,2.90,-0.52,2.91,-2.91,-2.76,-3.51,-3.43,-3.42,-3.42
105.37,-0.52,2.96,-0.52,2.96,-2.97,-2.83,-3.59,-3.49,-3.49,-3.48
106.42,-0.53,3.02,-0.53,3.02,-3.03,-2.90,-3.67,-3.56,-3.55,-3.55
107.48,-0.54,3.08,-0.53,3.08,-3.08,-2.98,-3.75,-3.62,-3.62,-3.62
108.56,-0.54,3.15,-0.54,3.14,-3.14,-3.05,-3.83,-3.68,-3.68,-3.69
109.64,-0.55,3.20,-0.55,3.20,-3.19,-3.12,-3.90,-3.74,-3.75,-3.75
110.74,-0.57,3.24,-0.57,3.25,-3.25,-3.19,-3.98,-3.82,-3.81,-3.81
111.85,-0.59,3.29,-0.59,3.29,-3.30,-3.26,-4.04,-3.89,-3.89,-3.88
112.97,-0.61,3.35,-0.61,3.34,-3.34,-3.33,-4.11,-3.95,-3.96,-3.96
114.10,-0.64,3.38,-0.64,3.39,-3.39,-3.40,-4.17,-4.03,-4.02,-4.02
115.24,-0.66,3.43,-0.66,3.43,-3.43,-3.46,-4.22,-4.09,-4.09,-4.09
116.39,-0.69,3.47,-0.69,3.47,-3.46,-3.52,-4.26,-4.15,-4.16,-4.16
117.55,-0.73,3.50,-0.73,3.50,-3.50,-3.58,-4.30,-4.23,-4.22,-4.23
118.73,-0.76,3.53,-0.76,3.53,-3.53,-3.63,-4.33,-4.29,-4.29,-4.29
119.92,-0.80,3.55,-0.80,3.55,-3.55,-3.68,-4.36,-4.35,-4.35,-4.35
121.12,-0.84,3.57,-0.84,3.57,-3.57,-3.72,-4.37,-4.41,-4.41,-4.41
122.33,-0.88,3.60,-0.88,3.59,-3.60,-3.76,-4.38,-4.48,-4.48,-4.48
123.55,-0.92,3.61,-0.92,3.61,-3.62,-3.79,-4.38,-4.54,-4.54,-4.53
124.79,-0.96,3.63,-0.96,3.63,-3.64,-3.82,-4.37,-4.60,-4.59,-4.59
126.03,-0.99,3.65,-0.99,3.65,-3.66,-3.84,-4.35,-4.65,-4.65,-4.64
127.29,-1.03,3.67,-1.03,3.67,-3.68,-3.85,-4.32,-4.71,-4.71,-4.70
128.57,-1.07,3.70,-1.07,3.69,-3.69,-3.86,-4.28,-4.76,-4.76,-4.77
129.85,-1.11,3.71,-1.11,3.71,-3.71,-3.86,-4.24,-4.82,-4.82,-4.82
131.15,-1.15,3.72,-1.15,3.72,-3.72,-3.86,-4.18,-4.87,-4.87,-4.87
132.46,-1.19,3.74,-1.19,3.73,-3.73,-3.85,-4.12,-4.92,-4.92,-4.93
133.79,-1.24,3.73,-1.24,3.74,-3.74,-3.83,-4.05,-4.98,-4.97,-4.97
135.12,-1.28,3.75,-1.28,3.74,-3.74,-3.81,-3.97,-5.02,-5.02,-5.03
136.48,-1.33,3.73,-1.33,3.73,-3.73,-3.78,-3.89,-5.06,-5.06,-5.06
137.84,-1.38,3.72,-1.38,3.73,-3.73,-3.74,-3.80,-5.11,-5.11,-5.10
139.22,-1.43,3.72,-1.43,3.71,-3.71,-3.70,-3.70,-5.14,-5.14,-5.15
140.61,-1.49,3.70,-1.49,3.70,-3.69,-3.66,-3.60,-5.18,-5.18,-5.19
142.02,-1.54,3.67,-1.54,3.67,-3.67,-3.61,-3.49,-5.21,-5.21,-5.21
143.44,-1.60,3.64,-1.60,3.65,-3.65,-3.55,-3.38,-5.25,-5.25,-5.24
144.87,-1.66,3.62,-1.66,3.62,-3.62,-3.49,-3.27,-5.28,-5.28,-5.28
146.32,-1.72,3.59,-1.72,3.58,-3.59,-3.43,-3.15,-5.31,-5.31,-5.31
147.78,-1.79,3.54,-1.79,3.55,-3.55,-3.37,-3.03,-5.34,-5.34,-5.33
149.26,-1.85,3.51,-1.86,3.51,-3.51,-3.30,-2.91,-5.36,-5.37,-5.36
150.75,-1.93,3.47,-1.93,3.47,-3.47,-3.23,-2.79,-5.40,-5.39,-5.40
152.26,-2.00,3.42,-2.00,3.43,-3.42,-3.16,-2.66,-5.42,-5.42,-5.42
153.78,-2.07,3.38,-2.07,3.37,-3.37,-3.09,-2.53,-5.44,-5.45,-5.45
155.32,-2.15,3.32,-2.15,3.32,-3.32,-3.02,-2.41,-5.47,-5.47,-5.47
156.88,-2.24,3.26,-2.24,3.26,-3.26,-2.95,-2.28,-5.50,-5.50,-5.50
158.44,-2.33,3.20,-2.33,3.20,-3.20,-2.87,-2.15,-5.53,-5.53,-5.53
160.03,-2.42,3.14,-2.42,3.14,-3.14,-2.80,-2.02,-5.56,-5.56,-5.56
161.63,-2.52,3.07,-2.52,3.07,-3.07,-2.72,-1.89,-5.59,-5.59,-5.59
163.24,-2.62,3.00,-2.62,3.00,-3.00,-2.65,-1.76,-5.62,-5.61,-5.62
164.88,-2.72,2.92,-2.72,2.92,-2.92,-2.57,-1.63,-5.64,-5.64,-5.64
166.53,-2.82,2.84,-2.83,2.84,-2.84,-2.50,-1.50,-5.66,-5.67,-5.66
168.19,-2.94,2.76,-2.93,2.76,-2.76,-2.42,-1.38,-5.70,-5.69,-5.70
169.87,-3.05,2.68,-3.05,2.68,-2.68,-2.35,-1.25,-5.73,-5.73,-5.73
171.57,-3.16,2.60,-3.17,2.59,-2.59,-2.28,-1.12,-5.75,-5.76,-5.76
173.29,-3.29,2.49,-3.28,2.50,-2.51,-2.20,-0.99,-5.80,-5.79,-5.78
175.02,-3.40,2.42,-3.41,2.42,-2.42,-2.13,-0.87,-5.82,-5.82,-5.82
176.77,-3.53,2.33,-3.53,2.33,-2.33,-2.06,-0.74,-5.86,-5.86,-5.86
178.54,-3.65,2.25,-3.65,2.25,-2.25,-1.98,-0.61,-5.90,-5.89,-5.90
180.32,-3.77,2.16,-3.77,2.16,-2.16,-1.91,-0.49,-5.93,-5.93,-5.93
182.13,-3.90,2.06,-3.90,2.06,-2.07,-1.83,-0.36,-5.97,-5.97,-5.96
183.95,-4.03,1.97,-4.02,1.98,-1.98,-1.76,-0.24,-6.01,-6.01,-6.00
185.79,-4.15,1.89,-4.15,1.89,-1.89,-1.69,-0.11,-6.04,-6.04,-6.04
187.65,-4.27,1.81,-4.28,1.80,-1.79,-1.61,0.01,-6.06,-6.07,-6.08
189.52,-4.41,1.70,-4.41,1.70,-1.69,-1.53,0.13,-6.10,-6.10,-6.11
191.42,-4.54,1.59,-4.54,1.59,-1.59,-1.46,0.25,-6.13,-6.13,-6.13
193.33,-4.68,1.47,-4.68,1.47,-1.48,-1.38,0.37,-6.16,-6.16,-6.15
195.27,-4.82,1.36,-4.82,1.36,-1.37,-1.30,0.49,-6.19,-6.19,-6.18
197.22,-4.97,1.24,-4.97,1.25,-1.25,-1.21,0.61,-6.22,-6.21,-6.21
199.19,-5.12,1.14,-5.12,1.13,-1.12,-1.13,0.73,-6.24,-6.24,-6.26
201.18,-5.28,0.99,-5.28,0.99,-0.98,-1.04,0.85,-6.26,-6.27,-6.27
203.19,-5.45,0.84,-5.45,0.85,-0.84,-0.95,0.96,-6.29,-6.29,-6.29
205.23,-5.62,0.69,-5.62,0.69,-0.69,-0.85,1.07,-6.31,-6.31,-6.31
207.28,-5.79,0.53,-5.80,0.53,-0.53,-0.75,1.19,-6.32,-6.33,-6.32
209.35,-5.99,0.36,-5.98,0.37,-0.36,-0.64,1.30,-6.35,-6.34,-6.35
211.44,-6.17,0.20,-6.18,0.19,-0.18,-0.53,1.40,-6.35,-6.36,-6.37
213.56,-6.38,0.01,-6.38,0.00,0.00,-0.41,1.51,-6.38,-6.38,-6.39
215.69,-6.59,-0.20,-6.59,-0.20,0.19,-0.29,1.61,-6.40,-6.40,-6.39
217.85,-6.81,-0.41,-6.81,-0.40,0.39,-0.15,1.71,-6.42,-6.41,-6.40
220.03,-7.02,-0.59,-7.02,-0.60,0.59,-0.00,1.80,-6.43,-6.42,-6.43
222.23,-7.23,-0.79,-7.24,-0.80,0.80,0.15,1.89,-6.43,-6.43,-6.44
224.45,-7.45,-1.02,-7.45,-1.01,1.01,0.32,1.97,-6.44,-6.44,-6.43
226.70,-7.67,-1.23,-7.66,-1.22,1.22,0.50,2.05,-6.45,-6.44,-6.44
228.96,-7.87,-1.43,-7.87,-1.44,1.43,0.69,2.13,-6.44,-6.44,-6.44
231.25,-8.08,-1.65,-8.08,-1.65,1.64,0.91,2.20,-6.44,-6.44,-6.43
233.57,-8.29,-1.87,-8.29,-1.86,1.86,1.13,2.26,-6.43,-6.43,-6.42
235.90,-8.49,-2.07,-8.49,-2.07,2.07,1.38,2.31,-6.42,-6.42,-6.42
238.26,-8.69,-2.27,-8.69,-2.28,2.29,1.64,2.36,-6.40,-6.40,-6.42
240.64,-8.90,-2.50,-8.90,-2.50,2.51,1.92,2.40,-6.39,-6.39,-6.40
243.05,-9.10,-2.72,-9.10,-2.72,2.73,2.22,2.44,-6.37,-6.38,-6.38
245.48,-9.31,-2.95,-9.31,-2.94,2.95,2.54,2.46,-6.36,-6.36,-6.36
247.93,-9.51,-3.16,-9.51,-3.16,3.16,2.86,2.48,-6.35,-6.34,-6.35
250.41,-9.70,-3.36,-9.70,-3.37,3.38,3.19,2.49,-6.32,-6.32,-6.34
252.92,-9.89,-3.59,-9.89,-3.58,3.59,3.52,2.49,-6.30,-6.30,-6.30
255.45,-10.07,-3.79,-10.07,-3.78,3.79,3.83,2.48,-6.28,-6.28,-6.28
258.00,-10.23,-3.97,-10.23,-3.97,3.97,4.11,2.47,-6.26,-6.26,-6.26
260.58,-10.37,-4.13,-10.37,-4.13,4.14,4.34,2.45,-6.23,-6.24,-6.24
263.19,-10.50,-4.28,-10.50,-4.28,4.28,4.51,2.42,-6.22,-6.22,-6.22
265.82,-10.60,-4.40,-10.60,-4.40,4.40,4.60,2.38,-6.20,-6.20,-6.20
268.48,-10.67,-4.50,-10.67,-4.49,4.49,4.61,2.34,-6.18,-6.18,-6.17
271.16,-10.69,-4.55,-10.70,-4.55,4.54,4.53,2.29,-6.15,-6.16,-6.14
273.87,-10.69,-4.57,-10.69,-4.57,4.55,4.37,2.23,-6.14,-6.13,-6.12
276.61,-10.64,-4.55,-10.64,-4.54,4.52,4.15,2.17,-6.11,-6.11,-6.09
279.38,-10.54,-4.47,-10.54,-4.47,4.46,3.87,2.10,-6.08,-6.09,-6.07
282.17,-10.41,-4.36,-10.41,-4.36,4.35,3.57,2.03,-6.06,-6.06,-6.05
284.99,-10.24,-4.22,-10.23,-4.21,4.20,3.24,1.96,-6.04,-6.03,-6.02
287.84,-10.03,-4.03,-10.03,-4.03,4.02,2.92,1.88,-6.01,-6.00,-6.00
290.72,-9.78,-3.82,-9.79,-3.82,3.82,2.59,1.79,-5.96,-5.97,-5.96
293.63,-9.53,-3.59,-9.53,-3.59,3.59,2.28,1.71,-5.94,-5.94,-5.94
296.57,-9.25,-3.34,-9.25,-3.34,3.35,1.99,1.62,-5.90,-5.90,-5.91
299.53,-8.96,-3.08,-8.96,-3.08,3.09,1.71,1.53,-5.87,-5.87,-5.88
302.53,-8.67,-2.81,-8.67,-2.82,2.83,1.45,1.43,-5.84,-5.84,-5.86
305.55,-8.38,-2.57,-8.38,-2.56,2.57,1.21,1.34,-5.81,-5.81,-5.81
308.61,-8.09,-2.31,-8.09,-2.31,2.31,0.98,1.24,-5.78,-5.77,-5.78
311.69,-7.80,-2.06,-7.80,-2.06,2.06,0.78,1.14,-5.74,-5.74,-5.74
314.81,-7.52,-1.81,-7.52,-1.81,1.81,0.59,1.04,-5.71,-5.71,-5.71
317.96,-7.25,-1.57,-7.25,-1.57,1.57,0.42,0.94,-5.68,-5.68,-5.68
321.14,-6.98,-1.33,-6.98,-1.33,1.34,0.26,0.84,-5.64,-5.65,-5.65
324.35,-6.73,-1.10,-6.73,-1.11,1.11,0.11,0.74,-5.62,-5.62,-5.63
327.59,-6.48,-0.89,-6.48,-0.89,0.88,-0.03,0.64,-5.59,-5.60,-5.59
330.87,-6.24,-0.68,-6.24,-0.67,0.67,-0.15,0.54,-5.57,-5.57,-5.56
334.18,-6.00,-0.46,-6.00,-0.46,0.46,-0.27,0.44,-5.54,-5.54,-5.54
337.52,-5.77,-0.25,-5.77,-0.26,0.26,-0.37,0.33,-5.51,-5.52,-5.52
340.90,-5.56,-0.07,-5.56,-0.06,0.07,-0.47,0.23,-5.49,-5.49,-5.49
344.30,-5.35,0.12,-5.35,0.12,-0.12,-0.56,0.13,-5.47,-5.47,-5.47
347.75,-5.15,0.29,-5.15,0.30,-0.30,-0.65,0.02,-5.45,-5.44,-5.44
351.23,-4.95,0.47,-4.95,0.47,-0.46,-0.72,-0.08,-5.41,-5.42,-5.42
354.74,-4.77,0.64,-4.78,0.63,-0.62,-0.80,-0.18,-5.39,-5.40,-5.41
358.28,-4.62,0.77,-4.61,0.77,-0.77,-0.87,-0.29,-5.39,-5.38,-5.39
361.87,-4.46,0.91,-4.46,0.91,-0.91,-0.93,-0.39,-5.37,-5.37,-5.37
365.49,-4.31,1.03,-4.31,1.04,-1.05,-0.99,-0.49,-5.36,-5.36,-5.34
369.14,-4.16,1.17,-4.16,1.17,-1.18,-1.05,-0.60,-5.33,-5.34,-5.33
372.83,-4.02,1.30,-4.02,1.30,-1.29,-1.10,-0.70,-5.31,-5.31,-5.32
376.56,-3.88,1.42,-3.88,1.41,-1.41,-1.15,-0.80,-5.29,-5.29,-5.30
380.33,-3.76,1.51,-3.76,1.52,-1.52,-1.20,-0.90,-5.28,-5.27,-5.27
384.13,-3.63,1.62,-3.63,1.62,-1.62,-1.24,-1.01,-5.25,-5.25,-5.25
387.97,-3.52,1.71,-3.52,1.71,-1.71,-1.29,-1.11,-5.23,-5.23,-5.23
391.85,-3.41,1.80,-3.41,1.80,-1.80,-1.33,-1.21,-5.21,-5.21,-5.21
395.77,-3.30,1.88,-3.30,1.88,-1.88,-1.37,-1.31,-5.18,-5.18,-5.18
399.73,-3.20,1.96,-3.20,1.96,-1.96,-1.40,-1.42,-5.16,-5.16,-5.16
403.72,-3.12,2.03,-3.12,2.03,-2.02,-1.44,-1.52,-5.14,-5.14,-5.15
407.76,-3.04,2.09,-3.04,2.09,-2.09,-1.47,-1.62,-5.13,-5.13,-5.13
411.84,-2.97,2.13,-2.97,2.14,-2.14,-1.50,-1.72,-5.11,-5.10,-5.10
415.96,-2.89,2.19,-2.89,2.19,-2.18,-1.53,-1.81,-5.07,-5.08,-5.08
420.12,-2.83,2.23,-2.83,2.23,-2.22,-1.56,-1.91,-5.05,-5.05,-5.06
424.32,-2.77,2.26,-2.77,2.26,-2.25,-1.59,-2.01,-5.02,-5.02,-5.03
428.56,-2.72,2.29,-2.72,2.29,-2.28,-1.62,-2.10,-5.00,-5.00,-5.01
432.85,-2.68,2.31,-2.67,2.31,-2.31,-1.65,-2.19,-4.99,-4.98,-4.99
437.18,-2.63,2.33,-2.63,2.33,-2.34,-1.67,-2.28,-4.97,-4.97,-4.96
441.55,-2.58,2.35,-2.58,2.35,-2.37,-1.70,-2.37,-4.95,-4.95,-4.93
445.96,-2.54,2.37,-2.53,2.38,-2.40,-1.72,-2.46,-4.94,-4.93,-4.91
450.42,-2.46,2.44,-2.46,2.43,-2.43,-1.74,-2.54,-4.89,-4.90,-4.90
