frequency,raw,error,smoothed,error_smoothed,equalization,parametric_eq,fixed_band_eq,equalized_raw,equalized_smoothed,target
20.00,-20.31,-22.29,-20.38,-22.37,22.37,21.78,9.64,2.06,1.99,1.97
20.20,-20.26,-22.27,-20.26,-22.27,22.27,21.85,9.82,2.01,2.02,2.00
20.40,-20.16,-22.19,-20.14,-22.17,22.17,21.89,10.01,2.02,2.04,2.04
20.61,-20.05,-22.11,-20.01,-22.07,22.07,21.93,10.19,2.02,2.06,2.05
20.81,-19.90,-21.98,-19.89,-21.97,21.97,21.95,10.39,2.07,2.08,2.09
21.02,-19.80,-21.92,-19.77,-21.86,21.86,21.95,10.59,2.06,2.09,2.11
21.23,-19.65,-21.78,-19.65,-21.76,21.76,21.94,10.79,2.11,2.11,2.12
21.44,-19.54,-21.67,-19.53,-21.65,21.65,21.92,11.00,2.11,2.12,2.13
21.66,-19.40,-21.55,-19.41,-21.54,21.54,21.88,11.21,2.13,2.13,2.14
21.87,-19.30,-21.44,-19.28,-21.42,21.42,21.84,11.43,2.13,2.14,2.15
22.09,-19.15,-21.30,-19.16,-21.31,21.31,21.77,11.66,2.16,2.15,2.15
22.31,-19.03,-21.18,-19.04,-21.19,21.19,21.70,11.89,2.16,2.15,2.15
22.54,-18.90,-21.06,-18.91,-21.07,21.07,21.61,12.13,2.16,2.16,2.15
22.76,-18.79,-20.94,-18.78,-20.94,20.94,21.51,12.37,2.15,2.16,2.15
22.99,-18.66,-20.81,-18.66,-20.81,20.81,21.40,12.62,2.15,2.15,2.14
23.22,-18.54,-20.69,-18.54,-20.69,20.69,21.28,12.88,2.15,2.15,2.14
23.45,-18.41,-20.55,-18.41,-20.56,20.56,21.16,13.15,2.15,2.15,2.14
23.69,-18.30,-20.45,-18.29,-20.44,20.44,21.02,13.42,2.14,2.15,2.14
23.92,-18.16,-20.30,-18.17,-20.32,20.32,20.88,13.70,2.16,2.15,2.14
24.16,-18.05,-20.19,-18.05,-20.20,20.20,20.73,13.99,2.15,2.14,2.14
24.40,-17.93,-20.07,-17.93,-20.07,20.07,20.58,14.29,2.14,2.14,2.14
24.65,-17.81,-19.95,-17.81,-19.95,19.95,20.42,14.60,2.14,2.14,2.13
24.89,-17.70,-19.83,-17.69,-19.83,19.83,20.26,14.92,2.13,2.14,2.13
25.14,-17.58,-19.71,-17.57,-19.71,19.71,20.09,15.25,2.13,2.14,2.13
25.39,-17.45,-19.58,-17.45,-19.59,19.59,19.92,15.59,2.14,2.13,2.13
25.65,-17.33,-19.47,-17.33,-19.47,19.47,19.75,15.95,2.13,2.13,2.13
25.91,-17.21,-19.34,-17.21,-19.34,19.34,19.58,16.31,2.13,2.13,2.13
26.16,-17.10,-19.22,-17.09,-19.22,19.22,19.40,16.69,2.12,2.13,2.12
26.43,-16.97,-19.10,-16.97,-19.10,19.10,19.23,17.07,2.12,2.12,2.12
26.69,-16.85,-18.98,-16.85,-18.97,18.97,19.05,17.47,2.12,2.12,2.12
26.96,-16.72,-18.85,-16.73,-18.85,18.85,18.87,17.89,2.13,2.12,2.12
27.23,-16.60,-18.72,-16.61,-18.72,18.72,18.70,18.31,2.12,2.12,2.11
27.50,-16.50,-18.62,-16.48,-18.59,18.59,18.52,18.75,2.09,2.11,2.11
27.77,-16.35,-18.45,-16.36,-18.47,18.47,18.35,19.19,2.12,2.11,2.10
28.05,-16.25,-18.35,-16.23,-18.34,18.34,18.17,19.65,2.09,2.10,2.10
28.33,-16.10,-18.19,-16.11,-18.21,18.21,18.00,20.11,2.11,2.10,2.09
28.62,-15.98,-18.08,-15.98,-18.07,18.07,17.82,20.57,2.09,2.10,2.09
28.90,-15.85,-17.94,-15.85,-17.94,17.94,17.65,21.03,2.09,2.09,2.09
29.19,-15.70,-17.79,-15.72,-17.81,17.81,17.48,21.48,2.11,2.09,2.08
29.48,-15.60,-17.68,-15.59,-17.67,17.67,17.31,21.91,2.07,2.08,2.08
29.78,-15.45,-17.53,-15.46,-17.53,17.53,17.14,22.30,2.08,2.08,2.07
30.08,-15.32,-17.40,-15.32,-17.39,17.39,16.98,22.65,2.07,2.07,2.07
30.38,-15.19,-17.26,-15.19,-17.25,17.25,16.81,22.94,2.06,2.07,2.06
30.68,-15.06,-17.13,-15.05,-17.11,17.11,16.65,23.16,2.05,2.06,2.06
30.99,-14.91,-16.97,-14.92,-16.97,16.97,16.49,23.29,2.06,2.06,2.05
31.30,-14.79,-16.84,-14.78,-16.83,16.83,16.33,23.32,2.04,2.05,2.04
31.61,-14.64,-16.69,-14.64,-16.69,16.69,16.17,23.26,2.05,2.04,2.04
31.93,-14.50,-16.54,-14.51,-16.54,16.54,16.02,23.11,2.04,2.04,2.04
32.24,-14.37,-16.39,-14.37,-16.40,16.40,15.86,22.87,2.03,2.03,2.02
32.57,-14.24,-16.27,-14.23,-16.25,16.25,15.71,22.57,2.01,2.02,2.02
32.89,-14.08,-16.09,-14.09,-16.11,16.11,15.56,22.21,2.03,2.02,2.01
33.22,-13.95,-15.95,-13.95,-15.96,15.96,15.41,21.82,2.01,2.01,2.00
33.55,-13.82,-15.82,-13.81,-15.81,15.81,15.26,21.39,1.99,2.00,2.00
33.89,-13.68,-15.68,-13.67,-15.67,15.67,15.11,20.96,1.99,1.99,1.99
34.23,-13.53,-15.52,-13.54,-15.52,15.52,14.97,20.51,1.99,1.98,1.98
34.57,-13.39,-15.37,-13.40,-15.37,15.37,14.83,20.06,1.98,1.97,1.97
34.92,-13.26,-15.23,-13.26,-15.22,15.22,14.69,19.62,1.96,1.97,1.96
35.27,-13.13,-15.09,-13.12,-15.08,15.08,14.55,19.18,1.94,1.96,1.95
35.62,-12.97,-14.92,-12.98,-14.93,14.93,14.41,18.76,1.96,1.95,1.94
35.97,-12.84,-14.77,-12.84,-14.78,14.78,14.27,18.34,1.94,1.94,1.93
36.33,-12.71,-14.63,-12.71,-14.63,14.63,14.14,17.94,1.92,1.93,1.92
36.70,-12.57,-14.49,-12.57,-14.49,14.49,14.01,17.55,1.91,1.92,1.91
37.06,-12.43,-14.33,-12.43,-14.34,14.34,13.87,17.17,1.91,1.91,1.90
37.43,-12.30,-14.19,-12.30,-14.19,14.19,13.74,16.80,1.89,1.89,1.89
37.81,-12.16,-14.05,-12.16,-14.04,14.04,13.62,16.45,1.88,1.88,1.88
38.19,-12.02,-13.90,-12.02,-13.89,13.89,13.49,16.11,1.87,1.87,1.87
38.57,-11.89,-13.76,-11.88,-13.75,13.75,13.36,15.78,1.86,1.86,1.86
38.95,-11.76,-13.61,-11.75,-13.60,13.60,13.24,15.46,1.84,1.85,1.85
39.34,-11.61,-13.44,-11.61,-13.45,13.45,13.12,15.16,1.84,1.84,1.83
39.74,-11.47,-13.30,-11.48,-13.31,13.31,12.99,14.86,1.84,1.83,1.82
40.14,-11.35,-13.17,-11.35,-13.17,13.17,12.87,14.58,1.81,1.82,1.81
40.54,-11.22,-13.03,-11.21,-13.02,13.02,12.75,14.30,1.80,1.81,1.80
40.94,-11.07,-12.86,-11.08,-12.88,12.88,12.64,14.03,1.81,1.80,1.79
41.35,-10.94,-12.72,-10.95,-12.74,12.74,12.52,13.77,1.80,1.79,1.78
41.76,-10.82,-12.59,-10.82,-12.60,12.60,12.41,13.52,1.78,1.77,1.77
42.18,-10.69,-12.45,-10.69,-12.46,12.46,12.29,13.28,1.77,1.76,1.76
42.60,-10.57,-12.32,-10.57,-12.31,12.31,12.18,13.05,1.74,1.75,1.75
43.03,-10.45,-12.20,-10.44,-12.17,12.17,12.07,12.82,1.72,1.73,1.74
43.46,-10.32,-12.05,-10.31,-12.03,12.03,11.96,12.61,1.71,1.72,1.72
43.90,-10.20,-11.91,-10.19,-11.89,11.89,11.85,12.39,1.69,1.70,1.71
44.33,-10.07,-11.75,-10.07,-11.76,11.76,11.74,12.19,1.69,1.69,1.68
44.78,-9.95,-11.62,-9.94,-11.62,11.62,11.63,11.99,1.67,1.67,1.66
45.23,-9.82,-11.47,-9.82,-11.48,11.48,11.53,11.80,1.66,1.66,1.65
45.68,-9.69,-11.33,-9.70,-11.34,11.34,11.42,11.61,1.65,1.64,1.63
46.13,-9.57,-11.18,-9.58,-11.20,11.20,11.32,11.43,1.63,1.62,1.61
46.60,-9.45,-11.06,-9.47,-11.07,11.07,11.21,11.26,1.61,1.60,1.60
47.06,-9.35,-10.93,-9.35,-10.93,10.93,11.11,11.09,1.58,1.58,1.58
47.53,-9.24,-10.80,-9.24,-10.80,10.80,11.01,10.92,1.56,1.56,1.56
48.01,-9.14,-10.70,-9.13,-10.67,10.67,10.91,10.76,1.52,1.54,1.55
48.49,-9.02,-10.55,-9.02,-10.54,10.54,10.81,10.61,1.52,1.51,1.52
48.97,-8.91,-10.40,-8.92,-10.41,10.41,10.71,10.46,1.50,1.49,1.49
49.46,-8.81,-10.27,-8.81,-10.28,10.28,10.62,10.31,1.47,1.47,1.46
49.96,-8.71,-10.15,-8.71,-10.16,10.16,10.52,10.17,1.45,1.45,1.44
50.46,-8.62,-10.04,-8.61,-10.04,10.04,10.42,10.03,1.42,1.42,1.41
50.96,-8.52,-9.92,-8.52,-9.91,9.91,10.33,9.90,1.39,1.40,1.39
51.47,-8.42,-9.79,-8.42,-9.79,9.79,10.23,9.77,1.37,1.37,1.36
51.99,-8.34,-9.69,-8.33,-9.67,9.67,10.14,9.64,1.33,1.35,1.35
52.51,-8.23,-9.56,-8.23,-9.56,9.56,10.05,9.52,1.32,1.32,1.33
53.03,-8.13,-9.44,-8.14,-9.44,9.44,9.96,9.40,1.31,1.30,1.30
53.56,-8.07,-9.35,-8.06,-9.33,9.33,9.87,9.28,1.26,1.27,1.27
54.10,-7.97,-9.23,-7.97,-9.22,9.22,9.78,9.16,1.25,1.25,1.25
54.64,-7.87,-9.10,-7.89,-9.12,9.12,9.69,9.05,1.25,1.23,1.23
55.18,-7.80,-9.00,-7.81,-9.01,9.01,9.60,8.94,1.21,1.21,1.20
55.74,-7.72,-8.90,-7.73,-8.91,8.91,9.51,8.83,1.19,1.18,1.18
56.29,-7.64,-8.80,-7.65,-8.81,8.81,9.42,8.73,1.17,1.16,1.15
56.86,-7.58,-8.72,-7.57,-8.71,8.71,9.34,8.62,1.13,1.14,1.14
57.42,-7.50,-8.60,-7.50,-8.61,8.61,9.25,8.52,1.11,1.11,1.10
58.00,-7.43,-8.52,-7.42,-8.51,8.51,9.16,8.42,1.08,1.09,1.08
58.58,-7.36,-8.43,-7.35,-8.41,8.41,9.08,8.32,1.05,1.06,1.06
59.16,-7.28,-8.32,-7.28,-8.31,8.31,9.00,8.22,1.03,1.04,1.04
59.76,-7.21,-8.24,-7.20,-8.21,8.21,8.91,8.12,1.00,1.01,1.02
60.35,-7.14,-8.13,-7.13,-8.11,8.11,8.83,8.03,0.97,0.98,0.99
60.96,-7.06,-8.03,-7.06,-8.02,8.02,8.75,7.93,0.95,0.96,0.97
61.57,-6.99,-7.92,-6.98,-7.91,7.91,8.66,7.83,0.92,0.93,0.93
62.18,-6.92,-7.81,-6.91,-7.81,7.81,8.58,7.74,0.89,0.90,0.89
62.80,-6.84,-7.70,-6.84,-7.71,7.71,8.50,7.65,0.87,0.87,0.86
63.43,-6.77,-7.61,-6.77,-7.61,7.61,8.42,7.55,0.84,0.84,0.83
64.07,-6.71,-7.52,-6.70,-7.51,7.51,8.34,7.46,0.80,0.81,0.81
64.71,-6.64,-7.43,-6.63,-7.42,7.42,8.26,7.37,0.78,0.78,0.78
65.35,-6.57,-7.32,-6.57,-7.32,7.32,8.18,7.28,0.75,0.75,0.75
66.01,-6.51,-7.24,-6.51,-7.24,7.24,8.11,7.19,0.73,0.72,0.72
66.67,-6.46,-7.16,-6.46,-7.16,7.16,8.03,7.10,0.70,0.69,0.69
67.33,-6.42,-7.08,-6.42,-7.09,7.09,7.95,7.01,0.67,0.66,0.66
68.01,-6.37,-7.01,-6.39,-7.02,7.02,7.87,6.92,0.65,0.64,0.63
68.69,-6.35,-6.96,-6.36,-6.97,6.97,7.80,6.83,0.61,0.61,0.60
69.37,-6.31,-6.89,-6.34,-6.92,6.92,7.72,6.74,0.61,0.57,0.57
70.07,-6.31,-6.86,-6.34,-6.88,6.88,7.64,6.66,0.57,0.54,0.54
70.77,-6.31,-6.83,-6.34,-6.85,6.85,7.57,6.57,0.54,0.51,0.51
71.48,-6.32,-6.81,-6.35,-6.82,6.82,7.49,6.49,0.50,0.48,0.48
72.19,-6.35,-6.80,-6.36,-6.81,6.81,7.42,6.41,0.46,0.45,0.44
72.91,-6.38,-6.80,-6.39,-6.80,6.80,7.34,6.33,0.42,0.41,0.41
73.64,-6.41,-6.79,-6.41,-6.79,6.79,7.27,6.25,0.38,0.38,0.37
74.38,-6.44,-6.79,-6.44,-6.79,6.79,7.19,6.17,0.35,0.35,0.34
75.12,-6.49,-6.80,-6.48,-6.79,6.79,7.12,6.10,0.30,0.31,0.30
75.87,-6.52,-6.80,-6.51,-6.79,6.79,7.04,6.03,0.27,0.28,0.27
76.63,-6.55,-6.80,-6.54,-6.78,6.78,6.97,5.96,0.23,0.25,0.24
77.40,-6.57,-6.79,-6.56,-6.77,6.77,6.90,5.89,0.20,0.21,0.21
78.17,-6.61,-6.79,-6.58,-6.76,6.76,6.82,5.82,0.15,0.18,0.17
78.95,-6.61,-6.76,-6.59,-6.73,6.73,6.75,5.76,0.12,0.14,0.14
79.74,-6.61,-6.73,-6.60,-6.71,6.71,6.68,5.70,0.10,0.11,0.11
80.54,-6.61,-6.69,-6.59,-6.67,6.67,6.61,5.64,0.06,0.08,0.07
81.35,-6.60,-6.65,-6.59,-6.63,6.63,6.53,5.58,0.03,0.04,0.04
82.16,-6.57,-6.58,-6.57,-6.58,6.58,6.46,5.53,0.01,0.01,0.00
82.98,-6.55,-6.53,-6.55,-6.52,6.52,6.39,5.48,-0.03,-0.03,-0.03
83.81,-6.52,-6.46,-6.52,-6.45,6.45,6.32,5.43,-0.07,-0.06,-0.07
84.65,-6.49,-6.39,-6.48,-6.38,6.38,6.25,5.38,-0.11,-0.10,-0.11
85.50,-6.44,-6.31,-6.44,-6.30,6.30,6.17,5.34,-0.14,-0.14,-0.14
86.35,-6.41,-6.24,-6.40,-6.22,6.22,6.10,5.29,-0.19,-0.18,-0.18
87.22,-6.38,-6.17,-6.36,-6.14,6.14,6.03,5.25,-0.24,-0.22,-0.21
88.09,-6.32,-6.07,-6.31,-6.06,6.06,5.96,5.22,-0.26,-0.26,-0.26
88.97,-6.27,-5.98,-6.27,-5.97,5.97,5.89,5.18,-0.30,-0.30,-0.30
89.86,-6.24,-5.91,-6.23,-5.89,5.89,5.82,5.15,-0.35,-0.34,-0.34
90.76,-6.19,-5.81,-6.20,-5.82,5.82,5.74,5.12,-0.37,-0.38,-0.38
91.66,-6.16,-5.74,-6.18,-5.75,5.75,5.67,5.10,-0.41,-0.43,-0.43
92.58,-6.14,-5.67,-6.16,-5.69,5.69,5.60,5.07,-0.45,-0.47,-0.48
93.51,-6.14,-5.63,-6.16,-5.64,5.64,5.53,5.05,-0.50,-0.52,-0.52
94.44,-6.14,-5.59,-6.17,-5.61,5.61,5.46,5.03,-0.53,-0.56,-0.56
95.39,-6.14,-5.54,-6.19,-5.58,5.58,5.39,5.01,-0.56,-0.61,-0.60
96.34,-6.18,-5.53,-6.22,-5.57,5.57,5.31,5.00,-0.61,-0.66,-0.66
97.30,-6.21,-5.51,-6.27,-5.56,5.56,5.24,4.98,-0.65,-0.70,-0.71
98.28,-6.28,-5.53,-6.32,-5.57,5.57,5.17,4.97,-0.71,-0.75,-0.75
99.26,-6.35,-5.56,-6.38,-5.58,5.58,5.10,4.96,-0.77,-0.80,-0.80
100.25,-6.44,-5.60,-6.44,-5.60,5.60,5.03,4.95,-0.84,-0.85,-0.85
101.25,-6.52,-5.63,-6.51,-5.61,5.61,4.96,4.95,-0.91,-0.89,-0.90
102.27,-6.58,-5.64,-6.57,-5.63,5.63,4.88,4.94,-0.95,-0.94,-0.94
103.29,-6.66,-5.67,-6.63,-5.64,5.64,4.81,4.93,-1.02,-0.99,-1.00
104.32,-6.72,-5.69,-6.68,-5.64,5.64,4.74,4.93,-1.08,-1.04,-1.04
105.37,-6.77,-5.69,-6.72,-5.63,5.63,4.66,4.92,-1.14,-1.09,-1.08
106.42,-6.79,-5.66,-6.75,-5.61,5.61,4.59,4.92,-1.18,-1.14,-1.14
107.48,-6.79,-5.61,-6.76,-5.58,5.58,4.52,4.91,-1.21,-1.19,-1.19
108.56,-6.79,-5.56,-6.76,-5.53,5.53,4.45,4.90,-1.26,-1.24,-1.24
109.64,-6.77,-5.49,-6.75,-5.46,5.46,4.37,4.89,-1.31,-1.29,-1.29
110.74,-6.72,-5.39,-6.72,-5.38,5.38,4.30,4.88,-1.34,-1.34,-1.34
111.85,-6.68,-5.30,-6.68,-5.29,5.29,4.22,4.87,-1.39,-1.39,-1.39
112.97,-6.64,-5.20,-6.63,-5.18,5.18,4.15,4.86,-1.46,-1.45,-1.44
114.10,-6.57,-5.08,-6.57,-5.07,5.07,4.07,4.84,-1.50,-1.50,-1.49
115.24,-6.50,-4.95,-6.50,-4.95,4.95,4.00,4.82,-1.55,-1.55,-1.55
116.39,-6.42,-4.82,-6.42,-4.82,4.82,3.92,4.80,-1.60,-1.60,-1.61
117.55,-6.34,-4.68,-6.35,-4.69,4.69,3.85,4.77,-1.65,-1.66,-1.67
118.73,-6.25,-4.54,-6.26,-4.56,4.56,3.77,4.74,-1.70,-1.71,-1.72
119.92,-6.17,-4.41,-6.18,-4.42,4.42,3.70,4.70,-1.75,-1.76,-1.76
121.12,-6.07,-4.26,-6.09,-4.28,4.28,3.62,4.66,-1.79,-1.81,-1.81
122.33,-6.01,-4.15,-6.01,-4.14,4.14,3.54,4.62,-1.87,-1.87,-1.86
123.55,-5.91,-4.00,-5.92,-4.00,4.00,3.47,4.56,-1.91,-1.92,-1.92
124.79,-5.84,-3.88,-5.84,-3.87,3.87,3.39,4.51,-1.98,-1.97,-1.96
126.03,-5.75,-3.74,-5.75,-3.73,3.73,3.31,4.45,-2.02,-2.02,-2.02
127.29,-5.67,-3.61,-5.67,-3.60,3.60,3.23,4.38,-2.07,-2.07,-2.07
128.57,-5.58,-3.46,-5.59,-3.47,3.47,3.16,4.31,-2.12,-2.12,-2.12
129.85,-5.52,-3.35,-5.51,-3.34,3.34,3.08,4.23,-2.18,-2.17,-2.18
131.15,-5.43,-3.21,-5.43,-3.21,3.21,3.00,4.14,-2.22,-2.22,-2.23
132.46,-5.36,-3.09,-5.36,-3.09,3.09,2.92,4.06,-2.27,-2.27,-2.28
133.79,-5.29,-2.98,-5.29,-2.97,2.97,2.84,3.96,-2.32,-2.32,-2.32
135.12,-5.22,-2.86,-5.22,-2.86,2.86,2.76,3.87,-2.36,-2.36,-2.37
136.48,-5.16,-2.76,-5.16,-2.75,2.75,2.68,3.76,-2.41,-2.41,-2.41
137.84,-5.10,-2.65,-5.10,-2.65,2.65,2.59,3.66,-2.45,-2.45,-2.46
139.22,-5.04,-2.54,-5.05,-2.55,2.55,2.51,3.55,-2.49,-2.50,-2.51
140.61,-4.99,-2.45,-5.00,-2.47,2.47,2.43,3.44,-2.52,-2.54,-2.55
142.02,-4.95,-2.38,-4.96,-2.38,2.38,2.35,3.32,-2.57,-2.58,-2.58
143.44,-4.92,-2.31,-4.93,-2.31,2.31,2.27,3.20,-2.61,-2.62,-2.62
144.87,-4.88,-2.23,-4.90,-2.24,2.24,2.18,3.08,-2.64,-2.65,-2.66
146.32,-4.88,-2.19,-4.88,-2.18,2.18,2.10,2.96,-2.70,-2.69,-2.70
147.78,-4.84,-2.12,-4.86,-2.13,2.13,2.01,2.83,-2.71,-2.73,-2.73
149.26,-4.84,-2.08,-4.86,-2.08,2.08,1.93,2.71,-2.76,-2.77,-2.77
150.75,-4.84,-2.04,-4.86,-2.05,2.05,1.84,2.58,-2.80,-2.81,-2.81
152.26,-4.84,-2.00,-4.86,-2.01,2.01,1.76,2.45,-2.83,-2.85,-2.85
153.78,-4.84,-1.96,-4.86,-1.98,1.98,1.67,2.32,-2.86,-2.89,-2.89
155.32,-4.84,-1.92,-4.87,-1.95,1.95,1.59,2.19,-2.89,-2.92,-2.93
156.88,-4.84,-1.88,-4.87,-1.91,1.91,1.50,2.06,-2.93,-2.96,-2.97
158.44,-4.87,-1.87,-4.87,-1.87,1.87,1.41,1.93,-3.00,-3.00,-3.01
160.03,-4.88,-1.84,-4.86,-1.82,1.82,1.32,1.79,-3.06,-3.04,-3.05
161.63,-4.88,-1.80,-4.85,-1.77,1.77,1.24,1.66,-3.11,-3.08,-3.09
163.24,-4.84,-1.72,-4.82,-1.70,1.70,1.15,1.53,-3.14,-3.12,-3.13
164.88,-4.82,-1.67,-4.77,-1.61,1.61,1.06,1.40,-3.21,-3.16,-3.16
166.53,-4.76,-1.57,-4.71,-1.51,1.51,0.97,1.26,-3.25,-3.20,-3.20
168.19,-4.68,-1.45,-4.63,-1.40,1.40,0.88,1.13,-3.29,-3.24,-3.24
169.87,-4.58,-1.31,-4.54,-1.26,1.26,0.79,1.00,-3.32,-3.27,-3.28
171.57,-4.46,-1.15,-4.43,-1.11,1.11,0.70,0.86,-3.35,-3.31,-3.32
173.29,-4.33,-0.99,-4.30,-0.95,0.95,0.61,0.73,-3.38,-3.35,-3.35
175.02,-4.17,-0.79,-4.15,-0.77,0.77,0.52,0.60,-3.40,-3.39,-3.39
176.77,-4.02,-0.60,-4.00,-0.57,0.57,0.43,0.47,-3.45,-3.43,-3.43
178.54,-3.84,-0.38,-3.84,-0.38,0.38,0.34,0.33,-3.47,-3.46,-3.47
180.32,-3.66,-0.15,-3.67,-0.17,0.17,0.24,0.20,-3.49,-3.50,-3.51
182.13,-3.48,0.05,-3.50,0.03,-0.03,0.15,0.07,-3.51,-3.54,-3.54
183.95,-3.32,0.25,-3.33,0.24,-0.24,0.06,-0.07,-3.56,-3.57,-3.58
185.79,-3.15,0.45,-3.17,0.44,-0.44,-0.03,-0.20,-3.59,-3.61,-3.61
187.65,-2.99,0.65,-3.01,0.63,-0.63,-0.12,-0.33,-3.62,-3.64,-3.65
189.52,-2.84,0.83,-2.86,0.81,-0.81,-0.22,-0.47,-3.65,-3.68,-3.68
191.42,-2.71,0.99,-2.72,0.98,-0.98,-0.31,-0.60,-3.69,-3.71,-3.71
193.33,-2.59,1.14,-2.60,1.14,-1.14,-0.40,-0.73,-3.73,-3.74,-3.74
195.27,-2.49,1.27,-2.49,1.28,-1.28,-0.50,-0.86,-3.77,-3.77,-3.77
197.22,-2.37,1.42,-2.40,1.39,-1.39,-0.59,-1.00,-3.76,-3.79,-3.80
199.19,-2.30,1.52,-2.33,1.49,-1.49,-0.68,-1.13,-3.79,-3.82,-3.83
201.18,-2.22,1.62,-2.27,1.57,-1.57,-0.77,-1.26,-3.79,-3.84,-3.85
203.19,-2.19,1.67,-2.23,1.63,-1.63,-0.87,-1.39,-3.82,-3.86,-3.87
205.23,-2.15,1.73,-2.20,1.68,-1.68,-0.96,-1.52,-3.83,-3.88,-3.89
207.28,-2.15,1.74,-2.18,1.72,-1.72,-1.05,-1.64,-3.87,-3.90,-3.90
209.35,-2.15,1.76,-2.18,1.74,-1.74,-1.14,-1.77,-3.89,-3.92,-3.92
211.44,-2.17,1.76,-2.17,1.76,-1.76,-1.24,-1.89,-3.93,-3.93,-3.94
213.56,-2.20,1.74,-2.17,1.77,-1.77,-1.33,-2.02,-3.97,-3.94,-3.95
215.69,-2.23,1.71,-2.17,1.78,-1.78,-1.42,-2.14,-4.01,-3.95,-3.95
217.85,-2.24,1.71,-2.18,1.78,-1.78,-1.51,-2.25,-4.02,-3.96,-3.96
220.03,-2.24,1.72,-2.18,1.79,-1.79,-1.60,-2.37,-4.03,-3.97,-3.97
222.23,-2.24,1.73,-2.18,1.79,-1.79,-1.69,-2.48,-4.03,-3.97,-3.98
224.45,-2.21,1.76,-2.17,1.80,-1.80,-1.78,-2.59,-4.01,-3.97,-3.98
226.70,-2.18,1.79,-2.17,1.80,-1.80,-1.87,-2.69,-3.98,-3.97,-3.98
228.96,-2.15,1.82,-2.17,1.80,-1.80,-1.95,-2.79,-3.95,-3.97,-3.98
231.25,-2.14,1.82,-2.18,1.79,-1.79,-2.04,-2.88,-3.93,-3.97,-3.97
233.57,-2.11,1.85,-2.19,1.77,-1.77,-2.12,-2.97,-3.88,-3.97,-3.97
235.90,-2.11,1.85,-2.21,1.75,-1.75,-2.21,-3.05,-3.86,-3.96,-3.97
238.26,-2.11,1.84,-2.21,1.74,-1.74,-2.29,-3.13,-3.85,-3.96,-3.96
240.64,-2.11,1.83,-2.21,1.73,-1.73,-2.38,-3.20,-3.84,-3.95,-3.95
243.05,-2.15,1.78,-2.20,1.74,-1.74,-2.46,-3.27,-3.89,-3.94,-3.94
245.48,-2.16,1.76,-2.17,1.76,-1.76,-2.54,-3.32,-3.92,-3.93,-3.93
247.93,-2.20,1.71,-2.13,1.79,-1.79,-2.62,-3.37,-3.99,-3.91,-3.92
250.41,-2.24,1.66,-2.08,1.82,-1.82,-2.70,-3.42,-4.06,-3.90,-3.91
252.92,-2.21,1.67,-2.01,1.87,-1.87,-2.77,-3.45,-4.08,-3.88,-3.89
255.45,-2.11,1.75,-1.94,1.93,-1.93,-2.85,-3.48,-4.04,-3.87,-3.87
258.00,-1.92,1.93,-1.85,2.01,-2.01,-2.92,-3.51,-3.93,-3.85,-3.86
260.58,-1.69,2.14,-1.72,2.11,-2.11,-2.99,-3.53,-3.80,-3.83,-3.84
263.19,-1.44,2.37,-1.57,2.25,-2.25,-3.06,-3.54,-3.69,-3.82,-3.82
265.82,-1.24,2.55,-1.37,2.43,-2.43,-3.13,-3.54,-3.67,-3.80,-3.80
268.48,-1.05,2.72,-1.13,2.64,-2.64,-3.20,-3.54,-3.70,-3.78,-3.78
271.16,-0.90,2.85,-0.87,2.89,-2.89,-3.26,-3.54,-3.79,-3.76,-3.76
273.87,-0.78,2.95,-0.58,3.15,-3.15,-3.32,-3.53,-3.93,-3.74,-3.74
276.61,-0.60,3.11,-0.30,3.42,-3.42,-3.38,-3.52,-4.02,-3.72,-3.72
279.38,-0.34,3.35,-0.03,3.67,-3.67,-3.44,-3.50,-4.01,-3.70,-3.70
282.17,0.04,3.72,0.21,3.89,-3.89,-3.50,-3.48,-3.85,-3.68,-3.68
284.99,0.44,4.10,0.43,4.08,-4.08,-3.55,-3.46,-3.64,-3.66,-3.66
287.84,0.84,4.48,0.61,4.25,-4.25,-3.60,-3.43,-3.41,-3.64,-3.64
290.72,1.14,4.75,0.76,4.38,-4.38,-3.65,-3.40,-3.24,-3.62,-3.62
293.63,1.35,4.94,0.88,4.47,-4.47,-3.70,-3.38,-3.12,-3.59,-3.60
296.57,1.36,4.93,0.97,4.54,-4.54,-3.75,-3.35,-3.18,-3.57,-3.58
299.53,1.26,4.81,1.03,4.58,-4.58,-3.79,-3.32,-3.32,-3.55,-3.56
302.53,1.12,4.65,1.06,4.58,-4.58,-3.83,-3.29,-3.46,-3.53,-3.54
305.55,0.97,4.47,1.06,4.56,-4.56,-3.87,-3.26,-3.59,-3.50,-3.51
308.61,0.87,4.35,1.03,4.51,-4.51,-3.90,-3.23,-3.64,-3.48,-3.49
311.69,0.79,4.24,0.98,4.44,-4.44,-3.93,-3.20,-3.65,-3.46,-3.46
314.81,0.73,4.15,0.92,4.35,-4.35,-3.96,-3.17,-3.62,-3.43,-3.43
317.96,0.70,4.10,0.85,4.26,-4.26,-3.99,-3.14,-3.56,-3.41,-3.41
321.14,0.66,4.04,0.80,4.19,-4.19,-4.02,-3.12,-3.53,-3.39,-3.39
324.35,0.66,4.02,0.77,4.13,-4.13,-4.04,-3.10,-3.47,-3.37,-3.37
327.59,0.71,4.05,0.76,4.11,-4.11,-4.06,-3.08,-3.40,-3.34,-3.35
330.87,0.77,4.09,0.78,4.11,-4.11,-4.08,-3.06,-3.34,-3.32,-3.33
334.18,0.84,4.14,0.82,4.13,-4.13,-4.09,-3.04,-3.29,-3.30,-3.31
337.52,0.92,4.20,0.87,4.16,-4.16,-4.10,-3.02,-3.24,-3.28,-3.29
340.90,0.99,4.25,0.93,4.19,-4.19,-4.11,-3.01,-3.21,-3.26,-3.27
344.30,1.03,4.27,0.99,4.23,-4.23,-4.12,-3.00,-3.20,-3.24,-3.25
347.75,1.08,4.30,1.04,4.27,-4.27,-4.13,-2.99,-3.19,-3.23,-3.23
351.23,1.12,4.32,1.10,4.30,-4.30,-4.13,-2.99,-3.19,-3.21,-3.21
354.74,1.16,4.34,1.15,4.34,-4.34,-4.13,-2.98,-3.18,-3.19,-3.19
358.28,1.18,4.35,1.19,4.36,-4.36,-4.13,-2.98,-3.18,-3.17,-3.18
361.87,1.23,4.38,1.22,4.37,-4.37,-4.13,-2.98,-3.14,-3.15,-3.16
365.49,1.24,4.37,1.24,4.38,-4.38,-4.13,-2.99,-3.14,-3.14,-3.14
369.14,1.27,4.39,1.26,4.38,-4.38,-4.12,-2.99,-3.11,-3.12,-3.13
372.83,1.27,4.37,1.26,4.37,-4.37,-4.11,-3.00,-3.10,-3.11,-3.11
376.56,1.27,4.36,1.27,4.36,-4.36,-4.10,-3.01,-3.09,-3.09,-3.10
380.33,1.27,4.34,1.26,4.34,-4.34,-4.09,-3.03,-3.07,-3.08,-3.08
384.13,1.27,4.33,1.26,4.32,-4.32,-4.07,-3.04,-3.05,-3.07,-3.07
387.97,1.23,4.28,1.24,4.29,-4.29,-4.06,-3.06,-3.07,-3.05,-3.06
391.85,1.23,4.27,1.22,4.26,-4.26,-4.04,-3.08,-3.03,-3.04,-3.05
395.77,1.19,4.21,1.20,4.23,-4.23,-4.02,-3.10,-3.04,-3.03,-3.03
399.73,1.18,4.19,1.17,4.19,-4.19,-4.00,-3.12,-3.01,-3.02,-3.02
403.72,1.14,4.14,1.14,4.15,-4.15,-3.98,-3.15,-3.01,-3.01,-3.01
407.76,1.10,4.09,1.10,4.10,-4.10,-3.96,-3.17,-3.00,-3.00,-3.00
411.84,1.07,4.05,1.07,4.05,-4.05,-3.93,-3.20,-2.98,-2.99,-2.99
415.96,1.03,4.00,1.03,4.00,-4.00,-3.90,-3.23,-2.97,-2.98,-2.98
420.12,0.99,3.95,0.99,3.95,-3.95,-3.88,-3.26,-2.96,-2.96,-2.97
424.32,0.94,3.89,0.94,3.90,-3.90,-3.85,-3.29,-2.96,-2.95,-2.96
428.56,0.90,3.84,0.90,3.85,-3.85,-3.82,-3.31,-2.95,-2.94,-2.95
