frequency,raw,error,smoothed,error_smoothed,equalization,parametric_eq,fixed_band_eq,equalized_raw,equalized_smoothed,target
20.00,0.10,-8.49,0.16,-8.43,8.43,8.26,3.77,8.53,8.59,8.59
20.20,0.13,-8.44,0.16,-8.41,8.41,8.26,3.87,8.55,8.58,8.58
20.40,0.16,-8.40,0.17,-8.40,8.40,8.27,3.98,8.56,8.57,8.56
20.61,0.19,-8.37,0.17,-8.39,8.39,8.27,4.09,8.58,8.56,8.56
20.81,0.21,-8.33,0.18,-8.37,8.37,8.28,4.20,8.58,8.55,8.54
21.02,0.24,-8.30,0.18,-8.36,8.36,8.28,4.32,8.60,8.54,8.54
21.23,0.23,-8.30,0.19,-8.35,8.35,8.28,4.44,8.58,8.53,8.53
21.44,0.22,-8.32,0.19,-8.33,8.33,8.28,4.57,8.55,8.53,8.54
21.66,0.21,-8.32,0.20,-8.32,8.32,8.28,4.69,8.53,8.52,8.53
21.87,0.20,-8.32,0.20,-8.31,8.31,8.29,4.83,8.51,8.51,8.52
22.09,0.20,-8.31,0.20,-8.30,8.30,8.29,4.96,8.50,8.51,8.51
22.31,0.20,-8.31,0.21,-8.29,8.29,8.29,5.10,8.49,8.50,8.51
22.54,0.20,-8.29,0.20,-8.29,8.29,8.29,5.24,8.49,8.50,8.50
22.76,0.20,-8.29,0.20,-8.29,8.29,8.28,5.39,8.49,8.49,8.49
22.99,0.20,-8.28,0.20,-8.28,8.28,8.28,5.54,8.49,8.49,8.48
23.22,0.20,-8.27,0.20,-8.28,8.28,8.28,5.69,8.48,8.48,8.47
23.45,0.20,-8.28,0.21,-8.27,8.27,8.28,5.85,8.47,8.48,8.48
23.69,0.20,-8.27,0.22,-8.26,8.26,8.28,6.01,8.46,8.48,8.47
23.92,0.20,-8.27,0.23,-8.25,8.25,8.27,6.18,8.45,8.48,8.47
24.16,0.22,-8.26,0.24,-8.24,8.24,8.27,6.35,8.46,8.48,8.48
24.40,0.24,-8.24,0.25,-8.23,8.23,8.26,6.52,8.47,8.48,8.48
24.65,0.27,-8.21,0.26,-8.22,8.22,8.26,6.70,8.49,8.48,8.48
24.89,0.29,-8.19,0.27,-8.21,8.21,8.25,6.88,8.50,8.48,8.48
25.14,0.30,-8.18,0.28,-8.20,8.20,8.25,7.06,8.50,8.48,8.48
25.39,0.30,-8.18,0.28,-8.20,8.20,8.24,7.24,8.50,8.48,8.48
25.65,0.30,-8.18,0.29,-8.19,8.19,8.24,7.43,8.49,8.48,8.48
25.91,0.30,-8.18,0.30,-8.19,8.19,8.23,7.62,8.49,8.48,8.48
26.16,0.30,-8.19,0.30,-8.18,8.18,8.22,7.81,8.48,8.48,8.49
26.43,0.30,-8.19,0.31,-8.18,8.18,8.22,8.00,8.48,8.49,8.49
26.69,0.30,-8.19,0.31,-8.18,8.18,8.21,8.19,8.48,8.49,8.49
26.96,0.30,-8.18,0.31,-8.18,8.18,8.20,8.38,8.48,8.48,8.49
27.23,0.30,-8.18,0.30,-8.18,8.18,8.19,8.57,8.48,8.48,8.48
27.50,0.30,-8.18,0.30,-8.18,8.18,8.19,8.75,8.48,8.48,8.48
27.77,0.30,-8.19,0.30,-8.18,8.18,8.18,8.93,8.48,8.48,8.49
28.05,0.30,-8.18,0.30,-8.18,8.18,8.17,9.11,8.49,8.48,8.49
28.33,0.30,-8.17,0.29,-8.19,8.19,8.16,9.28,8.49,8.48,8.47
28.62,0.30,-8.17,0.29,-8.19,8.19,8.15,9.44,8.49,8.48,8.47
28.90,0.30,-8.18,0.29,-8.19,8.19,8.14,9.59,8.49,8.48,8.48
29.19,0.30,-8.17,0.29,-8.18,8.18,8.13,9.73,8.48,8.47,8.47
29.48,0.30,-8.17,0.30,-8.17,8.17,8.12,9.86,8.47,8.47,8.47
29.78,0.30,-8.17,0.31,-8.15,8.15,8.11,9.97,8.45,8.46,8.47
30.08,0.30,-8.17,0.32,-8.14,8.14,8.10,10.07,8.44,8.46,8.47
30.38,0.30,-8.16,0.33,-8.12,8.12,8.08,10.15,8.42,8.45,8.46
30.68,0.30,-8.15,0.34,-8.10,8.10,8.07,10.22,8.40,8.45,8.45
30.99,0.30,-8.14,0.36,-8.08,8.08,8.06,10.27,8.38,8.44,8.44
31.30,0.35,-8.08,0.37,-8.07,8.07,8.05,10.30,8.42,8.43,8.43
31.61,0.41,-8.01,0.38,-8.05,8.05,8.04,10.31,8.46,8.42,8.42
31.93,0.47,-7.94,0.39,-8.03,8.03,8.02,10.30,8.50,8.42,8.41
32.24,0.46,-7.94,0.40,-8.01,8.01,8.01,10.27,8.47,8.41,8.41
32.57,0.43,-7.96,0.40,-8.00,8.00,7.99,10.23,8.43,8.40,8.39
32.89,0.41,-7.97,0.41,-7.98,7.98,7.98,10.17,8.39,8.39,8.39
33.22,0.40,-7.98,0.42,-7.97,7.97,7.96,10.10,8.37,8.39,8.38
33.55,0.40,-7.97,0.42,-7.96,7.96,7.95,10.02,8.36,8.38,8.38
33.89,0.40,-7.98,0.42,-7.96,7.96,7.93,9.92,8.36,8.37,8.38
34.23,0.40,-7.96,0.41,-7.96,7.96,7.92,9.81,8.36,8.37,8.36
34.57,0.40,-7.96,0.41,-7.95,7.95,7.90,9.69,8.36,8.36,8.36
34.92,0.40,-7.95,0.40,-7.95,7.95,7.88,9.57,8.35,8.35,8.35
35.27,0.40,-7.95,0.40,-7.95,7.95,7.87,9.43,8.35,8.35,8.36
35.62,0.40,-7.94,0.40,-7.94,7.94,7.85,9.30,8.34,8.34,8.34
35.97,0.40,-7.93,0.40,-7.92,7.92,7.83,9.16,8.32,8.32,8.33
36.33,0.40,-7.91,0.41,-7.90,7.90,7.81,9.02,8.30,8.31,8.31
36.70,0.40,-7.90,0.42,-7.87,7.87,7.79,8.87,8.27,8.29,8.30
37.06,0.40,-7.88,0.43,-7.84,7.84,7.77,8.73,8.24,8.27,8.28
37.43,0.43,-7.82,0.44,-7.81,7.81,7.75,8.59,8.24,8.25,8.25
37.81,0.45,-7.78,0.45,-7.78,7.78,7.73,8.45,8.23,8.23,8.23
38.19,0.47,-7.73,0.46,-7.74,7.74,7.70,8.31,8.21,8.20,8.20
38.57,0.48,-7.69,0.47,-7.71,7.71,7.68,8.17,8.19,8.17,8.18
38.95,0.50,-7.64,0.48,-7.67,7.67,7.66,8.04,8.17,8.15,8.15
39.34,0.50,-7.61,0.48,-7.63,7.63,7.63,7.91,8.13,8.12,8.11
39.74,0.50,-7.59,0.49,-7.60,7.60,7.61,7.79,8.10,8.09,8.09
40.14,0.50,-7.55,0.50,-7.56,7.56,7.58,7.67,8.06,8.06,8.06
40.54,0.50,-7.52,0.50,-7.52,7.52,7.55,7.55,8.03,8.03,8.02
40.94,0.50,-7.49,0.51,-7.49,7.49,7.52,7.44,7.99,8.00,7.99
41.35,0.50,-7.47,0.51,-7.46,7.46,7.50,7.33,7.96,7.97,7.97
41.76,0.50,-7.43,0.51,-7.43,7.43,7.47,7.23,7.94,7.94,7.93
42.18,0.50,-7.41,0.50,-7.41,7.41,7.44,7.13,7.91,7.91,7.91
42.60,0.50,-7.38,0.50,-7.38,7.38,7.40,7.04,7.88,7.88,7.88
43.03,0.50,-7.35,0.50,-7.35,7.35,7.37,6.96,7.85,7.85,7.85
43.46,0.50,-7.32,0.50,-7.32,7.32,7.34,6.87,7.82,7.82,7.82
43.90,0.50,-7.29,0.50,-7.29,7.29,7.31,6.80,7.79,7.79,7.79
44.33,0.50,-7.26,0.50,-7.26,7.26,7.27,6.73,7.76,7.76,7.76
44.78,0.50,-7.22,0.50,-7.22,7.22,7.23,6.66,7.72,7.72,7.72
45.23,0.50,-7.20,0.50,-7.19,7.19,7.20,6.60,7.69,7.69,7.70
45.68,0.50,-7.16,0.50,-7.15,7.15,7.16,6.54,7.65,7.65,7.66
46.13,0.50,-7.11,0.50,-7.11,7.11,7.12,6.49,7.61,7.61,7.61
46.60,0.50,-7.07,0.50,-7.07,7.07,7.08,6.45,7.57,7.57,7.57
47.06,0.50,-7.03,0.50,-7.03,7.03,7.04,6.41,7.53,7.53,7.53
47.53,0.50,-6.99,0.50,-6.98,6.98,7.00,6.37,7.48,7.48,7.49
48.01,0.50,-6.93,0.50,-6.93,6.93,6.96,6.34,7.43,7.43,7.44
48.49,0.50,-6.88,0.50,-6.89,6.89,6.91,6.31,7.39,7.39,7.38
48.97,0.50,-6.83,0.50,-6.84,6.84,6.87,6.28,7.34,7.34,7.33
49.46,0.50,-6.79,0.50,-6.79,6.79,6.82,6.26,7.29,7.29,7.29
49.96,0.50,-6.72,0.50,-6.74,6.74,6.77,6.25,7.24,7.24,7.22
50.46,0.50,-6.67,0.50,-6.69,6.69,6.73,6.23,7.19,7.19,7.17
50.96,0.50,-6.63,0.49,-6.64,6.64,6.68,6.22,7.14,7.13,7.13
51.47,0.50,-6.58,0.49,-6.60,6.60,6.63,6.21,7.10,7.08,7.09
51.99,0.50,-6.53,0.49,-6.54,6.54,6.58,6.21,7.04,7.03,7.03
52.51,0.50,-6.48,0.50,-6.48,6.48,6.52,6.20,6.98,6.98,6.98
53.03,0.50,-6.44,0.51,-6.42,6.42,6.47,6.20,6.92,6.93,6.94
53.56,0.50,-6.39,0.52,-6.35,6.35,6.42,6.20,6.85,6.88,6.89
54.10,0.50,-6.33,0.53,-6.29,6.29,6.36,6.19,6.79,6.83,6.83
54.64,0.50,-6.28,0.54,-6.24,6.24,6.31,6.19,6.74,6.78,6.78
55.18,0.50,-6.21,0.54,-6.19,6.19,6.25,6.19,6.69,6.73,6.71
55.74,0.51,-6.15,0.54,-6.14,6.14,6.19,6.19,6.65,6.68,6.66
56.29,0.56,-6.06,0.55,-6.08,6.08,6.13,6.18,6.64,6.63,6.62
56.86,0.65,-5.92,0.56,-6.02,6.02,6.07,6.18,6.67,6.58,6.57
57.42,0.67,-5.84,0.57,-5.96,5.96,6.01,6.17,6.63,6.53,6.51
58.00,0.68,-5.79,0.57,-5.90,5.90,5.95,6.15,6.58,6.47,6.47
58.58,0.58,-5.85,0.58,-5.84,5.84,5.89,6.14,6.42,6.42,6.43
59.16,0.50,-5.88,0.59,-5.78,5.78,5.82,6.12,6.28,6.36,6.39
59.76,0.50,-5.83,0.59,-5.72,5.72,5.76,6.09,6.22,6.31,6.34
60.35,0.52,-5.74,0.59,-5.65,5.65,5.69,6.06,6.18,6.25,6.26
60.96,0.55,-5.65,0.60,-5.59,5.59,5.63,6.03,6.14,6.19,6.20
61.57,0.62,-5.51,0.60,-5.53,5.53,5.56,5.99,6.15,6.13,6.13
62.18,0.66,-5.39,0.59,-5.47,5.47,5.50,5.94,6.13,6.06,6.05
62.80,0.61,-5.37,0.58,-5.41,5.41,5.43,5.89,6.02,6.00,5.98
63.43,0.60,-5.31,0.58,-5.35,5.35,5.36,5.84,5.95,5.93,5.91
64.07,0.60,-5.25,0.58,-5.28,5.28,5.29,5.77,5.88,5.86,5.85
64.71,0.60,-5.18,0.59,-5.21,5.21,5.22,5.70,5.81,5.79,5.78
65.35,0.60,-5.12,0.60,-5.12,5.12,5.15,5.63,5.72,5.72,5.72
66.01,0.60,-5.05,0.61,-5.04,5.04,5.08,5.55,5.64,5.65,5.65
66.67,0.60,-5.00,0.61,-4.97,4.97,5.01,5.47,5.57,5.58,5.60
67.33,0.60,-4.91,0.62,-4.90,4.90,4.93,5.38,5.50,5.51,5.51
68.01,0.60,-4.85,0.62,-4.82,4.82,4.86,5.28,5.42,5.44,5.45
68.69,0.54,-4.83,0.62,-4.75,4.75,4.79,5.19,5.29,5.37,5.37
69.37,0.58,-4.73,0.63,-4.67,4.67,4.72,5.09,5.25,5.30,5.31
70.07,0.69,-4.54,0.65,-4.58,4.58,4.64,4.98,5.27,5.23,5.23
70.77,0.70,-4.46,0.66,-4.50,4.50,4.57,4.88,5.20,5.15,5.16
71.48,0.70,-4.39,0.67,-4.41,4.41,4.49,4.77,5.11,5.08,5.09
72.19,0.70,-4.30,0.68,-4.33,4.33,4.42,4.66,5.03,5.01,5.00
72.91,0.70,-4.23,0.69,-4.25,4.25,4.34,4.54,4.95,4.93,4.93
73.64,0.70,-4.15,0.69,-4.17,4.17,4.27,4.43,4.87,4.86,4.85
74.38,0.70,-4.08,0.70,-4.09,4.09,4.19,4.32,4.79,4.79,4.79
75.12,0.70,-4.01,0.71,-4.01,4.01,4.11,4.20,4.71,4.72,4.71
75.87,0.70,-3.95,0.71,-3.94,3.94,4.04,4.09,4.64,4.65,4.65
76.63,0.70,-3.87,0.71,-3.87,3.87,3.96,3.98,4.57,4.58,4.57
77.40,0.70,-3.81,0.71,-3.81,3.81,3.88,3.86,4.51,4.51,4.51
78.17,0.70,-3.74,0.70,-3.74,3.74,3.80,3.75,4.45,4.45,4.44
78.95,0.70,-3.68,0.70,-3.68,3.68,3.73,3.64,4.38,4.38,4.38
79.74,0.70,-3.62,0.70,-3.61,3.61,3.65,3.53,4.31,4.31,4.32
80.54,0.70,-3.55,0.70,-3.55,3.55,3.57,3.42,4.25,4.25,4.25
81.35,0.70,-3.48,0.70,-3.48,3.48,3.49,3.31,4.18,4.18,4.18
82.16,0.70,-3.42,0.70,-3.41,3.41,3.42,3.21,4.11,4.11,4.12
82.98,0.70,-3.35,0.70,-3.34,3.34,3.34,3.10,4.04,4.04,4.05
83.81,0.70,-3.28,0.70,-3.27,3.27,3.26,3.00,3.97,3.98,3.98
84.65,0.70,-3.20,0.70,-3.20,3.20,3.18,2.90,3.90,3.90,3.91
85.50,0.70,-3.12,0.70,-3.13,3.13,3.10,2.80,3.83,3.83,3.82
86.35,0.70,-3.06,0.70,-3.06,3.06,3.02,2.70,3.76,3.76,3.76
87.22,0.70,-2.99,0.71,-2.98,2.98,2.95,2.61,3.68,3.69,3.69
88.09,0.71,-2.90,0.71,-2.91,2.91,2.87,2.51,3.62,3.62,3.61
88.97,0.71,-2.84,0.71,-2.83,2.83,2.79,2.42,3.54,3.54,3.55
89.86,0.71,-2.75,0.71,-2.75,2.75,2.71,2.33,3.46,3.46,3.46
90.76,0.71,-2.68,0.71,-2.67,2.67,2.63,2.24,3.38,3.38,3.39
91.66,0.71,-2.59,0.71,-2.59,2.59,2.56,2.16,3.30,3.30,3.30
92.58,0.71,-2.52,0.71,-2.51,2.51,2.48,2.07,3.22,3.22,3.23
93.51,0.71,-2.44,0.71,-2.42,2.42,2.40,1.99,3.14,3.14,3.15
94.44,0.71,-2.35,0.71,-2.34,2.34,2.32,1.91,3.05,3.05,3.06
95.39,0.71,-2.26,0.71,-2.26,2.26,2.24,1.83,2.97,2.96,2.97
96.34,0.71,-2.17,0.70,-2.17,2.17,2.17,1.75,2.88,2.87,2.88
97.30,0.70,-2.08,0.70,-2.09,2.09,2.09,1.67,2.79,2.78,2.79
98.28,0.69,-2.00,0.69,-2.00,2.00,2.01,1.60,2.70,2.69,2.69
99.26,0.68,-1.91,0.67,-1.92,1.92,1.93,1.52,2.60,2.60,2.59
100.25,0.66,-1.83,0.66,-1.84,1.84,1.86,1.45,2.50,2.50,2.49
101.25,0.64,-1.77,0.65,-1.76,1.76,1.78,1.38,2.40,2.41,2.41
102.27,0.63,-1.68,0.63,-1.69,1.69,1.70,1.31,2.32,2.31,2.31
103.29,0.62,-1.60,0.61,-1.61,1.61,1.63,1.24,2.23,2.22,2.22
104.32,0.60,-1.53,0.59,-1.54,1.54,1.55,1.17,2.14,2.13,2.13
105.37,0.57,-1.47,0.57,-1.47,1.47,1.47,1.11,2.04,2.03,2.04
106.42,0.55,-1.39,0.54,-1.39,1.39,1.40,1.04,1.95,1.94,1.94
107.48,0.52,-1.31,0.52,-1.32,1.32,1.32,0.98,1.84,1.85,1.84
108.56,0.50,-1.26,0.50,-1.25,1.25,1.24,0.92,1.75,1.75,1.76
109.64,0.48,-1.18,0.49,-1.18,1.18,1.17,0.86,1.66,1.66,1.66
110.74,0.46,-1.11,0.47,-1.10,1.10,1.09,0.79,1.56,1.57,1.57
111.85,0.44,-1.04,0.46,-1.03,1.03,1.02,0.73,1.47,1.48,1.48
112.97,0.43,-0.97,0.45,-0.95,0.95,0.94,0.68,1.38,1.40,1.40
114.10,0.43,-0.89,0.44,-0.87,0.87,0.87,0.62,1.30,1.31,1.32
115.24,0.43,-0.79,0.43,-0.79,0.79,0.79,0.56,1.22,1.23,1.22
116.39,0.43,-0.70,0.43,-0.71,0.71,0.72,0.51,1.14,1.14,1.13
117.55,0.43,-0.63,0.43,-0.63,0.63,0.64,0.45,1.06,1.06,1.06
118.73,0.44,-0.52,0.44,-0.55,0.55,0.57,0.40,0.99,0.98,0.96
119.92,0.44,-0.45,0.44,-0.46,0.46,0.50,0.34,0.90,0.90,0.89
121.12,0.45,-0.38,0.45,-0.38,0.38,0.42,0.29,0.83,0.83,0.83
122.33,0.46,-0.29,0.46,-0.30,0.30,0.35,0.24,0.76,0.75,0.75
123.55,0.47,-0.21,0.46,-0.21,0.21,0.28,0.19,0.68,0.67,0.68
124.79,0.47,-0.14,0.47,-0.13,0.13,0.20,0.13,0.60,0.60,0.61
126.03,0.48,-0.06,0.48,-0.05,0.05,0.13,0.08,0.53,0.53,0.54
127.29,0.49,0.03,0.49,0.03,-0.03,0.06,0.03,0.46,0.45,0.46
128.57,0.49,0.11,0.49,0.11,-0.11,-0.01,-0.02,0.38,0.38,0.38
129.85,0.50,0.19,0.50,0.19,-0.19,-0.09,-0.07,0.31,0.31,0.31
131.15,0.50,0.27,0.50,0.27,-0.27,-0.16,-0.11,0.23,0.24,0.23
132.46,0.51,0.35,0.51,0.34,-0.34,-0.23,-0.16,0.17,0.17,0.16
133.79,0.51,0.42,0.51,0.42,-0.42,-0.30,-0.21,0.09,0.09,0.09
135.12,0.52,0.50,0.52,0.50,-0.50,-0.37,-0.26,0.03,0.02,0.02
136.48,0.52,0.56,0.52,0.57,-0.57,-0.44,-0.31,-0.05,-0.05,-0.04
137.84,0.52,0.63,0.52,0.64,-0.64,-0.51,-0.36,-0.12,-0.12,-0.11
139.22,0.52,0.72,0.53,0.72,-0.72,-0.58,-0.40,-0.20,-0.19,-0.20
140.61,0.53,0.79,0.53,0.79,-0.79,-0.65,-0.45,-0.26,-0.26,-0.26
142.02,0.53,0.86,0.53,0.86,-0.86,-0.72,-0.50,-0.33,-0.33,-0.33
143.44,0.53,0.94,0.53,0.93,-0.93,-0.79,-0.55,-0.40,-0.40,-0.41
144.87,0.53,1.00,0.53,0.99,-0.99,-0.86,-0.60,-0.46,-0.47,-0.47
146.32,0.53,1.06,0.53,1.07,-1.07,-0.93,-0.65,-0.54,-0.53,-0.53
147.78,0.53,1.13,0.54,1.14,-1.14,-1.00,-0.70,-0.61,-0.60,-0.60
149.26,0.53,1.20,0.54,1.21,-1.21,-1.06,-0.75,-0.68,-0.67,-0.67
150.75,0.53,1.28,0.54,1.28,-1.28,-1.13,-0.80,-0.75,-0.74,-0.75
152.26,0.53,1.34,0.54,1.35,-1.35,-1.20,-0.86,-0.82,-0.81,-0.81
153.78,0.53,1.40,0.54,1.41,-1.41,-1.26,-0.91,-0.88,-0.87,-0.87
155.32,0.53,1.47,0.53,1.47,-1.47,-1.33,-0.96,-0.94,-0.94,-0.93
156.88,0.53,1.54,0.52,1.54,-1.54,-1.39,-1.02,-1.00,-1.01,-1.01
158.44,0.53,1.61,0.51,1.60,-1.60,-1.46,-1.07,-1.06,-1.08,-1.08
160.03,0.57,1.72,0.50,1.65,-1.65,-1.52,-1.13,-1.08,-1.15,-1.15
161.63,0.55,1.77,0.49,1.71,-1.71,-1.59,-1.19,-1.16,-1.22,-1.22
163.24,0.47,1.77,0.48,1.77,-1.77,-1.65,-1.25,-1.30,-1.29,-1.30
164.88,0.42,1.78,0.47,1.83,-1.83,-1.72,-1.31,-1.41,-1.36,-1.36
166.53,0.42,1.86,0.46,1.89,-1.89,-1.78,-1.37,-1.47,-1.43,-1.44
168.19,0.41,1.91,0.44,1.94,-1.94,-1.84,-1.43,-1.53,-1.50,-1.50
169.87,0.40,1.97,0.42,1.99,-1.99,-1.90,-1.50,-1.59,-1.57,-1.57
171.57,0.40,2.04,0.40,2.04,-2.04,-1.97,-1.56,-1.64,-1.64,-1.64
173.29,0.39,2.10,0.38,2.09,-2.09,-2.03,-1.63,-1.70,-1.71,-1.71
175.02,0.39,2.16,0.37,2.14,-2.14,-2.09,-1.70,-1.75,-1.77,-1.77
176.77,0.38,2.22,0.35,2.19,-2.19,-2.15,-1.77,-1.81,-1.84,-1.84
178.54,0.38,2.29,0.34,2.24,-2.24,-2.21,-1.84,-1.86,-1.90,-1.91
180.32,0.38,2.35,0.34,2.30,-2.30,-2.26,-1.91,-1.92,-1.96,-1.97
182.13,0.34,2.36,0.34,2.36,-2.36,-2.32,-1.99,-2.02,-2.02,-2.02
183.95,0.24,2.32,0.34,2.42,-2.42,-2.38,-2.06,-2.18,-2.08,-2.08
185.79,0.28,2.42,0.34,2.47,-2.47,-2.44,-2.14,-2.19,-2.14,-2.14
187.65,0.32,2.51,0.34,2.53,-2.53,-2.49,-2.22,-2.21,-2.19,-2.19
189.52,0.34,2.59,0.35,2.59,-2.59,-2.55,-2.30,-2.25,-2.24,-2.25
191.42,0.35,2.64,0.35,2.65,-2.65,-2.60,-2.38,-2.30,-2.30,-2.28
193.33,0.37,2.71,0.36,2.71,-2.71,-2.65,-2.46,-2.34,-2.35,-2.34
195.27,0.38,2.78,0.37,2.77,-2.77,-2.71,-2.55,-2.39,-2.40,-2.40
197.22,0.40,2.85,0.38,2.82,-2.82,-2.76,-2.63,-2.42,-2.45,-2.45
199.19,0.41,2.91,0.39,2.88,-2.88,-2.81,-2.72,-2.47,-2.49,-2.50
201.18,0.42,2.97,0.40,2.94,-2.94,-2.86,-2.80,-2.52,-2.54,-2.55
203.19,0.42,3.01,0.41,3.00,-3.00,-2.91,-2.89,-2.58,-2.59,-2.59
205.23,0.42,3.05,0.42,3.06,-3.06,-2.96,-2.97,-2.64,-2.64,-2.63
207.28,0.42,3.09,0.42,3.10,-3.10,-3.01,-3.06,-2.68,-2.68,-2.67
209.35,0.42,3.14,0.42,3.14,-3.14,-3.05,-3.15,-2.72,-2.73,-2.72
211.44,0.42,3.19,0.42,3.19,-3.19,-3.10,-3.23,-2.77,-2.77,-2.77
213.56,0.42,3.23,0.42,3.24,-3.24,-3.14,-3.32,-2.82,-2.81,-2.81
215.69,0.41,3.26,0.42,3.28,-3.28,-3.19,-3.40,-2.87,-2.85,-2.85
217.85,0.41,3.30,0.42,3.31,-3.31,-3.23,-3.48,-2.90,-2.89,-2.89
220.03,0.40,3.34,0.41,3.34,-3.34,-3.27,-3.56,-2.94,-2.93,-2.94
222.23,0.40,3.38,0.41,3.37,-3.37,-3.31,-3.64,-2.97,-2.97,-2.98
224.45,0.40,3.41,0.40,3.40,-3.40,-3.35,-3.71,-3.00,-3.00,-3.01
226.70,0.40,3.44,0.40,3.43,-3.43,-3.39,-3.78,-3.03,-3.03,-3.04
228.96,0.41,3.47,0.39,3.45,-3.45,-3.43,-3.85,-3.04,-3.06,-3.06
231.25,0.46,3.54,0.39,3.47,-3.47,-3.47,-3.91,-3.01,-3.08,-3.08
233.57,0.42,3.53,0.39,3.50,-3.50,-3.50,-3.97,-3.08,-3.11,-3.11
235.90,0.34,3.47,0.39,3.52,-3.52,-3.53,-4.02,-3.18,-3.13,-3.13
238.26,0.35,3.50,0.40,3.54,-3.54,-3.57,-4.07,-3.19,-3.14,-3.15
240.64,0.37,3.52,0.40,3.56,-3.56,-3.60,-4.11,-3.19,-3.16,-3.15
243.05,0.38,3.55,0.41,3.58,-3.58,-3.63,-4.15,-3.20,-3.17,-3.17
245.48,0.40,3.58,0.42,3.60,-3.60,-3.66,-4.18,-3.20,-3.18,-3.18
247.93,0.43,3.63,0.43,3.62,-3.62,-3.69,-4.20,-3.19,-3.19,-3.20
250.41,0.45,3.65,0.44,3.64,-3.64,-3.71,-4.22,-3.19,-3.20,-3.20
252.92,0.46,3.66,0.44,3.66,-3.66,-3.74,-4.24,-3.20,-3.21,-3.20
255.45,0.48,3.71,0.45,3.68,-3.68,-3.76,-4.24,-3.20,-3.23,-3.23
258.00,0.49,3.72,0.47,3.71,-3.71,-3.79,-4.24,-3.22,-3.24,-3.23
260.58,0.49,3.73,0.48,3.73,-3.73,-3.81,-4.24,-3.24,-3.25,-3.24
263.19,0.49,3.75,0.49,3.76,-3.76,-3.83,-4.23,-3.27,-3.27,-3.26
265.82,0.49,3.77,0.49,3.77,-3.77,-3.85,-4.21,-3.28,-3.28,-3.28
268.48,0.49,3.78,0.49,3.79,-3.79,-3.86,-4.19,-3.30,-3.30,-3.29
271.16,0.48,3.79,0.49,3.80,-3.80,-3.88,-4.16,-3.32,-3.31,-3.31
273.87,0.48,3.81,0.48,3.81,-3.81,-3.89,-4.13,-3.33,-3.33,-3.32
276.61,0.48,3.83,0.48,3.82,-3.82,-3.91,-4.10,-3.34,-3.34,-3.35
279.38,0.49,3.87,0.47,3.83,-3.83,-3.92,-4.06,-3.34,-3.36,-3.38
282.17,0.51,3.89,0.47,3.84,-3.84,-3.93,-4.02,-3.32,-3.37,-3.38
284.99,0.45,3.84,0.46,3.84,-3.84,-3.94,-3.98,-3.39,-3.38,-3.39
287.84,0.39,3.78,0.45,3.84,-3.84,-3.95,-3.94,-3.45,-3.39,-3.39
290.72,0.41,3.82,0.44,3.84,-3.84,-3.96,-3.89,-3.42,-3.39,-3.40
293.63,0.42,3.82,0.43,3.83,-3.83,-3.96,-3.85,-3.41,-3.40,-3.40
296.57,0.43,3.83,0.43,3.84,-3.84,-3.97,-3.80,-3.41,-3.41,-3.40
299.53,0.44,3.85,0.43,3.84,-3.84,-3.97,-3.75,-3.40,-3.41,-3.41
302.53,0.45,3.86,0.42,3.84,-3.84,-3.97,-3.71,-3.39,-3.42,-3.41
305.55,0.46,3.88,0.42,3.84,-3.84,-3.97,-3.66,-3.38,-3.42,-3.42
308.61,0.39,3.80,0.41,3.83,-3.83,-3.97,-3.61,-3.44,-3.42,-3.41
311.69,0.34,3.77,0.40,3.83,-3.83,-3.97,-3.57,-3.49,-3.43,-3.43
314.81,0.37,3.80,0.39,3.82,-3.82,-3.96,-3.52,-3.45,-3.43,-3.43
317.96,0.39,3.83,0.38,3.82,-3.82,-3.96,-3.48,-3.43,-3.44,-3.44
321.14,0.40,3.84,0.37,3.81,-3.81,-3.95,-3.44,-3.41,-3.44,-3.44
324.35,0.42,3.87,0.36,3.81,-3.81,-3.95,-3.40,-3.38,-3.44,-3.45
327.59,0.42,3.86,0.35,3.80,-3.80,-3.94,-3.36,-3.38,-3.45,-3.44
330.87,0.32,3.77,0.34,3.79,-3.79,-3.93,-3.33,-3.47,-3.45,-3.45
334.18,0.28,3.74,0.33,3.78,-3.78,-3.92,-3.29,-3.50,-3.45,-3.46
337.52,0.28,3.74,0.32,3.77,-3.77,-3.91,-3.26,-3.49,-3.46,-3.46
340.90,0.28,3.74,0.31,3.76,-3.76,-3.90,-3.24,-3.48,-3.46,-3.46
344.30,0.28,3.74,0.30,3.75,-3.75,-3.88,-3.21,-3.47,-3.46,-3.46
347.75,0.28,3.73,0.28,3.74,-3.74,-3.87,-3.19,-3.46,-3.45,-3.45
351.23,0.28,3.75,0.27,3.72,-3.72,-3.85,-3.16,-3.44,-3.45,-3.47
354.74,0.29,3.74,0.26,3.71,-3.71,-3.83,-3.15,-3.42,-3.45,-3.45
358.28,0.30,3.75,0.25,3.70,-3.70,-3.82,-3.13,-3.39,-3.45,-3.45
361.87,0.26,3.71,0.24,3.69,-3.69,-3.80,-3.12,-3.43,-3.45,-3.45
365.49,0.21,3.65,0.25,3.69,-3.69,-3.78,-3.10,-3.48,-3.44,-3.44
369.14,0.20,3.64,0.25,3.69,-3.69,-3.76,-3.10,-3.49,-3.44,-3.44
372.83,0.21,3.64,0.25,3.68,-3.68,-3.74,-3.09,-3.47,-3.44,-3.43
376.56,0.22,3.65,0.24,3.67,-3.67,-3.72,-3.09,-3.45,-3.44,-3.43
380.33,0.23,3.67,0.23,3.67,-3.67,-3.69,-3.08,-3.44,-3.44,-3.44
384.13,0.23,3.66,0.22,3.66,-3.66,-3.67,-3.08,-3.43,-3.44,-3.43
387.97,0.24,3.67,0.22,3.66,-3.66,-3.65,-3.09,-3.42,-3.44,-3.43
391.85,0.24,3.68,0.21,3.65,-3.65,-3.62,-3.09,-3.41,-3.44,-3.43
395.77,0.24,3.69,0.20,3.65,-3.65,-3.60,-3.10,-3.41,-3.45,-3.45
399.73,0.23,3.68,0.18,3.64,-3.64,-3.57,-3.11,-3.41,-3.46,-3.45
403.72,0.17,3.61,0.17,3.63,-3.63,-3.54,-3.12,-3.46,-3.46,-3.44
407.76,0.14,3.61,0.16,3.62,-3.62,-3.52,-3.13,-3.48,-3.47,-3.46
411.84,0.13,3.60,0.14,3.61,-3.61,-3.49,-3.14,-3.48,-3.47,-3.47
415.96,0.13,3.60,0.13,3.60,-3.60,-3.46,-3.15,-3.47,-3.47,-3.47
420.12,0.13,3.61,0.12,3.59,-3.59,-3.43,-3.17,-3.46,-3.47,-3.48
424.32,0.14,3.61,0.12,3.58,-3.58,-3.40,-3.18,-3.44,-3.46,-3.47
428.56,0.09,3.55,0.12,3.57,-3.57,-3.37,-3.20,-3.48,-3.45,-3.46
432.85,0.07,3.51,0.13,3.56,-3.56,-3.34,-3.21,-3.49,-3.43,-3.44
437.18,0.09,3.52,0.15,3.55,-3.55,-3.31,-3.22,-3.46,-3.41,-3.43
441.55,0.12,3.51,0.17,3.55,-3.55,-3.28,-3.24,-3.43,-3.37,-3.39
445.96,0.17,3.52,0.21,3.54,-3.54,-3.25,-3.25,-3.37,-3.34,-3.35
450.42,0.22,3.54,0.24,3.54,-3.54,-3.22,-3.26,-3.32,-3.30,-3.31
454.93,0.28,3.55,0.28,3.53,-3.53,-3.19,-3.28,-3.25,-3.25,-3.27
459.48,0.34,3.55,0.32,3.52,-3.52,-3.15,-3.29,-3.18,-3.20,-3.21
464.07,0.37,3.51,0.35,3.50,-3.50,-3.12,-3.29,-3.13,-3.15,-3.14
468.71,0.37,3.46,0.37,3.47,-3.47,-3.09,-3.30,-3.10,-3.09,-3.09
473.40,0.42,3.45,0.39,3.43,-3.43,-3.06,-3.30,-3.01,-3.04,-3.03
478.13,0.47,3.44,0.40,3.38,-3.38,-3.02,-3.30,-2.91,-2.99,-2.97
482.91,0.46,3.39,0.40,3.33,-3.33,-2.99,-3.30,-2.87,-2.94,-2.92
487.74,0.43,3.32,0.39,3.28,-3.28,-2.96,-3.29,-2.85,-2.89,-2.89
492.62,0.41,3.26,0.37,3.23,-3.23,-2.92,-3.28,-2.81,-2.85,-2.85
497.55,0.38,3.19,0.35,3.17,-3.17,-2.89,-3.27,-2.79,-2.82,-2.81
502.52,0.32,3.11,0.32,3.11,-3.11,-2.85,-3.26,-2.79,-2.79,-2.79
507.55,0.21,2.97,0.27,3.05,-3.05,-2.82,-3.24,-2.84,-2.77,-2.76
512.62,0.14,2.89,0.22,2.99,-2.99,-2.79,-3.22,-2.85,-2.76,-2.75
517.75,0.08,2.82,0.17,2.93,-2.93,-2.75,-3.19,-2.85,-2.76,-2.74
522.93,0.08,2.82,0.11,2.87,-2.87,-2.72,-3.17,-2.79,-2.77,-2.74
528.16,0.07,2.84,0.04,2.82,-2.82,-2.68,-3.14,-2.75,-2.78,-2.76
