frequency,raw,error,smoothed,error_smoothed,equalization,parametric_eq,fixed_band_eq,equalized_raw,equalized_smoothed,target
20.00,-17.28,-20.21,-17.29,-20.22,20.25,20.77,8.51,2.97,2.96,2.93
20.20,-17.22,-20.18,-17.22,-20.18,20.19,20.62,8.68,2.97,2.97,2.96
20.40,-17.15,-20.14,-17.14,-20.13,20.12,20.49,8.86,2.97,2.98,2.99
20.61,-17.05,-20.06,-17.05,-20.07,20.05,20.35,9.04,2.99,2.99,3.01
20.81,-16.94,-19.98,-16.95,-19.99,19.97,20.21,9.23,3.02,3.02,3.04
21.02,-16.83,-19.90,-16.83,-19.90,19.88,20.07,9.42,3.05,3.04,3.07
21.23,-16.72,-19.80,-16.72,-19.80,19.79,19.94,9.61,3.06,3.06,3.08
21.44,-16.61,-19.70,-16.61,-19.70,19.69,19.80,9.81,3.08,3.08,3.09
21.66,-16.48,-19.58,-16.48,-19.58,19.57,19.67,10.02,3.09,3.09,3.10
21.87,-16.35,-19.45,-16.35,-19.45,19.45,19.54,10.23,3.10,3.10,3.10
22.09,-16.22,-19.33,-16.22,-19.32,19.33,19.41,10.45,3.11,3.12,3.11
22.31,-16.08,-19.19,-16.09,-19.20,19.21,19.28,10.67,3.13,3.12,3.11
22.54,-15.97,-19.08,-15.98,-19.09,19.10,19.15,10.90,3.13,3.12,3.11
22.76,-15.87,-18.98,-15.87,-18.98,18.99,19.02,11.13,3.12,3.12,3.11
22.99,-15.78,-18.88,-15.78,-18.88,18.89,18.89,11.37,3.11,3.12,3.10
23.22,-15.67,-18.77,-15.69,-18.79,18.80,18.77,11.62,3.13,3.11,3.10
23.45,-15.61,-18.71,-15.60,-18.70,18.71,18.64,11.88,3.09,3.10,3.10
23.69,-15.51,-18.61,-15.52,-18.62,18.61,18.52,12.14,3.10,3.09,3.10
23.92,-15.44,-18.54,-15.44,-18.54,18.52,18.40,12.41,3.07,3.08,3.10
24.16,-15.33,-18.43,-15.33,-18.43,18.41,18.28,12.69,3.08,3.08,3.10
24.40,-15.22,-18.32,-15.22,-18.31,18.30,18.15,12.98,3.08,3.08,3.10
24.65,-15.08,-18.17,-15.09,-18.18,18.17,18.03,13.27,3.09,3.08,3.09
24.89,-14.96,-18.05,-14.96,-18.05,18.04,17.91,13.57,3.08,3.09,3.09
25.14,-14.82,-17.91,-14.82,-17.91,17.91,17.80,13.89,3.09,3.09,3.09
25.39,-14.67,-17.76,-14.68,-17.77,17.77,17.68,14.21,3.10,3.09,3.09
25.65,-14.54,-17.63,-14.54,-17.63,17.64,17.56,14.54,3.10,3.10,3.09
25.91,-14.41,-17.50,-14.41,-17.50,17.51,17.44,14.88,3.10,3.10,3.08
26.16,-14.30,-17.38,-14.29,-17.38,17.39,17.33,15.23,3.09,3.10,3.08
26.43,-14.17,-17.25,-14.18,-17.26,17.28,17.21,15.59,3.10,3.09,3.08
26.69,-14.08,-17.16,-14.08,-17.16,17.17,17.10,15.96,3.09,3.09,3.08
26.96,-13.99,-17.07,-13.99,-17.06,17.06,16.98,16.34,3.07,3.07,3.08
27.23,-13.89,-16.96,-13.90,-16.97,16.95,16.87,16.73,3.06,3.06,3.07
27.50,-13.79,-16.86,-13.79,-16.86,16.84,16.76,17.12,3.05,3.05,3.07
27.77,-13.69,-16.75,-13.68,-16.74,16.73,16.64,17.52,3.04,3.05,3.06
28.05,-13.56,-16.62,-13.56,-16.62,16.62,16.53,17.92,3.06,3.05,3.06
28.33,-13.44,-16.49,-13.44,-16.50,16.50,16.42,18.32,3.06,3.06,3.05
28.62,-13.32,-16.37,-13.32,-16.37,16.38,16.31,18.72,3.06,3.06,3.05
28.90,-13.21,-16.26,-13.21,-16.26,16.27,16.20,19.11,3.06,3.06,3.05
29.19,-13.10,-16.14,-13.11,-16.15,16.16,16.09,19.49,3.06,3.05,3.04
29.48,-13.01,-16.05,-13.00,-16.04,16.05,15.98,19.84,3.04,3.05,3.04
29.78,-12.91,-15.94,-12.91,-15.94,15.95,15.87,20.16,3.03,3.04,3.03
30.08,-12.80,-15.83,-12.82,-15.85,15.84,15.76,20.44,3.04,3.02,3.03
30.38,-12.73,-15.75,-12.73,-15.75,15.74,15.65,20.67,3.00,3.01,3.02
30.68,-12.63,-15.65,-12.63,-15.64,15.63,15.54,20.84,3.00,3.00,3.02
30.99,-12.52,-15.53,-12.52,-15.53,15.52,15.43,20.94,3.00,3.00,3.01
31.30,-12.39,-15.39,-12.40,-15.41,15.40,15.32,20.98,3.01,3.00,3.00
31.61,-12.28,-15.28,-12.28,-15.28,15.29,15.21,20.94,3.00,3.00,3.00
31.93,-12.17,-15.16,-12.17,-15.16,15.17,15.11,20.83,2.99,2.99,2.99
32.24,-12.06,-15.04,-12.06,-15.05,15.04,15.00,20.66,2.98,2.98,2.98
32.57,-11.95,-14.93,-11.94,-14.92,14.92,14.89,20.44,2.97,2.98,2.98
32.89,-11.82,-14.79,-11.83,-14.80,14.80,14.78,20.17,2.98,2.98,2.97
33.22,-11.71,-14.67,-11.72,-14.68,14.69,14.68,19.86,2.98,2.97,2.96
33.55,-11.61,-14.57,-11.61,-14.57,14.57,14.57,19.53,2.96,2.96,2.96
33.89,-11.52,-14.47,-11.51,-14.46,14.46,14.46,19.17,2.94,2.94,2.95
34.23,-11.41,-14.35,-11.41,-14.35,14.35,14.36,18.81,2.93,2.93,2.94
34.57,-11.30,-14.23,-11.30,-14.24,14.23,14.25,18.44,2.93,2.93,2.93
34.92,-11.19,-14.11,-11.20,-14.12,14.12,14.14,18.06,2.93,2.92,2.92
35.27,-11.10,-14.01,-11.10,-14.01,14.01,14.04,17.69,2.90,2.91,2.91
35.62,-11.00,-13.90,-11.00,-13.90,13.90,13.93,17.32,2.89,2.90,2.90
35.97,-10.89,-13.78,-10.89,-13.78,13.79,13.82,16.96,2.90,2.89,2.89
36.33,-10.78,-13.66,-10.79,-13.67,13.68,13.72,16.61,2.90,2.89,2.88
36.70,-10.70,-13.57,-10.70,-13.57,13.58,13.61,16.27,2.87,2.88,2.87
37.06,-10.61,-13.47,-10.60,-13.46,13.47,13.50,15.93,2.86,2.87,2.86
37.43,-10.50,-13.35,-10.51,-13.36,13.36,13.40,15.61,2.86,2.85,2.85
37.81,-10.42,-13.26,-10.42,-13.26,13.25,13.29,15.30,2.83,2.83,2.84
38.19,-10.33,-13.16,-10.33,-13.16,13.14,13.18,14.99,2.81,2.81,2.83
38.57,-10.22,-13.04,-10.22,-13.04,13.03,13.08,14.70,2.80,2.80,2.82
38.95,-10.11,-12.92,-10.11,-12.91,12.91,12.97,14.41,2.80,2.80,2.81
39.34,-9.98,-12.77,-9.99,-12.78,12.79,12.86,14.14,2.80,2.80,2.79
39.74,-9.87,-12.65,-9.87,-12.65,12.66,12.76,13.88,2.79,2.79,2.78
40.14,-9.76,-12.53,-9.76,-12.53,12.54,12.65,13.62,2.78,2.78,2.77
40.54,-9.65,-12.41,-9.65,-12.41,12.42,12.54,13.38,2.77,2.77,2.76
40.94,-9.54,-12.29,-9.55,-12.30,12.30,12.44,13.14,2.76,2.75,2.75
41.35,-9.46,-12.20,-9.45,-12.19,12.19,12.33,12.91,2.73,2.74,2.74
41.76,-9.35,-12.08,-9.35,-12.08,12.08,12.22,12.70,2.73,2.73,2.73
42.18,-9.24,-11.96,-9.26,-11.98,11.97,12.11,12.48,2.73,2.72,2.72
42.60,-9.16,-11.87,-9.16,-11.87,11.87,12.01,12.28,2.70,2.71,2.71
43.03,-9.07,-11.77,-9.07,-11.76,11.75,11.90,12.09,2.68,2.69,2.70
43.46,-8.96,-11.64,-8.97,-11.65,11.64,11.79,11.90,2.68,2.67,2.68
43.90,-8.88,-11.54,-8.88,-11.54,11.53,11.68,11.72,2.65,2.65,2.66
44.33,-8.77,-11.41,-8.78,-11.42,11.42,11.58,11.54,2.64,2.64,2.64
44.78,-8.68,-11.30,-8.68,-11.30,11.30,11.47,11.38,2.62,2.63,2.62
45.23,-8.57,-11.17,-8.58,-11.18,11.19,11.36,11.22,2.62,2.61,2.60
45.68,-8.48,-11.07,-8.48,-11.07,11.08,11.25,11.06,2.60,2.60,2.59
46.13,-8.40,-10.97,-8.39,-10.97,10.97,11.14,10.91,2.57,2.58,2.57
46.60,-8.29,-10.85,-8.30,-10.86,10.86,11.03,10.77,2.57,2.56,2.56
47.06,-8.22,-10.76,-8.21,-10.76,10.75,10.92,10.63,2.53,2.54,2.54
47.53,-8.12,-10.64,-8.13,-10.65,10.65,10.82,10.50,2.53,2.52,2.52
48.01,-8.04,-10.55,-8.04,-10.54,10.54,10.71,10.38,2.50,2.50,2.51
48.49,-7.95,-10.43,-7.95,-10.43,10.43,10.60,10.25,2.47,2.47,2.48
48.97,-7.86,-10.31,-7.86,-10.32,10.31,10.49,10.14,2.45,2.45,2.45
49.46,-7.78,-10.20,-7.77,-10.19,10.20,10.38,10.02,2.41,2.42,2.42
49.96,-7.67,-10.06,-7.68,-10.07,10.08,10.27,9.92,2.40,2.40,2.39
50.46,-7.59,-9.96,-7.59,-9.96,9.95,10.16,9.81,2.36,2.37,2.37
50.96,-7.48,-9.83,-7.49,-9.83,9.83,10.05,9.71,2.35,2.34,2.35
51.47,-7.39,-9.71,-7.39,-9.71,9.71,9.94,9.61,2.32,2.32,2.32
51.99,-7.28,-9.58,-7.28,-9.59,9.59,9.83,9.52,2.30,2.30,2.30
52.51,-7.18,-9.46,-7.19,-9.47,9.47,9.72,9.43,2.28,2.28,2.28
53.03,-7.09,-9.35,-7.09,-9.35,9.35,9.61,9.34,2.26,2.26,2.26
53.56,-7.00,-9.23,-7.00,-9.23,9.23,9.50,9.25,2.23,2.24,2.23
54.10,-6.90,-9.11,-6.91,-9.12,9.12,9.39,9.16,2.22,2.21,2.21
54.64,-6.83,-9.01,-6.83,-9.01,9.01,9.27,9.08,2.18,2.18,2.18
55.18,-6.75,-8.91,-6.75,-8.90,8.90,9.16,8.99,2.15,2.16,2.16
55.74,-6.66,-8.79,-6.67,-8.80,8.80,9.05,8.91,2.14,2.13,2.13
56.29,-6.59,-8.70,-6.59,-8.70,8.70,8.94,8.82,2.11,2.11,2.11
56.86,-6.51,-8.60,-6.51,-8.60,8.60,8.83,8.74,2.09,2.09,2.09
57.42,-6.43,-8.49,-6.43,-8.50,8.50,8.72,8.65,2.07,2.07,2.06
58.00,-6.36,-8.40,-6.36,-8.40,8.41,8.60,8.57,2.05,2.05,2.04
58.58,-6.28,-8.30,-6.29,-8.31,8.32,8.49,8.48,2.03,2.02,2.02
59.16,-6.23,-8.23,-6.23,-8.23,8.22,8.38,8.39,1.99,2.00,2.00
59.76,-6.16,-8.14,-6.16,-8.14,8.13,8.27,8.29,1.97,1.97,1.98
60.35,-6.09,-8.04,-6.10,-8.05,8.04,8.16,8.20,1.95,1.94,1.95
60.96,-6.03,-7.95,-6.03,-7.95,7.95,8.04,8.10,1.91,1.92,1.92
61.57,-5.97,-7.85,-5.97,-7.86,7.86,7.93,8.00,1.88,1.88,1.88
62.18,-5.91,-7.76,-5.91,-7.76,7.76,7.82,7.90,1.85,1.85,1.85
62.80,-5.85,-7.67,-5.85,-7.67,7.67,7.71,7.79,1.82,1.82,1.82
63.43,-5.78,-7.57,-5.79,-7.58,7.58,7.59,7.68,1.80,1.79,1.79
64.07,-5.72,-7.48,-5.73,-7.49,7.49,7.48,7.57,1.77,1.76,1.76
64.71,-5.67,-7.41,-5.66,-7.40,7.40,7.37,7.45,1.73,1.74,1.74
65.35,-5.60,-7.31,-5.60,-7.31,7.32,7.25,7.33,1.71,1.71,1.71
66.01,-5.54,-7.22,-5.55,-7.23,7.23,7.14,7.21,1.69,1.68,1.68
66.67,-5.49,-7.14,-5.49,-7.14,7.15,7.03,7.08,1.65,1.65,1.65
67.33,-5.44,-7.06,-5.44,-7.06,7.06,6.91,6.95,1.62,1.62,1.62
68.01,-5.39,-6.98,-5.39,-6.98,6.98,6.80,6.82,1.59,1.59,1.59
68.69,-5.33,-6.89,-5.33,-6.89,6.89,6.69,6.69,1.56,1.56,1.56
69.37,-5.27,-6.80,-5.27,-6.80,6.80,6.57,6.55,1.53,1.53,1.53
70.07,-5.21,-6.71,-5.21,-6.71,6.71,6.46,6.42,1.50,1.50,1.50
70.77,-5.15,-6.62,-5.15,-6.62,6.62,6.35,6.28,1.46,1.46,1.47
71.48,-5.08,-6.52,-5.09,-6.52,6.52,6.23,6.14,1.43,1.43,1.44
72.19,-5.02,-6.42,-5.02,-6.42,6.42,6.12,6.00,1.39,1.40,1.40
72.91,-4.94,-6.31,-4.94,-6.31,6.31,6.01,5.86,1.37,1.37,1.37
73.64,-4.87,-6.20,-4.87,-6.20,6.21,5.89,5.72,1.33,1.34,1.33
74.38,-4.79,-6.09,-4.80,-6.10,6.10,5.78,5.58,1.31,1.30,1.30
75.12,-4.73,-5.99,-4.73,-5.99,6.00,5.67,5.44,1.26,1.27,1.26
75.87,-4.66,-5.89,-4.66,-5.89,5.89,5.56,5.30,1.23,1.23,1.23
76.63,-4.58,-5.78,-4.59,-5.79,5.79,5.44,5.16,1.21,1.20,1.20
77.40,-4.52,-5.69,-4.52,-5.69,5.69,5.33,5.02,1.16,1.17,1.17
78.17,-4.45,-5.58,-4.45,-5.59,5.59,5.22,4.89,1.13,1.13,1.13
78.95,-4.39,-5.49,-4.39,-5.49,5.49,5.10,4.75,1.09,1.10,1.10
79.74,-4.32,-5.39,-4.32,-5.39,5.39,4.99,4.62,1.06,1.07,1.07
80.54,-4.25,-5.28,-4.25,-5.29,5.29,4.88,4.48,1.03,1.03,1.03
81.35,-4.18,-5.18,-4.19,-5.18,5.19,4.77,4.35,1.00,1.00,1.00
82.16,-4.12,-5.08,-4.12,-5.09,5.09,4.65,4.22,0.96,0.96,0.96
82.98,-4.06,-4.99,-4.06,-4.99,4.99,4.54,4.09,0.93,0.93,0.93
83.81,-4.00,-4.89,-4.00,-4.89,4.89,4.43,3.96,0.89,0.89,0.89
84.65,-3.93,-4.78,-3.93,-4.79,4.79,4.32,3.83,0.86,0.86,0.85
85.50,-3.87,-4.69,-3.87,-4.69,4.70,4.21,3.71,0.82,0.82,0.82
86.35,-3.81,-4.59,-3.82,-4.59,4.60,4.10,3.58,0.79,0.78,0.78
87.22,-3.76,-4.50,-3.76,-4.50,4.50,3.98,3.46,0.73,0.74,0.74
88.09,-3.69,-4.39,-3.69,-4.39,4.39,3.87,3.34,0.69,0.69,0.70
88.97,-3.62,-4.28,-3.62,-4.28,4.27,3.76,3.22,0.65,0.65,0.66
89.86,-3.54,-4.16,-3.55,-4.16,4.15,3.65,3.10,0.61,0.61,0.62
90.76,-3.46,-4.03,-3.46,-4.03,4.03,3.54,2.99,0.56,0.57,0.57
91.66,-3.37,-3.90,-3.37,-3.90,3.89,3.43,2.87,0.52,0.53,0.53
92.58,-3.26,-3.74,-3.27,-3.75,3.76,3.32,2.76,0.49,0.49,0.48
93.51,-3.17,-3.61,-3.17,-3.61,3.61,3.21,2.65,0.44,0.44,0.44
94.44,-3.06,-3.46,-3.07,-3.47,3.47,3.10,2.53,0.40,0.40,0.40
95.39,-2.98,-3.33,-2.97,-3.32,3.32,3.00,2.43,0.34,0.35,0.35
96.34,-2.87,-3.17,-2.87,-3.17,3.17,2.89,2.32,0.30,0.30,0.30
97.30,-2.76,-3.01,-2.78,-3.03,3.03,2.78,2.21,0.27,0.25,0.25
98.28,-2.68,-2.88,-2.67,-2.88,2.88,2.67,2.11,0.20,0.21,0.20
99.26,-2.59,-2.75,-2.59,-2.74,2.74,2.56,2.00,0.15,0.16,0.16
100.25,-2.48,-2.59,-2.50,-2.61,2.61,2.46,1.90,0.12,0.11,0.11
101.25,-2.42,-2.48,-2.41,-2.47,2.47,2.35,1.80,0.05,0.06,0.06
102.27,-2.31,-2.32,-2.33,-2.34,2.34,2.24,1.70,0.03,0.01,0.01
103.29,-2.25,-2.21,-2.25,-2.21,2.21,2.14,1.60,-0.04,-0.04,-0.04
104.32,-2.17,-2.09,-2.17,-2.08,2.09,2.03,1.50,-0.09,-0.08,-0.08
105.37,-2.09,-1.96,-2.10,-1.97,1.96,1.93,1.41,-0.13,-0.13,-0.13
106.42,-2.02,-1.84,-2.02,-1.85,1.84,1.82,1.31,-0.18,-0.18,-0.18
107.48,-1.96,-1.73,-1.95,-1.72,1.72,1.72,1.22,-0.24,-0.23,-0.23
108.56,-1.88,-1.60,-1.89,-1.61,1.60,1.61,1.13,-0.28,-0.28,-0.28
109.64,-1.81,-1.48,-1.82,-1.49,1.49,1.51,1.04,-0.33,-0.33,-0.33
110.74,-1.75,-1.37,-1.75,-1.37,1.37,1.40,0.96,-0.38,-0.38,-0.38
111.85,-1.68,-1.25,-1.69,-1.25,1.25,1.30,0.87,-0.43,-0.43,-0.43
112.97,-1.62,-1.13,-1.63,-1.14,1.14,1.20,0.79,-0.49,-0.49,-0.49
114.10,-1.57,-1.03,-1.56,-1.02,1.02,1.09,0.71,-0.55,-0.54,-0.54
115.24,-1.50,-0.90,-1.50,-0.91,0.91,0.99,0.63,-0.59,-0.59,-0.60
116.39,-1.44,-0.79,-1.45,-0.79,0.80,0.89,0.55,-0.64,-0.65,-0.65
117.55,-1.39,-0.68,-1.39,-0.69,0.69,0.78,0.48,-0.70,-0.71,-0.71
118.73,-1.34,-0.58,-1.34,-0.58,0.58,0.68,0.40,-0.76,-0.76,-0.76
119.92,-1.29,-0.48,-1.28,-0.47,0.47,0.57,0.33,-0.83,-0.81,-0.81
121.12,-1.20,-0.34,-1.22,-0.36,0.36,0.47,0.26,-0.84,-0.86,-0.86
122.33,-1.16,-0.25,-1.16,-0.25,0.25,0.37,0.20,-0.91,-0.91,-0.91
123.55,-1.11,-0.15,-1.10,-0.14,0.14,0.26,0.14,-0.97,-0.96,-0.96
124.79,-1.04,-0.03,-1.04,-0.04,0.03,0.16,0.07,-1.01,-1.01,-1.01
126.03,-0.98,0.08,-0.98,0.08,-0.08,0.05,0.02,-1.06,-1.06,-1.06
127.29,-0.92,0.19,-0.93,0.18,-0.18,-0.06,-0.04,-1.10,-1.11,-1.11
128.57,-0.89,0.28,-0.88,0.28,-0.28,-0.16,-0.10,-1.17,-1.16,-1.17
129.85,-0.84,0.38,-0.84,0.38,-0.38,-0.27,-0.15,-1.22,-1.22,-1.22
131.15,-0.78,0.49,-0.80,0.48,-0.47,-0.37,-0.20,-1.26,-1.27,-1.27
132.46,-0.75,0.57,-0.75,0.57,-0.56,-0.47,-0.25,-1.32,-1.31,-1.32
133.79,-0.72,0.64,-0.71,0.65,-0.65,-0.58,-0.29,-1.37,-1.36,-1.36
135.12,-0.67,0.74,-0.68,0.73,-0.73,-0.67,-0.34,-1.40,-1.41,-1.41
136.48,-0.64,0.81,-0.64,0.81,-0.81,-0.77,-0.38,-1.45,-1.45,-1.45
137.84,-0.62,0.88,-0.61,0.89,-0.89,-0.86,-0.43,-1.51,-1.50,-1.50
139.22,-0.57,0.98,-0.59,0.96,-0.96,-0.94,-0.47,-1.53,-1.54,-1.55
140.61,-0.56,1.03,-0.56,1.03,-1.03,-1.01,-0.51,-1.59,-1.58,-1.59
142.02,-0.53,1.09,-0.53,1.09,-1.09,-1.08,-0.55,-1.63,-1.62,-1.62
143.44,-0.50,1.16,-0.51,1.16,-1.16,-1.15,-0.59,-1.66,-1.66,-1.66
144.87,-0.48,1.22,-0.48,1.22,-1.22,-1.21,-0.63,-1.71,-1.70,-1.70
146.32,-0.44,1.30,-0.45,1.29,-1.29,-1.26,-0.67,-1.73,-1.73,-1.74
147.78,-0.43,1.34,-0.43,1.35,-1.35,-1.31,-0.70,-1.78,-1.78,-1.77
149.26,-0.39,1.42,-0.40,1.41,-1.41,-1.37,-0.74,-1.80,-1.81,-1.81
150.75,-0.39,1.46,-0.38,1.47,-1.48,-1.41,-0.78,-1.87,-1.85,-1.85
152.26,-0.34,1.55,-0.35,1.54,-1.54,-1.46,-0.82,-1.88,-1.89,-1.89
153.78,-0.33,1.60,-0.33,1.60,-1.60,-1.51,-0.86,-1.94,-1.94,-1.93
155.32,-0.30,1.67,-0.31,1.66,-1.66,-1.56,-0.90,-1.97,-1.97,-1.97
156.88,-0.30,1.71,-0.29,1.72,-1.72,-1.61,-0.94,-2.02,-2.01,-2.01
158.44,-0.25,1.80,-0.27,1.78,-1.77,-1.66,-0.98,-2.03,-2.04,-2.05
160.03,-0.25,1.84,-0.25,1.84,-1.82,-1.71,-1.02,-2.08,-2.08,-2.09
161.63,-0.25,1.88,-0.25,1.88,-1.87,-1.76,-1.07,-2.12,-2.12,-2.13
163.24,-0.25,1.92,-0.25,1.91,-1.92,-1.80,-1.11,-2.17,-2.17,-2.17
164.88,-0.25,1.95,-0.25,1.95,-1.96,-1.85,-1.16,-2.21,-2.21,-2.20
166.53,-0.25,1.99,-0.25,1.99,-2.00,-1.90,-1.20,-2.26,-2.25,-2.24
168.19,-0.24,2.04,-0.24,2.04,-2.05,-1.95,-1.25,-2.29,-2.29,-2.28
169.87,-0.23,2.09,-0.24,2.08,-2.09,-1.99,-1.30,-2.32,-2.33,-2.32
171.57,-0.23,2.13,-0.22,2.13,-2.13,-2.04,-1.35,-2.36,-2.36,-2.36
173.29,-0.21,2.18,-0.21,2.18,-2.17,-2.09,-1.40,-2.39,-2.38,-2.39
175.02,-0.20,2.23,-0.21,2.22,-2.21,-2.13,-1.46,-2.42,-2.42,-2.43
176.77,-0.20,2.27,-0.21,2.26,-2.25,-2.18,-1.51,-2.45,-2.46,-2.47
178.54,-0.23,2.28,-0.23,2.28,-2.28,-2.22,-1.57,-2.51,-2.51,-2.51
180.32,-0.25,2.30,-0.24,2.31,-2.31,-2.26,-1.63,-2.56,-2.55,-2.55
182.13,-0.25,2.33,-0.26,2.33,-2.33,-2.30,-1.69,-2.58,-2.59,-2.58
183.95,-0.25,2.37,-0.27,2.35,-2.35,-2.34,-1.75,-2.60,-2.62,-2.62
185.79,-0.29,2.36,-0.28,2.37,-2.37,-2.38,-1.81,-2.66,-2.65,-2.65
187.65,-0.30,2.39,-0.30,2.39,-2.39,-2.42,-1.88,-2.69,-2.68,-2.69
189.52,-0.30,2.42,-0.32,2.40,-2.40,-2.46,-1.94,-2.71,-2.72,-2.72
191.42,-0.33,2.42,-0.33,2.42,-2.42,-2.49,-2.01,-2.76,-2.75,-2.75
193.33,-0.34,2.44,-0.34,2.44,-2.45,-2.53,-2.07,-2.79,-2.79,-2.78
195.27,-0.34,2.47,-0.35,2.46,-2.47,-2.56,-2.14,-2.82,-2.82,-2.81
197.22,-0.34,2.50,-0.34,2.50,-2.50,-2.59,-2.21,-2.84,-2.84,-2.84
199.19,-0.34,2.53,-0.33,2.54,-2.54,-2.63,-2.28,-2.88,-2.87,-2.87
201.18,-0.30,2.59,-0.32,2.58,-2.57,-2.66,-2.35,-2.88,-2.89,-2.89
203.19,-0.30,2.61,-0.30,2.61,-2.61,-2.69,-2.43,-2.92,-2.91,-2.91
205.23,-0.27,2.66,-0.27,2.65,-2.66,-2.71,-2.50,-2.93,-2.93,-2.93
207.28,-0.25,2.69,-0.25,2.70,-2.70,-2.74,-2.57,-2.95,-2.95,-2.94
209.35,-0.21,2.75,-0.22,2.74,-2.75,-2.77,-2.64,-2.96,-2.96,-2.96
211.44,-0.18,2.80,-0.18,2.79,-2.79,-2.79,-2.71,-2.97,-2.97,-2.98
213.56,-0.16,2.83,-0.15,2.83,-2.83,-2.81,-2.78,-2.99,-2.98,-2.99
215.69,-0.11,2.88,-0.13,2.87,-2.87,-2.83,-2.85,-2.98,-2.99,-2.99
217.85,-0.11,2.89,-0.10,2.90,-2.90,-2.85,-2.92,-3.01,-3.00,-3.00
220.03,-0.07,2.94,-0.08,2.93,-2.93,-2.87,-2.99,-3.00,-3.01,-3.01
222.23,-0.06,2.96,-0.07,2.95,-2.95,-2.89,-3.05,-3.01,-3.02,-3.02
224.45,-0.06,2.96,-0.05,2.97,-2.97,-2.91,-3.11,-3.03,-3.02,-3.02
226.70,-0.03,2.99,-0.04,2.98,-2.98,-2.93,-3.17,-3.02,-3.02,-3.02
228.96,-0.02,3.00,-0.03,2.99,-2.99,-2.94,-3.22,-3.01,-3.02,-3.02
231.25,-0.02,2.99,-0.02,2.99,-2.99,-2.95,-3.27,-3.01,-3.01,-3.01
233.57,-0.02,2.99,-0.02,2.99,-2.98,-2.97,-3.32,-3.01,-3.00,-3.01
235.90,-0.02,2.99,-0.02,2.98,-2.98,-2.98,-3.36,-3.00,-3.00,-3.01
238.26,-0.02,2.98,-0.04,2.96,-2.96,-2.99,-3.40,-2.98,-3.00,-3.00
240.64,-0.06,2.93,-0.05,2.94,-2.95,-3.00,-3.44,-3.01,-3.00,-2.99
243.05,-0.06,2.92,-0.06,2.92,-2.93,-3.01,-3.46,-2.99,-2.99,-2.98
245.48,-0.06,2.91,-0.07,2.90,-2.91,-3.01,-3.49,-2.97,-2.98,-2.97
247.93,-0.06,2.90,-0.06,2.90,-2.89,-3.02,-3.50,-2.95,-2.95,-2.96
250.41,-0.06,2.89,-0.06,2.88,-2.88,-3.03,-3.51,-2.94,-2.94,-2.95
252.92,-0.06,2.87,-0.07,2.86,-2.87,-3.03,-3.52,-2.93,-2.93,-2.93
255.45,-0.06,2.85,-0.06,2.85,-2.86,-3.03,-3.52,-2.92,-2.92,-2.91
258.00,-0.06,2.84,-0.05,2.84,-2.85,-3.04,-3.52,-2.92,-2.91,-2.90
260.58,-0.02,2.86,-0.03,2.85,-2.85,-3.04,-3.51,-2.87,-2.89,-2.88
263.19,-0.02,2.84,-0.01,2.85,-2.85,-3.04,-3.49,-2.87,-2.86,-2.86
265.82,0.03,2.87,0.02,2.86,-2.85,-3.04,-3.47,-2.83,-2.83,-2.84
268.48,0.04,2.86,0.04,2.86,-2.86,-3.04,-3.45,-2.82,-2.82,-2.82
271.16,0.08,2.88,0.07,2.87,-2.86,-3.03,-3.42,-2.79,-2.79,-2.80
273.87,0.08,2.86,0.09,2.87,-2.87,-3.03,-3.38,-2.79,-2.78,-2.78
276.61,0.12,2.88,0.11,2.87,-2.87,-3.03,-3.35,-2.75,-2.76,-2.76
279.38,0.12,2.86,0.13,2.87,-2.87,-3.02,-3.31,-2.75,-2.74,-2.74
282.17,0.17,2.89,0.15,2.87,-2.87,-3.02,-3.27,-2.70,-2.71,-2.72
284.99,0.17,2.87,0.16,2.86,-2.86,-3.01,-3.22,-2.70,-2.70,-2.70
287.84,0.17,2.85,0.17,2.85,-2.86,-3.00,-3.18,-2.69,-2.68,-2.68
290.72,0.17,2.83,0.18,2.84,-2.85,-2.99,-3.13,-2.68,-2.67,-2.66
293.63,0.22,2.86,0.20,2.84,-2.84,-2.99,-3.08,-2.62,-2.64,-2.64
296.57,0.22,2.84,0.22,2.84,-2.83,-2.98,-3.03,-2.61,-2.61,-2.62
299.53,0.22,2.82,0.22,2.82,-2.81,-2.97,-2.98,-2.60,-2.59,-2.60
302.53,0.22,2.80,0.22,2.79,-2.80,-2.96,-2.93,-2.58,-2.58,-2.58
305.55,0.22,2.77,0.23,2.78,-2.78,-2.94,-2.88,-2.57,-2.56,-2.55
308.61,0.24,2.77,0.24,2.76,-2.76,-2.93,-2.83,-2.53,-2.53,-2.53
311.69,0.26,2.76,0.25,2.75,-2.74,-2.92,-2.78,-2.49,-2.49,-2.50
314.81,0.26,2.73,0.26,2.73,-2.73,-2.90,-2.73,-2.47,-2.47,-2.47
317.96,0.26,2.71,0.26,2.71,-2.71,-2.89,-2.68,-2.45,-2.45,-2.45
321.14,0.26,2.69,0.25,2.68,-2.69,-2.88,-2.64,-2.44,-2.44,-2.43
324.35,0.26,2.67,0.26,2.67,-2.68,-2.86,-2.59,-2.42,-2.42,-2.41
327.59,0.26,2.65,0.27,2.66,-2.67,-2.84,-2.55,-2.41,-2.40,-2.39
330.87,0.29,2.66,0.28,2.65,-2.65,-2.83,-2.50,-2.37,-2.37,-2.37
334.18,0.31,2.66,0.30,2.65,-2.64,-2.81,-2.46,-2.33,-2.34,-2.35
337.52,0.31,2.64,0.31,2.64,-2.62,-2.79,-2.42,-2.32,-2.31,-2.33
340.90,0.31,2.62,0.31,2.62,-2.61,-2.78,-2.39,-2.30,-2.30,-2.31
344.30,0.31,2.60,0.31,2.60,-2.60,-2.76,-2.35,-2.29,-2.29,-2.29
347.75,0.31,2.58,0.31,2.57,-2.58,-2.74,-2.32,-2.28,-2.28,-2.27
351.23,0.31,2.56,0.31,2.56,-2.57,-2.72,-2.28,-2.26,-2.27,-2.25
354.74,0.31,2.54,0.32,2.55,-2.56,-2.70,-2.25,-2.25,-2.24,-2.23
358.28,0.33,2.55,0.33,2.55,-2.55,-2.68,-2.22,-2.22,-2.21,-2.22
361.87,0.36,2.56,0.35,2.55,-2.54,-2.66,-2.20,-2.18,-2.19,-2.20
365.49,0.36,2.54,0.36,2.54,-2.53,-2.64,-2.17,-2.17,-2.17,-2.18
369.14,0.36,2.53,0.36,2.53,-2.53,-2.61,-2.15,-2.17,-2.17,-2.17
372.83,0.36,2.51,0.36,2.51,-2.52,-2.59,-2.13,-2.16,-2.16,-2.15
376.56,0.37,2.51,0.37,2.51,-2.51,-2.57,-2.11,-2.15,-2.14,-2.14
380.33,0.40,2.52,0.39,2.51,-2.51,-2.55,-2.09,-2.11,-2.12,-2.12
384.13,0.40,2.51,0.40,2.51,-2.50,-2.52,-2.07,-2.10,-2.10,-2.11
387.97,0.40,2.50,0.40,2.50,-2.49,-2.50,-2.06,-2.10,-2.10,-2.10
391.85,0.40,2.49,0.40,2.48,-2.49,-2.47,-2.05,-2.09,-2.09,-2.09
395.77,0.40,2.47,0.41,2.48,-2.49,-2.45,-2.03,-2.09,-2.08,-2.07
399.73,0.42,2.48,0.42,2.48,-2.48,-2.42,-2.02,-2.07,-2.06,-2.06
403.72,0.45,2.50,0.44,2.49,-2.48,-2.39,-2.01,-2.03,-2.04,-2.05
407.76,0.45,2.49,0.45,2.49,-2.48,-2.37,-2.01,-2.03,-2.03,-2.04
411.84,0.45,2.48,0.45,2.48,-2.48,-2.34,-2.00,-2.03,-2.03,-2.03
415.96,0.45,2.47,0.45,2.47,-2.48,-2.31,-1.99,-2.03,-2.03,-2.02
420.12,0.46,2.47,0.47,2.48,-2.48,-2.28,-1.99,-2.03,-2.02,-2.01
424.32,0.50,2.50,0.48,2.48,-2.48,-2.25,-1.98,-1.99,-2.00,-2.00
428.56,0.50,2.49,0.50,2.49,-2.48,-2.22,-1.98,-1.99,-1.99,-1.99
432.85,0.50,2.48,0.51,2.49,-2.49,-2.18,-1.97,-1.99,-1.97,-1.98
437.18,0.54,2.51,0.52,2.49,-2.49,-2.15,-1.97,-1.95,-1.96,-1.97
