frequency,raw,error,smoothed,error_smoothed,equalization,parametric_eq,fixed_band_eq,equalized_raw,equalized_smoothed,target
20.00,10.48,-0.67,10.53,-0.62,0.62,0.20,0.19,11.10,11.15,11.15
20.20,10.53,-0.61,10.56,-0.58,0.58,0.21,0.20,11.11,11.14,11.14
20.40,10.57,-0.57,10.59,-0.55,0.55,0.21,0.20,11.12,11.14,11.14
20.61,10.62,-0.52,10.61,-0.53,0.53,0.22,0.21,11.15,11.14,11.14
20.81,10.67,-0.45,10.63,-0.50,0.50,0.23,0.22,11.17,11.13,11.12
21.02,10.71,-0.41,10.65,-0.48,0.48,0.24,0.23,11.19,11.13,11.12
21.23,10.71,-0.41,10.67,-0.46,0.46,0.25,0.24,11.17,11.13,11.12
21.44,10.71,-0.42,10.68,-0.44,0.44,0.26,0.25,11.15,11.12,11.13
21.66,10.71,-0.41,10.70,-0.43,0.43,0.27,0.26,11.14,11.12,11.12
21.87,10.71,-0.42,10.71,-0.41,0.41,0.28,0.26,11.12,11.12,11.13
22.09,10.71,-0.41,10.72,-0.40,0.40,0.29,0.27,11.11,11.12,11.12
22.31,10.71,-0.41,10.72,-0.39,0.39,0.30,0.28,11.10,11.12,11.12
22.54,10.71,-0.40,10.72,-0.40,0.40,0.31,0.29,11.11,11.12,11.11
22.76,10.71,-0.41,10.72,-0.40,0.40,0.33,0.30,11.11,11.12,11.12
22.99,10.71,-0.41,10.72,-0.41,0.41,0.34,0.32,11.12,11.12,11.12
23.22,10.71,-0.41,10.71,-0.41,0.41,0.35,0.33,11.12,11.13,11.12
23.45,10.71,-0.42,10.71,-0.42,0.42,0.36,0.34,11.13,11.13,11.13
23.69,10.71,-0.42,10.71,-0.42,0.42,0.37,0.35,11.13,11.13,11.13
23.92,10.71,-0.42,10.71,-0.42,0.42,0.38,0.36,11.13,11.13,11.13
24.16,10.71,-0.42,10.71,-0.42,0.42,0.40,0.37,11.13,11.13,11.13
24.40,10.71,-0.43,10.71,-0.43,0.43,0.41,0.38,11.14,11.14,11.14
24.65,10.71,-0.43,10.71,-0.43,0.43,0.42,0.39,11.14,11.14,11.14
24.89,10.71,-0.43,10.71,-0.43,0.43,0.43,0.41,11.14,11.14,11.14
25.14,10.71,-0.43,10.71,-0.43,0.43,0.44,0.42,11.14,11.14,11.14
25.39,10.71,-0.44,10.71,-0.43,0.43,0.46,0.43,11.14,11.14,11.15
25.65,10.71,-0.43,10.71,-0.43,0.43,0.47,0.44,11.14,11.14,11.14
25.91,10.71,-0.42,10.71,-0.43,0.43,0.48,0.45,11.14,11.14,11.13
26.16,10.71,-0.43,10.71,-0.43,0.43,0.49,0.46,11.14,11.14,11.14
26.43,10.71,-0.43,10.71,-0.43,0.43,0.50,0.47,11.14,11.14,11.14
26.69,10.71,-0.43,10.71,-0.42,0.42,0.51,0.48,11.13,11.13,11.14
26.96,10.71,-0.41,10.71,-0.42,0.42,0.51,0.49,11.13,11.13,11.12
27.23,10.71,-0.41,10.71,-0.42,0.42,0.52,0.50,11.13,11.13,11.12
27.50,10.71,-0.41,10.71,-0.41,0.41,0.53,0.51,11.12,11.12,11.12
27.77,10.71,-0.42,10.71,-0.41,0.41,0.53,0.52,11.12,11.12,11.13
28.05,10.71,-0.40,10.71,-0.40,0.40,0.54,0.52,11.11,11.11,11.11
28.33,10.71,-0.40,10.71,-0.40,0.40,0.54,0.53,11.11,11.11,11.11
28.62,10.71,-0.39,10.71,-0.39,0.39,0.54,0.53,11.10,11.10,11.10
28.90,10.71,-0.39,10.71,-0.39,0.39,0.54,0.53,11.10,11.10,11.10
29.19,10.71,-0.38,10.71,-0.38,0.38,0.54,0.54,11.09,11.09,11.09
29.48,10.71,-0.37,10.71,-0.37,0.37,0.54,0.54,11.08,11.08,11.08
29.78,10.71,-0.37,10.71,-0.36,0.36,0.53,0.53,11.07,11.07,11.08
30.08,10.71,-0.36,10.71,-0.35,0.35,0.53,0.53,11.06,11.06,11.07
30.38,10.71,-0.34,10.71,-0.34,0.34,0.52,0.53,11.05,11.05,11.05
30.68,10.71,-0.33,10.71,-0.33,0.33,0.51,0.52,11.04,11.04,11.04
30.99,10.71,-0.32,10.71,-0.32,0.32,0.50,0.51,11.03,11.03,11.03
31.30,10.71,-0.31,10.71,-0.31,0.31,0.49,0.50,11.02,11.02,11.02
31.61,10.71,-0.30,10.71,-0.30,0.30,0.47,0.49,11.01,11.01,11.01
31.93,10.71,-0.28,10.71,-0.29,0.29,0.45,0.48,11.00,11.00,10.99
32.24,10.71,-0.28,10.71,-0.28,0.28,0.44,0.46,10.99,10.99,10.99
32.57,10.71,-0.27,10.71,-0.28,0.28,0.42,0.44,10.99,10.99,10.98
32.89,10.71,-0.26,10.71,-0.27,0.27,0.40,0.42,10.98,10.98,10.97
33.22,10.71,-0.26,10.71,-0.26,0.26,0.37,0.40,10.97,10.97,10.97
33.55,10.71,-0.25,10.71,-0.26,0.26,0.35,0.38,10.97,10.97,10.96
33.89,10.71,-0.26,10.71,-0.25,0.25,0.32,0.36,10.96,10.96,10.97
34.23,10.71,-0.24,10.71,-0.25,0.25,0.30,0.33,10.96,10.96,10.95
34.57,10.71,-0.25,10.71,-0.24,0.24,0.27,0.31,10.95,10.95,10.96
34.92,10.71,-0.24,10.71,-0.24,0.24,0.24,0.28,10.95,10.95,10.95
35.27,10.71,-0.24,10.71,-0.23,0.23,0.21,0.25,10.94,10.94,10.95
35.62,10.71,-0.22,10.71,-0.22,0.22,0.18,0.22,10.93,10.93,10.93
35.97,10.71,-0.21,10.71,-0.21,0.21,0.15,0.19,10.92,10.92,10.92
36.33,10.71,-0.20,10.71,-0.19,0.19,0.12,0.16,10.90,10.90,10.91
36.70,10.71,-0.18,10.71,-0.18,0.18,0.08,0.13,10.89,10.89,10.89
37.06,10.71,-0.16,10.71,-0.16,0.16,0.05,0.09,10.87,10.87,10.87
37.43,10.71,-0.14,10.71,-0.13,0.13,0.02,0.06,10.84,10.84,10.85
37.81,10.71,-0.11,10.71,-0.11,0.11,-0.02,0.02,10.82,10.82,10.82
38.19,10.71,-0.09,10.71,-0.08,0.08,-0.05,-0.01,10.79,10.79,10.80
38.57,10.71,-0.06,10.71,-0.05,0.05,-0.09,-0.05,10.76,10.76,10.77
38.95,10.71,-0.03,10.71,-0.02,0.02,-0.12,-0.08,10.73,10.73,10.74
39.34,10.71,0.02,10.71,0.01,-0.01,-0.16,-0.12,10.70,10.70,10.69
39.74,10.71,0.05,10.71,0.04,-0.04,-0.19,-0.16,10.67,10.67,10.66
40.14,10.71,0.08,10.71,0.07,-0.07,-0.23,-0.20,10.64,10.64,10.63
40.54,10.71,0.11,10.71,0.10,-0.10,-0.26,-0.23,10.61,10.61,10.60
40.94,10.71,0.15,10.71,0.13,-0.13,-0.30,-0.27,10.58,10.58,10.56
41.35,10.71,0.17,10.71,0.17,-0.17,-0.34,-0.31,10.54,10.54,10.54
41.76,10.71,0.20,10.71,0.20,-0.20,-0.37,-0.35,10.51,10.51,10.51
42.18,10.71,0.23,10.71,0.23,-0.23,-0.41,-0.39,10.48,10.48,10.48
42.60,10.71,0.26,10.71,0.26,-0.26,-0.44,-0.43,10.45,10.45,10.45
43.03,10.71,0.29,10.71,0.29,-0.29,-0.48,-0.47,10.42,10.42,10.42
43.46,10.71,0.33,10.71,0.32,-0.32,-0.51,-0.51,10.39,10.39,10.38
43.90,10.71,0.35,10.71,0.35,-0.35,-0.55,-0.55,10.36,10.36,10.36
44.33,10.71,0.39,10.71,0.38,-0.38,-0.58,-0.60,10.33,10.33,10.32
44.78,10.71,0.42,10.71,0.42,-0.42,-0.62,-0.64,10.29,10.29,10.29
45.23,10.71,0.44,10.71,0.45,-0.45,-0.66,-0.68,10.26,10.26,10.27
45.68,10.71,0.48,10.71,0.49,-0.49,-0.69,-0.72,10.22,10.22,10.23
46.13,10.71,0.53,10.71,0.53,-0.53,-0.73,-0.77,10.18,10.18,10.18
46.60,10.71,0.57,10.71,0.57,-0.57,-0.76,-0.81,10.14,10.14,10.14
47.06,10.71,0.60,10.71,0.61,-0.61,-0.80,-0.85,10.10,10.10,10.11
47.53,10.71,0.64,10.71,0.65,-0.65,-0.83,-0.90,10.06,10.06,10.07
48.01,10.71,0.70,10.71,0.69,-0.69,-0.87,-0.94,10.02,10.02,10.01
48.49,10.71,0.74,10.71,0.74,-0.74,-0.90,-0.98,9.97,9.97,9.97
48.97,10.71,0.79,10.71,0.78,-0.78,-0.94,-1.03,9.93,9.93,9.92
49.46,10.71,0.83,10.71,0.83,-0.83,-0.97,-1.07,9.88,9.88,9.88
49.96,10.71,0.89,10.71,0.88,-0.88,-1.01,-1.12,9.83,9.83,9.82
50.46,10.71,0.94,10.71,0.92,-0.92,-1.04,-1.17,9.79,9.79,9.77
50.96,10.71,0.97,10.71,0.97,-0.97,-1.08,-1.21,9.74,9.74,9.74
51.47,10.71,1.02,10.71,1.02,-1.02,-1.11,-1.26,9.69,9.69,9.69
51.99,10.71,1.07,10.71,1.08,-1.08,-1.15,-1.30,9.63,9.63,9.64
52.51,10.71,1.12,10.71,1.13,-1.13,-1.18,-1.35,9.58,9.58,9.59
53.03,10.71,1.16,10.71,1.18,-1.18,-1.22,-1.39,9.53,9.53,9.55
53.56,10.71,1.23,10.71,1.23,-1.23,-1.26,-1.44,9.48,9.48,9.48
54.10,10.71,1.29,10.71,1.28,-1.28,-1.29,-1.49,9.43,9.43,9.42
54.64,10.71,1.34,10.71,1.33,-1.33,-1.33,-1.53,9.38,9.38,9.37
55.18,10.71,1.40,10.71,1.38,-1.38,-1.36,-1.58,9.33,9.33,9.31
55.74,10.71,1.45,10.71,1.43,-1.43,-1.40,-1.62,9.28,9.28,9.26
56.29,10.71,1.50,10.71,1.48,-1.48,-1.44,-1.67,9.23,9.23,9.21
56.86,10.71,1.54,10.71,1.54,-1.54,-1.47,-1.71,9.17,9.17,9.17
57.42,10.71,1.60,10.72,1.60,-1.60,-1.51,-1.75,9.11,9.12,9.11
58.00,10.71,1.65,10.72,1.66,-1.66,-1.55,-1.79,9.05,9.07,9.06
58.58,10.71,1.69,10.73,1.72,-1.72,-1.58,-1.84,8.99,9.01,9.02
59.16,10.71,1.73,10.73,1.77,-1.77,-1.62,-1.88,8.94,8.95,8.98
59.76,10.71,1.79,10.72,1.82,-1.82,-1.66,-1.92,8.89,8.90,8.92
60.35,10.71,1.86,10.71,1.87,-1.87,-1.70,-1.95,8.84,8.84,8.85
60.96,10.71,1.92,10.70,1.92,-1.92,-1.74,-1.99,8.79,8.78,8.79
61.57,10.71,1.99,10.68,1.96,-1.96,-1.78,-2.03,8.75,8.72,8.72
62.18,10.71,2.07,10.66,2.01,-2.01,-1.82,-2.07,8.70,8.66,8.64
62.80,10.71,2.13,10.64,2.05,-2.05,-1.85,-2.10,8.66,8.59,8.58
63.43,10.67,2.16,10.62,2.09,-2.09,-1.89,-2.13,8.58,8.52,8.51
64.07,10.61,2.16,10.60,2.14,-2.14,-1.93,-2.17,8.47,8.46,8.45
64.71,10.52,2.13,10.57,2.19,-2.19,-1.97,-2.20,8.33,8.39,8.39
65.35,10.48,2.16,10.55,2.23,-2.23,-2.01,-2.23,8.25,8.32,8.32
66.01,10.48,2.23,10.53,2.28,-2.28,-2.06,-2.26,8.20,8.25,8.25
66.67,10.48,2.29,10.51,2.33,-2.33,-2.10,-2.29,8.15,8.18,8.19
67.33,10.48,2.37,10.50,2.38,-2.38,-2.14,-2.32,8.10,8.11,8.11
68.01,10.48,2.43,10.48,2.44,-2.44,-2.18,-2.35,8.04,8.04,8.05
68.69,10.48,2.51,10.48,2.51,-2.51,-2.22,-2.38,7.97,7.97,7.97
69.37,10.48,2.57,10.48,2.58,-2.58,-2.27,-2.41,7.90,7.90,7.91
70.07,10.48,2.65,10.48,2.66,-2.66,-2.31,-2.44,7.82,7.82,7.83
70.77,10.48,2.72,10.48,2.73,-2.73,-2.35,-2.47,7.75,7.75,7.76
71.48,10.48,2.80,10.48,2.81,-2.81,-2.40,-2.50,7.67,7.68,7.68
72.19,10.48,2.88,10.48,2.88,-2.88,-2.44,-2.54,7.60,7.60,7.60
72.91,10.48,2.95,10.47,2.94,-2.94,-2.48,-2.57,7.54,7.53,7.53
73.64,10.48,3.04,10.45,2.99,-2.99,-2.53,-2.60,7.49,7.46,7.44
74.38,10.48,3.11,10.43,3.05,-3.05,-2.58,-2.64,7.43,7.39,7.37
75.12,10.48,3.18,10.41,3.09,-3.09,-2.62,-2.67,7.39,7.32,7.30
75.87,10.48,3.22,10.39,3.14,-3.14,-2.67,-2.71,7.34,7.25,7.25
76.63,10.37,3.19,10.37,3.18,-3.18,-2.71,-2.75,7.19,7.19,7.18
77.40,10.29,3.17,10.35,3.23,-3.23,-2.76,-2.79,7.06,7.12,7.12
78.17,10.26,3.20,10.33,3.27,-3.27,-2.81,-2.83,6.99,7.06,7.06
78.95,10.26,3.26,10.31,3.31,-3.31,-2.86,-2.88,6.95,7.00,7.00
79.74,10.26,3.32,10.29,3.36,-3.36,-2.90,-2.92,6.90,6.94,6.94
80.54,10.26,3.38,10.28,3.41,-3.41,-2.95,-2.97,6.85,6.87,6.88
81.35,10.26,3.45,10.28,3.47,-3.47,-3.00,-3.02,6.79,6.81,6.81
82.16,10.26,3.50,10.27,3.53,-3.53,-3.05,-3.07,6.73,6.74,6.76
82.98,10.26,3.57,10.26,3.58,-3.58,-3.10,-3.13,6.68,6.68,6.69
83.81,10.26,3.64,10.25,3.64,-3.64,-3.15,-3.18,6.62,6.61,6.62
84.65,10.26,3.72,10.24,3.71,-3.71,-3.20,-3.24,6.55,6.54,6.54
85.50,10.26,3.80,10.24,3.77,-3.77,-3.25,-3.31,6.49,6.47,6.46
86.35,10.26,3.87,10.22,3.83,-3.83,-3.31,-3.37,6.43,6.39,6.39
87.22,10.26,3.94,10.21,3.89,-3.89,-3.36,-3.44,6.37,6.32,6.32
88.09,10.26,4.02,10.19,3.94,-3.94,-3.41,-3.51,6.32,6.24,6.24
88.97,10.26,4.10,10.17,4.00,-4.00,-3.46,-3.58,6.26,6.17,6.16
89.86,10.10,4.01,10.15,4.06,-4.06,-3.52,-3.66,6.04,6.09,6.09
90.76,10.04,4.03,10.14,4.13,-4.13,-3.57,-3.74,5.91,6.01,6.01
91.66,10.03,4.10,10.11,4.19,-4.19,-3.62,-3.82,5.84,5.93,5.93
92.58,10.03,4.17,10.09,4.24,-4.24,-3.68,-3.90,5.79,5.85,5.86
93.51,10.03,4.26,10.06,4.29,-4.29,-3.73,-3.99,5.74,5.77,5.77
94.44,10.03,4.33,10.03,4.35,-4.35,-3.79,-4.08,5.68,5.68,5.70
95.39,10.03,4.42,10.00,4.40,-4.40,-3.84,-4.17,5.63,5.60,5.61
96.34,10.03,4.51,9.97,4.45,-4.45,-3.90,-4.26,5.58,5.52,5.52
97.30,10.03,4.59,9.95,4.51,-4.51,-3.96,-4.36,5.52,5.44,5.44
98.28,10.03,4.68,9.93,4.57,-4.57,-4.01,-4.45,5.46,5.36,5.35
99.26,9.97,4.71,9.92,4.64,-4.64,-4.07,-4.55,5.33,5.28,5.26
100.25,9.81,4.62,9.91,4.71,-4.71,-4.13,-4.65,5.10,5.20,5.19
101.25,9.80,4.68,9.89,4.77,-4.77,-4.18,-4.76,5.03,5.12,5.12
102.27,9.80,4.76,9.86,4.82,-4.82,-4.24,-4.86,4.98,5.04,5.04
103.29,9.80,4.83,9.83,4.86,-4.86,-4.30,-4.96,4.94,4.97,4.97
104.32,9.80,4.90,9.80,4.91,-4.91,-4.36,-5.07,4.89,4.90,4.90
105.37,9.80,4.98,9.77,4.95,-4.95,-4.42,-5.17,4.85,4.83,4.82
106.42,9.80,5.04,9.74,4.99,-4.99,-4.48,-5.28,4.81,4.75,4.76
107.48,9.80,5.13,9.71,5.03,-5.03,-4.53,-5.38,4.77,4.68,4.67
108.56,9.80,5.18,9.70,5.09,-5.09,-4.59,-5.49,4.71,4.61,4.62
109.64,9.66,5.12,9.68,5.14,-5.14,-4.65,-5.59,4.52,4.54,4.54
110.74,9.57,5.09,9.67,5.20,-5.20,-4.71,-5.69,4.37,4.47,4.48
111.85,9.57,5.17,9.65,5.25,-5.25,-4.77,-5.78,4.32,4.40,4.40
112.97,9.57,5.23,9.62,5.30,-5.30,-4.83,-5.88,4.27,4.33,4.34
114.10,9.57,5.31,9.60,5.34,-5.34,-4.89,-5.96,4.23,4.25,4.26
115.24,9.57,5.39,9.57,5.39,-5.39,-4.95,-6.05,4.18,4.18,4.18
116.39,9.57,5.47,9.55,5.44,-5.44,-5.01,-6.13,4.13,4.10,4.10
117.55,9.57,5.54,9.52,5.49,-5.49,-5.07,-6.20,4.08,4.03,4.03
118.73,9.57,5.63,9.48,5.53,-5.53,-5.13,-6.27,4.04,3.95,3.94
119.92,9.56,5.70,9.45,5.58,-5.58,-5.19,-6.33,3.98,3.87,3.86
121.12,9.35,5.55,9.42,5.63,-5.63,-5.25,-6.38,3.72,3.79,3.80
122.33,9.34,5.63,9.40,5.68,-5.68,-5.31,-6.43,3.66,3.71,3.71
123.55,9.34,5.70,9.37,5.74,-5.74,-5.37,-6.47,3.60,3.63,3.64
124.79,9.34,5.78,9.34,5.78,-5.78,-5.43,-6.50,3.56,3.55,3.56
126.03,9.34,5.86,9.30,5.82,-5.82,-5.49,-6.53,3.52,3.48,3.48
127.29,9.27,5.87,9.26,5.86,-5.86,-5.54,-6.54,3.41,3.40,3.40
128.57,9.17,5.85,9.21,5.90,-5.90,-5.60,-6.55,3.27,3.32,3.32
129.85,9.12,5.88,9.17,5.93,-5.93,-5.66,-6.56,3.19,3.24,3.24
131.15,9.12,5.96,9.14,5.98,-5.98,-5.72,-6.55,3.14,3.16,3.16
132.46,9.12,6.04,9.11,6.02,-6.02,-5.78,-6.54,3.10,3.09,3.08
133.79,9.12,6.11,9.08,6.07,-6.07,-5.83,-6.52,3.05,3.01,3.01
135.12,9.11,6.18,9.05,6.12,-6.12,-5.89,-6.50,2.99,2.94,2.93
136.48,9.06,6.20,9.01,6.15,-6.15,-5.94,-6.48,2.91,2.86,2.87
137.84,8.91,6.11,8.97,6.18,-6.18,-6.00,-6.44,2.73,2.79,2.80
139.22,8.89,6.17,8.94,6.21,-6.21,-6.05,-6.41,2.68,2.72,2.72
140.61,8.89,6.24,8.91,6.25,-6.25,-6.11,-6.37,2.64,2.66,2.65
142.02,8.89,6.30,8.88,6.29,-6.29,-6.16,-6.33,2.60,2.59,2.59
143.44,8.89,6.37,8.85,6.32,-6.32,-6.21,-6.29,2.57,2.53,2.52
144.87,8.89,6.42,8.81,6.35,-6.35,-6.26,-6.25,2.54,2.46,2.47
146.32,8.74,6.33,8.77,6.37,-6.37,-6.31,-6.20,2.37,2.40,2.41
147.78,8.66,6.32,8.73,6.39,-6.39,-6.36,-6.16,2.27,2.34,2.34
149.26,8.66,6.38,8.69,6.42,-6.42,-6.41,-6.11,2.24,2.28,2.28
150.75,8.66,6.45,8.66,6.45,-6.45,-6.46,-6.07,2.21,2.22,2.21
152.26,8.66,6.50,8.63,6.48,-6.48,-6.50,-6.03,2.18,2.16,2.16
153.78,8.66,6.56,8.60,6.50,-6.50,-6.55,-5.99,2.16,2.10,2.10
155.32,8.61,6.57,8.57,6.53,-6.53,-6.59,-5.96,2.08,2.04,2.04
156.88,8.45,6.47,8.53,6.55,-6.55,-6.63,-5.92,1.90,1.98,1.98
158.44,8.43,6.51,8.49,6.57,-6.57,-6.68,-5.89,1.86,1.92,1.92
160.03,8.43,6.57,8.45,6.59,-6.59,-6.71,-5.86,1.84,1.86,1.86
161.63,8.43,6.63,8.41,6.61,-6.61,-6.75,-5.83,1.82,1.80,1.80
163.24,8.43,6.70,8.37,6.63,-6.63,-6.79,-5.81,1.80,1.74,1.73
164.88,8.43,6.75,8.33,6.65,-6.65,-6.82,-5.79,1.78,1.68,1.68
166.53,8.26,6.65,8.29,6.67,-6.67,-6.86,-5.78,1.59,1.62,1.61
168.19,8.21,6.64,8.24,6.68,-6.68,-6.89,-5.77,1.53,1.56,1.57
169.87,8.21,6.70,8.20,6.70,-6.70,-6.92,-5.76,1.51,1.50,1.51
171.57,8.21,6.77,8.16,6.71,-6.71,-6.95,-5.76,1.50,1.44,1.44
173.29,8.07,6.69,8.12,6.74,-6.74,-6.97,-5.77,1.33,1.38,1.38
175.02,7.98,6.65,8.08,6.76,-6.76,-7.00,-5.77,1.22,1.32,1.33
176.77,7.98,6.72,8.03,6.78,-6.78,-7.02,-5.78,1.20,1.26,1.26
178.54,7.98,6.78,7.98,6.78,-6.78,-7.04,-5.80,1.20,1.20,1.20
180.32,7.98,6.84,7.94,6.80,-6.80,-7.06,-5.82,1.18,1.14,1.14
182.13,7.98,6.91,7.89,6.81,-6.81,-7.08,-5.84,1.17,1.08,1.07
183.95,7.89,6.87,7.85,6.83,-6.83,-7.09,-5.87,1.06,1.02,1.02
185.79,7.76,6.81,7.81,6.85,-6.85,-7.10,-5.91,0.91,0.96,0.95
187.65,7.75,6.85,7.75,6.85,-6.85,-7.11,-5.94,0.90,0.90,0.90
189.52,7.75,6.91,7.71,6.86,-6.86,-7.12,-5.99,0.89,0.84,0.84
191.42,7.69,6.90,7.66,6.87,-6.87,-7.13,-6.03,0.82,0.79,0.79
193.33,7.57,6.83,7.62,6.88,-6.88,-7.13,-6.08,0.69,0.73,0.74
195.27,7.52,6.84,7.57,6.88,-6.88,-7.13,-6.13,0.64,0.68,0.68
197.22,7.52,6.89,7.51,6.88,-6.88,-7.13,-6.19,0.64,0.63,0.63
199.19,7.51,6.93,7.46,6.87,-6.87,-7.13,-6.25,0.64,0.59,0.58
201.18,7.38,6.85,7.41,6.87,-6.87,-7.12,-6.31,0.51,0.54,0.53
203.19,7.29,6.80,7.36,6.86,-6.86,-7.12,-6.37,0.43,0.50,0.49
205.23,7.29,6.83,7.31,6.86,-6.86,-7.11,-6.44,0.43,0.45,0.46
207.28,7.29,6.87,7.27,6.86,-6.86,-7.10,-6.51,0.43,0.41,0.42
209.35,7.29,6.92,7.22,6.85,-6.85,-7.08,-6.58,0.44,0.37,0.37
211.44,7.17,6.84,7.17,6.84,-6.84,-7.07,-6.65,0.33,0.33,0.33
213.56,7.08,6.79,7.12,6.83,-6.83,-7.05,-6.72,0.25,0.29,0.29
215.69,7.07,6.81,7.07,6.82,-6.82,-7.03,-6.79,0.25,0.25,0.26
217.85,7.07,6.85,7.02,6.81,-6.81,-7.01,-6.86,0.26,0.21,0.22
220.03,6.98,6.80,6.97,6.79,-6.79,-6.99,-6.93,0.19,0.18,0.18
222.23,6.87,6.74,6.92,6.78,-6.78,-6.96,-6.99,0.09,0.14,0.13
224.45,6.84,6.74,6.88,6.78,-6.78,-6.93,-7.05,0.06,0.10,0.10
226.70,6.84,6.77,6.83,6.76,-6.76,-6.90,-7.11,0.08,0.07,0.07
228.96,6.84,6.80,6.78,6.74,-6.74,-6.87,-7.16,0.10,0.04,0.04
231.25,6.67,6.66,6.72,6.71,-6.71,-6.84,-7.21,-0.04,0.01,0.01
233.57,6.61,6.63,6.67,6.69,-6.69,-6.80,-7.25,-0.08,-0.02,-0.02
235.90,6.61,6.66,6.62,6.67,-6.67,-6.77,-7.29,-0.06,-0.05,-0.05
238.26,6.61,6.70,6.56,6.64,-6.64,-6.73,-7.31,-0.03,-0.08,-0.09
240.64,6.61,6.71,6.50,6.61,-6.61,-6.69,-7.33,0.00,-0.11,-0.10
243.05,6.45,6.58,6.44,6.57,-6.57,-6.65,-7.34,-0.12,-0.13,-0.13
245.48,6.38,6.54,6.38,6.54,-6.54,-6.60,-7.34,-0.16,-0.15,-0.16
247.93,6.38,6.56,6.33,6.51,-6.51,-6.56,-7.33,-0.13,-0.18,-0.18
250.41,6.19,6.38,6.27,6.47,-6.47,-6.51,-7.31,-0.28,-0.20,-0.19
252.92,6.15,6.36,6.22,6.43,-6.43,-6.47,-7.29,-0.28,-0.21,-0.21
255.45,6.15,6.39,6.17,6.40,-6.40,-6.42,-7.25,-0.25,-0.23,-0.24
258.00,6.15,6.40,6.12,6.37,-6.37,-6.37,-7.20,-0.22,-0.25,-0.25
260.58,6.01,6.27,6.06,6.32,-6.32,-6.32,-7.14,-0.31,-0.26,-0.26
263.19,5.94,6.22,5.99,6.27,-6.27,-6.26,-7.08,-0.33,-0.28,-0.28
265.82,5.93,6.22,5.94,6.23,-6.23,-6.21,-7.01,-0.30,-0.29,-0.29
268.48,5.93,6.23,5.88,6.18,-6.18,-6.16,-6.92,-0.25,-0.30,-0.30
271.16,5.93,6.23,5.83,6.14,-6.14,-6.10,-6.84,-0.21,-0.31,-0.30
273.87,5.84,6.16,5.78,6.10,-6.10,-6.04,-6.74,-0.26,-0.32,-0.32
276.61,5.72,6.05,5.73,6.05,-6.05,-5.99,-6.64,-0.33,-0.33,-0.33
279.38,5.70,6.05,5.67,6.01,-6.01,-5.93,-6.54,-0.31,-0.34,-0.35
282.17,5.53,5.88,5.60,5.94,-5.94,-5.87,-6.43,-0.41,-0.34,-0.35
284.99,5.47,5.82,5.54,5.89,-5.89,-5.81,-6.32,-0.42,-0.35,-0.35
287.84,5.47,5.82,5.48,5.83,-5.83,-5.75,-6.20,-0.36,-0.35,-0.35
290.72,5.47,5.83,5.42,5.77,-5.77,-5.69,-6.08,-0.30,-0.35,-0.36
293.63,5.36,5.71,5.36,5.71,-5.71,-5.63,-5.96,-0.35,-0.36,-0.36
296.57,5.26,5.61,5.29,5.65,-5.65,-5.56,-5.84,-0.39,-0.36,-0.35
299.53,5.24,5.60,5.23,5.59,-5.59,-5.50,-5.72,-0.35,-0.36,-0.36
302.53,5.24,5.59,5.17,5.53,-5.53,-5.44,-5.60,-0.29,-0.36,-0.35
305.55,5.04,5.40,5.11,5.47,-5.47,-5.37,-5.48,-0.43,-0.36,-0.36
308.61,5.01,5.36,5.06,5.42,-5.42,-5.31,-5.36,-0.41,-0.36,-0.35
311.69,5.01,5.37,5.00,5.36,-5.36,-5.25,-5.25,-0.35,-0.36,-0.36
314.81,5.01,5.37,4.95,5.30,-5.30,-5.18,-5.13,-0.30,-0.36,-0.36
317.96,4.87,5.23,4.89,5.25,-5.25,-5.12,-5.02,-0.38,-0.36,-0.36
321.14,4.79,5.15,4.83,5.19,-5.19,-5.05,-4.90,-0.40,-0.36,-0.36
324.35,4.79,5.16,4.77,5.12,-5.12,-4.99,-4.80,-0.33,-0.36,-0.37
327.59,4.75,5.09,4.72,5.07,-5.07,-4.92,-4.69,-0.32,-0.35,-0.34
330.87,4.61,4.96,4.66,5.01,-5.01,-4.85,-4.58,-0.40,-0.35,-0.35
334.18,4.56,4.91,4.60,4.94,-4.94,-4.79,-4.48,-0.38,-0.35,-0.35
337.52,4.56,4.91,4.53,4.87,-4.87,-4.72,-4.38,-0.31,-0.34,-0.35
340.90,4.55,4.88,4.47,4.81,-4.81,-4.65,-4.29,-0.26,-0.34,-0.33
344.30,4.38,4.71,4.41,4.74,-4.74,-4.59,-4.20,-0.36,-0.33,-0.33
347.75,4.33,4.65,4.34,4.66,-4.66,-4.52,-4.11,-0.33,-0.32,-0.32
351.23,4.33,4.66,4.27,4.59,-4.59,-4.45,-4.02,-0.26,-0.32,-0.33
354.74,4.23,4.53,4.21,4.52,-4.52,-4.39,-3.94,-0.29,-0.31,-0.30
358.28,4.12,4.43,4.15,4.45,-4.45,-4.32,-3.85,-0.33,-0.31,-0.31
361.87,4.10,4.40,4.08,4.38,-4.38,-4.25,-3.78,-0.28,-0.30,-0.30
365.49,3.94,4.23,4.02,4.32,-4.32,-4.19,-3.70,-0.38,-0.30,-0.29
369.14,3.88,4.17,3.96,4.25,-4.25,-4.12,-3.63,-0.37,-0.29,-0.29
372.83,3.87,4.15,3.89,4.17,-4.17,-4.05,-3.56,-0.30,-0.29,-0.28
376.56,3.87,4.15,3.81,4.09,-4.09,-3.98,-3.49,-0.22,-0.28,-0.28
380.33,3.78,4.06,3.74,4.02,-4.02,-3.92,-3.43,-0.24,-0.28,-0.28
384.13,3.67,3.94,3.68,3.96,-3.96,-3.85,-3.37,-0.29,-0.28,-0.27
387.97,3.65,3.92,3.61,3.89,-3.89,-3.78,-3.31,-0.24,-0.27,-0.27
391.85,3.64,3.91,3.55,3.82,-3.82,-3.72,-3.26,-0.18,-0.27,-0.27
395.77,3.48,3.76,3.50,3.76,-3.76,-3.65,-3.20,-0.28,-0.27,-0.28
399.73,3.42,3.69,3.44,3.70,-3.70,-3.58,-3.15,-0.28,-0.26,-0.27
403.72,3.33,3.58,3.38,3.63,-3.63,-3.52,-3.10,-0.30,-0.26,-0.25
407.76,3.22,3.48,3.31,3.56,-3.56,-3.45,-3.05,-0.34,-0.25,-0.26
411.84,3.19,3.43,3.24,3.49,-3.49,-3.38,-3.01,-0.30,-0.24,-0.24
415.96,3.19,3.42,3.18,3.42,-3.42,-3.32,-2.96,-0.23,-0.23,-0.23
420.12,3.19,3.42,3.12,3.35,-3.35,-3.25,-2.92,-0.16,-0.23,-0.23
424.32,3.17,3.39,3.06,3.28,-3.28,-3.18,-2.88,-0.11,-0.22,-0.22
428.56,3.02,3.22,3.00,3.21,-3.21,-3.12,-2.84,-0.19,-0.21,-0.20
432.85,2.96,3.15,2.95,3.14,-3.14,-3.05,-2.80,-0.18,-0.19,-0.19
437.18,2.86,3.04,2.90,3.08,-3.08,-2.98,-2.76,-0.22,-0.18,-0.18
441.55,2.77,2.94,2.85,3.02,-3.02,-2.92,-2.72,-0.25,-0.17,-0.17
445.96,2.74,2.90,2.79,2.95,-2.95,-2.85,-2.68,-0.21,-0.16,-0.16
450.42,2.74,2.89,2.75,2.89,-2.89,-2.79,-2.64,-0.15,-0.14,-0.15
454.93,2.74,2.87,2.70,2.83,-2.83,-2.72,-2.60,-0.09,-0.13,-0.13
459.48,2.69,2.81,2.64,2.76,-2.76,-2.65,-2.56,-0.07,-0.12,-0.12
464.07,2.54,2.64,2.58,2.68,-2.68,-2.59,-2.52,-0.14,-0.10,-0.10
468.71,2.51,2.59,2.52,2.61,-2.61,-2.52,-2.48,-0.10,-0.09,-0.08
473.40,2.51,2.58,2.48,2.55,-2.55,-2.45,-2.44,-0.04,-0.08,-0.07
478.13,2.51,2.57,2.43,2.49,-2.49,-2.39,-2.40,0.02,-0.06,-0.06
482.91,2.33,2.38,2.38,2.42,-2.42,-2.32,-2.36,-0.09,-0.04,-0.05
