frequency,raw,error,smoothed,error_smoothed,equalization,parametric_eq,fixed_band_eq,equalized_raw,equalized_smoothed,target
20.00,1.01,-3.87,1.02,-3.89,3.89,3.72,0.97,4.90,4.91,4.89
20.20,1.09,-3.84,1.10,-3.85,3.85,3.69,1.00,4.95,4.95,4.94
20.40,1.17,-3.81,1.18,-3.81,3.81,3.65,1.03,4.99,4.99,4.99
20.61,1.25,-3.76,1.25,-3.77,3.77,3.62,1.06,5.03,5.02,5.02
20.81,1.33,-3.73,1.32,-3.73,3.73,3.58,1.09,5.07,5.05,5.07
21.02,1.41,-3.69,1.39,-3.69,3.69,3.54,1.13,5.10,5.08,5.11
21.23,1.46,-3.66,1.46,-3.65,3.65,3.51,1.16,5.11,5.11,5.13
21.44,1.52,-3.62,1.53,-3.60,3.60,3.47,1.20,5.13,5.13,5.15
21.66,1.58,-3.58,1.59,-3.56,3.56,3.43,1.24,5.14,5.15,5.17
21.87,1.64,-3.53,1.66,-3.51,3.51,3.40,1.28,5.16,5.17,5.18
22.09,1.70,-3.49,1.72,-3.47,3.47,3.36,1.32,5.17,5.18,5.20
22.31,1.76,-3.44,1.78,-3.42,3.42,3.32,1.36,5.18,5.20,5.21
22.54,1.83,-3.37,1.84,-3.37,3.37,3.29,1.40,5.20,5.20,5.21
22.76,1.89,-3.31,1.89,-3.31,3.31,3.25,1.44,5.21,5.21,5.21
22.99,1.96,-3.23,1.95,-3.26,3.26,3.21,1.49,5.22,5.21,5.20
23.22,2.01,-3.18,2.00,-3.21,3.21,3.17,1.53,5.22,5.21,5.20
23.45,2.06,-3.13,2.05,-3.16,3.16,3.13,1.58,5.22,5.21,5.20
23.69,2.11,-3.09,2.11,-3.10,3.10,3.10,1.62,5.22,5.21,5.21
23.92,2.15,-3.05,2.16,-3.05,3.05,3.06,1.67,5.21,5.21,5.21
24.16,2.20,-3.00,2.21,-3.00,3.00,3.02,1.72,5.21,5.21,5.21
24.40,2.25,-2.96,2.26,-2.95,2.95,2.98,1.77,5.21,5.21,5.22
24.65,2.29,-2.91,2.30,-2.90,2.90,2.94,1.82,5.20,5.21,5.21
24.89,2.34,-2.86,2.35,-2.85,2.85,2.91,1.87,5.20,5.21,5.21
25.14,2.39,-2.81,2.40,-2.81,2.81,2.87,1.92,5.20,5.21,5.21
25.39,2.44,-2.77,2.45,-2.76,2.76,2.83,1.97,5.21,5.21,5.22
25.65,2.48,-2.73,2.49,-2.72,2.72,2.79,2.02,5.20,5.21,5.22
25.91,2.53,-2.67,2.54,-2.67,2.67,2.75,2.08,5.20,5.21,5.21
26.16,2.58,-2.62,2.58,-2.63,2.63,2.71,2.13,5.21,5.21,5.21
26.43,2.64,-2.56,2.63,-2.58,2.58,2.67,2.18,5.22,5.21,5.21
26.69,2.69,-2.51,2.67,-2.53,2.53,2.64,2.23,5.23,5.21,5.21
26.96,2.74,-2.46,2.72,-2.49,2.49,2.60,2.27,5.23,5.20,5.21
27.23,2.77,-2.43,2.76,-2.44,2.44,2.56,2.32,5.21,5.20,5.21
27.50,2.80,-2.40,2.81,-2.39,2.39,2.52,2.37,5.20,5.20,5.21
27.77,2.82,-2.37,2.85,-2.35,2.35,2.48,2.41,5.17,5.20,5.20
28.05,2.85,-2.34,2.90,-2.30,2.30,2.44,2.45,5.16,5.20,5.20
28.33,2.91,-2.27,2.94,-2.26,2.26,2.41,2.49,5.17,5.20,5.19
28.62,2.96,-2.22,2.98,-2.22,2.22,2.37,2.53,5.18,5.19,5.19
28.90,3.02,-2.17,3.02,-2.18,2.18,2.33,2.56,5.20,5.19,5.20
29.19,3.07,-2.11,3.06,-2.13,2.13,2.29,2.59,5.21,5.19,5.19
29.48,3.12,-2.07,3.10,-2.09,2.09,2.25,2.61,5.21,5.19,5.20
29.78,3.16,-2.02,3.14,-2.05,2.05,2.22,2.63,5.21,5.19,5.19
30.08,3.20,-1.99,3.18,-2.01,2.01,2.18,2.65,5.21,5.19,5.20
30.38,3.22,-1.96,3.21,-1.97,1.97,2.14,2.66,5.20,5.19,5.19
30.68,3.23,-1.95,3.25,-1.94,1.94,2.10,2.67,5.17,5.18,5.19
30.99,3.25,-1.93,3.28,-1.90,1.90,2.07,2.68,5.15,5.18,5.19
31.30,3.30,-1.87,3.32,-1.86,1.86,2.03,2.68,5.16,5.18,5.18
31.61,3.35,-1.82,3.35,-1.83,1.83,1.99,2.67,5.18,5.18,5.18
31.93,3.41,-1.76,3.38,-1.80,1.80,1.96,2.66,5.21,5.17,5.18
32.24,3.42,-1.74,3.40,-1.77,1.77,1.92,2.64,5.19,5.17,5.17
32.57,3.42,-1.74,3.43,-1.73,1.73,1.88,2.62,5.16,5.17,5.17
32.89,3.42,-1.74,3.46,-1.70,1.70,1.85,2.60,5.12,5.16,5.17
33.22,3.46,-1.69,3.50,-1.66,1.66,1.81,2.57,5.13,5.16,5.16
33.55,3.53,-1.62,3.53,-1.62,1.62,1.77,2.54,5.16,5.15,5.16
33.89,3.59,-1.55,3.56,-1.58,1.58,1.74,2.50,5.18,5.15,5.15
34.23,3.61,-1.53,3.60,-1.55,1.55,1.70,2.46,5.16,5.14,5.15
34.57,3.61,-1.52,3.63,-1.51,1.51,1.66,2.42,5.12,5.14,5.14
34.92,3.61,-1.52,3.66,-1.48,1.48,1.63,2.38,5.09,5.13,5.14
35.27,3.66,-1.46,3.69,-1.44,1.44,1.59,2.33,5.10,5.13,5.13
35.62,3.73,-1.39,3.72,-1.41,1.41,1.56,2.28,5.14,5.13,5.13
35.97,3.80,-1.32,3.75,-1.37,1.37,1.52,2.22,5.18,5.13,5.13
36.33,3.81,-1.31,3.78,-1.34,1.34,1.49,2.17,5.16,5.12,5.13
36.70,3.81,-1.30,3.81,-1.32,1.32,1.45,2.11,5.13,5.12,5.12
37.06,3.82,-1.29,3.83,-1.29,1.29,1.42,2.06,5.12,5.12,5.12
37.43,3.85,-1.27,3.85,-1.27,1.27,1.38,2.00,5.12,5.12,5.13
37.81,3.88,-1.24,3.88,-1.25,1.25,1.35,1.94,5.13,5.12,5.13
38.19,3.91,-1.20,3.91,-1.22,1.22,1.31,1.88,5.13,5.12,5.12
38.57,3.92,-1.20,3.94,-1.19,1.19,1.28,1.82,5.11,5.13,5.13
38.95,3.93,-1.20,3.96,-1.16,1.16,1.24,1.77,5.10,5.13,5.14
39.34,3.96,-1.16,3.99,-1.14,1.14,1.21,1.71,5.10,5.13,5.13
39.74,3.99,-1.13,4.01,-1.11,1.11,1.17,1.65,5.11,5.13,5.13
40.14,4.02,-1.10,4.04,-1.09,1.09,1.14,1.59,5.11,5.13,5.13
40.54,4.06,-1.06,4.06,-1.06,1.06,1.10,1.53,5.13,5.12,5.13
40.94,4.09,-1.02,4.09,-1.03,1.03,1.07,1.48,5.13,5.12,5.12
41.35,4.13,-0.98,4.11,-1.00,1.00,1.04,1.42,5.14,5.11,5.12
41.76,4.17,-0.93,4.14,-0.97,0.97,1.00,1.37,5.15,5.11,5.11
42.18,4.19,-0.91,4.16,-0.94,0.94,0.97,1.31,5.13,5.10,5.11
42.60,4.19,-0.90,4.18,-0.91,0.91,0.93,1.26,5.10,5.09,5.10
43.03,4.19,-0.89,4.20,-0.88,0.88,0.90,1.21,5.07,5.08,5.09
43.46,4.19,-0.88,4.22,-0.85,0.85,0.87,1.15,5.04,5.07,5.08
43.90,4.19,-0.86,4.24,-0.82,0.82,0.83,1.10,5.01,5.05,5.06
44.33,4.22,-0.81,4.25,-0.79,0.79,0.80,1.05,5.02,5.04,5.04
44.78,4.26,-0.75,4.26,-0.77,0.77,0.77,1.00,5.03,5.03,5.02
45.23,4.28,-0.72,4.26,-0.75,0.75,0.73,0.96,5.04,5.02,5.01
45.68,4.29,-0.70,4.27,-0.73,0.73,0.70,0.91,5.03,5.00,5.00
46.13,4.29,-0.68,4.27,-0.72,0.72,0.67,0.86,5.01,4.99,4.98
46.60,4.29,-0.68,4.28,-0.70,0.70,0.63,0.82,4.99,4.97,4.98
47.06,4.29,-0.66,4.28,-0.68,0.68,0.60,0.77,4.97,4.96,4.96
47.53,4.29,-0.65,4.29,-0.65,0.65,0.57,0.73,4.95,4.94,4.95
48.01,4.29,-0.65,4.30,-0.63,0.63,0.53,0.69,4.93,4.93,4.95
48.49,4.29,-0.63,4.31,-0.61,0.61,0.50,0.65,4.90,4.92,4.93
48.97,4.29,-0.61,4.32,-0.58,0.58,0.47,0.61,4.88,4.90,4.91
49.46,4.29,-0.59,4.33,-0.56,0.56,0.43,0.56,4.85,4.89,4.89
49.96,4.29,-0.57,4.34,-0.53,0.53,0.40,0.53,4.83,4.88,4.87
50.46,4.34,-0.51,4.36,-0.50,0.50,0.37,0.49,4.85,4.86,4.86
50.96,4.39,-0.45,4.38,-0.47,0.47,0.33,0.45,4.87,4.85,4.85
51.47,4.39,-0.43,4.39,-0.45,0.45,0.30,0.41,4.84,4.84,4.83
51.99,4.40,-0.41,4.41,-0.42,0.42,0.27,0.37,4.82,4.82,4.82
52.51,4.45,-0.35,4.42,-0.39,0.39,0.23,0.34,4.84,4.81,4.81
53.03,4.49,-0.31,4.44,-0.36,0.36,0.20,0.30,4.85,4.80,4.81
53.56,4.48,-0.30,4.46,-0.33,0.33,0.17,0.26,4.81,4.78,4.79
54.10,4.48,-0.29,4.47,-0.30,0.30,0.13,0.23,4.79,4.77,4.78
54.64,4.48,-0.27,4.49,-0.28,0.28,0.10,0.19,4.76,4.76,4.76
55.18,4.48,-0.27,4.51,-0.25,0.25,0.06,0.16,4.73,4.75,4.76
55.74,4.48,-0.25,4.52,-0.22,0.22,0.03,0.12,4.70,4.74,4.74
56.29,4.48,-0.24,4.54,-0.19,0.19,-0.00,0.09,4.68,4.73,4.73
56.86,4.49,-0.22,4.55,-0.17,0.17,-0.04,0.05,4.66,4.72,4.72
57.42,4.53,-0.15,4.55,-0.15,0.15,-0.07,0.02,4.68,4.70,4.69
58.00,4.58,-0.09,4.55,-0.13,0.13,-0.11,-0.02,4.71,4.68,4.68
58.58,4.58,-0.08,4.55,-0.11,0.11,-0.14,-0.05,4.69,4.66,4.67
59.16,4.58,-0.06,4.54,-0.09,0.09,-0.18,-0.09,4.67,4.63,4.65
59.76,4.58,-0.04,4.54,-0.07,0.07,-0.21,-0.13,4.65,4.60,4.63
60.35,4.58,-0.00,4.53,-0.05,0.05,-0.25,-0.16,4.63,4.57,4.59
60.96,4.58,0.04,4.52,-0.02,0.02,-0.28,-0.20,4.61,4.54,4.55
61.57,4.51,0.01,4.50,-0.00,0.00,-0.32,-0.23,4.52,4.50,4.51
62.18,4.45,-0.01,4.48,0.01,-0.01,-0.35,-0.27,4.44,4.47,4.47
62.80,4.40,-0.01,4.46,0.04,-0.04,-0.39,-0.30,4.37,4.43,4.42
63.43,4.39,0.02,4.45,0.06,-0.06,-0.43,-0.34,4.33,4.38,4.38
64.07,4.39,0.07,4.43,0.10,-0.10,-0.46,-0.38,4.30,4.34,4.33
64.71,4.39,0.11,4.42,0.13,-0.13,-0.50,-0.42,4.26,4.29,4.29
65.35,4.39,0.15,4.41,0.17,-0.17,-0.54,-0.45,4.23,4.25,4.25
66.01,4.39,0.20,4.41,0.21,-0.21,-0.57,-0.49,4.19,4.20,4.20
66.67,4.39,0.25,4.40,0.25,-0.25,-0.61,-0.53,4.14,4.15,4.15
67.33,4.39,0.30,4.40,0.30,-0.30,-0.65,-0.57,4.10,4.10,4.10
68.01,4.39,0.34,4.39,0.34,-0.34,-0.69,-0.61,4.05,4.05,4.06
68.69,4.45,0.45,4.39,0.39,-0.39,-0.73,-0.66,4.06,4.00,4.01
69.37,4.48,0.53,4.40,0.44,-0.44,-0.77,-0.70,4.04,3.95,3.96
70.07,4.47,0.57,4.40,0.50,-0.50,-0.81,-0.74,3.97,3.90,3.91
70.77,4.42,0.57,4.41,0.56,-0.56,-0.85,-0.78,3.86,3.85,3.86
71.48,4.39,0.59,4.42,0.63,-0.63,-0.89,-0.83,3.77,3.79,3.81
72.19,4.37,0.64,4.42,0.69,-0.69,-0.93,-0.87,3.69,3.74,3.74
72.91,4.39,0.72,4.43,0.75,-0.75,-0.97,-0.92,3.64,3.68,3.68
73.64,4.38,0.76,4.44,0.82,-0.82,-1.01,-0.97,3.57,3.62,3.63
74.38,4.38,0.82,4.46,0.89,-0.89,-1.05,-1.01,3.49,3.57,3.57
75.12,4.41,0.91,4.47,0.96,-0.96,-1.09,-1.06,3.46,3.51,3.51
75.87,4.56,1.12,4.49,1.03,-1.03,-1.14,-1.11,3.53,3.46,3.45
76.63,4.59,1.20,4.52,1.11,-1.11,-1.18,-1.16,3.48,3.40,3.40
77.40,4.59,1.25,4.55,1.20,-1.20,-1.22,-1.22,3.40,3.35,3.35
78.17,4.58,1.30,4.58,1.28,-1.28,-1.27,-1.27,3.30,3.30,3.29
78.95,4.58,1.34,4.61,1.37,-1.37,-1.31,-1.32,3.21,3.24,3.25
79.74,4.62,1.43,4.65,1.45,-1.45,-1.36,-1.38,3.17,3.19,3.20
80.54,4.67,1.53,4.69,1.54,-1.54,-1.40,-1.44,3.14,3.15,3.15
81.35,4.72,1.63,4.72,1.63,-1.63,-1.45,-1.49,3.10,3.10,3.10
82.16,4.77,1.73,4.76,1.71,-1.71,-1.50,-1.55,3.06,3.05,3.05
82.98,4.77,1.77,4.80,1.80,-1.80,-1.54,-1.62,2.98,3.00,3.01
83.81,4.88,1.93,4.84,1.88,-1.88,-1.59,-1.68,3.00,2.96,2.96
84.65,4.86,1.96,4.87,1.96,-1.96,-1.64,-1.74,2.90,2.91,2.91
85.50,4.84,1.98,4.90,2.05,-2.05,-1.69,-1.81,2.80,2.86,2.87
86.35,4.88,2.07,4.95,2.14,-2.14,-1.74,-1.87,2.75,2.81,2.82
87.22,4.98,2.22,4.98,2.23,-2.23,-1.79,-1.94,2.76,2.76,2.77
88.09,5.03,2.32,5.01,2.30,-2.30,-1.84,-2.01,2.73,2.71,2.72
88.97,5.10,2.45,5.03,2.37,-2.37,-1.89,-2.08,2.73,2.66,2.66
89.86,5.07,2.47,5.05,2.44,-2.44,-1.94,-2.16,2.64,2.61,2.61
90.76,5.07,2.52,5.06,2.50,-2.50,-1.99,-2.23,2.57,2.56,2.56
91.66,5.07,2.57,5.06,2.55,-2.55,-2.05,-2.31,2.52,2.51,2.51
92.58,5.07,2.63,5.05,2.60,-2.60,-2.10,-2.39,2.48,2.46,2.45
93.51,5.07,2.68,5.04,2.64,-2.64,-2.16,-2.47,2.44,2.41,2.40
94.44,5.07,2.72,5.03,2.67,-2.67,-2.21,-2.55,2.40,2.35,2.36
95.39,5.05,2.75,5.01,2.71,-2.71,-2.27,-2.63,2.35,2.30,2.31
96.34,4.97,2.72,5.00,2.74,-2.74,-2.32,-2.71,2.23,2.26,2.26
97.30,4.91,2.71,4.98,2.77,-2.77,-2.38,-2.80,2.14,2.21,2.21
98.28,4.93,2.78,4.97,2.81,-2.81,-2.44,-2.88,2.12,2.16,2.16
99.26,4.93,2.82,4.96,2.84,-2.84,-2.49,-2.97,2.09,2.11,2.12
100.25,4.90,2.84,4.95,2.89,-2.89,-2.55,-3.06,2.02,2.06,2.07
101.25,4.86,2.85,4.94,2.93,-2.93,-2.61,-3.14,1.94,2.02,2.02
102.27,4.90,2.94,4.94,2.97,-2.97,-2.67,-3.23,1.93,1.97,1.97
103.29,4.94,3.03,4.94,3.02,-3.02,-2.73,-3.32,1.92,1.92,1.92
104.32,4.98,3.11,4.94,3.07,-3.07,-2.79,-3.41,1.91,1.87,1.88
105.37,5.04,3.22,4.95,3.13,-3.13,-2.85,-3.50,1.91,1.82,1.83
106.42,5.04,3.27,4.95,3.19,-3.19,-2.91,-3.59,1.86,1.77,1.78
107.48,4.98,3.27,4.96,3.24,-3.24,-2.98,-3.67,1.74,1.72,1.72
108.56,4.92,3.26,4.96,3.30,-3.30,-3.04,-3.76,1.62,1.66,1.67
109.64,4.91,3.30,4.97,3.36,-3.36,-3.10,-3.84,1.56,1.61,1.62
110.74,4.98,3.43,4.98,3.42,-3.42,-3.16,-3.92,1.57,1.56,1.56
111.85,4.99,3.48,4.99,3.48,-3.48,-3.23,-4.00,1.52,1.51,1.52
112.97,4.98,3.53,5.00,3.54,-3.54,-3.29,-4.08,1.44,1.46,1.46
114.10,4.98,3.58,5.00,3.60,-3.60,-3.35,-4.15,1.39,1.41,1.41
115.24,4.98,3.63,5.01,3.64,-3.64,-3.42,-4.22,1.34,1.36,1.36
116.39,4.95,3.65,5.01,3.69,-3.69,-3.48,-4.28,1.26,1.32,1.31
117.55,4.94,3.68,5.01,3.74,-3.74,-3.54,-4.34,1.21,1.28,1.27
118.73,5.04,3.82,5.02,3.78,-3.78,-3.60,-4.40,1.26,1.24,1.23
119.92,5.09,3.90,5.02,3.83,-3.83,-3.67,-4.45,1.27,1.20,1.20
121.12,5.10,3.95,5.03,3.87,-3.87,-3.73,-4.49,1.24,1.16,1.16
122.33,5.10,3.98,5.02,3.90,-3.90,-3.79,-4.53,1.21,1.13,1.13
123.55,5.06,3.97,5.01,3.92,-3.92,-3.85,-4.57,1.15,1.09,1.10
124.79,5.02,3.96,5.00,3.94,-3.94,-3.91,-4.60,1.09,1.06,1.07
126.03,4.95,3.92,4.99,3.96,-3.96,-3.97,-4.62,1.00,1.03,1.04
127.29,4.94,3.93,4.99,3.98,-3.98,-4.03,-4.64,0.96,1.00,1.02
128.57,4.95,3.98,4.99,4.01,-4.01,-4.08,-4.65,0.94,0.97,0.98
129.85,4.95,4.01,4.99,4.04,-4.04,-4.14,-4.65,0.91,0.95,0.95
131.15,4.96,4.05,4.99,4.07,-4.07,-4.19,-4.65,0.89,0.92,0.92
132.46,4.96,4.08,4.99,4.10,-4.10,-4.25,-4.65,0.86,0.89,0.89
133.79,4.97,4.12,5.00,4.14,-4.14,-4.30,-4.64,0.83,0.86,0.86
135.12,4.95,4.13,5.02,4.18,-4.18,-4.34,-4.63,0.77,0.83,0.83
136.48,4.99,4.19,5.04,4.23,-4.23,-4.39,-4.61,0.76,0.81,0.81
137.84,5.06,4.30,5.07,4.29,-4.29,-4.44,-4.59,0.77,0.78,0.77
139.22,5.14,4.41,5.10,4.35,-4.35,-4.48,-4.57,0.80,0.75,0.74
140.61,5.19,4.49,5.12,4.40,-4.40,-4.52,-4.54,0.79,0.72,0.71
142.02,5.19,4.51,5.14,4.46,-4.46,-4.55,-4.51,0.74,0.69,0.69
143.44,5.18,4.53,5.16,4.51,-4.51,-4.59,-4.48,0.67,0.65,0.66
144.87,5.17,4.56,5.17,4.56,-4.56,-4.62,-4.45,0.61,0.61,0.62
146.32,5.17,4.60,5.18,4.61,-4.61,-4.65,-4.42,0.56,0.57,0.58
147.78,5.17,4.63,5.19,4.67,-4.67,-4.68,-4.39,0.50,0.52,0.55
149.26,5.18,4.69,5.19,4.72,-4.72,-4.70,-4.36,0.46,0.47,0.50
150.75,5.19,4.76,5.17,4.77,-4.77,-4.73,-4.33,0.43,0.41,0.44
152.26,5.15,4.79,5.15,4.80,-4.80,-4.75,-4.30,0.35,0.35,0.37
153.78,5.09,4.80,5.12,4.84,-4.84,-4.77,-4.27,0.26,0.28,0.30
155.32,5.08,4.86,5.07,4.86,-4.86,-4.79,-4.24,0.22,0.21,0.23
156.88,5.08,4.94,5.02,4.88,-4.88,-4.81,-4.22,0.20,0.14,0.15
158.44,5.03,4.97,4.98,4.91,-4.91,-4.83,-4.19,0.12,0.07,0.07
160.03,4.96,4.98,4.94,4.94,-4.94,-4.85,-4.17,0.03,0.00,-0.01
161.63,4.98,5.07,4.90,4.96,-4.96,-4.88,-4.15,0.02,-0.06,-0.08
163.24,4.87,5.02,4.87,4.99,-4.99,-4.90,-4.14,-0.12,-0.12,-0.14
164.88,4.77,4.97,4.83,5.01,-5.01,-4.93,-4.12,-0.24,-0.18,-0.19
166.53,4.73,4.98,4.81,5.03,-5.03,-4.96,-4.11,-0.30,-0.23,-0.24
168.19,4.70,4.99,4.79,5.05,-5.05,-4.99,-4.10,-0.35,-0.27,-0.28
169.87,4.65,4.98,4.77,5.07,-5.07,-5.03,-4.10,-0.42,-0.30,-0.32
171.57,4.63,4.98,4.77,5.09,-5.09,-5.07,-4.10,-0.46,-0.33,-0.34
173.29,4.76,5.12,4.76,5.11,-5.11,-5.11,-4.10,-0.34,-0.34,-0.35
175.02,4.88,5.25,4.77,5.13,-5.13,-5.15,-4.10,-0.25,-0.36,-0.36
176.77,4.84,5.22,4.79,5.15,-5.15,-5.19,-4.11,-0.31,-0.37,-0.37
178.54,4.84,5.23,4.80,5.18,-5.18,-5.24,-4.12,-0.33,-0.38,-0.38
180.32,4.84,5.22,4.82,5.20,-5.20,-5.28,-4.13,-0.35,-0.38,-0.37
182.13,4.85,5.22,4.85,5.23,-5.23,-5.32,-4.15,-0.38,-0.39,-0.36
183.95,4.86,5.24,4.88,5.27,-5.27,-5.36,-4.17,-0.40,-0.39,-0.37
185.79,4.87,5.25,4.90,5.29,-5.29,-5.39,-4.19,-0.42,-0.40,-0.37
187.65,4.88,5.28,4.91,5.31,-5.31,-5.42,-4.22,-0.43,-0.41,-0.39
189.52,4.90,5.31,4.91,5.32,-5.32,-5.45,-4.25,-0.42,-0.42,-0.40
191.42,4.91,5.34,4.90,5.33,-5.33,-5.48,-4.28,-0.41,-0.43,-0.42
193.33,4.93,5.38,4.88,5.32,-5.32,-5.49,-4.31,-0.39,-0.44,-0.44
195.27,4.86,5.33,4.86,5.32,-5.32,-5.51,-4.35,-0.46,-0.46,-0.46
197.22,4.83,5.32,4.85,5.33,-5.33,-5.52,-4.39,-0.50,-0.48,-0.48
199.19,4.89,5.40,4.84,5.34,-5.34,-5.52,-4.43,-0.44,-0.50,-0.50
201.18,4.92,5.45,4.82,5.34,-5.34,-5.52,-4.48,-0.41,-0.52,-0.52
203.19,4.79,5.34,4.80,5.34,-5.34,-5.51,-4.52,-0.54,-0.54,-0.54
205.23,4.66,5.23,4.78,5.34,-5.34,-5.50,-4.57,-0.67,-0.56,-0.56
207.28,4.66,5.24,4.76,5.34,-5.34,-5.49,-4.61,-0.68,-0.58,-0.57
209.35,4.68,5.28,4.74,5.34,-5.34,-5.46,-4.66,-0.65,-0.60,-0.59
211.44,4.69,5.32,4.70,5.32,-5.32,-5.44,-4.71,-0.63,-0.62,-0.62
213.56,4.68,5.32,4.67,5.30,-5.30,-5.41,-4.76,-0.62,-0.63,-0.63
215.69,4.68,5.33,4.64,5.29,-5.29,-5.37,-4.81,-0.60,-0.65,-0.64
217.85,4.68,5.34,4.62,5.28,-5.28,-5.34,-4.86,-0.60,-0.66,-0.65
220.03,4.58,5.25,4.59,5.26,-5.26,-5.30,-4.90,-0.68,-0.67,-0.66
222.23,4.55,5.25,4.56,5.23,-5.23,-5.25,-4.94,-0.68,-0.67,-0.69
224.45,4.63,5.32,4.54,5.22,-5.22,-5.20,-4.99,-0.58,-0.68,-0.68
226.70,4.54,5.23,4.52,5.20,-5.20,-5.15,-5.02,-0.65,-0.68,-0.68
228.96,4.48,5.16,4.50,5.17,-5.17,-5.10,-5.06,-0.69,-0.67,-0.67
231.25,4.36,5.03,4.47,5.14,-5.14,-5.04,-5.09,-0.77,-0.66,-0.66
233.57,4.33,4.99,4.45,5.10,-5.10,-4.98,-5.12,-0.76,-0.65,-0.65
235.90,4.39,5.04,4.42,5.05,-5.05,-4.93,-5.14,-0.66,-0.64,-0.64
238.26,4.48,5.12,4.38,5.00,-5.00,-4.86,-5.16,-0.52,-0.62,-0.63
240.64,4.39,5.00,4.36,4.96,-4.96,-4.80,-5.17,-0.56,-0.60,-0.60
243.05,4.26,4.84,4.33,4.91,-4.91,-4.74,-5.17,-0.64,-0.58,-0.57
245.48,4.28,4.84,4.29,4.85,-4.85,-4.67,-5.17,-0.57,-0.56,-0.55
247.93,4.32,4.85,4.26,4.80,-4.80,-4.61,-5.16,-0.47,-0.53,-0.52
250.41,4.22,4.73,4.23,4.74,-4.74,-4.54,-5.15,-0.52,-0.51,-0.50
252.92,4.26,4.74,4.21,4.69,-4.69,-4.47,-5.13,-0.43,-0.49,-0.47
255.45,4.18,4.64,4.17,4.63,-4.63,-4.40,-5.10,-0.44,-0.46,-0.45
258.00,4.05,4.49,4.11,4.55,-4.55,-4.33,-5.07,-0.49,-0.44,-0.43
260.58,4.01,4.43,4.05,4.46,-4.46,-4.27,-5.03,-0.44,-0.41,-0.41
263.19,3.98,4.37,3.98,4.36,-4.36,-4.20,-4.98,-0.38,-0.39,-0.38
265.82,3.97,4.34,3.91,4.27,-4.27,-4.13,-4.93,-0.29,-0.36,-0.36
268.48,3.85,4.20,3.85,4.19,-4.19,-4.06,-4.87,-0.33,-0.34,-0.34
271.16,3.82,4.14,3.78,4.10,-4.10,-3.99,-4.81,-0.27,-0.31,-0.31
273.87,3.83,4.13,3.70,3.99,-3.99,-3.92,-4.74,-0.16,-0.29,-0.29
276.61,3.62,3.89,3.62,3.88,-3.88,-3.85,-4.67,-0.26,-0.26,-0.26
279.38,3.48,3.72,3.55,3.78,-3.78,-3.79,-4.60,-0.30,-0.23,-0.23
282.17,3.33,3.55,3.48,3.68,-3.68,-3.72,-4.52,-0.35,-0.21,-0.21
284.99,3.36,3.54,3.42,3.60,-3.60,-3.65,-4.44,-0.24,-0.18,-0.17
287.84,3.41,3.57,3.38,3.53,-3.53,-3.59,-4.36,-0.11,-0.15,-0.15
290.72,3.34,3.47,3.34,3.46,-3.46,-3.52,-4.28,-0.11,-0.12,-0.12
293.63,3.30,3.40,3.30,3.39,-3.39,-3.46,-4.19,-0.08,-0.09,-0.09
296.57,3.27,3.34,3.26,3.32,-3.32,-3.39,-4.10,-0.05,-0.06,-0.06
299.53,3.11,3.15,3.24,3.27,-3.27,-3.33,-4.02,-0.16,-0.03,-0.03
302.53,3.11,3.13,3.22,3.23,-3.23,-3.26,-3.93,-0.11,-0.01,-0.01
305.55,3.19,3.17,3.20,3.19,-3.19,-3.20,-3.84,0.01,0.02,0.03
308.61,3.24,3.20,3.20,3.16,-3.16,-3.14,-3.76,0.08,0.04,0.05
311.69,3.29,3.22,3.20,3.13,-3.13,-3.08,-3.67,0.16,0.07,0.08
314.81,3.27,3.18,3.18,3.09,-3.09,-3.02,-3.59,0.18,0.09,0.10
317.96,3.23,3.12,3.16,3.05,-3.05,-2.96,-3.50,0.19,0.11,0.12
321.14,3.11,2.99,3.13,3.00,-3.00,-2.90,-3.42,0.11,0.13,0.13
324.35,3.04,2.90,3.11,2.96,-2.96,-2.84,-3.34,0.08,0.15,0.15
327.59,3.07,2.92,3.08,2.92,-2.92,-2.79,-3.26,0.16,0.16,0.16
330.87,3.08,2.92,3.04,2.87,-2.87,-2.73,-3.18,0.22,0.17,0.17
334.18,3.00,2.82,3.00,2.82,-2.82,-2.67,-3.11,0.19,0.19,0.19
337.52,2.96,2.77,2.95,2.75,-2.75,-2.62,-3.03,0.21,0.20,0.20
340.90,2.92,2.72,2.89,2.68,-2.68,-2.57,-2.96,0.24,0.20,0.21
344.30,2.85,2.64,2.83,2.62,-2.62,-2.51,-2.89,0.23,0.21,0.22
347.75,2.76,2.55,2.78,2.56,-2.56,-2.46,-2.83,0.20,0.22,0.22
351.23,2.73,2.51,2.74,2.52,-2.52,-2.41,-2.76,0.22,0.22,0.23
354.74,2.66,2.45,2.70,2.48,-2.48,-2.36,-2.70,0.18,0.22,0.22
358.28,2.64,2.42,2.68,2.45,-2.45,-2.31,-2.64,0.19,0.23,0.23
361.87,2.60,2.38,2.65,2.42,-2.42,-2.26,-2.58,0.18,0.23,0.23
365.49,2.56,2.33,2.62,2.39,-2.39,-2.21,-2.52,0.17,0.23,0.24
369.14,2.56,2.34,2.60,2.37,-2.37,-2.16,-2.46,0.19,0.23,0.23
372.83,2.57,2.35,2.58,2.36,-2.36,-2.12,-2.41,0.22,0.23,0.23
376.56,2.58,2.37,2.57,2.35,-2.35,-2.07,-2.36,0.24,0.23,0.22
380.33,2.59,2.37,2.57,2.34,-2.34,-2.03,-2.31,0.25,0.22,0.23
384.13,2.59,2.37,2.57,2.35,-2.35,-1.98,-2.26,0.25,0.22,0.23
387.97,2.60,2.39,2.56,2.35,-2.35,-1.94,-2.22,0.26,0.21,0.22
391.85,2.60,2.40,2.55,2.34,-2.34,-1.90,-2.17,0.26,0.21,0.21
395.77,2.57,2.36,2.54,2.34,-2.34,-1.85,-2.13,0.24,0.20,0.22
399.73,2.51,2.31,2.53,2.33,-2.33,-1.81,-2.09,0.18,0.20,0.21
403.72,2.50,2.30,2.52,2.33,-2.33,-1.77,-2.05,0.17,0.19,0.21
407.76,2.50,2.32,2.51,2.32,-2.32,-1.73,-2.01,0.18,0.19,0.19
411.84,2.50,2.32,2.50,2.32,-2.32,-1.69,-1.98,0.19,0.19,0.19
415.96,2.50,2.32,2.49,2.30,-2.30,-1.65,-1.94,0.20,0.19,0.19
420.12,2.50,2.32,2.47,2.29,-2.29,-1.62,-1.91,0.22,0.19,0.19
424.32,2.42,2.24,2.47,2.28,-2.28,-1.58,-1.88,0.15,0.19,0.19
428.56,2.39,2.20,2.47,2.27,-2.27,-1.54,-1.84,0.13,0.20,0.20
432.85,2.43,2.23,2.47,2.25,-2.25,-1.50,-1.81,0.18,0.22,0.21
437.18,2.48,2.27,2.48,2.24,-2.24,-1.47,-1.78,0.24,0.24,0.22
441.55,2.53,2.28,2.50,2.23,-2.23,-1.43,-1.75,0.30,0.27,0.26
445.96,2.49,2.21,2.51,2.21,-2.21,-1.40,-1.72,0.28,0.30,0.29
450.42,2.50,2.19,2.52,2.19,-2.19,-1.37,-1.70,0.32,0.33,0.32
454.93,2.52,2.16,2.53,2.16,-2.16,-1.33,-1.67,0.37,0.37,0.37
459.48,2.50,2.10,2.54,2.13,-2.13,-1.30,-1.64,0.38,0.42,0.41
464.07,2.58,2.13,2.55,2.08,-2.08,-1.27,-1.61,0.50,0.46,0.46
468.71,2.62,2.11,2.54,2.03,-2.03,-1.23,-1.58,0.59,0.51,0.52
473.40,2.53,1.98,2.54,1.98,-1.98,-1.20,-1.55,0.56,0.56,0.56
478.13,2.54,1.93,2.52,1.92,-1.92,-1.17,-1.53,0.63,0.61,0.62
482.91,2.56,1.91,2.50,1.85,-1.85,-1.14,-1.50,0.71,0.65,0.66
487.74,2.51,1.82,2.48,1.79,-1.79,-1.11,-1.47,0.73,0.70,0.70
492.62,2.42,1.68,2.45,1.72,-1.72,-1.08,-1.44,0.70,0.73,0.75
497.55,2.40,1.64,2.43,1.66,-1.66,-1.05,-1.41,0.74,0.76,0.77
502.52,2.40,1.61,2.39,1.61,-1.61,-1.03,-1.38,0.80,0.79,0.80
507.55,2.31,1.51,2.35,1.55,-1.55,-1.00,-1.35,0.76,0.80,0.81
512.62,2.18,1.37,2.31,1.50,-1.50,-0.97,-1.32,0.68,0.81,0.82
517.75,2.17,1.35,2.25,1.44,-1.44,-0.94,-1.29,0.73,0.80,0.83
522.93,2.22,1.41,2.19,1.40,-1.40,-0.92,-1.25,0.83,0.79,0.82
528.16,2.19,1.41,2.12,1.35,-1.35,-0.89,-1.22,0.84,0.77,0.79
533.44,2.10,1.35,2.04,1.30,-1.30,-0.86,-1.19,0.80,0.74,0.76
538.77,2.02,1.30,1.96,1.25,-1.25,-0.84,-1.15,0.77,0.71,0.73
