frequency,raw,error,smoothed,error_smoothed,equalization,parametric_eq,fixed_band_eq,equalized_raw,equalized_smoothed,target
20.00,-1.92,-5.64,-2.06,-5.81,5.81,5.24,1.79,3.89,3.75,3.72
20.20,-1.89,-5.66,-1.96,-5.74,5.74,5.20,1.84,3.85,3.79,3.77
20.40,-1.86,-5.68,-1.85,-5.67,5.67,5.16,1.90,3.81,3.82,3.82
20.61,-1.83,-5.68,-1.75,-5.61,5.61,5.12,1.96,3.77,3.85,3.85
20.81,-1.80,-5.70,-1.66,-5.54,5.54,5.08,2.01,3.74,3.88,3.90
21.02,-1.75,-5.69,-1.56,-5.47,5.47,5.04,2.08,3.72,3.91,3.94
21.23,-1.58,-5.54,-1.47,-5.41,5.41,5.00,2.14,3.83,3.94,3.96
21.44,-1.41,-5.39,-1.39,-5.35,5.35,4.96,2.20,3.94,3.96,3.98
21.66,-1.25,-5.24,-1.31,-5.28,5.28,4.91,2.27,4.04,3.98,4.00
21.87,-1.07,-5.08,-1.23,-5.22,5.22,4.86,2.34,4.15,4.00,4.01
22.09,-0.97,-5.00,-1.15,-5.16,5.16,4.82,2.41,4.19,4.01,4.02
22.31,-0.96,-5.00,-1.08,-5.10,5.10,4.77,2.48,4.14,4.02,4.03
22.54,-0.95,-4.99,-1.00,-5.03,5.03,4.72,2.56,4.08,4.03,4.03
22.76,-0.94,-4.98,-0.93,-4.96,4.96,4.67,2.63,4.02,4.03,4.03
22.99,-0.93,-4.96,-0.86,-4.89,4.89,4.62,2.71,3.96,4.04,4.02
23.22,-0.88,-4.90,-0.80,-4.83,4.83,4.58,2.79,3.95,4.04,4.02
23.45,-0.82,-4.84,-0.75,-4.79,4.79,4.53,2.87,3.96,4.04,4.02
23.69,-0.76,-4.79,-0.72,-4.75,4.75,4.47,2.95,3.99,4.04,4.03
23.92,-0.71,-4.74,-0.68,-4.72,4.72,4.42,3.04,4.01,4.04,4.03
24.16,-0.65,-4.69,-0.65,-4.69,4.69,4.37,3.13,4.04,4.04,4.04
24.40,-0.59,-4.64,-0.62,-4.66,4.66,4.32,3.22,4.06,4.04,4.05
24.65,-0.53,-4.57,-0.58,-4.61,4.61,4.27,3.30,4.08,4.03,4.04
24.89,-0.47,-4.51,-0.53,-4.57,4.57,4.22,3.39,4.10,4.04,4.04
25.14,-0.44,-4.48,-0.49,-4.52,4.52,4.17,3.49,4.08,4.04,4.03
25.39,-0.43,-4.48,-0.44,-4.48,4.48,4.12,3.58,4.05,4.04,4.04
25.65,-0.42,-4.47,-0.40,-4.44,4.44,4.07,3.67,4.02,4.04,4.04
25.91,-0.41,-4.44,-0.37,-4.40,4.40,4.02,3.76,3.99,4.04,4.03
26.16,-0.37,-4.40,-0.33,-4.37,4.37,3.97,3.86,4.00,4.04,4.03
26.43,-0.32,-4.35,-0.30,-4.33,4.33,3.92,3.95,4.01,4.03,4.03
26.69,-0.26,-4.29,-0.27,-4.30,4.30,3.87,4.04,4.03,4.03,4.03
26.96,-0.20,-4.24,-0.23,-4.26,4.26,3.82,4.13,4.05,4.03,4.04
27.23,-0.16,-4.20,-0.19,-4.21,4.21,3.77,4.21,4.05,4.03,4.03
27.50,-0.12,-4.16,-0.14,-4.17,4.17,3.72,4.30,4.04,4.02,4.03
27.77,-0.09,-4.11,-0.09,-4.11,4.11,3.67,4.38,4.02,4.02,4.02
28.05,-0.05,-4.07,-0.03,-4.05,4.05,3.62,4.46,4.00,4.02,4.02
28.33,-0.00,-4.01,0.03,-3.99,3.99,3.58,4.53,3.98,4.02,4.01
28.62,0.05,-3.96,0.09,-3.92,3.92,3.53,4.60,3.97,4.02,4.01
28.90,0.10,-3.92,0.15,-3.86,3.86,3.48,4.66,3.96,4.02,4.02
29.19,0.18,-3.83,0.21,-3.81,3.81,3.44,4.72,3.98,4.01,4.00
29.48,0.28,-3.74,0.26,-3.75,3.75,3.39,4.77,4.03,4.01,4.02
29.78,0.38,-3.63,0.31,-3.70,3.70,3.35,4.82,4.07,4.01,4.01
30.08,0.45,-3.57,0.36,-3.64,3.64,3.31,4.85,4.09,4.01,4.02
30.38,0.47,-3.54,0.41,-3.60,3.60,3.27,4.88,4.06,4.01,4.01
30.68,0.48,-3.53,0.46,-3.55,3.55,3.22,4.91,4.03,4.00,4.00
30.99,0.50,-3.50,0.50,-3.50,3.50,3.18,4.92,4.00,4.00,4.00
31.30,0.53,-3.47,0.54,-3.46,3.46,3.14,4.93,3.99,4.00,4.00
31.61,0.56,-3.44,0.57,-3.43,3.43,3.10,4.92,3.98,4.00,4.00
31.93,0.59,-3.41,0.60,-3.39,3.39,3.06,4.91,3.98,3.99,3.99
32.24,0.62,-3.36,0.63,-3.36,3.36,3.02,4.89,3.97,3.99,3.98
32.57,0.64,-3.35,0.66,-3.32,3.32,2.99,4.87,3.96,3.98,3.99
32.89,0.66,-3.33,0.68,-3.29,3.29,2.95,4.83,3.95,3.98,3.99
33.22,0.70,-3.28,0.71,-3.26,3.26,2.91,4.79,3.96,3.97,3.97
33.55,0.74,-3.23,0.74,-3.23,3.23,2.88,4.74,3.96,3.97,3.97
33.89,0.79,-3.17,0.78,-3.18,3.18,2.85,4.69,3.97,3.96,3.96
34.23,0.82,-3.15,0.82,-3.14,3.14,2.81,4.63,3.96,3.96,3.96
34.57,0.86,-3.09,0.85,-3.10,3.10,2.78,4.57,3.95,3.95,3.95
34.92,0.89,-3.06,0.89,-3.06,3.06,2.75,4.50,3.94,3.95,3.95
35.27,0.92,-3.02,0.92,-3.02,3.02,2.72,4.42,3.94,3.94,3.94
35.62,0.95,-2.99,0.95,-2.99,2.99,2.69,4.34,3.93,3.94,3.94
35.97,0.98,-2.96,0.98,-2.96,2.96,2.66,4.26,3.93,3.94,3.93
36.33,1.02,-2.92,1.01,-2.93,2.93,2.63,4.18,3.95,3.93,3.94
36.70,1.06,-2.87,1.03,-2.90,2.90,2.60,4.10,3.96,3.93,3.92
37.06,1.10,-2.82,1.05,-2.88,2.88,2.57,4.01,3.98,3.93,3.92
37.43,1.10,-2.84,1.07,-2.86,2.86,2.54,3.92,3.96,3.93,3.94
37.81,1.10,-2.83,1.09,-2.84,2.84,2.52,3.84,3.94,3.93,3.93
38.19,1.10,-2.83,1.10,-2.83,2.83,2.49,3.75,3.92,3.93,3.93
38.57,1.09,-2.84,1.11,-2.81,2.81,2.47,3.66,3.90,3.93,3.93
38.95,1.08,-2.86,1.13,-2.80,2.80,2.44,3.57,3.88,3.93,3.93
39.34,1.12,-2.81,1.14,-2.79,2.79,2.42,3.49,3.91,3.93,3.93
39.74,1.17,-2.76,1.15,-2.78,2.78,2.40,3.40,3.94,3.93,3.92
40.14,1.20,-2.73,1.16,-2.76,2.76,2.37,3.32,3.96,3.92,3.93
40.54,1.20,-2.72,1.18,-2.74,2.74,2.35,3.24,3.94,3.92,3.92
40.94,1.20,-2.72,1.20,-2.72,2.72,2.33,3.15,3.91,3.92,3.91
41.35,1.20,-2.71,1.22,-2.69,2.69,2.31,3.07,3.89,3.91,3.91
41.76,1.20,-2.70,1.24,-2.66,2.66,2.29,3.00,3.86,3.90,3.90
42.18,1.22,-2.68,1.26,-2.63,2.63,2.27,2.92,3.85,3.89,3.90
42.60,1.28,-2.61,1.28,-2.60,2.60,2.25,2.85,3.87,3.88,3.88
43.03,1.33,-2.55,1.31,-2.56,2.56,2.23,2.77,3.88,3.87,3.88
43.46,1.36,-2.51,1.33,-2.52,2.52,2.21,2.70,3.88,3.85,3.87
43.90,1.39,-2.45,1.34,-2.50,2.50,2.19,2.63,3.88,3.84,3.84
44.33,1.40,-2.42,1.36,-2.47,2.47,2.17,2.57,3.86,3.83,3.82
44.78,1.40,-2.40,1.38,-2.43,2.43,2.15,2.50,3.83,3.81,3.80
45.23,1.40,-2.39,1.40,-2.40,2.40,2.13,2.44,3.79,3.80,3.79
45.68,1.40,-2.37,1.43,-2.35,2.35,2.11,2.38,3.75,3.78,3.77
46.13,1.42,-2.33,1.45,-2.31,2.31,2.09,2.32,3.73,3.76,3.75
46.60,1.47,-2.28,1.48,-2.27,2.27,2.07,2.27,3.74,3.75,3.75
47.06,1.52,-2.21,1.50,-2.23,2.23,2.05,2.21,3.75,3.73,3.73
47.53,1.50,-2.22,1.52,-2.19,2.19,2.03,2.16,3.69,3.71,3.72
48.01,1.48,-2.24,1.54,-2.15,2.15,2.00,2.11,3.63,3.70,3.71
48.49,1.54,-2.15,1.56,-2.12,2.12,1.98,2.06,3.66,3.68,3.69
48.97,1.60,-2.07,1.59,-2.08,2.08,1.96,2.02,3.68,3.67,3.67
49.46,1.66,-1.99,1.61,-2.04,2.04,1.94,1.97,3.69,3.65,3.64
49.96,1.71,-1.91,1.64,-2.00,2.00,1.91,1.93,3.70,3.63,3.62
50.46,1.71,-1.91,1.66,-1.96,1.96,1.89,1.88,3.67,3.62,3.62
50.96,1.70,-1.90,1.68,-1.92,1.92,1.86,1.84,3.62,3.60,3.60
51.47,1.70,-1.88,1.70,-1.89,1.89,1.83,1.80,3.58,3.59,3.58
51.99,1.70,-1.86,1.72,-1.85,1.85,1.81,1.76,3.55,3.57,3.56
52.51,1.70,-1.86,1.74,-1.81,1.81,1.78,1.73,3.51,3.56,3.55
53.03,1.70,-1.85,1.76,-1.77,1.77,1.75,1.69,3.47,3.54,3.55
53.56,1.78,-1.75,1.79,-1.74,1.74,1.72,1.65,3.52,3.52,3.53
54.10,1.84,-1.67,1.80,-1.71,1.71,1.69,1.62,3.55,3.51,3.51
54.64,1.79,-1.70,1.81,-1.69,1.69,1.65,1.58,3.47,3.50,3.49
55.18,1.79,-1.70,1.82,-1.66,1.66,1.62,1.55,3.45,3.48,3.48
55.74,1.87,-1.60,1.84,-1.63,1.63,1.58,1.51,3.49,3.47,3.46
56.29,1.91,-1.54,1.86,-1.59,1.59,1.55,1.48,3.50,3.45,3.45
56.86,1.91,-1.52,1.88,-1.55,1.55,1.51,1.45,3.46,3.43,3.43
57.42,1.91,-1.49,1.89,-1.52,1.52,1.47,1.41,3.42,3.41,3.40
58.00,1.91,-1.48,1.91,-1.48,1.48,1.43,1.38,3.39,3.39,3.38
58.58,1.91,-1.46,1.92,-1.45,1.45,1.39,1.34,3.35,3.36,3.37
59.16,1.91,-1.44,1.92,-1.41,1.41,1.35,1.31,3.32,3.33,3.35
59.76,1.89,-1.43,1.93,-1.37,1.37,1.30,1.28,3.26,3.30,3.32
60.35,1.92,-1.36,1.93,-1.33,1.33,1.26,1.24,3.25,3.27,3.28
60.96,1.97,-1.27,1.94,-1.29,1.29,1.21,1.20,3.26,3.23,3.24
61.57,1.94,-1.25,1.94,-1.25,1.25,1.17,1.17,3.19,3.19,3.19
62.18,1.91,-1.24,1.92,-1.22,1.22,1.12,1.13,3.13,3.14,3.14
62.80,1.90,-1.20,1.90,-1.20,1.20,1.07,1.09,3.09,3.10,3.09
63.43,1.90,-1.15,1.89,-1.17,1.17,1.02,1.05,3.06,3.05,3.04
64.07,1.91,-1.09,1.86,-1.14,1.14,0.97,1.01,3.05,3.00,2.99
64.71,1.91,-1.03,1.84,-1.11,1.11,0.92,0.97,3.02,2.95,2.94
65.35,1.88,-1.02,1.81,-1.09,1.09,0.87,0.93,2.96,2.90,2.90
66.01,1.83,-1.02,1.79,-1.05,1.05,0.82,0.89,2.88,2.85,2.84
66.67,1.76,-1.03,1.77,-1.02,1.02,0.77,0.84,2.78,2.79,2.79
67.33,1.72,-1.02,1.76,-0.98,0.98,0.71,0.80,2.70,2.74,2.73
68.01,1.70,-0.99,1.74,-0.95,0.95,0.66,0.75,2.64,2.68,2.69
68.69,1.60,-1.03,1.73,-0.90,0.90,0.60,0.71,2.50,2.63,2.63
69.37,1.62,-0.95,1.72,-0.85,0.85,0.55,0.66,2.47,2.57,2.57
70.07,1.73,-0.79,1.72,-0.80,0.80,0.49,0.61,2.52,2.51,2.51
70.77,1.71,-0.76,1.72,-0.73,0.73,0.44,0.57,2.44,2.45,2.46
71.48,1.76,-0.65,1.72,-0.67,0.67,0.38,0.52,2.42,2.39,2.40
72.19,1.81,-0.52,1.74,-0.59,0.59,0.33,0.47,2.40,2.33,2.33
72.91,1.81,-0.46,1.75,-0.51,0.51,0.27,0.42,2.32,2.27,2.27
73.64,1.81,-0.40,1.78,-0.43,0.43,0.22,0.37,2.23,2.20,2.20
74.38,1.79,-0.35,1.80,-0.33,0.33,0.16,0.32,2.12,2.14,2.14
75.12,1.77,-0.30,1.83,-0.25,0.25,0.10,0.26,2.01,2.08,2.07
75.87,1.86,-0.15,1.86,-0.16,0.16,0.05,0.21,2.01,2.01,2.00
76.63,1.90,-0.05,1.88,-0.07,0.07,-0.01,0.16,1.97,1.95,1.95
77.40,1.91,0.02,1.90,0.01,-0.01,-0.06,0.10,1.90,1.89,1.89
78.17,1.91,0.09,1.91,0.08,-0.08,-0.12,0.05,1.82,1.83,1.82
78.95,1.89,0.11,1.93,0.16,-0.16,-0.17,-0.00,1.73,1.77,1.78
79.74,1.95,0.23,1.94,0.23,-0.23,-0.23,-0.06,1.72,1.71,1.71
80.54,1.99,0.33,1.96,0.30,-0.30,-0.28,-0.11,1.69,1.66,1.66
81.35,2.01,0.41,1.97,0.37,-0.37,-0.33,-0.17,1.63,1.60,1.60
82.16,2.01,0.46,1.99,0.44,-0.44,-0.39,-0.23,1.56,1.54,1.54
82.98,2.01,0.51,2.00,0.51,-0.51,-0.44,-0.28,1.49,1.49,1.50
83.81,2.01,0.58,2.01,0.58,-0.58,-0.49,-0.34,1.43,1.43,1.43
84.65,2.01,0.63,2.02,0.64,-0.64,-0.55,-0.40,1.37,1.38,1.37
85.50,2.01,0.68,2.02,0.70,-0.70,-0.60,-0.45,1.31,1.32,1.33
86.35,2.01,0.74,2.02,0.76,-0.76,-0.65,-0.51,1.25,1.26,1.27
87.22,2.01,0.80,2.02,0.81,-0.81,-0.70,-0.57,1.19,1.20,1.21
88.09,2.01,0.86,2.01,0.87,-0.87,-0.75,-0.63,1.14,1.14,1.15
88.97,2.01,0.92,2.00,0.92,-0.92,-0.80,-0.69,1.09,1.08,1.08
89.86,2.01,0.98,1.99,0.97,-0.97,-0.85,-0.75,1.04,1.02,1.02
90.76,2.02,1.06,1.98,1.02,-1.02,-0.90,-0.82,1.00,0.96,0.96
91.66,2.01,1.10,1.97,1.07,-1.07,-0.95,-0.88,0.94,0.90,0.91
92.58,1.95,1.11,1.96,1.12,-1.12,-0.99,-0.94,0.83,0.84,0.83
93.51,1.91,1.13,1.95,1.16,-1.16,-1.04,-1.00,0.74,0.78,0.78
94.44,1.91,1.18,1.94,1.21,-1.21,-1.09,-1.07,0.70,0.72,0.72
95.39,1.91,1.24,1.92,1.26,-1.26,-1.13,-1.13,0.65,0.67,0.67
96.34,1.91,1.30,1.91,1.31,-1.31,-1.18,-1.19,0.60,0.61,0.60
97.30,1.90,1.35,1.90,1.35,-1.35,-1.22,-1.26,0.54,0.55,0.55
98.28,1.89,1.40,1.89,1.40,-1.40,-1.27,-1.32,0.49,0.49,0.49
99.26,1.88,1.44,1.88,1.44,-1.44,-1.31,-1.39,0.43,0.43,0.43
100.25,1.86,1.48,1.86,1.49,-1.49,-1.35,-1.45,0.37,0.38,0.38
101.25,1.84,1.52,1.84,1.52,-1.52,-1.40,-1.52,0.31,0.32,0.32
102.27,1.83,1.56,1.82,1.56,-1.56,-1.44,-1.58,0.27,0.26,0.26
103.29,1.82,1.62,1.79,1.59,-1.59,-1.48,-1.65,0.23,0.20,0.19
104.32,1.80,1.65,1.76,1.62,-1.62,-1.52,-1.71,0.18,0.14,0.15
105.37,1.78,1.69,1.72,1.64,-1.64,-1.56,-1.78,0.14,0.08,0.09
106.42,1.75,1.72,1.68,1.66,-1.66,-1.60,-1.84,0.08,0.02,0.03
107.48,1.68,1.71,1.65,1.69,-1.69,-1.64,-1.90,-0.02,-0.04,-0.04
108.56,1.60,1.70,1.62,1.72,-1.72,-1.68,-1.96,-0.13,-0.10,-0.10
109.64,1.55,1.71,1.58,1.75,-1.75,-1.71,-2.02,-0.20,-0.17,-0.16
110.74,1.48,1.71,1.55,1.77,-1.77,-1.75,-2.08,-0.30,-0.23,-0.23
111.85,1.44,1.71,1.51,1.80,-1.80,-1.79,-2.13,-0.36,-0.29,-0.28
112.97,1.43,1.78,1.47,1.82,-1.82,-1.82,-2.18,-0.39,-0.35,-0.35
114.10,1.43,1.84,1.44,1.84,-1.84,-1.86,-2.23,-0.42,-0.41,-0.41
115.24,1.43,1.89,1.40,1.87,-1.87,-1.89,-2.28,-0.44,-0.46,-0.47
116.39,1.43,1.96,1.37,1.89,-1.89,-1.92,-2.33,-0.47,-0.52,-0.53
117.55,1.43,2.00,1.35,1.92,-1.92,-1.96,-2.37,-0.49,-0.57,-0.58
118.73,1.42,2.05,1.34,1.96,-1.96,-1.99,-2.40,-0.54,-0.62,-0.63
119.92,1.30,1.96,1.33,2.00,-2.00,-2.02,-2.44,-0.71,-0.67,-0.67
121.12,1.25,1.97,1.33,2.04,-2.04,-2.05,-2.47,-0.79,-0.71,-0.72
122.33,1.26,2.02,1.32,2.08,-2.08,-2.08,-2.50,-0.82,-0.76,-0.76
123.55,1.26,2.05,1.30,2.10,-2.10,-2.11,-2.52,-0.85,-0.80,-0.80
124.79,1.27,2.11,1.29,2.13,-2.13,-2.14,-2.54,-0.86,-0.84,-0.84
126.03,1.28,2.16,1.27,2.15,-2.15,-2.17,-2.55,-0.87,-0.88,-0.88
127.29,1.29,2.20,1.25,2.17,-2.17,-2.20,-2.56,-0.89,-0.92,-0.91
128.57,1.29,2.25,1.24,2.20,-2.20,-2.22,-2.57,-0.91,-0.96,-0.96
129.85,1.30,2.30,1.22,2.22,-2.22,-2.25,-2.58,-0.92,-1.00,-1.00
131.15,1.29,2.32,1.21,2.25,-2.25,-2.28,-2.58,-0.96,-1.04,-1.04
132.46,1.17,2.24,1.20,2.28,-2.28,-2.30,-2.57,-1.11,-1.07,-1.08
133.79,1.11,2.22,1.19,2.30,-2.30,-2.32,-2.57,-1.20,-1.11,-1.11
135.12,1.11,2.26,1.17,2.32,-2.32,-2.35,-2.56,-1.21,-1.15,-1.16
136.48,1.12,2.30,1.15,2.33,-2.33,-2.37,-2.54,-1.21,-1.18,-1.18
137.84,1.12,2.34,1.12,2.34,-2.34,-2.39,-2.53,-1.22,-1.22,-1.23
139.22,1.12,2.39,1.09,2.35,-2.35,-2.41,-2.51,-1.23,-1.26,-1.27
140.61,1.12,2.43,1.07,2.36,-2.36,-2.44,-2.49,-1.24,-1.30,-1.31
142.02,1.06,2.39,1.04,2.37,-2.37,-2.46,-2.47,-1.32,-1.34,-1.33
143.44,1.03,2.40,1.01,2.39,-2.39,-2.47,-2.45,-1.36,-1.38,-1.37
144.87,1.01,2.43,0.98,2.41,-2.41,-2.49,-2.42,-1.40,-1.43,-1.42
146.32,0.95,2.42,0.95,2.43,-2.43,-2.51,-2.40,-1.48,-1.48,-1.47
147.78,0.87,2.38,0.92,2.46,-2.46,-2.53,-2.37,-1.59,-1.54,-1.51
149.26,0.83,2.39,0.88,2.47,-2.47,-2.54,-2.35,-1.65,-1.60,-1.57
150.75,0.82,2.46,0.83,2.49,-2.49,-2.56,-2.32,-1.67,-1.66,-1.64
152.26,0.82,2.53,0.77,2.51,-2.51,-2.57,-2.30,-1.69,-1.73,-1.71
153.78,0.82,2.61,0.72,2.52,-2.52,-2.59,-2.27,-1.71,-1.81,-1.79
155.32,0.71,2.58,0.66,2.54,-2.54,-2.60,-2.25,-1.84,-1.88,-1.87
156.88,0.62,2.57,0.61,2.57,-2.57,-2.61,-2.23,-1.95,-1.96,-1.95
158.44,0.58,2.62,0.56,2.60,-2.60,-2.63,-2.20,-2.02,-2.04,-2.04
160.03,0.46,2.59,0.51,2.63,-2.63,-2.64,-2.18,-2.17,-2.11,-2.13
161.63,0.43,2.64,0.47,2.66,-2.66,-2.65,-2.16,-2.23,-2.19,-2.21
163.24,0.39,2.67,0.44,2.69,-2.69,-2.66,-2.14,-2.30,-2.26,-2.28
164.88,0.33,2.66,0.40,2.72,-2.72,-2.67,-2.12,-2.39,-2.32,-2.34
166.53,0.31,2.70,0.36,2.73,-2.73,-2.67,-2.10,-2.42,-2.37,-2.39
168.19,0.30,2.73,0.31,2.73,-2.73,-2.68,-2.09,-2.43,-2.42,-2.44
169.87,0.30,2.78,0.27,2.73,-2.73,-2.69,-2.07,-2.43,-2.46,-2.48
171.57,0.29,2.79,0.24,2.73,-2.73,-2.69,-2.06,-2.44,-2.49,-2.50
173.29,0.28,2.80,0.22,2.73,-2.73,-2.70,-2.05,-2.45,-2.51,-2.52
175.02,0.26,2.79,0.19,2.72,-2.72,-2.70,-2.04,-2.47,-2.53,-2.54
176.77,0.19,2.74,0.17,2.72,-2.72,-2.70,-2.03,-2.53,-2.55,-2.56
178.54,0.18,2.74,0.14,2.70,-2.70,-2.70,-2.03,-2.53,-2.56,-2.57
180.32,0.09,2.65,0.11,2.68,-2.68,-2.70,-2.02,-2.60,-2.57,-2.56
182.13,0.01,2.57,0.08,2.66,-2.66,-2.70,-2.02,-2.65,-2.58,-2.56
183.95,-0.01,2.57,0.04,2.64,-2.64,-2.70,-2.02,-2.65,-2.60,-2.58
185.79,-0.00,2.58,0.01,2.62,-2.62,-2.70,-2.02,-2.62,-2.61,-2.58
187.65,0.02,2.63,-0.02,2.60,-2.60,-2.70,-2.02,-2.58,-2.62,-2.61
189.52,-0.05,2.57,-0.05,2.58,-2.58,-2.69,-2.02,-2.63,-2.64,-2.62
191.42,-0.06,2.59,-0.08,2.57,-2.57,-2.69,-2.03,-2.63,-2.65,-2.65
193.33,-0.10,2.57,-0.11,2.56,-2.56,-2.68,-2.04,-2.67,-2.67,-2.67
195.27,-0.13,2.56,-0.13,2.56,-2.56,-2.68,-2.04,-2.70,-2.69,-2.69
197.22,-0.18,2.53,-0.15,2.57,-2.57,-2.67,-2.05,-2.75,-2.72,-2.72
199.19,-0.20,2.54,-0.17,2.57,-2.57,-2.66,-2.06,-2.77,-2.74,-2.75
201.18,-0.19,2.57,-0.19,2.57,-2.57,-2.65,-2.07,-2.77,-2.76,-2.77
203.19,-0.19,2.59,-0.21,2.57,-2.57,-2.64,-2.08,-2.77,-2.79,-2.79
205.23,-0.21,2.60,-0.24,2.57,-2.57,-2.63,-2.09,-2.78,-2.81,-2.82
207.28,-0.26,2.56,-0.27,2.57,-2.57,-2.62,-2.11,-2.83,-2.84,-2.82
209.35,-0.29,2.56,-0.30,2.56,-2.56,-2.60,-2.12,-2.86,-2.86,-2.85
211.44,-0.29,2.60,-0.32,2.56,-2.56,-2.59,-2.13,-2.85,-2.88,-2.89
213.56,-0.33,2.56,-0.35,2.55,-2.55,-2.57,-2.15,-2.88,-2.90,-2.90
215.69,-0.39,2.52,-0.38,2.53,-2.53,-2.56,-2.16,-2.92,-2.91,-2.91
217.85,-0.40,2.52,-0.41,2.52,-2.52,-2.54,-2.17,-2.92,-2.93,-2.93
220.03,-0.47,2.47,-0.45,2.49,-2.49,-2.52,-2.18,-2.97,-2.94,-2.94
222.23,-0.51,2.45,-0.48,2.47,-2.47,-2.50,-2.19,-2.98,-2.95,-2.97
224.45,-0.51,2.45,-0.51,2.44,-2.44,-2.48,-2.20,-2.95,-2.95,-2.96
226.70,-0.51,2.45,-0.55,2.41,-2.41,-2.46,-2.21,-2.92,-2.96,-2.96
228.96,-0.55,2.40,-0.58,2.38,-2.38,-2.43,-2.22,-2.93,-2.96,-2.96
231.25,-0.60,2.35,-0.61,2.35,-2.35,-2.41,-2.23,-2.95,-2.95,-2.95
233.57,-0.67,2.27,-0.63,2.31,-2.31,-2.38,-2.23,-2.98,-2.94,-2.94
235.90,-0.68,2.25,-0.66,2.27,-2.27,-2.36,-2.23,-2.95,-2.93,-2.93
238.26,-0.66,2.26,-0.67,2.24,-2.24,-2.33,-2.23,-2.91,-2.92,-2.93
240.64,-0.68,2.22,-0.68,2.22,-2.22,-2.30,-2.22,-2.90,-2.90,-2.91
243.05,-0.71,2.16,-0.69,2.19,-2.19,-2.27,-2.22,-2.90,-2.88,-2.88
245.48,-0.71,2.14,-0.70,2.16,-2.16,-2.24,-2.21,-2.87,-2.86,-2.86
247.93,-0.74,2.08,-0.72,2.12,-2.12,-2.21,-2.20,-2.87,-2.84,-2.83
250.41,-0.76,2.05,-0.73,2.09,-2.09,-2.17,-2.18,-2.85,-2.82,-2.82
252.92,-0.75,2.03,-0.74,2.05,-2.05,-2.14,-2.16,-2.80,-2.80,-2.79
255.45,-0.74,2.02,-0.76,2.02,-2.02,-2.11,-2.14,-2.76,-2.77,-2.76
258.00,-0.73,2.01,-0.77,1.98,-1.98,-2.07,-2.12,-2.71,-2.75,-2.74
260.58,-0.72,2.01,-0.79,1.93,-1.93,-2.03,-2.09,-2.66,-2.73,-2.73
263.19,-0.73,1.97,-0.82,1.88,-1.88,-1.99,-2.06,-2.62,-2.70,-2.70
265.82,-0.82,1.86,-0.85,1.83,-1.83,-1.95,-2.03,-2.66,-2.68,-2.69
268.48,-0.91,1.75,-0.88,1.78,-1.78,-1.91,-2.00,-2.69,-2.66,-2.66
271.16,-0.93,1.70,-0.91,1.73,-1.73,-1.87,-1.96,-2.66,-2.63,-2.63
273.87,-0.93,1.68,-0.94,1.67,-1.67,-1.83,-1.92,-2.61,-2.61,-2.62
276.61,-0.99,1.59,-0.97,1.62,-1.62,-1.78,-1.88,-2.61,-2.59,-2.58
279.38,-1.03,1.53,-1.00,1.56,-1.56,-1.74,-1.84,-2.59,-2.56,-2.56
282.17,-1.05,1.48,-1.04,1.50,-1.50,-1.69,-1.79,-2.55,-2.53,-2.54
284.99,-1.11,1.39,-1.07,1.43,-1.43,-1.64,-1.75,-2.55,-2.51,-2.50
287.84,-1.12,1.36,-1.11,1.37,-1.37,-1.60,-1.70,-2.50,-2.48,-2.49
290.72,-1.11,1.34,-1.14,1.31,-1.31,-1.55,-1.65,-2.43,-2.45,-2.45
293.63,-1.14,1.29,-1.17,1.26,-1.26,-1.50,-1.60,-2.40,-2.42,-2.43
296.57,-1.17,1.22,-1.19,1.21,-1.21,-1.45,-1.55,-2.38,-2.40,-2.39
299.53,-1.17,1.20,-1.21,1.16,-1.16,-1.39,-1.50,-2.34,-2.37,-2.37
302.53,-1.23,1.12,-1.23,1.11,-1.11,-1.34,-1.45,-2.34,-2.34,-2.35
305.55,-1.27,1.03,-1.26,1.06,-1.06,-1.29,-1.40,-2.33,-2.32,-2.31
308.61,-1.33,0.96,-1.29,1.01,-1.01,-1.23,-1.35,-2.34,-2.30,-2.29
311.69,-1.34,0.92,-1.32,0.95,-0.95,-1.18,-1.30,-2.30,-2.27,-2.27
314.81,-1.33,0.91,-1.36,0.89,-0.89,-1.12,-1.24,-2.23,-2.25,-2.24
317.96,-1.38,0.84,-1.39,0.84,-0.84,-1.07,-1.19,-2.22,-2.23,-2.22
321.14,-1.42,0.79,-1.43,0.78,-0.78,-1.01,-1.14,-2.20,-2.21,-2.22
324.35,-1.43,0.77,-1.47,0.73,-0.73,-0.96,-1.09,-2.16,-2.20,-2.20
327.59,-1.43,0.75,-1.51,0.68,-0.68,-0.90,-1.04,-2.11,-2.18,-2.18
330.87,-1.54,0.63,-1.55,0.62,-0.62,-0.84,-0.99,-2.17,-2.17,-2.18
334.18,-1.63,0.53,-1.59,0.57,-0.57,-0.79,-0.93,-2.21,-2.16,-2.16
337.52,-1.64,0.51,-1.63,0.52,-0.52,-0.73,-0.88,-2.17,-2.15,-2.15
340.90,-1.71,0.42,-1.66,0.48,-0.48,-0.67,-0.83,-2.19,-2.14,-2.14
344.30,-1.74,0.39,-1.70,0.44,-0.44,-0.61,-0.79,-2.18,-2.14,-2.13
347.75,-1.74,0.39,-1.73,0.40,-0.40,-0.56,-0.74,-2.14,-2.13,-2.13
351.23,-1.74,0.38,-1.76,0.36,-0.36,-0.50,-0.69,-2.11,-2.13,-2.12
354.74,-1.75,0.37,-1.79,0.33,-0.33,-0.44,-0.64,-2.08,-2.12,-2.13
358.28,-1.81,0.31,-1.82,0.30,-0.30,-0.39,-0.59,-2.11,-2.12,-2.12
361.87,-1.87,0.25,-1.85,0.27,-0.27,-0.33,-0.55,-2.14,-2.12,-2.12
365.49,-1.91,0.20,-1.88,0.24,-0.24,-0.28,-0.50,-2.15,-2.12,-2.11
369.14,-1.91,0.21,-1.90,0.22,-0.22,-0.23,-0.45,-2.13,-2.12,-2.13
372.83,-1.91,0.22,-1.93,0.20,-0.20,-0.18,-0.41,-2.11,-2.12,-2.13
376.56,-1.90,0.23,-1.95,0.17,-0.17,-0.12,-0.36,-2.07,-2.13,-2.13
380.33,-1.95,0.17,-1.98,0.15,-0.15,-0.08,-0.32,-2.10,-2.13,-2.12
384.13,-2.00,0.12,-2.01,0.12,-0.12,-0.03,-0.27,-2.13,-2.13,-2.12
387.97,-2.06,0.07,-2.05,0.09,-0.09,0.02,-0.23,-2.15,-2.14,-2.14
391.85,-2.08,0.06,-2.08,0.06,-0.06,0.06,-0.19,-2.14,-2.14,-2.15
395.77,-2.12,0.02,-2.12,0.03,-0.03,0.11,-0.15,-2.15,-2.15,-2.14
399.73,-2.17,-0.02,-2.15,0.00,-0.00,0.15,-0.10,-2.17,-2.16,-2.15
403.72,-2.18,-0.03,-2.18,-0.02,0.02,0.19,-0.06,-2.16,-2.16,-2.15
407.76,-2.18,-0.02,-2.21,-0.05,0.05,0.22,-0.02,-2.14,-2.17,-2.16
411.84,-2.19,-0.03,-2.24,-0.07,0.07,0.26,0.02,-2.12,-2.17,-2.17
415.96,-2.26,-0.10,-2.27,-0.10,0.10,0.29,0.05,-2.16,-2.17,-2.17
420.12,-2.31,-0.15,-2.30,-0.13,0.13,0.32,0.09,-2.18,-2.17,-2.17
424.32,-2.37,-0.20,-2.32,-0.15,0.15,0.34,0.13,-2.22,-2.16,-2.17
428.56,-2.37,-0.21,-2.33,-0.18,0.18,0.37,0.16,-2.20,-2.15,-2.16
432.85,-2.36,-0.21,-2.34,-0.20,0.20,0.39,0.20,-2.16,-2.14,-2.15
437.18,-2.33,-0.19,-2.34,-0.22,0.22,0.41,0.23,-2.11,-2.12,-2.14
441.55,-2.30,-0.20,-2.33,-0.24,0.24,0.42,0.26,-2.07,-2.09,-2.10
445.96,-2.25,-0.18,-2.31,-0.25,0.25,0.44,0.29,-2.00,-2.06,-2.07
450.42,-2.31,-0.27,-2.29,-0.27,0.27,0.44,0.32,-2.05,-2.03,-2.05
454.93,-2.33,-0.34,-2.26,-0.28,0.28,0.45,0.34,-2.06,-1.98,-2.00
459.48,-2.28,-0.34,-2.23,-0.29,0.29,0.46,0.37,-2.00,-1.94,-1.95
464.07,-2.22,-0.32,-2.19,-0.30,0.30,0.46,0.39,-1.93,-1.89,-1.90
468.71,-2.17,-0.33,-2.15,-0.31,0.31,0.45,0.41,-1.87,-1.85,-1.84
473.40,-2.10,-0.30,-2.12,-0.32,0.32,0.45,0.42,-1.79,-1.80,-1.80
478.13,-2.05,-0.31,-2.08,-0.33,0.33,0.44,0.44,-1.72,-1.75,-1.74
482.91,-2.00,-0.30,-2.05,-0.35,0.35,0.43,0.45,-1.66,-1.70,-1.70
487.74,-1.96,-0.30,-2.02,-0.36,0.36,0.42,0.46,-1.61,-1.66,-1.66
492.62,-1.93,-0.32,-1.99,-0.36,0.36,0.40,0.47,-1.57,-1.63,-1.61
497.55,-1.94,-0.35,-1.97,-0.37,0.37,0.39,0.48,-1.58,-1.60,-1.59
