frequency,raw,error,smoothed,error_smoothed,equalization,parametric_eq,fixed_band_eq,equalized_raw,equalized_smoothed,target
20.00,-16.31,-19.01,-16.35,-19.07,19.07,19.57,7.97,2.76,2.72,2.70
20.20,-16.27,-19.00,-16.26,-19.00,19.00,19.44,8.13,2.73,2.74,2.73
20.40,-16.18,-18.94,-16.16,-18.92,18.92,19.32,8.30,2.74,2.76,2.76
20.61,-16.08,-18.85,-16.07,-18.85,18.85,19.20,8.48,2.77,2.78,2.78
20.81,-15.99,-18.80,-15.97,-18.77,18.77,19.08,8.66,2.78,2.80,2.81
21.02,-15.88,-18.72,-15.88,-18.69,18.69,18.96,8.84,2.81,2.81,2.84
21.23,-15.77,-18.62,-15.78,-18.61,18.61,18.84,9.03,2.83,2.83,2.85
21.44,-15.68,-18.54,-15.68,-18.52,18.52,18.73,9.22,2.84,2.84,2.86
21.66,-15.59,-18.45,-15.58,-18.43,18.43,18.61,9.42,2.85,2.85,2.87
21.87,-15.47,-18.34,-15.48,-18.35,18.35,18.50,9.62,2.87,2.86,2.87
22.09,-15.38,-18.26,-15.38,-18.25,18.25,18.38,9.83,2.87,2.87,2.88
22.31,-15.27,-18.15,-15.28,-18.16,18.16,18.27,10.04,2.89,2.88,2.88
22.54,-15.17,-18.04,-15.18,-18.06,18.06,18.16,10.26,2.89,2.88,2.88
22.76,-15.08,-17.96,-15.08,-17.96,17.96,18.05,10.48,2.87,2.88,2.88
22.99,-14.97,-17.84,-14.98,-17.85,17.85,17.94,10.71,2.88,2.88,2.87
23.22,-14.88,-17.75,-14.88,-17.75,17.75,17.83,10.95,2.86,2.87,2.87
23.45,-14.77,-17.64,-14.77,-17.65,17.65,17.72,11.20,2.87,2.87,2.87
23.69,-14.68,-17.54,-14.67,-17.54,17.54,17.61,11.45,2.87,2.87,2.87
23.92,-14.57,-17.44,-14.57,-17.43,17.43,17.50,11.70,2.86,2.87,2.87
24.16,-14.47,-17.34,-14.46,-17.33,17.33,17.39,11.97,2.86,2.86,2.87
24.40,-14.36,-17.23,-14.36,-17.22,17.22,17.29,12.24,2.86,2.86,2.87
24.65,-14.25,-17.11,-14.25,-17.11,17.11,17.18,12.52,2.86,2.86,2.86
24.89,-14.14,-17.00,-14.15,-17.00,17.00,17.07,12.80,2.86,2.86,2.86
25.14,-14.03,-16.89,-14.04,-16.89,16.89,16.97,13.10,2.86,2.86,2.86
25.39,-13.93,-16.79,-13.93,-16.79,16.79,16.86,13.40,2.85,2.86,2.86
25.65,-13.82,-16.68,-13.82,-16.68,16.68,16.76,13.71,2.85,2.85,2.86
25.91,-13.72,-16.56,-13.71,-16.57,16.57,16.65,14.03,2.85,2.85,2.85
26.16,-13.60,-16.45,-13.61,-16.46,16.46,16.55,14.35,2.85,2.85,2.85
26.43,-13.50,-16.34,-13.50,-16.34,16.34,16.45,14.68,2.85,2.85,2.85
26.69,-13.38,-16.23,-13.39,-16.23,16.23,16.34,15.02,2.85,2.84,2.85
26.96,-13.28,-16.12,-13.28,-16.12,16.12,16.24,15.37,2.85,2.84,2.85
27.23,-13.17,-16.00,-13.18,-16.01,16.01,16.13,15.71,2.85,2.84,2.84
27.50,-13.08,-15.92,-13.07,-15.90,15.90,16.03,16.07,2.82,2.83,2.84
27.77,-12.97,-15.80,-12.96,-15.79,15.79,15.93,16.42,2.82,2.83,2.83
28.05,-12.86,-15.69,-12.86,-15.68,15.68,15.82,16.78,2.82,2.83,2.83
28.33,-12.75,-15.57,-12.75,-15.57,15.57,15.72,17.13,2.82,2.82,2.82
28.62,-12.65,-15.46,-12.65,-15.46,15.46,15.61,17.47,2.82,2.82,2.82
28.90,-12.53,-15.35,-12.54,-15.35,15.35,15.51,17.80,2.82,2.81,2.82
29.19,-12.42,-15.23,-12.43,-15.24,15.24,15.40,18.12,2.82,2.81,2.81
29.48,-12.33,-15.14,-12.33,-15.13,15.13,15.30,18.41,2.80,2.80,2.81
29.78,-12.23,-15.03,-12.22,-15.02,15.02,15.20,18.67,2.79,2.80,2.80
30.08,-12.13,-14.92,-12.12,-14.91,14.91,15.09,18.90,2.79,2.79,2.80
30.38,-12.02,-14.80,-12.01,-14.80,14.80,14.98,19.08,2.79,2.79,2.79
30.68,-11.90,-14.69,-11.91,-14.69,14.69,14.88,19.21,2.79,2.78,2.79
30.99,-11.80,-14.57,-11.80,-14.58,14.58,14.77,19.29,2.79,2.78,2.78
31.30,-11.70,-14.46,-11.70,-14.47,14.47,14.67,19.32,2.78,2.77,2.77
31.61,-11.60,-14.37,-11.60,-14.36,14.36,14.56,19.29,2.76,2.76,2.77
31.93,-11.50,-14.25,-11.50,-14.25,14.25,14.45,19.20,2.76,2.76,2.76
32.24,-11.38,-14.13,-11.39,-14.14,14.14,14.34,19.06,2.76,2.75,2.75
32.57,-11.30,-14.05,-11.29,-14.03,14.03,14.24,18.87,2.73,2.74,2.75
32.89,-11.19,-13.93,-11.19,-13.92,13.92,14.13,18.65,2.73,2.74,2.74
33.22,-11.08,-13.81,-11.09,-13.82,13.82,14.02,18.39,2.73,2.73,2.73
33.55,-10.99,-13.72,-10.99,-13.71,13.71,13.91,18.11,2.72,2.72,2.73
33.89,-10.88,-13.60,-10.89,-13.60,13.60,13.80,17.80,2.72,2.71,2.72
34.23,-10.77,-13.48,-10.79,-13.49,13.49,13.69,17.48,2.72,2.70,2.71
34.57,-10.69,-13.39,-10.69,-13.39,13.39,13.58,17.15,2.69,2.70,2.70
34.92,-10.60,-13.29,-10.59,-13.28,13.28,13.47,16.82,2.68,2.69,2.69
35.27,-10.50,-13.17,-10.50,-13.18,13.18,13.36,16.48,2.68,2.68,2.68
35.62,-10.39,-13.06,-10.40,-13.07,13.07,13.25,16.14,2.68,2.67,2.67
35.97,-10.31,-12.97,-10.31,-12.97,12.97,13.14,15.81,2.65,2.66,2.66
36.33,-10.21,-12.86,-10.21,-12.86,12.86,13.03,15.48,2.65,2.65,2.65
36.70,-10.11,-12.75,-10.12,-12.76,12.76,12.92,15.16,2.64,2.64,2.64
37.06,-10.04,-12.67,-10.03,-12.66,12.66,12.81,14.84,2.61,2.63,2.63
37.43,-9.93,-12.55,-9.94,-12.55,12.55,12.69,14.53,2.62,2.62,2.62
37.81,-9.83,-12.44,-9.85,-12.45,12.45,12.58,14.23,2.62,2.60,2.61
38.19,-9.76,-12.36,-9.75,-12.35,12.35,12.47,13.93,2.58,2.59,2.60
38.57,-9.65,-12.24,-9.66,-12.24,12.24,12.36,13.65,2.59,2.58,2.59
38.95,-9.57,-12.15,-9.57,-12.14,12.14,12.24,13.37,2.57,2.57,2.58
39.34,-9.48,-12.04,-9.48,-12.04,12.04,12.13,13.10,2.55,2.56,2.56
39.74,-9.37,-11.92,-9.38,-11.93,11.93,12.02,12.84,2.56,2.55,2.55
40.14,-9.29,-11.83,-9.29,-11.83,11.83,11.90,12.58,2.53,2.54,2.54
40.54,-9.20,-11.73,-9.19,-11.73,11.73,11.79,12.34,2.52,2.53,2.53
40.94,-9.09,-11.61,-9.10,-11.62,11.62,11.67,12.10,2.53,2.52,2.52
41.35,-9.01,-11.52,-9.00,-11.51,11.51,11.56,11.87,2.50,2.51,2.51
41.76,-8.90,-11.40,-8.91,-11.40,11.40,11.45,11.64,2.50,2.49,2.50
42.18,-8.81,-11.30,-8.81,-11.30,11.30,11.33,11.42,2.48,2.48,2.49
42.60,-8.70,-11.18,-8.72,-11.18,11.18,11.22,11.21,2.48,2.47,2.48
43.03,-8.61,-11.08,-8.62,-11.07,11.07,11.10,11.01,2.46,2.45,2.47
43.46,-8.53,-10.98,-8.52,-10.96,10.96,10.99,10.81,2.43,2.44,2.45
43.90,-8.43,-10.85,-8.42,-10.85,10.85,10.88,10.62,2.42,2.43,2.43
44.33,-8.33,-10.74,-8.32,-10.74,10.74,10.76,10.44,2.40,2.41,2.41
44.78,-8.23,-10.62,-8.22,-10.62,10.62,10.65,10.26,2.39,2.40,2.39
45.23,-8.13,-10.49,-8.13,-10.51,10.51,10.54,10.09,2.38,2.38,2.37
45.68,-8.02,-10.38,-8.03,-10.39,10.39,10.42,9.92,2.37,2.36,2.36
46.13,-7.93,-10.27,-7.93,-10.28,10.28,10.31,9.76,2.34,2.34,2.34
46.60,-7.82,-10.15,-7.84,-10.16,10.16,10.20,9.60,2.34,2.32,2.33
47.06,-7.73,-10.04,-7.74,-10.04,10.04,10.08,9.45,2.31,2.30,2.31
47.53,-7.65,-9.94,-7.65,-9.93,9.93,9.97,9.30,2.27,2.28,2.29
48.01,-7.54,-9.82,-7.55,-9.81,9.81,9.86,9.16,2.27,2.26,2.28
48.49,-7.46,-9.71,-7.46,-9.70,9.70,9.75,9.02,2.23,2.24,2.25
48.97,-7.37,-9.59,-7.37,-9.58,9.58,9.64,8.89,2.21,2.21,2.22
49.46,-7.26,-9.45,-7.27,-9.47,9.47,9.53,8.76,2.20,2.19,2.19
49.96,-7.20,-9.36,-7.18,-9.35,9.35,9.41,8.63,2.15,2.17,2.16
50.46,-7.09,-9.23,-7.09,-9.23,9.23,9.30,8.51,2.14,2.14,2.14
50.96,-6.99,-9.11,-7.00,-9.12,9.12,9.20,8.39,2.12,2.12,2.12
51.47,-6.91,-9.00,-6.91,-9.00,9.00,9.09,8.28,2.09,2.09,2.09
51.99,-6.81,-8.88,-6.82,-8.89,8.89,8.98,8.17,2.07,2.07,2.07
52.51,-6.74,-8.79,-6.73,-8.77,8.77,8.87,8.06,2.03,2.04,2.05
53.03,-6.63,-8.66,-6.64,-8.66,8.66,8.76,7.96,2.02,2.02,2.03
53.56,-6.53,-8.53,-6.55,-8.54,8.54,8.65,7.86,2.01,1.99,2.00
54.10,-6.46,-8.44,-6.46,-8.43,8.43,8.55,7.76,1.97,1.97,1.98
54.64,-6.37,-8.32,-6.38,-8.33,8.33,8.44,7.67,1.95,1.95,1.95
55.18,-6.29,-8.22,-6.30,-8.22,8.22,8.34,7.57,1.93,1.93,1.93
55.74,-6.21,-8.11,-6.22,-8.12,8.12,8.23,7.48,1.91,1.90,1.90
56.29,-6.13,-8.01,-6.14,-8.02,8.02,8.13,7.40,1.89,1.88,1.88
56.86,-6.06,-7.92,-6.06,-7.92,7.92,8.03,7.31,1.86,1.86,1.86
57.42,-5.98,-7.81,-5.99,-7.82,7.82,7.92,7.23,1.84,1.83,1.83
58.00,-5.91,-7.72,-5.92,-7.72,7.72,7.82,7.14,1.81,1.81,1.81
58.58,-5.85,-7.64,-5.85,-7.63,7.63,7.72,7.06,1.78,1.78,1.79
59.16,-5.77,-7.54,-5.78,-7.54,7.54,7.62,6.98,1.77,1.76,1.77
59.76,-5.71,-7.46,-5.72,-7.45,7.45,7.52,6.91,1.73,1.73,1.75
60.35,-5.66,-7.38,-5.65,-7.36,7.36,7.43,6.83,1.70,1.71,1.72
60.96,-5.58,-7.27,-5.59,-7.27,7.27,7.33,6.76,1.69,1.68,1.69
61.57,-5.52,-7.17,-5.54,-7.19,7.19,7.23,6.68,1.66,1.65,1.65
62.18,-5.47,-7.09,-5.48,-7.10,7.10,7.14,6.61,1.63,1.62,1.62
62.80,-5.42,-7.01,-5.42,-7.01,7.01,7.04,6.54,1.59,1.59,1.59
63.43,-5.36,-6.92,-5.37,-6.93,6.93,6.95,6.47,1.57,1.56,1.56
64.07,-5.31,-6.84,-5.31,-6.84,6.84,6.86,6.40,1.53,1.53,1.53
64.71,-5.26,-6.77,-5.26,-6.76,6.76,6.77,6.33,1.50,1.50,1.51
65.35,-5.20,-6.68,-5.20,-6.68,6.68,6.68,6.26,1.47,1.47,1.48
66.01,-5.15,-6.60,-5.15,-6.59,6.59,6.59,6.19,1.44,1.44,1.45
66.67,-5.10,-6.52,-5.09,-6.51,6.51,6.50,6.13,1.40,1.42,1.42
67.33,-5.05,-6.44,-5.04,-6.42,6.42,6.41,6.06,1.37,1.39,1.39
68.01,-4.96,-6.32,-4.98,-6.34,6.34,6.33,6.00,1.37,1.36,1.36
68.69,-4.91,-6.24,-4.92,-6.25,6.25,6.24,5.94,1.34,1.33,1.33
69.37,-4.87,-6.17,-4.87,-6.16,6.16,6.16,5.88,1.29,1.30,1.30
70.07,-4.82,-6.09,-4.81,-6.08,6.08,6.08,5.82,1.25,1.26,1.27
70.77,-4.76,-6.00,-4.76,-5.99,5.99,6.00,5.76,1.23,1.23,1.24
71.48,-4.70,-5.91,-4.70,-5.90,5.90,5.92,5.70,1.20,1.20,1.21
72.19,-4.63,-5.80,-4.65,-5.82,5.82,5.84,5.65,1.19,1.17,1.17
72.91,-4.59,-5.73,-4.60,-5.74,5.74,5.77,5.60,1.14,1.13,1.14
73.64,-4.55,-5.65,-4.56,-5.66,5.66,5.69,5.55,1.10,1.10,1.10
74.38,-4.49,-5.56,-4.51,-5.58,5.58,5.62,5.50,1.08,1.07,1.07
75.12,-4.46,-5.49,-4.47,-5.50,5.50,5.55,5.46,1.04,1.03,1.03
75.87,-4.42,-5.42,-4.43,-5.43,5.43,5.48,5.41,1.00,1.00,1.00
76.63,-4.38,-5.35,-4.39,-5.35,5.35,5.41,5.37,0.97,0.97,0.97
77.40,-4.34,-5.28,-4.35,-5.28,5.28,5.34,5.34,0.93,0.93,0.94
78.17,-4.31,-5.21,-4.31,-5.21,5.21,5.28,5.30,0.89,0.90,0.90
78.95,-4.28,-5.15,-4.27,-5.13,5.13,5.21,5.27,0.85,0.87,0.87
79.74,-4.24,-5.08,-4.23,-5.06,5.06,5.15,5.24,0.82,0.83,0.84
80.54,-4.20,-5.00,-4.19,-4.99,4.99,5.09,5.21,0.79,0.80,0.80
81.35,-4.17,-4.94,-4.16,-4.92,4.92,5.04,5.19,0.75,0.76,0.77
82.16,-4.13,-4.86,-4.12,-4.85,4.85,4.98,5.17,0.72,0.73,0.73
82.98,-4.10,-4.80,-4.09,-4.78,4.78,4.93,5.15,0.68,0.69,0.70
83.81,-4.05,-4.71,-4.06,-4.72,4.72,4.88,5.13,0.66,0.66,0.66
84.65,-4.02,-4.64,-4.03,-4.65,4.65,4.83,5.12,0.63,0.62,0.62
85.50,-4.00,-4.59,-4.01,-4.59,4.59,4.78,5.11,0.59,0.58,0.59
86.35,-3.96,-4.51,-3.99,-4.53,4.53,4.73,5.11,0.57,0.54,0.55
87.22,-3.96,-4.47,-3.97,-4.48,4.48,4.69,5.10,0.51,0.51,0.51
88.09,-3.96,-4.43,-3.96,-4.43,4.43,4.65,5.10,0.47,0.47,0.47
88.97,-3.96,-4.39,-3.96,-4.39,4.39,4.61,5.11,0.42,0.42,0.43
89.86,-3.96,-4.35,-3.97,-4.35,4.35,4.58,5.11,0.39,0.38,0.39
90.76,-3.96,-4.30,-3.98,-4.32,4.32,4.54,5.12,0.35,0.34,0.34
91.66,-4.00,-4.30,-4.00,-4.30,4.30,4.51,5.13,0.29,0.30,0.30
92.58,-4.01,-4.26,-4.03,-4.28,4.28,4.49,5.15,0.26,0.25,0.25
93.51,-4.05,-4.26,-4.06,-4.27,4.27,4.46,5.17,0.22,0.21,0.21
94.44,-4.10,-4.27,-4.11,-4.27,4.27,4.44,5.19,0.16,0.16,0.17
95.39,-4.14,-4.26,-4.15,-4.27,4.27,4.42,5.21,0.12,0.11,0.12
96.34,-4.20,-4.27,-4.21,-4.27,4.27,4.41,5.24,0.07,0.07,0.07
97.30,-4.26,-4.28,-4.26,-4.28,4.28,4.40,5.26,0.02,0.02,0.02
98.28,-4.32,-4.29,-4.33,-4.30,4.30,4.39,5.29,-0.02,-0.03,-0.03
99.26,-4.39,-4.32,-4.39,-4.32,4.32,4.38,5.33,-0.08,-0.08,-0.07
100.25,-4.47,-4.35,-4.46,-4.34,4.34,4.38,5.36,-0.14,-0.12,-0.12
101.25,-4.55,-4.38,-4.53,-4.36,4.36,4.38,5.39,-0.20,-0.17,-0.17
102.27,-4.62,-4.40,-4.60,-4.38,4.38,4.39,5.43,-0.24,-0.22,-0.22
103.29,-4.70,-4.43,-4.68,-4.41,4.41,4.40,5.47,-0.29,-0.27,-0.27
104.32,-4.78,-4.47,-4.76,-4.44,4.44,4.41,5.50,-0.34,-0.32,-0.31
105.37,-4.85,-4.49,-4.85,-4.48,4.48,4.43,5.54,-0.37,-0.37,-0.36
106.42,-4.94,-4.53,-4.94,-4.53,4.53,4.45,5.58,-0.42,-0.41,-0.41
107.48,-5.00,-4.54,-5.04,-4.58,4.58,4.48,5.62,-0.43,-0.46,-0.46
108.56,-5.11,-4.60,-5.15,-4.63,4.63,4.51,5.65,-0.48,-0.52,-0.51
109.64,-5.19,-4.63,-5.26,-4.70,4.70,4.54,5.68,-0.50,-0.57,-0.56
110.74,-5.33,-4.72,-5.39,-4.77,4.77,4.58,5.72,-0.57,-0.62,-0.61
111.85,-5.47,-4.81,-5.51,-4.84,4.84,4.62,5.74,-0.63,-0.67,-0.66
112.97,-5.61,-4.89,-5.65,-4.92,4.92,4.67,5.77,-0.69,-0.72,-0.72
114.10,-5.76,-4.99,-5.78,-5.00,5.00,4.72,5.79,-0.76,-0.78,-0.77
115.24,-5.91,-5.08,-5.91,-5.08,5.08,4.78,5.81,-0.83,-0.83,-0.83
116.39,-6.06,-5.18,-6.04,-5.16,5.16,4.83,5.82,-0.91,-0.88,-0.88
117.55,-6.21,-5.27,-6.16,-5.23,5.23,4.90,5.83,-0.99,-0.93,-0.94
118.73,-6.32,-5.33,-6.27,-5.29,5.29,4.96,5.83,-1.04,-0.99,-0.99
119.92,-6.43,-5.39,-6.37,-5.33,5.33,5.03,5.82,-1.10,-1.04,-1.04
121.12,-6.53,-5.44,-6.46,-5.37,5.37,5.10,5.81,-1.17,-1.09,-1.09
122.33,-6.59,-5.45,-6.54,-5.39,5.39,5.17,5.79,-1.20,-1.15,-1.14
123.55,-6.66,-5.47,-6.60,-5.40,5.40,5.24,5.77,-1.26,-1.20,-1.19
124.79,-6.69,-5.45,-6.66,-5.41,5.41,5.32,5.73,-1.29,-1.25,-1.24
126.03,-6.71,-5.42,-6.71,-5.41,5.41,5.39,5.69,-1.31,-1.30,-1.29
127.29,-6.71,-5.37,-6.75,-5.40,5.40,5.46,5.64,-1.31,-1.35,-1.34
128.57,-6.75,-5.35,-6.80,-5.40,5.40,5.53,5.59,-1.36,-1.40,-1.40
129.85,-6.77,-5.32,-6.85,-5.40,5.40,5.59,5.52,-1.38,-1.45,-1.45
131.15,-6.82,-5.32,-6.90,-5.40,5.40,5.65,5.45,-1.43,-1.50,-1.50
132.46,-6.87,-5.32,-6.96,-5.41,5.41,5.71,5.38,-1.47,-1.55,-1.55
133.79,-6.94,-5.35,-7.02,-5.42,5.42,5.75,5.29,-1.52,-1.60,-1.59
135.12,-7.03,-5.39,-7.08,-5.44,5.44,5.79,5.20,-1.60,-1.64,-1.64
136.48,-7.10,-5.42,-7.14,-5.45,5.45,5.82,5.11,-1.65,-1.69,-1.68
137.84,-7.21,-5.48,-7.20,-5.47,5.47,5.84,5.01,-1.75,-1.73,-1.73
139.22,-7.27,-5.49,-7.25,-5.48,5.48,5.84,4.90,-1.80,-1.77,-1.78
140.61,-7.36,-5.54,-7.30,-5.48,5.48,5.83,4.79,-1.88,-1.81,-1.82
142.02,-7.40,-5.55,-7.33,-5.48,5.48,5.81,4.68,-1.93,-1.86,-1.85
143.44,-7.45,-5.56,-7.35,-5.46,5.46,5.77,4.57,-1.99,-1.89,-1.89
144.87,-7.44,-5.51,-7.36,-5.43,5.43,5.72,4.45,-2.01,-1.93,-1.93
146.32,-7.41,-5.44,-7.36,-5.38,5.38,5.65,4.33,-2.03,-1.97,-1.97
147.78,-7.34,-5.34,-7.34,-5.32,5.32,5.57,4.21,-2.02,-2.01,-2.00
149.26,-7.29,-5.25,-7.30,-5.25,5.25,5.47,4.09,-2.04,-2.05,-2.04
150.75,-7.24,-5.16,-7.26,-5.17,5.17,5.36,3.96,-2.07,-2.09,-2.08
152.26,-7.17,-5.05,-7.21,-5.09,5.09,5.24,3.84,-2.09,-2.13,-2.12
153.78,-7.10,-4.94,-7.16,-4.99,4.99,5.11,3.71,-2.11,-2.16,-2.16
155.32,-7.06,-4.86,-7.11,-4.90,4.90,4.97,3.59,-2.16,-2.20,-2.20
156.88,-7.00,-4.76,-7.05,-4.81,4.81,4.83,3.46,-2.20,-2.24,-2.24
158.44,-6.94,-4.66,-7.00,-4.72,4.72,4.67,3.34,-2.23,-2.28,-2.28
160.03,-6.88,-4.56,-6.94,-4.62,4.62,4.51,3.22,-2.26,-2.32,-2.32
161.63,-6.84,-4.48,-6.88,-4.52,4.52,4.35,3.09,-2.32,-2.36,-2.36
163.24,-6.80,-4.40,-6.82,-4.42,4.42,4.18,2.97,-2.38,-2.40,-2.40
164.88,-6.76,-4.33,-6.75,-4.31,4.31,4.01,2.85,-2.45,-2.44,-2.43
166.53,-6.72,-4.25,-6.66,-4.19,4.19,3.84,2.73,-2.54,-2.48,-2.47
168.19,-6.64,-4.13,-6.56,-4.05,4.05,3.67,2.61,-2.59,-2.52,-2.51
169.87,-6.55,-4.00,-6.45,-3.90,3.90,3.50,2.50,-2.65,-2.55,-2.55
171.57,-6.42,-3.83,-6.33,-3.74,3.74,3.33,2.38,-2.69,-2.59,-2.59
173.29,-6.28,-3.66,-6.19,-3.56,3.56,3.16,2.27,-2.72,-2.63,-2.62
175.02,-6.09,-3.43,-6.05,-3.38,3.38,3.00,2.15,-2.71,-2.67,-2.66
176.77,-5.90,-3.20,-5.90,-3.20,3.20,2.83,2.04,-2.71,-2.71,-2.70
178.54,-5.72,-2.98,-5.75,-3.01,3.01,2.68,1.93,-2.72,-2.74,-2.74
180.32,-5.55,-2.77,-5.60,-2.82,2.82,2.52,1.82,-2.73,-2.78,-2.78
182.13,-5.37,-2.56,-5.46,-2.64,2.64,2.37,1.71,-2.73,-2.82,-2.81
183.95,-5.20,-2.35,-5.32,-2.47,2.47,2.22,1.61,-2.73,-2.85,-2.85
185.79,-5.08,-2.20,-5.19,-2.30,2.30,2.08,1.50,-2.78,-2.89,-2.88
187.65,-4.97,-2.05,-5.07,-2.15,2.15,1.94,1.40,-2.83,-2.92,-2.92
189.52,-4.88,-1.93,-4.95,-2.00,2.00,1.80,1.30,-2.88,-2.95,-2.95
191.42,-4.82,-1.84,-4.84,-1.86,1.86,1.67,1.20,-2.97,-2.99,-2.98
193.33,-4.76,-1.75,-4.74,-1.72,1.72,1.54,1.10,-3.04,-3.02,-3.01
195.27,-4.70,-1.66,-4.63,-1.59,1.59,1.42,1.00,-3.12,-3.05,-3.04
197.22,-4.62,-1.55,-4.53,-1.45,1.45,1.30,0.90,-3.17,-3.07,-3.07
199.19,-4.53,-1.43,-4.42,-1.32,1.32,1.18,0.80,-3.22,-3.10,-3.10
201.18,-4.39,-1.27,-4.30,-1.18,1.18,1.07,0.71,-3.21,-3.12,-3.12
203.19,-4.22,-1.08,-4.18,-1.04,1.04,0.96,0.62,-3.19,-3.14,-3.14
205.23,-4.06,-0.90,-4.05,-0.89,0.89,0.85,0.52,-3.17,-3.16,-3.16
207.28,-3.90,-0.73,-3.92,-0.74,0.74,0.75,0.43,-3.17,-3.18,-3.17
209.35,-3.75,-0.56,-3.78,-0.58,0.58,0.65,0.34,-3.17,-3.19,-3.19
211.44,-3.59,-0.38,-3.63,-0.43,0.43,0.55,0.26,-3.17,-3.21,-3.21
213.56,-3.44,-0.22,-3.49,-0.27,0.27,0.46,0.17,-3.17,-3.22,-3.22
215.69,-3.31,-0.09,-3.35,-0.12,0.12,0.37,0.09,-3.19,-3.23,-3.22
217.85,-3.18,0.05,-3.22,0.02,-0.02,0.28,0.01,-3.20,-3.24,-3.23
220.03,-3.07,0.17,-3.09,0.15,-0.15,0.20,-0.07,-3.23,-3.24,-3.24
222.23,-2.96,0.29,-2.97,0.27,-0.27,0.12,-0.15,-3.24,-3.25,-3.25
224.45,-2.85,0.40,-2.87,0.38,-0.38,0.04,-0.23,-3.24,-3.25,-3.25
226.70,-2.76,0.49,-2.77,0.48,-0.48,-0.04,-0.30,-3.25,-3.25,-3.25
228.96,-2.66,0.59,-2.67,0.58,-0.58,-0.11,-0.37,-3.24,-3.25,-3.25
231.25,-2.59,0.65,-2.58,0.67,-0.67,-0.18,-0.44,-3.26,-3.25,-3.24
233.57,-2.50,0.74,-2.49,0.75,-0.75,-0.25,-0.51,-3.26,-3.25,-3.24
235.90,-2.42,0.82,-2.41,0.83,-0.83,-0.32,-0.57,-3.25,-3.24,-3.24
238.26,-2.34,0.89,-2.33,0.91,-0.91,-0.39,-0.63,-3.25,-3.23,-3.23
240.64,-2.25,0.97,-2.25,0.98,-0.98,-0.45,-0.69,-3.23,-3.23,-3.22
243.05,-2.18,1.03,-2.16,1.05,-1.05,-0.51,-0.74,-3.24,-3.22,-3.21
245.48,-2.08,1.12,-2.08,1.12,-1.12,-0.57,-0.79,-3.20,-3.20,-3.20
247.93,-2.01,1.18,-2.01,1.19,-1.19,-0.63,-0.84,-3.20,-3.19,-3.19
250.41,-1.91,1.27,-1.93,1.25,-1.25,-0.68,-0.89,-3.16,-3.18,-3.18
252.92,-1.85,1.31,-1.85,1.31,-1.31,-0.74,-0.93,-3.17,-3.16,-3.16
255.45,-1.76,1.38,-1.77,1.37,-1.37,-0.79,-0.97,-3.14,-3.15,-3.14
258.00,-1.70,1.43,-1.70,1.43,-1.43,-0.84,-1.01,-3.13,-3.13,-3.13
260.58,-1.62,1.49,-1.63,1.49,-1.49,-0.89,-1.05,-3.11,-3.11,-3.11
263.19,-1.55,1.54,-1.56,1.54,-1.54,-0.94,-1.08,-3.09,-3.09,-3.09
265.82,-1.49,1.58,-1.49,1.59,-1.59,-0.98,-1.11,-3.08,-3.07,-3.07
268.48,-1.41,1.64,-1.42,1.63,-1.63,-1.03,-1.14,-3.05,-3.06,-3.05
271.16,-1.37,1.66,-1.36,1.68,-1.68,-1.07,-1.16,-3.05,-3.04,-3.03
273.87,-1.30,1.71,-1.30,1.72,-1.72,-1.12,-1.19,-3.02,-3.02,-3.01
276.61,-1.23,1.76,-1.24,1.75,-1.75,-1.16,-1.21,-2.99,-3.00,-2.99
279.38,-1.18,1.79,-1.19,1.79,-1.79,-1.20,-1.23,-2.97,-2.98,-2.97
282.17,-1.13,1.82,-1.13,1.82,-1.82,-1.24,-1.25,-2.96,-2.96,-2.95
284.99,-1.08,1.85,-1.09,1.85,-1.85,-1.28,-1.27,-2.93,-2.94,-2.93
287.84,-1.03,1.88,-1.04,1.87,-1.87,-1.31,-1.29,-2.91,-2.91,-2.91
290.72,-0.99,1.90,-1.00,1.89,-1.89,-1.35,-1.31,-2.89,-2.89,-2.89
293.63,-0.94,1.93,-0.96,1.91,-1.91,-1.38,-1.32,-2.86,-2.87,-2.87
296.57,-0.91,1.94,-0.92,1.93,-1.93,-1.42,-1.34,-2.84,-2.85,-2.85
299.53,-0.88,1.95,-0.89,1.94,-1.94,-1.45,-1.36,-2.82,-2.83,-2.83
302.53,-0.85,1.96,-0.85,1.95,-1.95,-1.48,-1.37,-2.80,-2.80,-2.81
305.55,-0.83,1.95,-0.82,1.96,-1.96,-1.51,-1.39,-2.79,-2.78,-2.78
308.61,-0.79,1.97,-0.79,1.97,-1.97,-1.54,-1.41,-2.76,-2.76,-2.76
311.69,-0.78,1.95,-0.76,1.97,-1.97,-1.57,-1.43,-2.76,-2.74,-2.73
314.81,-0.74,1.96,-0.74,1.98,-1.98,-1.60,-1.44,-2.72,-2.71,-2.70
317.96,-0.72,1.96,-0.71,1.98,-1.98,-1.63,-1.46,-2.71,-2.69,-2.68
321.14,-0.69,1.97,-0.68,1.99,-1.99,-1.66,-1.48,-2.68,-2.67,-2.66
324.35,-0.64,2.00,-0.66,1.99,-1.99,-1.68,-1.50,-2.63,-2.65,-2.64
327.59,-0.62,2.00,-0.63,1.99,-1.99,-1.71,-1.53,-2.62,-2.62,-2.62
330.87,-0.60,2.00,-0.61,2.00,-2.00,-1.73,-1.55,-2.60,-2.60,-2.60
334.18,-0.57,2.01,-0.58,2.00,-2.00,-1.76,-1.57,-2.57,-2.58,-2.58
337.52,-0.55,2.01,-0.56,2.00,-2.00,-1.78,-1.60,-2.56,-2.56,-2.56
340.90,-0.54,2.00,-0.54,2.00,-2.00,-1.81,-1.63,-2.55,-2.54,-2.54
344.30,-0.50,2.02,-0.52,2.01,-2.01,-1.83,-1.66,-2.51,-2.52,-2.52
347.75,-0.50,2.00,-0.50,2.01,-2.01,-1.85,-1.69,-2.51,-2.50,-2.50
351.23,-0.46,2.02,-0.48,2.01,-2.01,-1.87,-1.72,-2.47,-2.49,-2.48
354.74,-0.46,2.00,-0.46,2.01,-2.01,-1.89,-1.75,-2.47,-2.47,-2.46
358.28,-0.46,1.99,-0.44,2.01,-2.01,-1.91,-1.79,-2.47,-2.45,-2.45
361.87,-0.41,2.02,-0.43,2.01,-2.01,-1.93,-1.82,-2.42,-2.43,-2.43
365.49,-0.41,2.00,-0.41,2.01,-2.01,-1.95,-1.86,-2.42,-2.42,-2.41
369.14,-0.41,1.99,-0.39,2.01,-2.01,-1.97,-1.90,-2.42,-2.40,-2.40
372.83,-0.36,2.02,-0.38,2.01,-2.01,-1.99,-1.94,-2.37,-2.39,-2.38
376.56,-0.36,2.01,-0.36,2.01,-2.01,-2.00,-1.98,-2.38,-2.37,-2.37
380.33,-0.34,2.01,-0.34,2.01,-2.01,-2.02,-2.02,-2.36,-2.36,-2.35
384.13,-0.32,2.02,-0.33,2.02,-2.02,-2.04,-2.07,-2.34,-2.34,-2.34
387.97,-0.32,2.01,-0.31,2.02,-2.02,-2.05,-2.11,-2.35,-2.33,-2.33
391.85,-0.27,2.05,-0.29,2.03,-2.03,-2.07,-2.16,-2.30,-2.32,-2.32
395.77,-0.27,2.03,-0.27,2.03,-2.03,-2.08,-2.21,-2.31,-2.31,-2.30
399.73,-0.27,2.02,-0.26,2.04,-2.04,-2.09,-2.25,-2.31,-2.30,-2.29
403.72,-0.22,2.06,-0.24,2.04,-2.04,-2.11,-2.30,-2.27,-2.29,-2.28
407.76,-0.22,2.05,-0.22,2.05,-2.05,-2.12,-2.35,-2.28,-2.28,-2.27
411.84,-0.19,2.07,-0.21,2.06,-2.06,-2.13,-2.40,-2.25,-2.26,-2.26
415.96,-0.18,2.07,-0.19,2.06,-2.06,-2.15,-2.45,-2.25,-2.25,-2.25
420.12,-0.18,2.06,-0.17,2.07,-2.07,-2.16,-2.50,-2.26,-2.24,-2.24
424.32,-0.15,2.08,-0.15,2.08,-2.08,-2.17,-2.55,-2.23,-2.23,-2.23
428.56,-0.13,2.09,-0.13,2.09,-2.09,-2.18,-2.60,-2.22,-2.22,-2.22
432.85,-0.12,2.09,-0.11,2.10,-2.10,-2.19,-2.65,-2.22,-2.21,-2.21
437.18,-0.08,2.12,-0.09,2.11,-2.11,-2.20,-2.70,-2.19,-2.20,-2.20
