frequency,raw,error,smoothed,error_smoothed,equalization,parametric_eq,fixed_band_eq,equalized_raw,equalized_smoothed,target
20.00,0.31,-2.88,0.31,-2.87,2.87,2.10,0.09,3.18,3.18,3.18
20.20,0.39,-2.80,0.38,-2.80,2.80,2.09,0.09,3.19,3.18,3.18
20.40,0.45,-2.73,0.45,-2.73,2.73,2.07,0.10,3.18,3.19,3.18
20.61,0.53,-2.66,0.52,-2.66,2.66,2.04,0.10,3.19,3.19,3.18
20.81,0.60,-2.58,0.59,-2.59,2.59,2.01,0.11,3.19,3.18,3.18
21.02,0.66,-2.53,0.66,-2.52,2.51,1.96,0.11,3.17,3.18,3.18
21.23,0.73,-2.44,0.72,-2.44,2.44,1.92,0.12,3.17,3.16,3.16
21.44,0.79,-2.36,0.79,-2.36,2.36,1.86,0.13,3.15,3.15,3.15
21.66,0.85,-2.29,0.85,-2.28,2.29,1.80,0.13,3.13,3.14,3.13
21.87,0.91,-2.20,0.91,-2.21,2.21,1.74,0.14,3.11,3.12,3.11
22.09,0.98,-2.12,0.97,-2.13,2.13,1.67,0.14,3.10,3.10,3.10
22.31,1.03,-2.04,1.03,-2.04,2.04,1.60,0.15,3.07,3.07,3.07
22.54,1.09,-1.97,1.09,-1.96,1.96,1.52,0.16,3.04,3.05,3.05
22.76,1.16,-1.87,1.15,-1.88,1.87,1.45,0.17,3.03,3.02,3.03
22.99,1.21,-1.80,1.21,-1.79,1.79,1.37,0.17,3.00,3.00,3.00
23.22,1.27,-1.71,1.27,-1.70,1.71,1.29,0.18,2.98,2.98,2.97
23.45,1.33,-1.61,1.33,-1.62,1.63,1.21,0.19,2.96,2.95,2.94
23.69,1.39,-1.55,1.39,-1.54,1.55,1.14,0.20,2.94,2.94,2.93
23.92,1.45,-1.46,1.44,-1.47,1.47,1.06,0.21,2.92,2.92,2.91
24.16,1.50,-1.40,1.50,-1.40,1.40,0.98,0.21,2.90,2.90,2.90
24.40,1.55,-1.33,1.55,-1.33,1.33,0.91,0.22,2.88,2.88,2.88
24.65,1.60,-1.27,1.60,-1.27,1.26,0.84,0.23,2.86,2.86,2.86
24.89,1.65,-1.19,1.65,-1.19,1.19,0.77,0.24,2.84,2.84,2.84
25.14,1.71,-1.12,1.70,-1.13,1.13,0.70,0.25,2.83,2.83,2.83
25.39,1.76,-1.05,1.76,-1.06,1.06,0.63,0.26,2.81,2.81,2.81
25.65,1.81,-1.00,1.81,-0.99,0.98,0.57,0.26,2.79,2.79,2.80
25.91,1.87,-0.91,1.86,-0.92,0.91,0.50,0.27,2.78,2.78,2.77
26.16,1.92,-0.84,1.92,-0.84,0.84,0.44,0.28,2.76,2.76,2.76
26.43,1.98,-0.78,1.98,-0.77,0.77,0.38,0.29,2.75,2.75,2.75
26.69,2.04,-0.69,2.03,-0.69,0.70,0.33,0.29,2.74,2.73,2.72
26.96,2.09,-0.63,2.09,-0.63,0.63,0.27,0.30,2.72,2.72,2.71
27.23,2.15,-0.56,2.14,-0.56,0.56,0.22,0.31,2.71,2.70,2.70
27.50,2.19,-0.51,2.19,-0.50,0.49,0.16,0.31,2.68,2.69,2.69
27.77,2.25,-0.42,2.25,-0.43,0.42,0.11,0.31,2.67,2.67,2.67
28.05,2.31,-0.36,2.30,-0.36,0.36,0.06,0.32,2.66,2.66,2.66
28.33,2.36,-0.28,2.36,-0.29,0.29,0.02,0.32,2.65,2.65,2.64
28.62,2.41,-0.23,2.41,-0.22,0.22,-0.03,0.32,2.63,2.63,2.63
28.90,2.46,-0.16,2.46,-0.16,0.16,-0.07,0.32,2.61,2.61,2.61
29.19,2.51,-0.09,2.51,-0.09,0.09,-0.12,0.32,2.60,2.60,2.59
29.48,2.57,-0.02,2.57,-0.02,0.02,-0.16,0.32,2.59,2.59,2.59
29.78,2.63,0.04,2.62,0.04,-0.04,-0.20,0.31,2.58,2.58,2.58
30.08,2.68,0.10,2.68,0.10,-0.11,-0.24,0.31,2.57,2.57,2.57
30.38,2.73,0.17,2.73,0.17,-0.17,-0.28,0.30,2.55,2.55,2.55
30.68,2.78,0.23,2.78,0.24,-0.24,-0.32,0.29,2.54,2.54,2.54
30.99,2.83,0.31,2.83,0.31,-0.31,-0.35,0.28,2.52,2.52,2.51
31.30,2.88,0.37,2.88,0.37,-0.37,-0.39,0.27,2.50,2.51,2.50
31.61,2.93,0.43,2.92,0.44,-0.44,-0.43,0.26,2.49,2.49,2.49
31.93,2.97,0.49,2.97,0.50,-0.50,-0.46,0.24,2.47,2.47,2.47
32.24,3.01,0.57,3.01,0.56,-0.56,-0.50,0.23,2.44,2.45,2.44
32.57,3.06,0.63,3.05,0.63,-0.63,-0.53,0.21,2.43,2.43,2.42
32.89,3.09,0.68,3.09,0.69,-0.69,-0.56,0.19,2.40,2.41,2.41
33.22,3.14,0.75,3.13,0.74,-0.75,-0.60,0.17,2.39,2.39,2.38
33.55,3.17,0.80,3.17,0.80,-0.80,-0.63,0.14,2.36,2.36,2.37
33.89,3.21,0.86,3.21,0.86,-0.86,-0.66,0.12,2.35,2.34,2.34
34.23,3.24,0.91,3.24,0.92,-0.92,-0.69,0.09,2.32,2.32,2.32
34.57,3.28,0.97,3.27,0.97,-0.97,-0.72,0.06,2.31,2.30,2.30
34.92,3.31,1.02,3.30,1.02,-1.02,-0.75,0.03,2.29,2.28,2.28
35.27,3.33,1.06,3.33,1.07,-1.07,-0.78,0.00,2.26,2.26,2.26
35.62,3.36,1.11,3.36,1.11,-1.11,-0.81,-0.03,2.24,2.24,2.24
35.97,3.38,1.16,3.38,1.16,-1.16,-0.84,-0.06,2.22,2.22,2.22
36.33,3.41,1.20,3.40,1.20,-1.20,-0.87,-0.10,2.21,2.20,2.20
36.70,3.42,1.23,3.42,1.24,-1.24,-0.90,-0.13,2.18,2.18,2.18
37.06,3.44,1.27,3.43,1.27,-1.27,-0.93,-0.17,2.16,2.16,2.16
37.43,3.45,1.30,3.45,1.31,-1.31,-0.96,-0.21,2.14,2.14,2.14
37.81,3.46,1.33,3.46,1.34,-1.34,-0.99,-0.25,2.11,2.12,2.12
38.19,3.48,1.38,3.47,1.37,-1.37,-1.02,-0.29,2.10,2.10,2.09
38.57,3.48,1.39,3.48,1.40,-1.40,-1.05,-0.33,2.08,2.08,2.08
38.95,3.49,1.43,3.48,1.43,-1.43,-1.08,-0.37,2.06,2.06,2.05
39.34,3.49,1.45,3.49,1.45,-1.45,-1.11,-0.41,2.03,2.04,2.03
39.74,3.49,1.47,3.49,1.48,-1.48,-1.13,-0.45,2.01,2.01,2.01
40.14,3.50,1.49,3.49,1.49,-1.50,-1.16,-0.50,2.00,2.00,2.00
40.54,3.49,1.50,3.49,1.51,-1.51,-1.19,-0.54,1.97,1.98,1.98
40.94,3.50,1.53,3.49,1.53,-1.53,-1.22,-0.58,1.97,1.96,1.96
41.35,3.49,1.55,3.49,1.55,-1.55,-1.25,-0.63,1.94,1.95,1.93
41.76,3.50,1.56,3.49,1.57,-1.56,-1.28,-0.68,1.94,1.93,1.93
42.18,3.49,1.57,3.48,1.57,-1.57,-1.30,-0.72,1.91,1.91,1.91
42.60,3.48,1.58,3.48,1.58,-1.59,-1.33,-0.77,1.89,1.89,1.89
43.03,3.47,1.58,3.47,1.59,-1.60,-1.36,-0.82,1.87,1.87,1.88
43.46,3.47,1.61,3.46,1.61,-1.61,-1.39,-0.87,1.85,1.85,1.85
43.90,3.46,1.62,3.46,1.62,-1.62,-1.42,-0.92,1.83,1.83,1.83
44.33,3.45,1.63,3.45,1.64,-1.64,-1.45,-0.97,1.81,1.81,1.81
44.78,3.44,1.64,3.44,1.65,-1.65,-1.48,-1.02,1.79,1.79,1.79
45.23,3.43,1.66,3.43,1.66,-1.66,-1.50,-1.07,1.77,1.77,1.76
45.68,3.42,1.67,3.42,1.67,-1.67,-1.53,-1.12,1.75,1.75,1.74
46.13,3.41,1.67,3.41,1.68,-1.67,-1.56,-1.18,1.73,1.73,1.73
46.60,3.40,1.67,3.40,1.68,-1.68,-1.59,-1.23,1.72,1.72,1.72
47.06,3.39,1.68,3.39,1.68,-1.69,-1.62,-1.29,1.70,1.70,1.70
47.53,3.38,1.69,3.38,1.69,-1.69,-1.65,-1.34,1.68,1.68,1.68
48.01,3.37,1.69,3.36,1.70,-1.70,-1.67,-1.40,1.66,1.66,1.67
48.49,3.35,1.70,3.35,1.71,-1.71,-1.70,-1.46,1.63,1.64,1.64
48.97,3.34,1.72,3.34,1.72,-1.73,-1.73,-1.51,1.61,1.61,1.61
49.46,3.33,1.74,3.33,1.74,-1.74,-1.76,-1.57,1.59,1.59,1.58
49.96,3.32,1.76,3.32,1.76,-1.75,-1.79,-1.63,1.56,1.57,1.55
50.46,3.32,1.77,3.31,1.77,-1.77,-1.82,-1.69,1.55,1.54,1.54
50.96,3.31,1.78,3.31,1.79,-1.79,-1.84,-1.74,1.52,1.52,1.52
51.47,3.30,1.80,3.30,1.80,-1.81,-1.87,-1.80,1.49,1.49,1.49
51.99,3.30,1.82,3.30,1.82,-1.83,-1.90,-1.86,1.47,1.47,1.47
52.51,3.30,1.84,3.30,1.84,-1.85,-1.93,-1.92,1.45,1.45,1.45
53.03,3.30,1.86,3.30,1.87,-1.87,-1.96,-1.98,1.43,1.43,1.43
53.56,3.30,1.89,3.30,1.89,-1.89,-1.99,-2.03,1.40,1.41,1.40
54.10,3.31,1.92,3.30,1.92,-1.92,-2.01,-2.09,1.39,1.38,1.38
54.64,3.30,1.94,3.30,1.95,-1.95,-2.04,-2.15,1.35,1.36,1.35
55.18,3.31,1.97,3.31,1.98,-1.98,-2.07,-2.20,1.33,1.33,1.33
55.74,3.32,2.01,3.31,2.01,-2.01,-2.10,-2.25,1.31,1.30,1.30
56.29,3.32,2.03,3.32,2.04,-2.04,-2.13,-2.31,1.28,1.28,1.28
56.86,3.33,2.07,3.33,2.07,-2.07,-2.16,-2.36,1.26,1.26,1.25
57.42,3.34,2.10,3.34,2.10,-2.10,-2.18,-2.41,1.23,1.23,1.23
58.00,3.35,2.13,3.35,2.14,-2.14,-2.21,-2.45,1.21,1.21,1.21
58.58,3.36,2.17,3.36,2.17,-2.17,-2.24,-2.50,1.19,1.19,1.18
59.16,3.37,2.20,3.36,2.20,-2.20,-2.27,-2.54,1.17,1.16,1.16
59.76,3.37,2.22,3.37,2.23,-2.24,-2.30,-2.58,1.13,1.14,1.14
60.35,3.39,2.27,3.38,2.27,-2.27,-2.32,-2.62,1.12,1.11,1.11
60.96,3.39,2.29,3.39,2.30,-2.31,-2.35,-2.65,1.08,1.08,1.09
61.57,3.40,2.34,3.40,2.34,-2.35,-2.38,-2.69,1.05,1.05,1.05
62.18,3.41,2.38,3.41,2.38,-2.38,-2.41,-2.72,1.02,1.02,1.02
62.80,3.42,2.42,3.42,2.43,-2.42,-2.44,-2.74,1.00,1.00,0.99
63.43,3.43,2.46,3.42,2.46,-2.45,-2.46,-2.77,0.97,0.97,0.96
64.07,3.43,2.49,3.43,2.50,-2.49,-2.49,-2.79,0.94,0.94,0.93
64.71,3.44,2.52,3.43,2.52,-2.52,-2.52,-2.81,0.92,0.91,0.91
65.35,3.44,2.54,3.44,2.55,-2.55,-2.55,-2.83,0.89,0.89,0.89
66.01,3.44,2.56,3.44,2.57,-2.58,-2.57,-2.84,0.86,0.87,0.87
66.67,3.45,2.60,3.44,2.60,-2.60,-2.60,-2.85,0.85,0.84,0.84
67.33,3.45,2.62,3.45,2.63,-2.63,-2.63,-2.86,0.82,0.82,0.82
68.01,3.45,2.65,3.45,2.65,-2.65,-2.66,-2.87,0.80,0.80,0.79
68.69,3.45,2.67,3.45,2.68,-2.68,-2.69,-2.88,0.77,0.77,0.77
69.37,3.45,2.70,3.45,2.70,-2.70,-2.72,-2.89,0.74,0.74,0.74
70.07,3.45,2.73,3.45,2.73,-2.73,-2.75,-2.89,0.71,0.72,0.71
70.77,3.45,2.75,3.45,2.76,-2.76,-2.78,-2.90,0.69,0.69,0.69
71.48,3.46,2.79,3.45,2.79,-2.79,-2.80,-2.90,0.67,0.66,0.66
72.19,3.45,2.81,3.45,2.82,-2.82,-2.83,-2.91,0.63,0.63,0.63
72.91,3.45,2.85,3.45,2.85,-2.85,-2.86,-2.91,0.60,0.60,0.59
73.64,3.45,2.88,3.44,2.88,-2.88,-2.89,-2.91,0.56,0.56,0.56
74.38,3.44,2.90,3.44,2.92,-2.91,-2.93,-2.92,0.52,0.53,0.53
75.12,3.44,2.95,3.44,2.95,-2.95,-2.96,-2.93,0.49,0.49,0.48
75.87,3.44,2.98,3.43,2.98,-2.98,-2.99,-2.93,0.46,0.45,0.45
76.63,3.43,3.00,3.43,3.01,-3.01,-3.02,-2.94,0.42,0.42,0.42
77.40,3.42,3.03,3.42,3.04,-3.04,-3.05,-2.95,0.37,0.38,0.38
78.17,3.42,3.09,3.41,3.08,-3.08,-3.08,-2.96,0.34,0.34,0.32
78.95,3.41,3.10,3.41,3.11,-3.11,-3.12,-2.97,0.29,0.29,0.30
79.74,3.41,3.14,3.40,3.15,-3.15,-3.15,-2.99,0.26,0.26,0.26
80.54,3.40,3.18,3.40,3.18,-3.19,-3.18,-3.00,0.21,0.21,0.21
81.35,3.40,3.22,3.39,3.22,-3.22,-3.22,-3.02,0.17,0.17,0.17
82.16,3.39,3.26,3.39,3.26,-3.26,-3.25,-3.04,0.13,0.13,0.12
82.98,3.38,3.29,3.38,3.30,-3.30,-3.29,-3.06,0.08,0.08,0.08
83.81,3.37,3.34,3.36,3.34,-3.33,-3.32,-3.09,0.03,0.03,0.02
84.65,3.35,3.36,3.35,3.37,-3.37,-3.36,-3.11,-0.02,-0.02,-0.02
85.50,3.35,3.40,3.34,3.41,-3.41,-3.39,-3.14,-0.06,-0.06,-0.06
86.35,3.34,3.44,3.33,3.44,-3.44,-3.43,-3.17,-0.11,-0.11,-0.11
87.22,3.32,3.47,3.32,3.48,-3.48,-3.47,-3.21,-0.16,-0.16,-0.16
88.09,3.31,3.52,3.30,3.51,-3.51,-3.50,-3.25,-0.21,-0.21,-0.22
88.97,3.29,3.54,3.29,3.55,-3.55,-3.54,-3.29,-0.26,-0.26,-0.26
89.86,3.27,3.57,3.27,3.58,-3.58,-3.57,-3.33,-0.31,-0.31,-0.31
90.76,3.25,3.61,3.25,3.61,-3.61,-3.61,-3.37,-0.36,-0.36,-0.37
91.66,3.23,3.64,3.22,3.64,-3.64,-3.64,-3.42,-0.41,-0.42,-0.42
92.58,3.20,3.67,3.20,3.67,-3.67,-3.68,-3.47,-0.47,-0.47,-0.48
93.51,3.18,3.69,3.18,3.70,-3.70,-3.71,-3.52,-0.52,-0.52,-0.52
94.44,3.16,3.72,3.15,3.73,-3.73,-3.74,-3.58,-0.57,-0.58,-0.57
95.39,3.13,3.75,3.13,3.76,-3.76,-3.77,-3.63,-0.63,-0.63,-0.63
96.34,3.10,3.79,3.10,3.79,-3.79,-3.81,-3.69,-0.69,-0.69,-0.70
97.30,3.07,3.81,3.07,3.82,-3.82,-3.84,-3.75,-0.75,-0.75,-0.75
98.28,3.04,3.84,3.04,3.85,-3.85,-3.87,-3.82,-0.81,-0.81,-0.81
99.26,3.01,3.88,3.00,3.87,-3.88,-3.89,-3.88,-0.87,-0.87,-0.88
100.25,2.97,3.89,2.97,3.90,-3.90,-3.92,-3.95,-0.94,-0.93,-0.93
101.25,2.94,3.92,2.93,3.93,-3.93,-3.95,-4.01,-0.99,-0.99,-0.99
102.27,2.90,3.95,2.90,3.95,-3.95,-3.97,-4.08,-1.05,-1.05,-1.06
103.29,2.86,3.98,2.86,3.98,-3.97,-3.99,-4.15,-1.12,-1.11,-1.13
104.32,2.82,3.99,2.81,3.99,-3.99,-4.01,-4.21,-1.18,-1.18,-1.18
105.37,2.77,4.00,2.77,4.01,-4.01,-4.03,-4.28,-1.25,-1.25,-1.24
106.42,2.72,4.02,2.72,4.03,-4.03,-4.05,-4.35,-1.32,-1.31,-1.31
107.48,2.68,4.05,2.67,4.05,-4.05,-4.07,-4.41,-1.37,-1.38,-1.38
108.56,2.63,4.07,2.63,4.07,-4.07,-4.08,-4.47,-1.44,-1.44,-1.45
109.64,2.58,4.08,2.58,4.09,-4.08,-4.09,-4.54,-1.51,-1.51,-1.51
110.74,2.53,4.09,2.53,4.10,-4.10,-4.10,-4.59,-1.57,-1.57,-1.57
111.85,2.48,4.11,2.47,4.11,-4.12,-4.11,-4.65,-1.64,-1.64,-1.64
112.97,2.42,4.13,2.42,4.13,-4.13,-4.11,-4.70,-1.71,-1.71,-1.72
114.10,2.36,4.13,2.36,4.14,-4.14,-4.12,-4.74,-1.78,-1.78,-1.78
115.24,2.31,4.15,2.30,4.15,-4.15,-4.12,-4.78,-1.84,-1.85,-1.85
116.39,2.24,4.15,2.24,4.16,-4.15,-4.12,-4.82,-1.92,-1.91,-1.92
117.55,2.18,4.16,2.18,4.16,-4.16,-4.11,-4.84,-1.98,-1.98,-1.99
118.73,2.11,4.15,2.11,4.15,-4.15,-4.11,-4.86,-2.05,-2.05,-2.05
119.92,2.04,4.14,2.04,4.15,-4.15,-4.10,-4.88,-2.11,-2.11,-2.11
121.12,1.97,4.13,1.97,4.14,-4.14,-4.09,-4.88,-2.17,-2.17,-2.17
122.33,1.90,4.13,1.89,4.13,-4.12,-4.07,-4.88,-2.23,-2.23,-2.24
123.55,1.82,4.10,1.82,4.11,-4.11,-4.06,-4.87,-2.29,-2.29,-2.29
124.79,1.75,4.09,1.74,4.09,-4.09,-4.04,-4.85,-2.35,-2.35,-2.35
126.03,1.67,4.06,1.67,4.07,-4.07,-4.02,-4.82,-2.41,-2.41,-2.40
127.29,1.59,4.04,1.59,4.05,-4.05,-4.00,-4.78,-2.47,-2.47,-2.46
128.57,1.51,4.03,1.51,4.03,-4.03,-3.97,-4.73,-2.52,-2.52,-2.53
129.85,1.44,4.01,1.43,4.01,-4.01,-3.95,-4.67,-2.57,-2.57,-2.58
131.15,1.35,3.97,1.35,3.98,-3.98,-3.92,-4.61,-2.63,-2.63,-2.63
132.46,1.27,3.95,1.27,3.95,-3.94,-3.89,-4.54,-2.68,-2.68,-2.69
133.79,1.18,3.90,1.18,3.91,-3.91,-3.85,-4.46,-2.73,-2.73,-2.73
135.12,1.09,3.87,1.09,3.87,-3.87,-3.81,-4.37,-2.78,-2.78,-2.79
136.48,1.00,3.81,1.00,3.82,-3.82,-3.78,-4.28,-2.82,-2.82,-2.82
137.84,0.91,3.76,0.91,3.77,-3.77,-3.74,-4.18,-2.87,-2.87,-2.86
139.22,0.82,3.72,0.82,3.72,-3.72,-3.69,-4.07,-2.90,-2.90,-2.91
140.61,0.73,3.67,0.73,3.67,-3.66,-3.65,-3.96,-2.94,-2.94,-2.95
142.02,0.64,3.60,0.63,3.61,-3.61,-3.60,-3.85,-2.97,-2.97,-2.97
143.44,0.54,3.53,0.54,3.54,-3.55,-3.55,-3.73,-3.01,-3.00,-3.00
144.87,0.45,3.48,0.45,3.48,-3.48,-3.50,-3.61,-3.04,-3.04,-3.04
146.32,0.36,3.42,0.35,3.42,-3.42,-3.45,-3.48,-3.06,-3.06,-3.07
147.78,0.26,3.34,0.26,3.35,-3.35,-3.39,-3.36,-3.09,-3.09,-3.09
149.26,0.17,3.28,0.16,3.28,-3.28,-3.33,-3.23,-3.12,-3.12,-3.12
150.75,0.06,3.21,0.06,3.21,-3.21,-3.27,-3.10,-3.16,-3.15,-3.16
152.26,-0.03,3.14,-0.04,3.14,-3.14,-3.21,-2.96,-3.18,-3.18,-3.18
153.78,-0.13,3.07,-0.13,3.07,-3.07,-3.15,-2.83,-3.21,-3.21,-3.21
155.32,-0.23,2.99,-0.23,3.00,-3.00,-3.08,-2.70,-3.23,-3.23,-3.23
156.88,-0.33,2.92,-0.33,2.93,-2.93,-3.01,-2.56,-3.26,-3.26,-3.26
158.44,-0.43,2.85,-0.43,2.85,-2.85,-2.94,-2.43,-3.29,-3.29,-3.29
160.03,-0.53,2.78,-0.54,2.78,-2.78,-2.87,-2.29,-3.31,-3.32,-3.32
161.63,-0.64,2.70,-0.64,2.71,-2.71,-2.80,-2.16,-3.35,-3.34,-3.35
163.24,-0.74,2.63,-0.74,2.63,-2.63,-2.73,-2.02,-3.37,-3.37,-3.38
164.88,-0.84,2.55,-0.85,2.55,-2.55,-2.65,-1.89,-3.40,-3.40,-3.40
166.53,-0.95,2.46,-0.95,2.47,-2.47,-2.57,-1.76,-3.43,-3.43,-3.42
168.19,-1.05,2.40,-1.06,2.40,-2.40,-2.49,-1.62,-3.45,-3.45,-3.46
169.87,-1.17,2.31,-1.17,2.32,-2.32,-2.41,-1.49,-3.49,-3.49,-3.49
171.57,-1.27,2.24,-1.28,2.24,-2.24,-2.33,-1.36,-3.51,-3.52,-3.52
173.29,-1.39,2.14,-1.39,2.16,-2.16,-2.24,-1.23,-3.55,-3.55,-3.54
175.02,-1.49,2.08,-1.50,2.08,-2.08,-2.16,-1.10,-3.57,-3.58,-3.58
176.77,-1.61,2.00,-1.61,2.01,-2.00,-2.07,-0.97,-3.62,-3.61,-3.62
178.54,-1.72,1.93,-1.72,1.93,-1.92,-1.98,-0.84,-3.65,-3.65,-3.66
180.32,-1.84,1.84,-1.84,1.84,-1.85,-1.89,-0.71,-3.69,-3.69,-3.69
182.13,-1.96,1.75,-1.96,1.76,-1.77,-1.80,-0.59,-3.73,-3.73,-3.72
183.95,-2.08,1.67,-2.08,1.68,-1.68,-1.70,-0.46,-3.77,-3.76,-3.76
185.79,-2.19,1.60,-2.20,1.60,-1.60,-1.61,-0.33,-3.79,-3.80,-3.80
187.65,-2.31,1.52,-2.32,1.52,-1.51,-1.51,-0.21,-3.82,-3.83,-3.84
189.52,-2.44,1.42,-2.43,1.43,-1.42,-1.41,-0.08,-3.87,-3.86,-3.87
191.42,-2.55,1.33,-2.56,1.33,-1.33,-1.31,0.04,-3.89,-3.89,-3.89
193.33,-2.67,1.23,-2.68,1.23,-1.24,-1.21,0.16,-3.92,-3.92,-3.91
195.27,-2.80,1.13,-2.80,1.14,-1.15,-1.11,0.28,-3.95,-3.94,-3.94
197.22,-2.92,1.04,-2.92,1.05,-1.05,-1.01,0.40,-3.97,-3.97,-3.97
199.19,-3.04,0.97,-3.05,0.96,-0.95,-0.90,0.52,-3.99,-4.00,-4.02
201.18,-3.17,0.85,-3.17,0.86,-0.85,-0.80,0.64,-4.02,-4.02,-4.03
203.19,-3.30,0.74,-3.30,0.75,-0.75,-0.69,0.76,-4.05,-4.05,-4.05
205.23,-3.42,0.64,-3.42,0.64,-0.65,-0.58,0.88,-4.07,-4.07,-4.07
207.28,-3.54,0.53,-3.55,0.54,-0.54,-0.48,0.99,-4.09,-4.09,-4.08
209.35,-3.67,0.43,-3.67,0.44,-0.44,-0.36,1.10,-4.11,-4.11,-4.11
211.44,-3.79,0.33,-3.79,0.33,-0.33,-0.25,1.21,-4.12,-4.12,-4.13
213.56,-3.91,0.23,-3.92,0.22,-0.22,-0.14,1.32,-4.13,-4.14,-4.15
215.69,-4.04,0.10,-4.04,0.11,-0.11,-0.03,1.43,-4.16,-4.16,-4.15
217.85,-4.17,-0.02,-4.17,-0.00,-0.00,0.09,1.53,-4.17,-4.17,-4.16
220.03,-4.29,-0.11,-4.29,-0.11,0.11,0.20,1.63,-4.18,-4.18,-4.19
222.23,-4.41,-0.22,-4.42,-0.22,0.23,0.32,1.73,-4.19,-4.19,-4.20
224.45,-4.53,-0.35,-4.53,-0.34,0.34,0.44,1.82,-4.19,-4.19,-4.19
226.70,-4.66,-0.47,-4.66,-0.46,0.46,0.56,1.91,-4.20,-4.19,-4.20
228.96,-4.77,-0.58,-4.78,-0.59,0.59,0.67,1.99,-4.19,-4.19,-4.20
231.25,-4.90,-0.72,-4.90,-0.71,0.71,0.79,2.08,-4.19,-4.19,-4.19
233.57,-5.02,-0.85,-5.02,-0.84,0.84,0.92,2.15,-4.19,-4.19,-4.18
235.90,-5.14,-0.97,-5.14,-0.97,0.97,1.04,2.22,-4.18,-4.18,-4.18
238.26,-5.26,-1.09,-5.26,-1.09,1.10,1.16,2.29,-4.17,-4.17,-4.18
240.64,-5.38,-1.23,-5.38,-1.23,1.23,1.28,2.35,-4.15,-4.15,-4.16
243.05,-5.50,-1.37,-5.50,-1.36,1.36,1.41,2.40,-4.14,-4.14,-4.14
245.48,-5.62,-1.51,-5.62,-1.50,1.50,1.53,2.45,-4.13,-4.13,-4.12
247.93,-5.74,-1.64,-5.74,-1.63,1.63,1.66,2.50,-4.11,-4.11,-4.11
250.41,-5.85,-1.76,-5.86,-1.77,1.77,1.78,2.53,-4.08,-4.09,-4.10
252.92,-5.97,-1.92,-5.97,-1.91,1.91,1.91,2.57,-4.07,-4.07,-4.06
255.45,-6.09,-2.06,-6.09,-2.05,2.05,2.04,2.59,-4.05,-4.04,-4.04
258.00,-6.20,-2.19,-6.21,-2.19,2.19,2.16,2.61,-4.02,-4.02,-4.02
260.58,-6.32,-2.33,-6.32,-2.33,2.33,2.29,2.63,-3.99,-3.99,-4.00
263.19,-6.44,-2.47,-6.45,-2.47,2.48,2.41,2.64,-3.97,-3.97,-3.98
265.82,-6.57,-2.62,-6.57,-2.61,2.62,2.54,2.64,-3.95,-3.94,-3.96
268.48,-6.69,-2.77,-6.69,-2.76,2.77,2.67,2.64,-3.92,-3.92,-3.93
271.16,-6.81,-2.92,-6.82,-2.92,2.92,2.79,2.64,-3.90,-3.90,-3.90
273.87,-6.94,-3.07,-6.94,-3.07,3.06,2.92,2.63,-3.88,-3.88,-3.88
276.61,-7.06,-3.22,-7.06,-3.21,3.20,3.04,2.62,-3.86,-3.86,-3.85
279.38,-7.16,-3.34,-7.17,-3.34,3.34,3.16,2.61,-3.83,-3.83,-3.83
282.17,-7.27,-3.47,-7.27,-3.47,3.46,3.28,2.59,-3.81,-3.81,-3.81
284.99,-7.36,-3.59,-7.36,-3.58,3.58,3.40,2.57,-3.79,-3.78,-3.78
287.84,-7.44,-3.69,-7.44,-3.69,3.68,3.52,2.55,-3.76,-3.76,-3.76
290.72,-7.50,-3.79,-7.51,-3.78,3.78,3.63,2.52,-3.72,-3.73,-3.72
293.63,-7.57,-3.88,-7.57,-3.87,3.87,3.74,2.50,-3.70,-3.70,-3.70
296.57,-7.62,-3.96,-7.62,-3.95,3.96,3.85,2.47,-3.66,-3.67,-3.67
299.53,-7.67,-4.04,-7.67,-4.03,4.04,3.95,2.44,-3.64,-3.64,-3.64
302.53,-7.71,-4.10,-7.71,-4.10,4.11,4.05,2.42,-3.60,-3.60,-3.62
305.55,-7.75,-4.19,-7.75,-4.18,4.18,4.14,2.39,-3.57,-3.57,-3.57
308.61,-7.77,-4.24,-7.78,-4.24,4.24,4.23,2.36,-3.53,-3.53,-3.54
311.69,-7.80,-4.31,-7.80,-4.30,4.30,4.31,2.33,-3.50,-3.50,-3.50
314.81,-7.82,-4.36,-7.82,-4.36,4.35,4.39,2.31,-3.47,-3.47,-3.47
317.96,-7.84,-4.41,-7.84,-4.40,4.40,4.46,2.28,-3.44,-3.44,-3.44
321.14,-7.84,-4.44,-7.85,-4.44,4.44,4.52,2.25,-3.40,-3.41,-3.41
324.35,-7.85,-4.47,-7.85,-4.47,4.47,4.57,2.23,-3.38,-3.38,-3.39
327.59,-7.84,-4.50,-7.85,-4.50,4.49,4.62,2.21,-3.35,-3.35,-3.35
330.87,-7.83,-4.52,-7.84,-4.51,4.51,4.66,2.18,-3.32,-3.33,-3.32
334.18,-7.82,-4.53,-7.81,-4.52,4.51,4.69,2.16,-3.31,-3.30,-3.30
337.52,-7.78,-4.51,-7.79,-4.51,4.51,4.70,2.15,-3.27,-3.28,-3.28
340.90,-7.75,-4.51,-7.76,-4.51,4.50,4.71,2.13,-3.25,-3.26,-3.25
344.30,-7.72,-4.50,-7.72,-4.49,4.49,4.72,2.11,-3.24,-3.23,-3.23
347.75,-7.67,-4.48,-7.67,-4.47,4.47,4.71,2.10,-3.21,-3.20,-3.20
351.23,-7.61,-4.44,-7.62,-4.44,4.45,4.69,2.09,-3.17,-3.17,-3.18
354.74,-7.56,-4.40,-7.57,-4.40,4.42,4.66,2.08,-3.14,-3.15,-3.17
358.28,-7.53,-4.39,-7.53,-4.38,4.39,4.63,2.07,-3.14,-3.13,-3.15
361.87,-7.48,-4.36,-7.49,-4.36,4.36,4.58,2.06,-3.12,-3.13,-3.13
365.49,-7.44,-4.35,-7.44,-4.34,4.33,4.53,2.05,-3.12,-3.12,-3.10
369.14,-7.39,-4.31,-7.39,-4.30,4.29,4.47,2.05,-3.10,-3.10,-3.09
372.83,-7.33,-4.26,-7.33,-4.26,4.26,4.40,2.05,-3.08,-3.07,-3.08
376.56,-7.26,-4.21,-7.27,-4.21,4.22,4.33,2.05,-3.04,-3.05,-3.06
380.33,-7.20,-4.18,-7.20,-4.17,4.17,4.25,2.05,-3.03,-3.03,-3.03
384.13,-7.13,-4.13,-7.13,-4.12,4.13,4.16,2.05,-3.01,-3.01,-3.01
387.97,-7.06,-4.08,-7.06,-4.08,4.07,4.07,2.06,-2.99,-2.99,-2.99
391.85,-6.98,-4.02,-6.98,-4.02,4.01,3.98,2.06,-2.97,-2.97,-2.97
395.77,-6.90,-3.97,-6.90,-3.96,3.95,3.88,2.07,-2.95,-2.94,-2.94
399.73,-6.80,-3.89,-6.81,-3.89,3.89,3.78,2.08,-2.91,-2.92,-2.92
403.72,-6.72,-3.82,-6.72,-3.82,3.82,3.67,2.09,-2.90,-2.90,-2.91
407.76,-6.63,-3.75,-6.63,-3.75,3.75,3.56,2.10,-2.88,-2.88,-2.89
411.84,-6.54,-3.69,-6.54,-3.68,3.68,3.46,2.11,-2.87,-2.86,-2.86
415.96,-6.43,-3.60,-6.44,-3.60,3.60,3.34,2.12,-2.83,-2.84,-2.84
420.12,-6.33,-3.52,-6.33,-3.52,3.52,3.23,2.13,-2.81,-2.81,-2.82
424.32,-6.22,-3.44,-6.23,-3.43,3.44,3.12,2.14,-2.78,-2.78,-2.79
428.56,-6.12,-3.36,-6.12,-3.35,3.36,3.01,2.15,-2.76,-2.76,-2.77
432.85,-6.01,-3.27,-6.01,-3.27,3.27,2.89,2.16,-2.74,-2.74,-2.75
437.18,-5.89,-3.18,-5.90,-3.18,3.17,2.78,2.17,-2.72,-2.73,-2.72
441.55,-5.77,-3.09,-5.78,-3.08,3.07,2.67,2.18,-2.70,-2.71,-2.69
445.96,-5.66,-3.00,-5.65,-2.98,2.96,2.56,2.19,-2.70,-2.69,-2.67
450.42,-5.49,-2.84,-5.50,-2.85,2.84,2.45,2.20,-2.65,-2.66,-2.66
454.93,-5.33,-2.72,-5.34,-2.71,2.71,2.34,2.20,-2.62,-2.62,-2.62
459.48,-5.16,-2.57,-5.17,-2.57,2.58,2.24,2.21,-2.58,-2.59,-2.60
464.07,-5.00,-2.44,-5.00,-2.44,2.44,2.13,2.21,-2.56,-2.56,-2.57
468.71,-4.83,-2.31,-4.83,-2.30,2.30,2.03,2.21,-2.53,-2.53,-2.53
473.40,-4.66,-2.16,-4.67,-2.16,2.16,1.92,2.21,-2.50,-2.50,-2.51
478.13,-4.50,-2.03,-4.50,-2.03,2.02,1.83,2.20,-2.48,-2.48,-2.48
482.91,-4.34,-1.90,-4.34,-1.89,1.89,1.73,2.20,-2.46,-2.45,-2.45
487.74,-4.17,-1.76,-4.17,-1.75,1.75,1.63,2.19,-2.42,-2.42,-2.42
492.62,-4.00,-1.62,-4.01,-1.62,1.62,1.54,2.17,-2.38,-2.39,-2.39
