frequency,raw,error,smoothed,error_smoothed,equalization,parametric_eq,fixed_band_eq,equalized_raw,equalized_smoothed,target
20.00,-0.76,-4.87,-0.74,-4.88,4.88,4.19,1.06,4.12,4.13,4.11
20.20,-0.63,-4.79,-0.62,-4.79,4.79,4.13,1.09,4.16,4.17,4.16
20.40,-0.50,-4.70,-0.50,-4.70,4.70,4.08,1.12,4.21,4.21,4.21
20.61,-0.37,-4.61,-0.38,-4.62,4.62,4.02,1.15,4.25,4.24,4.24
20.81,-0.24,-4.52,-0.26,-4.53,4.53,3.96,1.18,4.29,4.27,4.29
21.02,-0.11,-4.44,-0.14,-4.44,4.44,3.91,1.22,4.33,4.30,4.33
21.23,-0.02,-4.37,-0.03,-4.36,4.36,3.85,1.25,4.34,4.33,4.35
21.44,0.08,-4.28,0.08,-4.27,4.27,3.79,1.29,4.35,4.35,4.37
21.66,0.17,-4.22,0.19,-4.18,4.18,3.74,1.32,4.35,4.37,4.39
21.87,0.27,-4.12,0.29,-4.09,4.09,3.68,1.36,4.37,4.39,4.40
22.09,0.37,-4.04,0.40,-4.01,4.01,3.63,1.40,4.38,4.40,4.42
22.31,0.48,-3.94,0.50,-3.92,3.92,3.58,1.44,4.40,4.42,4.43
22.54,0.59,-3.84,0.59,-3.83,3.83,3.52,1.48,4.42,4.42,4.43
22.76,0.70,-3.72,0.68,-3.74,3.74,3.47,1.52,4.45,4.43,4.43
22.99,0.80,-3.62,0.77,-3.66,3.66,3.42,1.57,4.46,4.43,4.42
23.22,0.88,-3.54,0.86,-3.57,3.57,3.36,1.61,4.45,4.43,4.42
23.45,0.96,-3.45,0.95,-3.48,3.48,3.31,1.65,4.44,4.43,4.42
23.69,1.04,-3.39,1.04,-3.39,3.39,3.26,1.70,4.43,4.43,4.43
23.92,1.12,-3.30,1.13,-3.30,3.30,3.21,1.75,4.42,4.43,4.43
24.16,1.19,-3.23,1.22,-3.21,3.21,3.16,1.79,4.40,4.43,4.43
24.40,1.27,-3.16,1.30,-3.13,3.13,3.11,1.84,4.40,4.43,4.44
24.65,1.36,-3.07,1.38,-3.04,3.04,3.06,1.89,4.40,4.43,4.43
24.89,1.44,-2.98,1.46,-2.97,2.97,3.01,1.94,4.41,4.43,4.43
25.14,1.52,-2.90,1.54,-2.89,2.89,2.96,1.99,4.41,4.43,4.43
25.39,1.62,-2.81,1.61,-2.82,2.82,2.91,2.04,4.44,4.43,4.44
25.65,1.71,-2.73,1.68,-2.75,2.75,2.87,2.09,4.46,4.43,4.44
25.91,1.81,-2.62,1.76,-2.67,2.67,2.82,2.13,4.48,4.43,4.43
26.16,1.87,-2.55,1.83,-2.60,2.60,2.77,2.18,4.47,4.43,4.43
26.43,1.91,-2.52,1.90,-2.53,2.53,2.73,2.23,4.44,4.43,4.43
26.69,1.95,-2.48,1.97,-2.46,2.46,2.68,2.28,4.41,4.43,4.43
26.96,1.99,-2.44,2.03,-2.39,2.39,2.64,2.32,4.38,4.42,4.43
27.23,2.06,-2.37,2.09,-2.33,2.33,2.60,2.37,4.39,4.42,4.43
27.50,2.13,-2.30,2.15,-2.27,2.27,2.55,2.41,4.40,4.42,4.43
27.77,2.19,-2.22,2.20,-2.22,2.22,2.51,2.45,4.41,4.42,4.42
28.05,2.26,-2.15,2.25,-2.16,2.16,2.47,2.49,4.43,4.42,4.42
28.33,2.32,-2.08,2.30,-2.11,2.11,2.42,2.53,4.43,4.42,4.41
28.62,2.37,-2.04,2.35,-2.06,2.06,2.38,2.57,4.43,4.41,4.41
28.90,2.43,-1.98,2.41,-2.01,2.01,2.34,2.60,4.44,4.41,4.42
29.19,2.47,-1.94,2.46,-1.95,1.95,2.30,2.63,4.42,4.41,4.41
29.48,2.50,-1.91,2.51,-1.90,1.90,2.26,2.65,4.40,4.41,4.42
29.78,2.53,-1.88,2.56,-1.85,1.85,2.22,2.67,4.38,4.41,4.41
30.08,2.57,-1.85,2.60,-1.80,1.80,2.19,2.69,4.37,4.41,4.42
30.38,2.63,-1.78,2.64,-1.76,1.76,2.15,2.71,4.39,4.41,4.41
30.68,2.69,-1.72,2.68,-1.72,1.72,2.11,2.72,4.42,4.40,4.41
30.99,2.75,-1.66,2.72,-1.69,1.69,2.07,2.72,4.44,4.40,4.41
31.30,2.78,-1.62,2.75,-1.65,1.65,2.04,2.73,4.43,4.40,4.40
31.61,2.81,-1.59,2.79,-1.61,1.61,2.00,2.72,4.42,4.40,4.40
31.93,2.84,-1.56,2.83,-1.57,1.57,1.97,2.72,4.41,4.39,4.40
32.24,2.85,-1.54,2.86,-1.53,1.53,1.93,2.71,4.38,4.39,4.39
32.57,2.86,-1.53,2.89,-1.49,1.49,1.90,2.69,4.35,4.39,4.39
32.89,2.87,-1.51,2.92,-1.46,1.46,1.86,2.68,4.33,4.38,4.39
33.22,2.91,-1.46,2.94,-1.43,1.43,1.83,2.66,4.34,4.38,4.38
33.55,2.97,-1.40,2.97,-1.41,1.41,1.80,2.63,4.38,4.37,4.38
33.89,3.03,-1.34,2.99,-1.38,1.38,1.77,2.60,4.41,4.37,4.37
34.23,3.05,-1.32,3.00,-1.36,1.36,1.74,2.57,4.41,4.36,4.37
34.57,3.05,-1.31,3.02,-1.33,1.33,1.70,2.54,4.39,4.36,4.36
34.92,3.05,-1.31,3.04,-1.31,1.31,1.67,2.51,4.36,4.35,4.36
35.27,3.05,-1.30,3.06,-1.29,1.29,1.64,2.47,4.34,4.35,4.35
35.62,3.05,-1.30,3.08,-1.27,1.27,1.61,2.43,4.32,4.35,4.35
35.97,3.05,-1.29,3.10,-1.25,1.25,1.59,2.39,4.30,4.35,4.35
36.33,3.08,-1.26,3.11,-1.24,1.24,1.56,2.35,4.32,4.34,4.35
36.70,3.12,-1.22,3.12,-1.23,1.23,1.53,2.31,4.35,4.34,4.34
37.06,3.15,-1.19,3.12,-1.22,1.22,1.50,2.27,4.37,4.34,4.34
37.43,3.15,-1.20,3.13,-1.21,1.21,1.48,2.22,4.37,4.34,4.35
37.81,3.15,-1.20,3.13,-1.21,1.21,1.45,2.18,4.36,4.34,4.35
38.19,3.15,-1.19,3.14,-1.20,1.20,1.42,2.14,4.35,4.34,4.34
38.57,3.15,-1.20,3.15,-1.20,1.20,1.40,2.09,4.35,4.35,4.35
38.95,3.15,-1.21,3.15,-1.19,1.19,1.37,2.05,4.34,4.35,4.36
39.34,3.15,-1.20,3.16,-1.19,1.19,1.35,2.01,4.34,4.35,4.35
39.74,3.15,-1.20,3.16,-1.19,1.19,1.33,1.97,4.34,4.35,4.35
40.14,3.15,-1.20,3.16,-1.19,1.19,1.30,1.93,4.34,4.35,4.35
40.54,3.15,-1.20,3.16,-1.19,1.19,1.28,1.89,4.34,4.34,4.35
40.94,3.15,-1.19,3.16,-1.18,1.18,1.26,1.85,4.33,4.34,4.34
41.35,3.15,-1.19,3.16,-1.18,1.18,1.24,1.81,4.33,4.33,4.34
41.76,3.15,-1.18,3.16,-1.17,1.17,1.22,1.78,4.32,4.33,4.33
42.18,3.15,-1.18,3.16,-1.16,1.16,1.19,1.74,4.31,4.32,4.33
42.60,3.15,-1.17,3.16,-1.15,1.15,1.17,1.71,4.30,4.31,4.32
43.03,3.15,-1.16,3.15,-1.14,1.14,1.16,1.67,4.29,4.30,4.31
43.46,3.15,-1.15,3.15,-1.14,1.14,1.14,1.64,4.29,4.29,4.30
43.90,3.15,-1.13,3.14,-1.13,1.13,1.12,1.61,4.28,4.27,4.28
44.33,3.15,-1.11,3.13,-1.13,1.13,1.10,1.58,4.28,4.26,4.26
44.78,3.15,-1.09,3.12,-1.13,1.13,1.09,1.56,4.28,4.25,4.24
45.23,3.13,-1.10,3.11,-1.13,1.13,1.07,1.53,4.26,4.24,4.23
45.68,3.08,-1.14,3.09,-1.13,1.13,1.05,1.51,4.21,4.22,4.22
46.13,3.05,-1.15,3.07,-1.14,1.14,1.04,1.48,4.19,4.21,4.20
46.60,3.05,-1.15,3.05,-1.15,1.15,1.03,1.46,4.20,4.19,4.20
47.06,3.04,-1.14,3.02,-1.16,1.16,1.01,1.44,4.20,4.18,4.18
47.53,3.00,-1.17,3.00,-1.17,1.17,1.00,1.42,4.17,4.16,4.17
48.01,2.95,-1.21,2.97,-1.18,1.18,0.99,1.40,4.13,4.15,4.17
48.49,2.95,-1.20,2.95,-1.19,1.19,0.98,1.38,4.14,4.13,4.15
48.97,2.95,-1.18,2.93,-1.20,1.20,0.97,1.37,4.15,4.12,4.13
49.46,2.90,-1.21,2.91,-1.20,1.20,0.97,1.35,4.10,4.11,4.11
49.96,2.85,-1.24,2.89,-1.20,1.20,0.96,1.34,4.05,4.10,4.09
50.46,2.85,-1.23,2.88,-1.20,1.20,0.96,1.32,4.05,4.08,4.08
50.96,2.85,-1.22,2.87,-1.19,1.19,0.95,1.31,4.04,4.07,4.07
51.47,2.85,-1.20,2.86,-1.19,1.19,0.95,1.30,4.04,4.06,4.05
51.99,2.85,-1.19,2.85,-1.19,1.19,0.95,1.29,4.04,4.04,4.04
52.51,2.85,-1.18,2.84,-1.19,1.19,0.96,1.27,4.04,4.03,4.03
53.03,2.85,-1.18,2.84,-1.18,1.18,0.96,1.26,4.03,4.02,4.03
53.56,2.85,-1.16,2.83,-1.17,1.17,0.97,1.25,4.02,4.00,4.01
54.10,2.85,-1.15,2.83,-1.16,1.16,0.98,1.24,4.02,3.99,4.00
54.64,2.85,-1.13,2.83,-1.16,1.16,0.99,1.23,4.01,3.98,3.98
55.18,2.84,-1.14,2.83,-1.15,1.15,1.01,1.22,3.99,3.97,3.98
55.74,2.79,-1.16,2.82,-1.14,1.14,1.02,1.21,3.93,3.96,3.96
56.29,2.76,-1.19,2.81,-1.14,1.14,1.05,1.20,3.90,3.95,3.95
56.86,2.75,-1.19,2.79,-1.14,1.14,1.07,1.18,3.89,3.93,3.94
57.42,2.75,-1.16,2.77,-1.15,1.15,1.10,1.17,3.90,3.92,3.91
58.00,2.75,-1.15,2.74,-1.16,1.16,1.13,1.16,3.91,3.90,3.90
58.58,2.75,-1.14,2.70,-1.17,1.17,1.16,1.14,3.92,3.88,3.89
59.16,2.73,-1.14,2.66,-1.19,1.19,1.19,1.13,3.93,3.85,3.87
59.76,2.67,-1.17,2.61,-1.22,1.22,1.23,1.11,3.89,3.82,3.85
60.35,2.61,-1.20,2.55,-1.24,1.24,1.26,1.10,3.85,3.79,3.81
60.96,2.55,-1.22,2.50,-1.26,1.26,1.30,1.08,3.81,3.76,3.77
61.57,2.45,-1.27,2.44,-1.28,1.28,1.33,1.06,3.73,3.72,3.73
62.18,2.36,-1.33,2.39,-1.29,1.29,1.35,1.04,3.65,3.69,3.69
62.80,2.31,-1.33,2.34,-1.30,1.30,1.36,1.01,3.61,3.64,3.64
63.43,2.23,-1.37,2.29,-1.31,1.31,1.37,0.99,3.54,3.60,3.60
64.07,2.16,-1.39,2.25,-1.31,1.31,1.36,0.97,3.47,3.56,3.55
64.71,2.13,-1.38,2.21,-1.31,1.31,1.34,0.94,3.44,3.51,3.51
65.35,2.13,-1.33,2.17,-1.29,1.29,1.31,0.91,3.42,3.47,3.47
66.01,2.15,-1.27,2.15,-1.27,1.27,1.27,0.88,3.42,3.42,3.42
66.67,2.15,-1.22,2.14,-1.24,1.24,1.22,0.85,3.39,3.37,3.37
67.33,2.15,-1.16,2.13,-1.20,1.20,1.16,0.82,3.35,3.32,3.32
68.01,2.15,-1.13,2.13,-1.15,1.15,1.10,0.79,3.30,3.27,3.28
68.69,2.15,-1.08,2.13,-1.10,1.10,1.03,0.76,3.25,3.22,3.23
69.37,2.15,-1.02,2.13,-1.04,1.04,0.96,0.72,3.19,3.17,3.18
70.07,2.15,-0.98,2.14,-0.98,0.98,0.89,0.69,3.13,3.12,3.13
70.77,2.15,-0.93,2.15,-0.92,0.92,0.83,0.65,3.07,3.07,3.08
71.48,2.15,-0.88,2.15,-0.86,0.86,0.76,0.61,3.01,3.01,3.03
72.19,2.15,-0.81,2.15,-0.80,0.80,0.70,0.58,2.95,2.96,2.96
72.91,2.15,-0.74,2.15,-0.75,0.75,0.64,0.54,2.90,2.90,2.90
73.64,2.15,-0.70,2.15,-0.69,0.69,0.59,0.50,2.84,2.84,2.85
74.38,2.15,-0.64,2.15,-0.64,0.64,0.53,0.46,2.79,2.79,2.79
75.12,2.15,-0.57,2.14,-0.59,0.59,0.48,0.42,2.74,2.73,2.73
75.87,2.15,-0.51,2.14,-0.53,0.53,0.44,0.38,2.68,2.68,2.67
76.63,2.15,-0.47,2.14,-0.48,0.48,0.39,0.34,2.63,2.62,2.62
77.40,2.15,-0.42,2.15,-0.42,0.42,0.35,0.30,2.57,2.57,2.57
78.17,2.15,-0.36,2.15,-0.36,0.36,0.31,0.25,2.51,2.51,2.51
78.95,2.15,-0.31,2.16,-0.31,0.31,0.27,0.21,2.46,2.46,2.47
79.74,2.15,-0.26,2.17,-0.25,0.25,0.23,0.17,2.40,2.41,2.42
80.54,2.15,-0.22,2.17,-0.19,0.19,0.19,0.13,2.34,2.37,2.37
81.35,2.15,-0.17,2.18,-0.13,0.13,0.16,0.08,2.28,2.32,2.32
82.16,2.16,-0.11,2.19,-0.08,0.08,0.13,0.04,2.24,2.27,2.27
82.98,2.20,-0.02,2.20,-0.02,0.02,0.10,-0.00,2.22,2.22,2.23
83.81,2.26,0.08,2.21,0.04,-0.04,0.06,-0.05,2.22,2.18,2.18
84.65,2.26,0.13,2.23,0.10,-0.10,0.03,-0.09,2.16,2.13,2.13
85.50,2.25,0.16,2.24,0.16,-0.16,0.01,-0.13,2.09,2.08,2.09
86.35,2.25,0.21,2.25,0.22,-0.22,-0.02,-0.18,2.03,2.03,2.04
87.22,2.25,0.26,2.25,0.28,-0.28,-0.05,-0.22,1.98,1.98,1.99
88.09,2.25,0.31,2.26,0.33,-0.33,-0.08,-0.27,1.92,1.93,1.94
88.97,2.25,0.37,2.26,0.38,-0.38,-0.11,-0.31,1.87,1.88,1.88
89.86,2.25,0.42,2.26,0.43,-0.43,-0.13,-0.36,1.82,1.83,1.83
90.76,2.25,0.47,2.25,0.48,-0.48,-0.16,-0.40,1.77,1.78,1.78
91.66,2.26,0.54,2.24,0.52,-0.52,-0.19,-0.45,1.74,1.73,1.73
92.58,2.27,0.60,2.23,0.55,-0.55,-0.21,-0.49,1.72,1.68,1.67
93.51,2.22,0.60,2.21,0.58,-0.58,-0.24,-0.54,1.64,1.62,1.62
94.44,2.16,0.58,2.19,0.61,-0.61,-0.27,-0.58,1.55,1.57,1.58
95.39,2.15,0.62,2.17,0.64,-0.64,-0.29,-0.63,1.51,1.52,1.53
96.34,2.15,0.67,2.14,0.67,-0.67,-0.32,-0.68,1.48,1.48,1.48
97.30,2.14,0.71,2.12,0.69,-0.69,-0.35,-0.72,1.45,1.43,1.43
98.28,2.12,0.74,2.09,0.71,-0.71,-0.37,-0.77,1.41,1.38,1.38
99.26,2.06,0.72,2.06,0.73,-0.73,-0.40,-0.82,1.33,1.33,1.34
100.25,1.99,0.70,2.04,0.75,-0.75,-0.43,-0.86,1.24,1.28,1.29
101.25,1.98,0.74,2.01,0.77,-0.77,-0.45,-0.91,1.21,1.24,1.24
102.27,1.97,0.78,1.98,0.79,-0.79,-0.48,-0.96,1.18,1.19,1.19
103.29,1.96,0.82,1.95,0.81,-0.81,-0.51,-1.00,1.15,1.14,1.14
104.32,1.94,0.84,1.93,0.84,-0.84,-0.54,-1.05,1.10,1.09,1.10
105.37,1.91,0.86,1.90,0.87,-0.87,-0.57,-1.09,1.04,1.04,1.05
106.42,1.89,0.89,1.88,0.89,-0.89,-0.60,-1.14,1.00,0.99,1.00
107.48,1.87,0.93,1.86,0.92,-0.92,-0.63,-1.18,0.95,0.94,0.94
108.56,1.84,0.95,1.84,0.96,-0.96,-0.66,-1.22,0.88,0.88,0.89
109.64,1.82,0.98,1.83,1.00,-1.00,-0.69,-1.26,0.82,0.83,0.84
110.74,1.80,1.02,1.82,1.04,-1.04,-0.72,-1.31,0.76,0.78,0.78
111.85,1.78,1.04,1.81,1.09,-1.09,-0.75,-1.35,0.69,0.73,0.74
112.97,1.77,1.09,1.80,1.12,-1.12,-0.78,-1.38,0.65,0.68,0.68
114.10,1.77,1.14,1.78,1.15,-1.15,-0.82,-1.42,0.62,0.63,0.63
115.24,1.77,1.19,1.77,1.19,-1.19,-0.85,-1.45,0.58,0.58,0.58
116.39,1.77,1.24,1.75,1.22,-1.22,-0.88,-1.49,0.55,0.54,0.53
117.55,1.77,1.28,1.74,1.24,-1.24,-0.92,-1.52,0.53,0.50,0.49
118.73,1.78,1.33,1.73,1.27,-1.27,-0.95,-1.55,0.51,0.46,0.45
119.92,1.78,1.36,1.71,1.29,-1.29,-0.99,-1.58,0.49,0.42,0.42
121.12,1.73,1.35,1.70,1.32,-1.32,-1.03,-1.60,0.41,0.38,0.38
122.33,1.67,1.32,1.69,1.34,-1.34,-1.06,-1.62,0.33,0.35,0.35
123.55,1.62,1.30,1.68,1.36,-1.36,-1.10,-1.64,0.26,0.31,0.32
124.79,1.61,1.32,1.67,1.38,-1.38,-1.14,-1.66,0.23,0.28,0.29
126.03,1.62,1.36,1.66,1.40,-1.40,-1.18,-1.68,0.22,0.25,0.26
127.29,1.63,1.39,1.65,1.42,-1.42,-1.22,-1.69,0.21,0.22,0.24
128.57,1.63,1.43,1.64,1.45,-1.45,-1.26,-1.70,0.18,0.19,0.20
129.85,1.64,1.47,1.65,1.48,-1.48,-1.30,-1.71,0.16,0.17,0.17
131.15,1.64,1.50,1.64,1.51,-1.51,-1.35,-1.72,0.13,0.14,0.14
132.46,1.65,1.54,1.64,1.53,-1.53,-1.39,-1.72,0.12,0.11,0.11
133.79,1.65,1.57,1.64,1.56,-1.56,-1.43,-1.73,0.09,0.08,0.08
135.12,1.66,1.61,1.64,1.59,-1.59,-1.48,-1.73,0.07,0.05,0.05
136.48,1.66,1.63,1.64,1.62,-1.62,-1.52,-1.73,0.04,0.03,0.03
137.84,1.66,1.67,1.65,1.65,-1.65,-1.57,-1.73,0.01,-0.00,-0.01
139.22,1.66,1.70,1.64,1.67,-1.67,-1.62,-1.72,-0.01,-0.03,-0.04
140.61,1.67,1.74,1.64,1.70,-1.70,-1.66,-1.72,-0.03,-0.06,-0.07
142.02,1.67,1.76,1.63,1.73,-1.73,-1.71,-1.71,-0.06,-0.09,-0.09
143.44,1.57,1.69,1.62,1.75,-1.75,-1.76,-1.71,-0.18,-0.13,-0.12
144.87,1.53,1.69,1.61,1.78,-1.78,-1.80,-1.70,-0.24,-0.17,-0.16
146.32,1.56,1.76,1.60,1.81,-1.81,-1.85,-1.70,-0.25,-0.21,-0.20
147.78,1.57,1.80,1.58,1.84,-1.84,-1.90,-1.69,-0.27,-0.26,-0.23
149.26,1.57,1.85,1.56,1.88,-1.88,-1.94,-1.68,-0.31,-0.31,-0.28
150.75,1.59,1.93,1.54,1.91,-1.91,-1.99,-1.68,-0.32,-0.37,-0.34
152.26,1.56,1.97,1.51,1.94,-1.94,-2.04,-1.67,-0.38,-0.43,-0.41
153.78,1.49,1.97,1.47,1.97,-1.97,-2.08,-1.67,-0.48,-0.50,-0.48
155.32,1.47,2.02,1.44,2.01,-2.01,-2.13,-1.66,-0.54,-0.57,-0.55
156.88,1.41,2.04,1.40,2.04,-2.04,-2.17,-1.66,-0.63,-0.64,-0.63
158.44,1.35,2.07,1.37,2.08,-2.08,-2.21,-1.65,-0.73,-0.71,-0.71
160.03,1.37,2.16,1.34,2.11,-2.11,-2.26,-1.65,-0.74,-0.78,-0.79
161.63,1.35,2.21,1.30,2.14,-2.14,-2.29,-1.65,-0.79,-0.84,-0.86
163.24,1.20,2.12,1.26,2.16,-2.16,-2.33,-1.65,-0.96,-0.90,-0.92
164.88,1.14,2.11,1.22,2.18,-2.18,-2.37,-1.65,-1.04,-0.96,-0.97
166.53,1.15,2.17,1.19,2.20,-2.20,-2.40,-1.65,-1.05,-1.01,-1.02
168.19,1.15,2.21,1.16,2.21,-2.21,-2.44,-1.66,-1.06,-1.05,-1.06
169.87,1.14,2.24,1.14,2.22,-2.22,-2.46,-1.66,-1.08,-1.08,-1.10
171.57,1.13,2.25,1.13,2.23,-2.23,-2.49,-1.67,-1.10,-1.11,-1.12
173.29,1.13,2.26,1.12,2.24,-2.24,-2.52,-1.67,-1.11,-1.13,-1.13
175.02,1.12,2.26,1.12,2.25,-2.25,-2.54,-1.68,-1.13,-1.14,-1.14
176.77,1.12,2.27,1.12,2.27,-2.27,-2.55,-1.69,-1.15,-1.15,-1.15
178.54,1.12,2.28,1.13,2.28,-2.28,-2.57,-1.70,-1.16,-1.16,-1.16
180.32,1.12,2.27,1.14,2.30,-2.30,-2.58,-1.71,-1.18,-1.16,-1.15
182.13,1.13,2.27,1.15,2.32,-2.32,-2.59,-1.73,-1.19,-1.17,-1.14
183.95,1.14,2.29,1.16,2.33,-2.33,-2.59,-1.74,-1.19,-1.17,-1.15
185.79,1.15,2.30,1.15,2.33,-2.33,-2.59,-1.76,-1.18,-1.18,-1.15
187.65,1.16,2.33,1.15,2.34,-2.34,-2.59,-1.78,-1.18,-1.19,-1.17
189.52,1.18,2.36,1.15,2.35,-2.35,-2.59,-1.79,-1.17,-1.20,-1.18
191.42,1.22,2.42,1.14,2.35,-2.35,-2.58,-1.81,-1.13,-1.21,-1.20
193.33,1.23,2.45,1.14,2.36,-2.36,-2.57,-1.84,-1.13,-1.22,-1.22
195.27,1.17,2.41,1.13,2.37,-2.37,-2.55,-1.86,-1.20,-1.24,-1.24
197.22,1.11,2.37,1.13,2.39,-2.39,-2.53,-1.88,-1.28,-1.26,-1.26
199.19,1.05,2.33,1.12,2.40,-2.40,-2.51,-1.90,-1.35,-1.28,-1.28
201.18,1.02,2.32,1.12,2.42,-2.42,-2.48,-1.93,-1.40,-1.30,-1.30
203.19,1.04,2.36,1.10,2.42,-2.42,-2.46,-1.95,-1.38,-1.32,-1.32
205.23,1.06,2.40,1.08,2.43,-2.43,-2.43,-1.98,-1.37,-1.34,-1.34
207.28,1.06,2.41,1.06,2.43,-2.43,-2.40,-2.00,-1.36,-1.36,-1.35
209.35,1.06,2.43,1.04,2.42,-2.42,-2.36,-2.03,-1.36,-1.38,-1.37
211.44,1.06,2.46,1.01,2.41,-2.41,-2.33,-2.06,-1.35,-1.40,-1.40
213.56,1.05,2.46,0.99,2.40,-2.40,-2.29,-2.08,-1.35,-1.41,-1.41
215.69,1.05,2.47,0.98,2.40,-2.40,-2.25,-2.11,-1.35,-1.43,-1.42
217.85,1.08,2.51,0.97,2.41,-2.41,-2.21,-2.13,-1.33,-1.44,-1.43
220.03,0.92,2.36,0.96,2.41,-2.41,-2.17,-2.15,-1.48,-1.45,-1.44
222.23,0.83,2.30,0.94,2.39,-2.39,-2.13,-2.17,-1.56,-1.45,-1.47
224.45,0.83,2.29,0.92,2.37,-2.37,-2.08,-2.19,-1.54,-1.46,-1.46
226.70,0.84,2.30,0.89,2.35,-2.35,-2.04,-2.21,-1.51,-1.46,-1.46
228.96,0.84,2.29,0.87,2.32,-2.32,-2.00,-2.23,-1.48,-1.45,-1.45
231.25,0.85,2.29,0.85,2.29,-2.29,-1.95,-2.24,-1.44,-1.44,-1.44
233.57,0.86,2.29,0.83,2.26,-2.26,-1.91,-2.25,-1.40,-1.43,-1.43
235.90,0.90,2.32,0.82,2.24,-2.24,-1.86,-2.26,-1.34,-1.42,-1.42
238.26,0.91,2.32,0.81,2.22,-2.22,-1.82,-2.27,-1.30,-1.40,-1.41
240.64,0.78,2.16,0.81,2.19,-2.19,-1.78,-2.27,-1.41,-1.38,-1.38
243.05,0.71,2.06,0.80,2.16,-2.16,-1.73,-2.27,-1.45,-1.36,-1.35
245.48,0.73,2.06,0.80,2.14,-2.14,-1.69,-2.27,-1.41,-1.34,-1.33
247.93,0.77,2.07,0.80,2.11,-2.11,-1.64,-2.26,-1.34,-1.31,-1.30
250.41,0.78,2.06,0.78,2.07,-2.07,-1.60,-2.25,-1.29,-1.29,-1.28
252.92,0.80,2.05,0.77,2.04,-2.04,-1.56,-2.24,-1.24,-1.27,-1.25
255.45,0.81,2.04,0.75,1.99,-1.99,-1.52,-2.22,-1.18,-1.24,-1.23
258.00,0.80,2.01,0.73,1.95,-1.95,-1.48,-2.20,-1.15,-1.22,-1.21
260.58,0.73,1.92,0.70,1.90,-1.90,-1.44,-2.18,-1.17,-1.19,-1.19
263.19,0.68,1.84,0.68,1.84,-1.84,-1.40,-2.15,-1.16,-1.17,-1.16
265.82,0.62,1.76,0.65,1.79,-1.79,-1.36,-2.12,-1.17,-1.14,-1.14
268.48,0.62,1.74,0.63,1.75,-1.75,-1.32,-2.09,-1.13,-1.12,-1.12
271.16,0.62,1.71,0.61,1.70,-1.70,-1.28,-2.05,-1.08,-1.09,-1.09
273.87,0.61,1.68,0.58,1.65,-1.65,-1.25,-2.01,-1.04,-1.07,-1.07
276.61,0.54,1.58,0.56,1.60,-1.60,-1.21,-1.97,-1.06,-1.04,-1.04
279.38,0.49,1.50,0.53,1.54,-1.54,-1.18,-1.93,-1.05,-1.02,-1.01
282.17,0.43,1.42,0.50,1.49,-1.49,-1.14,-1.88,-1.06,-0.99,-0.99
284.99,0.42,1.37,0.47,1.43,-1.43,-1.11,-1.84,-1.01,-0.96,-0.95
287.84,0.43,1.36,0.45,1.38,-1.38,-1.08,-1.79,-0.95,-0.93,-0.93
290.72,0.44,1.34,0.44,1.34,-1.34,-1.05,-1.74,-0.90,-0.90,-0.90
293.63,0.45,1.32,0.43,1.31,-1.31,-1.01,-1.69,-0.85,-0.87,-0.87
296.57,0.48,1.32,0.42,1.26,-1.26,-0.98,-1.64,-0.78,-0.84,-0.84
299.53,0.52,1.33,0.40,1.22,-1.22,-0.95,-1.58,-0.70,-0.81,-0.81
302.53,0.39,1.18,0.38,1.17,-1.17,-0.93,-1.53,-0.78,-0.79,-0.79
305.55,0.27,1.02,0.36,1.12,-1.12,-0.90,-1.48,-0.85,-0.76,-0.75
308.61,0.29,1.02,0.34,1.08,-1.08,-0.87,-1.42,-0.79,-0.74,-0.73
311.69,0.31,1.01,0.32,1.03,-1.03,-0.84,-1.37,-0.72,-0.71,-0.70
314.81,0.33,1.01,0.30,0.99,-0.99,-0.82,-1.32,-0.66,-0.69,-0.68
317.96,0.35,1.01,0.27,0.94,-0.94,-0.79,-1.26,-0.59,-0.67,-0.66
321.14,0.30,0.95,0.24,0.89,-0.89,-0.77,-1.21,-0.59,-0.65,-0.65
324.35,0.22,0.85,0.21,0.85,-0.85,-0.74,-1.15,-0.63,-0.63,-0.63
327.59,0.10,0.72,0.19,0.81,-0.81,-0.72,-1.10,-0.70,-0.62,-0.62
330.87,0.09,0.70,0.16,0.77,-0.77,-0.69,-1.05,-0.68,-0.61,-0.61
334.18,0.10,0.69,0.14,0.74,-0.74,-0.67,-1.00,-0.64,-0.60,-0.59
337.52,0.11,0.69,0.13,0.71,-0.71,-0.65,-0.94,-0.60,-0.58,-0.58
340.90,0.14,0.71,0.10,0.68,-0.68,-0.63,-0.89,-0.54,-0.58,-0.57
344.30,0.12,0.68,0.07,0.64,-0.64,-0.60,-0.84,-0.52,-0.57,-0.56
347.75,0.04,0.60,0.04,0.61,-0.61,-0.58,-0.79,-0.56,-0.56,-0.56
351.23,0.01,0.56,0.02,0.58,-0.58,-0.56,-0.74,-0.57,-0.56,-0.55
354.74,0.01,0.57,0.00,0.56,-0.56,-0.54,-0.69,-0.55,-0.56,-0.56
358.28,0.02,0.57,-0.01,0.54,-0.54,-0.52,-0.64,-0.52,-0.55,-0.55
361.87,-0.02,0.53,-0.03,0.52,-0.52,-0.50,-0.59,-0.54,-0.55,-0.55
365.49,-0.06,0.48,-0.05,0.50,-0.50,-0.48,-0.55,-0.56,-0.55,-0.54
369.14,-0.14,0.41,-0.07,0.48,-0.48,-0.46,-0.50,-0.62,-0.55,-0.55
372.83,-0.16,0.39,-0.11,0.45,-0.45,-0.44,-0.45,-0.61,-0.55,-0.55
376.56,-0.15,0.41,-0.14,0.42,-0.42,-0.43,-0.41,-0.57,-0.56,-0.56
380.33,-0.13,0.42,-0.16,0.39,-0.39,-0.41,-0.36,-0.52,-0.56,-0.55
384.13,-0.12,0.43,-0.19,0.37,-0.37,-0.39,-0.32,-0.49,-0.56,-0.55
387.97,-0.18,0.38,-0.22,0.35,-0.35,-0.37,-0.27,-0.53,-0.57,-0.56
391.85,-0.24,0.33,-0.25,0.32,-0.32,-0.35,-0.23,-0.56,-0.57,-0.57
395.77,-0.32,0.24,-0.29,0.28,-0.28,-0.33,-0.19,-0.60,-0.58,-0.56
399.73,-0.33,0.24,-0.33,0.25,-0.25,-0.31,-0.14,-0.58,-0.58,-0.57
403.72,-0.36,0.21,-0.37,0.22,-0.22,-0.29,-0.10,-0.58,-0.59,-0.57
407.76,-0.41,0.18,-0.41,0.19,-0.19,-0.27,-0.06,-0.60,-0.59,-0.59
411.84,-0.44,0.15,-0.44,0.16,-0.16,-0.25,-0.02,-0.59,-0.59,-0.59
415.96,-0.44,0.15,-0.47,0.12,-0.12,-0.23,0.02,-0.56,-0.59,-0.59
420.12,-0.46,0.13,-0.51,0.09,-0.09,-0.21,0.06,-0.55,-0.59,-0.59
424.32,-0.59,0.00,-0.53,0.05,-0.05,-0.19,0.09,-0.64,-0.59,-0.59
428.56,-0.62,-0.04,-0.55,0.03,-0.03,-0.17,0.13,-0.65,-0.58,-0.58
432.85,-0.61,-0.04,-0.55,0.01,-0.01,-0.15,0.16,-0.62,-0.56,-0.57
437.18,-0.58,-0.02,-0.56,-0.02,0.02,-0.13,0.20,-0.56,-0.54,-0.56
441.55,-0.56,-0.04,-0.56,-0.04,0.04,-0.10,0.23,-0.52,-0.52,-0.52
445.96,-0.58,-0.09,-0.56,-0.07,0.07,-0.08,0.26,-0.51,-0.48,-0.49
450.42,-0.55,-0.09,-0.54,-0.10,0.10,-0.05,0.29,-0.45,-0.45,-0.46
454.93,-0.49,-0.08,-0.53,-0.12,0.12,-0.03,0.32,-0.37,-0.41,-0.41
459.48,-0.50,-0.13,-0.51,-0.15,0.15,0.00,0.35,-0.35,-0.36,-0.37
464.07,-0.47,-0.15,-0.49,-0.18,0.18,0.03,0.38,-0.29,-0.32,-0.32
468.71,-0.45,-0.19,-0.47,-0.20,0.20,0.07,0.40,-0.25,-0.27,-0.26
473.40,-0.44,-0.22,-0.44,-0.22,0.22,0.10,0.42,-0.22,-0.22,-0.22
478.13,-0.46,-0.30,-0.42,-0.25,0.25,0.14,0.44,-0.21,-0.17,-0.16
482.91,-0.44,-0.32,-0.41,-0.28,0.28,0.17,0.46,-0.16,-0.13,-0.12
487.74,-0.41,-0.33,-0.40,-0.31,0.31,0.22,0.48,-0.10,-0.09,-0.08
492.62,-0.38,-0.35,-0.39,-0.34,0.34,0.26,0.49,-0.04,-0.05,-0.03
497.55,-0.36,-0.35,-0.40,-0.38,0.38,0.30,0.51,0.02,-0.02,-0.01
502.52,-0.40,-0.42,-0.41,-0.41,0.41,0.35,0.52,0.01,0.00,0.02
507.55,-0.41,-0.44,-0.42,-0.44,0.44,0.40,0.53,0.03,0.02,0.03
512.62,-0.39,-0.43,-0.43,-0.46,0.46,0.45,0.53,0.07,0.03,0.04
517.75,-0.45,-0.50,-0.46,-0.48,0.48,0.50,0.54,0.03,0.02,0.05
