frequency,raw,error,smoothed,error_smoothed,equalization,parametric_eq,fixed_band_eq,equalized_raw,equalized_smoothed,target
20.00,5.06,-5.32,5.05,-5.33,5.33,4.95,1.59,10.38,10.38,10.38
20.20,5.11,-5.26,5.10,-5.27,5.27,4.92,1.64,10.37,10.37,10.37
20.40,5.15,-5.21,5.15,-5.21,5.21,4.89,1.69,10.35,10.36,10.36
20.61,5.20,-5.15,5.20,-5.15,5.15,4.86,1.74,10.34,10.34,10.35
20.81,5.25,-5.08,5.25,-5.09,5.09,4.83,1.79,10.33,10.33,10.33
21.02,5.29,-5.03,5.29,-5.03,5.03,4.80,1.84,10.31,10.32,10.32
21.23,5.34,-4.97,5.34,-4.97,4.97,4.77,1.90,10.31,10.31,10.31
21.44,5.39,-4.93,5.39,-4.91,4.91,4.73,1.96,10.30,10.30,10.32
21.66,5.44,-4.86,5.44,-4.86,4.86,4.70,2.02,10.29,10.29,10.30
21.87,5.49,-4.81,5.49,-4.80,4.80,4.67,2.08,10.29,10.29,10.30
22.09,5.54,-4.74,5.53,-4.74,4.74,4.63,2.14,10.28,10.28,10.28
22.31,5.59,-4.68,5.58,-4.69,4.69,4.60,2.21,10.28,10.27,10.27
22.54,5.63,-4.63,5.63,-4.64,4.64,4.57,2.27,10.26,10.26,10.26
22.76,5.68,-4.58,5.68,-4.58,4.58,4.53,2.34,10.26,10.26,10.26
22.99,5.73,-4.52,5.72,-4.53,4.53,4.49,2.41,10.26,10.25,10.25
23.22,5.77,-4.47,5.77,-4.48,4.48,4.46,2.48,10.24,10.25,10.24
23.45,5.82,-4.43,5.82,-4.42,4.42,4.42,2.55,10.24,10.24,10.25
23.69,5.87,-4.37,5.87,-4.37,4.37,4.38,2.63,10.24,10.24,10.24
23.92,5.91,-4.32,5.91,-4.32,4.32,4.35,2.70,10.23,10.23,10.23
24.16,5.96,-4.28,5.96,-4.27,4.27,4.31,2.78,10.23,10.23,10.24
24.40,6.01,-4.23,6.01,-4.22,4.22,4.27,2.86,10.23,10.23,10.24
24.65,6.05,-4.18,6.05,-4.17,4.17,4.23,2.94,10.22,10.23,10.23
24.89,6.10,-4.13,6.10,-4.13,4.13,4.19,3.02,10.22,10.22,10.23
25.14,6.15,-4.07,6.15,-4.08,4.08,4.15,3.10,10.22,10.22,10.22
25.39,6.20,-4.02,6.19,-4.03,4.03,4.11,3.18,10.23,10.22,10.22
25.65,6.24,-3.98,6.24,-3.98,3.98,4.07,3.26,10.22,10.22,10.22
25.91,6.29,-3.93,6.29,-3.93,3.93,4.03,3.34,10.22,10.22,10.22
26.16,6.34,-3.89,6.33,-3.88,3.88,3.99,3.42,10.22,10.22,10.23
26.43,6.38,-3.84,6.38,-3.84,3.84,3.94,3.50,10.21,10.22,10.22
26.69,6.43,-3.79,6.43,-3.79,3.79,3.90,3.57,10.22,10.22,10.22
26.96,6.47,-3.75,6.47,-3.75,3.75,3.86,3.65,10.21,10.22,10.22
27.23,6.52,-3.70,6.52,-3.70,3.70,3.81,3.72,10.22,10.22,10.22
27.50,6.57,-3.65,6.56,-3.66,3.66,3.77,3.79,10.23,10.22,10.22
27.77,6.61,-3.62,6.61,-3.62,3.62,3.73,3.86,10.22,10.22,10.23
28.05,6.66,-3.56,6.65,-3.57,3.57,3.68,3.92,10.23,10.23,10.22
28.33,6.70,-3.53,6.70,-3.53,3.53,3.64,3.98,10.23,10.23,10.23
28.62,6.74,-3.49,6.74,-3.49,3.49,3.59,4.04,10.22,10.23,10.23
28.90,6.79,-3.45,6.78,-3.44,3.44,3.54,4.09,10.23,10.23,10.24
29.19,6.83,-3.41,6.83,-3.40,3.40,3.50,4.13,10.23,10.23,10.24
29.48,6.87,-3.36,6.87,-3.36,3.36,3.45,4.17,10.22,10.23,10.23
29.78,6.92,-3.31,6.91,-3.31,3.31,3.40,4.20,10.23,10.22,10.23
30.08,6.96,-3.27,6.96,-3.27,3.27,3.36,4.22,10.22,10.22,10.23
30.38,7.00,-3.21,7.00,-3.22,3.22,3.31,4.24,10.22,10.22,10.21
30.68,7.04,-3.17,7.04,-3.17,3.17,3.26,4.25,10.21,10.21,10.21
30.99,7.08,-3.13,7.08,-3.13,3.13,3.21,4.25,10.20,10.21,10.21
31.30,7.12,-3.09,7.12,-3.08,3.08,3.16,4.25,10.20,10.20,10.21
31.61,7.16,-3.04,7.16,-3.04,3.04,3.11,4.23,10.19,10.19,10.20
31.93,7.20,-2.98,7.20,-2.99,2.99,3.06,4.21,10.19,10.19,10.18
32.24,7.24,-2.95,7.23,-2.95,2.95,3.01,4.18,10.18,10.18,10.19
32.57,7.28,-2.89,7.27,-2.90,2.90,2.96,4.15,10.18,10.17,10.17
32.89,7.32,-2.85,7.31,-2.86,2.86,2.91,4.10,10.18,10.17,10.17
33.22,7.35,-2.81,7.34,-2.82,2.82,2.86,4.05,10.17,10.16,10.16
33.55,7.38,-2.78,7.38,-2.78,2.78,2.81,4.00,10.16,10.15,10.16
33.89,7.41,-2.74,7.41,-2.74,2.74,2.76,3.93,10.14,10.15,10.15
34.23,7.44,-2.69,7.44,-2.70,2.70,2.71,3.87,10.13,10.14,10.13
34.57,7.48,-2.65,7.48,-2.65,2.65,2.66,3.79,10.13,10.13,10.13
34.92,7.51,-2.60,7.51,-2.61,2.61,2.61,3.72,10.12,10.12,10.11
35.27,7.54,-2.59,7.54,-2.57,2.57,2.55,3.64,10.11,10.11,10.13
35.62,7.57,-2.53,7.57,-2.53,2.53,2.50,3.55,10.10,10.10,10.10
35.97,7.60,-2.50,7.60,-2.48,2.48,2.45,3.46,10.08,10.08,10.10
36.33,7.63,-2.45,7.63,-2.44,2.44,2.39,3.37,10.07,10.07,10.08
36.70,7.66,-2.40,7.66,-2.39,2.39,2.34,3.28,10.05,10.06,10.06
37.06,7.70,-2.34,7.70,-2.34,2.34,2.29,3.19,10.04,10.04,10.04
37.43,7.73,-2.29,7.73,-2.29,2.29,2.23,3.09,10.02,10.02,10.02
37.81,7.76,-2.25,7.76,-2.24,2.24,2.18,2.99,10.00,10.00,10.01
38.19,7.79,-2.19,7.79,-2.20,2.20,2.13,2.90,9.98,9.98,9.98
38.57,7.82,-2.14,7.81,-2.15,2.15,2.07,2.80,9.96,9.96,9.96
38.95,7.85,-2.10,7.84,-2.10,2.10,2.02,2.70,9.95,9.94,9.95
39.34,7.87,-2.05,7.87,-2.05,2.05,1.96,2.60,9.92,9.92,9.92
39.74,7.90,-1.99,7.89,-2.00,2.00,1.91,2.51,9.90,9.90,9.89
40.14,7.93,-1.94,7.92,-1.95,1.95,1.85,2.41,9.88,9.87,9.87
40.54,7.95,-1.90,7.94,-1.91,1.91,1.80,2.32,9.85,9.85,9.85
40.94,7.97,-1.85,7.97,-1.86,1.86,1.74,2.22,9.83,9.83,9.82
41.35,7.99,-1.82,7.99,-1.82,1.82,1.68,2.13,9.80,9.81,9.81
41.76,8.01,-1.77,8.01,-1.77,1.77,1.63,2.03,9.78,9.78,9.78
42.18,8.03,-1.74,8.03,-1.73,1.73,1.57,1.94,9.75,9.76,9.77
42.60,8.06,-1.68,8.06,-1.68,1.68,1.52,1.85,9.74,9.74,9.74
43.03,8.08,-1.64,8.08,-1.63,1.63,1.46,1.76,9.71,9.71,9.72
43.46,8.10,-1.58,8.10,-1.58,1.58,1.40,1.68,9.68,9.69,9.68
43.90,8.12,-1.54,8.13,-1.53,1.53,1.35,1.59,9.65,9.66,9.66
44.33,8.15,-1.48,8.15,-1.48,1.48,1.29,1.50,9.63,9.63,9.63
44.78,8.17,-1.44,8.17,-1.43,1.43,1.23,1.42,9.60,9.60,9.61
45.23,8.20,-1.39,8.20,-1.37,1.37,1.18,1.34,9.57,9.57,9.59
45.68,8.23,-1.31,8.22,-1.32,1.32,1.12,1.26,9.54,9.54,9.54
46.13,8.26,-1.25,8.25,-1.26,1.26,1.06,1.18,9.51,9.50,9.51
46.60,8.28,-1.19,8.27,-1.20,1.20,1.00,1.10,9.47,9.47,9.47
47.06,8.30,-1.14,8.30,-1.13,1.13,0.95,1.02,9.43,9.43,9.44
47.53,8.32,-1.08,8.32,-1.07,1.07,0.89,0.94,9.39,9.39,9.40
48.01,8.34,-1.01,8.34,-1.01,1.01,0.83,0.87,9.34,9.35,9.35
48.49,8.36,-0.95,8.37,-0.94,0.94,0.77,0.79,9.30,9.31,9.31
48.97,8.39,-0.87,8.39,-0.88,0.88,0.71,0.72,9.27,9.27,9.26
49.46,8.41,-0.82,8.41,-0.82,0.82,0.66,0.65,9.22,9.23,9.23
49.96,8.43,-0.74,8.43,-0.76,0.76,0.60,0.58,9.18,9.18,9.17
50.46,8.45,-0.69,8.44,-0.70,0.70,0.54,0.51,9.14,9.14,9.14
50.96,8.47,-0.63,8.46,-0.64,0.64,0.48,0.44,9.11,9.10,9.10
51.47,8.48,-0.58,8.47,-0.58,0.58,0.42,0.37,9.06,9.06,9.06
51.99,8.50,-0.51,8.49,-0.53,0.53,0.36,0.30,9.02,9.01,9.01
52.51,8.51,-0.47,8.50,-0.47,0.47,0.31,0.24,8.98,8.97,8.98
53.03,8.52,-0.43,8.51,-0.42,0.42,0.25,0.17,8.94,8.93,8.95
53.56,8.53,-0.37,8.52,-0.37,0.37,0.19,0.11,8.90,8.89,8.90
54.10,8.53,-0.32,8.53,-0.32,0.32,0.13,0.05,8.85,8.85,8.85
54.64,8.54,-0.27,8.54,-0.27,0.27,0.07,-0.02,8.81,8.81,8.81
55.18,8.54,-0.23,8.55,-0.23,0.23,0.01,-0.08,8.76,8.77,8.77
55.74,8.55,-0.17,8.56,-0.18,0.18,-0.05,-0.14,8.73,8.74,8.72
56.29,8.57,-0.13,8.56,-0.13,0.13,-0.10,-0.19,8.70,8.70,8.70
56.86,8.58,-0.08,8.57,-0.09,0.09,-0.16,-0.25,8.66,8.66,8.66
57.42,8.59,-0.02,8.58,-0.04,0.04,-0.22,-0.31,8.62,8.62,8.61
58.00,8.60,0.03,8.59,0.01,-0.01,-0.28,-0.36,8.58,8.57,8.57
58.58,8.61,0.07,8.60,0.07,-0.07,-0.34,-0.42,8.54,8.53,8.54
59.16,8.61,0.10,8.61,0.13,-0.13,-0.40,-0.47,8.48,8.48,8.51
59.76,8.62,0.16,8.62,0.18,-0.18,-0.46,-0.52,8.43,8.44,8.46
60.35,8.63,0.22,8.64,0.25,-0.25,-0.51,-0.57,8.38,8.39,8.41
60.96,8.64,0.29,8.65,0.31,-0.31,-0.57,-0.62,8.33,8.34,8.35
61.57,8.66,0.37,8.67,0.38,-0.38,-0.63,-0.67,8.28,8.29,8.29
62.18,8.68,0.45,8.68,0.45,-0.45,-0.69,-0.72,8.23,8.24,8.23
62.80,8.70,0.53,8.70,0.52,-0.52,-0.75,-0.76,8.18,8.18,8.17
63.43,8.72,0.60,8.72,0.59,-0.59,-0.81,-0.81,8.13,8.13,8.12
64.07,8.74,0.67,8.74,0.67,-0.67,-0.87,-0.85,8.07,8.08,8.07
64.71,8.77,0.75,8.76,0.74,-0.74,-0.92,-0.89,8.02,8.02,8.02
65.35,8.79,0.83,8.78,0.82,-0.82,-0.98,-0.94,7.97,7.96,7.96
66.01,8.81,0.90,8.81,0.90,-0.90,-1.04,-0.98,7.91,7.91,7.91
66.67,8.83,0.96,8.83,0.97,-0.97,-1.10,-1.02,7.86,7.86,7.87
67.33,8.85,1.05,8.85,1.05,-1.05,-1.16,-1.06,7.80,7.80,7.80
68.01,8.87,1.12,8.86,1.12,-1.12,-1.22,-1.10,7.75,7.75,7.75
68.69,8.88,1.18,8.88,1.19,-1.19,-1.27,-1.14,7.69,7.69,7.70
69.37,8.90,1.25,8.89,1.26,-1.26,-1.33,-1.18,7.64,7.63,7.65
70.07,8.91,1.32,8.90,1.32,-1.32,-1.39,-1.22,7.59,7.58,7.59
70.77,8.92,1.40,8.91,1.39,-1.39,-1.45,-1.26,7.53,7.52,7.52
71.48,8.92,1.45,8.91,1.45,-1.45,-1.50,-1.30,7.47,7.46,7.47
72.19,8.93,1.52,8.91,1.51,-1.51,-1.56,-1.34,7.42,7.41,7.41
72.91,8.93,1.59,8.92,1.57,-1.57,-1.62,-1.38,7.36,7.35,7.34
73.64,8.92,1.63,8.91,1.62,-1.62,-1.68,-1.42,7.29,7.29,7.29
74.38,8.91,1.68,8.91,1.68,-1.68,-1.73,-1.46,7.23,7.24,7.23
75.12,8.90,1.72,8.91,1.73,-1.73,-1.79,-1.50,7.17,7.18,7.18
75.87,8.90,1.77,8.91,1.78,-1.78,-1.85,-1.55,7.12,7.13,7.13
76.63,8.90,1.83,8.91,1.83,-1.83,-1.90,-1.59,7.07,7.08,7.07
77.40,8.90,1.87,8.90,1.88,-1.88,-1.96,-1.63,7.02,7.02,7.03
78.17,8.90,1.93,8.90,1.93,-1.93,-2.02,-1.68,6.97,6.97,6.97
78.95,8.90,1.97,8.90,1.97,-1.97,-2.07,-1.73,6.92,6.92,6.93
79.74,8.90,2.02,8.90,2.02,-2.02,-2.13,-1.78,6.88,6.87,6.88
80.54,8.90,2.07,8.89,2.07,-2.07,-2.18,-1.83,6.83,6.82,6.83
81.35,8.90,2.13,8.89,2.12,-2.12,-2.24,-1.88,6.78,6.77,6.77
82.16,8.90,2.16,8.90,2.17,-2.17,-2.30,-1.93,6.73,6.72,6.74
82.98,8.90,2.22,8.90,2.22,-2.22,-2.35,-1.98,6.67,6.67,6.68
83.81,8.90,2.27,8.90,2.28,-2.28,-2.41,-2.04,6.62,6.62,6.63
84.65,8.90,2.33,8.90,2.33,-2.33,-2.46,-2.10,6.57,6.57,6.57
85.50,8.90,2.39,8.90,2.38,-2.38,-2.51,-2.16,6.51,6.51,6.51
86.35,8.90,2.44,8.90,2.44,-2.44,-2.57,-2.22,6.46,6.46,6.46
87.22,8.90,2.49,8.90,2.49,-2.49,-2.62,-2.28,6.41,6.41,6.41
88.09,8.90,2.55,8.90,2.55,-2.55,-2.68,-2.35,6.35,6.35,6.35
88.97,8.90,2.61,8.90,2.60,-2.60,-2.73,-2.41,6.29,6.29,6.29
89.86,8.90,2.66,8.90,2.66,-2.66,-2.78,-2.48,6.23,6.23,6.24
90.76,8.90,2.72,8.90,2.72,-2.72,-2.84,-2.55,6.18,6.18,6.18
91.66,8.90,2.79,8.90,2.78,-2.78,-2.89,-2.62,6.12,6.11,6.11
92.58,8.90,2.84,8.90,2.84,-2.84,-2.94,-2.70,6.06,6.06,6.06
93.51,8.90,2.89,8.90,2.90,-2.90,-2.99,-2.77,6.00,5.99,6.01
94.44,8.90,2.95,8.90,2.96,-2.96,-3.05,-2.85,5.93,5.93,5.95
95.39,8.90,3.02,8.90,3.02,-3.02,-3.10,-2.93,5.87,5.87,5.88
96.34,8.90,3.09,8.90,3.09,-3.09,-3.15,-3.01,5.81,5.81,5.81
97.30,8.90,3.15,8.90,3.15,-3.15,-3.20,-3.09,5.75,5.75,5.75
98.28,8.90,3.22,8.90,3.22,-3.22,-3.25,-3.18,5.68,5.69,5.68
99.26,8.90,3.28,8.91,3.28,-3.28,-3.30,-3.26,5.62,5.63,5.62
100.25,8.90,3.34,8.91,3.34,-3.34,-3.35,-3.35,5.55,5.57,5.56
101.25,8.90,3.39,8.91,3.41,-3.41,-3.40,-3.43,5.49,5.51,5.51
102.27,8.91,3.46,8.92,3.47,-3.47,-3.45,-3.52,5.44,5.45,5.45
103.29,8.92,3.53,8.92,3.52,-3.52,-3.50,-3.61,5.39,5.39,5.39
104.32,8.92,3.58,8.91,3.58,-3.58,-3.55,-3.69,5.34,5.34,5.34
105.37,8.92,3.64,8.91,3.63,-3.63,-3.60,-3.78,5.29,5.28,5.28
106.42,8.93,3.70,8.90,3.67,-3.67,-3.64,-3.87,5.25,5.22,5.23
107.48,8.91,3.74,8.89,3.72,-3.72,-3.69,-3.96,5.19,5.17,5.17
108.56,8.89,3.77,8.87,3.76,-3.76,-3.74,-4.04,5.13,5.11,5.12
109.64,8.87,3.81,8.85,3.80,-3.80,-3.78,-4.12,5.07,5.05,5.06
110.74,8.84,3.84,8.82,3.83,-3.83,-3.83,-4.21,5.01,4.99,5.00
111.85,8.80,3.86,8.80,3.86,-3.86,-3.88,-4.28,4.93,4.93,4.94
112.97,8.77,3.88,8.77,3.89,-3.89,-3.92,-4.36,4.88,4.87,4.89
114.10,8.73,3.90,8.73,3.92,-3.92,-3.97,-4.43,4.81,4.82,4.83
115.24,8.70,3.95,8.70,3.94,-3.94,-4.01,-4.50,4.75,4.76,4.75
116.39,8.67,3.98,8.67,3.97,-3.97,-4.05,-4.57,4.69,4.70,4.69
117.55,8.64,4.01,8.65,4.00,-4.00,-4.10,-4.63,4.63,4.64,4.63
118.73,8.62,4.05,8.62,4.04,-4.04,-4.14,-4.69,4.58,4.59,4.57
119.92,8.58,4.05,8.60,4.07,-4.07,-4.18,-4.74,4.50,4.53,4.53
121.12,8.57,4.09,8.59,4.12,-4.12,-4.22,-4.79,4.45,4.47,4.48
122.33,8.56,4.14,8.58,4.16,-4.16,-4.26,-4.83,4.40,4.42,4.42
123.55,8.56,4.19,8.57,4.21,-4.21,-4.31,-4.86,4.35,4.36,4.37
124.79,8.56,4.24,8.57,4.26,-4.26,-4.35,-4.89,4.30,4.31,4.32
126.03,8.57,4.31,8.57,4.32,-4.32,-4.38,-4.92,4.25,4.25,4.26
127.29,8.58,4.37,8.57,4.37,-4.37,-4.42,-4.93,4.21,4.20,4.21
128.57,8.58,4.44,8.57,4.43,-4.43,-4.46,-4.95,4.15,4.14,4.14
129.85,8.58,4.49,8.58,4.49,-4.49,-4.50,-4.96,4.09,4.09,4.09
131.15,8.58,4.55,8.58,4.55,-4.55,-4.54,-4.96,4.03,4.03,4.03
132.46,8.59,4.61,8.59,4.61,-4.61,-4.57,-4.95,3.98,3.98,3.98
133.79,8.59,4.67,8.59,4.67,-4.67,-4.61,-4.95,3.92,3.92,3.92
135.12,8.60,4.73,8.59,4.72,-4.72,-4.65,-4.94,3.88,3.87,3.87
136.48,8.60,4.78,8.58,4.77,-4.77,-4.68,-4.92,3.83,3.82,3.82
137.84,8.59,4.82,8.57,4.81,-4.81,-4.72,-4.90,3.78,3.76,3.77
139.22,8.58,4.87,8.56,4.84,-4.84,-4.75,-4.88,3.73,3.71,3.71
140.61,8.56,4.89,8.54,4.87,-4.87,-4.78,-4.86,3.68,3.66,3.67
142.02,8.53,4.92,8.51,4.90,-4.90,-4.81,-4.83,3.63,3.62,3.61
143.44,8.51,4.94,8.49,4.92,-4.92,-4.85,-4.81,3.59,3.57,3.57
144.87,8.47,4.94,8.46,4.94,-4.94,-4.88,-4.78,3.53,3.52,3.53
146.32,8.44,4.96,8.43,4.95,-4.95,-4.91,-4.75,3.48,3.48,3.48
147.78,8.40,4.96,8.41,4.97,-4.97,-4.94,-4.72,3.43,3.44,3.44
149.26,8.37,4.98,8.38,4.99,-4.99,-4.97,-4.69,3.38,3.39,3.39
150.75,8.34,4.99,8.35,5.00,-5.00,-4.99,-4.67,3.33,3.35,3.35
152.26,8.31,5.00,8.33,5.02,-5.02,-5.02,-4.64,3.28,3.31,3.31
153.78,8.28,5.01,8.31,5.05,-5.05,-5.05,-4.62,3.23,3.26,3.27
155.32,8.26,5.03,8.29,5.07,-5.07,-5.07,-4.59,3.19,3.22,3.23
156.88,8.26,5.08,8.27,5.10,-5.10,-5.10,-4.57,3.16,3.18,3.18
158.44,8.26,5.13,8.26,5.13,-5.13,-5.12,-4.55,3.13,3.13,3.13
160.03,8.25,5.16,8.24,5.16,-5.16,-5.15,-4.54,3.09,3.09,3.09
161.63,8.25,5.20,8.23,5.19,-5.19,-5.17,-4.52,3.06,3.04,3.05
163.24,8.24,5.24,8.22,5.22,-5.22,-5.19,-4.51,3.02,3.00,3.00
164.88,8.23,5.28,8.20,5.25,-5.25,-5.21,-4.50,2.97,2.95,2.95
166.53,8.21,5.31,8.19,5.28,-5.28,-5.23,-4.50,2.92,2.90,2.90
168.19,8.18,5.31,8.17,5.31,-5.31,-5.25,-4.49,2.87,2.86,2.87
169.87,8.14,5.33,8.14,5.33,-5.33,-5.27,-4.50,2.80,2.81,2.81
171.57,8.12,5.36,8.11,5.35,-5.35,-5.29,-4.50,2.76,2.76,2.76
173.29,8.09,5.37,8.08,5.37,-5.37,-5.31,-4.51,2.72,2.71,2.72
175.02,8.06,5.39,8.05,5.38,-5.38,-5.33,-4.52,2.67,2.67,2.67
176.77,8.02,5.40,8.02,5.40,-5.40,-5.34,-4.53,2.62,2.62,2.62
178.54,7.99,5.41,7.98,5.41,-5.41,-5.36,-4.55,2.58,2.57,2.58
180.32,7.95,5.43,7.95,5.42,-5.42,-5.37,-4.58,2.53,2.53,2.52
182.13,7.92,5.43,7.92,5.43,-5.43,-5.38,-4.60,2.48,2.48,2.49
183.95,7.86,5.42,7.88,5.45,-5.45,-5.40,-4.63,2.41,2.44,2.44
185.79,7.82,5.43,7.85,5.46,-5.46,-5.41,-4.66,2.36,2.39,2.39
187.65,7.80,5.45,7.82,5.47,-5.47,-5.42,-4.70,2.33,2.35,2.35
189.52,7.78,5.47,7.78,5.48,-5.48,-5.43,-4.74,2.30,2.30,2.31
191.42,7.77,5.50,7.75,5.49,-5.49,-5.43,-4.78,2.28,2.26,2.27
193.33,7.74,5.51,7.72,5.50,-5.50,-5.44,-4.82,2.23,2.22,2.23
195.27,7.71,5.53,7.69,5.51,-5.51,-5.45,-4.87,2.19,2.18,2.18
197.22,7.68,5.55,7.66,5.52,-5.52,-5.46,-4.92,2.16,2.14,2.13
199.19,7.64,5.54,7.63,5.53,-5.53,-5.46,-4.98,2.11,2.10,2.10
201.18,7.60,5.54,7.60,5.53,-5.53,-5.46,-5.03,2.06,2.07,2.06
203.19,7.56,5.53,7.57,5.54,-5.54,-5.47,-5.09,2.02,2.03,2.03
205.23,7.52,5.51,7.54,5.54,-5.54,-5.47,-5.15,1.98,2.00,2.01
207.28,7.50,5.52,7.50,5.53,-5.53,-5.47,-5.21,1.96,1.97,1.98
209.35,7.48,5.54,7.46,5.52,-5.52,-5.47,-5.27,1.95,1.94,1.94
211.44,7.44,5.53,7.42,5.51,-5.51,-5.47,-5.33,1.92,1.91,1.91
213.56,7.40,5.51,7.38,5.50,-5.50,-5.47,-5.39,1.90,1.88,1.89
215.69,7.35,5.49,7.34,5.49,-5.49,-5.47,-5.45,1.86,1.85,1.86
217.85,7.29,5.46,7.30,5.47,-5.47,-5.46,-5.51,1.82,1.83,1.83
220.03,7.26,5.46,7.25,5.45,-5.45,-5.46,-5.57,1.80,1.80,1.80
222.23,7.21,5.44,7.21,5.43,-5.43,-5.45,-5.62,1.77,1.78,1.77
224.45,7.16,5.40,7.17,5.41,-5.41,-5.45,-5.68,1.75,1.75,1.76
226.70,7.12,5.39,7.12,5.39,-5.39,-5.44,-5.73,1.73,1.73,1.73
228.96,7.07,5.35,7.07,5.36,-5.36,-5.43,-5.77,1.71,1.71,1.72
231.25,7.04,5.34,7.02,5.33,-5.33,-5.42,-5.81,1.71,1.69,1.70
233.57,7.00,5.32,6.98,5.30,-5.30,-5.41,-5.85,1.70,1.68,1.68
235.90,6.94,5.27,6.94,5.27,-5.27,-5.40,-5.88,1.66,1.66,1.67
238.26,6.90,5.26,6.90,5.25,-5.25,-5.39,-5.90,1.65,1.65,1.64
240.64,6.85,5.20,6.86,5.22,-5.22,-5.37,-5.92,1.63,1.64,1.65
243.05,6.81,5.18,6.82,5.19,-5.19,-5.36,-5.94,1.61,1.63,1.63
245.48,6.77,5.15,6.79,5.17,-5.17,-5.34,-5.94,1.60,1.62,1.62
247.93,6.73,5.12,6.76,5.14,-5.14,-5.33,-5.94,1.58,1.62,1.61
250.41,6.72,5.10,6.73,5.12,-5.12,-5.31,-5.93,1.60,1.61,1.62
252.92,6.71,5.10,6.70,5.10,-5.10,-5.29,-5.91,1.61,1.61,1.61
255.45,6.69,5.09,6.67,5.07,-5.07,-5.27,-5.88,1.61,1.60,1.60
258.00,6.67,5.07,6.65,5.05,-5.05,-5.25,-5.85,1.62,1.60,1.60
260.58,6.64,5.04,6.62,5.03,-5.03,-5.23,-5.81,1.61,1.59,1.60
263.19,6.61,5.01,6.60,5.01,-5.01,-5.21,-5.76,1.60,1.59,1.60
265.82,6.58,4.99,6.58,4.99,-4.99,-5.19,-5.71,1.59,1.59,1.59
268.48,6.56,4.97,6.55,4.97,-4.97,-5.16,-5.65,1.59,1.58,1.59
271.16,6.54,4.95,6.53,4.95,-4.95,-5.14,-5.59,1.59,1.58,1.59
273.87,6.50,4.91,6.50,4.92,-4.92,-5.11,-5.52,1.58,1.58,1.59
276.61,6.47,4.88,6.48,4.89,-4.89,-5.09,-5.44,1.57,1.58,1.59
279.38,6.45,4.88,6.45,4.87,-4.87,-5.06,-5.37,1.58,1.58,1.57
282.17,6.42,4.85,6.42,4.84,-4.84,-5.03,-5.28,1.58,1.58,1.57
284.99,6.40,4.82,6.39,4.81,-4.81,-5.00,-5.20,1.59,1.58,1.58
287.84,6.36,4.77,6.36,4.78,-4.78,-4.97,-5.11,1.58,1.58,1.59
290.72,6.34,4.76,6.33,4.75,-4.75,-4.94,-5.03,1.59,1.59,1.58
293.63,6.31,4.72,6.31,4.72,-4.72,-4.90,-4.94,1.59,1.59,1.59
296.57,6.28,4.68,6.28,4.69,-4.69,-4.87,-4.85,1.59,1.59,1.60
299.53,6.25,4.65,6.25,4.66,-4.66,-4.84,-4.76,1.59,1.60,1.60
302.53,6.23,4.61,6.23,4.62,-4.62,-4.80,-4.67,1.60,1.60,1.62
305.55,6.21,4.60,6.20,4.59,-4.59,-4.76,-4.58,1.62,1.61,1.61
308.61,6.18,4.56,6.18,4.56,-4.56,-4.73,-4.49,1.62,1.62,1.62
311.69,6.15,4.52,6.15,4.52,-4.52,-4.69,-4.40,1.62,1.63,1.63
314.81,6.13,4.50,6.12,4.49,-4.49,-4.65,-4.31,1.64,1.63,1.63
317.96,6.10,4.46,6.10,4.46,-4.46,-4.61,-4.23,1.64,1.64,1.64
321.14,6.08,4.43,6.07,4.43,-4.43,-4.57,-4.14,1.65,1.65,1.65
324.35,6.05,4.40,6.05,4.39,-4.39,-4.53,-4.06,1.65,1.65,1.65
327.59,6.02,4.34,6.03,4.36,-4.36,-4.48,-3.98,1.65,1.66,1.68
330.87,6.00,4.33,6.00,4.33,-4.33,-4.44,-3.91,1.66,1.67,1.67
334.18,5.97,4.29,5.98,4.30,-4.30,-4.40,-3.83,1.67,1.68,1.68
337.52,5.94,4.26,5.95,4.27,-4.27,-4.35,-3.76,1.67,1.68,1.68
340.90,5.92,4.22,5.92,4.23,-4.23,-4.30,-3.69,1.69,1.69,1.70
344.30,5.89,4.18,5.90,4.20,-4.20,-4.26,-3.63,1.69,1.70,1.71
347.75,5.88,4.17,5.87,4.16,-4.16,-4.21,-3.56,1.72,1.71,1.71
351.23,5.87,4.16,5.83,4.12,-4.12,-4.16,-3.50,1.75,1.72,1.71
354.74,5.83,4.09,5.80,4.08,-4.08,-4.11,-3.44,1.75,1.73,1.74
358.28,5.79,4.06,5.77,4.03,-4.03,-4.06,-3.39,1.75,1.73,1.73
361.87,5.74,4.00,5.73,3.99,-3.99,-4.01,-3.33,1.75,1.74,1.74
365.49,5.69,3.94,5.69,3.95,-3.95,-3.96,-3.28,1.74,1.75,1.75
369.14,5.64,3.87,5.65,3.90,-3.90,-3.91,-3.24,1.74,1.76,1.77
372.83,5.60,3.83,5.62,3.85,-3.85,-3.85,-3.19,1.75,1.77,1.77
376.56,5.56,3.79,5.57,3.80,-3.80,-3.80,-3.15,1.76,1.77,1.77
380.33,5.52,3.74,5.53,3.75,-3.75,-3.75,-3.11,1.77,1.78,1.78
384.13,5.48,3.68,5.48,3.69,-3.69,-3.69,-3.07,1.79,1.79,1.80
387.97,5.44,3.64,5.44,3.63,-3.63,-3.63,-3.03,1.80,1.80,1.80
391.85,5.40,3.59,5.39,3.58,-3.58,-3.58,-3.00,1.82,1.81,1.81
395.77,5.36,3.54,5.35,3.52,-3.52,-3.52,-2.97,1.83,1.82,1.82
399.73,5.32,3.49,5.30,3.47,-3.47,-3.46,-2.94,1.85,1.83,1.83
403.72,5.27,3.41,5.25,3.41,-3.41,-3.40,-2.91,1.86,1.84,1.86
407.76,5.21,3.36,5.20,3.35,-3.35,-3.34,-2.88,1.85,1.85,1.85
411.84,5.15,3.29,5.15,3.29,-3.29,-3.28,-2.86,1.85,1.86,1.86
415.96,5.09,3.21,5.10,3.23,-3.23,-3.22,-2.83,1.85,1.87,1.88
420.12,5.04,3.16,5.05,3.17,-3.17,-3.16,-2.81,1.86,1.88,1.88
424.32,5.01,3.12,5.00,3.11,-3.11,-3.10,-2.79,1.90,1.89,1.89
428.56,4.96,3.05,4.94,3.05,-3.05,-3.04,-2.77,1.91,1.90,1.91
432.85,4.90,2.98,4.89,2.98,-2.98,-2.97,-2.74,1.91,1.91,1.92
437.18,4.82,2.91,4.83,2.92,-2.92,-2.91,-2.72,1.90,1.92,1.91
441.55,4.77,2.85,4.78,2.86,-2.86,-2.85,-2.70,1.91,1.92,1.92
445.96,4.73,2.80,4.73,2.79,-2.79,-2.78,-2.68,1.93,1.93,1.93
450.42,4.68,2.74,4.67,2.73,-2.73,-2.72,-2.65,1.95,1.94,1.94
454.93,4.63,2.68,4.62,2.67,-2.67,-2.65,-2.63,1.96,1.95,1.95
459.48,4.57,2.61,4.56,2.60,-2.60,-2.59,-2.60,1.96,1.96,1.96
464.07,4.50,2.52,4.51,2.54,-2.54,-2.52,-2.58,1.96,1.97,1.98
468.71,4.45,2.46,4.45,2.47,-2.47,-2.45,-2.55,1.97,1.98,1.99
473.40,4.39,2.40,4.39,2.41,-2.41,-2.38,-2.52,1.98,1.99,1.99
478.13,4.34,2.34,4.34,2.34,-2.34,-2.32,-2.49,2.00,2.00,2.00
482.91,4.29,2.28,4.28,2.27,-2.27,-2.25,-2.45,2.01,2.01,2.01
487.74,4.24,2.22,4.23,2.21,-2.21,-2.18,-2.41,2.03,2.02,2.02
492.62,4.17,2.14,4.17,2.14,-2.14,-2.11,-2.37,2.03,2.03,2.03
497.55,4.11,2.07,4.12,2.07,-2.07,-2.04,-2.33,2.03,2.04,2.04
502.52,4.06,2.01,4.06,2.01,-2.01,-1.97,-2.29,2.05,2.05,2.05
507.55,4.01,1.94,4.00,1.94,-1.94,-1.90,-2.24,2.07,2.07,2.07
512.62,3.95,1.87,3.95,1.87,-1.87,-1.83,-2.19,2.08,2.08,2.08
517.75,3.89,1.79,3.89,1.80,-1.80,-1.76,-2.13,2.09,2.09,2.10
522.93,3.83,1.72,3.83,1.73,-1.73,-1.69,-2.08,2.10,2.10,2.11
528.16,3.78,1.66,3.78,1.66,-1.66,-1.62,-2.02,2.12,2.11,2.12
533.44,3.73,1.60,3.72,1.59,-1.59,-1.55,-1.95,2.14,2.13,2.13
538.77,3.67,1.53,3.66,1.52,-1.52,-1.48,-1.89,2.15,2.14,2.14
