frequency,raw,error,smoothed,error_smoothed,equalization,parametric_eq,fixed_band_eq,equalized_raw,equalized_smoothed,target
20.00,7.27,-1.81,7.27,-1.81,1.81,1.62,0.50,9.08,9.08,9.08
20.20,7.29,-1.78,7.29,-1.78,1.78,1.62,0.52,9.07,9.07,9.07
20.40,7.31,-1.75,7.31,-1.75,1.75,1.62,0.54,9.06,9.06,9.06
20.61,7.33,-1.72,7.33,-1.72,1.72,1.61,0.55,9.05,9.04,9.05
20.81,7.34,-1.69,7.34,-1.69,1.69,1.61,0.57,9.03,9.03,9.03
21.02,7.36,-1.66,7.36,-1.66,1.66,1.60,0.59,9.02,9.02,9.02
21.23,7.38,-1.63,7.38,-1.63,1.63,1.60,0.61,9.01,9.01,9.01
21.44,7.40,-1.62,7.40,-1.61,1.60,1.59,0.63,9.00,9.00,9.02
21.66,7.42,-1.58,7.42,-1.58,1.58,1.59,0.66,9.00,9.00,9.00
21.87,7.44,-1.56,7.44,-1.55,1.55,1.58,0.68,8.99,8.99,9.00
22.09,7.46,-1.52,7.46,-1.52,1.53,1.58,0.70,8.98,8.98,8.98
22.31,7.47,-1.50,7.47,-1.50,1.50,1.57,0.73,8.97,8.97,8.97
22.54,7.49,-1.47,7.49,-1.47,1.47,1.56,0.75,8.96,8.96,8.96
22.76,7.50,-1.46,7.50,-1.45,1.45,1.55,0.77,8.95,8.95,8.96
22.99,7.52,-1.43,7.52,-1.43,1.43,1.54,0.80,8.95,8.95,8.95
23.22,7.54,-1.40,7.54,-1.41,1.40,1.53,0.83,8.94,8.94,8.94
23.45,7.56,-1.39,7.56,-1.38,1.38,1.52,0.85,8.94,8.94,8.95
23.69,7.58,-1.36,7.58,-1.36,1.36,1.51,0.88,8.94,8.94,8.94
23.92,7.59,-1.34,7.59,-1.34,1.34,1.49,0.91,8.93,8.93,8.93
24.16,7.61,-1.33,7.61,-1.32,1.32,1.48,0.94,8.93,8.93,8.94
24.40,7.63,-1.31,7.63,-1.30,1.30,1.47,0.97,8.93,8.93,8.94
24.65,7.65,-1.28,7.65,-1.28,1.28,1.45,0.99,8.93,8.93,8.93
24.89,7.66,-1.27,7.66,-1.26,1.26,1.44,1.02,8.92,8.93,8.93
25.14,7.68,-1.24,7.68,-1.24,1.25,1.42,1.05,8.93,8.92,8.92
25.39,7.69,-1.23,7.69,-1.23,1.23,1.41,1.08,8.92,8.92,8.92
25.65,7.71,-1.21,7.71,-1.21,1.21,1.39,1.11,8.92,8.92,8.92
25.91,7.72,-1.20,7.72,-1.20,1.19,1.38,1.14,8.91,8.92,8.92
26.16,7.74,-1.19,7.74,-1.18,1.18,1.36,1.17,8.92,8.92,8.93
26.43,7.76,-1.16,7.76,-1.16,1.16,1.34,1.20,8.92,8.92,8.92
26.69,7.77,-1.15,7.77,-1.15,1.15,1.32,1.23,8.92,8.92,8.92
26.96,7.79,-1.13,7.79,-1.13,1.13,1.30,1.25,8.92,8.92,8.92
27.23,7.80,-1.12,7.80,-1.12,1.12,1.28,1.28,8.91,8.92,8.92
27.50,7.82,-1.10,7.82,-1.10,1.10,1.26,1.30,8.92,8.92,8.92
27.77,7.84,-1.09,7.84,-1.08,1.09,1.24,1.32,8.93,8.92,8.93
28.05,7.85,-1.07,7.85,-1.07,1.07,1.22,1.35,8.92,8.93,8.92
28.33,7.87,-1.06,7.87,-1.06,1.06,1.20,1.37,8.93,8.93,8.93
28.62,7.88,-1.05,7.88,-1.05,1.05,1.18,1.38,8.93,8.93,8.93
28.90,7.90,-1.04,7.90,-1.04,1.03,1.15,1.40,8.93,8.93,8.94
29.19,7.91,-1.03,7.91,-1.02,1.02,1.13,1.41,8.93,8.93,8.94
29.48,7.92,-1.01,7.92,-1.01,1.00,1.11,1.42,8.92,8.93,8.93
29.78,7.94,-0.99,7.94,-0.99,0.99,1.08,1.43,8.93,8.92,8.93
30.08,7.95,-0.98,7.95,-0.97,0.97,1.06,1.44,8.92,8.92,8.93
30.38,7.97,-0.94,7.97,-0.95,0.95,1.03,1.44,8.92,8.92,8.91
30.68,7.98,-0.93,7.98,-0.93,0.93,1.01,1.44,8.91,8.91,8.91
30.99,7.99,-0.92,7.99,-0.92,0.92,0.98,1.43,8.91,8.91,8.91
31.30,8.00,-0.91,8.00,-0.90,0.90,0.96,1.42,8.90,8.90,8.91
31.61,8.01,-0.89,8.01,-0.89,0.88,0.93,1.41,8.89,8.89,8.90
31.93,8.02,-0.86,8.02,-0.87,0.87,0.90,1.40,8.88,8.88,8.88
32.24,8.03,-0.86,8.03,-0.85,0.85,0.88,1.38,8.88,8.88,8.89
32.57,8.04,-0.83,8.04,-0.83,0.84,0.85,1.36,8.87,8.87,8.87
32.89,8.05,-0.82,8.05,-0.82,0.82,0.82,1.34,8.87,8.87,8.87
33.22,8.05,-0.81,8.05,-0.81,0.81,0.79,1.31,8.86,8.86,8.86
33.55,8.06,-0.80,8.06,-0.80,0.80,0.76,1.28,8.86,8.85,8.86
33.89,8.06,-0.79,8.06,-0.79,0.79,0.74,1.25,8.84,8.84,8.85
34.23,8.06,-0.77,8.06,-0.77,0.78,0.71,1.22,8.84,8.84,8.83
34.57,8.06,-0.77,8.06,-0.76,0.77,0.68,1.18,8.83,8.83,8.83
34.92,8.06,-0.75,8.06,-0.76,0.76,0.65,1.14,8.82,8.82,8.81
35.27,8.07,-0.76,8.07,-0.75,0.74,0.62,1.10,8.81,8.81,8.83
35.62,8.07,-0.73,8.07,-0.73,0.73,0.59,1.06,8.80,8.80,8.80
35.97,8.08,-0.72,8.08,-0.72,0.71,0.56,1.01,8.79,8.79,8.80
36.33,8.08,-0.70,8.08,-0.69,0.69,0.52,0.96,8.77,8.77,8.78
36.70,8.09,-0.67,8.09,-0.67,0.67,0.49,0.92,8.76,8.76,8.76
37.06,8.09,-0.65,8.09,-0.64,0.64,0.46,0.87,8.73,8.73,8.74
37.43,8.11,-0.61,8.11,-0.61,0.61,0.43,0.82,8.72,8.72,8.72
37.81,8.13,-0.58,8.13,-0.57,0.57,0.40,0.77,8.70,8.70,8.71
38.19,8.15,-0.53,8.15,-0.53,0.53,0.36,0.72,8.68,8.68,8.68
38.57,8.17,-0.49,8.17,-0.49,0.49,0.33,0.66,8.66,8.66,8.66
38.95,8.19,-0.46,8.19,-0.45,0.45,0.30,0.61,8.64,8.64,8.65
39.34,8.21,-0.41,8.21,-0.41,0.41,0.27,0.56,8.62,8.62,8.62
39.74,8.23,-0.36,8.23,-0.36,0.36,0.23,0.50,8.59,8.59,8.59
40.14,8.25,-0.32,8.25,-0.32,0.32,0.20,0.45,8.57,8.57,8.57
40.54,8.27,-0.28,8.27,-0.27,0.27,0.16,0.40,8.54,8.54,8.55
40.94,8.30,-0.22,8.30,-0.23,0.23,0.13,0.34,8.53,8.52,8.52
41.35,8.32,-0.19,8.32,-0.18,0.18,0.10,0.29,8.50,8.50,8.51
41.76,8.35,-0.13,8.35,-0.13,0.13,0.06,0.23,8.48,8.48,8.48
42.18,8.38,-0.09,8.38,-0.08,0.08,0.03,0.18,8.46,8.46,8.47
42.60,8.41,-0.03,8.41,-0.03,0.03,-0.01,0.13,8.44,8.44,8.44
43.03,8.43,0.01,8.43,0.02,-0.02,-0.05,0.07,8.41,8.41,8.42
43.46,8.45,0.07,8.45,0.07,-0.06,-0.08,0.02,8.38,8.39,8.38
43.90,8.47,0.11,8.47,0.12,-0.11,-0.12,-0.04,8.35,8.36,8.36
44.33,8.50,0.17,8.50,0.16,-0.17,-0.15,-0.09,8.33,8.33,8.33
44.78,8.52,0.21,8.52,0.21,-0.22,-0.19,-0.15,8.30,8.30,8.31
45.23,8.54,0.25,8.54,0.26,-0.27,-0.23,-0.20,8.27,8.27,8.29
45.68,8.56,0.32,8.56,0.32,-0.32,-0.27,-0.25,8.24,8.24,8.24
46.13,8.58,0.37,8.58,0.37,-0.37,-0.30,-0.31,8.21,8.21,8.21
46.60,8.60,0.43,8.60,0.43,-0.43,-0.34,-0.36,8.17,8.17,8.17
47.06,8.61,0.47,8.61,0.48,-0.48,-0.38,-0.42,8.13,8.14,8.14
47.53,8.63,0.53,8.63,0.53,-0.53,-0.42,-0.47,8.10,8.09,8.10
48.01,8.64,0.59,8.64,0.59,-0.58,-0.46,-0.52,8.06,8.05,8.05
48.49,8.64,0.63,8.64,0.64,-0.64,-0.49,-0.58,8.00,8.01,8.01
48.97,8.65,0.69,8.65,0.69,-0.69,-0.53,-0.63,7.96,7.96,7.96
49.46,8.65,0.72,8.65,0.73,-0.74,-0.57,-0.68,7.91,7.91,7.93
49.96,8.66,0.79,8.66,0.79,-0.79,-0.61,-0.74,7.87,7.87,7.87
50.46,8.67,0.83,8.67,0.83,-0.83,-0.65,-0.79,7.84,7.83,7.84
50.96,8.68,0.88,8.68,0.88,-0.88,-0.69,-0.85,7.80,7.80,7.80
51.47,8.68,0.92,8.68,0.93,-0.92,-0.73,-0.90,7.75,7.76,7.76
51.99,8.69,0.98,8.69,0.97,-0.97,-0.77,-0.95,7.72,7.72,7.71
52.51,8.69,1.01,8.69,1.01,-1.01,-0.81,-1.00,7.68,7.68,7.68
53.03,8.69,1.04,8.69,1.05,-1.05,-0.86,-1.06,7.64,7.64,7.65
53.56,8.68,1.08,8.68,1.08,-1.09,-0.90,-1.11,7.59,7.59,7.60
54.10,8.68,1.13,8.68,1.12,-1.13,-0.94,-1.16,7.55,7.55,7.55
54.64,8.67,1.16,8.67,1.17,-1.16,-0.98,-1.21,7.51,7.51,7.51
55.18,8.67,1.20,8.67,1.20,-1.20,-1.02,-1.26,7.47,7.47,7.47
55.74,8.66,1.24,8.66,1.23,-1.24,-1.07,-1.31,7.42,7.43,7.42
56.29,8.66,1.26,8.66,1.27,-1.27,-1.11,-1.36,7.39,7.39,7.40
56.86,8.66,1.30,8.66,1.31,-1.31,-1.15,-1.41,7.35,7.35,7.36
57.42,8.66,1.35,8.66,1.35,-1.34,-1.20,-1.45,7.32,7.32,7.31
58.00,8.66,1.39,8.66,1.39,-1.38,-1.24,-1.50,7.28,7.28,7.27
58.58,8.66,1.42,8.66,1.42,-1.43,-1.29,-1.54,7.23,7.23,7.24
59.16,8.66,1.45,8.66,1.46,-1.47,-1.33,-1.59,7.18,7.19,7.21
59.76,8.67,1.51,8.67,1.51,-1.53,-1.38,-1.63,7.14,7.14,7.16
60.35,8.68,1.57,8.68,1.57,-1.58,-1.42,-1.67,7.10,7.10,7.11
60.96,8.69,1.64,8.69,1.64,-1.64,-1.47,-1.71,7.05,7.05,7.05
61.57,8.69,1.70,8.69,1.70,-1.70,-1.51,-1.75,6.99,6.99,6.99
62.18,8.69,1.76,8.69,1.76,-1.75,-1.56,-1.78,6.94,6.94,6.93
62.80,8.68,1.81,8.68,1.81,-1.81,-1.61,-1.82,6.87,6.88,6.87
63.43,8.68,1.86,8.68,1.86,-1.86,-1.65,-1.85,6.82,6.82,6.82
64.07,8.67,1.90,8.67,1.90,-1.90,-1.70,-1.89,6.77,6.77,6.77
64.71,8.66,1.94,8.66,1.94,-1.94,-1.75,-1.92,6.72,6.72,6.72
65.35,8.64,1.98,8.64,1.98,-1.98,-1.80,-1.95,6.66,6.66,6.66
66.01,8.62,2.01,8.62,2.01,-2.01,-1.85,-1.98,6.61,6.61,6.61
66.67,8.60,2.03,8.60,2.04,-2.05,-1.90,-2.01,6.55,6.55,6.57
67.33,8.58,2.08,8.58,2.08,-2.08,-1.94,-2.04,6.50,6.50,6.50
68.01,8.56,2.11,8.56,2.11,-2.11,-1.99,-2.07,6.45,6.45,6.45
68.69,8.54,2.14,8.54,2.14,-2.14,-2.04,-2.10,6.40,6.40,6.40
69.37,8.51,2.16,8.51,2.17,-2.17,-2.09,-2.12,6.34,6.34,6.35
70.07,8.49,2.20,8.49,2.21,-2.21,-2.14,-2.15,6.28,6.28,6.29
70.77,8.47,2.25,8.46,2.24,-2.24,-2.19,-2.18,6.23,6.22,6.22
71.48,8.44,2.27,8.44,2.28,-2.28,-2.25,-2.21,6.16,6.16,6.17
72.19,8.41,2.30,8.41,2.31,-2.31,-2.30,-2.23,6.10,6.10,6.11
72.91,8.39,2.35,8.39,2.35,-2.35,-2.35,-2.26,6.04,6.04,6.04
73.64,8.38,2.39,8.37,2.39,-2.39,-2.40,-2.29,5.99,5.99,5.99
74.38,8.36,2.43,8.36,2.43,-2.42,-2.45,-2.32,5.93,5.93,5.93
75.12,8.34,2.46,8.34,2.47,-2.46,-2.50,-2.35,5.87,5.88,5.88
75.87,8.33,2.50,8.33,2.51,-2.51,-2.56,-2.39,5.82,5.82,5.83
76.63,8.32,2.55,8.32,2.55,-2.55,-2.61,-2.42,5.77,5.77,5.77
77.40,8.32,2.59,8.32,2.59,-2.60,-2.66,-2.45,5.72,5.72,5.73
78.17,8.31,2.64,8.31,2.64,-2.65,-2.72,-2.49,5.66,5.67,5.67
78.95,8.32,2.69,8.32,2.69,-2.70,-2.77,-2.53,5.62,5.62,5.63
79.74,8.33,2.75,8.33,2.76,-2.75,-2.82,-2.57,5.58,5.58,5.58
80.54,8.34,2.81,8.34,2.81,-2.80,-2.88,-2.61,5.54,5.53,5.53
81.35,8.34,2.87,8.34,2.86,-2.86,-2.93,-2.65,5.48,5.48,5.47
82.16,8.34,2.90,8.34,2.91,-2.91,-2.98,-2.70,5.43,5.43,5.44
82.98,8.34,2.96,8.34,2.96,-2.97,-3.04,-2.74,5.37,5.37,5.38
83.81,8.34,3.01,8.34,3.01,-3.02,-3.09,-2.79,5.32,5.32,5.33
84.65,8.34,3.07,8.34,3.07,-3.07,-3.15,-2.84,5.27,5.27,5.27
85.50,8.34,3.13,8.34,3.13,-3.13,-3.20,-2.90,5.21,5.21,5.21
86.35,8.34,3.18,8.34,3.18,-3.18,-3.25,-2.95,5.16,5.16,5.16
87.22,8.34,3.23,8.34,3.24,-3.24,-3.31,-3.01,5.10,5.10,5.11
88.09,8.34,3.29,8.34,3.29,-3.29,-3.36,-3.07,5.05,5.05,5.05
88.97,8.34,3.35,8.34,3.35,-3.35,-3.42,-3.13,4.99,4.99,4.99
89.86,8.34,3.40,8.34,3.41,-3.41,-3.47,-3.20,4.93,4.93,4.94
90.76,8.34,3.46,8.34,3.47,-3.46,-3.53,-3.26,4.88,4.88,4.88
91.66,8.34,3.53,8.34,3.52,-3.52,-3.58,-3.33,4.82,4.82,4.81
92.58,8.34,3.58,8.34,3.58,-3.58,-3.63,-3.40,4.76,4.76,4.76
93.51,8.34,3.63,8.34,3.64,-3.64,-3.69,-3.48,4.70,4.70,4.71
94.44,8.34,3.69,8.34,3.70,-3.70,-3.74,-3.56,4.64,4.64,4.65
95.39,8.34,3.76,8.34,3.76,-3.77,-3.80,-3.63,4.57,4.57,4.58
96.34,8.34,3.83,8.34,3.83,-3.83,-3.85,-3.71,4.51,4.51,4.51
97.30,8.34,3.89,8.34,3.90,-3.89,-3.90,-3.80,4.45,4.45,4.45
98.28,8.34,3.96,8.34,3.96,-3.95,-3.96,-3.88,4.38,4.38,4.38
99.26,8.34,4.02,8.34,4.02,-4.02,-4.01,-3.97,4.32,4.32,4.32
100.25,8.34,4.08,8.34,4.08,-4.08,-4.06,-4.05,4.26,4.26,4.26
101.25,8.34,4.13,8.34,4.14,-4.14,-4.11,-4.14,4.20,4.20,4.21
102.27,8.34,4.19,8.34,4.19,-4.19,-4.16,-4.23,4.15,4.15,4.15
103.29,8.34,4.25,8.34,4.25,-4.25,-4.22,-4.32,4.09,4.09,4.09
104.32,8.34,4.30,8.34,4.31,-4.30,-4.27,-4.41,4.03,4.03,4.04
105.37,8.34,4.36,8.34,4.36,-4.36,-4.32,-4.50,3.98,3.98,3.98
106.42,8.34,4.41,8.34,4.41,-4.42,-4.37,-4.59,3.92,3.92,3.93
107.48,8.34,4.47,8.34,4.47,-4.48,-4.42,-4.68,3.86,3.86,3.87
108.56,8.35,4.53,8.35,4.53,-4.54,-4.47,-4.77,3.81,3.81,3.82
109.64,8.35,4.59,8.35,4.60,-4.60,-4.52,-4.86,3.75,3.76,3.76
110.74,8.36,4.66,8.36,4.66,-4.66,-4.56,-4.94,3.70,3.70,3.70
111.85,8.36,4.72,8.36,4.71,-4.71,-4.61,-5.03,3.65,3.64,3.64
112.97,8.35,4.76,8.35,4.77,-4.77,-4.66,-5.11,3.58,3.58,3.59
114.10,8.33,4.80,8.33,4.81,-4.81,-4.71,-5.19,3.52,3.52,3.53
115.24,8.31,4.86,8.31,4.86,-4.85,-4.75,-5.26,3.45,3.46,3.45
116.39,8.29,4.90,8.29,4.90,-4.89,-4.80,-5.33,3.40,3.40,3.39
117.55,8.26,4.93,8.26,4.94,-4.92,-4.84,-5.40,3.34,3.34,3.33
118.73,8.23,4.96,8.23,4.95,-4.95,-4.89,-5.46,3.28,3.28,3.27
119.92,8.19,4.96,8.19,4.97,-4.97,-4.93,-5.51,3.22,3.22,3.23
121.12,8.15,4.97,8.16,4.98,-4.99,-4.97,-5.56,3.16,3.17,3.18
122.33,8.13,5.01,8.13,5.00,-5.01,-5.02,-5.61,3.12,3.12,3.12
123.55,8.10,5.03,8.10,5.03,-5.03,-5.06,-5.65,3.07,3.07,3.07
124.79,8.07,5.05,8.07,5.05,-5.05,-5.10,-5.68,3.02,3.01,3.02
126.03,8.03,5.07,8.04,5.08,-5.08,-5.14,-5.71,2.95,2.95,2.96
127.29,8.02,5.11,8.01,5.11,-5.12,-5.18,-5.73,2.90,2.89,2.91
128.57,8.00,5.16,8.00,5.16,-5.17,-5.22,-5.74,2.83,2.83,2.84
129.85,7.99,5.20,7.99,5.21,-5.21,-5.26,-5.75,2.78,2.78,2.79
131.15,7.99,5.26,7.99,5.26,-5.26,-5.30,-5.76,2.72,2.73,2.73
132.46,8.00,5.32,8.00,5.32,-5.32,-5.34,-5.76,2.68,2.68,2.68
133.79,8.01,5.39,8.01,5.39,-5.38,-5.37,-5.75,2.63,2.63,2.62
135.12,8.01,5.44,8.01,5.44,-5.44,-5.41,-5.74,2.57,2.57,2.57
136.48,8.01,5.49,8.01,5.49,-5.49,-5.45,-5.73,2.52,2.52,2.52
137.84,8.01,5.54,8.01,5.54,-5.55,-5.48,-5.71,2.46,2.46,2.47
139.22,8.01,5.60,8.01,5.60,-5.61,-5.52,-5.69,2.40,2.41,2.41
140.61,8.02,5.65,8.02,5.66,-5.66,-5.55,-5.67,2.36,2.36,2.37
142.02,8.03,5.72,8.03,5.71,-5.71,-5.59,-5.65,2.32,2.31,2.31
143.44,8.03,5.76,8.03,5.76,-5.76,-5.62,-5.62,2.27,2.27,2.27
144.87,8.03,5.80,8.03,5.81,-5.81,-5.65,-5.60,2.22,2.22,2.23
146.32,8.03,5.85,8.03,5.85,-5.85,-5.69,-5.57,2.18,2.18,2.18
147.78,8.02,5.88,8.02,5.89,-5.88,-5.72,-5.54,2.14,2.14,2.14
149.26,8.01,5.92,8.01,5.92,-5.91,-5.75,-5.52,2.10,2.10,2.09
150.75,7.98,5.93,7.98,5.94,-5.93,-5.78,-5.50,2.05,2.05,2.05
152.26,7.96,5.95,7.96,5.95,-5.95,-5.81,-5.47,2.01,2.01,2.01
153.78,7.92,5.95,7.92,5.95,-5.96,-5.84,-5.45,1.96,1.96,1.97
155.32,7.89,5.96,7.89,5.97,-5.97,-5.88,-5.43,1.92,1.92,1.93
156.88,7.85,5.97,7.85,5.97,-5.98,-5.90,-5.42,1.87,1.87,1.88
158.44,7.82,5.99,7.82,5.99,-5.99,-5.93,-5.40,1.83,1.83,1.83
160.03,7.78,5.99,7.79,6.00,-6.00,-5.96,-5.39,1.78,1.79,1.79
161.63,7.76,6.01,7.76,6.01,-6.01,-5.99,-5.39,1.75,1.75,1.75
163.24,7.73,6.03,7.73,6.03,-6.03,-6.02,-5.38,1.70,1.70,1.70
164.88,7.70,6.05,7.70,6.05,-6.06,-6.05,-5.38,1.64,1.65,1.65
166.53,7.68,6.08,7.68,6.08,-6.09,-6.08,-5.38,1.59,1.59,1.60
168.19,7.67,6.10,7.67,6.11,-6.13,-6.10,-5.39,1.54,1.54,1.57
169.87,7.67,6.16,7.67,6.16,-6.17,-6.13,-5.40,1.49,1.50,1.51
171.57,7.68,6.22,7.68,6.22,-6.22,-6.16,-5.42,1.46,1.46,1.46
173.29,7.69,6.27,7.69,6.28,-6.28,-6.18,-5.44,1.41,1.42,1.42
175.02,7.71,6.34,7.70,6.34,-6.33,-6.21,-5.46,1.38,1.38,1.37
176.77,7.71,6.39,7.71,6.39,-6.38,-6.24,-5.49,1.33,1.33,1.32
178.54,7.70,6.42,7.70,6.43,-6.42,-6.26,-5.52,1.28,1.28,1.28
180.32,7.69,6.47,7.69,6.46,-6.45,-6.29,-5.55,1.23,1.23,1.22
182.13,7.67,6.48,7.67,6.49,-6.48,-6.31,-5.59,1.19,1.18,1.19
183.95,7.64,6.50,7.64,6.51,-6.50,-6.34,-5.64,1.13,1.14,1.14
185.79,7.61,6.52,7.61,6.52,-6.52,-6.36,-5.68,1.09,1.09,1.09
187.65,7.58,6.53,7.58,6.53,-6.53,-6.38,-5.74,1.05,1.05,1.05
189.52,7.55,6.54,7.55,6.54,-6.54,-6.41,-5.79,1.01,1.00,1.01
191.42,7.52,6.55,7.52,6.55,-6.55,-6.43,-5.85,0.97,0.96,0.97
193.33,7.48,6.55,7.48,6.56,-6.56,-6.45,-5.91,0.92,0.92,0.93
195.27,7.45,6.57,7.45,6.57,-6.57,-6.47,-5.98,0.88,0.88,0.88
197.22,7.42,6.59,7.42,6.58,-6.58,-6.50,-6.05,0.84,0.84,0.83
199.19,7.39,6.59,7.39,6.60,-6.60,-6.52,-6.12,0.79,0.79,0.80
201.18,7.37,6.61,7.37,6.61,-6.62,-6.54,-6.20,0.75,0.75,0.76
203.19,7.35,6.62,7.35,6.62,-6.64,-6.56,-6.28,0.71,0.71,0.73
205.23,7.35,6.64,7.35,6.65,-6.67,-6.58,-6.36,0.68,0.68,0.71
207.28,7.36,6.68,7.36,6.69,-6.69,-6.59,-6.44,0.67,0.66,0.68
209.35,7.37,6.73,7.37,6.73,-6.72,-6.61,-6.52,0.65,0.65,0.64
211.44,7.38,6.77,7.37,6.76,-6.75,-6.63,-6.60,0.63,0.63,0.61
213.56,7.37,6.78,7.37,6.78,-6.77,-6.65,-6.69,0.60,0.60,0.59
215.69,7.35,6.79,7.35,6.79,-6.79,-6.66,-6.77,0.56,0.56,0.56
217.85,7.32,6.79,7.32,6.80,-6.80,-6.67,-6.85,0.52,0.53,0.53
220.03,7.30,6.80,7.30,6.80,-6.80,-6.69,-6.93,0.50,0.50,0.50
222.23,7.27,6.80,7.27,6.80,-6.79,-6.70,-7.01,0.48,0.48,0.47
224.45,7.24,6.78,7.24,6.79,-6.78,-6.71,-7.08,0.46,0.45,0.46
226.70,7.20,6.77,7.20,6.77,-6.77,-6.72,-7.16,0.43,0.43,0.43
228.96,7.16,6.74,7.17,6.75,-6.76,-6.73,-7.22,0.40,0.41,0.42
231.25,7.14,6.74,7.13,6.74,-6.75,-6.74,-7.28,0.39,0.39,0.40
233.57,7.11,6.73,7.11,6.73,-6.74,-6.75,-7.34,0.37,0.37,0.38
235.90,7.08,6.71,7.09,6.72,-6.73,-6.75,-7.38,0.35,0.36,0.37
238.26,7.07,6.73,7.07,6.72,-6.72,-6.76,-7.42,0.35,0.34,0.34
240.64,7.05,6.70,7.05,6.71,-6.72,-6.76,-7.45,0.33,0.34,0.35
243.05,7.04,6.71,7.04,6.71,-6.71,-6.77,-7.48,0.33,0.33,0.33
245.48,7.03,6.71,7.03,6.71,-6.71,-6.77,-7.49,0.32,0.32,0.32
247.93,7.01,6.70,7.01,6.70,-6.70,-6.77,-7.50,0.31,0.32,0.31
250.41,7.00,6.68,7.00,6.69,-6.68,-6.76,-7.49,0.32,0.31,0.32
252.92,6.98,6.67,6.98,6.67,-6.67,-6.76,-7.48,0.31,0.31,0.31
255.45,6.96,6.66,6.96,6.66,-6.65,-6.75,-7.45,0.31,0.31,0.30
258.00,6.93,6.63,6.93,6.63,-6.63,-6.75,-7.42,0.30,0.30,0.30
260.58,6.89,6.59,6.89,6.60,-6.60,-6.74,-7.38,0.29,0.29,0.30
263.19,6.86,6.56,6.86,6.57,-6.58,-6.73,-7.33,0.28,0.28,0.30
265.82,6.83,6.54,6.83,6.54,-6.55,-6.72,-7.27,0.28,0.29,0.29
268.48,6.81,6.52,6.81,6.52,-6.52,-6.70,-7.20,0.29,0.29,0.29
271.16,6.79,6.50,6.78,6.49,-6.49,-6.69,-7.13,0.30,0.29,0.29
273.87,6.75,6.46,6.75,6.47,-6.47,-6.67,-7.05,0.28,0.29,0.29
276.61,6.72,6.43,6.72,6.44,-6.44,-6.65,-6.97,0.28,0.28,0.29
279.38,6.69,6.42,6.69,6.42,-6.41,-6.63,-6.88,0.27,0.28,0.27
282.17,6.66,6.39,6.66,6.39,-6.39,-6.61,-6.79,0.27,0.27,0.27
284.99,6.64,6.36,6.63,6.36,-6.36,-6.59,-6.69,0.28,0.28,0.28
287.84,6.60,6.31,6.60,6.33,-6.33,-6.56,-6.60,0.27,0.28,0.29
290.72,6.58,6.30,6.58,6.29,-6.30,-6.53,-6.50,0.28,0.28,0.28
293.63,6.55,6.26,6.55,6.26,-6.27,-6.51,-6.40,0.28,0.29,0.29
296.57,6.53,6.23,6.53,6.23,-6.23,-6.47,-6.30,0.30,0.30,0.30
299.53,6.50,6.20,6.50,6.20,-6.19,-6.44,-6.19,0.30,0.31,0.30
302.53,6.47,6.15,6.47,6.16,-6.16,-6.41,-6.09,0.31,0.31,0.32
305.55,6.44,6.13,6.44,6.12,-6.12,-6.37,-5.99,0.32,0.32,0.31
308.61,6.40,6.08,6.40,6.08,-6.08,-6.34,-5.90,0.32,0.32,0.32
311.69,6.36,6.03,6.36,6.04,-6.04,-6.30,-5.80,0.32,0.32,0.33
314.81,6.33,6.00,6.33,6.00,-6.01,-6.26,-5.71,0.32,0.32,0.33
317.96,6.30,5.96,6.30,5.97,-5.97,-6.21,-5.61,0.33,0.33,0.34
321.14,6.28,5.93,6.28,5.93,-5.94,-6.17,-5.53,0.34,0.34,0.35
324.35,6.25,5.90,6.25,5.90,-5.90,-6.13,-5.44,0.35,0.35,0.35
327.59,6.23,5.85,6.23,5.87,-5.86,-6.08,-5.36,0.37,0.37,0.38
330.87,6.21,5.84,6.20,5.83,-5.82,-6.03,-5.28,0.39,0.38,0.37
334.18,6.17,5.79,6.17,5.79,-5.78,-5.98,-5.20,0.39,0.39,0.38
337.52,6.13,5.75,6.13,5.75,-5.74,-5.93,-5.13,0.39,0.39,0.38
340.90,6.09,5.69,6.09,5.69,-5.69,-5.88,-5.06,0.40,0.39,0.40
344.30,6.04,5.63,6.04,5.64,-5.65,-5.83,-5.00,0.39,0.39,0.41
347.75,6.00,5.59,6.00,5.59,-5.61,-5.78,-4.93,0.39,0.39,0.41
351.23,5.96,5.55,5.96,5.55,-5.56,-5.72,-4.88,0.40,0.40,0.41
354.74,5.94,5.50,5.94,5.51,-5.52,-5.67,-4.82,0.42,0.42,0.44
358.28,5.91,5.48,5.91,5.48,-5.47,-5.61,-4.77,0.43,0.44,0.43
361.87,5.89,5.45,5.89,5.44,-5.43,-5.55,-4.72,0.46,0.45,0.44
365.49,5.85,5.40,5.85,5.40,-5.39,-5.49,-4.68,0.46,0.46,0.45
369.14,5.81,5.34,5.81,5.35,-5.34,-5.43,-4.64,0.47,0.47,0.47
372.83,5.76,5.29,5.76,5.29,-5.29,-5.37,-4.61,0.46,0.46,0.47
376.56,5.71,5.24,5.71,5.24,-5.25,-5.31,-4.57,0.46,0.46,0.47
380.33,5.67,5.19,5.67,5.19,-5.20,-5.25,-4.54,0.47,0.47,0.48
384.13,5.63,5.13,5.63,5.14,-5.15,-5.19,-4.52,0.47,0.48,0.50
387.97,5.60,5.10,5.60,5.10,-5.11,-5.13,-4.50,0.49,0.49,0.50
391.85,5.58,5.07,5.58,5.07,-5.06,-5.07,-4.47,0.51,0.51,0.51
395.77,5.55,5.03,5.55,5.03,-5.02,-5.01,-4.46,0.53,0.53,0.52
399.73,5.52,4.99,5.52,4.98,-4.98,-4.94,-4.44,0.54,0.54,0.53
403.72,5.48,4.92,5.48,4.93,-4.93,-4.88,-4.43,0.55,0.55,0.56
407.76,5.43,4.88,5.43,4.88,-4.88,-4.82,-4.42,0.55,0.55,0.55
411.84,5.39,4.83,5.39,4.83,-4.83,-4.76,-4.41,0.56,0.56,0.56
415.96,5.35,4.77,5.35,4.78,-4.78,-4.70,-4.40,0.57,0.57,0.58
420.12,5.30,4.72,5.30,4.72,-4.72,-4.63,-4.40,0.58,0.58,0.58
424.32,5.26,4.67,5.26,4.66,-4.67,-4.57,-4.39,0.59,0.59,0.59
428.56,5.21,4.60,5.21,4.61,-4.62,-4.51,-4.39,0.59,0.60,0.61
432.85,5.17,4.55,5.17,4.56,-4.56,-4.45,-4.38,0.61,0.61,0.62
437.18,5.12,4.51,5.12,4.51,-4.50,-4.39,-4.38,0.62,0.62,0.61
441.55,5.07,4.45,5.07,4.45,-4.44,-4.33,-4.37,0.63,0.63,0.62
445.96,5.02,4.39,5.02,4.39,-4.38,-4.27,-4.36,0.64,0.64,0.63
450.42,4.96,4.32,4.96,4.32,-4.32,-4.21,-4.36,0.64,0.64,0.64
454.93,4.90,4.25,4.90,4.25,-4.26,-4.16,-4.35,0.64,0.64,0.65
459.48,4.84,4.18,4.84,4.18,-4.20,-4.10,-4.33,0.64,0.65,0.66
464.07,4.79,4.11,4.80,4.12,-4.14,-4.05,-4.32,0.65,0.66,0.68
468.71,4.76,4.07,4.76,4.07,-4.08,-3.99,-4.30,0.68,0.68,0.69
473.40,4.72,4.03,4.72,4.03,-4.02,-3.94,-4.28,0.70,0.70,0.69
478.13,4.68,3.98,4.67,3.98,-3.97,-3.89,-4.26,0.71,0.71,0.70
482.91,4.62,3.91,4.62,3.92,-3.91,-3.84,-4.23,0.70,0.71,0.71
487.74,4.57,3.85,4.57,3.85,-3.86,-3.79,-4.20,0.71,0.71,0.72
492.62,4.52,3.79,4.53,3.80,-3.81,-3.74,-4.16,0.71,0.72,0.73
497.55,4.49,3.75,4.49,3.75,-3.75,-3.70,-4.12,0.74,0.74,0.74
502.52,4.45,3.70,4.45,3.70,-3.68,-3.65,-4.08,0.77,0.76,0.75
507.55,4.40,3.63,4.40,3.63,-3.62,-3.61,-4.03,0.78,0.78,0.77
512.62,4.34,3.56,4.34,3.56,-3.56,-3.56,-3.97,0.78,0.78,0.78
517.75,4.27,3.47,4.27,3.48,-3.49,-3.51,-3.91,0.78,0.78,0.80
522.93,4.21,3.40,4.22,3.41,-3.42,-3.46,-3.85,0.79,0.79,0.81
528.16,4.17,3.35,4.17,3.35,-3.36,-3.41,-3.78,0.81,0.81,0.82
533.44,4.12,3.29,4.12,3.29,-3.28,-3.36,-3.71,0.83,0.83,0.83
538.77,4.07,3.23,4.06,3.23,-3.22,-3.30,-3.64,0.85,0.85,0.84
544.16,4.00,3.15,4.00,3.16,-3.15,-3.23,-3.56,0.85,0.85,0.85
549.60,3.94,3.08,3.94,3.08,-3.08,-3.16,-3.47,0.86,0.86,0.86
555.10,3.88,3.00,3.88,3.01,-3.01,-3.09,-3.39,0.86,0.86,0.88
