frequency,raw,error,smoothed,error_smoothed,equalization,parametric_eq,fixed_band_eq,equalized_raw,equalized_smoothed,target
20.00,-23.04,-22.62,-23.04,-22.62,22.62,22.65,9.00,-0.42,-0.42,-0.42
20.20,-22.86,-22.53,-22.86,-22.53,22.53,22.45,9.17,-0.33,-0.33,-0.33
20.40,-22.67,-22.42,-22.67,-22.42,22.43,22.26,9.35,-0.24,-0.25,-0.25
20.61,-22.49,-22.31,-22.49,-22.32,22.32,22.07,9.53,-0.17,-0.17,-0.18
20.81,-22.31,-22.22,-22.31,-22.22,22.22,21.89,9.72,-0.09,-0.09,-0.09
21.02,-22.12,-22.11,-22.12,-22.11,22.10,21.70,9.91,-0.02,-0.02,-0.01
21.23,-21.94,-21.99,-21.94,-21.99,21.98,21.52,10.11,0.04,0.05,0.05
21.44,-21.75,-21.86,-21.75,-21.86,21.86,21.34,10.31,0.11,0.11,0.11
21.66,-21.57,-21.73,-21.57,-21.73,21.73,21.17,10.52,0.16,0.16,0.16
21.87,-21.39,-21.60,-21.39,-21.60,21.60,21.01,10.73,0.21,0.22,0.21
22.09,-21.20,-21.46,-21.20,-21.47,21.46,20.84,10.95,0.27,0.26,0.26
22.31,-21.02,-21.33,-21.02,-21.33,21.32,20.69,11.17,0.30,0.31,0.31
22.54,-20.83,-21.18,-20.83,-21.18,21.18,20.53,11.40,0.34,0.35,0.35
22.76,-20.64,-21.03,-20.65,-21.03,21.03,20.39,11.63,0.39,0.39,0.39
22.99,-20.46,-20.88,-20.46,-20.88,20.89,20.24,11.88,0.42,0.43,0.42
23.22,-20.27,-20.73,-20.27,-20.73,20.74,20.11,12.12,0.47,0.47,0.46
23.45,-20.08,-20.58,-20.08,-20.58,20.59,19.97,12.38,0.51,0.50,0.50
23.69,-19.89,-20.43,-19.89,-20.43,20.43,19.84,12.64,0.54,0.54,0.54
23.92,-19.70,-20.28,-19.70,-20.29,20.28,19.72,12.91,0.58,0.58,0.58
24.16,-19.51,-20.14,-19.51,-20.13,20.13,19.60,13.19,0.62,0.62,0.63
24.40,-19.32,-19.98,-19.32,-19.98,19.97,19.48,13.48,0.65,0.65,0.66
24.65,-19.13,-19.81,-19.13,-19.82,19.82,19.36,13.77,0.68,0.69,0.68
24.89,-18.94,-19.65,-18.94,-19.65,19.66,19.25,14.08,0.72,0.72,0.71
25.14,-18.75,-19.50,-18.75,-19.50,19.50,19.14,14.39,0.75,0.75,0.75
25.39,-18.56,-19.34,-18.56,-19.34,19.34,19.04,14.71,0.79,0.78,0.78
25.65,-18.37,-19.19,-18.37,-19.18,19.18,18.93,15.04,0.81,0.81,0.82
25.91,-18.18,-19.02,-18.18,-19.03,19.03,18.83,15.38,0.84,0.84,0.84
26.16,-17.99,-18.86,-17.99,-18.87,18.87,18.73,15.73,0.88,0.88,0.87
26.43,-17.80,-18.71,-17.80,-18.71,18.71,18.63,16.09,0.91,0.91,0.91
26.69,-17.61,-18.55,-17.61,-18.55,18.55,18.53,16.45,0.94,0.94,0.94
26.96,-17.42,-18.39,-17.42,-18.40,18.39,18.43,16.83,0.97,0.97,0.97
27.23,-17.23,-18.23,-17.23,-18.23,18.23,18.33,17.21,1.00,1.00,1.00
27.50,-17.04,-18.07,-17.04,-18.07,18.07,18.22,17.60,1.03,1.03,1.03
27.77,-16.85,-17.90,-16.85,-17.91,17.91,18.12,17.99,1.06,1.06,1.05
28.05,-16.66,-17.75,-16.66,-17.74,17.75,18.02,18.39,1.09,1.09,1.09
28.33,-16.47,-17.58,-16.47,-17.58,17.59,17.91,18.78,1.12,1.12,1.11
28.62,-16.28,-17.42,-16.28,-17.43,17.43,17.81,19.17,1.14,1.15,1.14
28.90,-16.09,-17.27,-16.09,-17.27,17.27,17.70,19.54,1.18,1.18,1.18
29.19,-15.91,-17.11,-15.91,-17.12,17.12,17.59,19.90,1.20,1.21,1.20
29.48,-15.72,-16.97,-15.72,-16.96,16.96,17.47,20.24,1.24,1.24,1.25
29.78,-15.54,-16.80,-15.54,-16.81,16.81,17.35,20.54,1.27,1.27,1.26
30.08,-15.36,-16.65,-15.36,-16.66,16.66,17.23,20.79,1.29,1.29,1.29
30.38,-15.18,-16.50,-15.18,-16.50,16.50,17.11,20.99,1.32,1.32,1.32
30.68,-15.00,-16.35,-15.01,-16.35,16.35,16.98,21.14,1.35,1.35,1.35
30.99,-14.83,-16.20,-14.83,-16.20,16.20,16.85,21.21,1.37,1.37,1.37
31.30,-14.65,-16.04,-14.65,-16.05,16.05,16.71,21.21,1.40,1.39,1.39
31.61,-14.48,-15.90,-14.48,-15.90,15.90,16.57,21.14,1.42,1.42,1.42
31.93,-14.30,-15.74,-14.30,-15.74,15.75,16.43,21.01,1.44,1.44,1.44
32.24,-14.13,-15.59,-14.13,-15.60,15.60,16.28,20.81,1.47,1.46,1.46
32.57,-13.96,-15.45,-13.96,-15.45,15.45,16.13,20.56,1.48,1.49,1.49
32.89,-13.79,-15.30,-13.79,-15.30,15.30,15.97,20.27,1.51,1.51,1.51
33.22,-13.61,-15.14,-13.61,-15.14,15.14,15.81,19.95,1.53,1.53,1.53
33.55,-13.44,-14.99,-13.44,-14.99,14.99,15.65,19.59,1.55,1.55,1.55
33.89,-13.27,-14.83,-13.27,-14.83,14.84,15.48,19.23,1.57,1.57,1.56
34.23,-13.10,-14.68,-13.10,-14.68,14.68,15.31,18.85,1.58,1.58,1.58
34.57,-12.93,-14.52,-12.93,-14.52,14.52,15.14,18.46,1.59,1.59,1.59
34.92,-12.76,-14.36,-12.76,-14.37,14.36,14.96,18.08,1.60,1.60,1.60
35.27,-12.59,-14.21,-12.59,-14.20,14.20,14.79,17.69,1.61,1.61,1.62
35.62,-12.42,-14.03,-12.42,-14.04,14.04,14.61,17.31,1.62,1.62,1.61
35.97,-12.24,-13.86,-12.25,-13.87,13.87,14.42,16.94,1.63,1.63,1.62
36.33,-12.08,-13.72,-12.08,-13.71,13.71,14.24,16.57,1.63,1.63,1.64
36.70,-11.91,-13.54,-11.91,-13.55,13.54,14.06,16.22,1.63,1.63,1.63
37.06,-11.75,-13.38,-11.75,-13.38,13.38,13.87,15.87,1.63,1.63,1.63
37.43,-11.58,-13.21,-11.58,-13.21,13.21,13.68,15.53,1.64,1.64,1.63
37.81,-11.41,-13.04,-11.41,-13.05,13.05,13.49,15.20,1.64,1.64,1.63
38.19,-11.25,-12.88,-11.25,-12.89,12.89,13.30,14.88,1.64,1.63,1.63
38.57,-11.10,-12.73,-11.10,-12.73,12.72,13.11,14.57,1.62,1.63,1.63
38.95,-10.94,-12.57,-10.94,-12.56,12.56,12.92,14.27,1.62,1.62,1.63
39.34,-10.78,-12.39,-10.78,-12.40,12.40,12.74,13.98,1.62,1.61,1.61
39.74,-10.62,-12.23,-10.62,-12.23,12.23,12.55,13.70,1.61,1.61,1.61
40.14,-10.46,-12.06,-10.46,-12.06,12.07,12.36,13.42,1.60,1.60,1.60
40.54,-10.30,-11.90,-10.30,-11.90,11.90,12.17,13.16,1.60,1.60,1.60
40.94,-10.14,-11.73,-10.14,-11.73,11.73,11.98,12.90,1.59,1.59,1.59
41.35,-9.98,-11.57,-9.98,-11.57,11.57,11.80,12.65,1.59,1.59,1.59
41.76,-9.82,-11.40,-9.82,-11.40,11.40,11.61,12.41,1.58,1.58,1.58
42.18,-9.66,-11.23,-9.66,-11.24,11.24,11.43,12.17,1.58,1.57,1.57
42.60,-9.51,-11.07,-9.51,-11.07,11.07,11.25,11.94,1.56,1.56,1.56
43.03,-9.35,-10.91,-9.35,-10.91,10.90,11.07,11.72,1.55,1.55,1.56
43.46,-9.19,-10.74,-9.20,-10.74,10.73,10.89,11.51,1.54,1.54,1.55
43.90,-9.04,-10.57,-9.04,-10.57,10.57,10.71,11.30,1.53,1.53,1.53
44.33,-8.89,-10.40,-8.89,-10.40,10.40,10.53,11.10,1.51,1.52,1.51
44.78,-8.73,-10.23,-8.74,-10.24,10.24,10.36,10.90,1.51,1.51,1.50
45.23,-8.58,-10.07,-8.58,-10.07,10.08,10.19,10.71,1.50,1.50,1.49
45.68,-8.44,-9.92,-8.44,-9.92,9.93,10.01,10.52,1.48,1.49,1.48
46.13,-8.29,-9.76,-8.30,-9.77,9.77,9.85,10.34,1.48,1.47,1.47
46.60,-8.16,-9.63,-8.16,-9.62,9.62,9.68,10.17,1.46,1.46,1.47
47.06,-8.02,-9.48,-8.02,-9.48,9.47,9.51,10.00,1.45,1.45,1.46
47.53,-7.87,-9.32,-7.87,-9.33,9.32,9.35,9.83,1.45,1.45,1.45
48.01,-7.73,-9.18,-7.73,-9.18,9.18,9.19,9.67,1.44,1.44,1.45
48.49,-7.59,-9.03,-7.59,-9.03,9.03,9.03,9.51,1.44,1.44,1.44
48.97,-7.46,-8.89,-7.46,-8.88,8.89,8.88,9.36,1.43,1.43,1.43
49.46,-7.32,-8.73,-7.32,-8.74,8.74,8.72,9.21,1.42,1.42,1.41
49.96,-7.19,-8.59,-7.19,-8.60,8.60,8.57,9.06,1.41,1.41,1.40
50.46,-7.06,-8.47,-7.06,-8.47,8.47,8.42,8.92,1.40,1.41,1.41
50.96,-6.93,-8.34,-6.93,-8.34,8.33,8.27,8.78,1.40,1.40,1.41
51.47,-6.80,-8.20,-6.80,-8.21,8.20,8.12,8.65,1.40,1.40,1.40
51.99,-6.67,-8.07,-6.67,-8.07,8.08,7.98,8.52,1.41,1.41,1.40
52.51,-6.55,-7.95,-6.55,-7.95,7.96,7.84,8.39,1.40,1.41,1.40
53.03,-6.43,-7.83,-6.43,-7.83,7.83,7.70,8.26,1.40,1.40,1.40
53.56,-6.32,-7.72,-6.32,-7.72,7.71,7.56,8.13,1.39,1.39,1.40
54.10,-6.21,-7.60,-6.21,-7.60,7.60,7.42,8.01,1.38,1.39,1.39
54.64,-6.10,-7.48,-6.10,-7.48,7.48,7.29,7.89,1.38,1.38,1.38
55.18,-5.99,-7.36,-5.99,-7.36,7.36,7.16,7.77,1.37,1.37,1.37
55.74,-5.89,-7.24,-5.89,-7.25,7.25,7.03,7.66,1.36,1.36,1.35
56.29,-5.79,-7.14,-5.79,-7.14,7.14,6.90,7.54,1.35,1.35,1.35
56.86,-5.70,-7.03,-5.70,-7.03,7.03,6.77,7.43,1.33,1.33,1.33
57.42,-5.60,-6.91,-5.60,-6.92,6.92,6.65,7.31,1.32,1.32,1.31
58.00,-5.50,-6.80,-5.51,-6.81,6.81,6.53,7.20,1.31,1.30,1.30
58.58,-5.42,-6.70,-5.42,-6.70,6.70,6.41,7.09,1.28,1.29,1.28
59.16,-5.33,-6.60,-5.33,-6.60,6.59,6.29,6.98,1.26,1.26,1.27
59.76,-5.24,-6.49,-5.24,-6.49,6.48,6.17,6.87,1.24,1.24,1.25
60.35,-5.15,-6.37,-5.15,-6.38,6.37,6.05,6.76,1.22,1.22,1.22
60.96,-5.06,-6.27,-5.06,-6.26,6.25,5.94,6.65,1.19,1.19,1.21
61.57,-4.97,-6.13,-4.97,-6.14,6.14,5.83,6.54,1.17,1.17,1.16
62.18,-4.88,-6.01,-4.88,-6.02,6.03,5.72,6.43,1.15,1.15,1.13
62.80,-4.80,-5.92,-4.80,-5.91,5.92,5.61,6.31,1.12,1.12,1.12
63.43,-4.72,-5.80,-4.72,-5.81,5.81,5.50,6.20,1.09,1.09,1.08
64.07,-4.64,-5.70,-4.64,-5.71,5.71,5.40,6.09,1.06,1.06,1.06
64.71,-4.56,-5.61,-4.56,-5.60,5.60,5.29,5.98,1.04,1.05,1.05
65.35,-4.47,-5.50,-4.47,-5.51,5.50,5.19,5.87,1.03,1.03,1.03
66.01,-4.38,-5.40,-4.39,-5.41,5.41,5.09,5.76,1.03,1.02,1.02
66.67,-4.31,-5.32,-4.30,-5.31,5.31,4.99,5.64,1.00,1.01,1.01
67.33,-4.22,-5.22,-4.22,-5.22,5.22,4.89,5.53,1.00,1.00,1.00
68.01,-4.13,-5.12,-4.13,-5.12,5.13,4.79,5.42,1.00,0.99,0.99
68.69,-4.04,-5.02,-4.04,-5.03,5.03,4.70,5.31,0.99,0.99,0.98
69.37,-3.96,-4.94,-3.96,-4.94,4.94,4.60,5.19,0.98,0.98,0.98
70.07,-3.88,-4.85,-3.88,-4.86,4.85,4.51,5.08,0.97,0.97,0.97
70.77,-3.80,-4.77,-3.80,-4.77,4.76,4.42,4.97,0.96,0.96,0.97
71.48,-3.71,-4.67,-3.71,-4.67,4.66,4.32,4.86,0.95,0.95,0.96
72.19,-3.62,-4.56,-3.62,-4.57,4.57,4.23,4.74,0.95,0.95,0.94
72.91,-3.53,-4.47,-3.54,-4.47,4.47,4.15,4.63,0.94,0.94,0.94
73.64,-3.46,-4.38,-3.45,-4.38,4.38,4.06,4.52,0.92,0.93,0.92
74.38,-3.37,-4.28,-3.37,-4.28,4.28,3.97,4.41,0.91,0.91,0.91
75.12,-3.29,-4.18,-3.29,-4.19,4.19,3.89,4.30,0.90,0.89,0.89
75.87,-3.21,-4.09,-3.21,-4.09,4.09,3.80,4.19,0.88,0.88,0.88
76.63,-3.13,-4.00,-3.13,-4.00,3.99,3.72,4.08,0.86,0.86,0.87
77.40,-3.05,-3.90,-3.05,-3.90,3.90,3.64,3.97,0.85,0.85,0.85
78.17,-2.97,-3.80,-2.97,-3.81,3.80,3.56,3.86,0.83,0.84,0.83
78.95,-2.88,-3.71,-2.88,-3.71,3.71,3.48,3.76,0.83,0.83,0.83
79.74,-2.80,-3.62,-2.80,-3.62,3.62,3.40,3.65,0.82,0.82,0.82
80.54,-2.71,-3.52,-2.71,-3.52,3.53,3.32,3.55,0.82,0.82,0.81
81.35,-2.63,-3.43,-2.63,-3.44,3.44,3.24,3.44,0.81,0.81,0.80
82.16,-2.56,-3.35,-2.56,-3.35,3.36,3.16,3.34,0.80,0.80,0.79
82.98,-2.48,-3.28,-2.48,-3.28,3.27,3.09,3.23,0.79,0.79,0.80
83.81,-2.41,-3.20,-2.41,-3.20,3.19,3.01,3.13,0.78,0.79,0.79
84.65,-2.33,-3.11,-2.33,-3.12,3.12,2.94,3.03,0.79,0.79,0.78
85.50,-2.25,-3.04,-2.25,-3.04,3.04,2.86,2.93,0.79,0.79,0.79
86.35,-2.18,-2.97,-2.18,-2.97,2.97,2.79,2.83,0.79,0.79,0.79
87.22,-2.11,-2.89,-2.11,-2.90,2.90,2.72,2.73,0.79,0.79,0.78
88.09,-2.04,-2.82,-2.04,-2.82,2.82,2.65,2.63,0.78,0.78,0.78
88.97,-1.98,-2.75,-1.98,-2.75,2.75,2.58,2.53,0.77,0.77,0.77
89.86,-1.92,-2.68,-1.92,-2.68,2.67,2.51,2.43,0.75,0.75,0.76
90.76,-1.86,-2.60,-1.86,-2.60,2.59,2.44,2.34,0.73,0.74,0.74
91.66,-1.79,-2.51,-1.79,-2.51,2.51,2.37,2.24,0.72,0.72,0.72
92.58,-1.73,-2.42,-1.73,-2.43,2.43,2.30,2.14,0.70,0.70,0.69
93.51,-1.67,-2.34,-1.67,-2.34,2.35,2.23,2.05,0.68,0.68,0.67
94.44,-1.62,-2.26,-1.62,-2.26,2.26,2.16,1.95,0.64,0.64,0.64
95.39,-1.57,-2.17,-1.57,-2.18,2.17,2.09,1.86,0.60,0.60,0.60
96.34,-1.53,-2.09,-1.53,-2.09,2.08,2.03,1.77,0.55,0.55,0.56
97.30,-1.49,-1.99,-1.49,-2.00,1.99,1.96,1.68,0.50,0.50,0.50
98.28,-1.45,-1.90,-1.45,-1.90,1.90,1.89,1.58,0.45,0.45,0.45
99.26,-1.41,-1.81,-1.41,-1.81,1.81,1.83,1.49,0.40,0.40,0.40
100.25,-1.37,-1.71,-1.37,-1.71,1.71,1.76,1.40,0.34,0.34,0.34
101.25,-1.33,-1.61,-1.33,-1.61,1.62,1.70,1.32,0.29,0.29,0.28
102.27,-1.29,-1.51,-1.30,-1.52,1.53,1.63,1.23,0.23,0.23,0.22
103.29,-1.27,-1.43,-1.27,-1.43,1.43,1.57,1.14,0.16,0.16,0.16
104.32,-1.25,-1.36,-1.24,-1.35,1.34,1.50,1.05,0.09,0.10,0.11
105.37,-1.21,-1.25,-1.21,-1.26,1.25,1.44,0.97,0.04,0.04,0.04
106.42,-1.17,-1.15,-1.18,-1.16,1.16,1.37,0.89,-0.01,-0.02,-0.02
107.48,-1.14,-1.07,-1.14,-1.07,1.07,1.31,0.80,-0.07,-0.07,-0.07
108.56,-1.11,-0.98,-1.11,-0.98,0.98,1.24,0.72,-0.13,-0.13,-0.13
109.64,-1.08,-0.89,-1.08,-0.90,0.89,1.18,0.65,-0.19,-0.19,-0.19
110.74,-1.05,-0.81,-1.05,-0.81,0.81,1.12,0.57,-0.24,-0.24,-0.24
111.85,-1.02,-0.74,-1.02,-0.73,0.73,1.05,0.50,-0.29,-0.29,-0.28
112.97,-1.00,-0.65,-1.00,-0.66,0.66,0.99,0.42,-0.34,-0.34,-0.35
114.10,-0.98,-0.59,-0.98,-0.59,0.60,0.93,0.35,-0.38,-0.38,-0.39
115.24,-0.98,-0.54,-0.98,-0.54,0.55,0.87,0.28,-0.43,-0.43,-0.44
116.39,-0.98,-0.49,-0.98,-0.49,0.51,0.80,0.22,-0.47,-0.47,-0.49
117.55,-0.99,-0.46,-0.99,-0.46,0.47,0.74,0.16,-0.52,-0.52,-0.53
118.73,-1.00,-0.43,-1.00,-0.44,0.44,0.68,0.10,-0.56,-0.56,-0.57
119.92,-1.02,-0.42,-1.02,-0.42,0.41,0.62,0.04,-0.61,-0.61,-0.60
121.12,-1.02,-0.39,-1.02,-0.39,0.38,0.56,-0.02,-0.64,-0.64,-0.63
122.33,-1.02,-0.36,-1.02,-0.36,0.35,0.49,-0.07,-0.67,-0.67,-0.66
123.55,-1.01,-0.32,-1.01,-0.32,0.31,0.43,-0.11,-0.70,-0.70,-0.69
124.79,-0.99,-0.27,-0.99,-0.28,0.27,0.37,-0.16,-0.72,-0.72,-0.72
126.03,-0.96,-0.22,-0.97,-0.22,0.22,0.31,-0.20,-0.74,-0.75,-0.74
127.29,-0.94,-0.17,-0.94,-0.17,0.16,0.25,-0.24,-0.78,-0.77,-0.77
128.57,-0.91,-0.10,-0.91,-0.11,0.11,0.19,-0.28,-0.81,-0.80,-0.81
129.85,-0.87,-0.04,-0.87,-0.04,0.04,0.13,-0.31,-0.83,-0.83,-0.83
131.15,-0.83,0.03,-0.84,0.02,-0.02,0.07,-0.34,-0.85,-0.86,-0.86
132.46,-0.81,0.09,-0.81,0.09,-0.08,0.01,-0.37,-0.90,-0.89,-0.90
133.79,-0.78,0.14,-0.78,0.14,-0.15,-0.05,-0.40,-0.93,-0.93,-0.92
135.12,-0.74,0.21,-0.75,0.20,-0.21,-0.11,-0.42,-0.95,-0.96,-0.95
136.48,-0.72,0.26,-0.71,0.27,-0.27,-0.17,-0.44,-0.99,-0.98,-0.98
137.84,-0.68,0.33,-0.69,0.33,-0.32,-0.23,-0.46,-1.00,-1.01,-1.01
139.22,-0.67,0.39,-0.67,0.38,-0.37,-0.28,-0.48,-1.04,-1.04,-1.06
140.61,-0.66,0.43,-0.66,0.43,-0.42,-0.34,-0.49,-1.08,-1.07,-1.09
142.02,-0.65,0.46,-0.66,0.46,-0.46,-0.40,-0.51,-1.11,-1.11,-1.11
143.44,-0.66,0.49,-0.66,0.49,-0.49,-0.45,-0.52,-1.15,-1.15,-1.15
144.87,-0.66,0.53,-0.66,0.52,-0.53,-0.51,-0.53,-1.19,-1.19,-1.19
146.32,-0.67,0.56,-0.67,0.56,-0.56,-0.56,-0.54,-1.23,-1.23,-1.23
147.78,-0.67,0.59,-0.67,0.59,-0.59,-0.62,-0.56,-1.27,-1.26,-1.26
149.26,-0.67,0.62,-0.67,0.63,-0.63,-0.67,-0.57,-1.30,-1.30,-1.29
150.75,-0.67,0.67,-0.67,0.66,-0.66,-0.72,-0.58,-1.33,-1.33,-1.34
152.26,-0.67,0.71,-0.67,0.71,-0.70,-0.77,-0.59,-1.37,-1.37,-1.38
153.78,-0.67,0.74,-0.67,0.74,-0.74,-0.82,-0.60,-1.41,-1.41,-1.41
155.32,-0.67,0.79,-0.67,0.78,-0.79,-0.87,-0.61,-1.46,-1.46,-1.46
156.88,-0.67,0.82,-0.67,0.83,-0.83,-0.91,-0.62,-1.50,-1.50,-1.49
158.44,-0.67,0.88,-0.67,0.87,-0.87,-0.96,-0.63,-1.55,-1.55,-1.55
160.03,-0.67,0.92,-0.67,0.92,-0.92,-1.00,-0.64,-1.59,-1.59,-1.59
161.63,-0.67,0.97,-0.67,0.97,-0.96,-1.05,-0.65,-1.63,-1.63,-1.64
163.24,-0.67,1.01,-0.67,1.01,-1.01,-1.09,-0.66,-1.68,-1.68,-1.68
164.88,-0.67,1.05,-0.67,1.05,-1.05,-1.13,-0.68,-1.72,-1.72,-1.72
166.53,-0.67,1.09,-0.67,1.09,-1.09,-1.16,-0.69,-1.76,-1.76,-1.76
168.19,-0.67,1.13,-0.67,1.13,-1.13,-1.20,-0.70,-1.80,-1.80,-1.80
169.87,-0.67,1.17,-0.67,1.16,-1.17,-1.23,-0.72,-1.84,-1.84,-1.84
171.57,-0.67,1.20,-0.67,1.20,-1.20,-1.26,-0.74,-1.87,-1.87,-1.87
173.29,-0.67,1.24,-0.67,1.24,-1.24,-1.29,-0.76,-1.91,-1.91,-1.91
175.02,-0.67,1.28,-0.67,1.27,-1.28,-1.32,-0.77,-1.95,-1.95,-1.95
176.77,-0.67,1.31,-0.67,1.31,-1.31,-1.35,-0.79,-1.98,-1.98,-1.98
178.54,-0.67,1.34,-0.67,1.34,-1.34,-1.37,-0.81,-2.01,-2.01,-2.01
180.32,-0.67,1.37,-0.67,1.37,-1.37,-1.39,-0.84,-2.04,-2.04,-2.04
182.13,-0.66,1.40,-0.66,1.40,-1.40,-1.41,-0.86,-2.06,-2.06,-2.06
183.95,-0.66,1.42,-0.66,1.42,-1.42,-1.43,-0.88,-2.08,-2.08,-2.08
185.79,-0.65,1.45,-0.66,1.44,-1.44,-1.44,-0.91,-2.09,-2.10,-2.10
187.65,-0.66,1.46,-0.66,1.46,-1.45,-1.46,-0.93,-2.11,-2.11,-2.12
189.52,-0.67,1.46,-0.67,1.47,-1.46,-1.47,-0.96,-2.13,-2.13,-2.13
191.42,-0.68,1.47,-0.68,1.46,-1.46,-1.47,-0.99,-2.14,-2.14,-2.15
193.33,-0.70,1.46,-0.70,1.45,-1.46,-1.48,-1.01,-2.16,-2.16,-2.16
195.27,-0.73,1.44,-0.73,1.44,-1.44,-1.48,-1.04,-2.18,-2.17,-2.17
197.22,-0.76,1.43,-0.76,1.43,-1.43,-1.49,-1.07,-2.19,-2.19,-2.19
199.19,-0.79,1.42,-0.79,1.41,-1.41,-1.48,-1.10,-2.20,-2.20,-2.21
201.18,-0.82,1.40,-0.82,1.39,-1.39,-1.48,-1.13,-2.21,-2.21,-2.22
203.19,-0.86,1.36,-0.86,1.37,-1.36,-1.48,-1.16,-2.23,-2.22,-2.22
205.23,-0.89,1.35,-0.89,1.34,-1.34,-1.47,-1.19,-2.23,-2.24,-2.24
207.28,-0.93,1.31,-0.93,1.32,-1.33,-1.46,-1.22,-2.26,-2.25,-2.24
209.35,-0.95,1.31,-0.96,1.31,-1.31,-1.45,-1.25,-2.26,-2.27,-2.26
211.44,-0.98,1.30,-0.98,1.29,-1.30,-1.44,-1.28,-2.28,-2.28,-2.28
213.56,-1.00,1.29,-0.99,1.29,-1.30,-1.43,-1.30,-2.30,-2.30,-2.29
215.69,-1.00,1.29,-1.00,1.29,-1.30,-1.41,-1.33,-2.30,-2.31,-2.29
217.85,-1.00,1.31,-1.00,1.31,-1.31,-1.39,-1.36,-2.31,-2.31,-2.31
220.03,-1.00,1.32,-1.00,1.32,-1.31,-1.38,-1.38,-2.32,-2.31,-2.32
222.23,-1.00,1.34,-1.00,1.33,-1.32,-1.36,-1.40,-2.32,-2.32,-2.34
224.45,-1.01,1.33,-1.01,1.33,-1.32,-1.34,-1.42,-2.33,-2.33,-2.34
226.70,-1.03,1.33,-1.03,1.32,-1.32,-1.31,-1.44,-2.35,-2.35,-2.36
228.96,-1.06,1.31,-1.05,1.31,-1.31,-1.29,-1.46,-2.37,-2.36,-2.37
231.25,-1.08,1.30,-1.09,1.30,-1.30,-1.27,-1.47,-2.38,-2.38,-2.38
233.57,-1.11,1.29,-1.12,1.28,-1.28,-1.24,-1.48,-2.39,-2.40,-2.40
235.90,-1.16,1.25,-1.15,1.26,-1.27,-1.21,-1.49,-2.43,-2.42,-2.41
238.26,-1.18,1.25,-1.19,1.24,-1.25,-1.19,-1.49,-2.43,-2.44,-2.43
240.64,-1.22,1.23,-1.22,1.23,-1.24,-1.16,-1.49,-2.46,-2.45,-2.45
243.05,-1.24,1.22,-1.24,1.22,-1.22,-1.13,-1.49,-2.46,-2.46,-2.46
245.48,-1.26,1.21,-1.27,1.21,-1.20,-1.10,-1.48,-2.46,-2.47,-2.47
247.93,-1.29,1.19,-1.29,1.19,-1.19,-1.07,-1.47,-2.48,-2.48,-2.48
250.41,-1.31,1.18,-1.31,1.17,-1.17,-1.04,-1.45,-2.48,-2.48,-2.49
252.92,-1.33,1.15,-1.33,1.15,-1.15,-1.01,-1.43,-2.48,-2.48,-2.48
255.45,-1.35,1.13,-1.35,1.13,-1.13,-0.98,-1.41,-2.48,-2.48,-2.48
258.00,-1.37,1.10,-1.37,1.10,-1.10,-0.94,-1.38,-2.47,-2.47,-2.47
260.58,-1.40,1.07,-1.40,1.07,-1.07,-0.91,-1.35,-2.47,-2.46,-2.47
263.19,-1.41,1.05,-1.42,1.04,-1.03,-0.88,-1.31,-2.44,-2.45,-2.46
265.82,-1.45,1.00,-1.44,1.00,-0.99,-0.84,-1.27,-2.44,-2.43,-2.45
268.48,-1.47,0.96,-1.48,0.95,-0.95,-0.81,-1.23,-2.42,-2.43,-2.43
271.16,-1.51,0.90,-1.51,0.90,-0.91,-0.77,-1.18,-2.42,-2.42,-2.41
273.87,-1.55,0.85,-1.54,0.85,-0.86,-0.74,-1.13,-2.41,-2.41,-2.40
276.61,-1.57,0.80,-1.57,0.81,-0.82,-0.70,-1.07,-2.39,-2.39,-2.37
279.38,-1.59,0.78,-1.59,0.78,-0.78,-0.67,-1.02,-2.37,-2.37,-2.37
282.17,-1.60,0.75,-1.61,0.74,-0.74,-0.63,-0.96,-2.34,-2.35,-2.35
284.99,-1.63,0.71,-1.63,0.71,-0.70,-0.60,-0.90,-2.33,-2.33,-2.34
287.84,-1.66,0.66,-1.66,0.66,-0.66,-0.56,-0.83,-2.32,-2.32,-2.32
290.72,-1.68,0.62,-1.68,0.62,-0.63,-0.52,-0.76,-2.31,-2.31,-2.30
293.63,-1.70,0.59,-1.70,0.58,-0.59,-0.49,-0.70,-2.29,-2.29,-2.29
296.57,-1.72,0.54,-1.72,0.55,-0.55,-0.45,-0.63,-2.27,-2.27,-2.26
299.53,-1.74,0.51,-1.74,0.51,-0.50,-0.41,-0.55,-2.24,-2.25,-2.25
302.53,-1.77,0.47,-1.77,0.46,-0.46,-0.37,-0.48,-2.23,-2.23,-2.24
305.55,-1.80,0.41,-1.80,0.42,-0.41,-0.33,-0.40,-2.21,-2.20,-2.21
308.61,-1.82,0.37,-1.82,0.36,-0.36,-0.29,-0.33,-2.18,-2.18,-2.19
311.69,-1.85,0.31,-1.85,0.30,-0.30,-0.25,-0.25,-2.15,-2.15,-2.16
314.81,-1.88,0.24,-1.88,0.25,-0.25,-0.21,-0.17,-2.13,-2.13,-2.12
317.96,-1.92,0.19,-1.92,0.18,-0.19,-0.17,-0.09,-2.11,-2.11,-2.11
321.14,-1.96,0.13,-1.96,0.13,-0.14,-0.12,-0.01,-2.10,-2.10,-2.09
324.35,-2.00,0.07,-2.00,0.07,-0.08,-0.08,0.07,-2.08,-2.08,-2.07
327.59,-2.03,0.02,-2.03,0.02,-0.03,-0.04,0.15,-2.06,-2.05,-2.05
330.87,-2.05,-0.02,-2.05,-0.03,0.03,0.01,0.23,-2.02,-2.02,-2.03
334.18,-2.08,-0.08,-2.08,-0.08,0.09,0.06,0.32,-1.99,-2.00,-2.00
337.52,-2.12,-0.14,-2.12,-0.14,0.15,0.10,0.40,-1.97,-1.97,-1.98
340.90,-2.16,-0.20,-2.16,-0.21,0.21,0.15,0.48,-1.95,-1.95,-1.96
344.30,-2.21,-0.28,-2.21,-0.27,0.28,0.20,0.57,-1.93,-1.93,-1.93
347.75,-2.25,-0.34,-2.25,-0.35,0.35,0.26,0.65,-1.90,-1.90,-1.91
351.23,-2.30,-0.42,-2.30,-0.42,0.42,0.31,0.74,-1.88,-1.88,-1.88
354.74,-2.35,-0.50,-2.35,-0.50,0.50,0.37,0.83,-1.85,-1.85,-1.85
358.28,-2.41,-0.57,-2.41,-0.58,0.57,0.42,0.92,-1.84,-1.84,-1.84
361.87,-2.46,-0.65,-2.46,-0.65,0.65,0.48,1.00,-1.81,-1.82,-1.81
365.49,-2.52,-0.74,-2.52,-0.73,0.72,0.54,1.09,-1.80,-1.80,-1.78
369.14,-2.56,-0.79,-2.56,-0.80,0.79,0.61,1.18,-1.77,-1.77,-1.77
372.83,-2.61,-0.87,-2.61,-0.87,0.87,0.67,1.27,-1.74,-1.74,-1.74
376.56,-2.65,-0.93,-2.65,-0.93,0.94,0.74,1.36,-1.71,-1.71,-1.72
380.33,-2.70,-1.01,-2.70,-1.01,1.02,0.82,1.45,-1.68,-1.69,-1.69
384.13,-2.76,-1.08,-2.76,-1.09,1.09,0.89,1.54,-1.67,-1.67,-1.68
387.97,-2.83,-1.17,-2.83,-1.17,1.17,0.97,1.63,-1.66,-1.66,-1.66
391.85,-2.90,-1.25,-2.90,-1.25,1.25,1.05,1.72,-1.65,-1.65,-1.65
395.77,-2.96,-1.34,-2.96,-1.34,1.33,1.13,1.82,-1.63,-1.63,-1.62
399.73,-3.03,-1.42,-3.03,-1.42,1.42,1.22,1.91,-1.61,-1.61,-1.61
403.72,-3.10,-1.49,-3.10,-1.50,1.50,1.31,2.00,-1.60,-1.60,-1.61
407.76,-3.19,-1.59,-3.19,-1.59,1.59,1.41,2.09,-1.60,-1.60,-1.60
411.84,-3.27,-1.68,-3.28,-1.68,1.68,1.50,2.17,-1.59,-1.60,-1.59
415.96,-3.37,-1.77,-3.36,-1.77,1.77,1.61,2.26,-1.60,-1.60,-1.60
420.12,-3.45,-1.85,-3.45,-1.85,1.86,1.71,2.35,-1.59,-1.59,-1.60
424.32,-3.54,-1.94,-3.54,-1.94,1.95,1.82,2.43,-1.59,-1.59,-1.60
428.56,-3.64,-2.04,-3.64,-2.04,2.05,1.93,2.51,-1.59,-1.60,-1.60
432.85,-3.75,-2.14,-3.75,-2.14,2.14,2.05,2.59,-1.61,-1.61,-1.61
