frequency,raw,error,smoothed,error_smoothed,equalization,parametric_eq,fixed_band_eq,equalized_raw,equalized_smoothed,target
20.00,-9.05,-12.39,-9.09,-12.45,12.45,11.34,4.30,3.40,3.37,3.34
20.20,-8.96,-12.35,-8.98,-12.38,12.38,11.39,4.42,3.41,3.40,3.39
20.40,-8.87,-12.31,-8.86,-12.30,12.30,11.43,4.53,3.43,3.44,3.44
20.61,-8.78,-12.24,-8.75,-12.22,12.22,11.47,4.65,3.44,3.47,3.46
20.81,-8.68,-12.20,-8.64,-12.14,12.14,11.50,4.77,3.46,3.50,3.51
21.02,-8.59,-12.15,-8.53,-12.06,12.06,11.52,4.89,3.46,3.53,3.55
21.23,-8.45,-12.03,-8.42,-11.97,11.97,11.54,5.02,3.52,3.55,3.57
21.44,-8.30,-11.90,-8.31,-11.89,11.89,11.55,5.15,3.58,3.57,3.59
21.66,-8.17,-11.78,-8.20,-11.80,11.80,11.55,5.29,3.63,3.59,3.61
21.87,-8.02,-11.64,-8.10,-11.71,11.71,11.55,5.43,3.68,3.61,3.62
22.09,-7.91,-11.55,-7.99,-11.62,11.62,11.54,5.57,3.70,3.63,3.64
22.31,-7.83,-11.48,-7.88,-11.52,11.52,11.52,5.72,3.69,3.64,3.65
22.54,-7.76,-11.41,-7.77,-11.42,11.42,11.50,5.87,3.66,3.65,3.65
22.76,-7.67,-11.32,-7.67,-11.32,11.32,11.47,6.02,3.64,3.65,3.65
22.99,-7.59,-11.23,-7.56,-11.21,11.21,11.44,6.18,3.62,3.65,3.64
23.22,-7.49,-11.13,-7.45,-11.10,11.10,11.39,6.34,3.61,3.65,3.64
23.45,-7.39,-11.03,-7.35,-11.00,11.00,11.34,6.50,3.61,3.65,3.64
23.69,-7.30,-10.94,-7.25,-10.91,10.91,11.29,6.67,3.61,3.65,3.65
23.92,-7.18,-10.83,-7.16,-10.81,10.81,11.23,6.85,3.63,3.65,3.64
24.16,-7.07,-10.73,-7.06,-10.71,10.71,11.16,7.02,3.64,3.65,3.65
24.40,-6.95,-10.62,-6.96,-10.62,10.62,11.09,7.20,3.66,3.65,3.66
24.65,-6.83,-10.48,-6.87,-10.52,10.52,11.01,7.38,3.69,3.65,3.65
24.89,-6.70,-10.35,-6.78,-10.43,10.43,10.92,7.57,3.72,3.65,3.65
25.14,-6.61,-10.26,-6.68,-10.33,10.33,10.84,7.76,3.72,3.65,3.65
25.39,-6.54,-10.20,-6.58,-10.23,10.23,10.74,7.95,3.69,3.65,3.66
25.65,-6.48,-10.13,-6.48,-10.13,10.13,10.65,8.14,3.66,3.65,3.66
25.91,-6.41,-10.05,-6.37,-10.03,10.03,10.54,8.34,3.62,3.65,3.65
26.16,-6.31,-9.96,-6.27,-9.92,9.92,10.44,8.53,3.61,3.65,3.65
26.43,-6.23,-9.87,-6.17,-9.82,9.82,10.33,8.73,3.59,3.65,3.64
26.69,-6.13,-9.78,-6.07,-9.72,9.72,10.22,8.92,3.58,3.65,3.64
26.96,-6.05,-9.70,-5.97,-9.61,9.61,10.10,9.11,3.57,3.64,3.65
27.23,-5.91,-9.56,-5.87,-9.51,9.51,9.98,9.30,3.61,3.64,3.65
27.50,-5.75,-9.39,-5.77,-9.41,9.41,9.86,9.49,3.66,3.64,3.65
27.77,-5.58,-9.22,-5.66,-9.30,9.30,9.74,9.67,3.72,3.64,3.64
28.05,-5.44,-9.08,-5.55,-9.19,9.19,9.61,9.84,3.74,3.64,3.64
28.33,-5.38,-9.01,-5.44,-9.07,9.07,9.49,10.01,3.69,3.63,3.62
28.62,-5.33,-8.95,-5.32,-8.96,8.96,9.36,10.16,3.63,3.63,3.62
28.90,-5.26,-8.90,-5.22,-8.85,8.85,9.23,10.31,3.59,3.63,3.63
29.19,-5.16,-8.78,-5.12,-8.75,8.75,9.10,10.44,3.58,3.63,3.62
29.48,-5.04,-8.68,-5.02,-8.65,8.65,8.97,10.55,3.61,3.63,3.64
29.78,-4.93,-8.55,-4.93,-8.56,8.56,8.83,10.65,3.63,3.63,3.63
30.08,-4.82,-8.45,-4.84,-8.46,8.46,8.70,10.73,3.64,3.62,3.63
30.38,-4.73,-8.35,-4.74,-8.37,8.37,8.57,10.79,3.64,3.62,3.62
30.68,-4.63,-8.25,-4.66,-8.28,8.28,8.43,10.83,3.64,3.62,3.62
30.99,-4.55,-8.16,-4.57,-8.19,8.19,8.30,10.84,3.65,3.62,3.62
31.30,-4.49,-8.10,-4.49,-8.11,8.11,8.16,10.84,3.62,3.61,3.61
31.61,-4.42,-8.04,-4.40,-8.01,8.01,8.03,10.81,3.59,3.61,3.61
31.93,-4.36,-7.96,-4.30,-7.91,7.91,7.89,10.76,3.55,3.61,3.61
32.24,-4.23,-7.83,-4.20,-7.81,7.81,7.76,10.69,3.58,3.60,3.60
32.57,-4.10,-7.70,-4.11,-7.71,7.71,7.62,10.60,3.61,3.60,3.60
32.89,-3.95,-7.55,-4.01,-7.61,7.61,7.49,10.49,3.65,3.59,3.60
33.22,-3.88,-7.47,-3.92,-7.51,7.51,7.36,10.36,3.62,3.59,3.59
33.55,-3.85,-7.44,-3.82,-7.40,7.40,7.22,10.22,3.55,3.58,3.58
33.89,-3.82,-7.40,-3.72,-7.29,7.29,7.09,10.07,3.47,3.58,3.57
34.23,-3.70,-7.27,-3.61,-7.19,7.19,6.96,9.90,3.49,3.57,3.58
34.57,-3.50,-7.07,-3.51,-7.08,7.08,6.83,9.72,3.58,3.57,3.56
34.92,-3.32,-6.88,-3.41,-6.97,6.97,6.70,9.54,3.66,3.56,3.56
35.27,-3.24,-6.79,-3.31,-6.87,6.87,6.57,9.35,3.64,3.56,3.56
35.62,-3.18,-6.74,-3.22,-6.77,6.77,6.44,9.15,3.59,3.56,3.55
35.97,-3.13,-6.68,-3.13,-6.68,6.68,6.31,8.95,3.55,3.55,3.55
36.33,-3.04,-6.60,-3.04,-6.59,6.59,6.18,8.74,3.55,3.55,3.55
36.70,-2.95,-6.49,-2.96,-6.50,6.50,6.06,8.53,3.56,3.55,3.54
37.06,-2.85,-6.39,-2.86,-6.41,6.41,5.93,8.33,3.56,3.55,3.54
37.43,-2.77,-6.32,-2.77,-6.31,6.31,5.81,8.12,3.54,3.55,3.55
37.81,-2.70,-6.25,-2.68,-6.22,6.22,5.68,7.91,3.52,3.55,3.55
38.19,-2.63,-6.17,-2.60,-6.14,6.14,5.56,7.71,3.52,3.54,3.54
38.57,-2.53,-6.08,-2.52,-6.06,6.06,5.44,7.50,3.53,3.54,3.55
38.95,-2.45,-6.00,-2.44,-5.98,5.98,5.32,7.30,3.53,3.54,3.55
39.34,-2.36,-5.91,-2.35,-5.89,5.89,5.20,7.10,3.53,3.54,3.54
39.74,-2.28,-5.81,-2.26,-5.80,5.80,5.08,6.91,3.53,3.54,3.54
40.14,-2.18,-5.72,-2.17,-5.71,5.71,4.96,6.71,3.53,3.54,3.54
40.54,-2.05,-5.58,-2.08,-5.62,5.62,4.84,6.52,3.57,3.54,3.54
40.94,-1.92,-5.45,-2.00,-5.53,5.53,4.73,6.34,3.60,3.53,3.53
41.35,-1.88,-5.41,-1.91,-5.43,5.43,4.61,6.15,3.55,3.52,3.52
41.76,-1.86,-5.38,-1.82,-5.34,5.34,4.50,5.97,3.48,3.52,3.51
42.18,-1.79,-5.31,-1.74,-5.25,5.25,4.39,5.80,3.45,3.51,3.52
42.60,-1.67,-5.17,-1.66,-5.16,5.16,4.28,5.62,3.48,3.49,3.50
43.03,-1.55,-5.05,-1.58,-5.06,5.06,4.17,5.46,3.51,3.48,3.49
43.46,-1.48,-4.97,-1.51,-4.98,4.98,4.06,5.29,3.49,3.47,3.48
43.90,-1.42,-4.87,-1.44,-4.89,4.89,3.95,5.13,3.48,3.46,3.45
44.33,-1.34,-4.78,-1.36,-4.80,4.80,3.84,4.97,3.46,3.44,3.43
44.78,-1.28,-4.69,-1.28,-4.71,4.71,3.74,4.81,3.43,3.43,3.42
45.23,-1.21,-4.61,-1.20,-4.61,4.61,3.63,4.66,3.41,3.41,3.41
45.68,-1.13,-4.52,-1.12,-4.52,4.52,3.53,4.52,3.38,3.39,3.39
46.13,-1.06,-4.43,-1.03,-4.41,4.41,3.43,4.37,3.35,3.38,3.37
46.60,-0.99,-4.35,-0.95,-4.31,4.31,3.33,4.23,3.33,3.36,3.36
47.06,-0.90,-4.25,-0.87,-4.21,4.21,3.23,4.09,3.31,3.34,3.34
47.53,-0.80,-4.14,-0.78,-4.11,4.11,3.13,3.95,3.31,3.33,3.33
48.01,-0.71,-4.03,-0.70,-4.01,4.01,3.03,3.82,3.31,3.31,3.33
48.49,-0.58,-3.88,-0.62,-3.91,3.91,2.93,3.69,3.34,3.30,3.31
48.97,-0.45,-3.74,-0.53,-3.81,3.81,2.84,3.56,3.36,3.28,3.28
49.46,-0.42,-3.69,-0.45,-3.71,3.71,2.74,3.44,3.29,3.27,3.26
49.96,-0.40,-3.64,-0.36,-3.61,3.61,2.65,3.32,3.21,3.25,3.24
50.46,-0.30,-3.53,-0.28,-3.52,3.52,2.55,3.20,3.22,3.23,3.23
50.96,-0.17,-3.39,-0.20,-3.42,3.42,2.46,3.08,3.25,3.22,3.22
51.47,-0.11,-3.31,-0.12,-3.33,3.33,2.37,2.97,3.21,3.20,3.19
51.99,-0.06,-3.23,-0.05,-3.23,3.23,2.28,2.85,3.18,3.19,3.18
52.51,0.01,-3.15,0.02,-3.15,3.15,2.19,2.74,3.16,3.17,3.17
53.03,0.09,-3.08,0.09,-3.06,3.06,2.11,2.64,3.15,3.16,3.16
53.56,0.16,-2.99,0.16,-2.98,2.98,2.02,2.53,3.14,3.14,3.14
54.10,0.22,-2.90,0.23,-2.90,2.90,1.93,2.43,3.13,3.13,3.13
54.64,0.30,-2.81,0.30,-2.82,2.82,1.85,2.32,3.11,3.11,3.11
55.18,0.37,-2.73,0.37,-2.73,2.73,1.77,2.23,3.10,3.10,3.10
55.74,0.44,-2.63,0.43,-2.65,2.65,1.68,2.13,3.09,3.08,3.08
56.29,0.52,-2.55,0.50,-2.57,2.57,1.60,2.03,3.08,3.07,3.07
56.86,0.57,-2.47,0.57,-2.48,2.48,1.52,1.94,3.05,3.05,3.05
57.42,0.63,-2.39,0.64,-2.39,2.39,1.44,1.84,3.02,3.03,3.01
58.00,0.69,-2.32,0.70,-2.30,2.30,1.36,1.75,2.99,3.00,3.00
58.58,0.75,-2.24,0.77,-2.21,2.21,1.29,1.66,2.96,2.98,2.99
59.16,0.82,-2.15,0.83,-2.12,2.12,1.21,1.58,2.93,2.95,2.96
59.76,0.92,-2.01,0.89,-2.02,2.02,1.13,1.49,2.95,2.92,2.94
60.35,0.98,-1.92,0.96,-1.92,1.92,1.06,1.41,2.90,2.88,2.89
60.96,0.99,-1.87,1.02,-1.83,1.83,0.98,1.32,2.81,2.84,2.85
61.57,1.09,-1.71,1.08,-1.73,1.73,0.91,1.24,2.82,2.80,2.81
62.18,1.19,-1.57,1.14,-1.62,1.62,0.84,1.16,2.81,2.76,2.76
62.80,1.19,-1.52,1.20,-1.52,1.52,0.77,1.08,2.70,2.72,2.71
63.43,1.23,-1.43,1.25,-1.42,1.42,0.70,1.00,2.64,2.67,2.66
64.07,1.29,-1.31,1.30,-1.31,1.31,0.63,0.93,2.61,2.62,2.61
64.71,1.36,-1.20,1.36,-1.21,1.21,0.56,0.85,2.56,2.57,2.56
65.35,1.43,-1.09,1.41,-1.10,1.10,0.49,0.78,2.53,2.51,2.51
66.01,1.50,-0.97,1.46,-1.00,1.00,0.43,0.70,2.49,2.46,2.46
66.67,1.50,-0.91,1.51,-0.90,0.90,0.36,0.63,2.39,2.41,2.41
67.33,1.54,-0.81,1.57,-0.79,0.79,0.30,0.56,2.32,2.35,2.35
68.01,1.63,-0.68,1.62,-0.68,0.68,0.23,0.48,2.31,2.30,2.30
68.69,1.68,-0.57,1.66,-0.58,0.58,0.17,0.41,2.26,2.24,2.25
69.37,1.70,-0.49,1.71,-0.47,0.47,0.11,0.34,2.17,2.19,2.19
70.07,1.71,-0.42,1.76,-0.36,0.36,0.05,0.27,2.07,2.13,2.13
70.77,1.85,-0.23,1.81,-0.25,0.25,-0.01,0.20,2.10,2.07,2.08
71.48,1.90,-0.12,1.86,-0.15,0.15,-0.07,0.13,2.04,2.01,2.02
72.19,1.91,-0.04,1.91,-0.04,0.04,-0.13,0.06,1.94,1.94,1.95
72.91,1.96,0.07,1.95,0.07,-0.07,-0.19,-0.01,1.89,1.88,1.88
73.64,1.99,0.17,1.98,0.16,-0.16,-0.25,-0.08,1.82,1.82,1.82
74.38,2.02,0.26,2.02,0.27,-0.27,-0.30,-0.15,1.75,1.75,1.75
75.12,2.06,0.37,2.06,0.36,-0.36,-0.36,-0.22,1.69,1.69,1.69
75.87,2.09,0.47,2.09,0.46,-0.46,-0.41,-0.29,1.63,1.63,1.62
76.63,2.16,0.59,2.12,0.56,-0.56,-0.47,-0.37,1.60,1.57,1.56
77.40,2.20,0.69,2.16,0.65,-0.65,-0.52,-0.44,1.55,1.51,1.50
78.17,2.20,0.76,2.19,0.74,-0.74,-0.57,-0.51,1.45,1.45,1.43
78.95,2.20,0.80,2.22,0.83,-0.83,-0.63,-0.59,1.37,1.39,1.39
79.74,2.20,0.87,2.24,0.91,-0.91,-0.68,-0.66,1.28,1.33,1.33
80.54,2.21,0.93,2.27,1.00,-1.00,-0.73,-0.74,1.20,1.27,1.28
81.35,2.28,1.06,2.31,1.09,-1.09,-0.78,-0.81,1.19,1.22,1.21
82.16,2.40,1.24,2.33,1.17,-1.17,-0.83,-0.89,1.22,1.16,1.16
82.98,2.40,1.28,2.36,1.26,-1.26,-0.87,-0.97,1.14,1.10,1.11
83.81,2.40,1.35,2.39,1.34,-1.34,-0.92,-1.05,1.05,1.05,1.05
84.65,2.43,1.44,2.42,1.43,-1.43,-0.97,-1.13,0.99,0.99,0.99
85.50,2.47,1.52,2.45,1.52,-1.52,-1.01,-1.21,0.95,0.93,0.94
86.35,2.50,1.61,2.49,1.61,-1.61,-1.06,-1.29,0.88,0.88,0.88
87.22,2.50,1.67,2.52,1.70,-1.70,-1.10,-1.38,0.79,0.82,0.82
88.09,2.51,1.74,2.56,1.80,-1.80,-1.15,-1.46,0.71,0.76,0.76
88.97,2.60,1.89,2.58,1.88,-1.88,-1.19,-1.55,0.71,0.70,0.70
89.86,2.61,1.97,2.61,1.97,-1.97,-1.23,-1.64,0.64,0.64,0.64
90.76,2.61,2.03,2.62,2.04,-2.04,-1.28,-1.73,0.56,0.58,0.58
91.66,2.66,2.13,2.64,2.12,-2.12,-1.32,-1.82,0.54,0.52,0.52
92.58,2.70,2.25,2.66,2.20,-2.20,-1.36,-1.91,0.50,0.46,0.45
93.51,2.71,2.31,2.67,2.27,-2.27,-1.40,-2.01,0.43,0.40,0.40
94.44,2.71,2.37,2.68,2.34,-2.34,-1.44,-2.10,0.36,0.34,0.34
95.39,2.71,2.42,2.69,2.41,-2.41,-1.47,-2.20,0.29,0.28,0.28
96.34,2.70,2.48,2.70,2.48,-2.48,-1.51,-2.29,0.21,0.22,0.22
97.30,2.70,2.53,2.71,2.55,-2.55,-1.55,-2.39,0.15,0.17,0.16
98.28,2.69,2.58,2.72,2.61,-2.61,-1.59,-2.49,0.07,0.11,0.11
99.26,2.69,2.64,2.72,2.67,-2.67,-1.62,-2.59,0.02,0.05,0.05
100.25,2.71,2.71,2.72,2.73,-2.73,-1.66,-2.69,-0.03,-0.01,-0.01
101.25,2.74,2.80,2.72,2.79,-2.79,-1.69,-2.79,-0.05,-0.07,-0.06
102.27,2.73,2.85,2.72,2.85,-2.85,-1.73,-2.89,-0.12,-0.12,-0.12
103.29,2.72,2.91,2.72,2.90,-2.90,-1.76,-3.00,-0.18,-0.18,-0.19
104.32,2.72,2.95,2.71,2.96,-2.96,-1.80,-3.10,-0.24,-0.24,-0.24
105.37,2.74,3.03,2.71,3.02,-3.02,-1.83,-3.20,-0.28,-0.30,-0.30
106.42,2.75,3.10,2.71,3.07,-3.07,-1.86,-3.30,-0.33,-0.36,-0.35
107.48,2.72,3.14,2.70,3.13,-3.13,-1.89,-3.39,-0.41,-0.43,-0.42
108.56,2.70,3.18,2.69,3.18,-3.18,-1.92,-3.49,-0.49,-0.49,-0.49
109.64,2.68,3.22,2.68,3.23,-3.23,-1.96,-3.59,-0.55,-0.55,-0.55
110.74,2.66,3.27,2.66,3.28,-3.28,-1.99,-3.68,-0.62,-0.61,-0.61
111.85,2.64,3.30,2.65,3.32,-3.32,-2.01,-3.77,-0.68,-0.67,-0.66
112.97,2.63,3.36,2.63,3.36,-3.36,-2.04,-3.85,-0.74,-0.73,-0.74
114.10,2.63,3.42,2.61,3.40,-3.40,-2.07,-3.94,-0.78,-0.79,-0.79
115.24,2.63,3.48,2.60,3.45,-3.45,-2.10,-4.02,-0.82,-0.85,-0.85
116.39,2.60,3.51,2.59,3.49,-3.49,-2.13,-4.09,-0.89,-0.90,-0.92
117.55,2.56,3.52,2.58,3.53,-3.53,-2.16,-4.16,-0.98,-0.95,-0.96
118.73,2.53,3.54,2.57,3.58,-3.58,-2.18,-4.22,-1.05,-1.00,-1.02
119.92,2.54,3.59,2.57,3.62,-3.62,-2.21,-4.28,-1.09,-1.05,-1.05
121.12,2.55,3.65,2.57,3.66,-3.66,-2.23,-4.33,-1.12,-1.10,-1.10
122.33,2.56,3.70,2.56,3.71,-3.71,-2.26,-4.38,-1.15,-1.14,-1.15
123.55,2.56,3.74,2.56,3.75,-3.75,-2.29,-4.42,-1.19,-1.19,-1.18
124.79,2.57,3.79,2.56,3.78,-3.78,-2.31,-4.46,-1.22,-1.23,-1.22
126.03,2.58,3.84,2.55,3.82,-3.82,-2.33,-4.48,-1.24,-1.27,-1.26
127.29,2.59,3.88,2.55,3.86,-3.86,-2.36,-4.51,-1.27,-1.31,-1.29
128.57,2.59,3.93,2.55,3.89,-3.89,-2.38,-4.52,-1.31,-1.35,-1.34
129.85,2.60,3.98,2.55,3.93,-3.93,-2.40,-4.53,-1.33,-1.38,-1.38
131.15,2.54,3.96,2.55,3.97,-3.97,-2.43,-4.54,-1.43,-1.42,-1.42
132.46,2.52,3.98,2.54,4.00,-4.00,-2.45,-4.54,-1.49,-1.46,-1.46
133.79,2.51,4.00,2.54,4.03,-4.03,-2.47,-4.53,-1.53,-1.50,-1.50
135.12,2.51,4.05,2.53,4.06,-4.06,-2.49,-4.52,-1.56,-1.53,-1.54
136.48,2.52,4.08,2.52,4.09,-4.09,-2.51,-4.51,-1.58,-1.57,-1.57
137.84,2.52,4.13,2.52,4.12,-4.12,-2.53,-4.49,-1.61,-1.60,-1.61
139.22,2.52,4.17,2.52,4.16,-4.16,-2.55,-4.47,-1.64,-1.64,-1.65
140.61,2.52,4.21,2.52,4.20,-4.20,-2.57,-4.44,-1.68,-1.68,-1.70
142.02,2.52,4.23,2.52,4.24,-4.24,-2.59,-4.41,-1.72,-1.72,-1.72
143.44,2.52,4.27,2.52,4.29,-4.29,-2.61,-4.39,-1.77,-1.76,-1.76
144.87,2.52,4.32,2.52,4.33,-4.33,-2.63,-4.36,-1.82,-1.81,-1.81
146.32,2.52,4.37,2.52,4.38,-4.38,-2.65,-4.33,-1.87,-1.86,-1.86
147.78,2.52,4.41,2.51,4.43,-4.43,-2.66,-4.29,-1.92,-1.92,-1.89
149.26,2.52,4.46,2.50,4.48,-4.48,-2.68,-4.26,-1.97,-1.98,-1.95
150.75,2.52,4.54,2.49,4.54,-4.54,-2.70,-4.23,-2.02,-2.05,-2.02
152.26,2.52,4.61,2.48,4.60,-4.60,-2.72,-4.20,-2.08,-2.12,-2.10
153.78,2.52,4.69,2.47,4.66,-4.66,-2.73,-4.17,-2.14,-2.19,-2.17
155.32,2.47,4.72,2.45,4.72,-4.72,-2.75,-4.14,-2.25,-2.27,-2.26
156.88,2.43,4.76,2.43,4.78,-4.78,-2.76,-4.12,-2.35,-2.35,-2.34
158.44,2.36,4.78,2.40,4.83,-4.83,-2.78,-4.09,-2.47,-2.42,-2.43
160.03,2.33,4.84,2.37,4.87,-4.87,-2.80,-4.07,-2.55,-2.50,-2.52
161.63,2.32,4.91,2.34,4.91,-4.91,-2.81,-4.05,-2.60,-2.57,-2.60
163.24,2.32,4.98,2.31,4.95,-4.95,-2.82,-4.03,-2.63,-2.64,-2.66
164.88,2.32,5.03,2.28,4.98,-4.98,-2.84,-4.02,-2.66,-2.70,-2.72
166.53,2.31,5.08,2.25,5.00,-5.00,-2.85,-4.01,-2.70,-2.76,-2.78
168.19,2.25,5.07,2.22,5.02,-5.02,-2.87,-4.00,-2.77,-2.80,-2.82
169.87,2.20,5.06,2.19,5.03,-5.03,-2.88,-3.99,-2.84,-2.84,-2.86
171.57,2.14,5.02,2.17,5.04,-5.04,-2.89,-3.99,-2.90,-2.87,-2.89
173.29,2.10,5.00,2.14,5.04,-5.04,-2.91,-3.98,-2.95,-2.90,-2.91
175.02,2.08,5.00,2.12,5.04,-5.04,-2.92,-3.99,-2.96,-2.92,-2.92
176.77,2.08,5.02,2.10,5.03,-5.03,-2.93,-3.99,-2.96,-2.93,-2.94
178.54,2.08,5.02,2.08,5.03,-5.03,-2.94,-4.00,-2.95,-2.95,-2.95
180.32,2.08,5.02,2.06,5.02,-5.02,-2.96,-4.01,-2.94,-2.96,-2.95
182.13,2.08,5.02,2.04,5.01,-5.01,-2.97,-4.03,-2.93,-2.97,-2.95
183.95,2.03,4.99,2.02,5.00,-5.00,-2.98,-4.05,-2.98,-2.98,-2.96
185.79,2.01,4.97,2.01,5.00,-5.00,-2.99,-4.07,-2.99,-2.99,-2.97
187.65,2.00,4.99,1.99,4.99,-4.99,-3.00,-4.09,-3.00,-3.01,-2.99
189.52,1.95,4.95,1.97,4.99,-4.99,-3.01,-4.12,-3.04,-3.02,-3.01
191.42,1.95,4.98,1.95,4.99,-4.99,-3.02,-4.15,-3.04,-3.04,-3.03
193.33,1.96,5.01,1.93,4.99,-4.99,-3.03,-4.18,-3.03,-3.06,-3.06
195.27,1.94,5.01,1.91,4.99,-4.99,-3.04,-4.22,-3.05,-3.08,-3.08
197.22,1.91,5.01,1.88,4.98,-4.98,-3.05,-4.26,-3.07,-3.10,-3.10
199.19,1.86,4.99,1.85,4.97,-4.97,-3.06,-4.29,-3.12,-3.12,-3.13
201.18,1.82,4.97,1.82,4.97,-4.97,-3.07,-4.34,-3.15,-3.15,-3.15
203.19,1.75,4.92,1.79,4.96,-4.96,-3.08,-4.38,-3.22,-3.17,-3.17
205.23,1.72,4.92,1.75,4.95,-4.95,-3.09,-4.42,-3.23,-3.20,-3.20
207.28,1.72,4.92,1.72,4.94,-4.94,-3.10,-4.47,-3.22,-3.22,-3.21
209.35,1.72,4.95,1.68,4.92,-4.92,-3.10,-4.52,-3.21,-3.24,-3.24
211.44,1.70,4.97,1.64,4.91,-4.91,-3.11,-4.56,-3.21,-3.26,-3.27
213.56,1.63,4.91,1.60,4.88,-4.88,-3.12,-4.61,-3.26,-3.28,-3.28
215.69,1.57,4.86,1.56,4.86,-4.86,-3.13,-4.66,-3.29,-3.30,-3.30
217.85,1.50,4.81,1.53,4.84,-4.84,-3.13,-4.70,-3.34,-3.31,-3.31
220.03,1.50,4.82,1.50,4.82,-4.82,-3.14,-4.75,-3.33,-3.32,-3.33
222.23,1.46,4.81,1.47,4.80,-4.80,-3.15,-4.79,-3.35,-3.33,-3.35
224.45,1.40,4.74,1.44,4.78,-4.78,-3.16,-4.83,-3.38,-3.34,-3.35
226.70,1.39,4.73,1.41,4.76,-4.76,-3.16,-4.87,-3.37,-3.34,-3.35
228.96,1.40,4.74,1.38,4.72,-4.72,-3.17,-4.91,-3.33,-3.34,-3.34
231.25,1.34,4.67,1.35,4.69,-4.69,-3.18,-4.94,-3.35,-3.34,-3.33
233.57,1.31,4.63,1.33,4.65,-4.65,-3.18,-4.97,-3.35,-3.33,-3.33
235.90,1.33,4.64,1.31,4.62,-4.62,-3.19,-4.99,-3.29,-3.31,-3.32
238.26,1.34,4.65,1.29,4.59,-4.59,-3.19,-5.01,-3.25,-3.30,-3.31
240.64,1.32,4.61,1.27,4.55,-4.55,-3.20,-5.03,-3.24,-3.28,-3.29
243.05,1.29,4.55,1.26,4.52,-4.52,-3.20,-5.03,-3.23,-3.26,-3.26
245.48,1.23,4.47,1.24,4.48,-4.48,-3.21,-5.04,-3.26,-3.24,-3.24
247.93,1.22,4.43,1.22,4.44,-4.44,-3.21,-5.03,-3.23,-3.22,-3.21
250.41,1.21,4.41,1.21,4.41,-4.41,-3.22,-5.03,-3.20,-3.20,-3.20
252.92,1.15,4.32,1.19,4.37,-4.37,-3.22,-5.01,-3.23,-3.18,-3.17
255.45,1.17,4.31,1.19,4.34,-4.34,-3.23,-4.99,-3.18,-3.16,-3.15
258.00,1.18,4.30,1.19,4.32,-4.32,-3.23,-4.97,-3.15,-3.13,-3.13
260.58,1.18,4.29,1.18,4.30,-4.30,-3.24,-4.93,-3.12,-3.11,-3.12
263.19,1.18,4.26,1.18,4.27,-4.27,-3.24,-4.90,-3.09,-3.09,-3.08
265.82,1.18,4.25,1.18,4.25,-4.25,-3.24,-4.86,-3.07,-3.06,-3.07
268.48,1.18,4.22,1.19,4.23,-4.23,-3.25,-4.81,-3.06,-3.04,-3.05
271.16,1.17,4.18,1.20,4.21,-4.21,-3.25,-4.76,-3.05,-3.02,-3.02
273.87,1.19,4.19,1.20,4.19,-4.19,-3.25,-4.70,-3.01,-2.99,-3.00
276.61,1.26,4.22,1.20,4.17,-4.17,-3.26,-4.64,-2.92,-2.97,-2.97
279.38,1.27,4.21,1.21,4.15,-4.15,-3.26,-4.58,-2.89,-2.94,-2.94
282.17,1.27,4.19,1.21,4.13,-4.13,-3.26,-4.52,-2.86,-2.92,-2.92
284.99,1.22,4.10,1.21,4.10,-4.10,-3.27,-4.45,-2.89,-2.89,-2.89
287.84,1.17,4.04,1.21,4.07,-4.07,-3.27,-4.38,-2.91,-2.86,-2.87
290.72,1.18,4.01,1.20,4.04,-4.04,-3.27,-4.31,-2.86,-2.84,-2.84
293.63,1.21,4.02,1.19,4.00,-4.00,-3.27,-4.24,-2.80,-2.81,-2.81
296.57,1.17,3.94,1.18,3.96,-3.96,-3.27,-4.17,-2.79,-2.78,-2.78
299.53,1.10,3.85,1.16,3.91,-3.91,-3.28,-4.10,-2.81,-2.75,-2.75
302.53,1.15,3.88,1.13,3.86,-3.86,-3.28,-4.03,-2.72,-2.73,-2.74
305.55,1.19,3.88,1.11,3.81,-3.81,-3.28,-3.95,-2.62,-2.70,-2.69
308.61,1.11,3.78,1.08,3.76,-3.76,-3.28,-3.88,-2.65,-2.68,-2.68
311.69,1.07,3.72,1.05,3.71,-3.71,-3.28,-3.81,-2.64,-2.66,-2.65
314.81,1.05,3.67,1.03,3.66,-3.66,-3.28,-3.75,-2.62,-2.64,-2.62
317.96,1.00,3.60,1.00,3.62,-3.62,-3.28,-3.68,-2.62,-2.62,-2.61
321.14,0.93,3.53,0.97,3.57,-3.57,-3.28,-3.61,-2.64,-2.60,-2.60
324.35,0.89,3.47,0.93,3.51,-3.51,-3.28,-3.55,-2.63,-2.58,-2.59
327.59,0.87,3.43,0.89,3.46,-3.46,-3.28,-3.49,-2.60,-2.57,-2.57
330.87,0.87,3.43,0.86,3.41,-3.41,-3.28,-3.43,-2.55,-2.56,-2.56
334.18,0.87,3.41,0.82,3.37,-3.37,-3.28,-3.37,-2.50,-2.54,-2.55
337.52,0.81,3.34,0.78,3.32,-3.32,-3.28,-3.31,-2.51,-2.53,-2.54
340.90,0.78,3.30,0.74,3.27,-3.27,-3.28,-3.26,-2.49,-2.53,-2.52
344.30,0.72,3.23,0.71,3.23,-3.23,-3.28,-3.21,-2.51,-2.52,-2.51
347.75,0.68,3.19,0.67,3.19,-3.19,-3.28,-3.16,-2.51,-2.52,-2.52
351.23,0.59,3.09,0.64,3.15,-3.15,-3.28,-3.11,-2.56,-2.51,-2.51
354.74,0.55,3.06,0.61,3.12,-3.12,-3.28,-3.07,-2.57,-2.51,-2.51
358.28,0.59,3.09,0.58,3.09,-3.09,-3.28,-3.03,-2.50,-2.51,-2.50
361.87,0.60,3.10,0.55,3.06,-3.06,-3.28,-2.99,-2.46,-2.50,-2.51
365.49,0.51,3.00,0.52,3.02,-3.02,-3.28,-2.95,-2.52,-2.50,-2.50
369.14,0.49,3.00,0.49,2.99,-2.99,-3.28,-2.92,-2.51,-2.51,-2.51
372.83,0.45,2.96,0.46,2.97,-2.97,-3.27,-2.89,-2.53,-2.51,-2.51
376.56,0.38,2.89,0.44,2.95,-2.95,-3.27,-2.85,-2.57,-2.51,-2.51
380.33,0.41,2.91,0.41,2.92,-2.92,-3.27,-2.83,-2.52,-2.51,-2.51
384.13,0.45,2.95,0.38,2.89,-2.89,-3.27,-2.80,-2.45,-2.52,-2.51
387.97,0.39,2.91,0.34,2.86,-2.86,-3.27,-2.78,-2.48,-2.52,-2.52
391.85,0.34,2.87,0.31,2.83,-2.83,-3.26,-2.75,-2.50,-2.53,-2.53
395.77,0.31,2.83,0.27,2.80,-2.80,-3.26,-2.73,-2.50,-2.53,-2.52
399.73,0.22,2.75,0.23,2.77,-2.77,-3.26,-2.72,-2.55,-2.54,-2.54
403.72,0.20,2.73,0.19,2.74,-2.74,-3.25,-2.70,-2.54,-2.55,-2.54
407.76,0.24,2.78,0.16,2.71,-2.71,-3.25,-2.68,-2.47,-2.55,-2.55
411.84,0.11,2.65,0.12,2.68,-2.68,-3.25,-2.67,-2.57,-2.55,-2.55
415.96,-0.00,2.55,0.09,2.64,-2.64,-3.24,-2.66,-2.65,-2.55,-2.55
420.12,-0.00,2.55,0.06,2.62,-2.62,-3.24,-2.65,-2.62,-2.55,-2.55
424.32,0.02,2.57,0.03,2.58,-2.58,-3.24,-2.63,-2.57,-2.55,-2.55
428.56,0.03,2.57,0.01,2.55,-2.55,-3.23,-2.62,-2.53,-2.54,-2.54
432.85,0.05,2.58,0.01,2.53,-2.53,-3.23,-2.62,-2.49,-2.52,-2.54
437.18,0.03,2.55,0.01,2.51,-2.51,-3.22,-2.61,-2.49,-2.50,-2.53
441.55,0.01,2.49,0.02,2.50,-2.50,-3.22,-2.60,-2.49,-2.48,-2.49
445.96,-0.03,2.42,0.04,2.48,-2.48,-3.21,-2.59,-2.52,-2.45,-2.46
450.42,0.01,2.44,0.05,2.46,-2.46,-3.21,-2.58,-2.45,-2.41,-2.43
454.93,0.06,2.44,0.07,2.43,-2.43,-3.20,-2.57,-2.38,-2.37,-2.38
459.48,0.12,2.45,0.09,2.41,-2.41,-3.20,-2.56,-2.30,-2.32,-2.33
464.07,0.14,2.42,0.11,2.39,-2.39,-3.19,-2.55,-2.25,-2.28,-2.28
468.71,0.13,2.35,0.13,2.36,-2.36,-3.18,-2.54,-2.23,-2.23,-2.22
473.40,0.23,2.41,0.15,2.33,-2.33,-3.18,-2.53,-2.10,-2.18,-2.18
478.13,0.23,2.35,0.17,2.30,-2.30,-3.17,-2.52,-2.08,-2.13,-2.12
482.91,0.21,2.29,0.19,2.28,-2.28,-3.16,-2.50,-2.08,-2.09,-2.09
487.74,0.22,2.26,0.22,2.27,-2.27,-3.16,-2.49,-2.05,-2.05,-2.05
