frequency,raw,error,smoothed,error_smoothed,equalization,parametric_eq,fixed_band_eq,equalized_raw,equalized_smoothed,target
20.00,0.48,-3.85,0.52,-3.84,3.84,3.72,1.36,4.33,4.36,4.33
20.20,0.53,-3.85,0.55,-3.85,3.85,3.72,1.40,4.38,4.40,4.38
20.40,0.58,-3.85,0.59,-3.85,3.85,3.71,1.45,4.43,4.44,4.43
20.61,0.63,-3.83,0.62,-3.85,3.85,3.70,1.49,4.48,4.47,4.46
20.81,0.68,-3.83,0.66,-3.84,3.84,3.70,1.53,4.52,4.50,4.51
21.02,0.73,-3.82,0.69,-3.84,3.84,3.69,1.58,4.57,4.52,4.55
21.23,0.75,-3.82,0.72,-3.83,3.83,3.68,1.63,4.58,4.55,4.57
21.44,0.77,-3.82,0.76,-3.81,3.81,3.67,1.68,4.59,4.57,4.59
21.66,0.79,-3.82,0.79,-3.80,3.80,3.66,1.73,4.59,4.59,4.61
21.87,0.81,-3.81,0.83,-3.78,3.78,3.65,1.78,4.60,4.61,4.62
22.09,0.84,-3.80,0.86,-3.77,3.77,3.63,1.83,4.61,4.63,4.64
22.31,0.88,-3.77,0.89,-3.74,3.74,3.62,1.89,4.63,4.64,4.65
22.54,0.93,-3.72,0.92,-3.72,3.72,3.61,1.94,4.65,4.64,4.65
22.76,0.97,-3.67,0.95,-3.70,3.70,3.59,2.00,4.67,4.65,4.65
22.99,1.02,-3.61,0.99,-3.66,3.66,3.57,2.06,4.69,4.65,4.64
23.22,1.03,-3.60,1.02,-3.63,3.63,3.56,2.12,4.66,4.65,4.64
23.45,1.05,-3.58,1.06,-3.59,3.59,3.54,2.18,4.64,4.65,4.64
23.69,1.06,-3.58,1.10,-3.55,3.55,3.52,2.24,4.61,4.65,4.64
23.92,1.08,-3.56,1.14,-3.51,3.51,3.50,2.31,4.59,4.65,4.64
24.16,1.12,-3.53,1.18,-3.47,3.47,3.49,2.37,4.59,4.65,4.65
24.40,1.19,-3.47,1.21,-3.44,3.44,3.47,2.44,4.63,4.65,4.66
24.65,1.26,-3.39,1.24,-3.41,3.41,3.44,2.50,4.67,4.65,4.65
24.89,1.32,-3.33,1.27,-3.38,3.38,3.42,2.57,4.70,4.65,4.65
25.14,1.36,-3.29,1.30,-3.35,3.35,3.40,2.64,4.72,4.65,4.65
25.39,1.37,-3.29,1.33,-3.33,3.33,3.38,2.71,4.70,4.65,4.66
25.65,1.38,-3.27,1.35,-3.30,3.30,3.36,2.78,4.68,4.65,4.66
25.91,1.40,-3.24,1.39,-3.27,3.27,3.33,2.84,4.67,4.65,4.65
26.16,1.40,-3.24,1.41,-3.24,3.24,3.31,2.91,4.64,4.65,4.64
26.43,1.40,-3.24,1.43,-3.21,3.21,3.28,2.98,4.61,4.65,4.64
26.69,1.41,-3.23,1.45,-3.19,3.19,3.26,3.04,4.61,4.65,4.64
26.96,1.41,-3.24,1.47,-3.18,3.18,3.23,3.11,4.59,4.64,4.65
27.23,1.45,-3.20,1.48,-3.16,3.16,3.20,3.17,4.61,4.64,4.65
27.50,1.51,-3.14,1.50,-3.14,3.14,3.18,3.23,4.65,4.64,4.65
27.77,1.56,-3.07,1.53,-3.11,3.11,3.15,3.29,4.67,4.64,4.64
28.05,1.60,-3.03,1.55,-3.09,3.09,3.12,3.35,4.69,4.64,4.63
28.33,1.59,-3.03,1.58,-3.06,3.06,3.09,3.40,4.65,4.63,4.62
28.62,1.59,-3.03,1.60,-3.03,3.03,3.06,3.45,4.62,4.63,4.62
28.90,1.58,-3.05,1.63,-3.00,3.00,3.03,3.49,4.58,4.63,4.63
29.19,1.62,-3.00,1.66,-2.97,2.97,3.00,3.53,4.59,4.63,4.62
29.48,1.68,-2.95,1.69,-2.93,2.93,2.97,3.57,4.62,4.63,4.64
29.78,1.74,-2.88,1.72,-2.90,2.90,2.94,3.60,4.64,4.62,4.62
30.08,1.79,-2.84,1.75,-2.87,2.87,2.91,3.62,4.66,4.62,4.63
30.38,1.79,-2.83,1.77,-2.85,2.85,2.88,3.64,4.64,4.62,4.62
30.68,1.79,-2.83,1.80,-2.82,2.82,2.84,3.65,4.61,4.62,4.62
30.99,1.79,-2.82,1.82,-2.79,2.79,2.81,3.66,4.58,4.62,4.62
31.30,1.84,-2.77,1.85,-2.76,2.76,2.78,3.66,4.60,4.61,4.61
31.61,1.89,-2.72,1.88,-2.73,2.73,2.74,3.65,4.62,4.61,4.61
31.93,1.95,-2.66,1.91,-2.70,2.70,2.71,3.64,4.65,4.61,4.61
32.24,1.96,-2.63,1.94,-2.66,2.66,2.68,3.62,4.62,4.60,4.60
32.57,1.96,-2.64,1.97,-2.63,2.63,2.64,3.60,4.59,4.60,4.60
32.89,1.96,-2.64,2.00,-2.59,2.59,2.61,3.57,4.56,4.59,4.60
33.22,1.99,-2.59,2.03,-2.56,2.56,2.57,3.54,4.55,4.59,4.59
33.55,2.03,-2.55,2.05,-2.53,2.53,2.54,3.50,4.56,4.58,4.58
33.89,2.07,-2.50,2.08,-2.49,2.49,2.50,3.46,4.56,4.58,4.57
34.23,2.11,-2.46,2.11,-2.46,2.46,2.47,3.41,4.57,4.57,4.58
34.57,2.15,-2.41,2.14,-2.43,2.43,2.43,3.36,4.58,4.57,4.56
34.92,2.20,-2.36,2.17,-2.39,2.39,2.40,3.30,4.59,4.56,4.56
35.27,2.23,-2.32,2.20,-2.36,2.36,2.36,3.24,4.59,4.56,4.56
35.62,2.25,-2.30,2.23,-2.33,2.33,2.32,3.18,4.58,4.55,4.55
35.97,2.27,-2.28,2.26,-2.29,2.29,2.29,3.12,4.56,4.55,4.55
36.33,2.27,-2.28,2.29,-2.26,2.26,2.25,3.05,4.53,4.55,4.55
36.70,2.27,-2.27,2.32,-2.23,2.23,2.22,2.99,4.50,4.55,4.54
37.06,2.28,-2.25,2.35,-2.20,2.20,2.18,2.92,4.48,4.55,4.53
37.43,2.35,-2.20,2.37,-2.17,2.17,2.14,2.85,4.53,4.55,4.55
37.81,2.42,-2.12,2.40,-2.15,2.15,2.10,2.78,4.57,4.54,4.54
38.19,2.46,-2.08,2.42,-2.13,2.13,2.07,2.71,4.59,4.54,4.54
38.57,2.46,-2.08,2.44,-2.11,2.11,2.03,2.64,4.57,4.54,4.54
38.95,2.46,-2.09,2.45,-2.09,2.09,1.99,2.57,4.55,4.54,4.55
39.34,2.48,-2.06,2.47,-2.07,2.07,1.96,2.50,4.55,4.54,4.54
39.74,2.50,-2.03,2.50,-2.04,2.04,1.92,2.44,4.55,4.54,4.54
40.14,2.53,-2.01,2.52,-2.02,2.02,1.88,2.37,4.55,4.54,4.54
40.54,2.54,-1.99,2.54,-1.99,1.99,1.84,2.30,4.53,4.53,4.53
40.94,2.56,-1.97,2.56,-1.96,1.96,1.80,2.24,4.53,4.53,4.53
41.35,2.56,-1.96,2.58,-1.94,1.94,1.77,2.17,4.50,4.52,4.52
41.76,2.56,-1.95,2.60,-1.92,1.92,1.73,2.11,4.48,4.51,4.51
42.18,2.58,-1.93,2.61,-1.89,1.89,1.69,2.05,4.47,4.50,4.52
42.60,2.63,-1.87,2.64,-1.86,1.86,1.65,1.99,4.49,4.49,4.50
43.03,2.68,-1.81,2.66,-1.82,1.82,1.61,1.93,4.50,4.48,4.49
43.46,2.71,-1.77,2.69,-1.77,1.77,1.58,1.88,4.49,4.47,4.48
43.90,2.74,-1.71,2.72,-1.73,1.73,1.54,1.82,4.47,4.45,4.45
44.33,2.75,-1.68,2.75,-1.69,1.69,1.50,1.77,4.44,4.44,4.43
44.78,2.75,-1.66,2.77,-1.65,1.65,1.46,1.71,4.40,4.43,4.41
45.23,2.77,-1.63,2.80,-1.61,1.61,1.42,1.66,4.38,4.41,4.40
45.68,2.82,-1.56,2.83,-1.56,1.56,1.38,1.62,4.39,4.39,4.38
46.13,2.86,-1.50,2.86,-1.52,1.52,1.35,1.57,4.38,4.38,4.36
46.60,2.90,-1.46,2.89,-1.48,1.48,1.31,1.52,4.38,4.36,4.36
47.06,2.93,-1.41,2.91,-1.43,1.43,1.27,1.48,4.37,4.34,4.34
47.53,2.94,-1.39,2.93,-1.40,1.40,1.23,1.43,4.34,4.33,4.33
48.01,2.95,-1.38,2.95,-1.36,1.36,1.19,1.39,4.32,4.31,4.33
48.49,2.95,-1.35,2.96,-1.33,1.33,1.15,1.35,4.28,4.29,4.31
48.97,2.96,-1.32,2.98,-1.30,1.30,1.11,1.31,4.27,4.28,4.28
49.46,3.00,-1.26,2.99,-1.27,1.27,1.07,1.27,4.28,4.26,4.26
49.96,3.04,-1.19,3.01,-1.24,1.24,1.04,1.24,4.28,4.25,4.24
50.46,3.04,-1.19,3.02,-1.21,1.21,1.00,1.20,4.25,4.23,4.23
50.96,3.04,-1.17,3.04,-1.18,1.18,0.96,1.16,4.22,4.22,4.22
51.47,3.04,-1.15,3.05,-1.15,1.15,0.92,1.13,4.19,4.20,4.19
51.99,3.04,-1.13,3.07,-1.11,1.11,0.88,1.09,4.16,4.19,4.17
52.51,3.04,-1.13,3.09,-1.08,1.08,0.84,1.06,4.12,4.17,4.17
53.03,3.04,-1.12,3.11,-1.05,1.05,0.80,1.03,4.09,4.15,4.16
53.56,3.10,-1.04,3.12,-1.02,1.02,0.76,0.99,4.12,4.14,4.14
54.10,3.15,-0.97,3.14,-0.98,0.98,0.72,0.96,4.14,4.12,4.13
54.64,3.20,-0.90,3.16,-0.95,0.95,0.68,0.93,4.15,4.11,4.11
55.18,3.23,-0.86,3.17,-0.92,0.92,0.64,0.90,4.15,4.10,4.10
55.74,3.23,-0.84,3.19,-0.89,0.89,0.60,0.86,4.12,4.08,4.08
56.29,3.23,-0.83,3.21,-0.85,0.85,0.56,0.83,4.09,4.07,4.07
56.86,3.23,-0.81,3.23,-0.81,0.81,0.52,0.80,4.05,4.05,4.04
57.42,3.23,-0.78,3.26,-0.77,0.77,0.48,0.76,4.00,4.03,4.01
58.00,3.23,-0.77,3.28,-0.73,0.73,0.44,0.73,3.96,4.00,4.00
58.58,3.27,-0.71,3.29,-0.68,0.68,0.40,0.69,3.95,3.98,3.99
59.16,3.30,-0.66,3.31,-0.64,0.64,0.36,0.66,3.94,3.95,3.96
59.76,3.32,-0.61,3.32,-0.59,0.59,0.32,0.62,3.92,3.92,3.94
60.35,3.33,-0.56,3.34,-0.54,0.54,0.28,0.58,3.88,3.88,3.89
60.96,3.33,-0.52,3.35,-0.49,0.49,0.24,0.54,3.82,3.84,3.85
61.57,3.39,-0.41,3.37,-0.43,0.43,0.20,0.50,3.82,3.80,3.81
62.18,3.43,-0.33,3.40,-0.36,0.36,0.16,0.46,3.80,3.76,3.76
62.80,3.43,-0.28,3.42,-0.30,0.30,0.12,0.42,3.73,3.71,3.71
63.43,3.43,-0.23,3.44,-0.23,0.23,0.08,0.38,3.66,3.67,3.66
64.07,3.43,-0.18,3.45,-0.16,0.16,0.03,0.33,3.59,3.62,3.61
64.71,3.44,-0.11,3.47,-0.10,0.10,-0.01,0.28,3.54,3.57,3.56
65.35,3.47,-0.04,3.48,-0.03,0.03,-0.05,0.24,3.50,3.51,3.51
66.01,3.52,0.06,3.50,0.04,-0.04,-0.09,0.19,3.49,3.46,3.46
66.67,3.52,0.12,3.51,0.10,-0.10,-0.14,0.14,3.42,3.41,3.40
67.33,3.52,0.17,3.52,0.16,-0.16,-0.18,0.08,3.36,3.35,3.35
68.01,3.52,0.22,3.52,0.22,-0.22,-0.22,0.03,3.30,3.30,3.30
68.69,3.52,0.28,3.52,0.28,-0.28,-0.26,-0.02,3.24,3.24,3.25
69.37,3.52,0.34,3.52,0.34,-0.34,-0.31,-0.08,3.19,3.19,3.19
70.07,3.52,0.39,3.52,0.40,-0.40,-0.35,-0.14,3.13,3.13,3.13
70.77,3.52,0.44,3.52,0.46,-0.46,-0.40,-0.20,3.07,3.07,3.08
71.48,3.52,0.51,3.52,0.51,-0.51,-0.44,-0.26,3.01,3.00,3.02
72.19,3.52,0.58,3.51,0.56,-0.56,-0.49,-0.32,2.96,2.94,2.94
72.91,3.52,0.64,3.49,0.61,-0.61,-0.53,-0.38,2.91,2.88,2.88
73.64,3.46,0.65,3.48,0.66,-0.66,-0.58,-0.45,2.80,2.82,2.82
74.38,3.43,0.68,3.47,0.71,-0.71,-0.62,-0.51,2.72,2.75,2.75
75.12,3.43,0.75,3.46,0.77,-0.77,-0.67,-0.58,2.67,2.69,2.69
75.87,3.43,0.81,3.44,0.82,-0.82,-0.72,-0.64,2.62,2.63,2.62
76.63,3.43,0.87,3.43,0.86,-0.86,-0.76,-0.71,2.57,2.57,2.56
77.40,3.42,0.92,3.41,0.90,-0.90,-0.81,-0.78,2.52,2.51,2.50
78.17,3.39,0.96,3.38,0.94,-0.94,-0.86,-0.85,2.45,2.44,2.43
78.95,3.33,0.94,3.36,0.97,-0.97,-0.91,-0.92,2.36,2.39,2.39
79.74,3.33,1.00,3.33,1.00,-1.00,-0.96,-1.00,2.33,2.33,2.33
80.54,3.33,1.06,3.30,1.03,-1.03,-1.01,-1.07,2.30,2.27,2.28
81.35,3.30,1.09,3.27,1.05,-1.05,-1.06,-1.15,2.25,2.22,2.21
82.16,3.25,1.10,3.23,1.07,-1.07,-1.11,-1.22,2.18,2.16,2.16
82.98,3.23,1.12,3.19,1.09,-1.09,-1.16,-1.30,2.14,2.10,2.11
83.81,3.15,1.11,3.15,1.10,-1.10,-1.21,-1.38,2.05,2.05,2.04
84.65,3.07,1.08,3.10,1.11,-1.11,-1.26,-1.46,1.96,1.99,1.99
85.50,3.04,1.10,3.06,1.13,-1.13,-1.31,-1.54,1.91,1.93,1.94
86.35,3.03,1.15,3.02,1.15,-1.15,-1.37,-1.62,1.89,1.87,1.88
87.22,3.00,1.18,2.98,1.16,-1.16,-1.42,-1.71,1.84,1.82,1.82
88.09,2.94,1.18,2.94,1.19,-1.19,-1.48,-1.79,1.76,1.76,1.76
88.97,2.86,1.16,2.91,1.21,-1.21,-1.53,-1.88,1.65,1.70,1.70
89.86,2.85,1.21,2.88,1.24,-1.24,-1.59,-1.97,1.61,1.64,1.64
90.76,2.85,1.28,2.86,1.28,-1.28,-1.64,-2.05,1.57,1.58,1.57
91.66,2.86,1.34,2.85,1.33,-1.33,-1.70,-2.15,1.53,1.52,1.52
92.58,2.86,1.41,2.85,1.39,-1.39,-1.76,-2.24,1.48,1.46,1.45
93.51,2.86,1.47,2.85,1.45,-1.45,-1.82,-2.33,1.41,1.40,1.39
94.44,2.86,1.52,2.87,1.53,-1.53,-1.88,-2.42,1.33,1.34,1.34
95.39,2.85,1.57,2.89,1.61,-1.61,-1.94,-2.52,1.24,1.28,1.28
96.34,2.88,1.66,2.93,1.71,-1.71,-2.00,-2.62,1.17,1.22,1.22
97.30,2.97,1.81,2.98,1.82,-1.82,-2.06,-2.71,1.16,1.16,1.16
98.28,3.02,1.92,3.04,1.94,-1.94,-2.12,-2.81,1.09,1.11,1.11
99.26,3.08,2.03,3.11,2.06,-2.06,-2.19,-2.91,1.02,1.05,1.05
100.25,3.18,2.19,3.18,2.19,-2.19,-2.25,-3.01,0.99,0.99,0.99
101.25,3.24,2.31,3.25,2.32,-2.32,-2.32,-3.11,0.92,0.93,0.93
102.27,3.29,2.42,3.33,2.45,-2.45,-2.38,-3.21,0.84,0.87,0.88
103.29,3.42,2.61,3.41,2.60,-2.60,-2.45,-3.31,0.83,0.82,0.81
104.32,3.54,2.78,3.49,2.74,-2.74,-2.52,-3.42,0.81,0.76,0.76
105.37,3.62,2.92,3.57,2.88,-2.88,-2.59,-3.52,0.74,0.70,0.70
106.42,3.71,3.07,3.65,3.02,-3.02,-2.66,-3.62,0.70,0.63,0.65
107.48,3.77,3.19,3.73,3.15,-3.15,-2.73,-3.72,0.62,0.57,0.58
108.56,3.81,3.30,3.80,3.29,-3.29,-2.80,-3.82,0.52,0.51,0.51
109.64,3.86,3.41,3.88,3.43,-3.43,-2.87,-3.91,0.44,0.45,0.45
110.74,3.91,3.53,3.95,3.56,-3.56,-2.95,-4.01,0.35,0.39,0.39
111.85,3.97,3.63,4.02,3.69,-3.69,-3.02,-4.10,0.28,0.33,0.34
112.97,4.10,3.84,4.09,3.82,-3.82,-3.10,-4.19,0.28,0.27,0.26
114.10,4.12,3.92,4.15,3.95,-3.95,-3.17,-4.28,0.18,0.21,0.20
115.24,4.17,4.02,4.21,4.06,-4.06,-3.25,-4.37,0.11,0.15,0.15
116.39,4.26,4.18,4.28,4.18,-4.18,-3.33,-4.45,0.08,0.10,0.08
117.55,4.33,4.30,4.34,4.30,-4.30,-3.41,-4.53,0.03,0.04,0.04
118.73,4.46,4.48,4.41,4.42,-4.42,-3.49,-4.60,0.05,-0.01,-0.02
119.92,4.52,4.57,4.48,4.53,-4.53,-3.58,-4.67,-0.01,-0.05,-0.05
121.12,4.53,4.64,4.54,4.64,-4.64,-3.66,-4.74,-0.11,-0.10,-0.11
122.33,4.59,4.74,4.60,4.74,-4.74,-3.74,-4.80,-0.15,-0.15,-0.15
123.55,4.64,4.82,4.65,4.83,-4.83,-3.83,-4.86,-0.19,-0.19,-0.18
124.79,4.69,4.92,4.69,4.92,-4.92,-3.92,-4.91,-0.23,-0.23,-0.22
126.03,4.75,5.02,4.74,5.01,-5.01,-4.01,-4.96,-0.25,-0.27,-0.27
127.29,4.78,5.08,4.79,5.09,-5.09,-4.09,-5.00,-0.31,-0.31,-0.30
128.57,4.83,5.18,4.83,5.17,-5.17,-4.19,-5.04,-0.34,-0.35,-0.35
129.85,4.86,5.25,4.86,5.24,-5.24,-4.28,-5.07,-0.38,-0.38,-0.39
131.15,4.87,5.30,4.88,5.31,-5.31,-4.37,-5.10,-0.43,-0.42,-0.42
132.46,4.87,5.33,4.90,5.36,-5.36,-4.46,-5.12,-0.49,-0.46,-0.46
133.79,4.88,5.38,4.91,5.41,-5.41,-4.56,-5.15,-0.52,-0.50,-0.50
135.12,4.91,5.46,4.92,5.45,-5.45,-4.65,-5.17,-0.54,-0.53,-0.54
136.48,4.96,5.53,4.91,5.48,-5.48,-4.75,-5.18,-0.52,-0.57,-0.57
137.84,4.98,5.59,4.91,5.52,-5.52,-4.85,-5.20,-0.53,-0.61,-0.61
139.22,4.98,5.64,4.91,5.55,-5.55,-4.95,-5.21,-0.57,-0.64,-0.66
140.61,4.95,5.65,4.90,5.58,-5.58,-5.05,-5.22,-0.63,-0.68,-0.70
142.02,4.89,5.61,4.90,5.62,-5.62,-5.15,-5.23,-0.72,-0.72,-0.72
143.44,4.82,5.58,4.89,5.66,-5.66,-5.25,-5.24,-0.83,-0.76,-0.76
144.87,4.79,5.60,4.90,5.71,-5.71,-5.35,-5.24,-0.92,-0.81,-0.81
146.32,4.79,5.65,4.90,5.77,-5.77,-5.45,-5.25,-0.97,-0.86,-0.86
147.78,4.80,5.70,4.91,5.83,-5.83,-5.56,-5.26,-1.02,-0.92,-0.89
149.26,4.86,5.81,4.90,5.89,-5.89,-5.66,-5.27,-1.02,-0.98,-0.95
150.75,4.89,5.92,4.88,5.93,-5.93,-5.77,-5.28,-1.04,-1.05,-1.03
152.26,4.89,5.99,4.85,5.97,-5.97,-5.87,-5.30,-1.08,-1.12,-1.10
153.78,4.89,6.07,4.81,6.00,-6.00,-5.98,-5.31,-1.11,-1.19,-1.17
155.32,4.89,6.15,4.76,6.03,-6.03,-6.08,-5.33,-1.14,-1.27,-1.26
156.88,4.89,6.23,4.71,6.06,-6.06,-6.19,-5.35,-1.17,-1.35,-1.34
158.44,4.85,6.28,4.67,6.09,-6.09,-6.29,-5.37,-1.24,-1.42,-1.43
160.03,4.78,6.30,4.63,6.13,-6.13,-6.40,-5.40,-1.35,-1.50,-1.52
161.63,4.63,6.23,4.60,6.17,-6.17,-6.50,-5.43,-1.54,-1.57,-1.60
163.24,4.48,6.15,4.57,6.21,-6.21,-6.61,-5.46,-1.73,-1.64,-1.66
164.88,4.36,6.08,4.54,6.25,-6.25,-6.71,-5.49,-1.88,-1.70,-1.72
166.53,4.24,6.02,4.54,6.29,-6.29,-6.81,-5.53,-2.05,-1.76,-1.78
168.19,4.28,6.10,4.55,6.35,-6.35,-6.91,-5.58,-2.07,-1.80,-1.82
169.87,4.40,6.27,4.57,6.41,-6.41,-7.01,-5.63,-2.01,-1.84,-1.87
171.57,4.54,6.43,4.61,6.49,-6.49,-7.11,-5.68,-1.95,-1.87,-1.89
173.29,4.71,6.62,4.67,6.57,-6.57,-7.20,-5.74,-1.86,-1.90,-1.91
175.02,4.84,6.76,4.74,6.66,-6.66,-7.30,-5.80,-1.81,-1.92,-1.92
176.77,4.96,6.90,4.82,6.75,-6.75,-7.39,-5.86,-1.79,-1.94,-1.94
178.54,5.02,6.97,4.91,6.86,-6.86,-7.48,-5.93,-1.83,-1.95,-1.95
180.32,5.04,6.99,5.00,6.96,-6.96,-7.56,-6.01,-1.92,-1.96,-1.95
182.13,5.12,7.07,5.09,7.06,-7.06,-7.65,-6.08,-1.93,-1.97,-1.95
183.95,5.25,7.22,5.17,7.15,-7.15,-7.73,-6.17,-1.90,-1.98,-1.96
185.79,5.26,7.23,5.23,7.23,-7.23,-7.80,-6.25,-1.97,-1.99,-1.97
187.65,5.28,7.28,5.28,7.29,-7.29,-7.87,-6.35,-2.00,-2.01,-2.00
189.52,5.29,7.30,5.31,7.33,-7.33,-7.94,-6.44,-2.04,-2.02,-2.01
191.42,5.30,7.34,5.33,7.37,-7.37,-8.01,-6.54,-2.07,-2.04,-2.03
193.33,5.32,7.38,5.35,7.41,-7.41,-8.06,-6.65,-2.09,-2.06,-2.06
195.27,5.33,7.41,5.36,7.44,-7.44,-8.12,-6.75,-2.11,-2.08,-2.08
197.22,5.35,7.45,5.38,7.48,-7.48,-8.17,-6.87,-2.12,-2.10,-2.10
199.19,5.36,7.49,5.39,7.52,-7.52,-8.21,-6.98,-2.15,-2.12,-2.13
201.18,5.42,7.57,5.41,7.55,-7.55,-8.25,-7.10,-2.13,-2.15,-2.15
203.19,5.44,7.61,5.41,7.59,-7.59,-8.28,-7.22,-2.14,-2.17,-2.17
205.23,5.39,7.59,5.41,7.61,-7.61,-8.30,-7.34,-2.22,-2.20,-2.20
207.28,5.37,7.58,5.41,7.63,-7.63,-8.32,-7.46,-2.26,-2.22,-2.21
209.35,5.37,7.61,5.39,7.63,-7.63,-8.34,-7.59,-2.26,-2.24,-2.24
211.44,5.37,7.65,5.36,7.63,-7.63,-8.35,-7.71,-2.25,-2.26,-2.27
213.56,5.36,7.64,5.32,7.61,-7.61,-8.35,-7.84,-2.24,-2.28,-2.28
215.69,5.36,7.66,5.28,7.58,-7.58,-8.34,-7.96,-2.22,-2.30,-2.30
217.85,5.35,7.67,5.23,7.54,-7.54,-8.34,-8.09,-2.19,-2.31,-2.31
220.03,5.29,7.62,5.18,7.50,-7.50,-8.32,-8.20,-2.21,-2.33,-2.33
222.23,5.19,7.54,5.13,7.46,-7.46,-8.30,-8.32,-2.27,-2.34,-2.35
224.45,5.06,7.41,5.08,7.42,-7.42,-8.27,-8.43,-2.36,-2.34,-2.35
226.70,4.94,7.29,5.05,7.39,-7.39,-8.24,-8.53,-2.45,-2.34,-2.35
228.96,4.87,7.22,5.02,7.36,-7.36,-8.21,-8.63,-2.49,-2.34,-2.34
231.25,4.88,7.22,4.99,7.33,-7.33,-8.17,-8.72,-2.45,-2.34,-2.34
233.57,4.89,7.22,4.98,7.31,-7.31,-8.12,-8.80,-2.42,-2.33,-2.33
235.90,4.90,7.22,4.98,7.30,-7.30,-8.07,-8.87,-2.40,-2.32,-2.32
238.26,4.98,7.29,5.00,7.30,-7.30,-8.02,-8.92,-2.32,-2.30,-2.31
240.64,5.03,7.32,5.02,7.31,-7.31,-7.97,-8.97,-2.28,-2.28,-2.29
243.05,5.10,7.36,5.06,7.33,-7.33,-7.91,-8.99,-2.23,-2.27,-2.26
245.48,5.16,7.41,5.11,7.36,-7.36,-7.85,-9.01,-2.20,-2.25,-2.24
247.93,5.19,7.40,5.18,7.40,-7.40,-7.78,-9.01,-2.21,-2.22,-2.21
250.41,5.21,7.41,5.24,7.44,-7.44,-7.72,-8.99,-2.23,-2.20,-2.20
252.92,5.24,7.41,5.29,7.48,-7.48,-7.65,-8.96,-2.23,-2.18,-2.17
255.45,5.40,7.55,5.34,7.50,-7.50,-7.58,-8.91,-2.10,-2.16,-2.15
258.00,5.44,7.57,5.37,7.51,-7.51,-7.51,-8.85,-2.07,-2.14,-2.13
260.58,5.44,7.56,5.40,7.51,-7.51,-7.44,-8.77,-2.07,-2.11,-2.12
263.19,5.45,7.54,5.41,7.50,-7.50,-7.37,-8.68,-2.05,-2.09,-2.08
265.82,5.44,7.51,5.41,7.48,-7.48,-7.30,-8.58,-2.04,-2.07,-2.07
268.48,5.44,7.49,5.41,7.46,-7.46,-7.23,-8.46,-2.02,-2.04,-2.05
271.16,5.44,7.46,5.41,7.43,-7.43,-7.16,-8.33,-1.99,-2.02,-2.02
273.87,5.43,7.44,5.41,7.40,-7.40,-7.09,-8.19,-1.97,-2.00,-2.00
276.61,5.35,7.32,5.40,7.37,-7.37,-7.03,-8.05,-2.02,-1.97,-1.97
279.38,5.34,7.29,5.38,7.32,-7.32,-6.96,-7.90,-1.98,-1.95,-1.95
282.17,5.27,7.19,5.35,7.27,-7.27,-6.90,-7.74,-2.00,-1.92,-1.92
284.99,5.25,7.14,5.33,7.22,-7.22,-6.84,-7.57,-1.97,-1.89,-1.89
287.84,5.26,7.14,5.30,7.17,-7.17,-6.78,-7.40,-1.90,-1.86,-1.87
290.72,5.27,7.11,5.27,7.11,-7.11,-6.73,-7.23,-1.84,-1.84,-1.84
293.63,5.28,7.10,5.25,7.06,-7.06,-6.67,-7.06,-1.78,-1.81,-1.81
296.57,5.29,7.07,5.22,7.00,-7.00,-6.63,-6.88,-1.71,-1.78,-1.78
299.53,5.24,7.00,5.19,6.95,-6.95,-6.58,-6.70,-1.70,-1.75,-1.75
302.53,5.20,6.94,5.16,6.89,-6.89,-6.54,-6.53,-1.69,-1.73,-1.74
305.55,5.09,6.79,5.13,6.83,-6.83,-6.50,-6.35,-1.74,-1.70,-1.69
308.61,5.05,6.73,5.09,6.78,-6.78,-6.46,-6.17,-1.72,-1.68,-1.68
311.69,5.05,6.70,5.05,6.71,-6.71,-6.43,-6.00,-1.66,-1.66,-1.65
314.81,5.01,6.64,5.01,6.64,-6.64,-6.39,-5.83,-1.63,-1.64,-1.63
317.96,4.91,6.52,4.95,6.57,-6.57,-6.36,-5.65,-1.65,-1.62,-1.61
321.14,4.87,6.48,4.89,6.49,-6.49,-6.33,-5.48,-1.61,-1.60,-1.60
324.35,4.87,6.46,4.82,6.40,-6.40,-6.31,-5.32,-1.53,-1.58,-1.59
327.59,4.74,6.31,4.74,6.31,-6.31,-6.27,-5.15,-1.57,-1.57,-1.57
330.87,4.68,6.25,4.67,6.23,-6.23,-6.24,-4.99,-1.54,-1.56,-1.56
334.18,4.64,6.19,4.60,6.14,-6.14,-6.20,-4.83,-1.50,-1.55,-1.55
337.52,4.52,6.06,4.52,6.06,-6.06,-6.16,-4.68,-1.53,-1.54,-1.54
340.90,4.44,5.96,4.44,5.97,-5.97,-6.11,-4.52,-1.53,-1.53,-1.52
344.30,4.34,5.86,4.35,5.88,-5.88,-6.05,-4.37,-1.53,-1.52,-1.52
347.75,4.22,5.74,4.27,5.78,-5.78,-5.98,-4.22,-1.56,-1.52,-1.52
351.23,4.15,5.66,4.18,5.69,-5.69,-5.90,-4.08,-1.54,-1.51,-1.51
354.74,4.07,5.59,4.08,5.59,-5.59,-5.81,-3.94,-1.52,-1.51,-1.51
358.28,3.95,5.46,3.98,5.48,-5.48,-5.70,-3.80,-1.53,-1.51,-1.51
361.87,3.86,5.37,3.87,5.38,-5.38,-5.59,-3.66,-1.51,-1.51,-1.51
365.49,3.81,5.31,3.77,5.27,-5.27,-5.47,-3.53,-1.46,-1.51,-1.50
369.14,3.70,5.21,3.66,5.17,-5.17,-5.34,-3.40,-1.47,-1.51,-1.51
372.83,3.58,5.10,3.56,5.07,-5.07,-5.20,-3.27,-1.49,-1.51,-1.51
376.56,3.46,4.98,3.47,4.98,-4.98,-5.05,-3.15,-1.52,-1.51,-1.52
380.33,3.36,4.87,3.37,4.88,-4.88,-4.90,-3.02,-1.52,-1.52,-1.51
384.13,3.22,4.73,3.26,4.78,-4.78,-4.75,-2.90,-1.56,-1.52,-1.51
387.97,3.07,4.59,3.15,4.68,-4.68,-4.59,-2.79,-1.60,-1.52,-1.52
391.85,2.94,4.48,3.03,4.56,-4.56,-4.44,-2.67,-1.61,-1.53,-1.53
395.77,2.87,4.40,2.89,4.43,-4.43,-4.28,-2.56,-1.56,-1.54,-1.53
399.73,2.79,4.33,2.75,4.29,-4.29,-4.13,-2.45,-1.50,-1.54,-1.54
403.72,2.68,4.22,2.59,4.14,-4.14,-3.98,-2.34,-1.46,-1.55,-1.54
407.76,2.58,4.13,2.42,3.98,-3.98,-3.83,-2.24,-1.39,-1.55,-1.55
411.84,2.42,3.97,2.26,3.81,-3.81,-3.68,-2.13,-1.39,-1.55,-1.55
415.96,2.21,3.76,2.09,3.65,-3.65,-3.54,-2.03,-1.43,-1.56,-1.55
420.12,1.96,3.52,1.93,3.48,-3.48,-3.40,-1.94,-1.52,-1.55,-1.55
424.32,1.75,3.31,1.77,3.32,-3.32,-3.26,-1.84,-1.56,-1.55,-1.55
428.56,1.53,3.08,1.62,3.16,-3.16,-3.12,-1.75,-1.63,-1.54,-1.55
432.85,1.34,2.88,1.48,3.01,-3.01,-2.99,-1.66,-1.66,-1.52,-1.54
437.18,1.20,2.73,1.36,2.86,-2.86,-2.86,-1.57,-1.66,-1.50,-1.53
441.55,1.09,2.58,1.25,2.73,-2.73,-2.73,-1.49,-1.64,-1.48,-1.49
445.96,1.03,2.49,1.16,2.61,-2.61,-2.60,-1.40,-1.58,-1.45,-1.46
450.42,1.00,2.43,1.09,2.50,-2.50,-2.48,-1.32,-1.50,-1.41,-1.43
454.93,1.01,2.39,1.03,2.40,-2.40,-2.36,-1.25,-1.39,-1.37,-1.38
459.48,0.99,2.33,0.98,2.31,-2.31,-2.24,-1.17,-1.32,-1.33,-1.33
464.07,1.00,2.29,0.95,2.23,-2.23,-2.12,-1.10,-1.23,-1.28,-1.28
468.71,0.98,2.21,0.93,2.16,-2.16,-2.00,-1.04,-1.18,-1.23,-1.22
473.40,0.98,2.17,0.90,2.09,-2.09,-1.88,-0.97,-1.11,-1.18,-1.19
478.13,0.98,2.11,0.87,2.01,-2.01,-1.76,-0.91,-1.03,-1.14,-1.13
482.91,0.92,2.01,0.83,1.92,-1.92,-1.64,-0.85,-1.00,-1.09,-1.09
487.74,0.80,1.85,0.78,1.83,-1.83,-1.52,-0.79,-1.03,-1.05,-1.05
492.62,0.70,1.70,0.71,1.72,-1.72,-1.40,-0.74,-1.02,-1.01,-1.00
497.55,0.56,1.54,0.62,1.60,-1.60,-1.28,-0.69,-1.04,-0.98,-0.98
502.52,0.44,1.39,0.51,1.47,-1.47,-1.16,-0.64,-1.03,-0.96,-0.95
507.55,0.38,1.32,0.37,1.32,-1.32,-1.04,-0.60,-0.94,-0.95,-0.94
512.62,0.30,1.23,0.22,1.17,-1.17,-0.91,-0.56,-0.86,-0.94,-0.93
517.75,0.11,1.03,0.06,1.00,-1.00,-0.79,-0.52,-0.89,-0.94,-0.92
