frequency,raw,error,smoothed,error_smoothed,equalization,parametric_eq,fixed_band_eq,equalized_raw,equalized_smoothed,target
20.00,0.48,-2.72,0.48,-2.72,2.70,2.37,0.79,3.18,3.18,3.20
20.20,0.53,-2.72,0.53,-2.71,2.71,2.36,0.82,3.24,3.24,3.25
20.40,0.58,-2.72,0.59,-2.71,2.71,2.35,0.84,3.30,3.30,3.30
20.61,0.63,-2.70,0.64,-2.70,2.71,2.34,0.87,3.35,3.35,3.33
20.81,0.68,-2.70,0.68,-2.69,2.71,2.33,0.90,3.40,3.40,3.38
21.02,0.73,-2.69,0.72,-2.69,2.71,2.32,0.93,3.44,3.43,3.42
21.23,0.75,-2.69,0.75,-2.69,2.70,2.31,0.96,3.45,3.45,3.44
21.44,0.77,-2.69,0.77,-2.69,2.69,2.30,0.99,3.46,3.46,3.46
21.66,0.79,-2.69,0.79,-2.69,2.68,2.29,1.02,3.47,3.47,3.48
21.87,0.81,-2.68,0.81,-2.68,2.66,2.28,1.05,3.47,3.48,3.49
22.09,0.84,-2.67,0.85,-2.66,2.64,2.27,1.08,3.48,3.48,3.51
22.31,0.88,-2.64,0.88,-2.63,2.61,2.26,1.11,3.50,3.50,3.52
22.54,0.93,-2.59,0.93,-2.59,2.59,2.25,1.15,3.52,3.52,3.52
22.76,0.97,-2.55,0.98,-2.54,2.56,2.24,1.18,3.53,3.53,3.52
22.99,1.02,-2.49,1.01,-2.50,2.53,2.23,1.22,3.55,3.54,3.51
23.22,1.03,-2.48,1.04,-2.47,2.50,2.22,1.26,3.53,3.54,3.51
23.45,1.05,-2.46,1.05,-2.46,2.47,2.20,1.29,3.52,3.52,3.51
23.69,1.06,-2.46,1.06,-2.45,2.43,2.19,1.33,3.49,3.49,3.52
23.92,1.08,-2.44,1.09,-2.43,2.39,2.18,1.37,3.48,3.48,3.52
24.16,1.12,-2.40,1.13,-2.39,2.36,2.17,1.41,3.48,3.49,3.52
24.40,1.19,-2.33,1.19,-2.33,2.32,2.15,1.45,3.51,3.51,3.53
24.65,1.26,-2.26,1.26,-2.26,2.27,2.14,1.49,3.54,3.53,3.52
24.89,1.32,-2.20,1.32,-2.20,2.23,2.13,1.53,3.56,3.55,3.52
25.14,1.36,-2.16,1.35,-2.17,2.19,2.11,1.57,3.56,3.55,3.52
25.39,1.37,-2.16,1.38,-2.15,2.16,2.10,1.61,3.54,3.54,3.53
25.65,1.38,-2.15,1.39,-2.14,2.14,2.09,1.65,3.52,3.53,3.53
25.91,1.40,-2.12,1.39,-2.13,2.13,2.07,1.70,3.53,3.52,3.52
26.16,1.40,-2.12,1.40,-2.12,2.12,2.06,1.74,3.52,3.52,3.52
26.43,1.40,-2.12,1.40,-2.11,2.11,2.04,1.78,3.51,3.51,3.52
26.69,1.41,-2.11,1.41,-2.11,2.09,2.03,1.82,3.50,3.49,3.52
26.96,1.41,-2.11,1.42,-2.10,2.06,2.02,1.85,3.47,3.49,3.52
27.23,1.45,-2.07,1.46,-2.06,2.04,2.00,1.89,3.49,3.50,3.52
27.50,1.51,-2.01,1.51,-2.01,2.01,1.98,1.93,3.52,3.52,3.52
27.77,1.56,-1.95,1.56,-1.95,1.99,1.97,1.96,3.55,3.55,3.51
28.05,1.60,-1.91,1.59,-1.91,1.96,1.95,1.99,3.56,3.55,3.51
28.33,1.59,-1.91,1.59,-1.91,1.93,1.94,2.02,3.52,3.52,3.50
28.62,1.59,-1.91,1.59,-1.91,1.90,1.92,2.05,3.49,3.48,3.50
28.90,1.58,-1.93,1.60,-1.91,1.86,1.90,2.07,3.45,3.46,3.51
29.19,1.62,-1.88,1.63,-1.88,1.84,1.89,2.10,3.46,3.47,3.50
29.48,1.68,-1.83,1.68,-1.82,1.82,1.87,2.12,3.50,3.50,3.51
29.78,1.74,-1.76,1.74,-1.76,1.79,1.85,2.13,3.53,3.53,3.50
30.08,1.79,-1.72,1.78,-1.72,1.76,1.83,2.14,3.55,3.54,3.51
30.38,1.79,-1.71,1.79,-1.71,1.73,1.82,2.15,3.52,3.52,3.50
30.68,1.79,-1.71,1.79,-1.70,1.69,1.80,2.16,3.48,3.48,3.50
30.99,1.79,-1.71,1.81,-1.69,1.65,1.78,2.16,3.45,3.46,3.50
31.30,1.84,-1.65,1.84,-1.65,1.63,1.76,2.16,3.47,3.47,3.49
31.61,1.89,-1.60,1.89,-1.60,1.60,1.74,2.15,3.49,3.50,3.49
31.93,1.95,-1.54,1.94,-1.55,1.58,1.72,2.14,3.53,3.52,3.49
32.24,1.96,-1.52,1.96,-1.52,1.55,1.70,2.13,3.51,3.51,3.48
32.57,1.96,-1.52,1.97,-1.51,1.52,1.68,2.11,3.48,3.48,3.48
32.89,1.96,-1.52,1.97,-1.50,1.49,1.66,2.09,3.45,3.46,3.48
33.22,1.99,-1.48,1.99,-1.48,1.45,1.64,2.06,3.44,3.45,3.47
33.55,2.03,-1.44,2.03,-1.44,1.42,1.62,2.03,3.45,3.45,3.47
33.89,2.07,-1.39,2.07,-1.39,1.38,1.59,2.00,3.45,3.45,3.46
34.23,2.11,-1.35,2.11,-1.34,1.34,1.57,1.97,3.45,3.45,3.46
34.57,2.15,-1.30,2.16,-1.29,1.30,1.55,1.93,3.45,3.46,3.45
34.92,2.20,-1.25,2.20,-1.25,1.27,1.53,1.89,3.47,3.46,3.45
35.27,2.23,-1.21,2.23,-1.21,1.23,1.51,1.85,3.47,3.47,3.44
35.62,2.25,-1.19,2.26,-1.18,1.21,1.48,1.81,3.46,3.46,3.44
35.97,2.27,-1.17,2.27,-1.17,1.18,1.46,1.76,3.45,3.44,3.44
36.33,2.27,-1.17,2.27,-1.17,1.15,1.43,1.72,3.42,3.42,3.44
36.70,2.27,-1.16,2.27,-1.16,1.12,1.41,1.67,3.40,3.40,3.43
37.06,2.28,-1.15,2.30,-1.13,1.10,1.39,1.62,3.38,3.40,3.43
37.43,2.35,-1.09,2.35,-1.08,1.07,1.36,1.58,3.43,3.43,3.44
37.81,2.42,-1.02,2.41,-1.02,1.05,1.33,1.53,3.47,3.46,3.44
38.19,2.46,-0.97,2.45,-0.99,1.02,1.31,1.48,3.48,3.47,3.43
38.57,2.46,-0.98,2.47,-0.97,0.99,1.28,1.43,3.45,3.46,3.44
38.95,2.46,-0.99,2.47,-0.97,0.96,1.26,1.38,3.43,3.43,3.45
39.34,2.48,-0.96,2.48,-0.96,0.94,1.23,1.33,3.42,3.43,3.44
39.74,2.50,-0.94,2.50,-0.94,0.93,1.20,1.28,3.43,3.43,3.44
40.14,2.53,-0.91,2.53,-0.91,0.92,1.17,1.23,3.45,3.44,3.44
40.54,2.54,-0.90,2.55,-0.89,0.90,1.15,1.18,3.45,3.45,3.44
40.94,2.56,-0.87,2.56,-0.88,0.89,1.12,1.13,3.45,3.44,3.43
41.35,2.56,-0.87,2.56,-0.87,0.86,1.09,1.08,3.42,3.42,3.43
41.76,2.56,-0.86,2.57,-0.85,0.83,1.06,1.03,3.39,3.40,3.42
42.18,2.58,-0.84,2.59,-0.82,0.80,1.03,0.99,3.38,3.39,3.42
42.60,2.63,-0.78,2.63,-0.78,0.77,1.00,0.94,3.40,3.40,3.41
43.03,2.68,-0.72,2.68,-0.72,0.73,0.97,0.89,3.41,3.41,3.40
43.46,2.71,-0.68,2.72,-0.67,0.69,0.94,0.85,3.41,3.41,3.39
43.90,2.74,-0.63,2.74,-0.63,0.65,0.91,0.80,3.39,3.39,3.37
44.33,2.75,-0.60,2.75,-0.60,0.60,0.87,0.76,3.36,3.35,3.35
44.78,2.75,-0.58,2.76,-0.57,0.56,0.84,0.72,3.31,3.32,3.33
45.23,2.77,-0.55,2.78,-0.54,0.51,0.81,0.67,3.29,3.30,3.32
45.68,2.82,-0.49,2.82,-0.49,0.47,0.78,0.63,3.30,3.29,3.31
46.13,2.86,-0.43,2.86,-0.43,0.44,0.74,0.59,3.30,3.30,3.29
46.60,2.90,-0.39,2.90,-0.38,0.40,0.71,0.55,3.30,3.30,3.29
47.06,2.93,-0.34,2.93,-0.34,0.37,0.67,0.51,3.30,3.29,3.27
47.53,2.94,-0.32,2.94,-0.32,0.33,0.64,0.47,3.27,3.27,3.26
48.01,2.95,-0.31,2.95,-0.30,0.29,0.60,0.44,3.24,3.24,3.26
48.49,2.95,-0.29,2.95,-0.28,0.26,0.57,0.40,3.21,3.21,3.24
48.97,2.96,-0.26,2.98,-0.24,0.22,0.53,0.36,3.19,3.20,3.22
49.46,3.00,-0.20,3.00,-0.20,0.20,0.49,0.32,3.20,3.20,3.20
49.96,3.04,-0.14,3.03,-0.15,0.17,0.45,0.29,3.22,3.20,3.18
50.46,3.04,-0.13,3.04,-0.12,0.15,0.42,0.25,3.19,3.20,3.17
50.96,3.04,-0.12,3.05,-0.11,0.13,0.38,0.22,3.17,3.18,3.16
51.47,3.04,-0.10,3.04,-0.10,0.10,0.34,0.18,3.15,3.15,3.14
51.99,3.04,-0.09,3.04,-0.09,0.08,0.30,0.15,3.12,3.11,3.13
52.51,3.04,-0.08,3.04,-0.08,0.05,0.26,0.11,3.09,3.09,3.12
53.03,3.04,-0.08,3.06,-0.05,0.02,0.22,0.08,3.06,3.08,3.12
53.56,3.10,0.00,3.10,-0.00,-0.02,0.18,0.04,3.08,3.08,3.10
54.10,3.15,0.06,3.15,0.06,-0.06,0.14,0.01,3.10,3.10,3.09
54.64,3.20,0.13,3.20,0.13,-0.09,0.09,-0.03,3.11,3.11,3.07
55.18,3.23,0.16,3.22,0.16,-0.13,0.05,-0.06,3.10,3.10,3.07
55.74,3.23,0.18,3.24,0.18,-0.16,0.01,-0.10,3.07,3.07,3.05
56.29,3.23,0.19,3.24,0.20,-0.19,-0.04,-0.13,3.04,3.04,3.04
56.86,3.23,0.20,3.23,0.21,-0.22,-0.08,-0.16,3.01,3.01,3.03
57.42,3.23,0.23,3.23,0.23,-0.24,-0.13,-0.20,2.99,2.99,3.00
58.00,3.23,0.24,3.25,0.26,-0.27,-0.17,-0.23,2.97,2.98,2.99
58.58,3.27,0.29,3.27,0.29,-0.30,-0.22,-0.27,2.97,2.97,2.98
59.16,3.30,0.34,3.30,0.34,-0.34,-0.26,-0.30,2.96,2.96,2.96
59.76,3.32,0.38,3.32,0.38,-0.39,-0.31,-0.34,2.93,2.93,2.94
60.35,3.33,0.43,3.33,0.43,-0.44,-0.36,-0.37,2.89,2.89,2.90
60.96,3.33,0.47,3.36,0.49,-0.50,-0.41,-0.41,2.83,2.85,2.86
61.57,3.39,0.57,3.39,0.57,-0.56,-0.46,-0.45,2.83,2.83,2.82
62.18,3.43,0.65,3.42,0.64,-0.62,-0.51,-0.49,2.81,2.80,2.78
62.80,3.43,0.70,3.44,0.70,-0.68,-0.56,-0.52,2.75,2.75,2.73
63.43,3.43,0.74,3.43,0.75,-0.75,-0.61,-0.56,2.69,2.69,2.69
64.07,3.43,0.79,3.43,0.79,-0.81,-0.66,-0.60,2.62,2.62,2.64
64.71,3.44,0.84,3.45,0.85,-0.87,-0.71,-0.64,2.57,2.58,2.60
65.35,3.47,0.91,3.48,0.92,-0.93,-0.76,-0.68,2.54,2.55,2.56
66.01,3.52,1.01,3.51,1.00,-0.99,-0.82,-0.72,2.53,2.52,2.51
66.67,3.52,1.06,3.52,1.06,-1.04,-0.87,-0.76,2.48,2.48,2.46
67.33,3.52,1.11,3.53,1.12,-1.10,-0.92,-0.81,2.42,2.43,2.41
68.01,3.52,1.15,3.52,1.16,-1.16,-0.98,-0.85,2.37,2.37,2.37
68.69,3.52,1.20,3.52,1.20,-1.21,-1.03,-0.90,2.31,2.31,2.32
69.37,3.52,1.25,3.52,1.25,-1.27,-1.09,-0.94,2.26,2.26,2.27
70.07,3.52,1.30,3.52,1.30,-1.31,-1.15,-0.99,2.21,2.21,2.22
70.77,3.52,1.35,3.52,1.35,-1.36,-1.20,-1.03,2.16,2.16,2.17
71.48,3.52,1.40,3.53,1.42,-1.40,-1.26,-1.08,2.12,2.12,2.12
72.19,3.52,1.47,3.52,1.47,-1.45,-1.32,-1.13,2.07,2.07,2.05
72.91,3.52,1.53,3.50,1.51,-1.50,-1.38,-1.18,2.02,2.00,1.99
73.64,3.46,1.52,3.47,1.54,-1.55,-1.44,-1.23,1.92,1.93,1.94
74.38,3.43,1.55,3.45,1.57,-1.59,-1.50,-1.29,1.84,1.86,1.88
75.12,3.43,1.61,3.43,1.61,-1.63,-1.56,-1.34,1.80,1.80,1.82
75.87,3.43,1.67,3.43,1.67,-1.67,-1.62,-1.40,1.76,1.76,1.76
76.63,3.43,1.72,3.43,1.73,-1.71,-1.69,-1.45,1.73,1.73,1.71
77.40,3.42,1.76,3.41,1.76,-1.74,-1.75,-1.51,1.68,1.67,1.66
78.17,3.39,1.79,3.38,1.78,-1.78,-1.81,-1.57,1.61,1.60,1.60
78.95,3.33,1.77,3.36,1.80,-1.82,-1.88,-1.63,1.52,1.54,1.56
79.74,3.33,1.82,3.34,1.83,-1.84,-1.94,-1.69,1.49,1.49,1.51
80.54,3.33,1.87,3.32,1.86,-1.86,-2.00,-1.75,1.47,1.46,1.46
81.35,3.30,1.89,3.30,1.89,-1.87,-2.07,-1.82,1.43,1.43,1.41
82.16,3.25,1.89,3.27,1.91,-1.88,-2.14,-1.88,1.37,1.39,1.36
82.98,3.23,1.91,3.21,1.90,-1.89,-2.20,-1.95,1.35,1.32,1.32
83.81,3.15,1.88,3.15,1.88,-1.89,-2.27,-2.02,1.26,1.26,1.27
84.65,3.07,1.85,3.09,1.87,-1.89,-2.34,-2.09,1.18,1.20,1.22
85.50,3.04,1.86,3.05,1.87,-1.89,-2.40,-2.17,1.16,1.16,1.18
86.35,3.03,1.90,3.02,1.90,-1.89,-2.47,-2.24,1.15,1.14,1.13
87.22,3.00,1.92,2.99,1.91,-1.89,-2.54,-2.32,1.11,1.10,1.08
88.09,2.94,1.91,2.94,1.91,-1.91,-2.61,-2.39,1.04,1.03,1.03
88.97,2.86,1.89,2.88,1.91,-1.93,-2.68,-2.47,0.93,0.95,0.97
89.86,2.85,1.93,2.85,1.93,-1.96,-2.75,-2.55,0.89,0.90,0.92
90.76,2.85,1.98,2.85,1.98,-1.99,-2.82,-2.64,0.86,0.86,0.87
91.66,2.86,2.04,2.86,2.04,-2.03,-2.89,-2.72,0.83,0.83,0.82
92.58,2.86,2.10,2.86,2.10,-2.07,-2.96,-2.81,0.79,0.79,0.76
93.51,2.86,2.15,2.86,2.15,-2.13,-3.03,-2.90,0.73,0.73,0.71
94.44,2.86,2.19,2.85,2.19,-2.20,-3.10,-2.99,0.67,0.66,0.67
95.39,2.85,2.23,2.87,2.25,-2.27,-3.17,-3.08,0.58,0.59,0.62
96.34,2.88,2.31,2.90,2.33,-2.35,-3.24,-3.17,0.53,0.55,0.57
97.30,2.97,2.45,2.95,2.43,-2.44,-3.32,-3.27,0.53,0.51,0.52
98.28,3.02,2.55,3.02,2.55,-2.54,-3.39,-3.36,0.48,0.48,0.47
99.26,3.08,2.65,3.10,2.68,-2.66,-3.46,-3.46,0.42,0.44,0.43
100.25,3.18,2.80,3.16,2.78,-2.78,-3.53,-3.56,0.40,0.38,0.38
101.25,3.24,2.91,3.23,2.91,-2.92,-3.60,-3.66,0.32,0.31,0.33
102.27,3.29,3.01,3.32,3.05,-3.06,-3.67,-3.76,0.23,0.26,0.28
103.29,3.42,3.19,3.42,3.19,-3.20,-3.75,-3.86,0.22,0.22,0.23
104.32,3.54,3.35,3.53,3.34,-3.33,-3.82,-3.96,0.21,0.19,0.19
105.37,3.62,3.48,3.63,3.49,-3.46,-3.89,-4.06,0.16,0.17,0.14
106.42,3.71,3.62,3.71,3.62,-3.59,-3.96,-4.16,0.12,0.11,0.09
107.48,3.77,3.74,3.77,3.73,-3.72,-4.03,-4.26,0.05,0.05,0.03
108.56,3.81,3.83,3.82,3.84,-3.84,-4.10,-4.36,-0.03,-0.02,-0.02
109.64,3.86,3.93,3.86,3.93,-3.95,-4.17,-4.45,-0.09,-0.10,-0.07
110.74,3.91,4.04,3.92,4.05,-4.06,-4.24,-4.55,-0.15,-0.14,-0.13
111.85,3.97,4.14,3.99,4.17,-4.18,-4.31,-4.64,-0.20,-0.18,-0.17
112.97,4.10,4.33,4.06,4.29,-4.29,-4.38,-4.73,-0.19,-0.23,-0.23
114.10,4.12,4.40,4.13,4.41,-4.41,-4.45,-4.82,-0.29,-0.28,-0.28
115.24,4.17,4.50,4.19,4.52,-4.53,-4.52,-4.90,-0.36,-0.35,-0.33
116.39,4.26,4.64,4.26,4.64,-4.65,-4.59,-4.99,-0.39,-0.40,-0.38
117.55,4.33,4.75,4.35,4.78,-4.77,-4.66,-5.06,-0.43,-0.41,-0.42
118.73,4.46,4.92,4.44,4.90,-4.87,-4.73,-5.13,-0.41,-0.44,-0.46
119.92,4.52,5.01,4.50,5.00,-4.98,-4.80,-5.20,-0.45,-0.47,-0.49
121.12,4.53,5.06,4.56,5.09,-5.07,-4.86,-5.26,-0.54,-0.52,-0.53
122.33,4.59,5.15,4.59,5.15,-5.16,-4.93,-5.32,-0.57,-0.57,-0.56
123.55,4.64,5.23,4.64,5.23,-5.25,-5.00,-5.37,-0.61,-0.61,-0.59
124.79,4.69,5.31,4.70,5.32,-5.33,-5.06,-5.42,-0.64,-0.63,-0.62
126.03,4.75,5.40,4.74,5.39,-5.40,-5.12,-5.46,-0.64,-0.65,-0.65
127.29,4.78,5.45,4.79,5.47,-5.46,-5.19,-5.50,-0.68,-0.67,-0.67
128.57,4.83,5.54,4.83,5.54,-5.52,-5.25,-5.53,-0.69,-0.69,-0.71
129.85,4.86,5.60,4.86,5.60,-5.58,-5.31,-5.56,-0.72,-0.73,-0.74
131.15,4.87,5.64,4.87,5.64,-5.64,-5.38,-5.58,-0.77,-0.77,-0.77
132.46,4.87,5.67,4.87,5.68,-5.70,-5.44,-5.60,-0.83,-0.83,-0.80
133.79,4.88,5.71,4.89,5.72,-5.75,-5.50,-5.61,-0.87,-0.86,-0.83
135.12,4.91,5.77,4.92,5.78,-5.80,-5.56,-5.62,-0.89,-0.88,-0.86
136.48,4.96,5.84,4.95,5.84,-5.83,-5.62,-5.63,-0.87,-0.88,-0.88
137.84,4.98,5.90,4.98,5.90,-5.86,-5.67,-5.63,-0.87,-0.88,-0.92
139.22,4.98,5.93,4.98,5.93,-5.87,-5.73,-5.63,-0.89,-0.89,-0.95
140.61,4.95,5.93,4.94,5.92,-5.88,-5.79,-5.63,-0.93,-0.94,-0.98
142.02,4.89,5.89,4.89,5.89,-5.89,-5.84,-5.63,-1.00,-1.00,-1.00
143.44,4.82,5.85,4.83,5.87,-5.90,-5.90,-5.63,-1.08,-1.07,-1.03
144.87,4.79,5.86,4.79,5.86,-5.92,-5.95,-5.63,-1.13,-1.13,-1.07
146.32,4.79,5.90,4.79,5.90,-5.95,-6.00,-5.62,-1.16,-1.16,-1.11
147.78,4.80,5.94,4.82,5.96,-5.99,-6.05,-5.62,-1.19,-1.17,-1.14
149.26,4.86,6.05,4.85,6.05,-6.05,-6.10,-5.62,-1.19,-1.20,-1.19
150.75,4.89,6.14,4.88,6.13,-6.13,-6.15,-5.62,-1.24,-1.25,-1.25
152.26,4.89,6.21,4.90,6.22,-6.22,-6.20,-5.62,-1.32,-1.32,-1.32
153.78,4.89,6.28,4.90,6.29,-6.30,-6.25,-5.63,-1.40,-1.40,-1.39
155.32,4.89,6.35,4.90,6.36,-6.36,-6.30,-5.64,-1.46,-1.46,-1.46
156.88,4.89,6.43,4.89,6.43,-6.39,-6.34,-5.64,-1.50,-1.50,-1.54
158.44,4.85,6.47,4.85,6.47,-6.39,-6.39,-5.66,-1.54,-1.54,-1.62
160.03,4.78,6.48,4.76,6.46,-6.37,-6.43,-5.67,-1.59,-1.61,-1.70
161.63,4.63,6.40,4.64,6.41,-6.34,-6.47,-5.69,-1.71,-1.71,-1.77
163.24,4.48,6.31,4.48,6.31,-6.32,-6.52,-5.71,-1.84,-1.84,-1.83
164.88,4.36,6.24,4.35,6.23,-6.32,-6.56,-5.74,-1.96,-1.97,-1.88
166.53,4.24,6.17,4.28,6.21,-6.34,-6.60,-5.77,-2.09,-2.06,-1.93
168.19,4.28,6.25,4.29,6.27,-6.38,-6.63,-5.80,-2.10,-2.09,-1.97
169.87,4.40,6.41,4.39,6.40,-6.46,-6.67,-5.84,-2.06,-2.07,-2.01
171.57,4.54,6.57,4.55,6.58,-6.56,-6.71,-5.88,-2.02,-2.02,-2.03
173.29,4.71,6.75,4.70,6.75,-6.68,-6.74,-5.93,-1.97,-1.98,-2.04
175.02,4.84,6.89,4.85,6.90,-6.82,-6.78,-5.98,-1.97,-1.97,-2.05
176.77,4.96,7.02,4.95,7.01,-6.95,-6.81,-6.04,-1.99,-2.00,-2.06
178.54,5.02,7.09,5.01,7.07,-7.06,-6.84,-6.10,-2.04,-2.05,-2.07
180.32,5.04,7.10,5.08,7.14,-7.15,-6.88,-6.16,-2.11,-2.08,-2.06
182.13,5.12,7.17,5.14,7.20,-7.22,-6.90,-6.23,-2.10,-2.08,-2.05
183.95,5.25,7.31,5.21,7.27,-7.27,-6.93,-6.30,-2.02,-2.06,-2.06
185.79,5.26,7.32,5.27,7.33,-7.31,-6.96,-6.38,-2.05,-2.05,-2.06
187.65,5.28,7.36,5.29,7.37,-7.35,-6.99,-6.47,-2.07,-2.06,-2.08
189.52,5.29,7.38,5.29,7.39,-7.39,-7.01,-6.55,-2.10,-2.10,-2.09
191.42,5.30,7.41,5.31,7.42,-7.43,-7.04,-6.64,-2.13,-2.12,-2.11
193.33,5.32,7.45,5.32,7.45,-7.47,-7.06,-6.74,-2.15,-2.15,-2.13
195.27,5.33,7.48,5.33,7.48,-7.51,-7.08,-6.84,-2.17,-2.18,-2.15
197.22,5.35,7.52,5.35,7.52,-7.54,-7.10,-6.94,-2.18,-2.19,-2.17
199.19,5.36,7.55,5.38,7.58,-7.57,-7.12,-7.05,-2.20,-2.18,-2.19
201.18,5.42,7.63,5.41,7.62,-7.60,-7.14,-7.16,-2.17,-2.19,-2.21
203.19,5.44,7.67,5.42,7.65,-7.62,-7.16,-7.27,-2.18,-2.21,-2.23
205.23,5.39,7.64,5.41,7.65,-7.65,-7.17,-7.38,-2.26,-2.24,-2.25
207.28,5.37,7.63,5.38,7.65,-7.67,-7.19,-7.50,-2.30,-2.29,-2.26
209.35,5.37,7.65,5.37,7.65,-7.69,-7.20,-7.62,-2.32,-2.32,-2.28
211.44,5.37,7.68,5.37,7.67,-7.70,-7.22,-7.73,-2.33,-2.33,-2.31
213.56,5.36,7.68,5.37,7.69,-7.69,-7.23,-7.85,-2.33,-2.32,-2.32
215.69,5.36,7.69,5.37,7.70,-7.67,-7.24,-7.97,-2.31,-2.30,-2.33
217.85,5.35,7.69,5.34,7.69,-7.63,-7.24,-8.08,-2.28,-2.29,-2.34
220.03,5.29,7.64,5.28,7.64,-7.57,-7.25,-8.19,-2.28,-2.29,-2.35
222.23,5.19,7.57,5.19,7.55,-7.51,-7.26,-8.30,-2.32,-2.33,-2.38
224.45,5.06,7.43,5.06,7.44,-7.44,-7.26,-8.41,-2.38,-2.38,-2.37
226.70,4.94,7.31,4.96,7.33,-7.38,-7.27,-8.50,-2.43,-2.42,-2.37
228.96,4.87,7.23,4.89,7.25,-7.32,-7.27,-8.59,-2.45,-2.43,-2.36
231.25,4.88,7.23,4.87,7.22,-7.28,-7.27,-8.67,-2.40,-2.41,-2.35
233.57,4.89,7.23,4.88,7.23,-7.26,-7.27,-8.75,-2.37,-2.37,-2.34
235.90,4.90,7.23,4.92,7.25,-7.25,-7.27,-8.81,-2.35,-2.33,-2.33
238.26,4.98,7.30,4.97,7.29,-7.27,-7.26,-8.86,-2.29,-2.30,-2.32
240.64,5.03,7.32,5.04,7.33,-7.30,-7.26,-8.90,-2.27,-2.26,-2.29
243.05,5.10,7.36,5.10,7.37,-7.33,-7.25,-8.92,-2.23,-2.23,-2.26
245.48,5.16,7.40,5.15,7.39,-7.38,-7.25,-8.93,-2.21,-2.22,-2.24
247.93,5.19,7.40,5.18,7.39,-7.42,-7.24,-8.93,-2.22,-2.24,-2.21
250.41,5.21,7.40,5.22,7.41,-7.45,-7.23,-8.91,-2.24,-2.22,-2.19
252.92,5.24,7.40,5.29,7.45,-7.48,-7.22,-8.88,-2.23,-2.19,-2.16
255.45,5.40,7.54,5.36,7.50,-7.50,-7.20,-8.82,-2.10,-2.14,-2.14
258.00,5.44,7.56,5.43,7.55,-7.51,-7.19,-8.76,-2.07,-2.09,-2.12
260.58,5.44,7.54,5.46,7.56,-7.52,-7.17,-8.68,-2.08,-2.06,-2.10
263.19,5.45,7.52,5.45,7.53,-7.52,-7.15,-8.59,-2.07,-2.07,-2.07
265.82,5.44,7.49,5.45,7.50,-7.51,-7.13,-8.49,-2.06,-2.06,-2.05
268.48,5.44,7.47,5.45,7.48,-7.48,-7.11,-8.37,-2.03,-2.02,-2.03
271.16,5.44,7.44,5.44,7.44,-7.43,-7.09,-8.25,-1.99,-1.99,-2.00
273.87,5.43,7.41,5.42,7.39,-7.37,-7.07,-8.11,-1.94,-1.96,-1.98
276.61,5.35,7.30,5.37,7.33,-7.31,-7.04,-7.97,-1.96,-1.94,-1.95
279.38,5.34,7.26,5.32,7.25,-7.26,-7.01,-7.82,-1.92,-1.94,-1.92
282.17,5.27,7.17,5.28,7.18,-7.22,-6.98,-7.66,-1.94,-1.94,-1.90
284.99,5.25,7.11,5.26,7.13,-7.17,-6.95,-7.50,-1.92,-1.91,-1.86
287.84,5.26,7.10,5.26,7.10,-7.13,-6.92,-7.33,-1.86,-1.87,-1.84
290.72,5.27,7.08,5.28,7.09,-7.08,-6.89,-7.16,-1.81,-1.81,-1.81
293.63,5.28,7.06,5.28,7.07,-7.03,-6.85,-6.99,-1.75,-1.75,-1.78
296.57,5.29,7.04,5.28,7.03,-6.99,-6.81,-6.82,-1.69,-1.70,-1.75
299.53,5.24,6.96,5.24,6.97,-6.93,-6.77,-6.64,-1.69,-1.69,-1.72
302.53,5.20,6.90,5.18,6.88,-6.88,-6.73,-6.47,-1.67,-1.69,-1.70
305.55,5.09,6.75,5.12,6.78,-6.81,-6.69,-6.29,-1.72,-1.69,-1.66
308.61,5.05,6.69,5.07,6.71,-6.74,-6.64,-6.12,-1.68,-1.66,-1.64
311.69,5.05,6.66,5.03,6.64,-6.66,-6.60,-5.95,-1.61,-1.63,-1.61
314.81,5.01,6.60,4.99,6.58,-6.59,-6.55,-5.78,-1.57,-1.60,-1.59
317.96,4.91,6.48,4.95,6.52,-6.51,-6.50,-5.61,-1.60,-1.57,-1.57
321.14,4.87,6.43,4.89,6.44,-6.44,-6.44,-5.44,-1.57,-1.56,-1.56
324.35,4.87,6.41,4.82,6.37,-6.37,-6.39,-5.28,-1.50,-1.55,-1.54
327.59,4.74,6.27,4.77,6.30,-6.29,-6.33,-5.11,-1.55,-1.52,-1.53
330.87,4.68,6.20,4.70,6.21,-6.20,-6.27,-4.96,-1.52,-1.51,-1.52
334.18,4.64,6.14,4.61,6.12,-6.11,-6.21,-4.80,-1.47,-1.50,-1.50
337.52,4.52,6.01,4.54,6.03,-6.02,-6.14,-4.64,-1.50,-1.48,-1.49
340.90,4.44,5.92,4.44,5.92,-5.92,-6.08,-4.49,-1.48,-1.48,-1.48
344.30,4.34,5.81,4.33,5.81,-5.82,-6.01,-4.34,-1.48,-1.49,-1.47
347.75,4.22,5.69,4.24,5.71,-5.72,-5.94,-4.20,-1.50,-1.48,-1.47
351.23,4.15,5.61,4.15,5.61,-5.62,-5.86,-4.06,-1.47,-1.48,-1.46
354.74,4.07,5.54,4.05,5.52,-5.53,-5.79,-3.92,-1.46,-1.48,-1.47
358.28,3.95,5.41,3.97,5.43,-5.44,-5.71,-3.78,-1.48,-1.47,-1.46
361.87,3.86,5.32,3.88,5.34,-5.34,-5.63,-3.65,-1.48,-1.46,-1.46
365.49,3.81,5.26,3.79,5.25,-5.24,-5.54,-3.51,-1.43,-1.45,-1.45
369.14,3.70,5.16,3.70,5.16,-5.14,-5.46,-3.39,-1.44,-1.44,-1.46
372.83,3.58,5.04,3.59,5.05,-5.03,-5.37,-3.26,-1.45,-1.44,-1.46
376.56,3.46,4.93,3.47,4.94,-4.92,-5.28,-3.14,-1.46,-1.45,-1.47
380.33,3.36,4.82,3.35,4.81,-4.80,-5.18,-3.02,-1.44,-1.46,-1.46
384.13,3.22,4.68,3.21,4.68,-4.69,-5.08,-2.90,-1.47,-1.48,-1.46
387.97,3.07,4.54,3.08,4.55,-4.59,-4.98,-2.78,-1.52,-1.51,-1.47
391.85,2.94,4.42,2.96,4.44,-4.49,-4.88,-2.67,-1.54,-1.52,-1.48
395.77,2.87,4.34,2.87,4.34,-4.38,-4.77,-2.56,-1.51,-1.52,-1.47
399.73,2.79,4.27,2.78,4.26,-4.27,-4.66,-2.45,-1.48,-1.49,-1.48
403.72,2.68,4.16,2.70,4.18,-4.14,-4.55,-2.35,-1.46,-1.45,-1.48
407.76,2.58,4.08,2.57,4.07,-4.00,-4.43,-2.24,-1.42,-1.43,-1.50
411.84,2.42,3.92,2.41,3.91,-3.84,-4.32,-2.14,-1.42,-1.43,-1.50
415.96,2.21,3.71,2.21,3.71,-3.66,-4.19,-2.05,-1.45,-1.45,-1.50
420.12,1.96,3.46,1.98,3.48,-3.47,-4.07,-1.95,-1.51,-1.49,-1.50
424.32,1.75,3.25,1.75,3.24,-3.26,-3.94,-1.86,-1.51,-1.52,-1.50
428.56,1.53,3.02,1.53,3.03,-3.06,-3.81,-1.77,-1.53,-1.53,-1.49
432.85,1.34,2.82,1.35,2.83,-2.87,-3.67,-1.68,-1.53,-1.52,-1.48
437.18,1.20,2.67,1.20,2.66,-2.71,-3.53,-1.59,-1.51,-1.51,-1.47
441.55,1.09,2.52,1.10,2.53,-2.57,-3.39,-1.51,-1.48,-1.48,-1.43
445.96,1.03,2.43,1.04,2.44,-2.46,-3.24,-1.43,-1.43,-1.43,-1.40
450.42,1.00,2.37,1.01,2.37,-2.38,-3.09,-1.35,-1.38,-1.38,-1.37
454.93,1.01,2.33,1.00,2.33,-2.32,-2.94,-1.27,-1.31,-1.32,-1.32
459.48,0.99,2.27,1.00,2.28,-2.27,-2.78,-1.20,-1.28,-1.27,-1.28
464.07,1.00,2.23,0.99,2.22,-2.22,-2.63,-1.13,-1.22,-1.23,-1.23
468.71,0.98,2.15,0.99,2.17,-2.16,-2.46,-1.06,-1.18,-1.17,-1.17
473.40,0.98,2.11,0.99,2.12,-2.09,-2.30,-1.00,-1.11,-1.10,-1.13
478.13,0.98,2.05,0.96,2.04,-2.00,-2.12,-0.94,-1.02,-1.04,-1.07
482.91,0.92,1.95,0.91,1.94,-1.90,-1.95,-0.88,-0.98,-0.99,-1.03
487.74,0.80,1.79,0.82,1.80,-1.79,-1.78,-0.82,-0.99,-0.97,-0.99
492.62,0.70,1.64,0.69,1.64,-1.67,-1.60,-0.77,-0.97,-0.98,-0.94
497.55,0.56,1.48,0.57,1.48,-1.54,-1.41,-0.72,-0.98,-0.97,-0.92
502.52,0.44,1.33,0.47,1.37,-1.40,-1.23,-0.67,-0.96,-0.93,-0.89
507.55,0.38,1.26,0.38,1.26,-1.26,-1.04,-0.63,-0.87,-0.88,-0.88
512.62,0.30,1.17,0.26,1.13,-1.11,-0.85,-0.59,-0.81,-0.85,-0.87
