frequency,raw,error,smoothed,error_smoothed,equalization,parametric_eq,fixed_band_eq,equalized_raw,equalized_smoothed,target
20.00,13.15,4.23,13.15,4.23,-4.23,-4.38,-2.19,8.92,8.93,8.93
20.20,13.17,4.25,13.17,4.25,-4.25,-4.38,-2.26,8.93,8.93,8.92
20.40,13.19,4.27,13.19,4.26,-4.26,-4.37,-2.32,8.93,8.92,8.92
20.61,13.20,4.28,13.20,4.28,-4.28,-4.37,-2.39,8.92,8.92,8.92
20.81,13.22,4.31,13.22,4.30,-4.30,-4.37,-2.46,8.92,8.92,8.91
21.02,13.24,4.33,13.24,4.32,-4.32,-4.37,-2.54,8.92,8.92,8.91
21.23,13.25,4.34,13.25,4.34,-4.34,-4.37,-2.61,8.91,8.91,8.91
21.44,13.26,4.34,13.27,4.36,-4.36,-4.37,-2.69,8.90,8.91,8.92
21.66,13.28,4.37,13.28,4.38,-4.38,-4.37,-2.77,8.91,8.90,8.91
21.87,13.29,4.38,13.30,4.39,-4.39,-4.37,-2.85,8.90,8.90,8.91
22.09,13.31,4.41,13.31,4.41,-4.41,-4.38,-2.93,8.90,8.90,8.90
22.31,13.32,4.43,13.32,4.43,-4.43,-4.38,-3.02,8.89,8.89,8.90
22.54,13.34,4.46,13.34,4.45,-4.45,-4.38,-3.11,8.89,8.89,8.88
22.76,13.35,4.47,13.35,4.47,-4.47,-4.39,-3.20,8.88,8.88,8.88
22.99,13.36,4.48,13.36,4.49,-4.49,-4.39,-3.29,8.87,8.88,8.88
23.22,13.38,4.51,13.38,4.51,-4.51,-4.40,-3.39,8.88,8.87,8.87
23.45,13.39,4.52,13.39,4.52,-4.52,-4.41,-3.48,8.87,8.87,8.87
23.69,13.40,4.54,13.40,4.54,-4.54,-4.41,-3.58,8.86,8.86,8.86
23.92,13.42,4.57,13.42,4.56,-4.56,-4.42,-3.68,8.86,8.85,8.85
24.16,13.43,4.59,13.43,4.58,-4.58,-4.43,-3.79,8.85,8.85,8.85
24.40,13.44,4.60,13.44,4.60,-4.60,-4.44,-3.89,8.85,8.85,8.84
24.65,13.45,4.61,13.45,4.61,-4.61,-4.45,-4.00,8.84,8.84,8.84
24.89,13.46,4.62,13.47,4.63,-4.63,-4.46,-4.11,8.83,8.84,8.84
25.14,13.47,4.63,13.48,4.64,-4.64,-4.47,-4.22,8.83,8.83,8.84
25.39,13.49,4.66,13.49,4.66,-4.66,-4.48,-4.33,8.83,8.83,8.83
25.65,13.50,4.68,13.51,4.68,-4.68,-4.49,-4.44,8.83,8.83,8.83
25.91,13.52,4.70,13.52,4.69,-4.69,-4.51,-4.55,8.83,8.83,8.82
26.16,13.53,4.70,13.53,4.70,-4.70,-4.52,-4.66,8.83,8.83,8.83
26.43,13.55,4.72,13.55,4.72,-4.72,-4.53,-4.78,8.83,8.83,8.83
26.69,13.56,4.73,13.56,4.73,-4.73,-4.55,-4.89,8.83,8.83,8.83
26.96,13.57,4.75,13.57,4.75,-4.75,-4.56,-5.00,8.82,8.82,8.82
27.23,13.59,4.77,13.59,4.76,-4.76,-4.58,-5.10,8.83,8.82,8.82
27.50,13.59,4.77,13.60,4.78,-4.78,-4.59,-5.21,8.81,8.82,8.82
27.77,13.61,4.78,13.61,4.79,-4.79,-4.61,-5.31,8.82,8.82,8.83
28.05,13.62,4.81,13.62,4.81,-4.81,-4.62,-5.41,8.81,8.81,8.81
28.33,13.63,4.82,13.63,4.82,-4.82,-4.64,-5.51,8.81,8.81,8.81
28.62,13.64,4.84,13.64,4.84,-4.84,-4.66,-5.60,8.80,8.80,8.80
28.90,13.65,4.85,13.65,4.85,-4.85,-4.67,-5.68,8.80,8.80,8.81
29.19,13.66,4.87,13.66,4.87,-4.87,-4.69,-5.76,8.80,8.79,8.79
29.48,13.66,4.88,13.66,4.88,-4.88,-4.71,-5.83,8.78,8.78,8.78
29.78,13.67,4.89,13.67,4.89,-4.89,-4.73,-5.90,8.78,8.78,8.78
30.08,13.67,4.90,13.67,4.90,-4.90,-4.75,-5.95,8.77,8.77,8.77
30.38,13.67,4.91,13.68,4.91,-4.91,-4.76,-6.00,8.76,8.77,8.76
30.68,13.68,4.93,13.68,4.92,-4.92,-4.78,-6.05,8.76,8.76,8.76
30.99,13.68,4.93,13.68,4.92,-4.92,-4.80,-6.08,8.76,8.76,8.75
31.30,13.68,4.93,13.68,4.93,-4.93,-4.82,-6.10,8.75,8.75,8.75
31.61,13.68,4.94,13.68,4.93,-4.93,-4.84,-6.12,8.75,8.75,8.74
31.93,13.68,4.94,13.68,4.94,-4.94,-4.86,-6.13,8.75,8.74,8.74
32.24,13.68,4.94,13.68,4.94,-4.94,-4.87,-6.13,8.74,8.74,8.74
32.57,13.68,4.95,13.68,4.94,-4.94,-4.89,-6.12,8.74,8.74,8.73
32.89,13.67,4.94,13.68,4.95,-4.95,-4.91,-6.10,8.73,8.73,8.73
33.22,13.67,4.94,13.67,4.95,-4.95,-4.93,-6.08,8.72,8.72,8.73
33.55,13.66,4.94,13.67,4.95,-4.95,-4.95,-6.05,8.71,8.72,8.72
33.89,13.66,4.95,13.67,4.96,-4.96,-4.96,-6.01,8.70,8.71,8.71
34.23,13.66,4.97,13.66,4.96,-4.96,-4.98,-5.97,8.70,8.69,8.69
34.57,13.66,4.97,13.65,4.97,-4.97,-5.00,-5.92,8.69,8.68,8.69
34.92,13.65,4.99,13.65,4.98,-4.98,-5.01,-5.87,8.67,8.66,8.66
35.27,13.64,4.99,13.64,5.00,-5.00,-5.03,-5.82,8.65,8.64,8.65
35.62,13.63,5.01,13.63,5.01,-5.01,-5.05,-5.76,8.62,8.62,8.62
35.97,13.61,5.01,13.62,5.02,-5.02,-5.06,-5.70,8.59,8.59,8.60
36.33,13.60,5.03,13.61,5.04,-5.04,-5.07,-5.64,8.56,8.57,8.57
36.70,13.59,5.06,13.59,5.06,-5.06,-5.09,-5.57,8.53,8.54,8.54
37.06,13.58,5.07,13.58,5.07,-5.07,-5.10,-5.51,8.51,8.51,8.51
37.43,13.56,5.09,13.57,5.09,-5.09,-5.11,-5.44,8.47,8.48,8.47
37.81,13.55,5.11,13.55,5.11,-5.11,-5.13,-5.38,8.45,8.44,8.44
38.19,13.53,5.13,13.53,5.12,-5.12,-5.14,-5.32,8.41,8.41,8.40
38.57,13.51,5.14,13.51,5.13,-5.13,-5.15,-5.25,8.38,8.38,8.37
38.95,13.49,5.15,13.49,5.15,-5.15,-5.16,-5.19,8.35,8.34,8.34
39.34,13.47,5.17,13.47,5.16,-5.16,-5.17,-5.13,8.31,8.31,8.31
39.74,13.45,5.18,13.45,5.17,-5.17,-5.17,-5.08,8.29,8.28,8.28
40.14,13.42,5.18,13.42,5.17,-5.17,-5.18,-5.02,8.25,8.25,8.24
40.54,13.39,5.17,13.40,5.18,-5.18,-5.19,-4.97,8.21,8.22,8.22
40.94,13.37,5.18,13.37,5.18,-5.18,-5.19,-4.92,8.19,8.19,8.19
41.35,13.34,5.18,13.34,5.18,-5.18,-5.20,-4.88,8.16,8.16,8.16
41.76,13.31,5.18,13.31,5.18,-5.18,-5.20,-4.83,8.14,8.14,8.13
42.18,13.28,5.17,13.28,5.17,-5.17,-5.20,-4.79,8.11,8.11,8.12
42.60,13.24,5.16,13.25,5.17,-5.17,-5.20,-4.76,8.07,8.08,8.08
43.03,13.22,5.17,13.22,5.16,-5.16,-5.20,-4.72,8.06,8.06,8.05
43.46,13.18,5.16,13.18,5.15,-5.15,-5.20,-4.70,8.03,8.03,8.03
43.90,13.15,5.15,13.14,5.14,-5.14,-5.20,-4.67,8.01,8.00,8.00
44.33,13.10,5.14,13.11,5.14,-5.14,-5.19,-4.65,7.97,7.97,7.97
44.78,13.06,5.12,13.07,5.13,-5.13,-5.19,-4.63,7.94,7.94,7.94
45.23,13.02,5.10,13.02,5.12,-5.12,-5.18,-4.61,7.91,7.91,7.92
45.68,12.98,5.10,12.98,5.11,-5.11,-5.18,-4.60,7.87,7.87,7.88
46.13,12.94,5.11,12.93,5.10,-5.10,-5.17,-4.59,7.84,7.84,7.83
46.60,12.88,5.08,12.89,5.09,-5.09,-5.16,-4.59,7.79,7.80,7.80
47.06,12.84,5.08,12.84,5.08,-5.08,-5.15,-4.59,7.76,7.76,7.76
47.53,12.79,5.07,12.79,5.08,-5.08,-5.14,-4.59,7.72,7.71,7.72
48.01,12.73,5.07,12.73,5.07,-5.07,-5.13,-4.60,7.66,7.67,7.66
48.49,12.68,5.06,12.68,5.06,-5.06,-5.11,-4.60,7.62,7.62,7.62
48.97,12.62,5.05,12.62,5.05,-5.05,-5.10,-4.61,7.57,7.57,7.57
49.46,12.56,5.03,12.57,5.04,-5.04,-5.08,-4.63,7.52,7.52,7.53
49.96,12.51,5.05,12.51,5.03,-5.03,-5.06,-4.64,7.48,7.47,7.46
50.46,12.44,5.03,12.45,5.03,-5.03,-5.04,-4.66,7.42,7.42,7.41
50.96,12.38,5.02,12.38,5.01,-5.01,-5.02,-4.68,7.37,7.37,7.36
51.47,12.32,5.01,12.32,5.00,-5.00,-5.00,-4.70,7.32,7.32,7.31
51.99,12.25,4.99,12.25,4.99,-4.99,-4.98,-4.73,7.26,7.26,7.26
52.51,12.19,4.98,12.18,4.97,-4.97,-4.96,-4.75,7.22,7.21,7.21
53.03,12.11,4.94,12.11,4.96,-4.96,-4.94,-4.78,7.16,7.16,7.17
53.56,12.04,4.93,12.04,4.94,-4.94,-4.91,-4.80,7.10,7.11,7.12
54.10,11.97,4.92,11.97,4.92,-4.92,-4.89,-4.83,7.06,7.06,7.06
54.64,11.89,4.89,11.90,4.89,-4.89,-4.86,-4.85,7.00,7.00,7.01
55.18,11.82,4.88,11.82,4.86,-4.86,-4.83,-4.88,6.96,6.96,6.94
55.74,11.74,4.85,11.74,4.83,-4.83,-4.80,-4.90,6.91,6.91,6.89
56.29,11.66,4.81,11.66,4.81,-4.81,-4.77,-4.92,6.85,6.86,6.85
56.86,11.58,4.78,11.58,4.78,-4.78,-4.74,-4.94,6.80,6.81,6.80
57.42,11.50,4.76,11.50,4.75,-4.75,-4.71,-4.96,6.75,6.75,6.74
58.00,11.42,4.73,11.42,4.72,-4.72,-4.68,-4.97,6.70,6.70,6.69
58.58,11.34,4.69,11.34,4.69,-4.69,-4.65,-4.98,6.65,6.64,6.65
59.16,11.25,4.65,11.25,4.67,-4.67,-4.62,-4.99,6.58,6.58,6.60
59.76,11.16,4.61,11.16,4.64,-4.64,-4.58,-4.99,6.52,6.52,6.55
60.35,11.07,4.59,11.08,4.61,-4.61,-4.55,-4.99,6.46,6.46,6.48
60.96,10.99,4.57,10.99,4.59,-4.59,-4.51,-4.99,6.41,6.40,6.42
61.57,10.90,4.56,10.90,4.56,-4.56,-4.48,-4.98,6.35,6.34,6.34
62.18,10.80,4.54,10.81,4.53,-4.53,-4.44,-4.96,6.27,6.28,6.26
62.80,10.71,4.51,10.71,4.50,-4.50,-4.41,-4.94,6.21,6.21,6.20
63.43,10.62,4.50,10.62,4.47,-4.47,-4.37,-4.92,6.15,6.14,6.12
64.07,10.52,4.46,10.52,4.44,-4.44,-4.33,-4.89,6.08,6.08,6.06
64.71,10.43,4.43,10.43,4.41,-4.41,-4.30,-4.85,6.02,6.01,6.00
65.35,10.32,4.38,10.33,4.38,-4.38,-4.26,-4.81,5.94,5.94,5.94
66.01,10.23,4.35,10.23,4.35,-4.35,-4.22,-4.77,5.88,5.88,5.88
66.67,10.13,4.30,10.13,4.32,-4.32,-4.18,-4.72,5.82,5.81,5.83
67.33,10.02,4.27,10.03,4.28,-4.28,-4.14,-4.67,5.74,5.75,5.75
68.01,9.92,4.24,9.93,4.24,-4.24,-4.10,-4.61,5.68,5.68,5.69
68.69,9.82,4.20,9.82,4.20,-4.20,-4.07,-4.55,5.62,5.62,5.62
69.37,9.72,4.16,9.72,4.16,-4.16,-4.03,-4.49,5.56,5.56,5.56
70.07,9.62,4.12,9.62,4.13,-4.13,-3.99,-4.43,5.50,5.49,5.50
70.77,9.51,4.08,9.51,4.09,-4.09,-3.95,-4.36,5.42,5.42,5.43
71.48,9.41,4.05,9.40,4.05,-4.05,-3.91,-4.29,5.36,5.35,5.36
72.19,9.29,4.01,9.30,4.01,-4.01,-3.87,-4.22,5.28,5.29,5.28
72.91,9.19,3.97,9.19,3.97,-3.97,-3.83,-4.15,5.22,5.22,5.22
73.64,9.08,3.94,9.08,3.93,-3.93,-3.79,-4.08,5.15,5.15,5.14
74.38,8.97,3.90,8.98,3.89,-3.89,-3.75,-4.01,5.08,5.08,5.07
75.12,8.87,3.87,8.87,3.85,-3.85,-3.71,-3.94,5.02,5.02,5.01
75.87,8.76,3.81,8.76,3.81,-3.81,-3.67,-3.87,4.95,4.95,4.96
76.63,8.65,3.77,8.65,3.76,-3.76,-3.63,-3.79,4.89,4.89,4.88
77.40,8.54,3.72,8.54,3.72,-3.72,-3.60,-3.73,4.82,4.82,4.82
78.17,8.43,3.68,8.43,3.67,-3.67,-3.56,-3.66,4.76,4.76,4.75
78.95,8.32,3.62,8.32,3.63,-3.63,-3.52,-3.59,4.69,4.69,4.70
79.74,8.21,3.57,8.21,3.58,-3.58,-3.48,-3.52,4.63,4.63,4.64
80.54,8.10,3.53,8.10,3.53,-3.53,-3.44,-3.46,4.57,4.57,4.57
81.35,7.99,3.48,7.99,3.49,-3.49,-3.41,-3.40,4.51,4.51,4.51
82.16,7.88,3.43,7.88,3.44,-3.44,-3.37,-3.33,4.44,4.44,4.45
82.98,7.77,3.39,7.77,3.39,-3.39,-3.33,-3.27,4.38,4.38,4.38
83.81,7.66,3.34,7.66,3.34,-3.34,-3.29,-3.22,4.32,4.32,4.32
84.65,7.55,3.31,7.55,3.29,-3.29,-3.26,-3.16,4.26,4.25,4.24
85.50,7.43,3.25,7.43,3.24,-3.24,-3.22,-3.11,4.19,4.19,4.18
86.35,7.32,3.20,7.32,3.20,-3.20,-3.19,-3.06,4.12,4.12,4.13
87.22,7.20,3.14,7.21,3.15,-3.15,-3.15,-3.01,4.05,4.06,4.06
88.09,7.10,3.11,7.10,3.11,-3.11,-3.12,-2.96,4.00,3.99,3.99
88.97,6.98,3.06,6.99,3.06,-3.06,-3.08,-2.92,3.92,3.93,3.93
89.86,6.87,3.01,6.87,3.02,-3.02,-3.05,-2.88,3.85,3.86,3.86
90.76,6.76,2.97,6.76,2.98,-2.98,-3.01,-2.84,3.79,3.79,3.79
91.66,6.65,2.93,6.65,2.94,-2.94,-2.98,-2.80,3.71,3.71,3.72
92.58,6.54,2.89,6.54,2.90,-2.90,-2.95,-2.77,3.64,3.64,3.65
93.51,6.43,2.86,6.43,2.86,-2.86,-2.92,-2.73,3.57,3.57,3.58
94.44,6.32,2.82,6.32,2.83,-2.83,-2.88,-2.70,3.49,3.49,3.50
95.39,6.21,2.79,6.21,2.80,-2.80,-2.85,-2.67,3.41,3.41,3.42
96.34,6.10,2.76,6.10,2.76,-2.76,-2.82,-2.64,3.34,3.34,3.34
97.30,5.99,2.73,5.99,2.73,-2.73,-2.79,-2.62,3.26,3.26,3.26
98.28,5.88,2.71,5.88,2.70,-2.70,-2.76,-2.60,3.18,3.18,3.17
99.26,5.77,2.69,5.77,2.67,-2.67,-2.73,-2.57,3.10,3.10,3.09
100.25,5.66,2.65,5.66,2.64,-2.64,-2.70,-2.55,3.02,3.02,3.01
101.25,5.55,2.61,5.55,2.61,-2.61,-2.67,-2.54,2.94,2.94,2.94
102.27,5.44,2.58,5.44,2.57,-2.57,-2.65,-2.52,2.87,2.87,2.86
103.29,5.33,2.55,5.33,2.54,-2.54,-2.62,-2.50,2.79,2.79,2.79
104.32,5.22,2.50,5.23,2.51,-2.51,-2.59,-2.49,2.71,2.72,2.72
105.37,5.12,2.48,5.12,2.47,-2.47,-2.57,-2.48,2.65,2.65,2.65
106.42,5.01,2.43,5.01,2.44,-2.44,-2.54,-2.46,2.58,2.57,2.58
107.48,4.90,2.41,4.90,2.40,-2.40,-2.52,-2.45,2.50,2.50,2.49
108.56,4.80,2.37,4.80,2.37,-2.37,-2.49,-2.44,2.44,2.43,2.43
109.64,4.69,2.33,4.69,2.33,-2.33,-2.47,-2.43,2.36,2.36,2.36
110.74,4.58,2.29,4.58,2.30,-2.30,-2.44,-2.42,2.28,2.28,2.29
111.85,4.48,2.27,4.48,2.27,-2.27,-2.42,-2.41,2.21,2.21,2.21
112.97,4.38,2.24,4.37,2.24,-2.24,-2.40,-2.40,2.14,2.13,2.14
114.10,4.27,2.21,4.27,2.21,-2.21,-2.38,-2.40,2.06,2.05,2.07
115.24,4.16,2.18,4.17,2.19,-2.19,-2.35,-2.39,1.97,1.98,1.98
116.39,4.06,2.17,4.07,2.17,-2.17,-2.33,-2.38,1.89,1.90,1.89
117.55,3.96,2.14,3.96,2.15,-2.15,-2.31,-2.37,1.81,1.82,1.82
118.73,3.86,2.14,3.87,2.13,-2.13,-2.29,-2.36,1.73,1.73,1.72
119.92,3.76,2.12,3.77,2.12,-2.12,-2.27,-2.35,1.64,1.65,1.64
121.12,3.67,2.10,3.67,2.11,-2.11,-2.26,-2.34,1.57,1.57,1.57
122.33,3.57,2.09,3.58,2.10,-2.10,-2.24,-2.33,1.47,1.48,1.48
123.55,3.49,2.09,3.48,2.09,-2.09,-2.22,-2.32,1.40,1.39,1.40
124.79,3.40,2.08,3.39,2.08,-2.08,-2.20,-2.30,1.32,1.31,1.32
126.03,3.30,2.07,3.30,2.08,-2.08,-2.19,-2.29,1.22,1.22,1.24
127.29,3.22,2.08,3.21,2.08,-2.08,-2.17,-2.28,1.15,1.14,1.14
128.57,3.13,2.08,3.13,2.07,-2.07,-2.16,-2.26,1.06,1.05,1.05
129.85,3.04,2.07,3.04,2.07,-2.07,-2.14,-2.25,0.97,0.97,0.97
131.15,2.96,2.08,2.96,2.07,-2.07,-2.13,-2.23,0.89,0.89,0.88
132.46,2.87,2.07,2.88,2.07,-2.07,-2.12,-2.21,0.80,0.81,0.80
133.79,2.79,2.06,2.80,2.07,-2.07,-2.10,-2.20,0.72,0.73,0.73
135.12,2.72,2.07,2.73,2.07,-2.07,-2.09,-2.18,0.65,0.66,0.65
136.48,2.64,2.06,2.65,2.07,-2.07,-2.08,-2.16,0.58,0.59,0.59
137.84,2.58,2.06,2.58,2.06,-2.06,-2.07,-2.14,0.52,0.51,0.52
139.22,2.51,2.07,2.51,2.06,-2.06,-2.06,-2.12,0.45,0.45,0.44
140.61,2.43,2.05,2.44,2.06,-2.06,-2.05,-2.10,0.37,0.38,0.38
142.02,2.37,2.05,2.37,2.05,-2.05,-2.04,-2.08,0.32,0.32,0.32
143.44,2.31,2.06,2.30,2.05,-2.05,-2.03,-2.07,0.26,0.26,0.25
144.87,2.24,2.04,2.24,2.04,-2.04,-2.02,-2.05,0.20,0.19,0.20
146.32,2.18,2.04,2.18,2.04,-2.04,-2.01,-2.03,0.14,0.14,0.14
147.78,2.12,2.04,2.11,2.04,-2.04,-2.00,-2.01,0.09,0.08,0.08
149.26,2.05,2.03,2.05,2.03,-2.03,-2.00,-1.99,0.02,0.02,0.02
150.75,1.98,2.03,1.99,2.03,-2.03,-1.99,-1.98,-0.05,-0.04,-0.05
152.26,1.93,2.03,1.93,2.03,-2.03,-1.99,-1.96,-0.10,-0.10,-0.10
153.78,1.86,2.02,1.87,2.03,-2.03,-1.98,-1.95,-0.17,-0.16,-0.16
155.32,1.81,2.03,1.81,2.03,-2.03,-1.98,-1.93,-0.22,-0.22,-0.22
156.88,1.75,2.03,1.75,2.04,-2.04,-1.97,-1.92,-0.28,-0.28,-0.28
158.44,1.69,2.03,1.70,2.04,-2.04,-1.97,-1.91,-0.35,-0.34,-0.34
160.03,1.64,2.04,1.64,2.04,-2.04,-1.96,-1.90,-0.40,-0.40,-0.40
161.63,1.58,2.04,1.58,2.05,-2.05,-1.96,-1.89,-0.47,-0.47,-0.46
163.24,1.53,2.07,1.53,2.06,-2.06,-1.96,-1.88,-0.53,-0.53,-0.54
164.88,1.48,2.07,1.48,2.07,-2.07,-1.96,-1.87,-0.59,-0.59,-0.59
166.53,1.43,2.09,1.42,2.08,-2.08,-1.95,-1.87,-0.65,-0.65,-0.66
168.19,1.37,2.08,1.37,2.09,-2.09,-1.95,-1.86,-0.72,-0.71,-0.71
169.87,1.32,2.09,1.32,2.10,-2.10,-1.95,-1.86,-0.78,-0.78,-0.77
171.57,1.26,2.11,1.27,2.11,-2.11,-1.95,-1.86,-0.85,-0.84,-0.84
173.29,1.22,2.13,1.22,2.12,-2.12,-1.95,-1.86,-0.90,-0.90,-0.90
175.02,1.16,2.12,1.17,2.13,-2.13,-1.95,-1.86,-0.97,-0.96,-0.96
176.77,1.12,2.14,1.12,2.13,-2.13,-1.95,-1.86,-1.01,-1.02,-1.02
178.54,1.06,2.14,1.06,2.14,-2.14,-1.95,-1.87,-1.08,-1.08,-1.08
180.32,1.02,2.16,1.01,2.15,-2.15,-1.95,-1.87,-1.13,-1.14,-1.14
182.13,0.96,2.16,0.96,2.15,-2.15,-1.96,-1.88,-1.19,-1.19,-1.19
183.95,0.91,2.16,0.91,2.16,-2.16,-1.96,-1.89,-1.25,-1.25,-1.25
185.79,0.86,2.17,0.85,2.16,-2.16,-1.96,-1.90,-1.30,-1.31,-1.31
187.65,0.80,2.16,0.80,2.17,-2.17,-1.96,-1.91,-1.37,-1.37,-1.36
189.52,0.74,2.16,0.75,2.17,-2.17,-1.96,-1.92,-1.43,-1.42,-1.42
191.42,0.69,2.17,0.69,2.17,-2.17,-1.97,-1.93,-1.48,-1.48,-1.48
193.33,0.64,2.17,0.64,2.17,-2.17,-1.97,-1.95,-1.53,-1.53,-1.53
195.27,0.58,2.17,0.59,2.17,-2.17,-1.97,-1.96,-1.59,-1.58,-1.59
197.22,0.54,2.18,0.54,2.17,-2.17,-1.98,-1.98,-1.63,-1.63,-1.64
199.19,0.48,2.17,0.49,2.17,-2.17,-1.98,-1.99,-1.69,-1.68,-1.69
201.18,0.43,2.17,0.43,2.17,-2.17,-1.98,-2.01,-1.73,-1.73,-1.74
203.19,0.39,2.17,0.39,2.16,-2.16,-1.99,-2.03,-1.77,-1.78,-1.78
205.23,0.33,2.15,0.34,2.16,-2.16,-1.99,-2.05,-1.83,-1.83,-1.82
207.28,0.29,2.15,0.29,2.16,-2.16,-2.00,-2.07,-1.87,-1.87,-1.86
209.35,0.24,2.15,0.24,2.16,-2.16,-2.00,-2.09,-1.91,-1.91,-1.91
211.44,0.19,2.14,0.20,2.15,-2.15,-2.00,-2.11,-1.96,-1.95,-1.95
213.56,0.15,2.15,0.15,2.14,-2.14,-2.01,-2.13,-1.99,-1.99,-2.00
215.69,0.11,2.14,0.11,2.14,-2.14,-2.01,-2.15,-2.03,-2.03,-2.03
217.85,0.06,2.13,0.06,2.13,-2.13,-2.02,-2.17,-2.07,-2.07,-2.07
220.03,0.02,2.13,0.02,2.13,-2.13,-2.02,-2.18,-2.10,-2.11,-2.11
222.23,-0.02,2.13,-0.02,2.12,-2.12,-2.02,-2.20,-2.14,-2.14,-2.15
224.45,-0.06,2.12,-0.06,2.12,-2.12,-2.03,-2.22,-2.17,-2.18,-2.18
226.70,-0.11,2.10,-0.10,2.11,-2.11,-2.03,-2.23,-2.22,-2.21,-2.21
228.96,-0.14,2.09,-0.14,2.10,-2.10,-2.03,-2.25,-2.24,-2.24,-2.23
231.25,-0.17,2.09,-0.18,2.10,-2.10,-2.04,-2.26,-2.26,-2.27,-2.26
233.57,-0.22,2.07,-0.21,2.09,-2.09,-2.04,-2.27,-2.31,-2.30,-2.29
235.90,-0.25,2.08,-0.25,2.08,-2.08,-2.04,-2.28,-2.33,-2.33,-2.33
238.26,-0.28,2.08,-0.28,2.07,-2.07,-2.05,-2.29,-2.35,-2.35,-2.36
240.64,-0.32,2.05,-0.32,2.06,-2.06,-2.05,-2.29,-2.38,-2.37,-2.37
243.05,-0.34,2.06,-0.35,2.05,-2.05,-2.05,-2.30,-2.39,-2.40,-2.40
245.48,-0.38,2.05,-0.38,2.04,-2.04,-2.05,-2.30,-2.42,-2.42,-2.42
247.93,-0.42,2.03,-0.41,2.03,-2.03,-2.05,-2.29,-2.45,-2.44,-2.45
250.41,-0.44,2.02,-0.44,2.02,-2.02,-2.05,-2.29,-2.46,-2.46,-2.46
252.92,-0.47,2.00,-0.47,2.01,-2.01,-2.05,-2.28,-2.48,-2.48,-2.47
255.45,-0.50,2.00,-0.50,2.00,-2.00,-2.05,-2.27,-2.50,-2.50,-2.50
258.00,-0.53,1.98,-0.52,1.99,-1.99,-2.05,-2.26,-2.52,-2.51,-2.51
260.58,-0.55,1.98,-0.55,1.98,-1.98,-2.05,-2.25,-2.53,-2.53,-2.52
263.19,-0.58,1.97,-0.58,1.97,-1.97,-2.05,-2.23,-2.55,-2.55,-2.55
265.82,-0.60,1.96,-0.60,1.96,-1.96,-2.05,-2.21,-2.56,-2.56,-2.56
268.48,-0.63,1.94,-0.63,1.95,-1.95,-2.04,-2.19,-2.58,-2.58,-2.57
271.16,-0.65,1.95,-0.65,1.94,-1.94,-2.04,-2.17,-2.59,-2.59,-2.59
273.87,-0.68,1.93,-0.68,1.93,-1.93,-2.04,-2.14,-2.61,-2.61,-2.61
276.61,-0.70,1.93,-0.70,1.92,-1.92,-2.03,-2.12,-2.62,-2.62,-2.63
279.38,-0.73,1.92,-0.72,1.91,-1.91,-2.03,-2.09,-2.64,-2.64,-2.65
282.17,-0.75,1.91,-0.75,1.90,-1.90,-2.02,-2.06,-2.65,-2.65,-2.66
284.99,-0.78,1.88,-0.77,1.89,-1.89,-2.01,-2.03,-2.67,-2.66,-2.66
287.84,-0.80,1.87,-0.79,1.88,-1.88,-2.01,-2.00,-2.68,-2.67,-2.67
290.72,-0.81,1.89,-0.81,1.87,-1.87,-2.00,-1.97,-2.68,-2.68,-2.70
293.63,-0.83,1.87,-0.83,1.86,-1.86,-1.99,-1.94,-2.69,-2.70,-2.69
296.57,-0.85,1.85,-0.85,1.85,-1.85,-1.98,-1.91,-2.70,-2.70,-2.70
299.53,-0.87,1.84,-0.87,1.84,-1.84,-1.97,-1.87,-2.71,-2.71,-2.71
302.53,-0.90,1.82,-0.89,1.83,-1.83,-1.96,-1.84,-2.73,-2.72,-2.72
305.55,-0.91,1.82,-0.91,1.82,-1.82,-1.95,-1.81,-2.73,-2.73,-2.73
308.61,-0.93,1.80,-0.93,1.81,-1.81,-1.94,-1.78,-2.74,-2.73,-2.73
311.69,-0.95,1.79,-0.94,1.80,-1.80,-1.93,-1.75,-2.74,-2.74,-2.74
314.81,-0.96,1.79,-0.96,1.78,-1.78,-1.92,-1.72,-2.74,-2.74,-2.75
317.96,-0.98,1.77,-0.98,1.77,-1.77,-1.91,-1.69,-2.75,-2.75,-2.75
321.14,-0.99,1.76,-0.99,1.76,-1.76,-1.89,-1.66,-2.75,-2.75,-2.75
324.35,-1.01,1.76,-1.01,1.75,-1.75,-1.88,-1.63,-2.75,-2.76,-2.77
327.59,-1.03,1.72,-1.03,1.73,-1.73,-1.86,-1.60,-2.76,-2.76,-2.75
330.87,-1.04,1.72,-1.04,1.72,-1.72,-1.85,-1.58,-2.76,-2.76,-2.76
334.18,-1.05,1.72,-1.06,1.71,-1.71,-1.83,-1.55,-2.76,-2.77,-2.77
337.52,-1.08,1.69,-1.07,1.69,-1.69,-1.82,-1.53,-2.77,-2.77,-2.77
340.90,-1.09,1.68,-1.09,1.68,-1.68,-1.80,-1.50,-2.77,-2.77,-2.77
344.30,-1.11,1.66,-1.10,1.66,-1.66,-1.78,-1.48,-2.77,-2.77,-2.77
347.75,-1.12,1.64,-1.12,1.65,-1.65,-1.77,-1.46,-2.77,-2.77,-2.76
351.23,-1.13,1.65,-1.13,1.64,-1.64,-1.75,-1.44,-2.77,-2.77,-2.78
354.74,-1.15,1.61,-1.15,1.62,-1.62,-1.73,-1.42,-2.77,-2.77,-2.76
358.28,-1.17,1.61,-1.16,1.61,-1.61,-1.71,-1.40,-2.78,-2.77,-2.77
361.87,-1.17,1.60,-1.17,1.60,-1.60,-1.69,-1.38,-2.77,-2.77,-2.77
365.49,-1.19,1.58,-1.19,1.59,-1.59,-1.67,-1.37,-2.77,-2.77,-2.77
369.14,-1.20,1.57,-1.20,1.57,-1.57,-1.65,-1.35,-2.77,-2.77,-2.77
372.83,-1.21,1.56,-1.21,1.56,-1.56,-1.63,-1.34,-2.77,-2.77,-2.77
376.56,-1.22,1.55,-1.22,1.55,-1.55,-1.61,-1.32,-2.77,-2.77,-2.77
380.33,-1.23,1.55,-1.24,1.54,-1.54,-1.59,-1.31,-2.77,-2.77,-2.78
384.13,-1.25,1.53,-1.25,1.53,-1.53,-1.57,-1.30,-2.78,-2.77,-2.78
387.97,-1.26,1.51,-1.26,1.52,-1.52,-1.55,-1.29,-2.77,-2.77,-2.77
391.85,-1.28,1.50,-1.27,1.50,-1.50,-1.53,-1.28,-2.78,-2.77,-2.78
395.77,-1.29,1.49,-1.28,1.49,-1.49,-1.51,-1.27,-2.78,-2.78,-2.78
399.73,-1.30,1.48,-1.29,1.48,-1.48,-1.48,-1.26,-2.78,-2.78,-2.78
403.72,-1.31,1.46,-1.31,1.47,-1.47,-1.46,-1.26,-2.78,-2.78,-2.77
407.76,-1.32,1.46,-1.32,1.46,-1.46,-1.44,-1.25,-2.78,-2.78,-2.78
411.84,-1.33,1.45,-1.33,1.45,-1.45,-1.42,-1.25,-2.78,-2.78,-2.78
415.96,-1.34,1.43,-1.34,1.44,-1.44,-1.39,-1.24,-2.77,-2.78,-2.77
420.12,-1.35,1.43,-1.36,1.42,-1.42,-1.37,-1.24,-2.77,-2.78,-2.78
424.32,-1.37,1.42,-1.37,1.41,-1.41,-1.35,-1.23,-2.78,-2.78,-2.78
428.56,-1.38,1.40,-1.38,1.40,-1.40,-1.33,-1.23,-2.78,-2.78,-2.78
432.85,-1.39,1.39,-1.39,1.39,-1.39,-1.30,-1.22,-2.78,-2.79,-2.78
437.18,-1.41,1.38,-1.41,1.38,-1.38,-1.28,-1.22,-2.79,-2.79,-2.79
441.55,-1.42,1.37,-1.42,1.37,-1.37,-1.26,-1.21,-2.79,-2.79,-2.79
445.96,-1.44,1.36,-1.43,1.36,-1.36,-1.23,-1.21,-2.80,-2.79,-2.79
450.42,-1.45,1.35,-1.45,1.35,-1.35,-1.21,-1.21,-2.79,-2.79,-2.80
454.93,-1.47,1.33,-1.46,1.33,-1.33,-1.19,-1.20,-2.80,-2.79,-2.80
459.48,-1.48,1.32,-1.47,1.32,-1.32,-1.16,-1.20,-2.80,-2.79,-2.80
464.07,-1.49,1.30,-1.49,1.31,-1.31,-1.14,-1.19,-2.80,-2.80,-2.79
468.71,-1.50,1.29,-1.50,1.30,-1.30,-1.12,-1.19,-2.80,-2.80,-2.79
473.40,-1.51,1.28,-1.51,1.28,-1.28,-1.09,-1.18,-2.79,-2.80,-2.79
478.13,-1.52,1.28,-1.53,1.27,-1.27,-1.07,-1.17,-2.79,-2.79,-2.79
482.91,-1.53,1.27,-1.54,1.25,-1.25,-1.04,-1.16,-2.78,-2.79,-2.80
