frequency,raw,error,smoothed,error_smoothed,equalization,parametric_eq,fixed_band_eq,equalized_raw,equalized_smoothed,target
20.00,-19.65,-21.10,-19.65,-21.10,21.09,20.16,8.85,1.44,1.44,1.45
20.20,-19.49,-20.99,-19.49,-20.99,20.98,20.33,9.03,1.49,1.49,1.50
20.40,-19.33,-20.88,-19.33,-20.87,20.87,20.46,9.20,1.54,1.54,1.55
20.61,-19.17,-20.75,-19.17,-20.76,20.76,20.56,9.38,1.59,1.59,1.58
20.81,-19.01,-20.64,-19.01,-20.64,20.65,20.61,9.57,1.64,1.64,1.63
21.02,-18.85,-20.52,-18.86,-20.52,20.54,20.62,9.75,1.68,1.68,1.67
21.23,-18.72,-20.41,-18.72,-20.41,20.42,20.60,9.95,1.70,1.70,1.69
21.44,-18.60,-20.31,-18.60,-20.30,20.31,20.53,10.15,1.71,1.71,1.71
21.66,-18.47,-20.20,-18.47,-20.20,20.19,20.44,10.35,1.72,1.72,1.73
21.87,-18.34,-20.08,-18.34,-20.08,20.08,20.31,10.56,1.74,1.74,1.74
22.09,-18.21,-19.97,-18.21,-19.97,19.96,20.16,10.77,1.75,1.75,1.76
22.31,-18.08,-19.85,-18.08,-19.85,19.84,19.99,10.99,1.76,1.76,1.77
22.54,-17.95,-19.72,-17.95,-19.72,19.71,19.80,11.21,1.76,1.76,1.77
22.76,-17.82,-19.59,-17.82,-19.59,19.59,19.59,11.45,1.77,1.77,1.77
22.99,-17.69,-19.45,-17.69,-19.45,19.46,19.38,11.68,1.77,1.77,1.76
23.22,-17.56,-19.32,-17.56,-19.32,19.34,19.16,11.93,1.77,1.77,1.76
23.45,-17.44,-19.20,-17.44,-19.20,19.21,18.94,12.18,1.76,1.77,1.76
23.69,-17.31,-19.08,-17.32,-19.08,19.07,18.72,12.44,1.76,1.76,1.77
23.92,-17.19,-18.96,-17.18,-18.95,18.94,18.50,12.70,1.75,1.75,1.77
24.16,-17.05,-18.82,-17.05,-18.82,18.80,18.27,12.98,1.75,1.75,1.77
24.40,-16.90,-18.68,-16.90,-18.67,18.67,18.06,13.26,1.77,1.76,1.78
24.65,-16.76,-18.53,-16.76,-18.53,18.53,17.84,13.55,1.76,1.77,1.77
24.89,-16.61,-18.38,-16.61,-18.38,18.39,17.64,13.84,1.78,1.77,1.77
25.14,-16.48,-18.25,-16.48,-18.25,18.26,17.44,14.15,1.78,1.78,1.77
25.39,-16.35,-18.13,-16.35,-18.12,18.14,17.24,14.46,1.79,1.79,1.78
25.65,-16.23,-18.01,-16.23,-18.00,18.03,17.05,14.79,1.80,1.80,1.78
25.91,-16.11,-17.88,-16.12,-17.89,17.93,16.87,15.12,1.81,1.81,1.77
26.16,-16.01,-17.78,-16.02,-17.79,17.82,16.70,15.47,1.81,1.80,1.77
26.43,-15.94,-17.71,-15.95,-17.72,17.71,16.53,15.82,1.77,1.76,1.77
26.69,-15.87,-17.64,-15.87,-17.64,17.59,16.37,16.18,1.72,1.71,1.77
26.96,-15.79,-17.56,-15.76,-17.53,17.45,16.21,16.55,1.66,1.69,1.77
27.23,-15.60,-17.37,-15.60,-17.37,17.30,16.07,16.93,1.69,1.70,1.77
27.50,-15.38,-17.15,-15.39,-17.15,17.14,15.93,17.31,1.76,1.75,1.77
27.77,-15.17,-16.93,-15.17,-16.93,16.97,15.79,17.70,1.80,1.80,1.76
28.05,-14.96,-16.72,-14.98,-16.74,16.80,15.67,18.09,1.84,1.82,1.76
28.33,-14.83,-16.58,-14.82,-16.58,16.62,15.55,18.48,1.79,1.80,1.75
28.62,-14.69,-16.44,-14.69,-16.44,16.46,15.43,18.87,1.76,1.77,1.75
28.90,-14.56,-16.32,-14.56,-16.31,16.30,15.32,19.25,1.74,1.74,1.76
29.19,-14.42,-16.17,-14.42,-16.18,16.16,15.22,19.61,1.74,1.74,1.75
29.48,-14.29,-16.05,-14.29,-16.05,16.03,15.12,19.95,1.74,1.74,1.76
29.78,-14.16,-15.91,-14.16,-15.91,15.91,15.02,20.25,1.75,1.75,1.75
30.08,-14.03,-15.79,-14.03,-15.79,15.78,14.93,20.52,1.75,1.75,1.76
30.38,-13.90,-15.65,-13.90,-15.65,15.66,14.85,20.73,1.75,1.75,1.75
30.68,-13.77,-15.52,-13.77,-15.52,15.52,14.76,20.89,1.75,1.75,1.75
30.99,-13.64,-15.39,-13.64,-15.39,15.39,14.68,20.98,1.75,1.75,1.75
31.30,-13.51,-15.25,-13.51,-15.26,15.25,14.60,21.00,1.74,1.74,1.74
31.61,-13.38,-15.12,-13.38,-15.12,15.11,14.52,20.94,1.73,1.73,1.74
31.93,-13.25,-14.99,-13.25,-14.98,14.97,14.45,20.82,1.71,1.72,1.74
32.24,-13.10,-14.83,-13.10,-14.83,14.82,14.37,20.63,1.72,1.73,1.73
32.57,-12.94,-14.67,-12.94,-14.67,14.68,14.30,20.39,1.74,1.74,1.73
32.89,-12.78,-14.51,-12.79,-14.51,14.53,14.22,20.10,1.75,1.74,1.73
33.22,-12.65,-14.37,-12.65,-14.37,14.39,14.15,19.78,1.74,1.74,1.72
33.55,-12.52,-14.24,-12.52,-14.24,14.24,14.07,19.42,1.72,1.72,1.72
33.89,-12.40,-14.11,-12.40,-14.10,14.09,13.99,19.05,1.69,1.70,1.71
34.23,-12.26,-13.97,-12.26,-13.96,13.95,13.91,18.66,1.68,1.69,1.71
34.57,-12.11,-13.81,-12.11,-13.81,13.80,13.82,18.27,1.69,1.68,1.70
34.92,-11.96,-13.66,-11.96,-13.66,13.65,13.73,17.87,1.69,1.69,1.70
35.27,-11.81,-13.50,-11.81,-13.50,13.50,13.64,17.48,1.69,1.69,1.69
35.62,-11.67,-13.36,-11.67,-13.36,13.37,13.54,17.09,1.70,1.70,1.69
35.97,-11.53,-13.22,-11.53,-13.22,13.24,13.44,16.70,1.71,1.71,1.69
36.33,-11.41,-13.10,-11.40,-13.08,13.13,13.34,16.32,1.72,1.72,1.69
36.70,-11.28,-12.96,-11.28,-12.96,13.01,13.22,15.95,1.73,1.73,1.68
37.06,-11.17,-12.85,-11.19,-12.88,12.89,13.11,15.59,1.72,1.70,1.68
37.43,-11.11,-12.80,-11.12,-12.80,12.77,12.98,15.23,1.66,1.65,1.69
37.81,-11.06,-12.75,-11.03,-12.72,12.64,12.85,14.89,1.58,1.61,1.69
38.19,-10.91,-12.59,-10.88,-12.57,12.50,12.72,14.56,1.59,1.62,1.68
38.57,-10.68,-12.37,-10.69,-12.38,12.36,12.58,14.23,1.68,1.67,1.69
38.95,-10.45,-12.15,-10.48,-12.17,12.21,12.44,13.91,1.76,1.73,1.70
39.34,-10.31,-12.00,-10.31,-12.00,12.05,12.28,13.60,1.74,1.74,1.69
39.74,-10.18,-11.87,-10.17,-11.86,11.89,12.13,13.31,1.70,1.71,1.69
40.14,-10.05,-11.74,-10.04,-11.73,11.72,11.97,13.01,1.67,1.68,1.69
40.54,-9.89,-11.58,-9.89,-11.58,11.57,11.81,12.73,1.67,1.67,1.69
40.94,-9.73,-11.41,-9.74,-11.42,11.42,11.64,12.46,1.69,1.68,1.68
41.35,-9.60,-11.28,-9.60,-11.27,11.27,11.47,12.19,1.67,1.68,1.68
41.76,-9.47,-11.14,-9.47,-11.14,11.13,11.29,11.93,1.66,1.67,1.67
42.18,-9.34,-11.01,-9.34,-11.01,11.00,11.11,11.67,1.66,1.65,1.67
42.60,-9.22,-10.88,-9.22,-10.88,10.87,10.93,11.42,1.65,1.65,1.66
43.03,-9.09,-10.74,-9.08,-10.73,10.75,10.75,11.18,1.66,1.67,1.65
43.46,-8.96,-10.60,-8.96,-10.59,10.64,10.57,10.95,1.68,1.68,1.64
43.90,-8.83,-10.45,-8.87,-10.48,10.52,10.38,10.72,1.69,1.66,1.62
44.33,-8.79,-10.39,-8.81,-10.40,10.40,10.20,10.50,1.61,1.60,1.60
44.78,-8.77,-10.35,-8.74,-10.32,10.27,10.01,10.28,1.50,1.53,1.58
45.23,-8.66,-10.23,-8.64,-10.20,10.14,9.83,10.06,1.47,1.50,1.57
45.68,-8.47,-10.03,-8.49,-10.04,10.00,9.64,9.86,1.52,1.51,1.56
46.13,-8.29,-9.83,-8.30,-9.85,9.85,9.46,9.65,1.56,1.55,1.54
46.60,-8.13,-9.67,-8.13,-9.66,9.69,9.28,9.45,1.56,1.56,1.54
47.06,-7.97,-9.49,-7.97,-9.49,9.52,9.09,9.26,1.55,1.55,1.52
47.53,-7.82,-9.33,-7.82,-9.34,9.35,8.91,9.07,1.53,1.53,1.51
48.01,-7.68,-9.19,-7.69,-9.19,9.18,8.73,8.88,1.50,1.49,1.51
48.49,-7.56,-9.05,-7.57,-9.05,9.04,8.55,8.70,1.47,1.47,1.49
48.97,-7.45,-8.92,-7.42,-8.89,8.90,8.38,8.52,1.45,1.49,1.47
49.46,-7.28,-8.73,-7.27,-8.72,8.77,8.20,8.35,1.49,1.50,1.45
49.96,-7.11,-8.54,-7.18,-8.61,8.64,8.03,8.18,1.53,1.46,1.43
50.46,-7.10,-8.52,-7.11,-8.53,8.51,7.86,8.01,1.41,1.40,1.42
50.96,-7.11,-8.52,-7.03,-8.43,8.37,7.70,7.84,1.26,1.34,1.41
51.47,-6.91,-8.30,-6.91,-8.30,8.23,7.53,7.68,1.32,1.32,1.39
51.99,-6.70,-8.08,-6.74,-8.12,8.10,7.37,7.53,1.39,1.36,1.38
52.51,-6.56,-7.93,-6.56,-7.93,7.97,7.21,7.37,1.41,1.42,1.37
53.03,-6.42,-7.79,-6.42,-7.78,7.85,7.05,7.22,1.43,1.43,1.37
53.56,-6.31,-7.66,-6.31,-7.66,7.72,6.90,7.07,1.40,1.40,1.35
54.10,-6.21,-7.55,-6.23,-7.57,7.59,6.75,6.92,1.37,1.35,1.34
54.64,-6.18,-7.50,-6.17,-7.50,7.46,6.60,6.78,1.28,1.29,1.32
55.18,-6.11,-7.43,-6.10,-7.41,7.35,6.45,6.64,1.24,1.25,1.32
55.74,-6.00,-7.30,-5.97,-7.28,7.25,6.31,6.50,1.25,1.28,1.30
56.29,-5.83,-7.12,-5.81,-7.10,7.14,6.17,6.36,1.31,1.32,1.29
56.86,-5.63,-6.91,-5.72,-6.99,7.01,6.03,6.23,1.38,1.30,1.28
57.42,-5.61,-6.86,-5.64,-6.89,6.88,5.89,6.10,1.27,1.24,1.25
58.00,-5.66,-6.90,-5.54,-6.77,6.73,5.76,5.97,1.07,1.20,1.24
58.58,-5.39,-6.62,-5.41,-6.63,6.59,5.63,5.84,1.20,1.18,1.23
59.16,-5.17,-6.38,-5.24,-6.44,6.45,5.50,5.72,1.28,1.21,1.21
59.76,-5.08,-6.27,-5.07,-6.26,6.31,5.38,5.60,1.23,1.24,1.19
60.35,-5.00,-6.15,-4.99,-6.14,6.18,5.25,5.48,1.18,1.19,1.15
60.96,-4.93,-6.04,-4.92,-6.03,6.04,5.13,5.36,1.11,1.12,1.11
61.57,-4.84,-5.91,-4.85,-5.92,5.91,5.01,5.24,1.07,1.06,1.07
62.18,-4.76,-5.79,-4.78,-5.81,5.79,4.90,5.13,1.03,1.00,1.03
62.80,-4.73,-5.71,-4.68,-5.66,5.66,4.78,5.02,0.93,0.98,0.98
63.43,-4.60,-5.54,-4.60,-5.53,5.53,4.67,4.91,0.93,0.93,0.94
64.07,-4.44,-5.33,-4.53,-5.42,5.39,4.56,4.80,0.95,0.87,0.89
64.71,-4.48,-5.33,-4.43,-5.28,5.25,4.45,4.69,0.77,0.82,0.85
65.35,-4.38,-5.19,-4.33,-5.13,5.11,4.35,4.59,0.73,0.79,0.81
66.01,-4.17,-4.93,-4.19,-4.95,4.97,4.24,4.48,0.80,0.78,0.76
66.67,-4.02,-4.73,-4.07,-4.77,4.82,4.14,4.38,0.80,0.75,0.71
67.33,-3.96,-4.62,-3.98,-4.64,4.67,4.04,4.28,0.71,0.69,0.66
68.01,-3.99,-4.61,-3.93,-4.55,4.52,3.94,4.18,0.53,0.59,0.62
68.69,-3.86,-4.43,-3.87,-4.44,4.38,3.85,4.08,0.52,0.51,0.57
69.37,-3.75,-4.27,-3.75,-4.27,4.25,3.75,3.99,0.50,0.50,0.52
70.07,-3.64,-4.11,-3.61,-4.08,4.13,3.66,3.89,0.48,0.52,0.47
70.77,-3.47,-3.89,-3.53,-3.95,4.01,3.57,3.80,0.53,0.47,0.42
71.48,-3.48,-3.85,-3.51,-3.87,3.89,3.48,3.71,0.41,0.38,0.37
72.19,-3.54,-3.84,-3.49,-3.79,3.76,3.39,3.62,0.22,0.28,0.30
72.91,-3.48,-3.72,-3.44,-3.68,3.64,3.30,3.52,0.15,0.20,0.24
73.64,-3.31,-3.50,-3.34,-3.52,3.51,3.21,3.44,0.20,0.17,0.19
74.38,-3.21,-3.34,-3.28,-3.40,3.39,3.13,3.35,0.18,0.11,0.13
75.12,-3.21,-3.28,-3.21,-3.28,3.27,3.05,3.26,0.06,0.06,0.07
75.87,-3.26,-3.27,-3.12,-3.14,3.15,2.97,3.17,-0.11,0.03,0.01
76.63,-2.97,-2.93,-3.03,-2.99,3.02,2.88,3.08,0.05,-0.01,-0.04
77.40,-2.86,-2.77,-2.97,-2.87,2.89,2.80,3.00,0.02,-0.08,-0.09
78.17,-2.95,-2.80,-2.91,-2.77,2.76,2.73,2.91,-0.19,-0.15,-0.15
78.95,-2.98,-2.79,-2.88,-2.68,2.64,2.65,2.83,-0.34,-0.24,-0.19
79.74,-2.76,-2.52,-2.79,-2.55,2.52,2.57,2.74,-0.24,-0.27,-0.24
80.54,-2.62,-2.33,-2.69,-2.40,2.41,2.50,2.66,-0.21,-0.28,-0.29
81.35,-2.60,-2.26,-2.60,-2.25,2.31,2.42,2.58,-0.30,-0.29,-0.34
82.16,-2.64,-2.25,-2.57,-2.18,2.20,2.35,2.49,-0.44,-0.37,-0.39
82.98,-2.47,-2.04,-2.54,-2.11,2.09,2.27,2.41,-0.39,-0.46,-0.43
83.81,-2.51,-2.03,-2.49,-2.01,1.98,2.20,2.33,-0.54,-0.51,-0.48
84.65,-2.44,-1.91,-2.42,-1.89,1.87,2.13,2.25,-0.57,-0.55,-0.53
85.50,-2.35,-1.78,-2.37,-1.79,1.78,2.06,2.17,-0.57,-0.59,-0.57
86.35,-2.28,-1.66,-2.28,-1.66,1.69,1.99,2.08,-0.59,-0.59,-0.62
87.22,-2.24,-1.57,-2.23,-1.56,1.60,1.92,2.00,-0.64,-0.63,-0.67
88.09,-2.17,-1.45,-2.22,-1.49,1.51,1.85,1.92,-0.66,-0.71,-0.72
88.97,-2.22,-1.44,-2.20,-1.42,1.41,1.78,1.84,-0.81,-0.78,-0.78
89.86,-2.22,-1.39,-2.17,-1.34,1.32,1.71,1.76,-0.91,-0.86,-0.83
90.76,-2.10,-1.22,-2.16,-1.27,1.22,1.64,1.68,-0.89,-0.94,-0.88
91.66,-2.09,-1.16,-2.10,-1.16,1.12,1.57,1.60,-0.98,-0.98,-0.93
92.58,-2.07,-1.08,-2.01,-1.03,1.02,1.50,1.52,-1.05,-0.99,-0.99
93.51,-1.93,-0.89,-1.94,-0.91,0.93,1.44,1.43,-1.00,-1.01,-1.04
94.44,-1.83,-0.75,-1.87,-0.79,0.85,1.37,1.35,-0.99,-1.03,-1.08
95.39,-1.85,-0.72,-1.84,-0.71,0.76,1.30,1.27,-1.09,-1.07,-1.13
96.34,-1.86,-0.68,-1.86,-0.67,0.69,1.23,1.19,-1.17,-1.17,-1.18
97.30,-1.88,-0.65,-1.89,-0.66,0.62,1.17,1.11,-1.26,-1.27,-1.23
98.28,-1.90,-0.62,-1.89,-0.61,0.56,1.10,1.03,-1.34,-1.33,-1.28
99.26,-1.90,-0.58,-1.88,-0.55,0.52,1.03,0.96,-1.39,-1.36,-1.32
100.25,-1.83,-0.46,-1.85,-0.48,0.48,0.97,0.88,-1.35,-1.37,-1.37
101.25,-1.82,-0.40,-1.83,-0.41,0.45,0.90,0.80,-1.37,-1.38,-1.42
102.27,-1.84,-0.37,-1.84,-0.37,0.42,0.84,0.72,-1.42,-1.42,-1.47
103.29,-1.88,-0.36,-1.88,-0.36,0.39,0.77,0.65,-1.49,-1.50,-1.52
104.32,-1.93,-0.37,-1.93,-0.37,0.36,0.71,0.57,-1.57,-1.57,-1.56
105.37,-1.99,-0.38,-1.98,-0.37,0.34,0.65,0.50,-1.65,-1.64,-1.61
106.42,-2.02,-0.36,-2.02,-0.35,0.33,0.58,0.42,-1.69,-1.69,-1.66
107.48,-2.04,-0.32,-2.05,-0.33,0.31,0.52,0.35,-1.73,-1.74,-1.72
108.56,-2.07,-0.30,-2.07,-0.30,0.29,0.46,0.28,-1.78,-1.78,-1.77
109.64,-2.09,-0.27,-2.09,-0.27,0.26,0.40,0.21,-1.83,-1.83,-1.82
110.74,-2.11,-0.23,-2.11,-0.23,0.23,0.35,0.15,-1.88,-1.87,-1.88
111.85,-2.12,-0.20,-2.12,-0.19,0.20,0.29,0.09,-1.92,-1.92,-1.92
112.97,-2.13,-0.15,-2.15,-0.17,0.18,0.24,0.02,-1.95,-1.97,-1.98
114.10,-2.18,-0.15,-2.18,-0.15,0.17,0.19,-0.03,-2.01,-2.01,-2.03
115.24,-2.24,-0.16,-2.22,-0.14,0.16,0.14,-0.09,-2.08,-2.06,-2.08
116.39,-2.26,-0.13,-2.27,-0.14,0.15,0.09,-0.14,-2.11,-2.12,-2.13
117.55,-2.31,-0.14,-2.32,-0.15,0.14,0.05,-0.19,-2.17,-2.18,-2.17
118.73,-2.37,-0.16,-2.37,-0.16,0.13,0.00,-0.24,-2.24,-2.24,-2.21
119.92,-2.43,-0.19,-2.41,-0.16,0.12,-0.03,-0.28,-2.31,-2.29,-2.24
121.12,-2.42,-0.14,-2.42,-0.14,0.11,-0.07,-0.32,-2.31,-2.31,-2.28
122.33,-2.41,-0.10,-2.41,-0.10,0.11,-0.10,-0.35,-2.30,-2.30,-2.31
123.55,-2.40,-0.06,-2.41,-0.06,0.10,-0.13,-0.38,-2.30,-2.30,-2.34
124.79,-2.41,-0.04,-2.43,-0.06,0.10,-0.16,-0.41,-2.31,-2.33,-2.37
126.03,-2.48,-0.08,-2.47,-0.07,0.11,-0.18,-0.43,-2.38,-2.37,-2.40
127.29,-2.54,-0.12,-2.53,-0.10,0.11,-0.20,-0.45,-2.44,-2.43,-2.42
128.57,-2.58,-0.12,-2.60,-0.14,0.11,-0.21,-0.46,-2.48,-2.49,-2.46
129.85,-2.65,-0.16,-2.64,-0.15,0.11,-0.22,-0.47,-2.54,-2.53,-2.49
131.15,-2.67,-0.15,-2.66,-0.14,0.11,-0.23,-0.48,-2.56,-2.56,-2.52
132.46,-2.66,-0.11,-2.67,-0.12,0.10,-0.24,-0.48,-2.56,-2.57,-2.55
133.79,-2.66,-0.08,-2.66,-0.07,0.09,-0.24,-0.48,-2.57,-2.56,-2.58
135.12,-2.65,-0.04,-2.65,-0.04,0.08,-0.24,-0.48,-2.58,-2.58,-2.61
136.48,-2.65,-0.02,-2.67,-0.03,0.06,-0.24,-0.47,-2.59,-2.61,-2.63
137.84,-2.70,-0.03,-2.70,-0.03,0.04,-0.24,-0.46,-2.67,-2.66,-2.67
139.22,-2.73,-0.03,-2.73,-0.02,0.02,-0.23,-0.45,-2.72,-2.71,-2.70
140.61,-2.75,-0.02,-2.74,-0.02,-0.00,-0.22,-0.44,-2.75,-2.75,-2.73
142.02,-2.74,0.01,-2.75,0.01,-0.02,-0.21,-0.42,-2.76,-2.77,-2.75
143.44,-2.74,0.04,-2.74,0.04,-0.04,-0.20,-0.40,-2.78,-2.79,-2.78
144.87,-2.74,0.08,-2.74,0.08,-0.07,-0.19,-0.38,-2.81,-2.81,-2.82
146.32,-2.74,0.12,-2.74,0.11,-0.11,-0.18,-0.36,-2.86,-2.86,-2.86
147.78,-2.75,0.14,-2.75,0.15,-0.16,-0.16,-0.33,-2.91,-2.91,-2.89
149.26,-2.75,0.19,-2.75,0.19,-0.22,-0.15,-0.31,-2.97,-2.97,-2.94
150.75,-2.75,0.25,-2.75,0.26,-0.27,-0.14,-0.28,-3.02,-3.01,-3.00
152.26,-2.75,0.32,-2.75,0.32,-0.32,-0.12,-0.25,-3.07,-3.07,-3.07
153.78,-2.74,0.40,-2.76,0.38,-0.37,-0.11,-0.22,-3.11,-3.13,-3.14
155.32,-2.80,0.41,-2.79,0.43,-0.41,-0.09,-0.19,-3.21,-3.19,-3.21
156.88,-2.84,0.45,-2.84,0.45,-0.44,-0.08,-0.16,-3.28,-3.28,-3.29
158.44,-2.89,0.48,-2.91,0.46,-0.46,-0.06,-0.13,-3.36,-3.38,-3.37
160.03,-3.00,0.45,-2.98,0.47,-0.47,-0.05,-0.10,-3.47,-3.46,-3.45
161.63,-3.07,0.45,-3.06,0.46,-0.46,-0.03,-0.07,-3.53,-3.52,-3.52
163.24,-3.13,0.45,-3.14,0.45,-0.44,-0.02,-0.04,-3.57,-3.57,-3.58
164.88,-3.21,0.42,-3.21,0.42,-0.39,-0.01,-0.01,-3.61,-3.61,-3.63
166.53,-3.30,0.38,-3.32,0.37,-0.34,0.01,0.02,-3.64,-3.66,-3.68
168.19,-3.44,0.28,-3.44,0.29,-0.28,0.02,0.05,-3.72,-3.72,-3.72
169.87,-3.56,0.20,-3.55,0.21,-0.21,0.03,0.08,-3.77,-3.76,-3.76
171.57,-3.66,0.12,-3.65,0.13,-0.14,0.05,0.11,-3.80,-3.79,-3.78
173.29,-3.70,0.09,-3.73,0.06,-0.07,0.06,0.14,-3.77,-3.81,-3.79
175.02,-3.81,-0.01,-3.81,-0.01,-0.01,0.07,0.17,-3.82,-3.82,-3.80
176.77,-3.89,-0.08,-3.87,-0.05,0.03,0.08,0.20,-3.86,-3.83,-3.81
178.54,-3.90,-0.08,-3.90,-0.09,0.06,0.09,0.23,-3.84,-3.84,-3.82
180.32,-3.89,-0.08,-3.90,-0.09,0.08,0.10,0.26,-3.81,-3.82,-3.81
182.13,-3.89,-0.09,-3.89,-0.08,0.08,0.11,0.29,-3.81,-3.81,-3.80
183.95,-3.88,-0.07,-3.88,-0.07,0.06,0.12,0.32,-3.82,-3.82,-3.81
185.79,-3.86,-0.05,-3.87,-0.05,0.04,0.14,0.35,-3.82,-3.82,-3.81
187.65,-3.85,-0.02,-3.85,-0.02,0.02,0.14,0.38,-3.83,-3.83,-3.83
189.52,-3.83,0.01,-3.83,0.01,0.00,0.15,0.41,-3.83,-3.83,-3.84
191.42,-3.82,0.04,-3.82,0.04,-0.01,0.16,0.44,-3.83,-3.83,-3.86
193.33,-3.82,0.06,-3.83,0.05,-0.02,0.17,0.47,-3.84,-3.85,-3.88
195.27,-3.86,0.04,-3.86,0.04,-0.03,0.18,0.49,-3.89,-3.89,-3.90
197.22,-3.90,0.02,-3.90,0.02,-0.03,0.19,0.52,-3.93,-3.94,-3.92
199.19,-3.95,-0.01,-3.94,0.00,-0.03,0.20,0.55,-3.99,-3.98,-3.94
201.18,-3.96,0.00,-3.96,0.00,-0.03,0.21,0.58,-4.00,-3.99,-3.96
203.19,-3.96,0.02,-3.96,0.02,-0.03,0.22,0.60,-3.99,-3.99,-3.98
205.23,-3.95,0.05,-3.95,0.04,-0.03,0.23,0.63,-3.98,-3.98,-4.00
207.28,-3.95,0.06,-3.97,0.05,-0.03,0.24,0.66,-3.98,-4.00,-4.01
209.35,-4.00,0.03,-4.00,0.04,-0.03,0.25,0.68,-4.03,-4.03,-4.03
211.44,-4.05,0.01,-4.03,0.03,-0.02,0.26,0.71,-4.07,-4.05,-4.06
213.56,-4.06,0.01,-4.07,0.01,-0.01,0.27,0.73,-4.07,-4.07,-4.07
215.69,-4.07,0.01,-4.10,-0.01,0.01,0.29,0.75,-4.06,-4.08,-4.08
217.85,-4.15,-0.06,-4.13,-0.03,0.04,0.30,0.78,-4.11,-4.09,-4.09
220.03,-4.17,-0.07,-4.18,-0.07,0.07,0.31,0.80,-4.11,-4.11,-4.10
222.23,-4.21,-0.08,-4.23,-0.11,0.09,0.32,0.82,-4.12,-4.13,-4.13
224.45,-4.27,-0.15,-4.25,-0.12,0.12,0.34,0.84,-4.15,-4.13,-4.12
226.70,-4.28,-0.16,-4.28,-0.15,0.15,0.35,0.86,-4.13,-4.13,-4.12
228.96,-4.27,-0.16,-4.30,-0.19,0.18,0.37,0.87,-4.09,-4.12,-4.11
231.25,-4.33,-0.23,-4.32,-0.22,0.22,0.38,0.89,-4.12,-4.10,-4.10
233.57,-4.36,-0.27,-4.33,-0.24,0.25,0.40,0.90,-4.11,-4.08,-4.09
235.90,-4.34,-0.26,-4.36,-0.28,0.29,0.42,0.92,-4.05,-4.07,-4.08
238.26,-4.36,-0.29,-4.39,-0.32,0.33,0.44,0.93,-4.03,-4.05,-4.07
240.64,-4.44,-0.40,-4.43,-0.38,0.38,0.46,0.94,-4.06,-4.05,-4.04
243.05,-4.48,-0.47,-4.46,-0.44,0.43,0.48,0.94,-4.05,-4.03,-4.01
245.48,-4.48,-0.49,-4.48,-0.49,0.48,0.50,0.95,-4.00,-4.00,-3.99
247.93,-4.47,-0.51,-4.50,-0.53,0.53,0.53,0.96,-3.94,-3.96,-3.96
250.41,-4.52,-0.58,-4.52,-0.58,0.59,0.56,0.96,-3.93,-3.93,-3.94
252.92,-4.58,-0.67,-4.56,-0.65,0.65,0.59,0.96,-3.93,-3.91,-3.91
255.45,-4.60,-0.71,-4.60,-0.71,0.71,0.62,0.96,-3.89,-3.89,-3.89
258.00,-4.62,-0.75,-4.64,-0.77,0.77,0.66,0.96,-3.85,-3.86,-3.87
260.58,-4.68,-0.83,-4.68,-0.83,0.83,0.70,0.95,-3.85,-3.85,-3.85
263.19,-4.74,-0.92,-4.74,-0.91,0.90,0.74,0.95,-3.84,-3.84,-3.82
265.82,-4.79,-0.99,-4.77,-0.97,0.97,0.79,0.94,-3.83,-3.81,-3.80
268.48,-4.80,-1.02,-4.80,-1.02,1.03,0.84,0.93,-3.77,-3.77,-3.78
271.16,-4.80,-1.05,-4.83,-1.07,1.08,0.89,0.93,-3.72,-3.75,-3.75
273.87,-4.87,-1.14,-4.86,-1.13,1.13,0.95,0.91,-3.74,-3.73,-3.73
276.61,-4.91,-1.21,-4.89,-1.19,1.17,1.01,0.90,-3.74,-3.72,-3.70
279.38,-4.91,-1.24,-4.91,-1.24,1.21,1.08,0.89,-3.70,-3.70,-3.67
282.17,-4.90,-1.25,-4.91,-1.26,1.25,1.15,0.88,-3.65,-3.66,-3.65
284.99,-4.90,-1.29,-4.89,-1.27,1.29,1.22,0.86,-3.61,-3.60,-3.61
287.84,-4.89,-1.30,-4.89,-1.30,1.33,1.30,0.85,-3.56,-3.56,-3.59
290.72,-4.88,-1.32,-4.91,-1.35,1.37,1.38,0.83,-3.51,-3.54,-3.56
293.63,-4.96,-1.43,-4.95,-1.42,1.42,1.47,0.81,-3.54,-3.53,-3.53
296.57,-5.00,-1.50,-4.99,-1.49,1.47,1.55,0.80,-3.53,-3.52,-3.50
299.53,-5.03,-1.56,-5.02,-1.55,1.53,1.64,0.78,-3.50,-3.49,-3.47
302.53,-5.03,-1.58,-5.04,-1.59,1.59,1.72,0.76,-3.44,-3.44,-3.45
305.55,-5.05,-1.64,-5.06,-1.65,1.65,1.79,0.75,-3.40,-3.41,-3.41
308.61,-5.10,-1.71,-5.10,-1.71,1.71,1.85,0.73,-3.39,-3.39,-3.39
311.69,-5.16,-1.80,-5.15,-1.79,1.78,1.91,0.71,-3.38,-3.37,-3.36
314.81,-5.19,-1.85,-5.18,-1.84,1.85,1.94,0.69,-3.34,-3.33,-3.34
317.96,-5.20,-1.88,-5.20,-1.88,1.92,1.97,0.68,-3.28,-3.28,-3.32
321.14,-5.21,-1.90,-5.23,-1.92,1.99,1.97,0.66,-3.22,-3.25,-3.31
324.35,-5.28,-1.99,-5.28,-1.98,2.02,1.95,0.64,-3.26,-3.26,-3.29
327.59,-5.34,-2.06,-5.36,-2.08,2.03,1.92,0.63,-3.32,-3.33,-3.28
330.87,-5.39,-2.12,-5.40,-2.13,1.99,1.87,0.61,-3.40,-3.40,-3.27
334.18,-5.41,-2.16,-5.34,-2.08,1.94,1.81,0.59,-3.48,-3.40,-3.25
337.52,-5.19,-1.95,-5.19,-1.95,1.86,1.74,0.58,-3.33,-3.33,-3.24
340.90,-4.95,-1.72,-4.98,-1.75,1.79,1.66,0.56,-3.17,-3.19,-3.23
344.30,-4.77,-1.55,-4.79,-1.57,1.72,1.57,0.55,-3.05,-3.07,-3.22
347.75,-4.68,-1.46,-4.69,-1.47,1.67,1.48,0.53,-3.02,-3.03,-3.22
351.23,-4.67,-1.46,-4.67,-1.45,1.61,1.39,0.52,-3.06,-3.06,-3.21
354.74,-4.69,-1.47,-4.68,-1.46,1.55,1.30,0.50,-3.15,-3.14,-3.22
358.28,-4.70,-1.49,-4.72,-1.51,1.44,1.21,0.49,-3.26,-3.28,-3.21
361.87,-4.70,-1.49,-4.75,-1.54,1.30,1.13,0.47,-3.40,-3.45,-3.21
365.49,-4.69,-1.49,-4.62,-1.41,1.12,1.05,0.46,-3.57,-3.50,-3.20
369.14,-4.45,-1.24,-4.34,-1.13,0.89,0.97,0.45,-3.56,-3.45,-3.21
372.83,-3.80,-0.59,-3.92,-0.70,0.63,0.90,0.44,-3.17,-3.29,-3.21
376.56,-3.47,-0.25,-3.42,-0.20,0.35,0.84,0.42,-3.12,-3.07,-3.22
380.33,-3.02,0.19,-3.06,0.16,0.09,0.77,0.41,-2.93,-2.97,-3.21
384.13,-2.80,0.41,-2.90,0.32,-0.14,0.71,0.40,-2.94,-3.03,-3.21
387.97,-2.89,0.33,-2.82,0.40,-0.29,0.66,0.39,-3.18,-3.11,-3.22
391.85,-2.89,0.34,-2.85,0.38,-0.35,0.61,0.38,-3.24,-3.20,-3.23
395.77,-2.88,0.34,-2.89,0.33,-0.32,0.56,0.37,-3.20,-3.21,-3.22
399.73,-2.96,0.27,-3.01,0.23,-0.22,0.52,0.36,-3.18,-3.22,-3.23
403.72,-3.14,0.09,-3.20,0.04,-0.07,0.48,0.35,-3.21,-3.27,-3.23
407.76,-3.50,-0.25,-3.38,-0.14,0.09,0.44,0.34,-3.41,-3.30,-3.25
411.84,-3.57,-0.32,-3.56,-0.31,0.23,0.40,0.33,-3.34,-3.33,-3.25
415.96,-3.59,-0.34,-3.69,-0.43,0.37,0.37,0.32,-3.22,-3.32,-3.25
420.12,-3.81,-0.56,-3.75,-0.50,0.50,0.33,0.31,-3.32,-3.26,-3.25
424.32,-3.86,-0.61,-3.85,-0.60,0.60,0.30,0.30,-3.26,-3.25,-3.25
428.56,-3.88,-0.64,-3.92,-0.68,0.68,0.27,0.29,-3.20,-3.25,-3.24
432.85,-3.98,-0.75,-3.94,-0.70,0.73,0.25,0.28,-3.25,-3.21,-3.23
