frequency,raw,error,smoothed,error_smoothed,equalization,parametric_eq,fixed_band_eq,equalized_raw,equalized_smoothed,target
20.00,-9.52,-11.03,-9.59,-11.13,11.13,10.74,3.34,1.61,1.54,1.51
20.20,-9.42,-10.98,-9.46,-11.03,11.03,10.67,3.43,1.61,1.58,1.56
20.40,-9.32,-10.93,-9.33,-10.94,10.94,10.60,3.53,1.62,1.61,1.61
20.61,-9.23,-10.87,-9.20,-10.85,10.85,10.52,3.63,1.61,1.65,1.64
20.81,-9.13,-10.82,-9.07,-10.75,10.75,10.44,3.73,1.62,1.68,1.69
21.02,-9.03,-10.76,-8.95,-10.65,10.65,10.36,3.83,1.62,1.70,1.73
21.23,-8.88,-10.63,-8.83,-10.56,10.56,10.27,3.94,1.67,1.73,1.75
21.44,-8.73,-10.50,-8.70,-10.46,10.46,10.19,4.05,1.73,1.75,1.77
21.66,-8.58,-10.37,-8.58,-10.36,10.36,10.09,4.16,1.77,1.77,1.79
21.87,-8.43,-10.23,-8.46,-10.26,10.26,10.00,4.28,1.83,1.79,1.80
22.09,-8.30,-10.12,-8.35,-10.15,10.15,9.90,4.40,1.85,1.81,1.82
22.31,-8.19,-10.02,-8.23,-10.05,10.05,9.80,4.53,1.86,1.82,1.83
22.54,-8.09,-9.92,-8.11,-9.94,9.94,9.70,4.65,1.85,1.83,1.83
22.76,-7.98,-9.81,-7.99,-9.83,9.83,9.60,4.78,1.84,1.83,1.83
22.99,-7.87,-9.69,-7.88,-9.71,9.71,9.49,4.92,1.84,1.83,1.82
23.22,-7.77,-9.59,-7.77,-9.60,9.60,9.39,5.05,1.83,1.83,1.82
23.45,-7.67,-9.49,-7.66,-9.50,9.50,9.28,5.19,1.83,1.83,1.82
23.69,-7.57,-9.40,-7.56,-9.40,9.40,9.18,5.34,1.82,1.83,1.83
23.92,-7.47,-9.30,-7.46,-9.29,9.29,9.07,5.48,1.82,1.83,1.83
24.16,-7.37,-9.20,-7.35,-9.19,9.19,8.96,5.63,1.82,1.83,1.83
24.40,-7.26,-9.10,-7.25,-9.08,9.08,8.85,5.78,1.82,1.83,1.84
24.65,-7.16,-8.99,-7.15,-8.98,8.98,8.74,5.94,1.82,1.83,1.83
24.89,-7.05,-8.88,-7.04,-8.87,8.87,8.63,6.10,1.82,1.83,1.83
25.14,-6.94,-8.77,-6.93,-8.76,8.76,8.52,6.26,1.82,1.83,1.83
25.39,-6.82,-8.66,-6.82,-8.66,8.66,8.41,6.42,1.84,1.83,1.84
25.65,-6.70,-8.54,-6.71,-8.54,8.54,8.30,6.58,1.84,1.84,1.84
25.91,-6.57,-8.40,-6.59,-8.43,8.43,8.19,6.74,1.85,1.83,1.83
26.16,-6.47,-8.30,-6.48,-8.32,8.32,8.08,6.91,1.85,1.83,1.83
26.43,-6.37,-8.20,-6.37,-8.21,8.21,7.97,7.07,1.83,1.83,1.83
26.69,-6.27,-8.10,-6.27,-8.10,8.10,7.86,7.23,1.83,1.83,1.83
26.96,-6.17,-8.00,-6.16,-7.99,7.99,7.76,7.39,1.82,1.83,1.83
27.23,-6.05,-7.88,-6.05,-7.88,7.88,7.65,7.55,1.83,1.83,1.83
27.50,-5.93,-7.76,-5.94,-7.77,7.77,7.54,7.71,1.84,1.83,1.83
27.77,-5.82,-7.64,-5.84,-7.66,7.66,7.44,7.86,1.84,1.82,1.82
28.05,-5.70,-7.52,-5.73,-7.55,7.55,7.33,8.00,1.85,1.82,1.82
28.33,-5.62,-7.43,-5.62,-7.44,7.44,7.23,8.14,1.82,1.82,1.81
28.62,-5.54,-7.35,-5.51,-7.33,7.33,7.12,8.27,1.79,1.82,1.81
28.90,-5.46,-7.28,-5.41,-7.22,7.22,7.02,8.39,1.76,1.82,1.82
29.19,-5.34,-7.15,-5.30,-7.12,7.12,6.92,8.50,1.78,1.82,1.81
29.48,-5.20,-7.02,-5.20,-7.01,7.01,6.82,8.60,1.81,1.81,1.82
29.78,-5.06,-6.87,-5.09,-6.90,6.90,6.72,8.69,1.84,1.81,1.81
30.08,-4.93,-6.75,-4.99,-6.80,6.80,6.62,8.76,1.87,1.81,1.82
30.38,-4.85,-6.66,-4.89,-6.70,6.70,6.52,8.81,1.85,1.81,1.81
30.68,-4.77,-6.58,-4.79,-6.60,6.60,6.42,8.85,1.83,1.81,1.81
30.99,-4.69,-6.50,-4.69,-6.50,6.50,6.33,8.88,1.81,1.81,1.81
31.30,-4.60,-6.40,-4.59,-6.40,6.40,6.23,8.89,1.80,1.80,1.80
31.61,-4.51,-6.31,-4.50,-6.30,6.30,6.14,8.88,1.79,1.80,1.80
31.93,-4.41,-6.21,-4.40,-6.20,6.20,6.05,8.86,1.78,1.80,1.80
32.24,-4.32,-6.11,-4.30,-6.09,6.09,5.95,8.81,1.77,1.79,1.79
32.57,-4.22,-6.01,-4.21,-6.00,6.00,5.86,8.76,1.78,1.79,1.79
32.89,-4.12,-5.91,-4.12,-5.90,5.90,5.77,8.69,1.78,1.79,1.79
33.22,-4.03,-5.81,-4.03,-5.81,5.81,5.68,8.60,1.78,1.78,1.78
33.55,-3.94,-5.72,-3.94,-5.71,5.71,5.60,8.51,1.77,1.78,1.78
33.89,-3.85,-5.62,-3.85,-5.62,5.62,5.51,8.40,1.77,1.77,1.77
34.23,-3.75,-5.52,-3.76,-5.52,5.52,5.42,8.28,1.77,1.77,1.77
34.57,-3.65,-5.41,-3.67,-5.43,5.43,5.34,8.16,1.78,1.76,1.76
34.92,-3.54,-5.30,-3.58,-5.34,5.34,5.25,8.02,1.80,1.76,1.76
35.27,-3.47,-5.22,-3.49,-5.25,5.25,5.17,7.88,1.78,1.76,1.75
35.62,-3.41,-5.16,-3.41,-5.17,5.17,5.09,7.74,1.76,1.75,1.75
35.97,-3.35,-5.10,-3.34,-5.09,5.09,5.01,7.59,1.74,1.75,1.75
36.33,-3.28,-5.03,-3.26,-5.01,5.01,4.93,7.44,1.73,1.75,1.75
36.70,-3.20,-4.94,-3.19,-4.94,4.94,4.85,7.28,1.74,1.75,1.74
37.06,-3.12,-4.86,-3.12,-4.87,4.87,4.77,7.13,1.75,1.75,1.74
37.43,-3.04,-4.79,-3.05,-4.80,4.80,4.70,6.97,1.76,1.75,1.75
37.81,-2.96,-4.71,-2.98,-4.73,4.73,4.62,6.81,1.77,1.75,1.75
38.19,-2.90,-4.64,-2.91,-4.66,4.66,4.55,6.66,1.76,1.75,1.74
38.57,-2.85,-4.60,-2.85,-4.60,4.60,4.47,6.50,1.75,1.75,1.75
38.95,-2.80,-4.56,-2.78,-4.53,4.53,4.40,6.35,1.73,1.75,1.76
39.34,-2.73,-4.48,-2.71,-4.46,4.46,4.33,6.20,1.73,1.75,1.75
39.74,-2.66,-4.41,-2.63,-4.38,4.38,4.26,6.05,1.72,1.75,1.75
40.14,-2.58,-4.33,-2.56,-4.31,4.31,4.19,5.91,1.73,1.75,1.75
40.54,-2.50,-4.25,-2.49,-4.24,4.24,4.12,5.77,1.74,1.75,1.75
40.94,-2.41,-4.15,-2.43,-4.17,4.17,4.05,5.63,1.76,1.74,1.74
41.35,-2.37,-4.11,-2.36,-4.10,4.10,3.99,5.49,1.73,1.74,1.74
41.76,-2.33,-4.06,-2.31,-4.04,4.04,3.92,5.36,1.71,1.73,1.73
42.18,-2.27,-4.00,-2.26,-3.98,3.98,3.86,5.23,1.71,1.72,1.73
42.60,-2.19,-3.91,-2.22,-3.93,3.93,3.79,5.11,1.74,1.71,1.72
43.03,-2.11,-3.82,-2.19,-3.89,3.89,3.73,4.98,1.78,1.70,1.71
43.46,-2.11,-3.81,-2.17,-3.86,3.86,3.67,4.87,1.74,1.69,1.70
43.90,-2.11,-3.79,-2.15,-3.83,3.83,3.61,4.75,1.72,1.68,1.68
44.33,-2.11,-3.77,-2.15,-3.82,3.82,3.55,4.64,1.70,1.67,1.66
44.78,-2.12,-3.76,-2.15,-3.81,3.81,3.49,4.53,1.69,1.65,1.64
45.23,-2.14,-3.77,-2.16,-3.80,3.80,3.43,4.43,1.66,1.64,1.63
45.68,-2.18,-3.80,-2.17,-3.79,3.79,3.37,4.33,1.61,1.63,1.62
46.13,-2.21,-3.81,-2.18,-3.79,3.79,3.31,4.23,1.58,1.61,1.60
46.60,-2.23,-3.83,-2.19,-3.79,3.79,3.26,4.13,1.55,1.60,1.60
47.06,-2.24,-3.82,-2.19,-3.78,3.78,3.20,4.04,1.54,1.58,1.58
47.53,-2.22,-3.79,-2.19,-3.76,3.76,3.15,3.96,1.54,1.57,1.57
48.01,-2.20,-3.77,-2.18,-3.73,3.73,3.09,3.87,1.53,1.55,1.57
48.49,-2.20,-3.75,-2.15,-3.69,3.69,3.04,3.79,1.49,1.54,1.55
48.97,-2.19,-3.72,-2.12,-3.65,3.65,2.99,3.71,1.45,1.53,1.53
49.46,-2.12,-3.63,-2.09,-3.60,3.60,2.94,3.63,1.48,1.51,1.51
49.96,-2.05,-3.54,-2.06,-3.56,3.56,2.89,3.56,1.50,1.50,1.49
50.46,-2.04,-3.52,-2.02,-3.51,3.51,2.84,3.49,1.47,1.49,1.48
50.96,-2.03,-3.50,-1.98,-3.46,3.46,2.79,3.42,1.43,1.47,1.47
51.47,-1.92,-3.37,-1.95,-3.41,3.41,2.74,3.35,1.49,1.46,1.45
51.99,-1.80,-3.24,-1.93,-3.38,3.38,2.69,3.29,1.57,1.45,1.44
52.51,-1.81,-3.24,-1.92,-3.35,3.35,2.64,3.23,1.54,1.43,1.43
53.03,-1.82,-3.25,-1.91,-3.34,3.34,2.60,3.17,1.51,1.42,1.43
53.56,-1.91,-3.32,-1.92,-3.33,3.33,2.55,3.11,1.41,1.41,1.41
54.10,-1.98,-3.38,-1.93,-3.33,3.33,2.51,3.05,1.35,1.40,1.40
54.64,-2.01,-3.39,-1.96,-3.35,3.35,2.46,2.99,1.34,1.39,1.38
55.18,-2.02,-3.40,-2.02,-3.39,3.39,2.42,2.94,1.37,1.38,1.38
55.74,-2.01,-3.37,-2.07,-3.44,3.44,2.38,2.89,1.43,1.37,1.36
56.29,-2.07,-3.42,-2.14,-3.49,3.49,2.34,2.83,1.42,1.35,1.35
56.86,-2.20,-3.54,-2.21,-3.55,3.55,2.30,2.78,1.34,1.34,1.34
57.42,-2.26,-3.57,-2.28,-3.60,3.60,2.25,2.73,1.34,1.32,1.31
58.00,-2.31,-3.61,-2.34,-3.65,3.65,2.21,2.68,1.33,1.30,1.30
58.58,-2.36,-3.65,-2.40,-3.68,3.68,2.18,2.63,1.32,1.28,1.29
59.16,-2.44,-3.71,-2.45,-3.70,3.70,2.14,2.58,1.26,1.26,1.27
59.76,-2.57,-3.82,-2.48,-3.71,3.71,2.10,2.53,1.14,1.23,1.25
60.35,-2.62,-3.83,-2.50,-3.70,3.70,2.06,2.48,1.08,1.20,1.21
60.96,-2.59,-3.76,-2.51,-3.68,3.68,2.02,2.44,1.09,1.17,1.17
61.57,-2.53,-3.66,-2.51,-3.63,3.63,1.99,2.39,1.10,1.13,1.13
62.18,-2.48,-3.57,-2.48,-3.57,3.57,1.95,2.34,1.09,1.09,1.09
62.80,-2.44,-3.48,-2.43,-3.48,3.48,1.92,2.29,1.04,1.05,1.04
63.43,-2.40,-3.40,-2.37,-3.38,3.38,1.88,2.24,0.98,1.01,1.00
64.07,-2.35,-3.30,-2.30,-3.26,3.26,1.85,2.19,0.91,0.96,0.95
64.71,-2.25,-3.16,-2.22,-3.13,3.13,1.81,2.14,0.88,0.92,0.91
65.35,-2.12,-2.99,-2.12,-2.99,2.99,1.78,2.08,0.87,0.87,0.87
66.01,-1.98,-2.80,-2.01,-2.83,2.83,1.75,2.03,0.85,0.82,0.82
66.67,-1.84,-2.61,-1.90,-2.68,2.68,1.72,1.98,0.83,0.77,0.77
67.33,-1.73,-2.45,-1.80,-2.52,2.52,1.69,1.93,0.79,0.73,0.72
68.01,-1.66,-2.34,-1.69,-2.37,2.37,1.65,1.88,0.71,0.68,0.68
68.69,-1.58,-2.21,-1.58,-2.21,2.21,1.62,1.83,0.63,0.63,0.63
69.37,-1.50,-2.08,-1.48,-2.06,2.06,1.59,1.77,0.56,0.58,0.58
70.07,-1.41,-1.94,-1.38,-1.91,1.91,1.56,1.72,0.49,0.53,0.53
70.77,-1.27,-1.75,-1.28,-1.76,1.76,1.54,1.67,0.48,0.47,0.48
71.48,-1.17,-1.60,-1.20,-1.61,1.61,1.51,1.61,0.44,0.42,0.43
72.19,-1.10,-1.46,-1.12,-1.48,1.48,1.48,1.56,0.38,0.36,0.36
72.91,-1.06,-1.36,-1.05,-1.35,1.35,1.45,1.51,0.29,0.30,0.30
73.64,-1.01,-1.26,-0.99,-1.24,1.24,1.42,1.45,0.23,0.25,0.25
74.38,-0.91,-1.10,-0.93,-1.12,1.12,1.40,1.40,0.21,0.19,0.19
75.12,-0.80,-0.93,-0.88,-1.01,1.01,1.37,1.35,0.21,0.14,0.13
75.87,-0.80,-0.87,-0.83,-0.91,0.91,1.35,1.30,0.10,0.08,0.07
76.63,-0.80,-0.82,-0.78,-0.81,0.81,1.32,1.24,0.01,0.03,0.02
77.40,-0.76,-0.73,-0.75,-0.72,0.72,1.30,1.19,-0.04,-0.03,-0.03
78.17,-0.70,-0.61,-0.72,-0.64,0.64,1.27,1.14,-0.07,-0.08,-0.09
78.95,-0.70,-0.57,-0.69,-0.56,0.56,1.25,1.09,-0.14,-0.13,-0.13
79.74,-0.70,-0.52,-0.67,-0.49,0.49,1.22,1.04,-0.21,-0.18,-0.18
80.54,-0.68,-0.45,-0.64,-0.41,0.41,1.20,0.99,-0.27,-0.23,-0.23
81.35,-0.64,-0.36,-0.62,-0.34,0.34,1.18,0.94,-0.30,-0.28,-0.28
82.16,-0.60,-0.27,-0.60,-0.28,0.28,1.16,0.89,-0.33,-0.33,-0.33
82.98,-0.60,-0.23,-0.59,-0.22,0.22,1.13,0.84,-0.38,-0.37,-0.37
83.81,-0.60,-0.18,-0.59,-0.17,0.17,1.11,0.79,-0.43,-0.42,-0.42
84.65,-0.60,-0.13,-0.60,-0.13,0.13,1.09,0.74,-0.47,-0.47,-0.47
85.50,-0.60,-0.09,-0.61,-0.09,0.09,1.07,0.69,-0.51,-0.52,-0.51
86.35,-0.60,-0.04,-0.63,-0.07,0.07,1.05,0.64,-0.53,-0.57,-0.56
87.22,-0.60,0.01,-0.67,-0.05,0.05,1.03,0.59,-0.55,-0.62,-0.61
88.09,-0.60,0.06,-0.70,-0.04,0.04,1.01,0.54,-0.57,-0.67,-0.66
88.97,-0.64,0.08,-0.74,-0.03,0.03,0.99,0.49,-0.61,-0.72,-0.72
89.86,-0.78,-0.01,-0.79,-0.02,0.02,0.97,0.45,-0.76,-0.77,-0.77
90.76,-0.88,-0.06,-0.84,-0.02,0.02,0.95,0.40,-0.86,-0.82,-0.82
91.66,-0.94,-0.07,-0.89,-0.02,0.02,0.93,0.35,-0.92,-0.87,-0.87
92.58,-0.99,-0.06,-0.93,-0.01,0.01,0.91,0.31,-0.98,-0.92,-0.93
93.51,-1.06,-0.08,-0.98,-0.01,0.01,0.90,0.26,-1.05,-0.97,-0.98
94.44,-1.10,-0.08,-1.02,0.00,-0.00,0.88,0.21,-1.11,-1.02,-1.02
95.39,-1.10,-0.03,-1.06,0.02,-0.02,0.86,0.17,-1.12,-1.07,-1.07
96.34,-1.10,0.02,-1.09,0.03,-0.03,0.84,0.12,-1.13,-1.12,-1.12
97.30,-1.11,0.06,-1.12,0.05,-0.05,0.83,0.07,-1.16,-1.17,-1.17
98.28,-1.12,0.10,-1.14,0.07,-0.07,0.81,0.03,-1.19,-1.22,-1.22
99.26,-1.13,0.13,-1.16,0.10,-0.10,0.79,-0.02,-1.23,-1.26,-1.26
100.25,-1.15,0.16,-1.18,0.13,-0.13,0.78,-0.06,-1.28,-1.31,-1.31
101.25,-1.17,0.19,-1.20,0.16,-0.16,0.76,-0.10,-1.33,-1.36,-1.36
102.27,-1.19,0.22,-1.23,0.18,-0.18,0.75,-0.15,-1.37,-1.41,-1.41
103.29,-1.22,0.24,-1.26,0.20,-0.20,0.73,-0.19,-1.42,-1.46,-1.46
104.32,-1.27,0.23,-1.29,0.22,-0.22,0.72,-0.23,-1.49,-1.51,-1.50
105.37,-1.34,0.21,-1.33,0.23,-0.23,0.70,-0.27,-1.57,-1.56,-1.55
106.42,-1.36,0.24,-1.37,0.24,-0.24,0.69,-0.31,-1.60,-1.61,-1.60
107.48,-1.39,0.27,-1.40,0.26,-0.26,0.67,-0.35,-1.65,-1.66,-1.66
108.56,-1.46,0.25,-1.44,0.27,-0.27,0.66,-0.39,-1.73,-1.71,-1.71
109.64,-1.53,0.23,-1.48,0.29,-0.29,0.64,-0.42,-1.82,-1.76,-1.76
110.74,-1.55,0.27,-1.51,0.31,-0.31,0.63,-0.46,-1.86,-1.82,-1.82
111.85,-1.57,0.29,-1.54,0.33,-0.33,0.62,-0.49,-1.90,-1.87,-1.86
112.97,-1.58,0.34,-1.58,0.34,-0.34,0.60,-0.52,-1.92,-1.92,-1.92
114.10,-1.58,0.39,-1.61,0.36,-0.36,0.59,-0.55,-1.94,-1.97,-1.97
115.24,-1.60,0.42,-1.63,0.38,-0.38,0.58,-0.58,-1.98,-2.01,-2.02
116.39,-1.67,0.40,-1.66,0.40,-0.40,0.57,-0.61,-2.07,-2.06,-2.07
117.55,-1.68,0.43,-1.69,0.41,-0.41,0.55,-0.63,-2.09,-2.10,-2.11
118.73,-1.66,0.49,-1.71,0.43,-0.43,0.54,-0.65,-2.09,-2.14,-2.15
119.92,-1.71,0.47,-1.74,0.44,-0.44,0.53,-0.67,-2.15,-2.18,-2.18
121.12,-1.76,0.46,-1.76,0.46,-0.46,0.52,-0.69,-2.22,-2.21,-2.22
122.33,-1.79,0.46,-1.78,0.47,-0.47,0.51,-0.70,-2.26,-2.25,-2.25
123.55,-1.84,0.44,-1.80,0.48,-0.48,0.50,-0.71,-2.32,-2.28,-2.28
124.79,-1.86,0.45,-1.82,0.49,-0.49,0.48,-0.72,-2.35,-2.31,-2.31
126.03,-1.83,0.51,-1.85,0.49,-0.49,0.47,-0.73,-2.32,-2.34,-2.34
127.29,-1.92,0.44,-1.89,0.49,-0.49,0.46,-0.73,-2.41,-2.37,-2.36
128.57,-1.96,0.44,-1.91,0.49,-0.49,0.45,-0.74,-2.45,-2.40,-2.40
129.85,-1.89,0.54,-1.93,0.50,-0.50,0.44,-0.73,-2.39,-2.43,-2.43
131.15,-1.88,0.58,-1.96,0.50,-0.50,0.43,-0.73,-2.38,-2.46,-2.46
132.46,-1.97,0.52,-1.99,0.50,-0.50,0.42,-0.72,-2.47,-2.49,-2.49
133.79,-2.00,0.52,-2.02,0.50,-0.50,0.41,-0.72,-2.50,-2.52,-2.52
135.12,-2.04,0.51,-2.05,0.49,-0.49,0.40,-0.71,-2.54,-2.54,-2.55
136.48,-2.10,0.47,-2.08,0.49,-0.49,0.39,-0.69,-2.59,-2.57,-2.57
137.84,-2.18,0.43,-2.12,0.48,-0.48,0.38,-0.68,-2.66,-2.60,-2.61
139.22,-2.19,0.45,-2.16,0.47,-0.47,0.37,-0.66,-2.66,-2.63,-2.64
140.61,-2.18,0.49,-2.20,0.46,-0.46,0.36,-0.65,-2.64,-2.66,-2.67
142.02,-2.17,0.52,-2.24,0.45,-0.45,0.35,-0.63,-2.62,-2.69,-2.69
143.44,-2.30,0.42,-2.29,0.44,-0.44,0.35,-0.61,-2.74,-2.72,-2.72
144.87,-2.39,0.37,-2.34,0.42,-0.42,0.34,-0.58,-2.81,-2.76,-2.76
146.32,-2.38,0.42,-2.39,0.42,-0.42,0.33,-0.56,-2.80,-2.81,-2.80
147.78,-2.43,0.40,-2.44,0.42,-0.42,0.32,-0.54,-2.85,-2.86,-2.83
149.26,-2.50,0.38,-2.51,0.40,-0.40,0.31,-0.51,-2.90,-2.91,-2.88
150.75,-2.58,0.36,-2.59,0.38,-0.38,0.30,-0.49,-2.96,-2.97,-2.94
152.26,-2.64,0.37,-2.67,0.36,-0.36,0.29,-0.46,-3.00,-3.03,-3.01
153.78,-2.69,0.39,-2.76,0.33,-0.33,0.29,-0.43,-3.02,-3.09,-3.08
155.32,-2.78,0.37,-2.86,0.31,-0.31,0.28,-0.41,-3.09,-3.16,-3.15
156.88,-2.87,0.36,-2.94,0.29,-0.29,0.27,-0.38,-3.16,-3.23,-3.23
158.44,-2.96,0.35,-3.02,0.29,-0.29,0.26,-0.35,-3.25,-3.30,-3.31
160.03,-3.09,0.30,-3.09,0.29,-0.29,0.25,-0.32,-3.38,-3.37,-3.39
161.63,-3.20,0.26,-3.16,0.28,-0.28,0.25,-0.30,-3.48,-3.44,-3.46
163.24,-3.38,0.14,-3.22,0.28,-0.28,0.24,-0.27,-3.66,-3.50,-3.52
164.88,-3.51,0.06,-3.27,0.28,-0.28,0.23,-0.24,-3.79,-3.55,-3.57
166.53,-3.42,0.20,-3.32,0.28,-0.28,0.22,-0.21,-3.70,-3.60,-3.62
168.19,-3.40,0.26,-3.37,0.28,-0.28,0.22,-0.18,-3.68,-3.64,-3.66
169.87,-3.34,0.36,-3.40,0.27,-0.27,0.21,-0.15,-3.62,-3.68,-3.70
171.57,-3.32,0.40,-3.43,0.27,-0.27,0.20,-0.13,-3.59,-3.70,-3.72
173.29,-3.33,0.40,-3.44,0.28,-0.28,0.19,-0.10,-3.61,-3.72,-3.73
175.02,-3.37,0.37,-3.45,0.29,-0.29,0.19,-0.07,-3.66,-3.73,-3.74
176.77,-3.49,0.26,-3.45,0.30,-0.30,0.18,-0.04,-3.79,-3.74,-3.75
178.54,-3.46,0.30,-3.45,0.30,-0.30,0.17,-0.01,-3.76,-3.75,-3.76
180.32,-3.44,0.31,-3.47,0.29,-0.29,0.17,0.02,-3.73,-3.76,-3.75
182.13,-3.49,0.25,-3.49,0.27,-0.27,0.16,0.04,-3.77,-3.76,-3.74
183.95,-3.60,0.15,-3.52,0.25,-0.25,0.15,0.07,-3.85,-3.77,-3.75
185.79,-3.56,0.19,-3.56,0.22,-0.22,0.15,0.10,-3.78,-3.77,-3.75
187.65,-3.51,0.26,-3.59,0.19,-0.19,0.14,0.13,-3.70,-3.78,-3.77
189.52,-3.56,0.22,-3.64,0.16,-0.16,0.13,0.15,-3.72,-3.79,-3.78
191.42,-3.58,0.22,-3.67,0.13,-0.13,0.13,0.18,-3.71,-3.81,-3.80
193.33,-3.71,0.11,-3.71,0.11,-0.11,0.12,0.21,-3.83,-3.82,-3.82
195.27,-3.81,0.03,-3.73,0.11,-0.11,0.11,0.24,-3.92,-3.84,-3.84
197.22,-3.92,-0.06,-3.77,0.09,-0.09,0.11,0.26,-4.01,-3.86,-3.86
199.19,-3.92,-0.04,-3.82,0.05,-0.05,0.10,0.29,-3.98,-3.87,-3.88
201.18,-3.84,0.06,-3.87,0.03,-0.03,0.09,0.32,-3.87,-3.90,-3.90
203.19,-3.80,0.12,-3.91,0.01,-0.01,0.09,0.34,-3.81,-3.92,-3.92
205.23,-3.88,0.06,-3.95,-0.01,0.01,0.08,0.37,-3.87,-3.94,-3.94
207.28,-4.00,-0.05,-4.00,-0.04,0.04,0.08,0.39,-3.96,-3.96,-3.95
209.35,-4.03,-0.06,-4.06,-0.08,0.08,0.07,0.42,-3.95,-3.98,-3.97
211.44,-4.02,-0.02,-4.10,-0.11,0.11,0.06,0.44,-3.92,-3.99,-4.00
213.56,-4.09,-0.08,-4.12,-0.11,0.11,0.06,0.46,-3.98,-4.01,-4.01
215.69,-4.19,-0.17,-4.14,-0.12,0.12,0.05,0.48,-4.07,-4.02,-4.02
217.85,-4.37,-0.34,-4.18,-0.14,0.14,0.05,0.51,-4.23,-4.03,-4.03
220.03,-4.27,-0.23,-4.21,-0.17,0.17,0.04,0.53,-4.10,-4.04,-4.04
222.23,-4.22,-0.15,-4.25,-0.20,0.20,0.03,0.55,-4.02,-4.05,-4.07
224.45,-4.30,-0.24,-4.31,-0.26,0.26,0.03,0.57,-4.05,-4.05,-4.06
226.70,-4.32,-0.26,-4.35,-0.30,0.30,0.02,0.58,-4.02,-4.05,-4.06
228.96,-4.41,-0.36,-4.39,-0.34,0.34,0.01,0.60,-4.07,-4.05,-4.05
231.25,-4.39,-0.35,-4.42,-0.38,0.38,0.01,0.61,-4.01,-4.04,-4.04
233.57,-4.27,-0.24,-4.45,-0.42,0.42,0.00,0.63,-3.85,-4.03,-4.03
235.90,-4.31,-0.29,-4.47,-0.46,0.46,-0.00,0.64,-3.85,-4.01,-4.02
238.26,-4.63,-0.62,-4.50,-0.51,0.51,-0.01,0.65,-4.12,-4.00,-4.01
240.64,-4.68,-0.70,-4.54,-0.56,0.56,-0.02,0.66,-4.12,-3.98,-3.98
243.05,-4.59,-0.64,-4.58,-0.62,0.62,-0.02,0.67,-3.97,-3.96,-3.95
245.48,-4.70,-0.77,-4.64,-0.71,0.71,-0.03,0.67,-3.99,-3.93,-3.93
247.93,-4.77,-0.87,-4.68,-0.77,0.77,-0.03,0.67,-4.00,-3.91,-3.90
250.41,-4.62,-0.74,-4.70,-0.82,0.82,-0.04,0.68,-3.81,-3.89,-3.88
252.92,-4.62,-0.77,-4.73,-0.87,0.87,-0.05,0.68,-3.75,-3.86,-3.85
255.45,-4.66,-0.83,-4.76,-0.92,0.92,-0.05,0.67,-3.74,-3.84,-3.83
258.00,-4.72,-0.91,-4.80,-0.99,0.99,-0.06,0.67,-3.73,-3.81,-3.81
260.58,-4.87,-1.08,-4.83,-1.04,1.04,-0.06,0.67,-3.83,-3.79,-3.79
263.19,-4.99,-1.23,-4.83,-1.07,1.07,-0.07,0.66,-3.93,-3.76,-3.76
265.82,-4.90,-1.16,-4.83,-1.09,1.09,-0.08,0.65,-3.81,-3.74,-3.74
268.48,-4.85,-1.13,-4.84,-1.12,1.12,-0.08,0.64,-3.73,-3.71,-3.72
271.16,-4.85,-1.16,-4.83,-1.14,1.14,-0.09,0.63,-3.71,-3.69,-3.69
273.87,-4.60,-0.93,-4.82,-1.15,1.15,-0.09,0.62,-3.45,-3.66,-3.67
276.61,-4.82,-1.18,-4.81,-1.17,1.17,-0.10,0.60,-3.65,-3.64,-3.64
279.38,-4.91,-1.30,-4.79,-1.18,1.18,-0.11,0.59,-3.74,-3.61,-3.61
282.17,-4.87,-1.28,-4.76,-1.17,1.17,-0.11,0.57,-3.70,-3.58,-3.59
284.99,-4.78,-1.23,-4.71,-1.16,1.16,-0.12,0.56,-3.62,-3.55,-3.55
287.84,-4.52,-0.99,-4.66,-1.14,1.14,-0.13,0.54,-3.38,-3.53,-3.53
290.72,-4.55,-1.05,-4.61,-1.12,1.12,-0.13,0.52,-3.44,-3.50,-3.50
293.63,-4.69,-1.22,-4.57,-1.10,1.10,-0.14,0.50,-3.59,-3.47,-3.47
296.57,-4.41,-0.97,-4.53,-1.09,1.09,-0.15,0.48,-3.32,-3.44,-3.44
299.53,-4.38,-0.97,-4.48,-1.07,1.07,-0.15,0.46,-3.31,-3.41,-3.41
302.53,-4.54,-1.15,-4.45,-1.07,1.07,-0.16,0.44,-3.47,-3.38,-3.39
305.55,-4.38,-1.03,-4.42,-1.07,1.07,-0.17,0.42,-3.32,-3.36,-3.35
308.61,-4.26,-0.93,-4.37,-1.03,1.03,-0.17,0.40,-3.23,-3.33,-3.33
311.69,-4.36,-1.06,-4.31,-1.00,1.00,-0.18,0.38,-3.36,-3.31,-3.30
314.81,-4.23,-0.95,-4.26,-0.98,0.98,-0.19,0.35,-3.26,-3.29,-3.28
317.96,-4.22,-0.96,-4.22,-0.95,0.95,-0.19,0.33,-3.27,-3.27,-3.26
321.14,-4.20,-0.95,-4.17,-0.92,0.92,-0.20,0.31,-3.28,-3.25,-3.25
324.35,-4.11,-0.88,-4.09,-0.86,0.86,-0.21,0.29,-3.25,-3.23,-3.23
327.59,-4.05,-0.83,-4.02,-0.80,0.80,-0.21,0.27,-3.25,-3.22,-3.22
330.87,-4.11,-0.90,-3.96,-0.76,0.76,-0.22,0.25,-3.35,-3.20,-3.21
334.18,-3.99,-0.80,-3.88,-0.69,0.69,-0.23,0.22,-3.30,-3.19,-3.19
337.52,-3.74,-0.56,-3.80,-0.62,0.62,-0.24,0.20,-3.12,-3.18,-3.18
340.90,-3.53,-0.36,-3.72,-0.55,0.55,-0.24,0.18,-2.98,-3.17,-3.17
344.30,-3.48,-0.32,-3.63,-0.46,0.46,-0.25,0.16,-3.02,-3.17,-3.16
347.75,-3.54,-0.38,-3.50,-0.34,0.34,-0.26,0.14,-3.20,-3.16,-3.16
351.23,-3.37,-0.22,-3.37,-0.22,0.22,-0.27,0.12,-3.16,-3.15,-3.15
354.74,-3.25,-0.09,-3.24,-0.09,0.09,-0.27,0.09,-3.16,-3.15,-3.16
358.28,-3.15,-0.00,-3.11,0.04,-0.04,-0.28,0.07,-3.19,-3.15,-3.15
361.87,-3.14,0.01,-2.97,0.17,-0.17,-0.29,0.05,-3.31,-3.15,-3.15
365.49,-3.03,0.11,-2.84,0.30,-0.30,-0.30,0.03,-3.33,-3.15,-3.14
369.14,-2.73,0.42,-2.71,0.44,-0.44,-0.31,0.01,-3.17,-3.15,-3.15
372.83,-2.53,0.62,-2.57,0.58,-0.58,-0.32,-0.01,-3.11,-3.15,-3.15
376.56,-2.37,0.79,-2.43,0.72,-0.72,-0.32,-0.03,-3.09,-3.15,-3.16
380.33,-2.07,1.08,-2.30,0.86,-0.86,-0.33,-0.05,-2.93,-3.15,-3.15
384.13,-1.95,1.20,-2.16,1.00,-1.00,-0.34,-0.07,-2.95,-3.16,-3.15
387.97,-2.13,1.03,-2.02,1.14,-1.14,-0.35,-0.09,-3.27,-3.16,-3.16
391.85,-2.01,1.16,-1.89,1.28,-1.28,-0.36,-0.11,-3.29,-3.17,-3.17
395.77,-1.76,1.40,-1.77,1.40,-1.40,-0.37,-0.13,-3.16,-3.17,-3.16
399.73,-1.65,1.52,-1.65,1.52,-1.52,-0.38,-0.15,-3.18,-3.18,-3.17
403.72,-1.62,1.55,-1.54,1.65,-1.65,-0.39,-0.17,-3.27,-3.18,-3.17
407.76,-1.35,1.84,-1.43,1.76,-1.76,-0.40,-0.19,-3.11,-3.19,-3.19
411.84,-1.20,1.99,-1.33,1.85,-1.85,-0.41,-0.21,-3.06,-3.19,-3.19
415.96,-1.40,1.79,-1.24,1.95,-1.95,-0.42,-0.23,-3.36,-3.19,-3.19
420.12,-1.29,1.90,-1.14,2.05,-2.05,-0.43,-0.25,-3.34,-3.19,-3.19
424.32,-1.13,2.06,-1.06,2.12,-2.12,-0.44,-0.27,-3.26,-3.18,-3.19
428.56,-0.93,2.25,-0.98,2.19,-2.19,-0.45,-0.29,-3.12,-3.17,-3.18
432.85,-0.94,2.23,-0.91,2.24,-2.24,-0.46,-0.31,-3.18,-3.16,-3.17
437.18,-0.98,2.18,-0.88,2.26,-2.26,-0.47,-0.33,-3.24,-3.14,-3.16
441.55,-0.75,2.37,-0.85,2.26,-2.26,-0.48,-0.35,-3.01,-3.11,-3.12
445.96,-0.69,2.40,-0.83,2.25,-2.25,-0.49,-0.37,-2.94,-3.08,-3.09
450.42,-0.77,2.29,-0.85,2.19,-2.19,-0.50,-0.39,-2.96,-3.04,-3.06
454.93,-0.87,2.14,-0.95,2.05,-2.05,-0.51,-0.41,-2.92,-3.00,-3.01
459.48,-0.99,1.98,-1.10,1.85,-1.85,-0.52,-0.43,-2.84,-2.96,-2.97
464.07,-1.14,1.78,-1.26,1.65,-1.65,-0.53,-0.45,-2.79,-2.91,-2.92
