frequency,raw,error,smoothed,error_smoothed,equalization,parametric_eq,fixed_band_eq,equalized_raw,equalized_smoothed,target
20.00,-0.05,-3.58,-0.10,-3.65,3.65,3.25,0.27,3.59,3.54,3.52
20.20,-0.00,-3.56,-0.01,-3.57,3.57,3.33,0.27,3.57,3.57,3.55
20.40,0.06,-3.52,0.09,-3.50,3.50,3.40,0.28,3.56,3.59,3.58
20.61,0.16,-3.45,0.18,-3.42,3.42,3.45,0.29,3.58,3.61,3.60
20.81,0.27,-3.36,0.28,-3.34,3.34,3.49,0.30,3.61,3.62,3.63
21.02,0.37,-3.30,0.37,-3.27,3.27,3.50,0.30,3.63,3.64,3.66
21.23,0.47,-3.21,0.47,-3.18,3.18,3.50,0.31,3.65,3.65,3.67
21.44,0.56,-3.12,0.56,-3.10,3.10,3.49,0.32,3.66,3.67,3.68
21.66,0.66,-3.04,0.66,-3.02,3.02,3.45,0.33,3.68,3.68,3.69
21.87,0.76,-2.93,0.75,-2.94,2.94,3.40,0.33,3.69,3.69,3.69
22.09,0.84,-2.86,0.85,-2.85,2.85,3.33,0.34,3.69,3.70,3.70
22.31,0.95,-2.75,0.94,-2.76,2.76,3.25,0.35,3.71,3.70,3.70
22.54,1.05,-2.66,1.04,-2.67,2.67,3.15,0.36,3.71,3.70,3.70
22.76,1.13,-2.57,1.13,-2.57,2.57,3.05,0.37,3.70,3.70,3.70
22.99,1.23,-2.47,1.22,-2.48,2.48,2.95,0.38,3.70,3.70,3.69
23.22,1.32,-2.38,1.32,-2.38,2.38,2.83,0.39,3.70,3.70,3.69
23.45,1.40,-2.29,1.40,-2.29,2.29,2.72,0.40,3.69,3.70,3.69
23.69,1.50,-2.20,1.49,-2.20,2.20,2.60,0.41,3.70,3.70,3.69
23.92,1.59,-2.10,1.58,-2.11,2.11,2.48,0.42,3.70,3.69,3.69
24.16,1.66,-2.03,1.67,-2.02,2.02,2.37,0.43,3.68,3.69,3.69
24.40,1.77,-1.92,1.76,-1.93,1.93,2.26,0.44,3.70,3.69,3.69
24.65,1.85,-1.84,1.84,-1.84,1.84,2.15,0.45,3.69,3.69,3.68
24.89,1.93,-1.75,1.93,-1.76,1.76,2.04,0.46,3.68,3.68,3.68
25.14,2.02,-1.66,2.01,-1.67,1.67,1.94,0.47,3.69,3.68,3.68
25.39,2.09,-1.59,2.10,-1.58,1.58,1.84,0.48,3.67,3.68,3.68
25.65,2.18,-1.51,2.18,-1.50,1.50,1.74,0.49,3.68,3.68,3.68
25.91,2.25,-1.43,2.26,-1.42,1.42,1.65,0.50,3.66,3.68,3.67
26.16,2.36,-1.31,2.34,-1.34,1.34,1.57,0.51,3.69,3.67,3.67
26.43,2.42,-1.26,2.42,-1.26,1.26,1.49,0.51,3.67,3.67,3.67
26.69,2.50,-1.18,2.49,-1.18,1.18,1.41,0.52,3.67,3.67,3.67
26.96,2.58,-1.10,2.57,-1.10,1.10,1.34,0.53,3.67,3.67,3.67
27.23,2.64,-1.03,2.64,-1.02,1.02,1.27,0.54,3.66,3.66,3.66
27.50,2.72,-0.95,2.71,-0.95,0.95,1.20,0.55,3.66,3.66,3.66
27.77,2.78,-0.87,2.78,-0.87,0.87,1.14,0.56,3.65,3.66,3.65
28.05,2.85,-0.81,2.85,-0.80,0.80,1.08,0.56,3.65,3.65,3.65
28.33,2.92,-0.73,2.92,-0.73,0.73,1.03,0.57,3.64,3.65,3.64
28.62,2.99,-0.66,2.99,-0.66,0.66,0.98,0.58,3.64,3.64,3.64
28.90,3.07,-0.58,3.05,-0.59,0.59,0.93,0.58,3.65,3.64,3.64
29.19,3.12,-0.52,3.12,-0.52,0.52,0.88,0.59,3.64,3.63,3.63
29.48,3.19,-0.45,3.18,-0.45,0.45,0.84,0.59,3.64,3.63,3.63
29.78,3.24,-0.39,3.24,-0.38,0.38,0.79,0.59,3.62,3.62,3.62
30.08,3.30,-0.33,3.31,-0.31,0.31,0.75,0.59,3.61,3.62,3.62
30.38,3.37,-0.25,3.37,-0.25,0.25,0.72,0.59,3.61,3.61,3.61
30.68,3.42,-0.20,3.43,-0.18,0.18,0.68,0.59,3.60,3.61,3.61
30.99,3.49,-0.12,3.48,-0.12,0.12,0.65,0.59,3.60,3.60,3.60
31.30,3.55,-0.05,3.54,-0.06,0.06,0.61,0.59,3.60,3.60,3.59
31.61,3.60,0.00,3.60,0.00,-0.00,0.58,0.59,3.59,3.59,3.59
31.93,3.66,0.07,3.65,0.06,-0.06,0.55,0.58,3.59,3.58,3.58
32.24,3.72,0.14,3.70,0.12,-0.12,0.53,0.58,3.59,3.58,3.57
32.57,3.75,0.17,3.75,0.18,-0.18,0.50,0.57,3.57,3.57,3.57
32.89,3.80,0.23,3.80,0.24,-0.24,0.47,0.57,3.56,3.56,3.56
33.22,3.85,0.29,3.85,0.29,-0.29,0.45,0.56,3.55,3.56,3.55
33.55,3.89,0.34,3.90,0.35,-0.35,0.43,0.55,3.54,3.55,3.55
33.89,3.94,0.39,3.94,0.40,-0.40,0.41,0.54,3.54,3.54,3.54
34.23,3.99,0.45,3.98,0.45,-0.45,0.38,0.53,3.53,3.53,3.53
34.57,4.02,0.49,4.02,0.50,-0.50,0.36,0.52,3.52,3.52,3.52
34.92,4.07,0.55,4.06,0.55,-0.55,0.34,0.51,3.52,3.51,3.51
35.27,4.10,0.59,4.10,0.60,-0.60,0.33,0.50,3.50,3.50,3.50
35.62,4.15,0.65,4.14,0.64,-0.64,0.31,0.49,3.50,3.49,3.49
35.97,4.18,0.69,4.17,0.69,-0.69,0.29,0.48,3.49,3.48,3.48
36.33,4.21,0.73,4.21,0.73,-0.73,0.27,0.47,3.47,3.47,3.47
36.70,4.24,0.77,4.24,0.78,-0.78,0.26,0.46,3.46,3.46,3.46
37.06,4.27,0.81,4.27,0.82,-0.82,0.24,0.44,3.45,3.45,3.45
37.43,4.31,0.86,4.30,0.86,-0.86,0.23,0.43,3.45,3.44,3.44
37.81,4.33,0.89,4.33,0.90,-0.90,0.21,0.42,3.43,3.43,3.43
38.19,4.35,0.92,4.35,0.93,-0.93,0.20,0.41,3.41,3.42,3.42
38.57,4.39,0.97,4.38,0.97,-0.97,0.18,0.40,3.42,3.41,3.41
38.95,4.39,0.99,4.40,1.00,-1.00,0.17,0.39,3.39,3.40,3.40
39.34,4.44,1.05,4.42,1.03,-1.03,0.16,0.38,3.41,3.39,3.38
39.74,4.44,1.06,4.44,1.06,-1.06,0.14,0.36,3.38,3.38,3.37
40.14,4.45,1.08,4.45,1.09,-1.09,0.13,0.35,3.36,3.37,3.36
40.54,4.48,1.12,4.47,1.11,-1.11,0.12,0.34,3.36,3.36,3.35
40.94,4.48,1.13,4.48,1.14,-1.14,0.11,0.33,3.34,3.35,3.34
41.35,4.48,1.14,4.49,1.16,-1.16,0.10,0.32,3.32,3.33,3.33
41.76,4.52,1.19,4.50,1.18,-1.18,0.08,0.31,3.33,3.32,3.32
42.18,4.52,1.20,4.51,1.20,-1.20,0.07,0.30,3.31,3.31,3.31
42.60,4.52,1.21,4.52,1.22,-1.22,0.06,0.30,3.30,3.29,3.30
43.03,4.52,1.22,4.52,1.24,-1.24,0.05,0.29,3.28,3.28,3.29
43.46,4.52,1.24,4.52,1.25,-1.25,0.04,0.28,3.26,3.27,3.27
43.90,4.52,1.26,4.52,1.27,-1.27,0.03,0.27,3.25,3.25,3.25
44.33,4.52,1.28,4.52,1.28,-1.28,0.02,0.26,3.23,3.24,3.23
44.78,4.52,1.30,4.52,1.29,-1.29,0.01,0.26,3.22,3.22,3.21
45.23,4.52,1.32,4.51,1.30,-1.30,-0.00,0.25,3.21,3.21,3.19
45.68,4.51,1.32,4.50,1.31,-1.31,-0.01,0.24,3.19,3.19,3.18
46.13,4.48,1.31,4.49,1.32,-1.32,-0.02,0.24,3.15,3.17,3.16
46.60,4.48,1.32,4.48,1.33,-1.33,-0.03,0.23,3.15,3.15,3.15
47.06,4.48,1.34,4.46,1.34,-1.34,-0.04,0.22,3.14,3.13,3.13
47.53,4.44,1.32,4.45,1.34,-1.34,-0.05,0.22,3.09,3.11,3.11
48.01,4.44,1.33,4.43,1.35,-1.35,-0.06,0.21,3.09,3.08,3.10
48.49,4.41,1.33,4.41,1.35,-1.35,-0.07,0.21,3.06,3.06,3.07
48.97,4.39,1.34,4.39,1.35,-1.35,-0.08,0.20,3.04,3.04,3.04
49.46,4.36,1.34,4.36,1.34,-1.34,-0.09,0.19,3.01,3.02,3.01
49.96,4.33,1.34,4.33,1.34,-1.34,-0.10,0.19,2.99,2.99,2.98
50.46,4.31,1.34,4.30,1.33,-1.33,-0.11,0.18,2.97,2.97,2.96
50.96,4.27,1.32,4.27,1.33,-1.33,-0.12,0.18,2.94,2.94,2.94
51.47,4.24,1.32,4.23,1.31,-1.31,-0.13,0.17,2.92,2.92,2.91
51.99,4.20,1.30,4.19,1.30,-1.30,-0.14,0.17,2.90,2.89,2.89
52.51,4.16,1.28,4.15,1.28,-1.28,-0.15,0.16,2.88,2.87,2.87
53.03,4.11,1.25,4.11,1.26,-1.26,-0.16,0.15,2.85,2.84,2.85
53.56,4.06,1.23,4.05,1.23,-1.23,-0.17,0.14,2.82,2.82,2.82
54.10,3.99,1.18,4.00,1.20,-1.20,-0.18,0.14,2.79,2.80,2.80
54.64,3.94,1.16,3.94,1.17,-1.17,-0.19,0.13,2.77,2.77,2.77
55.18,3.88,1.12,3.88,1.12,-1.12,-0.20,0.12,2.75,2.75,2.75
55.74,3.81,1.08,3.81,1.08,-1.08,-0.21,0.11,2.73,2.73,2.72
56.29,3.74,1.03,3.73,1.03,-1.03,-0.22,0.09,2.71,2.71,2.70
56.86,3.67,0.98,3.66,0.97,-0.97,-0.24,0.08,2.70,2.68,2.68
57.42,3.57,0.91,3.57,0.91,-0.91,-0.25,0.07,2.66,2.66,2.65
58.00,3.49,0.85,3.48,0.84,-0.84,-0.26,0.05,2.64,2.64,2.63
58.58,3.38,0.76,3.38,0.77,-0.77,-0.27,0.04,2.61,2.61,2.61
59.16,3.28,0.68,3.28,0.69,-0.69,-0.28,0.02,2.58,2.58,2.59
59.76,3.18,0.60,3.17,0.61,-0.61,-0.29,-0.00,2.57,2.56,2.57
60.35,3.07,0.52,3.05,0.52,-0.52,-0.31,-0.02,2.55,2.53,2.54
60.96,2.95,0.43,2.93,0.42,-0.42,-0.32,-0.05,2.52,2.50,2.51
61.57,2.80,0.32,2.80,0.32,-0.32,-0.33,-0.07,2.48,2.48,2.47
62.18,2.67,0.22,2.66,0.21,-0.21,-0.35,-0.10,2.46,2.45,2.44
62.80,2.54,0.12,2.52,0.10,-0.10,-0.36,-0.13,2.44,2.42,2.41
63.43,2.39,0.00,2.37,-0.02,0.02,-0.37,-0.16,2.41,2.39,2.38
64.07,2.24,-0.11,2.22,-0.14,0.14,-0.39,-0.19,2.38,2.36,2.35
64.71,2.09,-0.25,2.07,-0.26,0.26,-0.40,-0.22,2.35,2.33,2.33
65.35,1.94,-0.37,1.92,-0.39,0.39,-0.42,-0.26,2.32,2.30,2.30
66.01,1.78,-0.50,1.76,-0.51,0.51,-0.43,-0.30,2.29,2.27,2.27
66.67,1.62,-0.63,1.61,-0.63,0.63,-0.45,-0.34,2.24,2.24,2.24
67.33,1.48,-0.74,1.47,-0.74,0.74,-0.46,-0.38,2.22,2.21,2.21
68.01,1.34,-0.85,1.34,-0.85,0.85,-0.48,-0.42,2.18,2.18,2.18
68.69,1.21,-0.95,1.22,-0.94,0.94,-0.50,-0.47,2.14,2.15,2.15
69.37,1.11,-1.02,1.11,-1.01,1.01,-0.52,-0.51,2.12,2.12,2.12
70.07,1.01,-1.09,1.02,-1.07,1.07,-0.53,-0.56,2.08,2.09,2.09
70.77,0.93,-1.14,0.95,-1.11,1.11,-0.55,-0.61,2.03,2.06,2.06
71.48,0.86,-1.18,0.90,-1.12,1.12,-0.57,-0.67,1.98,2.03,2.03
72.19,0.84,-1.16,0.88,-1.11,1.11,-0.59,-0.72,1.95,1.99,1.99
72.91,0.84,-1.13,0.88,-1.08,1.08,-0.61,-0.78,1.92,1.96,1.96
73.64,0.85,-1.08,0.90,-1.02,1.02,-0.63,-0.83,1.87,1.93,1.92
74.38,0.90,-1.00,0.95,-0.94,0.94,-0.66,-0.89,1.84,1.89,1.89
75.12,0.98,-0.88,1.02,-0.84,0.84,-0.68,-0.95,1.82,1.86,1.85
75.87,1.10,-0.72,1.11,-0.72,0.72,-0.70,-1.01,1.82,1.83,1.82
76.63,1.19,-0.60,1.21,-0.58,0.58,-0.73,-1.08,1.77,1.79,1.79
77.40,1.34,-0.43,1.33,-0.43,0.43,-0.75,-1.14,1.77,1.76,1.76
78.17,1.46,-0.26,1.46,-0.26,0.26,-0.78,-1.21,1.72,1.73,1.72
78.95,1.61,-0.08,1.60,-0.09,0.09,-0.81,-1.27,1.70,1.69,1.69
79.74,1.75,0.09,1.74,0.08,-0.08,-0.83,-1.34,1.66,1.66,1.66
80.54,1.90,0.27,1.88,0.26,-0.26,-0.86,-1.41,1.64,1.62,1.62
81.35,2.05,0.45,2.02,0.43,-0.43,-0.89,-1.49,1.62,1.59,1.59
82.16,2.17,0.61,2.15,0.60,-0.60,-0.92,-1.56,1.57,1.56,1.55
82.98,2.30,0.77,2.27,0.75,-0.75,-0.96,-1.63,1.55,1.52,1.52
83.81,2.40,0.91,2.38,0.89,-0.89,-0.99,-1.71,1.51,1.48,1.48
84.65,2.48,1.03,2.46,1.02,-1.02,-1.02,-1.79,1.46,1.45,1.44
85.50,2.58,1.16,2.54,1.13,-1.13,-1.06,-1.87,1.45,1.41,1.41
86.35,2.64,1.26,2.59,1.22,-1.22,-1.10,-1.95,1.42,1.37,1.37
87.22,2.68,1.34,2.63,1.30,-1.30,-1.14,-2.03,1.38,1.33,1.33
88.09,2.70,1.40,2.65,1.36,-1.36,-1.18,-2.12,1.34,1.29,1.29
88.97,2.70,1.44,2.65,1.40,-1.40,-1.22,-2.21,1.30,1.25,1.25
89.86,2.68,1.46,2.64,1.43,-1.43,-1.27,-2.29,1.25,1.21,1.21
90.76,2.65,1.48,2.61,1.45,-1.45,-1.31,-2.38,1.20,1.17,1.16
91.66,2.60,1.47,2.58,1.46,-1.46,-1.36,-2.48,1.14,1.12,1.12
92.58,2.55,1.47,2.55,1.47,-1.47,-1.41,-2.57,1.08,1.08,1.07
93.51,2.51,1.47,2.51,1.48,-1.48,-1.46,-2.66,1.03,1.03,1.03
94.44,2.46,1.46,2.48,1.49,-1.49,-1.52,-2.76,0.96,0.99,0.99
95.39,2.43,1.48,2.45,1.51,-1.51,-1.58,-2.86,0.91,0.94,0.94
96.34,2.40,1.50,2.44,1.55,-1.55,-1.64,-2.95,0.85,0.89,0.89
97.30,2.40,1.55,2.44,1.60,-1.60,-1.70,-3.05,0.80,0.85,0.84
98.28,2.40,1.60,2.46,1.67,-1.67,-1.76,-3.15,0.73,0.80,0.79
99.26,2.44,1.68,2.50,1.75,-1.75,-1.83,-3.26,0.69,0.75,0.75
100.25,2.50,1.79,2.56,1.85,-1.85,-1.90,-3.36,0.64,0.70,0.70
101.25,2.59,1.94,2.63,1.98,-1.98,-1.97,-3.46,0.61,0.65,0.65
102.27,2.69,2.08,2.72,2.11,-2.11,-2.05,-3.56,0.57,0.61,0.60
103.29,2.81,2.25,2.82,2.27,-2.27,-2.13,-3.67,0.54,0.56,0.55
104.32,2.93,2.41,2.94,2.43,-2.43,-2.21,-3.77,0.50,0.51,0.51
105.37,3.08,2.61,3.06,2.60,-2.60,-2.30,-3.87,0.48,0.46,0.46
106.42,3.22,2.80,3.19,2.78,-2.78,-2.39,-3.97,0.44,0.41,0.41
107.48,3.35,2.98,3.32,2.95,-2.95,-2.48,-4.06,0.39,0.36,0.36
108.56,3.46,3.14,3.44,3.13,-3.13,-2.58,-4.16,0.33,0.31,0.31
109.64,3.60,3.34,3.56,3.30,-3.30,-2.68,-4.25,0.29,0.26,0.26
110.74,3.72,3.50,3.68,3.47,-3.47,-2.79,-4.34,0.25,0.21,0.21
111.85,3.81,3.64,3.78,3.63,-3.63,-2.90,-4.43,0.18,0.16,0.16
112.97,3.91,3.80,3.88,3.77,-3.77,-3.01,-4.51,0.13,0.10,0.10
114.10,3.97,3.91,3.96,3.91,-3.91,-3.13,-4.58,0.06,0.05,0.05
115.24,4.05,4.05,4.03,4.04,-4.04,-3.25,-4.65,0.01,-0.00,-0.01
116.39,4.11,4.16,4.10,4.16,-4.16,-3.38,-4.72,-0.05,-0.06,-0.06
117.55,4.16,4.27,4.16,4.26,-4.26,-3.51,-4.77,-0.11,-0.11,-0.12
118.73,4.20,4.36,4.20,4.36,-4.36,-3.64,-4.82,-0.17,-0.16,-0.17
119.92,4.24,4.45,4.24,4.46,-4.46,-3.78,-4.86,-0.22,-0.21,-0.22
121.12,4.26,4.52,4.27,4.54,-4.54,-3.91,-4.90,-0.28,-0.27,-0.27
122.33,4.30,4.61,4.30,4.62,-4.62,-4.05,-4.92,-0.32,-0.32,-0.32
123.55,4.31,4.67,4.31,4.68,-4.68,-4.19,-4.94,-0.38,-0.37,-0.37
124.79,4.32,4.73,4.33,4.75,-4.75,-4.34,-4.95,-0.43,-0.42,-0.42
126.03,4.35,4.81,4.33,4.81,-4.81,-4.48,-4.95,-0.46,-0.47,-0.47
127.29,4.35,4.86,4.34,4.86,-4.86,-4.62,-4.94,-0.51,-0.52,-0.52
128.57,4.35,4.92,4.33,4.91,-4.91,-4.75,-4.92,-0.56,-0.57,-0.58
129.85,4.32,4.94,4.33,4.95,-4.95,-4.89,-4.89,-0.64,-0.62,-0.63
131.15,4.31,4.98,4.32,4.99,-4.99,-5.01,-4.86,-0.69,-0.67,-0.68
132.46,4.31,5.03,4.31,5.03,-5.03,-5.13,-4.82,-0.72,-0.72,-0.73
133.79,4.28,5.04,4.29,5.06,-5.06,-5.24,-4.77,-0.78,-0.77,-0.77
135.12,4.26,5.07,4.27,5.08,-5.08,-5.34,-4.71,-0.83,-0.82,-0.82
136.48,4.24,5.09,4.24,5.10,-5.10,-5.43,-4.65,-0.86,-0.86,-0.86
137.84,4.21,5.11,4.21,5.12,-5.12,-5.51,-4.58,-0.91,-0.90,-0.91
139.22,4.18,5.13,4.18,5.13,-5.13,-5.57,-4.50,-0.95,-0.95,-0.96
140.61,4.15,5.14,4.14,5.13,-5.13,-5.61,-4.42,-0.98,-0.99,-1.00
142.02,4.10,5.12,4.10,5.13,-5.13,-5.64,-4.34,-1.04,-1.03,-1.03
143.44,4.07,5.13,4.06,5.13,-5.13,-5.65,-4.25,-1.06,-1.07,-1.07
144.87,4.01,5.11,4.01,5.12,-5.12,-5.64,-4.16,-1.11,-1.11,-1.11
146.32,3.95,5.09,3.96,5.11,-5.11,-5.62,-4.07,-1.16,-1.15,-1.15
147.78,3.89,5.06,3.90,5.08,-5.08,-5.57,-3.98,-1.20,-1.19,-1.18
149.26,3.83,5.04,3.83,5.05,-5.05,-5.52,-3.88,-1.23,-1.22,-1.22
150.75,3.77,5.02,3.75,5.01,-5.01,-5.44,-3.79,-1.25,-1.26,-1.26
152.26,3.69,4.98,3.66,4.96,-4.96,-5.35,-3.69,-1.28,-1.30,-1.30
153.78,3.60,4.93,3.56,4.90,-4.90,-5.25,-3.59,-1.31,-1.34,-1.34
155.32,3.50,4.87,3.46,4.83,-4.83,-5.14,-3.50,-1.34,-1.38,-1.38
156.88,3.40,4.81,3.34,4.76,-4.76,-5.03,-3.40,-1.36,-1.42,-1.42
158.44,3.27,4.72,3.22,4.68,-4.68,-4.90,-3.30,-1.41,-1.46,-1.46
160.03,3.14,4.63,3.10,4.59,-4.59,-4.77,-3.21,-1.46,-1.49,-1.50
161.63,3.00,4.53,2.98,4.51,-4.51,-4.63,-3.12,-1.51,-1.53,-1.54
163.24,2.86,4.43,2.86,4.44,-4.44,-4.49,-3.02,-1.58,-1.57,-1.58
164.88,2.70,4.30,2.76,4.37,-4.37,-4.35,-2.93,-1.67,-1.61,-1.61
166.53,2.59,4.23,2.66,4.31,-4.31,-4.21,-2.84,-1.72,-1.65,-1.65
168.19,2.46,4.14,2.57,4.25,-4.25,-4.07,-2.75,-1.80,-1.69,-1.69
169.87,2.39,4.11,2.48,4.21,-4.21,-3.93,-2.67,-1.83,-1.73,-1.73
171.57,2.33,4.09,2.41,4.18,-4.18,-3.79,-2.58,-1.85,-1.77,-1.77
173.29,2.29,4.08,2.35,4.15,-4.15,-3.66,-2.50,-1.86,-1.80,-1.80
175.02,2.27,4.10,2.29,4.13,-4.13,-3.53,-2.42,-1.86,-1.84,-1.84
176.77,2.27,4.14,2.23,4.11,-4.11,-3.40,-2.34,-1.84,-1.88,-1.88
178.54,2.23,4.14,2.18,4.09,-4.09,-3.27,-2.26,-1.87,-1.92,-1.92
180.32,2.20,4.15,2.12,4.08,-4.08,-3.15,-2.18,-1.88,-1.95,-1.96
182.13,2.13,4.11,2.07,4.06,-4.06,-3.03,-2.11,-1.93,-1.99,-1.99
183.95,2.04,4.06,2.00,4.02,-4.02,-2.92,-2.03,-1.99,-2.03,-2.03
185.79,1.95,4.00,1.92,3.98,-3.98,-2.81,-1.96,-2.03,-2.06,-2.06
187.65,1.85,3.94,1.82,3.91,-3.91,-2.71,-1.89,-2.07,-2.10,-2.10
189.52,1.72,3.84,1.70,3.83,-3.83,-2.60,-1.83,-2.11,-2.13,-2.13
191.42,1.60,3.75,1.57,3.73,-3.73,-2.51,-1.76,-2.13,-2.16,-2.16
193.33,1.46,3.64,1.42,3.61,-3.61,-2.41,-1.70,-2.16,-2.19,-2.19
195.27,1.31,3.52,1.27,3.48,-3.48,-2.32,-1.63,-2.18,-2.22,-2.22
197.22,1.14,3.38,1.10,3.35,-3.35,-2.24,-1.57,-2.21,-2.25,-2.25
199.19,0.98,3.25,0.94,3.21,-3.21,-2.15,-1.51,-2.23,-2.27,-2.28
201.18,0.78,3.07,0.78,3.08,-3.08,-2.07,-1.46,-2.30,-2.29,-2.30
203.19,0.58,2.89,0.63,2.95,-2.95,-2.00,-1.40,-2.37,-2.32,-2.32
205.23,0.41,2.74,0.49,2.82,-2.82,-1.92,-1.35,-2.41,-2.33,-2.34
207.28,0.23,2.57,0.34,2.70,-2.70,-1.85,-1.29,-2.47,-2.35,-2.35
209.35,0.08,2.44,0.21,2.58,-2.58,-1.79,-1.24,-2.50,-2.37,-2.37
211.44,-0.04,2.34,0.07,2.45,-2.45,-1.72,-1.19,-2.49,-2.38,-2.39
213.56,-0.12,2.27,-0.07,2.32,-2.32,-1.66,-1.14,-2.44,-2.39,-2.40
215.69,-0.21,2.18,-0.22,2.18,-2.18,-1.60,-1.10,-2.39,-2.40,-2.40
217.85,-0.29,2.11,-0.38,2.03,-2.03,-1.55,-1.05,-2.33,-2.41,-2.41
220.03,-0.40,2.01,-0.54,1.88,-1.88,-1.49,-1.01,-2.28,-2.42,-2.42
222.23,-0.53,1.89,-0.71,1.72,-1.72,-1.44,-0.96,-2.25,-2.42,-2.43
224.45,-0.71,1.71,-0.88,1.55,-1.55,-1.39,-0.92,-2.26,-2.42,-2.43
226.70,-0.93,1.49,-1.05,1.38,-1.38,-1.34,-0.88,-2.31,-2.43,-2.43
228.96,-1.16,1.26,-1.22,1.20,-1.20,-1.30,-0.84,-2.37,-2.43,-2.43
231.25,-1.42,0.99,-1.40,1.03,-1.03,-1.25,-0.81,-2.45,-2.42,-2.42
233.57,-1.68,0.73,-1.57,0.85,-0.85,-1.21,-0.77,-2.53,-2.42,-2.42
235.90,-1.89,0.52,-1.75,0.66,-0.66,-1.17,-0.74,-2.56,-2.41,-2.42
238.26,-2.07,0.33,-1.92,0.49,-0.49,-1.13,-0.71,-2.56,-2.41,-2.41
240.64,-2.21,0.18,-2.08,0.31,-0.31,-1.10,-0.67,-2.53,-2.40,-2.40
243.05,-2.33,0.05,-2.24,0.15,-0.15,-1.06,-0.64,-2.48,-2.39,-2.39
245.48,-2.39,-0.02,-2.39,-0.01,0.01,-1.03,-0.62,-2.39,-2.38,-2.38
247.93,-2.49,-0.13,-2.53,-0.16,0.16,-0.99,-0.59,-2.33,-2.37,-2.37
250.41,-2.55,-0.20,-2.66,-0.30,0.30,-0.96,-0.56,-2.25,-2.35,-2.36
252.92,-2.67,-0.34,-2.78,-0.44,0.44,-0.93,-0.54,-2.23,-2.34,-2.34
255.45,-2.78,-0.47,-2.89,-0.57,0.57,-0.90,-0.52,-2.21,-2.32,-2.32
258.00,-2.88,-0.58,-3.00,-0.69,0.69,-0.87,-0.49,-2.19,-2.30,-2.31
260.58,-3.01,-0.73,-3.09,-0.81,0.81,-0.85,-0.47,-2.21,-2.29,-2.29
263.19,-3.14,-0.88,-3.18,-0.91,0.91,-0.82,-0.45,-2.24,-2.27,-2.27
265.82,-3.26,-1.02,-3.25,-1.00,1.00,-0.80,-0.44,-2.27,-2.25,-2.25
268.48,-3.38,-1.16,-3.30,-1.07,1.07,-0.77,-0.42,-2.31,-2.23,-2.23
271.16,-3.50,-1.30,-3.34,-1.14,1.14,-0.75,-0.40,-2.37,-2.21,-2.21
273.87,-3.54,-1.36,-3.37,-1.18,1.18,-0.73,-0.39,-2.36,-2.19,-2.19
276.61,-3.51,-1.35,-3.38,-1.21,1.21,-0.70,-0.37,-2.31,-2.17,-2.17
279.38,-3.46,-1.32,-3.36,-1.21,1.21,-0.68,-0.36,-2.25,-2.15,-2.15
282.17,-3.35,-1.23,-3.33,-1.20,1.20,-0.66,-0.35,-2.15,-2.13,-2.13
284.99,-3.24,-1.14,-3.29,-1.18,1.18,-0.64,-0.34,-2.07,-2.11,-2.11
287.84,-3.14,-1.06,-3.22,-1.13,1.13,-0.63,-0.32,-2.01,-2.09,-2.09
290.72,-3.06,-1.00,-3.15,-1.08,1.08,-0.61,-0.31,-1.98,-2.07,-2.07
293.63,-2.97,-0.93,-3.06,-1.01,1.01,-0.59,-0.30,-1.96,-2.05,-2.05
296.57,-2.91,-0.89,-2.97,-0.94,0.94,-0.57,-0.29,-1.97,-2.02,-2.03
299.53,-2.86,-0.86,-2.88,-0.88,0.88,-0.56,-0.29,-1.99,-2.00,-2.01
302.53,-2.80,-0.82,-2.79,-0.81,0.81,-0.54,-0.28,-1.99,-1.98,-1.99
305.55,-2.74,-0.79,-2.72,-0.76,0.76,-0.53,-0.27,-1.98,-1.96,-1.96
308.61,-2.66,-0.73,-2.66,-0.72,0.72,-0.51,-0.26,-1.94,-1.93,-1.94
311.69,-2.60,-0.70,-2.60,-0.69,0.69,-0.50,-0.26,-1.91,-1.91,-1.91
314.81,-2.52,-0.65,-2.56,-0.67,0.67,-0.48,-0.25,-1.85,-1.89,-1.88
317.96,-2.46,-0.61,-2.52,-0.65,0.65,-0.47,-0.24,-1.81,-1.86,-1.86
321.14,-2.41,-0.58,-2.47,-0.63,0.63,-0.46,-0.24,-1.78,-1.84,-1.84
324.35,-2.37,-0.56,-2.42,-0.60,0.60,-0.44,-0.23,-1.77,-1.82,-1.82
327.59,-2.37,-0.58,-2.37,-0.57,0.57,-0.43,-0.22,-1.80,-1.80,-1.80
330.87,-2.33,-0.56,-2.31,-0.54,0.54,-0.42,-0.22,-1.80,-1.78,-1.78
334.18,-2.32,-0.57,-2.25,-0.50,0.50,-0.41,-0.21,-1.83,-1.75,-1.76
337.52,-2.27,-0.54,-2.19,-0.45,0.45,-0.40,-0.21,-1.82,-1.73,-1.74
340.90,-2.21,-0.50,-2.12,-0.40,0.40,-0.39,-0.20,-1.81,-1.72,-1.72
344.30,-2.11,-0.42,-2.05,-0.36,0.36,-0.38,-0.20,-1.76,-1.70,-1.70
347.75,-2.01,-0.34,-1.98,-0.31,0.31,-0.37,-0.19,-1.71,-1.68,-1.68
351.23,-1.90,-0.25,-1.92,-0.26,0.26,-0.36,-0.19,-1.65,-1.66,-1.66
354.74,-1.80,-0.17,-1.85,-0.20,0.20,-0.35,-0.18,-1.60,-1.64,-1.64
358.28,-1.72,-0.10,-1.78,-0.15,0.15,-0.34,-0.18,-1.57,-1.62,-1.63
361.87,-1.62,-0.02,-1.71,-0.10,0.10,-0.33,-0.17,-1.52,-1.61,-1.61
365.49,-1.57,0.01,-1.64,-0.05,0.05,-0.32,-0.17,-1.52,-1.59,-1.59
369.14,-1.54,0.03,-1.58,-0.01,0.01,-0.31,-0.16,-1.53,-1.58,-1.58
372.83,-1.51,0.04,-1.53,0.03,-0.03,-0.31,-0.16,-1.54,-1.56,-1.56
376.56,-1.50,0.04,-1.48,0.07,-0.07,-0.30,-0.15,-1.57,-1.55,-1.55
380.33,-1.46,0.06,-1.44,0.09,-0.09,-0.29,-0.15,-1.55,-1.53,-1.53
384.13,-1.44,0.07,-1.40,0.11,-0.11,-0.28,-0.14,-1.56,-1.52,-1.52
387.97,-1.41,0.09,-1.37,0.13,-0.13,-0.28,-0.14,-1.55,-1.51,-1.51
391.85,-1.36,0.13,-1.34,0.15,-0.15,-0.27,-0.13,-1.51,-1.49,-1.50
395.77,-1.33,0.14,-1.32,0.16,-0.16,-0.26,-0.13,-1.50,-1.48,-1.48
399.73,-1.28,0.18,-1.29,0.18,-0.18,-0.25,-0.12,-1.46,-1.47,-1.47
403.72,-1.25,0.20,-1.26,0.19,-0.19,-0.25,-0.12,-1.45,-1.46,-1.46
407.76,-1.22,0.22,-1.24,0.21,-0.21,-0.24,-0.12,-1.44,-1.45,-1.45
411.84,-1.20,0.23,-1.21,0.23,-0.23,-0.24,-0.11,-1.43,-1.44,-1.44
415.96,-1.16,0.26,-1.18,0.25,-0.25,-0.23,-0.11,-1.41,-1.43,-1.43
420.12,-1.15,0.26,-1.15,0.26,-0.26,-0.22,-0.11,-1.42,-1.42,-1.42
424.32,-1.11,0.29,-1.13,0.28,-0.28,-0.22,-0.10,-1.39,-1.41,-1.41
428.56,-1.11,0.28,-1.11,0.29,-0.29,-0.21,-0.10,-1.40,-1.40,-1.40
432.85,-1.10,0.28,-1.09,0.29,-0.29,-0.21,-0.10,-1.40,-1.38,-1.39
437.18,-1.07,0.30,-1.07,0.30,-0.30,-0.20,-0.09,-1.37,-1.37,-1.38
441.55,-1.07,0.28,-1.06,0.30,-0.30,-0.20,-0.09,-1.38,-1.36,-1.36
445.96,-1.02,0.32,-1.04,0.31,-0.31,-0.19,-0.09,-1.33,-1.35,-1.35
450.42,-1.02,0.31,-1.03,0.31,-0.31,-0.19,-0.09,-1.33,-1.34,-1.34
454.93,-1.02,0.29,-1.01,0.31,-0.31,-0.18,-0.08,-1.33,-1.32,-1.32
459.48,-0.98,0.32,-0.99,0.32,-0.32,-0.18,-0.08,-1.30,-1.31,-1.31
464.07,-0.98,0.31,-0.98,0.32,-0.32,-0.17,-0.08,-1.30,-1.29,-1.30
468.71,-0.98,0.29,-0.96,0.32,-0.32,-0.17,-0.08,-1.30,-1.28,-1.28
473.40,-0.94,0.32,-0.94,0.32,-0.32,-0.16,-0.08,-1.27,-1.26,-1.27
478.13,-0.94,0.30,-0.93,0.32,-0.32,-0.16,-0.08,-1.27,-1.25,-1.25
482.91,-0.89,0.34,-0.91,0.32,-0.32,-0.16,-0.08,-1.22,-1.23,-1.24
487.74,-0.88,0.33,-0.89,0.33,-0.33,-0.15,-0.08,-1.21,-1.22,-1.22
492.62,-0.85,0.34,-0.88,0.33,-0.33,-0.15,-0.09,-1.18,-1.20,-1.20
497.55,-0.85,0.33,-0.86,0.32,-0.32,-0.14,-0.09,-1.18,-1.19,-1.19
