frequency,raw,error,smoothed,error_smoothed,equalization,parametric_eq,fixed_band_eq,equalized_raw,equalized_smoothed,target
20.00,8.74,-0.57,8.73,-0.59,0.59,-0.31,-0.54,9.33,9.32,9.30
20.20,8.79,-0.51,8.78,-0.53,0.53,-0.32,-0.55,9.32,9.32,9.30
20.40,8.84,-0.46,8.84,-0.47,0.47,-0.33,-0.57,9.31,9.31,9.30
20.61,8.89,-0.41,8.89,-0.41,0.41,-0.35,-0.59,9.29,9.30,9.30
20.81,8.94,-0.36,8.94,-0.35,0.35,-0.36,-0.60,9.29,9.29,9.30
21.02,8.99,-0.31,8.99,-0.29,0.29,-0.37,-0.62,9.27,9.28,9.30
21.23,9.04,-0.24,9.04,-0.23,0.23,-0.38,-0.64,9.26,9.26,9.28
21.44,9.09,-0.18,9.09,-0.16,0.16,-0.39,-0.66,9.25,9.25,9.27
21.66,9.13,-0.12,9.13,-0.10,0.10,-0.41,-0.68,9.23,9.24,9.25
21.87,9.18,-0.05,9.18,-0.04,0.04,-0.42,-0.70,9.22,9.22,9.23
22.09,9.23,0.01,9.22,0.02,-0.02,-0.44,-0.72,9.21,9.20,9.22
22.31,9.27,0.08,9.27,0.08,-0.08,-0.45,-0.74,9.19,9.19,9.19
22.54,9.31,0.14,9.31,0.15,-0.15,-0.47,-0.76,9.16,9.17,9.17
22.76,9.36,0.21,9.36,0.21,-0.21,-0.48,-0.78,9.14,9.14,9.14
22.99,9.40,0.28,9.40,0.28,-0.28,-0.50,-0.81,9.12,9.12,9.11
23.22,9.44,0.35,9.44,0.34,-0.34,-0.52,-0.83,9.10,9.10,9.08
23.45,9.49,0.42,9.48,0.40,-0.40,-0.54,-0.85,9.09,9.08,9.06
23.69,9.52,0.46,9.52,0.46,-0.46,-0.56,-0.88,9.06,9.06,9.05
23.92,9.56,0.53,9.55,0.52,-0.52,-0.58,-0.90,9.04,9.03,9.03
24.16,9.60,0.58,9.59,0.58,-0.58,-0.60,-0.93,9.02,9.01,9.02
24.40,9.62,0.62,9.63,0.63,-0.63,-0.63,-0.95,8.99,8.99,9.00
24.65,9.66,0.68,9.66,0.68,-0.68,-0.65,-0.98,8.97,8.98,8.98
24.89,9.69,0.73,9.69,0.74,-0.74,-0.68,-1.00,8.95,8.96,8.96
25.14,9.73,0.78,9.73,0.79,-0.79,-0.71,-1.03,8.94,8.94,8.95
25.39,9.76,0.83,9.76,0.83,-0.83,-0.74,-1.06,8.92,8.92,8.92
25.65,9.79,0.87,9.79,0.88,-0.88,-0.77,-1.08,8.91,8.91,8.91
25.91,9.82,0.93,9.82,0.92,-0.92,-0.80,-1.11,8.89,8.89,8.88
26.16,9.85,0.98,9.84,0.97,-0.97,-0.83,-1.13,8.88,8.88,8.87
26.43,9.87,1.01,9.87,1.01,-1.01,-0.87,-1.16,8.86,8.86,8.86
26.69,9.90,1.06,9.90,1.05,-1.05,-0.90,-1.18,8.84,8.84,8.84
26.96,9.93,1.10,9.92,1.09,-1.09,-0.94,-1.20,8.83,8.83,8.83
27.23,9.95,1.13,9.94,1.13,-1.13,-0.98,-1.23,8.81,8.81,8.82
27.50,9.96,1.15,9.96,1.17,-1.17,-1.02,-1.25,8.79,8.80,8.81
27.77,9.99,1.20,9.98,1.20,-1.20,-1.07,-1.27,8.79,8.78,8.78
28.05,10.01,1.23,10.00,1.23,-1.23,-1.11,-1.29,8.77,8.77,8.77
28.33,10.02,1.27,10.02,1.26,-1.26,-1.16,-1.31,8.75,8.76,8.75
28.62,10.04,1.30,10.04,1.29,-1.29,-1.21,-1.33,8.74,8.74,8.74
28.90,10.05,1.32,10.05,1.32,-1.32,-1.25,-1.34,8.73,8.73,8.73
29.19,10.06,1.35,10.06,1.35,-1.35,-1.30,-1.35,8.71,8.72,8.71
29.48,10.08,1.37,10.07,1.37,-1.37,-1.35,-1.37,8.71,8.70,8.70
29.78,10.08,1.39,10.08,1.39,-1.39,-1.41,-1.38,8.69,8.69,8.69
30.08,10.09,1.41,10.08,1.41,-1.41,-1.46,-1.38,8.67,8.67,8.68
30.38,10.09,1.43,10.09,1.43,-1.43,-1.51,-1.39,8.66,8.66,8.66
30.68,10.10,1.45,10.09,1.45,-1.45,-1.55,-1.39,8.65,8.64,8.65
30.99,10.10,1.47,10.09,1.46,-1.46,-1.60,-1.39,8.64,8.63,8.62
31.30,10.09,1.48,10.08,1.47,-1.47,-1.64,-1.39,8.61,8.61,8.61
31.61,10.08,1.48,10.08,1.49,-1.49,-1.69,-1.39,8.59,8.59,8.60
31.93,10.07,1.49,10.07,1.50,-1.50,-1.72,-1.38,8.57,8.57,8.58
32.24,10.05,1.50,10.06,1.50,-1.50,-1.76,-1.38,8.54,8.55,8.54
32.57,10.05,1.52,10.04,1.51,-1.51,-1.78,-1.37,8.54,8.53,8.53
32.89,10.03,1.51,10.03,1.52,-1.52,-1.80,-1.35,8.51,8.51,8.52
33.22,10.02,1.53,10.01,1.52,-1.52,-1.82,-1.34,8.49,8.49,8.48
33.55,9.99,1.52,9.99,1.52,-1.52,-1.83,-1.33,8.46,8.47,8.47
33.89,9.97,1.52,9.97,1.52,-1.52,-1.83,-1.31,8.44,8.45,8.45
34.23,9.95,1.52,9.95,1.52,-1.52,-1.83,-1.29,8.42,8.43,8.42
34.57,9.93,1.53,9.93,1.52,-1.52,-1.82,-1.27,8.40,8.40,8.40
34.92,9.91,1.53,9.90,1.52,-1.52,-1.80,-1.24,8.38,8.38,8.38
35.27,9.88,1.51,9.88,1.52,-1.52,-1.78,-1.22,8.36,8.36,8.36
35.62,9.86,1.52,9.85,1.51,-1.51,-1.75,-1.20,8.34,8.34,8.34
35.97,9.83,1.51,9.83,1.51,-1.51,-1.71,-1.17,8.32,8.32,8.32
36.33,9.80,1.50,9.80,1.50,-1.50,-1.68,-1.14,8.30,8.30,8.30
36.70,9.76,1.48,9.77,1.49,-1.49,-1.64,-1.12,8.27,8.27,8.28
37.06,9.74,1.48,9.73,1.48,-1.48,-1.60,-1.09,8.26,8.25,8.25
37.43,9.71,1.47,9.70,1.47,-1.47,-1.55,-1.06,8.24,8.23,8.24
37.81,9.67,1.45,9.67,1.46,-1.46,-1.51,-1.03,8.21,8.21,8.21
38.19,9.64,1.45,9.63,1.44,-1.44,-1.46,-1.00,8.19,8.19,8.19
38.57,9.60,1.43,9.60,1.43,-1.43,-1.41,-0.97,8.17,8.17,8.17
38.95,9.56,1.41,9.56,1.41,-1.41,-1.37,-0.94,8.14,8.15,8.15
39.34,9.53,1.41,9.52,1.40,-1.40,-1.32,-0.91,8.13,8.13,8.12
39.74,9.49,1.39,9.48,1.38,-1.38,-1.28,-0.88,8.11,8.11,8.09
40.14,9.44,1.35,9.44,1.36,-1.36,-1.24,-0.85,8.08,8.09,8.09
40.54,9.40,1.34,9.40,1.33,-1.33,-1.20,-0.82,8.06,8.07,8.06
40.94,9.36,1.31,9.36,1.31,-1.31,-1.16,-0.79,8.04,8.05,8.04
41.35,9.32,1.30,9.31,1.29,-1.29,-1.12,-0.76,8.03,8.03,8.02
41.76,9.28,1.27,9.27,1.27,-1.27,-1.08,-0.73,8.01,8.01,8.01
42.18,9.23,1.23,9.23,1.24,-1.24,-1.05,-0.70,7.98,7.98,7.99
42.60,9.18,1.21,9.18,1.22,-1.22,-1.02,-0.67,7.96,7.96,7.97
43.03,9.13,1.17,9.14,1.19,-1.19,-0.99,-0.64,7.93,7.94,7.96
43.46,9.09,1.16,9.09,1.17,-1.17,-0.96,-0.61,7.92,7.92,7.93
43.90,9.05,1.15,9.04,1.14,-1.14,-0.93,-0.59,7.91,7.90,7.90
44.33,9.00,1.12,9.00,1.11,-1.11,-0.91,-0.56,7.89,7.88,7.88
44.78,8.95,1.09,8.95,1.08,-1.08,-0.89,-0.53,7.86,7.86,7.86
45.23,8.90,1.06,8.90,1.06,-1.06,-0.86,-0.50,7.84,7.84,7.83
45.68,8.85,1.03,8.85,1.03,-1.03,-0.84,-0.48,7.82,7.82,7.81
46.13,8.81,1.01,8.80,1.00,-1.00,-0.82,-0.45,7.81,7.80,7.79
46.60,8.75,0.97,8.75,0.97,-0.97,-0.81,-0.43,7.78,7.78,7.78
47.06,8.70,0.94,8.70,0.94,-0.94,-0.79,-0.40,7.75,7.75,7.76
47.53,8.65,0.91,8.64,0.91,-0.91,-0.78,-0.38,7.73,7.73,7.74
48.01,8.59,0.86,8.59,0.88,-0.88,-0.76,-0.35,7.70,7.71,7.73
48.49,8.54,0.84,8.53,0.85,-0.85,-0.75,-0.33,7.69,7.68,7.69
48.97,8.48,0.82,8.48,0.82,-0.82,-0.74,-0.30,7.66,7.66,7.66
49.46,8.43,0.80,8.43,0.79,-0.79,-0.73,-0.28,7.64,7.64,7.63
49.96,8.37,0.77,8.37,0.76,-0.76,-0.72,-0.26,7.61,7.61,7.59
50.46,8.32,0.73,8.31,0.73,-0.73,-0.72,-0.24,7.59,7.59,7.59
50.96,8.26,0.69,8.26,0.70,-0.70,-0.71,-0.22,7.56,7.56,7.56
51.47,8.21,0.68,8.20,0.67,-0.67,-0.70,-0.20,7.54,7.53,7.53
51.99,8.15,0.64,8.15,0.64,-0.64,-0.70,-0.18,7.51,7.51,7.50
52.51,8.09,0.60,8.09,0.61,-0.61,-0.70,-0.16,7.48,7.48,7.49
53.03,8.04,0.58,8.04,0.58,-0.58,-0.69,-0.15,7.45,7.45,7.46
53.56,7.99,0.56,7.98,0.56,-0.56,-0.69,-0.13,7.43,7.43,7.43
54.10,7.94,0.53,7.93,0.53,-0.53,-0.69,-0.12,7.41,7.40,7.40
54.64,7.87,0.49,7.87,0.50,-0.50,-0.69,-0.10,7.37,7.37,7.37
55.18,7.82,0.47,7.82,0.47,-0.47,-0.69,-0.09,7.34,7.35,7.34
55.74,7.77,0.45,7.77,0.45,-0.45,-0.69,-0.08,7.32,7.32,7.31
56.29,7.72,0.42,7.72,0.43,-0.43,-0.69,-0.07,7.29,7.29,7.29
56.86,7.67,0.41,7.67,0.40,-0.40,-0.70,-0.07,7.26,7.26,7.26
57.42,7.62,0.39,7.62,0.38,-0.38,-0.70,-0.06,7.24,7.24,7.23
58.00,7.57,0.36,7.57,0.36,-0.36,-0.70,-0.06,7.21,7.21,7.21
58.58,7.52,0.34,7.52,0.34,-0.34,-0.71,-0.06,7.17,7.18,7.17
59.16,7.48,0.33,7.47,0.33,-0.33,-0.71,-0.06,7.15,7.15,7.15
59.76,7.43,0.30,7.43,0.31,-0.31,-0.72,-0.07,7.12,7.11,7.12
60.35,7.39,0.30,7.38,0.30,-0.30,-0.73,-0.07,7.09,7.08,7.09
60.96,7.33,0.26,7.34,0.28,-0.28,-0.73,-0.08,7.04,7.05,7.07
61.57,7.29,0.26,7.29,0.27,-0.27,-0.74,-0.09,7.02,7.02,7.02
62.18,7.26,0.27,7.25,0.26,-0.26,-0.75,-0.11,7.00,6.99,6.98
62.80,7.22,0.26,7.21,0.25,-0.25,-0.76,-0.12,6.97,6.96,6.96
63.43,7.17,0.25,7.17,0.24,-0.24,-0.77,-0.14,6.93,6.93,6.92
64.07,7.13,0.24,7.13,0.23,-0.23,-0.78,-0.16,6.89,6.90,6.88
64.71,7.10,0.23,7.09,0.23,-0.23,-0.79,-0.18,6.87,6.87,6.86
65.35,7.06,0.23,7.06,0.22,-0.22,-0.80,-0.21,6.83,6.83,6.83
66.01,7.02,0.21,7.02,0.22,-0.22,-0.81,-0.24,6.80,6.80,6.81
66.67,6.99,0.21,6.99,0.22,-0.22,-0.83,-0.27,6.77,6.77,6.77
67.33,6.96,0.21,6.96,0.21,-0.21,-0.84,-0.30,6.74,6.74,6.75
68.01,6.93,0.22,6.93,0.22,-0.22,-0.86,-0.34,6.71,6.71,6.71
68.69,6.90,0.21,6.90,0.22,-0.22,-0.87,-0.38,6.68,6.68,6.68
69.37,6.87,0.22,6.87,0.22,-0.22,-0.89,-0.42,6.64,6.65,6.64
70.07,6.85,0.23,6.85,0.23,-0.23,-0.90,-0.46,6.61,6.61,6.62
70.77,6.83,0.24,6.82,0.24,-0.24,-0.92,-0.50,6.58,6.58,6.58
71.48,6.81,0.26,6.80,0.26,-0.26,-0.94,-0.55,6.55,6.54,6.54
72.19,6.78,0.27,6.78,0.28,-0.28,-0.96,-0.60,6.50,6.50,6.51
72.91,6.77,0.30,6.76,0.30,-0.30,-0.98,-0.65,6.47,6.47,6.47
73.64,6.75,0.32,6.75,0.32,-0.32,-1.00,-0.70,6.43,6.43,6.42
74.38,6.73,0.34,6.73,0.35,-0.35,-1.02,-0.75,6.38,6.38,6.39
75.12,6.72,0.38,6.72,0.37,-0.37,-1.04,-0.80,6.34,6.34,6.33
75.87,6.71,0.41,6.71,0.41,-0.41,-1.07,-0.86,6.30,6.30,6.30
76.63,6.70,0.44,6.70,0.44,-0.44,-1.09,-0.92,6.25,6.25,6.26
77.40,6.69,0.48,6.69,0.48,-0.48,-1.12,-0.98,6.21,6.21,6.21
78.17,6.68,0.53,6.68,0.52,-0.52,-1.14,-1.04,6.16,6.16,6.15
78.95,6.68,0.56,6.68,0.56,-0.56,-1.17,-1.10,6.11,6.11,6.12
79.74,6.67,0.60,6.67,0.61,-0.61,-1.20,-1.17,6.06,6.06,6.07
80.54,6.67,0.65,6.67,0.66,-0.66,-1.23,-1.23,6.01,6.01,6.01
81.35,6.68,0.72,6.67,0.71,-0.71,-1.26,-1.30,5.96,5.96,5.96
82.16,6.68,0.77,6.67,0.77,-0.77,-1.29,-1.36,5.91,5.91,5.90
82.98,6.68,0.82,6.68,0.82,-0.82,-1.32,-1.43,5.85,5.85,5.86
83.81,6.69,0.89,6.68,0.88,-0.88,-1.35,-1.50,5.80,5.80,5.79
84.65,6.69,0.95,6.69,0.95,-0.95,-1.39,-1.58,5.74,5.74,5.74
85.50,6.70,1.01,6.70,1.01,-1.01,-1.43,-1.65,5.68,5.68,5.69
86.35,6.71,1.08,6.71,1.08,-1.08,-1.46,-1.73,5.63,5.63,5.63
87.22,6.72,1.15,6.72,1.15,-1.15,-1.50,-1.80,5.57,5.57,5.57
88.09,6.73,1.22,6.73,1.22,-1.22,-1.54,-1.88,5.51,5.51,5.51
88.97,6.75,1.29,6.74,1.29,-1.29,-1.58,-1.96,5.46,5.45,5.46
89.86,6.76,1.36,6.76,1.37,-1.37,-1.63,-2.04,5.39,5.39,5.39
90.76,6.78,1.45,6.77,1.44,-1.44,-1.67,-2.12,5.34,5.33,5.32
91.66,6.79,1.52,6.79,1.52,-1.52,-1.72,-2.21,5.27,5.27,5.27
92.58,6.81,1.61,6.81,1.60,-1.60,-1.77,-2.29,5.21,5.21,5.20
93.51,6.83,1.68,6.83,1.68,-1.68,-1.82,-2.38,5.14,5.14,5.15
94.44,6.85,1.76,6.85,1.77,-1.77,-1.87,-2.47,5.08,5.08,5.09
95.39,6.87,1.85,6.87,1.86,-1.86,-1.92,-2.56,5.01,5.01,5.02
96.34,6.89,1.94,6.89,1.94,-1.94,-1.97,-2.65,4.94,4.95,4.95
97.30,6.91,2.03,6.91,2.03,-2.03,-2.03,-2.74,4.87,4.88,4.88
98.28,6.94,2.12,6.93,2.12,-2.12,-2.09,-2.83,4.81,4.81,4.81
99.26,6.96,2.22,6.96,2.22,-2.22,-2.15,-2.92,4.74,4.74,4.74
100.25,6.98,2.31,6.98,2.31,-2.31,-2.21,-3.01,4.67,4.67,4.67
101.25,7.01,2.41,7.00,2.40,-2.40,-2.28,-3.11,4.61,4.60,4.60
102.27,7.03,2.50,7.02,2.50,-2.50,-2.34,-3.20,4.53,4.53,4.52
103.29,7.05,2.60,7.04,2.59,-2.59,-2.41,-3.29,4.46,4.45,4.45
104.32,7.07,2.69,7.07,2.69,-2.69,-2.48,-3.39,4.38,4.38,4.38
105.37,7.09,2.78,7.09,2.78,-2.78,-2.55,-3.48,4.30,4.30,4.31
106.42,7.10,2.86,7.11,2.88,-2.88,-2.63,-3.57,4.22,4.23,4.23
107.48,7.13,2.97,7.13,2.97,-2.97,-2.70,-3.66,4.15,4.15,4.16
108.56,7.15,3.07,7.15,3.07,-3.07,-2.78,-3.75,4.08,4.08,4.08
109.64,7.17,3.17,7.16,3.16,-3.16,-2.86,-3.83,4.00,4.00,4.00
110.74,7.18,3.24,7.18,3.26,-3.26,-2.94,-3.91,3.92,3.92,3.93
111.85,7.20,3.34,7.19,3.35,-3.35,-3.02,-3.99,3.85,3.85,3.86
112.97,7.21,3.45,7.21,3.44,-3.44,-3.11,-4.07,3.77,3.77,3.76
114.10,7.22,3.52,7.22,3.53,-3.53,-3.19,-4.14,3.69,3.69,3.69
115.24,7.24,3.62,7.23,3.62,-3.62,-3.28,-4.20,3.62,3.61,3.62
116.39,7.25,3.72,7.24,3.70,-3.70,-3.37,-4.26,3.55,3.54,3.53
117.55,7.25,3.79,7.25,3.78,-3.78,-3.46,-4.32,3.46,3.46,3.45
118.73,7.25,3.87,7.25,3.86,-3.86,-3.55,-4.37,3.38,3.39,3.38
119.92,7.26,3.94,7.25,3.94,-3.94,-3.64,-4.41,3.32,3.31,3.32
121.12,7.26,4.02,7.25,4.01,-4.01,-3.74,-4.45,3.24,3.24,3.24
122.33,7.25,4.08,7.25,4.08,-4.08,-3.83,-4.48,3.16,3.17,3.17
123.55,7.25,4.14,7.25,4.15,-4.15,-3.92,-4.50,3.10,3.10,3.11
124.79,7.24,4.20,7.24,4.21,-4.21,-4.01,-4.52,3.02,3.03,3.03
126.03,7.23,4.25,7.23,4.27,-4.27,-4.10,-4.52,2.96,2.96,2.97
127.29,7.22,4.32,7.22,4.33,-4.33,-4.19,-4.52,2.89,2.89,2.90
128.57,7.21,4.39,7.21,4.38,-4.38,-4.27,-4.52,2.83,2.83,2.82
129.85,7.20,4.43,7.19,4.42,-4.42,-4.36,-4.50,2.77,2.77,2.76
131.15,7.18,4.47,7.17,4.47,-4.47,-4.44,-4.48,2.71,2.70,2.70
132.46,7.16,4.52,7.15,4.50,-4.50,-4.51,-4.46,2.65,2.64,2.64
133.79,7.13,4.54,7.13,4.54,-4.54,-4.58,-4.43,2.59,2.59,2.59
135.12,7.10,4.57,7.10,4.57,-4.57,-4.65,-4.39,2.53,2.53,2.52
136.48,7.07,4.59,7.07,4.59,-4.59,-4.71,-4.34,2.48,2.48,2.48
137.84,7.04,4.60,7.04,4.61,-4.61,-4.77,-4.30,2.43,2.43,2.43
139.22,7.00,4.62,7.00,4.62,-4.62,-4.82,-4.25,2.38,2.38,2.37
140.61,6.97,4.65,6.96,4.63,-4.63,-4.86,-4.19,2.34,2.34,2.32
142.02,6.93,4.63,6.92,4.63,-4.63,-4.89,-4.13,2.29,2.29,2.30
143.44,6.88,4.62,6.88,4.63,-4.63,-4.92,-4.07,2.25,2.25,2.26
144.87,6.84,4.63,6.84,4.62,-4.62,-4.93,-4.01,2.21,2.21,2.21
146.32,6.80,4.63,6.79,4.62,-4.62,-4.94,-3.94,2.18,2.17,2.17
147.78,6.74,4.59,6.74,4.60,-4.60,-4.94,-3.88,2.13,2.14,2.14
149.26,6.69,4.58,6.69,4.59,-4.59,-4.94,-3.81,2.10,2.10,2.11
150.75,6.63,4.57,6.63,4.57,-4.57,-4.92,-3.74,2.06,2.06,2.06
152.26,6.58,4.55,6.57,4.55,-4.55,-4.90,-3.68,2.03,2.03,2.03
153.78,6.52,4.52,6.51,4.52,-4.52,-4.86,-3.61,2.00,1.99,1.99
155.32,6.46,4.50,6.45,4.49,-4.49,-4.82,-3.54,1.96,1.96,1.96
156.88,6.39,4.46,6.39,4.46,-4.46,-4.77,-3.48,1.92,1.92,1.93
158.44,6.32,4.43,6.32,4.43,-4.43,-4.72,-3.41,1.88,1.89,1.89
160.03,6.26,4.41,6.25,4.40,-4.40,-4.66,-3.35,1.86,1.86,1.85
161.63,6.18,4.37,6.18,4.36,-4.36,-4.59,-3.29,1.81,1.82,1.81
163.24,6.11,4.32,6.11,4.32,-4.32,-4.52,-3.23,1.78,1.79,1.78
164.88,6.04,4.28,6.04,4.29,-4.29,-4.44,-3.17,1.75,1.75,1.76
166.53,5.97,4.25,5.96,4.25,-4.25,-4.36,-3.11,1.72,1.72,1.72
168.19,5.89,4.21,5.88,4.20,-4.20,-4.27,-3.06,1.68,1.68,1.68
169.87,5.80,4.15,5.80,4.16,-4.16,-4.18,-3.01,1.64,1.64,1.64
171.57,5.73,4.12,5.72,4.12,-4.12,-4.09,-2.96,1.61,1.60,1.61
173.29,5.64,4.06,5.64,4.07,-4.07,-4.00,-2.91,1.56,1.57,1.58
175.02,5.56,4.02,5.55,4.03,-4.03,-3.90,-2.86,1.53,1.53,1.54
176.77,5.47,3.98,5.47,3.98,-3.98,-3.81,-2.82,1.49,1.49,1.49
178.54,5.38,3.93,5.38,3.93,-3.93,-3.71,-2.78,1.45,1.45,1.45
180.32,5.29,3.88,5.29,3.88,-3.88,-3.61,-2.74,1.41,1.41,1.41
182.13,5.20,3.83,5.19,3.83,-3.83,-3.51,-2.70,1.37,1.37,1.37
183.95,5.10,3.77,5.10,3.77,-3.77,-3.42,-2.67,1.32,1.33,1.32
185.79,5.01,3.72,5.01,3.72,-3.72,-3.32,-2.64,1.29,1.29,1.29
187.65,4.92,3.68,4.91,3.66,-3.66,-3.22,-2.61,1.25,1.25,1.24
189.52,4.81,3.60,4.82,3.60,-3.60,-3.13,-2.58,1.20,1.21,1.21
191.42,4.73,3.55,4.72,3.54,-3.54,-3.03,-2.55,1.18,1.18,1.17
193.33,4.63,3.48,4.62,3.48,-3.48,-2.94,-2.53,1.15,1.14,1.15
195.27,4.53,3.41,4.53,3.42,-3.42,-2.85,-2.50,1.11,1.11,1.12
197.22,4.43,3.34,4.43,3.35,-3.35,-2.76,-2.48,1.08,1.08,1.09
199.19,4.34,3.30,4.33,3.28,-3.28,-2.67,-2.46,1.06,1.05,1.04
201.18,4.24,3.22,4.23,3.21,-3.21,-2.59,-2.45,1.02,1.02,1.01
203.19,4.14,3.14,4.14,3.14,-3.14,-2.50,-2.43,0.99,0.99,1.00
205.23,4.04,3.07,4.04,3.07,-3.07,-2.42,-2.41,0.96,0.97,0.97
207.28,3.95,2.99,3.95,3.00,-3.00,-2.34,-2.40,0.94,0.94,0.96
209.35,3.85,2.93,3.85,2.93,-2.93,-2.26,-2.38,0.91,0.92,0.92
211.44,3.76,2.86,3.76,2.86,-2.86,-2.18,-2.37,0.89,0.90,0.89
213.56,3.67,2.79,3.67,2.79,-2.79,-2.11,-2.36,0.88,0.88,0.88
215.69,3.58,2.71,3.58,2.72,-2.72,-2.03,-2.34,0.86,0.86,0.87
217.85,3.49,2.63,3.49,2.64,-2.64,-1.96,-2.33,0.84,0.85,0.85
220.03,3.41,2.58,3.41,2.57,-2.57,-1.89,-2.31,0.84,0.84,0.83
222.23,3.33,2.51,3.32,2.50,-2.50,-1.82,-2.30,0.83,0.83,0.81
224.45,3.25,2.43,3.24,2.42,-2.42,-1.76,-2.28,0.82,0.82,0.82
226.70,3.16,2.35,3.16,2.35,-2.35,-1.69,-2.27,0.81,0.81,0.81
228.96,3.09,2.28,3.08,2.27,-2.27,-1.63,-2.25,0.82,0.81,0.80
231.25,3.00,2.18,3.00,2.19,-2.19,-1.57,-2.23,0.80,0.81,0.81
233.57,2.93,2.11,2.93,2.11,-2.11,-1.50,-2.21,0.81,0.81,0.82
235.90,2.85,2.03,2.85,2.03,-2.03,-1.44,-2.19,0.81,0.82,0.82
238.26,2.79,1.97,2.78,1.95,-1.95,-1.39,-2.16,0.83,0.83,0.82
240.64,2.71,1.87,2.71,1.87,-1.87,-1.33,-2.13,0.83,0.84,0.84
243.05,2.64,1.79,2.64,1.79,-1.79,-1.27,-2.10,0.85,0.85,0.84
245.48,2.57,1.70,2.57,1.71,-1.71,-1.22,-2.07,0.86,0.86,0.86
247.93,2.50,1.62,2.50,1.62,-1.62,-1.16,-2.03,0.87,0.88,0.87
250.41,2.44,1.55,2.44,1.54,-1.54,-1.11,-1.99,0.89,0.89,0.89
252.92,2.38,1.46,2.37,1.46,-1.46,-1.06,-1.95,0.92,0.91,0.92
255.45,2.31,1.37,2.31,1.38,-1.38,-1.01,-1.91,0.93,0.93,0.94
258.00,2.25,1.29,2.25,1.30,-1.30,-0.96,-1.86,0.95,0.95,0.96
260.58,2.19,1.22,2.19,1.21,-1.21,-0.91,-1.81,0.97,0.97,0.97
263.19,2.13,1.13,2.13,1.13,-1.13,-0.86,-1.75,1.00,0.99,0.99
265.82,2.07,1.05,2.07,1.05,-1.05,-0.81,-1.70,1.02,1.02,1.02
268.48,2.01,0.97,2.01,0.97,-0.97,-0.76,-1.64,1.04,1.04,1.04
271.16,1.96,0.89,1.95,0.89,-0.89,-0.71,-1.58,1.06,1.06,1.07
273.87,1.90,0.81,1.90,0.82,-0.82,-0.66,-1.51,1.08,1.08,1.08
276.61,1.85,0.73,1.85,0.74,-0.74,-0.62,-1.45,1.11,1.11,1.12
279.38,1.80,0.67,1.79,0.66,-0.66,-0.57,-1.38,1.13,1.13,1.13
282.17,1.75,0.59,1.74,0.59,-0.59,-0.52,-1.31,1.16,1.16,1.16
284.99,1.69,0.51,1.69,0.51,-0.51,-0.48,-1.24,1.17,1.18,1.18
287.84,1.64,0.43,1.64,0.44,-0.44,-0.43,-1.16,1.20,1.21,1.20
290.72,1.60,0.36,1.60,0.36,-0.36,-0.38,-1.09,1.24,1.24,1.24
293.63,1.56,0.30,1.55,0.29,-0.29,-0.33,-1.01,1.27,1.26,1.25
296.57,1.51,0.22,1.50,0.21,-0.21,-0.28,-0.93,1.29,1.29,1.29
299.53,1.46,0.14,1.46,0.14,-0.14,-0.23,-0.85,1.32,1.32,1.31
302.53,1.42,0.08,1.41,0.06,-0.06,-0.19,-0.77,1.35,1.35,1.34
305.55,1.37,-0.02,1.37,-0.01,0.01,-0.13,-0.69,1.38,1.38,1.38
308.61,1.34,-0.07,1.33,-0.08,0.08,-0.08,-0.61,1.42,1.41,1.41
311.69,1.29,-0.16,1.29,-0.15,0.15,-0.03,-0.52,1.44,1.44,1.45
314.81,1.26,-0.23,1.25,-0.22,0.22,0.02,-0.44,1.48,1.47,1.48
317.96,1.21,-0.30,1.22,-0.29,0.29,0.08,-0.36,1.49,1.50,1.51
321.14,1.18,-0.36,1.18,-0.35,0.35,0.14,-0.27,1.53,1.53,1.53
324.35,1.14,-0.42,1.15,-0.42,0.42,0.19,-0.18,1.55,1.56,1.56
327.59,1.10,-0.50,1.11,-0.48,0.48,0.25,-0.10,1.57,1.59,1.60
330.87,1.07,-0.56,1.08,-0.54,0.54,0.32,-0.01,1.61,1.62,1.62
334.18,1.04,-0.60,1.04,-0.61,0.61,0.38,0.07,1.64,1.64,1.64
337.52,1.01,-0.66,1.00,-0.67,0.67,0.45,0.16,1.68,1.67,1.67
340.90,0.98,-0.72,0.95,-0.74,0.74,0.52,0.25,1.72,1.69,1.69
344.30,0.94,-0.78,0.90,-0.81,0.81,0.59,0.34,1.75,1.71,1.71
347.75,0.89,-0.85,0.85,-0.88,0.88,0.66,0.43,1.77,1.73,1.74
351.23,0.84,-0.92,0.80,-0.95,0.95,0.74,0.52,1.79,1.75,1.76
354.74,0.78,-1.00,0.75,-1.03,1.03,0.82,0.61,1.80,1.77,1.77
358.28,0.71,-1.09,0.70,-1.10,1.10,0.91,0.70,1.80,1.79,1.79
361.87,0.64,-1.17,0.65,-1.17,1.17,0.99,0.79,1.80,1.81,1.81
365.49,0.57,-1.27,0.60,-1.23,1.23,1.08,0.88,1.80,1.83,1.84
369.14,0.51,-1.34,0.55,-1.30,1.30,1.17,0.97,1.80,1.85,1.85
372.83,0.47,-1.40,0.51,-1.36,1.36,1.26,1.06,1.82,1.87,1.86
376.56,0.45,-1.43,0.47,-1.41,1.41,1.35,1.16,1.86,1.89,1.88
380.33,0.42,-1.49,0.44,-1.47,1.47,1.44,1.25,1.88,1.91,1.91
384.13,0.41,-1.52,0.41,-1.51,1.51,1.52,1.34,1.92,1.93,1.93
387.97,0.39,-1.56,0.39,-1.56,1.56,1.61,1.43,1.94,1.95,1.95
391.85,0.39,-1.58,0.37,-1.60,1.60,1.68,1.53,1.98,1.97,1.96
395.77,0.38,-1.62,0.36,-1.63,1.63,1.76,1.62,2.01,1.99,1.99
399.73,0.37,-1.64,0.35,-1.66,1.66,1.82,1.71,2.03,2.01,2.01
403.72,0.36,-1.67,0.34,-1.69,1.69,1.87,1.81,2.05,2.03,2.03
407.76,0.34,-1.71,0.33,-1.72,1.72,1.92,1.90,2.06,2.05,2.05
411.84,0.32,-1.76,0.32,-1.76,1.76,1.95,1.99,2.07,2.07,2.08
415.96,0.32,-1.78,0.30,-1.79,1.79,1.98,2.09,2.11,2.09,2.10
420.12,0.30,-1.82,0.29,-1.82,1.82,1.99,2.18,2.12,2.12,2.11
424.32,0.29,-1.86,0.29,-1.85,1.85,2.00,2.27,2.14,2.14,2.14
428.56,0.28,-1.88,0.28,-1.88,1.88,1.99,2.35,2.16,2.16,2.16
432.85,0.27,-1.91,0.27,-1.91,1.91,1.98,2.44,2.18,2.19,2.18
437.18,0.27,-1.94,0.27,-1.94,1.94,1.97,2.52,2.20,2.21,2.21
441.55,0.27,-1.97,0.27,-1.96,1.96,1.95,2.61,2.23,2.23,2.24
445.96,0.26,-2.00,0.28,-1.98,1.98,1.93,2.69,2.24,2.26,2.26
450.42,0.28,-2.00,0.29,-2.00,2.00,1.91,2.76,2.27,2.29,2.28
454.93,0.29,-2.03,0.30,-2.01,2.01,1.89,2.84,2.30,2.31,2.32
459.48,0.32,-2.02,0.32,-2.02,2.02,1.87,2.91,2.34,2.34,2.33
464.07,0.34,-2.03,0.33,-2.03,2.03,1.85,2.97,2.37,2.37,2.36
468.71,0.36,-2.05,0.36,-2.04,2.04,1.84,3.03,2.39,2.39,2.40
473.40,0.38,-2.05,0.38,-2.04,2.04,1.82,3.09,2.42,2.42,2.42
478.13,0.41,-2.04,0.40,-2.05,2.05,1.82,3.14,2.45,2.45,2.45
482.91,0.43,-2.05,0.43,-2.05,2.05,1.82,3.19,2.48,2.48,2.48
487.74,0.46,-2.05,0.45,-2.05,2.05,1.82,3.23,2.51,2.51,2.51
492.62,0.49,-2.05,0.48,-2.06,2.06,1.83,3.27,2.54,2.54,2.54
497.55,0.52,-2.04,0.50,-2.06,2.06,1.84,3.30,2.58,2.56,2.56
502.52,0.53,-2.07,0.53,-2.06,2.06,1.85,3.33,2.59,2.59,2.60
507.55,0.55,-2.07,0.55,-2.07,2.07,1.88,3.35,2.62,2.62,2.62
512.62,0.57,-2.08,0.57,-2.08,2.08,1.90,3.37,2.64,2.65,2.65
517.75,0.59,-2.09,0.59,-2.09,2.09,1.93,3.38,2.67,2.67,2.68
522.93,0.60,-2.11,0.60,-2.10,2.10,1.97,3.39,2.69,2.70,2.71
528.16,0.62,-2.11,0.62,-2.11,2.11,2.01,3.39,2.73,2.73,2.72
533.44,0.63,-2.13,0.63,-2.13,2.13,2.05,3.39,2.75,2.76,2.75
538.77,0.64,-2.15,0.64,-2.15,2.15,2.10,3.38,2.78,2.78,2.78
544.16,0.64,-2.18,0.64,-2.17,2.17,2.16,3.37,2.81,2.81,2.81
