frequency,raw,error,smoothed,error_smoothed,equalization,parametric_eq,fixed_band_eq,equalized_raw,equalized_smoothed,target
20.00,-6.88,-11.04,-6.88,-11.07,11.07,9.97,3.70,4.19,4.18,4.16
20.20,-6.81,-10.97,-6.81,-10.99,10.99,10.07,3.80,4.18,4.18,4.16
20.40,-6.74,-10.90,-6.73,-10.90,10.90,10.16,3.90,4.17,4.17,4.16
20.61,-6.67,-10.83,-6.66,-10.82,10.82,10.24,4.01,4.15,4.16,4.16
20.81,-6.59,-10.75,-6.59,-10.74,10.74,10.31,4.12,4.15,4.15,4.16
21.02,-6.52,-10.68,-6.51,-10.65,10.65,10.38,4.23,4.14,4.14,4.16
21.23,-6.44,-10.58,-6.44,-10.57,10.57,10.43,4.34,4.13,4.13,4.14
21.44,-6.37,-10.50,-6.37,-10.48,10.48,10.47,4.46,4.12,4.12,4.13
21.66,-6.30,-10.41,-6.30,-10.40,10.40,10.50,4.58,4.10,4.10,4.11
21.87,-6.23,-10.32,-6.22,-10.31,10.31,10.52,4.71,4.08,4.09,4.09
22.09,-6.15,-10.23,-6.15,-10.22,10.22,10.53,4.83,4.08,4.07,4.08
22.31,-6.08,-10.13,-6.08,-10.13,10.13,10.52,4.96,4.06,4.05,4.05
22.54,-6.01,-10.04,-6.01,-10.04,10.04,10.51,5.10,4.03,4.03,4.03
22.76,-5.94,-9.95,-5.93,-9.94,9.94,10.48,5.24,4.01,4.01,4.01
22.99,-5.87,-9.85,-5.86,-9.85,9.85,10.45,5.38,3.98,3.99,3.98
23.22,-5.80,-9.75,-5.79,-9.75,9.75,10.40,5.52,3.96,3.96,3.95
23.45,-5.72,-9.64,-5.72,-9.66,9.66,10.34,5.67,3.95,3.94,3.92
23.69,-5.65,-9.56,-5.65,-9.57,9.57,10.27,5.82,3.92,3.92,3.91
23.92,-5.58,-9.47,-5.58,-9.48,9.48,10.19,5.97,3.90,3.90,3.89
24.16,-5.50,-9.38,-5.51,-9.39,9.39,10.11,6.13,3.89,3.88,3.88
24.40,-5.44,-9.30,-5.44,-9.30,9.30,10.01,6.29,3.86,3.86,3.86
24.65,-5.37,-9.21,-5.36,-9.21,9.21,9.91,6.45,3.84,3.84,3.84
24.89,-5.30,-9.12,-5.29,-9.12,9.12,9.80,6.61,3.82,3.82,3.82
25.14,-5.23,-9.04,-5.22,-9.03,9.03,9.69,6.78,3.80,3.81,3.81
25.39,-5.16,-8.95,-5.15,-8.94,8.94,9.57,6.95,3.79,3.79,3.79
25.65,-5.08,-8.86,-5.08,-8.86,8.86,9.44,7.12,3.78,3.78,3.78
25.91,-5.01,-8.76,-5.01,-8.77,8.77,9.31,7.29,3.76,3.76,3.75
26.16,-4.94,-8.68,-4.94,-8.68,8.68,9.18,7.46,3.75,3.75,3.74
26.43,-4.87,-8.60,-4.87,-8.60,8.60,9.04,7.63,3.73,3.73,3.73
26.69,-4.80,-8.50,-4.80,-8.51,8.51,8.90,7.80,3.71,3.71,3.70
26.96,-4.73,-8.42,-4.73,-8.42,8.42,8.76,7.96,3.69,3.70,3.69
27.23,-4.65,-8.33,-4.65,-8.33,8.33,8.62,8.13,3.69,3.68,3.68
27.50,-4.59,-8.26,-4.58,-8.25,8.25,8.47,8.28,3.66,3.67,3.67
27.77,-4.51,-8.16,-4.51,-8.16,8.16,8.33,8.44,3.66,3.65,3.65
28.05,-4.44,-8.08,-4.44,-8.07,8.07,8.18,8.59,3.64,3.64,3.64
28.33,-4.37,-7.99,-4.36,-7.99,7.99,8.04,8.73,3.62,3.63,3.62
28.62,-4.29,-7.90,-4.29,-7.90,7.90,7.89,8.86,3.61,3.61,3.61
28.90,-4.22,-7.81,-4.22,-7.82,7.82,7.75,8.98,3.60,3.60,3.59
29.19,-4.15,-7.72,-4.14,-7.73,7.73,7.60,9.09,3.58,3.59,3.57
29.48,-4.07,-7.64,-4.07,-7.64,7.64,7.46,9.19,3.58,3.57,3.57
29.78,-4.00,-7.56,-4.00,-7.56,7.56,7.32,9.27,3.56,3.56,3.56
30.08,-3.92,-7.47,-3.92,-7.47,7.47,7.18,9.34,3.55,3.54,3.55
30.38,-3.86,-7.39,-3.85,-7.38,7.38,7.04,9.40,3.52,3.53,3.53
30.68,-3.78,-7.30,-3.78,-7.29,7.29,6.90,9.43,3.51,3.51,3.52
30.99,-3.70,-7.19,-3.70,-7.20,7.20,6.77,9.45,3.50,3.50,3.49
31.30,-3.63,-7.11,-3.63,-7.11,7.11,6.63,9.45,3.48,3.48,3.48
31.61,-3.56,-7.03,-3.56,-7.02,7.02,6.50,9.44,3.46,3.47,3.47
31.93,-3.49,-6.94,-3.48,-6.93,6.93,6.37,9.40,3.44,3.45,3.45
32.24,-3.42,-6.84,-3.41,-6.84,6.84,6.24,9.35,3.42,3.43,3.42
32.57,-3.34,-6.74,-3.34,-6.75,6.75,6.11,9.29,3.41,3.41,3.40
32.89,-3.27,-6.66,-3.26,-6.65,6.65,5.98,9.20,3.39,3.39,3.39
33.22,-3.19,-6.55,-3.19,-6.56,6.56,5.86,9.11,3.37,3.37,3.36
33.55,-3.12,-6.47,-3.12,-6.47,6.47,5.74,9.00,3.35,3.35,3.35
33.89,-3.05,-6.37,-3.05,-6.37,6.37,5.62,8.88,3.33,3.33,3.32
34.23,-2.98,-6.28,-2.98,-6.28,6.28,5.50,8.75,3.31,3.31,3.30
34.57,-2.91,-6.19,-2.91,-6.19,6.19,5.39,8.61,3.29,3.29,3.28
34.92,-2.84,-6.10,-2.84,-6.10,6.10,5.27,8.46,3.26,3.26,3.26
35.27,-2.77,-6.01,-2.77,-6.01,6.01,5.16,8.30,3.24,3.24,3.24
35.62,-2.70,-5.92,-2.70,-5.92,5.92,5.05,8.14,3.22,3.22,3.22
35.97,-2.63,-5.83,-2.63,-5.83,5.83,4.95,7.98,3.20,3.20,3.20
36.33,-2.56,-5.74,-2.56,-5.74,5.74,4.84,7.81,3.19,3.18,3.18
36.70,-2.50,-5.66,-2.49,-5.65,5.65,4.74,7.64,3.16,3.16,3.16
37.06,-2.43,-5.57,-2.43,-5.57,5.57,4.63,7.47,3.14,3.14,3.14
37.43,-2.36,-5.48,-2.36,-5.48,5.48,4.53,7.29,3.12,3.12,3.12
37.81,-2.30,-5.40,-2.30,-5.40,5.40,4.44,7.12,3.10,3.10,3.10
38.19,-2.23,-5.30,-2.23,-5.31,5.31,4.34,6.95,3.08,3.08,3.07
38.57,-2.17,-5.23,-2.17,-5.22,5.22,4.25,6.78,3.06,3.06,3.06
38.95,-2.11,-5.14,-2.10,-5.14,5.14,4.15,6.61,3.04,3.04,3.03
39.34,-2.05,-5.06,-2.04,-5.06,5.06,4.06,6.44,3.01,3.02,3.01
39.74,-1.98,-4.97,-1.98,-4.98,4.98,3.97,6.27,3.00,3.00,2.99
40.14,-1.92,-4.90,-1.92,-4.90,4.90,3.88,6.11,2.98,2.98,2.98
40.54,-1.87,-4.83,-1.86,-4.82,4.82,3.80,5.95,2.95,2.96,2.96
40.94,-1.80,-4.74,-1.80,-4.74,4.74,3.71,5.79,2.95,2.94,2.94
41.35,-1.74,-4.65,-1.74,-4.66,4.66,3.63,5.64,2.93,2.93,2.91
41.76,-1.68,-4.59,-1.68,-4.59,4.59,3.55,5.49,2.91,2.91,2.91
42.18,-1.62,-4.51,-1.62,-4.51,4.51,3.47,5.34,2.89,2.89,2.89
42.60,-1.57,-4.44,-1.56,-4.43,4.43,3.39,5.19,2.87,2.87,2.87
43.03,-1.51,-4.37,-1.51,-4.36,4.36,3.32,5.05,2.85,2.85,2.86
43.46,-1.46,-4.29,-1.45,-4.28,4.28,3.24,4.91,2.82,2.83,2.83
43.90,-1.39,-4.20,-1.39,-4.21,4.21,3.17,4.78,2.82,2.81,2.81
44.33,-1.34,-4.13,-1.34,-4.13,4.13,3.09,4.65,2.80,2.79,2.79
44.78,-1.29,-4.06,-1.28,-4.06,4.06,3.02,4.52,2.77,2.78,2.77
45.23,-1.23,-3.97,-1.23,-3.98,3.98,2.95,4.39,2.76,2.76,2.74
45.68,-1.18,-3.90,-1.17,-3.91,3.91,2.88,4.27,2.73,2.74,2.72
46.13,-1.12,-3.83,-1.12,-3.84,3.84,2.82,4.15,2.72,2.72,2.71
46.60,-1.06,-3.76,-1.06,-3.76,3.76,2.75,4.04,2.70,2.70,2.70
47.06,-1.01,-3.69,-1.01,-3.69,3.69,2.69,3.92,2.68,2.68,2.68
47.53,-0.96,-3.62,-0.96,-3.61,3.61,2.62,3.81,2.66,2.66,2.66
48.01,-0.91,-3.56,-0.91,-3.54,3.54,2.56,3.71,2.63,2.63,2.65
48.49,-0.86,-3.48,-0.86,-3.47,3.47,2.50,3.60,2.61,2.61,2.62
48.97,-0.81,-3.40,-0.81,-3.40,3.40,2.44,3.50,2.59,2.59,2.59
49.46,-0.76,-3.32,-0.76,-3.33,3.33,2.38,3.40,2.57,2.57,2.56
49.96,-0.72,-3.25,-0.71,-3.26,3.26,2.32,3.30,2.54,2.55,2.53
50.46,-0.66,-3.18,-0.66,-3.19,3.19,2.26,3.21,2.53,2.53,2.52
50.96,-0.62,-3.12,-0.62,-3.12,3.12,2.21,3.12,2.50,2.50,2.50
51.47,-0.58,-3.05,-0.57,-3.05,3.05,2.15,3.03,2.47,2.48,2.47
51.99,-0.53,-2.98,-0.53,-2.98,2.98,2.10,2.94,2.45,2.45,2.45
52.51,-0.49,-2.92,-0.48,-2.91,2.91,2.04,2.85,2.43,2.43,2.43
53.03,-0.44,-2.85,-0.44,-2.84,2.84,1.99,2.77,2.41,2.41,2.41
53.56,-0.40,-2.78,-0.39,-2.78,2.78,1.94,2.69,2.38,2.38,2.38
54.10,-0.35,-2.71,-0.35,-2.71,2.71,1.89,2.61,2.36,2.36,2.36
54.64,-0.32,-2.65,-0.31,-2.64,2.64,1.84,2.53,2.33,2.34,2.33
55.18,-0.27,-2.58,-0.27,-2.58,2.58,1.79,2.46,2.31,2.31,2.31
55.74,-0.23,-2.51,-0.23,-2.52,2.52,1.74,2.38,2.29,2.29,2.28
56.29,-0.19,-2.45,-0.19,-2.45,2.45,1.69,2.31,2.27,2.26,2.26
56.86,-0.15,-2.38,-0.15,-2.39,2.39,1.64,2.24,2.24,2.24,2.23
57.42,-0.11,-2.32,-0.11,-2.33,2.33,1.60,2.17,2.22,2.22,2.21
58.00,-0.07,-2.26,-0.07,-2.26,2.26,1.55,2.10,2.20,2.19,2.19
58.58,-0.04,-2.20,-0.04,-2.20,2.20,1.51,2.03,2.16,2.17,2.16
59.16,0.00,-2.14,-0.00,-2.14,2.14,1.46,1.97,2.14,2.14,2.14
59.76,0.03,-2.09,0.03,-2.08,2.08,1.42,1.90,2.11,2.11,2.12
60.35,0.06,-2.03,0.07,-2.02,2.02,1.37,1.84,2.08,2.09,2.09
60.96,0.09,-1.98,0.10,-1.96,1.96,1.33,1.78,2.05,2.06,2.07
61.57,0.13,-1.90,0.13,-1.90,1.90,1.29,1.71,2.03,2.03,2.03
62.18,0.16,-1.84,0.16,-1.84,1.84,1.25,1.65,2.01,2.01,2.00
62.80,0.19,-1.78,0.19,-1.79,1.79,1.21,1.59,1.98,1.98,1.97
63.43,0.22,-1.72,0.22,-1.73,1.73,1.16,1.53,1.95,1.95,1.94
64.07,0.25,-1.66,0.25,-1.68,1.68,1.12,1.48,1.93,1.93,1.91
64.71,0.28,-1.61,0.28,-1.62,1.62,1.08,1.42,1.90,1.90,1.89
65.35,0.30,-1.57,0.30,-1.57,1.57,1.05,1.36,1.87,1.87,1.87
66.01,0.32,-1.53,0.33,-1.52,1.52,1.01,1.31,1.84,1.85,1.85
66.67,0.35,-1.47,0.35,-1.47,1.47,0.97,1.25,1.82,1.82,1.82
67.33,0.38,-1.42,0.37,-1.43,1.43,0.93,1.19,1.81,1.80,1.80
68.01,0.39,-1.38,0.39,-1.38,1.38,0.89,1.14,1.78,1.77,1.77
68.69,0.41,-1.34,0.41,-1.34,1.34,0.85,1.08,1.75,1.75,1.75
69.37,0.42,-1.30,0.43,-1.30,1.30,0.82,1.03,1.72,1.72,1.72
70.07,0.44,-1.25,0.44,-1.26,1.26,0.78,0.98,1.70,1.70,1.69
70.77,0.45,-1.22,0.46,-1.21,1.21,0.74,0.92,1.67,1.67,1.67
71.48,0.47,-1.17,0.47,-1.17,1.17,0.71,0.87,1.64,1.64,1.64
72.19,0.47,-1.14,0.48,-1.13,1.13,0.67,0.82,1.60,1.61,1.61
72.91,0.49,-1.08,0.49,-1.08,1.08,0.64,0.77,1.58,1.57,1.57
73.64,0.50,-1.04,0.50,-1.04,1.04,0.60,0.71,1.54,1.54,1.54
74.38,0.50,-1.01,0.51,-1.00,1.00,0.57,0.66,1.50,1.51,1.51
75.12,0.52,-0.94,0.52,-0.95,0.95,0.53,0.61,1.48,1.47,1.46
75.87,0.53,-0.90,0.53,-0.91,0.91,0.50,0.56,1.44,1.44,1.43
76.63,0.53,-0.87,0.54,-0.86,0.86,0.46,0.51,1.39,1.40,1.40
77.40,0.54,-0.82,0.55,-0.81,0.81,0.43,0.45,1.35,1.36,1.36
78.17,0.55,-0.75,0.56,-0.76,0.76,0.39,0.40,1.32,1.32,1.30
78.95,0.56,-0.72,0.56,-0.71,0.71,0.36,0.35,1.28,1.28,1.28
79.74,0.57,-0.67,0.57,-0.66,0.66,0.32,0.30,1.24,1.24,1.24
80.54,0.57,-0.62,0.58,-0.61,0.61,0.29,0.25,1.18,1.19,1.19
81.35,0.59,-0.56,0.59,-0.56,0.56,0.26,0.19,1.15,1.15,1.15
82.16,0.60,-0.50,0.60,-0.50,0.50,0.22,0.14,1.11,1.10,1.10
82.98,0.61,-0.45,0.61,-0.45,0.45,0.19,0.09,1.06,1.06,1.06
83.81,0.62,-0.38,0.62,-0.40,0.40,0.15,0.04,1.02,1.01,1.00
84.65,0.62,-0.34,0.63,-0.34,0.34,0.12,-0.02,0.96,0.97,0.96
85.50,0.63,-0.29,0.64,-0.28,0.28,0.09,-0.07,0.91,0.92,0.92
86.35,0.64,-0.23,0.65,-0.22,0.22,0.05,-0.12,0.87,0.87,0.87
87.22,0.65,-0.17,0.65,-0.17,0.17,0.02,-0.18,0.82,0.82,0.82
88.09,0.66,-0.10,0.66,-0.11,0.11,-0.02,-0.23,0.77,0.77,0.76
88.97,0.67,-0.05,0.67,-0.05,0.05,-0.05,-0.28,0.72,0.72,0.72
89.86,0.67,-0.00,0.68,0.01,-0.01,-0.09,-0.34,0.67,0.67,0.67
90.76,0.68,0.07,0.68,0.06,-0.06,-0.12,-0.39,0.62,0.62,0.61
91.66,0.68,0.12,0.69,0.12,-0.12,-0.16,-0.45,0.56,0.57,0.56
92.58,0.69,0.19,0.69,0.18,-0.18,-0.19,-0.51,0.52,0.51,0.50
93.51,0.69,0.23,0.69,0.23,-0.23,-0.22,-0.56,0.46,0.46,0.46
94.44,0.70,0.29,0.69,0.29,-0.29,-0.26,-0.62,0.41,0.40,0.41
95.39,0.69,0.34,0.69,0.35,-0.35,-0.30,-0.67,0.35,0.34,0.35
96.34,0.69,0.41,0.69,0.40,-0.40,-0.33,-0.73,0.29,0.29,0.28
97.30,0.68,0.45,0.69,0.46,-0.46,-0.37,-0.79,0.23,0.23,0.23
98.28,0.68,0.51,0.68,0.51,-0.51,-0.40,-0.85,0.17,0.17,0.17
99.26,0.67,0.57,0.68,0.57,-0.57,-0.44,-0.90,0.11,0.11,0.10
100.25,0.67,0.62,0.67,0.62,-0.62,-0.47,-0.96,0.05,0.05,0.05
101.25,0.66,0.67,0.66,0.67,-0.67,-0.51,-1.02,-0.01,-0.01,-0.01
102.27,0.65,0.73,0.65,0.72,-0.72,-0.55,-1.08,-0.07,-0.07,-0.08
103.29,0.64,0.79,0.64,0.78,-0.78,-0.59,-1.14,-0.13,-0.14,-0.15
104.32,0.63,0.83,0.63,0.83,-0.83,-0.62,-1.19,-0.20,-0.20,-0.20
105.37,0.62,0.88,0.62,0.88,-0.88,-0.66,-1.25,-0.26,-0.27,-0.26
106.42,0.60,0.93,0.61,0.94,-0.94,-0.70,-1.30,-0.33,-0.33,-0.33
107.48,0.59,0.99,0.59,0.99,-0.99,-0.74,-1.36,-0.40,-0.40,-0.40
108.56,0.58,1.05,0.58,1.05,-1.05,-0.78,-1.41,-0.46,-0.46,-0.47
109.64,0.57,1.10,0.57,1.10,-1.10,-0.82,-1.47,-0.53,-0.53,-0.53
110.74,0.55,1.14,0.56,1.16,-1.16,-0.86,-1.52,-0.61,-0.60,-0.59
111.85,0.54,1.20,0.55,1.22,-1.22,-0.90,-1.57,-0.67,-0.66,-0.66
112.97,0.53,1.27,0.54,1.28,-1.28,-0.94,-1.62,-0.74,-0.73,-0.74
114.10,0.53,1.33,0.54,1.34,-1.34,-0.98,-1.66,-0.80,-0.80,-0.80
115.24,0.53,1.40,0.53,1.40,-1.40,-1.02,-1.71,-0.86,-0.87,-0.87
116.39,0.53,1.47,0.53,1.46,-1.46,-1.06,-1.75,-0.93,-0.93,-0.94
117.55,0.52,1.53,0.52,1.52,-1.52,-1.10,-1.79,-1.00,-1.00,-1.01
118.73,0.52,1.59,0.52,1.58,-1.58,-1.14,-1.83,-1.06,-1.06,-1.07
119.92,0.51,1.64,0.52,1.64,-1.64,-1.19,-1.86,-1.13,-1.13,-1.13
121.12,0.51,1.70,0.51,1.70,-1.70,-1.23,-1.89,-1.19,-1.19,-1.19
122.33,0.51,1.77,0.51,1.76,-1.76,-1.27,-1.92,-1.25,-1.25,-1.26
123.55,0.50,1.81,0.51,1.82,-1.82,-1.32,-1.95,-1.32,-1.31,-1.31
124.79,0.50,1.87,0.50,1.88,-1.88,-1.36,-1.97,-1.37,-1.37,-1.37
126.03,0.50,1.92,0.50,1.93,-1.93,-1.41,-1.99,-1.43,-1.43,-1.42
127.29,0.49,1.97,0.50,1.98,-1.98,-1.45,-2.01,-1.49,-1.49,-1.48
128.57,0.49,2.04,0.49,2.03,-2.03,-1.50,-2.02,-1.54,-1.54,-1.55
129.85,0.49,2.09,0.49,2.08,-2.08,-1.54,-2.03,-1.59,-1.60,-1.60
131.15,0.48,2.13,0.48,2.13,-2.13,-1.59,-2.04,-1.65,-1.65,-1.65
132.46,0.47,2.18,0.47,2.17,-2.17,-1.63,-2.05,-1.70,-1.70,-1.71
133.79,0.47,2.22,0.47,2.22,-2.22,-1.68,-2.05,-1.74,-1.75,-1.75
135.12,0.46,2.27,0.46,2.26,-2.26,-1.72,-2.05,-1.79,-1.79,-1.81
136.48,0.45,2.29,0.45,2.29,-2.29,-1.77,-2.05,-1.84,-1.84,-1.84
137.84,0.44,2.32,0.45,2.33,-2.33,-1.82,-2.05,-1.88,-1.88,-1.88
139.22,0.43,2.36,0.44,2.36,-2.36,-1.86,-2.05,-1.92,-1.92,-1.93
140.61,0.42,2.39,0.43,2.38,-2.38,-1.91,-2.04,-1.96,-1.96,-1.97
142.02,0.42,2.41,0.42,2.41,-2.41,-1.95,-2.04,-1.99,-1.99,-1.99
143.44,0.40,2.42,0.41,2.43,-2.43,-2.00,-2.03,-2.03,-2.02,-2.02
144.87,0.39,2.45,0.40,2.45,-2.45,-2.05,-2.02,-2.06,-2.05,-2.06
146.32,0.39,2.48,0.38,2.47,-2.47,-2.09,-2.02,-2.08,-2.08,-2.09
147.78,0.37,2.48,0.37,2.48,-2.48,-2.14,-2.01,-2.11,-2.11,-2.11
149.26,0.36,2.50,0.35,2.50,-2.50,-2.18,-2.00,-2.14,-2.14,-2.14
150.75,0.33,2.51,0.34,2.51,-2.51,-2.22,-1.99,-2.18,-2.17,-2.18
152.26,0.32,2.52,0.32,2.52,-2.52,-2.27,-1.98,-2.20,-2.20,-2.20
153.78,0.30,2.53,0.30,2.53,-2.53,-2.31,-1.98,-2.23,-2.23,-2.23
155.32,0.28,2.53,0.28,2.54,-2.54,-2.35,-1.97,-2.25,-2.25,-2.25
156.88,0.26,2.54,0.26,2.54,-2.54,-2.39,-1.96,-2.28,-2.28,-2.28
158.44,0.23,2.54,0.24,2.54,-2.54,-2.43,-1.96,-2.31,-2.31,-2.31
160.03,0.21,2.55,0.21,2.55,-2.55,-2.47,-1.96,-2.33,-2.33,-2.34
161.63,0.18,2.55,0.19,2.55,-2.55,-2.51,-1.95,-2.36,-2.36,-2.37
163.24,0.15,2.55,0.16,2.55,-2.55,-2.55,-1.95,-2.39,-2.39,-2.40
164.88,0.13,2.55,0.13,2.55,-2.55,-2.58,-1.95,-2.42,-2.42,-2.42
166.53,0.10,2.54,0.10,2.55,-2.55,-2.61,-1.95,-2.44,-2.45,-2.44
168.19,0.07,2.55,0.07,2.55,-2.55,-2.65,-1.96,-2.47,-2.48,-2.48
169.87,0.03,2.54,0.04,2.54,-2.54,-2.68,-1.96,-2.51,-2.51,-2.51
171.57,0.00,2.54,0.00,2.54,-2.54,-2.71,-1.97,-2.54,-2.54,-2.54
173.29,-0.04,2.52,-0.03,2.54,-2.54,-2.73,-1.97,-2.58,-2.57,-2.56
175.02,-0.07,2.53,-0.07,2.54,-2.54,-2.76,-1.98,-2.60,-2.61,-2.60
176.77,-0.11,2.53,-0.11,2.53,-2.53,-2.78,-1.99,-2.64,-2.64,-2.64
178.54,-0.14,2.54,-0.15,2.52,-2.52,-2.80,-2.01,-2.66,-2.67,-2.68
180.32,-0.19,2.52,-0.19,2.51,-2.51,-2.82,-2.02,-2.70,-2.71,-2.71
182.13,-0.23,2.51,-0.24,2.50,-2.50,-2.83,-2.04,-2.73,-2.74,-2.74
183.95,-0.29,2.49,-0.28,2.49,-2.49,-2.85,-2.05,-2.78,-2.78,-2.78
185.79,-0.33,2.49,-0.33,2.48,-2.48,-2.86,-2.07,-2.81,-2.81,-2.82
187.65,-0.37,2.49,-0.38,2.47,-2.47,-2.87,-2.09,-2.83,-2.84,-2.86
189.52,-0.43,2.46,-0.42,2.45,-2.45,-2.88,-2.12,-2.88,-2.88,-2.89
191.42,-0.47,2.44,-0.47,2.44,-2.44,-2.88,-2.14,-2.91,-2.91,-2.91
193.33,-0.51,2.42,-0.51,2.43,-2.43,-2.88,-2.16,-2.94,-2.94,-2.93
195.27,-0.56,2.40,-0.55,2.42,-2.42,-2.88,-2.19,-2.97,-2.97,-2.96
197.22,-0.60,2.39,-0.59,2.41,-2.41,-2.88,-2.22,-3.00,-2.99,-2.99
199.19,-0.63,2.41,-0.62,2.40,-2.40,-2.87,-2.24,-3.03,-3.02,-3.04
201.18,-0.65,2.40,-0.64,2.40,-2.40,-2.87,-2.27,-3.05,-3.04,-3.05
203.19,-0.68,2.39,-0.67,2.40,-2.40,-2.86,-2.30,-3.08,-3.07,-3.07
205.23,-0.70,2.39,-0.68,2.41,-2.41,-2.84,-2.33,-3.10,-3.09,-3.09
207.28,-0.70,2.40,-0.69,2.42,-2.42,-2.83,-2.36,-3.11,-3.11,-3.10
209.35,-0.71,2.42,-0.70,2.43,-2.43,-2.81,-2.39,-3.14,-3.13,-3.13
211.44,-0.70,2.45,-0.69,2.45,-2.45,-2.80,-2.42,-3.15,-3.15,-3.15
213.56,-0.70,2.47,-0.69,2.47,-2.47,-2.78,-2.45,-3.17,-3.16,-3.17
215.69,-0.69,2.48,-0.68,2.50,-2.50,-2.75,-2.48,-3.19,-3.18,-3.17
217.85,-0.68,2.50,-0.66,2.52,-2.52,-2.73,-2.51,-3.20,-3.19,-3.18
220.03,-0.65,2.56,-0.65,2.55,-2.55,-2.70,-2.54,-3.20,-3.20,-3.21
222.23,-0.63,2.59,-0.63,2.57,-2.57,-2.68,-2.57,-3.20,-3.20,-3.22
224.45,-0.61,2.60,-0.61,2.59,-2.59,-2.65,-2.59,-3.20,-3.21,-3.21
226.70,-0.59,2.63,-0.60,2.61,-2.61,-2.62,-2.62,-3.20,-3.21,-3.22
228.96,-0.57,2.65,-0.58,2.63,-2.63,-2.59,-2.64,-3.20,-3.21,-3.22
231.25,-0.56,2.65,-0.57,2.64,-2.64,-2.55,-2.65,-3.20,-3.21,-3.21
233.57,-0.55,2.65,-0.56,2.64,-2.64,-2.52,-2.67,-3.19,-3.20,-3.20
235.90,-0.55,2.65,-0.55,2.64,-2.64,-2.49,-2.68,-3.19,-3.20,-3.20
238.26,-0.54,2.66,-0.55,2.64,-2.64,-2.45,-2.69,-3.17,-3.19,-3.20
240.64,-0.55,2.63,-0.55,2.62,-2.62,-2.41,-2.70,-3.17,-3.17,-3.18
243.05,-0.55,2.61,-0.55,2.61,-2.61,-2.38,-2.70,-3.15,-3.16,-3.16
245.48,-0.57,2.57,-0.56,2.58,-2.58,-2.34,-2.70,-3.15,-3.14,-3.14
247.93,-0.57,2.56,-0.57,2.55,-2.55,-2.30,-2.70,-3.12,-3.12,-3.13
250.41,-0.58,2.54,-0.58,2.52,-2.52,-2.26,-2.69,-3.10,-3.11,-3.12
252.92,-0.60,2.48,-0.60,2.49,-2.49,-2.23,-2.67,-3.08,-3.08,-3.08
255.45,-0.62,2.44,-0.61,2.45,-2.45,-2.19,-2.66,-3.07,-3.06,-3.06
258.00,-0.64,2.40,-0.63,2.41,-2.41,-2.15,-2.64,-3.05,-3.04,-3.04
260.58,-0.65,2.37,-0.65,2.37,-2.37,-2.11,-2.61,-3.02,-3.02,-3.02
263.19,-0.67,2.33,-0.66,2.33,-2.33,-2.07,-2.59,-3.00,-2.99,-3.00
265.82,-0.69,2.29,-0.68,2.29,-2.29,-2.03,-2.56,-2.97,-2.97,-2.98
268.48,-0.71,2.24,-0.70,2.25,-2.25,-1.99,-2.52,-2.95,-2.95,-2.95
271.16,-0.72,2.20,-0.72,2.21,-2.21,-1.95,-2.48,-2.92,-2.92,-2.92
273.87,-0.74,2.16,-0.73,2.17,-2.17,-1.92,-2.44,-2.90,-2.90,-2.90
276.61,-0.76,2.11,-0.75,2.12,-2.12,-1.88,-2.40,-2.88,-2.87,-2.87
279.38,-0.77,2.08,-0.77,2.08,-2.08,-1.84,-2.36,-2.85,-2.85,-2.85
282.17,-0.79,2.04,-0.78,2.04,-2.04,-1.80,-2.31,-2.83,-2.82,-2.83
284.99,-0.80,2.00,-0.80,2.00,-2.00,-1.76,-2.26,-2.80,-2.80,-2.80
287.84,-0.82,1.96,-0.81,1.96,-1.96,-1.73,-2.21,-2.77,-2.77,-2.78
290.72,-0.83,1.91,-0.83,1.91,-1.91,-1.69,-2.16,-2.74,-2.74,-2.74
293.63,-0.85,1.87,-0.85,1.87,-1.87,-1.65,-2.11,-2.71,-2.71,-2.72
296.57,-0.86,1.83,-0.86,1.82,-1.82,-1.62,-2.05,-2.68,-2.68,-2.69
299.53,-0.88,1.78,-0.88,1.77,-1.77,-1.58,-2.00,-2.65,-2.65,-2.66
302.53,-0.90,1.74,-0.90,1.72,-1.72,-1.55,-1.94,-2.62,-2.62,-2.64
305.55,-0.92,1.67,-0.91,1.68,-1.68,-1.51,-1.89,-2.59,-2.59,-2.59
308.61,-0.93,1.63,-0.93,1.63,-1.63,-1.48,-1.83,-2.55,-2.56,-2.56
311.69,-0.95,1.57,-0.95,1.58,-1.58,-1.44,-1.78,-2.52,-2.53,-2.52
314.81,-0.97,1.52,-0.97,1.53,-1.53,-1.41,-1.72,-2.49,-2.49,-2.49
317.96,-0.99,1.47,-0.99,1.47,-1.47,-1.38,-1.67,-2.46,-2.46,-2.46
321.14,-1.01,1.42,-1.01,1.42,-1.42,-1.35,-1.61,-2.43,-2.43,-2.43
324.35,-1.03,1.38,-1.03,1.37,-1.37,-1.32,-1.56,-2.40,-2.40,-2.41
327.59,-1.05,1.32,-1.05,1.33,-1.33,-1.28,-1.51,-2.37,-2.37,-2.37
330.87,-1.07,1.27,-1.07,1.28,-1.28,-1.25,-1.46,-2.34,-2.34,-2.34
334.18,-1.09,1.23,-1.09,1.23,-1.23,-1.22,-1.40,-2.32,-2.32,-2.32
337.52,-1.10,1.20,-1.11,1.18,-1.18,-1.20,-1.35,-2.28,-2.29,-2.30
340.90,-1.12,1.15,-1.13,1.14,-1.14,-1.17,-1.30,-2.26,-2.27,-2.27
344.30,-1.15,1.10,-1.15,1.10,-1.10,-1.14,-1.25,-2.25,-2.25,-2.25
347.75,-1.17,1.05,-1.16,1.06,-1.06,-1.11,-1.21,-2.23,-2.23,-2.22
351.23,-1.18,1.02,-1.18,1.02,-1.02,-1.08,-1.16,-2.20,-2.20,-2.20
354.74,-1.21,0.98,-1.20,0.99,-0.99,-1.06,-1.11,-2.20,-2.18,-2.19
358.28,-1.22,0.95,-1.21,0.95,-0.95,-1.03,-1.07,-2.17,-2.16,-2.17
361.87,-1.23,0.92,-1.22,0.92,-0.92,-1.01,-1.02,-2.15,-2.14,-2.15
365.49,-1.24,0.88,-1.24,0.89,-0.89,-0.98,-0.98,-2.13,-2.13,-2.12
369.14,-1.25,0.86,-1.25,0.86,-0.86,-0.96,-0.93,-2.11,-2.11,-2.11
372.83,-1.26,0.84,-1.25,0.83,-0.83,-0.93,-0.89,-2.09,-2.09,-2.10
376.56,-1.26,0.82,-1.26,0.80,-0.80,-0.91,-0.85,-2.06,-2.07,-2.08
380.33,-1.27,0.78,-1.27,0.78,-0.78,-0.88,-0.81,-2.05,-2.05,-2.05
384.13,-1.27,0.76,-1.27,0.76,-0.76,-0.86,-0.77,-2.02,-2.03,-2.03
387.97,-1.28,0.73,-1.27,0.74,-0.74,-0.84,-0.73,-2.01,-2.01,-2.01
391.85,-1.28,0.71,-1.27,0.71,-0.71,-0.82,-0.69,-1.99,-1.99,-1.99
395.77,-1.28,0.68,-1.27,0.69,-0.69,-0.79,-0.66,-1.97,-1.97,-1.96
399.73,-1.27,0.67,-1.27,0.67,-0.67,-0.77,-0.62,-1.94,-1.94,-1.94
403.72,-1.27,0.66,-1.27,0.65,-0.65,-0.75,-0.59,-1.92,-1.92,-1.93
407.76,-1.27,0.64,-1.27,0.64,-0.64,-0.73,-0.55,-1.90,-1.90,-1.91
411.84,-1.27,0.61,-1.26,0.62,-0.62,-0.71,-0.52,-1.88,-1.88,-1.88
415.96,-1.26,0.60,-1.26,0.60,-0.60,-0.69,-0.49,-1.85,-1.86,-1.86
420.12,-1.25,0.59,-1.25,0.58,-0.58,-0.67,-0.46,-1.83,-1.83,-1.84
424.32,-1.25,0.56,-1.25,0.56,-0.56,-0.65,-0.43,-1.81,-1.81,-1.81
428.56,-1.25,0.54,-1.25,0.54,-0.54,-0.64,-0.40,-1.79,-1.79,-1.79
432.85,-1.25,0.52,-1.24,0.52,-0.52,-0.62,-0.37,-1.77,-1.76,-1.77
437.18,-1.24,0.50,-1.24,0.50,-0.50,-0.60,-0.34,-1.74,-1.74,-1.74
441.55,-1.23,0.48,-1.24,0.48,-0.48,-0.58,-0.31,-1.70,-1.72,-1.71
445.96,-1.23,0.46,-1.24,0.45,-0.45,-0.56,-0.29,-1.68,-1.69,-1.69
450.42,-1.23,0.45,-1.24,0.43,-0.43,-0.55,-0.26,-1.65,-1.66,-1.68
454.93,-1.24,0.40,-1.24,0.40,-0.40,-0.53,-0.24,-1.64,-1.64,-1.64
459.48,-1.24,0.38,-1.23,0.37,-0.37,-0.51,-0.22,-1.61,-1.61,-1.62
464.07,-1.24,0.35,-1.23,0.35,-0.35,-0.50,-0.20,-1.59,-1.58,-1.59
468.71,-1.24,0.31,-1.23,0.32,-0.32,-0.48,-0.18,-1.56,-1.55,-1.55
473.40,-1.24,0.29,-1.23,0.30,-0.30,-0.47,-0.16,-1.54,-1.53,-1.53
478.13,-1.23,0.27,-1.22,0.28,-0.28,-0.45,-0.14,-1.51,-1.50,-1.50
