frequency,raw,error,smoothed,error_smoothed,equalization,parametric_eq,fixed_band_eq,equalized_raw,equalized_smoothed,target
20.00,22.16,12.90,22.16,12.90,-12.89,-12.80,-4.83,9.26,9.26,9.25
20.20,22.18,12.92,22.18,12.92,-12.92,-12.86,-4.96,9.26,9.25,9.25
20.40,22.19,12.93,22.19,12.94,-12.94,-12.90,-5.09,9.24,9.25,9.25
20.61,22.21,12.95,22.21,12.95,-12.96,-12.94,-5.22,9.25,9.25,9.25
20.81,22.22,12.97,22.22,12.97,-12.97,-12.96,-5.35,9.24,9.24,9.24
21.02,22.23,12.98,22.23,12.98,-12.98,-12.97,-5.49,9.25,9.25,9.24
21.23,22.23,12.98,22.23,12.98,-12.98,-12.97,-5.63,9.24,9.25,9.24
21.44,22.23,12.97,22.23,12.98,-12.98,-12.97,-5.78,9.25,9.25,9.25
21.66,22.22,12.97,22.22,12.97,-12.97,-12.95,-5.92,9.24,9.24,9.24
21.87,22.21,12.96,22.21,12.96,-12.96,-12.92,-6.08,9.24,9.24,9.24
22.09,22.19,12.95,22.19,12.95,-12.95,-12.89,-6.24,9.24,9.24,9.23
22.31,22.16,12.92,22.16,12.93,-12.93,-12.84,-6.40,9.23,9.23,9.23
22.54,22.13,12.90,22.13,12.90,-12.90,-12.79,-6.56,9.23,9.23,9.22
22.76,22.09,12.86,22.09,12.86,-12.86,-12.73,-6.73,9.22,9.22,9.22
22.99,22.04,12.82,22.04,12.82,-12.82,-12.66,-6.90,9.22,9.22,9.21
23.22,21.98,12.77,21.98,12.77,-12.77,-12.59,-7.08,9.21,9.21,9.20
23.45,21.92,12.71,21.91,12.71,-12.71,-12.52,-7.26,9.21,9.20,9.20
23.69,21.84,12.64,21.84,12.65,-12.64,-12.44,-7.45,9.20,9.20,9.19
23.92,21.76,12.57,21.76,12.57,-12.57,-12.35,-7.64,9.19,9.19,9.18
24.16,21.68,12.49,21.67,12.49,-12.49,-12.26,-7.83,9.19,9.19,9.18
24.40,21.58,12.39,21.58,12.39,-12.40,-12.17,-8.03,9.18,9.18,9.18
24.65,21.48,12.29,21.48,12.29,-12.30,-12.08,-8.23,9.18,9.18,9.18
24.89,21.37,12.19,21.37,12.19,-12.20,-11.98,-8.44,9.18,9.18,9.18
25.14,21.27,12.09,21.26,12.09,-12.09,-11.89,-8.65,9.18,9.18,9.17
25.39,21.14,11.98,21.15,11.98,-11.97,-11.79,-8.86,9.17,9.17,9.16
25.65,21.03,11.86,21.03,11.86,-11.85,-11.69,-9.07,9.17,9.17,9.16
25.91,20.90,11.74,20.90,11.73,-11.73,-11.60,-9.29,9.17,9.17,9.16
26.16,20.77,11.60,20.77,11.60,-11.60,-11.50,-9.50,9.17,9.17,9.17
26.43,20.64,11.46,20.64,11.47,-11.47,-11.40,-9.72,9.17,9.17,9.17
26.69,20.51,11.33,20.51,11.34,-11.34,-11.31,-9.94,9.17,9.17,9.17
26.96,20.38,11.21,20.38,11.21,-11.21,-11.21,-10.15,9.17,9.17,9.16
27.23,20.25,11.08,20.24,11.08,-11.07,-11.11,-10.37,9.17,9.17,9.16
27.50,20.11,10.94,20.11,10.94,-10.94,-11.02,-10.58,9.16,9.17,9.16
27.77,19.98,10.80,19.98,10.81,-10.82,-10.93,-10.79,9.16,9.16,9.17
28.05,19.86,10.69,19.85,10.69,-10.69,-10.84,-10.99,9.16,9.16,9.16
28.33,19.73,10.57,19.73,10.57,-10.58,-10.75,-11.18,9.15,9.16,9.15
28.62,19.62,10.47,19.61,10.46,-10.46,-10.66,-11.36,9.16,9.15,9.14
28.90,19.50,10.34,19.50,10.35,-10.35,-10.58,-11.54,9.14,9.14,9.15
29.19,19.39,10.24,19.39,10.24,-10.25,-10.49,-11.70,9.14,9.14,9.14
29.48,19.28,10.14,19.28,10.15,-10.15,-10.41,-11.85,9.13,9.13,9.13
29.78,19.19,10.06,19.18,10.06,-10.05,-10.33,-11.98,9.13,9.13,9.12
30.08,19.09,9.96,19.09,9.97,-9.96,-10.25,-12.09,9.13,9.12,9.12
30.38,18.99,9.87,18.99,9.88,-9.87,-10.18,-12.19,9.11,9.12,9.11
30.68,18.90,9.79,18.90,9.79,-9.79,-10.10,-12.27,9.11,9.11,9.10
30.99,18.82,9.71,18.81,9.71,-9.71,-10.03,-12.32,9.11,9.10,9.10
31.30,18.73,9.62,18.73,9.63,-9.63,-9.96,-12.36,9.10,9.10,9.10
31.61,18.65,9.54,18.65,9.55,-9.55,-9.90,-12.37,9.09,9.10,9.10
31.93,18.58,9.48,18.58,9.47,-9.48,-9.83,-12.36,9.10,9.10,9.09
32.24,18.51,9.40,18.50,9.41,-9.40,-9.77,-12.34,9.10,9.10,9.10
32.57,18.43,9.33,18.43,9.33,-9.33,-9.70,-12.29,9.10,9.10,9.09
32.89,18.36,9.26,18.35,9.26,-9.26,-9.64,-12.23,9.10,9.10,9.09
33.22,18.28,9.18,18.27,9.18,-9.18,-9.58,-12.15,9.09,9.09,9.09
33.55,18.19,9.10,18.19,9.11,-9.11,-9.53,-12.05,9.08,9.08,9.08
33.89,18.12,9.04,18.11,9.04,-9.04,-9.47,-11.95,9.08,9.07,9.07
34.23,18.03,8.97,18.03,8.97,-8.96,-9.42,-11.83,9.06,9.07,9.05
34.57,17.95,8.89,17.95,8.90,-8.89,-9.37,-11.70,9.06,9.06,9.05
34.92,17.86,8.82,17.86,8.82,-8.82,-9.32,-11.57,9.04,9.04,9.03
35.27,17.77,8.74,17.77,8.75,-8.75,-9.27,-11.42,9.02,9.02,9.02
35.62,17.68,8.68,17.68,8.68,-8.69,-9.23,-11.28,8.99,8.99,8.99
35.97,17.59,8.61,17.59,8.62,-8.63,-9.18,-11.13,8.96,8.96,8.97
36.33,17.51,8.56,17.51,8.56,-8.57,-9.14,-10.98,8.94,8.94,8.94
36.70,17.44,8.52,17.43,8.52,-8.52,-9.10,-10.83,8.92,8.91,8.91
37.06,17.36,8.47,17.36,8.47,-8.47,-9.06,-10.68,8.89,8.89,8.88
37.43,17.29,8.43,17.29,8.43,-8.43,-9.02,-10.53,8.86,8.86,8.85
37.81,17.22,8.39,17.21,8.39,-8.39,-8.98,-10.38,8.83,8.83,8.82
38.19,17.15,8.36,17.15,8.35,-8.35,-8.94,-10.24,8.80,8.79,8.78
38.57,17.08,8.31,17.08,8.32,-8.32,-8.91,-10.10,8.76,8.76,8.76
38.95,17.02,8.28,17.01,8.29,-8.29,-8.87,-9.96,8.73,8.73,8.73
39.34,16.96,8.26,16.96,8.26,-8.26,-8.84,-9.83,8.70,8.70,8.69
39.74,16.91,8.24,16.91,8.24,-8.24,-8.81,-9.70,8.67,8.67,8.66
40.14,16.87,8.22,16.86,8.22,-8.22,-8.78,-9.58,8.64,8.64,8.64
40.54,16.82,8.19,16.83,8.21,-8.22,-8.75,-9.46,8.60,8.61,8.62
40.94,16.81,8.21,16.80,8.21,-8.21,-8.72,-9.35,8.60,8.59,8.59
41.35,16.78,8.21,16.78,8.21,-8.21,-8.69,-9.24,8.56,8.57,8.56
41.76,16.76,8.22,16.76,8.22,-8.22,-8.66,-9.14,8.54,8.54,8.53
42.18,16.75,8.22,16.74,8.23,-8.22,-8.64,-9.05,8.52,8.52,8.52
42.60,16.73,8.23,16.73,8.24,-8.23,-8.61,-8.96,8.49,8.50,8.49
43.03,16.72,8.25,16.71,8.24,-8.24,-8.59,-8.87,8.47,8.47,8.46
43.46,16.70,8.25,16.70,8.26,-8.25,-8.56,-8.80,8.44,8.45,8.44
43.90,16.69,8.26,16.68,8.27,-8.26,-8.54,-8.73,8.42,8.42,8.42
44.33,16.67,8.28,16.67,8.27,-8.27,-8.52,-8.66,8.39,8.39,8.38
44.78,16.65,8.28,16.65,8.28,-8.29,-8.50,-8.60,8.36,8.37,8.36
45.23,16.64,8.28,16.64,8.30,-8.30,-8.47,-8.55,8.34,8.34,8.35
45.68,16.63,8.31,16.62,8.31,-8.31,-8.45,-8.50,8.31,8.31,8.31
46.13,16.61,8.34,16.61,8.33,-8.33,-8.43,-8.46,8.28,8.28,8.26
46.60,16.59,8.34,16.59,8.35,-8.35,-8.41,-8.43,8.24,8.24,8.24
47.06,16.58,8.37,16.57,8.37,-8.37,-8.39,-8.39,8.21,8.21,8.20
47.53,16.56,8.38,16.56,8.39,-8.39,-8.37,-8.37,8.16,8.16,8.17
48.01,16.54,8.42,16.54,8.42,-8.42,-8.35,-8.35,8.12,8.12,8.11
48.49,16.52,8.43,16.52,8.44,-8.45,-8.33,-8.34,8.07,8.07,8.08
48.97,16.51,8.47,16.50,8.47,-8.47,-8.31,-8.32,8.03,8.03,8.03
49.46,16.49,8.49,16.49,8.50,-8.50,-8.29,-8.32,7.98,7.98,7.99
49.96,16.47,8.54,16.47,8.53,-8.53,-8.27,-8.32,7.94,7.94,7.92
50.46,16.45,8.56,16.44,8.56,-8.56,-8.25,-8.32,7.89,7.89,7.88
50.96,16.42,8.58,16.42,8.59,-8.58,-8.24,-8.33,7.84,7.84,7.83
51.47,16.40,8.60,16.40,8.60,-8.60,-8.22,-8.34,7.80,7.80,7.79
51.99,16.37,8.62,16.36,8.62,-8.61,-8.20,-8.35,7.76,7.75,7.74
52.51,16.33,8.62,16.33,8.62,-8.62,-8.18,-8.36,7.71,7.71,7.70
53.03,16.29,8.61,16.29,8.62,-8.63,-8.16,-8.38,7.66,7.66,7.67
53.56,16.24,8.61,16.24,8.62,-8.63,-8.14,-8.40,7.61,7.61,7.62
54.10,16.20,8.63,16.19,8.62,-8.63,-8.12,-8.41,7.57,7.57,7.56
54.64,16.14,8.61,16.14,8.63,-8.62,-8.10,-8.43,7.51,7.52,7.52
55.18,16.10,8.63,16.09,8.62,-8.62,-8.08,-8.45,7.48,7.48,7.46
55.74,16.04,8.61,16.04,8.61,-8.61,-8.06,-8.47,7.43,7.43,7.42
56.29,15.98,8.59,15.98,8.60,-8.59,-8.04,-8.48,7.38,7.38,7.38
56.86,15.91,8.56,15.91,8.58,-8.57,-8.02,-8.50,7.34,7.34,7.34
57.42,15.85,8.56,15.85,8.55,-8.54,-8.00,-8.51,7.30,7.30,7.28
58.00,15.78,8.53,15.77,8.53,-8.52,-7.98,-8.51,7.26,7.26,7.24
58.58,15.70,8.48,15.70,8.49,-8.48,-7.95,-8.52,7.21,7.21,7.21
59.16,15.62,8.44,15.62,8.44,-8.46,-7.93,-8.51,7.16,7.16,7.17
59.76,15.54,8.40,15.54,8.41,-8.43,-7.91,-8.51,7.11,7.11,7.13
60.35,15.46,8.39,15.46,8.39,-8.40,-7.89,-8.49,7.05,7.06,7.06
60.96,15.38,8.36,15.38,8.37,-8.38,-7.86,-8.47,7.00,7.00,7.01
61.57,15.30,8.36,15.29,8.35,-8.35,-7.84,-8.45,6.94,6.94,6.93
62.18,15.21,8.33,15.21,8.34,-8.33,-7.81,-8.41,6.88,6.88,6.87
62.80,15.13,8.31,15.13,8.32,-8.31,-7.79,-8.37,6.82,6.82,6.81
63.43,15.04,8.29,15.04,8.29,-8.28,-7.76,-8.33,6.76,6.76,6.74
64.07,14.95,8.25,14.95,8.25,-8.24,-7.74,-8.27,6.70,6.70,6.69
64.71,14.85,8.20,14.85,8.21,-8.20,-7.71,-8.21,6.64,6.64,6.64
65.35,14.75,8.15,14.75,8.16,-8.16,-7.68,-8.15,6.59,6.59,6.59
66.01,14.65,8.11,14.65,8.11,-8.11,-7.66,-8.07,6.54,6.54,6.53
66.67,14.55,8.05,14.54,8.06,-8.06,-7.63,-7.99,6.49,6.48,6.49
67.33,14.43,8.00,14.43,8.00,-8.00,-7.60,-7.91,6.43,6.43,6.42
68.01,14.32,7.94,14.32,7.94,-7.94,-7.57,-7.82,6.38,6.38,6.37
68.69,14.21,7.89,14.20,7.88,-7.88,-7.54,-7.73,6.33,6.32,6.31
69.37,14.08,7.81,14.08,7.82,-7.82,-7.51,-7.63,6.26,6.26,6.26
70.07,13.97,7.75,13.97,7.76,-7.76,-7.48,-7.53,6.21,6.20,6.21
70.77,13.85,7.69,13.85,7.69,-7.70,-7.45,-7.43,6.14,6.14,6.15
71.48,13.74,7.64,13.73,7.64,-7.64,-7.42,-7.33,6.09,6.09,6.09
72.19,13.61,7.58,13.61,7.58,-7.58,-7.38,-7.22,6.02,6.03,6.02
72.91,13.50,7.52,13.49,7.53,-7.52,-7.35,-7.12,5.97,5.97,5.97
73.64,13.38,7.47,13.38,7.47,-7.46,-7.32,-7.01,5.91,5.91,5.90
74.38,13.26,7.41,13.26,7.41,-7.40,-7.28,-6.91,5.85,5.86,5.84
75.12,13.14,7.34,13.14,7.34,-7.34,-7.25,-6.80,5.80,5.80,5.79
75.87,13.02,7.26,13.01,7.27,-7.27,-7.21,-6.70,5.74,5.74,5.75
76.63,12.89,7.19,12.89,7.20,-7.20,-7.17,-6.60,5.69,5.69,5.69
77.40,12.77,7.13,12.76,7.13,-7.12,-7.14,-6.50,5.64,5.64,5.63
78.17,12.64,7.06,12.63,7.05,-7.04,-7.10,-6.40,5.59,5.59,5.57
78.95,12.50,6.95,12.50,6.97,-6.96,-7.06,-6.31,5.54,5.54,5.54
79.74,12.37,6.88,12.36,6.88,-6.88,-7.02,-6.22,5.49,5.49,5.48
80.54,12.23,6.80,12.23,6.79,-6.79,-6.98,-6.13,5.43,5.43,5.42
81.35,12.09,6.70,12.09,6.71,-6.71,-6.94,-6.04,5.38,5.37,5.38
82.16,11.95,6.61,11.95,6.62,-6.63,-6.90,-5.96,5.32,5.32,5.33
82.98,11.82,6.54,11.82,6.54,-6.55,-6.86,-5.88,5.27,5.27,5.27
83.81,11.70,6.47,11.69,6.47,-6.47,-6.82,-5.81,5.23,5.22,5.22
84.65,11.57,6.40,11.57,6.40,-6.39,-6.78,-5.74,5.17,5.17,5.16
85.50,11.44,6.32,11.44,6.32,-6.32,-6.74,-5.67,5.12,5.12,5.11
86.35,11.32,6.25,11.31,6.25,-6.25,-6.70,-5.61,5.06,5.06,5.06
87.22,11.19,6.17,11.19,6.18,-6.18,-6.65,-5.55,5.00,5.01,5.01
88.09,11.08,6.12,11.07,6.11,-6.12,-6.61,-5.50,4.96,4.96,4.95
88.97,10.95,6.04,10.95,6.05,-6.05,-6.56,-5.45,4.90,4.90,4.90
89.86,10.84,5.99,10.83,5.99,-5.98,-6.52,-5.40,4.85,4.85,4.84
90.76,10.71,5.92,10.71,5.92,-5.92,-6.48,-5.36,4.79,4.79,4.78
91.66,10.59,5.85,10.59,5.86,-5.86,-6.43,-5.32,4.73,4.73,4.73
92.58,10.47,5.79,10.47,5.79,-5.80,-6.38,-5.29,4.67,4.67,4.67
93.51,10.36,5.74,10.35,5.74,-5.74,-6.34,-5.26,4.62,4.61,4.61
94.44,10.24,5.68,10.24,5.69,-5.69,-6.29,-5.23,4.55,4.55,4.55
95.39,10.12,5.63,10.12,5.63,-5.64,-6.24,-5.20,4.48,4.48,4.48
96.34,10.00,5.58,10.00,5.58,-5.59,-6.20,-5.18,4.41,4.41,4.41
97.30,9.89,5.53,9.89,5.54,-5.54,-6.15,-5.17,4.35,4.34,4.35
98.28,9.78,5.51,9.77,5.50,-5.49,-6.10,-5.15,4.28,4.28,4.26
99.26,9.65,5.45,9.65,5.46,-5.44,-6.05,-5.14,4.20,4.21,4.19
100.25,9.54,5.40,9.53,5.40,-5.39,-6.00,-5.13,4.14,4.14,4.13
101.25,9.42,5.34,9.41,5.34,-5.34,-5.95,-5.13,4.07,4.07,4.07
102.27,9.30,5.28,9.30,5.29,-5.29,-5.91,-5.12,4.00,4.01,4.01
103.29,9.19,5.24,9.19,5.24,-5.24,-5.86,-5.12,3.95,3.95,3.94
104.32,9.08,5.18,9.08,5.18,-5.19,-5.81,-5.12,3.89,3.89,3.89
105.37,8.97,5.13,8.97,5.13,-5.14,-5.76,-5.12,3.83,3.83,3.83
106.42,8.86,5.08,8.86,5.09,-5.08,-5.71,-5.12,3.77,3.77,3.77
107.48,8.75,5.04,8.75,5.04,-5.04,-5.66,-5.13,3.71,3.72,3.70
108.56,8.65,4.99,8.64,4.99,-4.99,-5.60,-5.13,3.66,3.66,3.65
109.64,8.54,4.93,8.54,4.94,-4.94,-5.55,-5.13,3.60,3.60,3.60
110.74,8.43,4.89,8.43,4.89,-4.89,-5.50,-5.14,3.53,3.54,3.53
111.85,8.33,4.85,8.33,4.85,-4.85,-5.45,-5.14,3.48,3.48,3.47
112.97,8.23,4.81,8.22,4.81,-4.81,-5.40,-5.14,3.42,3.41,3.41
114.10,8.12,4.76,8.12,4.77,-4.77,-5.35,-5.14,3.35,3.35,3.35
115.24,8.01,4.72,8.01,4.73,-4.73,-5.30,-5.14,3.27,3.28,3.28
116.39,7.91,4.70,7.91,4.70,-4.70,-5.25,-5.13,3.21,3.21,3.20
117.55,7.81,4.66,7.81,4.67,-4.66,-5.19,-5.13,3.14,3.14,3.14
118.73,7.71,4.64,7.70,4.64,-4.63,-5.14,-5.12,3.08,3.07,3.06
119.92,7.60,4.60,7.60,4.60,-4.60,-5.09,-5.10,3.00,3.00,2.99
121.12,7.50,4.56,7.50,4.57,-4.57,-5.04,-5.09,2.93,2.93,2.93
122.33,7.41,4.55,7.40,4.54,-4.54,-4.98,-5.07,2.86,2.86,2.85
123.55,7.31,4.51,7.31,4.51,-4.52,-4.93,-5.04,2.79,2.79,2.79
124.79,7.22,4.49,7.21,4.49,-4.49,-4.88,-5.01,2.72,2.72,2.72
126.03,7.11,4.45,7.11,4.47,-4.47,-4.83,-4.98,2.64,2.64,2.65
127.29,7.02,4.45,7.02,4.45,-4.45,-4.78,-4.94,2.57,2.57,2.56
128.57,6.93,4.43,6.92,4.43,-4.43,-4.72,-4.90,2.50,2.49,2.49
129.85,6.82,4.40,6.82,4.41,-4.40,-4.67,-4.86,2.41,2.42,2.41
131.15,6.73,4.38,6.73,4.38,-4.38,-4.62,-4.81,2.35,2.35,2.34
132.46,6.63,4.35,6.63,4.35,-4.35,-4.57,-4.76,2.28,2.28,2.27
133.79,6.54,4.32,6.53,4.32,-4.32,-4.51,-4.70,2.22,2.21,2.21
135.12,6.44,4.29,6.44,4.29,-4.29,-4.46,-4.65,2.15,2.15,2.14
136.48,6.35,4.24,6.35,4.25,-4.25,-4.41,-4.58,2.09,2.09,2.10
137.84,6.26,4.21,6.25,4.22,-4.22,-4.36,-4.52,2.04,2.04,2.04
139.22,6.17,4.19,6.16,4.18,-4.18,-4.31,-4.46,1.99,1.98,1.97
140.61,6.07,4.13,6.07,4.15,-4.14,-4.25,-4.39,1.93,1.93,1.93
142.02,5.99,4.10,5.98,4.10,-4.10,-4.20,-4.32,1.88,1.88,1.88
143.44,5.90,4.07,5.89,4.06,-4.06,-4.15,-4.25,1.83,1.83,1.82
144.87,5.80,4.01,5.80,4.02,-4.02,-4.10,-4.18,1.77,1.78,1.78
146.32,5.72,3.98,5.71,3.98,-3.98,-4.05,-4.11,1.74,1.73,1.73
147.78,5.63,3.94,5.62,3.94,-3.94,-3.99,-4.03,1.69,1.68,1.68
149.26,5.54,3.89,5.54,3.90,-3.90,-3.94,-3.96,1.64,1.64,1.64
150.75,5.45,3.86,5.45,3.86,-3.86,-3.89,-3.89,1.59,1.59,1.58
152.26,5.37,3.81,5.36,3.81,-3.81,-3.84,-3.82,1.55,1.55,1.55
153.78,5.27,3.77,5.27,3.77,-3.77,-3.79,-3.75,1.49,1.50,1.49
155.32,5.19,3.73,5.18,3.73,-3.73,-3.74,-3.68,1.45,1.45,1.45
156.88,5.10,3.69,5.10,3.69,-3.70,-3.69,-3.61,1.40,1.40,1.40
158.44,5.01,3.65,5.01,3.65,-3.66,-3.64,-3.55,1.35,1.35,1.35
160.03,4.93,3.62,4.92,3.62,-3.62,-3.59,-3.48,1.30,1.30,1.30
161.63,4.84,3.58,4.84,3.59,-3.59,-3.54,-3.42,1.25,1.25,1.25
163.24,4.75,3.56,4.75,3.56,-3.56,-3.49,-3.36,1.19,1.20,1.18
164.88,4.67,3.52,4.67,3.53,-3.52,-3.44,-3.30,1.14,1.14,1.14
166.53,4.59,3.50,4.58,3.49,-3.49,-3.39,-3.24,1.09,1.09,1.08
168.19,4.50,3.45,4.50,3.46,-3.46,-3.34,-3.19,1.03,1.04,1.04
169.87,4.42,3.42,4.42,3.43,-3.43,-3.29,-3.13,0.98,0.98,0.99
171.57,4.34,3.41,4.34,3.40,-3.40,-3.24,-3.08,0.94,0.93,0.92
173.29,4.26,3.38,4.25,3.38,-3.37,-3.19,-3.03,0.89,0.88,0.87
175.02,4.17,3.33,4.17,3.34,-3.34,-3.14,-2.99,0.83,0.83,0.83
176.77,4.09,3.30,4.08,3.30,-3.30,-3.09,-2.94,0.78,0.78,0.78
178.54,4.00,3.26,4.00,3.27,-3.27,-3.04,-2.90,0.73,0.73,0.73
180.32,3.92,3.24,3.91,3.23,-3.23,-2.99,-2.86,0.68,0.68,0.67
182.13,3.83,3.19,3.83,3.20,-3.20,-2.95,-2.82,0.63,0.63,0.63
183.95,3.75,3.15,3.75,3.16,-3.16,-2.90,-2.79,0.59,0.59,0.59
185.79,3.67,3.13,3.67,3.12,-3.13,-2.85,-2.75,0.54,0.54,0.53
187.65,3.59,3.09,3.58,3.09,-3.09,-2.80,-2.72,0.49,0.49,0.49
189.52,3.50,3.05,3.50,3.06,-3.06,-2.75,-2.69,0.44,0.44,0.44
191.42,3.42,3.02,3.42,3.03,-3.03,-2.71,-2.66,0.39,0.39,0.39
193.33,3.35,3.00,3.34,3.00,-2.99,-2.66,-2.64,0.35,0.35,0.34
195.27,3.26,2.96,3.26,2.96,-2.96,-2.61,-2.61,0.30,0.30,0.29
197.22,3.18,2.93,3.17,2.93,-2.92,-2.57,-2.59,0.26,0.25,0.24
199.19,3.09,2.87,3.09,2.88,-2.88,-2.52,-2.57,0.21,0.21,0.21
201.18,3.01,2.84,3.01,2.84,-2.84,-2.47,-2.55,0.17,0.17,0.16
203.19,2.94,2.80,2.93,2.80,-2.80,-2.43,-2.53,0.14,0.13,0.13
205.23,2.85,2.75,2.85,2.75,-2.76,-2.38,-2.51,0.09,0.09,0.09
207.28,2.77,2.70,2.77,2.71,-2.71,-2.34,-2.50,0.05,0.05,0.06
209.35,2.69,2.66,2.69,2.66,-2.67,-2.29,-2.48,0.02,0.02,0.02
211.44,2.61,2.62,2.61,2.63,-2.63,-2.25,-2.46,-0.02,-0.02,-0.02
213.56,2.54,2.59,2.53,2.59,-2.58,-2.20,-2.45,-0.05,-0.05,-0.06
215.69,2.46,2.54,2.46,2.54,-2.54,-2.16,-2.43,-0.08,-0.08,-0.09
217.85,2.38,2.49,2.38,2.50,-2.49,-2.11,-2.42,-0.11,-0.11,-0.12
220.03,2.30,2.45,2.30,2.45,-2.44,-2.07,-2.40,-0.15,-0.15,-0.16
222.23,2.22,2.39,2.22,2.40,-2.40,-2.02,-2.39,-0.18,-0.18,-0.18
224.45,2.14,2.34,2.14,2.34,-2.35,-1.98,-2.37,-0.21,-0.21,-0.21
226.70,2.06,2.29,2.06,2.29,-2.30,-1.93,-2.36,-0.24,-0.24,-0.24
228.96,1.99,2.24,1.99,2.24,-2.25,-1.89,-2.34,-0.26,-0.26,-0.26
231.25,1.92,2.19,1.91,2.19,-2.20,-1.85,-2.32,-0.28,-0.28,-0.28
233.57,1.84,2.14,1.84,2.15,-2.15,-1.80,-2.30,-0.31,-0.31,-0.31
235.90,1.77,2.10,1.77,2.10,-2.10,-1.76,-2.28,-0.33,-0.33,-0.34
238.26,1.70,2.06,1.70,2.05,-2.05,-1.72,-2.25,-0.35,-0.35,-0.37
240.64,1.63,1.99,1.63,2.00,-2.00,-1.67,-2.23,-0.38,-0.37,-0.37
243.05,1.57,1.95,1.56,1.95,-1.95,-1.63,-2.20,-0.39,-0.39,-0.39
245.48,1.50,1.91,1.50,1.91,-1.91,-1.59,-2.17,-0.41,-0.41,-0.42
247.93,1.43,1.86,1.43,1.86,-1.86,-1.54,-2.13,-0.43,-0.42,-0.44
250.41,1.38,1.81,1.37,1.81,-1.81,-1.50,-2.10,-0.43,-0.44,-0.44
252.92,1.31,1.75,1.31,1.76,-1.76,-1.46,-2.06,-0.46,-0.45,-0.45
255.45,1.26,1.72,1.25,1.72,-1.72,-1.42,-2.02,-0.46,-0.47,-0.47
258.00,1.20,1.67,1.20,1.67,-1.68,-1.37,-1.98,-0.48,-0.48,-0.48
260.58,1.15,1.63,1.15,1.64,-1.64,-1.33,-1.94,-0.49,-0.49,-0.49
263.19,1.10,1.60,1.10,1.60,-1.60,-1.29,-1.89,-0.51,-0.51,-0.51
265.82,1.06,1.57,1.05,1.57,-1.57,-1.25,-1.84,-0.51,-0.52,-0.52
268.48,1.01,1.53,1.01,1.54,-1.54,-1.20,-1.79,-0.53,-0.53,-0.53
271.16,0.97,1.51,0.96,1.51,-1.51,-1.16,-1.73,-0.54,-0.54,-0.55
273.87,0.92,1.47,0.92,1.48,-1.48,-1.12,-1.68,-0.56,-0.56,-0.56
276.61,0.88,1.45,0.87,1.45,-1.45,-1.08,-1.62,-0.57,-0.57,-0.58
279.38,0.83,1.42,0.83,1.42,-1.42,-1.04,-1.56,-0.59,-0.59,-0.60
282.17,0.79,1.39,0.78,1.38,-1.38,-0.99,-1.50,-0.60,-0.60,-0.61
284.99,0.74,1.33,0.74,1.35,-1.35,-0.95,-1.44,-0.61,-0.61,-0.60
287.84,0.70,1.30,0.70,1.31,-1.31,-0.91,-1.38,-0.62,-0.61,-0.61
290.72,0.66,1.29,0.65,1.27,-1.27,-0.87,-1.31,-0.62,-0.62,-0.64
293.63,0.61,1.23,0.60,1.24,-1.23,-0.83,-1.25,-0.62,-0.63,-0.63
296.57,0.55,1.18,0.55,1.19,-1.18,-0.78,-1.18,-0.64,-0.63,-0.64
299.53,0.50,1.14,0.50,1.14,-1.14,-0.74,-1.11,-0.64,-0.64,-0.65
302.53,0.44,1.08,0.44,1.09,-1.09,-0.70,-1.04,-0.65,-0.65,-0.65
305.55,0.39,1.04,0.38,1.03,-1.04,-0.66,-0.98,-0.65,-0.66,-0.66
308.61,0.32,0.97,0.32,0.98,-0.98,-0.62,-0.91,-0.67,-0.66,-0.66
311.69,0.26,0.92,0.26,0.93,-0.93,-0.57,-0.84,-0.67,-0.66,-0.67
314.81,0.21,0.87,0.20,0.87,-0.87,-0.53,-0.77,-0.66,-0.67,-0.67
317.96,0.14,0.81,0.14,0.81,-0.81,-0.49,-0.70,-0.67,-0.67,-0.68
321.14,0.08,0.74,0.08,0.75,-0.75,-0.45,-0.63,-0.67,-0.67,-0.67
324.35,0.01,0.69,0.01,0.68,-0.69,-0.40,-0.56,-0.68,-0.68,-0.69
327.59,-0.05,0.61,-0.06,0.62,-0.62,-0.36,-0.49,-0.68,-0.68,-0.67
330.87,-0.12,0.55,-0.12,0.56,-0.56,-0.32,-0.42,-0.68,-0.68,-0.68
334.18,-0.18,0.50,-0.18,0.49,-0.49,-0.27,-0.34,-0.68,-0.68,-0.69
337.52,-0.25,0.42,-0.25,0.43,-0.43,-0.23,-0.27,-0.68,-0.68,-0.68
340.90,-0.31,0.37,-0.32,0.36,-0.36,-0.19,-0.20,-0.68,-0.68,-0.69
344.30,-0.38,0.29,-0.38,0.29,-0.30,-0.14,-0.13,-0.68,-0.68,-0.68
347.75,-0.45,0.21,-0.45,0.23,-0.23,-0.10,-0.06,-0.68,-0.68,-0.67
351.23,-0.50,0.18,-0.51,0.16,-0.17,-0.06,0.01,-0.67,-0.68,-0.69
354.74,-0.57,0.09,-0.57,0.10,-0.10,-0.01,0.08,-0.67,-0.67,-0.67
358.28,-0.64,0.03,-0.64,0.04,-0.03,0.03,0.15,-0.68,-0.67,-0.68
361.87,-0.70,-0.03,-0.71,-0.03,0.03,0.08,0.23,-0.67,-0.67,-0.68
365.49,-0.77,-0.10,-0.77,-0.10,0.10,0.12,0.30,-0.67,-0.67,-0.68
369.14,-0.84,-0.18,-0.84,-0.17,0.17,0.17,0.37,-0.68,-0.67,-0.67
372.83,-0.90,-0.24,-0.91,-0.24,0.23,0.21,0.44,-0.67,-0.67,-0.67
376.56,-0.97,-0.30,-0.97,-0.30,0.30,0.26,0.51,-0.67,-0.67,-0.68
380.33,-1.04,-0.37,-1.04,-0.36,0.37,0.30,0.59,-0.68,-0.67,-0.68
384.13,-1.10,-0.43,-1.11,-0.43,0.43,0.35,0.66,-0.67,-0.67,-0.68
387.97,-1.17,-0.51,-1.17,-0.50,0.50,0.40,0.73,-0.67,-0.67,-0.67
391.85,-1.24,-0.57,-1.24,-0.57,0.57,0.44,0.80,-0.68,-0.67,-0.68
395.77,-1.30,-0.63,-1.30,-0.63,0.63,0.49,0.87,-0.67,-0.67,-0.68
399.73,-1.36,-0.69,-1.36,-0.69,0.69,0.54,0.94,-0.67,-0.67,-0.68
403.72,-1.42,-0.76,-1.43,-0.76,0.76,0.58,1.02,-0.67,-0.67,-0.67
407.76,-1.49,-0.83,-1.49,-0.82,0.82,0.63,1.09,-0.67,-0.67,-0.67
411.84,-1.55,-0.89,-1.55,-0.88,0.88,0.68,1.16,-0.67,-0.67,-0.67
415.96,-1.60,-0.94,-1.61,-0.94,0.94,0.73,1.23,-0.66,-0.67,-0.67
420.12,-1.67,-1.00,-1.67,-1.00,1.00,0.77,1.29,-0.67,-0.67,-0.68
424.32,-1.73,-1.06,-1.73,-1.06,1.06,0.82,1.36,-0.67,-0.67,-0.68
428.56,-1.79,-1.13,-1.79,-1.12,1.12,0.87,1.43,-0.67,-0.67,-0.67
432.85,-1.84,-1.18,-1.85,-1.18,1.18,0.92,1.49,-0.67,-0.67,-0.67
437.18,-1.91,-1.24,-1.91,-1.23,1.23,0.97,1.56,-0.68,-0.68,-0.68
441.55,-1.96,-1.29,-1.97,-1.29,1.29,1.02,1.62,-0.68,-0.68,-0.68
445.96,-2.02,-1.34,-2.02,-1.34,1.34,1.07,1.68,-0.68,-0.68,-0.69
450.42,-2.08,-1.40,-2.08,-1.39,1.40,1.12,1.73,-0.68,-0.68,-0.69
454.93,-2.13,-1.45,-2.14,-1.45,1.45,1.17,1.79,-0.68,-0.68,-0.69
459.48,-2.19,-1.51,-2.19,-1.51,1.51,1.22,1.84,-0.68,-0.68,-0.69
464.07,-2.24,-1.57,-2.24,-1.56,1.56,1.27,1.89,-0.68,-0.68,-0.68
468.71,-2.29,-1.62,-2.30,-1.62,1.62,1.32,1.94,-0.68,-0.68,-0.68
473.40,-2.34,-1.67,-2.35,-1.67,1.67,1.37,1.98,-0.67,-0.68,-0.68
478.13,-2.40,-1.73,-2.40,-1.72,1.72,1.42,2.02,-0.69,-0.68,-0.68
