frequency,raw,error,smoothed,error_smoothed,equalization,parametric_eq,fixed_band_eq,equalized_raw,equalized_smoothed,target
20.00,2.82,-1.78,2.83,-1.80,1.80,2.04,1.59,4.62,4.63,4.60
20.20,2.78,-1.82,2.78,-1.83,1.83,2.07,1.63,4.62,4.62,4.60
20.40,2.73,-1.87,2.74,-1.87,1.87,2.10,1.68,4.60,4.61,4.60
20.61,2.69,-1.91,2.69,-1.91,1.91,2.13,1.73,4.60,4.60,4.60
20.81,2.65,-1.95,2.65,-1.94,1.94,2.16,1.77,4.60,4.59,4.60
21.02,2.59,-2.01,2.60,-1.98,1.98,2.19,1.83,4.57,4.58,4.60
21.23,2.55,-2.03,2.55,-2.02,2.02,2.23,1.88,4.57,4.57,4.58
21.44,2.50,-2.07,2.49,-2.06,2.06,2.26,1.93,4.56,4.55,4.57
21.66,2.44,-2.11,2.44,-2.10,2.10,2.29,1.99,4.54,4.54,4.55
21.87,2.38,-2.15,2.39,-2.14,2.14,2.32,2.04,4.52,4.52,4.53
22.09,2.33,-2.18,2.33,-2.18,2.18,2.36,2.10,4.51,4.51,4.52
22.31,2.27,-2.21,2.27,-2.22,2.22,2.39,2.16,4.49,4.49,4.49
22.54,2.20,-2.26,2.21,-2.26,2.26,2.43,2.22,4.46,4.47,4.47
22.76,2.15,-2.29,2.15,-2.30,2.30,2.46,2.28,4.45,4.44,4.45
22.99,2.08,-2.33,2.08,-2.34,2.34,2.49,2.35,4.42,4.42,4.42
23.22,2.01,-2.37,2.02,-2.38,2.38,2.53,2.41,4.40,4.40,4.39
23.45,1.95,-2.41,1.95,-2.43,2.43,2.56,2.48,4.38,4.38,4.36
23.69,1.88,-2.47,1.88,-2.47,2.47,2.60,2.55,4.36,4.36,4.35
23.92,1.81,-2.52,1.81,-2.52,2.52,2.63,2.62,4.33,4.34,4.33
24.16,1.75,-2.57,1.75,-2.57,2.57,2.67,2.69,4.32,4.32,4.32
24.40,1.67,-2.63,1.68,-2.62,2.62,2.70,2.76,4.29,4.30,4.30
24.65,1.60,-2.68,1.61,-2.67,2.67,2.74,2.83,4.27,4.28,4.28
24.89,1.53,-2.73,1.54,-2.72,2.72,2.77,2.90,4.25,4.26,4.26
25.14,1.46,-2.78,1.47,-2.77,2.77,2.81,2.98,4.24,4.24,4.25
25.39,1.39,-2.83,1.40,-2.83,2.83,2.84,3.05,4.22,4.23,4.23
25.65,1.33,-2.88,1.33,-2.88,2.88,2.88,3.12,4.22,4.21,4.22
25.91,1.27,-2.92,1.26,-2.94,2.94,2.91,3.20,4.20,4.19,4.19
26.16,1.19,-2.98,1.19,-2.99,2.99,2.95,3.27,4.18,4.18,4.17
26.43,1.12,-3.04,1.12,-3.04,3.04,2.98,3.35,4.16,4.16,4.16
26.69,1.05,-3.09,1.06,-3.09,3.09,3.02,3.42,4.14,4.15,4.14
26.96,0.98,-3.15,0.99,-3.14,3.14,3.05,3.49,4.12,4.13,4.13
27.23,0.92,-3.19,0.93,-3.19,3.19,3.09,3.56,4.11,4.11,4.12
27.50,0.85,-3.25,0.86,-3.24,3.24,3.12,3.63,4.09,4.10,4.11
27.77,0.79,-3.29,0.80,-3.29,3.29,3.16,3.69,4.08,4.09,4.09
28.05,0.73,-3.34,0.73,-3.34,3.34,3.19,3.76,4.07,4.07,4.07
28.33,0.67,-3.38,0.67,-3.39,3.39,3.23,3.82,4.06,4.06,4.05
28.62,0.61,-3.43,0.61,-3.44,3.44,3.26,3.87,4.05,4.04,4.04
28.90,0.55,-3.48,0.55,-3.48,3.48,3.30,3.93,4.04,4.03,4.03
29.19,0.48,-3.52,0.49,-3.53,3.53,3.33,3.98,4.01,4.02,4.01
29.48,0.43,-3.57,0.43,-3.57,3.57,3.36,4.02,4.01,4.00,4.01
29.78,0.37,-3.62,0.37,-3.62,3.62,3.40,4.06,3.99,3.99,3.99
30.08,0.32,-3.66,0.32,-3.66,3.66,3.43,4.10,3.98,3.97,3.98
30.38,0.25,-3.70,0.26,-3.69,3.69,3.46,4.13,3.95,3.96,3.96
30.68,0.20,-3.74,0.21,-3.73,3.73,3.49,4.16,3.93,3.94,3.95
30.99,0.16,-3.76,0.16,-3.77,3.77,3.52,4.18,3.93,3.93,3.92
31.30,0.10,-3.81,0.11,-3.80,3.80,3.56,4.19,3.90,3.91,3.91
31.61,0.06,-3.84,0.06,-3.83,3.83,3.59,4.20,3.89,3.89,3.90
31.93,0.01,-3.86,0.02,-3.85,3.85,3.62,4.21,3.87,3.87,3.88
32.24,-0.03,-3.87,-0.02,-3.88,3.88,3.65,4.21,3.85,3.85,3.84
32.57,-0.07,-3.90,-0.07,-3.90,3.90,3.68,4.21,3.83,3.83,3.83
32.89,-0.11,-3.92,-0.11,-3.92,3.92,3.70,4.20,3.81,3.81,3.82
33.22,-0.14,-3.92,-0.15,-3.94,3.94,3.73,4.18,3.80,3.79,3.79
33.55,-0.19,-3.96,-0.18,-3.95,3.95,3.76,4.17,3.77,3.77,3.77
33.89,-0.22,-3.97,-0.22,-3.97,3.97,3.79,4.15,3.75,3.75,3.75
34.23,-0.26,-3.98,-0.25,-3.98,3.98,3.81,4.12,3.73,3.73,3.73
34.57,-0.29,-3.99,-0.29,-3.99,3.99,3.84,4.10,3.71,3.71,3.70
34.92,-0.32,-3.99,-0.32,-4.00,4.00,3.86,4.07,3.69,3.68,3.68
35.27,-0.36,-4.02,-0.35,-4.01,4.01,3.88,4.03,3.66,3.66,3.67
35.62,-0.38,-4.02,-0.38,-4.02,4.02,3.91,4.00,3.64,3.64,3.64
35.97,-0.42,-4.03,-0.41,-4.03,4.03,3.93,3.97,3.61,3.62,3.62
36.33,-0.44,-4.04,-0.44,-4.03,4.03,3.95,3.93,3.60,3.60,3.60
36.70,-0.47,-4.04,-0.46,-4.04,4.04,3.97,3.90,3.57,3.58,3.58
37.06,-0.49,-4.04,-0.49,-4.04,4.04,3.99,3.86,3.56,3.56,3.55
37.43,-0.51,-4.05,-0.51,-4.05,4.05,4.00,3.82,3.54,3.53,3.54
37.81,-0.54,-4.05,-0.54,-4.05,4.05,4.02,3.79,3.51,3.51,3.51
38.19,-0.56,-4.04,-0.56,-4.05,4.05,4.04,3.75,3.50,3.49,3.49
38.57,-0.59,-4.06,-0.59,-4.05,4.05,4.05,3.72,3.47,3.47,3.47
38.95,-0.61,-4.05,-0.61,-4.06,4.06,4.07,3.69,3.45,3.45,3.45
39.34,-0.63,-4.05,-0.63,-4.06,4.06,4.08,3.66,3.43,3.43,3.42
39.74,-0.66,-4.05,-0.65,-4.06,4.06,4.09,3.63,3.41,3.41,3.40
40.14,-0.68,-4.07,-0.68,-4.06,4.06,4.10,3.60,3.39,3.39,3.39
40.54,-0.71,-4.07,-0.70,-4.07,4.07,4.11,3.57,3.36,3.37,3.36
40.94,-0.72,-4.06,-0.72,-4.07,4.07,4.12,3.55,3.35,3.35,3.35
41.35,-0.75,-4.07,-0.74,-4.07,4.07,4.12,3.53,3.33,3.33,3.32
41.76,-0.76,-4.07,-0.76,-4.07,4.07,4.13,3.51,3.32,3.31,3.31
42.18,-0.79,-4.08,-0.79,-4.07,4.07,4.13,3.49,3.29,3.29,3.29
42.60,-0.81,-4.07,-0.81,-4.07,4.07,4.14,3.48,3.26,3.27,3.27
43.03,-0.83,-4.09,-0.82,-4.07,4.07,4.14,3.47,3.24,3.25,3.26
43.46,-0.85,-4.08,-0.84,-4.07,4.07,4.14,3.46,3.22,3.23,3.23
43.90,-0.86,-4.06,-0.86,-4.07,4.07,4.14,3.46,3.21,3.21,3.20
44.33,-0.88,-4.06,-0.88,-4.06,4.06,4.14,3.45,3.19,3.19,3.18
44.78,-0.90,-4.06,-0.89,-4.06,4.06,4.14,3.45,3.16,3.17,3.16
45.23,-0.91,-4.04,-0.91,-4.05,4.05,4.13,3.45,3.15,3.14,3.13
45.68,-0.93,-4.04,-0.92,-4.04,4.04,4.13,3.46,3.12,3.12,3.11
46.13,-0.93,-4.02,-0.93,-4.04,4.04,4.12,3.47,3.11,3.10,3.09
46.60,-0.95,-4.03,-0.95,-4.03,4.03,4.11,3.48,3.08,3.08,3.08
47.06,-0.96,-4.02,-0.96,-4.01,4.01,4.10,3.49,3.06,3.06,3.06
47.53,-0.97,-4.01,-0.97,-4.00,4.00,4.09,3.50,3.03,3.03,3.04
48.01,-0.98,-4.00,-0.98,-3.99,3.99,4.08,3.52,3.01,3.01,3.03
48.49,-0.99,-3.98,-0.99,-3.97,3.97,4.07,3.54,2.98,2.99,3.00
48.97,-1.00,-3.96,-0.99,-3.95,3.95,4.05,3.56,2.96,2.96,2.96
49.46,-1.01,-3.93,-1.00,-3.93,3.93,4.04,3.59,2.93,2.94,2.93
49.96,-1.01,-3.90,-1.00,-3.91,3.91,4.02,3.61,2.91,2.91,2.89
50.46,-1.01,-3.90,-1.00,-3.89,3.89,4.00,3.64,2.89,2.89,2.89
50.96,-1.01,-3.87,-1.01,-3.87,3.87,3.98,3.67,2.86,2.86,2.87
51.47,-1.01,-3.84,-1.01,-3.84,3.84,3.96,3.69,2.84,2.84,2.83
51.99,-1.01,-3.81,-1.01,-3.82,3.82,3.94,3.72,2.81,2.81,2.80
52.51,-1.01,-3.79,-1.01,-3.79,3.79,3.92,3.75,2.78,2.78,2.79
53.03,-1.01,-3.77,-1.01,-3.76,3.76,3.90,3.78,2.76,2.76,2.76
53.56,-1.01,-3.74,-1.01,-3.73,3.73,3.88,3.81,2.73,2.73,2.73
54.10,-1.00,-3.70,-1.00,-3.71,3.71,3.85,3.84,2.71,2.70,2.70
54.64,-1.01,-3.68,-1.00,-3.68,3.68,3.82,3.87,2.67,2.68,2.68
55.18,-1.01,-3.65,-1.00,-3.65,3.65,3.80,3.90,2.64,2.65,2.65
55.74,-1.00,-3.61,-1.00,-3.62,3.62,3.77,3.92,2.62,2.62,2.62
56.29,-1.00,-3.59,-1.00,-3.59,3.59,3.74,3.95,2.59,2.59,2.60
56.86,-1.00,-3.56,-1.00,-3.56,3.56,3.71,3.97,2.56,2.57,2.56
57.42,-0.99,-3.52,-0.99,-3.53,3.53,3.68,3.98,2.55,2.54,2.53
58.00,-0.99,-3.49,-0.99,-3.50,3.50,3.65,4.00,2.52,2.51,2.51
58.58,-1.00,-3.47,-0.99,-3.47,3.47,3.62,4.01,2.47,2.48,2.47
59.16,-0.99,-3.44,-0.99,-3.44,3.44,3.59,4.02,2.45,2.45,2.45
59.76,-1.00,-3.42,-0.99,-3.41,3.41,3.55,4.02,2.41,2.42,2.43
60.35,-1.00,-3.39,-0.99,-3.38,3.38,3.52,4.02,2.38,2.39,2.39
60.96,-1.01,-3.38,-1.00,-3.35,3.35,3.48,4.01,2.34,2.36,2.37
61.57,-1.00,-3.32,-1.00,-3.32,3.32,3.45,4.00,2.33,2.32,2.33
62.18,-1.00,-3.28,-1.00,-3.29,3.29,3.41,3.98,2.30,2.29,2.29
62.80,-1.01,-3.26,-1.01,-3.27,3.27,3.37,3.96,2.26,2.26,2.26
63.43,-1.01,-3.22,-1.01,-3.24,3.24,3.34,3.94,2.23,2.23,2.22
64.07,-1.02,-3.20,-1.02,-3.21,3.21,3.30,3.90,2.20,2.20,2.19
64.71,-1.02,-3.18,-1.02,-3.19,3.19,3.26,3.87,2.17,2.17,2.16
65.35,-1.03,-3.16,-1.03,-3.16,3.16,3.22,3.82,2.14,2.14,2.13
66.01,-1.04,-3.14,-1.04,-3.14,3.14,3.18,3.78,2.11,2.11,2.11
66.67,-1.05,-3.12,-1.04,-3.12,3.12,3.14,3.73,2.07,2.07,2.07
67.33,-1.05,-3.09,-1.05,-3.10,3.10,3.10,3.67,2.05,2.04,2.05
68.01,-1.07,-3.08,-1.06,-3.07,3.07,3.06,3.61,2.01,2.01,2.01
68.69,-1.08,-3.06,-1.07,-3.05,3.05,3.02,3.55,1.98,1.98,1.98
69.37,-1.09,-3.03,-1.08,-3.03,3.03,2.98,3.48,1.95,1.95,1.95
70.07,-1.10,-3.01,-1.10,-3.01,3.01,2.94,3.41,1.92,1.92,1.92
70.77,-1.11,-2.99,-1.11,-2.99,2.99,2.90,3.34,1.88,1.88,1.89
71.48,-1.12,-2.96,-1.12,-2.96,2.96,2.85,3.27,1.85,1.84,1.85
72.19,-1.14,-2.95,-1.13,-2.94,2.94,2.81,3.19,1.80,1.81,1.81
72.91,-1.14,-2.91,-1.14,-2.91,2.91,2.77,3.11,1.78,1.77,1.77
73.64,-1.16,-2.88,-1.16,-2.88,2.88,2.73,3.03,1.73,1.73,1.73
74.38,-1.18,-2.87,-1.17,-2.86,2.86,2.68,2.95,1.68,1.69,1.69
75.12,-1.18,-2.81,-1.18,-2.83,2.83,2.64,2.87,1.65,1.64,1.63
75.87,-1.20,-2.79,-1.20,-2.80,2.80,2.60,2.79,1.60,1.60,1.60
76.63,-1.21,-2.77,-1.21,-2.76,2.76,2.55,2.71,1.56,1.56,1.56
77.40,-1.23,-2.74,-1.22,-2.73,2.73,2.51,2.63,1.50,1.51,1.51
78.17,-1.24,-2.69,-1.23,-2.70,2.70,2.46,2.55,1.46,1.46,1.45
78.95,-1.25,-2.67,-1.25,-2.66,2.66,2.42,2.47,1.41,1.41,1.42
79.74,-1.27,-2.63,-1.26,-2.62,2.62,2.37,2.39,1.36,1.36,1.37
80.54,-1.28,-2.59,-1.27,-2.58,2.58,2.33,2.31,1.31,1.31,1.31
81.35,-1.29,-2.55,-1.29,-2.55,2.55,2.28,2.23,1.26,1.26,1.26
82.16,-1.30,-2.50,-1.30,-2.51,2.51,2.24,2.15,1.21,1.21,1.21
82.98,-1.31,-2.47,-1.31,-2.46,2.46,2.19,2.08,1.16,1.15,1.16
83.81,-1.32,-2.41,-1.32,-2.42,2.42,2.15,2.00,1.11,1.10,1.09
84.65,-1.34,-2.37,-1.33,-2.38,2.38,2.10,1.93,1.04,1.04,1.04
85.50,-1.35,-2.33,-1.35,-2.33,2.33,2.06,1.86,0.99,0.99,0.99
86.35,-1.36,-2.29,-1.36,-2.29,2.29,2.01,1.78,0.93,0.93,0.93
87.22,-1.38,-2.25,-1.37,-2.24,2.24,1.97,1.71,0.87,0.87,0.87
88.09,-1.38,-2.19,-1.38,-2.19,2.19,1.92,1.65,0.82,0.81,0.81
88.97,-1.39,-2.14,-1.39,-2.15,2.15,1.87,1.58,0.76,0.75,0.76
89.86,-1.41,-2.10,-1.40,-2.10,2.10,1.83,1.51,0.69,0.69,0.70
90.76,-1.42,-2.04,-1.41,-2.05,2.05,1.78,1.45,0.63,0.63,0.62
91.66,-1.43,-2.00,-1.42,-1.99,1.99,1.74,1.38,0.57,0.57,0.57
92.58,-1.44,-1.93,-1.43,-1.94,1.94,1.69,1.32,0.50,0.51,0.50
93.51,-1.45,-1.90,-1.44,-1.88,1.88,1.64,1.26,0.44,0.45,0.45
94.44,-1.44,-1.82,-1.44,-1.83,1.83,1.60,1.20,0.39,0.38,0.39
95.39,-1.45,-1.77,-1.45,-1.77,1.77,1.55,1.14,0.32,0.31,0.32
96.34,-1.46,-1.70,-1.46,-1.70,1.70,1.50,1.08,0.25,0.25,0.25
97.30,-1.47,-1.65,-1.46,-1.64,1.64,1.46,1.02,0.18,0.18,0.18
98.28,-1.47,-1.58,-1.47,-1.58,1.58,1.41,0.96,0.11,0.11,0.11
99.26,-1.47,-1.50,-1.47,-1.51,1.51,1.36,0.91,0.05,0.04,0.04
100.25,-1.48,-1.45,-1.48,-1.45,1.45,1.31,0.85,-0.03,-0.03,-0.03
101.25,-1.48,-1.38,-1.48,-1.38,1.38,1.27,0.80,-0.10,-0.10,-0.10
102.27,-1.49,-1.31,-1.48,-1.31,1.31,1.22,0.75,-0.18,-0.17,-0.17
103.29,-1.49,-1.23,-1.49,-1.24,1.24,1.17,0.70,-0.25,-0.24,-0.25
104.32,-1.49,-1.17,-1.49,-1.17,1.17,1.12,0.65,-0.32,-0.32,-0.32
105.37,-1.49,-1.10,-1.49,-1.10,1.10,1.07,0.60,-0.39,-0.39,-0.39
106.42,-1.50,-1.03,-1.49,-1.02,1.02,1.02,0.55,-0.47,-0.47,-0.47
107.48,-1.50,-0.95,-1.49,-0.95,0.95,0.98,0.50,-0.55,-0.54,-0.54
108.56,-1.50,-0.88,-1.49,-0.87,0.87,0.93,0.46,-0.62,-0.62,-0.62
109.64,-1.50,-0.80,-1.49,-0.80,0.80,0.88,0.41,-0.70,-0.70,-0.70
110.74,-1.49,-0.72,-1.49,-0.72,0.72,0.83,0.37,-0.77,-0.78,-0.77
111.85,-1.50,-0.65,-1.49,-0.64,0.64,0.78,0.32,-0.86,-0.85,-0.84
112.97,-1.50,-0.56,-1.49,-0.56,0.56,0.73,0.28,-0.93,-0.93,-0.94
114.10,-1.50,-0.49,-1.49,-0.49,0.49,0.67,0.24,-1.01,-1.01,-1.01
115.24,-1.49,-0.40,-1.50,-0.41,0.41,0.62,0.20,-1.07,-1.08,-1.08
116.39,-1.49,-0.32,-1.49,-0.33,0.33,0.57,0.16,-1.15,-1.16,-1.17
117.55,-1.50,-0.25,-1.49,-0.26,0.26,0.52,0.12,-1.24,-1.24,-1.24
118.73,-1.50,-0.18,-1.49,-0.18,0.18,0.47,0.08,-1.31,-1.31,-1.32
119.92,-1.50,-0.11,-1.49,-0.11,0.11,0.41,0.04,-1.39,-1.38,-1.38
121.12,-1.50,-0.04,-1.49,-0.04,0.04,0.36,0.01,-1.46,-1.46,-1.46
122.33,-1.50,0.03,-1.49,0.04,-0.04,0.31,-0.03,-1.53,-1.53,-1.53
123.55,-1.50,0.10,-1.49,0.11,-0.11,0.25,-0.07,-1.60,-1.60,-1.59
124.79,-1.50,0.17,-1.49,0.18,-0.18,0.20,-0.10,-1.67,-1.67,-1.67
126.03,-1.49,0.24,-1.49,0.25,-0.25,0.14,-0.13,-1.73,-1.74,-1.73
127.29,-1.49,0.31,-1.49,0.31,-0.31,0.08,-0.16,-1.80,-1.80,-1.80
128.57,-1.49,0.39,-1.49,0.38,-0.38,0.03,-0.20,-1.86,-1.87,-1.88
129.85,-1.49,0.45,-1.49,0.44,-0.44,-0.03,-0.23,-1.93,-1.93,-1.94
131.15,-1.49,0.51,-1.49,0.51,-0.51,-0.09,-0.26,-1.99,-1.99,-1.99
132.46,-1.49,0.58,-1.49,0.57,-0.57,-0.15,-0.29,-2.05,-2.05,-2.06
133.79,-1.49,0.62,-1.49,0.63,-0.63,-0.21,-0.32,-2.11,-2.11,-2.11
135.12,-1.49,0.69,-1.48,0.68,-0.68,-0.27,-0.35,-2.17,-2.17,-2.17
136.48,-1.49,0.73,-1.48,0.73,-0.73,-0.33,-0.38,-2.22,-2.22,-2.22
137.84,-1.49,0.78,-1.48,0.79,-0.79,-0.39,-0.40,-2.27,-2.27,-2.26
139.22,-1.49,0.84,-1.48,0.84,-0.84,-0.45,-0.43,-2.32,-2.32,-2.33
140.61,-1.49,0.89,-1.48,0.88,-0.88,-0.51,-0.46,-2.37,-2.36,-2.38
142.02,-1.48,0.92,-1.48,0.93,-0.93,-0.57,-0.49,-2.40,-2.41,-2.40
143.44,-1.48,0.96,-1.48,0.97,-0.97,-0.63,-0.52,-2.44,-2.45,-2.44
144.87,-1.48,1.01,-1.48,1.01,-1.01,-0.70,-0.54,-2.49,-2.49,-2.49
146.32,-1.48,1.05,-1.48,1.05,-1.05,-0.76,-0.57,-2.53,-2.52,-2.53
147.78,-1.48,1.08,-1.47,1.09,-1.09,-0.83,-0.60,-2.56,-2.56,-2.56
149.26,-1.47,1.13,-1.47,1.12,-1.12,-0.89,-0.63,-2.59,-2.60,-2.59
150.75,-1.48,1.16,-1.48,1.16,-1.16,-0.95,-0.66,-2.64,-2.63,-2.64
152.26,-1.48,1.20,-1.48,1.19,-1.19,-1.02,-0.69,-2.67,-2.67,-2.67
153.78,-1.48,1.23,-1.48,1.23,-1.23,-1.08,-0.72,-2.70,-2.71,-2.70
155.32,-1.48,1.26,-1.48,1.26,-1.26,-1.15,-0.75,-2.73,-2.74,-2.74
156.88,-1.49,1.28,-1.49,1.29,-1.29,-1.21,-0.78,-2.77,-2.77,-2.77
158.44,-1.50,1.31,-1.49,1.32,-1.32,-1.28,-0.81,-2.81,-2.81,-2.81
160.03,-1.50,1.35,-1.50,1.35,-1.35,-1.34,-0.85,-2.84,-2.84,-2.85
161.63,-1.51,1.38,-1.50,1.37,-1.37,-1.41,-0.88,-2.88,-2.88,-2.89
163.24,-1.51,1.41,-1.51,1.40,-1.40,-1.47,-0.92,-2.91,-2.91,-2.91
164.88,-1.52,1.43,-1.52,1.43,-1.43,-1.53,-0.95,-2.94,-2.95,-2.94
166.53,-1.53,1.45,-1.53,1.46,-1.46,-1.59,-0.99,-2.98,-2.98,-2.98
168.19,-1.54,1.49,-1.54,1.48,-1.48,-1.65,-1.02,-3.02,-3.02,-3.02
169.87,-1.55,1.51,-1.54,1.51,-1.51,-1.71,-1.06,-3.06,-3.06,-3.06
171.57,-1.55,1.54,-1.55,1.54,-1.54,-1.77,-1.10,-3.09,-3.09,-3.09
173.29,-1.57,1.55,-1.56,1.57,-1.57,-1.83,-1.14,-3.14,-3.13,-3.12
175.02,-1.57,1.60,-1.57,1.61,-1.61,-1.88,-1.18,-3.17,-3.17,-3.16
176.77,-1.58,1.64,-1.57,1.64,-1.64,-1.93,-1.22,-3.22,-3.21,-3.21
178.54,-1.58,1.68,-1.58,1.67,-1.67,-1.98,-1.27,-3.25,-3.25,-3.25
180.32,-1.59,1.70,-1.58,1.71,-1.71,-2.03,-1.31,-3.30,-3.29,-3.29
182.13,-1.59,1.74,-1.58,1.75,-1.75,-2.07,-1.36,-3.33,-3.33,-3.33
183.95,-1.60,1.78,-1.59,1.79,-1.79,-2.11,-1.40,-3.38,-3.37,-3.37
185.79,-1.59,1.82,-1.59,1.82,-1.82,-2.15,-1.45,-3.41,-3.41,-3.41
187.65,-1.59,1.87,-1.59,1.86,-1.86,-2.19,-1.50,-3.44,-3.45,-3.46
189.52,-1.60,1.89,-1.59,1.89,-1.89,-2.22,-1.55,-3.49,-3.48,-3.49
191.42,-1.59,1.94,-1.59,1.93,-1.93,-2.25,-1.60,-3.51,-3.52,-3.52
193.33,-1.59,1.96,-1.59,1.96,-1.96,-2.28,-1.65,-3.55,-3.56,-3.55
195.27,-1.60,1.98,-1.60,1.99,-1.99,-2.30,-1.70,-3.59,-3.59,-3.58
197.22,-1.60,2.02,-1.60,2.02,-2.02,-2.31,-1.75,-3.61,-3.62,-3.61
199.19,-1.61,2.06,-1.61,2.04,-2.04,-2.33,-1.80,-3.65,-3.65,-3.66
201.18,-1.61,2.08,-1.61,2.07,-2.07,-2.34,-1.86,-3.67,-3.68,-3.68
203.19,-1.63,2.08,-1.62,2.09,-2.09,-2.35,-1.91,-3.71,-3.71,-3.70
205.23,-1.63,2.11,-1.63,2.10,-2.10,-2.35,-1.96,-3.73,-3.73,-3.73
207.28,-1.64,2.10,-1.64,2.12,-2.12,-2.35,-2.01,-3.76,-3.76,-3.74
209.35,-1.65,2.13,-1.65,2.13,-2.13,-2.35,-2.07,-3.78,-3.78,-3.78
211.44,-1.66,2.15,-1.66,2.14,-2.14,-2.34,-2.12,-3.80,-3.80,-3.81
213.56,-1.67,2.16,-1.67,2.15,-2.15,-2.33,-2.17,-3.82,-3.82,-3.82
215.69,-1.69,2.14,-1.68,2.15,-2.15,-2.32,-2.21,-3.84,-3.84,-3.83
217.85,-1.70,2.15,-1.70,2.16,-2.16,-2.30,-2.26,-3.85,-3.85,-3.84
220.03,-1.71,2.16,-1.71,2.15,-2.15,-2.28,-2.31,-3.86,-3.86,-3.87
222.23,-1.72,2.17,-1.72,2.15,-2.15,-2.26,-2.35,-3.86,-3.87,-3.88
224.45,-1.74,2.14,-1.74,2.14,-2.14,-2.24,-2.39,-3.87,-3.88,-3.88
226.70,-1.76,2.13,-1.76,2.13,-2.13,-2.22,-2.43,-3.88,-3.89,-3.89
228.96,-1.77,2.13,-1.77,2.11,-2.11,-2.19,-2.46,-3.88,-3.89,-3.89
231.25,-1.79,2.10,-1.79,2.10,-2.10,-2.16,-2.49,-3.88,-3.89,-3.89
233.57,-1.81,2.07,-1.81,2.08,-2.08,-2.14,-2.52,-3.88,-3.89,-3.88
235.90,-1.83,2.05,-1.82,2.06,-2.06,-2.11,-2.54,-3.88,-3.88,-3.88
238.26,-1.84,2.05,-1.84,2.03,-2.03,-2.08,-2.56,-3.87,-3.87,-3.88
240.64,-1.86,2.01,-1.85,2.01,-2.01,-2.05,-2.58,-3.87,-3.86,-3.86
243.05,-1.86,2.00,-1.86,1.99,-1.99,-2.01,-2.59,-3.85,-3.85,-3.85
245.48,-1.88,1.96,-1.86,1.97,-1.97,-1.98,-2.59,-3.85,-3.84,-3.83
247.93,-1.88,1.95,-1.87,1.96,-1.96,-1.95,-2.59,-3.83,-3.82,-3.82
250.41,-1.88,1.94,-1.86,1.94,-1.94,-1.93,-2.59,-3.82,-3.80,-3.81
252.92,-1.87,1.92,-1.85,1.93,-1.93,-1.90,-2.58,-3.80,-3.79,-3.78
255.45,-1.87,1.89,-1.84,1.92,-1.92,-1.87,-2.56,-3.79,-3.77,-3.76
258.00,-1.85,1.89,-1.83,1.92,-1.92,-1.84,-2.54,-3.76,-3.75,-3.74
260.58,-1.82,1.91,-1.81,1.91,-1.91,-1.82,-2.52,-3.73,-3.73,-3.73
263.19,-1.80,1.91,-1.79,1.91,-1.91,-1.80,-2.49,-3.71,-3.70,-3.71
265.82,-1.77,1.92,-1.77,1.91,-1.91,-1.78,-2.45,-3.67,-3.68,-3.68
268.48,-1.75,1.91,-1.76,1.90,-1.90,-1.76,-2.42,-3.65,-3.66,-3.66
271.16,-1.72,1.91,-1.74,1.90,-1.90,-1.74,-2.37,-3.62,-3.64,-3.63
273.87,-1.71,1.91,-1.72,1.90,-1.90,-1.73,-2.33,-3.60,-3.61,-3.61
276.61,-1.69,1.89,-1.70,1.89,-1.89,-1.72,-2.28,-3.58,-3.59,-3.58
279.38,-1.67,1.90,-1.69,1.88,-1.88,-1.72,-2.23,-3.55,-3.57,-3.57
282.17,-1.67,1.88,-1.67,1.87,-1.87,-1.71,-2.17,-3.54,-3.54,-3.54
284.99,-1.66,1.86,-1.66,1.86,-1.86,-1.72,-2.11,-3.51,-3.52,-3.52
287.84,-1.66,1.84,-1.65,1.84,-1.84,-1.72,-2.05,-3.50,-3.49,-3.49
290.72,-1.65,1.81,-1.64,1.82,-1.82,-1.73,-1.99,-3.47,-3.46,-3.46
293.63,-1.65,1.80,-1.64,1.80,-1.80,-1.74,-1.92,-3.45,-3.44,-3.45
296.57,-1.64,1.77,-1.63,1.78,-1.78,-1.75,-1.86,-3.42,-3.41,-3.41
299.53,-1.63,1.76,-1.62,1.76,-1.76,-1.77,-1.79,-3.38,-3.38,-3.38
302.53,-1.63,1.73,-1.61,1.74,-1.74,-1.78,-1.72,-3.36,-3.35,-3.36
305.55,-1.62,1.70,-1.60,1.71,-1.71,-1.79,-1.65,-3.33,-3.32,-3.31
308.61,-1.60,1.69,-1.60,1.69,-1.69,-1.79,-1.58,-3.29,-3.29,-3.29
311.69,-1.59,1.67,-1.59,1.67,-1.67,-1.79,-1.51,-3.26,-3.26,-3.25
314.81,-1.58,1.64,-1.58,1.65,-1.65,-1.77,-1.44,-3.22,-3.22,-3.22
317.96,-1.57,1.62,-1.57,1.62,-1.62,-1.74,-1.37,-3.19,-3.19,-3.19
321.14,-1.56,1.61,-1.56,1.60,-1.60,-1.71,-1.30,-3.16,-3.16,-3.16
324.35,-1.56,1.58,-1.55,1.58,-1.58,-1.66,-1.23,-3.14,-3.14,-3.14
327.59,-1.56,1.54,-1.55,1.56,-1.56,-1.60,-1.16,-3.11,-3.11,-3.10
330.87,-1.56,1.52,-1.55,1.53,-1.53,-1.53,-1.09,-3.09,-3.08,-3.07
334.18,-1.56,1.50,-1.55,1.50,-1.50,-1.46,-1.02,-3.06,-3.05,-3.06
337.52,-1.56,1.47,-1.56,1.47,-1.47,-1.39,-0.95,-3.03,-3.03,-3.03
340.90,-1.57,1.44,-1.57,1.44,-1.44,-1.32,-0.88,-3.00,-3.01,-3.00
344.30,-1.59,1.40,-1.59,1.40,-1.40,-1.24,-0.81,-2.98,-2.99,-2.99
347.75,-1.60,1.36,-1.61,1.35,-1.35,-1.17,-0.75,-2.95,-2.96,-2.96
351.23,-1.62,1.33,-1.64,1.30,-1.30,-1.10,-0.68,-2.92,-2.94,-2.94
354.74,-1.65,1.28,-1.68,1.25,-1.25,-1.04,-0.61,-2.90,-2.92,-2.92
358.28,-1.71,1.20,-1.72,1.19,-1.19,-0.97,-0.54,-2.89,-2.90,-2.91
361.87,-1.76,1.13,-1.76,1.12,-1.12,-0.92,-0.48,-2.88,-2.89,-2.89
365.49,-1.82,1.04,-1.81,1.05,-1.05,-0.86,-0.41,-2.87,-2.87,-2.86
369.14,-1.88,0.98,-1.87,0.98,-0.98,-0.81,-0.35,-2.85,-2.85,-2.85
372.83,-1.94,0.90,-1.93,0.90,-0.90,-0.76,-0.28,-2.83,-2.83,-2.84
376.56,-2.00,0.82,-2.00,0.81,-0.81,-0.71,-0.22,-2.81,-2.81,-2.82
380.33,-2.07,0.72,-2.07,0.72,-0.72,-0.66,-0.16,-2.79,-2.79,-2.79
384.13,-2.13,0.64,-2.14,0.64,-0.64,-0.62,-0.09,-2.76,-2.77,-2.77
387.97,-2.21,0.55,-2.20,0.55,-0.55,-0.58,-0.03,-2.75,-2.75,-2.75
391.85,-2.28,0.46,-2.27,0.46,-0.46,-0.54,0.03,-2.73,-2.73,-2.73
395.77,-2.35,0.36,-2.34,0.37,-0.37,-0.50,0.09,-2.72,-2.71,-2.71
399.73,-2.40,0.29,-2.40,0.29,-0.29,-0.46,0.15,-2.68,-2.69,-2.69
403.72,-2.47,0.20,-2.46,0.21,-0.21,-0.42,0.21,-2.67,-2.67,-2.67
407.76,-2.53,0.12,-2.52,0.13,-0.13,-0.38,0.27,-2.66,-2.65,-2.65
411.84,-2.59,0.04,-2.57,0.06,-0.06,-0.35,0.33,-2.65,-2.63,-2.62
415.96,-2.63,-0.02,-2.61,-0.01,0.01,-0.31,0.38,-2.62,-2.60,-2.60
420.12,-2.67,-0.08,-2.65,-0.07,0.07,-0.27,0.44,-2.60,-2.58,-2.58
424.32,-2.70,-0.14,-2.69,-0.13,0.13,-0.24,0.49,-2.57,-2.56,-2.56
428.56,-2.73,-0.19,-2.72,-0.18,0.18,-0.20,0.54,-2.55,-2.54,-2.54
432.85,-2.76,-0.24,-2.74,-0.23,0.23,-0.16,0.59,-2.53,-2.51,-2.52
437.18,-2.77,-0.28,-2.76,-0.27,0.27,-0.12,0.64,-2.49,-2.49,-2.49
441.55,-2.77,-0.31,-2.78,-0.32,0.32,-0.08,0.69,-2.45,-2.46,-2.46
445.96,-2.78,-0.34,-2.80,-0.36,0.36,-0.04,0.73,-2.42,-2.44,-2.44
450.42,-2.80,-0.37,-2.81,-0.39,0.39,0.00,0.78,-2.40,-2.41,-2.42
454.93,-2.82,-0.43,-2.81,-0.43,0.43,0.05,0.82,-2.39,-2.39,-2.38
459.48,-2.82,-0.45,-2.82,-0.46,0.46,0.10,0.86,-2.36,-2.36,-2.36
464.07,-2.83,-0.49,-2.82,-0.49,0.49,0.15,0.89,-2.34,-2.33,-2.33
468.71,-2.84,-0.54,-2.82,-0.52,0.52,0.20,0.92,-2.32,-2.30,-2.30
473.40,-2.84,-0.56,-2.82,-0.55,0.55,0.26,0.95,-2.29,-2.28,-2.28
478.13,-2.84,-0.59,-2.82,-0.58,0.58,0.32,0.98,-2.26,-2.25,-2.25
