frequency,raw,error,smoothed,error_smoothed,equalization,parametric_eq,fixed_band_eq,equalized_raw,equalized_smoothed,target
20.00,-7.87,-9.43,-7.87,-9.43,9.42,9.01,2.53,1.55,1.55,1.55
20.20,-7.74,-9.35,-7.74,-9.34,9.34,8.99,2.60,1.60,1.60,1.60
20.40,-7.61,-9.26,-7.61,-9.26,9.26,8.96,2.68,1.65,1.65,1.65
20.61,-7.49,-9.17,-7.49,-9.18,9.18,8.93,2.76,1.70,1.70,1.68
20.81,-7.36,-9.09,-7.36,-9.09,9.09,8.88,2.84,1.73,1.74,1.73
21.02,-7.23,-9.01,-7.24,-9.00,9.01,8.83,2.92,1.77,1.77,1.77
21.23,-7.11,-8.91,-7.12,-8.91,8.91,8.77,3.00,1.80,1.80,1.79
21.44,-7.00,-8.81,-7.00,-8.81,8.82,8.71,3.09,1.81,1.82,1.81
21.66,-6.88,-8.72,-6.89,-8.72,8.72,8.64,3.18,1.83,1.83,1.83
21.87,-6.77,-8.61,-6.77,-8.62,8.62,8.56,3.28,1.84,1.85,1.84
22.09,-6.65,-8.51,-6.65,-8.51,8.51,8.48,3.37,1.86,1.86,1.86
22.31,-6.53,-8.40,-6.53,-8.40,8.40,8.40,3.47,1.86,1.86,1.87
22.54,-6.42,-8.29,-6.41,-8.29,8.28,8.31,3.57,1.86,1.87,1.87
22.76,-6.29,-8.16,-6.29,-8.16,8.16,8.21,3.67,1.87,1.87,1.87
22.99,-6.17,-8.04,-6.17,-8.03,8.04,8.11,3.78,1.87,1.87,1.86
23.22,-6.04,-7.91,-6.04,-7.91,7.91,8.01,3.89,1.87,1.87,1.86
23.45,-5.91,-7.77,-5.92,-7.78,7.78,7.90,4.00,1.87,1.87,1.86
23.69,-5.80,-7.67,-5.79,-7.66,7.65,7.80,4.11,1.86,1.86,1.87
23.92,-5.66,-7.53,-5.66,-7.54,7.52,7.69,4.23,1.86,1.86,1.87
24.16,-5.53,-7.40,-5.54,-7.41,7.40,7.57,4.35,1.87,1.86,1.87
24.40,-5.41,-7.29,-5.40,-7.28,7.28,7.46,4.47,1.87,1.88,1.88
24.65,-5.28,-7.16,-5.28,-7.15,7.17,7.34,4.59,1.89,1.90,1.87
24.89,-5.15,-7.02,-5.16,-7.04,7.07,7.23,4.71,1.92,1.91,1.87
25.14,-5.06,-6.93,-5.07,-6.95,6.98,7.11,4.83,1.91,1.91,1.87
25.39,-5.00,-6.88,-5.00,-6.88,6.88,6.99,4.96,1.88,1.89,1.88
25.65,-4.93,-6.82,-4.93,-6.81,6.79,6.87,5.08,1.86,1.86,1.88
25.91,-4.86,-6.74,-4.86,-6.73,6.70,6.76,5.21,1.83,1.84,1.87
26.16,-4.76,-6.63,-4.76,-6.63,6.60,6.64,5.33,1.84,1.84,1.87
26.43,-4.64,-6.51,-4.64,-6.51,6.50,6.52,5.46,1.86,1.86,1.87
26.69,-4.51,-6.39,-4.51,-6.38,6.39,6.40,5.58,1.87,1.87,1.87
26.96,-4.38,-6.26,-4.39,-6.26,6.27,6.28,5.70,1.89,1.88,1.87
27.23,-4.27,-6.15,-4.27,-6.14,6.16,6.17,5.82,1.88,1.88,1.87
27.50,-4.16,-6.04,-4.16,-6.03,6.04,6.05,5.93,1.88,1.89,1.87
27.77,-4.05,-5.91,-4.05,-5.92,5.94,5.94,6.04,1.89,1.88,1.86
28.05,-3.95,-5.81,-3.96,-5.82,5.83,5.82,6.15,1.88,1.88,1.86
28.33,-3.87,-5.72,-3.87,-5.73,5.73,5.71,6.24,1.86,1.86,1.85
28.62,-3.79,-5.65,-3.79,-5.65,5.63,5.60,6.34,1.84,1.84,1.85
28.90,-3.71,-5.57,-3.71,-5.56,5.53,5.48,6.42,1.82,1.82,1.86
29.19,-3.60,-5.46,-3.60,-5.45,5.43,5.37,6.49,1.83,1.83,1.85
29.48,-3.47,-5.33,-3.47,-5.33,5.33,5.27,6.56,1.86,1.85,1.86
29.78,-3.34,-5.20,-3.35,-5.21,5.23,5.16,6.61,1.88,1.88,1.85
30.08,-3.24,-5.10,-3.24,-5.10,5.13,5.05,6.66,1.89,1.88,1.86
30.38,-3.15,-5.01,-3.15,-5.01,5.02,4.95,6.69,1.87,1.87,1.85
30.68,-3.07,-4.93,-3.07,-4.92,4.93,4.85,6.71,1.85,1.85,1.85
30.99,-2.99,-4.85,-2.99,-4.84,4.83,4.74,6.72,1.84,1.84,1.85
31.30,-2.90,-4.75,-2.90,-4.75,4.74,4.64,6.71,1.83,1.83,1.84
31.61,-2.81,-4.66,-2.82,-4.66,4.65,4.54,6.69,1.84,1.83,1.84
31.93,-2.72,-4.57,-2.72,-4.56,4.56,4.45,6.66,1.84,1.84,1.84
32.24,-2.63,-4.46,-2.63,-4.47,4.47,4.35,6.62,1.84,1.84,1.83
32.57,-2.53,-4.37,-2.54,-4.37,4.37,4.26,6.57,1.84,1.84,1.83
32.89,-2.44,-4.27,-2.44,-4.27,4.28,4.16,6.50,1.83,1.83,1.83
33.22,-2.35,-4.17,-2.35,-4.18,4.18,4.07,6.43,1.82,1.82,1.82
33.55,-2.26,-4.08,-2.26,-4.08,4.07,3.98,6.34,1.81,1.81,1.82
33.89,-2.17,-3.99,-2.17,-3.98,3.97,3.89,6.25,1.80,1.80,1.81
34.23,-2.07,-3.89,-2.07,-3.88,3.87,3.80,6.14,1.80,1.81,1.81
34.57,-1.96,-3.77,-1.97,-3.77,3.78,3.72,6.03,1.81,1.81,1.80
34.92,-1.86,-3.67,-1.87,-3.67,3.68,3.63,5.92,1.81,1.81,1.80
35.27,-1.77,-3.57,-1.78,-3.57,3.58,3.55,5.79,1.81,1.81,1.79
35.62,-1.69,-3.49,-1.69,-3.49,3.49,3.46,5.67,1.79,1.80,1.79
35.97,-1.61,-3.40,-1.61,-3.40,3.39,3.38,5.53,1.78,1.78,1.79
36.33,-1.52,-3.31,-1.53,-3.31,3.30,3.30,5.40,1.78,1.78,1.79
36.70,-1.44,-3.23,-1.44,-3.23,3.22,3.22,5.26,1.78,1.78,1.78
37.06,-1.35,-3.13,-1.35,-3.14,3.14,3.15,5.12,1.79,1.79,1.78
37.43,-1.26,-3.05,-1.26,-3.05,3.06,3.07,4.98,1.80,1.79,1.79
37.81,-1.18,-2.98,-1.18,-2.97,2.98,3.00,4.84,1.80,1.80,1.79
38.19,-1.10,-2.89,-1.11,-2.90,2.90,2.92,4.70,1.80,1.79,1.78
38.57,-1.04,-2.84,-1.05,-2.84,2.83,2.85,4.56,1.79,1.78,1.79
38.95,-0.99,-2.79,-0.98,-2.77,2.76,2.78,4.42,1.77,1.78,1.80
39.34,-0.91,-2.70,-0.91,-2.70,2.70,2.71,4.28,1.79,1.79,1.79
39.74,-0.82,-2.62,-0.83,-2.63,2.64,2.64,4.14,1.82,1.81,1.79
40.14,-0.76,-2.56,-0.77,-2.56,2.59,2.57,4.00,1.82,1.81,1.79
40.54,-0.73,-2.53,-0.73,-2.52,2.53,2.50,3.87,1.80,1.80,1.79
40.94,-0.70,-2.49,-0.70,-2.48,2.47,2.43,3.73,1.77,1.78,1.78
41.35,-0.65,-2.44,-0.66,-2.44,2.41,2.37,3.60,1.76,1.75,1.78
41.76,-0.60,-2.37,-0.60,-2.38,2.35,2.30,3.47,1.75,1.75,1.77
42.18,-0.54,-2.31,-0.54,-2.30,2.29,2.24,3.34,1.75,1.76,1.77
42.60,-0.46,-2.22,-0.47,-2.23,2.23,2.18,3.21,1.77,1.77,1.76
43.03,-0.39,-2.15,-0.40,-2.15,2.18,2.11,3.09,1.78,1.78,1.75
43.46,-0.34,-2.09,-0.34,-2.08,2.12,2.05,2.97,1.77,1.77,1.74
43.90,-0.30,-2.03,-0.31,-2.04,2.05,1.99,2.85,1.75,1.74,1.72
44.33,-0.29,-2.00,-0.30,-2.00,1.99,1.93,2.73,1.70,1.69,1.70
44.78,-0.29,-1.98,-0.28,-1.96,1.93,1.87,2.61,1.64,1.66,1.68
45.23,-0.24,-1.92,-0.23,-1.90,1.87,1.82,2.50,1.63,1.64,1.67
45.68,-0.15,-1.82,-0.16,-1.82,1.81,1.76,2.39,1.66,1.65,1.66
46.13,-0.08,-1.72,-0.09,-1.74,1.75,1.70,2.28,1.67,1.66,1.64
46.60,-0.03,-1.68,-0.03,-1.67,1.68,1.64,2.17,1.65,1.65,1.64
47.06,0.02,-1.61,0.02,-1.61,1.62,1.59,2.07,1.63,1.63,1.62
47.53,0.06,-1.56,0.06,-1.56,1.55,1.53,1.97,1.61,1.61,1.61
48.01,0.11,-1.51,0.11,-1.49,1.50,1.48,1.86,1.60,1.61,1.61
48.49,0.16,-1.44,0.16,-1.43,1.44,1.42,1.77,1.60,1.60,1.59
48.97,0.21,-1.37,0.19,-1.39,1.39,1.37,1.67,1.60,1.58,1.57
49.46,0.21,-1.35,0.21,-1.34,1.34,1.32,1.57,1.55,1.55,1.55
49.96,0.21,-1.33,0.23,-1.31,1.30,1.26,1.48,1.50,1.53,1.53
50.46,0.26,-1.27,0.25,-1.27,1.25,1.21,1.39,1.51,1.50,1.52
50.96,0.31,-1.21,0.29,-1.21,1.21,1.16,1.30,1.51,1.50,1.51
51.47,0.33,-1.17,0.33,-1.16,1.17,1.11,1.21,1.50,1.50,1.49
51.99,0.36,-1.13,0.36,-1.12,1.14,1.06,1.12,1.49,1.50,1.48
52.51,0.39,-1.09,0.38,-1.09,1.11,1.01,1.04,1.49,1.49,1.47
53.03,0.41,-1.07,0.40,-1.06,1.08,0.96,0.95,1.48,1.48,1.47
53.56,0.41,-1.05,0.41,-1.05,1.05,0.90,0.87,1.45,1.45,1.45
54.10,0.41,-1.04,0.40,-1.04,1.02,0.85,0.79,1.43,1.42,1.44
54.64,0.41,-1.02,0.41,-1.01,1.00,0.80,0.71,1.40,1.41,1.42
55.18,0.43,-0.99,0.44,-0.98,0.98,0.75,0.63,1.40,1.42,1.42
55.74,0.48,-0.93,0.47,-0.94,0.95,0.70,0.55,1.43,1.42,1.40
56.29,0.51,-0.89,0.50,-0.90,0.92,0.66,0.48,1.43,1.42,1.39
56.86,0.51,-0.88,0.50,-0.87,0.88,0.61,0.41,1.39,1.38,1.38
57.42,0.51,-0.85,0.51,-0.85,0.83,0.56,0.34,1.34,1.34,1.35
58.00,0.51,-0.84,0.53,-0.82,0.77,0.51,0.27,1.28,1.30,1.34
58.58,0.59,-0.75,0.59,-0.74,0.71,0.46,0.20,1.29,1.30,1.33
59.16,0.67,-0.64,0.67,-0.64,0.64,0.41,0.13,1.30,1.31,1.31
59.76,0.77,-0.53,0.74,-0.54,0.56,0.36,0.06,1.32,1.30,1.29
60.35,0.81,-0.45,0.80,-0.46,0.48,0.31,-0.00,1.28,1.27,1.25
60.96,0.81,-0.41,0.84,-0.38,0.39,0.26,-0.06,1.20,1.23,1.21
61.57,0.87,-0.31,0.86,-0.31,0.32,0.20,-0.13,1.18,1.18,1.17
62.18,0.91,-0.23,0.89,-0.24,0.25,0.15,-0.19,1.15,1.14,1.13
62.80,0.91,-0.18,0.91,-0.17,0.19,0.10,-0.24,1.09,1.10,1.08
63.43,0.91,-0.14,0.91,-0.13,0.13,0.05,-0.30,1.04,1.04,1.04
64.07,0.91,-0.09,0.91,-0.09,0.09,-0.00,-0.36,0.99,0.99,0.99
64.71,0.91,-0.05,0.91,-0.05,0.04,-0.06,-0.42,0.95,0.95,0.95
65.35,0.91,-0.00,0.91,-0.00,-0.01,-0.11,-0.47,0.90,0.90,0.91
66.01,0.91,0.04,0.91,0.05,-0.05,-0.16,-0.52,0.86,0.86,0.86
66.67,0.91,0.09,0.90,0.09,-0.09,-0.22,-0.58,0.81,0.81,0.81
67.33,0.91,0.14,0.91,0.14,-0.14,-0.27,-0.63,0.77,0.77,0.76
68.01,0.91,0.18,0.92,0.20,-0.18,-0.33,-0.68,0.72,0.73,0.72
68.69,0.93,0.25,0.92,0.25,-0.24,-0.39,-0.73,0.69,0.68,0.67
69.37,0.93,0.30,0.92,0.29,-0.29,-0.45,-0.78,0.64,0.63,0.62
70.07,0.91,0.33,0.91,0.34,-0.35,-0.51,-0.84,0.56,0.57,0.57
70.77,0.91,0.38,0.92,0.40,-0.41,-0.57,-0.89,0.49,0.51,0.52
71.48,0.95,0.47,0.95,0.48,-0.49,-0.63,-0.94,0.46,0.46,0.47
72.19,1.00,0.59,0.98,0.57,-0.58,-0.69,-0.99,0.42,0.39,0.40
72.91,1.01,0.67,1.01,0.66,-0.68,-0.76,-1.04,0.33,0.33,0.34
73.64,1.04,0.75,1.06,0.77,-0.79,-0.83,-1.09,0.25,0.27,0.29
74.38,1.12,0.88,1.13,0.90,-0.90,-0.90,-1.14,0.22,0.23,0.23
75.12,1.22,1.05,1.21,1.03,-1.01,-0.97,-1.20,0.21,0.19,0.17
75.87,1.30,1.19,1.27,1.16,-1.13,-1.04,-1.25,0.17,0.15,0.11
76.63,1.31,1.25,1.33,1.27,-1.24,-1.12,-1.31,0.07,0.08,0.06
77.40,1.35,1.33,1.35,1.35,-1.36,-1.20,-1.36,-0.01,-0.00,0.01
78.17,1.42,1.46,1.39,1.43,-1.46,-1.28,-1.42,-0.05,-0.07,-0.05
78.95,1.42,1.51,1.45,1.54,-1.56,-1.36,-1.48,-0.15,-0.11,-0.09
79.74,1.52,1.66,1.52,1.65,-1.66,-1.45,-1.54,-0.14,-0.14,-0.14
80.54,1.59,1.77,1.57,1.76,-1.74,-1.54,-1.60,-0.15,-0.17,-0.19
81.35,1.62,1.85,1.61,1.85,-1.82,-1.63,-1.66,-0.20,-0.20,-0.24
82.16,1.62,1.90,1.62,1.91,-1.89,-1.73,-1.72,-0.27,-0.26,-0.29
82.98,1.62,1.94,1.62,1.95,-1.95,-1.83,-1.79,-0.33,-0.33,-0.33
83.81,1.62,1.99,1.62,1.99,-2.00,-1.93,-1.85,-0.38,-0.38,-0.38
84.65,1.62,2.04,1.62,2.05,-2.05,-2.03,-1.92,-0.43,-0.42,-0.43
85.50,1.63,2.09,1.63,2.10,-2.09,-2.13,-1.99,-0.46,-0.46,-0.47
86.35,1.64,2.15,1.63,2.14,-2.14,-2.23,-2.06,-0.51,-0.52,-0.52
87.22,1.62,2.18,1.62,2.18,-2.21,-2.32,-2.14,-0.59,-0.59,-0.57
88.09,1.62,2.23,1.61,2.24,-2.28,-2.42,-2.21,-0.66,-0.66,-0.62
88.97,1.62,2.29,1.64,2.32,-2.36,-2.51,-2.29,-0.74,-0.71,-0.68
89.86,1.70,2.42,1.70,2.43,-2.44,-2.59,-2.37,-0.74,-0.74,-0.73
90.76,1.79,2.56,1.76,2.54,-2.52,-2.67,-2.45,-0.73,-0.75,-0.78
91.66,1.82,2.65,1.81,2.65,-2.60,-2.74,-2.53,-0.78,-0.78,-0.83
92.58,1.83,2.71,1.83,2.72,-2.68,-2.80,-2.61,-0.85,-0.85,-0.89
93.51,1.83,2.76,1.83,2.76,-2.76,-2.85,-2.70,-0.93,-0.93,-0.94
94.44,1.83,2.80,1.82,2.80,-2.83,-2.90,-2.79,-1.01,-1.01,-0.98
95.39,1.82,2.84,1.83,2.86,-2.90,-2.94,-2.88,-1.08,-1.06,-1.03
96.34,1.85,2.92,1.86,2.94,-2.95,-2.98,-2.97,-1.10,-1.09,-1.08
97.30,1.92,3.04,1.89,3.02,-3.00,-3.01,-3.06,-1.08,-1.11,-1.13
98.28,1.91,3.08,1.90,3.08,-3.04,-3.05,-3.15,-1.14,-1.14,-1.18
99.26,1.89,3.10,1.89,3.12,-3.09,-3.08,-3.25,-1.20,-1.20,-1.22
100.25,1.87,3.13,1.87,3.14,-3.14,-3.11,-3.34,-1.27,-1.27,-1.27
101.25,1.85,3.16,1.85,3.17,-3.19,-3.15,-3.44,-1.34,-1.34,-1.32
102.27,1.84,3.20,1.83,3.20,-3.23,-3.18,-3.54,-1.39,-1.40,-1.37
103.29,1.83,3.24,1.84,3.25,-3.27,-3.22,-3.63,-1.44,-1.43,-1.42
104.32,1.84,3.29,1.85,3.31,-3.31,-3.26,-3.73,-1.47,-1.46,-1.46
105.37,1.88,3.38,1.86,3.37,-3.35,-3.31,-3.82,-1.48,-1.49,-1.51
106.42,1.86,3.41,1.86,3.42,-3.39,-3.35,-3.92,-1.54,-1.54,-1.56
107.48,1.84,3.45,1.84,3.45,-3.43,-3.40,-4.01,-1.60,-1.60,-1.62
108.56,1.81,3.47,1.81,3.48,-3.47,-3.45,-4.11,-1.67,-1.66,-1.67
109.64,1.79,3.50,1.79,3.51,-3.51,-3.51,-4.19,-1.72,-1.72,-1.72
110.74,1.78,3.55,1.77,3.54,-3.55,-3.56,-4.28,-1.77,-1.78,-1.78
111.85,1.76,3.57,1.76,3.58,-3.59,-3.62,-4.37,-1.83,-1.83,-1.82
112.97,1.75,3.62,1.74,3.62,-3.64,-3.67,-4.45,-1.89,-1.89,-1.88
114.10,1.74,3.66,1.74,3.67,-3.69,-3.73,-4.52,-1.95,-1.95,-1.93
115.24,1.75,3.72,1.76,3.74,-3.75,-3.79,-4.59,-2.00,-1.99,-1.98
116.39,1.81,3.83,1.80,3.82,-3.82,-3.85,-4.66,-2.01,-2.03,-2.03
117.55,1.85,3.91,1.82,3.89,-3.89,-3.91,-4.72,-2.05,-2.07,-2.07
118.73,1.85,3.95,1.86,3.97,-3.97,-3.96,-4.78,-2.12,-2.10,-2.11
119.92,1.88,4.01,1.90,4.04,-4.04,-4.02,-4.82,-2.16,-2.14,-2.14
121.12,1.97,4.14,1.93,4.11,-4.10,-4.08,-4.87,-2.13,-2.17,-2.18
122.33,1.97,4.17,1.97,4.18,-4.16,-4.13,-4.90,-2.19,-2.19,-2.21
123.55,1.98,4.21,1.99,4.23,-4.21,-4.18,-4.93,-2.23,-2.22,-2.24
124.79,1.99,4.25,1.99,4.25,-4.25,-4.23,-4.95,-2.27,-2.27,-2.27
126.03,2.00,4.29,1.99,4.29,-4.30,-4.28,-4.96,-2.30,-2.30,-2.30
127.29,2.00,4.31,2.00,4.32,-4.34,-4.32,-4.96,-2.34,-2.34,-2.32
128.57,2.01,4.36,2.00,4.36,-4.37,-4.36,-4.96,-2.37,-2.37,-2.36
129.85,2.01,4.39,2.01,4.40,-4.41,-4.40,-4.95,-2.40,-2.40,-2.39
131.15,2.02,4.43,2.01,4.43,-4.43,-4.43,-4.93,-2.42,-2.42,-2.42
132.46,2.02,4.46,2.02,4.47,-4.46,-4.46,-4.91,-2.44,-2.44,-2.45
133.79,2.03,4.50,2.03,4.50,-4.48,-4.48,-4.88,-2.46,-2.46,-2.48
135.12,2.03,4.53,2.01,4.52,-4.50,-4.51,-4.85,-2.48,-2.49,-2.51
136.48,2.00,4.52,1.99,4.53,-4.52,-4.53,-4.81,-2.52,-2.53,-2.53
137.84,1.95,4.51,1.96,4.53,-4.54,-4.55,-4.76,-2.59,-2.58,-2.57
139.22,1.94,4.53,1.94,4.54,-4.56,-4.56,-4.71,-2.62,-2.62,-2.60
140.61,1.94,4.56,1.93,4.56,-4.58,-4.58,-4.66,-2.64,-2.64,-2.63
142.02,1.94,4.58,1.94,4.59,-4.60,-4.59,-4.60,-2.66,-2.66,-2.65
143.44,1.94,4.61,1.94,4.62,-4.62,-4.61,-4.55,-2.68,-2.68,-2.68
144.87,1.94,4.65,1.94,4.66,-4.65,-4.63,-4.49,-2.71,-2.71,-2.72
146.32,1.94,4.69,1.94,4.69,-4.67,-4.65,-4.43,-2.74,-2.74,-2.76
147.78,1.94,4.72,1.93,4.72,-4.71,-4.67,-4.36,-2.77,-2.78,-2.79
149.26,1.90,4.73,1.89,4.73,-4.74,-4.69,-4.30,-2.85,-2.85,-2.84
150.75,1.85,4.74,1.84,4.74,-4.77,-4.71,-4.24,-2.92,-2.93,-2.90
152.26,1.78,4.74,1.79,4.76,-4.79,-4.74,-4.17,-3.01,-2.99,-2.97
153.78,1.74,4.77,1.76,4.79,-4.79,-4.76,-4.11,-3.05,-3.03,-3.04
155.32,1.74,4.84,1.71,4.82,-4.77,-4.79,-4.05,-3.04,-3.06,-3.11
156.88,1.66,4.84,1.65,4.83,-4.75,-4.81,-3.99,-3.09,-3.10,-3.19
158.44,1.52,4.78,1.52,4.79,-4.72,-4.83,-3.93,-3.21,-3.20,-3.27
160.03,1.39,4.73,1.36,4.70,-4.71,-4.85,-3.87,-3.32,-3.35,-3.35
161.63,1.19,4.60,1.22,4.64,-4.71,-4.87,-3.82,-3.52,-3.48,-3.42
163.24,1.12,4.59,1.13,4.61,-4.72,-4.88,-3.77,-3.60,-3.59,-3.48
164.88,1.13,4.65,1.11,4.64,-4.74,-4.89,-3.72,-3.61,-3.63,-3.53
166.53,1.13,4.70,1.16,4.74,-4.77,-4.90,-3.67,-3.64,-3.61,-3.58
168.19,1.24,4.85,1.23,4.85,-4.82,-4.90,-3.62,-3.58,-3.59,-3.62
169.87,1.32,4.97,1.28,4.93,-4.87,-4.90,-3.58,-3.55,-3.58,-3.66
171.57,1.31,4.98,1.32,4.99,-4.92,-4.89,-3.54,-3.61,-3.60,-3.68
173.29,1.30,4.98,1.31,5.00,-4.96,-4.88,-3.50,-3.66,-3.64,-3.69
175.02,1.30,4.99,1.28,4.98,-4.98,-4.87,-3.46,-3.68,-3.70,-3.70
176.77,1.26,4.96,1.25,4.96,-4.98,-4.86,-3.43,-3.72,-3.73,-3.71
178.54,1.20,4.91,1.22,4.93,-4.96,-4.85,-3.40,-3.76,-3.74,-3.72
180.32,1.20,4.90,1.20,4.91,-4.93,-4.83,-3.37,-3.73,-3.73,-3.71
182.13,1.20,4.89,1.20,4.90,-4.90,-4.81,-3.35,-3.70,-3.70,-3.70
183.95,1.21,4.91,1.17,4.87,-4.86,-4.79,-3.33,-3.66,-3.69,-3.71
185.79,1.12,4.82,1.13,4.84,-4.83,-4.78,-3.31,-3.71,-3.70,-3.71
187.65,1.05,4.77,1.08,4.81,-4.80,-4.76,-3.29,-3.75,-3.72,-3.73
189.52,1.05,4.78,1.02,4.76,-4.77,-4.74,-3.27,-3.73,-3.75,-3.74
191.42,1.00,4.75,0.98,4.73,-4.75,-4.72,-3.26,-3.75,-3.77,-3.76
193.33,0.91,4.68,0.94,4.71,-4.72,-4.70,-3.25,-3.82,-3.79,-3.78
195.27,0.89,4.68,0.89,4.69,-4.70,-4.68,-3.24,-3.82,-3.81,-3.80
197.22,0.89,4.70,0.87,4.68,-4.69,-4.66,-3.24,-3.80,-3.82,-3.82
199.19,0.84,4.67,0.84,4.68,-4.67,-4.64,-3.23,-3.84,-3.83,-3.84
201.18,0.81,4.66,0.80,4.66,-4.66,-4.62,-3.23,-3.85,-3.86,-3.86
203.19,0.76,4.63,0.77,4.64,-4.64,-4.60,-3.23,-3.89,-3.88,-3.88
205.23,0.73,4.62,0.74,4.64,-4.62,-4.58,-3.23,-3.90,-3.88,-3.90
207.28,0.73,4.63,0.70,4.61,-4.60,-4.55,-3.23,-3.87,-3.90,-3.91
209.35,0.66,4.58,0.64,4.58,-4.57,-4.53,-3.23,-3.91,-3.93,-3.93
211.44,0.55,4.50,0.58,4.53,-4.54,-4.50,-3.24,-3.99,-3.96,-3.96
213.56,0.52,4.48,0.52,4.48,-4.50,-4.47,-3.24,-3.98,-3.98,-3.97
215.69,0.48,4.45,0.46,4.44,-4.46,-4.44,-3.24,-3.98,-3.99,-3.98
217.85,0.42,4.40,0.41,4.41,-4.41,-4.40,-3.25,-3.99,-3.99,-3.99
220.03,0.35,4.34,0.35,4.35,-4.35,-4.36,-3.25,-4.00,-4.00,-4.00
222.23,0.28,4.30,0.28,4.30,-4.28,-4.31,-3.25,-4.01,-4.00,-4.03
224.45,0.22,4.23,0.21,4.24,-4.21,-4.26,-3.25,-4.00,-4.00,-4.02
226.70,0.15,4.16,0.14,4.15,-4.14,-4.20,-3.25,-3.99,-4.00,-4.02
228.96,0.05,4.05,0.04,4.05,-4.06,-4.13,-3.24,-4.02,-4.02,-4.01
231.25,-0.05,3.94,-0.05,3.95,-3.98,-4.06,-3.23,-4.04,-4.03,-4.00
233.57,-0.13,3.85,-0.11,3.88,-3.90,-3.97,-3.23,-4.03,-4.01,-3.99
235.90,-0.16,3.81,-0.17,3.81,-3.81,-3.88,-3.21,-3.98,-3.99,-3.98
238.26,-0.20,3.76,-0.23,3.74,-3.73,-3.78,-3.20,-3.93,-3.95,-3.97
240.64,-0.30,3.63,-0.28,3.66,-3.64,-3.67,-3.18,-3.94,-3.92,-3.94
243.05,-0.35,3.55,-0.35,3.56,-3.55,-3.56,-3.16,-3.91,-3.91,-3.91
245.48,-0.41,3.47,-0.43,3.46,-3.47,-3.43,-3.13,-3.88,-3.90,-3.89
247.93,-0.51,3.34,-0.50,3.36,-3.37,-3.30,-3.11,-3.89,-3.87,-3.86
250.41,-0.57,3.26,-0.58,3.26,-3.27,-3.16,-3.07,-3.84,-3.85,-3.84
252.92,-0.65,3.15,-0.66,3.15,-3.15,-3.02,-3.03,-3.81,-3.81,-3.81
255.45,-0.75,3.03,-0.74,3.05,-3.02,-2.87,-2.99,-3.78,-3.76,-3.79
258.00,-0.84,2.92,-0.85,2.92,-2.89,-2.72,-2.95,-3.73,-3.74,-3.77
260.58,-0.96,2.78,-0.98,2.76,-2.74,-2.56,-2.90,-3.70,-3.72,-3.75
263.19,-1.14,2.57,-1.13,2.59,-2.59,-2.40,-2.85,-3.73,-3.72,-3.72
265.82,-1.30,2.39,-1.29,2.41,-2.43,-2.24,-2.79,-3.73,-3.72,-3.70
268.48,-1.43,2.24,-1.44,2.23,-2.26,-2.08,-2.73,-3.69,-3.71,-3.68
271.16,-1.58,2.06,-1.58,2.07,-2.09,-1.92,-2.67,-3.67,-3.67,-3.65
273.87,-1.72,1.90,-1.72,1.91,-1.92,-1.76,-2.60,-3.64,-3.63,-3.63
276.61,-1.84,1.75,-1.85,1.75,-1.74,-1.59,-2.53,-3.59,-3.59,-3.60
279.38,-1.98,1.58,-1.98,1.59,-1.57,-1.43,-2.46,-3.55,-3.55,-3.57
282.17,-2.12,1.42,-2.13,1.42,-1.39,-1.28,-2.38,-3.51,-3.52,-3.55
284.99,-2.28,1.22,-2.29,1.23,-1.21,-1.12,-2.31,-3.49,-3.50,-3.51
287.84,-2.45,1.03,-2.46,1.03,-1.02,-0.97,-2.23,-3.48,-3.48,-3.49
290.72,-2.63,0.82,-2.62,0.84,-0.84,-0.82,-2.15,-3.47,-3.46,-3.46
293.63,-2.77,0.65,-2.77,0.66,-0.66,-0.67,-2.07,-3.43,-3.43,-3.43
296.57,-2.90,0.49,-2.93,0.47,-0.49,-0.53,-1.98,-3.40,-3.42,-3.40
299.53,-3.07,0.29,-3.07,0.30,-0.34,-0.39,-1.90,-3.41,-3.40,-3.37
302.53,-3.21,0.13,-3.18,0.16,-0.19,-0.26,-1.81,-3.40,-3.37,-3.35
305.55,-3.27,0.03,-3.27,0.04,-0.05,-0.13,-1.73,-3.32,-3.32,-3.31
308.61,-3.31,-0.03,-3.34,-0.06,0.08,-0.01,-1.64,-3.24,-3.26,-3.29
311.69,-3.41,-0.16,-3.42,-0.16,0.20,0.11,-1.55,-3.22,-3.22,-3.26
314.81,-3.53,-0.30,-3.52,-0.28,0.31,0.23,-1.47,-3.23,-3.21,-3.24
317.96,-3.62,-0.41,-3.63,-0.41,0.41,0.33,-1.38,-3.21,-3.22,-3.22
321.14,-3.73,-0.53,-3.73,-0.53,0.51,0.43,-1.29,-3.23,-3.22,-3.21
324.35,-3.82,-0.64,-3.81,-0.62,0.60,0.53,-1.21,-3.22,-3.21,-3.19
327.59,-3.87,-0.70,-3.88,-0.71,0.70,0.62,-1.12,-3.18,-3.19,-3.18
330.87,-3.93,-0.77,-3.94,-0.78,0.78,0.70,-1.03,-3.15,-3.16,-3.17
334.18,-4.01,-0.87,-4.00,-0.85,0.86,0.78,-0.94,-3.15,-3.14,-3.15
337.52,-4.04,-0.91,-4.06,-0.92,0.93,0.85,-0.86,-3.12,-3.13,-3.14
340.90,-4.11,-0.99,-4.11,-0.99,0.98,0.92,-0.77,-3.13,-3.13,-3.13
344.30,-4.16,-1.05,-4.17,-1.05,1.04,0.98,-0.68,-3.13,-3.13,-3.12
347.75,-4.22,-1.11,-4.21,-1.09,1.09,1.03,-0.60,-3.14,-3.12,-3.12
351.23,-4.24,-1.14,-4.24,-1.12,1.13,1.08,-0.51,-3.12,-3.11,-3.11
354.74,-4.24,-1.13,-4.26,-1.15,1.16,1.12,-0.43,-3.08,-3.10,-3.12
358.28,-4.28,-1.18,-4.29,-1.18,1.18,1.16,-0.34,-3.10,-3.10,-3.11
361.87,-4.32,-1.22,-4.31,-1.20,1.20,1.19,-0.26,-3.13,-3.11,-3.11
365.49,-4.32,-1.23,-4.33,-1.22,1.21,1.22,-0.17,-3.12,-3.12,-3.10
369.14,-4.32,-1.22,-4.32,-1.22,1.21,1.24,-0.09,-3.12,-3.12,-3.11
372.83,-4.31,-1.21,-4.31,-1.20,1.21,1.25,-0.00,-3.11,-3.11,-3.11
376.56,-4.30,-1.19,-4.30,-1.19,1.20,1.27,0.08,-3.10,-3.10,-3.12
380.33,-4.29,-1.19,-4.30,-1.19,1.19,1.27,0.16,-3.10,-3.10,-3.11
384.13,-4.29,-1.19,-4.29,-1.18,1.18,1.28,0.25,-3.11,-3.11,-3.11
387.97,-4.28,-1.17,-4.29,-1.17,1.17,1.28,0.33,-3.11,-3.11,-3.12
391.85,-4.28,-1.16,-4.28,-1.16,1.17,1.27,0.41,-3.11,-3.12,-3.13
395.77,-4.28,-1.17,-4.28,-1.16,1.16,1.26,0.49,-3.12,-3.12,-3.12
399.73,-4.28,-1.16,-4.28,-1.16,1.16,1.25,0.57,-3.12,-3.12,-3.13
403.72,-4.28,-1.16,-4.28,-1.15,1.15,1.24,0.65,-3.13,-3.13,-3.13
407.76,-4.28,-1.14,-4.29,-1.15,1.14,1.22,0.73,-3.15,-3.16,-3.15
411.84,-4.29,-1.15,-4.29,-1.14,1.12,1.21,0.81,-3.17,-3.17,-3.15
415.96,-4.29,-1.15,-4.27,-1.12,1.11,1.19,0.88,-3.19,-3.16,-3.15
420.12,-4.22,-1.08,-4.23,-1.09,1.09,1.16,0.96,-3.14,-3.15,-3.15
424.32,-4.18,-1.04,-4.20,-1.05,1.07,1.14,1.03,-3.11,-3.13,-3.15
428.56,-4.17,-1.04,-4.17,-1.03,1.05,1.11,1.10,-3.12,-3.12,-3.14
432.85,-4.16,-1.04,-4.16,-1.03,1.04,1.09,1.17,-3.13,-3.12,-3.13
437.18,-4.13,-1.02,-4.13,-1.02,1.02,1.06,1.23,-3.11,-3.11,-3.12
441.55,-4.09,-1.02,-4.10,-1.01,1.01,1.03,1.29,-3.08,-3.09,-3.08
445.96,-4.05,-1.01,-4.05,-1.00,1.00,1.00,1.35,-3.05,-3.05,-3.05
450.42,-4.00,-0.99,-4.00,-0.99,0.99,0.97,1.41,-3.02,-3.02,-3.02
454.93,-3.94,-0.98,-3.95,-0.98,0.97,0.94,1.46,-2.98,-2.98,-2.97
459.48,-3.88,-0.96,-3.89,-0.96,0.94,0.91,1.50,-2.94,-2.94,-2.93
464.07,-3.82,-0.95,-3.80,-0.93,0.92,0.88,1.55,-2.91,-2.88,-2.88
468.71,-3.70,-0.89,-3.71,-0.89,0.89,0.85,1.58,-2.82,-2.82,-2.82
473.40,-3.60,-0.83,-3.62,-0.85,0.85,0.82,1.62,-2.75,-2.77,-2.78
478.13,-3.54,-0.83,-3.54,-0.81,0.82,0.79,1.64,-2.72,-2.72,-2.72
482.91,-3.48,-0.81,-3.46,-0.79,0.79,0.75,1.67,-2.69,-2.67,-2.68
