frequency,raw,error,smoothed,error_smoothed,equalization,parametric_eq,fixed_band_eq,equalized_raw,equalized_smoothed,target
20.00,-4.11,-11.24,-4.10,-11.25,11.25,10.91,4.42,7.14,7.15,7.13
20.20,-4.06,-11.19,-4.05,-11.20,11.20,10.91,4.54,7.14,7.14,7.13
20.40,-4.02,-11.14,-4.01,-11.14,11.14,10.91,4.66,7.13,7.13,7.13
20.61,-3.97,-11.10,-3.97,-11.09,11.09,10.90,4.78,7.12,7.12,7.13
20.81,-3.93,-11.05,-3.93,-11.04,11.04,10.89,4.91,7.12,7.11,7.13
21.02,-3.89,-11.01,-3.89,-10.99,10.99,10.88,5.04,7.11,7.10,7.13
21.23,-3.84,-10.94,-3.86,-10.95,10.95,10.86,5.18,7.11,7.09,7.10
21.44,-3.81,-10.90,-3.82,-10.90,10.90,10.84,5.31,7.09,7.08,7.09
21.66,-3.78,-10.85,-3.79,-10.85,10.85,10.82,5.46,7.07,7.06,7.07
21.87,-3.75,-10.80,-3.76,-10.80,10.80,10.80,5.60,7.05,7.05,7.05
22.09,-3.72,-10.76,-3.72,-10.75,10.75,10.77,5.75,7.04,7.03,7.04
22.31,-3.70,-10.71,-3.70,-10.71,10.71,10.74,5.90,7.01,7.01,7.01
22.54,-3.68,-10.67,-3.67,-10.66,10.66,10.71,6.06,6.98,6.99,6.99
22.76,-3.65,-10.62,-3.64,-10.61,10.61,10.68,6.22,6.97,6.97,6.97
22.99,-3.63,-10.57,-3.62,-10.57,10.57,10.65,6.39,6.94,6.95,6.94
23.22,-3.61,-10.52,-3.60,-10.52,10.52,10.61,6.56,6.92,6.92,6.91
23.45,-3.58,-10.47,-3.58,-10.48,10.48,10.57,6.73,6.90,6.90,6.89
23.69,-3.55,-10.43,-3.56,-10.44,10.44,10.53,6.91,6.89,6.88,6.88
23.92,-3.53,-10.38,-3.54,-10.40,10.40,10.49,7.09,6.87,6.86,6.86
24.16,-3.51,-10.35,-3.52,-10.36,10.36,10.44,7.28,6.85,6.84,6.85
24.40,-3.50,-10.32,-3.50,-10.32,10.32,10.40,7.47,6.82,6.82,6.82
24.65,-3.48,-10.28,-3.48,-10.28,10.28,10.35,7.66,6.80,6.80,6.80
24.89,-3.46,-10.24,-3.45,-10.24,10.24,10.30,7.86,6.78,6.78,6.78
25.14,-3.44,-10.21,-3.43,-10.20,10.20,10.25,8.06,6.76,6.77,6.77
25.39,-3.42,-10.17,-3.40,-10.15,10.15,10.20,8.26,6.73,6.75,6.75
25.65,-3.39,-10.13,-3.37,-10.11,10.11,10.14,8.47,6.72,6.73,6.74
25.91,-3.36,-10.07,-3.34,-10.06,10.06,10.09,8.68,6.70,6.72,6.71
26.16,-3.32,-10.02,-3.31,-10.01,10.01,10.04,8.89,6.70,6.70,6.70
26.43,-3.28,-9.97,-3.28,-9.96,9.96,9.98,9.10,6.68,6.69,6.69
26.69,-3.24,-9.90,-3.24,-9.91,9.91,9.92,9.31,6.67,6.67,6.67
26.96,-3.20,-9.85,-3.20,-9.86,9.86,9.86,9.52,6.66,6.65,6.65
27.23,-3.15,-9.79,-3.17,-9.80,9.80,9.81,9.72,6.65,6.64,6.64
27.50,-3.12,-9.75,-3.13,-9.75,9.75,9.75,9.93,6.63,6.62,6.63
27.77,-3.08,-9.69,-3.09,-9.70,9.70,9.69,10.13,6.62,6.61,6.61
28.05,-3.04,-9.64,-3.05,-9.64,9.64,9.63,10.32,6.60,6.60,6.60
28.33,-3.01,-9.58,-3.00,-9.59,9.59,9.57,10.50,6.58,6.58,6.58
28.62,-2.96,-9.52,-2.96,-9.53,9.53,9.50,10.68,6.57,6.57,6.56
28.90,-2.93,-9.48,-2.92,-9.48,9.48,9.44,10.84,6.55,6.56,6.55
29.19,-2.90,-9.43,-2.88,-9.42,9.42,9.38,10.99,6.53,6.54,6.53
29.48,-2.85,-9.38,-2.84,-9.37,9.37,9.32,11.13,6.52,6.53,6.53
29.78,-2.80,-9.32,-2.80,-9.31,9.31,9.25,11.24,6.52,6.51,6.52
30.08,-2.76,-9.26,-2.76,-9.26,9.26,9.19,11.34,6.50,6.50,6.51
30.38,-2.72,-9.20,-2.72,-9.20,9.20,9.13,11.42,6.48,6.48,6.48
30.68,-2.67,-9.14,-2.68,-9.14,9.14,9.06,11.48,6.47,6.47,6.47
30.99,-2.62,-9.07,-2.63,-9.08,9.08,9.00,11.51,6.46,6.45,6.45
31.30,-2.59,-9.03,-2.59,-9.02,9.02,8.94,11.53,6.43,6.43,6.44
31.61,-2.54,-8.96,-2.54,-8.96,8.96,8.87,11.52,6.42,6.42,6.42
31.93,-2.50,-8.90,-2.50,-8.89,8.89,8.81,11.48,6.39,6.40,6.40
32.24,-2.46,-8.83,-2.45,-8.83,8.83,8.74,11.43,6.37,6.38,6.37
32.57,-2.41,-8.76,-2.40,-8.76,8.76,8.68,11.35,6.35,6.36,6.36
32.89,-2.36,-8.70,-2.36,-8.69,8.69,8.61,11.26,6.33,6.34,6.34
33.22,-2.31,-8.62,-2.31,-8.62,8.62,8.55,11.15,6.31,6.32,6.31
33.55,-2.26,-8.55,-2.26,-8.55,8.55,8.48,11.02,6.29,6.29,6.30
33.89,-2.21,-8.48,-2.21,-8.48,8.48,8.42,10.88,6.27,6.27,6.27
34.23,-2.16,-8.41,-2.16,-8.41,8.41,8.35,10.72,6.25,6.25,6.25
34.57,-2.10,-8.32,-2.11,-8.34,8.34,8.29,10.56,6.24,6.23,6.23
34.92,-2.05,-8.25,-2.05,-8.26,8.26,8.22,10.39,6.21,6.21,6.20
35.27,-2.00,-8.19,-2.00,-8.19,8.19,8.16,10.21,6.19,6.19,6.19
35.62,-1.95,-8.11,-1.95,-8.11,8.11,8.09,10.03,6.16,6.17,6.17
35.97,-1.90,-8.04,-1.89,-8.04,8.04,8.03,9.84,6.14,6.14,6.14
36.33,-1.84,-7.96,-1.84,-7.96,7.96,7.96,9.65,6.12,6.12,6.13
36.70,-1.79,-7.89,-1.78,-7.88,7.88,7.90,9.46,6.09,6.10,6.10
37.06,-1.73,-7.81,-1.72,-7.80,7.80,7.83,9.27,6.07,6.08,6.08
37.43,-1.67,-7.73,-1.67,-7.72,7.72,7.76,9.09,6.06,6.06,6.06
37.81,-1.61,-7.65,-1.61,-7.64,7.64,7.70,8.90,6.03,6.04,6.04
38.19,-1.55,-7.56,-1.55,-7.56,7.56,7.63,8.71,6.02,6.01,6.01
38.57,-1.49,-7.49,-1.49,-7.48,7.48,7.57,8.53,6.00,5.99,6.00
38.95,-1.43,-7.40,-1.43,-7.41,7.41,7.50,8.35,5.98,5.97,5.97
39.34,-1.37,-7.31,-1.38,-7.33,7.33,7.43,8.18,5.96,5.95,5.95
39.74,-1.32,-7.24,-1.32,-7.25,7.25,7.37,8.01,5.93,5.93,5.92
40.14,-1.26,-7.17,-1.26,-7.17,7.17,7.30,7.84,5.91,5.91,5.91
40.54,-1.21,-7.10,-1.20,-7.10,7.10,7.23,7.68,5.89,5.89,5.89
40.94,-1.15,-7.02,-1.15,-7.02,7.02,7.17,7.52,5.87,5.87,5.87
41.35,-1.10,-6.94,-1.10,-6.95,6.95,7.10,7.36,5.85,5.85,5.84
41.76,-1.04,-6.87,-1.04,-6.87,6.87,7.03,7.22,5.84,5.83,5.84
42.18,-0.99,-6.81,-0.99,-6.80,6.80,6.96,7.07,5.81,5.81,5.82
42.60,-0.94,-6.73,-0.94,-6.73,6.73,6.90,6.93,5.79,5.79,5.79
43.03,-0.89,-6.67,-0.89,-6.66,6.66,6.83,6.80,5.77,5.77,5.78
43.46,-0.84,-6.59,-0.84,-6.59,6.59,6.76,6.67,5.75,5.75,5.75
43.90,-0.79,-6.52,-0.79,-6.52,6.52,6.69,6.54,5.73,5.73,5.73
44.33,-0.74,-6.44,-0.74,-6.45,6.45,6.62,6.42,5.71,5.71,5.71
44.78,-0.70,-6.39,-0.69,-6.38,6.38,6.55,6.31,5.68,5.69,5.69
45.23,-0.65,-6.31,-0.64,-6.31,6.31,6.48,6.19,5.66,5.67,5.66
45.68,-0.60,-6.24,-0.60,-6.24,6.24,6.41,6.09,5.65,5.65,5.64
46.13,-0.55,-6.17,-0.55,-6.18,6.18,6.34,5.98,5.63,5.63,5.62
46.60,-0.50,-6.11,-0.50,-6.11,6.11,6.27,5.89,5.61,5.60,5.61
47.06,-0.46,-6.04,-0.46,-6.03,6.03,6.20,5.79,5.58,5.58,5.59
47.53,-0.41,-5.97,-0.41,-5.96,5.96,6.13,5.70,5.56,5.56,5.56
48.01,-0.36,-5.91,-0.36,-5.89,5.89,6.05,5.61,5.53,5.53,5.55
48.49,-0.31,-5.83,-0.31,-5.82,5.82,5.98,5.53,5.51,5.51,5.52
48.97,-0.27,-5.75,-0.26,-5.75,5.75,5.91,5.45,5.48,5.49,5.49
49.46,-0.22,-5.67,-0.22,-5.68,5.68,5.84,5.38,5.46,5.46,5.45
49.96,-0.17,-5.59,-0.17,-5.60,5.60,5.76,5.30,5.44,5.44,5.42
50.46,-0.12,-5.53,-0.12,-5.53,5.53,5.69,5.23,5.41,5.41,5.41
50.96,-0.07,-5.46,-0.07,-5.45,5.45,5.61,5.17,5.39,5.39,5.39
51.47,-0.02,-5.37,-0.02,-5.38,5.38,5.54,5.10,5.36,5.36,5.35
51.99,0.03,-5.30,0.03,-5.30,5.30,5.46,5.04,5.33,5.33,5.33
52.51,0.08,-5.23,0.08,-5.23,5.23,5.39,4.98,5.31,5.31,5.31
53.03,0.13,-5.15,0.13,-5.15,5.15,5.31,4.92,5.28,5.28,5.28
53.56,0.18,-5.08,0.18,-5.07,5.07,5.23,4.87,5.25,5.25,5.26
54.10,0.23,-5.00,0.23,-4.99,4.99,5.16,4.81,5.23,5.23,5.23
54.64,0.28,-4.92,0.28,-4.92,4.92,5.08,4.76,5.20,5.20,5.20
55.18,0.33,-4.84,0.33,-4.84,4.84,5.00,4.70,5.17,5.17,5.17
55.74,0.38,-4.76,0.38,-4.76,4.76,4.92,4.65,5.14,5.15,5.14
56.29,0.43,-4.69,0.43,-4.69,4.69,4.84,4.60,5.12,5.12,5.12
56.86,0.48,-4.61,0.48,-4.61,4.61,4.77,4.54,5.09,5.09,5.09
57.42,0.53,-4.52,0.53,-4.53,4.53,4.69,4.49,5.06,5.06,5.06
58.00,0.58,-4.45,0.58,-4.45,4.45,4.61,4.44,5.03,5.03,5.03
58.58,0.63,-4.37,0.63,-4.37,4.37,4.53,4.38,5.00,5.00,5.00
59.16,0.68,-4.29,0.68,-4.29,4.29,4.45,4.33,4.97,4.97,4.97
59.76,0.72,-4.23,0.73,-4.21,4.21,4.36,4.27,4.94,4.94,4.95
60.35,0.77,-4.14,0.77,-4.14,4.14,4.28,4.21,4.91,4.91,4.91
60.96,0.81,-4.09,0.82,-4.06,4.06,4.20,4.15,4.87,4.88,4.90
61.57,0.87,-3.98,0.87,-3.98,3.98,4.12,4.08,4.85,4.85,4.85
62.18,0.91,-3.90,0.91,-3.91,3.91,4.04,4.02,4.82,4.82,4.81
62.80,0.96,-3.82,0.96,-3.83,3.83,3.96,3.95,4.79,4.79,4.78
63.43,1.00,-3.74,1.00,-3.76,3.76,3.87,3.88,4.76,4.75,4.74
64.07,1.04,-3.67,1.04,-3.68,3.68,3.79,3.81,4.72,4.72,4.71
64.71,1.08,-3.61,1.08,-3.61,3.61,3.71,3.74,4.69,4.69,4.69
65.35,1.12,-3.53,1.12,-3.54,3.54,3.63,3.66,4.66,4.66,4.66
66.01,1.16,-3.47,1.16,-3.47,3.47,3.54,3.58,4.63,4.63,4.63
66.67,1.20,-3.40,1.20,-3.40,3.40,3.46,3.50,4.60,4.60,4.60
67.33,1.24,-3.33,1.24,-3.33,3.33,3.38,3.42,4.57,4.57,4.57
68.01,1.27,-3.26,1.28,-3.26,3.26,3.29,3.33,4.53,4.54,4.54
68.69,1.31,-3.20,1.31,-3.19,3.19,3.21,3.25,4.51,4.51,4.51
69.37,1.34,-3.13,1.35,-3.13,3.13,3.13,3.16,4.47,4.47,4.47
70.07,1.38,-3.06,1.38,-3.06,3.06,3.04,3.07,4.44,4.44,4.44
70.77,1.41,-3.00,1.41,-2.99,2.99,2.96,2.98,4.40,4.41,4.41
71.48,1.45,-2.92,1.45,-2.92,2.92,2.88,2.89,4.37,4.37,4.37
72.19,1.47,-2.87,1.48,-2.85,2.85,2.79,2.80,4.32,4.33,4.34
72.91,1.51,-2.78,1.51,-2.78,2.78,2.71,2.71,4.30,4.29,4.29
73.64,1.54,-2.71,1.54,-2.71,2.71,2.63,2.61,4.26,4.25,4.25
74.38,1.56,-2.65,1.57,-2.64,2.64,2.55,2.52,4.21,4.21,4.21
75.12,1.60,-2.56,1.60,-2.57,2.57,2.46,2.42,4.17,4.17,4.16
75.87,1.62,-2.50,1.62,-2.50,2.50,2.38,2.33,4.12,4.12,4.12
76.63,1.65,-2.43,1.65,-2.43,2.43,2.30,2.24,4.08,4.08,4.08
77.40,1.67,-2.36,1.68,-2.36,2.36,2.22,2.14,4.03,4.03,4.03
78.17,1.70,-2.27,1.70,-2.28,2.28,2.13,2.05,3.98,3.99,3.97
78.95,1.73,-2.21,1.73,-2.21,2.21,2.05,1.96,3.94,3.94,3.94
79.74,1.75,-2.14,1.75,-2.13,2.13,1.97,1.86,3.89,3.89,3.89
80.54,1.77,-2.07,1.78,-2.06,2.06,1.89,1.77,3.83,3.84,3.84
81.35,1.80,-1.98,1.80,-1.99,1.99,1.81,1.68,3.79,3.78,3.78
82.16,1.82,-1.91,1.82,-1.91,1.91,1.73,1.59,3.73,3.73,3.73
82.98,1.85,-1.83,1.85,-1.83,1.83,1.65,1.50,3.68,3.68,3.68
83.81,1.87,-1.75,1.87,-1.76,1.76,1.57,1.41,3.63,3.62,3.62
84.65,1.88,-1.68,1.89,-1.68,1.68,1.49,1.32,3.56,3.57,3.56
85.50,1.91,-1.60,1.91,-1.60,1.60,1.41,1.23,3.51,3.51,3.51
86.35,1.93,-1.52,1.93,-1.52,1.52,1.34,1.14,3.46,3.45,3.45
87.22,1.94,-1.45,1.95,-1.45,1.45,1.26,1.05,3.39,3.40,3.39
88.09,1.97,-1.36,1.97,-1.37,1.37,1.18,0.96,3.34,3.34,3.33
88.97,1.99,-1.29,1.99,-1.29,1.29,1.10,0.88,3.28,3.28,3.28
89.86,2.01,-1.21,2.01,-1.21,1.21,1.03,0.79,3.22,3.22,3.22
90.76,2.02,-1.13,2.03,-1.13,1.13,0.95,0.70,3.15,3.16,3.15
91.66,2.04,-1.05,2.04,-1.05,1.05,0.88,0.62,3.09,3.10,3.09
92.58,2.06,-0.96,2.06,-0.97,0.97,0.80,0.53,3.03,3.03,3.02
93.51,2.08,-0.90,2.08,-0.89,0.89,0.73,0.45,2.97,2.97,2.98
94.44,2.10,-0.81,2.10,-0.80,0.80,0.66,0.36,2.91,2.90,2.91
95.39,2.12,-0.73,2.12,-0.72,0.72,0.58,0.28,2.84,2.84,2.85
96.34,2.13,-0.64,2.14,-0.64,0.64,0.51,0.20,2.77,2.77,2.77
97.30,2.15,-0.55,2.15,-0.55,0.55,0.44,0.11,2.70,2.70,2.70
98.28,2.17,-0.47,2.17,-0.46,0.46,0.37,0.03,2.64,2.64,2.64
99.26,2.19,-0.37,2.19,-0.38,0.38,0.30,-0.05,2.57,2.57,2.56
100.25,2.20,-0.29,2.21,-0.29,0.29,0.23,-0.13,2.49,2.50,2.49
101.25,2.22,-0.21,2.22,-0.20,0.20,0.16,-0.21,2.42,2.43,2.43
102.27,2.24,-0.11,2.24,-0.11,0.11,0.09,-0.29,2.35,2.35,2.35
103.29,2.26,-0.01,2.26,-0.02,0.02,0.02,-0.37,2.28,2.28,2.27
104.32,2.27,0.07,2.27,0.07,-0.07,-0.04,-0.44,2.20,2.21,2.20
105.37,2.29,0.15,2.29,0.16,-0.16,-0.11,-0.52,2.13,2.13,2.14
106.42,2.30,0.24,2.30,0.25,-0.25,-0.17,-0.60,2.05,2.06,2.06
107.48,2.31,0.33,2.32,0.34,-0.34,-0.24,-0.67,1.97,1.98,1.98
108.56,2.33,0.43,2.33,0.43,-0.43,-0.30,-0.74,1.90,1.90,1.90
109.64,2.34,0.52,2.34,0.52,-0.52,-0.37,-0.81,1.82,1.83,1.83
110.74,2.36,0.60,2.36,0.61,-0.61,-0.43,-0.88,1.75,1.75,1.76
111.85,2.37,0.69,2.37,0.70,-0.70,-0.49,-0.95,1.68,1.67,1.68
112.97,2.37,0.79,2.38,0.78,-0.78,-0.55,-1.01,1.59,1.59,1.58
114.10,2.38,0.86,2.39,0.87,-0.87,-0.61,-1.07,1.51,1.52,1.52
115.24,2.40,0.96,2.39,0.95,-0.95,-0.67,-1.14,1.45,1.44,1.44
116.39,2.40,1.05,2.40,1.03,-1.03,-0.73,-1.19,1.37,1.36,1.36
117.55,2.40,1.12,2.40,1.12,-1.12,-0.79,-1.25,1.29,1.29,1.28
118.73,2.41,1.21,2.41,1.19,-1.19,-0.85,-1.30,1.22,1.21,1.21
119.92,2.41,1.27,2.41,1.27,-1.27,-0.90,-1.35,1.14,1.14,1.14
121.12,2.41,1.34,2.41,1.35,-1.35,-0.96,-1.40,1.07,1.07,1.07
122.33,2.41,1.42,2.41,1.42,-1.42,-1.01,-1.44,0.99,0.99,0.99
123.55,2.41,1.48,2.41,1.49,-1.49,-1.07,-1.48,0.92,0.92,0.93
124.79,2.41,1.55,2.41,1.56,-1.56,-1.12,-1.52,0.85,0.85,0.86
126.03,2.41,1.61,2.41,1.62,-1.62,-1.17,-1.55,0.79,0.79,0.80
127.29,2.40,1.67,2.41,1.69,-1.69,-1.23,-1.58,0.72,0.72,0.73
128.57,2.40,1.75,2.40,1.75,-1.75,-1.28,-1.61,0.66,0.65,0.65
129.85,2.40,1.81,2.40,1.80,-1.80,-1.33,-1.64,0.60,0.59,0.59
131.15,2.39,1.86,2.39,1.86,-1.86,-1.38,-1.66,0.53,0.53,0.53
132.46,2.38,1.92,2.38,1.91,-1.91,-1.43,-1.68,0.47,0.47,0.46
133.79,2.37,1.96,2.37,1.96,-1.96,-1.47,-1.70,0.41,0.41,0.42
135.12,2.36,2.01,2.36,2.00,-2.00,-1.52,-1.71,0.36,0.36,0.35
136.48,2.34,2.04,2.35,2.04,-2.04,-1.57,-1.73,0.30,0.31,0.30
137.84,2.33,2.07,2.33,2.08,-2.08,-1.61,-1.74,0.25,0.25,0.26
139.22,2.32,2.12,2.32,2.11,-2.11,-1.66,-1.75,0.21,0.21,0.20
140.61,2.30,2.16,2.30,2.14,-2.14,-1.70,-1.76,0.16,0.16,0.15
142.02,2.29,2.17,2.29,2.17,-2.17,-1.74,-1.76,0.12,0.12,0.12
143.44,2.26,2.18,2.27,2.19,-2.19,-1.79,-1.77,0.07,0.08,0.08
144.87,2.25,2.22,2.25,2.21,-2.21,-1.83,-1.77,0.04,0.04,0.03
146.32,2.23,2.24,2.23,2.23,-2.23,-1.87,-1.78,-0.00,-0.00,-0.00
147.78,2.21,2.24,2.21,2.25,-2.25,-1.91,-1.78,-0.04,-0.04,-0.03
149.26,2.19,2.26,2.19,2.27,-2.27,-1.95,-1.79,-0.07,-0.08,-0.07
150.75,2.16,2.27,2.17,2.28,-2.28,-1.99,-1.79,-0.12,-0.11,-0.11
152.26,2.14,2.29,2.15,2.29,-2.29,-2.02,-1.80,-0.15,-0.15,-0.15
153.78,2.12,2.30,2.12,2.30,-2.30,-2.06,-1.81,-0.18,-0.18,-0.18
155.32,2.10,2.31,2.10,2.31,-2.31,-2.10,-1.81,-0.21,-0.22,-0.21
156.88,2.07,2.32,2.07,2.32,-2.32,-2.13,-1.82,-0.25,-0.25,-0.24
158.44,2.04,2.33,2.04,2.33,-2.33,-2.17,-1.83,-0.28,-0.29,-0.29
160.03,2.01,2.34,2.01,2.33,-2.33,-2.20,-1.84,-0.32,-0.32,-0.32
161.63,1.98,2.34,1.98,2.33,-2.33,-2.24,-1.85,-0.35,-0.35,-0.36
163.24,1.95,2.34,1.95,2.34,-2.34,-2.27,-1.86,-0.39,-0.39,-0.39
164.88,1.92,2.34,1.92,2.34,-2.34,-2.30,-1.87,-0.42,-0.42,-0.42
166.53,1.89,2.34,1.89,2.35,-2.35,-2.33,-1.88,-0.45,-0.46,-0.45
168.19,1.85,2.35,1.85,2.35,-2.35,-2.36,-1.90,-0.50,-0.49,-0.50
169.87,1.81,2.34,1.82,2.35,-2.35,-2.39,-1.92,-0.54,-0.53,-0.53
171.57,1.78,2.35,1.78,2.35,-2.35,-2.42,-1.93,-0.57,-0.57,-0.56
173.29,1.74,2.34,1.75,2.35,-2.35,-2.45,-1.95,-0.61,-0.61,-0.60
175.02,1.71,2.35,1.71,2.36,-2.36,-2.47,-1.98,-0.65,-0.65,-0.64
176.77,1.67,2.36,1.67,2.36,-2.36,-2.50,-2.00,-0.69,-0.69,-0.69
178.54,1.63,2.36,1.63,2.36,-2.36,-2.52,-2.02,-0.73,-0.73,-0.73
180.32,1.60,2.37,1.59,2.36,-2.36,-2.55,-2.05,-0.76,-0.77,-0.77
182.13,1.55,2.36,1.55,2.36,-2.36,-2.57,-2.08,-0.81,-0.81,-0.80
183.95,1.51,2.36,1.51,2.36,-2.36,-2.60,-2.11,-0.85,-0.85,-0.85
185.79,1.48,2.37,1.47,2.36,-2.36,-2.62,-2.14,-0.88,-0.89,-0.89
187.65,1.44,2.37,1.43,2.36,-2.36,-2.64,-2.18,-0.92,-0.92,-0.93
189.52,1.39,2.36,1.39,2.35,-2.35,-2.66,-2.21,-0.96,-0.96,-0.97
191.42,1.36,2.36,1.35,2.35,-2.35,-2.68,-2.25,-0.99,-1.00,-1.00
193.33,1.31,2.34,1.31,2.35,-2.35,-2.70,-2.28,-1.03,-1.03,-1.02
195.27,1.27,2.33,1.27,2.34,-2.34,-2.72,-2.32,-1.07,-1.06,-1.06
197.22,1.23,2.32,1.24,2.33,-2.33,-2.74,-2.36,-1.10,-1.10,-1.09
199.19,1.20,2.34,1.20,2.32,-2.32,-2.76,-2.41,-1.12,-1.13,-1.14
201.18,1.16,2.32,1.16,2.32,-2.32,-2.77,-2.45,-1.15,-1.15,-1.16
203.19,1.12,2.30,1.13,2.31,-2.31,-2.79,-2.49,-1.19,-1.18,-1.18
205.23,1.09,2.30,1.09,2.30,-2.30,-2.81,-2.53,-1.21,-1.21,-1.21
207.28,1.06,2.28,1.06,2.29,-2.29,-2.82,-2.58,-1.23,-1.23,-1.22
209.35,1.03,2.29,1.03,2.29,-2.29,-2.83,-2.62,-1.26,-1.25,-1.25
211.44,1.01,2.29,1.01,2.28,-2.28,-2.85,-2.67,-1.27,-1.28,-1.28
213.56,0.98,2.28,0.98,2.28,-2.28,-2.86,-2.71,-1.29,-1.29,-1.30
215.69,0.96,2.27,0.96,2.27,-2.27,-2.87,-2.75,-1.31,-1.31,-1.30
217.85,0.93,2.25,0.94,2.27,-2.27,-2.88,-2.79,-1.34,-1.33,-1.32
220.03,0.92,2.27,0.92,2.26,-2.26,-2.90,-2.84,-1.34,-1.34,-1.34
222.23,0.91,2.27,0.91,2.26,-2.26,-2.91,-2.87,-1.35,-1.35,-1.36
224.45,0.90,2.25,0.90,2.26,-2.26,-2.91,-2.91,-1.35,-1.36,-1.35
226.70,0.89,2.26,0.89,2.25,-2.25,-2.92,-2.95,-1.36,-1.36,-1.37
228.96,0.89,2.26,0.89,2.25,-2.25,-2.93,-2.98,-1.36,-1.36,-1.37
231.25,0.88,2.24,0.89,2.25,-2.25,-2.94,-3.01,-1.37,-1.37,-1.36
233.57,0.88,2.24,0.89,2.25,-2.25,-2.95,-3.04,-1.37,-1.36,-1.35
235.90,0.89,2.25,0.89,2.25,-2.25,-2.95,-3.07,-1.36,-1.36,-1.36
238.26,0.90,2.26,0.90,2.25,-2.25,-2.96,-3.09,-1.35,-1.35,-1.36
240.64,0.91,2.25,0.91,2.25,-2.25,-2.96,-3.11,-1.34,-1.34,-1.34
243.05,0.93,2.26,0.93,2.25,-2.25,-2.97,-3.12,-1.32,-1.33,-1.33
245.48,0.94,2.25,0.94,2.26,-2.26,-2.97,-3.13,-1.32,-1.31,-1.31
247.93,0.96,2.26,0.96,2.26,-2.26,-2.97,-3.14,-1.30,-1.30,-1.30
250.41,0.99,2.28,0.99,2.27,-2.27,-2.98,-3.14,-1.28,-1.28,-1.29
252.92,1.02,2.28,1.02,2.28,-2.28,-2.98,-3.14,-1.26,-1.26,-1.26
255.45,1.05,2.29,1.05,2.29,-2.29,-2.98,-3.13,-1.24,-1.24,-1.24
258.00,1.08,2.30,1.09,2.31,-2.31,-2.98,-3.12,-1.23,-1.22,-1.22
260.58,1.13,2.33,1.13,2.33,-2.33,-2.98,-3.11,-1.20,-1.20,-1.20
263.19,1.16,2.34,1.17,2.35,-2.35,-2.98,-3.09,-1.19,-1.18,-1.18
265.82,1.21,2.37,1.22,2.37,-2.37,-2.98,-3.07,-1.16,-1.16,-1.16
268.48,1.26,2.40,1.27,2.40,-2.40,-2.98,-3.05,-1.14,-1.13,-1.14
271.16,1.32,2.42,1.33,2.44,-2.44,-2.98,-3.02,-1.12,-1.11,-1.10
273.87,1.37,2.46,1.39,2.48,-2.48,-2.97,-2.99,-1.10,-1.09,-1.09
276.61,1.44,2.50,1.45,2.51,-2.51,-2.97,-2.96,-1.07,-1.07,-1.06
279.38,1.51,2.55,1.51,2.55,-2.55,-2.97,-2.92,-1.04,-1.04,-1.04
282.17,1.58,2.60,1.58,2.60,-2.60,-2.96,-2.88,-1.02,-1.02,-1.02
284.99,1.65,2.65,1.65,2.64,-2.64,-2.96,-2.85,-0.99,-0.99,-0.99
287.84,1.72,2.69,1.72,2.69,-2.69,-2.96,-2.81,-0.97,-0.97,-0.97
290.72,1.80,2.74,1.79,2.73,-2.73,-2.95,-2.76,-0.93,-0.94,-0.94
293.63,1.87,2.79,1.87,2.78,-2.78,-2.95,-2.72,-0.91,-0.91,-0.92
296.57,1.94,2.83,1.94,2.82,-2.82,-2.94,-2.68,-0.88,-0.88,-0.89
299.53,2.01,2.87,2.01,2.86,-2.86,-2.94,-2.64,-0.85,-0.85,-0.86
302.53,2.08,2.92,2.08,2.90,-2.90,-2.93,-2.60,-0.82,-0.82,-0.84
305.55,2.14,2.93,2.15,2.94,-2.94,-2.93,-2.55,-0.80,-0.79,-0.79
308.61,2.22,2.99,2.21,2.97,-2.97,-2.92,-2.51,-0.75,-0.76,-0.76
311.69,2.28,3.01,2.27,3.01,-3.01,-2.92,-2.47,-0.72,-0.73,-0.73
314.81,2.34,3.03,2.33,3.04,-3.04,-2.91,-2.43,-0.69,-0.70,-0.69
317.96,2.39,3.06,2.39,3.06,-3.06,-2.91,-2.39,-0.67,-0.67,-0.67
321.14,2.45,3.09,2.45,3.09,-3.09,-2.90,-2.35,-0.63,-0.64,-0.64
324.35,2.50,3.11,2.50,3.11,-3.11,-2.90,-2.32,-0.61,-0.61,-0.61
327.59,2.55,3.13,2.55,3.13,-3.13,-2.90,-2.28,-0.58,-0.58,-0.58
330.87,2.59,3.14,2.59,3.15,-3.15,-2.90,-2.25,-0.56,-0.56,-0.55
334.18,2.64,3.17,2.64,3.17,-3.17,-2.90,-2.21,-0.53,-0.53,-0.53
337.52,2.68,3.19,2.68,3.19,-3.19,-2.90,-2.18,-0.50,-0.51,-0.51
340.90,2.72,3.20,2.72,3.21,-3.21,-2.90,-2.15,-0.48,-0.48,-0.48
344.30,2.76,3.22,2.76,3.22,-3.22,-2.91,-2.12,-0.46,-0.46,-0.46
347.75,2.79,3.23,2.80,3.24,-3.24,-2.92,-2.10,-0.45,-0.44,-0.43
351.23,2.83,3.25,2.84,3.26,-3.26,-2.94,-2.07,-0.43,-0.42,-0.42
354.74,2.86,3.26,2.88,3.28,-3.28,-2.96,-2.05,-0.42,-0.40,-0.40
358.28,2.91,3.29,2.92,3.30,-3.30,-2.99,-2.03,-0.39,-0.38,-0.38
361.87,2.95,3.32,2.95,3.31,-3.31,-3.02,-2.01,-0.36,-0.36,-0.36
365.49,2.99,3.33,2.99,3.33,-3.33,-3.06,-1.99,-0.34,-0.34,-0.34
369.14,3.02,3.35,3.02,3.34,-3.34,-3.11,-1.97,-0.32,-0.32,-0.33
372.83,3.05,3.36,3.05,3.35,-3.35,-3.17,-1.96,-0.30,-0.31,-0.31
376.56,3.08,3.37,3.07,3.36,-3.36,-3.24,-1.94,-0.28,-0.29,-0.29
380.33,3.10,3.37,3.09,3.36,-3.36,-3.31,-1.93,-0.26,-0.27,-0.26
384.13,3.12,3.37,3.11,3.36,-3.36,-3.39,-1.92,-0.24,-0.25,-0.25
387.97,3.13,3.36,3.13,3.36,-3.36,-3.46,-1.91,-0.23,-0.23,-0.23
391.85,3.14,3.35,3.14,3.35,-3.35,-3.52,-1.90,-0.21,-0.21,-0.21
395.77,3.14,3.32,3.15,3.34,-3.34,-3.55,-1.90,-0.20,-0.19,-0.18
399.73,3.15,3.31,3.16,3.32,-3.32,-3.54,-1.89,-0.17,-0.17,-0.16
403.72,3.15,3.30,3.16,3.30,-3.30,-3.49,-1.89,-0.15,-0.14,-0.14
407.76,3.14,3.27,3.15,3.28,-3.28,-3.41,-1.88,-0.14,-0.12,-0.13
411.84,3.13,3.23,3.14,3.25,-3.25,-3.30,-1.88,-0.11,-0.10,-0.10
415.96,3.13,3.21,3.13,3.21,-3.21,-3.17,-1.88,-0.08,-0.08,-0.08
420.12,3.11,3.17,3.11,3.17,-3.17,-3.04,-1.87,-0.06,-0.06,-0.06
424.32,3.09,3.12,3.09,3.13,-3.13,-2.90,-1.87,-0.03,-0.04,-0.03
428.56,3.06,3.07,3.06,3.07,-3.07,-2.78,-1.87,-0.01,-0.01,-0.01
432.85,3.02,3.02,3.02,3.01,-3.01,-2.66,-1.87,0.01,0.01,0.01
437.18,2.98,2.95,2.97,2.94,-2.94,-2.55,-1.86,0.04,0.04,0.03
441.55,2.93,2.87,2.92,2.86,-2.86,-2.45,-1.86,0.07,0.06,0.06
445.96,2.86,2.78,2.85,2.76,-2.76,-2.36,-1.86,0.10,0.09,0.08
450.42,2.79,2.69,2.77,2.66,-2.66,-2.27,-1.85,0.13,0.11,0.10
454.93,2.70,2.56,2.69,2.55,-2.55,-2.19,-1.85,0.15,0.14,0.14
459.48,2.62,2.46,2.59,2.42,-2.42,-2.12,-1.84,0.20,0.16,0.16
464.07,2.50,2.31,2.48,2.29,-2.29,-2.05,-1.83,0.21,0.19,0.19
468.71,2.39,2.16,2.37,2.15,-2.15,-1.98,-1.82,0.24,0.22,0.23
473.40,2.26,2.01,2.25,2.00,-2.00,-1.92,-1.81,0.26,0.25,0.25
478.13,2.13,1.85,2.12,1.84,-1.84,-1.86,-1.80,0.29,0.28,0.28
482.91,1.99,1.69,1.99,1.69,-1.69,-1.80,-1.78,0.30,0.31,0.31
487.74,1.86,1.53,1.86,1.53,-1.53,-1.74,-1.76,0.33,0.33,0.34
492.62,1.73,1.37,1.73,1.37,-1.37,-1.69,-1.74,0.36,0.36,0.36
497.55,1.60,1.22,1.61,1.22,-1.22,-1.63,-1.72,0.38,0.39,0.38
502.52,1.47,1.05,1.49,1.08,-1.08,-1.58,-1.69,0.40,0.42,0.42
