frequency,raw,error,smoothed,error_smoothed,equalization,parametric_eq,fixed_band_eq,equalized_raw,equalized_smoothed,target
20.00,-51.60,-41.49,-51.60,-41.51,41.51,0.00,18.43,-10.09,-10.09,-10.12
20.20,-51.42,-41.40,-51.43,-41.41,41.41,0.00,18.66,-10.01,-10.02,-10.03
20.40,-51.24,-41.30,-51.25,-41.30,41.30,0.00,18.90,-9.94,-9.94,-9.95
20.61,-51.07,-41.19,-51.07,-41.20,41.20,0.00,19.14,-9.87,-9.87,-9.88
20.81,-50.88,-41.10,-50.88,-41.08,41.08,0.00,19.38,-9.80,-9.80,-9.79
21.02,-50.70,-41.00,-50.70,-40.97,40.97,0.00,19.63,-9.74,-9.73,-9.71
21.23,-50.52,-40.88,-50.52,-40.85,40.85,0.00,19.89,-9.68,-9.67,-9.65
21.44,-50.33,-40.75,-50.33,-40.72,40.72,0.00,20.15,-9.61,-9.61,-9.59
21.66,-50.15,-40.61,-50.15,-40.60,40.60,0.00,20.42,-9.55,-9.55,-9.54
21.87,-49.96,-40.47,-49.96,-40.47,40.47,0.00,20.69,-9.49,-9.49,-9.49
22.09,-49.77,-40.34,-49.77,-40.33,40.33,0.00,20.98,-9.44,-9.44,-9.44
22.31,-49.58,-40.19,-49.58,-40.19,40.19,0.00,21.27,-9.39,-9.39,-9.39
22.54,-49.40,-40.05,-49.40,-40.05,40.05,0.00,21.57,-9.35,-9.35,-9.35
22.76,-49.20,-39.90,-49.20,-39.90,39.90,0.00,21.87,-9.30,-9.30,-9.31
22.99,-49.02,-39.74,-49.01,-39.75,39.75,0.00,22.19,-9.27,-9.26,-9.28
23.22,-48.82,-39.58,-48.82,-39.59,39.59,0.00,22.51,-9.22,-9.23,-9.24
23.45,-48.62,-39.43,-48.63,-39.44,39.44,0.00,22.85,-9.19,-9.19,-9.20
23.69,-48.44,-39.28,-48.43,-39.28,39.28,0.00,23.19,-9.16,-9.15,-9.16
23.92,-48.23,-39.12,-48.24,-39.12,39.12,0.00,23.55,-9.11,-9.12,-9.12
24.16,-48.04,-38.98,-48.04,-38.96,38.96,0.00,23.92,-9.09,-9.08,-9.07
24.40,-47.84,-38.80,-47.84,-38.79,38.79,0.00,24.30,-9.05,-9.05,-9.04
24.65,-47.65,-38.63,-47.64,-38.63,38.63,0.00,24.70,-9.02,-9.01,-9.02
24.89,-47.44,-38.45,-47.44,-38.46,38.46,0.00,25.11,-8.98,-8.98,-8.99
25.14,-47.24,-38.29,-47.24,-38.30,38.30,0.00,25.54,-8.94,-8.95,-8.95
25.39,-47.04,-38.12,-47.04,-38.13,38.13,0.00,25.99,-8.91,-8.91,-8.92
25.65,-46.85,-37.97,-46.84,-37.96,37.96,0.00,26.45,-8.88,-8.88,-8.88
25.91,-46.64,-37.78,-46.64,-37.79,37.79,0.00,26.94,-8.85,-8.85,-8.86
26.16,-46.43,-37.60,-46.44,-37.62,37.62,0.00,27.45,-8.81,-8.82,-8.83
26.43,-46.24,-37.45,-46.24,-37.44,37.44,0.00,27.98,-8.79,-8.79,-8.79
26.69,-46.03,-37.28,-46.03,-37.27,37.27,0.00,28.55,-8.77,-8.76,-8.76
26.96,-45.83,-37.10,-45.82,-37.09,37.09,0.00,29.14,-8.73,-8.73,-8.73
27.23,-45.63,-36.93,-45.62,-36.92,36.92,0.00,29.77,-8.71,-8.70,-8.70
27.50,-45.42,-36.75,-45.41,-36.74,36.74,0.00,30.43,-8.67,-8.67,-8.67
27.77,-45.20,-36.55,-45.21,-36.57,36.57,0.00,31.14,-8.64,-8.64,-8.65
28.05,-44.99,-36.39,-45.00,-36.39,36.39,0.00,31.90,-8.61,-8.61,-8.61
28.33,-44.78,-36.20,-44.79,-36.21,36.21,0.00,32.71,-8.58,-8.58,-8.59
28.62,-44.58,-36.02,-44.58,-36.03,36.03,0.00,33.58,-8.55,-8.55,-8.56
28.90,-44.35,-35.84,-44.36,-35.84,35.84,0.00,34.52,-8.51,-8.52,-8.52
29.19,-44.14,-35.65,-44.15,-35.66,35.66,0.00,35.53,-8.49,-8.49,-8.50
29.48,-43.93,-35.49,-43.93,-35.47,35.47,0.00,36.62,-8.47,-8.46,-8.45
29.78,-43.73,-35.29,-43.71,-35.28,35.28,0.00,37.78,-8.45,-8.44,-8.44
30.08,-43.51,-35.10,-43.49,-35.09,35.09,0.00,38.98,-8.42,-8.41,-8.41
30.38,-43.29,-34.91,-43.27,-34.89,34.89,0.00,40.16,-8.40,-8.38,-8.38
30.68,-43.05,-34.71,-43.05,-34.70,34.70,0.00,41.20,-8.36,-8.35,-8.35
30.99,-42.83,-34.50,-42.83,-34.50,34.50,0.00,41.88,-8.33,-8.33,-8.33
31.30,-42.60,-34.29,-42.60,-34.30,34.30,0.00,42.02,-8.30,-8.30,-8.31
31.61,-42.38,-34.10,-42.38,-34.10,34.10,0.00,41.60,-8.27,-8.28,-8.28
31.93,-42.15,-33.89,-42.15,-33.90,33.90,0.00,40.77,-8.25,-8.25,-8.26
32.24,-41.92,-33.68,-41.93,-33.70,33.70,0.00,39.75,-8.22,-8.23,-8.24
32.57,-41.71,-33.50,-41.70,-33.49,33.49,0.00,38.69,-8.21,-8.21,-8.21
32.89,-41.47,-33.29,-41.48,-33.29,33.29,0.00,37.66,-8.18,-8.19,-8.19
33.22,-41.25,-33.09,-41.26,-33.09,33.09,0.00,36.70,-8.17,-8.17,-8.17
33.55,-41.04,-32.89,-41.04,-32.88,32.88,0.00,35.82,-8.16,-8.15,-8.15
33.89,-40.83,-32.69,-40.82,-32.68,32.68,0.00,35.01,-8.14,-8.14,-8.14
34.23,-40.61,-32.49,-40.60,-32.48,32.48,0.00,34.27,-8.13,-8.12,-8.12
34.57,-40.38,-32.28,-40.39,-32.28,32.28,0.00,33.59,-8.11,-8.11,-8.11
34.92,-40.17,-32.07,-40.17,-32.08,32.08,0.00,32.97,-8.09,-8.10,-8.10
35.27,-39.96,-31.88,-39.96,-31.87,31.87,0.00,32.41,-8.08,-8.09,-8.08
35.62,-39.75,-31.66,-39.75,-31.67,31.67,0.00,31.88,-8.07,-8.08,-8.09
35.97,-39.54,-31.46,-39.54,-31.47,31.47,0.00,31.40,-8.07,-8.07,-8.08
36.33,-39.33,-31.27,-39.33,-31.27,31.27,0.00,30.95,-8.07,-8.07,-8.06
36.70,-39.14,-31.07,-39.13,-31.06,31.06,0.00,30.54,-8.07,-8.07,-8.07
37.06,-38.93,-30.86,-38.93,-30.86,30.86,0.00,30.15,-8.07,-8.07,-8.07
37.43,-38.73,-30.66,-38.73,-30.66,30.66,0.00,29.80,-8.07,-8.07,-8.07
37.81,-38.54,-30.47,-38.53,-30.47,30.47,0.00,29.47,-8.07,-8.07,-8.07
38.19,-38.34,-30.27,-38.34,-30.27,30.27,0.00,29.16,-8.07,-8.07,-8.07
38.57,-38.15,-30.08,-38.14,-30.07,30.07,0.00,28.88,-8.07,-8.07,-8.07
38.95,-37.94,-29.87,-37.96,-29.88,29.88,0.00,28.61,-8.06,-8.08,-8.07
39.34,-37.76,-29.67,-37.77,-29.69,29.69,0.00,28.37,-8.07,-8.08,-8.09
39.74,-37.59,-29.50,-37.58,-29.50,29.50,0.00,28.14,-8.09,-8.08,-8.09
40.14,-37.41,-29.31,-37.40,-29.31,29.31,0.00,27.93,-8.09,-8.09,-8.10
40.54,-37.23,-29.13,-37.22,-29.13,29.13,0.00,27.73,-8.10,-8.10,-8.10
40.94,-37.04,-28.94,-37.05,-28.94,28.94,0.00,27.55,-8.10,-8.10,-8.11
41.35,-36.86,-28.76,-36.87,-28.76,28.76,0.00,27.39,-8.10,-8.11,-8.11
41.76,-36.70,-28.58,-36.70,-28.58,28.58,0.00,27.24,-8.12,-8.12,-8.12
42.18,-36.53,-28.41,-36.53,-28.40,28.40,0.00,27.10,-8.13,-8.13,-8.13
42.60,-36.37,-28.24,-36.37,-28.23,28.23,0.00,26.98,-8.14,-8.14,-8.14
43.03,-36.21,-28.08,-36.21,-28.06,28.06,0.00,26.87,-8.16,-8.15,-8.14
43.46,-36.04,-27.90,-36.04,-27.88,27.88,0.00,26.77,-8.16,-8.16,-8.15
43.90,-35.89,-27.72,-35.89,-27.72,27.72,0.00,26.68,-8.17,-8.17,-8.17
44.33,-35.72,-27.54,-35.73,-27.55,27.55,0.00,26.60,-8.17,-8.18,-8.19
44.78,-35.58,-27.38,-35.58,-27.39,27.39,0.00,26.54,-8.19,-8.19,-8.20
45.23,-35.42,-27.21,-35.43,-27.23,27.23,0.00,26.49,-8.19,-8.20,-8.21
45.68,-35.28,-27.06,-35.28,-27.07,27.07,0.00,26.44,-8.21,-8.21,-8.22
46.13,-35.12,-26.90,-35.13,-26.91,26.91,0.00,26.41,-8.21,-8.22,-8.23
46.60,-34.98,-26.75,-34.99,-26.75,26.75,0.00,26.39,-8.22,-8.23,-8.23
47.06,-34.83,-26.60,-34.84,-26.60,26.60,0.00,26.38,-8.23,-8.24,-8.24
47.53,-34.69,-26.45,-34.70,-26.45,26.45,0.00,26.38,-8.25,-8.25,-8.25
48.01,-34.56,-26.31,-34.55,-26.29,26.29,0.00,26.39,-8.26,-8.26,-8.25
48.49,-34.42,-26.16,-34.41,-26.14,26.14,0.00,26.40,-8.27,-8.27,-8.26
48.97,-34.27,-26.01,-34.26,-25.99,25.99,0.00,26.43,-8.28,-8.27,-8.27
49.46,-34.12,-25.84,-34.11,-25.84,25.84,0.00,26.47,-8.29,-8.27,-8.29
49.96,-33.97,-25.67,-33.96,-25.68,25.68,0.00,26.52,-8.28,-8.28,-8.30
50.46,-33.81,-25.52,-33.81,-25.52,25.52,0.00,26.57,-8.28,-8.28,-8.29
50.96,-33.64,-25.36,-33.65,-25.36,25.36,0.00,26.63,-8.28,-8.29,-8.29
51.47,-33.48,-25.19,-33.49,-25.20,25.20,0.00,26.70,-8.29,-8.29,-8.30
51.99,-33.33,-25.03,-33.32,-25.03,25.03,0.00,26.78,-8.30,-8.30,-8.30
52.51,-33.16,-24.86,-33.16,-24.86,24.86,0.00,26.87,-8.30,-8.30,-8.30
53.03,-32.98,-24.69,-32.98,-24.68,24.68,0.00,26.96,-8.31,-8.30,-8.30
53.56,-32.80,-24.51,-32.80,-24.49,24.49,0.00,27.05,-8.31,-8.31,-8.30
54.10,-32.64,-24.33,-32.62,-24.31,24.31,0.00,27.15,-8.33,-8.32,-8.31
54.64,-32.45,-24.13,-32.44,-24.12,24.12,0.00,27.26,-8.33,-8.32,-8.32
55.18,-32.26,-23.94,-32.25,-23.92,23.92,0.00,27.36,-8.34,-8.33,-8.33
55.74,-32.07,-23.72,-32.06,-23.72,23.72,0.00,27.46,-8.34,-8.34,-8.35
56.29,-31.87,-23.53,-31.87,-23.52,23.52,0.00,27.56,-8.36,-8.35,-8.35
56.86,-31.68,-23.31,-31.67,-23.31,23.31,0.00,27.65,-8.37,-8.36,-8.37
57.42,-31.47,-23.09,-31.47,-23.09,23.09,0.00,27.73,-8.38,-8.38,-8.39
58.00,-31.28,-22.88,-31.27,-22.87,22.87,0.00,27.81,-8.40,-8.40,-8.40
58.58,-31.07,-22.65,-31.07,-22.65,22.65,0.00,27.87,-8.41,-8.42,-8.42
59.16,-30.86,-22.44,-30.87,-22.43,22.43,0.00,27.91,-8.43,-8.44,-8.43
59.76,-30.68,-22.23,-30.67,-22.21,22.21,0.00,27.93,-8.47,-8.46,-8.45
60.35,-30.47,-22.00,-30.47,-21.99,21.99,0.00,27.92,-8.49,-8.49,-8.48
60.96,-30.28,-21.79,-30.28,-21.77,21.77,0.00,27.89,-8.51,-8.51,-8.49
61.57,-30.09,-21.55,-30.09,-21.55,21.55,0.00,27.83,-8.53,-8.53,-8.54
62.18,-29.89,-21.33,-29.90,-21.34,21.34,0.00,27.74,-8.55,-8.56,-8.57
62.80,-29.71,-21.14,-29.71,-21.13,21.13,0.00,27.61,-8.58,-8.58,-8.58
63.43,-29.52,-20.91,-29.53,-20.93,20.93,0.00,27.46,-8.59,-8.60,-8.62
64.07,-29.34,-20.70,-29.36,-20.74,20.74,0.00,27.27,-8.60,-8.62,-8.64
64.71,-29.18,-20.53,-29.19,-20.55,20.55,0.00,27.05,-8.63,-8.64,-8.65
65.35,-29.00,-20.34,-29.02,-20.36,20.36,0.00,26.80,-8.64,-8.66,-8.67
66.01,-28.86,-20.18,-28.86,-20.18,20.18,0.00,26.53,-8.67,-8.67,-8.68
66.67,-28.71,-20.02,-28.70,-20.01,20.01,0.00,26.24,-8.69,-8.69,-8.69
67.33,-28.54,-19.85,-28.55,-19.85,19.85,0.00,25.93,-8.69,-8.70,-8.70
68.01,-28.40,-19.69,-28.40,-19.69,19.69,0.00,25.60,-8.70,-8.71,-8.71
68.69,-28.26,-19.54,-28.25,-19.54,19.54,0.00,25.26,-8.72,-8.71,-8.72
69.37,-28.11,-19.40,-28.11,-19.38,19.38,0.00,24.92,-8.73,-8.72,-8.72
70.07,-27.96,-19.24,-27.97,-19.24,19.24,0.00,24.56,-8.73,-8.73,-8.73
70.77,-27.82,-19.10,-27.83,-19.09,19.09,0.00,24.20,-8.74,-8.74,-8.73
71.48,-27.68,-18.94,-27.69,-18.94,18.94,0.00,23.84,-8.74,-8.75,-8.74
72.19,-27.54,-18.79,-27.55,-18.79,18.79,0.00,23.48,-8.76,-8.76,-8.76
72.91,-27.41,-18.66,-27.41,-18.64,18.64,0.00,23.12,-8.78,-8.77,-8.76
73.64,-27.27,-18.50,-27.27,-18.49,18.49,0.00,22.76,-8.79,-8.78,-8.78
74.38,-27.13,-18.35,-27.13,-18.33,18.33,0.00,22.40,-8.80,-8.79,-8.79
75.12,-26.99,-18.19,-26.99,-18.18,18.18,0.00,22.05,-8.81,-8.81,-8.81
75.87,-26.84,-18.03,-26.84,-18.03,18.03,0.00,21.70,-8.82,-8.82,-8.82
76.63,-26.70,-17.88,-26.70,-17.87,17.87,0.00,21.36,-8.83,-8.83,-8.83
77.40,-26.55,-17.71,-26.56,-17.71,17.71,0.00,21.03,-8.84,-8.84,-8.85
78.17,-26.41,-17.55,-26.41,-17.56,17.56,0.00,20.70,-8.86,-8.86,-8.87
78.95,-26.26,-17.40,-26.26,-17.40,17.40,0.00,20.38,-8.87,-8.87,-8.87
79.74,-26.12,-17.25,-26.11,-17.24,17.24,0.00,20.06,-8.89,-8.88,-8.88
80.54,-25.97,-17.09,-25.96,-17.08,17.08,0.00,19.75,-8.89,-8.88,-8.89
81.35,-25.82,-16.92,-25.81,-16.92,16.92,0.00,19.45,-8.89,-8.89,-8.90
82.16,-25.66,-16.76,-25.66,-16.77,16.77,0.00,19.16,-8.90,-8.89,-8.91
82.98,-25.51,-16.62,-25.51,-16.61,16.61,0.00,18.87,-8.90,-8.90,-8.90
83.81,-25.35,-16.45,-25.36,-16.45,16.45,0.00,18.59,-8.90,-8.90,-8.91
84.65,-25.20,-16.29,-25.21,-16.30,16.30,0.00,18.31,-8.90,-8.91,-8.92
85.50,-25.06,-16.15,-25.06,-16.15,16.15,0.00,18.04,-8.91,-8.91,-8.91
86.35,-24.90,-16.00,-24.91,-15.99,15.99,0.00,17.78,-8.91,-8.91,-8.91
87.22,-24.76,-15.84,-24.76,-15.84,15.84,0.00,17.53,-8.91,-8.92,-8.92
88.09,-24.62,-15.70,-24.62,-15.69,15.69,0.00,17.28,-8.92,-8.92,-8.92
88.97,-24.47,-15.55,-24.48,-15.54,15.54,0.00,17.04,-8.93,-8.93,-8.93
89.86,-24.32,-15.39,-24.34,-15.39,15.39,0.00,16.80,-8.93,-8.95,-8.94
90.76,-24.20,-15.24,-24.21,-15.25,15.25,0.00,16.57,-8.95,-8.96,-8.96
91.66,-24.06,-15.09,-24.08,-15.10,15.10,0.00,16.35,-8.97,-8.98,-8.98
92.58,-23.94,-14.94,-23.95,-14.94,14.94,0.00,16.13,-9.00,-9.01,-9.01
93.51,-23.83,-14.80,-23.83,-14.79,14.79,0.00,15.92,-9.04,-9.04,-9.03
94.44,-23.70,-14.65,-23.70,-14.63,14.63,0.00,15.71,-9.07,-9.07,-9.06
95.39,-23.59,-14.49,-23.59,-14.48,14.48,0.00,15.51,-9.11,-9.11,-9.10
96.34,-23.47,-14.34,-23.47,-14.32,14.32,0.00,15.31,-9.15,-9.15,-9.14
97.30,-23.36,-14.17,-23.36,-14.17,14.17,0.00,15.12,-9.20,-9.20,-9.20
98.28,-23.26,-14.01,-23.25,-14.01,14.01,0.00,14.93,-9.25,-9.25,-9.25
99.26,-23.14,-13.85,-23.14,-13.84,13.84,0.00,14.75,-9.30,-9.30,-9.30
100.25,-23.01,-13.66,-23.03,-13.67,13.67,0.00,14.57,-9.34,-9.36,-9.36
101.25,-22.87,-13.46,-22.91,-13.50,13.50,0.00,14.40,-9.37,-9.41,-9.42
102.27,-22.76,-13.28,-22.79,-13.32,13.32,0.00,14.23,-9.43,-9.47,-9.48
103.29,-22.69,-13.16,-22.67,-13.14,13.14,0.00,14.06,-9.56,-9.53,-9.54
104.32,-22.59,-13.01,-22.53,-12.94,12.94,0.00,13.90,-9.65,-9.59,-9.59
105.37,-22.45,-12.79,-22.39,-12.74,12.74,0.00,13.74,-9.70,-9.65,-9.66
106.42,-22.29,-12.58,-22.25,-12.54,12.54,0.00,13.58,-9.75,-9.71,-9.72
107.48,-22.13,-12.37,-22.11,-12.34,12.34,0.00,13.43,-9.80,-9.77,-9.77
108.56,-21.97,-12.15,-21.96,-12.13,12.13,0.00,13.27,-9.84,-9.83,-9.83
109.64,-21.80,-11.92,-21.80,-11.92,11.92,0.00,13.12,-9.88,-9.88,-9.89
110.74,-21.63,-11.70,-21.65,-11.71,11.71,0.00,12.98,-9.93,-9.94,-9.94
111.85,-21.46,-11.49,-21.49,-11.50,11.50,0.00,12.83,-9.96,-9.99,-9.98
112.97,-21.30,-11.25,-21.33,-11.29,11.29,0.00,12.68,-10.00,-10.04,-10.05
114.10,-21.12,-11.03,-21.17,-11.08,11.08,0.00,12.54,-10.03,-10.09,-10.09
115.24,-20.96,-10.82,-21.00,-10.87,10.87,0.00,12.39,-10.08,-10.13,-10.14
116.39,-20.86,-10.68,-20.85,-10.67,10.67,0.00,12.25,-10.20,-10.18,-10.19
117.55,-20.73,-10.51,-20.69,-10.47,10.47,0.00,12.11,-10.26,-10.22,-10.23
118.73,-20.56,-10.30,-20.53,-10.28,10.28,0.00,11.96,-10.29,-10.26,-10.27
119.92,-20.39,-10.09,-20.38,-10.09,10.09,0.00,11.82,-10.30,-10.29,-10.30
121.12,-20.21,-9.88,-20.23,-9.90,9.90,0.00,11.67,-10.30,-10.33,-10.33
122.33,-20.10,-9.75,-20.08,-9.72,9.72,0.00,11.53,-10.38,-10.36,-10.36
123.55,-19.96,-9.58,-19.93,-9.54,9.54,0.00,11.38,-10.43,-10.39,-10.39
124.79,-19.78,-9.36,-19.78,-9.36,9.36,0.00,11.23,-10.41,-10.42,-10.42
126.03,-19.59,-9.16,-19.63,-9.19,9.19,0.00,11.08,-10.41,-10.45,-10.44
127.29,-19.50,-9.04,-19.49,-9.02,9.02,0.00,10.93,-10.49,-10.48,-10.47
128.57,-19.37,-8.86,-19.35,-8.84,8.84,0.00,10.78,-10.52,-10.50,-10.51
129.85,-19.19,-8.67,-19.21,-8.67,8.67,0.00,10.63,-10.52,-10.53,-10.53
131.15,-19.03,-8.48,-19.07,-8.51,8.51,0.00,10.48,-10.53,-10.56,-10.56
132.46,-18.94,-8.35,-18.94,-8.35,8.35,0.00,10.32,-10.59,-10.59,-10.60
133.79,-18.81,-8.20,-18.82,-8.19,8.19,0.00,10.17,-10.62,-10.62,-10.62
135.12,-18.65,-8.01,-18.69,-8.04,8.04,0.00,10.01,-10.61,-10.65,-10.65
136.48,-18.57,-7.90,-18.57,-7.89,7.89,0.00,9.85,-10.68,-10.68,-10.68
137.84,-18.46,-7.76,-18.46,-7.75,7.75,0.00,9.70,-10.72,-10.72,-10.71
139.22,-18.37,-7.62,-18.35,-7.61,7.61,0.00,9.54,-10.77,-10.75,-10.76
140.61,-18.26,-7.48,-18.25,-7.47,7.47,0.00,9.38,-10.80,-10.78,-10.79
142.02,-18.12,-7.32,-18.14,-7.33,7.33,0.00,9.23,-10.79,-10.81,-10.81
143.44,-18.05,-7.21,-18.05,-7.20,7.20,0.00,9.07,-10.86,-10.85,-10.85
144.87,-17.93,-7.05,-17.95,-7.07,7.07,0.00,8.91,-10.87,-10.88,-10.89
146.32,-17.86,-6.94,-17.86,-6.94,6.94,0.00,8.76,-10.93,-10.92,-10.93
147.78,-17.76,-6.81,-17.76,-6.81,6.81,0.00,8.60,-10.96,-10.96,-10.96
149.26,-17.68,-6.70,-17.67,-6.68,6.68,0.00,8.45,-11.01,-11.00,-10.99
150.75,-17.58,-6.55,-17.59,-6.55,6.55,0.00,8.29,-11.04,-11.04,-11.04
152.26,-17.51,-6.44,-17.50,-6.42,6.42,0.00,8.14,-11.10,-11.08,-11.08
153.78,-17.41,-6.31,-17.41,-6.29,6.29,0.00,7.99,-11.12,-11.12,-11.11
155.32,-17.33,-6.18,-17.32,-6.16,6.16,0.00,7.84,-11.17,-11.16,-11.16
156.88,-17.23,-6.05,-17.24,-6.04,6.04,0.00,7.69,-11.19,-11.20,-11.19
158.44,-17.16,-5.92,-17.16,-5.92,5.92,0.00,7.55,-11.25,-11.24,-11.25
160.03,-17.06,-5.78,-17.08,-5.79,5.79,0.00,7.40,-11.27,-11.29,-11.29
161.63,-17.00,-5.67,-17.01,-5.68,5.68,0.00,7.26,-11.33,-11.33,-11.34
163.24,-16.94,-5.57,-16.93,-5.56,5.56,0.00,7.12,-11.39,-11.37,-11.38
164.88,-16.85,-5.44,-16.86,-5.44,5.44,0.00,6.98,-11.41,-11.42,-11.42
166.53,-16.78,-5.33,-16.79,-5.33,5.33,0.00,6.85,-11.45,-11.46,-11.46
168.19,-16.72,-5.23,-16.73,-5.23,5.23,0.00,6.71,-11.49,-11.50,-11.50
169.87,-16.65,-5.12,-16.67,-5.13,5.13,0.00,6.58,-11.52,-11.54,-11.54
171.57,-16.60,-5.04,-16.61,-5.04,5.04,0.00,6.45,-11.57,-11.57,-11.57
173.29,-16.55,-4.95,-16.56,-4.95,4.95,0.00,6.32,-11.61,-11.61,-11.61
175.02,-16.49,-4.85,-16.50,-4.86,4.86,0.00,6.19,-11.63,-11.64,-11.65
176.77,-16.45,-4.78,-16.45,-4.78,4.78,0.00,6.07,-11.67,-11.67,-11.68
178.54,-16.40,-4.70,-16.41,-4.71,4.71,0.00,5.94,-11.70,-11.70,-11.71
180.32,-16.36,-4.63,-16.36,-4.63,4.63,0.00,5.82,-11.73,-11.73,-11.74
182.13,-16.32,-4.57,-16.31,-4.56,4.56,0.00,5.70,-11.76,-11.75,-11.76
183.95,-16.27,-4.50,-16.27,-4.49,4.49,0.00,5.58,-11.78,-11.78,-11.78
185.79,-16.23,-4.44,-16.22,-4.43,4.43,0.00,5.47,-11.81,-11.80,-11.80
187.65,-16.18,-4.37,-16.18,-4.36,4.36,0.00,5.35,-11.82,-11.82,-11.82
189.52,-16.13,-4.31,-16.13,-4.30,4.30,0.00,5.24,-11.83,-11.83,-11.83
191.42,-16.09,-4.25,-16.09,-4.24,4.24,0.00,5.13,-11.85,-11.85,-11.85
193.33,-16.05,-4.20,-16.05,-4.18,4.18,0.00,5.02,-11.87,-11.86,-11.86
195.27,-16.00,-4.14,-16.00,-4.13,4.13,0.00,4.92,-11.88,-11.88,-11.87
197.22,-15.95,-4.07,-15.96,-4.07,4.07,0.00,4.81,-11.88,-11.89,-11.89
199.19,-15.90,-4.00,-15.92,-4.02,4.02,0.00,4.71,-11.89,-11.90,-11.91
201.18,-15.86,-3.95,-15.88,-3.97,3.97,0.00,4.60,-11.90,-11.91,-11.92
203.19,-15.82,-3.91,-15.84,-3.91,3.91,0.00,4.50,-11.91,-11.92,-11.92
205.23,-15.79,-3.86,-15.80,-3.86,3.86,0.00,4.40,-11.93,-11.94,-11.94
207.28,-15.77,-3.84,-15.76,-3.82,3.82,0.00,4.31,-11.96,-11.95,-11.94
209.35,-15.74,-3.79,-15.73,-3.77,3.77,0.00,4.21,-11.98,-11.96,-11.96
211.44,-15.70,-3.73,-15.69,-3.72,3.72,0.00,4.12,-11.98,-11.97,-11.98
213.56,-15.66,-3.68,-15.66,-3.67,3.67,0.00,4.02,-11.99,-11.98,-11.99
215.69,-15.62,-3.64,-15.62,-3.63,3.63,0.00,3.93,-12.00,-11.99,-11.99
217.85,-15.57,-3.57,-15.59,-3.58,3.58,0.00,3.84,-11.99,-12.01,-12.01
220.03,-15.56,-3.55,-15.56,-3.54,3.54,0.00,3.75,-12.02,-12.02,-12.02
222.23,-15.53,-3.50,-15.53,-3.50,3.50,0.00,3.67,-12.04,-12.03,-12.04
224.45,-15.50,-3.47,-15.50,-3.46,3.46,0.00,3.58,-12.05,-12.04,-12.04
226.70,-15.46,-3.41,-15.47,-3.42,3.42,0.00,3.49,-12.05,-12.06,-12.06
228.96,-15.43,-3.37,-15.45,-3.38,3.38,0.00,3.41,-12.06,-12.07,-12.07
231.25,-15.41,-3.34,-15.43,-3.34,3.34,0.00,3.33,-12.07,-12.09,-12.08
233.57,-15.39,-3.30,-15.41,-3.31,3.31,0.00,3.25,-12.09,-12.10,-12.10
235.90,-15.37,-3.27,-15.39,-3.28,3.28,0.00,3.17,-12.10,-12.12,-12.11
238.26,-15.37,-3.25,-15.38,-3.25,3.25,0.00,3.09,-12.12,-12.13,-12.13
240.64,-15.36,-3.22,-15.36,-3.22,3.22,0.00,3.01,-12.14,-12.14,-12.15
243.05,-15.35,-3.20,-15.35,-3.19,3.19,0.00,2.93,-12.16,-12.15,-12.16
245.48,-15.34,-3.18,-15.33,-3.17,3.17,0.00,2.86,-12.18,-12.16,-12.17
247.93,-15.33,-3.16,-15.31,-3.14,3.14,0.00,2.78,-12.19,-12.17,-12.18
250.41,-15.31,-3.13,-15.29,-3.12,3.12,0.00,2.71,-12.20,-12.17,-12.19
252.92,-15.28,-3.11,-15.27,-3.09,3.09,0.00,2.64,-12.19,-12.17,-12.18
255.45,-15.26,-3.09,-15.24,-3.07,3.07,0.00,2.57,-12.20,-12.17,-12.18
258.00,-15.22,-3.06,-15.21,-3.05,3.05,0.00,2.50,-12.18,-12.17,-12.17
260.58,-15.19,-3.03,-15.19,-3.03,3.03,0.00,2.43,-12.17,-12.16,-12.17
263.19,-15.16,-3.01,-15.16,-3.01,3.01,0.00,2.36,-12.16,-12.15,-12.16
265.82,-15.11,-2.97,-15.14,-3.00,3.00,0.00,2.29,-12.12,-12.14,-12.15
268.48,-15.09,-2.97,-15.12,-2.99,2.99,0.00,2.23,-12.11,-12.13,-12.13
271.16,-15.07,-2.97,-15.10,-2.98,2.98,0.00,2.16,-12.09,-12.11,-12.11
273.87,-15.04,-2.95,-15.08,-2.98,2.98,0.00,2.10,-12.06,-12.10,-12.10
276.61,-15.03,-2.97,-15.07,-2.98,2.98,0.00,2.04,-12.05,-12.08,-12.07
279.38,-15.03,-2.97,-15.06,-2.99,2.99,0.00,1.97,-12.05,-12.07,-12.07
282.17,-15.03,-2.99,-15.05,-2.99,2.99,0.00,1.91,-12.04,-12.05,-12.05
284.99,-15.04,-3.01,-15.04,-3.00,3.00,0.00,1.85,-12.04,-12.04,-12.04
287.84,-15.05,-3.04,-15.03,-3.01,3.01,0.00,1.79,-12.04,-12.02,-12.02
290.72,-15.05,-3.06,-15.02,-3.02,3.02,0.00,1.73,-12.04,-12.00,-12.00
293.63,-15.04,-3.06,-15.01,-3.03,3.03,0.00,1.67,-12.02,-11.98,-11.99
296.57,-15.02,-3.07,-15.00,-3.03,3.03,0.00,1.61,-11.99,-11.96,-11.96
299.53,-14.99,-3.05,-14.98,-3.04,3.04,0.00,1.55,-11.96,-11.94,-11.95
302.53,-14.96,-3.03,-14.96,-3.04,3.04,0.00,1.50,-11.92,-11.92,-11.94
305.55,-14.93,-3.03,-14.94,-3.04,3.04,0.00,1.44,-11.90,-11.90,-11.91
308.61,-14.90,-3.02,-14.92,-3.03,3.03,0.00,1.38,-11.87,-11.88,-11.89
311.69,-14.86,-3.01,-14.89,-3.03,3.03,0.00,1.33,-11.84,-11.86,-11.86
314.81,-14.85,-3.04,-14.86,-3.02,3.02,0.00,1.27,-11.83,-11.84,-11.82
317.96,-14.82,-3.02,-14.83,-3.01,3.01,0.00,1.22,-11.81,-11.81,-11.81
321.14,-14.80,-3.02,-14.80,-3.01,3.01,0.00,1.16,-11.80,-11.79,-11.79
324.35,-14.77,-3.01,-14.77,-3.00,3.00,0.00,1.11,-11.77,-11.77,-11.77
327.59,-14.73,-2.99,-14.74,-3.00,3.00,0.00,1.06,-11.74,-11.75,-11.75
330.87,-14.70,-2.98,-14.72,-3.00,3.00,0.00,1.00,-11.71,-11.72,-11.73
334.18,-14.67,-2.98,-14.69,-2.99,2.99,0.00,0.95,-11.68,-11.70,-11.70
337.52,-14.64,-2.97,-14.66,-2.99,2.99,0.00,0.90,-11.65,-11.67,-11.68
340.90,-14.63,-2.98,-14.63,-2.98,2.98,0.00,0.85,-11.65,-11.65,-11.66
344.30,-14.60,-2.98,-14.60,-2.97,2.97,0.00,0.80,-11.63,-11.63,-11.63
