frequency,raw,error,smoothed,error_smoothed,equalization,parametric_eq,fixed_band_eq,equalized_raw,equalized_smoothed,target
20.00,8.68,-0.67,8.68,-0.68,0.68,0.42,-0.36,9.36,9.36,9.35
20.20,8.72,-0.62,8.73,-0.62,0.62,0.39,-0.37,9.34,9.34,9.34
20.40,8.78,-0.56,8.77,-0.56,0.56,0.35,-0.38,9.33,9.33,9.33
20.61,8.81,-0.51,8.82,-0.50,0.50,0.32,-0.39,9.31,9.32,9.32
20.81,8.87,-0.44,8.86,-0.44,0.44,0.28,-0.40,9.31,9.31,9.30
21.02,8.90,-0.39,8.91,-0.39,0.39,0.25,-0.40,9.29,9.30,9.29
21.23,8.95,-0.33,8.95,-0.33,0.33,0.21,-0.41,9.29,9.29,9.28
21.44,9.00,-0.29,9.00,-0.28,0.28,0.18,-0.42,9.28,9.28,9.29
21.66,9.03,-0.23,9.04,-0.23,0.23,0.15,-0.43,9.26,9.27,9.27
21.87,9.09,-0.18,9.08,-0.18,0.18,0.11,-0.44,9.26,9.26,9.27
22.09,9.13,-0.12,9.13,-0.12,0.12,0.08,-0.45,9.25,9.25,9.25
22.31,9.17,-0.08,9.17,-0.08,0.08,0.05,-0.47,9.24,9.24,9.24
22.54,9.20,-0.03,9.21,-0.03,0.03,0.02,-0.48,9.23,9.24,9.23
22.76,9.25,0.02,9.25,0.02,-0.02,-0.02,-0.49,9.23,9.23,9.23
22.99,9.29,0.07,9.29,0.07,-0.07,-0.05,-0.50,9.23,9.22,9.22
23.22,9.33,0.12,9.33,0.11,-0.11,-0.08,-0.51,9.22,9.22,9.21
23.45,9.37,0.16,9.37,0.16,-0.16,-0.11,-0.52,9.21,9.21,9.22
23.69,9.41,0.21,9.41,0.21,-0.21,-0.14,-0.54,9.21,9.21,9.21
23.92,9.46,0.26,9.45,0.25,-0.25,-0.17,-0.55,9.21,9.20,9.20
24.16,9.50,0.29,9.49,0.29,-0.29,-0.20,-0.56,9.20,9.20,9.20
24.40,9.54,0.33,9.53,0.33,-0.33,-0.23,-0.57,9.20,9.20,9.20
24.65,9.56,0.36,9.57,0.37,-0.37,-0.26,-0.59,9.19,9.20,9.20
24.89,9.61,0.41,9.61,0.41,-0.41,-0.29,-0.60,9.19,9.19,9.20
25.14,9.65,0.46,9.64,0.45,-0.45,-0.32,-0.61,9.19,9.19,9.19
25.39,9.69,0.50,9.68,0.49,-0.49,-0.35,-0.63,9.19,9.19,9.19
25.65,9.71,0.53,9.72,0.53,-0.53,-0.37,-0.64,9.19,9.19,9.18
25.91,9.75,0.57,9.75,0.57,-0.57,-0.40,-0.66,9.19,9.19,9.18
26.16,9.79,0.59,9.79,0.60,-0.60,-0.43,-0.67,9.18,9.19,9.19
26.43,9.82,0.64,9.82,0.64,-0.64,-0.46,-0.68,9.19,9.19,9.19
26.69,9.85,0.67,9.86,0.67,-0.67,-0.49,-0.70,9.18,9.19,9.19
26.96,9.88,0.70,9.89,0.70,-0.70,-0.51,-0.71,9.18,9.19,9.18
27.23,9.92,0.74,9.92,0.74,-0.74,-0.54,-0.73,9.19,9.19,9.18
27.50,9.95,0.78,9.95,0.77,-0.77,-0.57,-0.74,9.19,9.19,9.18
27.77,9.99,0.80,9.99,0.80,-0.80,-0.60,-0.76,9.19,9.19,9.19
28.05,10.01,0.83,10.02,0.83,-0.83,-0.62,-0.77,9.19,9.19,9.18
28.33,10.03,0.84,10.04,0.85,-0.85,-0.65,-0.79,9.18,9.19,9.19
28.62,10.06,0.88,10.07,0.88,-0.88,-0.68,-0.80,9.18,9.19,9.19
28.90,10.09,0.90,10.09,0.91,-0.91,-0.70,-0.81,9.19,9.19,9.20
29.19,10.12,0.93,10.12,0.93,-0.93,-0.73,-0.83,9.20,9.19,9.19
29.48,10.14,0.96,10.14,0.95,-0.95,-0.76,-0.84,9.19,9.18,9.19
29.78,10.16,0.98,10.15,0.97,-0.97,-0.78,-0.86,9.19,9.18,9.19
30.08,10.18,1.00,10.17,0.99,-0.99,-0.81,-0.87,9.19,9.18,9.18
30.38,10.19,1.03,10.19,1.01,-1.01,-0.84,-0.88,9.18,9.17,9.17
30.68,10.19,1.03,10.20,1.03,-1.03,-0.86,-0.90,9.16,9.17,9.17
30.99,10.20,1.04,10.21,1.05,-1.05,-0.89,-0.91,9.15,9.16,9.16
31.30,10.21,1.06,10.22,1.07,-1.07,-0.91,-0.92,9.15,9.16,9.16
31.61,10.22,1.07,10.23,1.09,-1.09,-0.94,-0.94,9.14,9.15,9.15
31.93,10.23,1.11,10.24,1.10,-1.10,-0.97,-0.95,9.13,9.14,9.13
32.24,10.24,1.11,10.25,1.12,-1.12,-0.99,-0.96,9.13,9.13,9.13
32.57,10.25,1.14,10.26,1.13,-1.13,-1.02,-0.97,9.12,9.12,9.12
32.89,10.27,1.16,10.26,1.15,-1.15,-1.05,-0.99,9.13,9.12,9.11
33.22,10.27,1.17,10.27,1.16,-1.16,-1.07,-1.00,9.11,9.11,9.11
33.55,10.28,1.18,10.28,1.18,-1.18,-1.10,-1.01,9.11,9.10,9.10
33.89,10.28,1.20,10.28,1.19,-1.19,-1.12,-1.03,9.09,9.09,9.09
34.23,10.28,1.21,10.29,1.21,-1.21,-1.15,-1.04,9.08,9.08,9.07
34.57,10.29,1.23,10.30,1.22,-1.22,-1.18,-1.05,9.07,9.07,9.07
34.92,10.30,1.25,10.30,1.24,-1.24,-1.20,-1.07,9.06,9.06,9.05
35.27,10.30,1.24,10.30,1.25,-1.25,-1.23,-1.08,9.05,9.05,9.06
35.62,10.30,1.27,10.30,1.27,-1.27,-1.26,-1.09,9.04,9.04,9.04
35.97,10.30,1.27,10.31,1.29,-1.29,-1.28,-1.11,9.02,9.02,9.03
36.33,10.30,1.29,10.31,1.30,-1.30,-1.31,-1.12,9.00,9.00,9.01
36.70,10.30,1.32,10.30,1.32,-1.32,-1.34,-1.14,8.99,8.99,8.99
37.06,10.30,1.34,10.30,1.33,-1.33,-1.36,-1.16,8.97,8.97,8.97
37.43,10.30,1.35,10.30,1.35,-1.35,-1.39,-1.17,8.95,8.95,8.95
37.81,10.30,1.37,10.30,1.37,-1.37,-1.41,-1.19,8.93,8.93,8.93
38.19,10.30,1.40,10.30,1.39,-1.39,-1.44,-1.21,8.91,8.91,8.90
38.57,10.29,1.41,10.30,1.41,-1.41,-1.47,-1.23,8.88,8.88,8.88
38.95,10.29,1.43,10.30,1.44,-1.44,-1.49,-1.25,8.86,8.86,8.86
39.34,10.29,1.46,10.30,1.46,-1.46,-1.52,-1.27,8.83,8.84,8.83
39.74,10.28,1.48,10.30,1.49,-1.49,-1.55,-1.29,8.80,8.81,8.80
40.14,10.28,1.50,10.30,1.51,-1.51,-1.57,-1.32,8.77,8.79,8.78
40.54,10.29,1.53,10.30,1.54,-1.54,-1.60,-1.34,8.76,8.76,8.76
40.94,10.29,1.56,10.30,1.56,-1.56,-1.63,-1.37,8.73,8.74,8.73
41.35,10.29,1.58,10.30,1.59,-1.59,-1.65,-1.39,8.71,8.71,8.71
41.76,10.30,1.63,10.30,1.61,-1.61,-1.68,-1.42,8.69,8.69,8.68
42.18,10.30,1.64,10.30,1.64,-1.64,-1.70,-1.45,8.67,8.66,8.67
42.60,10.30,1.67,10.30,1.66,-1.66,-1.73,-1.48,8.64,8.63,8.63
43.03,10.30,1.70,10.30,1.69,-1.69,-1.76,-1.51,8.62,8.61,8.61
43.46,10.29,1.72,10.29,1.71,-1.71,-1.78,-1.54,8.58,8.58,8.58
43.90,10.28,1.73,10.29,1.74,-1.74,-1.81,-1.58,8.55,8.55,8.55
44.33,10.28,1.77,10.28,1.76,-1.76,-1.84,-1.61,8.52,8.52,8.52
44.78,10.27,1.78,10.27,1.79,-1.79,-1.86,-1.65,8.49,8.49,8.49
45.23,10.26,1.80,10.26,1.81,-1.81,-1.89,-1.68,8.46,8.45,8.46
45.68,10.25,1.84,10.25,1.84,-1.84,-1.91,-1.72,8.42,8.42,8.42
46.13,10.24,1.87,10.24,1.86,-1.86,-1.94,-1.76,8.38,8.38,8.38
46.60,10.22,1.88,10.23,1.89,-1.89,-1.97,-1.80,8.33,8.34,8.34
47.06,10.21,1.91,10.22,1.92,-1.92,-1.99,-1.84,8.29,8.30,8.30
47.53,10.19,1.93,10.21,1.95,-1.95,-2.02,-1.89,8.24,8.25,8.26
48.01,10.18,1.98,10.19,1.99,-1.99,-2.04,-1.93,8.20,8.21,8.20
48.49,10.17,2.01,10.18,2.02,-2.02,-2.07,-1.97,8.16,8.16,8.16
48.97,10.16,2.05,10.17,2.05,-2.05,-2.09,-2.02,8.11,8.12,8.11
49.46,10.15,2.08,10.15,2.08,-2.08,-2.12,-2.07,8.07,8.07,8.07
49.96,10.14,2.14,10.14,2.11,-2.11,-2.15,-2.11,8.03,8.02,8.01
50.46,10.13,2.16,10.12,2.14,-2.14,-2.17,-2.16,7.99,7.98,7.97
50.96,10.11,2.19,10.10,2.17,-2.17,-2.20,-2.21,7.94,7.93,7.93
51.47,10.09,2.21,10.08,2.20,-2.20,-2.22,-2.26,7.89,7.88,7.88
51.99,10.06,2.24,10.07,2.23,-2.23,-2.25,-2.31,7.84,7.84,7.83
52.51,10.04,2.25,10.04,2.26,-2.26,-2.27,-2.35,7.79,7.79,7.79
53.03,10.02,2.27,10.02,2.28,-2.28,-2.30,-2.40,7.74,7.74,7.75
53.56,9.99,2.29,10.00,2.31,-2.31,-2.32,-2.45,7.69,7.70,7.70
54.10,9.97,2.33,9.98,2.33,-2.33,-2.35,-2.50,7.65,7.65,7.65
54.64,9.94,2.34,9.95,2.35,-2.35,-2.37,-2.55,7.60,7.61,7.60
55.18,9.91,2.36,9.93,2.37,-2.37,-2.39,-2.59,7.55,7.56,7.55
55.74,9.90,2.40,9.91,2.39,-2.39,-2.42,-2.64,7.52,7.52,7.50
56.29,9.88,2.42,9.88,2.41,-2.41,-2.44,-2.68,7.47,7.47,7.47
56.86,9.86,2.44,9.86,2.44,-2.44,-2.47,-2.73,7.43,7.42,7.42
57.42,9.83,2.47,9.84,2.46,-2.46,-2.49,-2.77,7.37,7.38,7.37
58.00,9.81,2.49,9.82,2.49,-2.49,-2.51,-2.81,7.33,7.33,7.32
58.58,9.79,2.51,9.80,2.52,-2.52,-2.54,-2.84,7.28,7.28,7.28
59.16,9.76,2.52,9.77,2.55,-2.55,-2.56,-2.88,7.22,7.22,7.24
59.76,9.74,2.55,9.75,2.58,-2.58,-2.58,-2.91,7.17,7.17,7.19
60.35,9.72,2.59,9.72,2.61,-2.61,-2.61,-2.94,7.12,7.12,7.13
60.96,9.70,2.63,9.69,2.64,-2.64,-2.63,-2.96,7.07,7.06,7.07
61.57,9.67,2.68,9.67,2.67,-2.67,-2.65,-2.99,7.01,7.00,7.00
62.18,9.64,2.71,9.63,2.69,-2.69,-2.68,-3.01,6.95,6.94,6.93
62.80,9.61,2.75,9.60,2.72,-2.72,-2.70,-3.03,6.89,6.88,6.87
63.43,9.57,2.77,9.57,2.75,-2.75,-2.72,-3.04,6.82,6.82,6.80
64.07,9.54,2.80,9.54,2.78,-2.78,-2.75,-3.06,6.76,6.75,6.74
64.71,9.49,2.81,9.50,2.81,-2.81,-2.77,-3.07,6.68,6.69,6.68
65.35,9.45,2.83,9.47,2.84,-2.84,-2.79,-3.07,6.61,6.63,6.62
66.01,9.40,2.85,9.43,2.87,-2.87,-2.81,-3.08,6.54,6.56,6.56
66.67,9.37,2.87,9.39,2.89,-2.89,-2.84,-3.08,6.48,6.50,6.51
67.33,9.34,2.91,9.35,2.92,-2.92,-2.86,-3.08,6.43,6.43,6.43
68.01,9.31,2.94,9.31,2.94,-2.94,-2.88,-3.08,6.37,6.37,6.38
68.69,9.28,2.98,9.27,2.97,-2.97,-2.90,-3.08,6.32,6.31,6.31
69.37,9.24,2.99,9.23,2.99,-2.99,-2.93,-3.07,6.25,6.24,6.25
70.07,9.21,3.03,9.20,3.02,-3.02,-2.95,-3.07,6.19,6.17,6.18
70.77,9.16,3.06,9.16,3.05,-3.05,-2.97,-3.06,6.11,6.11,6.11
71.48,9.11,3.07,9.12,3.08,-3.08,-2.99,-3.06,6.04,6.04,6.05
72.19,9.06,3.09,9.08,3.11,-3.11,-3.02,-3.05,5.96,5.97,5.97
72.91,9.02,3.13,9.04,3.13,-3.13,-3.04,-3.04,5.89,5.91,5.90
73.64,8.99,3.16,9.00,3.16,-3.16,-3.06,-3.03,5.83,5.84,5.83
74.38,8.95,3.19,8.96,3.18,-3.18,-3.08,-3.03,5.77,5.77,5.76
75.12,8.92,3.22,8.92,3.21,-3.21,-3.11,-3.02,5.72,5.71,5.71
75.87,8.89,3.25,8.88,3.23,-3.23,-3.13,-3.02,5.66,5.65,5.65
76.63,8.84,3.27,8.84,3.25,-3.25,-3.15,-3.01,5.59,5.58,5.57
77.40,8.79,3.27,8.79,3.27,-3.27,-3.17,-3.01,5.52,5.52,5.52
78.17,8.74,3.30,8.75,3.29,-3.29,-3.19,-3.01,5.45,5.46,5.45
78.95,8.69,3.29,8.71,3.32,-3.32,-3.22,-3.01,5.38,5.40,5.40
79.74,8.66,3.33,8.67,3.34,-3.34,-3.24,-3.01,5.33,5.33,5.34
80.54,8.63,3.36,8.63,3.36,-3.36,-3.26,-3.01,5.28,5.27,5.28
81.35,8.59,3.39,8.59,3.38,-3.38,-3.28,-3.02,5.22,5.21,5.21
82.16,8.55,3.39,8.55,3.40,-3.40,-3.31,-3.02,5.16,5.15,5.16
82.98,8.50,3.42,8.50,3.42,-3.42,-3.33,-3.03,5.09,5.09,5.09
83.81,8.45,3.43,8.46,3.44,-3.44,-3.35,-3.04,5.02,5.02,5.03
84.65,8.40,3.45,8.42,3.46,-3.46,-3.38,-3.06,4.95,4.96,4.95
85.50,8.36,3.47,8.37,3.48,-3.48,-3.40,-3.07,4.88,4.89,4.89
86.35,8.33,3.51,8.33,3.50,-3.50,-3.42,-3.09,4.83,4.83,4.83
87.22,8.29,3.54,8.29,3.53,-3.53,-3.44,-3.11,4.77,4.76,4.76
88.09,8.25,3.56,8.24,3.55,-3.55,-3.47,-3.13,4.70,4.69,4.69
88.97,8.20,3.58,8.20,3.57,-3.57,-3.49,-3.16,4.63,4.62,4.62
89.86,8.15,3.60,8.15,3.60,-3.60,-3.51,-3.19,4.56,4.56,4.56
90.76,8.09,3.61,8.11,3.62,-3.62,-3.54,-3.22,4.47,4.48,4.49
91.66,8.05,3.65,8.06,3.65,-3.65,-3.56,-3.25,4.40,4.41,4.41
92.58,8.01,3.67,8.02,3.68,-3.68,-3.58,-3.28,4.34,4.34,4.35
93.51,7.97,3.70,7.97,3.70,-3.70,-3.61,-3.32,4.28,4.27,4.27
94.44,7.92,3.72,7.92,3.72,-3.72,-3.63,-3.36,4.20,4.19,4.20
95.39,7.87,3.75,7.87,3.75,-3.75,-3.65,-3.40,4.13,4.12,4.12
96.34,7.81,3.77,7.82,3.77,-3.77,-3.68,-3.44,4.04,4.05,4.05
97.30,7.76,3.79,7.77,3.79,-3.79,-3.70,-3.49,3.97,3.97,3.97
98.28,7.71,3.83,7.72,3.82,-3.82,-3.72,-3.54,3.90,3.90,3.89
99.26,7.66,3.85,7.67,3.84,-3.84,-3.75,-3.59,3.82,3.83,3.82
100.25,7.60,3.86,7.62,3.86,-3.86,-3.77,-3.64,3.74,3.75,3.74
101.25,7.53,3.86,7.56,3.88,-3.88,-3.80,-3.69,3.65,3.68,3.68
102.27,7.48,3.87,7.51,3.90,-3.90,-3.82,-3.74,3.59,3.61,3.61
103.29,7.45,3.92,7.45,3.91,-3.91,-3.84,-3.80,3.54,3.54,3.54
104.32,7.41,3.94,7.39,3.92,-3.92,-3.87,-3.85,3.49,3.47,3.47
105.37,7.35,3.95,7.33,3.93,-3.93,-3.89,-3.91,3.43,3.40,3.40
106.42,7.28,3.95,7.27,3.93,-3.93,-3.92,-3.96,3.35,3.33,3.34
107.48,7.22,3.96,7.20,3.94,-3.94,-3.94,-4.02,3.29,3.26,3.26
108.56,7.15,3.96,7.14,3.94,-3.94,-3.96,-4.07,3.21,3.19,3.20
109.64,7.07,3.94,7.07,3.94,-3.94,-3.99,-4.13,3.13,3.12,3.13
110.74,6.98,3.93,7.00,3.94,-3.94,-4.01,-4.18,3.04,3.05,3.06
111.85,6.91,3.93,6.93,3.94,-3.94,-4.04,-4.23,2.97,2.98,2.98
112.97,6.84,3.93,6.85,3.94,-3.94,-4.06,-4.28,2.90,2.91,2.92
114.10,6.76,3.92,6.78,3.94,-3.94,-4.09,-4.33,2.82,2.84,2.85
115.24,6.68,3.92,6.70,3.94,-3.94,-4.11,-4.38,2.75,2.77,2.76
116.39,6.64,3.96,6.63,3.93,-3.93,-4.13,-4.42,2.71,2.70,2.69
117.55,6.58,3.97,6.56,3.94,-3.94,-4.16,-4.46,2.65,2.63,2.62
118.73,6.49,3.95,6.50,3.94,-3.94,-4.18,-4.49,2.56,2.56,2.54
119.92,6.42,3.94,6.43,3.94,-3.94,-4.20,-4.53,2.49,2.49,2.48
121.12,6.34,3.92,6.37,3.95,-3.95,-4.23,-4.56,2.40,2.42,2.42
122.33,6.30,3.95,6.30,3.95,-3.95,-4.25,-4.58,2.35,2.35,2.35
123.55,6.25,3.96,6.25,3.96,-3.96,-4.27,-4.60,2.29,2.28,2.29
124.79,6.19,3.97,6.19,3.98,-3.98,-4.30,-4.62,2.22,2.21,2.22
126.03,6.12,3.97,6.14,3.99,-3.99,-4.32,-4.63,2.13,2.15,2.15
127.29,6.09,4.01,6.09,4.01,-4.01,-4.34,-4.63,2.08,2.08,2.09
128.57,6.04,4.03,6.05,4.03,-4.03,-4.36,-4.64,2.01,2.01,2.01
129.85,5.99,4.05,6.00,4.06,-4.06,-4.39,-4.64,1.94,1.94,1.95
131.15,5.93,4.06,5.96,4.08,-4.08,-4.41,-4.63,1.85,1.88,1.87
132.46,5.91,4.11,5.92,4.11,-4.11,-4.43,-4.62,1.80,1.81,1.81
133.79,5.88,4.15,5.89,4.14,-4.14,-4.45,-4.61,1.74,1.74,1.74
135.12,5.84,4.17,5.85,4.17,-4.17,-4.47,-4.60,1.67,1.68,1.68
136.48,5.83,4.22,5.81,4.20,-4.20,-4.49,-4.58,1.63,1.61,1.62
137.84,5.79,4.25,5.78,4.23,-4.23,-4.51,-4.56,1.56,1.55,1.55
139.22,5.77,4.30,5.74,4.26,-4.26,-4.53,-4.54,1.51,1.48,1.48
140.61,5.73,4.31,5.71,4.29,-4.29,-4.55,-4.51,1.45,1.42,1.42
142.02,5.66,4.31,5.68,4.32,-4.32,-4.57,-4.49,1.35,1.36,1.36
143.44,5.64,4.34,5.65,4.35,-4.35,-4.59,-4.46,1.30,1.31,1.30
144.87,5.60,4.35,5.62,4.37,-4.37,-4.61,-4.44,1.23,1.25,1.25
146.32,5.58,4.40,5.59,4.40,-4.40,-4.63,-4.41,1.18,1.19,1.19
147.78,5.55,4.42,5.56,4.43,-4.43,-4.65,-4.38,1.13,1.13,1.14
149.26,5.52,4.45,5.53,4.45,-4.45,-4.67,-4.36,1.07,1.08,1.08
150.75,5.49,4.47,5.51,4.48,-4.48,-4.68,-4.33,1.01,1.02,1.02
152.26,5.48,4.51,5.48,4.51,-4.51,-4.70,-4.31,0.97,0.97,0.97
153.78,5.45,4.54,5.46,4.54,-4.54,-4.71,-4.29,0.91,0.92,0.92
155.32,5.44,4.58,5.43,4.57,-4.57,-4.73,-4.27,0.87,0.86,0.86
156.88,5.41,4.60,5.41,4.61,-4.61,-4.74,-4.25,0.81,0.81,0.81
158.44,5.39,4.64,5.39,4.64,-4.64,-4.76,-4.23,0.75,0.75,0.75
160.03,5.36,4.66,5.37,4.68,-4.68,-4.77,-4.22,0.69,0.70,0.70
161.63,5.34,4.70,5.35,4.71,-4.71,-4.79,-4.20,0.64,0.64,0.64
163.24,5.33,4.75,5.32,4.74,-4.74,-4.80,-4.20,0.60,0.58,0.58
164.88,5.29,4.77,5.30,4.77,-4.77,-4.81,-4.19,0.53,0.53,0.53
166.53,5.27,4.81,5.27,4.80,-4.80,-4.82,-4.19,0.48,0.47,0.46
168.19,5.25,4.84,5.24,4.82,-4.82,-4.83,-4.18,0.43,0.41,0.42
169.87,5.21,4.86,5.21,4.85,-4.85,-4.84,-4.19,0.36,0.36,0.36
171.57,5.19,4.90,5.18,4.88,-4.88,-4.85,-4.19,0.31,0.30,0.30
173.29,5.15,4.91,5.15,4.91,-4.91,-4.86,-4.20,0.25,0.24,0.25
175.02,5.10,4.92,5.12,4.93,-4.93,-4.87,-4.21,0.17,0.18,0.19
176.77,5.06,4.94,5.09,4.96,-4.96,-4.88,-4.23,0.11,0.13,0.13
178.54,5.03,4.96,5.06,4.98,-4.98,-4.88,-4.25,0.05,0.07,0.07
180.32,5.00,5.00,5.02,5.00,-5.00,-4.89,-4.27,0.00,0.02,0.01
182.13,4.97,5.01,4.99,5.02,-5.02,-4.89,-4.30,-0.05,-0.04,-0.04
183.95,4.95,5.04,4.95,5.04,-5.04,-4.90,-4.32,-0.09,-0.09,-0.09
185.79,4.93,5.08,4.91,5.06,-5.06,-4.90,-4.35,-0.12,-0.15,-0.15
187.65,4.90,5.10,4.87,5.07,-5.07,-4.90,-4.39,-0.17,-0.20,-0.20
189.52,4.86,5.11,4.84,5.09,-5.09,-4.91,-4.43,-0.22,-0.25,-0.25
191.42,4.81,5.11,4.80,5.10,-5.10,-4.91,-4.47,-0.29,-0.30,-0.30
193.33,4.77,5.12,4.77,5.11,-5.11,-4.91,-4.51,-0.34,-0.35,-0.34
195.27,4.72,5.12,4.73,5.13,-5.13,-4.91,-4.56,-0.40,-0.40,-0.40
197.22,4.67,5.13,4.69,5.14,-5.14,-4.91,-4.60,-0.46,-0.44,-0.45
199.19,4.63,5.12,4.66,5.14,-5.14,-4.90,-4.65,-0.51,-0.48,-0.49
201.18,4.59,5.13,4.62,5.15,-5.15,-4.90,-4.71,-0.55,-0.53,-0.54
203.19,4.56,5.14,4.59,5.15,-5.15,-4.90,-4.76,-0.59,-0.57,-0.57
205.23,4.54,5.15,4.55,5.16,-5.16,-4.89,-4.81,-0.62,-0.61,-0.60
207.28,4.53,5.18,4.52,5.17,-5.17,-4.89,-4.87,-0.63,-0.65,-0.64
209.35,4.50,5.19,4.49,5.18,-5.18,-4.88,-4.93,-0.67,-0.68,-0.68
211.44,4.47,5.19,4.47,5.19,-5.19,-4.87,-4.98,-0.71,-0.72,-0.72
213.56,4.44,5.19,4.44,5.20,-5.20,-4.87,-5.04,-0.75,-0.75,-0.75
215.69,4.40,5.19,4.42,5.21,-5.21,-4.86,-5.10,-0.80,-0.79,-0.78
217.85,4.37,5.19,4.39,5.21,-5.21,-4.85,-5.15,-0.84,-0.82,-0.82
220.03,4.36,5.22,4.37,5.22,-5.22,-4.84,-5.20,-0.85,-0.85,-0.85
222.23,4.34,5.23,4.34,5.22,-5.22,-4.83,-5.26,-0.87,-0.88,-0.89
224.45,4.32,5.23,4.31,5.22,-5.22,-4.81,-5.30,-0.89,-0.91,-0.91
226.70,4.29,5.24,4.28,5.21,-5.21,-4.80,-5.35,-0.92,-0.94,-0.94
228.96,4.25,5.21,4.24,5.20,-5.20,-4.79,-5.39,-0.95,-0.96,-0.95
231.25,4.22,5.21,4.21,5.19,-5.19,-4.77,-5.43,-0.97,-0.98,-0.98
233.57,4.17,5.18,4.17,5.18,-5.18,-4.76,-5.46,-1.00,-1.00,-1.00
235.90,4.12,5.15,4.14,5.16,-5.16,-4.74,-5.49,-1.04,-1.02,-1.02
238.26,4.09,5.15,4.10,5.14,-5.14,-4.72,-5.51,-1.05,-1.04,-1.05
240.64,4.05,5.10,4.06,5.12,-5.12,-4.71,-5.52,-1.06,-1.06,-1.05
243.05,4.01,5.08,4.02,5.09,-5.09,-4.69,-5.53,-1.07,-1.07,-1.07
245.48,3.97,5.06,3.97,5.05,-5.05,-4.67,-5.53,-1.08,-1.08,-1.08
247.93,3.92,5.03,3.93,5.02,-5.02,-4.65,-5.53,-1.09,-1.09,-1.10
250.41,3.88,4.98,3.88,4.98,-4.98,-4.63,-5.52,-1.09,-1.10,-1.10
252.92,3.83,4.94,3.83,4.94,-4.94,-4.61,-5.50,-1.11,-1.11,-1.10
255.45,3.79,4.91,3.79,4.90,-4.90,-4.59,-5.47,-1.11,-1.12,-1.12
258.00,3.75,4.88,3.74,4.86,-4.86,-4.56,-5.43,-1.11,-1.12,-1.12
260.58,3.69,4.82,3.69,4.82,-4.82,-4.54,-5.39,-1.12,-1.13,-1.12
263.19,3.64,4.77,3.64,4.77,-4.77,-4.52,-5.35,-1.13,-1.14,-1.13
265.82,3.57,4.71,3.59,4.73,-4.73,-4.49,-5.29,-1.15,-1.14,-1.14
268.48,3.51,4.66,3.54,4.68,-4.68,-4.47,-5.23,-1.17,-1.15,-1.14
271.16,3.47,4.62,3.49,4.64,-4.64,-4.44,-5.17,-1.17,-1.15,-1.14
273.87,3.43,4.59,3.44,4.59,-4.59,-4.41,-5.10,-1.16,-1.16,-1.16
276.61,3.39,4.55,3.39,4.55,-4.55,-4.39,-5.02,-1.15,-1.16,-1.16
279.38,3.33,4.51,3.34,4.50,-4.50,-4.36,-4.95,-1.17,-1.16,-1.18
282.17,3.28,4.46,3.28,4.45,-4.45,-4.33,-4.86,-1.17,-1.17,-1.18
284.99,3.23,4.40,3.23,4.40,-4.40,-4.30,-4.78,-1.16,-1.17,-1.17
287.84,3.17,4.34,3.18,4.35,-4.35,-4.27,-4.69,-1.17,-1.17,-1.17
290.72,3.14,4.32,3.13,4.30,-4.30,-4.24,-4.60,-1.15,-1.17,-1.18
293.63,3.10,4.27,3.08,4.24,-4.24,-4.21,-4.51,-1.14,-1.17,-1.16
296.57,3.03,4.20,3.03,4.19,-4.19,-4.18,-4.42,-1.16,-1.16,-1.16
299.53,2.97,4.14,2.97,4.13,-4.13,-4.15,-4.33,-1.16,-1.16,-1.16
302.53,2.90,4.05,2.92,4.08,-4.08,-4.11,-4.24,-1.17,-1.16,-1.15
305.55,2.84,4.00,2.86,4.02,-4.02,-4.08,-4.15,-1.17,-1.15,-1.16
308.61,2.80,3.95,2.81,3.96,-3.96,-4.05,-4.05,-1.15,-1.15,-1.14
311.69,2.75,3.90,2.76,3.90,-3.90,-4.02,-3.96,-1.15,-1.14,-1.14
314.81,2.71,3.85,2.71,3.85,-3.85,-3.98,-3.87,-1.13,-1.14,-1.14
317.96,2.67,3.81,2.66,3.79,-3.79,-3.95,-3.79,-1.12,-1.13,-1.13
321.14,2.61,3.73,2.61,3.74,-3.74,-3.91,-3.70,-1.12,-1.12,-1.12
324.35,2.55,3.68,2.57,3.68,-3.68,-3.88,-3.61,-1.13,-1.12,-1.13
327.59,2.50,3.61,2.52,3.64,-3.64,-3.84,-3.53,-1.13,-1.11,-1.10
330.87,2.47,3.58,2.48,3.59,-3.59,-3.81,-3.45,-1.11,-1.11,-1.11
334.18,2.43,3.54,2.44,3.54,-3.54,-3.77,-3.37,-1.10,-1.10,-1.10
337.52,2.39,3.49,2.39,3.49,-3.49,-3.73,-3.29,-1.09,-1.09,-1.10
340.90,2.35,3.44,2.35,3.44,-3.44,-3.70,-3.21,-1.08,-1.09,-1.08
344.30,2.31,3.39,2.30,3.39,-3.39,-3.66,-3.14,-1.07,-1.08,-1.08
347.75,2.27,3.35,2.26,3.34,-3.34,-3.62,-3.07,-1.06,-1.07,-1.07
351.23,2.23,3.31,2.22,3.29,-3.29,-3.59,-3.00,-1.05,-1.07,-1.08
354.74,2.19,3.25,2.18,3.24,-3.24,-3.55,-2.94,-1.05,-1.06,-1.05
358.28,2.13,3.19,2.14,3.19,-3.19,-3.51,-2.87,-1.06,-1.05,-1.06
361.87,2.08,3.13,2.10,3.15,-3.15,-3.47,-2.81,-1.06,-1.05,-1.05
365.49,2.03,3.08,2.06,3.10,-3.10,-3.44,-2.75,-1.06,-1.04,-1.04
369.14,2.00,3.03,2.01,3.05,-3.05,-3.40,-2.69,-1.04,-1.03,-1.03
372.83,1.97,2.99,1.97,3.00,-3.00,-3.36,-2.64,-1.03,-1.03,-1.02
376.56,1.93,2.96,1.94,2.95,-2.95,-3.32,-2.58,-1.02,-1.02,-1.02
380.33,1.91,2.93,1.90,2.91,-2.91,-3.28,-2.53,-0.99,-1.01,-1.02
384.13,1.87,2.87,1.87,2.87,-2.87,-3.24,-2.48,-0.99,-1.00,-1.00
387.97,1.82,2.82,1.83,2.82,-2.82,-3.20,-2.44,-1.00,-0.99,-0.99
391.85,1.78,2.77,1.80,2.78,-2.78,-3.17,-2.39,-1.00,-0.98,-0.99
395.77,1.74,2.72,1.76,2.74,-2.74,-3.13,-2.35,-0.99,-0.97,-0.98
399.73,1.71,2.69,1.73,2.69,-2.69,-3.09,-2.31,-0.98,-0.96,-0.97
403.72,1.69,2.64,1.69,2.65,-2.65,-3.05,-2.27,-0.95,-0.96,-0.94
407.76,1.67,2.62,1.65,2.60,-2.60,-3.01,-2.23,-0.93,-0.95,-0.95
411.84,1.64,2.58,1.62,2.55,-2.55,-2.97,-2.19,-0.91,-0.94,-0.94
415.96,1.60,2.53,1.58,2.51,-2.51,-2.93,-2.16,-0.90,-0.93,-0.92
420.12,1.55,2.48,1.54,2.46,-2.46,-2.89,-2.12,-0.91,-0.92,-0.92
424.32,1.50,2.42,1.51,2.42,-2.42,-2.85,-2.09,-0.91,-0.91,-0.92
428.56,1.45,2.35,1.47,2.38,-2.38,-2.81,-2.06,-0.92,-0.90,-0.90
432.85,1.41,2.30,1.44,2.33,-2.33,-2.77,-2.03,-0.92,-0.90,-0.89
437.18,1.37,2.27,1.40,2.29,-2.29,-2.73,-2.00,-0.91,-0.89,-0.89
441.55,1.34,2.23,1.37,2.24,-2.24,-2.69,-1.97,-0.90,-0.88,-0.88
445.96,1.32,2.20,1.33,2.20,-2.20,-2.65,-1.94,-0.88,-0.87,-0.87
450.42,1.30,2.17,1.29,2.16,-2.16,-2.61,-1.92,-0.85,-0.86,-0.87
454.93,1.28,2.14,1.26,2.11,-2.11,-2.58,-1.89,-0.83,-0.85,-0.86
459.48,1.24,2.09,1.23,2.07,-2.07,-2.54,-1.87,-0.83,-0.85,-0.85
464.07,1.21,2.05,1.20,2.04,-2.04,-2.50,-1.84,-0.82,-0.84,-0.83
468.71,1.17,2.00,1.17,2.00,-2.00,-2.46,-1.82,-0.83,-0.83,-0.82
473.40,1.13,1.95,1.15,1.96,-1.96,-2.42,-1.79,-0.83,-0.82,-0.81
478.13,1.10,1.91,1.12,1.93,-1.93,-2.38,-1.77,-0.82,-0.81,-0.80
482.91,1.07,1.87,1.09,1.89,-1.89,-2.34,-1.74,-0.81,-0.80,-0.80
487.74,1.05,1.84,1.06,1.85,-1.85,-2.30,-1.72,-0.79,-0.79,-0.79
492.62,1.03,1.81,1.03,1.81,-1.81,-2.26,-1.70,-0.77,-0.78,-0.78
497.55,1.00,1.77,1.00,1.77,-1.77,-2.23,-1.67,-0.76,-0.77,-0.77
502.52,0.98,1.75,0.97,1.73,-1.73,-2.19,-1.65,-0.74,-0.75,-0.76
507.55,0.95,1.70,0.95,1.69,-1.69,-2.15,-1.62,-0.73,-0.74,-0.74
