frequency,raw,error,smoothed,error_smoothed,equalization,parametric_eq,fixed_band_eq,equalized_raw,equalized_smoothed,target
20.00,28.62,19.75,28.62,19.75,-19.75,-19.21,-9.91,8.87,8.87,8.87
20.20,28.60,19.74,28.60,19.74,-19.74,-19.21,-10.10,8.86,8.86,8.86
20.40,28.58,19.73,28.58,19.73,-19.73,-19.21,-10.31,8.85,8.85,8.85
20.61,28.56,19.72,28.56,19.72,-19.72,-19.22,-10.51,8.84,8.84,8.84
20.81,28.54,19.72,28.54,19.71,-19.71,-19.22,-10.72,8.83,8.82,8.82
21.02,28.52,19.71,28.52,19.70,-19.70,-19.22,-10.94,8.82,8.81,8.81
21.23,28.50,19.70,28.50,19.69,-19.69,-19.22,-11.16,8.81,8.80,8.80
21.44,28.48,19.67,28.47,19.68,-19.68,-19.22,-11.39,8.80,8.79,8.80
21.66,28.45,19.67,28.45,19.67,-19.67,-19.23,-11.62,8.78,8.78,8.78
21.87,28.43,19.65,28.43,19.66,-19.66,-19.23,-11.86,8.77,8.77,8.78
22.09,28.41,19.65,28.41,19.64,-19.64,-19.23,-12.10,8.77,8.77,8.76
22.31,28.39,19.63,28.39,19.63,-19.63,-19.23,-12.35,8.76,8.76,8.76
22.54,28.37,19.62,28.37,19.61,-19.61,-19.23,-12.61,8.76,8.75,8.75
22.76,28.34,19.59,28.35,19.60,-19.60,-19.23,-12.87,8.74,8.75,8.75
22.99,28.32,19.58,28.32,19.58,-19.58,-19.23,-13.14,8.74,8.74,8.74
23.22,28.30,19.57,28.30,19.57,-19.57,-19.24,-13.42,8.73,8.74,8.73
23.45,28.28,19.54,28.28,19.55,-19.55,-19.24,-13.70,8.73,8.73,8.74
23.69,28.26,19.54,28.26,19.54,-19.54,-19.24,-14.00,8.73,8.73,8.72
23.92,28.24,19.53,28.24,19.52,-19.52,-19.24,-14.30,8.72,8.72,8.71
24.16,28.22,19.50,28.22,19.50,-19.50,-19.24,-14.61,8.72,8.72,8.72
24.40,28.20,19.48,28.20,19.48,-19.48,-19.24,-14.93,8.72,8.71,8.72
24.65,28.18,19.46,28.18,19.46,-19.46,-19.24,-15.26,8.72,8.71,8.72
24.89,28.16,19.44,28.16,19.45,-19.45,-19.24,-15.59,8.71,8.71,8.72
25.14,28.14,19.44,28.13,19.43,-19.43,-19.24,-15.94,8.71,8.71,8.70
25.39,28.11,19.41,28.11,19.41,-19.41,-19.24,-16.29,8.70,8.71,8.70
25.65,28.09,19.39,28.09,19.39,-19.39,-19.24,-16.66,8.70,8.70,8.70
25.91,28.07,19.37,28.07,19.37,-19.37,-19.25,-17.03,8.70,8.70,8.70
26.16,28.05,19.34,28.05,19.35,-19.35,-19.25,-17.42,8.70,8.70,8.71
26.43,28.03,19.33,28.03,19.32,-19.32,-19.25,-17.82,8.71,8.70,8.70
26.69,28.00,19.30,28.00,19.30,-19.30,-19.25,-18.22,8.70,8.70,8.70
26.96,27.98,19.28,27.98,19.28,-19.28,-19.25,-18.63,8.70,8.70,8.70
27.23,27.96,19.26,27.96,19.26,-19.26,-19.25,-19.06,8.70,8.70,8.70
27.50,27.94,19.24,27.94,19.24,-19.24,-19.25,-19.48,8.70,8.70,8.70
27.77,27.92,19.22,27.92,19.22,-19.22,-19.25,-19.92,8.70,8.70,8.70
28.05,27.90,19.20,27.90,19.20,-19.20,-19.25,-20.35,8.70,8.71,8.70
28.33,27.88,19.17,27.88,19.17,-19.17,-19.25,-20.79,8.71,8.71,8.71
28.62,27.86,19.16,27.86,19.15,-19.15,-19.25,-21.22,8.71,8.71,8.70
28.90,27.84,19.13,27.84,19.13,-19.13,-19.25,-21.65,8.71,8.70,8.71
29.19,27.82,19.11,27.82,19.11,-19.11,-19.25,-22.05,8.71,8.70,8.71
29.48,27.80,19.09,27.80,19.09,-19.09,-19.25,-22.44,8.71,8.70,8.71
29.78,27.78,19.08,27.78,19.08,-19.08,-19.25,-22.80,8.70,8.70,8.70
30.08,27.75,19.05,27.75,19.06,-19.06,-19.25,-23.11,8.69,8.69,8.70
30.38,27.73,19.05,27.73,19.04,-19.04,-19.25,-23.38,8.69,8.69,8.69
30.68,27.71,19.03,27.71,19.03,-19.03,-19.25,-23.60,8.68,8.68,8.68
30.99,27.69,19.01,27.69,19.02,-19.02,-19.25,-23.75,8.68,8.68,8.68
31.30,27.67,19.00,27.67,19.00,-19.00,-19.25,-23.84,8.67,8.67,8.67
31.61,27.65,18.98,27.65,18.99,-18.99,-19.25,-23.86,8.66,8.66,8.67
31.93,27.63,18.99,27.63,18.98,-18.98,-19.25,-23.82,8.65,8.66,8.64
32.24,27.62,18.97,27.61,18.97,-18.97,-19.25,-23.72,8.65,8.65,8.65
32.57,27.60,18.96,27.60,18.96,-18.96,-19.24,-23.57,8.64,8.64,8.64
32.89,27.58,18.95,27.58,18.94,-18.94,-19.24,-23.38,8.64,8.63,8.63
33.22,27.56,18.93,27.56,18.93,-18.93,-19.24,-23.16,8.63,8.62,8.63
33.55,27.54,18.92,27.54,18.92,-18.92,-19.24,-22.91,8.62,8.62,8.62
33.89,27.52,18.92,27.52,18.91,-18.91,-19.24,-22.64,8.61,8.61,8.60
34.23,27.50,18.91,27.50,18.90,-18.90,-19.24,-22.36,8.60,8.60,8.59
34.57,27.48,18.90,27.48,18.89,-18.89,-19.24,-22.07,8.59,8.59,8.58
34.92,27.45,18.88,27.46,18.88,-18.88,-19.24,-21.79,8.57,8.58,8.57
35.27,27.44,18.86,27.44,18.88,-18.88,-19.24,-21.51,8.56,8.56,8.58
35.62,27.42,18.87,27.42,18.87,-18.87,-19.24,-21.23,8.55,8.55,8.55
35.97,27.40,18.85,27.40,18.86,-18.86,-19.24,-20.96,8.54,8.54,8.55
36.33,27.38,18.85,27.38,18.86,-18.86,-19.24,-20.70,8.52,8.52,8.53
36.70,27.36,18.86,27.36,18.85,-18.85,-19.23,-20.45,8.51,8.50,8.50
37.06,27.34,18.86,27.34,18.85,-18.85,-19.23,-20.22,8.49,8.49,8.48
37.43,27.31,18.84,27.31,18.85,-18.85,-19.23,-19.99,8.46,8.47,8.47
37.81,27.29,18.84,27.29,18.85,-18.85,-19.23,-19.78,8.44,8.45,8.45
38.19,27.27,18.85,27.27,18.85,-18.85,-19.23,-19.57,8.42,8.42,8.42
38.57,27.25,18.85,27.25,18.85,-18.85,-19.23,-19.38,8.40,8.40,8.40
38.95,27.22,18.84,27.22,18.85,-18.85,-19.23,-19.20,8.37,8.38,8.38
39.34,27.20,18.85,27.20,18.85,-18.85,-19.23,-19.04,8.35,8.35,8.35
39.74,27.18,18.86,27.18,18.85,-18.85,-19.22,-18.88,8.33,8.33,8.32
40.14,27.15,18.85,27.15,18.85,-18.85,-19.22,-18.74,8.30,8.30,8.30
40.54,27.13,18.85,27.13,18.85,-18.85,-19.22,-18.61,8.28,8.28,8.28
40.94,27.10,18.85,27.10,18.85,-18.85,-19.22,-18.49,8.25,8.25,8.25
41.35,27.08,18.85,27.08,18.85,-18.85,-19.22,-18.38,8.23,8.23,8.23
41.76,27.05,18.86,27.05,18.85,-18.85,-19.22,-18.29,8.20,8.20,8.19
42.18,27.02,18.84,27.02,18.85,-18.85,-19.22,-18.20,8.17,8.18,8.18
42.60,26.99,18.84,26.99,18.84,-18.84,-19.21,-18.12,8.15,8.15,8.15
43.03,26.97,18.84,26.97,18.84,-18.84,-19.21,-18.06,8.13,8.12,8.13
43.46,26.94,18.85,26.94,18.84,-18.84,-19.21,-18.01,8.10,8.09,8.09
43.90,26.91,18.84,26.90,18.84,-18.84,-19.21,-17.96,8.07,8.07,8.07
44.33,26.87,18.84,26.87,18.84,-18.84,-19.21,-17.93,8.03,8.04,8.03
44.78,26.84,18.83,26.84,18.84,-18.84,-19.21,-17.91,8.00,8.00,8.01
45.23,26.80,18.82,26.81,18.84,-18.84,-19.20,-17.90,7.96,7.97,7.98
45.68,26.77,18.84,26.77,18.84,-18.84,-19.20,-17.89,7.93,7.93,7.93
46.13,26.73,18.83,26.73,18.84,-18.84,-19.20,-17.90,7.89,7.89,7.90
46.60,26.69,18.83,26.69,18.84,-18.84,-19.20,-17.92,7.85,7.85,7.86
47.06,26.66,18.84,26.65,18.84,-18.84,-19.20,-17.94,7.82,7.81,7.82
47.53,26.62,18.84,26.61,18.85,-18.85,-19.19,-17.98,7.77,7.77,7.78
48.01,26.58,18.86,26.57,18.85,-18.85,-19.19,-18.02,7.73,7.72,7.72
48.49,26.54,18.86,26.53,18.85,-18.85,-19.19,-18.08,7.69,7.68,7.68
48.97,26.49,18.86,26.49,18.86,-18.86,-19.19,-18.14,7.63,7.63,7.63
49.46,26.44,18.85,26.45,18.86,-18.86,-19.19,-18.21,7.58,7.59,7.59
49.96,26.39,18.87,26.41,18.87,-18.87,-19.18,-18.29,7.52,7.54,7.52
50.46,26.36,18.87,26.36,18.87,-18.87,-19.18,-18.37,7.49,7.49,7.49
50.96,26.32,18.87,26.32,18.87,-18.87,-19.18,-18.46,7.45,7.45,7.45
51.47,26.28,18.88,26.28,18.88,-18.88,-19.18,-18.56,7.40,7.40,7.40
51.99,26.24,18.90,26.23,18.88,-18.88,-19.18,-18.67,7.36,7.35,7.34
52.51,26.19,18.88,26.19,18.88,-18.88,-19.17,-18.78,7.31,7.30,7.31
53.03,26.14,18.87,26.14,18.88,-18.88,-19.17,-18.89,7.26,7.26,7.27
53.56,26.09,18.87,26.09,18.88,-18.88,-19.17,-19.01,7.21,7.21,7.22
54.10,26.04,18.88,26.05,18.88,-18.88,-19.17,-19.14,7.16,7.17,7.16
54.64,26.00,18.88,26.00,18.88,-18.88,-19.17,-19.26,7.12,7.12,7.12
55.18,25.96,18.89,25.95,18.88,-18.88,-19.16,-19.38,7.08,7.08,7.07
55.74,25.91,18.89,25.91,18.87,-18.87,-19.16,-19.51,7.04,7.03,7.02
56.29,25.86,18.88,25.86,18.87,-18.87,-19.16,-19.63,6.99,6.99,6.98
56.86,25.81,18.87,25.81,18.87,-18.87,-19.16,-19.74,6.94,6.94,6.94
57.42,25.76,18.88,25.76,18.87,-18.87,-19.16,-19.85,6.89,6.89,6.88
58.00,25.71,18.87,25.71,18.87,-18.87,-19.15,-19.96,6.84,6.84,6.84
58.58,25.66,18.86,25.66,18.87,-18.87,-19.15,-20.05,6.79,6.79,6.80
59.16,25.61,18.85,25.62,18.88,-18.88,-19.15,-20.13,6.73,6.74,6.76
59.76,25.57,18.86,25.57,18.88,-18.88,-19.15,-20.20,6.69,6.69,6.71
60.35,25.53,18.88,25.52,18.89,-18.89,-19.14,-20.25,6.64,6.63,6.65
60.96,25.47,18.88,25.47,18.90,-18.90,-19.14,-20.29,6.57,6.57,6.59
61.57,25.42,18.91,25.43,18.91,-18.91,-19.14,-20.31,6.51,6.52,6.51
62.18,25.38,18.93,25.38,18.92,-18.92,-19.14,-20.32,6.46,6.46,6.45
62.80,25.33,18.95,25.33,18.94,-18.94,-19.14,-20.31,6.39,6.39,6.38
63.43,25.28,18.96,25.28,18.95,-18.95,-19.13,-20.27,6.33,6.33,6.32
64.07,25.24,18.98,25.24,18.97,-18.97,-19.13,-20.22,6.27,6.27,6.26
64.71,25.19,18.99,25.19,18.98,-18.98,-19.13,-20.16,6.21,6.21,6.20
65.35,25.14,19.00,25.14,19.00,-19.00,-19.13,-20.08,6.14,6.14,6.14
66.01,25.09,19.01,25.09,19.01,-19.01,-19.13,-19.98,6.08,6.08,6.08
66.67,25.04,19.02,25.04,19.03,-19.03,-19.12,-19.87,6.01,6.01,6.02
67.33,24.99,19.04,24.99,19.04,-19.04,-19.12,-19.75,5.95,5.95,5.95
68.01,24.94,19.05,24.94,19.05,-19.05,-19.12,-19.62,5.89,5.89,5.89
68.69,24.88,19.06,24.89,19.06,-19.06,-19.12,-19.49,5.82,5.82,5.82
69.37,24.83,19.06,24.83,19.08,-19.08,-19.12,-19.34,5.75,5.76,5.77
70.07,24.78,19.08,24.78,19.09,-19.09,-19.11,-19.20,5.69,5.69,5.70
70.77,24.73,19.10,24.72,19.10,-19.10,-19.11,-19.05,5.63,5.62,5.63
71.48,24.67,19.11,24.67,19.11,-19.11,-19.11,-18.90,5.56,5.56,5.56
72.19,24.61,19.12,24.61,19.12,-19.12,-19.11,-18.75,5.49,5.49,5.49
72.91,24.56,19.15,24.56,19.13,-19.13,-19.11,-18.61,5.43,5.42,5.41
73.64,24.50,19.15,24.50,19.14,-19.14,-19.11,-18.46,5.36,5.36,5.35
74.38,24.44,19.16,24.44,19.15,-19.15,-19.10,-18.32,5.29,5.29,5.28
75.12,24.38,19.16,24.38,19.16,-19.16,-19.10,-18.19,5.22,5.23,5.22
75.87,24.33,19.17,24.33,19.16,-19.16,-19.10,-18.06,5.17,5.16,5.16
76.63,24.26,19.17,24.27,19.17,-19.17,-19.10,-17.94,5.09,5.10,5.09
77.40,24.20,19.16,24.21,19.17,-19.17,-19.10,-17.82,5.03,5.04,5.04
78.17,24.15,19.19,24.15,19.18,-19.18,-19.10,-17.71,4.97,4.97,4.96
78.95,24.08,19.16,24.09,19.18,-19.18,-19.09,-17.61,4.90,4.91,4.92
79.74,24.04,19.19,24.03,19.18,-19.18,-19.09,-17.52,4.86,4.85,4.85
80.54,23.98,19.19,23.97,19.18,-19.18,-19.09,-17.44,4.80,4.79,4.79
81.35,23.91,19.18,23.91,19.18,-19.18,-19.09,-17.36,4.73,4.73,4.73
82.16,23.85,19.17,23.85,19.18,-19.18,-19.09,-17.30,4.67,4.67,4.68
82.98,23.79,19.18,23.79,19.19,-19.19,-19.09,-17.24,4.60,4.60,4.61
83.81,23.72,19.18,23.73,19.19,-19.19,-19.09,-17.20,4.53,4.54,4.54
84.65,23.66,19.19,23.66,19.19,-19.19,-19.09,-17.16,4.47,4.47,4.47
85.50,23.60,19.19,23.60,19.19,-19.19,-19.08,-17.13,4.41,4.41,4.41
86.35,23.54,19.20,23.54,19.20,-19.20,-19.08,-17.12,4.34,4.34,4.34
87.22,23.47,19.20,23.47,19.20,-19.20,-19.08,-17.11,4.27,4.28,4.28
88.09,23.41,19.20,23.41,19.20,-19.20,-19.08,-17.11,4.21,4.21,4.21
88.97,23.34,19.20,23.34,19.20,-19.20,-19.08,-17.13,4.14,4.14,4.14
89.86,23.28,19.21,23.28,19.21,-19.21,-19.08,-17.15,4.07,4.07,4.07
90.76,23.22,19.22,23.21,19.21,-19.21,-19.08,-17.19,4.01,4.00,4.00
91.66,23.15,19.23,23.14,19.22,-19.22,-19.08,-17.23,3.93,3.93,3.92
92.58,23.07,19.21,23.07,19.22,-19.22,-19.08,-17.29,3.85,3.86,3.86
93.51,23.00,19.21,23.00,19.22,-19.22,-19.08,-17.35,3.78,3.78,3.79
94.44,22.93,19.21,22.93,19.22,-19.22,-19.08,-17.43,3.71,3.71,3.72
95.39,22.86,19.22,22.86,19.22,-19.22,-19.07,-17.51,3.64,3.64,3.64
96.34,22.79,19.23,22.79,19.22,-19.22,-19.07,-17.61,3.57,3.56,3.56
97.30,22.72,19.23,22.71,19.23,-19.23,-19.07,-17.72,3.49,3.49,3.49
98.28,22.65,19.24,22.64,19.23,-19.23,-19.07,-17.83,3.42,3.41,3.41
99.26,22.57,19.24,22.57,19.23,-19.23,-19.07,-17.96,3.34,3.34,3.33
100.25,22.49,19.23,22.50,19.23,-19.23,-19.07,-18.10,3.26,3.27,3.26
101.25,22.40,19.21,22.43,19.23,-19.23,-19.07,-18.24,3.17,3.20,3.19
102.27,22.33,19.20,22.36,19.23,-19.23,-19.07,-18.40,3.10,3.13,3.13
103.29,22.28,19.23,22.29,19.23,-19.23,-19.07,-18.56,3.05,3.06,3.05
104.32,22.23,19.24,22.21,19.22,-19.22,-19.07,-18.74,3.01,2.99,2.99
105.37,22.15,19.23,22.14,19.22,-19.22,-19.07,-18.92,2.93,2.92,2.92
106.42,22.08,19.22,22.06,19.21,-19.21,-19.07,-19.11,2.87,2.85,2.86
107.48,22.01,19.23,21.99,19.21,-19.21,-19.07,-19.30,2.80,2.78,2.78
108.56,21.93,19.22,21.92,19.21,-19.21,-19.07,-19.50,2.73,2.71,2.71
109.64,21.84,19.19,21.84,19.20,-19.20,-19.07,-19.70,2.64,2.64,2.65
110.74,21.77,19.20,21.77,19.20,-19.20,-19.07,-19.91,2.57,2.57,2.57
111.85,21.68,19.18,21.69,19.20,-19.20,-19.07,-20.11,2.49,2.50,2.50
112.97,21.59,19.16,21.62,19.19,-19.19,-19.07,-20.32,2.40,2.43,2.44
114.10,21.52,19.16,21.54,19.19,-19.19,-19.06,-20.51,2.33,2.35,2.36
115.24,21.44,19.16,21.46,19.18,-19.18,-19.06,-20.70,2.26,2.28,2.28
116.39,21.40,19.20,21.39,19.18,-19.18,-19.06,-20.88,2.23,2.21,2.20
117.55,21.34,19.21,21.32,19.17,-19.17,-19.06,-21.04,2.17,2.14,2.13
118.73,21.26,19.20,21.24,19.17,-19.17,-19.06,-21.19,2.09,2.07,2.06
119.92,21.17,19.17,21.17,19.17,-19.17,-19.06,-21.31,2.00,2.00,2.00
121.12,21.08,19.14,21.10,19.17,-19.17,-19.06,-21.41,1.91,1.94,1.94
122.33,21.03,19.16,21.03,19.16,-19.16,-19.06,-21.49,1.87,1.87,1.87
123.55,20.97,19.16,20.96,19.16,-19.16,-19.06,-21.53,1.81,1.80,1.81
124.79,20.87,19.13,20.88,19.15,-19.15,-19.06,-21.54,1.72,1.73,1.74
126.03,20.79,19.12,20.81,19.14,-19.14,-19.06,-21.52,1.65,1.66,1.67
127.29,20.74,19.14,20.73,19.14,-19.14,-19.05,-21.47,1.60,1.60,1.60
128.57,20.68,19.15,20.65,19.13,-19.13,-19.05,-21.39,1.56,1.53,1.53
129.85,20.58,19.12,20.57,19.11,-19.11,-19.05,-21.28,1.47,1.46,1.46
131.15,20.48,19.09,20.49,19.10,-19.10,-19.05,-21.14,1.38,1.39,1.39
132.46,20.43,19.10,20.41,19.09,-19.09,-19.05,-20.99,1.34,1.33,1.33
133.79,20.34,19.09,20.33,19.07,-19.07,-19.05,-20.81,1.27,1.26,1.25
135.12,20.22,19.03,20.25,19.06,-19.06,-19.04,-20.62,1.16,1.19,1.19
136.48,20.17,19.04,20.17,19.04,-19.04,-19.04,-20.41,1.13,1.13,1.13
137.84,20.08,19.02,20.08,19.02,-19.02,-19.04,-20.20,1.06,1.06,1.06
139.22,20.02,19.03,20.00,19.00,-19.00,-19.03,-19.98,1.02,1.00,1.00
140.61,19.92,18.98,19.91,18.97,-18.97,-19.03,-19.75,0.95,0.94,0.94
142.02,19.80,18.93,19.83,18.95,-18.95,-19.03,-19.53,0.85,0.88,0.87
143.44,19.74,18.92,19.74,18.92,-18.92,-19.02,-19.30,0.82,0.82,0.82
144.87,19.64,18.87,19.66,18.89,-18.89,-19.02,-19.08,0.75,0.76,0.77
146.32,19.58,18.88,19.57,18.86,-18.86,-19.01,-18.87,0.72,0.71,0.70
147.78,19.49,18.84,19.49,18.84,-18.84,-19.01,-18.65,0.65,0.65,0.65
149.26,19.42,18.83,19.40,18.81,-18.81,-19.00,-18.45,0.61,0.60,0.59
150.75,19.32,18.78,19.32,18.78,-18.78,-19.00,-18.25,0.54,0.54,0.54
152.26,19.24,18.75,19.24,18.75,-18.75,-18.99,-18.07,0.49,0.49,0.49
153.78,19.15,18.72,19.16,18.73,-18.73,-18.98,-17.89,0.42,0.43,0.43
155.32,19.08,18.70,19.08,18.70,-18.70,-18.97,-17.71,0.38,0.38,0.38
156.88,18.99,18.66,19.00,18.68,-18.68,-18.97,-17.55,0.31,0.32,0.33
158.44,18.92,18.65,18.92,18.66,-18.66,-18.96,-17.40,0.26,0.27,0.27
160.03,18.82,18.60,18.84,18.63,-18.63,-18.95,-17.26,0.19,0.21,0.22
161.63,18.76,18.60,18.77,18.61,-18.61,-18.94,-17.13,0.15,0.16,0.16
163.24,18.71,18.61,18.69,18.59,-18.59,-18.93,-17.01,0.12,0.10,0.10
164.88,18.62,18.58,18.62,18.58,-18.58,-18.92,-16.90,0.04,0.04,0.04
166.53,18.55,18.57,18.55,18.56,-18.56,-18.91,-16.80,-0.01,-0.01,-0.02
168.19,18.49,18.56,18.47,18.54,-18.54,-18.89,-16.71,-0.05,-0.07,-0.07
169.87,18.39,18.52,18.40,18.53,-18.53,-18.88,-16.63,-0.14,-0.13,-0.13
171.57,18.32,18.51,18.32,18.51,-18.51,-18.86,-16.56,-0.19,-0.19,-0.19
173.29,18.26,18.50,18.25,18.49,-18.49,-18.85,-16.50,-0.23,-0.24,-0.24
175.02,18.16,18.46,18.18,18.47,-18.47,-18.83,-16.45,-0.31,-0.30,-0.30
176.77,18.10,18.45,18.10,18.45,-18.45,-18.82,-16.41,-0.35,-0.35,-0.35
178.54,18.04,18.45,18.03,18.44,-18.44,-18.80,-16.39,-0.40,-0.41,-0.41
180.32,17.97,18.45,17.95,18.41,-18.41,-18.78,-16.37,-0.44,-0.47,-0.48
182.13,17.89,18.41,17.87,18.39,-18.39,-18.76,-16.36,-0.50,-0.52,-0.52
183.95,17.77,18.34,17.80,18.37,-18.37,-18.74,-16.37,-0.60,-0.58,-0.57
185.79,17.71,18.34,17.72,18.35,-18.35,-18.72,-16.38,-0.64,-0.63,-0.63
187.65,17.63,18.31,17.65,18.33,-18.33,-18.69,-16.40,-0.70,-0.68,-0.68
189.52,17.57,18.30,17.58,18.31,-18.31,-18.67,-16.44,-0.74,-0.73,-0.73
191.42,17.50,18.28,17.50,18.28,-18.28,-18.64,-16.48,-0.78,-0.78,-0.78
193.33,17.43,18.26,17.43,18.26,-18.26,-18.61,-16.54,-0.83,-0.83,-0.83
195.27,17.35,18.23,17.35,18.23,-18.23,-18.59,-16.60,-0.88,-0.88,-0.88
197.22,17.28,18.22,17.27,18.20,-18.20,-18.56,-16.67,-0.92,-0.92,-0.94
199.19,17.20,18.17,17.20,18.17,-18.17,-18.53,-16.76,-0.97,-0.97,-0.97
201.18,17.13,18.15,17.12,18.13,-18.13,-18.49,-16.85,-1.00,-1.01,-1.02
203.19,17.06,18.12,17.05,18.10,-18.10,-18.46,-16.95,-1.04,-1.05,-1.06
205.23,16.98,18.07,16.98,18.07,-18.07,-18.42,-17.06,-1.09,-1.09,-1.09
207.28,16.90,18.03,16.90,18.03,-18.03,-18.39,-17.18,-1.13,-1.13,-1.13
209.35,16.82,17.99,16.82,17.99,-17.99,-18.35,-17.30,-1.17,-1.17,-1.17
211.44,16.73,17.93,16.75,17.95,-17.95,-18.31,-17.43,-1.22,-1.20,-1.20
213.56,16.66,17.89,16.67,17.91,-17.91,-18.26,-17.57,-1.25,-1.24,-1.23
215.69,16.58,17.85,16.59,17.86,-17.86,-18.22,-17.71,-1.28,-1.27,-1.27
217.85,16.51,17.81,16.51,17.81,-17.81,-18.17,-17.85,-1.30,-1.30,-1.30
220.03,16.44,17.78,16.43,17.76,-17.76,-18.13,-18.00,-1.32,-1.33,-1.34
222.23,16.36,17.73,16.35,17.72,-17.72,-18.08,-18.14,-1.36,-1.36,-1.37
224.45,16.28,17.67,16.27,17.66,-17.66,-18.03,-18.28,-1.38,-1.39,-1.39
226.70,16.19,17.62,16.19,17.61,-17.61,-17.97,-18.42,-1.42,-1.42,-1.43
228.96,16.09,17.53,16.11,17.55,-17.55,-17.92,-18.56,-1.46,-1.44,-1.44
231.25,16.03,17.50,16.02,17.49,-17.49,-17.86,-18.68,-1.46,-1.47,-1.47
233.57,15.95,17.44,15.94,17.43,-17.43,-17.81,-18.79,-1.48,-1.49,-1.49
235.90,15.84,17.35,15.85,17.36,-17.36,-17.75,-18.89,-1.52,-1.51,-1.51
238.26,15.77,17.31,15.76,17.29,-17.29,-17.68,-18.97,-1.52,-1.52,-1.54
240.64,15.68,17.21,15.67,17.21,-17.21,-17.62,-19.03,-1.53,-1.54,-1.53
243.05,15.60,17.15,15.58,17.13,-17.13,-17.55,-19.06,-1.53,-1.55,-1.55
245.48,15.50,17.07,15.49,17.05,-17.05,-17.49,-19.07,-1.55,-1.56,-1.57
247.93,15.38,16.96,15.39,16.97,-16.97,-17.42,-19.05,-1.59,-1.57,-1.58
250.41,15.30,16.88,15.30,16.88,-16.88,-17.34,-19.01,-1.58,-1.58,-1.58
252.92,15.18,16.77,15.20,16.79,-16.79,-17.27,-18.93,-1.61,-1.59,-1.59
255.45,15.11,16.71,15.11,16.71,-16.71,-17.19,-18.83,-1.59,-1.60,-1.60
258.00,15.02,16.62,15.01,16.61,-16.61,-17.12,-18.70,-1.59,-1.61,-1.60
260.58,14.91,16.52,14.91,16.52,-16.52,-17.04,-18.54,-1.61,-1.61,-1.61
263.19,14.82,16.43,14.81,16.43,-16.43,-16.96,-18.37,-1.61,-1.62,-1.61
265.82,14.71,16.33,14.72,16.34,-16.34,-16.87,-18.17,-1.63,-1.62,-1.62
268.48,14.62,16.25,14.62,16.25,-16.25,-16.79,-17.96,-1.63,-1.63,-1.63
271.16,14.53,16.16,14.53,16.16,-16.16,-16.70,-17.73,-1.63,-1.64,-1.63
273.87,14.42,16.06,14.43,16.07,-16.07,-16.61,-17.49,-1.65,-1.64,-1.64
276.61,14.33,15.97,14.34,15.98,-15.98,-16.52,-17.24,-1.65,-1.64,-1.64
279.38,14.25,15.91,14.25,15.89,-15.89,-16.43,-16.98,-1.64,-1.65,-1.66
282.17,14.16,15.82,14.15,15.80,-15.80,-16.33,-16.72,-1.64,-1.65,-1.66
284.99,14.08,15.73,14.06,15.71,-15.71,-16.24,-16.46,-1.63,-1.65,-1.65
287.84,13.97,15.62,13.97,15.62,-15.62,-16.14,-16.20,-1.65,-1.65,-1.65
290.72,13.89,15.55,13.88,15.53,-15.53,-16.04,-15.95,-1.64,-1.65,-1.66
293.63,13.80,15.45,13.79,15.44,-15.44,-15.94,-15.69,-1.64,-1.65,-1.65
296.57,13.70,15.35,13.71,15.35,-15.35,-15.84,-15.44,-1.65,-1.65,-1.65
299.53,13.61,15.25,13.62,15.27,-15.27,-15.73,-15.19,-1.66,-1.64,-1.64
302.53,13.53,15.16,13.54,15.18,-15.18,-15.63,-14.95,-1.65,-1.64,-1.63
305.55,13.45,15.09,13.46,15.09,-15.09,-15.52,-14.72,-1.64,-1.64,-1.64
308.61,13.37,15.00,13.38,15.01,-15.01,-15.41,-14.49,-1.64,-1.63,-1.63
311.69,13.29,14.91,13.30,14.93,-14.93,-15.30,-14.27,-1.64,-1.63,-1.62
314.81,13.23,14.85,13.23,14.85,-14.85,-15.19,-14.06,-1.62,-1.62,-1.62
317.96,13.16,14.78,13.16,14.77,-14.77,-15.08,-13.86,-1.61,-1.61,-1.62
321.14,13.09,14.69,13.09,14.70,-14.70,-14.96,-13.66,-1.61,-1.61,-1.60
324.35,13.02,14.63,13.03,14.63,-14.63,-14.85,-13.48,-1.61,-1.60,-1.61
327.59,12.95,14.54,12.96,14.56,-14.56,-14.73,-13.30,-1.61,-1.60,-1.59
330.87,12.90,14.49,12.90,14.49,-14.49,-14.62,-13.13,-1.59,-1.59,-1.59
334.18,12.84,14.43,12.84,14.42,-14.42,-14.50,-12.97,-1.58,-1.58,-1.59
337.52,12.77,14.35,12.77,14.35,-14.35,-14.38,-12.82,-1.58,-1.58,-1.58
340.90,12.71,14.28,12.71,14.28,-14.28,-14.26,-12.67,-1.57,-1.57,-1.57
344.30,12.64,14.20,12.64,14.20,-14.20,-14.14,-12.54,-1.56,-1.56,-1.56
347.75,12.57,14.13,12.57,14.12,-14.12,-14.01,-12.41,-1.55,-1.56,-1.56
351.23,12.51,14.07,12.49,14.04,-14.04,-13.89,-12.29,-1.53,-1.55,-1.56
354.74,12.44,13.98,12.41,13.96,-13.96,-13.77,-12.18,-1.52,-1.54,-1.53
358.28,12.34,13.88,12.33,13.87,-13.87,-13.64,-12.08,-1.53,-1.54,-1.54
361.87,12.26,13.79,12.25,13.78,-13.78,-13.52,-11.99,-1.52,-1.53,-1.53
365.49,12.16,13.69,12.16,13.69,-13.69,-13.39,-11.90,-1.53,-1.52,-1.53
369.14,12.07,13.58,12.07,13.59,-13.59,-13.27,-11.83,-1.52,-1.52,-1.51
372.83,11.98,13.48,11.98,13.49,-13.49,-13.14,-11.76,-1.51,-1.51,-1.50
