frequency,raw,error,smoothed,error_smoothed,equalization,parametric_eq,fixed_band_eq,equalized_raw,equalized_smoothed,target
20.00,-5.34,-7.27,-5.33,-7.28,7.28,6.22,3.40,1.94,1.95,1.93
20.20,-5.36,-7.29,-5.36,-7.30,7.30,6.28,3.50,1.94,1.94,1.93
20.40,-5.38,-7.31,-5.38,-7.32,7.32,6.35,3.60,1.93,1.93,1.93
20.61,-5.40,-7.33,-5.41,-7.33,7.33,6.41,3.70,1.93,1.92,1.93
20.81,-5.42,-7.35,-5.43,-7.34,7.34,6.47,3.80,1.92,1.91,1.93
21.02,-5.45,-7.38,-5.45,-7.36,7.36,6.53,3.90,1.90,1.90,1.93
21.23,-5.47,-7.38,-5.48,-7.37,7.37,6.60,4.01,1.90,1.89,1.90
21.44,-5.50,-7.40,-5.50,-7.38,7.38,6.66,4.13,1.88,1.88,1.89
21.66,-5.53,-7.40,-5.53,-7.39,7.39,6.72,4.24,1.86,1.86,1.87
21.87,-5.56,-7.41,-5.55,-7.40,7.40,6.78,4.36,1.84,1.85,1.85
22.09,-5.58,-7.42,-5.58,-7.41,7.41,6.84,4.48,1.83,1.83,1.84
22.31,-5.60,-7.41,-5.60,-7.41,7.41,6.90,4.61,1.81,1.81,1.81
22.54,-5.63,-7.42,-5.63,-7.42,7.42,6.95,4.74,1.79,1.79,1.79
22.76,-5.65,-7.42,-5.65,-7.42,7.42,7.01,4.87,1.77,1.77,1.77
22.99,-5.68,-7.42,-5.68,-7.42,7.42,7.07,5.00,1.74,1.75,1.74
23.22,-5.70,-7.41,-5.70,-7.43,7.43,7.12,5.14,1.73,1.72,1.71
23.45,-5.72,-7.41,-5.73,-7.43,7.43,7.17,5.28,1.71,1.70,1.69
23.69,-5.75,-7.43,-5.75,-7.43,7.43,7.23,5.43,1.68,1.68,1.68
23.92,-5.77,-7.43,-5.78,-7.44,7.44,7.28,5.57,1.67,1.66,1.66
24.16,-5.80,-7.45,-5.80,-7.44,7.44,7.33,5.73,1.64,1.64,1.65
24.40,-5.83,-7.46,-5.83,-7.45,7.45,7.38,5.88,1.62,1.62,1.62
24.65,-5.85,-7.45,-5.85,-7.45,7.45,7.42,6.04,1.60,1.60,1.60
24.89,-5.88,-7.46,-5.87,-7.46,7.46,7.47,6.19,1.58,1.58,1.58
25.14,-5.90,-7.47,-5.90,-7.46,7.46,7.52,6.36,1.56,1.57,1.57
25.39,-5.92,-7.47,-5.92,-7.47,7.47,7.56,6.52,1.55,1.55,1.55
25.65,-5.94,-7.48,-5.94,-7.48,7.48,7.60,6.68,1.53,1.53,1.54
25.91,-5.96,-7.47,-5.96,-7.48,7.48,7.64,6.85,1.52,1.52,1.51
26.16,-5.98,-7.48,-5.98,-7.48,7.48,7.68,7.01,1.50,1.50,1.50
26.43,-6.00,-7.49,-6.00,-7.48,7.48,7.72,7.18,1.48,1.49,1.49
26.69,-6.01,-7.48,-6.01,-7.48,7.48,7.75,7.34,1.47,1.47,1.46
26.96,-6.03,-7.48,-6.03,-7.48,7.48,7.78,7.51,1.45,1.45,1.45
27.23,-6.04,-7.48,-6.04,-7.48,7.48,7.81,7.67,1.44,1.44,1.44
27.50,-6.06,-7.49,-6.06,-7.48,7.48,7.84,7.83,1.42,1.42,1.43
27.77,-6.07,-7.48,-6.07,-7.48,7.48,7.87,7.98,1.41,1.41,1.41
28.05,-6.08,-7.48,-6.08,-7.48,7.48,7.90,8.13,1.40,1.40,1.40
28.33,-6.09,-7.47,-6.10,-7.48,7.48,7.92,8.27,1.39,1.38,1.38
28.62,-6.10,-7.47,-6.11,-7.47,7.47,7.94,8.41,1.37,1.37,1.36
28.90,-6.12,-7.47,-6.12,-7.47,7.47,7.96,8.53,1.35,1.36,1.35
29.19,-6.14,-7.47,-6.13,-7.47,7.47,7.97,8.65,1.33,1.34,1.33
29.48,-6.14,-7.47,-6.14,-7.47,7.47,7.99,8.76,1.33,1.33,1.33
29.78,-6.15,-7.47,-6.15,-7.47,7.47,8.00,8.85,1.32,1.31,1.32
30.08,-6.16,-7.47,-6.17,-7.46,7.46,8.01,8.94,1.30,1.30,1.31
30.38,-6.18,-7.46,-6.18,-7.46,7.46,8.01,9.01,1.28,1.28,1.28
30.68,-6.19,-7.46,-6.19,-7.46,7.46,8.02,9.06,1.27,1.27,1.27
30.99,-6.19,-7.44,-6.21,-7.46,7.46,8.02,9.10,1.27,1.25,1.25
31.30,-6.21,-7.45,-6.22,-7.46,7.46,8.02,9.13,1.24,1.23,1.24
31.61,-6.23,-7.45,-6.24,-7.45,7.45,8.02,9.14,1.22,1.22,1.22
31.93,-6.25,-7.45,-6.25,-7.45,7.45,8.01,9.14,1.20,1.20,1.20
32.24,-6.27,-7.44,-6.26,-7.44,7.44,8.01,9.13,1.17,1.18,1.17
32.57,-6.28,-7.44,-6.28,-7.43,7.43,8.00,9.10,1.15,1.16,1.16
32.89,-6.30,-7.44,-6.29,-7.43,7.43,7.99,9.05,1.13,1.14,1.14
33.22,-6.30,-7.41,-6.30,-7.42,7.42,7.97,9.00,1.12,1.11,1.11
33.55,-6.32,-7.42,-6.32,-7.41,7.41,7.96,8.93,1.09,1.09,1.10
33.89,-6.33,-7.40,-6.33,-7.40,7.40,7.94,8.86,1.07,1.07,1.07
34.23,-6.34,-7.39,-6.34,-7.39,7.39,7.92,8.78,1.05,1.05,1.05
34.57,-6.34,-7.37,-6.35,-7.37,7.37,7.89,8.68,1.03,1.03,1.03
34.92,-6.35,-7.35,-6.35,-7.36,7.36,7.87,8.59,1.01,1.01,1.00
35.27,-6.36,-7.35,-6.36,-7.35,7.35,7.84,8.48,0.98,0.99,0.99
35.62,-6.36,-7.33,-6.36,-7.33,7.33,7.81,8.38,0.97,0.97,0.97
35.97,-6.37,-7.31,-6.37,-7.31,7.31,7.78,8.27,0.94,0.94,0.94
36.33,-6.37,-7.30,-6.37,-7.30,7.30,7.75,8.16,0.93,0.92,0.93
36.70,-6.38,-7.28,-6.38,-7.28,7.28,7.71,8.04,0.90,0.90,0.90
37.06,-6.38,-7.26,-6.38,-7.26,7.26,7.67,7.93,0.88,0.88,0.88
37.43,-6.38,-7.24,-6.39,-7.24,7.24,7.64,7.82,0.86,0.86,0.86
37.81,-6.39,-7.23,-6.39,-7.23,7.23,7.60,7.70,0.83,0.84,0.84
38.19,-6.39,-7.20,-6.39,-7.21,7.21,7.55,7.59,0.82,0.81,0.81
38.57,-6.40,-7.20,-6.40,-7.19,7.19,7.51,7.49,0.79,0.79,0.80
38.95,-6.39,-7.16,-6.40,-7.17,7.17,7.46,7.38,0.78,0.77,0.77
39.34,-6.40,-7.15,-6.40,-7.15,7.15,7.42,7.28,0.75,0.75,0.75
39.74,-6.40,-7.12,-6.40,-7.13,7.13,7.37,7.18,0.73,0.73,0.72
40.14,-6.40,-7.11,-6.40,-7.11,7.11,7.32,7.08,0.71,0.71,0.71
40.54,-6.40,-7.09,-6.40,-7.09,7.09,7.27,6.99,0.69,0.69,0.69
40.94,-6.40,-7.07,-6.40,-7.07,7.07,7.21,6.90,0.67,0.67,0.67
41.35,-6.40,-7.04,-6.40,-7.05,7.05,7.16,6.82,0.65,0.65,0.64
41.76,-6.39,-7.03,-6.40,-7.03,7.03,7.11,6.74,0.64,0.63,0.64
42.18,-6.39,-7.01,-6.39,-7.00,7.00,7.05,6.67,0.61,0.61,0.62
42.60,-6.39,-6.98,-6.39,-6.98,6.98,6.99,6.60,0.59,0.59,0.59
43.03,-6.39,-6.97,-6.39,-6.96,6.96,6.94,6.54,0.57,0.57,0.58
43.46,-6.38,-6.94,-6.38,-6.93,6.93,6.88,6.48,0.55,0.55,0.55
43.90,-6.37,-6.90,-6.38,-6.91,6.91,6.82,6.42,0.53,0.53,0.53
44.33,-6.37,-6.88,-6.37,-6.88,6.88,6.76,6.37,0.51,0.51,0.51
44.78,-6.37,-6.86,-6.36,-6.85,6.85,6.70,6.33,0.48,0.49,0.49
45.23,-6.36,-6.82,-6.36,-6.83,6.83,6.63,6.29,0.46,0.47,0.46
45.68,-6.35,-6.79,-6.35,-6.80,6.80,6.57,6.25,0.45,0.45,0.44
46.13,-6.34,-6.76,-6.34,-6.77,6.77,6.51,6.22,0.43,0.42,0.42
46.60,-6.33,-6.74,-6.33,-6.74,6.74,6.45,6.19,0.41,0.40,0.41
47.06,-6.32,-6.71,-6.33,-6.70,6.70,6.38,6.17,0.38,0.38,0.39
47.53,-6.31,-6.67,-6.32,-6.67,6.67,6.32,6.16,0.36,0.36,0.36
48.01,-6.30,-6.65,-6.31,-6.64,6.64,6.25,6.14,0.34,0.33,0.35
48.49,-6.30,-6.62,-6.30,-6.61,6.61,6.19,6.13,0.31,0.31,0.32
48.97,-6.29,-6.58,-6.29,-6.57,6.57,6.12,6.13,0.28,0.29,0.29
49.46,-6.28,-6.53,-6.28,-6.54,6.54,6.06,6.12,0.26,0.26,0.25
49.96,-6.27,-6.49,-6.27,-6.50,6.50,5.99,6.12,0.23,0.24,0.22
50.46,-6.25,-6.47,-6.25,-6.47,6.47,5.92,6.13,0.22,0.21,0.21
50.96,-6.24,-6.43,-6.24,-6.43,6.43,5.86,6.14,0.19,0.19,0.19
51.47,-6.23,-6.38,-6.23,-6.39,6.39,5.79,6.14,0.16,0.16,0.15
51.99,-6.22,-6.35,-6.22,-6.35,6.35,5.72,6.15,0.13,0.13,0.13
52.51,-6.21,-6.32,-6.21,-6.32,6.32,5.66,6.17,0.10,0.11,0.11
53.03,-6.20,-6.29,-6.20,-6.28,6.28,5.59,6.18,0.08,0.08,0.08
53.56,-6.18,-6.24,-6.18,-6.24,6.24,5.52,6.19,0.06,0.05,0.06
54.10,-6.16,-6.19,-6.17,-6.20,6.20,5.46,6.21,0.04,0.03,0.03
54.64,-6.16,-6.16,-6.16,-6.16,6.16,5.39,6.22,-0.00,-0.00,-0.00
55.18,-6.15,-6.12,-6.14,-6.12,6.12,5.32,6.24,-0.03,-0.03,-0.03
55.74,-6.13,-6.07,-6.13,-6.08,6.08,5.26,6.25,-0.05,-0.05,-0.06
56.29,-6.12,-6.04,-6.12,-6.03,6.03,5.19,6.26,-0.09,-0.08,-0.08
56.86,-6.10,-5.99,-6.10,-5.99,5.99,5.12,6.26,-0.11,-0.11,-0.11
57.42,-6.09,-5.95,-6.09,-5.95,5.95,5.06,6.27,-0.14,-0.14,-0.14
58.00,-6.07,-5.90,-6.07,-5.91,5.91,4.99,6.27,-0.16,-0.17,-0.17
58.58,-6.06,-5.86,-6.06,-5.86,5.86,4.93,6.26,-0.20,-0.20,-0.20
59.16,-6.04,-5.82,-6.05,-5.82,5.82,4.86,6.26,-0.22,-0.23,-0.23
59.76,-6.03,-5.78,-6.03,-5.77,5.77,4.80,6.24,-0.26,-0.26,-0.25
60.35,-6.01,-5.72,-6.02,-5.73,5.73,4.73,6.22,-0.29,-0.29,-0.29
60.96,-6.00,-5.70,-6.00,-5.68,5.68,4.67,6.20,-0.32,-0.32,-0.30
61.57,-5.99,-5.64,-5.99,-5.63,5.63,4.60,6.17,-0.36,-0.35,-0.35
62.18,-5.97,-5.58,-5.97,-5.59,5.59,4.54,6.13,-0.38,-0.38,-0.39
62.80,-5.95,-5.53,-5.96,-5.54,5.54,4.47,6.08,-0.41,-0.42,-0.42
63.43,-5.94,-5.48,-5.94,-5.49,5.49,4.41,6.03,-0.45,-0.45,-0.46
64.07,-5.93,-5.44,-5.92,-5.45,5.45,4.35,5.98,-0.48,-0.48,-0.49
64.71,-5.90,-5.39,-5.91,-5.40,5.40,4.29,5.91,-0.50,-0.51,-0.51
65.35,-5.89,-5.35,-5.89,-5.35,5.35,4.22,5.84,-0.54,-0.54,-0.54
66.01,-5.88,-5.31,-5.88,-5.30,5.30,4.16,5.77,-0.58,-0.57,-0.57
66.67,-5.86,-5.26,-5.86,-5.26,5.26,4.10,5.69,-0.60,-0.60,-0.60
67.33,-5.84,-5.21,-5.84,-5.21,5.21,4.04,5.60,-0.63,-0.63,-0.63
68.01,-5.83,-5.17,-5.82,-5.16,5.16,3.98,5.51,-0.67,-0.66,-0.66
68.69,-5.80,-5.11,-5.81,-5.11,5.11,3.92,5.41,-0.69,-0.69,-0.69
69.37,-5.79,-5.06,-5.79,-5.06,5.06,3.86,5.31,-0.73,-0.73,-0.73
70.07,-5.77,-5.01,-5.77,-5.01,5.01,3.80,5.21,-0.76,-0.76,-0.76
70.77,-5.75,-4.96,-5.75,-4.96,4.96,3.74,5.10,-0.79,-0.80,-0.79
71.48,-5.73,-4.90,-5.74,-4.90,4.90,3.68,5.00,-0.83,-0.83,-0.83
72.19,-5.72,-4.86,-5.72,-4.85,4.85,3.62,4.89,-0.87,-0.87,-0.86
72.91,-5.70,-4.79,-5.70,-4.79,4.79,3.56,4.77,-0.91,-0.91,-0.91
73.64,-5.68,-4.73,-5.68,-4.73,4.73,3.50,4.66,-0.95,-0.95,-0.95
74.38,-5.67,-4.69,-5.66,-4.67,4.67,3.44,4.55,-1.00,-0.99,-0.99
75.12,-5.64,-4.60,-5.65,-4.61,4.61,3.39,4.43,-1.03,-1.03,-1.04
75.87,-5.63,-4.55,-5.63,-4.55,4.55,3.33,4.32,-1.08,-1.08,-1.08
76.63,-5.61,-4.49,-5.61,-4.49,4.49,3.27,4.20,-1.12,-1.12,-1.12
77.40,-5.59,-4.43,-5.59,-4.42,4.42,3.22,4.09,-1.17,-1.17,-1.17
78.17,-5.57,-4.35,-5.57,-4.36,4.36,3.16,3.98,-1.21,-1.21,-1.23
78.95,-5.55,-4.29,-5.55,-4.29,4.29,3.11,3.86,-1.26,-1.26,-1.26
79.74,-5.54,-4.23,-5.54,-4.22,4.22,3.05,3.75,-1.32,-1.31,-1.31
80.54,-5.52,-4.16,-5.52,-4.15,4.15,3.00,3.64,-1.37,-1.36,-1.36
81.35,-5.49,-4.08,-5.50,-4.08,4.08,2.94,3.54,-1.41,-1.42,-1.42
82.16,-5.47,-4.00,-5.48,-4.01,4.01,2.89,3.43,-1.46,-1.47,-1.47
82.98,-5.46,-3.95,-5.46,-3.94,3.94,2.84,3.33,-1.52,-1.52,-1.52
83.81,-5.44,-3.86,-5.44,-3.86,3.86,2.78,3.22,-1.58,-1.58,-1.58
84.65,-5.43,-3.79,-5.42,-3.79,3.79,2.73,3.12,-1.64,-1.63,-1.64
85.50,-5.40,-3.71,-5.40,-3.71,3.71,2.68,3.02,-1.69,-1.69,-1.69
86.35,-5.38,-3.63,-5.38,-3.64,3.64,2.63,2.93,-1.75,-1.75,-1.75
87.22,-5.37,-3.57,-5.36,-3.56,3.56,2.57,2.83,-1.81,-1.80,-1.81
88.09,-5.34,-3.47,-5.34,-3.48,3.48,2.52,2.74,-1.86,-1.86,-1.87
88.97,-5.32,-3.40,-5.32,-3.40,3.40,2.47,2.65,-1.92,-1.92,-1.92
89.86,-5.30,-3.32,-5.30,-3.32,3.32,2.42,2.56,-1.98,-1.98,-1.98
90.76,-5.28,-3.23,-5.28,-3.24,3.24,2.37,2.47,-2.04,-2.04,-2.05
91.66,-5.26,-3.16,-5.26,-3.16,3.16,2.32,2.38,-2.10,-2.10,-2.11
92.58,-5.24,-3.06,-5.24,-3.07,3.07,2.27,2.30,-2.17,-2.17,-2.18
93.51,-5.22,-3.00,-5.22,-2.99,2.99,2.22,2.22,-2.23,-2.23,-2.22
94.44,-5.19,-2.90,-5.20,-2.90,2.90,2.17,2.14,-2.29,-2.30,-2.29
95.39,-5.18,-2.83,-5.18,-2.82,2.82,2.12,2.06,-2.37,-2.36,-2.35
96.34,-5.16,-2.73,-5.16,-2.73,2.73,2.07,1.98,-2.43,-2.43,-2.43
97.30,-5.14,-2.65,-5.13,-2.64,2.64,2.02,1.91,-2.50,-2.50,-2.50
98.28,-5.11,-2.55,-5.11,-2.55,2.55,1.97,1.84,-2.56,-2.56,-2.56
99.26,-5.09,-2.45,-5.09,-2.46,2.46,1.93,1.76,-2.63,-2.63,-2.64
100.25,-5.07,-2.37,-5.07,-2.37,2.37,1.88,1.70,-2.70,-2.70,-2.71
101.25,-5.05,-2.28,-5.05,-2.28,2.28,1.83,1.63,-2.77,-2.77,-2.77
102.27,-5.03,-2.18,-5.03,-2.18,2.18,1.78,1.56,-2.85,-2.85,-2.85
103.29,-5.01,-2.08,-5.01,-2.09,2.09,1.73,1.49,-2.92,-2.92,-2.93
104.32,-4.99,-2.00,-4.99,-2.00,2.00,1.69,1.43,-2.99,-3.00,-3.00
105.37,-4.97,-1.91,-4.97,-1.91,1.91,1.64,1.37,-3.07,-3.07,-3.06
106.42,-4.96,-1.82,-4.96,-1.81,1.81,1.59,1.31,-3.15,-3.14,-3.14
107.48,-4.94,-1.72,-4.94,-1.72,1.72,1.54,1.25,-3.22,-3.22,-3.22
108.56,-4.92,-1.62,-4.92,-1.62,1.62,1.49,1.19,-3.30,-3.30,-3.30
109.64,-4.90,-1.53,-4.90,-1.53,1.53,1.45,1.13,-3.37,-3.37,-3.37
110.74,-4.88,-1.44,-4.88,-1.43,1.43,1.40,1.08,-3.45,-3.45,-3.44
111.85,-4.87,-1.35,-4.87,-1.34,1.34,1.35,1.02,-3.53,-3.53,-3.52
112.97,-4.85,-1.24,-4.85,-1.24,1.24,1.30,0.97,-3.61,-3.61,-3.62
114.10,-4.84,-1.16,-4.83,-1.15,1.15,1.25,0.92,-3.69,-3.68,-3.68
115.24,-4.81,-1.05,-4.82,-1.06,1.06,1.21,0.86,-3.75,-3.76,-3.76
116.39,-4.80,-0.96,-4.80,-0.97,0.97,1.16,0.81,-3.83,-3.84,-3.84
117.55,-4.79,-0.87,-4.79,-0.88,0.88,1.11,0.77,-3.92,-3.91,-3.92
118.73,-4.77,-0.78,-4.77,-0.79,0.79,1.06,0.72,-3.98,-3.99,-3.99
119.92,-4.76,-0.70,-4.76,-0.70,0.70,1.01,0.67,-4.06,-4.06,-4.06
121.12,-4.74,-0.61,-4.74,-0.61,0.61,0.96,0.63,-4.13,-4.13,-4.13
122.33,-4.73,-0.52,-4.73,-0.52,0.52,0.91,0.58,-4.21,-4.21,-4.21
123.55,-4.72,-0.45,-4.72,-0.44,0.44,0.86,0.54,-4.28,-4.28,-4.27
124.79,-4.70,-0.36,-4.70,-0.36,0.36,0.81,0.49,-4.34,-4.35,-4.34
126.03,-4.69,-0.29,-4.69,-0.28,0.28,0.76,0.45,-4.41,-4.41,-4.40
127.29,-4.68,-0.21,-4.68,-0.20,0.20,0.71,0.41,-4.48,-4.48,-4.47
128.57,-4.67,-0.12,-4.67,-0.12,0.12,0.66,0.37,-4.55,-4.55,-4.55
129.85,-4.65,-0.04,-4.66,-0.05,0.05,0.60,0.33,-4.60,-4.61,-4.61
131.15,-4.65,0.02,-4.65,0.02,-0.02,0.55,0.29,-4.67,-4.67,-4.67
132.46,-4.63,0.11,-4.64,0.09,-0.09,0.50,0.25,-4.72,-4.73,-4.74
133.79,-4.63,0.15,-4.63,0.16,-0.16,0.44,0.22,-4.79,-4.79,-4.78
135.12,-4.62,0.23,-4.62,0.22,-0.22,0.39,0.18,-4.84,-4.84,-4.85
136.48,-4.62,0.27,-4.62,0.28,-0.28,0.33,0.14,-4.90,-4.89,-4.90
137.84,-4.61,0.33,-4.61,0.34,-0.34,0.28,0.10,-4.95,-4.95,-4.94
139.22,-4.60,0.40,-4.60,0.39,-0.39,0.22,0.07,-4.99,-4.99,-5.00
140.61,-4.60,0.45,-4.60,0.44,-0.44,0.16,0.03,-5.04,-5.04,-5.05
142.02,-4.59,0.48,-4.59,0.49,-0.49,0.10,-0.00,-5.08,-5.08,-5.08
143.44,-4.59,0.53,-4.59,0.54,-0.54,0.04,-0.04,-5.13,-5.12,-5.12
144.87,-4.58,0.58,-4.58,0.58,-0.58,-0.02,-0.07,-5.16,-5.16,-5.17
146.32,-4.57,0.63,-4.57,0.63,-0.63,-0.08,-0.11,-5.20,-5.20,-5.20
147.78,-4.57,0.66,-4.57,0.67,-0.67,-0.14,-0.15,-5.24,-5.24,-5.23
149.26,-4.56,0.71,-4.57,0.71,-0.71,-0.21,-0.18,-5.27,-5.28,-5.27
150.75,-4.56,0.75,-4.56,0.75,-0.75,-0.27,-0.22,-5.31,-5.31,-5.31
152.26,-4.56,0.79,-4.55,0.79,-0.79,-0.33,-0.25,-5.35,-5.35,-5.35
153.78,-4.55,0.83,-4.55,0.83,-0.83,-0.40,-0.29,-5.38,-5.38,-5.38
155.32,-4.54,0.87,-4.55,0.87,-0.87,-0.47,-0.33,-5.41,-5.42,-5.41
156.88,-4.54,0.90,-4.54,0.91,-0.91,-0.54,-0.37,-5.45,-5.45,-5.44
158.44,-4.54,0.94,-4.54,0.95,-0.95,-0.60,-0.40,-5.49,-5.49,-5.49
160.03,-4.53,0.99,-4.53,0.98,-0.98,-0.67,-0.44,-5.52,-5.52,-5.52
161.63,-4.54,1.02,-4.53,1.02,-1.02,-0.74,-0.48,-5.56,-5.55,-5.56
163.24,-4.53,1.06,-4.53,1.06,-1.06,-0.81,-0.52,-5.59,-5.59,-5.59
164.88,-4.52,1.10,-4.53,1.10,-1.10,-0.88,-0.56,-5.62,-5.62,-5.62
166.53,-4.52,1.13,-4.52,1.13,-1.13,-0.95,-0.60,-5.66,-5.66,-5.65
168.19,-4.52,1.18,-4.52,1.17,-1.17,-1.03,-0.64,-5.69,-5.69,-5.70
169.87,-4.53,1.20,-4.52,1.21,-1.21,-1.10,-0.69,-5.74,-5.73,-5.73
171.57,-4.52,1.24,-4.53,1.24,-1.24,-1.17,-0.73,-5.77,-5.77,-5.76
173.29,-4.53,1.27,-4.53,1.28,-1.28,-1.24,-0.77,-5.81,-5.81,-5.80
175.02,-4.52,1.32,-4.53,1.32,-1.32,-1.31,-0.82,-5.84,-5.85,-5.84
176.77,-4.53,1.36,-4.53,1.36,-1.36,-1.38,-0.87,-5.89,-5.89,-5.89
178.54,-4.53,1.40,-4.54,1.39,-1.39,-1.44,-0.91,-5.92,-5.93,-5.93
180.32,-4.54,1.43,-4.54,1.43,-1.43,-1.51,-0.96,-5.97,-5.97,-5.97
182.13,-4.55,1.45,-4.55,1.46,-1.46,-1.57,-1.01,-6.01,-6.01,-6.00
183.95,-4.56,1.49,-4.55,1.49,-1.49,-1.63,-1.06,-6.05,-6.05,-6.05
185.79,-4.56,1.53,-4.56,1.52,-1.52,-1.69,-1.11,-6.09,-6.09,-6.09
187.65,-4.56,1.57,-4.57,1.55,-1.55,-1.74,-1.16,-6.11,-6.12,-6.13
189.52,-4.58,1.59,-4.58,1.58,-1.58,-1.79,-1.21,-6.16,-6.16,-6.17
191.42,-4.58,1.62,-4.59,1.61,-1.61,-1.84,-1.26,-6.19,-6.20,-6.20
193.33,-4.60,1.62,-4.60,1.63,-1.63,-1.88,-1.31,-6.23,-6.23,-6.22
195.27,-4.61,1.65,-4.62,1.65,-1.65,-1.92,-1.37,-6.26,-6.26,-6.26
197.22,-4.63,1.66,-4.63,1.67,-1.67,-1.96,-1.42,-6.30,-6.30,-6.29
199.19,-4.64,1.70,-4.64,1.68,-1.68,-1.99,-1.47,-6.32,-6.33,-6.34
201.18,-4.65,1.71,-4.66,1.70,-1.70,-2.01,-1.52,-6.35,-6.35,-6.36
203.19,-4.67,1.71,-4.67,1.71,-1.71,-2.03,-1.58,-6.38,-6.38,-6.38
205.23,-4.68,1.73,-4.69,1.72,-1.72,-2.04,-1.63,-6.40,-6.41,-6.41
207.28,-4.69,1.73,-4.70,1.73,-1.73,-2.05,-1.68,-6.42,-6.43,-6.42
209.35,-4.71,1.74,-4.71,1.75,-1.75,-2.05,-1.73,-6.46,-6.45,-6.45
211.44,-4.72,1.76,-4.71,1.76,-1.76,-2.04,-1.78,-6.48,-6.48,-6.48
213.56,-4.73,1.77,-4.72,1.78,-1.78,-2.04,-1.83,-6.51,-6.49,-6.50
215.69,-4.74,1.76,-4.72,1.79,-1.79,-2.02,-1.88,-6.53,-6.51,-6.50
217.85,-4.74,1.78,-4.72,1.81,-1.81,-2.00,-1.93,-6.55,-6.53,-6.52
220.03,-4.73,1.81,-4.71,1.83,-1.83,-1.98,-1.97,-6.56,-6.54,-6.55
222.23,-4.72,1.84,-4.70,1.85,-1.85,-1.95,-2.01,-6.57,-6.55,-6.56
224.45,-4.71,1.84,-4.69,1.86,-1.86,-1.92,-2.05,-6.57,-6.56,-6.55
226.70,-4.70,1.87,-4.69,1.87,-1.87,-1.89,-2.08,-6.58,-6.56,-6.57
228.96,-4.67,1.90,-4.68,1.88,-1.88,-1.85,-2.11,-6.55,-6.57,-6.57
231.25,-4.67,1.89,-4.68,1.88,-1.88,-1.81,-2.14,-6.55,-6.57,-6.56
233.57,-4.66,1.89,-4.69,1.87,-1.87,-1.77,-2.16,-6.54,-6.56,-6.56
235.90,-4.66,1.90,-4.70,1.86,-1.86,-1.73,-2.18,-6.52,-6.56,-6.56
238.26,-4.66,1.90,-4.71,1.84,-1.84,-1.68,-2.20,-6.50,-6.55,-6.56
240.64,-4.69,1.85,-4.73,1.81,-1.81,-1.63,-2.21,-6.50,-6.54,-6.54
243.05,-4.72,1.81,-4.76,1.77,-1.77,-1.58,-2.21,-6.49,-6.53,-6.53
245.48,-4.78,1.73,-4.79,1.73,-1.73,-1.54,-2.21,-6.51,-6.51,-6.51
247.93,-4.82,1.68,-4.82,1.68,-1.68,-1.49,-2.20,-6.50,-6.50,-6.50
250.41,-4.87,1.62,-4.86,1.63,-1.63,-1.44,-2.19,-6.50,-6.48,-6.49
252.92,-4.91,1.55,-4.89,1.57,-1.57,-1.39,-2.17,-6.48,-6.46,-6.46
255.45,-4.96,1.48,-4.93,1.52,-1.52,-1.34,-2.15,-6.48,-6.44,-6.44
258.00,-4.99,1.42,-4.96,1.46,-1.46,-1.29,-2.12,-6.46,-6.42,-6.42
260.58,-5.01,1.39,-4.99,1.41,-1.41,-1.24,-2.08,-6.42,-6.40,-6.40
263.19,-5.04,1.34,-5.02,1.36,-1.36,-1.19,-2.04,-6.41,-6.38,-6.38
265.82,-5.05,1.31,-5.04,1.32,-1.32,-1.15,-2.00,-6.37,-6.36,-6.36
268.48,-5.05,1.29,-5.05,1.28,-1.28,-1.10,-1.95,-6.33,-6.34,-6.34
271.16,-5.06,1.24,-5.07,1.25,-1.25,-1.05,-1.90,-6.31,-6.31,-6.30
273.87,-5.07,1.22,-5.07,1.21,-1.21,-1.01,-1.84,-6.29,-6.29,-6.29
276.61,-5.07,1.19,-5.08,1.18,-1.18,-0.96,-1.78,-6.25,-6.27,-6.26
279.38,-5.08,1.16,-5.09,1.15,-1.15,-0.92,-1.71,-6.23,-6.24,-6.24
282.17,-5.09,1.13,-5.10,1.12,-1.12,-0.88,-1.64,-6.21,-6.22,-6.22
284.99,-5.10,1.09,-5.10,1.09,-1.09,-0.84,-1.57,-6.19,-6.19,-6.19
287.84,-5.11,1.06,-5.11,1.06,-1.06,-0.80,-1.49,-6.17,-6.17,-6.17
290.72,-5.11,1.02,-5.12,1.02,-1.02,-0.76,-1.41,-6.13,-6.14,-6.14
293.63,-5.12,1.00,-5.13,0.98,-0.98,-0.72,-1.33,-6.10,-6.11,-6.12
296.57,-5.14,0.95,-5.14,0.94,-0.94,-0.68,-1.25,-6.08,-6.08,-6.09
299.53,-5.15,0.91,-5.15,0.90,-0.90,-0.65,-1.16,-6.05,-6.05,-6.06
302.53,-5.17,0.86,-5.17,0.85,-0.85,-0.61,-1.07,-6.03,-6.02,-6.04
305.55,-5.19,0.80,-5.19,0.81,-0.81,-0.58,-0.99,-6.00,-5.99,-5.99
308.61,-5.20,0.76,-5.20,0.76,-0.76,-0.54,-0.90,-5.96,-5.96,-5.96
311.69,-5.22,0.71,-5.22,0.71,-0.71,-0.51,-0.80,-5.93,-5.93,-5.93
314.81,-5.23,0.66,-5.24,0.66,-0.66,-0.48,-0.71,-5.89,-5.90,-5.89
317.96,-5.26,0.61,-5.26,0.61,-0.61,-0.44,-0.62,-5.87,-5.87,-5.87
321.14,-5.28,0.56,-5.28,0.56,-0.56,-0.41,-0.53,-5.84,-5.84,-5.84
324.35,-5.30,0.51,-5.30,0.51,-0.51,-0.38,-0.43,-5.81,-5.81,-5.81
327.59,-5.32,0.46,-5.32,0.46,-0.46,-0.35,-0.34,-5.78,-5.78,-5.78
330.87,-5.35,0.40,-5.34,0.41,-0.41,-0.32,-0.24,-5.76,-5.76,-5.75
334.18,-5.37,0.36,-5.37,0.36,-0.36,-0.29,-0.15,-5.73,-5.73,-5.73
337.52,-5.39,0.32,-5.39,0.31,-0.31,-0.26,-0.05,-5.70,-5.71,-5.71
340.90,-5.42,0.26,-5.42,0.26,-0.26,-0.23,0.05,-5.69,-5.68,-5.68
344.30,-5.44,0.22,-5.45,0.22,-0.22,-0.20,0.15,-5.66,-5.66,-5.66
347.75,-5.47,0.16,-5.47,0.17,-0.17,-0.17,0.24,-5.64,-5.64,-5.63
351.23,-5.49,0.13,-5.50,0.12,-0.12,-0.14,0.34,-5.61,-5.62,-5.62
354.74,-5.52,0.08,-5.53,0.07,-0.07,-0.11,0.44,-5.59,-5.60,-5.60
358.28,-5.56,0.02,-5.56,0.02,-0.02,-0.08,0.54,-5.59,-5.58,-5.58
361.87,-5.59,-0.03,-5.59,-0.02,0.02,-0.05,0.64,-5.57,-5.56,-5.56
365.49,-5.62,-0.08,-5.62,-0.07,0.07,-0.02,0.74,-5.55,-5.54,-5.54
369.14,-5.65,-0.12,-5.65,-0.12,0.12,0.01,0.84,-5.53,-5.52,-5.53
372.83,-5.68,-0.17,-5.68,-0.17,0.17,0.04,0.94,-5.51,-5.51,-5.51
376.56,-5.70,-0.21,-5.71,-0.22,0.22,0.07,1.04,-5.48,-5.49,-5.49
380.33,-5.74,-0.28,-5.74,-0.27,0.27,0.10,1.14,-5.47,-5.47,-5.47
384.13,-5.77,-0.32,-5.77,-0.33,0.33,0.13,1.24,-5.44,-5.45,-5.45
387.97,-5.81,-0.38,-5.81,-0.38,0.38,0.17,1.34,-5.43,-5.43,-5.43
391.85,-5.84,-0.43,-5.84,-0.43,0.43,0.20,1.44,-5.41,-5.41,-5.41
395.77,-5.87,-0.49,-5.87,-0.48,0.48,0.23,1.54,-5.39,-5.39,-5.38
399.73,-5.90,-0.54,-5.90,-0.54,0.54,0.27,1.63,-5.36,-5.37,-5.36
403.72,-5.94,-0.60,-5.94,-0.59,0.59,0.31,1.73,-5.35,-5.34,-5.34
407.76,-5.97,-0.64,-5.97,-0.65,0.65,0.34,1.83,-5.32,-5.32,-5.33
411.84,-6.01,-0.71,-6.01,-0.70,0.70,0.38,1.93,-5.31,-5.30,-5.30
415.96,-6.03,-0.75,-6.04,-0.76,0.76,0.42,2.02,-5.27,-5.28,-5.28
420.12,-6.07,-0.81,-6.08,-0.82,0.82,0.47,2.11,-5.25,-5.26,-5.26
424.32,-6.11,-0.88,-6.11,-0.87,0.87,0.51,2.20,-5.24,-5.24,-5.23
428.56,-6.14,-0.93,-6.15,-0.93,0.93,0.56,2.29,-5.21,-5.21,-5.21
432.85,-6.18,-0.99,-6.18,-0.99,0.99,0.60,2.38,-5.19,-5.19,-5.19
437.18,-6.22,-1.06,-6.22,-1.05,1.05,0.65,2.46,-5.17,-5.16,-5.17
441.55,-6.25,-1.11,-6.25,-1.11,1.11,0.71,2.54,-5.14,-5.14,-5.14
445.96,-6.29,-1.17,-6.29,-1.17,1.17,0.76,2.61,-5.12,-5.11,-5.12
450.42,-6.32,-1.22,-6.32,-1.23,1.23,0.82,2.68,-5.09,-5.09,-5.10
454.93,-6.36,-1.30,-6.36,-1.29,1.29,0.88,2.74,-5.07,-5.06,-5.06
459.48,-6.39,-1.35,-6.39,-1.36,1.36,0.94,2.80,-5.04,-5.04,-5.04
