frequency,raw,error,smoothed,error_smoothed,equalization,parametric_eq,fixed_band_eq,equalized_raw,equalized_smoothed,target
20.00,-5.34,-6.13,-5.34,-6.13,6.13,6.37,2.88,0.79,0.79,0.79
20.20,-5.36,-6.15,-5.36,-6.15,6.15,6.37,2.96,0.79,0.79,0.79
20.40,-5.38,-6.17,-5.38,-6.18,6.18,6.37,3.04,0.80,0.80,0.79
20.61,-5.40,-6.19,-5.40,-6.20,6.20,6.37,3.13,0.80,0.80,0.79
20.81,-5.42,-6.21,-5.42,-6.22,6.22,6.36,3.22,0.80,0.79,0.79
21.02,-5.45,-6.24,-5.45,-6.23,6.23,6.36,3.31,0.78,0.79,0.79
21.23,-5.47,-6.24,-5.47,-6.25,6.25,6.36,3.40,0.78,0.78,0.77
21.44,-5.50,-6.26,-5.50,-6.26,6.26,6.36,3.50,0.76,0.76,0.76
21.66,-5.53,-6.27,-5.53,-6.27,6.27,6.35,3.60,0.74,0.74,0.74
21.87,-5.56,-6.28,-5.56,-6.28,6.28,6.35,3.70,0.72,0.72,0.72
22.09,-5.58,-6.29,-5.58,-6.29,6.29,6.35,3.81,0.70,0.70,0.71
22.31,-5.60,-6.28,-5.60,-6.29,6.29,6.34,3.92,0.69,0.68,0.68
22.54,-5.63,-6.29,-5.63,-6.29,6.29,6.34,4.03,0.66,0.66,0.66
22.76,-5.65,-6.29,-5.65,-6.29,6.29,6.34,4.14,0.64,0.63,0.64
22.99,-5.68,-6.29,-5.68,-6.29,6.29,6.33,4.26,0.61,0.61,0.61
23.22,-5.70,-6.28,-5.70,-6.28,6.29,6.33,4.38,0.59,0.59,0.58
23.45,-5.72,-6.27,-5.72,-6.28,6.29,6.32,4.50,0.57,0.57,0.55
23.69,-5.75,-6.29,-5.75,-6.29,6.29,6.32,4.62,0.54,0.55,0.54
23.92,-5.77,-6.29,-5.77,-6.30,6.30,6.32,4.75,0.53,0.53,0.52
24.16,-5.80,-6.31,-5.80,-6.31,6.31,6.31,4.88,0.51,0.51,0.51
24.40,-5.83,-6.32,-5.83,-6.32,6.32,6.31,5.01,0.48,0.49,0.49
24.65,-5.85,-6.32,-5.85,-6.33,6.32,6.30,5.15,0.47,0.47,0.47
24.89,-5.88,-6.33,-5.88,-6.33,6.33,6.30,5.28,0.45,0.45,0.45
25.14,-5.90,-6.34,-5.90,-6.34,6.34,6.30,5.42,0.44,0.44,0.44
25.39,-5.92,-6.34,-5.92,-6.35,6.34,6.29,5.56,0.42,0.42,0.42
25.65,-5.94,-6.35,-5.94,-6.35,6.35,6.29,5.70,0.41,0.41,0.41
25.91,-5.96,-6.34,-5.96,-6.35,6.35,6.28,5.84,0.39,0.39,0.38
26.16,-5.98,-6.35,-5.98,-6.35,6.35,6.28,5.98,0.37,0.37,0.37
26.43,-6.00,-6.36,-6.00,-6.35,6.35,6.27,6.12,0.35,0.36,0.36
26.69,-6.01,-6.34,-6.01,-6.35,6.35,6.27,6.26,0.34,0.34,0.33
26.96,-6.03,-6.35,-6.03,-6.35,6.35,6.26,6.39,0.32,0.33,0.32
27.23,-6.04,-6.35,-6.04,-6.35,6.35,6.26,6.53,0.31,0.31,0.31
27.50,-6.06,-6.36,-6.06,-6.36,6.35,6.25,6.66,0.29,0.29,0.30
27.77,-6.07,-6.35,-6.07,-6.36,6.35,6.25,6.79,0.28,0.28,0.28
28.05,-6.08,-6.35,-6.08,-6.35,6.35,6.24,6.91,0.27,0.27,0.27
28.33,-6.09,-6.34,-6.09,-6.35,6.35,6.24,7.03,0.26,0.26,0.25
28.62,-6.10,-6.34,-6.11,-6.34,6.35,6.23,7.14,0.25,0.24,0.24
28.90,-6.12,-6.34,-6.12,-6.34,6.35,6.22,7.24,0.23,0.23,0.22
29.19,-6.14,-6.34,-6.13,-6.34,6.34,6.22,7.34,0.20,0.21,0.20
29.48,-6.14,-6.34,-6.14,-6.34,6.34,6.21,7.43,0.20,0.20,0.20
29.78,-6.15,-6.34,-6.15,-6.34,6.34,6.21,7.51,0.19,0.19,0.19
30.08,-6.16,-6.34,-6.16,-6.35,6.34,6.20,7.57,0.18,0.17,0.18
30.38,-6.18,-6.34,-6.18,-6.34,6.34,6.19,7.63,0.16,0.16,0.16
30.68,-6.19,-6.34,-6.19,-6.33,6.34,6.18,7.67,0.14,0.15,0.15
30.99,-6.19,-6.31,-6.20,-6.33,6.33,6.18,7.71,0.14,0.14,0.12
31.30,-6.21,-6.32,-6.21,-6.33,6.33,6.17,7.73,0.12,0.12,0.11
31.61,-6.23,-6.33,-6.23,-6.33,6.33,6.16,7.74,0.10,0.10,0.10
31.93,-6.25,-6.33,-6.25,-6.33,6.33,6.16,7.73,0.07,0.07,0.08
32.24,-6.27,-6.32,-6.27,-6.33,6.32,6.15,7.72,0.05,0.05,0.05
32.57,-6.28,-6.31,-6.28,-6.32,6.32,6.14,7.70,0.04,0.03,0.03
32.89,-6.30,-6.32,-6.30,-6.31,6.31,6.13,7.66,0.01,0.02,0.02
33.22,-6.30,-6.29,-6.31,-6.30,6.30,6.12,7.62,0.00,-0.00,-0.01
33.55,-6.32,-6.30,-6.32,-6.30,6.29,6.11,7.56,-0.03,-0.03,-0.02
33.89,-6.33,-6.28,-6.33,-6.28,6.28,6.11,7.50,-0.05,-0.05,-0.05
34.23,-6.34,-6.27,-6.34,-6.27,6.27,6.10,7.43,-0.07,-0.07,-0.07
34.57,-6.34,-6.25,-6.35,-6.26,6.26,6.09,7.35,-0.08,-0.09,-0.09
34.92,-6.35,-6.24,-6.35,-6.24,6.24,6.08,7.27,-0.11,-0.11,-0.11
35.27,-6.36,-6.23,-6.36,-6.23,6.23,6.07,7.18,-0.13,-0.13,-0.13
35.62,-6.36,-6.21,-6.36,-6.22,6.22,6.06,7.09,-0.15,-0.15,-0.15
35.97,-6.37,-6.20,-6.37,-6.20,6.20,6.05,7.00,-0.17,-0.17,-0.17
36.33,-6.37,-6.18,-6.37,-6.19,6.19,6.04,6.90,-0.19,-0.19,-0.19
36.70,-6.38,-6.17,-6.38,-6.17,6.17,6.03,6.80,-0.21,-0.21,-0.21
37.06,-6.38,-6.15,-6.38,-6.15,6.15,6.01,6.71,-0.23,-0.23,-0.23
37.43,-6.38,-6.13,-6.38,-6.13,6.14,6.00,6.61,-0.25,-0.25,-0.25
37.81,-6.39,-6.12,-6.39,-6.12,6.12,5.99,6.51,-0.27,-0.27,-0.27
38.19,-6.39,-6.09,-6.39,-6.10,6.10,5.98,6.41,-0.29,-0.29,-0.30
38.57,-6.40,-6.09,-6.40,-6.08,6.08,5.97,6.31,-0.32,-0.31,-0.31
38.95,-6.39,-6.05,-6.40,-6.06,6.06,5.96,6.22,-0.33,-0.33,-0.34
39.34,-6.40,-6.04,-6.40,-6.04,6.04,5.94,6.13,-0.36,-0.35,-0.36
39.74,-6.40,-6.02,-6.40,-6.02,6.03,5.93,6.04,-0.38,-0.37,-0.38
40.14,-6.40,-6.01,-6.40,-6.01,6.01,5.92,5.95,-0.39,-0.39,-0.39
40.54,-6.40,-5.99,-6.40,-5.99,5.99,5.90,5.87,-0.41,-0.41,-0.41
40.94,-6.40,-5.97,-6.40,-5.97,5.97,5.89,5.79,-0.43,-0.43,-0.43
41.35,-6.40,-5.94,-6.40,-5.95,5.95,5.87,5.71,-0.45,-0.44,-0.46
41.76,-6.39,-5.93,-6.39,-5.93,5.93,5.86,5.64,-0.46,-0.46,-0.46
42.18,-6.39,-5.91,-6.39,-5.91,5.91,5.84,5.57,-0.48,-0.48,-0.48
42.60,-6.39,-5.89,-6.39,-5.90,5.89,5.83,5.51,-0.50,-0.50,-0.50
43.03,-6.39,-5.88,-6.39,-5.87,5.87,5.81,5.45,-0.52,-0.52,-0.51
43.46,-6.38,-5.84,-6.38,-5.85,5.84,5.79,5.39,-0.54,-0.54,-0.54
43.90,-6.37,-5.81,-6.38,-5.82,5.82,5.78,5.34,-0.55,-0.56,-0.56
44.33,-6.37,-5.79,-6.37,-5.79,5.79,5.76,5.29,-0.58,-0.58,-0.58
44.78,-6.37,-5.77,-6.37,-5.77,5.77,5.74,5.24,-0.61,-0.60,-0.60
45.23,-6.36,-5.73,-6.36,-5.74,5.74,5.72,5.20,-0.62,-0.62,-0.63
45.68,-6.35,-5.70,-6.35,-5.71,5.71,5.70,5.17,-0.64,-0.64,-0.65
46.13,-6.34,-5.68,-6.34,-5.68,5.69,5.68,5.13,-0.65,-0.65,-0.66
46.60,-6.33,-5.66,-6.33,-5.66,5.66,5.66,5.10,-0.67,-0.67,-0.67
47.06,-6.32,-5.63,-6.32,-5.63,5.63,5.64,5.08,-0.69,-0.69,-0.69
47.53,-6.31,-5.60,-6.31,-5.61,5.60,5.62,5.06,-0.71,-0.71,-0.71
48.01,-6.30,-5.58,-6.30,-5.58,5.57,5.60,5.04,-0.73,-0.73,-0.72
48.49,-6.30,-5.55,-6.30,-5.55,5.54,5.58,5.02,-0.76,-0.75,-0.75
48.97,-6.29,-5.51,-6.29,-5.51,5.51,5.56,5.01,-0.78,-0.78,-0.78
49.46,-6.28,-5.47,-6.28,-5.47,5.48,5.53,5.00,-0.80,-0.80,-0.81
49.96,-6.27,-5.43,-6.27,-5.44,5.44,5.51,5.00,-0.83,-0.83,-0.84
50.46,-6.25,-5.40,-6.25,-5.40,5.41,5.49,4.99,-0.84,-0.85,-0.85
50.96,-6.24,-5.37,-6.24,-5.37,5.37,5.46,4.99,-0.87,-0.87,-0.87
51.47,-6.23,-5.33,-6.23,-5.34,5.34,5.43,4.99,-0.89,-0.89,-0.90
51.99,-6.22,-5.30,-6.22,-5.31,5.30,5.41,4.99,-0.92,-0.92,-0.92
52.51,-6.21,-5.27,-6.21,-5.27,5.27,5.38,5.00,-0.94,-0.94,-0.94
53.03,-6.20,-5.24,-6.20,-5.24,5.23,5.35,5.00,-0.97,-0.96,-0.96
53.56,-6.18,-5.19,-6.18,-5.20,5.20,5.32,5.01,-0.98,-0.98,-0.99
54.10,-6.16,-5.15,-6.17,-5.16,5.16,5.30,5.01,-1.00,-1.01,-1.01
54.64,-6.16,-5.12,-6.16,-5.12,5.12,5.27,5.02,-1.04,-1.03,-1.04
55.18,-6.15,-5.09,-6.15,-5.09,5.09,5.24,5.02,-1.07,-1.06,-1.06
55.74,-6.13,-5.04,-6.13,-5.05,5.05,5.20,5.03,-1.08,-1.09,-1.09
56.29,-6.12,-5.01,-6.12,-5.01,5.01,5.17,5.03,-1.11,-1.11,-1.11
56.86,-6.10,-4.96,-6.10,-4.97,4.97,5.14,5.03,-1.13,-1.13,-1.14
57.42,-6.09,-4.93,-6.09,-4.93,4.93,5.10,5.03,-1.16,-1.16,-1.16
58.00,-6.07,-4.89,-6.07,-4.89,4.89,5.07,5.02,-1.18,-1.18,-1.18
58.58,-6.06,-4.85,-6.06,-4.86,4.86,5.03,5.01,-1.21,-1.20,-1.21
59.16,-6.04,-4.81,-6.04,-4.81,4.82,5.00,5.00,-1.22,-1.23,-1.23
59.76,-6.03,-4.78,-6.03,-4.78,4.78,4.96,4.99,-1.25,-1.25,-1.25
60.35,-6.01,-4.73,-6.01,-4.74,4.73,4.92,4.97,-1.28,-1.28,-1.28
60.96,-6.00,-4.70,-6.00,-4.70,4.69,4.88,4.95,-1.31,-1.31,-1.30
61.57,-5.99,-4.65,-5.99,-4.65,4.65,4.84,4.92,-1.34,-1.34,-1.34
62.18,-5.97,-4.60,-5.97,-4.60,4.60,4.80,4.88,-1.37,-1.37,-1.37
62.80,-5.95,-4.55,-5.96,-4.56,4.56,4.76,4.85,-1.39,-1.40,-1.40
63.43,-5.94,-4.51,-5.94,-4.51,4.52,4.72,4.80,-1.42,-1.42,-1.43
64.07,-5.93,-4.47,-5.92,-4.47,4.47,4.67,4.75,-1.46,-1.45,-1.46
64.71,-5.90,-4.42,-5.91,-4.43,4.43,4.63,4.70,-1.47,-1.48,-1.48
65.35,-5.89,-4.39,-5.89,-4.39,4.39,4.58,4.64,-1.50,-1.50,-1.50
66.01,-5.88,-4.36,-5.88,-4.35,4.35,4.54,4.58,-1.53,-1.52,-1.52
66.67,-5.86,-4.31,-5.86,-4.32,4.31,4.49,4.52,-1.55,-1.55,-1.55
67.33,-5.84,-4.27,-5.84,-4.27,4.27,4.44,4.45,-1.57,-1.57,-1.57
68.01,-5.83,-4.23,-5.82,-4.23,4.23,4.39,4.37,-1.60,-1.60,-1.60
68.69,-5.80,-4.18,-5.81,-4.19,4.19,4.34,4.29,-1.61,-1.62,-1.62
69.37,-5.79,-4.14,-5.79,-4.14,4.14,4.29,4.21,-1.65,-1.65,-1.65
70.07,-5.77,-4.09,-5.77,-4.09,4.10,4.23,4.13,-1.67,-1.67,-1.68
70.77,-5.75,-4.05,-5.75,-4.05,4.05,4.18,4.05,-1.70,-1.70,-1.70
71.48,-5.73,-4.00,-5.73,-4.01,4.00,4.12,3.96,-1.73,-1.73,-1.73
72.19,-5.72,-3.96,-5.72,-3.96,3.96,4.07,3.87,-1.77,-1.76,-1.76
72.91,-5.70,-3.90,-5.70,-3.91,3.91,4.01,3.78,-1.80,-1.80,-1.80
73.64,-5.68,-3.85,-5.68,-3.86,3.85,3.95,3.69,-1.83,-1.83,-1.83
74.38,-5.67,-3.81,-5.66,-3.80,3.80,3.89,3.60,-1.87,-1.86,-1.86
75.12,-5.64,-3.73,-5.65,-3.75,3.75,3.83,3.50,-1.89,-1.90,-1.91
75.87,-5.63,-3.69,-5.63,-3.69,3.69,3.77,3.41,-1.94,-1.94,-1.94
76.63,-5.61,-3.64,-5.61,-3.63,3.64,3.71,3.32,-1.97,-1.97,-1.97
77.40,-5.59,-3.58,-5.59,-3.58,3.58,3.64,3.23,-2.01,-2.01,-2.01
78.17,-5.57,-3.50,-5.57,-3.52,3.52,3.58,3.14,-2.05,-2.05,-2.07
78.95,-5.55,-3.46,-5.56,-3.46,3.46,3.51,3.04,-2.09,-2.09,-2.09
79.74,-5.54,-3.41,-5.54,-3.40,3.40,3.45,2.95,-2.14,-2.14,-2.13
80.54,-5.52,-3.34,-5.52,-3.34,3.34,3.38,2.87,-2.18,-2.18,-2.18
81.35,-5.49,-3.27,-5.50,-3.28,3.28,3.31,2.78,-2.22,-2.22,-2.22
82.16,-5.47,-3.20,-5.47,-3.21,3.21,3.24,2.69,-2.26,-2.26,-2.27
82.98,-5.46,-3.15,-5.46,-3.14,3.15,3.17,2.61,-2.31,-2.31,-2.31
83.81,-5.44,-3.07,-5.44,-3.08,3.08,3.10,2.52,-2.36,-2.36,-2.37
84.65,-5.43,-3.02,-5.42,-3.02,3.02,3.03,2.44,-2.41,-2.41,-2.41
85.50,-5.40,-2.95,-5.41,-2.95,2.95,2.95,2.36,-2.45,-2.46,-2.45
86.35,-5.38,-2.88,-5.39,-2.89,2.88,2.88,2.28,-2.50,-2.50,-2.50
87.22,-5.37,-2.82,-5.36,-2.81,2.81,2.81,2.21,-2.56,-2.55,-2.55
88.09,-5.34,-2.73,-5.34,-2.74,2.74,2.73,2.13,-2.60,-2.60,-2.61
88.97,-5.32,-2.67,-5.32,-2.67,2.67,2.66,2.06,-2.65,-2.65,-2.65
89.86,-5.30,-2.60,-5.30,-2.60,2.60,2.58,1.98,-2.70,-2.70,-2.70
90.76,-5.28,-2.52,-5.28,-2.53,2.53,2.50,1.91,-2.75,-2.75,-2.76
91.66,-5.26,-2.45,-5.26,-2.45,2.45,2.42,1.84,-2.81,-2.81,-2.81
92.58,-5.24,-2.37,-5.24,-2.38,2.38,2.34,1.77,-2.86,-2.86,-2.87
93.51,-5.22,-2.31,-5.22,-2.31,2.31,2.27,1.71,-2.91,-2.91,-2.91
94.44,-5.19,-2.23,-5.20,-2.23,2.23,2.19,1.64,-2.96,-2.97,-2.96
95.39,-5.18,-2.16,-5.18,-2.16,2.15,2.11,1.58,-3.03,-3.02,-3.02
96.34,-5.16,-2.07,-5.16,-2.08,2.08,2.03,1.52,-3.08,-3.08,-3.09
97.30,-5.14,-2.00,-5.14,-2.00,2.00,1.95,1.45,-3.14,-3.14,-3.14
98.28,-5.11,-1.91,-5.11,-1.91,1.92,1.86,1.40,-3.20,-3.20,-3.20
99.26,-5.09,-1.82,-5.09,-1.83,1.83,1.78,1.34,-3.26,-3.26,-3.27
100.25,-5.07,-1.75,-5.07,-1.75,1.75,1.70,1.28,-3.32,-3.32,-3.32
101.25,-5.05,-1.67,-5.05,-1.67,1.67,1.62,1.22,-3.38,-3.38,-3.38
102.27,-5.03,-1.58,-5.03,-1.58,1.59,1.54,1.17,-3.45,-3.45,-3.45
103.29,-5.01,-1.49,-5.01,-1.50,1.50,1.46,1.11,-3.51,-3.51,-3.52
104.32,-4.99,-1.42,-4.99,-1.42,1.42,1.38,1.06,-3.57,-3.57,-3.57
105.37,-4.97,-1.34,-4.97,-1.34,1.34,1.30,1.01,-3.63,-3.64,-3.63
106.42,-4.96,-1.26,-4.96,-1.26,1.26,1.22,0.96,-3.71,-3.70,-3.70
107.48,-4.94,-1.17,-4.94,-1.17,1.17,1.13,0.91,-3.77,-3.77,-3.77
108.56,-4.92,-1.08,-4.92,-1.09,1.09,1.05,0.86,-3.83,-3.83,-3.84
109.64,-4.90,-1.00,-4.90,-1.00,1.01,0.97,0.81,-3.90,-3.90,-3.90
110.74,-4.88,-0.92,-4.88,-0.92,0.92,0.90,0.77,-3.96,-3.96,-3.96
111.85,-4.87,-0.84,-4.87,-0.84,0.83,0.82,0.72,-4.04,-4.03,-4.03
112.97,-4.85,-0.74,-4.85,-0.75,0.75,0.74,0.68,-4.10,-4.10,-4.11
114.10,-4.84,-0.67,-4.83,-0.66,0.66,0.66,0.63,-4.18,-4.17,-4.17
115.24,-4.81,-0.57,-4.82,-0.58,0.58,0.58,0.59,-4.23,-4.24,-4.24
116.39,-4.80,-0.49,-4.80,-0.49,0.50,0.51,0.55,-4.30,-4.30,-4.31
117.55,-4.79,-0.41,-4.79,-0.41,0.42,0.43,0.51,-4.38,-4.37,-4.38
118.73,-4.77,-0.33,-4.77,-0.34,0.34,0.35,0.47,-4.43,-4.44,-4.44
119.92,-4.76,-0.26,-4.76,-0.26,0.26,0.28,0.43,-4.50,-4.50,-4.50
121.12,-4.74,-0.18,-4.74,-0.18,0.18,0.21,0.39,-4.56,-4.56,-4.56
122.33,-4.73,-0.10,-4.73,-0.11,0.11,0.13,0.35,-4.62,-4.62,-4.63
123.55,-4.72,-0.04,-4.72,-0.04,0.04,0.06,0.32,-4.68,-4.68,-4.68
124.79,-4.70,0.04,-4.70,0.03,-0.03,-0.01,0.28,-4.74,-4.74,-4.74
126.03,-4.69,0.10,-4.69,0.10,-0.11,-0.08,0.24,-4.80,-4.80,-4.79
127.29,-4.68,0.17,-4.68,0.17,-0.18,-0.14,0.21,-4.86,-4.85,-4.85
128.57,-4.67,0.25,-4.67,0.24,-0.24,-0.21,0.17,-4.91,-4.91,-4.92
129.85,-4.65,0.32,-4.66,0.31,-0.31,-0.28,0.14,-4.96,-4.97,-4.97
131.15,-4.65,0.37,-4.65,0.38,-0.37,-0.34,0.11,-5.02,-5.02,-5.02
132.46,-4.63,0.45,-4.64,0.44,-0.43,-0.40,0.07,-5.07,-5.07,-5.08
133.79,-4.63,0.49,-4.63,0.49,-0.49,-0.47,0.04,-5.12,-5.12,-5.12
135.12,-4.62,0.56,-4.62,0.55,-0.55,-0.53,0.01,-5.17,-5.17,-5.18
136.48,-4.62,0.59,-4.62,0.59,-0.60,-0.58,-0.02,-5.22,-5.21,-5.21
137.84,-4.61,0.64,-4.61,0.64,-0.64,-0.64,-0.05,-5.25,-5.25,-5.25
139.22,-4.60,0.70,-4.60,0.69,-0.69,-0.70,-0.09,-5.29,-5.29,-5.30
140.61,-4.60,0.74,-4.60,0.73,-0.73,-0.75,-0.12,-5.33,-5.33,-5.34
142.02,-4.59,0.77,-4.59,0.77,-0.77,-0.81,-0.15,-5.36,-5.36,-5.36
143.44,-4.59,0.80,-4.59,0.81,-0.81,-0.86,-0.18,-5.40,-5.40,-5.39
144.87,-4.58,0.85,-4.58,0.84,-0.84,-0.91,-0.21,-5.43,-5.43,-5.43
146.32,-4.57,0.89,-4.57,0.88,-0.88,-0.95,-0.24,-5.45,-5.45,-5.46
147.78,-4.57,0.91,-4.57,0.92,-0.91,-1.00,-0.27,-5.49,-5.48,-5.48
149.26,-4.56,0.95,-4.56,0.95,-0.95,-1.05,-0.31,-5.51,-5.51,-5.51
150.75,-4.56,0.99,-4.56,0.98,-0.98,-1.09,-0.34,-5.54,-5.54,-5.55
152.26,-4.56,1.01,-4.56,1.01,-1.01,-1.13,-0.37,-5.57,-5.57,-5.57
153.78,-4.55,1.05,-4.55,1.05,-1.05,-1.17,-0.40,-5.60,-5.60,-5.60
155.32,-4.54,1.08,-4.55,1.07,-1.08,-1.21,-0.44,-5.62,-5.62,-5.62
156.88,-4.54,1.11,-4.54,1.11,-1.11,-1.25,-0.47,-5.65,-5.65,-5.65
158.44,-4.54,1.14,-4.54,1.14,-1.14,-1.28,-0.51,-5.68,-5.68,-5.68
160.03,-4.53,1.18,-4.54,1.17,-1.17,-1.32,-0.54,-5.70,-5.71,-5.71
161.63,-4.54,1.20,-4.53,1.20,-1.20,-1.35,-0.58,-5.74,-5.74,-5.74
163.24,-4.53,1.24,-4.53,1.23,-1.23,-1.38,-0.61,-5.76,-5.76,-5.77
164.88,-4.52,1.27,-4.52,1.26,-1.26,-1.41,-0.65,-5.78,-5.79,-5.79
166.53,-4.52,1.29,-4.52,1.29,-1.29,-1.44,-0.69,-5.81,-5.81,-5.81
168.19,-4.52,1.33,-4.52,1.32,-1.32,-1.46,-0.73,-5.84,-5.84,-5.85
169.87,-4.53,1.35,-4.53,1.35,-1.35,-1.48,-0.77,-5.88,-5.88,-5.88
171.57,-4.52,1.39,-4.53,1.38,-1.38,-1.51,-0.81,-5.90,-5.91,-5.91
173.29,-4.53,1.40,-4.53,1.41,-1.41,-1.53,-0.85,-5.94,-5.94,-5.93
175.02,-4.52,1.45,-4.53,1.44,-1.44,-1.55,-0.89,-5.96,-5.97,-5.97
176.77,-4.53,1.48,-4.53,1.48,-1.47,-1.57,-0.93,-6.01,-6.00,-6.01
178.54,-4.53,1.52,-4.53,1.51,-1.51,-1.58,-0.98,-6.04,-6.04,-6.05
180.32,-4.54,1.54,-4.54,1.54,-1.54,-1.60,-1.02,-6.08,-6.08,-6.08
182.13,-4.55,1.56,-4.55,1.56,-1.57,-1.61,-1.07,-6.12,-6.12,-6.11
183.95,-4.56,1.59,-4.56,1.59,-1.60,-1.62,-1.11,-6.16,-6.15,-6.15
185.79,-4.56,1.63,-4.56,1.63,-1.62,-1.63,-1.16,-6.18,-6.19,-6.19
187.65,-4.56,1.67,-4.57,1.66,-1.65,-1.64,-1.21,-6.21,-6.21,-6.23
189.52,-4.58,1.68,-4.57,1.68,-1.67,-1.65,-1.26,-6.25,-6.24,-6.26
191.42,-4.58,1.70,-4.59,1.69,-1.69,-1.65,-1.30,-6.27,-6.28,-6.28
193.33,-4.60,1.70,-4.60,1.70,-1.71,-1.66,-1.35,-6.31,-6.31,-6.30
195.27,-4.61,1.72,-4.61,1.72,-1.73,-1.66,-1.40,-6.34,-6.34,-6.33
197.22,-4.63,1.73,-4.63,1.74,-1.74,-1.66,-1.45,-6.37,-6.37,-6.36
199.19,-4.64,1.77,-4.64,1.75,-1.75,-1.67,-1.50,-6.39,-6.39,-6.41
201.18,-4.65,1.77,-4.66,1.77,-1.76,-1.67,-1.55,-6.41,-6.41,-6.42
203.19,-4.67,1.77,-4.67,1.77,-1.77,-1.66,-1.60,-6.44,-6.43,-6.44
205.23,-4.68,1.78,-4.68,1.77,-1.78,-1.66,-1.65,-6.46,-6.46,-6.46
207.28,-4.69,1.78,-4.70,1.78,-1.78,-1.66,-1.70,-6.47,-6.48,-6.47
209.35,-4.71,1.79,-4.71,1.79,-1.79,-1.65,-1.75,-6.50,-6.49,-6.50
211.44,-4.72,1.80,-4.72,1.80,-1.79,-1.65,-1.80,-6.51,-6.52,-6.52
213.56,-4.73,1.81,-4.73,1.80,-1.80,-1.64,-1.85,-6.53,-6.54,-6.54
215.69,-4.74,1.80,-4.74,1.80,-1.81,-1.63,-1.89,-6.55,-6.55,-6.54
217.85,-4.74,1.81,-4.74,1.82,-1.83,-1.62,-1.93,-6.57,-6.57,-6.55
220.03,-4.73,1.85,-4.73,1.84,-1.84,-1.61,-1.97,-6.57,-6.57,-6.58
222.23,-4.72,1.87,-4.72,1.86,-1.86,-1.60,-2.01,-6.58,-6.58,-6.59
224.45,-4.71,1.87,-4.71,1.88,-1.88,-1.59,-2.05,-6.59,-6.58,-6.58
226.70,-4.70,1.89,-4.69,1.89,-1.89,-1.57,-2.08,-6.59,-6.59,-6.59
228.96,-4.67,1.92,-4.68,1.90,-1.91,-1.56,-2.11,-6.58,-6.59,-6.59
231.25,-4.67,1.91,-4.67,1.91,-1.91,-1.54,-2.13,-6.59,-6.58,-6.58
233.57,-4.66,1.91,-4.66,1.92,-1.91,-1.53,-2.15,-6.57,-6.57,-6.57
235.90,-4.66,1.91,-4.66,1.91,-1.90,-1.51,-2.17,-6.56,-6.56,-6.57
238.26,-4.66,1.91,-4.67,1.90,-1.88,-1.49,-2.18,-6.54,-6.54,-6.57
240.64,-4.69,1.86,-4.69,1.86,-1.84,-1.47,-2.19,-6.53,-6.53,-6.55
243.05,-4.72,1.81,-4.73,1.80,-1.79,-1.45,-2.19,-6.52,-6.52,-6.53
245.48,-4.78,1.73,-4.77,1.74,-1.74,-1.43,-2.19,-6.52,-6.51,-6.51
247.93,-4.82,1.68,-4.82,1.68,-1.68,-1.41,-2.18,-6.50,-6.50,-6.50
250.41,-4.87,1.62,-4.87,1.61,-1.61,-1.39,-2.16,-6.48,-6.48,-6.49
252.92,-4.91,1.54,-4.92,1.54,-1.55,-1.37,-2.15,-6.46,-6.46,-6.45
255.45,-4.96,1.47,-4.96,1.47,-1.49,-1.34,-2.12,-6.45,-6.44,-6.43
258.00,-4.99,1.42,-4.99,1.42,-1.43,-1.32,-2.09,-6.42,-6.42,-6.41
260.58,-5.01,1.38,-5.02,1.37,-1.38,-1.29,-2.05,-6.39,-6.40,-6.39
263.19,-5.04,1.33,-5.04,1.33,-1.33,-1.27,-2.01,-6.38,-6.37,-6.37
265.82,-5.05,1.30,-5.05,1.30,-1.30,-1.24,-1.96,-6.35,-6.34,-6.35
268.48,-5.05,1.27,-5.06,1.26,-1.26,-1.21,-1.91,-6.31,-6.32,-6.32
271.16,-5.06,1.23,-5.06,1.23,-1.23,-1.19,-1.86,-6.29,-6.29,-6.29
273.87,-5.07,1.20,-5.07,1.20,-1.20,-1.16,-1.80,-6.27,-6.26,-6.27
276.61,-5.07,1.17,-5.07,1.17,-1.17,-1.13,-1.73,-6.24,-6.24,-6.24
279.38,-5.08,1.14,-5.08,1.14,-1.14,-1.10,-1.67,-6.22,-6.22,-6.22
282.17,-5.09,1.11,-5.09,1.10,-1.10,-1.07,-1.60,-6.19,-6.19,-6.20
284.99,-5.10,1.07,-5.10,1.07,-1.07,-1.04,-1.52,-6.17,-6.17,-6.17
287.84,-5.11,1.04,-5.11,1.04,-1.04,-1.01,-1.44,-6.15,-6.14,-6.15
290.72,-5.11,1.00,-5.11,1.00,-1.00,-0.97,-1.36,-6.11,-6.11,-6.11
293.63,-5.12,0.97,-5.12,0.96,-0.96,-0.94,-1.28,-6.08,-6.08,-6.09
296.57,-5.14,0.92,-5.14,0.92,-0.92,-0.91,-1.20,-6.06,-6.05,-6.06
299.53,-5.15,0.88,-5.15,0.88,-0.87,-0.87,-1.11,-6.02,-6.03,-6.03
302.53,-5.17,0.84,-5.17,0.83,-0.83,-0.84,-1.02,-6.00,-6.00,-6.01
305.55,-5.19,0.77,-5.19,0.78,-0.78,-0.80,-0.93,-5.97,-5.96,-5.96
308.61,-5.20,0.73,-5.20,0.72,-0.73,-0.77,-0.84,-5.93,-5.93,-5.93
311.69,-5.22,0.67,-5.22,0.67,-0.68,-0.73,-0.75,-5.90,-5.89,-5.89
314.81,-5.23,0.63,-5.24,0.62,-0.62,-0.70,-0.65,-5.85,-5.86,-5.86
317.96,-5.26,0.57,-5.26,0.57,-0.57,-0.66,-0.56,-5.83,-5.83,-5.83
321.14,-5.28,0.52,-5.28,0.52,-0.52,-0.62,-0.46,-5.80,-5.80,-5.80
324.35,-5.30,0.48,-5.30,0.47,-0.47,-0.58,-0.37,-5.77,-5.77,-5.78
327.59,-5.32,0.42,-5.32,0.42,-0.42,-0.54,-0.27,-5.74,-5.74,-5.74
330.87,-5.35,0.36,-5.35,0.37,-0.37,-0.50,-0.17,-5.72,-5.71,-5.71
334.18,-5.37,0.32,-5.37,0.32,-0.32,-0.46,-0.07,-5.69,-5.69,-5.69
337.52,-5.39,0.28,-5.39,0.27,-0.27,-0.42,0.02,-5.66,-5.66,-5.67
340.90,-5.42,0.22,-5.42,0.22,-0.22,-0.38,0.12,-5.64,-5.64,-5.64
344.30,-5.44,0.18,-5.44,0.17,-0.17,-0.33,0.22,-5.61,-5.62,-5.62
347.75,-5.47,0.12,-5.47,0.12,-0.12,-0.29,0.32,-5.59,-5.59,-5.59
351.23,-5.49,0.08,-5.49,0.08,-0.07,-0.25,0.42,-5.57,-5.57,-5.57
354.74,-5.52,0.04,-5.52,0.03,-0.03,-0.20,0.52,-5.55,-5.55,-5.56
358.28,-5.56,-0.02,-5.56,-0.02,0.02,-0.16,0.63,-5.54,-5.53,-5.54
361.87,-5.59,-0.07,-5.59,-0.08,0.07,-0.11,0.73,-5.52,-5.52,-5.52
365.49,-5.62,-0.13,-5.62,-0.13,0.12,-0.06,0.83,-5.50,-5.50,-5.49
369.14,-5.65,-0.17,-5.65,-0.17,0.17,-0.02,0.93,-5.48,-5.48,-5.48
372.83,-5.68,-0.21,-5.68,-0.22,0.22,0.03,1.03,-5.46,-5.46,-5.47
376.56,-5.70,-0.25,-5.71,-0.26,0.27,0.08,1.14,-5.43,-5.44,-5.45
380.33,-5.74,-0.32,-5.74,-0.32,0.32,0.13,1.24,-5.42,-5.42,-5.42
384.13,-5.77,-0.37,-5.77,-0.37,0.37,0.18,1.34,-5.40,-5.40,-5.40
387.97,-5.81,-0.43,-5.81,-0.43,0.43,0.23,1.45,-5.38,-5.38,-5.38
391.85,-5.84,-0.48,-5.84,-0.49,0.48,0.29,1.55,-5.36,-5.36,-5.36
395.77,-5.87,-0.54,-5.87,-0.54,0.54,0.34,1.65,-5.33,-5.34,-5.33
399.73,-5.90,-0.59,-5.90,-0.59,0.59,0.39,1.75,-5.31,-5.31,-5.31
403.72,-5.94,-0.64,-5.94,-0.65,0.65,0.45,1.85,-5.30,-5.29,-5.30
407.76,-5.97,-0.69,-5.97,-0.70,0.70,0.50,1.95,-5.27,-5.27,-5.28
411.84,-6.01,-0.76,-6.00,-0.75,0.75,0.56,2.05,-5.26,-5.25,-5.25
415.96,-6.03,-0.80,-6.04,-0.81,0.81,0.62,2.15,-5.22,-5.23,-5.23
420.12,-6.07,-0.86,-6.07,-0.87,0.87,0.68,2.25,-5.20,-5.20,-5.21
424.32,-6.11,-0.93,-6.11,-0.92,0.93,0.74,2.34,-5.18,-5.18,-5.18
428.56,-6.14,-0.98,-6.15,-0.99,0.99,0.80,2.43,-5.15,-5.16,-5.16
432.85,-6.18,-1.04,-6.18,-1.05,1.05,0.86,2.52,-5.13,-5.13,-5.14
437.18,-6.22,-1.11,-6.22,-1.11,1.11,0.92,2.60,-5.11,-5.11,-5.11
441.55,-6.25,-1.17,-6.25,-1.17,1.17,0.98,2.69,-5.08,-5.09,-5.08
445.96,-6.29,-1.23,-6.29,-1.23,1.23,1.05,2.76,-5.06,-5.06,-5.06
450.42,-6.32,-1.27,-6.32,-1.29,1.29,1.11,2.83,-5.03,-5.04,-5.05
