frequency,raw,error,smoothed,error_smoothed,equalization,parametric_eq,fixed_band_eq,equalized_raw,equalized_smoothed,target
20.00,-1.87,-6.26,-1.90,-6.32,6.32,5.58,2.43,4.44,4.41,4.39
20.20,-1.86,-6.30,-1.88,-6.33,6.33,5.64,2.50,4.47,4.45,4.44
20.40,-1.84,-6.33,-1.85,-6.34,6.34,5.71,2.57,4.50,4.49,4.49
20.61,-1.83,-6.35,-1.82,-6.35,6.35,5.78,2.64,4.51,4.52,4.52
20.81,-1.81,-6.38,-1.80,-6.35,6.35,5.84,2.72,4.53,4.55,4.57
21.02,-1.80,-6.41,-1.77,-6.35,6.35,5.90,2.80,4.54,4.58,4.61
21.23,-1.76,-6.39,-1.74,-6.34,6.34,5.95,2.88,4.58,4.61,4.63
21.44,-1.71,-6.36,-1.71,-6.34,6.34,6.01,2.96,4.62,4.63,4.65
21.66,-1.67,-6.34,-1.67,-6.32,6.32,6.06,3.05,4.65,4.65,4.67
21.87,-1.63,-6.31,-1.64,-6.31,6.31,6.10,3.13,4.68,4.67,4.68
22.09,-1.60,-6.30,-1.61,-6.29,6.29,6.14,3.22,4.69,4.68,4.70
22.31,-1.56,-6.27,-1.57,-6.27,6.27,6.18,3.32,4.71,4.70,4.71
22.54,-1.53,-6.24,-1.53,-6.24,6.24,6.22,3.41,4.70,4.70,4.71
22.76,-1.50,-6.21,-1.49,-6.20,6.20,6.25,3.51,4.70,4.71,4.71
22.99,-1.46,-6.16,-1.45,-6.16,6.16,6.27,3.61,4.70,4.71,4.70
23.22,-1.42,-6.12,-1.41,-6.12,6.12,6.29,3.71,4.70,4.71,4.70
23.45,-1.37,-6.07,-1.38,-6.09,6.09,6.31,3.82,4.71,4.71,4.70
23.69,-1.33,-6.04,-1.34,-6.05,6.05,6.32,3.92,4.71,4.71,4.71
23.92,-1.28,-5.99,-1.30,-6.01,6.01,6.33,4.03,4.73,4.71,4.71
24.16,-1.25,-5.96,-1.26,-5.97,5.97,6.33,4.14,4.72,4.71,4.71
24.40,-1.22,-5.94,-1.23,-5.94,5.94,6.33,4.25,4.71,4.71,4.72
24.65,-1.19,-5.90,-1.19,-5.90,5.90,6.33,4.37,4.71,4.71,4.71
24.89,-1.16,-5.87,-1.16,-5.86,5.86,6.32,4.48,4.70,4.71,4.71
25.14,-1.13,-5.84,-1.12,-5.83,5.83,6.30,4.60,4.70,4.71,4.71
25.39,-1.09,-5.81,-1.09,-5.80,5.80,6.28,4.72,4.71,4.71,4.72
25.65,-1.05,-5.77,-1.06,-5.77,5.77,6.26,4.84,4.72,4.71,4.72
25.91,-1.01,-5.72,-1.03,-5.74,5.74,6.23,4.96,4.73,4.71,4.71
26.16,-0.98,-5.69,-1.00,-5.71,5.71,6.20,5.08,4.73,4.71,4.71
26.43,-0.96,-5.67,-0.97,-5.68,5.68,6.17,5.19,4.71,4.71,4.71
26.69,-0.93,-5.64,-0.93,-5.64,5.64,6.13,5.31,4.71,4.71,4.71
26.96,-0.90,-5.61,-0.90,-5.60,5.60,6.09,5.43,4.69,4.70,4.71
27.23,-0.88,-5.59,-0.86,-5.56,5.56,6.04,5.54,4.68,4.70,4.71
27.50,-0.85,-5.56,-0.83,-5.53,5.53,5.99,5.65,4.67,4.70,4.71
27.77,-0.82,-5.52,-0.80,-5.50,5.50,5.94,5.76,4.67,4.70,4.70
28.05,-0.79,-5.49,-0.76,-5.46,5.46,5.89,5.86,4.67,4.70,4.70
28.33,-0.73,-5.42,-0.73,-5.43,5.43,5.84,5.96,4.70,4.70,4.69
28.62,-0.66,-5.35,-0.70,-5.40,5.40,5.78,6.05,4.73,4.69,4.69
28.90,-0.60,-5.30,-0.67,-5.36,5.36,5.72,6.14,4.76,4.69,4.70
29.19,-0.59,-5.28,-0.64,-5.33,5.33,5.66,6.22,4.73,4.69,4.69
29.48,-0.59,-5.29,-0.60,-5.29,5.29,5.60,6.29,4.70,4.69,4.70
29.78,-0.60,-5.29,-0.57,-5.26,5.26,5.54,6.36,4.66,4.69,4.69
30.08,-0.60,-5.30,-0.55,-5.23,5.23,5.48,6.41,4.63,4.69,4.70
30.38,-0.55,-5.24,-0.52,-5.21,5.21,5.42,6.46,4.66,4.69,4.69
30.68,-0.50,-5.19,-0.50,-5.19,5.19,5.36,6.50,4.68,4.68,4.69
30.99,-0.45,-5.14,-0.49,-5.17,5.17,5.29,6.52,4.72,4.68,4.69
31.30,-0.44,-5.12,-0.47,-5.15,5.15,5.23,6.54,4.71,4.68,4.68
31.61,-0.42,-5.10,-0.46,-5.13,5.13,5.17,6.55,4.71,4.68,4.68
31.93,-0.40,-5.08,-0.44,-5.11,5.11,5.11,6.55,4.71,4.67,4.68
32.24,-0.40,-5.07,-0.41,-5.08,5.08,5.05,6.54,4.68,4.67,4.67
32.57,-0.41,-5.08,-0.39,-5.06,5.06,4.99,6.52,4.64,4.67,4.67
32.89,-0.42,-5.09,-0.37,-5.03,5.03,4.93,6.49,4.60,4.66,4.67
33.22,-0.39,-5.05,-0.35,-5.00,5.00,4.87,6.45,4.61,4.66,4.66
33.55,-0.35,-5.01,-0.33,-4.98,4.98,4.81,6.41,4.62,4.65,4.66
33.89,-0.31,-4.96,-0.31,-4.96,4.96,4.76,6.36,4.64,4.65,4.65
34.23,-0.27,-4.92,-0.29,-4.93,4.93,4.70,6.30,4.66,4.64,4.65
34.57,-0.23,-4.87,-0.27,-4.91,4.91,4.65,6.23,4.67,4.64,4.64
34.92,-0.19,-4.83,-0.24,-4.88,4.88,4.60,6.17,4.68,4.64,4.64
35.27,-0.19,-4.82,-0.22,-4.85,4.85,4.55,6.09,4.66,4.63,4.63
35.62,-0.20,-4.83,-0.20,-4.83,4.83,4.51,6.02,4.62,4.63,4.63
35.97,-0.22,-4.85,-0.18,-4.80,4.80,4.47,5.94,4.58,4.63,4.63
36.33,-0.18,-4.81,-0.16,-4.78,4.78,4.42,5.86,4.60,4.63,4.63
36.70,-0.14,-4.76,-0.14,-4.77,4.77,4.39,5.78,4.62,4.62,4.62
37.06,-0.10,-4.72,-0.13,-4.75,4.75,4.35,5.69,4.65,4.62,4.62
37.43,-0.10,-4.73,-0.12,-4.75,4.75,4.32,5.61,4.64,4.62,4.63
37.81,-0.10,-4.73,-0.12,-4.74,4.74,4.29,5.53,4.64,4.62,4.63
38.19,-0.10,-4.72,-0.11,-4.74,4.74,4.26,5.45,4.63,4.63,4.62
38.57,-0.10,-4.73,-0.11,-4.73,4.73,4.24,5.36,4.63,4.63,4.63
38.95,-0.10,-4.74,-0.10,-4.73,4.73,4.22,5.28,4.63,4.63,4.64
39.34,-0.10,-4.73,-0.10,-4.73,4.73,4.20,5.21,4.62,4.63,4.63
39.74,-0.10,-4.73,-0.10,-4.72,4.72,4.19,5.13,4.62,4.63,4.63
40.14,-0.10,-4.73,-0.10,-4.72,4.72,4.18,5.06,4.62,4.63,4.63
40.54,-0.10,-4.73,-0.10,-4.72,4.72,4.17,4.99,4.62,4.62,4.63
40.94,-0.10,-4.72,-0.10,-4.72,4.72,4.17,4.92,4.62,4.62,4.62
41.35,-0.10,-4.72,-0.10,-4.72,4.72,4.17,4.85,4.62,4.62,4.62
41.76,-0.10,-4.71,-0.10,-4.71,4.71,4.18,4.79,4.61,4.61,4.61
42.18,-0.10,-4.71,-0.10,-4.70,4.70,4.19,4.73,4.60,4.60,4.61
42.60,-0.10,-4.70,-0.10,-4.69,4.69,4.21,4.68,4.59,4.59,4.60
43.03,-0.10,-4.69,-0.10,-4.68,4.68,4.23,4.63,4.58,4.58,4.59
43.46,-0.10,-4.68,-0.10,-4.67,4.67,4.26,4.58,4.57,4.57,4.58
43.90,-0.10,-4.66,-0.10,-4.66,4.66,4.29,4.53,4.55,4.55,4.56
44.33,-0.10,-4.64,-0.10,-4.65,4.65,4.32,4.49,4.54,4.54,4.54
44.78,-0.10,-4.62,-0.10,-4.63,4.63,4.36,4.45,4.53,4.53,4.52
45.23,-0.10,-4.61,-0.10,-4.61,4.61,4.41,4.42,4.51,4.52,4.51
45.68,-0.10,-4.60,-0.09,-4.59,4.59,4.45,4.39,4.49,4.50,4.50
46.13,-0.10,-4.58,-0.09,-4.58,4.58,4.51,4.36,4.47,4.49,4.48
46.60,-0.10,-4.58,-0.09,-4.56,4.56,4.56,4.34,4.46,4.47,4.48
47.06,-0.10,-4.56,-0.09,-4.54,4.54,4.62,4.32,4.44,4.46,4.46
47.53,-0.10,-4.55,-0.09,-4.53,4.53,4.69,4.30,4.43,4.44,4.45
48.01,-0.10,-4.55,-0.10,-4.52,4.52,4.75,4.28,4.42,4.43,4.45
48.49,-0.10,-4.53,-0.11,-4.53,4.53,4.82,4.27,4.43,4.42,4.43
48.97,-0.10,-4.51,-0.14,-4.54,4.54,4.88,4.26,4.44,4.40,4.41
49.46,-0.11,-4.50,-0.17,-4.56,4.56,4.95,4.25,4.44,4.39,4.39
49.96,-0.12,-4.49,-0.20,-4.58,4.58,5.01,4.25,4.46,4.38,4.37
50.46,-0.20,-4.56,-0.24,-4.61,4.61,5.07,4.25,4.40,4.36,4.36
50.96,-0.29,-4.64,-0.29,-4.64,4.64,5.12,4.25,4.35,4.35,4.35
51.47,-0.32,-4.65,-0.34,-4.68,4.68,5.17,4.25,4.36,4.34,4.33
51.99,-0.35,-4.67,-0.40,-4.72,4.72,5.20,4.25,4.37,4.32,4.32
52.51,-0.48,-4.79,-0.46,-4.77,4.77,5.23,4.25,4.29,4.31,4.31
53.03,-0.60,-4.91,-0.52,-4.82,4.82,5.24,4.26,4.21,4.30,4.31
53.56,-0.61,-4.90,-0.58,-4.86,4.86,5.24,4.26,4.25,4.29,4.29
54.10,-0.62,-4.90,-0.63,-4.90,4.90,5.23,4.27,4.28,4.27,4.28
54.64,-0.67,-4.93,-0.67,-4.94,4.94,5.20,4.27,4.27,4.26,4.26
55.18,-0.71,-4.97,-0.71,-4.97,4.97,5.15,4.27,4.25,4.25,4.26
55.74,-0.74,-4.98,-0.74,-4.98,4.98,5.09,4.28,4.24,4.24,4.24
56.29,-0.77,-5.00,-0.76,-4.99,4.99,5.02,4.28,4.21,4.23,4.23
56.86,-0.79,-5.01,-0.76,-4.98,4.98,4.93,4.28,4.18,4.22,4.22
57.42,-0.78,-4.97,-0.76,-4.96,4.96,4.83,4.27,4.17,4.20,4.19
58.00,-0.76,-4.94,-0.74,-4.92,4.92,4.73,4.27,4.16,4.18,4.18
58.58,-0.73,-4.90,-0.72,-4.88,4.88,4.61,4.26,4.14,4.16,4.17
59.16,-0.69,-4.84,-0.70,-4.83,4.83,4.48,4.25,4.14,4.13,4.15
59.76,-0.66,-4.79,-0.67,-4.78,4.78,4.35,4.23,4.11,4.10,4.13
60.35,-0.63,-4.72,-0.64,-4.72,4.72,4.21,4.21,4.09,4.07,4.09
60.96,-0.58,-4.63,-0.61,-4.65,4.65,4.07,4.19,4.07,4.04,4.05
61.57,-0.53,-4.54,-0.57,-4.57,4.57,3.93,4.16,4.04,4.00,4.01
62.18,-0.48,-4.45,-0.52,-4.48,4.48,3.79,4.13,4.00,3.97,3.97
62.80,-0.40,-4.32,-0.47,-4.39,4.39,3.65,4.09,3.99,3.93,3.92
63.43,-0.39,-4.27,-0.41,-4.29,4.29,3.51,4.05,3.89,3.88,3.88
64.07,-0.39,-4.22,-0.34,-4.18,4.18,3.38,4.00,3.79,3.84,3.83
64.71,-0.34,-4.13,-0.27,-4.07,4.07,3.24,3.95,3.72,3.79,3.79
65.35,-0.27,-4.02,-0.20,-3.95,3.95,3.11,3.89,3.67,3.75,3.75
66.01,-0.17,-3.87,-0.13,-3.83,3.83,2.99,3.83,3.65,3.70,3.70
66.67,-0.08,-3.73,-0.05,-3.70,3.70,2.87,3.77,3.62,3.65,3.65
67.33,0.02,-3.58,0.03,-3.58,3.58,2.75,3.70,3.60,3.60,3.60
68.01,0.15,-3.41,0.11,-3.45,3.45,2.63,3.63,3.59,3.55,3.56
68.69,0.22,-3.29,0.18,-3.32,3.32,2.52,3.55,3.54,3.50,3.51
69.37,0.31,-3.15,0.26,-3.19,3.19,2.42,3.48,3.50,3.45,3.46
70.07,0.41,-3.00,0.33,-3.07,3.07,2.31,3.40,3.47,3.40,3.41
70.77,0.45,-2.91,0.41,-2.94,2.94,2.22,3.31,3.39,3.35,3.36
71.48,0.48,-2.83,0.47,-2.82,2.82,2.12,3.23,3.29,3.29,3.31
72.19,0.52,-2.72,0.54,-2.70,2.70,2.03,3.14,3.22,3.24,3.24
72.91,0.55,-2.63,0.59,-2.59,2.59,1.94,3.05,3.14,3.18,3.18
73.64,0.65,-2.48,0.64,-2.49,2.49,1.86,2.96,3.13,3.12,3.13
74.38,0.71,-2.36,0.68,-2.39,2.39,1.78,2.87,3.10,3.07,3.07
75.12,0.71,-2.30,0.71,-2.30,2.30,1.70,2.78,3.01,3.01,3.01
75.87,0.71,-2.24,0.74,-2.21,2.21,1.62,2.69,2.92,2.96,2.95
76.63,0.77,-2.13,0.78,-2.13,2.13,1.55,2.60,2.89,2.90,2.90
77.40,0.81,-2.04,0.81,-2.04,2.04,1.48,2.51,2.85,2.85,2.85
78.17,0.83,-1.96,0.84,-1.96,1.96,1.42,2.41,2.79,2.80,2.79
78.95,0.91,-1.84,0.87,-1.88,1.88,1.35,2.32,2.78,2.74,2.75
79.74,0.91,-1.79,0.89,-1.80,1.80,1.29,2.23,2.71,2.70,2.70
80.54,0.90,-1.75,0.92,-1.73,1.73,1.23,2.14,2.63,2.65,2.65
81.35,0.91,-1.69,0.94,-1.66,1.66,1.17,2.05,2.57,2.60,2.60
82.16,0.93,-1.62,0.95,-1.60,1.60,1.12,1.96,2.53,2.55,2.55
82.98,1.01,-1.50,0.97,-1.54,1.54,1.06,1.87,2.54,2.50,2.51
83.81,1.01,-1.45,0.98,-1.48,1.48,1.01,1.79,2.49,2.46,2.46
84.65,1.01,-1.40,0.98,-1.42,1.42,0.96,1.70,2.43,2.41,2.41
85.50,1.01,-1.36,0.99,-1.37,1.37,0.91,1.61,2.38,2.36,2.37
86.35,1.01,-1.31,0.99,-1.32,1.32,0.86,1.53,2.32,2.31,2.32
87.22,1.01,-1.26,1.00,-1.26,1.26,0.81,1.45,2.26,2.26,2.27
88.09,1.01,-1.21,1.01,-1.20,1.20,0.77,1.36,2.20,2.21,2.22
88.97,1.01,-1.15,1.03,-1.13,1.13,0.72,1.28,2.14,2.16,2.16
89.86,1.01,-1.10,1.05,-1.06,1.06,0.68,1.20,2.07,2.11,2.11
90.76,1.01,-1.05,1.06,-0.99,0.99,0.64,1.12,2.00,2.06,2.06
91.66,1.02,-0.99,1.08,-0.93,0.93,0.59,1.04,1.95,2.01,2.01
92.58,1.05,-0.90,1.09,-0.86,0.86,0.55,0.97,1.91,1.96,1.95
93.51,1.11,-0.79,1.11,-0.79,0.79,0.51,0.89,1.90,1.91,1.90
94.44,1.17,-0.69,1.13,-0.73,0.73,0.48,0.81,1.89,1.86,1.86
95.39,1.22,-0.59,1.14,-0.66,0.66,0.44,0.74,1.88,1.81,1.81
96.34,1.21,-0.55,1.16,-0.60,0.60,0.40,0.66,1.81,1.76,1.76
97.30,1.21,-0.50,1.17,-0.54,0.54,0.36,0.59,1.75,1.71,1.71
98.28,1.20,-0.46,1.17,-0.49,0.49,0.33,0.52,1.68,1.66,1.66
99.26,1.18,-0.44,1.17,-0.44,0.44,0.29,0.45,1.62,1.61,1.62
100.25,1.17,-0.40,1.17,-0.39,0.39,0.26,0.38,1.56,1.56,1.57
101.25,1.15,-0.37,1.16,-0.36,0.36,0.22,0.31,1.50,1.52,1.52
102.27,1.14,-0.33,1.14,-0.32,0.32,0.19,0.24,1.46,1.47,1.47
103.29,1.12,-0.30,1.12,-0.30,0.30,0.15,0.17,1.41,1.42,1.42
104.32,1.10,-0.28,1.10,-0.27,0.27,0.12,0.11,1.37,1.37,1.38
105.37,1.08,-0.25,1.07,-0.25,0.25,0.09,0.04,1.32,1.32,1.33
106.42,1.05,-0.23,1.05,-0.22,0.22,0.05,-0.02,1.27,1.27,1.28
107.48,1.03,-0.19,1.03,-0.19,0.19,0.02,-0.08,1.22,1.22,1.22
108.56,1.01,-0.16,1.00,-0.16,0.16,-0.01,-0.14,1.17,1.16,1.17
109.64,0.99,-0.13,0.98,-0.13,0.13,-0.04,-0.20,1.12,1.11,1.12
110.74,0.97,-0.09,0.96,-0.09,0.09,-0.07,-0.26,1.06,1.06,1.06
111.85,0.95,-0.07,0.95,-0.06,0.06,-0.10,-0.32,1.00,1.01,1.02
112.97,0.94,-0.02,0.95,-0.01,0.01,-0.14,-0.37,0.95,0.96,0.96
114.10,0.93,0.02,0.94,0.03,-0.03,-0.17,-0.42,0.89,0.91,0.91
115.24,0.93,0.07,0.95,0.08,-0.08,-0.20,-0.47,0.84,0.86,0.86
116.39,0.93,0.12,0.96,0.14,-0.14,-0.23,-0.52,0.79,0.82,0.81
117.55,0.94,0.17,0.97,0.19,-0.19,-0.26,-0.57,0.75,0.78,0.77
118.73,0.94,0.21,0.98,0.24,-0.24,-0.29,-0.61,0.69,0.74,0.73
119.92,0.95,0.25,0.99,0.29,-0.29,-0.32,-0.66,0.65,0.70,0.70
121.12,1.04,0.38,1.00,0.34,-0.34,-0.35,-0.70,0.70,0.66,0.66
122.33,1.06,0.43,1.01,0.39,-0.39,-0.38,-0.73,0.67,0.63,0.63
123.55,1.07,0.47,1.02,0.43,-0.43,-0.41,-0.77,0.64,0.60,0.60
124.79,1.08,0.51,1.03,0.47,-0.47,-0.45,-0.80,0.61,0.56,0.57
126.03,1.09,0.55,1.04,0.51,-0.51,-0.48,-0.83,0.58,0.53,0.54
127.29,1.09,0.57,1.05,0.54,-0.54,-0.51,-0.86,0.54,0.50,0.52
128.57,1.07,0.59,1.05,0.57,-0.57,-0.54,-0.89,0.49,0.47,0.48
129.85,1.01,0.56,1.05,0.60,-0.60,-0.57,-0.91,0.40,0.45,0.45
131.15,1.01,0.59,1.05,0.63,-0.63,-0.60,-0.94,0.38,0.42,0.42
132.46,1.01,0.62,1.04,0.65,-0.65,-0.63,-0.96,0.36,0.39,0.39
133.79,1.02,0.66,1.03,0.67,-0.67,-0.66,-0.98,0.35,0.36,0.36
135.12,1.02,0.69,1.02,0.69,-0.69,-0.69,-0.99,0.33,0.33,0.33
136.48,1.03,0.72,1.02,0.71,-0.71,-0.72,-1.01,0.32,0.31,0.31
137.84,1.03,0.76,1.02,0.74,-0.74,-0.76,-1.02,0.29,0.28,0.27
139.22,1.03,0.79,1.02,0.77,-0.77,-0.79,-1.04,0.25,0.25,0.24
140.61,1.03,0.82,1.03,0.81,-0.81,-0.82,-1.05,0.21,0.22,0.21
142.02,1.03,0.84,1.04,0.86,-0.86,-0.85,-1.06,0.17,0.19,0.19
143.44,1.03,0.87,1.05,0.90,-0.90,-0.88,-1.07,0.12,0.15,0.16
144.87,1.03,0.91,1.06,0.95,-0.95,-0.92,-1.08,0.08,0.11,0.12
146.32,1.03,0.95,1.07,1.00,-1.00,-0.95,-1.09,0.02,0.07,0.08
147.78,1.11,1.06,1.09,1.06,-1.06,-0.98,-1.10,0.04,0.02,0.05
149.26,1.13,1.13,1.09,1.12,-1.12,-1.01,-1.11,0.00,-0.03,-0.00
150.75,1.13,1.19,1.09,1.18,-1.18,-1.04,-1.12,-0.05,-0.09,-0.06
152.26,1.13,1.26,1.07,1.23,-1.23,-1.08,-1.13,-0.10,-0.15,-0.13
153.78,1.13,1.33,1.06,1.28,-1.28,-1.11,-1.14,-0.15,-0.22,-0.20
155.32,1.06,1.33,1.05,1.33,-1.33,-1.14,-1.15,-0.28,-0.29,-0.27
156.88,1.03,1.38,1.03,1.39,-1.39,-1.18,-1.16,-0.36,-0.36,-0.35
158.44,1.03,1.46,1.02,1.45,-1.45,-1.21,-1.17,-0.42,-0.43,-0.43
160.03,1.03,1.54,1.00,1.50,-1.50,-1.24,-1.18,-0.47,-0.50,-0.51
161.63,1.03,1.61,0.99,1.55,-1.55,-1.27,-1.20,-0.52,-0.56,-0.58
163.24,0.94,1.58,0.97,1.59,-1.59,-1.31,-1.21,-0.66,-0.62,-0.64
164.88,0.84,1.53,0.96,1.63,-1.63,-1.34,-1.22,-0.80,-0.68,-0.69
166.53,0.82,1.56,0.95,1.67,-1.67,-1.37,-1.24,-0.86,-0.73,-0.74
168.19,0.89,1.67,0.94,1.71,-1.71,-1.40,-1.26,-0.82,-0.77,-0.78
169.87,0.99,1.81,0.94,1.74,-1.74,-1.44,-1.27,-0.75,-0.80,-0.82
171.57,1.00,1.84,0.94,1.77,-1.77,-1.47,-1.29,-0.77,-0.82,-0.84
173.29,1.00,1.85,0.95,1.79,-1.79,-1.50,-1.31,-0.80,-0.84,-0.85
175.02,0.99,1.85,0.96,1.81,-1.81,-1.53,-1.33,-0.83,-0.86,-0.86
176.77,0.99,1.86,0.96,1.83,-1.83,-1.56,-1.35,-0.85,-0.87,-0.87
178.54,0.99,1.87,0.98,1.85,-1.85,-1.59,-1.38,-0.86,-0.88,-0.88
180.32,0.99,1.86,0.99,1.87,-1.87,-1.63,-1.40,-0.89,-0.88,-0.87
182.13,1.00,1.86,1.01,1.90,-1.90,-1.66,-1.43,-0.90,-0.89,-0.86
183.95,1.01,1.88,1.03,1.92,-1.92,-1.69,-1.45,-0.91,-0.89,-0.87
185.79,1.02,1.89,1.04,1.93,-1.93,-1.71,-1.48,-0.92,-0.90,-0.87
187.65,1.03,1.92,1.04,1.95,-1.95,-1.74,-1.51,-0.92,-0.91,-0.89
189.52,1.05,1.95,1.05,1.96,-1.96,-1.77,-1.54,-0.92,-0.92,-0.90
191.42,1.06,1.98,1.06,1.99,-1.99,-1.80,-1.57,-0.93,-0.93,-0.92
193.33,1.08,2.02,1.07,2.01,-2.01,-1.83,-1.60,-0.94,-0.94,-0.94
195.27,1.09,2.05,1.08,2.04,-2.04,-1.85,-1.63,-0.96,-0.96,-0.96
197.22,1.10,2.08,1.10,2.08,-2.08,-1.88,-1.67,-0.98,-0.98,-0.98
199.19,1.12,2.12,1.11,2.11,-2.11,-1.90,-1.70,-0.99,-1.00,-1.00
201.18,1.12,2.14,1.12,2.14,-2.14,-1.93,-1.73,-1.02,-1.02,-1.02
203.19,1.13,2.17,1.12,2.16,-2.16,-1.95,-1.77,-1.04,-1.04,-1.04
205.23,1.13,2.19,1.12,2.19,-2.19,-1.97,-1.80,-1.06,-1.06,-1.06
207.28,1.13,2.20,1.12,2.20,-2.20,-1.99,-1.84,-1.08,-1.08,-1.07
209.35,1.13,2.22,1.11,2.21,-2.21,-2.01,-1.87,-1.09,-1.10,-1.09
211.44,1.13,2.25,1.10,2.22,-2.22,-2.03,-1.91,-1.10,-1.12,-1.12
213.56,1.12,2.25,1.09,2.23,-2.23,-2.05,-1.94,-1.11,-1.13,-1.13
215.69,1.12,2.26,1.08,2.23,-2.23,-2.06,-1.98,-1.11,-1.15,-1.14
217.85,1.11,2.26,1.07,2.23,-2.23,-2.08,-2.01,-1.12,-1.16,-1.15
220.03,1.04,2.20,1.06,2.22,-2.22,-2.09,-2.04,-1.19,-1.17,-1.16
222.23,1.01,2.20,1.05,2.22,-2.22,-2.10,-2.07,-1.21,-1.17,-1.19
224.45,1.01,2.19,1.04,2.21,-2.21,-2.12,-2.10,-1.21,-1.18,-1.18
226.70,1.01,2.19,1.03,2.21,-2.21,-2.12,-2.13,-1.20,-1.17,-1.18
228.96,1.01,2.18,1.03,2.20,-2.20,-2.13,-2.16,-1.19,-1.17,-1.17
231.25,1.02,2.18,1.03,2.19,-2.19,-2.14,-2.18,-1.18,-1.16,-1.16
233.57,1.03,2.18,1.03,2.18,-2.18,-2.14,-2.20,-1.16,-1.15,-1.15
235.90,1.04,2.18,1.04,2.18,-2.18,-2.15,-2.22,-1.14,-1.14,-1.14
238.26,1.06,2.19,1.06,2.18,-2.18,-2.15,-2.23,-1.12,-1.12,-1.13
240.64,1.08,2.18,1.08,2.18,-2.18,-2.15,-2.25,-1.11,-1.10,-1.10
243.05,1.09,2.16,1.10,2.18,-2.18,-2.15,-2.26,-1.10,-1.08,-1.07
245.48,1.11,2.16,1.12,2.18,-2.18,-2.15,-2.26,-1.07,-1.06,-1.05
247.93,1.14,2.16,1.14,2.17,-2.17,-2.14,-2.27,-1.03,-1.03,-1.02
250.41,1.16,2.16,1.14,2.15,-2.15,-2.14,-2.27,-0.99,-1.01,-1.00
252.92,1.17,2.14,1.14,2.13,-2.13,-2.13,-2.26,-0.96,-0.98,-0.97
255.45,1.18,2.13,1.14,2.10,-2.10,-2.12,-2.26,-0.92,-0.96,-0.95
258.00,1.19,2.12,1.13,2.07,-2.07,-2.11,-2.25,-0.88,-0.94,-0.93
260.58,1.20,2.11,1.12,2.03,-2.03,-2.10,-2.24,-0.83,-0.91,-0.91
263.19,1.19,2.07,1.10,1.99,-1.99,-2.09,-2.22,-0.80,-0.89,-0.88
265.82,1.09,1.95,1.09,1.95,-1.95,-2.08,-2.20,-0.86,-0.86,-0.86
268.48,1.01,1.85,1.07,1.91,-1.91,-2.06,-2.18,-0.90,-0.84,-0.84
271.16,0.99,1.80,1.05,1.86,-1.86,-2.05,-2.16,-0.88,-0.81,-0.81
273.87,0.99,1.78,1.03,1.82,-1.82,-2.03,-2.13,-0.83,-0.79,-0.79
276.61,0.98,1.74,1.02,1.78,-1.78,-2.01,-2.10,-0.81,-0.76,-0.76
279.38,0.98,1.71,1.01,1.75,-1.75,-2.00,-2.07,-0.77,-0.73,-0.73
282.17,0.99,1.70,1.00,1.71,-1.71,-1.98,-2.04,-0.72,-0.71,-0.71
284.99,0.99,1.66,1.00,1.68,-1.68,-1.95,-2.01,-0.69,-0.68,-0.67
287.84,1.00,1.65,0.99,1.64,-1.64,-1.93,-1.97,-0.65,-0.65,-0.65
290.72,1.01,1.63,0.99,1.61,-1.61,-1.91,-1.94,-0.61,-0.62,-0.62
293.63,1.02,1.61,1.00,1.59,-1.59,-1.89,-1.90,-0.57,-0.59,-0.59
296.57,1.04,1.60,1.01,1.57,-1.57,-1.86,-1.86,-0.53,-0.56,-0.56
299.53,1.05,1.58,1.01,1.55,-1.55,-1.84,-1.82,-0.50,-0.53,-0.53
302.53,1.06,1.57,1.02,1.53,-1.53,-1.81,-1.79,-0.47,-0.51,-0.51
305.55,1.05,1.52,1.02,1.50,-1.50,-1.79,-1.75,-0.46,-0.48,-0.47
308.61,0.99,1.44,1.02,1.48,-1.48,-1.76,-1.71,-0.49,-0.46,-0.45
311.69,0.99,1.41,1.02,1.45,-1.45,-1.74,-1.67,-0.46,-0.43,-0.42
314.81,0.99,1.39,1.01,1.42,-1.42,-1.71,-1.64,-0.44,-0.41,-0.40
317.96,0.99,1.37,1.00,1.39,-1.39,-1.68,-1.60,-0.41,-0.39,-0.38
321.14,0.99,1.36,0.99,1.36,-1.36,-1.65,-1.56,-0.37,-0.37,-0.37
324.35,0.99,1.34,0.97,1.33,-1.33,-1.63,-1.53,-0.34,-0.35,-0.35
327.59,0.99,1.33,0.95,1.29,-1.29,-1.60,-1.49,-0.31,-0.34,-0.34
330.87,0.99,1.32,0.94,1.26,-1.26,-1.57,-1.46,-0.28,-0.33,-0.33
334.18,0.96,1.27,0.92,1.24,-1.24,-1.54,-1.43,-0.28,-0.31,-0.31
337.52,0.89,1.19,0.90,1.21,-1.21,-1.51,-1.39,-0.32,-0.30,-0.30
340.90,0.88,1.17,0.89,1.18,-1.18,-1.48,-1.36,-0.31,-0.30,-0.29
344.30,0.88,1.16,0.87,1.16,-1.16,-1.46,-1.33,-0.28,-0.29,-0.28
347.75,0.82,1.10,0.85,1.13,-1.13,-1.43,-1.30,-0.31,-0.28,-0.28
351.23,0.79,1.06,0.82,1.10,-1.10,-1.40,-1.27,-0.32,-0.28,-0.27
354.74,0.79,1.07,0.81,1.08,-1.08,-1.37,-1.25,-0.30,-0.28,-0.28
358.28,0.79,1.06,0.79,1.06,-1.06,-1.34,-1.22,-0.28,-0.27,-0.27
361.87,0.80,1.07,0.78,1.05,-1.05,-1.31,-1.20,-0.25,-0.27,-0.27
365.49,0.80,1.06,0.76,1.03,-1.03,-1.29,-1.17,-0.24,-0.27,-0.26
369.14,0.74,1.01,0.75,1.02,-1.02,-1.26,-1.15,-0.29,-0.27,-0.27
372.83,0.72,0.99,0.74,1.02,-1.02,-1.23,-1.13,-0.30,-0.27,-0.27
376.56,0.72,1.00,0.74,1.01,-1.01,-1.20,-1.10,-0.29,-0.27,-0.28
380.33,0.73,1.00,0.73,1.00,-1.00,-1.17,-1.08,-0.28,-0.28,-0.27
384.13,0.74,1.01,0.72,1.00,-1.00,-1.15,-1.06,-0.27,-0.28,-0.27
387.97,0.74,1.02,0.72,1.00,-1.00,-1.12,-1.05,-0.27,-0.29,-0.28
391.85,0.75,1.04,0.71,1.00,-1.00,-1.09,-1.03,-0.25,-0.29,-0.29
395.77,0.70,0.98,0.69,0.99,-0.99,-1.07,-1.01,-0.29,-0.30,-0.28
399.73,0.66,0.95,0.67,0.97,-0.97,-1.04,-1.00,-0.32,-0.30,-0.29
403.72,0.64,0.93,0.65,0.96,-0.96,-1.01,-0.98,-0.32,-0.31,-0.29
407.76,0.64,0.95,0.63,0.94,-0.94,-0.99,-0.97,-0.30,-0.31,-0.31
411.84,0.64,0.95,0.61,0.92,-0.92,-0.96,-0.95,-0.29,-0.31,-0.31
415.96,0.64,0.95,0.59,0.91,-0.91,-0.94,-0.94,-0.27,-0.31,-0.31
420.12,0.64,0.95,0.58,0.89,-0.89,-0.91,-0.93,-0.25,-0.31,-0.31
424.32,0.58,0.89,0.57,0.87,-0.87,-0.88,-0.91,-0.30,-0.31,-0.31
428.56,0.53,0.83,0.56,0.85,-0.85,-0.86,-0.90,-0.33,-0.30,-0.30
432.85,0.48,0.77,0.56,0.84,-0.84,-0.84,-0.89,-0.36,-0.28,-0.29
437.18,0.49,0.77,0.56,0.82,-0.82,-0.81,-0.88,-0.34,-0.26,-0.28
441.55,0.53,0.77,0.58,0.81,-0.81,-0.79,-0.87,-0.29,-0.23,-0.24
445.96,0.57,0.78,0.60,0.80,-0.80,-0.76,-0.86,-0.24,-0.20,-0.21
450.42,0.63,0.81,0.63,0.80,-0.80,-0.74,-0.85,-0.17,-0.17,-0.18
454.93,0.68,0.81,0.67,0.79,-0.79,-0.72,-0.83,-0.12,-0.13,-0.13
459.48,0.74,0.83,0.70,0.79,-0.79,-0.69,-0.82,-0.05,-0.08,-0.09
464.07,0.75,0.79,0.74,0.78,-0.78,-0.67,-0.81,-0.03,-0.04,-0.04
468.71,0.77,0.75,0.78,0.77,-0.77,-0.65,-0.80,-0.00,0.01,0.02
473.40,0.82,0.76,0.82,0.76,-0.76,-0.63,-0.79,0.06,0.06,0.06
478.13,0.88,0.76,0.85,0.74,-0.74,-0.61,-0.78,0.13,0.11,0.12
482.91,0.92,0.76,0.88,0.73,-0.73,-0.58,-0.77,0.19,0.15,0.16
487.74,0.96,0.76,0.90,0.71,-0.71,-0.56,-0.75,0.25,0.20,0.20
492.62,1.00,0.75,0.92,0.69,-0.69,-0.54,-0.74,0.30,0.23,0.25
497.55,0.98,0.71,0.94,0.67,-0.67,-0.52,-0.73,0.30,0.26,0.27
502.52,0.89,0.59,0.94,0.66,-0.66,-0.50,-0.71,0.23,0.29,0.30
507.55,0.87,0.56,0.94,0.64,-0.64,-0.48,-0.70,0.23,0.30,0.31
