frequency,raw,error,smoothed,error_smoothed,equalization,parametric_eq,fixed_band_eq,equalized_raw,equalized_smoothed,target
20.00,-1.87,-7.40,-1.90,-7.46,7.46,6.77,2.97,5.58,5.55,5.52
20.20,-1.86,-7.44,-1.88,-7.47,7.47,6.84,3.06,5.60,5.59,5.57
20.40,-1.84,-7.47,-1.85,-7.48,7.48,6.90,3.14,5.63,5.62,5.62
20.61,-1.83,-7.48,-1.82,-7.48,7.48,6.96,3.23,5.65,5.66,5.65
20.81,-1.81,-7.52,-1.80,-7.48,7.48,7.02,3.32,5.67,5.69,5.70
21.02,-1.80,-7.54,-1.77,-7.48,7.48,7.07,3.42,5.68,5.71,5.74
21.23,-1.76,-7.52,-1.74,-7.48,7.48,7.12,3.51,5.71,5.74,5.76
21.44,-1.71,-7.49,-1.71,-7.47,7.47,7.17,3.61,5.75,5.76,5.78
21.66,-1.67,-7.47,-1.67,-7.46,7.46,7.21,3.72,5.78,5.78,5.80
21.87,-1.63,-7.44,-1.64,-7.44,7.44,7.25,3.82,5.81,5.80,5.81
22.09,-1.60,-7.43,-1.61,-7.42,7.42,7.28,3.93,5.82,5.81,5.83
22.31,-1.56,-7.40,-1.57,-7.40,7.40,7.31,4.04,5.84,5.83,5.84
22.54,-1.53,-7.37,-1.53,-7.37,7.37,7.33,4.16,5.83,5.83,5.84
22.76,-1.50,-7.34,-1.49,-7.33,7.33,7.35,4.27,5.83,5.84,5.84
22.99,-1.46,-7.29,-1.45,-7.29,7.29,7.36,4.39,5.83,5.84,5.83
23.22,-1.42,-7.25,-1.41,-7.25,7.25,7.37,4.52,5.83,5.84,5.82
23.45,-1.37,-7.20,-1.38,-7.22,7.22,7.38,4.64,5.84,5.84,5.82
23.69,-1.33,-7.17,-1.34,-7.18,7.18,7.37,4.77,5.84,5.84,5.83
23.92,-1.28,-7.12,-1.30,-7.14,7.14,7.37,4.90,5.86,5.84,5.83
24.16,-1.25,-7.09,-1.26,-7.10,7.10,7.36,5.04,5.85,5.84,5.84
24.40,-1.22,-7.07,-1.23,-7.07,7.07,7.34,5.17,5.84,5.84,5.85
24.65,-1.19,-7.03,-1.19,-7.03,7.03,7.32,5.31,5.83,5.84,5.84
24.89,-1.16,-7.00,-1.16,-6.99,6.99,7.30,5.45,5.83,5.84,5.84
25.14,-1.13,-6.97,-1.12,-6.96,6.96,7.27,5.59,5.83,5.84,5.84
25.39,-1.09,-6.94,-1.09,-6.93,6.93,7.24,5.74,5.84,5.84,5.85
25.65,-1.05,-6.90,-1.06,-6.90,6.90,7.20,5.88,5.85,5.84,5.85
25.91,-1.01,-6.85,-1.03,-6.87,6.87,7.16,6.03,5.86,5.84,5.83
26.16,-0.98,-6.82,-1.00,-6.84,6.84,7.11,6.17,5.86,5.84,5.83
26.43,-0.96,-6.80,-0.97,-6.80,6.80,7.07,6.32,5.84,5.84,5.83
26.69,-0.93,-6.76,-0.93,-6.77,6.77,7.02,6.46,5.83,5.83,5.83
26.96,-0.90,-6.74,-0.90,-6.73,6.73,6.97,6.60,5.82,5.83,5.84
27.23,-0.88,-6.72,-0.86,-6.69,6.69,6.91,6.74,5.81,5.83,5.84
27.50,-0.85,-6.69,-0.83,-6.66,6.66,6.85,6.88,5.80,5.83,5.84
27.77,-0.82,-6.65,-0.80,-6.62,6.62,6.79,7.02,5.80,5.83,5.82
28.05,-0.79,-6.62,-0.76,-6.59,6.59,6.73,7.14,5.80,5.82,5.82
28.33,-0.73,-6.54,-0.73,-6.56,6.56,6.67,7.27,5.82,5.82,5.81
28.62,-0.66,-6.47,-0.70,-6.52,6.52,6.61,7.38,5.86,5.82,5.81
28.90,-0.60,-6.42,-0.67,-6.49,6.49,6.54,7.49,5.88,5.82,5.82
29.19,-0.59,-6.40,-0.64,-6.45,6.45,6.48,7.59,5.86,5.82,5.81
29.48,-0.59,-6.42,-0.60,-6.42,6.42,6.41,7.68,5.82,5.81,5.82
29.78,-0.60,-6.42,-0.57,-6.38,6.38,6.35,7.77,5.78,5.81,5.81
30.08,-0.60,-6.42,-0.55,-6.36,6.36,6.28,7.84,5.75,5.81,5.82
30.38,-0.55,-6.36,-0.52,-6.33,6.33,6.21,7.90,5.78,5.81,5.81
30.68,-0.50,-6.31,-0.50,-6.31,6.31,6.15,7.94,5.81,5.81,5.81
30.99,-0.45,-6.26,-0.49,-6.29,6.29,6.08,7.98,5.84,5.80,5.80
31.30,-0.44,-6.25,-0.47,-6.27,6.27,6.02,8.00,5.83,5.80,5.80
31.61,-0.42,-6.22,-0.46,-6.25,6.25,5.95,8.01,5.83,5.80,5.80
31.93,-0.40,-6.20,-0.44,-6.23,6.23,5.89,8.01,5.83,5.79,5.80
32.24,-0.40,-6.19,-0.41,-6.20,6.20,5.83,8.00,5.80,5.79,5.78
32.57,-0.41,-6.20,-0.39,-6.17,6.17,5.77,7.97,5.76,5.79,5.79
32.89,-0.42,-6.21,-0.37,-6.15,6.15,5.71,7.94,5.72,5.78,5.79
33.22,-0.39,-6.17,-0.35,-6.12,6.12,5.65,7.89,5.73,5.78,5.77
33.55,-0.35,-6.13,-0.33,-6.10,6.10,5.60,7.83,5.74,5.77,5.77
33.89,-0.31,-6.07,-0.31,-6.07,6.07,5.55,7.77,5.76,5.76,5.76
34.23,-0.27,-6.04,-0.29,-6.05,6.05,5.49,7.70,5.77,5.76,5.77
34.57,-0.23,-5.99,-0.27,-6.02,6.02,5.45,7.62,5.79,5.75,5.75
34.92,-0.19,-5.94,-0.24,-5.99,5.99,5.40,7.53,5.80,5.75,5.75
35.27,-0.19,-5.94,-0.22,-5.97,5.97,5.35,7.44,5.77,5.75,5.74
35.62,-0.20,-5.94,-0.20,-5.94,5.94,5.31,7.35,5.74,5.74,5.74
35.97,-0.22,-5.96,-0.18,-5.92,5.92,5.27,7.26,5.69,5.74,5.74
36.33,-0.18,-5.93,-0.16,-5.89,5.89,5.24,7.16,5.71,5.74,5.74
36.70,-0.14,-5.87,-0.14,-5.88,5.88,5.21,7.06,5.73,5.74,5.73
37.06,-0.10,-5.83,-0.13,-5.86,5.86,5.18,6.96,5.76,5.73,5.72
37.43,-0.10,-5.84,-0.12,-5.86,5.86,5.15,6.86,5.75,5.73,5.74
37.81,-0.10,-5.84,-0.12,-5.85,5.85,5.13,6.76,5.74,5.73,5.73
38.19,-0.10,-5.83,-0.11,-5.84,5.84,5.11,6.66,5.74,5.73,5.73
38.57,-0.10,-5.84,-0.11,-5.84,5.84,5.09,6.56,5.74,5.73,5.73
38.95,-0.10,-5.84,-0.10,-5.83,5.83,5.08,6.47,5.73,5.73,5.74
39.34,-0.10,-5.84,-0.10,-5.83,5.83,5.07,6.38,5.73,5.73,5.73
39.74,-0.10,-5.83,-0.10,-5.82,5.82,5.06,6.29,5.72,5.73,5.73
40.14,-0.10,-5.83,-0.10,-5.82,5.82,5.06,6.20,5.72,5.73,5.73
40.54,-0.10,-5.83,-0.10,-5.82,5.82,5.07,6.12,5.72,5.72,5.72
40.94,-0.10,-5.82,-0.10,-5.82,5.82,5.07,6.04,5.72,5.72,5.72
41.35,-0.10,-5.81,-0.10,-5.82,5.82,5.08,5.96,5.71,5.71,5.71
41.76,-0.10,-5.81,-0.10,-5.81,5.81,5.10,5.89,5.70,5.70,5.70
42.18,-0.10,-5.81,-0.10,-5.80,5.80,5.12,5.82,5.69,5.69,5.70
42.60,-0.10,-5.79,-0.10,-5.79,5.79,5.15,5.76,5.68,5.68,5.69
43.03,-0.10,-5.78,-0.10,-5.77,5.77,5.18,5.70,5.67,5.67,5.68
43.46,-0.10,-5.77,-0.10,-5.76,5.76,5.21,5.65,5.66,5.66,5.67
43.90,-0.10,-5.75,-0.10,-5.75,5.75,5.25,5.60,5.64,5.64,5.64
44.33,-0.10,-5.73,-0.10,-5.73,5.73,5.29,5.55,5.63,5.63,5.62
44.78,-0.10,-5.71,-0.10,-5.72,5.72,5.34,5.51,5.61,5.61,5.60
45.23,-0.10,-5.70,-0.10,-5.70,5.70,5.39,5.47,5.59,5.60,5.59
45.68,-0.10,-5.68,-0.09,-5.67,5.67,5.44,5.44,5.57,5.58,5.57
46.13,-0.10,-5.66,-0.09,-5.65,5.65,5.50,5.41,5.55,5.57,5.55
46.60,-0.10,-5.66,-0.09,-5.64,5.64,5.56,5.38,5.53,5.55,5.55
47.06,-0.10,-5.63,-0.09,-5.62,5.62,5.63,5.36,5.51,5.53,5.53
47.53,-0.10,-5.62,-0.09,-5.60,5.60,5.69,5.34,5.50,5.52,5.52
48.01,-0.10,-5.62,-0.10,-5.59,5.59,5.75,5.33,5.49,5.50,5.52
48.49,-0.10,-5.60,-0.11,-5.60,5.60,5.82,5.32,5.49,5.48,5.49
48.97,-0.10,-5.58,-0.14,-5.61,5.61,5.88,5.31,5.50,5.47,5.47
49.46,-0.11,-5.56,-0.17,-5.62,5.62,5.94,5.31,5.51,5.45,5.45
49.96,-0.12,-5.55,-0.20,-5.64,5.64,6.00,5.31,5.52,5.44,5.42
50.46,-0.20,-5.62,-0.24,-5.66,5.66,6.05,5.31,5.46,5.42,5.42
50.96,-0.29,-5.70,-0.29,-5.70,5.70,6.10,5.31,5.40,5.40,5.40
51.47,-0.32,-5.70,-0.34,-5.73,5.73,6.13,5.32,5.41,5.39,5.38
51.99,-0.35,-5.72,-0.40,-5.77,5.77,6.16,5.32,5.42,5.37,5.36
52.51,-0.48,-5.84,-0.46,-5.82,5.82,6.18,5.33,5.33,5.36,5.36
53.03,-0.60,-5.95,-0.52,-5.86,5.86,6.19,5.34,5.26,5.34,5.35
53.56,-0.61,-5.95,-0.58,-5.90,5.90,6.18,5.35,5.29,5.33,5.33
54.10,-0.62,-5.94,-0.63,-5.94,5.94,6.16,5.36,5.32,5.31,5.31
54.64,-0.67,-5.97,-0.67,-5.97,5.97,6.13,5.37,5.30,5.30,5.29
55.18,-0.71,-6.00,-0.71,-6.00,6.00,6.08,5.38,5.28,5.29,5.29
55.74,-0.74,-6.01,-0.74,-6.01,6.01,6.02,5.39,5.27,5.27,5.27
56.29,-0.77,-6.03,-0.76,-6.01,6.01,5.95,5.40,5.24,5.25,5.25
56.86,-0.79,-6.03,-0.76,-6.00,6.00,5.86,5.40,5.20,5.24,5.23
57.42,-0.78,-5.98,-0.76,-5.97,5.97,5.76,5.40,5.19,5.22,5.20
58.00,-0.76,-5.95,-0.74,-5.93,5.93,5.65,5.40,5.17,5.19,5.19
58.58,-0.73,-5.91,-0.72,-5.89,5.89,5.53,5.39,5.15,5.16,5.17
59.16,-0.69,-5.84,-0.70,-5.83,5.83,5.41,5.38,5.14,5.14,5.15
59.76,-0.66,-5.79,-0.67,-5.78,5.78,5.28,5.37,5.11,5.10,5.12
60.35,-0.63,-5.71,-0.64,-5.71,5.71,5.14,5.35,5.08,5.07,5.08
60.96,-0.58,-5.63,-0.61,-5.64,5.64,5.00,5.32,5.06,5.03,5.04
61.57,-0.53,-5.53,-0.57,-5.56,5.56,4.85,5.29,5.02,4.99,4.99
62.18,-0.48,-5.43,-0.52,-5.47,5.47,4.71,5.25,4.98,4.95,4.95
62.80,-0.40,-5.30,-0.47,-5.37,5.37,4.56,5.21,4.96,4.90,4.90
63.43,-0.39,-5.24,-0.41,-5.26,5.26,4.41,5.16,4.87,4.85,4.85
64.07,-0.39,-5.19,-0.34,-5.15,5.15,4.27,5.11,4.75,4.81,4.80
64.71,-0.34,-5.09,-0.27,-5.03,5.03,4.12,5.05,4.68,4.75,4.74
65.35,-0.27,-4.97,-0.20,-4.90,4.90,3.98,4.98,4.63,4.70,4.70
66.01,-0.17,-4.82,-0.13,-4.78,4.78,3.84,4.91,4.60,4.65,4.65
66.67,-0.08,-4.68,-0.05,-4.65,4.65,3.71,4.84,4.56,4.60,4.59
67.33,0.02,-4.52,0.03,-4.52,4.52,3.58,4.76,4.53,4.54,4.54
68.01,0.15,-4.35,0.11,-4.38,4.38,3.45,4.67,4.53,4.49,4.49
68.69,0.22,-4.22,0.18,-4.25,4.25,3.32,4.58,4.46,4.43,4.43
69.37,0.31,-4.07,0.26,-4.11,4.11,3.20,4.49,4.42,4.37,4.38
70.07,0.41,-3.91,0.33,-3.98,3.98,3.08,4.39,4.39,4.32,4.32
70.77,0.45,-3.82,0.41,-3.85,3.85,2.97,4.30,4.30,4.25,4.27
71.48,0.48,-3.73,0.47,-3.72,3.72,2.86,4.19,4.20,4.19,4.20
72.19,0.52,-3.62,0.54,-3.60,3.60,2.75,4.09,4.11,4.13,4.13
72.91,0.55,-3.52,0.59,-3.48,3.48,2.65,3.99,4.03,4.07,4.07
73.64,0.65,-3.36,0.64,-3.37,3.37,2.55,3.88,4.02,4.01,4.01
74.38,0.71,-3.23,0.68,-3.27,3.27,2.46,3.77,3.97,3.94,3.94
75.12,0.71,-3.17,0.71,-3.17,3.17,2.36,3.67,3.88,3.88,3.87
75.87,0.71,-3.10,0.74,-3.07,3.07,2.27,3.56,3.78,3.82,3.81
76.63,0.77,-2.98,0.78,-2.98,2.98,2.19,3.45,3.74,3.75,3.75
77.40,0.81,-2.88,0.81,-2.89,2.89,2.11,3.34,3.69,3.69,3.69
78.17,0.83,-2.79,0.84,-2.80,2.80,2.02,3.23,3.62,3.63,3.62
78.95,0.91,-2.67,0.87,-2.71,2.71,1.95,3.13,3.61,3.57,3.58
79.74,0.91,-2.61,0.89,-2.62,2.62,1.87,3.02,3.53,3.52,3.52
80.54,0.90,-2.57,0.92,-2.54,2.54,1.80,2.91,3.44,3.46,3.46
81.35,0.91,-2.49,0.94,-2.47,2.47,1.73,2.81,3.37,3.40,3.40
82.16,0.93,-2.42,0.95,-2.40,2.40,1.66,2.71,3.32,3.35,3.35
82.98,1.01,-2.29,0.97,-2.33,2.33,1.60,2.61,3.33,3.29,3.30
83.81,1.01,-2.23,0.98,-2.26,2.26,1.53,2.51,3.27,3.24,3.23
84.65,1.01,-2.17,0.98,-2.20,2.20,1.47,2.41,3.20,3.18,3.18
85.50,1.01,-2.12,0.99,-2.14,2.14,1.41,2.31,3.14,3.12,3.13
86.35,1.01,-2.06,0.99,-2.07,2.07,1.35,2.21,3.08,3.06,3.07
87.22,1.01,-2.00,1.00,-2.00,2.00,1.30,2.12,3.01,3.00,3.01
88.09,1.01,-1.94,1.01,-1.93,1.93,1.24,2.02,2.94,2.95,2.95
88.97,1.01,-1.88,1.03,-1.86,1.86,1.19,1.93,2.86,2.89,2.89
89.86,1.01,-1.82,1.05,-1.78,1.78,1.14,1.84,2.79,2.83,2.83
90.76,1.01,-1.76,1.06,-1.70,1.70,1.09,1.75,2.71,2.77,2.76
91.66,1.02,-1.69,1.08,-1.63,1.63,1.04,1.67,2.64,2.71,2.71
92.58,1.05,-1.59,1.09,-1.55,1.55,0.99,1.58,2.60,2.65,2.64
93.51,1.11,-1.48,1.11,-1.48,1.48,0.94,1.49,2.58,2.59,2.58
94.44,1.17,-1.36,1.13,-1.40,1.40,0.90,1.41,2.57,2.53,2.53
95.39,1.22,-1.26,1.14,-1.32,1.32,0.85,1.33,2.54,2.47,2.47
96.34,1.21,-1.20,1.16,-1.25,1.25,0.81,1.25,2.46,2.41,2.41
97.30,1.21,-1.14,1.17,-1.18,1.18,0.76,1.17,2.39,2.35,2.35
98.28,1.20,-1.10,1.17,-1.12,1.12,0.72,1.09,2.32,2.29,2.29
99.26,1.18,-1.06,1.17,-1.06,1.06,0.68,1.01,2.24,2.24,2.24
100.25,1.17,-1.01,1.17,-1.01,1.01,0.64,0.94,2.17,2.18,2.18
101.25,1.15,-0.98,1.16,-0.96,0.96,0.60,0.86,2.11,2.12,2.12
102.27,1.14,-0.93,1.14,-0.92,0.92,0.56,0.79,2.05,2.06,2.06
103.29,1.12,-0.88,1.12,-0.88,0.88,0.52,0.72,2.00,2.00,2.00
104.32,1.10,-0.85,1.10,-0.85,0.85,0.49,0.65,1.94,1.94,1.95
105.37,1.08,-0.82,1.07,-0.81,0.81,0.45,0.58,1.89,1.88,1.89
106.42,1.05,-0.79,1.05,-0.78,0.78,0.41,0.51,1.82,1.82,1.83
107.48,1.03,-0.74,1.03,-0.74,0.74,0.38,0.45,1.76,1.76,1.77
108.56,1.01,-0.69,1.00,-0.70,0.70,0.34,0.38,1.70,1.70,1.70
109.64,0.99,-0.65,0.98,-0.66,0.66,0.30,0.32,1.64,1.64,1.64
110.74,0.97,-0.61,0.96,-0.61,0.61,0.27,0.26,1.58,1.58,1.57
111.85,0.95,-0.58,0.95,-0.56,0.56,0.24,0.20,1.51,1.51,1.53
112.97,0.94,-0.51,0.95,-0.51,0.51,0.20,0.14,1.45,1.46,1.45
114.10,0.93,-0.47,0.94,-0.45,0.45,0.17,0.09,1.38,1.40,1.39
115.24,0.93,-0.41,0.95,-0.39,0.39,0.13,0.03,1.32,1.34,1.34
116.39,0.93,-0.34,0.96,-0.33,0.33,0.10,-0.02,1.26,1.29,1.27
117.55,0.94,-0.29,0.97,-0.27,0.27,0.07,-0.07,1.20,1.23,1.23
118.73,0.94,-0.23,0.98,-0.20,0.20,0.03,-0.12,1.14,1.18,1.17
119.92,0.95,-0.19,0.99,-0.14,0.14,-0.00,-0.17,1.09,1.13,1.14
121.12,1.04,-0.05,1.00,-0.09,0.09,-0.03,-0.21,1.12,1.09,1.08
122.33,1.06,0.02,1.01,-0.03,0.03,-0.07,-0.25,1.09,1.04,1.04
123.55,1.07,0.06,1.02,0.02,-0.02,-0.10,-0.29,1.04,1.00,1.01
124.79,1.08,0.11,1.03,0.07,-0.07,-0.13,-0.33,1.00,0.96,0.96
126.03,1.09,0.16,1.04,0.12,-0.12,-0.16,-0.37,0.97,0.92,0.92
127.29,1.09,0.19,1.05,0.16,-0.16,-0.20,-0.40,0.92,0.88,0.89
128.57,1.07,0.22,1.05,0.21,-0.21,-0.23,-0.44,0.86,0.84,0.84
129.85,1.01,0.20,1.05,0.24,-0.24,-0.26,-0.47,0.76,0.80,0.80
131.15,1.01,0.24,1.05,0.28,-0.28,-0.29,-0.50,0.73,0.77,0.76
132.46,1.01,0.28,1.04,0.31,-0.31,-0.33,-0.53,0.70,0.73,0.73
133.79,1.02,0.33,1.03,0.34,-0.34,-0.36,-0.55,0.68,0.69,0.69
135.12,1.02,0.37,1.02,0.36,-0.36,-0.39,-0.58,0.65,0.66,0.65
136.48,1.03,0.41,1.02,0.40,-0.40,-0.42,-0.60,0.63,0.62,0.62
137.84,1.03,0.45,1.02,0.43,-0.43,-0.46,-0.63,0.59,0.58,0.58
139.22,1.03,0.49,1.02,0.48,-0.48,-0.49,-0.65,0.55,0.55,0.53
140.61,1.03,0.54,1.03,0.53,-0.53,-0.52,-0.67,0.50,0.51,0.49
142.02,1.03,0.56,1.04,0.58,-0.58,-0.56,-0.69,0.45,0.47,0.47
143.44,1.03,0.60,1.05,0.63,-0.63,-0.59,-0.71,0.40,0.42,0.43
144.87,1.03,0.65,1.06,0.69,-0.69,-0.62,-0.73,0.34,0.38,0.38
146.32,1.03,0.69,1.07,0.75,-0.75,-0.66,-0.75,0.28,0.32,0.33
147.78,1.11,0.81,1.09,0.82,-0.82,-0.69,-0.77,0.29,0.27,0.29
149.26,1.13,0.89,1.09,0.88,-0.88,-0.73,-0.79,0.24,0.21,0.24
150.75,1.13,0.96,1.09,0.95,-0.95,-0.76,-0.81,0.18,0.14,0.16
152.26,1.13,1.04,1.07,1.00,-1.00,-0.79,-0.82,0.12,0.07,0.09
153.78,1.13,1.11,1.06,1.06,-1.06,-0.83,-0.84,0.06,-0.00,0.01
155.32,1.06,1.12,1.05,1.13,-1.13,-0.86,-0.86,-0.07,-0.08,-0.07
156.88,1.03,1.18,1.03,1.19,-1.19,-0.90,-0.88,-0.16,-0.16,-0.15
158.44,1.03,1.27,1.02,1.25,-1.25,-0.93,-0.90,-0.23,-0.24,-0.24
160.03,1.03,1.36,1.00,1.31,-1.31,-0.97,-0.92,-0.29,-0.31,-0.33
161.63,1.03,1.43,0.99,1.37,-1.37,-1.00,-0.95,-0.35,-0.38,-0.41
163.24,0.94,1.41,0.97,1.42,-1.42,-1.04,-0.97,-0.49,-0.45,-0.48
164.88,0.84,1.37,0.96,1.47,-1.47,-1.08,-0.99,-0.63,-0.51,-0.53
166.53,0.82,1.40,0.95,1.51,-1.51,-1.11,-1.02,-0.70,-0.57,-0.59
168.19,0.89,1.52,0.94,1.55,-1.55,-1.15,-1.04,-0.67,-0.61,-0.63
169.87,0.99,1.66,0.94,1.59,-1.59,-1.18,-1.07,-0.61,-0.65,-0.68
171.57,1.00,1.70,0.94,1.63,-1.63,-1.22,-1.09,-0.63,-0.69,-0.70
173.29,1.00,1.72,0.95,1.66,-1.66,-1.26,-1.12,-0.66,-0.71,-0.72
175.02,0.99,1.72,0.96,1.69,-1.69,-1.29,-1.15,-0.70,-0.73,-0.73
176.77,0.99,1.74,0.96,1.71,-1.71,-1.33,-1.18,-0.72,-0.75,-0.75
178.54,0.99,1.75,0.98,1.73,-1.73,-1.36,-1.21,-0.75,-0.76,-0.76
180.32,0.99,1.75,0.99,1.76,-1.76,-1.40,-1.24,-0.78,-0.77,-0.76
182.13,1.00,1.76,1.01,1.79,-1.79,-1.44,-1.27,-0.80,-0.78,-0.76
183.95,1.01,1.78,1.03,1.82,-1.82,-1.47,-1.31,-0.81,-0.79,-0.78
185.79,1.02,1.80,1.04,1.84,-1.84,-1.51,-1.34,-0.82,-0.81,-0.78
187.65,1.03,1.83,1.04,1.86,-1.86,-1.54,-1.38,-0.83,-0.82,-0.81
189.52,1.05,1.87,1.05,1.88,-1.88,-1.58,-1.42,-0.83,-0.83,-0.82
191.42,1.06,1.90,1.06,1.91,-1.91,-1.61,-1.45,-0.85,-0.85,-0.85
193.33,1.08,1.94,1.07,1.94,-1.94,-1.64,-1.49,-0.86,-0.87,-0.87
195.27,1.09,1.98,1.08,1.97,-1.97,-1.68,-1.53,-0.89,-0.89,-0.89
197.22,1.10,2.01,1.10,2.01,-2.01,-1.71,-1.57,-0.91,-0.91,-0.91
199.19,1.12,2.06,1.11,2.05,-2.05,-1.74,-1.61,-0.93,-0.94,-0.94
201.18,1.12,2.08,1.12,2.08,-2.08,-1.77,-1.65,-0.96,-0.96,-0.96
203.19,1.13,2.11,1.12,2.11,-2.11,-1.80,-1.69,-0.98,-0.99,-0.98
205.23,1.13,2.14,1.12,2.13,-2.13,-1.83,-1.73,-1.01,-1.01,-1.01
207.28,1.13,2.15,1.12,2.15,-2.15,-1.86,-1.78,-1.03,-1.03,-1.02
209.35,1.13,2.18,1.11,2.17,-2.17,-1.89,-1.82,-1.04,-1.06,-1.05
211.44,1.13,2.21,1.10,2.18,-2.18,-1.92,-1.86,-1.06,-1.08,-1.09
213.56,1.12,2.21,1.09,2.19,-2.19,-1.94,-1.90,-1.07,-1.09,-1.09
215.69,1.12,2.23,1.08,2.19,-2.19,-1.97,-1.94,-1.08,-1.11,-1.11
217.85,1.11,2.23,1.07,2.20,-2.20,-1.99,-1.98,-1.09,-1.13,-1.12
220.03,1.04,2.18,1.06,2.20,-2.20,-2.02,-2.01,-1.16,-1.14,-1.14
222.23,1.01,2.17,1.05,2.19,-2.19,-2.04,-2.05,-1.19,-1.15,-1.16
224.45,1.01,2.16,1.04,2.19,-2.19,-2.06,-2.08,-1.18,-1.15,-1.16
226.70,1.01,2.17,1.03,2.19,-2.19,-2.07,-2.12,-1.18,-1.15,-1.16
228.96,1.01,2.16,1.03,2.18,-2.18,-2.09,-2.15,-1.18,-1.15,-1.15
231.25,1.02,2.16,1.03,2.18,-2.18,-2.11,-2.18,-1.16,-1.15,-1.15
233.57,1.03,2.17,1.03,2.17,-2.17,-2.12,-2.20,-1.15,-1.14,-1.14
235.90,1.04,2.17,1.04,2.17,-2.17,-2.13,-2.22,-1.13,-1.13,-1.13
238.26,1.06,2.18,1.06,2.17,-2.17,-2.14,-2.24,-1.12,-1.11,-1.12
240.64,1.08,2.18,1.08,2.18,-2.18,-2.15,-2.26,-1.10,-1.10,-1.10
243.05,1.09,2.16,1.10,2.18,-2.18,-2.16,-2.27,-1.10,-1.08,-1.07
245.48,1.11,2.16,1.12,2.18,-2.18,-2.16,-2.28,-1.07,-1.06,-1.05
247.93,1.14,2.16,1.14,2.17,-2.17,-2.16,-2.29,-1.03,-1.04,-1.02
250.41,1.16,2.17,1.14,2.16,-2.16,-2.16,-2.29,-1.00,-1.01,-1.01
252.92,1.17,2.15,1.14,2.13,-2.13,-2.16,-2.29,-0.97,-0.99,-0.98
255.45,1.18,2.14,1.14,2.11,-2.11,-2.16,-2.29,-0.93,-0.97,-0.96
258.00,1.19,2.13,1.13,2.08,-2.08,-2.16,-2.28,-0.89,-0.95,-0.94
260.58,1.20,2.12,1.12,2.04,-2.04,-2.15,-2.27,-0.85,-0.92,-0.93
263.19,1.19,2.08,1.10,2.01,-2.01,-2.14,-2.26,-0.82,-0.90,-0.90
265.82,1.09,1.97,1.09,1.96,-1.96,-2.13,-2.24,-0.88,-0.88,-0.88
268.48,1.01,1.87,1.07,1.92,-1.92,-2.12,-2.22,-0.92,-0.85,-0.86
271.16,0.99,1.81,1.05,1.88,-1.88,-2.11,-2.20,-0.90,-0.83,-0.83
273.87,0.99,1.80,1.03,1.84,-1.84,-2.10,-2.17,-0.86,-0.81,-0.81
276.61,0.98,1.76,1.02,1.80,-1.80,-2.08,-2.14,-0.83,-0.78,-0.78
279.38,0.98,1.73,1.01,1.77,-1.77,-2.06,-2.11,-0.79,-0.76,-0.76
282.17,0.99,1.72,1.00,1.73,-1.73,-2.05,-2.08,-0.75,-0.73,-0.73
284.99,0.99,1.69,1.00,1.70,-1.70,-2.03,-2.05,-0.71,-0.70,-0.70
287.84,1.00,1.68,0.99,1.67,-1.67,-2.01,-2.01,-0.67,-0.68,-0.69
290.72,1.01,1.66,0.99,1.64,-1.64,-1.98,-1.98,-0.64,-0.65,-0.65
293.63,1.02,1.64,1.00,1.62,-1.62,-1.96,-1.94,-0.60,-0.62,-0.63
296.57,1.04,1.63,1.01,1.60,-1.60,-1.94,-1.91,-0.56,-0.59,-0.59
299.53,1.05,1.61,1.01,1.58,-1.58,-1.91,-1.87,-0.53,-0.57,-0.57
302.53,1.06,1.61,1.02,1.56,-1.56,-1.89,-1.83,-0.50,-0.54,-0.55
305.55,1.05,1.55,1.02,1.54,-1.54,-1.86,-1.79,-0.49,-0.52,-0.50
308.61,0.99,1.48,1.02,1.51,-1.51,-1.83,-1.76,-0.53,-0.49,-0.49
311.69,0.99,1.45,1.02,1.49,-1.49,-1.81,-1.72,-0.50,-0.47,-0.46
314.81,0.99,1.42,1.01,1.46,-1.46,-1.78,-1.68,-0.47,-0.45,-0.44
317.96,0.99,1.41,1.00,1.43,-1.43,-1.75,-1.64,-0.45,-0.43,-0.42
321.14,0.99,1.40,0.99,1.40,-1.40,-1.72,-1.61,-0.41,-0.41,-0.41
324.35,0.99,1.38,0.97,1.37,-1.37,-1.69,-1.57,-0.38,-0.39,-0.40
327.59,0.99,1.37,0.95,1.34,-1.34,-1.66,-1.54,-0.35,-0.38,-0.38
330.87,0.99,1.36,0.94,1.31,-1.31,-1.63,-1.50,-0.32,-0.37,-0.37
334.18,0.96,1.31,0.92,1.28,-1.28,-1.60,-1.47,-0.32,-0.36,-0.36
337.52,0.89,1.24,0.90,1.25,-1.25,-1.57,-1.44,-0.36,-0.35,-0.35
340.90,0.88,1.21,0.89,1.23,-1.23,-1.54,-1.41,-0.35,-0.34,-0.33
344.30,0.88,1.20,0.87,1.20,-1.20,-1.51,-1.38,-0.33,-0.33,-0.33
347.75,0.82,1.15,0.85,1.18,-1.18,-1.48,-1.35,-0.36,-0.33,-0.33
351.23,0.79,1.11,0.82,1.15,-1.15,-1.44,-1.32,-0.36,-0.32,-0.32
354.74,0.79,1.11,0.81,1.13,-1.13,-1.41,-1.29,-0.34,-0.32,-0.32
358.28,0.79,1.10,0.79,1.11,-1.11,-1.38,-1.27,-0.32,-0.32,-0.32
361.87,0.80,1.12,0.78,1.10,-1.10,-1.35,-1.24,-0.30,-0.32,-0.32
365.49,0.80,1.11,0.76,1.08,-1.08,-1.32,-1.22,-0.29,-0.32,-0.31
369.14,0.74,1.06,0.75,1.07,-1.07,-1.29,-1.20,-0.34,-0.32,-0.32
372.83,0.72,1.04,0.74,1.06,-1.06,-1.26,-1.18,-0.35,-0.32,-0.33
376.56,0.72,1.04,0.74,1.06,-1.06,-1.23,-1.16,-0.34,-0.32,-0.33
380.33,0.73,1.05,0.73,1.05,-1.05,-1.20,-1.14,-0.33,-0.33,-0.32
384.13,0.74,1.06,0.72,1.05,-1.05,-1.17,-1.12,-0.32,-0.33,-0.32
387.97,0.74,1.07,0.72,1.05,-1.05,-1.14,-1.10,-0.32,-0.34,-0.33
391.85,0.75,1.09,0.71,1.05,-1.05,-1.11,-1.08,-0.30,-0.34,-0.34
395.77,0.70,1.03,0.69,1.04,-1.04,-1.09,-1.07,-0.34,-0.35,-0.34
399.73,0.66,1.00,0.67,1.02,-1.02,-1.06,-1.05,-0.37,-0.35,-0.35
403.72,0.64,0.99,0.65,1.01,-1.01,-1.03,-1.04,-0.37,-0.36,-0.35
407.76,0.64,1.00,0.63,0.99,-0.99,-1.00,-1.03,-0.35,-0.36,-0.36
411.84,0.64,1.00,0.61,0.98,-0.98,-0.97,-1.01,-0.34,-0.37,-0.36
415.96,0.64,1.00,0.59,0.96,-0.96,-0.95,-1.00,-0.32,-0.37,-0.36
420.12,0.64,1.00,0.58,0.94,-0.94,-0.92,-0.99,-0.31,-0.37,-0.37
424.32,0.58,0.94,0.57,0.93,-0.93,-0.89,-0.98,-0.35,-0.36,-0.37
428.56,0.53,0.88,0.56,0.91,-0.91,-0.87,-0.97,-0.38,-0.35,-0.36
432.85,0.48,0.82,0.56,0.89,-0.89,-0.84,-0.96,-0.42,-0.33,-0.35
437.18,0.49,0.83,0.56,0.88,-0.88,-0.82,-0.95,-0.39,-0.31,-0.34
441.55,0.53,0.83,0.58,0.87,-0.87,-0.79,-0.94,-0.34,-0.29,-0.30
445.96,0.57,0.84,0.60,0.86,-0.86,-0.77,-0.93,-0.29,-0.26,-0.27
450.42,0.63,0.87,0.63,0.86,-0.86,-0.74,-0.92,-0.23,-0.22,-0.24
454.93,0.68,0.87,0.67,0.85,-0.85,-0.72,-0.91,-0.17,-0.18,-0.19
459.48,0.74,0.88,0.70,0.84,-0.84,-0.69,-0.90,-0.11,-0.14,-0.14
464.07,0.75,0.84,0.74,0.83,-0.83,-0.67,-0.89,-0.09,-0.09,-0.10
468.71,0.77,0.80,0.78,0.82,-0.82,-0.65,-0.88,-0.06,-0.04,-0.04
473.40,0.82,0.81,0.82,0.81,-0.81,-0.63,-0.87,0.00,0.01,0.00
478.13,0.88,0.81,0.85,0.80,-0.80,-0.60,-0.85,0.08,0.05,0.06
482.91,0.92,0.81,0.88,0.78,-0.78,-0.58,-0.84,0.13,0.10,0.10
487.74,0.96,0.82,0.90,0.76,-0.76,-0.56,-0.83,0.19,0.14,0.14
492.62,1.00,0.81,0.92,0.75,-0.75,-0.54,-0.82,0.25,0.18,0.19
497.55,0.98,0.77,0.94,0.73,-0.73,-0.52,-0.81,0.24,0.21,0.21
502.52,0.89,0.65,0.94,0.71,-0.71,-0.49,-0.79,0.17,0.23,0.24
507.55,0.87,0.62,0.94,0.70,-0.70,-0.47,-0.78,0.17,0.24,0.25
512.62,0.89,0.63,0.93,0.68,-0.68,-0.45,-0.76,0.21,0.25,0.26
