frequency,raw,error,smoothed,error_smoothed,equalization,parametric_eq,fixed_band_eq,equalized_raw,equalized_smoothed,target
20.00,-17.76,-23.12,-17.73,-23.12,23.12,23.21,10.35,5.36,5.38,5.36
20.20,-17.62,-23.02,-17.61,-23.03,23.03,23.14,10.53,5.41,5.41,5.40
20.40,-17.49,-22.92,-17.49,-22.93,22.93,23.07,10.72,5.44,5.44,5.43
20.61,-17.35,-22.81,-17.37,-22.83,22.83,22.99,10.92,5.48,5.47,5.46
20.81,-17.21,-22.71,-17.25,-22.74,22.74,22.92,11.11,5.53,5.49,5.50
21.02,-17.08,-22.62,-17.12,-22.64,22.64,22.84,11.32,5.56,5.51,5.54
21.23,-16.98,-22.53,-17.00,-22.53,22.53,22.76,11.53,5.55,5.54,5.55
21.44,-16.88,-22.45,-16.87,-22.43,22.43,22.68,11.74,5.55,5.56,5.57
21.66,-16.78,-22.37,-16.75,-22.32,22.32,22.60,11.96,5.54,5.57,5.59
21.87,-16.68,-22.28,-16.62,-22.21,22.21,22.51,12.18,5.54,5.59,5.60
22.09,-16.55,-22.16,-16.50,-22.10,22.10,22.43,12.41,5.55,5.61,5.61
22.31,-16.39,-22.00,-16.37,-21.99,21.99,22.33,12.65,5.60,5.62,5.61
22.54,-16.24,-21.86,-16.24,-21.88,21.88,22.24,12.89,5.63,5.63,5.62
22.76,-16.08,-21.71,-16.12,-21.76,21.76,22.15,13.14,5.68,5.64,5.63
22.99,-15.92,-21.55,-15.99,-21.64,21.64,22.05,13.40,5.72,5.65,5.63
23.22,-15.81,-21.45,-15.86,-21.52,21.52,21.95,13.66,5.71,5.65,5.64
23.45,-15.71,-21.36,-15.73,-21.39,21.39,21.85,13.94,5.68,5.66,5.65
23.69,-15.61,-21.27,-15.60,-21.26,21.26,21.74,14.22,5.65,5.66,5.66
23.92,-15.50,-21.17,-15.46,-21.13,21.13,21.64,14.50,5.63,5.67,5.67
24.16,-15.37,-21.05,-15.32,-20.99,20.99,21.53,14.80,5.62,5.67,5.68
24.40,-15.22,-20.91,-15.18,-20.86,20.86,21.41,15.11,5.64,5.68,5.69
24.65,-15.07,-20.75,-15.05,-20.72,20.72,21.30,15.43,5.65,5.68,5.68
24.89,-14.91,-20.59,-14.91,-20.59,20.59,21.18,15.76,5.68,5.68,5.68
25.14,-14.77,-20.45,-14.77,-20.45,20.45,21.06,16.10,5.68,5.68,5.68
25.39,-14.62,-20.30,-14.63,-20.31,20.31,20.94,16.45,5.69,5.68,5.68
25.65,-14.47,-20.15,-14.48,-20.16,20.16,20.81,16.81,5.69,5.68,5.68
25.91,-14.32,-19.99,-14.33,-20.01,20.01,20.69,17.19,5.68,5.68,5.66
26.16,-14.18,-19.85,-14.18,-19.86,19.86,20.56,17.58,5.68,5.68,5.67
26.43,-14.04,-19.71,-14.04,-19.72,19.72,20.42,17.99,5.67,5.67,5.67
26.69,-13.90,-19.57,-13.91,-19.58,19.58,20.29,18.41,5.68,5.67,5.67
26.96,-13.76,-19.43,-13.78,-19.45,19.45,20.15,18.84,5.69,5.67,5.67
27.23,-13.63,-19.30,-13.66,-19.32,19.32,20.02,19.29,5.69,5.67,5.67
27.50,-13.49,-19.16,-13.53,-19.20,19.20,19.88,19.75,5.71,5.66,5.67
27.77,-13.35,-19.01,-13.41,-19.07,19.07,19.73,20.23,5.72,5.66,5.66
28.05,-13.23,-18.89,-13.28,-18.94,18.94,19.59,20.72,5.71,5.66,5.66
28.33,-13.16,-18.80,-13.16,-18.81,18.81,19.45,21.21,5.65,5.66,5.64
28.62,-13.09,-18.74,-13.03,-18.69,18.69,19.30,21.72,5.59,5.66,5.65
28.90,-13.01,-18.66,-12.90,-18.56,18.56,19.15,22.22,5.55,5.65,5.65
29.19,-12.86,-18.50,-12.77,-18.42,18.42,19.00,22.72,5.56,5.65,5.64
29.48,-12.67,-18.32,-12.64,-18.28,18.28,18.85,23.19,5.61,5.65,5.65
29.78,-12.48,-18.13,-12.50,-18.14,18.14,18.70,23.64,5.66,5.64,5.65
30.08,-12.30,-17.96,-12.35,-17.99,17.99,18.55,24.03,5.69,5.64,5.65
30.38,-12.17,-17.80,-12.20,-17.84,17.84,18.39,24.36,5.66,5.63,5.63
30.68,-12.05,-17.68,-12.05,-17.68,17.68,18.24,24.59,5.63,5.63,5.63
30.99,-11.93,-17.55,-11.90,-17.53,17.53,18.08,24.73,5.60,5.63,5.62
31.30,-11.76,-17.38,-11.75,-17.37,17.37,17.92,24.74,5.61,5.62,5.62
31.61,-11.60,-17.22,-11.61,-17.22,17.22,17.77,24.65,5.62,5.62,5.62
31.93,-11.44,-17.05,-11.46,-17.07,17.07,17.61,24.45,5.63,5.61,5.60
32.24,-11.29,-16.88,-11.33,-16.94,16.94,17.45,24.15,5.65,5.61,5.59
32.57,-11.15,-16.74,-11.20,-16.80,16.80,17.29,23.78,5.65,5.60,5.59
32.89,-11.01,-16.60,-11.07,-16.67,16.67,17.14,23.36,5.66,5.59,5.59
33.22,-10.90,-16.49,-10.94,-16.53,16.53,16.98,22.89,5.63,5.59,5.59
33.55,-10.82,-16.40,-10.81,-16.39,16.39,16.82,22.41,5.57,5.58,5.58
33.89,-10.74,-16.32,-10.67,-16.25,16.25,16.66,21.91,5.51,5.58,5.58
34.23,-10.62,-16.20,-10.54,-16.11,16.11,16.50,21.42,5.49,5.57,5.58
34.57,-10.49,-16.06,-10.41,-15.98,15.98,16.34,20.93,5.49,5.57,5.57
34.92,-10.35,-15.91,-10.29,-15.85,15.85,16.19,20.44,5.50,5.56,5.56
35.27,-10.18,-15.74,-10.17,-15.73,15.73,16.03,19.97,5.55,5.56,5.56
35.62,-10.00,-15.55,-10.04,-15.60,15.60,15.87,19.51,5.60,5.56,5.55
35.97,-9.82,-15.36,-9.92,-15.47,15.47,15.71,19.07,5.65,5.55,5.54
36.33,-9.72,-15.26,-9.80,-15.34,15.34,15.56,18.64,5.62,5.54,5.54
36.70,-9.62,-15.16,-9.67,-15.21,15.21,15.40,18.23,5.59,5.53,5.54
37.06,-9.52,-15.04,-9.55,-15.07,15.07,15.24,17.83,5.56,5.53,5.52
37.43,-9.43,-14.95,-9.42,-14.94,14.94,15.09,17.44,5.51,5.52,5.52
37.81,-9.35,-14.86,-9.29,-14.81,14.81,14.93,17.07,5.46,5.51,5.51
38.19,-9.22,-14.72,-9.16,-14.67,14.67,14.78,16.71,5.45,5.51,5.50
38.57,-9.07,-14.57,-9.03,-14.53,14.53,14.63,16.37,5.46,5.50,5.50
38.95,-8.91,-14.40,-8.90,-14.40,14.40,14.47,16.03,5.49,5.49,5.49
39.34,-8.80,-14.28,-8.78,-14.27,14.27,14.32,15.71,5.47,5.49,5.48
39.74,-8.70,-14.16,-8.66,-14.14,14.14,14.17,15.40,5.44,5.48,5.46
40.14,-8.57,-14.04,-8.53,-14.01,14.01,14.02,15.10,5.43,5.47,5.47
40.54,-8.40,-13.86,-8.40,-13.86,13.86,13.87,14.81,5.46,5.46,5.46
40.94,-8.23,-13.69,-8.26,-13.71,13.71,13.72,14.53,5.48,5.45,5.46
41.35,-8.06,-13.50,-8.13,-13.56,13.56,13.57,14.26,5.50,5.43,5.44
41.76,-7.90,-13.32,-7.99,-13.41,13.41,13.43,13.99,5.51,5.42,5.42
42.18,-7.79,-13.20,-7.86,-13.26,13.26,13.28,13.74,5.47,5.40,5.41
42.60,-7.77,-13.15,-7.73,-13.11,13.11,13.14,13.49,5.34,5.37,5.38
43.03,-7.74,-13.11,-7.61,-12.96,12.96,12.99,13.25,5.22,5.35,5.37
43.46,-7.54,-12.88,-7.49,-12.81,12.81,12.85,13.02,5.27,5.32,5.34
43.90,-7.34,-12.63,-7.36,-12.66,12.66,12.71,12.79,5.32,5.30,5.29
44.33,-7.22,-12.48,-7.25,-12.52,12.52,12.56,12.58,5.30,5.27,5.26
44.78,-7.12,-12.35,-7.14,-12.38,12.38,12.42,12.36,5.26,5.24,5.23
45.23,-7.02,-12.22,-7.03,-12.25,12.25,12.28,12.16,5.23,5.22,5.20
45.68,-6.91,-12.08,-6.92,-12.11,12.11,12.15,11.95,5.20,5.19,5.17
46.13,-6.81,-11.96,-6.81,-11.98,11.98,12.01,11.76,5.17,5.17,5.15
46.60,-6.70,-11.84,-6.71,-11.86,11.86,11.87,11.57,5.16,5.15,5.14
47.06,-6.60,-11.72,-6.61,-11.74,11.74,11.74,11.38,5.14,5.13,5.12
47.53,-6.49,-11.61,-6.50,-11.63,11.63,11.60,11.20,5.14,5.12,5.12
48.01,-6.38,-11.50,-6.40,-11.51,11.51,11.47,11.03,5.13,5.11,5.12
48.49,-6.32,-11.42,-6.30,-11.41,11.41,11.34,10.86,5.09,5.11,5.10
48.97,-6.25,-11.34,-6.20,-11.31,11.31,11.21,10.69,5.06,5.11,5.09
49.46,-6.10,-11.18,-6.10,-11.20,11.20,11.08,10.53,5.10,5.10,5.08
49.96,-5.94,-11.02,-6.00,-11.10,11.10,10.95,10.37,5.16,5.10,5.08
50.46,-5.91,-11.00,-5.90,-10.99,10.99,10.82,10.21,5.08,5.09,5.09
50.96,-5.88,-10.98,-5.80,-10.88,10.88,10.69,10.06,5.00,5.09,5.10
51.47,-5.75,-10.84,-5.69,-10.77,10.77,10.57,9.91,5.02,5.08,5.09
51.99,-5.60,-10.67,-5.59,-10.65,10.65,10.44,9.77,5.05,5.06,5.07
52.51,-5.42,-10.48,-5.48,-10.52,10.52,10.32,9.63,5.10,5.04,5.06
53.03,-5.24,-10.27,-5.37,-10.38,10.38,10.19,9.49,5.14,5.01,5.03
53.56,-5.24,-10.24,-5.26,-10.24,10.24,10.07,9.35,5.00,4.98,5.00
54.10,-5.22,-10.18,-5.15,-10.10,10.10,9.95,9.22,4.88,4.95,4.96
54.64,-5.09,-10.00,-5.04,-9.95,9.95,9.83,9.09,4.86,4.91,4.91
55.18,-4.97,-9.83,-4.94,-9.80,9.80,9.71,8.96,4.83,4.86,4.86
55.74,-4.85,-9.66,-4.82,-9.64,9.64,9.60,8.83,4.79,4.81,4.81
56.29,-4.72,-9.48,-4.71,-9.47,9.47,9.48,8.71,4.76,4.76,4.76
56.86,-4.59,-9.29,-4.62,-9.32,9.32,9.36,8.59,4.73,4.70,4.70
57.42,-4.46,-9.09,-4.53,-9.17,9.17,9.25,8.46,4.71,4.64,4.63
58.00,-4.33,-8.90,-4.44,-9.02,9.02,9.14,8.35,4.69,4.58,4.57
58.58,-4.33,-8.84,-4.34,-8.86,8.86,9.02,8.23,4.53,4.52,4.51
59.16,-4.29,-8.75,-4.23,-8.69,8.69,8.91,8.11,4.40,4.46,4.46
59.76,-4.16,-8.56,-4.12,-8.51,8.51,8.80,7.99,4.35,4.39,4.40
60.35,-4.02,-8.35,-4.02,-8.35,8.35,8.69,7.88,4.33,4.33,4.33
60.96,-3.88,-8.16,-3.92,-8.20,8.20,8.59,7.77,4.32,4.27,4.28
61.57,-3.87,-8.08,-3.82,-8.04,8.04,8.48,7.65,4.17,4.21,4.21
62.18,-3.83,-7.97,-3.73,-7.88,7.88,8.37,7.54,4.05,4.16,4.14
62.80,-3.69,-7.79,-3.63,-7.73,7.73,8.27,7.43,4.04,4.10,4.10
63.43,-3.51,-7.55,-3.53,-7.58,7.58,8.16,7.32,4.08,4.05,4.04
64.07,-3.31,-7.31,-3.43,-7.43,7.43,8.06,7.21,4.12,4.00,4.00
64.71,-3.23,-7.18,-3.32,-7.28,7.28,7.96,7.10,4.05,3.96,3.95
65.35,-3.19,-7.09,-3.21,-7.12,7.12,7.86,6.99,3.93,3.92,3.90
66.01,-3.19,-7.06,-3.10,-6.97,6.97,7.76,6.89,3.78,3.87,3.87
66.67,-3.04,-6.87,-2.99,-6.83,6.83,7.66,6.78,3.79,3.84,3.83
67.33,-2.89,-6.69,-2.89,-6.69,6.69,7.56,6.67,3.80,3.80,3.80
68.01,-2.74,-6.51,-2.78,-6.55,6.55,7.46,6.57,3.81,3.77,3.77
68.69,-2.72,-6.46,-2.68,-6.42,6.42,7.36,6.46,3.70,3.74,3.74
69.37,-2.63,-6.33,-2.58,-6.29,6.29,7.27,6.36,3.66,3.71,3.70
70.07,-2.49,-6.16,-2.49,-6.17,6.17,7.18,6.25,3.68,3.68,3.67
70.77,-2.33,-5.99,-2.40,-6.04,6.04,7.08,6.15,3.71,3.65,3.66
71.48,-2.28,-5.90,-2.31,-5.93,5.93,6.99,6.05,3.65,3.62,3.62
72.19,-2.23,-5.83,-2.22,-5.80,5.80,6.90,5.95,3.57,3.59,3.60
72.91,-2.07,-5.63,-2.12,-5.68,5.68,6.81,5.85,3.61,3.56,3.56
73.64,-2.05,-5.58,-2.03,-5.56,5.56,6.72,5.75,3.51,3.53,3.53
74.38,-1.99,-5.49,-1.96,-5.46,5.46,6.63,5.65,3.47,3.50,3.50
75.12,-1.87,-5.34,-1.88,-5.35,5.35,6.54,5.55,3.48,3.47,3.47
75.87,-1.83,-5.27,-1.81,-5.25,5.25,6.45,5.46,3.42,3.44,3.44
76.63,-1.71,-5.12,-1.74,-5.15,5.15,6.37,5.36,3.44,3.41,3.41
77.40,-1.62,-5.00,-1.67,-5.06,5.06,6.28,5.27,3.44,3.39,3.38
78.17,-1.60,-4.95,-1.60,-4.96,4.96,6.20,5.18,3.36,3.36,3.35
78.95,-1.60,-4.94,-1.53,-4.87,4.87,6.12,5.08,3.27,3.34,3.34
79.74,-1.43,-4.75,-1.46,-4.78,4.78,6.03,5.00,3.35,3.32,3.32
80.54,-1.37,-4.67,-1.39,-4.69,4.69,5.95,4.91,3.32,3.31,3.30
81.35,-1.37,-4.65,-1.32,-4.61,4.61,5.87,4.82,3.24,3.30,3.28
82.16,-1.32,-4.60,-1.24,-4.53,4.53,5.79,4.73,3.21,3.29,3.28
82.98,-1.14,-4.42,-1.17,-4.45,4.45,5.71,4.65,3.31,3.28,3.28
83.81,-1.14,-4.41,-1.11,-4.39,4.39,5.63,4.57,3.25,3.28,3.27
84.65,-0.99,-4.25,-1.05,-4.32,4.32,5.56,4.48,3.33,3.27,3.26
85.50,-0.91,-4.18,-0.99,-4.26,4.26,5.48,4.40,3.35,3.27,3.27
86.35,-0.91,-4.18,-0.92,-4.20,4.20,5.41,4.32,3.29,3.28,3.27
87.22,-0.90,-4.17,-0.86,-4.13,4.13,5.33,4.24,3.23,3.28,3.27
88.09,-0.84,-4.11,-0.80,-4.07,4.07,5.26,4.17,3.23,3.28,3.27
88.97,-0.69,-3.98,-0.75,-4.02,4.02,5.19,4.09,3.33,3.28,3.29
89.86,-0.68,-3.97,-0.69,-3.97,3.97,5.11,4.02,3.29,3.28,3.29
90.76,-0.68,-3.95,-0.65,-3.92,3.92,5.04,3.94,3.24,3.27,3.27
91.66,-0.68,-3.96,-0.62,-3.89,3.89,4.97,3.87,3.21,3.27,3.28
92.58,-0.60,-3.85,-0.59,-3.86,3.86,4.90,3.80,3.26,3.26,3.25
93.51,-0.50,-3.76,-0.56,-3.81,3.81,4.83,3.73,3.31,3.25,3.26
94.44,-0.46,-3.70,-0.53,-3.77,3.77,4.77,3.66,3.31,3.24,3.24
95.39,-0.46,-3.69,-0.50,-3.72,3.72,4.70,3.60,3.26,3.22,3.23
96.34,-0.46,-3.65,-0.46,-3.67,3.67,4.63,3.53,3.21,3.20,3.19
97.30,-0.46,-3.63,-0.43,-3.62,3.62,4.57,3.47,3.16,3.18,3.17
98.28,-0.46,-3.61,-0.41,-3.56,3.56,4.50,3.40,3.10,3.16,3.15
99.26,-0.46,-3.58,-0.38,-3.51,3.51,4.44,3.34,3.05,3.13,3.12
100.25,-0.45,-3.54,-0.36,-3.45,3.45,4.38,3.28,3.00,3.09,3.09
101.25,-0.38,-3.44,-0.33,-3.39,3.39,4.32,3.22,3.01,3.06,3.06
102.27,-0.23,-3.25,-0.31,-3.33,3.33,4.25,3.16,3.10,3.02,3.02
103.29,-0.23,-3.20,-0.29,-3.27,3.27,4.19,3.10,3.04,2.97,2.97
104.32,-0.23,-3.16,-0.28,-3.20,3.20,4.13,3.04,2.97,2.92,2.93
105.37,-0.23,-3.11,-0.26,-3.13,3.13,4.07,2.99,2.90,2.87,2.88
106.42,-0.23,-3.06,-0.25,-3.06,3.06,4.02,2.93,2.83,2.81,2.83
107.48,-0.23,-2.99,-0.23,-2.98,2.98,3.96,2.88,2.75,2.75,2.76
108.56,-0.23,-2.91,-0.22,-2.91,2.91,3.90,2.83,2.68,2.68,2.68
109.64,-0.23,-2.84,-0.21,-2.83,2.83,3.85,2.78,2.60,2.62,2.61
110.74,-0.23,-2.78,-0.21,-2.75,2.75,3.79,2.73,2.52,2.54,2.55
111.85,-0.23,-2.71,-0.20,-2.67,2.67,3.74,2.68,2.44,2.47,2.48
112.97,-0.23,-2.62,-0.20,-2.60,2.60,3.68,2.63,2.37,2.40,2.39
114.10,-0.23,-2.56,-0.21,-2.54,2.54,3.63,2.59,2.31,2.33,2.33
115.24,-0.23,-2.48,-0.22,-2.48,2.48,3.58,2.54,2.25,2.26,2.25
116.39,-0.23,-2.40,-0.23,-2.42,2.42,3.53,2.50,2.19,2.19,2.17
117.55,-0.23,-2.34,-0.24,-2.37,2.37,3.48,2.46,2.14,2.13,2.11
118.73,-0.23,-2.27,-0.26,-2.33,2.33,3.43,2.42,2.10,2.07,2.04
119.92,-0.23,-2.23,-0.28,-2.29,2.29,3.38,2.38,2.06,2.01,2.00
121.12,-0.23,-2.17,-0.30,-2.26,2.26,3.33,2.34,2.03,1.96,1.94
122.33,-0.23,-2.13,-0.31,-2.23,2.23,3.28,2.31,2.00,1.92,1.90
123.55,-0.33,-2.21,-0.33,-2.20,2.20,3.24,2.27,1.87,1.87,1.88
124.79,-0.45,-2.29,-0.35,-2.18,2.18,3.19,2.24,1.73,1.84,1.84
126.03,-0.46,-2.26,-0.37,-2.17,2.17,3.15,2.21,1.71,1.80,1.80
127.29,-0.46,-2.23,-0.39,-2.16,2.16,3.10,2.18,1.70,1.76,1.77
128.57,-0.46,-2.19,-0.42,-2.15,2.15,3.06,2.15,1.69,1.73,1.73
129.85,-0.46,-2.16,-0.44,-2.14,2.14,3.01,2.12,1.68,1.70,1.70
131.15,-0.46,-2.13,-0.48,-2.14,2.14,2.97,2.10,1.68,1.67,1.67
132.46,-0.46,-2.10,-0.51,-2.15,2.15,2.93,2.07,1.69,1.63,1.64
133.79,-0.46,-2.07,-0.55,-2.15,2.15,2.89,2.05,1.69,1.60,1.61
135.12,-0.47,-2.03,-0.58,-2.16,2.16,2.85,2.03,1.68,1.57,1.56
136.48,-0.62,-2.15,-0.62,-2.16,2.16,2.81,2.01,1.54,1.54,1.53
137.84,-0.68,-2.18,-0.65,-2.15,2.15,2.77,1.99,1.47,1.50,1.50
139.22,-0.68,-2.13,-0.69,-2.15,2.15,2.73,1.97,1.47,1.47,1.45
140.61,-0.68,-2.08,-0.73,-2.15,2.15,2.70,1.95,1.47,1.43,1.40
142.02,-0.79,-2.17,-0.76,-2.14,2.14,2.66,1.93,1.35,1.38,1.38
143.44,-0.88,-2.22,-0.79,-2.13,2.13,2.62,1.92,1.25,1.34,1.34
144.87,-0.91,-2.21,-0.82,-2.11,2.11,2.59,1.91,1.20,1.29,1.30
146.32,-0.91,-2.16,-0.85,-2.09,2.09,2.55,1.89,1.18,1.23,1.25
147.78,-0.91,-2.12,-0.89,-2.06,2.06,2.52,1.88,1.15,1.17,1.21
149.26,-0.91,-2.05,-0.91,-2.03,2.03,2.49,1.87,1.12,1.11,1.14
150.75,-0.91,-1.97,-0.94,-1.98,1.98,2.45,1.86,1.07,1.04,1.06
152.26,-0.91,-1.90,-0.96,-1.93,1.93,2.42,1.85,1.02,0.97,0.99
153.78,-0.91,-1.83,-0.98,-1.89,1.89,2.39,1.85,0.98,0.90,0.92
155.32,-0.91,-1.73,-1.01,-1.84,1.84,2.36,1.84,0.93,0.83,0.82
156.88,-0.93,-1.68,-1.03,-1.78,1.78,2.33,1.84,0.85,0.76,0.75
158.44,-1.08,-1.76,-1.03,-1.72,1.72,2.30,1.83,0.64,0.69,0.68
160.03,-1.14,-1.74,-1.04,-1.66,1.66,2.27,1.83,0.52,0.63,0.60
161.63,-1.14,-1.68,-1.06,-1.62,1.62,2.25,1.83,0.48,0.57,0.54
163.24,-1.14,-1.63,-1.08,-1.60,1.60,2.22,1.82,0.46,0.51,0.49
164.88,-1.14,-1.59,-1.11,-1.58,1.58,2.19,1.82,0.44,0.47,0.45
166.53,-1.14,-1.55,-1.13,-1.57,1.57,2.17,1.82,0.43,0.44,0.41
168.19,-1.14,-1.52,-1.16,-1.57,1.57,2.14,1.83,0.43,0.41,0.38
169.87,-1.14,-1.51,-1.19,-1.58,1.58,2.12,1.83,0.44,0.39,0.37
171.57,-1.14,-1.50,-1.21,-1.59,1.59,2.10,1.83,0.45,0.38,0.36
173.29,-1.14,-1.50,-1.24,-1.61,1.61,2.08,1.84,0.47,0.37,0.36
175.02,-1.14,-1.52,-1.25,-1.62,1.62,2.05,1.84,0.48,0.37,0.38
176.77,-1.33,-1.70,-1.25,-1.62,1.62,2.03,1.85,0.29,0.37,0.37
178.54,-1.37,-1.75,-1.27,-1.64,1.64,2.01,1.86,0.27,0.37,0.38
180.32,-1.37,-1.76,-1.29,-1.66,1.66,2.00,1.86,0.29,0.37,0.39
182.13,-1.37,-1.76,-1.32,-1.68,1.68,1.98,1.87,0.31,0.37,0.39
183.95,-1.37,-1.76,-1.34,-1.71,1.71,1.96,1.88,0.34,0.37,0.39
185.79,-1.37,-1.75,-1.37,-1.73,1.73,1.94,1.89,0.36,0.36,0.38
187.65,-1.37,-1.73,-1.40,-1.76,1.76,1.93,1.90,0.39,0.35,0.36
189.52,-1.37,-1.71,-1.43,-1.77,1.77,1.91,1.92,0.40,0.34,0.34
191.42,-1.37,-1.69,-1.45,-1.78,1.78,1.90,1.93,0.41,0.33,0.32
193.33,-1.37,-1.67,-1.46,-1.77,1.77,1.89,1.94,0.40,0.31,0.30
195.27,-1.47,-1.77,-1.48,-1.77,1.77,1.88,1.96,0.30,0.30,0.30
197.22,-1.57,-1.85,-1.49,-1.77,1.77,1.87,1.97,0.20,0.28,0.28
199.19,-1.60,-1.84,-1.52,-1.78,1.78,1.86,1.99,0.18,0.26,0.24
201.18,-1.60,-1.84,-1.55,-1.79,1.79,1.85,2.01,0.19,0.24,0.24
203.19,-1.60,-1.82,-1.58,-1.80,1.80,1.84,2.02,0.20,0.22,0.22
205.23,-1.60,-1.79,-1.62,-1.82,1.82,1.84,2.04,0.22,0.20,0.19
207.28,-1.60,-1.79,-1.65,-1.83,1.83,1.83,2.06,0.23,0.19,0.19
209.35,-1.60,-1.77,-1.68,-1.85,1.85,1.83,2.08,0.25,0.17,0.17
211.44,-1.60,-1.74,-1.70,-1.85,1.85,1.83,2.09,0.25,0.16,0.14
213.56,-1.75,-1.89,-1.71,-1.86,1.86,1.83,2.11,0.11,0.14,0.14
215.69,-1.82,-1.96,-1.73,-1.86,1.86,1.83,2.13,0.04,0.13,0.14
217.85,-1.82,-1.93,-1.75,-1.86,1.86,1.83,2.15,0.04,0.11,0.11
220.03,-1.82,-1.92,-1.77,-1.88,1.88,1.84,2.17,0.06,0.10,0.10
222.23,-1.82,-1.90,-1.80,-1.89,1.89,1.85,2.18,0.07,0.09,0.08
224.45,-1.82,-1.90,-1.83,-1.92,1.92,1.85,2.20,0.10,0.08,0.08
226.70,-1.82,-1.90,-1.86,-1.94,1.94,1.87,2.21,0.12,0.08,0.08
228.96,-1.82,-1.89,-1.89,-1.96,1.96,1.88,2.23,0.14,0.07,0.07
231.25,-1.82,-1.89,-1.91,-1.98,1.98,1.90,2.24,0.16,0.06,0.07
233.57,-1.85,-1.91,-1.93,-1.99,1.99,1.91,2.26,0.14,0.06,0.06
235.90,-2.04,-2.09,-1.94,-2.00,2.00,1.94,2.27,-0.04,0.06,0.05
238.26,-2.05,-2.10,-1.96,-2.02,2.02,1.96,2.28,-0.03,0.06,0.05
240.64,-2.05,-2.10,-1.98,-2.04,2.04,1.99,2.29,-0.01,0.06,0.05
243.05,-2.05,-2.11,-2.00,-2.07,2.07,2.02,2.30,0.02,0.06,0.06
245.48,-2.05,-2.12,-2.03,-2.10,2.10,2.05,2.30,0.05,0.07,0.07
247.93,-2.05,-2.13,-2.05,-2.13,2.13,2.09,2.31,0.08,0.07,0.08
250.41,-2.05,-2.12,-2.08,-2.16,2.16,2.13,2.31,0.11,0.08,0.07
252.92,-2.05,-2.13,-2.11,-2.20,2.20,2.17,2.31,0.15,0.09,0.08
255.45,-2.05,-2.16,-2.15,-2.25,2.25,2.22,2.31,0.20,0.09,0.11
258.00,-2.19,-2.30,-2.20,-2.30,2.30,2.27,2.31,0.11,0.10,0.11
260.58,-2.28,-2.39,-2.24,-2.36,2.36,2.33,2.31,0.08,0.12,0.11
263.19,-2.28,-2.41,-2.29,-2.42,2.42,2.38,2.31,0.14,0.13,0.13
265.82,-2.28,-2.41,-2.34,-2.49,2.49,2.44,2.30,0.21,0.14,0.13
268.48,-2.33,-2.49,-2.41,-2.57,2.57,2.50,2.30,0.24,0.16,0.16
271.16,-2.46,-2.63,-2.48,-2.66,2.66,2.56,2.29,0.20,0.18,0.17
273.87,-2.51,-2.69,-2.55,-2.75,2.75,2.62,2.28,0.24,0.20,0.18
276.61,-2.64,-2.86,-2.62,-2.84,2.84,2.67,2.27,0.20,0.22,0.22
279.38,-2.72,-2.95,-2.68,-2.92,2.92,2.72,2.26,0.20,0.24,0.23
282.17,-2.74,-3.00,-2.72,-2.98,2.98,2.76,2.25,0.24,0.27,0.26
284.99,-2.74,-3.03,-2.73,-3.02,3.02,2.79,2.25,0.28,0.29,0.29
287.84,-2.74,-3.05,-2.71,-3.03,3.03,2.81,2.24,0.29,0.32,0.31
290.72,-2.74,-3.09,-2.68,-3.03,3.03,2.82,2.23,0.29,0.35,0.35
293.63,-2.74,-3.11,-2.63,-3.01,3.01,2.82,2.22,0.27,0.38,0.37
296.57,-2.74,-3.14,-2.56,-2.96,2.96,2.80,2.21,0.22,0.40,0.40
299.53,-2.56,-2.99,-2.46,-2.89,2.89,2.78,2.20,0.33,0.43,0.43
302.53,-2.50,-2.94,-2.34,-2.79,2.79,2.75,2.19,0.29,0.45,0.44
305.55,-2.28,-2.76,-2.22,-2.69,2.69,2.71,2.18,0.41,0.47,0.48
308.61,-2.01,-2.51,-2.09,-2.58,2.58,2.66,2.18,0.57,0.49,0.50
311.69,-1.84,-2.35,-1.96,-2.46,2.46,2.61,2.17,0.62,0.50,0.51
314.81,-1.68,-2.22,-1.83,-2.34,2.34,2.56,2.17,0.66,0.52,0.54
317.96,-1.61,-2.15,-1.71,-2.24,2.24,2.51,2.17,0.63,0.53,0.54
321.14,-1.59,-2.12,-1.60,-2.14,2.14,2.45,2.16,0.55,0.54,0.53
324.35,-1.42,-1.96,-1.51,-2.06,2.06,2.40,2.16,0.64,0.55,0.54
327.59,-1.37,-1.92,-1.45,-2.00,2.00,2.35,2.16,0.63,0.56,0.55
330.87,-1.37,-1.93,-1.40,-1.97,1.97,2.31,2.17,0.60,0.57,0.56
334.18,-1.37,-1.93,-1.38,-1.96,1.96,2.26,2.17,0.59,0.58,0.56
337.52,-1.37,-1.94,-1.38,-1.97,1.97,2.23,2.17,0.60,0.59,0.57
340.90,-1.37,-1.97,-1.40,-2.00,2.00,2.19,2.18,0.63,0.60,0.60
344.30,-1.37,-1.98,-1.42,-2.04,2.04,2.16,2.19,0.67,0.62,0.61
347.75,-1.43,-2.05,-1.45,-2.08,2.08,2.13,2.20,0.65,0.63,0.62
351.23,-1.56,-2.21,-1.48,-2.13,2.13,2.11,2.21,0.57,0.65,0.65
354.74,-1.60,-2.27,-1.50,-2.18,2.18,2.08,2.22,0.58,0.68,0.67
358.28,-1.60,-2.30,-1.53,-2.23,2.23,2.07,2.24,0.63,0.70,0.70
361.87,-1.60,-2.32,-1.56,-2.28,2.28,2.05,2.26,0.68,0.72,0.72
365.49,-1.60,-2.34,-1.58,-2.32,2.32,2.04,2.27,0.72,0.74,0.74
369.14,-1.60,-2.36,-1.59,-2.36,2.36,2.03,2.29,0.76,0.77,0.76
372.83,-1.60,-2.39,-1.61,-2.39,2.39,2.03,2.31,0.79,0.79,0.79
376.56,-1.60,-2.41,-1.61,-2.42,2.42,2.02,2.34,0.82,0.81,0.81
380.33,-1.60,-2.44,-1.62,-2.45,2.45,2.02,2.36,0.85,0.83,0.84
384.13,-1.60,-2.46,-1.62,-2.46,2.46,2.02,2.39,0.86,0.85,0.86
387.97,-1.60,-2.47,-1.61,-2.47,2.47,2.03,2.41,0.87,0.86,0.87
391.85,-1.60,-2.47,-1.60,-2.48,2.48,2.03,2.44,0.88,0.88,0.87
395.77,-1.60,-2.48,-1.60,-2.49,2.49,2.04,2.47,0.89,0.89,0.88
399.73,-1.60,-2.49,-1.60,-2.50,2.50,2.05,2.50,0.90,0.90,0.89
403.72,-1.60,-2.50,-1.60,-2.51,2.51,2.06,2.53,0.91,0.91,0.90
407.76,-1.60,-2.51,-1.60,-2.51,2.51,2.07,2.56,0.91,0.91,0.91
411.84,-1.60,-2.52,-1.60,-2.52,2.52,2.09,2.59,0.92,0.92,0.92
415.96,-1.60,-2.53,-1.60,-2.52,2.52,2.10,2.63,0.92,0.92,0.93
420.12,-1.60,-2.53,-1.60,-2.52,2.52,2.12,2.66,0.92,0.92,0.93
424.32,-1.60,-2.53,-1.60,-2.53,2.53,2.14,2.69,0.93,0.93,0.93
428.56,-1.60,-2.53,-1.60,-2.53,2.53,2.16,2.73,0.93,0.93,0.93
432.85,-1.60,-2.52,-1.60,-2.53,2.53,2.18,2.76,0.93,0.93,0.92
437.18,-1.60,-2.53,-1.60,-2.54,2.54,2.20,2.79,0.94,0.94,0.93
441.55,-1.60,-2.54,-1.60,-2.54,2.54,2.23,2.82,0.94,0.94,0.94
445.96,-1.60,-2.54,-1.60,-2.55,2.55,2.25,2.85,0.95,0.95,0.94
450.42,-1.60,-2.55,-1.60,-2.56,2.56,2.28,2.88,0.96,0.96,0.95
454.93,-1.60,-2.56,-1.60,-2.57,2.57,2.31,2.91,0.97,0.97,0.96
459.48,-1.60,-2.57,-1.60,-2.58,2.58,2.33,2.93,0.98,0.98,0.97
464.07,-1.60,-2.59,-1.60,-2.60,2.60,2.36,2.96,1.00,1.00,0.99
468.71,-1.60,-2.61,-1.60,-2.61,2.61,2.39,2.98,1.01,1.01,1.01
