frequency,raw,error,smoothed,error_smoothed,equalization,parametric_eq,fixed_band_eq,equalized_raw,equalized_smoothed,target
20.00,-3.53,-13.35,-3.53,-13.36,13.36,12.92,5.20,9.83,9.83,9.82
20.20,-3.45,-13.26,-3.45,-13.26,13.26,12.90,5.33,9.81,9.81,9.81
20.40,-3.37,-13.17,-3.37,-13.17,13.17,12.88,5.46,9.80,9.80,9.80
20.61,-3.29,-13.09,-3.29,-13.08,13.08,12.85,5.60,9.79,9.79,9.79
20.81,-3.21,-12.98,-3.21,-12.99,12.99,12.82,5.74,9.78,9.78,9.77
21.02,-3.13,-12.89,-3.13,-12.90,12.90,12.78,5.88,9.77,9.77,9.76
21.23,-3.05,-12.80,-3.05,-12.81,12.81,12.74,6.03,9.76,9.76,9.75
21.44,-2.97,-12.73,-2.97,-12.72,12.72,12.69,6.19,9.75,9.75,9.76
21.66,-2.89,-12.64,-2.89,-12.63,12.63,12.64,6.34,9.74,9.74,9.74
21.87,-2.82,-12.56,-2.81,-12.55,12.55,12.58,6.51,9.73,9.73,9.74
22.09,-2.74,-12.46,-2.74,-12.46,12.46,12.52,6.67,9.72,9.72,9.72
22.31,-2.66,-12.37,-2.66,-12.37,12.37,12.45,6.84,9.72,9.72,9.71
22.54,-2.58,-12.29,-2.58,-12.29,12.29,12.38,7.02,9.71,9.71,9.70
22.76,-2.50,-12.20,-2.50,-12.21,12.21,12.31,7.19,9.71,9.70,9.70
22.99,-2.42,-12.11,-2.42,-12.12,12.12,12.24,7.38,9.70,9.70,9.69
23.22,-2.35,-12.03,-2.35,-12.04,12.04,12.16,7.57,9.69,9.69,9.68
23.45,-2.27,-11.96,-2.27,-11.96,11.96,12.08,7.76,9.69,9.69,9.69
23.69,-2.19,-11.88,-2.19,-11.88,11.88,12.00,7.96,9.68,9.68,9.68
23.92,-2.11,-11.78,-2.11,-11.79,11.79,11.92,8.16,9.69,9.68,9.67
24.16,-2.04,-11.72,-2.04,-11.72,11.72,11.83,8.37,9.68,9.68,9.68
24.40,-1.96,-11.64,-1.96,-11.64,11.64,11.75,8.58,9.68,9.67,9.68
24.65,-1.89,-11.56,-1.89,-11.56,11.56,11.66,8.79,9.67,9.67,9.67
24.89,-1.81,-11.48,-1.81,-11.48,11.48,11.57,9.01,9.67,9.67,9.67
25.14,-1.74,-11.40,-1.74,-11.41,11.41,11.48,9.24,9.67,9.67,9.66
25.39,-1.66,-11.32,-1.66,-11.33,11.33,11.40,9.46,9.67,9.67,9.66
25.65,-1.59,-11.25,-1.59,-11.25,11.25,11.31,9.70,9.66,9.67,9.66
25.91,-1.52,-11.19,-1.51,-11.18,11.18,11.22,9.93,9.66,9.67,9.66
26.16,-1.44,-11.11,-1.44,-11.11,11.11,11.13,10.17,9.67,9.66,9.67
26.43,-1.37,-11.04,-1.37,-11.03,11.03,11.05,10.40,9.66,9.67,9.66
26.69,-1.30,-10.96,-1.30,-10.96,10.96,10.96,10.64,9.66,9.67,9.66
26.96,-1.22,-10.89,-1.22,-10.89,10.89,10.87,10.88,9.67,9.67,9.66
27.23,-1.15,-10.82,-1.15,-10.82,10.82,10.79,11.12,9.67,9.67,9.66
27.50,-1.08,-10.74,-1.08,-10.75,10.75,10.70,11.35,9.67,9.67,9.66
27.77,-1.02,-10.69,-1.01,-10.69,10.69,10.62,11.58,9.67,9.67,9.67
28.05,-0.95,-10.61,-0.95,-10.62,10.62,10.54,11.81,9.67,9.67,9.66
28.33,-0.88,-10.55,-0.88,-10.55,10.55,10.45,12.03,9.67,9.67,9.67
28.62,-0.82,-10.50,-0.82,-10.49,10.49,10.37,12.23,9.67,9.67,9.67
28.90,-0.75,-10.43,-0.75,-10.43,10.43,10.30,12.43,9.68,9.67,9.68
29.19,-0.69,-10.37,-0.69,-10.37,10.37,10.22,12.61,9.68,9.67,9.68
29.48,-0.63,-10.30,-0.63,-10.31,10.31,10.14,12.78,9.68,9.67,9.67
29.78,-0.57,-10.24,-0.58,-10.25,10.25,10.07,12.92,9.68,9.67,9.67
30.08,-0.51,-10.19,-0.52,-10.19,10.19,9.99,13.05,9.68,9.67,9.67
30.38,-0.46,-10.12,-0.47,-10.13,10.13,9.92,13.15,9.67,9.66,9.65
30.68,-0.42,-10.07,-0.42,-10.08,10.08,9.85,13.22,9.66,9.66,9.65
30.99,-0.37,-10.02,-0.37,-10.02,10.02,9.78,13.28,9.65,9.65,9.65
31.30,-0.33,-9.98,-0.32,-9.97,9.97,9.72,13.30,9.64,9.65,9.65
31.61,-0.28,-9.92,-0.28,-9.92,9.92,9.65,13.30,9.64,9.64,9.64
31.93,-0.23,-9.86,-0.23,-9.87,9.87,9.59,13.27,9.63,9.63,9.62
32.24,-0.19,-9.82,-0.19,-9.81,9.81,9.53,13.21,9.63,9.63,9.63
32.57,-0.15,-9.76,-0.14,-9.76,9.76,9.46,13.14,9.61,9.62,9.61
32.89,-0.10,-9.71,-0.10,-9.72,9.72,9.41,13.04,9.62,9.61,9.61
33.22,-0.06,-9.66,-0.06,-9.67,9.67,9.35,12.91,9.61,9.61,9.60
33.55,-0.02,-9.62,-0.02,-9.62,9.62,9.29,12.78,9.60,9.60,9.60
33.89,0.03,-9.56,0.03,-9.57,9.57,9.24,12.62,9.60,9.59,9.59
34.23,0.07,-9.50,0.07,-9.52,9.52,9.18,12.46,9.59,9.59,9.57
34.57,0.11,-9.46,0.11,-9.46,9.46,9.13,12.28,9.57,9.58,9.57
34.92,0.15,-9.40,0.15,-9.41,9.41,9.08,12.09,9.56,9.57,9.55
35.27,0.19,-9.38,0.19,-9.36,9.36,9.03,11.90,9.55,9.56,9.57
35.62,0.23,-9.31,0.23,-9.31,9.31,8.99,11.70,9.54,9.55,9.54
35.97,0.28,-9.26,0.27,-9.26,9.26,8.94,11.50,9.54,9.53,9.54
36.33,0.31,-9.21,0.31,-9.21,9.21,8.90,11.30,9.52,9.52,9.52
36.70,0.35,-9.15,0.35,-9.16,9.16,8.85,11.10,9.51,9.50,9.50
37.06,0.39,-9.09,0.38,-9.10,9.10,8.81,10.90,9.49,9.49,9.48
37.43,0.42,-9.04,0.42,-9.05,9.05,8.77,10.70,9.47,9.47,9.46
37.81,0.45,-9.00,0.45,-9.00,9.00,8.72,10.50,9.44,9.45,9.45
38.19,0.49,-8.93,0.49,-8.94,8.94,8.68,10.31,9.43,9.43,9.42
38.57,0.52,-8.88,0.52,-8.88,8.88,8.64,10.12,9.40,9.41,9.40
38.95,0.55,-8.84,0.56,-8.83,8.83,8.60,9.93,9.38,9.39,9.39
39.34,0.58,-8.78,0.59,-8.77,8.77,8.57,9.75,9.35,9.36,9.36
39.74,0.62,-8.71,0.62,-8.72,8.72,8.53,9.58,9.34,9.34,9.33
40.14,0.66,-8.65,0.66,-8.66,8.66,8.49,9.41,9.32,9.32,9.31
40.54,0.69,-8.60,0.69,-8.61,8.61,8.45,9.24,9.30,9.30,9.29
40.94,0.73,-8.53,0.72,-8.55,8.55,8.41,9.08,9.28,9.27,9.26
41.35,0.76,-8.49,0.75,-8.50,8.50,8.37,8.93,9.26,9.25,9.25
41.76,0.79,-8.43,0.78,-8.44,8.44,8.33,8.78,9.23,9.23,9.22
42.18,0.82,-8.39,0.82,-8.39,8.39,8.29,8.64,9.21,9.21,9.21
42.60,0.85,-8.33,0.85,-8.33,8.33,8.25,8.50,9.18,9.18,9.18
43.03,0.87,-8.29,0.88,-8.28,8.28,8.21,8.37,9.15,9.16,9.16
43.46,0.91,-8.21,0.91,-8.22,8.22,8.17,8.24,9.13,9.13,9.12
43.90,0.94,-8.16,0.94,-8.16,8.16,8.13,8.12,9.10,9.11,9.10
44.33,0.97,-8.10,0.98,-8.10,8.10,8.09,8.01,9.07,9.08,9.07
44.78,1.00,-8.05,1.01,-8.04,8.04,8.04,7.90,9.04,9.05,9.05
45.23,1.04,-7.99,1.04,-7.98,7.98,8.00,7.80,9.02,9.02,9.03
45.68,1.07,-7.91,1.07,-7.92,7.92,7.95,7.70,8.99,8.99,8.98
46.13,1.10,-7.85,1.10,-7.85,7.85,7.90,7.60,8.95,8.95,8.95
46.60,1.14,-7.77,1.13,-7.78,7.78,7.85,7.52,8.92,8.91,8.91
47.06,1.17,-7.71,1.16,-7.71,7.71,7.80,7.43,8.88,8.87,8.88
47.53,1.20,-7.64,1.19,-7.64,7.64,7.75,7.35,8.84,8.84,8.84
48.01,1.23,-7.56,1.23,-7.57,7.57,7.69,7.28,8.80,8.80,8.79
48.49,1.25,-7.50,1.26,-7.50,7.50,7.64,7.21,8.75,8.76,8.75
48.97,1.28,-7.42,1.29,-7.43,7.43,7.58,7.14,8.71,8.71,8.70
49.46,1.31,-7.36,1.32,-7.36,7.36,7.52,7.08,8.67,8.67,8.67
49.96,1.35,-7.26,1.35,-7.28,7.28,7.46,7.02,8.63,8.63,8.61
50.46,1.38,-7.20,1.38,-7.21,7.21,7.39,6.97,8.59,8.59,8.58
50.96,1.41,-7.13,1.41,-7.13,7.13,7.33,6.92,8.54,8.54,8.54
51.47,1.44,-7.06,1.44,-7.06,7.06,7.26,6.87,8.50,8.50,8.50
51.99,1.47,-6.98,1.47,-6.99,6.99,7.19,6.82,8.46,8.46,8.45
52.51,1.50,-6.92,1.51,-6.91,6.91,7.12,6.78,8.41,8.42,8.42
53.03,1.53,-6.86,1.54,-6.84,6.84,7.04,6.74,8.37,8.38,8.39
53.56,1.57,-6.77,1.57,-6.77,6.77,6.97,6.70,8.34,8.34,8.34
54.10,1.61,-6.68,1.60,-6.70,6.70,6.89,6.66,8.31,8.30,8.29
54.64,1.64,-6.61,1.63,-6.63,6.63,6.81,6.62,8.27,8.26,8.25
55.18,1.67,-6.54,1.66,-6.56,6.56,6.73,6.58,8.23,8.22,8.21
55.74,1.70,-6.46,1.69,-6.49,6.49,6.65,6.55,8.19,8.18,8.16
56.29,1.72,-6.42,1.72,-6.42,6.42,6.57,6.51,8.14,8.14,8.14
56.86,1.74,-6.36,1.75,-6.35,6.35,6.49,6.47,8.09,8.10,8.10
57.42,1.77,-6.28,1.78,-6.29,6.29,6.40,6.43,8.06,8.06,8.05
58.00,1.80,-6.21,1.80,-6.22,6.22,6.32,6.39,8.02,8.02,8.01
58.58,1.82,-6.16,1.82,-6.15,6.15,6.23,6.35,7.97,7.98,7.98
59.16,1.85,-6.10,1.84,-6.09,6.09,6.14,6.30,7.94,7.93,7.95
59.76,1.87,-6.03,1.86,-6.03,6.03,6.05,6.26,7.90,7.88,7.90
60.35,1.89,-5.96,1.87,-5.97,5.97,5.97,6.21,7.86,7.84,7.85
60.96,1.90,-5.89,1.89,-5.90,5.90,5.88,6.15,7.80,7.79,7.79
61.57,1.91,-5.82,1.90,-5.84,5.84,5.79,6.10,7.75,7.74,7.73
62.18,1.91,-5.76,1.91,-5.77,5.77,5.70,6.04,7.68,7.68,7.67
62.80,1.91,-5.70,1.92,-5.71,5.71,5.61,5.97,7.62,7.63,7.61
63.43,1.92,-5.64,1.93,-5.64,5.64,5.52,5.90,7.56,7.58,7.56
64.07,1.93,-5.58,1.94,-5.58,5.58,5.43,5.83,7.51,7.52,7.51
64.71,1.94,-5.52,1.95,-5.51,5.51,5.34,5.76,7.45,7.47,7.46
65.35,1.96,-5.44,1.97,-5.45,5.45,5.25,5.68,7.41,7.41,7.40
66.01,1.97,-5.38,1.98,-5.38,5.38,5.16,5.60,7.35,7.36,7.35
66.67,1.99,-5.32,1.99,-5.31,5.31,5.07,5.52,7.30,7.30,7.31
67.33,2.01,-5.23,2.01,-5.24,5.24,4.98,5.43,7.25,7.25,7.24
68.01,2.02,-5.17,2.02,-5.17,5.17,4.90,5.34,7.19,7.19,7.19
68.69,2.03,-5.11,2.03,-5.10,5.10,4.81,5.25,7.13,7.14,7.14
69.37,2.05,-5.04,2.05,-5.04,5.04,4.72,5.16,7.09,7.08,7.09
70.07,2.06,-4.97,2.06,-4.97,4.97,4.64,5.06,7.03,7.02,7.03
70.77,2.08,-4.88,2.07,-4.90,4.90,4.55,4.97,6.98,6.97,6.96
71.48,2.08,-4.83,2.07,-4.84,4.84,4.47,4.87,6.92,6.91,6.91
72.19,2.09,-4.76,2.08,-4.77,4.77,4.38,4.77,6.86,6.85,6.85
72.91,2.09,-4.69,2.08,-4.71,4.71,4.30,4.67,6.80,6.80,6.78
73.64,2.09,-4.64,2.09,-4.65,4.65,4.22,4.57,6.74,6.74,6.73
74.38,2.09,-4.58,2.09,-4.60,4.60,4.14,4.48,6.69,6.68,6.67
75.12,2.08,-4.54,2.09,-4.54,4.54,4.06,4.38,6.62,6.63,6.62
75.87,2.08,-4.49,2.09,-4.49,4.49,3.98,4.28,6.57,6.58,6.57
76.63,2.08,-4.43,2.08,-4.44,4.44,3.90,4.18,6.52,6.52,6.51
77.40,2.08,-4.39,2.08,-4.39,4.39,3.83,4.09,6.47,6.47,6.47
78.17,2.09,-4.32,2.08,-4.34,4.34,3.75,3.99,6.43,6.42,6.41
78.95,2.09,-4.28,2.08,-4.29,4.29,3.68,3.90,6.38,6.37,6.37
79.74,2.09,-4.23,2.08,-4.24,4.24,3.60,3.81,6.33,6.32,6.32
80.54,2.09,-4.18,2.09,-4.18,4.18,3.53,3.72,6.27,6.27,6.27
81.35,2.09,-4.12,2.10,-4.12,4.12,3.46,3.63,6.21,6.22,6.21
82.16,2.09,-4.09,2.11,-4.06,4.06,3.39,3.54,6.15,6.17,6.18
82.98,2.10,-4.02,2.13,-3.99,3.99,3.32,3.46,6.09,6.12,6.12
83.81,2.12,-3.95,2.15,-3.92,3.92,3.25,3.38,6.04,6.07,6.07
84.65,2.14,-3.87,2.16,-3.85,3.85,3.19,3.30,5.99,6.01,6.01
85.50,2.17,-3.78,2.18,-3.78,3.78,3.12,3.22,5.95,5.96,5.95
86.35,2.21,-3.69,2.19,-3.71,3.71,3.05,3.14,5.92,5.91,5.90
87.22,2.24,-3.61,2.21,-3.64,3.64,2.99,3.07,5.88,5.85,5.85
88.09,2.26,-3.53,2.22,-3.58,3.58,2.93,2.99,5.84,5.80,5.79
88.97,2.28,-3.45,2.23,-3.51,3.51,2.87,2.92,5.79,5.74,5.73
89.86,2.28,-3.40,2.25,-3.44,3.44,2.81,2.86,5.72,5.68,5.68
90.76,2.27,-3.35,2.26,-3.36,3.36,2.75,2.79,5.63,5.62,5.62
91.66,2.27,-3.28,2.27,-3.29,3.29,2.69,2.72,5.56,5.56,5.55
92.58,2.26,-3.24,2.28,-3.22,3.22,2.63,2.66,5.48,5.50,5.50
93.51,2.27,-3.18,2.30,-3.15,3.15,2.57,2.60,5.42,5.44,5.45
94.44,2.27,-3.12,2.31,-3.07,3.07,2.52,2.54,5.34,5.38,5.39
95.39,2.29,-3.03,2.32,-3.00,3.00,2.46,2.49,5.29,5.32,5.32
96.34,2.32,-2.93,2.34,-2.92,2.92,2.41,2.43,5.24,5.26,5.25
97.30,2.35,-2.84,2.36,-2.84,2.84,2.35,2.38,5.19,5.20,5.19
98.28,2.38,-2.74,2.38,-2.75,2.75,2.30,2.32,5.13,5.13,5.12
99.26,2.41,-2.65,2.41,-2.67,2.67,2.25,2.27,5.08,5.07,5.06
100.25,2.45,-2.55,2.44,-2.58,2.58,2.20,2.22,5.03,5.01,5.00
101.25,2.48,-2.47,2.47,-2.49,2.49,2.15,2.18,4.97,4.96,4.95
102.27,2.50,-2.39,2.49,-2.40,2.40,2.10,2.13,4.90,4.90,4.89
103.29,2.52,-2.31,2.52,-2.32,2.32,2.05,2.09,4.84,4.84,4.83
104.32,2.54,-2.24,2.54,-2.24,2.24,2.01,2.04,4.78,4.78,4.78
105.37,2.57,-2.15,2.56,-2.17,2.17,1.96,2.00,4.74,4.73,4.72
106.42,2.59,-2.08,2.58,-2.10,2.10,1.92,1.96,4.69,4.67,4.67
107.48,2.60,-2.01,2.59,-2.03,2.03,1.87,1.92,4.63,4.61,4.61
108.56,2.62,-1.94,2.59,-1.96,1.96,1.83,1.88,4.58,4.56,4.56
109.64,2.61,-1.89,2.60,-1.90,1.90,1.78,1.84,4.51,4.50,4.50
110.74,2.60,-1.84,2.60,-1.84,1.84,1.74,1.80,4.44,4.44,4.44
111.85,2.60,-1.78,2.60,-1.78,1.78,1.70,1.77,4.38,4.38,4.38
112.97,2.59,-1.74,2.60,-1.72,1.72,1.66,1.73,4.31,4.32,4.33
114.10,2.59,-1.68,2.60,-1.66,1.66,1.62,1.69,4.25,4.26,4.27
115.24,2.59,-1.60,2.60,-1.61,1.61,1.58,1.66,4.20,4.21,4.19
116.39,2.59,-1.54,2.60,-1.55,1.55,1.54,1.62,4.14,4.15,4.13
117.55,2.59,-1.48,2.59,-1.50,1.50,1.50,1.59,4.09,4.09,4.07
118.73,2.59,-1.42,2.59,-1.44,1.44,1.46,1.55,4.03,4.03,4.01
119.92,2.59,-1.38,2.59,-1.39,1.39,1.42,1.52,3.98,3.98,3.97
121.12,2.59,-1.33,2.59,-1.33,1.33,1.38,1.48,3.92,3.92,3.92
122.33,2.59,-1.27,2.59,-1.28,1.28,1.35,1.45,3.87,3.86,3.86
123.55,2.59,-1.22,2.59,-1.22,1.22,1.31,1.42,3.81,3.81,3.81
124.79,2.59,-1.17,2.59,-1.16,1.16,1.27,1.38,3.75,3.75,3.76
126.03,2.59,-1.11,2.59,-1.10,1.10,1.24,1.35,3.69,3.70,3.70
127.29,2.59,-1.06,2.60,-1.05,1.05,1.20,1.31,3.64,3.64,3.65
128.57,2.59,-0.99,2.60,-0.99,0.99,1.17,1.28,3.58,3.59,3.58
129.85,2.59,-0.94,2.61,-0.93,0.93,1.13,1.24,3.52,3.53,3.53
131.15,2.59,-0.88,2.61,-0.87,0.87,1.10,1.21,3.46,3.48,3.47
132.46,2.60,-0.82,2.61,-0.81,0.81,1.07,1.18,3.41,3.42,3.42
133.79,2.61,-0.75,2.61,-0.76,0.76,1.03,1.14,3.37,3.37,3.36
135.12,2.62,-0.69,2.61,-0.71,0.71,1.00,1.11,3.33,3.32,3.31
136.48,2.62,-0.64,2.60,-0.66,0.66,0.97,1.07,3.28,3.26,3.26
137.84,2.61,-0.60,2.59,-0.62,0.62,0.93,1.03,3.23,3.21,3.21
139.22,2.60,-0.55,2.57,-0.59,0.59,0.90,1.00,3.19,3.16,3.15
140.61,2.58,-0.53,2.56,-0.55,0.55,0.87,0.96,3.13,3.11,3.11
142.02,2.54,-0.51,2.54,-0.53,0.53,0.84,0.93,3.07,3.06,3.05
143.44,2.52,-0.49,2.51,-0.51,0.51,0.81,0.89,3.03,3.02,3.01
144.87,2.48,-0.49,2.48,-0.49,0.49,0.78,0.86,2.97,2.97,2.97
146.32,2.46,-0.46,2.46,-0.47,0.47,0.75,0.82,2.93,2.93,2.92
147.78,2.42,-0.46,2.43,-0.46,0.46,0.72,0.78,2.88,2.88,2.88
149.26,2.39,-0.44,2.40,-0.44,0.44,0.68,0.75,2.83,2.84,2.83
150.75,2.35,-0.44,2.37,-0.42,0.42,0.65,0.71,2.77,2.79,2.79
152.26,2.33,-0.42,2.35,-0.40,0.40,0.62,0.68,2.73,2.75,2.75
153.78,2.30,-0.41,2.33,-0.38,0.38,0.59,0.64,2.68,2.71,2.71
155.32,2.28,-0.39,2.31,-0.36,0.36,0.56,0.61,2.64,2.67,2.67
156.88,2.28,-0.34,2.29,-0.33,0.33,0.53,0.57,2.61,2.62,2.62
158.44,2.27,-0.30,2.28,-0.30,0.30,0.50,0.53,2.57,2.58,2.57
160.03,2.27,-0.26,2.26,-0.27,0.27,0.47,0.50,2.54,2.53,2.53
161.63,2.26,-0.23,2.25,-0.24,0.24,0.44,0.46,2.50,2.49,2.49
163.24,2.25,-0.19,2.23,-0.21,0.21,0.41,0.43,2.46,2.44,2.44
164.88,2.23,-0.16,2.22,-0.18,0.18,0.38,0.39,2.41,2.40,2.39
166.53,2.21,-0.13,2.20,-0.15,0.15,0.35,0.36,2.36,2.35,2.34
168.19,2.19,-0.12,2.17,-0.13,0.13,0.32,0.32,2.32,2.30,2.31
169.87,2.15,-0.10,2.14,-0.12,0.12,0.29,0.28,2.27,2.26,2.25
171.57,2.13,-0.07,2.10,-0.10,0.10,0.26,0.25,2.23,2.21,2.20
173.29,2.09,-0.07,2.07,-0.09,0.09,0.23,0.21,2.18,2.16,2.16
175.02,2.03,-0.08,2.02,-0.09,0.09,0.20,0.18,2.12,2.11,2.11
176.77,1.99,-0.07,1.98,-0.09,0.09,0.17,0.14,2.08,2.07,2.06
178.54,1.93,-0.09,1.94,-0.08,0.08,0.14,0.10,2.01,2.02,2.02
180.32,1.89,-0.07,1.89,-0.08,0.08,0.11,0.07,1.97,1.97,1.96
182.13,1.84,-0.09,1.85,-0.08,0.08,0.07,0.03,1.92,1.93,1.93
183.95,1.78,-0.10,1.81,-0.07,0.07,0.04,-0.00,1.86,1.88,1.88
185.79,1.74,-0.09,1.77,-0.07,0.07,0.01,-0.04,1.81,1.84,1.83
187.65,1.72,-0.07,1.73,-0.06,0.06,-0.02,-0.08,1.78,1.79,1.79
189.52,1.70,-0.05,1.70,-0.05,0.05,-0.05,-0.11,1.75,1.75,1.75
191.42,1.68,-0.03,1.67,-0.03,0.03,-0.08,-0.15,1.71,1.71,1.71
193.33,1.66,-0.01,1.65,-0.02,0.02,-0.11,-0.19,1.68,1.67,1.67
195.27,1.63,0.01,1.63,0.00,-0.00,-0.15,-0.22,1.63,1.63,1.62
197.22,1.61,0.04,1.62,0.03,-0.03,-0.18,-0.26,1.58,1.59,1.57
199.19,1.60,0.06,1.61,0.05,-0.05,-0.21,-0.29,1.55,1.55,1.54
201.18,1.60,0.10,1.60,0.08,-0.08,-0.24,-0.33,1.52,1.52,1.50
203.19,1.60,0.13,1.59,0.11,-0.11,-0.27,-0.36,1.49,1.48,1.47
205.23,1.60,0.15,1.59,0.15,-0.15,-0.31,-0.40,1.45,1.45,1.45
207.28,1.60,0.18,1.60,0.18,-0.18,-0.34,-0.43,1.42,1.41,1.42
209.35,1.60,0.22,1.60,0.22,-0.22,-0.37,-0.47,1.38,1.38,1.38
211.44,1.61,0.26,1.61,0.26,-0.26,-0.40,-0.50,1.35,1.35,1.35
213.56,1.62,0.29,1.63,0.30,-0.30,-0.43,-0.53,1.32,1.33,1.33
215.69,1.64,0.34,1.65,0.35,-0.35,-0.46,-0.56,1.29,1.30,1.30
217.85,1.66,0.39,1.67,0.40,-0.40,-0.49,-0.60,1.26,1.27,1.27
220.03,1.68,0.44,1.70,0.45,-0.45,-0.52,-0.63,1.23,1.25,1.24
222.23,1.71,0.50,1.73,0.50,-0.50,-0.55,-0.65,1.21,1.22,1.21
224.45,1.75,0.55,1.76,0.56,-0.56,-0.58,-0.68,1.19,1.20,1.20
226.70,1.79,0.62,1.79,0.61,-0.61,-0.60,-0.71,1.18,1.18,1.17
228.96,1.83,0.67,1.82,0.66,-0.66,-0.63,-0.73,1.17,1.16,1.16
231.25,1.85,0.71,1.85,0.71,-0.71,-0.65,-0.75,1.14,1.14,1.14
233.57,1.88,0.76,1.87,0.75,-0.75,-0.68,-0.77,1.13,1.13,1.12
235.90,1.92,0.81,1.90,0.79,-0.79,-0.70,-0.79,1.13,1.11,1.11
238.26,1.94,0.86,1.92,0.82,-0.82,-0.72,-0.81,1.12,1.10,1.08
240.64,1.96,0.87,1.93,0.85,-0.85,-0.74,-0.82,1.11,1.09,1.09
243.05,1.97,0.90,1.95,0.87,-0.87,-0.76,-0.84,1.10,1.08,1.07
245.48,1.97,0.91,1.96,0.89,-0.89,-0.78,-0.85,1.08,1.07,1.06
247.93,1.96,0.91,1.96,0.90,-0.90,-0.79,-0.85,1.06,1.06,1.05
250.41,1.95,0.89,1.97,0.91,-0.91,-0.81,-0.86,1.04,1.06,1.06
252.92,1.95,0.90,1.97,0.92,-0.92,-0.82,-0.86,1.03,1.05,1.05
255.45,1.95,0.91,1.97,0.92,-0.92,-0.83,-0.86,1.03,1.05,1.04
258.00,1.95,0.91,1.97,0.93,-0.93,-0.83,-0.86,1.02,1.04,1.04
260.58,1.95,0.91,1.97,0.93,-0.93,-0.84,-0.86,1.02,1.04,1.04
263.19,1.95,0.91,1.97,0.93,-0.93,-0.84,-0.85,1.02,1.04,1.04
265.82,1.96,0.93,1.96,0.93,-0.93,-0.85,-0.84,1.03,1.03,1.03
268.48,1.97,0.94,1.96,0.93,-0.93,-0.85,-0.83,1.04,1.03,1.03
271.16,1.97,0.94,1.95,0.92,-0.92,-0.84,-0.82,1.05,1.03,1.03
273.87,1.96,0.93,1.95,0.92,-0.92,-0.84,-0.81,1.04,1.03,1.03
276.61,1.95,0.92,1.94,0.91,-0.91,-0.83,-0.79,1.04,1.03,1.03
279.38,1.93,0.92,1.92,0.90,-0.90,-0.82,-0.78,1.03,1.03,1.01
282.17,1.91,0.90,1.91,0.88,-0.88,-0.82,-0.76,1.03,1.03,1.01
284.99,1.89,0.87,1.89,0.86,-0.86,-0.80,-0.74,1.03,1.03,1.02
287.84,1.85,0.82,1.86,0.83,-0.83,-0.79,-0.72,1.02,1.03,1.03
290.72,1.83,0.81,1.83,0.79,-0.79,-0.78,-0.70,1.04,1.03,1.02
293.63,1.80,0.77,1.79,0.76,-0.76,-0.76,-0.68,1.04,1.04,1.03
296.57,1.77,0.73,1.75,0.71,-0.71,-0.74,-0.65,1.06,1.04,1.04
299.53,1.73,0.69,1.71,0.67,-0.67,-0.73,-0.63,1.06,1.04,1.04
302.53,1.68,0.62,1.67,0.62,-0.62,-0.71,-0.61,1.06,1.05,1.06
305.55,1.63,0.58,1.63,0.57,-0.57,-0.69,-0.58,1.06,1.06,1.05
308.61,1.58,0.52,1.59,0.53,-0.53,-0.67,-0.56,1.05,1.06,1.06
311.69,1.53,0.46,1.55,0.48,-0.48,-0.65,-0.53,1.05,1.07,1.07
314.81,1.49,0.42,1.51,0.43,-0.43,-0.62,-0.51,1.06,1.08,1.07
317.96,1.45,0.37,1.47,0.38,-0.38,-0.60,-0.48,1.07,1.09,1.08
321.14,1.43,0.34,1.43,0.33,-0.33,-0.58,-0.46,1.10,1.09,1.09
324.35,1.40,0.31,1.39,0.29,-0.29,-0.55,-0.43,1.11,1.10,1.09
327.59,1.37,0.25,1.36,0.25,-0.25,-0.53,-0.41,1.12,1.11,1.12
330.87,1.35,0.24,1.33,0.22,-0.22,-0.51,-0.39,1.13,1.12,1.11
334.18,1.32,0.20,1.31,0.19,-0.19,-0.48,-0.36,1.13,1.12,1.12
337.52,1.29,0.17,1.30,0.16,-0.16,-0.46,-0.34,1.13,1.13,1.12
340.90,1.27,0.13,1.29,0.15,-0.15,-0.43,-0.31,1.12,1.14,1.14
344.30,1.25,0.10,1.28,0.13,-0.13,-0.41,-0.29,1.12,1.15,1.15
347.75,1.26,0.11,1.29,0.13,-0.13,-0.38,-0.27,1.13,1.16,1.15
351.23,1.27,0.12,1.29,0.13,-0.13,-0.36,-0.24,1.14,1.16,1.15
354.74,1.29,0.11,1.31,0.13,-0.13,-0.34,-0.22,1.16,1.17,1.18
358.28,1.32,0.15,1.32,0.14,-0.14,-0.31,-0.20,1.18,1.18,1.17
361.87,1.34,0.16,1.34,0.16,-0.16,-0.29,-0.17,1.18,1.19,1.18
365.49,1.38,0.19,1.37,0.18,-0.18,-0.26,-0.15,1.20,1.19,1.19
369.14,1.41,0.20,1.40,0.20,-0.20,-0.24,-0.13,1.21,1.20,1.21
372.83,1.44,0.23,1.44,0.23,-0.23,-0.22,-0.11,1.21,1.21,1.21
376.56,1.48,0.27,1.48,0.26,-0.26,-0.19,-0.09,1.22,1.22,1.21
380.33,1.51,0.29,1.51,0.28,-0.28,-0.17,-0.06,1.23,1.23,1.22
384.13,1.54,0.30,1.55,0.31,-0.31,-0.15,-0.04,1.23,1.24,1.24
387.97,1.57,0.33,1.57,0.33,-0.33,-0.12,-0.02,1.24,1.25,1.24
391.85,1.60,0.35,1.60,0.34,-0.34,-0.10,-0.00,1.26,1.26,1.25
395.77,1.62,0.36,1.62,0.35,-0.35,-0.08,0.02,1.27,1.27,1.26
399.73,1.65,0.38,1.63,0.35,-0.35,-0.06,0.04,1.30,1.28,1.27
403.72,1.67,0.37,1.63,0.35,-0.35,-0.03,0.06,1.32,1.29,1.30
407.76,1.66,0.37,1.63,0.34,-0.34,-0.01,0.08,1.32,1.30,1.29
411.84,1.65,0.35,1.63,0.32,-0.32,0.01,0.10,1.33,1.31,1.30
415.96,1.63,0.31,1.61,0.30,-0.30,0.03,0.12,1.33,1.32,1.32
420.12,1.60,0.28,1.59,0.27,-0.27,0.05,0.14,1.33,1.33,1.32
424.32,1.57,0.24,1.57,0.23,-0.23,0.08,0.15,1.34,1.34,1.33
428.56,1.54,0.19,1.54,0.20,-0.20,0.10,0.17,1.34,1.34,1.35
432.85,1.51,0.15,1.51,0.16,-0.16,0.12,0.19,1.35,1.35,1.36
437.18,1.47,0.12,1.48,0.12,-0.12,0.14,0.21,1.35,1.36,1.35
441.55,1.44,0.08,1.45,0.08,-0.08,0.16,0.23,1.36,1.37,1.36
445.96,1.40,0.03,1.42,0.04,-0.04,0.18,0.25,1.36,1.38,1.37
450.42,1.36,-0.02,1.39,0.00,-0.00,0.21,0.26,1.36,1.39,1.38
454.93,1.34,-0.05,1.37,-0.03,0.03,0.23,0.28,1.37,1.40,1.39
459.48,1.33,-0.07,1.35,-0.06,0.06,0.25,0.30,1.39,1.41,1.40
464.07,1.31,-0.11,1.32,-0.09,0.09,0.27,0.32,1.40,1.41,1.42
468.71,1.30,-0.13,1.31,-0.12,0.12,0.29,0.33,1.42,1.42,1.43
473.40,1.29,-0.14,1.29,-0.15,0.15,0.32,0.35,1.44,1.43,1.43
478.13,1.28,-0.16,1.26,-0.18,0.18,0.34,0.37,1.46,1.44,1.44
482.91,1.26,-0.19,1.24,-0.21,0.21,0.36,0.38,1.47,1.46,1.45
487.74,1.25,-0.21,1.22,-0.24,0.24,0.38,0.40,1.49,1.47,1.46
492.62,1.23,-0.24,1.20,-0.28,0.28,0.40,0.42,1.51,1.48,1.47
497.55,1.20,-0.28,1.18,-0.31,0.31,0.43,0.43,1.51,1.49,1.48
502.52,1.16,-0.33,1.15,-0.35,0.35,0.45,0.45,1.51,1.50,1.49
507.55,1.13,-0.38,1.13,-0.38,0.38,0.47,0.47,1.51,1.51,1.51
512.62,1.09,-0.43,1.10,-0.42,0.42,0.50,0.48,1.51,1.52,1.52
517.75,1.06,-0.48,1.08,-0.46,0.46,0.52,0.50,1.52,1.54,1.54
522.93,1.03,-0.52,1.06,-0.49,0.49,0.55,0.51,1.52,1.55,1.55
528.16,1.01,-0.55,1.04,-0.53,0.53,0.57,0.53,1.54,1.56,1.56
533.44,1.00,-0.57,1.01,-0.56,0.56,0.59,0.54,1.56,1.57,1.57
538.77,0.98,-0.60,0.99,-0.59,0.59,0.62,0.56,1.57,1.59,1.58
