frequency,raw,error,smoothed,error_smoothed,equalization,parametric_eq,fixed_band_eq,equalized_raw,equalized_smoothed,target
20.00,-3.53,-13.35,-3.53,-13.35,13.35,13.05,5.12,9.82,9.82,9.82
20.20,-3.45,-13.26,-3.45,-13.26,13.26,13.04,5.25,9.81,9.81,9.81
20.40,-3.37,-13.17,-3.37,-13.17,13.17,13.01,5.39,9.80,9.80,9.80
20.61,-3.29,-13.09,-3.29,-13.08,13.08,12.98,5.52,9.79,9.79,9.79
20.81,-3.21,-12.98,-3.21,-12.99,12.99,12.95,5.66,9.78,9.78,9.77
21.02,-3.13,-12.89,-3.13,-12.90,12.90,12.91,5.81,9.77,9.77,9.76
21.23,-3.05,-12.80,-3.05,-12.81,12.81,12.86,5.96,9.76,9.76,9.75
21.44,-2.97,-12.73,-2.97,-12.73,12.72,12.80,6.11,9.76,9.75,9.76
21.66,-2.89,-12.64,-2.89,-12.64,12.64,12.74,6.27,9.75,9.74,9.74
21.87,-2.82,-12.56,-2.82,-12.56,12.55,12.68,6.43,9.73,9.73,9.74
22.09,-2.74,-12.46,-2.74,-12.46,12.46,12.61,6.59,9.72,9.72,9.72
22.31,-2.66,-12.37,-2.66,-12.38,12.38,12.53,6.76,9.72,9.72,9.71
22.54,-2.58,-12.29,-2.58,-12.29,12.29,12.45,6.94,9.71,9.71,9.70
22.76,-2.50,-12.20,-2.50,-12.20,12.20,12.37,7.12,9.70,9.70,9.70
22.99,-2.42,-12.11,-2.42,-12.12,12.12,12.29,7.30,9.70,9.70,9.69
23.22,-2.35,-12.03,-2.35,-12.04,12.04,12.20,7.49,9.69,9.69,9.68
23.45,-2.27,-11.96,-2.27,-11.95,11.96,12.11,7.68,9.69,9.69,9.69
23.69,-2.19,-11.88,-2.19,-11.87,11.88,12.02,7.88,9.68,9.68,9.68
23.92,-2.11,-11.78,-2.11,-11.80,11.80,11.92,8.08,9.69,9.68,9.67
24.16,-2.04,-11.72,-2.04,-11.72,11.72,11.83,8.28,9.68,9.68,9.68
24.40,-1.96,-11.64,-1.96,-11.64,11.64,11.73,8.50,9.68,9.68,9.68
24.65,-1.89,-11.56,-1.89,-11.57,11.56,11.64,8.71,9.67,9.67,9.67
24.89,-1.81,-11.48,-1.81,-11.48,11.48,11.54,8.93,9.67,9.67,9.67
25.14,-1.74,-11.40,-1.74,-11.40,11.41,11.44,9.15,9.67,9.67,9.66
25.39,-1.66,-11.32,-1.66,-11.33,11.33,11.34,9.38,9.67,9.67,9.66
25.65,-1.59,-11.25,-1.59,-11.25,11.26,11.25,9.61,9.67,9.67,9.66
25.91,-1.52,-11.19,-1.52,-11.18,11.18,11.15,9.85,9.66,9.66,9.66
26.16,-1.44,-11.11,-1.44,-11.11,11.11,11.05,10.08,9.67,9.66,9.67
26.43,-1.37,-11.04,-1.37,-11.04,11.03,10.96,10.32,9.66,9.66,9.66
26.69,-1.30,-10.96,-1.30,-10.96,10.96,10.86,10.56,9.66,9.67,9.66
26.96,-1.22,-10.89,-1.22,-10.89,10.89,10.77,10.80,9.67,9.67,9.66
27.23,-1.15,-10.82,-1.15,-10.82,10.82,10.67,11.03,9.67,9.67,9.66
27.50,-1.08,-10.74,-1.08,-10.75,10.75,10.58,11.27,9.67,9.67,9.66
27.77,-1.02,-10.69,-1.02,-10.68,10.68,10.49,11.50,9.67,9.67,9.67
28.05,-0.95,-10.61,-0.95,-10.62,10.62,10.40,11.72,9.67,9.67,9.66
28.33,-0.88,-10.55,-0.88,-10.56,10.56,10.31,11.94,9.68,9.67,9.67
28.62,-0.82,-10.50,-0.82,-10.49,10.49,10.23,12.15,9.67,9.68,9.67
28.90,-0.75,-10.43,-0.75,-10.43,10.43,10.14,12.34,9.68,9.68,9.68
29.19,-0.69,-10.37,-0.69,-10.37,10.37,10.06,12.53,9.68,9.68,9.68
29.48,-0.63,-10.30,-0.63,-10.31,10.31,9.98,12.69,9.68,9.68,9.67
29.78,-0.57,-10.24,-0.57,-10.24,10.25,9.90,12.84,9.68,9.68,9.67
30.08,-0.51,-10.19,-0.51,-10.18,10.19,9.83,12.96,9.68,9.67,9.67
30.38,-0.46,-10.12,-0.46,-10.12,10.13,9.75,13.06,9.67,9.67,9.65
30.68,-0.42,-10.07,-0.42,-10.07,10.08,9.68,13.14,9.66,9.66,9.65
30.99,-0.37,-10.02,-0.37,-10.03,10.02,9.61,13.19,9.65,9.65,9.65
31.30,-0.33,-9.98,-0.33,-9.98,9.97,9.54,13.21,9.64,9.64,9.65
31.61,-0.28,-9.92,-0.28,-9.92,9.92,9.47,13.21,9.64,9.64,9.64
31.93,-0.23,-9.86,-0.23,-9.87,9.87,9.41,13.18,9.64,9.63,9.62
32.24,-0.19,-9.82,-0.19,-9.81,9.82,9.34,13.13,9.63,9.63,9.63
32.57,-0.15,-9.76,-0.15,-9.76,9.77,9.28,13.05,9.62,9.62,9.61
32.89,-0.10,-9.71,-0.10,-9.72,9.72,9.22,12.95,9.62,9.61,9.61
33.22,-0.06,-9.66,-0.06,-9.67,9.66,9.17,12.83,9.60,9.60,9.60
33.55,-0.02,-9.62,-0.02,-9.62,9.61,9.11,12.69,9.59,9.60,9.60
33.89,0.03,-9.56,0.03,-9.56,9.56,9.06,12.54,9.59,9.59,9.59
34.23,0.07,-9.50,0.07,-9.51,9.52,9.01,12.37,9.59,9.59,9.57
34.57,0.11,-9.46,0.11,-9.46,9.47,8.96,12.19,9.58,9.58,9.57
34.92,0.15,-9.40,0.15,-9.42,9.42,8.91,12.01,9.57,9.56,9.55
35.27,0.19,-9.38,0.19,-9.37,9.36,8.86,11.81,9.55,9.56,9.57
35.62,0.23,-9.31,0.23,-9.32,9.31,8.82,11.62,9.54,9.55,9.54
35.97,0.28,-9.26,0.27,-9.27,9.26,8.78,11.42,9.54,9.53,9.54
36.33,0.31,-9.21,0.31,-9.21,9.21,8.73,11.21,9.52,9.52,9.52
36.70,0.35,-9.15,0.35,-9.15,9.16,8.69,11.01,9.51,9.51,9.50
37.06,0.39,-9.09,0.39,-9.10,9.10,8.65,10.81,9.49,9.49,9.48
37.43,0.42,-9.04,0.42,-9.05,9.05,8.62,10.61,9.47,9.47,9.46
37.81,0.45,-9.00,0.45,-8.99,9.00,8.58,10.41,9.45,9.45,9.45
38.19,0.49,-8.93,0.49,-8.94,8.94,8.54,10.22,9.43,9.43,9.42
38.57,0.52,-8.88,0.52,-8.89,8.89,8.51,10.03,9.41,9.40,9.40
38.95,0.55,-8.84,0.55,-8.84,8.83,8.47,9.85,9.38,9.38,9.39
39.34,0.58,-8.78,0.58,-8.78,8.77,8.44,9.66,9.35,9.36,9.36
39.74,0.62,-8.71,0.62,-8.72,8.72,8.41,9.49,9.34,9.34,9.33
40.14,0.66,-8.65,0.66,-8.66,8.66,8.38,9.32,9.32,9.32,9.31
40.54,0.69,-8.60,0.69,-8.60,8.60,8.34,9.15,9.29,9.30,9.29
40.94,0.73,-8.53,0.73,-8.54,8.55,8.31,8.99,9.28,9.28,9.26
41.35,0.76,-8.49,0.76,-8.49,8.49,8.28,8.84,9.25,9.25,9.25
41.76,0.79,-8.43,0.79,-8.44,8.44,8.25,8.69,9.23,9.23,9.22
42.18,0.82,-8.39,0.82,-8.39,8.39,8.21,8.55,9.21,9.20,9.21
42.60,0.85,-8.33,0.85,-8.34,8.33,8.18,8.41,9.18,9.18,9.18
43.03,0.87,-8.29,0.88,-8.28,8.28,8.15,8.28,9.15,9.16,9.16
43.46,0.91,-8.21,0.91,-8.22,8.23,8.11,8.15,9.14,9.13,9.12
43.90,0.94,-8.16,0.94,-8.16,8.17,8.07,8.03,9.11,9.11,9.10
44.33,0.97,-8.10,0.97,-8.11,8.11,8.04,7.92,9.08,9.08,9.07
44.78,1.00,-8.05,1.00,-8.05,8.05,8.00,7.81,9.05,9.05,9.05
45.23,1.04,-7.99,1.04,-7.99,7.98,7.96,7.70,9.02,9.02,9.03
45.68,1.07,-7.91,1.07,-7.92,7.92,7.92,7.60,8.99,8.99,8.98
46.13,1.10,-7.85,1.10,-7.85,7.85,7.87,7.51,8.95,8.96,8.95
46.60,1.14,-7.77,1.14,-7.78,7.78,7.83,7.42,8.92,8.92,8.91
47.06,1.17,-7.71,1.17,-7.71,7.71,7.78,7.34,8.88,8.88,8.88
47.53,1.20,-7.64,1.20,-7.64,7.64,7.73,7.26,8.84,8.84,8.84
48.01,1.23,-7.56,1.23,-7.57,7.57,7.68,7.18,8.80,8.80,8.79
48.49,1.25,-7.50,1.25,-7.50,7.50,7.63,7.11,8.75,8.75,8.75
48.97,1.28,-7.42,1.28,-7.43,7.42,7.57,7.05,8.70,8.71,8.70
49.46,1.31,-7.36,1.31,-7.35,7.35,7.52,6.98,8.66,8.66,8.67
49.96,1.35,-7.26,1.35,-7.28,7.28,7.46,6.92,8.63,8.63,8.61
50.46,1.38,-7.20,1.38,-7.20,7.21,7.40,6.87,8.59,8.59,8.58
50.96,1.41,-7.13,1.41,-7.13,7.14,7.33,6.82,8.55,8.55,8.54
51.47,1.44,-7.06,1.44,-7.06,7.06,7.26,6.77,8.50,8.50,8.50
51.99,1.47,-6.98,1.47,-6.99,6.99,7.20,6.72,8.46,8.46,8.45
52.51,1.50,-6.92,1.50,-6.93,6.92,7.12,6.68,8.42,8.42,8.42
53.03,1.53,-6.86,1.53,-6.85,6.84,7.05,6.64,8.37,8.38,8.39
53.56,1.57,-6.77,1.57,-6.77,6.77,6.98,6.59,8.34,8.34,8.34
54.10,1.61,-6.68,1.61,-6.69,6.70,6.90,6.56,8.31,8.30,8.29
54.64,1.64,-6.61,1.64,-6.61,6.62,6.82,6.52,8.26,8.26,8.25
55.18,1.67,-6.54,1.67,-6.54,6.55,6.74,6.48,8.22,8.22,8.21
55.74,1.70,-6.46,1.70,-6.48,6.48,6.66,6.44,8.18,8.18,8.16
56.29,1.72,-6.42,1.72,-6.42,6.41,6.57,6.40,8.13,8.13,8.14
56.86,1.74,-6.36,1.74,-6.35,6.35,6.49,6.37,8.09,8.09,8.10
57.42,1.77,-6.28,1.77,-6.29,6.29,6.40,6.33,8.06,8.06,8.05
58.00,1.80,-6.21,1.80,-6.22,6.22,6.31,6.29,8.02,8.02,8.01
58.58,1.82,-6.16,1.82,-6.16,6.16,6.22,6.24,7.98,7.98,7.98
59.16,1.85,-6.10,1.85,-6.10,6.09,6.13,6.20,7.94,7.94,7.95
59.76,1.87,-6.03,1.87,-6.04,6.03,6.04,6.15,7.90,7.90,7.90
60.35,1.89,-5.96,1.89,-5.96,5.96,5.95,6.10,7.85,7.85,7.85
60.96,1.90,-5.89,1.90,-5.89,5.90,5.86,6.05,7.80,7.80,7.79
61.57,1.91,-5.82,1.91,-5.83,5.83,5.77,5.99,7.74,7.74,7.73
62.18,1.91,-5.76,1.91,-5.76,5.77,5.68,5.93,7.68,7.68,7.67
62.80,1.91,-5.70,1.91,-5.70,5.71,5.58,5.87,7.62,7.62,7.61
63.43,1.92,-5.64,1.92,-5.65,5.64,5.49,5.81,7.56,7.56,7.56
64.07,1.93,-5.58,1.93,-5.58,5.58,5.40,5.74,7.51,7.51,7.51
64.71,1.94,-5.52,1.94,-5.52,5.51,5.31,5.66,7.45,7.46,7.46
65.35,1.96,-5.44,1.96,-5.45,5.45,5.21,5.59,7.41,7.41,7.40
66.01,1.97,-5.38,1.97,-5.38,5.38,5.12,5.51,7.35,7.36,7.35
66.67,1.99,-5.32,1.99,-5.31,5.32,5.03,5.43,7.31,7.31,7.31
67.33,2.01,-5.23,2.01,-5.25,5.25,4.94,5.34,7.26,7.25,7.24
68.01,2.02,-5.17,2.02,-5.18,5.18,4.85,5.26,7.20,7.20,7.19
68.69,2.03,-5.11,2.03,-5.11,5.11,4.76,5.17,7.14,7.14,7.14
69.37,2.05,-5.04,2.05,-5.04,5.04,4.67,5.07,7.09,7.08,7.09
70.07,2.06,-4.97,2.06,-4.97,4.97,4.59,4.98,7.03,7.03,7.03
70.77,2.08,-4.88,2.08,-4.90,4.90,4.50,4.89,6.98,6.97,6.96
71.48,2.08,-4.83,2.08,-4.83,4.83,4.41,4.79,6.91,6.91,6.91
72.19,2.09,-4.76,2.09,-4.76,4.77,4.33,4.70,6.86,6.86,6.85
72.91,2.09,-4.69,2.09,-4.70,4.71,4.25,4.60,6.80,6.80,6.78
73.64,2.09,-4.64,2.09,-4.64,4.65,4.16,4.51,6.74,6.74,6.73
74.38,2.09,-4.58,2.09,-4.59,4.59,4.08,4.41,6.68,6.68,6.67
75.12,2.08,-4.54,2.08,-4.54,4.54,4.00,4.31,6.62,6.62,6.62
75.87,2.08,-4.49,2.08,-4.49,4.49,3.92,4.22,6.57,6.56,6.57
76.63,2.08,-4.43,2.08,-4.44,4.43,3.84,4.12,6.51,6.51,6.51
77.40,2.08,-4.39,2.08,-4.38,4.39,3.77,4.03,6.47,6.47,6.47
78.17,2.09,-4.32,2.09,-4.33,4.34,3.69,3.94,6.43,6.42,6.41
78.95,2.09,-4.28,2.09,-4.28,4.29,3.61,3.85,6.38,6.38,6.37
79.74,2.09,-4.23,2.09,-4.23,4.24,3.54,3.76,6.33,6.33,6.32
80.54,2.09,-4.18,2.09,-4.18,4.19,3.47,3.67,6.28,6.28,6.27
81.35,2.09,-4.12,2.09,-4.14,4.13,3.40,3.58,6.22,6.22,6.21
82.16,2.09,-4.09,2.09,-4.08,4.07,3.33,3.50,6.16,6.17,6.18
82.98,2.10,-4.02,2.10,-4.02,4.01,3.26,3.41,6.11,6.11,6.12
83.81,2.12,-3.95,2.12,-3.96,3.94,3.19,3.33,6.06,6.06,6.07
84.65,2.14,-3.87,2.14,-3.87,3.86,3.12,3.25,6.00,6.01,6.01
85.50,2.17,-3.78,2.17,-3.79,3.78,3.06,3.18,5.95,5.96,5.95
86.35,2.21,-3.69,2.21,-3.70,3.70,2.99,3.10,5.91,5.91,5.90
87.22,2.24,-3.61,2.24,-3.61,3.62,2.93,3.03,5.86,5.86,5.85
88.09,2.26,-3.53,2.26,-3.53,3.55,2.87,2.96,5.81,5.81,5.79
88.97,2.28,-3.45,2.27,-3.46,3.48,2.81,2.89,5.76,5.75,5.73
89.86,2.28,-3.40,2.28,-3.40,3.41,2.75,2.82,5.69,5.69,5.68
90.76,2.27,-3.35,2.27,-3.35,3.35,2.69,2.76,5.62,5.63,5.62
91.66,2.27,-3.28,2.27,-3.29,3.29,2.63,2.69,5.56,5.56,5.55
92.58,2.26,-3.24,2.26,-3.24,3.23,2.58,2.63,5.49,5.50,5.50
93.51,2.27,-3.18,2.27,-3.18,3.17,2.52,2.57,5.44,5.43,5.45
94.44,2.27,-3.12,2.27,-3.12,3.10,2.47,2.51,5.37,5.37,5.39
95.39,2.29,-3.03,2.29,-3.03,3.02,2.41,2.46,5.31,5.31,5.32
96.34,2.32,-2.93,2.32,-2.94,2.93,2.36,2.40,5.25,5.25,5.25
97.30,2.35,-2.84,2.35,-2.84,2.85,2.31,2.35,5.20,5.19,5.19
98.28,2.38,-2.74,2.38,-2.75,2.75,2.26,2.30,5.13,5.13,5.12
99.26,2.41,-2.65,2.41,-2.65,2.66,2.21,2.25,5.07,5.07,5.06
100.25,2.45,-2.55,2.45,-2.56,2.57,2.16,2.20,5.02,5.02,5.00
101.25,2.48,-2.47,2.48,-2.47,2.48,2.11,2.15,4.96,4.96,4.95
102.27,2.50,-2.39,2.50,-2.39,2.39,2.06,2.11,4.89,4.89,4.89
103.29,2.52,-2.31,2.52,-2.32,2.31,2.02,2.07,4.83,4.83,4.83
104.32,2.54,-2.24,2.54,-2.24,2.23,1.97,2.02,4.77,4.78,4.78
105.37,2.57,-2.15,2.57,-2.16,2.16,1.93,1.98,4.73,4.72,4.72
106.42,2.59,-2.08,2.59,-2.08,2.09,1.89,1.94,4.68,4.68,4.67
107.48,2.60,-2.01,2.61,-2.01,2.02,1.84,1.90,4.62,4.63,4.61
108.56,2.62,-1.94,2.61,-1.95,1.96,1.80,1.86,4.58,4.57,4.56
109.64,2.61,-1.89,2.61,-1.89,1.90,1.76,1.82,4.51,4.51,4.50
110.74,2.60,-1.84,2.61,-1.84,1.84,1.72,1.79,4.44,4.44,4.44
111.85,2.60,-1.78,2.60,-1.79,1.78,1.68,1.75,4.38,4.38,4.38
112.97,2.59,-1.74,2.59,-1.74,1.72,1.64,1.71,4.31,4.32,4.33
114.10,2.59,-1.68,2.59,-1.68,1.67,1.60,1.68,4.26,4.26,4.27
115.24,2.59,-1.60,2.59,-1.61,1.61,1.56,1.64,4.20,4.20,4.19
116.39,2.59,-1.54,2.59,-1.54,1.55,1.53,1.61,4.14,4.14,4.13
117.55,2.59,-1.48,2.59,-1.48,1.49,1.49,1.58,4.08,4.08,4.07
118.73,2.59,-1.42,2.59,-1.43,1.44,1.45,1.54,4.03,4.03,4.01
119.92,2.59,-1.38,2.59,-1.38,1.38,1.42,1.51,3.97,3.97,3.97
121.12,2.59,-1.33,2.59,-1.33,1.33,1.38,1.47,3.92,3.92,3.92
122.33,2.59,-1.27,2.59,-1.28,1.27,1.35,1.44,3.86,3.86,3.86
123.55,2.59,-1.22,2.59,-1.22,1.22,1.31,1.41,3.81,3.81,3.81
124.79,2.59,-1.17,2.59,-1.17,1.17,1.28,1.37,3.76,3.76,3.76
126.03,2.59,-1.11,2.59,-1.12,1.12,1.25,1.34,3.71,3.71,3.70
127.29,2.59,-1.06,2.59,-1.06,1.06,1.22,1.30,3.65,3.65,3.65
128.57,2.59,-0.99,2.59,-1.00,1.00,1.18,1.27,3.59,3.59,3.58
129.85,2.59,-0.94,2.59,-0.94,0.94,1.15,1.24,3.53,3.53,3.53
131.15,2.59,-0.88,2.59,-0.88,0.88,1.12,1.20,3.47,3.47,3.47
132.46,2.60,-0.82,2.60,-0.82,0.82,1.09,1.17,3.42,3.42,3.42
133.79,2.61,-0.75,2.61,-0.76,0.76,1.06,1.13,3.37,3.37,3.36
135.12,2.62,-0.69,2.62,-0.70,0.70,1.03,1.10,3.32,3.32,3.31
136.48,2.62,-0.64,2.62,-0.64,0.65,1.00,1.06,3.27,3.27,3.26
137.84,2.61,-0.60,2.61,-0.60,0.61,0.97,1.03,3.22,3.22,3.21
139.22,2.60,-0.55,2.60,-0.56,0.57,0.94,0.99,3.17,3.17,3.15
140.61,2.58,-0.53,2.58,-0.53,0.54,0.91,0.96,3.12,3.11,3.11
142.02,2.54,-0.51,2.55,-0.51,0.51,0.88,0.92,3.05,3.06,3.05
143.44,2.52,-0.49,2.52,-0.50,0.50,0.85,0.89,3.02,3.01,3.01
144.87,2.48,-0.49,2.48,-0.49,0.48,0.82,0.85,2.96,2.97,2.97
146.32,2.46,-0.46,2.46,-0.47,0.47,0.80,0.82,2.93,2.93,2.92
147.78,2.42,-0.46,2.42,-0.46,0.46,0.77,0.78,2.88,2.88,2.88
149.26,2.39,-0.44,2.39,-0.45,0.45,0.74,0.74,2.84,2.84,2.83
150.75,2.35,-0.44,2.35,-0.44,0.44,0.71,0.71,2.79,2.79,2.79
152.26,2.33,-0.42,2.32,-0.43,0.42,0.68,0.67,2.75,2.75,2.75
153.78,2.30,-0.41,2.30,-0.41,0.40,0.66,0.64,2.70,2.70,2.71
155.32,2.28,-0.39,2.29,-0.38,0.37,0.63,0.60,2.65,2.66,2.67
156.88,2.28,-0.34,2.28,-0.35,0.34,0.60,0.57,2.62,2.62,2.62
158.44,2.27,-0.30,2.27,-0.31,0.31,0.57,0.53,2.58,2.58,2.57
160.03,2.27,-0.26,2.27,-0.27,0.27,0.54,0.49,2.54,2.54,2.53
161.63,2.26,-0.23,2.26,-0.23,0.24,0.52,0.46,2.50,2.50,2.49
163.24,2.25,-0.19,2.25,-0.19,0.20,0.49,0.42,2.45,2.45,2.44
164.88,2.23,-0.16,2.23,-0.16,0.17,0.46,0.39,2.40,2.40,2.39
166.53,2.21,-0.13,2.21,-0.14,0.14,0.43,0.35,2.35,2.35,2.34
168.19,2.19,-0.12,2.19,-0.12,0.12,0.40,0.32,2.31,2.30,2.31
169.87,2.15,-0.10,2.16,-0.10,0.10,0.37,0.28,2.25,2.26,2.25
171.57,2.13,-0.07,2.12,-0.09,0.09,0.34,0.24,2.22,2.21,2.20
173.29,2.09,-0.07,2.08,-0.07,0.08,0.31,0.21,2.17,2.17,2.16
175.02,2.03,-0.08,2.04,-0.08,0.08,0.28,0.17,2.11,2.12,2.11
176.77,1.99,-0.07,1.99,-0.08,0.08,0.25,0.14,2.07,2.07,2.06
178.54,1.93,-0.09,1.94,-0.08,0.09,0.22,0.10,2.02,2.02,2.02
180.32,1.89,-0.07,1.89,-0.09,0.09,0.19,0.06,1.98,1.97,1.96
182.13,1.84,-0.09,1.83,-0.10,0.09,0.16,0.03,1.93,1.92,1.93
183.95,1.78,-0.10,1.79,-0.10,0.09,0.13,-0.01,1.87,1.87,1.88
185.79,1.74,-0.09,1.75,-0.09,0.08,0.10,-0.04,1.82,1.83,1.83
187.65,1.72,-0.07,1.72,-0.08,0.07,0.06,-0.08,1.79,1.79,1.79
189.52,1.70,-0.05,1.70,-0.06,0.06,0.03,-0.12,1.76,1.76,1.75
191.42,1.68,-0.03,1.68,-0.04,0.04,-0.00,-0.15,1.72,1.72,1.71
193.33,1.66,-0.01,1.66,-0.01,0.02,-0.04,-0.19,1.68,1.67,1.67
195.27,1.63,0.01,1.63,0.01,-0.01,-0.07,-0.22,1.62,1.62,1.62
197.22,1.61,0.04,1.61,0.03,-0.03,-0.11,-0.26,1.58,1.58,1.57
199.19,1.60,0.06,1.60,0.06,-0.06,-0.14,-0.30,1.54,1.54,1.54
201.18,1.60,0.10,1.60,0.09,-0.09,-0.18,-0.33,1.51,1.51,1.50
203.19,1.60,0.13,1.60,0.12,-0.12,-0.22,-0.37,1.48,1.48,1.47
205.23,1.60,0.15,1.60,0.15,-0.15,-0.26,-0.40,1.45,1.45,1.45
207.28,1.60,0.18,1.60,0.18,-0.18,-0.29,-0.44,1.42,1.42,1.42
209.35,1.60,0.22,1.60,0.21,-0.22,-0.33,-0.47,1.38,1.39,1.38
211.44,1.61,0.26,1.61,0.25,-0.25,-0.37,-0.50,1.36,1.36,1.35
213.56,1.62,0.29,1.62,0.29,-0.29,-0.41,-0.54,1.33,1.33,1.33
215.69,1.64,0.34,1.64,0.33,-0.34,-0.45,-0.57,1.30,1.30,1.30
217.85,1.66,0.39,1.66,0.38,-0.39,-0.49,-0.60,1.27,1.27,1.27
220.03,1.68,0.44,1.68,0.44,-0.44,-0.53,-0.63,1.24,1.24,1.24
222.23,1.71,0.50,1.71,0.49,-0.50,-0.56,-0.66,1.21,1.22,1.21
224.45,1.75,0.55,1.75,0.55,-0.55,-0.60,-0.68,1.20,1.20,1.20
226.70,1.79,0.62,1.79,0.61,-0.61,-0.64,-0.71,1.18,1.18,1.17
228.96,1.83,0.67,1.82,0.66,-0.66,-0.67,-0.73,1.17,1.16,1.16
231.25,1.85,0.71,1.86,0.71,-0.71,-0.71,-0.76,1.14,1.14,1.14
233.57,1.88,0.76,1.89,0.76,-0.76,-0.74,-0.78,1.12,1.12,1.12
235.90,1.92,0.81,1.91,0.80,-0.80,-0.77,-0.79,1.12,1.11,1.11
238.26,1.94,0.86,1.94,0.85,-0.84,-0.80,-0.81,1.10,1.10,1.08
240.64,1.96,0.87,1.96,0.88,-0.86,-0.83,-0.83,1.10,1.10,1.09
243.05,1.97,0.90,1.97,0.90,-0.88,-0.85,-0.84,1.09,1.09,1.07
245.48,1.97,0.91,1.97,0.90,-0.89,-0.88,-0.85,1.08,1.07,1.06
247.93,1.96,0.91,1.96,0.90,-0.90,-0.90,-0.86,1.06,1.06,1.05
250.41,1.95,0.89,1.95,0.90,-0.90,-0.91,-0.86,1.05,1.05,1.06
252.92,1.95,0.90,1.95,0.90,-0.91,-0.92,-0.86,1.04,1.04,1.05
255.45,1.95,0.91,1.95,0.90,-0.91,-0.93,-0.86,1.04,1.04,1.04
258.00,1.95,0.91,1.95,0.90,-0.91,-0.94,-0.86,1.04,1.04,1.04
260.58,1.95,0.91,1.95,0.91,-0.91,-0.94,-0.86,1.04,1.04,1.04
263.19,1.95,0.91,1.95,0.91,-0.92,-0.94,-0.85,1.03,1.04,1.04
265.82,1.96,0.93,1.96,0.92,-0.92,-0.93,-0.85,1.04,1.04,1.03
268.48,1.97,0.94,1.97,0.93,-0.93,-0.93,-0.84,1.04,1.04,1.03
271.16,1.97,0.94,1.97,0.93,-0.93,-0.91,-0.82,1.04,1.04,1.03
273.87,1.96,0.93,1.96,0.93,-0.93,-0.90,-0.81,1.03,1.04,1.03
276.61,1.95,0.92,1.95,0.92,-0.92,-0.88,-0.80,1.03,1.03,1.03
279.38,1.93,0.92,1.93,0.91,-0.91,-0.86,-0.78,1.02,1.03,1.01
282.17,1.91,0.90,1.91,0.89,-0.89,-0.84,-0.76,1.02,1.02,1.01
284.99,1.89,0.87,1.88,0.86,-0.86,-0.82,-0.74,1.03,1.02,1.02
287.84,1.85,0.82,1.86,0.83,-0.84,-0.79,-0.72,1.01,1.02,1.03
290.72,1.83,0.81,1.83,0.80,-0.80,-0.76,-0.70,1.03,1.03,1.02
293.63,1.80,0.77,1.80,0.77,-0.76,-0.74,-0.68,1.04,1.04,1.03
296.57,1.77,0.73,1.77,0.73,-0.72,-0.71,-0.66,1.05,1.05,1.04
299.53,1.73,0.69,1.73,0.68,-0.67,-0.68,-0.63,1.06,1.06,1.04
302.53,1.68,0.62,1.68,0.63,-0.62,-0.65,-0.61,1.06,1.06,1.06
305.55,1.63,0.58,1.63,0.57,-0.57,-0.61,-0.59,1.06,1.06,1.05
308.61,1.58,0.52,1.58,0.51,-0.52,-0.58,-0.56,1.06,1.06,1.06
311.69,1.53,0.46,1.53,0.46,-0.47,-0.55,-0.54,1.06,1.06,1.07
314.81,1.49,0.42,1.49,0.41,-0.42,-0.52,-0.51,1.07,1.07,1.07
317.96,1.45,0.37,1.46,0.37,-0.38,-0.49,-0.49,1.07,1.08,1.08
321.14,1.43,0.34,1.43,0.33,-0.33,-0.46,-0.46,1.10,1.09,1.09
324.35,1.40,0.31,1.40,0.30,-0.29,-0.43,-0.44,1.11,1.11,1.09
327.59,1.37,0.25,1.37,0.26,-0.25,-0.40,-0.41,1.12,1.12,1.12
330.87,1.35,0.24,1.35,0.23,-0.22,-0.37,-0.39,1.13,1.13,1.11
334.18,1.32,0.20,1.32,0.19,-0.19,-0.34,-0.36,1.13,1.13,1.12
337.52,1.29,0.17,1.29,0.16,-0.16,-0.31,-0.34,1.13,1.13,1.12
340.90,1.27,0.13,1.27,0.13,-0.14,-0.28,-0.32,1.13,1.13,1.14
344.30,1.25,0.10,1.26,0.11,-0.12,-0.26,-0.29,1.13,1.14,1.15
347.75,1.26,0.11,1.26,0.10,-0.11,-0.23,-0.27,1.15,1.14,1.15
351.23,1.27,0.12,1.27,0.11,-0.11,-0.20,-0.24,1.16,1.16,1.15
354.74,1.29,0.11,1.29,0.12,-0.12,-0.18,-0.22,1.17,1.17,1.18
358.28,1.32,0.15,1.32,0.14,-0.13,-0.15,-0.20,1.19,1.18,1.17
361.87,1.34,0.16,1.35,0.16,-0.15,-0.13,-0.18,1.19,1.19,1.18
365.49,1.38,0.19,1.38,0.18,-0.18,-0.11,-0.15,1.20,1.20,1.19
369.14,1.41,0.20,1.41,0.20,-0.20,-0.08,-0.13,1.21,1.21,1.21
372.83,1.44,0.23,1.44,0.23,-0.23,-0.06,-0.11,1.21,1.21,1.21
376.56,1.48,0.27,1.48,0.26,-0.26,-0.04,-0.09,1.22,1.22,1.21
380.33,1.51,0.29,1.51,0.28,-0.28,-0.02,-0.07,1.23,1.23,1.22
384.13,1.54,0.30,1.54,0.31,-0.31,0.00,-0.05,1.23,1.24,1.24
387.97,1.57,0.33,1.57,0.32,-0.33,0.02,-0.03,1.24,1.24,1.24
391.85,1.60,0.35,1.60,0.34,-0.35,0.04,-0.01,1.25,1.25,1.25
395.77,1.62,0.36,1.63,0.36,-0.36,0.06,0.01,1.26,1.27,1.26
399.73,1.65,0.38,1.65,0.37,-0.36,0.08,0.03,1.29,1.28,1.27
403.72,1.67,0.37,1.66,0.37,-0.36,0.10,0.05,1.31,1.30,1.30
407.76,1.66,0.37,1.66,0.36,-0.35,0.11,0.07,1.31,1.31,1.29
411.84,1.65,0.35,1.65,0.34,-0.33,0.13,0.09,1.32,1.32,1.30
415.96,1.63,0.31,1.63,0.31,-0.31,0.15,0.11,1.32,1.32,1.32
420.12,1.60,0.28,1.60,0.27,-0.28,0.17,0.13,1.32,1.33,1.32
424.32,1.57,0.24,1.57,0.23,-0.24,0.18,0.15,1.33,1.33,1.33
428.56,1.54,0.19,1.54,0.19,-0.20,0.20,0.17,1.34,1.34,1.35
432.85,1.51,0.15,1.51,0.15,-0.15,0.21,0.19,1.36,1.35,1.36
437.18,1.47,0.12,1.47,0.11,-0.11,0.23,0.21,1.36,1.37,1.35
441.55,1.44,0.08,1.44,0.07,-0.07,0.25,0.22,1.37,1.37,1.36
445.96,1.40,0.03,1.40,0.03,-0.03,0.26,0.24,1.37,1.37,1.37
450.42,1.36,-0.02,1.37,-0.02,0.01,0.28,0.26,1.37,1.38,1.38
454.93,1.34,-0.05,1.34,-0.05,0.04,0.29,0.28,1.38,1.39,1.39
459.48,1.33,-0.07,1.32,-0.08,0.08,0.31,0.29,1.41,1.40,1.40
464.07,1.31,-0.11,1.31,-0.11,0.10,0.32,0.31,1.41,1.41,1.42
468.71,1.30,-0.13,1.30,-0.13,0.13,0.34,0.33,1.43,1.43,1.43
473.40,1.29,-0.14,1.29,-0.15,0.15,0.35,0.35,1.44,1.44,1.43
478.13,1.28,-0.16,1.28,-0.17,0.17,0.37,0.36,1.45,1.45,1.44
482.91,1.26,-0.19,1.26,-0.19,0.19,0.38,0.38,1.45,1.46,1.45
487.74,1.25,-0.21,1.25,-0.22,0.22,0.39,0.40,1.47,1.47,1.46
492.62,1.23,-0.24,1.23,-0.25,0.26,0.41,0.41,1.49,1.48,1.47
497.55,1.20,-0.28,1.20,-0.29,0.30,0.42,0.43,1.50,1.50,1.48
502.52,1.16,-0.33,1.16,-0.33,0.34,0.44,0.44,1.50,1.50,1.49
507.55,1.13,-0.38,1.13,-0.38,0.38,0.45,0.46,1.51,1.51,1.51
512.62,1.09,-0.43,1.09,-0.44,0.43,0.47,0.48,1.52,1.52,1.52
517.75,1.06,-0.48,1.06,-0.48,0.47,0.48,0.49,1.53,1.53,1.54
522.93,1.03,-0.52,1.03,-0.52,0.51,0.50,0.51,1.54,1.54,1.55
528.16,1.01,-0.55,1.01,-0.55,0.55,0.51,0.52,1.56,1.56,1.56
533.44,1.00,-0.57,1.00,-0.58,0.58,0.52,0.54,1.58,1.57,1.57
538.77,0.98,-0.60,0.98,-0.60,0.60,0.54,0.55,1.58,1.59,1.58
544.16,0.97,-0.62,0.97,-0.62,0.63,0.55,0.57,1.60,1.60,1.59
