frequency,raw,error,smoothed,error_smoothed,equalization,parametric_eq,fixed_band_eq,equalized_raw,equalized_smoothed,target
20.00,8.81,-1.90,8.79,-1.92,1.92,1.57,0.51,10.73,10.71,10.71
20.20,8.80,-1.90,8.79,-1.91,1.91,1.60,0.53,10.71,10.70,10.70
20.40,8.80,-1.89,8.80,-1.89,1.89,1.63,0.55,10.70,10.69,10.69
20.61,8.80,-1.88,8.80,-1.88,1.88,1.66,0.57,10.68,10.68,10.68
20.81,8.80,-1.86,8.81,-1.86,1.86,1.68,0.59,10.66,10.67,10.66
21.02,8.80,-1.85,8.81,-1.84,1.84,1.71,0.61,10.65,10.66,10.65
21.23,8.81,-1.83,8.82,-1.82,1.82,1.73,0.63,10.64,10.65,10.64
21.44,8.81,-1.84,8.83,-1.80,1.80,1.75,0.65,10.62,10.64,10.65
21.66,8.82,-1.81,8.84,-1.78,1.78,1.77,0.67,10.61,10.63,10.63
21.87,8.84,-1.79,8.86,-1.76,1.76,1.79,0.69,10.60,10.62,10.63
22.09,8.85,-1.76,8.87,-1.74,1.74,1.81,0.72,10.59,10.61,10.61
22.31,8.87,-1.73,8.89,-1.71,1.71,1.82,0.74,10.59,10.60,10.60
22.54,8.90,-1.69,8.91,-1.68,1.68,1.83,0.77,10.59,10.60,10.59
22.76,8.93,-1.66,8.94,-1.65,1.65,1.84,0.79,10.59,10.59,10.59
22.99,8.96,-1.62,8.96,-1.62,1.62,1.85,0.82,10.59,10.59,10.58
23.22,8.99,-1.58,8.99,-1.59,1.59,1.86,0.84,10.58,10.58,10.57
23.45,9.02,-1.56,9.01,-1.56,1.56,1.86,0.87,10.58,10.57,10.58
23.69,9.05,-1.52,9.04,-1.53,1.53,1.86,0.90,10.59,10.57,10.57
23.92,9.08,-1.48,9.06,-1.51,1.51,1.85,0.93,10.59,10.57,10.56
24.16,9.10,-1.47,9.08,-1.48,1.48,1.85,0.96,10.59,10.56,10.57
24.40,9.11,-1.46,9.10,-1.46,1.46,1.84,0.98,10.58,10.56,10.57
24.65,9.12,-1.44,9.12,-1.44,1.44,1.83,1.01,10.57,10.56,10.56
24.89,9.13,-1.43,9.13,-1.42,1.42,1.81,1.04,10.56,10.56,10.56
25.14,9.14,-1.41,9.15,-1.40,1.40,1.79,1.07,10.55,10.56,10.55
25.39,9.16,-1.39,9.17,-1.39,1.39,1.77,1.10,10.55,10.55,10.55
25.65,9.16,-1.39,9.18,-1.37,1.37,1.75,1.13,10.53,10.55,10.55
25.91,9.18,-1.37,9.20,-1.35,1.35,1.73,1.16,10.53,10.55,10.55
26.16,9.20,-1.36,9.22,-1.33,1.33,1.70,1.19,10.53,10.55,10.56
26.43,9.23,-1.32,9.24,-1.31,1.31,1.67,1.22,10.54,10.55,10.55
26.69,9.26,-1.29,9.26,-1.29,1.29,1.64,1.24,10.55,10.55,10.55
26.96,9.29,-1.26,9.28,-1.27,1.27,1.61,1.27,10.56,10.55,10.55
27.23,9.32,-1.23,9.31,-1.24,1.24,1.57,1.29,10.57,10.55,10.55
27.50,9.34,-1.21,9.34,-1.22,1.22,1.53,1.32,10.56,10.56,10.55
27.77,9.36,-1.20,9.36,-1.20,1.20,1.50,1.34,10.56,10.56,10.56
28.05,9.38,-1.17,9.39,-1.17,1.17,1.46,1.36,10.55,10.56,10.55
28.33,9.41,-1.15,9.41,-1.15,1.15,1.42,1.38,10.56,10.56,10.56
28.62,9.44,-1.12,9.44,-1.12,1.12,1.38,1.39,10.56,10.56,10.56
28.90,9.47,-1.10,9.47,-1.09,1.09,1.33,1.41,10.57,10.56,10.57
29.19,9.49,-1.08,9.49,-1.07,1.07,1.29,1.42,10.56,10.56,10.57
29.48,9.52,-1.04,9.52,-1.04,1.04,1.25,1.43,10.56,10.56,10.56
29.78,9.54,-1.02,9.55,-1.01,1.01,1.20,1.44,10.55,10.56,10.56
30.08,9.56,-1.00,9.57,-0.98,0.98,1.16,1.44,10.54,10.55,10.56
30.38,9.59,-0.95,9.60,-0.95,0.95,1.11,1.44,10.54,10.55,10.54
30.68,9.61,-0.93,9.63,-0.92,0.92,1.07,1.44,10.53,10.55,10.54
30.99,9.64,-0.90,9.65,-0.89,0.89,1.03,1.43,10.53,10.54,10.54
31.30,9.68,-0.86,9.68,-0.86,0.86,0.98,1.42,10.54,10.54,10.54
31.61,9.70,-0.83,9.70,-0.83,0.83,0.94,1.41,10.53,10.53,10.53
31.93,9.73,-0.78,9.72,-0.81,0.81,0.89,1.39,10.54,10.52,10.51
32.24,9.76,-0.76,9.73,-0.78,0.78,0.85,1.37,10.54,10.51,10.52
32.57,9.77,-0.73,9.75,-0.76,0.76,0.80,1.35,10.53,10.51,10.50
32.89,9.78,-0.72,9.76,-0.74,0.74,0.76,1.32,10.52,10.50,10.50
33.22,9.78,-0.71,9.77,-0.72,0.72,0.72,1.29,10.50,10.49,10.49
33.55,9.78,-0.71,9.79,-0.70,0.70,0.67,1.26,10.48,10.49,10.49
33.89,9.79,-0.69,9.80,-0.68,0.68,0.63,1.23,10.47,10.48,10.48
34.23,9.79,-0.67,9.81,-0.66,0.66,0.59,1.19,10.45,10.47,10.46
34.57,9.80,-0.66,9.83,-0.63,0.63,0.55,1.15,10.44,10.46,10.46
34.92,9.81,-0.63,9.84,-0.61,0.61,0.51,1.11,10.42,10.45,10.44
35.27,9.84,-0.62,9.86,-0.58,0.58,0.47,1.06,10.42,10.44,10.46
35.62,9.87,-0.56,9.88,-0.55,0.55,0.43,1.02,10.42,10.43,10.43
35.97,9.90,-0.53,9.91,-0.51,0.51,0.39,0.97,10.41,10.42,10.43
36.33,9.93,-0.48,9.93,-0.47,0.47,0.35,0.92,10.40,10.40,10.41
36.70,9.96,-0.43,9.96,-0.43,0.43,0.31,0.87,10.39,10.39,10.39
37.06,9.99,-0.38,9.99,-0.38,0.38,0.27,0.81,10.37,10.37,10.37
37.43,10.02,-0.33,10.02,-0.34,0.34,0.23,0.76,10.36,10.35,10.35
37.81,10.05,-0.29,10.04,-0.29,0.29,0.20,0.71,10.34,10.33,10.34
38.19,10.07,-0.24,10.07,-0.25,0.25,0.16,0.65,10.32,10.31,10.31
38.57,10.10,-0.19,10.09,-0.21,0.21,0.12,0.59,10.31,10.29,10.29
38.95,10.11,-0.17,10.10,-0.17,0.17,0.09,0.54,10.28,10.27,10.28
39.34,10.13,-0.12,10.11,-0.14,0.14,0.05,0.48,10.27,10.25,10.25
39.74,10.13,-0.09,10.12,-0.11,0.11,0.02,0.42,10.24,10.23,10.22
40.14,10.13,-0.07,10.12,-0.08,0.08,-0.02,0.36,10.21,10.21,10.20
40.54,10.12,-0.06,10.13,-0.06,0.06,-0.05,0.31,10.18,10.18,10.18
40.94,10.12,-0.03,10.12,-0.04,0.04,-0.09,0.25,10.16,10.16,10.15
41.35,10.11,-0.03,10.12,-0.02,0.02,-0.12,0.19,10.13,10.14,10.14
41.76,10.11,0.00,10.12,-0.00,0.00,-0.16,0.13,10.11,10.12,10.11
42.18,10.11,0.01,10.11,0.02,-0.02,-0.19,0.07,10.10,10.09,10.10
42.60,10.11,0.04,10.10,0.04,-0.04,-0.22,0.01,10.08,10.07,10.07
43.03,10.10,0.05,10.10,0.06,-0.06,-0.26,-0.05,10.05,10.04,10.05
43.46,10.09,0.08,10.10,0.08,-0.08,-0.29,-0.11,10.01,10.02,10.01
43.90,10.09,0.10,10.10,0.11,-0.11,-0.32,-0.17,9.99,9.99,9.99
44.33,10.09,0.13,10.11,0.14,-0.14,-0.35,-0.23,9.95,9.97,9.96
44.78,10.10,0.16,10.12,0.18,-0.18,-0.39,-0.29,9.92,9.94,9.94
45.23,10.11,0.19,10.13,0.23,-0.23,-0.42,-0.35,9.89,9.90,9.92
45.68,10.13,0.26,10.15,0.27,-0.27,-0.45,-0.41,9.86,9.87,9.87
46.13,10.15,0.31,10.17,0.33,-0.33,-0.48,-0.47,9.82,9.84,9.84
46.60,10.18,0.38,10.19,0.39,-0.39,-0.51,-0.53,9.79,9.80,9.80
47.06,10.21,0.44,10.21,0.45,-0.45,-0.55,-0.59,9.76,9.76,9.77
47.53,10.24,0.51,10.24,0.52,-0.52,-0.58,-0.65,9.72,9.72,9.73
48.01,10.27,0.59,10.27,0.59,-0.59,-0.61,-0.72,9.68,9.68,9.68
48.49,10.30,0.66,10.30,0.66,-0.66,-0.64,-0.78,9.64,9.64,9.64
48.97,10.33,0.74,10.33,0.73,-0.73,-0.67,-0.84,9.60,9.60,9.59
49.46,10.36,0.80,10.36,0.80,-0.80,-0.70,-0.90,9.56,9.56,9.56
49.96,10.39,0.89,10.38,0.87,-0.87,-0.74,-0.96,9.53,9.52,9.50
50.46,10.41,0.94,10.40,0.93,-0.93,-0.77,-1.02,9.48,9.47,9.47
50.96,10.43,1.00,10.42,0.99,-0.99,-0.80,-1.08,9.45,9.43,9.43
51.47,10.45,1.06,10.43,1.04,-1.04,-0.83,-1.14,9.41,9.39,9.39
51.99,10.45,1.11,10.44,1.09,-1.09,-0.86,-1.20,9.36,9.35,9.34
52.51,10.46,1.15,10.45,1.14,-1.14,-0.89,-1.26,9.32,9.31,9.31
53.03,10.45,1.17,10.45,1.19,-1.19,-0.93,-1.32,9.27,9.26,9.28
53.56,10.44,1.21,10.45,1.23,-1.23,-0.96,-1.38,9.22,9.22,9.23
54.10,10.44,1.26,10.45,1.27,-1.27,-0.99,-1.43,9.18,9.19,9.18
54.64,10.43,1.29,10.45,1.30,-1.30,-1.02,-1.49,9.13,9.15,9.14
55.18,10.43,1.33,10.45,1.34,-1.34,-1.06,-1.55,9.10,9.11,9.10
55.74,10.43,1.38,10.44,1.37,-1.37,-1.09,-1.60,9.06,9.07,9.05
56.29,10.43,1.40,10.44,1.41,-1.41,-1.12,-1.66,9.03,9.03,9.03
56.86,10.43,1.44,10.44,1.44,-1.44,-1.15,-1.71,8.99,8.99,8.99
57.42,10.43,1.49,10.43,1.48,-1.48,-1.19,-1.76,8.95,8.95,8.94
58.00,10.43,1.53,10.43,1.53,-1.53,-1.22,-1.81,8.91,8.91,8.90
58.58,10.43,1.56,10.43,1.57,-1.57,-1.25,-1.86,8.86,8.86,8.87
59.16,10.43,1.59,10.43,1.62,-1.62,-1.29,-1.90,8.82,8.82,8.84
59.76,10.43,1.64,10.43,1.66,-1.66,-1.32,-1.95,8.77,8.77,8.79
60.35,10.43,1.69,10.43,1.71,-1.71,-1.36,-1.99,8.72,8.72,8.74
60.96,10.43,1.75,10.43,1.76,-1.76,-1.39,-2.03,8.67,8.67,8.68
61.57,10.43,1.81,10.43,1.81,-1.81,-1.43,-2.07,8.62,8.62,8.62
62.18,10.43,1.87,10.43,1.86,-1.86,-1.46,-2.11,8.57,8.57,8.56
62.80,10.43,1.93,10.43,1.92,-1.92,-1.50,-2.14,8.52,8.52,8.50
63.43,10.43,1.98,10.43,1.97,-1.97,-1.53,-2.18,8.46,8.46,8.45
64.07,10.43,2.03,10.43,2.02,-2.02,-1.57,-2.21,8.41,8.41,8.40
64.71,10.43,2.08,10.43,2.08,-2.08,-1.60,-2.24,8.35,8.35,8.35
65.35,10.43,2.14,10.43,2.13,-2.13,-1.64,-2.26,8.30,8.30,8.29
66.01,10.43,2.19,10.43,2.19,-2.19,-1.68,-2.29,8.24,8.24,8.24
66.67,10.43,2.23,10.43,2.24,-2.24,-1.71,-2.32,8.19,8.19,8.20
67.33,10.43,2.30,10.43,2.30,-2.30,-1.75,-2.34,8.13,8.13,8.13
68.01,10.43,2.35,10.43,2.35,-2.35,-1.79,-2.36,8.08,8.08,8.08
68.69,10.43,2.40,10.43,2.41,-2.41,-1.83,-2.39,8.02,8.02,8.03
69.37,10.43,2.45,10.43,2.47,-2.47,-1.87,-2.41,7.97,7.97,7.98
70.07,10.43,2.51,10.43,2.52,-2.52,-1.90,-2.43,7.91,7.91,7.92
70.77,10.43,2.58,10.43,2.58,-2.58,-1.94,-2.45,7.85,7.85,7.85
71.48,10.43,2.63,10.43,2.64,-2.64,-1.98,-2.47,7.80,7.80,7.80
72.19,10.43,2.69,10.43,2.69,-2.69,-2.02,-2.49,7.74,7.74,7.74
72.91,10.43,2.76,10.43,2.75,-2.75,-2.06,-2.51,7.68,7.68,7.67
73.64,10.43,2.81,10.43,2.81,-2.81,-2.10,-2.53,7.63,7.63,7.62
74.38,10.43,2.87,10.43,2.86,-2.86,-2.14,-2.55,7.57,7.57,7.56
75.12,10.43,2.92,10.44,2.92,-2.92,-2.19,-2.58,7.51,7.52,7.51
75.87,10.43,2.97,10.44,2.98,-2.98,-2.23,-2.60,7.46,7.46,7.46
76.63,10.43,3.03,10.44,3.03,-3.03,-2.27,-2.63,7.40,7.41,7.40
77.40,10.43,3.07,10.45,3.09,-3.09,-2.31,-2.65,7.35,7.36,7.36
78.17,10.43,3.13,10.45,3.14,-3.14,-2.36,-2.68,7.29,7.31,7.30
78.95,10.44,3.18,10.45,3.19,-3.19,-2.40,-2.71,7.25,7.26,7.26
79.74,10.44,3.23,10.45,3.24,-3.24,-2.44,-2.74,7.20,7.21,7.21
80.54,10.45,3.29,10.45,3.29,-3.29,-2.49,-2.78,7.16,7.16,7.16
81.35,10.46,3.36,10.45,3.34,-3.34,-2.53,-2.81,7.12,7.11,7.10
82.16,10.46,3.39,10.44,3.39,-3.39,-2.57,-2.85,7.08,7.06,7.07
82.98,10.45,3.44,10.43,3.43,-3.43,-2.62,-2.89,7.03,7.01,7.01
83.81,10.43,3.47,10.42,3.47,-3.47,-2.67,-2.93,6.97,6.95,6.96
84.65,10.41,3.51,10.40,3.50,-3.50,-2.71,-2.97,6.91,6.90,6.90
85.50,10.39,3.55,10.39,3.54,-3.54,-2.76,-3.02,6.85,6.85,6.84
86.35,10.37,3.58,10.36,3.57,-3.57,-2.80,-3.07,6.80,6.79,6.79
87.22,10.34,3.60,10.33,3.60,-3.60,-2.85,-3.12,6.75,6.74,6.74
88.09,10.31,3.63,10.31,3.62,-3.62,-2.90,-3.17,6.69,6.68,6.68
88.97,10.27,3.65,10.28,3.65,-3.65,-2.95,-3.23,6.62,6.63,6.62
89.86,10.24,3.67,10.25,3.68,-3.68,-2.99,-3.29,6.56,6.57,6.57
90.76,10.21,3.70,10.22,3.71,-3.71,-3.04,-3.35,6.50,6.51,6.51
91.66,10.18,3.74,10.20,3.75,-3.75,-3.09,-3.41,6.44,6.45,6.44
92.58,10.16,3.77,10.18,3.79,-3.79,-3.14,-3.48,6.38,6.39,6.39
93.51,10.13,3.79,10.16,3.83,-3.83,-3.19,-3.54,6.30,6.33,6.34
94.44,10.11,3.83,10.15,3.88,-3.88,-3.24,-3.61,6.23,6.27,6.28
95.39,10.10,3.89,10.13,3.93,-3.93,-3.29,-3.69,6.17,6.21,6.21
96.34,10.10,3.96,10.12,3.98,-3.98,-3.34,-3.76,6.12,6.14,6.14
97.30,10.11,4.03,10.11,4.03,-4.03,-3.39,-3.84,6.08,6.08,6.08
98.28,10.11,4.10,10.11,4.09,-4.09,-3.44,-3.92,6.03,6.02,6.01
99.26,10.12,4.17,10.10,4.14,-4.14,-3.49,-4.00,5.99,5.96,5.95
100.25,10.12,4.23,10.09,4.19,-4.19,-3.54,-4.08,5.94,5.90,5.89
101.25,10.10,4.26,10.08,4.23,-4.23,-3.59,-4.16,5.87,5.84,5.84
102.27,10.08,4.30,10.06,4.28,-4.28,-3.65,-4.24,5.81,5.78,5.78
103.29,10.06,4.34,10.04,4.32,-4.32,-3.70,-4.33,5.75,5.73,5.72
104.32,10.03,4.36,10.02,4.36,-4.36,-3.75,-4.41,5.68,5.67,5.67
105.37,10.00,4.39,10.00,4.39,-4.39,-3.80,-4.50,5.61,5.61,5.61
106.42,9.97,4.41,9.98,4.42,-4.42,-3.86,-4.58,5.55,5.56,5.56
107.48,9.94,4.44,9.95,4.45,-4.45,-3.91,-4.67,5.49,5.50,5.50
108.56,9.91,4.46,9.93,4.48,-4.48,-3.96,-4.75,5.43,5.44,5.45
109.64,9.88,4.49,9.90,4.52,-4.52,-4.01,-4.83,5.37,5.38,5.39
110.74,9.85,4.52,9.87,4.55,-4.55,-4.07,-4.91,5.30,5.33,5.33
111.85,9.83,4.56,9.85,4.58,-4.58,-4.12,-4.99,5.25,5.27,5.27
112.97,9.82,4.60,9.83,4.62,-4.62,-4.17,-5.06,5.20,5.21,5.22
114.10,9.81,4.65,9.81,4.66,-4.66,-4.22,-5.14,5.15,5.15,5.16
115.24,9.79,4.71,9.80,4.70,-4.70,-4.28,-5.20,5.09,5.09,5.08
116.39,9.78,4.76,9.78,4.75,-4.75,-4.33,-5.26,5.04,5.03,5.02
117.55,9.76,4.80,9.76,4.79,-4.79,-4.38,-5.32,4.98,4.98,4.96
118.73,9.75,4.85,9.75,4.83,-4.83,-4.43,-5.38,4.92,4.92,4.90
119.92,9.73,4.87,9.73,4.87,-4.87,-4.49,-5.42,4.87,4.86,4.86
121.12,9.71,4.90,9.71,4.90,-4.90,-4.54,-5.46,4.81,4.81,4.81
122.33,9.69,4.94,9.69,4.94,-4.94,-4.59,-5.50,4.76,4.75,4.75
123.55,9.67,4.97,9.66,4.97,-4.97,-4.64,-5.53,4.71,4.69,4.70
124.79,9.65,5.00,9.63,4.99,-4.99,-4.69,-5.55,4.66,4.64,4.65
126.03,9.61,5.02,9.60,5.02,-5.02,-4.74,-5.57,4.60,4.58,4.59
127.29,9.58,5.04,9.57,5.04,-5.04,-4.79,-5.58,4.54,4.53,4.54
128.57,9.54,5.07,9.54,5.06,-5.06,-4.84,-5.58,4.48,4.48,4.47
129.85,9.49,5.07,9.50,5.08,-5.08,-4.89,-5.58,4.41,4.42,4.42
131.15,9.45,5.09,9.47,5.10,-5.10,-4.94,-5.57,4.35,4.37,4.36
132.46,9.40,5.09,9.43,5.12,-5.12,-4.99,-5.55,4.28,4.31,4.31
133.79,9.37,5.12,9.39,5.14,-5.14,-5.03,-5.53,4.24,4.26,4.25
135.12,9.34,5.14,9.35,5.15,-5.15,-5.08,-5.51,4.19,4.20,4.20
136.48,9.31,5.16,9.31,5.16,-5.16,-5.12,-5.48,4.15,4.15,4.15
137.84,9.28,5.18,9.27,5.18,-5.18,-5.17,-5.45,4.11,4.10,4.10
139.22,9.25,5.21,9.23,5.19,-5.19,-5.21,-5.42,4.07,4.05,4.04
140.61,9.22,5.22,9.20,5.20,-5.20,-5.26,-5.38,4.02,4.00,4.00
142.02,9.17,5.23,9.16,5.21,-5.21,-5.30,-5.34,3.96,3.95,3.94
143.44,9.12,5.22,9.13,5.22,-5.22,-5.34,-5.30,3.90,3.90,3.90
144.87,9.08,5.22,9.09,5.23,-5.23,-5.38,-5.25,3.85,3.86,3.86
146.32,9.03,5.22,9.06,5.24,-5.24,-5.42,-5.21,3.79,3.81,3.81
147.78,9.00,5.23,9.02,5.25,-5.25,-5.45,-5.17,3.75,3.77,3.77
149.26,8.97,5.25,8.98,5.26,-5.26,-5.49,-5.12,3.71,3.73,3.72
150.75,8.95,5.27,8.95,5.27,-5.27,-5.52,-5.08,3.69,3.68,3.68
152.26,8.92,5.28,8.91,5.28,-5.28,-5.56,-5.04,3.65,3.64,3.64
153.78,8.89,5.29,8.88,5.29,-5.29,-5.59,-5.00,3.61,3.60,3.60
155.32,8.86,5.30,8.85,5.30,-5.30,-5.62,-4.96,3.57,3.55,3.56
156.88,8.82,5.31,8.82,5.31,-5.31,-5.65,-4.92,3.51,3.51,3.51
158.44,8.77,5.31,8.79,5.32,-5.32,-5.68,-4.89,3.45,3.46,3.46
160.03,8.74,5.32,8.76,5.34,-5.34,-5.70,-4.86,3.40,3.42,3.42
161.63,8.71,5.33,8.73,5.35,-5.35,-5.73,-4.83,3.36,3.37,3.38
163.24,8.68,5.35,8.69,5.36,-5.36,-5.75,-4.80,3.32,3.33,3.33
164.88,8.66,5.38,8.65,5.37,-5.37,-5.77,-4.78,3.29,3.28,3.28
166.53,8.63,5.40,8.61,5.38,-5.38,-5.79,-4.76,3.26,3.24,3.23
168.19,8.60,5.40,8.57,5.39,-5.39,-5.81,-4.74,3.22,3.19,3.20
169.87,8.56,5.42,8.54,5.40,-5.40,-5.82,-4.73,3.17,3.14,3.14
171.57,8.51,5.42,8.50,5.41,-5.41,-5.84,-4.72,3.11,3.09,3.09
173.29,8.46,5.41,8.46,5.42,-5.42,-5.85,-4.71,3.05,3.05,3.05
175.02,8.42,5.42,8.43,5.43,-5.43,-5.86,-4.71,2.99,3.00,3.00
176.77,8.37,5.42,8.40,5.44,-5.44,-5.87,-4.71,2.93,2.95,2.95
178.54,8.33,5.42,8.36,5.45,-5.45,-5.87,-4.72,2.88,2.91,2.91
180.32,8.30,5.45,8.33,5.47,-5.47,-5.87,-4.73,2.84,2.86,2.85
182.13,8.27,5.45,8.30,5.48,-5.48,-5.88,-4.74,2.79,2.82,2.82
183.95,8.26,5.49,8.27,5.50,-5.50,-5.88,-4.76,2.77,2.77,2.77
185.79,8.25,5.53,8.24,5.52,-5.52,-5.87,-4.78,2.74,2.72,2.72
187.65,8.23,5.55,8.22,5.54,-5.54,-5.87,-4.80,2.69,2.68,2.68
189.52,8.20,5.56,8.20,5.56,-5.56,-5.86,-4.82,2.64,2.64,2.64
191.42,8.17,5.57,8.18,5.58,-5.58,-5.85,-4.85,2.59,2.59,2.60
193.33,8.14,5.58,8.16,5.60,-5.60,-5.84,-4.89,2.54,2.55,2.56
195.27,8.12,5.61,8.13,5.62,-5.62,-5.83,-4.92,2.50,2.51,2.51
197.22,8.10,5.64,8.11,5.64,-5.64,-5.82,-4.96,2.47,2.47,2.46
199.19,8.09,5.66,8.09,5.65,-5.65,-5.80,-5.00,2.44,2.44,2.43
201.18,8.07,5.68,8.06,5.66,-5.66,-5.78,-5.04,2.42,2.40,2.39
203.19,8.05,5.69,8.03,5.66,-5.66,-5.76,-5.09,2.39,2.37,2.36
205.23,8.01,5.67,7.99,5.66,-5.66,-5.74,-5.13,2.35,2.33,2.34
207.28,7.96,5.65,7.95,5.65,-5.65,-5.71,-5.18,2.31,2.30,2.31
209.35,7.91,5.64,7.92,5.65,-5.65,-5.69,-5.23,2.27,2.27,2.27
211.44,7.88,5.64,7.87,5.63,-5.63,-5.66,-5.28,2.25,2.24,2.24
213.56,7.83,5.61,7.83,5.62,-5.62,-5.63,-5.33,2.21,2.21,2.22
215.69,7.78,5.59,7.79,5.60,-5.60,-5.60,-5.38,2.18,2.18,2.19
217.85,7.73,5.57,7.74,5.58,-5.58,-5.56,-5.42,2.16,2.16,2.16
220.03,7.67,5.54,7.69,5.55,-5.55,-5.53,-5.47,2.12,2.14,2.13
222.23,7.62,5.52,7.64,5.52,-5.52,-5.49,-5.51,2.10,2.11,2.10
224.45,7.57,5.48,7.59,5.50,-5.50,-5.45,-5.55,2.08,2.09,2.09
226.70,7.53,5.47,7.53,5.47,-5.47,-5.41,-5.59,2.06,2.07,2.06
228.96,7.49,5.44,7.49,5.44,-5.44,-5.37,-5.62,2.05,2.05,2.05
231.25,7.44,5.41,7.44,5.41,-5.41,-5.33,-5.65,2.04,2.03,2.03
233.57,7.38,5.37,7.39,5.37,-5.37,-5.28,-5.68,2.01,2.01,2.01
235.90,7.33,5.33,7.33,5.34,-5.34,-5.24,-5.70,2.00,2.00,2.00
238.26,7.28,5.31,7.28,5.30,-5.30,-5.19,-5.71,1.98,1.98,1.97
240.64,7.23,5.25,7.23,5.26,-5.26,-5.14,-5.72,1.97,1.97,1.98
243.05,7.18,5.22,7.18,5.22,-5.22,-5.09,-5.71,1.96,1.96,1.96
245.48,7.13,5.18,7.13,5.18,-5.18,-5.04,-5.71,1.96,1.96,1.95
247.93,7.08,5.14,7.08,5.13,-5.13,-4.99,-5.69,1.95,1.95,1.94
250.41,7.02,5.07,7.03,5.09,-5.09,-4.94,-5.67,1.94,1.94,1.95
252.92,6.97,5.03,6.98,5.04,-5.04,-4.88,-5.64,1.94,1.94,1.94
255.45,6.91,4.98,6.92,4.99,-4.99,-4.83,-5.60,1.93,1.93,1.93
258.00,6.86,4.93,6.87,4.94,-4.94,-4.77,-5.56,1.93,1.93,1.93
260.58,6.81,4.88,6.81,4.89,-4.89,-4.72,-5.50,1.93,1.93,1.93
263.19,6.76,4.83,6.76,4.83,-4.83,-4.66,-5.44,1.93,1.92,1.93
265.82,6.71,4.79,6.70,4.78,-4.78,-4.60,-5.38,1.94,1.92,1.92
268.48,6.65,4.73,6.64,4.72,-4.72,-4.55,-5.31,1.93,1.92,1.92
271.16,6.58,4.66,6.58,4.66,-4.66,-4.49,-5.23,1.92,1.92,1.92
273.87,6.51,4.59,6.52,4.60,-4.60,-4.43,-5.15,1.91,1.91,1.92
276.61,6.45,4.53,6.46,4.54,-4.54,-4.37,-5.06,1.91,1.91,1.92
279.38,6.39,4.49,6.40,4.48,-4.48,-4.30,-4.97,1.91,1.91,1.90
282.17,6.33,4.43,6.33,4.42,-4.42,-4.24,-4.87,1.91,1.91,1.90
284.99,6.27,4.36,6.27,4.36,-4.36,-4.18,-4.77,1.92,1.91,1.91
287.84,6.20,4.28,6.21,4.29,-4.29,-4.12,-4.67,1.91,1.92,1.92
290.72,6.13,4.22,6.14,4.22,-4.22,-4.06,-4.57,1.91,1.92,1.91
293.63,6.07,4.15,6.08,4.16,-4.16,-3.99,-4.46,1.92,1.92,1.92
296.57,6.02,4.09,6.01,4.09,-4.09,-3.93,-4.36,1.93,1.93,1.93
299.53,5.96,4.03,5.95,4.02,-4.02,-3.87,-4.25,1.94,1.93,1.93
302.53,5.88,3.93,5.89,3.95,-3.95,-3.80,-4.14,1.93,1.94,1.95
305.55,5.82,3.88,5.83,3.89,-3.89,-3.74,-4.03,1.94,1.94,1.94
308.61,5.76,3.81,5.77,3.82,-3.82,-3.67,-3.93,1.95,1.95,1.95
311.69,5.70,3.74,5.70,3.74,-3.74,-3.61,-3.82,1.96,1.96,1.96
314.81,5.64,3.68,5.64,3.67,-3.67,-3.54,-3.71,1.97,1.97,1.96
317.96,5.58,3.61,5.58,3.61,-3.61,-3.48,-3.61,1.98,1.97,1.97
321.14,5.51,3.53,5.52,3.54,-3.54,-3.41,-3.51,1.98,1.98,1.98
324.35,5.45,3.47,5.45,3.47,-3.47,-3.35,-3.40,1.99,1.99,1.98
327.59,5.39,3.38,5.39,3.40,-3.40,-3.28,-3.30,2.00,2.00,2.01
330.87,5.33,3.33,5.33,3.33,-3.33,-3.22,-3.20,2.01,2.00,2.00
334.18,5.27,3.26,5.27,3.26,-3.26,-3.15,-3.11,2.02,2.01,2.01
337.52,5.20,3.19,5.21,3.19,-3.19,-3.09,-3.01,2.01,2.02,2.01
340.90,5.13,3.10,5.15,3.12,-3.12,-3.02,-2.92,2.02,2.03,2.03
344.30,5.08,3.04,5.08,3.05,-3.05,-2.96,-2.83,2.03,2.03,2.04
347.75,5.03,2.99,5.02,2.98,-2.98,-2.89,-2.74,2.05,2.04,2.04
351.23,4.96,2.92,4.96,2.91,-2.91,-2.82,-2.65,2.05,2.05,2.04
354.74,4.90,2.83,4.90,2.84,-2.84,-2.76,-2.57,2.06,2.06,2.07
358.28,4.83,2.77,4.84,2.77,-2.77,-2.69,-2.48,2.06,2.07,2.06
361.87,4.77,2.70,4.78,2.71,-2.71,-2.63,-2.40,2.07,2.07,2.07
365.49,4.72,2.64,4.72,2.64,-2.64,-2.56,-2.32,2.08,2.08,2.08
369.14,4.66,2.56,4.66,2.57,-2.57,-2.50,-2.24,2.09,2.09,2.10
372.83,4.60,2.50,4.60,2.50,-2.50,-2.43,-2.17,2.10,2.10,2.10
376.56,4.54,2.44,4.55,2.44,-2.44,-2.37,-2.09,2.11,2.11,2.10
380.33,4.48,2.37,4.49,2.37,-2.37,-2.30,-2.02,2.11,2.12,2.11
384.13,4.43,2.30,4.43,2.31,-2.31,-2.24,-1.95,2.13,2.12,2.13
387.97,4.37,2.24,4.37,2.24,-2.24,-2.17,-1.88,2.13,2.13,2.13
391.85,4.32,2.18,4.32,2.18,-2.18,-2.11,-1.82,2.15,2.14,2.14
395.77,4.26,2.11,4.27,2.11,-2.11,-2.04,-1.75,2.15,2.15,2.15
399.73,4.21,2.05,4.21,2.05,-2.05,-1.98,-1.69,2.17,2.17,2.16
403.72,4.15,1.96,4.16,1.99,-1.99,-1.92,-1.63,2.17,2.17,2.19
407.76,4.10,1.92,4.11,1.92,-1.92,-1.85,-1.57,2.18,2.18,2.18
411.84,4.05,1.86,4.05,1.86,-1.86,-1.79,-1.51,2.19,2.19,2.19
415.96,4.00,1.79,4.00,1.80,-1.80,-1.72,-1.45,2.21,2.20,2.21
420.12,3.94,1.73,3.95,1.73,-1.73,-1.66,-1.39,2.21,2.21,2.21
424.32,3.89,1.67,3.89,1.67,-1.67,-1.59,-1.33,2.22,2.22,2.22
428.56,3.84,1.60,3.84,1.61,-1.61,-1.53,-1.28,2.24,2.23,2.24
432.85,3.79,1.54,3.78,1.54,-1.54,-1.47,-1.23,2.25,2.24,2.25
437.18,3.73,1.49,3.73,1.48,-1.48,-1.40,-1.17,2.26,2.25,2.24
441.55,3.67,1.42,3.67,1.41,-1.41,-1.34,-1.12,2.26,2.26,2.25
445.96,3.61,1.35,3.61,1.35,-1.35,-1.28,-1.07,2.27,2.27,2.26
450.42,3.54,1.27,3.55,1.28,-1.28,-1.21,-1.02,2.26,2.27,2.27
454.93,3.49,1.21,3.50,1.21,-1.21,-1.15,-0.97,2.28,2.28,2.28
459.48,3.44,1.15,3.44,1.14,-1.14,-1.09,-0.92,2.30,2.29,2.29
464.07,3.38,1.07,3.38,1.08,-1.08,-1.02,-0.87,2.31,2.30,2.31
468.71,3.31,0.99,3.32,1.01,-1.01,-0.96,-0.82,2.31,2.31,2.32
473.40,3.25,0.93,3.25,0.93,-0.93,-0.90,-0.78,2.32,2.32,2.32
478.13,3.18,0.85,3.19,0.86,-0.86,-0.84,-0.73,2.32,2.33,2.33
482.91,3.13,0.79,3.13,0.79,-0.79,-0.77,-0.68,2.34,2.34,2.34
487.74,3.08,0.73,3.07,0.72,-0.72,-0.71,-0.63,2.36,2.35,2.35
492.62,3.02,0.66,3.01,0.65,-0.65,-0.65,-0.59,2.37,2.37,2.36
497.55,2.95,0.58,2.95,0.58,-0.58,-0.59,-0.54,2.37,2.38,2.37
502.52,2.89,0.51,2.90,0.51,-0.51,-0.52,-0.49,2.38,2.39,2.38
507.55,2.83,0.43,2.84,0.44,-0.44,-0.46,-0.45,2.39,2.40,2.40
512.62,2.77,0.36,2.78,0.37,-0.37,-0.40,-0.40,2.40,2.41,2.41
