frequency,raw,error,smoothed,error_smoothed,equalization,parametric_eq,fixed_band_eq,equalized_raw,equalized_smoothed,target
20.00,5.50,-4.79,5.19,-5.10,5.10,4.96,1.65,10.60,10.29,10.29
20.20,5.35,-4.93,5.17,-5.11,5.11,4.95,1.70,10.45,10.28,10.28
20.40,5.20,-5.07,5.16,-5.11,5.11,4.93,1.75,10.30,10.27,10.27
20.61,5.05,-5.21,5.16,-5.10,5.10,4.92,1.80,10.15,10.26,10.27
20.81,4.90,-5.35,5.17,-5.08,5.08,4.90,1.85,9.98,10.25,10.25
21.02,4.79,-5.46,5.18,-5.06,5.06,4.88,1.90,9.85,10.24,10.25
21.23,4.97,-5.27,5.21,-5.03,5.03,4.86,1.96,10.00,10.24,10.24
21.44,5.16,-5.08,5.24,-4.99,4.99,4.83,2.02,10.15,10.23,10.25
21.66,5.35,-4.89,5.28,-4.94,4.94,4.81,2.07,10.29,10.22,10.24
21.87,5.53,-4.70,5.33,-4.89,4.89,4.78,2.13,10.42,10.22,10.23
22.09,5.62,-4.60,5.38,-4.83,4.83,4.76,2.20,10.45,10.21,10.22
22.31,5.58,-4.64,5.45,-4.76,4.76,4.73,2.26,10.34,10.21,10.22
22.54,5.53,-4.68,5.58,-4.62,4.62,4.70,2.33,10.15,10.20,10.21
22.76,5.49,-4.71,5.71,-4.48,4.48,4.67,2.39,9.97,10.20,10.20
22.99,5.44,-4.75,5.85,-4.35,4.35,4.64,2.46,9.79,10.19,10.19
23.22,5.69,-4.49,5.97,-4.22,4.22,4.60,2.53,9.91,10.19,10.18
23.45,5.95,-4.23,6.06,-4.13,4.13,4.57,2.60,10.08,10.19,10.19
23.69,6.20,-3.97,6.11,-4.07,4.07,4.53,2.67,10.28,10.18,10.18
23.92,6.48,-3.70,6.15,-4.03,4.03,4.50,2.75,10.51,10.18,10.18
24.16,6.52,-3.67,6.17,-4.01,4.01,4.46,2.82,10.53,10.18,10.19
24.40,6.46,-3.74,6.18,-4.00,4.00,4.42,2.90,10.46,10.18,10.20
24.65,6.40,-3.80,6.19,-4.00,4.00,4.38,2.98,10.40,10.19,10.20
24.89,6.34,-3.86,6.18,-4.00,4.00,4.34,3.05,10.34,10.19,10.20
25.14,6.24,-3.95,6.17,-4.02,4.02,4.30,3.13,10.25,10.19,10.19
25.39,6.11,-4.08,6.17,-4.03,4.03,4.26,3.21,10.13,10.19,10.19
25.65,5.98,-4.21,6.16,-4.04,4.04,4.21,3.29,10.02,10.20,10.19
25.91,5.86,-4.33,6.14,-4.06,4.06,4.17,3.36,9.92,10.20,10.20
26.16,5.84,-4.37,6.12,-4.08,4.08,4.12,3.44,9.91,10.20,10.21
26.43,5.90,-4.31,6.10,-4.10,4.10,4.08,3.52,9.99,10.20,10.21
26.69,5.95,-4.26,6.09,-4.10,4.10,4.03,3.59,10.05,10.20,10.21
26.96,6.00,-4.20,6.11,-4.09,4.09,3.98,3.66,10.08,10.20,10.20
27.23,6.18,-4.02,6.15,-4.05,4.05,3.94,3.73,10.22,10.20,10.20
27.50,6.38,-3.82,6.21,-3.99,3.99,3.89,3.80,10.37,10.20,10.20
27.77,6.58,-3.62,6.28,-3.92,3.92,3.84,3.87,10.50,10.20,10.21
28.05,6.73,-3.48,6.38,-3.82,3.82,3.79,3.93,10.55,10.20,10.21
28.33,6.61,-3.58,6.49,-3.71,3.71,3.74,3.98,10.32,10.20,10.19
28.62,6.49,-3.69,6.60,-3.60,3.60,3.69,4.03,10.09,10.20,10.19
28.90,6.37,-3.83,6.68,-3.51,3.51,3.64,4.08,9.88,10.19,10.20
29.19,6.46,-3.74,6.73,-3.46,3.46,3.59,4.12,9.92,10.19,10.20
29.48,6.66,-3.53,6.75,-3.43,3.43,3.54,4.16,10.09,10.19,10.19
29.78,6.86,-3.33,6.79,-3.40,3.40,3.49,4.19,10.26,10.18,10.19
30.08,7.02,-3.18,6.83,-3.35,3.35,3.43,4.21,10.37,10.18,10.20
30.38,7.08,-3.11,6.88,-3.30,3.30,3.38,4.22,10.38,10.17,10.19
30.68,7.14,-3.03,6.93,-3.23,3.23,3.33,4.23,10.37,10.17,10.17
30.99,7.20,-2.97,7.01,-3.16,3.16,3.28,4.23,10.35,10.16,10.17
31.30,7.04,-3.11,7.09,-3.07,3.07,3.23,4.22,10.11,10.16,10.16
31.61,6.87,-3.28,7.17,-2.98,2.98,3.17,4.21,9.85,10.15,10.15
31.93,6.70,-3.43,7.23,-2.91,2.91,3.12,4.18,9.61,10.14,10.14
32.24,6.95,-3.18,7.28,-2.86,2.86,3.07,4.15,9.81,10.13,10.13
32.57,7.32,-2.80,7.29,-2.84,2.84,3.01,4.12,10.16,10.13,10.12
32.89,7.69,-2.43,7.28,-2.84,2.84,2.96,4.07,10.53,10.12,10.12
33.22,7.74,-2.38,7.28,-2.83,2.83,2.91,4.02,10.57,10.12,10.12
33.55,7.64,-2.47,7.32,-2.80,2.80,2.85,3.97,10.43,10.11,10.11
33.89,7.53,-2.59,7.38,-2.73,2.73,2.80,3.91,10.26,10.11,10.12
34.23,7.43,-2.67,7.45,-2.65,2.65,2.75,3.84,10.08,10.10,10.10
34.57,7.32,-2.78,7.54,-2.56,2.56,2.69,3.77,9.88,10.10,10.10
34.92,7.21,-2.88,7.63,-2.47,2.47,2.64,3.69,9.68,10.09,10.09
35.27,7.28,-2.82,7.68,-2.40,2.40,2.59,3.61,9.68,10.08,10.10
35.62,7.41,-2.67,7.70,-2.38,2.38,2.54,3.53,9.79,10.08,10.08
35.97,7.54,-2.53,7.68,-2.39,2.39,2.48,3.44,9.93,10.07,10.07
36.33,7.80,-2.25,7.67,-2.38,2.38,2.43,3.35,10.18,10.05,10.06
36.70,8.08,-1.97,7.69,-2.35,2.35,2.38,3.26,10.42,10.04,10.05
37.06,8.27,-1.76,7.71,-2.31,2.31,2.32,3.17,10.58,10.02,10.02
37.43,8.08,-1.93,7.72,-2.28,2.28,2.27,3.08,10.35,10.00,10.00
37.81,7.89,-2.10,7.73,-2.25,2.25,2.22,2.98,10.13,9.98,9.99
38.19,7.71,-2.25,7.74,-2.21,2.21,2.17,2.89,9.92,9.96,9.96
38.57,7.51,-2.43,7.75,-2.18,2.18,2.11,2.79,9.69,9.93,9.94
38.95,7.32,-2.58,7.75,-2.15,2.15,2.06,2.70,9.47,9.90,9.90
39.34,7.51,-2.35,7.75,-2.13,2.13,2.01,2.60,9.64,9.88,9.86
39.74,7.74,-2.11,7.73,-2.12,2.12,1.96,2.51,9.86,9.85,9.85
40.14,7.83,-1.99,7.70,-2.13,2.13,1.91,2.42,9.95,9.82,9.82
40.54,7.64,-2.16,7.67,-2.13,2.13,1.85,2.32,9.77,9.80,9.80
40.94,7.45,-2.32,7.66,-2.11,2.11,1.80,2.23,9.56,9.77,9.77
41.35,7.63,-2.12,7.68,-2.07,2.07,1.75,2.14,9.69,9.74,9.75
41.76,7.86,-1.84,7.72,-1.99,1.99,1.70,2.05,9.85,9.72,9.70
42.18,8.00,-1.69,7.77,-1.91,1.91,1.65,1.96,9.91,9.69,9.69
42.60,8.00,-1.67,7.83,-1.84,1.84,1.60,1.87,9.83,9.66,9.66
43.03,7.99,-1.65,7.87,-1.76,1.76,1.55,1.79,9.75,9.63,9.64
43.46,7.85,-1.76,7.91,-1.70,1.70,1.50,1.70,9.55,9.61,9.61
43.90,7.70,-1.89,7.93,-1.65,1.65,1.45,1.62,9.35,9.58,9.59
44.33,7.81,-1.73,7.96,-1.59,1.59,1.40,1.54,9.40,9.55,9.54
44.78,8.01,-1.51,8.01,-1.51,1.51,1.35,1.46,9.52,9.52,9.52
45.23,8.10,-1.41,8.06,-1.43,1.43,1.30,1.38,9.53,9.49,9.51
45.68,8.10,-1.36,8.10,-1.35,1.35,1.25,1.30,9.45,9.45,9.46
46.13,8.11,-1.31,8.12,-1.30,1.30,1.20,1.22,9.41,9.42,9.41
46.60,8.16,-1.23,8.14,-1.24,1.24,1.15,1.14,9.40,9.38,9.39
47.06,8.21,-1.14,8.17,-1.17,1.17,1.10,1.07,9.38,9.34,9.35
47.53,8.25,-1.07,8.21,-1.09,1.09,1.05,0.99,9.34,9.30,9.31
48.01,8.30,-0.96,8.24,-1.01,1.01,1.00,0.92,9.31,9.25,9.26
48.49,8.30,-0.91,8.28,-0.93,0.93,0.95,0.85,9.23,9.21,9.21
48.97,8.30,-0.87,8.30,-0.86,0.86,0.90,0.78,9.16,9.17,9.16
49.46,8.30,-0.83,8.30,-0.82,0.82,0.85,0.71,9.12,9.12,9.12
49.96,8.30,-0.76,8.30,-0.77,0.77,0.80,0.64,9.07,9.08,9.06
50.46,8.30,-0.72,8.31,-0.72,0.72,0.75,0.58,9.02,9.03,9.02
50.96,8.30,-0.68,8.31,-0.67,0.67,0.70,0.51,8.97,8.98,8.98
51.47,8.30,-0.64,8.32,-0.61,0.61,0.66,0.44,8.91,8.94,8.94
51.99,8.31,-0.58,8.33,-0.55,0.55,0.61,0.38,8.86,8.89,8.89
52.51,8.30,-0.55,8.32,-0.52,0.52,0.56,0.32,8.82,8.84,8.85
53.03,8.30,-0.52,8.30,-0.50,0.50,0.51,0.26,8.80,8.79,8.82
53.56,8.30,-0.46,8.28,-0.47,0.47,0.46,0.19,8.77,8.75,8.76
54.10,8.30,-0.41,8.26,-0.44,0.44,0.41,0.13,8.74,8.71,8.71
54.64,8.30,-0.37,8.26,-0.41,0.41,0.37,0.08,8.70,8.66,8.67
55.18,8.30,-0.31,8.25,-0.37,0.37,0.32,0.02,8.67,8.62,8.60
55.74,8.30,-0.26,8.25,-0.33,0.33,0.27,-0.04,8.63,8.58,8.56
56.29,8.30,-0.23,8.25,-0.28,0.28,0.22,-0.09,8.58,8.53,8.52
56.86,8.30,-0.19,8.25,-0.24,0.24,0.17,-0.15,8.53,8.49,8.49
57.42,8.13,-0.30,8.26,-0.18,0.18,0.13,-0.20,8.31,8.45,8.42
58.00,7.90,-0.50,8.27,-0.13,0.13,0.08,-0.25,8.03,8.40,8.40
58.58,8.20,-0.17,8.28,-0.07,0.07,0.03,-0.31,8.27,8.35,8.37
59.16,8.41,0.08,8.28,-0.02,0.02,-0.02,-0.36,8.43,8.30,8.32
59.76,8.41,0.12,8.31,0.06,-0.06,-0.07,-0.40,8.35,8.25,8.29
60.35,8.41,0.19,8.34,0.14,-0.14,-0.11,-0.45,8.27,8.20,8.21
60.96,8.41,0.24,8.36,0.21,-0.21,-0.16,-0.50,8.20,8.15,8.17
61.57,8.41,0.31,8.38,0.28,-0.28,-0.21,-0.54,8.13,8.10,8.10
62.18,8.41,0.38,8.40,0.36,-0.36,-0.26,-0.59,8.05,8.04,8.02
62.80,8.41,0.44,8.41,0.43,-0.43,-0.31,-0.63,7.98,7.98,7.96
63.43,8.41,0.50,8.43,0.51,-0.51,-0.36,-0.67,7.90,7.92,7.91
64.07,8.41,0.55,8.45,0.58,-0.58,-0.40,-0.71,7.83,7.86,7.86
64.71,8.41,0.61,8.45,0.65,-0.65,-0.45,-0.75,7.76,7.80,7.80
65.35,8.49,0.75,8.42,0.68,-0.68,-0.50,-0.79,7.81,7.74,7.73
66.01,8.64,0.96,8.41,0.73,-0.73,-0.55,-0.83,7.91,7.68,7.68
66.67,8.35,0.71,8.40,0.79,-0.79,-0.60,-0.87,7.56,7.62,7.64
67.33,8.25,0.69,8.39,0.83,-0.83,-0.65,-0.91,7.42,7.56,7.55
68.01,8.35,0.84,8.39,0.89,-0.89,-0.69,-0.95,7.45,7.50,7.51
68.69,8.39,0.95,8.40,0.97,-0.97,-0.74,-0.98,7.42,7.44,7.44
69.37,8.41,1.02,8.42,1.04,-1.04,-0.79,-1.02,7.37,7.37,7.38
70.07,8.41,1.09,8.43,1.12,-1.12,-0.84,-1.05,7.29,7.31,7.32
70.77,8.41,1.15,8.43,1.19,-1.19,-0.89,-1.09,7.22,7.25,7.26
71.48,8.41,1.22,8.43,1.25,-1.25,-0.94,-1.13,7.16,7.18,7.19
72.19,8.41,1.29,8.43,1.31,-1.31,-0.99,-1.16,7.09,7.12,7.12
72.91,8.41,1.35,8.43,1.37,-1.37,-1.04,-1.20,7.04,7.06,7.05
73.64,8.41,1.42,8.42,1.43,-1.43,-1.09,-1.24,6.98,6.99,6.98
74.38,8.51,1.58,8.42,1.49,-1.49,-1.14,-1.28,7.02,6.93,6.93
75.12,8.66,1.80,8.43,1.56,-1.56,-1.19,-1.31,7.10,6.87,6.86
75.87,8.55,1.73,8.43,1.61,-1.61,-1.24,-1.35,6.93,6.81,6.81
76.63,8.38,1.63,8.42,1.67,-1.67,-1.29,-1.39,6.71,6.76,6.74
77.40,8.30,1.60,8.42,1.72,-1.72,-1.34,-1.43,6.58,6.70,6.70
78.17,8.30,1.66,8.41,1.77,-1.77,-1.39,-1.47,6.53,6.64,6.64
78.95,8.30,1.70,8.39,1.81,-1.81,-1.44,-1.52,6.49,6.59,6.59
79.74,8.30,1.76,8.36,1.83,-1.83,-1.49,-1.56,6.47,6.53,6.53
80.54,8.30,1.82,8.35,1.87,-1.87,-1.54,-1.60,6.43,6.48,6.48
81.35,8.34,1.91,8.34,1.92,-1.92,-1.59,-1.65,6.42,6.42,6.43
82.16,8.45,2.07,8.33,1.96,-1.96,-1.64,-1.70,6.48,6.37,6.38
82.98,8.63,2.31,8.32,2.01,-2.01,-1.70,-1.75,6.62,6.31,6.32
83.81,8.28,2.02,8.30,2.05,-2.05,-1.75,-1.80,6.23,6.25,6.26
84.65,8.20,2.00,8.29,2.10,-2.10,-1.80,-1.85,6.10,6.19,6.20
85.50,8.20,2.07,8.29,2.16,-2.16,-1.85,-1.90,6.04,6.13,6.13
86.35,8.20,2.13,8.29,2.22,-2.22,-1.90,-1.96,5.98,6.07,6.07
87.22,8.21,2.19,8.29,2.27,-2.27,-1.96,-2.01,5.94,6.01,6.02
88.09,8.25,2.30,8.27,2.32,-2.32,-2.01,-2.07,5.93,5.95,5.95
88.97,8.50,2.60,8.25,2.36,-2.36,-2.06,-2.13,6.14,5.89,5.90
89.86,8.27,2.45,8.22,2.40,-2.40,-2.11,-2.19,5.87,5.82,5.82
90.76,8.14,2.38,8.21,2.45,-2.45,-2.17,-2.25,5.69,5.76,5.76
91.66,8.11,2.42,8.19,2.51,-2.51,-2.22,-2.32,5.60,5.69,5.68
92.58,8.11,2.48,8.19,2.57,-2.57,-2.27,-2.38,5.54,5.62,5.63
93.51,8.17,2.61,8.19,2.65,-2.65,-2.33,-2.45,5.52,5.55,5.56
94.44,8.30,2.81,8.18,2.70,-2.70,-2.38,-2.52,5.59,5.47,5.49
95.39,8.26,2.85,8.15,2.76,-2.76,-2.43,-2.59,5.50,5.40,5.41
96.34,8.03,2.70,8.13,2.81,-2.81,-2.49,-2.66,5.22,5.32,5.33
97.30,8.00,2.75,8.09,2.86,-2.86,-2.54,-2.74,5.14,5.24,5.24
98.28,8.01,2.85,8.05,2.89,-2.89,-2.59,-2.81,5.11,5.16,5.16
99.26,8.12,3.05,8.01,2.93,-2.93,-2.65,-2.89,5.19,5.08,5.07
100.25,8.16,3.17,7.98,2.98,-2.98,-2.70,-2.96,5.18,5.00,4.99
101.25,7.92,3.00,7.92,3.01,-3.01,-2.76,-3.04,4.91,4.91,4.91
102.27,7.83,3.00,7.87,3.04,-3.04,-2.81,-3.12,4.79,4.83,4.83
103.29,7.82,3.07,7.82,3.07,-3.07,-2.86,-3.20,4.74,4.75,4.75
104.32,7.80,3.12,7.77,3.10,-3.10,-2.92,-3.27,4.70,4.67,4.67
105.37,7.74,3.14,7.71,3.12,-3.12,-2.97,-3.35,4.61,4.59,4.60
106.42,7.64,3.13,7.67,3.16,-3.16,-3.02,-3.43,4.48,4.51,4.51
107.48,7.56,3.14,7.64,3.21,-3.21,-3.08,-3.51,4.34,4.43,4.41
108.56,7.50,3.14,7.60,3.25,-3.25,-3.13,-3.58,4.24,4.35,4.36
109.64,7.48,3.21,7.56,3.29,-3.29,-3.19,-3.65,4.19,4.27,4.26
110.74,7.46,3.27,7.52,3.33,-3.33,-3.24,-3.73,4.13,4.19,4.19
111.85,7.48,3.36,7.49,3.38,-3.38,-3.29,-3.80,4.10,4.11,4.12
112.97,7.66,3.61,7.48,3.44,-3.44,-3.35,-3.86,4.22,4.04,4.05
114.10,7.54,3.56,7.45,3.49,-3.49,-3.40,-3.93,4.05,3.97,3.98
115.24,7.33,3.43,7.42,3.52,-3.52,-3.45,-3.99,3.80,3.90,3.90
116.39,7.38,3.56,7.38,3.56,-3.56,-3.50,-4.05,3.82,3.83,3.82
117.55,7.49,3.73,7.36,3.60,-3.60,-3.56,-4.10,3.88,3.76,3.75
118.73,7.46,3.78,7.34,3.65,-3.65,-3.61,-4.15,3.81,3.69,3.68
119.92,7.26,3.64,7.32,3.70,-3.70,-3.66,-4.20,3.56,3.63,3.62
121.12,7.25,3.68,7.29,3.73,-3.73,-3.71,-4.24,3.51,3.56,3.57
122.33,7.24,3.74,7.26,3.76,-3.76,-3.76,-4.27,3.48,3.50,3.50
123.55,7.20,3.75,7.22,3.79,-3.79,-3.81,-4.30,3.41,3.43,3.45
124.79,7.15,3.76,7.20,3.83,-3.83,-3.86,-4.33,3.32,3.37,3.39
126.03,7.08,3.76,7.18,3.87,-3.87,-3.91,-4.35,3.21,3.31,3.32
127.29,7.08,3.82,7.16,3.91,-3.91,-3.96,-4.36,3.16,3.25,3.26
128.57,7.17,3.97,7.14,3.95,-3.95,-4.01,-4.37,3.22,3.19,3.20
129.85,7.28,4.15,7.10,3.97,-3.97,-4.05,-4.38,3.31,3.13,3.13
131.15,7.11,4.04,7.08,4.01,-4.01,-4.10,-4.38,3.10,3.07,3.07
132.46,7.03,4.02,7.06,4.04,-4.04,-4.15,-4.37,2.98,3.01,3.01
133.79,7.01,4.06,7.04,4.09,-4.09,-4.19,-4.36,2.92,2.95,2.95
135.12,7.02,4.13,7.02,4.13,-4.13,-4.24,-4.35,2.89,2.89,2.89
136.48,7.15,4.30,7.01,4.18,-4.18,-4.28,-4.34,2.97,2.83,2.85
137.84,7.06,4.27,6.99,4.22,-4.22,-4.32,-4.32,2.84,2.77,2.79
139.22,6.87,4.16,6.96,4.24,-4.24,-4.36,-4.30,2.63,2.72,2.71
140.61,6.69,4.02,6.91,4.25,-4.25,-4.40,-4.27,2.44,2.66,2.67
142.02,6.82,4.21,6.87,4.27,-4.27,-4.44,-4.25,2.55,2.60,2.61
143.44,6.95,4.41,6.82,4.28,-4.28,-4.48,-4.22,2.67,2.55,2.54
144.87,6.83,4.34,6.78,4.29,-4.29,-4.52,-4.20,2.54,2.49,2.49
146.32,6.77,4.33,6.76,4.32,-4.32,-4.56,-4.17,2.45,2.43,2.44
147.78,6.83,4.45,6.73,4.35,-4.35,-4.59,-4.14,2.48,2.38,2.38
149.26,6.77,4.44,6.70,4.38,-4.38,-4.62,-4.11,2.39,2.32,2.33
150.75,6.65,4.39,6.66,4.39,-4.39,-4.66,-4.08,2.25,2.27,2.26
152.26,6.46,4.24,6.61,4.40,-4.40,-4.69,-4.06,2.05,2.21,2.22
153.78,6.37,4.21,6.59,4.43,-4.43,-4.72,-4.03,1.93,2.15,2.16
155.32,6.56,4.45,6.56,4.46,-4.46,-4.75,-4.01,2.09,2.10,2.11
156.88,6.68,4.63,6.53,4.49,-4.49,-4.77,-3.99,2.18,2.04,2.05
158.44,6.49,4.50,6.49,4.51,-4.51,-4.80,-3.97,1.98,1.98,1.99
160.03,6.46,4.53,6.45,4.52,-4.52,-4.82,-3.95,1.93,1.92,1.93
161.63,6.54,4.67,6.40,4.54,-4.54,-4.84,-3.93,2.00,1.86,1.87
163.24,6.41,4.61,6.35,4.55,-4.55,-4.86,-3.92,1.86,1.80,1.80
164.88,6.27,4.52,6.31,4.57,-4.57,-4.88,-3.91,1.70,1.74,1.75
166.53,6.11,4.43,6.27,4.59,-4.59,-4.90,-3.90,1.52,1.68,1.68
168.19,6.23,4.60,6.23,4.61,-4.61,-4.91,-3.89,1.62,1.62,1.63
169.87,6.33,4.76,6.19,4.63,-4.63,-4.93,-3.89,1.70,1.56,1.57
171.57,6.16,4.66,6.13,4.63,-4.63,-4.94,-3.89,1.53,1.50,1.50
173.29,6.12,4.68,6.06,4.62,-4.62,-4.95,-3.90,1.50,1.44,1.44
175.02,5.94,4.55,6.00,4.61,-4.61,-4.96,-3.90,1.33,1.39,1.39
176.77,5.81,4.47,5.95,4.62,-4.62,-4.96,-3.91,1.19,1.33,1.34
178.54,5.85,4.57,5.91,4.63,-4.63,-4.97,-3.92,1.22,1.28,1.28
180.32,5.95,4.73,5.87,4.64,-4.64,-4.97,-3.94,1.31,1.23,1.22
182.13,5.92,4.74,5.84,4.67,-4.67,-4.97,-3.96,1.25,1.18,1.18
183.95,5.79,4.66,5.81,4.68,-4.68,-4.97,-3.98,1.10,1.13,1.13
185.79,5.74,4.66,5.77,4.69,-4.69,-4.97,-4.00,1.05,1.08,1.08
187.65,5.70,4.66,5.73,4.70,-4.70,-4.97,-4.03,1.00,1.03,1.04
189.52,5.64,4.65,5.70,4.72,-4.72,-4.96,-4.06,0.92,0.99,0.99
191.42,5.64,4.68,5.68,4.74,-4.74,-4.95,-4.10,0.90,0.94,0.96
193.33,5.66,4.75,5.66,4.76,-4.76,-4.94,-4.13,0.90,0.90,0.91
195.27,5.72,4.86,5.63,4.78,-4.78,-4.93,-4.17,0.94,0.86,0.86
197.22,5.72,4.91,5.60,4.79,-4.79,-4.92,-4.21,0.93,0.82,0.81
199.19,5.56,4.78,5.56,4.79,-4.79,-4.90,-4.25,0.77,0.77,0.78
201.18,5.48,4.75,5.51,4.77,-4.77,-4.88,-4.29,0.70,0.73,0.73
203.19,5.45,4.75,5.46,4.77,-4.77,-4.86,-4.34,0.68,0.69,0.70
205.23,5.43,4.77,5.42,4.77,-4.77,-4.84,-4.39,0.66,0.65,0.66
207.28,5.48,4.85,5.37,4.76,-4.76,-4.82,-4.43,0.72,0.61,0.63
209.35,5.35,4.76,5.32,4.75,-4.75,-4.80,-4.48,0.60,0.57,0.59
211.44,5.18,4.64,5.28,4.74,-4.74,-4.77,-4.53,0.44,0.54,0.54
213.56,5.22,4.71,5.22,4.73,-4.73,-4.75,-4.58,0.49,0.50,0.51
215.69,5.20,4.73,5.17,4.71,-4.71,-4.72,-4.63,0.49,0.46,0.47
217.85,5.10,4.66,5.12,4.69,-4.69,-4.69,-4.67,0.41,0.43,0.44
220.03,4.97,4.58,5.07,4.68,-4.68,-4.66,-4.72,0.29,0.40,0.39
222.23,4.93,4.56,5.04,4.67,-4.67,-4.62,-4.76,0.26,0.37,0.37
224.45,5.03,4.69,4.99,4.65,-4.65,-4.59,-4.80,0.38,0.34,0.34
226.70,5.03,4.72,4.94,4.62,-4.62,-4.55,-4.84,0.41,0.31,0.31
228.96,4.89,4.60,4.89,4.60,-4.60,-4.52,-4.87,0.29,0.29,0.29
231.25,4.94,4.66,4.85,4.58,-4.58,-4.48,-4.90,0.36,0.27,0.28
233.57,4.91,4.66,4.82,4.56,-4.56,-4.44,-4.93,0.34,0.25,0.25
235.90,4.71,4.47,4.78,4.54,-4.54,-4.40,-4.95,0.17,0.24,0.24
238.26,4.72,4.50,4.74,4.51,-4.51,-4.36,-4.97,0.21,0.23,0.22
240.64,4.67,4.44,4.70,4.49,-4.49,-4.32,-4.97,0.18,0.22,0.23
243.05,4.63,4.41,4.67,4.46,-4.46,-4.28,-4.98,0.17,0.21,0.22
245.48,4.60,4.40,4.63,4.43,-4.43,-4.23,-4.97,0.17,0.20,0.20
247.93,4.54,4.35,4.58,4.39,-4.39,-4.19,-4.97,0.15,0.19,0.19
250.41,4.55,4.35,4.53,4.34,-4.34,-4.14,-4.95,0.21,0.19,0.20
252.92,4.58,4.38,4.49,4.31,-4.31,-4.09,-4.93,0.27,0.18,0.20
255.45,4.48,4.30,4.45,4.28,-4.28,-4.05,-4.90,0.20,0.17,0.18
258.00,4.38,4.21,4.40,4.24,-4.24,-4.00,-4.86,0.14,0.16,0.17
260.58,4.38,4.22,4.35,4.20,-4.20,-3.95,-4.82,0.18,0.15,0.16
263.19,4.34,4.19,4.31,4.17,-4.17,-3.90,-4.77,0.17,0.14,0.15
265.82,4.27,4.14,4.26,4.13,-4.13,-3.85,-4.72,0.13,0.13,0.13
268.48,4.19,4.06,4.21,4.10,-4.10,-3.80,-4.66,0.09,0.11,0.13
271.16,4.13,4.02,4.16,4.06,-4.06,-3.75,-4.59,0.07,0.10,0.11
273.87,4.06,3.96,4.11,4.02,-4.02,-3.70,-4.52,0.04,0.09,0.10
276.61,4.07,3.99,4.06,3.98,-3.98,-3.65,-4.45,0.09,0.08,0.08
279.38,4.05,4.00,4.01,3.94,-3.94,-3.59,-4.37,0.11,0.07,0.05
282.17,3.91,3.86,3.95,3.90,-3.90,-3.54,-4.29,0.01,0.06,0.05
284.99,3.86,3.81,3.91,3.86,-3.86,-3.49,-4.21,0.00,0.05,0.05
287.84,3.89,3.84,3.86,3.82,-3.82,-3.44,-4.12,0.07,0.04,0.05
290.72,3.90,3.87,3.81,3.77,-3.77,-3.38,-4.03,0.13,0.04,0.03
293.63,3.77,3.73,3.77,3.73,-3.73,-3.33,-3.94,0.04,0.03,0.04
296.57,3.72,3.68,3.72,3.69,-3.69,-3.27,-3.85,0.03,0.03,0.04
299.53,3.64,3.61,3.68,3.65,-3.65,-3.22,-3.76,-0.01,0.03,0.03
302.53,3.63,3.59,3.63,3.61,-3.61,-3.17,-3.67,0.02,0.02,0.04
305.55,3.61,3.58,3.58,3.56,-3.56,-3.11,-3.58,0.05,0.02,0.03
308.61,3.49,3.45,3.53,3.51,-3.51,-3.06,-3.49,-0.02,0.02,0.04
311.69,3.45,3.43,3.48,3.47,-3.47,-3.00,-3.40,-0.02,0.02,0.02
314.81,3.46,3.43,3.44,3.42,-3.42,-2.95,-3.31,0.04,0.02,0.03
317.96,3.41,3.40,3.38,3.37,-3.37,-2.89,-3.22,0.04,0.01,0.01
321.14,3.35,3.33,3.32,3.31,-3.31,-2.84,-3.13,0.04,0.01,0.02
324.35,3.28,3.27,3.26,3.25,-3.25,-2.78,-3.04,0.02,0.01,0.01
327.59,3.22,3.20,3.21,3.20,-3.20,-2.73,-2.96,0.02,0.01,0.02
330.87,3.17,3.16,3.15,3.15,-3.15,-2.67,-2.87,0.02,0.00,0.01
334.18,3.08,3.08,3.09,3.09,-3.09,-2.62,-2.79,-0.01,0.00,-0.00
337.52,3.03,3.02,3.03,3.03,-3.03,-2.57,-2.71,0.00,0.00,0.01
340.90,2.97,2.97,2.97,2.97,-2.97,-2.51,-2.63,0.00,0.00,-0.00
344.30,2.93,2.92,2.91,2.91,-2.91,-2.46,-2.55,0.02,0.00,0.01
347.75,2.81,2.79,2.84,2.84,-2.84,-2.40,-2.48,-0.03,0.01,0.02
351.23,2.75,2.75,2.78,2.77,-2.77,-2.35,-2.41,-0.02,0.01,-0.00
354.74,2.73,2.71,2.72,2.71,-2.71,-2.29,-2.33,0.02,0.01,0.02
358.28,2.67,2.65,2.67,2.65,-2.65,-2.24,-2.26,0.02,0.02,0.02
361.87,2.61,2.59,2.61,2.59,-2.59,-2.19,-2.20,0.02,0.02,0.02
365.49,2.58,2.55,2.56,2.54,-2.54,-2.13,-2.13,0.04,0.03,0.03
369.14,2.50,2.46,2.51,2.48,-2.48,-2.08,-2.07,0.02,0.03,0.04
372.83,2.44,2.39,2.46,2.42,-2.42,-2.03,-2.00,0.01,0.03,0.05
376.56,2.40,2.36,2.40,2.37,-2.37,-1.97,-1.94,0.03,0.04,0.04
380.33,2.33,2.29,2.35,2.32,-2.32,-1.92,-1.88,0.01,0.04,0.04
384.13,2.30,2.25,2.30,2.27,-2.27,-1.87,-1.83,0.03,0.03,0.05
387.97,2.31,2.26,2.26,2.23,-2.23,-1.82,-1.77,0.08,0.03,0.05
391.85,2.24,2.20,2.21,2.18,-2.18,-1.76,-1.71,0.06,0.03,0.04
395.77,2.14,2.11,2.15,2.13,-2.13,-1.71,-1.66,0.01,0.02,0.03
399.73,2.11,2.08,2.10,2.08,-2.08,-1.66,-1.61,0.03,0.02,0.03
403.72,2.06,2.02,2.04,2.02,-2.02,-1.61,-1.56,0.04,0.01,0.04
407.76,1.94,1.92,1.97,1.96,-1.96,-1.56,-1.51,-0.03,0.01,0.02
411.84,1.90,1.89,1.91,1.91,-1.91,-1.51,-1.46,-0.01,0.01,0.01
415.96,1.90,1.89,1.85,1.85,-1.85,-1.46,-1.42,0.05,0.01,0.01
420.12,1.85,1.85,1.79,1.78,-1.78,-1.41,-1.37,0.07,0.01,-0.00
424.32,1.75,1.74,1.74,1.72,-1.72,-1.36,-1.32,0.03,0.02,0.01
428.56,1.69,1.66,1.68,1.65,-1.65,-1.30,-1.28,0.04,0.03,0.03
432.85,1.61,1.56,1.63,1.58,-1.58,-1.25,-1.24,0.03,0.05,0.05
437.18,1.56,1.50,1.60,1.52,-1.52,-1.21,-1.20,0.04,0.08,0.06
441.55,1.52,1.43,1.57,1.46,-1.46,-1.16,-1.15,0.06,0.11,0.09
445.96,1.46,1.33,1.54,1.40,-1.40,-1.11,-1.11,0.06,0.14,0.13
450.42,1.48,1.31,1.53,1.34,-1.34,-1.06,-1.07,0.14,0.19,0.17
454.93,1.51,1.29,1.52,1.28,-1.28,-1.01,-1.03,0.23,0.23,0.22
459.48,1.51,1.23,1.50,1.22,-1.22,-0.96,-0.99,0.29,0.28,0.28
464.07,1.49,1.14,1.50,1.16,-1.16,-0.91,-0.95,0.33,0.34,0.35
468.71,1.50,1.10,1.50,1.11,-1.11,-0.86,-0.91,0.39,0.39,0.40
473.40,1.49,1.03,1.49,1.05,-1.05,-0.81,-0.87,0.44,0.44,0.46
478.13,1.53,1.01,1.49,0.99,-0.99,-0.77,-0.84,0.54,0.50,0.52
482.91,1.58,1.01,1.48,0.93,-0.93,-0.72,-0.80,0.65,0.55,0.57
487.74,1.50,0.90,1.47,0.88,-0.88,-0.67,-0.76,0.62,0.59,0.60
492.62,1.47,0.83,1.45,0.82,-0.82,-0.62,-0.72,0.65,0.63,0.64
497.55,1.44,0.76,1.42,0.76,-0.76,-0.57,-0.68,0.68,0.67,0.68
502.52,1.35,0.65,1.39,0.70,-0.70,-0.53,-0.64,0.65,0.69,0.70
507.55,1.33,0.60,1.35,0.64,-0.64,-0.48,-0.60,0.69,0.71,0.73
512.62,1.31,0.57,1.30,0.57,-0.57,-0.43,-0.56,0.73,0.72,0.74
517.75,1.20,0.45,1.24,0.51,-0.51,-0.38,-0.52,0.68,0.73,0.75
522.93,1.15,0.40,1.17,0.45,-0.45,-0.34,-0.48,0.70,0.72,0.75
528.16,1.14,0.41,1.10,0.39,-0.39,-0.29,-0.44,0.75,0.71,0.73
533.44,1.07,0.36,1.02,0.32,-0.32,-0.24,-0.40,0.74,0.70,0.71
538.77,0.99,0.31,0.94,0.27,-0.27,-0.20,-0.36,0.72,0.67,0.68
