frequency,raw,error,smoothed,error_smoothed,equalization,parametric_eq,fixed_band_eq,equalized_raw,equalized_smoothed,target
20.00,-17.75,-25.38,-17.75,-25.40,25.40,18.23,8.56,7.65,7.65,7.63
20.20,-17.52,-25.19,-17.52,-25.20,25.20,18.54,8.73,7.68,7.68,7.67
20.40,-17.28,-24.99,-17.28,-24.99,24.99,18.84,8.90,7.72,7.71,7.71
20.61,-17.06,-24.79,-17.05,-24.79,24.79,19.12,9.07,7.73,7.74,7.73
20.81,-16.81,-24.58,-16.81,-24.58,24.58,19.39,9.25,7.77,7.76,7.78
21.02,-16.58,-24.40,-16.57,-24.36,24.36,19.64,9.43,7.78,7.79,7.81
21.23,-16.33,-24.16,-16.33,-24.15,24.15,19.85,9.62,7.81,7.81,7.83
21.44,-16.09,-23.94,-16.09,-23.93,23.93,20.04,9.81,7.84,7.84,7.85
21.66,-15.84,-23.72,-15.85,-23.70,23.70,20.20,10.01,7.86,7.86,7.87
21.87,-15.60,-23.48,-15.60,-23.48,23.48,20.32,10.21,7.88,7.88,7.88
22.09,-15.36,-23.26,-15.36,-23.25,23.25,20.42,10.42,7.89,7.89,7.90
22.31,-15.11,-23.02,-15.11,-23.02,23.02,20.50,10.64,7.91,7.91,7.91
22.54,-14.87,-22.79,-14.87,-22.79,22.79,20.56,10.86,7.92,7.92,7.92
22.76,-14.62,-22.55,-14.62,-22.55,22.55,20.60,11.08,7.93,7.93,7.93
22.99,-14.37,-22.30,-14.37,-22.31,22.31,20.62,11.32,7.93,7.94,7.93
23.22,-14.12,-22.06,-14.11,-22.06,22.06,20.60,11.56,7.94,7.95,7.94
23.45,-13.86,-21.81,-13.86,-21.82,21.82,20.56,11.80,7.96,7.96,7.95
23.69,-13.62,-21.57,-13.61,-21.57,21.57,20.49,12.06,7.96,7.96,7.96
23.92,-13.35,-21.31,-13.35,-21.33,21.33,20.40,12.32,7.98,7.97,7.97
24.16,-13.10,-21.08,-13.10,-21.08,21.08,20.28,12.59,7.98,7.98,7.99
24.40,-12.84,-20.84,-12.84,-20.83,20.83,20.15,12.87,8.00,7.99,8.00
24.65,-12.58,-20.59,-12.58,-20.58,20.58,20.00,13.16,8.00,8.00,8.00
24.89,-12.32,-20.33,-12.32,-20.34,20.34,19.83,13.46,8.02,8.01,8.01
25.14,-12.06,-20.08,-12.06,-20.08,20.08,19.66,13.77,8.03,8.02,8.02
25.39,-11.80,-19.83,-11.80,-19.83,19.83,19.48,14.09,8.04,8.03,8.03
25.65,-11.54,-19.59,-11.54,-19.58,19.58,19.29,14.42,8.04,8.04,8.05
25.91,-11.29,-19.33,-11.28,-19.33,19.33,19.09,14.76,8.04,8.05,8.05
26.16,-11.01,-19.06,-11.01,-19.07,19.07,18.89,15.11,8.07,8.06,8.06
26.43,-10.76,-18.82,-10.75,-18.82,18.82,18.68,15.48,8.06,8.07,8.07
26.69,-10.48,-18.56,-10.48,-18.56,18.56,18.46,15.85,8.08,8.08,8.07
26.96,-10.21,-18.31,-10.21,-18.30,18.30,18.24,16.24,8.08,8.09,8.09
27.23,-9.94,-18.05,-9.94,-18.04,18.04,18.02,16.64,8.10,8.10,8.10
27.50,-9.67,-17.78,-9.67,-17.78,17.78,17.79,17.05,8.11,8.10,8.11
27.77,-9.40,-17.51,-9.40,-17.52,17.52,17.55,17.47,8.12,8.11,8.11
28.05,-9.13,-17.26,-9.13,-17.25,17.25,17.31,17.90,8.12,8.12,8.13
28.33,-8.86,-16.99,-8.86,-16.99,16.99,17.06,18.33,8.13,8.13,8.13
28.62,-8.60,-16.73,-8.59,-16.72,16.72,16.80,18.77,8.13,8.14,8.13
28.90,-8.31,-16.45,-8.31,-16.46,16.46,16.54,19.20,8.15,8.14,8.14
29.19,-8.04,-16.18,-8.04,-16.19,16.19,16.27,19.61,8.15,8.15,8.14
29.48,-7.76,-15.93,-7.77,-15.93,15.93,16.00,20.01,8.17,8.16,8.17
29.78,-7.49,-15.66,-7.49,-15.66,15.66,15.73,20.38,8.16,8.16,8.17
30.08,-7.22,-15.39,-7.22,-15.39,15.39,15.44,20.69,8.17,8.17,8.17
30.38,-6.94,-15.11,-6.94,-15.12,15.12,15.16,20.95,8.18,8.18,8.17
30.68,-6.66,-14.85,-6.66,-14.84,14.84,14.87,21.13,8.18,8.18,8.19
30.99,-6.38,-14.57,-6.38,-14.57,14.57,14.58,21.23,8.19,8.19,8.19
31.30,-6.10,-14.30,-6.10,-14.30,14.30,14.29,21.23,8.19,8.20,8.20
31.61,-5.82,-14.03,-5.82,-14.02,14.02,13.99,21.13,8.20,8.20,8.20
31.93,-5.55,-13.76,-5.53,-13.74,13.74,13.70,20.94,8.20,8.21,8.21
32.24,-5.25,-13.46,-5.25,-13.47,13.47,13.41,20.66,8.22,8.22,8.21
32.57,-4.96,-13.19,-4.96,-13.19,13.19,13.11,20.32,8.22,8.23,8.22
32.89,-4.67,-12.90,-4.68,-12.91,12.91,12.82,19.92,8.24,8.23,8.23
33.22,-4.39,-12.63,-4.39,-12.63,12.63,12.53,19.48,8.24,8.24,8.24
33.55,-4.10,-12.34,-4.10,-12.35,12.35,12.25,19.01,8.25,8.24,8.25
33.89,-3.81,-12.06,-3.81,-12.06,12.06,11.96,18.53,8.25,8.25,8.25
34.23,-3.53,-11.79,-3.53,-11.78,11.78,11.69,18.03,8.25,8.26,8.26
34.57,-3.24,-11.51,-3.24,-11.50,11.50,11.41,17.54,8.26,8.26,8.27
34.92,-2.96,-11.23,-2.96,-11.22,11.22,11.14,17.04,8.26,8.27,8.26
35.27,-2.69,-10.95,-2.68,-10.95,10.95,10.87,16.56,8.26,8.27,8.27
35.62,-2.39,-10.67,-2.40,-10.67,10.67,10.61,16.08,8.28,8.27,8.27
35.97,-2.11,-10.38,-2.12,-10.39,10.39,10.35,15.61,8.29,8.27,8.27
36.33,-1.84,-10.11,-1.84,-10.12,10.12,10.10,15.15,8.28,8.28,8.28
36.70,-1.57,-9.84,-1.57,-9.85,9.85,9.85,14.70,8.27,8.28,8.27
37.06,-1.30,-9.58,-1.30,-9.58,9.58,9.60,14.26,8.28,8.28,8.28
37.43,-1.04,-9.32,-1.04,-9.31,9.31,9.36,13.83,8.27,8.27,8.28
37.81,-0.77,-9.05,-0.77,-9.05,9.05,9.13,13.42,8.27,8.27,8.28
38.19,-0.52,-8.80,-0.52,-8.79,8.79,8.90,13.01,8.26,8.27,8.27
38.57,-0.26,-8.53,-0.26,-8.53,8.53,8.67,12.61,8.27,8.27,8.27
38.95,-0.01,-8.27,-0.02,-8.28,8.28,8.45,12.23,8.27,8.26,8.26
39.34,0.23,-8.02,0.23,-8.03,8.03,8.24,11.85,8.26,8.26,8.26
39.74,0.47,-7.78,0.47,-7.79,7.79,8.02,11.48,8.26,8.26,8.25
40.14,0.71,-7.55,0.70,-7.55,7.55,7.82,11.12,8.26,8.25,8.25
40.54,0.93,-7.32,0.93,-7.32,7.32,7.61,10.76,8.24,8.25,8.25
40.94,1.16,-7.08,1.16,-7.09,7.09,7.41,10.42,8.25,8.24,8.24
41.35,1.37,-6.86,1.38,-6.86,6.86,7.22,10.07,8.23,8.24,8.23
41.76,1.59,-6.64,1.59,-6.65,6.65,7.02,9.74,8.24,8.23,8.24
42.18,1.80,-6.44,1.80,-6.43,6.43,6.84,9.41,8.23,8.23,8.24
42.60,2.00,-6.23,2.00,-6.23,6.23,6.65,9.09,8.23,8.23,8.23
43.03,2.20,-6.03,2.20,-6.02,6.02,6.47,8.77,8.22,8.22,8.23
43.46,2.39,-5.84,2.39,-5.83,5.83,6.29,8.45,8.22,8.22,8.22
43.90,2.58,-5.63,2.57,-5.64,5.64,6.11,8.14,8.21,8.21,8.21
44.33,2.76,-5.45,2.75,-5.45,5.45,5.94,7.84,8.21,8.21,8.21
44.78,2.94,-5.26,2.93,-5.28,5.28,5.77,7.53,8.21,8.20,8.20
45.23,3.11,-5.08,3.10,-5.10,5.10,5.61,7.23,8.21,8.20,8.19
45.68,3.27,-4.92,3.26,-4.93,4.93,5.44,6.94,8.20,8.19,8.19
46.13,3.42,-4.76,3.42,-4.77,4.77,5.28,6.64,8.19,8.19,8.18
46.60,3.58,-4.61,3.58,-4.60,4.60,5.12,6.36,8.18,8.18,8.19
47.06,3.73,-4.45,3.73,-4.44,4.44,4.96,6.07,8.17,8.17,8.17
47.53,3.87,-4.29,3.87,-4.29,4.29,4.81,5.78,8.16,8.16,8.16
48.01,4.01,-4.16,4.01,-4.13,4.13,4.65,5.50,8.14,8.15,8.17
48.49,4.15,-4.00,4.16,-3.98,3.98,4.50,5.22,8.13,8.14,8.15
48.97,4.29,-3.84,4.29,-3.83,3.83,4.35,4.95,8.12,8.13,8.13
49.46,4.43,-3.68,4.43,-3.69,3.69,4.20,4.67,8.11,8.11,8.11
49.96,4.56,-3.53,4.56,-3.54,3.54,4.06,4.40,8.10,8.10,8.09
50.46,4.69,-3.40,4.69,-3.39,3.39,3.91,4.13,8.08,8.08,8.08
50.96,4.82,-3.25,4.82,-3.24,3.24,3.77,3.87,8.06,8.06,8.07
51.47,4.95,-3.08,4.95,-3.10,3.10,3.63,3.61,8.04,8.04,8.03
51.99,5.08,-2.94,5.08,-2.95,2.95,3.49,3.35,8.03,8.02,8.02
52.51,5.20,-2.81,5.20,-2.80,2.80,3.35,3.09,8.00,8.00,8.01
53.03,5.33,-2.66,5.32,-2.66,2.66,3.21,2.84,7.99,7.98,7.98
53.56,5.45,-2.52,5.45,-2.51,2.51,3.07,2.59,7.96,7.96,7.97
54.10,5.57,-2.37,5.57,-2.37,2.37,2.94,2.35,7.94,7.94,7.94
54.64,5.68,-2.24,5.68,-2.23,2.23,2.80,2.11,7.91,7.92,7.92
55.18,5.80,-2.09,5.80,-2.09,2.09,2.67,1.88,7.89,7.89,7.89
55.74,5.91,-1.95,5.92,-1.95,1.95,2.53,1.65,7.86,7.87,7.86
56.29,6.03,-1.82,6.03,-1.82,1.82,2.40,1.43,7.84,7.85,7.85
56.86,6.14,-1.68,6.14,-1.68,1.68,2.27,1.22,7.82,7.82,7.82
57.42,6.25,-1.54,6.25,-1.54,1.54,2.14,1.01,7.79,7.80,7.78
58.00,6.36,-1.40,6.36,-1.41,1.41,2.01,0.81,7.77,7.77,7.76
58.58,6.46,-1.28,6.47,-1.27,1.27,1.88,0.62,7.73,7.74,7.74
59.16,6.57,-1.14,6.57,-1.14,1.14,1.75,0.44,7.71,7.71,7.71
59.76,6.67,-1.02,6.67,-1.01,1.01,1.62,0.27,7.68,7.67,7.69
60.35,6.76,-0.89,6.76,-0.88,0.88,1.49,0.11,7.64,7.64,7.65
60.96,6.85,-0.77,6.85,-0.75,0.75,1.37,-0.04,7.60,7.60,7.62
61.57,6.94,-0.63,6.93,-0.63,0.63,1.24,-0.18,7.57,7.57,7.57
62.18,7.02,-0.50,7.01,-0.52,0.52,1.12,-0.31,7.53,7.53,7.52
62.80,7.10,-0.39,7.09,-0.40,0.40,1.00,-0.43,7.50,7.49,7.49
63.43,7.16,-0.28,7.15,-0.29,0.29,0.88,-0.54,7.45,7.45,7.44
64.07,7.23,-0.17,7.22,-0.19,0.19,0.76,-0.64,7.42,7.41,7.40
64.71,7.28,-0.08,7.27,-0.09,0.09,0.64,-0.73,7.37,7.36,7.36
65.35,7.32,0.00,7.32,0.00,-0.00,0.53,-0.81,7.32,7.32,7.32
66.01,7.36,0.09,7.36,0.09,-0.09,0.41,-0.88,7.27,7.27,7.27
66.67,7.40,0.16,7.40,0.17,-0.17,0.31,-0.94,7.23,7.23,7.24
67.33,7.43,0.24,7.43,0.24,-0.24,0.20,-1.00,7.19,7.18,7.19
68.01,7.46,0.31,7.45,0.31,-0.31,0.09,-1.04,7.15,7.14,7.15
68.69,7.48,0.38,7.47,0.38,-0.38,-0.01,-1.08,7.10,7.10,7.10
69.37,7.49,0.44,7.49,0.43,-0.43,-0.11,-1.12,7.05,7.05,7.05
70.07,7.50,0.50,7.49,0.49,-0.49,-0.20,-1.15,7.01,7.00,7.00
70.77,7.51,0.55,7.50,0.54,-0.54,-0.29,-1.17,6.97,6.96,6.96
71.48,7.51,0.59,7.50,0.59,-0.59,-0.38,-1.19,6.92,6.92,6.92
72.19,7.50,0.63,7.50,0.63,-0.63,-0.46,-1.20,6.86,6.87,6.87
72.91,7.50,0.68,7.50,0.68,-0.68,-0.54,-1.21,6.82,6.83,6.82
73.64,7.50,0.72,7.50,0.72,-0.72,-0.62,-1.22,6.78,6.78,6.78
74.38,7.50,0.75,7.50,0.76,-0.76,-0.69,-1.23,6.74,6.74,6.74
75.12,7.49,0.79,7.49,0.79,-0.79,-0.76,-1.24,6.70,6.70,6.70
75.87,7.48,0.82,7.49,0.83,-0.83,-0.82,-1.24,6.65,6.66,6.66
76.63,7.48,0.86,7.49,0.87,-0.87,-0.88,-1.25,6.61,6.62,6.62
77.40,7.48,0.89,7.49,0.90,-0.90,-0.93,-1.25,6.57,6.59,6.58
78.17,7.48,0.93,7.49,0.94,-0.94,-0.99,-1.26,6.54,6.55,6.54
78.95,7.48,0.97,7.49,0.98,-0.98,-1.03,-1.26,6.50,6.51,6.51
79.74,7.48,1.00,7.49,1.01,-1.01,-1.08,-1.27,6.47,6.48,6.48
80.54,7.49,1.04,7.49,1.05,-1.05,-1.12,-1.28,6.44,6.44,6.45
81.35,7.49,1.07,7.49,1.08,-1.08,-1.16,-1.29,6.41,6.41,6.41
82.16,7.50,1.12,7.49,1.11,-1.11,-1.20,-1.30,6.39,6.38,6.38
82.98,7.50,1.14,7.48,1.13,-1.13,-1.23,-1.31,6.37,6.35,6.35
83.81,7.49,1.17,7.47,1.15,-1.15,-1.27,-1.32,6.33,6.32,6.32
84.65,7.48,1.20,7.46,1.17,-1.17,-1.30,-1.34,6.31,6.29,6.28
85.50,7.46,1.20,7.45,1.19,-1.19,-1.32,-1.36,6.27,6.26,6.26
86.35,7.44,1.21,7.43,1.20,-1.20,-1.35,-1.38,6.24,6.23,6.23
87.22,7.41,1.21,7.41,1.20,-1.20,-1.38,-1.40,6.21,6.21,6.20
88.09,7.39,1.22,7.38,1.21,-1.21,-1.40,-1.43,6.18,6.18,6.17
88.97,7.36,1.21,7.36,1.21,-1.21,-1.43,-1.45,6.15,6.15,6.15
89.86,7.33,1.20,7.33,1.20,-1.20,-1.45,-1.48,6.12,6.12,6.13
90.76,7.30,1.21,7.30,1.20,-1.20,-1.48,-1.52,6.10,6.09,6.09
91.66,7.27,1.20,7.27,1.20,-1.20,-1.50,-1.55,6.07,6.07,6.06
92.58,7.24,1.21,7.24,1.20,-1.20,-1.53,-1.59,6.03,6.04,6.03
93.51,7.21,1.19,7.22,1.21,-1.21,-1.55,-1.63,6.00,6.01,6.02
94.44,7.19,1.21,7.20,1.22,-1.22,-1.58,-1.67,5.97,5.98,5.98
95.39,7.16,1.20,7.18,1.23,-1.23,-1.60,-1.71,5.92,5.94,5.96
96.34,7.15,1.24,7.16,1.25,-1.25,-1.63,-1.76,5.90,5.91,5.91
97.30,7.14,1.26,7.15,1.28,-1.28,-1.66,-1.80,5.86,5.88,5.87
98.28,7.13,1.29,7.14,1.30,-1.30,-1.68,-1.85,5.83,5.84,5.84
99.26,7.13,1.33,7.14,1.33,-1.33,-1.71,-1.91,5.79,5.80,5.80
100.25,7.14,1.37,7.14,1.37,-1.37,-1.74,-1.96,5.77,5.77,5.76
101.25,7.15,1.42,7.14,1.41,-1.41,-1.77,-2.01,5.74,5.73,5.73
102.27,7.15,1.47,7.14,1.45,-1.45,-1.80,-2.07,5.69,5.68,5.68
103.29,7.15,1.52,7.14,1.50,-1.50,-1.83,-2.13,5.65,5.64,5.63
104.32,7.15,1.55,7.14,1.55,-1.55,-1.86,-2.18,5.60,5.59,5.59
105.37,7.15,1.60,7.14,1.61,-1.61,-1.90,-2.24,5.54,5.54,5.55
106.42,7.15,1.66,7.15,1.66,-1.66,-1.93,-2.30,5.49,5.49,5.49
107.48,7.15,1.71,7.15,1.72,-1.72,-1.97,-2.36,5.43,5.43,5.44
108.56,7.15,1.78,7.15,1.78,-1.78,-2.01,-2.42,5.37,5.37,5.37
109.64,7.15,1.83,7.15,1.84,-1.84,-2.04,-2.47,5.31,5.31,5.31
110.74,7.15,1.89,7.15,1.90,-1.90,-2.08,-2.53,5.25,5.25,5.26
111.85,7.15,1.96,7.15,1.97,-1.97,-2.12,-2.59,5.18,5.18,5.19
112.97,7.15,2.03,7.15,2.03,-2.03,-2.16,-2.64,5.12,5.12,5.11
114.10,7.15,2.09,7.15,2.10,-2.10,-2.20,-2.69,5.05,5.05,5.06
115.24,7.15,2.17,7.15,2.17,-2.17,-2.24,-2.74,4.98,4.98,4.98
116.39,7.15,2.24,7.15,2.24,-2.24,-2.29,-2.79,4.91,4.91,4.90
117.55,7.15,2.31,7.15,2.30,-2.30,-2.33,-2.84,4.85,4.85,4.84
118.73,7.15,2.38,7.15,2.37,-2.37,-2.38,-2.88,4.78,4.78,4.76
119.92,7.15,2.44,7.15,2.44,-2.44,-2.42,-2.92,4.71,4.71,4.71
121.12,7.15,2.51,7.15,2.51,-2.51,-2.47,-2.96,4.64,4.64,4.64
122.33,7.15,2.58,7.15,2.57,-2.57,-2.52,-2.99,4.58,4.58,4.57
123.55,7.15,2.63,7.15,2.63,-2.63,-2.56,-3.02,4.51,4.51,4.52
124.79,7.15,2.69,7.15,2.70,-2.70,-2.61,-3.05,4.45,4.45,4.46
126.03,7.15,2.75,7.15,2.76,-2.76,-2.66,-3.07,4.39,4.39,4.40
127.29,7.15,2.81,7.15,2.81,-2.81,-2.71,-3.09,4.33,4.33,4.34
128.57,7.15,2.88,7.15,2.87,-2.87,-2.76,-3.10,4.28,4.28,4.27
129.85,7.15,2.93,7.15,2.93,-2.93,-2.81,-3.12,4.22,4.22,4.22
131.15,7.15,2.99,7.15,2.98,-2.98,-2.86,-3.12,4.17,4.17,4.16
132.46,7.15,3.04,7.15,3.04,-3.04,-2.91,-3.13,4.11,4.11,4.11
133.79,7.15,3.08,7.15,3.09,-3.09,-2.97,-3.13,4.06,4.06,4.06
135.12,7.15,3.14,7.15,3.14,-3.14,-3.02,-3.13,4.01,4.01,4.01
136.48,7.15,3.18,7.15,3.19,-3.19,-3.07,-3.13,3.96,3.96,3.96
137.84,7.15,3.24,7.15,3.24,-3.24,-3.12,-3.13,3.91,3.91,3.91
139.22,7.15,3.29,7.15,3.28,-3.28,-3.18,-3.12,3.87,3.87,3.86
140.61,7.15,3.34,7.15,3.33,-3.33,-3.23,-3.11,3.82,3.82,3.80
142.02,7.15,3.38,7.15,3.38,-3.38,-3.28,-3.10,3.77,3.77,3.77
143.44,7.15,3.42,7.15,3.42,-3.42,-3.34,-3.09,3.73,3.73,3.73
144.87,7.15,3.46,7.15,3.47,-3.47,-3.39,-3.08,3.68,3.68,3.68
146.32,7.15,3.51,7.15,3.51,-3.51,-3.44,-3.07,3.64,3.63,3.64
147.78,7.15,3.55,7.15,3.56,-3.56,-3.49,-3.06,3.59,3.59,3.60
149.26,7.15,3.60,7.15,3.61,-3.61,-3.55,-3.05,3.54,3.54,3.55
150.75,7.15,3.66,7.15,3.66,-3.66,-3.60,-3.04,3.49,3.49,3.49
152.26,7.15,3.71,7.16,3.72,-3.72,-3.65,-3.04,3.43,3.44,3.44
153.78,7.15,3.75,7.16,3.77,-3.77,-3.70,-3.03,3.38,3.39,3.40
155.32,7.15,3.81,7.16,3.82,-3.82,-3.75,-3.02,3.33,3.34,3.34
156.88,7.16,3.86,7.16,3.87,-3.87,-3.80,-3.02,3.29,3.29,3.29
158.44,7.16,3.91,7.16,3.92,-3.92,-3.85,-3.02,3.24,3.24,3.24
160.03,7.17,3.98,7.16,3.97,-3.97,-3.90,-3.02,3.20,3.19,3.18
161.63,7.17,4.04,7.15,4.02,-4.02,-3.94,-3.02,3.15,3.14,3.13
163.24,7.17,4.09,7.14,4.06,-4.06,-3.99,-3.02,3.11,3.08,3.08
164.88,7.15,4.12,7.13,4.10,-4.10,-4.03,-3.03,3.05,3.03,3.03
166.53,7.13,4.15,7.12,4.14,-4.14,-4.08,-3.03,2.99,2.97,2.98
168.19,7.12,4.20,7.10,4.18,-4.18,-4.12,-3.05,2.94,2.92,2.92
169.87,7.08,4.21,7.08,4.21,-4.21,-4.16,-3.06,2.87,2.86,2.87
171.57,7.06,4.24,7.05,4.25,-4.25,-4.20,-3.07,2.81,2.81,2.81
173.29,7.03,4.28,7.03,4.28,-4.28,-4.24,-3.09,2.75,2.75,2.75
175.02,6.98,4.28,7.00,4.31,-4.31,-4.27,-3.11,2.67,2.69,2.70
176.77,6.95,4.32,6.97,4.34,-4.34,-4.31,-3.14,2.61,2.63,2.63
178.54,6.93,4.36,6.94,4.37,-4.37,-4.34,-3.17,2.56,2.57,2.57
180.32,6.91,4.40,6.91,4.40,-4.40,-4.37,-3.19,2.51,2.51,2.51
182.13,6.89,4.43,6.89,4.44,-4.44,-4.40,-3.23,2.45,2.45,2.46
183.95,6.86,4.47,6.87,4.48,-4.48,-4.43,-3.26,2.38,2.39,2.39
185.79,6.83,4.50,6.84,4.51,-4.51,-4.45,-3.30,2.31,2.33,2.33
187.65,6.81,4.55,6.82,4.55,-4.55,-4.47,-3.34,2.26,2.27,2.26
189.52,6.79,4.59,6.80,4.59,-4.59,-4.49,-3.38,2.20,2.21,2.20
191.42,6.77,4.62,6.78,4.63,-4.63,-4.51,-3.43,2.14,2.15,2.15
193.33,6.76,4.66,6.75,4.66,-4.66,-4.53,-3.47,2.10,2.09,2.10
195.27,6.74,4.70,6.73,4.69,-4.69,-4.54,-3.52,2.05,2.04,2.04
197.22,6.72,4.74,6.70,4.72,-4.72,-4.55,-3.57,2.00,1.98,1.98
199.19,6.69,4.77,6.66,4.74,-4.74,-4.56,-3.63,1.95,1.93,1.92
201.18,6.64,4.77,6.63,4.75,-4.75,-4.57,-3.68,1.89,1.88,1.87
203.19,6.60,4.77,6.59,4.77,-4.77,-4.57,-3.74,1.83,1.82,1.83
205.23,6.56,4.79,6.55,4.77,-4.77,-4.57,-3.79,1.79,1.78,1.77
207.28,6.51,4.77,6.50,4.78,-4.78,-4.57,-3.85,1.73,1.73,1.74
209.35,6.45,4.76,6.45,4.77,-4.77,-4.57,-3.91,1.68,1.68,1.68
211.44,6.39,4.76,6.40,4.76,-4.76,-4.56,-3.96,1.62,1.64,1.63
213.56,6.32,4.73,6.34,4.75,-4.75,-4.55,-4.02,1.57,1.59,1.59
215.69,6.28,4.71,6.29,4.73,-4.73,-4.54,-4.08,1.55,1.55,1.56
217.85,6.22,4.70,6.22,4.71,-4.71,-4.53,-4.13,1.51,1.52,1.52
220.03,6.18,4.70,6.16,4.68,-4.68,-4.51,-4.19,1.50,1.48,1.47
222.23,6.12,4.68,6.10,4.65,-4.65,-4.50,-4.24,1.46,1.45,1.44
224.45,6.05,4.63,6.04,4.62,-4.62,-4.48,-4.29,1.43,1.42,1.42
226.70,5.97,4.58,5.97,4.58,-4.58,-4.45,-4.34,1.38,1.39,1.39
228.96,5.89,4.53,5.91,4.54,-4.54,-4.43,-4.38,1.35,1.36,1.36
231.25,5.84,4.49,5.84,4.50,-4.50,-4.40,-4.42,1.34,1.34,1.35
233.57,5.77,4.44,5.77,4.45,-4.45,-4.38,-4.45,1.32,1.32,1.32
235.90,5.69,4.39,5.70,4.39,-4.39,-4.35,-4.48,1.30,1.31,1.30
238.26,5.64,4.35,5.63,4.33,-4.33,-4.31,-4.51,1.31,1.29,1.29
240.64,5.55,4.27,5.55,4.27,-4.27,-4.28,-4.53,1.28,1.28,1.28
243.05,5.49,4.21,5.48,4.20,-4.20,-4.25,-4.54,1.29,1.28,1.28
245.48,5.41,4.14,5.40,4.13,-4.13,-4.21,-4.55,1.28,1.27,1.27
247.93,5.31,4.04,5.32,4.05,-4.05,-4.17,-4.56,1.26,1.27,1.27
250.41,5.25,3.99,5.24,3.97,-3.97,-4.13,-4.55,1.28,1.27,1.26
252.92,5.15,3.88,5.16,3.88,-3.88,-4.09,-4.54,1.26,1.27,1.27
255.45,5.08,3.80,5.07,3.80,-3.80,-4.05,-4.53,1.28,1.28,1.28
258.00,5.01,3.72,4.99,3.71,-3.71,-4.01,-4.50,1.30,1.28,1.28
260.58,4.92,3.63,4.90,3.62,-3.62,-3.96,-4.47,1.30,1.29,1.29
263.19,4.84,3.54,4.82,3.52,-3.52,-3.92,-4.44,1.31,1.30,1.30
265.82,4.74,3.44,4.74,3.43,-3.43,-3.87,-4.40,1.31,1.31,1.30
268.48,4.66,3.34,4.66,3.35,-3.35,-3.83,-4.36,1.31,1.32,1.32
271.16,4.59,3.25,4.59,3.26,-3.26,-3.78,-4.31,1.33,1.33,1.34
273.87,4.50,3.16,4.52,3.18,-3.18,-3.73,-4.26,1.32,1.34,1.34
276.61,4.45,3.09,4.46,3.11,-3.11,-3.68,-4.20,1.34,1.35,1.36
279.38,4.39,3.02,4.40,3.04,-3.04,-3.63,-4.14,1.35,1.37,1.37
282.17,4.35,2.97,4.36,2.98,-2.98,-3.58,-4.07,1.37,1.38,1.38
284.99,4.31,2.91,4.31,2.92,-2.92,-3.53,-4.01,1.39,1.39,1.39
287.84,4.26,2.86,4.28,2.88,-2.88,-3.48,-3.94,1.38,1.40,1.40
290.72,4.24,2.82,4.25,2.84,-2.84,-3.43,-3.87,1.40,1.42,1.41
293.63,4.22,2.79,4.23,2.81,-2.81,-3.38,-3.80,1.41,1.43,1.43
296.57,4.22,2.78,4.22,2.78,-2.78,-3.33,-3.73,1.44,1.44,1.44
299.53,4.21,2.76,4.21,2.76,-2.76,-3.28,-3.65,1.45,1.45,1.45
302.53,4.21,2.75,4.21,2.74,-2.74,-3.23,-3.58,1.47,1.46,1.45
305.55,4.21,2.73,4.21,2.73,-2.73,-3.18,-3.51,1.48,1.47,1.48
308.61,4.23,2.74,4.21,2.72,-2.72,-3.13,-3.44,1.50,1.48,1.48
311.69,4.23,2.74,4.21,2.72,-2.72,-3.08,-3.37,1.51,1.49,1.49
314.81,4.23,2.71,4.22,2.72,-2.72,-3.03,-3.29,1.51,1.50,1.52
317.96,4.23,2.72,4.23,2.72,-2.72,-2.98,-3.23,1.51,1.51,1.51
321.14,4.23,2.71,4.23,2.72,-2.72,-2.93,-3.16,1.51,1.52,1.52
324.35,4.23,2.71,4.24,2.72,-2.72,-2.88,-3.09,1.51,1.52,1.52
327.59,4.23,2.70,4.24,2.72,-2.72,-2.83,-3.03,1.51,1.53,1.53
330.87,4.24,2.71,4.25,2.72,-2.72,-2.78,-2.96,1.52,1.53,1.53
334.18,4.25,2.72,4.25,2.72,-2.72,-2.73,-2.90,1.53,1.53,1.53
337.52,4.26,2.73,4.25,2.71,-2.71,-2.68,-2.84,1.54,1.54,1.53
340.90,4.26,2.72,4.25,2.71,-2.71,-2.63,-2.78,1.55,1.53,1.54
344.30,4.25,2.71,4.24,2.71,-2.71,-2.59,-2.73,1.54,1.53,1.54
347.75,4.24,2.70,4.23,2.70,-2.70,-2.54,-2.67,1.54,1.53,1.53
351.23,4.23,2.70,4.22,2.69,-2.69,-2.49,-2.62,1.54,1.53,1.53
354.74,4.20,2.67,4.20,2.67,-2.67,-2.44,-2.57,1.53,1.53,1.53
358.28,4.17,2.65,4.17,2.65,-2.65,-2.40,-2.53,1.52,1.52,1.52
361.87,4.16,2.64,4.14,2.63,-2.63,-2.35,-2.48,1.53,1.52,1.51
365.49,4.13,2.62,4.11,2.60,-2.60,-2.31,-2.44,1.53,1.51,1.51
369.14,4.09,2.59,4.07,2.57,-2.57,-2.26,-2.39,1.52,1.50,1.50
372.83,4.04,2.54,4.03,2.53,-2.53,-2.22,-2.35,1.51,1.50,1.50
376.56,3.99,2.50,3.99,2.50,-2.50,-2.17,-2.32,1.49,1.49,1.49
380.33,3.94,2.45,3.94,2.46,-2.46,-2.13,-2.28,1.47,1.48,1.48
384.13,3.88,2.41,3.90,2.43,-2.43,-2.09,-2.25,1.45,1.47,1.47
387.97,3.83,2.37,3.85,2.39,-2.39,-2.04,-2.21,1.44,1.47,1.46
391.85,3.79,2.34,3.81,2.35,-2.35,-2.00,-2.18,1.44,1.46,1.45
395.77,3.75,2.29,3.76,2.31,-2.31,-1.96,-2.15,1.44,1.45,1.46
399.73,3.72,2.27,3.71,2.27,-2.27,-1.92,-2.13,1.45,1.44,1.45
403.72,3.68,2.24,3.67,2.23,-2.23,-1.88,-2.10,1.45,1.44,1.43
407.76,3.65,2.23,3.63,2.20,-2.20,-1.84,-2.07,1.45,1.43,1.42
411.84,3.61,2.18,3.59,2.17,-2.17,-1.80,-2.05,1.44,1.43,1.43
415.96,3.56,2.14,3.55,2.13,-2.13,-1.76,-2.03,1.42,1.42,1.42
420.12,3.51,2.09,3.52,2.10,-2.10,-1.72,-2.00,1.41,1.42,1.42
424.32,3.47,2.05,3.49,2.07,-2.07,-1.68,-1.98,1.40,1.41,1.42
428.56,3.43,2.02,3.45,2.04,-2.04,-1.64,-1.96,1.39,1.41,1.41
432.85,3.40,1.99,3.42,2.01,-2.01,-1.60,-1.94,1.39,1.41,1.41
437.18,3.38,1.97,3.39,1.98,-1.98,-1.57,-1.92,1.40,1.41,1.40
441.55,3.37,1.96,3.35,1.95,-1.95,-1.53,-1.90,1.42,1.41,1.41
445.96,3.35,1.94,3.33,1.92,-1.92,-1.49,-1.88,1.43,1.41,1.41
450.42,3.31,1.91,3.30,1.89,-1.89,-1.46,-1.86,1.42,1.41,1.40
454.93,3.27,1.86,3.27,1.86,-1.86,-1.42,-1.83,1.41,1.41,1.41
459.48,3.23,1.82,3.24,1.83,-1.83,-1.38,-1.81,1.40,1.42,1.41
464.07,3.20,1.78,3.21,1.79,-1.79,-1.35,-1.79,1.40,1.42,1.42
468.71,3.18,1.75,3.18,1.76,-1.76,-1.32,-1.76,1.42,1.42,1.43
473.40,3.15,1.72,3.15,1.72,-1.72,-1.28,-1.74,1.42,1.43,1.43
478.13,3.13,1.69,3.12,1.68,-1.68,-1.25,-1.71,1.44,1.43,1.44
482.91,3.11,1.67,3.08,1.64,-1.64,-1.21,-1.68,1.47,1.44,1.44
487.74,3.07,1.62,3.04,1.60,-1.60,-1.18,-1.65,1.47,1.44,1.44
492.62,3.02,1.56,3.01,1.56,-1.56,-1.15,-1.62,1.46,1.45,1.45
497.55,2.97,1.52,2.97,1.51,-1.51,-1.11,-1.59,1.45,1.45,1.45
502.52,2.92,1.46,2.93,1.47,-1.47,-1.08,-1.55,1.45,1.46,1.46
507.55,2.88,1.42,2.89,1.43,-1.43,-1.05,-1.52,1.45,1.46,1.46
512.62,2.84,1.38,2.85,1.39,-1.39,-1.02,-1.48,1.45,1.46,1.46
