frequency,raw,error,smoothed,error_smoothed,equalization,parametric_eq,fixed_band_eq,equalized_raw,equalized_smoothed,target
20.00,1.26,-10.01,1.26,-10.01,10.01,9.33,2.91,11.27,11.26,11.27
20.20,1.36,-9.90,1.36,-9.89,9.89,9.25,2.99,11.25,11.25,11.26
20.40,1.47,-9.78,1.47,-9.78,9.78,9.17,3.08,11.25,11.24,11.25
20.61,1.57,-9.67,1.57,-9.66,9.66,9.09,3.16,11.23,11.23,11.24
20.81,1.68,-9.54,1.68,-9.54,9.55,9.01,3.25,11.23,11.22,11.22
21.02,1.78,-9.43,1.78,-9.43,9.43,8.93,3.35,11.21,11.21,11.21
21.23,1.88,-9.32,1.88,-9.32,9.32,8.84,3.44,11.20,11.20,11.20
21.44,1.99,-9.22,1.99,-9.21,9.21,8.76,3.54,11.20,11.19,11.21
21.66,2.09,-9.10,2.09,-9.10,9.09,8.68,3.65,11.18,11.18,11.19
21.87,2.20,-8.98,2.20,-8.98,8.98,8.59,3.75,11.18,11.18,11.19
22.09,2.30,-8.87,2.30,-8.86,8.87,8.50,3.86,11.17,11.17,11.17
22.31,2.41,-8.74,2.41,-8.75,8.75,8.42,3.97,11.16,11.16,11.16
22.54,2.51,-8.64,2.51,-8.64,8.64,8.33,4.08,11.15,11.15,11.15
22.76,2.61,-8.54,2.61,-8.53,8.53,8.24,4.20,11.14,11.14,11.15
22.99,2.72,-8.42,2.72,-8.42,8.42,8.15,4.32,11.14,11.14,11.14
23.22,2.82,-8.31,2.82,-8.32,8.31,8.07,4.44,11.13,11.13,11.13
23.45,2.92,-8.22,2.92,-8.21,8.21,7.98,4.56,11.13,11.13,11.14
23.69,3.02,-8.11,3.02,-8.10,8.10,7.89,4.69,11.12,11.13,11.13
23.92,3.13,-7.99,3.13,-8.00,8.00,7.80,4.82,11.13,11.12,11.12
24.16,3.23,-7.90,3.23,-7.89,7.89,7.71,4.95,11.12,11.12,11.13
24.40,3.33,-7.79,3.33,-7.79,7.79,7.62,5.08,11.12,11.12,11.13
24.65,3.43,-7.69,3.43,-7.69,7.68,7.53,5.22,11.11,11.11,11.12
24.89,3.54,-7.57,3.54,-7.57,7.58,7.44,5.36,11.12,11.12,11.12
25.14,3.64,-7.47,3.64,-7.47,7.48,7.35,5.50,11.12,11.12,11.11
25.39,3.74,-7.36,3.74,-7.37,7.37,7.26,5.64,11.12,11.11,11.11
25.65,3.83,-7.28,3.83,-7.27,7.27,7.17,5.78,11.10,11.11,11.11
25.91,3.93,-7.18,3.93,-7.18,7.17,7.08,5.92,11.10,11.10,11.11
26.16,4.03,-7.08,4.03,-7.08,7.08,6.99,6.06,11.11,11.10,11.12
26.43,4.13,-6.98,4.13,-6.98,6.98,6.90,6.20,11.11,11.11,11.11
26.69,4.23,-6.88,4.23,-6.88,6.88,6.81,6.34,11.11,11.11,11.11
26.96,4.32,-6.79,4.32,-6.78,6.79,6.72,6.48,11.11,11.11,11.11
27.23,4.42,-6.69,4.42,-6.69,6.69,6.63,6.61,11.11,11.11,11.11
27.50,4.51,-6.60,4.51,-6.60,6.60,6.54,6.74,11.11,11.11,11.11
27.77,4.60,-6.52,4.60,-6.51,6.51,6.45,6.87,11.11,11.11,11.12
28.05,4.70,-6.41,4.70,-6.41,6.42,6.36,6.99,11.12,11.11,11.11
28.33,4.79,-6.33,4.79,-6.33,6.33,6.27,7.10,11.12,11.11,11.12
28.62,4.88,-6.24,4.88,-6.24,6.24,6.19,7.21,11.11,11.12,11.12
28.90,4.97,-6.16,4.97,-6.15,6.15,6.10,7.30,11.12,11.12,11.13
29.19,5.06,-6.07,5.06,-6.06,6.06,6.01,7.39,11.12,11.12,11.13
29.48,5.15,-5.97,5.15,-5.97,5.97,5.92,7.47,11.12,11.12,11.12
29.78,5.23,-5.89,5.23,-5.88,5.89,5.83,7.53,11.12,11.12,11.12
30.08,5.32,-5.80,5.31,-5.80,5.81,5.74,7.59,11.13,11.12,11.12
30.38,5.38,-5.72,5.38,-5.72,5.73,5.66,7.63,11.11,11.11,11.10
30.68,5.45,-5.65,5.45,-5.65,5.65,5.57,7.65,11.10,11.10,11.10
30.99,5.52,-5.58,5.52,-5.58,5.57,5.48,7.66,11.09,11.09,11.10
31.30,5.59,-5.51,5.59,-5.50,5.49,5.40,7.66,11.08,11.08,11.10
31.61,5.66,-5.43,5.66,-5.43,5.42,5.31,7.64,11.08,11.08,11.09
31.93,5.73,-5.34,5.73,-5.35,5.34,5.23,7.61,11.07,11.07,11.07
32.24,5.80,-5.28,5.80,-5.26,5.27,5.14,7.57,11.07,11.07,11.08
32.57,5.88,-5.18,5.88,-5.18,5.19,5.06,7.51,11.07,11.06,11.06
32.89,5.95,-5.11,5.95,-5.11,5.11,4.97,7.44,11.06,11.06,11.06
33.22,6.01,-5.04,6.01,-5.03,5.03,4.89,7.35,11.04,11.05,11.05
33.55,6.08,-4.97,6.08,-4.96,4.96,4.80,7.26,11.04,11.04,11.05
33.89,6.15,-4.89,6.14,-4.89,4.89,4.72,7.15,11.04,11.03,11.04
34.23,6.21,-4.81,6.21,-4.81,4.81,4.64,7.04,11.02,11.02,11.02
34.57,6.27,-4.75,6.27,-4.74,4.74,4.55,6.91,11.01,11.02,11.02
34.92,6.34,-4.66,6.34,-4.67,4.67,4.47,6.78,11.01,11.01,11.00
35.27,6.40,-4.62,6.40,-4.60,4.60,4.39,6.64,11.00,11.00,11.02
35.62,6.46,-4.53,6.46,-4.53,4.53,4.30,6.50,10.99,10.99,10.99
35.97,6.52,-4.47,6.52,-4.47,4.46,4.22,6.35,10.98,10.98,10.99
36.33,6.57,-4.40,6.57,-4.39,4.39,4.14,6.20,10.96,10.96,10.97
36.70,6.63,-4.32,6.63,-4.32,4.31,4.06,6.05,10.94,10.94,10.95
37.06,6.69,-4.24,6.69,-4.24,4.24,3.98,5.89,10.93,10.93,10.93
37.43,6.75,-4.16,6.75,-4.16,4.16,3.90,5.73,10.91,10.91,10.91
37.81,6.81,-4.09,6.81,-4.08,4.08,3.82,5.58,10.89,10.89,10.90
38.19,6.87,-4.00,6.87,-4.00,4.00,3.74,5.42,10.87,10.87,10.87
38.57,6.93,-3.92,6.93,-3.92,3.92,3.66,5.26,10.85,10.85,10.85
38.95,6.98,-3.86,6.98,-3.84,3.84,3.58,5.10,10.82,10.82,10.84
39.34,7.04,-3.77,7.04,-3.76,3.76,3.50,4.94,10.80,10.80,10.81
39.74,7.10,-3.68,7.10,-3.68,3.69,3.43,4.79,10.79,10.79,10.78
40.14,7.16,-3.60,7.15,-3.60,3.61,3.35,4.63,10.77,10.77,10.76
40.54,7.20,-3.54,7.20,-3.53,3.54,3.27,4.48,10.74,10.74,10.74
40.94,7.24,-3.47,7.24,-3.47,3.47,3.19,4.33,10.71,10.71,10.71
41.35,7.29,-3.41,7.29,-3.40,3.40,3.12,4.18,10.69,10.69,10.70
41.76,7.34,-3.33,7.34,-3.33,3.33,3.04,4.04,10.66,10.66,10.67
42.18,7.39,-3.27,7.39,-3.26,3.25,2.96,3.89,10.64,10.64,10.66
42.60,7.44,-3.19,7.44,-3.19,3.18,2.89,3.75,10.62,10.62,10.63
43.03,7.49,-3.12,7.49,-3.11,3.11,2.81,3.61,10.60,10.60,10.61
43.46,7.55,-3.02,7.55,-3.03,3.03,2.73,3.47,10.58,10.58,10.57
43.90,7.60,-2.95,7.60,-2.95,2.96,2.66,3.34,10.56,10.55,10.55
44.33,7.64,-2.88,7.64,-2.88,2.88,2.58,3.20,10.52,10.53,10.52
44.78,7.69,-2.81,7.69,-2.81,2.81,2.51,3.07,10.50,10.49,10.50
45.23,7.73,-2.75,7.73,-2.74,2.73,2.44,2.94,10.46,10.46,10.48
45.68,7.77,-2.66,7.77,-2.66,2.66,2.36,2.82,10.43,10.43,10.43
46.13,7.81,-2.59,7.81,-2.59,2.59,2.29,2.69,10.40,10.40,10.40
46.60,7.85,-2.51,7.85,-2.51,2.51,2.22,2.57,10.36,10.36,10.36
47.06,7.89,-2.44,7.89,-2.43,2.43,2.14,2.45,10.32,10.32,10.33
47.53,7.93,-2.36,7.93,-2.35,2.35,2.07,2.34,10.28,10.28,10.29
48.01,7.97,-2.27,7.97,-2.27,2.27,2.00,2.22,10.23,10.24,10.24
48.49,8.01,-2.19,8.01,-2.18,2.18,1.92,2.11,10.19,10.19,10.20
48.97,8.06,-2.09,8.06,-2.09,2.10,1.85,2.00,10.16,10.15,10.15
49.46,8.10,-2.02,8.10,-2.01,2.01,1.78,1.89,10.11,10.11,10.12
49.96,8.14,-1.92,8.14,-1.92,1.93,1.71,1.78,10.07,10.07,10.06
50.46,8.18,-1.85,8.18,-1.85,1.84,1.64,1.68,10.02,10.02,10.03
50.96,8.22,-1.77,8.22,-1.76,1.77,1.57,1.57,9.99,9.99,9.99
51.47,8.26,-1.69,8.26,-1.68,1.69,1.50,1.47,9.95,9.95,9.95
51.99,8.30,-1.60,8.30,-1.61,1.61,1.43,1.37,9.91,9.91,9.90
52.51,8.33,-1.54,8.33,-1.54,1.54,1.35,1.27,9.87,9.87,9.87
53.03,8.35,-1.49,8.35,-1.47,1.47,1.28,1.18,9.82,9.82,9.84
53.56,8.38,-1.41,8.38,-1.40,1.39,1.21,1.08,9.77,9.78,9.79
54.10,8.42,-1.32,8.41,-1.33,1.32,1.15,0.99,9.74,9.74,9.74
54.64,8.45,-1.25,8.45,-1.25,1.25,1.08,0.90,9.70,9.70,9.70
55.18,8.48,-1.18,8.48,-1.17,1.18,1.01,0.81,9.66,9.66,9.66
55.74,8.51,-1.10,8.51,-1.11,1.10,0.94,0.73,9.61,9.61,9.61
56.29,8.55,-1.04,8.55,-1.03,1.03,0.87,0.64,9.58,9.58,9.59
56.86,8.58,-0.97,8.58,-0.96,0.96,0.80,0.56,9.54,9.54,9.55
57.42,8.62,-0.88,8.62,-0.88,0.89,0.73,0.48,9.51,9.51,9.50
58.00,8.65,-0.81,8.65,-0.81,0.82,0.66,0.40,9.47,9.47,9.46
58.58,8.68,-0.75,8.68,-0.74,0.75,0.59,0.32,9.43,9.43,9.43
59.16,8.71,-0.69,8.71,-0.68,0.67,0.53,0.25,9.38,9.38,9.40
59.76,8.74,-0.61,8.74,-0.61,0.60,0.46,0.18,9.34,9.33,9.35
60.35,8.76,-0.54,8.76,-0.53,0.52,0.39,0.10,9.28,9.28,9.30
60.96,8.79,-0.45,8.79,-0.44,0.44,0.32,0.04,9.23,9.23,9.24
61.57,8.82,-0.36,8.82,-0.36,0.36,0.26,-0.03,9.18,9.18,9.18
62.18,8.85,-0.27,8.84,-0.27,0.29,0.19,-0.10,9.14,9.13,9.12
62.80,8.86,-0.20,8.86,-0.19,0.21,0.12,-0.16,9.07,9.07,9.06
63.43,8.88,-0.13,8.88,-0.13,0.14,0.06,-0.22,9.02,9.01,9.01
64.07,8.89,-0.07,8.89,-0.07,0.06,-0.01,-0.28,8.95,8.95,8.96
64.71,8.90,-0.01,8.90,0.00,-0.01,-0.08,-0.34,8.89,8.90,8.91
65.35,8.92,0.07,8.92,0.07,-0.08,-0.14,-0.40,8.84,8.84,8.85
66.01,8.94,0.14,8.94,0.14,-0.15,-0.21,-0.45,8.79,8.79,8.80
66.67,8.96,0.20,8.96,0.21,-0.22,-0.28,-0.51,8.74,8.74,8.76
67.33,8.98,0.29,8.98,0.29,-0.29,-0.34,-0.56,8.69,8.69,8.69
68.01,9.01,0.37,9.01,0.37,-0.37,-0.41,-0.61,8.64,8.64,8.64
68.69,9.04,0.45,9.04,0.45,-0.45,-0.47,-0.66,8.59,8.59,8.59
69.37,9.06,0.52,9.06,0.53,-0.53,-0.54,-0.71,8.53,8.53,8.54
70.07,9.08,0.60,9.08,0.61,-0.61,-0.61,-0.76,8.47,8.47,8.48
70.77,9.10,0.69,9.10,0.68,-0.69,-0.67,-0.81,8.41,8.41,8.41
71.48,9.12,0.76,9.12,0.77,-0.77,-0.74,-0.86,8.35,8.35,8.36
72.19,9.14,0.84,9.14,0.85,-0.85,-0.80,-0.91,8.29,8.29,8.30
72.91,9.16,0.93,9.16,0.93,-0.93,-0.87,-0.96,8.23,8.23,8.23
73.64,9.18,1.00,9.18,1.01,-1.01,-0.93,-1.01,8.17,8.17,8.18
74.38,9.21,1.09,9.21,1.09,-1.09,-1.00,-1.06,8.12,8.12,8.12
75.12,9.23,1.16,9.23,1.17,-1.17,-1.06,-1.11,8.06,8.07,8.07
75.87,9.26,1.24,9.26,1.25,-1.24,-1.12,-1.16,8.02,8.01,8.02
76.63,9.28,1.32,9.28,1.32,-1.32,-1.19,-1.21,7.96,7.96,7.96
77.40,9.30,1.38,9.30,1.39,-1.39,-1.25,-1.26,7.91,7.91,7.92
78.17,9.31,1.45,9.31,1.45,-1.45,-1.32,-1.31,7.86,7.86,7.86
78.95,9.33,1.51,9.33,1.51,-1.51,-1.38,-1.36,7.82,7.82,7.82
79.74,9.34,1.57,9.34,1.57,-1.57,-1.45,-1.41,7.77,7.77,7.77
80.54,9.34,1.62,9.34,1.63,-1.62,-1.51,-1.47,7.72,7.72,7.72
81.35,9.34,1.68,9.34,1.67,-1.67,-1.57,-1.52,7.67,7.67,7.66
82.16,9.34,1.71,9.33,1.72,-1.72,-1.64,-1.58,7.62,7.61,7.63
82.98,9.32,1.75,9.33,1.76,-1.77,-1.70,-1.64,7.55,7.56,7.57
83.81,9.32,1.80,9.32,1.81,-1.82,-1.76,-1.70,7.50,7.50,7.52
84.65,9.32,1.86,9.32,1.86,-1.87,-1.83,-1.76,7.45,7.45,7.46
85.50,9.32,1.92,9.32,1.92,-1.92,-1.89,-1.82,7.40,7.40,7.40
86.35,9.32,1.97,9.32,1.97,-1.97,-1.95,-1.89,7.35,7.35,7.35
87.22,9.32,2.02,9.32,2.03,-2.03,-2.02,-1.95,7.29,7.29,7.30
88.09,9.32,2.08,9.32,2.08,-2.08,-2.08,-2.02,7.24,7.24,7.24
88.97,9.32,2.14,9.32,2.14,-2.14,-2.14,-2.09,7.18,7.18,7.18
89.86,9.32,2.19,9.32,2.20,-2.20,-2.20,-2.16,7.12,7.12,7.13
90.76,9.32,2.25,9.32,2.26,-2.25,-2.27,-2.23,7.07,7.07,7.07
91.66,9.32,2.32,9.32,2.32,-2.31,-2.33,-2.31,7.01,7.01,7.00
92.58,9.32,2.37,9.32,2.37,-2.37,-2.39,-2.38,6.95,6.95,6.95
93.51,9.32,2.42,9.32,2.43,-2.43,-2.45,-2.46,6.89,6.89,6.90
94.44,9.32,2.48,9.32,2.49,-2.49,-2.51,-2.54,6.82,6.82,6.84
95.39,9.32,2.55,9.32,2.55,-2.56,-2.58,-2.62,6.76,6.76,6.77
96.34,9.32,2.62,9.32,2.62,-2.62,-2.64,-2.70,6.70,6.70,6.70
97.30,9.32,2.68,9.32,2.69,-2.68,-2.70,-2.78,6.64,6.64,6.64
98.28,9.32,2.75,9.32,2.75,-2.75,-2.76,-2.87,6.57,6.57,6.57
99.26,9.32,2.81,9.32,2.81,-2.81,-2.82,-2.95,6.51,6.51,6.51
100.25,9.32,2.87,9.32,2.87,-2.87,-2.88,-3.04,6.45,6.45,6.45
101.25,9.32,2.92,9.32,2.93,-2.93,-2.94,-3.13,6.39,6.39,6.40
102.27,9.32,2.98,9.32,2.98,-2.99,-3.00,-3.22,6.33,6.33,6.34
103.29,9.32,3.04,9.32,3.04,-3.04,-3.06,-3.31,6.28,6.28,6.28
104.32,9.32,3.09,9.32,3.10,-3.10,-3.12,-3.39,6.22,6.22,6.23
105.37,9.32,3.15,9.32,3.15,-3.15,-3.18,-3.48,6.17,6.17,6.17
106.42,9.32,3.20,9.32,3.21,-3.21,-3.24,-3.57,6.11,6.11,6.12
107.48,9.32,3.26,9.32,3.26,-3.26,-3.30,-3.66,6.06,6.06,6.06
108.56,9.32,3.31,9.32,3.32,-3.32,-3.35,-3.74,6.00,6.00,6.01
109.64,9.32,3.37,9.32,3.37,-3.37,-3.41,-3.83,5.95,5.95,5.95
110.74,9.32,3.43,9.32,3.43,-3.43,-3.47,-3.91,5.89,5.89,5.89
111.85,9.32,3.49,9.32,3.49,-3.49,-3.53,-3.99,5.83,5.83,5.83
112.97,9.32,3.54,9.32,3.55,-3.55,-3.58,-4.07,5.77,5.77,5.78
114.10,9.32,3.60,9.32,3.61,-3.62,-3.64,-4.14,5.70,5.70,5.72
115.24,9.32,3.68,9.32,3.68,-3.68,-3.70,-4.21,5.64,5.64,5.64
116.39,9.32,3.74,9.32,3.74,-3.74,-3.75,-4.28,5.58,5.58,5.58
117.55,9.32,3.80,9.32,3.81,-3.79,-3.81,-4.34,5.53,5.53,5.52
118.73,9.32,3.86,9.32,3.86,-3.85,-3.86,-4.40,5.47,5.47,5.46
119.92,9.32,3.90,9.32,3.91,-3.91,-3.92,-4.46,5.41,5.41,5.42
121.12,9.32,3.95,9.32,3.96,-3.96,-3.97,-4.51,5.36,5.36,5.37
122.33,9.32,4.01,9.32,4.01,-4.01,-4.03,-4.55,5.31,5.31,5.31
123.55,9.32,4.06,9.32,4.06,-4.07,-4.08,-4.59,5.25,5.25,5.26
124.79,9.32,4.11,9.32,4.12,-4.12,-4.13,-4.63,5.20,5.20,5.21
126.03,9.32,4.17,9.32,4.17,-4.17,-4.18,-4.65,5.15,5.15,5.15
127.29,9.32,4.22,9.32,4.23,-4.23,-4.24,-4.68,5.09,5.09,5.10
128.57,9.32,4.29,9.32,4.29,-4.29,-4.29,-4.69,5.03,5.03,5.03
129.85,9.32,4.34,9.32,4.34,-4.35,-4.34,-4.71,4.97,4.97,4.98
131.15,9.32,4.40,9.32,4.40,-4.41,-4.39,-4.72,4.91,4.91,4.92
132.46,9.32,4.45,9.32,4.46,-4.47,-4.44,-4.72,4.85,4.86,4.87
133.79,9.33,4.52,9.33,4.52,-4.52,-4.49,-4.72,4.81,4.81,4.81
135.12,9.34,4.58,9.34,4.58,-4.58,-4.53,-4.71,4.76,4.76,4.76
136.48,9.34,4.63,9.34,4.63,-4.63,-4.58,-4.71,4.71,4.71,4.71
137.84,9.33,4.67,9.33,4.68,-4.67,-4.63,-4.69,4.66,4.66,4.66
139.22,9.32,4.72,9.32,4.72,-4.71,-4.67,-4.68,4.61,4.61,4.60
140.61,9.30,4.74,9.30,4.75,-4.74,-4.72,-4.66,4.56,4.56,4.56
142.02,9.26,4.76,9.27,4.76,-4.76,-4.76,-4.65,4.50,4.50,4.50
143.44,9.24,4.78,9.24,4.78,-4.78,-4.81,-4.63,4.46,4.45,4.46
144.87,9.20,4.78,9.20,4.79,-4.80,-4.85,-4.61,4.40,4.41,4.42
146.32,9.18,4.81,9.17,4.81,-4.81,-4.89,-4.59,4.37,4.37,4.37
147.78,9.14,4.81,9.14,4.82,-4.82,-4.93,-4.57,4.32,4.32,4.33
149.26,9.11,4.83,9.11,4.83,-4.83,-4.97,-4.55,4.28,4.28,4.28
150.75,9.08,4.84,9.08,4.84,-4.84,-5.01,-4.53,4.24,4.24,4.24
152.26,9.05,4.85,9.05,4.85,-4.85,-5.05,-4.51,4.20,4.20,4.20
153.78,9.02,4.86,9.02,4.86,-4.87,-5.09,-4.49,4.15,4.15,4.16
155.32,9.00,4.88,9.00,4.89,-4.89,-5.12,-4.48,4.11,4.10,4.12
156.88,8.98,4.91,8.98,4.91,-4.92,-5.16,-4.47,4.06,4.06,4.07
158.44,8.97,4.95,8.97,4.95,-4.96,-5.19,-4.46,4.01,4.01,4.02
160.03,8.97,4.99,8.97,4.99,-5.00,-5.23,-4.45,3.97,3.97,3.98
161.63,8.98,5.04,8.98,5.05,-5.05,-5.26,-4.44,3.93,3.93,3.94
163.24,8.99,5.10,8.99,5.10,-5.10,-5.29,-4.44,3.89,3.89,3.89
164.88,9.00,5.16,9.00,5.16,-5.16,-5.32,-4.44,3.84,3.84,3.84
166.53,9.01,5.22,9.01,5.22,-5.21,-5.35,-4.44,3.80,3.80,3.79
168.19,9.01,5.25,9.01,5.27,-5.26,-5.38,-4.45,3.75,3.75,3.76
169.87,9.01,5.31,9.01,5.31,-5.30,-5.40,-4.46,3.71,3.71,3.70
171.57,9.00,5.35,9.00,5.35,-5.34,-5.43,-4.47,3.66,3.66,3.65
173.29,8.99,5.38,8.98,5.38,-5.38,-5.45,-4.49,3.61,3.60,3.61
175.02,8.95,5.39,8.96,5.40,-5.40,-5.48,-4.51,3.55,3.56,3.56
176.77,8.93,5.42,8.93,5.42,-5.42,-5.50,-4.53,3.51,3.51,3.51
178.54,8.91,5.44,8.90,5.44,-5.44,-5.52,-4.56,3.47,3.46,3.47
180.32,8.87,5.46,8.87,5.46,-5.45,-5.54,-4.59,3.42,3.42,3.41
182.13,8.84,5.46,8.83,5.46,-5.46,-5.56,-4.63,3.38,3.37,3.38
183.95,8.79,5.46,8.80,5.47,-5.47,-5.57,-4.66,3.31,3.32,3.33
185.79,8.76,5.48,8.76,5.48,-5.49,-5.59,-4.71,3.27,3.27,3.28
187.65,8.74,5.50,8.73,5.50,-5.51,-5.60,-4.75,3.23,3.23,3.24
189.52,8.71,5.51,8.71,5.52,-5.53,-5.61,-4.80,3.18,3.19,3.20
191.42,8.70,5.54,8.70,5.54,-5.55,-5.62,-4.85,3.15,3.15,3.16
193.33,8.68,5.56,8.68,5.57,-5.58,-5.63,-4.90,3.10,3.10,3.12
195.27,8.67,5.60,8.67,5.60,-5.61,-5.64,-4.96,3.06,3.06,3.07
197.22,8.66,5.64,8.66,5.64,-5.63,-5.65,-5.02,3.03,3.03,3.02
199.19,8.65,5.66,8.65,5.67,-5.66,-5.66,-5.08,2.99,2.99,2.99
201.18,8.64,5.69,8.64,5.69,-5.68,-5.66,-5.15,2.96,2.96,2.95
203.19,8.62,5.70,8.62,5.70,-5.69,-5.66,-5.21,2.93,2.93,2.92
205.23,8.60,5.70,8.59,5.70,-5.70,-5.66,-5.28,2.90,2.89,2.90
207.28,8.56,5.69,8.56,5.70,-5.70,-5.66,-5.35,2.86,2.86,2.87
209.35,8.53,5.70,8.53,5.70,-5.71,-5.66,-5.42,2.82,2.82,2.83
211.44,8.50,5.70,8.50,5.70,-5.71,-5.66,-5.49,2.79,2.79,2.80
213.56,8.47,5.69,8.47,5.70,-5.70,-5.66,-5.56,2.77,2.76,2.78
215.69,8.44,5.69,8.44,5.69,-5.70,-5.65,-5.62,2.74,2.74,2.75
217.85,8.41,5.69,8.41,5.70,-5.70,-5.64,-5.69,2.71,2.72,2.72
220.03,8.39,5.70,8.39,5.70,-5.69,-5.63,-5.76,2.70,2.69,2.69
222.23,8.36,5.70,8.36,5.70,-5.69,-5.62,-5.82,2.67,2.67,2.66
224.45,8.33,5.68,8.33,5.69,-5.68,-5.61,-5.88,2.65,2.64,2.65
226.70,8.29,5.67,8.29,5.67,-5.68,-5.60,-5.94,2.61,2.61,2.62
228.96,8.26,5.65,8.26,5.66,-5.68,-5.59,-5.99,2.58,2.59,2.61
231.25,8.24,5.65,8.24,5.65,-5.67,-5.57,-6.04,2.57,2.57,2.59
233.57,8.23,5.66,8.22,5.66,-5.66,-5.55,-6.08,2.57,2.57,2.57
235.90,8.20,5.64,8.20,5.65,-5.64,-5.54,-6.11,2.56,2.56,2.56
238.26,8.18,5.65,8.18,5.64,-5.62,-5.52,-6.14,2.56,2.55,2.53
240.64,8.14,5.60,8.14,5.61,-5.60,-5.49,-6.16,2.54,2.54,2.54
243.05,8.10,5.58,8.10,5.58,-5.57,-5.47,-6.17,2.53,2.53,2.52
245.48,8.05,5.54,8.05,5.54,-5.54,-5.45,-6.18,2.51,2.51,2.51
247.93,7.99,5.49,7.99,5.49,-5.50,-5.42,-6.18,2.49,2.49,2.50
250.41,7.95,5.44,7.94,5.45,-5.47,-5.40,-6.17,2.48,2.48,2.51
252.92,7.90,5.40,7.91,5.41,-5.43,-5.37,-6.15,2.47,2.48,2.50
255.45,7.88,5.39,7.88,5.39,-5.40,-5.34,-6.12,2.48,2.48,2.49
258.00,7.86,5.37,7.86,5.37,-5.36,-5.31,-6.08,2.50,2.49,2.49
260.58,7.83,5.34,7.83,5.34,-5.33,-5.28,-6.04,2.50,2.50,2.49
263.19,7.80,5.31,7.79,5.31,-5.29,-5.25,-5.98,2.51,2.50,2.49
265.82,7.74,5.26,7.75,5.27,-5.26,-5.21,-5.93,2.48,2.49,2.48
268.48,7.70,5.22,7.70,5.22,-5.23,-5.18,-5.86,2.47,2.47,2.48
271.16,7.66,5.18,7.65,5.18,-5.19,-5.14,-5.79,2.47,2.46,2.48
273.87,7.61,5.13,7.62,5.14,-5.16,-5.11,-5.71,2.45,2.46,2.48
276.61,7.58,5.10,7.58,5.11,-5.12,-5.07,-5.63,2.46,2.46,2.48
279.38,7.55,5.09,7.55,5.09,-5.08,-5.03,-5.54,2.47,2.47,2.46
282.17,7.52,5.06,7.52,5.05,-5.04,-4.99,-5.45,2.48,2.47,2.46
284.99,7.48,5.01,7.47,5.01,-5.00,-4.95,-5.35,2.48,2.47,2.47
287.84,7.42,4.94,7.43,4.96,-4.96,-4.90,-5.26,2.46,2.47,2.48
290.72,7.38,4.91,7.38,4.91,-4.91,-4.86,-5.16,2.47,2.47,2.47
293.63,7.34,4.86,7.34,4.86,-4.86,-4.82,-5.06,2.48,2.48,2.48
296.57,7.30,4.81,7.29,4.81,-4.81,-4.77,-4.95,2.49,2.49,2.49
299.53,7.24,4.75,7.24,4.75,-4.75,-4.72,-4.85,2.49,2.49,2.49
302.53,7.19,4.68,7.19,4.69,-4.70,-4.68,-4.75,2.49,2.49,2.51
305.55,7.14,4.64,7.14,4.64,-4.65,-4.63,-4.65,2.49,2.49,2.50
308.61,7.10,4.59,7.10,4.59,-4.59,-4.58,-4.55,2.51,2.50,2.51
311.69,7.05,4.53,7.05,4.54,-4.54,-4.53,-4.45,2.51,2.52,2.52
314.81,7.01,4.49,7.01,4.49,-4.48,-4.48,-4.35,2.53,2.53,2.52
317.96,6.96,4.43,6.96,4.43,-4.42,-4.43,-4.25,2.54,2.53,2.53
321.14,6.90,4.36,6.90,4.36,-4.37,-4.37,-4.15,2.53,2.53,2.54
324.35,6.84,4.30,6.84,4.30,-4.31,-4.32,-4.06,2.53,2.54,2.54
327.59,6.79,4.22,6.79,4.24,-4.25,-4.27,-3.97,2.54,2.54,2.57
330.87,6.75,4.19,6.75,4.19,-4.19,-4.21,-3.88,2.56,2.56,2.56
334.18,6.70,4.13,6.70,4.13,-4.13,-4.16,-3.79,2.57,2.57,2.57
337.52,6.65,4.08,6.65,4.07,-4.07,-4.10,-3.71,2.58,2.58,2.57
340.90,6.59,4.00,6.59,4.00,-4.01,-4.04,-3.62,2.58,2.58,2.59
344.30,6.52,3.92,6.53,3.94,-3.94,-3.99,-3.55,2.58,2.59,2.60
347.75,6.48,3.88,6.47,3.87,-3.88,-3.93,-3.47,2.60,2.60,2.60
351.23,6.42,3.82,6.42,3.81,-3.81,-3.87,-3.39,2.61,2.61,2.60
354.74,6.36,3.73,6.36,3.75,-3.73,-3.81,-3.32,2.63,2.63,2.63
358.28,6.29,3.67,6.29,3.67,-3.66,-3.75,-3.25,2.63,2.63,2.62
361.87,6.22,3.59,6.22,3.59,-3.59,-3.69,-3.19,2.63,2.63,2.63
365.49,6.14,3.50,6.15,3.51,-3.52,-3.63,-3.12,2.62,2.63,2.64
369.14,6.08,3.42,6.08,3.43,-3.45,-3.57,-3.06,2.63,2.64,2.66
372.83,6.03,3.37,6.03,3.37,-3.38,-3.51,-3.00,2.65,2.65,2.66
376.56,5.98,3.32,5.97,3.31,-3.31,-3.44,-2.95,2.67,2.67,2.66
380.33,5.92,3.25,5.92,3.25,-3.24,-3.38,-2.89,2.68,2.68,2.67
384.13,5.86,3.17,5.86,3.18,-3.18,-3.32,-2.84,2.68,2.68,2.69
387.97,5.81,3.12,5.81,3.12,-3.12,-3.25,-2.79,2.69,2.69,2.69
391.85,5.75,3.05,5.75,3.06,-3.06,-3.19,-2.74,2.69,2.69,2.70
395.77,5.71,3.00,5.71,3.00,-3.01,-3.13,-2.70,2.70,2.70,2.71
399.73,5.67,2.95,5.67,2.95,-2.95,-3.06,-2.65,2.72,2.72,2.72
403.72,5.63,2.88,5.63,2.90,-2.90,-2.99,-2.61,2.73,2.73,2.75
407.76,5.59,2.85,5.59,2.85,-2.85,-2.93,-2.57,2.74,2.74,2.74
411.84,5.55,2.80,5.55,2.80,-2.80,-2.86,-2.53,2.75,2.75,2.75
415.96,5.51,2.74,5.51,2.75,-2.75,-2.80,-2.49,2.76,2.76,2.77
420.12,5.47,2.70,5.47,2.70,-2.70,-2.73,-2.45,2.77,2.77,2.77
424.32,5.43,2.65,5.43,2.65,-2.65,-2.66,-2.42,2.78,2.78,2.78
428.56,5.39,2.59,5.39,2.60,-2.60,-2.59,-2.38,2.79,2.79,2.80
432.85,5.35,2.54,5.35,2.55,-2.55,-2.53,-2.35,2.80,2.80,2.81
437.18,5.30,2.50,5.30,2.50,-2.50,-2.46,-2.31,2.80,2.80,2.80
441.55,5.25,2.44,5.25,2.45,-2.45,-2.39,-2.27,2.80,2.80,2.81
445.96,5.21,2.39,5.21,2.40,-2.39,-2.32,-2.24,2.81,2.82,2.82
450.42,5.17,2.34,5.17,2.34,-2.34,-2.25,-2.20,2.83,2.83,2.83
454.93,5.13,2.29,5.13,2.29,-2.28,-2.18,-2.17,2.85,2.85,2.84
459.48,5.08,2.23,5.08,2.23,-2.22,-2.11,-2.13,2.86,2.86,2.85
464.07,5.02,2.15,5.02,2.16,-2.16,-2.04,-2.09,2.86,2.86,2.87
468.71,4.96,2.08,4.96,2.09,-2.10,-1.97,-2.05,2.86,2.86,2.88
473.40,4.90,2.02,4.90,2.02,-2.03,-1.90,-2.01,2.87,2.87,2.88
478.13,4.85,1.96,4.85,1.96,-1.97,-1.83,-1.97,2.88,2.88,2.89
482.91,4.80,1.90,4.80,1.91,-1.90,-1.76,-1.93,2.90,2.90,2.90
487.74,4.75,1.84,4.75,1.84,-1.83,-1.69,-1.88,2.92,2.91,2.91
492.62,4.70,1.78,4.69,1.77,-1.77,-1.62,-1.83,2.93,2.92,2.92
497.55,4.62,1.69,4.63,1.70,-1.70,-1.54,-1.79,2.92,2.93,2.93
502.52,4.56,1.62,4.56,1.62,-1.62,-1.47,-1.73,2.94,2.94,2.94
507.55,4.50,1.54,4.50,1.55,-1.55,-1.40,-1.68,2.95,2.95,2.96
512.62,4.45,1.48,4.44,1.47,-1.48,-1.33,-1.62,2.97,2.97,2.97
517.75,4.38,1.39,4.38,1.40,-1.40,-1.26,-1.57,2.98,2.98,2.99
522.93,4.32,1.32,4.32,1.33,-1.33,-1.18,-1.51,2.99,2.99,3.00
528.16,4.26,1.25,4.26,1.25,-1.26,-1.11,-1.44,3.00,3.01,3.01
533.44,4.21,1.19,4.20,1.19,-1.18,-1.04,-1.38,3.03,3.02,3.02
