frequency,raw,error,smoothed,error_smoothed,equalization,parametric_eq,fixed_band_eq,equalized_raw,equalized_smoothed,target
20.00,-3.59,-13.46,-3.59,-13.46,13.46,13.07,5.82,9.88,9.87,9.87
20.20,-3.56,-13.42,-3.56,-13.42,13.42,13.09,5.97,9.86,9.86,9.86
20.40,-3.52,-13.37,-3.53,-13.37,13.37,13.11,6.12,9.85,9.85,9.85
20.61,-3.50,-13.33,-3.50,-13.33,13.33,13.13,6.27,9.84,9.84,9.84
20.81,-3.47,-13.29,-3.47,-13.29,13.29,13.14,6.42,9.82,9.82,9.82
21.02,-3.45,-13.25,-3.44,-13.25,13.25,13.15,6.58,9.80,9.81,9.81
21.23,-3.41,-13.20,-3.41,-13.21,13.21,13.15,6.75,9.80,9.80,9.80
21.44,-3.37,-13.18,-3.38,-13.17,13.17,13.16,6.92,9.79,9.79,9.81
21.66,-3.35,-13.13,-3.35,-13.13,13.13,13.16,7.09,9.78,9.78,9.78
21.87,-3.31,-13.10,-3.32,-13.09,13.09,13.16,7.27,9.78,9.77,9.78
22.09,-3.28,-13.05,-3.29,-13.05,13.05,13.15,7.46,9.77,9.77,9.76
22.31,-3.25,-13.02,-3.26,-13.02,13.02,13.15,7.64,9.76,9.76,9.76
22.54,-3.23,-12.98,-3.23,-12.98,12.98,13.14,7.84,9.75,9.75,9.75
22.76,-3.19,-12.94,-3.20,-12.94,12.94,13.13,8.04,9.75,9.75,9.75
22.99,-3.17,-12.90,-3.16,-12.91,12.91,13.12,8.24,9.74,9.74,9.74
23.22,-3.14,-12.86,-3.13,-12.87,12.87,13.10,8.45,9.73,9.74,9.73
23.45,-3.11,-12.84,-3.10,-12.83,12.83,13.08,8.67,9.73,9.73,9.74
23.69,-3.08,-12.80,-3.08,-12.80,12.80,13.07,8.89,9.72,9.73,9.72
23.92,-3.04,-12.76,-3.05,-12.77,12.77,13.04,9.12,9.72,9.72,9.71
24.16,-3.01,-12.74,-3.02,-12.73,12.73,13.02,9.35,9.72,9.72,9.72
24.40,-2.98,-12.70,-2.98,-12.70,12.70,13.00,9.59,9.71,9.71,9.72
24.65,-2.96,-12.67,-2.95,-12.67,12.67,12.97,9.83,9.71,9.71,9.72
24.89,-2.92,-12.64,-2.92,-12.63,12.63,12.94,10.08,9.71,9.71,9.72
25.14,-2.89,-12.60,-2.89,-12.60,12.60,12.92,10.34,9.71,9.71,9.70
25.39,-2.86,-12.57,-2.86,-12.57,12.57,12.89,10.60,9.71,9.71,9.70
25.65,-2.84,-12.54,-2.83,-12.54,12.54,12.85,10.86,9.70,9.70,9.70
25.91,-2.81,-12.50,-2.80,-12.51,12.51,12.82,11.13,9.70,9.70,9.70
26.16,-2.77,-12.48,-2.78,-12.48,12.48,12.79,11.41,9.70,9.70,9.71
26.43,-2.75,-12.45,-2.75,-12.45,12.45,12.75,11.68,9.70,9.70,9.70
26.69,-2.72,-12.42,-2.72,-12.42,12.42,12.72,11.97,9.70,9.70,9.70
26.96,-2.69,-12.39,-2.69,-12.39,12.39,12.68,12.25,9.71,9.70,9.70
27.23,-2.67,-12.36,-2.66,-12.36,12.36,12.64,12.53,9.70,9.70,9.70
27.50,-2.64,-12.33,-2.63,-12.34,12.34,12.61,12.81,9.70,9.70,9.70
27.77,-2.60,-12.31,-2.61,-12.31,12.31,12.57,13.09,9.71,9.70,9.70
28.05,-2.59,-12.29,-2.58,-12.29,12.29,12.53,13.37,9.70,9.71,9.70
28.33,-2.55,-12.26,-2.55,-12.26,12.26,12.49,13.64,9.70,9.71,9.71
28.62,-2.53,-12.23,-2.53,-12.23,12.23,12.45,13.90,9.71,9.71,9.70
28.90,-2.51,-12.22,-2.50,-12.21,12.21,12.41,14.14,9.70,9.70,9.71
29.19,-2.48,-12.18,-2.48,-12.18,12.18,12.37,14.37,9.70,9.70,9.71
29.48,-2.45,-12.16,-2.45,-12.15,12.15,12.33,14.59,9.70,9.70,9.71
29.78,-2.43,-12.13,-2.43,-12.13,12.13,12.29,14.78,9.70,9.70,9.70
30.08,-2.40,-12.09,-2.40,-12.10,12.10,12.25,14.94,9.70,9.69,9.70
30.38,-2.38,-12.06,-2.38,-12.07,12.07,12.21,15.08,9.69,9.69,9.69
30.68,-2.36,-12.04,-2.36,-12.04,12.04,12.17,15.19,9.69,9.69,9.68
30.99,-2.34,-12.01,-2.34,-12.01,12.01,12.12,15.26,9.68,9.68,9.68
31.30,-2.32,-11.99,-2.31,-11.99,11.99,12.08,15.30,9.67,9.67,9.67
31.61,-2.30,-11.96,-2.29,-11.96,11.96,12.04,15.31,9.66,9.66,9.67
31.93,-2.28,-11.92,-2.27,-11.93,11.93,12.00,15.28,9.66,9.66,9.65
32.24,-2.25,-11.91,-2.25,-11.90,11.90,11.96,15.23,9.65,9.65,9.65
32.57,-2.24,-11.87,-2.24,-11.88,11.88,11.92,15.14,9.64,9.64,9.64
32.89,-2.22,-11.85,-2.22,-11.85,11.85,11.88,15.03,9.63,9.63,9.63
33.22,-2.20,-11.82,-2.20,-11.82,11.82,11.84,14.89,9.63,9.62,9.63
33.55,-2.18,-11.80,-2.18,-11.79,11.79,11.80,14.73,9.62,9.62,9.62
33.89,-2.17,-11.77,-2.16,-11.77,11.77,11.76,14.55,9.60,9.61,9.60
34.23,-2.15,-11.73,-2.14,-11.74,11.74,11.73,14.37,9.59,9.60,9.59
34.57,-2.13,-11.71,-2.12,-11.70,11.70,11.69,14.17,9.58,9.59,9.58
34.92,-2.10,-11.66,-2.10,-11.67,11.67,11.65,13.96,9.58,9.58,9.57
35.27,-2.08,-11.66,-2.07,-11.64,11.64,11.61,13.75,9.56,9.56,9.58
35.62,-2.06,-11.61,-2.05,-11.61,11.61,11.57,13.53,9.55,9.55,9.55
35.97,-2.03,-11.58,-2.03,-11.57,11.57,11.54,13.32,9.53,9.54,9.55
36.33,-2.01,-11.54,-2.01,-11.53,11.53,11.50,13.10,9.52,9.52,9.53
36.70,-1.99,-11.49,-1.99,-11.50,11.50,11.46,12.89,9.51,9.50,9.50
37.06,-1.96,-11.45,-1.97,-11.46,11.46,11.43,12.68,9.49,9.49,9.48
37.43,-1.94,-11.41,-1.95,-11.42,11.42,11.39,12.48,9.47,9.47,9.47
37.81,-1.93,-11.37,-1.93,-11.38,11.38,11.36,12.28,9.45,9.45,9.45
38.19,-1.91,-11.32,-1.91,-11.34,11.34,11.32,12.08,9.43,9.42,9.42
38.57,-1.90,-11.30,-1.90,-11.30,11.30,11.29,11.89,9.40,9.40,9.40
38.95,-1.88,-11.27,-1.88,-11.25,11.25,11.25,11.71,9.37,9.38,9.38
39.34,-1.86,-11.22,-1.86,-11.21,11.21,11.22,11.54,9.34,9.35,9.35
39.74,-1.85,-11.17,-1.84,-11.17,11.17,11.18,11.37,9.32,9.33,9.32
40.14,-1.83,-11.13,-1.82,-11.12,11.12,11.15,11.21,9.30,9.30,9.30
40.54,-1.81,-11.09,-1.80,-11.08,11.08,11.12,11.05,9.27,9.28,9.28
40.94,-1.79,-11.03,-1.78,-11.04,11.04,11.08,10.91,9.25,9.25,9.25
41.35,-1.77,-10.99,-1.76,-10.99,10.99,11.05,10.77,9.22,9.23,9.23
41.76,-1.73,-10.93,-1.74,-10.94,10.94,11.01,10.64,9.21,9.20,9.19
42.18,-1.72,-10.90,-1.72,-10.90,10.90,10.98,10.51,9.18,9.18,9.18
42.60,-1.70,-10.84,-1.70,-10.85,10.85,10.94,10.40,9.15,9.15,9.15
43.03,-1.68,-10.80,-1.68,-10.80,10.80,10.91,10.29,9.12,9.12,9.13
43.46,-1.66,-10.75,-1.65,-10.75,10.75,10.88,10.19,9.09,9.10,9.09
43.90,-1.64,-10.70,-1.63,-10.70,10.70,10.84,10.09,9.06,9.07,9.07
44.33,-1.62,-10.65,-1.61,-10.65,10.65,10.81,10.00,9.03,9.04,9.03
44.78,-1.60,-10.60,-1.59,-10.60,10.60,10.77,9.92,9.00,9.00,9.01
45.23,-1.58,-10.56,-1.57,-10.54,10.54,10.73,9.85,8.97,8.97,8.98
45.68,-1.56,-10.49,-1.55,-10.49,10.49,10.70,9.78,8.93,8.93,8.93
46.13,-1.54,-10.43,-1.54,-10.43,10.43,10.66,9.72,8.89,8.89,8.90
46.60,-1.52,-10.37,-1.52,-10.37,10.37,10.62,9.67,8.86,8.85,8.86
47.06,-1.50,-10.31,-1.50,-10.31,10.31,10.58,9.62,8.82,8.81,8.82
47.53,-1.48,-10.26,-1.48,-10.25,10.25,10.54,9.58,8.78,8.77,8.78
48.01,-1.47,-10.19,-1.47,-10.19,10.19,10.50,9.55,8.73,8.72,8.72
48.49,-1.46,-10.14,-1.45,-10.13,10.13,10.46,9.52,8.68,8.68,8.68
48.97,-1.44,-10.06,-1.44,-10.07,10.07,10.42,9.49,8.63,8.63,8.63
49.46,-1.43,-10.01,-1.42,-10.01,10.01,10.38,9.47,8.58,8.59,8.59
49.96,-1.42,-9.94,-1.41,-9.95,9.95,10.33,9.46,8.53,8.54,8.52
50.46,-1.41,-9.90,-1.40,-9.89,9.89,10.29,9.45,8.48,8.49,8.49
50.96,-1.39,-9.83,-1.38,-9.83,9.83,10.24,9.44,8.45,8.45,8.45
51.47,-1.38,-9.78,-1.37,-9.77,9.77,10.19,9.44,8.40,8.40,8.40
51.99,-1.36,-9.70,-1.36,-9.72,9.72,10.14,9.44,8.36,8.35,8.34
52.51,-1.35,-9.65,-1.36,-9.66,9.66,10.09,9.44,8.32,8.30,8.31
53.03,-1.35,-9.61,-1.35,-9.61,9.61,10.04,9.45,8.26,8.26,8.27
53.56,-1.34,-9.56,-1.34,-9.55,9.55,9.98,9.45,8.22,8.21,8.22
54.10,-1.34,-9.50,-1.34,-9.50,9.50,9.93,9.46,8.17,8.17,8.16
54.64,-1.33,-9.45,-1.33,-9.45,9.45,9.87,9.47,8.13,8.12,8.12
55.18,-1.33,-9.39,-1.33,-9.40,9.40,9.81,9.47,8.08,8.08,8.07
55.74,-1.32,-9.33,-1.32,-9.36,9.36,9.75,9.48,8.04,8.03,8.02
56.29,-1.32,-9.30,-1.32,-9.31,9.31,9.69,9.48,7.99,7.99,7.98
56.86,-1.32,-9.25,-1.31,-9.25,9.25,9.63,9.48,7.94,7.94,7.94
57.42,-1.32,-9.20,-1.31,-9.20,9.20,9.56,9.48,7.89,7.89,7.88
58.00,-1.31,-9.14,-1.30,-9.14,9.14,9.50,9.48,7.84,7.84,7.84
58.58,-1.30,-9.09,-1.29,-9.08,9.08,9.43,9.46,7.79,7.79,7.80
59.16,-1.30,-9.06,-1.28,-9.02,9.02,9.36,9.45,7.72,7.74,7.76
59.76,-1.28,-8.99,-1.26,-8.95,8.95,9.29,9.42,7.68,7.69,7.71
60.35,-1.26,-8.90,-1.25,-8.88,8.88,9.22,9.39,7.63,7.63,7.65
60.96,-1.24,-8.82,-1.23,-8.81,8.81,9.14,9.35,7.57,7.57,7.59
61.57,-1.22,-8.73,-1.21,-8.73,8.73,9.07,9.31,7.51,7.52,7.51
62.18,-1.19,-8.63,-1.19,-8.65,8.65,8.99,9.25,7.46,7.46,7.45
62.80,-1.18,-8.56,-1.17,-8.56,8.56,8.91,9.19,7.39,7.39,7.38
63.43,-1.15,-8.46,-1.15,-8.48,8.48,8.83,9.12,7.34,7.33,7.32
64.07,-1.13,-8.38,-1.13,-8.40,8.40,8.75,9.04,7.27,7.27,7.26
64.71,-1.11,-8.30,-1.11,-8.31,8.31,8.66,8.95,7.21,7.21,7.20
65.35,-1.09,-8.22,-1.09,-8.23,8.23,8.58,8.86,7.14,7.14,7.14
66.01,-1.07,-8.14,-1.07,-8.15,8.15,8.49,8.76,7.08,7.08,7.08
66.67,-1.05,-8.07,-1.05,-8.07,8.07,8.40,8.65,7.02,7.01,7.02
67.33,-1.03,-7.97,-1.04,-7.99,7.99,8.32,8.53,6.97,6.95,6.95
68.01,-1.02,-7.91,-1.03,-7.92,7.92,8.23,8.41,6.90,6.89,6.89
68.69,-1.02,-7.84,-1.02,-7.84,7.84,8.14,8.29,6.83,6.82,6.83
69.37,-1.02,-7.78,-1.01,-7.77,7.77,8.04,8.16,6.76,6.76,6.77
70.07,-1.01,-7.70,-1.01,-7.70,7.70,7.95,8.03,6.69,6.69,6.70
70.77,-1.00,-7.62,-1.00,-7.62,7.62,7.86,7.89,6.63,6.62,6.63
71.48,-1.00,-7.56,-0.99,-7.55,7.55,7.76,7.75,6.55,6.56,6.56
72.19,-0.99,-7.47,-0.98,-7.47,7.47,7.67,7.61,6.49,6.49,6.49
72.91,-0.99,-7.40,-0.97,-7.40,7.40,7.57,7.47,6.41,6.42,6.41
73.64,-0.98,-7.32,-0.96,-7.32,7.32,7.48,7.33,6.34,6.36,6.35
74.38,-0.97,-7.25,-0.95,-7.24,7.24,7.38,7.19,6.27,6.29,6.28
75.12,-0.95,-7.17,-0.93,-7.16,7.16,7.28,7.05,6.21,6.23,6.22
75.87,-0.92,-7.08,-0.91,-7.07,7.07,7.19,6.91,6.16,6.16,6.16
76.63,-0.90,-6.99,-0.89,-6.99,6.99,7.09,6.77,6.09,6.10,6.09
77.40,-0.87,-6.90,-0.86,-6.90,6.90,6.99,6.63,6.03,6.04,6.04
78.17,-0.84,-6.80,-0.84,-6.81,6.81,6.89,6.50,5.98,5.97,5.96
78.95,-0.82,-6.73,-0.81,-6.72,6.72,6.79,6.37,5.91,5.91,5.92
79.74,-0.79,-6.64,-0.79,-6.64,6.64,6.70,6.24,5.85,5.85,5.85
80.54,-0.76,-6.55,-0.76,-6.55,6.55,6.60,6.11,5.80,5.79,5.79
81.35,-0.74,-6.46,-0.74,-6.47,6.47,6.50,5.99,5.73,5.73,5.73
82.16,-0.72,-6.39,-0.72,-6.39,6.39,6.40,5.87,5.67,5.67,5.68
82.98,-0.70,-6.30,-0.70,-6.30,6.30,6.30,5.75,5.61,5.60,5.61
83.81,-0.68,-6.22,-0.69,-6.23,6.23,6.20,5.64,5.55,5.54,5.54
84.65,-0.67,-6.14,-0.68,-6.15,6.15,6.11,5.53,5.49,5.47,5.47
85.50,-0.66,-6.06,-0.67,-6.08,6.08,6.01,5.43,5.42,5.41,5.41
86.35,-0.66,-6.00,-0.67,-6.01,6.01,5.91,5.32,5.35,5.34,5.34
87.22,-0.66,-5.93,-0.66,-5.94,5.94,5.81,5.22,5.29,5.28,5.28
88.09,-0.67,-5.87,-0.67,-5.88,5.88,5.72,5.13,5.21,5.21,5.21
88.97,-0.68,-5.82,-0.67,-5.81,5.81,5.62,5.04,5.14,5.14,5.14
89.86,-0.68,-5.75,-0.68,-5.75,5.75,5.52,4.95,5.07,5.07,5.07
90.76,-0.68,-5.68,-0.68,-5.68,5.68,5.43,4.87,5.01,5.00,5.00
91.66,-0.68,-5.60,-0.69,-5.61,5.61,5.33,4.79,4.94,4.93,4.92
92.58,-0.69,-5.55,-0.69,-5.54,5.54,5.24,4.71,4.86,4.86,4.86
93.51,-0.71,-5.50,-0.69,-5.47,5.47,5.14,4.63,4.76,4.78,4.79
94.44,-0.71,-5.42,-0.68,-5.39,5.39,5.05,4.56,4.69,4.71,4.72
95.39,-0.70,-5.33,-0.68,-5.31,5.31,4.96,4.50,4.62,4.64,4.64
96.34,-0.69,-5.25,-0.67,-5.23,5.23,4.87,4.43,4.54,4.56,4.56
97.30,-0.67,-5.16,-0.65,-5.14,5.14,4.77,4.37,4.48,4.49,4.49
98.28,-0.65,-5.05,-0.63,-5.05,5.05,4.68,4.31,4.40,4.41,4.41
99.26,-0.62,-4.95,-0.61,-4.95,4.95,4.59,4.25,4.34,4.34,4.33
100.25,-0.59,-4.84,-0.59,-4.86,4.86,4.50,4.20,4.27,4.27,4.26
101.25,-0.56,-4.75,-0.56,-4.76,4.76,4.41,4.15,4.20,4.20,4.19
102.27,-0.53,-4.65,-0.53,-4.66,4.66,4.33,4.10,4.13,4.13,4.13
103.29,-0.51,-4.56,-0.50,-4.56,4.56,4.24,4.05,4.05,4.06,4.05
104.32,-0.49,-4.47,-0.47,-4.46,4.46,4.15,4.01,3.97,3.99,3.99
105.37,-0.45,-4.37,-0.45,-4.37,4.37,4.07,3.96,3.92,3.92,3.92
106.42,-0.42,-4.27,-0.43,-4.28,4.28,3.98,3.92,3.86,3.85,3.86
107.48,-0.39,-4.17,-0.41,-4.19,4.19,3.89,3.88,3.81,3.78,3.78
108.56,-0.36,-4.07,-0.40,-4.11,4.11,3.81,3.83,3.75,3.71,3.71
109.64,-0.34,-3.98,-0.38,-4.02,4.02,3.73,3.79,3.69,3.64,3.65
110.74,-0.35,-3.92,-0.37,-3.94,3.94,3.64,3.75,3.59,3.57,3.57
111.85,-0.36,-3.86,-0.36,-3.86,3.86,3.56,3.71,3.50,3.50,3.50
112.97,-0.36,-3.79,-0.35,-3.77,3.77,3.48,3.67,3.42,3.43,3.44
114.10,-0.37,-3.73,-0.33,-3.69,3.69,3.40,3.63,3.32,3.36,3.36
115.24,-0.36,-3.63,-0.32,-3.60,3.60,3.32,3.58,3.25,3.28,3.28
116.39,-0.35,-3.55,-0.30,-3.52,3.52,3.24,3.54,3.17,3.21,3.20
117.55,-0.32,-3.45,-0.29,-3.43,3.43,3.16,3.49,3.12,3.14,3.13
118.73,-0.29,-3.35,-0.27,-3.34,3.34,3.08,3.44,3.06,3.07,3.06
119.92,-0.25,-3.24,-0.25,-3.25,3.25,3.01,3.39,3.00,3.01,3.00
121.12,-0.21,-3.14,-0.22,-3.16,3.16,2.93,3.34,2.95,2.94,2.94
122.33,-0.19,-3.05,-0.19,-3.06,3.06,2.85,3.29,2.88,2.87,2.87
123.55,-0.16,-2.96,-0.17,-2.96,2.96,2.78,3.23,2.81,2.80,2.81
124.79,-0.13,-2.86,-0.14,-2.87,2.87,2.70,3.17,2.74,2.73,2.74
126.03,-0.09,-2.76,-0.11,-2.77,2.77,2.63,3.11,2.69,2.66,2.67
127.29,-0.08,-2.68,-0.09,-2.68,2.68,2.55,3.04,2.61,2.60,2.60
128.57,-0.06,-2.58,-0.06,-2.59,2.59,2.48,2.97,2.54,2.53,2.53
129.85,-0.03,-2.49,-0.04,-2.50,2.50,2.41,2.90,2.48,2.46,2.46
131.15,-0.02,-2.40,-0.02,-2.41,2.41,2.34,2.83,2.40,2.39,2.39
132.46,-0.01,-2.33,0.01,-2.32,2.32,2.27,2.75,2.32,2.33,2.33
133.79,0.01,-2.24,0.03,-2.23,2.23,2.19,2.68,2.25,2.26,2.25
135.12,0.03,-2.16,0.05,-2.14,2.14,2.12,2.60,2.18,2.19,2.19
136.48,0.04,-2.09,0.08,-2.05,2.05,2.05,2.51,2.10,2.13,2.13
137.84,0.08,-1.98,0.10,-1.96,1.96,1.98,2.43,2.05,2.06,2.06
139.22,0.11,-1.88,0.12,-1.88,1.88,1.92,2.34,1.99,2.00,2.00
140.61,0.14,-1.79,0.15,-1.79,1.79,1.85,2.25,1.94,1.94,1.94
142.02,0.19,-1.68,0.17,-1.71,1.71,1.78,2.17,1.90,1.88,1.87
143.44,0.20,-1.61,0.19,-1.63,1.63,1.71,2.07,1.83,1.82,1.82
144.87,0.24,-1.52,0.22,-1.55,1.55,1.64,1.98,1.79,1.76,1.77
146.32,0.25,-1.45,0.24,-1.47,1.47,1.58,1.89,1.72,1.71,1.70
147.78,0.27,-1.38,0.26,-1.39,1.39,1.51,1.79,1.67,1.65,1.65
149.26,0.28,-1.31,0.28,-1.32,1.32,1.44,1.70,1.60,1.60,1.59
150.75,0.30,-1.23,0.30,-1.24,1.24,1.38,1.60,1.55,1.54,1.54
152.26,0.31,-1.18,0.32,-1.17,1.17,1.31,1.51,1.48,1.49,1.49
153.78,0.34,-1.09,0.34,-1.09,1.09,1.25,1.41,1.44,1.43,1.43
155.32,0.35,-1.03,0.36,-1.01,1.01,1.18,1.31,1.37,1.38,1.38
156.88,0.37,-0.95,0.39,-0.93,0.93,1.12,1.21,1.31,1.32,1.33
158.44,0.38,-0.88,0.42,-0.84,0.84,1.05,1.12,1.23,1.27,1.27
160.03,0.43,-0.78,0.46,-0.75,0.75,0.99,1.02,1.19,1.21,1.22
161.63,0.46,-0.69,0.49,-0.66,0.66,0.92,0.92,1.13,1.16,1.16
163.24,0.51,-0.58,0.53,-0.57,0.57,0.86,0.82,1.08,1.10,1.10
164.88,0.57,-0.47,0.57,-0.47,0.47,0.80,0.72,1.04,1.04,1.04
166.53,0.62,-0.35,0.61,-0.37,0.37,0.73,0.63,1.00,0.99,0.98
168.19,0.67,-0.26,0.66,-0.27,0.27,0.67,0.53,0.95,0.93,0.94
169.87,0.73,-0.14,0.70,-0.17,0.17,0.60,0.43,0.91,0.87,0.87
171.57,0.77,-0.04,0.75,-0.07,0.07,0.54,0.33,0.84,0.81,0.81
173.29,0.80,0.04,0.79,0.03,-0.03,0.48,0.23,0.77,0.76,0.76
175.02,0.83,0.13,0.83,0.13,-0.13,0.41,0.14,0.70,0.70,0.70
176.77,0.86,0.22,0.87,0.23,-0.23,0.35,0.04,0.64,0.65,0.65
178.54,0.88,0.29,0.91,0.32,-0.32,0.29,-0.06,0.57,0.59,0.59
180.32,0.92,0.40,0.94,0.41,-0.41,0.22,-0.16,0.52,0.53,0.52
182.13,0.95,0.47,0.97,0.49,-0.49,0.16,-0.26,0.46,0.48,0.48
183.95,1.01,0.59,1.00,0.58,-0.58,0.10,-0.35,0.44,0.42,0.43
185.79,1.05,0.69,1.03,0.66,-0.66,0.03,-0.45,0.40,0.37,0.37
187.65,1.07,0.76,1.06,0.74,-0.74,-0.03,-0.55,0.33,0.32,0.32
189.52,1.10,0.84,1.09,0.82,-0.82,-0.10,-0.65,0.28,0.27,0.27
191.42,1.11,0.89,1.12,0.90,-0.90,-0.16,-0.75,0.21,0.22,0.22
193.33,1.13,0.96,1.15,0.98,-0.98,-0.22,-0.85,0.15,0.17,0.17
195.27,1.16,1.05,1.18,1.06,-1.06,-0.29,-0.95,0.10,0.12,0.12
197.22,1.19,1.13,1.21,1.14,-1.14,-0.35,-1.04,0.06,0.08,0.06
199.19,1.23,1.21,1.24,1.21,-1.21,-0.42,-1.14,0.02,0.03,0.03
201.18,1.27,1.30,1.27,1.28,-1.28,-0.48,-1.24,-0.01,-0.01,-0.02
203.19,1.31,1.37,1.30,1.35,-1.35,-0.55,-1.34,-0.04,-0.05,-0.06
205.23,1.35,1.44,1.33,1.42,-1.42,-0.62,-1.44,-0.07,-0.09,-0.09
207.28,1.38,1.51,1.37,1.50,-1.50,-0.68,-1.53,-0.11,-0.13,-0.13
209.35,1.40,1.57,1.40,1.57,-1.57,-0.75,-1.63,-0.17,-0.17,-0.16
211.44,1.42,1.63,1.44,1.64,-1.64,-0.82,-1.73,-0.22,-0.20,-0.20
213.56,1.46,1.69,1.48,1.72,-1.72,-0.88,-1.82,-0.25,-0.24,-0.23
215.69,1.50,1.77,1.52,1.79,-1.79,-0.95,-1.92,-0.28,-0.27,-0.27
217.85,1.56,1.87,1.56,1.86,-1.86,-1.02,-2.01,-0.29,-0.30,-0.30
220.03,1.58,1.92,1.60,1.93,-1.93,-1.09,-2.10,-0.34,-0.33,-0.34
222.23,1.62,1.99,1.64,2.00,-2.00,-1.16,-2.19,-0.38,-0.36,-0.37
224.45,1.68,2.08,1.68,2.07,-2.07,-1.23,-2.28,-0.39,-0.39,-0.39
226.70,1.73,2.16,1.73,2.15,-2.15,-1.30,-2.36,-0.41,-0.42,-0.43
228.96,1.80,2.24,1.78,2.22,-2.22,-1.37,-2.45,-0.42,-0.44,-0.44
231.25,1.82,2.29,1.83,2.30,-2.30,-1.44,-2.53,-0.47,-0.47,-0.47
233.57,1.86,2.35,1.89,2.37,-2.37,-1.52,-2.61,-0.51,-0.49,-0.49
235.90,1.93,2.44,1.94,2.45,-2.45,-1.59,-2.68,-0.51,-0.51,-0.51
238.26,1.98,2.52,2.00,2.52,-2.52,-1.66,-2.76,-0.54,-0.52,-0.54
240.64,2.05,2.59,2.05,2.59,-2.59,-1.74,-2.83,-0.54,-0.54,-0.53
243.05,2.11,2.67,2.11,2.66,-2.66,-1.81,-2.90,-0.55,-0.55,-0.55
245.48,2.17,2.74,2.17,2.73,-2.73,-1.89,-2.96,-0.56,-0.56,-0.57
247.93,2.23,2.82,2.22,2.80,-2.80,-1.96,-3.02,-0.56,-0.57,-0.58
250.41,2.28,2.87,2.28,2.86,-2.86,-2.04,-3.08,-0.58,-0.58,-0.58
252.92,2.34,2.93,2.34,2.93,-2.93,-2.12,-3.13,-0.58,-0.59,-0.59
255.45,2.39,2.99,2.40,3.00,-3.00,-2.20,-3.19,-0.60,-0.60,-0.60
258.00,2.45,3.06,2.45,3.06,-3.06,-2.28,-3.24,-0.61,-0.61,-0.60
260.58,2.51,3.12,2.51,3.12,-3.12,-2.36,-3.28,-0.61,-0.61,-0.61
263.19,2.56,3.18,2.57,3.18,-3.18,-2.44,-3.33,-0.62,-0.62,-0.61
265.82,2.62,3.25,2.62,3.25,-3.25,-2.53,-3.37,-0.62,-0.62,-0.62
268.48,2.66,3.29,2.68,3.31,-3.31,-2.61,-3.41,-0.64,-0.63,-0.63
271.16,2.72,3.35,2.73,3.37,-3.37,-2.69,-3.44,-0.64,-0.64,-0.63
273.87,2.80,3.44,2.79,3.43,-3.43,-2.78,-3.48,-0.62,-0.64,-0.64
276.61,2.84,3.49,2.84,3.49,-3.49,-2.87,-3.51,-0.64,-0.64,-0.64
279.38,2.90,3.57,2.90,3.55,-3.55,-2.95,-3.55,-0.64,-0.65,-0.66
282.17,2.95,3.62,2.96,3.61,-3.61,-3.04,-3.58,-0.66,-0.65,-0.66
284.99,3.00,3.66,3.02,3.67,-3.67,-3.13,-3.61,-0.67,-0.65,-0.65
287.84,3.08,3.74,3.08,3.73,-3.73,-3.22,-3.65,-0.65,-0.65,-0.65
290.72,3.13,3.79,3.14,3.79,-3.79,-3.31,-3.68,-0.66,-0.65,-0.66
293.63,3.20,3.85,3.20,3.85,-3.85,-3.40,-3.71,-0.65,-0.65,-0.65
296.57,3.26,3.91,3.26,3.91,-3.91,-3.50,-3.75,-0.65,-0.65,-0.65
299.53,3.32,3.97,3.33,3.97,-3.97,-3.59,-3.78,-0.65,-0.64,-0.64
302.53,3.38,4.02,3.39,4.03,-4.03,-3.68,-3.82,-0.65,-0.64,-0.63
305.55,3.45,4.09,3.45,4.09,-4.09,-3.78,-3.85,-0.63,-0.64,-0.64
308.61,3.52,4.15,3.52,4.15,-4.15,-3.88,-3.89,-0.62,-0.63,-0.63
311.69,3.59,4.22,3.58,4.21,-4.21,-3.97,-3.94,-0.61,-0.62,-0.62
314.81,3.64,4.27,3.65,4.27,-4.27,-4.07,-3.98,-0.63,-0.62,-0.62
317.96,3.70,4.32,3.72,4.33,-4.33,-4.17,-4.03,-0.63,-0.61,-0.62
321.14,3.77,4.38,3.78,4.39,-4.39,-4.27,-4.07,-0.62,-0.61,-0.60
324.35,3.84,4.45,3.85,4.45,-4.45,-4.37,-4.13,-0.60,-0.60,-0.61
327.59,3.93,4.52,3.91,4.51,-4.51,-4.47,-4.18,-0.57,-0.60,-0.59
330.87,3.98,4.58,3.98,4.57,-4.57,-4.57,-4.24,-0.59,-0.59,-0.59
334.18,4.04,4.63,4.05,4.63,-4.63,-4.67,-4.30,-0.59,-0.58,-0.59
337.52,4.11,4.70,4.11,4.69,-4.69,-4.78,-4.36,-0.58,-0.58,-0.58
340.90,4.18,4.75,4.18,4.75,-4.75,-4.88,-4.43,-0.57,-0.57,-0.57
344.30,4.25,4.82,4.25,4.81,-4.81,-4.98,-4.50,-0.56,-0.56,-0.56
347.75,4.31,4.87,4.32,4.88,-4.88,-5.08,-4.58,-0.56,-0.56,-0.56
351.23,4.37,4.94,4.39,4.94,-4.94,-5.18,-4.65,-0.57,-0.55,-0.56
354.74,4.44,4.98,4.46,5.01,-5.01,-5.29,-4.74,-0.56,-0.54,-0.53
358.28,4.53,5.07,4.53,5.07,-5.07,-5.39,-4.82,-0.53,-0.54,-0.54
361.87,4.60,5.14,4.60,5.13,-5.13,-5.49,-4.91,-0.53,-0.53,-0.53
365.49,4.67,5.20,4.67,5.20,-5.20,-5.59,-5.00,-0.52,-0.52,-0.53
369.14,4.74,5.26,4.74,5.26,-5.26,-5.69,-5.10,-0.51,-0.52,-0.51
372.83,4.80,5.31,4.81,5.32,-5.32,-5.79,-5.20,-0.52,-0.51,-0.50
376.56,4.89,5.40,4.88,5.38,-5.38,-5.88,-5.30,-0.49,-0.50,-0.51
380.33,4.96,5.47,4.95,5.44,-5.44,-5.98,-5.41,-0.48,-0.49,-0.50
384.13,5.02,5.51,5.02,5.50,-5.50,-6.07,-5.52,-0.48,-0.48,-0.48
387.97,5.07,5.55,5.09,5.56,-5.56,-6.16,-5.63,-0.49,-0.48,-0.48
391.85,5.14,5.61,5.15,5.62,-5.62,-6.25,-5.75,-0.48,-0.47,-0.47
395.77,5.22,5.69,5.22,5.68,-5.68,-6.34,-5.87,-0.45,-0.46,-0.46
399.73,5.29,5.75,5.29,5.74,-5.74,-6.43,-5.99,-0.44,-0.45,-0.45
403.72,5.34,5.77,5.35,5.79,-5.79,-6.51,-6.11,-0.45,-0.44,-0.43
407.76,5.40,5.83,5.42,5.85,-5.85,-6.58,-6.24,-0.44,-0.43,-0.43
411.84,5.47,5.90,5.48,5.91,-5.91,-6.66,-6.36,-0.43,-0.42,-0.42
415.96,5.54,5.95,5.55,5.96,-5.96,-6.73,-6.49,-0.42,-0.41,-0.40
420.12,5.61,6.02,5.61,6.02,-6.02,-6.79,-6.62,-0.40,-0.40,-0.41
424.32,5.68,6.08,5.68,6.07,-6.07,-6.86,-6.74,-0.39,-0.40,-0.40
428.56,5.74,6.13,5.74,6.13,-6.13,-6.91,-6.87,-0.38,-0.39,-0.38
432.85,5.80,6.18,5.80,6.18,-6.18,-6.97,-6.99,-0.38,-0.38,-0.37
437.18,5.86,6.24,5.86,6.23,-6.23,-7.01,-7.12,-0.37,-0.37,-0.37
441.55,5.91,6.28,5.92,6.28,-6.28,-7.05,-7.23,-0.37,-0.36,-0.37
445.96,5.96,6.32,5.98,6.33,-6.33,-7.09,-7.35,-0.37,-0.35,-0.36
450.42,6.02,6.37,6.03,6.38,-6.38,-7.12,-7.45,-0.36,-0.35,-0.35
454.93,6.08,6.43,6.09,6.42,-6.42,-7.15,-7.55,-0.34,-0.34,-0.34
459.48,6.14,6.48,6.14,6.46,-6.46,-7.17,-7.65,-0.32,-0.33,-0.33
464.07,6.18,6.50,6.18,6.50,-6.50,-7.18,-7.73,-0.32,-0.32,-0.31
468.71,6.22,6.53,6.23,6.54,-6.54,-7.19,-7.81,-0.31,-0.31,-0.31
473.40,6.27,6.57,6.27,6.57,-6.57,-7.19,-7.87,-0.30,-0.30,-0.30
