frequency,raw,error,smoothed,error_smoothed,equalization,parametric_eq,fixed_band_eq,equalized_raw,equalized_smoothed,target
20.00,-5.17,-8.47,-5.16,-8.49,8.49,8.77,2.14,3.31,3.32,3.29
20.20,-5.05,-8.40,-5.05,-8.41,8.41,8.73,2.20,3.35,3.36,3.34
20.40,-4.93,-8.33,-4.93,-8.33,8.33,8.69,2.26,3.39,3.40,3.39
20.61,-4.82,-8.24,-4.81,-8.24,8.24,8.65,2.33,3.43,3.43,3.42
20.81,-4.69,-8.17,-4.70,-8.16,8.16,8.59,2.40,3.46,3.46,3.47
21.02,-4.57,-8.09,-4.59,-8.07,8.07,8.53,2.47,3.50,3.49,3.51
21.23,-4.46,-8.00,-4.47,-7.98,7.98,8.47,2.54,3.52,3.51,3.53
21.44,-4.35,-7.90,-4.36,-7.90,7.90,8.40,2.62,3.54,3.53,3.55
21.66,-4.25,-7.82,-4.25,-7.81,7.81,8.32,2.70,3.56,3.55,3.57
21.87,-4.13,-7.71,-4.14,-7.71,7.71,8.24,2.78,3.58,3.57,3.58
22.09,-4.03,-7.63,-4.03,-7.62,7.62,8.16,2.86,3.59,3.59,3.60
22.31,-3.92,-7.53,-3.93,-7.53,7.53,8.07,2.94,3.60,3.60,3.61
22.54,-3.83,-7.43,-3.82,-7.43,7.43,7.97,3.03,3.60,3.60,3.61
22.76,-3.72,-7.33,-3.72,-7.33,7.33,7.87,3.12,3.61,3.61,3.61
22.99,-3.61,-7.21,-3.62,-7.23,7.23,7.77,3.21,3.62,3.61,3.60
23.22,-3.51,-7.11,-3.52,-7.13,7.13,7.67,3.30,3.61,3.61,3.60
23.45,-3.41,-7.01,-3.42,-7.03,7.03,7.56,3.39,3.61,3.61,3.60
23.69,-3.32,-6.92,-3.31,-6.93,6.93,7.45,3.49,3.61,3.61,3.60
23.92,-3.20,-6.81,-3.21,-6.82,6.82,7.34,3.59,3.62,3.61,3.60
24.16,-3.10,-6.72,-3.10,-6.71,6.71,7.23,3.69,3.61,3.61,3.61
24.40,-3.00,-6.62,-3.00,-6.61,6.61,7.12,3.79,3.60,3.61,3.62
24.65,-2.91,-6.52,-2.88,-6.49,6.49,7.00,3.89,3.59,3.61,3.61
24.89,-2.79,-6.40,-2.77,-6.38,6.38,6.88,3.99,3.59,3.61,3.61
25.14,-2.68,-6.29,-2.66,-6.27,6.27,6.77,4.10,3.59,3.61,3.61
25.39,-2.55,-6.17,-2.54,-6.15,6.15,6.65,4.20,3.60,3.61,3.62
25.65,-2.43,-6.04,-2.43,-6.04,6.04,6.53,4.31,3.61,3.61,3.62
25.91,-2.31,-5.91,-2.31,-5.92,5.92,6.41,4.41,3.62,3.61,3.61
26.16,-2.18,-5.79,-2.19,-5.81,5.81,6.29,4.52,3.62,3.61,3.60
26.43,-2.07,-5.67,-2.08,-5.69,5.69,6.17,4.62,3.62,3.61,3.60
26.69,-1.94,-5.55,-1.97,-5.57,5.57,6.06,4.72,3.63,3.61,3.60
26.96,-1.84,-5.45,-1.85,-5.46,5.46,5.94,4.82,3.62,3.60,3.61
27.23,-1.73,-5.34,-1.74,-5.34,5.34,5.82,4.92,3.62,3.60,3.61
27.50,-1.62,-5.23,-1.63,-5.23,5.23,5.70,5.01,3.60,3.60,3.61
27.77,-1.52,-5.12,-1.52,-5.12,5.12,5.59,5.10,3.60,3.60,3.60
28.05,-1.42,-5.02,-1.41,-5.01,5.01,5.47,5.19,3.59,3.60,3.60
28.33,-1.32,-4.91,-1.31,-4.90,4.90,5.35,5.27,3.58,3.59,3.58
28.62,-1.22,-4.80,-1.21,-4.80,4.80,5.24,5.34,3.58,3.59,3.58
28.90,-1.11,-4.70,-1.10,-4.69,4.69,5.13,5.41,3.58,3.59,3.59
29.19,-1.00,-4.58,-1.00,-4.58,4.58,5.01,5.47,3.58,3.59,3.58
29.48,-0.89,-4.49,-0.89,-4.48,4.48,4.90,5.52,3.58,3.59,3.60
29.78,-0.79,-4.37,-0.79,-4.37,4.37,4.79,5.56,3.59,3.58,3.58
30.08,-0.69,-4.28,-0.69,-4.27,4.27,4.68,5.60,3.58,3.58,3.59
30.38,-0.59,-4.17,-0.59,-4.17,4.17,4.58,5.62,3.58,3.58,3.58
30.68,-0.48,-4.06,-0.49,-4.07,4.07,4.47,5.63,3.59,3.58,3.58
30.99,-0.39,-3.96,-0.40,-3.97,3.97,4.36,5.64,3.59,3.58,3.58
31.30,-0.29,-3.86,-0.30,-3.88,3.88,4.26,5.63,3.59,3.57,3.57
31.61,-0.18,-3.76,-0.21,-3.78,3.78,4.16,5.61,3.59,3.57,3.57
31.93,-0.08,-3.64,-0.11,-3.67,3.67,4.05,5.58,3.60,3.57,3.57
32.24,-0.00,-3.56,-0.01,-3.57,3.57,3.95,5.54,3.57,3.56,3.56
32.57,0.05,-3.51,0.09,-3.47,3.47,3.85,5.50,3.52,3.56,3.56
32.89,0.12,-3.44,0.18,-3.37,3.37,3.75,5.44,3.49,3.55,3.56
33.22,0.22,-3.33,0.27,-3.27,3.27,3.66,5.37,3.49,3.55,3.55
33.55,0.35,-3.20,0.37,-3.17,3.17,3.56,5.29,3.52,3.54,3.54
33.89,0.47,-3.07,0.46,-3.08,3.08,3.47,5.21,3.54,3.54,3.53
34.23,0.57,-2.96,0.55,-2.98,2.98,3.37,5.12,3.56,3.53,3.54
34.57,0.69,-2.84,0.64,-2.89,2.89,3.28,5.02,3.57,3.53,3.52
34.92,0.78,-2.74,0.73,-2.79,2.79,3.19,4.91,3.58,3.52,3.52
35.27,0.85,-2.66,0.82,-2.70,2.70,3.10,4.80,3.55,3.52,3.52
35.62,0.91,-2.61,0.91,-2.61,2.61,3.01,4.69,3.51,3.51,3.51
35.97,0.96,-2.55,0.99,-2.52,2.52,2.92,4.57,3.48,3.51,3.51
36.33,1.05,-2.47,1.07,-2.43,2.43,2.84,4.45,3.48,3.51,3.51
36.70,1.13,-2.36,1.15,-2.36,2.36,2.75,4.32,3.49,3.51,3.50
37.06,1.23,-2.27,1.22,-2.28,2.28,2.67,4.20,3.51,3.51,3.50
37.43,1.31,-2.20,1.30,-2.21,2.21,2.58,4.07,3.52,3.51,3.51
37.81,1.39,-2.12,1.37,-2.13,2.13,2.50,3.94,3.52,3.50,3.51
38.19,1.46,-2.04,1.44,-2.06,2.06,2.42,3.81,3.52,3.50,3.50
38.57,1.52,-1.99,1.51,-1.99,1.99,2.34,3.67,3.50,3.50,3.50
38.95,1.57,-1.94,1.59,-1.91,1.91,2.26,3.54,3.48,3.50,3.51
39.34,1.64,-1.87,1.66,-1.84,1.84,2.18,3.41,3.48,3.50,3.50
39.74,1.71,-1.79,1.74,-1.76,1.76,2.11,3.28,3.47,3.50,3.50
40.14,1.78,-1.72,1.81,-1.69,1.69,2.03,3.15,3.48,3.50,3.50
40.54,1.88,-1.61,1.87,-1.62,1.62,1.96,3.02,3.51,3.49,3.49
40.94,2.00,-1.49,1.94,-1.55,1.55,1.88,2.89,3.55,3.49,3.49
41.35,2.04,-1.45,2.01,-1.48,1.48,1.81,2.76,3.51,3.48,3.48
41.76,2.07,-1.41,2.07,-1.40,1.40,1.74,2.64,3.47,3.47,3.47
42.18,2.12,-1.36,2.13,-1.33,1.33,1.67,2.51,3.45,3.46,3.48
42.60,2.19,-1.27,2.20,-1.26,1.26,1.60,2.39,3.44,3.45,3.46
43.03,2.26,-1.19,2.25,-1.19,1.19,1.53,2.27,3.44,3.44,3.45
43.46,2.31,-1.14,2.31,-1.12,1.12,1.46,2.15,3.42,3.43,3.44
43.90,2.35,-1.07,2.36,-1.06,1.06,1.39,2.03,3.40,3.41,3.41
44.33,2.42,-0.98,2.41,-0.99,0.99,1.33,1.91,3.41,3.40,3.39
44.78,2.49,-0.89,2.46,-0.93,0.93,1.26,1.79,3.41,3.39,3.37
45.23,2.53,-0.83,2.51,-0.86,0.86,1.20,1.68,3.40,3.37,3.36
45.68,2.55,-0.80,2.56,-0.80,0.80,1.13,1.56,3.34,3.35,3.34
46.13,2.57,-0.76,2.60,-0.74,0.74,1.07,1.45,3.30,3.34,3.32
46.60,2.62,-0.71,2.64,-0.68,0.68,1.01,1.34,3.30,3.32,3.32
47.06,2.67,-0.64,2.68,-0.63,0.63,0.95,1.23,3.29,3.30,3.30
47.53,2.71,-0.59,2.71,-0.58,0.58,0.88,1.13,3.28,3.29,3.29
48.01,2.76,-0.53,2.74,-0.53,0.53,0.82,1.02,3.28,3.27,3.29
48.49,2.82,-0.45,2.78,-0.48,0.48,0.77,0.91,3.29,3.25,3.27
48.97,2.88,-0.37,2.81,-0.43,0.43,0.71,0.81,3.30,3.24,3.24
49.46,2.87,-0.35,2.84,-0.38,0.38,0.65,0.71,3.25,3.22,3.22
49.96,2.86,-0.34,2.87,-0.34,0.34,0.59,0.61,3.19,3.21,3.20
50.46,2.86,-0.34,2.90,-0.29,0.29,0.54,0.51,3.14,3.19,3.19
50.96,2.86,-0.32,2.93,-0.24,0.24,0.48,0.41,3.10,3.18,3.18
51.47,2.92,-0.24,2.95,-0.21,0.21,0.43,0.32,3.12,3.16,3.15
51.99,2.98,-0.15,2.97,-0.18,0.18,0.37,0.22,3.16,3.15,3.14
52.51,3.03,-0.10,2.99,-0.14,0.14,0.32,0.13,3.17,3.13,3.13
53.03,3.06,-0.07,3.00,-0.11,0.11,0.26,0.04,3.17,3.11,3.12
53.56,3.06,-0.05,3.02,-0.08,0.08,0.21,-0.05,3.13,3.10,3.10
54.10,3.06,-0.03,3.04,-0.05,0.05,0.16,-0.14,3.10,3.09,3.09
54.64,3.06,-0.01,3.05,-0.02,0.02,0.11,-0.22,3.07,3.07,3.07
55.18,3.06,-0.00,3.07,0.02,-0.02,0.06,-0.30,3.04,3.06,3.06
55.74,3.06,0.02,3.09,0.05,-0.05,0.01,-0.38,3.01,3.04,3.04
56.29,3.06,0.03,3.11,0.08,-0.08,-0.04,-0.46,2.98,3.03,3.03
56.86,3.06,0.05,3.12,0.11,-0.11,-0.09,-0.53,2.95,3.01,3.00
57.42,3.12,0.14,3.12,0.13,-0.13,-0.14,-0.61,2.98,2.99,2.97
58.00,3.20,0.24,3.13,0.16,-0.16,-0.19,-0.68,3.03,2.96,2.96
58.58,3.18,0.23,3.13,0.20,-0.20,-0.23,-0.74,2.98,2.94,2.95
59.16,3.16,0.23,3.14,0.23,-0.23,-0.28,-0.80,2.92,2.91,2.92
59.76,3.16,0.26,3.15,0.27,-0.27,-0.33,-0.86,2.88,2.88,2.90
60.35,3.16,0.30,3.15,0.31,-0.31,-0.37,-0.92,2.84,2.84,2.85
60.96,3.16,0.34,3.16,0.35,-0.35,-0.42,-0.98,2.80,2.80,2.81
61.57,3.16,0.39,3.17,0.41,-0.41,-0.46,-1.03,2.75,2.76,2.77
62.18,3.16,0.44,3.18,0.46,-0.46,-0.50,-1.07,2.70,2.72,2.72
62.80,3.16,0.49,3.18,0.51,-0.51,-0.55,-1.12,2.65,2.67,2.67
63.43,3.16,0.54,3.18,0.55,-0.55,-0.59,-1.16,2.60,2.63,2.62
64.07,3.16,0.59,3.17,0.59,-0.59,-0.63,-1.19,2.57,2.58,2.57
64.71,3.16,0.64,3.15,0.63,-0.63,-0.67,-1.23,2.53,2.53,2.52
65.35,3.16,0.68,3.14,0.67,-0.67,-0.72,-1.26,2.49,2.47,2.47
66.01,3.16,0.74,3.13,0.71,-0.71,-0.76,-1.29,2.45,2.42,2.42
66.67,3.16,0.79,3.11,0.74,-0.74,-0.80,-1.32,2.41,2.37,2.37
67.33,3.17,0.86,3.09,0.78,-0.78,-0.84,-1.34,2.39,2.31,2.31
68.01,3.20,0.93,3.07,0.81,-0.81,-0.88,-1.36,2.38,2.26,2.26
68.69,3.03,0.82,3.06,0.85,-0.85,-0.92,-1.38,2.17,2.20,2.21
69.37,2.95,0.80,3.04,0.89,-0.89,-0.96,-1.40,2.05,2.15,2.15
70.07,2.94,0.85,3.02,0.94,-0.94,-0.99,-1.41,2.00,2.09,2.09
70.77,2.96,0.92,3.01,0.98,-0.98,-1.03,-1.43,1.98,2.03,2.04
71.48,2.96,0.98,2.99,1.03,-1.03,-1.07,-1.44,1.93,1.97,1.98
72.19,2.96,1.05,2.98,1.08,-1.08,-1.11,-1.45,1.88,1.90,1.90
72.91,2.96,1.11,2.96,1.12,-1.12,-1.14,-1.46,1.83,1.84,1.84
73.64,2.96,1.18,2.94,1.17,-1.17,-1.18,-1.47,1.79,1.78,1.78
74.38,2.96,1.24,2.93,1.21,-1.21,-1.21,-1.48,1.74,1.71,1.71
75.12,2.96,1.31,2.91,1.26,-1.26,-1.25,-1.49,1.70,1.65,1.65
75.87,2.99,1.41,2.90,1.31,-1.31,-1.28,-1.50,1.68,1.59,1.58
76.63,2.93,1.40,2.89,1.37,-1.37,-1.32,-1.51,1.56,1.53,1.52
77.40,2.88,1.41,2.88,1.42,-1.42,-1.35,-1.52,1.46,1.47,1.46
78.17,2.86,1.46,2.86,1.46,-1.46,-1.39,-1.54,1.40,1.41,1.39
78.95,2.85,1.50,2.84,1.50,-1.50,-1.42,-1.55,1.36,1.35,1.35
79.74,2.76,1.47,2.83,1.54,-1.54,-1.45,-1.56,1.21,1.29,1.29
80.54,2.74,1.50,2.81,1.58,-1.58,-1.48,-1.57,1.16,1.23,1.24
81.35,2.75,1.57,2.79,1.61,-1.61,-1.52,-1.59,1.13,1.18,1.17
82.16,2.76,1.64,2.77,1.65,-1.65,-1.55,-1.60,1.11,1.12,1.12
82.98,2.76,1.68,2.74,1.68,-1.68,-1.58,-1.62,1.08,1.06,1.07
83.81,2.79,1.78,2.72,1.71,-1.71,-1.61,-1.63,1.07,1.01,1.01
84.65,2.75,1.80,2.70,1.75,-1.75,-1.64,-1.65,1.00,0.95,0.95
85.50,2.70,1.80,2.68,1.79,-1.79,-1.67,-1.67,0.91,0.89,0.90
86.35,2.66,1.81,2.66,1.83,-1.83,-1.70,-1.69,0.83,0.84,0.84
87.22,2.66,1.87,2.64,1.87,-1.87,-1.73,-1.72,0.79,0.78,0.78
88.09,2.64,1.91,2.62,1.90,-1.90,-1.76,-1.74,0.73,0.72,0.72
88.97,2.53,1.87,2.60,1.94,-1.94,-1.79,-1.76,0.59,0.66,0.66
89.86,2.58,1.98,2.57,1.97,-1.97,-1.82,-1.79,0.61,0.60,0.60
90.76,2.52,1.98,2.53,1.99,-1.99,-1.84,-1.82,0.52,0.54,0.54
91.66,2.48,1.99,2.50,2.02,-2.02,-1.87,-1.85,0.46,0.48,0.48
92.58,2.47,2.06,2.47,2.05,-2.05,-1.90,-1.88,0.42,0.42,0.41
93.51,2.47,2.11,2.44,2.08,-2.08,-1.93,-1.91,0.39,0.36,0.35
94.44,2.45,2.15,2.41,2.11,-2.11,-1.95,-1.95,0.34,0.30,0.30
95.39,2.40,2.15,2.38,2.14,-2.14,-1.98,-1.98,0.26,0.24,0.24
96.34,2.33,2.15,2.34,2.16,-2.16,-2.00,-2.02,0.17,0.18,0.18
97.30,2.26,2.13,2.30,2.18,-2.18,-2.03,-2.05,0.08,0.12,0.12
98.28,2.25,2.18,2.26,2.20,-2.20,-2.06,-2.09,0.05,0.07,0.07
99.26,2.23,2.22,2.23,2.22,-2.22,-2.08,-2.13,0.01,0.01,0.01
100.25,2.21,2.25,2.18,2.23,-2.23,-2.10,-2.17,-0.03,-0.05,-0.05
101.25,2.19,2.29,2.15,2.26,-2.26,-2.13,-2.21,-0.07,-0.11,-0.11
102.27,2.14,2.30,2.11,2.27,-2.27,-2.15,-2.25,-0.14,-0.17,-0.16
103.29,2.06,2.29,2.06,2.28,-2.28,-2.18,-2.30,-0.23,-0.22,-0.23
104.32,1.99,2.26,2.01,2.29,-2.29,-2.20,-2.34,-0.31,-0.28,-0.28
105.37,1.93,2.26,1.96,2.30,-2.30,-2.22,-2.38,-0.38,-0.34,-0.34
106.42,1.90,2.29,1.91,2.32,-2.32,-2.25,-2.43,-0.42,-0.40,-0.39
107.48,1.88,2.34,1.87,2.33,-2.33,-2.27,-2.47,-0.46,-0.47,-0.46
108.56,1.86,2.39,1.83,2.36,-2.36,-2.29,-2.51,-0.50,-0.53,-0.53
109.64,1.85,2.43,1.78,2.37,-2.37,-2.31,-2.55,-0.53,-0.59,-0.59
110.74,1.76,2.41,1.74,2.39,-2.39,-2.33,-2.59,-0.64,-0.65,-0.65
111.85,1.69,2.39,1.70,2.41,-2.41,-2.35,-2.63,-0.72,-0.71,-0.70
112.97,1.57,2.34,1.66,2.43,-2.43,-2.37,-2.67,-0.86,-0.77,-0.78
114.10,1.56,2.39,1.62,2.46,-2.46,-2.39,-2.71,-0.90,-0.83,-0.84
115.24,1.58,2.47,1.60,2.49,-2.49,-2.41,-2.74,-0.91,-0.89,-0.89
116.39,1.59,2.54,1.57,2.52,-2.52,-2.43,-2.77,-0.93,-0.94,-0.96
117.55,1.60,2.60,1.55,2.54,-2.54,-2.45,-2.80,-0.95,-1.00,-1.00
118.73,1.57,2.62,1.52,2.56,-2.56,-2.47,-2.83,-1.00,-1.05,-1.06
119.92,1.50,2.59,1.48,2.58,-2.58,-2.49,-2.86,-1.08,-1.09,-1.09
121.12,1.44,2.58,1.46,2.60,-2.60,-2.51,-2.88,-1.16,-1.14,-1.15
122.33,1.41,2.59,1.44,2.62,-2.62,-2.53,-2.90,-1.22,-1.18,-1.19
123.55,1.41,2.63,1.43,2.65,-2.65,-2.55,-2.92,-1.25,-1.23,-1.22
124.79,1.44,2.70,1.41,2.68,-2.68,-2.56,-2.93,-1.24,-1.27,-1.26
126.03,1.45,2.75,1.38,2.69,-2.69,-2.58,-2.94,-1.25,-1.31,-1.31
127.29,1.38,2.71,1.35,2.70,-2.70,-2.60,-2.95,-1.32,-1.35,-1.34
128.57,1.29,2.67,1.32,2.71,-2.71,-2.62,-2.96,-1.42,-1.39,-1.39
129.85,1.23,2.65,1.29,2.72,-2.72,-2.63,-2.96,-1.49,-1.42,-1.42
131.15,1.24,2.70,1.27,2.73,-2.73,-2.65,-2.96,-1.49,-1.46,-1.46
132.46,1.27,2.77,1.24,2.74,-2.74,-2.67,-2.95,-1.47,-1.50,-1.50
133.79,1.28,2.81,1.21,2.75,-2.75,-2.68,-2.95,-1.47,-1.54,-1.54
135.12,1.22,2.80,1.19,2.76,-2.76,-2.70,-2.94,-1.54,-1.57,-1.58
136.48,1.15,2.75,1.15,2.76,-2.76,-2.71,-2.93,-1.61,-1.61,-1.61
137.84,1.06,2.71,1.11,2.76,-2.76,-2.73,-2.92,-1.70,-1.65,-1.65
139.22,1.06,2.75,1.07,2.76,-2.76,-2.74,-2.91,-1.70,-1.68,-1.70
140.61,1.07,2.80,1.04,2.76,-2.76,-2.76,-2.90,-1.69,-1.72,-1.74
142.02,1.09,2.84,1.01,2.77,-2.77,-2.77,-2.88,-1.68,-1.76,-1.76
143.44,1.01,2.80,0.97,2.78,-2.78,-2.79,-2.87,-1.77,-1.80,-1.80
144.87,0.90,2.74,0.94,2.79,-2.79,-2.80,-2.85,-1.89,-1.85,-1.85
146.32,0.88,2.77,0.90,2.80,-2.80,-2.81,-2.83,-1.93,-1.90,-1.90
147.78,0.89,2.82,0.87,2.83,-2.83,-2.83,-2.82,-1.94,-1.96,-1.93
149.26,0.85,2.84,0.84,2.86,-2.86,-2.84,-2.80,-2.02,-2.02,-1.99
150.75,0.78,2.84,0.82,2.91,-2.91,-2.85,-2.79,-2.14,-2.09,-2.07
152.26,0.77,2.91,0.81,2.97,-2.97,-2.86,-2.77,-2.21,-2.16,-2.14
153.78,0.77,2.98,0.80,3.04,-3.04,-2.88,-2.76,-2.27,-2.23,-2.21
155.32,0.77,3.06,0.79,3.10,-3.10,-2.89,-2.75,-2.34,-2.31,-2.30
156.88,0.77,3.14,0.78,3.17,-3.17,-2.90,-2.74,-2.41,-2.39,-2.38
158.44,0.78,3.24,0.78,3.24,-3.24,-2.91,-2.73,-2.47,-2.46,-2.47
160.03,0.78,3.33,0.78,3.32,-3.32,-2.92,-2.72,-2.54,-2.54,-2.56
161.63,0.77,3.40,0.77,3.38,-3.38,-2.94,-2.71,-2.62,-2.61,-2.64
163.24,0.77,3.47,0.75,3.43,-3.43,-2.95,-2.70,-2.67,-2.68,-2.70
164.88,0.77,3.53,0.73,3.47,-3.47,-2.96,-2.70,-2.70,-2.74,-2.76
166.53,0.76,3.57,0.69,3.49,-3.49,-2.97,-2.70,-2.73,-2.80,-2.82
168.19,0.73,3.59,0.64,3.49,-3.49,-2.98,-2.70,-2.76,-2.84,-2.86
169.87,0.66,3.56,0.59,3.47,-3.47,-2.99,-2.70,-2.81,-2.88,-2.90
171.57,0.56,3.48,0.52,3.43,-3.43,-3.00,-2.70,-2.88,-2.91,-2.93
173.29,0.50,3.45,0.45,3.39,-3.39,-3.01,-2.71,-2.89,-2.94,-2.95
175.02,0.40,3.36,0.37,3.33,-3.33,-3.02,-2.72,-2.93,-2.96,-2.96
176.77,0.29,3.27,0.29,3.27,-3.27,-3.03,-2.73,-2.98,-2.97,-2.98
178.54,0.24,3.23,0.22,3.21,-3.21,-3.04,-2.74,-2.97,-2.99,-2.99
180.32,0.12,3.10,0.16,3.15,-3.15,-3.04,-2.76,-3.04,-3.00,-2.99
182.13,0.01,2.99,0.10,3.11,-3.11,-3.05,-2.77,-3.11,-3.01,-2.99
183.95,-0.06,2.94,0.06,3.08,-3.08,-3.06,-2.79,-3.15,-3.02,-3.00
185.79,-0.04,2.97,0.03,3.07,-3.07,-3.07,-2.81,-3.11,-3.03,-3.01
187.65,-0.03,3.00,0.02,3.07,-3.07,-3.08,-2.84,-3.10,-3.05,-3.04
189.52,-0.01,3.04,0.02,3.08,-3.08,-3.09,-2.86,-3.10,-3.06,-3.05
191.42,-0.00,3.07,0.04,3.12,-3.12,-3.09,-2.89,-3.12,-3.08,-3.07
193.33,0.05,3.14,0.06,3.15,-3.15,-3.10,-2.92,-3.11,-3.10,-3.10
195.27,0.11,3.22,0.09,3.20,-3.20,-3.11,-2.95,-3.10,-3.12,-3.12
197.22,0.18,3.32,0.12,3.26,-3.26,-3.11,-2.98,-3.08,-3.14,-3.14
199.19,0.24,3.41,0.15,3.32,-3.32,-3.12,-3.01,-3.08,-3.16,-3.17
201.18,0.26,3.45,0.19,3.38,-3.38,-3.13,-3.05,-3.12,-3.19,-3.19
203.19,0.27,3.48,0.22,3.43,-3.43,-3.13,-3.08,-3.17,-3.21,-3.21
205.23,0.27,3.51,0.24,3.48,-3.48,-3.14,-3.12,-3.21,-3.24,-3.24
207.28,0.27,3.51,0.26,3.52,-3.52,-3.15,-3.16,-3.26,-3.26,-3.25
209.35,0.27,3.54,0.27,3.56,-3.56,-3.15,-3.19,-3.29,-3.28,-3.28
211.44,0.26,3.57,0.28,3.58,-3.58,-3.16,-3.23,-3.33,-3.30,-3.31
213.56,0.26,3.58,0.28,3.60,-3.60,-3.16,-3.27,-3.34,-3.32,-3.32
215.69,0.26,3.59,0.27,3.61,-3.61,-3.17,-3.31,-3.35,-3.34,-3.34
217.85,0.25,3.60,0.26,3.61,-3.61,-3.17,-3.35,-3.36,-3.35,-3.35
220.03,0.25,3.61,0.24,3.61,-3.61,-3.18,-3.38,-3.36,-3.37,-3.37
222.23,0.25,3.64,0.23,3.61,-3.61,-3.18,-3.42,-3.36,-3.37,-3.39
224.45,0.25,3.63,0.22,3.60,-3.60,-3.19,-3.45,-3.36,-3.38,-3.39
226.70,0.25,3.64,0.22,3.61,-3.61,-3.19,-3.49,-3.36,-3.38,-3.39
228.96,0.24,3.62,0.22,3.61,-3.61,-3.20,-3.52,-3.37,-3.38,-3.38
231.25,0.18,3.55,0.22,3.60,-3.60,-3.20,-3.54,-3.42,-3.38,-3.38
233.57,0.17,3.53,0.22,3.59,-3.59,-3.21,-3.57,-3.42,-3.37,-3.37
235.90,0.18,3.53,0.22,3.57,-3.57,-3.21,-3.59,-3.40,-3.35,-3.36
238.26,0.20,3.55,0.22,3.56,-3.56,-3.21,-3.61,-3.36,-3.34,-3.35
240.64,0.21,3.54,0.21,3.54,-3.54,-3.22,-3.63,-3.33,-3.32,-3.33
243.05,0.22,3.52,0.21,3.51,-3.51,-3.22,-3.64,-3.30,-3.31,-3.30
245.48,0.24,3.52,0.20,3.48,-3.48,-3.22,-3.65,-3.25,-3.28,-3.28
247.93,0.27,3.52,0.18,3.45,-3.45,-3.23,-3.66,-3.18,-3.26,-3.25
250.41,0.26,3.50,0.17,3.42,-3.42,-3.23,-3.66,-3.16,-3.24,-3.24
252.92,0.15,3.36,0.16,3.38,-3.38,-3.23,-3.66,-3.24,-3.22,-3.21
255.45,0.13,3.32,0.15,3.35,-3.35,-3.23,-3.66,-3.22,-3.20,-3.19
258.00,0.13,3.29,0.14,3.31,-3.31,-3.24,-3.65,-3.19,-3.18,-3.17
260.58,0.13,3.28,0.12,3.27,-3.27,-3.24,-3.63,-3.15,-3.15,-3.16
263.19,0.12,3.24,0.10,3.23,-3.23,-3.24,-3.62,-3.11,-3.13,-3.12
265.82,0.05,3.16,0.08,3.18,-3.18,-3.24,-3.60,-3.14,-3.11,-3.11
268.48,0.02,3.10,0.06,3.14,-3.14,-3.24,-3.58,-3.12,-3.08,-3.09
271.16,0.03,3.08,0.04,3.09,-3.09,-3.25,-3.55,-3.07,-3.06,-3.06
273.87,0.05,3.09,0.02,3.06,-3.06,-3.25,-3.53,-3.01,-3.04,-3.04
276.61,0.08,3.08,0.02,3.03,-3.03,-3.25,-3.50,-2.95,-3.01,-3.01
279.38,0.03,3.01,0.03,3.01,-3.01,-3.25,-3.47,-2.99,-2.99,-2.99
282.17,0.02,2.98,0.04,3.00,-3.00,-3.25,-3.44,-2.99,-2.96,-2.96
284.99,0.03,2.95,0.06,2.99,-2.99,-3.25,-3.40,-2.96,-2.93,-2.93
287.84,0.04,2.95,0.08,2.98,-2.98,-3.25,-3.37,-2.95,-2.90,-2.91
290.72,0.05,2.92,0.10,2.98,-2.98,-3.25,-3.33,-2.93,-2.88,-2.88
293.63,0.06,2.91,0.13,2.98,-2.98,-3.25,-3.30,-2.92,-2.85,-2.85
296.57,0.15,2.96,0.16,2.98,-2.98,-3.25,-3.26,-2.84,-2.82,-2.82
299.53,0.22,3.01,0.19,2.98,-2.98,-3.25,-3.23,-2.77,-2.79,-2.79
302.53,0.29,3.06,0.22,2.98,-2.98,-3.25,-3.19,-2.70,-2.77,-2.78
305.55,0.31,3.04,0.24,2.99,-2.99,-3.25,-3.16,-2.68,-2.74,-2.73
308.61,0.32,3.03,0.27,2.99,-2.99,-3.25,-3.12,-2.67,-2.72,-2.72
311.69,0.32,3.01,0.29,2.99,-2.99,-3.25,-3.09,-2.67,-2.70,-2.69
314.81,0.33,2.99,0.31,2.99,-2.99,-3.25,-3.06,-2.66,-2.68,-2.67
317.96,0.33,2.97,0.32,2.98,-2.98,-3.25,-3.03,-2.66,-2.66,-2.65
321.14,0.33,2.97,0.33,2.97,-2.97,-3.24,-3.00,-2.65,-2.64,-2.64
324.35,0.33,2.95,0.34,2.96,-2.96,-3.24,-2.98,-2.63,-2.62,-2.63
327.59,0.33,2.94,0.34,2.95,-2.95,-3.24,-2.95,-2.62,-2.61,-2.61
330.87,0.33,2.93,0.33,2.93,-2.93,-3.24,-2.93,-2.60,-2.60,-2.60
334.18,0.33,2.91,0.33,2.91,-2.91,-3.24,-2.91,-2.59,-2.58,-2.59
337.52,0.32,2.89,0.32,2.90,-2.90,-3.23,-2.89,-2.58,-2.58,-2.58
340.90,0.32,2.88,0.32,2.89,-2.89,-3.23,-2.87,-2.58,-2.57,-2.56
344.30,0.32,2.87,0.32,2.89,-2.89,-3.23,-2.86,-2.57,-2.56,-2.55
347.75,0.32,2.87,0.32,2.88,-2.88,-3.23,-2.84,-2.57,-2.56,-2.56
351.23,0.32,2.87,0.33,2.88,-2.88,-3.22,-2.83,-2.56,-2.55,-2.55
354.74,0.33,2.88,0.33,2.88,-2.88,-3.22,-2.83,-2.55,-2.55,-2.55
358.28,0.34,2.88,0.33,2.88,-2.88,-3.22,-2.82,-2.54,-2.55,-2.55
361.87,0.36,2.90,0.34,2.88,-2.88,-3.21,-2.82,-2.53,-2.55,-2.55
365.49,0.35,2.89,0.34,2.89,-2.89,-3.21,-2.81,-2.54,-2.55,-2.54
369.14,0.35,2.90,0.35,2.90,-2.90,-3.21,-2.82,-2.55,-2.55,-2.55
372.83,0.36,2.91,0.36,2.90,-2.90,-3.20,-2.82,-2.55,-2.55,-2.55
376.56,0.36,2.91,0.36,2.91,-2.91,-3.20,-2.82,-2.56,-2.55,-2.56
380.33,0.37,2.91,0.37,2.92,-2.92,-3.19,-2.83,-2.56,-2.55,-2.55
384.13,0.38,2.93,0.37,2.93,-2.93,-3.19,-2.84,-2.55,-2.56,-2.55
387.97,0.38,2.94,0.37,2.93,-2.93,-3.19,-2.85,-2.56,-2.56,-2.56
391.85,0.39,2.96,0.37,2.94,-2.94,-3.18,-2.86,-2.55,-2.57,-2.57
395.77,0.39,2.95,0.37,2.94,-2.94,-3.18,-2.87,-2.56,-2.57,-2.56
399.73,0.39,2.96,0.37,2.95,-2.95,-3.17,-2.89,-2.57,-2.58,-2.58
403.72,0.39,2.96,0.37,2.96,-2.96,-3.16,-2.91,-2.57,-2.59,-2.58
407.76,0.38,2.96,0.37,2.96,-2.96,-3.16,-2.92,-2.59,-2.59,-2.59
411.84,0.38,2.97,0.38,2.97,-2.97,-3.15,-2.94,-2.59,-2.59,-2.59
415.96,0.38,2.97,0.38,2.98,-2.98,-3.15,-2.96,-2.60,-2.60,-2.59
420.12,0.38,2.97,0.39,2.98,-2.98,-3.14,-2.98,-2.61,-2.59,-2.59
424.32,0.38,2.97,0.40,2.99,-2.99,-3.13,-3.00,-2.62,-2.59,-2.59
428.56,0.39,2.97,0.42,3.00,-3.00,-3.13,-3.02,-2.62,-2.58,-2.59
432.85,0.46,3.03,0.45,3.01,-3.01,-3.12,-3.04,-2.55,-2.56,-2.58
437.18,0.48,3.04,0.47,3.02,-3.02,-3.11,-3.06,-2.54,-2.54,-2.57
441.55,0.48,3.00,0.51,3.02,-3.02,-3.11,-3.08,-2.55,-2.52,-2.53
445.96,0.52,3.02,0.54,3.03,-3.03,-3.10,-3.10,-2.51,-2.49,-2.50
450.42,0.57,3.04,0.58,3.03,-3.03,-3.09,-3.12,-2.47,-2.45,-2.47
454.93,0.63,3.05,0.62,3.03,-3.03,-3.08,-3.14,-2.40,-2.41,-2.42
459.48,0.69,3.06,0.66,3.03,-3.03,-3.07,-3.15,-2.34,-2.37,-2.37
464.07,0.75,3.07,0.70,3.02,-3.02,-3.07,-3.17,-2.28,-2.32,-2.32
468.71,0.80,3.06,0.75,3.02,-3.02,-3.06,-3.18,-2.23,-2.27,-2.26
473.40,0.81,3.03,0.80,3.02,-3.02,-3.05,-3.19,-2.21,-2.22,-2.23
478.13,0.83,2.99,0.84,3.02,-3.02,-3.04,-3.19,-2.19,-2.17,-2.17
482.91,0.87,2.99,0.89,3.02,-3.02,-3.03,-3.20,-2.15,-2.13,-2.13
487.74,0.91,2.99,0.93,3.02,-3.02,-3.02,-3.20,-2.11,-2.09,-2.09
492.62,0.94,2.97,0.97,3.03,-3.03,-3.01,-3.19,-2.09,-2.05,-2.04
497.55,0.96,2.97,1.01,3.03,-3.03,-3.00,-3.19,-2.08,-2.02,-2.02
502.52,1.02,3.00,1.04,3.04,-3.04,-2.99,-3.18,-2.02,-2.00,-1.99
