frequency,raw,error,smoothed,error_smoothed,equalization,parametric_eq,fixed_band_eq,equalized_raw,equalized_smoothed,target
20.00,-5.48,-8.60,-5.47,-8.59,8.61,8.72,2.01,3.13,3.14,3.12
20.20,-5.39,-8.56,-5.40,-8.56,8.57,8.62,2.08,3.18,3.18,3.17
20.40,-5.30,-8.52,-5.31,-8.52,8.52,8.52,2.14,3.22,3.21,3.22
20.61,-5.21,-8.46,-5.22,-8.47,8.46,8.42,2.20,3.25,3.25,3.25
20.81,-5.12,-8.42,-5.12,-8.42,8.39,8.32,2.27,3.27,3.27,3.30
21.02,-5.03,-8.37,-5.01,-8.34,8.31,8.22,2.33,3.28,3.30,3.34
21.23,-4.88,-8.24,-4.88,-8.24,8.22,8.11,2.40,3.34,3.33,3.36
21.44,-4.73,-8.11,-4.74,-8.12,8.11,8.01,2.48,3.38,3.38,3.38
21.66,-4.58,-7.98,-4.58,-7.98,7.99,7.90,2.55,3.41,3.41,3.40
21.87,-4.44,-7.85,-4.44,-7.85,7.85,7.80,2.63,3.41,3.42,3.41
22.09,-4.29,-7.72,-4.29,-7.72,7.71,7.69,2.70,3.42,3.42,3.43
22.31,-4.14,-7.58,-4.14,-7.58,7.56,7.59,2.79,3.43,3.42,3.44
22.54,-3.99,-7.43,-3.99,-7.43,7.42,7.48,2.87,3.43,3.44,3.44
22.76,-3.84,-7.28,-3.84,-7.27,7.29,7.37,2.95,3.45,3.45,3.44
22.99,-3.69,-7.12,-3.70,-7.13,7.16,7.26,3.04,3.47,3.46,3.43
23.22,-3.58,-7.01,-3.58,-7.01,7.04,7.15,3.13,3.46,3.46,3.43
23.45,-3.48,-6.91,-3.48,-6.91,6.92,7.05,3.22,3.44,3.44,3.43
23.69,-3.38,-6.82,-3.38,-6.82,6.81,6.93,3.31,3.42,3.42,3.44
23.92,-3.28,-6.72,-3.28,-6.71,6.69,6.82,3.40,3.41,3.42,3.44
24.16,-3.16,-6.60,-3.16,-6.60,6.58,6.71,3.50,3.42,3.42,3.44
24.40,-3.03,-6.48,-3.04,-6.48,6.46,6.60,3.60,3.43,3.43,3.45
24.65,-2.90,-6.34,-2.91,-6.34,6.33,6.49,3.69,3.43,3.43,3.44
24.89,-2.78,-6.22,-2.77,-6.21,6.20,6.37,3.79,3.42,3.43,3.44
25.14,-2.63,-6.07,-2.63,-6.07,6.06,6.26,3.89,3.43,3.43,3.44
25.39,-2.48,-5.93,-2.48,-5.92,5.92,6.14,3.99,3.44,3.44,3.45
25.65,-2.33,-5.78,-2.33,-5.77,5.79,6.03,4.09,3.46,3.46,3.45
25.91,-2.18,-5.62,-2.19,-5.63,5.66,5.91,4.19,3.48,3.47,3.44
26.16,-2.06,-5.50,-2.07,-5.51,5.54,5.79,4.29,3.48,3.47,3.44
26.43,-1.97,-5.41,-1.97,-5.40,5.42,5.67,4.39,3.45,3.45,3.44
26.69,-1.87,-5.31,-1.88,-5.31,5.30,5.55,4.49,3.43,3.43,3.44
26.96,-1.78,-5.22,-1.77,-5.21,5.18,5.44,4.58,3.40,3.41,3.44
27.23,-1.65,-5.09,-1.65,-5.09,5.06,5.31,4.68,3.41,3.41,3.44
27.50,-1.51,-4.95,-1.52,-4.95,4.93,5.19,4.76,3.42,3.41,3.44
27.77,-1.38,-4.81,-1.38,-4.81,4.80,5.07,4.85,3.42,3.42,3.43
28.05,-1.24,-4.67,-1.24,-4.66,4.66,4.95,4.93,3.42,3.42,3.43
28.33,-1.10,-4.52,-1.10,-4.52,4.53,4.83,5.00,3.43,3.43,3.42
28.62,-0.95,-4.37,-0.95,-4.37,4.39,4.70,5.07,3.44,3.44,3.42
28.90,-0.81,-4.24,-0.82,-4.24,4.27,4.58,5.13,3.46,3.45,3.43
29.19,-0.70,-4.12,-0.70,-4.12,4.15,4.45,5.19,3.45,3.45,3.42
29.48,-0.60,-4.03,-0.60,-4.02,4.03,4.33,5.23,3.43,3.43,3.43
29.78,-0.50,-3.92,-0.50,-3.92,3.92,4.20,5.27,3.41,3.41,3.42
30.08,-0.40,-3.83,-0.39,-3.82,3.79,4.08,5.30,3.39,3.40,3.43
30.38,-0.27,-3.69,-0.28,-3.70,3.66,3.95,5.32,3.38,3.38,3.42
30.68,-0.14,-3.56,-0.15,-3.57,3.52,3.82,5.32,3.38,3.37,3.42
30.99,-0.01,-3.43,0.00,-3.41,3.38,3.69,5.32,3.37,3.38,3.42
31.30,0.17,-3.24,0.17,-3.24,3.24,3.57,5.31,3.41,3.42,3.41
31.61,0.35,-3.06,0.35,-3.06,3.11,3.44,5.29,3.46,3.46,3.41
31.93,0.53,-2.88,0.50,-2.91,2.98,3.31,5.25,3.51,3.48,3.41
32.24,0.60,-2.80,0.59,-2.81,2.86,3.18,5.21,3.46,3.45,3.40
32.57,0.64,-2.76,0.65,-2.75,2.75,3.05,5.15,3.39,3.40,3.40
32.89,0.69,-2.71,0.70,-2.69,2.64,2.92,5.09,3.33,3.35,3.40
33.22,0.78,-2.61,0.79,-2.60,2.55,2.79,5.01,3.33,3.34,3.39
33.55,0.91,-2.48,0.90,-2.48,2.46,2.66,4.93,3.37,3.36,3.39
33.89,1.03,-2.35,1.02,-2.36,2.37,2.53,4.84,3.40,3.39,3.38
34.23,1.13,-2.25,1.13,-2.25,2.27,2.40,4.74,3.40,3.40,3.38
34.57,1.22,-2.15,1.22,-2.15,2.17,2.27,4.63,3.39,3.39,3.37
34.92,1.31,-2.06,1.31,-2.06,2.06,2.14,4.52,3.37,3.37,3.37
35.27,1.40,-1.96,1.40,-1.96,1.95,2.01,4.40,3.35,3.35,3.36
35.62,1.50,-1.86,1.49,-1.87,1.84,1.89,4.28,3.34,3.33,3.36
35.97,1.59,-1.77,1.60,-1.75,1.73,1.76,4.15,3.32,3.33,3.36
36.33,1.72,-1.64,1.72,-1.63,1.63,1.63,4.02,3.35,3.35,3.36
36.70,1.85,-1.50,1.84,-1.51,1.52,1.51,3.89,3.37,3.37,3.35
37.06,1.97,-1.38,1.96,-1.39,1.42,1.38,3.75,3.39,3.38,3.35
37.43,2.05,-1.31,2.05,-1.30,1.32,1.26,3.61,3.37,3.37,3.36
37.81,2.13,-1.23,2.14,-1.22,1.23,1.13,3.47,3.36,3.37,3.36
38.19,2.22,-1.13,2.22,-1.14,1.14,1.01,3.33,3.36,3.36,3.35
38.57,2.31,-1.05,2.31,-1.05,1.04,0.89,3.19,3.35,3.35,3.36
38.95,2.40,-0.97,2.39,-0.97,0.93,0.78,3.05,3.33,3.33,3.37
39.34,2.48,-0.88,2.47,-0.89,0.83,0.66,2.90,3.31,3.30,3.36
39.74,2.56,-0.80,2.56,-0.79,0.74,0.55,2.76,3.30,3.31,3.36
40.14,2.67,-0.69,2.71,-0.65,0.66,0.43,2.62,3.33,3.37,3.36
40.54,2.85,-0.51,2.86,-0.50,0.59,0.32,2.48,3.44,3.45,3.36
40.94,3.03,-0.32,2.94,-0.41,0.53,0.22,2.33,3.55,3.47,3.35
41.35,2.96,-0.39,2.94,-0.41,0.46,0.11,2.19,3.41,3.40,3.35
41.76,2.85,-0.49,2.90,-0.44,0.39,0.01,2.05,3.24,3.29,3.34
42.18,2.85,-0.49,2.90,-0.44,0.32,-0.09,1.91,3.17,3.22,3.34
42.60,3.00,-0.33,2.99,-0.34,0.25,-0.18,1.77,3.25,3.24,3.33
43.03,3.16,-0.16,3.12,-0.20,0.17,-0.28,1.64,3.33,3.30,3.32
43.46,3.24,-0.07,3.24,-0.06,0.09,-0.36,1.50,3.33,3.33,3.31
43.90,3.32,0.03,3.32,0.04,0.00,-0.45,1.36,3.32,3.33,3.29
44.33,3.39,0.12,3.39,0.12,-0.09,-0.53,1.23,3.30,3.30,3.27
44.78,3.46,0.21,3.46,0.21,-0.17,-0.61,1.09,3.28,3.28,3.25
45.23,3.51,0.27,3.52,0.28,-0.24,-0.68,0.96,3.26,3.27,3.24
45.68,3.56,0.33,3.55,0.33,-0.30,-0.75,0.83,3.26,3.25,3.23
46.13,3.58,0.37,3.55,0.33,-0.35,-0.82,0.70,3.23,3.20,3.21
46.60,3.54,0.33,3.55,0.35,-0.39,-0.88,0.57,3.15,3.15,3.21
47.06,3.53,0.34,3.58,0.39,-0.45,-0.94,0.44,3.08,3.14,3.19
47.53,3.66,0.48,3.65,0.47,-0.50,-1.00,0.31,3.15,3.15,3.18
48.01,3.79,0.61,3.74,0.57,-0.57,-1.05,0.18,3.22,3.17,3.18
48.49,3.80,0.64,3.81,0.65,-0.64,-1.09,0.05,3.16,3.17,3.16
48.97,3.82,0.68,3.85,0.71,-0.70,-1.13,-0.07,3.12,3.15,3.14
49.46,3.89,0.77,3.88,0.77,-0.76,-1.17,-0.19,3.13,3.13,3.12
49.96,3.95,0.85,3.94,0.84,-0.80,-1.21,-0.32,3.15,3.14,3.10
50.46,3.97,0.88,3.98,0.89,-0.83,-1.24,-0.44,3.14,3.15,3.09
50.96,3.99,0.91,3.95,0.88,-0.86,-1.27,-0.56,3.13,3.10,3.08
51.47,3.92,0.86,3.92,0.86,-0.88,-1.29,-0.68,3.04,3.04,3.06
51.99,3.85,0.80,3.89,0.84,-0.91,-1.31,-0.79,2.94,2.99,3.05
52.51,3.91,0.87,3.90,0.86,-0.93,-1.33,-0.91,2.97,2.97,3.04
53.03,3.97,0.93,3.96,0.93,-0.96,-1.35,-1.02,3.01,3.00,3.04
53.56,4.04,1.02,4.03,1.02,-0.99,-1.36,-1.13,3.05,3.04,3.02
54.10,4.09,1.08,4.07,1.07,-1.02,-1.37,-1.24,3.06,3.05,3.01
54.64,4.09,1.10,4.09,1.10,-1.06,-1.38,-1.34,3.03,3.03,2.99
55.18,4.09,1.10,4.09,1.11,-1.10,-1.38,-1.44,2.99,2.99,2.99
55.74,4.09,1.12,4.09,1.12,-1.12,-1.39,-1.54,2.96,2.96,2.97
56.29,4.09,1.13,4.09,1.13,-1.14,-1.39,-1.63,2.95,2.95,2.96
56.86,4.09,1.14,4.09,1.15,-1.15,-1.39,-1.73,2.94,2.94,2.95
57.42,4.09,1.17,4.09,1.16,-1.17,-1.39,-1.81,2.92,2.92,2.92
58.00,4.09,1.18,4.09,1.18,-1.19,-1.39,-1.89,2.90,2.90,2.91
58.58,4.09,1.19,4.08,1.19,-1.22,-1.39,-1.97,2.87,2.87,2.90
59.16,4.09,1.21,4.08,1.21,-1.24,-1.39,-2.04,2.84,2.84,2.88
59.76,4.09,1.23,4.12,1.27,-1.27,-1.38,-2.11,2.82,2.85,2.86
60.35,4.14,1.32,4.15,1.33,-1.29,-1.38,-2.17,2.85,2.87,2.82
60.96,4.22,1.44,4.14,1.36,-1.31,-1.38,-2.23,2.91,2.84,2.78
61.57,4.09,1.35,4.10,1.36,-1.33,-1.38,-2.28,2.76,2.77,2.74
62.18,3.99,1.29,4.04,1.34,-1.36,-1.38,-2.32,2.63,2.68,2.70
62.80,3.99,1.34,3.98,1.33,-1.40,-1.38,-2.36,2.59,2.58,2.65
63.43,3.99,1.38,3.98,1.37,-1.43,-1.38,-2.40,2.55,2.54,2.61
64.07,3.99,1.43,3.98,1.42,-1.46,-1.38,-2.43,2.52,2.52,2.56
64.71,3.99,1.47,4.01,1.50,-1.49,-1.38,-2.45,2.50,2.53,2.52
65.35,4.03,1.55,4.04,1.57,-1.51,-1.39,-2.47,2.52,2.54,2.48
66.01,4.09,1.66,4.04,1.62,-1.52,-1.39,-2.48,2.57,2.52,2.43
66.67,4.00,1.62,3.99,1.61,-1.54,-1.40,-2.49,2.46,2.45,2.38
67.33,3.89,1.56,3.89,1.56,-1.56,-1.41,-2.49,2.32,2.32,2.33
68.01,3.75,1.46,3.78,1.50,-1.58,-1.42,-2.49,2.16,2.20,2.29
68.69,3.73,1.49,3.74,1.50,-1.60,-1.44,-2.49,2.13,2.14,2.24
69.37,3.75,1.56,3.74,1.55,-1.61,-1.45,-2.48,2.13,2.12,2.19
70.07,3.79,1.65,3.78,1.64,-1.62,-1.47,-2.47,2.16,2.15,2.14
70.77,3.79,1.70,3.83,1.74,-1.64,-1.49,-2.46,2.15,2.18,2.09
71.48,3.83,1.79,3.79,1.76,-1.68,-1.51,-2.45,2.15,2.12,2.04
72.19,3.80,1.83,3.71,1.74,-1.72,-1.54,-2.43,2.08,1.99,1.97
72.91,3.51,1.60,3.63,1.71,-1.76,-1.56,-2.41,1.75,1.87,1.91
73.64,3.55,1.69,3.56,1.71,-1.79,-1.59,-2.39,1.76,1.77,1.86
74.38,3.59,1.79,3.55,1.75,-1.82,-1.62,-2.37,1.77,1.73,1.80
75.12,3.59,1.85,3.59,1.86,-1.84,-1.66,-2.35,1.75,1.76,1.74
75.87,3.59,1.91,3.58,1.90,-1.85,-1.69,-2.33,1.74,1.73,1.68
76.63,3.55,1.92,3.55,1.92,-1.87,-1.72,-2.30,1.68,1.68,1.63
77.40,3.50,1.92,3.50,1.93,-1.89,-1.76,-2.28,1.61,1.61,1.58
78.17,3.45,1.93,3.45,1.93,-1.92,-1.79,-2.26,1.53,1.54,1.52
78.95,3.39,1.91,3.39,1.91,-1.94,-1.83,-2.24,1.44,1.44,1.48
79.74,3.35,1.92,3.31,1.88,-1.96,-1.86,-2.22,1.39,1.35,1.43
80.54,3.23,1.85,3.27,1.89,-1.96,-1.90,-2.20,1.27,1.31,1.38
81.35,3.23,1.90,3.29,1.97,-1.96,-1.93,-2.18,1.27,1.34,1.33
82.16,3.38,2.10,3.33,2.05,-1.97,-1.96,-2.16,1.41,1.36,1.28
82.98,3.38,2.14,3.32,2.08,-1.99,-1.99,-2.14,1.39,1.32,1.24
83.81,3.23,2.04,3.22,2.03,-2.01,-2.01,-2.13,1.21,1.20,1.19
84.65,3.03,1.89,3.08,1.94,-2.03,-2.03,-2.12,1.00,1.05,1.14
85.50,2.99,1.89,3.02,1.93,-2.04,-2.05,-2.10,0.95,0.99,1.10
86.35,3.07,2.02,3.09,2.04,-2.03,-2.07,-2.09,1.04,1.06,1.05
87.22,3.15,2.15,3.11,2.11,-2.02,-2.08,-2.09,1.12,1.09,1.00
88.09,3.19,2.24,3.03,2.09,-2.02,-2.08,-2.08,1.16,1.01,0.95
88.97,2.78,1.89,2.92,2.03,-2.03,-2.09,-2.07,0.75,0.89,0.89
89.86,2.75,1.91,2.81,1.97,-2.03,-2.09,-2.07,0.72,0.78,0.84
90.76,2.82,2.03,2.75,1.97,-2.03,-2.08,-2.07,0.79,0.72,0.79
91.66,2.80,2.06,2.78,2.05,-2.02,-2.08,-2.07,0.78,0.76,0.74
92.58,2.73,2.05,2.75,2.07,-2.02,-2.07,-2.07,0.70,0.73,0.68
93.51,2.69,2.06,2.67,2.04,-2.04,-2.06,-2.07,0.65,0.62,0.63
94.44,2.61,2.02,2.58,1.99,-2.06,-2.05,-2.08,0.54,0.51,0.59
95.39,2.49,1.95,2.56,2.02,-2.08,-2.04,-2.08,0.41,0.48,0.54
96.34,2.54,2.05,2.59,2.10,-2.08,-2.02,-2.09,0.46,0.51,0.49
97.30,2.70,2.26,2.61,2.18,-2.08,-2.01,-2.10,0.62,0.54,0.44
98.28,2.63,2.24,2.58,2.19,-2.09,-2.00,-2.11,0.54,0.49,0.39
99.26,2.42,2.07,2.44,2.10,-2.11,-1.99,-2.12,0.31,0.33,0.35
100.25,2.26,1.96,2.29,2.00,-2.12,-1.98,-2.13,0.13,0.17,0.30
101.25,2.20,1.95,2.25,2.01,-2.12,-1.97,-2.15,0.07,0.13,0.25
102.27,2.32,2.12,2.31,2.11,-2.12,-1.96,-2.16,0.20,0.19,0.20
103.29,2.40,2.25,2.36,2.21,-2.11,-1.95,-2.18,0.29,0.26,0.15
104.32,2.38,2.27,2.33,2.22,-2.10,-1.95,-2.19,0.28,0.23,0.11
105.37,2.18,2.12,2.17,2.12,-2.10,-1.94,-2.21,0.08,0.07,0.06
106.42,1.99,1.98,2.02,2.02,-2.10,-1.94,-2.23,-0.11,-0.08,0.01
107.48,1.87,1.92,1.98,2.03,-2.09,-1.94,-2.25,-0.22,-0.11,-0.05
108.56,2.01,2.11,1.98,2.08,-2.06,-1.94,-2.26,-0.05,-0.08,-0.10
109.64,2.08,2.23,1.92,2.07,-2.03,-1.94,-2.28,0.05,-0.11,-0.15
110.74,1.77,1.98,1.82,2.03,-2.00,-1.94,-2.30,-0.23,-0.18,-0.21
111.85,1.58,1.83,1.70,1.96,-1.99,-1.95,-2.32,-0.41,-0.29,-0.25
112.97,1.67,1.98,1.62,1.93,-2.00,-1.95,-2.33,-0.33,-0.38,-0.31
114.10,1.68,2.04,1.62,1.98,-2.00,-1.96,-2.35,-0.33,-0.38,-0.36
115.24,1.59,2.00,1.61,2.02,-2.00,-1.97,-2.37,-0.41,-0.40,-0.41
116.39,1.53,1.99,1.55,2.01,-2.00,-1.98,-2.38,-0.47,-0.45,-0.46
117.55,1.51,2.01,1.51,2.01,-2.00,-1.99,-2.39,-0.49,-0.49,-0.50
118.73,1.50,2.04,1.48,2.02,-2.00,-2.00,-2.40,-0.50,-0.52,-0.54
119.92,1.43,2.00,1.44,2.01,-1.99,-2.02,-2.41,-0.56,-0.55,-0.57
121.12,1.38,1.99,1.38,1.99,-1.98,-2.03,-2.42,-0.60,-0.60,-0.61
122.33,1.32,1.96,1.32,1.96,-1.96,-2.04,-2.43,-0.64,-0.64,-0.64
123.55,1.26,1.93,1.26,1.93,-1.94,-2.06,-2.43,-0.69,-0.69,-0.67
124.79,1.21,1.91,1.20,1.90,-1.94,-2.08,-2.44,-0.73,-0.74,-0.70
126.03,1.15,1.88,1.17,1.90,-1.94,-2.09,-2.44,-0.79,-0.77,-0.73
127.29,1.16,1.91,1.16,1.92,-1.94,-2.11,-2.44,-0.78,-0.79,-0.75
128.57,1.17,1.96,1.16,1.95,-1.94,-2.13,-2.44,-0.78,-0.78,-0.79
129.85,1.17,1.99,1.17,1.99,-1.95,-2.14,-2.43,-0.78,-0.77,-0.82
131.15,1.17,2.02,1.16,2.01,-1.95,-2.16,-2.43,-0.78,-0.80,-0.85
132.46,1.12,2.00,1.11,1.99,-1.96,-2.18,-2.42,-0.84,-0.86,-0.88
133.79,1.05,1.96,1.04,1.96,-1.97,-2.20,-2.41,-0.92,-0.93,-0.91
135.12,0.96,1.90,0.99,1.93,-1.98,-2.22,-2.40,-1.02,-0.98,-0.94
136.48,0.98,1.94,0.97,1.94,-1.99,-2.24,-2.39,-1.01,-1.01,-0.96
137.84,0.99,1.99,0.98,1.98,-2.00,-2.25,-2.38,-1.01,-1.02,-1.00
139.22,1.00,2.03,1.00,2.03,-2.02,-2.27,-2.36,-1.02,-1.02,-1.03
140.61,1.00,2.06,1.00,2.06,-2.04,-2.29,-2.35,-1.04,-1.04,-1.06
142.02,1.00,2.08,1.00,2.09,-2.07,-2.31,-2.34,-1.07,-1.07,-1.08
143.44,1.00,2.11,1.00,2.12,-2.09,-2.33,-2.32,-1.09,-1.09,-1.11
144.87,1.00,2.15,1.01,2.16,-2.13,-2.35,-2.31,-1.13,-1.12,-1.15
146.32,1.00,2.19,1.00,2.19,-2.17,-2.37,-2.29,-1.17,-1.17,-1.19
147.78,1.00,2.22,0.95,2.17,-2.21,-2.39,-2.28,-1.21,-1.26,-1.22
149.26,0.90,2.17,0.91,2.19,-2.25,-2.41,-2.27,-1.36,-1.34,-1.27
150.75,0.84,2.17,0.92,2.26,-2.31,-2.42,-2.25,-1.47,-1.39,-1.33
152.26,1.00,2.40,0.99,2.39,-2.38,-2.44,-2.24,-1.38,-1.40,-1.40
153.78,1.10,2.57,1.04,2.51,-2.47,-2.46,-2.23,-1.37,-1.43,-1.47
155.32,1.07,2.61,1.03,2.57,-2.56,-2.48,-2.22,-1.49,-1.53,-1.54
156.88,0.91,2.53,0.96,2.59,-2.64,-2.49,-2.21,-1.73,-1.68,-1.62
158.44,0.90,2.60,0.96,2.66,-2.71,-2.51,-2.20,-1.81,-1.75,-1.70
160.03,1.00,2.78,1.01,2.79,-2.74,-2.53,-2.19,-1.74,-1.73,-1.78
161.63,1.11,2.96,1.01,2.86,-2.75,-2.54,-2.18,-1.64,-1.74,-1.85
163.24,0.99,2.90,0.93,2.84,-2.74,-2.56,-2.18,-1.75,-1.81,-1.91
164.88,0.66,2.62,0.80,2.76,-2.71,-2.58,-2.18,-2.05,-1.92,-1.96
166.53,0.65,2.66,0.61,2.62,-2.69,-2.59,-2.17,-2.04,-2.08,-2.01
168.19,0.57,2.62,0.48,2.54,-2.65,-2.61,-2.17,-2.09,-2.17,-2.05
169.87,0.35,2.44,0.47,2.56,-2.62,-2.62,-2.17,-2.27,-2.15,-2.09
171.57,0.44,2.55,0.44,2.55,-2.58,-2.64,-2.18,-2.14,-2.14,-2.11
173.29,0.55,2.67,0.45,2.58,-2.57,-2.65,-2.18,-2.02,-2.11,-2.12
175.02,0.45,2.58,0.48,2.61,-2.57,-2.66,-2.19,-2.12,-2.09,-2.13
176.77,0.45,2.59,0.46,2.61,-2.59,-2.68,-2.20,-2.15,-2.13,-2.14
178.54,0.45,2.60,0.46,2.61,-2.63,-2.69,-2.21,-2.18,-2.16,-2.15
180.32,0.52,2.66,0.51,2.65,-2.65,-2.70,-2.22,-2.14,-2.15,-2.14
182.13,0.56,2.69,0.54,2.68,-2.68,-2.71,-2.23,-2.12,-2.13,-2.13
183.95,0.57,2.71,0.57,2.71,-2.70,-2.72,-2.24,-2.13,-2.13,-2.14
185.79,0.58,2.72,0.58,2.73,-2.72,-2.74,-2.26,-2.15,-2.14,-2.14
187.65,0.60,2.76,0.59,2.75,-2.75,-2.75,-2.28,-2.15,-2.16,-2.16
189.52,0.61,2.78,0.61,2.78,-2.79,-2.76,-2.30,-2.18,-2.18,-2.17
191.42,0.62,2.81,0.62,2.82,-2.83,-2.77,-2.32,-2.21,-2.21,-2.19
193.33,0.64,2.85,0.64,2.85,-2.87,-2.78,-2.34,-2.24,-2.24,-2.21
195.27,0.65,2.88,0.64,2.88,-2.91,-2.78,-2.36,-2.26,-2.27,-2.23
197.22,0.67,2.92,0.67,2.92,-2.94,-2.79,-2.39,-2.27,-2.27,-2.25
199.19,0.68,2.95,0.73,3.00,-2.95,-2.80,-2.42,-2.27,-2.22,-2.27
201.18,0.77,3.06,0.74,3.04,-2.95,-2.81,-2.44,-2.19,-2.21,-2.29
203.19,0.79,3.10,0.70,3.02,-2.95,-2.81,-2.47,-2.16,-2.25,-2.31
205.23,0.58,2.91,0.63,2.96,-2.95,-2.82,-2.50,-2.37,-2.32,-2.33
207.28,0.50,2.84,0.54,2.88,-2.95,-2.83,-2.53,-2.45,-2.41,-2.34
209.35,0.52,2.88,0.48,2.85,-2.95,-2.83,-2.56,-2.43,-2.47,-2.36
211.44,0.48,2.87,0.51,2.89,-2.95,-2.84,-2.59,-2.47,-2.44,-2.39
213.56,0.55,2.95,0.54,2.94,-2.95,-2.84,-2.62,-2.40,-2.41,-2.40
215.69,0.58,2.99,0.56,2.97,-2.95,-2.84,-2.65,-2.37,-2.39,-2.41
217.85,0.58,3.00,0.59,3.01,-2.96,-2.85,-2.68,-2.38,-2.38,-2.42
220.03,0.57,3.00,0.59,3.03,-2.98,-2.85,-2.71,-2.41,-2.39,-2.43
222.23,0.57,3.03,0.54,2.99,-2.99,-2.85,-2.74,-2.42,-2.45,-2.46
224.45,0.52,2.97,0.46,2.92,-2.96,-2.85,-2.76,-2.45,-2.50,-2.45
226.70,0.34,2.79,0.44,2.90,-2.91,-2.85,-2.79,-2.57,-2.47,-2.45
228.96,0.38,2.82,0.43,2.88,-2.84,-2.85,-2.81,-2.46,-2.40,-2.44
231.25,0.54,2.97,0.39,2.82,-2.74,-2.85,-2.84,-2.20,-2.36,-2.43
233.57,0.32,2.74,0.32,2.74,-2.64,-2.85,-2.86,-2.32,-2.32,-2.42
235.90,0.08,2.49,0.16,2.57,-2.55,-2.85,-2.88,-2.47,-2.39,-2.41
238.26,0.04,2.44,0.01,2.40,-2.48,-2.85,-2.89,-2.44,-2.47,-2.40
240.64,-0.07,2.30,-0.02,2.35,-2.44,-2.85,-2.91,-2.51,-2.46,-2.37
243.05,0.01,2.35,-0.04,2.31,-2.42,-2.84,-2.92,-2.42,-2.46,-2.34
245.48,0.05,2.37,-0.01,2.31,-2.43,-2.84,-2.93,-2.38,-2.44,-2.32
247.93,-0.00,2.29,0.15,2.45,-2.46,-2.84,-2.94,-2.46,-2.31,-2.29
250.41,0.31,2.58,0.31,2.58,-2.52,-2.83,-2.94,-2.21,-2.21,-2.27
252.92,0.62,2.86,0.45,2.69,-2.60,-2.83,-2.94,-1.98,-2.16,-2.24
255.45,0.48,2.70,0.54,2.77,-2.68,-2.82,-2.94,-2.20,-2.14,-2.22
258.00,0.50,2.70,0.55,2.75,-2.73,-2.82,-2.94,-2.24,-2.19,-2.20
260.58,0.55,2.73,0.55,2.73,-2.76,-2.81,-2.93,-2.21,-2.22,-2.18
263.19,0.63,2.78,0.61,2.77,-2.76,-2.81,-2.92,-2.13,-2.15,-2.15
265.82,0.66,2.79,0.67,2.80,-2.73,-2.80,-2.91,-2.08,-2.07,-2.13
268.48,0.66,2.77,0.65,2.76,-2.71,-2.79,-2.90,-2.05,-2.06,-2.11
271.16,0.65,2.73,0.57,2.65,-2.69,-2.78,-2.88,-2.04,-2.12,-2.08
273.87,0.46,2.52,0.52,2.58,-2.67,-2.78,-2.86,-2.21,-2.15,-2.06
276.61,0.45,2.48,0.54,2.58,-2.67,-2.77,-2.84,-2.22,-2.12,-2.03
279.38,0.69,2.69,0.61,2.62,-2.66,-2.76,-2.82,-1.97,-2.05,-2.00
282.17,0.75,2.73,0.72,2.70,-2.65,-2.75,-2.80,-1.90,-1.93,-1.98
284.99,0.76,2.70,0.78,2.73,-2.65,-2.74,-2.78,-1.89,-1.87,-1.94
287.84,0.77,2.69,0.77,2.69,-2.66,-2.73,-2.76,-1.89,-1.89,-1.92
290.72,0.78,2.67,0.78,2.67,-2.67,-2.72,-2.74,-1.89,-1.89,-1.89
293.63,0.79,2.65,0.79,2.65,-2.66,-2.71,-2.71,-1.87,-1.87,-1.86
296.57,0.80,2.63,0.80,2.63,-2.64,-2.70,-2.69,-1.85,-1.85,-1.83
299.53,0.81,2.61,0.82,2.62,-2.62,-2.69,-2.67,-1.81,-1.80,-1.80
302.53,0.83,2.61,0.82,2.60,-2.59,-2.68,-2.65,-1.76,-1.77,-1.78
305.55,0.84,2.58,0.81,2.56,-2.57,-2.67,-2.62,-1.73,-1.76,-1.74
308.61,0.80,2.52,0.82,2.54,-2.56,-2.66,-2.60,-1.76,-1.74,-1.72
311.69,0.79,2.48,0.83,2.53,-2.54,-2.65,-2.58,-1.76,-1.71,-1.69
314.81,0.90,2.57,0.85,2.53,-2.53,-2.64,-2.57,-1.63,-1.68,-1.67
317.96,0.89,2.54,0.88,2.53,-2.52,-2.63,-2.55,-1.63,-1.64,-1.65
321.14,0.86,2.50,0.88,2.52,-2.50,-2.62,-2.53,-1.64,-1.62,-1.64
324.35,0.86,2.48,0.86,2.48,-2.47,-2.61,-2.52,-1.61,-1.61,-1.62
327.59,0.86,2.47,0.86,2.47,-2.45,-2.60,-2.50,-1.59,-1.60,-1.61
330.87,0.85,2.45,0.86,2.46,-2.43,-2.59,-2.49,-1.58,-1.58,-1.60
334.18,0.85,2.43,0.83,2.41,-2.42,-2.58,-2.48,-1.57,-1.60,-1.58
337.52,0.82,2.39,0.80,2.37,-2.41,-2.57,-2.48,-1.60,-1.62,-1.57
340.90,0.74,2.30,0.80,2.36,-2.42,-2.57,-2.47,-1.68,-1.61,-1.56
344.30,0.84,2.39,0.84,2.39,-2.42,-2.56,-2.47,-1.59,-1.59,-1.55
347.75,0.93,2.48,0.89,2.44,-2.44,-2.55,-2.46,-1.51,-1.54,-1.55
351.23,0.95,2.49,0.95,2.50,-2.45,-2.54,-2.46,-1.50,-1.50,-1.54
354.74,0.95,2.50,0.96,2.51,-2.46,-2.53,-2.47,-1.51,-1.50,-1.55
358.28,0.96,2.50,0.96,2.50,-2.48,-2.52,-2.47,-1.52,-1.53,-1.54
361.87,0.96,2.50,0.97,2.51,-2.50,-2.52,-2.47,-1.54,-1.53,-1.54
365.49,0.97,2.50,0.96,2.49,-2.52,-2.51,-2.48,-1.55,-1.56,-1.53
369.14,0.98,2.52,0.94,2.48,-2.53,-2.50,-2.49,-1.55,-1.59,-1.54
372.83,0.90,2.44,0.97,2.52,-2.54,-2.50,-2.50,-1.64,-1.57,-1.54
376.56,0.99,2.54,1.01,2.55,-2.55,-2.49,-2.51,-1.56,-1.54,-1.55
380.33,1.13,2.67,1.04,2.58,-2.57,-2.49,-2.53,-1.44,-1.53,-1.54
384.13,1.04,2.58,1.06,2.60,-2.58,-2.49,-2.54,-1.54,-1.52,-1.54
387.97,1.01,2.56,1.04,2.59,-2.58,-2.48,-2.56,-1.58,-1.55,-1.55
391.85,1.01,2.57,1.03,2.59,-2.59,-2.48,-2.58,-1.58,-1.56,-1.56
395.77,1.06,2.61,1.04,2.60,-2.58,-2.48,-2.60,-1.52,-1.54,-1.55
399.73,1.07,2.63,1.02,2.59,-2.57,-2.48,-2.62,-1.50,-1.55,-1.56
403.72,0.96,2.52,0.98,2.55,-2.56,-2.48,-2.65,-1.60,-1.58,-1.56
407.76,0.91,2.49,0.93,2.51,-2.54,-2.48,-2.67,-1.63,-1.61,-1.58
411.84,0.91,2.49,0.91,2.50,-2.52,-2.48,-2.69,-1.61,-1.60,-1.58
415.96,0.92,2.50,0.92,2.51,-2.49,-2.48,-2.72,-1.58,-1.57,-1.58
420.12,0.96,2.54,0.92,2.50,-2.47,-2.48,-2.75,-1.51,-1.55,-1.58
424.32,0.88,2.46,0.88,2.46,-2.44,-2.49,-2.77,-1.56,-1.56,-1.58
428.56,0.83,2.40,0.85,2.43,-2.42,-2.49,-2.80,-1.60,-1.57,-1.57
432.85,0.83,2.39,0.83,2.40,-2.41,-2.50,-2.82,-1.59,-1.58,-1.56
437.18,0.86,2.41,0.85,2.40,-2.41,-2.50,-2.85,-1.56,-1.56,-1.55
441.55,0.90,2.41,0.87,2.39,-2.42,-2.51,-2.87,-1.52,-1.55,-1.51
445.96,0.91,2.39,0.92,2.40,-2.44,-2.52,-2.89,-1.53,-1.52,-1.48
450.42,0.95,2.40,0.99,2.44,-2.46,-2.53,-2.91,-1.51,-1.47,-1.45
454.93,1.11,2.51,1.09,2.49,-2.49,-2.53,-2.94,-1.38,-1.40,-1.40
459.48,1.21,2.57,1.19,2.55,-2.52,-2.54,-2.95,-1.31,-1.33,-1.36
464.07,1.28,2.59,1.28,2.59,-2.55,-2.55,-2.97,-1.27,-1.27,-1.31
468.71,1.33,2.58,1.33,2.59,-2.57,-2.56,-2.98,-1.25,-1.24,-1.25
473.40,1.38,2.59,1.39,2.59,-2.59,-2.58,-3.00,-1.21,-1.21,-1.21
478.13,1.44,2.59,1.44,2.60,-2.60,-2.59,-3.00,-1.16,-1.16,-1.15
482.91,1.50,2.61,1.49,2.60,-2.60,-2.60,-3.01,-1.10,-1.12,-1.11
487.74,1.52,2.59,1.53,2.60,-2.60,-2.61,-3.01,-1.08,-1.07,-1.07
492.62,1.56,2.58,1.56,2.59,-2.59,-2.62,-3.01,-1.03,-1.03,-1.02
497.55,1.60,2.60,1.59,2.59,-2.59,-2.64,-3.01,-0.99,-0.99,-1.00
502.52,1.62,2.59,1.62,2.60,-2.59,-2.65,-3.00,-0.98,-0.98,-0.97
