frequency,raw,error,smoothed,error_smoothed,equalization,parametric_eq,fixed_band_eq,equalized_raw,equalized_smoothed,target
20.00,-5.33,-12.16,-5.32,-12.19,12.19,12.70,4.76,6.86,6.86,6.84
20.20,-5.26,-12.13,-5.25,-12.14,12.14,12.62,4.88,6.89,6.89,6.88
20.40,-5.17,-12.09,-5.18,-12.10,12.10,12.54,5.01,6.93,6.92,6.92
20.61,-5.11,-12.06,-5.11,-12.06,12.06,12.46,5.14,6.95,6.95,6.95
20.81,-5.03,-12.02,-5.03,-12.01,12.01,12.37,5.28,6.98,6.98,6.99
21.02,-4.96,-11.98,-4.96,-11.97,11.97,12.29,5.41,7.01,7.01,7.03
21.23,-4.89,-11.93,-4.89,-11.92,11.92,12.21,5.56,7.03,7.03,7.05
21.44,-4.81,-11.88,-4.81,-11.87,11.87,12.13,5.70,7.05,7.05,7.07
21.66,-4.74,-11.83,-4.74,-11.81,11.81,12.05,5.85,7.08,7.07,7.09
21.87,-4.66,-11.76,-4.67,-11.76,11.76,11.97,6.00,7.10,7.09,7.10
22.09,-4.59,-11.71,-4.59,-11.70,11.70,11.89,6.16,7.11,7.11,7.12
22.31,-4.52,-11.65,-4.52,-11.65,11.65,11.81,6.33,7.12,7.13,7.13
22.54,-4.45,-11.59,-4.44,-11.59,11.59,11.73,6.49,7.14,7.14,7.14
22.76,-4.37,-11.52,-4.37,-11.52,11.52,11.65,6.66,7.15,7.15,7.15
22.99,-4.30,-11.44,-4.30,-11.46,11.46,11.57,6.84,7.16,7.16,7.15
23.22,-4.23,-11.38,-4.22,-11.39,11.39,11.49,7.02,7.17,7.17,7.16
23.45,-4.14,-11.31,-4.15,-11.33,11.33,11.42,7.20,7.18,7.18,7.17
23.69,-4.08,-11.26,-4.08,-11.26,11.26,11.34,7.39,7.18,7.19,7.18
23.92,-3.99,-11.18,-4.00,-11.20,11.20,11.26,7.59,7.20,7.19,7.19
24.16,-3.92,-11.13,-3.93,-11.13,11.13,11.19,7.78,7.20,7.20,7.21
24.40,-3.85,-11.08,-3.85,-11.06,11.06,11.12,7.99,7.21,7.21,7.23
24.65,-3.78,-11.00,-3.78,-11.00,11.00,11.04,8.19,7.22,7.22,7.22
24.89,-3.70,-10.93,-3.70,-10.94,10.94,10.97,8.40,7.23,7.23,7.23
25.14,-3.63,-10.87,-3.63,-10.87,10.87,10.90,8.62,7.24,7.24,7.24
25.39,-3.55,-10.80,-3.55,-10.81,10.81,10.83,8.84,7.25,7.25,7.25
25.65,-3.48,-10.74,-3.48,-10.74,10.74,10.76,9.06,7.27,7.26,7.27
25.91,-3.41,-10.68,-3.40,-10.68,10.68,10.70,9.28,7.27,7.27,7.27
26.16,-3.32,-10.60,-3.33,-10.61,10.61,10.63,9.51,7.29,7.28,7.28
26.43,-3.26,-10.55,-3.26,-10.55,10.55,10.56,9.73,7.29,7.29,7.29
26.69,-3.19,-10.48,-3.18,-10.48,10.48,10.50,9.96,7.30,7.30,7.30
26.96,-3.11,-10.43,-3.11,-10.42,10.42,10.43,10.19,7.31,7.31,7.32
27.23,-3.04,-10.37,-3.03,-10.35,10.35,10.37,10.41,7.32,7.32,7.33
27.50,-2.96,-10.28,-2.96,-10.29,10.29,10.31,10.64,7.33,7.33,7.33
27.77,-2.88,-10.21,-2.88,-10.22,10.22,10.25,10.85,7.34,7.34,7.33
28.05,-2.81,-10.16,-2.81,-10.16,10.16,10.18,11.07,7.34,7.35,7.35
28.33,-2.73,-10.08,-2.74,-10.09,10.09,10.12,11.27,7.36,7.35,7.35
28.62,-2.67,-10.03,-2.66,-10.03,10.03,10.06,11.46,7.36,7.36,7.36
28.90,-2.59,-9.96,-2.59,-9.96,9.96,10.01,11.65,7.37,7.37,7.37
29.19,-2.52,-9.88,-2.52,-9.90,9.90,9.95,11.81,7.38,7.38,7.37
29.48,-2.44,-9.84,-2.45,-9.83,9.83,9.89,11.97,7.39,7.38,7.40
29.78,-2.38,-9.77,-2.38,-9.77,9.77,9.83,12.10,7.39,7.39,7.39
30.08,-2.31,-9.71,-2.31,-9.70,9.70,9.78,12.21,7.40,7.40,7.40
30.38,-2.24,-9.64,-2.24,-9.64,9.64,9.72,12.30,7.40,7.40,7.40
30.68,-2.17,-9.58,-2.17,-9.58,9.58,9.66,12.37,7.41,7.41,7.42
30.99,-2.10,-9.52,-2.10,-9.52,9.52,9.61,12.42,7.42,7.42,7.42
31.30,-2.04,-9.46,-2.03,-9.46,9.46,9.55,12.43,7.42,7.43,7.42
31.61,-1.97,-9.39,-1.97,-9.40,9.40,9.50,12.43,7.43,7.43,7.43
31.93,-1.91,-9.35,-1.90,-9.34,9.34,9.44,12.40,7.43,7.44,7.44
32.24,-1.83,-9.27,-1.83,-9.28,9.28,9.39,12.34,7.45,7.45,7.44
32.57,-1.77,-9.23,-1.77,-9.23,9.23,9.33,12.26,7.46,7.46,7.46
32.89,-1.69,-9.15,-1.71,-9.17,9.17,9.28,12.16,7.47,7.46,7.46
33.22,-1.64,-9.10,-1.64,-9.11,9.11,9.23,12.05,7.48,7.47,7.47
33.55,-1.57,-9.05,-1.58,-9.05,9.05,9.17,11.91,7.48,7.48,7.48
33.89,-1.52,-9.00,-1.51,-8.99,8.99,9.12,11.76,7.48,7.48,7.49
34.23,-1.46,-8.94,-1.45,-8.94,8.94,9.07,11.60,7.48,7.49,7.49
34.57,-1.39,-8.88,-1.38,-8.88,8.88,9.01,11.43,7.49,7.50,7.50
34.92,-1.33,-8.83,-1.32,-8.82,8.82,8.96,11.25,7.49,7.50,7.50
35.27,-1.26,-8.77,-1.25,-8.76,8.76,8.90,11.07,7.50,7.51,7.51
35.62,-1.19,-8.70,-1.19,-8.70,8.70,8.85,10.88,7.51,7.51,7.51
35.97,-1.11,-8.62,-1.12,-8.63,8.63,8.80,10.69,7.52,7.51,7.51
36.33,-1.05,-8.57,-1.06,-8.57,8.57,8.74,10.49,7.52,7.51,7.52
36.70,-0.99,-8.50,-0.99,-8.51,8.51,8.69,10.30,7.52,7.52,7.51
37.06,-0.92,-8.44,-0.93,-8.44,8.44,8.63,10.10,7.52,7.52,7.52
37.43,-0.86,-8.38,-0.86,-8.38,8.38,8.58,9.91,7.51,7.52,7.52
37.81,-0.80,-8.31,-0.80,-8.31,8.31,8.52,9.72,7.52,7.51,7.52
38.19,-0.74,-8.26,-0.74,-8.25,8.25,8.47,9.54,7.52,7.51,7.52
38.57,-0.68,-8.18,-0.68,-8.19,8.19,8.41,9.35,7.51,7.51,7.51
38.95,-0.61,-8.12,-0.62,-8.13,8.13,8.35,9.17,7.51,7.51,7.51
39.34,-0.55,-8.05,-0.56,-8.06,8.06,8.30,9.00,7.51,7.51,7.50
39.74,-0.51,-8.00,-0.50,-8.00,8.00,8.24,8.83,7.50,7.50,7.50
40.14,-0.45,-7.95,-0.44,-7.94,7.94,8.18,8.66,7.50,7.50,7.50
40.54,-0.39,-7.89,-0.38,-7.88,7.88,8.13,8.50,7.50,7.50,7.50
40.94,-0.34,-7.82,-0.33,-7.82,7.82,8.07,8.35,7.49,7.50,7.49
41.35,-0.28,-7.76,-0.27,-7.76,7.76,8.01,8.20,7.49,7.49,7.49
41.76,-0.20,-7.69,-0.21,-7.70,7.70,7.95,8.06,7.50,7.49,7.49
42.18,-0.15,-7.64,-0.16,-7.64,7.64,7.89,7.92,7.49,7.49,7.49
42.60,-0.09,-7.58,-0.10,-7.58,7.58,7.83,7.79,7.49,7.48,7.49
43.03,-0.05,-7.53,-0.04,-7.52,7.52,7.77,7.66,7.48,7.48,7.49
43.46,0.01,-7.47,0.01,-7.46,7.46,7.71,7.54,7.48,7.48,7.49
43.90,0.06,-7.41,0.07,-7.40,7.40,7.65,7.42,7.47,7.48,7.47
44.33,0.13,-7.34,0.13,-7.34,7.34,7.59,7.31,7.47,7.47,7.47
44.78,0.18,-7.28,0.19,-7.28,7.28,7.52,7.20,7.47,7.47,7.46
45.23,0.24,-7.22,0.24,-7.22,7.22,7.46,7.10,7.47,7.47,7.46
45.68,0.29,-7.16,0.30,-7.17,7.17,7.40,7.01,7.46,7.46,7.46
46.13,0.36,-7.09,0.35,-7.11,7.11,7.34,6.92,7.46,7.46,7.45
46.60,0.40,-7.05,0.41,-7.05,7.05,7.27,6.83,7.45,7.45,7.46
47.06,0.46,-6.98,0.46,-6.99,6.99,7.21,6.75,7.45,7.45,7.45
47.53,0.51,-6.92,0.51,-6.93,6.93,7.14,6.67,7.44,7.44,7.44
48.01,0.56,-6.88,0.56,-6.87,6.87,7.08,6.60,7.43,7.43,7.45
48.49,0.61,-6.81,0.61,-6.81,6.81,7.01,6.53,7.42,7.42,7.43
48.97,0.66,-6.74,0.66,-6.75,6.75,6.95,6.47,7.42,7.41,7.41
49.46,0.70,-6.69,0.71,-6.69,6.69,6.88,6.41,7.40,7.40,7.40
49.96,0.75,-6.63,0.75,-6.63,6.63,6.82,6.35,7.39,7.39,7.38
50.46,0.79,-6.58,0.80,-6.57,6.57,6.75,6.30,7.37,7.37,7.38
50.96,0.84,-6.51,0.85,-6.51,6.51,6.68,6.25,7.36,7.36,7.36
51.47,0.88,-6.44,0.89,-6.45,6.45,6.62,6.20,7.33,7.34,7.33
51.99,0.93,-6.39,0.94,-6.39,6.39,6.55,6.16,7.32,7.32,7.32
52.51,0.98,-6.33,0.99,-6.32,6.32,6.48,6.12,7.31,7.31,7.31
53.03,1.02,-6.26,1.03,-6.26,6.26,6.41,6.08,7.28,7.29,7.29
53.56,1.07,-6.20,1.07,-6.19,6.19,6.35,6.04,7.27,7.27,7.28
54.10,1.11,-6.14,1.12,-6.13,6.13,6.28,6.00,7.25,7.25,7.25
54.64,1.15,-6.08,1.16,-6.07,6.07,6.21,5.97,7.23,7.23,7.24
55.18,1.19,-6.01,1.20,-6.02,6.02,6.14,5.93,7.21,7.21,7.21
55.74,1.24,-5.94,1.23,-5.96,5.96,6.08,5.90,7.20,7.19,7.18
56.29,1.28,-5.89,1.27,-5.90,5.90,6.01,5.87,7.19,7.17,7.18
56.86,1.31,-5.84,1.30,-5.85,5.85,5.94,5.83,7.17,7.15,7.15
57.42,1.34,-5.77,1.33,-5.80,5.80,5.87,5.80,7.14,7.13,7.12
58.00,1.36,-5.73,1.36,-5.75,5.75,5.80,5.76,7.11,7.11,7.10
58.58,1.38,-5.69,1.38,-5.70,5.70,5.74,5.72,7.08,7.08,7.08
59.16,1.40,-5.65,1.41,-5.65,5.65,5.67,5.69,7.05,7.05,7.06
59.76,1.42,-5.61,1.43,-5.60,5.60,5.60,5.64,7.02,7.02,7.04
60.35,1.43,-5.57,1.45,-5.55,5.55,5.53,5.60,6.98,7.00,7.01
60.96,1.46,-5.51,1.47,-5.49,5.49,5.47,5.56,6.96,6.96,6.98
61.57,1.48,-5.45,1.49,-5.44,5.44,5.40,5.51,6.93,6.93,6.93
62.18,1.51,-5.37,1.51,-5.39,5.39,5.33,5.46,6.90,6.90,6.89
62.80,1.52,-5.34,1.53,-5.33,5.33,5.26,5.41,6.85,6.86,6.87
63.43,1.54,-5.27,1.56,-5.27,5.27,5.20,5.35,6.82,6.83,6.82
64.07,1.56,-5.21,1.58,-5.21,5.21,5.13,5.29,6.78,6.79,6.78
64.71,1.60,-5.14,1.60,-5.15,5.15,5.07,5.23,6.76,6.75,6.75
65.35,1.62,-5.08,1.62,-5.09,5.09,5.00,5.17,6.72,6.71,6.71
66.01,1.65,-5.01,1.64,-5.03,5.03,4.94,5.10,6.69,6.67,6.67
66.67,1.67,-4.96,1.66,-4.97,4.97,4.87,5.03,6.65,6.63,6.64
67.33,1.69,-4.90,1.68,-4.91,4.91,4.81,4.96,6.61,6.59,6.60
68.01,1.71,-4.84,1.70,-4.86,4.86,4.74,4.89,6.57,6.56,6.56
68.69,1.72,-4.79,1.72,-4.80,4.80,4.68,4.81,6.52,6.52,6.52
69.37,1.73,-4.74,1.74,-4.74,4.74,4.61,4.74,6.47,6.48,6.48
70.07,1.74,-4.69,1.77,-4.67,4.67,4.55,4.66,6.42,6.44,6.44
70.77,1.76,-4.63,1.79,-4.61,4.61,4.49,4.58,6.38,6.40,6.40
71.48,1.79,-4.57,1.81,-4.55,4.55,4.42,4.50,6.34,6.36,6.37
72.19,1.82,-4.49,1.84,-4.49,4.49,4.36,4.42,6.31,6.33,6.32
72.91,1.85,-4.43,1.86,-4.43,4.43,4.30,4.34,6.28,6.29,6.29
73.64,1.88,-4.36,1.88,-4.37,4.37,4.24,4.27,6.26,6.25,6.25
74.38,1.92,-4.29,1.90,-4.31,4.31,4.18,4.19,6.24,6.22,6.22
75.12,1.94,-4.23,1.93,-4.26,4.26,4.12,4.11,6.20,6.18,6.18
75.87,1.97,-4.17,1.95,-4.20,4.20,4.06,4.03,6.17,6.15,6.15
76.63,1.99,-4.12,1.98,-4.14,4.14,4.00,3.96,6.14,6.12,6.12
77.40,2.01,-4.07,2.00,-4.09,4.09,3.94,3.88,6.10,6.09,6.09
78.17,2.02,-4.03,2.03,-4.03,4.03,3.88,3.81,6.06,6.06,6.06
78.95,2.04,-3.98,2.06,-3.98,3.98,3.82,3.73,6.02,6.03,6.03
79.74,2.05,-3.95,2.08,-3.93,3.93,3.77,3.66,5.98,6.01,6.01
80.54,2.08,-3.90,2.11,-3.87,3.87,3.71,3.60,5.96,5.98,5.99
81.35,2.11,-3.84,2.14,-3.82,3.82,3.65,3.53,5.94,5.96,5.96
82.16,2.15,-3.77,2.16,-3.77,3.77,3.60,3.46,5.93,5.93,5.93
82.98,2.19,-3.72,2.19,-3.72,3.72,3.54,3.40,5.91,5.91,5.92
83.81,2.22,-3.66,2.22,-3.67,3.67,3.49,3.34,5.89,5.89,5.89
84.65,2.26,-3.59,2.25,-3.61,3.61,3.43,3.28,5.88,5.87,5.86
85.50,2.30,-3.54,2.29,-3.56,3.56,3.38,3.22,5.87,5.85,5.85
86.35,2.33,-3.49,2.32,-3.51,3.51,3.33,3.17,5.84,5.83,5.83
87.22,2.35,-3.45,2.35,-3.46,3.46,3.27,3.12,5.81,5.81,5.81
88.09,2.37,-3.41,2.39,-3.41,3.41,3.22,3.07,5.78,5.79,5.79
88.97,2.40,-3.36,2.41,-3.36,3.36,3.17,3.02,5.76,5.77,5.77
89.86,2.43,-3.32,2.44,-3.31,3.31,3.12,2.97,5.75,5.75,5.76
90.76,2.45,-3.27,2.46,-3.27,3.27,3.07,2.93,5.73,5.73,5.73
91.66,2.48,-3.22,2.48,-3.23,3.23,3.02,2.88,5.72,5.71,5.71
92.58,2.50,-3.18,2.50,-3.20,3.20,2.97,2.84,5.70,5.69,5.69
93.51,2.52,-3.15,2.51,-3.17,3.17,2.92,2.81,5.69,5.67,5.68
94.44,2.53,-3.12,2.52,-3.14,3.14,2.87,2.77,5.67,5.65,5.66
95.39,2.54,-3.09,2.52,-3.11,3.11,2.82,2.74,5.65,5.63,5.64
96.34,2.54,-3.06,2.53,-3.08,3.08,2.78,2.70,5.62,5.61,5.61
97.30,2.53,-3.04,2.53,-3.05,3.05,2.73,2.67,5.58,5.58,5.58
98.28,2.52,-3.02,2.53,-3.02,3.02,2.68,2.64,5.55,5.56,5.55
99.26,2.51,-3.01,2.53,-3.00,3.00,2.64,2.62,5.51,5.53,5.53
100.25,2.51,-2.98,2.53,-2.97,2.97,2.59,2.59,5.49,5.50,5.50
101.25,2.51,-2.95,2.53,-2.94,2.94,2.55,2.56,5.46,5.47,5.47
102.27,2.51,-2.91,2.52,-2.91,2.91,2.50,2.54,5.43,5.44,5.43
103.29,2.51,-2.88,2.52,-2.88,2.88,2.46,2.52,5.40,5.40,5.40
104.32,2.51,-2.85,2.52,-2.85,2.85,2.42,2.50,5.36,5.36,5.37
105.37,2.51,-2.81,2.51,-2.81,2.81,2.37,2.48,5.32,5.32,5.33
106.42,2.51,-2.76,2.51,-2.77,2.77,2.33,2.46,5.28,5.28,5.28
107.48,2.51,-2.73,2.51,-2.72,2.72,2.29,2.44,5.24,5.24,5.25
108.56,2.51,-2.67,2.51,-2.67,2.67,2.25,2.42,5.19,5.19,5.19
109.64,2.51,-2.62,2.51,-2.62,2.62,2.21,2.40,5.14,5.14,5.14
110.74,2.51,-2.57,2.51,-2.57,2.57,2.17,2.38,5.08,5.08,5.09
111.85,2.51,-2.52,2.51,-2.51,2.51,2.13,2.36,5.03,5.03,5.04
112.97,2.51,-2.45,2.51,-2.46,2.46,2.09,2.34,4.97,4.97,4.97
114.10,2.51,-2.40,2.51,-2.40,2.40,2.05,2.32,4.91,4.91,4.92
115.24,2.51,-2.34,2.51,-2.34,2.34,2.01,2.30,4.86,4.86,4.86
116.39,2.51,-2.27,2.51,-2.28,2.28,1.97,2.28,4.80,4.80,4.79
117.55,2.51,-2.21,2.51,-2.22,2.22,1.94,2.26,4.74,4.74,4.73
118.73,2.51,-2.15,2.51,-2.17,2.17,1.90,2.24,4.68,4.68,4.67
119.92,2.51,-2.10,2.51,-2.11,2.11,1.86,2.22,4.62,4.62,4.62
121.12,2.51,-2.04,2.51,-2.05,2.05,1.83,2.19,4.57,4.57,4.56
122.33,2.51,-1.99,2.51,-2.00,2.00,1.79,2.17,4.51,4.51,4.51
123.55,2.51,-1.94,2.51,-1.94,1.94,1.75,2.14,4.46,4.46,4.46
124.79,2.51,-1.89,2.51,-1.89,1.89,1.72,2.11,4.40,4.40,4.41
126.03,2.51,-1.84,2.51,-1.84,1.84,1.68,2.08,4.36,4.36,4.36
127.29,2.51,-1.79,2.51,-1.79,1.79,1.65,2.05,4.30,4.30,4.31
128.57,2.51,-1.73,2.51,-1.74,1.74,1.62,2.01,4.26,4.26,4.25
129.85,2.51,-1.69,2.51,-1.70,1.70,1.58,1.98,4.21,4.21,4.21
131.15,2.51,-1.64,2.51,-1.65,1.65,1.55,1.94,4.17,4.17,4.16
132.46,2.51,-1.60,2.51,-1.61,1.61,1.51,1.91,4.12,4.12,4.12
133.79,2.51,-1.56,2.51,-1.56,1.56,1.48,1.87,4.08,4.08,4.08
135.12,2.51,-1.52,2.51,-1.52,1.52,1.45,1.83,4.04,4.04,4.04
136.48,2.51,-1.48,2.51,-1.48,1.48,1.42,1.79,4.00,4.00,4.00
137.84,2.51,-1.44,2.51,-1.44,1.44,1.38,1.74,3.96,3.96,3.96
139.22,2.51,-1.39,2.51,-1.40,1.40,1.35,1.70,3.92,3.92,3.91
140.61,2.51,-1.35,2.52,-1.36,1.36,1.32,1.66,3.88,3.88,3.87
142.02,2.51,-1.33,2.52,-1.33,1.33,1.29,1.61,3.84,3.84,3.85
143.44,2.51,-1.29,2.52,-1.28,1.28,1.26,1.57,3.80,3.81,3.81
144.87,2.51,-1.25,2.53,-1.24,1.24,1.23,1.52,3.76,3.77,3.77
146.32,2.51,-1.21,2.53,-1.20,1.20,1.19,1.47,3.72,3.73,3.73
147.78,2.52,-1.17,2.53,-1.16,1.16,1.16,1.43,3.68,3.69,3.70
149.26,2.52,-1.14,2.53,-1.12,1.12,1.13,1.38,3.64,3.65,3.67
150.75,2.53,-1.07,2.53,-1.08,1.08,1.10,1.33,3.62,3.61,3.61
152.26,2.53,-1.03,2.53,-1.04,1.04,1.07,1.29,3.58,3.57,3.57
153.78,2.53,-1.00,2.52,-1.01,1.01,1.04,1.24,3.54,3.53,3.54
155.32,2.53,-0.94,2.51,-0.97,0.97,1.01,1.19,3.51,3.49,3.48
156.88,2.51,-0.93,2.50,-0.94,0.94,0.98,1.14,3.46,3.44,3.45
158.44,2.50,-0.89,2.48,-0.92,0.92,0.94,1.10,3.42,3.40,3.40
160.03,2.47,-0.87,2.46,-0.89,0.89,0.91,1.05,3.37,3.35,3.35
161.63,2.45,-0.84,2.44,-0.87,0.87,0.88,1.00,3.32,3.31,3.30
163.24,2.42,-0.83,2.41,-0.85,0.85,0.85,0.96,3.27,3.26,3.26
164.88,2.37,-0.84,2.38,-0.83,0.83,0.82,0.91,3.21,3.22,3.22
166.53,2.35,-0.81,2.35,-0.82,0.82,0.79,0.86,3.17,3.17,3.17
168.19,2.32,-0.79,2.32,-0.80,0.80,0.75,0.82,3.12,3.12,3.12
169.87,2.27,-0.79,2.29,-0.78,0.78,0.72,0.77,3.05,3.07,3.07
171.57,2.25,-0.77,2.27,-0.75,0.75,0.69,0.73,3.01,3.02,3.03
173.29,2.23,-0.73,2.24,-0.72,0.72,0.66,0.68,2.96,2.97,2.97
175.02,2.20,-0.71,2.22,-0.69,0.69,0.62,0.64,2.89,2.91,2.92
176.77,2.18,-0.67,2.21,-0.65,0.65,0.59,0.59,2.84,2.86,2.86
178.54,2.17,-0.63,2.20,-0.61,0.61,0.55,0.55,2.79,2.81,2.81
180.32,2.17,-0.57,2.19,-0.57,0.57,0.52,0.51,2.74,2.75,2.75
182.13,2.17,-0.52,2.18,-0.51,0.51,0.48,0.46,2.69,2.70,2.70
183.95,2.18,-0.45,2.18,-0.46,0.46,0.45,0.42,2.64,2.64,2.64
185.79,2.19,-0.39,2.18,-0.40,0.40,0.41,0.38,2.60,2.58,2.59
187.65,2.19,-0.32,2.18,-0.35,0.35,0.37,0.34,2.54,2.53,2.52
189.52,2.19,-0.27,2.18,-0.29,0.29,0.33,0.30,2.49,2.47,2.47
191.42,2.19,-0.22,2.19,-0.23,0.23,0.29,0.25,2.43,2.42,2.42
193.33,2.19,-0.17,2.19,-0.18,0.18,0.25,0.21,2.37,2.37,2.37
195.27,2.19,-0.12,2.19,-0.12,0.12,0.21,0.17,2.32,2.32,2.32
197.22,2.19,-0.06,2.19,-0.07,0.07,0.17,0.13,2.26,2.26,2.26
199.19,2.19,-0.01,2.20,-0.02,0.02,0.13,0.09,2.21,2.22,2.21
201.18,2.19,0.04,2.20,0.03,-0.03,0.08,0.05,2.16,2.17,2.16
203.19,2.19,0.07,2.20,0.08,-0.08,0.04,0.01,2.12,2.12,2.13
205.23,2.19,0.13,2.20,0.12,-0.12,-0.00,-0.02,2.07,2.07,2.07
207.28,2.19,0.15,2.19,0.16,-0.16,-0.05,-0.06,2.03,2.03,2.05
209.35,2.19,0.21,2.19,0.21,-0.21,-0.09,-0.10,1.99,1.99,1.99
211.44,2.19,0.26,2.19,0.25,-0.25,-0.14,-0.13,1.95,1.95,1.94
213.56,2.19,0.30,2.19,0.29,-0.29,-0.18,-0.17,1.91,1.91,1.90
215.69,2.19,0.32,2.19,0.32,-0.32,-0.23,-0.20,1.87,1.87,1.88
217.85,2.19,0.36,2.19,0.36,-0.36,-0.27,-0.23,1.84,1.84,1.84
220.03,2.19,0.40,2.19,0.39,-0.39,-0.31,-0.27,1.80,1.80,1.80
222.23,2.19,0.43,2.19,0.42,-0.42,-0.36,-0.30,1.77,1.77,1.77
224.45,2.19,0.45,2.19,0.45,-0.45,-0.40,-0.33,1.75,1.75,1.75
226.70,2.19,0.48,2.19,0.47,-0.47,-0.44,-0.35,1.72,1.72,1.72
228.96,2.19,0.51,2.19,0.50,-0.50,-0.47,-0.38,1.70,1.70,1.69
231.25,2.19,0.52,2.19,0.52,-0.52,-0.50,-0.40,1.68,1.68,1.68
233.57,2.19,0.54,2.19,0.53,-0.53,-0.54,-0.43,1.66,1.66,1.66
235.90,2.19,0.55,2.19,0.54,-0.54,-0.56,-0.45,1.65,1.65,1.65
238.26,2.19,0.56,2.19,0.56,-0.56,-0.59,-0.47,1.64,1.64,1.64
240.64,2.19,0.57,2.19,0.56,-0.56,-0.60,-0.48,1.63,1.63,1.63
243.05,2.19,0.57,2.19,0.57,-0.57,-0.62,-0.50,1.63,1.63,1.63
245.48,2.19,0.58,2.19,0.57,-0.57,-0.63,-0.51,1.62,1.62,1.62
247.93,2.19,0.58,2.19,0.57,-0.57,-0.64,-0.52,1.62,1.62,1.62
250.41,2.19,0.58,2.19,0.57,-0.57,-0.64,-0.53,1.63,1.62,1.62
252.92,2.19,0.57,2.20,0.57,-0.57,-0.64,-0.54,1.63,1.63,1.63
255.45,2.19,0.56,2.20,0.56,-0.56,-0.63,-0.54,1.63,1.64,1.64
258.00,2.19,0.55,2.20,0.56,-0.56,-0.62,-0.55,1.64,1.64,1.65
260.58,2.19,0.55,2.21,0.55,-0.55,-0.60,-0.55,1.64,1.65,1.65
263.19,2.19,0.54,2.21,0.55,-0.55,-0.59,-0.55,1.65,1.66,1.66
265.82,2.19,0.53,2.21,0.54,-0.54,-0.57,-0.54,1.66,1.67,1.67
268.48,2.20,0.52,2.21,0.52,-0.52,-0.54,-0.54,1.68,1.69,1.69
271.16,2.21,0.51,2.21,0.51,-0.51,-0.52,-0.53,1.71,1.70,1.71
273.87,2.21,0.51,2.20,0.49,-0.49,-0.49,-0.53,1.72,1.71,1.71
276.61,2.21,0.48,2.20,0.47,-0.47,-0.47,-0.52,1.75,1.73,1.74
279.38,2.20,0.47,2.19,0.44,-0.44,-0.44,-0.51,1.76,1.74,1.74
282.17,2.19,0.44,2.17,0.42,-0.42,-0.41,-0.49,1.78,1.75,1.76
284.99,2.17,0.41,2.15,0.38,-0.38,-0.38,-0.48,1.79,1.77,1.77
287.84,2.13,0.36,2.13,0.35,-0.35,-0.35,-0.47,1.79,1.78,1.78
290.72,2.10,0.32,2.10,0.31,-0.31,-0.32,-0.45,1.80,1.80,1.79
293.63,2.07,0.27,2.07,0.26,-0.26,-0.29,-0.43,1.81,1.81,1.81
296.57,2.04,0.22,2.04,0.22,-0.22,-0.26,-0.42,1.82,1.82,1.83
299.53,2.01,0.19,2.01,0.18,-0.18,-0.24,-0.40,1.84,1.84,1.83
302.53,1.97,0.14,1.98,0.13,-0.13,-0.21,-0.38,1.84,1.85,1.84
305.55,1.94,0.09,1.95,0.09,-0.09,-0.18,-0.37,1.85,1.86,1.86
308.61,1.91,0.05,1.93,0.06,-0.06,-0.16,-0.35,1.86,1.87,1.87
311.69,1.88,0.01,1.91,0.03,-0.03,-0.13,-0.33,1.86,1.88,1.88
314.81,1.87,-0.03,1.89,-0.00,0.00,-0.11,-0.31,1.88,1.89,1.91
317.96,1.85,-0.04,1.88,-0.02,0.02,-0.08,-0.29,1.88,1.90,1.90
321.14,1.84,-0.06,1.87,-0.04,0.04,-0.06,-0.27,1.88,1.91,1.91
324.35,1.84,-0.06,1.86,-0.05,0.05,-0.04,-0.25,1.90,1.91,1.91
327.59,1.85,-0.06,1.86,-0.06,0.06,-0.02,-0.23,1.92,1.92,1.92
330.87,1.86,-0.05,1.86,-0.07,0.07,-0.00,-0.21,1.93,1.92,1.92
334.18,1.87,-0.04,1.86,-0.07,0.07,0.02,-0.19,1.94,1.93,1.92
337.52,1.87,-0.05,1.86,-0.07,0.07,0.04,-0.18,1.94,1.93,1.93
340.90,1.87,-0.05,1.86,-0.07,0.07,0.05,-0.16,1.94,1.93,1.93
344.30,1.87,-0.05,1.87,-0.06,0.06,0.07,-0.14,1.94,1.93,1.93
347.75,1.87,-0.05,1.87,-0.06,0.06,0.09,-0.12,1.93,1.93,1.93
351.23,1.87,-0.05,1.87,-0.05,0.05,0.10,-0.10,1.93,1.92,1.93
354.74,1.87,-0.05,1.87,-0.05,0.05,0.12,-0.08,1.92,1.92,1.93
358.28,1.87,-0.03,1.88,-0.04,0.04,0.13,-0.06,1.92,1.92,1.91
361.87,1.87,-0.03,1.88,-0.04,0.04,0.15,-0.05,1.91,1.91,1.91
365.49,1.87,-0.03,1.88,-0.03,0.03,0.16,-0.03,1.91,1.91,1.91
369.14,1.87,-0.02,1.88,-0.02,0.02,0.17,-0.01,1.90,1.90,1.90
372.83,1.87,-0.02,1.88,-0.01,0.01,0.19,0.01,1.89,1.89,1.90
376.56,1.87,-0.01,1.88,-0.00,0.00,0.20,0.02,1.88,1.89,1.89
380.33,1.87,-0.00,1.89,0.01,-0.01,0.21,0.04,1.87,1.88,1.88
384.13,1.87,0.01,1.89,0.02,-0.02,0.22,0.06,1.86,1.87,1.87
387.97,1.87,0.02,1.89,0.02,-0.02,0.23,0.08,1.85,1.87,1.86
391.85,1.88,0.04,1.89,0.03,-0.03,0.25,0.09,1.86,1.86,1.85
395.77,1.89,0.04,1.88,0.03,-0.03,0.26,0.11,1.86,1.85,1.86
399.73,1.89,0.05,1.88,0.03,-0.03,0.27,0.13,1.86,1.85,1.85
403.72,1.88,0.05,1.87,0.03,-0.03,0.28,0.14,1.86,1.84,1.84
407.76,1.87,0.05,1.86,0.02,-0.02,0.29,0.16,1.85,1.83,1.83
411.84,1.85,0.02,1.84,0.01,-0.01,0.30,0.18,1.84,1.83,1.84
415.96,1.83,0.02,1.82,-0.01,0.01,0.31,0.19,1.84,1.82,1.82
420.12,1.80,-0.01,1.79,-0.03,0.03,0.32,0.21,1.83,1.82,1.82
424.32,1.77,-0.04,1.77,-0.05,0.05,0.33,0.22,1.83,1.82,1.82
428.56,1.73,-0.07,1.73,-0.08,0.08,0.34,0.24,1.82,1.82,1.81
432.85,1.70,-0.10,1.70,-0.11,0.11,0.35,0.26,1.82,1.81,1.81
437.18,1.67,-0.13,1.67,-0.14,0.14,0.36,0.27,1.82,1.81,1.81
441.55,1.63,-0.18,1.64,-0.17,0.17,0.37,0.29,1.81,1.81,1.82
445.96,1.60,-0.21,1.62,-0.20,0.20,0.38,0.30,1.80,1.81,1.82
450.42,1.57,-0.23,1.60,-0.22,0.22,0.39,0.32,1.79,1.82,1.81
454.93,1.55,-0.26,1.58,-0.24,0.24,0.40,0.33,1.79,1.82,1.82
459.48,1.53,-0.28,1.57,-0.25,0.25,0.41,0.35,1.79,1.82,1.82
464.07,1.52,-0.30,1.56,-0.27,0.27,0.42,0.36,1.79,1.83,1.83
468.71,1.52,-0.31,1.55,-0.28,0.28,0.43,0.38,1.80,1.83,1.84
473.40,1.53,-0.29,1.55,-0.29,0.29,0.44,0.39,1.82,1.84,1.83
478.13,1.55,-0.28,1.55,-0.29,0.29,0.45,0.40,1.85,1.84,1.84
482.91,1.56,-0.27,1.54,-0.30,0.30,0.46,0.42,1.87,1.85,1.84
487.74,1.56,-0.28,1.54,-0.31,0.31,0.47,0.43,1.87,1.85,1.85
492.62,1.56,-0.29,1.53,-0.32,0.32,0.48,0.45,1.89,1.85,1.86
497.55,1.55,-0.30,1.53,-0.34,0.34,0.49,0.46,1.89,1.86,1.86
502.52,1.54,-0.32,1.51,-0.35,0.35,0.50,0.47,1.90,1.87,1.87
507.55,1.51,-0.35,1.50,-0.37,0.37,0.51,0.48,1.89,1.87,1.87
512.62,1.48,-0.38,1.48,-0.39,0.39,0.52,0.50,1.88,1.87,1.87
517.75,1.45,-0.42,1.45,-0.42,0.42,0.54,0.51,1.87,1.87,1.88
522.93,1.42,-0.45,1.43,-0.45,0.45,0.55,0.52,1.87,1.88,1.88
528.16,1.38,-0.49,1.40,-0.48,0.48,0.56,0.54,1.86,1.88,1.88
533.44,1.35,-0.52,1.37,-0.51,0.51,0.57,0.55,1.86,1.88,1.88
538.77,1.32,-0.55,1.34,-0.54,0.54,0.58,0.56,1.86,1.88,1.88
