frequency,raw,error,smoothed,error_smoothed,equalization,parametric_eq,fixed_band_eq,equalized_raw,equalized_smoothed,target
20.00,-4.64,-6.12,-4.64,-6.15,6.15,5.22,1.84,1.51,1.51,1.48
20.20,-4.54,-6.11,-4.54,-6.12,6.12,5.32,1.89,1.59,1.59,1.57
20.40,-4.44,-6.09,-4.44,-6.10,6.10,5.41,1.94,1.66,1.66,1.65
20.61,-4.34,-6.06,-4.34,-6.07,6.07,5.49,2.00,1.73,1.73,1.72
20.81,-4.24,-6.05,-4.24,-6.04,6.04,5.57,2.06,1.80,1.80,1.81
21.02,-4.14,-6.03,-4.14,-6.00,6.00,5.65,2.12,1.86,1.87,1.89
21.23,-4.04,-5.99,-4.03,-5.96,5.96,5.72,2.18,1.93,1.93,1.95
21.44,-3.93,-5.95,-3.93,-5.92,5.92,5.79,2.24,1.99,1.99,2.01
21.66,-3.84,-5.90,-3.83,-5.88,5.88,5.85,2.31,2.04,2.05,2.06
21.87,-3.73,-5.85,-3.73,-5.84,5.84,5.90,2.38,2.10,2.10,2.11
22.09,-3.64,-5.80,-3.63,-5.79,5.79,5.95,2.45,2.15,2.16,2.16
22.31,-3.53,-5.74,-3.53,-5.74,5.74,5.98,2.52,2.20,2.21,2.21
22.54,-3.44,-5.69,-3.43,-5.68,5.68,6.01,2.59,2.24,2.25,2.25
22.76,-3.34,-5.62,-3.33,-5.62,5.62,6.03,2.66,2.29,2.29,2.29
22.99,-3.23,-5.54,-3.23,-5.56,5.56,6.04,2.74,2.33,2.33,2.32
23.22,-3.13,-5.48,-3.13,-5.50,5.50,6.04,2.82,2.37,2.37,2.36
23.45,-3.03,-5.42,-3.03,-5.43,5.43,6.04,2.90,2.41,2.40,2.40
23.69,-2.93,-5.36,-2.93,-5.37,5.37,6.02,2.98,2.44,2.44,2.43
23.92,-2.82,-5.30,-2.83,-5.31,5.31,6.00,3.06,2.48,2.48,2.47
24.16,-2.73,-5.25,-2.73,-5.24,5.24,5.97,3.15,2.52,2.51,2.52
24.40,-2.63,-5.19,-2.63,-5.18,5.18,5.93,3.23,2.54,2.55,2.55
24.65,-2.54,-5.12,-2.53,-5.11,5.11,5.88,3.32,2.57,2.58,2.58
24.89,-2.43,-5.05,-2.43,-5.05,5.05,5.82,3.40,2.61,2.61,2.61
25.14,-2.33,-4.98,-2.34,-4.98,4.98,5.76,3.49,2.65,2.65,2.65
25.39,-2.23,-4.91,-2.24,-4.92,4.92,5.69,3.58,2.68,2.68,2.68
25.65,-2.15,-4.86,-2.14,-4.85,4.85,5.62,3.66,2.71,2.71,2.72
25.91,-2.05,-4.78,-2.04,-4.79,4.79,5.54,3.75,2.74,2.74,2.74
26.16,-1.94,-4.71,-1.95,-4.72,4.72,5.45,3.84,2.77,2.77,2.77
26.43,-1.85,-4.65,-1.85,-4.65,4.65,5.36,3.92,2.80,2.80,2.80
26.69,-1.75,-4.58,-1.75,-4.58,4.58,5.27,4.01,2.84,2.83,2.83
26.96,-1.66,-4.52,-1.66,-4.52,4.52,5.18,4.09,2.86,2.86,2.86
27.23,-1.56,-4.46,-1.56,-4.45,4.45,5.08,4.17,2.89,2.89,2.90
27.50,-1.47,-4.39,-1.46,-4.39,4.39,4.98,4.25,2.92,2.92,2.93
27.77,-1.37,-4.32,-1.37,-4.32,4.32,4.88,4.32,2.95,2.95,2.95
28.05,-1.28,-4.26,-1.28,-4.26,4.26,4.77,4.39,2.98,2.98,2.99
28.33,-1.19,-4.19,-1.19,-4.20,4.20,4.67,4.46,3.01,3.01,3.00
28.62,-1.10,-4.13,-1.09,-4.13,4.13,4.56,4.52,3.04,3.04,3.03
28.90,-1.01,-4.08,-1.01,-4.08,4.08,4.46,4.58,3.07,3.07,3.07
29.19,-0.92,-4.00,-0.92,-4.02,4.02,4.35,4.63,3.10,3.10,3.09
29.48,-0.83,-3.96,-0.83,-3.96,3.96,4.25,4.67,3.13,3.13,3.14
29.78,-0.75,-3.90,-0.75,-3.90,3.90,4.15,4.71,3.16,3.15,3.15
30.08,-0.66,-3.84,-0.67,-3.85,3.85,4.04,4.74,3.19,3.18,3.18
30.38,-0.59,-3.80,-0.59,-3.79,3.79,3.94,4.76,3.21,3.21,3.21
30.68,-0.51,-3.74,-0.51,-3.74,3.74,3.84,4.78,3.23,3.23,3.24
30.99,-0.43,-3.68,-0.43,-3.69,3.69,3.74,4.78,3.26,3.26,3.26
31.30,-0.36,-3.64,-0.35,-3.64,3.64,3.65,4.78,3.28,3.28,3.28
31.61,-0.28,-3.59,-0.27,-3.58,3.58,3.55,4.78,3.31,3.31,3.31
31.93,-0.21,-3.54,-0.20,-3.53,3.53,3.46,4.76,3.32,3.33,3.33
32.24,-0.13,-3.47,-0.12,-3.48,3.48,3.36,4.73,3.35,3.35,3.35
32.57,-0.06,-3.43,-0.05,-3.42,3.42,3.27,4.70,3.37,3.37,3.37
32.89,0.02,-3.38,0.02,-3.37,3.37,3.18,4.66,3.39,3.39,3.40
33.22,0.09,-3.32,0.10,-3.32,3.32,3.10,4.62,3.41,3.41,3.42
33.55,0.17,-3.26,0.17,-3.26,3.26,3.01,4.57,3.43,3.43,3.43
33.89,0.24,-3.20,0.24,-3.20,3.20,2.93,4.51,3.45,3.45,3.44
34.23,0.32,-3.14,0.32,-3.14,3.14,2.85,4.45,3.47,3.46,3.47
34.57,0.38,-3.09,0.39,-3.09,3.09,2.77,4.38,3.47,3.47,3.47
34.92,0.45,-3.03,0.46,-3.02,3.02,2.69,4.31,3.48,3.48,3.48
35.27,0.52,-2.97,0.53,-2.96,2.96,2.62,4.23,3.49,3.49,3.50
35.62,0.59,-2.90,0.59,-2.90,2.90,2.54,4.15,3.50,3.50,3.49
35.97,0.66,-2.83,0.66,-2.84,2.84,2.47,4.06,3.51,3.50,3.50
36.33,0.72,-2.79,0.73,-2.78,2.78,2.40,3.98,3.50,3.51,3.51
36.70,0.79,-2.72,0.79,-2.72,2.72,2.33,3.89,3.51,3.51,3.51
37.06,0.85,-2.65,0.85,-2.65,2.65,2.27,3.80,3.51,3.51,3.51
37.43,0.91,-2.60,0.92,-2.59,2.59,2.20,3.71,3.51,3.51,3.51
37.81,0.97,-2.53,0.98,-2.53,2.53,2.14,3.62,3.50,3.51,3.51
38.19,1.03,-2.47,1.03,-2.47,2.47,2.08,3.53,3.50,3.50,3.50
38.57,1.09,-2.41,1.09,-2.41,2.41,2.02,3.44,3.50,3.50,3.50
38.95,1.14,-2.35,1.15,-2.35,2.35,1.96,3.35,3.49,3.49,3.50
39.34,1.20,-2.28,1.20,-2.29,2.29,1.90,3.25,3.49,3.49,3.48
39.74,1.25,-2.22,1.25,-2.23,2.23,1.85,3.16,3.48,3.48,3.48
40.14,1.30,-2.17,1.30,-2.17,2.17,1.80,3.07,3.48,3.48,3.47
40.54,1.34,-2.12,1.35,-2.12,2.12,1.74,2.99,3.46,3.47,3.46
40.94,1.39,-2.06,1.39,-2.07,2.07,1.69,2.90,3.46,3.46,3.46
41.35,1.44,-2.01,1.44,-2.01,2.01,1.64,2.81,3.46,3.45,3.45
41.76,1.48,-1.96,1.48,-1.96,1.96,1.59,2.73,3.45,3.44,3.44
42.18,1.52,-1.91,1.52,-1.91,1.91,1.55,2.64,3.44,3.43,3.44
42.60,1.56,-1.85,1.55,-1.86,1.86,1.50,2.56,3.43,3.42,3.42
43.03,1.59,-1.83,1.59,-1.82,1.82,1.46,2.48,3.41,3.41,3.42
43.46,1.62,-1.78,1.62,-1.77,1.77,1.41,2.40,3.40,3.39,3.40
43.90,1.64,-1.74,1.65,-1.73,1.73,1.37,2.33,3.37,3.38,3.38
44.33,1.67,-1.69,1.69,-1.69,1.69,1.33,2.25,3.36,3.37,3.36
44.78,1.70,-1.65,1.72,-1.64,1.64,1.29,2.18,3.35,3.36,3.35
45.23,1.74,-1.59,1.75,-1.60,1.60,1.25,2.11,3.34,3.35,3.34
45.68,1.77,-1.55,1.77,-1.56,1.56,1.21,2.04,3.33,3.33,3.32
46.13,1.80,-1.51,1.80,-1.52,1.52,1.17,1.97,3.33,3.32,3.31
46.60,1.83,-1.48,1.83,-1.48,1.48,1.14,1.90,3.32,3.31,3.31
47.06,1.85,-1.45,1.85,-1.44,1.44,1.10,1.84,3.30,3.30,3.30
47.53,1.88,-1.41,1.88,-1.41,1.41,1.06,1.77,3.29,3.29,3.29
48.01,1.90,-1.38,1.90,-1.37,1.37,1.03,1.71,3.28,3.28,3.29
48.49,1.92,-1.35,1.93,-1.34,1.34,1.00,1.65,3.26,3.27,3.28
48.97,1.95,-1.31,1.95,-1.31,1.31,0.96,1.59,3.26,3.26,3.26
49.46,1.97,-1.27,1.98,-1.28,1.28,0.93,1.54,3.25,3.25,3.24
49.96,1.99,-1.23,2.00,-1.25,1.25,0.90,1.48,3.24,3.25,3.23
50.46,2.01,-1.22,2.02,-1.22,1.22,0.87,1.42,3.24,3.24,3.23
50.96,2.03,-1.20,2.04,-1.20,1.20,0.84,1.37,3.23,3.23,3.24
51.47,2.05,-1.17,2.05,-1.17,1.17,0.81,1.32,3.23,3.23,3.22
51.99,2.07,-1.14,2.07,-1.15,1.15,0.78,1.27,3.22,3.22,3.22
52.51,2.09,-1.12,2.09,-1.13,1.13,0.75,1.22,3.22,3.21,3.22
53.03,2.10,-1.11,2.10,-1.10,1.10,0.72,1.17,3.21,3.20,3.21
53.56,2.12,-1.08,2.11,-1.08,1.08,0.69,1.12,3.21,3.19,3.20
54.10,2.13,-1.06,2.13,-1.06,1.06,0.67,1.07,3.19,3.19,3.20
54.64,2.14,-1.03,2.14,-1.04,1.04,0.64,1.02,3.18,3.18,3.18
55.18,2.14,-1.02,2.15,-1.02,1.02,0.61,0.98,3.16,3.17,3.17
55.74,2.15,-0.99,2.16,-0.99,0.99,0.59,0.93,3.15,3.15,3.15
56.29,2.16,-0.97,2.17,-0.96,0.96,0.56,0.89,3.13,3.14,3.14
56.86,2.17,-0.94,2.18,-0.93,0.93,0.54,0.85,3.11,3.12,3.11
57.42,2.18,-0.91,2.20,-0.90,0.90,0.51,0.80,3.09,3.10,3.09
58.00,2.20,-0.88,2.21,-0.87,0.87,0.49,0.76,3.08,3.08,3.08
58.58,2.22,-0.83,2.22,-0.84,0.84,0.46,0.72,3.06,3.05,3.06
59.16,2.23,-0.81,2.23,-0.80,0.80,0.44,0.68,3.03,3.03,3.04
59.76,2.25,-0.76,2.24,-0.76,0.76,0.42,0.64,3.01,3.00,3.02
60.35,2.26,-0.72,2.26,-0.72,0.72,0.39,0.60,2.98,2.97,2.98
60.96,2.28,-0.68,2.27,-0.67,0.67,0.37,0.55,2.96,2.95,2.96
61.57,2.29,-0.62,2.29,-0.63,0.63,0.35,0.51,2.92,2.92,2.92
62.18,2.29,-0.58,2.31,-0.58,0.58,0.32,0.48,2.88,2.89,2.88
62.80,2.31,-0.54,2.33,-0.54,0.54,0.30,0.44,2.85,2.86,2.86
63.43,2.33,-0.48,2.34,-0.49,0.49,0.28,0.40,2.83,2.84,2.82
64.07,2.35,-0.44,2.36,-0.45,0.45,0.26,0.36,2.80,2.81,2.80
64.71,2.37,-0.40,2.38,-0.40,0.40,0.23,0.32,2.78,2.79,2.78
65.35,2.39,-0.36,2.40,-0.36,0.36,0.21,0.28,2.76,2.76,2.75
66.01,2.42,-0.32,2.42,-0.32,0.32,0.19,0.24,2.75,2.74,2.74
66.67,2.44,-0.28,2.44,-0.29,0.29,0.17,0.20,2.73,2.72,2.73
67.33,2.46,-0.25,2.46,-0.25,0.25,0.14,0.16,2.72,2.71,2.71
68.01,2.48,-0.21,2.47,-0.22,0.22,0.12,0.12,2.70,2.69,2.69
68.69,2.49,-0.18,2.49,-0.19,0.19,0.10,0.08,2.68,2.68,2.68
69.37,2.51,-0.15,2.50,-0.16,0.16,0.08,0.05,2.68,2.66,2.67
70.07,2.52,-0.12,2.51,-0.14,0.14,0.06,0.01,2.66,2.65,2.65
70.77,2.53,-0.11,2.52,-0.11,0.11,0.03,-0.03,2.64,2.64,2.65
71.48,2.53,-0.09,2.54,-0.08,0.08,0.01,-0.07,2.62,2.62,2.63
72.19,2.54,-0.06,2.55,-0.06,0.06,-0.01,-0.11,2.60,2.60,2.60
72.91,2.55,-0.04,2.56,-0.03,0.03,-0.03,-0.15,2.58,2.58,2.59
73.64,2.56,-0.00,2.57,0.00,-0.00,-0.06,-0.19,2.56,2.57,2.57
74.38,2.57,0.02,2.58,0.03,-0.03,-0.08,-0.24,2.54,2.55,2.55
75.12,2.57,0.05,2.59,0.07,-0.07,-0.10,-0.28,2.51,2.53,2.53
75.87,2.59,0.08,2.61,0.10,-0.10,-0.13,-0.32,2.49,2.51,2.51
76.63,2.61,0.12,2.63,0.14,-0.14,-0.15,-0.36,2.47,2.49,2.49
77.40,2.64,0.18,2.65,0.18,-0.18,-0.17,-0.40,2.46,2.47,2.46
78.17,2.67,0.24,2.67,0.22,-0.22,-0.20,-0.45,2.45,2.45,2.43
78.95,2.69,0.26,2.70,0.27,-0.27,-0.22,-0.49,2.43,2.43,2.43
79.74,2.71,0.31,2.72,0.31,-0.31,-0.25,-0.54,2.40,2.41,2.41
80.54,2.74,0.36,2.75,0.35,-0.35,-0.27,-0.58,2.39,2.39,2.39
81.35,2.77,0.40,2.77,0.39,-0.39,-0.30,-0.63,2.38,2.38,2.37
82.16,2.79,0.44,2.79,0.43,-0.43,-0.32,-0.67,2.37,2.37,2.36
82.98,2.82,0.47,2.82,0.46,-0.46,-0.35,-0.72,2.36,2.35,2.35
83.81,2.84,0.51,2.83,0.49,-0.49,-0.38,-0.77,2.35,2.34,2.34
84.65,2.86,0.55,2.85,0.52,-0.52,-0.40,-0.82,2.34,2.33,2.32
85.50,2.87,0.55,2.86,0.54,-0.54,-0.43,-0.87,2.33,2.32,2.32
86.35,2.88,0.57,2.87,0.56,-0.56,-0.46,-0.92,2.32,2.31,2.31
87.22,2.89,0.60,2.88,0.58,-0.58,-0.49,-0.97,2.31,2.29,2.29
88.09,2.89,0.61,2.88,0.61,-0.61,-0.52,-1.02,2.29,2.28,2.28
88.97,2.88,0.61,2.89,0.63,-0.63,-0.55,-1.08,2.26,2.26,2.27
89.86,2.87,0.63,2.89,0.65,-0.65,-0.58,-1.13,2.23,2.24,2.25
90.76,2.87,0.66,2.89,0.67,-0.67,-0.61,-1.18,2.20,2.21,2.22
91.66,2.87,0.68,2.88,0.70,-0.70,-0.64,-1.24,2.18,2.18,2.19
92.58,2.87,0.73,2.88,0.73,-0.73,-0.68,-1.30,2.14,2.15,2.15
93.51,2.87,0.75,2.88,0.77,-0.77,-0.71,-1.36,2.11,2.11,2.12
94.44,2.87,0.79,2.88,0.81,-0.81,-0.74,-1.41,2.07,2.07,2.08
95.39,2.87,0.84,2.87,0.85,-0.85,-0.78,-1.47,2.02,2.02,2.03
96.34,2.87,0.90,2.87,0.90,-0.90,-0.82,-1.53,1.97,1.97,1.98
97.30,2.87,0.96,2.87,0.96,-0.96,-0.85,-1.59,1.91,1.91,1.91
98.28,2.87,1.02,2.87,1.02,-1.02,-0.89,-1.65,1.85,1.85,1.86
99.26,2.87,1.08,2.87,1.08,-1.08,-0.93,-1.71,1.79,1.79,1.79
100.25,2.87,1.15,2.87,1.15,-1.15,-0.97,-1.78,1.72,1.72,1.72
101.25,2.87,1.22,2.87,1.22,-1.22,-1.01,-1.84,1.66,1.66,1.65
102.27,2.87,1.29,2.87,1.29,-1.29,-1.06,-1.90,1.59,1.59,1.59
103.29,2.87,1.36,2.87,1.36,-1.36,-1.10,-1.96,1.52,1.52,1.51
104.32,2.87,1.42,2.87,1.43,-1.43,-1.14,-2.02,1.45,1.45,1.45
105.37,2.87,1.50,2.87,1.50,-1.50,-1.19,-2.08,1.38,1.38,1.37
106.42,2.87,1.57,2.87,1.56,-1.56,-1.24,-2.14,1.31,1.31,1.31
107.48,2.87,1.64,2.87,1.63,-1.63,-1.29,-2.20,1.24,1.24,1.24
108.56,2.87,1.70,2.87,1.70,-1.70,-1.34,-2.26,1.17,1.17,1.17
109.64,2.87,1.77,2.87,1.77,-1.77,-1.39,-2.31,1.11,1.11,1.10
110.74,2.87,1.83,2.87,1.83,-1.83,-1.44,-2.37,1.04,1.04,1.05
111.85,2.87,1.89,2.87,1.89,-1.89,-1.49,-2.42,0.98,0.98,0.99
112.97,2.87,1.96,2.87,1.95,-1.95,-1.55,-2.47,0.92,0.92,0.91
114.10,2.87,2.01,2.87,2.01,-2.01,-1.61,-2.51,0.86,0.86,0.86
115.24,2.87,2.08,2.87,2.07,-2.07,-1.66,-2.56,0.81,0.81,0.80
116.39,2.87,2.13,2.87,2.12,-2.12,-1.72,-2.60,0.75,0.75,0.74
117.55,2.87,2.18,2.87,2.17,-2.17,-1.78,-2.63,0.70,0.70,0.70
118.73,2.87,2.23,2.87,2.22,-2.22,-1.85,-2.67,0.66,0.66,0.64
119.92,2.87,2.27,2.87,2.26,-2.26,-1.91,-2.70,0.61,0.61,0.61
121.12,2.87,2.31,2.87,2.31,-2.31,-1.97,-2.72,0.57,0.57,0.56
122.33,2.87,2.35,2.88,2.35,-2.35,-2.04,-2.74,0.52,0.52,0.52
123.55,2.87,2.39,2.88,2.40,-2.40,-2.10,-2.76,0.48,0.48,0.49
124.79,2.87,2.43,2.88,2.44,-2.44,-2.17,-2.77,0.44,0.44,0.45
126.03,2.87,2.46,2.88,2.48,-2.48,-2.24,-2.77,0.40,0.41,0.41
127.29,2.87,2.50,2.89,2.52,-2.52,-2.31,-2.77,0.35,0.37,0.37
128.57,2.87,2.55,2.89,2.56,-2.56,-2.37,-2.77,0.32,0.33,0.32
129.85,2.88,2.59,2.89,2.59,-2.59,-2.44,-2.77,0.29,0.29,0.30
131.15,2.89,2.64,2.88,2.63,-2.63,-2.51,-2.75,0.27,0.25,0.26
132.46,2.89,2.68,2.87,2.66,-2.66,-2.58,-2.74,0.23,0.22,0.21
133.79,2.88,2.70,2.87,2.69,-2.69,-2.64,-2.72,0.19,0.18,0.18
135.12,2.87,2.74,2.86,2.72,-2.72,-2.71,-2.70,0.15,0.14,0.14
136.48,2.85,2.75,2.84,2.74,-2.74,-2.77,-2.67,0.11,0.10,0.10
137.84,2.82,2.77,2.82,2.77,-2.77,-2.84,-2.64,0.06,0.05,0.06
139.22,2.80,2.80,2.80,2.79,-2.79,-2.90,-2.61,0.02,0.01,0.00
140.61,2.77,2.81,2.78,2.80,-2.80,-2.95,-2.58,-0.03,-0.03,-0.04
142.02,2.73,2.80,2.75,2.82,-2.82,-3.01,-2.54,-0.08,-0.07,-0.07
143.44,2.71,2.82,2.72,2.83,-2.83,-3.06,-2.51,-0.12,-0.11,-0.11
144.87,2.68,2.84,2.69,2.84,-2.84,-3.11,-2.47,-0.16,-0.16,-0.16
146.32,2.65,2.86,2.65,2.86,-2.86,-3.15,-2.43,-0.20,-0.20,-0.21
147.78,2.62,2.87,2.62,2.87,-2.87,-3.19,-2.39,-0.25,-0.25,-0.24
149.26,2.58,2.87,2.59,2.88,-2.88,-3.23,-2.35,-0.30,-0.30,-0.29
150.75,2.53,2.88,2.56,2.90,-2.90,-3.25,-2.31,-0.36,-0.34,-0.35
152.26,2.50,2.89,2.52,2.91,-2.91,-3.28,-2.26,-0.41,-0.39,-0.39
153.78,2.47,2.91,2.49,2.93,-2.93,-3.30,-2.22,-0.45,-0.44,-0.43
155.32,2.45,2.94,2.45,2.94,-2.94,-3.31,-2.18,-0.48,-0.49,-0.49
156.88,2.41,2.94,2.41,2.95,-2.95,-3.31,-2.14,-0.53,-0.54,-0.53
158.44,2.38,2.97,2.37,2.96,-2.96,-3.31,-2.10,-0.57,-0.59,-0.59
160.03,2.33,2.97,2.32,2.96,-2.96,-3.30,-2.06,-0.63,-0.64,-0.64
161.63,2.29,2.99,2.27,2.96,-2.96,-3.29,-2.02,-0.67,-0.69,-0.70
163.24,2.25,3.00,2.22,2.96,-2.96,-3.27,-1.99,-0.71,-0.74,-0.74
164.88,2.18,2.97,2.18,2.96,-2.96,-3.25,-1.95,-0.78,-0.79,-0.79
166.53,2.12,2.96,2.13,2.96,-2.96,-3.21,-1.92,-0.84,-0.83,-0.84
168.19,2.06,2.94,2.07,2.95,-2.95,-3.18,-1.88,-0.89,-0.88,-0.88
169.87,1.98,2.91,2.02,2.94,-2.94,-3.14,-1.85,-0.96,-0.93,-0.92
171.57,1.93,2.90,1.96,2.93,-2.93,-3.09,-1.82,-1.00,-0.97,-0.97
173.29,1.89,2.90,1.90,2.91,-2.91,-3.04,-1.79,-1.02,-1.01,-1.01
175.02,1.83,2.88,1.84,2.89,-2.89,-2.98,-1.77,-1.06,-1.05,-1.05
176.77,1.78,2.87,1.78,2.87,-2.87,-2.93,-1.74,-1.09,-1.09,-1.09
178.54,1.73,2.86,1.73,2.85,-2.85,-2.86,-1.72,-1.11,-1.12,-1.13
180.32,1.68,2.84,1.67,2.82,-2.82,-2.80,-1.69,-1.14,-1.15,-1.16
182.13,1.62,2.81,1.61,2.79,-2.79,-2.73,-1.67,-1.17,-1.18,-1.19
183.95,1.53,2.75,1.55,2.76,-2.76,-2.66,-1.65,-1.23,-1.21,-1.21
185.79,1.48,2.72,1.49,2.73,-2.73,-2.59,-1.63,-1.24,-1.24,-1.24
187.65,1.43,2.70,1.43,2.69,-2.69,-2.52,-1.62,-1.25,-1.26,-1.27
189.52,1.37,2.65,1.36,2.65,-2.65,-2.45,-1.60,-1.27,-1.28,-1.28
191.42,1.29,2.60,1.30,2.60,-2.60,-2.37,-1.58,-1.31,-1.30,-1.30
193.33,1.22,2.54,1.23,2.55,-2.55,-2.30,-1.57,-1.33,-1.32,-1.32
195.27,1.15,2.48,1.16,2.50,-2.50,-2.22,-1.56,-1.34,-1.34,-1.33
197.22,1.09,2.44,1.09,2.44,-2.44,-2.15,-1.55,-1.35,-1.36,-1.35
199.19,1.02,2.41,1.01,2.38,-2.38,-2.07,-1.54,-1.36,-1.37,-1.38
201.18,0.94,2.34,0.94,2.33,-2.33,-2.00,-1.53,-1.38,-1.39,-1.39
203.19,0.86,2.27,0.87,2.27,-2.27,-1.92,-1.52,-1.41,-1.40,-1.40
205.23,0.79,2.21,0.79,2.21,-2.21,-1.85,-1.51,-1.42,-1.42,-1.42
207.28,0.72,2.15,0.72,2.15,-2.15,-1.78,-1.50,-1.43,-1.44,-1.43
209.35,0.64,2.09,0.64,2.09,-2.09,-1.71,-1.49,-1.45,-1.45,-1.45
211.44,0.56,2.04,0.57,2.04,-2.04,-1.64,-1.48,-1.47,-1.47,-1.47
213.56,0.49,1.97,0.50,1.98,-1.98,-1.57,-1.47,-1.48,-1.48,-1.48
215.69,0.41,1.90,0.43,1.92,-1.92,-1.50,-1.46,-1.51,-1.50,-1.49
217.85,0.34,1.86,0.35,1.87,-1.87,-1.43,-1.45,-1.52,-1.51,-1.51
220.03,0.29,1.82,0.29,1.81,-1.81,-1.36,-1.43,-1.52,-1.53,-1.53
222.23,0.22,1.78,0.22,1.76,-1.76,-1.29,-1.42,-1.54,-1.54,-1.55
224.45,0.15,1.71,0.15,1.71,-1.71,-1.23,-1.41,-1.56,-1.56,-1.56
226.70,0.08,1.65,0.09,1.67,-1.67,-1.16,-1.39,-1.58,-1.58,-1.57
228.96,0.02,1.61,0.03,1.62,-1.62,-1.10,-1.37,-1.60,-1.59,-1.58
231.25,-0.03,1.57,-0.03,1.58,-1.58,-1.04,-1.35,-1.61,-1.61,-1.60
233.57,-0.09,1.53,-0.09,1.54,-1.54,-0.98,-1.33,-1.63,-1.63,-1.62
235.90,-0.16,1.48,-0.14,1.50,-1.50,-0.92,-1.30,-1.66,-1.64,-1.64
238.26,-0.20,1.46,-0.20,1.46,-1.46,-0.86,-1.27,-1.66,-1.66,-1.66
240.64,-0.26,1.43,-0.25,1.42,-1.42,-0.80,-1.24,-1.68,-1.67,-1.68
243.05,-0.30,1.40,-0.31,1.38,-1.38,-0.74,-1.20,-1.68,-1.69,-1.69
245.48,-0.36,1.35,-0.36,1.34,-1.34,-0.68,-1.16,-1.69,-1.70,-1.70
247.93,-0.42,1.30,-0.41,1.29,-1.29,-0.62,-1.12,-1.71,-1.71,-1.71
250.41,-0.47,1.27,-0.47,1.25,-1.25,-0.56,-1.08,-1.71,-1.71,-1.73
252.92,-0.54,1.18,-0.52,1.19,-1.19,-0.50,-1.03,-1.73,-1.72,-1.72
255.45,-0.59,1.13,-0.58,1.14,-1.14,-0.45,-0.97,-1.72,-1.72,-1.72
258.00,-0.64,1.08,-0.64,1.08,-1.08,-0.39,-0.92,-1.71,-1.72,-1.72
260.58,-0.71,1.01,-0.69,1.02,-1.02,-0.33,-0.86,-1.72,-1.71,-1.72
263.19,-0.76,0.95,-0.76,0.95,-0.95,-0.27,-0.79,-1.70,-1.70,-1.70
265.82,-0.83,0.88,-0.82,0.87,-0.87,-0.21,-0.72,-1.70,-1.69,-1.70
268.48,-0.90,0.78,-0.89,0.79,-0.79,-0.16,-0.65,-1.69,-1.68,-1.68
271.16,-0.96,0.71,-0.97,0.70,-0.70,-0.10,-0.58,-1.66,-1.67,-1.67
273.87,-1.05,0.61,-1.05,0.61,-0.61,-0.04,-0.50,-1.66,-1.66,-1.65
276.61,-1.14,0.49,-1.13,0.51,-0.51,0.02,-0.42,-1.65,-1.64,-1.63
279.38,-1.21,0.42,-1.22,0.41,-0.41,0.08,-0.34,-1.61,-1.63,-1.63
282.17,-1.30,0.32,-1.32,0.29,-0.29,0.14,-0.25,-1.59,-1.61,-1.61
284.99,-1.39,0.21,-1.43,0.17,-0.17,0.20,-0.16,-1.56,-1.60,-1.60
287.84,-1.54,0.05,-1.54,0.05,-0.05,0.27,-0.07,-1.58,-1.58,-1.58
290.72,-1.67,-0.11,-1.65,-0.09,0.09,0.33,0.02,-1.58,-1.56,-1.56
293.63,-1.79,-0.23,-1.77,-0.23,0.23,0.40,0.12,-1.56,-1.55,-1.55
296.57,-1.91,-0.38,-1.90,-0.37,0.37,0.47,0.22,-1.53,-1.53,-1.53
299.53,-2.05,-0.53,-2.04,-0.53,0.53,0.54,0.32,-1.52,-1.51,-1.51
302.53,-2.20,-0.69,-2.18,-0.69,0.69,0.61,0.42,-1.51,-1.49,-1.51
305.55,-2.35,-0.87,-2.33,-0.86,0.86,0.68,0.53,-1.49,-1.47,-1.47
308.61,-2.49,-1.03,-2.48,-1.03,1.03,0.76,0.63,-1.45,-1.45,-1.46
311.69,-2.66,-1.23,-2.65,-1.22,1.22,0.84,0.74,-1.44,-1.43,-1.43
314.81,-2.80,-1.40,-2.82,-1.41,1.41,0.92,0.85,-1.39,-1.41,-1.40
317.96,-2.96,-1.58,-3.00,-1.61,1.61,1.00,0.96,-1.35,-1.39,-1.38
321.14,-3.16,-1.79,-3.18,-1.81,1.81,1.09,1.07,-1.34,-1.37,-1.36
324.35,-3.37,-2.02,-3.37,-2.03,2.03,1.18,1.19,-1.34,-1.34,-1.35
327.59,-3.57,-2.25,-3.57,-2.25,2.25,1.27,1.30,-1.32,-1.32,-1.32
330.87,-3.75,-2.44,-3.78,-2.48,2.48,1.37,1.42,-1.26,-1.30,-1.30
334.18,-3.97,-2.69,-3.99,-2.72,2.72,1.48,1.54,-1.25,-1.27,-1.28
337.52,-4.22,-2.96,-4.21,-2.96,2.96,1.58,1.66,-1.26,-1.25,-1.26
340.90,-4.42,-3.18,-4.43,-3.20,3.20,1.69,1.79,-1.21,-1.23,-1.23
344.30,-4.66,-3.45,-4.66,-3.45,3.45,1.81,1.91,-1.21,-1.21,-1.20
347.75,-4.87,-3.68,-4.88,-3.70,3.70,1.93,2.04,-1.17,-1.18,-1.19
351.23,-5.11,-3.95,-5.10,-3.94,3.94,2.06,2.16,-1.16,-1.16,-1.16
354.74,-5.31,-4.17,-5.32,-4.18,4.18,2.20,2.29,-1.13,-1.14,-1.13
358.28,-5.54,-4.42,-5.52,-4.41,4.41,2.34,2.42,-1.13,-1.11,-1.11
361.87,-5.73,-4.64,-5.71,-4.63,4.63,2.49,2.56,-1.10,-1.09,-1.09
365.49,-5.93,-4.87,-5.90,-4.83,4.83,2.64,2.69,-1.09,-1.06,-1.06
369.14,-6.09,-5.03,-6.06,-5.02,5.02,2.80,2.83,-1.06,-1.04,-1.05
372.83,-6.24,-5.21,-6.22,-5.20,5.20,2.97,2.97,-1.04,-1.02,-1.02
376.56,-6.40,-5.39,-6.35,-5.35,5.35,3.15,3.11,-1.04,-1.00,-1.01
380.33,-6.51,-5.54,-6.47,-5.49,5.49,3.33,3.25,-1.01,-0.98,-0.97
384.13,-6.60,-5.64,-6.57,-5.61,5.61,3.52,3.39,-0.98,-0.96,-0.96
387.97,-6.68,-5.73,-6.66,-5.72,5.72,3.72,3.53,-0.96,-0.94,-0.94
391.85,-6.74,-5.80,-6.73,-5.80,5.80,3.93,3.68,-0.93,-0.93,-0.93
395.77,-6.79,-5.88,-6.79,-5.87,5.87,4.14,3.82,-0.91,-0.92,-0.90
399.73,-6.83,-5.93,-6.83,-5.93,5.93,4.36,3.97,-0.90,-0.91,-0.90
403.72,-6.86,-5.96,-6.86,-5.97,5.97,4.58,4.12,-0.89,-0.90,-0.90
407.76,-6.88,-5.99,-6.89,-6.00,6.00,4.80,4.26,-0.88,-0.89,-0.89
411.84,-6.89,-6.01,-6.90,-6.02,6.02,5.03,4.41,-0.87,-0.89,-0.88
415.96,-6.90,-6.01,-6.91,-6.03,6.03,5.25,4.55,-0.87,-0.88,-0.88
420.12,-6.91,-6.02,-6.91,-6.03,6.03,5.47,4.70,-0.88,-0.88,-0.88
424.32,-6.91,-6.02,-6.91,-6.03,6.03,5.67,4.84,-0.88,-0.89,-0.88
428.56,-6.90,-6.01,-6.91,-6.02,6.02,5.87,4.98,-0.88,-0.89,-0.89
432.85,-6.88,-5.98,-6.89,-6.00,6.00,6.05,5.12,-0.87,-0.89,-0.90
437.18,-6.87,-5.97,-6.88,-5.98,5.98,6.20,5.25,-0.89,-0.90,-0.90
441.55,-6.86,-5.96,-6.85,-5.95,5.95,6.33,5.38,-0.90,-0.90,-0.90
445.96,-6.84,-5.93,-6.82,-5.92,5.92,6.43,5.50,-0.92,-0.90,-0.91
450.42,-6.80,-5.89,-6.79,-5.88,5.88,6.49,5.62,-0.91,-0.91,-0.91
454.93,-6.76,-5.84,-6.75,-5.84,5.84,6.52,5.73,-0.92,-0.91,-0.91
459.48,-6.72,-5.79,-6.70,-5.79,5.79,6.51,5.83,-0.93,-0.91,-0.92
464.07,-6.66,-5.74,-6.65,-5.74,5.74,6.47,5.93,-0.92,-0.91,-0.91
468.71,-6.61,-5.69,-6.59,-5.68,5.68,6.39,6.01,-0.93,-0.91,-0.91
473.40,-6.53,-5.61,-6.53,-5.62,5.62,6.28,6.08,-0.91,-0.91,-0.92
478.13,-6.45,-5.54,-6.46,-5.55,5.55,6.14,6.14,-0.90,-0.91,-0.91
482.91,-6.39,-5.47,-6.39,-5.48,5.48,5.97,6.19,-0.91,-0.91,-0.92
487.74,-6.31,-5.40,-6.31,-5.40,5.40,5.79,6.23,-0.91,-0.91,-0.91
492.62,-6.22,-5.32,-6.22,-5.32,5.32,5.59,6.25,-0.90,-0.91,-0.90
497.55,-6.14,-5.23,-6.14,-5.23,5.23,5.38,6.26,-0.90,-0.90,-0.91
502.52,-6.05,-5.15,-6.04,-5.14,5.14,5.17,6.25,-0.90,-0.90,-0.90
507.55,-5.96,-5.06,-5.95,-5.05,5.05,4.95,6.24,-0.91,-0.89,-0.90
