frequency,raw,error,smoothed,error_smoothed,equalization,parametric_eq,fixed_band_eq,equalized_raw,equalized_smoothed,target
20.00,11.57,3.93,11.62,3.99,-3.99,-4.01,-1.91,7.58,7.63,7.64
20.20,11.62,3.99,11.65,4.02,-4.02,-4.02,-1.96,7.60,7.63,7.63
20.40,11.66,4.03,11.67,4.05,-4.05,-4.03,-2.02,7.61,7.63,7.63
20.61,11.71,4.08,11.70,4.08,-4.08,-4.04,-2.07,7.63,7.62,7.63
20.81,11.76,4.15,11.72,4.10,-4.10,-4.05,-2.13,7.66,7.62,7.61
21.02,11.80,4.19,11.74,4.12,-4.12,-4.06,-2.19,7.68,7.62,7.61
21.23,11.80,4.19,11.76,4.14,-4.14,-4.07,-2.26,7.66,7.61,7.61
21.44,11.80,4.18,11.77,4.16,-4.16,-4.08,-2.32,7.64,7.61,7.62
21.66,11.80,4.19,11.78,4.18,-4.18,-4.08,-2.38,7.62,7.61,7.61
21.87,11.80,4.18,11.80,4.19,-4.19,-4.09,-2.45,7.61,7.61,7.62
22.09,11.80,4.19,11.81,4.20,-4.20,-4.10,-2.52,7.60,7.61,7.61
22.31,11.80,4.18,11.81,4.20,-4.20,-4.11,-2.59,7.59,7.61,7.62
22.54,11.80,4.19,11.81,4.20,-4.20,-4.12,-2.67,7.60,7.61,7.61
22.76,11.80,4.19,11.81,4.20,-4.20,-4.13,-2.74,7.60,7.61,7.61
22.99,11.80,4.19,11.81,4.19,-4.19,-4.14,-2.82,7.61,7.61,7.61
23.22,11.80,4.19,11.80,4.18,-4.18,-4.15,-2.90,7.61,7.62,7.61
23.45,11.80,4.18,11.80,4.18,-4.18,-4.16,-2.98,7.62,7.62,7.62
23.69,11.80,4.18,11.79,4.17,-4.17,-4.17,-3.06,7.62,7.62,7.62
23.92,11.80,4.18,11.79,4.17,-4.17,-4.18,-3.14,7.63,7.62,7.62
24.16,11.80,4.17,11.79,4.16,-4.16,-4.19,-3.23,7.64,7.63,7.63
24.40,11.80,4.16,11.79,4.16,-4.16,-4.20,-3.31,7.64,7.63,7.64
24.65,11.80,4.16,11.79,4.16,-4.16,-4.21,-3.40,7.64,7.63,7.64
24.89,11.80,4.16,11.80,4.16,-4.16,-4.22,-3.49,7.64,7.63,7.64
25.14,11.80,4.17,11.80,4.17,-4.17,-4.24,-3.58,7.63,7.63,7.63
25.39,11.80,4.16,11.82,4.18,-4.18,-4.25,-3.67,7.62,7.64,7.64
25.65,11.80,4.16,11.83,4.19,-4.19,-4.26,-3.76,7.60,7.64,7.64
25.91,11.80,4.17,11.85,4.21,-4.21,-4.27,-3.85,7.59,7.64,7.63
26.16,11.83,4.19,11.87,4.23,-4.23,-4.28,-3.94,7.60,7.63,7.64
26.43,11.87,4.23,11.89,4.25,-4.25,-4.29,-4.03,7.61,7.63,7.64
26.69,11.92,4.28,11.91,4.28,-4.28,-4.30,-4.12,7.64,7.63,7.64
26.96,11.96,4.34,11.93,4.30,-4.30,-4.31,-4.21,7.66,7.63,7.62
27.23,11.98,4.36,11.95,4.33,-4.33,-4.32,-4.30,7.65,7.63,7.62
27.50,12.00,4.38,11.97,4.35,-4.35,-4.33,-4.38,7.65,7.62,7.62
27.77,12.02,4.39,11.99,4.37,-4.37,-4.35,-4.47,7.65,7.62,7.63
28.05,12.03,4.41,12.01,4.39,-4.39,-4.36,-4.55,7.64,7.62,7.62
28.33,12.03,4.42,12.02,4.41,-4.41,-4.37,-4.63,7.62,7.61,7.61
28.62,12.03,4.43,12.03,4.43,-4.43,-4.38,-4.70,7.60,7.61,7.60
28.90,12.03,4.42,12.04,4.44,-4.44,-4.39,-4.77,7.59,7.60,7.61
29.19,12.03,4.43,12.04,4.45,-4.45,-4.41,-4.84,7.58,7.59,7.60
29.48,12.03,4.45,12.04,4.45,-4.45,-4.42,-4.90,7.57,7.58,7.58
29.78,12.03,4.45,12.04,4.46,-4.46,-4.43,-4.96,7.57,7.58,7.58
30.08,12.03,4.45,12.03,4.47,-4.47,-4.44,-5.01,7.56,7.57,7.58
30.38,12.03,4.47,12.03,4.48,-4.48,-4.46,-5.05,7.55,7.56,7.56
30.68,12.03,4.48,12.03,4.48,-4.48,-4.47,-5.09,7.55,7.55,7.55
30.99,12.03,4.49,12.03,4.49,-4.49,-4.48,-5.13,7.54,7.54,7.54
31.30,12.03,4.50,12.03,4.50,-4.50,-4.50,-5.16,7.53,7.53,7.53
31.61,12.03,4.51,12.03,4.51,-4.51,-4.51,-5.18,7.52,7.52,7.52
31.93,12.03,4.53,12.03,4.52,-4.52,-4.52,-5.20,7.51,7.51,7.50
32.24,12.03,4.52,12.03,4.52,-4.52,-4.54,-5.21,7.50,7.50,7.51
32.57,12.03,4.54,12.03,4.53,-4.53,-4.55,-5.22,7.50,7.50,7.49
32.89,12.03,4.54,12.03,4.54,-4.54,-4.57,-5.22,7.49,7.49,7.49
33.22,12.03,4.54,12.03,4.54,-4.54,-4.58,-5.22,7.49,7.49,7.49
33.55,12.03,4.55,12.03,4.54,-4.54,-4.59,-5.21,7.48,7.48,7.48
33.89,12.03,4.54,12.03,4.55,-4.55,-4.61,-5.20,7.48,7.48,7.49
34.23,12.03,4.56,12.03,4.55,-4.55,-4.62,-5.19,7.48,7.48,7.47
34.57,12.03,4.55,12.03,4.56,-4.56,-4.64,-5.17,7.47,7.47,7.48
34.92,12.03,4.56,12.03,4.56,-4.56,-4.66,-5.15,7.47,7.47,7.47
35.27,12.03,4.55,12.03,4.57,-4.57,-4.67,-5.13,7.46,7.46,7.48
35.62,12.03,4.58,12.03,4.57,-4.57,-4.69,-5.10,7.45,7.45,7.45
35.97,12.03,4.58,12.03,4.59,-4.59,-4.70,-5.08,7.44,7.44,7.45
36.33,12.03,4.59,12.03,4.60,-4.60,-4.72,-5.05,7.43,7.43,7.44
36.70,12.03,4.61,12.03,4.61,-4.61,-4.74,-5.02,7.42,7.42,7.42
37.06,12.03,4.63,12.03,4.63,-4.63,-4.75,-5.00,7.40,7.40,7.40
37.43,12.03,4.64,12.03,4.65,-4.65,-4.77,-4.97,7.38,7.38,7.39
37.81,12.03,4.67,12.03,4.67,-4.67,-4.79,-4.95,7.35,7.35,7.36
38.19,12.03,4.69,12.03,4.70,-4.70,-4.81,-4.92,7.33,7.33,7.34
38.57,12.03,4.71,12.03,4.73,-4.73,-4.82,-4.90,7.30,7.30,7.32
38.95,12.03,4.74,12.03,4.75,-4.75,-4.84,-4.88,7.28,7.28,7.29
39.34,12.03,4.79,12.03,4.78,-4.78,-4.86,-4.86,7.25,7.25,7.24
39.74,12.03,4.82,12.03,4.81,-4.81,-4.88,-4.85,7.22,7.22,7.21
40.14,12.03,4.85,12.03,4.84,-4.84,-4.90,-4.83,7.19,7.19,7.18
40.54,12.03,4.87,12.03,4.87,-4.87,-4.92,-4.82,7.16,7.16,7.16
40.94,12.03,4.91,12.04,4.91,-4.91,-4.94,-4.81,7.12,7.13,7.12
41.35,12.03,4.93,12.05,4.94,-4.94,-4.96,-4.81,7.09,7.10,7.10
41.76,12.03,4.96,12.05,4.97,-4.97,-4.98,-4.81,7.05,7.07,7.07
42.18,12.03,4.98,12.04,5.00,-5.00,-5.00,-4.81,7.03,7.04,7.05
42.60,12.03,5.01,12.03,5.02,-5.02,-5.02,-4.81,7.01,7.01,7.02
43.03,12.03,5.04,12.02,5.04,-5.04,-5.04,-4.82,6.99,6.99,6.99
43.46,12.03,5.07,12.01,5.05,-5.05,-5.06,-4.83,6.98,6.96,6.96
43.90,12.03,5.09,11.99,5.06,-5.06,-5.09,-4.85,6.97,6.93,6.94
44.33,12.03,5.13,11.97,5.07,-5.07,-5.11,-4.86,6.96,6.90,6.90
44.78,12.03,5.16,11.95,5.08,-5.08,-5.13,-4.89,6.95,6.87,6.87
45.23,11.98,5.12,11.93,5.09,-5.09,-5.15,-4.91,6.89,6.84,6.86
45.68,11.87,5.06,11.91,5.10,-5.10,-5.18,-4.94,6.77,6.81,6.81
46.13,11.80,5.03,11.88,5.11,-5.11,-5.20,-4.98,6.69,6.77,6.77
46.60,11.80,5.06,11.86,5.13,-5.13,-5.23,-5.01,6.67,6.74,6.74
47.06,11.80,5.09,11.84,5.14,-5.14,-5.25,-5.05,6.66,6.70,6.71
47.53,11.80,5.12,11.82,5.16,-5.16,-5.28,-5.10,6.64,6.66,6.68
48.01,11.80,5.18,11.81,5.19,-5.19,-5.30,-5.14,6.61,6.62,6.62
48.49,11.80,5.22,11.80,5.21,-5.21,-5.33,-5.19,6.58,6.58,6.58
48.97,11.80,5.26,11.79,5.25,-5.25,-5.35,-5.25,6.55,6.54,6.54
49.46,11.80,5.30,11.78,5.28,-5.28,-5.38,-5.30,6.52,6.50,6.50
49.96,11.80,5.36,11.78,5.33,-5.33,-5.41,-5.36,6.47,6.46,6.44
50.46,11.80,5.40,11.79,5.38,-5.38,-5.43,-5.42,6.42,6.41,6.40
50.96,11.80,5.43,11.80,5.43,-5.43,-5.46,-5.48,6.37,6.37,6.37
51.47,11.80,5.47,11.80,5.48,-5.48,-5.49,-5.55,6.32,6.32,6.33
51.99,11.80,5.52,11.80,5.52,-5.52,-5.52,-5.62,6.28,6.28,6.28
52.51,11.80,5.56,11.80,5.57,-5.57,-5.55,-5.68,6.23,6.23,6.24
53.03,11.80,5.59,11.80,5.62,-5.62,-5.58,-5.75,6.18,6.18,6.21
53.56,11.80,5.66,11.81,5.67,-5.67,-5.61,-5.82,6.13,6.14,6.14
54.10,11.80,5.71,11.82,5.72,-5.72,-5.64,-5.89,6.08,6.09,6.09
54.64,11.80,5.75,11.82,5.77,-5.77,-5.67,-5.96,6.03,6.05,6.05
55.18,11.80,5.81,11.81,5.81,-5.81,-5.70,-6.03,5.99,6.00,5.99
55.74,11.80,5.86,11.81,5.85,-5.85,-5.73,-6.10,5.95,5.96,5.94
56.29,11.80,5.90,11.79,5.88,-5.88,-5.76,-6.16,5.92,5.91,5.90
56.86,11.80,5.93,11.78,5.91,-5.91,-5.80,-6.23,5.89,5.87,5.87
57.42,11.80,5.99,11.76,5.94,-5.94,-5.83,-6.29,5.86,5.82,5.81
58.00,11.80,6.03,11.74,5.97,-5.97,-5.86,-6.35,5.83,5.77,5.77
58.58,11.80,6.06,11.72,5.99,-5.99,-5.90,-6.40,5.81,5.73,5.74
59.16,11.76,6.05,11.70,6.02,-6.02,-5.93,-6.46,5.74,5.68,5.71
59.76,11.63,5.97,11.68,6.05,-6.05,-5.97,-6.50,5.58,5.63,5.66
60.35,11.58,5.99,11.65,6.08,-6.08,-6.00,-6.55,5.50,5.58,5.59
60.96,11.57,6.03,11.63,6.11,-6.11,-6.04,-6.59,5.46,5.53,5.54
61.57,11.57,6.10,11.61,6.14,-6.14,-6.07,-6.62,5.43,5.47,5.47
62.18,11.57,6.17,11.59,6.18,-6.18,-6.11,-6.65,5.39,5.42,5.40
62.80,11.57,6.22,11.58,6.22,-6.22,-6.15,-6.67,5.35,5.36,5.35
63.43,11.57,6.28,11.58,6.28,-6.28,-6.19,-6.69,5.29,5.30,5.29
64.07,11.57,6.33,11.57,6.33,-6.33,-6.22,-6.71,5.24,5.24,5.24
64.71,11.57,6.38,11.57,6.39,-6.39,-6.26,-6.72,5.18,5.18,5.19
65.35,11.57,6.45,11.57,6.45,-6.45,-6.30,-6.72,5.12,5.12,5.12
66.01,11.57,6.51,11.56,6.50,-6.50,-6.34,-6.72,5.07,5.06,5.06
66.67,11.57,6.56,11.56,6.56,-6.56,-6.38,-6.72,5.01,5.00,5.01
67.33,11.57,6.63,11.55,6.61,-6.61,-6.42,-6.72,4.96,4.94,4.94
68.01,11.57,6.68,11.53,6.65,-6.65,-6.46,-6.71,4.92,4.88,4.89
68.69,11.57,6.75,11.51,6.69,-6.69,-6.51,-6.69,4.87,4.82,4.82
69.37,11.57,6.80,11.49,6.74,-6.74,-6.55,-6.68,4.83,4.75,4.77
70.07,11.55,6.85,11.47,6.78,-6.78,-6.59,-6.66,4.77,4.69,4.70
70.77,11.39,6.75,11.45,6.82,-6.82,-6.63,-6.65,4.57,4.63,4.64
71.48,11.34,6.78,11.43,6.87,-6.87,-6.67,-6.63,4.47,4.56,4.56
72.19,11.34,6.84,11.42,6.92,-6.92,-6.72,-6.61,4.42,4.50,4.50
72.91,11.34,6.90,11.40,6.96,-6.96,-6.76,-6.60,4.38,4.44,4.44
73.64,11.34,6.98,11.38,7.00,-7.00,-6.81,-6.58,4.34,4.37,4.36
74.38,11.34,7.04,11.36,7.04,-7.04,-6.85,-6.56,4.30,4.31,4.30
75.12,11.34,7.10,11.33,7.08,-7.08,-6.89,-6.55,4.26,4.26,4.24
75.87,11.34,7.13,11.31,7.11,-7.11,-6.94,-6.54,4.23,4.20,4.21
76.63,11.34,7.20,11.29,7.14,-7.14,-6.98,-6.53,4.20,4.15,4.14
77.40,11.34,7.25,11.27,7.18,-7.18,-7.03,-6.52,4.16,4.09,4.09
78.17,11.34,7.30,11.26,7.21,-7.21,-7.08,-6.52,4.13,4.04,4.04
78.95,11.34,7.34,11.25,7.26,-7.26,-7.12,-6.52,4.08,3.99,4.00
79.74,11.18,7.24,11.24,7.30,-7.30,-7.17,-6.52,3.88,3.94,3.94
80.54,11.12,7.23,11.22,7.33,-7.33,-7.21,-6.53,3.79,3.89,3.89
81.35,11.12,7.28,11.20,7.36,-7.36,-7.26,-6.54,3.76,3.84,3.84
82.16,11.12,7.32,11.17,7.39,-7.39,-7.31,-6.55,3.73,3.78,3.80
82.98,11.12,7.38,11.15,7.42,-7.42,-7.35,-6.57,3.70,3.73,3.74
83.81,11.12,7.44,11.12,7.45,-7.45,-7.40,-6.60,3.67,3.67,3.68
84.65,11.12,7.50,11.09,7.48,-7.48,-7.45,-6.62,3.64,3.61,3.62
85.50,11.12,7.57,11.06,7.51,-7.51,-7.50,-6.66,3.61,3.55,3.55
86.35,11.12,7.63,11.04,7.55,-7.55,-7.54,-6.69,3.57,3.49,3.49
87.22,11.11,7.68,11.02,7.59,-7.59,-7.59,-6.74,3.51,3.43,3.43
88.09,11.05,7.69,11.01,7.65,-7.65,-7.64,-6.79,3.40,3.36,3.36
88.97,10.90,7.60,11.00,7.70,-7.70,-7.68,-6.84,3.20,3.30,3.30
89.86,10.89,7.66,10.98,7.74,-7.74,-7.73,-6.90,3.14,3.23,3.23
90.76,10.89,7.73,10.95,7.78,-7.78,-7.78,-6.96,3.11,3.17,3.16
91.66,10.89,7.79,10.92,7.82,-7.82,-7.82,-7.03,3.07,3.10,3.10
92.58,10.89,7.85,10.89,7.86,-7.86,-7.87,-7.10,3.03,3.03,3.04
93.51,10.89,7.92,10.86,7.90,-7.90,-7.91,-7.18,2.99,2.96,2.97
94.44,10.89,7.98,10.83,7.95,-7.95,-7.96,-7.26,2.94,2.89,2.91
95.39,10.89,8.06,10.81,7.99,-7.99,-8.00,-7.35,2.90,2.82,2.83
96.34,10.85,8.10,10.79,8.04,-8.04,-8.05,-7.44,2.81,2.75,2.75
97.30,10.74,8.05,10.76,8.08,-8.08,-8.09,-7.53,2.65,2.68,2.69
98.28,10.66,8.06,10.74,8.13,-8.13,-8.13,-7.63,2.53,2.61,2.60
99.26,10.66,8.13,10.72,8.17,-8.17,-8.18,-7.74,2.49,2.54,2.53
100.25,10.66,8.19,10.68,8.20,-8.20,-8.22,-7.84,2.46,2.48,2.47
101.25,10.66,8.25,10.65,8.23,-8.23,-8.26,-7.96,2.42,2.41,2.41
102.27,10.66,8.32,10.62,8.28,-8.28,-8.30,-8.07,2.38,2.35,2.34
103.29,10.66,8.38,10.59,8.31,-8.31,-8.34,-8.19,2.35,2.28,2.28
104.32,10.61,8.38,10.56,8.34,-8.34,-8.38,-8.30,2.27,2.22,2.23
105.37,10.49,8.32,10.53,8.37,-8.37,-8.42,-8.42,2.12,2.16,2.17
106.42,10.43,8.32,10.50,8.39,-8.39,-8.46,-8.54,2.04,2.11,2.11
107.48,10.43,8.39,10.47,8.42,-8.42,-8.49,-8.67,2.01,2.05,2.04
108.56,10.43,8.43,10.45,8.46,-8.46,-8.53,-8.79,1.97,1.99,2.00
109.64,10.43,8.49,10.43,8.49,-8.49,-8.56,-8.91,1.94,1.93,1.94
110.74,10.43,8.55,10.39,8.52,-8.52,-8.60,-9.02,1.91,1.88,1.88
111.85,10.43,8.61,10.36,8.54,-8.54,-8.63,-9.14,1.89,1.82,1.82
112.97,10.41,8.64,10.32,8.56,-8.56,-8.66,-9.25,1.85,1.76,1.77
114.10,10.20,8.49,10.28,8.59,-8.59,-8.69,-9.35,1.61,1.70,1.71
115.24,10.20,8.56,10.25,8.62,-8.62,-8.72,-9.45,1.58,1.63,1.64
116.39,10.20,8.63,10.23,8.65,-8.65,-8.75,-9.54,1.55,1.57,1.57
117.55,10.20,8.69,10.19,8.69,-8.69,-8.77,-9.63,1.51,1.51,1.51
118.73,10.20,8.76,10.15,8.71,-8.71,-8.80,-9.71,1.49,1.44,1.44
119.92,10.20,8.83,10.11,8.73,-8.73,-8.82,-9.77,1.47,1.38,1.37
121.12,9.98,8.66,10.06,8.75,-8.75,-8.85,-9.83,1.23,1.31,1.32
122.33,9.98,8.74,10.03,8.78,-8.78,-8.87,-9.88,1.20,1.24,1.24
123.55,9.98,8.79,9.99,8.81,-8.81,-8.89,-9.91,1.16,1.18,1.19
124.79,9.98,8.86,9.96,8.84,-8.84,-8.91,-9.93,1.13,1.11,1.12
126.03,9.98,8.93,9.92,8.88,-8.88,-8.93,-9.95,1.10,1.04,1.05
127.29,9.90,8.92,9.89,8.91,-8.91,-8.94,-9.95,0.99,0.98,0.98
128.57,9.80,8.88,9.84,8.93,-8.93,-8.96,-9.94,0.87,0.91,0.92
129.85,9.75,8.91,9.81,8.96,-8.96,-8.97,-9.92,0.79,0.84,0.84
131.15,9.75,8.97,9.77,8.99,-8.99,-8.99,-9.89,0.76,0.78,0.78
132.46,9.75,9.04,9.73,9.02,-9.02,-9.00,-9.84,0.73,0.72,0.71
133.79,9.75,9.10,9.70,9.04,-9.04,-9.01,-9.80,0.71,0.65,0.65
135.12,9.74,9.16,9.66,9.07,-9.07,-9.02,-9.74,0.67,0.59,0.58
136.48,9.58,9.04,9.62,9.09,-9.09,-9.03,-9.67,0.49,0.53,0.54
137.84,9.52,9.04,9.58,9.11,-9.11,-9.04,-9.60,0.41,0.47,0.48
139.22,9.52,9.11,9.55,9.13,-9.13,-9.04,-9.53,0.39,0.42,0.41
140.61,9.52,9.16,9.51,9.15,-9.15,-9.05,-9.45,0.37,0.36,0.36
142.02,9.52,9.21,9.47,9.17,-9.17,-9.05,-9.37,0.35,0.31,0.31
143.44,9.51,9.26,9.44,9.19,-9.19,-9.06,-9.29,0.32,0.25,0.25
144.87,9.34,9.13,9.40,9.20,-9.20,-9.06,-9.20,0.14,0.20,0.21
146.32,9.30,9.14,9.36,9.21,-9.21,-9.06,-9.11,0.09,0.15,0.16
147.78,9.29,9.19,9.32,9.21,-9.21,-9.06,-9.03,0.07,0.10,0.10
149.26,9.29,9.23,9.28,9.22,-9.22,-9.06,-8.95,0.07,0.06,0.06
150.75,9.29,9.29,9.24,9.23,-9.23,-9.06,-8.86,0.05,0.01,-0.00
152.26,9.28,9.31,9.21,9.25,-9.25,-9.06,-8.78,0.03,-0.04,-0.03
153.78,9.14,9.23,9.16,9.25,-9.25,-9.06,-8.71,-0.11,-0.09,-0.09
155.32,9.07,9.20,9.11,9.25,-9.25,-9.06,-8.63,-0.18,-0.14,-0.13
156.88,9.06,9.24,9.06,9.24,-9.24,-9.06,-8.56,-0.18,-0.19,-0.18
158.44,9.06,9.29,9.01,9.25,-9.25,-9.06,-8.50,-0.19,-0.24,-0.23
160.03,9.00,9.28,8.97,9.25,-9.25,-9.05,-8.44,-0.25,-0.28,-0.28
161.63,8.87,9.20,8.93,9.26,-9.26,-9.05,-8.38,-0.39,-0.33,-0.33
163.24,8.84,9.23,8.87,9.25,-9.25,-9.05,-8.33,-0.41,-0.38,-0.39
164.88,8.84,9.27,8.82,9.25,-9.25,-9.04,-8.28,-0.41,-0.43,-0.43
166.53,8.80,9.29,8.77,9.25,-9.25,-9.04,-8.24,-0.45,-0.48,-0.49
168.19,8.68,9.20,8.72,9.25,-9.25,-9.04,-8.21,-0.57,-0.53,-0.52
169.87,8.61,9.18,8.67,9.25,-9.25,-9.03,-8.18,-0.64,-0.58,-0.57
171.57,8.61,9.24,8.62,9.25,-9.25,-9.03,-8.16,-0.64,-0.63,-0.63
173.29,8.61,9.29,8.57,9.26,-9.26,-9.02,-8.14,-0.65,-0.68,-0.68
175.02,8.61,9.34,8.52,9.26,-9.26,-9.02,-8.13,-0.65,-0.74,-0.73
176.77,8.42,9.20,8.47,9.26,-9.26,-9.02,-8.12,-0.84,-0.79,-0.78
178.54,8.38,9.21,8.42,9.26,-9.26,-9.01,-8.12,-0.88,-0.84,-0.83
180.32,8.38,9.27,8.37,9.26,-9.26,-9.01,-8.13,-0.88,-0.89,-0.89
182.13,8.38,9.32,8.32,9.26,-9.26,-9.00,-8.14,-0.88,-0.94,-0.94
183.95,8.29,9.28,8.27,9.26,-9.26,-9.00,-8.16,-0.97,-0.99,-0.99
185.79,8.16,9.21,8.22,9.26,-9.26,-9.00,-8.18,-1.10,-1.04,-1.05
187.65,8.15,9.24,8.16,9.26,-9.26,-8.99,-8.21,-1.11,-1.09,-1.09
189.52,8.15,9.29,8.11,9.25,-9.25,-8.99,-8.25,-1.11,-1.14,-1.14
191.42,8.10,9.28,8.06,9.25,-9.25,-8.99,-8.29,-1.15,-1.19,-1.18
193.33,7.97,9.20,8.01,9.24,-9.24,-8.98,-8.34,-1.27,-1.23,-1.23
195.27,7.92,9.20,7.96,9.23,-9.23,-8.98,-8.39,-1.31,-1.28,-1.28
197.22,7.92,9.25,7.91,9.23,-9.23,-8.98,-8.44,-1.31,-1.32,-1.33
199.19,7.91,9.27,7.86,9.23,-9.23,-8.97,-8.50,-1.32,-1.36,-1.36
201.18,7.79,9.20,7.81,9.21,-9.21,-8.97,-8.57,-1.42,-1.40,-1.41
203.19,7.70,9.14,7.76,9.20,-9.20,-8.97,-8.64,-1.50,-1.44,-1.44
205.23,7.70,9.17,7.71,9.19,-9.19,-8.97,-8.71,-1.49,-1.48,-1.47
207.28,7.70,9.20,7.67,9.18,-9.18,-8.96,-8.78,-1.48,-1.51,-1.50
209.35,7.70,9.24,7.62,9.17,-9.17,-8.96,-8.86,-1.47,-1.55,-1.54
211.44,7.57,9.15,7.57,9.15,-9.15,-8.95,-8.94,-1.58,-1.58,-1.58
213.56,7.48,9.09,7.53,9.14,-9.14,-8.95,-9.02,-1.66,-1.61,-1.61
215.69,7.47,9.11,7.48,9.13,-9.13,-8.94,-9.10,-1.66,-1.65,-1.64
217.85,7.47,9.14,7.43,9.11,-9.11,-8.94,-9.18,-1.64,-1.68,-1.67
220.03,7.38,9.09,7.37,9.08,-9.08,-8.93,-9.25,-1.70,-1.71,-1.71
222.23,7.28,9.02,7.31,9.05,-9.05,-8.93,-9.33,-1.78,-1.74,-1.74
224.45,7.24,9.01,7.27,9.04,-9.04,-8.92,-9.40,-1.80,-1.77,-1.77
226.70,7.24,9.04,7.21,9.01,-9.01,-8.91,-9.47,-1.77,-1.80,-1.80
228.96,7.24,9.07,7.15,8.98,-8.98,-8.90,-9.53,-1.74,-1.83,-1.83
231.25,7.07,8.92,7.09,8.94,-8.94,-8.89,-9.59,-1.87,-1.85,-1.85
233.57,7.01,8.89,7.03,8.91,-8.91,-8.88,-9.64,-1.90,-1.88,-1.88
235.90,7.01,8.91,6.98,8.89,-8.89,-8.87,-9.68,-1.88,-1.90,-1.90
238.26,6.90,8.84,6.93,8.85,-8.85,-8.85,-9.71,-1.95,-1.93,-1.94
240.64,6.80,8.74,6.87,8.82,-8.82,-8.84,-9.74,-2.02,-1.95,-1.94
243.05,6.78,8.74,6.81,8.78,-8.78,-8.82,-9.75,-2.00,-1.97,-1.96
245.48,6.78,8.77,6.76,8.75,-8.75,-8.80,-9.75,-1.97,-1.99,-1.99
247.93,6.78,8.79,6.70,8.71,-8.71,-8.78,-9.74,-1.93,-2.01,-2.01
250.41,6.60,8.61,6.64,8.66,-8.66,-8.76,-9.71,-2.06,-2.02,-2.01
252.92,6.56,8.59,6.59,8.62,-8.62,-8.73,-9.68,-2.06,-2.04,-2.03
255.45,6.56,8.61,6.53,8.59,-8.59,-8.71,-9.63,-2.03,-2.05,-2.05
258.00,6.56,8.63,6.48,8.55,-8.55,-8.68,-9.57,-1.99,-2.07,-2.07
260.58,6.42,8.50,6.43,8.50,-8.50,-8.65,-9.50,-2.08,-2.08,-2.08
263.19,6.34,8.43,6.37,8.46,-8.46,-8.62,-9.42,-2.12,-2.09,-2.09
265.82,6.33,8.43,6.32,8.42,-8.42,-8.58,-9.33,-2.09,-2.10,-2.10
268.48,6.27,8.37,6.26,8.36,-8.36,-8.54,-9.23,-2.09,-2.11,-2.10
271.16,6.14,8.24,6.19,8.30,-8.30,-8.50,-9.12,-2.17,-2.11,-2.10
273.87,6.10,8.21,6.13,8.25,-8.25,-8.46,-9.00,-2.15,-2.12,-2.11
276.61,6.10,8.22,6.08,8.20,-8.20,-8.42,-8.88,-2.10,-2.13,-2.12
279.38,6.10,8.24,6.02,8.15,-8.15,-8.37,-8.75,-2.05,-2.13,-2.14
282.17,5.93,8.07,5.96,8.09,-8.09,-8.32,-8.62,-2.17,-2.13,-2.14
284.99,5.87,8.00,5.90,8.04,-8.04,-8.27,-8.49,-2.17,-2.13,-2.13
287.84,5.87,8.00,5.84,7.98,-7.98,-8.21,-8.35,-2.11,-2.13,-2.13
290.72,5.80,7.94,5.79,7.92,-7.92,-8.15,-8.21,-2.12,-2.13,-2.14
293.63,5.67,7.80,5.72,7.86,-7.86,-8.09,-8.07,-2.19,-2.14,-2.13
296.57,5.65,7.78,5.67,7.80,-7.80,-8.03,-7.93,-2.15,-2.14,-2.13
299.53,5.65,7.79,5.61,7.75,-7.75,-7.97,-7.79,-2.10,-2.14,-2.14
302.53,5.64,7.76,5.56,7.70,-7.70,-7.90,-7.65,-2.06,-2.14,-2.12
305.55,5.45,7.58,5.50,7.64,-7.64,-7.83,-7.51,-2.19,-2.13,-2.13
308.61,5.42,7.54,5.44,7.57,-7.57,-7.76,-7.37,-2.15,-2.13,-2.12
311.69,5.42,7.55,5.38,7.51,-7.51,-7.68,-7.24,-2.09,-2.13,-2.13
314.81,5.28,7.40,5.33,7.45,-7.45,-7.61,-7.11,-2.17,-2.13,-2.12
317.96,5.20,7.33,5.26,7.39,-7.39,-7.53,-6.98,-2.19,-2.13,-2.13
321.14,5.19,7.31,5.20,7.32,-7.32,-7.45,-6.86,-2.13,-2.12,-2.12
324.35,5.19,7.32,5.13,7.24,-7.24,-7.37,-6.74,-2.06,-2.12,-2.13
327.59,5.16,7.26,5.07,7.18,-7.18,-7.29,-6.62,-2.02,-2.11,-2.10
330.87,5.01,7.12,5.00,7.11,-7.11,-7.21,-6.51,-2.10,-2.11,-2.11
334.18,4.96,7.07,4.93,7.03,-7.03,-7.12,-6.40,-2.07,-2.10,-2.11
337.52,4.83,6.93,4.86,6.96,-6.96,-7.03,-6.29,-2.13,-2.10,-2.10
340.90,4.75,6.84,4.81,6.90,-6.90,-6.95,-6.19,-2.15,-2.09,-2.09
344.30,4.73,6.81,4.74,6.83,-6.83,-6.86,-6.10,-2.10,-2.09,-2.08
347.75,4.67,6.74,4.67,6.75,-6.75,-6.77,-6.01,-2.08,-2.08,-2.07
351.23,4.55,6.63,4.61,6.68,-6.68,-6.68,-5.92,-2.13,-2.07,-2.08
354.74,4.51,6.56,4.55,6.61,-6.61,-6.59,-5.84,-2.10,-2.06,-2.05
358.28,4.51,6.56,4.48,6.54,-6.54,-6.49,-5.76,-2.03,-2.05,-2.05
361.87,4.51,6.56,4.42,6.47,-6.47,-6.40,-5.69,-1.96,-2.05,-2.05
365.49,4.34,6.38,4.37,6.41,-6.41,-6.31,-5.62,-2.07,-2.04,-2.04
369.14,4.29,6.32,4.32,6.35,-6.35,-6.22,-5.55,-2.06,-2.04,-2.03
372.83,4.28,6.30,4.26,6.29,-6.29,-6.12,-5.49,-2.01,-2.03,-2.02
376.56,4.23,6.26,4.19,6.22,-6.22,-6.03,-5.43,-1.99,-2.03,-2.03
380.33,4.08,6.10,4.13,6.15,-6.15,-5.93,-5.38,-2.07,-2.02,-2.02
384.13,4.05,6.06,4.07,6.09,-6.09,-5.84,-5.33,-2.04,-2.02,-2.01
387.97,4.05,6.06,4.01,6.03,-6.03,-5.75,-5.28,-1.98,-2.02,-2.01
391.85,4.04,6.05,3.95,5.97,-5.97,-5.65,-5.24,-1.93,-2.01,-2.01
395.77,3.88,5.90,3.89,5.90,-5.90,-5.56,-5.20,-2.02,-2.01,-2.02
399.73,3.82,5.83,3.83,5.83,-5.83,-5.47,-5.16,-2.01,-2.00,-2.01
403.72,3.74,5.73,3.77,5.76,-5.76,-5.38,-5.13,-2.02,-2.00,-1.99
407.76,3.62,5.61,3.71,5.70,-5.70,-5.28,-5.10,-2.08,-1.99,-1.99
411.84,3.59,5.57,3.64,5.62,-5.62,-5.19,-5.07,-2.03,-1.98,-1.98
415.96,3.59,5.56,3.58,5.56,-5.56,-5.10,-5.04,-1.97,-1.97,-1.97
420.12,3.59,5.56,3.53,5.49,-5.49,-5.01,-5.01,-1.90,-1.96,-1.97
424.32,3.57,5.52,3.48,5.43,-5.43,-4.92,-4.99,-1.86,-1.95,-1.95
428.56,3.43,5.36,3.42,5.36,-5.36,-4.83,-4.97,-1.93,-1.94,-1.93
432.85,3.37,5.29,3.36,5.29,-5.29,-4.75,-4.95,-1.92,-1.93,-1.92
437.18,3.26,5.17,3.30,5.22,-5.22,-4.66,-4.92,-1.96,-1.92,-1.91
441.55,3.17,5.08,3.25,5.15,-5.15,-4.57,-4.90,-1.98,-1.90,-1.91
445.96,3.14,5.03,3.19,5.08,-5.08,-4.49,-4.88,-1.94,-1.89,-1.89
450.42,3.14,5.02,3.13,5.01,-5.01,-4.40,-4.86,-1.87,-1.88,-1.88
454.93,3.14,5.00,3.07,4.93,-4.93,-4.32,-4.84,-1.79,-1.86,-1.86
459.48,3.09,4.94,3.01,4.86,-4.86,-4.23,-4.81,-1.77,-1.85,-1.85
464.07,2.94,4.77,2.94,4.78,-4.78,-4.15,-4.78,-1.84,-1.84,-1.83
468.71,2.91,4.72,2.88,4.70,-4.70,-4.07,-4.76,-1.79,-1.82,-1.81
473.40,2.77,4.57,2.81,4.62,-4.62,-3.99,-4.72,-1.85,-1.81,-1.80
478.13,2.69,4.47,2.76,4.55,-4.55,-3.91,-4.69,-1.86,-1.79,-1.78
482.91,2.68,4.45,2.70,4.47,-4.47,-3.83,-4.65,-1.80,-1.77,-1.77
