frequency,raw,error,smoothed,error_smoothed,equalization,parametric_eq,fixed_band_eq,equalized_raw,equalized_smoothed,target
20.00,11.57,2.24,11.62,2.30,-2.30,-2.31,-1.16,9.27,9.33,9.33
20.20,11.62,2.30,11.65,2.33,-2.33,-2.32,-1.19,9.29,9.32,9.32
20.40,11.66,2.34,11.67,2.36,-2.36,-2.33,-1.23,9.30,9.32,9.32
20.61,11.71,2.39,11.70,2.39,-2.39,-2.34,-1.26,9.32,9.31,9.32
20.81,11.76,2.46,11.72,2.41,-2.41,-2.35,-1.30,9.35,9.31,9.30
21.02,11.80,2.50,11.74,2.43,-2.43,-2.36,-1.33,9.36,9.30,9.30
21.23,11.80,2.50,11.76,2.45,-2.45,-2.37,-1.37,9.34,9.30,9.30
21.44,11.80,2.50,11.77,2.47,-2.47,-2.38,-1.41,9.33,9.30,9.30
21.66,11.80,2.51,11.78,2.49,-2.49,-2.39,-1.45,9.31,9.30,9.29
21.87,11.80,2.50,11.80,2.50,-2.50,-2.40,-1.49,9.30,9.30,9.30
22.09,11.80,2.51,11.81,2.51,-2.51,-2.41,-1.53,9.29,9.29,9.29
22.31,11.80,2.50,11.81,2.52,-2.52,-2.42,-1.58,9.28,9.29,9.30
22.54,11.80,2.51,11.81,2.52,-2.52,-2.43,-1.62,9.28,9.30,9.29
22.76,11.80,2.50,11.81,2.51,-2.51,-2.44,-1.67,9.29,9.30,9.30
22.99,11.80,2.50,11.81,2.51,-2.51,-2.45,-1.71,9.29,9.30,9.30
23.22,11.80,2.50,11.80,2.50,-2.50,-2.46,-1.76,9.30,9.30,9.30
23.45,11.80,2.50,11.80,2.49,-2.49,-2.47,-1.81,9.30,9.30,9.30
23.69,11.80,2.50,11.79,2.49,-2.49,-2.48,-1.86,9.31,9.30,9.30
23.92,11.80,2.50,11.79,2.48,-2.48,-2.49,-1.91,9.31,9.31,9.30
24.16,11.80,2.49,11.79,2.48,-2.48,-2.50,-1.96,9.32,9.31,9.31
24.40,11.80,2.48,11.79,2.48,-2.48,-2.51,-2.01,9.32,9.31,9.32
24.65,11.80,2.48,11.79,2.48,-2.48,-2.52,-2.06,9.32,9.31,9.32
24.89,11.80,2.48,11.80,2.48,-2.48,-2.54,-2.12,9.32,9.31,9.32
25.14,11.80,2.49,11.80,2.49,-2.49,-2.55,-2.17,9.31,9.32,9.31
25.39,11.80,2.48,11.82,2.50,-2.50,-2.56,-2.23,9.30,9.32,9.32
25.65,11.80,2.48,11.83,2.52,-2.52,-2.57,-2.28,9.28,9.32,9.32
25.91,11.80,2.49,11.85,2.53,-2.53,-2.58,-2.34,9.27,9.31,9.31
26.16,11.83,2.51,11.87,2.55,-2.55,-2.59,-2.39,9.28,9.31,9.32
26.43,11.87,2.55,11.89,2.58,-2.58,-2.61,-2.45,9.29,9.31,9.31
26.69,11.92,2.61,11.91,2.60,-2.60,-2.62,-2.50,9.32,9.31,9.31
26.96,11.96,2.66,11.93,2.63,-2.63,-2.63,-2.56,9.33,9.31,9.30
27.23,11.98,2.68,11.95,2.65,-2.65,-2.64,-2.61,9.33,9.30,9.30
27.50,12.00,2.70,11.97,2.67,-2.67,-2.65,-2.66,9.33,9.30,9.29
27.77,12.02,2.72,11.99,2.70,-2.70,-2.67,-2.71,9.32,9.30,9.30
28.05,12.03,2.74,12.01,2.72,-2.72,-2.68,-2.76,9.31,9.29,9.29
28.33,12.03,2.74,12.02,2.74,-2.74,-2.69,-2.81,9.29,9.28,9.29
28.62,12.03,2.76,12.03,2.75,-2.75,-2.71,-2.86,9.28,9.28,9.27
28.90,12.03,2.75,12.04,2.76,-2.76,-2.72,-2.90,9.27,9.27,9.28
29.19,12.03,2.76,12.04,2.77,-2.77,-2.73,-2.94,9.26,9.26,9.27
29.48,12.03,2.77,12.04,2.78,-2.78,-2.75,-2.98,9.25,9.26,9.25
29.78,12.03,2.78,12.04,2.79,-2.79,-2.76,-3.02,9.24,9.25,9.25
30.08,12.03,2.78,12.03,2.80,-2.80,-2.77,-3.06,9.23,9.24,9.25
30.38,12.03,2.80,12.03,2.81,-2.81,-2.79,-3.09,9.22,9.23,9.22
30.68,12.03,2.81,12.03,2.81,-2.81,-2.80,-3.12,9.22,9.22,9.22
30.99,12.03,2.82,12.03,2.82,-2.82,-2.82,-3.14,9.21,9.21,9.21
31.30,12.03,2.84,12.03,2.83,-2.83,-2.83,-3.17,9.20,9.20,9.19
31.61,12.03,2.84,12.03,2.84,-2.84,-2.85,-3.19,9.19,9.19,9.19
31.93,12.03,2.87,12.03,2.85,-2.85,-2.86,-3.20,9.18,9.18,9.16
32.24,12.03,2.86,12.03,2.86,-2.86,-2.88,-3.22,9.17,9.17,9.17
32.57,12.03,2.87,12.03,2.87,-2.87,-2.89,-3.23,9.16,9.16,9.15
32.89,12.03,2.88,12.03,2.87,-2.87,-2.91,-3.24,9.16,9.16,9.15
33.22,12.03,2.88,12.03,2.88,-2.88,-2.93,-3.25,9.15,9.15,9.14
33.55,12.03,2.89,12.03,2.88,-2.88,-2.94,-3.25,9.14,9.14,9.14
33.89,12.03,2.89,12.03,2.89,-2.89,-2.96,-3.25,9.14,9.14,9.14
34.23,12.03,2.90,12.03,2.89,-2.89,-2.98,-3.26,9.13,9.13,9.13
34.57,12.03,2.90,12.03,2.90,-2.90,-2.99,-3.25,9.13,9.13,9.13
34.92,12.03,2.90,12.03,2.91,-2.91,-3.01,-3.25,9.12,9.12,9.13
35.27,12.03,2.90,12.03,2.91,-2.91,-3.03,-3.25,9.11,9.11,9.13
35.62,12.03,2.93,12.03,2.92,-2.92,-3.05,-3.25,9.11,9.11,9.10
35.97,12.03,2.93,12.03,2.94,-2.94,-3.06,-3.24,9.09,9.09,9.10
36.33,12.03,2.94,12.03,2.95,-2.95,-3.08,-3.24,9.08,9.08,9.09
36.70,12.03,2.97,12.03,2.97,-2.97,-3.10,-3.24,9.06,9.06,9.06
37.06,12.03,2.99,12.03,2.99,-2.99,-3.12,-3.23,9.04,9.04,9.04
37.43,12.03,3.00,12.03,3.01,-3.01,-3.14,-3.23,9.02,9.02,9.02
37.81,12.03,3.03,12.03,3.03,-3.03,-3.16,-3.23,8.99,8.99,9.00
38.19,12.03,3.05,12.03,3.06,-3.06,-3.18,-3.23,8.97,8.97,8.98
38.57,12.03,3.08,12.03,3.09,-3.09,-3.20,-3.23,8.94,8.94,8.95
38.95,12.03,3.11,12.03,3.12,-3.12,-3.22,-3.23,8.91,8.91,8.92
39.34,12.03,3.16,12.03,3.15,-3.15,-3.24,-3.23,8.88,8.88,8.87
39.74,12.03,3.19,12.03,3.18,-3.18,-3.27,-3.23,8.85,8.85,8.84
40.14,12.03,3.22,12.03,3.21,-3.21,-3.29,-3.24,8.82,8.82,8.81
40.54,12.03,3.25,12.03,3.25,-3.25,-3.31,-3.25,8.78,8.78,8.78
40.94,12.03,3.29,12.04,3.29,-3.29,-3.33,-3.26,8.74,8.75,8.74
41.35,12.03,3.31,12.05,3.33,-3.33,-3.36,-3.27,8.70,8.72,8.72
41.76,12.03,3.35,12.05,3.36,-3.36,-3.38,-3.28,8.67,8.69,8.68
42.18,12.03,3.37,12.04,3.39,-3.39,-3.40,-3.30,8.64,8.66,8.66
42.60,12.03,3.40,12.03,3.41,-3.41,-3.43,-3.32,8.62,8.63,8.63
43.03,12.03,3.43,12.02,3.43,-3.43,-3.45,-3.34,8.60,8.60,8.59
43.46,12.03,3.47,12.01,3.44,-3.44,-3.48,-3.37,8.59,8.56,8.56
43.90,12.03,3.49,11.99,3.46,-3.46,-3.50,-3.39,8.57,8.53,8.54
44.33,12.03,3.53,11.97,3.47,-3.47,-3.53,-3.42,8.56,8.50,8.50
44.78,12.03,3.56,11.95,3.48,-3.48,-3.55,-3.45,8.55,8.47,8.47
45.23,11.98,3.53,11.93,3.49,-3.49,-3.58,-3.49,8.49,8.43,8.45
45.68,11.87,3.47,11.91,3.51,-3.51,-3.61,-3.52,8.36,8.40,8.40
46.13,11.80,3.44,11.88,3.52,-3.52,-3.64,-3.56,8.27,8.36,8.35
46.60,11.80,3.48,11.86,3.54,-3.54,-3.66,-3.60,8.26,8.32,8.32
47.06,11.80,3.51,11.84,3.56,-3.56,-3.69,-3.65,8.24,8.28,8.29
47.53,11.80,3.55,11.82,3.59,-3.59,-3.72,-3.69,8.21,8.23,8.25
48.01,11.80,3.61,11.81,3.62,-3.62,-3.75,-3.74,8.18,8.19,8.19
48.49,11.80,3.65,11.80,3.65,-3.65,-3.78,-3.79,8.15,8.15,8.15
48.97,11.80,3.70,11.79,3.68,-3.68,-3.81,-3.84,8.12,8.10,8.10
49.46,11.80,3.74,11.78,3.73,-3.73,-3.84,-3.90,8.07,8.06,8.05
49.96,11.80,3.81,11.78,3.77,-3.77,-3.88,-3.96,8.03,8.01,7.99
50.46,11.80,3.85,11.79,3.83,-3.83,-3.91,-4.01,7.97,7.96,7.95
50.96,11.80,3.88,11.80,3.88,-3.88,-3.94,-4.07,7.92,7.91,7.91
51.47,11.80,3.93,11.80,3.94,-3.94,-3.97,-4.14,7.86,7.86,7.87
51.99,11.80,3.99,11.80,3.99,-3.99,-4.01,-4.20,7.81,7.81,7.81
52.51,11.80,4.03,11.80,4.04,-4.04,-4.04,-4.26,7.76,7.76,7.77
53.03,11.80,4.07,11.80,4.10,-4.10,-4.08,-4.32,7.70,7.71,7.73
53.56,11.80,4.14,11.81,4.15,-4.15,-4.11,-4.39,7.64,7.65,7.66
54.10,11.80,4.20,11.82,4.21,-4.21,-4.15,-4.45,7.59,7.60,7.60
54.64,11.80,4.25,11.82,4.26,-4.26,-4.19,-4.52,7.54,7.55,7.55
55.18,11.80,4.31,11.81,4.31,-4.31,-4.22,-4.58,7.49,7.50,7.49
55.74,11.80,4.36,11.81,4.35,-4.35,-4.26,-4.64,7.45,7.45,7.44
56.29,11.80,4.42,11.79,4.39,-4.39,-4.30,-4.70,7.41,7.40,7.38
56.86,11.80,4.45,11.78,4.43,-4.43,-4.34,-4.76,7.37,7.35,7.35
57.42,11.80,4.52,11.76,4.47,-4.47,-4.38,-4.82,7.33,7.30,7.28
58.00,11.80,4.56,11.74,4.50,-4.50,-4.42,-4.88,7.30,7.24,7.24
58.58,11.80,4.60,11.72,4.53,-4.53,-4.46,-4.93,7.26,7.19,7.20
59.16,11.76,4.60,11.70,4.57,-4.57,-4.50,-4.98,7.19,7.13,7.16
59.76,11.63,4.53,11.68,4.60,-4.60,-4.54,-5.03,7.03,7.07,7.10
60.35,11.58,4.55,11.65,4.64,-4.64,-4.59,-5.07,6.94,7.02,7.03
60.96,11.57,4.60,11.63,4.68,-4.68,-4.63,-5.12,6.89,6.96,6.97
61.57,11.57,4.68,11.61,4.72,-4.72,-4.67,-5.15,6.85,6.90,6.89
62.18,11.57,4.75,11.59,4.76,-4.76,-4.72,-5.19,6.81,6.83,6.82
62.80,11.57,4.82,11.58,4.81,-4.81,-4.76,-5.22,6.76,6.77,6.75
63.43,11.57,4.88,11.58,4.88,-4.88,-4.81,-5.25,6.69,6.70,6.69
64.07,11.57,4.94,11.57,4.94,-4.94,-4.86,-5.27,6.63,6.63,6.63
64.71,11.57,5.00,11.57,5.01,-5.01,-4.90,-5.29,6.56,6.56,6.57
65.35,11.57,5.07,11.57,5.07,-5.07,-4.95,-5.31,6.50,6.49,6.50
66.01,11.57,5.14,11.56,5.14,-5.14,-5.00,-5.32,6.43,6.43,6.42
66.67,11.57,5.21,11.56,5.20,-5.20,-5.05,-5.34,6.37,6.36,6.36
67.33,11.57,5.28,11.55,5.26,-5.26,-5.10,-5.34,6.31,6.29,6.29
68.01,11.57,5.35,11.53,5.32,-5.32,-5.15,-5.35,6.25,6.22,6.22
68.69,11.57,5.43,11.51,5.37,-5.37,-5.20,-5.36,6.20,6.14,6.14
69.37,11.57,5.48,11.49,5.42,-5.42,-5.25,-5.36,6.15,6.07,6.09
70.07,11.55,5.54,11.47,5.47,-5.47,-5.30,-5.37,6.08,6.00,6.01
70.77,11.39,5.45,11.45,5.52,-5.52,-5.35,-5.37,5.87,5.92,5.93
71.48,11.34,5.49,11.43,5.58,-5.58,-5.41,-5.37,5.76,5.85,5.85
72.19,11.34,5.56,11.42,5.64,-5.64,-5.46,-5.37,5.70,5.78,5.78
72.91,11.34,5.64,11.40,5.69,-5.69,-5.51,-5.38,5.65,5.71,5.70
73.64,11.34,5.72,11.38,5.74,-5.74,-5.57,-5.38,5.60,5.63,5.62
74.38,11.34,5.79,11.36,5.79,-5.79,-5.62,-5.39,5.55,5.56,5.55
75.12,11.34,5.86,11.33,5.84,-5.84,-5.68,-5.40,5.50,5.50,5.48
75.87,11.34,5.91,11.31,5.88,-5.88,-5.73,-5.40,5.46,5.43,5.43
76.63,11.34,5.98,11.29,5.92,-5.92,-5.79,-5.42,5.42,5.36,5.36
77.40,11.34,6.04,11.27,5.97,-5.97,-5.85,-5.43,5.37,5.30,5.30
78.17,11.34,6.11,11.26,6.02,-6.02,-5.90,-5.45,5.32,5.24,5.23
78.95,11.34,6.16,11.25,6.07,-6.07,-5.96,-5.46,5.26,5.17,5.18
79.74,11.18,6.07,11.24,6.13,-6.13,-6.02,-5.49,5.05,5.11,5.11
80.54,11.12,6.07,11.22,6.17,-6.17,-6.08,-5.51,4.95,5.05,5.05
81.35,11.12,6.13,11.20,6.21,-6.21,-6.14,-5.54,4.91,4.99,4.98
82.16,11.12,6.18,11.17,6.25,-6.25,-6.19,-5.57,4.87,4.92,4.94
82.98,11.12,6.26,11.15,6.29,-6.29,-6.25,-5.61,4.83,4.85,4.86
83.81,11.12,6.33,11.12,6.33,-6.33,-6.31,-5.65,4.79,4.78,4.79
84.65,11.12,6.40,11.09,6.38,-6.38,-6.37,-5.69,4.74,4.71,4.72
85.50,11.12,6.48,11.06,6.42,-6.42,-6.43,-5.74,4.70,4.64,4.64
86.35,11.12,6.55,11.04,6.47,-6.47,-6.49,-5.80,4.65,4.57,4.57
87.22,11.11,6.61,11.02,6.53,-6.53,-6.55,-5.85,4.58,4.50,4.49
88.09,11.05,6.63,11.01,6.59,-6.59,-6.61,-5.91,4.46,4.42,4.42
88.97,10.90,6.56,11.00,6.66,-6.66,-6.67,-5.98,4.24,4.34,4.34
89.86,10.89,6.63,10.98,6.71,-6.71,-6.72,-6.05,4.18,4.27,4.26
90.76,10.89,6.71,10.95,6.76,-6.76,-6.78,-6.12,4.13,4.19,4.18
91.66,10.89,6.79,10.92,6.81,-6.81,-6.84,-6.20,4.07,4.10,4.10
92.58,10.89,6.86,10.89,6.86,-6.86,-6.90,-6.29,4.03,4.02,4.03
93.51,10.89,6.94,10.86,6.92,-6.92,-6.96,-6.37,3.97,3.94,3.95
94.44,10.89,7.01,10.83,6.97,-6.97,-7.02,-6.46,3.92,3.86,3.88
95.39,10.89,7.10,10.81,7.03,-7.03,-7.07,-6.56,3.86,3.78,3.79
96.34,10.85,7.16,10.79,7.09,-7.09,-7.13,-6.66,3.76,3.70,3.69
97.30,10.74,7.12,10.76,7.15,-7.15,-7.19,-6.76,3.59,3.62,3.62
98.28,10.66,7.13,10.74,7.21,-7.21,-7.24,-6.87,3.45,3.53,3.53
99.26,10.66,7.22,10.72,7.26,-7.26,-7.30,-6.98,3.40,3.45,3.44
100.25,10.66,7.29,10.68,7.31,-7.31,-7.35,-7.09,3.35,3.38,3.37
101.25,10.66,7.37,10.65,7.35,-7.35,-7.40,-7.21,3.31,3.30,3.29
102.27,10.66,7.44,10.62,7.40,-7.40,-7.46,-7.33,3.26,3.22,3.22
103.29,10.66,7.52,10.59,7.45,-7.45,-7.51,-7.45,3.21,3.15,3.14
104.32,10.61,7.53,10.56,7.49,-7.49,-7.56,-7.57,3.12,3.07,3.08
105.37,10.49,7.49,10.53,7.53,-7.53,-7.61,-7.69,2.96,3.00,3.00
106.42,10.43,7.49,10.50,7.57,-7.57,-7.66,-7.82,2.86,2.93,2.93
107.48,10.43,7.58,10.47,7.61,-7.61,-7.71,-7.94,2.82,2.86,2.85
108.56,10.43,7.64,10.45,7.67,-7.67,-7.75,-8.06,2.76,2.79,2.79
109.64,10.43,7.71,10.43,7.71,-7.71,-7.80,-8.19,2.72,2.72,2.72
110.74,10.43,7.78,10.39,7.75,-7.75,-7.84,-8.31,2.68,2.65,2.65
111.85,10.43,7.85,10.36,7.78,-7.78,-7.89,-8.42,2.65,2.57,2.58
112.97,10.41,7.89,10.32,7.81,-7.81,-7.93,-8.53,2.59,2.50,2.51
114.10,10.20,7.76,10.28,7.85,-7.85,-7.97,-8.64,2.35,2.43,2.44
115.24,10.20,7.84,10.25,7.90,-7.90,-8.01,-8.74,2.30,2.35,2.36
116.39,10.20,7.93,10.23,7.95,-7.95,-8.05,-8.84,2.25,2.28,2.27
117.55,10.20,8.00,10.19,7.99,-7.99,-8.09,-8.93,2.21,2.20,2.20
118.73,10.20,8.08,10.15,8.03,-8.03,-8.12,-9.01,2.17,2.13,2.12
119.92,10.20,8.16,10.11,8.06,-8.06,-8.16,-9.08,2.14,2.05,2.04
121.12,9.98,8.00,10.06,8.09,-8.09,-8.19,-9.14,1.89,1.97,1.98
122.33,9.98,8.09,10.03,8.14,-8.14,-8.22,-9.19,1.84,1.89,1.89
123.55,9.98,8.16,9.99,8.18,-8.18,-8.25,-9.23,1.80,1.81,1.82
124.79,9.98,8.24,9.96,8.22,-8.22,-8.28,-9.26,1.75,1.73,1.74
126.03,9.98,8.32,9.92,8.27,-8.27,-8.31,-9.28,1.71,1.65,1.66
127.29,9.90,8.33,9.89,8.31,-8.31,-8.34,-9.29,1.58,1.57,1.57
128.57,9.80,8.30,9.84,8.35,-8.35,-8.37,-9.29,1.45,1.49,1.50
129.85,9.75,8.34,9.81,8.39,-8.39,-8.39,-9.28,1.36,1.42,1.41
131.15,9.75,8.41,9.77,8.43,-8.43,-8.41,-9.26,1.32,1.34,1.34
132.46,9.75,8.49,9.73,8.47,-8.47,-8.44,-9.23,1.28,1.26,1.25
133.79,9.75,8.57,9.70,8.51,-8.51,-8.46,-9.19,1.24,1.19,1.18
135.12,9.74,8.64,9.66,8.55,-8.55,-8.48,-9.15,1.19,1.11,1.10
136.48,9.58,8.54,9.62,8.58,-8.58,-8.50,-9.10,1.00,1.04,1.04
137.84,9.52,8.55,9.58,8.61,-8.61,-8.52,-9.04,0.91,0.97,0.97
139.22,9.52,8.63,9.55,8.65,-8.65,-8.54,-8.98,0.87,0.90,0.89
140.61,9.52,8.69,9.51,8.68,-8.68,-8.55,-8.92,0.84,0.83,0.83
142.02,9.52,8.76,9.47,8.71,-8.71,-8.57,-8.85,0.81,0.77,0.76
143.44,9.51,8.81,9.44,8.74,-8.74,-8.59,-8.78,0.77,0.70,0.70
144.87,9.34,8.69,9.40,8.77,-8.77,-8.60,-8.71,0.57,0.64,0.64
146.32,9.30,8.72,9.36,8.79,-8.79,-8.62,-8.64,0.51,0.58,0.58
147.78,9.29,8.78,9.32,8.80,-8.80,-8.63,-8.56,0.49,0.52,0.51
149.26,9.29,8.84,9.28,8.82,-8.82,-8.65,-8.49,0.47,0.45,0.45
150.75,9.29,8.90,9.24,8.85,-8.85,-8.66,-8.43,0.44,0.39,0.39
152.26,9.28,8.94,9.21,8.88,-8.88,-8.67,-8.36,0.40,0.33,0.34
153.78,9.14,8.87,9.16,8.89,-8.89,-8.68,-8.30,0.25,0.27,0.27
155.32,9.07,8.85,9.11,8.90,-8.90,-8.70,-8.24,0.17,0.21,0.22
156.88,9.06,8.90,9.06,8.90,-8.90,-8.71,-8.18,0.16,0.15,0.16
158.44,9.06,8.96,9.01,8.92,-8.92,-8.72,-8.13,0.14,0.09,0.10
160.03,9.00,8.96,8.97,8.93,-8.93,-8.73,-8.08,0.06,0.03,0.04
161.63,8.87,8.89,8.93,8.95,-8.95,-8.74,-8.03,-0.08,-0.03,-0.02
163.24,8.84,8.93,8.87,8.95,-8.95,-8.75,-7.99,-0.11,-0.08,-0.09
164.88,8.84,8.99,8.82,8.96,-8.96,-8.76,-7.96,-0.12,-0.14,-0.15
166.53,8.80,9.01,8.77,8.97,-8.97,-8.78,-7.93,-0.17,-0.20,-0.21
168.19,8.68,8.94,8.72,8.98,-8.98,-8.79,-7.91,-0.30,-0.26,-0.26
169.87,8.61,8.93,8.67,8.99,-8.99,-8.80,-7.89,-0.38,-0.32,-0.32
171.57,8.61,8.99,8.62,9.00,-9.00,-8.81,-7.88,-0.39,-0.38,-0.38
173.29,8.61,9.05,8.57,9.02,-9.02,-8.82,-7.87,-0.41,-0.44,-0.44
175.02,8.61,9.11,8.52,9.03,-9.03,-8.83,-7.87,-0.42,-0.50,-0.50
176.77,8.42,8.98,8.47,9.03,-9.03,-8.84,-7.88,-0.62,-0.56,-0.57
178.54,8.38,9.00,8.42,9.04,-9.04,-8.85,-7.89,-0.66,-0.63,-0.62
180.32,8.38,9.07,8.37,9.06,-9.06,-8.86,-7.90,-0.68,-0.69,-0.69
182.13,8.38,9.13,8.32,9.07,-9.07,-8.87,-7.93,-0.69,-0.75,-0.75
183.95,8.29,9.09,8.27,9.08,-9.08,-8.88,-7.96,-0.79,-0.81,-0.80
185.79,8.16,9.03,8.22,9.08,-9.08,-8.89,-7.99,-0.92,-0.87,-0.87
187.65,8.15,9.07,8.16,9.09,-9.09,-8.91,-8.03,-0.94,-0.92,-0.92
189.52,8.15,9.13,8.11,9.09,-9.09,-8.92,-8.07,-0.94,-0.98,-0.98
191.42,8.10,9.13,8.06,9.10,-9.10,-8.93,-8.12,-1.00,-1.04,-1.03
193.33,7.97,9.06,8.01,9.10,-9.10,-8.94,-8.18,-1.13,-1.09,-1.09
195.27,7.92,9.06,7.96,9.10,-9.10,-8.94,-8.24,-1.18,-1.14,-1.14
197.22,7.92,9.12,7.91,9.10,-9.10,-8.95,-8.30,-1.18,-1.19,-1.20
199.19,7.91,9.15,7.86,9.10,-9.10,-8.96,-8.37,-1.19,-1.24,-1.24
201.18,7.79,9.08,7.81,9.10,-9.10,-8.97,-8.45,-1.31,-1.28,-1.29
203.19,7.70,9.04,7.76,9.09,-9.09,-8.98,-8.52,-1.39,-1.33,-1.34
205.23,7.70,9.07,7.71,9.09,-9.09,-8.99,-8.61,-1.39,-1.37,-1.37
207.28,7.70,9.11,7.67,9.09,-9.09,-8.99,-8.69,-1.39,-1.41,-1.41
209.35,7.70,9.16,7.62,9.08,-9.08,-9.00,-8.77,-1.38,-1.46,-1.46
211.44,7.57,9.06,7.57,9.07,-9.07,-9.00,-8.86,-1.50,-1.50,-1.49
213.56,7.48,9.01,7.53,9.06,-9.06,-9.01,-8.95,-1.58,-1.54,-1.53
215.69,7.47,9.04,7.48,9.06,-9.06,-9.01,-9.04,-1.59,-1.57,-1.57
217.85,7.47,9.07,7.43,9.04,-9.04,-9.01,-9.12,-1.57,-1.61,-1.60
220.03,7.38,9.03,7.37,9.02,-9.02,-9.01,-9.21,-1.64,-1.65,-1.65
222.23,7.28,8.97,7.31,9.00,-9.00,-9.01,-9.29,-1.72,-1.68,-1.69
224.45,7.24,8.96,7.27,8.99,-8.99,-9.01,-9.37,-1.75,-1.72,-1.72
226.70,7.24,9.00,7.21,8.97,-8.97,-9.00,-9.45,-1.73,-1.75,-1.76
228.96,7.24,9.03,7.15,8.94,-8.94,-9.00,-9.52,-1.70,-1.79,-1.79
231.25,7.07,8.89,7.09,8.91,-8.91,-8.99,-9.58,-1.84,-1.82,-1.82
233.57,7.01,8.86,7.03,8.88,-8.88,-8.98,-9.64,-1.87,-1.85,-1.85
235.90,7.01,8.89,6.98,8.86,-8.86,-8.97,-9.69,-1.85,-1.88,-1.88
238.26,6.90,8.82,6.93,8.83,-8.83,-8.96,-9.72,-1.93,-1.91,-1.92
240.64,6.80,8.72,6.87,8.80,-8.80,-8.94,-9.75,-2.00,-1.93,-1.93
243.05,6.78,8.73,6.81,8.77,-8.77,-8.93,-9.77,-1.99,-1.96,-1.95
245.48,6.78,8.76,6.76,8.74,-8.74,-8.91,-9.77,-1.96,-1.98,-1.98
247.93,6.78,8.78,6.70,8.70,-8.70,-8.88,-9.77,-1.93,-2.00,-2.01
250.41,6.60,8.61,6.64,8.66,-8.66,-8.86,-9.75,-2.06,-2.02,-2.01
252.92,6.56,8.60,6.59,8.62,-8.62,-8.83,-9.71,-2.07,-2.04,-2.04
255.45,6.56,8.62,6.53,8.59,-8.59,-8.80,-9.67,-2.03,-2.06,-2.06
258.00,6.56,8.63,6.48,8.56,-8.56,-8.77,-9.61,-2.00,-2.07,-2.08
260.58,6.42,8.51,6.43,8.51,-8.51,-8.74,-9.54,-2.09,-2.09,-2.09
263.19,6.34,8.44,6.37,8.47,-8.47,-8.70,-9.47,-2.13,-2.10,-2.10
265.82,6.33,8.44,6.32,8.43,-8.43,-8.66,-9.38,-2.10,-2.11,-2.11
268.48,6.27,8.40,6.26,8.38,-8.38,-8.62,-9.28,-2.11,-2.13,-2.13
271.16,6.14,8.27,6.19,8.33,-8.33,-8.57,-9.17,-2.19,-2.14,-2.13
273.87,6.10,8.24,6.13,8.28,-8.28,-8.53,-9.05,-2.18,-2.15,-2.14
276.61,6.10,8.25,6.08,8.23,-8.23,-8.48,-8.93,-2.13,-2.15,-2.15
279.38,6.10,8.27,6.02,8.18,-8.18,-8.43,-8.81,-2.08,-2.16,-2.17
282.17,5.93,8.10,5.96,8.13,-8.13,-8.37,-8.67,-2.20,-2.17,-2.17
284.99,5.87,8.04,5.90,8.07,-8.07,-8.31,-8.54,-2.20,-2.17,-2.17
287.84,5.87,8.04,5.84,8.02,-8.02,-8.25,-8.40,-2.15,-2.17,-2.17
290.72,5.80,7.98,5.79,7.96,-7.96,-8.19,-8.26,-2.16,-2.18,-2.18
293.63,5.67,7.85,5.72,7.90,-7.90,-8.13,-8.12,-2.24,-2.18,-2.18
296.57,5.65,7.83,5.67,7.85,-7.85,-8.06,-7.98,-2.20,-2.18,-2.18
299.53,5.65,7.84,5.61,7.79,-7.79,-7.99,-7.84,-2.15,-2.18,-2.19
302.53,5.64,7.81,5.56,7.74,-7.74,-7.92,-7.70,-2.11,-2.18,-2.17
305.55,5.45,7.63,5.50,7.69,-7.69,-7.85,-7.56,-2.24,-2.18,-2.18
308.61,5.42,7.60,5.44,7.62,-7.62,-7.78,-7.43,-2.21,-2.18,-2.18
311.69,5.42,7.60,5.38,7.56,-7.56,-7.70,-7.29,-2.14,-2.18,-2.19
314.81,5.28,7.46,5.33,7.51,-7.51,-7.62,-7.16,-2.23,-2.18,-2.18
317.96,5.20,7.39,5.26,7.45,-7.45,-7.54,-7.04,-2.25,-2.18,-2.19
321.14,5.19,7.37,5.20,7.38,-7.38,-7.46,-6.91,-2.19,-2.18,-2.18
324.35,5.19,7.38,5.13,7.31,-7.31,-7.38,-6.79,-2.12,-2.18,-2.19
327.59,5.16,7.33,5.07,7.24,-7.24,-7.30,-6.68,-2.08,-2.18,-2.17
330.87,5.01,7.18,5.00,7.17,-7.17,-7.21,-6.56,-2.16,-2.17,-2.17
334.18,4.96,7.14,4.93,7.10,-7.10,-7.13,-6.46,-2.14,-2.17,-2.18
337.52,4.83,7.00,4.86,7.03,-7.03,-7.04,-6.35,-2.20,-2.17,-2.17
340.90,4.75,6.91,4.81,6.97,-6.97,-6.95,-6.25,-2.22,-2.16,-2.16
344.30,4.73,6.88,4.74,6.90,-6.90,-6.86,-6.16,-2.17,-2.15,-2.15
347.75,4.67,6.82,4.67,6.82,-6.82,-6.78,-6.07,-2.15,-2.15,-2.15
351.23,4.55,6.70,4.61,6.75,-6.75,-6.69,-5.98,-2.20,-2.14,-2.15
354.74,4.51,6.64,4.55,6.68,-6.68,-6.60,-5.90,-2.17,-2.14,-2.13
358.28,4.51,6.64,4.48,6.61,-6.61,-6.51,-5.82,-2.10,-2.13,-2.13
361.87,4.51,6.63,4.42,6.55,-6.55,-6.42,-5.75,-2.04,-2.12,-2.12
365.49,4.34,6.46,4.37,6.49,-6.49,-6.33,-5.68,-2.15,-2.12,-2.12
369.14,4.29,6.40,4.32,6.43,-6.43,-6.24,-5.62,-2.14,-2.12,-2.11
372.83,4.28,6.38,4.26,6.37,-6.37,-6.14,-5.56,-2.09,-2.11,-2.10
376.56,4.23,6.34,4.19,6.30,-6.30,-6.05,-5.50,-2.07,-2.11,-2.11
380.33,4.08,6.18,4.13,6.23,-6.23,-5.96,-5.45,-2.15,-2.10,-2.10
384.13,4.05,6.14,4.07,6.17,-6.17,-5.87,-5.40,-2.12,-2.10,-2.09
387.97,4.05,6.15,4.01,6.11,-6.11,-5.78,-5.35,-2.06,-2.10,-2.10
391.85,4.04,6.13,3.95,6.05,-6.05,-5.69,-5.31,-2.01,-2.09,-2.09
395.77,3.88,5.98,3.89,5.98,-5.98,-5.60,-5.27,-2.11,-2.09,-2.10
399.73,3.82,5.92,3.83,5.92,-5.92,-5.51,-5.24,-2.10,-2.09,-2.10
403.72,3.74,5.82,3.77,5.85,-5.85,-5.42,-5.21,-2.11,-2.08,-2.08
407.76,3.62,5.70,3.71,5.78,-5.78,-5.34,-5.18,-2.16,-2.07,-2.08
411.84,3.59,5.65,3.64,5.71,-5.71,-5.25,-5.15,-2.12,-2.07,-2.06
415.96,3.59,5.64,3.58,5.64,-5.64,-5.16,-5.12,-2.05,-2.06,-2.06
420.12,3.59,5.65,3.53,5.58,-5.58,-5.07,-5.10,-1.99,-2.05,-2.06
424.32,3.57,5.61,3.48,5.52,-5.52,-4.99,-5.08,-1.95,-2.04,-2.04
428.56,3.43,5.45,3.42,5.45,-5.45,-4.90,-5.05,-2.02,-2.03,-2.02
432.85,3.37,5.38,3.36,5.38,-5.38,-4.82,-5.03,-2.01,-2.02,-2.01
437.18,3.26,5.27,3.30,5.30,-5.30,-4.73,-5.01,-2.05,-2.01,-2.01
441.55,3.17,5.17,3.25,5.24,-5.24,-4.65,-4.99,-2.07,-1.99,-2.00
445.96,3.14,5.12,3.19,5.17,-5.17,-4.57,-4.97,-2.03,-1.98,-1.98
450.42,3.14,5.11,3.13,5.10,-5.10,-4.48,-4.95,-1.96,-1.97,-1.97
454.93,3.14,5.09,3.07,5.02,-5.02,-4.40,-4.93,-1.89,-1.95,-1.95
459.48,3.09,5.03,3.01,4.95,-4.95,-4.32,-4.91,-1.86,-1.94,-1.94
464.07,2.94,4.86,2.94,4.87,-4.87,-4.24,-4.88,-1.93,-1.93,-1.93
468.71,2.91,4.82,2.88,4.79,-4.79,-4.16,-4.85,-1.88,-1.91,-1.91
473.40,2.77,4.67,2.81,4.71,-4.71,-4.09,-4.82,-1.94,-1.90,-1.90
478.13,2.69,4.57,2.76,4.64,-4.64,-4.01,-4.79,-1.95,-1.88,-1.88
482.91,2.68,4.55,2.70,4.57,-4.57,-3.93,-4.76,-1.89,-1.87,-1.87
487.74,2.68,4.53,2.64,4.49,-4.49,-3.86,-4.72,-1.81,-1.85,-1.85
