frequency,raw,error,smoothed,error_smoothed,equalization,parametric_eq,fixed_band_eq,equalized_raw,equalized_smoothed,target
20.00,-3.13,-5.67,-3.13,-5.67,5.65,5.63,2.19,2.52,2.52,2.53
20.20,-3.08,-5.67,-3.08,-5.66,5.66,5.62,2.26,2.58,2.58,2.58
20.40,-3.03,-5.67,-3.03,-5.66,5.67,5.61,2.32,2.63,2.64,2.63
20.61,-2.98,-5.65,-2.98,-5.66,5.66,5.60,2.39,2.68,2.68,2.66
20.81,-2.93,-5.65,-2.94,-5.65,5.66,5.59,2.46,2.72,2.72,2.71
21.02,-2.89,-5.65,-2.89,-5.64,5.64,5.57,2.54,2.75,2.75,2.75
21.23,-2.85,-5.63,-2.85,-5.62,5.63,5.55,2.61,2.77,2.78,2.77
21.44,-2.80,-5.60,-2.81,-5.60,5.60,5.53,2.69,2.80,2.80,2.79
21.66,-2.76,-5.58,-2.76,-5.58,5.57,5.50,2.77,2.81,2.81,2.81
21.87,-2.72,-5.55,-2.72,-5.55,5.54,5.48,2.85,2.82,2.82,2.82
22.09,-2.67,-5.52,-2.67,-5.51,5.49,5.45,2.94,2.82,2.82,2.84
22.31,-2.61,-5.47,-2.62,-5.47,5.45,5.43,3.02,2.84,2.83,2.85
22.54,-2.55,-5.41,-2.55,-5.40,5.40,5.40,3.11,2.85,2.85,2.85
22.76,-2.49,-5.35,-2.49,-5.34,5.36,5.37,3.20,2.86,2.87,2.85
22.99,-2.42,-5.27,-2.44,-5.28,5.31,5.34,3.30,2.89,2.87,2.84
23.22,-2.40,-5.25,-2.40,-5.24,5.27,5.31,3.39,2.86,2.87,2.84
23.45,-2.37,-5.22,-2.37,-5.22,5.22,5.27,3.49,2.85,2.85,2.84
23.69,-2.34,-5.20,-2.35,-5.20,5.18,5.24,3.59,2.84,2.83,2.85
23.92,-2.32,-5.18,-2.32,-5.17,5.14,5.21,3.69,2.82,2.82,2.85
24.16,-2.28,-5.14,-2.28,-5.13,5.11,5.18,3.79,2.82,2.83,2.85
24.40,-2.22,-5.09,-2.22,-5.08,5.08,5.14,3.90,2.85,2.85,2.86
24.65,-2.17,-5.03,-2.17,-5.03,5.05,5.11,4.01,2.88,2.88,2.85
24.89,-2.12,-4.98,-2.13,-4.99,5.03,5.08,4.12,2.91,2.90,2.85
25.14,-2.11,-4.97,-2.12,-4.97,5.01,5.05,4.23,2.90,2.89,2.85
25.39,-2.12,-4.99,-2.12,-4.98,4.99,5.02,4.34,2.87,2.87,2.86
25.65,-2.13,-5.00,-2.13,-4.99,4.97,4.98,4.45,2.84,2.83,2.86
25.91,-2.14,-5.00,-2.13,-4.99,4.95,4.95,4.56,2.80,2.82,2.85
26.16,-2.10,-4.96,-2.10,-4.96,4.92,4.92,4.67,2.82,2.82,2.85
26.43,-2.05,-4.91,-2.05,-4.91,4.89,4.89,4.78,2.84,2.84,2.85
26.69,-1.99,-4.85,-2.00,-4.85,4.85,4.86,4.89,2.86,2.85,2.85
26.96,-1.94,-4.80,-1.95,-4.80,4.81,4.84,5.00,2.86,2.86,2.85
27.23,-1.90,-4.76,-1.90,-4.75,4.76,4.81,5.11,2.86,2.86,2.85
27.50,-1.86,-4.72,-1.86,-4.71,4.73,4.78,5.21,2.87,2.87,2.85
27.77,-1.82,-4.67,-1.82,-4.67,4.71,4.76,5.31,2.88,2.88,2.84
28.05,-1.79,-4.64,-1.81,-4.65,4.69,4.73,5.41,2.89,2.88,2.84
28.33,-1.82,-4.66,-1.82,-4.66,4.67,4.71,5.50,2.85,2.85,2.83
28.62,-1.84,-4.68,-1.84,-4.68,4.65,4.69,5.59,2.81,2.81,2.83
28.90,-1.86,-4.71,-1.85,-4.69,4.63,4.67,5.67,2.77,2.78,2.84
29.19,-1.83,-4.67,-1.82,-4.66,4.61,4.65,5.74,2.78,2.79,2.83
29.48,-1.76,-4.61,-1.76,-4.60,4.59,4.63,5.81,2.82,2.82,2.84
29.78,-1.69,-4.53,-1.70,-4.54,4.56,4.61,5.87,2.87,2.86,2.83
30.08,-1.64,-4.49,-1.66,-4.49,4.54,4.59,5.92,2.89,2.88,2.84
30.38,-1.64,-4.48,-1.64,-4.48,4.51,4.58,5.96,2.87,2.87,2.83
30.68,-1.64,-4.48,-1.64,-4.47,4.49,4.56,6.00,2.85,2.85,2.83
30.99,-1.64,-4.48,-1.64,-4.47,4.47,4.55,6.02,2.83,2.83,2.83
31.30,-1.64,-4.47,-1.65,-4.47,4.45,4.54,6.04,2.81,2.81,2.82
31.61,-1.64,-4.47,-1.65,-4.47,4.44,4.52,6.04,2.79,2.79,2.82
31.93,-1.64,-4.47,-1.63,-4.45,4.42,4.51,6.04,2.77,2.79,2.82
32.24,-1.60,-4.42,-1.60,-4.42,4.40,4.50,6.03,2.80,2.80,2.81
32.57,-1.55,-4.37,-1.55,-4.37,4.38,4.50,6.00,2.82,2.83,2.81
32.89,-1.50,-4.32,-1.51,-4.32,4.36,4.49,5.97,2.85,2.84,2.81
33.22,-1.49,-4.30,-1.50,-4.31,4.34,4.48,5.94,2.85,2.84,2.80
33.55,-1.51,-4.32,-1.51,-4.31,4.33,4.48,5.89,2.81,2.82,2.80
33.89,-1.53,-4.33,-1.53,-4.32,4.32,4.47,5.84,2.78,2.79,2.79
34.23,-1.54,-4.34,-1.54,-4.33,4.31,4.47,5.78,2.77,2.77,2.79
34.57,-1.54,-4.33,-1.54,-4.33,4.32,4.47,5.71,2.77,2.77,2.78
34.92,-1.54,-4.33,-1.54,-4.32,4.32,4.46,5.64,2.78,2.78,2.78
35.27,-1.54,-4.32,-1.54,-4.32,4.32,4.46,5.57,2.78,2.78,2.77
35.62,-1.54,-4.32,-1.54,-4.32,4.32,4.46,5.49,2.78,2.78,2.77
35.97,-1.54,-4.32,-1.54,-4.32,4.31,4.46,5.41,2.77,2.77,2.77
36.33,-1.54,-4.32,-1.54,-4.31,4.30,4.46,5.32,2.76,2.76,2.77
36.70,-1.53,-4.30,-1.53,-4.30,4.29,4.46,5.24,2.76,2.76,2.76
37.06,-1.52,-4.29,-1.52,-4.29,4.28,4.46,5.15,2.75,2.76,2.76
37.43,-1.49,-4.27,-1.50,-4.26,4.27,4.46,5.07,2.77,2.77,2.77
37.81,-1.47,-4.25,-1.47,-4.24,4.25,4.46,4.98,2.78,2.78,2.77
38.19,-1.45,-4.22,-1.46,-4.23,4.24,4.46,4.89,2.79,2.78,2.76
38.57,-1.45,-4.23,-1.45,-4.23,4.23,4.46,4.81,2.78,2.78,2.77
38.95,-1.45,-4.24,-1.45,-4.23,4.22,4.46,4.72,2.77,2.77,2.78
39.34,-1.45,-4.23,-1.45,-4.23,4.22,4.46,4.64,2.77,2.77,2.77
39.74,-1.45,-4.23,-1.45,-4.23,4.22,4.46,4.56,2.77,2.77,2.77
40.14,-1.45,-4.23,-1.45,-4.22,4.23,4.46,4.48,2.77,2.78,2.77
40.54,-1.45,-4.23,-1.45,-4.22,4.23,4.46,4.40,2.78,2.78,2.77
40.94,-1.45,-4.22,-1.46,-4.23,4.24,4.45,4.33,2.78,2.77,2.76
41.35,-1.48,-4.25,-1.49,-4.25,4.24,4.45,4.26,2.76,2.76,2.76
41.76,-1.52,-4.28,-1.51,-4.27,4.25,4.45,4.19,2.73,2.74,2.75
42.18,-1.53,-4.29,-1.52,-4.27,4.26,4.44,4.12,2.73,2.74,2.75
42.60,-1.52,-4.27,-1.52,-4.26,4.28,4.43,4.05,2.75,2.76,2.74
43.03,-1.50,-4.24,-1.53,-4.27,4.28,4.43,3.99,2.78,2.75,2.73
43.46,-1.56,-4.29,-1.57,-4.29,4.29,4.42,3.94,2.72,2.72,2.72
43.90,-1.63,-4.34,-1.61,-4.31,4.29,4.41,3.88,2.66,2.68,2.70
44.33,-1.64,-4.33,-1.64,-4.32,4.29,4.39,3.83,2.65,2.65,2.68
44.78,-1.64,-4.31,-1.65,-4.31,4.31,4.38,3.78,2.66,2.66,2.66
45.23,-1.64,-4.30,-1.64,-4.29,4.33,4.37,3.73,2.69,2.69,2.65
45.68,-1.65,-4.30,-1.66,-4.30,4.36,4.35,3.69,2.71,2.70,2.64
46.13,-1.68,-4.31,-1.71,-4.34,4.38,4.33,3.65,2.70,2.67,2.62
46.60,-1.78,-4.41,-1.78,-4.39,4.39,4.31,3.61,2.61,2.62,2.62
47.06,-1.86,-4.47,-1.84,-4.45,4.40,4.29,3.58,2.53,2.55,2.60
47.53,-1.87,-4.47,-1.88,-4.48,4.40,4.26,3.55,2.53,2.52,2.59
48.01,-1.87,-4.47,-1.85,-4.44,4.40,4.24,3.52,2.52,2.54,2.59
48.49,-1.80,-4.38,-1.80,-4.38,4.38,4.21,3.49,2.58,2.58,2.57
48.97,-1.73,-4.29,-1.76,-4.31,4.35,4.18,3.47,2.62,2.59,2.55
49.46,-1.73,-4.27,-1.73,-4.26,4.31,4.15,3.44,2.58,2.58,2.53
49.96,-1.73,-4.25,-1.73,-4.25,4.27,4.11,3.42,2.54,2.54,2.51
50.46,-1.73,-4.24,-1.74,-4.24,4.22,4.08,3.41,2.49,2.49,2.50
50.96,-1.73,-4.23,-1.70,-4.19,4.18,4.04,3.39,2.45,2.47,2.49
51.47,-1.66,-4.14,-1.66,-4.14,4.13,4.00,3.37,2.47,2.47,2.47
51.99,-1.58,-4.05,-1.63,-4.10,4.08,3.96,3.36,2.50,2.45,2.46
52.51,-1.60,-4.06,-1.60,-4.06,4.03,3.92,3.35,2.43,2.43,2.45
53.03,-1.61,-4.07,-1.55,-3.99,3.98,3.87,3.34,2.37,2.43,2.45
53.56,-1.47,-3.91,-1.48,-3.92,3.93,3.83,3.33,2.46,2.45,2.43
54.10,-1.36,-3.79,-1.42,-3.85,3.89,3.78,3.32,2.52,2.46,2.42
54.64,-1.39,-3.80,-1.38,-3.79,3.85,3.73,3.31,2.46,2.47,2.40
55.18,-1.41,-3.82,-1.38,-3.77,3.81,3.68,3.30,2.40,2.43,2.40
55.74,-1.36,-3.75,-1.39,-3.78,3.77,3.63,3.29,2.40,2.38,2.38
56.29,-1.35,-3.73,-1.38,-3.75,3.72,3.57,3.27,2.36,2.34,2.37
56.86,-1.37,-3.74,-1.33,-3.69,3.65,3.52,3.26,2.28,2.32,2.36
57.42,-1.27,-3.61,-1.26,-3.61,3.57,3.46,3.25,2.30,2.30,2.33
58.00,-1.13,-3.46,-1.16,-3.49,3.46,3.40,3.23,2.32,2.29,2.32
58.58,-1.03,-3.35,-1.03,-3.34,3.31,3.35,3.22,2.28,2.28,2.31
59.16,-0.91,-3.21,-0.91,-3.20,3.15,3.29,3.20,2.24,2.25,2.29
59.76,-0.76,-3.04,-0.74,-3.01,2.98,3.23,3.18,2.22,2.24,2.27
60.35,-0.58,-2.81,-0.57,-2.80,2.82,3.17,3.15,2.24,2.25,2.23
60.96,-0.37,-2.57,-0.41,-2.61,2.67,3.11,3.13,2.30,2.26,2.19
61.57,-0.31,-2.47,-0.31,-2.47,2.56,3.05,3.10,2.24,2.24,2.15
62.18,-0.28,-2.40,-0.28,-2.39,2.47,2.98,3.07,2.18,2.19,2.11
62.80,-0.30,-2.37,-0.30,-2.37,2.40,2.92,3.03,2.10,2.10,2.06
63.43,-0.33,-2.36,-0.33,-2.35,2.36,2.86,3.00,2.02,2.02,2.02
64.07,-0.38,-2.36,-0.37,-2.35,2.33,2.80,2.96,1.95,1.96,1.97
64.71,-0.40,-2.34,-0.43,-2.37,2.31,2.73,2.91,1.91,1.88,1.93
65.35,-0.45,-2.35,-0.46,-2.35,2.29,2.67,2.87,1.84,1.83,1.89
66.01,-0.52,-2.37,-0.44,-2.28,2.26,2.60,2.82,1.73,1.81,1.84
66.67,-0.37,-2.17,-0.41,-2.21,2.20,2.54,2.77,1.83,1.79,1.79
67.33,-0.32,-2.07,-0.38,-2.13,2.13,2.48,2.72,1.80,1.74,1.74
68.01,-0.38,-2.09,-0.35,-2.05,2.04,2.41,2.66,1.66,1.69,1.70
68.69,-0.35,-2.01,-0.31,-1.96,1.95,2.35,2.60,1.60,1.64,1.65
69.37,-0.25,-1.86,-0.25,-1.86,1.86,2.29,2.54,1.61,1.60,1.60
70.07,-0.13,-1.69,-0.19,-1.75,1.78,2.23,2.48,1.64,1.58,1.55
70.77,-0.18,-1.69,-0.16,-1.67,1.71,2.16,2.42,1.52,1.54,1.50
71.48,-0.19,-1.65,-0.18,-1.62,1.65,2.10,2.36,1.46,1.48,1.45
72.19,-0.20,-1.59,-0.21,-1.60,1.60,2.04,2.29,1.40,1.39,1.38
72.91,-0.22,-1.55,-0.23,-1.56,1.56,1.98,2.23,1.34,1.33,1.32
73.64,-0.27,-1.55,-0.28,-1.54,1.53,1.92,2.16,1.26,1.26,1.27
74.38,-0.32,-1.54,-0.33,-1.54,1.51,1.86,2.09,1.19,1.19,1.21
75.12,-0.38,-1.54,-0.36,-1.52,1.50,1.80,2.03,1.11,1.13,1.15
75.87,-0.38,-1.48,-0.38,-1.48,1.48,1.74,1.96,1.10,1.10,1.09
76.63,-0.38,-1.43,-0.39,-1.43,1.46,1.68,1.89,1.08,1.07,1.04
77.40,-0.40,-1.40,-0.43,-1.41,1.43,1.62,1.82,1.03,1.01,0.99
78.17,-0.46,-1.40,-0.47,-1.41,1.40,1.56,1.76,0.93,0.92,0.93
78.95,-0.55,-1.45,-0.51,-1.40,1.35,1.50,1.69,0.80,0.84,0.89
79.74,-0.50,-1.35,-0.52,-1.36,1.31,1.44,1.62,0.80,0.79,0.84
80.54,-0.48,-1.28,-0.49,-1.29,1.27,1.39,1.56,0.78,0.77,0.79
81.35,-0.46,-1.21,-0.44,-1.18,1.23,1.33,1.49,0.77,0.79,0.74
82.16,-0.42,-1.12,-0.43,-1.13,1.19,1.28,1.43,0.77,0.76,0.69
82.98,-0.40,-1.06,-0.46,-1.11,1.16,1.22,1.36,0.75,0.70,0.65
83.81,-0.55,-1.16,-0.51,-1.11,1.12,1.17,1.30,0.57,0.61,0.60
84.65,-0.58,-1.14,-0.56,-1.12,1.09,1.11,1.23,0.50,0.52,0.55
85.50,-0.58,-1.10,-0.60,-1.11,1.06,1.06,1.17,0.47,0.46,0.51
86.35,-0.58,-1.05,-0.59,-1.05,1.03,1.01,1.11,0.44,0.44,0.46
87.22,-0.58,-1.00,-0.58,-1.00,0.99,0.95,1.05,0.41,0.41,0.41
88.09,-0.58,-0.95,-0.58,-0.94,0.95,0.90,0.99,0.37,0.37,0.36
88.97,-0.58,-0.89,-0.58,-0.89,0.90,0.85,0.93,0.31,0.32,0.30
89.86,-0.57,-0.83,-0.58,-0.83,0.84,0.80,0.87,0.26,0.26,0.25
90.76,-0.57,-0.78,-0.57,-0.78,0.78,0.75,0.81,0.21,0.21,0.20
91.66,-0.57,-0.73,-0.57,-0.72,0.72,0.70,0.76,0.15,0.15,0.15
92.58,-0.57,-0.67,-0.57,-0.67,0.67,0.65,0.70,0.10,0.10,0.09
93.51,-0.57,-0.62,-0.57,-0.62,0.62,0.61,0.64,0.05,0.05,0.04
94.44,-0.57,-0.58,-0.57,-0.57,0.57,0.56,0.59,-0.00,-0.00,0.00
95.39,-0.57,-0.53,-0.57,-0.53,0.53,0.51,0.53,-0.05,-0.05,-0.05
96.34,-0.57,-0.48,-0.58,-0.48,0.48,0.47,0.48,-0.09,-0.09,-0.10
97.30,-0.58,-0.44,-0.58,-0.44,0.44,0.42,0.43,-0.14,-0.14,-0.15
98.28,-0.59,-0.40,-0.59,-0.40,0.40,0.38,0.37,-0.20,-0.20,-0.20
99.26,-0.60,-0.37,-0.61,-0.37,0.35,0.33,0.32,-0.25,-0.26,-0.24
100.25,-0.62,-0.34,-0.63,-0.34,0.31,0.29,0.27,-0.31,-0.32,-0.29
101.25,-0.64,-0.31,-0.64,-0.30,0.28,0.24,0.22,-0.36,-0.36,-0.34
102.27,-0.65,-0.27,-0.64,-0.25,0.27,0.20,0.17,-0.38,-0.37,-0.39
103.29,-0.64,-0.21,-0.63,-0.20,0.27,0.16,0.12,-0.37,-0.36,-0.44
104.32,-0.64,-0.17,-0.68,-0.20,0.27,0.12,0.07,-0.37,-0.40,-0.48
105.37,-0.73,-0.21,-0.77,-0.24,0.28,0.07,0.02,-0.46,-0.49,-0.53
106.42,-0.93,-0.36,-0.89,-0.31,0.28,0.03,-0.02,-0.66,-0.61,-0.58
107.48,-1.00,-0.37,-0.99,-0.36,0.27,-0.01,-0.07,-0.73,-0.72,-0.64
108.56,-1.02,-0.34,-1.03,-0.34,0.26,-0.05,-0.11,-0.76,-0.77,-0.69
109.64,-1.02,-0.29,-1.00,-0.26,0.24,-0.09,-0.16,-0.78,-0.76,-0.74
110.74,-0.94,-0.15,-0.97,-0.18,0.20,-0.13,-0.20,-0.74,-0.77,-0.80
111.85,-0.94,-0.11,-0.95,-0.11,0.14,-0.17,-0.24,-0.80,-0.81,-0.84
112.97,-0.94,-0.05,-0.95,-0.05,0.06,-0.20,-0.29,-0.88,-0.88,-0.90
114.10,-0.95,-0.01,-0.95,0.00,-0.02,-0.24,-0.33,-0.97,-0.96,-0.95
115.24,-0.93,0.06,-0.91,0.09,-0.10,-0.28,-0.36,-1.03,-1.01,-1.00
116.39,-0.85,0.19,-0.87,0.18,-0.17,-0.32,-0.40,-1.03,-1.04,-1.05
117.55,-0.79,0.29,-0.83,0.26,-0.24,-0.35,-0.44,-1.03,-1.07,-1.09
118.73,-0.83,0.29,-0.80,0.32,-0.30,-0.39,-0.47,-1.14,-1.11,-1.13
119.92,-0.80,0.35,-0.80,0.36,-0.37,-0.42,-0.51,-1.17,-1.16,-1.16
121.12,-0.77,0.42,-0.79,0.41,-0.42,-0.46,-0.54,-1.20,-1.21,-1.20
122.33,-0.77,0.45,-0.78,0.45,-0.46,-0.49,-0.57,-1.24,-1.24,-1.23
123.55,-0.77,0.48,-0.77,0.49,-0.48,-0.53,-0.60,-1.26,-1.25,-1.26
124.79,-0.79,0.49,-0.76,0.52,-0.49,-0.56,-0.63,-1.28,-1.25,-1.29
126.03,-0.74,0.57,-0.77,0.54,-0.49,-0.60,-0.66,-1.23,-1.26,-1.32
127.29,-0.79,0.54,-0.82,0.52,-0.49,-0.63,-0.68,-1.28,-1.31,-1.34
128.57,-0.90,0.47,-0.90,0.47,-0.49,-0.66,-0.71,-1.39,-1.39,-1.38
129.85,-1.02,0.38,-0.98,0.43,-0.48,-0.69,-0.73,-1.51,-1.46,-1.41
131.15,-1.01,0.42,-1.01,0.43,-0.49,-0.73,-0.76,-1.50,-1.50,-1.44
132.46,-0.98,0.48,-1.00,0.47,-0.50,-0.76,-0.78,-1.48,-1.50,-1.47
133.79,-0.96,0.53,-0.97,0.53,-0.52,-0.79,-0.80,-1.48,-1.48,-1.50
135.12,-0.96,0.56,-0.96,0.57,-0.54,-0.82,-0.82,-1.50,-1.50,-1.53
136.48,-0.95,0.59,-0.95,0.60,-0.58,-0.85,-0.84,-1.53,-1.53,-1.55
137.84,-0.95,0.63,-0.95,0.63,-0.62,-0.88,-0.86,-1.57,-1.57,-1.59
139.22,-0.95,0.66,-0.95,0.66,-0.66,-0.91,-0.87,-1.61,-1.61,-1.62
140.61,-0.95,0.69,-0.95,0.69,-0.69,-0.94,-0.89,-1.64,-1.64,-1.65
142.02,-0.95,0.71,-0.95,0.72,-0.72,-0.97,-0.91,-1.67,-1.67,-1.67
143.44,-0.95,0.74,-0.95,0.75,-0.75,-1.00,-0.92,-1.70,-1.70,-1.70
144.87,-0.95,0.78,-0.95,0.78,-0.78,-1.03,-0.94,-1.73,-1.73,-1.74
146.32,-0.95,0.82,-0.95,0.82,-0.81,-1.05,-0.96,-1.77,-1.77,-1.78
147.78,-0.95,0.85,-0.95,0.86,-0.85,-1.08,-0.97,-1.81,-1.81,-1.81
149.26,-0.95,0.90,-0.95,0.91,-0.91,-1.11,-0.99,-1.86,-1.86,-1.86
150.75,-0.95,0.96,-0.96,0.96,-0.97,-1.14,-1.01,-1.92,-1.93,-1.92
152.26,-0.95,1.03,-0.97,1.01,-1.04,-1.16,-1.03,-2.00,-2.01,-1.99
153.78,-0.98,1.07,-0.96,1.09,-1.13,-1.19,-1.04,-2.11,-2.09,-2.06
155.32,-0.96,1.16,-0.94,1.19,-1.21,-1.21,-1.06,-2.18,-2.15,-2.13
156.88,-0.87,1.33,-0.90,1.31,-1.31,-1.24,-1.08,-2.18,-2.21,-2.21
158.44,-0.85,1.43,-0.86,1.42,-1.40,-1.26,-1.10,-2.25,-2.26,-2.29
160.03,-0.85,1.51,-0.84,1.52,-1.48,-1.29,-1.12,-2.34,-2.33,-2.37
161.63,-0.85,1.58,-0.85,1.58,-1.57,-1.31,-1.14,-2.42,-2.42,-2.44
163.24,-0.85,1.64,-0.86,1.64,-1.64,-1.34,-1.16,-2.49,-2.49,-2.50
164.88,-0.86,1.68,-0.86,1.69,-1.69,-1.36,-1.19,-2.56,-2.55,-2.55
166.53,-0.86,1.73,-0.87,1.73,-1.74,-1.39,-1.21,-2.60,-2.60,-2.60
168.19,-0.87,1.76,-0.87,1.77,-1.77,-1.41,-1.24,-2.64,-2.64,-2.64
169.87,-0.87,1.80,-0.88,1.80,-1.79,-1.43,-1.26,-2.66,-2.67,-2.68
171.57,-0.88,1.81,-0.88,1.81,-1.81,-1.45,-1.29,-2.69,-2.69,-2.70
173.29,-0.89,1.81,-0.89,1.82,-1.82,-1.48,-1.32,-2.71,-2.71,-2.71
175.02,-0.89,1.82,-0.90,1.82,-1.82,-1.50,-1.35,-2.72,-2.72,-2.72
176.77,-0.90,1.82,-0.90,1.83,-1.83,-1.52,-1.38,-2.73,-2.73,-2.73
178.54,-0.90,1.83,-0.90,1.83,-1.83,-1.54,-1.41,-2.73,-2.73,-2.74
180.32,-0.89,1.83,-0.90,1.83,-1.83,-1.56,-1.44,-2.72,-2.73,-2.73
182.13,-0.89,1.82,-0.89,1.83,-1.83,-1.58,-1.48,-2.72,-2.72,-2.72
183.95,-0.88,1.84,-0.88,1.84,-1.84,-1.60,-1.51,-2.72,-2.72,-2.73
185.79,-0.87,1.85,-0.87,1.86,-1.86,-1.62,-1.55,-2.73,-2.73,-2.73
187.65,-0.85,1.89,-0.87,1.87,-1.89,-1.64,-1.58,-2.74,-2.76,-2.75
189.52,-0.87,1.88,-0.87,1.89,-1.92,-1.66,-1.62,-2.80,-2.79,-2.76
191.42,-0.86,1.91,-0.84,1.94,-1.97,-1.68,-1.66,-2.83,-2.81,-2.78
193.33,-0.79,2.00,-0.79,2.00,-2.02,-1.70,-1.70,-2.81,-2.81,-2.80
195.27,-0.71,2.10,-0.73,2.08,-2.07,-1.72,-1.74,-2.78,-2.80,-2.82
197.22,-0.68,2.15,-0.69,2.15,-2.11,-1.73,-1.78,-2.80,-2.80,-2.84
199.19,-0.67,2.18,-0.67,2.19,-2.16,-1.75,-1.82,-2.83,-2.82,-2.86
201.18,-0.66,2.21,-0.66,2.21,-2.19,-1.77,-1.87,-2.86,-2.86,-2.88
203.19,-0.66,2.23,-0.66,2.23,-2.23,-1.79,-1.91,-2.89,-2.89,-2.90
205.23,-0.66,2.25,-0.66,2.25,-2.26,-1.80,-1.95,-2.92,-2.92,-2.92
207.28,-0.66,2.26,-0.67,2.26,-2.29,-1.82,-2.00,-2.95,-2.96,-2.93
209.35,-0.66,2.28,-0.67,2.29,-2.32,-1.83,-2.04,-2.98,-2.98,-2.95
211.44,-0.66,2.31,-0.65,2.32,-2.36,-1.85,-2.09,-3.02,-3.00,-2.98
213.56,-0.60,2.38,-0.60,2.38,-2.40,-1.86,-2.13,-3.00,-3.00,-2.99
215.69,-0.55,2.44,-0.55,2.45,-2.44,-1.88,-2.17,-2.99,-2.99,-3.00
217.85,-0.49,2.51,-0.51,2.50,-2.47,-1.89,-2.21,-2.96,-2.98,-3.01
220.03,-0.48,2.53,-0.49,2.54,-2.50,-1.91,-2.25,-2.98,-2.99,-3.02
222.23,-0.49,2.55,-0.49,2.55,-2.52,-1.92,-2.29,-3.02,-3.01,-3.05
224.45,-0.49,2.54,-0.49,2.55,-2.54,-1.93,-2.33,-3.03,-3.03,-3.04
226.70,-0.49,2.54,-0.49,2.55,-2.55,-1.95,-2.37,-3.04,-3.04,-3.04
228.96,-0.48,2.54,-0.50,2.53,-2.56,-1.96,-2.40,-3.04,-3.05,-3.03
231.25,-0.49,2.52,-0.49,2.53,-2.56,-1.97,-2.44,-3.06,-3.05,-3.02
233.57,-0.48,2.52,-0.46,2.55,-2.57,-1.98,-2.47,-3.05,-3.03,-3.01
235.90,-0.40,2.59,-0.41,2.58,-2.58,-1.99,-2.49,-2.98,-2.99,-3.00
238.26,-0.35,2.63,-0.37,2.62,-2.59,-2.00,-2.52,-2.94,-2.95,-2.99
240.64,-0.32,2.63,-0.33,2.63,-2.61,-2.02,-2.54,-2.93,-2.94,-2.96
243.05,-0.31,2.61,-0.30,2.63,-2.63,-2.03,-2.56,-2.94,-2.93,-2.93
245.48,-0.28,2.62,-0.26,2.64,-2.66,-2.04,-2.58,-2.94,-2.91,-2.91
247.93,-0.18,2.69,-0.22,2.66,-2.69,-2.04,-2.59,-2.87,-2.90,-2.88
250.41,-0.16,2.69,-0.17,2.69,-2.72,-2.05,-2.60,-2.88,-2.88,-2.86
252.92,-0.13,2.69,-0.10,2.73,-2.74,-2.06,-2.61,-2.87,-2.85,-2.83
255.45,-0.04,2.76,-0.04,2.77,-2.76,-2.07,-2.61,-2.80,-2.80,-2.81
258.00,0.05,2.83,0.03,2.81,-2.78,-2.08,-2.61,-2.73,-2.75,-2.79
260.58,0.09,2.85,0.08,2.84,-2.79,-2.08,-2.61,-2.71,-2.71,-2.77
263.19,0.09,2.82,0.09,2.84,-2.80,-2.09,-2.61,-2.71,-2.71,-2.74
265.82,0.09,2.80,0.09,2.80,-2.80,-2.10,-2.60,-2.72,-2.72,-2.72
268.48,0.09,2.78,0.07,2.77,-2.80,-2.10,-2.59,-2.72,-2.73,-2.70
271.16,0.08,2.74,0.10,2.77,-2.80,-2.11,-2.58,-2.72,-2.70,-2.67
273.87,0.13,2.77,0.15,2.80,-2.80,-2.11,-2.56,-2.68,-2.65,-2.65
276.61,0.25,2.86,0.20,2.82,-2.82,-2.12,-2.55,-2.57,-2.62,-2.62
279.38,0.27,2.85,0.25,2.84,-2.86,-2.12,-2.53,-2.60,-2.62,-2.59
282.17,0.27,2.83,0.31,2.87,-2.92,-2.12,-2.51,-2.66,-2.61,-2.57
284.99,0.36,2.88,0.38,2.92,-2.98,-2.12,-2.49,-2.63,-2.60,-2.53
287.84,0.52,3.02,0.47,2.98,-3.03,-2.12,-2.47,-2.51,-2.55,-2.51
290.72,0.58,3.05,0.57,3.05,-3.04,-2.13,-2.45,-2.46,-2.46,-2.48
293.63,0.60,3.04,0.66,3.11,-3.01,-2.12,-2.43,-2.41,-2.35,-2.45
296.57,0.68,3.09,0.68,3.10,-2.94,-2.12,-2.40,-2.26,-2.26,-2.42
299.53,0.62,3.00,0.53,2.92,-2.82,-2.12,-2.38,-2.20,-2.29,-2.39
302.53,0.28,2.64,0.22,2.58,-2.66,-2.12,-2.36,-2.38,-2.43,-2.37
305.55,-0.33,1.99,-0.23,2.11,-2.44,-2.11,-2.34,-2.77,-2.66,-2.33
308.61,-0.77,1.53,-0.81,1.49,-2.17,-2.11,-2.32,-2.94,-2.98,-2.31
311.69,-1.26,1.01,-1.42,0.86,-1.87,-2.10,-2.30,-3.13,-3.29,-2.28
314.81,-1.92,0.33,-1.77,0.49,-1.57,-2.09,-2.28,-3.49,-3.33,-2.26
317.96,-2.08,0.15,-1.86,0.38,-1.30,-2.08,-2.26,-3.38,-3.16,-2.24
321.14,-1.55,0.67,-1.72,0.51,-1.10,-2.06,-2.24,-2.66,-2.82,-2.23
324.35,-1.39,0.81,-1.53,0.68,-1.00,-2.05,-2.23,-2.39,-2.53,-2.21
327.59,-1.38,0.81,-1.41,0.79,-0.99,-2.03,-2.21,-2.38,-2.40,-2.20
330.87,-1.52,0.66,-1.35,0.83,-1.09,-2.00,-2.20,-2.61,-2.44,-2.19
334.18,-1.14,1.02,-1.14,1.03,-1.25,-1.97,-2.19,-2.40,-2.40,-2.17
337.52,-0.74,1.41,-0.77,1.39,-1.46,-1.94,-2.18,-2.20,-2.23,-2.16
340.90,-0.35,1.79,-0.34,1.80,-1.67,-1.90,-2.17,-2.03,-2.02,-2.15
344.30,0.01,2.14,-0.04,2.10,-1.86,-1.86,-2.16,-1.85,-1.90,-2.14
347.75,0.11,2.24,0.15,2.28,-1.99,-1.80,-2.16,-1.88,-1.85,-2.14
351.23,0.14,2.26,0.15,2.28,-2.03,-1.74,-2.16,-1.90,-1.88,-2.13
354.74,-0.03,2.10,-0.10,2.03,-1.99,-1.66,-2.15,-2.02,-2.09,-2.14
358.28,-0.56,1.56,-0.66,1.47,-1.84,-1.56,-2.16,-2.41,-2.50,-2.13
361.87,-1.38,0.74,-1.43,0.70,-1.59,-1.45,-2.16,-2.98,-3.02,-2.13
365.49,-2.26,-0.15,-2.11,0.01,-1.28,-1.32,-2.16,-3.54,-3.39,-2.12
369.14,-2.60,-0.48,-2.44,-0.32,-0.95,-1.17,-2.17,-3.55,-3.39,-2.13
372.83,-2.44,-0.32,-2.47,-0.34,-0.66,-1.01,-2.17,-3.10,-3.13,-2.13
376.56,-2.15,-0.02,-2.36,-0.23,-0.44,-0.83,-2.18,-2.60,-2.81,-2.14
380.33,-2.30,-0.18,-2.30,-0.17,-0.32,-0.66,-2.19,-2.63,-2.62,-2.13
384.13,-2.34,-0.22,-2.22,-0.09,-0.29,-0.52,-2.21,-2.64,-2.52,-2.13
387.97,-2.13,0.00,-2.08,0.06,-0.35,-0.43,-2.22,-2.48,-2.43,-2.14
391.85,-1.69,0.45,-1.81,0.33,-0.47,-0.42,-2.23,-2.16,-2.28,-2.15
395.77,-1.49,0.64,-1.49,0.65,-0.62,-0.49,-2.25,-2.12,-2.12,-2.14
399.73,-1.29,0.85,-1.19,0.96,-0.78,-0.62,-2.27,-2.07,-1.97,-2.15
403.72,-0.92,1.22,-0.97,1.18,-0.92,-0.78,-2.28,-1.84,-1.89,-2.15
407.76,-0.76,1.40,-0.83,1.33,-1.03,-0.95,-2.30,-1.79,-1.86,-2.17
411.84,-0.85,1.31,-0.86,1.31,-1.11,-1.11,-2.32,-1.96,-1.97,-2.17
415.96,-1.02,1.14,-1.04,1.13,-1.13,-1.25,-2.34,-2.15,-2.17,-2.17
420.12,-1.26,0.90,-1.21,0.96,-1.13,-1.38,-2.36,-2.39,-2.34,-2.17
424.32,-1.30,0.86,-1.28,0.88,-1.13,-1.48,-2.38,-2.43,-2.41,-2.17
428.56,-1.21,0.94,-1.20,0.96,-1.15,-1.57,-2.40,-2.36,-2.35,-2.16
432.85,-1.02,1.12,-1.01,1.14,-1.20,-1.64,-2.42,-2.23,-2.21,-2.15
437.18,-0.73,1.40,-0.79,1.34,-1.30,-1.70,-2.44,-2.04,-2.09,-2.14
441.55,-0.56,1.53,-0.57,1.53,-1.45,-1.75,-2.45,-2.01,-2.02,-2.10
445.96,-0.40,1.66,-0.37,1.70,-1.63,-1.79,-2.47,-2.03,-2.00,-2.07
450.42,-0.19,1.84,-0.19,1.84,-1.80,-1.82,-2.48,-2.00,-2.00,-2.04
454.93,0.01,1.99,-0.02,1.98,-1.96,-1.85,-2.50,-1.96,-1.98,-1.99
459.48,0.15,2.09,0.15,2.09,-2.09,-1.87,-2.51,-1.95,-1.95,-1.95
464.07,0.29,2.18,0.30,2.20,-2.20,-1.89,-2.52,-1.91,-1.89,-1.90
468.71,0.44,2.27,0.45,2.29,-2.28,-1.90,-2.52,-1.85,-1.83,-1.84
