frequency,raw,error,smoothed,error_smoothed,equalization,parametric_eq,fixed_band_eq,equalized_raw,equalized_smoothed,target
20.00,-1.15,-11.58,-1.02,-11.44,11.44,10.84,4.31,10.29,10.43,10.42
20.20,-1.01,-11.43,-0.94,-11.36,11.36,10.84,4.42,10.34,10.42,10.41
20.40,-0.87,-11.27,-0.87,-11.27,11.27,10.83,4.53,10.40,10.41,10.40
20.61,-0.74,-11.14,-0.79,-11.19,11.19,10.82,4.65,10.45,10.40,10.40
20.81,-0.60,-10.98,-0.72,-11.11,11.11,10.81,4.77,10.50,10.39,10.38
21.02,-0.47,-10.86,-0.65,-11.03,11.03,10.80,4.90,10.55,10.38,10.38
21.23,-0.46,-10.84,-0.57,-10.95,10.95,10.78,5.03,10.48,10.37,10.37
21.44,-0.45,-10.84,-0.50,-10.87,10.87,10.76,5.16,10.42,10.37,10.38
21.66,-0.44,-10.82,-0.43,-10.79,10.79,10.74,5.29,10.35,10.36,10.37
21.87,-0.43,-10.79,-0.36,-10.72,10.72,10.71,5.43,10.28,10.35,10.36
22.09,-0.39,-10.74,-0.29,-10.64,10.64,10.68,5.58,10.25,10.35,10.35
22.31,-0.30,-10.65,-0.22,-10.57,10.57,10.65,5.72,10.26,10.34,10.35
22.54,-0.21,-10.55,-0.17,-10.51,10.51,10.62,5.87,10.30,10.34,10.34
22.76,-0.11,-10.44,-0.11,-10.45,10.45,10.58,6.03,10.34,10.33,10.33
22.99,-0.01,-10.34,-0.06,-10.39,10.39,10.54,6.18,10.37,10.33,10.32
23.22,0.05,-10.27,0.01,-10.32,10.32,10.50,6.35,10.37,10.33,10.31
23.45,0.11,-10.21,0.08,-10.25,10.25,10.45,6.51,10.35,10.32,10.32
23.69,0.17,-10.15,0.16,-10.16,10.16,10.41,6.68,10.33,10.32,10.31
23.92,0.23,-10.08,0.24,-10.08,10.08,10.36,6.85,10.31,10.32,10.31
24.16,0.30,-10.02,0.31,-10.01,10.01,10.31,7.03,10.30,10.32,10.32
24.40,0.38,-9.95,0.39,-9.93,9.93,10.25,7.21,10.31,10.32,10.33
24.65,0.45,-9.89,0.46,-9.86,9.86,10.20,7.39,10.30,10.32,10.33
24.89,0.53,-9.80,0.53,-9.79,9.79,10.14,7.58,10.32,10.32,10.33
25.14,0.60,-9.72,0.60,-9.73,9.73,10.08,7.77,10.32,10.33,10.32
25.39,0.67,-9.65,0.66,-9.67,9.67,10.02,7.96,10.34,10.33,10.32
25.65,0.74,-9.59,0.72,-9.61,9.61,9.95,8.15,10.35,10.33,10.32
25.91,0.79,-9.54,0.77,-9.56,9.56,9.89,8.34,10.35,10.33,10.33
26.16,0.86,-9.48,0.83,-9.50,9.50,9.82,8.54,10.36,10.33,10.34
26.43,0.92,-9.43,0.88,-9.45,9.45,9.75,8.73,10.37,10.33,10.34
26.69,0.97,-9.38,0.94,-9.40,9.40,9.68,8.93,10.36,10.33,10.34
26.96,1.02,-9.32,0.99,-9.34,9.34,9.61,9.12,10.36,10.33,10.33
27.23,1.06,-9.28,1.05,-9.28,9.28,9.54,9.31,10.34,10.33,10.33
27.50,1.09,-9.25,1.11,-9.22,9.22,9.47,9.50,10.31,10.33,10.33
27.77,1.12,-9.22,1.18,-9.16,9.16,9.39,9.68,10.27,10.34,10.34
28.05,1.16,-9.18,1.25,-9.09,9.09,9.32,9.86,10.25,10.34,10.34
28.33,1.26,-9.06,1.32,-9.01,9.01,9.24,10.02,10.27,10.33,10.32
28.62,1.35,-8.97,1.40,-8.94,8.94,9.16,10.18,10.29,10.33,10.32
28.90,1.47,-8.86,1.47,-8.86,8.86,9.08,10.33,10.32,10.33,10.33
29.19,1.56,-8.78,1.55,-8.78,8.78,9.01,10.46,10.34,10.33,10.33
29.48,1.66,-8.66,1.62,-8.70,8.70,8.93,10.58,10.36,10.32,10.32
29.78,1.75,-8.58,1.69,-8.63,8.63,8.84,10.68,10.37,10.32,10.32
30.08,1.82,-8.51,1.76,-8.56,8.56,8.76,10.77,10.38,10.32,10.33
30.38,1.89,-8.44,1.82,-8.49,8.49,8.68,10.84,10.37,10.31,10.32
30.68,1.94,-8.37,1.89,-8.41,8.41,8.60,10.88,10.35,10.30,10.30
30.99,2.00,-8.31,1.96,-8.34,8.34,8.51,10.91,10.34,10.30,10.30
31.30,2.02,-8.28,2.02,-8.27,8.27,8.43,10.92,10.29,10.29,10.29
31.61,2.04,-8.25,2.07,-8.21,8.21,8.35,10.90,10.25,10.29,10.28
31.93,2.06,-8.22,2.12,-8.16,8.16,8.26,10.87,10.22,10.28,10.27
32.24,2.11,-8.16,2.16,-8.11,8.11,8.18,10.81,10.21,10.27,10.27
32.57,2.17,-8.09,2.21,-8.05,8.05,8.09,10.74,10.22,10.26,10.25
32.89,2.24,-8.01,2.27,-7.99,7.99,8.01,10.64,10.23,10.26,10.25
33.22,2.32,-7.93,2.33,-7.93,7.93,7.92,10.54,10.24,10.25,10.25
33.55,2.42,-7.82,2.39,-7.86,7.86,7.83,10.41,10.28,10.25,10.24
33.89,2.51,-7.75,2.45,-7.79,7.79,7.75,10.28,10.30,10.24,10.25
34.23,2.55,-7.69,2.51,-7.72,7.72,7.66,10.13,10.27,10.24,10.23
34.57,2.56,-7.68,2.57,-7.66,7.66,7.58,9.97,10.22,10.23,10.23
34.92,2.58,-7.65,2.63,-7.60,7.60,7.49,9.80,10.17,10.23,10.22
35.27,2.66,-7.57,2.69,-7.53,7.53,7.40,9.63,10.19,10.22,10.23
35.62,2.79,-7.43,2.75,-7.46,7.46,7.32,9.45,10.25,10.21,10.21
35.97,2.90,-7.31,2.81,-7.39,7.39,7.23,9.27,10.29,10.20,10.21
36.33,2.92,-7.28,2.87,-7.32,7.32,7.14,9.08,10.24,10.19,10.19
36.70,2.93,-7.26,2.93,-7.25,7.25,7.06,8.89,10.17,10.17,10.18
37.06,2.95,-7.21,2.98,-7.18,7.18,6.97,8.71,10.12,10.16,10.16
37.43,2.98,-7.16,3.03,-7.11,7.11,6.89,8.52,10.09,10.14,10.14
37.81,3.00,-7.13,3.07,-7.04,7.04,6.80,8.33,10.04,10.11,10.12
38.19,3.07,-7.03,3.12,-6.97,6.97,6.71,8.15,10.04,10.09,10.09
38.57,3.18,-6.90,3.17,-6.90,6.90,6.63,7.96,10.08,10.07,10.07
38.95,3.29,-6.75,3.21,-6.83,6.83,6.54,7.78,10.12,10.04,10.04
39.34,3.33,-6.67,3.26,-6.76,6.76,6.46,7.60,10.08,10.01,10.00
39.74,3.37,-6.62,3.30,-6.69,6.69,6.37,7.43,10.05,9.99,9.98
40.14,3.39,-6.57,3.35,-6.61,6.61,6.29,7.26,10.00,9.96,9.95
40.54,3.37,-6.57,3.40,-6.53,6.53,6.20,7.09,9.90,9.93,9.93
40.94,3.36,-6.54,3.46,-6.45,6.45,6.12,6.93,9.81,9.90,9.90
41.35,3.43,-6.45,3.51,-6.37,6.37,6.03,6.77,9.80,9.88,9.88
41.76,3.52,-6.32,3.55,-6.30,6.30,5.95,6.61,9.82,9.85,9.84
42.18,3.60,-6.22,3.59,-6.23,6.23,5.87,6.46,9.83,9.82,9.82
42.60,3.67,-6.13,3.63,-6.17,6.17,5.78,6.31,9.83,9.80,9.80
43.03,3.74,-6.04,3.68,-6.09,6.09,5.70,6.17,9.83,9.77,9.77
43.46,3.76,-5.99,3.72,-6.03,6.03,5.62,6.03,9.78,9.74,9.74
43.90,3.78,-5.95,3.76,-5.96,5.96,5.53,5.89,9.73,9.72,9.72
44.33,3.83,-5.85,3.81,-5.88,5.88,5.45,5.76,9.71,9.69,9.68
44.78,3.89,-5.77,3.86,-5.80,5.80,5.37,5.63,9.69,9.66,9.65
45.23,3.91,-5.74,3.90,-5.72,5.72,5.29,5.51,9.63,9.62,9.64
45.68,3.89,-5.71,3.95,-5.64,5.64,5.21,5.39,9.53,9.59,9.59
46.13,3.92,-5.63,3.99,-5.56,5.56,5.12,5.27,9.48,9.55,9.55
46.60,4.05,-5.47,4.04,-5.47,5.47,5.04,5.16,9.53,9.52,9.52
47.06,4.17,-5.32,4.09,-5.38,5.38,4.96,5.05,9.55,9.48,9.48
47.53,4.13,-5.33,4.14,-5.29,5.29,4.88,4.94,9.41,9.43,9.45
48.01,4.08,-5.32,4.19,-5.20,5.20,4.80,4.84,9.27,9.39,9.39
48.49,4.21,-5.14,4.25,-5.10,5.10,4.72,4.74,9.30,9.35,9.34
48.97,4.34,-4.96,4.30,-5.00,5.00,4.64,4.65,9.34,9.30,9.30
49.46,4.39,-4.87,4.35,-4.91,4.91,4.56,4.56,9.29,9.26,9.26
49.96,4.44,-4.76,4.40,-4.81,4.81,4.48,4.47,9.24,9.21,9.19
50.46,4.52,-4.64,4.46,-4.71,4.71,4.40,4.38,9.22,9.16,9.15
50.96,4.60,-4.52,4.51,-4.60,4.60,4.33,4.29,9.20,9.12,9.11
51.47,4.57,-4.51,4.56,-4.52,4.52,4.25,4.21,9.08,9.07,9.07
51.99,4.52,-4.51,4.59,-4.44,4.44,4.17,4.13,8.95,9.02,9.02
52.51,4.59,-4.40,4.63,-4.35,4.35,4.09,4.05,8.93,8.98,8.98
53.03,4.65,-4.31,4.67,-4.26,4.26,4.01,3.98,8.90,8.93,8.95
53.56,4.71,-4.19,4.71,-4.17,4.17,3.94,3.90,8.88,8.88,8.89
54.10,4.76,-4.09,4.74,-4.10,4.10,3.86,3.83,8.86,8.84,8.84
54.64,4.81,-4.00,4.76,-4.03,4.03,3.78,3.76,8.84,8.80,8.80
55.18,4.85,-3.90,4.80,-3.96,3.96,3.71,3.69,8.80,8.76,8.74
55.74,4.85,-3.85,4.84,-3.88,3.88,3.63,3.62,8.72,8.71,8.69
56.29,4.84,-3.83,4.88,-3.79,3.79,3.55,3.55,8.63,8.67,8.66
56.86,4.82,-3.81,4.92,-3.71,3.71,3.48,3.48,8.52,8.63,8.62
57.42,4.93,-3.63,4.96,-3.62,3.62,3.40,3.41,8.54,8.58,8.56
58.00,5.09,-3.45,5.00,-3.53,3.53,3.33,3.34,8.62,8.54,8.53
58.58,5.04,-3.47,5.03,-3.45,3.45,3.25,3.27,8.49,8.49,8.50
59.16,5.03,-3.43,5.07,-3.36,3.36,3.18,3.20,8.39,8.44,8.46
59.76,5.11,-3.32,5.11,-3.28,3.28,3.10,3.13,8.39,8.39,8.42
60.35,5.19,-3.16,5.14,-3.19,3.19,3.03,3.06,8.38,8.34,8.35
60.96,5.28,-3.03,5.18,-3.10,3.10,2.95,2.99,8.38,8.28,8.30
61.57,5.27,-2.97,5.22,-3.01,3.01,2.88,2.92,8.27,8.23,8.23
62.18,5.24,-2.93,5.26,-2.91,2.91,2.81,2.85,8.15,8.17,8.16
62.80,5.22,-2.88,5.30,-2.82,2.82,2.73,2.77,8.03,8.12,8.10
63.43,5.27,-2.77,5.33,-2.73,2.73,2.66,2.70,8.00,8.06,8.04
64.07,5.36,-2.64,5.35,-2.64,2.64,2.59,2.62,8.00,8.00,7.99
64.71,5.45,-2.49,5.38,-2.55,2.55,2.51,2.54,8.00,7.94,7.93
65.35,5.46,-2.42,5.42,-2.45,2.45,2.44,2.46,7.91,7.88,7.87
66.01,5.41,-2.41,5.46,-2.36,2.36,2.37,2.38,7.76,7.82,7.81
66.67,5.50,-2.28,5.49,-2.26,2.26,2.29,2.30,7.76,7.75,7.77
67.33,5.55,-2.15,5.52,-2.18,2.18,2.22,2.22,7.72,7.70,7.69
68.01,5.55,-2.10,5.54,-2.09,2.09,2.15,2.13,7.64,7.63,7.64
68.69,5.55,-2.03,5.58,-1.99,1.99,2.08,2.05,7.54,7.57,7.57
69.37,5.59,-1.93,5.61,-1.90,1.90,2.00,1.96,7.48,7.51,7.52
70.07,5.66,-1.80,5.65,-1.80,1.80,1.93,1.87,7.45,7.45,7.45
70.77,5.73,-1.67,5.68,-1.70,1.70,1.86,1.78,7.43,7.38,7.39
71.48,5.75,-1.58,5.71,-1.61,1.61,1.79,1.69,7.36,7.32,7.32
72.19,5.75,-1.51,5.74,-1.52,1.52,1.71,1.60,7.26,7.26,7.25
72.91,5.75,-1.45,5.77,-1.42,1.42,1.64,1.51,7.17,7.19,7.19
73.64,5.74,-1.39,5.80,-1.33,1.33,1.57,1.42,7.06,7.13,7.12
74.38,5.77,-1.30,5.83,-1.24,1.24,1.50,1.33,7.01,7.07,7.06
75.12,5.85,-1.14,5.85,-1.15,1.15,1.42,1.24,7.00,7.01,6.99
75.87,5.96,-0.99,5.88,-1.07,1.07,1.35,1.15,7.03,6.95,6.95
76.63,5.97,-0.92,5.90,-0.99,0.99,1.28,1.05,6.96,6.89,6.88
77.40,5.96,-0.88,5.92,-0.91,0.91,1.21,0.96,6.87,6.83,6.83
78.17,5.96,-0.82,5.95,-0.83,0.83,1.13,0.87,6.79,6.78,6.77
78.95,5.94,-0.79,5.97,-0.75,0.75,1.06,0.77,6.68,6.72,6.73
79.74,5.98,-0.69,6.01,-0.66,0.66,0.99,0.68,6.64,6.67,6.67
80.54,6.03,-0.59,6.04,-0.58,0.58,0.91,0.59,6.60,6.61,6.61
81.35,6.06,-0.51,6.07,-0.49,0.49,0.84,0.49,6.55,6.56,6.56
82.16,6.06,-0.46,6.09,-0.41,0.41,0.77,0.40,6.47,6.50,6.51
82.98,6.06,-0.39,6.11,-0.33,0.33,0.69,0.30,6.39,6.45,6.45
83.81,6.14,-0.26,6.13,-0.26,0.26,0.62,0.21,6.40,6.39,6.39
84.65,6.19,-0.15,6.14,-0.18,0.18,0.55,0.11,6.37,6.33,6.33
85.50,6.23,-0.04,6.17,-0.10,0.10,0.47,0.02,6.33,6.27,6.26
86.35,6.26,0.05,6.20,-0.01,0.01,0.40,-0.08,6.26,6.21,6.20
87.22,6.26,0.10,6.23,0.08,-0.08,0.32,-0.18,6.17,6.15,6.15
88.09,6.26,0.17,6.26,0.17,-0.17,0.25,-0.27,6.08,6.09,6.08
88.97,6.26,0.22,6.29,0.26,-0.26,0.17,-0.37,5.99,6.02,6.03
89.86,6.26,0.30,6.31,0.35,-0.35,0.10,-0.47,5.91,5.96,5.95
90.76,6.26,0.36,6.33,0.44,-0.44,0.02,-0.57,5.82,5.89,5.89
91.66,6.32,0.50,6.35,0.53,-0.53,-0.05,-0.67,5.79,5.82,5.82
92.58,6.38,0.61,6.37,0.62,-0.62,-0.13,-0.77,5.76,5.75,5.76
93.51,6.44,0.74,6.39,0.71,-0.71,-0.21,-0.86,5.73,5.68,5.69
94.44,6.47,0.84,6.41,0.80,-0.80,-0.28,-0.96,5.66,5.61,5.62
95.39,6.47,0.92,6.43,0.89,-0.89,-0.36,-1.06,5.57,5.53,5.54
96.34,6.46,0.99,6.44,0.99,-0.99,-0.44,-1.16,5.47,5.46,5.46
97.30,6.45,1.06,6.46,1.08,-1.08,-0.52,-1.27,5.37,5.38,5.38
98.28,6.44,1.14,6.46,1.17,-1.17,-0.60,-1.37,5.27,5.30,5.29
99.26,6.46,1.25,6.47,1.25,-1.25,-0.67,-1.47,5.20,5.22,5.20
100.25,6.50,1.37,6.47,1.33,-1.33,-0.75,-1.57,5.16,5.13,5.12
101.25,6.49,1.43,6.46,1.41,-1.41,-0.83,-1.67,5.07,5.05,5.05
102.27,6.48,1.51,6.46,1.49,-1.49,-0.91,-1.77,4.99,4.97,4.96
103.29,6.47,1.58,6.45,1.57,-1.57,-1.00,-1.87,4.90,4.88,4.88
104.32,6.45,1.63,6.45,1.64,-1.64,-1.08,-1.97,4.80,4.80,4.81
105.37,6.43,1.69,6.45,1.72,-1.72,-1.16,-2.07,4.70,4.72,4.73
106.42,6.40,1.75,6.45,1.80,-1.80,-1.24,-2.17,4.59,4.64,4.64
107.48,6.39,1.83,6.45,1.88,-1.88,-1.33,-2.26,4.50,4.56,4.55
108.56,6.43,1.93,6.45,1.97,-1.97,-1.41,-2.36,4.46,4.48,4.49
109.64,6.44,2.04,6.45,2.04,-2.04,-1.49,-2.45,4.39,4.41,4.40
110.74,6.49,2.16,6.45,2.12,-2.12,-1.58,-2.55,4.36,4.33,4.32
111.85,6.50,2.24,6.45,2.20,-2.20,-1.66,-2.64,4.30,4.25,4.25
112.97,6.49,2.30,6.45,2.28,-2.28,-1.75,-2.72,4.21,4.18,4.18
114.10,6.48,2.36,6.46,2.36,-2.36,-1.84,-2.81,4.12,4.10,4.11
115.24,6.48,2.44,6.47,2.44,-2.44,-1.92,-2.89,4.04,4.03,4.03
116.39,6.48,2.52,6.48,2.52,-2.52,-2.01,-2.97,3.96,3.96,3.95
117.55,6.49,2.59,6.50,2.60,-2.60,-2.10,-3.04,3.88,3.89,3.89
118.73,6.49,2.67,6.51,2.68,-2.68,-2.19,-3.12,3.80,3.83,3.81
119.92,6.50,2.74,6.52,2.76,-2.76,-2.28,-3.18,3.74,3.76,3.75
121.12,6.51,2.80,6.53,2.84,-2.84,-2.37,-3.25,3.67,3.70,3.70
122.33,6.51,2.87,6.55,2.91,-2.91,-2.46,-3.31,3.59,3.63,3.63
123.55,6.54,2.95,6.56,2.99,-2.99,-2.55,-3.36,3.54,3.57,3.58
124.79,6.62,3.09,6.58,3.07,-3.07,-2.64,-3.42,3.55,3.51,3.52
126.03,6.64,3.18,6.60,3.15,-3.15,-2.74,-3.46,3.49,3.45,3.45
127.29,6.64,3.24,6.61,3.23,-3.23,-2.83,-3.51,3.41,3.39,3.39
128.57,6.65,3.31,6.63,3.30,-3.30,-2.92,-3.55,3.34,3.33,3.33
129.85,6.66,3.39,6.64,3.37,-3.37,-3.02,-3.58,3.28,3.27,3.26
131.15,6.66,3.45,6.65,3.44,-3.44,-3.11,-3.61,3.21,3.21,3.20
132.46,6.67,3.52,6.66,3.51,-3.51,-3.21,-3.64,3.16,3.15,3.14
133.79,6.67,3.58,6.66,3.58,-3.58,-3.30,-3.67,3.09,3.09,3.08
135.12,6.67,3.64,6.67,3.64,-3.64,-3.40,-3.69,3.02,3.03,3.02
136.48,6.68,3.69,6.67,3.71,-3.71,-3.50,-3.71,2.97,2.97,2.98
137.84,6.68,3.75,6.68,3.77,-3.77,-3.59,-3.73,2.91,2.91,2.92
139.22,6.68,3.83,6.68,3.83,-3.83,-3.69,-3.74,2.85,2.85,2.84
140.61,6.68,3.87,6.69,3.89,-3.89,-3.79,-3.76,2.78,2.79,2.80
142.02,6.68,3.93,6.70,3.96,-3.96,-3.89,-3.77,2.72,2.74,2.74
143.44,6.68,4.00,6.71,4.02,-4.02,-3.98,-3.78,2.65,2.68,2.67
144.87,6.68,4.05,6.72,4.09,-4.09,-4.08,-3.79,2.59,2.63,2.62
146.32,6.73,4.15,6.73,4.16,-4.16,-4.18,-3.81,2.57,2.57,2.57
147.78,6.77,4.25,6.74,4.22,-4.22,-4.27,-3.82,2.54,2.51,2.51
149.26,6.78,4.31,6.75,4.29,-4.29,-4.37,-3.83,2.49,2.46,2.46
150.75,6.78,4.38,6.76,4.35,-4.35,-4.47,-3.84,2.42,2.40,2.39
152.26,6.78,4.42,6.77,4.42,-4.42,-4.56,-3.86,2.36,2.35,2.35
153.78,6.78,4.48,6.77,4.48,-4.48,-4.66,-3.88,2.29,2.29,2.29
155.32,6.78,4.53,6.78,4.55,-4.55,-4.75,-3.89,2.23,2.23,2.24
156.88,6.79,4.60,6.78,4.61,-4.61,-4.85,-3.91,2.18,2.17,2.18
158.44,6.79,4.66,6.79,4.67,-4.67,-4.94,-3.93,2.12,2.12,2.12
160.03,6.79,4.72,6.79,4.73,-4.73,-5.03,-3.96,2.06,2.06,2.06
161.63,6.78,4.77,6.78,4.78,-4.78,-5.13,-3.99,1.99,2.00,2.00
163.24,6.78,4.84,6.78,4.84,-4.84,-5.21,-4.02,1.94,1.94,1.93
164.88,6.78,4.89,6.77,4.90,-4.90,-5.30,-4.05,1.88,1.88,1.88
166.53,6.77,4.95,6.77,4.95,-4.95,-5.39,-4.08,1.81,1.82,1.81
168.19,6.77,5.00,6.77,5.01,-5.01,-5.47,-4.12,1.76,1.76,1.76
169.87,6.76,5.05,6.76,5.06,-5.06,-5.56,-4.16,1.69,1.70,1.70
171.57,6.75,5.11,6.75,5.12,-5.12,-5.64,-4.21,1.63,1.64,1.63
173.29,6.75,5.17,6.74,5.17,-5.17,-5.71,-4.26,1.58,1.58,1.57
175.02,6.74,5.21,6.74,5.22,-5.22,-5.79,-4.31,1.52,1.52,1.52
176.77,6.74,5.26,6.73,5.26,-5.26,-5.86,-4.36,1.47,1.47,1.47
178.54,6.74,5.32,6.73,5.31,-5.31,-5.93,-4.42,1.42,1.42,1.41
180.32,6.74,5.38,6.72,5.36,-5.36,-6.00,-4.48,1.38,1.36,1.35
182.13,6.74,5.42,6.71,5.40,-5.40,-6.06,-4.55,1.34,1.31,1.31
183.95,6.69,5.42,6.71,5.44,-5.44,-6.12,-4.62,1.24,1.26,1.26
185.79,6.67,5.45,6.70,5.49,-5.49,-6.18,-4.69,1.18,1.21,1.21
187.65,6.68,5.50,6.70,5.53,-5.53,-6.23,-4.76,1.15,1.17,1.17
189.52,6.70,5.57,6.69,5.57,-5.57,-6.28,-4.84,1.12,1.12,1.12
191.42,6.71,5.61,6.69,5.61,-5.61,-6.32,-4.92,1.09,1.08,1.09
193.33,6.71,5.66,6.69,5.65,-5.65,-6.36,-5.01,1.05,1.04,1.04
195.27,6.67,5.67,6.68,5.69,-5.69,-6.40,-5.09,0.97,0.99,0.99
197.22,6.66,5.71,6.68,5.73,-5.73,-6.43,-5.18,0.93,0.95,0.94
199.19,6.67,5.75,6.68,5.77,-5.77,-6.46,-5.28,0.90,0.91,0.91
201.18,6.67,5.80,6.67,5.80,-5.80,-6.48,-5.37,0.87,0.87,0.86
203.19,6.68,5.84,6.66,5.84,-5.84,-6.50,-5.47,0.84,0.83,0.83
205.23,6.68,5.88,6.66,5.87,-5.87,-6.51,-5.56,0.81,0.79,0.79
207.28,6.68,5.91,6.64,5.89,-5.89,-6.52,-5.66,0.78,0.75,0.76
209.35,6.66,5.93,6.62,5.91,-5.91,-6.53,-5.76,0.74,0.71,0.72
211.44,6.60,5.92,6.60,5.93,-5.93,-6.53,-5.86,0.67,0.67,0.67
213.56,6.57,5.92,6.58,5.94,-5.94,-6.53,-5.96,0.63,0.64,0.64
215.69,6.57,5.96,6.56,5.96,-5.96,-6.52,-6.05,0.61,0.60,0.60
217.85,6.56,5.98,6.54,5.97,-5.97,-6.51,-6.15,0.59,0.57,0.57
220.03,6.51,5.98,6.51,5.98,-5.98,-6.49,-6.24,0.53,0.53,0.52
222.23,6.47,5.96,6.48,5.98,-5.98,-6.47,-6.33,0.49,0.50,0.50
224.45,6.46,5.98,6.45,5.98,-5.98,-6.45,-6.41,0.48,0.48,0.47
226.70,6.40,5.95,6.43,5.98,-5.98,-6.42,-6.49,0.42,0.45,0.44
228.96,6.36,5.93,6.40,5.98,-5.98,-6.39,-6.57,0.38,0.43,0.42
231.25,6.37,5.95,6.38,5.98,-5.98,-6.36,-6.64,0.39,0.41,0.41
233.57,6.38,5.99,6.37,5.98,-5.98,-6.32,-6.70,0.40,0.39,0.38
235.90,6.39,6.01,6.35,5.97,-5.97,-6.28,-6.75,0.41,0.38,0.37
238.26,6.38,6.02,6.33,5.96,-5.96,-6.24,-6.79,0.41,0.36,0.35
240.64,6.30,5.93,6.31,5.96,-5.96,-6.20,-6.83,0.34,0.35,0.36
243.05,6.25,5.89,6.30,5.96,-5.96,-6.15,-6.86,0.29,0.34,0.35
245.48,6.25,5.91,6.29,5.95,-5.95,-6.11,-6.87,0.29,0.34,0.33
247.93,6.28,5.95,6.27,5.94,-5.94,-6.06,-6.88,0.33,0.33,0.32
250.41,6.30,5.96,6.26,5.93,-5.93,-6.01,-6.87,0.36,0.32,0.33
252.92,6.26,5.92,6.24,5.92,-5.92,-5.95,-6.85,0.34,0.32,0.33
255.45,6.22,5.90,6.21,5.90,-5.90,-5.90,-6.82,0.31,0.31,0.31
258.00,6.16,5.85,6.18,5.88,-5.88,-5.84,-6.79,0.28,0.30,0.30
260.58,6.14,5.84,6.14,5.85,-5.85,-5.79,-6.74,0.29,0.29,0.29
263.19,6.15,5.86,6.10,5.83,-5.83,-5.73,-6.68,0.32,0.28,0.28
265.82,6.14,5.87,6.06,5.80,-5.80,-5.68,-6.61,0.34,0.26,0.26
268.48,6.02,5.75,6.02,5.77,-5.77,-5.62,-6.54,0.24,0.25,0.26
271.16,5.96,5.71,5.97,5.74,-5.74,-5.57,-6.46,0.22,0.24,0.24
273.87,5.93,5.69,5.92,5.69,-5.69,-5.51,-6.37,0.23,0.23,0.23
276.61,5.86,5.64,5.87,5.65,-5.65,-5.46,-6.27,0.20,0.21,0.21
279.38,5.81,5.62,5.82,5.62,-5.62,-5.40,-6.17,0.19,0.20,0.18
282.17,5.75,5.56,5.77,5.58,-5.58,-5.35,-6.06,0.17,0.19,0.18
284.99,5.69,5.50,5.73,5.54,-5.54,-5.29,-5.95,0.14,0.19,0.18
287.84,5.65,5.46,5.69,5.51,-5.51,-5.24,-5.83,0.14,0.18,0.18
290.72,5.66,5.49,5.64,5.47,-5.47,-5.19,-5.72,0.19,0.17,0.16
293.63,5.58,5.40,5.59,5.42,-5.42,-5.14,-5.60,0.15,0.17,0.17
296.57,5.54,5.36,5.55,5.38,-5.38,-5.09,-5.48,0.15,0.17,0.17
299.53,5.50,5.33,5.51,5.34,-5.34,-5.04,-5.36,0.15,0.16,0.16
302.53,5.50,5.32,5.46,5.30,-5.30,-4.99,-5.23,0.20,0.16,0.17
305.55,5.48,5.31,5.41,5.25,-5.25,-4.94,-5.11,0.23,0.16,0.16
308.61,5.37,5.19,5.36,5.20,-5.20,-4.90,-4.99,0.16,0.16,0.17
311.69,5.33,5.17,5.31,5.15,-5.15,-4.86,-4.87,0.17,0.16,0.15
314.81,5.31,5.14,5.25,5.10,-5.10,-4.81,-4.75,0.21,0.15,0.16
317.96,5.19,5.04,5.20,5.05,-5.05,-4.77,-4.64,0.14,0.15,0.14
321.14,5.09,4.93,5.14,4.99,-4.99,-4.73,-4.52,0.09,0.15,0.15
324.35,5.04,4.89,5.07,4.93,-4.93,-4.69,-4.41,0.11,0.15,0.14
327.59,5.00,4.84,5.01,4.87,-4.87,-4.65,-4.30,0.13,0.14,0.15
330.87,4.94,4.79,4.94,4.80,-4.80,-4.61,-4.19,0.13,0.14,0.14
334.18,4.85,4.71,4.87,4.73,-4.73,-4.57,-4.08,0.12,0.14,0.13
337.52,4.83,4.68,4.80,4.66,-4.66,-4.53,-3.98,0.17,0.14,0.14
340.90,4.76,4.62,4.73,4.59,-4.59,-4.49,-3.88,0.17,0.14,0.13
344.30,4.68,4.53,4.66,4.51,-4.51,-4.45,-3.78,0.16,0.14,0.14
347.75,4.63,4.47,4.59,4.44,-4.44,-4.41,-3.69,0.18,0.14,0.15
351.23,4.55,4.41,4.52,4.37,-4.37,-4.37,-3.59,0.17,0.15,0.13
354.74,4.42,4.26,4.46,4.31,-4.31,-4.32,-3.50,0.11,0.15,0.15
358.28,4.33,4.17,4.39,4.23,-4.23,-4.28,-3.42,0.09,0.15,0.15
361.87,4.32,4.16,4.31,4.15,-4.15,-4.23,-3.33,0.16,0.16,0.15
365.49,4.21,4.04,4.24,4.08,-4.08,-4.18,-3.25,0.13,0.16,0.16
369.14,4.15,3.97,4.17,4.00,-4.00,-4.12,-3.17,0.15,0.17,0.17
372.83,4.11,3.92,4.09,3.92,-3.92,-4.07,-3.10,0.19,0.17,0.18
376.56,4.00,3.82,4.01,3.84,-3.84,-4.00,-3.02,0.16,0.17,0.17
380.33,3.98,3.80,3.94,3.76,-3.76,-3.94,-2.95,0.21,0.17,0.17
384.13,3.94,3.75,3.86,3.69,-3.69,-3.87,-2.88,0.24,0.17,0.18
387.97,3.82,3.63,3.79,3.62,-3.62,-3.80,-2.81,0.20,0.17,0.18
391.85,3.67,3.49,3.71,3.54,-3.54,-3.72,-2.75,0.13,0.17,0.17
395.77,3.59,3.42,3.63,3.47,-3.47,-3.64,-2.69,0.12,0.16,0.16
399.73,3.57,3.40,3.55,3.39,-3.39,-3.56,-2.62,0.17,0.16,0.16
403.72,3.49,3.31,3.47,3.32,-3.32,-3.48,-2.57,0.16,0.15,0.17
407.76,3.38,3.22,3.40,3.25,-3.25,-3.39,-2.51,0.13,0.15,0.15
411.84,3.29,3.14,3.31,3.17,-3.17,-3.30,-2.45,0.12,0.14,0.14
415.96,3.28,3.13,3.23,3.09,-3.09,-3.20,-2.40,0.19,0.14,0.14
420.12,3.18,3.04,3.15,3.01,-3.01,-3.11,-2.35,0.17,0.15,0.13
424.32,3.08,2.93,3.08,2.92,-2.92,-3.01,-2.29,0.15,0.15,0.14
428.56,2.98,2.81,3.01,2.84,-2.84,-2.92,-2.24,0.13,0.17,0.16
432.85,2.91,2.72,2.95,2.77,-2.77,-2.82,-2.19,0.14,0.19,0.18
437.18,2.96,2.76,2.90,2.69,-2.69,-2.72,-2.15,0.27,0.21,0.19
441.55,2.89,2.66,2.85,2.61,-2.61,-2.62,-2.10,0.28,0.24,0.22
445.96,2.78,2.51,2.80,2.52,-2.52,-2.52,-2.05,0.25,0.28,0.26
450.42,2.66,2.35,2.76,2.44,-2.44,-2.42,-2.00,0.21,0.32,0.30
454.93,2.66,2.30,2.73,2.36,-2.36,-2.32,-1.96,0.30,0.37,0.35
459.48,2.68,2.26,2.69,2.27,-2.27,-2.22,-1.91,0.40,0.42,0.41
464.07,2.66,2.17,2.66,2.18,-2.18,-2.12,-1.86,0.47,0.47,0.48
468.71,2.67,2.13,2.63,2.10,-2.10,-2.03,-1.81,0.57,0.53,0.53
473.40,2.65,2.05,2.60,2.02,-2.02,-1.93,-1.77,0.63,0.58,0.59
478.13,2.59,1.93,2.56,1.93,-1.93,-1.83,-1.72,0.66,0.63,0.65
482.91,2.55,1.84,2.51,1.83,-1.83,-1.74,-1.67,0.72,0.68,0.70
487.74,2.53,1.79,2.47,1.74,-1.74,-1.64,-1.62,0.78,0.73,0.73
492.62,2.45,1.67,2.43,1.66,-1.66,-1.55,-1.57,0.78,0.77,0.77
497.55,2.37,1.55,2.39,1.58,-1.58,-1.46,-1.52,0.78,0.80,0.81
502.52,2.30,1.46,2.33,1.50,-1.50,-1.37,-1.47,0.80,0.83,0.83
507.55,2.26,1.39,2.26,1.41,-1.41,-1.27,-1.41,0.84,0.85,0.86
512.62,2.16,1.28,2.19,1.33,-1.33,-1.18,-1.36,0.83,0.86,0.87
517.75,2.11,1.22,2.11,1.24,-1.24,-1.09,-1.30,0.86,0.86,0.88
522.93,2.02,1.13,2.01,1.15,-1.15,-1.00,-1.24,0.87,0.86,0.88
528.16,1.87,1.00,1.91,1.06,-1.06,-0.92,-1.19,0.81,0.85,0.86
