frequency,raw,error,smoothed,error_smoothed,equalization,parametric_eq,fixed_band_eq,equalized_raw,equalized_smoothed,target
20.00,-13.64,-22.10,-13.64,-22.10,22.10,21.11,9.56,8.46,8.46,8.46
20.20,-13.52,-21.97,-13.52,-21.97,21.97,21.46,9.74,8.45,8.45,8.45
20.40,-13.40,-21.84,-13.40,-21.84,21.84,21.78,9.93,8.44,8.44,8.44
20.61,-13.28,-21.71,-13.28,-21.71,21.71,22.06,10.12,8.43,8.43,8.43
20.81,-13.16,-21.57,-13.16,-21.58,21.58,22.28,10.31,8.42,8.42,8.41
21.02,-13.04,-21.44,-13.04,-21.45,21.45,22.44,10.51,8.41,8.41,8.40
21.23,-12.92,-21.31,-12.92,-21.32,21.32,22.55,10.72,8.40,8.40,8.39
21.44,-12.80,-21.20,-12.80,-21.19,21.19,22.58,10.93,8.39,8.39,8.40
21.66,-12.68,-21.06,-12.68,-21.06,21.06,22.56,11.15,8.37,8.38,8.38
21.87,-12.56,-20.94,-12.56,-20.93,20.93,22.47,11.37,8.37,8.37,8.38
22.09,-12.44,-20.80,-12.44,-20.80,20.80,22.33,11.60,8.36,8.36,8.36
22.31,-12.32,-20.67,-12.31,-20.67,20.67,22.14,11.83,8.35,8.35,8.35
22.54,-12.19,-20.53,-12.19,-20.54,20.54,21.92,12.08,8.35,8.35,8.34
22.76,-12.07,-20.41,-12.07,-20.41,20.41,21.67,12.33,8.34,8.34,8.34
22.99,-11.95,-20.28,-11.95,-20.28,20.28,21.40,12.58,8.33,8.34,8.33
23.22,-11.82,-20.14,-11.83,-20.16,20.16,21.11,12.84,8.34,8.33,8.32
23.45,-11.70,-20.03,-11.70,-20.03,20.03,20.81,13.12,8.33,8.33,8.33
23.69,-11.58,-19.90,-11.58,-19.90,19.90,20.51,13.40,8.32,8.32,8.32
23.92,-11.46,-19.77,-11.46,-19.77,19.77,20.21,13.69,8.32,8.32,8.31
24.16,-11.34,-19.66,-11.34,-19.65,19.65,19.92,13.98,8.31,8.31,8.32
24.40,-11.22,-19.54,-11.21,-19.53,19.53,19.63,14.29,8.31,8.31,8.32
24.65,-11.09,-19.40,-11.09,-19.40,19.40,19.35,14.61,8.31,8.31,8.31
24.89,-10.97,-19.28,-10.97,-19.28,19.28,19.07,14.94,8.31,8.31,8.31
25.14,-10.85,-19.15,-10.85,-19.16,19.16,18.81,15.28,8.31,8.31,8.30
25.39,-10.73,-19.03,-10.73,-19.03,19.03,18.56,15.63,8.31,8.31,8.30
25.65,-10.61,-18.91,-10.61,-18.91,18.91,18.32,16.00,8.30,8.30,8.30
25.91,-10.49,-18.79,-10.49,-18.79,18.79,18.09,16.38,8.30,8.30,8.30
26.16,-10.37,-18.68,-10.37,-18.67,18.67,17.87,16.77,8.30,8.30,8.31
26.43,-10.25,-18.55,-10.25,-18.55,18.55,17.66,17.18,8.30,8.30,8.30
26.69,-10.13,-18.43,-10.13,-18.43,18.43,17.46,17.60,8.30,8.30,8.30
26.96,-10.01,-18.31,-10.01,-18.31,18.31,17.27,18.04,8.30,8.30,8.30
27.23,-9.89,-18.19,-9.89,-18.20,18.20,17.10,18.49,8.31,8.31,8.30
27.50,-9.77,-18.07,-9.77,-18.08,18.08,16.93,18.95,8.31,8.31,8.30
27.77,-9.66,-17.97,-9.66,-17.97,17.97,16.78,19.43,8.31,8.31,8.31
28.05,-9.54,-17.84,-9.54,-17.85,17.85,16.63,19.93,8.31,8.31,8.30
28.33,-9.43,-17.74,-9.42,-17.73,17.73,16.50,20.43,8.30,8.31,8.31
28.62,-9.31,-17.62,-9.31,-17.62,17.62,16.37,20.94,8.31,8.31,8.31
28.90,-9.20,-17.52,-9.20,-17.51,17.51,16.26,21.45,8.31,8.31,8.32
29.19,-9.08,-17.40,-9.09,-17.40,17.40,16.15,21.95,8.32,8.31,8.32
29.48,-8.97,-17.28,-8.98,-17.29,17.29,16.05,22.43,8.32,8.31,8.31
29.78,-8.86,-17.17,-8.87,-17.18,17.18,15.96,22.88,8.32,8.31,8.31
30.08,-8.75,-17.06,-8.76,-17.07,17.07,15.88,23.28,8.32,8.30,8.31
30.38,-8.65,-16.94,-8.66,-16.96,16.96,15.80,23.61,8.31,8.30,8.29
30.68,-8.55,-16.84,-8.55,-16.85,16.85,15.74,23.86,8.30,8.30,8.29
30.99,-8.45,-16.74,-8.45,-16.74,16.74,15.68,24.00,8.29,8.29,8.29
31.30,-8.36,-16.65,-8.35,-16.64,16.64,15.62,24.02,8.28,8.29,8.29
31.61,-8.26,-16.54,-8.25,-16.53,16.53,15.58,23.93,8.27,8.28,8.28
31.93,-8.16,-16.42,-8.15,-16.42,16.42,15.54,23.74,8.26,8.27,8.26
32.24,-8.06,-16.33,-8.05,-16.32,16.32,15.50,23.45,8.26,8.26,8.27
32.57,-7.96,-16.21,-7.96,-16.22,16.22,15.47,23.09,8.25,8.26,8.25
32.89,-7.86,-16.11,-7.86,-16.11,16.11,15.45,22.67,8.25,8.25,8.25
33.22,-7.76,-16.00,-7.77,-16.01,16.01,15.43,22.22,8.25,8.24,8.24
33.55,-7.67,-15.91,-7.67,-15.91,15.91,15.41,21.74,8.24,8.24,8.24
33.89,-7.57,-15.80,-7.58,-15.81,15.81,15.39,21.26,8.24,8.23,8.23
34.23,-7.48,-15.69,-7.48,-15.70,15.70,15.38,20.77,8.22,8.22,8.21
34.57,-7.39,-15.60,-7.39,-15.60,15.60,15.37,20.29,8.21,8.21,8.21
34.92,-7.29,-15.48,-7.29,-15.50,15.50,15.36,19.82,8.21,8.20,8.19
35.27,-7.20,-15.41,-7.20,-15.39,15.39,15.35,19.36,8.19,8.19,8.21
35.62,-7.11,-15.29,-7.11,-15.29,15.29,15.34,18.91,8.18,8.18,8.18
35.97,-7.03,-15.21,-7.02,-15.19,15.19,15.33,18.48,8.16,8.17,8.18
36.33,-6.93,-15.09,-6.93,-15.08,15.08,15.31,18.06,8.15,8.16,8.16
36.70,-6.83,-14.97,-6.83,-14.97,14.97,15.29,17.66,8.14,8.14,8.14
37.06,-6.74,-14.86,-6.74,-14.87,14.87,15.27,17.28,8.13,8.12,8.12
37.43,-6.65,-14.75,-6.65,-14.76,14.76,15.24,16.91,8.11,8.10,8.10
37.81,-6.56,-14.65,-6.56,-14.65,14.65,15.21,16.55,8.09,8.09,8.09
38.19,-6.47,-14.53,-6.47,-14.54,14.54,15.16,16.21,8.07,8.07,8.06
38.57,-6.38,-14.42,-6.38,-14.42,14.42,15.11,15.88,8.04,8.04,8.04
38.95,-6.29,-14.32,-6.29,-14.31,14.31,15.06,15.57,8.02,8.02,8.03
39.34,-6.20,-14.20,-6.20,-14.20,14.20,14.99,15.26,8.00,8.00,8.00
39.74,-6.10,-14.07,-6.10,-14.08,14.08,14.91,14.97,7.98,7.98,7.97
40.14,-6.01,-13.96,-6.01,-13.97,13.97,14.82,14.69,7.96,7.96,7.95
40.54,-5.92,-13.85,-5.92,-13.85,13.85,14.73,14.42,7.93,7.93,7.93
40.94,-5.83,-13.73,-5.83,-13.74,13.74,14.62,14.16,7.91,7.91,7.90
41.35,-5.74,-13.63,-5.74,-13.62,13.62,14.50,13.91,7.89,7.89,7.89
41.76,-5.64,-13.50,-5.64,-13.51,13.51,14.37,13.67,7.87,7.87,7.86
42.18,-5.55,-13.40,-5.55,-13.39,13.39,14.24,13.44,7.84,7.84,7.85
42.60,-5.45,-13.27,-5.45,-13.27,13.27,14.09,13.21,7.82,7.82,7.82
43.03,-5.35,-13.15,-5.35,-13.15,13.15,13.94,13.00,7.80,7.79,7.80
43.46,-5.26,-13.02,-5.26,-13.02,13.02,13.77,12.79,7.76,7.77,7.76
43.90,-5.16,-12.90,-5.16,-12.90,12.90,13.60,12.59,7.74,7.74,7.74
44.33,-5.06,-12.77,-5.06,-12.77,12.77,13.43,12.40,7.72,7.72,7.71
44.78,-4.96,-12.65,-4.96,-12.64,12.64,13.25,12.22,7.68,7.69,7.69
45.23,-4.86,-12.53,-4.86,-12.51,12.51,13.06,12.04,7.65,7.66,7.67
45.68,-4.75,-12.37,-4.76,-12.38,12.38,12.88,11.86,7.63,7.62,7.62
46.13,-4.65,-12.24,-4.65,-12.24,12.24,12.68,11.70,7.59,7.59,7.59
46.60,-4.55,-12.10,-4.55,-12.10,12.10,12.49,11.54,7.55,7.55,7.55
47.06,-4.45,-11.97,-4.45,-11.96,11.96,12.30,11.38,7.51,7.51,7.52
47.53,-4.35,-11.83,-4.35,-11.82,11.82,12.10,11.24,7.47,7.47,7.48
48.01,-4.25,-11.68,-4.25,-11.68,11.68,11.91,11.09,7.43,7.43,7.43
48.49,-4.14,-11.53,-4.14,-11.54,11.54,11.71,10.95,7.40,7.39,7.39
48.97,-4.04,-11.38,-4.04,-11.39,11.39,11.52,10.82,7.35,7.35,7.34
49.46,-3.94,-11.25,-3.94,-11.25,11.25,11.33,10.69,7.31,7.31,7.31
49.96,-3.84,-11.09,-3.84,-11.10,11.10,11.14,10.56,7.26,7.27,7.25
50.46,-3.74,-10.96,-3.74,-10.96,10.96,10.96,10.44,7.22,7.22,7.22
50.96,-3.64,-10.82,-3.64,-10.82,10.82,10.78,10.32,7.18,7.18,7.18
51.47,-3.54,-10.68,-3.54,-10.68,10.68,10.60,10.21,7.14,7.14,7.14
51.99,-3.43,-10.52,-3.44,-10.54,10.54,10.42,10.10,7.11,7.10,7.09
52.51,-3.34,-10.40,-3.34,-10.40,10.40,10.25,9.99,7.06,7.06,7.06
53.03,-3.24,-10.27,-3.25,-10.26,10.26,10.09,9.88,7.02,7.02,7.03
53.56,-3.15,-10.13,-3.15,-10.13,10.13,9.93,9.77,6.98,6.98,6.98
54.10,-3.05,-9.98,-3.06,-9.99,9.99,9.77,9.67,6.94,6.94,6.93
54.64,-2.97,-9.86,-2.96,-9.86,9.86,9.62,9.57,6.89,6.90,6.89
55.18,-2.88,-9.73,-2.87,-9.73,9.73,9.47,9.46,6.85,6.86,6.85
55.74,-2.78,-9.58,-2.78,-9.60,9.60,9.33,9.36,6.82,6.82,6.80
56.29,-2.69,-9.47,-2.69,-9.47,9.47,9.19,9.26,6.78,6.78,6.78
56.86,-2.59,-9.33,-2.60,-9.34,9.34,9.06,9.16,6.75,6.74,6.74
57.42,-2.50,-9.19,-2.51,-9.21,9.21,8.93,9.05,6.71,6.70,6.69
58.00,-2.42,-9.07,-2.42,-9.08,9.08,8.80,8.95,6.66,6.66,6.65
58.58,-2.33,-8.95,-2.33,-8.94,8.94,8.68,8.84,6.61,6.61,6.62
59.16,-2.24,-8.83,-2.24,-8.81,8.81,8.57,8.74,6.57,6.57,6.59
59.76,-2.15,-8.69,-2.15,-8.67,8.67,8.45,8.63,6.52,6.52,6.54
60.35,-2.07,-8.56,-2.07,-8.54,8.54,8.34,8.51,6.47,6.47,6.49
60.96,-1.99,-8.42,-1.98,-8.40,8.40,8.23,8.40,6.41,6.42,6.43
61.57,-1.89,-8.26,-1.89,-8.26,8.26,8.12,8.28,6.37,6.37,6.37
62.18,-1.80,-8.11,-1.81,-8.13,8.13,8.01,8.16,6.33,6.32,6.31
62.80,-1.72,-7.97,-1.72,-7.99,7.99,7.91,8.04,6.27,6.27,6.25
63.43,-1.63,-7.83,-1.63,-7.85,7.85,7.80,7.91,6.22,6.21,6.20
64.07,-1.54,-7.69,-1.55,-7.70,7.70,7.69,7.78,6.16,6.16,6.15
64.71,-1.46,-7.56,-1.46,-7.56,7.56,7.58,7.65,6.10,6.10,6.10
65.35,-1.37,-7.41,-1.37,-7.42,7.42,7.47,7.51,6.05,6.05,6.04
66.01,-1.29,-7.28,-1.28,-7.27,7.27,7.36,7.37,5.98,5.99,5.99
66.67,-1.19,-7.14,-1.19,-7.13,7.13,7.24,7.23,5.94,5.94,5.95
67.33,-1.10,-6.98,-1.10,-6.98,6.98,7.12,7.09,5.88,5.88,5.88
68.01,-1.01,-6.84,-1.01,-6.84,6.84,6.99,6.94,5.83,5.83,5.83
68.69,-0.92,-6.70,-0.92,-6.69,6.69,6.86,6.79,5.77,5.77,5.78
69.37,-0.83,-6.56,-0.83,-6.55,6.55,6.72,6.64,5.72,5.72,5.73
70.07,-0.73,-6.40,-0.74,-6.40,6.40,6.58,6.49,5.67,5.66,5.67
70.77,-0.64,-6.24,-0.65,-6.25,6.25,6.44,6.33,5.61,5.60,5.60
71.48,-0.55,-6.10,-0.56,-6.10,6.10,6.29,6.18,5.55,5.55,5.55
72.19,-0.47,-5.96,-0.47,-5.96,5.96,6.14,6.02,5.49,5.49,5.49
72.91,-0.38,-5.80,-0.38,-5.81,5.81,5.98,5.86,5.44,5.43,5.42
73.64,-0.29,-5.66,-0.29,-5.67,5.67,5.82,5.71,5.38,5.38,5.37
74.38,-0.21,-5.52,-0.21,-5.53,5.53,5.66,5.55,5.32,5.32,5.31
75.12,-0.13,-5.39,-0.12,-5.39,5.39,5.50,5.39,5.26,5.27,5.26
75.87,-0.04,-5.25,-0.04,-5.25,5.25,5.33,5.23,5.21,5.21,5.21
76.63,0.05,-5.10,0.04,-5.12,5.12,5.17,5.07,5.17,5.16,5.15
77.40,0.13,-4.98,0.13,-4.98,4.98,5.00,4.91,5.11,5.11,5.11
78.17,0.20,-4.85,0.21,-4.85,4.85,4.84,4.75,5.05,5.06,5.05
78.95,0.29,-4.72,0.29,-4.72,4.72,4.67,4.59,5.01,5.01,5.01
79.74,0.37,-4.59,0.37,-4.58,4.58,4.51,4.44,4.95,4.96,4.96
80.54,0.46,-4.45,0.46,-4.45,4.45,4.34,4.28,4.91,4.91,4.91
81.35,0.54,-4.31,0.54,-4.32,4.32,4.18,4.12,4.86,4.86,4.85
82.16,0.62,-4.20,0.62,-4.18,4.18,4.02,3.97,4.81,4.81,4.82
82.98,0.70,-4.06,0.71,-4.05,4.05,3.87,3.81,4.75,4.76,4.76
83.81,0.79,-3.92,0.79,-3.91,3.91,3.71,3.66,4.70,4.70,4.71
84.65,0.87,-3.78,0.87,-3.78,3.78,3.56,3.51,4.65,4.65,4.65
85.50,0.95,-3.64,0.96,-3.64,3.64,3.41,3.35,4.59,4.60,4.59
86.35,1.04,-3.50,1.04,-3.51,3.51,3.26,3.20,4.55,4.54,4.54
87.22,1.12,-3.37,1.12,-3.37,3.37,3.12,3.05,4.49,4.49,4.49
88.09,1.20,-3.23,1.20,-3.23,3.23,2.98,2.90,4.43,4.43,4.43
88.97,1.29,-3.08,1.28,-3.10,3.10,2.84,2.75,4.39,4.38,4.37
89.86,1.37,-2.95,1.36,-2.96,2.96,2.70,2.60,4.33,4.32,4.32
90.76,1.44,-2.82,1.44,-2.82,2.82,2.57,2.46,4.26,4.26,4.26
91.66,1.52,-2.67,1.52,-2.68,2.68,2.43,2.31,4.20,4.20,4.19
92.58,1.60,-2.54,1.60,-2.54,2.54,2.30,2.16,4.14,4.14,4.14
93.51,1.67,-2.42,1.67,-2.40,2.40,2.18,2.02,4.07,4.08,4.09
94.44,1.74,-2.29,1.75,-2.27,2.27,2.05,1.87,4.01,4.02,4.03
95.39,1.81,-2.15,1.83,-2.13,2.13,1.93,1.73,3.94,3.96,3.96
96.34,1.90,-1.99,1.90,-1.99,1.99,1.81,1.58,3.89,3.89,3.89
97.30,1.97,-1.86,1.97,-1.86,1.86,1.69,1.44,3.83,3.83,3.83
98.28,2.04,-1.72,2.04,-1.73,1.73,1.57,1.30,3.77,3.77,3.76
99.26,2.12,-1.58,2.11,-1.60,1.60,1.46,1.16,3.72,3.71,3.70
100.25,2.20,-1.44,2.18,-1.47,1.47,1.35,1.02,3.67,3.65,3.64
101.25,2.27,-1.32,2.25,-1.34,1.34,1.24,0.88,3.61,3.59,3.59
102.27,2.35,-1.18,2.32,-1.21,1.21,1.13,0.74,3.56,3.53,3.53
103.29,2.39,-1.08,2.39,-1.08,1.08,1.02,0.61,3.47,3.48,3.47
104.32,2.44,-0.98,2.46,-0.96,0.96,0.91,0.47,3.40,3.42,3.42
105.37,2.51,-0.85,2.53,-0.83,0.83,0.80,0.34,3.34,3.36,3.36
106.42,2.58,-0.73,2.60,-0.71,0.71,0.70,0.21,3.29,3.31,3.31
107.48,2.65,-0.60,2.67,-0.58,0.58,0.60,0.08,3.23,3.25,3.25
108.56,2.73,-0.47,2.73,-0.46,0.46,0.49,-0.04,3.19,3.19,3.20
109.64,2.81,-0.33,2.80,-0.34,0.34,0.39,-0.17,3.15,3.13,3.14
110.74,2.87,-0.21,2.86,-0.22,0.22,0.29,-0.29,3.09,3.08,3.08
111.85,2.93,-0.09,2.92,-0.10,0.10,0.19,-0.41,3.03,3.02,3.02
112.97,2.99,0.02,2.98,0.02,-0.02,0.09,-0.52,2.97,2.96,2.97
114.10,3.06,0.15,3.04,0.14,-0.14,-0.00,-0.63,2.92,2.90,2.91
115.24,3.12,0.29,3.10,0.26,-0.26,-0.10,-0.74,2.86,2.84,2.83
116.39,3.15,0.38,3.16,0.38,-0.38,-0.20,-0.85,2.77,2.78,2.77
117.55,3.20,0.49,3.21,0.49,-0.49,-0.29,-0.95,2.71,2.73,2.71
118.73,3.27,0.62,3.27,0.60,-0.60,-0.39,-1.04,2.67,2.67,2.65
119.92,3.32,0.71,3.32,0.71,-0.71,-0.48,-1.13,2.61,2.61,2.61
121.12,3.36,0.80,3.37,0.81,-0.81,-0.58,-1.22,2.55,2.56,2.56
122.33,3.40,0.90,3.42,0.92,-0.92,-0.67,-1.30,2.48,2.50,2.50
123.55,3.45,1.00,3.46,1.02,-1.02,-0.77,-1.38,2.43,2.44,2.45
124.79,3.51,1.11,3.51,1.12,-1.12,-0.86,-1.45,2.39,2.39,2.40
126.03,3.57,1.23,3.55,1.22,-1.22,-0.95,-1.51,2.35,2.33,2.34
127.29,3.60,1.31,3.60,1.32,-1.32,-1.05,-1.58,2.28,2.28,2.29
128.57,3.64,1.42,3.64,1.41,-1.41,-1.14,-1.63,2.23,2.23,2.22
129.85,3.70,1.53,3.68,1.51,-1.51,-1.23,-1.69,2.19,2.17,2.17
131.15,3.74,1.63,3.72,1.60,-1.60,-1.32,-1.74,2.14,2.12,2.11
132.46,3.76,1.70,3.76,1.70,-1.70,-1.41,-1.78,2.06,2.06,2.06
133.79,3.79,1.79,3.79,1.79,-1.79,-1.50,-1.82,2.00,2.01,2.00
135.12,3.82,1.87,3.83,1.88,-1.88,-1.59,-1.86,1.94,1.95,1.95
136.48,3.84,1.94,3.87,1.97,-1.97,-1.68,-1.89,1.87,1.90,1.90
137.84,3.89,2.04,3.90,2.05,-2.05,-1.77,-1.92,1.84,1.85,1.85
139.22,3.92,2.13,3.93,2.14,-2.14,-1.86,-1.95,1.78,1.80,1.79
140.61,3.96,2.21,3.97,2.22,-2.22,-1.95,-1.98,1.74,1.75,1.75
142.02,4.02,2.33,4.00,2.30,-2.30,-2.04,-2.00,1.72,1.70,1.69
143.44,4.03,2.38,4.03,2.38,-2.38,-2.13,-2.02,1.65,1.65,1.65
144.87,4.07,2.46,4.07,2.46,-2.46,-2.22,-2.05,1.61,1.61,1.61
146.32,4.08,2.52,4.10,2.53,-2.53,-2.31,-2.07,1.55,1.56,1.56
147.78,4.12,2.60,4.13,2.61,-2.61,-2.39,-2.09,1.51,1.52,1.52
149.26,4.15,2.68,4.15,2.67,-2.67,-2.48,-2.11,1.48,1.48,1.47
150.75,4.18,2.75,4.17,2.74,-2.74,-2.57,-2.13,1.44,1.43,1.43
152.26,4.20,2.81,4.19,2.80,-2.80,-2.65,-2.15,1.40,1.39,1.39
153.78,4.23,2.88,4.20,2.86,-2.86,-2.74,-2.17,1.37,1.35,1.35
155.32,4.24,2.93,4.22,2.91,-2.91,-2.82,-2.19,1.33,1.30,1.31
156.88,4.24,2.98,4.22,2.96,-2.96,-2.90,-2.21,1.28,1.26,1.26
158.44,4.23,3.02,4.23,3.01,-3.01,-2.98,-2.24,1.22,1.22,1.21
160.03,4.23,3.06,4.23,3.06,-3.06,-3.06,-2.26,1.17,1.17,1.17
161.63,4.22,3.09,4.23,3.11,-3.11,-3.14,-2.29,1.11,1.13,1.13
163.24,4.22,3.14,4.23,3.15,-3.15,-3.22,-2.32,1.07,1.08,1.08
164.88,4.22,3.19,4.23,3.20,-3.20,-3.29,-2.35,1.02,1.03,1.03
166.53,4.22,3.24,4.23,3.24,-3.24,-3.37,-2.38,0.98,0.99,0.98
168.19,4.22,3.27,4.22,3.29,-3.29,-3.44,-2.42,0.93,0.94,0.95
169.87,4.22,3.33,4.22,3.33,-3.33,-3.51,-2.45,0.89,0.89,0.89
171.57,4.22,3.38,4.22,3.37,-3.37,-3.58,-2.49,0.85,0.84,0.84
173.29,4.22,3.42,4.22,3.42,-3.42,-3.64,-2.53,0.80,0.80,0.80
175.02,4.22,3.47,4.22,3.47,-3.47,-3.71,-2.58,0.75,0.75,0.75
176.77,4.22,3.52,4.22,3.51,-3.51,-3.77,-2.62,0.71,0.70,0.70
178.54,4.22,3.56,4.22,3.56,-3.56,-3.83,-2.67,0.66,0.66,0.66
180.32,4.22,3.62,4.22,3.61,-3.61,-3.88,-2.72,0.61,0.61,0.60
182.13,4.22,3.65,4.22,3.65,-3.65,-3.93,-2.78,0.57,0.57,0.57
183.95,4.22,3.70,4.22,3.70,-3.70,-3.98,-2.83,0.52,0.52,0.52
185.79,4.22,3.75,4.22,3.74,-3.74,-4.03,-2.89,0.48,0.47,0.47
187.65,4.22,3.79,4.22,3.79,-3.79,-4.08,-2.95,0.43,0.43,0.43
189.52,4.22,3.83,4.22,3.83,-3.83,-4.12,-3.02,0.39,0.39,0.39
191.42,4.22,3.87,4.22,3.88,-3.88,-4.15,-3.08,0.34,0.34,0.35
193.33,4.22,3.91,4.22,3.92,-3.92,-4.19,-3.15,0.30,0.30,0.31
195.27,4.22,3.96,4.23,3.96,-3.96,-4.22,-3.22,0.26,0.26,0.26
197.22,4.22,4.01,4.23,4.00,-4.00,-4.24,-3.29,0.22,0.23,0.21
199.19,4.22,4.04,4.23,4.04,-4.04,-4.27,-3.36,0.18,0.19,0.18
201.18,4.22,4.08,4.23,4.08,-4.08,-4.29,-3.44,0.14,0.15,0.14
203.19,4.22,4.11,4.23,4.11,-4.11,-4.30,-3.51,0.11,0.12,0.11
205.23,4.23,4.14,4.23,4.15,-4.15,-4.31,-3.59,0.08,0.08,0.09
207.28,4.24,4.18,4.23,4.18,-4.18,-4.32,-3.66,0.06,0.05,0.06
209.35,4.24,4.22,4.22,4.20,-4.20,-4.33,-3.74,0.04,0.02,0.02
211.44,4.23,4.24,4.22,4.23,-4.23,-4.33,-3.81,0.00,-0.01,-0.01
213.56,4.22,4.25,4.21,4.25,-4.25,-4.32,-3.89,-0.03,-0.04,-0.03
215.69,4.20,4.26,4.19,4.26,-4.26,-4.32,-3.96,-0.06,-0.06,-0.06
217.85,4.17,4.26,4.18,4.27,-4.27,-4.31,-4.03,-0.10,-0.09,-0.09
220.03,4.16,4.28,4.15,4.27,-4.27,-4.29,-4.10,-0.11,-0.11,-0.12
222.23,4.13,4.28,4.13,4.26,-4.26,-4.28,-4.17,-0.13,-0.14,-0.15
224.45,4.11,4.27,4.10,4.26,-4.26,-4.26,-4.23,-0.15,-0.16,-0.16
226.70,4.07,4.26,4.06,4.25,-4.25,-4.23,-4.29,-0.18,-0.18,-0.19
228.96,4.03,4.23,4.03,4.23,-4.23,-4.21,-4.35,-0.20,-0.20,-0.20
231.25,4.00,4.22,3.99,4.21,-4.21,-4.18,-4.40,-0.21,-0.22,-0.22
233.57,3.95,4.19,3.95,4.19,-4.19,-4.15,-4.44,-0.24,-0.24,-0.24
235.90,3.90,4.15,3.92,4.17,-4.17,-4.11,-4.48,-0.27,-0.25,-0.25
238.26,3.86,4.14,3.88,4.14,-4.14,-4.07,-4.52,-0.28,-0.27,-0.28
240.64,3.81,4.08,3.84,4.12,-4.12,-4.04,-4.54,-0.31,-0.28,-0.27
243.05,3.79,4.08,3.80,4.09,-4.09,-3.99,-4.56,-0.30,-0.29,-0.29
245.48,3.76,4.06,3.76,4.05,-4.05,-3.95,-4.57,-0.29,-0.29,-0.30
247.93,3.72,4.03,3.72,4.02,-4.02,-3.91,-4.58,-0.30,-0.30,-0.31
250.41,3.69,3.99,3.68,3.98,-3.98,-3.86,-4.58,-0.29,-0.31,-0.30
252.92,3.64,3.95,3.64,3.95,-3.95,-3.81,-4.56,-0.31,-0.31,-0.31
255.45,3.61,3.93,3.60,3.91,-3.91,-3.76,-4.55,-0.30,-0.32,-0.32
258.00,3.57,3.89,3.55,3.87,-3.87,-3.71,-4.52,-0.30,-0.32,-0.32
260.58,3.52,3.84,3.51,3.83,-3.83,-3.66,-4.49,-0.31,-0.32,-0.32
263.19,3.47,3.79,3.47,3.79,-3.79,-3.60,-4.45,-0.32,-0.33,-0.32
265.82,3.41,3.74,3.42,3.75,-3.75,-3.55,-4.40,-0.34,-0.33,-0.33
268.48,3.36,3.69,3.37,3.70,-3.70,-3.49,-4.34,-0.34,-0.33,-0.33
271.16,3.31,3.64,3.32,3.65,-3.65,-3.44,-4.29,-0.34,-0.33,-0.33
273.87,3.26,3.59,3.26,3.60,-3.60,-3.38,-4.22,-0.34,-0.33,-0.33
276.61,3.22,3.55,3.21,3.55,-3.55,-3.32,-4.15,-0.33,-0.34,-0.33
279.38,3.17,3.52,3.16,3.49,-3.49,-3.26,-4.08,-0.32,-0.34,-0.35
282.17,3.11,3.46,3.10,3.44,-3.44,-3.21,-4.00,-0.33,-0.34,-0.35
284.99,3.05,3.39,3.05,3.39,-3.39,-3.15,-3.92,-0.34,-0.33,-0.34
287.84,2.98,3.31,3.00,3.33,-3.33,-3.09,-3.83,-0.35,-0.33,-0.33
290.72,2.93,3.27,2.95,3.28,-3.28,-3.03,-3.74,-0.35,-0.33,-0.34
293.63,2.89,3.22,2.89,3.22,-3.22,-2.97,-3.65,-0.33,-0.33,-0.33
296.57,2.85,3.17,2.84,3.16,-3.16,-2.92,-3.56,-0.31,-0.32,-0.32
299.53,2.79,3.11,2.79,3.10,-3.10,-2.86,-3.47,-0.31,-0.32,-0.32
302.53,2.73,3.03,2.73,3.04,-3.04,-2.80,-3.38,-0.31,-0.31,-0.30
305.55,2.67,2.98,2.68,2.98,-2.98,-2.74,-3.29,-0.31,-0.31,-0.31
308.61,2.63,2.93,2.62,2.92,-2.92,-2.68,-3.19,-0.29,-0.30,-0.30
311.69,2.58,2.87,2.57,2.86,-2.86,-2.63,-3.10,-0.28,-0.29,-0.29
314.81,2.53,2.82,2.51,2.80,-2.80,-2.57,-3.01,-0.27,-0.28,-0.29
317.96,2.47,2.75,2.46,2.74,-2.74,-2.51,-2.92,-0.27,-0.28,-0.28
321.14,2.40,2.67,2.40,2.67,-2.67,-2.46,-2.83,-0.27,-0.27,-0.27
324.35,2.33,2.60,2.35,2.61,-2.61,-2.40,-2.74,-0.28,-0.26,-0.27
327.59,2.28,2.52,2.29,2.55,-2.55,-2.35,-2.65,-0.27,-0.25,-0.24
330.87,2.24,2.49,2.24,2.49,-2.49,-2.29,-2.56,-0.25,-0.25,-0.25
334.18,2.19,2.43,2.19,2.43,-2.43,-2.24,-2.47,-0.24,-0.24,-0.24
337.52,2.14,2.38,2.13,2.36,-2.36,-2.19,-2.39,-0.22,-0.23,-0.24
340.90,2.08,2.30,2.08,2.30,-2.30,-2.14,-2.31,-0.22,-0.22,-0.22
344.30,2.01,2.22,2.03,2.24,-2.24,-2.08,-2.22,-0.23,-0.22,-0.21
347.75,1.97,2.18,1.98,2.18,-2.18,-2.03,-2.14,-0.21,-0.21,-0.21
351.23,1.93,2.14,1.93,2.13,-2.13,-1.98,-2.07,-0.20,-0.20,-0.21
354.74,1.89,2.07,1.88,2.07,-2.07,-1.93,-1.99,-0.18,-0.19,-0.18
358.28,1.83,2.02,1.83,2.01,-2.01,-1.88,-1.91,-0.18,-0.18,-0.19
361.87,1.78,1.96,1.78,1.95,-1.95,-1.83,-1.84,-0.17,-0.18,-0.18
365.49,1.72,1.89,1.73,1.89,-1.89,-1.78,-1.77,-0.17,-0.17,-0.17
369.14,1.67,1.82,1.67,1.83,-1.83,-1.74,-1.70,-0.16,-0.16,-0.15
372.83,1.63,1.78,1.62,1.78,-1.78,-1.69,-1.63,-0.15,-0.15,-0.15
376.56,1.58,1.73,1.57,1.72,-1.72,-1.64,-1.56,-0.14,-0.14,-0.15
380.33,1.53,1.67,1.52,1.66,-1.66,-1.60,-1.50,-0.13,-0.13,-0.14
384.13,1.47,1.59,1.47,1.59,-1.59,-1.55,-1.43,-0.12,-0.12,-0.12
387.97,1.41,1.53,1.42,1.53,-1.53,-1.51,-1.37,-0.12,-0.11,-0.12
391.85,1.35,1.46,1.36,1.47,-1.47,-1.46,-1.31,-0.12,-0.10,-0.11
395.77,1.30,1.40,1.31,1.40,-1.40,-1.42,-1.25,-0.10,-0.09,-0.10
399.73,1.27,1.36,1.25,1.34,-1.34,-1.38,-1.19,-0.07,-0.08,-0.09
403.72,1.22,1.28,1.20,1.27,-1.27,-1.34,-1.13,-0.05,-0.07,-0.06
407.76,1.16,1.23,1.15,1.21,-1.21,-1.29,-1.08,-0.05,-0.07,-0.07
411.84,1.09,1.15,1.09,1.15,-1.15,-1.25,-1.02,-0.06,-0.06,-0.06
415.96,1.03,1.07,1.04,1.09,-1.09,-1.21,-0.97,-0.06,-0.05,-0.04
420.12,0.97,1.01,0.99,1.03,-1.03,-1.17,-0.92,-0.06,-0.04,-0.04
424.32,0.93,0.96,0.94,0.97,-0.97,-1.13,-0.87,-0.04,-0.03,-0.03
428.56,0.89,0.90,0.89,0.91,-0.91,-1.09,-0.82,-0.02,-0.02,-0.01
432.85,0.84,0.84,0.84,0.85,-0.85,-1.05,-0.77,-0.01,-0.01,0.00
437.18,0.80,0.81,0.79,0.79,-0.79,-1.02,-0.72,0.01,-0.00,-0.01
441.55,0.75,0.75,0.75,0.74,-0.74,-0.98,-0.68,0.01,0.01,0.00
445.96,0.71,0.70,0.70,0.68,-0.68,-0.94,-0.63,0.03,0.02,0.01
450.42,0.67,0.65,0.66,0.63,-0.63,-0.91,-0.59,0.04,0.03,0.02
454.93,0.62,0.59,0.62,0.59,-0.59,-0.87,-0.55,0.03,0.03,0.03
459.48,0.57,0.53,0.58,0.54,-0.54,-0.83,-0.51,0.03,0.04,0.04
464.07,0.53,0.47,0.55,0.50,-0.50,-0.80,-0.47,0.03,0.05,0.06
468.71,0.49,0.42,0.51,0.45,-0.45,-0.76,-0.43,0.04,0.06,0.07
473.40,0.46,0.39,0.47,0.40,-0.40,-0.73,-0.39,0.06,0.07,0.07
