frequency,raw,error,smoothed,error_smoothed,equalization,parametric_eq,fixed_band_eq,equalized_raw,equalized_smoothed,target
20.00,-6.38,-10.65,-6.41,-10.70,10.70,10.53,3.84,4.32,4.28,4.27
20.20,-6.33,-10.64,-6.35,-10.67,10.67,10.49,3.94,4.34,4.31,4.31
20.40,-6.29,-10.62,-6.29,-10.63,10.63,10.46,4.05,4.34,4.34,4.33
20.61,-6.24,-10.60,-6.23,-10.59,10.59,10.42,4.16,4.35,4.37,4.36
20.81,-6.19,-10.59,-6.16,-10.55,10.55,10.38,4.28,4.36,4.39,4.40
21.02,-6.14,-10.58,-6.09,-10.51,10.51,10.34,4.39,4.37,4.42,4.44
21.23,-6.04,-10.49,-6.02,-10.45,10.45,10.30,4.51,4.41,4.44,4.45
21.44,-5.94,-10.41,-5.94,-10.40,10.40,10.25,4.64,4.46,4.46,4.47
21.66,-5.84,-10.33,-5.86,-10.34,10.34,10.20,4.77,4.50,4.48,4.49
21.87,-5.74,-10.24,-5.78,-10.28,10.28,10.15,4.90,4.54,4.50,4.50
22.09,-5.66,-10.18,-5.70,-10.21,10.21,10.10,5.03,4.55,4.51,4.52
22.31,-5.60,-10.12,-5.61,-10.14,10.14,10.04,5.17,4.54,4.52,4.52
22.54,-5.54,-10.07,-5.51,-10.05,10.05,9.98,5.31,4.51,4.54,4.53
22.76,-5.48,-10.02,-5.41,-9.96,9.96,9.93,5.46,4.48,4.54,4.54
22.99,-5.42,-9.96,-5.31,-9.86,9.86,9.86,5.61,4.44,4.55,4.54
23.22,-5.28,-9.83,-5.21,-9.77,9.77,9.80,5.76,4.49,4.56,4.55
23.45,-5.13,-9.69,-5.12,-9.68,9.68,9.74,5.91,4.55,4.56,4.56
23.69,-4.98,-9.55,-5.02,-9.59,9.59,9.67,6.07,4.61,4.57,4.57
23.92,-4.84,-9.41,-4.93,-9.50,9.50,9.61,6.24,4.66,4.57,4.57
24.16,-4.75,-9.33,-4.83,-9.41,9.41,9.54,6.41,4.66,4.57,4.58
24.40,-4.70,-9.29,-4.74,-9.32,9.32,9.47,6.58,4.62,4.58,4.59
24.65,-4.64,-9.22,-4.65,-9.23,9.23,9.40,6.75,4.59,4.58,4.58
24.89,-4.58,-9.16,-4.57,-9.15,9.15,9.32,6.93,4.57,4.58,4.58
25.14,-4.51,-9.09,-4.49,-9.07,9.07,9.25,7.10,4.56,4.58,4.58
25.39,-4.44,-9.02,-4.42,-9.00,9.00,9.18,7.29,4.56,4.58,4.58
25.65,-4.36,-8.94,-4.36,-8.94,8.94,9.10,7.47,4.58,4.58,4.58
25.91,-4.28,-8.85,-4.30,-8.88,8.88,9.03,7.65,4.60,4.58,4.57
26.16,-4.22,-8.80,-4.25,-8.83,8.83,8.95,7.84,4.61,4.58,4.58
26.43,-4.19,-8.76,-4.20,-8.78,8.78,8.87,8.02,4.59,4.57,4.57
26.69,-4.15,-8.72,-4.16,-8.73,8.73,8.79,8.21,4.58,4.57,4.57
26.96,-4.11,-8.68,-4.10,-8.67,8.67,8.72,8.39,4.56,4.57,4.57
27.23,-4.05,-8.62,-4.05,-8.61,8.61,8.64,8.57,4.56,4.56,4.57
27.50,-3.98,-8.55,-3.99,-8.55,8.55,8.56,8.74,4.57,4.56,4.57
27.77,-3.92,-8.48,-3.92,-8.48,8.48,8.48,8.91,4.56,4.56,4.56
28.05,-3.86,-8.42,-3.85,-8.41,8.41,8.39,9.08,4.55,4.56,4.56
28.33,-3.80,-8.34,-3.77,-8.32,8.32,8.31,9.23,4.52,4.56,4.54
28.62,-3.73,-8.28,-3.68,-8.23,8.23,8.23,9.38,4.50,4.55,4.55
28.90,-3.67,-8.22,-3.59,-8.14,8.14,8.15,9.52,4.47,4.55,4.55
29.19,-3.56,-8.10,-3.49,-8.04,8.04,8.07,9.64,4.48,4.55,4.54
29.48,-3.43,-7.98,-3.39,-7.94,7.94,7.99,9.75,4.51,4.54,4.55
29.78,-3.29,-7.84,-3.30,-7.84,7.84,7.90,9.84,4.55,4.54,4.55
30.08,-3.16,-7.71,-3.20,-7.74,7.74,7.82,9.92,4.58,4.53,4.54
30.38,-3.05,-7.58,-3.11,-7.64,7.64,7.74,9.98,4.59,4.53,4.53
30.68,-2.93,-7.46,-3.02,-7.55,7.55,7.66,10.02,4.62,4.52,4.53
30.99,-2.82,-7.34,-2.93,-7.45,7.45,7.57,10.04,4.63,4.52,4.52
31.30,-2.79,-7.30,-2.85,-7.36,7.36,7.49,10.04,4.57,4.51,4.51
31.61,-2.77,-7.28,-2.77,-7.27,7.27,7.41,10.02,4.50,4.51,4.51
31.93,-2.75,-7.25,-2.69,-7.19,7.19,7.32,9.99,4.44,4.50,4.50
32.24,-2.68,-7.17,-2.62,-7.11,7.11,7.24,9.93,4.43,4.50,4.49
32.57,-2.61,-7.09,-2.55,-7.04,7.04,7.16,9.86,4.43,4.49,4.48
32.89,-2.53,-7.01,-2.50,-6.98,6.98,7.08,9.77,4.45,4.48,4.48
33.22,-2.46,-6.94,-2.44,-6.92,6.92,6.99,9.66,4.46,4.48,4.48
33.55,-2.38,-6.85,-2.39,-6.86,6.86,6.91,9.54,4.48,4.47,4.47
33.89,-2.31,-6.78,-2.33,-6.80,6.80,6.83,9.41,4.49,4.47,4.47
34.23,-2.24,-6.71,-2.28,-6.74,6.74,6.75,9.26,4.50,4.46,4.47
34.57,-2.19,-6.64,-2.22,-6.68,6.68,6.67,9.11,4.49,4.46,4.45
34.92,-2.13,-6.58,-2.16,-6.61,6.61,6.59,8.95,4.48,4.45,4.45
35.27,-2.10,-6.55,-2.11,-6.55,6.55,6.50,8.78,4.45,4.44,4.45
35.62,-2.08,-6.51,-2.06,-6.49,6.49,6.42,8.61,4.41,4.44,4.43
35.97,-2.05,-6.48,-2.01,-6.44,6.44,6.34,8.43,4.39,4.43,4.43
36.33,-1.97,-6.39,-1.96,-6.39,6.39,6.26,8.25,4.42,4.42,4.42
36.70,-1.89,-6.31,-1.92,-6.34,6.34,6.18,8.07,4.44,4.42,4.42
37.06,-1.82,-6.23,-1.87,-6.28,6.28,6.10,7.89,4.46,4.41,4.41
37.43,-1.80,-6.20,-1.81,-6.21,6.21,6.02,7.71,4.41,4.40,4.40
37.81,-1.79,-6.19,-1.75,-6.14,6.14,5.95,7.53,4.35,4.39,4.40
38.19,-1.75,-6.13,-1.69,-6.08,6.08,5.87,7.35,4.33,4.39,4.38
38.57,-1.68,-6.06,-1.63,-6.01,6.01,5.79,7.17,4.33,4.38,4.38
38.95,-1.61,-5.98,-1.57,-5.94,5.94,5.71,7.00,4.33,4.37,4.37
39.34,-1.52,-5.87,-1.50,-5.86,5.86,5.63,6.83,4.34,4.36,4.35
39.74,-1.43,-5.77,-1.43,-5.78,5.78,5.56,6.66,4.35,4.35,4.34
40.14,-1.34,-5.68,-1.37,-5.71,5.71,5.48,6.49,4.37,4.34,4.34
40.54,-1.25,-5.59,-1.31,-5.64,5.64,5.40,6.33,4.39,4.33,4.34
40.94,-1.15,-5.48,-1.24,-5.56,5.56,5.33,6.17,4.41,4.32,4.33
41.35,-1.14,-5.45,-1.18,-5.48,5.48,5.25,6.01,4.34,4.30,4.31
41.76,-1.14,-5.43,-1.11,-5.40,5.40,5.18,5.86,4.26,4.28,4.29
42.18,-1.10,-5.38,-1.06,-5.32,5.32,5.10,5.72,4.22,4.26,4.28
42.60,-1.00,-5.25,-1.00,-5.24,5.24,5.03,5.57,4.24,4.24,4.25
43.03,-0.91,-5.14,-0.95,-5.16,5.16,4.95,5.43,4.25,4.21,4.23
43.46,-0.91,-5.11,-0.90,-5.08,5.08,4.88,5.29,4.17,4.18,4.20
43.90,-0.91,-5.06,-0.85,-5.01,5.01,4.81,5.16,4.10,4.16,4.15
44.33,-0.83,-4.95,-0.80,-4.93,4.93,4.73,5.03,4.10,4.13,4.12
44.78,-0.73,-4.82,-0.76,-4.86,4.86,4.66,4.91,4.13,4.10,4.09
45.23,-0.68,-4.74,-0.71,-4.78,4.78,4.59,4.79,4.10,4.07,4.06
45.68,-0.68,-4.71,-0.66,-4.71,4.71,4.52,4.67,4.03,4.04,4.03
46.13,-0.65,-4.65,-0.61,-4.63,4.63,4.45,4.56,3.98,4.02,4.01
46.60,-0.55,-4.55,-0.57,-4.57,4.57,4.37,4.45,4.01,4.00,3.99
47.06,-0.46,-4.43,-0.52,-4.50,4.50,4.30,4.34,4.04,3.98,3.97
47.53,-0.46,-4.42,-0.47,-4.44,4.44,4.23,4.23,3.98,3.97,3.96
48.01,-0.46,-4.42,-0.43,-4.38,4.38,4.16,4.13,3.92,3.96,3.96
48.49,-0.39,-4.34,-0.38,-4.33,4.33,4.10,4.04,3.94,3.95,3.95
48.97,-0.32,-4.25,-0.33,-4.28,4.28,4.03,3.94,3.96,3.94,3.93
49.46,-0.28,-4.20,-0.28,-4.22,4.22,3.96,3.85,3.94,3.94,3.92
49.96,-0.23,-4.15,-0.23,-4.17,4.17,3.89,3.76,3.94,3.93,3.92
50.46,-0.21,-4.13,-0.18,-4.11,4.11,3.82,3.67,3.90,3.92,3.92
50.96,-0.18,-4.11,-0.14,-4.05,4.05,3.76,3.59,3.87,3.91,3.93
51.47,-0.09,-4.00,-0.09,-3.99,3.99,3.69,3.51,3.90,3.90,3.91
51.99,-0.00,-3.90,-0.04,-3.92,3.92,3.62,3.43,3.92,3.88,3.90
52.51,0.00,-3.88,0.01,-3.85,3.85,3.56,3.35,3.85,3.86,3.88
53.03,0.01,-3.84,0.06,-3.77,3.77,3.49,3.28,3.78,3.83,3.85
53.56,0.13,-3.68,0.12,-3.68,3.68,3.43,3.20,3.81,3.80,3.81
54.10,0.23,-3.54,0.16,-3.60,3.60,3.36,3.13,3.83,3.76,3.77
54.64,0.23,-3.49,0.20,-3.51,3.51,3.30,3.06,3.74,3.72,3.72
55.18,0.23,-3.44,0.24,-3.42,3.42,3.23,2.99,3.65,3.67,3.67
55.74,0.23,-3.38,0.29,-3.33,3.33,3.17,2.93,3.56,3.61,3.61
56.29,0.30,-3.26,0.33,-3.23,3.23,3.10,2.86,3.53,3.56,3.56
56.86,0.43,-3.07,0.37,-3.12,3.12,3.04,2.80,3.55,3.50,3.50
57.42,0.46,-2.96,0.41,-3.02,3.02,2.98,2.73,3.48,3.43,3.42
58.00,0.46,-2.90,0.44,-2.92,2.92,2.92,2.67,3.38,3.37,3.36
58.58,0.46,-2.84,0.48,-2.82,2.82,2.85,2.61,3.28,3.30,3.30
59.16,0.46,-2.78,0.50,-2.73,2.73,2.79,2.55,3.19,3.23,3.24
59.76,0.46,-2.72,0.53,-2.64,2.64,2.73,2.48,3.10,3.17,3.18
60.35,0.54,-2.56,0.56,-2.55,2.55,2.67,2.42,3.09,3.10,3.10
60.96,0.67,-2.38,0.59,-2.44,2.44,2.61,2.36,3.11,3.04,3.04
61.57,0.68,-2.29,0.63,-2.35,2.35,2.55,2.30,3.03,2.97,2.97
62.18,0.68,-2.22,0.66,-2.26,2.26,2.49,2.24,2.94,2.91,2.90
62.80,0.68,-2.17,0.68,-2.18,2.18,2.43,2.18,2.86,2.85,2.85
63.43,0.68,-2.11,0.70,-2.10,2.10,2.37,2.12,2.78,2.80,2.79
64.07,0.68,-2.06,0.74,-2.01,2.01,2.31,2.06,2.69,2.74,2.74
64.71,0.72,-1.97,0.77,-1.92,1.92,2.25,2.00,2.64,2.69,2.69
65.35,0.79,-1.84,0.81,-1.83,1.83,2.19,1.94,2.62,2.64,2.63
66.01,0.91,-1.68,0.85,-1.74,1.74,2.13,1.88,2.65,2.60,2.59
66.67,0.91,-1.64,0.89,-1.67,1.67,2.07,1.82,2.58,2.55,2.55
67.33,0.91,-1.60,0.91,-1.60,1.60,2.01,1.76,2.51,2.51,2.51
68.01,0.91,-1.56,0.94,-1.54,1.54,1.96,1.70,2.45,2.47,2.47
68.69,0.93,-1.51,0.97,-1.46,1.46,1.90,1.63,2.39,2.44,2.44
69.37,1.02,-1.38,1.01,-1.38,1.38,1.84,1.57,2.41,2.40,2.40
70.07,1.14,-1.22,1.05,-1.31,1.31,1.78,1.51,2.45,2.36,2.36
70.77,1.14,-1.20,1.09,-1.23,1.23,1.73,1.45,2.37,2.33,2.34
71.48,1.14,-1.16,1.13,-1.16,1.16,1.67,1.39,2.30,2.29,2.30
72.19,1.14,-1.13,1.16,-1.09,1.09,1.61,1.33,2.23,2.25,2.27
72.91,1.14,-1.08,1.19,-1.02,1.02,1.56,1.27,2.16,2.22,2.22
73.64,1.14,-1.05,1.22,-0.96,0.96,1.50,1.20,2.10,2.18,2.19
74.38,1.20,-0.95,1.25,-0.90,0.90,1.44,1.14,2.10,2.14,2.15
75.12,1.32,-0.79,1.27,-0.84,0.84,1.39,1.08,2.16,2.11,2.11
75.87,1.36,-0.71,1.29,-0.78,0.78,1.33,1.02,2.14,2.07,2.07
76.63,1.37,-0.66,1.31,-0.73,0.73,1.27,0.96,2.10,2.04,2.03
77.40,1.37,-0.63,1.33,-0.68,0.68,1.22,0.90,2.05,2.00,2.00
78.17,1.37,-0.59,1.35,-0.63,0.63,1.16,0.84,2.00,1.97,1.96
78.95,1.37,-0.57,1.38,-0.57,0.57,1.11,0.77,1.94,1.94,1.94
79.74,1.37,-0.55,1.40,-0.51,0.51,1.05,0.71,1.88,1.92,1.92
80.54,1.37,-0.52,1.43,-0.46,0.46,0.99,0.65,1.83,1.89,1.89
81.35,1.37,-0.49,1.46,-0.42,0.42,0.94,0.59,1.79,1.87,1.86
82.16,1.39,-0.46,1.48,-0.38,0.38,0.88,0.53,1.77,1.86,1.85
82.98,1.47,-0.37,1.49,-0.35,0.35,0.83,0.47,1.82,1.84,1.84
83.81,1.58,-0.25,1.51,-0.32,0.32,0.77,0.41,1.90,1.83,1.83
84.65,1.60,-0.21,1.53,-0.29,0.29,0.72,0.35,1.89,1.82,1.81
85.50,1.60,-0.21,1.55,-0.26,0.26,0.66,0.29,1.86,1.81,1.81
86.35,1.60,-0.20,1.57,-0.23,0.23,0.61,0.23,1.83,1.80,1.80
87.22,1.60,-0.19,1.59,-0.20,0.20,0.55,0.16,1.80,1.80,1.79
88.09,1.60,-0.18,1.61,-0.17,0.17,0.49,0.10,1.77,1.79,1.78
88.97,1.60,-0.19,1.63,-0.15,0.15,0.44,0.04,1.75,1.78,1.79
89.86,1.60,-0.18,1.63,-0.14,0.14,0.38,-0.02,1.74,1.77,1.78
90.76,1.60,-0.16,1.62,-0.13,0.13,0.33,-0.08,1.73,1.76,1.76
91.66,1.60,-0.15,1.61,-0.13,0.13,0.27,-0.14,1.73,1.74,1.75
92.58,1.60,-0.12,1.59,-0.14,0.14,0.22,-0.20,1.74,1.72,1.72
93.51,1.60,-0.11,1.56,-0.14,0.14,0.16,-0.27,1.74,1.71,1.71
94.44,1.60,-0.09,1.54,-0.14,0.14,0.10,-0.33,1.74,1.68,1.69
95.39,1.60,-0.06,1.52,-0.13,0.13,0.05,-0.39,1.73,1.66,1.66
96.34,1.56,-0.06,1.50,-0.13,0.13,-0.01,-0.45,1.69,1.63,1.62
97.30,1.45,-0.14,1.48,-0.12,0.12,-0.06,-0.51,1.57,1.60,1.59
98.28,1.37,-0.19,1.46,-0.11,0.11,-0.12,-0.58,1.48,1.56,1.56
99.26,1.37,-0.15,1.43,-0.09,0.09,-0.18,-0.64,1.46,1.52,1.52
100.25,1.37,-0.11,1.40,-0.08,0.08,-0.23,-0.70,1.45,1.48,1.48
101.25,1.37,-0.07,1.38,-0.06,0.06,-0.29,-0.76,1.43,1.44,1.44
102.27,1.37,-0.02,1.36,-0.02,0.02,-0.35,-0.82,1.39,1.38,1.39
103.29,1.37,0.04,1.35,0.02,-0.02,-0.41,-0.88,1.35,1.33,1.33
104.32,1.37,0.09,1.35,0.08,-0.08,-0.46,-0.95,1.29,1.27,1.28
105.37,1.37,0.15,1.36,0.15,-0.15,-0.52,-1.01,1.22,1.21,1.22
106.42,1.37,0.21,1.37,0.23,-0.23,-0.58,-1.06,1.14,1.14,1.16
107.48,1.37,0.29,1.40,0.33,-0.33,-0.64,-1.12,1.04,1.07,1.08
108.56,1.37,0.38,1.42,0.43,-0.43,-0.69,-1.18,0.94,0.99,0.99
109.64,1.37,0.46,1.45,0.54,-0.54,-0.75,-1.24,0.83,0.91,0.91
110.74,1.37,0.53,1.47,0.64,-0.64,-0.81,-1.29,0.73,0.83,0.84
111.85,1.57,0.81,1.49,0.75,-0.75,-0.87,-1.35,0.82,0.75,0.76
112.97,1.60,0.94,1.52,0.85,-0.85,-0.93,-1.40,0.75,0.67,0.66
114.10,1.60,1.01,1.54,0.95,-0.95,-0.98,-1.45,0.65,0.58,0.59
115.24,1.60,1.10,1.56,1.05,-1.05,-1.04,-1.50,0.55,0.51,0.50
116.39,1.60,1.19,1.58,1.15,-1.15,-1.10,-1.54,0.45,0.43,0.41
117.55,1.60,1.26,1.59,1.24,-1.24,-1.16,-1.59,0.36,0.36,0.34
118.73,1.60,1.34,1.60,1.32,-1.32,-1.22,-1.63,0.28,0.29,0.26
119.92,1.60,1.39,1.61,1.39,-1.39,-1.28,-1.67,0.21,0.22,0.21
121.12,1.60,1.46,1.62,1.45,-1.45,-1.34,-1.71,0.15,0.16,0.14
122.33,1.60,1.51,1.62,1.51,-1.51,-1.39,-1.74,0.09,0.11,0.09
123.55,1.60,1.54,1.61,1.56,-1.56,-1.45,-1.78,0.04,0.05,0.06
124.79,1.60,1.59,1.60,1.59,-1.59,-1.51,-1.81,0.01,0.01,0.01
126.03,1.60,1.63,1.59,1.63,-1.63,-1.57,-1.83,-0.03,-0.04,-0.03
127.29,1.60,1.68,1.58,1.67,-1.67,-1.63,-1.86,-0.07,-0.08,-0.08
128.57,1.60,1.72,1.59,1.71,-1.71,-1.69,-1.88,-0.11,-0.13,-0.12
129.85,1.60,1.76,1.60,1.77,-1.77,-1.75,-1.90,-0.17,-0.17,-0.16
131.15,1.60,1.80,1.62,1.83,-1.83,-1.80,-1.92,-0.23,-0.21,-0.20
132.46,1.60,1.85,1.63,1.88,-1.88,-1.86,-1.93,-0.28,-0.25,-0.25
133.79,1.60,1.89,1.64,1.94,-1.94,-1.92,-1.95,-0.34,-0.29,-0.29
135.12,1.60,1.94,1.65,1.99,-1.99,-1.98,-1.96,-0.39,-0.34,-0.34
136.48,1.60,1.98,1.66,2.04,-2.04,-2.03,-1.97,-0.44,-0.38,-0.38
137.84,1.60,2.02,1.67,2.09,-2.09,-2.09,-1.98,-0.49,-0.42,-0.42
139.22,1.72,2.20,1.67,2.14,-2.14,-2.15,-1.98,-0.42,-0.47,-0.48
140.61,1.81,2.35,1.68,2.19,-2.19,-2.20,-1.99,-0.38,-0.52,-0.54
142.02,1.82,2.39,1.68,2.24,-2.24,-2.26,-1.99,-0.42,-0.57,-0.57
143.44,1.81,2.43,1.68,2.30,-2.30,-2.31,-2.00,-0.49,-0.62,-0.62
144.87,1.64,2.31,1.67,2.35,-2.35,-2.37,-2.00,-0.71,-0.68,-0.67
146.32,1.61,2.34,1.67,2.41,-2.41,-2.42,-2.01,-0.80,-0.74,-0.73
147.78,1.60,2.37,1.66,2.47,-2.47,-2.47,-2.01,-0.87,-0.81,-0.77
149.26,1.60,2.45,1.65,2.53,-2.53,-2.52,-2.02,-0.93,-0.88,-0.85
150.75,1.60,2.53,1.64,2.59,-2.59,-2.57,-2.02,-0.99,-0.95,-0.93
152.26,1.60,2.61,1.63,2.66,-2.66,-2.62,-2.03,-1.06,-1.03,-1.01
153.78,1.60,2.69,1.61,2.72,-2.72,-2.67,-2.03,-1.12,-1.11,-1.09
155.32,1.60,2.80,1.59,2.78,-2.78,-2.72,-2.04,-1.18,-1.19,-1.20
156.88,1.60,2.88,1.58,2.85,-2.85,-2.76,-2.05,-1.25,-1.27,-1.28
158.44,1.60,2.96,1.58,2.93,-2.93,-2.81,-2.05,-1.33,-1.34,-1.36
160.03,1.60,3.04,1.60,3.01,-3.01,-2.85,-2.06,-1.41,-1.42,-1.44
161.63,1.60,3.11,1.61,3.10,-3.10,-2.89,-2.08,-1.50,-1.48,-1.51
163.24,1.60,3.16,1.62,3.16,-3.16,-2.93,-2.09,-1.56,-1.54,-1.56
164.88,1.60,3.21,1.62,3.21,-3.21,-2.97,-2.10,-1.61,-1.59,-1.61
166.53,1.60,3.26,1.61,3.24,-3.24,-3.01,-2.12,-1.64,-1.63,-1.66
168.19,1.60,3.29,1.60,3.26,-3.26,-3.04,-2.14,-1.66,-1.67,-1.69
169.87,1.60,3.31,1.58,3.27,-3.27,-3.08,-2.16,-1.67,-1.69,-1.71
171.57,1.60,3.33,1.56,3.27,-3.27,-3.11,-2.18,-1.67,-1.71,-1.73
173.29,1.60,3.33,1.54,3.26,-3.26,-3.14,-2.20,-1.66,-1.72,-1.73
175.02,1.60,3.32,1.52,3.25,-3.25,-3.17,-2.22,-1.65,-1.73,-1.72
176.77,1.60,3.33,1.50,3.24,-3.24,-3.19,-2.25,-1.64,-1.74,-1.73
178.54,1.42,3.15,1.48,3.22,-3.22,-3.21,-2.28,-1.80,-1.74,-1.73
180.32,1.37,3.10,1.46,3.20,-3.20,-3.24,-2.31,-1.83,-1.75,-1.73
182.13,1.37,3.10,1.43,3.19,-3.19,-3.26,-2.34,-1.82,-1.75,-1.73
183.95,1.37,3.10,1.41,3.18,-3.18,-3.27,-2.37,-1.81,-1.76,-1.73
185.79,1.37,3.12,1.40,3.17,-3.17,-3.29,-2.41,-1.80,-1.77,-1.75
187.65,1.37,3.14,1.39,3.18,-3.18,-3.30,-2.45,-1.81,-1.78,-1.77
189.52,1.37,3.17,1.38,3.18,-3.18,-3.31,-2.49,-1.81,-1.80,-1.80
191.42,1.37,3.19,1.37,3.19,-3.19,-3.32,-2.53,-1.82,-1.82,-1.82
193.33,1.37,3.22,1.36,3.20,-3.20,-3.33,-2.57,-1.83,-1.84,-1.85
195.27,1.37,3.23,1.35,3.21,-3.21,-3.33,-2.61,-1.84,-1.86,-1.86
197.22,1.37,3.25,1.35,3.23,-3.23,-3.33,-2.66,-1.86,-1.88,-1.88
199.19,1.37,3.29,1.34,3.25,-3.25,-3.33,-2.70,-1.88,-1.91,-1.92
201.18,1.37,3.30,1.33,3.25,-3.25,-3.33,-2.75,-1.88,-1.93,-1.93
203.19,1.37,3.32,1.31,3.26,-3.26,-3.32,-2.80,-1.89,-1.95,-1.95
205.23,1.37,3.35,1.28,3.26,-3.26,-3.32,-2.84,-1.89,-1.97,-1.98
207.28,1.29,3.28,1.26,3.26,-3.26,-3.31,-2.89,-1.97,-2.00,-1.99
209.35,1.17,3.19,1.24,3.26,-3.26,-3.30,-2.94,-2.09,-2.01,-2.02
211.44,1.14,3.18,1.23,3.26,-3.26,-3.29,-2.99,-2.12,-2.03,-2.04
213.56,1.14,3.19,1.21,3.26,-3.26,-3.27,-3.03,-2.12,-2.05,-2.05
215.69,1.14,3.20,1.19,3.26,-3.26,-3.26,-3.08,-2.12,-2.07,-2.06
217.85,1.14,3.22,1.17,3.26,-3.26,-3.24,-3.12,-2.12,-2.08,-2.08
220.03,1.14,3.24,1.15,3.25,-3.25,-3.22,-3.17,-2.11,-2.10,-2.10
222.23,1.14,3.26,1.12,3.24,-3.24,-3.20,-3.21,-2.10,-2.11,-2.12
224.45,1.14,3.27,1.10,3.22,-3.22,-3.17,-3.25,-2.08,-2.12,-2.13
226.70,1.14,3.27,1.08,3.21,-3.21,-3.15,-3.29,-2.07,-2.13,-2.13
228.96,1.14,3.28,1.06,3.21,-3.21,-3.12,-3.32,-2.07,-2.14,-2.14
231.25,1.14,3.28,1.05,3.20,-3.20,-3.10,-3.35,-2.06,-2.15,-2.14
233.57,1.11,3.27,1.04,3.20,-3.20,-3.07,-3.38,-2.09,-2.16,-2.16
235.90,0.92,3.09,1.03,3.19,-3.19,-3.04,-3.40,-2.27,-2.16,-2.17
238.26,0.91,3.08,1.01,3.17,-3.17,-3.01,-3.42,-2.26,-2.16,-2.17
240.64,0.91,3.08,0.98,3.15,-3.15,-2.98,-3.43,-2.24,-2.16,-2.17
243.05,0.91,3.07,0.96,3.12,-3.12,-2.95,-3.44,-2.21,-2.16,-2.16
245.48,0.91,3.07,0.93,3.10,-3.10,-2.91,-3.44,-2.19,-2.16,-2.16
247.93,0.91,3.06,0.91,3.07,-3.07,-2.88,-3.44,-2.16,-2.16,-2.15
250.41,0.91,3.07,0.89,3.04,-3.04,-2.85,-3.44,-2.13,-2.16,-2.16
252.92,0.91,3.06,0.86,3.01,-3.01,-2.81,-3.43,-2.10,-2.15,-2.15
255.45,0.91,3.04,0.83,2.98,-2.98,-2.77,-3.41,-2.07,-2.14,-2.13
258.00,0.91,3.04,0.81,2.95,-2.95,-2.74,-3.39,-2.04,-2.13,-2.13
260.58,0.77,2.90,0.79,2.91,-2.91,-2.70,-3.36,-2.14,-2.12,-2.13
263.19,0.69,2.80,0.76,2.88,-2.88,-2.67,-3.33,-2.19,-2.11,-2.11
265.82,0.68,2.79,0.72,2.82,-2.82,-2.63,-3.29,-2.14,-2.10,-2.11
268.48,0.68,2.77,0.67,2.75,-2.75,-2.59,-3.25,-2.07,-2.09,-2.09
271.16,0.68,2.76,0.62,2.69,-2.69,-2.55,-3.21,-2.01,-2.07,-2.08
273.87,0.60,2.66,0.56,2.61,-2.61,-2.52,-3.16,-2.01,-2.05,-2.06
276.61,0.48,2.51,0.51,2.54,-2.54,-2.48,-3.11,-2.06,-2.03,-2.03
279.38,0.46,2.47,0.46,2.47,-2.47,-2.44,-3.06,-2.01,-2.01,-2.01
282.17,0.46,2.45,0.41,2.40,-2.40,-2.40,-3.00,-1.94,-1.99,-1.99
284.99,0.40,2.37,0.37,2.33,-2.33,-2.36,-2.94,-1.93,-1.96,-1.97
287.84,0.24,2.18,0.33,2.27,-2.27,-2.33,-2.88,-2.03,-1.94,-1.94
290.72,0.23,2.14,0.31,2.21,-2.21,-2.29,-2.81,-1.98,-1.91,-1.91
293.63,0.23,2.11,0.28,2.16,-2.16,-2.25,-2.75,-1.93,-1.88,-1.88
296.57,0.23,2.09,0.25,2.11,-2.11,-2.21,-2.68,-1.88,-1.86,-1.86
299.53,0.23,2.06,0.23,2.07,-2.07,-2.18,-2.62,-1.84,-1.84,-1.83
302.53,0.23,2.05,0.23,2.04,-2.04,-2.14,-2.55,-1.81,-1.81,-1.82
305.55,0.23,2.01,0.23,2.02,-2.02,-2.10,-2.48,-1.79,-1.80,-1.78
308.61,0.23,2.00,0.23,2.01,-2.01,-2.07,-2.41,-1.78,-1.78,-1.77
311.69,0.23,1.98,0.23,1.99,-1.99,-2.03,-2.35,-1.76,-1.76,-1.75
314.81,0.23,1.95,0.22,1.97,-1.97,-2.00,-2.28,-1.74,-1.75,-1.72
317.96,0.23,1.96,0.22,1.96,-1.96,-1.96,-2.21,-1.73,-1.74,-1.73
321.14,0.23,1.96,0.22,1.95,-1.95,-1.93,-2.14,-1.72,-1.73,-1.73
324.35,0.23,1.96,0.20,1.92,-1.92,-1.89,-2.08,-1.69,-1.72,-1.73
327.59,0.23,1.95,0.19,1.90,-1.90,-1.86,-2.01,-1.67,-1.71,-1.72
330.87,0.23,1.94,0.18,1.88,-1.88,-1.82,-1.95,-1.65,-1.70,-1.71
334.18,0.23,1.94,0.16,1.85,-1.85,-1.79,-1.89,-1.62,-1.69,-1.71
337.52,0.10,1.80,0.13,1.81,-1.81,-1.76,-1.82,-1.71,-1.68,-1.70
340.90,0.02,1.69,0.10,1.77,-1.77,-1.73,-1.76,-1.75,-1.67,-1.67
344.30,0.00,1.66,0.07,1.72,-1.72,-1.69,-1.70,-1.72,-1.66,-1.66
347.75,0.00,1.65,0.03,1.67,-1.67,-1.66,-1.65,-1.67,-1.64,-1.65
351.23,0.00,1.62,-0.00,1.62,-1.62,-1.63,-1.59,-1.62,-1.62,-1.62
354.74,0.00,1.60,-0.03,1.57,-1.57,-1.60,-1.53,-1.57,-1.60,-1.60
358.28,0.00,1.57,-0.06,1.52,-1.52,-1.57,-1.48,-1.52,-1.58,-1.57
361.87,0.00,1.56,-0.09,1.47,-1.47,-1.54,-1.42,-1.47,-1.55,-1.56
365.49,-0.16,1.37,-0.12,1.41,-1.41,-1.51,-1.37,-1.57,-1.53,-1.53
369.14,-0.22,1.29,-0.15,1.36,-1.36,-1.48,-1.32,-1.58,-1.51,-1.51
372.83,-0.23,1.25,-0.18,1.31,-1.31,-1.46,-1.27,-1.54,-1.49,-1.48
376.56,-0.23,1.24,-0.21,1.26,-1.26,-1.43,-1.22,-1.49,-1.47,-1.47
380.33,-0.23,1.21,-0.24,1.21,-1.21,-1.40,-1.17,-1.44,-1.45,-1.44
384.13,-0.23,1.19,-0.27,1.16,-1.16,-1.37,-1.13,-1.39,-1.43,-1.42
387.97,-0.23,1.18,-0.31,1.11,-1.11,-1.35,-1.08,-1.34,-1.42,-1.41
391.85,-0.24,1.16,-0.34,1.06,-1.06,-1.32,-1.04,-1.30,-1.40,-1.40
395.77,-0.39,1.00,-0.37,1.02,-1.02,-1.30,-0.99,-1.41,-1.39,-1.39
399.73,-0.46,0.93,-0.39,0.99,-0.99,-1.27,-0.95,-1.45,-1.38,-1.39
403.72,-0.46,0.92,-0.41,0.97,-0.97,-1.25,-0.91,-1.43,-1.37,-1.38
407.76,-0.46,0.91,-0.42,0.95,-0.95,-1.22,-0.87,-1.41,-1.37,-1.37
411.84,-0.46,0.90,-0.43,0.93,-0.93,-1.20,-0.83,-1.39,-1.36,-1.36
415.96,-0.46,0.89,-0.45,0.91,-0.91,-1.18,-0.79,-1.37,-1.36,-1.35
420.12,-0.46,0.89,-0.46,0.90,-0.90,-1.15,-0.76,-1.36,-1.36,-1.35
424.32,-0.46,0.89,-0.47,0.88,-0.88,-1.13,-0.72,-1.34,-1.36,-1.35
428.56,-0.46,0.89,-0.48,0.88,-0.88,-1.11,-0.69,-1.34,-1.35,-1.35
432.85,-0.46,0.90,-0.48,0.87,-0.87,-1.09,-0.65,-1.33,-1.35,-1.36
437.18,-0.46,0.89,-0.47,0.87,-0.87,-1.07,-0.62,-1.33,-1.35,-1.35
441.55,-0.46,0.88,-0.46,0.88,-0.88,-1.05,-0.59,-1.34,-1.34,-1.34
445.96,-0.46,0.88,-0.46,0.87,-0.87,-1.03,-0.56,-1.33,-1.33,-1.34
450.42,-0.46,0.87,-0.46,0.87,-0.87,-1.01,-0.53,-1.33,-1.33,-1.33
454.93,-0.46,0.86,-0.46,0.86,-0.86,-0.99,-0.50,-1.32,-1.32,-1.32
459.48,-0.46,0.85,-0.45,0.85,-0.85,-0.97,-0.48,-1.31,-1.30,-1.31
464.07,-0.46,0.83,-0.44,0.85,-0.85,-0.95,-0.45,-1.31,-1.29,-1.29
468.71,-0.46,0.81,-0.44,0.83,-0.83,-0.93,-0.43,-1.29,-1.27,-1.27
473.40,-0.46,0.80,-0.45,0.81,-0.81,-0.91,-0.41,-1.27,-1.25,-1.26
478.13,-0.46,0.78,-0.45,0.78,-0.78,-0.90,-0.39,-1.24,-1.23,-1.24
482.91,-0.46,0.76,-0.46,0.75,-0.75,-0.88,-0.37,-1.21,-1.21,-1.22
487.74,-0.46,0.73,-0.48,0.71,-0.71,-0.86,-0.35,-1.17,-1.19,-1.19
492.62,-0.46,0.70,-0.49,0.67,-0.67,-0.85,-0.33,-1.13,-1.16,-1.16
497.55,-0.46,0.68,-0.51,0.63,-0.63,-0.83,-0.32,-1.09,-1.14,-1.14
