frequency,raw,error,smoothed,error_smoothed,equalization,parametric_eq,fixed_band_eq,equalized_raw,equalized_smoothed,target
20.00,18.63,7.34,18.63,7.33,-7.33,-7.44,-2.99,11.30,11.30,11.30
20.20,18.63,7.35,18.63,7.34,-7.34,-7.42,-3.08,11.29,11.28,11.29
20.40,18.62,7.35,18.62,7.35,-7.35,-7.41,-3.16,11.27,11.27,11.28
20.61,18.62,7.35,18.62,7.36,-7.36,-7.39,-3.25,11.26,11.26,11.27
20.81,18.61,7.37,18.61,7.36,-7.36,-7.37,-3.35,11.25,11.25,11.25
21.02,18.60,7.37,18.60,7.36,-7.36,-7.36,-3.44,11.24,11.24,11.24
21.23,18.59,7.37,18.59,7.36,-7.36,-7.34,-3.54,11.23,11.23,11.23
21.44,18.57,7.34,18.57,7.35,-7.35,-7.32,-3.64,11.22,11.22,11.24
21.66,18.56,7.35,18.56,7.34,-7.34,-7.30,-3.74,11.22,11.21,11.22
21.87,18.54,7.33,18.54,7.33,-7.33,-7.28,-3.85,11.21,11.21,11.22
22.09,18.52,7.33,18.52,7.33,-7.32,-7.26,-3.96,11.20,11.20,11.20
22.31,18.50,7.31,18.50,7.31,-7.31,-7.24,-4.07,11.20,11.19,11.19
22.54,18.47,7.30,18.47,7.29,-7.29,-7.22,-4.18,11.18,11.18,11.18
22.76,18.44,7.27,18.44,7.27,-7.27,-7.20,-4.30,11.17,11.17,11.18
22.99,18.41,7.25,18.41,7.25,-7.25,-7.17,-4.42,11.16,11.16,11.17
23.22,18.39,7.24,18.39,7.23,-7.23,-7.15,-4.54,11.16,11.16,11.16
23.45,18.37,7.21,18.37,7.21,-7.21,-7.13,-4.67,11.16,11.16,11.17
23.69,18.35,7.20,18.35,7.19,-7.19,-7.10,-4.80,11.17,11.16,11.16
23.92,18.32,7.17,18.32,7.17,-7.16,-7.08,-4.93,11.16,11.16,11.15
24.16,18.29,7.13,18.29,7.14,-7.14,-7.06,-5.07,11.15,11.15,11.16
24.40,18.26,7.11,18.26,7.11,-7.12,-7.03,-5.20,11.14,11.15,11.16
24.65,18.24,7.10,18.24,7.09,-7.10,-7.01,-5.34,11.14,11.14,11.15
24.89,18.21,7.07,18.21,7.07,-7.08,-6.98,-5.48,11.14,11.14,11.15
25.14,18.19,7.05,18.19,7.05,-7.05,-6.95,-5.63,11.14,11.14,11.14
25.39,18.17,7.03,18.17,7.03,-7.03,-6.93,-5.77,11.14,11.14,11.14
25.65,18.15,7.02,18.15,7.02,-7.01,-6.90,-5.92,11.14,11.14,11.14
25.91,18.13,7.00,18.13,6.99,-6.99,-6.87,-6.06,11.14,11.14,11.14
26.16,18.11,6.96,18.11,6.97,-6.96,-6.85,-6.21,11.15,11.14,11.15
26.43,18.08,6.95,18.08,6.94,-6.93,-6.82,-6.36,11.15,11.15,11.14
26.69,18.04,6.91,18.04,6.91,-6.90,-6.79,-6.50,11.14,11.14,11.14
26.96,18.00,6.87,18.00,6.87,-6.86,-6.76,-6.65,11.14,11.14,11.14
27.23,17.96,6.83,17.96,6.82,-6.83,-6.73,-6.79,11.14,11.13,11.14
27.50,17.91,6.78,17.92,6.78,-6.79,-6.71,-6.92,11.12,11.13,11.14
27.77,17.88,6.73,17.88,6.74,-6.75,-6.68,-7.06,11.13,11.13,11.15
28.05,17.85,6.71,17.85,6.71,-6.72,-6.65,-7.19,11.13,11.13,11.14
28.33,17.82,6.68,17.82,6.68,-6.68,-6.62,-7.31,11.14,11.14,11.15
28.62,17.80,6.66,17.80,6.65,-6.65,-6.59,-7.43,11.16,11.15,11.15
28.90,17.77,6.62,17.77,6.62,-6.61,-6.56,-7.54,11.16,11.16,11.16
29.19,17.74,6.59,17.74,6.59,-6.58,-6.53,-7.64,11.16,11.16,11.16
29.48,17.70,6.55,17.70,6.55,-6.54,-6.50,-7.74,11.16,11.15,11.15
29.78,17.65,6.51,17.65,6.51,-6.51,-6.47,-7.82,11.14,11.14,11.15
30.08,17.60,6.46,17.61,6.47,-6.47,-6.44,-7.89,11.13,11.13,11.15
30.38,17.56,6.44,17.56,6.43,-6.44,-6.41,-7.95,11.12,11.13,11.13
30.68,17.53,6.41,17.53,6.40,-6.40,-6.39,-8.00,11.13,11.12,11.13
30.99,17.49,6.37,17.49,6.37,-6.37,-6.36,-8.03,11.12,11.12,11.13
31.30,17.46,6.34,17.46,6.34,-6.34,-6.33,-8.06,11.12,11.12,11.13
31.61,17.43,6.32,17.43,6.31,-6.31,-6.30,-8.07,11.12,11.12,11.12
31.93,17.39,6.30,17.39,6.29,-6.28,-6.27,-8.06,11.11,11.11,11.10
32.24,17.35,6.24,17.35,6.26,-6.25,-6.24,-8.05,11.10,11.10,11.11
32.57,17.31,6.23,17.31,6.22,-6.22,-6.21,-8.02,11.09,11.09,11.09
32.89,17.27,6.18,17.27,6.19,-6.19,-6.18,-7.99,11.08,11.08,11.09
33.22,17.23,6.16,17.23,6.16,-6.16,-6.15,-7.94,11.07,11.07,11.08
33.55,17.20,6.12,17.20,6.13,-6.13,-6.12,-7.88,11.07,11.07,11.08
33.89,17.16,6.10,17.16,6.10,-6.10,-6.09,-7.81,11.06,11.06,11.07
34.23,17.12,6.08,17.12,6.07,-6.07,-6.06,-7.74,11.05,11.05,11.05
34.57,17.08,6.04,17.08,6.04,-6.04,-6.03,-7.66,11.04,11.05,11.05
34.92,17.05,6.03,17.05,6.01,-6.01,-6.01,-7.57,11.04,11.04,11.03
35.27,17.01,5.97,17.01,5.98,-5.98,-5.98,-7.48,11.04,11.04,11.05
35.62,16.97,5.96,16.97,5.95,-5.94,-5.95,-7.38,11.03,11.03,11.02
35.97,16.92,5.90,16.92,5.91,-5.91,-5.92,-7.28,11.01,11.01,11.02
36.33,16.87,5.87,16.87,5.88,-5.88,-5.89,-7.18,10.99,10.99,11.00
36.70,16.82,5.85,16.82,5.84,-5.85,-5.87,-7.08,10.97,10.97,10.98
37.06,16.77,5.81,16.77,5.81,-5.82,-5.84,-6.98,10.95,10.95,10.96
37.43,16.72,5.78,16.72,5.79,-5.79,-5.81,-6.87,10.93,10.93,10.94
37.81,16.68,5.76,16.68,5.77,-5.76,-5.79,-6.77,10.92,10.92,10.93
38.19,16.65,5.76,16.64,5.74,-5.74,-5.76,-6.66,10.91,10.91,10.90
38.57,16.60,5.73,16.60,5.72,-5.71,-5.73,-6.56,10.89,10.89,10.88
38.95,16.55,5.68,16.55,5.69,-5.68,-5.71,-6.46,10.87,10.87,10.87
39.34,16.49,5.65,16.49,5.66,-5.66,-5.68,-6.37,10.83,10.83,10.84
39.74,16.44,5.64,16.44,5.63,-5.64,-5.66,-6.27,10.80,10.80,10.81
40.14,16.38,5.60,16.39,5.60,-5.61,-5.63,-6.18,10.77,10.78,10.79
40.54,16.34,5.58,16.34,5.58,-5.58,-5.61,-6.10,10.76,10.76,10.77
40.94,16.31,5.58,16.31,5.57,-5.56,-5.58,-6.01,10.75,10.75,10.74
41.35,16.27,5.55,16.27,5.55,-5.54,-5.56,-5.93,10.73,10.73,10.73
41.76,16.23,5.53,16.22,5.52,-5.52,-5.53,-5.85,10.71,10.71,10.70
42.18,16.17,5.49,16.17,5.49,-5.50,-5.51,-5.78,10.67,10.67,10.69
42.60,16.12,5.46,16.12,5.47,-5.48,-5.49,-5.71,10.64,10.64,10.66
43.03,16.08,5.45,16.08,5.45,-5.46,-5.46,-5.65,10.62,10.62,10.64
43.46,16.04,5.45,16.04,5.44,-5.44,-5.44,-5.59,10.60,10.61,10.60
43.90,16.01,5.44,16.00,5.43,-5.42,-5.42,-5.53,10.59,10.59,10.58
44.33,15.96,5.41,15.96,5.41,-5.40,-5.40,-5.48,10.56,10.56,10.55
44.78,15.90,5.38,15.90,5.38,-5.38,-5.38,-5.43,10.52,10.52,10.53
45.23,15.85,5.35,15.85,5.35,-5.36,-5.35,-5.38,10.49,10.49,10.51
45.68,15.79,5.34,15.80,5.33,-5.34,-5.33,-5.34,10.45,10.45,10.46
46.13,15.75,5.33,15.75,5.32,-5.32,-5.31,-5.31,10.43,10.42,10.43
46.60,15.70,5.32,15.70,5.31,-5.31,-5.29,-5.27,10.40,10.40,10.39
47.06,15.65,5.30,15.65,5.30,-5.29,-5.28,-5.25,10.36,10.36,10.36
47.53,15.59,5.28,15.59,5.27,-5.27,-5.26,-5.22,10.32,10.31,10.32
48.01,15.52,5.26,15.52,5.26,-5.26,-5.24,-5.20,10.26,10.26,10.27
48.49,15.46,5.24,15.46,5.24,-5.25,-5.22,-5.18,10.21,10.22,10.23
48.97,15.41,5.24,15.41,5.23,-5.23,-5.20,-5.17,10.18,10.18,10.18
49.46,15.36,5.22,15.36,5.22,-5.22,-5.18,-5.16,10.14,10.14,10.15
49.96,15.30,5.22,15.30,5.21,-5.20,-5.17,-5.15,10.10,10.10,10.09
50.46,15.25,5.20,15.25,5.19,-5.19,-5.15,-5.15,10.06,10.06,10.06
50.96,15.19,5.18,15.19,5.18,-5.18,-5.14,-5.14,10.01,10.01,10.02
51.47,15.14,5.17,15.14,5.16,-5.17,-5.12,-5.14,9.97,9.97,9.98
51.99,15.08,5.16,15.08,5.15,-5.15,-5.10,-5.15,9.93,9.93,9.93
52.51,15.03,5.14,15.03,5.14,-5.14,-5.09,-5.15,9.89,9.89,9.90
53.03,14.99,5.13,14.99,5.13,-5.13,-5.08,-5.16,9.86,9.85,9.87
53.56,14.94,5.13,14.94,5.12,-5.12,-5.06,-5.16,9.82,9.82,9.82
54.10,14.89,5.13,14.89,5.12,-5.12,-5.05,-5.17,9.77,9.77,9.77
54.64,14.83,5.11,14.83,5.11,-5.11,-5.04,-5.18,9.72,9.73,9.73
55.18,14.78,5.10,14.78,5.10,-5.10,-5.02,-5.19,9.68,9.68,9.69
55.74,14.74,5.11,14.74,5.09,-5.09,-5.01,-5.20,9.65,9.65,9.64
56.29,14.69,5.08,14.69,5.08,-5.08,-5.00,-5.21,9.61,9.61,9.62
56.86,14.64,5.07,14.64,5.07,-5.06,-4.99,-5.21,9.58,9.58,9.58
57.42,14.59,5.07,14.59,5.06,-5.05,-4.98,-5.22,9.54,9.54,9.53
58.00,14.53,5.05,14.53,5.04,-5.04,-4.97,-5.23,9.49,9.49,9.49
58.58,14.47,5.02,14.47,5.02,-5.02,-4.96,-5.23,9.45,9.45,9.46
59.16,14.42,5.00,14.42,5.00,-5.01,-4.95,-5.23,9.41,9.41,9.43
59.76,14.37,5.00,14.37,4.99,-5.01,-4.94,-5.23,9.36,9.36,9.38
60.35,14.32,5.00,14.32,5.00,-5.00,-4.93,-5.23,9.32,9.32,9.33
60.96,14.27,5.01,14.27,5.00,-5.00,-4.92,-5.22,9.27,9.27,9.27
61.57,14.20,5.00,14.21,5.00,-5.00,-4.91,-5.22,9.21,9.21,9.21
62.18,14.15,5.01,14.15,5.00,-5.00,-4.91,-5.20,9.15,9.15,9.15
62.80,14.09,5.01,14.09,5.00,-5.00,-4.90,-5.19,9.09,9.09,9.09
63.43,14.03,5.00,14.03,4.99,-5.00,-4.89,-5.17,9.03,9.03,9.04
64.07,13.97,4.99,13.97,4.99,-5.00,-4.89,-5.15,8.97,8.98,8.99
64.71,13.92,4.99,13.93,4.99,-4.99,-4.88,-5.13,8.93,8.93,8.94
65.35,13.88,5.01,13.87,4.99,-4.99,-4.88,-5.11,8.89,8.89,8.88
66.01,13.82,5.00,13.82,4.99,-4.98,-4.87,-5.08,8.84,8.83,8.83
66.67,13.75,4.97,13.76,4.98,-4.98,-4.87,-5.05,8.77,8.78,8.79
67.33,13.69,4.98,13.69,4.97,-4.97,-4.86,-5.02,8.72,8.72,8.72
68.01,13.63,4.97,13.63,4.96,-4.97,-4.86,-4.98,8.66,8.66,8.67
68.69,13.57,4.96,13.57,4.96,-4.96,-4.85,-4.95,8.61,8.61,8.62
69.37,13.52,4.96,13.52,4.96,-4.96,-4.85,-4.91,8.56,8.56,8.57
70.07,13.46,4.96,13.46,4.95,-4.95,-4.85,-4.87,8.51,8.50,8.51
70.77,13.39,4.96,13.40,4.95,-4.95,-4.84,-4.83,8.44,8.44,8.44
71.48,13.33,4.95,13.33,4.95,-4.95,-4.84,-4.79,8.38,8.38,8.39
72.19,13.27,4.95,13.27,4.95,-4.95,-4.84,-4.75,8.32,8.32,8.33
72.91,13.21,4.96,13.21,4.95,-4.95,-4.84,-4.71,8.26,8.26,8.26
73.64,13.15,4.95,13.15,4.95,-4.95,-4.84,-4.68,8.20,8.20,8.21
74.38,13.09,4.95,13.09,4.95,-4.95,-4.84,-4.64,8.15,8.15,8.15
75.12,13.04,4.95,13.04,4.94,-4.94,-4.84,-4.60,8.10,8.09,8.10
75.87,12.98,4.94,12.98,4.94,-4.94,-4.83,-4.57,8.04,8.04,8.05
76.63,12.93,4.95,12.93,4.94,-4.94,-4.83,-4.53,7.99,7.99,7.99
77.40,12.88,4.94,12.88,4.94,-4.94,-4.83,-4.50,7.94,7.94,7.95
78.17,12.83,4.95,12.83,4.94,-4.93,-4.83,-4.47,7.90,7.89,7.89
78.95,12.77,4.93,12.77,4.93,-4.93,-4.84,-4.45,7.84,7.84,7.85
79.74,12.72,4.93,12.72,4.93,-4.93,-4.84,-4.42,7.79,7.79,7.80
80.54,12.67,4.93,12.67,4.92,-4.93,-4.84,-4.40,7.74,7.74,7.75
81.35,12.62,4.94,12.62,4.93,-4.92,-4.84,-4.38,7.70,7.70,7.69
82.16,12.57,4.92,12.57,4.92,-4.92,-4.84,-4.36,7.65,7.65,7.66
82.98,12.52,4.93,12.52,4.92,-4.92,-4.84,-4.35,7.60,7.60,7.60
83.81,12.46,4.92,12.46,4.92,-4.92,-4.84,-4.34,7.54,7.54,7.55
84.65,12.40,4.92,12.40,4.92,-4.92,-4.84,-4.33,7.48,7.49,7.49
85.50,12.34,4.92,12.34,4.91,-4.91,-4.85,-4.33,7.43,7.43,7.43
86.35,12.29,4.92,12.29,4.91,-4.91,-4.85,-4.32,7.38,7.38,7.38
87.22,12.23,4.91,12.23,4.91,-4.90,-4.85,-4.33,7.33,7.33,7.33
88.09,12.17,4.91,12.17,4.90,-4.90,-4.85,-4.33,7.27,7.27,7.27
88.97,12.10,4.90,12.10,4.89,-4.89,-4.86,-4.34,7.21,7.21,7.21
89.86,12.03,4.88,12.03,4.88,-4.89,-4.86,-4.35,7.14,7.14,7.16
90.76,11.97,4.88,11.98,4.88,-4.88,-4.86,-4.36,7.09,7.09,7.10
91.66,11.92,4.90,11.92,4.89,-4.88,-4.87,-4.38,7.04,7.04,7.03
92.58,11.87,4.90,11.86,4.89,-4.88,-4.87,-4.40,6.99,6.98,6.98
93.51,11.80,4.88,11.80,4.88,-4.88,-4.87,-4.43,6.92,6.92,6.93
94.44,11.74,4.88,11.74,4.88,-4.89,-4.88,-4.45,6.85,6.85,6.87
95.39,11.68,4.89,11.68,4.89,-4.90,-4.88,-4.48,6.78,6.79,6.80
96.34,11.63,4.91,11.63,4.90,-4.90,-4.88,-4.51,6.73,6.73,6.73
97.30,11.58,4.92,11.58,4.92,-4.91,-4.89,-4.55,6.67,6.67,6.67
98.28,11.52,4.93,11.52,4.92,-4.91,-4.89,-4.59,6.61,6.61,6.60
99.26,11.46,4.93,11.46,4.93,-4.92,-4.89,-4.63,6.54,6.54,6.54
100.25,11.40,4.93,11.40,4.92,-4.92,-4.90,-4.67,6.48,6.48,6.48
101.25,11.34,4.92,11.34,4.92,-4.92,-4.90,-4.71,6.42,6.42,6.43
102.27,11.28,4.92,11.28,4.92,-4.92,-4.90,-4.76,6.36,6.36,6.37
103.29,11.23,4.93,11.23,4.92,-4.92,-4.91,-4.80,6.31,6.31,6.31
104.32,11.17,4.92,11.17,4.92,-4.91,-4.91,-4.85,6.26,6.26,6.26
105.37,11.11,4.92,11.11,4.91,-4.91,-4.91,-4.90,6.20,6.20,6.20
106.42,11.05,4.91,11.05,4.91,-4.91,-4.91,-4.95,6.14,6.14,6.15
107.48,10.99,4.91,10.99,4.90,-4.91,-4.92,-5.00,6.08,6.09,6.09
108.56,10.94,4.91,10.94,4.90,-4.91,-4.92,-5.05,6.04,6.03,6.04
109.64,10.88,4.91,10.88,4.91,-4.91,-4.92,-5.09,5.97,5.98,5.98
110.74,10.83,4.92,10.83,4.91,-4.91,-4.93,-5.14,5.92,5.92,5.92
111.85,10.77,4.92,10.77,4.91,-4.91,-4.93,-5.18,5.86,5.85,5.86
112.97,10.71,4.91,10.71,4.91,-4.92,-4.93,-5.23,5.79,5.79,5.81
114.10,10.66,4.92,10.66,4.92,-4.93,-4.93,-5.27,5.73,5.73,5.75
115.24,10.61,4.95,10.61,4.94,-4.94,-4.94,-5.30,5.67,5.67,5.67
116.39,10.56,4.96,10.56,4.96,-4.95,-4.94,-5.34,5.61,5.61,5.61
117.55,10.51,4.97,10.51,4.97,-4.95,-4.94,-5.37,5.56,5.56,5.55
118.73,10.46,4.98,10.46,4.96,-4.96,-4.94,-5.39,5.51,5.50,5.49
119.92,10.40,4.96,10.40,4.96,-4.96,-4.94,-5.41,5.44,5.45,5.45
121.12,10.34,4.95,10.35,4.95,-4.95,-4.94,-5.43,5.39,5.39,5.40
122.33,10.29,4.96,10.29,4.95,-4.95,-4.94,-5.44,5.34,5.34,5.34
123.55,10.23,4.95,10.23,4.94,-4.95,-4.95,-5.45,5.28,5.28,5.29
124.79,10.17,4.94,10.17,4.94,-4.95,-4.95,-5.45,5.22,5.22,5.24
126.03,10.11,4.94,10.11,4.94,-4.95,-4.95,-5.45,5.17,5.17,5.18
127.29,10.06,4.94,10.06,4.94,-4.94,-4.95,-5.44,5.12,5.12,5.13
128.57,10.01,4.96,10.01,4.95,-4.94,-4.95,-5.42,5.07,5.07,5.06
129.85,9.96,4.96,9.96,4.95,-4.94,-4.95,-5.40,5.02,5.01,5.01
131.15,9.90,4.96,9.90,4.95,-4.94,-4.94,-5.38,4.96,4.96,4.95
132.46,9.83,4.94,9.83,4.94,-4.94,-4.94,-5.35,4.89,4.90,4.90
133.79,9.77,4.94,9.77,4.93,-4.94,-4.94,-5.32,4.83,4.83,4.84
135.12,9.71,4.93,9.71,4.92,-4.93,-4.94,-5.28,4.78,4.78,4.79
136.48,9.65,4.92,9.65,4.92,-4.92,-4.94,-5.24,4.73,4.73,4.74
137.84,9.60,4.92,9.60,4.91,-4.91,-4.94,-5.20,4.69,4.68,4.69
139.22,9.54,4.92,9.54,4.91,-4.91,-4.93,-5.15,4.63,4.63,4.63
140.61,9.48,4.90,9.48,4.90,-4.90,-4.93,-5.10,4.58,4.58,4.59
142.02,9.42,4.90,9.42,4.89,-4.89,-4.93,-5.05,4.53,4.53,4.53
143.44,9.36,4.88,9.36,4.88,-4.88,-4.92,-5.00,4.48,4.48,4.49
144.87,9.31,4.87,9.31,4.87,-4.87,-4.92,-4.95,4.44,4.44,4.45
146.32,9.25,4.86,9.25,4.85,-4.86,-4.92,-4.89,4.39,4.40,4.40
147.78,9.20,4.85,9.20,4.85,-4.85,-4.91,-4.84,4.35,4.35,4.36
149.26,9.14,4.84,9.14,4.84,-4.84,-4.91,-4.79,4.31,4.31,4.31
150.75,9.09,4.83,9.09,4.83,-4.82,-4.90,-4.74,4.27,4.27,4.27
152.26,9.04,4.82,9.04,4.81,-4.81,-4.89,-4.69,4.23,4.22,4.23
153.78,8.99,4.81,8.99,4.80,-4.80,-4.89,-4.64,4.19,4.18,4.19
155.32,8.93,4.79,8.93,4.79,-4.79,-4.88,-4.59,4.14,4.14,4.15
156.88,8.88,4.79,8.88,4.78,-4.78,-4.87,-4.54,4.10,4.10,4.10
158.44,8.82,4.78,8.82,4.77,-4.77,-4.87,-4.50,4.05,4.05,4.05
160.03,8.76,4.76,8.76,4.76,-4.75,-4.86,-4.45,4.01,4.01,4.01
161.63,8.70,4.74,8.70,4.74,-4.74,-4.85,-4.42,3.96,3.96,3.97
163.24,8.64,4.73,8.64,4.73,-4.73,-4.84,-4.38,3.91,3.92,3.92
164.88,8.58,4.72,8.58,4.71,-4.71,-4.83,-4.34,3.87,3.87,3.87
166.53,8.52,4.71,8.52,4.70,-4.70,-4.82,-4.31,3.82,3.82,3.82
168.19,8.45,4.67,8.46,4.68,-4.69,-4.81,-4.28,3.76,3.77,3.79
169.87,8.40,4.68,8.40,4.67,-4.67,-4.80,-4.26,3.73,3.73,3.73
171.57,8.35,4.68,8.35,4.66,-4.66,-4.79,-4.24,3.69,3.68,3.68
173.29,8.29,4.66,8.29,4.66,-4.65,-4.78,-4.22,3.64,3.64,3.64
175.02,8.22,4.64,8.23,4.64,-4.64,-4.77,-4.20,3.58,3.59,3.59
176.77,8.16,4.63,8.16,4.62,-4.62,-4.75,-4.19,3.54,3.54,3.54
178.54,8.10,4.61,8.10,4.61,-4.61,-4.74,-4.18,3.49,3.49,3.50
180.32,8.04,4.61,8.04,4.60,-4.60,-4.73,-4.17,3.44,3.44,3.44
182.13,7.99,4.59,7.99,4.59,-4.59,-4.71,-4.17,3.40,3.40,3.41
183.95,7.93,4.58,7.93,4.58,-4.58,-4.70,-4.17,3.35,3.35,3.36
185.79,7.88,4.58,7.88,4.57,-4.57,-4.68,-4.17,3.31,3.31,3.31
187.65,7.83,4.57,7.83,4.57,-4.56,-4.67,-4.18,3.27,3.27,3.27
189.52,7.78,4.56,7.78,4.55,-4.55,-4.65,-4.19,3.23,3.23,3.23
191.42,7.73,4.55,7.73,4.54,-4.54,-4.64,-4.20,3.19,3.18,3.19
193.33,7.67,4.53,7.67,4.53,-4.53,-4.62,-4.21,3.14,3.14,3.15
195.27,7.62,4.53,7.62,4.52,-4.52,-4.60,-4.23,3.10,3.10,3.10
197.22,7.56,4.52,7.57,4.51,-4.51,-4.58,-4.25,3.05,3.06,3.05
199.19,7.52,4.51,7.52,4.51,-4.50,-4.56,-4.27,3.02,3.02,3.02
201.18,7.47,4.50,7.47,4.49,-4.49,-4.55,-4.29,2.98,2.98,2.98
203.19,7.43,4.49,7.43,4.48,-4.49,-4.53,-4.32,2.94,2.94,2.95
205.23,7.39,4.47,7.39,4.47,-4.48,-4.51,-4.34,2.91,2.91,2.93
207.28,7.36,4.47,7.36,4.47,-4.48,-4.49,-4.37,2.88,2.88,2.90
209.35,7.34,4.49,7.34,4.48,-4.48,-4.46,-4.40,2.86,2.85,2.86
211.44,7.32,4.50,7.32,4.49,-4.49,-4.44,-4.43,2.83,2.83,2.83
213.56,7.30,4.50,7.30,4.50,-4.49,-4.42,-4.46,2.81,2.81,2.81
215.69,7.28,4.51,7.28,4.50,-4.50,-4.40,-4.48,2.79,2.78,2.78
217.85,7.25,4.51,7.25,4.51,-4.50,-4.38,-4.51,2.75,2.75,2.75
220.03,7.22,4.51,7.22,4.50,-4.50,-4.35,-4.54,2.72,2.72,2.72
222.23,7.19,4.51,7.19,4.50,-4.50,-4.33,-4.56,2.69,2.68,2.69
224.45,7.16,4.49,7.16,4.50,-4.50,-4.30,-4.59,2.66,2.66,2.68
226.70,7.14,4.50,7.14,4.49,-4.50,-4.28,-4.61,2.64,2.64,2.65
228.96,7.13,4.50,7.13,4.50,-4.50,-4.25,-4.63,2.63,2.63,2.64
231.25,7.11,4.50,7.11,4.50,-4.49,-4.23,-4.64,2.62,2.62,2.62
233.57,7.09,4.50,7.09,4.49,-4.48,-4.20,-4.65,2.61,2.61,2.60
235.90,7.05,4.47,7.05,4.47,-4.46,-4.17,-4.66,2.59,2.59,2.59
238.26,7.01,4.46,7.01,4.45,-4.44,-4.14,-4.66,2.57,2.57,2.56
240.64,6.97,4.41,6.97,4.42,-4.42,-4.11,-4.66,2.55,2.56,2.57
243.05,6.94,4.40,6.94,4.39,-4.39,-4.09,-4.65,2.55,2.55,2.55
245.48,6.90,4.37,6.90,4.36,-4.36,-4.06,-4.64,2.54,2.54,2.54
247.93,6.85,4.33,6.85,4.32,-4.32,-4.03,-4.63,2.53,2.53,2.53
250.41,6.81,4.28,6.81,4.28,-4.29,-3.99,-4.60,2.52,2.52,2.54
252.92,6.76,4.24,6.77,4.24,-4.25,-3.96,-4.57,2.51,2.52,2.53
255.45,6.73,4.22,6.73,4.21,-4.21,-3.93,-4.54,2.52,2.52,2.52
258.00,6.69,4.18,6.69,4.17,-4.16,-3.90,-4.50,2.53,2.52,2.52
260.58,6.64,4.13,6.64,4.13,-4.12,-3.87,-4.46,2.52,2.53,2.52
263.19,6.59,4.08,6.59,4.07,-4.07,-3.83,-4.41,2.52,2.52,2.52
265.82,6.52,4.02,6.52,4.02,-4.01,-3.80,-4.35,2.51,2.51,2.51
268.48,6.46,3.96,6.46,3.96,-3.96,-3.76,-4.29,2.50,2.50,2.51
271.16,6.40,3.90,6.40,3.89,-3.90,-3.73,-4.23,2.50,2.50,2.51
273.87,6.34,3.84,6.34,3.84,-3.85,-3.69,-4.16,2.49,2.50,2.51
276.61,6.29,3.79,6.29,3.79,-3.79,-3.66,-4.09,2.50,2.50,2.51
279.38,6.23,3.75,6.23,3.74,-3.73,-3.62,-4.02,2.50,2.50,2.49
282.17,6.17,3.69,6.17,3.68,-3.68,-3.58,-3.94,2.49,2.50,2.49
284.99,6.11,3.62,6.11,3.62,-3.62,-3.54,-3.86,2.49,2.49,2.50
287.84,6.06,3.56,6.06,3.56,-3.56,-3.50,-3.78,2.50,2.49,2.51
290.72,6.00,3.51,6.00,3.50,-3.50,-3.47,-3.70,2.50,2.50,2.50
293.63,5.95,3.45,5.95,3.45,-3.44,-3.43,-3.61,2.51,2.51,2.51
296.57,5.90,3.39,5.90,3.38,-3.38,-3.38,-3.53,2.52,2.52,2.52
299.53,5.84,3.33,5.84,3.32,-3.32,-3.34,-3.44,2.52,2.52,2.52
302.53,5.79,3.26,5.79,3.26,-3.26,-3.30,-3.36,2.53,2.53,2.54
305.55,5.73,3.21,5.73,3.20,-3.20,-3.26,-3.27,2.53,2.53,2.53
308.61,5.67,3.14,5.67,3.14,-3.14,-3.22,-3.18,2.53,2.53,2.54
311.69,5.62,3.08,5.62,3.08,-3.09,-3.17,-3.10,2.53,2.54,2.55
314.81,5.58,3.04,5.58,3.03,-3.03,-3.13,-3.01,2.55,2.55,2.55
317.96,5.54,2.99,5.54,2.98,-2.97,-3.08,-2.93,2.57,2.56,2.56
321.14,5.49,2.93,5.49,2.92,-2.92,-3.04,-2.85,2.57,2.57,2.57
324.35,5.43,2.87,5.43,2.86,-2.87,-2.99,-2.77,2.57,2.57,2.57
327.59,5.38,2.79,5.38,2.80,-2.81,-2.94,-2.69,2.57,2.57,2.60
330.87,5.34,2.76,5.34,2.75,-2.76,-2.89,-2.61,2.58,2.58,2.59
334.18,5.30,2.71,5.30,2.70,-2.70,-2.84,-2.53,2.60,2.60,2.60
337.52,5.26,2.67,5.26,2.66,-2.65,-2.79,-2.45,2.62,2.61,2.60
340.90,5.21,2.60,5.21,2.60,-2.59,-2.74,-2.38,2.62,2.62,2.62
344.30,5.16,2.54,5.16,2.54,-2.53,-2.69,-2.31,2.63,2.62,2.63
347.75,5.10,2.48,5.10,2.47,-2.48,-2.64,-2.24,2.62,2.62,2.63
351.23,5.05,2.43,5.05,2.41,-2.43,-2.59,-2.17,2.63,2.62,2.63
354.74,5.00,2.35,5.00,2.36,-2.37,-2.54,-2.10,2.63,2.63,2.66
358.28,4.96,2.32,4.96,2.31,-2.31,-2.48,-2.03,2.65,2.65,2.65
361.87,4.93,2.28,4.92,2.26,-2.26,-2.43,-1.97,2.67,2.66,2.66
365.49,4.88,2.22,4.88,2.22,-2.21,-2.37,-1.90,2.67,2.68,2.67
369.14,4.84,2.16,4.84,2.16,-2.16,-2.32,-1.84,2.68,2.68,2.69
372.83,4.79,2.11,4.79,2.11,-2.11,-2.26,-1.78,2.68,2.68,2.69
376.56,4.74,2.06,4.74,2.05,-2.05,-2.20,-1.72,2.69,2.69,2.69
380.33,4.70,2.01,4.70,2.00,-2.00,-2.14,-1.67,2.70,2.70,2.70
384.13,4.66,1.95,4.66,1.95,-1.95,-2.08,-1.61,2.71,2.70,2.72
387.97,4.62,1.91,4.62,1.90,-1.90,-2.03,-1.56,2.72,2.72,2.72
391.85,4.58,1.86,4.58,1.86,-1.86,-1.97,-1.51,2.72,2.73,2.73
395.77,4.55,1.82,4.55,1.81,-1.81,-1.91,-1.45,2.74,2.74,2.74
399.73,4.52,1.78,4.52,1.77,-1.77,-1.85,-1.40,2.75,2.75,2.75
403.72,4.48,1.71,4.48,1.72,-1.72,-1.79,-1.35,2.76,2.76,2.78
407.76,4.45,1.69,4.45,1.68,-1.68,-1.72,-1.31,2.77,2.77,2.77
411.84,4.42,1.65,4.42,1.64,-1.63,-1.66,-1.26,2.79,2.78,2.78
415.96,4.38,1.59,4.38,1.60,-1.59,-1.60,-1.21,2.79,2.79,2.80
420.12,4.34,1.55,4.34,1.54,-1.54,-1.54,-1.17,2.80,2.80,2.80
424.32,4.30,1.50,4.30,1.49,-1.49,-1.48,-1.12,2.81,2.81,2.81
428.56,4.26,1.44,4.26,1.44,-1.44,-1.42,-1.08,2.82,2.82,2.83
432.85,4.22,1.39,4.22,1.39,-1.40,-1.36,-1.03,2.82,2.82,2.84
437.18,4.18,1.36,4.18,1.34,-1.35,-1.30,-0.99,2.83,2.83,2.83
441.55,4.13,1.30,4.13,1.30,-1.30,-1.24,-0.95,2.84,2.84,2.84
445.96,4.09,1.25,4.09,1.25,-1.24,-1.18,-0.91,2.85,2.85,2.85
450.42,4.05,1.20,4.05,1.19,-1.19,-1.12,-0.87,2.86,2.86,2.86
454.93,4.01,1.15,4.01,1.14,-1.14,-1.07,-0.83,2.87,2.87,2.87
459.48,3.96,1.09,3.97,1.09,-1.08,-1.01,-0.79,2.88,2.88,2.88
464.07,3.92,1.03,3.92,1.03,-1.03,-0.95,-0.74,2.89,2.89,2.90
468.71,3.88,0.98,3.88,0.97,-0.98,-0.90,-0.70,2.90,2.90,2.91
473.40,3.83,0.93,3.83,0.92,-0.93,-0.84,-0.66,2.90,2.90,2.91
478.13,3.79,0.88,3.79,0.87,-0.88,-0.79,-0.62,2.91,2.91,2.92
482.91,3.75,0.83,3.75,0.83,-0.83,-0.74,-0.58,2.92,2.92,2.93
487.74,3.72,0.79,3.72,0.79,-0.78,-0.69,-0.54,2.94,2.94,2.94
