frequency,raw,error,smoothed,error_smoothed,equalization,parametric_eq,fixed_band_eq,equalized_raw,equalized_smoothed,target
20.00,-0.33,-6.63,-0.33,-6.63,6.63,5.95,2.79,6.30,6.30,6.30
20.20,-0.31,-6.60,-0.31,-6.60,6.60,6.02,2.87,6.29,6.29,6.29
20.40,-0.29,-6.57,-0.29,-6.57,6.57,6.08,2.95,6.28,6.28,6.28
20.61,-0.27,-6.55,-0.28,-6.55,6.55,6.15,3.04,6.28,6.27,6.28
20.81,-0.25,-6.51,-0.26,-6.52,6.52,6.21,3.13,6.28,6.26,6.26
21.02,-0.23,-6.49,-0.25,-6.50,6.50,6.27,3.22,6.27,6.26,6.26
21.23,-0.23,-6.48,-0.23,-6.48,6.48,6.33,3.32,6.25,6.25,6.25
21.44,-0.23,-6.49,-0.22,-6.46,6.46,6.39,3.41,6.23,6.24,6.26
21.66,-0.22,-6.47,-0.21,-6.44,6.44,6.45,3.51,6.22,6.23,6.25
21.87,-0.22,-6.46,-0.19,-6.42,6.42,6.51,3.62,6.20,6.23,6.24
22.09,-0.21,-6.44,-0.18,-6.41,6.41,6.57,3.72,6.20,6.22,6.23
22.31,-0.19,-6.42,-0.17,-6.39,6.39,6.62,3.83,6.20,6.22,6.23
22.54,-0.17,-6.39,-0.16,-6.38,6.38,6.68,3.94,6.21,6.21,6.22
22.76,-0.14,-6.35,-0.15,-6.36,6.36,6.73,4.06,6.22,6.21,6.21
22.99,-0.12,-6.32,-0.15,-6.35,6.35,6.78,4.18,6.23,6.21,6.20
23.22,-0.12,-6.31,-0.14,-6.34,6.34,6.83,4.30,6.22,6.20,6.19
23.45,-0.12,-6.32,-0.13,-6.33,6.33,6.88,4.42,6.21,6.20,6.20
23.69,-0.12,-6.31,-0.12,-6.32,6.32,6.93,4.55,6.20,6.20,6.19
23.92,-0.12,-6.31,-0.12,-6.31,6.31,6.97,4.68,6.19,6.19,6.19
24.16,-0.12,-6.32,-0.12,-6.31,6.31,7.02,4.81,6.19,6.19,6.20
24.40,-0.12,-6.33,-0.11,-6.31,6.31,7.06,4.94,6.19,6.20,6.21
24.65,-0.12,-6.33,-0.11,-6.31,6.31,7.10,5.08,6.19,6.20,6.21
24.89,-0.12,-6.33,-0.11,-6.31,6.31,7.14,5.22,6.19,6.20,6.21
25.14,-0.12,-6.32,-0.12,-6.32,6.32,7.18,5.36,6.20,6.20,6.20
25.39,-0.12,-6.32,-0.12,-6.32,6.32,7.21,5.50,6.20,6.20,6.20
25.65,-0.12,-6.32,-0.12,-6.33,6.33,7.24,5.64,6.21,6.21,6.20
25.91,-0.12,-6.33,-0.12,-6.33,6.33,7.28,5.78,6.21,6.21,6.21
26.16,-0.12,-6.34,-0.12,-6.33,6.33,7.31,5.93,6.21,6.21,6.22
26.43,-0.12,-6.34,-0.12,-6.33,6.33,7.33,6.07,6.21,6.21,6.22
26.69,-0.12,-6.34,-0.12,-6.33,6.33,7.36,6.21,6.21,6.21,6.22
26.96,-0.12,-6.33,-0.12,-6.33,6.33,7.38,6.36,6.21,6.21,6.21
27.23,-0.12,-6.33,-0.12,-6.33,6.33,7.41,6.49,6.21,6.21,6.21
27.50,-0.12,-6.33,-0.12,-6.33,6.33,7.43,6.63,6.21,6.21,6.21
27.77,-0.12,-6.34,-0.12,-6.33,6.33,7.44,6.76,6.21,6.21,6.22
28.05,-0.12,-6.34,-0.12,-6.33,6.33,7.46,6.89,6.21,6.21,6.22
28.33,-0.12,-6.32,-0.12,-6.33,6.33,7.47,7.02,6.21,6.21,6.20
28.62,-0.12,-6.32,-0.12,-6.33,6.33,7.49,7.13,6.21,6.21,6.20
28.90,-0.12,-6.33,-0.12,-6.32,6.32,7.50,7.24,6.21,6.21,6.21
29.19,-0.12,-6.33,-0.12,-6.32,6.32,7.51,7.34,6.20,6.20,6.21
29.48,-0.12,-6.32,-0.12,-6.32,6.32,7.51,7.43,6.20,6.20,6.20
29.78,-0.12,-6.32,-0.12,-6.32,6.32,7.52,7.52,6.20,6.20,6.20
30.08,-0.12,-6.33,-0.12,-6.31,6.31,7.52,7.59,6.20,6.19,6.21
30.38,-0.12,-6.32,-0.12,-6.31,6.31,7.53,7.65,6.19,6.19,6.20
30.68,-0.12,-6.30,-0.12,-6.30,6.30,7.53,7.70,6.19,6.18,6.18
30.99,-0.12,-6.30,-0.12,-6.30,6.30,7.53,7.73,6.18,6.17,6.18
31.30,-0.12,-6.29,-0.12,-6.29,6.29,7.52,7.76,6.17,6.17,6.17
31.61,-0.12,-6.28,-0.11,-6.27,6.27,7.52,7.77,6.16,6.16,6.16
31.93,-0.12,-6.27,-0.11,-6.26,6.26,7.51,7.77,6.14,6.15,6.15
32.24,-0.12,-6.27,-0.10,-6.25,6.25,7.51,7.75,6.13,6.15,6.15
32.57,-0.11,-6.24,-0.09,-6.23,6.23,7.50,7.73,6.12,6.14,6.13
32.89,-0.10,-6.23,-0.08,-6.22,6.22,7.49,7.69,6.12,6.13,6.13
33.22,-0.08,-6.21,-0.07,-6.20,6.20,7.48,7.64,6.12,6.13,6.13
33.55,-0.06,-6.18,-0.06,-6.19,6.19,7.47,7.59,6.13,6.12,6.12
33.89,-0.03,-6.16,-0.05,-6.17,6.17,7.46,7.52,6.14,6.12,6.13
34.23,-0.02,-6.13,-0.04,-6.16,6.16,7.44,7.44,6.14,6.11,6.11
34.57,-0.02,-6.13,-0.04,-6.14,6.14,7.43,7.36,6.13,6.11,6.11
34.92,-0.02,-6.12,-0.03,-6.13,6.13,7.42,7.27,6.11,6.10,6.10
35.27,-0.02,-6.13,-0.02,-6.12,6.12,7.40,7.18,6.10,6.10,6.11
35.62,-0.02,-6.11,-0.02,-6.11,6.11,7.38,7.08,6.09,6.09,6.09
35.97,-0.02,-6.11,-0.01,-6.09,6.09,7.37,6.98,6.07,6.08,6.09
36.33,-0.02,-6.09,-0.01,-6.08,6.08,7.35,6.88,6.06,6.06,6.07
36.70,-0.02,-6.08,-0.01,-6.06,6.06,7.33,6.77,6.04,6.05,6.06
37.06,-0.02,-6.06,-0.02,-6.05,6.05,7.31,6.66,6.03,6.03,6.04
37.43,-0.02,-6.04,-0.02,-6.03,6.03,7.29,6.56,6.01,6.01,6.02
37.81,-0.02,-6.02,-0.03,-6.02,6.02,7.27,6.45,6.00,5.99,6.00
38.19,-0.02,-5.99,-0.03,-5.99,5.99,7.25,6.34,5.97,5.97,5.97
38.57,-0.02,-5.97,-0.02,-5.97,5.97,7.22,6.24,5.95,5.94,5.95
38.95,-0.02,-5.94,-0.02,-5.94,5.94,7.20,6.14,5.92,5.92,5.92
39.34,-0.02,-5.90,-0.01,-5.90,5.90,7.18,6.04,5.88,5.89,5.88
39.74,-0.02,-5.88,-0.01,-5.87,5.87,7.15,5.94,5.85,5.86,5.86
40.14,-0.02,-5.85,0.00,-5.84,5.84,7.13,5.84,5.82,5.84,5.83
40.54,-0.02,-5.83,0.01,-5.80,5.80,7.10,5.75,5.78,5.81,5.81
40.94,-0.02,-5.80,0.02,-5.76,5.76,7.08,5.66,5.74,5.78,5.78
41.35,0.02,-5.74,0.03,-5.73,5.73,7.05,5.57,5.75,5.75,5.76
41.76,0.06,-5.66,0.04,-5.69,5.69,7.03,5.49,5.75,5.73,5.72
42.18,0.08,-5.62,0.05,-5.65,5.65,7.00,5.41,5.73,5.70,5.70
42.60,0.08,-5.60,0.06,-5.62,5.62,6.97,5.33,5.70,5.67,5.68
43.03,0.08,-5.57,0.06,-5.58,5.58,6.94,5.26,5.66,5.65,5.65
43.46,0.08,-5.54,0.07,-5.55,5.55,6.91,5.20,5.63,5.62,5.62
43.90,0.08,-5.52,0.08,-5.51,5.51,6.88,5.13,5.59,5.59,5.60
44.33,0.08,-5.48,0.08,-5.48,5.48,6.85,5.07,5.56,5.56,5.56
44.78,0.08,-5.45,0.09,-5.45,5.45,6.82,5.02,5.53,5.53,5.53
45.23,0.08,-5.44,0.09,-5.41,5.41,6.79,4.96,5.49,5.50,5.52
45.68,0.08,-5.39,0.09,-5.38,5.38,6.75,4.92,5.46,5.47,5.47
46.13,0.08,-5.35,0.08,-5.34,5.34,6.72,4.87,5.43,5.43,5.43
46.60,0.08,-5.32,0.08,-5.31,5.31,6.69,4.83,5.39,5.39,5.40
47.06,0.08,-5.28,0.08,-5.27,5.27,6.65,4.79,5.35,5.35,5.36
47.53,0.08,-5.25,0.08,-5.23,5.23,6.61,4.76,5.31,5.31,5.33
48.01,0.08,-5.19,0.08,-5.18,5.18,6.58,4.73,5.27,5.27,5.27
48.49,0.08,-5.14,0.08,-5.14,5.14,6.54,4.70,5.22,5.22,5.22
48.97,0.08,-5.10,0.08,-5.10,5.10,6.50,4.68,5.18,5.18,5.18
49.46,0.08,-5.06,0.08,-5.05,5.05,6.46,4.66,5.13,5.13,5.14
49.96,0.08,-4.99,0.08,-5.01,5.01,6.41,4.64,5.09,5.09,5.07
50.46,0.08,-4.95,0.08,-4.96,4.96,6.37,4.62,5.04,5.04,5.03
50.96,0.08,-4.91,0.08,-4.91,4.91,6.33,4.61,4.99,4.99,4.99
51.47,0.08,-4.87,0.08,-4.87,4.87,6.28,4.60,4.95,4.95,4.95
51.99,0.08,-4.82,0.08,-4.82,4.82,6.23,4.59,4.90,4.90,4.90
52.51,0.08,-4.78,0.08,-4.77,4.77,6.18,4.58,4.85,4.85,4.86
53.03,0.08,-4.75,0.08,-4.72,4.72,6.13,4.57,4.81,4.81,4.83
53.56,0.08,-4.69,0.08,-4.68,4.68,6.08,4.56,4.76,4.76,4.77
54.10,0.08,-4.64,0.08,-4.64,4.64,6.03,4.56,4.72,4.72,4.72
54.64,0.08,-4.60,0.08,-4.59,4.59,5.98,4.55,4.67,4.67,4.68
55.18,0.08,-4.54,0.08,-4.55,4.55,5.92,4.54,4.63,4.63,4.62
55.74,0.08,-4.49,0.08,-4.51,4.51,5.86,4.53,4.59,4.59,4.57
56.29,0.08,-4.46,0.08,-4.47,4.47,5.81,4.53,4.55,4.55,4.54
56.86,0.08,-4.42,0.08,-4.42,4.42,5.75,4.52,4.50,4.50,4.50
57.42,0.08,-4.36,0.08,-4.38,4.38,5.68,4.50,4.46,4.46,4.44
58.00,0.08,-4.33,0.08,-4.33,4.33,5.62,4.49,4.41,4.41,4.41
58.58,0.08,-4.30,0.08,-4.28,4.28,5.56,4.47,4.36,4.36,4.38
59.16,0.08,-4.26,0.08,-4.23,4.23,5.49,4.45,4.31,4.31,4.34
59.76,0.08,-4.22,0.08,-4.18,4.18,5.43,4.43,4.26,4.26,4.30
60.35,0.08,-4.15,0.08,-4.13,4.13,5.36,4.40,4.21,4.21,4.23
60.96,0.08,-4.10,0.08,-4.08,4.08,5.29,4.37,4.16,4.16,4.18
61.57,0.08,-4.03,0.08,-4.03,4.03,5.22,4.34,4.11,4.11,4.11
62.18,0.08,-3.96,0.08,-3.97,3.97,5.15,4.30,4.05,4.05,4.04
62.80,0.08,-3.90,0.08,-3.91,3.91,5.07,4.26,3.99,3.99,3.98
63.43,0.08,-3.84,0.08,-3.85,3.85,5.00,4.21,3.93,3.93,3.92
64.07,0.08,-3.79,0.08,-3.79,3.79,4.93,4.16,3.87,3.87,3.87
64.71,0.08,-3.73,0.08,-3.73,3.73,4.85,4.10,3.81,3.81,3.81
65.35,0.08,-3.67,0.08,-3.67,3.67,4.77,4.05,3.75,3.75,3.75
66.01,0.08,-3.61,0.08,-3.61,3.61,4.69,3.98,3.69,3.69,3.69
66.67,0.08,-3.57,0.08,-3.55,3.55,4.62,3.92,3.63,3.63,3.65
67.33,0.08,-3.49,0.08,-3.49,3.49,4.54,3.85,3.57,3.57,3.57
68.01,0.08,-3.44,0.08,-3.43,3.43,4.45,3.77,3.51,3.51,3.52
68.69,0.08,-3.37,0.08,-3.37,3.37,4.37,3.70,3.45,3.45,3.45
69.37,0.08,-3.32,0.08,-3.31,3.31,4.29,3.62,3.39,3.39,3.40
70.07,0.08,-3.25,0.08,-3.24,3.24,4.21,3.54,3.32,3.32,3.33
70.77,0.08,-3.19,0.08,-3.18,3.18,4.13,3.45,3.26,3.26,3.27
71.48,0.08,-3.12,0.08,-3.11,3.11,4.04,3.37,3.19,3.19,3.20
72.19,0.08,-3.05,0.08,-3.05,3.05,3.96,3.28,3.13,3.13,3.13
72.91,0.08,-2.99,0.08,-2.99,2.99,3.88,3.19,3.07,3.07,3.07
73.64,0.08,-2.92,0.08,-2.92,2.92,3.79,3.11,3.00,3.00,3.00
74.38,0.08,-2.86,0.08,-2.86,2.86,3.71,3.02,2.94,2.94,2.94
75.12,0.08,-2.79,0.08,-2.80,2.80,3.62,2.93,2.88,2.88,2.87
75.87,0.08,-2.75,0.08,-2.74,2.74,3.54,2.84,2.82,2.82,2.83
76.63,0.08,-2.68,0.08,-2.69,2.69,3.45,2.75,2.77,2.77,2.76
77.40,0.08,-2.63,0.08,-2.63,2.63,3.37,2.66,2.71,2.71,2.71
78.17,0.08,-2.57,0.08,-2.57,2.57,3.28,2.57,2.65,2.65,2.65
78.95,0.08,-2.53,0.08,-2.52,2.52,3.20,2.48,2.60,2.60,2.61
79.74,0.08,-2.47,0.08,-2.46,2.46,3.12,2.39,2.54,2.54,2.55
80.54,0.08,-2.41,0.08,-2.41,2.41,3.03,2.31,2.49,2.49,2.49
81.35,0.08,-2.36,0.08,-2.35,2.35,2.95,2.22,2.43,2.43,2.44
82.16,0.08,-2.31,0.08,-2.30,2.30,2.86,2.13,2.38,2.38,2.39
82.98,0.08,-2.25,0.08,-2.24,2.24,2.78,2.05,2.32,2.32,2.33
83.81,0.08,-2.19,0.08,-2.18,2.18,2.70,1.97,2.26,2.26,2.27
84.65,0.08,-2.13,0.08,-2.12,2.12,2.62,1.88,2.20,2.20,2.21
85.50,0.08,-2.06,0.08,-2.07,2.07,2.53,1.80,2.15,2.15,2.14
86.35,0.08,-2.00,0.08,-2.01,2.01,2.45,1.72,2.09,2.09,2.08
87.22,0.08,-1.95,0.08,-1.94,1.94,2.37,1.64,2.02,2.02,2.03
88.09,0.08,-1.88,0.08,-1.88,1.88,2.29,1.57,1.96,1.96,1.96
88.97,0.08,-1.83,0.08,-1.82,1.82,2.21,1.49,1.90,1.90,1.91
89.86,0.08,-1.75,0.08,-1.75,1.75,2.13,1.42,1.83,1.84,1.83
90.76,0.08,-1.69,0.08,-1.68,1.68,2.06,1.34,1.76,1.77,1.77
91.66,0.08,-1.62,0.08,-1.61,1.61,1.98,1.27,1.70,1.70,1.70
92.58,0.08,-1.56,0.08,-1.55,1.55,1.90,1.20,1.63,1.63,1.64
93.51,0.08,-1.49,0.08,-1.47,1.47,1.82,1.13,1.56,1.56,1.57
94.44,0.08,-1.42,0.08,-1.40,1.40,1.75,1.06,1.48,1.48,1.50
95.39,0.08,-1.34,0.08,-1.33,1.33,1.67,0.99,1.41,1.41,1.42
96.34,0.08,-1.26,0.07,-1.26,1.26,1.60,0.92,1.34,1.33,1.34
97.30,0.07,-1.19,0.06,-1.19,1.19,1.53,0.85,1.26,1.25,1.26
98.28,0.06,-1.11,0.06,-1.12,1.12,1.45,0.79,1.18,1.17,1.17
99.26,0.05,-1.03,0.05,-1.05,1.05,1.38,0.72,1.10,1.09,1.08
100.25,0.03,-0.97,0.03,-0.98,0.98,1.31,0.66,1.01,1.01,1.00
101.25,0.01,-0.92,0.02,-0.91,0.91,1.24,0.59,0.92,0.93,0.93
102.27,0.00,-0.84,-0.00,-0.84,0.84,1.17,0.53,0.84,0.84,0.84
103.29,-0.01,-0.77,-0.02,-0.78,0.78,1.10,0.47,0.77,0.76,0.76
104.32,-0.03,-0.72,-0.04,-0.72,0.72,1.04,0.41,0.69,0.68,0.69
105.37,-0.05,-0.66,-0.06,-0.66,0.66,0.97,0.35,0.61,0.60,0.61
106.42,-0.08,-0.60,-0.08,-0.60,0.60,0.90,0.29,0.52,0.52,0.52
107.48,-0.10,-0.53,-0.10,-0.54,0.54,0.84,0.24,0.44,0.44,0.43
108.56,-0.13,-0.50,-0.12,-0.48,0.48,0.78,0.18,0.35,0.36,0.37
109.64,-0.15,-0.43,-0.14,-0.42,0.42,0.71,0.12,0.27,0.28,0.28
110.74,-0.17,-0.37,-0.16,-0.36,0.36,0.65,0.07,0.19,0.20,0.20
111.85,-0.18,-0.31,-0.17,-0.29,0.29,0.59,0.02,0.11,0.13,0.13
112.97,-0.19,-0.25,-0.17,-0.22,0.22,0.53,-0.03,0.04,0.05,0.06
114.10,-0.20,-0.19,-0.18,-0.16,0.16,0.47,-0.09,-0.04,-0.02,-0.01
115.24,-0.20,-0.11,-0.19,-0.09,0.09,0.41,-0.14,-0.11,-0.09,-0.09
116.39,-0.20,-0.03,-0.19,-0.03,0.03,0.35,-0.18,-0.17,-0.16,-0.17
117.55,-0.20,0.03,-0.20,0.03,-0.03,0.29,-0.23,-0.23,-0.23,-0.23
118.73,-0.19,0.12,-0.20,0.10,-0.10,0.24,-0.28,-0.29,-0.30,-0.31
119.92,-0.18,0.19,-0.20,0.16,-0.16,0.18,-0.32,-0.34,-0.36,-0.37
121.12,-0.18,0.24,-0.20,0.23,-0.23,0.13,-0.37,-0.40,-0.43,-0.42
122.33,-0.17,0.32,-0.20,0.29,-0.29,0.07,-0.41,-0.46,-0.49,-0.49
123.55,-0.16,0.38,-0.21,0.35,-0.35,0.02,-0.45,-0.51,-0.55,-0.54
124.79,-0.21,0.39,-0.21,0.41,-0.41,-0.03,-0.49,-0.62,-0.62,-0.60
126.03,-0.25,0.42,-0.21,0.47,-0.47,-0.08,-0.53,-0.72,-0.68,-0.67
127.29,-0.24,0.49,-0.21,0.53,-0.53,-0.13,-0.57,-0.77,-0.74,-0.73
128.57,-0.23,0.56,-0.21,0.58,-0.58,-0.18,-0.61,-0.81,-0.80,-0.79
129.85,-0.23,0.63,-0.21,0.64,-0.64,-0.23,-0.65,-0.87,-0.86,-0.86
131.15,-0.22,0.70,-0.22,0.70,-0.70,-0.28,-0.68,-0.92,-0.92,-0.92
132.46,-0.22,0.76,-0.22,0.76,-0.76,-0.33,-0.72,-0.98,-0.98,-0.98
133.79,-0.21,0.83,-0.22,0.82,-0.82,-0.37,-0.75,-1.03,-1.04,-1.04
135.12,-0.21,0.89,-0.22,0.88,-0.88,-0.42,-0.79,-1.09,-1.10,-1.10
136.48,-0.21,0.93,-0.21,0.94,-0.94,-0.46,-0.82,-1.15,-1.16,-1.14
137.84,-0.20,1.00,-0.21,1.00,-1.00,-0.51,-0.85,-1.20,-1.21,-1.20
139.22,-0.20,1.08,-0.20,1.07,-1.07,-0.55,-0.89,-1.27,-1.27,-1.28
140.61,-0.20,1.12,-0.20,1.13,-1.13,-0.60,-0.92,-1.33,-1.33,-1.32
142.02,-0.20,1.18,-0.20,1.19,-1.19,-0.64,-0.95,-1.39,-1.39,-1.38
143.44,-0.20,1.25,-0.19,1.25,-1.25,-0.68,-0.98,-1.45,-1.44,-1.45
144.87,-0.20,1.30,-0.19,1.31,-1.31,-0.72,-1.02,-1.51,-1.50,-1.50
146.32,-0.20,1.35,-0.19,1.36,-1.36,-0.76,-1.05,-1.56,-1.55,-1.55
147.78,-0.20,1.41,-0.19,1.42,-1.42,-0.80,-1.08,-1.62,-1.61,-1.61
149.26,-0.20,1.46,-0.20,1.47,-1.47,-0.84,-1.12,-1.67,-1.67,-1.66
150.75,-0.20,1.53,-0.20,1.52,-1.52,-0.88,-1.15,-1.72,-1.72,-1.73
152.26,-0.20,1.57,-0.21,1.57,-1.57,-0.91,-1.19,-1.77,-1.78,-1.77
153.78,-0.20,1.63,-0.21,1.62,-1.62,-0.95,-1.22,-1.82,-1.84,-1.83
155.32,-0.20,1.68,-0.22,1.67,-1.67,-0.99,-1.26,-1.87,-1.89,-1.88
156.88,-0.20,1.74,-0.23,1.72,-1.72,-1.02,-1.30,-1.92,-1.95,-1.94
158.44,-0.21,1.79,-0.24,1.76,-1.76,-1.06,-1.34,-1.97,-2.01,-2.00
160.03,-0.28,1.78,-0.26,1.81,-1.81,-1.09,-1.38,-2.09,-2.07,-2.06
161.63,-0.30,1.82,-0.26,1.86,-1.86,-1.12,-1.42,-2.16,-2.13,-2.12
163.24,-0.30,1.89,-0.27,1.91,-1.91,-1.16,-1.46,-2.21,-2.19,-2.19
164.88,-0.31,1.93,-0.29,1.96,-1.96,-1.19,-1.50,-2.27,-2.25,-2.24
166.53,-0.31,2.00,-0.30,2.01,-2.01,-1.22,-1.55,-2.32,-2.31,-2.31
168.19,-0.32,2.04,-0.31,2.05,-2.05,-1.25,-1.59,-2.37,-2.37,-2.36
169.87,-0.32,2.10,-0.33,2.10,-2.10,-1.28,-1.64,-2.42,-2.43,-2.42
171.57,-0.33,2.16,-0.34,2.14,-2.14,-1.31,-1.69,-2.47,-2.49,-2.49
173.29,-0.34,2.21,-0.36,2.19,-2.19,-1.34,-1.74,-2.53,-2.55,-2.55
175.02,-0.34,2.26,-0.37,2.23,-2.23,-1.37,-1.79,-2.57,-2.60,-2.60
176.77,-0.35,2.30,-0.38,2.28,-2.28,-1.40,-1.84,-2.63,-2.66,-2.65
178.54,-0.35,2.36,-0.38,2.33,-2.33,-1.43,-1.90,-2.68,-2.71,-2.71
180.32,-0.41,2.36,-0.39,2.38,-2.38,-1.45,-1.95,-2.78,-2.76,-2.77
182.13,-0.44,2.37,-0.39,2.43,-2.43,-1.48,-2.01,-2.86,-2.81,-2.81
183.95,-0.43,2.43,-0.38,2.48,-2.48,-1.51,-2.07,-2.91,-2.86,-2.86
185.79,-0.42,2.49,-0.38,2.53,-2.53,-1.53,-2.13,-2.95,-2.91,-2.91
187.65,-0.40,2.55,-0.38,2.58,-2.58,-1.56,-2.19,-2.98,-2.96,-2.95
189.52,-0.39,2.61,-0.38,2.62,-2.62,-1.58,-2.26,-3.01,-3.00,-3.00
191.42,-0.38,2.65,-0.38,2.67,-2.67,-1.61,-2.32,-3.05,-3.05,-3.03
193.33,-0.36,2.72,-0.37,2.71,-2.71,-1.63,-2.39,-3.07,-3.09,-3.08
195.27,-0.34,2.79,-0.37,2.76,-2.76,-1.65,-2.45,-3.10,-3.13,-3.13
197.22,-0.33,2.85,-0.37,2.80,-2.80,-1.68,-2.52,-3.13,-3.17,-3.18
199.19,-0.32,2.89,-0.37,2.85,-2.85,-1.70,-2.59,-3.17,-3.21,-3.21
201.18,-0.32,2.94,-0.37,2.89,-2.89,-1.72,-2.66,-3.21,-3.25,-3.26
203.19,-0.37,2.92,-0.36,2.93,-2.93,-1.74,-2.73,-3.30,-3.30,-3.29
205.23,-0.41,2.92,-0.37,2.97,-2.97,-1.77,-2.80,-3.38,-3.34,-3.33
207.28,-0.41,2.95,-0.37,3.00,-3.00,-1.79,-2.87,-3.41,-3.38,-3.36
209.35,-0.41,2.99,-0.38,3.03,-3.03,-1.81,-2.94,-3.44,-3.41,-3.40
211.44,-0.41,3.04,-0.39,3.06,-3.06,-1.83,-3.01,-3.47,-3.45,-3.45
213.56,-0.41,3.07,-0.40,3.09,-3.09,-1.85,-3.08,-3.50,-3.49,-3.48
215.69,-0.42,3.10,-0.42,3.11,-3.11,-1.87,-3.14,-3.53,-3.52,-3.52
217.85,-0.42,3.13,-0.43,3.12,-3.12,-1.88,-3.21,-3.54,-3.56,-3.55
220.03,-0.42,3.18,-0.45,3.14,-3.14,-1.90,-3.27,-3.56,-3.59,-3.60
222.23,-0.43,3.19,-0.47,3.15,-3.15,-1.92,-3.34,-3.58,-3.62,-3.62
224.45,-0.43,3.22,-0.48,3.17,-3.17,-1.94,-3.40,-3.60,-3.65,-3.65
226.70,-0.49,3.19,-0.49,3.18,-3.18,-1.96,-3.45,-3.67,-3.67,-3.68
228.96,-0.52,3.18,-0.50,3.19,-3.19,-1.97,-3.51,-3.71,-3.70,-3.70
231.25,-0.52,3.19,-0.51,3.20,-3.20,-1.99,-3.56,-3.72,-3.72,-3.71
233.57,-0.52,3.22,-0.52,3.22,-3.22,-2.00,-3.60,-3.74,-3.73,-3.74
235.90,-0.59,3.16,-0.52,3.23,-3.23,-2.02,-3.64,-3.82,-3.75,-3.75
238.26,-0.58,3.19,-0.52,3.24,-3.24,-2.04,-3.68,-3.82,-3.76,-3.77
240.64,-0.56,3.20,-0.52,3.25,-3.25,-2.05,-3.71,-3.81,-3.77,-3.76
243.05,-0.55,3.22,-0.53,3.25,-3.25,-2.07,-3.74,-3.80,-3.78,-3.77
245.48,-0.53,3.26,-0.52,3.26,-3.26,-2.08,-3.76,-3.79,-3.79,-3.79
247.93,-0.50,3.30,-0.52,3.27,-3.27,-2.09,-3.78,-3.77,-3.80,-3.80
250.41,-0.48,3.31,-0.51,3.29,-3.29,-2.11,-3.79,-3.77,-3.80,-3.79
252.92,-0.46,3.33,-0.51,3.30,-3.30,-2.12,-3.79,-3.76,-3.81,-3.79
255.45,-0.45,3.36,-0.50,3.31,-3.31,-2.14,-3.79,-3.76,-3.82,-3.81
258.00,-0.47,3.35,-0.50,3.32,-3.32,-2.15,-3.79,-3.79,-3.83,-3.82
260.58,-0.53,3.30,-0.50,3.33,-3.33,-2.16,-3.78,-3.86,-3.84,-3.83
263.19,-0.54,3.30,-0.51,3.34,-3.34,-2.17,-3.76,-3.88,-3.85,-3.84
265.82,-0.54,3.32,-0.52,3.34,-3.34,-2.18,-3.74,-3.88,-3.86,-3.86
268.48,-0.54,3.32,-0.54,3.33,-3.33,-2.20,-3.71,-3.87,-3.87,-3.86
271.16,-0.55,3.33,-0.56,3.33,-3.33,-2.21,-3.69,-3.88,-3.89,-3.88
273.87,-0.55,3.34,-0.58,3.32,-3.32,-2.22,-3.65,-3.87,-3.90,-3.89
276.61,-0.58,3.33,-0.60,3.31,-3.31,-2.23,-3.62,-3.89,-3.91,-3.91
279.38,-0.64,3.30,-0.62,3.30,-3.30,-2.24,-3.58,-3.94,-3.92,-3.94
282.17,-0.65,3.29,-0.64,3.29,-3.29,-2.25,-3.54,-3.94,-3.93,-3.94
284.99,-0.64,3.30,-0.65,3.29,-3.29,-2.26,-3.49,-3.93,-3.94,-3.94
287.84,-0.68,3.26,-0.65,3.29,-3.29,-2.27,-3.45,-3.97,-3.94,-3.94
290.72,-0.72,3.24,-0.66,3.29,-3.29,-2.28,-3.40,-4.01,-3.95,-3.96
293.63,-0.71,3.24,-0.66,3.29,-3.29,-2.29,-3.35,-4.00,-3.96,-3.95
296.57,-0.70,3.25,-0.67,3.29,-3.29,-2.30,-3.30,-3.99,-3.96,-3.95
299.53,-0.69,3.27,-0.68,3.28,-3.28,-2.31,-3.25,-3.97,-3.96,-3.96
302.53,-0.68,3.27,-0.69,3.27,-3.27,-2.32,-3.20,-3.95,-3.96,-3.95
305.55,-0.67,3.29,-0.70,3.27,-3.27,-2.32,-3.15,-3.94,-3.97,-3.96
308.61,-0.66,3.29,-0.70,3.26,-3.26,-2.33,-3.11,-3.92,-3.97,-3.95
311.69,-0.65,3.32,-0.71,3.25,-3.25,-2.34,-3.06,-3.90,-3.97,-3.97
314.81,-0.67,3.29,-0.73,3.24,-3.24,-2.35,-3.01,-3.91,-3.97,-3.96
317.96,-0.72,3.26,-0.75,3.23,-3.23,-2.35,-2.96,-3.95,-3.97,-3.98
321.14,-0.79,3.18,-0.76,3.21,-3.21,-2.36,-2.92,-4.00,-3.98,-3.97
324.35,-0.83,3.15,-0.79,3.19,-3.19,-2.37,-2.87,-4.02,-3.98,-3.98
327.59,-0.85,3.12,-0.81,3.17,-3.17,-2.37,-2.83,-4.02,-3.98,-3.97
330.87,-0.85,3.13,-0.83,3.15,-3.15,-2.38,-2.79,-4.00,-3.98,-3.98
334.18,-0.85,3.14,-0.86,3.13,-3.13,-2.39,-2.75,-3.98,-3.98,-3.99
337.52,-0.85,3.13,-0.87,3.11,-3.11,-2.39,-2.72,-3.96,-3.99,-3.98
340.90,-0.92,3.07,-0.89,3.09,-3.09,-2.40,-2.68,-4.01,-3.98,-3.99
344.30,-0.95,3.03,-0.91,3.07,-3.07,-2.40,-2.65,-4.02,-3.98,-3.98
347.75,-0.95,3.02,-0.93,3.06,-3.06,-2.41,-2.62,-4.00,-3.98,-3.97
351.23,-0.95,3.04,-0.94,3.04,-3.04,-2.41,-2.59,-3.99,-3.98,-3.99
354.74,-0.95,3.02,-0.95,3.03,-3.03,-2.42,-2.56,-3.98,-3.97,-3.97
358.28,-0.95,3.02,-0.96,3.01,-3.01,-2.42,-2.53,-3.96,-3.97,-3.97
361.87,-0.94,3.03,-0.97,3.00,-3.00,-2.42,-2.51,-3.93,-3.97,-3.97
365.49,-0.93,3.03,-0.99,2.97,-2.97,-2.43,-2.49,-3.90,-3.96,-3.96
369.14,-0.96,2.99,-1.01,2.95,-2.95,-2.43,-2.47,-3.91,-3.96,-3.95
372.83,-1.01,2.93,-1.02,2.93,-2.93,-2.44,-2.45,-3.94,-3.96,-3.94
376.56,-1.08,2.87,-1.04,2.92,-2.92,-2.44,-2.44,-3.99,-3.95,-3.95
380.33,-1.10,2.85,-1.05,2.90,-2.90,-2.44,-2.42,-4.00,-3.95,-3.95
384.13,-1.10,2.84,-1.08,2.88,-2.88,-2.44,-2.41,-3.98,-3.95,-3.94
387.97,-1.09,2.85,-1.10,2.86,-2.86,-2.45,-2.40,-3.95,-3.96,-3.94
391.85,-1.10,2.85,-1.13,2.83,-2.83,-2.45,-2.39,-3.93,-3.96,-3.95
395.77,-1.17,2.79,-1.15,2.81,-2.81,-2.45,-2.39,-3.98,-3.96,-3.96
399.73,-1.19,2.77,-1.17,2.79,-2.79,-2.45,-2.38,-3.98,-3.97,-3.96
403.72,-1.19,2.76,-1.20,2.77,-2.77,-2.45,-2.38,-3.96,-3.97,-3.95
407.76,-1.20,2.77,-1.23,2.75,-2.75,-2.45,-2.38,-3.95,-3.98,-3.97
411.84,-1.20,2.78,-1.25,2.73,-2.73,-2.45,-2.37,-3.93,-3.98,-3.98
415.96,-1.28,2.70,-1.27,2.71,-2.71,-2.45,-2.37,-3.99,-3.98,-3.98
420.12,-1.32,2.67,-1.29,2.69,-2.69,-2.45,-2.37,-4.01,-3.98,-3.99
424.32,-1.29,2.69,-1.30,2.67,-2.67,-2.45,-2.38,-3.96,-3.97,-3.98
428.56,-1.29,2.67,-1.31,2.64,-2.64,-2.45,-2.38,-3.93,-3.96,-3.96
432.85,-1.34,2.60,-1.32,2.62,-2.62,-2.45,-2.38,-3.96,-3.94,-3.94
437.18,-1.34,2.59,-1.32,2.59,-2.59,-2.45,-2.38,-3.93,-3.91,-3.93
441.55,-1.37,2.53,-1.31,2.57,-2.57,-2.45,-2.38,-3.94,-3.88,-3.90
445.96,-1.37,2.49,-1.29,2.55,-2.55,-2.45,-2.39,-3.92,-3.84,-3.86
450.42,-1.31,2.51,-1.26,2.54,-2.54,-2.44,-2.39,-3.85,-3.80,-3.82
454.93,-1.25,2.52,-1.23,2.52,-2.52,-2.44,-2.39,-3.77,-3.75,-3.77
459.48,-1.19,2.52,-1.20,2.50,-2.50,-2.44,-2.39,-3.69,-3.70,-3.71
464.07,-1.13,2.51,-1.17,2.48,-2.48,-2.43,-2.39,-3.61,-3.65,-3.64
468.71,-1.11,2.48,-1.14,2.46,-2.46,-2.43,-2.39,-3.57,-3.60,-3.59
473.40,-1.14,2.39,-1.11,2.43,-2.43,-2.43,-2.39,-3.57,-3.54,-3.53
478.13,-1.08,2.39,-1.08,2.41,-2.41,-2.42,-2.38,-3.49,-3.49,-3.47
482.91,-1.02,2.40,-1.04,2.40,-2.40,-2.42,-2.38,-3.42,-3.44,-3.42
