frequency,raw,error,smoothed,error_smoothed,equalization,parametric_eq,fixed_band_eq,equalized_raw,equalized_smoothed,target
20.00,-1.91,-5.53,-1.91,-5.53,5.53,4.13,2.64,3.62,3.62,3.62
20.20,-1.92,-5.58,-1.91,-5.58,5.58,4.19,2.72,3.66,3.66,3.66
20.40,-1.92,-5.62,-1.92,-5.62,5.62,4.24,2.79,3.70,3.70,3.70
20.61,-1.92,-5.65,-1.92,-5.66,5.66,4.30,2.87,3.74,3.74,3.73
20.81,-1.92,-5.69,-1.92,-5.69,5.69,4.35,2.95,3.78,3.78,3.77
21.02,-1.92,-5.73,-1.92,-5.72,5.72,4.41,3.04,3.80,3.81,3.81
21.23,-1.91,-5.74,-1.91,-5.75,5.74,4.46,3.12,3.83,3.83,3.83
21.44,-1.91,-5.76,-1.90,-5.76,5.76,4.52,3.21,3.85,3.85,3.85
21.66,-1.90,-5.77,-1.89,-5.76,5.77,4.57,3.31,3.87,3.87,3.87
21.87,-1.88,-5.76,-1.88,-5.77,5.77,4.63,3.40,3.89,3.88,3.88
22.09,-1.87,-5.77,-1.87,-5.77,5.76,4.68,3.50,3.89,3.90,3.90
22.31,-1.85,-5.76,-1.84,-5.76,5.75,4.74,3.59,3.90,3.91,3.91
22.54,-1.82,-5.74,-1.82,-5.74,5.74,4.79,3.70,3.92,3.92,3.92
22.76,-1.79,-5.72,-1.79,-5.72,5.72,4.85,3.80,3.93,3.93,3.93
22.99,-1.76,-5.69,-1.76,-5.69,5.70,4.90,3.91,3.94,3.94,3.93
23.22,-1.73,-5.67,-1.73,-5.67,5.67,4.95,4.01,3.95,3.95,3.94
23.45,-1.70,-5.65,-1.70,-5.65,5.65,5.01,4.13,3.96,3.95,3.95
23.69,-1.67,-5.63,-1.67,-5.63,5.63,5.06,4.24,3.96,3.96,3.96
23.92,-1.64,-5.61,-1.64,-5.61,5.61,5.11,4.35,3.97,3.98,3.97
24.16,-1.61,-5.60,-1.61,-5.60,5.60,5.16,4.47,3.99,3.99,3.99
24.40,-1.59,-5.60,-1.59,-5.59,5.59,5.22,4.59,4.00,4.00,4.01
24.65,-1.58,-5.58,-1.57,-5.58,5.58,5.27,4.71,4.01,4.01,4.00
24.89,-1.56,-5.57,-1.56,-5.57,5.59,5.32,4.83,4.03,4.03,4.01
25.14,-1.56,-5.58,-1.56,-5.58,5.60,5.36,4.96,4.04,4.04,4.02
25.39,-1.56,-5.59,-1.56,-5.60,5.61,5.41,5.08,4.05,4.05,4.03
25.65,-1.58,-5.63,-1.58,-5.62,5.62,5.46,5.21,4.05,4.04,4.05
25.91,-1.60,-5.65,-1.59,-5.65,5.64,5.51,5.33,4.04,4.05,4.05
26.16,-1.61,-5.67,-1.60,-5.67,5.65,5.55,5.45,4.05,4.05,4.06
26.43,-1.60,-5.67,-1.60,-5.67,5.67,5.60,5.58,4.07,4.06,4.07
26.69,-1.60,-5.68,-1.59,-5.68,5.67,5.64,5.70,4.07,4.08,4.08
26.96,-1.58,-5.68,-1.58,-5.68,5.67,5.68,5.82,4.09,4.09,4.10
27.23,-1.56,-5.67,-1.56,-5.67,5.66,5.72,5.94,4.11,4.10,4.11
27.50,-1.54,-5.65,-1.54,-5.65,5.65,5.76,6.05,4.11,4.11,4.11
27.77,-1.51,-5.62,-1.51,-5.63,5.63,5.80,6.17,4.12,4.12,4.11
28.05,-1.49,-5.62,-1.48,-5.61,5.61,5.83,6.27,4.12,4.13,4.13
28.33,-1.46,-5.59,-1.45,-5.59,5.59,5.87,6.37,4.13,4.13,4.13
28.62,-1.42,-5.56,-1.42,-5.56,5.56,5.90,6.47,4.15,4.14,4.14
28.90,-1.39,-5.54,-1.39,-5.54,5.54,5.93,6.56,4.15,4.15,4.15
29.19,-1.36,-5.51,-1.36,-5.52,5.52,5.96,6.64,4.16,4.16,4.15
29.48,-1.33,-5.51,-1.33,-5.50,5.50,5.99,6.71,4.17,4.17,4.18
29.78,-1.31,-5.48,-1.30,-5.48,5.48,6.02,6.78,4.17,4.18,4.17
30.08,-1.28,-5.46,-1.28,-5.46,5.46,6.04,6.83,4.18,4.18,4.18
30.38,-1.26,-5.44,-1.26,-5.45,5.45,6.06,6.88,4.19,4.19,4.18
30.68,-1.25,-5.45,-1.25,-5.44,5.45,6.08,6.91,4.20,4.20,4.20
30.99,-1.24,-5.44,-1.24,-5.44,5.45,6.10,6.94,4.21,4.21,4.20
31.30,-1.24,-5.44,-1.24,-5.44,5.45,6.12,6.95,4.21,4.21,4.20
31.61,-1.24,-5.45,-1.24,-5.45,5.46,6.13,6.96,4.22,4.21,4.21
31.93,-1.25,-5.47,-1.25,-5.47,5.46,6.15,6.95,4.22,4.22,4.22
32.24,-1.26,-5.48,-1.25,-5.48,5.48,6.16,6.94,4.22,4.22,4.22
32.57,-1.26,-5.50,-1.26,-5.49,5.49,6.16,6.91,4.23,4.23,4.24
32.89,-1.26,-5.50,-1.26,-5.50,5.50,6.17,6.88,4.24,4.24,4.24
33.22,-1.26,-5.51,-1.26,-5.51,5.51,6.17,6.83,4.25,4.25,4.25
33.55,-1.26,-5.52,-1.26,-5.52,5.52,6.17,6.78,4.26,4.26,4.26
33.89,-1.26,-5.53,-1.26,-5.53,5.53,6.17,6.73,4.27,4.27,4.27
34.23,-1.26,-5.53,-1.26,-5.53,5.53,6.17,6.66,4.28,4.28,4.27
34.57,-1.26,-5.54,-1.26,-5.54,5.54,6.17,6.59,4.28,4.28,4.28
34.92,-1.26,-5.54,-1.26,-5.54,5.54,6.16,6.51,4.28,4.28,4.28
35.27,-1.26,-5.55,-1.26,-5.55,5.55,6.15,6.43,4.29,4.29,4.29
35.62,-1.26,-5.55,-1.26,-5.55,5.55,6.14,6.35,4.29,4.29,4.29
35.97,-1.26,-5.55,-1.26,-5.55,5.55,6.12,6.26,4.30,4.30,4.29
36.33,-1.26,-5.56,-1.26,-5.55,5.55,6.11,6.17,4.30,4.30,4.30
36.70,-1.26,-5.55,-1.26,-5.56,5.56,6.09,6.08,4.30,4.30,4.29
37.06,-1.26,-5.56,-1.26,-5.56,5.56,6.07,5.99,4.30,4.30,4.30
37.43,-1.26,-5.56,-1.26,-5.56,5.56,6.05,5.89,4.30,4.30,4.30
37.81,-1.26,-5.56,-1.26,-5.56,5.56,6.02,5.80,4.30,4.30,4.30
38.19,-1.26,-5.56,-1.26,-5.56,5.56,6.00,5.71,4.30,4.30,4.30
38.57,-1.26,-5.55,-1.26,-5.55,5.56,5.97,5.62,4.30,4.30,4.29
38.95,-1.27,-5.56,-1.26,-5.55,5.56,5.94,5.53,4.29,4.30,4.29
39.34,-1.27,-5.55,-1.27,-5.55,5.56,5.91,5.44,4.29,4.29,4.28
39.74,-1.28,-5.56,-1.28,-5.56,5.56,5.87,5.36,4.28,4.28,4.28
40.14,-1.28,-5.56,-1.28,-5.56,5.55,5.84,5.27,4.27,4.28,4.28
40.54,-1.28,-5.56,-1.27,-5.55,5.54,5.80,5.19,4.27,4.27,4.28
40.94,-1.26,-5.53,-1.26,-5.54,5.53,5.76,5.12,4.28,4.27,4.27
41.35,-1.25,-5.52,-1.25,-5.52,5.52,5.72,5.04,4.27,4.27,4.27
41.76,-1.23,-5.50,-1.22,-5.50,5.50,5.68,4.97,4.27,4.27,4.27
42.18,-1.20,-5.47,-1.20,-5.47,5.47,5.64,4.90,4.28,4.27,4.27
42.60,-1.18,-5.45,-1.17,-5.45,5.44,5.59,4.84,4.27,4.27,4.27
43.03,-1.15,-5.42,-1.15,-5.42,5.41,5.55,4.77,4.26,4.26,4.27
43.46,-1.12,-5.39,-1.12,-5.38,5.38,5.50,4.72,4.26,4.26,4.27
43.90,-1.09,-5.34,-1.08,-5.34,5.34,5.45,4.66,4.25,4.26,4.25
44.33,-1.05,-5.30,-1.05,-5.30,5.31,5.40,4.61,4.26,4.25,4.25
44.78,-1.03,-5.27,-1.02,-5.27,5.27,5.35,4.56,4.24,4.25,4.24
45.23,-1.00,-5.24,-1.00,-5.24,5.24,5.30,4.52,4.24,4.24,4.24
45.68,-0.97,-5.21,-0.97,-5.21,5.21,5.25,4.47,4.24,4.24,4.24
46.13,-0.95,-5.18,-0.95,-5.18,5.19,5.19,4.44,4.24,4.24,4.23
46.60,-0.93,-5.17,-0.93,-5.16,5.17,5.14,4.40,4.25,4.25,4.24
47.06,-0.92,-5.15,-0.92,-5.15,5.16,5.09,4.37,4.25,4.24,4.23
47.53,-0.92,-5.14,-0.92,-5.15,5.16,5.03,4.34,4.24,4.24,4.22
48.01,-0.93,-5.16,-0.93,-5.15,5.15,4.97,4.32,4.22,4.22,4.23
48.49,-0.94,-5.15,-0.94,-5.15,5.14,4.92,4.30,4.20,4.20,4.21
48.97,-0.95,-5.14,-0.94,-5.14,5.13,4.86,4.28,4.18,4.18,4.19
49.46,-0.95,-5.13,-0.94,-5.12,5.11,4.80,4.26,4.17,4.17,4.18
49.96,-0.93,-5.09,-0.93,-5.10,5.09,4.74,4.24,4.16,4.16,4.16
50.46,-0.92,-5.08,-0.91,-5.07,5.06,4.68,4.23,4.15,4.15,4.16
50.96,-0.89,-5.03,-0.89,-5.03,5.03,4.63,4.22,4.15,4.14,4.14
51.47,-0.87,-4.98,-0.87,-4.99,5.00,4.57,4.21,4.13,4.13,4.11
51.99,-0.84,-4.94,-0.84,-4.94,4.95,4.51,4.21,4.12,4.11,4.10
52.51,-0.82,-4.91,-0.82,-4.91,4.91,4.45,4.20,4.09,4.09,4.09
53.03,-0.80,-4.87,-0.79,-4.87,4.86,4.39,4.20,4.06,4.07,4.07
53.56,-0.77,-4.83,-0.77,-4.82,4.81,4.33,4.19,4.04,4.05,4.06
54.10,-0.73,-4.76,-0.73,-4.77,4.76,4.27,4.19,4.03,4.03,4.03
54.64,-0.69,-4.71,-0.69,-4.70,4.71,4.21,4.19,4.02,4.02,4.02
55.18,-0.65,-4.64,-0.65,-4.64,4.65,4.15,4.18,4.00,4.00,3.99
55.74,-0.61,-4.57,-0.61,-4.58,4.59,4.08,4.18,3.98,3.98,3.96
56.29,-0.58,-4.54,-0.58,-4.53,4.53,4.02,4.17,3.95,3.95,3.96
56.86,-0.54,-4.47,-0.54,-4.47,4.47,3.96,4.17,3.93,3.93,3.93
57.42,-0.50,-4.40,-0.49,-4.40,4.41,3.90,4.16,3.91,3.91,3.90
58.00,-0.45,-4.33,-0.45,-4.34,4.35,3.84,4.15,3.90,3.90,3.88
58.58,-0.42,-4.28,-0.42,-4.28,4.29,3.78,4.14,3.87,3.87,3.86
59.16,-0.39,-4.23,-0.38,-4.23,4.22,3.72,4.12,3.83,3.84,3.84
59.76,-0.35,-4.17,-0.35,-4.17,4.15,3.66,4.10,3.80,3.80,3.82
60.35,-0.30,-4.09,-0.30,-4.09,4.07,3.60,4.08,3.77,3.77,3.79
60.96,-0.24,-4.00,-0.24,-3.99,3.99,3.54,4.06,3.75,3.75,3.76
61.57,-0.18,-3.89,-0.18,-3.90,3.90,3.48,4.03,3.72,3.72,3.71
62.18,-0.12,-3.79,-0.12,-3.80,3.80,3.43,4.00,3.68,3.68,3.67
62.80,-0.06,-3.71,-0.05,-3.69,3.70,3.37,3.97,3.64,3.65,3.65
63.43,0.01,-3.59,0.01,-3.59,3.60,3.31,3.93,3.61,3.61,3.60
64.07,0.08,-3.48,0.08,-3.49,3.49,3.25,3.89,3.57,3.57,3.56
64.71,0.14,-3.39,0.14,-3.38,3.39,3.19,3.84,3.53,3.53,3.53
65.35,0.20,-3.29,0.21,-3.29,3.28,3.13,3.79,3.49,3.49,3.49
66.01,0.27,-3.18,0.27,-3.18,3.18,3.08,3.74,3.46,3.46,3.45
66.67,0.34,-3.08,0.34,-3.08,3.08,3.02,3.68,3.43,3.42,3.42
67.33,0.40,-2.98,0.40,-2.98,2.99,2.96,3.62,3.39,3.39,3.38
68.01,0.45,-2.89,0.45,-2.89,2.89,2.91,3.56,3.35,3.35,3.34
68.69,0.49,-2.81,0.50,-2.81,2.80,2.85,3.49,3.29,3.30,3.30
69.37,0.54,-2.72,0.54,-2.72,2.71,2.80,3.43,3.26,3.26,3.26
70.07,0.59,-2.63,0.59,-2.63,2.63,2.74,3.36,3.22,3.22,3.22
70.77,0.64,-2.54,0.64,-2.54,2.54,2.69,3.29,3.18,3.18,3.18
71.48,0.69,-2.46,0.69,-2.46,2.46,2.63,3.22,3.15,3.15,3.15
72.19,0.73,-2.37,0.73,-2.38,2.38,2.58,3.14,3.11,3.11,3.10
72.91,0.77,-2.30,0.77,-2.30,2.30,2.52,3.07,3.07,3.07,3.07
73.64,0.80,-2.23,0.81,-2.22,2.22,2.47,2.99,3.03,3.03,3.03
74.38,0.85,-2.15,0.85,-2.15,2.15,2.42,2.92,3.01,3.00,3.00
75.12,0.88,-2.08,0.88,-2.08,2.09,2.36,2.84,2.97,2.97,2.96
75.87,0.91,-2.02,0.91,-2.02,2.03,2.31,2.77,2.94,2.94,2.93
76.63,0.93,-1.97,0.93,-1.97,1.97,2.26,2.69,2.90,2.90,2.90
77.40,0.95,-1.92,0.95,-1.92,1.91,2.21,2.61,2.87,2.87,2.87
78.17,0.97,-1.87,0.97,-1.87,1.86,2.16,2.54,2.84,2.84,2.84
78.95,0.99,-1.82,0.99,-1.82,1.82,2.11,2.47,2.81,2.81,2.81
79.74,1.01,-1.78,1.01,-1.78,1.78,2.06,2.39,2.79,2.79,2.79
80.54,1.03,-1.74,1.03,-1.74,1.75,2.01,2.32,2.78,2.77,2.77
81.35,1.03,-1.71,1.03,-1.71,1.72,1.96,2.25,2.75,2.75,2.74
82.16,1.03,-1.68,1.03,-1.68,1.69,1.91,2.18,2.72,2.72,2.71
82.98,1.03,-1.67,1.03,-1.66,1.67,1.86,2.11,2.70,2.69,2.70
83.81,1.02,-1.65,1.02,-1.65,1.65,1.81,2.04,2.67,2.67,2.67
84.65,1.01,-1.63,1.02,-1.63,1.63,1.76,1.97,2.64,2.65,2.64
85.50,1.01,-1.62,1.01,-1.62,1.61,1.71,1.91,2.63,2.62,2.63
86.35,1.01,-1.60,1.01,-1.60,1.60,1.67,1.84,2.61,2.61,2.61
87.22,1.01,-1.58,1.01,-1.58,1.58,1.62,1.78,2.59,2.59,2.59
88.09,1.01,-1.56,1.01,-1.56,1.56,1.57,1.72,2.57,2.57,2.57
88.97,1.01,-1.54,1.01,-1.54,1.54,1.53,1.66,2.55,2.55,2.55
89.86,1.01,-1.53,1.01,-1.52,1.52,1.48,1.60,2.54,2.54,2.54
90.76,1.01,-1.50,1.01,-1.50,1.50,1.44,1.54,2.52,2.52,2.51
91.66,1.01,-1.48,1.01,-1.48,1.49,1.39,1.48,2.50,2.50,2.49
92.58,1.01,-1.46,1.01,-1.46,1.47,1.35,1.43,2.48,2.48,2.47
93.51,1.01,-1.45,1.01,-1.45,1.45,1.30,1.37,2.46,2.46,2.46
94.44,1.01,-1.43,1.01,-1.43,1.42,1.26,1.32,2.44,2.44,2.44
95.39,1.01,-1.41,1.01,-1.41,1.40,1.21,1.27,2.41,2.41,2.42
96.34,1.01,-1.38,1.01,-1.38,1.38,1.17,1.22,2.39,2.39,2.39
97.30,1.01,-1.35,1.01,-1.35,1.35,1.13,1.17,2.37,2.37,2.36
98.28,1.01,-1.32,1.01,-1.32,1.33,1.08,1.12,2.34,2.34,2.33
99.26,1.01,-1.30,1.01,-1.30,1.30,1.04,1.07,2.31,2.31,2.31
100.25,1.01,-1.27,1.01,-1.27,1.27,1.00,1.02,2.28,2.28,2.28
101.25,1.01,-1.24,1.01,-1.24,1.24,0.96,0.98,2.25,2.25,2.25
102.27,1.01,-1.20,1.01,-1.20,1.21,0.91,0.93,2.22,2.22,2.21
103.29,1.01,-1.17,1.01,-1.17,1.17,0.87,0.89,2.18,2.18,2.18
104.32,1.01,-1.14,1.01,-1.13,1.14,0.83,0.85,2.15,2.15,2.15
105.37,1.01,-1.10,1.01,-1.10,1.10,0.79,0.80,2.11,2.11,2.11
106.42,1.01,-1.05,1.01,-1.06,1.05,0.75,0.76,2.07,2.07,2.06
107.48,1.01,-1.02,1.01,-1.01,1.01,0.71,0.72,2.02,2.02,2.03
108.56,1.01,-0.96,1.01,-0.96,0.96,0.67,0.68,1.98,1.98,1.97
109.64,1.01,-0.91,1.01,-0.91,0.91,0.63,0.64,1.92,1.92,1.92
110.74,1.01,-0.86,1.01,-0.86,0.86,0.59,0.60,1.87,1.87,1.87
111.85,1.01,-0.81,1.01,-0.80,0.80,0.55,0.56,1.82,1.82,1.82
112.97,1.01,-0.74,1.01,-0.75,0.74,0.51,0.52,1.76,1.76,1.75
114.10,1.01,-0.69,1.01,-0.69,0.68,0.47,0.48,1.70,1.70,1.70
115.24,1.01,-0.63,1.01,-0.63,0.62,0.43,0.45,1.64,1.64,1.64
116.39,1.01,-0.56,1.01,-0.56,0.56,0.39,0.41,1.58,1.58,1.57
117.55,1.01,-0.50,1.01,-0.50,0.50,0.36,0.37,1.52,1.52,1.51
118.73,1.01,-0.44,1.01,-0.44,0.45,0.32,0.34,1.46,1.46,1.45
119.92,1.01,-0.39,1.01,-0.39,0.39,0.28,0.30,1.40,1.40,1.40
121.12,1.01,-0.33,1.01,-0.33,0.33,0.24,0.27,1.35,1.35,1.34
122.33,1.01,-0.28,1.01,-0.28,0.28,0.20,0.23,1.29,1.29,1.29
123.55,1.01,-0.23,1.01,-0.23,0.23,0.17,0.19,1.24,1.24,1.24
124.79,1.01,-0.18,1.01,-0.18,0.18,0.13,0.16,1.19,1.19,1.19
126.03,1.01,-0.13,1.01,-0.13,0.13,0.09,0.12,1.14,1.14,1.14
127.29,1.01,-0.08,1.01,-0.08,0.08,0.06,0.09,1.09,1.09,1.09
128.57,1.01,-0.02,1.01,-0.03,0.03,0.02,0.05,1.04,1.04,1.03
129.85,1.01,0.02,1.01,0.02,-0.02,-0.02,0.02,0.99,0.99,0.99
131.15,1.01,0.07,1.01,0.07,-0.06,-0.05,-0.02,0.95,0.95,0.94
132.46,1.01,0.11,1.01,0.11,-0.11,-0.09,-0.05,0.90,0.90,0.90
133.79,1.01,0.15,1.01,0.15,-0.15,-0.13,-0.09,0.86,0.86,0.86
135.12,1.01,0.19,1.01,0.19,-0.19,-0.16,-0.12,0.82,0.82,0.82
136.48,1.01,0.23,1.01,0.23,-0.23,-0.20,-0.16,0.78,0.78,0.78
137.84,1.01,0.27,1.01,0.28,-0.27,-0.23,-0.20,0.74,0.74,0.74
139.22,1.01,0.32,1.01,0.32,-0.31,-0.27,-0.23,0.70,0.70,0.69
140.61,1.01,0.36,1.01,0.35,-0.35,-0.30,-0.27,0.66,0.66,0.65
142.02,1.01,0.38,1.01,0.39,-0.39,-0.34,-0.30,0.63,0.63,0.63
143.44,1.01,0.42,1.01,0.42,-0.42,-0.37,-0.34,0.59,0.59,0.59
144.87,1.01,0.46,1.01,0.46,-0.46,-0.41,-0.38,0.55,0.55,0.55
146.32,1.01,0.50,1.01,0.49,-0.50,-0.44,-0.42,0.52,0.52,0.51
147.78,1.01,0.53,1.01,0.53,-0.53,-0.48,-0.46,0.48,0.48,0.48
149.26,1.01,0.56,1.01,0.57,-0.57,-0.51,-0.50,0.44,0.44,0.45
150.75,1.01,0.62,1.01,0.61,-0.61,-0.55,-0.54,0.40,0.40,0.39
152.26,1.01,0.66,1.01,0.66,-0.66,-0.58,-0.58,0.36,0.36,0.35
153.78,1.01,0.69,1.01,0.70,-0.70,-0.62,-0.62,0.31,0.31,0.32
155.32,1.01,0.75,1.01,0.74,-0.74,-0.65,-0.66,0.27,0.27,0.26
156.88,1.01,0.78,1.01,0.78,-0.79,-0.69,-0.70,0.23,0.23,0.23
158.44,1.01,0.83,1.01,0.83,-0.83,-0.72,-0.74,0.18,0.18,0.18
160.03,1.01,0.88,1.01,0.88,-0.88,-0.75,-0.79,0.13,0.13,0.13
161.63,1.01,0.93,1.01,0.93,-0.92,-0.79,-0.83,0.09,0.09,0.08
163.24,1.01,0.97,1.01,0.97,-0.97,-0.82,-0.88,0.04,0.04,0.04
164.88,1.01,1.01,1.01,1.01,-1.01,-0.85,-0.92,-0.00,-0.00,0.00
166.53,1.01,1.06,1.01,1.06,-1.06,-0.89,-0.97,-0.05,-0.05,-0.05
168.19,1.01,1.11,1.01,1.11,-1.11,-0.92,-1.02,-0.10,-0.10,-0.10
169.87,1.01,1.16,1.01,1.16,-1.16,-0.95,-1.07,-0.15,-0.15,-0.15
171.57,1.01,1.20,1.01,1.21,-1.21,-0.99,-1.12,-0.20,-0.20,-0.19
173.29,1.01,1.26,1.01,1.26,-1.26,-1.02,-1.17,-0.25,-0.25,-0.25
175.02,1.01,1.31,1.01,1.31,-1.31,-1.05,-1.22,-0.30,-0.30,-0.30
176.77,1.01,1.37,1.01,1.37,-1.36,-1.09,-1.28,-0.35,-0.35,-0.36
178.54,1.01,1.42,1.01,1.42,-1.41,-1.12,-1.33,-0.40,-0.40,-0.41
180.32,1.00,1.47,1.01,1.47,-1.47,-1.15,-1.39,-0.46,-0.46,-0.47
182.13,1.00,1.52,1.00,1.52,-1.52,-1.18,-1.44,-0.52,-0.52,-0.52
183.95,0.99,1.57,0.99,1.57,-1.57,-1.22,-1.50,-0.58,-0.58,-0.58
185.79,0.99,1.62,0.99,1.63,-1.63,-1.25,-1.56,-0.64,-0.64,-0.63
187.65,0.99,1.69,1.00,1.69,-1.69,-1.28,-1.62,-0.70,-0.70,-0.70
189.52,1.01,1.76,1.01,1.76,-1.76,-1.31,-1.68,-0.75,-0.75,-0.75
191.42,1.02,1.82,1.03,1.83,-1.83,-1.35,-1.74,-0.81,-0.80,-0.80
193.33,1.05,1.90,1.05,1.90,-1.90,-1.38,-1.80,-0.85,-0.85,-0.85
195.27,1.07,1.97,1.07,1.97,-1.98,-1.41,-1.86,-0.90,-0.90,-0.90
197.22,1.10,2.06,1.10,2.06,-2.05,-1.44,-1.93,-0.95,-0.95,-0.96
199.19,1.13,2.14,1.13,2.14,-2.13,-1.47,-1.99,-1.00,-1.00,-1.01
201.18,1.16,2.22,1.16,2.22,-2.21,-1.50,-2.05,-1.05,-1.05,-1.06
203.19,1.19,2.28,1.19,2.29,-2.29,-1.54,-2.12,-1.10,-1.10,-1.09
205.23,1.22,2.37,1.22,2.36,-2.37,-1.57,-2.18,-1.15,-1.14,-1.15
207.28,1.25,2.42,1.25,2.43,-2.44,-1.60,-2.25,-1.19,-1.19,-1.17
209.35,1.28,2.51,1.28,2.51,-2.51,-1.63,-2.31,-1.23,-1.23,-1.23
211.44,1.31,2.59,1.31,2.58,-2.57,-1.66,-2.38,-1.26,-1.26,-1.28
213.56,1.33,2.65,1.33,2.64,-2.63,-1.69,-2.44,-1.30,-1.30,-1.32
215.69,1.34,2.68,1.34,2.69,-2.69,-1.72,-2.50,-1.34,-1.34,-1.34
217.85,1.35,2.73,1.35,2.74,-2.73,-1.75,-2.57,-1.38,-1.38,-1.38
220.03,1.36,2.78,1.36,2.77,-2.77,-1.78,-2.63,-1.41,-1.41,-1.42
222.23,1.36,2.81,1.36,2.80,-2.80,-1.81,-2.68,-1.44,-1.44,-1.45
224.45,1.35,2.82,1.35,2.83,-2.83,-1.84,-2.74,-1.48,-1.47,-1.47
226.70,1.34,2.84,1.35,2.84,-2.85,-1.87,-2.80,-1.51,-1.50,-1.50
228.96,1.34,2.87,1.34,2.86,-2.87,-1.90,-2.85,-1.53,-1.53,-1.53
231.25,1.34,2.88,1.34,2.88,-2.88,-1.93,-2.90,-1.54,-1.54,-1.54
233.57,1.34,2.90,1.34,2.90,-2.90,-1.96,-2.94,-1.56,-1.56,-1.56
235.90,1.34,2.91,1.34,2.91,-2.91,-1.99,-2.99,-1.57,-1.57,-1.57
238.26,1.34,2.92,1.34,2.92,-2.92,-2.02,-3.03,-1.58,-1.58,-1.58
240.64,1.34,2.93,1.34,2.93,-2.93,-2.05,-3.06,-1.59,-1.59,-1.59
243.05,1.34,2.93,1.34,2.93,-2.94,-2.07,-3.09,-1.59,-1.59,-1.59
245.48,1.34,2.94,1.34,2.94,-2.94,-2.10,-3.12,-1.59,-1.59,-1.60
247.93,1.34,2.94,1.34,2.94,-2.93,-2.13,-3.15,-1.59,-1.59,-1.60
250.41,1.34,2.94,1.34,2.94,-2.93,-2.16,-3.17,-1.59,-1.59,-1.60
252.92,1.33,2.92,1.34,2.92,-2.92,-2.19,-3.19,-1.59,-1.59,-1.59
255.45,1.33,2.91,1.33,2.91,-2.91,-2.21,-3.20,-1.58,-1.58,-1.58
258.00,1.32,2.89,1.32,2.89,-2.90,-2.24,-3.21,-1.58,-1.57,-1.57
260.58,1.32,2.89,1.32,2.88,-2.89,-2.27,-3.21,-1.56,-1.57,-1.57
263.19,1.31,2.87,1.32,2.88,-2.87,-2.29,-3.21,-1.56,-1.56,-1.56
265.82,1.32,2.87,1.32,2.87,-2.87,-2.32,-3.21,-1.54,-1.55,-1.55
268.48,1.33,2.86,1.33,2.86,-2.86,-2.35,-3.21,-1.53,-1.53,-1.53
271.16,1.34,2.85,1.34,2.86,-2.87,-2.37,-3.20,-1.52,-1.52,-1.51
273.87,1.36,2.87,1.36,2.86,-2.87,-2.40,-3.19,-1.51,-1.51,-1.51
276.61,1.39,2.87,1.39,2.88,-2.88,-2.42,-3.18,-1.49,-1.49,-1.48
279.38,1.42,2.90,1.42,2.89,-2.89,-2.45,-3.16,-1.47,-1.47,-1.48
282.17,1.45,2.91,1.45,2.91,-2.91,-2.47,-3.15,-1.46,-1.46,-1.46
284.99,1.48,2.93,1.48,2.93,-2.93,-2.50,-3.13,-1.45,-1.45,-1.45
287.84,1.51,2.95,1.51,2.95,-2.95,-2.52,-3.11,-1.44,-1.44,-1.44
290.72,1.54,2.97,1.54,2.97,-2.97,-2.55,-3.09,-1.42,-1.42,-1.43
293.63,1.57,2.98,1.57,2.98,-2.98,-2.57,-3.07,-1.41,-1.41,-1.41
296.57,1.60,2.99,1.60,3.00,-3.00,-2.59,-3.05,-1.40,-1.40,-1.39
299.53,1.62,3.01,1.62,3.01,-3.01,-2.62,-3.03,-1.38,-1.38,-1.39
302.53,1.64,3.02,1.64,3.02,-3.01,-2.64,-3.01,-1.37,-1.37,-1.38
305.55,1.66,3.02,1.66,3.03,-3.01,-2.66,-3.00,-1.35,-1.35,-1.36
308.61,1.67,3.02,1.67,3.02,-3.00,-2.68,-2.98,-1.33,-1.33,-1.35
311.69,1.67,3.01,1.67,3.00,-3.00,-2.70,-2.96,-1.32,-1.33,-1.34
314.81,1.66,2.97,1.66,2.98,-2.99,-2.72,-2.95,-1.32,-1.32,-1.31
317.96,1.65,2.97,1.66,2.97,-2.98,-2.75,-2.93,-1.33,-1.32,-1.32
321.14,1.65,2.96,1.65,2.96,-2.97,-2.77,-2.92,-1.32,-1.32,-1.31
324.35,1.66,2.97,1.66,2.97,-2.97,-2.79,-2.91,-1.31,-1.32,-1.31
327.59,1.67,2.97,1.67,2.98,-2.98,-2.81,-2.90,-1.31,-1.31,-1.30
330.87,1.69,2.99,1.69,2.99,-2.99,-2.82,-2.89,-1.30,-1.30,-1.30
334.18,1.72,3.02,1.72,3.01,-3.01,-2.84,-2.89,-1.29,-1.29,-1.30
337.52,1.75,3.04,1.75,3.04,-3.04,-2.86,-2.89,-1.29,-1.29,-1.29
340.90,1.78,3.07,1.78,3.07,-3.07,-2.88,-2.89,-1.29,-1.29,-1.29
344.30,1.81,3.10,1.81,3.10,-3.10,-2.90,-2.89,-1.29,-1.29,-1.29
347.75,1.84,3.13,1.84,3.13,-3.13,-2.91,-2.89,-1.29,-1.29,-1.29
351.23,1.87,3.16,1.87,3.16,-3.17,-2.93,-2.90,-1.29,-1.29,-1.29
354.74,1.90,3.19,1.90,3.20,-3.20,-2.95,-2.91,-1.30,-1.30,-1.29
358.28,1.93,3.24,1.93,3.23,-3.23,-2.96,-2.92,-1.30,-1.30,-1.31
361.87,1.95,3.26,1.95,3.26,-3.26,-2.98,-2.93,-1.30,-1.30,-1.31
365.49,1.97,3.28,1.98,3.29,-3.28,-2.99,-2.95,-1.31,-1.30,-1.31
369.14,1.99,3.31,1.99,3.30,-3.30,-3.01,-2.96,-1.30,-1.30,-1.32
372.83,2.00,3.32,2.00,3.32,-3.31,-3.02,-2.98,-1.30,-1.31,-1.32
376.56,1.99,3.32,1.99,3.32,-3.32,-3.03,-3.00,-1.32,-1.32,-1.33
380.33,1.98,3.32,1.98,3.32,-3.32,-3.05,-3.03,-1.34,-1.34,-1.34
384.13,1.97,3.32,1.97,3.32,-3.33,-3.06,-3.05,-1.35,-1.35,-1.35
387.97,1.97,3.33,1.97,3.33,-3.34,-3.07,-3.08,-1.36,-1.36,-1.36
391.85,1.97,3.34,1.98,3.34,-3.35,-3.08,-3.11,-1.38,-1.37,-1.37
395.77,1.99,3.35,1.99,3.36,-3.37,-3.09,-3.14,-1.38,-1.38,-1.36
399.73,2.01,3.38,2.01,3.38,-3.39,-3.10,-3.18,-1.38,-1.38,-1.37
403.72,2.04,3.42,2.04,3.42,-3.42,-3.11,-3.21,-1.38,-1.38,-1.38
407.76,2.07,3.46,2.08,3.46,-3.46,-3.12,-3.25,-1.39,-1.38,-1.39
411.84,2.11,3.49,2.11,3.50,-3.49,-3.13,-3.28,-1.38,-1.38,-1.38
415.96,2.14,3.54,2.14,3.53,-3.53,-3.14,-3.32,-1.38,-1.39,-1.40
420.12,2.16,3.56,2.16,3.56,-3.55,-3.15,-3.35,-1.39,-1.39,-1.40
424.32,2.18,3.58,2.18,3.58,-3.58,-3.15,-3.39,-1.39,-1.40,-1.40
428.56,2.19,3.60,2.19,3.60,-3.59,-3.16,-3.43,-1.40,-1.40,-1.41
432.85,2.20,3.61,2.20,3.61,-3.60,-3.17,-3.46,-1.40,-1.40,-1.41
437.18,2.20,3.61,2.20,3.60,-3.61,-3.17,-3.50,-1.40,-1.41,-1.41
441.55,2.19,3.59,2.19,3.60,-3.60,-3.18,-3.53,-1.41,-1.41,-1.40
445.96,2.18,3.58,2.18,3.59,-3.59,-3.18,-3.57,-1.41,-1.41,-1.40
450.42,2.17,3.58,2.17,3.58,-3.57,-3.18,-3.60,-1.40,-1.40,-1.41
454.93,2.16,3.56,2.16,3.56,-3.55,-3.19,-3.62,-1.39,-1.39,-1.40
459.48,2.14,3.54,2.14,3.53,-3.52,-3.19,-3.65,-1.38,-1.38,-1.40
464.07,2.10,3.49,2.10,3.49,-3.49,-3.19,-3.67,-1.38,-1.38,-1.39
468.71,2.06,3.44,2.06,3.45,-3.45,-3.19,-3.69,-1.39,-1.39,-1.38
473.40,2.01,3.40,2.02,3.40,-3.41,-3.19,-3.71,-1.40,-1.39,-1.39
478.13,1.98,3.36,1.98,3.36,-3.37,-3.19,-3.72,-1.39,-1.39,-1.38
482.91,1.95,3.33,1.95,3.33,-3.33,-3.19,-3.72,-1.38,-1.38,-1.38
487.74,1.92,3.29,1.92,3.29,-3.29,-3.19,-3.73,-1.37,-1.37,-1.37
492.62,1.89,3.25,1.89,3.25,-3.25,-3.19,-3.72,-1.36,-1.36,-1.36
497.55,1.85,3.21,1.86,3.21,-3.21,-3.19,-3.72,-1.36,-1.35,-1.36
502.52,1.82,3.17,1.82,3.17,-3.16,-3.18,-3.71,-1.34,-1.34,-1.35
507.55,1.78,3.13,1.78,3.13,-3.12,-3.18,-3.69,-1.34,-1.34,-1.35
512.62,1.73,3.08,1.73,3.07,-3.07,-3.17,-3.67,-1.33,-1.34,-1.35
