frequency,raw,error,smoothed,error_smoothed,equalization,parametric_eq,fixed_band_eq,equalized_raw,equalized_smoothed,target
20.00,0.93,-5.06,0.93,-5.06,5.06,4.57,2.13,5.99,5.99,5.99
20.20,0.91,-5.07,0.91,-5.07,5.07,4.60,2.19,5.98,5.98,5.98
20.40,0.89,-5.08,0.89,-5.08,5.08,4.62,2.25,5.96,5.97,5.97
20.61,0.88,-5.08,0.87,-5.08,5.08,4.64,2.32,5.96,5.96,5.96
20.81,0.87,-5.07,0.86,-5.08,5.08,4.66,2.39,5.95,5.94,5.94
21.02,0.86,-5.07,0.85,-5.08,5.08,4.68,2.46,5.94,5.93,5.93
21.23,0.85,-5.07,0.85,-5.08,5.08,4.70,2.53,5.92,5.92,5.92
21.44,0.85,-5.08,0.84,-5.07,5.07,4.72,2.61,5.92,5.91,5.93
21.66,0.85,-5.06,0.84,-5.07,5.07,4.74,2.68,5.91,5.91,5.91
21.87,0.85,-5.06,0.84,-5.06,5.06,4.75,2.76,5.90,5.90,5.91
22.09,0.85,-5.04,0.84,-5.05,5.05,4.77,2.84,5.89,5.89,5.89
22.31,0.86,-5.02,0.85,-5.03,5.03,4.78,2.93,5.89,5.88,5.88
22.54,0.86,-5.01,0.86,-5.02,5.02,4.80,3.01,5.87,5.88,5.87
22.76,0.87,-5.00,0.87,-5.00,5.00,4.81,3.10,5.86,5.87,5.87
22.99,0.88,-4.98,0.89,-4.98,4.98,4.83,3.19,5.85,5.86,5.86
23.22,0.90,-4.95,0.91,-4.95,4.95,4.84,3.28,5.85,5.86,5.85
23.45,0.92,-4.94,0.93,-4.92,4.92,4.85,3.37,5.84,5.85,5.86
23.69,0.94,-4.90,0.95,-4.90,4.90,4.86,3.47,5.84,5.85,5.85
23.92,0.98,-4.86,0.98,-4.87,4.87,4.87,3.57,5.84,5.84,5.84
24.16,1.01,-4.84,1.01,-4.83,4.83,4.88,3.67,5.84,5.84,5.85
24.40,1.04,-4.81,1.04,-4.80,4.80,4.89,3.77,5.84,5.84,5.85
24.65,1.07,-4.77,1.07,-4.77,4.77,4.90,3.87,5.84,5.84,5.84
24.89,1.10,-4.74,1.09,-4.74,4.74,4.90,3.97,5.84,5.84,5.84
25.14,1.13,-4.70,1.12,-4.71,4.71,4.91,4.08,5.84,5.83,5.83
25.39,1.16,-4.67,1.14,-4.69,4.69,4.91,4.18,5.84,5.83,5.83
25.65,1.18,-4.65,1.17,-4.67,4.67,4.92,4.29,5.84,5.83,5.83
25.91,1.19,-4.63,1.18,-4.65,4.65,4.92,4.39,5.84,5.83,5.83
26.16,1.22,-4.62,1.20,-4.63,4.63,4.92,4.50,5.85,5.83,5.84
26.43,1.23,-4.60,1.21,-4.62,4.62,4.92,4.60,5.85,5.83,5.83
26.69,1.23,-4.60,1.21,-4.62,4.62,4.92,4.70,5.84,5.83,5.83
26.96,1.23,-4.60,1.22,-4.61,4.61,4.92,4.80,5.84,5.83,5.83
27.23,1.22,-4.61,1.22,-4.61,4.61,4.92,4.90,5.83,5.83,5.83
27.50,1.21,-4.62,1.22,-4.62,4.62,4.92,5.00,5.82,5.84,5.83
27.77,1.21,-4.63,1.22,-4.62,4.62,4.91,5.09,5.82,5.84,5.84
28.05,1.21,-4.62,1.22,-4.62,4.62,4.91,5.18,5.83,5.84,5.83
28.33,1.21,-4.63,1.21,-4.63,4.63,4.90,5.26,5.83,5.84,5.84
28.62,1.21,-4.63,1.21,-4.63,4.63,4.89,5.34,5.83,5.84,5.84
28.90,1.21,-4.64,1.21,-4.63,4.63,4.89,5.41,5.84,5.84,5.85
29.19,1.21,-4.64,1.21,-4.63,4.63,4.88,5.48,5.84,5.84,5.85
29.48,1.21,-4.63,1.21,-4.63,4.63,4.87,5.54,5.84,5.84,5.84
29.78,1.21,-4.63,1.21,-4.63,4.63,4.86,5.59,5.83,5.84,5.84
30.08,1.21,-4.63,1.21,-4.63,4.63,4.84,5.63,5.83,5.83,5.84
30.38,1.21,-4.61,1.21,-4.62,4.62,4.83,5.66,5.83,5.83,5.82
30.68,1.21,-4.61,1.20,-4.62,4.62,4.82,5.69,5.83,5.82,5.82
30.99,1.21,-4.61,1.20,-4.62,4.62,4.80,5.70,5.82,5.82,5.82
31.30,1.21,-4.61,1.20,-4.62,4.62,4.79,5.71,5.82,5.81,5.82
31.61,1.21,-4.60,1.19,-4.61,4.61,4.77,5.71,5.82,5.81,5.81
31.93,1.21,-4.58,1.19,-4.61,4.61,4.75,5.70,5.81,5.80,5.79
32.24,1.21,-4.59,1.19,-4.60,4.60,4.73,5.68,5.81,5.79,5.80
32.57,1.20,-4.58,1.19,-4.60,4.60,4.71,5.65,5.79,5.79,5.78
32.89,1.19,-4.59,1.19,-4.59,4.59,4.69,5.62,5.78,5.78,5.78
33.22,1.18,-4.59,1.19,-4.58,4.58,4.67,5.57,5.76,5.77,5.77
33.55,1.18,-4.59,1.19,-4.57,4.57,4.65,5.52,5.75,5.77,5.77
33.89,1.19,-4.57,1.20,-4.56,4.56,4.63,5.47,5.74,5.76,5.76
34.23,1.20,-4.54,1.21,-4.54,4.54,4.60,5.40,5.73,5.75,5.74
34.57,1.22,-4.52,1.23,-4.52,4.52,4.58,5.33,5.73,5.74,5.74
34.92,1.24,-4.48,1.24,-4.49,4.49,4.55,5.26,5.72,5.73,5.72
35.27,1.26,-4.48,1.26,-4.46,4.46,4.52,5.19,5.71,5.72,5.74
35.62,1.29,-4.42,1.29,-4.42,4.42,4.50,5.11,5.71,5.71,5.71
35.97,1.32,-4.39,1.32,-4.38,4.38,4.47,5.02,5.70,5.70,5.71
36.33,1.35,-4.34,1.35,-4.34,4.34,4.44,4.94,5.68,5.68,5.69
36.70,1.38,-4.29,1.38,-4.29,4.29,4.41,4.85,5.67,5.67,5.67
37.06,1.41,-4.24,1.41,-4.24,4.24,4.38,4.77,5.65,5.65,5.65
37.43,1.44,-4.19,1.43,-4.20,4.20,4.34,4.68,5.63,5.63,5.63
37.81,1.47,-4.15,1.46,-4.15,4.15,4.31,4.59,5.62,5.61,5.62
38.19,1.50,-4.09,1.48,-4.11,4.11,4.28,4.50,5.61,5.59,5.59
38.57,1.52,-4.05,1.50,-4.07,4.07,4.24,4.42,5.59,5.57,5.57
38.95,1.54,-4.02,1.51,-4.04,4.04,4.21,4.33,5.57,5.55,5.56
39.34,1.55,-3.98,1.53,-4.00,4.00,4.17,4.25,5.55,5.53,5.53
39.74,1.55,-3.95,1.53,-3.97,3.97,4.13,4.16,5.52,5.51,5.50
40.14,1.55,-3.93,1.54,-3.94,3.94,4.10,4.08,5.49,5.48,5.48
40.54,1.55,-3.91,1.54,-3.92,3.92,4.06,4.00,5.46,5.46,5.46
40.94,1.54,-3.89,1.54,-3.90,3.90,4.02,3.93,5.43,5.44,5.43
41.35,1.53,-3.89,1.54,-3.88,3.88,3.98,3.85,5.40,5.42,5.42
41.76,1.53,-3.86,1.54,-3.86,3.86,3.94,3.78,5.38,5.39,5.39
42.18,1.53,-3.85,1.54,-3.84,3.84,3.90,3.71,5.36,5.37,5.38
42.60,1.53,-3.82,1.53,-3.82,3.82,3.86,3.64,5.34,5.35,5.35
43.03,1.53,-3.80,1.53,-3.79,3.79,3.81,3.58,5.32,5.32,5.33
43.46,1.53,-3.76,1.53,-3.77,3.77,3.77,3.52,5.30,5.30,5.29
43.90,1.53,-3.74,1.52,-3.75,3.75,3.73,3.46,5.27,5.27,5.27
44.33,1.53,-3.71,1.52,-3.72,3.72,3.68,3.40,5.25,5.24,5.24
44.78,1.53,-3.69,1.52,-3.69,3.69,3.64,3.35,5.22,5.21,5.22
45.23,1.53,-3.67,1.52,-3.66,3.66,3.59,3.30,5.18,5.18,5.20
45.68,1.53,-3.62,1.52,-3.63,3.63,3.55,3.25,5.15,5.15,5.15
46.13,1.53,-3.59,1.53,-3.59,3.59,3.50,3.21,5.11,5.11,5.12
46.60,1.53,-3.55,1.53,-3.55,3.55,3.45,3.16,5.08,5.08,5.08
47.06,1.53,-3.52,1.53,-3.51,3.51,3.41,3.12,5.04,5.04,5.05
47.53,1.53,-3.48,1.53,-3.47,3.47,3.36,3.09,5.00,5.00,5.01
48.01,1.53,-3.43,1.53,-3.43,3.43,3.31,3.05,4.96,4.96,4.96
48.49,1.53,-3.39,1.53,-3.40,3.40,3.26,3.02,4.92,4.92,4.92
48.97,1.53,-3.34,1.53,-3.35,3.35,3.22,2.99,4.88,4.88,4.87
49.46,1.53,-3.31,1.53,-3.31,3.31,3.17,2.96,4.84,4.84,4.84
49.96,1.53,-3.25,1.53,-3.27,3.27,3.12,2.93,4.79,4.79,4.78
50.46,1.53,-3.22,1.53,-3.23,3.23,3.07,2.91,4.75,4.75,4.75
50.96,1.53,-3.18,1.53,-3.18,3.18,3.02,2.88,4.71,4.71,4.71
51.47,1.53,-3.14,1.53,-3.14,3.14,2.97,2.86,4.67,4.67,4.67
51.99,1.53,-3.09,1.53,-3.10,3.10,2.92,2.84,4.63,4.63,4.62
52.51,1.53,-3.06,1.53,-3.06,3.06,2.86,2.82,4.58,4.58,4.59
53.03,1.53,-3.03,1.53,-3.02,3.02,2.81,2.80,4.54,4.54,4.56
53.56,1.53,-2.98,1.53,-2.98,2.98,2.76,2.78,4.50,4.50,4.51
54.10,1.53,-2.93,1.53,-2.94,2.94,2.71,2.76,4.46,4.46,4.46
54.64,1.53,-2.89,1.53,-2.90,2.90,2.66,2.75,4.42,4.42,4.42
55.18,1.53,-2.85,1.53,-2.86,2.86,2.61,2.73,4.39,4.39,4.38
55.74,1.53,-2.80,1.53,-2.82,2.82,2.55,2.71,4.35,4.35,4.33
56.29,1.53,-2.78,1.53,-2.78,2.78,2.50,2.69,4.31,4.31,4.31
56.86,1.53,-2.74,1.53,-2.74,2.74,2.45,2.68,4.27,4.27,4.27
57.42,1.53,-2.69,1.53,-2.70,2.70,2.40,2.66,4.23,4.23,4.22
58.00,1.53,-2.65,1.53,-2.66,2.66,2.34,2.64,4.18,4.18,4.18
58.58,1.53,-2.62,1.53,-2.62,2.62,2.29,2.61,4.14,4.14,4.15
59.16,1.53,-2.59,1.53,-2.57,2.57,2.24,2.59,4.09,4.09,4.12
59.76,1.53,-2.54,1.53,-2.52,2.52,2.18,2.57,4.05,4.05,4.07
60.35,1.53,-2.49,1.53,-2.48,2.48,2.13,2.54,4.00,4.00,4.02
60.96,1.53,-2.43,1.53,-2.43,2.43,2.08,2.51,3.95,3.95,3.96
61.57,1.53,-2.37,1.53,-2.38,2.38,2.02,2.48,3.90,3.90,3.90
62.18,1.53,-2.31,1.53,-2.32,2.32,1.97,2.45,3.85,3.85,3.84
62.80,1.53,-2.25,1.53,-2.27,2.27,1.92,2.41,3.79,3.79,3.78
63.43,1.53,-2.20,1.53,-2.22,2.22,1.87,2.38,3.74,3.74,3.73
64.07,1.53,-2.15,1.53,-2.16,2.16,1.81,2.34,3.69,3.69,3.68
64.71,1.53,-2.10,1.53,-2.11,2.11,1.76,2.29,3.63,3.63,3.63
65.35,1.53,-2.04,1.53,-2.05,2.05,1.71,2.25,3.58,3.58,3.57
66.01,1.53,-1.99,1.53,-2.00,2.00,1.65,2.20,3.52,3.52,3.52
66.67,1.53,-1.95,1.53,-1.94,1.94,1.60,2.16,3.47,3.47,3.48
67.33,1.53,-1.88,1.53,-1.89,1.89,1.55,2.11,3.41,3.41,3.41
68.01,1.53,-1.83,1.53,-1.83,1.83,1.49,2.06,3.36,3.36,3.36
68.69,1.53,-1.78,1.52,-1.78,1.78,1.44,2.00,3.30,3.30,3.31
69.37,1.53,-1.73,1.52,-1.72,1.72,1.39,1.95,3.25,3.25,3.26
70.07,1.53,-1.67,1.52,-1.67,1.67,1.34,1.89,3.19,3.19,3.20
70.77,1.53,-1.60,1.52,-1.61,1.61,1.29,1.83,3.13,3.13,3.13
71.48,1.53,-1.55,1.53,-1.55,1.55,1.23,1.77,3.07,3.07,3.08
72.19,1.53,-1.49,1.53,-1.49,1.49,1.18,1.71,3.02,3.02,3.02
72.91,1.53,-1.42,1.53,-1.43,1.43,1.13,1.65,2.96,2.96,2.95
73.64,1.53,-1.37,1.53,-1.37,1.37,1.08,1.59,2.90,2.90,2.90
74.38,1.53,-1.31,1.54,-1.31,1.31,1.03,1.53,2.84,2.85,2.84
75.12,1.53,-1.26,1.54,-1.26,1.26,0.98,1.47,2.78,2.79,2.79
75.87,1.53,-1.21,1.54,-1.20,1.20,0.92,1.41,2.73,2.74,2.74
76.63,1.54,-1.14,1.54,-1.15,1.15,0.87,1.34,2.68,2.69,2.68
77.40,1.55,-1.09,1.54,-1.10,1.10,0.82,1.28,2.64,2.64,2.64
78.17,1.55,-1.03,1.53,-1.05,1.05,0.77,1.22,2.60,2.59,2.58
78.95,1.55,-0.99,1.53,-1.01,1.01,0.72,1.16,2.55,2.54,2.54
79.74,1.54,-0.95,1.52,-0.97,0.97,0.67,1.09,2.51,2.49,2.49
80.54,1.52,-0.92,1.50,-0.93,0.93,0.62,1.03,2.45,2.44,2.44
81.35,1.50,-0.88,1.49,-0.90,0.90,0.58,0.97,2.40,2.39,2.38
82.16,1.48,-0.87,1.46,-0.87,0.87,0.53,0.91,2.35,2.34,2.35
82.98,1.45,-0.84,1.44,-0.84,0.84,0.48,0.84,2.29,2.28,2.29
83.81,1.42,-0.82,1.41,-0.82,0.82,0.43,0.78,2.23,2.23,2.24
84.65,1.39,-0.79,1.39,-0.79,0.79,0.38,0.72,2.18,2.18,2.18
85.50,1.36,-0.76,1.36,-0.77,0.77,0.33,0.66,2.13,2.13,2.12
86.35,1.33,-0.74,1.32,-0.75,0.75,0.29,0.60,2.07,2.07,2.07
87.22,1.30,-0.72,1.30,-0.72,0.72,0.24,0.54,2.02,2.02,2.02
88.09,1.27,-0.69,1.27,-0.69,0.69,0.19,0.48,1.95,1.96,1.96
88.97,1.25,-0.65,1.25,-0.65,0.65,0.15,0.42,1.90,1.90,1.90
89.86,1.22,-0.63,1.23,-0.62,0.62,0.10,0.36,1.83,1.85,1.85
90.76,1.20,-0.59,1.22,-0.57,0.57,0.05,0.30,1.77,1.79,1.79
91.66,1.19,-0.53,1.20,-0.52,0.52,0.01,0.25,1.71,1.73,1.72
92.58,1.18,-0.49,1.20,-0.47,0.47,-0.04,0.19,1.65,1.67,1.67
93.51,1.18,-0.44,1.19,-0.42,0.42,-0.08,0.13,1.59,1.61,1.62
94.44,1.19,-0.37,1.19,-0.36,0.36,-0.13,0.07,1.54,1.54,1.56
95.39,1.20,-0.29,1.19,-0.30,0.30,-0.17,0.01,1.49,1.48,1.49
96.34,1.21,-0.21,1.19,-0.24,0.24,-0.22,-0.04,1.44,1.42,1.42
97.30,1.21,-0.15,1.19,-0.17,0.17,-0.26,-0.10,1.38,1.36,1.36
98.28,1.21,-0.08,1.19,-0.10,0.10,-0.30,-0.16,1.31,1.30,1.29
99.26,1.21,-0.02,1.20,-0.04,0.04,-0.35,-0.21,1.24,1.24,1.23
100.25,1.21,0.04,1.21,0.03,-0.03,-0.39,-0.27,1.18,1.18,1.17
101.25,1.21,0.09,1.21,0.09,-0.09,-0.43,-0.32,1.11,1.12,1.12
102.27,1.21,0.15,1.22,0.16,-0.16,-0.47,-0.38,1.05,1.06,1.06
103.29,1.21,0.21,1.22,0.22,-0.22,-0.52,-0.43,0.99,1.00,1.00
104.32,1.21,0.26,1.22,0.27,-0.27,-0.56,-0.49,0.93,0.95,0.95
105.37,1.22,0.33,1.22,0.33,-0.33,-0.60,-0.54,0.89,0.89,0.89
106.42,1.23,0.39,1.22,0.38,-0.38,-0.64,-0.59,0.85,0.84,0.84
107.48,1.23,0.45,1.21,0.43,-0.43,-0.68,-0.64,0.79,0.78,0.78
108.56,1.22,0.49,1.20,0.48,-0.48,-0.72,-0.69,0.73,0.72,0.73
109.64,1.21,0.54,1.19,0.53,-0.53,-0.76,-0.74,0.68,0.66,0.67
110.74,1.20,0.59,1.18,0.57,-0.57,-0.80,-0.79,0.62,0.60,0.61
111.85,1.17,0.62,1.16,0.61,-0.61,-0.84,-0.84,0.55,0.54,0.55
112.97,1.15,0.65,1.14,0.65,-0.65,-0.88,-0.89,0.50,0.49,0.50
114.10,1.12,0.68,1.11,0.68,-0.68,-0.92,-0.93,0.43,0.43,0.44
115.24,1.09,0.73,1.08,0.71,-0.71,-0.96,-0.98,0.37,0.37,0.36
116.39,1.06,0.76,1.05,0.74,-0.74,-1.00,-1.02,0.31,0.31,0.30
117.55,1.03,0.79,1.02,0.77,-0.77,-1.04,-1.07,0.26,0.25,0.24
118.73,1.00,0.82,0.99,0.80,-0.80,-1.07,-1.11,0.20,0.20,0.18
119.92,0.97,0.83,0.97,0.83,-0.83,-1.11,-1.15,0.14,0.14,0.14
121.12,0.94,0.85,0.94,0.86,-0.86,-1.15,-1.18,0.08,0.08,0.09
122.33,0.91,0.88,0.92,0.89,-0.89,-1.19,-1.22,0.01,0.03,0.03
123.55,0.89,0.91,0.90,0.93,-0.93,-1.23,-1.25,-0.05,-0.03,-0.02
124.79,0.88,0.95,0.89,0.97,-0.97,-1.26,-1.29,-0.10,-0.08,-0.07
126.03,0.86,0.99,0.88,1.02,-1.02,-1.30,-1.32,-0.16,-0.14,-0.13
127.29,0.86,1.04,0.87,1.06,-1.06,-1.34,-1.35,-0.21,-0.19,-0.18
128.57,0.86,1.11,0.86,1.11,-1.11,-1.37,-1.38,-0.25,-0.25,-0.25
129.85,0.87,1.17,0.86,1.16,-1.16,-1.41,-1.40,-0.30,-0.30,-0.30
131.15,0.88,1.24,0.86,1.22,-1.22,-1.45,-1.43,-0.34,-0.36,-0.36
132.46,0.88,1.29,0.86,1.27,-1.27,-1.48,-1.45,-0.40,-0.41,-0.41
133.79,0.88,1.35,0.87,1.33,-1.33,-1.52,-1.48,-0.46,-0.47,-0.47
135.12,0.88,1.40,0.87,1.39,-1.39,-1.56,-1.50,-0.51,-0.52,-0.52
136.48,0.88,1.45,0.87,1.44,-1.44,-1.59,-1.52,-0.57,-0.57,-0.57
137.84,0.88,1.50,0.87,1.50,-1.50,-1.63,-1.54,-0.62,-0.62,-0.62
139.22,0.88,1.56,0.87,1.55,-1.55,-1.67,-1.56,-0.67,-0.68,-0.68
140.61,0.88,1.60,0.87,1.60,-1.60,-1.71,-1.58,-0.72,-0.72,-0.72
142.02,0.88,1.66,0.87,1.64,-1.64,-1.74,-1.60,-0.77,-0.77,-0.78
143.44,0.88,1.70,0.87,1.68,-1.68,-1.78,-1.62,-0.81,-0.82,-0.82
144.87,0.88,1.74,0.86,1.73,-1.73,-1.82,-1.64,-0.85,-0.86,-0.86
146.32,0.88,1.79,0.86,1.77,-1.77,-1.86,-1.66,-0.89,-0.91,-0.91
147.78,0.87,1.82,0.86,1.81,-1.81,-1.89,-1.68,-0.95,-0.95,-0.95
149.26,0.87,1.87,0.86,1.86,-1.86,-1.93,-1.70,-0.99,-1.00,-1.00
150.75,0.86,1.90,0.87,1.91,-1.91,-1.97,-1.73,-1.05,-1.04,-1.04
152.26,0.86,1.94,0.87,1.96,-1.96,-2.01,-1.75,-1.10,-1.08,-1.08
153.78,0.87,1.99,0.88,2.01,-2.01,-2.05,-1.77,-1.14,-1.13,-1.12
155.32,0.88,2.04,0.89,2.06,-2.06,-2.09,-1.80,-1.19,-1.17,-1.16
156.88,0.90,2.11,0.91,2.12,-2.12,-2.13,-1.82,-1.23,-1.21,-1.21
158.44,0.92,2.18,0.93,2.19,-2.19,-2.18,-1.85,-1.27,-1.26,-1.26
160.03,0.95,2.25,0.95,2.25,-2.25,-2.22,-1.87,-1.31,-1.30,-1.30
161.63,0.98,2.32,0.98,2.32,-2.32,-2.26,-1.90,-1.35,-1.35,-1.34
163.24,1.01,2.40,1.00,2.40,-2.40,-2.31,-1.93,-1.39,-1.39,-1.39
164.88,1.04,2.48,1.03,2.47,-2.47,-2.35,-1.97,-1.44,-1.44,-1.44
166.53,1.07,2.56,1.06,2.55,-2.55,-2.40,-2.00,-1.48,-1.49,-1.49
168.19,1.10,2.62,1.09,2.63,-2.63,-2.45,-2.03,-1.53,-1.53,-1.52
169.87,1.13,2.71,1.12,2.70,-2.70,-2.50,-2.07,-1.57,-1.58,-1.58
171.57,1.16,2.79,1.14,2.77,-2.77,-2.55,-2.11,-1.62,-1.63,-1.63
173.29,1.18,2.85,1.17,2.84,-2.84,-2.60,-2.15,-1.67,-1.68,-1.67
175.02,1.20,2.92,1.19,2.91,-2.91,-2.65,-2.19,-1.71,-1.72,-1.72
176.77,1.22,2.99,1.20,2.97,-2.97,-2.70,-2.24,-1.75,-1.77,-1.77
178.54,1.23,3.04,1.21,3.03,-3.03,-2.76,-2.28,-1.80,-1.81,-1.81
180.32,1.23,3.10,1.22,3.08,-3.08,-2.81,-2.33,-1.86,-1.86,-1.87
182.13,1.23,3.13,1.23,3.14,-3.14,-2.87,-2.38,-1.91,-1.91,-1.90
183.95,1.23,3.18,1.23,3.19,-3.19,-2.93,-2.43,-1.96,-1.95,-1.95
185.79,1.22,3.22,1.23,3.23,-3.23,-2.98,-2.48,-2.02,-2.00,-2.00
187.65,1.23,3.27,1.23,3.27,-3.27,-3.04,-2.53,-2.05,-2.04,-2.04
189.52,1.23,3.31,1.22,3.31,-3.31,-3.10,-2.59,-2.08,-2.09,-2.08
191.42,1.22,3.34,1.21,3.34,-3.34,-3.16,-2.65,-2.12,-2.13,-2.12
193.33,1.21,3.37,1.19,3.36,-3.36,-3.22,-2.71,-2.16,-2.17,-2.16
195.27,1.19,3.40,1.18,3.38,-3.38,-3.27,-2.77,-2.20,-2.21,-2.21
197.22,1.17,3.43,1.15,3.40,-3.40,-3.33,-2.83,-2.24,-2.25,-2.26
199.19,1.15,3.44,1.13,3.42,-3.42,-3.38,-2.89,-2.27,-2.28,-2.29
201.18,1.12,3.45,1.11,3.43,-3.43,-3.43,-2.95,-2.31,-2.32,-2.33
203.19,1.09,3.45,1.08,3.44,-3.44,-3.48,-3.02,-2.35,-2.35,-2.36
205.23,1.06,3.44,1.06,3.45,-3.45,-3.52,-3.08,-2.39,-2.39,-2.38
207.28,1.03,3.44,1.03,3.46,-3.46,-3.56,-3.14,-2.43,-2.42,-2.41
209.35,1.00,3.45,1.01,3.46,-3.46,-3.59,-3.21,-2.46,-2.45,-2.45
211.44,0.97,3.45,0.98,3.47,-3.47,-3.62,-3.27,-2.50,-2.48,-2.48
213.56,0.95,3.45,0.96,3.47,-3.47,-3.64,-3.33,-2.53,-2.51,-2.50
215.69,0.93,3.46,0.94,3.48,-3.48,-3.66,-3.40,-2.55,-2.54,-2.53
217.85,0.92,3.48,0.92,3.48,-3.48,-3.66,-3.46,-2.57,-2.56,-2.56
220.03,0.90,3.49,0.90,3.49,-3.49,-3.67,-3.52,-2.59,-2.59,-2.59
222.23,0.89,3.51,0.88,3.49,-3.49,-3.66,-3.57,-2.61,-2.61,-2.62
224.45,0.87,3.50,0.86,3.50,-3.50,-3.65,-3.63,-2.63,-2.63,-2.63
226.70,0.86,3.52,0.84,3.50,-3.50,-3.64,-3.68,-2.64,-2.66,-2.66
228.96,0.84,3.51,0.82,3.50,-3.50,-3.62,-3.73,-2.66,-2.68,-2.67
231.25,0.82,3.51,0.80,3.49,-3.49,-3.59,-3.77,-2.68,-2.69,-2.69
233.57,0.80,3.51,0.78,3.49,-3.49,-3.57,-3.81,-2.69,-2.71,-2.71
235.90,0.77,3.49,0.75,3.48,-3.48,-3.54,-3.85,-2.71,-2.72,-2.72
238.26,0.74,3.49,0.73,3.46,-3.46,-3.50,-3.88,-2.73,-2.74,-2.75
240.64,0.71,3.45,0.70,3.45,-3.45,-3.47,-3.91,-2.74,-2.75,-2.74
243.05,0.68,3.44,0.68,3.43,-3.43,-3.44,-3.93,-2.76,-2.76,-2.76
245.48,0.65,3.42,0.65,3.42,-3.42,-3.40,-3.94,-2.77,-2.77,-2.77
247.93,0.62,3.40,0.63,3.41,-3.41,-3.37,-3.95,-2.79,-2.77,-2.78
250.41,0.59,3.36,0.61,3.39,-3.39,-3.34,-3.96,-2.81,-2.78,-2.77
252.92,0.57,3.35,0.60,3.38,-3.38,-3.30,-3.96,-2.81,-2.78,-2.78
255.45,0.56,3.35,0.58,3.37,-3.37,-3.27,-3.95,-2.82,-2.79,-2.79
258.00,0.56,3.35,0.57,3.36,-3.36,-3.24,-3.94,-2.81,-2.79,-2.79
260.58,0.56,3.35,0.56,3.35,-3.35,-3.21,-3.92,-2.80,-2.80,-2.79
263.19,0.56,3.35,0.55,3.34,-3.34,-3.18,-3.90,-2.79,-2.80,-2.79
265.82,0.55,3.35,0.53,3.33,-3.33,-3.15,-3.87,-2.79,-2.80,-2.80
268.48,0.55,3.35,0.52,3.32,-3.32,-3.12,-3.84,-2.78,-2.80,-2.80
271.16,0.54,3.34,0.50,3.31,-3.31,-3.10,-3.80,-2.77,-2.81,-2.80
273.87,0.51,3.31,0.49,3.29,-3.29,-3.07,-3.76,-2.79,-2.81,-2.80
276.61,0.49,3.29,0.47,3.28,-3.28,-3.05,-3.72,-2.79,-2.81,-2.80
279.38,0.46,3.28,0.45,3.25,-3.25,-3.03,-3.67,-2.80,-2.81,-2.82
282.17,0.43,3.25,0.42,3.23,-3.23,-3.01,-3.62,-2.80,-2.81,-2.82
284.99,0.40,3.21,0.39,3.20,-3.20,-2.99,-3.57,-2.80,-2.81,-2.81
287.84,0.36,3.16,0.36,3.17,-3.17,-2.97,-3.51,-2.81,-2.81,-2.80
290.72,0.33,3.14,0.33,3.14,-3.14,-2.95,-3.46,-2.81,-2.80,-2.81
293.63,0.31,3.11,0.31,3.11,-3.11,-2.93,-3.40,-2.80,-2.80,-2.80
296.57,0.28,3.07,0.29,3.08,-3.08,-2.92,-3.34,-2.81,-2.80,-2.79
299.53,0.26,3.05,0.27,3.06,-3.06,-2.90,-3.29,-2.81,-2.79,-2.79
302.53,0.24,3.01,0.26,3.04,-3.04,-2.89,-3.23,-2.81,-2.78,-2.77
305.55,0.22,3.00,0.25,3.03,-3.03,-2.87,-3.17,-2.81,-2.78,-2.78
308.61,0.21,2.98,0.24,3.01,-3.01,-2.86,-3.11,-2.81,-2.77,-2.77
311.69,0.22,2.98,0.23,3.00,-3.00,-2.85,-3.05,-2.78,-2.76,-2.76
314.81,0.23,2.99,0.23,2.99,-2.99,-2.83,-3.00,-2.76,-2.76,-2.76
317.96,0.25,3.00,0.23,2.98,-2.98,-2.82,-2.94,-2.73,-2.75,-2.75
321.14,0.25,2.99,0.22,2.96,-2.96,-2.81,-2.89,-2.72,-2.74,-2.74
324.35,0.25,2.99,0.21,2.95,-2.95,-2.80,-2.83,-2.70,-2.73,-2.74
327.59,0.24,2.95,0.20,2.93,-2.93,-2.79,-2.78,-2.69,-2.73,-2.71
330.87,0.22,2.94,0.19,2.91,-2.91,-2.78,-2.73,-2.70,-2.72,-2.72
334.18,0.19,2.90,0.18,2.89,-2.89,-2.77,-2.68,-2.70,-2.71,-2.71
337.52,0.17,2.88,0.16,2.86,-2.86,-2.76,-2.64,-2.70,-2.70,-2.71
340.90,0.14,2.83,0.13,2.83,-2.83,-2.75,-2.59,-2.69,-2.69,-2.69
344.30,0.11,2.79,0.11,2.79,-2.79,-2.74,-2.55,-2.69,-2.69,-2.68
347.75,0.08,2.76,0.08,2.76,-2.76,-2.73,-2.51,-2.68,-2.68,-2.68
351.23,0.05,2.73,0.05,2.72,-2.72,-2.72,-2.47,-2.67,-2.67,-2.68
354.74,0.02,2.67,0.02,2.68,-2.68,-2.71,-2.43,-2.66,-2.66,-2.65
358.28,-0.01,2.65,-0.01,2.65,-2.65,-2.70,-2.39,-2.66,-2.66,-2.66
361.87,-0.04,2.61,-0.03,2.61,-2.61,-2.69,-2.36,-2.66,-2.65,-2.65
365.49,-0.06,2.58,-0.06,2.59,-2.59,-2.68,-2.33,-2.65,-2.64,-2.64
369.14,-0.08,2.54,-0.07,2.56,-2.56,-2.67,-2.30,-2.64,-2.63,-2.62
372.83,-0.10,2.52,-0.09,2.54,-2.54,-2.66,-2.27,-2.64,-2.62,-2.62
376.56,-0.11,2.51,-0.10,2.52,-2.52,-2.65,-2.24,-2.63,-2.61,-2.62
380.33,-0.11,2.50,-0.10,2.50,-2.50,-2.64,-2.22,-2.62,-2.61,-2.61
384.13,-0.11,2.48,-0.10,2.49,-2.49,-2.63,-2.19,-2.61,-2.60,-2.59
387.97,-0.10,2.49,-0.10,2.48,-2.48,-2.62,-2.17,-2.59,-2.59,-2.59
391.85,-0.09,2.49,-0.10,2.48,-2.48,-2.61,-2.15,-2.57,-2.58,-2.58
395.77,-0.09,2.48,-0.10,2.47,-2.47,-2.59,-2.13,-2.57,-2.57,-2.57
399.73,-0.09,2.47,-0.09,2.47,-2.47,-2.58,-2.12,-2.56,-2.56,-2.56
403.72,-0.08,2.45,-0.09,2.46,-2.46,-2.57,-2.10,-2.54,-2.55,-2.53
407.76,-0.07,2.47,-0.09,2.45,-2.45,-2.56,-2.09,-2.53,-2.54,-2.54
411.84,-0.07,2.46,-0.09,2.44,-2.44,-2.55,-2.07,-2.52,-2.53,-2.53
415.96,-0.07,2.44,-0.09,2.43,-2.43,-2.53,-2.06,-2.50,-2.52,-2.51
420.12,-0.08,2.43,-0.10,2.41,-2.41,-2.52,-2.05,-2.50,-2.51,-2.51
424.32,-0.09,2.41,-0.11,2.39,-2.39,-2.50,-2.04,-2.48,-2.50,-2.50
428.56,-0.11,2.37,-0.13,2.37,-2.37,-2.49,-2.03,-2.48,-2.49,-2.48
432.85,-0.13,2.34,-0.15,2.34,-2.34,-2.48,-2.03,-2.47,-2.48,-2.47
437.18,-0.16,2.32,-0.17,2.30,-2.30,-2.46,-2.02,-2.47,-2.47,-2.48
441.55,-0.18,2.29,-0.19,2.27,-2.27,-2.44,-2.01,-2.45,-2.46,-2.47
445.96,-0.22,2.24,-0.22,2.23,-2.23,-2.43,-2.01,-2.46,-2.46,-2.46
450.42,-0.25,2.20,-0.25,2.19,-2.19,-2.41,-2.00,-2.45,-2.45,-2.45
454.93,-0.28,2.16,-0.28,2.15,-2.15,-2.39,-2.00,-2.44,-2.44,-2.44
459.48,-0.31,2.12,-0.31,2.12,-2.12,-2.37,-1.99,-2.43,-2.43,-2.43
464.07,-0.34,2.07,-0.34,2.08,-2.08,-2.35,-1.98,-2.43,-2.42,-2.41
468.71,-0.37,2.03,-0.36,2.05,-2.05,-2.33,-1.98,-2.42,-2.41,-2.40
473.40,-0.39,2.01,-0.38,2.02,-2.02,-2.31,-1.97,-2.41,-2.40,-2.40
478.13,-0.41,1.98,-0.40,1.99,-1.99,-2.29,-1.97,-2.41,-2.39,-2.39
482.91,-0.42,1.96,-0.41,1.97,-1.97,-2.26,-1.96,-2.39,-2.38,-2.38
487.74,-0.44,1.93,-0.42,1.94,-1.94,-2.24,-1.95,-2.39,-2.37,-2.37
492.62,-0.44,1.92,-0.43,1.92,-1.92,-2.21,-1.94,-2.37,-2.36,-2.36
497.55,-0.44,1.91,-0.44,1.91,-1.91,-2.19,-1.94,-2.35,-2.35,-2.35
502.52,-0.43,1.91,-0.44,1.90,-1.90,-2.16,-1.93,-2.33,-2.33,-2.34
507.55,-0.42,1.90,-0.44,1.88,-1.88,-2.13,-1.92,-2.31,-2.32,-2.32
512.62,-0.42,1.89,-0.44,1.87,-1.87,-2.10,-1.91,-2.30,-2.31,-2.31
