frequency,raw,error,smoothed,error_smoothed,equalization,parametric_eq,fixed_band_eq,equalized_raw,equalized_smoothed,target
20.00,-9.97,-11.25,-9.97,-11.25,11.25,10.55,4.18,1.27,1.27,1.28
20.20,-9.87,-11.20,-9.87,-11.20,11.20,10.58,4.29,1.33,1.33,1.33
20.40,-9.77,-11.15,-9.77,-11.15,11.15,10.60,4.40,1.38,1.38,1.38
20.61,-9.68,-11.09,-9.68,-11.09,11.10,10.62,4.52,1.41,1.42,1.41
20.81,-9.58,-11.04,-9.58,-11.04,11.04,10.63,4.64,1.46,1.46,1.46
21.02,-9.48,-10.98,-9.49,-10.98,10.98,10.64,4.76,1.50,1.49,1.50
21.23,-9.40,-10.92,-9.40,-10.92,10.92,10.64,4.89,1.52,1.52,1.52
21.44,-9.32,-10.86,-9.32,-10.86,10.86,10.64,5.02,1.54,1.54,1.54
21.66,-9.23,-10.79,-9.24,-10.79,10.79,10.63,5.15,1.56,1.56,1.56
21.87,-9.15,-10.72,-9.15,-10.72,10.72,10.61,5.29,1.57,1.57,1.57
22.09,-9.07,-10.66,-9.07,-10.65,10.65,10.59,5.43,1.58,1.58,1.59
22.31,-8.98,-10.58,-8.99,-10.58,10.57,10.56,5.58,1.59,1.59,1.60
22.54,-8.90,-10.50,-8.90,-10.50,10.50,10.53,5.73,1.59,1.60,1.60
22.76,-8.82,-10.42,-8.82,-10.41,10.42,10.49,5.88,1.60,1.61,1.60
22.99,-8.73,-10.32,-8.74,-10.33,10.35,10.45,6.04,1.62,1.61,1.59
23.22,-8.66,-10.25,-8.66,-10.25,10.27,10.40,6.20,1.61,1.61,1.59
23.45,-8.59,-10.18,-8.59,-10.18,10.19,10.35,6.36,1.59,1.59,1.59
23.69,-8.52,-10.12,-8.52,-10.11,10.10,10.30,6.53,1.58,1.58,1.60
23.92,-8.44,-10.04,-8.44,-10.04,10.01,10.24,6.70,1.57,1.57,1.60
24.16,-8.34,-9.94,-8.34,-9.94,9.91,10.17,6.88,1.57,1.57,1.60
24.40,-8.23,-9.84,-8.23,-9.83,9.82,10.11,7.06,1.59,1.59,1.61
24.65,-8.11,-9.71,-8.11,-9.71,9.73,10.04,7.24,1.62,1.62,1.60
24.89,-8.00,-9.60,-8.01,-9.61,9.64,9.96,7.43,1.64,1.63,1.60
25.14,-7.92,-9.52,-7.92,-9.52,9.55,9.89,7.62,1.63,1.63,1.60
25.39,-7.85,-9.46,-7.85,-9.46,9.47,9.81,7.81,1.62,1.62,1.61
25.65,-7.79,-9.40,-7.79,-9.40,9.39,9.73,8.00,1.60,1.60,1.61
25.91,-7.73,-9.33,-7.73,-9.33,9.31,9.64,8.20,1.58,1.58,1.60
26.16,-7.66,-9.26,-7.66,-9.26,9.24,9.56,8.39,1.58,1.58,1.60
26.43,-7.58,-9.18,-7.58,-9.18,9.17,9.47,8.59,1.59,1.59,1.60
26.69,-7.49,-9.09,-7.49,-9.09,9.10,9.38,8.79,1.60,1.60,1.60
26.96,-7.41,-9.01,-7.42,-9.02,9.02,9.29,8.98,1.61,1.60,1.60
27.23,-7.34,-8.94,-7.34,-8.94,8.95,9.20,9.18,1.60,1.60,1.60
27.50,-7.28,-8.88,-7.28,-8.87,8.88,9.11,9.37,1.59,1.60,1.60
27.77,-7.21,-8.80,-7.21,-8.80,8.81,9.02,9.55,1.60,1.60,1.59
28.05,-7.15,-8.74,-7.15,-8.74,8.75,8.93,9.73,1.59,1.59,1.59
28.33,-7.10,-8.68,-7.10,-8.68,8.69,8.83,9.90,1.59,1.59,1.58
28.62,-7.05,-8.63,-7.05,-8.63,8.63,8.74,10.06,1.58,1.58,1.58
28.90,-7.00,-8.59,-7.00,-8.58,8.58,8.65,10.21,1.58,1.58,1.59
29.19,-6.94,-8.52,-6.95,-8.53,8.52,8.55,10.35,1.58,1.58,1.58
29.48,-6.89,-8.48,-6.89,-8.47,8.47,8.46,10.48,1.58,1.58,1.59
29.78,-6.83,-8.41,-6.83,-8.41,8.41,8.37,10.58,1.58,1.58,1.58
30.08,-6.77,-8.36,-6.77,-8.36,8.35,8.28,10.68,1.58,1.58,1.59
30.38,-6.71,-8.29,-6.71,-8.29,8.29,8.19,10.75,1.58,1.58,1.58
30.68,-6.65,-8.23,-6.65,-8.23,8.22,8.10,10.80,1.57,1.57,1.58
30.99,-6.58,-8.16,-6.58,-8.16,8.15,8.01,10.84,1.57,1.57,1.58
31.30,-6.51,-8.08,-6.51,-8.08,8.08,7.92,10.85,1.57,1.57,1.57
31.61,-6.43,-8.00,-6.43,-8.00,8.01,7.83,10.84,1.57,1.57,1.57
31.93,-6.36,-7.93,-6.36,-7.93,7.93,7.75,10.82,1.57,1.57,1.57
32.24,-6.29,-7.85,-6.29,-7.86,7.86,7.66,10.77,1.57,1.57,1.56
32.57,-6.23,-7.79,-6.23,-7.79,7.79,7.58,10.70,1.56,1.57,1.56
32.89,-6.16,-7.72,-6.16,-7.72,7.72,7.49,10.62,1.56,1.56,1.56
33.22,-6.10,-7.65,-6.11,-7.66,7.66,7.41,10.52,1.56,1.55,1.55
33.55,-6.05,-7.60,-6.05,-7.59,7.59,7.33,10.41,1.54,1.54,1.55
33.89,-5.99,-7.53,-5.99,-7.53,7.52,7.25,10.28,1.53,1.54,1.54
34.23,-5.92,-7.46,-5.92,-7.46,7.45,7.18,10.14,1.53,1.53,1.54
34.57,-5.85,-7.38,-5.85,-7.38,7.38,7.10,10.00,1.52,1.52,1.53
34.92,-5.78,-7.31,-5.78,-7.31,7.29,7.03,9.84,1.51,1.51,1.53
35.27,-5.70,-7.22,-5.70,-7.22,7.21,6.95,9.68,1.51,1.51,1.52
35.62,-5.62,-7.14,-5.62,-7.14,7.13,6.88,9.51,1.51,1.51,1.52
35.97,-5.54,-7.06,-5.54,-7.06,7.06,6.82,9.34,1.52,1.52,1.52
36.33,-5.46,-6.98,-5.45,-6.97,7.00,6.75,9.17,1.54,1.54,1.52
36.70,-5.38,-6.89,-5.38,-6.90,6.94,6.68,9.00,1.56,1.56,1.51
37.06,-5.32,-6.83,-5.34,-6.86,6.90,6.62,8.83,1.57,1.55,1.51
37.43,-5.33,-6.85,-5.33,-6.85,6.85,6.56,8.65,1.52,1.52,1.52
37.81,-5.34,-6.86,-5.33,-6.84,6.81,6.50,8.48,1.47,1.49,1.52
38.19,-5.31,-6.82,-5.30,-6.82,6.77,6.44,8.31,1.46,1.47,1.51
38.57,-5.24,-6.76,-5.25,-6.76,6.74,6.38,8.15,1.49,1.49,1.52
38.95,-5.17,-6.70,-5.17,-6.69,6.69,6.33,7.98,1.52,1.52,1.53
39.34,-5.10,-6.62,-5.10,-6.62,6.64,6.27,7.82,1.54,1.54,1.52
39.74,-5.04,-6.56,-5.04,-6.56,6.58,6.22,7.67,1.53,1.54,1.52
40.14,-4.98,-6.50,-4.99,-6.51,6.51,6.17,7.52,1.52,1.52,1.52
40.54,-4.94,-6.46,-4.94,-6.46,6.44,6.12,7.37,1.50,1.50,1.52
40.94,-4.89,-6.40,-4.87,-6.39,6.37,6.08,7.22,1.48,1.50,1.51
41.35,-4.80,-6.31,-4.79,-6.30,6.32,6.03,7.08,1.52,1.52,1.51
41.76,-4.70,-6.20,-4.72,-6.22,6.26,5.99,6.95,1.56,1.54,1.50
42.18,-4.65,-6.15,-4.68,-6.17,6.20,5.95,6.82,1.54,1.52,1.50
42.60,-4.66,-6.15,-4.66,-6.15,6.13,5.91,6.69,1.47,1.47,1.49
43.03,-4.67,-6.15,-4.63,-6.11,6.07,5.87,6.57,1.40,1.44,1.48
43.46,-4.57,-6.04,-4.57,-6.04,6.01,5.83,6.45,1.44,1.44,1.47
43.90,-4.47,-5.92,-4.50,-5.95,5.95,5.80,6.34,1.47,1.45,1.45
44.33,-4.43,-5.86,-4.43,-5.86,5.89,5.76,6.24,1.45,1.45,1.43
44.78,-4.40,-5.81,-4.39,-5.80,5.82,5.73,6.13,1.42,1.43,1.41
45.23,-4.35,-5.75,-4.35,-5.75,5.75,5.69,6.04,1.40,1.40,1.40
45.68,-4.30,-5.69,-4.30,-5.69,5.68,5.66,5.94,1.38,1.38,1.39
46.13,-4.25,-5.62,-4.25,-5.62,5.62,5.63,5.85,1.36,1.37,1.37
46.60,-4.19,-5.56,-4.20,-5.56,5.55,5.60,5.77,1.36,1.36,1.37
47.06,-4.14,-5.49,-4.15,-5.50,5.50,5.57,5.69,1.36,1.35,1.35
47.53,-4.10,-5.44,-4.10,-5.44,5.44,5.54,5.61,1.34,1.35,1.34
48.01,-4.05,-5.39,-4.05,-5.38,5.39,5.51,5.54,1.34,1.34,1.34
48.49,-4.00,-5.32,-4.00,-5.32,5.33,5.48,5.47,1.32,1.33,1.32
48.97,-3.95,-5.25,-3.97,-5.27,5.27,5.45,5.40,1.31,1.29,1.30
49.46,-3.95,-5.23,-3.95,-5.23,5.21,5.42,5.34,1.26,1.25,1.28
49.96,-3.95,-5.21,-3.91,-5.18,5.15,5.39,5.28,1.20,1.24,1.26
50.46,-3.86,-5.11,-3.86,-5.11,5.10,5.36,5.22,1.24,1.25,1.25
50.96,-3.76,-5.00,-3.80,-5.03,5.06,5.32,5.17,1.30,1.26,1.24
51.47,-3.75,-4.97,-3.75,-4.97,5.02,5.29,5.12,1.27,1.26,1.22
51.99,-3.75,-4.96,-3.75,-4.96,4.98,5.26,5.07,1.22,1.22,1.21
52.51,-3.76,-4.96,-3.76,-4.96,4.94,5.22,5.02,1.18,1.18,1.20
53.03,-3.76,-4.96,-3.74,-4.94,4.90,5.18,4.98,1.14,1.16,1.20
53.56,-3.71,-4.89,-3.72,-4.90,4.88,5.15,4.93,1.17,1.16,1.18
54.10,-3.67,-4.84,-3.68,-4.85,4.85,5.11,4.89,1.18,1.17,1.17
54.64,-3.66,-4.81,-3.66,-4.81,4.83,5.06,4.85,1.17,1.17,1.15
55.18,-3.65,-4.80,-3.65,-4.79,4.81,5.02,4.81,1.16,1.16,1.15
55.74,-3.65,-4.78,-3.65,-4.78,4.78,4.98,4.77,1.13,1.13,1.13
56.29,-3.65,-4.77,-3.65,-4.77,4.76,4.93,4.73,1.11,1.11,1.12
56.86,-3.65,-4.76,-3.65,-4.75,4.75,4.88,4.69,1.09,1.09,1.11
57.42,-3.65,-4.73,-3.65,-4.74,4.74,4.83,4.65,1.08,1.08,1.08
58.00,-3.65,-4.72,-3.65,-4.72,4.73,4.78,4.60,1.08,1.08,1.07
58.58,-3.65,-4.71,-3.65,-4.71,4.72,4.73,4.56,1.07,1.07,1.06
59.16,-3.66,-4.70,-3.66,-4.70,4.72,4.67,4.51,1.06,1.06,1.04
59.76,-3.68,-4.70,-3.69,-4.70,4.71,4.62,4.47,1.03,1.02,1.02
60.35,-3.71,-4.69,-3.72,-4.70,4.69,4.56,4.42,0.98,0.98,0.98
60.96,-3.76,-4.70,-3.74,-4.68,4.67,4.50,4.36,0.91,0.93,0.94
61.57,-3.75,-4.65,-3.76,-4.66,4.63,4.44,4.31,0.88,0.87,0.90
62.18,-3.75,-4.61,-3.76,-4.62,4.58,4.38,4.25,0.83,0.82,0.86
62.80,-3.75,-4.56,-3.74,-4.55,4.53,4.32,4.20,0.78,0.79,0.81
63.43,-3.71,-4.48,-3.70,-4.47,4.46,4.26,4.13,0.75,0.76,0.77
64.07,-3.64,-4.36,-3.65,-4.37,4.39,4.20,4.07,0.75,0.74,0.72
64.71,-3.58,-4.26,-3.59,-4.27,4.31,4.14,4.00,0.73,0.72,0.68
65.35,-3.55,-4.19,-3.56,-4.20,4.22,4.08,3.93,0.67,0.66,0.64
66.01,-3.55,-4.14,-3.55,-4.14,4.14,4.02,3.86,0.59,0.59,0.59
66.67,-3.55,-4.09,-3.54,-4.08,4.05,3.95,3.79,0.50,0.51,0.54
67.33,-3.52,-4.01,-3.51,-4.00,3.98,3.89,3.71,0.46,0.47,0.49
68.01,-3.46,-3.91,-3.45,-3.90,3.90,3.82,3.63,0.44,0.45,0.45
68.69,-3.38,-3.78,-3.40,-3.80,3.82,3.76,3.55,0.44,0.43,0.40
69.37,-3.35,-3.70,-3.36,-3.71,3.74,3.69,3.47,0.39,0.38,0.35
70.07,-3.35,-3.65,-3.35,-3.65,3.65,3.62,3.39,0.30,0.30,0.30
70.77,-3.35,-3.60,-3.34,-3.59,3.56,3.55,3.30,0.21,0.21,0.25
71.48,-3.32,-3.52,-3.30,-3.50,3.46,3.48,3.22,0.14,0.16,0.20
72.19,-3.25,-3.38,-3.25,-3.38,3.37,3.40,3.13,0.12,0.13,0.13
72.91,-3.16,-3.23,-3.19,-3.26,3.28,3.32,3.04,0.12,0.09,0.07
73.64,-3.15,-3.17,-3.15,-3.17,3.19,3.24,2.96,0.04,0.04,0.02
74.38,-3.14,-3.10,-3.13,-3.08,3.10,3.16,2.87,-0.04,-0.03,-0.04
75.12,-3.11,-3.01,-3.11,-3.01,3.00,3.08,2.78,-0.11,-0.11,-0.10
75.87,-3.06,-2.90,-3.08,-2.92,2.91,2.99,2.69,-0.15,-0.17,-0.16
76.63,-3.05,-2.84,-3.04,-2.83,2.82,2.90,2.60,-0.23,-0.22,-0.21
77.40,-3.01,-2.75,-3.00,-2.73,2.73,2.81,2.52,-0.28,-0.27,-0.26
78.17,-2.94,-2.62,-2.95,-2.64,2.64,2.72,2.43,-0.30,-0.31,-0.32
78.95,-2.90,-2.54,-2.90,-2.54,2.55,2.62,2.34,-0.35,-0.36,-0.36
79.74,-2.86,-2.45,-2.87,-2.45,2.45,2.53,2.25,-0.41,-0.42,-0.41
80.54,-2.84,-2.38,-2.84,-2.38,2.35,2.44,2.17,-0.49,-0.48,-0.46
81.35,-2.80,-2.29,-2.78,-2.27,2.27,2.35,2.08,-0.54,-0.52,-0.51
82.16,-2.73,-2.17,-2.73,-2.17,2.19,2.25,2.00,-0.55,-0.54,-0.56
82.98,-2.65,-2.05,-2.68,-2.07,2.11,2.16,1.92,-0.54,-0.57,-0.60
83.81,-2.65,-2.00,-2.65,-2.00,2.04,2.07,1.83,-0.61,-0.61,-0.65
84.65,-2.65,-1.95,-2.65,-1.95,1.96,1.99,1.75,-0.69,-0.69,-0.70
85.50,-2.65,-1.91,-2.66,-1.92,1.88,1.90,1.67,-0.77,-0.78,-0.74
86.35,-2.65,-1.86,-2.65,-1.86,1.80,1.81,1.59,-0.85,-0.85,-0.79
87.22,-2.63,-1.79,-2.60,-1.76,1.72,1.73,1.51,-0.91,-0.88,-0.84
88.09,-2.53,-1.64,-2.54,-1.64,1.65,1.65,1.43,-0.89,-0.89,-0.89
88.97,-2.44,-1.49,-2.47,-1.53,1.57,1.57,1.36,-0.88,-0.91,-0.95
89.86,-2.44,-1.44,-2.44,-1.44,1.48,1.49,1.28,-0.96,-0.95,-1.00
90.76,-2.44,-1.39,-2.44,-1.38,1.40,1.42,1.20,-1.05,-1.04,-1.05
91.66,-2.44,-1.34,-2.44,-1.34,1.31,1.35,1.13,-1.13,-1.13,-1.10
92.58,-2.44,-1.28,-2.42,-1.26,1.24,1.28,1.06,-1.20,-1.19,-1.16
93.51,-2.39,-1.18,-2.39,-1.18,1.17,1.21,0.98,-1.22,-1.22,-1.21
94.44,-2.34,-1.09,-2.36,-1.10,1.11,1.14,0.91,-1.23,-1.25,-1.25
95.39,-2.34,-1.04,-2.34,-1.04,1.06,1.07,0.84,-1.28,-1.28,-1.30
96.34,-2.34,-0.99,-2.34,-0.99,1.01,1.01,0.77,-1.33,-1.33,-1.35
97.30,-2.35,-0.95,-2.35,-0.95,0.96,0.95,0.70,-1.39,-1.39,-1.40
98.28,-2.36,-0.91,-2.36,-0.91,0.91,0.89,0.63,-1.45,-1.45,-1.45
99.26,-2.37,-0.88,-2.38,-0.88,0.87,0.83,0.56,-1.50,-1.51,-1.49
100.25,-2.39,-0.85,-2.40,-0.85,0.83,0.78,0.50,-1.56,-1.57,-1.54
101.25,-2.41,-0.82,-2.40,-0.81,0.79,0.72,0.43,-1.63,-1.62,-1.59
102.27,-2.41,-0.77,-2.40,-0.76,0.74,0.67,0.37,-1.67,-1.65,-1.64
103.29,-2.37,-0.68,-2.38,-0.69,0.70,0.62,0.30,-1.67,-1.68,-1.69
104.32,-2.35,-0.62,-2.37,-0.63,0.65,0.57,0.24,-1.70,-1.71,-1.73
105.37,-2.37,-0.59,-2.37,-0.59,0.61,0.52,0.18,-1.76,-1.76,-1.78
106.42,-2.40,-0.57,-2.39,-0.56,0.57,0.47,0.12,-1.83,-1.82,-1.83
107.48,-2.42,-0.53,-2.42,-0.54,0.54,0.42,0.06,-1.89,-1.89,-1.89
108.56,-2.45,-0.51,-2.45,-0.51,0.50,0.38,0.00,-1.95,-1.95,-1.94
109.64,-2.47,-0.48,-2.47,-0.48,0.47,0.33,-0.05,-2.00,-2.00,-1.99
110.74,-2.49,-0.44,-2.49,-0.45,0.44,0.29,-0.10,-2.05,-2.06,-2.05
111.85,-2.51,-0.42,-2.51,-0.41,0.40,0.25,-0.15,-2.11,-2.11,-2.09
112.97,-2.51,-0.36,-2.52,-0.37,0.36,0.21,-0.20,-2.15,-2.15,-2.15
114.10,-2.52,-0.32,-2.52,-0.32,0.32,0.17,-0.25,-2.20,-2.20,-2.20
115.24,-2.52,-0.27,-2.52,-0.27,0.28,0.13,-0.29,-2.24,-2.25,-2.25
116.39,-2.52,-0.22,-2.52,-0.22,0.23,0.10,-0.34,-2.29,-2.29,-2.30
117.55,-2.52,-0.18,-2.52,-0.18,0.19,0.06,-0.38,-2.33,-2.33,-2.34
118.73,-2.51,-0.13,-2.52,-0.14,0.14,0.02,-0.41,-2.37,-2.38,-2.38
119.92,-2.51,-0.10,-2.51,-0.10,0.09,-0.01,-0.45,-2.42,-2.42,-2.41
121.12,-2.50,-0.05,-2.51,-0.06,0.03,-0.04,-0.48,-2.47,-2.47,-2.45
122.33,-2.49,-0.01,-2.48,0.00,-0.02,-0.07,-0.51,-2.51,-2.50,-2.48
123.55,-2.45,0.06,-2.44,0.07,-0.08,-0.11,-0.53,-2.53,-2.52,-2.51
124.79,-2.38,0.16,-2.40,0.14,-0.13,-0.14,-0.56,-2.51,-2.53,-2.54
126.03,-2.37,0.20,-2.37,0.20,-0.18,-0.17,-0.58,-2.55,-2.55,-2.57
127.29,-2.36,0.23,-2.35,0.24,-0.22,-0.19,-0.59,-2.59,-2.58,-2.59
128.57,-2.35,0.28,-2.35,0.28,-0.26,-0.22,-0.61,-2.61,-2.61,-2.63
129.85,-2.35,0.31,-2.36,0.30,-0.29,-0.25,-0.62,-2.64,-2.65,-2.66
131.15,-2.37,0.32,-2.38,0.31,-0.31,-0.27,-0.63,-2.69,-2.69,-2.69
132.46,-2.42,0.30,-2.41,0.32,-0.33,-0.30,-0.64,-2.75,-2.73,-2.72
133.79,-2.43,0.32,-2.42,0.33,-0.34,-0.32,-0.64,-2.77,-2.76,-2.75
135.12,-2.43,0.35,-2.44,0.34,-0.34,-0.35,-0.64,-2.77,-2.78,-2.78
136.48,-2.43,0.37,-2.45,0.36,-0.35,-0.37,-0.64,-2.78,-2.80,-2.80
137.84,-2.48,0.36,-2.48,0.36,-0.36,-0.39,-0.64,-2.84,-2.84,-2.84
139.22,-2.51,0.36,-2.50,0.37,-0.38,-0.41,-0.63,-2.89,-2.88,-2.87
140.61,-2.52,0.38,-2.52,0.38,-0.39,-0.43,-0.63,-2.91,-2.91,-2.90
142.02,-2.52,0.40,-2.52,0.40,-0.41,-0.45,-0.62,-2.93,-2.93,-2.92
143.44,-2.52,0.43,-2.52,0.44,-0.42,-0.47,-0.61,-2.94,-2.94,-2.95
144.87,-2.52,0.47,-2.53,0.46,-0.44,-0.49,-0.60,-2.96,-2.96,-2.99
146.32,-2.53,0.50,-2.55,0.48,-0.46,-0.51,-0.59,-2.99,-3.01,-3.03
147.78,-2.59,0.47,-2.58,0.49,-0.49,-0.53,-0.58,-3.09,-3.07,-3.06
149.26,-2.61,0.50,-2.61,0.51,-0.53,-0.54,-0.57,-3.15,-3.14,-3.11
150.75,-2.62,0.55,-2.62,0.55,-0.58,-0.56,-0.55,-3.21,-3.21,-3.17
152.26,-2.62,0.62,-2.62,0.62,-0.64,-0.57,-0.54,-3.26,-3.26,-3.24
153.78,-2.62,0.69,-2.62,0.69,-0.70,-0.59,-0.52,-3.32,-3.32,-3.31
155.32,-2.62,0.76,-2.62,0.77,-0.76,-0.60,-0.51,-3.38,-3.38,-3.38
156.88,-2.62,0.84,-2.62,0.84,-0.82,-0.61,-0.49,-3.44,-3.44,-3.46
158.44,-2.62,0.92,-2.63,0.92,-0.87,-0.62,-0.48,-3.49,-3.50,-3.54
160.03,-2.65,0.97,-2.66,0.96,-0.92,-0.63,-0.46,-3.57,-3.58,-3.62
161.63,-2.71,0.98,-2.72,0.97,-0.96,-0.64,-0.45,-3.68,-3.68,-3.69
163.24,-2.79,0.96,-2.78,0.97,-1.00,-0.65,-0.44,-3.79,-3.77,-3.75
164.88,-2.83,0.97,-2.82,0.98,-1.02,-0.66,-0.42,-3.85,-3.84,-3.80
166.53,-2.83,1.02,-2.84,1.01,-1.04,-0.67,-0.41,-3.87,-3.88,-3.85
168.19,-2.84,1.05,-2.84,1.05,-1.05,-0.68,-0.39,-3.89,-3.89,-3.89
169.87,-2.85,1.08,-2.84,1.08,-1.05,-0.68,-0.38,-3.90,-3.89,-3.93
171.57,-2.85,1.10,-2.86,1.09,-1.05,-0.69,-0.36,-3.90,-3.91,-3.95
173.29,-2.88,1.08,-2.90,1.07,-1.05,-0.70,-0.35,-3.93,-3.95,-3.96
175.02,-2.95,1.02,-2.93,1.04,-1.05,-0.70,-0.34,-4.00,-3.99,-3.97
176.77,-2.97,1.01,-2.97,1.02,-1.05,-0.70,-0.33,-4.02,-4.01,-3.98
178.54,-2.97,1.02,-2.98,1.01,-1.04,-0.71,-0.31,-4.01,-4.02,-3.99
180.32,-2.97,1.01,-2.97,1.01,-1.02,-0.71,-0.30,-3.99,-3.99,-3.98
182.13,-2.96,1.01,-2.96,1.02,-1.01,-0.71,-0.29,-3.97,-3.96,-3.97
183.95,-2.95,1.03,-2.95,1.03,-0.99,-0.71,-0.28,-3.94,-3.94,-3.98
185.79,-2.95,1.03,-2.97,1.01,-0.98,-0.71,-0.27,-3.94,-3.96,-3.98
187.65,-3.01,0.99,-3.01,0.99,-0.98,-0.71,-0.26,-3.99,-4.00,-4.00
189.52,-3.07,0.94,-3.06,0.96,-0.99,-0.71,-0.25,-4.06,-4.04,-4.01
191.42,-3.09,0.94,-3.09,0.95,-1.00,-0.71,-0.24,-4.09,-4.08,-4.03
193.33,-3.08,0.97,-3.09,0.96,-1.00,-0.70,-0.23,-4.08,-4.09,-4.05
195.27,-3.07,1.00,-3.07,1.00,-1.01,-0.70,-0.22,-4.08,-4.08,-4.07
197.22,-3.05,1.04,-3.05,1.04,-1.01,-0.69,-0.21,-4.07,-4.06,-4.09
199.19,-3.04,1.07,-3.04,1.07,-1.02,-0.69,-0.20,-4.06,-4.06,-4.11
201.18,-3.04,1.09,-3.07,1.06,-1.02,-0.68,-0.20,-4.06,-4.09,-4.13
203.19,-3.12,1.03,-3.12,1.03,-1.02,-0.67,-0.19,-4.14,-4.14,-4.15
205.23,-3.21,0.96,-3.18,0.98,-1.01,-0.66,-0.18,-4.22,-4.19,-4.17
207.28,-3.23,0.95,-3.22,0.97,-0.99,-0.65,-0.17,-4.22,-4.21,-4.18
209.35,-3.23,0.97,-3.25,0.96,-0.97,-0.64,-0.16,-4.20,-4.22,-4.20
211.44,-3.25,0.98,-3.28,0.94,-0.95,-0.63,-0.16,-4.20,-4.23,-4.23
213.56,-3.34,0.90,-3.31,0.93,-0.93,-0.62,-0.15,-4.27,-4.24,-4.24
215.69,-3.36,0.89,-3.34,0.91,-0.91,-0.61,-0.14,-4.27,-4.25,-4.25
217.85,-3.33,0.93,-3.37,0.90,-0.90,-0.59,-0.13,-4.23,-4.26,-4.26
220.03,-3.38,0.89,-3.38,0.90,-0.88,-0.57,-0.12,-4.26,-4.26,-4.27
222.23,-3.43,0.87,-3.42,0.87,-0.85,-0.56,-0.12,-4.29,-4.27,-4.30
224.45,-3.45,0.84,-3.48,0.82,-0.83,-0.54,-0.11,-4.28,-4.31,-4.29
226.70,-3.53,0.76,-3.52,0.77,-0.79,-0.52,-0.10,-4.33,-4.31,-4.29
228.96,-3.57,0.71,-3.53,0.75,-0.76,-0.50,-0.09,-4.33,-4.29,-4.28
231.25,-3.53,0.74,-3.55,0.72,-0.71,-0.48,-0.08,-4.24,-4.27,-4.27
233.57,-3.53,0.73,-3.59,0.68,-0.66,-0.46,-0.07,-4.19,-4.25,-4.26
235.90,-3.66,0.59,-3.63,0.63,-0.60,-0.43,-0.06,-4.27,-4.23,-4.25
238.26,-3.71,0.53,-3.67,0.56,-0.55,-0.41,-0.05,-4.26,-4.22,-4.24
240.64,-3.68,0.53,-3.72,0.49,-0.50,-0.38,-0.03,-4.18,-4.22,-4.21
243.05,-3.72,0.46,-3.75,0.43,-0.45,-0.35,-0.02,-4.17,-4.21,-4.18
245.48,-3.83,0.33,-3.80,0.36,-0.40,-0.32,-0.01,-4.23,-4.19,-4.16
247.93,-3.84,0.29,-3.82,0.32,-0.34,-0.29,0.01,-4.18,-4.16,-4.13
250.41,-3.81,0.30,-3.81,0.30,-0.29,-0.26,0.02,-4.10,-4.10,-4.11
252.92,-3.77,0.31,-3.82,0.27,-0.23,-0.22,0.04,-4.00,-4.05,-4.08
255.45,-3.85,0.21,-3.86,0.21,-0.18,-0.19,0.05,-4.03,-4.04,-4.06
258.00,-3.95,0.09,-3.91,0.13,-0.12,-0.15,0.07,-4.08,-4.04,-4.04
260.58,-3.98,0.04,-3.98,0.04,-0.06,-0.11,0.09,-4.04,-4.04,-4.02
263.19,-3.99,0.00,-4.02,-0.03,0.01,-0.07,0.11,-3.98,-4.01,-3.99
265.82,-4.08,-0.11,-4.04,-0.06,0.09,-0.03,0.13,-3.99,-3.95,-3.97
268.48,-4.07,-0.12,-4.09,-0.14,0.17,0.02,0.15,-3.90,-3.92,-3.95
271.16,-4.10,-0.18,-4.16,-0.24,0.24,0.06,0.17,-3.86,-3.92,-3.92
273.87,-4.27,-0.37,-4.23,-0.33,0.30,0.11,0.19,-3.97,-3.92,-3.90
276.61,-4.31,-0.44,-4.28,-0.41,0.37,0.16,0.21,-3.95,-3.92,-3.87
279.38,-4.29,-0.45,-4.31,-0.46,0.43,0.21,0.23,-3.86,-3.88,-3.84
282.17,-4.28,-0.46,-4.31,-0.49,0.50,0.27,0.26,-3.78,-3.81,-3.82
284.99,-4.32,-0.54,-4.31,-0.52,0.57,0.32,0.28,-3.75,-3.74,-3.78
287.84,-4.36,-0.60,-4.34,-0.58,0.64,0.38,0.31,-3.73,-3.71,-3.76
290.72,-4.35,-0.62,-4.42,-0.69,0.70,0.44,0.34,-3.66,-3.72,-3.73
293.63,-4.50,-0.80,-4.48,-0.78,0.76,0.50,0.36,-3.75,-3.72,-3.70
296.57,-4.58,-0.91,-4.52,-0.85,0.82,0.56,0.39,-3.77,-3.71,-3.67
299.53,-4.53,-0.89,-4.58,-0.94,0.88,0.63,0.42,-3.65,-3.70,-3.64
302.53,-4.56,-0.94,-4.58,-0.96,0.95,0.69,0.45,-3.61,-3.62,-3.62
305.55,-4.64,-1.06,-4.57,-0.99,1.03,0.76,0.48,-3.61,-3.54,-3.58
308.61,-4.55,-0.99,-4.59,-1.04,1.09,0.83,0.51,-3.46,-3.50,-3.56
311.69,-4.61,-1.08,-4.64,-1.11,1.14,0.90,0.54,-3.47,-3.50,-3.53
314.81,-4.71,-1.20,-4.71,-1.19,1.19,0.97,0.57,-3.53,-3.52,-3.51
317.96,-4.82,-1.33,-4.78,-1.29,1.22,1.04,0.61,-3.60,-3.56,-3.49
321.14,-4.82,-1.34,-4.81,-1.34,1.26,1.12,0.64,-3.56,-3.55,-3.48
324.35,-4.78,-1.32,-4.81,-1.34,1.31,1.19,0.68,-3.47,-3.50,-3.46
327.59,-4.78,-1.33,-4.77,-1.31,1.36,1.26,0.71,-3.42,-3.41,-3.45
330.87,-4.77,-1.33,-4.74,-1.31,1.40,1.34,0.75,-3.37,-3.35,-3.44
334.18,-4.72,-1.30,-4.79,-1.36,1.43,1.41,0.78,-3.29,-3.36,-3.42
337.52,-4.84,-1.43,-4.87,-1.46,1.46,1.48,0.82,-3.39,-3.41,-3.41
340.90,-5.02,-1.62,-4.96,-1.56,1.49,1.54,0.86,-3.53,-3.47,-3.40
344.30,-5.03,-1.64,-5.02,-1.63,1.54,1.61,0.90,-3.49,-3.48,-3.39
347.75,-5.00,-1.61,-4.99,-1.60,1.60,1.66,0.94,-3.41,-3.39,-3.39
351.23,-4.94,-1.56,-4.96,-1.58,1.65,1.72,0.98,-3.29,-3.31,-3.38
354.74,-4.94,-1.55,-5.01,-1.63,1.69,1.77,1.03,-3.25,-3.32,-3.39
358.28,-5.13,-1.75,-5.10,-1.71,1.72,1.81,1.07,-3.41,-3.37,-3.38
361.87,-5.23,-1.85,-5.17,-1.79,1.74,1.84,1.11,-3.49,-3.44,-3.38
365.49,-5.18,-1.81,-5.21,-1.83,1.75,1.87,1.16,-3.43,-3.46,-3.37
369.14,-5.16,-1.78,-5.18,-1.80,1.76,1.89,1.20,-3.40,-3.41,-3.38
372.83,-5.15,-1.77,-5.15,-1.76,1.78,1.90,1.25,-3.37,-3.37,-3.38
376.56,-5.14,-1.75,-5.14,-1.76,1.79,1.90,1.29,-3.35,-3.35,-3.39
380.33,-5.14,-1.76,-5.14,-1.76,1.80,1.90,1.34,-3.34,-3.34,-3.38
384.13,-5.16,-1.78,-5.17,-1.78,1.81,1.89,1.39,-3.35,-3.36,-3.38
387.97,-5.20,-1.81,-5.21,-1.83,1.83,1.88,1.44,-3.37,-3.39,-3.39
391.85,-5.28,-1.88,-5.26,-1.87,1.86,1.87,1.49,-3.43,-3.41,-3.40
395.77,-5.31,-1.92,-5.29,-1.90,1.89,1.87,1.53,-3.42,-3.40,-3.39
399.73,-5.32,-1.92,-5.33,-1.93,1.93,1.87,1.58,-3.39,-3.40,-3.40
403.72,-5.34,-1.94,-5.39,-1.98,1.97,1.88,1.63,-3.37,-3.42,-3.40
407.76,-5.47,-2.05,-5.44,-2.02,2.01,1.90,1.68,-3.46,-3.43,-3.42
411.84,-5.50,-2.08,-5.46,-2.04,2.04,1.93,1.73,-3.46,-3.41,-3.42
415.96,-5.45,-2.03,-5.47,-2.05,2.07,1.97,1.77,-3.39,-3.41,-3.42
420.12,-5.43,-2.01,-5.50,-2.07,2.08,2.01,1.82,-3.35,-3.42,-3.42
424.32,-5.56,-2.14,-5.53,-2.11,2.09,2.06,1.87,-3.47,-3.44,-3.42
428.56,-5.60,-2.19,-5.55,-2.14,2.10,2.12,1.91,-3.50,-3.45,-3.41
432.85,-5.52,-2.12,-5.55,-2.14,2.11,2.17,1.95,-3.41,-3.43,-3.40
437.18,-5.47,-2.08,-5.48,-2.10,2.13,2.21,1.99,-3.35,-3.35,-3.39
441.55,-5.44,-2.09,-5.42,-2.07,2.14,2.25,2.03,-3.30,-3.29,-3.35
445.96,-5.39,-2.07,-5.43,-2.11,2.14,2.28,2.07,-3.25,-3.29,-3.32
450.42,-5.43,-2.14,-5.44,-2.16,2.14,2.30,2.10,-3.29,-3.30,-3.29
454.93,-5.50,-2.26,-5.43,-2.18,2.14,2.31,2.13,-3.36,-3.29,-3.24
459.48,-5.37,-2.17,-5.39,-2.19,2.14,2.31,2.15,-3.24,-3.25,-3.20
