frequency,raw,error,smoothed,error_smoothed,equalization,parametric_eq,fixed_band_eq,equalized_raw,equalized_smoothed,target
20.00,-26.07,-25.33,-26.03,-25.31,25.31,24.06,12.05,-0.77,-0.73,-0.75
20.20,-26.01,-25.30,-26.01,-25.31,25.31,24.47,12.23,-0.70,-0.70,-0.72
20.40,-25.96,-25.28,-25.98,-25.30,25.30,24.84,12.42,-0.66,-0.68,-0.68
20.61,-25.90,-25.24,-25.94,-25.28,25.28,25.15,12.61,-0.62,-0.66,-0.67
20.81,-25.85,-25.22,-25.89,-25.25,25.25,25.39,12.81,-0.60,-0.64,-0.63
21.02,-25.80,-25.20,-25.83,-25.20,25.20,25.54,13.01,-0.60,-0.63,-0.61
21.23,-25.74,-25.15,-25.76,-25.14,25.14,25.62,13.21,-0.60,-0.61,-0.60
21.44,-25.64,-25.06,-25.67,-25.07,25.07,25.61,13.42,-0.57,-0.60,-0.58
21.66,-25.57,-25.00,-25.58,-24.99,24.99,25.52,13.64,-0.59,-0.59,-0.58
21.87,-25.51,-24.94,-25.47,-24.89,24.89,25.37,13.86,-0.62,-0.58,-0.57
22.09,-25.45,-24.89,-25.35,-24.78,24.78,25.17,14.08,-0.67,-0.57,-0.57
22.31,-25.35,-24.78,-25.22,-24.66,24.66,24.92,14.31,-0.69,-0.57,-0.57
22.54,-25.17,-24.61,-25.08,-24.51,24.51,24.65,14.55,-0.66,-0.56,-0.57
22.76,-24.98,-24.41,-24.92,-24.35,24.35,24.36,14.79,-0.63,-0.56,-0.57
22.99,-24.74,-24.17,-24.75,-24.18,24.18,24.06,15.05,-0.56,-0.57,-0.58
23.22,-24.52,-23.95,-24.57,-24.00,24.00,23.76,15.30,-0.52,-0.57,-0.58
23.45,-24.29,-23.72,-24.38,-23.80,23.80,23.46,15.57,-0.49,-0.57,-0.58
23.69,-24.11,-23.54,-24.18,-23.60,23.60,23.17,15.85,-0.51,-0.57,-0.58
23.92,-23.94,-23.36,-23.97,-23.40,23.40,22.89,16.13,-0.54,-0.57,-0.58
24.16,-23.75,-23.17,-23.76,-23.18,23.18,22.62,16.42,-0.57,-0.58,-0.58
24.40,-23.56,-22.98,-23.55,-22.97,22.97,22.36,16.72,-0.59,-0.58,-0.58
24.65,-23.36,-22.78,-23.34,-22.76,22.76,22.12,17.03,-0.60,-0.58,-0.59
24.89,-23.16,-22.57,-23.14,-22.56,22.56,21.89,17.36,-0.60,-0.58,-0.59
25.14,-22.95,-22.36,-22.95,-22.36,22.36,21.68,17.69,-0.59,-0.58,-0.59
25.39,-22.75,-22.16,-22.76,-22.18,22.18,21.49,18.04,-0.57,-0.59,-0.59
25.65,-22.56,-21.98,-22.58,-21.99,21.99,21.30,18.40,-0.57,-0.59,-0.59
25.91,-22.39,-21.79,-22.40,-21.81,21.81,21.14,18.77,-0.58,-0.59,-0.59
26.16,-22.18,-21.58,-22.22,-21.63,21.63,20.98,19.16,-0.55,-0.59,-0.60
26.43,-22.02,-21.43,-22.04,-21.44,21.44,20.84,19.56,-0.58,-0.60,-0.60
26.69,-21.85,-21.26,-21.86,-21.27,21.27,20.71,19.98,-0.59,-0.60,-0.60
26.96,-21.68,-21.09,-21.69,-21.09,21.09,20.59,20.42,-0.59,-0.60,-0.60
27.23,-21.51,-20.91,-21.52,-20.92,20.92,20.49,20.87,-0.60,-0.60,-0.60
27.50,-21.35,-20.75,-21.35,-20.74,20.74,20.39,21.34,-0.61,-0.61,-0.61
27.77,-21.20,-20.58,-21.18,-20.57,20.57,20.30,21.83,-0.63,-0.61,-0.62
28.05,-21.04,-20.43,-21.00,-20.39,20.39,20.23,22.33,-0.65,-0.62,-0.62
28.33,-20.85,-20.23,-20.83,-20.21,20.21,20.15,22.85,-0.64,-0.62,-0.63
28.62,-20.67,-20.05,-20.65,-20.03,20.03,20.09,23.39,-0.65,-0.62,-0.63
28.90,-20.50,-19.88,-20.47,-19.85,19.85,20.03,23.93,-0.65,-0.63,-0.63
29.19,-20.31,-19.68,-20.30,-19.66,19.66,19.97,24.47,-0.65,-0.63,-0.64
29.48,-20.11,-19.47,-20.12,-19.48,19.48,19.91,24.99,-0.63,-0.64,-0.64
29.78,-19.92,-19.28,-19.94,-19.30,19.30,19.85,25.49,-0.63,-0.64,-0.65
30.08,-19.73,-19.09,-19.76,-19.11,19.11,19.79,25.95,-0.62,-0.65,-0.65
30.38,-19.55,-18.90,-19.59,-18.93,18.93,19.73,26.32,-0.62,-0.65,-0.65
30.68,-19.38,-18.73,-19.41,-18.75,18.75,19.66,26.60,-0.63,-0.66,-0.66
30.99,-19.21,-18.55,-19.24,-18.57,18.57,19.59,26.76,-0.64,-0.66,-0.66
31.30,-19.05,-18.38,-19.07,-18.40,18.40,19.50,26.77,-0.66,-0.67,-0.67
31.61,-18.89,-18.22,-18.90,-18.22,18.22,19.41,26.64,-0.67,-0.68,-0.68
31.93,-18.73,-18.05,-18.73,-18.04,18.04,19.30,26.37,-0.69,-0.68,-0.68
32.24,-18.57,-17.87,-18.55,-17.86,17.86,19.18,25.99,-0.71,-0.69,-0.70
32.57,-18.40,-17.71,-18.38,-17.69,17.69,19.04,25.52,-0.72,-0.70,-0.70
32.89,-18.23,-17.53,-18.21,-17.51,17.51,18.89,24.98,-0.72,-0.70,-0.71
33.22,-18.06,-17.35,-18.03,-17.32,17.32,18.72,24.41,-0.74,-0.71,-0.72
33.55,-17.87,-17.15,-17.86,-17.14,17.14,18.53,23.82,-0.73,-0.72,-0.72
33.89,-17.68,-16.96,-17.67,-16.95,16.95,18.33,23.22,-0.74,-0.73,-0.73
34.23,-17.47,-16.74,-17.49,-16.75,16.75,18.12,22.63,-0.72,-0.74,-0.74
34.57,-17.30,-16.56,-17.30,-16.55,16.55,17.88,22.04,-0.75,-0.75,-0.75
34.92,-17.08,-16.33,-17.11,-16.35,16.35,17.64,21.47,-0.73,-0.75,-0.75
35.27,-16.91,-16.15,-16.91,-16.15,16.15,17.38,20.91,-0.77,-0.76,-0.76
35.62,-16.70,-15.93,-16.71,-15.94,15.94,17.11,20.37,-0.77,-0.77,-0.78
35.97,-16.51,-15.72,-16.51,-15.72,15.72,16.83,19.84,-0.78,-0.78,-0.79
36.33,-16.31,-15.51,-16.30,-15.51,15.51,16.54,19.34,-0.80,-0.79,-0.80
36.70,-16.10,-15.30,-16.10,-15.29,15.29,16.24,18.85,-0.81,-0.80,-0.81
37.06,-15.92,-15.10,-15.89,-15.08,15.08,15.94,18.37,-0.84,-0.81,-0.82
37.43,-15.70,-14.87,-15.68,-14.86,14.86,15.63,17.91,-0.84,-0.83,-0.83
37.81,-15.48,-14.65,-15.48,-14.64,14.64,15.32,17.46,-0.84,-0.84,-0.84
38.19,-15.26,-14.42,-15.27,-14.42,14.42,15.01,17.03,-0.84,-0.85,-0.85
38.57,-15.05,-14.20,-15.06,-14.20,14.20,14.70,16.61,-0.85,-0.86,-0.86
38.95,-14.83,-13.96,-14.85,-13.98,13.98,14.39,16.19,-0.85,-0.87,-0.87
39.34,-14.66,-13.77,-14.64,-13.77,13.77,14.08,15.79,-0.89,-0.88,-0.89
39.74,-14.44,-13.55,-14.44,-13.55,13.55,13.77,15.40,-0.89,-0.89,-0.90
40.14,-14.22,-13.32,-14.24,-13.34,13.34,13.46,15.02,-0.88,-0.90,-0.90
40.54,-14.05,-13.14,-14.04,-13.13,13.13,13.16,14.65,-0.92,-0.91,-0.92
40.94,-13.85,-12.93,-13.85,-12.93,12.93,12.86,14.29,-0.92,-0.92,-0.93
41.35,-13.65,-12.72,-13.67,-12.73,12.73,12.56,13.93,-0.92,-0.93,-0.94
41.76,-13.47,-12.52,-13.49,-12.54,12.54,12.27,13.58,-0.93,-0.95,-0.95
42.18,-13.29,-12.34,-13.31,-12.35,12.35,11.99,13.23,-0.94,-0.96,-0.96
42.60,-13.12,-12.15,-13.14,-12.17,12.17,11.70,12.89,-0.95,-0.97,-0.97
43.03,-12.95,-11.98,-12.97,-11.98,11.98,11.42,12.56,-0.97,-0.99,-0.98
43.46,-12.80,-11.81,-12.80,-11.80,11.80,11.15,12.23,-1.00,-1.00,-1.00
43.90,-12.64,-11.63,-12.64,-11.62,11.62,10.88,11.91,-1.02,-1.02,-1.01
44.33,-12.49,-11.45,-12.48,-11.45,11.45,10.62,11.59,-1.04,-1.03,-1.04
44.78,-12.33,-11.28,-12.32,-11.27,11.27,10.36,11.27,-1.06,-1.05,-1.05
45.23,-12.17,-11.10,-12.15,-11.09,11.09,10.11,10.96,-1.08,-1.06,-1.07
45.68,-12.00,-10.92,-11.99,-10.91,10.91,9.86,10.65,-1.09,-1.08,-1.09
46.13,-11.82,-10.71,-11.83,-10.73,10.73,9.61,10.35,-1.09,-1.10,-1.11
46.60,-11.66,-10.55,-11.66,-10.54,10.54,9.38,10.05,-1.12,-1.12,-1.12
47.06,-11.49,-10.36,-11.49,-10.35,10.35,9.14,9.75,-1.14,-1.14,-1.14
47.53,-11.33,-10.18,-11.31,-10.15,10.15,8.91,9.45,-1.18,-1.16,-1.16
48.01,-11.14,-9.98,-11.14,-9.95,9.95,8.68,9.16,-1.19,-1.18,-1.17
48.49,-10.96,-9.77,-10.95,-9.75,9.75,8.46,8.86,-1.21,-1.20,-1.19
48.97,-10.77,-9.55,-10.77,-9.54,9.54,8.25,8.58,-1.23,-1.23,-1.23
49.46,-10.58,-9.33,-10.58,-9.33,9.33,8.03,8.29,-1.25,-1.25,-1.26
49.96,-10.40,-9.12,-10.39,-9.12,9.12,7.82,8.00,-1.29,-1.27,-1.28
50.46,-10.19,-8.89,-10.20,-8.90,8.90,7.62,7.72,-1.29,-1.30,-1.30
50.96,-10.00,-8.68,-10.00,-8.68,8.68,7.42,7.45,-1.32,-1.32,-1.33
51.47,-9.80,-8.45,-9.81,-8.46,8.46,7.22,7.17,-1.34,-1.35,-1.36
51.99,-9.61,-8.24,-9.61,-8.24,8.24,7.03,6.90,-1.37,-1.37,-1.37
52.51,-9.41,-8.02,-9.42,-8.02,8.02,6.84,6.63,-1.40,-1.40,-1.39
53.03,-9.22,-7.81,-9.22,-7.80,7.80,6.65,6.36,-1.42,-1.42,-1.42
53.56,-9.02,-7.58,-9.03,-7.58,7.58,6.47,6.10,-1.44,-1.45,-1.45
54.10,-8.81,-7.35,-8.83,-7.36,7.36,6.29,5.85,-1.45,-1.47,-1.46
54.64,-8.63,-7.14,-8.64,-7.15,7.15,6.11,5.59,-1.49,-1.49,-1.49
55.18,-8.44,-6.93,-8.45,-6.93,6.93,5.94,5.35,-1.51,-1.51,-1.52
55.74,-8.24,-6.70,-8.25,-6.72,6.72,5.76,5.11,-1.53,-1.54,-1.54
56.29,-8.05,-6.49,-8.06,-6.50,6.50,5.59,4.87,-1.55,-1.56,-1.57
56.86,-7.88,-6.30,-7.87,-6.28,6.28,5.43,4.64,-1.60,-1.58,-1.58
57.42,-7.67,-6.06,-7.67,-6.06,6.06,5.26,4.42,-1.61,-1.61,-1.62
58.00,-7.49,-5.86,-7.47,-5.84,5.84,5.10,4.21,-1.65,-1.63,-1.64
58.58,-7.30,-5.65,-7.28,-5.62,5.62,4.94,4.00,-1.68,-1.66,-1.66
59.16,-7.08,-5.41,-7.08,-5.40,5.40,4.79,3.81,-1.68,-1.68,-1.68
59.76,-6.91,-5.22,-6.89,-5.18,5.18,4.63,3.62,-1.74,-1.71,-1.69
60.35,-6.69,-4.97,-6.69,-4.95,4.95,4.48,3.44,-1.74,-1.74,-1.73
60.96,-6.47,-4.72,-6.49,-4.73,4.73,4.33,3.27,-1.75,-1.76,-1.75
61.57,-6.30,-4.51,-6.29,-4.50,4.50,4.18,3.11,-1.80,-1.79,-1.79
62.18,-6.08,-4.26,-6.10,-4.28,4.28,4.04,2.96,-1.80,-1.82,-1.83
62.80,-5.89,-4.04,-5.90,-4.06,4.06,3.89,2.82,-1.83,-1.85,-1.86
63.43,-5.71,-3.83,-5.71,-3.83,3.83,3.75,2.69,-1.88,-1.88,-1.89
64.07,-5.52,-3.61,-5.52,-3.61,3.61,3.61,2.57,-1.91,-1.91,-1.91
64.71,-5.33,-3.40,-5.33,-3.39,3.39,3.47,2.46,-1.94,-1.94,-1.94
65.35,-5.16,-3.20,-5.15,-3.18,3.18,3.33,2.36,-1.98,-1.97,-1.97
66.01,-4.98,-2.99,-4.97,-2.97,2.97,3.20,2.27,-2.01,-2.00,-2.00
66.67,-4.80,-2.78,-4.79,-2.76,2.76,3.06,2.18,-2.04,-2.03,-2.03
67.33,-4.63,-2.58,-4.62,-2.57,2.57,2.93,2.11,-2.06,-2.06,-2.06
68.01,-4.47,-2.39,-4.46,-2.38,2.38,2.80,2.04,-2.10,-2.08,-2.09
68.69,-4.29,-2.18,-4.31,-2.19,2.19,2.67,1.97,-2.10,-2.11,-2.12
69.37,-4.14,-2.00,-4.16,-2.02,2.02,2.54,1.92,-2.12,-2.15,-2.15
70.07,-4.00,-1.83,-4.03,-1.85,1.85,2.41,1.86,-2.15,-2.18,-2.18
70.77,-3.87,-1.67,-3.90,-1.69,1.69,2.29,1.82,-2.18,-2.21,-2.21
71.48,-3.76,-1.53,-3.78,-1.54,1.54,2.16,1.77,-2.22,-2.24,-2.23
72.19,-3.63,-1.36,-3.67,-1.40,1.40,2.04,1.74,-2.23,-2.27,-2.28
72.91,-3.57,-1.27,-3.57,-1.27,1.27,1.92,1.70,-2.31,-2.31,-2.31
73.64,-3.47,-1.13,-3.48,-1.14,1.14,1.80,1.66,-2.33,-2.34,-2.35
74.38,-3.42,-1.05,-3.40,-1.02,1.02,1.68,1.63,-2.40,-2.37,-2.38
75.12,-3.34,-0.93,-3.32,-0.91,0.91,1.57,1.60,-2.43,-2.41,-2.42
75.87,-3.26,-0.82,-3.25,-0.81,0.81,1.45,1.57,-2.45,-2.44,-2.45
76.63,-3.21,-0.74,-3.18,-0.71,0.71,1.34,1.54,-2.50,-2.47,-2.48
77.40,-3.14,-0.64,-3.12,-0.61,0.61,1.23,1.51,-2.53,-2.51,-2.51
78.17,-3.07,-0.53,-3.06,-0.52,0.52,1.12,1.48,-2.55,-2.54,-2.55
78.95,-3.00,-0.43,-3.01,-0.43,0.43,1.01,1.45,-2.57,-2.58,-2.58
79.74,-2.95,-0.35,-2.96,-0.35,0.35,0.90,1.42,-2.60,-2.61,-2.61
80.54,-2.90,-0.26,-2.91,-0.27,0.27,0.80,1.39,-2.64,-2.64,-2.65
81.35,-2.86,-0.19,-2.86,-0.18,0.18,0.70,1.35,-2.68,-2.68,-2.68
82.16,-2.80,-0.09,-2.82,-0.11,0.11,0.59,1.32,-2.70,-2.71,-2.72
82.98,-2.77,-0.03,-2.78,-0.03,0.03,0.50,1.28,-2.74,-2.75,-2.75
83.81,-2.74,0.04,-2.74,0.05,-0.05,0.40,1.24,-2.79,-2.78,-2.79
84.65,-2.69,0.13,-2.70,0.12,-0.12,0.31,1.20,-2.81,-2.82,-2.83
85.50,-2.68,0.17,-2.67,0.19,-0.19,0.22,1.16,-2.87,-2.86,-2.85
86.35,-2.65,0.24,-2.64,0.26,-0.26,0.13,1.11,-2.91,-2.90,-2.90
87.22,-2.64,0.29,-2.61,0.33,-0.33,0.04,1.06,-2.97,-2.94,-2.93
88.09,-2.60,0.37,-2.58,0.39,-0.39,-0.04,1.01,-2.99,-2.98,-2.97
88.97,-2.58,0.43,-2.56,0.46,-0.46,-0.12,0.96,-3.04,-3.02,-3.02
89.86,-2.55,0.50,-2.55,0.51,-0.51,-0.20,0.91,-3.07,-3.06,-3.06
90.76,-2.51,0.59,-2.53,0.57,-0.57,-0.28,0.85,-3.08,-3.10,-3.10
91.66,-2.51,0.63,-2.53,0.62,-0.62,-0.35,0.79,-3.13,-3.15,-3.15
92.58,-2.51,0.68,-2.53,0.66,-0.66,-0.42,0.73,-3.17,-3.19,-3.20
93.51,-2.51,0.72,-2.53,0.70,-0.70,-0.48,0.67,-3.21,-3.24,-3.23
94.44,-2.51,0.76,-2.55,0.73,-0.73,-0.55,0.60,-3.25,-3.28,-3.28
95.39,-2.55,0.77,-2.56,0.76,-0.76,-0.61,0.53,-3.32,-3.33,-3.32
96.34,-2.57,0.80,-2.59,0.79,-0.79,-0.66,0.47,-3.36,-3.38,-3.38
97.30,-2.62,0.80,-2.62,0.81,-0.81,-0.72,0.39,-3.43,-3.42,-3.43
98.28,-2.67,0.80,-2.65,0.82,-0.82,-0.77,0.32,-3.49,-3.47,-3.47
99.26,-2.71,0.80,-2.69,0.82,-0.82,-0.81,0.25,-3.53,-3.52,-3.52
100.25,-2.76,0.80,-2.74,0.82,-0.82,-0.85,0.17,-3.59,-3.57,-3.57
101.25,-2.79,0.82,-2.79,0.82,-0.82,-0.89,0.10,-3.61,-3.61,-3.62
102.27,-2.85,0.81,-2.84,0.82,-0.82,-0.93,0.02,-3.67,-3.66,-3.66
103.29,-2.90,0.81,-2.90,0.81,-0.81,-0.96,-0.06,-3.71,-3.71,-3.72
104.32,-2.95,0.80,-2.96,0.80,-0.80,-0.99,-0.14,-3.75,-3.76,-3.76
105.37,-3.00,0.80,-3.02,0.79,-0.79,-1.01,-0.22,-3.79,-3.81,-3.80
106.42,-3.07,0.78,-3.08,0.78,-0.78,-1.04,-0.29,-3.85,-3.86,-3.86
107.48,-3.14,0.76,-3.15,0.76,-0.76,-1.05,-0.37,-3.90,-3.91,-3.91
108.56,-3.20,0.75,-3.21,0.75,-0.75,-1.07,-0.45,-3.95,-3.96,-3.96
109.64,-3.28,0.72,-3.28,0.73,-0.73,-1.08,-0.52,-4.01,-4.01,-4.01
110.74,-3.34,0.71,-3.35,0.71,-0.71,-1.09,-0.60,-4.05,-4.06,-4.06
111.85,-3.41,0.69,-3.42,0.70,-0.70,-1.10,-0.67,-4.11,-4.11,-4.11
112.97,-3.49,0.67,-3.49,0.68,-0.68,-1.10,-0.74,-4.17,-4.16,-4.16
114.10,-3.56,0.65,-3.55,0.66,-0.66,-1.10,-0.81,-4.23,-4.22,-4.21
115.24,-3.64,0.63,-3.62,0.65,-0.65,-1.10,-0.87,-4.29,-4.27,-4.27
116.39,-3.70,0.62,-3.69,0.64,-0.64,-1.10,-0.93,-4.34,-4.32,-4.33
117.55,-3.76,0.62,-3.75,0.62,-0.62,-1.09,-0.99,-4.39,-4.38,-4.39
118.73,-3.82,0.61,-3.81,0.61,-0.61,-1.08,-1.04,-4.44,-4.43,-4.44
119.92,-3.88,0.60,-3.88,0.61,-0.61,-1.07,-1.09,-4.49,-4.48,-4.48
121.12,-3.94,0.59,-3.94,0.60,-0.60,-1.06,-1.13,-4.54,-4.53,-4.53
122.33,-3.98,0.60,-4.00,0.59,-0.59,-1.04,-1.17,-4.57,-4.59,-4.58
123.55,-4.03,0.60,-4.05,0.59,-0.59,-1.02,-1.20,-4.62,-4.64,-4.64
124.79,-4.12,0.56,-4.11,0.58,-0.58,-1.01,-1.23,-4.70,-4.69,-4.68
126.03,-4.16,0.57,-4.16,0.58,-0.58,-0.99,-1.25,-4.74,-4.74,-4.74
127.29,-4.21,0.57,-4.22,0.57,-0.57,-0.97,-1.27,-4.78,-4.79,-4.79
128.57,-4.27,0.57,-4.28,0.57,-0.57,-0.94,-1.29,-4.84,-4.84,-4.84
129.85,-4.34,0.55,-4.33,0.56,-0.56,-0.92,-1.29,-4.90,-4.89,-4.90
131.15,-4.40,0.54,-4.39,0.55,-0.55,-0.90,-1.30,-4.95,-4.94,-4.95
132.46,-4.44,0.55,-4.44,0.55,-0.55,-0.87,-1.30,-4.99,-4.99,-5.00
133.79,-4.49,0.54,-4.50,0.54,-0.54,-0.85,-1.29,-5.03,-5.04,-5.03
135.12,-4.54,0.54,-4.55,0.53,-0.53,-0.82,-1.28,-5.07,-5.08,-5.09
136.48,-4.60,0.52,-4.61,0.52,-0.52,-0.79,-1.27,-5.12,-5.13,-5.12
137.84,-4.66,0.51,-4.66,0.51,-0.51,-0.76,-1.25,-5.18,-5.17,-5.18
139.22,-4.72,0.50,-4.71,0.51,-0.51,-0.74,-1.23,-5.23,-5.21,-5.23
140.61,-4.77,0.49,-4.76,0.49,-0.49,-0.71,-1.20,-5.27,-5.26,-5.27
142.02,-4.81,0.48,-4.81,0.49,-0.49,-0.68,-1.18,-5.30,-5.30,-5.30
143.44,-4.86,0.47,-4.86,0.47,-0.47,-0.65,-1.15,-5.34,-5.34,-5.34
144.87,-4.91,0.46,-4.91,0.46,-0.46,-0.62,-1.12,-5.38,-5.37,-5.38
146.32,-4.95,0.46,-4.96,0.45,-0.45,-0.60,-1.09,-5.41,-5.41,-5.42
147.78,-5.00,0.44,-5.01,0.44,-0.44,-0.57,-1.05,-5.45,-5.45,-5.45
149.26,-5.06,0.42,-5.06,0.44,-0.44,-0.54,-1.02,-5.50,-5.49,-5.49
150.75,-5.09,0.43,-5.10,0.43,-0.43,-0.51,-0.99,-5.52,-5.53,-5.53
152.26,-5.14,0.42,-5.15,0.42,-0.42,-0.48,-0.95,-5.56,-5.57,-5.57
153.78,-5.20,0.40,-5.20,0.41,-0.41,-0.45,-0.91,-5.61,-5.61,-5.61
155.32,-5.25,0.39,-5.24,0.40,-0.40,-0.43,-0.88,-5.65,-5.64,-5.65
156.88,-5.28,0.40,-5.29,0.39,-0.39,-0.40,-0.84,-5.68,-5.68,-5.68
158.44,-5.34,0.38,-5.34,0.39,-0.39,-0.37,-0.81,-5.73,-5.72,-5.73
160.03,-5.37,0.39,-5.38,0.38,-0.38,-0.35,-0.77,-5.75,-5.76,-5.77
161.63,-5.42,0.38,-5.43,0.38,-0.38,-0.32,-0.74,-5.80,-5.80,-5.81
163.24,-5.47,0.37,-5.47,0.37,-0.37,-0.30,-0.71,-5.84,-5.84,-5.85
164.88,-5.51,0.36,-5.51,0.37,-0.37,-0.27,-0.67,-5.88,-5.88,-5.88
166.53,-5.54,0.37,-5.55,0.37,-0.37,-0.25,-0.64,-5.91,-5.92,-5.92
168.19,-5.60,0.35,-5.58,0.37,-0.37,-0.22,-0.61,-5.97,-5.96,-5.96
169.87,-5.63,0.36,-5.62,0.38,-0.38,-0.20,-0.58,-6.01,-5.99,-6.00
171.57,-5.66,0.37,-5.65,0.38,-0.38,-0.17,-0.55,-6.04,-6.03,-6.04
173.29,-5.69,0.37,-5.69,0.39,-0.39,-0.15,-0.53,-6.08,-6.07,-6.07
175.02,-5.72,0.38,-5.72,0.39,-0.39,-0.13,-0.50,-6.11,-6.11,-6.11
176.77,-5.75,0.39,-5.75,0.39,-0.39,-0.11,-0.47,-6.15,-6.15,-6.15
178.54,-5.77,0.41,-5.78,0.40,-0.40,-0.09,-0.45,-6.17,-6.18,-6.19
180.32,-5.81,0.41,-5.82,0.41,-0.41,-0.07,-0.43,-6.22,-6.22,-6.23
182.13,-5.82,0.43,-5.85,0.41,-0.41,-0.05,-0.41,-6.23,-6.26,-6.26
183.95,-5.86,0.43,-5.88,0.42,-0.42,-0.03,-0.38,-6.28,-6.29,-6.30
185.79,-5.91,0.41,-5.91,0.42,-0.42,-0.01,-0.36,-6.33,-6.33,-6.33
187.65,-5.94,0.42,-5.94,0.42,-0.42,0.01,-0.35,-6.37,-6.36,-6.37
189.52,-5.97,0.42,-5.97,0.42,-0.42,0.02,-0.33,-6.40,-6.40,-6.40
191.42,-6.00,0.42,-6.00,0.42,-0.42,0.04,-0.31,-6.43,-6.43,-6.43
193.33,-6.05,0.40,-6.03,0.42,-0.42,0.06,-0.30,-6.48,-6.46,-6.46
195.27,-6.06,0.42,-6.06,0.42,-0.42,0.07,-0.28,-6.48,-6.49,-6.49
197.22,-6.10,0.41,-6.10,0.42,-0.42,0.09,-0.27,-6.52,-6.51,-6.52
199.19,-6.13,0.41,-6.13,0.41,-0.41,0.10,-0.26,-6.54,-6.54,-6.55
201.18,-6.14,0.42,-6.15,0.41,-0.41,0.12,-0.25,-6.55,-6.56,-6.57
203.19,-6.18,0.40,-6.18,0.40,-0.40,0.13,-0.23,-6.59,-6.58,-6.59
205.23,-6.19,0.41,-6.20,0.40,-0.40,0.14,-0.22,-6.59,-6.60,-6.61
207.28,-6.23,0.38,-6.23,0.39,-0.39,0.16,-0.21,-6.63,-6.62,-6.62
209.35,-6.24,0.39,-6.25,0.39,-0.39,0.17,-0.21,-6.63,-6.64,-6.64
211.44,-6.28,0.37,-6.27,0.38,-0.38,0.18,-0.20,-6.66,-6.65,-6.66
213.56,-6.28,0.38,-6.29,0.37,-0.37,0.19,-0.19,-6.65,-6.66,-6.67
215.69,-6.32,0.34,-6.31,0.36,-0.36,0.20,-0.18,-6.69,-6.67,-6.67
217.85,-6.33,0.34,-6.32,0.35,-0.35,0.21,-0.17,-6.69,-6.68,-6.68
220.03,-6.33,0.35,-6.34,0.35,-0.35,0.22,-0.17,-6.68,-6.69,-6.69
222.23,-6.33,0.36,-6.35,0.34,-0.34,0.23,-0.16,-6.67,-6.69,-6.70
224.45,-6.38,0.31,-6.36,0.33,-0.33,0.24,-0.16,-6.71,-6.69,-6.70
226.70,-6.38,0.31,-6.37,0.33,-0.33,0.24,-0.15,-6.71,-6.69,-6.70
228.96,-6.38,0.31,-6.37,0.32,-0.32,0.25,-0.14,-6.70,-6.69,-6.70
231.25,-6.38,0.30,-6.38,0.31,-0.31,0.26,-0.14,-6.70,-6.69,-6.69
233.57,-6.38,0.30,-6.38,0.30,-0.30,0.26,-0.13,-6.69,-6.69,-6.69
235.90,-6.38,0.30,-6.39,0.30,-0.30,0.27,-0.12,-6.68,-6.68,-6.69
238.26,-6.38,0.29,-6.39,0.29,-0.29,0.28,-0.12,-6.67,-6.67,-6.68
240.64,-6.38,0.28,-6.39,0.28,-0.28,0.28,-0.11,-6.66,-6.67,-6.67
243.05,-6.38,0.27,-6.39,0.26,-0.26,0.29,-0.10,-6.65,-6.66,-6.66
245.48,-6.38,0.26,-6.40,0.25,-0.25,0.29,-0.10,-6.63,-6.65,-6.65
247.93,-6.38,0.25,-6.40,0.23,-0.23,0.29,-0.09,-6.61,-6.63,-6.64
250.41,-6.42,0.20,-6.40,0.22,-0.22,0.30,-0.08,-6.64,-6.62,-6.63
252.92,-6.42,0.18,-6.41,0.19,-0.19,0.30,-0.07,-6.62,-6.60,-6.61
255.45,-6.42,0.16,-6.42,0.17,-0.17,0.30,-0.07,-6.59,-6.59,-6.59
258.00,-6.42,0.15,-6.43,0.15,-0.15,0.31,-0.06,-6.57,-6.57,-6.58
260.58,-6.42,0.13,-6.43,0.12,-0.12,0.31,-0.05,-6.54,-6.55,-6.56
263.19,-6.42,0.11,-6.44,0.10,-0.10,0.31,-0.04,-6.52,-6.54,-6.54
265.82,-6.45,0.06,-6.45,0.07,-0.07,0.31,-0.03,-6.52,-6.52,-6.52
268.48,-6.47,0.02,-6.45,0.04,-0.04,0.31,-0.02,-6.52,-6.50,-6.50
271.16,-6.47,0.00,-6.46,0.02,-0.02,0.31,-0.00,-6.49,-6.48,-6.48
273.87,-6.47,-0.02,-6.46,-0.01,0.01,0.31,0.01,-6.47,-6.46,-6.46
276.61,-6.47,-0.04,-6.47,-0.03,0.03,0.31,0.02,-6.44,-6.44,-6.44
279.38,-6.47,-0.06,-6.47,-0.06,0.06,0.31,0.03,-6.42,-6.42,-6.42
282.17,-6.47,-0.08,-6.48,-0.08,0.08,0.31,0.04,-6.39,-6.40,-6.40
284.99,-6.47,-0.10,-6.48,-0.11,0.11,0.31,0.06,-6.36,-6.38,-6.38
287.84,-6.48,-0.13,-6.49,-0.13,0.13,0.31,0.07,-6.35,-6.36,-6.36
290.72,-6.49,-0.16,-6.50,-0.16,0.16,0.31,0.08,-6.33,-6.34,-6.34
293.63,-6.49,-0.18,-6.50,-0.19,0.19,0.30,0.10,-6.31,-6.31,-6.32
296.57,-6.49,-0.20,-6.50,-0.21,0.21,0.30,0.11,-6.28,-6.29,-6.30
299.53,-6.52,-0.25,-6.51,-0.24,0.24,0.30,0.13,-6.29,-6.27,-6.28
302.53,-6.52,-0.27,-6.51,-0.26,0.26,0.30,0.14,-6.26,-6.25,-6.26
305.55,-6.52,-0.30,-6.52,-0.29,0.29,0.29,0.16,-6.23,-6.22,-6.23
308.61,-6.52,-0.32,-6.52,-0.32,0.32,0.29,0.17,-6.20,-6.20,-6.21
311.69,-6.52,-0.35,-6.52,-0.35,0.35,0.29,0.19,-6.18,-6.18,-6.18
314.81,-6.52,-0.38,-6.53,-0.37,0.37,0.28,0.21,-6.15,-6.15,-6.15
317.96,-6.52,-0.40,-6.53,-0.39,0.39,0.28,0.22,-6.13,-6.13,-6.13
321.14,-6.52,-0.42,-6.52,-0.41,0.41,0.27,0.24,-6.11,-6.11,-6.11
324.35,-6.52,-0.44,-6.52,-0.44,0.44,0.27,0.26,-6.09,-6.09,-6.09
327.59,-6.52,-0.46,-6.52,-0.46,0.46,0.26,0.27,-6.07,-6.06,-6.07
330.87,-6.52,-0.48,-6.52,-0.47,0.47,0.26,0.29,-6.05,-6.04,-6.05
334.18,-6.52,-0.50,-6.51,-0.49,0.49,0.25,0.31,-6.04,-6.02,-6.03
337.52,-6.52,-0.52,-6.50,-0.50,0.50,0.25,0.33,-6.02,-6.00,-6.01
340.90,-6.49,-0.51,-6.50,-0.51,0.51,0.24,0.35,-5.98,-5.98,-5.99
344.30,-6.47,-0.51,-6.49,-0.53,0.53,0.23,0.37,-5.95,-5.96,-5.97
347.75,-6.47,-0.53,-6.48,-0.53,0.53,0.23,0.38,-5.94,-5.95,-5.95
351.23,-6.47,-0.55,-6.47,-0.54,0.54,0.22,0.40,-5.93,-5.93,-5.93
354.74,-6.47,-0.57,-6.46,-0.55,0.55,0.21,0.42,-5.92,-5.91,-5.91
358.28,-6.47,-0.58,-6.45,-0.56,0.56,0.21,0.44,-5.91,-5.89,-5.90
361.87,-6.42,-0.55,-6.44,-0.57,0.57,0.20,0.46,-5.86,-5.87,-5.88
365.49,-6.42,-0.57,-6.43,-0.57,0.57,0.19,0.49,-5.85,-5.86,-5.86
369.14,-6.42,-0.58,-6.42,-0.58,0.58,0.18,0.51,-5.84,-5.84,-5.85
372.83,-6.42,-0.60,-6.41,-0.58,0.58,0.17,0.53,-5.84,-5.83,-5.83
376.56,-6.38,-0.57,-6.40,-0.59,0.59,0.16,0.55,-5.79,-5.81,-5.82
380.33,-6.38,-0.59,-6.39,-0.59,0.59,0.16,0.57,-5.79,-5.80,-5.80
384.13,-6.38,-0.60,-6.38,-0.59,0.59,0.15,0.59,-5.79,-5.79,-5.79
387.97,-6.38,-0.61,-6.36,-0.59,0.59,0.14,0.61,-5.79,-5.77,-5.78
391.85,-6.35,-0.59,-6.35,-0.59,0.59,0.13,0.63,-5.76,-5.76,-5.77
395.77,-6.33,-0.59,-6.33,-0.59,0.59,0.12,0.65,-5.75,-5.75,-5.75
399.73,-6.33,-0.60,-6.32,-0.58,0.58,0.11,0.68,-5.75,-5.74,-5.74
