frequency,raw,error,smoothed,error_smoothed,equalization,parametric_eq,fixed_band_eq,equalized_raw,equalized_smoothed,target
20.00,-8.71,-15.61,-8.71,-15.61,15.64,14.86,6.60,6.93,6.94,6.90
20.20,-8.67,-15.56,-8.67,-15.57,15.58,14.97,6.76,6.91,6.91,6.89
20.40,-8.62,-15.51,-8.63,-15.52,15.51,15.07,6.91,6.89,6.88,6.89
20.61,-8.58,-15.47,-8.58,-15.47,15.45,15.15,7.07,6.87,6.86,6.89
20.81,-8.53,-15.40,-8.53,-15.41,15.38,15.22,7.24,6.85,6.85,6.87
21.02,-8.48,-15.35,-8.47,-15.34,15.31,15.28,7.41,6.83,6.84,6.87
21.23,-8.38,-15.25,-8.38,-15.26,15.23,15.33,7.58,6.85,6.85,6.87
21.44,-8.28,-15.16,-8.29,-15.17,15.16,15.36,7.76,6.88,6.87,6.88
21.66,-8.19,-15.07,-8.18,-15.06,15.08,15.38,7.95,6.88,6.89,6.87
21.87,-8.09,-14.97,-8.09,-14.97,14.99,15.38,8.14,6.90,6.90,6.88
22.09,-8.00,-14.87,-8.01,-14.89,14.91,15.37,8.33,6.91,6.90,6.87
22.31,-7.94,-14.82,-7.94,-14.82,14.83,15.35,8.53,6.89,6.89,6.88
22.54,-7.88,-14.76,-7.88,-14.76,14.75,15.32,8.74,6.87,6.87,6.87
22.76,-7.82,-14.69,-7.82,-14.69,14.67,15.27,8.95,6.85,6.85,6.87
22.99,-7.75,-14.62,-7.75,-14.62,14.59,15.21,9.16,6.84,6.85,6.87
23.22,-7.66,-14.53,-7.66,-14.54,14.52,15.14,9.38,6.86,6.86,6.87
23.45,-7.57,-14.45,-7.57,-14.45,14.45,15.07,9.61,6.88,6.88,6.88
23.69,-7.47,-14.36,-7.47,-14.35,14.37,14.98,9.85,6.90,6.90,6.88
23.92,-7.38,-14.26,-7.39,-14.28,14.30,14.89,10.09,6.92,6.91,6.88
24.16,-7.32,-14.21,-7.32,-14.21,14.24,14.79,10.33,6.92,6.91,6.89
24.40,-7.27,-14.17,-7.27,-14.17,14.17,14.68,10.59,6.90,6.90,6.90
24.65,-7.22,-14.12,-7.22,-14.12,14.11,14.57,10.85,6.89,6.89,6.90
24.89,-7.17,-14.07,-7.17,-14.07,14.05,14.46,11.11,6.88,6.89,6.90
25.14,-7.11,-14.00,-7.11,-14.01,14.00,14.34,11.39,6.89,6.89,6.89
25.39,-7.05,-13.95,-7.05,-13.95,13.94,14.22,11.67,6.89,6.89,6.90
25.65,-6.98,-13.88,-6.98,-13.88,13.88,14.09,11.95,6.90,6.90,6.90
25.91,-6.91,-13.81,-6.91,-13.82,13.82,13.97,12.24,6.91,6.90,6.89
26.16,-6.85,-13.75,-6.85,-13.75,13.76,13.84,12.54,6.91,6.90,6.90
26.43,-6.79,-13.70,-6.79,-13.69,13.69,13.72,12.84,6.90,6.90,6.90
26.69,-6.73,-13.63,-6.73,-13.63,13.63,13.59,13.15,6.90,6.90,6.90
26.96,-6.67,-13.55,-6.67,-13.56,13.57,13.47,13.46,6.89,6.90,6.88
27.23,-6.61,-13.49,-6.61,-13.50,13.50,13.34,13.77,6.89,6.89,6.88
27.50,-6.55,-13.43,-6.56,-13.44,13.44,13.22,14.08,6.89,6.89,6.88
27.77,-6.50,-13.39,-6.50,-13.38,13.38,13.10,14.39,6.88,6.88,6.89
28.05,-6.44,-13.32,-6.44,-13.32,13.31,12.98,14.70,6.87,6.87,6.88
28.33,-6.37,-13.24,-6.37,-13.25,13.24,12.87,15.00,6.87,6.87,6.87
28.62,-6.30,-13.17,-6.30,-13.17,13.17,12.75,15.29,6.87,6.87,6.86
28.90,-6.23,-13.10,-6.23,-13.10,13.10,12.64,15.56,6.87,6.87,6.87
29.19,-6.17,-13.03,-6.17,-13.03,13.03,12.53,15.82,6.86,6.86,6.86
29.48,-6.11,-12.95,-6.11,-12.96,12.96,12.43,16.06,6.85,6.85,6.84
29.78,-6.05,-12.89,-6.05,-12.89,12.89,12.32,16.28,6.84,6.84,6.84
30.08,-5.99,-12.84,-5.99,-12.83,12.82,12.23,16.46,6.83,6.83,6.84
30.38,-5.93,-12.76,-5.93,-12.76,12.77,12.13,16.61,6.83,6.83,6.82
30.68,-5.88,-12.69,-5.88,-12.69,12.71,12.04,16.71,6.83,6.83,6.81
30.99,-5.82,-12.62,-5.83,-12.64,12.66,11.95,16.78,6.84,6.83,6.80
31.30,-5.80,-12.59,-5.80,-12.60,12.60,11.86,16.81,6.80,6.80,6.79
31.61,-5.78,-12.56,-5.78,-12.56,12.55,11.78,16.79,6.77,6.77,6.78
31.93,-5.76,-12.52,-5.75,-12.52,12.49,11.70,16.73,6.73,6.75,6.76
32.24,-5.69,-12.46,-5.69,-12.46,12.43,11.62,16.64,6.74,6.74,6.77
32.57,-5.62,-12.37,-5.62,-12.38,12.37,11.55,16.50,6.75,6.74,6.75
32.89,-5.54,-12.29,-5.54,-12.30,12.30,11.48,16.34,6.76,6.75,6.75
33.22,-5.47,-12.22,-5.47,-12.22,12.22,11.41,16.15,6.75,6.75,6.75
33.55,-5.39,-12.13,-5.39,-12.14,12.15,11.35,15.93,6.76,6.76,6.74
33.89,-5.32,-12.07,-5.32,-12.07,12.08,11.29,15.70,6.76,6.76,6.75
34.23,-5.25,-11.98,-5.25,-11.99,12.01,11.24,15.45,6.76,6.76,6.73
34.57,-5.20,-11.94,-5.19,-11.94,11.96,11.18,15.20,6.76,6.76,6.74
34.92,-5.14,-11.87,-5.15,-11.88,11.90,11.13,14.93,6.76,6.75,6.73
35.27,-5.11,-11.85,-5.12,-11.85,11.84,11.09,14.67,6.73,6.72,6.74
35.62,-5.09,-11.80,-5.09,-11.81,11.79,11.04,14.40,6.70,6.70,6.71
35.97,-5.07,-11.78,-5.05,-11.76,11.73,11.00,14.13,6.66,6.68,6.71
36.33,-4.99,-11.69,-4.99,-11.69,11.68,10.96,13.87,6.69,6.69,6.70
36.70,-4.91,-11.59,-4.92,-11.60,11.62,10.92,13.60,6.70,6.70,6.68
37.06,-4.84,-11.50,-4.86,-11.52,11.55,10.89,13.35,6.71,6.69,6.66
37.43,-4.82,-11.47,-4.82,-11.47,11.48,10.86,13.09,6.66,6.66,6.65
37.81,-4.80,-11.42,-4.79,-11.42,11.41,10.83,12.85,6.61,6.62,6.62
38.19,-4.76,-11.36,-4.75,-11.36,11.34,10.80,12.61,6.58,6.59,6.60
38.57,-4.69,-11.27,-4.69,-11.27,11.27,10.77,12.38,6.58,6.58,6.58
38.95,-4.62,-11.17,-4.64,-11.19,11.20,10.74,12.15,6.58,6.56,6.55
39.34,-4.60,-11.10,-4.61,-11.12,11.13,10.72,11.94,6.52,6.52,6.50
39.74,-4.59,-11.06,-4.58,-11.05,11.04,10.69,11.73,6.45,6.46,6.47
40.14,-4.55,-10.99,-4.54,-10.98,10.96,10.67,11.53,6.41,6.42,6.44
40.54,-4.47,-10.89,-4.48,-10.89,10.87,10.64,11.33,6.40,6.40,6.42
40.94,-4.39,-10.77,-4.40,-10.78,10.79,10.62,11.14,6.40,6.39,6.38
41.35,-4.32,-10.68,-4.32,-10.68,10.70,10.59,10.97,6.38,6.39,6.36
41.76,-4.25,-10.58,-4.25,-10.59,10.61,10.57,10.79,6.36,6.36,6.33
42.18,-4.20,-10.51,-4.22,-10.53,10.52,10.54,10.63,6.32,6.31,6.31
42.60,-4.18,-10.46,-4.18,-10.46,10.43,10.51,10.47,6.25,6.25,6.28
43.03,-4.15,-10.40,-4.12,-10.38,10.35,10.48,10.32,6.20,6.23,6.25
43.46,-4.05,-10.27,-4.05,-10.28,10.28,10.45,10.18,6.23,6.23,6.22
43.90,-3.95,-10.16,-3.98,-10.17,10.22,10.41,10.04,6.26,6.24,6.20
44.33,-3.93,-10.09,-3.93,-10.10,10.15,10.37,9.91,6.22,6.22,6.16
44.78,-3.93,-10.06,-3.93,-10.07,10.08,10.33,9.79,6.15,6.16,6.13
45.23,-3.93,-10.05,-3.94,-10.05,10.01,10.28,9.67,6.08,6.08,6.12
45.68,-3.93,-10.00,-3.92,-10.00,9.95,10.24,9.56,6.02,6.02,6.07
46.13,-3.90,-9.93,-3.87,-9.91,9.88,10.18,9.46,5.98,6.01,6.03
46.60,-3.79,-9.80,-3.80,-9.80,9.81,10.13,9.36,6.02,6.01,6.00
47.06,-3.70,-9.67,-3.74,-9.71,9.73,10.06,9.27,6.03,5.99,5.97
47.53,-3.70,-9.64,-3.70,-9.63,9.65,10.00,9.18,5.95,5.95,5.94
48.01,-3.70,-9.58,-3.67,-9.56,9.55,9.93,9.10,5.85,5.88,5.88
48.49,-3.64,-9.48,-3.64,-9.49,9.46,9.85,9.02,5.82,5.83,5.84
48.97,-3.57,-9.37,-3.58,-9.38,9.38,9.77,8.95,5.81,5.80,5.80
49.46,-3.52,-9.28,-3.52,-9.27,9.30,9.69,8.89,5.78,5.79,5.76
49.96,-3.47,-9.17,-3.49,-9.20,9.22,9.60,8.82,5.75,5.74,5.70
50.46,-3.47,-9.13,-3.47,-9.14,9.14,9.50,8.76,5.67,5.67,5.66
50.96,-3.47,-9.10,-3.45,-9.08,9.06,9.41,8.71,5.59,5.60,5.63
51.47,-3.42,-9.01,-3.42,-9.01,8.98,9.30,8.66,5.56,5.56,5.59
51.99,-3.37,-8.91,-3.36,-8.92,8.90,9.20,8.61,5.53,5.54,5.54
52.51,-3.30,-8.81,-3.30,-8.81,8.83,9.09,8.56,5.53,5.53,5.50
53.03,-3.24,-8.71,-3.26,-8.72,8.75,8.97,8.52,5.51,5.49,5.47
53.56,-3.24,-8.64,-3.24,-8.65,8.67,8.85,8.47,5.42,5.42,5.40
54.10,-3.24,-8.59,-3.24,-8.60,8.58,8.73,8.43,5.34,5.33,5.35
54.64,-3.24,-8.55,-3.23,-8.53,8.49,8.61,8.39,5.25,5.27,5.31
55.18,-3.20,-8.45,-3.17,-8.43,8.41,8.48,8.35,5.21,5.24,5.25
55.74,-3.08,-8.29,-3.10,-8.31,8.33,8.36,8.31,5.25,5.23,5.20
56.29,-3.02,-8.18,-3.04,-8.21,8.25,8.23,8.27,5.23,5.21,5.16
56.86,-3.02,-8.15,-3.02,-8.15,8.16,8.09,8.23,5.14,5.13,5.13
57.42,-3.02,-8.09,-3.02,-8.10,8.07,7.96,8.18,5.05,5.05,5.07
58.00,-3.02,-8.05,-2.97,-8.01,7.98,7.83,8.14,4.96,5.01,5.03
58.58,-2.89,-7.89,-2.90,-7.90,7.90,7.69,8.09,5.01,5.00,5.00
59.16,-2.79,-7.76,-2.83,-7.80,7.83,7.56,8.04,5.04,5.00,4.97
59.76,-2.79,-7.71,-2.78,-7.70,7.74,7.42,7.98,4.95,4.96,4.92
60.35,-2.79,-7.64,-2.79,-7.65,7.65,7.29,7.92,4.86,4.87,4.85
60.96,-2.79,-7.59,-2.80,-7.60,7.55,7.15,7.86,4.76,4.75,4.80
61.57,-2.79,-7.52,-2.77,-7.51,7.45,7.01,7.79,4.66,4.68,4.73
62.18,-2.75,-7.41,-2.71,-7.38,7.36,6.88,7.71,4.61,4.65,4.66
62.80,-2.60,-7.21,-2.64,-7.25,7.28,6.75,7.63,4.68,4.64,4.61
63.43,-2.56,-7.11,-2.58,-7.13,7.19,6.61,7.55,4.63,4.62,4.55
64.07,-2.56,-7.06,-2.55,-7.05,7.11,6.48,7.46,4.55,4.56,4.50
64.71,-2.56,-7.01,-2.56,-7.00,7.02,6.35,7.37,4.46,4.46,4.45
65.35,-2.56,-6.94,-2.57,-6.96,6.92,6.22,7.27,4.36,4.35,4.38
66.01,-2.56,-6.88,-2.57,-6.90,6.83,6.09,7.17,4.27,4.26,4.32
66.67,-2.56,-6.83,-2.53,-6.79,6.74,5.96,7.06,4.18,4.22,4.27
67.33,-2.48,-6.68,-2.46,-6.67,6.66,5.84,6.95,4.18,4.21,4.20
68.01,-2.33,-6.48,-2.38,-6.53,6.58,5.71,6.84,4.25,4.19,4.15
68.69,-2.33,-6.41,-2.33,-6.42,6.49,5.59,6.72,4.16,4.16,4.08
69.37,-2.33,-6.36,-2.32,-6.35,6.39,5.47,6.60,4.06,4.07,4.03
70.07,-2.33,-6.29,-2.34,-6.30,6.28,5.35,6.48,3.95,3.95,3.96
70.77,-2.33,-6.23,-2.34,-6.24,6.18,5.24,6.36,3.84,3.83,3.90
71.48,-2.33,-6.15,-2.31,-6.14,6.08,5.12,6.23,3.74,3.77,3.82
72.19,-2.28,-6.04,-2.24,-6.01,5.98,5.01,6.11,3.70,3.74,3.76
72.91,-2.12,-5.82,-2.17,-5.86,5.90,4.90,5.98,3.78,3.73,3.70
73.64,-2.10,-5.72,-2.11,-5.74,5.81,4.79,5.85,3.71,3.70,3.62
74.38,-2.10,-5.66,-2.09,-5.65,5.72,4.68,5.73,3.62,3.63,3.56
75.12,-2.10,-5.60,-2.10,-5.61,5.62,4.57,5.60,3.52,3.52,3.50
75.87,-2.10,-5.57,-2.11,-5.57,5.53,4.47,5.47,3.43,3.42,3.47
76.63,-2.10,-5.50,-2.10,-5.51,5.45,4.37,5.35,3.34,3.34,3.40
77.40,-2.08,-5.43,-2.06,-5.42,5.37,4.27,5.22,3.29,3.31,3.35
78.17,-2.01,-5.31,-1.99,-5.30,5.29,4.17,5.10,3.28,3.30,3.30
78.95,-1.89,-5.15,-1.93,-5.19,5.22,4.07,4.98,3.33,3.29,3.26
79.74,-1.88,-5.08,-1.88,-5.09,5.14,3.98,4.86,3.26,3.26,3.20
80.54,-1.88,-5.03,-1.87,-5.03,5.07,3.89,4.74,3.19,3.20,3.15
81.35,-1.88,-4.98,-1.88,-4.99,5.00,3.80,4.63,3.12,3.12,3.10
82.16,-1.88,-4.94,-1.88,-4.94,4.93,3.71,4.52,3.05,3.05,3.06
82.98,-1.88,-4.88,-1.89,-4.89,4.86,3.62,4.40,2.97,2.97,3.00
83.81,-1.88,-4.82,-1.89,-4.83,4.78,3.53,4.30,2.90,2.89,2.94
84.65,-1.88,-4.76,-1.86,-4.74,4.69,3.45,4.19,2.81,2.83,2.88
85.50,-1.82,-4.63,-1.80,-4.62,4.60,3.37,4.09,2.78,2.80,2.81
86.35,-1.71,-4.46,-1.73,-4.48,4.50,3.28,3.98,2.79,2.77,2.75
87.22,-1.65,-4.34,-1.67,-4.36,4.41,3.20,3.89,2.75,2.74,2.69
88.09,-1.65,-4.27,-1.64,-4.27,4.31,3.13,3.79,2.66,2.67,2.62
88.97,-1.65,-4.21,-1.65,-4.21,4.23,3.05,3.70,2.58,2.59,2.56
89.86,-1.65,-4.14,-1.65,-4.14,4.15,2.97,3.60,2.50,2.50,2.49
90.76,-1.65,-4.07,-1.65,-4.08,4.08,2.90,3.51,2.43,2.43,2.42
91.66,-1.65,-4.01,-1.65,-4.01,4.01,2.83,3.43,2.36,2.36,2.36
92.58,-1.65,-3.95,-1.66,-3.96,3.92,2.76,3.34,2.27,2.26,2.30
93.51,-1.65,-3.88,-1.66,-3.90,3.83,2.69,3.26,2.18,2.17,2.23
94.44,-1.65,-3.82,-1.61,-3.78,3.73,2.62,3.18,2.08,2.12,2.17
95.39,-1.55,-3.64,-1.54,-3.64,3.63,2.55,3.10,2.08,2.09,2.09
96.34,-1.42,-3.43,-1.47,-3.49,3.52,2.49,3.03,2.10,2.05,2.01
97.30,-1.42,-3.37,-1.42,-3.36,3.42,2.42,2.95,2.00,2.00,1.95
98.28,-1.42,-3.28,-1.41,-3.28,3.32,2.36,2.88,1.90,1.92,1.86
99.26,-1.42,-3.21,-1.42,-3.22,3.24,2.29,2.81,1.82,1.82,1.79
100.25,-1.42,-3.15,-1.42,-3.15,3.16,2.23,2.74,1.74,1.74,1.73
101.25,-1.42,-3.09,-1.42,-3.09,3.08,2.17,2.68,1.66,1.66,1.67
102.27,-1.42,-3.02,-1.43,-3.03,3.01,2.11,2.61,1.59,1.58,1.60
103.29,-1.42,-2.96,-1.43,-2.98,2.93,2.05,2.55,1.51,1.50,1.54
104.32,-1.42,-2.91,-1.40,-2.89,2.84,1.99,2.49,1.42,1.44,1.49
105.37,-1.36,-2.79,-1.34,-2.77,2.75,1.94,2.43,1.39,1.41,1.43
106.42,-1.23,-2.60,-1.26,-2.64,2.66,1.88,2.37,1.43,1.39,1.37
107.48,-1.19,-2.49,-1.20,-2.52,2.57,1.83,2.31,1.38,1.36,1.30
108.56,-1.19,-2.45,-1.18,-2.44,2.48,1.77,2.25,1.29,1.30,1.26
109.64,-1.19,-2.39,-1.19,-2.39,2.40,1.72,2.19,1.21,1.21,1.20
110.74,-1.19,-2.33,-1.19,-2.34,2.33,1.67,2.14,1.14,1.14,1.14
111.85,-1.19,-2.27,-1.19,-2.28,2.26,1.61,2.08,1.07,1.07,1.08
112.97,-1.19,-2.22,-1.19,-2.22,2.21,1.56,2.03,1.02,1.02,1.03
114.10,-1.19,-2.16,-1.19,-2.16,2.16,1.51,1.98,0.97,0.97,0.97
115.24,-1.19,-2.09,-1.19,-2.10,2.11,1.46,1.92,0.92,0.92,0.90
116.39,-1.19,-2.02,-1.19,-2.03,2.04,1.41,1.87,0.85,0.85,0.83
117.55,-1.19,-1.96,-1.19,-1.96,1.96,1.36,1.82,0.77,0.77,0.77
118.73,-1.19,-1.89,-1.20,-1.91,1.87,1.31,1.76,0.68,0.67,0.70
119.92,-1.19,-1.82,-1.19,-1.83,1.78,1.26,1.71,0.59,0.59,0.63
121.12,-1.18,-1.76,-1.13,-1.71,1.68,1.22,1.66,0.50,0.55,0.58
122.33,-1.04,-1.54,-1.06,-1.57,1.58,1.17,1.61,0.54,0.52,0.50
123.55,-0.96,-1.41,-0.99,-1.44,1.48,1.12,1.55,0.52,0.49,0.45
124.79,-0.96,-1.34,-0.95,-1.33,1.38,1.08,1.50,0.42,0.43,0.38
126.03,-0.96,-1.27,-0.95,-1.27,1.29,1.03,1.45,0.33,0.34,0.31
127.29,-0.96,-1.20,-0.96,-1.21,1.20,0.98,1.39,0.24,0.24,0.24
128.57,-0.96,-1.14,-0.96,-1.14,1.13,0.94,1.34,0.17,0.17,0.18
129.85,-0.96,-1.06,-0.96,-1.07,1.07,0.89,1.28,0.10,0.10,0.10
131.15,-0.96,-1.00,-0.96,-1.00,1.01,0.85,1.23,0.05,0.05,0.04
132.46,-0.96,-0.93,-0.96,-0.93,0.95,0.80,1.17,-0.01,-0.01,-0.03
133.79,-0.96,-0.87,-0.96,-0.87,0.88,0.76,1.12,-0.08,-0.08,-0.09
135.12,-0.96,-0.80,-0.97,-0.83,0.79,0.71,1.06,-0.17,-0.18,-0.16
136.48,-0.96,-0.76,-0.96,-0.76,0.71,0.67,1.00,-0.25,-0.26,-0.20
137.84,-0.96,-0.70,-0.92,-0.66,0.62,0.62,0.95,-0.34,-0.30,-0.26
139.22,-0.84,-0.51,-0.85,-0.53,0.53,0.58,0.89,-0.31,-0.32,-0.33
140.61,-0.75,-0.37,-0.78,-0.41,0.44,0.53,0.83,-0.31,-0.34,-0.38
142.02,-0.74,-0.31,-0.74,-0.31,0.36,0.49,0.77,-0.38,-0.38,-0.43
143.44,-0.74,-0.25,-0.73,-0.25,0.28,0.44,0.71,-0.46,-0.45,-0.49
144.87,-0.74,-0.21,-0.74,-0.21,0.21,0.40,0.65,-0.53,-0.53,-0.53
146.32,-0.74,-0.16,-0.74,-0.16,0.15,0.35,0.59,-0.59,-0.59,-0.58
147.78,-0.74,-0.10,-0.74,-0.11,0.10,0.31,0.53,-0.64,-0.64,-0.64
149.26,-0.74,-0.06,-0.74,-0.06,0.05,0.26,0.47,-0.69,-0.69,-0.68
150.75,-0.74,-0.00,-0.74,-0.01,0.01,0.22,0.41,-0.73,-0.73,-0.74
152.26,-0.74,0.03,-0.74,0.03,-0.03,0.17,0.35,-0.77,-0.77,-0.77
153.78,-0.74,0.09,-0.74,0.08,-0.08,0.12,0.29,-0.82,-0.82,-0.83
155.32,-0.74,0.13,-0.74,0.13,-0.12,0.08,0.22,-0.87,-0.87,-0.87
156.88,-0.74,0.18,-0.74,0.18,-0.17,0.03,0.16,-0.91,-0.91,-0.92
158.44,-0.74,0.23,-0.74,0.22,-0.21,-0.02,0.10,-0.96,-0.96,-0.97
160.03,-0.74,0.28,-0.74,0.28,-0.27,-0.07,0.03,-1.01,-1.01,-1.02
161.63,-0.74,0.33,-0.74,0.32,-0.33,-0.12,-0.03,-1.07,-1.08,-1.07
163.24,-0.74,0.39,-0.75,0.37,-0.41,-0.17,-0.10,-1.15,-1.16,-1.13
164.88,-0.74,0.43,-0.73,0.44,-0.49,-0.22,-0.16,-1.23,-1.21,-1.17
166.53,-0.70,0.53,-0.67,0.55,-0.57,-0.27,-0.23,-1.27,-1.24,-1.23
168.19,-0.58,0.68,-0.60,0.66,-0.65,-0.32,-0.29,-1.23,-1.25,-1.26
169.87,-0.51,0.80,-0.54,0.78,-0.74,-0.37,-0.36,-1.25,-1.27,-1.31
171.57,-0.51,0.86,-0.50,0.86,-0.82,-0.43,-0.43,-1.33,-1.32,-1.37
173.29,-0.51,0.91,-0.50,0.91,-0.89,-0.48,-0.50,-1.40,-1.40,-1.42
175.02,-0.51,0.96,-0.51,0.96,-0.96,-0.54,-0.57,-1.47,-1.47,-1.47
176.77,-0.51,1.01,-0.51,1.01,-1.02,-0.59,-0.63,-1.53,-1.53,-1.52
178.54,-0.51,1.06,-0.51,1.06,-1.07,-0.65,-0.71,-1.58,-1.58,-1.57
180.32,-0.51,1.12,-0.51,1.11,-1.12,-0.71,-0.78,-1.63,-1.63,-1.63
182.13,-0.51,1.17,-0.51,1.17,-1.17,-0.77,-0.85,-1.68,-1.68,-1.68
183.95,-0.51,1.22,-0.51,1.22,-1.21,-0.83,-0.92,-1.72,-1.72,-1.73
185.79,-0.51,1.28,-0.51,1.27,-1.26,-0.89,-0.99,-1.77,-1.77,-1.79
187.65,-0.51,1.32,-0.51,1.32,-1.30,-0.96,-1.07,-1.81,-1.81,-1.83
189.52,-0.51,1.37,-0.51,1.36,-1.35,-1.02,-1.14,-1.86,-1.86,-1.88
191.42,-0.51,1.41,-0.51,1.41,-1.41,-1.09,-1.22,-1.93,-1.93,-1.92
193.33,-0.51,1.46,-0.52,1.44,-1.48,-1.15,-1.29,-1.99,-2.01,-1.97
195.27,-0.51,1.51,-0.51,1.50,-1.56,-1.22,-1.37,-2.07,-2.07,-2.02
197.22,-0.51,1.56,-0.46,1.60,-1.63,-1.29,-1.44,-2.14,-2.09,-2.07
199.19,-0.37,1.73,-0.39,1.72,-1.71,-1.36,-1.52,-2.08,-2.09,-2.10
201.18,-0.28,1.87,-0.32,1.82,-1.78,-1.43,-1.59,-2.06,-2.10,-2.15
203.19,-0.28,1.90,-0.27,1.90,-1.85,-1.50,-1.67,-2.13,-2.12,-2.18
205.23,-0.28,1.93,-0.27,1.94,-1.91,-1.57,-1.75,-2.19,-2.18,-2.21
207.28,-0.28,1.96,-0.28,1.96,-1.97,-1.65,-1.82,-2.25,-2.25,-2.24
209.35,-0.28,2.00,-0.28,2.00,-2.01,-1.72,-1.90,-2.29,-2.29,-2.28
211.44,-0.28,2.04,-0.28,2.03,-2.05,-1.80,-1.97,-2.33,-2.33,-2.32
213.56,-0.28,2.07,-0.28,2.07,-2.07,-1.87,-2.05,-2.36,-2.36,-2.35
215.69,-0.28,2.10,-0.28,2.10,-2.10,-1.95,-2.12,-2.38,-2.38,-2.38
217.85,-0.28,2.13,-0.28,2.13,-2.12,-2.02,-2.19,-2.40,-2.40,-2.41
220.03,-0.28,2.17,-0.28,2.16,-2.15,-2.09,-2.26,-2.43,-2.43,-2.45
222.23,-0.28,2.20,-0.28,2.20,-2.18,-2.17,-2.33,-2.46,-2.46,-2.48
224.45,-0.28,2.23,-0.28,2.23,-2.22,-2.24,-2.40,-2.50,-2.50,-2.51
226.70,-0.28,2.26,-0.28,2.25,-2.27,-2.31,-2.46,-2.55,-2.55,-2.54
228.96,-0.28,2.29,-0.30,2.27,-2.32,-2.38,-2.52,-2.60,-2.62,-2.57
231.25,-0.28,2.31,-0.26,2.33,-2.38,-2.45,-2.58,-2.66,-2.64,-2.59
233.57,-0.25,2.37,-0.20,2.42,-2.44,-2.51,-2.63,-2.69,-2.63,-2.62
235.90,-0.06,2.58,-0.12,2.52,-2.49,-2.58,-2.69,-2.56,-2.62,-2.64
238.26,-0.05,2.63,-0.06,2.60,-2.55,-2.64,-2.73,-2.60,-2.61,-2.68
240.64,-0.05,2.63,-0.03,2.65,-2.60,-2.69,-2.78,-2.65,-2.63,-2.68
243.05,-0.05,2.65,-0.05,2.65,-2.65,-2.75,-2.82,-2.70,-2.70,-2.70
245.48,-0.05,2.68,-0.05,2.67,-2.68,-2.79,-2.86,-2.73,-2.73,-2.73
247.93,-0.05,2.70,-0.05,2.69,-2.70,-2.84,-2.89,-2.75,-2.75,-2.75
250.41,-0.05,2.70,-0.05,2.70,-2.72,-2.88,-2.92,-2.77,-2.77,-2.75
252.92,-0.05,2.72,-0.05,2.72,-2.73,-2.91,-2.94,-2.78,-2.78,-2.77
255.45,-0.05,2.74,-0.05,2.73,-2.74,-2.95,-2.96,-2.79,-2.79,-2.79
258.00,-0.05,2.76,-0.05,2.75,-2.75,-2.97,-2.98,-2.80,-2.80,-2.81
260.58,-0.05,2.77,-0.05,2.77,-2.76,-2.99,-2.99,-2.81,-2.81,-2.82
263.19,-0.05,2.78,-0.05,2.78,-2.77,-3.01,-3.00,-2.82,-2.82,-2.83
265.82,-0.05,2.79,-0.05,2.78,-2.78,-3.02,-3.00,-2.83,-2.83,-2.84
268.48,-0.05,2.79,-0.05,2.79,-2.79,-3.03,-3.01,-2.84,-2.84,-2.84
271.16,-0.05,2.79,-0.05,2.79,-2.80,-3.03,-3.01,-2.85,-2.85,-2.84
273.87,-0.05,2.80,-0.05,2.80,-2.80,-3.03,-3.00,-2.85,-2.85,-2.85
276.61,-0.05,2.81,-0.05,2.81,-2.81,-3.03,-3.00,-2.86,-2.86,-2.86
279.38,-0.05,2.83,-0.05,2.82,-2.81,-3.02,-2.99,-2.86,-2.86,-2.88
282.17,-0.05,2.83,-0.05,2.82,-2.82,-3.01,-2.98,-2.87,-2.87,-2.88
284.99,-0.05,2.82,-0.05,2.82,-2.82,-3.00,-2.97,-2.87,-2.87,-2.87
287.84,-0.05,2.82,-0.05,2.82,-2.82,-2.99,-2.96,-2.87,-2.87,-2.87
290.72,-0.05,2.83,-0.05,2.82,-2.82,-2.97,-2.95,-2.87,-2.87,-2.88
293.63,-0.05,2.82,-0.05,2.82,-2.82,-2.95,-2.93,-2.87,-2.87,-2.87
296.57,-0.05,2.82,-0.05,2.82,-2.81,-2.94,-2.92,-2.86,-2.86,-2.87
299.53,-0.05,2.83,-0.05,2.82,-2.80,-2.92,-2.91,-2.85,-2.85,-2.88
302.53,-0.05,2.81,-0.05,2.81,-2.80,-2.90,-2.89,-2.85,-2.85,-2.86
305.55,-0.05,2.82,-0.05,2.81,-2.81,-2.88,-2.88,-2.87,-2.87,-2.87
308.61,-0.05,2.81,-0.06,2.80,-2.84,-2.86,-2.87,-2.89,-2.90,-2.86
311.69,-0.05,2.82,-0.05,2.81,-2.86,-2.84,-2.86,-2.91,-2.92,-2.87
314.81,-0.05,2.81,0.00,2.86,-2.89,-2.83,-2.85,-2.95,-2.89,-2.86
317.96,0.09,2.96,0.07,2.94,-2.93,-2.81,-2.84,-2.84,-2.86,-2.87
321.14,0.18,3.04,0.14,3.00,-2.96,-2.80,-2.84,-2.78,-2.82,-2.86
324.35,0.18,3.05,0.19,3.04,-2.99,-2.79,-2.83,-2.81,-2.80,-2.87
327.59,0.18,3.02,0.19,3.04,-3.01,-2.77,-2.83,-2.83,-2.83,-2.84
330.87,0.18,3.03,0.18,3.03,-3.03,-2.76,-2.83,-2.85,-2.85,-2.85
334.18,0.18,3.03,0.18,3.02,-3.02,-2.76,-2.83,-2.85,-2.85,-2.85
337.52,0.18,3.02,0.18,3.02,-3.01,-2.75,-2.84,-2.83,-2.83,-2.84
340.90,0.18,3.01,0.18,3.00,-3.00,-2.75,-2.84,-2.82,-2.82,-2.83
344.30,0.18,3.00,0.18,3.00,-3.00,-2.75,-2.85,-2.82,-2.82,-2.82
347.75,0.18,2.99,0.17,2.98,-3.01,-2.75,-2.86,-2.83,-2.84,-2.81
351.23,0.18,3.00,0.18,2.98,-3.03,-2.75,-2.88,-2.85,-2.85,-2.82
354.74,0.18,2.97,0.22,3.01,-3.05,-2.75,-2.89,-2.87,-2.83,-2.79
358.28,0.29,3.08,0.28,3.07,-3.08,-2.76,-2.91,-2.79,-2.79,-2.79
361.87,0.38,3.17,0.35,3.13,-3.10,-2.77,-2.93,-2.72,-2.75,-2.79
365.49,0.40,3.18,0.40,3.17,-3.13,-2.78,-2.95,-2.73,-2.73,-2.78
369.14,0.40,3.17,0.41,3.18,-3.14,-2.80,-2.98,-2.74,-2.74,-2.77
372.83,0.40,3.16,0.40,3.16,-3.15,-2.81,-3.00,-2.76,-2.75,-2.76
376.56,0.40,3.17,0.40,3.16,-3.16,-2.83,-3.03,-2.76,-2.76,-2.77
380.33,0.40,3.16,0.40,3.15,-3.16,-2.85,-3.06,-2.76,-2.76,-2.76
384.13,0.40,3.15,0.40,3.15,-3.16,-2.87,-3.10,-2.76,-2.76,-2.75
387.97,0.40,3.15,0.39,3.14,-3.17,-2.89,-3.13,-2.77,-2.77,-2.75
391.85,0.40,3.15,0.39,3.14,-3.18,-2.91,-3.17,-2.78,-2.79,-2.75
395.77,0.40,3.16,0.42,3.17,-3.20,-2.94,-3.21,-2.81,-2.78,-2.76
399.73,0.46,3.21,0.48,3.23,-3.23,-2.97,-3.25,-2.77,-2.74,-2.75
403.72,0.59,3.32,0.56,3.29,-3.25,-3.00,-3.29,-2.66,-2.70,-2.73
407.76,0.63,3.36,0.62,3.34,-3.28,-3.03,-3.33,-2.66,-2.67,-2.73
411.84,0.63,3.35,0.64,3.35,-3.32,-3.06,-3.37,-2.69,-2.68,-2.72
415.96,0.63,3.34,0.62,3.33,-3.36,-3.09,-3.41,-2.73,-2.74,-2.71
420.12,0.63,3.34,0.64,3.34,-3.39,-3.12,-3.46,-2.76,-2.76,-2.71
424.32,0.65,3.34,0.70,3.38,-3.42,-3.15,-3.50,-2.77,-2.73,-2.69
428.56,0.80,3.47,0.77,3.44,-3.44,-3.18,-3.54,-2.64,-2.67,-2.67
432.85,0.86,3.52,0.83,3.49,-3.46,-3.21,-3.58,-2.60,-2.62,-2.66
437.18,0.86,3.51,0.87,3.52,-3.48,-3.25,-3.62,-2.62,-2.61,-2.65
441.55,0.86,3.51,0.86,3.51,-3.49,-3.28,-3.66,-2.64,-2.63,-2.65
445.96,0.86,3.49,0.86,3.49,-3.50,-3.31,-3.70,-2.65,-2.65,-2.63
450.42,0.86,3.48,0.86,3.47,-3.50,-3.34,-3.73,-2.64,-2.64,-2.62
454.93,0.86,3.46,0.86,3.46,-3.47,-3.36,-3.76,-2.61,-2.61,-2.60
