frequency,raw,error,smoothed,error_smoothed,equalization,parametric_eq,fixed_band_eq,equalized_raw,equalized_smoothed,target
20.00,-5.76,-7.59,-5.87,-7.73,7.73,6.92,2.50,1.98,1.87,1.84
20.20,-5.74,-7.62,-5.77,-7.68,7.68,6.89,2.57,1.94,1.90,1.89
20.40,-5.72,-7.65,-5.68,-7.62,7.62,6.87,2.65,1.90,1.94,1.94
20.61,-5.69,-7.65,-5.59,-7.56,7.56,6.85,2.72,1.88,1.97,1.96
20.81,-5.66,-7.68,-5.51,-7.51,7.51,6.82,2.80,1.84,2.00,2.01
21.02,-5.63,-7.68,-5.43,-7.45,7.45,6.80,2.88,1.83,2.03,2.05
21.23,-5.45,-7.53,-5.35,-7.40,7.40,6.77,2.97,1.94,2.05,2.07
21.44,-5.27,-7.37,-5.27,-7.34,7.34,6.74,3.05,2.07,2.07,2.09
21.66,-5.11,-7.22,-5.20,-7.29,7.29,6.72,3.14,2.18,2.09,2.11
21.87,-4.92,-7.05,-5.13,-7.24,7.24,6.69,3.23,2.32,2.11,2.12
22.09,-4.83,-6.97,-5.06,-7.19,7.19,6.66,3.32,2.37,2.13,2.14
22.31,-4.82,-6.97,-5.00,-7.14,7.14,6.63,3.42,2.33,2.14,2.15
22.54,-4.81,-6.95,-4.95,-7.10,7.10,6.60,3.52,2.29,2.15,2.15
22.76,-4.81,-6.95,-4.90,-7.05,7.05,6.57,3.62,2.25,2.15,2.15
22.99,-4.80,-6.93,-4.85,-7.00,7.00,6.54,3.72,2.21,2.15,2.14
23.22,-4.84,-6.97,-4.80,-6.96,6.96,6.51,3.82,2.12,2.15,2.14
23.45,-4.88,-7.01,-4.76,-6.91,6.91,6.47,3.93,2.03,2.15,2.14
23.69,-4.91,-7.06,-4.71,-6.87,6.87,6.44,4.04,1.95,2.15,2.15
23.92,-4.96,-7.11,-4.67,-6.82,6.82,6.41,4.15,1.86,2.15,2.14
24.16,-4.83,-6.99,-4.61,-6.76,6.76,6.37,4.26,1.93,2.15,2.15
24.40,-4.63,-6.80,-4.54,-6.69,6.69,6.34,4.38,2.06,2.15,2.16
24.65,-4.43,-6.58,-4.46,-6.61,6.61,6.30,4.50,2.18,2.15,2.15
24.89,-4.22,-6.37,-4.36,-6.51,6.51,6.27,4.61,2.29,2.15,2.15
25.14,-4.10,-6.25,-4.26,-6.41,6.41,6.23,4.73,2.31,2.15,2.15
25.39,-4.04,-6.20,-4.16,-6.31,6.31,6.19,4.85,2.27,2.15,2.16
25.65,-3.99,-6.14,-4.06,-6.22,6.22,6.16,4.97,2.23,2.15,2.16
25.91,-3.93,-6.07,-3.97,-6.12,6.12,6.12,5.09,2.20,2.15,2.15
26.16,-3.86,-6.01,-3.89,-6.04,6.04,6.08,5.21,2.17,2.15,2.15
26.43,-3.80,-5.94,-3.81,-5.96,5.96,6.04,5.33,2.16,2.15,2.14
26.69,-3.73,-5.87,-3.75,-5.90,5.90,6.00,5.45,2.17,2.15,2.14
26.96,-3.66,-5.81,-3.70,-5.85,5.85,5.96,5.56,2.19,2.14,2.15
27.23,-3.64,-5.79,-3.66,-5.80,5.80,5.92,5.67,2.16,2.14,2.15
27.50,-3.62,-5.76,-3.60,-5.74,5.74,5.88,5.78,2.13,2.14,2.15
27.77,-3.60,-5.74,-3.54,-5.68,5.68,5.84,5.88,2.08,2.14,2.14
28.05,-3.57,-5.71,-3.46,-5.60,5.60,5.80,5.98,2.02,2.14,2.14
28.33,-3.47,-5.60,-3.36,-5.49,5.49,5.75,6.08,2.02,2.13,2.12
28.62,-3.37,-5.49,-3.25,-5.38,5.38,5.71,6.16,2.01,2.13,2.12
28.90,-3.26,-5.40,-3.14,-5.27,5.27,5.67,6.25,2.01,2.13,2.13
29.19,-3.13,-5.24,-3.05,-5.18,5.18,5.62,6.32,2.05,2.13,2.12
29.48,-2.97,-5.11,-2.96,-5.09,5.09,5.58,6.38,2.12,2.13,2.14
29.78,-2.83,-4.95,-2.88,-5.01,5.01,5.53,6.44,2.18,2.13,2.13
30.08,-2.69,-4.82,-2.81,-4.94,4.94,5.49,6.48,2.25,2.12,2.13
30.38,-2.59,-4.71,-2.75,-4.87,4.87,5.44,6.51,2.28,2.12,2.12
30.68,-2.49,-4.60,-2.71,-4.82,4.82,5.39,6.54,2.34,2.12,2.12
30.99,-2.38,-4.49,-2.68,-4.80,4.80,5.35,6.55,2.42,2.12,2.12
31.30,-2.50,-4.62,-2.67,-4.79,4.79,5.30,6.55,2.28,2.12,2.11
31.61,-2.65,-4.77,-2.66,-4.77,4.77,5.25,6.54,2.12,2.11,2.11
31.93,-2.79,-4.90,-2.63,-4.74,4.74,5.20,6.52,1.95,2.11,2.11
32.24,-2.79,-4.89,-2.59,-4.70,4.70,5.15,6.49,1.90,2.10,2.10
32.57,-2.75,-4.85,-2.57,-4.67,4.67,5.10,6.45,1.92,2.10,2.10
32.89,-2.70,-4.80,-2.55,-4.64,4.64,5.05,6.40,1.94,2.09,2.10
33.22,-2.67,-4.75,-2.52,-4.61,4.61,5.00,6.34,1.94,2.09,2.09
33.55,-2.62,-4.71,-2.48,-4.56,4.56,4.95,6.27,1.94,2.08,2.08
33.89,-2.59,-4.66,-2.42,-4.50,4.50,4.90,6.20,1.91,2.08,2.07
34.23,-2.38,-4.45,-2.35,-4.42,4.42,4.85,6.11,2.05,2.07,2.08
34.57,-2.08,-4.15,-2.28,-4.35,4.35,4.80,6.02,2.26,2.07,2.06
34.92,-1.80,-3.86,-2.20,-4.26,4.26,4.74,5.93,2.46,2.06,2.06
35.27,-1.82,-3.88,-2.11,-4.17,4.17,4.69,5.83,2.35,2.06,2.06
35.62,-1.96,-4.02,-2.02,-4.08,4.08,4.64,5.73,2.11,2.06,2.05
35.97,-2.10,-4.15,-1.93,-3.99,3.99,4.58,5.62,1.88,2.05,2.05
36.33,-1.95,-4.01,-1.84,-3.89,3.89,4.53,5.51,1.94,2.05,2.05
36.70,-1.78,-3.82,-1.74,-3.79,3.79,4.47,5.40,2.01,2.05,2.04
37.06,-1.65,-3.68,-1.65,-3.70,3.70,4.42,5.28,2.05,2.05,2.04
37.43,-1.68,-3.73,-1.57,-3.62,3.62,4.36,5.17,1.94,2.05,2.05
37.81,-1.72,-3.76,-1.50,-3.55,3.55,4.30,5.06,1.83,2.05,2.05
38.19,-1.62,-3.66,-1.45,-3.49,3.49,4.25,4.94,1.88,2.04,2.04
38.57,-1.36,-3.40,-1.39,-3.43,3.43,4.19,4.83,2.08,2.04,2.05
38.95,-1.10,-3.15,-1.30,-3.34,3.34,4.13,4.72,2.24,2.04,2.05
39.34,-1.01,-3.06,-1.19,-3.23,3.23,4.07,4.60,2.22,2.04,2.04
39.74,-0.95,-2.98,-1.07,-3.11,3.11,4.02,4.50,2.17,2.04,2.04
40.14,-0.92,-2.96,-0.97,-3.01,3.01,3.96,4.39,2.10,2.04,2.04
40.54,-0.96,-3.00,-0.90,-2.93,2.93,3.90,4.28,1.97,2.04,2.04
40.94,-1.01,-3.04,-0.83,-2.86,2.86,3.84,4.18,1.84,2.03,2.03
41.35,-0.92,-2.95,-0.77,-2.79,2.79,3.78,4.08,1.87,2.02,2.02
41.76,-0.80,-2.82,-0.71,-2.73,2.73,3.72,3.98,1.92,2.02,2.01
42.18,-0.67,-2.69,-0.68,-2.68,2.68,3.65,3.88,2.01,2.01,2.02
42.60,-0.54,-2.54,-0.67,-2.66,2.66,3.59,3.79,2.12,1.99,2.00
43.03,-0.44,-2.43,-0.68,-2.66,2.66,3.53,3.70,2.22,1.98,1.99
43.46,-0.57,-2.55,-0.71,-2.68,2.68,3.47,3.61,2.12,1.97,1.98
43.90,-0.70,-2.66,-0.77,-2.72,2.72,3.40,3.53,2.02,1.96,1.95
44.33,-0.79,-2.72,-0.81,-2.75,2.75,3.34,3.44,1.96,1.94,1.93
44.78,-0.85,-2.76,-0.84,-2.77,2.77,3.28,3.36,1.92,1.93,1.92
45.23,-0.91,-2.82,-0.89,-2.80,2.80,3.21,3.29,1.89,1.91,1.91
45.68,-0.98,-2.87,-0.96,-2.86,2.86,3.15,3.21,1.87,1.89,1.89
46.13,-1.07,-2.93,-1.06,-2.94,2.94,3.08,3.14,1.87,1.88,1.87
46.60,-1.17,-3.04,-1.16,-3.02,3.02,3.01,3.07,1.85,1.86,1.86
47.06,-1.29,-3.13,-1.26,-3.10,3.10,2.95,3.00,1.81,1.84,1.84
47.53,-1.45,-3.28,-1.34,-3.17,3.17,2.88,2.94,1.72,1.83,1.83
48.01,-1.59,-3.42,-1.39,-3.20,3.20,2.81,2.88,1.61,1.81,1.83
48.49,-1.37,-3.17,-1.40,-3.20,3.20,2.74,2.82,1.83,1.80,1.81
48.97,-1.14,-2.92,-1.40,-3.18,3.18,2.68,2.76,2.04,1.78,1.78
49.46,-1.39,-3.15,-1.39,-3.16,3.16,2.61,2.70,1.77,1.77,1.76
49.96,-1.67,-3.41,-1.38,-3.13,3.13,2.54,2.65,1.46,1.75,1.74
50.46,-1.60,-3.33,-1.37,-3.11,3.11,2.47,2.59,1.51,1.73,1.73
50.96,-1.50,-3.21,-1.36,-3.08,3.08,2.40,2.54,1.59,1.72,1.72
51.47,-1.37,-3.06,-1.35,-3.06,3.06,2.32,2.49,1.69,1.70,1.69
51.99,-1.24,-2.91,-1.34,-3.03,3.03,2.25,2.44,1.79,1.69,1.68
52.51,-1.09,-2.76,-1.34,-3.01,3.01,2.18,2.39,1.93,1.67,1.67
53.03,-0.95,-2.61,-1.34,-3.00,3.00,2.10,2.34,2.05,1.66,1.66
53.56,-1.11,-2.75,-1.35,-2.99,2.99,2.03,2.30,1.88,1.64,1.64
54.10,-1.26,-2.89,-1.37,-2.99,2.99,1.95,2.25,1.73,1.63,1.63
54.64,-1.42,-3.03,-1.36,-2.98,2.98,1.88,2.20,1.55,1.61,1.61
55.18,-1.52,-3.11,-1.33,-2.93,2.93,1.80,2.15,1.41,1.60,1.60
55.74,-1.51,-3.08,-1.30,-2.88,2.88,1.73,2.10,1.38,1.58,1.58
56.29,-1.47,-3.03,-1.28,-2.84,2.84,1.65,2.05,1.38,1.57,1.57
56.86,-1.41,-2.95,-1.24,-2.79,2.79,1.57,2.00,1.39,1.55,1.55
57.42,-1.32,-2.84,-1.19,-2.72,2.72,1.49,1.94,1.39,1.53,1.51
58.00,-1.24,-2.74,-1.12,-2.63,2.63,1.41,1.89,1.39,1.50,1.50
58.58,-1.07,-2.55,-1.04,-2.52,2.52,1.33,1.83,1.46,1.48,1.49
59.16,-0.90,-2.37,-0.95,-2.40,2.40,1.25,1.77,1.49,1.45,1.46
59.76,-0.80,-2.23,-0.84,-2.26,2.26,1.16,1.71,1.46,1.42,1.44
60.35,-0.66,-2.06,-0.75,-2.13,2.13,1.08,1.64,1.46,1.38,1.39
60.96,-0.54,-1.89,-0.66,-2.00,2.00,1.00,1.58,1.47,1.34,1.35
61.57,-0.44,-1.74,-0.59,-1.90,1.90,0.91,1.50,1.46,1.30,1.31
62.18,-0.36,-1.61,-0.54,-1.80,1.80,0.82,1.43,1.45,1.26,1.26
62.80,-0.31,-1.52,-0.50,-1.72,1.72,0.74,1.35,1.41,1.22,1.21
63.43,-0.35,-1.51,-0.47,-1.64,1.64,0.65,1.27,1.29,1.17,1.16
64.07,-0.43,-1.54,-0.44,-1.56,1.56,0.56,1.19,1.12,1.12,1.11
64.71,-0.51,-1.56,-0.41,-1.48,1.48,0.47,1.10,0.97,1.07,1.06
65.35,-0.55,-1.56,-0.38,-1.40,1.40,0.37,1.01,0.85,1.01,1.01
66.01,-0.57,-1.53,-0.36,-1.32,1.32,0.28,0.91,0.75,0.96,0.96
66.67,-0.48,-1.38,-0.32,-1.23,1.23,0.19,0.81,0.76,0.91,0.91
67.33,-0.37,-1.23,-0.28,-1.14,1.14,0.09,0.71,0.77,0.86,0.85
68.01,-0.26,-1.06,-0.23,-1.03,1.03,-0.01,0.61,0.78,0.80,0.80
68.69,-0.16,-0.90,-0.17,-0.91,0.91,-0.10,0.50,0.75,0.74,0.75
69.37,-0.01,-0.70,-0.08,-0.77,0.77,-0.20,0.39,0.76,0.69,0.69
70.07,0.15,-0.47,0.01,-0.62,0.62,-0.30,0.28,0.77,0.63,0.63
70.77,0.24,-0.33,0.13,-0.44,0.44,-0.41,0.16,0.68,0.57,0.58
71.48,0.30,-0.21,0.27,-0.24,0.24,-0.51,0.04,0.55,0.51,0.52
72.19,0.36,-0.08,0.41,-0.04,0.04,-0.61,-0.08,0.40,0.44,0.45
72.91,0.46,0.07,0.55,0.17,-0.17,-0.72,-0.20,0.28,0.38,0.38
73.64,0.64,0.32,0.70,0.38,-0.38,-0.83,-0.33,0.25,0.32,0.32
74.38,0.80,0.55,0.84,0.59,-0.59,-0.94,-0.45,0.22,0.25,0.25
75.12,0.97,0.78,1.00,0.81,-0.81,-1.05,-0.58,0.16,0.19,0.19
75.87,1.09,0.97,1.15,1.02,-1.02,-1.16,-0.72,0.06,0.13,0.12
76.63,1.27,1.20,1.30,1.23,-1.23,-1.28,-0.85,0.04,0.07,0.06
77.40,1.48,1.48,1.44,1.43,-1.43,-1.39,-0.99,0.05,0.01,0.00
78.17,1.72,1.78,1.60,1.65,-1.65,-1.51,-1.13,0.06,-0.05,-0.07
78.95,1.85,1.95,1.77,1.89,-1.89,-1.63,-1.27,-0.04,-0.11,-0.11
79.74,1.96,2.13,1.94,2.12,-2.12,-1.75,-1.41,-0.16,-0.17,-0.17
80.54,2.08,2.31,2.09,2.32,-2.32,-1.88,-1.55,-0.23,-0.23,-0.22
81.35,2.22,2.51,2.22,2.50,-2.50,-2.00,-1.70,-0.28,-0.28,-0.29
82.16,2.36,2.71,2.34,2.68,-2.68,-2.13,-1.84,-0.31,-0.34,-0.34
82.98,2.48,2.87,2.47,2.87,-2.87,-2.26,-1.99,-0.38,-0.40,-0.39
83.81,2.50,2.95,2.61,3.06,-3.06,-2.39,-2.14,-0.56,-0.45,-0.45
84.65,2.63,3.15,2.72,3.22,-3.22,-2.52,-2.30,-0.59,-0.51,-0.51
85.50,2.91,3.47,2.80,3.37,-3.37,-2.66,-2.45,-0.46,-0.57,-0.56
86.35,3.10,3.72,2.90,3.52,-3.52,-2.79,-2.61,-0.42,-0.62,-0.62
87.22,3.04,3.72,3.00,3.68,-3.68,-2.93,-2.77,-0.63,-0.68,-0.68
88.09,2.93,3.67,3.09,3.83,-3.83,-3.07,-2.93,-0.90,-0.74,-0.74
88.97,2.93,3.73,3.18,3.98,-3.98,-3.21,-3.10,-1.04,-0.80,-0.80
89.86,3.22,4.09,3.26,4.12,-4.12,-3.36,-3.26,-0.89,-0.86,-0.86
90.76,3.53,4.46,3.32,4.24,-4.24,-3.50,-3.43,-0.71,-0.92,-0.92
91.66,3.59,4.57,3.39,4.37,-4.37,-3.65,-3.60,-0.77,-0.98,-0.98
92.58,3.39,4.45,3.45,4.49,-4.49,-3.80,-3.77,-1.10,-1.04,-1.05
93.51,3.32,4.43,3.52,4.62,-4.62,-3.95,-3.95,-1.30,-1.10,-1.10
94.44,3.58,4.73,3.58,4.74,-4.74,-4.11,-4.12,-1.17,-1.16,-1.16
95.39,3.83,5.05,3.65,4.87,-4.87,-4.26,-4.30,-1.03,-1.22,-1.22
96.34,3.78,5.07,3.73,5.00,-5.00,-4.42,-4.48,-1.22,-1.28,-1.28
97.30,3.66,4.99,3.82,5.15,-5.15,-4.57,-4.67,-1.50,-1.33,-1.34
98.28,3.77,5.17,3.90,5.30,-5.30,-4.73,-4.85,-1.52,-1.39,-1.39
99.26,3.88,5.33,3.95,5.40,-5.40,-4.89,-5.04,-1.52,-1.45,-1.45
100.25,3.92,5.43,3.99,5.50,-5.50,-5.05,-5.23,-1.57,-1.51,-1.51
101.25,4.11,5.67,4.04,5.61,-5.61,-5.21,-5.41,-1.50,-1.57,-1.56
102.27,4.23,5.86,4.12,5.74,-5.74,-5.37,-5.60,-1.51,-1.62,-1.62
103.29,4.27,5.96,4.20,5.88,-5.88,-5.53,-5.79,-1.61,-1.68,-1.69
104.32,4.32,6.06,4.25,6.00,-6.00,-5.69,-5.98,-1.67,-1.74,-1.74
105.37,4.36,6.16,4.29,6.10,-6.10,-5.85,-6.17,-1.73,-1.80,-1.80
106.42,4.36,6.22,4.35,6.21,-6.21,-6.00,-6.36,-1.85,-1.86,-1.85
107.48,4.37,6.30,4.42,6.34,-6.34,-6.16,-6.55,-1.97,-1.93,-1.92
108.56,4.28,6.27,4.48,6.47,-6.47,-6.31,-6.73,-2.18,-1.99,-1.99
109.64,4.29,6.33,4.51,6.56,-6.56,-6.46,-6.91,-2.27,-2.05,-2.05
110.74,4.61,6.73,4.53,6.64,-6.64,-6.61,-7.09,-2.03,-2.11,-2.11
111.85,4.64,6.81,4.55,6.72,-6.72,-6.76,-7.26,-2.08,-2.17,-2.16
112.97,4.69,6.93,4.56,6.79,-6.79,-6.90,-7.42,-2.10,-2.23,-2.24
114.10,4.55,6.84,4.57,6.86,-6.86,-7.03,-7.58,-2.31,-2.29,-2.29
115.24,4.57,6.92,4.57,6.92,-6.92,-7.17,-7.73,-2.35,-2.35,-2.35
116.39,4.69,7.11,4.59,6.99,-6.99,-7.29,-7.88,-2.29,-2.40,-2.42
117.55,4.76,7.23,4.59,7.05,-7.05,-7.41,-8.01,-2.28,-2.45,-2.46
118.73,4.61,7.13,4.60,7.11,-7.11,-7.52,-8.13,-2.49,-2.50,-2.52
119.92,4.50,7.05,4.62,7.17,-7.17,-7.63,-8.24,-2.67,-2.55,-2.55
121.12,4.43,7.04,4.63,7.23,-7.23,-7.73,-8.34,-2.79,-2.60,-2.60
122.33,4.57,7.22,4.63,7.27,-7.27,-7.82,-8.43,-2.70,-2.64,-2.65
123.55,4.61,7.30,4.63,7.31,-7.31,-7.90,-8.50,-2.70,-2.69,-2.68
124.79,4.57,7.30,4.64,7.37,-7.37,-7.98,-8.56,-2.79,-2.73,-2.72
126.03,4.57,7.34,4.65,7.42,-7.42,-8.04,-8.60,-2.84,-2.77,-2.76
127.29,4.71,7.51,4.67,7.47,-7.47,-8.10,-8.64,-2.76,-2.81,-2.79
128.57,4.77,7.62,4.68,7.52,-7.52,-8.15,-8.66,-2.75,-2.85,-2.84
129.85,4.67,7.56,4.68,7.57,-7.57,-8.19,-8.66,-2.89,-2.88,-2.88
131.15,4.80,7.73,4.70,7.62,-7.62,-8.22,-8.66,-2.82,-2.92,-2.92
132.46,4.82,7.78,4.72,7.68,-7.68,-8.25,-8.64,-2.86,-2.96,-2.96
133.79,4.76,7.76,4.74,7.74,-7.74,-8.27,-8.62,-2.97,-3.00,-3.00
135.12,4.71,7.76,4.74,7.78,-7.78,-8.28,-8.58,-3.06,-3.03,-3.04
136.48,4.71,7.78,4.74,7.81,-7.81,-8.28,-8.54,-3.09,-3.07,-3.07
137.84,4.66,7.78,4.74,7.84,-7.84,-8.28,-8.49,-3.18,-3.10,-3.11
139.22,4.69,7.85,4.74,7.88,-7.88,-8.27,-8.43,-3.19,-3.14,-3.15
140.61,4.72,7.92,4.74,7.92,-7.92,-8.26,-8.37,-3.19,-3.18,-3.20
142.02,4.72,7.94,4.74,7.96,-7.96,-8.24,-8.30,-3.23,-3.22,-3.22
143.44,4.72,7.98,4.74,8.00,-8.00,-8.22,-8.23,-3.28,-3.26,-3.26
144.87,4.72,8.03,4.74,8.05,-8.05,-8.20,-8.16,-3.33,-3.31,-3.31
146.32,4.72,8.08,4.73,8.09,-8.09,-8.17,-8.09,-3.37,-3.36,-3.36
147.78,4.72,8.12,4.73,8.15,-8.15,-8.15,-8.01,-3.42,-3.42,-3.39
149.26,4.72,8.17,4.71,8.20,-8.20,-8.12,-7.94,-3.47,-3.48,-3.45
150.75,4.72,8.25,4.69,8.24,-8.24,-8.09,-7.87,-3.51,-3.55,-3.52
152.26,4.72,8.32,4.65,8.27,-8.27,-8.06,-7.80,-3.55,-3.62,-3.60
153.78,4.72,8.40,4.62,8.31,-8.31,-8.03,-7.73,-3.58,-3.69,-3.67
155.32,4.67,8.43,4.58,8.34,-8.34,-8.00,-7.66,-3.67,-3.77,-3.76
156.88,4.62,8.46,4.55,8.39,-8.39,-7.98,-7.60,-3.77,-3.85,-3.84
158.44,4.51,8.44,4.52,8.45,-8.45,-7.95,-7.54,-3.93,-3.92,-3.93
160.03,4.44,8.46,4.50,8.50,-8.50,-7.93,-7.49,-4.05,-4.00,-4.02
161.63,4.38,8.48,4.49,8.56,-8.56,-7.91,-7.44,-4.18,-4.07,-4.10
163.24,4.31,8.48,4.49,8.63,-8.63,-7.90,-7.39,-4.32,-4.14,-4.16
164.88,4.29,8.51,4.49,8.70,-8.70,-7.88,-7.35,-4.40,-4.20,-4.22
166.53,4.34,8.62,4.49,8.75,-8.75,-7.87,-7.32,-4.40,-4.26,-4.27
168.19,4.42,8.74,4.49,8.79,-8.79,-7.87,-7.29,-4.37,-4.30,-4.32
169.87,4.56,8.93,4.49,8.83,-8.83,-7.87,-7.26,-4.27,-4.34,-4.36
171.57,4.60,8.99,4.49,8.86,-8.86,-7.87,-7.24,-4.25,-4.37,-4.39
173.29,4.67,9.08,4.48,8.88,-8.88,-7.88,-7.22,-4.21,-4.40,-4.41
175.02,4.60,9.02,4.48,8.90,-8.90,-7.89,-7.21,-4.30,-4.42,-4.42
176.77,4.54,8.98,4.48,8.92,-8.92,-7.91,-7.21,-4.37,-4.43,-4.44
178.54,4.62,9.07,4.47,8.92,-8.92,-7.93,-7.21,-4.29,-4.45,-4.45
180.32,4.46,8.91,4.45,8.91,-8.91,-7.96,-7.22,-4.44,-4.46,-4.45
182.13,4.29,8.74,4.41,8.88,-8.88,-7.99,-7.23,-4.59,-4.47,-4.45
183.95,4.19,8.66,4.37,8.84,-8.84,-8.02,-7.24,-4.65,-4.48,-4.46
185.79,4.19,8.66,4.30,8.79,-8.79,-8.07,-7.27,-4.59,-4.49,-4.47
187.65,4.16,8.66,4.21,8.72,-8.72,-8.11,-7.29,-4.56,-4.51,-4.49
189.52,4.07,8.58,4.12,8.64,-8.64,-8.16,-7.33,-4.57,-4.52,-4.51
191.42,4.08,8.62,4.02,8.56,-8.56,-8.21,-7.36,-4.47,-4.54,-4.53
193.33,4.08,8.64,3.91,8.46,-8.46,-8.27,-7.41,-4.38,-4.56,-4.56
195.27,3.90,8.47,3.79,8.37,-8.37,-8.33,-7.45,-4.48,-4.58,-4.58
197.22,3.71,8.31,3.67,8.27,-8.27,-8.39,-7.50,-4.56,-4.60,-4.60
199.19,3.62,8.26,3.55,8.17,-8.17,-8.46,-7.56,-4.54,-4.62,-4.63
201.18,3.51,8.17,3.42,8.07,-8.07,-8.52,-7.61,-4.56,-4.65,-4.65
203.19,3.33,8.01,3.30,7.97,-7.97,-8.59,-7.68,-4.64,-4.67,-4.67
205.23,3.15,7.84,3.18,7.87,-7.87,-8.65,-7.74,-4.73,-4.70,-4.70
207.28,3.01,7.72,3.06,7.78,-7.78,-8.71,-7.81,-4.76,-4.72,-4.71
209.35,2.86,7.60,2.96,7.70,-7.70,-8.77,-7.87,-4.83,-4.74,-4.74
211.44,2.73,7.51,2.87,7.63,-7.63,-8.83,-7.94,-4.90,-4.76,-4.77
213.56,2.69,7.47,2.80,7.58,-7.58,-8.88,-8.01,-4.88,-4.78,-4.78
215.69,2.69,7.49,2.75,7.55,-7.55,-8.93,-8.08,-4.86,-4.80,-4.80
217.85,2.69,7.51,2.74,7.56,-7.56,-8.96,-8.15,-4.86,-4.81,-4.81
220.03,2.69,7.52,2.75,7.58,-7.58,-8.99,-8.21,-4.88,-4.82,-4.83
222.23,2.72,7.58,2.78,7.61,-7.61,-9.01,-8.28,-4.89,-4.83,-4.85
224.45,2.83,7.68,2.82,7.66,-7.66,-9.01,-8.33,-4.83,-4.84,-4.85
226.70,2.93,7.78,2.89,7.73,-7.73,-9.00,-8.39,-4.80,-4.84,-4.85
228.96,3.00,7.85,2.97,7.81,-7.81,-8.98,-8.44,-4.81,-4.84,-4.84
231.25,3.08,7.92,3.06,7.90,-7.90,-8.95,-8.48,-4.81,-4.84,-4.83
233.57,3.15,7.98,3.16,7.99,-7.99,-8.90,-8.51,-4.83,-4.83,-4.83
235.90,3.27,8.09,3.26,8.08,-8.08,-8.84,-8.53,-4.80,-4.81,-4.82
238.26,3.40,8.21,3.36,8.16,-8.16,-8.76,-8.55,-4.75,-4.80,-4.81
240.64,3.46,8.26,3.46,8.24,-8.24,-8.67,-8.55,-4.77,-4.78,-4.79
243.05,3.51,8.28,3.55,8.31,-8.31,-8.56,-8.55,-4.80,-4.76,-4.76
245.48,3.57,8.32,3.64,8.38,-8.38,-8.44,-8.53,-4.80,-4.74,-4.74
247.93,3.69,8.41,3.71,8.43,-8.43,-8.31,-8.49,-4.74,-4.72,-4.71
250.41,3.81,8.52,3.77,8.47,-8.47,-8.17,-8.45,-4.65,-4.70,-4.70
252.92,3.85,8.52,3.81,8.49,-8.49,-8.02,-8.39,-4.64,-4.68,-4.67
255.45,3.86,8.51,3.85,8.51,-8.51,-7.86,-8.32,-4.65,-4.66,-4.65
258.00,3.87,8.50,3.88,8.51,-8.51,-7.69,-8.24,-4.64,-4.63,-4.63
260.58,3.88,8.50,3.88,8.49,-8.49,-7.52,-8.15,-4.61,-4.61,-4.62
263.19,3.88,8.47,3.86,8.45,-8.45,-7.34,-8.04,-4.56,-4.59,-4.58
265.82,3.88,8.46,3.83,8.39,-8.39,-7.16,-7.92,-4.51,-4.56,-4.57
268.48,3.76,8.31,3.76,8.31,-8.31,-6.98,-7.80,-4.54,-4.54,-4.55
271.16,3.65,8.17,3.67,8.19,-8.19,-6.79,-7.66,-4.54,-4.52,-4.52
273.87,3.57,8.08,3.56,8.05,-8.05,-6.60,-7.51,-4.48,-4.49,-4.50
276.61,3.47,7.94,3.41,7.88,-7.88,-6.42,-7.36,-4.41,-4.47,-4.47
279.38,3.32,7.77,3.26,7.70,-7.70,-6.23,-7.20,-4.38,-4.44,-4.44
282.17,3.19,7.62,3.09,7.51,-7.51,-6.04,-7.04,-4.32,-4.42,-4.42
284.99,2.94,7.33,2.91,7.30,-7.30,-5.86,-6.87,-4.36,-4.39,-4.39
287.84,2.65,7.03,2.70,7.06,-7.06,-5.68,-6.70,-4.41,-4.36,-4.37
290.72,2.46,6.80,2.48,6.81,-6.81,-5.49,-6.52,-4.35,-4.34,-4.34
293.63,2.25,6.57,2.26,6.57,-6.57,-5.32,-6.34,-4.31,-4.31,-4.31
296.57,1.89,6.16,2.04,6.32,-6.32,-5.14,-6.16,-4.44,-4.28,-4.28
299.53,1.73,5.99,1.81,6.07,-6.07,-4.96,-5.98,-4.33,-4.25,-4.25
302.53,1.55,5.79,1.58,5.81,-5.81,-4.79,-5.79,-4.25,-4.23,-4.24
305.55,1.32,5.52,1.35,5.55,-5.55,-4.62,-5.61,-4.23,-4.20,-4.19
308.61,1.18,5.36,1.12,5.30,-5.30,-4.46,-5.43,-4.11,-4.18,-4.18
311.69,0.86,5.01,0.88,5.04,-5.04,-4.30,-5.24,-4.17,-4.16,-4.15
314.81,0.51,4.64,0.63,4.76,-4.76,-4.13,-5.06,-4.25,-4.14,-4.12
317.96,0.26,4.37,0.37,4.48,-4.48,-3.98,-4.88,-4.22,-4.12,-4.11
321.14,0.26,4.37,0.11,4.21,-4.21,-3.82,-4.70,-3.94,-4.10,-4.10
324.35,0.08,4.17,-0.17,3.91,-3.91,-3.66,-4.53,-3.83,-4.08,-4.09
327.59,-0.37,3.70,-0.47,3.59,-3.59,-3.51,-4.35,-3.96,-4.07,-4.07
330.87,-0.74,3.33,-0.77,3.29,-3.29,-3.36,-4.18,-4.02,-4.06,-4.06
334.18,-0.93,3.12,-1.07,2.97,-2.97,-3.21,-4.01,-3.90,-4.04,-4.05
337.52,-1.23,2.81,-1.38,2.65,-2.65,-3.07,-3.84,-3.88,-4.03,-4.04
340.90,-1.63,2.39,-1.66,2.37,-2.37,-2.92,-3.67,-4.00,-4.03,-4.02
344.30,-2.09,1.93,-1.91,2.11,-2.11,-2.77,-3.50,-4.20,-4.02,-4.01
347.75,-2.36,1.66,-2.13,1.89,-1.89,-2.63,-3.34,-4.25,-4.02,-4.02
351.23,-2.42,1.59,-2.32,1.69,-1.69,-2.49,-3.18,-4.11,-4.01,-4.01
354.74,-2.62,1.40,-2.50,1.51,-1.51,-2.35,-3.02,-4.12,-4.01,-4.01
358.28,-3.08,0.93,-2.66,1.35,-1.35,-2.20,-2.86,-4.42,-4.01,-4.00
361.87,-3.05,0.96,-2.78,1.23,-1.23,-2.06,-2.71,-4.27,-4.00,-4.01
365.49,-2.83,1.17,-2.86,1.14,-1.14,-1.92,-2.55,-3.97,-4.00,-4.00
369.14,-2.97,1.05,-2.94,1.06,-1.06,-1.78,-2.40,-4.03,-4.01,-4.01
372.83,-3.03,0.99,-3.01,1.00,-1.00,-1.64,-2.26,-4.02,-4.01,-4.01
376.56,-2.64,1.38,-3.06,0.95,-0.95,-1.49,-2.11,-3.59,-4.01,-4.01
380.33,-2.84,1.17,-3.10,0.91,-0.91,-1.35,-1.96,-3.75,-4.01,-4.01
384.13,-3.03,0.98,-3.16,0.86,-0.86,-1.21,-1.82,-3.89,-4.02,-4.01
387.97,-3.18,0.84,-3.24,0.78,-0.78,-1.07,-1.68,-3.95,-4.02,-4.02
391.85,-3.32,0.72,-3.34,0.69,-0.69,-0.93,-1.54,-4.00,-4.03,-4.03
395.77,-3.42,0.61,-3.43,0.60,-0.60,-0.78,-1.41,-4.01,-4.03,-4.02
399.73,-3.55,0.49,-3.55,0.49,-0.49,-0.64,-1.27,-4.03,-4.04,-4.04
403.72,-3.69,0.35,-3.69,0.35,-0.35,-0.50,-1.14,-4.04,-4.05,-4.04
407.76,-3.80,0.25,-3.82,0.23,-0.23,-0.36,-1.02,-4.02,-4.05,-4.05
411.84,-3.93,0.12,-3.94,0.12,-0.12,-0.23,-0.89,-4.04,-4.05,-4.05
415.96,-4.11,-0.05,-4.02,0.04,-0.04,-0.09,-0.77,-4.14,-4.05,-4.05
420.12,-4.28,-0.22,-4.12,-0.07,0.07,0.04,-0.65,-4.21,-4.05,-4.05
424.32,-4.40,-0.34,-4.20,-0.15,0.15,0.16,-0.53,-4.24,-4.05,-4.05
428.56,-4.45,-0.40,-4.25,-0.22,0.22,0.29,-0.42,-4.23,-4.04,-4.04
432.85,-4.31,-0.27,-4.29,-0.27,0.27,0.40,-0.31,-4.04,-4.02,-4.04
437.18,-4.35,-0.32,-4.33,-0.33,0.33,0.51,-0.20,-4.02,-4.00,-4.03
441.55,-4.42,-0.43,-4.37,-0.39,0.39,0.61,-0.10,-4.02,-3.98,-3.99
445.96,-4.14,-0.18,-4.40,-0.45,0.45,0.70,-0.01,-3.68,-3.94,-3.96
450.42,-4.19,-0.26,-4.41,-0.50,0.50,0.78,0.08,-3.69,-3.91,-3.93
454.93,-4.22,-0.33,-4.41,-0.55,0.55,0.85,0.17,-3.67,-3.87,-3.88
459.48,-4.27,-0.43,-4.42,-0.60,0.60,0.90,0.25,-3.67,-3.82,-3.83
464.07,-4.81,-1.02,-4.43,-0.65,0.65,0.95,0.32,-4.15,-3.78,-3.78
468.71,-4.55,-0.82,-4.44,-0.71,0.71,0.97,0.39,-3.83,-3.73,-3.72
473.40,-4.19,-0.50,-4.45,-0.77,0.77,0.99,0.45,-3.41,-3.68,-3.68
478.13,-4.49,-0.86,-4.47,-0.83,0.83,0.99,0.51,-3.65,-3.63,-3.62
482.91,-4.69,-1.10,-4.48,-0.89,0.89,0.98,0.56,-3.80,-3.59,-3.59
