frequency,raw,error,smoothed,error_smoothed,equalization,parametric_eq,fixed_band_eq,equalized_raw,equalized_smoothed,target
20.00,-5.76,-6.46,-5.87,-6.60,6.60,6.07,2.01,0.84,0.73,0.70
20.20,-5.74,-6.49,-5.77,-6.54,6.54,6.04,2.06,0.80,0.77,0.75
20.40,-5.72,-6.52,-5.68,-6.48,6.48,6.01,2.12,0.77,0.80,0.80
20.61,-5.69,-6.52,-5.59,-6.43,6.43,5.98,2.18,0.74,0.83,0.83
20.81,-5.66,-6.55,-5.51,-6.37,6.37,5.94,2.25,0.71,0.87,0.88
21.02,-5.63,-6.54,-5.43,-6.32,6.32,5.91,2.31,0.69,0.89,0.92
21.23,-5.45,-6.39,-5.35,-6.27,6.27,5.88,2.38,0.81,0.92,0.94
21.44,-5.27,-6.23,-5.27,-6.21,6.21,5.85,2.45,0.94,0.94,0.96
21.66,-5.11,-6.09,-5.20,-6.16,6.16,5.81,2.52,1.05,0.96,0.98
21.87,-4.92,-5.91,-5.13,-6.11,6.11,5.78,2.59,1.19,0.98,0.99
22.09,-4.83,-5.84,-5.06,-6.06,6.06,5.75,2.67,1.24,1.00,1.01
22.31,-4.82,-5.83,-5.00,-6.01,6.01,5.71,2.75,1.20,1.01,1.02
22.54,-4.81,-5.83,-4.95,-5.97,5.97,5.68,2.82,1.16,1.02,1.02
22.76,-4.81,-5.82,-4.90,-5.92,5.92,5.64,2.91,1.12,1.02,1.02
22.99,-4.80,-5.81,-4.85,-5.88,5.88,5.60,2.99,1.08,1.02,1.01
23.22,-4.84,-5.84,-4.80,-5.83,5.83,5.57,3.07,0.99,1.02,1.01
23.45,-4.88,-5.89,-4.76,-5.78,5.78,5.53,3.16,0.90,1.02,1.01
23.69,-4.91,-5.93,-4.71,-5.74,5.74,5.49,3.25,0.82,1.02,1.02
23.92,-4.96,-5.98,-4.67,-5.69,5.69,5.45,3.34,0.73,1.02,1.02
24.16,-4.83,-5.85,-4.61,-5.63,5.63,5.42,3.43,0.80,1.02,1.02
24.40,-4.63,-5.66,-4.54,-5.56,5.56,5.38,3.52,0.93,1.02,1.03
24.65,-4.43,-5.45,-4.46,-5.48,5.48,5.34,3.62,1.05,1.02,1.02
24.89,-4.22,-5.24,-4.36,-5.38,5.38,5.30,3.71,1.16,1.02,1.02
25.14,-4.10,-5.12,-4.26,-5.28,5.28,5.26,3.81,1.18,1.02,1.02
25.39,-4.04,-5.07,-4.16,-5.18,5.18,5.22,3.91,1.14,1.02,1.03
25.65,-3.99,-5.02,-4.06,-5.09,5.09,5.18,4.00,1.10,1.02,1.03
25.91,-3.93,-4.95,-3.97,-4.99,4.99,5.13,4.10,1.07,1.02,1.02
26.16,-3.86,-4.88,-3.89,-4.91,4.91,5.09,4.19,1.04,1.02,1.02
26.43,-3.80,-4.82,-3.81,-4.83,4.83,5.05,4.29,1.03,1.02,1.02
26.69,-3.73,-4.75,-3.75,-4.77,4.77,5.01,4.38,1.04,1.02,1.02
26.96,-3.66,-4.68,-3.70,-4.72,4.72,4.96,4.48,1.06,1.02,1.02
27.23,-3.64,-4.66,-3.66,-4.67,4.67,4.92,4.56,1.04,1.02,1.02
27.50,-3.62,-4.64,-3.60,-4.62,4.62,4.88,4.65,1.00,1.01,1.02
27.77,-3.60,-4.61,-3.54,-4.56,4.56,4.83,4.73,0.95,1.01,1.01
28.05,-3.57,-4.58,-3.46,-4.47,4.47,4.79,4.81,0.89,1.01,1.01
28.33,-3.47,-4.47,-3.36,-4.37,4.37,4.74,4.89,0.89,1.01,1.00
28.62,-3.37,-4.37,-3.25,-4.25,4.25,4.70,4.95,0.89,1.01,1.00
28.90,-3.26,-4.27,-3.14,-4.15,4.15,4.65,5.02,0.89,1.01,1.01
29.19,-3.13,-4.12,-3.05,-4.05,4.05,4.60,5.07,0.93,1.01,1.00
29.48,-2.97,-3.98,-2.96,-3.97,3.97,4.56,5.12,0.99,1.00,1.01
29.78,-2.83,-3.83,-2.88,-3.89,3.89,4.51,5.16,1.06,1.00,1.00
30.08,-2.69,-3.70,-2.81,-3.81,3.81,4.46,5.20,1.13,1.00,1.01
30.38,-2.59,-3.59,-2.75,-3.75,3.75,4.41,5.22,1.16,1.00,1.00
30.68,-2.49,-3.49,-2.71,-3.70,3.70,4.37,5.24,1.22,1.00,1.00
30.99,-2.38,-3.38,-2.68,-3.68,3.68,4.32,5.25,1.30,1.00,1.00
31.30,-2.50,-3.49,-2.67,-3.67,3.67,4.27,5.24,1.16,0.99,0.99
31.61,-2.65,-3.64,-2.66,-3.65,3.65,4.22,5.23,1.00,0.99,0.99
31.93,-2.79,-3.78,-2.63,-3.62,3.62,4.17,5.21,0.83,0.99,0.99
32.24,-2.79,-3.77,-2.59,-3.58,3.58,4.12,5.18,0.78,0.98,0.98
32.57,-2.75,-3.73,-2.57,-3.55,3.55,4.07,5.15,0.80,0.98,0.98
32.89,-2.70,-3.67,-2.55,-3.52,3.52,4.02,5.10,0.83,0.97,0.98
33.22,-2.67,-3.63,-2.52,-3.49,3.49,3.97,5.05,0.83,0.97,0.97
33.55,-2.62,-3.59,-2.48,-3.44,3.44,3.92,4.99,0.82,0.97,0.97
33.89,-2.59,-3.55,-2.42,-3.38,3.38,3.87,4.92,0.79,0.96,0.96
34.23,-2.38,-3.34,-2.35,-3.31,3.31,3.82,4.85,0.93,0.96,0.96
34.57,-2.08,-3.03,-2.28,-3.23,3.23,3.77,4.77,1.15,0.95,0.95
34.92,-1.80,-2.75,-2.20,-3.15,3.15,3.71,4.69,1.35,0.95,0.95
35.27,-1.82,-2.76,-2.11,-3.06,3.06,3.66,4.60,1.23,0.94,0.94
35.62,-1.96,-2.90,-2.02,-2.96,2.96,3.61,4.51,1.00,0.94,0.94
35.97,-2.10,-3.04,-1.93,-2.87,2.87,3.56,4.42,0.77,0.94,0.94
36.33,-1.95,-2.89,-1.84,-2.78,2.78,3.50,4.32,0.82,0.94,0.94
36.70,-1.78,-2.71,-1.74,-2.68,2.68,3.45,4.22,0.90,0.94,0.93
37.06,-1.65,-2.58,-1.65,-2.59,2.59,3.39,4.12,0.94,0.94,0.93
37.43,-1.68,-2.62,-1.57,-2.51,2.51,3.34,4.02,0.83,0.94,0.94
37.81,-1.72,-2.65,-1.50,-2.44,2.44,3.29,3.92,0.73,0.94,0.94
38.19,-1.62,-2.55,-1.45,-2.39,2.39,3.23,3.82,0.77,0.94,0.93
38.57,-1.36,-2.30,-1.39,-2.33,2.33,3.18,3.72,0.97,0.94,0.94
38.95,-1.10,-2.05,-1.30,-2.24,2.24,3.12,3.62,1.14,0.94,0.95
39.34,-1.01,-1.95,-1.19,-2.13,2.13,3.07,3.52,1.11,0.94,0.94
39.74,-0.95,-1.89,-1.07,-2.01,2.01,3.01,3.42,1.07,0.94,0.94
40.14,-0.92,-1.86,-0.97,-1.91,1.91,2.95,3.32,1.00,0.94,0.94
40.54,-0.96,-1.90,-0.90,-1.83,1.83,2.90,3.23,0.87,0.94,0.94
40.94,-1.01,-1.94,-0.83,-1.76,1.76,2.84,3.13,0.75,0.93,0.93
41.35,-0.92,-1.85,-0.77,-1.69,1.69,2.78,3.04,0.77,0.93,0.93
41.76,-0.80,-1.72,-0.71,-1.63,1.63,2.73,2.95,0.83,0.92,0.92
42.18,-0.67,-1.59,-0.68,-1.59,1.59,2.67,2.86,0.91,0.91,0.92
42.60,-0.54,-1.45,-0.67,-1.57,1.57,2.61,2.77,1.03,0.90,0.91
43.03,-0.44,-1.34,-0.68,-1.57,1.57,2.55,2.69,1.13,0.89,0.90
43.46,-0.57,-1.46,-0.71,-1.59,1.59,2.49,2.60,1.03,0.88,0.89
43.90,-0.70,-1.57,-0.77,-1.63,1.63,2.43,2.52,0.93,0.87,0.87
44.33,-0.79,-1.64,-0.81,-1.66,1.66,2.37,2.44,0.88,0.86,0.85
44.78,-0.85,-1.67,-0.84,-1.68,1.68,2.31,2.37,0.84,0.84,0.83
45.23,-0.91,-1.73,-0.89,-1.72,1.72,2.25,2.29,0.81,0.83,0.82
45.68,-0.98,-1.79,-0.96,-1.78,1.78,2.19,2.22,0.79,0.82,0.81
46.13,-1.07,-1.86,-1.06,-1.86,1.86,2.13,2.15,0.79,0.80,0.79
46.60,-1.17,-1.96,-1.16,-1.94,1.94,2.07,2.08,0.77,0.79,0.79
47.06,-1.29,-2.06,-1.26,-2.03,2.03,2.01,2.02,0.74,0.77,0.77
47.53,-1.45,-2.21,-1.34,-2.10,2.10,1.95,1.95,0.65,0.76,0.76
48.01,-1.59,-2.35,-1.39,-2.13,2.13,1.89,1.89,0.54,0.74,0.76
48.49,-1.37,-2.11,-1.40,-2.13,2.13,1.82,1.83,0.77,0.73,0.74
48.97,-1.14,-1.86,-1.40,-2.12,2.12,1.76,1.77,0.98,0.72,0.72
49.46,-1.39,-2.09,-1.39,-2.09,2.09,1.70,1.71,0.71,0.70,0.70
49.96,-1.67,-2.35,-1.38,-2.07,2.07,1.63,1.65,0.40,0.69,0.68
50.46,-1.60,-2.27,-1.37,-2.05,2.05,1.57,1.59,0.45,0.68,0.67
50.96,-1.50,-2.15,-1.36,-2.02,2.02,1.50,1.54,0.53,0.66,0.66
51.47,-1.37,-2.00,-1.35,-2.00,2.00,1.44,1.49,0.64,0.65,0.64
51.99,-1.24,-1.87,-1.34,-1.98,1.98,1.37,1.43,0.74,0.64,0.63
52.51,-1.09,-1.71,-1.34,-1.96,1.96,1.30,1.38,0.88,0.62,0.62
53.03,-0.95,-1.57,-1.34,-1.95,1.95,1.24,1.33,1.01,0.61,0.62
53.56,-1.11,-1.71,-1.35,-1.95,1.95,1.17,1.27,0.84,0.60,0.60
54.10,-1.26,-1.85,-1.37,-1.95,1.95,1.10,1.22,0.69,0.59,0.59
54.64,-1.42,-1.99,-1.36,-1.94,1.94,1.03,1.17,0.52,0.58,0.57
55.18,-1.52,-2.08,-1.33,-1.90,1.90,0.96,1.12,0.38,0.57,0.57
55.74,-1.51,-2.06,-1.30,-1.86,1.86,0.89,1.06,0.35,0.56,0.55
56.29,-1.47,-2.00,-1.28,-1.82,1.82,0.82,1.01,0.36,0.54,0.54
56.86,-1.41,-1.94,-1.24,-1.77,1.77,0.75,0.95,0.37,0.53,0.53
57.42,-1.32,-1.82,-1.19,-1.70,1.70,0.68,0.90,0.38,0.51,0.50
58.00,-1.24,-1.73,-1.12,-1.62,1.62,0.61,0.84,0.38,0.49,0.49
58.58,-1.07,-1.55,-1.04,-1.51,1.51,0.53,0.78,0.45,0.47,0.48
59.16,-0.90,-1.36,-0.95,-1.39,1.39,0.46,0.72,0.49,0.44,0.46
59.76,-0.80,-1.24,-0.84,-1.26,1.26,0.38,0.66,0.46,0.42,0.44
60.35,-0.66,-1.06,-0.75,-1.13,1.13,0.31,0.60,0.47,0.39,0.40
60.96,-0.54,-0.90,-0.66,-1.01,1.01,0.23,0.53,0.48,0.35,0.36
61.57,-0.44,-0.76,-0.59,-0.91,0.91,0.15,0.46,0.47,0.32,0.32
62.18,-0.36,-0.63,-0.54,-0.82,0.82,0.07,0.39,0.46,0.28,0.28
62.80,-0.31,-0.54,-0.50,-0.74,0.74,-0.00,0.32,0.43,0.24,0.23
63.43,-0.35,-0.54,-0.47,-0.66,0.66,-0.08,0.24,0.32,0.20,0.19
64.07,-0.43,-0.57,-0.44,-0.59,0.59,-0.17,0.17,0.15,0.15,0.14
64.71,-0.51,-0.60,-0.41,-0.51,0.51,-0.25,0.09,0.01,0.11,0.10
65.35,-0.55,-0.60,-0.38,-0.44,0.44,-0.33,0.00,-0.10,0.06,0.06
66.01,-0.57,-0.58,-0.36,-0.37,0.37,-0.41,-0.08,-0.20,0.01,0.01
66.67,-0.48,-0.44,-0.32,-0.29,0.29,-0.50,-0.17,-0.19,-0.04,-0.04
67.33,-0.37,-0.28,-0.28,-0.20,0.20,-0.59,-0.26,-0.17,-0.08,-0.09
68.01,-0.26,-0.13,-0.23,-0.10,0.10,-0.67,-0.35,-0.16,-0.13,-0.13
68.69,-0.16,0.02,-0.17,0.02,-0.02,-0.76,-0.45,-0.17,-0.18,-0.18
69.37,-0.01,0.22,-0.08,0.15,-0.15,-0.85,-0.54,-0.16,-0.23,-0.23
70.07,0.15,0.43,0.01,0.30,-0.30,-0.94,-0.64,-0.14,-0.29,-0.28
70.77,0.24,0.57,0.13,0.47,-0.47,-1.04,-0.74,-0.23,-0.34,-0.33
71.48,0.30,0.68,0.27,0.66,-0.66,-1.13,-0.85,-0.36,-0.39,-0.38
72.19,0.36,0.82,0.41,0.86,-0.86,-1.22,-0.96,-0.49,-0.45,-0.45
72.91,0.46,0.97,0.55,1.06,-1.06,-1.32,-1.06,-0.60,-0.51,-0.51
73.64,0.64,1.20,0.70,1.26,-1.26,-1.42,-1.17,-0.63,-0.56,-0.56
74.38,0.80,1.42,0.84,1.46,-1.46,-1.52,-1.29,-0.66,-0.62,-0.62
75.12,0.97,1.65,1.00,1.67,-1.67,-1.62,-1.40,-0.71,-0.67,-0.68
75.87,1.09,1.83,1.15,1.88,-1.88,-1.72,-1.52,-0.80,-0.73,-0.74
76.63,1.27,2.06,1.30,2.08,-2.08,-1.82,-1.64,-0.82,-0.78,-0.79
77.40,1.48,2.32,1.44,2.28,-2.28,-1.93,-1.76,-0.79,-0.84,-0.84
78.17,1.72,2.62,1.60,2.49,-2.49,-2.04,-1.88,-0.78,-0.89,-0.90
78.95,1.85,2.79,1.77,2.72,-2.72,-2.15,-2.01,-0.87,-0.94,-0.94
79.74,1.96,2.95,1.94,2.94,-2.94,-2.26,-2.14,-0.98,-0.99,-0.99
80.54,2.08,3.13,2.09,3.13,-3.13,-2.37,-2.27,-1.05,-1.04,-1.04
81.35,2.22,3.31,2.22,3.31,-3.31,-2.48,-2.40,-1.08,-1.09,-1.09
82.16,2.36,3.51,2.34,3.48,-3.48,-2.60,-2.53,-1.11,-1.14,-1.14
82.98,2.48,3.67,2.47,3.66,-3.66,-2.71,-2.67,-1.17,-1.18,-1.18
83.81,2.50,3.73,2.61,3.84,-3.84,-2.83,-2.81,-1.34,-1.23,-1.23
84.65,2.63,3.92,2.72,3.99,-3.99,-2.95,-2.95,-1.36,-1.28,-1.28
85.50,2.91,4.23,2.80,4.13,-4.13,-3.08,-3.09,-1.22,-1.33,-1.32
86.35,3.10,4.47,2.90,4.27,-4.27,-3.20,-3.24,-1.17,-1.38,-1.37
87.22,3.04,4.47,3.00,4.42,-4.42,-3.33,-3.39,-1.38,-1.43,-1.42
88.09,2.93,4.41,3.09,4.57,-4.57,-3.46,-3.54,-1.63,-1.48,-1.47
88.97,2.93,4.46,3.18,4.70,-4.70,-3.59,-3.69,-1.77,-1.53,-1.53
89.86,3.22,4.80,3.26,4.83,-4.83,-3.72,-3.85,-1.61,-1.58,-1.58
90.76,3.53,5.16,3.32,4.95,-4.95,-3.85,-4.01,-1.42,-1.63,-1.63
91.66,3.59,5.27,3.39,5.07,-5.07,-3.99,-4.17,-1.47,-1.68,-1.68
92.58,3.39,5.13,3.45,5.19,-5.19,-4.13,-4.33,-1.79,-1.73,-1.74
93.51,3.32,5.12,3.52,5.30,-5.30,-4.26,-4.50,-1.98,-1.78,-1.79
94.44,3.58,5.41,3.58,5.42,-5.42,-4.40,-4.67,-1.84,-1.83,-1.83
95.39,3.83,5.71,3.65,5.53,-5.53,-4.55,-4.84,-1.70,-1.88,-1.88
96.34,3.78,5.71,3.73,5.66,-5.66,-4.69,-5.01,-1.87,-1.93,-1.93
97.30,3.66,5.64,3.82,5.80,-5.80,-4.83,-5.19,-2.14,-1.98,-1.98
98.28,3.77,5.80,3.90,5.93,-5.93,-4.98,-5.37,-2.15,-2.03,-2.03
99.26,3.88,5.95,3.95,6.02,-6.02,-5.13,-5.55,-2.14,-2.07,-2.07
100.25,3.92,6.05,3.99,6.11,-6.11,-5.27,-5.73,-2.19,-2.12,-2.12
101.25,4.11,6.28,4.04,6.21,-6.21,-5.42,-5.92,-2.11,-2.17,-2.17
102.27,4.23,6.45,4.12,6.34,-6.34,-5.57,-6.10,-2.10,-2.22,-2.22
103.29,4.27,6.54,4.20,6.47,-6.47,-5.72,-6.29,-2.19,-2.27,-2.27
104.32,4.32,6.64,4.25,6.57,-6.57,-5.86,-6.47,-2.25,-2.32,-2.31
105.37,4.36,6.72,4.29,6.66,-6.66,-6.01,-6.66,-2.30,-2.37,-2.36
106.42,4.36,6.77,4.35,6.77,-6.77,-6.16,-6.84,-2.40,-2.42,-2.41
107.48,4.37,6.84,4.42,6.89,-6.89,-6.30,-7.03,-2.51,-2.47,-2.47
108.56,4.28,6.81,4.48,7.00,-7.00,-6.45,-7.21,-2.72,-2.52,-2.52
109.64,4.29,6.86,4.51,7.08,-7.08,-6.59,-7.38,-2.80,-2.58,-2.57
110.74,4.61,7.24,4.53,7.16,-7.16,-6.73,-7.56,-2.54,-2.63,-2.63
111.85,4.64,7.31,4.55,7.23,-7.23,-6.86,-7.73,-2.58,-2.68,-2.67
112.97,4.69,7.42,4.56,7.29,-7.29,-7.00,-7.89,-2.60,-2.73,-2.73
114.10,4.55,7.33,4.57,7.34,-7.34,-7.13,-8.05,-2.80,-2.78,-2.78
115.24,4.57,7.40,4.57,7.40,-7.40,-7.25,-8.19,-2.82,-2.82,-2.83
116.39,4.69,7.57,4.59,7.46,-7.46,-7.37,-8.33,-2.76,-2.87,-2.88
117.55,4.76,7.68,4.59,7.50,-7.50,-7.49,-8.46,-2.74,-2.91,-2.92
118.73,4.61,7.58,4.60,7.55,-7.55,-7.59,-8.58,-2.94,-2.95,-2.96
119.92,4.50,7.49,4.62,7.60,-7.60,-7.70,-8.69,-3.11,-2.99,-2.99
121.12,4.43,7.47,4.63,7.65,-7.65,-7.79,-8.78,-3.22,-3.02,-3.03
122.33,4.57,7.63,4.63,7.69,-7.69,-7.88,-8.87,-3.12,-3.06,-3.06
123.55,4.61,7.70,4.63,7.72,-7.72,-7.96,-8.93,-3.10,-3.09,-3.09
124.79,4.57,7.70,4.64,7.76,-7.76,-8.04,-8.99,-3.19,-3.12,-3.12
126.03,4.57,7.73,4.65,7.80,-7.80,-8.10,-9.03,-3.23,-3.15,-3.15
127.29,4.71,7.89,4.67,7.85,-7.85,-8.16,-9.06,-3.14,-3.18,-3.17
128.57,4.77,7.98,4.68,7.89,-7.89,-8.21,-9.07,-3.11,-3.21,-3.21
129.85,4.67,7.92,4.68,7.92,-7.92,-8.25,-9.07,-3.25,-3.24,-3.24
131.15,4.80,8.07,4.70,7.97,-7.97,-8.28,-9.06,-3.16,-3.27,-3.27
132.46,4.82,8.12,4.72,8.02,-8.02,-8.30,-9.03,-3.20,-3.30,-3.30
133.79,4.76,8.10,4.74,8.07,-8.07,-8.32,-9.00,-3.30,-3.33,-3.33
135.12,4.71,8.08,4.74,8.10,-8.10,-8.33,-8.96,-3.38,-3.35,-3.36
136.48,4.71,8.09,4.74,8.12,-8.12,-8.33,-8.90,-3.41,-3.38,-3.38
137.84,4.66,8.08,4.74,8.15,-8.15,-8.32,-8.84,-3.48,-3.41,-3.42
139.22,4.69,8.14,4.74,8.18,-8.18,-8.31,-8.78,-3.48,-3.44,-3.45
140.61,4.72,8.20,4.74,8.21,-8.21,-8.29,-8.71,-3.48,-3.47,-3.48
142.02,4.72,8.22,4.74,8.24,-8.24,-8.27,-8.63,-3.51,-3.50,-3.50
143.44,4.72,8.25,4.74,8.27,-8.27,-8.24,-8.55,-3.55,-3.53,-3.53
144.87,4.72,8.30,4.74,8.31,-8.31,-8.21,-8.47,-3.59,-3.57,-3.57
146.32,4.72,8.33,4.73,8.35,-8.35,-8.17,-8.39,-3.63,-3.62,-3.61
147.78,4.72,8.37,4.73,8.39,-8.39,-8.14,-8.31,-3.67,-3.67,-3.64
149.26,4.72,8.42,4.71,8.43,-8.43,-8.10,-8.23,-3.71,-3.72,-3.69
150.75,4.72,8.48,4.69,8.47,-8.47,-8.05,-8.14,-3.74,-3.78,-3.75
152.26,4.72,8.55,4.65,8.49,-8.49,-8.01,-8.07,-3.77,-3.84,-3.82
153.78,4.72,8.62,4.62,8.52,-8.52,-7.97,-7.99,-3.80,-3.91,-3.89
155.32,4.67,8.64,4.58,8.55,-8.55,-7.92,-7.92,-3.88,-3.97,-3.96
156.88,4.62,8.66,4.55,8.59,-8.59,-7.88,-7.85,-3.97,-4.04,-4.04
158.44,4.51,8.63,4.52,8.64,-8.64,-7.84,-7.78,-4.12,-4.11,-4.12
160.03,4.44,8.64,4.50,8.68,-8.68,-7.80,-7.72,-4.24,-4.18,-4.20
161.63,4.38,8.65,4.49,8.74,-8.74,-7.76,-7.66,-4.35,-4.25,-4.27
163.24,4.31,8.65,4.49,8.80,-8.80,-7.73,-7.61,-4.49,-4.31,-4.33
164.88,4.29,8.67,4.49,8.86,-8.86,-7.69,-7.56,-4.56,-4.37,-4.38
166.53,4.34,8.77,4.49,8.91,-8.91,-7.66,-7.51,-4.56,-4.41,-4.43
168.19,4.42,8.90,4.49,8.94,-8.94,-7.64,-7.48,-4.52,-4.45,-4.47
169.87,4.56,9.08,4.49,8.98,-8.98,-7.62,-7.44,-4.41,-4.49,-4.51
171.57,4.60,9.14,4.49,9.00,-9.00,-7.60,-7.41,-4.39,-4.51,-4.53
173.29,4.67,9.21,4.48,9.01,-9.01,-7.58,-7.39,-4.34,-4.53,-4.54
175.02,4.60,9.15,4.48,9.03,-9.03,-7.58,-7.38,-4.42,-4.55,-4.55
176.77,4.54,9.11,4.48,9.04,-9.04,-7.57,-7.36,-4.49,-4.55,-4.56
178.54,4.62,9.19,4.47,9.04,-9.04,-7.57,-7.36,-4.41,-4.56,-4.57
180.32,4.46,9.02,4.45,9.02,-9.02,-7.58,-7.36,-4.55,-4.57,-4.56
182.13,4.29,8.85,4.41,8.99,-8.99,-7.59,-7.36,-4.69,-4.57,-4.55
183.95,4.19,8.76,4.37,8.94,-8.94,-7.61,-7.37,-4.75,-4.58,-4.56
185.79,4.19,8.75,4.30,8.88,-8.88,-7.63,-7.39,-4.69,-4.59,-4.56
187.65,4.16,8.74,4.21,8.81,-8.81,-7.65,-7.41,-4.64,-4.59,-4.58
189.52,4.07,8.67,4.12,8.72,-8.72,-7.68,-7.44,-4.65,-4.60,-4.59
191.42,4.08,8.69,4.02,8.64,-8.64,-7.72,-7.47,-4.55,-4.62,-4.61
193.33,4.08,8.71,3.91,8.54,-8.54,-7.76,-7.50,-4.45,-4.63,-4.63
195.27,3.90,8.55,3.79,8.44,-8.44,-7.80,-7.54,-4.55,-4.65,-4.65
197.22,3.71,8.39,3.67,8.34,-8.34,-7.85,-7.59,-4.62,-4.67,-4.67
199.19,3.62,8.31,3.55,8.23,-8.23,-7.90,-7.64,-4.61,-4.69,-4.69
201.18,3.51,8.22,3.42,8.13,-8.13,-7.96,-7.69,-4.62,-4.71,-4.71
203.19,3.33,8.06,3.30,8.03,-8.03,-8.01,-7.74,-4.69,-4.73,-4.73
205.23,3.15,7.90,3.18,7.93,-7.93,-8.07,-7.80,-4.78,-4.75,-4.75
207.28,3.01,7.78,3.06,7.83,-7.83,-8.13,-7.86,-4.81,-4.77,-4.76
209.35,2.86,7.64,2.96,7.74,-7.74,-8.18,-7.92,-4.88,-4.79,-4.78
211.44,2.73,7.54,2.87,7.67,-7.67,-8.23,-7.99,-4.94,-4.80,-4.81
213.56,2.69,7.51,2.80,7.62,-7.62,-8.28,-8.05,-4.92,-4.82,-4.82
215.69,2.69,7.52,2.75,7.59,-7.59,-8.33,-8.11,-4.89,-4.83,-4.83
217.85,2.69,7.53,2.74,7.59,-7.59,-8.37,-8.18,-4.89,-4.85,-4.84
220.03,2.69,7.54,2.75,7.61,-7.61,-8.40,-8.24,-4.91,-4.85,-4.85
222.23,2.72,7.60,2.78,7.64,-7.64,-8.42,-8.29,-4.91,-4.86,-4.88
224.45,2.83,7.71,2.82,7.68,-7.68,-8.43,-8.35,-4.85,-4.86,-4.87
226.70,2.93,7.80,2.89,7.75,-7.75,-8.43,-8.40,-4.82,-4.86,-4.87
228.96,3.00,7.87,2.97,7.83,-7.83,-8.42,-8.44,-4.82,-4.86,-4.86
231.25,3.08,7.94,3.06,7.91,-7.91,-8.39,-8.48,-4.83,-4.85,-4.85
233.57,3.15,7.99,3.16,8.00,-8.00,-8.35,-8.51,-4.85,-4.84,-4.84
235.90,3.27,8.11,3.26,8.09,-8.09,-8.29,-8.53,-4.81,-4.82,-4.83
238.26,3.40,8.22,3.36,8.17,-8.17,-8.22,-8.54,-4.76,-4.81,-4.82
240.64,3.46,8.25,3.46,8.24,-8.24,-8.13,-8.54,-4.78,-4.79,-4.79
243.05,3.51,8.27,3.55,8.32,-8.32,-8.03,-8.52,-4.80,-4.77,-4.76
245.48,3.57,8.31,3.64,8.38,-8.38,-7.91,-8.50,-4.80,-4.74,-4.74
247.93,3.69,8.41,3.71,8.43,-8.43,-7.78,-8.47,-4.73,-4.72,-4.71
250.41,3.81,8.50,3.77,8.46,-8.46,-7.64,-8.42,-4.65,-4.70,-4.69
252.92,3.85,8.51,3.81,8.49,-8.49,-7.49,-8.36,-4.63,-4.67,-4.66
255.45,3.86,8.50,3.85,8.50,-8.50,-7.33,-8.29,-4.64,-4.65,-4.64
258.00,3.87,8.49,3.88,8.50,-8.50,-7.16,-8.20,-4.63,-4.62,-4.62
260.58,3.88,8.48,3.88,8.48,-8.48,-6.98,-8.11,-4.60,-4.60,-4.60
263.19,3.88,8.45,3.86,8.43,-8.43,-6.80,-8.00,-4.55,-4.57,-4.57
265.82,3.88,8.43,3.83,8.37,-8.37,-6.61,-7.88,-4.49,-4.55,-4.55
268.48,3.76,8.30,3.76,8.29,-8.29,-6.43,-7.76,-4.52,-4.52,-4.53
271.16,3.65,8.15,3.67,8.17,-8.17,-6.24,-7.62,-4.52,-4.50,-4.50
273.87,3.57,8.05,3.56,8.03,-8.03,-6.05,-7.47,-4.46,-4.47,-4.48
276.61,3.47,7.92,3.41,7.86,-7.86,-5.86,-7.32,-4.39,-4.45,-4.45
279.38,3.32,7.75,3.26,7.68,-7.68,-5.67,-7.16,-4.35,-4.42,-4.42
282.17,3.19,7.59,3.09,7.49,-7.49,-5.48,-7.00,-4.29,-4.39,-4.40
284.99,2.94,7.30,2.91,7.28,-7.28,-5.30,-6.83,-4.33,-4.37,-4.36
287.84,2.65,6.99,2.70,7.04,-7.04,-5.12,-6.65,-4.38,-4.34,-4.34
290.72,2.46,6.77,2.48,6.78,-6.78,-4.94,-6.48,-4.32,-4.31,-4.31
293.63,2.25,6.53,2.26,6.54,-6.54,-4.76,-6.30,-4.28,-4.28,-4.28
296.57,1.89,6.14,2.04,6.29,-6.29,-4.59,-6.12,-4.40,-4.25,-4.25
299.53,1.73,5.95,1.81,6.03,-6.03,-4.43,-5.93,-4.30,-4.22,-4.22
302.53,1.55,5.76,1.58,5.77,-5.77,-4.27,-5.75,-4.22,-4.19,-4.20
305.55,1.32,5.48,1.35,5.52,-5.52,-4.11,-5.57,-4.19,-4.17,-4.16
308.61,1.18,5.33,1.12,5.26,-5.26,-3.96,-5.39,-4.08,-4.14,-4.14
311.69,0.86,4.97,0.88,5.00,-5.00,-3.81,-5.20,-4.14,-4.12,-4.11
314.81,0.51,4.60,0.63,4.72,-4.72,-3.67,-5.02,-4.21,-4.10,-4.09
317.96,0.26,4.34,0.37,4.44,-4.44,-3.53,-4.84,-4.18,-4.08,-4.07
321.14,0.26,4.32,0.11,4.17,-4.17,-3.39,-4.66,-3.90,-4.06,-4.06
324.35,0.08,4.12,-0.17,3.87,-3.87,-3.26,-4.49,-3.79,-4.04,-4.04
327.59,-0.37,3.66,-0.47,3.55,-3.55,-3.14,-4.31,-3.92,-4.03,-4.03
330.87,-0.74,3.28,-0.77,3.24,-3.24,-3.02,-4.14,-3.98,-4.01,-4.02
334.18,-0.93,3.08,-1.07,2.93,-2.93,-2.90,-3.96,-3.86,-4.00,-4.00
337.52,-1.23,2.76,-1.38,2.61,-2.61,-2.79,-3.79,-3.83,-3.99,-3.99
340.90,-1.63,2.35,-1.66,2.32,-2.32,-2.68,-3.63,-3.96,-3.98,-3.98
344.30,-2.09,1.88,-1.91,2.07,-2.07,-2.57,-3.46,-4.15,-3.98,-3.97
347.75,-2.36,1.62,-2.13,1.84,-1.84,-2.47,-3.30,-4.20,-3.97,-3.97
351.23,-2.42,1.55,-2.32,1.65,-1.65,-2.37,-3.14,-4.06,-3.97,-3.96
354.74,-2.62,1.36,-2.50,1.46,-1.46,-2.28,-2.98,-4.08,-3.96,-3.97
358.28,-3.08,0.89,-2.66,1.30,-1.30,-2.19,-2.82,-4.38,-3.96,-3.96
361.87,-3.05,0.91,-2.78,1.18,-1.18,-2.10,-2.66,-4.23,-3.96,-3.96
365.49,-2.83,1.12,-2.86,1.09,-1.09,-2.02,-2.51,-3.92,-3.96,-3.95
369.14,-2.97,0.99,-2.94,1.01,-1.01,-1.94,-2.36,-3.98,-3.96,-3.96
372.83,-3.03,0.94,-3.01,0.95,-0.95,-1.86,-2.21,-3.97,-3.96,-3.96
376.56,-2.64,1.33,-3.06,0.90,-0.90,-1.78,-2.06,-3.54,-3.96,-3.97
380.33,-2.84,1.13,-3.10,0.86,-0.86,-1.71,-1.92,-3.70,-3.96,-3.96
384.13,-3.03,0.93,-3.16,0.81,-0.81,-1.64,-1.77,-3.84,-3.97,-3.96
387.97,-3.18,0.79,-3.24,0.73,-0.73,-1.58,-1.63,-3.90,-3.97,-3.97
391.85,-3.32,0.66,-3.34,0.64,-0.64,-1.52,-1.50,-3.95,-3.98,-3.98
395.77,-3.42,0.55,-3.43,0.55,-0.55,-1.46,-1.36,-3.96,-3.98,-3.97
399.73,-3.55,0.44,-3.55,0.44,-0.44,-1.40,-1.22,-3.98,-3.99,-3.98
403.72,-3.69,0.29,-3.69,0.30,-0.30,-1.34,-1.09,-3.99,-3.99,-3.98
407.76,-3.80,0.20,-3.82,0.17,-0.17,-1.29,-0.96,-3.97,-4.00,-4.00
411.84,-3.93,0.07,-3.94,0.07,-0.07,-1.24,-0.84,-3.99,-4.00,-4.00
415.96,-4.11,-0.10,-4.02,-0.02,0.02,-1.19,-0.71,-4.09,-4.00,-4.00
420.12,-4.28,-0.27,-4.12,-0.12,0.12,-1.15,-0.59,-4.16,-4.00,-4.00
424.32,-4.40,-0.39,-4.20,-0.21,0.21,-1.10,-0.48,-4.19,-3.99,-4.00
428.56,-4.45,-0.45,-4.25,-0.27,0.27,-1.06,-0.36,-4.18,-3.98,-3.99
432.85,-4.31,-0.33,-4.29,-0.32,0.32,-1.02,-0.25,-3.99,-3.97,-3.98
437.18,-4.35,-0.37,-4.33,-0.38,0.38,-0.99,-0.15,-3.96,-3.95,-3.97
441.55,-4.42,-0.48,-4.37,-0.45,0.45,-0.95,-0.05,-3.97,-3.92,-3.93
445.96,-4.14,-0.24,-4.40,-0.51,0.51,-0.92,0.05,-3.63,-3.89,-3.90
450.42,-4.19,-0.32,-4.41,-0.55,0.55,-0.89,0.14,-3.63,-3.85,-3.87
454.93,-4.22,-0.39,-4.41,-0.60,0.60,-0.86,0.23,-3.61,-3.81,-3.82
459.48,-4.27,-0.48,-4.42,-0.65,0.65,-0.84,0.31,-3.61,-3.77,-3.78
464.07,-4.81,-1.08,-4.43,-0.71,0.71,-0.81,0.38,-4.10,-3.72,-3.73
468.71,-4.55,-0.87,-4.44,-0.77,0.77,-0.79,0.45,-3.78,-3.68,-3.67
473.40,-4.19,-0.56,-4.45,-0.83,0.83,-0.77,0.52,-3.36,-3.63,-3.63
478.13,-4.49,-0.92,-4.47,-0.89,0.89,-0.75,0.57,-3.60,-3.58,-3.57
