frequency,raw,error,smoothed,error_smoothed,equalization,parametric_eq,fixed_band_eq,equalized_raw,equalized_smoothed,target
20.00,10.12,1.27,10.12,1.25,-1.25,-1.04,0.05,8.87,8.87,8.85
20.20,10.10,1.21,10.10,1.20,-1.20,-1.02,0.05,8.90,8.90,8.89
20.40,10.08,1.15,10.08,1.15,-1.15,-0.99,0.05,8.93,8.93,8.93
20.61,10.06,1.11,10.06,1.11,-1.11,-0.96,0.06,8.95,8.96,8.95
20.81,10.05,1.05,10.04,1.06,-1.06,-0.92,0.06,8.99,8.98,8.99
21.02,10.03,1.00,10.02,1.01,-1.01,-0.89,0.06,9.01,9.01,9.03
21.23,10.01,0.96,10.00,0.97,-0.97,-0.85,0.06,9.04,9.03,9.05
21.44,9.99,0.92,9.98,0.93,-0.93,-0.81,0.06,9.06,9.06,9.07
21.66,9.96,0.87,9.96,0.89,-0.89,-0.77,0.06,9.07,9.08,9.09
21.87,9.94,0.84,9.94,0.85,-0.85,-0.73,0.06,9.09,9.09,9.10
22.09,9.92,0.80,9.92,0.81,-0.81,-0.69,0.06,9.11,9.11,9.12
22.31,9.90,0.77,9.90,0.77,-0.77,-0.65,0.06,9.13,9.13,9.13
22.54,9.88,0.74,9.88,0.74,-0.74,-0.61,0.06,9.14,9.14,9.14
22.76,9.85,0.70,9.85,0.70,-0.70,-0.57,0.06,9.15,9.15,9.15
22.99,9.83,0.68,9.83,0.67,-0.67,-0.53,0.07,9.16,9.16,9.15
23.22,9.81,0.65,9.81,0.64,-0.64,-0.49,0.07,9.17,9.17,9.16
23.45,9.78,0.61,9.78,0.61,-0.61,-0.45,0.07,9.17,9.18,9.17
23.69,9.76,0.58,9.76,0.58,-0.58,-0.42,0.07,9.18,9.18,9.18
23.92,9.74,0.55,9.74,0.54,-0.54,-0.38,0.07,9.20,9.19,9.19
24.16,9.71,0.50,9.71,0.51,-0.51,-0.34,0.07,9.20,9.20,9.20
24.40,9.69,0.47,9.69,0.48,-0.48,-0.31,0.07,9.21,9.21,9.22
24.65,9.66,0.44,9.66,0.44,-0.44,-0.28,0.08,9.22,9.22,9.22
24.89,9.64,0.41,9.64,0.41,-0.41,-0.24,0.08,9.23,9.23,9.23
25.14,9.62,0.38,9.61,0.37,-0.37,-0.21,0.08,9.25,9.24,9.24
25.39,9.59,0.34,9.59,0.34,-0.34,-0.18,0.08,9.25,9.25,9.25
25.65,9.56,0.29,9.56,0.30,-0.30,-0.15,0.09,9.26,9.26,9.27
25.91,9.54,0.27,9.53,0.26,-0.26,-0.12,0.09,9.28,9.27,9.27
26.16,9.51,0.23,9.51,0.23,-0.23,-0.09,0.10,9.28,9.28,9.28
26.43,9.48,0.19,9.48,0.19,-0.19,-0.07,0.10,9.29,9.29,9.28
26.69,9.45,0.16,9.45,0.16,-0.16,-0.04,0.11,9.29,9.30,9.29
26.96,9.42,0.11,9.43,0.12,-0.12,-0.01,0.11,9.30,9.31,9.31
27.23,9.40,0.08,9.40,0.08,-0.08,0.02,0.12,9.32,9.32,9.32
27.50,9.37,0.04,9.37,0.05,-0.05,0.04,0.13,9.32,9.32,9.33
27.77,9.34,0.01,9.34,0.01,-0.01,0.07,0.14,9.33,9.33,9.33
28.05,9.31,-0.04,9.31,-0.03,0.03,0.10,0.14,9.34,9.34,9.35
28.33,9.28,-0.07,9.28,-0.07,0.07,0.12,0.15,9.35,9.35,9.34
28.62,9.25,-0.10,9.25,-0.11,0.11,0.15,0.17,9.36,9.36,9.35
28.90,9.22,-0.14,9.22,-0.15,0.15,0.17,0.18,9.37,9.36,9.36
29.19,9.19,-0.17,9.18,-0.19,0.19,0.20,0.19,9.38,9.37,9.36
29.48,9.15,-0.24,9.15,-0.23,0.23,0.22,0.20,9.38,9.38,9.39
29.78,9.12,-0.27,9.12,-0.27,0.27,0.25,0.22,9.39,9.38,9.39
30.08,9.08,-0.31,9.08,-0.31,0.31,0.28,0.24,9.39,9.39,9.39
30.38,9.04,-0.35,9.04,-0.35,0.35,0.30,0.25,9.39,9.40,9.39
30.68,9.01,-0.40,9.01,-0.39,0.39,0.33,0.27,9.40,9.40,9.41
30.99,8.97,-0.44,8.97,-0.44,0.44,0.35,0.29,9.41,9.41,9.41
31.30,8.93,-0.48,8.93,-0.48,0.48,0.38,0.32,9.41,9.42,9.41
31.61,8.90,-0.52,8.90,-0.53,0.53,0.41,0.34,9.43,9.42,9.42
31.93,8.86,-0.57,8.86,-0.57,0.57,0.44,0.36,9.43,9.43,9.43
32.24,8.82,-0.61,8.82,-0.62,0.62,0.46,0.39,9.43,9.44,9.43
32.57,8.78,-0.66,8.78,-0.66,0.66,0.49,0.42,9.44,9.44,9.44
32.89,8.74,-0.71,8.75,-0.71,0.71,0.52,0.45,9.44,9.45,9.45
33.22,8.71,-0.75,8.71,-0.75,0.75,0.55,0.48,9.46,9.46,9.46
33.55,8.67,-0.80,8.67,-0.80,0.80,0.58,0.51,9.46,9.46,9.47
33.89,8.63,-0.84,8.63,-0.84,0.84,0.61,0.54,9.47,9.47,9.47
34.23,8.59,-0.89,8.59,-0.89,0.89,0.64,0.58,9.48,9.47,9.48
34.57,8.55,-0.94,8.55,-0.93,0.93,0.68,0.62,9.48,9.48,9.49
34.92,8.51,-0.97,8.51,-0.98,0.98,0.71,0.65,9.49,9.48,9.48
35.27,8.47,-1.02,8.46,-1.03,1.03,0.75,0.69,9.49,9.49,9.49
35.62,8.42,-1.07,8.42,-1.07,1.07,0.78,0.73,9.49,9.49,9.49
35.97,8.37,-1.12,8.38,-1.12,1.12,0.82,0.77,9.49,9.49,9.49
36.33,8.33,-1.17,8.33,-1.16,1.16,0.86,0.82,9.49,9.49,9.50
36.70,8.29,-1.20,8.29,-1.21,1.21,0.90,0.86,9.50,9.49,9.49
37.06,8.24,-1.26,8.24,-1.25,1.25,0.94,0.91,9.49,9.49,9.50
37.43,8.19,-1.31,8.19,-1.30,1.30,0.98,0.95,9.49,9.49,9.50
37.81,8.14,-1.36,8.14,-1.35,1.35,1.02,1.00,9.49,9.49,9.50
38.19,8.09,-1.40,8.09,-1.40,1.40,1.07,1.05,9.49,9.49,9.49
38.57,8.04,-1.45,8.04,-1.45,1.45,1.11,1.10,9.49,9.49,9.49
38.95,7.99,-1.49,7.98,-1.50,1.50,1.16,1.16,9.49,9.48,9.48
39.34,7.93,-1.55,7.93,-1.55,1.55,1.21,1.21,9.48,9.48,9.47
39.74,7.87,-1.60,7.87,-1.61,1.61,1.26,1.26,9.48,9.48,9.47
40.14,7.81,-1.66,7.81,-1.67,1.67,1.31,1.32,9.48,9.47,9.47
40.54,7.74,-1.73,7.74,-1.72,1.72,1.37,1.38,9.46,9.47,9.47
40.94,7.68,-1.78,7.68,-1.79,1.79,1.43,1.44,9.46,9.46,9.46
41.35,7.61,-1.84,7.61,-1.85,1.85,1.49,1.50,9.46,9.46,9.45
41.76,7.55,-1.91,7.54,-1.91,1.91,1.55,1.56,9.46,9.45,9.46
42.18,7.48,-1.98,7.47,-1.98,1.98,1.61,1.62,9.46,9.45,9.46
42.60,7.40,-2.05,7.40,-2.05,2.05,1.68,1.69,9.45,9.45,9.45
43.03,7.32,-2.13,7.32,-2.12,2.12,1.75,1.76,9.44,9.44,9.45
43.46,7.24,-2.20,7.24,-2.19,2.19,1.82,1.82,9.43,9.44,9.44
43.90,7.16,-2.26,7.16,-2.27,2.27,1.90,1.89,9.43,9.43,9.42
44.33,7.08,-2.35,7.08,-2.35,2.35,1.97,1.96,9.42,9.43,9.43
44.78,7.01,-2.41,7.00,-2.42,2.42,2.05,2.04,9.43,9.42,9.42
45.23,6.92,-2.49,6.91,-2.51,2.51,2.13,2.11,9.43,9.42,9.41
45.68,6.83,-2.58,6.82,-2.59,2.59,2.22,2.19,9.42,9.41,9.41
46.13,6.73,-2.67,6.73,-2.67,2.67,2.31,2.26,9.40,9.41,9.40
46.60,6.65,-2.75,6.64,-2.75,2.75,2.40,2.34,9.40,9.40,9.40
47.06,6.56,-2.83,6.55,-2.84,2.84,2.49,2.42,9.40,9.39,9.39
47.53,6.46,-2.92,6.46,-2.92,2.92,2.58,2.50,9.38,9.38,9.38
48.01,6.37,-3.02,6.37,-3.00,3.00,2.68,2.58,9.37,9.37,9.39
48.49,6.27,-3.10,6.27,-3.08,3.08,2.78,2.67,9.35,9.36,9.37
48.97,6.18,-3.17,6.18,-3.16,3.16,2.88,2.75,9.34,9.35,9.34
49.46,6.08,-3.25,6.09,-3.24,3.24,2.99,2.84,9.32,9.33,9.33
49.96,5.99,-3.32,6.00,-3.32,3.32,3.09,2.92,9.31,9.32,9.31
50.46,5.90,-3.40,5.91,-3.40,3.40,3.20,3.00,9.30,9.30,9.30
50.96,5.82,-3.47,5.81,-3.47,3.47,3.30,3.09,9.29,9.28,9.29
51.47,5.73,-3.52,5.73,-3.54,3.54,3.41,3.17,9.27,9.26,9.25
51.99,5.64,-3.60,5.64,-3.61,3.61,3.51,3.26,9.25,9.24,9.24
52.51,5.55,-3.68,5.55,-3.68,3.68,3.62,3.34,9.23,9.22,9.23
53.03,5.47,-3.73,5.46,-3.74,3.74,3.72,3.42,9.21,9.20,9.20
53.56,5.38,-3.81,5.38,-3.80,3.80,3.82,3.50,9.18,9.18,9.19
54.10,5.30,-3.86,5.29,-3.87,3.87,3.91,3.58,9.17,9.16,9.16
54.64,5.21,-3.93,5.21,-3.93,3.93,4.00,3.65,9.13,9.14,9.14
55.18,5.13,-3.98,5.13,-3.98,3.98,4.09,3.72,9.11,9.11,9.11
55.74,5.06,-4.02,5.05,-4.04,4.04,4.17,3.79,9.10,9.09,9.08
56.29,4.98,-4.09,4.98,-4.08,4.08,4.23,3.85,9.06,9.07,9.07
56.86,4.91,-4.13,4.91,-4.13,4.13,4.29,3.91,9.04,9.04,9.04
57.42,4.84,-4.17,4.84,-4.17,4.17,4.34,3.96,9.01,9.01,9.00
58.00,4.78,-4.20,4.78,-4.20,4.20,4.38,4.00,8.98,8.99,8.98
58.58,4.73,-4.23,4.73,-4.23,4.23,4.41,4.04,8.96,8.96,8.96
59.16,4.68,-4.25,4.68,-4.25,4.25,4.42,4.07,8.93,8.93,8.93
59.76,4.64,-4.27,4.63,-4.26,4.26,4.42,4.10,8.90,8.89,8.91
60.35,4.60,-4.27,4.60,-4.26,4.26,4.41,4.11,8.86,8.86,8.87
60.96,4.57,-4.27,4.57,-4.25,4.25,4.38,4.12,8.82,8.82,8.84
61.57,4.55,-4.24,4.55,-4.24,4.24,4.34,4.12,8.79,8.79,8.79
62.18,4.53,-4.21,4.54,-4.21,4.21,4.29,4.11,8.74,8.75,8.74
62.80,4.53,-4.18,4.53,-4.17,4.17,4.22,4.09,8.70,8.71,8.71
63.43,4.53,-4.13,4.54,-4.13,4.13,4.14,4.06,8.66,8.67,8.66
64.07,4.54,-4.08,4.55,-4.07,4.07,4.05,4.02,8.61,8.63,8.62
64.71,4.58,-4.00,4.58,-4.01,4.01,3.95,3.97,8.58,8.58,8.58
65.35,4.61,-3.93,4.61,-3.93,3.93,3.84,3.92,8.54,8.54,8.53
66.01,4.64,-3.85,4.65,-3.84,3.84,3.72,3.85,8.48,8.49,8.49
66.67,4.71,-3.75,4.71,-3.74,3.74,3.59,3.78,8.45,8.45,8.46
67.33,4.77,-3.64,4.77,-3.64,3.64,3.46,3.70,8.41,8.40,8.41
68.01,4.83,-3.54,4.84,-3.52,3.52,3.32,3.62,8.35,8.36,8.36
68.69,4.91,-3.41,4.92,-3.40,3.40,3.18,3.52,8.31,8.31,8.32
69.37,4.99,-3.28,5.00,-3.27,3.27,3.04,3.42,8.26,8.27,8.27
70.07,5.09,-3.13,5.10,-3.13,3.13,2.89,3.32,8.22,8.22,8.22
70.77,5.20,-2.98,5.20,-2.98,2.98,2.74,3.21,8.18,8.18,8.18
71.48,5.30,-2.84,5.30,-2.83,2.83,2.59,3.10,8.13,8.13,8.14
72.19,5.41,-2.68,5.41,-2.68,2.68,2.44,2.98,8.09,8.09,8.09
72.91,5.54,-2.50,5.53,-2.52,2.52,2.29,2.86,8.06,8.05,8.04
73.64,5.65,-2.35,5.65,-2.36,2.36,2.14,2.74,8.00,8.00,8.00
74.38,5.77,-2.19,5.77,-2.19,2.19,1.99,2.61,7.96,7.96,7.96
75.12,5.89,-2.03,5.89,-2.03,2.03,1.84,2.48,7.92,7.92,7.92
75.87,6.02,-1.86,6.02,-1.86,1.86,1.69,2.35,7.88,7.88,7.88
76.63,6.15,-1.69,6.15,-1.69,1.69,1.55,2.22,7.84,7.84,7.84
77.40,6.28,-1.52,6.28,-1.53,1.53,1.40,2.08,7.81,7.80,7.80
78.17,6.41,-1.35,6.41,-1.36,1.36,1.26,1.95,7.77,7.77,7.76
78.95,6.54,-1.19,6.53,-1.20,1.20,1.12,1.82,7.74,7.73,7.73
79.74,6.66,-1.04,6.66,-1.04,1.04,0.99,1.68,7.70,7.70,7.70
80.54,6.78,-0.89,6.78,-0.88,0.88,0.85,1.54,7.66,7.66,7.67
81.35,6.90,-0.73,6.90,-0.73,0.73,0.72,1.41,7.63,7.63,7.63
82.16,7.02,-0.58,7.02,-0.58,0.58,0.59,1.27,7.60,7.60,7.60
82.98,7.15,-0.42,7.13,-0.44,0.44,0.46,1.13,7.59,7.57,7.57
83.81,7.25,-0.29,7.24,-0.29,0.29,0.33,1.00,7.54,7.54,7.54
84.65,7.35,-0.15,7.35,-0.16,0.16,0.21,0.86,7.51,7.51,7.50
85.50,7.45,-0.03,7.45,-0.03,0.03,0.09,0.73,7.48,7.48,7.48
86.35,7.55,0.10,7.55,0.09,-0.09,-0.03,0.59,7.46,7.45,7.45
87.22,7.65,0.23,7.64,0.21,-0.21,-0.15,0.45,7.44,7.42,7.42
88.09,7.74,0.35,7.73,0.33,-0.33,-0.27,0.32,7.41,7.40,7.39
88.97,7.82,0.45,7.81,0.44,-0.44,-0.38,0.18,7.38,7.37,7.37
89.86,7.90,0.55,7.89,0.55,-0.55,-0.49,0.05,7.35,7.34,7.35
90.76,7.96,0.65,7.97,0.66,-0.66,-0.60,-0.09,7.30,7.31,7.31
91.66,8.03,0.75,8.05,0.76,-0.76,-0.71,-0.22,7.27,7.29,7.28
92.58,8.11,0.86,8.12,0.86,-0.86,-0.82,-0.36,7.25,7.26,7.25
93.51,8.17,0.93,8.19,0.96,-0.96,-0.92,-0.49,7.21,7.23,7.24
94.44,8.24,1.04,8.25,1.05,-1.05,-1.02,-0.63,7.19,7.20,7.20
95.39,8.31,1.13,8.31,1.15,-1.15,-1.13,-0.76,7.16,7.16,7.18
96.34,8.37,1.24,8.37,1.23,-1.23,-1.23,-0.89,7.14,7.13,7.13
97.30,8.43,1.34,8.42,1.32,-1.32,-1.32,-1.03,7.11,7.10,7.09
98.28,8.47,1.41,8.46,1.40,-1.40,-1.42,-1.16,7.07,7.06,7.06
99.26,8.52,1.50,8.51,1.49,-1.49,-1.51,-1.29,7.03,7.02,7.02
100.25,8.56,1.58,8.55,1.57,-1.57,-1.60,-1.42,6.99,6.98,6.98
101.25,8.60,1.65,8.59,1.64,-1.64,-1.69,-1.55,6.96,6.94,6.95
102.27,8.62,1.72,8.62,1.71,-1.71,-1.78,-1.68,6.90,6.90,6.90
103.29,8.64,1.79,8.64,1.78,-1.78,-1.87,-1.80,6.86,6.86,6.85
104.32,8.65,1.84,8.66,1.85,-1.85,-1.95,-1.93,6.80,6.81,6.81
105.37,8.67,1.90,8.67,1.92,-1.92,-2.03,-2.05,6.75,6.76,6.77
106.42,8.69,1.98,8.68,1.98,-1.98,-2.11,-2.17,6.71,6.70,6.71
107.48,8.70,2.04,8.69,2.04,-2.04,-2.19,-2.29,6.65,6.65,6.66
108.56,8.71,2.12,8.70,2.11,-2.11,-2.26,-2.41,6.60,6.59,6.59
109.64,8.71,2.17,8.71,2.18,-2.18,-2.34,-2.52,6.53,6.53,6.53
110.74,8.70,2.22,8.71,2.24,-2.24,-2.41,-2.62,6.46,6.47,6.48
111.85,8.69,2.28,8.71,2.31,-2.31,-2.47,-2.73,6.38,6.40,6.41
112.97,8.69,2.36,8.71,2.38,-2.38,-2.53,-2.83,6.31,6.34,6.33
114.10,8.70,2.42,8.71,2.44,-2.44,-2.59,-2.92,6.26,6.27,6.28
115.24,8.71,2.51,8.71,2.51,-2.51,-2.65,-3.01,6.20,6.20,6.20
116.39,8.71,2.58,8.70,2.57,-2.57,-2.70,-3.09,6.14,6.13,6.12
117.55,8.71,2.65,8.69,2.63,-2.63,-2.75,-3.16,6.08,6.06,6.06
118.73,8.70,2.72,8.68,2.69,-2.69,-2.80,-3.23,6.01,6.00,5.98
119.92,8.68,2.75,8.67,2.74,-2.74,-2.84,-3.29,5.94,5.93,5.93
121.12,8.66,2.80,8.65,2.79,-2.79,-2.88,-3.35,5.87,5.86,5.86
122.33,8.64,2.85,8.63,2.84,-2.84,-2.92,-3.39,5.80,5.80,5.79
123.55,8.61,2.87,8.61,2.88,-2.88,-2.95,-3.43,5.73,5.73,5.74
124.79,8.58,2.90,8.58,2.91,-2.91,-2.98,-3.46,5.67,5.67,5.68
126.03,8.55,2.93,8.55,2.94,-2.94,-3.00,-3.49,5.61,5.61,5.62
127.29,8.53,2.97,8.52,2.97,-2.97,-3.02,-3.50,5.56,5.55,5.56
128.57,8.50,3.01,8.49,2.99,-2.99,-3.04,-3.51,5.51,5.50,5.49
129.85,8.46,3.02,8.45,3.01,-3.01,-3.05,-3.51,5.44,5.44,5.44
131.15,8.41,3.03,8.42,3.04,-3.04,-3.06,-3.50,5.37,5.38,5.38
132.46,8.37,3.04,8.39,3.05,-3.05,-3.06,-3.49,5.31,5.33,5.33
133.79,8.33,3.05,8.35,3.07,-3.07,-3.07,-3.46,5.26,5.28,5.28
135.12,8.29,3.06,8.31,3.08,-3.08,-3.06,-3.44,5.20,5.23,5.23
136.48,8.27,3.09,8.27,3.09,-3.09,-3.06,-3.40,5.17,5.18,5.18
137.84,8.23,3.10,8.23,3.10,-3.10,-3.05,-3.36,5.13,5.13,5.13
139.22,8.20,3.12,8.19,3.11,-3.11,-3.04,-3.32,5.09,5.08,5.08
140.61,8.17,3.15,8.15,3.11,-3.11,-3.02,-3.27,5.06,5.04,5.02
142.02,8.11,3.12,8.10,3.11,-3.11,-3.00,-3.22,5.00,4.99,4.99
143.44,8.07,3.12,8.05,3.11,-3.11,-2.98,-3.17,4.96,4.95,4.95
144.87,8.01,3.11,8.00,3.10,-3.10,-2.96,-3.11,4.91,4.90,4.90
146.32,7.95,3.09,7.95,3.09,-3.09,-2.93,-3.05,4.86,4.85,4.85
147.78,7.88,3.06,7.89,3.08,-3.08,-2.90,-2.99,4.80,4.81,4.82
149.26,7.82,3.05,7.82,3.06,-3.06,-2.87,-2.93,4.76,4.76,4.77
150.75,7.74,3.03,7.75,3.04,-3.04,-2.84,-2.86,4.70,4.71,4.71
152.26,7.69,3.03,7.68,3.02,-3.02,-2.81,-2.80,4.67,4.66,4.66
153.78,7.61,2.99,7.61,2.99,-2.99,-2.77,-2.73,4.62,4.61,4.62
155.32,7.54,2.98,7.53,2.96,-2.96,-2.73,-2.66,4.58,4.56,4.56
156.88,7.44,2.93,7.45,2.94,-2.94,-2.70,-2.60,4.50,4.51,4.51
158.44,7.36,2.90,7.36,2.90,-2.90,-2.66,-2.53,4.46,4.46,4.46
160.03,7.24,2.84,7.27,2.87,-2.87,-2.62,-2.47,4.37,4.41,4.40
161.63,7.17,2.82,7.18,2.83,-2.83,-2.57,-2.40,4.34,4.36,4.35
163.24,7.11,2.81,7.09,2.78,-2.78,-2.53,-2.34,4.33,4.30,4.30
164.88,6.99,2.74,6.99,2.74,-2.74,-2.49,-2.28,4.25,4.25,4.25
166.53,6.90,2.70,6.89,2.69,-2.69,-2.45,-2.22,4.21,4.19,4.20
168.19,6.80,2.66,6.78,2.64,-2.64,-2.40,-2.16,4.16,4.14,4.14
169.87,6.66,2.57,6.66,2.58,-2.58,-2.36,-2.10,4.08,4.08,4.09
171.57,6.55,2.52,6.55,2.52,-2.52,-2.31,-2.04,4.03,4.03,4.03
173.29,6.45,2.48,6.42,2.45,-2.45,-2.27,-1.99,4.00,3.97,3.97
175.02,6.28,2.36,6.30,2.39,-2.39,-2.22,-1.93,3.89,3.91,3.92
176.77,6.16,2.31,6.17,2.32,-2.32,-2.18,-1.88,3.84,3.85,3.85
178.54,6.04,2.25,6.03,2.24,-2.24,-2.14,-1.83,3.80,3.79,3.79
180.32,5.92,2.19,5.89,2.16,-2.16,-2.09,-1.78,3.76,3.73,3.73
182.13,5.79,2.11,5.75,2.08,-2.08,-2.05,-1.73,3.71,3.67,3.67
183.95,5.60,1.99,5.62,2.01,-2.01,-2.01,-1.69,3.59,3.61,3.61
185.79,5.46,1.91,5.48,1.93,-1.93,-1.96,-1.64,3.53,3.55,3.55
187.65,5.32,1.84,5.34,1.85,-1.85,-1.92,-1.60,3.47,3.49,3.48
189.52,5.19,1.77,5.20,1.77,-1.77,-1.88,-1.56,3.42,3.43,3.42
191.42,5.06,1.69,5.07,1.70,-1.70,-1.84,-1.52,3.36,3.37,3.37
193.33,4.93,1.61,4.93,1.62,-1.62,-1.80,-1.48,3.31,3.31,3.31
195.27,4.80,1.54,4.80,1.55,-1.55,-1.76,-1.44,3.25,3.26,3.26
197.22,4.68,1.48,4.67,1.47,-1.47,-1.72,-1.40,3.21,3.20,3.20
199.19,4.56,1.42,4.54,1.40,-1.40,-1.68,-1.37,3.16,3.15,3.14
201.18,4.44,1.35,4.42,1.33,-1.33,-1.64,-1.33,3.11,3.09,3.09
203.19,4.32,1.27,4.31,1.26,-1.26,-1.60,-1.30,3.05,3.04,3.05
205.23,4.20,1.21,4.20,1.21,-1.21,-1.57,-1.27,2.99,2.99,2.99
207.28,4.09,1.13,4.10,1.15,-1.15,-1.53,-1.24,2.94,2.95,2.96
209.35,4.00,1.10,4.00,1.10,-1.10,-1.49,-1.21,2.90,2.90,2.90
211.44,3.90,1.05,3.91,1.05,-1.05,-1.46,-1.18,2.85,2.86,2.85
213.56,3.82,1.01,3.83,1.02,-1.02,-1.42,-1.16,2.80,2.81,2.81
215.69,3.73,0.94,3.76,0.98,-0.98,-1.39,-1.13,2.74,2.77,2.78
217.85,3.67,0.93,3.70,0.96,-0.96,-1.36,-1.11,2.71,2.74,2.74
220.03,3.63,0.94,3.64,0.94,-0.94,-1.33,-1.08,2.69,2.70,2.69
222.23,3.59,0.93,3.60,0.93,-0.93,-1.29,-1.06,2.65,2.67,2.66
224.45,3.55,0.91,3.57,0.93,-0.93,-1.26,-1.04,2.62,2.64,2.64
226.70,3.52,0.91,3.54,0.93,-0.93,-1.23,-1.02,2.59,2.61,2.61
228.96,3.51,0.93,3.52,0.94,-0.94,-1.20,-0.99,2.57,2.58,2.58
231.25,3.51,0.94,3.50,0.94,-0.94,-1.17,-0.97,2.57,2.56,2.57
233.57,3.50,0.96,3.48,0.94,-0.94,-1.14,-0.96,2.56,2.54,2.54
235.90,3.49,0.97,3.47,0.94,-0.94,-1.12,-0.94,2.55,2.53,2.52
238.26,3.47,0.96,3.46,0.94,-0.94,-1.09,-0.92,2.53,2.51,2.51
240.64,3.47,0.97,3.44,0.94,-0.94,-1.06,-0.90,2.53,2.50,2.50
243.05,3.46,0.96,3.42,0.93,-0.93,-1.04,-0.88,2.53,2.50,2.50
245.48,3.43,0.94,3.40,0.91,-0.91,-1.01,-0.87,2.52,2.49,2.49
247.93,3.39,0.90,3.38,0.89,-0.89,-0.99,-0.85,2.50,2.49,2.49
250.41,3.37,0.89,3.35,0.86,-0.86,-0.96,-0.83,2.50,2.49,2.48
252.92,3.32,0.83,3.33,0.84,-0.84,-0.94,-0.82,2.48,2.49,2.49
255.45,3.30,0.80,3.30,0.80,-0.80,-0.91,-0.80,2.50,2.50,2.50
258.00,3.27,0.77,3.27,0.77,-0.77,-0.89,-0.79,2.50,2.50,2.50
260.58,3.24,0.73,3.25,0.74,-0.74,-0.87,-0.77,2.50,2.51,2.51
263.19,3.21,0.69,3.23,0.71,-0.71,-0.85,-0.76,2.50,2.52,2.52
265.82,3.18,0.66,3.21,0.68,-0.68,-0.83,-0.74,2.50,2.53,2.52
268.48,3.17,0.63,3.19,0.65,-0.65,-0.80,-0.73,2.52,2.54,2.54
271.16,3.16,0.60,3.18,0.63,-0.63,-0.78,-0.72,2.53,2.55,2.56
273.87,3.16,0.60,3.17,0.61,-0.61,-0.76,-0.70,2.55,2.56,2.56
276.61,3.16,0.58,3.17,0.59,-0.59,-0.74,-0.69,2.57,2.57,2.58
279.38,3.17,0.58,3.16,0.58,-0.58,-0.72,-0.68,2.59,2.59,2.59
282.17,3.17,0.57,3.16,0.57,-0.57,-0.71,-0.67,2.60,2.60,2.60
284.99,3.18,0.57,3.16,0.55,-0.55,-0.69,-0.65,2.63,2.61,2.61
287.84,3.18,0.56,3.17,0.54,-0.54,-0.67,-0.64,2.64,2.62,2.62
290.72,3.18,0.55,3.17,0.53,-0.53,-0.65,-0.63,2.65,2.64,2.63
293.63,3.18,0.53,3.17,0.53,-0.53,-0.63,-0.62,2.65,2.65,2.65
296.57,3.18,0.52,3.18,0.52,-0.52,-0.62,-0.61,2.66,2.66,2.66
299.53,3.18,0.51,3.18,0.51,-0.51,-0.60,-0.60,2.67,2.67,2.67
302.53,3.18,0.51,3.18,0.50,-0.50,-0.58,-0.59,2.68,2.68,2.67
305.55,3.18,0.48,3.18,0.49,-0.49,-0.57,-0.58,2.69,2.69,2.70
308.61,3.18,0.47,3.18,0.48,-0.48,-0.55,-0.58,2.70,2.70,2.70
311.69,3.18,0.47,3.18,0.47,-0.47,-0.54,-0.57,2.71,2.71,2.71
314.81,3.18,0.44,3.18,0.46,-0.46,-0.52,-0.56,2.72,2.72,2.74
317.96,3.18,0.45,3.18,0.45,-0.45,-0.50,-0.55,2.73,2.73,2.73
321.14,3.18,0.44,3.18,0.44,-0.44,-0.49,-0.55,2.74,2.74,2.74
324.35,3.18,0.44,3.18,0.44,-0.44,-0.48,-0.54,2.74,2.74,2.74
327.59,3.18,0.43,3.18,0.43,-0.43,-0.46,-0.53,2.75,2.75,2.75
330.87,3.18,0.43,3.18,0.43,-0.43,-0.45,-0.53,2.75,2.75,2.75
334.18,3.18,0.43,3.18,0.43,-0.43,-0.43,-0.52,2.75,2.75,2.75
337.52,3.18,0.43,3.18,0.42,-0.42,-0.42,-0.52,2.75,2.75,2.75
340.90,3.18,0.42,3.18,0.43,-0.43,-0.41,-0.52,2.75,2.75,2.76
344.30,3.18,0.42,3.18,0.43,-0.43,-0.39,-0.51,2.75,2.75,2.76
347.75,3.18,0.43,3.18,0.43,-0.43,-0.38,-0.51,2.75,2.75,2.75
351.23,3.18,0.43,3.18,0.43,-0.43,-0.37,-0.51,2.75,2.75,2.75
354.74,3.18,0.43,3.18,0.43,-0.43,-0.35,-0.50,2.74,2.74,2.75
358.28,3.18,0.44,3.18,0.44,-0.44,-0.34,-0.50,2.74,2.74,2.74
361.87,3.18,0.45,3.18,0.44,-0.44,-0.33,-0.50,2.74,2.74,2.73
365.49,3.18,0.45,3.18,0.45,-0.45,-0.32,-0.50,2.73,2.73,2.73
369.14,3.18,0.46,3.18,0.46,-0.46,-0.30,-0.50,2.72,2.72,2.72
372.83,3.18,0.46,3.18,0.46,-0.46,-0.29,-0.50,2.72,2.72,2.72
376.56,3.18,0.47,3.18,0.47,-0.47,-0.28,-0.50,2.71,2.71,2.71
380.33,3.18,0.48,3.18,0.48,-0.48,-0.27,-0.50,2.70,2.70,2.70
384.13,3.18,0.49,3.18,0.49,-0.49,-0.26,-0.50,2.69,2.69,2.69
387.97,3.18,0.50,3.19,0.50,-0.50,-0.24,-0.50,2.68,2.68,2.68
391.85,3.18,0.51,3.19,0.51,-0.51,-0.23,-0.50,2.67,2.68,2.67
395.77,3.18,0.50,3.19,0.52,-0.52,-0.22,-0.50,2.66,2.67,2.68
399.73,3.18,0.51,3.19,0.53,-0.53,-0.21,-0.50,2.65,2.66,2.67
403.72,3.19,0.54,3.19,0.53,-0.53,-0.20,-0.51,2.65,2.66,2.65
407.76,3.20,0.56,3.19,0.54,-0.54,-0.19,-0.51,2.66,2.65,2.64
411.84,3.20,0.55,3.18,0.54,-0.54,-0.17,-0.51,2.66,2.65,2.65
415.96,3.19,0.55,3.17,0.53,-0.53,-0.16,-0.51,2.66,2.64,2.64
420.12,3.17,0.53,3.16,0.52,-0.52,-0.15,-0.51,2.65,2.64,2.64
424.32,3.15,0.51,3.14,0.51,-0.51,-0.14,-0.51,2.64,2.63,2.64
428.56,3.14,0.51,3.12,0.49,-0.49,-0.13,-0.51,2.65,2.63,2.63
432.85,3.11,0.48,3.09,0.47,-0.47,-0.12,-0.51,2.64,2.63,2.62
437.18,3.08,0.46,3.07,0.44,-0.44,-0.10,-0.51,2.64,2.63,2.62
441.55,3.04,0.41,3.04,0.41,-0.41,-0.09,-0.51,2.63,2.63,2.63
445.96,3.01,0.38,3.01,0.38,-0.38,-0.08,-0.50,2.63,2.63,2.63
450.42,2.97,0.35,2.97,0.34,-0.34,-0.07,-0.50,2.62,2.63,2.62
454.93,2.94,0.31,2.94,0.31,-0.31,-0.06,-0.50,2.63,2.63,2.63
459.48,2.90,0.27,2.92,0.28,-0.28,-0.04,-0.49,2.62,2.63,2.63
464.07,2.88,0.24,2.90,0.26,-0.26,-0.03,-0.48,2.62,2.64,2.64
468.71,2.86,0.21,2.88,0.23,-0.23,-0.02,-0.48,2.62,2.64,2.65
473.40,2.84,0.19,2.86,0.22,-0.22,-0.01,-0.47,2.62,2.65,2.65
478.13,2.83,0.17,2.85,0.20,-0.20,0.00,-0.46,2.63,2.65,2.66
482.91,2.83,0.17,2.85,0.19,-0.19,0.02,-0.45,2.64,2.66,2.65
487.74,2.84,0.18,2.85,0.18,-0.18,0.03,-0.43,2.66,2.66,2.66
492.62,2.85,0.18,2.85,0.18,-0.18,0.04,-0.42,2.67,2.67,2.67
497.55,2.85,0.18,2.85,0.18,-0.18,0.06,-0.40,2.67,2.67,2.67
502.52,2.86,0.18,2.85,0.18,-0.18,0.07,-0.38,2.68,2.68,2.68
507.55,2.87,0.19,2.86,0.18,-0.18,0.08,-0.36,2.69,2.68,2.68
512.62,2.87,0.19,2.86,0.17,-0.17,0.10,-0.34,2.70,2.68,2.68
517.75,2.88,0.19,2.85,0.17,-0.17,0.11,-0.32,2.71,2.69,2.69
522.93,2.87,0.18,2.85,0.16,-0.16,0.12,-0.30,2.71,2.69,2.69
528.16,2.85,0.16,2.84,0.15,-0.15,0.14,-0.27,2.70,2.69,2.69
533.44,2.84,0.15,2.82,0.13,-0.13,0.15,-0.24,2.71,2.69,2.69
538.77,2.81,0.12,2.80,0.11,-0.11,0.17,-0.21,2.70,2.69,2.69
544.16,2.79,0.10,2.77,0.09,-0.09,0.18,-0.18,2.70,2.68,2.69
549.60,2.75,0.06,2.75,0.07,-0.07,0.20,-0.15,2.68,2.68,2.69
555.10,2.72,0.04,2.72,0.04,-0.04,0.21,-0.12,2.68,2.68,2.68
560.65,2.69,0.01,2.69,0.01,-0.01,0.23,-0.08,2.68,2.68,2.68
