frequency,raw,error,smoothed,error_smoothed,equalization,parametric_eq,fixed_band_eq,equalized_raw,equalized_smoothed,target
20.00,-26.44,-28.63,-26.51,-28.69,26.10,23.94,8.84,-0.35,-0.41,2.19
20.20,-26.12,-28.31,-26.06,-28.25,25.84,24.08,9.02,-0.29,-0.22,2.19
20.40,-25.63,-27.82,-25.57,-27.76,25.58,24.19,9.19,-0.05,0.01,2.19
20.61,-25.06,-27.25,-25.05,-27.24,25.32,24.26,9.38,0.26,0.27,2.19
20.81,-24.42,-26.61,-24.44,-26.63,25.06,24.29,9.56,0.64,0.62,2.19
21.02,-23.85,-26.04,-23.86,-26.05,24.80,24.28,9.75,0.95,0.94,2.19
21.23,-23.35,-25.52,-23.36,-25.53,24.55,24.22,9.95,1.19,1.19,2.17
21.44,-22.95,-25.11,-22.96,-25.11,24.29,24.12,10.15,1.34,1.33,2.16
21.66,-22.63,-24.77,-22.63,-24.77,24.03,23.99,10.36,1.40,1.40,2.14
21.87,-22.37,-24.49,-22.37,-24.49,23.77,23.82,10.57,1.40,1.40,2.12
22.09,-22.14,-24.25,-22.15,-24.25,23.51,23.62,10.79,1.37,1.36,2.11
22.31,-21.94,-24.02,-21.94,-24.02,23.25,23.39,11.01,1.31,1.32,2.08
22.54,-21.73,-23.78,-21.71,-23.77,23.00,23.15,11.24,1.27,1.28,2.06
22.76,-21.46,-23.50,-21.47,-23.50,22.74,22.88,11.48,1.28,1.27,2.04
22.99,-21.18,-23.19,-21.18,-23.18,22.48,22.60,11.72,1.29,1.30,2.01
23.22,-20.86,-22.84,-20.86,-22.84,22.22,22.31,11.97,1.36,1.36,1.98
23.45,-20.52,-22.47,-20.53,-22.49,21.96,22.01,12.23,1.44,1.43,1.95
23.69,-20.21,-22.15,-20.20,-22.14,21.70,21.71,12.49,1.49,1.50,1.94
23.92,-19.89,-21.81,-19.89,-21.81,21.45,21.40,12.76,1.55,1.55,1.92
24.16,-19.60,-21.51,-19.61,-21.52,21.19,21.09,13.05,1.59,1.57,1.91
24.40,-19.36,-21.25,-19.35,-21.24,20.93,20.79,13.34,1.57,1.57,1.89
24.65,-19.12,-20.98,-19.12,-20.98,20.67,20.48,13.64,1.55,1.55,1.87
24.89,-18.88,-20.73,-18.88,-20.73,20.41,20.18,13.95,1.53,1.53,1.85
25.14,-18.64,-20.48,-18.64,-20.47,20.15,19.88,14.27,1.51,1.52,1.84
25.39,-18.38,-20.20,-18.38,-20.20,19.89,19.59,14.60,1.52,1.51,1.82
25.65,-18.12,-19.92,-18.11,-19.91,19.64,19.29,14.94,1.52,1.53,1.81
25.91,-17.83,-19.61,-17.82,-19.61,19.38,19.01,15.29,1.55,1.55,1.78
26.16,-17.52,-19.29,-17.53,-19.29,19.12,18.73,15.66,1.60,1.59,1.77
26.43,-17.23,-18.99,-17.22,-18.97,18.86,18.45,16.04,1.63,1.63,1.76
26.69,-16.92,-18.65,-16.93,-18.66,18.60,18.18,16.43,1.68,1.67,1.73
26.96,-16.65,-18.36,-16.65,-18.37,18.34,17.91,16.83,1.70,1.70,1.72
27.23,-16.38,-18.08,-16.38,-18.09,18.09,17.65,17.24,1.71,1.71,1.71
27.50,-16.13,-17.83,-16.13,-17.83,17.84,17.40,17.67,1.71,1.71,1.70
27.77,-15.90,-17.58,-15.90,-17.58,17.59,17.15,18.11,1.69,1.69,1.68
28.05,-15.67,-17.34,-15.68,-17.34,17.35,16.90,18.55,1.68,1.67,1.67
28.33,-15.46,-17.11,-15.46,-17.11,17.10,16.66,19.01,1.64,1.65,1.65
28.62,-15.24,-16.87,-15.24,-16.87,16.86,16.42,19.46,1.62,1.62,1.64
28.90,-15.01,-16.63,-15.01,-16.63,16.61,16.19,19.92,1.60,1.60,1.62
29.19,-14.77,-16.37,-14.77,-16.37,16.36,15.96,20.36,1.59,1.59,1.60
29.48,-14.52,-16.12,-14.52,-16.11,16.11,15.73,20.79,1.59,1.59,1.60
29.78,-14.27,-15.85,-14.27,-15.86,15.86,15.51,21.19,1.59,1.59,1.59
30.08,-14.02,-15.60,-14.02,-15.60,15.60,15.30,21.55,1.59,1.58,1.58
30.38,-13.79,-15.34,-13.78,-15.34,15.35,15.08,21.86,1.56,1.57,1.56
30.68,-13.54,-15.09,-13.55,-15.09,15.10,14.87,22.09,1.55,1.55,1.55
30.99,-13.32,-14.83,-13.32,-14.84,14.84,14.67,22.24,1.53,1.52,1.52
31.30,-13.10,-14.60,-13.09,-14.60,14.59,14.46,22.29,1.50,1.50,1.51
31.61,-12.86,-14.36,-12.86,-14.36,14.35,14.26,22.25,1.48,1.48,1.50
31.93,-12.64,-14.11,-12.64,-14.11,14.11,14.06,22.11,1.47,1.47,1.48
32.24,-12.41,-13.86,-12.41,-13.87,13.87,13.87,21.89,1.46,1.46,1.45
32.57,-12.20,-13.62,-12.20,-13.63,13.64,13.68,21.59,1.44,1.44,1.43
32.89,-11.99,-13.41,-11.99,-13.40,13.41,13.49,21.24,1.42,1.42,1.42
33.22,-11.78,-13.17,-11.79,-13.18,13.19,13.30,20.84,1.40,1.40,1.39
33.55,-11.60,-12.98,-11.60,-12.97,12.97,13.11,20.41,1.36,1.37,1.38
33.89,-11.41,-12.76,-11.41,-12.76,12.75,12.93,19.96,1.33,1.34,1.35
34.23,-11.22,-12.55,-11.22,-12.55,12.54,12.74,19.50,1.31,1.31,1.33
34.57,-11.02,-12.33,-11.03,-12.33,12.33,12.56,19.04,1.30,1.30,1.31
34.92,-10.84,-12.12,-10.83,-12.12,12.13,12.38,18.58,1.29,1.29,1.29
35.27,-10.65,-11.91,-10.65,-11.92,11.93,12.20,18.13,1.28,1.28,1.27
35.62,-10.47,-11.72,-10.47,-11.72,11.74,12.03,17.68,1.27,1.27,1.25
35.97,-10.31,-11.54,-10.31,-11.54,11.55,11.85,17.25,1.24,1.24,1.23
36.33,-10.15,-11.36,-10.16,-11.37,11.37,11.67,16.83,1.22,1.21,1.21
36.70,-10.02,-11.21,-10.01,-11.20,11.19,11.49,16.42,1.17,1.18,1.19
37.06,-9.86,-11.03,-9.87,-11.03,11.01,11.32,16.02,1.15,1.15,1.17
37.43,-9.71,-10.86,-9.71,-10.86,10.83,11.14,15.63,1.12,1.12,1.15
37.81,-9.54,-10.67,-9.54,-10.67,10.65,10.96,15.26,1.11,1.11,1.13
38.19,-9.37,-10.46,-9.37,-10.47,10.47,10.78,14.90,1.10,1.10,1.10
38.57,-9.19,-10.28,-9.19,-10.27,10.29,10.60,14.55,1.09,1.09,1.09
38.95,-9.02,-10.08,-9.02,-10.08,10.11,10.42,14.21,1.08,1.08,1.06
39.34,-8.86,-9.90,-8.87,-9.91,9.92,10.24,13.88,1.06,1.06,1.04
39.74,-8.72,-9.74,-8.72,-9.74,9.75,10.05,13.56,1.02,1.02,1.02
40.14,-8.59,-9.59,-8.58,-9.59,9.57,9.86,13.25,0.99,0.99,1.01
40.54,-8.44,-9.43,-8.44,-9.42,9.41,9.67,12.95,0.96,0.97,0.99
40.94,-8.28,-9.25,-8.29,-9.25,9.25,9.48,12.66,0.96,0.96,0.97
41.35,-8.13,-9.07,-8.13,-9.08,9.09,9.29,12.38,0.96,0.96,0.94
41.76,-7.97,-8.91,-7.98,-8.91,8.93,9.09,12.11,0.96,0.95,0.94
42.18,-7.84,-8.76,-7.84,-8.76,8.78,8.89,11.84,0.93,0.93,0.92
42.60,-7.71,-8.61,-7.71,-8.62,8.61,8.70,11.58,0.90,0.90,0.90
43.03,-7.59,-8.48,-7.59,-8.47,8.45,8.50,11.33,0.86,0.86,0.89
43.46,-7.45,-8.31,-7.45,-8.31,8.28,8.31,11.08,0.83,0.83,0.86
43.90,-7.31,-8.14,-7.30,-8.14,8.11,8.12,10.84,0.81,0.81,0.84
44.33,-7.14,-7.96,-7.14,-7.96,7.94,7.95,10.61,0.80,0.80,0.82
44.78,-6.98,-7.78,-6.98,-7.77,7.77,7.78,10.38,0.79,0.79,0.80
45.23,-6.82,-7.58,-6.82,-7.59,7.61,7.62,10.16,0.79,0.79,0.77
45.68,-6.67,-7.42,-6.68,-7.43,7.45,7.48,9.95,0.78,0.78,0.75
46.13,-6.55,-7.29,-6.55,-7.29,7.32,7.35,9.73,0.76,0.76,0.74
46.60,-6.45,-7.18,-6.45,-7.18,7.20,7.24,9.53,0.75,0.75,0.73
47.06,-6.37,-7.08,-6.37,-7.08,7.11,7.15,9.33,0.73,0.74,0.71
47.53,-6.30,-6.99,-6.31,-7.00,7.02,7.08,9.13,0.72,0.71,0.69
48.01,-6.26,-6.94,-6.28,-6.95,6.94,7.02,8.94,0.68,0.67,0.68
48.49,-6.25,-6.90,-6.26,-6.91,6.87,6.97,8.75,0.61,0.61,0.65
48.97,-6.25,-6.87,-6.24,-6.85,6.79,6.93,8.56,0.54,0.56,0.62
49.46,-6.19,-6.78,-6.18,-6.77,6.72,6.91,8.38,0.53,0.54,0.59
49.96,-6.09,-6.65,-6.09,-6.65,6.65,6.88,8.21,0.55,0.56,0.56
50.46,-5.97,-6.52,-6.00,-6.54,6.58,6.87,8.04,0.60,0.58,0.55
50.96,-5.92,-6.45,-5.94,-6.46,6.51,6.85,7.87,0.59,0.57,0.53
51.47,-5.91,-6.41,-5.91,-6.41,6.44,6.83,7.70,0.53,0.53,0.50
51.99,-5.91,-6.39,-5.90,-6.38,6.37,6.82,7.54,0.45,0.47,0.48
52.51,-5.88,-6.34,-5.89,-6.34,6.30,6.80,7.38,0.42,0.42,0.46
53.03,-5.85,-6.29,-5.87,-6.30,6.25,6.78,7.23,0.40,0.39,0.44
53.56,-5.84,-6.25,-5.84,-6.25,6.22,6.76,7.08,0.37,0.38,0.41
54.10,-5.81,-6.20,-5.80,-6.18,6.19,6.74,6.93,0.38,0.39,0.39
54.64,-5.76,-6.12,-5.76,-6.12,6.17,6.71,6.79,0.40,0.41,0.36
55.18,-5.74,-6.08,-5.78,-6.12,6.16,6.68,6.65,0.42,0.38,0.34
55.74,-5.83,-6.14,-5.87,-6.17,6.18,6.65,6.51,0.35,0.31,0.31
56.29,-6.01,-6.30,-5.96,-6.25,6.23,6.62,6.38,0.22,0.27,0.29
56.86,-6.08,-6.34,-6.03,-6.29,6.31,6.59,6.25,0.23,0.28,0.26
57.42,-6.06,-6.30,-6.10,-6.34,6.41,6.55,6.12,0.35,0.31,0.24
58.00,-6.15,-6.37,-6.23,-6.45,6.52,6.52,6.00,0.37,0.29,0.22
58.58,-6.44,-6.63,-6.43,-6.62,6.62,6.48,5.88,0.18,0.19,0.19
59.16,-6.69,-6.86,-6.63,-6.80,6.70,6.44,5.76,0.01,0.07,0.17
59.76,-6.77,-6.92,-6.75,-6.89,6.76,6.40,5.65,-0.01,0.01,0.15
60.35,-6.74,-6.86,-6.77,-6.89,6.81,6.36,5.54,0.06,0.04,0.12
60.96,-6.72,-6.82,-6.75,-6.84,6.84,6.33,5.43,0.11,0.09,0.10
61.57,-6.74,-6.80,-6.74,-6.80,6.85,6.29,5.33,0.11,0.11,0.06
62.18,-6.76,-6.79,-6.75,-6.78,6.85,6.25,5.23,0.08,0.10,0.03
62.80,-6.76,-6.76,-6.77,-6.77,6.83,6.21,5.14,0.07,0.06,-0.00
63.43,-6.79,-6.76,-6.82,-6.78,6.81,6.17,5.05,0.02,-0.00,-0.03
64.07,-6.87,-6.81,-6.86,-6.80,6.80,6.14,4.96,-0.08,-0.07,-0.06
64.71,-6.92,-6.84,-6.90,-6.82,6.79,6.10,4.87,-0.14,-0.12,-0.08
65.35,-6.91,-6.81,-6.92,-6.81,6.77,6.07,4.79,-0.14,-0.15,-0.10
66.01,-6.89,-6.77,-6.90,-6.77,6.75,6.03,4.71,-0.15,-0.15,-0.12
66.67,-6.86,-6.71,-6.86,-6.71,6.71,6.00,4.64,-0.15,-0.15,-0.15
67.33,-6.82,-6.65,-6.82,-6.64,6.67,5.96,4.56,-0.16,-0.15,-0.17
68.01,-6.77,-6.57,-6.78,-6.58,6.61,5.93,4.49,-0.17,-0.17,-0.20
68.69,-6.73,-6.51,-6.75,-6.52,6.53,5.89,4.43,-0.20,-0.21,-0.22
69.37,-6.72,-6.47,-6.71,-6.46,6.45,5.86,4.36,-0.27,-0.26,-0.25
70.07,-6.67,-6.39,-6.67,-6.39,6.37,5.82,4.30,-0.31,-0.30,-0.28
70.77,-6.60,-6.30,-6.61,-6.30,6.28,5.79,4.24,-0.33,-0.33,-0.30
71.48,-6.52,-6.19,-6.52,-6.19,6.18,5.75,4.19,-0.34,-0.34,-0.33
72.19,-6.44,-6.08,-6.44,-6.07,6.09,5.71,4.13,-0.36,-0.35,-0.36
72.91,-6.34,-5.94,-6.36,-5.97,5.99,5.66,4.08,-0.36,-0.38,-0.40
73.64,-6.29,-5.86,-6.30,-5.87,5.88,5.61,4.03,-0.41,-0.42,-0.43
74.38,-6.25,-5.79,-6.23,-5.76,5.77,5.56,3.98,-0.49,-0.46,-0.46
75.12,-6.15,-5.64,-6.15,-5.65,5.65,5.50,3.94,-0.51,-0.51,-0.51
75.87,-6.05,-5.51,-6.09,-5.55,5.52,5.44,3.89,-0.53,-0.57,-0.54
76.63,-6.01,-5.44,-6.01,-5.43,5.39,5.37,3.85,-0.62,-0.62,-0.57
77.40,-5.95,-5.34,-5.91,-5.29,5.26,5.30,3.81,-0.69,-0.65,-0.61
78.17,-5.79,-5.12,-5.79,-5.13,5.13,5.22,3.77,-0.66,-0.66,-0.67
78.95,-5.62,-4.93,-5.67,-4.97,5.00,5.14,3.74,-0.62,-0.67,-0.69
79.74,-5.56,-4.83,-5.57,-4.83,4.87,5.05,3.70,-0.69,-0.70,-0.73
80.54,-5.53,-4.75,-5.51,-4.73,4.75,4.96,3.67,-0.78,-0.76,-0.78
81.35,-5.46,-4.64,-5.46,-4.64,4.63,4.87,3.64,-0.83,-0.83,-0.82
82.16,-5.39,-4.52,-5.40,-4.53,4.52,4.77,3.61,-0.87,-0.88,-0.87
82.98,-5.33,-4.42,-5.34,-4.42,4.41,4.67,3.58,-0.92,-0.93,-0.91
83.81,-5.29,-4.32,-5.30,-4.33,4.31,4.57,3.55,-0.99,-0.99,-0.97
84.65,-5.25,-4.24,-5.24,-4.23,4.21,4.47,3.52,-1.05,-1.03,-1.01
85.50,-5.18,-4.13,-5.17,-4.12,4.11,4.37,3.50,-1.07,-1.06,-1.05
86.35,-5.09,-3.99,-5.11,-4.01,4.02,4.27,3.47,-1.08,-1.09,-1.10
87.22,-5.05,-3.90,-5.06,-3.91,3.93,4.17,3.45,-1.12,-1.13,-1.15
88.09,-5.04,-3.83,-5.04,-3.83,3.86,4.07,3.43,-1.19,-1.18,-1.21
88.97,-5.03,-3.78,-5.03,-3.78,3.79,3.97,3.41,-1.24,-1.24,-1.25
89.86,-5.03,-3.73,-5.04,-3.73,3.73,3.88,3.39,-1.30,-1.31,-1.30
90.76,-5.05,-3.69,-5.05,-3.69,3.68,3.79,3.38,-1.38,-1.37,-1.36
91.66,-5.06,-3.65,-5.06,-3.65,3.64,3.71,3.36,-1.43,-1.43,-1.41
92.58,-5.07,-3.60,-5.07,-3.61,3.60,3.62,3.35,-1.48,-1.48,-1.47
93.51,-5.08,-3.57,-5.08,-3.56,3.56,3.55,3.34,-1.52,-1.52,-1.51
94.44,-5.08,-3.52,-5.08,-3.52,3.53,3.48,3.32,-1.56,-1.56,-1.56
95.39,-5.09,-3.47,-5.11,-3.48,3.49,3.42,3.31,-1.60,-1.62,-1.62
96.34,-5.13,-3.44,-5.14,-3.45,3.46,3.36,3.30,-1.67,-1.68,-1.69
97.30,-5.19,-3.45,-5.17,-3.42,3.43,3.31,3.29,-1.77,-1.74,-1.74
98.28,-5.19,-3.39,-5.20,-3.39,3.39,3.26,3.29,-1.80,-1.81,-1.80
99.26,-5.20,-3.33,-5.23,-3.36,3.35,3.22,3.28,-1.85,-1.88,-1.87
100.25,-5.25,-3.33,-5.25,-3.33,3.31,3.18,3.27,-1.94,-1.94,-1.92
101.25,-5.29,-3.31,-5.27,-3.28,3.27,3.15,3.27,-2.03,-2.01,-1.98
102.27,-5.28,-3.23,-5.28,-3.23,3.22,3.12,3.26,-2.06,-2.06,-2.05
103.29,-5.26,-3.14,-5.28,-3.16,3.18,3.09,3.26,-2.09,-2.10,-2.12
104.32,-5.27,-3.10,-5.28,-3.10,3.13,3.06,3.26,-2.15,-2.15,-2.17
105.37,-5.30,-3.07,-5.30,-3.07,3.08,3.04,3.25,-2.22,-2.22,-2.23
106.42,-5.34,-3.04,-5.34,-3.04,3.03,3.02,3.25,-2.31,-2.31,-2.30
107.48,-5.37,-3.00,-5.37,-3.00,2.99,3.00,3.25,-2.39,-2.38,-2.37
108.56,-5.39,-2.95,-5.39,-2.95,2.95,2.98,3.25,-2.45,-2.45,-2.44
109.64,-5.41,-2.91,-5.41,-2.91,2.91,2.96,3.24,-2.50,-2.50,-2.50
110.74,-5.42,-2.86,-5.43,-2.86,2.87,2.95,3.24,-2.55,-2.56,-2.56
111.85,-5.46,-2.83,-5.47,-2.83,2.83,2.93,3.24,-2.63,-2.63,-2.63
112.97,-5.50,-2.79,-5.50,-2.80,2.79,2.91,3.24,-2.71,-2.71,-2.71
114.10,-5.54,-2.77,-5.54,-2.76,2.75,2.89,3.23,-2.79,-2.79,-2.77
115.24,-5.56,-2.72,-5.57,-2.73,2.72,2.88,3.23,-2.85,-2.86,-2.84
116.39,-5.60,-2.69,-5.59,-2.68,2.69,2.86,3.22,-2.92,-2.91,-2.91
117.55,-5.62,-2.64,-5.62,-2.64,2.66,2.84,3.22,-2.96,-2.96,-2.98
118.73,-5.65,-2.61,-5.67,-2.63,2.65,2.82,3.21,-3.01,-3.02,-3.04
119.92,-5.72,-2.62,-5.73,-2.62,2.63,2.81,3.20,-3.09,-3.10,-3.10
121.12,-5.81,-2.65,-5.80,-2.63,2.63,2.79,3.19,-3.19,-3.17,-3.16
122.33,-5.86,-2.63,-5.86,-2.64,2.63,2.77,3.18,-3.24,-3.24,-3.23
123.55,-5.91,-2.63,-5.92,-2.64,2.63,2.76,3.16,-3.28,-3.29,-3.28
124.79,-5.97,-2.63,-5.98,-2.64,2.64,2.74,3.15,-3.34,-3.34,-3.34
126.03,-6.04,-2.65,-6.04,-2.64,2.64,2.73,3.14,-3.40,-3.40,-3.39
127.29,-6.10,-2.65,-6.11,-2.65,2.65,2.71,3.12,-3.46,-3.46,-3.45
128.57,-6.17,-2.65,-6.17,-2.65,2.65,2.69,3.10,-3.52,-3.52,-3.52
129.85,-6.22,-2.65,-6.23,-2.65,2.66,2.68,3.08,-3.57,-3.57,-3.57
131.15,-6.28,-2.66,-6.28,-2.66,2.66,2.66,3.06,-3.62,-3.62,-3.62
132.46,-6.34,-2.66,-6.34,-2.66,2.67,2.65,3.04,-3.68,-3.67,-3.68
133.79,-6.39,-2.67,-6.40,-2.67,2.67,2.64,3.02,-3.72,-3.73,-3.72
135.12,-6.45,-2.67,-6.46,-2.68,2.68,2.62,2.99,-3.78,-3.78,-3.78
136.48,-6.51,-2.70,-6.51,-2.69,2.68,2.61,2.97,-3.83,-3.82,-3.81
137.84,-6.55,-2.70,-6.56,-2.70,2.69,2.60,2.94,-3.87,-3.87,-3.85
139.22,-6.59,-2.69,-6.60,-2.70,2.69,2.58,2.92,-3.90,-3.90,-3.90
140.61,-6.63,-2.69,-6.63,-2.69,2.70,2.57,2.89,-3.93,-3.93,-3.94
142.02,-6.66,-2.70,-6.67,-2.70,2.71,2.56,2.86,-3.96,-3.96,-3.96
143.44,-6.70,-2.71,-6.71,-2.71,2.72,2.55,2.84,-3.99,-3.99,-3.99
144.87,-6.75,-2.72,-6.75,-2.72,2.73,2.54,2.81,-4.03,-4.02,-4.03
146.32,-6.79,-2.73,-6.80,-2.74,2.74,2.53,2.78,-4.05,-4.06,-4.06
147.78,-6.85,-2.77,-6.85,-2.76,2.76,2.52,2.76,-4.10,-4.09,-4.08
149.26,-6.89,-2.78,-6.90,-2.78,2.78,2.51,2.73,-4.12,-4.12,-4.11
150.75,-6.94,-2.79,-6.94,-2.80,2.79,2.50,2.71,-4.15,-4.15,-4.15
152.26,-6.98,-2.81,-6.98,-2.81,2.81,2.49,2.69,-4.17,-4.17,-4.17
153.78,-7.02,-2.82,-7.03,-2.83,2.83,2.48,2.66,-4.20,-4.20,-4.20
155.32,-7.06,-2.84,-7.07,-2.84,2.84,2.47,2.64,-4.22,-4.23,-4.22
156.88,-7.11,-2.86,-7.11,-2.85,2.85,2.47,2.62,-4.26,-4.25,-4.25
158.44,-7.14,-2.86,-7.14,-2.86,2.86,2.46,2.60,-4.28,-4.28,-4.28
160.03,-7.17,-2.86,-7.18,-2.87,2.87,2.45,2.58,-4.30,-4.31,-4.31
161.63,-7.22,-2.88,-7.22,-2.87,2.88,2.45,2.57,-4.34,-4.34,-4.34
163.24,-7.25,-2.88,-7.25,-2.88,2.88,2.44,2.55,-4.37,-4.37,-4.37
164.88,-7.27,-2.88,-7.28,-2.89,2.88,2.44,2.54,-4.39,-4.39,-4.39
166.53,-7.30,-2.89,-7.30,-2.88,2.88,2.43,2.52,-4.42,-4.42,-4.41
168.19,-7.32,-2.87,-7.33,-2.88,2.87,2.43,2.51,-4.45,-4.45,-4.45
169.87,-7.35,-2.87,-7.35,-2.87,2.86,2.43,2.50,-4.49,-4.48,-4.48
171.57,-7.35,-2.84,-7.36,-2.85,2.85,2.42,2.50,-4.51,-4.51,-4.51
173.29,-7.36,-2.83,-7.36,-2.82,2.82,2.42,2.49,-4.54,-4.54,-4.53
175.02,-7.36,-2.79,-7.36,-2.79,2.79,2.42,2.49,-4.57,-4.57,-4.57
176.77,-7.36,-2.75,-7.37,-2.75,2.75,2.42,2.48,-4.61,-4.61,-4.61
178.54,-7.36,-2.71,-7.36,-2.71,2.71,2.42,2.48,-4.66,-4.65,-4.65
180.32,-7.35,-2.67,-7.35,-2.67,2.66,2.41,2.48,-4.70,-4.69,-4.68
182.13,-7.33,-2.62,-7.33,-2.62,2.61,2.41,2.48,-4.73,-4.73,-4.71
183.95,-7.31,-2.56,-7.31,-2.56,2.56,2.41,2.49,-4.76,-4.75,-4.75
185.79,-7.28,-2.49,-7.29,-2.49,2.51,2.41,2.49,-4.78,-4.78,-4.79
187.65,-7.26,-2.43,-7.27,-2.44,2.46,2.41,2.50,-4.81,-4.81,-4.83
189.52,-7.26,-2.40,-7.26,-2.40,2.41,2.41,2.51,-4.85,-4.85,-4.86
191.42,-7.25,-2.37,-7.25,-2.37,2.37,2.41,2.52,-4.88,-4.88,-4.88
193.33,-7.25,-2.35,-7.25,-2.35,2.34,2.41,2.53,-4.91,-4.92,-4.90
195.27,-7.25,-2.32,-7.26,-2.32,2.31,2.41,2.54,-4.94,-4.94,-4.93
197.22,-7.26,-2.30,-7.26,-2.29,2.29,2.42,2.55,-4.97,-4.97,-4.96
199.19,-7.26,-2.25,-7.27,-2.27,2.27,2.42,2.57,-4.99,-4.99,-5.01
201.18,-7.27,-2.25,-7.28,-2.25,2.26,2.42,2.58,-5.01,-5.02,-5.02
203.19,-7.29,-2.25,-7.29,-2.24,2.25,2.42,2.60,-5.05,-5.04,-5.04
205.23,-7.30,-2.24,-7.30,-2.24,2.23,2.42,2.62,-5.07,-5.07,-5.06
207.28,-7.30,-2.23,-7.31,-2.23,2.22,2.42,2.63,-5.08,-5.09,-5.07
209.35,-7.32,-2.22,-7.32,-2.22,2.22,2.43,2.65,-5.11,-5.10,-5.10
211.44,-7.32,-2.20,-7.33,-2.21,2.21,2.43,2.67,-5.11,-5.12,-5.12
213.56,-7.34,-2.20,-7.34,-2.20,2.20,2.43,2.69,-5.14,-5.14,-5.14
215.69,-7.34,-2.20,-7.35,-2.20,2.19,2.43,2.70,-5.15,-5.15,-5.14
217.85,-7.35,-2.20,-7.35,-2.19,2.19,2.43,2.72,-5.17,-5.17,-5.15
220.03,-7.35,-2.17,-7.35,-2.18,2.18,2.44,2.73,-5.17,-5.17,-5.18
222.23,-7.35,-2.16,-7.36,-2.17,2.17,2.44,2.75,-5.18,-5.18,-5.19
224.45,-7.35,-2.17,-7.35,-2.16,2.17,2.44,2.76,-5.19,-5.19,-5.18
226.70,-7.35,-2.16,-7.35,-2.16,2.16,2.44,2.77,-5.19,-5.19,-5.19
228.96,-7.34,-2.15,-7.34,-2.16,2.15,2.44,2.78,-5.19,-5.19,-5.19
231.25,-7.33,-2.15,-7.34,-2.15,2.15,2.45,2.79,-5.19,-5.19,-5.18
233.57,-7.32,-2.15,-7.32,-2.15,2.14,2.45,2.79,-5.19,-5.19,-5.17
235.90,-7.31,-2.14,-7.31,-2.14,2.13,2.45,2.80,-5.18,-5.18,-5.17
238.26,-7.28,-2.11,-7.29,-2.12,2.12,2.45,2.80,-5.16,-5.17,-5.17
240.64,-7.26,-2.11,-7.26,-2.11,2.11,2.45,2.79,-5.15,-5.15,-5.15
243.05,-7.23,-2.10,-7.24,-2.10,2.10,2.45,2.79,-5.13,-5.13,-5.13
245.48,-7.21,-2.10,-7.21,-2.10,2.10,2.45,2.78,-5.11,-5.12,-5.11
247.93,-7.19,-2.09,-7.19,-2.09,2.10,2.45,2.77,-5.10,-5.09,-5.10
250.41,-7.17,-2.08,-7.17,-2.09,2.10,2.45,2.75,-5.07,-5.07,-5.09
252.92,-7.15,-2.10,-7.16,-2.10,2.10,2.45,2.73,-5.05,-5.06,-5.05
255.45,-7.15,-2.12,-7.15,-2.11,2.11,2.44,2.71,-5.04,-5.04,-5.03
258.00,-7.14,-2.13,-7.14,-2.13,2.12,2.44,2.68,-5.02,-5.02,-5.01
260.58,-7.12,-2.13,-7.13,-2.14,2.13,2.44,2.65,-4.99,-5.00,-4.99
263.19,-7.12,-2.15,-7.12,-2.15,2.15,2.44,2.62,-4.98,-4.97,-4.97
265.82,-7.10,-2.15,-7.10,-2.16,2.16,2.43,2.59,-4.95,-4.95,-4.95
268.48,-7.09,-2.17,-7.09,-2.17,2.16,2.43,2.55,-4.93,-4.93,-4.92
271.16,-7.06,-2.17,-7.07,-2.17,2.17,2.42,2.51,-4.90,-4.90,-4.89
273.87,-7.05,-2.18,-7.05,-2.18,2.17,2.42,2.47,-4.88,-4.87,-4.87
276.61,-7.02,-2.18,-7.02,-2.18,2.18,2.41,2.42,-4.85,-4.84,-4.84
279.38,-6.99,-2.17,-7.00,-2.18,2.18,2.40,2.37,-4.81,-4.82,-4.82
282.17,-6.98,-2.18,-6.98,-2.18,2.19,2.40,2.33,-4.79,-4.79,-4.80
284.99,-6.97,-2.20,-6.97,-2.19,2.20,2.39,2.27,-4.78,-4.77,-4.77
287.84,-6.95,-2.20,-6.95,-2.21,2.21,2.38,2.22,-4.75,-4.75,-4.75
290.72,-6.93,-2.22,-6.94,-2.22,2.22,2.37,2.17,-4.71,-4.72,-4.71
293.63,-6.92,-2.23,-6.92,-2.23,2.24,2.36,2.12,-4.69,-4.69,-4.69
296.57,-6.91,-2.25,-6.91,-2.25,2.25,2.35,2.06,-4.66,-4.66,-4.66
299.53,-6.90,-2.27,-6.90,-2.27,2.27,2.33,2.01,-4.63,-4.63,-4.63
302.53,-6.89,-2.28,-6.90,-2.29,2.29,2.32,1.95,-4.60,-4.61,-4.61
305.55,-6.88,-2.32,-6.88,-2.31,2.31,2.31,1.90,-4.58,-4.57,-4.56
308.61,-6.86,-2.33,-6.86,-2.33,2.33,2.29,1.84,-4.54,-4.53,-4.53
311.69,-6.83,-2.34,-6.84,-2.35,2.34,2.28,1.79,-4.49,-4.50,-4.49
314.81,-6.81,-2.35,-6.82,-2.35,2.36,2.26,1.73,-4.46,-4.46,-4.46
317.96,-6.80,-2.37,-6.80,-2.36,2.37,2.24,1.68,-4.43,-4.43,-4.43
321.14,-6.77,-2.37,-6.78,-2.37,2.38,2.22,1.62,-4.40,-4.40,-4.40
324.35,-6.76,-2.38,-6.76,-2.38,2.38,2.20,1.57,-4.38,-4.38,-4.38
327.59,-6.73,-2.39,-6.73,-2.39,2.38,2.18,1.52,-4.35,-4.35,-4.34
330.87,-6.70,-2.39,-6.71,-2.39,2.38,2.16,1.46,-4.32,-4.32,-4.31
334.18,-6.67,-2.38,-6.67,-2.38,2.38,2.14,1.41,-4.29,-4.29,-4.29
337.52,-6.63,-2.36,-6.63,-2.37,2.37,2.12,1.36,-4.26,-4.26,-4.27
340.90,-6.59,-2.35,-6.60,-2.35,2.36,2.09,1.31,-4.24,-4.24,-4.24
344.30,-6.56,-2.34,-6.56,-2.34,2.34,2.07,1.26,-4.22,-4.22,-4.22
347.75,-6.52,-2.33,-6.52,-2.32,2.32,2.04,1.21,-4.20,-4.20,-4.19
351.23,-6.47,-2.30,-6.48,-2.30,2.29,2.01,1.17,-4.18,-4.18,-4.17
354.74,-6.42,-2.26,-6.43,-2.27,2.26,1.99,1.12,-4.16,-4.16,-4.16
358.28,-6.37,-2.23,-6.37,-2.23,2.23,1.96,1.07,-4.14,-4.14,-4.14
361.87,-6.31,-2.19,-6.31,-2.19,2.19,1.93,1.03,-4.12,-4.12,-4.12
365.49,-6.25,-2.16,-6.26,-2.16,2.15,1.90,0.98,-4.10,-4.10,-4.09
369.14,-6.19,-2.11,-6.19,-2.11,2.11,1.87,0.94,-4.08,-4.08,-4.08
372.83,-6.13,-2.06,-6.13,-2.06,2.07,1.83,0.90,-4.07,-4.06,-4.07
376.56,-6.06,-2.01,-6.07,-2.02,2.02,1.80,0.86,-4.04,-4.04,-4.05
380.33,-6.00,-1.98,-6.00,-1.97,1.98,1.76,0.82,-4.03,-4.02,-4.02
384.13,-5.93,-1.93,-5.93,-1.93,1.93,1.73,0.78,-4.01,-4.00,-4.00
387.97,-5.86,-1.88,-5.87,-1.89,1.88,1.69,0.74,-3.99,-3.99,-3.98
391.85,-5.79,-1.83,-5.79,-1.83,1.83,1.65,0.70,-3.97,-3.97,-3.96
395.77,-5.72,-1.79,-5.72,-1.78,1.77,1.61,0.66,-3.95,-3.94,-3.93
399.73,-5.63,-1.72,-5.64,-1.72,1.72,1.57,0.62,-3.91,-3.92,-3.91
403.72,-5.56,-1.66,-5.56,-1.67,1.67,1.53,0.59,-3.89,-3.89,-3.90
407.76,-5.49,-1.61,-5.49,-1.61,1.62,1.49,0.55,-3.87,-3.87,-3.88
411.84,-5.42,-1.57,-5.42,-1.57,1.58,1.45,0.52,-3.85,-3.85,-3.85
415.96,-5.35,-1.52,-5.36,-1.52,1.53,1.40,0.48,-3.82,-3.82,-3.83
420.12,-5.29,-1.48,-5.29,-1.49,1.49,1.36,0.45,-3.80,-3.80,-3.81
424.32,-5.23,-1.45,-5.24,-1.45,1.45,1.31,0.41,-3.78,-3.79,-3.78
428.56,-5.18,-1.42,-5.18,-1.42,1.41,1.26,0.38,-3.77,-3.77,-3.76
432.85,-5.11,-1.37,-5.11,-1.38,1.36,1.21,0.35,-3.75,-3.75,-3.74
437.18,-5.04,-1.33,-5.04,-1.33,1.32,1.16,0.32,-3.73,-3.73,-3.71
