frequency,raw,error,smoothed,error_smoothed,equalization,parametric_eq,fixed_band_eq,equalized_raw,equalized_smoothed,target
20.00,-7.84,-15.63,-7.84,-15.63,15.63,15.61,5.98,7.80,7.79,7.79
20.20,-7.75,-15.52,-7.75,-15.53,15.53,15.52,6.12,7.78,7.78,7.78
20.40,-7.65,-15.42,-7.66,-15.43,15.43,15.44,6.27,7.77,7.77,7.77
20.61,-7.58,-15.34,-7.57,-15.33,15.33,15.35,6.42,7.75,7.75,7.76
20.81,-7.48,-15.22,-7.48,-15.22,15.22,15.26,6.57,7.74,7.74,7.74
21.02,-7.40,-15.12,-7.39,-15.12,15.12,15.17,6.73,7.73,7.73,7.73
21.23,-7.31,-15.02,-7.30,-15.02,15.02,15.07,6.89,7.72,7.72,7.72
21.44,-7.21,-14.94,-7.21,-14.92,14.92,14.98,7.06,7.71,7.71,7.72
21.66,-7.13,-14.83,-7.12,-14.83,14.83,14.88,7.23,7.70,7.70,7.70
21.87,-7.03,-14.74,-7.03,-14.73,14.73,14.79,7.40,7.69,7.69,7.70
22.09,-6.94,-14.63,-6.94,-14.63,14.63,14.69,7.58,7.69,7.69,7.68
22.31,-6.85,-14.53,-6.86,-14.53,14.53,14.59,7.76,7.68,7.68,7.68
22.54,-6.77,-14.44,-6.77,-14.44,14.44,14.50,7.95,7.67,7.67,7.67
22.76,-6.67,-14.34,-6.68,-14.34,14.34,14.40,8.15,7.67,7.67,7.67
22.99,-6.59,-14.24,-6.58,-14.24,14.24,14.30,8.35,7.66,7.66,7.66
23.22,-6.50,-14.14,-6.50,-14.15,14.15,14.20,8.55,7.65,7.66,7.65
23.45,-6.40,-14.06,-6.41,-14.06,14.06,14.11,8.76,7.65,7.65,7.65
23.69,-6.32,-13.96,-6.32,-13.96,13.96,14.01,8.97,7.64,7.64,7.64
23.92,-6.22,-13.86,-6.23,-13.87,13.87,13.91,9.19,7.64,7.64,7.63
24.16,-6.13,-13.77,-6.14,-13.78,13.78,13.82,9.42,7.64,7.64,7.64
24.40,-6.04,-13.68,-6.05,-13.68,13.68,13.72,9.65,7.64,7.63,7.64
24.65,-5.97,-13.60,-5.96,-13.59,13.59,13.62,9.88,7.63,7.63,7.64
24.89,-5.87,-13.51,-5.87,-13.50,13.50,13.53,10.13,7.63,7.63,7.64
25.14,-5.78,-13.41,-5.78,-13.41,13.41,13.44,10.37,7.63,7.63,7.62
25.39,-5.69,-13.32,-5.69,-13.32,13.32,13.34,10.62,7.62,7.63,7.62
25.65,-5.61,-13.23,-5.60,-13.23,13.23,13.25,10.88,7.62,7.62,7.62
25.91,-5.52,-13.14,-5.51,-13.14,13.14,13.16,11.14,7.62,7.62,7.62
26.16,-5.42,-13.05,-5.43,-13.05,13.05,13.06,11.40,7.62,7.62,7.63
26.43,-5.34,-12.96,-5.34,-12.96,12.96,12.97,11.67,7.62,7.62,7.62
26.69,-5.25,-12.87,-5.25,-12.87,12.87,12.88,11.94,7.62,7.62,7.62
26.96,-5.16,-12.78,-5.16,-12.78,12.78,12.79,12.21,7.62,7.62,7.62
27.23,-5.08,-12.69,-5.07,-12.69,12.69,12.70,12.48,7.62,7.62,7.62
27.50,-4.99,-12.60,-4.98,-12.61,12.61,12.62,12.75,7.62,7.62,7.61
27.77,-4.89,-12.52,-4.90,-12.52,12.52,12.53,13.01,7.63,7.62,7.62
28.05,-4.80,-12.42,-4.81,-12.43,12.43,12.44,13.27,7.63,7.62,7.62
28.33,-4.72,-12.35,-4.72,-12.35,12.35,12.35,13.53,7.62,7.62,7.63
28.62,-4.64,-12.26,-4.64,-12.26,12.26,12.27,13.77,7.62,7.62,7.62
28.90,-4.55,-12.19,-4.55,-12.18,12.18,12.18,14.00,7.62,7.62,7.63
29.19,-4.48,-12.10,-4.47,-12.09,12.09,12.09,14.21,7.62,7.62,7.63
29.48,-4.38,-12.01,-4.39,-12.01,12.01,12.01,14.41,7.62,7.62,7.62
29.78,-4.31,-11.93,-4.31,-11.92,11.92,11.93,14.58,7.62,7.62,7.62
30.08,-4.23,-11.84,-4.23,-11.84,11.84,11.84,14.73,7.61,7.61,7.62
30.38,-4.15,-11.75,-4.15,-11.76,11.76,11.76,14.85,7.61,7.61,7.60
30.68,-4.07,-11.67,-4.07,-11.68,11.68,11.67,14.93,7.61,7.60,7.60
30.99,-3.99,-11.58,-4.00,-11.60,11.60,11.59,14.98,7.61,7.60,7.60
31.30,-3.92,-11.51,-3.92,-11.51,11.51,11.51,15.00,7.60,7.59,7.59
31.61,-3.86,-11.44,-3.85,-11.43,11.43,11.42,14.99,7.58,7.58,7.59
31.93,-3.79,-11.35,-3.78,-11.35,11.35,11.34,14.94,7.57,7.58,7.56
32.24,-3.71,-11.28,-3.71,-11.27,11.27,11.26,14.85,7.56,7.57,7.57
32.57,-3.64,-11.19,-3.64,-11.19,11.19,11.17,14.74,7.56,7.56,7.55
32.89,-3.56,-11.11,-3.57,-11.12,11.12,11.09,14.60,7.55,7.55,7.55
33.22,-3.50,-11.04,-3.50,-11.04,11.04,11.01,14.44,7.55,7.54,7.54
33.55,-3.42,-10.96,-3.43,-10.96,10.96,10.93,14.25,7.54,7.54,7.54
33.89,-3.36,-10.88,-3.36,-10.88,10.88,10.84,14.05,7.53,7.53,7.52
34.23,-3.29,-10.79,-3.29,-10.81,10.81,10.76,13.83,7.52,7.52,7.51
34.57,-3.23,-10.73,-3.22,-10.73,10.73,10.68,13.60,7.50,7.51,7.50
34.92,-3.16,-10.64,-3.15,-10.64,10.64,10.59,13.36,7.49,7.50,7.49
35.27,-3.08,-10.58,-3.08,-10.56,10.56,10.51,13.12,7.48,7.48,7.50
35.62,-3.01,-10.48,-3.00,-10.48,10.48,10.42,12.87,7.47,7.47,7.47
35.97,-2.93,-10.40,-2.93,-10.39,10.39,10.34,12.62,7.46,7.46,7.47
36.33,-2.86,-10.31,-2.86,-10.30,10.30,10.26,12.37,7.44,7.44,7.45
36.70,-2.80,-10.22,-2.79,-10.22,10.22,10.17,12.12,7.42,7.42,7.42
37.06,-2.72,-10.13,-2.72,-10.13,10.13,10.08,11.87,7.40,7.40,7.40
37.43,-2.64,-10.03,-2.65,-10.04,10.04,10.00,11.62,7.39,7.39,7.39
37.81,-2.58,-9.94,-2.58,-9.95,9.95,9.91,11.38,7.37,7.36,7.37
38.19,-2.51,-9.84,-2.51,-9.85,9.85,9.82,11.14,7.35,7.34,7.34
38.57,-2.44,-9.75,-2.44,-9.76,9.76,9.74,10.91,7.32,7.32,7.32
38.95,-2.37,-9.67,-2.37,-9.67,9.67,9.65,10.68,7.29,7.30,7.30
39.34,-2.30,-9.57,-2.31,-9.58,9.58,9.56,10.46,7.27,7.27,7.27
39.74,-2.24,-9.48,-2.24,-9.49,9.49,9.47,10.25,7.25,7.25,7.24
40.14,-2.18,-9.40,-2.17,-9.39,9.39,9.38,10.04,7.22,7.22,7.22
40.54,-2.11,-9.30,-2.11,-9.30,9.30,9.29,9.83,7.20,7.20,7.20
40.94,-2.05,-9.21,-2.04,-9.21,9.21,9.20,9.63,7.17,7.17,7.17
41.35,-1.98,-9.12,-1.98,-9.13,9.13,9.11,9.44,7.15,7.15,7.15
41.76,-1.91,-9.03,-1.91,-9.04,9.04,9.02,9.26,7.12,7.12,7.11
42.18,-1.84,-8.95,-1.85,-8.94,8.94,8.92,9.08,7.10,7.10,7.10
42.60,-1.78,-8.85,-1.78,-8.85,8.85,8.83,8.90,7.07,7.07,7.07
43.03,-1.73,-8.77,-1.72,-8.76,8.76,8.73,8.73,7.04,7.04,7.04
43.46,-1.66,-8.67,-1.66,-8.67,8.67,8.64,8.57,7.01,7.01,7.01
43.90,-1.60,-8.58,-1.59,-8.58,8.58,8.54,8.41,6.98,6.99,6.99
44.33,-1.52,-8.48,-1.53,-8.48,8.48,8.45,8.26,6.96,6.95,6.95
44.78,-1.47,-8.39,-1.46,-8.39,8.39,8.35,8.11,6.92,6.92,6.93
45.23,-1.41,-8.31,-1.40,-8.29,8.29,8.25,7.97,6.88,6.89,6.90
45.68,-1.34,-8.19,-1.33,-8.19,8.19,8.16,7.83,6.85,6.85,6.85
46.13,-1.26,-8.08,-1.27,-8.08,8.08,8.06,7.70,6.82,6.81,6.82
46.60,-1.21,-7.98,-1.21,-7.98,7.98,7.96,7.57,6.77,6.77,6.78
47.06,-1.15,-7.88,-1.14,-7.88,7.88,7.86,7.45,6.73,6.73,6.74
47.53,-1.09,-7.78,-1.08,-7.77,7.77,7.76,7.33,6.68,6.69,6.70
48.01,-1.02,-7.66,-1.02,-7.66,7.66,7.66,7.22,6.65,6.64,6.64
48.49,-0.96,-7.55,-0.96,-7.56,7.56,7.56,7.11,6.60,6.60,6.60
48.97,-0.90,-7.44,-0.90,-7.45,7.45,7.45,7.01,6.56,6.55,6.55
49.46,-0.84,-7.34,-0.84,-7.35,7.35,7.35,6.90,6.51,6.51,6.51
49.96,-0.79,-7.23,-0.78,-7.24,7.24,7.25,6.81,6.46,6.46,6.44
50.46,-0.73,-7.13,-0.73,-7.14,7.14,7.15,6.71,6.41,6.41,6.41
50.96,-0.67,-7.03,-0.67,-7.03,7.03,7.04,6.62,6.37,6.37,6.36
51.47,-0.62,-6.93,-0.61,-6.93,6.93,6.94,6.53,6.32,6.32,6.32
51.99,-0.56,-6.82,-0.56,-6.83,6.83,6.83,6.44,6.28,6.27,6.26
52.51,-0.51,-6.73,-0.51,-6.73,6.73,6.73,6.36,6.22,6.22,6.23
53.03,-0.46,-6.64,-0.45,-6.63,6.63,6.62,6.28,6.17,6.18,6.19
53.56,-0.41,-6.55,-0.40,-6.53,6.53,6.52,6.20,6.13,6.13,6.14
54.10,-0.36,-6.44,-0.35,-6.44,6.44,6.41,6.12,6.08,6.09,6.08
54.64,-0.31,-6.35,-0.30,-6.34,6.34,6.31,6.04,6.03,6.04,6.04
55.18,-0.25,-6.23,-0.25,-6.25,6.25,6.20,5.97,6.00,6.00,5.99
55.74,-0.20,-6.13,-0.20,-6.15,6.15,6.09,5.89,5.96,5.95,5.94
56.29,-0.15,-6.05,-0.15,-6.06,6.06,5.99,5.82,5.91,5.91,5.90
56.86,-0.10,-5.95,-0.10,-5.96,5.96,5.88,5.74,5.87,5.86,5.86
57.42,-0.05,-5.86,-0.06,-5.87,5.87,5.77,5.66,5.81,5.81,5.80
58.00,-0.01,-5.76,-0.01,-5.77,5.77,5.66,5.59,5.77,5.76,5.76
58.58,0.03,-5.68,0.04,-5.67,5.67,5.56,5.51,5.71,5.71,5.72
59.16,0.08,-5.60,0.08,-5.57,5.57,5.45,5.43,5.65,5.66,5.68
59.76,0.12,-5.51,0.13,-5.48,5.48,5.34,5.35,5.60,5.61,5.63
60.35,0.17,-5.39,0.18,-5.38,5.38,5.24,5.27,5.55,5.55,5.57
60.96,0.22,-5.28,0.22,-5.27,5.27,5.13,5.19,5.50,5.49,5.51
61.57,0.26,-5.17,0.26,-5.17,5.17,5.02,5.10,5.44,5.44,5.43
62.18,0.30,-5.06,0.31,-5.07,5.07,4.91,5.02,5.37,5.38,5.37
62.80,0.35,-4.95,0.35,-4.96,4.96,4.81,4.93,5.31,5.31,5.30
63.43,0.40,-4.83,0.40,-4.85,4.85,4.70,4.84,5.26,5.25,5.24
64.07,0.44,-4.73,0.44,-4.74,4.74,4.59,4.74,5.19,5.19,5.18
64.71,0.48,-4.63,0.49,-4.64,4.64,4.48,4.65,5.12,5.13,5.12
65.35,0.52,-4.53,0.53,-4.53,4.53,4.38,4.55,5.05,5.06,5.06
66.01,0.57,-4.42,0.58,-4.42,4.42,4.27,4.45,4.99,5.00,5.00
66.67,0.62,-4.32,0.62,-4.31,4.31,4.16,4.35,4.94,4.93,4.94
67.33,0.66,-4.20,0.66,-4.20,4.20,4.06,4.24,4.87,4.87,4.87
68.01,0.71,-4.10,0.71,-4.10,4.10,3.95,4.14,4.81,4.81,4.81
68.69,0.75,-3.99,0.75,-3.99,3.99,3.85,4.03,4.75,4.74,4.74
69.37,0.79,-3.89,0.79,-3.89,3.89,3.74,3.92,4.68,4.68,4.69
70.07,0.83,-3.78,0.83,-3.78,3.78,3.63,3.81,4.61,4.61,4.62
70.77,0.87,-3.67,0.87,-3.67,3.67,3.53,3.70,4.55,4.54,4.54
71.48,0.90,-3.58,0.91,-3.57,3.57,3.42,3.58,4.47,4.48,4.48
72.19,0.94,-3.46,0.95,-3.46,3.46,3.32,3.47,4.40,4.41,4.41
72.91,0.98,-3.35,0.99,-3.36,3.36,3.22,3.36,4.34,4.34,4.33
73.64,1.01,-3.25,1.02,-3.25,3.25,3.11,3.24,4.27,4.28,4.27
74.38,1.05,-3.15,1.06,-3.15,3.15,3.01,3.13,4.20,4.21,4.20
75.12,1.10,-3.04,1.10,-3.05,3.05,2.90,3.01,4.15,4.14,4.14
75.87,1.13,-2.95,1.13,-2.95,2.95,2.80,2.90,4.08,4.08,4.08
76.63,1.17,-2.83,1.17,-2.85,2.85,2.70,2.78,4.02,4.02,4.01
77.40,1.21,-2.74,1.21,-2.75,2.75,2.60,2.67,3.96,3.95,3.96
78.17,1.24,-2.64,1.24,-2.65,2.65,2.49,2.55,3.89,3.89,3.88
78.95,1.27,-2.56,1.28,-2.55,2.55,2.39,2.44,3.83,3.83,3.84
79.74,1.31,-2.46,1.32,-2.45,2.45,2.29,2.32,3.77,3.77,3.77
80.54,1.35,-2.36,1.35,-2.35,2.35,2.19,2.21,3.71,3.71,3.71
81.35,1.38,-2.26,1.39,-2.25,2.25,2.09,2.10,3.64,3.65,3.65
82.16,1.42,-2.17,1.43,-2.15,2.15,1.99,1.99,3.58,3.59,3.60
82.98,1.46,-2.06,1.47,-2.05,2.05,1.89,1.87,3.52,3.52,3.52
83.81,1.49,-1.97,1.50,-1.96,1.96,1.79,1.76,3.45,3.46,3.46
84.65,1.53,-1.86,1.54,-1.86,1.86,1.69,1.65,3.39,3.39,3.39
85.50,1.56,-1.76,1.57,-1.76,1.76,1.59,1.54,3.32,3.33,3.33
86.35,1.61,-1.65,1.60,-1.66,1.66,1.49,1.43,3.27,3.26,3.26
87.22,1.65,-1.54,1.64,-1.56,1.56,1.40,1.32,3.22,3.20,3.19
88.09,1.68,-1.44,1.67,-1.46,1.46,1.30,1.22,3.15,3.13,3.13
88.97,1.71,-1.35,1.69,-1.37,1.37,1.20,1.11,3.08,3.06,3.06
89.86,1.73,-1.26,1.72,-1.27,1.27,1.10,1.00,3.00,2.99,2.99
90.76,1.74,-1.18,1.75,-1.17,1.17,1.01,0.89,2.91,2.92,2.92
91.66,1.75,-1.09,1.78,-1.07,1.07,0.91,0.79,2.83,2.85,2.84
92.58,1.78,-1.00,1.80,-0.97,0.97,0.82,0.68,2.76,2.78,2.78
93.51,1.82,-0.89,1.83,-0.87,0.87,0.72,0.58,2.70,2.70,2.71
94.44,1.84,-0.79,1.86,-0.77,0.77,0.63,0.47,2.62,2.63,2.64
95.39,1.87,-0.68,1.88,-0.67,0.67,0.54,0.37,2.55,2.56,2.56
96.34,1.90,-0.58,1.91,-0.57,0.57,0.44,0.26,2.48,2.48,2.48
97.30,1.93,-0.47,1.93,-0.47,0.47,0.35,0.16,2.41,2.41,2.41
98.28,1.96,-0.36,1.96,-0.37,0.37,0.26,0.06,2.34,2.33,2.33
99.26,1.98,-0.27,1.99,-0.27,0.27,0.16,-0.05,2.26,2.26,2.25
100.25,2.01,-0.16,2.02,-0.17,0.17,0.07,-0.15,2.19,2.19,2.18
101.25,2.05,-0.06,2.04,-0.08,0.08,-0.02,-0.25,2.13,2.12,2.11
102.27,2.07,0.03,2.06,0.02,-0.02,-0.11,-0.35,2.06,2.05,2.05
103.29,2.09,0.12,2.08,0.11,-0.11,-0.20,-0.45,1.99,1.98,1.97
104.32,2.11,0.21,2.10,0.20,-0.20,-0.29,-0.55,1.92,1.91,1.91
105.37,2.13,0.29,2.12,0.28,-0.28,-0.38,-0.65,1.85,1.84,1.84
106.42,2.14,0.37,2.14,0.37,-0.37,-0.47,-0.74,1.77,1.77,1.77
107.48,2.15,0.46,2.16,0.46,-0.46,-0.56,-0.84,1.70,1.70,1.70
108.56,2.17,0.54,2.17,0.54,-0.54,-0.64,-0.93,1.63,1.63,1.63
109.64,2.18,0.62,2.19,0.63,-0.63,-0.73,-1.02,1.55,1.56,1.57
110.74,2.19,0.70,2.21,0.72,-0.72,-0.82,-1.11,1.47,1.49,1.49
111.85,2.21,0.80,2.23,0.82,-0.82,-0.90,-1.20,1.40,1.42,1.42
112.97,2.23,0.88,2.26,0.91,-0.91,-0.99,-1.29,1.32,1.35,1.35
114.10,2.27,0.99,2.28,1.01,-1.01,-1.08,-1.37,1.27,1.27,1.28
115.24,2.30,1.11,2.31,1.11,-1.11,-1.16,-1.45,1.20,1.20,1.20
116.39,2.32,1.20,2.34,1.21,-1.21,-1.25,-1.53,1.12,1.13,1.12
117.55,2.35,1.30,2.37,1.30,-1.30,-1.33,-1.61,1.05,1.06,1.05
118.73,2.39,1.42,2.39,1.40,-1.40,-1.41,-1.68,1.00,0.99,0.98
119.92,2.43,1.52,2.42,1.49,-1.49,-1.50,-1.75,0.94,0.92,0.92
121.12,2.46,1.61,2.44,1.58,-1.58,-1.58,-1.82,0.88,0.85,0.86
122.33,2.47,1.69,2.46,1.67,-1.67,-1.66,-1.89,0.80,0.79,0.79
123.55,2.49,1.77,2.47,1.76,-1.76,-1.74,-1.95,0.74,0.72,0.73
124.79,2.50,1.85,2.49,1.84,-1.84,-1.82,-2.01,0.67,0.65,0.66
126.03,2.51,1.92,2.50,1.91,-1.91,-1.90,-2.06,0.60,0.58,0.59
127.29,2.50,1.98,2.50,1.99,-1.99,-1.98,-2.12,0.52,0.52,0.52
128.57,2.49,2.05,2.50,2.06,-2.06,-2.06,-2.17,0.44,0.45,0.45
129.85,2.49,2.11,2.50,2.12,-2.12,-2.14,-2.21,0.37,0.38,0.38
131.15,2.48,2.18,2.50,2.19,-2.19,-2.22,-2.26,0.30,0.31,0.31
132.46,2.48,2.24,2.49,2.25,-2.25,-2.30,-2.30,0.24,0.25,0.24
133.79,2.48,2.31,2.48,2.31,-2.31,-2.37,-2.34,0.18,0.18,0.17
135.12,2.48,2.37,2.48,2.37,-2.37,-2.45,-2.38,0.12,0.11,0.11
136.48,2.48,2.43,2.47,2.43,-2.43,-2.53,-2.41,0.06,0.05,0.05
137.84,2.48,2.50,2.47,2.49,-2.49,-2.60,-2.45,-0.00,-0.02,-0.02
139.22,2.47,2.56,2.47,2.55,-2.55,-2.68,-2.48,-0.08,-0.08,-0.09
140.61,2.46,2.61,2.47,2.61,-2.61,-2.75,-2.51,-0.15,-0.14,-0.14
142.02,2.46,2.67,2.48,2.68,-2.68,-2.82,-2.54,-0.22,-0.20,-0.21
143.44,2.47,2.74,2.49,2.75,-2.75,-2.90,-2.57,-0.28,-0.26,-0.26
144.87,2.48,2.80,2.50,2.82,-2.82,-2.97,-2.60,-0.34,-0.32,-0.31
146.32,2.50,2.88,2.52,2.90,-2.90,-3.04,-2.63,-0.39,-0.37,-0.38
147.78,2.53,2.96,2.54,2.97,-2.97,-3.11,-2.66,-0.44,-0.43,-0.43
149.26,2.55,3.04,2.57,3.05,-3.05,-3.18,-2.70,-0.50,-0.48,-0.49
150.75,2.58,3.13,2.60,3.14,-3.14,-3.25,-2.73,-0.55,-0.54,-0.54
152.26,2.62,3.22,2.63,3.22,-3.22,-3.32,-2.76,-0.60,-0.59,-0.59
153.78,2.65,3.30,2.66,3.31,-3.31,-3.39,-2.80,-0.65,-0.65,-0.65
155.32,2.68,3.38,2.69,3.39,-3.39,-3.46,-2.83,-0.71,-0.70,-0.70
156.88,2.73,3.49,2.72,3.48,-3.48,-3.52,-2.87,-0.74,-0.76,-0.75
158.44,2.75,3.57,2.74,3.56,-3.56,-3.59,-2.91,-0.80,-0.81,-0.81
160.03,2.78,3.65,2.77,3.64,-3.64,-3.65,-2.95,-0.85,-0.87,-0.86
161.63,2.80,3.73,2.79,3.71,-3.71,-3.72,-2.99,-0.91,-0.92,-0.92
163.24,2.82,3.81,2.80,3.78,-3.78,-3.78,-3.04,-0.96,-0.98,-0.98
164.88,2.83,3.87,2.81,3.85,-3.85,-3.85,-3.08,-1.02,-1.04,-1.04
166.53,2.83,3.94,2.82,3.92,-3.92,-3.91,-3.13,-1.08,-1.09,-1.10
168.19,2.82,3.97,2.83,3.98,-3.98,-3.97,-3.18,-1.15,-1.15,-1.15
169.87,2.82,4.03,2.83,4.04,-4.04,-4.03,-3.24,-1.21,-1.21,-1.21
171.57,2.81,4.08,2.83,4.10,-4.10,-4.09,-3.30,-1.28,-1.27,-1.27
173.29,2.81,4.13,2.83,4.15,-4.15,-4.15,-3.36,-1.34,-1.32,-1.32
175.02,2.81,4.19,2.82,4.20,-4.20,-4.21,-3.42,-1.39,-1.38,-1.38
176.77,2.81,4.25,2.82,4.26,-4.26,-4.26,-3.49,-1.44,-1.44,-1.43
178.54,2.81,4.31,2.82,4.31,-4.31,-4.32,-3.55,-1.50,-1.49,-1.49
180.32,2.81,4.37,2.82,4.36,-4.36,-4.38,-3.62,-1.55,-1.55,-1.56
182.13,2.81,4.41,2.81,4.42,-4.42,-4.43,-3.70,-1.60,-1.60,-1.60
183.95,2.81,4.47,2.81,4.47,-4.47,-4.48,-3.78,-1.66,-1.66,-1.65
185.79,2.81,4.53,2.81,4.52,-4.52,-4.54,-3.86,-1.71,-1.71,-1.71
187.65,2.81,4.58,2.81,4.58,-4.58,-4.59,-3.94,-1.76,-1.76,-1.76
189.52,2.81,4.63,2.81,4.63,-4.63,-4.64,-4.02,-1.81,-1.81,-1.81
191.42,2.81,4.68,2.81,4.68,-4.68,-4.69,-4.11,-1.86,-1.86,-1.86
193.33,2.81,4.72,2.81,4.73,-4.73,-4.74,-4.20,-1.91,-1.91,-1.91
195.27,2.81,4.78,2.81,4.77,-4.77,-4.78,-4.29,-1.96,-1.96,-1.96
197.22,2.81,4.83,2.81,4.82,-4.82,-4.83,-4.39,-2.01,-2.01,-2.02
199.19,2.81,4.87,2.81,4.86,-4.86,-4.87,-4.48,-2.05,-2.05,-2.05
201.18,2.81,4.92,2.81,4.91,-4.91,-4.92,-4.58,-2.09,-2.09,-2.10
203.19,2.81,4.95,2.81,4.95,-4.95,-4.96,-4.68,-2.13,-2.13,-2.14
205.23,2.81,4.98,2.81,4.99,-4.99,-5.00,-4.78,-2.17,-2.17,-2.17
207.28,2.81,5.02,2.81,5.03,-5.03,-5.04,-4.88,-2.21,-2.21,-2.21
209.35,2.81,5.06,2.81,5.06,-5.06,-5.08,-4.98,-2.25,-2.25,-2.25
211.44,2.81,5.10,2.81,5.10,-5.10,-5.12,-5.08,-2.28,-2.28,-2.28
213.56,2.81,5.13,2.81,5.13,-5.13,-5.16,-5.18,-2.32,-2.32,-2.31
215.69,2.81,5.16,2.81,5.17,-5.17,-5.20,-5.28,-2.35,-2.35,-2.35
217.85,2.81,5.20,2.81,5.20,-5.20,-5.23,-5.38,-2.38,-2.38,-2.38
220.03,2.81,5.23,2.81,5.23,-5.23,-5.27,-5.47,-2.41,-2.41,-2.42
222.23,2.81,5.27,2.81,5.26,-5.26,-5.30,-5.57,-2.44,-2.44,-2.45
224.45,2.81,5.29,2.81,5.29,-5.29,-5.33,-5.66,-2.47,-2.47,-2.47
226.70,2.81,5.32,2.81,5.31,-5.31,-5.36,-5.74,-2.50,-2.50,-2.51
228.96,2.81,5.33,2.81,5.34,-5.34,-5.39,-5.82,-2.52,-2.52,-2.52
231.25,2.81,5.36,2.81,5.36,-5.36,-5.42,-5.90,-2.55,-2.55,-2.55
233.57,2.81,5.38,2.81,5.38,-5.38,-5.44,-5.97,-2.57,-2.57,-2.57
235.90,2.81,5.40,2.81,5.40,-5.40,-5.47,-6.03,-2.59,-2.59,-2.59
238.26,2.81,5.43,2.81,5.42,-5.42,-5.49,-6.09,-2.60,-2.60,-2.62
240.64,2.81,5.43,2.81,5.43,-5.43,-5.52,-6.14,-2.62,-2.62,-2.61
243.05,2.81,5.45,2.81,5.45,-5.45,-5.54,-6.18,-2.63,-2.63,-2.63
245.48,2.81,5.46,2.81,5.46,-5.46,-5.56,-6.21,-2.64,-2.64,-2.65
247.93,2.81,5.48,2.81,5.47,-5.47,-5.58,-6.24,-2.65,-2.65,-2.67
250.41,2.81,5.48,2.81,5.48,-5.48,-5.60,-6.26,-2.66,-2.66,-2.66
252.92,2.81,5.48,2.81,5.49,-5.49,-5.61,-6.26,-2.67,-2.67,-2.67
255.45,2.81,5.50,2.81,5.49,-5.49,-5.63,-6.26,-2.68,-2.68,-2.68
258.00,2.81,5.50,2.81,5.50,-5.50,-5.64,-6.26,-2.69,-2.69,-2.69
260.58,2.81,5.50,2.81,5.51,-5.51,-5.65,-6.24,-2.69,-2.69,-2.69
263.19,2.81,5.51,2.81,5.51,-5.51,-5.66,-6.22,-2.70,-2.70,-2.69
265.82,2.81,5.52,2.81,5.52,-5.52,-5.67,-6.19,-2.71,-2.71,-2.70
268.48,2.81,5.52,2.81,5.53,-5.53,-5.68,-6.15,-2.71,-2.71,-2.71
271.16,2.81,5.52,2.81,5.53,-5.53,-5.69,-6.11,-2.72,-2.72,-2.71
273.87,2.81,5.53,2.81,5.53,-5.53,-5.70,-6.06,-2.72,-2.72,-2.72
276.61,2.81,5.54,2.81,5.54,-5.54,-5.70,-6.01,-2.72,-2.72,-2.72
279.38,2.81,5.56,2.81,5.54,-5.54,-5.70,-5.95,-2.73,-2.73,-2.74
282.17,2.81,5.56,2.81,5.55,-5.55,-5.71,-5.89,-2.73,-2.73,-2.74
284.99,2.81,5.55,2.81,5.55,-5.55,-5.71,-5.83,-2.73,-2.73,-2.73
287.84,2.81,5.55,2.81,5.55,-5.55,-5.71,-5.76,-2.73,-2.73,-2.73
290.72,2.81,5.55,2.81,5.55,-5.55,-5.71,-5.69,-2.73,-2.73,-2.74
293.63,2.81,5.54,2.81,5.55,-5.55,-5.70,-5.63,-2.73,-2.73,-2.73
296.57,2.81,5.54,2.81,5.54,-5.54,-5.70,-5.56,-2.73,-2.73,-2.73
299.53,2.81,5.54,2.81,5.54,-5.54,-5.69,-5.49,-2.72,-2.73,-2.73
302.53,2.81,5.53,2.81,5.53,-5.53,-5.69,-5.42,-2.72,-2.72,-2.71
305.55,2.81,5.54,2.81,5.53,-5.53,-5.68,-5.35,-2.72,-2.72,-2.72
308.61,2.81,5.52,2.82,5.53,-5.53,-5.67,-5.29,-2.71,-2.71,-2.71
311.69,2.81,5.52,2.82,5.52,-5.52,-5.66,-5.22,-2.71,-2.71,-2.71
314.81,2.81,5.52,2.82,5.52,-5.52,-5.65,-5.16,-2.71,-2.70,-2.70
317.96,2.81,5.51,2.82,5.52,-5.52,-5.64,-5.10,-2.70,-2.70,-2.70
321.14,2.81,5.50,2.83,5.52,-5.52,-5.63,-5.04,-2.70,-2.69,-2.68
324.35,2.81,5.51,2.83,5.51,-5.51,-5.61,-4.99,-2.70,-2.68,-2.69
327.59,2.82,5.49,2.83,5.51,-5.51,-5.60,-4.94,-2.68,-2.68,-2.67
330.87,2.82,5.50,2.83,5.50,-5.50,-5.58,-4.89,-2.67,-2.67,-2.67
334.18,2.83,5.50,2.82,5.49,-5.49,-5.56,-4.84,-2.65,-2.67,-2.67
337.52,2.83,5.50,2.82,5.48,-5.48,-5.54,-4.80,-2.64,-2.66,-2.66
340.90,2.82,5.47,2.81,5.46,-5.46,-5.53,-4.76,-2.63,-2.65,-2.65
344.30,2.80,5.45,2.79,5.44,-5.44,-5.50,-4.73,-2.63,-2.65,-2.64
347.75,2.79,5.43,2.77,5.41,-5.41,-5.48,-4.70,-2.62,-2.64,-2.64
351.23,2.77,5.42,2.75,5.38,-5.38,-5.46,-4.67,-2.61,-2.63,-2.64
354.74,2.73,5.35,2.73,5.35,-5.35,-5.44,-4.64,-2.62,-2.62,-2.62
358.28,2.70,5.32,2.70,5.32,-5.32,-5.41,-4.62,-2.61,-2.62,-2.62
361.87,2.67,5.29,2.67,5.28,-5.28,-5.39,-4.61,-2.61,-2.61,-2.61
365.49,2.63,5.24,2.64,5.24,-5.24,-5.36,-4.59,-2.61,-2.61,-2.61
369.14,2.60,5.20,2.61,5.20,-5.20,-5.34,-4.58,-2.60,-2.60,-2.59
372.83,2.57,5.16,2.58,5.17,-5.17,-5.31,-4.58,-2.59,-2.59,-2.58
376.56,2.53,5.12,2.55,5.13,-5.13,-5.28,-4.57,-2.60,-2.58,-2.59
380.33,2.51,5.10,2.53,5.10,-5.10,-5.25,-4.57,-2.59,-2.57,-2.58
384.13,2.48,5.05,2.51,5.08,-5.08,-5.22,-4.58,-2.59,-2.57,-2.56
387.97,2.47,5.03,2.50,5.05,-5.05,-5.19,-4.58,-2.58,-2.56,-2.56
391.85,2.46,5.01,2.49,5.04,-5.04,-5.16,-4.59,-2.57,-2.55,-2.55
395.77,2.46,5.01,2.49,5.02,-5.02,-5.13,-4.60,-2.56,-2.54,-2.54
399.73,2.47,5.01,2.48,5.01,-5.01,-5.10,-4.62,-2.54,-2.53,-2.54
403.72,2.48,4.99,2.49,5.01,-5.01,-5.06,-4.63,-2.52,-2.52,-2.51
407.76,2.48,5.00,2.49,5.00,-5.00,-5.03,-4.65,-2.52,-2.51,-2.51
411.84,2.49,5.00,2.49,4.99,-4.99,-5.00,-4.67,-2.50,-2.50,-2.50
415.96,2.50,4.99,2.49,4.99,-4.99,-4.96,-4.69,-2.48,-2.49,-2.49
420.12,2.51,5.00,2.49,4.98,-4.98,-4.93,-4.72,-2.46,-2.48,-2.49
424.32,2.51,4.99,2.49,4.97,-4.97,-4.89,-4.74,-2.45,-2.48,-2.48
428.56,2.50,4.97,2.48,4.95,-4.95,-4.85,-4.76,-2.45,-2.47,-2.46
432.85,2.49,4.95,2.47,4.93,-4.93,-4.82,-4.79,-2.44,-2.46,-2.45
437.18,2.46,4.92,2.45,4.91,-4.91,-4.78,-4.81,-2.44,-2.45,-2.46
441.55,2.44,4.89,2.43,4.87,-4.87,-4.74,-4.84,-2.43,-2.44,-2.45
445.96,2.41,4.85,2.41,4.84,-4.84,-4.70,-4.86,-2.43,-2.43,-2.44
450.42,2.37,4.81,2.38,4.81,-4.81,-4.67,-4.88,-2.43,-2.43,-2.43
454.93,2.35,4.78,2.35,4.77,-4.77,-4.63,-4.90,-2.41,-2.42,-2.42
459.48,2.31,4.73,2.32,4.73,-4.73,-4.59,-4.91,-2.42,-2.41,-2.41
464.07,2.28,4.68,2.29,4.69,-4.69,-4.55,-4.92,-2.41,-2.40,-2.40
468.71,2.25,4.64,2.27,4.66,-4.66,-4.51,-4.93,-2.40,-2.39,-2.39
473.40,2.21,4.59,2.24,4.62,-4.62,-4.47,-4.94,-2.41,-2.38,-2.38
478.13,2.19,4.56,2.22,4.59,-4.59,-4.43,-4.94,-2.40,-2.37,-2.37
482.91,2.17,4.54,2.20,4.56,-4.56,-4.39,-4.94,-2.39,-2.36,-2.36
