frequency,raw,error,smoothed,error_smoothed,equalization,parametric_eq,fixed_band_eq,equalized_raw,equalized_smoothed,target
20.00,2.27,-3.89,2.27,-3.89,3.89,2.87,1.57,6.16,6.16,6.16
20.20,2.32,-3.83,2.32,-3.83,3.83,2.91,1.62,6.15,6.15,6.15
20.40,2.37,-3.77,2.37,-3.77,3.77,2.94,1.67,6.14,6.14,6.14
20.61,2.41,-3.72,2.41,-3.72,3.72,2.98,1.71,6.13,6.13,6.13
20.81,2.45,-3.66,2.45,-3.66,3.67,3.01,1.76,6.12,6.12,6.11
21.02,2.49,-3.61,2.49,-3.62,3.62,3.04,1.82,6.11,6.11,6.10
21.23,2.52,-3.57,2.52,-3.58,3.58,3.07,1.87,6.10,6.10,6.09
21.44,2.55,-3.55,2.55,-3.54,3.54,3.11,1.92,6.09,6.09,6.10
21.66,2.58,-3.50,2.58,-3.51,3.50,3.14,1.98,6.08,6.08,6.08
21.87,2.60,-3.48,2.60,-3.48,3.47,3.17,2.04,6.07,6.07,6.08
22.09,2.62,-3.44,2.62,-3.44,3.44,3.20,2.10,6.06,6.07,6.06
22.31,2.64,-3.41,2.64,-3.42,3.42,3.23,2.16,6.06,6.06,6.05
22.54,2.65,-3.39,2.65,-3.40,3.41,3.26,2.22,6.06,6.05,6.04
22.76,2.65,-3.39,2.65,-3.39,3.40,3.29,2.28,6.04,6.05,6.04
22.99,2.65,-3.38,2.65,-3.39,3.39,3.32,2.35,6.04,6.03,6.03
23.22,2.64,-3.38,2.64,-3.39,3.39,3.34,2.42,6.02,6.02,6.02
23.45,2.63,-3.40,2.63,-3.39,3.39,3.37,2.49,6.01,6.02,6.03
23.69,2.63,-3.39,2.63,-3.39,3.39,3.39,2.56,6.02,6.02,6.02
23.92,2.63,-3.38,2.63,-3.39,3.39,3.42,2.63,6.02,6.02,6.01
24.16,2.63,-3.39,2.63,-3.39,3.39,3.44,2.70,6.02,6.02,6.02
24.40,2.63,-3.39,2.63,-3.39,3.39,3.46,2.77,6.02,6.02,6.02
24.65,2.63,-3.38,2.63,-3.39,3.38,3.49,2.85,6.01,6.01,6.01
24.89,2.63,-3.38,2.63,-3.38,3.38,3.51,2.92,6.01,6.01,6.01
25.14,2.63,-3.37,2.63,-3.37,3.38,3.52,3.00,6.01,6.01,6.00
25.39,2.63,-3.37,2.63,-3.37,3.38,3.54,3.08,6.01,6.01,6.00
25.65,2.63,-3.37,2.63,-3.37,3.37,3.56,3.15,6.00,6.00,6.00
25.91,2.63,-3.37,2.63,-3.38,3.37,3.57,3.23,6.00,6.00,6.00
26.16,2.63,-3.38,2.63,-3.38,3.37,3.59,3.30,6.00,6.00,6.01
26.43,2.63,-3.37,2.63,-3.38,3.37,3.60,3.38,6.00,6.00,6.00
26.69,2.63,-3.37,2.63,-3.37,3.37,3.61,3.45,6.00,6.00,6.00
26.96,2.63,-3.37,2.63,-3.37,3.37,3.62,3.53,6.00,6.00,6.00
27.23,2.63,-3.37,2.63,-3.37,3.37,3.63,3.60,6.00,6.00,6.00
27.50,2.63,-3.37,2.63,-3.37,3.38,3.64,3.67,6.00,6.00,6.00
27.77,2.63,-3.38,2.63,-3.38,3.38,3.64,3.74,6.01,6.01,6.01
28.05,2.63,-3.37,2.63,-3.38,3.38,3.65,3.80,6.01,6.01,6.00
28.33,2.63,-3.38,2.63,-3.38,3.38,3.65,3.86,6.01,6.01,6.01
28.62,2.63,-3.38,2.63,-3.39,3.38,3.65,3.92,6.01,6.01,6.01
28.90,2.63,-3.39,2.63,-3.39,3.39,3.65,3.97,6.01,6.01,6.02
29.19,2.63,-3.39,2.63,-3.39,3.39,3.65,4.02,6.01,6.01,6.02
29.48,2.63,-3.38,2.63,-3.39,3.38,3.65,4.06,6.01,6.01,6.01
29.78,2.63,-3.38,2.63,-3.38,3.38,3.64,4.10,6.01,6.01,6.01
30.08,2.63,-3.38,2.63,-3.38,3.38,3.64,4.13,6.01,6.01,6.01
30.38,2.63,-3.36,2.63,-3.37,3.37,3.63,4.16,6.00,6.00,5.99
30.68,2.63,-3.36,2.63,-3.36,3.37,3.62,4.18,6.00,6.00,5.99
30.99,2.63,-3.36,2.63,-3.36,3.36,3.61,4.19,5.99,5.99,5.99
31.30,2.63,-3.36,2.63,-3.36,3.35,3.60,4.20,5.98,5.98,5.99
31.61,2.63,-3.35,2.63,-3.35,3.35,3.59,4.20,5.98,5.98,5.98
31.93,2.63,-3.33,2.63,-3.34,3.34,3.57,4.20,5.97,5.97,5.96
32.24,2.63,-3.34,2.63,-3.33,3.34,3.56,4.19,5.97,5.97,5.97
32.57,2.63,-3.32,2.63,-3.33,3.33,3.54,4.17,5.96,5.96,5.95
32.89,2.63,-3.32,2.63,-3.32,3.32,3.52,4.15,5.95,5.95,5.95
33.22,2.63,-3.31,2.63,-3.32,3.31,3.51,4.13,5.94,5.94,5.94
33.55,2.63,-3.31,2.63,-3.31,3.31,3.49,4.09,5.93,5.93,5.94
33.89,2.63,-3.30,2.63,-3.30,3.30,3.46,4.06,5.93,5.93,5.93
34.23,2.63,-3.28,2.63,-3.29,3.29,3.44,4.02,5.92,5.92,5.91
34.57,2.63,-3.28,2.63,-3.28,3.28,3.42,3.98,5.91,5.91,5.91
34.92,2.63,-3.26,2.63,-3.27,3.28,3.39,3.93,5.91,5.91,5.89
35.27,2.63,-3.28,2.63,-3.27,3.27,3.37,3.88,5.90,5.90,5.91
35.62,2.63,-3.25,2.63,-3.26,3.26,3.34,3.83,5.88,5.88,5.88
35.97,2.63,-3.25,2.63,-3.25,3.24,3.31,3.77,5.87,5.87,5.88
36.33,2.63,-3.23,2.63,-3.23,3.23,3.29,3.72,5.86,5.86,5.86
36.70,2.63,-3.21,2.63,-3.21,3.21,3.26,3.66,5.84,5.84,5.84
37.06,2.63,-3.19,2.63,-3.19,3.20,3.23,3.60,5.83,5.83,5.82
37.43,2.63,-3.17,2.63,-3.18,3.18,3.20,3.55,5.81,5.81,5.80
37.81,2.63,-3.16,2.63,-3.15,3.16,3.16,3.49,5.79,5.79,5.79
38.19,2.63,-3.13,2.63,-3.14,3.14,3.13,3.43,5.77,5.77,5.76
38.57,2.63,-3.11,2.63,-3.12,3.12,3.10,3.38,5.74,5.74,5.74
38.95,2.63,-3.10,2.63,-3.09,3.09,3.07,3.32,5.72,5.72,5.73
39.34,2.63,-3.07,2.63,-3.07,3.07,3.03,3.26,5.70,5.70,5.70
39.74,2.63,-3.04,2.63,-3.05,3.04,3.00,3.21,5.67,5.67,5.67
40.14,2.63,-3.02,2.63,-3.02,3.02,2.96,3.16,5.64,5.65,5.65
40.54,2.64,-2.99,2.64,-2.99,2.99,2.93,3.11,5.63,5.63,5.63
40.94,2.65,-2.95,2.65,-2.96,2.96,2.89,3.06,5.61,5.61,5.60
41.35,2.65,-2.94,2.65,-2.94,2.94,2.86,3.01,5.59,5.59,5.59
41.76,2.65,-2.91,2.65,-2.92,2.92,2.82,2.96,5.57,5.57,5.56
42.18,2.65,-2.90,2.64,-2.90,2.90,2.79,2.92,5.55,5.55,5.55
42.60,2.63,-2.89,2.63,-2.89,2.89,2.75,2.88,5.52,5.52,5.52
43.03,2.61,-2.89,2.61,-2.89,2.88,2.71,2.84,5.49,5.50,5.50
43.46,2.59,-2.87,2.59,-2.88,2.88,2.68,2.80,5.47,5.47,5.46
43.90,2.57,-2.87,2.57,-2.87,2.88,2.64,2.77,5.45,5.45,5.44
44.33,2.54,-2.87,2.54,-2.88,2.88,2.60,2.73,5.42,5.42,5.41
44.78,2.51,-2.88,2.51,-2.88,2.88,2.57,2.70,5.39,5.39,5.39
45.23,2.48,-2.89,2.48,-2.89,2.88,2.53,2.68,5.36,5.36,5.37
45.68,2.44,-2.88,2.44,-2.89,2.88,2.49,2.65,5.32,5.32,5.32
46.13,2.41,-2.88,2.41,-2.88,2.88,2.46,2.63,5.29,5.29,5.29
46.60,2.38,-2.87,2.38,-2.87,2.87,2.42,2.60,5.25,5.25,5.25
47.06,2.36,-2.86,2.36,-2.86,2.85,2.38,2.58,5.21,5.21,5.22
47.53,2.34,-2.84,2.34,-2.84,2.83,2.35,2.57,5.17,5.17,5.18
48.01,2.33,-2.80,2.33,-2.81,2.80,2.31,2.55,5.13,5.13,5.13
48.49,2.32,-2.77,2.32,-2.77,2.77,2.27,2.53,5.09,5.09,5.09
48.97,2.31,-2.73,2.31,-2.74,2.74,2.24,2.52,5.05,5.05,5.04
49.46,2.30,-2.71,2.30,-2.71,2.71,2.20,2.51,5.01,5.01,5.01
49.96,2.28,-2.67,2.28,-2.68,2.68,2.16,2.50,4.96,4.96,4.95
50.46,2.27,-2.65,2.27,-2.65,2.65,2.13,2.49,4.92,4.92,4.92
50.96,2.26,-2.62,2.25,-2.62,2.63,2.09,2.49,4.89,4.88,4.88
51.47,2.24,-2.60,2.24,-2.60,2.61,2.06,2.48,4.85,4.84,4.84
51.99,2.21,-2.58,2.21,-2.59,2.59,2.02,2.48,4.80,4.80,4.79
52.51,2.19,-2.57,2.19,-2.58,2.57,1.99,2.47,4.76,4.76,4.76
53.03,2.16,-2.57,2.16,-2.56,2.55,1.95,2.47,4.71,4.72,4.73
53.56,2.14,-2.54,2.14,-2.54,2.54,1.92,2.47,4.68,4.68,4.68
54.10,2.11,-2.52,2.11,-2.53,2.54,1.88,2.46,4.64,4.64,4.63
54.64,2.07,-2.52,2.07,-2.52,2.53,1.85,2.46,4.60,4.60,4.59
55.18,2.03,-2.52,2.03,-2.52,2.53,1.82,2.46,4.56,4.56,4.55
55.74,1.99,-2.51,1.99,-2.52,2.53,1.78,2.46,4.51,4.51,4.50
56.29,1.95,-2.53,1.95,-2.53,2.52,1.75,2.45,4.47,4.47,4.48
56.86,1.91,-2.53,1.91,-2.53,2.53,1.72,2.45,4.43,4.43,4.44
57.42,1.87,-2.52,1.87,-2.53,2.52,1.68,2.44,4.39,4.39,4.39
58.00,1.83,-2.52,1.83,-2.52,2.52,1.65,2.43,4.35,4.36,4.35
58.58,1.81,-2.51,1.80,-2.52,2.51,1.62,2.43,4.32,4.32,4.32
59.16,1.78,-2.51,1.78,-2.50,2.50,1.59,2.42,4.28,4.28,4.29
59.76,1.76,-2.48,1.76,-2.48,2.48,1.56,2.41,4.24,4.24,4.24
60.35,1.74,-2.45,1.73,-2.46,2.45,1.53,2.39,4.19,4.19,4.19
60.96,1.71,-2.42,1.71,-2.42,2.43,1.50,2.38,4.13,4.13,4.13
61.57,1.68,-2.39,1.68,-2.39,2.39,1.47,2.36,4.07,4.07,4.07
62.18,1.66,-2.35,1.66,-2.35,2.35,1.44,2.34,4.01,4.01,4.01
62.80,1.65,-2.30,1.65,-2.31,2.31,1.41,2.32,3.96,3.95,3.95
63.43,1.64,-2.26,1.64,-2.26,2.26,1.38,2.29,3.90,3.90,3.90
64.07,1.63,-2.22,1.63,-2.22,2.21,1.35,2.26,3.84,3.85,3.85
64.71,1.64,-2.16,1.63,-2.16,2.16,1.32,2.24,3.80,3.79,3.80
65.35,1.64,-2.10,1.64,-2.11,2.10,1.29,2.20,3.74,3.75,3.74
66.01,1.65,-2.04,1.65,-2.04,2.05,1.26,2.17,3.70,3.70,3.69
66.67,1.66,-1.99,1.66,-1.99,1.99,1.24,2.14,3.65,3.65,3.65
67.33,1.66,-1.92,1.66,-1.93,1.94,1.21,2.10,3.60,3.60,3.58
68.01,1.66,-1.87,1.66,-1.87,1.88,1.18,2.06,3.54,3.54,3.53
68.69,1.66,-1.82,1.66,-1.82,1.82,1.16,2.02,3.48,3.48,3.48
69.37,1.66,-1.77,1.66,-1.77,1.76,1.13,1.98,3.42,3.42,3.43
70.07,1.66,-1.71,1.66,-1.71,1.70,1.10,1.93,3.36,3.36,3.37
70.77,1.67,-1.63,1.67,-1.64,1.64,1.08,1.89,3.31,3.30,3.30
71.48,1.67,-1.58,1.67,-1.58,1.58,1.05,1.84,3.25,3.25,3.25
72.19,1.68,-1.51,1.67,-1.51,1.52,1.03,1.79,3.20,3.19,3.19
72.91,1.67,-1.45,1.67,-1.46,1.46,1.00,1.75,3.13,3.13,3.12
73.64,1.66,-1.41,1.66,-1.41,1.42,0.98,1.70,3.07,3.08,3.07
74.38,1.65,-1.36,1.65,-1.37,1.37,0.95,1.65,3.02,3.02,3.01
75.12,1.63,-1.33,1.63,-1.33,1.34,0.93,1.60,2.96,2.97,2.96
75.87,1.61,-1.30,1.61,-1.30,1.30,0.90,1.55,2.91,2.91,2.91
76.63,1.58,-1.27,1.58,-1.28,1.28,0.88,1.50,2.86,2.86,2.85
77.40,1.55,-1.26,1.55,-1.26,1.25,0.86,1.45,2.80,2.80,2.81
78.17,1.52,-1.23,1.52,-1.24,1.23,0.83,1.41,2.75,2.75,2.75
78.95,1.49,-1.22,1.49,-1.22,1.21,0.81,1.36,2.70,2.70,2.71
79.74,1.47,-1.19,1.47,-1.19,1.19,0.79,1.31,2.66,2.66,2.66
80.54,1.45,-1.16,1.45,-1.16,1.17,0.76,1.26,2.62,2.61,2.61
81.35,1.42,-1.13,1.42,-1.14,1.15,0.74,1.21,2.56,2.57,2.55
82.16,1.40,-1.12,1.39,-1.12,1.12,0.72,1.17,2.52,2.52,2.52
82.98,1.36,-1.10,1.36,-1.10,1.10,0.70,1.12,2.46,2.46,2.46
83.81,1.33,-1.08,1.33,-1.08,1.08,0.67,1.07,2.40,2.41,2.41
84.65,1.30,-1.05,1.30,-1.05,1.05,0.65,1.03,2.35,2.35,2.35
85.50,1.27,-1.02,1.27,-1.03,1.02,0.63,0.98,2.29,2.29,2.29
86.35,1.24,-1.00,1.24,-1.00,1.00,0.61,0.94,2.24,2.24,2.24
87.22,1.22,-0.97,1.22,-0.97,0.97,0.59,0.90,2.19,2.19,2.19
88.09,1.20,-0.93,1.20,-0.94,0.94,0.57,0.85,2.14,2.14,2.13
88.97,1.17,-0.90,1.17,-0.91,0.91,0.55,0.81,2.08,2.08,2.07
89.86,1.14,-0.88,1.14,-0.88,0.88,0.53,0.77,2.02,2.02,2.02
90.76,1.11,-0.85,1.11,-0.85,0.85,0.51,0.73,1.96,1.96,1.96
91.66,1.09,-0.80,1.09,-0.81,0.81,0.48,0.69,1.90,1.90,1.89
92.58,1.06,-0.78,1.06,-0.78,0.78,0.46,0.65,1.83,1.84,1.84
93.51,1.05,-0.74,1.05,-0.74,0.73,0.44,0.61,1.78,1.78,1.79
94.44,1.03,-0.70,1.03,-0.70,0.69,0.42,0.57,1.72,1.72,1.73
95.39,1.02,-0.64,1.02,-0.65,0.64,0.40,0.54,1.66,1.66,1.66
96.34,1.00,-0.59,1.00,-0.60,0.59,0.38,0.50,1.59,1.59,1.59
97.30,0.98,-0.55,0.98,-0.54,0.55,0.36,0.46,1.52,1.53,1.53
98.28,0.97,-0.49,0.97,-0.49,0.50,0.34,0.43,1.47,1.47,1.46
99.26,0.96,-0.44,0.96,-0.45,0.45,0.32,0.39,1.41,1.41,1.40
100.25,0.94,-0.40,0.94,-0.40,0.42,0.30,0.35,1.35,1.36,1.34
101.25,0.92,-0.37,0.92,-0.37,0.38,0.28,0.32,1.30,1.30,1.29
102.27,0.89,-0.34,0.89,-0.35,0.35,0.26,0.29,1.24,1.24,1.23
103.29,0.85,-0.32,0.85,-0.32,0.32,0.24,0.25,1.17,1.18,1.17
104.32,0.82,-0.30,0.82,-0.30,0.30,0.23,0.22,1.11,1.11,1.12
105.37,0.79,-0.27,0.79,-0.28,0.27,0.21,0.19,1.06,1.05,1.06
106.42,0.76,-0.25,0.76,-0.25,0.24,0.19,0.15,1.00,1.00,1.01
107.48,0.74,-0.21,0.74,-0.21,0.21,0.17,0.12,0.95,0.95,0.95
108.56,0.73,-0.17,0.73,-0.17,0.17,0.15,0.09,0.90,0.90,0.90
109.64,0.72,-0.12,0.71,-0.13,0.13,0.13,0.06,0.85,0.84,0.84
110.74,0.70,-0.08,0.70,-0.08,0.09,0.11,0.03,0.79,0.79,0.78
111.85,0.68,-0.04,0.68,-0.04,0.04,0.09,0.00,0.72,0.72,0.72
112.97,0.67,-0.00,0.67,-0.00,-0.01,0.07,-0.03,0.66,0.66,0.67
114.10,0.65,0.04,0.65,0.05,-0.05,0.05,-0.06,0.60,0.60,0.61
115.24,0.64,0.11,0.64,0.10,-0.10,0.03,-0.08,0.54,0.54,0.53
116.39,0.62,0.15,0.62,0.14,-0.14,0.01,-0.11,0.48,0.48,0.47
117.55,0.59,0.18,0.59,0.18,-0.18,-0.01,-0.14,0.41,0.42,0.41
118.73,0.57,0.22,0.57,0.21,-0.21,-0.03,-0.16,0.36,0.36,0.35
119.92,0.55,0.24,0.55,0.24,-0.24,-0.05,-0.19,0.31,0.31,0.31
121.12,0.53,0.27,0.53,0.27,-0.27,-0.07,-0.21,0.26,0.26,0.26
122.33,0.50,0.30,0.50,0.29,-0.29,-0.10,-0.24,0.21,0.21,0.20
123.55,0.46,0.31,0.46,0.31,-0.30,-0.12,-0.26,0.15,0.16,0.15
124.79,0.42,0.32,0.42,0.32,-0.32,-0.14,-0.28,0.10,0.10,0.10
126.03,0.38,0.34,0.38,0.34,-0.34,-0.16,-0.31,0.04,0.04,0.04
127.29,0.34,0.35,0.34,0.35,-0.36,-0.18,-0.33,-0.02,-0.02,-0.01
128.57,0.30,0.38,0.30,0.37,-0.38,-0.20,-0.35,-0.08,-0.08,-0.08
129.85,0.26,0.39,0.26,0.39,-0.40,-0.22,-0.37,-0.14,-0.14,-0.13
131.15,0.24,0.43,0.24,0.42,-0.43,-0.25,-0.39,-0.19,-0.19,-0.19
132.46,0.21,0.45,0.21,0.45,-0.45,-0.27,-0.41,-0.24,-0.24,-0.24
133.79,0.19,0.49,0.19,0.48,-0.47,-0.29,-0.44,-0.29,-0.29,-0.30
135.12,0.16,0.51,0.16,0.50,-0.49,-0.31,-0.46,-0.34,-0.34,-0.35
136.48,0.12,0.52,0.12,0.52,-0.51,-0.34,-0.48,-0.39,-0.39,-0.40
137.84,0.08,0.53,0.08,0.53,-0.52,-0.36,-0.50,-0.44,-0.44,-0.45
139.22,0.03,0.54,0.03,0.53,-0.53,-0.38,-0.52,-0.50,-0.50,-0.51
140.61,-0.02,0.53,-0.02,0.53,-0.53,-0.41,-0.54,-0.55,-0.55,-0.55
142.02,-0.07,0.54,-0.07,0.53,-0.54,-0.43,-0.55,-0.61,-0.61,-0.61
143.44,-0.11,0.54,-0.11,0.54,-0.54,-0.45,-0.57,-0.66,-0.66,-0.65
144.87,-0.15,0.54,-0.15,0.54,-0.55,-0.48,-0.60,-0.70,-0.70,-0.69
146.32,-0.18,0.56,-0.18,0.56,-0.56,-0.50,-0.62,-0.75,-0.74,-0.74
147.78,-0.20,0.58,-0.20,0.58,-0.58,-0.53,-0.64,-0.78,-0.78,-0.78
149.26,-0.22,0.61,-0.22,0.60,-0.60,-0.56,-0.66,-0.82,-0.82,-0.83
150.75,-0.24,0.63,-0.24,0.63,-0.62,-0.58,-0.68,-0.86,-0.86,-0.87
152.26,-0.26,0.65,-0.26,0.65,-0.64,-0.61,-0.70,-0.90,-0.90,-0.91
153.78,-0.28,0.67,-0.28,0.67,-0.67,-0.63,-0.72,-0.95,-0.95,-0.95
155.32,-0.30,0.69,-0.30,0.69,-0.70,-0.66,-0.75,-1.00,-1.00,-0.99
156.88,-0.31,0.73,-0.31,0.73,-0.74,-0.69,-0.77,-1.05,-1.05,-1.04
158.44,-0.31,0.78,-0.31,0.77,-0.78,-0.72,-0.79,-1.09,-1.09,-1.09
160.03,-0.31,0.82,-0.31,0.82,-0.82,-0.75,-0.82,-1.13,-1.13,-1.13
161.63,-0.30,0.87,-0.30,0.87,-0.87,-0.77,-0.84,-1.17,-1.17,-1.17
163.24,-0.29,0.93,-0.30,0.92,-0.92,-0.80,-0.87,-1.21,-1.22,-1.22
164.88,-0.29,0.98,-0.29,0.97,-0.97,-0.83,-0.90,-1.27,-1.27,-1.27
166.53,-0.29,1.03,-0.29,1.03,-1.03,-0.86,-0.92,-1.32,-1.31,-1.32
168.19,-0.28,1.07,-0.28,1.08,-1.08,-0.89,-0.95,-1.36,-1.36,-1.35
169.87,-0.27,1.14,-0.27,1.13,-1.13,-0.92,-0.98,-1.40,-1.41,-1.41
171.57,-0.27,1.19,-0.27,1.18,-1.18,-0.96,-1.01,-1.45,-1.45,-1.46
173.29,-0.27,1.23,-0.27,1.23,-1.22,-0.99,-1.04,-1.50,-1.50,-1.50
175.02,-0.28,1.27,-0.28,1.27,-1.26,-1.02,-1.08,-1.55,-1.54,-1.55
176.77,-0.29,1.31,-0.29,1.30,-1.30,-1.05,-1.11,-1.59,-1.59,-1.60
178.54,-0.31,1.33,-0.31,1.33,-1.33,-1.08,-1.14,-1.64,-1.64,-1.64
180.32,-0.33,1.37,-0.33,1.36,-1.36,-1.12,-1.18,-1.69,-1.69,-1.70
182.13,-0.36,1.37,-0.36,1.38,-1.38,-1.15,-1.22,-1.74,-1.73,-1.73
183.95,-0.38,1.40,-0.39,1.39,-1.39,-1.18,-1.25,-1.77,-1.78,-1.78
185.79,-0.42,1.41,-0.42,1.41,-1.40,-1.22,-1.29,-1.83,-1.82,-1.83
187.65,-0.45,1.42,-0.45,1.42,-1.42,-1.25,-1.33,-1.87,-1.87,-1.87
189.52,-0.48,1.43,-0.48,1.43,-1.43,-1.28,-1.37,-1.91,-1.91,-1.91
191.42,-0.51,1.44,-0.51,1.44,-1.44,-1.32,-1.41,-1.95,-1.95,-1.95
193.33,-0.54,1.45,-0.54,1.45,-1.46,-1.35,-1.45,-2.00,-2.00,-1.99
195.27,-0.56,1.48,-0.57,1.47,-1.47,-1.38,-1.49,-2.03,-2.04,-2.04
197.22,-0.59,1.50,-0.59,1.49,-1.49,-1.42,-1.53,-2.08,-2.08,-2.09
199.19,-0.61,1.51,-0.61,1.52,-1.51,-1.45,-1.57,-2.12,-2.12,-2.12
201.18,-0.62,1.54,-0.62,1.53,-1.53,-1.49,-1.62,-2.15,-2.16,-2.16
203.19,-0.63,1.56,-0.63,1.55,-1.56,-1.52,-1.66,-2.19,-2.19,-2.19
205.23,-0.64,1.57,-0.63,1.58,-1.59,-1.55,-1.70,-2.23,-2.22,-2.21
207.28,-0.63,1.61,-0.63,1.61,-1.62,-1.59,-1.74,-2.25,-2.25,-2.24
209.35,-0.62,1.66,-0.63,1.65,-1.65,-1.62,-1.79,-2.27,-2.27,-2.28
211.44,-0.62,1.69,-0.62,1.69,-1.68,-1.65,-1.83,-2.30,-2.30,-2.31
213.56,-0.61,1.72,-0.61,1.72,-1.71,-1.68,-1.87,-2.33,-2.33,-2.33
215.69,-0.61,1.75,-0.61,1.75,-1.75,-1.71,-1.91,-2.36,-2.36,-2.36
217.85,-0.61,1.78,-0.61,1.78,-1.78,-1.74,-1.95,-2.39,-2.39,-2.39
220.03,-0.61,1.81,-0.61,1.81,-1.80,-1.77,-1.99,-2.42,-2.42,-2.42
222.23,-0.61,1.84,-0.61,1.83,-1.83,-1.80,-2.02,-2.44,-2.44,-2.45
224.45,-0.61,1.85,-0.61,1.85,-1.85,-1.83,-2.06,-2.46,-2.46,-2.46
226.70,-0.61,1.88,-0.61,1.87,-1.87,-1.85,-2.09,-2.48,-2.48,-2.49
228.96,-0.61,1.89,-0.61,1.89,-1.89,-1.88,-2.12,-2.50,-2.50,-2.50
231.25,-0.61,1.91,-0.61,1.91,-1.91,-1.90,-2.15,-2.52,-2.52,-2.52
233.57,-0.61,1.93,-0.61,1.93,-1.93,-1.92,-2.17,-2.54,-2.54,-2.54
235.90,-0.61,1.94,-0.61,1.94,-1.94,-1.94,-2.19,-2.55,-2.55,-2.55
238.26,-0.61,1.97,-0.61,1.96,-1.95,-1.96,-2.21,-2.56,-2.56,-2.58
240.64,-0.61,1.96,-0.61,1.97,-1.97,-1.98,-2.23,-2.58,-2.58,-2.57
243.05,-0.61,1.98,-0.61,1.98,-1.98,-2.00,-2.24,-2.59,-2.59,-2.59
245.48,-0.61,1.99,-0.61,1.98,-1.99,-2.01,-2.25,-2.60,-2.60,-2.60
247.93,-0.61,2.00,-0.61,2.00,-2.00,-2.02,-2.25,-2.61,-2.61,-2.61
250.41,-0.60,2.00,-0.60,2.01,-2.01,-2.03,-2.25,-2.61,-2.61,-2.60
252.92,-0.59,2.02,-0.59,2.02,-2.01,-2.04,-2.25,-2.60,-2.61,-2.61
255.45,-0.59,2.03,-0.59,2.02,-2.01,-2.05,-2.24,-2.60,-2.61,-2.62
258.00,-0.60,2.02,-0.60,2.02,-2.01,-2.05,-2.24,-2.61,-2.61,-2.62
260.58,-0.61,2.01,-0.61,2.01,-2.00,-2.05,-2.22,-2.61,-2.61,-2.62
263.19,-0.63,1.99,-0.63,1.99,-1.99,-2.05,-2.21,-2.62,-2.62,-2.62
265.82,-0.66,1.97,-0.66,1.97,-1.97,-2.05,-2.19,-2.63,-2.62,-2.63
268.48,-0.68,1.95,-0.68,1.94,-1.95,-2.05,-2.16,-2.63,-2.63,-2.63
271.16,-0.71,1.92,-0.71,1.92,-1.92,-2.04,-2.14,-2.63,-2.63,-2.63
273.87,-0.74,1.89,-0.74,1.89,-1.89,-2.03,-2.11,-2.63,-2.63,-2.63
276.61,-0.77,1.86,-0.77,1.87,-1.87,-2.02,-2.08,-2.64,-2.64,-2.63
279.38,-0.80,1.85,-0.80,1.84,-1.84,-2.01,-2.04,-2.64,-2.64,-2.65
282.17,-0.83,1.82,-0.83,1.81,-1.81,-2.00,-2.01,-2.64,-2.64,-2.65
284.99,-0.86,1.78,-0.86,1.78,-1.78,-1.98,-1.97,-2.64,-2.64,-2.64
287.84,-0.89,1.74,-0.89,1.75,-1.75,-1.97,-1.93,-2.64,-2.64,-2.63
290.72,-0.91,1.73,-0.91,1.72,-1.72,-1.95,-1.89,-2.63,-2.63,-2.64
293.63,-0.93,1.70,-0.93,1.70,-1.70,-1.93,-1.85,-2.63,-2.63,-2.63
296.57,-0.95,1.67,-0.95,1.67,-1.68,-1.91,-1.81,-2.63,-2.63,-2.62
299.53,-0.96,1.66,-0.96,1.65,-1.66,-1.89,-1.77,-2.62,-2.62,-2.62
302.53,-0.96,1.64,-0.96,1.65,-1.65,-1.87,-1.72,-2.61,-2.62,-2.60
305.55,-0.96,1.65,-0.96,1.64,-1.65,-1.84,-1.68,-2.61,-2.61,-2.61
308.61,-0.95,1.65,-0.95,1.65,-1.64,-1.82,-1.64,-2.59,-2.59,-2.60
311.69,-0.94,1.65,-0.94,1.65,-1.64,-1.79,-1.59,-2.58,-2.58,-2.59
314.81,-0.94,1.65,-0.94,1.64,-1.64,-1.77,-1.55,-2.58,-2.58,-2.59
317.96,-0.94,1.64,-0.94,1.64,-1.63,-1.74,-1.51,-2.57,-2.57,-2.58
321.14,-0.94,1.63,-0.94,1.63,-1.63,-1.71,-1.47,-2.57,-2.57,-2.57
324.35,-0.94,1.63,-0.94,1.62,-1.62,-1.68,-1.42,-2.56,-2.56,-2.57
327.59,-0.94,1.60,-0.94,1.61,-1.61,-1.65,-1.38,-2.55,-2.55,-2.54
330.87,-0.94,1.61,-0.94,1.60,-1.60,-1.63,-1.34,-2.55,-2.55,-2.55
334.18,-0.94,1.60,-0.94,1.60,-1.60,-1.60,-1.30,-2.54,-2.54,-2.54
337.52,-0.94,1.60,-0.94,1.59,-1.59,-1.57,-1.26,-2.53,-2.53,-2.54
340.90,-0.94,1.58,-0.94,1.58,-1.59,-1.54,-1.22,-2.53,-2.53,-2.52
344.30,-0.94,1.57,-0.94,1.58,-1.58,-1.51,-1.18,-2.52,-2.52,-2.51
347.75,-0.93,1.58,-0.93,1.57,-1.58,-1.48,-1.15,-2.51,-2.51,-2.51
351.23,-0.93,1.58,-0.93,1.57,-1.57,-1.45,-1.11,-2.51,-2.50,-2.51
354.74,-0.92,1.56,-0.92,1.57,-1.57,-1.42,-1.07,-2.49,-2.49,-2.48
358.28,-0.91,1.58,-0.92,1.57,-1.56,-1.39,-1.04,-2.47,-2.48,-2.49
361.87,-0.92,1.56,-0.92,1.56,-1.55,-1.36,-1.01,-2.47,-2.47,-2.48
365.49,-0.93,1.54,-0.93,1.54,-1.53,-1.33,-0.97,-2.46,-2.46,-2.47
369.14,-0.94,1.51,-0.94,1.51,-1.51,-1.30,-0.94,-2.45,-2.45,-2.45
372.83,-0.96,1.49,-0.96,1.49,-1.48,-1.27,-0.91,-2.44,-2.45,-2.45
376.56,-0.99,1.46,-0.99,1.45,-1.45,-1.25,-0.88,-2.44,-2.44,-2.45
380.33,-1.02,1.42,-1.02,1.42,-1.42,-1.22,-0.85,-2.44,-2.44,-2.44
384.13,-1.05,1.37,-1.05,1.38,-1.38,-1.19,-0.82,-2.43,-2.43,-2.42
387.97,-1.08,1.34,-1.08,1.33,-1.34,-1.16,-0.79,-2.42,-2.42,-2.42
391.85,-1.11,1.30,-1.11,1.30,-1.29,-1.14,-0.77,-2.41,-2.41,-2.41
395.77,-1.14,1.26,-1.14,1.25,-1.25,-1.11,-0.74,-2.39,-2.40,-2.40
399.73,-1.17,1.22,-1.17,1.21,-1.21,-1.08,-0.72,-2.38,-2.38,-2.39
403.72,-1.20,1.16,-1.20,1.17,-1.17,-1.06,-0.69,-2.38,-2.37,-2.36
407.76,-1.22,1.15,-1.22,1.14,-1.14,-1.03,-0.67,-2.36,-2.36,-2.37
411.84,-1.25,1.11,-1.25,1.11,-1.11,-1.01,-0.65,-2.36,-2.35,-2.36
415.96,-1.26,1.08,-1.26,1.08,-1.08,-0.99,-0.62,-2.34,-2.34,-2.34
420.12,-1.28,1.06,-1.28,1.06,-1.06,-0.96,-0.60,-2.34,-2.34,-2.34
424.32,-1.28,1.05,-1.28,1.04,-1.05,-0.94,-0.58,-2.33,-2.34,-2.33
428.56,-1.29,1.02,-1.28,1.03,-1.05,-0.92,-0.56,-2.34,-2.33,-2.31
432.85,-1.27,1.03,-1.27,1.03,-1.04,-0.89,-0.55,-2.31,-2.32,-2.30
437.18,-1.26,1.05,-1.26,1.04,-1.04,-0.87,-0.53,-2.30,-2.30,-2.31
441.55,-1.24,1.06,-1.24,1.05,-1.04,-0.85,-0.51,-2.28,-2.28,-2.30
445.96,-1.24,1.05,-1.24,1.05,-1.03,-0.83,-0.50,-2.27,-2.27,-2.29
450.42,-1.24,1.04,-1.24,1.04,-1.02,-0.81,-0.49,-2.26,-2.26,-2.28
454.93,-1.26,1.01,-1.26,1.01,-1.00,-0.79,-0.47,-2.26,-2.26,-2.27
459.48,-1.27,0.99,-1.27,0.98,-0.98,-0.77,-0.46,-2.25,-2.25,-2.26
464.07,-1.30,0.94,-1.30,0.94,-0.95,-0.75,-0.45,-2.25,-2.25,-2.24
468.71,-1.32,0.91,-1.32,0.91,-0.92,-0.73,-0.44,-2.24,-2.24,-2.23
473.40,-1.35,0.88,-1.35,0.87,-0.88,-0.71,-0.44,-2.23,-2.23,-2.23
478.13,-1.38,0.84,-1.38,0.84,-0.84,-0.70,-0.43,-2.22,-2.22,-2.22
482.91,-1.41,0.80,-1.41,0.80,-0.80,-0.68,-0.42,-2.21,-2.21,-2.21
487.74,-1.44,0.76,-1.44,0.76,-0.76,-0.66,-0.42,-2.20,-2.20,-2.20
492.62,-1.47,0.72,-1.47,0.72,-0.71,-0.65,-0.42,-2.18,-2.18,-2.19
497.55,-1.50,0.68,-1.50,0.68,-0.67,-0.63,-0.42,-2.17,-2.17,-2.18
502.52,-1.53,0.64,-1.53,0.63,-0.63,-0.62,-0.42,-2.16,-2.16,-2.17
