frequency,raw,error,smoothed,error_smoothed,equalization,parametric_eq,fixed_band_eq,equalized_raw,equalized_smoothed,target
20.00,6.77,-1.22,6.77,-1.22,1.21,0.89,0.28,7.98,7.98,7.98
20.20,6.82,-1.16,6.81,-1.16,1.16,0.89,0.29,7.97,7.97,7.97
20.40,6.86,-1.10,6.86,-1.10,1.10,0.88,0.30,7.96,7.96,7.96
20.61,6.90,-1.06,6.90,-1.05,1.05,0.87,0.31,7.95,7.95,7.95
20.81,6.94,-0.99,6.94,-1.00,1.00,0.87,0.32,7.94,7.94,7.93
21.02,6.98,-0.95,6.97,-0.95,0.96,0.86,0.33,7.93,7.93,7.92
21.23,7.01,-0.91,7.01,-0.91,0.91,0.85,0.34,7.92,7.92,7.91
21.44,7.04,-0.88,7.04,-0.87,0.87,0.85,0.35,7.91,7.91,7.92
21.66,7.07,-0.84,7.07,-0.84,0.83,0.84,0.36,7.90,7.90,7.90
21.87,7.10,-0.80,7.09,-0.80,0.80,0.83,0.37,7.89,7.89,7.90
22.09,7.12,-0.77,7.12,-0.77,0.76,0.82,0.39,7.88,7.88,7.88
22.31,7.14,-0.73,7.14,-0.74,0.74,0.81,0.40,7.87,7.87,7.87
22.54,7.16,-0.71,7.16,-0.71,0.71,0.81,0.41,7.87,7.87,7.86
22.76,7.18,-0.69,7.17,-0.68,0.69,0.80,0.42,7.87,7.86,7.86
22.99,7.19,-0.67,7.18,-0.67,0.67,0.79,0.44,7.86,7.86,7.85
23.22,7.19,-0.66,7.19,-0.66,0.66,0.78,0.45,7.85,7.85,7.84
23.45,7.19,-0.67,7.19,-0.66,0.66,0.77,0.46,7.85,7.85,7.85
23.69,7.19,-0.66,7.18,-0.66,0.66,0.76,0.48,7.84,7.84,7.84
23.92,7.18,-0.66,7.18,-0.66,0.66,0.75,0.49,7.83,7.84,7.83
24.16,7.18,-0.67,7.17,-0.66,0.66,0.74,0.50,7.84,7.83,7.84
24.40,7.17,-0.68,7.17,-0.67,0.66,0.73,0.52,7.83,7.83,7.84
24.65,7.17,-0.67,7.17,-0.67,0.66,0.72,0.53,7.83,7.83,7.83
24.89,7.17,-0.67,7.17,-0.66,0.66,0.71,0.55,7.83,7.83,7.83
25.14,7.17,-0.66,7.17,-0.66,0.66,0.70,0.56,7.83,7.83,7.82
25.39,7.17,-0.66,7.17,-0.65,0.66,0.69,0.57,7.83,7.83,7.82
25.65,7.17,-0.66,7.17,-0.65,0.66,0.68,0.59,7.83,7.83,7.82
25.91,7.17,-0.66,7.17,-0.66,0.66,0.67,0.60,7.83,7.83,7.82
26.16,7.17,-0.67,7.16,-0.66,0.67,0.66,0.62,7.83,7.83,7.83
26.43,7.16,-0.67,7.16,-0.67,0.67,0.65,0.63,7.83,7.83,7.82
26.69,7.15,-0.68,7.15,-0.67,0.67,0.64,0.64,7.82,7.82,7.82
26.96,7.15,-0.68,7.14,-0.68,0.67,0.62,0.65,7.82,7.82,7.82
27.23,7.15,-0.68,7.15,-0.67,0.67,0.61,0.66,7.82,7.82,7.82
27.50,7.16,-0.67,7.16,-0.67,0.66,0.60,0.67,7.82,7.82,7.82
27.77,7.18,-0.66,7.17,-0.65,0.65,0.59,0.68,7.83,7.83,7.83
28.05,7.19,-0.64,7.19,-0.64,0.64,0.57,0.69,7.82,7.83,7.82
28.33,7.22,-0.62,7.21,-0.62,0.62,0.56,0.70,7.83,7.83,7.83
28.62,7.24,-0.60,7.24,-0.60,0.59,0.55,0.70,7.83,7.83,7.83
28.90,7.27,-0.58,7.27,-0.57,0.57,0.53,0.71,7.83,7.83,7.84
29.19,7.30,-0.55,7.30,-0.54,0.53,0.52,0.71,7.83,7.83,7.84
29.48,7.34,-0.50,7.33,-0.50,0.50,0.50,0.71,7.84,7.83,7.83
29.78,7.37,-0.47,7.37,-0.46,0.47,0.49,0.71,7.83,7.83,7.83
30.08,7.40,-0.44,7.40,-0.43,0.43,0.47,0.71,7.83,7.83,7.83
30.38,7.43,-0.39,7.42,-0.39,0.40,0.46,0.70,7.82,7.82,7.81
30.68,7.45,-0.37,7.45,-0.36,0.37,0.44,0.70,7.81,7.82,7.81
30.99,7.48,-0.34,7.47,-0.34,0.34,0.43,0.69,7.81,7.81,7.81
31.30,7.50,-0.32,7.49,-0.31,0.31,0.41,0.68,7.81,7.81,7.81
31.61,7.51,-0.30,7.51,-0.29,0.30,0.39,0.67,7.80,7.80,7.80
31.93,7.52,-0.27,7.52,-0.28,0.28,0.38,0.65,7.80,7.80,7.78
32.24,7.52,-0.28,7.52,-0.27,0.27,0.36,0.63,7.79,7.79,7.79
32.57,7.52,-0.26,7.51,-0.26,0.27,0.34,0.62,7.78,7.78,7.77
32.89,7.51,-0.27,7.51,-0.26,0.26,0.32,0.60,7.77,7.77,7.77
33.22,7.50,-0.27,7.50,-0.26,0.26,0.30,0.58,7.75,7.76,7.76
33.55,7.50,-0.27,7.50,-0.26,0.25,0.29,0.55,7.75,7.75,7.76
33.89,7.50,-0.26,7.50,-0.25,0.25,0.27,0.53,7.75,7.74,7.75
34.23,7.50,-0.24,7.50,-0.24,0.24,0.25,0.50,7.74,7.74,7.73
34.57,7.50,-0.24,7.50,-0.23,0.24,0.23,0.47,7.74,7.74,7.73
34.92,7.50,-0.22,7.50,-0.23,0.23,0.21,0.44,7.73,7.73,7.71
35.27,7.50,-0.24,7.50,-0.22,0.22,0.19,0.41,7.72,7.72,7.73
35.62,7.50,-0.21,7.50,-0.21,0.21,0.16,0.38,7.70,7.70,7.70
35.97,7.50,-0.21,7.50,-0.20,0.20,0.14,0.35,7.69,7.69,7.70
36.33,7.50,-0.19,7.50,-0.18,0.18,0.12,0.31,7.68,7.68,7.68
36.70,7.50,-0.17,7.50,-0.17,0.17,0.10,0.28,7.66,7.66,7.66
37.06,7.50,-0.15,7.50,-0.15,0.15,0.08,0.24,7.65,7.65,7.64
37.43,7.50,-0.13,7.50,-0.13,0.13,0.05,0.20,7.63,7.63,7.62
37.81,7.50,-0.12,7.50,-0.11,0.11,0.03,0.17,7.61,7.61,7.61
38.19,7.50,-0.09,7.50,-0.09,0.09,0.00,0.13,7.58,7.58,7.58
38.57,7.50,-0.07,7.50,-0.07,0.07,-0.02,0.09,7.56,7.56,7.56
38.95,7.50,-0.06,7.50,-0.05,0.04,-0.05,0.05,7.54,7.54,7.55
39.34,7.50,-0.03,7.50,-0.02,0.02,-0.07,0.01,7.52,7.52,7.52
39.74,7.50,0.00,7.50,-0.00,0.01,-0.10,-0.03,7.50,7.50,7.49
40.14,7.50,0.02,7.49,0.02,-0.01,-0.12,-0.07,7.49,7.48,7.47
40.54,7.49,0.03,7.49,0.04,-0.03,-0.15,-0.11,7.46,7.46,7.45
40.94,7.48,0.05,7.48,0.05,-0.05,-0.18,-0.15,7.43,7.43,7.42
41.35,7.47,0.05,7.47,0.06,-0.07,-0.21,-0.19,7.40,7.40,7.41
41.76,7.47,0.08,7.47,0.08,-0.09,-0.24,-0.24,7.38,7.38,7.38
42.18,7.48,0.10,7.47,0.11,-0.12,-0.26,-0.28,7.36,7.36,7.37
42.60,7.49,0.14,7.49,0.14,-0.15,-0.29,-0.32,7.33,7.33,7.34
43.03,7.51,0.18,7.51,0.19,-0.19,-0.32,-0.36,7.31,7.31,7.32
43.46,7.53,0.24,7.53,0.24,-0.24,-0.36,-0.41,7.29,7.29,7.28
43.90,7.56,0.29,7.56,0.30,-0.29,-0.39,-0.45,7.27,7.27,7.26
44.33,7.59,0.36,7.59,0.35,-0.35,-0.42,-0.49,7.24,7.24,7.23
44.78,7.62,0.40,7.62,0.40,-0.41,-0.45,-0.54,7.21,7.21,7.21
45.23,7.65,0.45,7.65,0.46,-0.47,-0.48,-0.58,7.18,7.18,7.19
45.68,7.68,0.53,7.68,0.53,-0.53,-0.52,-0.62,7.15,7.15,7.14
46.13,7.71,0.60,7.71,0.60,-0.60,-0.55,-0.67,7.11,7.11,7.11
46.60,7.74,0.66,7.74,0.66,-0.66,-0.59,-0.71,7.07,7.08,7.07
47.06,7.77,0.72,7.76,0.72,-0.73,-0.62,-0.76,7.04,7.04,7.04
47.53,7.79,0.78,7.79,0.79,-0.79,-0.66,-0.80,7.00,7.00,7.00
48.01,7.81,0.85,7.81,0.85,-0.85,-0.69,-0.85,6.95,6.96,6.95
48.49,7.83,0.91,7.83,0.91,-0.91,-0.73,-0.89,6.92,6.92,6.91
48.97,7.84,0.97,7.84,0.97,-0.96,-0.77,-0.94,6.88,6.88,6.86
49.46,7.85,1.01,7.84,1.02,-1.01,-0.80,-0.99,6.84,6.83,6.83
49.96,7.84,1.06,7.84,1.06,-1.06,-0.84,-1.03,6.78,6.78,6.77
50.46,7.83,1.08,7.83,1.09,-1.10,-0.88,-1.08,6.73,6.73,6.74
50.96,7.83,1.12,7.83,1.13,-1.14,-0.92,-1.12,6.69,6.69,6.70
51.47,7.84,1.17,7.83,1.17,-1.18,-0.96,-1.17,6.66,6.65,6.66
51.99,7.84,1.22,7.84,1.22,-1.22,-1.00,-1.22,6.62,6.62,6.61
52.51,7.84,1.25,7.84,1.26,-1.25,-1.04,-1.26,6.58,6.58,6.58
53.03,7.84,1.28,7.83,1.29,-1.29,-1.08,-1.31,6.55,6.55,6.55
53.56,7.83,1.32,7.82,1.32,-1.32,-1.13,-1.35,6.51,6.51,6.50
54.10,7.81,1.35,7.81,1.35,-1.35,-1.17,-1.40,6.46,6.46,6.45
54.64,7.79,1.37,7.78,1.38,-1.37,-1.21,-1.44,6.42,6.42,6.41
55.18,7.76,1.38,7.76,1.39,-1.38,-1.25,-1.49,6.37,6.37,6.37
55.74,7.73,1.40,7.73,1.39,-1.40,-1.30,-1.53,6.33,6.33,6.32
56.29,7.70,1.39,7.70,1.40,-1.40,-1.34,-1.57,6.29,6.29,6.30
56.86,7.67,1.40,7.67,1.41,-1.41,-1.39,-1.61,6.26,6.26,6.26
57.42,7.64,1.42,7.64,1.42,-1.42,-1.43,-1.66,6.22,6.22,6.21
58.00,7.61,1.43,7.61,1.43,-1.42,-1.48,-1.69,6.18,6.18,6.17
58.58,7.58,1.43,7.58,1.43,-1.43,-1.52,-1.73,6.14,6.14,6.14
59.16,7.55,1.43,7.55,1.44,-1.45,-1.57,-1.77,6.10,6.10,6.11
59.76,7.53,1.46,7.52,1.46,-1.47,-1.62,-1.81,6.05,6.05,6.06
60.35,7.51,1.49,7.50,1.49,-1.50,-1.66,-1.84,6.00,6.00,6.01
60.96,7.49,1.53,7.49,1.53,-1.54,-1.71,-1.88,5.94,5.94,5.95
61.57,7.48,1.58,7.48,1.58,-1.59,-1.76,-1.91,5.89,5.89,5.89
62.18,7.47,1.63,7.47,1.64,-1.64,-1.80,-1.94,5.83,5.83,5.83
62.80,7.48,1.70,7.47,1.70,-1.69,-1.85,-1.97,5.78,5.78,5.77
63.43,7.48,1.75,7.48,1.76,-1.75,-1.90,-2.00,5.72,5.73,5.72
64.07,7.49,1.81,7.49,1.82,-1.81,-1.95,-2.02,5.67,5.68,5.67
64.71,7.50,1.87,7.49,1.87,-1.87,-2.00,-2.05,5.63,5.62,5.62
65.35,7.50,1.93,7.50,1.93,-1.93,-2.04,-2.07,5.57,5.57,5.56
66.01,7.50,1.98,7.50,1.98,-1.98,-2.09,-2.09,5.52,5.52,5.51
66.67,7.50,2.02,7.50,2.04,-2.04,-2.14,-2.12,5.46,5.46,5.47
67.33,7.50,2.09,7.50,2.09,-2.09,-2.19,-2.14,5.41,5.41,5.40
68.01,7.50,2.14,7.50,2.14,-2.14,-2.23,-2.16,5.35,5.35,5.35
68.69,7.50,2.19,7.50,2.20,-2.20,-2.28,-2.18,5.30,5.30,5.30
69.37,7.50,2.24,7.50,2.25,-2.25,-2.33,-2.20,5.24,5.24,5.25
70.07,7.50,2.30,7.50,2.31,-2.31,-2.38,-2.22,5.19,5.19,5.19
70.77,7.50,2.37,7.50,2.37,-2.37,-2.42,-2.24,5.13,5.13,5.12
71.48,7.50,2.42,7.50,2.43,-2.43,-2.47,-2.26,5.07,5.07,5.07
72.19,7.50,2.48,7.50,2.49,-2.49,-2.52,-2.28,5.01,5.01,5.01
72.91,7.50,2.55,7.50,2.55,-2.55,-2.56,-2.30,4.94,4.94,4.94
73.64,7.50,2.60,7.50,2.61,-2.61,-2.61,-2.32,4.88,4.89,4.89
74.38,7.51,2.67,7.51,2.67,-2.67,-2.65,-2.34,4.83,4.83,4.83
75.12,7.52,2.73,7.51,2.73,-2.73,-2.70,-2.36,4.79,4.78,4.78
75.87,7.52,2.78,7.52,2.79,-2.78,-2.74,-2.39,4.73,4.74,4.73
76.63,7.52,2.84,7.51,2.84,-2.83,-2.79,-2.41,4.69,4.68,4.67
77.40,7.51,2.87,7.50,2.88,-2.87,-2.83,-2.44,4.63,4.63,4.63
78.17,7.49,2.91,7.49,2.91,-2.91,-2.87,-2.47,4.58,4.58,4.57
78.95,7.47,2.93,7.47,2.94,-2.94,-2.92,-2.49,4.53,4.53,4.53
79.74,7.45,2.96,7.44,2.97,-2.96,-2.96,-2.53,4.48,4.48,4.48
80.54,7.42,2.98,7.42,2.99,-2.99,-3.00,-2.56,4.43,4.43,4.43
81.35,7.39,3.01,7.39,3.01,-3.01,-3.04,-2.59,4.38,4.38,4.37
82.16,7.36,3.01,7.36,3.02,-3.03,-3.08,-2.63,4.33,4.33,4.34
82.98,7.33,3.04,7.33,3.04,-3.05,-3.12,-2.67,4.28,4.28,4.28
83.81,7.30,3.06,7.30,3.07,-3.07,-3.16,-2.70,4.23,4.23,4.23
84.65,7.27,3.09,7.27,3.09,-3.09,-3.20,-2.75,4.18,4.17,4.17
85.50,7.24,3.12,7.23,3.12,-3.12,-3.24,-2.79,4.12,4.12,4.11
86.35,7.21,3.14,7.21,3.15,-3.15,-3.28,-2.84,4.05,4.06,4.06
87.22,7.19,3.17,7.19,3.18,-3.19,-3.32,-2.89,4.00,4.00,4.01
88.09,7.18,3.22,7.18,3.22,-3.24,-3.36,-2.94,3.94,3.94,3.95
88.97,7.18,3.28,7.17,3.27,-3.28,-3.39,-2.99,3.89,3.89,3.89
89.86,7.17,3.32,7.17,3.33,-3.33,-3.43,-3.04,3.83,3.84,3.84
90.76,7.17,3.38,7.17,3.39,-3.38,-3.47,-3.10,3.78,3.78,3.78
91.66,7.17,3.45,7.17,3.45,-3.44,-3.51,-3.16,3.73,3.73,3.71
92.58,7.17,3.50,7.16,3.50,-3.49,-3.54,-3.22,3.68,3.67,3.66
93.51,7.15,3.53,7.15,3.54,-3.54,-3.58,-3.29,3.61,3.61,3.61
94.44,7.13,3.57,7.13,3.58,-3.58,-3.61,-3.35,3.54,3.55,3.55
95.39,7.11,3.62,7.10,3.62,-3.62,-3.65,-3.42,3.48,3.48,3.48
96.34,7.08,3.66,7.08,3.66,-3.66,-3.69,-3.49,3.41,3.42,3.41
97.30,7.05,3.69,7.05,3.70,-3.70,-3.72,-3.56,3.35,3.35,3.35
98.28,7.02,3.73,7.02,3.73,-3.73,-3.76,-3.63,3.29,3.29,3.28
99.26,6.99,3.76,6.99,3.76,-3.76,-3.79,-3.71,3.23,3.23,3.22
100.25,6.96,3.79,6.96,3.79,-3.79,-3.83,-3.78,3.17,3.17,3.16
101.25,6.93,3.81,6.92,3.82,-3.82,-3.86,-3.86,3.10,3.10,3.11
102.27,6.90,3.84,6.90,3.85,-3.86,-3.90,-3.94,3.04,3.04,3.05
103.29,6.88,3.88,6.88,3.88,-3.89,-3.93,-4.02,2.98,2.99,2.99
104.32,6.87,3.92,6.86,3.93,-3.93,-3.97,-4.10,2.94,2.93,2.94
105.37,6.86,3.97,6.86,3.97,-3.97,-4.00,-4.18,2.88,2.88,2.88
106.42,6.85,4.01,6.85,4.02,-4.02,-4.04,-4.26,2.83,2.83,2.83
107.48,6.84,4.06,6.84,4.06,-4.06,-4.08,-4.34,2.78,2.78,2.77
108.56,6.83,4.10,6.83,4.11,-4.10,-4.11,-4.41,2.72,2.72,2.72
109.64,6.82,4.15,6.81,4.15,-4.15,-4.15,-4.49,2.67,2.67,2.66
110.74,6.80,4.19,6.80,4.19,-4.19,-4.18,-4.57,2.61,2.61,2.60
111.85,6.78,4.23,6.77,4.23,-4.23,-4.22,-4.64,2.55,2.55,2.54
112.97,6.75,4.25,6.75,4.26,-4.26,-4.26,-4.71,2.48,2.48,2.49
114.10,6.72,4.28,6.72,4.29,-4.30,-4.29,-4.78,2.42,2.42,2.43
115.24,6.69,4.33,6.69,4.33,-4.33,-4.33,-4.84,2.36,2.36,2.35
116.39,6.66,4.36,6.66,4.37,-4.36,-4.37,-4.90,2.30,2.30,2.29
117.55,6.63,4.39,6.63,4.40,-4.38,-4.40,-4.96,2.24,2.24,2.23
118.73,6.60,4.42,6.60,4.42,-4.41,-4.44,-5.01,2.18,2.18,2.17
119.92,6.57,4.43,6.57,4.44,-4.44,-4.48,-5.06,2.12,2.12,2.13
121.12,6.55,4.46,6.54,4.47,-4.48,-4.51,-5.10,2.07,2.06,2.08
122.33,6.53,4.50,6.53,4.50,-4.52,-4.55,-5.14,2.01,2.01,2.02
123.55,6.53,4.55,6.52,4.55,-4.56,-4.59,-5.17,1.96,1.96,1.97
124.79,6.53,4.60,6.52,4.60,-4.61,-4.63,-5.20,1.92,1.91,1.92
126.03,6.52,4.65,6.52,4.66,-4.66,-4.67,-5.22,1.86,1.86,1.86
127.29,6.52,4.70,6.52,4.71,-4.71,-4.70,-5.23,1.81,1.81,1.81
128.57,6.52,4.77,6.51,4.77,-4.76,-4.74,-5.24,1.76,1.76,1.74
129.85,6.51,4.81,6.50,4.81,-4.80,-4.78,-5.25,1.70,1.70,1.69
131.15,6.49,4.85,6.49,4.85,-4.84,-4.82,-5.25,1.64,1.64,1.63
132.46,6.46,4.87,6.46,4.88,-4.88,-4.86,-5.25,1.58,1.58,1.58
133.79,6.44,4.91,6.43,4.91,-4.91,-4.90,-5.24,1.53,1.53,1.52
135.12,6.41,4.93,6.41,4.93,-4.93,-4.93,-5.23,1.47,1.47,1.47
136.48,6.38,4.95,6.37,4.95,-4.95,-4.97,-5.21,1.42,1.42,1.42
137.84,6.34,4.96,6.34,4.97,-4.97,-5.01,-5.19,1.36,1.37,1.37
139.22,6.31,4.99,6.31,4.99,-4.99,-5.05,-5.17,1.32,1.31,1.31
140.61,6.28,5.00,6.27,5.01,-5.01,-5.09,-5.15,1.27,1.27,1.27
142.02,6.25,5.03,6.25,5.03,-5.03,-5.12,-5.12,1.22,1.22,1.21
143.44,6.23,5.05,6.22,5.05,-5.05,-5.16,-5.10,1.17,1.17,1.17
144.87,6.21,5.07,6.20,5.08,-5.08,-5.20,-5.07,1.13,1.12,1.13
146.32,6.19,5.10,6.19,5.10,-5.11,-5.23,-5.04,1.08,1.08,1.08
147.78,6.18,5.13,6.18,5.14,-5.15,-5.27,-5.02,1.03,1.03,1.04
149.26,6.18,5.18,6.17,5.18,-5.19,-5.31,-4.99,0.99,0.99,0.99
150.75,6.18,5.22,6.18,5.23,-5.24,-5.34,-4.96,0.94,0.95,0.95
152.26,6.20,5.28,6.19,5.28,-5.28,-5.38,-4.94,0.91,0.91,0.91
153.78,6.21,5.33,6.21,5.33,-5.33,-5.41,-4.92,0.87,0.87,0.87
155.32,6.22,5.38,6.21,5.39,-5.38,-5.45,-4.89,0.84,0.84,0.83
156.88,6.22,5.43,6.21,5.43,-5.42,-5.48,-4.88,0.79,0.79,0.78
158.44,6.21,5.47,6.21,5.47,-5.46,-5.52,-4.86,0.74,0.74,0.73
160.03,6.20,5.50,6.20,5.50,-5.50,-5.55,-4.85,0.70,0.70,0.69
161.63,6.18,5.52,6.18,5.53,-5.53,-5.58,-4.83,0.65,0.65,0.65
163.24,6.16,5.55,6.15,5.55,-5.55,-5.61,-4.83,0.60,0.60,0.60
164.88,6.13,5.57,6.13,5.57,-5.57,-5.64,-4.82,0.55,0.55,0.55
166.53,6.10,5.59,6.10,5.59,-5.59,-5.67,-4.82,0.51,0.51,0.50
168.19,6.07,5.59,6.07,5.61,-5.61,-5.70,-4.82,0.46,0.46,0.47
169.87,6.04,5.62,6.04,5.62,-5.62,-5.73,-4.83,0.41,0.41,0.41
171.57,6.01,5.64,6.01,5.64,-5.64,-5.76,-4.84,0.37,0.36,0.36
173.29,5.98,5.65,5.98,5.66,-5.66,-5.78,-4.85,0.32,0.32,0.32
175.02,5.95,5.67,5.95,5.68,-5.68,-5.81,-4.86,0.26,0.27,0.27
176.77,5.93,5.70,5.93,5.70,-5.71,-5.83,-4.88,0.22,0.22,0.22
178.54,5.91,5.72,5.91,5.73,-5.73,-5.86,-4.91,0.17,0.17,0.18
180.32,5.90,5.77,5.89,5.76,-5.76,-5.88,-4.93,0.13,0.13,0.12
182.13,5.88,5.78,5.88,5.79,-5.79,-5.90,-4.97,0.08,0.09,0.09
183.95,5.87,5.82,5.86,5.83,-5.82,-5.92,-5.00,0.04,0.04,0.04
185.79,5.85,5.85,5.85,5.85,-5.85,-5.94,-5.04,-0.00,-0.00,-0.01
187.65,5.84,5.88,5.84,5.88,-5.88,-5.96,-5.08,-0.04,-0.04,-0.05
189.52,5.82,5.90,5.82,5.91,-5.91,-5.97,-5.13,-0.09,-0.09,-0.09
191.42,5.81,5.93,5.80,5.93,-5.93,-5.99,-5.18,-0.13,-0.13,-0.13
193.33,5.78,5.94,5.78,5.95,-5.95,-6.00,-5.23,-0.18,-0.18,-0.17
195.27,5.75,5.96,5.75,5.97,-5.97,-6.02,-5.28,-0.23,-0.22,-0.22
197.22,5.73,5.99,5.73,5.99,-5.99,-6.03,-5.34,-0.26,-0.26,-0.27
199.19,5.71,6.00,5.70,6.01,-6.00,-6.04,-5.40,-0.29,-0.30,-0.30
201.18,5.68,6.01,5.68,6.01,-6.00,-6.05,-5.46,-0.33,-0.33,-0.34
203.19,5.65,6.01,5.65,6.01,-6.00,-6.05,-5.53,-0.36,-0.36,-0.37
205.23,5.62,6.00,5.61,6.01,-6.00,-6.06,-5.59,-0.39,-0.39,-0.39
207.28,5.58,5.99,5.58,6.00,-6.00,-6.06,-5.66,-0.42,-0.42,-0.42
209.35,5.54,5.99,5.54,5.99,-6.00,-6.07,-5.73,-0.46,-0.46,-0.46
211.44,5.50,5.98,5.50,5.98,-5.99,-6.07,-5.80,-0.50,-0.50,-0.49
213.56,5.47,5.97,5.47,5.98,-5.99,-6.07,-5.87,-0.53,-0.53,-0.51
215.69,5.44,5.97,5.44,5.98,-5.99,-6.07,-5.94,-0.56,-0.55,-0.54
217.85,5.43,5.99,5.42,5.99,-5.99,-6.07,-6.01,-0.56,-0.57,-0.57
220.03,5.40,5.99,5.40,5.99,-5.98,-6.06,-6.07,-0.59,-0.59,-0.60
222.23,5.37,5.99,5.37,5.99,-5.98,-6.06,-6.14,-0.61,-0.61,-0.63
224.45,5.34,5.97,5.33,5.97,-5.96,-6.05,-6.20,-0.63,-0.63,-0.64
226.70,5.29,5.95,5.29,5.95,-5.94,-6.04,-6.25,-0.66,-0.66,-0.67
228.96,5.24,5.91,5.24,5.92,-5.92,-6.03,-6.31,-0.68,-0.68,-0.68
231.25,5.20,5.89,5.19,5.89,-5.89,-6.02,-6.36,-0.70,-0.70,-0.70
233.57,5.15,5.86,5.14,5.86,-5.87,-6.01,-6.40,-0.72,-0.72,-0.72
235.90,5.10,5.82,5.10,5.83,-5.84,-6.00,-6.44,-0.74,-0.74,-0.73
238.26,5.06,5.81,5.06,5.80,-5.82,-5.98,-6.47,-0.76,-0.76,-0.76
240.64,5.03,5.77,5.03,5.79,-5.80,-5.97,-6.49,-0.77,-0.77,-0.75
243.05,5.01,5.77,5.01,5.78,-5.78,-5.95,-6.51,-0.77,-0.77,-0.77
245.48,5.00,5.77,4.99,5.77,-5.76,-5.93,-6.52,-0.77,-0.77,-0.78
247.93,4.98,5.76,4.98,5.76,-5.75,-5.91,-6.52,-0.77,-0.77,-0.79
250.41,4.96,5.73,4.96,5.74,-5.73,-5.89,-6.51,-0.78,-0.78,-0.78
252.92,4.94,5.72,4.93,5.72,-5.72,-5.87,-6.50,-0.78,-0.78,-0.79
255.45,4.91,5.70,4.91,5.70,-5.70,-5.84,-6.47,-0.79,-0.79,-0.80
258.00,4.88,5.67,4.88,5.67,-5.68,-5.82,-6.44,-0.80,-0.80,-0.80
260.58,4.85,5.64,4.85,5.65,-5.66,-5.79,-6.40,-0.81,-0.81,-0.80
263.19,4.83,5.62,4.83,5.63,-5.63,-5.77,-6.36,-0.81,-0.81,-0.80
265.82,4.81,5.61,4.80,5.61,-5.61,-5.74,-6.31,-0.81,-0.81,-0.81
268.48,4.79,5.59,4.78,5.59,-5.59,-5.71,-6.25,-0.81,-0.81,-0.81
271.16,4.76,5.56,4.76,5.57,-5.57,-5.68,-6.18,-0.82,-0.81,-0.81
273.87,4.74,5.54,4.74,5.55,-5.55,-5.65,-6.11,-0.81,-0.81,-0.81
276.61,4.72,5.52,4.71,5.53,-5.53,-5.62,-6.04,-0.81,-0.81,-0.81
279.38,4.69,5.51,4.69,5.51,-5.50,-5.58,-5.96,-0.81,-0.81,-0.83
282.17,4.66,5.48,4.66,5.48,-5.47,-5.55,-5.87,-0.81,-0.81,-0.83
284.99,4.63,5.44,4.62,5.45,-5.44,-5.51,-5.79,-0.81,-0.81,-0.82
287.84,4.59,5.39,4.59,5.40,-5.40,-5.48,-5.70,-0.82,-0.81,-0.81
290.72,4.56,5.37,4.55,5.36,-5.37,-5.44,-5.61,-0.81,-0.81,-0.82
293.63,4.52,5.32,4.52,5.33,-5.33,-5.40,-5.52,-0.82,-0.82,-0.81
296.57,4.49,5.28,4.49,5.29,-5.30,-5.37,-5.43,-0.81,-0.81,-0.80
299.53,4.46,5.25,4.46,5.25,-5.27,-5.33,-5.34,-0.81,-0.81,-0.80
302.53,4.45,5.22,4.44,5.23,-5.24,-5.29,-5.25,-0.79,-0.79,-0.78
305.55,4.43,5.21,4.43,5.21,-5.21,-5.25,-5.16,-0.78,-0.78,-0.79
308.61,4.41,5.18,4.41,5.18,-5.17,-5.21,-5.07,-0.77,-0.77,-0.78
311.69,4.38,5.14,4.38,5.15,-5.14,-5.17,-4.98,-0.76,-0.76,-0.77
314.81,4.35,5.11,4.35,5.11,-5.10,-5.13,-4.89,-0.75,-0.75,-0.77
317.96,4.31,5.06,4.31,5.07,-5.05,-5.08,-4.81,-0.75,-0.75,-0.76
321.14,4.27,5.01,4.26,5.01,-5.01,-5.04,-4.73,-0.74,-0.75,-0.75
324.35,4.22,4.96,4.22,4.96,-4.97,-5.00,-4.65,-0.75,-0.75,-0.75
327.59,4.18,4.89,4.18,4.91,-4.92,-4.96,-4.57,-0.75,-0.75,-0.72
330.87,4.14,4.86,4.14,4.87,-4.88,-4.91,-4.50,-0.75,-0.74,-0.73
334.18,4.12,4.83,4.12,4.83,-4.84,-4.87,-4.43,-0.73,-0.73,-0.72
337.52,4.10,4.81,4.10,4.81,-4.81,-4.82,-4.36,-0.71,-0.71,-0.72
340.90,4.08,4.77,4.08,4.78,-4.77,-4.78,-4.29,-0.70,-0.69,-0.70
344.30,4.06,4.74,4.05,4.75,-4.74,-4.73,-4.23,-0.68,-0.68,-0.69
347.75,4.03,4.71,4.02,4.71,-4.70,-4.69,-4.17,-0.67,-0.67,-0.69
351.23,3.99,4.67,3.99,4.67,-4.65,-4.64,-4.11,-0.67,-0.67,-0.69
354.74,3.95,4.60,3.94,4.62,-4.61,-4.60,-4.06,-0.66,-0.67,-0.66
358.28,3.90,4.56,3.90,4.56,-4.57,-4.55,-4.01,-0.67,-0.67,-0.67
361.87,3.86,4.51,3.86,4.51,-4.52,-4.50,-3.96,-0.67,-0.67,-0.66
365.49,3.82,4.46,3.82,4.46,-4.48,-4.46,-3.92,-0.67,-0.66,-0.65
369.14,3.79,4.41,3.79,4.42,-4.44,-4.41,-3.88,-0.66,-0.65,-0.63
372.83,3.77,4.39,3.77,4.40,-4.41,-4.37,-3.84,-0.64,-0.64,-0.63
376.56,3.76,4.38,3.75,4.38,-4.37,-4.32,-3.81,-0.61,-0.62,-0.63
380.33,3.74,4.35,3.73,4.35,-4.33,-4.27,-3.77,-0.60,-0.60,-0.62
384.13,3.71,4.30,3.71,4.31,-4.29,-4.23,-3.74,-0.59,-0.59,-0.60
387.97,3.67,4.26,3.67,4.26,-4.25,-4.18,-3.72,-0.58,-0.58,-0.60
391.85,3.63,4.21,3.62,4.21,-4.21,-4.13,-3.69,-0.58,-0.58,-0.59
395.77,3.58,4.15,3.58,4.16,-4.16,-4.08,-3.67,-0.59,-0.58,-0.58
399.73,3.54,4.10,3.54,4.10,-4.12,-4.04,-3.65,-0.58,-0.58,-0.57
403.72,3.51,4.04,3.50,4.06,-4.07,-3.99,-3.63,-0.57,-0.57,-0.54
407.76,3.48,4.02,3.48,4.02,-4.03,-3.94,-3.62,-0.55,-0.55,-0.55
411.84,3.46,3.99,3.46,3.99,-3.99,-3.90,-3.60,-0.53,-0.53,-0.54
415.96,3.44,3.95,3.43,3.96,-3.94,-3.85,-3.59,-0.51,-0.51,-0.52
420.12,3.41,3.92,3.40,3.92,-3.90,-3.80,-3.58,-0.50,-0.50,-0.52
424.32,3.37,3.87,3.36,3.87,-3.86,-3.76,-3.57,-0.49,-0.49,-0.51
428.56,3.32,3.80,3.32,3.81,-3.81,-3.71,-3.56,-0.50,-0.50,-0.49
432.85,3.27,3.74,3.27,3.76,-3.77,-3.66,-3.55,-0.50,-0.50,-0.48
437.18,3.23,3.71,3.23,3.71,-3.72,-3.62,-3.54,-0.49,-0.49,-0.49
441.55,3.20,3.67,3.19,3.67,-3.67,-3.57,-3.53,-0.48,-0.48,-0.48
445.96,3.16,3.62,3.16,3.63,-3.62,-3.52,-3.52,-0.47,-0.47,-0.47
450.42,3.12,3.57,3.12,3.58,-3.57,-3.48,-3.51,-0.46,-0.45,-0.46
454.93,3.09,3.53,3.08,3.53,-3.52,-3.43,-3.50,-0.44,-0.44,-0.45
459.48,3.05,3.48,3.05,3.48,-3.47,-3.38,-3.48,-0.43,-0.43,-0.44
464.07,3.01,3.42,3.00,3.43,-3.42,-3.34,-3.47,-0.42,-0.42,-0.42
468.71,2.96,3.36,2.96,3.37,-3.37,-3.29,-3.45,-0.42,-0.42,-0.41
473.40,2.91,3.31,2.91,3.31,-3.32,-3.25,-3.44,-0.42,-0.41,-0.41
478.13,2.87,3.26,2.87,3.26,-3.27,-3.20,-3.42,-0.41,-0.41,-0.40
482.91,2.83,3.21,2.83,3.22,-3.22,-3.15,-3.39,-0.40,-0.39,-0.39
487.74,2.80,3.17,2.80,3.17,-3.18,-3.11,-3.37,-0.38,-0.38,-0.38
492.62,2.77,3.13,2.76,3.13,-3.13,-3.06,-3.34,-0.36,-0.36,-0.37
497.55,2.73,3.08,2.73,3.09,-3.08,-3.02,-3.31,-0.35,-0.35,-0.36
502.52,2.70,3.04,2.69,3.04,-3.03,-2.97,-3.28,-0.33,-0.34,-0.35
507.55,2.66,2.98,2.66,2.99,-2.98,-2.93,-3.24,-0.33,-0.33,-0.33
512.62,2.62,2.93,2.62,2.93,-2.93,-2.88,-3.20,-0.32,-0.32,-0.32
517.75,2.58,2.87,2.58,2.88,-2.89,-2.83,-3.16,-0.31,-0.31,-0.30
522.93,2.54,2.82,2.54,2.83,-2.84,-2.79,-3.12,-0.30,-0.30,-0.29
