frequency,raw,error,smoothed,error_smoothed,equalization,parametric_eq,fixed_band_eq,equalized_raw,equalized_smoothed,target
20.00,-4.98,-7.74,-5.02,-7.80,7.80,7.77,2.84,2.82,2.78,2.76
20.20,-5.00,-7.76,-5.02,-7.79,7.79,7.76,2.92,2.79,2.77,2.76
20.40,-5.02,-7.78,-5.02,-7.79,7.79,7.75,3.00,2.77,2.76,2.76
20.61,-5.03,-7.78,-5.02,-7.78,7.78,7.74,3.09,2.75,2.75,2.75
20.81,-5.04,-7.79,-5.02,-7.77,7.77,7.72,3.18,2.72,2.74,2.75
21.02,-5.05,-7.80,-5.02,-7.75,7.75,7.71,3.27,2.70,2.73,2.75
21.23,-5.04,-7.77,-5.02,-7.73,7.73,7.69,3.37,2.69,2.72,2.73
21.44,-5.04,-7.76,-5.01,-7.72,7.72,7.67,3.47,2.68,2.70,2.72
21.66,-5.03,-7.73,-5.00,-7.70,7.70,7.65,3.57,2.66,2.69,2.70
21.87,-5.01,-7.69,-5.00,-7.67,7.67,7.62,3.67,2.66,2.68,2.68
22.09,-4.99,-7.66,-4.99,-7.65,7.65,7.60,3.78,2.66,2.66,2.67
22.31,-4.97,-7.61,-4.97,-7.62,7.62,7.57,3.89,2.65,2.64,2.64
22.54,-4.95,-7.57,-4.96,-7.58,7.58,7.54,4.00,2.63,2.62,2.62
22.76,-4.92,-7.52,-4.94,-7.54,7.54,7.51,4.12,2.62,2.60,2.60
22.99,-4.91,-7.48,-4.92,-7.50,7.50,7.48,4.24,2.59,2.57,2.57
23.22,-4.89,-7.43,-4.90,-7.45,7.45,7.45,4.36,2.56,2.55,2.54
23.45,-4.87,-7.39,-4.88,-7.41,7.41,7.41,4.48,2.54,2.53,2.52
23.69,-4.86,-7.37,-4.86,-7.37,7.37,7.37,4.61,2.51,2.51,2.51
23.92,-4.84,-7.33,-4.84,-7.33,7.33,7.34,4.74,2.49,2.49,2.49
24.16,-4.83,-7.30,-4.83,-7.29,7.29,7.30,4.87,2.46,2.47,2.47
24.40,-4.82,-7.27,-4.81,-7.26,7.26,7.25,5.01,2.44,2.45,2.45
24.65,-4.79,-7.22,-4.79,-7.22,7.22,7.21,5.15,2.43,2.43,2.43
24.89,-4.77,-7.18,-4.76,-7.18,7.18,7.17,5.28,2.41,2.41,2.41
25.14,-4.74,-7.14,-4.74,-7.14,7.14,7.12,5.43,2.40,2.40,2.40
25.39,-4.72,-7.10,-4.72,-7.10,7.10,7.08,5.57,2.38,2.38,2.38
25.65,-4.69,-7.06,-4.69,-7.05,7.05,7.03,5.71,2.36,2.36,2.37
25.91,-4.66,-7.00,-4.66,-7.01,7.01,6.98,5.85,2.35,2.35,2.34
26.16,-4.63,-6.96,-4.63,-6.96,6.96,6.93,6.00,2.33,2.33,2.33
26.43,-4.59,-6.91,-4.59,-6.91,6.91,6.88,6.14,2.31,2.31,2.32
26.69,-4.56,-6.85,-4.55,-6.85,6.85,6.83,6.28,2.29,2.30,2.29
26.96,-4.52,-6.80,-4.52,-6.80,6.80,6.78,6.42,2.28,2.28,2.28
27.23,-4.47,-6.74,-4.48,-6.74,6.74,6.73,6.56,2.27,2.27,2.27
27.50,-4.44,-6.70,-4.43,-6.69,6.69,6.67,6.69,2.25,2.25,2.26
27.77,-4.39,-6.63,-4.39,-6.63,6.63,6.62,6.82,2.24,2.24,2.24
28.05,-4.34,-6.57,-4.35,-6.57,6.57,6.56,6.95,2.23,2.22,2.23
28.33,-4.30,-6.50,-4.30,-6.51,6.51,6.51,7.07,2.21,2.21,2.20
28.62,-4.25,-6.44,-4.25,-6.45,6.45,6.45,7.18,2.20,2.20,2.19
28.90,-4.20,-6.38,-4.20,-6.39,6.39,6.40,7.29,2.19,2.18,2.18
29.19,-4.16,-6.32,-4.15,-6.32,6.32,6.34,7.38,2.16,2.17,2.16
29.48,-4.11,-6.27,-4.10,-6.26,6.26,6.28,7.47,2.15,2.16,2.16
29.78,-4.06,-6.21,-4.05,-6.20,6.20,6.23,7.54,2.14,2.14,2.15
30.08,-4.00,-6.14,-4.01,-6.13,6.13,6.17,7.61,2.13,2.13,2.13
30.38,-3.96,-6.07,-3.96,-6.07,6.07,6.11,7.66,2.11,2.11,2.11
30.68,-3.90,-6.00,-3.91,-6.01,6.01,6.06,7.70,2.11,2.10,2.10
30.99,-3.85,-5.93,-3.87,-5.95,5.95,6.00,7.72,2.10,2.08,2.08
31.30,-3.82,-5.89,-3.83,-5.89,5.89,5.94,7.74,2.07,2.06,2.06
31.61,-3.77,-5.82,-3.78,-5.83,5.83,5.88,7.74,2.06,2.04,2.05
31.93,-3.74,-5.77,-3.74,-5.77,5.77,5.82,7.72,2.02,2.03,2.03
32.24,-3.70,-5.70,-3.70,-5.70,5.70,5.77,7.70,2.00,2.01,2.00
32.57,-3.66,-5.64,-3.65,-5.64,5.64,5.71,7.66,1.98,1.99,1.98
32.89,-3.62,-5.59,-3.61,-5.58,5.58,5.65,7.61,1.96,1.96,1.97
33.22,-3.58,-5.52,-3.57,-5.51,5.51,5.60,7.55,1.93,1.94,1.94
33.55,-3.54,-5.46,-3.53,-5.45,5.45,5.54,7.48,1.91,1.92,1.93
33.89,-3.50,-5.40,-3.49,-5.39,5.39,5.48,7.41,1.89,1.90,1.90
34.23,-3.45,-5.33,-3.44,-5.32,5.32,5.43,7.32,1.87,1.88,1.88
34.57,-3.40,-5.26,-3.40,-5.26,5.26,5.37,7.23,1.86,1.86,1.86
34.92,-3.35,-5.18,-3.36,-5.20,5.20,5.32,7.13,1.84,1.84,1.83
35.27,-3.31,-5.13,-3.32,-5.13,5.13,5.26,7.02,1.82,1.82,1.82
35.62,-3.27,-5.06,-3.27,-5.07,5.07,5.21,6.91,1.80,1.79,1.79
35.97,-3.23,-5.00,-3.23,-5.01,5.01,5.15,6.80,1.78,1.77,1.77
36.33,-3.19,-4.94,-3.19,-4.94,4.94,5.10,6.69,1.75,1.75,1.76
36.70,-3.16,-4.89,-3.15,-4.88,4.88,5.05,6.57,1.72,1.73,1.73
37.06,-3.12,-4.83,-3.12,-4.83,4.83,4.99,6.45,1.71,1.71,1.71
37.43,-3.08,-4.77,-3.08,-4.77,4.77,4.94,6.34,1.69,1.69,1.69
37.81,-3.05,-4.72,-3.05,-4.72,4.72,4.89,6.22,1.67,1.66,1.67
38.19,-3.02,-4.66,-3.02,-4.67,4.67,4.84,6.10,1.65,1.64,1.64
38.57,-3.00,-4.63,-3.00,-4.62,4.62,4.79,5.99,1.62,1.62,1.63
38.95,-2.97,-4.57,-2.97,-4.57,4.57,4.74,5.87,1.60,1.60,1.60
39.34,-2.94,-4.51,-2.95,-4.53,4.53,4.69,5.76,1.59,1.58,1.57
39.74,-2.92,-4.47,-2.93,-4.49,4.49,4.65,5.65,1.57,1.56,1.55
40.14,-2.91,-4.45,-2.91,-4.45,4.45,4.60,5.55,1.54,1.54,1.54
40.54,-2.89,-4.41,-2.89,-4.41,4.41,4.55,5.44,1.52,1.52,1.52
40.94,-2.88,-4.38,-2.88,-4.38,4.38,4.51,5.34,1.50,1.50,1.50
41.35,-2.87,-4.34,-2.87,-4.35,4.35,4.46,5.25,1.48,1.48,1.47
41.76,-2.85,-4.32,-2.86,-4.32,4.32,4.42,5.15,1.47,1.46,1.47
42.18,-2.85,-4.30,-2.85,-4.29,4.29,4.38,5.06,1.44,1.44,1.45
42.60,-2.84,-4.26,-2.84,-4.26,4.26,4.34,4.98,1.42,1.42,1.42
43.03,-2.84,-4.25,-2.83,-4.23,4.23,4.30,4.89,1.39,1.40,1.41
43.46,-2.83,-4.21,-2.82,-4.20,4.20,4.26,4.82,1.37,1.38,1.38
43.90,-2.82,-4.17,-2.82,-4.18,4.18,4.22,4.74,1.36,1.36,1.35
44.33,-2.81,-4.15,-2.81,-4.15,4.15,4.18,4.67,1.34,1.34,1.34
44.78,-2.81,-4.13,-2.81,-4.13,4.13,4.15,4.60,1.32,1.32,1.32
45.23,-2.80,-4.09,-2.80,-4.10,4.10,4.11,4.53,1.30,1.30,1.29
45.68,-2.81,-4.08,-2.80,-4.08,4.08,4.08,4.47,1.27,1.28,1.27
46.13,-2.80,-4.05,-2.80,-4.05,4.05,4.04,4.42,1.25,1.25,1.25
46.60,-2.79,-4.03,-2.80,-4.03,4.03,4.01,4.36,1.24,1.23,1.24
47.06,-2.79,-4.00,-2.79,-4.00,4.00,3.98,4.31,1.21,1.21,1.21
47.53,-2.79,-3.98,-2.79,-3.98,3.98,3.95,4.26,1.19,1.18,1.19
48.01,-2.79,-3.97,-2.79,-3.96,3.96,3.92,4.22,1.17,1.16,1.18
48.49,-2.80,-3.95,-2.80,-3.93,3.93,3.89,4.18,1.13,1.14,1.15
48.97,-2.80,-3.91,-2.80,-3.91,3.91,3.86,4.14,1.11,1.12,1.11
49.46,-2.80,-3.88,-2.80,-3.89,3.89,3.84,4.10,1.09,1.09,1.08
49.96,-2.81,-3.86,-2.81,-3.87,3.87,3.81,4.07,1.06,1.07,1.05
50.46,-2.81,-3.85,-2.81,-3.85,3.85,3.79,4.04,1.04,1.04,1.04
50.96,-2.81,-3.83,-2.82,-3.83,3.83,3.77,4.01,1.02,1.02,1.02
51.47,-2.82,-3.80,-2.82,-3.81,3.81,3.75,3.98,0.99,0.99,0.98
51.99,-2.83,-3.79,-2.83,-3.79,3.79,3.72,3.96,0.96,0.96,0.96
52.51,-2.84,-3.78,-2.84,-3.77,3.77,3.70,3.93,0.93,0.93,0.94
53.03,-2.84,-3.75,-2.84,-3.75,3.75,3.69,3.91,0.91,0.91,0.91
53.56,-2.85,-3.74,-2.85,-3.73,3.73,3.67,3.89,0.88,0.88,0.89
54.10,-2.85,-3.71,-2.85,-3.71,3.71,3.65,3.87,0.86,0.85,0.86
54.64,-2.86,-3.69,-2.86,-3.69,3.69,3.63,3.85,0.83,0.83,0.83
55.18,-2.87,-3.67,-2.86,-3.66,3.66,3.62,3.83,0.79,0.80,0.80
55.74,-2.87,-3.64,-2.87,-3.64,3.64,3.60,3.81,0.77,0.77,0.77
56.29,-2.88,-3.63,-2.87,-3.62,3.62,3.59,3.79,0.74,0.75,0.75
56.86,-2.87,-3.59,-2.88,-3.59,3.59,3.57,3.76,0.72,0.72,0.72
57.42,-2.88,-3.56,-2.88,-3.57,3.57,3.56,3.74,0.69,0.69,0.68
58.00,-2.88,-3.54,-2.88,-3.54,3.54,3.54,3.72,0.66,0.66,0.66
58.58,-2.89,-3.52,-2.89,-3.52,3.52,3.53,3.69,0.63,0.63,0.63
59.16,-2.88,-3.48,-2.89,-3.49,3.49,3.52,3.67,0.61,0.60,0.60
59.76,-2.89,-3.47,-2.90,-3.47,3.47,3.50,3.64,0.58,0.57,0.58
60.35,-2.90,-3.44,-2.90,-3.44,3.44,3.49,3.61,0.54,0.54,0.54
60.96,-2.91,-3.44,-2.90,-3.41,3.41,3.48,3.57,0.50,0.51,0.53
61.57,-2.91,-3.39,-2.91,-3.39,3.39,3.46,3.54,0.48,0.48,0.48
62.18,-2.91,-3.35,-2.91,-3.36,3.36,3.45,3.50,0.45,0.45,0.44
62.80,-2.92,-3.33,-2.92,-3.33,3.33,3.43,3.46,0.41,0.41,0.41
63.43,-2.92,-3.29,-2.92,-3.31,3.31,3.42,3.41,0.39,0.38,0.37
64.07,-2.93,-3.27,-2.93,-3.28,3.28,3.40,3.36,0.35,0.35,0.34
64.71,-2.93,-3.25,-2.93,-3.25,3.25,3.38,3.31,0.32,0.32,0.32
65.35,-2.94,-3.22,-2.93,-3.22,3.22,3.37,3.26,0.28,0.29,0.28
66.01,-2.94,-3.20,-2.94,-3.20,3.20,3.35,3.21,0.26,0.26,0.26
66.67,-2.94,-3.17,-2.94,-3.17,3.17,3.32,3.15,0.23,0.23,0.23
67.33,-2.94,-3.14,-2.94,-3.14,3.14,3.30,3.09,0.20,0.20,0.20
68.01,-2.95,-3.11,-2.94,-3.11,3.11,3.28,3.03,0.16,0.17,0.16
68.69,-2.94,-3.08,-2.95,-3.08,3.08,3.25,2.97,0.14,0.13,0.14
69.37,-2.95,-3.05,-2.95,-3.05,3.05,3.23,2.90,0.10,0.10,0.10
70.07,-2.95,-3.02,-2.95,-3.02,3.02,3.20,2.83,0.07,0.07,0.07
70.77,-2.95,-2.99,-2.95,-2.99,2.99,3.17,2.76,0.04,0.03,0.04
71.48,-2.95,-2.95,-2.95,-2.95,2.95,3.13,2.69,-0.00,-0.00,-0.00
72.19,-2.96,-2.93,-2.95,-2.91,2.91,3.10,2.62,-0.05,-0.04,-0.03
72.91,-2.95,-2.87,-2.96,-2.88,2.88,3.06,2.55,-0.07,-0.08,-0.08
73.64,-2.96,-2.84,-2.96,-2.84,2.84,3.02,2.48,-0.12,-0.12,-0.12
74.38,-2.96,-2.80,-2.96,-2.80,2.80,2.98,2.41,-0.16,-0.16,-0.16
75.12,-2.96,-2.75,-2.96,-2.76,2.76,2.94,2.34,-0.20,-0.20,-0.21
75.87,-2.96,-2.71,-2.96,-2.72,2.72,2.89,2.26,-0.24,-0.25,-0.25
76.63,-2.96,-2.67,-2.96,-2.67,2.67,2.84,2.19,-0.29,-0.29,-0.29
77.40,-2.97,-2.63,-2.96,-2.63,2.63,2.79,2.12,-0.34,-0.34,-0.34
78.17,-2.97,-2.57,-2.97,-2.58,2.58,2.74,2.05,-0.39,-0.39,-0.40
78.95,-2.97,-2.54,-2.97,-2.53,2.53,2.68,1.97,-0.44,-0.43,-0.43
79.74,-2.97,-2.49,-2.97,-2.48,2.48,2.62,1.90,-0.49,-0.48,-0.48
80.54,-2.97,-2.44,-2.97,-2.43,2.43,2.56,1.83,-0.54,-0.54,-0.53
81.35,-2.97,-2.38,-2.97,-2.38,2.38,2.50,1.76,-0.59,-0.59,-0.59
82.16,-2.97,-2.33,-2.97,-2.33,2.33,2.44,1.69,-0.64,-0.64,-0.64
82.98,-2.97,-2.28,-2.97,-2.28,2.28,2.37,1.63,-0.69,-0.69,-0.69
83.81,-2.97,-2.22,-2.98,-2.23,2.23,2.30,1.56,-0.74,-0.75,-0.75
84.65,-2.98,-2.17,-2.98,-2.17,2.17,2.24,1.49,-0.81,-0.80,-0.81
85.50,-2.98,-2.12,-2.98,-2.12,2.12,2.17,1.43,-0.86,-0.86,-0.86
86.35,-2.98,-2.06,-2.98,-2.06,2.06,2.09,1.36,-0.92,-0.92,-0.92
87.22,-2.99,-2.01,-2.98,-2.01,2.01,2.02,1.30,-0.98,-0.98,-0.98
88.09,-2.98,-1.94,-2.99,-1.95,1.95,1.95,1.24,-1.03,-1.03,-1.04
88.97,-2.99,-1.90,-2.99,-1.89,1.89,1.87,1.17,-1.10,-1.09,-1.09
89.86,-2.99,-1.84,-2.99,-1.84,1.84,1.80,1.11,-1.15,-1.15,-1.15
90.76,-2.99,-1.77,-2.99,-1.78,1.78,1.72,1.05,-1.21,-1.21,-1.22
91.66,-2.99,-1.71,-2.99,-1.72,1.72,1.64,0.99,-1.27,-1.28,-1.28
92.58,-3.00,-1.65,-2.99,-1.66,1.66,1.57,0.93,-1.34,-1.34,-1.35
93.51,-3.00,-1.61,-3.00,-1.59,1.59,1.49,0.88,-1.41,-1.40,-1.39
94.44,-2.99,-1.53,-3.00,-1.53,1.53,1.41,0.82,-1.46,-1.47,-1.46
95.39,-3.00,-1.48,-3.00,-1.46,1.46,1.33,0.76,-1.54,-1.53,-1.52
96.34,-3.00,-1.40,-3.00,-1.40,1.40,1.25,0.71,-1.60,-1.60,-1.60
97.30,-3.00,-1.33,-3.00,-1.33,1.33,1.17,0.65,-1.67,-1.67,-1.67
98.28,-3.00,-1.27,-3.00,-1.26,1.26,1.10,0.60,-1.74,-1.74,-1.73
99.26,-3.00,-1.19,-3.00,-1.20,1.20,1.02,0.54,-1.80,-1.81,-1.81
100.25,-3.00,-1.12,-3.00,-1.13,1.13,0.94,0.49,-1.87,-1.88,-1.88
101.25,-3.00,-1.06,-3.00,-1.06,1.06,0.86,0.44,-1.94,-1.95,-1.94
102.27,-3.00,-0.98,-3.00,-0.98,0.98,0.79,0.39,-2.02,-2.02,-2.02
103.29,-3.00,-0.90,-3.00,-0.91,0.91,0.71,0.34,-2.09,-2.09,-2.10
104.32,-3.00,-0.83,-3.00,-0.84,0.84,0.64,0.29,-2.16,-2.17,-2.17
105.37,-3.00,-0.77,-3.00,-0.76,0.76,0.56,0.24,-2.24,-2.24,-2.23
106.42,-3.01,-0.70,-3.00,-0.69,0.69,0.49,0.19,-2.32,-2.32,-2.31
107.48,-3.01,-0.62,-3.00,-0.61,0.61,0.41,0.14,-2.40,-2.39,-2.39
108.56,-3.00,-0.53,-3.00,-0.53,0.53,0.34,0.10,-2.47,-2.47,-2.47
109.64,-3.00,-0.45,-3.00,-0.46,0.46,0.27,0.05,-2.54,-2.55,-2.55
110.74,-3.00,-0.39,-3.00,-0.38,0.38,0.20,0.01,-2.62,-2.62,-2.61
111.85,-3.00,-0.31,-3.00,-0.30,0.30,0.13,-0.04,-2.70,-2.70,-2.69
112.97,-3.00,-0.21,-3.00,-0.22,0.22,0.06,-0.08,-2.78,-2.78,-2.79
114.10,-3.00,-0.15,-2.99,-0.14,0.14,-0.01,-0.13,-2.86,-2.86,-2.85
115.24,-2.99,-0.06,-2.99,-0.06,0.06,-0.07,-0.17,-2.93,-2.93,-2.93
116.39,-2.98,0.04,-2.99,0.02,-0.02,-0.14,-0.21,-3.00,-3.01,-3.02
117.55,-2.98,0.11,-2.99,0.10,-0.10,-0.20,-0.25,-3.08,-3.08,-3.09
118.73,-2.98,0.19,-2.98,0.18,-0.18,-0.27,-0.29,-3.16,-3.16,-3.17
119.92,-2.98,0.25,-2.98,0.25,-0.25,-0.33,-0.33,-3.23,-3.23,-3.23
121.12,-2.98,0.32,-2.97,0.33,-0.33,-0.39,-0.36,-3.31,-3.30,-3.30
122.33,-2.97,0.41,-2.97,0.41,-0.41,-0.45,-0.40,-3.38,-3.38,-3.38
123.55,-2.97,0.47,-2.97,0.48,-0.48,-0.51,-0.44,-3.45,-3.45,-3.44
124.79,-2.96,0.55,-2.96,0.56,-0.56,-0.57,-0.47,-3.52,-3.52,-3.51
126.03,-2.96,0.61,-2.96,0.63,-0.63,-0.63,-0.50,-3.59,-3.58,-3.57
127.29,-2.95,0.69,-2.95,0.70,-0.70,-0.68,-0.54,-3.65,-3.65,-3.64
128.57,-2.95,0.77,-2.95,0.77,-0.77,-0.74,-0.57,-3.72,-3.72,-3.72
129.85,-2.94,0.84,-2.94,0.83,-0.83,-0.79,-0.60,-3.77,-3.78,-3.78
131.15,-2.94,0.90,-2.94,0.90,-0.90,-0.85,-0.63,-3.84,-3.84,-3.84
132.46,-2.93,0.98,-2.93,0.97,-0.97,-0.90,-0.66,-3.90,-3.90,-3.91
133.79,-2.93,1.03,-2.93,1.03,-1.03,-0.95,-0.69,-3.96,-3.96,-3.96
135.12,-2.92,1.10,-2.92,1.09,-1.09,-1.00,-0.72,-4.01,-4.01,-4.02
136.48,-2.92,1.15,-2.92,1.15,-1.15,-1.05,-0.75,-4.07,-4.07,-4.07
137.84,-2.92,1.19,-2.91,1.20,-1.20,-1.10,-0.78,-4.12,-4.12,-4.11
139.22,-2.91,1.26,-2.91,1.26,-1.26,-1.15,-0.81,-4.17,-4.16,-4.17
140.61,-2.91,1.32,-2.90,1.31,-1.31,-1.19,-0.84,-4.22,-4.21,-4.23
142.02,-2.90,1.35,-2.90,1.35,-1.35,-1.24,-0.87,-4.25,-4.25,-4.25
143.44,-2.89,1.40,-2.89,1.40,-1.40,-1.28,-0.90,-4.29,-4.29,-4.29
144.87,-2.89,1.45,-2.89,1.45,-1.45,-1.32,-0.92,-4.34,-4.33,-4.34
146.32,-2.88,1.49,-2.88,1.49,-1.49,-1.37,-0.95,-4.37,-4.37,-4.37
147.78,-2.87,1.53,-2.88,1.53,-1.53,-1.41,-0.98,-4.40,-4.41,-4.40
149.26,-2.86,1.58,-2.87,1.58,-1.58,-1.45,-1.01,-4.44,-4.45,-4.44
150.75,-2.87,1.61,-2.86,1.62,-1.62,-1.49,-1.04,-4.49,-4.48,-4.48
152.26,-2.86,1.66,-2.86,1.66,-1.66,-1.53,-1.07,-4.52,-4.52,-4.52
153.78,-2.85,1.70,-2.85,1.70,-1.70,-1.57,-1.11,-4.55,-4.55,-4.55
155.32,-2.85,1.73,-2.85,1.74,-1.74,-1.61,-1.14,-4.59,-4.59,-4.58
156.88,-2.84,1.78,-2.84,1.78,-1.78,-1.64,-1.17,-4.62,-4.62,-4.62
158.44,-2.84,1.82,-2.84,1.82,-1.82,-1.68,-1.21,-4.66,-4.66,-4.66
160.03,-2.83,1.87,-2.83,1.86,-1.86,-1.71,-1.24,-4.69,-4.69,-4.70
161.63,-2.83,1.90,-2.83,1.90,-1.90,-1.75,-1.28,-4.73,-4.72,-4.73
163.24,-2.82,1.94,-2.82,1.94,-1.94,-1.78,-1.32,-4.76,-4.76,-4.76
164.88,-2.82,1.97,-2.82,1.98,-1.98,-1.81,-1.35,-4.80,-4.79,-4.79
166.53,-2.81,2.01,-2.82,2.01,-2.01,-1.85,-1.39,-4.82,-4.83,-4.82
168.19,-2.81,2.06,-2.81,2.05,-2.05,-1.88,-1.43,-4.86,-4.87,-4.87
169.87,-2.81,2.09,-2.81,2.09,-2.09,-1.91,-1.48,-4.90,-4.90,-4.90
171.57,-2.80,2.14,-2.81,2.14,-2.14,-1.94,-1.52,-4.94,-4.94,-4.94
173.29,-2.81,2.16,-2.80,2.18,-2.18,-1.97,-1.57,-4.99,-4.98,-4.97
175.02,-2.80,2.21,-2.80,2.22,-2.22,-2.00,-1.61,-5.02,-5.02,-5.01
176.77,-2.80,2.26,-2.80,2.26,-2.26,-2.03,-1.66,-5.06,-5.06,-5.06
178.54,-2.80,2.30,-2.80,2.30,-2.30,-2.05,-1.71,-5.10,-5.10,-5.10
180.32,-2.80,2.34,-2.80,2.34,-2.34,-2.08,-1.76,-5.14,-5.14,-5.14
182.13,-2.80,2.38,-2.80,2.38,-2.38,-2.11,-1.81,-5.18,-5.18,-5.18
183.95,-2.80,2.42,-2.80,2.42,-2.42,-2.13,-1.86,-5.22,-5.22,-5.22
185.79,-2.79,2.47,-2.80,2.46,-2.46,-2.16,-1.92,-5.25,-5.26,-5.26
187.65,-2.79,2.51,-2.80,2.50,-2.50,-2.18,-1.97,-5.29,-5.29,-5.30
189.52,-2.80,2.54,-2.80,2.53,-2.53,-2.21,-2.03,-5.33,-5.33,-5.34
191.42,-2.80,2.57,-2.80,2.57,-2.57,-2.23,-2.09,-5.37,-5.37,-5.37
193.33,-2.80,2.60,-2.80,2.60,-2.60,-2.25,-2.14,-5.40,-5.40,-5.40
195.27,-2.80,2.63,-2.80,2.63,-2.63,-2.28,-2.20,-5.43,-5.44,-5.43
197.22,-2.81,2.65,-2.81,2.66,-2.66,-2.30,-2.26,-5.47,-5.47,-5.46
199.19,-2.81,2.70,-2.81,2.69,-2.69,-2.32,-2.32,-5.50,-5.50,-5.51
201.18,-2.81,2.72,-2.81,2.71,-2.71,-2.34,-2.39,-5.52,-5.53,-5.53
203.19,-2.82,2.73,-2.81,2.74,-2.74,-2.36,-2.45,-5.56,-5.55,-5.55
205.23,-2.82,2.76,-2.82,2.76,-2.76,-2.38,-2.51,-5.58,-5.58,-5.58
207.28,-2.82,2.77,-2.82,2.78,-2.78,-2.40,-2.57,-5.60,-5.60,-5.59
209.35,-2.82,2.81,-2.82,2.80,-2.80,-2.42,-2.64,-5.62,-5.63,-5.63
211.44,-2.82,2.83,-2.82,2.82,-2.82,-2.44,-2.70,-5.64,-5.65,-5.65
213.56,-2.82,2.85,-2.83,2.84,-2.84,-2.46,-2.76,-5.66,-5.67,-5.67
215.69,-2.83,2.85,-2.83,2.86,-2.86,-2.47,-2.82,-5.69,-5.68,-5.68
217.85,-2.83,2.86,-2.83,2.87,-2.87,-2.49,-2.88,-5.70,-5.70,-5.69
220.03,-2.83,2.89,-2.83,2.88,-2.88,-2.51,-2.93,-5.71,-5.71,-5.72
222.23,-2.83,2.90,-2.83,2.89,-2.89,-2.52,-2.99,-5.72,-5.72,-5.73
224.45,-2.83,2.89,-2.83,2.90,-2.90,-2.54,-3.04,-5.73,-5.73,-5.72
226.70,-2.83,2.91,-2.83,2.91,-2.91,-2.56,-3.09,-5.74,-5.73,-5.74
228.96,-2.82,2.92,-2.82,2.91,-2.91,-2.57,-3.14,-5.73,-5.74,-5.74
231.25,-2.82,2.91,-2.82,2.92,-2.92,-2.59,-3.18,-5.74,-5.74,-5.73
233.57,-2.82,2.91,-2.82,2.92,-2.92,-2.60,-3.22,-5.74,-5.73,-5.73
235.90,-2.81,2.92,-2.81,2.92,-2.92,-2.61,-3.26,-5.73,-5.73,-5.73
238.26,-2.80,2.93,-2.80,2.92,-2.92,-2.63,-3.29,-5.72,-5.72,-5.73
240.64,-2.80,2.91,-2.80,2.92,-2.92,-2.64,-3.32,-5.72,-5.71,-5.71
243.05,-2.78,2.92,-2.79,2.91,-2.91,-2.66,-3.34,-5.69,-5.70,-5.70
245.48,-2.78,2.90,-2.78,2.91,-2.91,-2.67,-3.36,-5.69,-5.68,-5.68
247.93,-2.77,2.90,-2.77,2.90,-2.90,-2.68,-3.37,-5.67,-5.67,-5.67
250.41,-2.75,2.91,-2.75,2.90,-2.90,-2.69,-3.38,-5.65,-5.65,-5.66
252.92,-2.74,2.89,-2.74,2.89,-2.89,-2.70,-3.39,-5.63,-5.63,-5.63
255.45,-2.74,2.87,-2.73,2.88,-2.88,-2.72,-3.38,-5.62,-5.61,-5.61
258.00,-2.72,2.87,-2.72,2.88,-2.88,-2.73,-3.38,-5.60,-5.59,-5.59
260.58,-2.70,2.87,-2.70,2.87,-2.87,-2.74,-3.37,-5.57,-5.57,-5.57
263.19,-2.69,2.86,-2.69,2.86,-2.86,-2.75,-3.35,-5.55,-5.55,-5.55
265.82,-2.67,2.86,-2.67,2.85,-2.85,-2.76,-3.33,-5.52,-5.53,-5.53
268.48,-2.66,2.85,-2.66,2.85,-2.85,-2.77,-3.31,-5.51,-5.51,-5.51
271.16,-2.64,2.83,-2.64,2.84,-2.84,-2.78,-3.28,-5.48,-5.48,-5.47
273.87,-2.63,2.83,-2.63,2.83,-2.83,-2.79,-3.25,-5.46,-5.46,-5.46
276.61,-2.61,2.82,-2.61,2.82,-2.82,-2.80,-3.22,-5.43,-5.44,-5.43
279.38,-2.60,2.81,-2.60,2.82,-2.82,-2.80,-3.19,-5.42,-5.41,-5.41
282.17,-2.58,2.81,-2.58,2.81,-2.81,-2.81,-3.15,-5.39,-5.39,-5.39
284.99,-2.57,2.80,-2.57,2.80,-2.80,-2.82,-3.11,-5.37,-5.36,-5.37
287.84,-2.56,2.78,-2.55,2.79,-2.79,-2.83,-3.06,-5.35,-5.34,-5.34
290.72,-2.53,2.78,-2.54,2.77,-2.77,-2.84,-3.02,-5.30,-5.31,-5.31
293.63,-2.52,2.77,-2.52,2.76,-2.76,-2.84,-2.98,-5.28,-5.28,-5.29
296.57,-2.51,2.75,-2.51,2.75,-2.75,-2.85,-2.93,-5.26,-5.25,-5.26
299.53,-2.49,2.74,-2.49,2.73,-2.73,-2.86,-2.89,-5.22,-5.23,-5.23
302.53,-2.48,2.73,-2.48,2.71,-2.71,-2.86,-2.84,-5.20,-5.20,-5.21
305.55,-2.47,2.69,-2.47,2.70,-2.70,-2.87,-2.79,-5.17,-5.16,-5.16
308.61,-2.45,2.69,-2.46,2.68,-2.68,-2.88,-2.75,-5.13,-5.13,-5.14
311.69,-2.44,2.66,-2.45,2.66,-2.66,-2.88,-2.70,-5.10,-5.10,-5.10
314.81,-2.43,2.63,-2.44,2.64,-2.64,-2.89,-2.66,-5.07,-5.07,-5.06
317.96,-2.43,2.61,-2.43,2.61,-2.61,-2.89,-2.61,-5.04,-5.04,-5.04
321.14,-2.42,2.59,-2.42,2.59,-2.59,-2.90,-2.57,-5.01,-5.01,-5.01
324.35,-2.41,2.57,-2.41,2.57,-2.57,-2.91,-2.53,-4.98,-4.98,-4.98
327.59,-2.41,2.54,-2.40,2.55,-2.55,-2.91,-2.49,-4.96,-4.95,-4.95
330.87,-2.40,2.52,-2.40,2.53,-2.53,-2.91,-2.45,-4.93,-4.93,-4.92
334.18,-2.40,2.50,-2.39,2.51,-2.51,-2.92,-2.41,-4.91,-4.90,-4.90
337.52,-2.38,2.50,-2.39,2.49,-2.49,-2.92,-2.38,-4.87,-4.88,-4.88
340.90,-2.38,2.47,-2.38,2.47,-2.47,-2.93,-2.34,-4.85,-4.85,-4.85
344.30,-2.38,2.45,-2.38,2.45,-2.45,-2.93,-2.31,-4.83,-4.83,-4.83
347.75,-2.37,2.44,-2.37,2.44,-2.44,-2.93,-2.28,-4.81,-4.81,-4.81
351.23,-2.36,2.43,-2.37,2.43,-2.43,-2.94,-2.25,-4.79,-4.79,-4.79
354.74,-2.36,2.41,-2.36,2.41,-2.41,-2.94,-2.22,-4.77,-4.77,-4.77
358.28,-2.36,2.39,-2.35,2.40,-2.40,-2.94,-2.20,-4.76,-4.75,-4.75
361.87,-2.35,2.39,-2.34,2.39,-2.39,-2.95,-2.17,-4.74,-4.73,-4.74
365.49,-2.34,2.37,-2.33,2.38,-2.38,-2.95,-2.15,-4.72,-4.71,-4.71
369.14,-2.33,2.37,-2.33,2.37,-2.37,-2.95,-2.13,-4.70,-4.70,-4.70
372.83,-2.32,2.36,-2.32,2.36,-2.36,-2.95,-2.11,-4.68,-4.68,-4.68
376.56,-2.30,2.36,-2.31,2.35,-2.35,-2.96,-2.09,-4.65,-4.66,-4.66
380.33,-2.29,2.35,-2.29,2.34,-2.34,-2.96,-2.08,-4.63,-4.64,-4.64
384.13,-2.28,2.34,-2.28,2.34,-2.34,-2.96,-2.07,-4.62,-4.62,-4.62
387.97,-2.27,2.33,-2.27,2.33,-2.33,-2.96,-2.05,-4.60,-4.60,-4.60
391.85,-2.26,2.32,-2.26,2.32,-2.32,-2.96,-2.04,-4.58,-4.58,-4.58
395.77,-2.25,2.30,-2.24,2.31,-2.31,-2.96,-2.03,-4.56,-4.56,-4.55
399.73,-2.23,2.30,-2.23,2.31,-2.31,-2.97,-2.02,-4.54,-4.54,-4.53
403.72,-2.22,2.30,-2.22,2.29,-2.29,-2.97,-2.02,-4.51,-4.52,-4.52
407.76,-2.21,2.29,-2.21,2.29,-2.29,-2.97,-2.01,-4.50,-4.49,-4.50
411.84,-2.21,2.26,-2.20,2.27,-2.27,-2.97,-2.01,-4.48,-4.47,-4.47
415.96,-2.19,2.26,-2.19,2.26,-2.26,-2.97,-2.01,-4.45,-4.45,-4.45
420.12,-2.18,2.25,-2.18,2.24,-2.24,-2.97,-2.01,-4.42,-4.43,-4.43
424.32,-2.18,2.22,-2.18,2.23,-2.23,-2.97,-2.00,-4.41,-4.41,-4.40
428.56,-2.18,2.20,-2.18,2.21,-2.21,-2.97,-2.00,-4.39,-4.38,-4.38
432.85,-2.18,2.19,-2.18,2.18,-2.18,-2.97,-2.01,-4.36,-4.36,-4.37
437.18,-2.18,2.16,-2.18,2.15,-2.15,-2.97,-2.01,-4.33,-4.34,-4.34
441.55,-2.18,2.13,-2.19,2.12,-2.12,-2.97,-2.01,-4.30,-4.31,-4.31
445.96,-2.19,2.10,-2.21,2.08,-2.08,-2.97,-2.01,-4.27,-4.29,-4.29
450.42,-2.20,2.07,-2.22,2.04,-2.04,-2.97,-2.02,-4.24,-4.26,-4.27
454.93,-2.23,2.00,-2.24,1.99,-1.99,-2.97,-2.02,-4.22,-4.23,-4.23
459.48,-2.25,1.96,-2.27,1.94,-1.94,-2.97,-2.02,-4.19,-4.21,-4.21
