frequency,raw,error,smoothed,error_smoothed,equalization,parametric_eq,fixed_band_eq,equalized_raw,equalized_smoothed,target
20.00,12.28,2.86,12.28,2.86,-2.86,-0.66,-0.80,9.42,9.42,9.41
20.20,12.19,2.78,12.19,2.78,-2.78,-0.68,-0.82,9.41,9.40,9.40
20.40,12.10,2.70,12.10,2.71,-2.71,-0.69,-0.84,9.39,9.39,9.39
20.61,12.02,2.63,12.02,2.63,-2.63,-0.71,-0.86,9.38,9.38,9.38
20.81,11.93,2.56,11.93,2.56,-2.56,-0.73,-0.88,9.36,9.37,9.36
21.02,11.85,2.49,11.85,2.49,-2.49,-0.74,-0.90,9.36,9.36,9.35
21.23,11.77,2.42,11.77,2.42,-2.42,-0.76,-0.92,9.35,9.35,9.34
21.44,11.69,2.33,11.69,2.35,-2.35,-0.78,-0.95,9.34,9.34,9.35
21.66,11.62,2.28,11.61,2.28,-2.28,-0.80,-0.97,9.33,9.33,9.33
21.87,11.54,2.20,11.54,2.22,-2.22,-0.82,-1.00,9.32,9.32,9.33
22.09,11.47,2.15,11.47,2.15,-2.15,-0.84,-1.02,9.32,9.31,9.31
22.31,11.40,2.09,11.39,2.09,-2.09,-0.86,-1.05,9.31,9.31,9.30
22.54,11.33,2.03,11.32,2.02,-2.02,-0.88,-1.07,9.31,9.30,9.29
22.76,11.26,1.96,11.25,1.96,-1.96,-0.90,-1.10,9.30,9.29,9.29
22.99,11.20,1.91,11.19,1.90,-1.90,-0.92,-1.13,9.30,9.29,9.28
23.22,11.13,1.85,11.12,1.84,-1.84,-0.95,-1.16,9.29,9.28,9.27
23.45,11.06,1.77,11.06,1.78,-1.78,-0.97,-1.19,9.28,9.28,9.28
23.69,11.00,1.72,11.00,1.72,-1.72,-0.99,-1.22,9.28,9.27,9.27
23.92,10.93,1.66,10.94,1.67,-1.67,-1.02,-1.25,9.26,9.27,9.26
24.16,10.87,1.59,10.88,1.62,-1.62,-1.04,-1.28,9.25,9.27,9.27
24.40,10.82,1.54,10.83,1.57,-1.57,-1.07,-1.31,9.25,9.26,9.27
24.65,10.77,1.50,10.78,1.52,-1.52,-1.10,-1.34,9.25,9.26,9.26
24.89,10.73,1.46,10.73,1.47,-1.47,-1.12,-1.38,9.25,9.26,9.26
25.14,10.69,1.43,10.69,1.43,-1.43,-1.15,-1.41,9.26,9.26,9.25
25.39,10.66,1.40,10.64,1.38,-1.38,-1.18,-1.44,9.27,9.26,9.25
25.65,10.61,1.35,10.60,1.34,-1.34,-1.21,-1.48,9.26,9.26,9.25
25.91,10.57,1.31,10.56,1.30,-1.30,-1.24,-1.52,9.26,9.26,9.25
26.16,10.54,1.27,10.52,1.27,-1.27,-1.28,-1.55,9.27,9.25,9.26
26.43,10.51,1.25,10.49,1.23,-1.23,-1.31,-1.59,9.28,9.26,9.25
26.69,10.47,1.21,10.45,1.20,-1.20,-1.34,-1.63,9.27,9.26,9.25
26.96,10.43,1.17,10.42,1.17,-1.17,-1.38,-1.66,9.26,9.26,9.25
27.23,10.39,1.13,10.39,1.13,-1.13,-1.41,-1.70,9.25,9.26,9.25
27.50,10.35,1.09,10.37,1.10,-1.10,-1.45,-1.74,9.24,9.26,9.25
27.77,10.33,1.06,10.34,1.08,-1.08,-1.49,-1.78,9.25,9.26,9.26
28.05,10.32,1.06,10.32,1.06,-1.06,-1.53,-1.82,9.26,9.26,9.25
28.33,10.31,1.04,10.31,1.04,-1.04,-1.57,-1.86,9.26,9.26,9.26
28.62,10.30,1.03,10.30,1.03,-1.03,-1.61,-1.90,9.26,9.26,9.26
28.90,10.30,1.02,10.30,1.03,-1.03,-1.65,-1.94,9.27,9.26,9.27
29.19,10.30,1.02,10.30,1.03,-1.03,-1.70,-1.98,9.26,9.26,9.27
29.48,10.30,1.03,10.31,1.04,-1.04,-1.74,-2.02,9.25,9.26,9.26
29.78,10.31,1.04,10.32,1.06,-1.06,-1.79,-2.06,9.25,9.26,9.26
30.08,10.33,1.06,10.34,1.09,-1.09,-1.84,-2.10,9.24,9.26,9.26
30.38,10.37,1.12,10.37,1.12,-1.12,-1.89,-2.14,9.25,9.25,9.24
30.68,10.41,1.16,10.40,1.15,-1.15,-1.94,-2.18,9.26,9.25,9.24
30.99,10.44,1.19,10.43,1.19,-1.19,-1.99,-2.23,9.25,9.24,9.24
31.30,10.49,1.24,10.47,1.23,-1.23,-2.05,-2.27,9.25,9.24,9.24
31.61,10.53,1.29,10.52,1.28,-1.28,-2.10,-2.31,9.24,9.23,9.23
31.93,10.58,1.36,10.56,1.34,-1.34,-2.16,-2.35,9.24,9.22,9.21
32.24,10.63,1.40,10.61,1.40,-1.40,-2.22,-2.39,9.23,9.22,9.22
32.57,10.68,1.47,10.67,1.46,-1.46,-2.28,-2.44,9.22,9.21,9.20
32.89,10.74,1.53,10.73,1.53,-1.53,-2.35,-2.48,9.21,9.20,9.20
33.22,10.80,1.60,10.80,1.61,-1.61,-2.41,-2.52,9.19,9.20,9.19
33.55,10.87,1.67,10.88,1.68,-1.68,-2.48,-2.57,9.18,9.19,9.19
33.89,10.94,1.75,10.95,1.77,-1.77,-2.55,-2.61,9.17,9.18,9.18
34.23,11.02,1.85,11.04,1.86,-1.86,-2.62,-2.66,9.15,9.18,9.16
34.57,11.12,1.95,11.13,1.97,-1.97,-2.70,-2.71,9.15,9.17,9.16
34.92,11.22,2.07,11.23,2.07,-2.07,-2.78,-2.75,9.14,9.16,9.14
35.27,11.34,2.17,11.33,2.19,-2.19,-2.86,-2.80,9.15,9.15,9.16
35.62,11.45,2.31,11.45,2.31,-2.31,-2.94,-2.85,9.14,9.14,9.13
35.97,11.57,2.44,11.56,2.44,-2.44,-3.02,-2.91,9.13,9.12,9.13
36.33,11.70,2.59,11.69,2.58,-2.58,-3.11,-2.96,9.12,9.11,9.11
36.70,11.82,2.72,11.81,2.72,-2.72,-3.20,-3.01,9.10,9.09,9.09
37.06,11.95,2.88,11.95,2.87,-2.87,-3.30,-3.07,9.08,9.08,9.07
37.43,12.09,3.04,12.09,3.03,-3.03,-3.39,-3.13,9.06,9.06,9.05
37.81,12.23,3.18,12.23,3.19,-3.19,-3.49,-3.19,9.04,9.04,9.04
38.19,12.37,3.35,12.37,3.36,-3.36,-3.59,-3.25,9.01,9.02,9.01
38.57,12.52,3.52,12.52,3.53,-3.53,-3.70,-3.32,8.99,9.00,8.99
38.95,12.68,3.70,12.68,3.70,-3.70,-3.81,-3.39,8.98,8.98,8.98
39.34,12.83,3.88,12.83,3.88,-3.88,-3.92,-3.46,8.95,8.95,8.95
39.74,12.99,4.06,12.99,4.06,-4.06,-4.04,-3.53,8.93,8.93,8.92
40.14,13.15,4.24,13.16,4.25,-4.25,-4.15,-3.61,8.90,8.91,8.90
40.54,13.31,4.42,13.32,4.44,-4.44,-4.28,-3.68,8.87,8.89,8.88
40.94,13.49,4.63,13.49,4.63,-4.63,-4.40,-3.76,8.86,8.86,8.85
41.35,13.66,4.81,13.66,4.82,-4.82,-4.53,-3.85,8.84,8.84,8.84
41.76,13.83,5.02,13.83,5.01,-5.01,-4.66,-3.93,8.82,8.82,8.81
42.18,13.99,5.18,14.00,5.21,-5.21,-4.80,-4.02,8.78,8.80,8.80
42.60,14.16,5.39,14.17,5.40,-5.40,-4.94,-4.12,8.76,8.77,8.77
43.03,14.34,5.58,14.34,5.59,-5.59,-5.08,-4.21,8.75,8.75,8.75
43.46,14.51,5.79,14.50,5.78,-5.78,-5.23,-4.31,8.73,8.72,8.71
43.90,14.67,5.97,14.66,5.96,-5.96,-5.38,-4.42,8.70,8.70,8.69
44.33,14.82,6.16,14.81,6.14,-6.14,-5.53,-4.52,8.68,8.67,8.66
44.78,14.97,6.32,14.96,6.32,-6.32,-5.69,-4.63,8.65,8.64,8.64
45.23,15.11,6.48,15.09,6.49,-6.49,-5.85,-4.74,8.62,8.61,8.62
45.68,15.24,6.66,15.22,6.65,-6.65,-6.01,-4.86,8.59,8.58,8.57
46.13,15.35,6.80,15.35,6.81,-6.81,-6.17,-4.98,8.54,8.54,8.54
46.60,15.46,6.95,15.46,6.95,-6.95,-6.33,-5.10,8.50,8.50,8.50
47.06,15.57,7.09,15.56,7.10,-7.10,-6.50,-5.23,8.47,8.47,8.47
47.53,15.67,7.23,15.65,7.23,-7.23,-6.66,-5.36,8.44,8.43,8.43
48.01,15.75,7.36,15.74,7.35,-7.35,-6.83,-5.49,8.40,8.39,8.38
48.49,15.81,7.46,15.81,7.47,-7.47,-6.99,-5.62,8.34,8.35,8.34
48.97,15.87,7.57,15.88,7.57,-7.57,-7.15,-5.76,8.29,8.30,8.29
49.46,15.92,7.65,15.93,7.67,-7.67,-7.31,-5.90,8.25,8.26,8.26
49.96,15.98,7.77,15.98,7.76,-7.76,-7.47,-6.04,8.22,8.22,8.20
50.46,16.02,7.84,16.02,7.84,-7.84,-7.62,-6.19,8.18,8.18,8.17
50.96,16.04,7.90,16.04,7.91,-7.91,-7.76,-6.33,8.13,8.14,8.13
51.47,16.06,7.96,16.06,7.97,-7.97,-7.90,-6.48,8.09,8.09,8.09
51.99,16.08,8.03,16.07,8.01,-8.01,-8.03,-6.63,8.06,8.05,8.04
52.51,16.07,8.05,16.06,8.05,-8.05,-8.14,-6.77,8.02,8.01,8.01
53.03,16.06,8.07,16.05,8.08,-8.08,-8.25,-6.92,7.98,7.97,7.98
53.56,16.04,8.10,16.02,8.09,-8.09,-8.34,-7.07,7.95,7.93,7.93
54.10,16.00,8.11,15.99,8.10,-8.10,-8.41,-7.21,7.90,7.89,7.88
54.64,15.95,8.10,15.94,8.09,-8.09,-8.48,-7.35,7.86,7.85,7.84
55.18,15.89,8.08,15.88,8.07,-8.07,-8.52,-7.49,7.82,7.81,7.80
55.74,15.82,8.06,15.82,8.04,-8.04,-8.55,-7.62,7.78,7.77,7.75
56.29,15.74,8.00,15.74,8.01,-8.01,-8.56,-7.75,7.73,7.73,7.73
56.86,15.66,7.96,15.66,7.97,-7.97,-8.56,-7.87,7.69,7.69,7.69
57.42,15.57,7.92,15.57,7.92,-7.92,-8.53,-7.98,7.65,7.65,7.64
58.00,15.47,7.86,15.48,7.87,-7.87,-8.49,-8.08,7.60,7.61,7.60
58.58,15.37,7.79,15.38,7.81,-7.81,-8.43,-8.17,7.56,7.57,7.57
59.16,15.27,7.72,15.27,7.75,-7.75,-8.36,-8.25,7.51,7.52,7.54
59.76,15.16,7.66,15.16,7.69,-7.69,-8.27,-8.31,7.47,7.47,7.49
60.35,15.04,7.59,15.05,7.63,-7.63,-8.17,-8.36,7.41,7.43,7.44
60.96,14.93,7.54,14.94,7.56,-7.56,-8.06,-8.40,7.37,7.38,7.38
61.57,14.82,7.49,14.82,7.49,-7.49,-7.94,-8.42,7.33,7.33,7.32
62.18,14.70,7.43,14.69,7.42,-7.42,-7.80,-8.43,7.28,7.27,7.26
62.80,14.57,7.36,14.56,7.34,-7.34,-7.66,-8.42,7.22,7.22,7.20
63.43,14.43,7.27,14.43,7.26,-7.26,-7.52,-8.39,7.16,7.17,7.15
64.07,14.30,7.19,14.29,7.18,-7.18,-7.36,-8.35,7.12,7.11,7.10
64.71,14.16,7.10,14.15,7.09,-7.09,-7.21,-8.29,7.07,7.06,7.05
65.35,14.01,7.01,14.00,7.00,-7.00,-7.04,-8.22,7.00,7.00,6.99
66.01,13.87,6.92,13.86,6.91,-6.91,-6.88,-8.13,6.96,6.95,6.94
66.67,13.71,6.80,13.70,6.81,-6.81,-6.72,-8.03,6.90,6.89,6.90
67.33,13.54,6.70,13.54,6.71,-6.71,-6.55,-7.92,6.83,6.84,6.83
68.01,13.38,6.59,13.38,6.60,-6.60,-6.39,-7.80,6.78,6.78,6.78
68.69,13.21,6.47,13.22,6.49,-6.49,-6.23,-7.66,6.72,6.73,6.73
69.37,13.05,6.36,13.05,6.38,-6.38,-6.06,-7.52,6.67,6.67,6.68
70.07,12.88,6.25,12.88,6.27,-6.27,-5.90,-7.37,6.61,6.61,6.62
70.77,12.72,6.16,12.71,6.16,-6.16,-5.75,-7.22,6.56,6.56,6.55
71.48,12.54,6.03,12.54,6.04,-6.04,-5.59,-7.06,6.50,6.50,6.50
72.19,12.37,5.92,12.37,5.93,-5.93,-5.44,-6.90,6.44,6.44,6.44
72.91,12.19,5.81,12.19,5.81,-5.81,-5.29,-6.73,6.38,6.39,6.37
73.64,12.01,5.68,12.02,5.69,-5.69,-5.14,-6.56,6.32,6.33,6.32
74.38,11.84,5.57,11.84,5.57,-5.57,-5.00,-6.39,6.27,6.27,6.26
75.12,11.67,5.45,11.67,5.45,-5.45,-4.86,-6.21,6.22,6.22,6.21
75.87,11.50,5.33,11.49,5.33,-5.33,-4.72,-6.04,6.17,6.17,6.16
76.63,11.33,5.22,11.31,5.20,-5.20,-4.58,-5.87,6.13,6.11,6.10
77.40,11.15,5.08,11.14,5.07,-5.07,-4.45,-5.70,6.07,6.06,6.06
78.17,10.95,4.94,10.96,4.95,-4.95,-4.33,-5.52,6.00,6.01,6.00
78.95,10.77,4.80,10.78,4.82,-4.82,-4.20,-5.35,5.95,5.96,5.96
79.74,10.60,4.68,10.60,4.69,-4.69,-4.08,-5.19,5.91,5.91,5.91
80.54,10.42,4.55,10.42,4.56,-4.56,-3.97,-5.02,5.86,5.86,5.86
81.35,10.25,4.44,10.24,4.43,-4.43,-3.85,-4.85,5.82,5.81,5.80
82.16,10.07,4.29,10.06,4.30,-4.30,-3.74,-4.69,5.77,5.76,5.77
82.98,9.88,4.16,9.88,4.17,-4.17,-3.64,-4.53,5.71,5.71,5.71
83.81,9.68,4.01,9.70,4.04,-4.04,-3.53,-4.37,5.64,5.66,5.66
84.65,9.51,3.90,9.52,3.91,-3.91,-3.43,-4.22,5.60,5.60,5.60
85.50,9.33,3.78,9.33,3.78,-3.78,-3.33,-4.07,5.54,5.55,5.54
86.35,9.16,3.66,9.15,3.66,-3.66,-3.24,-3.91,5.50,5.50,5.49
87.22,8.99,3.54,8.97,3.53,-3.53,-3.14,-3.77,5.46,5.44,5.44
88.09,8.81,3.42,8.79,3.41,-3.41,-3.05,-3.62,5.40,5.39,5.38
88.97,8.62,3.29,8.61,3.28,-3.28,-2.96,-3.48,5.34,5.33,5.32
89.86,8.42,3.14,8.42,3.15,-3.15,-2.88,-3.34,5.27,5.27,5.27
90.76,8.24,3.02,8.24,3.03,-3.03,-2.79,-3.20,5.21,5.21,5.21
91.66,8.07,2.92,8.06,2.91,-2.91,-2.71,-3.07,5.16,5.15,5.14
92.58,7.89,2.79,7.88,2.79,-2.79,-2.63,-2.93,5.10,5.09,5.09
93.51,7.71,2.66,7.70,2.67,-2.67,-2.55,-2.80,5.03,5.03,5.04
94.44,7.52,2.53,7.53,2.55,-2.55,-2.47,-2.68,4.96,4.97,4.98
95.39,7.34,2.42,7.35,2.44,-2.44,-2.40,-2.55,4.90,4.91,4.91
96.34,7.17,2.32,7.17,2.32,-2.32,-2.32,-2.43,4.84,4.85,4.84
97.30,6.99,2.20,7.00,2.21,-2.21,-2.25,-2.31,4.78,4.79,4.78
98.28,6.83,2.11,6.83,2.10,-2.10,-2.18,-2.19,4.73,4.72,4.71
99.26,6.67,2.01,6.66,2.00,-2.00,-2.10,-2.08,4.67,4.66,4.65
100.25,6.51,1.91,6.50,1.89,-1.89,-2.03,-1.96,4.62,4.60,4.59
101.25,6.34,1.79,6.33,1.79,-1.79,-1.96,-1.85,4.55,4.55,4.54
102.27,6.18,1.69,6.18,1.69,-1.69,-1.88,-1.75,4.49,4.49,4.48
103.29,6.02,1.59,6.02,1.59,-1.59,-1.81,-1.64,4.42,4.43,4.42
104.32,5.86,1.48,5.87,1.50,-1.50,-1.73,-1.54,4.36,4.37,4.37
105.37,5.72,1.40,5.72,1.41,-1.41,-1.66,-1.44,4.31,4.32,4.31
106.42,5.58,1.31,5.58,1.32,-1.32,-1.58,-1.34,4.26,4.26,4.26
107.48,5.44,1.23,5.44,1.24,-1.24,-1.50,-1.25,4.20,4.20,4.20
108.56,5.31,1.15,5.30,1.16,-1.16,-1.41,-1.16,4.15,4.15,4.15
109.64,5.18,1.08,5.17,1.08,-1.08,-1.33,-1.08,4.09,4.09,4.09
110.74,5.05,1.01,5.04,1.01,-1.01,-1.24,-0.99,4.04,4.03,4.03
111.85,4.92,0.94,4.92,0.95,-0.95,-1.14,-0.92,3.97,3.97,3.97
112.97,4.80,0.87,4.80,0.89,-0.89,-1.04,-0.84,3.91,3.91,3.92
114.10,4.68,0.81,4.68,0.83,-0.83,-0.95,-0.77,3.85,3.85,3.86
115.24,4.56,0.77,4.57,0.77,-0.77,-0.85,-0.71,3.79,3.80,3.78
116.39,4.45,0.72,4.46,0.72,-0.72,-0.75,-0.65,3.73,3.74,3.72
117.55,4.36,0.69,4.35,0.67,-0.67,-0.66,-0.59,3.69,3.68,3.66
118.73,4.26,0.65,4.25,0.62,-0.62,-0.58,-0.54,3.63,3.62,3.60
119.92,4.16,0.59,4.15,0.58,-0.58,-0.52,-0.49,3.58,3.57,3.56
121.12,4.06,0.54,4.05,0.54,-0.54,-0.47,-0.45,3.51,3.51,3.51
122.33,3.97,0.51,3.96,0.51,-0.51,-0.45,-0.42,3.46,3.45,3.45
123.55,3.89,0.48,3.88,0.48,-0.48,-0.44,-0.39,3.41,3.40,3.40
124.79,3.80,0.44,3.80,0.46,-0.46,-0.45,-0.36,3.34,3.34,3.35
126.03,3.73,0.43,3.73,0.44,-0.44,-0.48,-0.34,3.28,3.29,3.29
127.29,3.66,0.41,3.67,0.43,-0.43,-0.52,-0.33,3.23,3.23,3.24
128.57,3.60,0.42,3.61,0.43,-0.43,-0.57,-0.32,3.17,3.18,3.17
129.85,3.54,0.41,3.56,0.43,-0.43,-0.62,-0.31,3.11,3.12,3.12
131.15,3.50,0.43,3.51,0.44,-0.44,-0.67,-0.31,3.06,3.07,3.06
132.46,3.46,0.44,3.47,0.46,-0.46,-0.71,-0.32,3.00,3.01,3.01
133.79,3.44,0.48,3.45,0.49,-0.49,-0.76,-0.33,2.95,2.96,2.95
135.12,3.42,0.51,3.42,0.52,-0.52,-0.80,-0.34,2.90,2.91,2.90
136.48,3.41,0.55,3.41,0.55,-0.55,-0.84,-0.36,2.85,2.85,2.85
137.84,3.40,0.59,3.40,0.59,-0.59,-0.87,-0.39,2.80,2.80,2.80
139.22,3.39,0.64,3.39,0.64,-0.64,-0.90,-0.41,2.75,2.75,2.74
140.61,3.39,0.68,3.39,0.69,-0.69,-0.93,-0.44,2.70,2.70,2.70
142.02,3.39,0.74,3.39,0.73,-0.73,-0.95,-0.48,2.65,2.65,2.64
143.44,3.39,0.78,3.39,0.78,-0.78,-0.97,-0.52,2.61,2.61,2.60
144.87,3.40,0.83,3.39,0.83,-0.83,-0.99,-0.56,2.57,2.56,2.56
146.32,3.41,0.89,3.39,0.87,-0.87,-1.01,-0.60,2.53,2.52,2.51
147.78,3.41,0.93,3.39,0.92,-0.92,-1.03,-0.65,2.49,2.47,2.47
149.26,3.41,0.98,3.39,0.96,-0.96,-1.05,-0.70,2.45,2.43,2.42
150.75,3.41,1.02,3.39,1.01,-1.01,-1.06,-0.75,2.40,2.39,2.38
152.26,3.41,1.06,3.39,1.05,-1.05,-1.08,-0.81,2.36,2.34,2.34
153.78,3.40,1.09,3.39,1.09,-1.09,-1.09,-0.86,2.31,2.30,2.30
155.32,3.39,1.12,3.39,1.14,-1.14,-1.11,-0.92,2.25,2.26,2.26
156.88,3.39,1.17,3.39,1.18,-1.18,-1.12,-0.98,2.21,2.21,2.21
158.44,3.39,1.22,3.40,1.23,-1.23,-1.14,-1.04,2.16,2.17,2.16
160.03,3.39,1.26,3.41,1.28,-1.28,-1.16,-1.11,2.10,2.12,2.12
161.63,3.40,1.31,3.42,1.34,-1.34,-1.17,-1.17,2.06,2.08,2.08
163.24,3.42,1.38,3.43,1.40,-1.40,-1.19,-1.24,2.02,2.03,2.03
164.88,3.44,1.45,3.45,1.46,-1.46,-1.21,-1.31,1.97,1.99,1.98
166.53,3.47,1.53,3.47,1.53,-1.53,-1.23,-1.38,1.94,1.94,1.93
168.19,3.49,1.58,3.50,1.61,-1.61,-1.25,-1.45,1.88,1.89,1.90
169.87,3.52,1.67,3.53,1.68,-1.68,-1.28,-1.52,1.84,1.85,1.84
171.57,3.56,1.76,3.56,1.76,-1.76,-1.30,-1.59,1.80,1.80,1.79
173.29,3.59,1.83,3.58,1.83,-1.83,-1.33,-1.67,1.75,1.75,1.75
175.02,3.62,1.91,3.61,1.91,-1.91,-1.35,-1.75,1.71,1.70,1.70
176.77,3.65,1.99,3.64,1.98,-1.98,-1.38,-1.82,1.67,1.66,1.65
178.54,3.68,2.06,3.66,2.05,-2.05,-1.41,-1.90,1.63,1.61,1.61
180.32,3.70,2.14,3.68,2.11,-2.11,-1.45,-1.98,1.59,1.56,1.55
182.13,3.72,2.19,3.69,2.17,-2.17,-1.48,-2.07,1.54,1.52,1.52
183.95,3.73,2.25,3.71,2.23,-2.23,-1.52,-2.15,1.49,1.47,1.47
185.79,3.74,2.31,3.72,2.29,-2.29,-1.56,-2.23,1.45,1.43,1.42
187.65,3.74,2.35,3.73,2.35,-2.35,-1.60,-2.32,1.39,1.38,1.38
189.52,3.74,2.39,3.74,2.40,-2.40,-1.65,-2.40,1.34,1.34,1.34
191.42,3.73,2.42,3.75,2.45,-2.45,-1.70,-2.49,1.27,1.30,1.30
193.33,3.73,2.46,3.76,2.51,-2.51,-1.75,-2.58,1.22,1.26,1.26
195.27,3.75,2.53,3.77,2.56,-2.56,-1.80,-2.67,1.19,1.22,1.21
197.22,3.77,2.60,3.79,2.61,-2.61,-1.86,-2.76,1.16,1.18,1.16
199.19,3.79,2.65,3.80,2.66,-2.66,-1.92,-2.85,1.13,1.14,1.13
201.18,3.82,2.72,3.82,2.71,-2.71,-1.99,-2.94,1.10,1.11,1.09
203.19,3.85,2.78,3.84,2.77,-2.77,-2.06,-3.02,1.08,1.07,1.06
205.23,3.88,2.83,3.86,2.83,-2.83,-2.13,-3.11,1.05,1.04,1.04
207.28,3.91,2.89,3.89,2.89,-2.89,-2.21,-3.20,1.02,1.00,1.01
209.35,3.93,2.95,3.92,2.95,-2.95,-2.29,-3.29,0.98,0.97,0.97
211.44,3.95,3.00,3.95,3.00,-3.00,-2.38,-3.38,0.94,0.94,0.94
213.56,3.97,3.04,3.98,3.06,-3.06,-2.47,-3.46,0.91,0.92,0.92
215.69,4.00,3.10,4.01,3.12,-3.12,-2.56,-3.54,0.88,0.89,0.89
217.85,4.03,3.16,4.03,3.17,-3.17,-2.66,-3.62,0.86,0.86,0.86
220.03,4.07,3.23,4.06,3.22,-3.22,-2.76,-3.70,0.84,0.84,0.83
222.23,4.10,3.29,4.09,3.28,-3.28,-2.87,-3.77,0.82,0.81,0.80
224.45,4.13,3.33,4.12,3.33,-3.33,-2.97,-3.84,0.80,0.79,0.79
226.70,4.15,3.38,4.15,3.38,-3.38,-3.09,-3.91,0.77,0.77,0.76
228.96,4.18,3.42,4.18,3.43,-3.43,-3.20,-3.97,0.75,0.75,0.75
231.25,4.20,3.46,4.21,3.48,-3.48,-3.31,-4.02,0.72,0.73,0.73
233.57,4.23,3.51,4.24,3.52,-3.52,-3.43,-4.07,0.70,0.72,0.71
235.90,4.26,3.55,4.27,3.57,-3.57,-3.54,-4.11,0.69,0.70,0.70
238.26,4.29,3.61,4.29,3.60,-3.60,-3.65,-4.15,0.68,0.69,0.67
240.64,4.32,3.63,4.31,3.64,-3.64,-3.76,-4.18,0.68,0.68,0.68
243.05,4.34,3.67,4.33,3.67,-3.67,-3.86,-4.20,0.67,0.67,0.66
245.48,4.37,3.71,4.35,3.69,-3.69,-3.96,-4.21,0.68,0.66,0.65
247.93,4.38,3.73,4.36,3.71,-3.71,-4.04,-4.22,0.67,0.65,0.64
250.41,4.40,3.74,4.37,3.73,-3.73,-4.12,-4.22,0.67,0.65,0.65
252.92,4.40,3.75,4.38,3.74,-3.74,-4.18,-4.20,0.66,0.64,0.64
255.45,4.41,3.77,4.39,3.75,-3.75,-4.23,-4.19,0.66,0.64,0.63
258.00,4.40,3.76,4.39,3.76,-3.76,-4.26,-4.16,0.64,0.63,0.63
260.58,4.39,3.75,4.40,3.77,-3.77,-4.27,-4.13,0.62,0.63,0.63
263.19,4.38,3.74,4.40,3.77,-3.77,-4.27,-4.08,0.61,0.63,0.63
265.82,4.38,3.75,4.40,3.78,-3.78,-4.25,-4.04,0.60,0.62,0.62
268.48,4.38,3.75,4.40,3.78,-3.78,-4.22,-3.98,0.60,0.62,0.62
271.16,4.38,3.75,4.40,3.78,-3.78,-4.16,-3.92,0.60,0.62,0.62
273.87,4.39,3.76,4.40,3.78,-3.78,-4.09,-3.85,0.60,0.62,0.62
276.61,4.40,3.77,4.40,3.78,-3.78,-4.01,-3.78,0.61,0.62,0.62
279.38,4.41,3.80,4.40,3.78,-3.78,-3.92,-3.70,0.63,0.62,0.60
282.17,4.40,3.79,4.40,3.78,-3.78,-3.81,-3.62,0.62,0.62,0.60
284.99,4.40,3.78,4.39,3.77,-3.77,-3.70,-3.53,0.62,0.62,0.61
287.84,4.39,3.76,4.38,3.76,-3.76,-3.58,-3.44,0.62,0.62,0.62
290.72,4.39,3.77,4.37,3.75,-3.75,-3.45,-3.35,0.64,0.62,0.61
293.63,4.37,3.74,4.36,3.73,-3.73,-3.33,-3.26,0.64,0.63,0.62
296.57,4.34,3.70,4.34,3.71,-3.71,-3.19,-3.16,0.63,0.63,0.63
299.53,4.31,3.67,4.31,3.67,-3.67,-3.06,-3.06,0.64,0.64,0.63
302.53,4.28,3.62,4.27,3.63,-3.63,-2.93,-2.97,0.65,0.64,0.65
305.55,4.23,3.58,4.23,3.58,-3.58,-2.80,-2.87,0.64,0.65,0.64
308.61,4.19,3.53,4.18,3.53,-3.53,-2.67,-2.77,0.66,0.65,0.65
311.69,4.14,3.47,4.13,3.47,-3.47,-2.55,-2.66,0.67,0.66,0.66
314.81,4.08,3.41,4.07,3.40,-3.40,-2.43,-2.56,0.68,0.67,0.66
317.96,4.01,3.33,4.01,3.33,-3.33,-2.31,-2.46,0.68,0.68,0.67
321.14,3.94,3.25,3.94,3.25,-3.25,-2.19,-2.36,0.69,0.68,0.68
324.35,3.86,3.17,3.86,3.17,-3.17,-2.08,-2.26,0.69,0.69,0.68
327.59,3.77,3.05,3.78,3.08,-3.08,-1.97,-2.16,0.69,0.70,0.71
330.87,3.68,2.97,3.69,2.99,-2.99,-1.87,-2.06,0.69,0.71,0.70
334.18,3.60,2.88,3.60,2.89,-2.89,-1.77,-1.97,0.71,0.71,0.71
337.52,3.51,2.79,3.50,2.78,-2.78,-1.67,-1.87,0.73,0.72,0.71
340.90,3.41,2.67,3.40,2.67,-2.67,-1.58,-1.77,0.74,0.73,0.73
344.30,3.31,2.56,3.29,2.55,-2.55,-1.49,-1.68,0.75,0.74,0.74
347.75,3.20,2.45,3.18,2.44,-2.44,-1.40,-1.59,0.76,0.75,0.74
351.23,3.07,2.32,3.07,2.31,-2.31,-1.32,-1.49,0.76,0.75,0.74
354.74,2.95,2.17,2.95,2.19,-2.19,-1.24,-1.40,0.76,0.76,0.77
358.28,2.83,2.06,2.83,2.06,-2.06,-1.16,-1.31,0.77,0.77,0.76
361.87,2.70,1.92,2.71,1.93,-1.93,-1.08,-1.22,0.77,0.78,0.77
365.49,2.57,1.78,2.58,1.79,-1.79,-1.01,-1.13,0.77,0.78,0.78
369.14,2.44,1.63,2.45,1.66,-1.66,-0.93,-1.05,0.78,0.79,0.80
372.83,2.32,1.51,2.32,1.51,-1.51,-0.86,-0.96,0.80,0.80,0.80
376.56,2.19,1.38,2.18,1.37,-1.37,-0.79,-0.87,0.81,0.81,0.80
380.33,2.06,1.24,2.05,1.23,-1.23,-0.72,-0.79,0.83,0.82,0.81
384.13,1.93,1.09,1.92,1.09,-1.09,-0.65,-0.71,0.84,0.83,0.83
387.97,1.79,0.95,1.79,0.95,-0.95,-0.59,-0.63,0.84,0.84,0.83
391.85,1.66,0.81,1.65,0.81,-0.81,-0.52,-0.54,0.85,0.85,0.84
395.77,1.53,0.67,1.52,0.66,-0.66,-0.45,-0.47,0.87,0.86,0.85
399.73,1.39,0.52,1.39,0.52,-0.52,-0.39,-0.39,0.87,0.87,0.86
403.72,1.25,0.35,1.26,0.38,-0.38,-0.32,-0.31,0.87,0.88,0.89
407.76,1.13,0.24,1.13,0.24,-0.24,-0.25,-0.23,0.89,0.89,0.88
411.84,1.01,0.11,1.00,0.11,-0.11,-0.18,-0.16,0.90,0.90,0.89
415.96,0.89,-0.03,0.88,-0.03,0.03,-0.11,-0.09,0.92,0.91,0.91
420.12,0.76,-0.16,0.76,-0.16,0.16,-0.03,-0.01,0.91,0.92,0.91
424.32,0.64,-0.29,0.64,-0.28,0.28,0.04,0.06,0.92,0.93,0.92
428.56,0.53,-0.42,0.53,-0.40,0.40,0.12,0.12,0.93,0.93,0.94
432.85,0.42,-0.54,0.43,-0.52,0.52,0.20,0.19,0.93,0.94,0.95
437.18,0.32,-0.63,0.33,-0.63,0.63,0.29,0.26,0.95,0.95,0.94
441.55,0.23,-0.73,0.23,-0.73,0.73,0.38,0.32,0.96,0.96,0.95
445.96,0.13,-0.84,0.14,-0.83,0.83,0.47,0.38,0.96,0.97,0.96
450.42,0.05,-0.93,0.05,-0.93,0.93,0.56,0.44,0.98,0.98,0.97
454.93,-0.02,-1.01,-0.03,-1.02,1.02,0.66,0.50,1.00,0.99,0.98
459.48,-0.09,-1.09,-0.11,-1.10,1.10,0.77,0.55,1.01,1.00,0.99
464.07,-0.16,-1.18,-0.18,-1.18,1.18,0.87,0.60,1.02,1.00,1.01
468.71,-0.23,-1.26,-0.24,-1.25,1.25,0.98,0.65,1.02,1.01,1.02
473.40,-0.29,-1.32,-0.30,-1.32,1.32,1.09,0.70,1.03,1.02,1.02
478.13,-0.35,-1.39,-0.35,-1.38,1.38,1.20,0.74,1.03,1.03,1.03
482.91,-0.39,-1.44,-0.39,-1.43,1.43,1.31,0.78,1.04,1.05,1.04
487.74,-0.42,-1.48,-0.42,-1.48,1.48,1.40,0.82,1.05,1.06,1.05
492.62,-0.45,-1.52,-0.44,-1.51,1.51,1.49,0.86,1.06,1.07,1.06
497.55,-0.47,-1.55,-0.46,-1.54,1.54,1.57,0.89,1.06,1.08,1.07
502.52,-0.47,-1.56,-0.46,-1.55,1.55,1.63,0.92,1.08,1.09,1.08
507.55,-0.47,-1.58,-0.46,-1.56,1.56,1.67,0.95,1.09,1.10,1.10
512.62,-0.45,-1.57,-0.44,-1.55,1.55,1.70,0.97,1.10,1.12,1.11
517.75,-0.43,-1.57,-0.41,-1.54,1.54,1.70,0.99,1.11,1.13,1.13
522.93,-0.39,-1.54,-0.38,-1.52,1.52,1.69,1.01,1.13,1.14,1.14
