frequency,raw,error,smoothed,error_smoothed,equalization,parametric_eq,fixed_band_eq,equalized_raw,equalized_smoothed,target
20.00,-10.39,-9.72,-10.39,-9.72,9.72,7.85,2.47,-0.67,-0.67,-0.67
20.20,-10.23,-9.65,-10.23,-9.65,9.65,8.05,2.54,-0.58,-0.58,-0.58
20.40,-10.07,-9.57,-10.07,-9.57,9.57,8.23,2.61,-0.50,-0.50,-0.50
20.61,-9.91,-9.48,-9.91,-9.49,9.49,8.40,2.69,-0.42,-0.42,-0.43
20.81,-9.75,-9.41,-9.75,-9.41,9.41,8.56,2.77,-0.34,-0.34,-0.34
21.02,-9.59,-9.33,-9.59,-9.33,9.32,8.70,2.85,-0.27,-0.27,-0.26
21.23,-9.44,-9.24,-9.44,-9.24,9.23,8.82,2.93,-0.21,-0.21,-0.20
21.44,-9.28,-9.14,-9.28,-9.14,9.13,8.91,3.02,-0.15,-0.15,-0.14
21.66,-9.12,-9.03,-9.12,-9.03,9.03,8.99,3.10,-0.09,-0.09,-0.09
21.87,-8.96,-8.92,-8.96,-8.92,8.92,9.03,3.19,-0.03,-0.04,-0.04
22.09,-8.80,-8.81,-8.80,-8.81,8.81,9.05,3.29,0.01,0.01,0.01
22.31,-8.64,-8.70,-8.64,-8.70,8.70,9.04,3.38,0.06,0.06,0.06
22.54,-8.48,-8.58,-8.48,-8.58,8.58,9.00,3.48,0.09,0.09,0.10
22.76,-8.32,-8.46,-8.32,-8.46,8.46,8.93,3.58,0.14,0.13,0.14
22.99,-8.16,-8.33,-8.16,-8.33,8.33,8.84,3.68,0.17,0.17,0.17
23.22,-8.00,-8.21,-8.00,-8.21,8.21,8.72,3.78,0.21,0.21,0.21
23.45,-7.83,-8.08,-7.84,-8.08,8.09,8.59,3.89,0.26,0.25,0.25
23.69,-7.67,-7.96,-7.67,-7.96,7.97,8.43,4.00,0.29,0.29,0.29
23.92,-7.51,-7.84,-7.51,-7.84,7.84,8.26,4.11,0.33,0.33,0.33
24.16,-7.35,-7.73,-7.35,-7.72,7.71,8.07,4.22,0.36,0.36,0.38
24.40,-7.19,-7.60,-7.19,-7.59,7.59,7.88,4.34,0.40,0.40,0.41
24.65,-7.03,-7.46,-7.03,-7.46,7.46,7.67,4.45,0.43,0.43,0.43
24.89,-6.87,-7.33,-6.87,-7.33,7.34,7.46,4.57,0.47,0.47,0.46
25.14,-6.71,-7.21,-6.71,-7.21,7.21,7.25,4.68,0.50,0.50,0.50
25.39,-6.55,-7.08,-6.55,-7.08,7.08,7.03,4.80,0.53,0.53,0.53
25.65,-6.39,-6.96,-6.39,-6.95,6.95,6.81,4.92,0.56,0.56,0.57
25.91,-6.23,-6.82,-6.23,-6.82,6.82,6.59,5.04,0.59,0.59,0.59
26.16,-6.07,-6.69,-6.07,-6.69,6.70,6.38,5.16,0.63,0.63,0.62
26.43,-5.91,-6.57,-5.91,-6.57,6.57,6.17,5.27,0.66,0.66,0.66
26.69,-5.75,-6.44,-5.76,-6.44,6.44,5.96,5.39,0.69,0.69,0.69
26.96,-5.60,-6.32,-5.60,-6.32,6.32,5.75,5.50,0.71,0.72,0.72
27.23,-5.44,-6.19,-5.44,-6.19,6.19,5.55,5.61,0.74,0.74,0.75
27.50,-5.28,-6.06,-5.29,-6.06,6.06,5.36,5.71,0.78,0.77,0.78
27.77,-5.13,-5.93,-5.13,-5.93,5.93,5.17,5.81,0.80,0.80,0.80
28.05,-4.97,-5.81,-4.97,-5.80,5.81,4.98,5.90,0.83,0.83,0.84
28.33,-4.82,-5.68,-4.82,-5.68,5.68,4.80,5.99,0.86,0.86,0.86
28.62,-4.66,-5.55,-4.66,-5.55,5.55,4.63,6.07,0.89,0.89,0.89
28.90,-4.50,-5.43,-4.51,-5.43,5.43,4.46,6.15,0.93,0.92,0.93
29.19,-4.35,-5.30,-4.35,-5.31,5.31,4.29,6.21,0.96,0.96,0.95
29.48,-4.20,-5.20,-4.20,-5.19,5.19,4.14,6.26,0.99,0.99,1.00
29.78,-4.05,-5.06,-4.06,-5.07,5.07,3.98,6.31,1.02,1.02,1.01
30.08,-3.91,-4.95,-3.91,-4.95,4.96,3.84,6.34,1.04,1.04,1.04
30.38,-3.77,-4.84,-3.77,-4.84,4.84,3.69,6.36,1.07,1.07,1.07
30.68,-3.63,-4.73,-3.64,-4.73,4.73,3.55,6.37,1.10,1.09,1.10
30.99,-3.50,-4.62,-3.50,-4.62,4.61,3.42,6.37,1.11,1.11,1.12
31.30,-3.36,-4.50,-3.36,-4.50,4.50,3.29,6.35,1.14,1.14,1.14
31.61,-3.22,-4.39,-3.22,-4.39,4.39,3.17,6.32,1.17,1.16,1.17
31.93,-3.08,-4.27,-3.09,-4.27,4.27,3.05,6.28,1.19,1.19,1.19
32.24,-2.95,-4.16,-2.95,-4.16,4.16,2.93,6.23,1.21,1.21,1.21
32.57,-2.81,-4.05,-2.81,-4.05,4.05,2.82,6.16,1.23,1.24,1.24
32.89,-2.67,-3.93,-2.67,-3.93,3.93,2.71,6.09,1.26,1.26,1.26
33.22,-2.54,-3.82,-2.54,-3.82,3.82,2.61,6.00,1.28,1.28,1.28
33.55,-2.41,-3.71,-2.41,-3.70,3.71,2.51,5.91,1.30,1.30,1.30
33.89,-2.28,-3.59,-2.28,-3.59,3.59,2.41,5.80,1.31,1.31,1.31
34.23,-2.15,-3.48,-2.16,-3.48,3.48,2.31,5.69,1.33,1.33,1.33
34.57,-2.03,-3.37,-2.03,-3.37,3.37,2.22,5.56,1.33,1.34,1.34
34.92,-1.90,-3.25,-1.90,-3.25,3.25,2.13,5.44,1.35,1.35,1.35
35.27,-1.77,-3.14,-1.78,-3.13,3.13,2.05,5.30,1.36,1.36,1.37
35.62,-1.65,-3.01,-1.65,-3.02,3.01,1.96,5.16,1.36,1.37,1.36
35.97,-1.52,-2.89,-1.52,-2.90,2.90,1.88,5.02,1.37,1.37,1.37
36.33,-1.40,-2.79,-1.40,-2.77,2.77,1.81,4.87,1.37,1.38,1.39
36.70,-1.27,-2.65,-1.27,-2.65,2.65,1.73,4.72,1.38,1.38,1.38
37.06,-1.15,-2.53,-1.15,-2.53,2.53,1.66,4.57,1.38,1.38,1.38
37.43,-1.03,-2.41,-1.03,-2.41,2.41,1.59,4.41,1.38,1.38,1.38
37.81,-0.91,-2.29,-0.91,-2.29,2.29,1.52,4.26,1.38,1.38,1.38
38.19,-0.79,-2.17,-0.79,-2.17,2.17,1.45,4.10,1.38,1.38,1.38
38.57,-0.68,-2.06,-0.68,-2.05,2.05,1.38,3.94,1.37,1.37,1.38
38.95,-0.56,-1.94,-0.56,-1.93,1.94,1.32,3.78,1.37,1.37,1.38
39.34,-0.45,-1.81,-0.45,-1.82,1.82,1.26,3.62,1.37,1.37,1.36
39.74,-0.34,-1.70,-0.34,-1.70,1.71,1.20,3.47,1.36,1.36,1.36
40.14,-0.24,-1.59,-0.24,-1.59,1.59,1.14,3.31,1.35,1.35,1.35
40.54,-0.14,-1.49,-0.14,-1.48,1.48,1.08,3.15,1.34,1.34,1.35
40.94,-0.03,-1.37,-0.03,-1.38,1.37,1.02,3.00,1.34,1.34,1.34
41.35,0.07,-1.27,0.07,-1.27,1.26,0.97,2.84,1.33,1.33,1.34
41.76,0.17,-1.16,0.17,-1.16,1.16,0.92,2.69,1.33,1.33,1.33
42.18,0.27,-1.05,0.27,-1.05,1.05,0.86,2.54,1.32,1.32,1.32
42.60,0.37,-0.94,0.37,-0.94,0.94,0.81,2.39,1.31,1.31,1.31
43.03,0.47,-0.84,0.47,-0.84,0.84,0.76,2.24,1.31,1.30,1.31
43.46,0.56,-0.74,0.56,-0.74,0.73,0.71,2.09,1.29,1.29,1.30
43.90,0.65,-0.63,0.65,-0.63,0.63,0.66,1.94,1.28,1.28,1.28
44.33,0.73,-0.53,0.73,-0.53,0.53,0.61,1.80,1.26,1.26,1.26
44.78,0.82,-0.43,0.82,-0.43,0.43,0.57,1.65,1.25,1.25,1.25
45.23,0.90,-0.34,0.90,-0.34,0.34,0.52,1.51,1.24,1.24,1.24
45.68,0.98,-0.25,0.98,-0.25,0.25,0.48,1.37,1.23,1.23,1.23
46.13,1.06,-0.16,1.06,-0.17,0.17,0.43,1.23,1.23,1.22,1.22
46.60,1.13,-0.09,1.13,-0.08,0.09,0.39,1.09,1.21,1.21,1.22
47.06,1.20,-0.01,1.20,-0.01,0.01,0.34,0.95,1.20,1.21,1.21
47.53,1.27,0.07,1.27,0.07,-0.07,0.30,0.81,1.20,1.20,1.20
48.01,1.34,0.14,1.34,0.14,-0.14,0.26,0.68,1.19,1.19,1.20
48.49,1.40,0.21,1.40,0.21,-0.21,0.22,0.54,1.18,1.18,1.19
48.97,1.46,0.28,1.46,0.28,-0.28,0.17,0.41,1.18,1.17,1.18
49.46,1.51,0.35,1.51,0.35,-0.35,0.13,0.28,1.16,1.17,1.16
49.96,1.57,0.42,1.57,0.41,-0.41,0.09,0.15,1.16,1.16,1.15
50.46,1.62,0.46,1.62,0.47,-0.46,0.05,0.02,1.16,1.16,1.16
50.96,1.67,0.51,1.67,0.51,-0.51,0.01,-0.10,1.16,1.15,1.16
51.47,1.71,0.56,1.71,0.56,-0.56,-0.03,-0.23,1.15,1.15,1.15
51.99,1.75,0.60,1.75,0.60,-0.60,-0.07,-0.35,1.15,1.15,1.15
52.51,1.79,0.64,1.79,0.64,-0.64,-0.11,-0.47,1.15,1.15,1.15
53.03,1.83,0.68,1.82,0.68,-0.68,-0.15,-0.59,1.15,1.15,1.15
53.56,1.86,0.71,1.86,0.71,-0.71,-0.19,-0.70,1.14,1.14,1.15
54.10,1.88,0.74,1.88,0.74,-0.75,-0.23,-0.82,1.13,1.13,1.14
54.64,1.91,0.78,1.91,0.78,-0.78,-0.27,-0.93,1.12,1.12,1.13
55.18,1.94,0.82,1.94,0.82,-0.82,-0.30,-1.03,1.12,1.12,1.12
55.74,1.96,0.86,1.96,0.85,-0.85,-0.34,-1.13,1.11,1.11,1.10
56.29,1.98,0.88,1.98,0.88,-0.88,-0.38,-1.23,1.10,1.10,1.10
56.86,1.99,0.91,1.99,0.91,-0.91,-0.42,-1.33,1.08,1.08,1.08
57.42,2.00,0.94,2.00,0.94,-0.94,-0.46,-1.42,1.06,1.06,1.06
58.00,2.01,0.96,2.01,0.96,-0.96,-0.50,-1.51,1.05,1.05,1.05
58.58,2.02,0.99,2.02,0.99,-0.99,-0.54,-1.59,1.03,1.03,1.03
59.16,2.03,1.01,2.03,1.01,-1.01,-0.58,-1.66,1.02,1.01,1.02
59.76,2.03,1.03,2.03,1.03,-1.04,-0.62,-1.74,0.99,0.99,1.00
60.35,2.03,1.06,2.03,1.05,-1.06,-0.65,-1.80,0.97,0.97,0.97
60.96,2.03,1.07,2.03,1.09,-1.09,-0.69,-1.86,0.94,0.94,0.96
61.57,2.03,1.12,2.03,1.11,-1.11,-0.73,-1.92,0.92,0.92,0.91
62.18,2.03,1.15,2.02,1.14,-1.13,-0.77,-1.97,0.90,0.90,0.88
62.80,2.01,1.14,2.01,1.16,-1.15,-0.81,-2.01,0.86,0.87,0.87
63.43,2.00,1.17,2.00,1.16,-1.16,-0.85,-2.05,0.84,0.84,0.83
64.07,1.99,1.18,1.99,1.17,-1.18,-0.89,-2.09,0.81,0.81,0.81
64.71,1.98,1.18,1.98,1.19,-1.19,-0.93,-2.11,0.79,0.79,0.80
65.35,1.98,1.20,1.98,1.20,-1.21,-0.97,-2.14,0.77,0.77,0.78
66.01,1.99,1.22,1.99,1.22,-1.22,-1.01,-2.15,0.77,0.76,0.77
66.67,2.00,1.24,2.00,1.24,-1.24,-1.05,-2.17,0.76,0.76,0.76
67.33,2.01,1.26,2.01,1.26,-1.26,-1.09,-2.18,0.75,0.75,0.75
68.01,2.02,1.28,2.02,1.28,-1.28,-1.13,-2.18,0.74,0.74,0.74
68.69,2.04,1.31,2.04,1.31,-1.30,-1.17,-2.18,0.73,0.73,0.73
69.37,2.06,1.33,2.06,1.33,-1.33,-1.21,-2.18,0.73,0.73,0.73
70.07,2.08,1.36,2.08,1.36,-1.36,-1.24,-2.18,0.72,0.72,0.72
70.77,2.10,1.38,2.10,1.38,-1.39,-1.28,-2.17,0.71,0.71,0.72
71.48,2.12,1.41,2.12,1.42,-1.42,-1.32,-2.16,0.70,0.70,0.71
72.19,2.15,1.46,2.15,1.45,-1.45,-1.36,-2.15,0.69,0.69,0.69
72.91,2.18,1.49,2.17,1.49,-1.49,-1.40,-2.13,0.69,0.69,0.69
73.64,2.20,1.53,2.20,1.53,-1.53,-1.44,-2.12,0.67,0.67,0.67
74.38,2.22,1.56,2.22,1.56,-1.56,-1.48,-2.10,0.65,0.66,0.66
75.12,2.24,1.60,2.24,1.60,-1.60,-1.51,-2.09,0.64,0.64,0.64
75.87,2.27,1.64,2.27,1.64,-1.64,-1.55,-2.07,0.63,0.62,0.63
76.63,2.29,1.67,2.29,1.68,-1.68,-1.59,-2.05,0.61,0.61,0.62
77.40,2.31,1.71,2.31,1.71,-1.71,-1.62,-2.03,0.60,0.60,0.60
78.17,2.33,1.75,2.33,1.74,-1.74,-1.66,-2.02,0.59,0.59,0.58
78.95,2.34,1.76,2.34,1.77,-1.76,-1.69,-2.00,0.58,0.58,0.58
79.74,2.35,1.78,2.35,1.78,-1.78,-1.73,-1.99,0.57,0.57,0.57
80.54,2.36,1.80,2.36,1.80,-1.79,-1.76,-1.97,0.57,0.56,0.56
81.35,2.36,1.81,2.36,1.81,-1.80,-1.80,-1.96,0.56,0.56,0.55
82.16,2.35,1.81,2.35,1.80,-1.80,-1.83,-1.94,0.55,0.55,0.54
82.98,2.34,1.79,2.34,1.80,-1.80,-1.86,-1.93,0.54,0.54,0.55
83.81,2.33,1.79,2.33,1.79,-1.80,-1.89,-1.92,0.53,0.53,0.54
84.65,2.33,1.80,2.33,1.79,-1.80,-1.92,-1.91,0.53,0.53,0.53
85.50,2.33,1.79,2.33,1.80,-1.80,-1.94,-1.91,0.53,0.53,0.54
86.35,2.34,1.80,2.33,1.80,-1.81,-1.97,-1.90,0.53,0.53,0.54
87.22,2.34,1.81,2.34,1.81,-1.81,-1.99,-1.90,0.53,0.53,0.53
88.09,2.35,1.82,2.35,1.82,-1.82,-2.02,-1.89,0.53,0.53,0.53
88.97,2.36,1.84,2.35,1.83,-1.83,-2.04,-1.89,0.53,0.52,0.52
89.86,2.35,1.84,2.35,1.84,-1.84,-2.06,-1.89,0.51,0.51,0.51
90.76,2.34,1.85,2.34,1.85,-1.85,-2.08,-1.89,0.49,0.49,0.49
91.66,2.33,1.86,2.33,1.86,-1.86,-2.10,-1.90,0.47,0.47,0.47
92.58,2.31,1.87,2.31,1.87,-1.87,-2.11,-1.90,0.44,0.44,0.44
93.51,2.29,1.87,2.29,1.87,-1.88,-2.13,-1.91,0.41,0.41,0.42
94.44,2.27,1.88,2.27,1.88,-1.89,-2.14,-1.92,0.38,0.38,0.39
95.39,2.25,1.90,2.25,1.90,-1.90,-2.15,-1.93,0.35,0.35,0.35
96.34,2.22,1.91,2.22,1.91,-1.91,-2.16,-1.94,0.31,0.31,0.31
97.30,2.18,1.93,2.18,1.93,-1.92,-2.17,-1.95,0.26,0.26,0.25
98.28,2.14,1.94,2.13,1.93,-1.93,-2.17,-1.96,0.21,0.21,0.20
99.26,2.08,1.93,2.08,1.94,-1.94,-2.18,-1.98,0.14,0.14,0.15
100.25,2.03,1.94,2.03,1.94,-1.95,-2.18,-1.99,0.08,0.08,0.09
101.25,1.98,1.95,1.98,1.95,-1.97,-2.18,-2.01,0.01,0.01,0.03
102.27,1.94,1.97,1.95,1.98,-1.98,-2.18,-2.03,-0.04,-0.04,-0.03
103.29,1.92,2.01,1.91,2.00,-2.00,-2.18,-2.05,-0.08,-0.09,-0.09
104.32,1.88,2.02,1.87,2.02,-2.02,-2.17,-2.06,-0.14,-0.15,-0.14
105.37,1.83,2.04,1.83,2.04,-2.04,-2.17,-2.08,-0.21,-0.21,-0.21
106.42,1.78,2.05,1.79,2.05,-2.05,-2.16,-2.10,-0.27,-0.27,-0.27
107.48,1.75,2.07,1.74,2.07,-2.06,-2.15,-2.12,-0.31,-0.32,-0.32
108.56,1.70,2.08,1.70,2.08,-2.06,-2.14,-2.14,-0.36,-0.37,-0.38
109.64,1.64,2.08,1.64,2.08,-2.06,-2.13,-2.15,-0.42,-0.42,-0.44
110.74,1.58,2.07,1.57,2.06,-2.06,-2.12,-2.17,-0.48,-0.49,-0.49
111.85,1.50,2.03,1.50,2.04,-2.05,-2.10,-2.18,-0.56,-0.55,-0.53
112.97,1.43,2.03,1.43,2.02,-2.05,-2.09,-2.20,-0.62,-0.62,-0.60
114.10,1.37,2.01,1.37,2.02,-2.04,-2.07,-2.21,-0.67,-0.67,-0.64
115.24,1.33,2.02,1.33,2.03,-2.03,-2.06,-2.22,-0.70,-0.70,-0.69
116.39,1.30,2.04,1.29,2.03,-2.02,-2.04,-2.23,-0.72,-0.72,-0.74
117.55,1.26,2.04,1.25,2.03,-2.01,-2.02,-2.24,-0.75,-0.76,-0.78
118.73,1.19,2.01,1.19,2.01,-1.99,-2.00,-2.24,-0.80,-0.81,-0.82
119.92,1.12,1.97,1.12,1.98,-1.98,-1.98,-2.24,-0.86,-0.85,-0.85
121.12,1.06,1.94,1.07,1.95,-1.96,-1.96,-2.24,-0.90,-0.89,-0.88
122.33,1.03,1.94,1.02,1.94,-1.94,-1.94,-2.23,-0.91,-0.92,-0.91
123.55,0.99,1.93,0.98,1.92,-1.92,-1.92,-2.23,-0.93,-0.94,-0.94
124.79,0.93,1.90,0.93,1.90,-1.91,-1.90,-2.22,-0.98,-0.97,-0.97
126.03,0.89,1.88,0.89,1.89,-1.90,-1.87,-2.20,-1.01,-1.01,-0.99
127.29,0.86,1.88,0.86,1.88,-1.90,-1.85,-2.19,-1.04,-1.04,-1.02
128.57,0.84,1.90,0.84,1.89,-1.89,-1.83,-2.17,-1.05,-1.05,-1.06
129.85,0.82,1.90,0.82,1.90,-1.89,-1.81,-2.15,-1.07,-1.07,-1.08
131.15,0.79,1.90,0.79,1.91,-1.89,-1.78,-2.12,-1.10,-1.10,-1.11
132.46,0.76,1.91,0.75,1.90,-1.89,-1.76,-2.09,-1.13,-1.14,-1.15
133.79,0.72,1.89,0.72,1.89,-1.89,-1.74,-2.06,-1.17,-1.18,-1.17
135.12,0.67,1.87,0.68,1.88,-1.89,-1.72,-2.03,-1.23,-1.22,-1.20
136.48,0.65,1.88,0.65,1.88,-1.90,-1.69,-1.99,-1.25,-1.25,-1.23
137.84,0.62,1.88,0.62,1.89,-1.90,-1.67,-1.96,-1.28,-1.27,-1.26
139.22,0.60,1.91,0.60,1.90,-1.89,-1.65,-1.92,-1.30,-1.30,-1.31
140.61,0.57,1.91,0.56,1.90,-1.89,-1.63,-1.88,-1.32,-1.33,-1.34
142.02,0.52,1.88,0.53,1.90,-1.89,-1.60,-1.83,-1.37,-1.36,-1.36
143.44,0.49,1.89,0.49,1.89,-1.88,-1.58,-1.79,-1.39,-1.40,-1.40
144.87,0.44,1.88,0.43,1.87,-1.87,-1.56,-1.74,-1.43,-1.44,-1.44
146.32,0.38,1.86,0.38,1.86,-1.86,-1.54,-1.70,-1.48,-1.48,-1.48
147.78,0.31,1.82,0.32,1.83,-1.84,-1.52,-1.65,-1.53,-1.52,-1.51
149.26,0.27,1.81,0.26,1.81,-1.81,-1.50,-1.60,-1.54,-1.55,-1.54
150.75,0.20,1.79,0.20,1.79,-1.79,-1.48,-1.55,-1.59,-1.59,-1.59
152.26,0.14,1.77,0.14,1.76,-1.76,-1.46,-1.50,-1.62,-1.62,-1.63
153.78,0.06,1.72,0.06,1.73,-1.73,-1.44,-1.45,-1.67,-1.67,-1.66
155.32,-0.00,1.71,-0.00,1.70,-1.70,-1.42,-1.40,-1.70,-1.70,-1.71
156.88,-0.08,1.66,-0.08,1.67,-1.67,-1.40,-1.35,-1.75,-1.75,-1.74
158.44,-0.15,1.65,-0.16,1.63,-1.64,-1.38,-1.30,-1.79,-1.80,-1.80
160.03,-0.26,1.58,-0.24,1.60,-1.61,-1.36,-1.26,-1.87,-1.85,-1.84
161.63,-0.32,1.57,-0.32,1.57,-1.57,-1.35,-1.21,-1.90,-1.90,-1.89
163.24,-0.38,1.55,-0.40,1.54,-1.54,-1.33,-1.16,-1.92,-1.94,-1.93
164.88,-0.47,1.50,-0.46,1.51,-1.51,-1.31,-1.11,-1.98,-1.96,-1.97
166.53,-0.53,1.48,-0.53,1.48,-1.47,-1.30,-1.06,-2.00,-2.01,-2.01
168.19,-0.60,1.45,-0.61,1.44,-1.43,-1.28,-1.01,-2.04,-2.05,-2.05
169.87,-0.70,1.39,-0.69,1.40,-1.40,-1.26,-0.97,-2.10,-2.09,-2.09
171.57,-0.77,1.35,-0.77,1.35,-1.36,-1.25,-0.92,-2.13,-2.13,-2.12
173.29,-0.84,1.32,-0.85,1.31,-1.32,-1.23,-0.88,-2.16,-2.17,-2.16
175.02,-0.94,1.26,-0.93,1.27,-1.27,-1.22,-0.83,-2.22,-2.20,-2.20
176.77,-1.01,1.22,-1.01,1.22,-1.22,-1.20,-0.79,-2.24,-2.23,-2.23
178.54,-1.08,1.18,-1.08,1.18,-1.17,-1.19,-0.74,-2.25,-2.25,-2.26
180.32,-1.15,1.14,-1.15,1.13,-1.12,-1.17,-0.70,-2.27,-2.27,-2.29
182.13,-1.22,1.09,-1.24,1.07,-1.06,-1.16,-0.66,-2.28,-2.30,-2.31
183.95,-1.35,0.98,-1.33,1.00,-1.00,-1.15,-0.61,-2.35,-2.33,-2.33
185.79,-1.42,0.93,-1.42,0.93,-0.94,-1.13,-0.57,-2.36,-2.36,-2.35
187.65,-1.50,0.87,-1.50,0.87,-0.88,-1.12,-0.53,-2.38,-2.38,-2.37
189.52,-1.56,0.82,-1.57,0.82,-0.82,-1.11,-0.49,-2.38,-2.39,-2.38
191.42,-1.63,0.77,-1.63,0.77,-0.77,-1.09,-0.45,-2.40,-2.40,-2.40
193.33,-1.69,0.72,-1.69,0.72,-0.73,-1.08,-0.41,-2.42,-2.41,-2.41
195.27,-1.74,0.68,-1.74,0.69,-0.69,-1.07,-0.37,-2.43,-2.43,-2.42
197.22,-1.78,0.66,-1.78,0.66,-0.66,-1.05,-0.34,-2.44,-2.44,-2.44
199.19,-1.82,0.64,-1.82,0.64,-0.63,-1.04,-0.30,-2.45,-2.45,-2.46
201.18,-1.85,0.62,-1.85,0.62,-0.61,-1.03,-0.26,-2.47,-2.46,-2.47
203.19,-1.87,0.60,-1.87,0.60,-0.60,-1.01,-0.23,-2.47,-2.48,-2.47
205.23,-1.89,0.60,-1.89,0.59,-0.60,-1.00,-0.19,-2.49,-2.49,-2.49
207.28,-1.90,0.59,-1.90,0.59,-0.61,-0.99,-0.16,-2.51,-2.51,-2.49
209.35,-1.91,0.60,-1.91,0.60,-0.62,-0.97,-0.13,-2.53,-2.53,-2.51
211.44,-1.91,0.62,-1.91,0.62,-0.63,-0.96,-0.10,-2.54,-2.54,-2.53
213.56,-1.89,0.65,-1.89,0.65,-0.65,-0.94,-0.07,-2.54,-2.54,-2.54
215.69,-1.87,0.67,-1.87,0.67,-0.67,-0.92,-0.04,-2.54,-2.54,-2.54
217.85,-1.86,0.70,-1.86,0.70,-0.68,-0.91,-0.01,-2.54,-2.55,-2.56
220.03,-1.86,0.71,-1.86,0.71,-0.70,-0.89,0.01,-2.56,-2.56,-2.57
222.23,-1.87,0.72,-1.87,0.71,-0.71,-0.87,0.04,-2.58,-2.58,-2.59
224.45,-1.89,0.70,-1.89,0.71,-0.71,-0.85,0.06,-2.60,-2.60,-2.59
226.70,-1.91,0.70,-1.91,0.70,-0.71,-0.83,0.08,-2.62,-2.62,-2.61
228.96,-1.93,0.69,-1.93,0.69,-0.70,-0.81,0.10,-2.63,-2.63,-2.62
231.25,-1.95,0.68,-1.95,0.68,-0.69,-0.78,0.12,-2.64,-2.64,-2.63
233.57,-1.97,0.68,-1.98,0.67,-0.67,-0.76,0.13,-2.64,-2.65,-2.65
235.90,-2.03,0.63,-2.02,0.65,-0.65,-0.73,0.14,-2.68,-2.67,-2.66
238.26,-2.05,0.63,-2.06,0.63,-0.62,-0.70,0.15,-2.68,-2.68,-2.68
240.64,-2.10,0.60,-2.10,0.60,-0.59,-0.66,0.16,-2.69,-2.69,-2.70
243.05,-2.14,0.57,-2.15,0.56,-0.55,-0.63,0.17,-2.70,-2.70,-2.71
245.48,-2.20,0.52,-2.21,0.51,-0.51,-0.59,0.17,-2.71,-2.72,-2.72
247.93,-2.29,0.44,-2.28,0.45,-0.46,-0.55,0.17,-2.75,-2.73,-2.73
250.41,-2.34,0.40,-2.35,0.39,-0.40,-0.50,0.17,-2.74,-2.74,-2.74
252.92,-2.41,0.32,-2.41,0.33,-0.33,-0.45,0.16,-2.74,-2.74,-2.73
255.45,-2.47,0.26,-2.47,0.26,-0.26,-0.39,0.15,-2.73,-2.73,-2.73
258.00,-2.53,0.19,-2.54,0.19,-0.18,-0.33,0.14,-2.71,-2.72,-2.72
260.58,-2.62,0.10,-2.61,0.11,-0.09,-0.26,0.13,-2.71,-2.70,-2.72
263.19,-2.68,0.03,-2.69,0.02,-0.01,-0.19,0.12,-2.69,-2.70,-2.71
265.82,-2.78,-0.08,-2.78,-0.08,0.08,-0.11,0.10,-2.70,-2.69,-2.70
268.48,-2.86,-0.18,-2.85,-0.17,0.17,-0.03,0.08,-2.69,-2.69,-2.68
271.16,-2.92,-0.26,-2.93,-0.27,0.25,0.06,0.06,-2.67,-2.68,-2.66
273.87,-3.00,-0.35,-2.99,-0.35,0.33,0.16,0.04,-2.67,-2.66,-2.65
276.61,-3.05,-0.43,-3.04,-0.41,0.41,0.26,0.01,-2.65,-2.64,-2.62
279.38,-3.08,-0.46,-3.09,-0.47,0.47,0.37,-0.02,-2.61,-2.62,-2.62
282.17,-3.12,-0.52,-3.13,-0.52,0.52,0.48,-0.05,-2.60,-2.60,-2.60
284.99,-3.16,-0.57,-3.16,-0.57,0.57,0.59,-0.08,-2.59,-2.59,-2.59
287.84,-3.19,-0.62,-3.18,-0.61,0.61,0.70,-0.11,-2.58,-2.57,-2.57
290.72,-3.19,-0.64,-3.20,-0.64,0.64,0.80,-0.15,-2.55,-2.55,-2.55
293.63,-3.20,-0.66,-3.21,-0.67,0.67,0.89,-0.18,-2.53,-2.54,-2.54
296.57,-3.22,-0.71,-3.22,-0.70,0.70,0.97,-0.22,-2.52,-2.52,-2.51
299.53,-3.23,-0.73,-3.22,-0.72,0.73,1.02,-0.26,-2.51,-2.50,-2.50
302.53,-3.22,-0.73,-3.22,-0.74,0.75,1.06,-0.30,-2.47,-2.48,-2.49
305.55,-3.21,-0.75,-3.22,-0.75,0.76,1.06,-0.34,-2.45,-2.45,-2.46
308.61,-3.21,-0.77,-3.21,-0.77,0.78,1.04,-0.38,-2.43,-2.43,-2.44
311.69,-3.19,-0.78,-3.20,-0.79,0.78,0.99,-0.42,-2.41,-2.41,-2.41
314.81,-3.18,-0.81,-3.18,-0.79,0.78,0.91,-0.47,-2.40,-2.39,-2.37
317.96,-3.14,-0.78,-3.14,-0.78,0.77,0.82,-0.51,-2.37,-2.37,-2.36
321.14,-3.09,-0.75,-3.09,-0.75,0.75,0.70,-0.56,-2.34,-2.34,-2.34
324.35,-3.03,-0.71,-3.04,-0.71,0.72,0.58,-0.60,-2.31,-2.32,-2.32
327.59,-2.97,-0.67,-2.97,-0.67,0.67,0.45,-0.65,-2.30,-2.30,-2.30
330.87,-2.90,-0.62,-2.90,-0.62,0.61,0.31,-0.70,-2.29,-2.28,-2.28
334.18,-2.81,-0.56,-2.81,-0.55,0.54,0.17,-0.75,-2.27,-2.27,-2.25
337.52,-2.69,-0.46,-2.70,-0.47,0.46,0.04,-0.80,-2.23,-2.24,-2.23
340.90,-2.58,-0.37,-2.58,-0.37,0.37,-0.09,-0.85,-2.22,-2.21,-2.21
344.30,-2.44,-0.26,-2.45,-0.26,0.26,-0.22,-0.90,-2.18,-2.18,-2.18
347.75,-2.31,-0.15,-2.31,-0.15,0.15,-0.34,-0.95,-2.16,-2.16,-2.16
351.23,-2.16,-0.03,-2.16,-0.03,0.03,-0.45,-1.01,-2.13,-2.13,-2.13
354.74,-2.01,0.09,-2.01,0.10,-0.09,-0.56,-1.06,-2.10,-2.11,-2.10
358.28,-1.85,0.24,-1.86,0.22,-0.22,-0.66,-1.11,-2.07,-2.08,-2.09
361.87,-1.71,0.35,-1.70,0.36,-0.36,-0.75,-1.17,-2.07,-2.06,-2.06
365.49,-1.54,0.49,-1.55,0.49,-0.50,-0.84,-1.23,-2.04,-2.05,-2.03
369.14,-1.38,0.64,-1.39,0.63,-0.64,-0.92,-1.28,-2.02,-2.03,-2.02
372.83,-1.23,0.76,-1.21,0.78,-0.78,-1.00,-1.34,-2.01,-2.00,-1.99
376.56,-1.03,0.94,-1.04,0.93,-0.93,-1.07,-1.40,-1.96,-1.97,-1.97
380.33,-0.87,1.07,-0.87,1.07,-1.07,-1.14,-1.46,-1.94,-1.94,-1.94
384.13,-0.71,1.22,-0.71,1.22,-1.21,-1.20,-1.52,-1.92,-1.92,-1.93
387.97,-0.56,1.35,-0.56,1.35,-1.34,-1.26,-1.58,-1.90,-1.91,-1.91
391.85,-0.42,1.48,-0.42,1.48,-1.48,-1.32,-1.64,-1.90,-1.89,-1.90
395.77,-0.28,1.59,-0.28,1.60,-1.60,-1.37,-1.70,-1.89,-1.88,-1.87
399.73,-0.14,1.72,-0.14,1.72,-1.73,-1.42,-1.76,-1.87,-1.87,-1.86
403.72,-0.01,1.85,-0.01,1.84,-1.85,-1.47,-1.82,-1.86,-1.86,-1.86
407.76,0.11,1.96,0.11,1.96,-1.96,-1.52,-1.88,-1.85,-1.85,-1.85
411.84,0.23,2.07,0.22,2.07,-2.07,-1.57,-1.94,-1.84,-1.85,-1.84
415.96,0.33,2.18,0.33,2.18,-2.18,-1.61,-2.00,-1.85,-1.85,-1.85
420.12,0.43,2.28,0.43,2.28,-2.28,-1.65,-2.06,-1.85,-1.85,-1.85
424.32,0.52,2.37,0.52,2.37,-2.37,-1.69,-2.12,-1.85,-1.85,-1.85
428.56,0.60,2.45,0.60,2.46,-2.46,-1.73,-2.18,-1.86,-1.85,-1.85
432.85,0.68,2.54,0.68,2.53,-2.53,-1.77,-2.24,-1.86,-1.86,-1.86
437.18,0.75,2.61,0.74,2.61,-2.61,-1.80,-2.29,-1.86,-1.86,-1.86
441.55,0.80,2.66,0.80,2.67,-2.67,-1.84,-2.35,-1.87,-1.87,-1.86
445.96,0.86,2.73,0.86,2.72,-2.73,-1.87,-2.40,-1.87,-1.87,-1.87
450.42,0.91,2.78,0.91,2.78,-2.78,-1.90,-2.45,-1.87,-1.87,-1.87
454.93,0.95,2.82,0.95,2.83,-2.81,-1.93,-2.50,-1.87,-1.86,-1.87
459.48,0.99,2.87,0.98,2.86,-2.85,-1.97,-2.54,-1.86,-1.86,-1.88
464.07,1.01,2.88,1.00,2.88,-2.87,-2.00,-2.59,-1.87,-1.87,-1.87
468.71,1.01,2.88,1.01,2.89,-2.90,-2.03,-2.63,-1.89,-1.88,-1.87
473.40,1.02,2.90,1.02,2.90,-2.91,-2.05,-2.66,-1.90,-1.89,-1.88
478.13,1.04,2.91,1.04,2.92,-2.93,-2.08,-2.70,-1.89,-1.89,-1.87
482.91,1.07,2.95,1.06,2.94,-2.94,-2.11,-2.73,-1.87,-1.88,-1.88
