frequency,raw,error,smoothed,error_smoothed,equalization,parametric_eq,fixed_band_eq,equalized_raw,equalized_smoothed,target
20.00,9.96,-0.46,9.96,-0.46,0.46,-0.18,0.05,10.42,10.42,10.42
20.20,9.97,-0.44,9.97,-0.44,0.44,-0.19,0.05,10.41,10.41,10.41
20.40,9.98,-0.42,9.98,-0.41,0.41,-0.19,0.06,10.39,10.40,10.40
20.61,10.00,-0.39,9.99,-0.39,0.39,-0.20,0.06,10.39,10.38,10.39
20.81,10.01,-0.36,10.00,-0.37,0.37,-0.20,0.06,10.38,10.37,10.37
21.02,10.02,-0.34,10.01,-0.35,0.35,-0.20,0.07,10.36,10.36,10.36
21.23,10.03,-0.32,10.03,-0.33,0.33,-0.21,0.07,10.35,10.35,10.34
21.44,10.04,-0.32,10.04,-0.31,0.31,-0.21,0.07,10.34,10.34,10.35
21.66,10.05,-0.29,10.05,-0.29,0.29,-0.22,0.08,10.33,10.33,10.33
21.87,10.06,-0.27,10.06,-0.27,0.27,-0.22,0.08,10.32,10.32,10.33
22.09,10.07,-0.24,10.07,-0.25,0.25,-0.22,0.08,10.31,10.32,10.31
22.31,10.08,-0.23,10.08,-0.23,0.23,-0.23,0.09,10.31,10.31,10.31
22.54,10.09,-0.21,10.09,-0.21,0.21,-0.23,0.09,10.30,10.30,10.30
22.76,10.10,-0.20,10.10,-0.20,0.20,-0.24,0.09,10.29,10.29,10.30
22.99,10.11,-0.18,10.11,-0.18,0.18,-0.24,0.10,10.29,10.29,10.29
23.22,10.12,-0.16,10.12,-0.17,0.17,-0.25,0.10,10.28,10.28,10.28
23.45,10.13,-0.16,10.13,-0.15,0.15,-0.25,0.11,10.28,10.28,10.28
23.69,10.14,-0.14,10.14,-0.14,0.14,-0.26,0.11,10.27,10.27,10.27
23.92,10.15,-0.11,10.15,-0.12,0.12,-0.26,0.12,10.27,10.27,10.26
24.16,10.16,-0.11,10.16,-0.11,0.11,-0.27,0.12,10.27,10.27,10.27
24.40,10.17,-0.10,10.17,-0.10,0.10,-0.27,0.12,10.26,10.26,10.27
24.65,10.18,-0.09,10.18,-0.08,0.08,-0.28,0.13,10.26,10.26,10.27
24.89,10.19,-0.08,10.19,-0.07,0.07,-0.28,0.13,10.26,10.26,10.26
25.14,10.20,-0.06,10.20,-0.06,0.06,-0.29,0.14,10.26,10.26,10.25
25.39,10.21,-0.04,10.21,-0.05,0.05,-0.30,0.14,10.26,10.25,10.25
25.65,10.22,-0.03,10.21,-0.04,0.04,-0.30,0.15,10.26,10.25,10.25
25.91,10.23,-0.02,10.22,-0.03,0.03,-0.31,0.15,10.25,10.25,10.25
26.16,10.24,-0.02,10.23,-0.02,0.02,-0.31,0.15,10.25,10.25,10.26
26.43,10.24,-0.02,10.24,-0.01,0.01,-0.32,0.16,10.25,10.25,10.25
26.69,10.25,-0.00,10.25,-0.00,0.00,-0.33,0.16,10.25,10.25,10.25
26.96,10.26,0.01,10.26,0.01,-0.01,-0.33,0.16,10.25,10.25,10.25
27.23,10.27,0.02,10.27,0.02,-0.02,-0.34,0.16,10.25,10.25,10.25
27.50,10.28,0.03,10.27,0.02,-0.02,-0.35,0.16,10.25,10.25,10.24
27.77,10.28,0.03,10.28,0.03,-0.03,-0.35,0.17,10.25,10.25,10.25
28.05,10.29,0.04,10.29,0.04,-0.04,-0.36,0.17,10.25,10.25,10.25
28.33,10.30,0.04,10.30,0.04,-0.04,-0.37,0.17,10.25,10.25,10.26
28.62,10.31,0.05,10.30,0.05,-0.05,-0.38,0.16,10.26,10.25,10.25
28.90,10.32,0.06,10.31,0.06,-0.06,-0.38,0.16,10.26,10.25,10.26
29.19,10.32,0.06,10.32,0.07,-0.07,-0.39,0.16,10.25,10.25,10.26
29.48,10.33,0.07,10.33,0.08,-0.08,-0.40,0.16,10.25,10.25,10.25
29.78,10.34,0.09,10.33,0.09,-0.09,-0.41,0.15,10.25,10.25,10.25
30.08,10.34,0.09,10.34,0.10,-0.10,-0.41,0.15,10.24,10.24,10.25
30.38,10.35,0.11,10.35,0.11,-0.11,-0.42,0.14,10.24,10.24,10.23
30.68,10.35,0.12,10.35,0.12,-0.12,-0.43,0.13,10.23,10.23,10.23
30.99,10.36,0.13,10.36,0.13,-0.13,-0.44,0.12,10.23,10.23,10.23
31.30,10.37,0.14,10.36,0.14,-0.14,-0.45,0.11,10.22,10.22,10.22
31.61,10.37,0.15,10.37,0.16,-0.16,-0.46,0.10,10.21,10.21,10.22
31.93,10.38,0.18,10.38,0.17,-0.17,-0.47,0.09,10.21,10.20,10.19
32.24,10.38,0.18,10.38,0.19,-0.19,-0.48,0.08,10.19,10.20,10.20
32.57,10.39,0.20,10.39,0.20,-0.20,-0.49,0.06,10.19,10.19,10.18
32.89,10.40,0.22,10.39,0.21,-0.21,-0.50,0.05,10.18,10.18,10.18
33.22,10.40,0.22,10.40,0.23,-0.23,-0.51,0.03,10.17,10.17,10.17
33.55,10.41,0.24,10.41,0.24,-0.24,-0.52,0.01,10.17,10.16,10.17
33.89,10.41,0.25,10.41,0.25,-0.25,-0.53,-0.01,10.15,10.16,10.15
34.23,10.41,0.27,10.41,0.27,-0.27,-0.54,-0.03,10.14,10.15,10.14
34.57,10.42,0.29,10.41,0.28,-0.28,-0.55,-0.05,10.14,10.14,10.13
34.92,10.43,0.31,10.42,0.29,-0.29,-0.56,-0.07,10.14,10.12,10.12
35.27,10.43,0.30,10.42,0.30,-0.30,-0.57,-0.09,10.12,10.11,10.13
35.62,10.42,0.31,10.42,0.31,-0.31,-0.58,-0.11,10.10,10.10,10.10
35.97,10.42,0.32,10.41,0.33,-0.33,-0.59,-0.14,10.09,10.09,10.10
36.33,10.41,0.33,10.41,0.34,-0.34,-0.61,-0.16,10.07,10.07,10.08
36.70,10.41,0.36,10.41,0.36,-0.36,-0.62,-0.19,10.05,10.05,10.05
37.06,10.40,0.36,10.40,0.37,-0.37,-0.63,-0.21,10.03,10.03,10.03
37.43,10.40,0.38,10.40,0.38,-0.38,-0.64,-0.24,10.01,10.01,10.01
37.81,10.39,0.39,10.39,0.40,-0.40,-0.66,-0.26,9.99,9.99,10.00
38.19,10.39,0.42,10.38,0.41,-0.41,-0.67,-0.29,9.97,9.97,9.97
38.57,10.38,0.43,10.38,0.43,-0.43,-0.68,-0.32,9.95,9.95,9.95
38.95,10.37,0.44,10.37,0.44,-0.44,-0.70,-0.35,9.92,9.93,9.93
39.34,10.36,0.46,10.36,0.46,-0.46,-0.71,-0.38,9.90,9.90,9.90
39.74,10.36,0.49,10.35,0.47,-0.47,-0.73,-0.41,9.88,9.88,9.87
40.14,10.35,0.50,10.34,0.49,-0.49,-0.74,-0.44,9.86,9.85,9.85
40.54,10.33,0.50,10.33,0.50,-0.50,-0.76,-0.47,9.82,9.83,9.83
40.94,10.32,0.52,10.32,0.52,-0.52,-0.77,-0.50,9.80,9.80,9.80
41.35,10.31,0.53,10.31,0.53,-0.53,-0.79,-0.53,9.78,9.78,9.78
41.76,10.30,0.55,10.29,0.54,-0.54,-0.80,-0.56,9.75,9.75,9.74
42.18,10.28,0.55,10.28,0.56,-0.56,-0.82,-0.59,9.72,9.73,9.73
42.60,10.27,0.57,10.27,0.57,-0.57,-0.84,-0.63,9.70,9.70,9.70
43.03,10.26,0.58,10.25,0.58,-0.58,-0.85,-0.66,9.68,9.67,9.67
43.46,10.24,0.60,10.24,0.59,-0.59,-0.87,-0.69,9.64,9.64,9.64
43.90,10.22,0.60,10.22,0.61,-0.61,-0.89,-0.73,9.61,9.61,9.62
44.33,10.21,0.63,10.21,0.62,-0.62,-0.91,-0.76,9.59,9.58,9.58
44.78,10.20,0.64,10.19,0.64,-0.64,-0.93,-0.80,9.56,9.55,9.55
45.23,10.18,0.65,10.17,0.66,-0.66,-0.94,-0.83,9.52,9.52,9.53
45.68,10.16,0.67,10.16,0.68,-0.68,-0.96,-0.87,9.48,9.48,9.48
46.13,10.15,0.70,10.14,0.70,-0.70,-0.98,-0.91,9.45,9.44,9.44
46.60,10.13,0.72,10.13,0.73,-0.73,-1.00,-0.94,9.40,9.40,9.41
47.06,10.12,0.75,10.12,0.76,-0.76,-1.02,-0.98,9.36,9.36,9.37
47.53,10.10,0.77,10.10,0.78,-0.78,-1.04,-1.02,9.31,9.32,9.33
48.01,10.09,0.82,10.09,0.82,-0.82,-1.07,-1.06,9.27,9.27,9.27
48.49,10.08,0.85,10.08,0.85,-0.85,-1.09,-1.10,9.23,9.23,9.23
48.97,10.07,0.89,10.07,0.88,-0.88,-1.11,-1.14,9.18,9.18,9.18
49.46,10.06,0.92,10.06,0.92,-0.92,-1.13,-1.18,9.14,9.14,9.13
49.96,10.05,0.97,10.05,0.96,-0.96,-1.16,-1.22,9.09,9.09,9.07
50.46,10.05,1.01,10.04,1.00,-1.00,-1.18,-1.26,9.05,9.04,9.04
50.96,10.04,1.04,10.04,1.04,-1.04,-1.21,-1.30,8.99,8.99,8.99
51.47,10.04,1.09,10.04,1.09,-1.09,-1.23,-1.34,8.95,8.95,8.95
51.99,10.03,1.13,10.04,1.14,-1.14,-1.26,-1.38,8.89,8.90,8.89
52.51,10.03,1.17,10.04,1.19,-1.19,-1.28,-1.42,8.84,8.85,8.86
53.03,10.03,1.21,10.04,1.24,-1.24,-1.31,-1.47,8.79,8.81,8.82
53.56,10.04,1.27,10.05,1.29,-1.29,-1.34,-1.51,8.75,8.76,8.77
54.10,10.05,1.34,10.05,1.34,-1.34,-1.36,-1.55,8.71,8.71,8.71
54.64,10.06,1.39,10.06,1.39,-1.39,-1.39,-1.59,8.67,8.67,8.67
55.18,10.07,1.45,10.06,1.44,-1.44,-1.42,-1.63,8.63,8.63,8.62
55.74,10.08,1.51,10.07,1.48,-1.48,-1.45,-1.67,8.59,8.58,8.57
56.29,10.08,1.54,10.07,1.53,-1.53,-1.48,-1.71,8.54,8.54,8.53
56.86,10.08,1.59,10.07,1.58,-1.58,-1.51,-1.75,8.50,8.49,8.49
57.42,10.08,1.64,10.07,1.63,-1.63,-1.54,-1.79,8.45,8.44,8.43
58.00,10.08,1.69,10.07,1.68,-1.68,-1.57,-1.83,8.40,8.39,8.39
58.58,10.07,1.72,10.06,1.72,-1.72,-1.61,-1.87,8.34,8.34,8.35
59.16,10.06,1.75,10.06,1.77,-1.77,-1.64,-1.90,8.29,8.29,8.31
59.76,10.05,1.79,10.05,1.81,-1.81,-1.68,-1.94,8.24,8.23,8.26
60.35,10.04,1.84,10.03,1.85,-1.85,-1.71,-1.97,8.19,8.18,8.20
60.96,10.02,1.88,10.02,1.89,-1.89,-1.75,-2.01,8.12,8.12,8.14
61.57,10.00,1.93,10.00,1.94,-1.94,-1.78,-2.04,8.06,8.06,8.06
62.18,9.98,1.98,9.98,1.98,-1.98,-1.82,-2.07,8.00,8.00,8.00
62.80,9.97,2.03,9.96,2.02,-2.02,-1.86,-2.10,7.95,7.94,7.93
63.43,9.95,2.08,9.94,2.06,-2.06,-1.90,-2.13,7.88,7.88,7.87
64.07,9.93,2.12,9.92,2.10,-2.10,-1.94,-2.16,7.82,7.82,7.81
64.71,9.90,2.15,9.90,2.15,-2.15,-1.98,-2.19,7.75,7.75,7.75
65.35,9.88,2.19,9.88,2.19,-2.19,-2.02,-2.22,7.69,7.69,7.69
66.01,9.86,2.23,9.85,2.23,-2.23,-2.06,-2.25,7.63,7.63,7.62
66.67,9.84,2.27,9.83,2.27,-2.27,-2.11,-2.27,7.57,7.56,7.57
67.33,9.82,2.32,9.81,2.31,-2.31,-2.15,-2.30,7.51,7.50,7.50
68.01,9.79,2.35,9.79,2.36,-2.36,-2.20,-2.32,7.43,7.43,7.44
68.69,9.78,2.40,9.77,2.40,-2.40,-2.24,-2.35,7.37,7.37,7.37
69.37,9.76,2.44,9.76,2.46,-2.46,-2.29,-2.37,7.30,7.30,7.32
70.07,9.74,2.49,9.75,2.51,-2.51,-2.34,-2.40,7.23,7.24,7.25
70.77,9.72,2.54,9.74,2.57,-2.57,-2.39,-2.42,7.15,7.17,7.17
71.48,9.72,2.61,9.74,2.63,-2.63,-2.44,-2.45,7.09,7.11,7.11
72.19,9.71,2.67,9.73,2.70,-2.70,-2.49,-2.48,7.01,7.04,7.04
72.91,9.72,2.75,9.73,2.76,-2.76,-2.54,-2.50,6.96,6.97,6.96
73.64,9.73,2.83,9.73,2.82,-2.82,-2.59,-2.53,6.90,6.90,6.90
74.38,9.74,2.91,9.73,2.89,-2.89,-2.65,-2.56,6.85,6.84,6.83
75.12,9.75,2.98,9.73,2.95,-2.95,-2.70,-2.59,6.80,6.77,6.77
75.87,9.75,3.04,9.72,3.01,-3.01,-2.76,-2.62,6.73,6.71,6.71
76.63,9.74,3.10,9.72,3.07,-3.07,-2.81,-2.65,6.67,6.65,6.64
77.40,9.73,3.14,9.71,3.13,-3.13,-2.87,-2.69,6.60,6.58,6.59
78.17,9.71,3.19,9.70,3.18,-3.18,-2.93,-2.72,6.53,6.52,6.51
78.95,9.69,3.22,9.68,3.22,-3.22,-2.99,-2.76,6.46,6.46,6.47
79.74,9.68,3.28,9.67,3.27,-3.27,-3.05,-2.80,6.41,6.40,6.40
80.54,9.65,3.30,9.64,3.31,-3.31,-3.11,-2.84,6.34,6.34,6.34
81.35,9.62,3.34,9.62,3.34,-3.34,-3.17,-2.89,6.27,6.28,6.27
82.16,9.60,3.37,9.60,3.38,-3.38,-3.23,-2.93,6.22,6.21,6.22
82.98,9.57,3.41,9.57,3.42,-3.42,-3.29,-2.98,6.15,6.15,6.15
83.81,9.54,3.44,9.55,3.46,-3.46,-3.35,-3.03,6.08,6.09,6.09
84.65,9.51,3.49,9.52,3.50,-3.50,-3.42,-3.08,6.01,6.02,6.02
85.50,9.49,3.53,9.50,3.54,-3.54,-3.48,-3.14,5.95,5.96,5.95
86.35,9.47,3.58,9.48,3.59,-3.59,-3.54,-3.19,5.88,5.89,5.89
87.22,9.45,3.62,9.46,3.63,-3.63,-3.61,-3.25,5.82,5.83,5.82
88.09,9.44,3.68,9.44,3.68,-3.68,-3.67,-3.32,5.76,5.76,5.76
88.97,9.42,3.73,9.42,3.73,-3.73,-3.74,-3.38,5.69,5.69,5.69
89.86,9.40,3.78,9.40,3.78,-3.78,-3.80,-3.45,5.62,5.62,5.62
90.76,9.38,3.83,9.38,3.83,-3.83,-3.86,-3.52,5.55,5.55,5.55
91.66,9.37,3.89,9.36,3.88,-3.88,-3.92,-3.59,5.49,5.48,5.47
92.58,9.35,3.94,9.34,3.93,-3.93,-3.99,-3.67,5.42,5.40,5.41
93.51,9.33,3.99,9.31,3.98,-3.98,-4.05,-3.74,5.35,5.33,5.34
94.44,9.31,4.04,9.29,4.03,-4.03,-4.11,-3.82,5.27,5.26,5.27
95.39,9.28,4.09,9.27,4.08,-4.08,-4.17,-3.90,5.19,5.18,5.19
96.34,9.25,4.13,9.24,4.13,-4.13,-4.23,-3.99,5.11,5.11,5.11
97.30,9.22,4.18,9.22,4.18,-4.18,-4.29,-4.07,5.03,5.04,5.04
98.28,9.18,4.22,9.20,4.23,-4.23,-4.34,-4.16,4.94,4.96,4.95
99.26,9.16,4.28,9.18,4.29,-4.29,-4.40,-4.25,4.87,4.89,4.88
100.25,9.14,4.33,9.15,4.34,-4.34,-4.45,-4.34,4.80,4.82,4.81
101.25,9.12,4.38,9.13,4.38,-4.38,-4.50,-4.44,4.73,4.75,4.74
102.27,9.11,4.43,9.11,4.43,-4.43,-4.55,-4.53,4.68,4.68,4.68
103.29,9.09,4.49,9.08,4.48,-4.48,-4.60,-4.62,4.61,4.61,4.60
104.32,9.07,4.53,9.06,4.52,-4.52,-4.65,-4.72,4.54,4.54,4.54
105.37,9.05,4.58,9.04,4.57,-4.57,-4.70,-4.81,4.48,4.47,4.47
106.42,9.03,4.62,9.01,4.61,-4.61,-4.74,-4.91,4.41,4.40,4.40
107.48,9.01,4.68,8.99,4.66,-4.66,-4.78,-5.00,4.35,4.33,4.33
108.56,8.98,4.71,8.97,4.71,-4.71,-4.82,-5.09,4.27,4.26,4.26
109.64,8.95,4.75,8.94,4.75,-4.75,-4.86,-5.19,4.19,4.19,4.20
110.74,8.91,4.78,8.91,4.80,-4.80,-4.90,-5.27,4.11,4.12,4.12
111.85,8.87,4.82,8.89,4.84,-4.84,-4.94,-5.36,4.03,4.05,4.05
112.97,8.85,4.86,8.86,4.89,-4.89,-4.97,-5.44,3.96,3.97,3.98
114.10,8.83,4.92,8.83,4.93,-4.93,-5.01,-5.52,3.90,3.90,3.91
115.24,8.81,4.98,8.81,4.97,-4.97,-5.04,-5.60,3.83,3.83,3.83
116.39,8.79,5.03,8.78,5.02,-5.02,-5.07,-5.67,3.77,3.76,3.75
117.55,8.76,5.08,8.76,5.06,-5.06,-5.10,-5.74,3.69,3.69,3.68
118.73,8.73,5.12,8.73,5.11,-5.11,-5.13,-5.80,3.62,3.62,3.61
119.92,8.70,5.15,8.71,5.15,-5.15,-5.16,-5.85,3.55,3.55,3.55
121.12,8.68,5.19,8.68,5.20,-5.20,-5.19,-5.90,3.48,3.48,3.49
122.33,8.66,5.24,8.66,5.24,-5.24,-5.22,-5.94,3.42,3.41,3.42
123.55,8.64,5.28,8.63,5.28,-5.28,-5.25,-5.98,3.36,3.35,3.36
124.79,8.61,5.32,8.60,5.32,-5.32,-5.27,-6.01,3.29,3.28,3.29
126.03,8.57,5.35,8.57,5.36,-5.36,-5.30,-6.03,3.21,3.21,3.22
127.29,8.56,5.40,8.54,5.39,-5.39,-5.33,-6.04,3.16,3.14,3.15
128.57,8.53,5.45,8.51,5.43,-5.43,-5.36,-6.05,3.10,3.08,3.08
129.85,8.49,5.48,8.48,5.47,-5.47,-5.38,-6.05,3.02,3.01,3.01
131.15,8.44,5.50,8.45,5.51,-5.51,-5.41,-6.05,2.93,2.94,2.94
132.46,8.41,5.53,8.42,5.54,-5.54,-5.44,-6.04,2.86,2.88,2.87
133.79,8.38,5.58,8.39,5.58,-5.58,-5.46,-6.02,2.80,2.81,2.80
135.12,8.33,5.59,8.36,5.61,-5.61,-5.49,-6.00,2.71,2.74,2.74
136.48,8.31,5.63,8.32,5.65,-5.65,-5.52,-5.98,2.66,2.68,2.68
137.84,8.29,5.68,8.29,5.68,-5.68,-5.54,-5.95,2.61,2.61,2.61
139.22,8.28,5.73,8.26,5.71,-5.71,-5.57,-5.91,2.57,2.55,2.54
140.61,8.25,5.76,8.22,5.74,-5.74,-5.60,-5.88,2.51,2.49,2.49
142.02,8.21,5.79,8.19,5.76,-5.76,-5.63,-5.84,2.44,2.43,2.42
143.44,8.18,5.81,8.16,5.79,-5.79,-5.65,-5.80,2.39,2.37,2.37
144.87,8.14,5.82,8.13,5.82,-5.82,-5.68,-5.76,2.32,2.31,2.31
146.32,8.10,5.84,8.10,5.85,-5.85,-5.71,-5.72,2.25,2.26,2.25
147.78,8.06,5.85,8.07,5.87,-5.87,-5.74,-5.68,2.19,2.20,2.20
149.26,8.02,5.87,8.04,5.89,-5.89,-5.77,-5.64,2.12,2.15,2.14
150.75,7.99,5.90,8.01,5.92,-5.92,-5.80,-5.60,2.07,2.09,2.09
152.26,7.97,5.93,7.97,5.94,-5.94,-5.82,-5.56,2.03,2.03,2.04
153.78,7.94,5.95,7.94,5.96,-5.96,-5.85,-5.53,1.98,1.98,1.98
155.32,7.93,6.00,7.91,5.98,-5.98,-5.88,-5.49,1.95,1.93,1.93
156.88,7.89,6.01,7.88,6.01,-6.01,-5.91,-5.46,1.88,1.87,1.88
158.44,7.86,6.04,7.85,6.03,-6.03,-5.94,-5.43,1.82,1.82,1.81
160.03,7.81,6.04,7.82,6.06,-6.06,-5.96,-5.40,1.75,1.76,1.76
161.63,7.78,6.07,7.79,6.08,-6.08,-5.99,-5.38,1.69,1.70,1.71
163.24,7.75,6.10,7.76,6.11,-6.11,-6.02,-5.36,1.64,1.65,1.65
164.88,7.71,6.11,7.72,6.13,-6.13,-6.04,-5.34,1.58,1.59,1.59
166.53,7.69,6.16,7.69,6.15,-6.15,-6.07,-5.33,1.53,1.54,1.53
168.19,7.67,6.18,7.65,6.17,-6.17,-6.10,-5.32,1.49,1.48,1.48
169.87,7.63,6.21,7.61,6.19,-6.19,-6.12,-5.31,1.44,1.42,1.42
171.57,7.60,6.24,7.57,6.21,-6.21,-6.14,-5.31,1.39,1.36,1.36
173.29,7.56,6.25,7.53,6.22,-6.22,-6.17,-5.31,1.33,1.31,1.31
175.02,7.48,6.22,7.49,6.24,-6.24,-6.19,-5.32,1.24,1.25,1.25
176.77,7.44,6.24,7.45,6.25,-6.25,-6.21,-5.33,1.18,1.19,1.19
178.54,7.40,6.26,7.41,6.27,-6.27,-6.23,-5.35,1.13,1.14,1.14
180.32,7.36,6.28,7.36,6.28,-6.28,-6.25,-5.36,1.08,1.08,1.07
182.13,7.32,6.29,7.32,6.29,-6.29,-6.27,-5.39,1.02,1.03,1.03
183.95,7.26,6.28,7.28,6.30,-6.30,-6.28,-5.41,0.95,0.97,0.98
185.79,7.22,6.30,7.23,6.31,-6.31,-6.30,-5.44,0.90,0.92,0.92
187.65,7.19,6.32,7.19,6.32,-6.32,-6.31,-5.48,0.87,0.87,0.87
189.52,7.15,6.33,7.15,6.33,-6.33,-6.33,-5.52,0.82,0.81,0.82
191.42,7.11,6.34,7.10,6.34,-6.34,-6.34,-5.56,0.77,0.76,0.77
193.33,7.07,6.34,7.06,6.35,-6.35,-6.35,-5.60,0.72,0.72,0.72
195.27,7.03,6.36,7.02,6.35,-6.35,-6.35,-5.65,0.68,0.67,0.67
197.22,6.98,6.37,6.97,6.35,-6.35,-6.36,-5.70,0.63,0.62,0.61
199.19,6.94,6.36,6.93,6.35,-6.35,-6.37,-5.76,0.59,0.58,0.58
201.18,6.89,6.36,6.88,6.34,-6.34,-6.37,-5.81,0.54,0.54,0.52
203.19,6.84,6.34,6.84,6.34,-6.34,-6.37,-5.87,0.50,0.50,0.49
205.23,6.80,6.33,6.79,6.33,-6.33,-6.37,-5.93,0.46,0.46,0.46
207.28,6.75,6.32,6.74,6.32,-6.32,-6.37,-6.00,0.42,0.42,0.42
209.35,6.70,6.31,6.69,6.31,-6.31,-6.37,-6.06,0.38,0.38,0.38
211.44,6.64,6.29,6.65,6.30,-6.30,-6.36,-6.12,0.34,0.34,0.35
213.56,6.58,6.26,6.60,6.29,-6.29,-6.36,-6.19,0.29,0.31,0.32
215.69,6.54,6.25,6.55,6.27,-6.27,-6.35,-6.25,0.27,0.28,0.28
217.85,6.49,6.24,6.50,6.26,-6.26,-6.34,-6.31,0.23,0.25,0.25
220.03,6.46,6.24,6.45,6.24,-6.24,-6.32,-6.37,0.22,0.22,0.21
222.23,6.43,6.25,6.41,6.22,-6.22,-6.31,-6.43,0.21,0.19,0.18
224.45,6.37,6.21,6.36,6.20,-6.20,-6.29,-6.49,0.17,0.16,0.16
226.70,6.32,6.19,6.31,6.18,-6.18,-6.28,-6.54,0.13,0.13,0.12
228.96,6.27,6.15,6.27,6.16,-6.16,-6.26,-6.59,0.10,0.10,0.11
231.25,6.23,6.15,6.22,6.14,-6.14,-6.23,-6.63,0.09,0.08,0.08
233.57,6.19,6.13,6.18,6.12,-6.12,-6.21,-6.67,0.07,0.06,0.06
235.90,6.13,6.09,6.14,6.10,-6.10,-6.19,-6.70,0.03,0.04,0.04
238.26,6.09,6.07,6.10,6.07,-6.07,-6.16,-6.72,0.01,0.02,0.01
240.64,6.05,6.03,6.06,6.05,-6.05,-6.13,-6.74,0.00,0.01,0.01
243.05,6.01,6.01,6.01,6.02,-6.02,-6.10,-6.75,-0.01,-0.00,-0.00
245.48,5.97,5.99,5.97,5.99,-5.99,-6.07,-6.75,-0.02,-0.02,-0.02
247.93,5.93,5.96,5.93,5.96,-5.96,-6.04,-6.74,-0.03,-0.03,-0.04
250.41,5.90,5.93,5.90,5.93,-5.93,-6.00,-6.73,-0.03,-0.03,-0.03
252.92,5.86,5.89,5.86,5.90,-5.90,-5.97,-6.70,-0.04,-0.04,-0.04
255.45,5.83,5.88,5.82,5.87,-5.87,-5.93,-6.67,-0.04,-0.05,-0.05
258.00,5.79,5.84,5.78,5.84,-5.84,-5.89,-6.62,-0.05,-0.06,-0.06
260.58,5.74,5.80,5.74,5.80,-5.80,-5.85,-6.57,-0.06,-0.06,-0.06
263.19,5.70,5.76,5.69,5.76,-5.76,-5.81,-6.52,-0.07,-0.07,-0.06
265.82,5.64,5.71,5.65,5.72,-5.72,-5.76,-6.45,-0.08,-0.08,-0.08
268.48,5.61,5.68,5.60,5.68,-5.68,-5.72,-6.38,-0.07,-0.08,-0.08
271.16,5.57,5.65,5.55,5.64,-5.64,-5.67,-6.30,-0.07,-0.09,-0.08
273.87,5.51,5.60,5.50,5.59,-5.59,-5.63,-6.21,-0.08,-0.09,-0.09
276.61,5.46,5.55,5.44,5.54,-5.54,-5.58,-6.12,-0.08,-0.10,-0.09
279.38,5.39,5.50,5.39,5.49,-5.49,-5.53,-6.03,-0.10,-0.10,-0.11
282.17,5.33,5.44,5.33,5.43,-5.43,-5.48,-5.93,-0.11,-0.10,-0.11
284.99,5.27,5.37,5.27,5.38,-5.38,-5.43,-5.83,-0.11,-0.10,-0.10
287.84,5.20,5.30,5.22,5.32,-5.32,-5.38,-5.72,-0.12,-0.10,-0.10
290.72,5.16,5.27,5.16,5.26,-5.26,-5.33,-5.62,-0.10,-0.10,-0.11
293.63,5.12,5.22,5.10,5.20,-5.20,-5.28,-5.51,-0.09,-0.10,-0.10
296.57,5.06,5.15,5.04,5.14,-5.14,-5.22,-5.40,-0.09,-0.10,-0.10
299.53,5.00,5.09,4.99,5.09,-5.09,-5.17,-5.29,-0.09,-0.10,-0.10
302.53,4.93,5.01,4.94,5.03,-5.03,-5.11,-5.18,-0.10,-0.09,-0.08
305.55,4.88,4.97,4.89,4.97,-4.97,-5.06,-5.07,-0.10,-0.09,-0.09
308.61,4.83,4.91,4.84,4.92,-4.92,-5.00,-4.97,-0.09,-0.08,-0.08
311.69,4.78,4.85,4.79,4.87,-4.87,-4.95,-4.86,-0.09,-0.08,-0.08
314.81,4.74,4.81,4.75,4.82,-4.82,-4.89,-4.75,-0.08,-0.07,-0.07
317.96,4.70,4.77,4.70,4.77,-4.77,-4.83,-4.65,-0.07,-0.07,-0.07
321.14,4.66,4.71,4.66,4.72,-4.72,-4.78,-4.55,-0.07,-0.06,-0.06
324.35,4.63,4.69,4.62,4.68,-4.68,-4.72,-4.45,-0.05,-0.05,-0.06
327.59,4.59,4.62,4.59,4.63,-4.63,-4.66,-4.35,-0.05,-0.05,-0.04
330.87,4.56,4.60,4.55,4.59,-4.59,-4.60,-4.26,-0.04,-0.04,-0.04
334.18,4.52,4.55,4.52,4.55,-4.55,-4.55,-4.16,-0.04,-0.04,-0.04
337.52,4.48,4.51,4.49,4.51,-4.51,-4.49,-4.07,-0.04,-0.03,-0.03
340.90,4.45,4.47,4.45,4.47,-4.47,-4.43,-3.99,-0.03,-0.02,-0.02
344.30,4.42,4.43,4.41,4.43,-4.43,-4.37,-3.90,-0.01,-0.02,-0.01
347.75,4.39,4.39,4.38,4.39,-4.39,-4.31,-3.82,0.00,-0.01,-0.01
351.23,4.36,4.37,4.34,4.34,-4.34,-4.25,-3.74,0.02,-0.00,-0.01
354.74,4.32,4.30,4.30,4.29,-4.29,-4.20,-3.67,0.02,0.00,0.01
358.28,4.26,4.25,4.26,4.25,-4.25,-4.14,-3.59,0.01,0.01,0.01
361.87,4.22,4.20,4.22,4.20,-4.20,-4.08,-3.52,0.02,0.02,0.02
365.49,4.18,4.15,4.17,4.15,-4.15,-4.02,-3.46,0.03,0.02,0.02
369.14,4.13,4.09,4.13,4.10,-4.10,-3.96,-3.39,0.03,0.03,0.04
372.83,4.08,4.03,4.08,4.04,-4.04,-3.90,-3.33,0.04,0.04,0.04
376.56,4.02,3.98,4.03,3.98,-3.98,-3.85,-3.27,0.03,0.05,0.04
380.33,3.97,3.92,3.98,3.93,-3.93,-3.79,-3.21,0.04,0.06,0.05
384.13,3.94,3.87,3.93,3.87,-3.87,-3.73,-3.16,0.07,0.06,0.07
387.97,3.89,3.81,3.88,3.81,-3.81,-3.67,-3.11,0.08,0.07,0.07
391.85,3.84,3.76,3.83,3.75,-3.75,-3.62,-3.06,0.09,0.08,0.08
395.77,3.79,3.70,3.77,3.68,-3.68,-3.56,-3.01,0.10,0.09,0.09
399.73,3.72,3.62,3.72,3.62,-3.62,-3.50,-2.96,0.10,0.10,0.09
403.72,3.67,3.55,3.67,3.56,-3.56,-3.45,-2.92,0.11,0.11,0.12
407.76,3.62,3.50,3.62,3.50,-3.50,-3.39,-2.88,0.12,0.12,0.12
411.84,3.56,3.43,3.56,3.44,-3.44,-3.33,-2.84,0.12,0.13,0.13
415.96,3.51,3.36,3.51,3.37,-3.37,-3.28,-2.80,0.13,0.14,0.14
420.12,3.46,3.32,3.45,3.31,-3.31,-3.22,-2.76,0.15,0.14,0.14
424.32,3.39,3.24,3.40,3.25,-3.25,-3.17,-2.73,0.14,0.15,0.15
428.56,3.34,3.17,3.34,3.18,-3.18,-3.11,-2.69,0.15,0.16,0.17
432.85,3.29,3.11,3.29,3.12,-3.12,-3.06,-2.66,0.17,0.17,0.18
437.18,3.24,3.06,3.24,3.06,-3.06,-3.00,-2.63,0.18,0.18,0.17
441.55,3.20,3.01,3.19,3.00,-3.00,-2.95,-2.59,0.20,0.19,0.18
445.96,3.15,2.96,3.13,2.94,-2.94,-2.89,-2.56,0.21,0.19,0.19
450.42,3.08,2.88,3.08,2.88,-2.88,-2.84,-2.53,0.20,0.20,0.20
454.93,3.02,2.81,3.03,2.82,-2.82,-2.79,-2.50,0.20,0.21,0.21
459.48,2.97,2.75,2.97,2.76,-2.76,-2.73,-2.47,0.21,0.22,0.22
464.07,2.93,2.69,2.92,2.69,-2.69,-2.68,-2.44,0.23,0.23,0.23
468.71,2.89,2.64,2.87,2.63,-2.63,-2.63,-2.41,0.25,0.24,0.24
473.40,2.83,2.58,2.82,2.57,-2.57,-2.57,-2.37,0.26,0.25,0.25
478.13,2.77,2.51,2.76,2.51,-2.51,-2.52,-2.34,0.26,0.26,0.26
482.91,2.71,2.44,2.71,2.44,-2.44,-2.47,-2.31,0.26,0.27,0.27
487.74,2.65,2.37,2.66,2.38,-2.38,-2.42,-2.27,0.27,0.28,0.28
492.62,2.60,2.31,2.61,2.32,-2.32,-2.36,-2.24,0.28,0.29,0.29
497.55,2.56,2.26,2.56,2.26,-2.26,-2.31,-2.20,0.30,0.30,0.30
502.52,2.51,2.20,2.51,2.20,-2.20,-2.26,-2.17,0.31,0.31,0.30
