frequency,raw,error,smoothed,error_smoothed,equalization,parametric_eq,fixed_band_eq,equalized_raw,equalized_smoothed,target
20.00,-4.50,-9.47,-4.49,-9.49,9.49,8.83,3.63,4.99,5.00,4.98
20.20,-4.43,-9.44,-4.43,-9.46,9.46,8.90,3.73,5.03,5.03,5.01
20.40,-4.37,-9.42,-4.36,-9.42,9.42,8.96,3.83,5.06,5.06,5.05
20.61,-4.30,-9.38,-4.30,-9.38,9.38,9.02,3.94,5.09,5.09,5.08
20.81,-4.23,-9.35,-4.23,-9.35,9.35,9.07,4.05,5.12,5.11,5.12
21.02,-4.16,-9.32,-4.17,-9.30,9.30,9.12,4.16,5.15,5.14,5.16
21.23,-4.10,-9.28,-4.10,-9.26,9.26,9.16,4.27,5.16,5.16,5.18
21.44,-4.04,-9.24,-4.03,-9.22,9.22,9.19,4.39,5.18,5.18,5.20
21.66,-3.97,-9.19,-3.97,-9.17,9.17,9.22,4.51,5.20,5.20,5.22
21.87,-3.91,-9.14,-3.90,-9.13,9.13,9.24,4.63,5.22,5.22,5.23
22.09,-3.84,-9.09,-3.84,-9.08,9.08,9.26,4.76,5.24,5.24,5.25
22.31,-3.77,-9.03,-3.77,-9.03,9.03,9.27,4.89,5.26,5.26,5.26
22.54,-3.71,-8.98,-3.70,-8.97,8.97,9.27,5.02,5.26,5.27,5.27
22.76,-3.64,-8.92,-3.64,-8.92,8.92,9.26,5.16,5.28,5.28,5.28
22.99,-3.57,-8.85,-3.57,-8.86,8.86,9.25,5.30,5.29,5.29,5.28
23.22,-3.51,-8.79,-3.50,-8.80,8.80,9.23,5.44,5.29,5.30,5.29
23.45,-3.44,-8.73,-3.44,-8.74,8.74,9.21,5.59,5.30,5.30,5.30
23.69,-3.37,-8.67,-3.37,-8.68,8.68,9.18,5.74,5.31,5.31,5.30
23.92,-3.30,-8.61,-3.30,-8.62,8.62,9.15,5.90,5.33,5.32,5.31
24.16,-3.24,-8.57,-3.24,-8.57,8.57,9.11,6.05,5.33,5.33,5.33
24.40,-3.17,-8.52,-3.17,-8.51,8.51,9.06,6.21,5.34,5.34,5.35
24.65,-3.10,-8.45,-3.10,-8.45,8.45,9.01,6.38,5.35,5.35,5.35
24.89,-3.04,-8.40,-3.04,-8.40,8.40,8.96,6.54,5.36,5.36,5.36
25.14,-2.97,-8.34,-2.97,-8.34,8.34,8.90,6.71,5.37,5.37,5.37
25.39,-2.91,-8.29,-2.90,-8.28,8.28,8.84,6.88,5.38,5.38,5.38
25.65,-2.84,-8.24,-2.84,-8.23,8.23,8.77,7.05,5.39,5.39,5.40
25.91,-2.77,-8.17,-2.77,-8.17,8.17,8.71,7.22,5.40,5.40,5.40
26.16,-2.71,-8.11,-2.71,-8.12,8.12,8.64,7.39,5.41,5.41,5.41
26.43,-2.64,-8.05,-2.64,-8.06,8.06,8.56,7.57,5.42,5.42,5.41
26.69,-2.58,-8.00,-2.58,-8.00,8.00,8.49,7.74,5.42,5.43,5.42
26.96,-2.51,-7.95,-2.51,-7.95,7.95,8.41,7.91,5.44,5.44,5.44
27.23,-2.45,-7.90,-2.44,-7.89,7.89,8.33,8.08,5.44,5.44,5.45
27.50,-2.38,-7.84,-2.38,-7.83,7.83,8.25,8.24,5.45,5.45,5.46
27.77,-2.32,-7.77,-2.31,-7.78,7.78,8.17,8.40,5.46,5.46,5.46
28.05,-2.26,-7.73,-2.25,-7.72,7.72,8.09,8.55,5.46,5.47,5.48
28.33,-2.19,-7.66,-2.19,-7.66,7.66,8.01,8.70,5.48,5.48,5.47
28.62,-2.13,-7.61,-2.12,-7.61,7.61,7.93,8.83,5.48,5.48,5.48
28.90,-2.06,-7.55,-2.06,-7.56,7.56,7.85,8.96,5.50,5.49,5.49
29.19,-2.00,-7.49,-2.00,-7.50,7.50,7.77,9.08,5.50,5.50,5.49
29.48,-1.94,-7.45,-1.94,-7.45,7.45,7.69,9.18,5.51,5.51,5.52
29.78,-1.88,-7.39,-1.88,-7.40,7.40,7.61,9.28,5.52,5.51,5.51
30.08,-1.82,-7.34,-1.83,-7.34,7.34,7.54,9.35,5.53,5.52,5.52
30.38,-1.77,-7.29,-1.77,-7.29,7.29,7.46,9.41,5.53,5.53,5.52
30.68,-1.71,-7.25,-1.71,-7.25,7.25,7.39,9.46,5.54,5.53,5.54
30.99,-1.66,-7.19,-1.66,-7.20,7.20,7.31,9.49,5.54,5.54,5.54
31.30,-1.61,-7.15,-1.60,-7.15,7.15,7.24,9.50,5.54,5.55,5.54
31.61,-1.56,-7.11,-1.55,-7.10,7.10,7.17,9.49,5.54,5.55,5.55
31.93,-1.50,-7.06,-1.49,-7.05,7.05,7.10,9.47,5.56,5.56,5.56
32.24,-1.45,-7.00,-1.44,-7.01,7.01,7.04,9.43,5.56,5.57,5.56
32.57,-1.39,-6.96,-1.39,-6.96,6.96,6.97,9.38,5.57,5.57,5.57
32.89,-1.34,-6.92,-1.33,-6.91,6.91,6.91,9.31,5.58,5.58,5.58
33.22,-1.28,-6.86,-1.28,-6.87,6.87,6.85,9.22,5.59,5.59,5.59
33.55,-1.23,-6.82,-1.23,-6.82,6.82,6.79,9.13,5.59,5.59,5.59
33.89,-1.17,-6.77,-1.17,-6.77,6.77,6.73,9.02,5.60,5.60,5.60
34.23,-1.12,-6.73,-1.12,-6.72,6.72,6.68,8.91,5.61,5.60,5.61
34.57,-1.06,-6.67,-1.07,-6.68,6.68,6.63,8.78,5.62,5.61,5.61
34.92,-1.01,-6.62,-1.01,-6.63,6.63,6.58,8.65,5.62,5.61,5.61
35.27,-0.96,-6.57,-0.96,-6.57,6.57,6.53,8.51,5.62,5.62,5.62
35.62,-0.91,-6.53,-0.90,-6.52,6.52,6.49,8.37,5.62,5.62,5.62
35.97,-0.86,-6.48,-0.85,-6.47,6.47,6.44,8.22,5.62,5.62,5.62
36.33,-0.81,-6.43,-0.80,-6.42,6.42,6.40,8.07,5.61,5.62,5.62
36.70,-0.75,-6.37,-0.74,-6.37,6.37,6.36,7.92,5.62,5.62,5.62
37.06,-0.70,-6.32,-0.69,-6.31,6.31,6.33,7.77,5.62,5.62,5.63
37.43,-0.64,-6.27,-0.64,-6.26,6.26,6.29,7.62,5.62,5.62,5.63
37.81,-0.58,-6.20,-0.59,-6.21,6.21,6.26,7.46,5.63,5.62,5.63
38.19,-0.53,-6.15,-0.54,-6.15,6.15,6.23,7.32,5.63,5.62,5.62
38.57,-0.48,-6.09,-0.49,-6.10,6.10,6.20,7.17,5.62,5.61,5.61
38.95,-0.44,-6.05,-0.44,-6.05,6.05,6.17,7.02,5.61,5.61,5.61
39.34,-0.39,-5.99,-0.39,-6.00,6.00,6.14,6.88,5.61,5.61,5.60
39.74,-0.34,-5.94,-0.34,-5.94,5.94,6.12,6.74,5.61,5.60,5.60
40.14,-0.29,-5.89,-0.29,-5.89,5.89,6.09,6.60,5.60,5.60,5.60
40.54,-0.25,-5.84,-0.25,-5.84,5.84,6.07,6.47,5.59,5.60,5.59
40.94,-0.21,-5.80,-0.20,-5.79,5.79,6.05,6.34,5.59,5.59,5.59
41.35,-0.16,-5.74,-0.15,-5.74,5.74,6.02,6.21,5.59,5.59,5.58
41.76,-0.12,-5.70,-0.11,-5.69,5.69,6.00,6.09,5.58,5.58,5.58
42.18,-0.07,-5.65,-0.07,-5.65,5.65,5.98,5.98,5.58,5.58,5.59
42.60,-0.03,-5.61,-0.02,-5.60,5.60,5.95,5.86,5.57,5.57,5.58
43.03,0.01,-5.57,0.02,-5.55,5.55,5.93,5.75,5.56,5.57,5.58
43.46,0.06,-5.51,0.06,-5.51,5.51,5.90,5.65,5.57,5.57,5.57
43.90,0.10,-5.45,0.10,-5.47,5.47,5.88,5.55,5.57,5.56,5.55
44.33,0.14,-5.41,0.13,-5.42,5.42,5.85,5.45,5.57,5.56,5.55
44.78,0.17,-5.37,0.17,-5.38,5.38,5.82,5.36,5.56,5.55,5.55
45.23,0.21,-5.32,0.20,-5.34,5.34,5.79,5.27,5.56,5.55,5.54
45.68,0.24,-5.29,0.24,-5.30,5.30,5.75,5.18,5.55,5.54,5.54
46.13,0.27,-5.25,0.27,-5.27,5.27,5.72,5.10,5.54,5.53,5.53
46.60,0.30,-5.23,0.30,-5.23,5.23,5.68,5.03,5.53,5.53,5.53
47.06,0.32,-5.20,0.33,-5.19,5.19,5.63,4.95,5.51,5.52,5.52
47.53,0.35,-5.16,0.36,-5.15,5.15,5.59,4.88,5.50,5.51,5.51
48.01,0.38,-5.14,0.39,-5.11,5.11,5.54,4.82,5.49,5.50,5.52
48.49,0.41,-5.08,0.42,-5.07,5.07,5.49,4.75,5.48,5.49,5.50
48.97,0.44,-5.03,0.45,-5.03,5.03,5.43,4.69,5.47,5.48,5.47
49.46,0.47,-4.99,0.48,-4.99,4.99,5.38,4.64,5.46,5.46,5.46
49.96,0.50,-4.93,0.50,-4.94,4.94,5.31,4.58,5.44,5.45,5.44
50.46,0.53,-4.90,0.53,-4.90,4.90,5.25,4.53,5.43,5.43,5.43
50.96,0.56,-4.85,0.56,-4.85,4.85,5.18,4.49,5.41,5.41,5.42
51.47,0.59,-4.79,0.59,-4.81,4.81,5.11,4.44,5.40,5.39,5.38
51.99,0.62,-4.74,0.61,-4.76,4.76,5.04,4.40,5.38,5.37,5.37
52.51,0.65,-4.71,0.64,-4.71,4.71,4.97,4.36,5.36,5.35,5.36
53.03,0.67,-4.66,0.67,-4.66,4.66,4.89,4.32,5.34,5.33,5.33
53.56,0.69,-4.62,0.69,-4.62,4.62,4.81,4.28,5.31,5.31,5.31
54.10,0.71,-4.57,0.71,-4.57,4.57,4.73,4.24,5.28,5.29,5.29
54.64,0.73,-4.54,0.74,-4.53,4.53,4.64,4.21,5.26,5.26,5.27
55.18,0.75,-4.49,0.76,-4.48,4.48,4.56,4.17,5.23,5.24,5.24
55.74,0.78,-4.43,0.78,-4.44,4.44,4.47,4.14,5.22,5.22,5.21
56.29,0.80,-4.39,0.81,-4.39,4.39,4.39,4.10,5.19,5.19,5.20
56.86,0.83,-4.33,0.83,-4.34,4.34,4.30,4.07,5.17,5.17,5.17
57.42,0.86,-4.27,0.86,-4.28,4.28,4.21,4.03,5.15,5.14,5.13
58.00,0.88,-4.23,0.89,-4.23,4.23,4.12,4.00,5.11,5.12,5.11
58.58,0.90,-4.18,0.91,-4.17,4.17,4.04,3.96,5.07,5.09,5.09
59.16,0.93,-4.13,0.94,-4.11,4.11,3.95,3.92,5.05,5.05,5.06
59.76,0.96,-4.07,0.97,-4.05,4.05,3.86,3.89,5.02,5.02,5.04
60.35,0.99,-4.01,0.99,-3.99,3.99,3.77,3.85,4.99,4.99,5.00
60.96,1.02,-3.94,1.02,-3.93,3.93,3.69,3.80,4.95,4.95,4.96
61.57,1.05,-3.86,1.04,-3.87,3.87,3.60,3.76,4.92,4.92,4.92
62.18,1.08,-3.79,1.07,-3.81,3.81,3.52,3.72,4.89,4.88,4.87
62.80,1.10,-3.74,1.09,-3.75,3.75,3.43,3.67,4.85,4.84,4.84
63.43,1.12,-3.67,1.11,-3.69,3.69,3.35,3.62,4.81,4.80,4.79
64.07,1.14,-3.61,1.13,-3.63,3.63,3.27,3.57,4.77,4.75,4.75
64.71,1.15,-3.55,1.15,-3.56,3.56,3.19,3.52,4.71,4.71,4.71
65.35,1.16,-3.50,1.17,-3.50,3.50,3.11,3.47,4.66,4.67,4.66
66.01,1.17,-3.45,1.19,-3.43,3.43,3.03,3.41,4.61,4.62,4.62
66.67,1.19,-3.39,1.21,-3.37,3.37,2.96,3.35,4.56,4.58,4.59
67.33,1.21,-3.33,1.23,-3.30,3.30,2.88,3.29,4.52,4.53,4.54
68.01,1.24,-3.25,1.25,-3.24,3.24,2.81,3.23,4.48,4.49,4.49
68.69,1.26,-3.18,1.27,-3.18,3.18,2.74,3.17,4.44,4.44,4.45
69.37,1.29,-3.11,1.29,-3.11,3.11,2.67,3.11,4.40,4.40,4.40
70.07,1.31,-3.04,1.31,-3.05,3.05,2.60,3.04,4.36,4.35,4.35
70.77,1.34,-2.97,1.33,-2.98,2.98,2.53,2.98,4.32,4.31,4.31
71.48,1.36,-2.90,1.35,-2.91,2.91,2.46,2.91,4.27,4.26,4.27
72.19,1.38,-2.83,1.38,-2.84,2.84,2.40,2.85,4.23,4.22,4.21
72.91,1.40,-2.77,1.40,-2.77,2.77,2.34,2.78,4.18,4.18,4.17
73.64,1.41,-2.72,1.42,-2.71,2.71,2.28,2.72,4.12,4.13,4.13
74.38,1.43,-2.66,1.45,-2.64,2.64,2.22,2.65,4.07,4.09,4.09
75.12,1.45,-2.59,1.47,-2.58,2.58,2.16,2.58,4.03,4.05,4.05
75.87,1.48,-2.53,1.49,-2.52,2.52,2.10,2.52,4.00,4.01,4.01
76.63,1.51,-2.46,1.51,-2.46,2.46,2.04,2.45,3.97,3.97,3.97
77.40,1.53,-2.40,1.53,-2.40,2.40,1.99,2.39,3.94,3.93,3.93
78.17,1.55,-2.34,1.55,-2.35,2.35,1.93,2.32,3.90,3.90,3.89
78.95,1.57,-2.29,1.56,-2.30,2.30,1.88,2.26,3.87,3.86,3.86
79.74,1.58,-2.25,1.57,-2.26,2.26,1.83,2.20,3.84,3.83,3.83
80.54,1.60,-2.19,1.58,-2.21,2.21,1.78,2.14,3.81,3.79,3.80
81.35,1.60,-2.16,1.59,-2.17,2.17,1.73,2.08,3.77,3.76,3.76
82.16,1.60,-2.13,1.59,-2.14,2.14,1.68,2.02,3.74,3.73,3.73
82.98,1.60,-2.10,1.60,-2.10,2.10,1.64,1.96,3.70,3.70,3.70
83.81,1.59,-2.07,1.60,-2.07,2.07,1.59,1.90,3.66,3.67,3.67
84.65,1.58,-2.05,1.60,-2.04,2.04,1.55,1.85,3.62,3.64,3.63
85.50,1.58,-2.03,1.59,-2.02,2.02,1.50,1.79,3.60,3.61,3.61
86.35,1.58,-2.00,1.59,-1.99,1.99,1.46,1.74,3.57,3.58,3.58
87.22,1.58,-1.97,1.59,-1.97,1.97,1.42,1.69,3.55,3.55,3.55
88.09,1.58,-1.94,1.59,-1.94,1.94,1.37,1.63,3.52,3.53,3.52
88.97,1.58,-1.92,1.58,-1.91,1.91,1.33,1.58,3.50,3.50,3.50
89.86,1.58,-1.90,1.58,-1.89,1.89,1.29,1.54,3.47,3.47,3.48
90.76,1.58,-1.85,1.58,-1.86,1.86,1.26,1.49,3.44,3.44,3.44
91.66,1.58,-1.83,1.58,-1.83,1.83,1.22,1.44,3.42,3.41,3.41
92.58,1.58,-1.80,1.58,-1.80,1.80,1.18,1.39,3.39,3.39,3.38
93.51,1.58,-1.78,1.58,-1.77,1.77,1.14,1.35,3.36,3.36,3.36
94.44,1.58,-1.75,1.58,-1.74,1.74,1.11,1.31,3.33,3.33,3.33
95.39,1.58,-1.72,1.58,-1.71,1.71,1.07,1.26,3.29,3.29,3.30
96.34,1.58,-1.68,1.58,-1.68,1.68,1.04,1.22,3.26,3.26,3.26
97.30,1.58,-1.64,1.58,-1.64,1.64,1.00,1.18,3.23,3.23,3.22
98.28,1.58,-1.60,1.58,-1.61,1.61,0.97,1.14,3.19,3.19,3.19
99.26,1.58,-1.57,1.58,-1.57,1.57,0.94,1.10,3.15,3.15,3.15
100.25,1.58,-1.53,1.58,-1.53,1.53,0.90,1.06,3.11,3.11,3.11
101.25,1.58,-1.49,1.58,-1.49,1.49,0.87,1.03,3.07,3.07,3.07
102.27,1.58,-1.44,1.58,-1.45,1.45,0.84,0.99,3.03,3.03,3.03
103.29,1.58,-1.40,1.58,-1.40,1.40,0.81,0.95,2.98,2.98,2.98
104.32,1.58,-1.36,1.58,-1.35,1.35,0.78,0.92,2.94,2.94,2.94
105.37,1.58,-1.31,1.58,-1.30,1.30,0.75,0.88,2.89,2.89,2.89
106.42,1.58,-1.25,1.58,-1.25,1.25,0.72,0.85,2.83,2.83,2.84
107.48,1.58,-1.21,1.58,-1.20,1.20,0.69,0.81,2.78,2.78,2.79
108.56,1.58,-1.14,1.58,-1.14,1.14,0.66,0.78,2.72,2.72,2.72
109.64,1.58,-1.08,1.58,-1.08,1.08,0.63,0.75,2.66,2.66,2.66
110.74,1.58,-1.02,1.58,-1.01,1.01,0.60,0.72,2.60,2.60,2.61
111.85,1.58,-0.96,1.58,-0.95,0.95,0.57,0.69,2.53,2.53,2.54
112.97,1.58,-0.88,1.58,-0.88,0.88,0.54,0.65,2.47,2.47,2.46
114.10,1.58,-0.82,1.58,-0.82,0.82,0.51,0.62,2.40,2.40,2.41
115.24,1.58,-0.75,1.58,-0.75,0.75,0.48,0.59,2.33,2.33,2.33
116.39,1.58,-0.67,1.58,-0.68,0.68,0.45,0.56,2.26,2.26,2.25
117.55,1.58,-0.61,1.58,-0.61,0.61,0.42,0.53,2.19,2.19,2.19
118.73,1.58,-0.53,1.58,-0.54,0.54,0.40,0.50,2.13,2.13,2.11
119.92,1.58,-0.48,1.58,-0.48,0.48,0.37,0.47,2.06,2.06,2.06
121.12,1.58,-0.40,1.58,-0.41,0.41,0.34,0.45,1.99,1.99,1.98
122.33,1.58,-0.34,1.58,-0.34,0.34,0.31,0.42,1.93,1.93,1.92
123.55,1.58,-0.29,1.58,-0.28,0.28,0.28,0.39,1.86,1.86,1.87
124.79,1.58,-0.22,1.58,-0.22,0.22,0.25,0.36,1.80,1.80,1.81
126.03,1.58,-0.16,1.58,-0.16,0.16,0.22,0.33,1.74,1.74,1.75
127.29,1.58,-0.10,1.58,-0.10,0.10,0.20,0.30,1.68,1.68,1.68
128.57,1.58,-0.03,1.58,-0.04,0.04,0.17,0.27,1.63,1.62,1.61
129.85,1.58,0.02,1.58,0.01,-0.01,0.14,0.24,1.57,1.57,1.57
131.15,1.58,0.08,1.58,0.07,-0.07,0.11,0.21,1.51,1.51,1.51
132.46,1.58,0.12,1.58,0.12,-0.12,0.08,0.19,1.46,1.46,1.46
133.79,1.58,0.17,1.58,0.18,-0.18,0.05,0.16,1.41,1.41,1.41
135.12,1.58,0.22,1.59,0.23,-0.23,0.02,0.13,1.35,1.36,1.36
136.48,1.58,0.27,1.59,0.28,-0.28,-0.01,0.10,1.30,1.31,1.31
137.84,1.58,0.32,1.59,0.33,-0.33,-0.04,0.07,1.25,1.26,1.26
139.22,1.58,0.38,1.59,0.38,-0.38,-0.08,0.04,1.20,1.21,1.21
140.61,1.58,0.43,1.60,0.43,-0.43,-0.11,0.01,1.15,1.17,1.15
142.02,1.59,0.47,1.60,0.47,-0.47,-0.14,-0.02,1.12,1.12,1.12
143.44,1.60,0.52,1.59,0.52,-0.52,-0.17,-0.05,1.08,1.08,1.08
144.87,1.60,0.57,1.59,0.56,-0.56,-0.21,-0.08,1.04,1.03,1.03
146.32,1.59,0.61,1.58,0.59,-0.59,-0.24,-0.12,1.00,0.98,0.98
147.78,1.58,0.64,1.56,0.63,-0.63,-0.28,-0.15,0.95,0.94,0.95
149.26,1.57,0.67,1.55,0.66,-0.66,-0.31,-0.18,0.91,0.89,0.90
150.75,1.54,0.71,1.53,0.69,-0.69,-0.35,-0.21,0.85,0.84,0.83
152.26,1.52,0.73,1.51,0.72,-0.72,-0.39,-0.24,0.80,0.79,0.79
153.78,1.49,0.75,1.48,0.74,-0.74,-0.42,-0.28,0.75,0.74,0.75
155.32,1.46,0.78,1.46,0.77,-0.77,-0.46,-0.31,0.70,0.69,0.68
156.88,1.41,0.77,1.43,0.79,-0.79,-0.50,-0.35,0.62,0.64,0.64
158.44,1.39,0.80,1.40,0.82,-0.82,-0.54,-0.38,0.58,0.59,0.59
160.03,1.35,0.82,1.38,0.84,-0.84,-0.58,-0.42,0.51,0.54,0.53
161.63,1.33,0.86,1.35,0.87,-0.87,-0.63,-0.45,0.47,0.48,0.47
163.24,1.31,0.89,1.33,0.89,-0.89,-0.67,-0.49,0.42,0.43,0.43
164.88,1.29,0.91,1.30,0.92,-0.92,-0.71,-0.53,0.37,0.38,0.38
166.53,1.27,0.95,1.28,0.95,-0.95,-0.76,-0.56,0.32,0.32,0.32
168.19,1.26,0.99,1.25,0.99,-0.99,-0.81,-0.60,0.28,0.27,0.27
169.87,1.23,1.02,1.23,1.02,-1.02,-0.85,-0.64,0.21,0.21,0.22
171.57,1.22,1.06,1.21,1.05,-1.05,-0.90,-0.68,0.17,0.16,0.16
173.29,1.20,1.10,1.18,1.08,-1.08,-0.95,-0.72,0.12,0.10,0.10
175.02,1.17,1.12,1.16,1.12,-1.12,-1.00,-0.76,0.05,0.04,0.05
176.77,1.14,1.16,1.13,1.15,-1.15,-1.05,-0.81,-0.01,-0.02,-0.02
178.54,1.12,1.20,1.10,1.18,-1.18,-1.10,-0.85,-0.06,-0.08,-0.08
180.32,1.08,1.22,1.07,1.21,-1.21,-1.15,-0.89,-0.13,-0.14,-0.14
182.13,1.05,1.25,1.05,1.25,-1.25,-1.21,-0.94,-0.19,-0.20,-0.20
183.95,1.01,1.28,1.02,1.28,-1.28,-1.26,-0.98,-0.27,-0.26,-0.26
185.79,0.98,1.30,1.00,1.32,-1.32,-1.31,-1.03,-0.34,-0.32,-0.32
187.65,0.96,1.36,0.98,1.36,-1.36,-1.37,-1.07,-0.40,-0.38,-0.39
189.52,0.93,1.38,0.97,1.41,-1.41,-1.42,-1.12,-0.48,-0.44,-0.45
191.42,0.92,1.43,0.95,1.46,-1.46,-1.47,-1.17,-0.53,-0.50,-0.50
193.33,0.91,1.47,0.95,1.50,-1.50,-1.53,-1.21,-0.59,-0.56,-0.56
195.27,0.91,1.52,0.94,1.55,-1.55,-1.58,-1.26,-0.64,-0.62,-0.61
197.22,0.92,1.59,0.93,1.60,-1.60,-1.63,-1.31,-0.68,-0.67,-0.67
199.19,0.94,1.67,0.93,1.65,-1.65,-1.68,-1.36,-0.71,-0.72,-0.73
201.18,0.95,1.73,0.92,1.70,-1.70,-1.73,-1.41,-0.74,-0.78,-0.78
203.19,0.94,1.76,0.91,1.74,-1.74,-1.77,-1.46,-0.80,-0.83,-0.82
205.23,0.93,1.81,0.90,1.78,-1.78,-1.82,-1.51,-0.85,-0.88,-0.88
207.28,0.92,1.83,0.89,1.81,-1.81,-1.86,-1.55,-0.89,-0.92,-0.91
209.35,0.89,1.86,0.87,1.84,-1.84,-1.90,-1.60,-0.95,-0.97,-0.97
211.44,0.86,1.89,0.85,1.86,-1.86,-1.93,-1.65,-1.00,-1.01,-1.02
213.56,0.83,1.89,0.82,1.88,-1.88,-1.96,-1.69,-1.05,-1.06,-1.06
215.69,0.79,1.88,0.79,1.89,-1.89,-1.99,-1.74,-1.10,-1.10,-1.09
217.85,0.75,1.88,0.77,1.90,-1.90,-2.01,-1.78,-1.15,-1.14,-1.13
220.03,0.72,1.90,0.74,1.91,-1.91,-2.03,-1.83,-1.19,-1.17,-1.18
222.23,0.69,1.90,0.71,1.91,-1.91,-2.05,-1.87,-1.22,-1.20,-1.21
224.45,0.66,1.90,0.69,1.92,-1.92,-2.05,-1.90,-1.26,-1.23,-1.24
226.70,0.63,1.89,0.67,1.93,-1.93,-2.06,-1.94,-1.30,-1.26,-1.26
228.96,0.61,1.90,0.65,1.93,-1.93,-2.06,-1.97,-1.32,-1.29,-1.29
231.25,0.61,1.92,0.63,1.94,-1.94,-2.06,-2.00,-1.33,-1.31,-1.31
233.57,0.61,1.94,0.61,1.94,-1.94,-2.05,-2.03,-1.33,-1.33,-1.33
235.90,0.60,1.95,0.60,1.94,-1.94,-2.03,-2.06,-1.34,-1.34,-1.35
238.26,0.60,1.96,0.58,1.94,-1.94,-2.02,-2.08,-1.34,-1.36,-1.36
240.64,0.59,1.96,0.57,1.94,-1.94,-1.99,-2.09,-1.34,-1.37,-1.37
243.05,0.58,1.95,0.55,1.93,-1.93,-1.97,-2.11,-1.35,-1.38,-1.37
245.48,0.56,1.94,0.54,1.92,-1.92,-1.94,-2.12,-1.35,-1.38,-1.38
247.93,0.52,1.90,0.52,1.90,-1.90,-1.91,-2.12,-1.38,-1.38,-1.38
250.41,0.50,1.89,0.50,1.88,-1.88,-1.87,-2.12,-1.38,-1.38,-1.39
252.92,0.45,1.83,0.47,1.85,-1.85,-1.84,-2.12,-1.40,-1.38,-1.38
255.45,0.43,1.80,0.44,1.82,-1.82,-1.80,-2.11,-1.39,-1.38,-1.37
258.00,0.41,1.78,0.42,1.79,-1.79,-1.76,-2.10,-1.37,-1.37,-1.37
260.58,0.38,1.75,0.39,1.75,-1.75,-1.72,-2.09,-1.37,-1.36,-1.37
263.19,0.36,1.72,0.36,1.71,-1.71,-1.68,-2.07,-1.35,-1.35,-1.35
265.82,0.32,1.67,0.32,1.67,-1.67,-1.63,-2.05,-1.35,-1.34,-1.35
268.48,0.29,1.62,0.29,1.63,-1.63,-1.59,-2.02,-1.33,-1.33,-1.33
271.16,0.26,1.58,0.26,1.58,-1.58,-1.54,-1.99,-1.32,-1.32,-1.32
273.87,0.22,1.53,0.23,1.54,-1.54,-1.50,-1.96,-1.32,-1.31,-1.31
276.61,0.19,1.48,0.20,1.49,-1.49,-1.46,-1.93,-1.30,-1.30,-1.29
279.38,0.17,1.46,0.16,1.45,-1.45,-1.41,-1.89,-1.28,-1.29,-1.29
282.17,0.15,1.42,0.13,1.41,-1.41,-1.37,-1.85,-1.25,-1.27,-1.27
284.99,0.12,1.38,0.10,1.36,-1.36,-1.33,-1.81,-1.24,-1.26,-1.26
287.84,0.08,1.33,0.07,1.32,-1.32,-1.29,-1.77,-1.24,-1.25,-1.25
290.72,0.04,1.28,0.05,1.29,-1.29,-1.25,-1.72,-1.24,-1.23,-1.24
293.63,0.01,1.24,0.03,1.25,-1.25,-1.21,-1.68,-1.24,-1.22,-1.22
296.57,-0.01,1.20,0.01,1.22,-1.22,-1.17,-1.63,-1.23,-1.21,-1.21
299.53,-0.04,1.17,-0.00,1.20,-1.20,-1.13,-1.58,-1.24,-1.20,-1.20
302.53,-0.05,1.15,-0.01,1.18,-1.18,-1.09,-1.53,-1.22,-1.19,-1.20
305.55,-0.05,1.12,-0.02,1.15,-1.15,-1.06,-1.49,-1.20,-1.18,-1.17
308.61,-0.05,1.12,-0.04,1.13,-1.13,-1.02,-1.44,-1.18,-1.17,-1.17
311.69,-0.04,1.12,-0.05,1.11,-1.11,-0.99,-1.39,-1.15,-1.16,-1.16
314.81,-0.03,1.11,-0.06,1.09,-1.09,-0.96,-1.34,-1.12,-1.15,-1.13
317.96,-0.04,1.10,-0.07,1.07,-1.07,-0.93,-1.29,-1.11,-1.14,-1.14
321.14,-0.05,1.08,-0.08,1.05,-1.05,-0.90,-1.24,-1.10,-1.13,-1.13
324.35,-0.07,1.07,-0.09,1.03,-1.03,-0.87,-1.19,-1.10,-1.13,-1.14
327.59,-0.10,1.02,-0.11,1.01,-1.01,-0.84,-1.14,-1.11,-1.12,-1.12
330.87,-0.13,0.99,-0.13,0.99,-0.99,-0.81,-1.09,-1.12,-1.12,-1.12
334.18,-0.16,0.97,-0.15,0.97,-0.97,-0.79,-1.04,-1.12,-1.12,-1.13
337.52,-0.20,0.92,-0.18,0.94,-0.94,-0.76,-0.99,-1.14,-1.12,-1.12
340.90,-0.22,0.89,-0.21,0.91,-0.91,-0.74,-0.94,-1.13,-1.12,-1.11
344.30,-0.25,0.87,-0.24,0.88,-0.88,-0.71,-0.90,-1.13,-1.12,-1.11
347.75,-0.27,0.85,-0.27,0.85,-0.85,-0.69,-0.85,-1.12,-1.12,-1.12
351.23,-0.30,0.82,-0.30,0.82,-0.82,-0.67,-0.80,-1.12,-1.12,-1.12
354.74,-0.33,0.79,-0.33,0.80,-0.80,-0.65,-0.76,-1.13,-1.13,-1.12
358.28,-0.36,0.78,-0.36,0.77,-0.77,-0.63,-0.71,-1.13,-1.13,-1.13
361.87,-0.39,0.75,-0.39,0.75,-0.75,-0.61,-0.67,-1.13,-1.14,-1.14
365.49,-0.42,0.72,-0.42,0.72,-0.72,-0.59,-0.63,-1.14,-1.14,-1.14
369.14,-0.45,0.70,-0.45,0.70,-0.70,-0.58,-0.58,-1.15,-1.15,-1.15
372.83,-0.47,0.69,-0.48,0.68,-0.68,-0.56,-0.54,-1.14,-1.16,-1.15
376.56,-0.51,0.66,-0.51,0.66,-0.66,-0.55,-0.50,-1.16,-1.16,-1.17
380.33,-0.53,0.64,-0.54,0.64,-0.64,-0.53,-0.46,-1.16,-1.17,-1.17
384.13,-0.56,0.62,-0.56,0.62,-0.62,-0.52,-0.42,-1.18,-1.18,-1.18
387.97,-0.60,0.59,-0.59,0.60,-0.60,-0.50,-0.38,-1.20,-1.19,-1.19
391.85,-0.63,0.57,-0.61,0.59,-0.59,-0.49,-0.34,-1.21,-1.19,-1.20
395.77,-0.65,0.55,-0.63,0.57,-0.57,-0.48,-0.30,-1.22,-1.20,-1.19
399.73,-0.67,0.54,-0.65,0.56,-0.56,-0.46,-0.27,-1.23,-1.21,-1.21
403.72,-0.68,0.54,-0.67,0.55,-0.55,-0.45,-0.23,-1.23,-1.21,-1.22
407.76,-0.69,0.54,-0.69,0.53,-0.53,-0.44,-0.20,-1.22,-1.22,-1.23
411.84,-0.70,0.52,-0.71,0.52,-0.52,-0.43,-0.16,-1.22,-1.23,-1.22
415.96,-0.72,0.51,-0.73,0.50,-0.50,-0.42,-0.13,-1.22,-1.23,-1.23
420.12,-0.73,0.51,-0.75,0.49,-0.49,-0.41,-0.10,-1.21,-1.24,-1.23
424.32,-0.75,0.49,-0.77,0.47,-0.47,-0.40,-0.06,-1.21,-1.24,-1.23
428.56,-0.78,0.47,-0.80,0.44,-0.44,-0.39,-0.03,-1.22,-1.24,-1.25
432.85,-0.81,0.44,-0.82,0.42,-0.42,-0.38,-0.00,-1.23,-1.24,-1.25
437.18,-0.84,0.41,-0.85,0.39,-0.39,-0.38,0.02,-1.23,-1.24,-1.25
441.55,-0.88,0.36,-0.88,0.37,-0.37,-0.37,0.05,-1.24,-1.24,-1.24
445.96,-0.91,0.33,-0.91,0.34,-0.34,-0.36,0.07,-1.24,-1.24,-1.24
450.42,-0.95,0.30,-0.93,0.31,-0.31,-0.36,0.10,-1.26,-1.24,-1.25
454.93,-0.97,0.27,-0.96,0.28,-0.28,-0.35,0.12,-1.25,-1.24,-1.24
459.48,-1.00,0.24,-0.98,0.26,-0.26,-0.34,0.14,-1.26,-1.24,-1.24
464.07,-1.02,0.22,-0.99,0.24,-0.24,-0.34,0.16,-1.26,-1.23,-1.23
468.71,-1.03,0.20,-1.01,0.22,-0.22,-0.33,0.17,-1.25,-1.23,-1.22
473.40,-1.04,0.19,-1.02,0.21,-0.21,-0.33,0.19,-1.25,-1.22,-1.22
478.13,-1.04,0.18,-1.02,0.20,-0.20,-0.32,0.20,-1.24,-1.22,-1.22
482.91,-1.03,0.19,-1.02,0.19,-0.19,-0.32,0.21,-1.22,-1.21,-1.22
487.74,-1.02,0.19,-1.02,0.19,-0.19,-0.31,0.22,-1.21,-1.21,-1.21
492.62,-1.02,0.18,-1.01,0.19,-0.19,-0.31,0.22,-1.21,-1.20,-1.20
497.55,-1.01,0.19,-1.01,0.19,-0.19,-0.31,0.23,-1.19,-1.20,-1.20
502.52,-1.00,0.19,-1.01,0.18,-0.18,-0.30,0.23,-1.18,-1.19,-1.19
507.55,-0.99,0.20,-1.01,0.18,-0.18,-0.30,0.23,-1.17,-1.19,-1.19
512.62,-1.00,0.19,-1.01,0.17,-0.17,-0.30,0.22,-1.17,-1.19,-1.19
