frequency,raw,error,smoothed,error_smoothed,equalization,parametric_eq,fixed_band_eq,equalized_raw,equalized_smoothed,target
20.00,1.84,-6.60,1.84,-6.60,6.60,6.31,2.63,8.45,8.44,8.44
20.20,1.86,-6.57,1.87,-6.57,6.57,6.31,2.70,8.43,8.43,8.43
20.40,1.88,-6.54,1.89,-6.53,6.53,6.30,2.78,8.42,8.42,8.42
20.61,1.91,-6.50,1.91,-6.50,6.50,6.30,2.86,8.41,8.41,8.41
20.81,1.93,-6.46,1.94,-6.46,6.46,6.29,2.94,8.40,8.40,8.39
21.02,1.95,-6.43,1.96,-6.43,6.43,6.29,3.02,8.38,8.39,8.38
21.23,1.98,-6.39,1.98,-6.39,6.39,6.28,3.11,8.38,8.38,8.37
21.44,2.00,-6.38,2.00,-6.36,6.36,6.27,3.20,8.37,8.37,8.38
21.66,2.02,-6.34,2.03,-6.33,6.33,6.27,3.29,8.35,8.36,8.36
21.87,2.05,-6.31,2.05,-6.30,6.30,6.26,3.38,8.35,8.35,8.36
22.09,2.07,-6.27,2.07,-6.27,6.27,6.25,3.48,8.34,8.34,8.34
22.31,2.09,-6.24,2.10,-6.24,6.24,6.24,3.57,8.33,8.33,8.33
22.54,2.11,-6.21,2.12,-6.21,6.21,6.23,3.67,8.32,8.33,8.32
22.76,2.14,-6.18,2.14,-6.18,6.18,6.22,3.78,8.32,8.32,8.32
22.99,2.16,-6.15,2.16,-6.15,6.15,6.21,3.88,8.32,8.32,8.31
23.22,2.18,-6.12,2.19,-6.12,6.12,6.19,3.99,8.31,8.31,8.30
23.45,2.21,-6.10,2.21,-6.09,6.09,6.18,4.10,8.31,8.31,8.31
23.69,2.23,-6.07,2.23,-6.07,6.07,6.17,4.21,8.30,8.30,8.30
23.92,2.25,-6.04,2.26,-6.04,6.04,6.15,4.33,8.30,8.30,8.29
24.16,2.27,-6.03,2.28,-6.02,6.02,6.14,4.44,8.29,8.29,8.30
24.40,2.30,-6.00,2.30,-5.99,5.99,6.13,4.56,8.30,8.29,8.30
24.65,2.32,-5.97,2.32,-5.97,5.97,6.11,4.68,8.29,8.29,8.29
24.89,2.34,-5.95,2.35,-5.94,5.94,6.09,4.80,8.29,8.29,8.29
25.14,2.37,-5.92,2.37,-5.92,5.92,6.08,4.93,8.28,8.29,8.28
25.39,2.40,-5.89,2.39,-5.89,5.89,6.06,5.05,8.29,8.28,8.28
25.65,2.41,-5.87,2.41,-5.87,5.87,6.04,5.17,8.28,8.28,8.28
25.91,2.43,-5.85,2.44,-5.85,5.85,6.03,5.30,8.28,8.28,8.28
26.16,2.45,-5.84,2.46,-5.82,5.82,6.01,5.42,8.28,8.28,8.29
26.43,2.47,-5.81,2.48,-5.80,5.80,5.99,5.54,8.28,8.28,8.28
26.69,2.50,-5.78,2.50,-5.78,5.78,5.97,5.66,8.29,8.28,8.28
26.96,2.52,-5.76,2.52,-5.76,5.76,5.95,5.78,8.29,8.28,8.28
27.23,2.54,-5.74,2.54,-5.74,5.74,5.93,5.90,8.29,8.28,8.28
27.50,2.56,-5.72,2.56,-5.72,5.72,5.91,6.01,8.29,8.29,8.28
27.77,2.58,-5.71,2.58,-5.70,5.70,5.89,6.12,8.29,8.29,8.29
28.05,2.60,-5.68,2.61,-5.68,5.68,5.86,6.22,8.29,8.29,8.28
28.33,2.62,-5.67,2.63,-5.66,5.66,5.84,6.32,8.29,8.29,8.29
28.62,2.64,-5.65,2.65,-5.64,5.64,5.82,6.41,8.29,8.29,8.29
28.90,2.66,-5.64,2.67,-5.62,5.62,5.79,6.50,8.29,8.29,8.30
29.19,2.68,-5.62,2.69,-5.60,5.60,5.77,6.58,8.29,8.29,8.30
29.48,2.70,-5.59,2.71,-5.58,5.58,5.75,6.65,8.28,8.29,8.29
29.78,2.72,-5.57,2.73,-5.56,5.56,5.72,6.71,8.28,8.29,8.29
30.08,2.75,-5.54,2.75,-5.54,5.54,5.70,6.76,8.29,8.28,8.29
30.38,2.77,-5.50,2.77,-5.51,5.51,5.67,6.80,8.29,8.28,8.27
30.68,2.79,-5.48,2.79,-5.49,5.49,5.64,6.83,8.28,8.28,8.27
30.99,2.81,-5.46,2.81,-5.46,5.46,5.62,6.85,8.28,8.27,8.27
31.30,2.82,-5.45,2.83,-5.44,5.44,5.59,6.86,8.26,8.27,8.27
31.61,2.84,-5.42,2.85,-5.41,5.41,5.56,6.85,8.26,8.26,8.26
31.93,2.86,-5.38,2.86,-5.39,5.39,5.53,6.84,8.25,8.25,8.24
32.24,2.87,-5.38,2.88,-5.36,5.36,5.50,6.82,8.24,8.24,8.25
32.57,2.89,-5.34,2.90,-5.34,5.34,5.48,6.78,8.23,8.24,8.23
32.89,2.91,-5.32,2.91,-5.32,5.32,5.45,6.74,8.23,8.23,8.23
33.22,2.93,-5.29,2.93,-5.29,5.29,5.42,6.69,8.23,8.22,8.22
33.55,2.94,-5.28,2.94,-5.27,5.27,5.39,6.63,8.22,8.22,8.22
33.89,2.96,-5.25,2.96,-5.25,5.25,5.35,6.56,8.21,8.21,8.21
34.23,2.97,-5.22,2.97,-5.23,5.23,5.32,6.49,8.20,8.20,8.19
34.57,2.98,-5.21,2.99,-5.20,5.20,5.29,6.41,8.19,8.19,8.19
34.92,3.00,-5.17,3.00,-5.18,5.18,5.26,6.32,8.18,8.18,8.17
35.27,3.01,-5.18,3.02,-5.16,5.16,5.23,6.23,8.17,8.17,8.19
35.62,3.02,-5.14,3.03,-5.13,5.13,5.19,6.14,8.16,8.16,8.16
35.97,3.04,-5.12,3.04,-5.11,5.11,5.16,6.04,8.15,8.15,8.16
36.33,3.05,-5.09,3.05,-5.08,5.08,5.13,5.94,8.14,8.13,8.14
36.70,3.06,-5.06,3.06,-5.06,5.06,5.09,5.84,8.12,8.12,8.12
37.06,3.07,-5.03,3.07,-5.03,5.03,5.06,5.73,8.10,8.10,8.10
37.43,3.08,-5.00,3.08,-5.00,5.00,5.02,5.63,8.09,8.08,8.08
37.81,3.09,-4.98,3.09,-4.97,4.97,4.99,5.53,8.07,8.06,8.07
38.19,3.10,-4.94,3.10,-4.94,4.94,4.95,5.43,8.05,8.05,8.04
38.57,3.11,-4.91,3.11,-4.91,4.91,4.92,5.33,8.02,8.02,8.02
38.95,3.11,-4.90,3.12,-4.88,4.88,4.88,5.23,7.99,8.00,8.01
39.34,3.12,-4.86,3.13,-4.85,4.85,4.85,5.13,7.97,7.98,7.98
39.74,3.13,-4.82,3.14,-4.82,4.82,4.81,5.03,7.95,7.96,7.95
40.14,3.14,-4.79,3.15,-4.79,4.79,4.77,4.94,7.93,7.94,7.93
40.54,3.15,-4.76,3.16,-4.76,4.76,4.74,4.84,7.91,7.91,7.91
40.94,3.16,-4.72,3.16,-4.73,4.73,4.70,4.76,7.89,7.89,7.88
41.35,3.17,-4.70,3.17,-4.70,4.70,4.66,4.67,7.87,7.87,7.87
41.76,3.18,-4.66,3.18,-4.67,4.67,4.62,4.58,7.85,7.85,7.84
42.18,3.18,-4.65,3.18,-4.64,4.64,4.58,4.50,7.83,7.82,7.83
42.60,3.18,-4.62,3.18,-4.62,4.62,4.54,4.43,7.80,7.80,7.80
43.03,3.18,-4.60,3.18,-4.59,4.59,4.51,4.35,7.78,7.77,7.78
43.46,3.18,-4.56,3.18,-4.57,4.57,4.47,4.28,7.75,7.75,7.74
43.90,3.19,-4.53,3.18,-4.54,4.54,4.43,4.21,7.74,7.72,7.72
44.33,3.18,-4.51,3.18,-4.52,4.52,4.39,4.15,7.70,7.70,7.69
44.78,3.17,-4.50,3.17,-4.50,4.50,4.35,4.08,7.67,7.67,7.67
45.23,3.16,-4.49,3.17,-4.47,4.47,4.31,4.02,7.63,7.64,7.65
45.68,3.15,-4.45,3.16,-4.44,4.44,4.27,3.97,7.60,7.60,7.60
46.13,3.14,-4.43,3.16,-4.41,4.41,4.22,3.92,7.56,7.57,7.57
46.60,3.14,-4.39,3.15,-4.38,4.38,4.18,3.87,7.52,7.53,7.53
47.06,3.14,-4.36,3.15,-4.34,4.34,4.14,3.82,7.49,7.49,7.50
47.53,3.14,-4.32,3.15,-4.31,4.31,4.10,3.78,7.45,7.45,7.46
48.01,3.14,-4.27,3.15,-4.27,4.27,4.06,3.73,7.41,7.41,7.41
48.49,3.14,-4.23,3.15,-4.22,4.22,4.02,3.70,7.37,7.37,7.37
48.97,3.15,-4.17,3.15,-4.18,4.18,3.98,3.66,7.33,7.33,7.32
49.46,3.15,-4.14,3.16,-4.13,4.13,3.93,3.63,7.29,7.29,7.29
49.96,3.16,-4.07,3.17,-4.08,4.08,3.89,3.60,7.25,7.25,7.23
50.46,3.17,-4.03,3.18,-4.03,4.03,3.85,3.57,7.20,7.20,7.20
50.96,3.18,-3.98,3.19,-3.97,3.97,3.81,3.54,7.16,7.16,7.16
51.47,3.19,-3.93,3.20,-3.92,3.92,3.76,3.51,7.11,7.12,7.12
51.99,3.21,-3.86,3.21,-3.86,3.86,3.72,3.49,7.08,7.08,7.07
52.51,3.23,-3.81,3.23,-3.81,3.81,3.68,3.47,7.04,7.04,7.04
53.03,3.24,-3.77,3.24,-3.75,3.75,3.63,3.45,6.99,6.99,7.01
53.56,3.26,-3.70,3.26,-3.69,3.69,3.59,3.42,6.96,6.95,6.96
54.10,3.27,-3.64,3.28,-3.64,3.64,3.55,3.40,6.91,6.92,6.91
54.64,3.30,-3.57,3.30,-3.58,3.58,3.50,3.39,6.88,6.88,6.87
55.18,3.32,-3.51,3.32,-3.52,3.52,3.46,3.37,6.84,6.84,6.83
55.74,3.33,-3.45,3.34,-3.46,3.46,3.41,3.35,6.79,6.80,6.78
56.29,3.35,-3.41,3.36,-3.40,3.40,3.37,3.33,6.75,6.76,6.76
56.86,3.37,-3.35,3.39,-3.34,3.34,3.33,3.31,6.71,6.72,6.72
57.42,3.39,-3.28,3.41,-3.27,3.27,3.28,3.28,6.67,6.68,6.67
58.00,3.41,-3.22,3.43,-3.21,3.21,3.24,3.26,6.62,6.64,6.63
58.58,3.44,-3.16,3.45,-3.15,3.15,3.19,3.24,6.59,6.59,6.60
59.16,3.46,-3.11,3.46,-3.08,3.08,3.15,3.21,6.55,6.55,6.57
59.76,3.48,-3.04,3.48,-3.02,3.02,3.10,3.19,6.51,6.50,6.52
60.35,3.50,-2.97,3.49,-2.96,2.96,3.06,3.16,6.47,6.45,6.47
60.96,3.51,-2.90,3.50,-2.91,2.91,3.01,3.13,6.42,6.40,6.41
61.57,3.51,-2.84,3.50,-2.85,2.85,2.97,3.09,6.37,6.35,6.35
62.18,3.51,-2.78,3.50,-2.80,2.80,2.92,3.06,6.31,6.30,6.29
62.80,3.50,-2.73,3.50,-2.75,2.75,2.88,3.02,6.25,6.25,6.23
63.43,3.49,-2.69,3.49,-2.70,2.70,2.83,2.98,6.20,6.19,6.18
64.07,3.48,-2.65,3.47,-2.66,2.66,2.79,2.94,6.15,6.14,6.13
64.71,3.46,-2.62,3.46,-2.63,2.63,2.74,2.89,6.09,6.08,6.08
65.35,3.43,-2.59,3.44,-2.59,2.59,2.70,2.84,6.03,6.03,6.02
66.01,3.40,-2.57,3.42,-2.56,2.56,2.65,2.79,5.96,5.97,5.97
66.67,3.38,-2.55,3.39,-2.53,2.53,2.61,2.74,5.91,5.92,5.93
67.33,3.36,-2.50,3.37,-2.50,2.50,2.56,2.69,5.86,5.86,5.86
68.01,3.33,-2.48,3.34,-2.47,2.47,2.51,2.63,5.80,5.81,5.81
68.69,3.31,-2.45,3.31,-2.44,2.44,2.47,2.57,5.75,5.75,5.76
69.37,3.28,-2.43,3.29,-2.41,2.41,2.42,2.51,5.69,5.70,5.71
70.07,3.26,-2.39,3.26,-2.38,2.38,2.38,2.45,5.64,5.64,5.65
70.77,3.24,-2.34,3.24,-2.34,2.34,2.33,2.39,5.59,5.58,5.58
71.48,3.22,-2.31,3.22,-2.30,2.30,2.28,2.33,5.53,5.53,5.53
72.19,3.20,-2.27,3.20,-2.27,2.27,2.24,2.26,5.47,5.47,5.47
72.91,3.18,-2.22,3.19,-2.22,2.22,2.19,2.20,5.41,5.41,5.40
73.64,3.17,-2.18,3.18,-2.18,2.18,2.15,2.13,5.35,5.36,5.35
74.38,3.15,-2.14,3.17,-2.13,2.13,2.10,2.07,5.29,5.30,5.29
75.12,3.14,-2.10,3.16,-2.09,2.09,2.05,2.00,5.23,5.25,5.24
75.87,3.13,-2.06,3.15,-2.04,2.04,2.01,1.93,5.17,5.19,5.19
76.63,3.14,-1.99,3.15,-1.99,1.99,1.96,1.87,5.13,5.14,5.13
77.40,3.14,-1.95,3.15,-1.94,1.94,1.92,1.80,5.08,5.09,5.09
78.17,3.15,-1.88,3.15,-1.89,1.89,1.87,1.74,5.04,5.04,5.03
78.95,3.16,-1.83,3.15,-1.84,1.84,1.82,1.67,5.00,4.99,4.99
79.74,3.16,-1.78,3.15,-1.78,1.78,1.78,1.61,4.95,4.94,4.94
80.54,3.16,-1.73,3.16,-1.73,1.73,1.73,1.54,4.90,4.89,4.89
81.35,3.16,-1.67,3.16,-1.68,1.68,1.68,1.48,4.84,4.84,4.83
82.16,3.16,-1.64,3.16,-1.63,1.63,1.64,1.41,4.79,4.79,4.80
82.98,3.16,-1.58,3.16,-1.57,1.57,1.59,1.35,4.74,4.74,4.74
83.81,3.16,-1.53,3.17,-1.52,1.52,1.54,1.29,4.68,4.68,4.69
84.65,3.16,-1.47,3.17,-1.46,1.46,1.50,1.23,4.63,4.63,4.63
85.50,3.16,-1.41,3.17,-1.41,1.41,1.45,1.17,4.58,4.58,4.57
86.35,3.16,-1.36,3.17,-1.36,1.36,1.40,1.11,4.52,4.52,4.52
87.22,3.16,-1.31,3.17,-1.30,1.30,1.36,1.05,4.47,4.47,4.47
88.09,3.16,-1.25,3.16,-1.25,1.25,1.31,0.99,4.41,4.41,4.41
88.97,3.16,-1.19,3.16,-1.19,1.19,1.26,0.93,4.36,4.36,4.35
89.86,3.16,-1.14,3.16,-1.13,1.13,1.21,0.88,4.30,4.30,4.30
90.76,3.16,-1.08,3.16,-1.07,1.07,1.17,0.82,4.24,4.24,4.24
91.66,3.16,-1.01,3.16,-1.01,1.01,1.12,0.76,4.18,4.18,4.17
92.58,3.16,-0.96,3.16,-0.95,0.95,1.07,0.71,4.12,4.12,4.12
93.51,3.16,-0.91,3.16,-0.89,0.89,1.03,0.65,4.06,4.06,4.07
94.44,3.16,-0.85,3.16,-0.83,0.83,0.98,0.60,4.00,4.00,4.01
95.39,3.16,-0.78,3.16,-0.77,0.77,0.93,0.55,3.94,3.94,3.94
96.34,3.16,-0.71,3.16,-0.71,0.71,0.88,0.50,3.87,3.87,3.87
97.30,3.16,-0.65,3.16,-0.65,0.65,0.83,0.44,3.81,3.81,3.81
98.28,3.16,-0.58,3.16,-0.59,0.59,0.79,0.39,3.75,3.75,3.74
99.26,3.16,-0.52,3.16,-0.53,0.53,0.74,0.34,3.69,3.69,3.68
100.25,3.16,-0.46,3.16,-0.47,0.47,0.69,0.29,3.63,3.63,3.62
101.25,3.16,-0.41,3.16,-0.41,0.41,0.64,0.24,3.57,3.57,3.57
102.27,3.16,-0.35,3.16,-0.35,0.35,0.59,0.19,3.51,3.51,3.51
103.29,3.16,-0.29,3.16,-0.29,0.29,0.55,0.14,3.46,3.46,3.45
104.32,3.16,-0.24,3.16,-0.24,0.24,0.50,0.10,3.40,3.40,3.40
105.37,3.16,-0.18,3.16,-0.18,0.18,0.45,0.05,3.34,3.34,3.34
106.42,3.16,-0.13,3.16,-0.12,0.12,0.40,0.00,3.29,3.29,3.29
107.48,3.16,-0.07,3.17,-0.06,0.06,0.35,-0.04,3.23,3.23,3.23
108.56,3.16,-0.02,3.17,-0.00,0.00,0.30,-0.09,3.17,3.17,3.18
109.64,3.16,0.04,3.17,0.06,-0.06,0.25,-0.13,3.11,3.11,3.12
110.74,3.16,0.10,3.17,0.12,-0.12,0.20,-0.18,3.05,3.06,3.06
111.85,3.16,0.16,3.18,0.18,-0.18,0.16,-0.22,2.98,3.00,3.00
112.97,3.16,0.21,3.18,0.24,-0.24,0.11,-0.26,2.92,2.94,2.95
114.10,3.16,0.27,3.18,0.30,-0.30,0.06,-0.30,2.86,2.88,2.89
115.24,3.18,0.37,3.18,0.36,-0.36,0.01,-0.34,2.83,2.82,2.81
116.39,3.19,0.44,3.18,0.41,-0.41,-0.04,-0.38,2.78,2.76,2.75
117.55,3.18,0.49,3.17,0.46,-0.46,-0.09,-0.42,2.72,2.71,2.69
118.73,3.17,0.54,3.16,0.51,-0.51,-0.14,-0.46,2.67,2.65,2.63
119.92,3.16,0.57,3.14,0.55,-0.55,-0.19,-0.50,2.61,2.59,2.59
121.12,3.13,0.59,3.13,0.59,-0.59,-0.24,-0.53,2.54,2.54,2.54
122.33,3.12,0.64,3.10,0.62,-0.62,-0.29,-0.57,2.50,2.48,2.48
123.55,3.09,0.66,3.08,0.65,-0.65,-0.35,-0.60,2.44,2.42,2.43
124.79,3.05,0.67,3.05,0.68,-0.68,-0.40,-0.64,2.37,2.37,2.38
126.03,3.01,0.69,3.02,0.70,-0.70,-0.45,-0.67,2.31,2.31,2.32
127.29,2.98,0.71,2.99,0.73,-0.73,-0.50,-0.70,2.26,2.26,2.27
128.57,2.95,0.75,2.95,0.75,-0.75,-0.55,-0.73,2.21,2.21,2.20
129.85,2.91,0.76,2.93,0.77,-0.77,-0.60,-0.76,2.14,2.15,2.15
131.15,2.88,0.79,2.90,0.80,-0.80,-0.65,-0.79,2.08,2.10,2.09
132.46,2.86,0.82,2.88,0.84,-0.84,-0.70,-0.82,2.03,2.04,2.04
133.79,2.83,0.85,2.86,0.87,-0.87,-0.76,-0.85,1.96,1.99,1.98
135.12,2.82,0.89,2.85,0.92,-0.92,-0.81,-0.88,1.91,1.93,1.93
136.48,2.81,0.93,2.84,0.96,-0.96,-0.86,-0.91,1.86,1.88,1.88
137.84,2.81,0.98,2.83,1.01,-1.01,-0.91,-0.94,1.81,1.83,1.83
139.22,2.82,1.05,2.83,1.06,-1.06,-0.96,-0.96,1.77,1.78,1.77
140.61,2.83,1.10,2.84,1.11,-1.11,-1.02,-0.99,1.73,1.73,1.73
142.02,2.84,1.17,2.84,1.16,-1.16,-1.07,-1.02,1.69,1.68,1.67
143.44,2.84,1.21,2.84,1.21,-1.21,-1.12,-1.05,1.64,1.63,1.63
144.87,2.85,1.26,2.84,1.26,-1.26,-1.17,-1.07,1.60,1.59,1.59
146.32,2.86,1.32,2.84,1.30,-1.30,-1.23,-1.10,1.56,1.54,1.54
147.78,2.86,1.36,2.84,1.34,-1.34,-1.28,-1.13,1.52,1.50,1.50
149.26,2.85,1.40,2.83,1.38,-1.38,-1.33,-1.16,1.48,1.46,1.45
150.75,2.83,1.42,2.82,1.41,-1.41,-1.38,-1.19,1.42,1.41,1.41
152.26,2.82,1.45,2.81,1.44,-1.44,-1.44,-1.22,1.39,1.37,1.37
153.78,2.79,1.46,2.78,1.46,-1.46,-1.49,-1.25,1.34,1.33,1.33
155.32,2.76,1.47,2.75,1.47,-1.47,-1.54,-1.29,1.29,1.28,1.29
156.88,2.72,1.48,2.72,1.48,-1.48,-1.59,-1.32,1.24,1.24,1.24
158.44,2.70,1.51,2.69,1.49,-1.49,-1.65,-1.35,1.21,1.20,1.19
160.03,2.65,1.50,2.65,1.50,-1.50,-1.70,-1.39,1.15,1.15,1.15
161.63,2.63,1.52,2.62,1.52,-1.52,-1.75,-1.43,1.12,1.11,1.11
163.24,2.60,1.54,2.59,1.53,-1.53,-1.80,-1.46,1.07,1.06,1.06
164.88,2.54,1.53,2.56,1.55,-1.55,-1.86,-1.50,0.99,1.01,1.01
166.53,2.52,1.56,2.55,1.58,-1.58,-1.91,-1.54,0.95,0.97,0.96
168.19,2.50,1.57,2.53,1.61,-1.61,-1.96,-1.59,0.89,0.92,0.93
169.87,2.48,1.61,2.53,1.65,-1.65,-2.01,-1.63,0.83,0.87,0.87
171.57,2.48,1.66,2.53,1.70,-1.70,-2.06,-1.67,0.78,0.82,0.82
173.29,2.49,1.71,2.53,1.76,-1.76,-2.11,-1.72,0.74,0.78,0.78
175.02,2.53,1.80,2.55,1.82,-1.82,-2.16,-1.77,0.72,0.73,0.73
176.77,2.57,1.89,2.56,1.88,-1.88,-2.21,-1.82,0.69,0.68,0.68
178.54,2.60,1.96,2.59,1.95,-1.95,-2.26,-1.87,0.65,0.64,0.64
180.32,2.63,2.05,2.62,2.02,-2.02,-2.30,-1.92,0.61,0.59,0.58
182.13,2.66,2.11,2.65,2.10,-2.10,-2.35,-1.97,0.56,0.55,0.55
183.95,2.70,2.20,2.68,2.18,-2.18,-2.40,-2.03,0.52,0.50,0.50
185.79,2.73,2.28,2.71,2.26,-2.26,-2.45,-2.08,0.47,0.45,0.45
187.65,2.75,2.34,2.75,2.34,-2.34,-2.49,-2.14,0.42,0.41,0.41
189.52,2.77,2.40,2.78,2.41,-2.41,-2.54,-2.20,0.36,0.37,0.37
191.42,2.80,2.47,2.81,2.49,-2.49,-2.58,-2.26,0.32,0.32,0.33
193.33,2.83,2.54,2.84,2.56,-2.56,-2.62,-2.32,0.28,0.28,0.29
195.27,2.87,2.63,2.87,2.63,-2.63,-2.66,-2.38,0.25,0.24,0.24
197.22,2.90,2.71,2.90,2.70,-2.70,-2.71,-2.45,0.21,0.21,0.19
199.19,2.92,2.76,2.93,2.76,-2.76,-2.75,-2.51,0.16,0.17,0.16
201.18,2.95,2.83,2.96,2.83,-2.83,-2.78,-2.58,0.13,0.13,0.12
203.19,2.98,2.89,2.99,2.90,-2.90,-2.82,-2.64,0.09,0.10,0.09
205.23,3.01,2.94,3.02,2.96,-2.96,-2.86,-2.71,0.05,0.06,0.07
207.28,3.04,3.00,3.06,3.02,-3.02,-2.89,-2.77,0.02,0.03,0.04
209.35,3.07,3.07,3.08,3.08,-3.08,-2.93,-2.84,-0.01,-0.00,0.00
211.44,3.10,3.13,3.11,3.14,-3.14,-2.96,-2.90,-0.04,-0.03,-0.03
213.56,3.13,3.18,3.13,3.19,-3.19,-2.99,-2.97,-0.06,-0.06,-0.05
215.69,3.16,3.24,3.15,3.24,-3.24,-3.02,-3.03,-0.07,-0.09,-0.08
217.85,3.18,3.29,3.17,3.28,-3.28,-3.05,-3.09,-0.09,-0.11,-0.11
220.03,3.19,3.33,3.18,3.31,-3.31,-3.08,-3.15,-0.12,-0.13,-0.14
222.23,3.20,3.37,3.18,3.34,-3.34,-3.10,-3.21,-0.14,-0.16,-0.17
224.45,3.20,3.38,3.18,3.37,-3.37,-3.13,-3.26,-0.16,-0.18,-0.18
226.70,3.18,3.39,3.18,3.38,-3.38,-3.15,-3.32,-0.20,-0.20,-0.21
228.96,3.16,3.38,3.17,3.39,-3.39,-3.17,-3.36,-0.23,-0.22,-0.22
231.25,3.15,3.39,3.15,3.39,-3.39,-3.19,-3.41,-0.24,-0.24,-0.24
233.57,3.13,3.39,3.13,3.38,-3.38,-3.21,-3.45,-0.25,-0.26,-0.26
235.90,3.09,3.36,3.10,3.37,-3.37,-3.22,-3.49,-0.28,-0.27,-0.27
238.26,3.07,3.37,3.07,3.35,-3.35,-3.23,-3.52,-0.28,-0.29,-0.30
240.64,3.04,3.33,3.04,3.33,-3.33,-3.25,-3.55,-0.29,-0.30,-0.29
243.05,3.00,3.31,3.00,3.31,-3.31,-3.26,-3.57,-0.30,-0.31,-0.31
245.48,2.97,3.29,2.97,3.29,-3.29,-3.26,-3.59,-0.31,-0.31,-0.32
247.93,2.93,3.26,2.94,3.26,-3.26,-3.27,-3.60,-0.33,-0.32,-0.33
250.41,2.91,3.23,2.92,3.24,-3.24,-3.28,-3.61,-0.33,-0.33,-0.32
252.92,2.87,3.20,2.89,3.22,-3.22,-3.28,-3.61,-0.35,-0.33,-0.33
255.45,2.85,3.19,2.87,3.21,-3.21,-3.28,-3.61,-0.36,-0.34,-0.34
258.00,2.83,3.17,2.86,3.20,-3.20,-3.28,-3.60,-0.37,-0.34,-0.34
260.58,2.82,3.16,2.85,3.19,-3.19,-3.28,-3.59,-0.37,-0.34,-0.34
263.19,2.81,3.15,2.85,3.19,-3.19,-3.27,-3.57,-0.38,-0.35,-0.34
265.82,2.82,3.17,2.84,3.19,-3.19,-3.27,-3.54,-0.37,-0.35,-0.35
268.48,2.83,3.18,2.84,3.19,-3.19,-3.26,-3.52,-0.36,-0.35,-0.35
271.16,2.84,3.19,2.84,3.20,-3.20,-3.25,-3.49,-0.35,-0.35,-0.35
273.87,2.85,3.20,2.84,3.20,-3.20,-3.24,-3.45,-0.34,-0.36,-0.35
276.61,2.86,3.21,2.84,3.20,-3.20,-3.23,-3.41,-0.33,-0.36,-0.35
279.38,2.86,3.23,2.84,3.19,-3.19,-3.21,-3.37,-0.33,-0.36,-0.37
282.17,2.85,3.22,2.83,3.19,-3.19,-3.20,-3.33,-0.33,-0.36,-0.37
284.99,2.84,3.20,2.82,3.17,-3.17,-3.18,-3.28,-0.33,-0.36,-0.36
287.84,2.82,3.17,2.80,3.16,-3.16,-3.16,-3.23,-0.33,-0.35,-0.35
290.72,2.79,3.15,2.78,3.14,-3.14,-3.14,-3.18,-0.34,-0.35,-0.36
293.63,2.76,3.11,2.76,3.11,-3.11,-3.12,-3.13,-0.34,-0.35,-0.35
296.57,2.73,3.07,2.73,3.07,-3.07,-3.10,-3.08,-0.34,-0.34,-0.34
299.53,2.70,3.04,2.70,3.04,-3.04,-3.08,-3.03,-0.33,-0.34,-0.34
302.53,2.66,2.98,2.67,3.00,-3.00,-3.05,-2.97,-0.34,-0.33,-0.32
305.55,2.63,2.96,2.64,2.96,-2.96,-3.03,-2.92,-0.33,-0.33,-0.33
308.61,2.60,2.92,2.61,2.93,-2.93,-3.00,-2.87,-0.33,-0.32,-0.32
311.69,2.56,2.87,2.59,2.90,-2.90,-2.97,-2.82,-0.33,-0.31,-0.31
314.81,2.55,2.86,2.57,2.87,-2.87,-2.94,-2.77,-0.32,-0.30,-0.31
317.96,2.52,2.82,2.55,2.85,-2.85,-2.91,-2.72,-0.32,-0.30,-0.30
321.14,2.50,2.79,2.54,2.83,-2.83,-2.88,-2.67,-0.33,-0.29,-0.29
324.35,2.49,2.78,2.53,2.81,-2.81,-2.85,-2.62,-0.32,-0.28,-0.29
327.59,2.50,2.76,2.52,2.80,-2.80,-2.82,-2.57,-0.29,-0.27,-0.26
330.87,2.51,2.78,2.52,2.78,-2.78,-2.79,-2.53,-0.27,-0.27,-0.27
334.18,2.52,2.78,2.51,2.77,-2.77,-2.75,-2.49,-0.25,-0.26,-0.26
337.52,2.53,2.79,2.50,2.76,-2.76,-2.72,-2.44,-0.22,-0.25,-0.26
340.90,2.52,2.76,2.50,2.74,-2.74,-2.69,-2.40,-0.21,-0.24,-0.24
344.30,2.51,2.74,2.48,2.72,-2.72,-2.65,-2.37,-0.21,-0.24,-0.23
347.75,2.49,2.72,2.47,2.70,-2.70,-2.62,-2.33,-0.20,-0.23,-0.23
351.23,2.47,2.70,2.45,2.67,-2.67,-2.58,-2.30,-0.19,-0.22,-0.23
354.74,2.44,2.64,2.43,2.64,-2.64,-2.54,-2.26,-0.19,-0.21,-0.20
358.28,2.40,2.61,2.40,2.60,-2.60,-2.51,-2.23,-0.20,-0.20,-0.21
361.87,2.37,2.57,2.37,2.57,-2.57,-2.47,-2.20,-0.19,-0.20,-0.20
365.49,2.34,2.53,2.34,2.53,-2.53,-2.44,-2.18,-0.19,-0.19,-0.19
369.14,2.30,2.47,2.31,2.49,-2.49,-2.40,-2.15,-0.19,-0.18,-0.17
372.83,2.27,2.44,2.29,2.46,-2.46,-2.36,-2.13,-0.19,-0.17,-0.17
376.56,2.23,2.40,2.27,2.43,-2.43,-2.33,-2.10,-0.19,-0.16,-0.17
380.33,2.21,2.37,2.25,2.40,-2.40,-2.29,-2.08,-0.19,-0.15,-0.16
384.13,2.19,2.33,2.23,2.38,-2.38,-2.25,-2.07,-0.18,-0.14,-0.14
387.97,2.18,2.32,2.22,2.35,-2.35,-2.21,-2.05,-0.17,-0.14,-0.14
391.85,2.18,2.31,2.21,2.33,-2.33,-2.18,-2.03,-0.15,-0.12,-0.13
395.77,2.19,2.31,2.20,2.31,-2.31,-2.14,-2.02,-0.12,-0.12,-0.12
399.73,2.20,2.31,2.19,2.29,-2.29,-2.10,-2.00,-0.09,-0.10,-0.11
403.72,2.20,2.28,2.17,2.27,-2.27,-2.07,-1.99,-0.06,-0.09,-0.08
407.76,2.19,2.28,2.16,2.25,-2.25,-2.03,-1.98,-0.05,-0.09,-0.09
411.84,2.18,2.26,2.15,2.22,-2.22,-1.99,-1.97,-0.04,-0.08,-0.08
415.96,2.15,2.21,2.13,2.20,-2.20,-1.96,-1.96,-0.04,-0.07,-0.06
420.12,2.12,2.18,2.11,2.17,-2.17,-1.92,-1.95,-0.04,-0.06,-0.06
424.32,2.09,2.14,2.08,2.13,-2.13,-1.88,-1.95,-0.04,-0.05,-0.05
428.56,2.05,2.08,2.05,2.09,-2.09,-1.85,-1.94,-0.04,-0.04,-0.03
432.85,2.02,2.04,2.02,2.05,-2.05,-1.81,-1.93,-0.03,-0.03,-0.02
437.18,1.99,2.02,1.99,2.01,-2.01,-1.78,-1.92,-0.02,-0.02,-0.03
441.55,1.95,1.97,1.97,1.98,-1.98,-1.74,-1.92,-0.02,-0.01,-0.02
445.96,1.92,1.93,1.94,1.94,-1.94,-1.71,-1.91,-0.02,-0.00,-0.01
450.42,1.89,1.89,1.92,1.92,-1.92,-1.67,-1.90,-0.02,0.00,0.00
454.93,1.87,1.86,1.90,1.89,-1.89,-1.64,-1.89,-0.02,0.01,0.01
459.48,1.85,1.83,1.89,1.87,-1.87,-1.60,-1.88,-0.01,0.02,0.02
464.07,1.84,1.80,1.88,1.85,-1.85,-1.57,-1.87,-0.01,0.03,0.04
468.71,1.85,1.80,1.88,1.84,-1.84,-1.53,-1.86,0.02,0.04,0.05
473.40,1.86,1.81,1.87,1.82,-1.82,-1.50,-1.85,0.05,0.05,0.05
478.13,1.88,1.82,1.86,1.80,-1.80,-1.47,-1.84,0.08,0.06,0.06
482.91,1.88,1.81,1.86,1.79,-1.79,-1.43,-1.82,0.10,0.07,0.07
487.74,1.88,1.80,1.85,1.76,-1.76,-1.40,-1.81,0.12,0.08,0.08
492.62,1.87,1.78,1.84,1.74,-1.74,-1.37,-1.79,0.13,0.10,0.09
497.55,1.85,1.75,1.82,1.72,-1.72,-1.34,-1.77,0.14,0.11,0.10
502.52,1.82,1.71,1.81,1.69,-1.69,-1.31,-1.74,0.14,0.12,0.11
507.55,1.79,1.66,1.78,1.65,-1.65,-1.27,-1.72,0.14,0.13,0.13
512.62,1.76,1.62,1.76,1.62,-1.62,-1.24,-1.70,0.15,0.14,0.14
517.75,1.72,1.56,1.73,1.58,-1.58,-1.21,-1.67,0.14,0.15,0.16
522.93,1.69,1.52,1.70,1.54,-1.54,-1.18,-1.64,0.16,0.17,0.17
528.16,1.66,1.48,1.68,1.50,-1.50,-1.15,-1.61,0.17,0.18,0.18
533.44,1.62,1.43,1.65,1.46,-1.46,-1.12,-1.58,0.17,0.19,0.19
538.77,1.59,1.39,1.62,1.42,-1.42,-1.09,-1.54,0.17,0.20,0.20
