frequency,raw,error,smoothed,error_smoothed,equalization,parametric_eq,fixed_band_eq,equalized_raw,equalized_smoothed,target
20.00,1.84,-8.29,1.84,-8.29,8.29,7.48,3.44,10.14,10.13,10.13
20.20,1.86,-8.26,1.87,-8.25,8.25,7.56,3.53,10.12,10.12,10.12
20.40,1.88,-8.22,1.89,-8.22,8.22,7.64,3.63,10.10,10.11,10.11
20.61,1.91,-8.18,1.91,-8.18,8.18,7.71,3.73,10.10,10.10,10.10
20.81,1.93,-8.14,1.94,-8.15,8.15,7.78,3.84,10.08,10.08,10.08
21.02,1.95,-8.11,1.96,-8.11,8.11,7.84,3.94,10.07,10.07,10.07
21.23,1.98,-8.07,1.98,-8.08,8.08,7.90,4.05,10.07,10.06,10.06
21.44,2.00,-8.06,2.00,-8.05,8.05,7.95,4.17,10.05,10.05,10.07
21.66,2.02,-8.02,2.03,-8.02,8.02,8.00,4.28,10.04,10.04,10.04
21.87,2.05,-7.99,2.05,-7.98,7.98,8.04,4.40,10.04,10.03,10.04
22.09,2.07,-7.95,2.07,-7.95,7.95,8.08,4.52,10.03,10.03,10.02
22.31,2.09,-7.93,2.10,-7.92,7.92,8.11,4.65,10.02,10.02,10.02
22.54,2.11,-7.90,2.12,-7.89,7.89,8.13,4.78,10.01,10.01,10.01
22.76,2.14,-7.86,2.14,-7.86,7.86,8.15,4.91,10.01,10.01,10.01
22.99,2.16,-7.83,2.16,-7.84,7.84,8.16,5.04,10.00,10.00,10.00
23.22,2.18,-7.80,2.19,-7.81,7.81,8.17,5.18,9.99,10.00,9.99
23.45,2.21,-7.78,2.21,-7.78,7.78,8.17,5.32,9.99,9.99,10.00
23.69,2.23,-7.75,2.23,-7.75,7.75,8.16,5.47,9.99,9.99,9.98
23.92,2.25,-7.72,2.26,-7.72,7.72,8.15,5.61,9.98,9.98,9.97
24.16,2.27,-7.71,2.28,-7.70,7.70,8.13,5.77,9.97,9.98,9.98
24.40,2.30,-7.67,2.30,-7.67,7.67,8.11,5.92,9.98,9.97,9.98
24.65,2.32,-7.65,2.32,-7.65,7.65,8.08,6.07,9.97,9.97,9.98
24.89,2.34,-7.63,2.35,-7.62,7.62,8.05,6.23,9.97,9.97,9.98
25.14,2.37,-7.60,2.37,-7.60,7.60,8.01,6.39,9.96,9.97,9.96
25.39,2.40,-7.57,2.39,-7.57,7.57,7.97,6.55,9.97,9.97,9.96
25.65,2.41,-7.55,2.41,-7.55,7.55,7.92,6.72,9.97,9.96,9.96
25.91,2.43,-7.52,2.44,-7.53,7.53,7.87,6.88,9.96,9.96,9.96
26.16,2.45,-7.51,2.46,-7.50,7.50,7.82,7.04,9.96,9.96,9.97
26.43,2.47,-7.49,2.48,-7.48,7.48,7.77,7.21,9.96,9.96,9.96
26.69,2.50,-7.46,2.50,-7.46,7.46,7.71,7.37,9.97,9.96,9.96
26.96,2.52,-7.44,2.52,-7.44,7.44,7.65,7.53,9.96,9.96,9.96
27.23,2.54,-7.41,2.54,-7.42,7.42,7.59,7.69,9.96,9.96,9.96
27.50,2.56,-7.39,2.56,-7.40,7.40,7.53,7.84,9.97,9.96,9.96
27.77,2.58,-7.38,2.58,-7.38,7.38,7.46,7.99,9.97,9.96,9.96
28.05,2.60,-7.36,2.61,-7.36,7.36,7.40,8.14,9.96,9.97,9.96
28.33,2.62,-7.34,2.63,-7.34,7.34,7.33,8.28,9.96,9.97,9.97
28.62,2.64,-7.32,2.65,-7.32,7.32,7.27,8.41,9.96,9.97,9.96
28.90,2.66,-7.31,2.67,-7.30,7.30,7.20,8.53,9.96,9.96,9.97
29.19,2.68,-7.28,2.69,-7.27,7.27,7.14,8.64,9.96,9.96,9.97
29.48,2.70,-7.26,2.71,-7.25,7.25,7.07,8.74,9.96,9.96,9.97
29.78,2.72,-7.24,2.73,-7.23,7.23,7.01,8.83,9.95,9.96,9.96
30.08,2.75,-7.20,2.75,-7.21,7.21,6.95,8.91,9.96,9.95,9.96
30.38,2.77,-7.17,2.77,-7.18,7.18,6.88,8.97,9.96,9.95,9.95
30.68,2.79,-7.15,2.79,-7.16,7.16,6.82,9.02,9.95,9.95,9.94
30.99,2.81,-7.12,2.81,-7.13,7.13,6.77,9.06,9.94,9.94,9.94
31.30,2.82,-7.11,2.83,-7.10,7.10,6.71,9.08,9.93,9.93,9.93
31.61,2.84,-7.08,2.85,-7.08,7.08,6.66,9.08,9.92,9.92,9.93
31.93,2.86,-7.04,2.86,-7.05,7.05,6.60,9.07,9.92,9.92,9.91
32.24,2.87,-7.04,2.88,-7.03,7.03,6.55,9.05,9.90,9.91,9.91
32.57,2.89,-7.00,2.90,-7.00,7.00,6.51,9.01,9.90,9.90,9.90
32.89,2.91,-6.98,2.91,-6.98,6.98,6.46,8.96,9.89,9.89,9.89
33.22,2.93,-6.95,2.93,-6.95,6.95,6.42,8.89,9.89,9.88,9.89
33.55,2.94,-6.94,2.94,-6.93,6.93,6.38,8.82,9.88,9.88,9.88
33.89,2.96,-6.90,2.96,-6.91,6.91,6.34,8.73,9.87,9.87,9.86
34.23,2.97,-6.87,2.97,-6.88,6.88,6.30,8.63,9.86,9.86,9.85
34.57,2.98,-6.86,2.99,-6.86,6.86,6.27,8.53,9.84,9.85,9.84
34.92,3.00,-6.82,3.00,-6.83,6.83,6.24,8.42,9.84,9.84,9.83
35.27,3.01,-6.83,3.02,-6.81,6.81,6.22,8.31,9.82,9.82,9.84
35.62,3.02,-6.79,3.03,-6.78,6.78,6.19,8.19,9.81,9.81,9.81
35.97,3.04,-6.76,3.04,-6.76,6.76,6.17,8.06,9.80,9.80,9.81
36.33,3.05,-6.73,3.05,-6.73,6.73,6.15,7.94,9.78,9.78,9.79
36.70,3.06,-6.70,3.06,-6.70,6.70,6.14,7.81,9.77,9.76,9.76
37.06,3.07,-6.67,3.07,-6.67,6.67,6.13,7.68,9.75,9.75,9.74
37.43,3.08,-6.64,3.08,-6.64,6.64,6.12,7.55,9.73,9.73,9.73
37.81,3.09,-6.61,3.09,-6.61,6.61,6.11,7.42,9.71,9.71,9.71
38.19,3.10,-6.57,3.10,-6.58,6.58,6.11,7.30,9.68,9.68,9.68
38.57,3.11,-6.55,3.11,-6.55,6.55,6.10,7.17,9.66,9.66,9.66
38.95,3.11,-6.53,3.12,-6.51,6.51,6.10,7.05,9.63,9.64,9.64
39.34,3.12,-6.49,3.13,-6.48,6.48,6.11,6.93,9.60,9.61,9.61
39.74,3.13,-6.45,3.14,-6.45,6.45,6.11,6.81,9.58,9.59,9.58
40.14,3.14,-6.42,3.15,-6.41,6.41,6.11,6.69,9.56,9.56,9.56
40.54,3.15,-6.39,3.16,-6.38,6.38,6.12,6.58,9.54,9.54,9.54
40.94,3.16,-6.34,3.16,-6.35,6.35,6.13,6.47,9.51,9.51,9.51
41.35,3.17,-6.31,3.17,-6.32,6.32,6.14,6.37,9.49,9.49,9.49
41.76,3.18,-6.27,3.18,-6.29,6.29,6.14,6.27,9.47,9.46,9.45
42.18,3.18,-6.26,3.18,-6.26,6.26,6.15,6.17,9.44,9.44,9.44
42.60,3.18,-6.22,3.18,-6.23,6.23,6.16,6.08,9.41,9.41,9.41
43.03,3.18,-6.20,3.18,-6.20,6.20,6.17,6.00,9.39,9.38,9.39
43.46,3.18,-6.17,3.18,-6.17,6.17,6.17,5.91,9.36,9.36,9.35
43.90,3.19,-6.13,3.18,-6.15,6.15,6.18,5.83,9.34,9.33,9.33
44.33,3.18,-6.11,3.18,-6.12,6.12,6.18,5.76,9.30,9.30,9.29
44.78,3.17,-6.09,3.17,-6.09,6.09,6.18,5.69,9.27,9.26,9.27
45.23,3.16,-6.08,3.17,-6.06,6.06,6.17,5.62,9.23,9.23,9.24
45.68,3.15,-6.04,3.16,-6.03,6.03,6.17,5.56,9.19,9.19,9.19
46.13,3.14,-6.01,3.16,-6.00,6.00,6.15,5.50,9.14,9.15,9.16
46.60,3.14,-5.97,3.15,-5.96,5.96,6.14,5.45,9.11,9.11,9.12
47.06,3.14,-5.93,3.15,-5.92,5.92,6.12,5.39,9.07,9.07,9.08
47.53,3.14,-5.90,3.15,-5.88,5.88,6.09,5.35,9.03,9.03,9.04
48.01,3.14,-5.84,3.15,-5.84,5.84,6.06,5.30,8.98,8.98,8.98
48.49,3.14,-5.80,3.15,-5.79,5.79,6.02,5.26,8.94,8.94,8.94
48.97,3.15,-5.73,3.15,-5.74,5.74,5.98,5.23,8.90,8.89,8.89
49.46,3.15,-5.69,3.16,-5.69,5.69,5.93,5.20,8.84,8.85,8.85
49.96,3.16,-5.62,3.17,-5.63,5.63,5.88,5.17,8.80,8.80,8.78
50.46,3.17,-5.58,3.18,-5.58,5.58,5.81,5.14,8.75,8.75,8.75
50.96,3.18,-5.52,3.19,-5.52,5.52,5.75,5.11,8.70,8.71,8.71
51.47,3.19,-5.47,3.20,-5.46,5.46,5.68,5.09,8.65,8.66,8.66
51.99,3.21,-5.39,3.21,-5.40,5.40,5.60,5.07,8.61,8.61,8.60
52.51,3.23,-5.33,3.23,-5.34,5.34,5.52,5.05,8.57,8.56,8.57
53.03,3.24,-5.28,3.24,-5.27,5.27,5.44,5.03,8.52,8.52,8.53
53.56,3.26,-5.22,3.26,-5.21,5.21,5.35,5.02,8.47,8.47,8.48
54.10,3.27,-5.15,3.28,-5.15,5.15,5.25,5.00,8.42,8.43,8.42
54.64,3.30,-5.08,3.30,-5.08,5.08,5.16,4.98,8.39,8.38,8.38
55.18,3.32,-5.00,3.32,-5.02,5.02,5.06,4.97,8.34,8.34,8.33
55.74,3.33,-4.94,3.34,-4.95,4.95,4.96,4.95,8.29,8.29,8.28
56.29,3.35,-4.89,3.36,-4.88,4.88,4.85,4.93,8.24,8.25,8.24
56.86,3.37,-4.82,3.39,-4.82,4.82,4.75,4.92,8.19,8.20,8.20
57.42,3.39,-4.75,3.41,-4.75,4.75,4.64,4.90,8.14,8.15,8.14
58.00,3.41,-4.68,3.43,-4.68,4.68,4.53,4.87,8.09,8.10,8.10
58.58,3.44,-4.61,3.45,-4.61,4.61,4.43,4.85,8.05,8.05,8.06
59.16,3.46,-4.56,3.46,-4.54,4.54,4.32,4.82,8.00,8.00,8.02
59.76,3.48,-4.49,3.48,-4.47,4.47,4.21,4.79,7.95,7.95,7.97
60.35,3.50,-4.40,3.49,-4.40,4.40,4.11,4.76,7.91,7.89,7.91
60.96,3.51,-4.33,3.50,-4.34,4.34,4.00,4.72,7.85,7.83,7.85
61.57,3.51,-4.26,3.50,-4.27,4.27,3.89,4.68,7.79,7.78,7.77
62.18,3.51,-4.19,3.50,-4.21,4.21,3.79,4.64,7.73,7.72,7.71
62.80,3.50,-4.14,3.50,-4.16,4.16,3.69,4.59,7.66,7.65,7.64
63.43,3.49,-4.08,3.49,-4.10,4.10,3.59,4.54,7.60,7.59,7.58
64.07,3.48,-4.03,3.47,-4.05,4.05,3.49,4.49,7.54,7.53,7.52
64.71,3.46,-3.99,3.46,-4.01,4.01,3.39,4.43,7.47,7.47,7.46
65.35,3.43,-3.96,3.44,-3.96,3.96,3.29,4.37,7.40,7.40,7.40
66.01,3.40,-3.93,3.42,-3.92,3.92,3.20,4.30,7.33,7.34,7.34
66.67,3.38,-3.90,3.39,-3.88,3.88,3.10,4.23,7.27,7.27,7.28
67.33,3.36,-3.84,3.37,-3.84,3.84,3.01,4.16,7.21,7.21,7.21
68.01,3.33,-3.82,3.34,-3.81,3.81,2.92,4.08,7.14,7.15,7.15
68.69,3.31,-3.77,3.31,-3.77,3.77,2.84,4.01,7.08,7.08,7.09
69.37,3.28,-3.74,3.29,-3.73,3.73,2.75,3.92,7.01,7.02,7.03
70.07,3.26,-3.69,3.26,-3.69,3.69,2.67,3.84,6.95,6.95,6.96
70.77,3.24,-3.64,3.24,-3.64,3.64,2.59,3.76,6.89,6.88,6.89
71.48,3.22,-3.60,3.22,-3.60,3.60,2.51,3.67,6.82,6.82,6.82
72.19,3.20,-3.54,3.20,-3.55,3.55,2.43,3.59,6.75,6.75,6.75
72.91,3.18,-3.49,3.19,-3.49,3.49,2.35,3.50,6.68,6.68,6.67
73.64,3.17,-3.43,3.18,-3.44,3.44,2.28,3.41,6.61,6.62,6.61
74.38,3.15,-3.39,3.17,-3.38,3.38,2.21,3.32,6.54,6.55,6.54
75.12,3.14,-3.34,3.16,-3.33,3.33,2.14,3.23,6.47,6.49,6.48
75.87,3.13,-3.29,3.15,-3.27,3.27,2.07,3.14,6.40,6.42,6.42
76.63,3.14,-3.21,3.15,-3.21,3.21,2.00,3.05,6.35,6.36,6.35
77.40,3.14,-3.15,3.15,-3.15,3.15,1.94,2.96,6.29,6.30,6.30
78.17,3.15,-3.07,3.15,-3.08,3.08,1.87,2.88,6.24,6.23,6.22
78.95,3.16,-3.01,3.15,-3.02,3.02,1.81,2.79,6.19,6.17,6.18
79.74,3.16,-2.95,3.15,-2.96,2.96,1.75,2.70,6.12,6.11,6.11
80.54,3.16,-2.89,3.16,-2.89,2.89,1.69,2.62,6.06,6.05,6.05
81.35,3.16,-2.82,3.16,-2.83,2.83,1.63,2.53,5.99,5.99,5.99
82.16,3.16,-2.77,3.16,-2.76,2.76,1.58,2.45,5.93,5.93,5.94
82.98,3.16,-2.70,3.16,-2.70,2.70,1.52,2.37,5.86,5.86,5.87
83.81,3.16,-2.64,3.17,-2.63,2.63,1.47,2.29,5.80,5.80,5.80
84.65,3.16,-2.57,3.17,-2.57,2.57,1.41,2.21,5.73,5.73,5.73
85.50,3.16,-2.50,3.17,-2.50,2.50,1.36,2.13,5.67,5.67,5.67
86.35,3.16,-2.44,3.17,-2.44,2.44,1.31,2.06,5.60,5.60,5.60
87.22,3.16,-2.37,3.17,-2.37,2.37,1.26,1.98,5.54,5.54,5.54
88.09,3.16,-2.30,3.16,-2.30,2.30,1.21,1.91,5.47,5.47,5.47
88.97,3.16,-2.24,3.16,-2.24,2.24,1.17,1.84,5.40,5.40,5.40
89.86,3.16,-2.17,3.16,-2.17,2.17,1.12,1.77,5.33,5.33,5.33
90.76,3.16,-2.10,3.16,-2.10,2.10,1.07,1.70,5.26,5.26,5.26
91.66,3.16,-2.02,3.16,-2.02,2.02,1.03,1.63,5.19,5.19,5.18
92.58,3.16,-1.96,3.16,-1.95,1.95,0.98,1.56,5.12,5.12,5.12
93.51,3.16,-1.89,3.16,-1.88,1.88,0.94,1.49,5.04,5.04,5.05
94.44,3.16,-1.81,3.16,-1.81,1.81,0.90,1.43,4.97,4.97,4.98
95.39,3.16,-1.73,3.16,-1.73,1.73,0.86,1.37,4.90,4.90,4.90
96.34,3.16,-1.66,3.16,-1.66,1.66,0.81,1.31,4.82,4.82,4.82
97.30,3.16,-1.59,3.16,-1.58,1.58,0.77,1.24,4.75,4.75,4.75
98.28,3.16,-1.50,3.16,-1.51,1.51,0.73,1.18,4.67,4.67,4.67
99.26,3.16,-1.43,3.16,-1.44,1.44,0.69,1.13,4.60,4.60,4.59
100.25,3.16,-1.35,3.16,-1.37,1.37,0.65,1.07,4.53,4.53,4.52
101.25,3.16,-1.29,3.16,-1.29,1.29,0.62,1.01,4.46,4.46,4.45
102.27,3.16,-1.22,3.16,-1.22,1.22,0.58,0.96,4.39,4.39,4.39
103.29,3.16,-1.15,3.16,-1.15,1.15,0.54,0.90,4.32,4.32,4.31
104.32,3.16,-1.08,3.16,-1.08,1.08,0.50,0.85,4.25,4.25,4.25
105.37,3.16,-1.02,3.16,-1.02,1.02,0.47,0.79,4.18,4.18,4.18
106.42,3.16,-0.95,3.16,-0.95,0.95,0.43,0.74,4.11,4.11,4.12
107.48,3.16,-0.88,3.17,-0.87,0.87,0.39,0.69,4.04,4.04,4.04
108.56,3.16,-0.81,3.17,-0.80,0.80,0.36,0.64,3.97,3.97,3.97
109.64,3.16,-0.75,3.17,-0.73,0.73,0.32,0.59,3.89,3.90,3.91
110.74,3.16,-0.67,3.17,-0.65,0.65,0.29,0.54,3.82,3.83,3.83
111.85,3.16,-0.60,3.18,-0.58,0.58,0.25,0.49,3.74,3.76,3.76
112.97,3.16,-0.53,3.18,-0.51,0.51,0.22,0.45,3.67,3.69,3.70
114.10,3.16,-0.46,3.18,-0.43,0.43,0.18,0.40,3.60,3.62,3.62
115.24,3.18,-0.35,3.18,-0.37,0.37,0.15,0.35,3.55,3.54,3.54
116.39,3.19,-0.27,3.18,-0.30,0.30,0.11,0.31,3.49,3.47,3.46
117.55,3.18,-0.21,3.17,-0.24,0.24,0.08,0.26,3.42,3.40,3.39
118.73,3.17,-0.15,3.16,-0.18,0.18,0.04,0.22,3.35,3.33,3.32
119.92,3.16,-0.09,3.14,-0.12,0.12,0.01,0.18,3.29,3.27,3.26
121.12,3.13,-0.06,3.13,-0.07,0.07,-0.02,0.13,3.20,3.20,3.20
122.33,3.12,-0.00,3.10,-0.02,0.02,-0.06,0.09,3.15,3.13,3.13
123.55,3.09,0.03,3.08,0.02,-0.02,-0.09,0.05,3.07,3.06,3.07
124.79,3.05,0.06,3.05,0.06,-0.06,-0.13,0.01,3.00,2.99,3.00
126.03,3.01,0.08,3.02,0.10,-0.10,-0.16,-0.04,2.92,2.92,2.93
127.29,2.98,0.12,2.99,0.13,-0.13,-0.20,-0.08,2.85,2.86,2.86
128.57,2.95,0.17,2.95,0.17,-0.17,-0.23,-0.12,2.79,2.79,2.79
129.85,2.91,0.19,2.93,0.20,-0.20,-0.27,-0.16,2.71,2.72,2.72
131.15,2.88,0.24,2.90,0.25,-0.25,-0.30,-0.20,2.64,2.65,2.65
132.46,2.86,0.28,2.88,0.29,-0.29,-0.34,-0.24,2.57,2.59,2.59
133.79,2.83,0.32,2.86,0.34,-0.34,-0.37,-0.28,2.49,2.52,2.51
135.12,2.82,0.37,2.85,0.39,-0.39,-0.41,-0.32,2.43,2.45,2.45
136.48,2.81,0.42,2.84,0.45,-0.45,-0.44,-0.36,2.36,2.39,2.39
137.84,2.81,0.49,2.83,0.51,-0.51,-0.48,-0.40,2.30,2.32,2.32
139.22,2.82,0.57,2.83,0.57,-0.57,-0.51,-0.44,2.25,2.26,2.26
140.61,2.83,0.64,2.84,0.64,-0.64,-0.55,-0.48,2.20,2.20,2.20
142.02,2.84,0.71,2.84,0.70,-0.70,-0.59,-0.52,2.15,2.14,2.13
143.44,2.84,0.77,2.84,0.76,-0.76,-0.62,-0.56,2.08,2.08,2.08
144.87,2.85,0.83,2.84,0.82,-0.82,-0.66,-0.60,2.03,2.02,2.03
146.32,2.86,0.90,2.84,0.88,-0.88,-0.70,-0.64,1.99,1.97,1.96
147.78,2.86,0.95,2.84,0.93,-0.93,-0.74,-0.69,1.93,1.91,1.91
149.26,2.85,1.00,2.83,0.98,-0.98,-0.78,-0.73,1.88,1.86,1.85
150.75,2.83,1.04,2.82,1.02,-1.02,-0.82,-0.77,1.81,1.80,1.80
152.26,2.82,1.07,2.81,1.06,-1.06,-0.86,-0.82,1.77,1.75,1.75
153.78,2.79,1.10,2.78,1.09,-1.09,-0.90,-0.86,1.70,1.69,1.69
155.32,2.76,1.12,2.75,1.12,-1.12,-0.94,-0.91,1.65,1.64,1.64
156.88,2.72,1.14,2.72,1.14,-1.14,-0.98,-0.95,1.58,1.58,1.59
158.44,2.70,1.18,2.69,1.16,-1.16,-1.02,-1.00,1.54,1.53,1.53
160.03,2.65,1.18,2.65,1.18,-1.18,-1.06,-1.05,1.47,1.47,1.48
161.63,2.63,1.22,2.62,1.20,-1.20,-1.11,-1.10,1.43,1.42,1.42
163.24,2.60,1.24,2.59,1.23,-1.23,-1.15,-1.15,1.37,1.36,1.36
164.88,2.54,1.24,2.56,1.26,-1.26,-1.20,-1.20,1.28,1.30,1.30
166.53,2.52,1.29,2.55,1.30,-1.30,-1.24,-1.26,1.23,1.25,1.24
168.19,2.50,1.31,2.53,1.34,-1.34,-1.29,-1.31,1.16,1.19,1.20
169.87,2.48,1.35,2.53,1.39,-1.39,-1.33,-1.37,1.09,1.13,1.13
171.57,2.48,1.41,2.53,1.45,-1.45,-1.38,-1.42,1.03,1.07,1.07
173.29,2.49,1.47,2.53,1.52,-1.52,-1.43,-1.48,0.98,1.02,1.02
175.02,2.53,1.57,2.55,1.59,-1.59,-1.47,-1.54,0.95,0.96,0.96
176.77,2.57,1.67,2.56,1.66,-1.66,-1.52,-1.60,0.92,0.91,0.91
178.54,2.60,1.75,2.59,1.74,-1.74,-1.57,-1.66,0.87,0.85,0.85
180.32,2.63,1.85,2.62,1.82,-1.82,-1.62,-1.73,0.81,0.79,0.78
182.13,2.66,1.92,2.65,1.91,-1.91,-1.67,-1.79,0.76,0.74,0.74
183.95,2.70,2.02,2.68,2.00,-2.00,-1.72,-1.86,0.71,0.68,0.69
185.79,2.73,2.11,2.71,2.08,-2.08,-1.77,-1.93,0.65,0.63,0.63
187.65,2.75,2.18,2.75,2.17,-2.17,-1.83,-1.99,0.58,0.58,0.58
189.52,2.77,2.25,2.78,2.25,-2.25,-1.88,-2.06,0.52,0.53,0.53
191.42,2.80,2.32,2.81,2.34,-2.34,-1.93,-2.13,0.47,0.48,0.48
193.33,2.83,2.40,2.84,2.41,-2.41,-1.99,-2.21,0.42,0.43,0.43
195.27,2.87,2.50,2.87,2.49,-2.49,-2.04,-2.28,0.38,0.38,0.38
197.22,2.90,2.58,2.90,2.57,-2.57,-2.10,-2.35,0.34,0.34,0.32
199.19,2.92,2.64,2.93,2.64,-2.64,-2.15,-2.43,0.29,0.29,0.29
201.18,2.95,2.72,2.96,2.71,-2.71,-2.21,-2.50,0.24,0.25,0.24
203.19,2.98,2.78,2.99,2.79,-2.79,-2.26,-2.58,0.20,0.21,0.20
205.23,3.01,2.84,3.02,2.86,-2.86,-2.32,-2.65,0.16,0.17,0.17
207.28,3.04,2.91,3.06,2.93,-2.93,-2.38,-2.73,0.12,0.13,0.13
209.35,3.07,2.98,3.08,2.99,-2.99,-2.43,-2.80,0.08,0.09,0.10
211.44,3.10,3.05,3.11,3.06,-3.06,-2.49,-2.88,0.05,0.06,0.06
213.56,3.13,3.10,3.13,3.11,-3.11,-2.54,-2.95,0.02,0.02,0.03
215.69,3.16,3.17,3.15,3.16,-3.16,-2.60,-3.02,0.00,-0.01,-0.01
217.85,3.18,3.23,3.17,3.21,-3.21,-2.66,-3.09,-0.03,-0.04,-0.04
220.03,3.19,3.27,3.18,3.25,-3.25,-2.71,-3.16,-0.06,-0.07,-0.08
222.23,3.20,3.31,3.18,3.29,-3.29,-2.77,-3.22,-0.08,-0.10,-0.11
224.45,3.20,3.34,3.18,3.31,-3.31,-2.82,-3.29,-0.11,-0.13,-0.13
226.70,3.18,3.35,3.18,3.34,-3.34,-2.87,-3.35,-0.15,-0.16,-0.17
228.96,3.16,3.34,3.17,3.35,-3.35,-2.93,-3.40,-0.19,-0.18,-0.18
231.25,3.15,3.36,3.15,3.36,-3.36,-2.98,-3.46,-0.20,-0.21,-0.21
233.57,3.13,3.36,3.13,3.35,-3.35,-3.03,-3.50,-0.22,-0.23,-0.23
235.90,3.09,3.34,3.10,3.35,-3.35,-3.08,-3.55,-0.25,-0.25,-0.25
238.26,3.07,3.35,3.07,3.33,-3.33,-3.12,-3.59,-0.26,-0.26,-0.28
240.64,3.04,3.32,3.04,3.32,-3.32,-3.17,-3.62,-0.27,-0.28,-0.27
243.05,3.00,3.30,3.00,3.30,-3.30,-3.21,-3.65,-0.29,-0.29,-0.29
245.48,2.97,3.28,2.97,3.28,-3.28,-3.25,-3.67,-0.30,-0.30,-0.31
247.93,2.93,3.26,2.94,3.26,-3.26,-3.29,-3.69,-0.32,-0.31,-0.32
250.41,2.91,3.23,2.92,3.24,-3.24,-3.33,-3.70,-0.32,-0.32,-0.32
252.92,2.87,3.20,2.89,3.22,-3.22,-3.36,-3.71,-0.35,-0.33,-0.33
255.45,2.85,3.19,2.87,3.21,-3.21,-3.39,-3.71,-0.36,-0.34,-0.34
258.00,2.83,3.18,2.86,3.21,-3.21,-3.42,-3.70,-0.37,-0.35,-0.34
260.58,2.82,3.17,2.85,3.20,-3.20,-3.45,-3.69,-0.38,-0.35,-0.35
263.19,2.81,3.17,2.85,3.20,-3.20,-3.47,-3.67,-0.39,-0.36,-0.35
265.82,2.82,3.19,2.84,3.21,-3.21,-3.49,-3.65,-0.38,-0.36,-0.36
268.48,2.83,3.20,2.84,3.21,-3.21,-3.51,-3.62,-0.38,-0.37,-0.37
271.16,2.84,3.21,2.84,3.22,-3.22,-3.52,-3.59,-0.37,-0.38,-0.37
273.87,2.85,3.23,2.84,3.22,-3.22,-3.53,-3.56,-0.37,-0.38,-0.38
276.61,2.86,3.24,2.84,3.22,-3.22,-3.54,-3.52,-0.36,-0.38,-0.38
279.38,2.86,3.27,2.84,3.22,-3.22,-3.54,-3.48,-0.36,-0.39,-0.40
282.17,2.85,3.26,2.83,3.22,-3.22,-3.54,-3.44,-0.37,-0.39,-0.40
284.99,2.84,3.24,2.82,3.21,-3.21,-3.54,-3.39,-0.37,-0.39,-0.39
287.84,2.82,3.21,2.80,3.20,-3.20,-3.53,-3.34,-0.37,-0.39,-0.39
290.72,2.79,3.19,2.78,3.18,-3.18,-3.52,-3.29,-0.38,-0.39,-0.40
293.63,2.76,3.15,2.76,3.15,-3.15,-3.51,-3.24,-0.39,-0.39,-0.39
296.57,2.73,3.12,2.73,3.12,-3.12,-3.49,-3.19,-0.38,-0.39,-0.39
299.53,2.70,3.09,2.70,3.08,-3.08,-3.47,-3.13,-0.38,-0.38,-0.38
302.53,2.66,3.04,2.67,3.05,-3.05,-3.45,-3.08,-0.38,-0.38,-0.37
305.55,2.63,3.01,2.64,3.01,-3.01,-3.42,-3.03,-0.38,-0.38,-0.38
308.61,2.60,2.97,2.61,2.98,-2.98,-3.40,-2.98,-0.38,-0.37,-0.37
311.69,2.56,2.93,2.59,2.95,-2.95,-3.37,-2.92,-0.39,-0.37,-0.36
314.81,2.55,2.92,2.57,2.93,-2.93,-3.33,-2.87,-0.37,-0.36,-0.36
317.96,2.52,2.88,2.55,2.91,-2.91,-3.30,-2.82,-0.38,-0.35,-0.36
321.14,2.50,2.85,2.54,2.89,-2.89,-3.26,-2.77,-0.38,-0.35,-0.34
324.35,2.49,2.84,2.53,2.87,-2.87,-3.22,-2.72,-0.38,-0.34,-0.35
327.59,2.50,2.83,2.52,2.86,-2.86,-3.18,-2.68,-0.36,-0.34,-0.33
330.87,2.51,2.85,2.52,2.85,-2.85,-3.13,-2.63,-0.33,-0.33,-0.33
334.18,2.52,2.85,2.51,2.84,-2.84,-3.09,-2.59,-0.31,-0.32,-0.33
337.52,2.53,2.86,2.50,2.82,-2.82,-3.04,-2.55,-0.29,-0.32,-0.32
340.90,2.52,2.83,2.50,2.81,-2.81,-3.00,-2.51,-0.28,-0.31,-0.31
344.30,2.51,2.82,2.48,2.79,-2.79,-2.95,-2.47,-0.27,-0.30,-0.30
347.75,2.49,2.79,2.47,2.77,-2.77,-2.90,-2.43,-0.27,-0.30,-0.30
351.23,2.47,2.78,2.45,2.74,-2.74,-2.85,-2.40,-0.27,-0.29,-0.30
354.74,2.44,2.72,2.43,2.71,-2.71,-2.80,-2.37,-0.27,-0.28,-0.27
358.28,2.40,2.68,2.40,2.68,-2.68,-2.75,-2.34,-0.27,-0.28,-0.28
361.87,2.37,2.65,2.37,2.64,-2.64,-2.70,-2.31,-0.27,-0.27,-0.27
365.49,2.34,2.61,2.34,2.61,-2.61,-2.64,-2.28,-0.26,-0.26,-0.27
369.14,2.30,2.55,2.31,2.57,-2.57,-2.59,-2.26,-0.27,-0.26,-0.25
372.83,2.27,2.52,2.29,2.54,-2.54,-2.54,-2.23,-0.26,-0.25,-0.24
376.56,2.23,2.48,2.27,2.51,-2.51,-2.49,-2.21,-0.27,-0.24,-0.25
380.33,2.21,2.46,2.25,2.48,-2.48,-2.44,-2.19,-0.27,-0.23,-0.24
384.13,2.19,2.42,2.23,2.46,-2.46,-2.39,-2.18,-0.26,-0.22,-0.22
387.97,2.18,2.40,2.22,2.43,-2.43,-2.33,-2.16,-0.25,-0.22,-0.22
391.85,2.18,2.39,2.21,2.41,-2.41,-2.28,-2.15,-0.23,-0.21,-0.21
395.77,2.19,2.40,2.20,2.39,-2.39,-2.23,-2.13,-0.20,-0.20,-0.20
399.73,2.20,2.40,2.19,2.37,-2.37,-2.18,-2.12,-0.17,-0.19,-0.19
403.72,2.20,2.37,2.17,2.35,-2.35,-2.13,-2.11,-0.15,-0.18,-0.17
407.76,2.19,2.36,2.16,2.33,-2.33,-2.09,-2.10,-0.14,-0.17,-0.17
411.84,2.18,2.35,2.15,2.31,-2.31,-2.04,-2.09,-0.12,-0.16,-0.16
415.96,2.15,2.30,2.13,2.28,-2.28,-1.99,-2.09,-0.13,-0.15,-0.14
420.12,2.12,2.27,2.11,2.25,-2.25,-1.94,-2.08,-0.13,-0.14,-0.15
424.32,2.09,2.23,2.08,2.22,-2.22,-1.90,-2.07,-0.12,-0.14,-0.14
428.56,2.05,2.18,2.05,2.18,-2.18,-1.85,-2.07,-0.13,-0.13,-0.12
432.85,2.02,2.14,2.02,2.14,-2.14,-1.81,-2.06,-0.12,-0.12,-0.11
437.18,1.99,2.11,1.99,2.10,-2.10,-1.76,-2.06,-0.11,-0.11,-0.11
441.55,1.95,2.06,1.97,2.07,-2.07,-1.72,-2.05,-0.11,-0.10,-0.11
445.96,1.92,2.02,1.94,2.04,-2.04,-1.68,-2.04,-0.11,-0.09,-0.10
450.42,1.89,1.98,1.92,2.01,-2.01,-1.63,-2.04,-0.11,-0.09,-0.09
454.93,1.87,1.96,1.90,1.98,-1.98,-1.59,-2.03,-0.11,-0.08,-0.08
459.48,1.85,1.93,1.89,1.96,-1.96,-1.55,-2.02,-0.11,-0.07,-0.07
464.07,1.84,1.90,1.88,1.94,-1.94,-1.51,-2.01,-0.10,-0.06,-0.05
468.71,1.85,1.90,1.88,1.93,-1.93,-1.47,-2.00,-0.07,-0.05,-0.05
473.40,1.86,1.90,1.87,1.91,-1.91,-1.44,-1.99,-0.05,-0.04,-0.04
478.13,1.88,1.91,1.86,1.90,-1.90,-1.40,-1.98,-0.01,-0.03,-0.03
482.91,1.88,1.90,1.86,1.88,-1.88,-1.36,-1.96,0.01,-0.02,-0.02
487.74,1.88,1.90,1.85,1.86,-1.86,-1.33,-1.95,0.03,-0.01,-0.01
492.62,1.87,1.88,1.84,1.84,-1.84,-1.29,-1.93,0.04,0.00,-0.00
497.55,1.85,1.85,1.82,1.81,-1.81,-1.26,-1.91,0.04,0.01,0.01
502.52,1.82,1.81,1.81,1.78,-1.78,-1.22,-1.89,0.04,0.02,0.02
507.55,1.79,1.76,1.78,1.75,-1.75,-1.19,-1.86,0.04,0.03,0.03
512.62,1.76,1.72,1.76,1.71,-1.71,-1.16,-1.84,0.05,0.05,0.04
517.75,1.72,1.66,1.73,1.68,-1.68,-1.12,-1.81,0.05,0.06,0.06
522.93,1.69,1.62,1.70,1.64,-1.64,-1.09,-1.78,0.06,0.07,0.07
528.16,1.66,1.58,1.68,1.59,-1.59,-1.06,-1.75,0.07,0.08,0.08
533.44,1.62,1.53,1.65,1.56,-1.56,-1.03,-1.72,0.07,0.09,0.09
538.77,1.59,1.50,1.62,1.52,-1.52,-1.00,-1.68,0.08,0.10,0.10
