frequency,raw,error,smoothed,error_smoothed,equalization,parametric_eq,fixed_band_eq,equalized_raw,equalized_smoothed,target
20.00,1.84,-6.60,1.84,-6.60,6.60,6.50,2.59,8.44,8.44,8.44
20.20,1.86,-6.57,1.87,-6.57,6.56,6.49,2.66,8.43,8.43,8.43
20.40,1.88,-6.54,1.89,-6.53,6.53,6.48,2.74,8.41,8.42,8.42
20.61,1.91,-6.50,1.91,-6.50,6.50,6.47,2.82,8.41,8.41,8.41
20.81,1.93,-6.46,1.93,-6.46,6.46,6.45,2.90,8.40,8.40,8.39
21.02,1.95,-6.43,1.96,-6.42,6.43,6.44,2.99,8.38,8.39,8.38
21.23,1.98,-6.39,1.98,-6.39,6.40,6.42,3.07,8.38,8.38,8.37
21.44,2.00,-6.38,2.00,-6.37,6.36,6.40,3.16,8.37,8.37,8.38
21.66,2.02,-6.34,2.03,-6.34,6.33,6.38,3.26,8.36,8.36,8.36
21.87,2.05,-6.31,2.05,-6.30,6.30,6.36,3.35,8.36,8.35,8.36
22.09,2.07,-6.27,2.07,-6.27,6.27,6.34,3.45,8.34,8.34,8.34
22.31,2.09,-6.24,2.10,-6.24,6.24,6.32,3.55,8.33,8.33,8.33
22.54,2.11,-6.21,2.12,-6.21,6.21,6.30,3.65,8.32,8.33,8.32
22.76,2.14,-6.18,2.14,-6.18,6.18,6.28,3.75,8.32,8.32,8.32
22.99,2.16,-6.15,2.16,-6.15,6.15,6.26,3.86,8.31,8.31,8.31
23.22,2.18,-6.12,2.19,-6.12,6.12,6.23,3.97,8.30,8.31,8.30
23.45,2.21,-6.10,2.21,-6.09,6.09,6.21,4.08,8.31,8.30,8.31
23.69,2.23,-6.07,2.23,-6.07,6.07,6.19,4.20,8.30,8.30,8.30
23.92,2.25,-6.04,2.26,-6.04,6.04,6.16,4.32,8.30,8.30,8.29
24.16,2.27,-6.03,2.28,-6.02,6.02,6.14,4.43,8.29,8.29,8.30
24.40,2.30,-6.00,2.30,-6.00,5.99,6.11,4.56,8.30,8.29,8.30
24.65,2.32,-5.97,2.32,-5.97,5.97,6.09,4.68,8.29,8.29,8.29
24.89,2.34,-5.95,2.35,-5.94,5.94,6.06,4.80,8.29,8.29,8.29
25.14,2.37,-5.92,2.37,-5.91,5.92,6.03,4.93,8.28,8.29,8.28
25.39,2.40,-5.89,2.39,-5.89,5.89,6.01,5.05,8.29,8.29,8.28
25.65,2.41,-5.87,2.41,-5.87,5.87,5.98,5.18,8.28,8.28,8.28
25.91,2.43,-5.85,2.43,-5.85,5.85,5.96,5.31,8.28,8.28,8.28
26.16,2.45,-5.84,2.46,-5.83,5.82,5.93,5.44,8.28,8.28,8.29
26.43,2.47,-5.81,2.48,-5.81,5.80,5.90,5.56,8.28,8.28,8.28
26.69,2.50,-5.78,2.50,-5.78,5.78,5.88,5.69,8.28,8.28,8.28
26.96,2.52,-5.76,2.52,-5.75,5.76,5.85,5.81,8.28,8.28,8.28
27.23,2.54,-5.74,2.55,-5.74,5.74,5.83,5.93,8.28,8.28,8.28
27.50,2.56,-5.72,2.56,-5.72,5.72,5.80,6.05,8.28,8.28,8.28
27.77,2.58,-5.71,2.58,-5.70,5.70,5.77,6.16,8.29,8.29,8.29
28.05,2.60,-5.68,2.60,-5.68,5.68,5.75,6.27,8.29,8.29,8.28
28.33,2.62,-5.67,2.62,-5.66,5.67,5.72,6.38,8.29,8.29,8.29
28.62,2.64,-5.65,2.64,-5.65,5.65,5.70,6.48,8.29,8.29,8.29
28.90,2.66,-5.64,2.66,-5.63,5.63,5.67,6.57,8.29,8.29,8.30
29.19,2.68,-5.62,2.68,-5.61,5.61,5.65,6.65,8.29,8.29,8.30
29.48,2.70,-5.59,2.71,-5.59,5.58,5.62,6.72,8.29,8.29,8.29
29.78,2.72,-5.57,2.73,-5.56,5.56,5.60,6.79,8.28,8.29,8.29
30.08,2.75,-5.54,2.75,-5.53,5.54,5.57,6.84,8.29,8.29,8.29
30.38,2.77,-5.50,2.77,-5.50,5.51,5.55,6.89,8.28,8.29,8.27
30.68,2.79,-5.48,2.79,-5.48,5.48,5.52,6.92,8.28,8.28,8.27
30.99,2.81,-5.46,2.81,-5.46,5.46,5.50,6.94,8.27,8.27,8.27
31.30,2.82,-5.45,2.83,-5.44,5.43,5.48,6.95,8.26,8.26,8.27
31.61,2.84,-5.42,2.84,-5.42,5.41,5.45,6.95,8.25,8.25,8.26
31.93,2.86,-5.38,2.86,-5.39,5.39,5.43,6.94,8.25,8.25,8.24
32.24,2.87,-5.38,2.88,-5.36,5.36,5.40,6.92,8.24,8.24,8.25
32.57,2.89,-5.34,2.90,-5.34,5.34,5.38,6.89,8.23,8.24,8.23
32.89,2.91,-5.32,2.91,-5.32,5.32,5.36,6.85,8.23,8.23,8.23
33.22,2.93,-5.29,2.93,-5.29,5.29,5.33,6.80,8.23,8.22,8.22
33.55,2.94,-5.28,2.95,-5.27,5.27,5.31,6.74,8.21,8.22,8.22
33.89,2.96,-5.25,2.96,-5.25,5.25,5.29,6.67,8.21,8.21,8.21
34.23,2.97,-5.22,2.97,-5.22,5.23,5.27,6.59,8.20,8.20,8.19
34.57,2.98,-5.21,2.99,-5.20,5.20,5.24,6.51,8.19,8.19,8.19
34.92,3.00,-5.17,3.00,-5.18,5.18,5.22,6.43,8.19,8.18,8.17
35.27,3.01,-5.18,3.01,-5.16,5.16,5.20,6.33,8.17,8.17,8.19
35.62,3.02,-5.14,3.03,-5.14,5.14,5.17,6.24,8.16,8.16,8.16
35.97,3.04,-5.12,3.04,-5.12,5.11,5.15,6.14,8.15,8.15,8.16
36.33,3.05,-5.09,3.05,-5.08,5.08,5.13,6.04,8.14,8.14,8.14
36.70,3.06,-5.06,3.07,-5.06,5.06,5.10,5.94,8.12,8.12,8.12
37.06,3.07,-5.03,3.07,-5.03,5.03,5.08,5.83,8.10,8.10,8.10
37.43,3.08,-5.00,3.08,-5.00,5.00,5.05,5.73,8.09,8.09,8.08
37.81,3.09,-4.98,3.10,-4.97,4.97,5.03,5.62,8.07,8.07,8.07
38.19,3.10,-4.94,3.10,-4.94,4.94,5.00,5.52,8.05,8.05,8.04
38.57,3.11,-4.91,3.11,-4.91,4.91,4.98,5.42,8.03,8.02,8.02
38.95,3.11,-4.90,3.12,-4.88,4.88,4.95,5.32,8.00,8.00,8.01
39.34,3.12,-4.86,3.13,-4.85,4.85,4.93,5.22,7.97,7.98,7.98
39.74,3.13,-4.82,3.13,-4.82,4.82,4.90,5.12,7.95,7.95,7.95
40.14,3.14,-4.79,3.14,-4.78,4.79,4.87,5.02,7.93,7.93,7.93
40.54,3.15,-4.76,3.15,-4.75,4.76,4.85,4.93,7.91,7.91,7.91
40.94,3.16,-4.72,3.17,-4.72,4.73,4.82,4.84,7.89,7.89,7.88
41.35,3.17,-4.70,3.18,-4.69,4.70,4.79,4.75,7.87,7.87,7.87
41.76,3.18,-4.66,3.18,-4.66,4.67,4.76,4.66,7.85,7.85,7.84
42.18,3.18,-4.65,3.19,-4.64,4.64,4.73,4.58,7.82,7.82,7.83
42.60,3.18,-4.62,3.18,-4.62,4.61,4.70,4.50,7.80,7.80,7.80
43.03,3.18,-4.60,3.19,-4.59,4.59,4.67,4.43,7.77,7.77,7.78
43.46,3.18,-4.56,3.19,-4.56,4.56,4.63,4.36,7.75,7.75,7.74
43.90,3.19,-4.53,3.19,-4.53,4.54,4.60,4.29,7.74,7.73,7.72
44.33,3.18,-4.51,3.18,-4.51,4.52,4.57,4.22,7.70,7.70,7.69
44.78,3.17,-4.50,3.18,-4.49,4.50,4.53,4.16,7.67,7.67,7.67
45.23,3.16,-4.49,3.16,-4.48,4.47,4.49,4.10,7.64,7.64,7.65
45.68,3.15,-4.45,3.15,-4.45,4.45,4.46,4.04,7.60,7.60,7.60
46.13,3.14,-4.43,3.15,-4.42,4.42,4.42,3.99,7.56,7.57,7.57
46.60,3.14,-4.39,3.14,-4.39,4.39,4.38,3.94,7.53,7.53,7.53
47.06,3.14,-4.36,3.14,-4.35,4.35,4.34,3.89,7.50,7.50,7.50
47.53,3.14,-4.32,3.14,-4.31,4.31,4.30,3.85,7.46,7.46,7.46
48.01,3.14,-4.27,3.15,-4.27,4.27,4.26,3.81,7.41,7.41,7.41
48.49,3.14,-4.23,3.15,-4.22,4.22,4.22,3.77,7.37,7.37,7.37
48.97,3.15,-4.17,3.15,-4.17,4.18,4.18,3.73,7.33,7.33,7.32
49.46,3.15,-4.14,3.16,-4.12,4.13,4.13,3.70,7.28,7.28,7.29
49.96,3.16,-4.07,3.17,-4.07,4.08,4.09,3.67,7.24,7.24,7.23
50.46,3.17,-4.03,3.17,-4.03,4.03,4.04,3.64,7.20,7.20,7.20
50.96,3.18,-3.98,3.18,-3.97,3.97,4.00,3.61,7.16,7.16,7.16
51.47,3.19,-3.93,3.20,-3.92,3.92,3.95,3.59,7.12,7.12,7.12
51.99,3.21,-3.86,3.21,-3.87,3.87,3.90,3.57,7.08,7.08,7.07
52.51,3.23,-3.81,3.23,-3.81,3.81,3.85,3.54,7.04,7.04,7.04
53.03,3.24,-3.77,3.25,-3.76,3.75,3.80,3.52,7.00,7.00,7.01
53.56,3.26,-3.70,3.26,-3.70,3.69,3.75,3.50,6.96,6.96,6.96
54.10,3.27,-3.64,3.28,-3.64,3.63,3.70,3.48,6.91,6.92,6.91
54.64,3.30,-3.57,3.30,-3.57,3.57,3.65,3.46,6.88,6.88,6.87
55.18,3.32,-3.51,3.32,-3.51,3.52,3.60,3.44,6.84,6.84,6.83
55.74,3.33,-3.45,3.34,-3.45,3.46,3.55,3.42,6.79,6.79,6.78
56.29,3.35,-3.41,3.36,-3.40,3.40,3.50,3.40,6.75,6.75,6.76
56.86,3.37,-3.35,3.37,-3.34,3.34,3.45,3.38,6.71,6.71,6.72
57.42,3.39,-3.28,3.40,-3.28,3.28,3.39,3.36,6.67,6.67,6.67
58.00,3.41,-3.22,3.42,-3.22,3.22,3.34,3.34,6.63,6.64,6.63
58.58,3.44,-3.16,3.44,-3.16,3.16,3.29,3.32,6.60,6.60,6.60
59.16,3.46,-3.11,3.47,-3.10,3.09,3.23,3.29,6.56,6.56,6.57
59.76,3.48,-3.04,3.49,-3.04,3.03,3.18,3.26,6.51,6.51,6.52
60.35,3.50,-2.97,3.50,-2.97,2.96,3.12,3.23,6.47,6.47,6.47
60.96,3.51,-2.90,3.51,-2.90,2.90,3.07,3.20,6.41,6.41,6.41
61.57,3.51,-2.84,3.52,-2.83,2.84,3.01,3.17,6.36,6.36,6.35
62.18,3.51,-2.78,3.51,-2.78,2.79,2.96,3.13,6.30,6.30,6.29
62.80,3.50,-2.73,3.51,-2.73,2.74,2.90,3.09,6.24,6.24,6.23
63.43,3.49,-2.69,3.50,-2.68,2.69,2.85,3.05,6.19,6.19,6.18
64.07,3.48,-2.65,3.48,-2.65,2.65,2.79,3.01,6.14,6.13,6.13
64.71,3.46,-2.62,3.46,-2.62,2.62,2.74,2.96,6.08,6.08,6.08
65.35,3.43,-2.59,3.44,-2.59,2.59,2.68,2.91,6.02,6.02,6.02
66.01,3.40,-2.57,3.41,-2.56,2.56,2.63,2.86,5.96,5.97,5.97
66.67,3.38,-2.55,3.38,-2.54,2.53,2.57,2.81,5.92,5.92,5.93
67.33,3.36,-2.50,3.36,-2.51,2.51,2.52,2.75,5.87,5.87,5.86
68.01,3.33,-2.48,3.34,-2.48,2.48,2.46,2.69,5.81,5.82,5.81
68.69,3.31,-2.45,3.31,-2.45,2.45,2.41,2.64,5.76,5.76,5.76
69.37,3.28,-2.43,3.29,-2.42,2.41,2.36,2.57,5.70,5.70,5.71
70.07,3.26,-2.39,3.27,-2.38,2.38,2.30,2.51,5.64,5.64,5.65
70.77,3.24,-2.34,3.24,-2.35,2.34,2.25,2.45,5.59,5.59,5.58
71.48,3.22,-2.31,3.22,-2.30,2.30,2.19,2.38,5.53,5.53,5.53
72.19,3.20,-2.27,3.21,-2.26,2.27,2.14,2.32,5.47,5.47,5.47
72.91,3.18,-2.22,3.19,-2.22,2.22,2.09,2.25,5.41,5.41,5.40
73.64,3.17,-2.18,3.17,-2.18,2.18,2.03,2.18,5.36,5.35,5.35
74.38,3.15,-2.14,3.16,-2.14,2.14,1.98,2.12,5.29,5.29,5.29
75.12,3.14,-2.10,3.15,-2.09,2.09,1.93,2.05,5.23,5.23,5.24
75.87,3.13,-2.06,3.14,-2.05,2.04,1.88,1.98,5.17,5.18,5.19
76.63,3.14,-1.99,3.14,-2.00,1.99,1.82,1.91,5.13,5.13,5.13
77.40,3.14,-1.95,3.15,-1.94,1.94,1.77,1.85,5.08,5.09,5.09
78.17,3.15,-1.88,3.16,-1.88,1.89,1.72,1.78,5.04,5.04,5.03
78.95,3.16,-1.83,3.16,-1.83,1.83,1.67,1.71,5.00,4.99,4.99
79.74,3.16,-1.78,3.17,-1.77,1.78,1.62,1.65,4.94,4.95,4.94
80.54,3.16,-1.73,3.17,-1.72,1.73,1.57,1.58,4.89,4.89,4.89
81.35,3.16,-1.67,3.16,-1.68,1.68,1.52,1.51,4.84,4.84,4.83
82.16,3.16,-1.64,3.16,-1.63,1.62,1.47,1.45,4.79,4.79,4.80
82.98,3.16,-1.58,3.16,-1.58,1.57,1.42,1.39,4.74,4.74,4.74
83.81,3.16,-1.53,3.16,-1.52,1.52,1.37,1.32,4.68,4.68,4.69
84.65,3.16,-1.47,3.16,-1.47,1.47,1.32,1.26,4.63,4.63,4.63
85.50,3.16,-1.41,3.16,-1.41,1.41,1.27,1.20,4.58,4.58,4.57
86.35,3.16,-1.36,3.16,-1.36,1.36,1.22,1.14,4.52,4.52,4.52
87.22,3.16,-1.31,3.16,-1.30,1.30,1.18,1.08,4.47,4.47,4.47
88.09,3.16,-1.25,3.16,-1.25,1.24,1.13,1.02,4.41,4.41,4.41
88.97,3.16,-1.19,3.16,-1.19,1.19,1.08,0.96,4.35,4.35,4.35
89.86,3.16,-1.14,3.16,-1.13,1.13,1.03,0.90,4.30,4.30,4.30
90.76,3.16,-1.08,3.16,-1.07,1.08,0.99,0.84,4.24,4.24,4.24
91.66,3.16,-1.01,3.16,-1.01,1.02,0.94,0.79,4.18,4.18,4.17
92.58,3.16,-0.96,3.16,-0.96,0.96,0.89,0.73,4.12,4.12,4.12
93.51,3.16,-0.91,3.16,-0.90,0.90,0.85,0.67,4.06,4.06,4.07
94.44,3.16,-0.85,3.16,-0.84,0.83,0.80,0.62,4.00,4.00,4.01
95.39,3.16,-0.78,3.16,-0.78,0.77,0.75,0.57,3.94,3.94,3.94
96.34,3.16,-0.71,3.16,-0.71,0.71,0.71,0.51,3.87,3.87,3.87
97.30,3.16,-0.65,3.16,-0.64,0.65,0.66,0.46,3.81,3.81,3.81
98.28,3.16,-0.58,3.16,-0.58,0.58,0.62,0.41,3.75,3.75,3.74
99.26,3.16,-0.52,3.16,-0.52,0.52,0.57,0.36,3.69,3.69,3.68
100.25,3.16,-0.46,3.16,-0.46,0.46,0.53,0.30,3.63,3.63,3.62
101.25,3.16,-0.41,3.16,-0.40,0.40,0.48,0.25,3.57,3.57,3.57
102.27,3.16,-0.35,3.16,-0.35,0.34,0.43,0.20,3.51,3.51,3.51
103.29,3.16,-0.29,3.16,-0.29,0.29,0.39,0.16,3.45,3.45,3.45
104.32,3.16,-0.24,3.16,-0.23,0.23,0.34,0.11,3.40,3.40,3.40
105.37,3.16,-0.18,3.16,-0.18,0.18,0.30,0.06,3.34,3.34,3.34
106.42,3.16,-0.13,3.16,-0.12,0.12,0.25,0.01,3.29,3.29,3.29
107.48,3.16,-0.07,3.16,-0.07,0.07,0.21,-0.03,3.23,3.23,3.23
108.56,3.16,-0.02,3.16,-0.01,0.01,0.17,-0.08,3.18,3.18,3.18
109.64,3.16,0.04,3.16,0.05,-0.04,0.12,-0.13,3.12,3.12,3.12
110.74,3.16,0.10,3.16,0.10,-0.10,0.08,-0.17,3.06,3.06,3.06
111.85,3.16,0.16,3.16,0.16,-0.17,0.03,-0.21,3.00,2.99,3.00
112.97,3.16,0.21,3.16,0.22,-0.23,-0.01,-0.26,2.93,2.93,2.95
114.10,3.16,0.27,3.17,0.29,-0.30,-0.06,-0.30,2.87,2.87,2.89
115.24,3.18,0.37,3.18,0.36,-0.36,-0.10,-0.34,2.82,2.82,2.81
116.39,3.19,0.44,3.19,0.44,-0.42,-0.15,-0.38,2.77,2.76,2.75
117.55,3.18,0.49,3.19,0.50,-0.48,-0.19,-0.42,2.71,2.71,2.69
118.73,3.17,0.54,3.18,0.54,-0.53,-0.24,-0.46,2.65,2.65,2.63
119.92,3.16,0.57,3.16,0.57,-0.57,-0.28,-0.50,2.59,2.59,2.59
121.12,3.13,0.59,3.14,0.61,-0.61,-0.33,-0.53,2.53,2.54,2.54
122.33,3.12,0.64,3.12,0.63,-0.64,-0.38,-0.57,2.49,2.49,2.48
123.55,3.09,0.66,3.09,0.66,-0.66,-0.42,-0.60,2.44,2.43,2.43
124.79,3.05,0.67,3.06,0.68,-0.68,-0.47,-0.64,2.38,2.38,2.38
126.03,3.01,0.69,3.02,0.70,-0.70,-0.51,-0.67,2.31,2.32,2.32
127.29,2.98,0.71,2.98,0.72,-0.72,-0.56,-0.70,2.26,2.26,2.27
128.57,2.95,0.75,2.95,0.74,-0.74,-0.60,-0.74,2.21,2.21,2.20
129.85,2.91,0.76,2.92,0.77,-0.77,-0.65,-0.77,2.15,2.15,2.15
131.15,2.88,0.79,2.89,0.79,-0.79,-0.70,-0.80,2.09,2.09,2.09
132.46,2.86,0.82,2.86,0.82,-0.82,-0.74,-0.83,2.04,2.04,2.04
133.79,2.83,0.85,2.84,0.86,-0.86,-0.79,-0.86,1.98,1.98,1.98
135.12,2.82,0.89,2.82,0.89,-0.90,-0.84,-0.88,1.92,1.92,1.93
136.48,2.81,0.93,2.82,0.94,-0.95,-0.89,-0.91,1.87,1.87,1.88
137.84,2.81,0.98,2.82,0.99,-1.00,-0.93,-0.94,1.82,1.82,1.83
139.22,2.82,1.05,2.82,1.05,-1.05,-0.98,-0.97,1.78,1.78,1.77
140.61,2.83,1.10,2.83,1.11,-1.10,-1.03,-1.00,1.73,1.73,1.73
142.02,2.84,1.17,2.84,1.16,-1.16,-1.08,-1.03,1.68,1.68,1.67
143.44,2.84,1.21,2.85,1.22,-1.22,-1.13,-1.05,1.63,1.63,1.63
144.87,2.85,1.26,2.86,1.27,-1.27,-1.17,-1.08,1.59,1.59,1.59
146.32,2.86,1.32,2.86,1.32,-1.32,-1.22,-1.11,1.55,1.55,1.54
147.78,2.86,1.36,2.86,1.36,-1.36,-1.27,-1.14,1.51,1.50,1.50
149.26,2.85,1.40,2.85,1.40,-1.39,-1.32,-1.17,1.46,1.46,1.45
150.75,2.83,1.42,2.84,1.43,-1.42,-1.37,-1.20,1.41,1.42,1.41
152.26,2.82,1.45,2.82,1.45,-1.45,-1.42,-1.23,1.38,1.37,1.37
153.78,2.79,1.46,2.79,1.46,-1.47,-1.47,-1.26,1.33,1.33,1.33
155.32,2.76,1.47,2.77,1.48,-1.48,-1.52,-1.30,1.28,1.28,1.29
156.88,2.72,1.48,2.73,1.49,-1.49,-1.57,-1.33,1.23,1.24,1.24
158.44,2.70,1.51,2.70,1.50,-1.50,-1.62,-1.37,1.20,1.19,1.19
160.03,2.65,1.50,2.67,1.52,-1.51,-1.67,-1.40,1.15,1.16,1.15
161.63,2.63,1.52,2.63,1.52,-1.52,-1.72,-1.44,1.12,1.11,1.11
163.24,2.60,1.54,2.59,1.53,-1.53,-1.77,-1.48,1.08,1.07,1.06
164.88,2.54,1.53,2.56,1.54,-1.54,-1.82,-1.52,1.00,1.02,1.01
166.53,2.52,1.56,2.52,1.56,-1.56,-1.87,-1.56,0.96,0.96,0.96
168.19,2.50,1.57,2.50,1.58,-1.59,-1.92,-1.60,0.91,0.91,0.93
169.87,2.48,1.61,2.49,1.61,-1.63,-1.97,-1.65,0.86,0.86,0.87
171.57,2.48,1.66,2.49,1.66,-1.68,-2.03,-1.69,0.81,0.81,0.82
173.29,2.49,1.71,2.50,1.73,-1.74,-2.08,-1.74,0.76,0.77,0.78
175.02,2.53,1.80,2.53,1.80,-1.80,-2.13,-1.79,0.73,0.73,0.73
176.77,2.57,1.89,2.57,1.89,-1.88,-2.18,-1.83,0.70,0.69,0.68
178.54,2.60,1.96,2.60,1.97,-1.96,-2.23,-1.89,0.65,0.65,0.64
180.32,2.63,2.05,2.64,2.05,-2.04,-2.28,-1.94,0.60,0.60,0.58
182.13,2.66,2.11,2.67,2.12,-2.12,-2.33,-1.99,0.55,0.55,0.55
183.95,2.70,2.20,2.70,2.20,-2.19,-2.37,-2.05,0.51,0.51,0.50
185.79,2.73,2.28,2.73,2.27,-2.27,-2.42,-2.11,0.47,0.46,0.45
187.65,2.75,2.34,2.76,2.35,-2.34,-2.47,-2.16,0.41,0.41,0.41
189.52,2.77,2.40,2.78,2.41,-2.42,-2.52,-2.22,0.36,0.36,0.37
191.42,2.80,2.47,2.80,2.47,-2.49,-2.56,-2.28,0.32,0.32,0.33
193.33,2.83,2.54,2.84,2.55,-2.56,-2.61,-2.35,0.28,0.28,0.29
195.27,2.87,2.63,2.87,2.63,-2.63,-2.66,-2.41,0.25,0.24,0.24
197.22,2.90,2.71,2.90,2.70,-2.69,-2.70,-2.47,0.21,0.21,0.19
199.19,2.92,2.76,2.93,2.77,-2.76,-2.74,-2.54,0.16,0.17,0.16
201.18,2.95,2.83,2.96,2.83,-2.83,-2.79,-2.60,0.13,0.13,0.12
203.19,2.98,2.89,2.98,2.89,-2.89,-2.83,-2.67,0.09,0.09,0.09
205.23,3.01,2.94,3.01,2.95,-2.96,-2.87,-2.74,0.06,0.06,0.07
207.28,3.04,3.00,3.04,3.01,-3.02,-2.91,-2.80,0.03,0.03,0.04
209.35,3.07,3.07,3.07,3.07,-3.08,-2.95,-2.87,-0.00,-0.00,0.00
211.44,3.10,3.13,3.11,3.13,-3.13,-2.98,-2.93,-0.03,-0.03,-0.03
213.56,3.13,3.18,3.14,3.19,-3.19,-3.02,-3.00,-0.06,-0.05,-0.05
215.69,3.16,3.24,3.16,3.24,-3.24,-3.05,-3.06,-0.08,-0.08,-0.08
217.85,3.18,3.29,3.18,3.29,-3.29,-3.09,-3.12,-0.10,-0.11,-0.11
220.03,3.19,3.33,3.20,3.34,-3.33,-3.12,-3.18,-0.13,-0.13,-0.14
222.23,3.20,3.37,3.20,3.37,-3.36,-3.14,-3.24,-0.15,-0.15,-0.17
224.45,3.20,3.38,3.20,3.38,-3.38,-3.17,-3.30,-0.17,-0.18,-0.18
226.70,3.18,3.39,3.19,3.39,-3.39,-3.20,-3.35,-0.21,-0.20,-0.21
228.96,3.16,3.38,3.17,3.39,-3.40,-3.22,-3.40,-0.23,-0.23,-0.22
231.25,3.15,3.39,3.15,3.39,-3.40,-3.24,-3.45,-0.24,-0.25,-0.24
233.57,3.13,3.39,3.13,3.39,-3.39,-3.26,-3.49,-0.25,-0.26,-0.26
235.90,3.09,3.36,3.10,3.38,-3.37,-3.28,-3.53,-0.28,-0.27,-0.27
238.26,3.07,3.37,3.07,3.36,-3.36,-3.29,-3.56,-0.28,-0.29,-0.30
240.64,3.04,3.33,3.04,3.34,-3.34,-3.31,-3.59,-0.29,-0.30,-0.29
243.05,3.00,3.31,3.01,3.32,-3.31,-3.32,-3.61,-0.31,-0.31,-0.31
245.48,2.97,3.29,2.97,3.29,-3.29,-3.33,-3.63,-0.31,-0.32,-0.32
247.93,2.93,3.26,2.94,3.26,-3.26,-3.33,-3.64,-0.33,-0.32,-0.33
250.41,2.91,3.23,2.91,3.23,-3.24,-3.34,-3.65,-0.32,-0.33,-0.32
252.92,2.87,3.20,2.88,3.21,-3.21,-3.34,-3.65,-0.34,-0.33,-0.33
255.45,2.85,3.19,2.86,3.19,-3.19,-3.34,-3.65,-0.34,-0.34,-0.34
258.00,2.83,3.17,2.83,3.17,-3.18,-3.34,-3.64,-0.35,-0.35,-0.34
260.58,2.82,3.16,2.82,3.16,-3.17,-3.33,-3.63,-0.35,-0.35,-0.34
263.19,2.81,3.15,2.82,3.16,-3.17,-3.33,-3.61,-0.36,-0.35,-0.34
265.82,2.82,3.17,2.82,3.17,-3.18,-3.32,-3.58,-0.35,-0.35,-0.35
268.48,2.83,3.18,2.83,3.18,-3.18,-3.31,-3.55,-0.35,-0.35,-0.35
271.16,2.84,3.19,2.85,3.19,-3.20,-3.30,-3.52,-0.35,-0.35,-0.35
273.87,2.85,3.20,2.86,3.21,-3.21,-3.28,-3.49,-0.35,-0.35,-0.35
276.61,2.86,3.21,2.86,3.22,-3.21,-3.27,-3.45,-0.35,-0.35,-0.35
279.38,2.86,3.23,2.86,3.23,-3.21,-3.25,-3.41,-0.35,-0.35,-0.37
282.17,2.85,3.22,2.86,3.22,-3.21,-3.23,-3.36,-0.35,-0.35,-0.37
284.99,2.84,3.20,2.84,3.21,-3.20,-3.21,-3.31,-0.35,-0.35,-0.36
287.84,2.82,3.17,2.82,3.18,-3.18,-3.18,-3.26,-0.35,-0.35,-0.35
290.72,2.79,3.15,2.80,3.15,-3.15,-3.16,-3.21,-0.35,-0.35,-0.36
293.63,2.76,3.11,2.77,3.12,-3.12,-3.13,-3.16,-0.35,-0.35,-0.35
296.57,2.73,3.07,2.73,3.08,-3.08,-3.10,-3.11,-0.34,-0.34,-0.34
299.53,2.70,3.04,2.70,3.03,-3.04,-3.08,-3.06,-0.33,-0.34,-0.34
302.53,2.66,2.98,2.67,3.00,-3.00,-3.04,-3.00,-0.33,-0.33,-0.32
305.55,2.63,2.96,2.63,2.96,-2.96,-3.01,-2.95,-0.32,-0.33,-0.33
308.61,2.60,2.92,2.60,2.92,-2.92,-2.98,-2.90,-0.31,-0.32,-0.32
311.69,2.56,2.87,2.57,2.89,-2.88,-2.95,-2.84,-0.32,-0.31,-0.31
314.81,2.55,2.86,2.55,2.85,-2.85,-2.91,-2.79,-0.30,-0.31,-0.31
317.96,2.52,2.82,2.52,2.82,-2.83,-2.88,-2.74,-0.30,-0.31,-0.30
321.14,2.50,2.79,2.51,2.80,-2.81,-2.84,-2.69,-0.31,-0.30,-0.29
324.35,2.49,2.78,2.50,2.78,-2.80,-2.80,-2.64,-0.30,-0.30,-0.29
327.59,2.50,2.76,2.50,2.77,-2.79,-2.77,-2.60,-0.28,-0.29,-0.26
330.87,2.51,2.78,2.51,2.78,-2.78,-2.73,-2.55,-0.27,-0.27,-0.27
334.18,2.52,2.78,2.53,2.78,-2.78,-2.69,-2.51,-0.25,-0.25,-0.26
337.52,2.53,2.79,2.53,2.78,-2.77,-2.65,-2.46,-0.23,-0.24,-0.26
340.90,2.52,2.76,2.53,2.77,-2.76,-2.61,-2.42,-0.23,-0.23,-0.24
344.30,2.51,2.74,2.51,2.75,-2.74,-2.57,-2.39,-0.23,-0.23,-0.23
347.75,2.49,2.72,2.50,2.72,-2.72,-2.53,-2.35,-0.23,-0.22,-0.23
351.23,2.47,2.70,2.47,2.69,-2.69,-2.49,-2.31,-0.22,-0.22,-0.23
354.74,2.44,2.64,2.44,2.65,-2.65,-2.45,-2.28,-0.21,-0.21,-0.20
358.28,2.40,2.61,2.41,2.62,-2.61,-2.41,-2.25,-0.21,-0.20,-0.21
361.87,2.37,2.57,2.37,2.57,-2.57,-2.37,-2.22,-0.20,-0.20,-0.20
365.49,2.34,2.53,2.34,2.53,-2.53,-2.33,-2.19,-0.18,-0.19,-0.19
369.14,2.30,2.47,2.31,2.48,-2.48,-2.28,-2.16,-0.18,-0.18,-0.17
372.83,2.27,2.44,2.27,2.44,-2.44,-2.24,-2.14,-0.17,-0.17,-0.17
376.56,2.23,2.40,2.24,2.40,-2.41,-2.20,-2.12,-0.17,-0.17,-0.17
380.33,2.21,2.37,2.21,2.37,-2.38,-2.16,-2.10,-0.16,-0.16,-0.16
384.13,2.19,2.33,2.19,2.34,-2.35,-2.12,-2.08,-0.16,-0.16,-0.14
387.97,2.18,2.32,2.19,2.32,-2.34,-2.08,-2.06,-0.15,-0.15,-0.14
391.85,2.18,2.31,2.19,2.32,-2.32,-2.04,-2.04,-0.14,-0.14,-0.13
395.77,2.19,2.31,2.19,2.31,-2.31,-2.00,-2.03,-0.12,-0.12,-0.12
399.73,2.20,2.31,2.20,2.30,-2.30,-1.96,-2.01,-0.10,-0.10,-0.11
403.72,2.20,2.28,2.20,2.30,-2.29,-1.93,-2.00,-0.08,-0.08,-0.08
407.76,2.19,2.28,2.20,2.28,-2.27,-1.89,-1.99,-0.07,-0.07,-0.09
411.84,2.18,2.26,2.18,2.25,-2.24,-1.85,-1.98,-0.06,-0.06,-0.08
415.96,2.15,2.21,2.16,2.23,-2.21,-1.81,-1.97,-0.06,-0.06,-0.06
420.12,2.12,2.18,2.13,2.18,-2.18,-1.77,-1.96,-0.06,-0.05,-0.06
424.32,2.09,2.14,2.09,2.13,-2.14,-1.74,-1.95,-0.05,-0.05,-0.05
428.56,2.05,2.08,2.06,2.09,-2.10,-1.70,-1.95,-0.04,-0.04,-0.03
432.85,2.02,2.04,2.02,2.05,-2.06,-1.66,-1.94,-0.03,-0.03,-0.02
437.18,1.99,2.02,1.99,2.01,-2.01,-1.63,-1.93,-0.02,-0.02,-0.03
441.55,1.95,1.97,1.96,1.98,-1.97,-1.59,-1.92,-0.01,-0.01,-0.02
445.96,1.92,1.93,1.92,1.94,-1.93,-1.56,-1.92,-0.00,-0.00,-0.01
450.42,1.89,1.89,1.90,1.90,-1.90,-1.52,-1.91,-0.00,0.00,0.00
454.93,1.87,1.86,1.87,1.86,-1.87,-1.49,-1.90,0.01,0.00,0.01
459.48,1.85,1.83,1.86,1.83,-1.85,-1.46,-1.89,0.01,0.01,0.02
464.07,1.84,1.80,1.85,1.81,-1.83,-1.42,-1.88,0.01,0.02,0.04
468.71,1.85,1.80,1.85,1.81,-1.82,-1.39,-1.87,0.03,0.03,0.05
473.40,1.86,1.81,1.87,1.81,-1.81,-1.36,-1.85,0.05,0.05,0.05
478.13,1.88,1.82,1.88,1.82,-1.81,-1.32,-1.84,0.08,0.07,0.06
482.91,1.88,1.81,1.89,1.82,-1.80,-1.29,-1.83,0.08,0.08,0.07
487.74,1.88,1.80,1.89,1.80,-1.79,-1.26,-1.81,0.10,0.10,0.08
492.62,1.87,1.78,1.87,1.78,-1.77,-1.23,-1.79,0.10,0.10,0.09
497.55,1.85,1.75,1.85,1.75,-1.74,-1.20,-1.77,0.11,0.11,0.10
502.52,1.82,1.71,1.83,1.71,-1.71,-1.17,-1.75,0.12,0.12,0.11
507.55,1.79,1.66,1.80,1.67,-1.67,-1.14,-1.72,0.13,0.13,0.13
512.62,1.76,1.62,1.76,1.62,-1.62,-1.11,-1.70,0.14,0.14,0.14
517.75,1.72,1.56,1.73,1.57,-1.57,-1.09,-1.67,0.15,0.15,0.16
522.93,1.69,1.52,1.69,1.52,-1.53,-1.06,-1.64,0.17,0.17,0.17
528.16,1.66,1.48,1.66,1.48,-1.48,-1.03,-1.61,0.18,0.18,0.18
533.44,1.62,1.43,1.63,1.44,-1.44,-1.00,-1.58,0.18,0.19,0.19
538.77,1.59,1.39,1.60,1.40,-1.40,-0.98,-1.55,0.19,0.19,0.20
