frequency,raw,error,smoothed,error_smoothed,equalization,parametric_eq,fixed_band_eq,equalized_raw,equalized_smoothed,target
20.00,-1.14,-8.23,-1.15,-8.27,8.27,6.00,0.90,7.12,7.11,7.09
20.20,-0.92,-8.01,-0.92,-8.03,8.03,5.80,0.93,7.11,7.11,7.09
20.40,-0.70,-7.79,-0.70,-7.80,7.80,5.60,0.96,7.10,7.10,7.09
20.61,-0.49,-7.58,-0.48,-7.57,7.57,5.39,0.98,7.08,7.09,7.09
20.81,-0.26,-7.35,-0.26,-7.34,7.34,5.18,1.01,7.08,7.08,7.09
21.02,-0.05,-7.14,-0.04,-7.11,7.11,4.97,1.04,7.06,7.07,7.09
21.23,0.17,-6.90,0.17,-6.89,6.89,4.77,1.07,7.06,7.06,7.07
21.44,0.37,-6.69,0.38,-6.67,6.67,4.57,1.10,7.04,7.04,7.06
21.66,0.58,-6.47,0.58,-6.45,6.45,4.37,1.14,7.03,7.03,7.04
21.87,0.78,-6.24,0.78,-6.23,6.23,4.18,1.17,7.02,7.01,7.02
22.09,0.99,-6.02,0.98,-6.02,6.02,4.00,1.20,7.01,7.00,7.01
22.31,1.18,-5.80,1.17,-5.81,5.81,3.82,1.24,6.99,6.98,6.98
22.54,1.36,-5.60,1.36,-5.60,5.60,3.66,1.27,6.96,6.96,6.96
22.76,1.56,-5.38,1.55,-5.39,5.39,3.49,1.31,6.95,6.94,6.94
22.99,1.74,-5.17,1.73,-5.18,5.18,3.34,1.35,6.92,6.91,6.91
23.22,1.92,-4.96,1.92,-4.98,4.98,3.19,1.38,6.89,6.89,6.88
23.45,2.10,-4.75,2.09,-4.78,4.78,3.05,1.42,6.88,6.87,6.85
23.69,2.26,-4.59,2.27,-4.58,4.58,2.92,1.46,6.84,6.85,6.84
23.92,2.44,-4.38,2.44,-4.39,4.39,2.79,1.50,6.83,6.83,6.82
24.16,2.61,-4.20,2.61,-4.20,4.20,2.67,1.54,6.81,6.81,6.81
24.40,2.76,-4.03,2.77,-4.01,4.01,2.55,1.58,6.77,6.79,6.79
24.65,2.93,-3.85,2.94,-3.83,3.83,2.44,1.63,6.76,6.77,6.77
24.89,3.10,-3.65,3.10,-3.65,3.65,2.34,1.67,6.75,6.75,6.75
25.14,3.26,-3.48,3.26,-3.48,3.48,2.24,1.71,6.74,6.74,6.74
25.39,3.42,-3.30,3.41,-3.30,3.30,2.15,1.75,6.73,6.72,6.72
25.65,3.58,-3.13,3.57,-3.13,3.13,2.06,1.79,6.71,6.70,6.71
25.91,3.72,-2.96,3.72,-2.97,2.97,1.97,1.84,6.69,6.69,6.68
26.16,3.88,-2.79,3.87,-2.80,2.80,1.89,1.88,6.68,6.67,6.67
26.43,4.02,-2.65,4.02,-2.64,2.64,1.81,1.92,6.65,6.66,6.66
26.69,4.16,-2.47,4.16,-2.48,2.48,1.74,1.96,6.64,6.64,6.63
26.96,4.30,-2.33,4.31,-2.32,2.32,1.67,1.99,6.62,6.62,6.62
27.23,4.44,-2.18,4.45,-2.16,2.16,1.60,2.03,6.60,6.61,6.61
27.50,4.57,-2.03,4.58,-2.01,2.01,1.54,2.07,6.58,6.60,6.60
27.77,4.71,-1.87,4.71,-1.87,1.87,1.48,2.10,6.58,6.58,6.58
28.05,4.85,-1.72,4.84,-1.73,1.73,1.43,2.13,6.58,6.57,6.57
28.33,4.97,-1.58,4.96,-1.59,1.59,1.37,2.16,6.56,6.55,6.55
28.62,5.10,-1.45,5.09,-1.45,1.45,1.32,2.19,6.55,6.54,6.54
28.90,5.21,-1.31,5.20,-1.33,1.33,1.27,2.21,6.53,6.53,6.52
29.19,5.32,-1.18,5.32,-1.20,1.20,1.22,2.23,6.52,6.52,6.50
29.48,5.43,-1.07,5.42,-1.08,1.08,1.18,2.25,6.51,6.50,6.50
29.78,5.53,-0.96,5.53,-0.96,0.96,1.14,2.27,6.49,6.49,6.49
30.08,5.63,-0.86,5.63,-0.85,0.85,1.10,2.28,6.47,6.47,6.48
30.38,5.71,-0.76,5.72,-0.74,0.74,1.06,2.28,6.45,6.46,6.46
30.68,5.81,-0.64,5.81,-0.64,0.64,1.02,2.29,6.44,6.44,6.45
30.99,5.89,-0.54,5.89,-0.54,0.54,0.98,2.29,6.43,6.43,6.42
31.30,5.97,-0.44,5.96,-0.45,0.45,0.95,2.28,6.42,6.41,6.41
31.61,6.04,-0.36,6.03,-0.36,0.36,0.92,2.27,6.40,6.39,6.40
31.93,6.10,-0.29,6.10,-0.28,0.28,0.89,2.26,6.38,6.38,6.38
32.24,6.16,-0.19,6.15,-0.20,0.20,0.86,2.25,6.36,6.36,6.35
32.57,6.22,-0.11,6.21,-0.13,0.13,0.83,2.23,6.35,6.34,6.33
32.89,6.26,-0.06,6.25,-0.06,0.06,0.80,2.20,6.32,6.32,6.32
33.22,6.30,0.01,6.29,-0.00,0.00,0.77,2.18,6.30,6.30,6.29
33.55,6.33,0.05,6.33,0.05,-0.05,0.75,2.15,6.27,6.28,6.28
33.89,6.36,0.11,6.36,0.10,-0.10,0.73,2.12,6.25,6.25,6.25
34.23,6.39,0.16,6.38,0.15,-0.15,0.70,2.08,6.24,6.23,6.23
34.57,6.41,0.20,6.40,0.19,-0.19,0.68,2.04,6.22,6.21,6.21
34.92,6.42,0.23,6.42,0.23,-0.23,0.66,2.00,6.19,6.19,6.19
35.27,6.43,0.26,6.43,0.26,-0.26,0.64,1.96,6.17,6.17,6.17
35.62,6.44,0.29,6.44,0.29,-0.29,0.62,1.91,6.15,6.15,6.15
35.97,6.44,0.31,6.44,0.31,-0.31,0.60,1.87,6.13,6.13,6.13
36.33,6.45,0.34,6.45,0.34,-0.34,0.58,1.82,6.11,6.11,6.11
36.70,6.44,0.35,6.44,0.36,-0.36,0.56,1.77,6.08,6.09,6.09
37.06,6.44,0.37,6.44,0.37,-0.37,0.55,1.72,6.07,6.07,6.07
37.43,6.44,0.39,6.44,0.39,-0.39,0.53,1.67,6.05,6.05,6.05
37.81,6.43,0.40,6.43,0.40,-0.40,0.51,1.62,6.03,6.03,6.03
38.19,6.42,0.42,6.42,0.41,-0.41,0.50,1.57,6.01,6.01,6.00
38.57,6.40,0.41,6.41,0.42,-0.42,0.48,1.52,5.98,5.99,5.99
38.95,6.39,0.43,6.39,0.42,-0.42,0.47,1.47,5.96,5.97,5.96
39.34,6.38,0.44,6.37,0.43,-0.43,0.46,1.41,5.95,5.95,5.94
39.74,6.36,0.44,6.36,0.43,-0.43,0.44,1.36,5.93,5.93,5.92
40.14,6.34,0.43,6.33,0.43,-0.43,0.43,1.31,5.91,5.91,5.91
40.54,6.31,0.42,6.31,0.42,-0.42,0.42,1.26,5.89,5.89,5.89
40.94,6.29,0.42,6.29,0.41,-0.41,0.41,1.21,5.87,5.87,5.87
41.35,6.26,0.42,6.26,0.41,-0.41,0.40,1.16,5.85,5.85,5.84
41.76,6.24,0.40,6.23,0.40,-0.40,0.39,1.11,5.84,5.83,5.84
42.18,6.21,0.39,6.20,0.38,-0.38,0.37,1.06,5.82,5.82,5.82
42.60,6.17,0.37,6.17,0.37,-0.37,0.36,1.01,5.80,5.80,5.80
43.03,6.13,0.34,6.13,0.36,-0.36,0.35,0.96,5.77,5.78,5.79
43.46,6.10,0.34,6.10,0.34,-0.34,0.35,0.91,5.76,5.76,5.76
43.90,6.07,0.33,6.06,0.32,-0.32,0.34,0.86,5.75,5.74,5.74
44.33,6.03,0.31,6.02,0.30,-0.30,0.33,0.82,5.73,5.72,5.72
44.78,5.98,0.28,5.99,0.28,-0.28,0.32,0.77,5.70,5.71,5.70
45.23,5.95,0.28,5.95,0.26,-0.26,0.31,0.73,5.69,5.69,5.67
45.68,5.90,0.25,5.90,0.24,-0.24,0.30,0.68,5.66,5.67,5.65
46.13,5.87,0.23,5.86,0.21,-0.21,0.29,0.64,5.65,5.65,5.64
46.60,5.82,0.19,5.82,0.19,-0.19,0.29,0.59,5.63,5.63,5.63
47.06,5.78,0.17,5.77,0.17,-0.17,0.28,0.55,5.61,5.60,5.61
47.53,5.74,0.15,5.73,0.15,-0.15,0.27,0.51,5.59,5.58,5.59
48.01,5.69,0.11,5.69,0.12,-0.12,0.26,0.47,5.56,5.56,5.58
48.49,5.64,0.09,5.64,0.10,-0.10,0.26,0.43,5.54,5.54,5.55
48.97,5.60,0.08,5.60,0.08,-0.08,0.25,0.39,5.52,5.52,5.52
49.46,5.55,0.06,5.55,0.05,-0.05,0.24,0.35,5.49,5.50,5.49
49.96,5.50,0.04,5.51,0.03,-0.03,0.24,0.31,5.47,5.48,5.46
50.46,5.47,0.02,5.46,0.01,-0.01,0.23,0.27,5.46,5.45,5.45
50.96,5.42,-0.01,5.42,-0.01,0.01,0.23,0.23,5.43,5.43,5.43
51.47,5.38,-0.02,5.37,-0.03,0.03,0.22,0.20,5.41,5.41,5.40
51.99,5.33,-0.05,5.33,-0.05,0.05,0.22,0.16,5.38,5.38,5.38
52.51,5.29,-0.07,5.29,-0.07,0.07,0.21,0.13,5.36,5.36,5.36
53.03,5.25,-0.09,5.25,-0.09,0.09,0.21,0.09,5.33,5.33,5.34
53.56,5.21,-0.10,5.21,-0.10,0.10,0.20,0.06,5.31,5.31,5.31
54.10,5.17,-0.12,5.17,-0.12,0.12,0.20,0.03,5.29,5.29,5.29
54.64,5.13,-0.13,5.13,-0.13,0.13,0.19,-0.00,5.26,5.26,5.26
55.18,5.09,-0.15,5.09,-0.15,0.15,0.19,-0.03,5.24,5.24,5.24
55.74,5.06,-0.15,5.06,-0.16,0.16,0.18,-0.06,5.22,5.22,5.21
56.29,5.02,-0.17,5.02,-0.18,0.18,0.18,-0.09,5.19,5.19,5.19
56.86,4.99,-0.17,4.98,-0.19,0.19,0.17,-0.11,5.17,5.17,5.16
57.42,4.95,-0.19,4.95,-0.20,0.20,0.17,-0.14,5.14,5.15,5.14
58.00,4.92,-0.20,4.92,-0.20,0.20,0.16,-0.16,5.12,5.12,5.12
58.58,4.88,-0.21,4.88,-0.21,0.21,0.16,-0.18,5.09,5.09,5.09
59.16,4.86,-0.21,4.85,-0.22,0.22,0.16,-0.20,5.07,5.07,5.07
59.76,4.82,-0.23,4.82,-0.22,0.22,0.15,-0.22,5.04,5.04,5.05
60.35,4.79,-0.23,4.79,-0.22,0.22,0.15,-0.24,5.01,5.01,5.02
60.96,4.76,-0.24,4.76,-0.23,0.23,0.15,-0.25,4.99,4.99,5.00
61.57,4.73,-0.23,4.73,-0.23,0.23,0.14,-0.27,4.96,4.96,4.96
62.18,4.71,-0.22,4.70,-0.23,0.23,0.14,-0.28,4.94,4.93,4.93
62.80,4.68,-0.22,4.67,-0.23,0.23,0.14,-0.29,4.91,4.91,4.90
63.43,4.65,-0.22,4.65,-0.24,0.24,0.13,-0.30,4.88,4.88,4.87
64.07,4.62,-0.22,4.62,-0.24,0.24,0.13,-0.30,4.85,4.85,4.84
64.71,4.60,-0.22,4.59,-0.24,0.24,0.13,-0.31,4.84,4.83,4.82
65.35,4.56,-0.24,4.56,-0.24,0.24,0.12,-0.31,4.80,4.80,4.80
66.01,4.54,-0.24,4.54,-0.24,0.24,0.12,-0.31,4.78,4.78,4.78
66.67,4.51,-0.24,4.51,-0.24,0.24,0.12,-0.31,4.75,4.75,4.75
67.33,4.49,-0.24,4.48,-0.24,0.24,0.11,-0.31,4.73,4.73,4.73
68.01,4.46,-0.24,4.46,-0.24,0.24,0.11,-0.31,4.70,4.70,4.70
68.69,4.43,-0.25,4.43,-0.25,0.25,0.11,-0.30,4.67,4.68,4.68
69.37,4.40,-0.25,4.41,-0.25,0.25,0.11,-0.30,4.64,4.65,4.65
70.07,4.38,-0.24,4.38,-0.25,0.25,0.10,-0.29,4.62,4.63,4.62
70.77,4.36,-0.24,4.35,-0.25,0.25,0.10,-0.28,4.60,4.60,4.60
71.48,4.33,-0.24,4.32,-0.24,0.24,0.10,-0.28,4.57,4.57,4.57
72.19,4.30,-0.24,4.30,-0.24,0.24,0.10,-0.27,4.54,4.54,4.54
72.91,4.28,-0.22,4.27,-0.23,0.23,0.09,-0.26,4.51,4.50,4.50
73.64,4.24,-0.23,4.24,-0.23,0.23,0.09,-0.25,4.47,4.47,4.47
74.38,4.21,-0.23,4.21,-0.23,0.23,0.09,-0.24,4.43,4.44,4.44
75.12,4.19,-0.20,4.18,-0.22,0.22,0.09,-0.22,4.41,4.40,4.39
75.87,4.15,-0.21,4.15,-0.21,0.21,0.09,-0.21,4.36,4.36,4.36
76.63,4.12,-0.21,4.12,-0.20,0.20,0.08,-0.20,4.32,4.33,4.33
77.40,4.09,-0.20,4.09,-0.20,0.20,0.08,-0.19,4.28,4.29,4.29
78.17,4.06,-0.17,4.06,-0.19,0.19,0.08,-0.17,4.25,4.25,4.23
78.95,4.03,-0.18,4.03,-0.18,0.18,0.08,-0.16,4.21,4.21,4.21
79.74,3.99,-0.18,3.99,-0.17,0.17,0.08,-0.14,4.16,4.16,4.17
80.54,3.96,-0.16,3.96,-0.16,0.16,0.07,-0.13,4.12,4.12,4.12
81.35,3.93,-0.15,3.92,-0.15,0.15,0.07,-0.12,4.08,4.08,4.08
82.16,3.90,-0.13,3.89,-0.14,0.14,0.07,-0.10,4.04,4.03,4.03
82.98,3.86,-0.13,3.85,-0.14,0.14,0.07,-0.09,3.99,3.99,3.99
83.81,3.82,-0.11,3.81,-0.13,0.13,0.07,-0.07,3.95,3.94,3.93
84.65,3.77,-0.12,3.78,-0.12,0.12,0.07,-0.06,3.89,3.89,3.89
85.50,3.74,-0.11,3.74,-0.11,0.11,0.06,-0.04,3.85,3.85,3.85
86.35,3.70,-0.10,3.69,-0.11,0.11,0.06,-0.03,3.80,3.80,3.80
87.22,3.65,-0.10,3.65,-0.10,0.10,0.06,-0.02,3.75,3.75,3.75
88.09,3.61,-0.08,3.61,-0.09,0.09,0.06,-0.00,3.70,3.70,3.69
88.97,3.56,-0.09,3.56,-0.09,0.09,0.06,0.01,3.65,3.65,3.65
89.86,3.52,-0.08,3.52,-0.08,0.08,0.06,0.03,3.60,3.60,3.60
90.76,3.47,-0.07,3.47,-0.08,0.08,0.05,0.04,3.55,3.55,3.54
91.66,3.42,-0.07,3.42,-0.07,0.07,0.05,0.06,3.49,3.49,3.49
92.58,3.37,-0.06,3.37,-0.07,0.07,0.05,0.07,3.44,3.44,3.43
93.51,3.32,-0.07,3.32,-0.06,0.06,0.05,0.09,3.38,3.39,3.39
94.44,3.28,-0.06,3.27,-0.06,0.06,0.05,0.10,3.34,3.33,3.34
95.39,3.22,-0.06,3.22,-0.06,0.06,0.05,0.11,3.27,3.27,3.28
96.34,3.17,-0.04,3.16,-0.05,0.05,0.05,0.13,3.22,3.22,3.21
97.30,3.11,-0.05,3.11,-0.05,0.05,0.04,0.14,3.16,3.16,3.16
98.28,3.06,-0.04,3.05,-0.05,0.05,0.04,0.16,3.11,3.10,3.10
99.26,3.00,-0.03,3.00,-0.04,0.04,0.04,0.17,3.04,3.04,3.03
100.25,2.94,-0.04,2.94,-0.04,0.04,0.04,0.18,2.98,2.98,2.98
101.25,2.88,-0.04,2.88,-0.04,0.04,0.04,0.20,2.92,2.92,2.92
102.27,2.82,-0.03,2.82,-0.04,0.04,0.04,0.21,2.86,2.86,2.85
103.29,2.76,-0.02,2.76,-0.04,0.04,0.04,0.22,2.79,2.79,2.78
104.32,2.69,-0.04,2.69,-0.03,0.03,0.03,0.24,2.72,2.73,2.73
105.37,2.63,-0.04,2.63,-0.03,0.03,0.03,0.25,2.66,2.66,2.67
106.42,2.56,-0.04,2.57,-0.03,0.03,0.03,0.26,2.59,2.60,2.60
107.48,2.50,-0.03,2.50,-0.03,0.03,0.03,0.27,2.53,2.53,2.53
108.56,2.44,-0.02,2.44,-0.03,0.03,0.03,0.28,2.47,2.47,2.46
109.64,2.37,-0.03,2.37,-0.03,0.03,0.03,0.29,2.40,2.40,2.40
110.74,2.31,-0.03,2.30,-0.03,0.03,0.03,0.30,2.34,2.33,2.34
111.85,2.24,-0.03,2.23,-0.03,0.03,0.02,0.31,2.27,2.26,2.27
112.97,2.17,-0.02,2.16,-0.03,0.03,0.02,0.32,2.20,2.20,2.19
114.10,2.09,-0.04,2.09,-0.03,0.03,0.02,0.33,2.12,2.13,2.13
115.24,2.03,-0.03,2.02,-0.04,0.04,0.02,0.34,2.07,2.06,2.06
116.39,1.96,-0.03,1.95,-0.04,0.04,0.02,0.34,2.00,2.00,1.99
117.55,1.88,-0.04,1.88,-0.05,0.05,0.02,0.35,1.93,1.93,1.92
118.73,1.81,-0.05,1.81,-0.06,0.06,0.02,0.35,1.87,1.87,1.86
119.92,1.74,-0.06,1.73,-0.07,0.07,0.01,0.36,1.81,1.80,1.80
121.12,1.66,-0.08,1.66,-0.08,0.08,0.01,0.36,1.74,1.74,1.74
122.33,1.59,-0.08,1.59,-0.09,0.09,0.01,0.36,1.68,1.68,1.67
123.55,1.52,-0.10,1.51,-0.10,0.10,0.01,0.36,1.62,1.62,1.62
124.79,1.44,-0.12,1.44,-0.12,0.12,0.01,0.36,1.55,1.56,1.56
126.03,1.37,-0.14,1.37,-0.13,0.13,0.01,0.36,1.50,1.50,1.51
127.29,1.30,-0.15,1.30,-0.15,0.15,0.00,0.36,1.44,1.44,1.45
128.57,1.22,-0.16,1.23,-0.16,0.16,0.00,0.36,1.38,1.39,1.38
129.85,1.16,-0.17,1.16,-0.18,0.18,0.00,0.36,1.33,1.33,1.33
131.15,1.09,-0.19,1.09,-0.19,0.19,-0.00,0.35,1.28,1.28,1.28
132.46,1.02,-0.20,1.02,-0.21,0.21,-0.00,0.34,1.23,1.23,1.22
133.79,0.96,-0.22,0.95,-0.23,0.23,-0.01,0.34,1.19,1.18,1.18
135.12,0.89,-0.23,0.89,-0.25,0.25,-0.01,0.33,1.14,1.14,1.12
136.48,0.83,-0.26,0.82,-0.27,0.27,-0.01,0.32,1.10,1.09,1.09
137.84,0.76,-0.29,0.76,-0.29,0.29,-0.01,0.31,1.04,1.05,1.05
139.22,0.71,-0.29,0.70,-0.31,0.31,-0.01,0.30,1.01,1.01,1.00
140.61,0.65,-0.31,0.65,-0.32,0.32,-0.02,0.29,0.97,0.97,0.96
142.02,0.59,-0.35,0.59,-0.34,0.34,-0.02,0.28,0.93,0.94,0.94
143.44,0.54,-0.37,0.54,-0.36,0.36,-0.02,0.27,0.90,0.91,0.91
144.87,0.49,-0.38,0.49,-0.38,0.38,-0.02,0.26,0.87,0.87,0.87
146.32,0.45,-0.39,0.45,-0.40,0.40,-0.03,0.25,0.85,0.84,0.84
147.78,0.40,-0.42,0.40,-0.41,0.41,-0.03,0.24,0.81,0.81,0.82
149.26,0.37,-0.42,0.36,-0.42,0.42,-0.03,0.22,0.79,0.79,0.79
150.75,0.32,-0.43,0.32,-0.44,0.44,-0.04,0.21,0.75,0.76,0.75
152.26,0.29,-0.44,0.29,-0.44,0.44,-0.04,0.20,0.73,0.73,0.73
153.78,0.26,-0.44,0.25,-0.45,0.45,-0.04,0.18,0.71,0.70,0.70
155.32,0.23,-0.45,0.22,-0.45,0.45,-0.05,0.17,0.68,0.68,0.68
156.88,0.20,-0.45,0.20,-0.45,0.45,-0.05,0.15,0.65,0.65,0.65
158.44,0.17,-0.45,0.17,-0.45,0.45,-0.06,0.14,0.62,0.62,0.62
160.03,0.15,-0.44,0.15,-0.45,0.45,-0.06,0.12,0.59,0.59,0.59
161.63,0.13,-0.43,0.13,-0.44,0.44,-0.07,0.11,0.56,0.57,0.56
163.24,0.12,-0.41,0.11,-0.42,0.42,-0.07,0.09,0.54,0.54,0.53
164.88,0.10,-0.41,0.10,-0.41,0.41,-0.08,0.08,0.51,0.51,0.51
166.53,0.09,-0.40,0.09,-0.39,0.39,-0.08,0.06,0.48,0.48,0.49
168.19,0.08,-0.37,0.08,-0.37,0.37,-0.09,0.05,0.45,0.45,0.45
169.87,0.08,-0.34,0.08,-0.34,0.34,-0.10,0.03,0.42,0.42,0.42
171.57,0.08,-0.31,0.08,-0.31,0.31,-0.10,0.02,0.39,0.39,0.39
173.29,0.08,-0.29,0.08,-0.28,0.28,-0.11,0.00,0.36,0.36,0.37
175.02,0.09,-0.24,0.08,-0.24,0.24,-0.12,-0.01,0.33,0.32,0.33
176.77,0.09,-0.20,0.09,-0.20,0.20,-0.13,-0.03,0.29,0.29,0.29
178.54,0.10,-0.15,0.10,-0.16,0.16,-0.14,-0.04,0.26,0.26,0.25
180.32,0.11,-0.11,0.11,-0.12,0.12,-0.15,-0.06,0.22,0.22,0.22
182.13,0.12,-0.07,0.12,-0.07,0.07,-0.16,-0.07,0.19,0.19,0.19
183.95,0.13,-0.02,0.13,-0.02,0.02,-0.17,-0.09,0.15,0.15,0.15
185.79,0.15,0.04,0.15,0.03,-0.03,-0.18,-0.10,0.12,0.12,0.11
187.65,0.17,0.10,0.17,0.08,-0.08,-0.20,-0.12,0.09,0.08,0.07
189.52,0.18,0.14,0.18,0.13,-0.13,-0.21,-0.13,0.05,0.05,0.04
191.42,0.21,0.19,0.20,0.18,-0.18,-0.23,-0.15,0.03,0.02,0.02
193.33,0.23,0.23,0.22,0.23,-0.23,-0.24,-0.16,-0.01,-0.01,0.00
195.27,0.25,0.28,0.25,0.28,-0.28,-0.26,-0.18,-0.04,-0.04,-0.03
197.22,0.27,0.33,0.27,0.33,-0.33,-0.28,-0.19,-0.07,-0.06,-0.06
199.19,0.30,0.41,0.29,0.38,-0.38,-0.30,-0.21,-0.08,-0.09,-0.11
201.18,0.32,0.44,0.32,0.43,-0.43,-0.33,-0.23,-0.11,-0.11,-0.12
203.19,0.34,0.48,0.34,0.48,-0.48,-0.35,-0.24,-0.14,-0.14,-0.14
205.23,0.36,0.52,0.37,0.53,-0.53,-0.38,-0.25,-0.17,-0.16,-0.16
207.28,0.39,0.56,0.39,0.57,-0.57,-0.41,-0.27,-0.18,-0.18,-0.17
209.35,0.42,0.62,0.42,0.62,-0.62,-0.44,-0.28,-0.20,-0.20,-0.20
211.44,0.45,0.67,0.45,0.66,-0.66,-0.47,-0.30,-0.22,-0.22,-0.22
213.56,0.47,0.71,0.47,0.70,-0.70,-0.50,-0.31,-0.24,-0.23,-0.24
215.69,0.50,0.74,0.50,0.74,-0.74,-0.54,-0.33,-0.25,-0.25,-0.24
217.85,0.52,0.77,0.52,0.78,-0.78,-0.58,-0.34,-0.26,-0.26,-0.25
220.03,0.55,0.83,0.55,0.81,-0.81,-0.62,-0.35,-0.27,-0.27,-0.28
222.23,0.58,0.87,0.57,0.84,-0.84,-0.66,-0.36,-0.27,-0.27,-0.29
224.45,0.60,0.88,0.59,0.87,-0.87,-0.70,-0.37,-0.27,-0.28,-0.28
226.70,0.62,0.91,0.61,0.90,-0.90,-0.74,-0.39,-0.28,-0.28,-0.29
228.96,0.64,0.93,0.63,0.92,-0.92,-0.79,-0.40,-0.28,-0.28,-0.29
231.25,0.65,0.93,0.65,0.94,-0.94,-0.82,-0.41,-0.29,-0.28,-0.28
233.57,0.67,0.94,0.67,0.95,-0.95,-0.86,-0.41,-0.28,-0.28,-0.27
235.90,0.68,0.95,0.69,0.95,-0.95,-0.89,-0.42,-0.28,-0.27,-0.27
238.26,0.70,0.97,0.70,0.96,-0.96,-0.92,-0.43,-0.26,-0.26,-0.27
240.64,0.71,0.96,0.71,0.96,-0.96,-0.94,-0.44,-0.25,-0.25,-0.25
243.05,0.73,0.96,0.72,0.95,-0.95,-0.95,-0.44,-0.23,-0.23,-0.23
245.48,0.73,0.94,0.73,0.94,-0.94,-0.95,-0.44,-0.22,-0.21,-0.21
247.93,0.74,0.94,0.73,0.93,-0.93,-0.95,-0.45,-0.19,-0.20,-0.20
250.41,0.75,0.94,0.73,0.91,-0.91,-0.94,-0.45,-0.16,-0.18,-0.19
252.92,0.75,0.90,0.73,0.89,-0.89,-0.91,-0.45,-0.14,-0.16,-0.15
255.45,0.73,0.86,0.73,0.86,-0.86,-0.88,-0.45,-0.13,-0.14,-0.13
258.00,0.73,0.84,0.72,0.83,-0.83,-0.85,-0.45,-0.10,-0.11,-0.11
260.58,0.72,0.81,0.71,0.80,-0.80,-0.81,-0.45,-0.08,-0.09,-0.09
263.19,0.70,0.77,0.69,0.76,-0.76,-0.76,-0.45,-0.06,-0.07,-0.07
265.82,0.68,0.73,0.68,0.72,-0.72,-0.71,-0.45,-0.04,-0.04,-0.05
268.48,0.66,0.68,0.66,0.68,-0.68,-0.66,-0.44,-0.02,-0.02,-0.02
271.16,0.64,0.63,0.64,0.63,-0.63,-0.61,-0.44,0.00,0.01,0.01
273.87,0.61,0.58,0.62,0.59,-0.59,-0.56,-0.43,0.02,0.03,0.03
276.61,0.59,0.53,0.60,0.54,-0.54,-0.51,-0.43,0.04,0.05,0.06
279.38,0.58,0.50,0.58,0.50,-0.50,-0.46,-0.42,0.08,0.08,0.08
282.17,0.55,0.45,0.56,0.45,-0.45,-0.41,-0.41,0.09,0.10,0.10
284.99,0.54,0.41,0.54,0.41,-0.41,-0.36,-0.41,0.13,0.13,0.13
287.84,0.52,0.37,0.52,0.36,-0.36,-0.31,-0.40,0.15,0.16,0.15
290.72,0.51,0.32,0.51,0.32,-0.32,-0.27,-0.39,0.19,0.19,0.19
293.63,0.50,0.29,0.49,0.28,-0.28,-0.23,-0.38,0.22,0.22,0.21
296.57,0.48,0.24,0.48,0.23,-0.23,-0.19,-0.37,0.24,0.25,0.24
299.53,0.47,0.20,0.47,0.19,-0.19,-0.15,-0.36,0.28,0.28,0.27
302.53,0.46,0.17,0.46,0.15,-0.15,-0.11,-0.36,0.31,0.31,0.29
305.55,0.44,0.10,0.45,0.11,-0.11,-0.07,-0.35,0.33,0.34,0.34
308.61,0.44,0.07,0.44,0.07,-0.07,-0.04,-0.34,0.37,0.37,0.37
311.69,0.43,0.02,0.43,0.03,-0.03,-0.00,-0.33,0.40,0.40,0.41
314.81,0.43,-0.01,0.43,-0.01,0.01,0.03,-0.32,0.44,0.44,0.44
317.96,0.42,-0.05,0.42,-0.05,0.05,0.07,-0.31,0.47,0.47,0.47
321.14,0.42,-0.08,0.41,-0.09,0.09,0.10,-0.30,0.50,0.50,0.50
324.35,0.41,-0.11,0.41,-0.12,0.12,0.13,-0.29,0.53,0.53,0.52
327.59,0.40,-0.16,0.40,-0.15,0.15,0.16,-0.28,0.55,0.56,0.56
330.87,0.40,-0.19,0.40,-0.19,0.19,0.19,-0.28,0.59,0.58,0.59
334.18,0.39,-0.22,0.39,-0.22,0.22,0.23,-0.27,0.61,0.61,0.61
337.52,0.39,-0.24,0.38,-0.25,0.25,0.26,-0.26,0.64,0.64,0.63
340.90,0.38,-0.28,0.38,-0.28,0.28,0.29,-0.25,0.66,0.66,0.66
344.30,0.37,-0.31,0.37,-0.32,0.32,0.32,-0.25,0.68,0.68,0.68
347.75,0.36,-0.35,0.36,-0.35,0.35,0.35,-0.24,0.70,0.70,0.71
351.23,0.36,-0.37,0.35,-0.38,0.38,0.39,-0.23,0.74,0.72,0.73
354.74,0.35,-0.39,0.33,-0.41,0.41,0.42,-0.22,0.76,0.74,0.74
358.28,0.33,-0.43,0.32,-0.44,0.44,0.45,-0.22,0.77,0.76,0.76
361.87,0.31,-0.47,0.31,-0.48,0.48,0.49,-0.21,0.79,0.78,0.78
365.49,0.29,-0.52,0.29,-0.51,0.51,0.52,-0.21,0.80,0.80,0.81
369.14,0.28,-0.54,0.28,-0.55,0.55,0.55,-0.20,0.82,0.82,0.82
372.83,0.26,-0.57,0.26,-0.58,0.58,0.59,-0.19,0.84,0.84,0.83
376.56,0.25,-0.60,0.25,-0.61,0.61,0.62,-0.19,0.86,0.86,0.85
380.33,0.24,-0.64,0.24,-0.64,0.64,0.65,-0.18,0.88,0.88,0.88
384.13,0.23,-0.67,0.23,-0.67,0.67,0.68,-0.18,0.90,0.90,0.90
387.97,0.21,-0.71,0.22,-0.70,0.70,0.72,-0.17,0.91,0.92,0.92
391.85,0.21,-0.73,0.21,-0.73,0.73,0.74,-0.17,0.94,0.94,0.94
395.77,0.21,-0.76,0.21,-0.75,0.75,0.77,-0.16,0.96,0.96,0.97
399.73,0.21,-0.78,0.21,-0.77,0.77,0.80,-0.16,0.98,0.98,0.99
403.72,0.21,-0.79,0.21,-0.80,0.80,0.82,-0.15,1.00,1.01,1.00
407.76,0.21,-0.81,0.21,-0.81,0.81,0.84,-0.15,1.02,1.03,1.02
411.84,0.22,-0.83,0.22,-0.83,0.83,0.86,-0.14,1.05,1.05,1.05
415.96,0.24,-0.83,0.23,-0.84,0.84,0.87,-0.14,1.08,1.07,1.07
420.12,0.26,-0.83,0.24,-0.85,0.85,0.88,-0.13,1.11,1.10,1.09
424.32,0.27,-0.85,0.26,-0.86,0.86,0.88,-0.12,1.13,1.12,1.12
428.56,0.29,-0.85,0.28,-0.86,0.86,0.88,-0.12,1.15,1.14,1.14
432.85,0.31,-0.85,0.31,-0.86,0.86,0.88,-0.11,1.17,1.16,1.16
437.18,0.34,-0.85,0.34,-0.85,0.85,0.87,-0.10,1.19,1.19,1.19
441.55,0.36,-0.86,0.37,-0.84,0.84,0.85,-0.10,1.20,1.21,1.22
445.96,0.38,-0.86,0.41,-0.83,0.83,0.83,-0.09,1.21,1.24,1.24
450.42,0.44,-0.81,0.46,-0.81,0.81,0.81,-0.08,1.25,1.27,1.25
454.93,0.50,-0.79,0.51,-0.79,0.79,0.78,-0.07,1.28,1.29,1.29
459.48,0.56,-0.75,0.56,-0.76,0.76,0.75,-0.06,1.31,1.32,1.31
464.07,0.62,-0.72,0.62,-0.72,0.72,0.72,-0.05,1.34,1.35,1.34
468.71,0.69,-0.69,0.69,-0.69,0.69,0.68,-0.04,1.37,1.37,1.38
473.40,0.76,-0.64,0.76,-0.65,0.65,0.64,-0.03,1.40,1.40,1.40
478.13,0.84,-0.59,0.83,-0.60,0.60,0.60,-0.01,1.44,1.43,1.43
482.91,0.91,-0.55,0.91,-0.55,0.55,0.56,0.00,1.46,1.46,1.46
487.74,0.99,-0.50,0.99,-0.50,0.50,0.51,0.02,1.49,1.49,1.49
492.62,1.07,-0.45,1.07,-0.45,0.45,0.47,0.04,1.52,1.52,1.52
497.55,1.16,-0.38,1.15,-0.40,0.40,0.42,0.05,1.56,1.55,1.54
502.52,1.23,-0.35,1.23,-0.35,0.35,0.37,0.07,1.57,1.58,1.58
507.55,1.31,-0.29,1.31,-0.29,0.29,0.33,0.09,1.60,1.60,1.60
512.62,1.39,-0.24,1.39,-0.24,0.24,0.28,0.12,1.63,1.63,1.63
517.75,1.48,-0.18,1.47,-0.19,0.19,0.23,0.14,1.67,1.66,1.66
522.93,1.55,-0.14,1.55,-0.14,0.14,0.19,0.16,1.69,1.69,1.69
528.16,1.63,-0.08,1.62,-0.09,0.09,0.14,0.19,1.72,1.72,1.71
533.44,1.70,-0.04,1.70,-0.04,0.04,0.09,0.21,1.74,1.74,1.74
538.77,1.77,-0.00,1.77,0.00,-0.00,0.05,0.24,1.77,1.77,1.77
544.16,1.84,0.04,1.84,0.04,-0.04,0.01,0.27,1.79,1.80,1.80
549.60,1.91,0.08,1.91,0.08,-0.08,-0.03,0.30,1.83,1.82,1.83
555.10,1.97,0.13,1.97,0.12,-0.12,-0.07,0.33,1.85,1.85,1.84
