frequency,raw,error,smoothed,error_smoothed,equalization,parametric_eq,fixed_band_eq,equalized_raw,equalized_smoothed,target
20.00,11.51,-1.80,11.51,-1.80,1.80,1.46,0.22,13.32,13.32,13.31
20.20,11.54,-1.76,11.55,-1.76,1.76,1.44,0.23,13.30,13.30,13.30
20.40,11.58,-1.71,11.58,-1.71,1.71,1.41,0.23,13.29,13.29,13.29
20.61,11.61,-1.67,11.61,-1.66,1.66,1.39,0.24,13.27,13.28,13.28
20.81,11.65,-1.61,11.65,-1.61,1.62,1.36,0.25,13.27,13.27,13.26
21.02,11.68,-1.57,11.69,-1.57,1.57,1.33,0.26,13.25,13.25,13.25
21.23,11.72,-1.52,11.72,-1.52,1.52,1.31,0.27,13.25,13.25,13.24
21.44,11.76,-1.49,11.76,-1.48,1.48,1.28,0.27,13.24,13.24,13.25
21.66,11.80,-1.43,11.80,-1.43,1.43,1.25,0.28,13.23,13.23,13.23
21.87,11.84,-1.39,11.84,-1.38,1.38,1.22,0.29,13.23,13.23,13.23
22.09,11.88,-1.33,11.88,-1.33,1.34,1.19,0.30,13.22,13.22,13.21
22.31,11.91,-1.29,11.92,-1.29,1.29,1.16,0.31,13.20,13.21,13.20
22.54,11.95,-1.24,11.95,-1.24,1.25,1.13,0.32,13.20,13.20,13.19
22.76,11.98,-1.21,11.98,-1.20,1.20,1.09,0.33,13.19,13.19,13.19
22.99,12.02,-1.16,12.02,-1.16,1.16,1.06,0.34,13.19,13.18,13.18
23.22,12.05,-1.12,12.06,-1.12,1.12,1.03,0.35,13.18,13.18,13.17
23.45,12.09,-1.09,12.09,-1.08,1.08,1.00,0.36,13.18,13.18,13.18
23.69,12.12,-1.05,12.12,-1.05,1.05,0.96,0.37,13.17,13.17,13.17
23.92,12.16,-1.00,12.16,-1.01,1.01,0.93,0.38,13.17,13.17,13.16
24.16,12.19,-0.98,12.20,-0.97,0.97,0.90,0.40,13.16,13.17,13.17
24.40,12.23,-0.94,12.23,-0.93,0.93,0.86,0.41,13.16,13.16,13.17
24.65,12.27,-0.89,12.27,-0.90,0.89,0.83,0.42,13.17,13.16,13.16
24.89,12.30,-0.86,12.31,-0.85,0.86,0.80,0.43,13.16,13.16,13.16
25.14,12.34,-0.81,12.34,-0.81,0.82,0.76,0.44,13.16,13.16,13.15
25.39,12.37,-0.78,12.37,-0.78,0.78,0.73,0.45,13.16,13.16,13.15
25.65,12.40,-0.75,12.41,-0.75,0.75,0.70,0.46,13.15,13.15,13.15
25.91,12.44,-0.71,12.44,-0.71,0.71,0.66,0.47,13.15,13.15,13.15
26.16,12.47,-0.69,12.48,-0.68,0.68,0.63,0.48,13.15,13.15,13.16
26.43,12.51,-0.64,12.51,-0.65,0.64,0.60,0.49,13.16,13.15,13.15
26.69,12.54,-0.61,12.54,-0.61,0.61,0.57,0.50,13.15,13.15,13.15
26.96,12.57,-0.58,12.58,-0.57,0.58,0.53,0.51,13.15,13.15,13.15
27.23,12.61,-0.54,12.61,-0.54,0.54,0.50,0.51,13.16,13.15,13.15
27.50,12.64,-0.51,12.64,-0.51,0.51,0.47,0.52,13.15,13.15,13.15
27.77,12.67,-0.49,12.68,-0.48,0.48,0.44,0.53,13.15,13.16,13.16
28.05,12.71,-0.44,12.71,-0.45,0.45,0.40,0.53,13.16,13.16,13.15
28.33,12.74,-0.42,12.74,-0.42,0.42,0.37,0.53,13.16,13.16,13.16
28.62,12.77,-0.39,12.77,-0.39,0.39,0.34,0.54,13.16,13.17,13.16
28.90,12.80,-0.37,12.80,-0.37,0.36,0.31,0.54,13.17,13.16,13.17
29.19,12.83,-0.34,12.83,-0.34,0.33,0.28,0.54,13.16,13.16,13.17
29.48,12.86,-0.30,12.86,-0.31,0.30,0.24,0.53,13.16,13.16,13.16
29.78,12.89,-0.27,12.89,-0.27,0.27,0.21,0.53,13.16,13.16,13.16
30.08,12.92,-0.24,12.92,-0.23,0.23,0.18,0.52,13.16,13.16,13.16
30.38,12.95,-0.19,12.95,-0.20,0.20,0.15,0.52,13.15,13.15,13.14
30.68,12.98,-0.16,12.98,-0.16,0.17,0.12,0.51,13.15,13.15,13.14
30.99,13.01,-0.13,13.01,-0.13,0.13,0.09,0.50,13.14,13.14,13.14
31.30,13.03,-0.11,13.04,-0.10,0.10,0.06,0.48,13.13,13.13,13.14
31.61,13.06,-0.07,13.06,-0.07,0.07,0.03,0.47,13.13,13.13,13.13
31.93,13.08,-0.03,13.09,-0.04,0.04,-0.00,0.45,13.12,13.12,13.11
32.24,13.11,-0.01,13.11,-0.00,0.01,-0.03,0.43,13.12,13.12,13.12
32.57,13.13,0.03,13.13,0.03,-0.02,-0.06,0.41,13.11,13.11,13.10
32.89,13.15,0.05,13.15,0.05,-0.05,-0.09,0.39,13.10,13.10,13.10
33.22,13.17,0.08,13.17,0.08,-0.08,-0.12,0.36,13.09,13.09,13.09
33.55,13.19,0.10,13.19,0.10,-0.11,-0.15,0.33,13.08,13.08,13.09
33.89,13.21,0.13,13.21,0.13,-0.14,-0.18,0.31,13.08,13.08,13.08
34.23,13.23,0.17,13.23,0.17,-0.16,-0.21,0.28,13.07,13.07,13.06
34.57,13.25,0.19,13.26,0.20,-0.19,-0.24,0.24,13.06,13.06,13.06
34.92,13.28,0.24,13.28,0.22,-0.22,-0.27,0.21,13.06,13.06,13.04
35.27,13.29,0.23,13.30,0.25,-0.25,-0.30,0.18,13.04,13.05,13.06
35.62,13.31,0.28,13.31,0.27,-0.28,-0.33,0.14,13.04,13.04,13.03
35.97,13.33,0.30,13.33,0.30,-0.31,-0.36,0.10,13.03,13.02,13.03
36.33,13.34,0.33,13.35,0.34,-0.34,-0.39,0.07,13.01,13.01,13.01
36.70,13.36,0.37,13.36,0.37,-0.37,-0.42,0.03,13.00,13.00,12.99
37.06,13.37,0.40,13.37,0.40,-0.40,-0.45,-0.01,12.98,12.98,12.97
37.43,13.38,0.43,13.38,0.43,-0.43,-0.48,-0.05,12.95,12.96,12.95
37.81,13.39,0.45,13.40,0.46,-0.46,-0.51,-0.10,12.93,12.93,12.94
38.19,13.41,0.50,13.41,0.49,-0.50,-0.54,-0.14,12.92,12.91,12.91
38.57,13.42,0.53,13.43,0.53,-0.53,-0.57,-0.18,12.89,12.89,12.89
38.95,13.44,0.56,13.44,0.57,-0.57,-0.60,-0.23,12.88,12.87,12.88
39.34,13.45,0.60,13.45,0.60,-0.60,-0.63,-0.27,12.85,12.85,12.85
39.74,13.46,0.64,13.46,0.64,-0.64,-0.66,-0.32,12.83,12.83,12.82
40.14,13.47,0.67,13.47,0.67,-0.67,-0.69,-0.36,12.81,12.81,12.80
40.54,13.48,0.70,13.48,0.70,-0.70,-0.72,-0.41,12.78,12.78,12.78
40.94,13.49,0.74,13.49,0.73,-0.73,-0.76,-0.46,12.76,12.76,12.75
41.35,13.49,0.75,13.50,0.76,-0.76,-0.79,-0.51,12.74,12.74,12.74
41.76,13.50,0.79,13.50,0.78,-0.79,-0.82,-0.55,12.72,12.71,12.71
42.18,13.50,0.80,13.51,0.81,-0.82,-0.85,-0.60,12.69,12.69,12.70
42.60,13.51,0.84,13.51,0.84,-0.84,-0.88,-0.65,12.67,12.67,12.67
43.03,13.52,0.87,13.52,0.87,-0.87,-0.91,-0.70,12.65,12.65,12.65
43.46,13.52,0.91,13.53,0.91,-0.90,-0.95,-0.76,12.62,12.62,12.61
43.90,13.53,0.94,13.53,0.94,-0.94,-0.98,-0.81,12.60,12.59,12.59
44.33,13.53,0.97,13.54,0.97,-0.97,-1.01,-0.86,12.56,12.57,12.56
44.78,13.54,1.00,13.54,1.00,-1.00,-1.04,-0.91,12.54,12.54,12.54
45.23,13.54,1.02,13.54,1.03,-1.03,-1.08,-0.96,12.51,12.51,12.52
45.68,13.54,1.07,13.54,1.07,-1.06,-1.11,-1.02,12.48,12.48,12.47
46.13,13.54,1.10,13.54,1.10,-1.09,-1.15,-1.07,12.45,12.45,12.44
46.60,13.53,1.13,13.53,1.13,-1.13,-1.18,-1.13,12.41,12.41,12.40
47.06,13.52,1.15,13.52,1.15,-1.16,-1.21,-1.18,12.36,12.36,12.37
47.53,13.51,1.18,13.52,1.19,-1.20,-1.25,-1.24,12.32,12.32,12.33
48.01,13.51,1.23,13.51,1.23,-1.23,-1.28,-1.30,12.28,12.28,12.28
48.49,13.51,1.27,13.51,1.27,-1.27,-1.32,-1.35,12.24,12.24,12.24
48.97,13.51,1.32,13.51,1.32,-1.31,-1.36,-1.41,12.20,12.20,12.19
49.46,13.51,1.35,13.51,1.36,-1.36,-1.39,-1.47,12.16,12.16,12.16
49.96,13.51,1.41,13.51,1.40,-1.40,-1.43,-1.53,12.11,12.11,12.10
50.46,13.51,1.44,13.51,1.44,-1.44,-1.47,-1.58,12.07,12.07,12.07
50.96,13.51,1.48,13.51,1.48,-1.48,-1.50,-1.64,12.03,12.03,12.03
51.47,13.51,1.52,13.51,1.52,-1.52,-1.54,-1.70,11.99,11.99,11.99
51.99,13.51,1.57,13.51,1.56,-1.56,-1.58,-1.76,11.95,11.95,11.94
52.51,13.51,1.60,13.51,1.60,-1.60,-1.62,-1.82,11.91,11.91,11.91
53.03,13.51,1.63,13.51,1.64,-1.64,-1.66,-1.87,11.87,11.87,11.88
53.56,13.51,1.68,13.51,1.68,-1.68,-1.70,-1.93,11.83,11.83,11.83
54.10,13.51,1.73,13.51,1.72,-1.73,-1.74,-1.99,11.79,11.78,11.78
54.64,13.51,1.77,13.51,1.77,-1.77,-1.78,-2.04,11.74,11.74,11.74
55.18,13.51,1.81,13.52,1.82,-1.82,-1.82,-2.10,11.70,11.70,11.70
55.74,13.52,1.87,13.52,1.86,-1.86,-1.86,-2.15,11.66,11.66,11.65
56.29,13.53,1.90,13.53,1.91,-1.91,-1.90,-2.20,11.63,11.63,11.63
56.86,13.54,1.95,13.54,1.96,-1.95,-1.95,-2.25,11.60,11.59,11.59
57.42,13.54,2.00,13.54,2.00,-1.99,-1.99,-2.30,11.56,11.56,11.54
58.00,13.54,2.04,13.54,2.03,-2.03,-2.03,-2.35,11.52,11.52,11.50
58.58,13.53,2.06,13.54,2.07,-2.06,-2.07,-2.39,11.47,11.47,11.47
59.16,13.53,2.09,13.53,2.09,-2.10,-2.11,-2.43,11.43,11.43,11.44
59.76,13.52,2.13,13.52,2.13,-2.14,-2.16,-2.47,11.38,11.38,11.39
60.35,13.51,2.17,13.52,2.17,-2.18,-2.20,-2.51,11.33,11.33,11.34
60.96,13.50,2.22,13.50,2.22,-2.22,-2.24,-2.54,11.28,11.28,11.28
61.57,13.49,2.27,13.49,2.27,-2.27,-2.29,-2.57,11.23,11.23,11.22
62.18,13.47,2.31,13.48,2.32,-2.31,-2.33,-2.60,11.17,11.17,11.16
62.80,13.46,2.36,13.46,2.36,-2.35,-2.37,-2.63,11.12,11.12,11.10
63.43,13.44,2.39,13.44,2.39,-2.38,-2.41,-2.65,11.06,11.06,11.05
64.07,13.42,2.42,13.42,2.42,-2.42,-2.45,-2.67,11.01,11.00,11.00
64.71,13.39,2.44,13.40,2.45,-2.45,-2.49,-2.69,10.94,10.95,10.95
65.35,13.37,2.48,13.37,2.48,-2.48,-2.53,-2.71,10.89,10.89,10.89
66.01,13.35,2.51,13.35,2.51,-2.51,-2.57,-2.72,10.84,10.84,10.84
66.67,13.33,2.53,13.33,2.54,-2.55,-2.61,-2.74,10.79,10.79,10.80
67.33,13.31,2.58,13.32,2.58,-2.58,-2.65,-2.75,10.73,10.74,10.73
68.01,13.30,2.62,13.30,2.61,-2.61,-2.69,-2.75,10.69,10.69,10.68
68.69,13.28,2.65,13.28,2.65,-2.65,-2.73,-2.76,10.63,10.63,10.63
69.37,13.26,2.68,13.26,2.69,-2.69,-2.76,-2.77,10.58,10.58,10.58
70.07,13.24,2.72,13.24,2.72,-2.72,-2.80,-2.77,10.52,10.52,10.52
70.77,13.22,2.77,13.22,2.76,-2.76,-2.83,-2.77,10.46,10.46,10.45
71.48,13.19,2.79,13.19,2.80,-2.80,-2.86,-2.78,10.40,10.40,10.40
72.19,13.16,2.82,13.17,2.83,-2.83,-2.89,-2.78,10.33,10.34,10.34
72.91,13.14,2.87,13.14,2.86,-2.87,-2.92,-2.78,10.28,10.28,10.27
73.64,13.12,2.90,13.12,2.90,-2.90,-2.95,-2.78,10.22,10.22,10.22
74.38,13.10,2.94,13.10,2.94,-2.94,-2.98,-2.79,10.17,10.17,10.16
75.12,13.08,2.97,13.08,2.97,-2.97,-3.01,-2.79,10.11,10.11,10.11
75.87,13.06,3.00,13.06,3.00,-3.00,-3.04,-2.80,10.06,10.06,10.06
76.63,13.04,3.04,13.04,3.04,-3.03,-3.07,-2.80,10.01,10.01,10.00
77.40,13.02,3.06,13.02,3.06,-3.06,-3.09,-2.81,9.96,9.96,9.96
78.17,12.99,3.09,13.00,3.09,-3.09,-3.12,-2.82,9.90,9.90,9.90
78.95,12.97,3.11,12.98,3.12,-3.12,-3.14,-2.82,9.85,9.86,9.86
79.74,12.96,3.15,12.96,3.15,-3.15,-3.17,-2.84,9.81,9.81,9.81
80.54,12.94,3.18,12.94,3.18,-3.18,-3.19,-2.85,9.76,9.77,9.76
81.35,12.92,3.22,12.92,3.21,-3.21,-3.22,-2.86,9.72,9.72,9.70
82.16,12.90,3.23,12.90,3.24,-3.24,-3.24,-2.88,9.67,9.67,9.67
82.98,12.87,3.26,12.88,3.26,-3.27,-3.26,-2.90,9.61,9.61,9.61
83.81,12.85,3.29,12.85,3.29,-3.30,-3.29,-2.92,9.56,9.56,9.56
84.65,12.82,3.32,12.82,3.32,-3.33,-3.31,-2.94,9.50,9.50,9.50
85.50,12.80,3.36,12.80,3.35,-3.36,-3.33,-2.97,9.45,9.44,9.44
86.35,12.77,3.38,12.78,3.39,-3.39,-3.35,-2.99,9.39,9.39,9.39
87.22,12.76,3.42,12.76,3.42,-3.42,-3.38,-3.02,9.34,9.34,9.34
88.09,12.74,3.46,12.74,3.46,-3.45,-3.40,-3.05,9.29,9.29,9.28
88.97,12.71,3.49,12.71,3.49,-3.49,-3.42,-3.09,9.23,9.23,9.22
89.86,12.68,3.51,12.69,3.52,-3.52,-3.45,-3.13,9.16,9.17,9.17
90.76,12.65,3.54,12.66,3.55,-3.55,-3.47,-3.16,9.10,9.11,9.11
91.66,12.64,3.60,12.64,3.59,-3.58,-3.49,-3.21,9.06,9.05,9.04
92.58,12.61,3.62,12.61,3.62,-3.61,-3.52,-3.25,9.00,9.00,8.99
93.51,12.58,3.64,12.59,3.65,-3.65,-3.54,-3.30,8.94,8.94,8.94
94.44,12.56,3.68,12.56,3.68,-3.68,-3.56,-3.34,8.88,8.87,8.88
95.39,12.52,3.71,12.53,3.71,-3.72,-3.59,-3.39,8.81,8.81,8.81
96.34,12.49,3.75,12.49,3.75,-3.75,-3.61,-3.45,8.74,8.74,8.74
97.30,12.46,3.78,12.47,3.79,-3.79,-3.64,-3.50,8.67,8.67,8.68
98.28,12.44,3.83,12.44,3.83,-3.83,-3.66,-3.56,8.61,8.61,8.61
99.26,12.42,3.87,12.42,3.87,-3.87,-3.69,-3.61,8.56,8.56,8.55
100.25,12.40,3.91,12.40,3.91,-3.91,-3.71,-3.67,8.50,8.50,8.49
101.25,12.38,3.94,12.38,3.94,-3.94,-3.74,-3.73,8.44,8.44,8.44
102.27,12.34,3.96,12.35,3.97,-3.97,-3.76,-3.79,8.37,8.38,8.38
103.29,12.32,4.00,12.33,4.00,-3.99,-3.79,-3.86,8.33,8.33,8.32
104.32,12.30,4.03,12.29,4.02,-4.01,-3.81,-3.92,8.29,8.28,8.27
105.37,12.25,4.04,12.25,4.04,-4.03,-3.84,-3.98,8.23,8.23,8.21
106.42,12.20,4.04,12.21,4.04,-4.04,-3.86,-4.05,8.16,8.16,8.16
107.48,12.15,4.05,12.15,4.05,-4.06,-3.89,-4.11,8.10,8.09,8.10
108.56,12.10,4.05,12.10,4.06,-4.07,-3.91,-4.17,8.03,8.03,8.05
109.64,12.06,4.07,12.07,4.08,-4.09,-3.93,-4.23,7.97,7.98,7.99
110.74,12.04,4.11,12.04,4.11,-4.11,-3.96,-4.29,7.93,7.93,7.93
111.85,12.02,4.15,12.02,4.14,-4.14,-3.98,-4.35,7.89,7.88,7.87
112.97,11.99,4.17,11.99,4.17,-4.16,-4.01,-4.40,7.83,7.82,7.82
114.10,11.95,4.19,11.95,4.20,-4.19,-4.03,-4.45,7.76,7.76,7.76
115.24,11.90,4.22,11.91,4.22,-4.22,-4.06,-4.50,7.68,7.69,7.68
116.39,11.88,4.26,11.88,4.25,-4.25,-4.08,-4.55,7.63,7.62,7.62
117.55,11.84,4.28,11.84,4.28,-4.28,-4.10,-4.59,7.56,7.56,7.56
118.73,11.80,4.30,11.81,4.30,-4.30,-4.13,-4.63,7.50,7.51,7.50
119.92,11.77,4.31,11.78,4.32,-4.32,-4.15,-4.66,7.45,7.45,7.46
121.12,11.75,4.34,11.75,4.34,-4.34,-4.17,-4.69,7.41,7.41,7.41
122.33,11.72,4.37,11.72,4.37,-4.36,-4.19,-4.71,7.37,7.37,7.35
123.55,11.69,4.39,11.68,4.38,-4.37,-4.22,-4.73,7.32,7.31,7.30
124.79,11.63,4.38,11.63,4.38,-4.38,-4.24,-4.74,7.25,7.25,7.25
126.03,11.57,4.38,11.59,4.39,-4.40,-4.26,-4.75,7.18,7.19,7.19
127.29,11.54,4.40,11.54,4.40,-4.41,-4.28,-4.75,7.13,7.13,7.14
128.57,11.50,4.43,11.50,4.42,-4.42,-4.30,-4.75,7.08,7.07,7.07
129.85,11.45,4.43,11.45,4.43,-4.44,-4.32,-4.74,7.02,7.02,7.02
131.15,11.40,4.44,11.41,4.44,-4.45,-4.34,-4.73,6.95,6.96,6.96
132.46,11.36,4.45,11.37,4.46,-4.46,-4.36,-4.71,6.90,6.90,6.91
133.79,11.33,4.48,11.33,4.48,-4.47,-4.38,-4.69,6.86,6.86,6.85
135.12,11.29,4.49,11.29,4.49,-4.48,-4.40,-4.66,6.81,6.81,6.80
136.48,11.25,4.50,11.25,4.50,-4.49,-4.41,-4.63,6.76,6.76,6.75
137.84,11.19,4.49,11.20,4.50,-4.49,-4.43,-4.60,6.70,6.71,6.70
139.22,11.14,4.50,11.14,4.49,-4.49,-4.44,-4.57,6.65,6.65,6.64
140.61,11.08,4.48,11.08,4.48,-4.49,-4.46,-4.53,6.59,6.59,6.60
142.02,11.01,4.47,11.02,4.47,-4.48,-4.48,-4.49,6.53,6.54,6.54
143.44,10.97,4.47,10.97,4.47,-4.47,-4.49,-4.45,6.50,6.49,6.50
144.87,10.91,4.45,10.92,4.46,-4.46,-4.50,-4.41,6.45,6.46,6.46
146.32,10.87,4.46,10.87,4.45,-4.44,-4.52,-4.37,6.43,6.42,6.41
147.78,10.80,4.43,10.81,4.44,-4.43,-4.53,-4.33,6.38,6.38,6.37
149.26,10.74,4.42,10.74,4.42,-4.41,-4.54,-4.28,6.34,6.34,6.32
150.75,10.66,4.38,10.66,4.38,-4.38,-4.55,-4.24,6.28,6.28,6.28
152.26,10.59,4.35,10.59,4.35,-4.35,-4.56,-4.20,6.24,6.24,6.24
153.78,10.51,4.31,10.52,4.32,-4.33,-4.57,-4.16,6.19,6.19,6.20
155.32,10.45,4.29,10.45,4.30,-4.29,-4.58,-4.13,6.16,6.16,6.16
156.88,10.38,4.27,10.38,4.27,-4.27,-4.58,-4.09,6.12,6.12,6.11
158.44,10.32,4.26,10.31,4.24,-4.24,-4.59,-4.06,6.08,6.07,6.06
160.03,10.22,4.20,10.23,4.21,-4.22,-4.59,-4.02,6.01,6.02,6.02
161.63,10.15,4.17,10.16,4.18,-4.19,-4.60,-3.99,5.96,5.97,5.98
163.24,10.10,4.17,10.10,4.17,-4.17,-4.60,-3.97,5.93,5.92,5.93
164.88,10.04,4.16,10.04,4.16,-4.15,-4.61,-3.94,5.89,5.89,5.88
166.53,9.98,4.15,9.98,4.14,-4.13,-4.61,-3.92,5.85,5.85,5.83
168.19,9.92,4.12,9.91,4.12,-4.12,-4.61,-3.90,5.81,5.80,5.80
169.87,9.83,4.09,9.84,4.10,-4.10,-4.61,-3.88,5.73,5.74,5.74
171.57,9.77,4.08,9.78,4.08,-4.09,-4.61,-3.87,5.69,5.69,5.69
173.29,9.72,4.07,9.71,4.07,-4.07,-4.61,-3.86,5.65,5.64,5.65
175.02,9.65,4.05,9.66,4.05,-4.06,-4.60,-3.85,5.60,5.60,5.60
176.77,9.59,4.04,9.59,4.04,-4.04,-4.60,-3.85,5.56,5.56,5.55
178.54,9.53,4.02,9.54,4.03,-4.02,-4.59,-3.85,5.51,5.52,5.51
180.32,9.48,4.03,9.48,4.02,-4.01,-4.59,-3.85,5.47,5.47,5.45
182.13,9.42,4.00,9.41,4.00,-4.00,-4.58,-3.85,5.43,5.42,5.42
183.95,9.33,3.96,9.35,3.98,-3.98,-4.57,-3.86,5.35,5.36,5.37
185.79,9.28,3.96,9.28,3.96,-3.97,-4.57,-3.87,5.31,5.32,5.32
187.65,9.23,3.95,9.23,3.95,-3.96,-4.56,-3.88,5.28,5.28,5.28
189.52,9.19,3.95,9.19,3.95,-3.94,-4.55,-3.90,5.25,5.25,5.24
191.42,9.14,3.94,9.14,3.94,-3.93,-4.53,-3.92,5.21,5.21,5.20
193.33,9.08,3.92,9.08,3.93,-3.92,-4.52,-3.94,5.16,5.16,5.16
195.27,9.02,3.91,9.02,3.91,-3.91,-4.51,-3.96,5.11,5.11,5.11
197.22,8.96,3.90,8.97,3.90,-3.90,-4.49,-3.99,5.06,5.07,5.06
199.19,8.92,3.89,8.92,3.89,-3.89,-4.48,-4.01,5.03,5.03,5.03
201.18,8.88,3.89,8.88,3.88,-3.88,-4.46,-4.04,5.00,5.00,4.99
203.19,8.83,3.87,8.84,3.87,-3.87,-4.44,-4.07,4.97,4.97,4.96
205.23,8.79,3.85,8.79,3.85,-3.86,-4.42,-4.10,4.93,4.93,4.94
207.28,8.75,3.84,8.76,3.85,-3.85,-4.40,-4.14,4.90,4.90,4.91
209.35,8.72,3.85,8.73,3.85,-3.85,-4.38,-4.17,4.87,4.88,4.87
211.44,8.70,3.86,8.70,3.85,-3.85,-4.36,-4.20,4.85,4.85,4.84
213.56,8.67,3.85,8.67,3.86,-3.86,-4.34,-4.24,4.82,4.82,4.82
215.69,8.65,3.86,8.65,3.86,-3.87,-4.31,-4.27,4.78,4.78,4.79
217.85,8.63,3.87,8.64,3.88,-3.88,-4.29,-4.30,4.75,4.75,4.76
220.03,8.63,3.90,8.63,3.90,-3.90,-4.26,-4.33,4.73,4.73,4.73
222.23,8.63,3.93,8.63,3.93,-3.92,-4.23,-4.36,4.71,4.71,4.70
224.45,8.64,3.95,8.64,3.95,-3.95,-4.21,-4.39,4.69,4.69,4.69
226.70,8.64,3.98,8.65,3.98,-3.97,-4.18,-4.41,4.67,4.67,4.66
228.96,8.65,4.00,8.65,4.00,-4.00,-4.15,-4.43,4.65,4.65,4.65
231.25,8.65,4.02,8.65,4.02,-4.03,-4.12,-4.45,4.63,4.63,4.63
233.57,8.65,4.04,8.66,4.04,-4.05,-4.08,-4.46,4.60,4.61,4.61
235.90,8.66,4.06,8.66,4.07,-4.07,-4.05,-4.47,4.59,4.59,4.60
238.26,8.67,4.10,8.67,4.09,-4.08,-4.02,-4.47,4.59,4.59,4.57
240.64,8.67,4.09,8.68,4.10,-4.09,-3.98,-4.47,4.58,4.58,4.58
243.05,8.67,4.11,8.67,4.11,-4.10,-3.95,-4.46,4.57,4.57,4.56
245.48,8.66,4.11,8.66,4.11,-4.10,-3.91,-4.45,4.56,4.56,4.55
247.93,8.64,4.10,8.64,4.10,-4.10,-3.87,-4.43,4.55,4.55,4.54
250.41,8.62,4.07,8.62,4.08,-4.08,-3.83,-4.40,4.54,4.54,4.55
252.92,8.59,4.05,8.60,4.06,-4.07,-3.79,-4.37,4.53,4.53,4.54
255.45,8.57,4.04,8.58,4.04,-4.05,-3.75,-4.33,4.53,4.53,4.53
258.00,8.56,4.03,8.56,4.03,-4.02,-3.71,-4.29,4.55,4.54,4.53
260.58,8.53,4.00,8.53,4.00,-3.99,-3.67,-4.24,4.55,4.54,4.53
263.19,8.49,3.96,8.49,3.96,-3.95,-3.62,-4.18,4.54,4.54,4.53
265.82,8.43,3.91,8.44,3.92,-3.92,-3.58,-4.12,4.52,4.53,4.52
268.48,8.39,3.87,8.39,3.87,-3.88,-3.54,-4.06,4.52,4.52,4.52
271.16,8.35,3.83,8.35,3.83,-3.84,-3.49,-3.98,4.52,4.51,4.52
273.87,8.30,3.78,8.31,3.79,-3.79,-3.44,-3.91,4.51,4.51,4.52
276.61,8.26,3.74,8.26,3.75,-3.75,-3.40,-3.83,4.51,4.51,4.52
279.38,8.21,3.71,8.21,3.70,-3.70,-3.35,-3.75,4.51,4.51,4.50
282.17,8.16,3.66,8.17,3.66,-3.66,-3.30,-3.66,4.51,4.51,4.50
284.99,8.12,3.61,8.12,3.61,-3.61,-3.25,-3.57,4.51,4.51,4.51
287.84,8.07,3.55,8.07,3.56,-3.56,-3.20,-3.48,4.52,4.52,4.52
290.72,8.02,3.51,8.02,3.50,-3.50,-3.15,-3.39,4.52,4.53,4.51
293.63,7.97,3.45,7.97,3.45,-3.44,-3.09,-3.29,4.54,4.53,4.52
296.57,7.90,3.37,7.91,3.38,-3.37,-3.04,-3.19,4.53,4.53,4.53
299.53,7.84,3.31,7.84,3.30,-3.31,-2.99,-3.10,4.53,4.53,4.53
302.53,7.77,3.22,7.78,3.23,-3.24,-2.93,-3.00,4.53,4.53,4.55
305.55,7.71,3.17,7.71,3.16,-3.17,-2.88,-2.90,4.54,4.54,4.54
308.61,7.64,3.09,7.65,3.09,-3.10,-2.82,-2.80,4.54,4.55,4.55
311.69,7.58,3.02,7.59,3.03,-3.03,-2.76,-2.70,4.56,4.56,4.56
314.81,7.53,2.97,7.53,2.96,-2.95,-2.70,-2.60,4.58,4.57,4.56
317.96,7.46,2.89,7.46,2.89,-2.88,-2.65,-2.50,4.58,4.58,4.57
321.14,7.38,2.80,7.38,2.80,-2.80,-2.59,-2.41,4.58,4.58,4.58
324.35,7.30,2.72,7.31,2.72,-2.73,-2.53,-2.31,4.58,4.58,4.58
327.59,7.23,2.62,7.24,2.64,-2.65,-2.47,-2.21,4.59,4.59,4.61
330.87,7.18,2.58,7.17,2.57,-2.57,-2.41,-2.12,4.62,4.61,4.60
334.18,7.11,2.50,7.11,2.49,-2.49,-2.34,-2.03,4.63,4.62,4.61
337.52,7.02,2.41,7.03,2.41,-2.41,-2.28,-1.93,4.61,4.62,4.61
340.90,6.95,2.32,6.95,2.32,-2.33,-2.22,-1.84,4.62,4.62,4.63
344.30,6.88,2.24,6.88,2.25,-2.25,-2.15,-1.75,4.63,4.63,4.64
347.75,6.82,2.18,6.82,2.17,-2.18,-2.09,-1.66,4.64,4.64,4.64
351.23,6.75,2.11,6.75,2.10,-2.10,-2.02,-1.57,4.65,4.65,4.64
354.74,6.68,2.01,6.69,2.03,-2.02,-1.96,-1.49,4.66,4.66,4.67
358.28,6.61,1.95,6.62,1.95,-1.94,-1.89,-1.40,4.67,4.67,4.66
361.87,6.55,1.88,6.55,1.87,-1.87,-1.82,-1.32,4.69,4.68,4.67
365.49,6.47,1.79,6.48,1.79,-1.79,-1.76,-1.24,4.68,4.69,4.68
369.14,6.40,1.70,6.40,1.71,-1.71,-1.69,-1.15,4.69,4.69,4.70
372.83,6.33,1.63,6.33,1.63,-1.63,-1.62,-1.07,4.70,4.69,4.70
376.56,6.25,1.55,6.26,1.55,-1.56,-1.55,-0.99,4.70,4.70,4.70
380.33,6.19,1.48,6.19,1.48,-1.48,-1.48,-0.91,4.71,4.71,4.71
384.13,6.13,1.40,6.13,1.40,-1.40,-1.41,-0.84,4.73,4.72,4.73
387.97,6.06,1.33,6.06,1.33,-1.33,-1.34,-0.76,4.73,4.73,4.73
391.85,5.99,1.25,6.00,1.26,-1.25,-1.27,-0.69,4.74,4.75,4.74
395.77,5.93,1.18,5.94,1.18,-1.18,-1.19,-0.61,4.76,4.76,4.75
399.73,5.87,1.11,5.87,1.10,-1.10,-1.12,-0.54,4.78,4.77,4.76
403.72,5.80,1.01,5.80,1.02,-1.02,-1.05,-0.47,4.79,4.78,4.79
407.76,5.71,0.93,5.72,0.93,-0.94,-0.97,-0.39,4.78,4.79,4.78
411.84,5.64,0.85,5.65,0.85,-0.85,-0.90,-0.32,4.79,4.80,4.79
415.96,5.58,0.77,5.58,0.77,-0.77,-0.82,-0.25,4.81,4.80,4.81
420.12,5.51,0.70,5.51,0.69,-0.69,-0.75,-0.19,4.82,4.81,4.81
424.32,5.42,0.60,5.44,0.61,-0.61,-0.67,-0.12,4.81,4.82,4.82
428.56,5.36,0.52,5.36,0.53,-0.53,-0.59,-0.05,4.83,4.83,4.84
432.85,5.30,0.45,5.30,0.45,-0.45,-0.51,0.02,4.85,4.85,4.85
437.18,5.22,0.38,5.23,0.38,-0.37,-0.44,0.08,4.85,4.86,4.84
441.55,5.15,0.30,5.15,0.29,-0.29,-0.36,0.15,4.87,4.86,4.85
445.96,5.06,0.20,5.07,0.21,-0.20,-0.28,0.21,4.86,4.86,4.86
450.42,4.98,0.11,4.99,0.12,-0.12,-0.20,0.27,4.87,4.87,4.87
454.93,4.91,0.03,4.91,0.03,-0.03,-0.12,0.33,4.88,4.88,4.88
459.48,4.84,-0.05,4.84,-0.06,0.05,-0.04,0.39,4.89,4.89,4.89
464.07,4.76,-0.15,4.77,-0.14,0.14,0.04,0.45,4.90,4.90,4.91
468.71,4.70,-0.22,4.70,-0.22,0.22,0.13,0.51,4.92,4.91,4.92
473.40,4.62,-0.30,4.63,-0.30,0.30,0.21,0.57,4.92,4.92,4.92
478.13,4.55,-0.38,4.56,-0.37,0.38,0.29,0.63,4.93,4.94,4.93
482.91,4.49,-0.45,4.49,-0.45,0.45,0.38,0.68,4.95,4.94,4.94
