frequency,raw,error,smoothed,error_smoothed,equalization,parametric_eq,fixed_band_eq,equalized_raw,equalized_smoothed,target
20.00,-0.63,-7.36,-0.64,-7.37,7.34,6.95,1.87,6.71,6.70,6.73
20.20,-0.48,-7.26,-0.47,-7.25,7.24,6.95,1.93,6.76,6.77,6.78
20.40,-0.32,-7.15,-0.31,-7.14,7.14,6.95,1.99,6.83,6.83,6.83
20.61,-0.17,-7.03,-0.16,-7.03,7.05,6.93,2.05,6.88,6.89,6.86
20.81,-0.02,-6.93,-0.02,-6.93,6.96,6.91,2.11,6.94,6.94,6.91
21.02,0.13,-6.82,0.11,-6.83,6.87,6.89,2.18,7.00,6.98,6.95
21.23,0.21,-6.76,0.22,-6.76,6.78,6.85,2.24,6.99,6.99,6.97
21.44,0.30,-6.69,0.30,-6.69,6.69,6.81,2.31,6.99,6.99,6.99
21.66,0.38,-6.63,0.38,-6.63,6.61,6.77,2.38,6.99,7.00,7.01
21.87,0.47,-6.55,0.47,-6.55,6.54,6.72,2.46,7.01,7.01,7.02
22.09,0.56,-6.48,0.56,-6.48,6.45,6.66,2.53,7.02,7.02,7.04
22.31,0.66,-6.39,0.66,-6.39,6.37,6.60,2.61,7.03,7.03,7.05
22.54,0.75,-6.30,0.76,-6.30,6.29,6.53,2.69,7.04,7.04,7.05
22.76,0.85,-6.20,0.85,-6.20,6.20,6.46,2.77,7.05,7.06,7.05
22.99,0.95,-6.09,0.94,-6.11,6.12,6.39,2.85,7.07,7.06,7.04
23.22,1.01,-6.03,1.01,-6.03,6.05,6.31,2.94,7.06,7.06,7.04
23.45,1.07,-5.97,1.08,-5.96,5.99,6.22,3.02,7.06,7.07,7.04
23.69,1.14,-5.91,1.14,-5.91,5.95,6.14,3.11,7.08,7.08,7.05
23.92,1.20,-5.85,1.19,-5.86,5.91,6.05,3.20,7.11,7.10,7.05
24.16,1.24,-5.81,1.24,-5.81,5.85,5.96,3.29,7.09,7.09,7.05
24.40,1.28,-5.78,1.27,-5.79,5.76,5.87,3.38,7.04,7.02,7.06
24.65,1.32,-5.73,1.30,-5.75,5.62,5.77,3.48,6.94,6.92,7.05
24.89,1.35,-5.70,1.39,-5.66,5.46,5.67,3.57,6.81,6.86,7.05
25.14,1.54,-5.51,1.57,-5.49,5.31,5.58,3.67,6.85,6.87,7.05
25.39,1.84,-5.22,1.85,-5.20,5.18,5.48,3.76,7.03,7.03,7.06
25.65,2.13,-4.93,2.16,-4.90,5.10,5.38,3.86,7.23,7.26,7.06
25.91,2.42,-4.63,2.33,-4.72,5.06,5.28,3.96,7.48,7.39,7.05
26.16,2.37,-4.69,2.32,-4.73,5.04,5.18,4.05,7.41,7.37,7.05
26.43,2.10,-4.95,2.11,-4.94,5.05,5.08,4.14,7.16,7.16,7.05
26.69,1.83,-5.22,1.82,-5.23,5.07,4.98,4.24,6.90,6.90,7.05
26.96,1.55,-5.50,1.66,-5.39,5.10,4.88,4.33,6.65,6.76,7.05
27.23,1.68,-5.37,1.68,-5.37,5.11,4.78,4.42,6.79,6.79,7.05
27.50,1.88,-5.17,1.84,-5.21,5.08,4.68,4.50,6.96,6.92,7.05
27.77,2.08,-4.96,2.07,-4.97,4.99,4.58,4.58,7.07,7.07,7.04
28.05,2.28,-4.76,2.28,-4.76,4.83,4.49,4.66,7.11,7.11,7.04
28.33,2.47,-4.56,2.47,-4.56,4.62,4.39,4.74,7.09,7.10,7.03
28.62,2.66,-4.37,2.66,-4.37,4.39,4.29,4.80,7.05,7.06,7.03
28.90,2.85,-4.19,2.84,-4.20,4.20,4.20,4.87,7.05,7.03,7.04
29.19,2.99,-4.04,2.99,-4.04,4.06,4.11,4.92,7.05,7.05,7.03
29.48,3.12,-3.92,3.14,-3.89,3.97,4.01,4.97,7.09,7.11,7.04
29.78,3.25,-3.78,3.24,-3.79,3.92,3.92,5.01,7.16,7.16,7.03
30.08,3.32,-3.72,3.27,-3.76,3.88,3.83,5.04,7.20,7.15,7.04
30.38,3.22,-3.81,3.20,-3.83,3.85,3.74,5.07,7.07,7.05,7.03
30.68,3.11,-3.92,3.11,-3.92,3.82,3.66,5.08,6.93,6.93,7.03
30.99,3.00,-4.03,3.08,-3.95,3.77,3.57,5.09,6.77,6.85,7.03
31.30,3.17,-3.85,3.16,-3.86,3.72,3.49,5.09,6.89,6.88,7.02
31.61,3.35,-3.67,3.33,-3.69,3.65,3.40,5.08,7.00,6.97,7.02
31.93,3.53,-3.49,3.51,-3.50,3.56,3.32,5.06,7.09,7.07,7.02
32.24,3.65,-3.36,3.65,-3.36,3.45,3.24,5.03,7.11,7.11,7.01
32.57,3.75,-3.26,3.76,-3.25,3.34,3.16,4.99,7.08,7.10,7.01
32.89,3.85,-3.16,3.84,-3.17,3.21,3.08,4.94,7.06,7.05,7.01
33.22,3.90,-3.10,3.89,-3.11,3.10,3.01,4.89,7.00,6.99,7.00
33.55,3.94,-3.06,3.94,-3.06,3.01,2.93,4.83,6.95,6.94,7.00
33.89,3.97,-3.02,3.99,-3.00,2.94,2.86,4.76,6.91,6.93,6.99
34.23,4.07,-2.92,4.09,-2.90,2.89,2.78,4.68,6.96,6.98,6.99
34.57,4.19,-2.79,4.19,-2.79,2.84,2.71,4.60,7.03,7.04,6.98
34.92,4.32,-2.66,4.28,-2.70,2.78,2.64,4.52,7.10,7.06,6.98
35.27,4.31,-2.66,4.28,-2.69,2.71,2.58,4.43,7.02,6.99,6.97
35.62,4.26,-2.71,4.26,-2.71,2.65,2.51,4.33,6.91,6.91,6.97
35.97,4.20,-2.77,4.27,-2.69,2.60,2.44,4.23,6.80,6.88,6.97
36.33,4.37,-2.60,4.39,-2.58,2.57,2.38,4.13,6.94,6.96,6.97
36.70,4.55,-2.41,4.52,-2.44,2.53,2.31,4.03,7.08,7.05,6.96
37.06,4.68,-2.28,4.59,-2.37,2.48,2.25,3.92,7.15,7.07,6.96
37.43,4.57,-2.40,4.56,-2.41,2.40,2.19,3.81,6.97,6.96,6.97
37.81,4.46,-2.51,4.52,-2.44,2.31,2.13,3.71,6.77,6.84,6.97
38.19,4.53,-2.43,4.60,-2.37,2.24,2.07,3.60,6.77,6.84,6.96
38.57,4.79,-2.18,4.78,-2.19,2.18,2.01,3.49,6.97,6.96,6.97
38.95,5.05,-1.93,4.96,-2.01,2.14,1.95,3.38,7.19,7.10,6.98
39.34,5.06,-1.91,5.06,-1.91,2.09,1.90,3.27,7.15,7.15,6.97
39.74,5.04,-1.93,5.07,-1.91,2.00,1.84,3.16,7.04,7.07,6.97
40.14,5.03,-1.94,5.00,-1.97,1.88,1.79,3.05,6.91,6.88,6.97
40.54,5.02,-1.95,5.00,-1.96,1.75,1.74,2.94,6.77,6.76,6.97
40.94,5.02,-1.94,5.12,-1.84,1.64,1.68,2.83,6.66,6.76,6.96
41.35,5.32,-1.64,5.35,-1.61,1.55,1.63,2.73,6.87,6.90,6.96
41.76,5.66,-1.29,5.59,-1.36,1.47,1.58,2.62,7.13,7.07,6.95
42.18,5.83,-1.12,5.77,-1.18,1.41,1.53,2.52,7.24,7.18,6.95
42.60,5.77,-1.17,5.80,-1.15,1.35,1.48,2.42,7.12,7.15,6.94
43.03,5.70,-1.23,5.70,-1.23,1.30,1.43,2.31,7.00,7.00,6.93
43.46,5.59,-1.33,5.58,-1.33,1.27,1.39,2.22,6.86,6.85,6.92
43.90,5.48,-1.42,5.50,-1.40,1.26,1.34,2.12,6.75,6.76,6.90
44.33,5.46,-1.42,5.45,-1.43,1.28,1.29,2.02,6.74,6.74,6.88
44.78,5.48,-1.38,5.50,-1.36,1.29,1.25,1.93,6.77,6.79,6.86
45.23,5.59,-1.26,5.63,-1.22,1.26,1.21,1.83,6.85,6.89,6.85
45.68,5.78,-1.06,5.74,-1.10,1.18,1.16,1.74,6.96,6.92,6.84
46.13,5.87,-0.95,5.74,-1.08,1.08,1.12,1.65,6.95,6.83,6.82
46.60,5.71,-1.11,5.73,-1.08,0.99,1.08,1.56,6.70,6.72,6.82
47.06,5.63,-1.17,5.85,-0.95,0.91,1.03,1.47,6.54,6.77,6.80
47.53,6.03,-0.76,6.03,-0.76,0.84,0.99,1.39,6.87,6.87,6.79
48.01,6.43,-0.36,6.14,-0.65,0.77,0.95,1.30,7.20,6.91,6.79
48.49,6.12,-0.65,6.13,-0.64,0.71,0.91,1.22,6.83,6.84,6.77
48.97,5.81,-0.94,6.03,-0.72,0.65,0.87,1.14,6.46,6.68,6.75
49.46,5.98,-0.75,5.97,-0.76,0.61,0.83,1.06,6.59,6.58,6.73
49.96,6.17,-0.54,6.09,-0.63,0.59,0.79,0.98,6.76,6.68,6.71
50.46,6.20,-0.50,6.20,-0.50,0.60,0.76,0.90,6.80,6.80,6.70
50.96,6.21,-0.48,6.20,-0.48,0.60,0.72,0.82,6.81,6.81,6.69
51.47,6.14,-0.53,6.14,-0.53,0.59,0.68,0.75,6.73,6.74,6.67
51.99,6.07,-0.59,6.06,-0.61,0.56,0.64,0.68,6.63,6.62,6.66
52.51,6.01,-0.64,6.00,-0.65,0.52,0.61,0.60,6.53,6.52,6.65
53.03,5.96,-0.69,6.04,-0.60,0.49,0.57,0.53,6.45,6.53,6.65
53.56,6.15,-0.48,6.14,-0.50,0.46,0.53,0.46,6.61,6.60,6.63
54.10,6.31,-0.31,6.24,-0.38,0.44,0.50,0.40,6.74,6.68,6.62
54.64,6.31,-0.29,6.32,-0.29,0.39,0.46,0.33,6.70,6.71,6.60
55.18,6.31,-0.29,6.32,-0.27,0.33,0.43,0.27,6.64,6.65,6.60
55.74,6.31,-0.27,6.31,-0.28,0.27,0.39,0.20,6.58,6.57,6.58
56.29,6.31,-0.26,6.31,-0.26,0.22,0.36,0.14,6.52,6.52,6.57
56.86,6.31,-0.25,6.32,-0.24,0.18,0.32,0.08,6.49,6.50,6.56
57.42,6.34,-0.19,6.34,-0.20,0.17,0.29,0.02,6.51,6.51,6.53
58.00,6.37,-0.15,6.39,-0.13,0.17,0.26,-0.03,6.54,6.56,6.52
58.58,6.43,-0.08,6.41,-0.09,0.17,0.22,-0.09,6.60,6.58,6.51
59.16,6.44,-0.05,6.38,-0.11,0.16,0.19,-0.14,6.60,6.54,6.49
59.76,6.28,-0.19,6.31,-0.15,0.15,0.15,-0.19,6.43,6.46,6.47
60.35,6.21,-0.22,6.24,-0.19,0.14,0.12,-0.24,6.35,6.38,6.43
60.96,6.21,-0.18,6.20,-0.20,0.13,0.09,-0.28,6.34,6.33,6.39
61.57,6.21,-0.14,6.20,-0.15,0.12,0.05,-0.33,6.33,6.32,6.35
62.18,6.21,-0.10,6.21,-0.10,0.11,0.02,-0.37,6.31,6.31,6.31
62.80,6.21,-0.05,6.21,-0.05,0.08,-0.01,-0.41,6.29,6.29,6.26
63.43,6.21,-0.01,6.21,-0.01,0.03,-0.04,-0.45,6.24,6.24,6.22
64.07,6.21,0.04,6.21,0.04,-0.03,-0.08,-0.49,6.18,6.18,6.17
64.71,6.21,0.08,6.21,0.08,-0.10,-0.11,-0.52,6.11,6.11,6.13
65.35,6.21,0.12,6.20,0.11,-0.17,-0.14,-0.56,6.04,6.03,6.09
66.01,6.21,0.17,6.20,0.16,-0.23,-0.18,-0.59,5.98,5.97,6.04
66.67,6.21,0.22,6.27,0.28,-0.28,-0.21,-0.62,5.93,5.99,5.99
67.33,6.30,0.36,6.32,0.38,-0.31,-0.24,-0.65,5.99,6.01,5.94
68.01,6.47,0.57,6.32,0.42,-0.33,-0.27,-0.68,6.14,5.99,5.90
68.69,6.22,0.37,6.28,0.43,-0.33,-0.31,-0.70,5.89,5.95,5.85
69.37,6.11,0.31,6.17,0.37,-0.33,-0.34,-0.73,5.78,5.84,5.80
70.07,6.10,0.35,6.03,0.28,-0.34,-0.37,-0.75,5.76,5.69,5.75
70.77,5.95,0.25,5.95,0.25,-0.34,-0.41,-0.78,5.61,5.61,5.70
71.48,5.87,0.22,5.90,0.26,-0.34,-0.44,-0.80,5.53,5.56,5.65
72.19,5.86,0.28,5.90,0.31,-0.37,-0.47,-0.83,5.49,5.53,5.58
72.91,5.99,0.47,5.95,0.42,-0.41,-0.50,-0.85,5.58,5.53,5.52
73.64,6.01,0.54,6.00,0.53,-0.49,-0.54,-0.87,5.52,5.50,5.47
74.38,6.01,0.60,6.01,0.61,-0.59,-0.57,-0.89,5.42,5.42,5.41
75.12,6.01,0.66,6.01,0.66,-0.70,-0.61,-0.92,5.31,5.31,5.35
75.87,6.01,0.72,6.03,0.74,-0.77,-0.64,-0.94,5.24,5.26,5.29
76.63,6.07,0.83,6.11,0.87,-0.82,-0.67,-0.96,5.24,5.28,5.24
77.40,6.16,0.97,6.13,0.94,-0.85,-0.71,-0.99,5.31,5.28,5.19
78.17,6.20,1.07,6.11,0.98,-0.85,-0.74,-1.01,5.34,5.26,5.13
78.95,5.93,0.84,6.02,0.93,-0.86,-0.78,-1.04,5.07,5.16,5.09
79.74,5.91,0.87,5.85,0.81,-0.86,-0.81,-1.06,5.05,4.99,5.04
80.54,5.71,0.72,5.72,0.73,-0.86,-0.85,-1.09,4.85,4.86,4.99
81.35,5.61,0.67,5.70,0.76,-0.87,-0.88,-1.11,4.74,4.84,4.94
82.16,5.76,0.87,5.71,0.82,-0.88,-0.92,-1.14,4.88,4.83,4.89
82.98,5.81,0.96,5.78,0.93,-0.90,-0.95,-1.17,4.90,4.87,4.85
83.81,5.81,1.01,5.82,1.02,-0.95,-0.99,-1.20,4.86,4.87,4.80
84.65,5.81,1.06,5.81,1.06,-1.02,-1.02,-1.23,4.79,4.80,4.75
85.50,5.81,1.10,5.81,1.10,-1.09,-1.06,-1.26,4.72,4.72,4.71
86.35,5.81,1.15,5.81,1.15,-1.16,-1.10,-1.29,4.65,4.65,4.66
87.22,5.81,1.20,5.81,1.20,-1.21,-1.13,-1.33,4.60,4.60,4.61
88.09,5.81,1.25,5.81,1.25,-1.26,-1.17,-1.36,4.55,4.55,4.56
88.97,5.81,1.31,5.81,1.31,-1.31,-1.21,-1.40,4.50,4.50,4.50
89.86,5.81,1.36,5.81,1.36,-1.36,-1.25,-1.43,4.45,4.45,4.45
90.76,5.81,1.41,5.81,1.41,-1.41,-1.28,-1.47,4.40,4.40,4.40
91.66,5.81,1.46,5.81,1.46,-1.46,-1.32,-1.51,4.35,4.35,4.35
92.58,5.81,1.52,5.81,1.52,-1.52,-1.36,-1.55,4.29,4.29,4.29
93.51,5.81,1.57,5.81,1.57,-1.57,-1.40,-1.59,4.24,4.24,4.24
94.44,5.81,1.61,5.81,1.61,-1.63,-1.44,-1.63,4.18,4.18,4.20
95.39,5.81,1.66,5.81,1.66,-1.68,-1.48,-1.68,4.13,4.13,4.15
96.34,5.81,1.71,5.81,1.71,-1.71,-1.52,-1.72,4.10,4.10,4.10
97.30,5.80,1.75,5.80,1.75,-1.72,-1.56,-1.77,4.08,4.08,4.05
98.28,5.79,1.79,5.80,1.80,-1.73,-1.60,-1.81,4.06,4.08,4.00
99.26,5.78,1.82,5.78,1.82,-1.74,-1.64,-1.86,4.04,4.04,3.96
100.25,5.74,1.83,5.67,1.76,-1.76,-1.68,-1.91,3.98,3.92,3.91
101.25,5.57,1.71,5.56,1.70,-1.78,-1.72,-1.96,3.78,3.78,3.86
102.27,5.38,1.57,5.49,1.68,-1.82,-1.76,-2.00,3.56,3.67,3.81
103.29,5.52,1.76,5.49,1.72,-1.84,-1.80,-2.05,3.68,3.64,3.76
104.32,5.60,1.88,5.60,1.88,-1.87,-1.84,-2.10,3.73,3.73,3.72
105.37,5.67,2.00,5.70,2.03,-1.89,-1.88,-2.15,3.78,3.80,3.67
106.42,5.77,2.15,5.67,2.05,-1.92,-1.93,-2.20,3.85,3.75,3.62
107.48,5.57,2.01,5.58,2.02,-1.95,-1.97,-2.25,3.62,3.63,3.56
108.56,5.40,1.89,5.47,1.96,-1.98,-2.01,-2.29,3.42,3.49,3.51
109.64,5.38,1.92,5.37,1.91,-2.00,-2.05,-2.34,3.38,3.37,3.46
110.74,5.36,1.96,5.34,1.94,-2.01,-2.09,-2.38,3.35,3.34,3.40
111.85,5.34,1.98,5.34,1.99,-2.01,-2.14,-2.43,3.33,3.33,3.36
112.97,5.33,2.03,5.33,2.03,-2.03,-2.18,-2.47,3.30,3.31,3.30
114.10,5.33,2.08,5.33,2.08,-2.06,-2.22,-2.51,3.27,3.26,3.25
115.24,5.33,2.13,5.33,2.13,-2.11,-2.26,-2.55,3.22,3.21,3.20
116.39,5.33,2.18,5.33,2.18,-2.17,-2.30,-2.58,3.16,3.16,3.15
117.55,5.33,2.22,5.33,2.22,-2.23,-2.35,-2.61,3.10,3.11,3.11
118.73,5.34,2.27,5.34,2.26,-2.27,-2.39,-2.64,3.07,3.06,3.07
119.92,5.34,2.30,5.34,2.31,-2.31,-2.43,-2.67,3.03,3.03,3.04
121.12,5.35,2.35,5.36,2.35,-2.34,-2.47,-2.70,3.01,3.01,3.00
122.33,5.36,2.39,5.36,2.39,-2.36,-2.51,-2.72,2.99,3.00,2.97
123.55,5.37,2.43,5.35,2.42,-2.38,-2.55,-2.74,2.99,2.98,2.94
124.79,5.32,2.41,5.32,2.41,-2.39,-2.60,-2.75,2.93,2.94,2.91
126.03,5.28,2.40,5.27,2.39,-2.40,-2.64,-2.76,2.88,2.88,2.88
127.29,5.22,2.36,5.23,2.37,-2.40,-2.68,-2.77,2.82,2.82,2.86
128.57,5.19,2.37,5.20,2.38,-2.41,-2.72,-2.77,2.78,2.79,2.82
129.85,5.20,2.41,5.19,2.40,-2.42,-2.75,-2.78,2.78,2.77,2.79
131.15,5.20,2.44,5.20,2.44,-2.44,-2.79,-2.77,2.76,2.76,2.76
132.46,5.21,2.48,5.21,2.48,-2.47,-2.83,-2.77,2.74,2.74,2.73
133.79,5.21,2.51,5.21,2.51,-2.50,-2.87,-2.76,2.71,2.71,2.70
135.12,5.22,2.55,5.22,2.54,-2.53,-2.90,-2.75,2.68,2.68,2.67
136.48,5.22,2.57,5.22,2.57,-2.57,-2.94,-2.74,2.65,2.65,2.65
137.84,5.22,2.61,5.22,2.61,-2.60,-2.97,-2.73,2.62,2.62,2.61
139.22,5.22,2.64,5.22,2.64,-2.64,-3.01,-2.71,2.58,2.59,2.58
140.61,5.23,2.68,5.23,2.67,-2.68,-3.04,-2.70,2.55,2.55,2.55
142.02,5.23,2.70,5.23,2.70,-2.72,-3.07,-2.68,2.51,2.50,2.53
143.44,5.23,2.73,5.22,2.72,-2.77,-3.10,-2.66,2.46,2.45,2.50
144.87,5.23,2.77,5.25,2.79,-2.81,-3.13,-2.64,2.42,2.44,2.46
146.32,5.26,2.84,5.31,2.88,-2.85,-3.16,-2.62,2.40,2.46,2.42
147.78,5.40,3.01,5.33,2.94,-2.89,-3.18,-2.60,2.51,2.44,2.39
149.26,5.35,3.01,5.30,2.96,-2.91,-3.21,-2.58,2.44,2.39,2.34
150.75,5.17,2.89,5.23,2.95,-2.93,-3.23,-2.56,2.24,2.30,2.28
152.26,5.13,2.92,5.16,2.95,-2.95,-3.25,-2.54,2.18,2.21,2.21
153.78,5.13,2.99,5.12,2.98,-2.99,-3.27,-2.52,2.14,2.13,2.14
155.32,5.13,3.06,5.05,2.99,-3.03,-3.29,-2.50,2.10,2.02,2.07
156.88,4.97,2.98,4.97,2.98,-3.07,-3.31,-2.49,1.90,1.90,1.99
158.44,4.84,2.93,4.93,3.02,-3.11,-3.33,-2.47,1.73,1.82,1.91
160.03,4.96,3.13,4.99,3.16,-3.15,-3.34,-2.46,1.81,1.84,1.83
161.63,5.12,3.36,5.10,3.34,-3.21,-3.35,-2.44,1.91,1.89,1.76
163.24,5.21,3.51,5.08,3.38,-3.26,-3.36,-2.43,1.95,1.82,1.70
164.88,4.99,3.34,4.94,3.29,-3.30,-3.37,-2.42,1.69,1.64,1.65
166.53,4.64,3.04,4.85,3.25,-3.32,-3.38,-2.41,1.32,1.53,1.60
168.19,4.79,3.23,4.83,3.27,-3.33,-3.38,-2.41,1.46,1.49,1.56
169.87,5.05,3.53,4.86,3.34,-3.33,-3.39,-2.40,1.72,1.53,1.52
171.57,4.87,3.37,4.88,3.38,-3.31,-3.39,-2.40,1.56,1.57,1.50
173.29,4.74,3.25,4.80,3.31,-3.28,-3.39,-2.40,1.46,1.52,1.49
175.02,4.68,3.20,4.69,3.21,-3.25,-3.39,-2.40,1.43,1.44,1.48
176.77,4.68,3.21,4.67,3.20,-3.22,-3.38,-2.40,1.46,1.45,1.47
178.54,4.68,3.22,4.69,3.22,-3.18,-3.38,-2.41,1.50,1.51,1.46
180.32,4.68,3.21,4.67,3.20,-3.14,-3.37,-2.42,1.54,1.53,1.47
182.13,4.66,3.18,4.58,3.11,-3.11,-3.36,-2.42,1.55,1.47,1.48
183.95,4.47,3.00,4.51,3.04,-3.10,-3.35,-2.43,1.37,1.42,1.47
185.79,4.40,2.93,4.49,3.03,-3.11,-3.33,-2.45,1.29,1.38,1.47
187.65,4.58,3.13,4.52,3.07,-3.14,-3.32,-2.46,1.44,1.39,1.45
189.52,4.64,3.20,4.61,3.17,-3.17,-3.30,-2.48,1.47,1.44,1.44
191.42,4.65,3.23,4.66,3.24,-3.21,-3.29,-2.50,1.44,1.45,1.42
193.33,4.67,3.27,4.67,3.27,-3.25,-3.27,-2.51,1.42,1.42,1.40
195.27,4.68,3.30,4.71,3.33,-3.29,-3.24,-2.53,1.39,1.42,1.38
197.22,4.74,3.38,4.73,3.37,-3.31,-3.22,-2.56,1.42,1.42,1.36
199.19,4.76,3.42,4.71,3.37,-3.32,-3.20,-2.58,1.44,1.39,1.34
201.18,4.65,3.33,4.65,3.33,-3.31,-3.17,-2.60,1.34,1.34,1.32
203.19,4.54,3.24,4.58,3.28,-3.30,-3.14,-2.63,1.24,1.28,1.30
205.23,4.52,3.24,4.52,3.24,-3.29,-3.12,-2.66,1.23,1.23,1.28
207.28,4.52,3.25,4.51,3.25,-3.29,-3.09,-2.68,1.23,1.22,1.27
209.35,4.52,3.27,4.52,3.27,-3.31,-3.06,-2.71,1.21,1.21,1.25
211.44,4.52,3.30,4.50,3.27,-3.33,-3.02,-2.73,1.19,1.17,1.22
213.56,4.51,3.30,4.53,3.32,-3.34,-2.99,-2.76,1.17,1.20,1.21
215.69,4.51,3.31,4.58,3.38,-3.33,-2.96,-2.79,1.18,1.25,1.20
217.85,4.71,3.52,4.60,3.41,-3.31,-2.92,-2.81,1.40,1.29,1.19
220.03,4.59,3.41,4.59,3.42,-3.28,-2.89,-2.84,1.31,1.31,1.18
222.23,4.45,3.30,4.50,3.34,-3.26,-2.85,-2.86,1.18,1.24,1.15
224.45,4.40,3.24,4.29,3.14,-3.24,-2.82,-2.88,1.16,1.05,1.16
226.70,4.17,3.01,4.20,3.04,-3.22,-2.78,-2.90,0.95,0.98,1.16
228.96,4.05,2.88,4.23,3.06,-3.19,-2.74,-2.92,0.86,1.04,1.17
231.25,4.41,3.23,4.30,3.12,-3.17,-2.70,-2.93,1.24,1.14,1.18
233.57,4.53,3.34,4.44,3.25,-3.15,-2.66,-2.95,1.38,1.29,1.19
235.90,4.39,3.19,4.46,3.26,-3.13,-2.62,-2.96,1.26,1.33,1.20
238.26,4.43,3.22,4.36,3.14,-3.11,-2.58,-2.96,1.32,1.25,1.21
240.64,4.23,2.99,4.33,3.09,-3.09,-2.54,-2.96,1.14,1.24,1.24
243.05,4.29,3.02,4.33,3.07,-3.04,-2.50,-2.96,1.25,1.29,1.27
245.48,4.41,3.12,4.24,2.94,-2.97,-2.46,-2.96,1.44,1.27,1.29
247.93,4.17,2.85,4.20,2.88,-2.90,-2.42,-2.95,1.27,1.30,1.32
250.41,3.96,2.62,4.12,2.78,-2.81,-2.38,-2.94,1.15,1.31,1.34
252.92,4.17,2.80,4.06,2.69,-2.74,-2.34,-2.92,1.43,1.32,1.37
255.45,4.08,2.69,4.05,2.67,-2.66,-2.29,-2.90,1.42,1.39,1.39
258.00,4.01,2.60,4.05,2.64,-2.59,-2.25,-2.87,1.42,1.46,1.41
260.58,3.98,2.55,4.01,2.58,-2.53,-2.21,-2.84,1.45,1.48,1.43
263.19,3.98,2.52,3.96,2.50,-2.49,-2.17,-2.81,1.49,1.47,1.46
265.82,3.98,2.50,3.86,2.38,-2.46,-2.13,-2.78,1.52,1.41,1.48
268.48,3.72,2.22,3.82,2.32,-2.42,-2.09,-2.74,1.30,1.40,1.50
271.16,3.73,2.20,3.85,2.33,-2.37,-2.04,-2.69,1.36,1.48,1.53
273.87,4.02,2.47,3.89,2.34,-2.30,-2.00,-2.65,1.72,1.59,1.55
276.61,4.01,2.43,3.95,2.37,-2.22,-1.96,-2.60,1.78,1.72,1.58
279.38,3.82,2.21,3.90,2.29,-2.15,-1.92,-2.55,1.67,1.75,1.61
282.17,3.77,2.14,3.74,2.10,-2.08,-1.88,-2.50,1.69,1.66,1.63
284.99,3.63,1.96,3.61,1.94,-2.01,-1.84,-2.44,1.61,1.59,1.67
287.84,3.48,1.79,3.53,1.84,-1.95,-1.80,-2.39,1.53,1.58,1.69
290.72,3.48,1.76,3.46,1.74,-1.88,-1.76,-2.33,1.60,1.58,1.72
293.63,3.52,1.77,3.52,1.77,-1.82,-1.72,-2.27,1.70,1.71,1.75
296.57,3.50,1.72,3.61,1.83,-1.76,-1.68,-2.21,1.74,1.85,1.78
299.53,3.80,1.99,3.58,1.77,-1.71,-1.64,-2.15,2.09,1.87,1.81
302.53,3.53,1.70,3.56,1.72,-1.66,-1.60,-2.09,1.87,1.90,1.83
305.55,3.33,1.46,3.55,1.68,-1.61,-1.56,-2.03,1.72,1.94,1.87
308.61,3.59,1.70,3.43,1.54,-1.55,-1.52,-1.97,2.04,1.88,1.89
311.69,3.46,1.54,3.36,1.44,-1.48,-1.48,-1.91,1.98,1.88,1.92
314.81,3.15,1.21,3.29,1.35,-1.39,-1.44,-1.85,1.76,1.90,1.94
317.96,3.15,1.19,3.19,1.23,-1.30,-1.41,-1.79,1.85,1.89,1.96
321.14,3.25,1.28,3.18,1.21,-1.22,-1.37,-1.73,2.03,1.96,1.97
324.35,3.19,1.20,3.18,1.19,-1.14,-1.33,-1.67,2.05,2.04,1.99
327.59,3.14,1.14,3.12,1.12,-1.07,-1.30,-1.61,2.07,2.05,2.00
330.87,2.94,0.93,2.99,0.97,-0.99,-1.26,-1.55,1.95,2.00,2.01
334.18,2.94,0.91,2.89,0.86,-0.90,-1.22,-1.50,2.04,1.99,2.03
337.52,2.76,0.72,2.85,0.81,-0.78,-1.19,-1.44,1.98,2.07,2.04
340.90,2.81,0.76,2.78,0.73,-0.66,-1.15,-1.39,2.15,2.12,2.05
344.30,2.77,0.71,2.65,0.60,-0.54,-1.12,-1.33,2.23,2.11,2.06
347.75,2.44,0.38,2.55,0.49,-0.45,-1.08,-1.28,1.99,2.10,2.06
351.23,2.36,0.29,2.35,0.29,-0.38,-1.05,-1.23,1.98,1.97,2.07
354.74,2.30,0.24,2.19,0.12,-0.31,-1.01,-1.18,1.99,1.87,2.06
358.28,2.06,-0.01,2.23,0.16,-0.24,-0.98,-1.13,1.82,1.99,2.07
361.87,2.22,0.15,2.31,0.24,-0.17,-0.94,-1.08,2.05,2.14,2.07
365.49,2.57,0.49,2.34,0.26,-0.11,-0.91,-1.03,2.45,2.22,2.08
369.14,2.34,0.27,2.32,0.25,-0.07,-0.88,-0.98,2.26,2.24,2.07
372.83,2.03,-0.04,2.11,0.05,-0.04,-0.84,-0.94,1.99,2.07,2.07
376.56,1.95,-0.11,1.96,-0.11,-0.03,-0.81,-0.89,1.92,1.93,2.06
380.33,1.85,-0.22,1.98,-0.09,-0.01,-0.78,-0.85,1.84,1.97,2.07
384.13,2.17,0.10,2.01,-0.05,0.02,-0.74,-0.80,2.19,2.03,2.07
387.97,2.10,0.04,2.01,-0.06,0.05,-0.71,-0.76,2.15,2.06,2.06
391.85,1.87,-0.18,2.04,-0.02,0.07,-0.68,-0.72,1.94,2.11,2.05
395.77,1.99,-0.07,2.04,-0.01,0.07,-0.65,-0.67,2.06,2.12,2.06
399.73,2.22,0.17,2.07,0.02,0.04,-0.62,-0.63,2.26,2.11,2.05
403.72,2.11,0.06,2.05,0.00,-0.00,-0.59,-0.59,2.10,2.04,2.05
407.76,1.90,-0.13,1.97,-0.06,-0.04,-0.56,-0.55,1.86,1.94,2.03
411.84,1.85,-0.18,1.96,-0.07,-0.07,-0.52,-0.52,1.78,1.89,2.03
415.96,2.11,0.08,2.07,0.04,-0.09,-0.49,-0.48,2.01,1.98,2.03
420.12,2.30,0.27,2.21,0.18,-0.10,-0.46,-0.44,2.20,2.11,2.03
424.32,2.26,0.23,2.28,0.25,-0.10,-0.43,-0.40,2.16,2.18,2.03
428.56,2.22,0.18,2.23,0.20,-0.08,-0.40,-0.37,2.14,2.15,2.04
432.85,2.16,0.11,2.14,0.09,-0.06,-0.37,-0.33,2.10,2.08,2.05
437.18,2.06,-0.00,2.06,-0.01,-0.03,-0.34,-0.29,2.03,2.03,2.06
441.55,1.99,-0.11,2.00,-0.09,0.01,-0.31,-0.26,2.00,2.01,2.10
445.96,1.97,-0.16,1.98,-0.14,0.07,-0.28,-0.22,2.04,2.06,2.13
450.42,2.02,-0.14,2.02,-0.15,0.12,-0.25,-0.19,2.14,2.14,2.16
454.93,2.08,-0.13,2.06,-0.14,0.15,-0.22,-0.16,2.23,2.21,2.21
459.48,2.13,-0.12,2.11,-0.15,0.16,-0.20,-0.12,2.28,2.26,2.25
464.07,2.12,-0.18,2.16,-0.15,0.15,-0.17,-0.09,2.27,2.31,2.30
468.71,2.21,-0.15,2.21,-0.14,0.14,-0.14,-0.06,2.35,2.36,2.36
473.40,2.30,-0.10,2.28,-0.12,0.14,-0.11,-0.02,2.43,2.42,2.40
478.13,2.35,-0.11,2.35,-0.10,0.13,-0.08,0.01,2.48,2.48,2.46
482.91,2.40,-0.10,2.38,-0.12,0.13,-0.05,0.04,2.53,2.51,2.50
487.74,2.40,-0.14,2.40,-0.15,0.13,-0.02,0.07,2.53,2.53,2.54
492.62,2.39,-0.20,2.43,-0.15,0.14,0.01,0.10,2.53,2.57,2.59
497.55,2.48,-0.13,2.46,-0.15,0.15,0.04,0.14,2.63,2.62,2.61
502.52,2.53,-0.11,2.49,-0.15,0.16,0.07,0.17,2.69,2.65,2.64
507.55,2.48,-0.17,2.50,-0.15,0.17,0.09,0.20,2.65,2.66,2.65
512.62,2.47,-0.19,2.48,-0.18,0.17,0.12,0.23,2.64,2.65,2.66
517.75,2.47,-0.20,2.47,-0.20,0.16,0.15,0.26,2.63,2.63,2.67
522.93,2.47,-0.19,2.47,-0.19,0.16,0.18,0.29,2.63,2.63,2.66
528.16,2.46,-0.17,2.46,-0.17,0.17,0.21,0.32,2.63,2.63,2.63
533.44,2.45,-0.15,2.46,-0.15,0.18,0.24,0.36,2.63,2.64,2.60
538.77,2.42,-0.15,2.42,-0.15,0.20,0.27,0.39,2.62,2.62,2.57
544.16,2.38,-0.14,2.34,-0.18,0.22,0.30,0.42,2.60,2.55,2.52
549.60,2.21,-0.26,2.23,-0.24,0.23,0.33,0.45,2.44,2.46,2.47
555.10,2.09,-0.32,2.12,-0.30,0.26,0.35,0.49,2.35,2.37,2.41
