frequency,raw,error,smoothed,error_smoothed,equalization,parametric_eq,fixed_band_eq,equalized_raw,equalized_smoothed,target
20.00,-23.20,-24.58,-23.21,-24.62,24.62,25.20,10.48,1.43,1.41,1.39
20.20,-23.06,-24.48,-23.07,-24.51,24.51,25.01,10.66,1.45,1.44,1.43
20.40,-22.91,-24.37,-22.92,-24.39,24.39,24.83,10.86,1.48,1.47,1.46
20.61,-22.78,-24.27,-22.78,-24.27,24.27,24.64,11.05,1.49,1.49,1.49
20.81,-22.64,-24.17,-22.63,-24.15,24.15,24.46,11.25,1.51,1.52,1.53
21.02,-22.51,-24.07,-22.49,-24.03,24.03,24.28,11.46,1.52,1.54,1.57
21.23,-22.36,-23.93,-22.34,-23.90,23.90,24.10,11.67,1.54,1.56,1.58
21.44,-22.20,-23.80,-22.19,-23.77,23.77,23.93,11.89,1.57,1.58,1.60
21.66,-22.06,-23.68,-22.04,-23.64,23.64,23.76,12.11,1.58,1.60,1.62
21.87,-21.90,-23.53,-21.89,-23.51,23.51,23.59,12.34,1.61,1.62,1.63
22.09,-21.74,-23.38,-21.74,-23.37,23.37,23.42,12.57,1.63,1.63,1.64
22.31,-21.58,-23.22,-21.59,-23.24,23.24,23.25,12.81,1.65,1.65,1.64
22.54,-21.43,-23.08,-21.43,-23.09,23.09,23.09,13.05,1.66,1.66,1.65
22.76,-21.26,-22.92,-21.27,-22.94,22.94,22.93,13.31,1.67,1.67,1.66
22.99,-21.11,-22.76,-21.11,-22.78,22.78,22.77,13.57,1.68,1.67,1.66
23.22,-20.96,-22.62,-20.95,-22.63,22.63,22.61,13.84,1.67,1.68,1.67
23.45,-20.80,-22.48,-20.79,-22.48,22.48,22.45,14.11,1.67,1.69,1.68
23.69,-20.66,-22.35,-20.64,-22.33,22.33,22.29,14.40,1.68,1.69,1.69
23.92,-20.51,-22.21,-20.50,-22.19,22.19,22.14,14.69,1.68,1.69,1.70
24.16,-20.35,-22.06,-20.36,-22.06,22.06,21.98,14.99,1.70,1.70,1.71
24.40,-20.19,-21.91,-20.22,-21.92,21.92,21.83,15.30,1.73,1.70,1.72
24.65,-20.05,-21.76,-20.08,-21.79,21.79,21.68,15.63,1.74,1.70,1.71
24.89,-19.88,-21.59,-19.95,-21.65,21.65,21.53,15.96,1.77,1.71,1.71
25.14,-19.76,-21.47,-19.81,-21.52,21.52,21.38,16.31,1.76,1.71,1.71
25.39,-19.67,-21.38,-19.68,-21.39,21.39,21.23,16.66,1.72,1.71,1.71
25.65,-19.59,-21.29,-19.55,-21.26,21.26,21.08,17.03,1.68,1.71,1.71
25.91,-19.50,-21.19,-19.43,-21.13,21.13,20.94,17.41,1.64,1.71,1.69
26.16,-19.36,-21.06,-19.30,-21.01,21.01,20.79,17.81,1.64,1.70,1.70
26.43,-19.21,-20.91,-19.18,-20.88,20.88,20.65,18.22,1.67,1.70,1.70
26.69,-19.05,-20.74,-19.06,-20.76,20.76,20.50,18.64,1.71,1.70,1.70
26.96,-18.90,-20.60,-18.94,-20.63,20.63,20.36,19.08,1.73,1.69,1.70
27.23,-18.77,-20.47,-18.81,-20.50,20.50,20.21,19.54,1.73,1.69,1.70
27.50,-18.65,-20.34,-18.67,-20.36,20.36,20.07,20.00,1.72,1.69,1.70
27.77,-18.52,-20.21,-18.53,-20.22,20.22,19.93,20.49,1.70,1.69,1.69
28.05,-18.40,-20.09,-18.39,-20.07,20.07,19.79,20.98,1.67,1.69,1.69
28.33,-18.26,-19.93,-18.24,-19.92,19.92,19.65,21.49,1.66,1.68,1.67
28.62,-18.14,-19.82,-18.09,-19.77,19.77,19.51,22.00,1.63,1.68,1.68
28.90,-18.00,-19.68,-17.94,-19.62,19.62,19.37,22.51,1.62,1.68,1.68
29.19,-17.83,-19.49,-17.79,-19.47,19.47,19.23,23.01,1.64,1.68,1.67
29.48,-17.63,-19.31,-17.64,-19.32,19.32,19.09,23.49,1.68,1.67,1.68
29.78,-17.45,-19.13,-17.49,-19.16,19.16,18.95,23.94,1.71,1.67,1.68
30.08,-17.27,-18.95,-17.34,-19.00,19.00,18.81,24.35,1.73,1.66,1.68
30.38,-17.14,-18.80,-17.18,-18.84,18.84,18.67,24.68,1.71,1.66,1.66
30.68,-17.02,-18.67,-17.02,-18.68,18.68,18.54,24.92,1.66,1.66,1.66
30.99,-16.90,-18.55,-16.86,-18.51,18.51,18.40,25.06,1.62,1.65,1.65
31.30,-16.73,-18.38,-16.70,-18.35,18.35,18.26,25.09,1.62,1.65,1.65
31.61,-16.57,-18.21,-16.54,-18.19,18.19,18.13,25.00,1.62,1.64,1.65
31.93,-16.41,-18.04,-16.39,-18.03,18.03,17.99,24.81,1.62,1.64,1.63
32.24,-16.25,-17.87,-16.25,-17.88,17.88,17.85,24.52,1.63,1.63,1.62
32.57,-16.12,-17.74,-16.11,-17.74,17.74,17.72,24.16,1.62,1.63,1.62
32.89,-15.97,-17.59,-15.97,-17.59,17.59,17.58,23.75,1.62,1.62,1.62
33.22,-15.81,-17.43,-15.83,-17.45,17.45,17.45,23.30,1.64,1.61,1.62
33.55,-15.65,-17.26,-15.70,-17.31,17.31,17.31,22.82,1.66,1.61,1.61
33.89,-15.50,-17.10,-15.57,-17.18,17.18,17.18,22.34,1.68,1.61,1.61
34.23,-15.40,-17.00,-15.44,-17.04,17.04,17.05,21.85,1.64,1.60,1.61
34.57,-15.32,-16.91,-15.31,-16.90,16.90,16.91,21.37,1.59,1.60,1.60
34.92,-15.25,-16.84,-15.18,-16.77,16.77,16.78,20.90,1.52,1.59,1.59
35.27,-15.11,-16.70,-15.05,-16.63,16.63,16.65,20.44,1.53,1.59,1.59
35.62,-14.95,-16.53,-14.92,-16.50,16.50,16.51,20.00,1.56,1.58,1.58
35.97,-14.78,-16.35,-14.80,-16.37,16.37,16.38,19.57,1.59,1.57,1.57
36.33,-14.68,-16.25,-14.68,-16.25,16.25,16.25,19.15,1.56,1.57,1.57
36.70,-14.59,-16.15,-14.56,-16.12,16.12,16.11,18.75,1.54,1.56,1.57
37.06,-14.47,-16.02,-14.45,-16.00,16.00,15.98,18.36,1.53,1.55,1.55
37.43,-14.29,-15.84,-14.34,-15.88,15.88,15.85,17.99,1.59,1.55,1.55
37.81,-14.13,-15.66,-14.21,-15.76,15.76,15.72,17.64,1.63,1.54,1.54
38.19,-14.01,-15.54,-14.08,-15.62,15.62,15.59,17.30,1.61,1.53,1.53
38.57,-13.94,-15.46,-13.95,-15.48,15.48,15.46,16.97,1.54,1.53,1.53
38.95,-13.86,-15.38,-13.82,-15.34,15.34,15.33,16.65,1.48,1.52,1.52
39.34,-13.76,-15.27,-13.70,-15.22,15.22,15.20,16.35,1.45,1.51,1.51
39.74,-13.67,-15.15,-13.59,-15.09,15.09,15.07,16.05,1.43,1.51,1.49
40.14,-13.54,-15.04,-13.46,-14.96,14.96,14.94,15.77,1.43,1.50,1.50
40.54,-13.37,-14.86,-13.34,-14.82,14.82,14.81,15.50,1.46,1.49,1.49
40.94,-13.19,-14.68,-13.21,-14.68,14.68,14.68,15.24,1.49,1.48,1.49
41.35,-13.02,-14.49,-13.08,-14.54,14.54,14.55,14.99,1.51,1.46,1.47
41.76,-12.86,-14.31,-12.96,-14.40,14.40,14.42,14.74,1.54,1.44,1.45
42.18,-12.76,-14.19,-12.84,-14.26,14.26,14.29,14.51,1.51,1.42,1.44
42.60,-12.74,-14.14,-12.71,-14.11,14.11,14.17,14.29,1.38,1.40,1.41
43.03,-12.71,-14.10,-12.58,-13.96,13.96,14.04,14.07,1.25,1.37,1.40
43.46,-12.51,-13.87,-12.46,-13.81,13.81,13.91,13.86,1.31,1.35,1.37
43.90,-12.31,-13.63,-12.35,-13.67,13.67,13.78,13.66,1.37,1.32,1.32
44.33,-12.18,-13.47,-12.25,-13.54,13.54,13.66,13.46,1.36,1.30,1.29
44.78,-12.09,-13.34,-12.15,-13.42,13.42,13.53,13.28,1.33,1.27,1.26
45.23,-12.02,-13.25,-12.05,-13.29,13.29,13.41,13.10,1.28,1.24,1.23
45.68,-11.99,-13.18,-11.95,-13.16,13.16,13.28,12.92,1.18,1.22,1.20
46.13,-11.91,-13.09,-11.84,-13.04,13.04,13.16,12.75,1.12,1.20,1.18
46.60,-11.74,-12.91,-11.74,-12.92,12.92,13.03,12.59,1.18,1.18,1.17
47.06,-11.58,-12.72,-11.63,-12.79,12.79,12.91,12.43,1.22,1.16,1.15
47.53,-11.55,-12.69,-11.52,-12.67,12.67,12.79,12.28,1.13,1.15,1.15
48.01,-11.53,-12.67,-11.42,-12.56,12.56,12.66,12.14,1.03,1.14,1.15
48.49,-11.38,-12.50,-11.32,-12.46,12.46,12.54,12.00,1.08,1.14,1.13
48.97,-11.22,-12.34,-11.23,-12.36,12.36,12.42,11.86,1.13,1.13,1.12
49.46,-11.06,-12.17,-11.12,-12.25,12.25,12.30,11.73,1.19,1.13,1.11
49.96,-10.91,-12.02,-11.01,-12.14,12.14,12.17,11.60,1.23,1.13,1.11
50.46,-10.88,-11.99,-10.90,-12.02,12.02,12.05,11.48,1.14,1.12,1.12
50.96,-10.85,-11.97,-10.79,-11.90,11.90,11.93,11.36,1.05,1.11,1.13
51.47,-10.72,-11.83,-10.69,-11.79,11.79,11.81,11.24,1.07,1.10,1.12
51.99,-10.57,-11.67,-10.59,-11.68,11.68,11.69,11.13,1.11,1.09,1.10
52.51,-10.50,-11.58,-10.49,-11.56,11.56,11.58,11.02,1.06,1.07,1.09
53.03,-10.43,-11.48,-10.39,-11.43,11.43,11.46,10.91,1.00,1.04,1.06
53.56,-10.31,-11.33,-10.29,-11.30,11.30,11.34,10.81,1.00,1.01,1.03
54.10,-10.19,-11.18,-10.20,-11.18,11.18,11.22,10.70,0.99,0.98,0.99
54.64,-10.06,-11.00,-10.11,-11.05,11.05,11.11,10.60,0.99,0.94,0.94
55.18,-9.98,-10.86,-10.02,-10.92,10.92,10.99,10.50,0.94,0.89,0.89
55.74,-9.98,-10.81,-9.94,-10.78,10.78,10.88,10.41,0.80,0.84,0.84
56.29,-9.91,-10.70,-9.85,-10.63,10.63,10.76,10.31,0.72,0.79,0.79
56.86,-9.79,-10.52,-9.75,-10.48,10.48,10.65,10.21,0.70,0.73,0.73
57.42,-9.65,-10.31,-9.67,-10.34,10.34,10.53,10.12,0.68,0.67,0.66
58.00,-9.53,-10.12,-9.59,-10.20,10.20,10.42,10.02,0.67,0.61,0.60
58.58,-9.53,-10.06,-9.51,-10.06,10.06,10.31,9.93,0.53,0.55,0.54
59.16,-9.48,-9.97,-9.45,-9.93,9.93,10.20,9.83,0.45,0.48,0.49
59.76,-9.36,-9.79,-9.38,-9.80,9.80,10.09,9.73,0.45,0.42,0.43
60.35,-9.31,-9.66,-9.32,-9.68,9.68,9.98,9.64,0.38,0.36,0.36
60.96,-9.30,-9.60,-9.28,-9.58,9.58,9.87,9.54,0.28,0.30,0.31
61.57,-9.17,-9.41,-9.22,-9.46,9.46,9.76,9.44,0.30,0.24,0.24
62.18,-9.07,-9.23,-9.17,-9.35,9.35,9.65,9.34,0.28,0.18,0.17
62.80,-9.07,-9.19,-9.11,-9.24,9.24,9.54,9.23,0.18,0.13,0.13
63.43,-9.07,-9.13,-9.06,-9.14,9.14,9.44,9.13,0.08,0.08,0.07
64.07,-9.07,-9.09,-9.01,-9.04,9.04,9.33,9.03,-0.02,0.03,0.03
64.71,-9.03,-9.00,-8.96,-8.94,8.94,9.22,8.92,-0.08,-0.02,-0.02
65.35,-8.95,-8.88,-8.89,-8.83,8.83,9.12,8.81,-0.13,-0.06,-0.07
66.01,-8.84,-8.73,-8.82,-8.72,8.72,9.02,8.71,-0.11,-0.10,-0.10
66.67,-8.84,-8.69,-8.75,-8.61,8.61,8.91,8.60,-0.22,-0.14,-0.14
67.33,-8.72,-8.55,-8.67,-8.49,8.49,8.81,8.49,-0.23,-0.17,-0.17
68.01,-8.52,-8.31,-8.58,-8.37,8.37,8.71,8.38,-0.15,-0.20,-0.20
68.69,-8.43,-8.19,-8.49,-8.25,8.25,8.61,8.26,-0.17,-0.24,-0.23
69.37,-8.39,-8.11,-8.39,-8.13,8.13,8.51,8.15,-0.26,-0.27,-0.27
70.07,-8.37,-8.06,-8.29,-7.99,7.99,8.41,8.04,-0.37,-0.30,-0.30
70.77,-8.21,-7.89,-8.18,-7.86,7.86,8.32,7.93,-0.35,-0.33,-0.31
71.48,-8.05,-7.70,-8.09,-7.73,7.73,8.22,7.82,-0.32,-0.36,-0.35
72.19,-7.93,-7.55,-8.00,-7.61,7.61,8.12,7.71,-0.31,-0.39,-0.37
72.91,-7.92,-7.51,-7.91,-7.50,7.50,8.03,7.60,-0.43,-0.42,-0.41
73.64,-7.78,-7.33,-7.83,-7.38,7.38,7.94,7.49,-0.39,-0.45,-0.44
74.38,-7.70,-7.22,-7.74,-7.27,7.27,7.84,7.38,-0.43,-0.48,-0.47
75.12,-7.69,-7.18,-7.67,-7.17,7.17,7.75,7.28,-0.52,-0.51,-0.50
75.87,-7.64,-7.11,-7.60,-7.07,7.07,7.66,7.17,-0.57,-0.53,-0.53
76.63,-7.54,-6.97,-7.54,-6.98,6.98,7.58,7.07,-0.56,-0.56,-0.56
77.40,-7.48,-6.88,-7.48,-6.89,6.89,7.49,6.97,-0.58,-0.59,-0.59
78.17,-7.48,-6.85,-7.42,-6.81,6.81,7.40,6.87,-0.66,-0.61,-0.62
78.95,-7.47,-6.84,-7.37,-6.74,6.74,7.32,6.77,-0.73,-0.63,-0.63
79.74,-7.31,-6.65,-7.34,-6.69,6.69,7.24,6.68,-0.62,-0.65,-0.65
80.54,-7.25,-6.57,-7.30,-6.64,6.64,7.16,6.59,-0.61,-0.67,-0.67
81.35,-7.25,-6.55,-7.28,-6.60,6.60,7.08,6.50,-0.64,-0.68,-0.69
82.16,-7.25,-6.55,-7.27,-6.58,6.58,7.00,6.41,-0.66,-0.69,-0.69
82.98,-7.25,-6.55,-7.27,-6.57,6.57,6.93,6.32,-0.67,-0.69,-0.69
83.81,-7.25,-6.54,-7.27,-6.57,6.57,6.86,6.24,-0.68,-0.70,-0.70
84.65,-7.25,-6.53,-7.28,-6.58,6.58,6.80,6.16,-0.67,-0.70,-0.71
85.50,-7.25,-6.54,-7.30,-6.60,6.60,6.73,6.09,-0.64,-0.70,-0.70
86.35,-7.25,-6.54,-7.33,-6.63,6.63,6.67,6.01,-0.61,-0.70,-0.70
87.22,-7.30,-6.59,-7.35,-6.66,6.66,6.62,5.94,-0.64,-0.70,-0.70
88.09,-7.47,-6.77,-7.38,-6.68,6.68,6.57,5.87,-0.79,-0.70,-0.70
88.97,-7.48,-6.79,-7.41,-6.71,6.71,6.53,5.80,-0.76,-0.70,-0.68
89.86,-7.48,-6.79,-7.43,-6.74,6.74,6.49,5.74,-0.74,-0.70,-0.68
90.76,-7.48,-6.77,-7.44,-6.74,6.74,6.46,5.68,-0.73,-0.70,-0.70
91.66,-7.48,-6.78,-7.44,-6.74,6.74,6.44,5.62,-0.74,-0.71,-0.69
92.58,-7.48,-6.75,-7.43,-6.72,6.72,6.42,5.56,-0.75,-0.71,-0.72
93.51,-7.48,-6.76,-7.42,-6.70,6.70,6.42,5.51,-0.78,-0.72,-0.71
94.44,-7.47,-6.73,-7.40,-6.66,6.66,6.41,5.46,-0.80,-0.73,-0.73
95.39,-7.38,-6.63,-7.37,-6.62,6.62,6.42,5.41,-0.76,-0.75,-0.74
96.34,-7.25,-6.46,-7.33,-6.56,6.56,6.42,5.36,-0.69,-0.77,-0.78
97.30,-7.25,-6.44,-7.27,-6.48,6.48,6.42,5.32,-0.76,-0.79,-0.80
98.28,-7.25,-6.42,-7.22,-6.41,6.41,6.40,5.28,-0.84,-0.82,-0.82
99.26,-7.19,-6.33,-7.18,-6.33,6.33,6.36,5.24,-0.86,-0.85,-0.85
100.25,-7.03,-6.14,-7.13,-6.25,6.25,6.30,5.20,-0.78,-0.88,-0.88
101.25,-7.02,-6.10,-7.07,-6.15,6.15,6.22,5.16,-0.86,-0.92,-0.91
102.27,-7.02,-6.06,-7.01,-6.05,6.05,6.10,5.13,-0.96,-0.96,-0.95
103.29,-7.02,-6.01,-6.95,-5.95,5.95,5.97,5.09,-1.06,-1.00,-1.00
104.32,-6.97,-5.92,-6.91,-5.85,5.85,5.83,5.06,-1.11,-1.05,-1.04
105.37,-6.85,-5.75,-6.86,-5.76,5.76,5.68,5.03,-1.09,-1.10,-1.09
106.42,-6.79,-5.64,-6.82,-5.66,5.66,5.53,5.00,-1.13,-1.16,-1.14
107.48,-6.79,-5.57,-6.77,-5.55,5.55,5.38,4.97,-1.24,-1.22,-1.21
108.56,-6.79,-5.49,-6.72,-5.43,5.43,5.24,4.94,-1.35,-1.29,-1.29
109.64,-6.65,-5.28,-6.68,-5.32,5.32,5.11,4.91,-1.33,-1.36,-1.36
110.74,-6.56,-5.13,-6.64,-5.21,5.21,4.98,4.88,-1.34,-1.43,-1.42
111.85,-6.56,-5.06,-6.60,-5.10,5.10,4.87,4.84,-1.46,-1.50,-1.49
112.97,-6.56,-4.97,-6.55,-4.98,4.98,4.75,4.81,-1.58,-1.58,-1.58
114.10,-6.56,-4.91,-6.50,-4.85,4.85,4.65,4.78,-1.70,-1.65,-1.64
115.24,-6.53,-4.80,-6.46,-4.74,4.74,4.55,4.75,-1.79,-1.72,-1.72
116.39,-6.41,-4.60,-6.42,-4.64,4.64,4.46,4.71,-1.77,-1.78,-1.80
117.55,-6.34,-4.47,-6.39,-4.54,4.54,4.37,4.68,-1.79,-1.85,-1.86
118.73,-6.34,-4.40,-6.34,-4.44,4.44,4.28,4.64,-1.90,-1.90,-1.93
119.92,-6.34,-4.36,-6.30,-4.34,4.34,4.20,4.60,-2.00,-1.96,-1.97
121.12,-6.33,-4.29,-6.25,-4.24,4.24,4.12,4.56,-2.08,-2.01,-2.03
122.33,-6.19,-4.11,-6.21,-4.16,4.16,4.04,4.51,-2.03,-2.06,-2.07
123.55,-6.11,-4.01,-6.17,-4.07,4.07,3.97,4.47,-2.04,-2.10,-2.09
124.79,-6.11,-3.97,-6.12,-3.98,3.98,3.89,4.42,-2.13,-2.14,-2.13
126.03,-6.11,-3.93,-6.07,-3.90,3.90,3.82,4.37,-2.21,-2.17,-2.17
127.29,-6.11,-3.90,-6.04,-3.83,3.83,3.76,4.31,-2.28,-2.21,-2.20
128.57,-6.06,-3.81,-6.01,-3.77,3.77,3.69,4.26,-2.29,-2.24,-2.24
129.85,-5.90,-3.62,-5.99,-3.71,3.71,3.62,4.20,-2.18,-2.27,-2.27
131.15,-5.88,-3.57,-5.96,-3.65,3.65,3.56,4.14,-2.22,-2.31,-2.30
132.46,-5.88,-3.54,-5.93,-3.59,3.59,3.50,4.07,-2.29,-2.34,-2.33
133.79,-5.88,-3.51,-5.90,-3.52,3.52,3.44,4.01,-2.35,-2.37,-2.36
135.12,-5.88,-3.46,-5.88,-3.47,3.47,3.38,3.94,-2.40,-2.40,-2.41
136.48,-5.88,-3.43,-5.86,-3.42,3.42,3.32,3.87,-2.45,-2.44,-2.44
137.84,-5.88,-3.40,-5.84,-3.37,3.37,3.26,3.80,-2.51,-2.47,-2.47
139.22,-5.88,-3.35,-5.81,-3.30,3.30,3.21,3.73,-2.57,-2.51,-2.52
140.61,-5.88,-3.30,-5.78,-3.23,3.23,3.15,3.66,-2.64,-2.55,-2.57
142.02,-5.77,-3.17,-5.75,-3.16,3.16,3.10,3.58,-2.61,-2.59,-2.59
143.44,-5.68,-3.04,-5.72,-3.09,3.09,3.05,3.51,-2.59,-2.63,-2.63
144.87,-5.65,-2.97,-5.69,-3.01,3.01,3.00,3.43,-2.64,-2.69,-2.67
146.32,-5.65,-2.92,-5.65,-2.91,2.91,2.94,3.35,-2.73,-2.74,-2.72
147.78,-5.65,-2.88,-5.62,-2.82,2.82,2.89,3.28,-2.83,-2.80,-2.76
149.26,-5.65,-2.81,-5.58,-2.71,2.71,2.84,3.20,-2.93,-2.86,-2.83
150.75,-5.55,-2.63,-5.54,-2.61,2.61,2.80,3.12,-2.93,-2.93,-2.91
152.26,-5.46,-2.47,-5.51,-2.51,2.51,2.75,3.05,-2.94,-3.00,-2.98
153.78,-5.43,-2.37,-5.48,-2.41,2.41,2.70,2.97,-3.01,-3.07,-3.05
155.32,-5.43,-2.27,-5.47,-2.32,2.32,2.66,2.89,-3.10,-3.14,-3.15
156.88,-5.43,-2.20,-5.46,-2.25,2.25,2.61,2.82,-3.18,-3.21,-3.22
158.44,-5.43,-2.13,-5.45,-2.17,2.17,2.57,2.74,-3.26,-3.28,-3.29
160.03,-5.43,-2.05,-5.44,-2.09,2.09,2.52,2.67,-3.33,-3.35,-3.37
161.63,-5.43,-1.99,-5.43,-2.02,2.02,2.48,2.59,-3.41,-3.41,-3.43
163.24,-5.43,-1.94,-5.41,-1.95,1.95,2.43,2.52,-3.48,-3.46,-3.48
164.88,-5.43,-1.90,-5.39,-1.89,1.89,2.39,2.45,-3.54,-3.50,-3.52
166.53,-5.43,-1.86,-5.38,-1.84,1.84,2.35,2.38,-3.59,-3.54,-3.56
168.19,-5.43,-1.83,-5.38,-1.81,1.81,2.31,2.31,-3.61,-3.56,-3.59
169.87,-5.43,-1.82,-5.37,-1.79,1.79,2.27,2.24,-3.64,-3.58,-3.60
171.57,-5.43,-1.81,-5.35,-1.75,1.75,2.23,2.17,-3.67,-3.59,-3.61
173.29,-5.29,-1.67,-5.32,-1.72,1.72,2.19,2.10,-3.56,-3.60,-3.61
175.02,-5.20,-1.60,-5.29,-1.69,1.69,2.15,2.04,-3.51,-3.60,-3.59
176.77,-5.20,-1.59,-5.26,-1.65,1.65,2.12,1.97,-3.54,-3.61,-3.60
178.54,-5.20,-1.60,-5.23,-1.62,1.62,2.08,1.91,-3.57,-3.60,-3.59
180.32,-5.20,-1.61,-5.19,-1.58,1.58,2.04,1.85,-3.61,-3.60,-3.58
182.13,-5.20,-1.61,-5.16,-1.55,1.55,2.01,1.78,-3.64,-3.61,-3.58
183.95,-5.20,-1.61,-5.13,-1.52,1.52,1.97,1.72,-3.67,-3.61,-3.58
185.79,-5.20,-1.60,-5.10,-1.49,1.49,1.94,1.66,-3.70,-3.61,-3.59
187.65,-5.03,-1.41,-5.08,-1.46,1.46,1.90,1.60,-3.57,-3.62,-3.61
189.52,-4.97,-1.33,-5.05,-1.42,1.42,1.87,1.55,-3.55,-3.63,-3.63
191.42,-4.97,-1.31,-5.02,-1.38,1.38,1.84,1.49,-3.59,-3.64,-3.65
193.33,-4.97,-1.29,-5.00,-1.34,1.34,1.80,1.43,-3.63,-3.66,-3.67
195.27,-4.97,-1.29,-4.97,-1.29,1.29,1.77,1.38,-3.67,-3.68,-3.67
197.22,-4.97,-1.27,-4.94,-1.24,1.24,1.74,1.33,-3.72,-3.70,-3.69
199.19,-4.97,-1.23,-4.90,-1.19,1.19,1.71,1.27,-3.78,-3.71,-3.73
201.18,-4.97,-1.23,-4.87,-1.14,1.14,1.68,1.22,-3.83,-3.73,-3.73
203.19,-4.92,-1.16,-4.85,-1.09,1.09,1.65,1.17,-3.82,-3.75,-3.75
205.23,-4.80,-1.01,-4.83,-1.06,1.06,1.62,1.12,-3.74,-3.77,-3.78
207.28,-4.74,-0.95,-4.82,-1.03,1.03,1.59,1.07,-3.70,-3.79,-3.78
209.35,-4.74,-0.93,-4.81,-1.01,1.01,1.56,1.03,-3.73,-3.80,-3.80
211.44,-4.74,-0.90,-4.79,-0.97,0.97,1.53,0.98,-3.76,-3.82,-3.83
213.56,-4.74,-0.90,-4.77,-0.94,0.94,1.50,0.94,-3.80,-3.83,-3.83
215.69,-4.74,-0.90,-4.74,-0.90,0.90,1.48,0.89,-3.84,-3.85,-3.83
217.85,-4.74,-0.87,-4.72,-0.86,0.86,1.45,0.85,-3.88,-3.86,-3.86
220.03,-4.74,-0.86,-4.68,-0.81,0.81,1.42,0.81,-3.92,-3.87,-3.87
222.23,-4.74,-0.84,-4.65,-0.77,0.77,1.40,0.77,-3.97,-3.88,-3.89
224.45,-4.74,-0.84,-4.63,-0.74,0.74,1.37,0.73,-4.00,-3.89,-3.89
226.70,-4.74,-0.84,-4.62,-0.72,0.72,1.35,0.70,-4.02,-3.90,-3.89
228.96,-4.59,-0.68,-4.61,-0.70,0.70,1.32,0.67,-3.88,-3.90,-3.90
231.25,-4.53,-0.62,-4.60,-0.69,0.69,1.30,0.63,-3.83,-3.91,-3.90
233.57,-4.51,-0.59,-4.59,-0.68,0.68,1.28,0.60,-3.82,-3.91,-3.91
235.90,-4.51,-0.58,-4.59,-0.68,0.68,1.25,0.57,-3.83,-3.91,-3.92
238.26,-4.51,-0.58,-4.58,-0.67,0.67,1.23,0.55,-3.84,-3.91,-3.92
240.64,-4.51,-0.58,-4.58,-0.67,0.67,1.21,0.52,-3.84,-3.91,-3.92
243.05,-4.52,-0.60,-4.59,-0.68,0.68,1.18,0.50,-3.84,-3.91,-3.91
245.48,-4.68,-0.77,-4.60,-0.70,0.70,1.16,0.48,-3.98,-3.91,-3.90
247.93,-4.74,-0.84,-4.63,-0.73,0.73,1.14,0.46,-4.01,-3.90,-3.89
250.41,-4.74,-0.83,-4.66,-0.76,0.76,1.12,0.45,-3.97,-3.90,-3.90
252.92,-4.74,-0.84,-4.71,-0.82,0.82,1.10,0.43,-3.92,-3.89,-3.89
255.45,-4.74,-0.87,-4.76,-0.88,0.88,1.08,0.42,-3.85,-3.88,-3.86
258.00,-4.74,-0.87,-4.82,-0.95,0.95,1.06,0.41,-3.79,-3.87,-3.86
260.58,-4.74,-0.87,-4.85,-1.00,1.00,1.04,0.40,-3.74,-3.86,-3.86
263.19,-4.76,-0.91,-4.88,-1.04,1.04,1.02,0.40,-3.72,-3.84,-3.84
265.82,-4.95,-1.10,-4.90,-1.07,1.07,1.00,0.39,-3.87,-3.83,-3.84
268.48,-4.97,-1.15,-4.91,-1.10,1.10,0.98,0.39,-3.87,-3.81,-3.81
271.16,-4.97,-1.16,-4.91,-1.11,1.11,0.96,0.39,-3.86,-3.80,-3.80
273.87,-4.97,-1.17,-4.88,-1.10,1.10,0.95,0.39,-3.87,-3.78,-3.79
276.61,-4.97,-1.21,-4.84,-1.09,1.09,0.93,0.39,-3.88,-3.76,-3.75
279.38,-4.97,-1.22,-4.80,-1.07,1.07,0.91,0.40,-3.89,-3.73,-3.74
282.17,-4.80,-1.08,-4.75,-1.04,1.04,0.89,0.40,-3.75,-3.71,-3.71
284.99,-4.69,-1.00,-4.68,-1.00,1.00,0.88,0.41,-3.69,-3.68,-3.68
287.84,-4.52,-0.85,-4.60,-0.94,0.94,0.86,0.42,-3.57,-3.65,-3.66
290.72,-4.51,-0.88,-4.51,-0.88,0.88,0.85,0.43,-3.62,-3.63,-3.62
293.63,-4.40,-0.79,-4.40,-0.81,0.81,0.83,0.44,-3.59,-3.60,-3.60
296.57,-4.30,-0.72,-4.30,-0.73,0.73,0.81,0.45,-3.57,-3.57,-3.57
299.53,-4.11,-0.56,-4.21,-0.66,0.66,0.80,0.47,-3.45,-3.55,-3.54
302.53,-4.06,-0.52,-4.11,-0.59,0.59,0.78,0.48,-3.47,-3.52,-3.53
305.55,-4.06,-0.56,-4.03,-0.52,0.52,0.77,0.50,-3.53,-3.50,-3.49
308.61,-4.00,-0.52,-3.96,-0.47,0.47,0.76,0.51,-3.53,-3.49,-3.47
311.69,-3.85,-0.38,-3.90,-0.43,0.43,0.74,0.53,-3.41,-3.47,-3.46
314.81,-3.83,-0.39,-3.87,-0.42,0.42,0.73,0.55,-3.41,-3.46,-3.43
317.96,-3.83,-0.39,-3.86,-0.41,0.41,0.72,0.57,-3.41,-3.45,-3.43
321.14,-3.83,-0.38,-3.86,-0.42,0.42,0.70,0.59,-3.40,-3.44,-3.44
324.35,-3.83,-0.39,-3.86,-0.44,0.44,0.69,0.61,-3.39,-3.43,-3.43
327.59,-3.83,-0.40,-3.87,-0.46,0.46,0.68,0.63,-3.37,-3.42,-3.42
330.87,-3.83,-0.41,-3.89,-0.48,0.48,0.67,0.65,-3.35,-3.41,-3.41
334.18,-3.83,-0.41,-3.90,-0.51,0.51,0.66,0.67,-3.32,-3.40,-3.41
337.52,-3.96,-0.55,-3.91,-0.53,0.53,0.64,0.69,-3.43,-3.38,-3.40
340.90,-4.04,-0.66,-3.92,-0.55,0.55,0.63,0.71,-3.49,-3.37,-3.37
344.30,-4.06,-0.69,-3.94,-0.58,0.58,0.62,0.74,-3.47,-3.36,-3.36
347.75,-4.06,-0.70,-3.95,-0.61,0.61,0.61,0.76,-3.44,-3.34,-3.35
351.23,-4.06,-0.73,-3.95,-0.63,0.63,0.60,0.79,-3.42,-3.32,-3.32
354.74,-3.96,-0.65,-3.94,-0.64,0.64,0.59,0.81,-3.31,-3.30,-3.30
358.28,-3.85,-0.57,-3.93,-0.65,0.65,0.59,0.84,-3.19,-3.27,-3.27
361.87,-3.83,-0.57,-3.91,-0.66,0.66,0.58,0.87,-3.17,-3.25,-3.25
365.49,-3.83,-0.59,-3.88,-0.66,0.66,0.57,0.89,-3.17,-3.23,-3.23
369.14,-3.83,-0.61,-3.85,-0.64,0.64,0.56,0.92,-3.18,-3.21,-3.21
372.83,-3.83,-0.64,-3.80,-0.62,0.62,0.55,0.95,-3.21,-3.19,-3.18
376.56,-3.83,-0.66,-3.75,-0.59,0.59,0.55,0.98,-3.24,-3.16,-3.16
380.33,-3.74,-0.60,-3.70,-0.55,0.55,0.54,1.01,-3.18,-3.15,-3.13
384.13,-3.63,-0.51,-3.65,-0.53,0.53,0.53,1.03,-3.10,-3.13,-3.11
387.97,-3.60,-0.49,-3.62,-0.51,0.51,0.53,1.06,-3.09,-3.11,-3.10
391.85,-3.60,-0.49,-3.59,-0.49,0.49,0.52,1.09,-3.11,-3.10,-3.10
395.77,-3.60,-0.50,-3.56,-0.47,0.47,0.52,1.12,-3.12,-3.09,-3.09
399.73,-3.54,-0.45,-3.52,-0.45,0.45,0.51,1.15,-3.09,-3.08,-3.08
403.72,-3.41,-0.33,-3.48,-0.41,0.41,0.51,1.18,-2.99,-3.07,-3.07
407.76,-3.37,-0.30,-3.44,-0.38,0.38,0.50,1.21,-2.99,-3.06,-3.06
411.84,-3.37,-0.31,-3.40,-0.34,0.34,0.50,1.24,-3.03,-3.06,-3.05
415.96,-3.37,-0.32,-3.35,-0.30,0.30,0.50,1.27,-3.07,-3.05,-3.04
