frequency,raw,error,smoothed,error_smoothed,equalization,parametric_eq,fixed_band_eq,equalized_raw,equalized_smoothed,target
20.00,17.50,5.98,17.50,5.98,-5.98,-6.17,-2.31,11.52,11.52,11.52
20.20,17.48,5.97,17.48,5.97,-5.97,-6.15,-2.37,11.51,11.51,11.51
20.40,17.46,5.96,17.46,5.96,-5.96,-6.14,-2.44,11.50,11.50,11.50
20.61,17.44,5.95,17.44,5.95,-5.95,-6.12,-2.51,11.49,11.49,11.49
20.81,17.42,5.95,17.42,5.94,-5.94,-6.11,-2.59,11.48,11.48,11.47
21.02,17.40,5.94,17.40,5.93,-5.93,-6.09,-2.66,11.47,11.46,11.46
21.23,17.38,5.93,17.38,5.92,-5.92,-6.07,-2.74,11.46,11.45,11.45
21.44,17.36,5.90,17.36,5.91,-5.91,-6.05,-2.82,11.45,11.45,11.46
21.66,17.33,5.89,17.34,5.90,-5.90,-6.03,-2.90,11.43,11.44,11.44
21.87,17.31,5.87,17.31,5.89,-5.89,-6.01,-2.98,11.42,11.43,11.44
22.09,17.29,5.87,17.29,5.87,-5.87,-5.99,-3.07,11.42,11.42,11.42
22.31,17.27,5.86,17.27,5.86,-5.86,-5.97,-3.16,11.41,11.41,11.41
22.54,17.25,5.85,17.24,5.84,-5.84,-5.95,-3.25,11.41,11.41,11.40
22.76,17.22,5.82,17.22,5.82,-5.82,-5.92,-3.34,11.40,11.40,11.40
22.99,17.20,5.81,17.20,5.80,-5.80,-5.90,-3.44,11.40,11.39,11.39
23.22,17.18,5.80,17.17,5.78,-5.78,-5.88,-3.54,11.40,11.39,11.38
23.45,17.15,5.76,17.15,5.76,-5.76,-5.85,-3.64,11.38,11.38,11.39
23.69,17.12,5.74,17.12,5.74,-5.74,-5.83,-3.74,11.38,11.38,11.38
23.92,17.10,5.73,17.10,5.72,-5.72,-5.80,-3.85,11.38,11.38,11.37
24.16,17.07,5.69,17.08,5.70,-5.70,-5.78,-3.95,11.37,11.37,11.38
24.40,17.05,5.67,17.05,5.68,-5.68,-5.75,-4.06,11.37,11.37,11.38
24.65,17.02,5.65,17.03,5.66,-5.66,-5.73,-4.17,11.36,11.37,11.37
24.89,17.00,5.63,17.00,5.63,-5.63,-5.70,-4.28,11.37,11.37,11.37
25.14,16.98,5.62,16.97,5.61,-5.61,-5.68,-4.39,11.37,11.37,11.36
25.39,16.95,5.59,16.95,5.59,-5.59,-5.65,-4.51,11.36,11.36,11.36
25.65,16.92,5.56,16.92,5.56,-5.56,-5.63,-4.62,11.36,11.36,11.36
25.91,16.90,5.54,16.90,5.53,-5.53,-5.60,-4.73,11.37,11.36,11.36
26.16,16.87,5.50,16.87,5.51,-5.51,-5.57,-4.85,11.36,11.36,11.37
26.43,16.85,5.49,16.84,5.48,-5.48,-5.55,-4.96,11.37,11.36,11.36
26.69,16.82,5.46,16.82,5.46,-5.46,-5.52,-5.07,11.36,11.36,11.36
26.96,16.79,5.43,16.79,5.43,-5.43,-5.49,-5.18,11.36,11.36,11.36
27.23,16.76,5.40,16.76,5.40,-5.40,-5.47,-5.29,11.36,11.36,11.36
27.50,16.73,5.37,16.73,5.37,-5.37,-5.44,-5.40,11.36,11.37,11.36
27.77,16.70,5.33,16.70,5.34,-5.34,-5.41,-5.50,11.36,11.37,11.37
28.05,16.67,5.31,16.68,5.31,-5.31,-5.39,-5.60,11.36,11.37,11.36
28.33,16.65,5.28,16.65,5.28,-5.28,-5.36,-5.69,11.37,11.37,11.37
28.62,16.62,5.25,16.62,5.25,-5.25,-5.34,-5.78,11.37,11.37,11.37
28.90,16.59,5.21,16.59,5.22,-5.22,-5.31,-5.86,11.37,11.37,11.38
29.19,16.56,5.18,16.56,5.19,-5.19,-5.29,-5.94,11.37,11.37,11.38
29.48,16.53,5.16,16.53,5.16,-5.16,-5.26,-6.01,11.37,11.37,11.37
29.78,16.50,5.13,16.50,5.13,-5.13,-5.23,-6.07,11.37,11.37,11.37
30.08,16.47,5.10,16.47,5.11,-5.11,-5.21,-6.13,11.36,11.36,11.37
30.38,16.44,5.09,16.44,5.08,-5.08,-5.18,-6.17,11.36,11.36,11.35
30.68,16.41,5.06,16.41,5.06,-5.06,-5.16,-6.21,11.35,11.36,11.35
30.99,16.38,5.03,16.38,5.03,-5.03,-5.13,-6.24,11.35,11.35,11.35
31.30,16.35,5.00,16.35,5.00,-5.00,-5.11,-6.26,11.35,11.35,11.35
31.61,16.32,4.98,16.32,4.98,-4.98,-5.09,-6.27,11.34,11.34,11.34
31.93,16.29,4.97,16.28,4.95,-4.95,-5.06,-6.27,11.34,11.33,11.32
32.24,16.25,4.92,16.25,4.93,-4.93,-5.04,-6.26,11.32,11.32,11.33
32.57,16.22,4.91,16.22,4.90,-4.90,-5.01,-6.24,11.32,11.32,11.31
32.89,16.18,4.87,16.19,4.88,-4.88,-4.99,-6.22,11.30,11.31,11.31
33.22,16.15,4.85,16.15,4.85,-4.85,-4.97,-6.18,11.30,11.30,11.30
33.55,16.11,4.81,16.12,4.82,-4.82,-4.94,-6.14,11.29,11.30,11.30
33.89,16.08,4.79,16.08,4.79,-4.79,-4.92,-6.10,11.29,11.29,11.29
34.23,16.05,4.78,16.05,4.77,-4.77,-4.90,-6.04,11.28,11.28,11.27
34.57,16.02,4.75,16.01,4.74,-4.74,-4.88,-5.98,11.28,11.27,11.27
34.92,15.99,4.74,15.98,4.72,-4.72,-4.85,-5.92,11.27,11.26,11.25
35.27,15.95,4.68,15.95,4.69,-4.69,-4.83,-5.85,11.26,11.25,11.27
35.62,15.91,4.67,15.91,4.67,-4.67,-4.81,-5.78,11.24,11.24,11.24
35.97,15.87,4.63,15.88,4.65,-4.65,-4.79,-5.71,11.22,11.23,11.24
36.33,15.84,4.62,15.84,4.63,-4.63,-4.77,-5.64,11.21,11.21,11.22
36.70,15.80,4.60,15.80,4.61,-4.61,-4.75,-5.56,11.19,11.20,11.20
37.06,15.76,4.58,15.77,4.59,-4.59,-4.73,-5.48,11.17,11.18,11.18
37.43,15.73,4.57,15.73,4.57,-4.57,-4.71,-5.40,11.16,11.16,11.16
37.81,15.70,4.55,15.69,4.55,-4.55,-4.69,-5.33,11.15,11.14,11.15
38.19,15.66,4.54,15.65,4.53,-4.53,-4.67,-5.25,11.13,11.12,11.12
38.57,15.62,4.52,15.62,4.51,-4.51,-4.65,-5.17,11.11,11.10,11.10
38.95,15.57,4.48,15.58,4.49,-4.49,-4.63,-5.10,11.08,11.08,11.09
39.34,15.54,4.48,15.54,4.48,-4.48,-4.61,-5.02,11.06,11.06,11.06
39.74,15.50,4.47,15.50,4.46,-4.46,-4.59,-4.95,11.04,11.04,11.03
40.14,15.46,4.45,15.46,4.44,-4.44,-4.58,-4.88,11.02,11.01,11.01
40.54,15.42,4.43,15.42,4.43,-4.43,-4.56,-4.82,10.99,10.99,10.99
40.94,15.38,4.42,15.38,4.41,-4.41,-4.54,-4.75,10.97,10.97,10.96
41.35,15.33,4.38,15.34,4.39,-4.39,-4.52,-4.69,10.94,10.95,10.95
41.76,15.29,4.37,15.30,4.37,-4.37,-4.51,-4.63,10.92,10.93,10.92
42.18,15.25,4.34,15.25,4.35,-4.35,-4.49,-4.58,10.90,10.90,10.91
42.60,15.21,4.33,15.21,4.33,-4.33,-4.47,-4.52,10.88,10.88,10.88
43.03,15.17,4.31,15.17,4.31,-4.31,-4.46,-4.48,10.86,10.85,10.86
43.46,15.13,4.31,15.13,4.30,-4.30,-4.44,-4.43,10.83,10.83,10.82
43.90,15.09,4.29,15.08,4.28,-4.28,-4.42,-4.39,10.81,10.80,10.80
44.33,15.04,4.27,15.04,4.26,-4.26,-4.41,-4.35,10.78,10.78,10.77
44.78,14.99,4.24,14.99,4.24,-4.24,-4.39,-4.31,10.75,10.75,10.75
45.23,14.94,4.21,14.94,4.23,-4.23,-4.38,-4.28,10.71,10.71,10.73
45.68,14.90,4.22,14.90,4.21,-4.21,-4.36,-4.25,10.69,10.68,10.68
46.13,14.85,4.20,14.85,4.20,-4.20,-4.35,-4.22,10.65,10.65,10.65
46.60,14.79,4.18,14.80,4.19,-4.19,-4.33,-4.20,10.60,10.61,10.61
47.06,14.74,4.16,14.75,4.18,-4.18,-4.32,-4.18,10.56,10.57,10.58
47.53,14.70,4.16,14.70,4.16,-4.16,-4.30,-4.16,10.54,10.53,10.54
48.01,14.65,4.16,14.64,4.15,-4.15,-4.29,-4.15,10.50,10.49,10.49
48.49,14.60,4.15,14.59,4.14,-4.14,-4.27,-4.14,10.46,10.45,10.45
48.97,14.54,4.14,14.54,4.13,-4.13,-4.26,-4.13,10.41,10.41,10.40
49.46,14.48,4.11,14.49,4.12,-4.12,-4.25,-4.12,10.36,10.37,10.37
49.96,14.43,4.12,14.44,4.11,-4.11,-4.23,-4.12,10.32,10.33,10.31
50.46,14.38,4.10,14.39,4.10,-4.10,-4.22,-4.11,10.28,10.28,10.28
50.96,14.33,4.09,14.33,4.09,-4.09,-4.21,-4.12,10.24,10.24,10.24
51.47,14.29,4.09,14.28,4.09,-4.09,-4.19,-4.12,10.20,10.20,10.20
51.99,14.24,4.09,14.23,4.08,-4.08,-4.18,-4.12,10.16,10.16,10.15
52.51,14.18,4.06,14.18,4.07,-4.07,-4.17,-4.13,10.11,10.12,10.12
53.03,14.13,4.04,14.13,4.06,-4.06,-4.16,-4.13,10.07,10.07,10.09
53.56,14.08,4.04,14.09,4.05,-4.05,-4.14,-4.14,10.03,10.03,10.04
54.10,14.04,4.05,14.04,4.04,-4.04,-4.13,-4.15,10.00,9.99,9.99
54.64,13.99,4.04,13.99,4.03,-4.03,-4.12,-4.16,9.96,9.96,9.95
55.18,13.94,4.03,13.94,4.02,-4.02,-4.11,-4.17,9.92,9.92,9.91
55.74,13.89,4.03,13.89,4.01,-4.01,-4.10,-4.17,9.88,9.88,9.86
56.29,13.84,4.00,13.84,4.00,-4.00,-4.08,-4.18,9.84,9.84,9.84
56.86,13.79,3.99,13.79,3.99,-3.99,-4.07,-4.19,9.80,9.80,9.80
57.42,13.75,4.00,13.74,3.98,-3.98,-4.06,-4.19,9.77,9.76,9.75
58.00,13.70,3.99,13.69,3.98,-3.98,-4.05,-4.20,9.72,9.72,9.71
58.58,13.64,3.96,13.64,3.97,-3.97,-4.04,-4.20,9.67,9.67,9.68
59.16,13.59,3.94,13.59,3.96,-3.96,-4.03,-4.20,9.63,9.63,9.65
59.76,13.53,3.93,13.54,3.96,-3.96,-4.01,-4.20,9.57,9.58,9.60
60.35,13.48,3.93,13.48,3.95,-3.95,-4.00,-4.19,9.53,9.53,9.55
60.96,13.43,3.94,13.43,3.94,-3.94,-3.99,-4.19,9.49,9.48,9.49
61.57,13.37,3.94,13.37,3.94,-3.94,-3.98,-4.18,9.43,9.43,9.43
62.18,13.31,3.94,13.31,3.93,-3.93,-3.97,-4.16,9.38,9.38,9.37
62.80,13.26,3.95,13.25,3.93,-3.93,-3.96,-4.15,9.33,9.33,9.31
63.43,13.20,3.94,13.19,3.92,-3.92,-3.95,-4.13,9.28,9.27,9.26
64.07,13.13,3.92,13.13,3.91,-3.91,-3.94,-4.11,9.22,9.22,9.21
64.71,13.07,3.91,13.07,3.91,-3.91,-3.93,-4.09,9.16,9.16,9.16
65.35,13.01,3.91,13.01,3.90,-3.90,-3.92,-4.06,9.11,9.11,9.10
66.01,12.95,3.90,12.94,3.89,-3.89,-3.90,-4.03,9.06,9.05,9.05
66.67,12.88,3.87,12.88,3.88,-3.88,-3.89,-4.00,9.00,9.00,9.01
67.33,12.81,3.87,12.81,3.87,-3.87,-3.88,-3.97,8.94,8.94,8.94
68.01,12.74,3.85,12.75,3.86,-3.86,-3.87,-3.93,8.88,8.89,8.89
68.69,12.68,3.84,12.68,3.85,-3.85,-3.86,-3.89,8.83,8.83,8.84
69.37,12.62,3.83,12.62,3.84,-3.84,-3.85,-3.86,8.78,8.78,8.79
70.07,12.55,3.82,12.55,3.83,-3.83,-3.84,-3.82,8.72,8.72,8.73
70.77,12.49,3.83,12.49,3.82,-3.82,-3.83,-3.78,8.67,8.66,8.66
71.48,12.42,3.81,12.42,3.82,-3.82,-3.82,-3.74,8.60,8.61,8.61
72.19,12.35,3.80,12.36,3.81,-3.81,-3.81,-3.69,8.54,8.55,8.55
72.91,12.29,3.81,12.30,3.81,-3.81,-3.80,-3.65,8.48,8.49,8.48
73.64,12.23,3.80,12.24,3.80,-3.80,-3.79,-3.61,8.43,8.43,8.43
74.38,12.18,3.81,12.18,3.80,-3.80,-3.78,-3.57,8.38,8.38,8.37
75.12,12.12,3.80,12.12,3.79,-3.79,-3.77,-3.53,8.33,8.32,8.32
75.87,12.06,3.79,12.06,3.79,-3.79,-3.76,-3.49,8.27,8.27,8.27
76.63,12.00,3.79,12.00,3.78,-3.78,-3.74,-3.45,8.22,8.22,8.21
77.40,11.94,3.77,11.94,3.78,-3.78,-3.73,-3.42,8.16,8.17,8.17
78.17,11.89,3.78,11.89,3.77,-3.77,-3.72,-3.38,8.12,8.12,8.11
78.95,11.83,3.76,11.83,3.76,-3.76,-3.71,-3.35,8.07,8.07,8.07
79.74,11.77,3.75,11.77,3.76,-3.76,-3.70,-3.31,8.01,8.02,8.02
80.54,11.71,3.74,11.72,3.75,-3.75,-3.69,-3.28,7.96,7.97,7.97
81.35,11.66,3.75,11.66,3.74,-3.74,-3.68,-3.26,7.92,7.92,7.91
82.16,11.60,3.72,11.60,3.73,-3.73,-3.67,-3.23,7.87,7.87,7.88
82.98,11.54,3.72,11.54,3.72,-3.72,-3.66,-3.20,7.82,7.82,7.82
83.81,11.48,3.71,11.48,3.71,-3.71,-3.65,-3.18,7.77,7.76,7.77
84.65,11.42,3.71,11.41,3.70,-3.70,-3.64,-3.16,7.72,7.71,7.71
85.50,11.36,3.71,11.35,3.69,-3.69,-3.62,-3.14,7.67,7.66,7.65
86.35,11.29,3.69,11.29,3.68,-3.68,-3.61,-3.13,7.60,7.60,7.60
87.22,11.22,3.67,11.22,3.67,-3.67,-3.60,-3.12,7.55,7.55,7.55
88.09,11.15,3.66,11.16,3.67,-3.67,-3.59,-3.11,7.48,7.49,7.49
88.97,11.09,3.66,11.09,3.66,-3.66,-3.58,-3.10,7.43,7.44,7.43
89.86,11.02,3.64,11.02,3.65,-3.65,-3.57,-3.09,7.37,7.38,7.38
90.76,10.95,3.63,10.95,3.64,-3.64,-3.55,-3.09,7.31,7.32,7.32
91.66,10.88,3.63,10.89,3.63,-3.63,-3.54,-3.09,7.25,7.26,7.25
92.58,10.81,3.61,10.81,3.62,-3.62,-3.53,-3.09,7.19,7.20,7.20
93.51,10.75,3.60,10.74,3.60,-3.60,-3.52,-3.09,7.15,7.14,7.15
94.44,10.68,3.59,10.67,3.59,-3.59,-3.51,-3.10,7.09,7.08,7.09
95.39,10.61,3.59,10.60,3.58,-3.58,-3.49,-3.10,7.03,7.01,7.02
96.34,10.53,3.58,10.53,3.57,-3.57,-3.48,-3.11,6.96,6.95,6.95
97.30,10.46,3.57,10.45,3.56,-3.56,-3.47,-3.12,6.90,6.89,6.89
98.28,10.38,3.56,10.38,3.55,-3.55,-3.46,-3.14,6.83,6.83,6.82
99.26,10.30,3.54,10.31,3.54,-3.54,-3.44,-3.15,6.76,6.77,6.76
100.25,10.22,3.52,10.24,3.53,-3.53,-3.43,-3.17,6.69,6.71,6.70
101.25,10.15,3.50,10.17,3.52,-3.52,-3.42,-3.19,6.63,6.65,6.65
102.27,10.08,3.49,10.10,3.51,-3.51,-3.41,-3.20,6.57,6.59,6.59
103.29,10.04,3.51,10.03,3.49,-3.49,-3.39,-3.22,6.55,6.54,6.53
104.32,9.98,3.50,9.95,3.48,-3.48,-3.38,-3.24,6.50,6.48,6.48
105.37,9.90,3.48,9.88,3.46,-3.46,-3.37,-3.27,6.44,6.42,6.42
106.42,9.83,3.46,9.81,3.45,-3.45,-3.35,-3.29,6.38,6.37,6.37
107.48,9.76,3.45,9.74,3.44,-3.44,-3.34,-3.31,6.32,6.31,6.31
108.56,9.68,3.42,9.68,3.43,-3.43,-3.32,-3.33,6.25,6.25,6.26
109.64,9.59,3.39,9.61,3.42,-3.42,-3.31,-3.35,6.17,6.19,6.20
110.74,9.52,3.38,9.54,3.41,-3.41,-3.30,-3.37,6.11,6.13,6.14
111.85,9.46,3.38,9.48,3.40,-3.40,-3.28,-3.39,6.06,6.08,6.08
112.97,9.39,3.36,9.41,3.39,-3.39,-3.27,-3.41,6.00,6.02,6.03
114.10,9.32,3.35,9.34,3.38,-3.38,-3.25,-3.42,5.94,5.96,5.97
115.24,9.26,3.37,9.27,3.37,-3.37,-3.24,-3.44,5.89,5.90,5.89
116.39,9.23,3.40,9.20,3.36,-3.36,-3.22,-3.45,5.87,5.84,5.83
117.55,9.17,3.40,9.14,3.35,-3.35,-3.21,-3.46,5.82,5.79,5.77
118.73,9.08,3.37,9.07,3.34,-3.34,-3.19,-3.47,5.74,5.73,5.71
119.92,9.00,3.33,9.00,3.33,-3.33,-3.18,-3.47,5.67,5.67,5.67
121.12,8.92,3.30,8.93,3.32,-3.32,-3.16,-3.47,5.60,5.61,5.62
122.33,8.87,3.31,8.86,3.30,-3.30,-3.15,-3.47,5.57,5.56,5.56
123.55,8.80,3.29,8.78,3.28,-3.28,-3.13,-3.46,5.52,5.50,5.51
124.79,8.70,3.24,8.71,3.26,-3.26,-3.11,-3.46,5.44,5.45,5.46
126.03,8.61,3.21,8.63,3.24,-3.24,-3.10,-3.44,5.37,5.39,5.40
127.29,8.56,3.21,8.55,3.21,-3.21,-3.08,-3.43,5.35,5.34,5.35
128.57,8.49,3.21,8.47,3.19,-3.19,-3.06,-3.41,5.31,5.29,5.28
129.85,8.39,3.16,8.39,3.16,-3.16,-3.05,-3.39,5.23,5.23,5.23
131.15,8.29,3.12,8.31,3.14,-3.14,-3.03,-3.36,5.15,5.18,5.17
132.46,8.24,3.12,8.24,3.12,-3.12,-3.01,-3.33,5.12,5.12,5.12
133.79,8.16,3.10,8.16,3.09,-3.09,-2.99,-3.30,5.07,5.07,5.06
135.12,8.05,3.04,8.08,3.07,-3.07,-2.98,-3.27,4.98,5.01,5.01
136.48,8.00,3.04,8.00,3.04,-3.04,-2.96,-3.23,4.96,4.96,4.96
137.84,7.92,3.01,7.93,3.02,-3.02,-2.94,-3.19,4.90,4.91,4.91
139.22,7.87,3.02,7.85,3.00,-3.00,-2.92,-3.15,4.87,4.86,4.85
140.61,7.80,2.99,7.78,2.97,-2.97,-2.90,-3.11,4.83,4.81,4.81
142.02,7.69,2.94,7.71,2.95,-2.95,-2.88,-3.07,4.74,4.76,4.75
143.44,7.64,2.93,7.63,2.92,-2.92,-2.87,-3.02,4.72,4.71,4.71
144.87,7.55,2.88,7.56,2.89,-2.89,-2.85,-2.98,4.66,4.67,4.67
146.32,7.49,2.87,7.49,2.86,-2.86,-2.83,-2.93,4.63,4.62,4.62
147.78,7.41,2.83,7.41,2.83,-2.83,-2.81,-2.89,4.58,4.58,4.58
149.26,7.33,2.80,7.33,2.80,-2.80,-2.79,-2.84,4.53,4.54,4.53
150.75,7.25,2.76,7.26,2.76,-2.76,-2.77,-2.80,4.49,4.49,4.49
152.26,7.19,2.74,7.17,2.73,-2.73,-2.75,-2.75,4.46,4.45,4.45
153.78,7.10,2.69,7.09,2.69,-2.69,-2.73,-2.70,4.41,4.41,4.41
155.32,7.02,2.65,7.01,2.65,-2.65,-2.71,-2.66,4.37,4.36,4.37
156.88,6.92,2.60,6.92,2.61,-2.61,-2.69,-2.62,4.31,4.32,4.32
158.44,6.85,2.58,6.84,2.56,-2.56,-2.67,-2.57,4.29,4.27,4.27
160.03,6.73,2.50,6.75,2.52,-2.52,-2.64,-2.53,4.21,4.23,4.23
161.63,6.66,2.47,6.66,2.47,-2.47,-2.62,-2.49,4.19,4.18,4.19
163.24,6.58,2.44,6.56,2.43,-2.43,-2.60,-2.45,4.15,4.14,4.14
164.88,6.46,2.37,6.47,2.38,-2.38,-2.58,-2.42,4.08,4.09,4.09
166.53,6.38,2.34,6.38,2.33,-2.33,-2.56,-2.38,4.05,4.05,4.04
168.19,6.30,2.29,6.28,2.29,-2.29,-2.53,-2.35,4.01,4.00,4.01
169.87,6.17,2.22,6.19,2.24,-2.24,-2.51,-2.32,3.93,3.95,3.95
171.57,6.09,2.19,6.09,2.19,-2.19,-2.49,-2.28,3.90,3.90,3.90
173.29,6.01,2.15,6.00,2.14,-2.14,-2.47,-2.26,3.87,3.86,3.86
175.02,5.88,2.07,5.90,2.09,-2.09,-2.44,-2.23,3.79,3.81,3.81
176.77,5.79,2.03,5.81,2.04,-2.04,-2.42,-2.20,3.75,3.76,3.76
178.54,5.71,1.99,5.71,1.99,-1.99,-2.39,-2.18,3.72,3.72,3.72
180.32,5.63,1.97,5.61,1.94,-1.94,-2.37,-2.16,3.69,3.67,3.66
182.13,5.54,1.91,5.52,1.89,-1.89,-2.35,-2.14,3.65,3.62,3.63
183.95,5.40,1.82,5.42,1.84,-1.84,-2.32,-2.12,3.56,3.58,3.58
185.79,5.32,1.79,5.32,1.79,-1.79,-2.30,-2.10,3.53,3.53,3.53
187.65,5.22,1.73,5.23,1.74,-1.74,-2.27,-2.08,3.48,3.49,3.49
189.52,5.12,1.67,5.13,1.68,-1.68,-2.25,-2.07,3.44,3.45,3.45
191.42,5.04,1.63,5.02,1.62,-1.62,-2.22,-2.06,3.42,3.40,3.41
193.33,4.94,1.57,4.92,1.56,-1.56,-2.20,-2.05,3.38,3.36,3.37
195.27,4.83,1.51,4.81,1.49,-1.49,-2.17,-2.04,3.34,3.32,3.32
197.22,4.72,1.45,4.70,1.42,-1.42,-2.14,-2.03,3.30,3.28,3.27
199.19,4.61,1.37,4.59,1.34,-1.34,-2.12,-2.02,3.27,3.25,3.24
201.18,4.50,1.30,4.48,1.27,-1.27,-2.09,-2.01,3.23,3.21,3.20
203.19,4.39,1.22,4.37,1.19,-1.19,-2.06,-2.01,3.20,3.18,3.17
205.23,4.28,1.13,4.27,1.12,-1.12,-2.04,-2.00,3.16,3.14,3.15
207.28,4.17,1.05,4.16,1.05,-1.05,-2.01,-2.00,3.12,3.11,3.12
209.35,4.06,0.98,4.07,0.99,-0.99,-1.98,-1.99,3.07,3.08,3.08
211.44,3.97,0.92,3.99,0.94,-0.94,-1.95,-1.99,3.03,3.05,3.05
213.56,3.90,0.87,3.91,0.89,-0.89,-1.93,-1.99,3.01,3.02,3.03
215.69,3.82,0.82,3.85,0.86,-0.86,-1.90,-1.98,2.96,2.99,3.00
217.85,3.77,0.80,3.80,0.83,-0.83,-1.87,-1.98,2.94,2.97,2.97
220.03,3.75,0.81,3.77,0.83,-0.83,-1.84,-1.97,2.92,2.94,2.94
222.23,3.73,0.82,3.76,0.84,-0.84,-1.81,-1.97,2.89,2.92,2.91
224.45,3.73,0.83,3.76,0.86,-0.86,-1.78,-1.96,2.87,2.90,2.90
226.70,3.76,0.89,3.78,0.91,-0.91,-1.75,-1.96,2.85,2.88,2.87
228.96,3.80,0.94,3.82,0.96,-0.96,-1.72,-1.95,2.84,2.86,2.86
231.25,3.85,1.01,3.87,1.03,-1.03,-1.69,-1.94,2.82,2.84,2.84
233.57,3.91,1.09,3.94,1.12,-1.12,-1.66,-1.93,2.79,2.82,2.82
235.90,4.00,1.19,4.01,1.21,-1.21,-1.63,-1.91,2.79,2.81,2.81
238.26,4.08,1.30,4.10,1.30,-1.30,-1.60,-1.90,2.78,2.79,2.78
240.64,4.18,1.39,4.18,1.40,-1.40,-1.57,-1.88,2.78,2.78,2.79
243.05,4.28,1.51,4.28,1.50,-1.50,-1.54,-1.86,2.78,2.77,2.77
245.48,4.38,1.62,4.37,1.60,-1.60,-1.51,-1.84,2.78,2.77,2.76
247.93,4.50,1.75,4.46,1.70,-1.70,-1.48,-1.82,2.80,2.76,2.75
250.41,4.56,1.80,4.54,1.79,-1.79,-1.44,-1.79,2.77,2.75,2.76
252.92,4.66,1.91,4.62,1.87,-1.87,-1.41,-1.76,2.79,2.75,2.75
255.45,4.72,1.98,4.69,1.95,-1.95,-1.38,-1.73,2.77,2.74,2.74
258.00,4.76,2.02,4.75,2.01,-2.01,-1.35,-1.70,2.75,2.74,2.74
260.58,4.82,2.08,4.81,2.07,-2.07,-1.31,-1.66,2.75,2.74,2.74
263.19,4.84,2.10,4.85,2.11,-2.11,-1.28,-1.62,2.73,2.73,2.74
265.82,4.88,2.15,4.88,2.15,-2.15,-1.25,-1.58,2.73,2.73,2.73
268.48,4.90,2.17,4.90,2.17,-2.17,-1.21,-1.54,2.73,2.73,2.73
271.16,4.91,2.18,4.91,2.18,-2.18,-1.18,-1.50,2.73,2.73,2.73
273.87,4.91,2.18,4.91,2.19,-2.19,-1.14,-1.45,2.72,2.72,2.73
276.61,4.91,2.18,4.90,2.18,-2.18,-1.11,-1.40,2.73,2.72,2.73
279.38,4.89,2.18,4.88,2.16,-2.16,-1.07,-1.35,2.73,2.72,2.71
282.17,4.86,2.15,4.86,2.13,-2.13,-1.04,-1.30,2.73,2.72,2.71
284.99,4.82,2.10,4.82,2.10,-2.10,-1.00,-1.24,2.72,2.72,2.72
287.84,4.78,2.05,4.78,2.05,-2.05,-0.97,-1.19,2.73,2.73,2.73
290.72,4.73,2.01,4.72,1.99,-1.99,-0.93,-1.13,2.74,2.73,2.72
293.63,4.68,1.95,4.66,1.93,-1.93,-0.90,-1.07,2.75,2.73,2.73
296.57,4.61,1.87,4.60,1.86,-1.86,-0.86,-1.02,2.75,2.74,2.74
299.53,4.54,1.80,4.52,1.78,-1.78,-0.82,-0.96,2.76,2.74,2.74
302.53,4.46,1.70,4.45,1.70,-1.70,-0.78,-0.90,2.76,2.75,2.76
305.55,4.37,1.62,4.37,1.62,-1.62,-0.75,-0.84,2.75,2.75,2.75
308.61,4.27,1.51,4.29,1.53,-1.53,-0.71,-0.78,2.74,2.76,2.76
311.69,4.17,1.40,4.20,1.43,-1.43,-0.67,-0.72,2.74,2.77,2.77
314.81,4.10,1.33,4.12,1.34,-1.34,-0.63,-0.65,2.76,2.78,2.77
317.96,4.03,1.25,4.03,1.25,-1.25,-0.59,-0.59,2.78,2.78,2.78
321.14,3.94,1.15,3.95,1.16,-1.16,-0.56,-0.53,2.78,2.79,2.79
324.35,3.86,1.07,3.87,1.07,-1.07,-0.52,-0.47,2.79,2.80,2.79
327.59,3.78,0.96,3.79,0.99,-0.99,-0.48,-0.41,2.79,2.80,2.82
330.87,3.72,0.91,3.71,0.90,-0.90,-0.44,-0.34,2.82,2.81,2.81
334.18,3.64,0.82,3.64,0.82,-0.82,-0.40,-0.28,2.82,2.82,2.82
337.52,3.56,0.74,3.57,0.74,-0.74,-0.36,-0.22,2.82,2.83,2.82
340.90,3.49,0.65,3.49,0.66,-0.66,-0.32,-0.16,2.83,2.84,2.84
344.30,3.42,0.57,3.42,0.58,-0.58,-0.27,-0.10,2.84,2.84,2.85
347.75,3.36,0.51,3.35,0.50,-0.50,-0.23,-0.03,2.86,2.85,2.85
351.23,3.29,0.44,3.28,0.42,-0.42,-0.19,0.03,2.87,2.86,2.85
354.74,3.22,0.34,3.21,0.34,-0.34,-0.15,0.09,2.88,2.87,2.88
358.28,3.14,0.27,3.14,0.27,-0.27,-0.11,0.16,2.87,2.88,2.87
361.87,3.08,0.20,3.07,0.19,-0.19,-0.06,0.22,2.89,2.88,2.88
365.49,3.01,0.12,3.01,0.12,-0.12,-0.02,0.28,2.89,2.89,2.89
369.14,2.94,0.03,2.94,0.04,-0.04,0.02,0.34,2.90,2.90,2.91
372.83,2.88,-0.03,2.88,-0.03,0.03,0.07,0.41,2.91,2.91,2.91
376.56,2.79,-0.12,2.81,-0.11,0.11,0.11,0.47,2.90,2.92,2.91
380.33,2.73,-0.19,2.74,-0.18,0.18,0.16,0.53,2.91,2.93,2.92
384.13,2.68,-0.26,2.68,-0.25,0.25,0.20,0.60,2.93,2.93,2.94
387.97,2.63,-0.31,2.62,-0.33,0.33,0.25,0.66,2.96,2.94,2.94
391.85,2.56,-0.39,2.55,-0.40,0.40,0.29,0.72,2.96,2.95,2.95
395.77,2.50,-0.46,2.49,-0.47,0.47,0.34,0.78,2.97,2.96,2.96
399.73,2.44,-0.53,2.43,-0.54,0.54,0.39,0.85,2.98,2.97,2.97
403.72,2.38,-0.62,2.37,-0.61,0.61,0.43,0.91,2.99,2.98,3.00
407.76,2.31,-0.68,2.32,-0.68,0.68,0.48,0.97,2.99,2.99,2.99
411.84,2.25,-0.75,2.26,-0.74,0.74,0.53,1.03,2.99,3.00,3.00
415.96,2.20,-0.82,2.21,-0.80,0.80,0.58,1.10,3.00,3.01,3.02
420.12,2.15,-0.87,2.15,-0.87,0.87,0.63,1.16,3.02,3.02,3.02
424.32,2.09,-0.94,2.10,-0.93,0.93,0.67,1.22,3.02,3.03,3.03
428.56,2.04,-1.01,2.04,-1.00,1.00,0.72,1.28,3.04,3.04,3.05
432.85,1.99,-1.07,1.99,-1.06,1.06,0.77,1.34,3.05,3.05,3.06
437.18,1.94,-1.11,1.93,-1.12,1.12,0.82,1.39,3.06,3.06,3.05
441.55,1.90,-1.16,1.88,-1.19,1.19,0.87,1.45,3.09,3.07,3.06
445.96,1.85,-1.22,1.83,-1.25,1.25,0.93,1.51,3.10,3.08,3.07
450.42,1.78,-1.30,1.78,-1.31,1.31,0.98,1.56,3.09,3.08,3.08
454.93,1.72,-1.37,1.73,-1.37,1.37,1.03,1.61,3.09,3.09,3.09
459.48,1.66,-1.44,1.67,-1.43,1.43,1.08,1.66,3.09,3.10,3.10
464.07,1.61,-1.51,1.62,-1.49,1.49,1.13,1.71,3.10,3.11,3.12
468.71,1.57,-1.56,1.57,-1.55,1.55,1.19,1.76,3.12,3.12,3.13
473.40,1.52,-1.61,1.52,-1.61,1.61,1.24,1.80,3.13,3.13,3.13
478.13,1.48,-1.66,1.47,-1.67,1.67,1.30,1.85,3.15,3.14,3.14
482.91,1.43,-1.72,1.43,-1.72,1.72,1.35,1.89,3.15,3.15,3.15
487.74,1.38,-1.78,1.38,-1.78,1.78,1.40,1.93,3.16,3.16,3.16
492.62,1.34,-1.83,1.34,-1.83,1.83,1.46,1.96,3.17,3.17,3.17
497.55,1.30,-1.88,1.30,-1.88,1.88,1.51,2.00,3.18,3.19,3.18
