frequency,raw,error,smoothed,error_smoothed,equalization,parametric_eq,fixed_band_eq,equalized_raw,equalized_smoothed,target
20.00,-9.66,-8.25,-9.34,-7.95,7.95,5.72,3.07,-1.71,-1.39,-1.42
20.20,-9.63,-8.22,-9.48,-8.08,8.08,5.95,3.15,-1.56,-1.40,-1.42
20.40,-9.63,-8.22,-9.60,-8.19,8.19,6.19,3.24,-1.44,-1.41,-1.42
20.61,-9.65,-8.24,-9.72,-8.30,8.30,6.44,3.33,-1.35,-1.42,-1.42
20.81,-9.68,-8.27,-9.82,-8.40,8.40,6.69,3.42,-1.28,-1.43,-1.42
21.02,-9.73,-8.32,-9.92,-8.48,8.48,6.95,3.52,-1.25,-1.44,-1.42
21.23,-9.78,-8.35,-10.01,-8.56,8.56,7.20,3.62,-1.22,-1.45,-1.44
21.44,-9.87,-8.43,-10.09,-8.63,8.63,7.45,3.72,-1.25,-1.46,-1.45
21.66,-9.97,-8.50,-10.16,-8.68,8.68,7.70,3.82,-1.29,-1.48,-1.47
21.87,-10.08,-8.60,-10.22,-8.73,8.73,7.94,3.93,-1.36,-1.49,-1.49
22.09,-10.20,-8.71,-10.27,-8.76,8.76,8.17,4.04,-1.44,-1.51,-1.50
22.31,-10.33,-8.81,-10.31,-8.78,8.78,8.38,4.16,-1.55,-1.53,-1.53
22.54,-10.45,-8.90,-10.37,-8.83,8.83,8.56,4.27,-1.62,-1.55,-1.55
22.76,-10.54,-8.98,-10.42,-8.85,8.85,8.73,4.39,-1.69,-1.57,-1.57
22.99,-10.59,-9.00,-10.45,-8.86,8.86,8.85,4.51,-1.74,-1.59,-1.60
23.22,-10.61,-8.99,-10.46,-8.84,8.84,8.95,4.64,-1.77,-1.62,-1.63
23.45,-10.58,-8.93,-10.45,-8.81,8.81,9.00,4.77,-1.77,-1.64,-1.66
23.69,-10.50,-8.84,-10.42,-8.76,8.76,9.02,4.90,-1.74,-1.66,-1.67
23.92,-10.39,-8.70,-10.37,-8.69,8.69,8.99,5.03,-1.70,-1.68,-1.69
24.16,-10.26,-8.56,-10.31,-8.62,8.62,8.92,5.17,-1.64,-1.70,-1.70
24.40,-10.14,-8.42,-10.24,-8.53,8.53,8.81,5.31,-1.61,-1.72,-1.72
24.65,-10.04,-8.31,-10.16,-8.42,8.42,8.66,5.45,-1.62,-1.74,-1.74
24.89,-9.95,-8.19,-10.07,-8.32,8.32,8.48,5.59,-1.63,-1.75,-1.76
25.14,-9.88,-8.11,-9.97,-8.20,8.20,8.28,5.74,-1.68,-1.77,-1.77
25.39,-9.83,-8.04,-9.88,-8.09,8.09,8.05,5.89,-1.74,-1.79,-1.79
25.65,-9.78,-7.99,-9.78,-7.98,7.98,7.81,6.03,-1.81,-1.80,-1.80
25.91,-9.73,-7.91,-9.68,-7.86,7.86,7.55,6.18,-1.87,-1.82,-1.83
26.16,-9.66,-7.82,-9.59,-7.75,7.75,7.29,6.33,-1.91,-1.83,-1.84
26.43,-9.56,-7.72,-9.49,-7.64,7.64,7.02,6.48,-1.92,-1.85,-1.85
26.69,-9.44,-7.57,-9.39,-7.53,7.53,6.75,6.62,-1.91,-1.87,-1.88
26.96,-9.31,-7.43,-9.29,-7.41,7.41,6.48,6.77,-1.91,-1.88,-1.89
27.23,-9.17,-7.28,-9.17,-7.28,7.28,6.21,6.91,-1.90,-1.90,-1.90
27.50,-9.05,-7.15,-9.05,-7.14,7.14,5.94,7.04,-1.91,-1.91,-1.91
27.77,-8.91,-6.98,-8.92,-6.99,6.99,5.69,7.18,-1.92,-1.93,-1.93
28.05,-8.78,-6.84,-8.78,-6.84,6.84,5.43,7.30,-1.94,-1.94,-1.94
28.33,-8.65,-6.69,-8.64,-6.69,6.69,5.19,7.42,-1.96,-1.95,-1.96
28.62,-8.52,-6.56,-8.50,-6.54,6.54,4.95,7.53,-1.99,-1.97,-1.97
28.90,-8.38,-6.39,-8.37,-6.39,6.39,4.72,7.63,-1.99,-1.98,-1.99
29.19,-8.24,-6.24,-8.24,-6.25,6.25,4.50,7.72,-1.99,-1.99,-2.01
29.48,-8.09,-6.08,-8.13,-6.12,6.12,4.28,7.79,-1.97,-2.01,-2.01
29.78,-7.97,-5.96,-8.02,-6.00,6.00,4.07,7.85,-1.97,-2.02,-2.02
30.08,-7.85,-5.83,-7.92,-5.89,5.89,3.87,7.90,-1.96,-2.03,-2.03
30.38,-7.77,-5.73,-7.83,-5.78,5.78,3.68,7.93,-1.99,-2.05,-2.05
30.68,-7.70,-5.65,-7.75,-5.68,5.68,3.50,7.95,-2.02,-2.06,-2.06
30.99,-7.64,-5.56,-7.67,-5.59,5.59,3.32,7.95,-2.05,-2.08,-2.09
31.30,-7.60,-5.51,-7.60,-5.50,5.50,3.15,7.93,-2.10,-2.10,-2.10
31.61,-7.55,-5.45,-7.53,-5.41,5.41,2.99,7.89,-2.14,-2.11,-2.11
31.93,-7.50,-5.38,-7.46,-5.33,5.33,2.83,7.84,-2.17,-2.13,-2.13
32.24,-7.45,-5.29,-7.40,-5.25,5.25,2.68,7.77,-2.20,-2.15,-2.16
32.57,-7.37,-5.20,-7.34,-5.17,5.17,2.53,7.68,-2.20,-2.17,-2.18
32.89,-7.30,-5.11,-7.27,-5.08,5.08,2.39,7.58,-2.22,-2.19,-2.19
33.22,-7.22,-5.01,-7.20,-4.99,4.99,2.26,7.47,-2.23,-2.21,-2.22
33.55,-7.14,-4.91,-7.13,-4.90,4.90,2.13,7.34,-2.24,-2.23,-2.23
33.89,-7.05,-4.80,-7.05,-4.80,4.80,2.00,7.19,-2.25,-2.25,-2.26
34.23,-6.97,-4.70,-6.97,-4.70,4.70,1.88,7.04,-2.27,-2.27,-2.28
34.57,-6.88,-4.59,-6.89,-4.60,4.60,1.77,6.88,-2.28,-2.29,-2.30
34.92,-6.80,-4.49,-6.81,-4.49,4.49,1.66,6.71,-2.31,-2.31,-2.32
35.27,-6.72,-4.39,-6.73,-4.39,4.39,1.55,6.53,-2.33,-2.33,-2.34
35.62,-6.63,-4.28,-6.65,-4.29,4.29,1.44,6.34,-2.34,-2.35,-2.36
35.97,-6.55,-4.17,-6.57,-4.19,4.19,1.34,6.15,-2.36,-2.38,-2.38
36.33,-6.46,-4.06,-6.49,-4.10,4.10,1.24,5.96,-2.36,-2.40,-2.40
36.70,-6.40,-3.99,-6.42,-4.00,4.00,1.15,5.76,-2.40,-2.42,-2.42
37.06,-6.33,-3.89,-6.35,-3.91,3.91,1.06,5.56,-2.42,-2.44,-2.44
37.43,-6.26,-3.80,-6.27,-3.81,3.81,0.97,5.36,-2.45,-2.46,-2.46
37.81,-6.21,-3.74,-6.20,-3.72,3.72,0.88,5.15,-2.50,-2.48,-2.48
38.19,-6.13,-3.63,-6.12,-3.62,3.62,0.80,4.95,-2.52,-2.50,-2.51
38.57,-6.06,-3.55,-6.03,-3.51,3.51,0.72,4.74,-2.55,-2.52,-2.52
38.95,-5.98,-3.43,-5.95,-3.41,3.41,0.64,4.54,-2.57,-2.54,-2.55
39.34,-5.88,-3.31,-5.86,-3.30,3.30,0.56,4.33,-2.58,-2.56,-2.57
39.74,-5.79,-3.21,-5.77,-3.19,3.19,0.49,4.13,-2.60,-2.58,-2.59
40.14,-5.69,-3.10,-5.67,-3.07,3.07,0.41,3.93,-2.62,-2.60,-2.60
40.54,-5.58,-2.97,-5.57,-2.96,2.96,0.34,3.73,-2.62,-2.62,-2.62
40.94,-5.47,-2.84,-5.47,-2.84,2.84,0.27,3.53,-2.63,-2.63,-2.64
41.35,-5.36,-2.70,-5.37,-2.72,2.72,0.20,3.33,-2.64,-2.65,-2.67
41.76,-5.24,-2.57,-5.27,-2.60,2.60,0.14,3.13,-2.64,-2.67,-2.67
42.18,-5.14,-2.46,-5.17,-2.48,2.48,0.07,2.94,-2.66,-2.69,-2.69
42.60,-5.04,-2.33,-5.07,-2.36,2.36,0.01,2.74,-2.68,-2.71,-2.71
43.03,-4.95,-2.24,-4.97,-2.24,2.24,-0.05,2.55,-2.71,-2.73,-2.72
43.46,-4.86,-2.12,-4.87,-2.13,2.13,-0.12,2.36,-2.74,-2.75,-2.75
43.90,-4.76,-2.00,-4.78,-2.01,2.01,-0.18,2.17,-2.75,-2.77,-2.77
44.33,-4.68,-1.89,-4.68,-1.90,1.90,-0.24,1.98,-2.78,-2.78,-2.79
44.78,-4.60,-1.80,-4.59,-1.78,1.78,-0.30,1.80,-2.82,-2.80,-2.81
45.23,-4.50,-1.67,-4.49,-1.67,1.67,-0.35,1.61,-2.83,-2.82,-2.84
45.68,-4.41,-1.56,-4.39,-1.55,1.55,-0.41,1.43,-2.86,-2.84,-2.86
46.13,-4.31,-1.44,-4.29,-1.43,1.43,-0.47,1.25,-2.88,-2.86,-2.87
46.60,-4.20,-1.33,-4.19,-1.31,1.31,-0.52,1.07,-2.89,-2.88,-2.88
47.06,-4.09,-1.20,-4.08,-1.18,1.18,-0.58,0.89,-2.91,-2.90,-2.90
47.53,-3.98,-1.07,-3.97,-1.05,1.05,-0.63,0.71,-2.93,-2.92,-2.92
48.01,-3.86,-0.94,-3.86,-0.91,0.91,-0.69,0.54,-2.95,-2.94,-2.93
48.49,-3.74,-0.79,-3.74,-0.78,0.78,-0.74,0.36,-2.97,-2.96,-2.96
48.97,-3.62,-0.63,-3.62,-0.64,0.64,-0.79,0.19,-2.99,-2.99,-2.99
49.46,-3.50,-0.49,-3.50,-0.49,0.49,-0.85,0.02,-3.01,-3.01,-3.02
49.96,-3.37,-0.33,-3.38,-0.35,0.35,-0.90,-0.15,-3.02,-3.03,-3.05
50.46,-3.24,-0.19,-3.25,-0.20,0.20,-0.95,-0.32,-3.04,-3.05,-3.06
50.96,-3.12,-0.05,-3.13,-0.06,0.06,-1.00,-0.49,-3.07,-3.08,-3.08
51.47,-3.00,0.10,-3.01,0.09,-0.09,-1.05,-0.65,-3.09,-3.10,-3.11
51.99,-2.88,0.24,-2.88,0.24,-0.24,-1.10,-0.82,-3.12,-3.13,-3.13
52.51,-2.76,0.38,-2.76,0.39,-0.39,-1.15,-0.98,-3.15,-3.15,-3.15
53.03,-2.64,0.52,-2.64,0.54,-0.54,-1.20,-1.14,-3.18,-3.17,-3.17
53.56,-2.52,0.67,-2.51,0.68,-0.68,-1.26,-1.29,-3.21,-3.20,-3.20
54.10,-2.39,0.82,-2.39,0.83,-0.83,-1.31,-1.44,-3.22,-3.22,-3.22
54.64,-2.28,0.96,-2.27,0.98,-0.98,-1.36,-1.59,-3.26,-3.24,-3.25
55.18,-2.15,1.12,-2.15,1.12,-1.12,-1.41,-1.74,-3.27,-3.27,-3.27
55.74,-2.03,1.26,-2.03,1.26,-1.26,-1.46,-1.88,-3.29,-3.29,-3.30
56.29,-1.91,1.40,-1.91,1.40,-1.40,-1.51,-2.02,-3.32,-3.31,-3.32
56.86,-1.79,1.55,-1.79,1.54,-1.54,-1.56,-2.15,-3.34,-3.34,-3.35
57.42,-1.67,1.70,-1.68,1.68,-1.68,-1.61,-2.28,-3.35,-3.36,-3.37
58.00,-1.56,1.82,-1.57,1.82,-1.82,-1.66,-2.41,-3.38,-3.39,-3.39
58.58,-1.45,1.96,-1.46,1.95,-1.95,-1.71,-2.53,-3.40,-3.41,-3.42
59.16,-1.34,2.09,-1.36,2.08,-2.08,-1.76,-2.64,-3.42,-3.44,-3.44
59.76,-1.25,2.20,-1.26,2.21,-2.21,-1.81,-2.75,-3.46,-3.47,-3.46
60.35,-1.16,2.32,-1.16,2.33,-2.33,-1.86,-2.85,-3.49,-3.49,-3.49
60.96,-1.07,2.43,-1.07,2.45,-2.45,-1.91,-2.95,-3.52,-3.52,-3.51
61.57,-0.99,2.55,-0.99,2.56,-2.56,-1.96,-3.04,-3.55,-3.55,-3.55
62.18,-0.90,2.67,-0.90,2.67,-2.67,-2.01,-3.12,-3.57,-3.57,-3.58
62.80,-0.82,2.78,-0.82,2.77,-2.77,-2.06,-3.20,-3.60,-3.60,-3.61
63.43,-0.75,2.88,-0.75,2.88,-2.88,-2.11,-3.27,-3.63,-3.63,-3.64
64.07,-0.69,2.97,-0.68,2.97,-2.97,-2.16,-3.34,-3.67,-3.65,-3.67
64.71,-0.61,3.07,-0.61,3.07,-3.07,-2.21,-3.40,-3.68,-3.68,-3.69
65.35,-0.55,3.15,-0.54,3.16,-3.16,-2.27,-3.45,-3.71,-3.70,-3.71
66.01,-0.48,3.24,-0.48,3.25,-3.25,-2.32,-3.50,-3.73,-3.73,-3.73
66.67,-0.42,3.33,-0.42,3.33,-3.33,-2.37,-3.54,-3.75,-3.76,-3.76
67.33,-0.36,3.41,-0.37,3.41,-3.41,-2.42,-3.58,-3.77,-3.78,-3.78
68.01,-0.31,3.49,-0.32,3.49,-3.49,-2.47,-3.62,-3.80,-3.80,-3.81
68.69,-0.26,3.56,-0.27,3.56,-3.56,-2.53,-3.65,-3.82,-3.83,-3.83
69.37,-0.22,3.63,-0.22,3.63,-3.63,-2.58,-3.68,-3.85,-3.86,-3.86
70.07,-0.18,3.70,-0.18,3.70,-3.70,-2.63,-3.71,-3.88,-3.88,-3.89
70.77,-0.14,3.76,-0.14,3.77,-3.77,-2.69,-3.73,-3.91,-3.91,-3.91
71.48,-0.10,3.83,-0.10,3.84,-3.84,-2.74,-3.75,-3.94,-3.94,-3.94
72.19,-0.07,3.89,-0.07,3.90,-3.90,-2.80,-3.77,-3.97,-3.97,-3.97
72.91,-0.04,3.96,-0.04,3.96,-3.96,-2.85,-3.79,-4.00,-4.00,-4.01
73.64,-0.01,4.02,-0.01,4.02,-4.02,-2.91,-3.81,-4.04,-4.04,-4.04
74.38,0.01,4.07,0.01,4.08,-4.08,-2.96,-3.83,-4.08,-4.07,-4.07
75.12,0.04,4.15,0.04,4.14,-4.14,-3.02,-3.85,-4.10,-4.11,-4.12
75.87,0.06,4.20,0.06,4.20,-4.20,-3.07,-3.87,-4.14,-4.14,-4.15
76.63,0.08,4.25,0.08,4.26,-4.26,-3.13,-3.89,-4.18,-4.18,-4.18
77.40,0.10,4.31,0.10,4.32,-4.32,-3.18,-3.91,-4.22,-4.22,-4.22
78.17,0.11,4.38,0.11,4.37,-4.37,-3.24,-3.93,-4.27,-4.26,-4.28
78.95,0.13,4.42,0.13,4.43,-4.43,-3.30,-3.96,-4.30,-4.30,-4.30
79.74,0.14,4.47,0.14,4.48,-4.48,-3.36,-3.99,-4.35,-4.34,-4.34
80.54,0.15,4.53,0.15,4.54,-4.54,-3.41,-4.02,-4.39,-4.39,-4.39
81.35,0.17,4.59,0.16,4.59,-4.59,-3.47,-4.05,-4.42,-4.43,-4.43
82.16,0.17,4.64,0.17,4.65,-4.65,-3.53,-4.08,-4.48,-4.47,-4.48
82.98,0.18,4.69,0.18,4.70,-4.70,-3.59,-4.12,-4.52,-4.52,-4.52
83.81,0.19,4.76,0.19,4.75,-4.75,-3.65,-4.16,-4.56,-4.56,-4.58
84.65,0.19,4.80,0.19,4.80,-4.80,-3.71,-4.20,-4.61,-4.61,-4.62
85.50,0.20,4.85,0.19,4.85,-4.85,-3.76,-4.25,-4.66,-4.66,-4.66
86.35,0.20,4.90,0.20,4.90,-4.90,-3.82,-4.30,-4.71,-4.71,-4.71
87.22,0.19,4.94,0.20,4.95,-4.95,-3.88,-4.35,-4.77,-4.76,-4.76
88.09,0.20,5.01,0.20,5.01,-5.01,-3.94,-4.41,-4.81,-4.81,-4.82
88.97,0.20,5.05,0.20,5.05,-5.05,-4.01,-4.47,-4.86,-4.86,-4.86
89.86,0.20,5.10,0.20,5.10,-5.10,-4.07,-4.54,-4.91,-4.91,-4.91
90.76,0.19,5.15,0.19,5.15,-5.15,-4.13,-4.60,-4.96,-4.96,-4.97
91.66,0.19,5.20,0.19,5.20,-5.20,-4.19,-4.67,-5.01,-5.01,-5.02
92.58,0.18,5.25,0.18,5.25,-5.25,-4.25,-4.75,-5.07,-5.07,-5.08
93.51,0.18,5.29,0.18,5.30,-5.30,-4.31,-4.83,-5.12,-5.12,-5.12
94.44,0.18,5.34,0.17,5.35,-5.35,-4.37,-4.91,-5.17,-5.18,-5.17
95.39,0.17,5.39,0.17,5.40,-5.40,-4.44,-4.99,-5.23,-5.23,-5.23
96.34,0.16,5.45,0.16,5.45,-5.45,-4.50,-5.08,-5.29,-5.29,-5.30
97.30,0.15,5.49,0.15,5.50,-5.50,-4.56,-5.17,-5.35,-5.35,-5.35
98.28,0.14,5.54,0.14,5.55,-5.55,-4.62,-5.26,-5.41,-5.41,-5.41
99.26,0.13,5.60,0.13,5.60,-5.60,-4.69,-5.36,-5.47,-5.47,-5.48
100.25,0.12,5.64,0.12,5.65,-5.65,-4.75,-5.45,-5.53,-5.53,-5.53
101.25,0.11,5.69,0.10,5.69,-5.69,-4.81,-5.55,-5.59,-5.59,-5.59
102.27,0.09,5.74,0.09,5.74,-5.74,-4.87,-5.66,-5.65,-5.65,-5.66
103.29,0.08,5.80,0.08,5.79,-5.79,-4.94,-5.76,-5.71,-5.71,-5.73
104.32,0.06,5.83,0.06,5.84,-5.84,-5.00,-5.86,-5.78,-5.78,-5.78
105.37,0.05,5.88,0.04,5.88,-5.88,-5.06,-5.97,-5.84,-5.84,-5.84
106.42,0.02,5.92,0.02,5.93,-5.93,-5.13,-6.07,-5.91,-5.91,-5.91
107.48,-0.00,5.97,0.00,5.98,-5.98,-5.19,-6.18,-5.98,-5.97,-5.98
108.56,-0.02,6.02,-0.02,6.02,-6.02,-5.25,-6.28,-6.04,-6.04,-6.05
109.64,-0.04,6.06,-0.04,6.07,-6.07,-5.32,-6.38,-6.11,-6.11,-6.11
110.74,-0.06,6.10,-0.06,6.11,-6.11,-5.38,-6.48,-6.17,-6.18,-6.17
111.85,-0.09,6.14,-0.09,6.15,-6.15,-5.44,-6.58,-6.25,-6.24,-6.24
112.97,-0.11,6.20,-0.11,6.20,-6.20,-5.50,-6.67,-6.31,-6.31,-6.32
114.10,-0.14,6.23,-0.14,6.24,-6.24,-5.57,-6.76,-6.38,-6.38,-6.38
115.24,-0.16,6.28,-0.17,6.27,-6.27,-5.63,-6.84,-6.44,-6.44,-6.45
116.39,-0.19,6.32,-0.20,6.31,-6.31,-5.69,-6.92,-6.50,-6.51,-6.52
117.55,-0.23,6.35,-0.23,6.35,-6.35,-5.75,-6.99,-6.58,-6.58,-6.59
118.73,-0.26,6.38,-0.26,6.38,-6.38,-5.81,-7.06,-6.64,-6.64,-6.65
119.92,-0.29,6.41,-0.29,6.41,-6.41,-5.87,-7.12,-6.71,-6.70,-6.71
121.12,-0.32,6.44,-0.32,6.45,-6.45,-5.93,-7.17,-6.77,-6.77,-6.77
122.33,-0.35,6.48,-0.35,6.48,-6.48,-5.99,-7.21,-6.83,-6.83,-6.84
123.55,-0.39,6.49,-0.39,6.51,-6.51,-6.05,-7.24,-6.90,-6.89,-6.89
124.79,-0.42,6.52,-0.42,6.53,-6.53,-6.11,-7.27,-6.95,-6.95,-6.95
126.03,-0.45,6.54,-0.45,6.56,-6.56,-6.17,-7.28,-7.01,-7.01,-7.00
127.29,-0.48,6.57,-0.48,6.58,-6.58,-6.22,-7.29,-7.06,-7.06,-7.06
128.57,-0.52,6.60,-0.52,6.60,-6.60,-6.28,-7.29,-7.13,-7.12,-7.13
129.85,-0.54,6.63,-0.55,6.63,-6.63,-6.34,-7.28,-7.17,-7.17,-7.18
131.15,-0.58,6.64,-0.58,6.65,-6.65,-6.39,-7.26,-7.23,-7.23,-7.23
132.46,-0.61,6.67,-0.61,6.66,-6.66,-6.44,-7.24,-7.28,-7.28,-7.29
133.79,-0.64,6.68,-0.65,6.68,-6.68,-6.50,-7.21,-7.32,-7.33,-7.33
135.12,-0.68,6.70,-0.68,6.69,-6.69,-6.55,-7.17,-7.38,-7.37,-7.39
136.48,-0.71,6.70,-0.71,6.71,-6.71,-6.60,-7.12,-7.42,-7.42,-7.42
137.84,-0.74,6.71,-0.74,6.72,-6.72,-6.65,-7.08,-7.46,-7.46,-7.46
139.22,-0.77,6.73,-0.77,6.73,-6.73,-6.70,-7.02,-7.50,-7.50,-7.51
140.61,-0.80,6.74,-0.80,6.73,-6.73,-6.75,-6.97,-7.54,-7.53,-7.55
142.02,-0.83,6.73,-0.83,6.74,-6.74,-6.79,-6.91,-7.57,-7.57,-7.57
143.44,-0.86,6.73,-0.86,6.74,-6.74,-6.84,-6.85,-7.60,-7.60,-7.60
144.87,-0.89,6.74,-0.89,6.75,-6.75,-6.88,-6.79,-7.64,-7.63,-7.64
146.32,-0.91,6.75,-0.92,6.75,-6.75,-6.92,-6.72,-7.66,-7.66,-7.67
147.78,-0.94,6.74,-0.94,6.75,-6.75,-6.96,-6.66,-7.69,-7.69,-7.69
149.26,-0.97,6.74,-0.97,6.75,-6.75,-7.00,-6.60,-7.72,-7.72,-7.72
150.75,-1.00,6.75,-1.00,6.75,-6.75,-7.04,-6.53,-7.75,-7.75,-7.76
152.26,-1.02,6.75,-1.02,6.75,-6.75,-7.08,-6.47,-7.77,-7.78,-7.78
153.78,-1.05,6.75,-1.05,6.75,-6.75,-7.11,-6.42,-7.81,-7.80,-7.81
155.32,-1.07,6.75,-1.08,6.76,-6.76,-7.15,-6.36,-7.83,-7.83,-7.83
156.88,-1.10,6.75,-1.10,6.76,-6.76,-7.18,-6.31,-7.86,-7.86,-7.86
158.44,-1.13,6.75,-1.13,6.76,-6.76,-7.21,-6.25,-7.89,-7.89,-7.89
160.03,-1.15,6.76,-1.15,6.76,-6.76,-7.23,-6.21,-7.91,-7.91,-7.92
161.63,-1.18,6.76,-1.18,6.76,-6.76,-7.26,-6.16,-7.95,-7.94,-7.95
163.24,-1.20,6.77,-1.20,6.77,-6.77,-7.28,-6.12,-7.97,-7.97,-7.98
164.88,-1.22,6.77,-1.22,6.77,-6.77,-7.30,-6.09,-7.99,-8.00,-8.00
166.53,-1.24,6.77,-1.25,6.78,-6.78,-7.32,-6.05,-8.02,-8.03,-8.02
168.19,-1.27,6.78,-1.27,6.78,-6.78,-7.34,-6.02,-8.05,-8.05,-8.06
169.87,-1.30,6.78,-1.30,6.79,-6.79,-7.36,-6.00,-8.09,-8.09,-8.09
171.57,-1.32,6.79,-1.32,6.79,-6.79,-7.37,-5.98,-8.12,-8.12,-8.12
173.29,-1.35,6.78,-1.35,6.80,-6.80,-7.38,-5.97,-8.15,-8.15,-8.14
175.02,-1.37,6.80,-1.37,6.81,-6.81,-7.39,-5.96,-8.18,-8.18,-8.18
176.77,-1.40,6.81,-1.40,6.82,-6.82,-7.40,-5.95,-8.22,-8.22,-8.22
178.54,-1.42,6.83,-1.43,6.83,-6.83,-7.40,-5.95,-8.25,-8.25,-8.26
180.32,-1.45,6.83,-1.45,6.83,-6.83,-7.41,-5.95,-8.28,-8.29,-8.29
182.13,-1.48,6.83,-1.48,6.84,-6.84,-7.41,-5.96,-8.32,-8.32,-8.32
183.95,-1.51,6.84,-1.51,6.85,-6.85,-7.41,-5.97,-8.36,-8.36,-8.36
185.79,-1.53,6.86,-1.54,6.85,-6.85,-7.40,-5.99,-8.39,-8.39,-8.40
187.65,-1.56,6.87,-1.56,6.86,-6.86,-7.40,-6.01,-8.42,-8.42,-8.44
189.52,-1.59,6.87,-1.59,6.86,-6.86,-7.39,-6.03,-8.45,-8.45,-8.47
191.42,-1.61,6.87,-1.62,6.86,-6.86,-7.38,-6.06,-8.47,-8.49,-8.49
193.33,-1.65,6.85,-1.65,6.87,-6.87,-7.37,-6.09,-8.52,-8.52,-8.51
195.27,-1.68,6.85,-1.68,6.86,-6.86,-7.36,-6.13,-8.55,-8.55,-8.54
197.22,-1.71,6.85,-1.71,6.86,-6.86,-7.34,-6.17,-8.57,-8.57,-8.57
199.19,-1.74,6.87,-1.74,6.86,-6.86,-7.32,-6.21,-8.60,-8.60,-8.62
201.18,-1.77,6.85,-1.77,6.85,-6.85,-7.30,-6.26,-8.62,-8.62,-8.63
203.19,-1.80,6.84,-1.80,6.85,-6.85,-7.28,-6.31,-8.65,-8.65,-8.65
205.23,-1.83,6.83,-1.82,6.84,-6.84,-7.26,-6.36,-8.67,-8.67,-8.67
207.28,-1.85,6.82,-1.85,6.84,-6.84,-7.23,-6.41,-8.69,-8.69,-8.68
209.35,-1.88,6.82,-1.88,6.83,-6.83,-7.20,-6.46,-8.71,-8.71,-8.71
211.44,-1.90,6.82,-1.90,6.82,-6.82,-7.17,-6.52,-8.72,-8.72,-8.73
213.56,-1.92,6.82,-1.93,6.81,-6.81,-7.14,-6.57,-8.73,-8.74,-8.75
215.69,-1.95,6.79,-1.95,6.81,-6.81,-7.11,-6.63,-8.76,-8.75,-8.75
217.85,-1.97,6.78,-1.97,6.79,-6.79,-7.08,-6.68,-8.77,-8.77,-8.76
220.03,-1.99,6.79,-1.99,6.78,-6.78,-7.04,-6.74,-8.77,-8.78,-8.79
222.23,-2.01,6.78,-2.01,6.77,-6.77,-7.00,-6.79,-8.78,-8.78,-8.80
224.45,-2.03,6.75,-2.03,6.76,-6.76,-6.96,-6.84,-8.79,-8.79,-8.79
226.70,-2.05,6.74,-2.05,6.74,-6.74,-6.92,-6.88,-8.79,-8.79,-8.80
228.96,-2.07,6.72,-2.07,6.73,-6.73,-6.88,-6.93,-8.80,-8.79,-8.80
231.25,-2.09,6.69,-2.08,6.71,-6.71,-6.84,-6.96,-8.80,-8.79,-8.79
233.57,-2.11,6.66,-2.10,6.69,-6.69,-6.80,-6.99,-8.80,-8.78,-8.78
235.90,-2.12,6.65,-2.11,6.66,-6.66,-6.75,-7.02,-8.78,-8.77,-8.78
238.26,-2.13,6.64,-2.13,6.63,-6.63,-6.70,-7.04,-8.77,-8.76,-8.78
240.64,-2.15,6.60,-2.15,6.60,-6.60,-6.66,-7.05,-8.75,-8.75,-8.76
243.05,-2.16,6.57,-2.17,6.57,-6.57,-6.61,-7.06,-8.73,-8.74,-8.74
245.48,-2.18,6.53,-2.19,6.53,-6.53,-6.56,-7.06,-8.71,-8.72,-8.72
247.93,-2.20,6.50,-2.22,6.48,-6.48,-6.51,-7.05,-8.68,-8.70,-8.71
250.41,-2.22,6.47,-2.25,6.44,-6.44,-6.46,-7.03,-8.66,-8.68,-8.70
252.92,-2.26,6.39,-2.28,6.38,-6.38,-6.40,-7.00,-8.65,-8.66,-8.66
255.45,-2.30,6.33,-2.31,6.33,-6.33,-6.35,-6.97,-8.63,-8.64,-8.64
258.00,-2.34,6.27,-2.35,6.27,-6.27,-6.30,-6.93,-8.62,-8.62,-8.62
260.58,-2.38,6.21,-2.38,6.22,-6.22,-6.24,-6.88,-8.60,-8.60,-8.60
263.19,-2.43,6.14,-2.42,6.16,-6.16,-6.19,-6.82,-8.59,-8.57,-8.58
265.82,-2.47,6.08,-2.45,6.10,-6.10,-6.13,-6.76,-8.57,-8.55,-8.56
268.48,-2.50,6.02,-2.49,6.04,-6.04,-6.07,-6.69,-8.54,-8.53,-8.53
271.16,-2.53,5.96,-2.52,5.98,-5.98,-6.02,-6.61,-8.51,-8.50,-8.50
273.87,-2.57,5.90,-2.55,5.93,-5.93,-5.96,-6.53,-8.50,-8.48,-8.48
276.61,-2.59,5.85,-2.58,5.87,-5.87,-5.90,-6.44,-8.46,-8.45,-8.45
279.38,-2.61,5.81,-2.61,5.82,-5.82,-5.85,-6.35,-8.43,-8.43,-8.43
282.17,-2.63,5.77,-2.63,5.77,-5.77,-5.79,-6.26,-8.40,-8.40,-8.41
284.99,-2.65,5.72,-2.65,5.72,-5.72,-5.73,-6.16,-8.38,-8.38,-8.38
287.84,-2.67,5.68,-2.67,5.68,-5.68,-5.67,-6.06,-8.35,-8.35,-8.36
290.72,-2.68,5.63,-2.69,5.63,-5.63,-5.61,-5.96,-8.31,-8.32,-8.32
293.63,-2.70,5.59,-2.71,5.58,-5.58,-5.55,-5.86,-8.28,-8.29,-8.30
296.57,-2.72,5.54,-2.73,5.53,-5.53,-5.49,-5.76,-8.25,-8.26,-8.27
299.53,-2.75,5.48,-2.75,5.48,-5.48,-5.43,-5.65,-8.23,-8.23,-8.24
302.53,-2.77,5.44,-2.77,5.43,-5.43,-5.37,-5.55,-8.20,-8.20,-8.22
305.55,-2.80,5.36,-2.80,5.37,-5.37,-5.32,-5.45,-8.17,-8.17,-8.17
308.61,-2.82,5.31,-2.82,5.31,-5.31,-5.26,-5.35,-8.14,-8.14,-8.14
311.69,-2.84,5.25,-2.85,5.26,-5.26,-5.20,-5.25,-8.10,-8.10,-8.10
314.81,-2.87,5.19,-2.87,5.20,-5.20,-5.14,-5.15,-8.07,-8.07,-8.07
317.96,-2.90,5.13,-2.90,5.14,-5.14,-5.08,-5.06,-8.04,-8.04,-8.04
321.14,-2.93,5.07,-2.93,5.08,-5.08,-5.02,-4.96,-8.01,-8.01,-8.01
324.35,-2.96,5.02,-2.96,5.02,-5.02,-4.96,-4.87,-7.98,-7.98,-7.99
327.59,-2.99,4.95,-2.99,4.96,-4.96,-4.90,-4.79,-7.95,-7.95,-7.95
330.87,-3.03,4.88,-3.03,4.90,-4.90,-4.84,-4.70,-7.93,-7.92,-7.92
334.18,-3.06,4.83,-3.06,4.84,-4.84,-4.79,-4.62,-7.90,-7.90,-7.90
337.52,-3.09,4.78,-3.09,4.78,-4.78,-4.73,-4.54,-7.87,-7.87,-7.88
340.90,-3.12,4.72,-3.13,4.72,-4.72,-4.67,-4.46,-7.84,-7.85,-7.85
344.30,-3.16,4.66,-3.16,4.66,-4.66,-4.61,-4.39,-7.83,-7.83,-7.83
347.75,-3.19,4.60,-3.19,4.61,-4.61,-4.56,-4.32,-7.80,-7.80,-7.80
351.23,-3.22,4.55,-3.23,4.55,-4.55,-4.50,-4.25,-7.78,-7.78,-7.78
354.74,-3.26,4.50,-3.26,4.50,-4.50,-4.44,-4.19,-7.76,-7.76,-7.77
358.28,-3.30,4.44,-3.30,4.45,-4.45,-4.39,-4.13,-7.75,-7.74,-7.75
361.87,-3.33,4.39,-3.33,4.39,-4.39,-4.33,-4.07,-7.72,-7.72,-7.73
365.49,-3.36,4.33,-3.36,4.34,-4.34,-4.27,-4.02,-7.70,-7.70,-7.70
369.14,-3.40,4.28,-3.39,4.29,-4.29,-4.22,-3.97,-7.69,-7.68,-7.69
372.83,-3.43,4.24,-3.42,4.24,-4.24,-4.17,-3.92,-7.67,-7.66,-7.68
376.56,-3.45,4.20,-3.45,4.19,-4.19,-4.11,-3.87,-7.64,-7.65,-7.66
380.33,-3.48,4.14,-3.48,4.14,-4.14,-4.06,-3.83,-7.62,-7.63,-7.63
384.13,-3.51,4.09,-3.51,4.10,-4.10,-4.00,-3.79,-7.61,-7.61,-7.61
387.97,-3.54,4.04,-3.54,4.05,-4.05,-3.95,-3.76,-7.59,-7.59,-7.59
391.85,-3.56,4.00,-3.56,4.00,-4.00,-3.90,-3.72,-7.56,-7.57,-7.57
395.77,-3.58,3.95,-3.59,3.96,-3.96,-3.85,-3.69,-7.54,-7.54,-7.54
399.73,-3.60,3.91,-3.61,3.92,-3.92,-3.80,-3.66,-7.52,-7.52,-7.52
403.72,-3.63,3.87,-3.63,3.87,-3.87,-3.75,-3.64,-7.50,-7.50,-7.51
407.76,-3.65,3.83,-3.65,3.83,-3.83,-3.70,-3.61,-7.48,-7.48,-7.49
411.84,-3.67,3.78,-3.67,3.79,-3.79,-3.65,-3.59,-7.46,-7.46,-7.46
415.96,-3.68,3.75,-3.68,3.75,-3.75,-3.60,-3.57,-7.43,-7.43,-7.44
420.12,-3.70,3.71,-3.70,3.71,-3.71,-3.55,-3.55,-7.42,-7.41,-7.42
424.32,-3.71,3.67,-3.71,3.68,-3.68,-3.50,-3.53,-7.39,-7.39,-7.39
428.56,-3.72,3.64,-3.72,3.64,-3.64,-3.45,-3.52,-7.36,-7.37,-7.37
432.85,-3.74,3.60,-3.74,3.61,-3.61,-3.41,-3.50,-7.35,-7.34,-7.35
