frequency,raw,error,smoothed,error_smoothed,equalization,parametric_eq,fixed_band_eq,equalized_raw,equalized_smoothed,target
20.00,-9.66,-9.38,-9.34,-9.08,9.08,6.92,3.50,-0.58,-0.26,-0.28
20.20,-9.63,-9.35,-9.48,-9.21,9.21,7.13,3.59,-0.42,-0.27,-0.28
20.40,-9.63,-9.35,-9.60,-9.33,9.33,7.35,3.69,-0.30,-0.27,-0.28
20.61,-9.65,-9.37,-9.72,-9.43,9.43,7.57,3.80,-0.22,-0.28,-0.28
20.81,-9.68,-9.40,-9.82,-9.53,9.53,7.79,3.90,-0.15,-0.29,-0.28
21.02,-9.73,-9.45,-9.92,-9.62,9.62,8.02,4.01,-0.12,-0.31,-0.28
21.23,-9.78,-9.48,-10.01,-9.69,9.69,8.23,4.12,-0.09,-0.32,-0.30
21.44,-9.87,-9.56,-10.09,-9.76,9.76,8.45,4.23,-0.12,-0.33,-0.31
21.66,-9.97,-9.64,-10.16,-9.81,9.81,8.66,4.35,-0.16,-0.35,-0.33
21.87,-10.08,-9.73,-10.22,-9.86,9.86,8.86,4.47,-0.23,-0.36,-0.35
22.09,-10.20,-9.84,-10.27,-9.89,9.89,9.04,4.59,-0.31,-0.38,-0.37
22.31,-10.33,-9.94,-10.31,-9.91,9.91,9.22,4.72,-0.42,-0.39,-0.40
22.54,-10.45,-10.03,-10.37,-9.96,9.96,9.38,4.85,-0.49,-0.42,-0.42
22.76,-10.54,-10.10,-10.42,-9.98,9.98,9.51,4.98,-0.56,-0.44,-0.44
22.99,-10.59,-10.12,-10.45,-9.99,9.99,9.63,5.12,-0.60,-0.46,-0.47
23.22,-10.61,-10.11,-10.46,-9.97,9.97,9.71,5.26,-0.64,-0.48,-0.50
23.45,-10.58,-10.06,-10.45,-9.94,9.94,9.78,5.40,-0.64,-0.51,-0.52
23.69,-10.50,-9.97,-10.42,-9.89,9.89,9.81,5.55,-0.61,-0.53,-0.53
23.92,-10.39,-9.84,-10.37,-9.83,9.83,9.81,5.69,-0.56,-0.55,-0.55
24.16,-10.26,-9.70,-10.31,-9.75,9.75,9.78,5.85,-0.51,-0.57,-0.56
24.40,-10.14,-9.56,-10.24,-9.66,9.66,9.72,6.00,-0.48,-0.59,-0.58
24.65,-10.04,-9.44,-10.16,-9.55,9.55,9.63,6.16,-0.49,-0.61,-0.60
24.89,-9.95,-9.33,-10.07,-9.45,9.45,9.52,6.32,-0.50,-0.62,-0.62
25.14,-9.88,-9.24,-9.97,-9.33,9.33,9.38,6.48,-0.55,-0.64,-0.64
25.39,-9.83,-9.17,-9.88,-9.22,9.22,9.22,6.64,-0.61,-0.66,-0.66
25.65,-9.78,-9.11,-9.78,-9.11,9.11,9.04,6.80,-0.68,-0.67,-0.67
25.91,-9.73,-9.03,-9.68,-8.99,8.99,8.84,6.97,-0.74,-0.69,-0.70
26.16,-9.66,-8.95,-9.59,-8.88,8.88,8.63,7.13,-0.78,-0.71,-0.71
26.43,-9.56,-8.84,-9.49,-8.77,8.77,8.41,7.29,-0.79,-0.72,-0.72
26.69,-9.44,-8.70,-9.39,-8.66,8.66,8.19,7.46,-0.79,-0.74,-0.74
26.96,-9.31,-8.56,-9.29,-8.53,8.53,7.95,7.62,-0.78,-0.75,-0.75
27.23,-9.17,-8.41,-9.17,-8.41,8.41,7.72,7.77,-0.77,-0.77,-0.77
27.50,-9.05,-8.28,-9.05,-8.27,8.27,7.48,7.92,-0.78,-0.78,-0.78
27.77,-8.91,-8.11,-8.92,-8.12,8.12,7.24,8.07,-0.79,-0.80,-0.80
28.05,-8.78,-7.97,-8.78,-7.97,7.97,7.01,8.21,-0.81,-0.81,-0.81
28.33,-8.65,-7.82,-8.64,-7.81,7.81,6.77,8.34,-0.84,-0.83,-0.83
28.62,-8.52,-7.68,-8.50,-7.66,7.66,6.54,8.46,-0.86,-0.84,-0.84
28.90,-8.38,-7.53,-8.37,-7.52,7.52,6.31,8.58,-0.86,-0.85,-0.85
29.19,-8.24,-7.36,-8.24,-7.38,7.38,6.09,8.67,-0.86,-0.87,-0.88
29.48,-8.09,-7.21,-8.13,-7.25,7.25,5.87,8.76,-0.84,-0.88,-0.88
29.78,-7.97,-7.08,-8.02,-7.13,7.13,5.66,8.83,-0.85,-0.89,-0.89
30.08,-7.85,-6.95,-7.92,-7.01,7.01,5.45,8.89,-0.84,-0.91,-0.90
30.38,-7.77,-6.85,-7.83,-6.91,6.91,5.25,8.92,-0.87,-0.93,-0.92
30.68,-7.70,-6.76,-7.75,-6.81,6.81,5.05,8.94,-0.90,-0.94,-0.94
30.99,-7.64,-6.68,-7.67,-6.71,6.71,4.86,8.94,-0.93,-0.96,-0.96
31.30,-7.60,-6.63,-7.60,-6.62,6.62,4.68,8.93,-0.98,-0.97,-0.97
31.61,-7.55,-6.57,-7.53,-6.54,6.54,4.49,8.89,-1.02,-0.99,-0.98
31.93,-7.50,-6.50,-7.46,-6.45,6.45,4.32,8.83,-1.05,-1.01,-1.01
32.24,-7.45,-6.41,-7.40,-6.37,6.37,4.15,8.76,-1.08,-1.03,-1.04
32.57,-7.37,-6.32,-7.34,-6.29,6.29,3.98,8.67,-1.08,-1.05,-1.05
32.89,-7.30,-6.24,-7.27,-6.20,6.20,3.82,8.57,-1.10,-1.07,-1.07
33.22,-7.22,-6.12,-7.20,-6.11,6.11,3.67,8.45,-1.11,-1.09,-1.10
33.55,-7.14,-6.03,-7.13,-6.02,6.02,3.52,8.31,-1.12,-1.11,-1.11
33.89,-7.05,-5.92,-7.05,-5.92,5.92,3.37,8.16,-1.13,-1.14,-1.13
34.23,-6.97,-5.81,-6.97,-5.82,5.82,3.23,8.00,-1.16,-1.16,-1.16
34.57,-6.88,-5.70,-6.89,-5.71,5.71,3.09,7.84,-1.17,-1.18,-1.18
34.92,-6.80,-5.60,-6.81,-5.61,5.61,2.96,7.66,-1.19,-1.20,-1.20
35.27,-6.72,-5.50,-6.73,-5.51,5.51,2.83,7.48,-1.22,-1.22,-1.22
35.62,-6.63,-5.39,-6.65,-5.41,5.41,2.70,7.29,-1.23,-1.24,-1.24
35.97,-6.55,-5.28,-6.57,-5.31,5.31,2.58,7.09,-1.24,-1.26,-1.27
36.33,-6.46,-5.18,-6.49,-5.21,5.21,2.46,6.89,-1.25,-1.29,-1.28
36.70,-6.40,-5.10,-6.42,-5.11,5.11,2.35,6.69,-1.29,-1.31,-1.31
37.06,-6.33,-5.00,-6.35,-5.02,5.02,2.24,6.49,-1.31,-1.33,-1.33
37.43,-6.26,-4.92,-6.27,-4.92,4.92,2.13,6.28,-1.34,-1.35,-1.35
37.81,-6.21,-4.84,-6.20,-4.82,4.82,2.02,6.08,-1.39,-1.37,-1.37
38.19,-6.13,-4.74,-6.12,-4.72,4.72,1.92,5.87,-1.41,-1.39,-1.39
38.57,-6.06,-4.65,-6.03,-4.62,4.62,1.82,5.67,-1.44,-1.41,-1.41
38.95,-5.98,-4.54,-5.95,-4.51,4.51,1.72,5.46,-1.47,-1.44,-1.44
39.34,-5.88,-4.42,-5.86,-4.40,4.40,1.63,5.26,-1.48,-1.46,-1.46
39.74,-5.79,-4.30,-5.77,-4.29,4.29,1.54,5.06,-1.50,-1.48,-1.49
40.14,-5.69,-4.20,-5.67,-4.18,4.18,1.45,4.86,-1.52,-1.50,-1.49
40.54,-5.58,-4.06,-5.57,-4.06,4.06,1.36,4.66,-1.52,-1.52,-1.52
40.94,-5.47,-3.93,-5.47,-3.94,3.94,1.27,4.46,-1.53,-1.54,-1.54
41.35,-5.36,-3.80,-5.37,-3.82,3.82,1.19,4.27,-1.55,-1.56,-1.56
41.76,-5.24,-3.67,-5.27,-3.69,3.69,1.11,4.08,-1.55,-1.58,-1.57
42.18,-5.14,-3.55,-5.17,-3.57,3.57,1.03,3.89,-1.57,-1.60,-1.59
42.60,-5.04,-3.42,-5.07,-3.45,3.45,0.95,3.70,-1.59,-1.62,-1.62
43.03,-4.95,-3.33,-4.97,-3.33,3.33,0.87,3.51,-1.62,-1.64,-1.62
43.46,-4.86,-3.21,-4.87,-3.21,3.21,0.80,3.33,-1.65,-1.66,-1.65
43.90,-4.76,-3.08,-4.78,-3.10,3.10,0.72,3.15,-1.66,-1.68,-1.68
44.33,-4.68,-2.98,-4.68,-2.98,2.98,0.65,2.97,-1.70,-1.70,-1.70
44.78,-4.60,-2.88,-4.59,-2.87,2.87,0.58,2.79,-1.73,-1.72,-1.72
45.23,-4.50,-2.75,-4.49,-2.75,2.75,0.51,2.62,-1.75,-1.74,-1.75
45.68,-4.41,-2.64,-4.39,-2.63,2.63,0.44,2.44,-1.78,-1.76,-1.77
46.13,-4.31,-2.52,-4.29,-2.51,2.51,0.38,2.27,-1.80,-1.78,-1.79
46.60,-4.20,-2.40,-4.19,-2.38,2.38,0.31,2.10,-1.82,-1.81,-1.80
47.06,-4.09,-2.27,-4.08,-2.25,2.25,0.24,1.94,-1.84,-1.83,-1.82
47.53,-3.98,-2.14,-3.97,-2.12,2.12,0.18,1.77,-1.86,-1.85,-1.84
48.01,-3.86,-2.01,-3.86,-1.98,1.98,0.12,1.61,-1.88,-1.88,-1.86
48.49,-3.74,-1.85,-3.74,-1.84,1.84,0.05,1.44,-1.90,-1.90,-1.89
48.97,-3.62,-1.70,-3.62,-1.70,1.70,-0.01,1.28,-1.92,-1.92,-1.92
49.46,-3.50,-1.55,-3.50,-1.55,1.55,-0.07,1.13,-1.95,-1.95,-1.96
49.96,-3.37,-1.38,-3.38,-1.41,1.41,-0.13,0.97,-1.96,-1.97,-1.99
50.46,-3.24,-1.25,-3.25,-1.26,1.26,-0.19,0.82,-1.98,-2.00,-1.99
50.96,-3.12,-1.10,-3.13,-1.11,1.11,-0.25,0.66,-2.01,-2.02,-2.02
51.47,-3.00,-0.95,-3.01,-0.96,0.96,-0.31,0.51,-2.04,-2.05,-2.05
51.99,-2.88,-0.80,-2.88,-0.81,0.81,-0.36,0.37,-2.07,-2.08,-2.08
52.51,-2.76,-0.67,-2.76,-0.66,0.66,-0.42,0.22,-2.10,-2.10,-2.10
53.03,-2.64,-0.52,-2.64,-0.51,0.51,-0.48,0.08,-2.13,-2.13,-2.12
53.56,-2.52,-0.37,-2.51,-0.36,0.36,-0.53,-0.07,-2.16,-2.16,-2.15
54.10,-2.39,-0.21,-2.39,-0.21,0.21,-0.59,-0.20,-2.18,-2.18,-2.18
54.64,-2.28,-0.07,-2.27,-0.06,0.06,-0.65,-0.34,-2.22,-2.21,-2.21
55.18,-2.15,0.09,-2.15,0.09,-0.09,-0.70,-0.47,-2.24,-2.23,-2.24
55.74,-2.03,0.24,-2.03,0.23,-0.23,-0.76,-0.60,-2.27,-2.26,-2.27
56.29,-1.91,0.38,-1.91,0.38,-0.38,-0.81,-0.73,-2.29,-2.29,-2.29
56.86,-1.79,0.53,-1.79,0.52,-0.52,-0.87,-0.85,-2.32,-2.32,-2.32
57.42,-1.67,0.68,-1.68,0.67,-0.67,-0.92,-0.97,-2.34,-2.35,-2.35
58.00,-1.56,0.81,-1.57,0.81,-0.81,-0.97,-1.09,-2.37,-2.38,-2.38
58.58,-1.45,0.96,-1.46,0.95,-0.95,-1.03,-1.20,-2.40,-2.41,-2.41
59.16,-1.34,1.09,-1.36,1.08,-1.08,-1.08,-1.31,-2.42,-2.44,-2.43
59.76,-1.25,1.21,-1.26,1.21,-1.21,-1.14,-1.41,-2.46,-2.47,-2.46
60.35,-1.16,1.33,-1.16,1.33,-1.33,-1.19,-1.51,-2.49,-2.50,-2.49
60.96,-1.07,1.44,-1.07,1.46,-1.46,-1.24,-1.61,-2.53,-2.53,-2.51
61.57,-0.99,1.57,-0.99,1.57,-1.57,-1.30,-1.70,-2.57,-2.56,-2.56
62.18,-0.90,1.70,-0.90,1.69,-1.69,-1.35,-1.78,-2.59,-2.59,-2.60
62.80,-0.82,1.81,-0.82,1.80,-1.80,-1.40,-1.86,-2.62,-2.62,-2.63
63.43,-0.75,1.92,-0.75,1.90,-1.90,-1.46,-1.94,-2.66,-2.65,-2.67
64.07,-0.69,2.01,-0.68,2.01,-2.01,-1.51,-2.02,-2.70,-2.69,-2.70
64.71,-0.61,2.11,-0.61,2.11,-2.11,-1.56,-2.09,-2.72,-2.72,-2.72
65.35,-0.55,2.20,-0.54,2.20,-2.20,-1.62,-2.15,-2.75,-2.75,-2.75
66.01,-0.48,2.29,-0.48,2.30,-2.30,-1.67,-2.21,-2.78,-2.78,-2.78
66.67,-0.42,2.39,-0.42,2.39,-2.39,-1.72,-2.27,-2.81,-2.81,-2.81
67.33,-0.36,2.47,-0.37,2.47,-2.47,-1.78,-2.33,-2.83,-2.84,-2.84
68.01,-0.31,2.56,-0.32,2.55,-2.55,-1.83,-2.38,-2.87,-2.87,-2.87
68.69,-0.26,2.64,-0.27,2.63,-2.63,-1.89,-2.43,-2.90,-2.90,-2.90
69.37,-0.22,2.72,-0.22,2.71,-2.71,-1.94,-2.48,-2.93,-2.93,-2.94
70.07,-0.18,2.79,-0.18,2.79,-2.79,-1.99,-2.53,-2.97,-2.97,-2.97
70.77,-0.14,2.86,-0.14,2.86,-2.86,-2.05,-2.57,-3.00,-3.00,-3.00
71.48,-0.10,2.94,-0.10,2.94,-2.94,-2.10,-2.62,-3.04,-3.04,-3.04
72.19,-0.07,3.00,-0.07,3.01,-3.01,-2.16,-2.66,-3.08,-3.08,-3.07
72.91,-0.04,3.07,-0.04,3.08,-3.08,-2.21,-2.70,-3.12,-3.12,-3.11
73.64,-0.01,3.15,-0.01,3.14,-3.14,-2.27,-2.75,-3.15,-3.16,-3.16
74.38,0.01,3.20,0.01,3.21,-3.21,-2.32,-2.79,-3.20,-3.20,-3.19
75.12,0.04,3.29,0.04,3.28,-3.28,-2.38,-2.83,-3.24,-3.24,-3.25
75.87,0.06,3.34,0.06,3.34,-3.34,-2.44,-2.88,-3.28,-3.28,-3.29
76.63,0.08,3.40,0.08,3.41,-3.41,-2.49,-2.92,-3.33,-3.33,-3.32
77.40,0.10,3.47,0.10,3.47,-3.47,-2.55,-2.97,-3.37,-3.37,-3.37
78.17,0.11,3.54,0.11,3.54,-3.54,-2.61,-3.01,-3.43,-3.42,-3.43
78.95,0.13,3.59,0.13,3.60,-3.60,-2.66,-3.06,-3.47,-3.47,-3.46
79.74,0.14,3.65,0.14,3.66,-3.66,-2.72,-3.11,-3.52,-3.52,-3.52
80.54,0.15,3.72,0.15,3.72,-3.72,-2.78,-3.17,-3.58,-3.57,-3.57
81.35,0.17,3.79,0.16,3.79,-3.79,-2.84,-3.22,-3.62,-3.62,-3.62
82.16,0.17,3.85,0.17,3.85,-3.85,-2.89,-3.28,-3.68,-3.68,-3.68
82.98,0.18,3.90,0.18,3.91,-3.91,-2.95,-3.34,-3.73,-3.73,-3.72
83.81,0.19,3.98,0.19,3.97,-3.97,-3.01,-3.40,-3.78,-3.78,-3.79
84.65,0.19,4.04,0.19,4.03,-4.03,-3.07,-3.47,-3.84,-3.84,-3.85
85.50,0.20,4.09,0.19,4.09,-4.09,-3.13,-3.53,-3.89,-3.90,-3.90
86.35,0.20,4.15,0.20,4.15,-4.15,-3.19,-3.60,-3.95,-3.95,-3.95
87.22,0.19,4.20,0.20,4.21,-4.21,-3.25,-3.68,-4.02,-4.01,-4.01
88.09,0.20,4.27,0.20,4.27,-4.27,-3.31,-3.75,-4.07,-4.07,-4.07
88.97,0.20,4.32,0.20,4.33,-4.33,-3.37,-3.83,-4.13,-4.13,-4.13
89.86,0.20,4.39,0.20,4.39,-4.39,-3.43,-3.92,-4.19,-4.19,-4.19
90.76,0.19,4.45,0.19,4.44,-4.44,-3.49,-4.00,-4.25,-4.25,-4.26
91.66,0.19,4.50,0.19,4.50,-4.50,-3.55,-4.09,-4.31,-4.31,-4.31
92.58,0.18,4.57,0.18,4.56,-4.56,-3.62,-4.18,-4.38,-4.37,-4.39
93.51,0.18,4.61,0.18,4.62,-4.62,-3.68,-4.28,-4.44,-4.44,-4.43
94.44,0.18,4.67,0.17,4.68,-4.68,-3.74,-4.37,-4.50,-4.50,-4.50
95.39,0.17,4.73,0.17,4.74,-4.74,-3.80,-4.47,-4.57,-4.57,-4.56
96.34,0.16,4.80,0.16,4.80,-4.80,-3.87,-4.58,-4.64,-4.64,-4.64
97.30,0.15,4.85,0.15,4.85,-4.85,-3.93,-4.68,-4.71,-4.70,-4.70
98.28,0.14,4.91,0.14,4.91,-4.91,-3.99,-4.79,-4.77,-4.77,-4.77
99.26,0.13,4.97,0.13,4.97,-4.97,-4.06,-4.90,-4.84,-4.84,-4.85
100.25,0.12,5.03,0.12,5.03,-5.03,-4.12,-5.01,-4.91,-4.91,-4.91
101.25,0.11,5.09,0.10,5.09,-5.09,-4.18,-5.13,-4.98,-4.98,-4.98
102.27,0.09,5.15,0.09,5.15,-5.15,-4.25,-5.24,-5.06,-5.06,-5.06
103.29,0.08,5.21,0.08,5.20,-5.20,-4.31,-5.36,-5.12,-5.13,-5.14
104.32,0.06,5.26,0.06,5.26,-5.26,-4.38,-5.47,-5.20,-5.20,-5.20
105.37,0.05,5.32,0.04,5.32,-5.32,-4.44,-5.59,-5.27,-5.28,-5.27
106.42,0.02,5.37,0.02,5.37,-5.37,-4.51,-5.71,-5.36,-5.35,-5.35
107.48,-0.00,5.43,0.00,5.43,-5.43,-4.57,-5.82,-5.43,-5.43,-5.43
108.56,-0.02,5.48,-0.02,5.49,-5.49,-4.64,-5.94,-5.51,-5.50,-5.50
109.64,-0.04,5.54,-0.04,5.54,-5.54,-4.70,-6.05,-5.58,-5.58,-5.58
110.74,-0.06,5.59,-0.06,5.60,-5.60,-4.77,-6.16,-5.66,-5.66,-5.65
111.85,-0.09,5.64,-0.09,5.65,-5.65,-4.83,-6.27,-5.74,-5.74,-5.73
112.97,-0.11,5.71,-0.11,5.70,-5.70,-4.90,-6.37,-5.81,-5.81,-5.82
114.10,-0.14,5.75,-0.14,5.75,-5.75,-4.96,-6.47,-5.89,-5.89,-5.89
115.24,-0.16,5.80,-0.17,5.80,-5.80,-5.03,-6.56,-5.96,-5.97,-5.97
116.39,-0.19,5.86,-0.20,5.85,-5.85,-5.09,-6.65,-6.04,-6.04,-6.05
117.55,-0.23,5.90,-0.23,5.89,-5.89,-5.16,-6.73,-6.12,-6.12,-6.13
118.73,-0.26,5.94,-0.26,5.94,-5.94,-5.22,-6.80,-6.20,-6.19,-6.20
119.92,-0.29,5.98,-0.29,5.98,-5.98,-5.29,-6.87,-6.27,-6.27,-6.27
121.12,-0.32,6.02,-0.32,6.02,-6.02,-5.35,-6.93,-6.34,-6.34,-6.34
122.33,-0.35,6.06,-0.35,6.06,-6.06,-5.42,-6.97,-6.41,-6.41,-6.41
123.55,-0.39,6.09,-0.39,6.10,-6.10,-5.48,-7.01,-6.49,-6.48,-6.48
124.79,-0.42,6.13,-0.42,6.14,-6.14,-5.55,-7.05,-6.56,-6.55,-6.55
126.03,-0.45,6.16,-0.45,6.17,-6.17,-5.61,-7.07,-6.62,-6.62,-6.61
127.29,-0.48,6.20,-0.48,6.20,-6.20,-5.67,-7.08,-6.69,-6.69,-6.68
128.57,-0.52,6.24,-0.52,6.24,-6.24,-5.73,-7.08,-6.76,-6.75,-6.76
129.85,-0.54,6.28,-0.55,6.27,-6.27,-5.80,-7.08,-6.81,-6.82,-6.82
131.15,-0.58,6.30,-0.58,6.30,-6.30,-5.86,-7.07,-6.88,-6.88,-6.88
132.46,-0.61,6.33,-0.61,6.32,-6.32,-5.92,-7.05,-6.93,-6.94,-6.95
133.79,-0.64,6.35,-0.65,6.35,-6.35,-5.98,-7.02,-6.99,-7.00,-6.99
135.12,-0.68,6.38,-0.68,6.37,-6.37,-6.04,-6.99,-7.05,-7.05,-7.06
136.48,-0.71,6.39,-0.71,6.39,-6.39,-6.10,-6.95,-7.10,-7.10,-7.10
137.84,-0.74,6.41,-0.74,6.41,-6.41,-6.16,-6.90,-7.15,-7.15,-7.15
139.22,-0.77,6.44,-0.77,6.43,-6.43,-6.21,-6.85,-7.20,-7.20,-7.21
140.61,-0.80,6.46,-0.80,6.45,-6.45,-6.27,-6.80,-7.25,-7.25,-7.26
142.02,-0.83,6.45,-0.83,6.46,-6.46,-6.32,-6.74,-7.29,-7.29,-7.28
143.44,-0.86,6.46,-0.86,6.47,-6.47,-6.38,-6.68,-7.33,-7.33,-7.32
144.87,-0.89,6.48,-0.89,6.48,-6.48,-6.43,-6.62,-7.37,-7.37,-7.37
146.32,-0.91,6.50,-0.92,6.49,-6.49,-6.48,-6.56,-7.40,-7.41,-7.41
147.78,-0.94,6.50,-0.94,6.50,-6.50,-6.54,-6.50,-7.44,-7.45,-7.44
149.26,-0.97,6.50,-0.97,6.51,-6.51,-6.59,-6.44,-7.48,-7.48,-7.48
150.75,-1.00,6.52,-1.00,6.52,-6.52,-6.63,-6.38,-7.52,-7.52,-7.52
152.26,-1.02,6.53,-1.02,6.53,-6.53,-6.68,-6.32,-7.55,-7.55,-7.55
153.78,-1.05,6.54,-1.05,6.54,-6.54,-6.73,-6.27,-7.59,-7.59,-7.59
155.32,-1.07,6.55,-1.08,6.55,-6.55,-6.77,-6.21,-7.62,-7.62,-7.62
156.88,-1.10,6.55,-1.10,6.56,-6.56,-6.81,-6.16,-7.66,-7.66,-7.65
158.44,-1.13,6.56,-1.13,6.57,-6.57,-6.85,-6.11,-7.70,-7.69,-7.69
160.03,-1.15,6.58,-1.15,6.58,-6.58,-6.89,-6.06,-7.73,-7.73,-7.73
161.63,-1.18,6.59,-1.18,6.59,-6.59,-6.93,-6.02,-7.77,-7.76,-7.77
163.24,-1.20,6.60,-1.20,6.60,-6.60,-6.97,-5.98,-7.80,-7.80,-7.80
164.88,-1.22,6.60,-1.22,6.61,-6.61,-7.00,-5.94,-7.83,-7.83,-7.83
166.53,-1.24,6.62,-1.25,6.62,-6.62,-7.03,-5.91,-7.86,-7.87,-7.86
168.19,-1.27,6.63,-1.27,6.63,-6.63,-7.06,-5.89,-7.90,-7.90,-7.91
169.87,-1.30,6.64,-1.30,6.64,-6.64,-7.09,-5.86,-7.94,-7.94,-7.94
171.57,-1.32,6.65,-1.32,6.65,-6.65,-7.12,-5.84,-7.98,-7.98,-7.97
173.29,-1.35,6.65,-1.35,6.67,-6.67,-7.14,-5.83,-8.02,-8.02,-8.00
175.02,-1.37,6.67,-1.37,6.68,-6.68,-7.16,-5.82,-8.05,-8.06,-8.05
176.77,-1.40,6.69,-1.40,6.70,-6.70,-7.18,-5.81,-8.10,-8.10,-8.10
178.54,-1.42,6.71,-1.43,6.71,-6.71,-7.20,-5.81,-8.13,-8.13,-8.14
180.32,-1.45,6.72,-1.45,6.72,-6.72,-7.22,-5.82,-8.17,-8.17,-8.17
182.13,-1.48,6.73,-1.48,6.73,-6.73,-7.23,-5.82,-8.22,-8.21,-8.21
183.95,-1.51,6.75,-1.51,6.75,-6.75,-7.24,-5.84,-8.26,-8.25,-8.26
185.79,-1.53,6.76,-1.54,6.76,-6.76,-7.25,-5.85,-8.29,-8.29,-8.29
187.65,-1.56,6.78,-1.56,6.77,-6.77,-7.25,-5.87,-8.33,-8.33,-8.34
189.52,-1.59,6.78,-1.59,6.78,-6.78,-7.26,-5.90,-8.37,-8.37,-8.37
191.42,-1.61,6.80,-1.62,6.78,-6.78,-7.26,-5.93,-8.39,-8.40,-8.41
193.33,-1.65,6.78,-1.65,6.79,-6.79,-7.26,-5.96,-8.44,-8.44,-8.43
195.27,-1.68,6.78,-1.68,6.79,-6.79,-7.26,-5.99,-8.47,-8.47,-8.46
197.22,-1.71,6.78,-1.71,6.79,-6.79,-7.25,-6.03,-8.50,-8.50,-8.50
199.19,-1.74,6.81,-1.74,6.79,-6.79,-7.24,-6.08,-8.53,-8.53,-8.55
201.18,-1.77,6.80,-1.77,6.79,-6.79,-7.24,-6.12,-8.56,-8.56,-8.57
203.19,-1.80,6.79,-1.80,6.79,-6.79,-7.22,-6.17,-8.59,-8.59,-8.59
205.23,-1.83,6.78,-1.82,6.79,-6.79,-7.21,-6.22,-8.62,-8.61,-8.62
207.28,-1.85,6.77,-1.85,6.79,-6.79,-7.19,-6.27,-8.64,-8.64,-8.62
209.35,-1.88,6.78,-1.88,6.79,-6.79,-7.18,-6.33,-8.67,-8.66,-8.66
211.44,-1.90,6.79,-1.90,6.78,-6.78,-7.16,-6.38,-8.68,-8.68,-8.69
213.56,-1.92,6.78,-1.93,6.78,-6.78,-7.13,-6.44,-8.70,-8.70,-8.71
215.69,-1.95,6.76,-1.95,6.77,-6.77,-7.11,-6.49,-8.72,-8.72,-8.71
217.85,-1.97,6.76,-1.97,6.76,-6.76,-7.08,-6.55,-8.73,-8.73,-8.73
220.03,-1.99,6.76,-1.99,6.75,-6.75,-7.05,-6.60,-8.74,-8.75,-8.75
222.23,-2.01,6.76,-2.01,6.74,-6.74,-7.02,-6.65,-8.75,-8.76,-8.77
224.45,-2.03,6.73,-2.03,6.73,-6.73,-6.99,-6.70,-8.76,-8.76,-8.76
226.70,-2.05,6.72,-2.05,6.72,-6.72,-6.96,-6.74,-8.77,-8.77,-8.77
228.96,-2.07,6.71,-2.07,6.71,-6.71,-6.92,-6.79,-8.78,-8.77,-8.78
231.25,-2.09,6.68,-2.08,6.69,-6.69,-6.89,-6.82,-8.78,-8.77,-8.77
233.57,-2.11,6.65,-2.10,6.67,-6.67,-6.85,-6.86,-8.78,-8.77,-8.76
235.90,-2.12,6.64,-2.11,6.65,-6.65,-6.81,-6.88,-8.77,-8.76,-8.76
238.26,-2.13,6.63,-2.13,6.63,-6.63,-6.76,-6.90,-8.76,-8.76,-8.77
240.64,-2.15,6.60,-2.15,6.60,-6.60,-6.72,-6.92,-8.75,-8.75,-8.75
243.05,-2.16,6.58,-2.17,6.56,-6.56,-6.68,-6.92,-8.73,-8.73,-8.74
245.48,-2.18,6.54,-2.19,6.53,-6.53,-6.63,-6.92,-8.71,-8.72,-8.72
247.93,-2.20,6.51,-2.22,6.49,-6.49,-6.58,-6.92,-8.69,-8.71,-8.71
250.41,-2.22,6.48,-2.25,6.44,-6.44,-6.54,-6.90,-8.66,-8.69,-8.70
252.92,-2.26,6.40,-2.28,6.39,-6.39,-6.49,-6.88,-8.65,-8.67,-8.67
255.45,-2.30,6.34,-2.31,6.34,-6.34,-6.44,-6.84,-8.64,-8.65,-8.64
258.00,-2.34,6.28,-2.35,6.28,-6.28,-6.38,-6.80,-8.63,-8.63,-8.62
260.58,-2.38,6.23,-2.38,6.23,-6.23,-6.33,-6.76,-8.61,-8.61,-8.61
263.19,-2.43,6.16,-2.42,6.17,-6.17,-6.28,-6.70,-8.60,-8.59,-8.59
265.82,-2.47,6.10,-2.45,6.11,-6.11,-6.23,-6.64,-8.58,-8.56,-8.57
268.48,-2.50,6.04,-2.49,6.05,-6.05,-6.17,-6.58,-8.56,-8.54,-8.54
271.16,-2.53,5.98,-2.52,6.00,-6.00,-6.11,-6.50,-8.53,-8.52,-8.51
273.87,-2.57,5.93,-2.55,5.95,-5.95,-6.06,-6.42,-8.52,-8.50,-8.50
276.61,-2.59,5.87,-2.58,5.89,-5.89,-6.00,-6.34,-8.49,-8.47,-8.46
279.38,-2.61,5.84,-2.61,5.84,-5.84,-5.95,-6.26,-8.45,-8.45,-8.45
282.17,-2.63,5.80,-2.63,5.80,-5.80,-5.89,-6.17,-8.43,-8.43,-8.43
284.99,-2.65,5.75,-2.65,5.75,-5.75,-5.83,-6.07,-8.40,-8.40,-8.40
287.84,-2.67,5.71,-2.67,5.70,-5.70,-5.77,-5.98,-8.37,-8.37,-8.38
290.72,-2.68,5.66,-2.69,5.66,-5.66,-5.71,-5.88,-8.34,-8.35,-8.34
293.63,-2.70,5.63,-2.71,5.61,-5.61,-5.65,-5.78,-8.31,-8.32,-8.33
296.57,-2.72,5.57,-2.73,5.56,-5.56,-5.59,-5.69,-8.28,-8.29,-8.29
299.53,-2.75,5.52,-2.75,5.51,-5.51,-5.53,-5.59,-8.26,-8.26,-8.27
302.53,-2.77,5.47,-2.77,5.46,-5.46,-5.47,-5.49,-8.23,-8.23,-8.24
305.55,-2.80,5.40,-2.80,5.40,-5.40,-5.41,-5.39,-8.21,-8.20,-8.20
308.61,-2.82,5.35,-2.82,5.35,-5.35,-5.35,-5.30,-8.17,-8.17,-8.17
311.69,-2.84,5.29,-2.85,5.29,-5.29,-5.29,-5.20,-8.13,-8.14,-8.14
314.81,-2.87,5.23,-2.87,5.23,-5.23,-5.23,-5.11,-8.10,-8.11,-8.10
317.96,-2.90,5.17,-2.90,5.17,-5.17,-5.17,-5.02,-8.08,-8.08,-8.07
321.14,-2.93,5.12,-2.93,5.12,-5.12,-5.11,-4.93,-8.05,-8.05,-8.05
324.35,-2.96,5.06,-2.96,5.06,-5.06,-5.05,-4.85,-8.02,-8.02,-8.02
327.59,-2.99,4.99,-2.99,5.00,-5.00,-4.99,-4.76,-7.99,-7.99,-7.98
330.87,-3.03,4.93,-3.03,4.94,-4.94,-4.94,-4.68,-7.97,-7.96,-7.96
334.18,-3.06,4.88,-3.06,4.88,-4.88,-4.88,-4.61,-7.94,-7.94,-7.94
337.52,-3.09,4.82,-3.09,4.82,-4.82,-4.82,-4.53,-7.91,-7.91,-7.91
340.90,-3.12,4.77,-3.13,4.77,-4.77,-4.76,-4.46,-7.89,-7.89,-7.89
344.30,-3.16,4.71,-3.16,4.71,-4.71,-4.70,-4.39,-7.87,-7.87,-7.87
347.75,-3.19,4.65,-3.19,4.65,-4.65,-4.64,-4.33,-7.84,-7.85,-7.84
351.23,-3.22,4.60,-3.23,4.60,-4.60,-4.58,-4.27,-7.82,-7.83,-7.83
354.74,-3.26,4.55,-3.26,4.54,-4.54,-4.52,-4.21,-7.81,-7.81,-7.81
358.28,-3.30,4.49,-3.30,4.49,-4.49,-4.47,-4.15,-7.79,-7.79,-7.79
361.87,-3.33,4.44,-3.33,4.44,-4.44,-4.41,-4.10,-7.77,-7.77,-7.77
365.49,-3.36,4.38,-3.36,4.39,-4.39,-4.35,-4.05,-7.75,-7.75,-7.74
369.14,-3.40,4.34,-3.39,4.34,-4.34,-4.30,-4.01,-7.74,-7.73,-7.74
372.83,-3.43,4.29,-3.42,4.29,-4.29,-4.24,-3.96,-7.72,-7.71,-7.72
376.56,-3.45,4.25,-3.45,4.24,-4.24,-4.19,-3.92,-7.69,-7.69,-7.70
380.33,-3.48,4.19,-3.48,4.19,-4.19,-4.13,-3.89,-7.67,-7.67,-7.67
384.13,-3.51,4.14,-3.51,4.14,-4.14,-4.08,-3.85,-7.66,-7.66,-7.65
387.97,-3.54,4.09,-3.54,4.10,-4.10,-4.02,-3.82,-7.64,-7.64,-7.64
391.85,-3.56,4.06,-3.56,4.05,-4.05,-3.97,-3.79,-7.61,-7.61,-7.62
395.77,-3.58,4.01,-3.59,4.01,-4.01,-3.91,-3.77,-7.59,-7.59,-7.59
399.73,-3.60,3.97,-3.61,3.97,-3.97,-3.86,-3.74,-7.57,-7.57,-7.57
403.72,-3.63,3.92,-3.63,3.92,-3.92,-3.81,-3.72,-7.55,-7.55,-7.55
407.76,-3.65,3.88,-3.65,3.88,-3.88,-3.76,-3.70,-7.54,-7.53,-7.53
411.84,-3.67,3.83,-3.67,3.84,-3.84,-3.71,-3.69,-7.52,-7.51,-7.51
415.96,-3.68,3.81,-3.68,3.81,-3.81,-3.66,-3.67,-7.49,-7.49,-7.49
420.12,-3.70,3.77,-3.70,3.77,-3.77,-3.61,-3.66,-7.47,-7.47,-7.47
424.32,-3.71,3.73,-3.71,3.73,-3.73,-3.56,-3.65,-7.44,-7.44,-7.44
428.56,-3.72,3.70,-3.72,3.70,-3.70,-3.51,-3.64,-7.42,-7.42,-7.42
432.85,-3.74,3.66,-3.74,3.66,-3.66,-3.46,-3.63,-7.40,-7.40,-7.40
