frequency,raw,error,smoothed,error_smoothed,equalization,parametric_eq,fixed_band_eq,equalized_raw,equalized_smoothed,target
20.00,0.50,-7.30,0.54,-7.29,7.29,5.80,3.54,7.79,7.83,7.80
20.20,0.58,-7.27,0.63,-7.23,7.23,5.89,3.64,7.82,7.87,7.85
20.40,0.65,-7.25,0.71,-7.19,7.19,5.97,3.74,7.84,7.90,7.90
20.61,0.73,-7.20,0.79,-7.15,7.15,6.06,3.84,7.88,7.93,7.93
20.81,0.80,-7.18,0.85,-7.11,7.11,6.15,3.94,7.92,7.96,7.98
21.02,0.88,-7.14,0.91,-7.08,7.08,6.23,4.05,7.97,7.99,8.02
21.23,0.98,-7.06,0.96,-7.06,7.06,6.32,4.16,8.05,8.02,8.04
21.44,1.09,-6.96,0.99,-7.05,7.05,6.40,4.28,8.14,8.04,8.06
21.66,1.19,-6.89,1.02,-7.04,7.04,6.49,4.40,8.23,8.06,8.08
21.87,1.29,-6.80,1.04,-7.04,7.04,6.57,4.52,8.33,8.08,8.09
22.09,1.30,-6.81,1.06,-7.04,7.04,6.65,4.64,8.34,8.10,8.11
22.31,1.17,-6.95,1.06,-7.05,7.05,6.74,4.77,8.22,8.11,8.12
22.54,1.04,-7.07,1.03,-7.08,7.08,6.82,4.90,8.13,8.12,8.12
22.76,0.91,-7.21,1.00,-7.12,7.12,6.90,5.03,8.03,8.12,8.12
22.99,0.78,-7.33,0.95,-7.17,7.17,6.98,5.17,7.95,8.12,8.11
23.22,0.77,-7.34,0.90,-7.22,7.22,7.06,5.31,7.99,8.12,8.11
23.45,0.77,-7.34,0.85,-7.27,7.27,7.13,5.46,8.04,8.12,8.11
23.69,0.77,-7.35,0.81,-7.31,7.31,7.21,5.61,8.08,8.12,8.12
23.92,0.77,-7.35,0.78,-7.34,7.34,7.28,5.76,8.12,8.12,8.12
24.16,0.75,-7.37,0.76,-7.36,7.36,7.36,5.91,8.12,8.12,8.12
24.40,0.73,-7.40,0.74,-7.38,7.38,7.43,6.07,8.11,8.12,8.13
24.65,0.70,-7.42,0.73,-7.39,7.39,7.49,6.23,8.10,8.12,8.12
24.89,0.68,-7.44,0.72,-7.40,7.40,7.56,6.39,8.08,8.12,8.12
25.14,0.71,-7.41,0.72,-7.40,7.40,7.62,6.55,8.12,8.12,8.12
25.39,0.77,-7.35,0.73,-7.40,7.40,7.68,6.72,8.17,8.12,8.13
25.65,0.83,-7.30,0.74,-7.38,7.38,7.74,6.89,8.22,8.12,8.13
25.91,0.90,-7.22,0.75,-7.37,7.37,7.80,7.05,8.27,8.12,8.12
26.16,0.86,-7.26,0.78,-7.34,7.34,7.85,7.22,8.20,8.12,8.12
26.43,0.77,-7.34,0.82,-7.30,7.30,7.90,7.39,8.07,8.12,8.12
26.69,0.68,-7.44,0.87,-7.25,7.25,7.95,7.56,7.94,8.12,8.12
26.96,0.58,-7.53,0.90,-7.22,7.22,7.99,7.73,7.80,8.12,8.12
27.23,0.68,-7.44,0.90,-7.21,7.21,8.03,7.89,7.89,8.11,8.12
27.50,0.82,-7.30,0.88,-7.24,7.24,8.06,8.05,8.06,8.11,8.12
27.77,0.96,-7.14,0.83,-7.28,7.28,8.10,8.21,8.25,8.11,8.11
28.05,1.06,-7.05,0.77,-7.34,7.34,8.13,8.36,8.40,8.11,8.11
28.33,1.01,-7.09,0.71,-7.40,7.40,8.15,8.51,8.41,8.11,8.10
28.62,0.96,-7.14,0.65,-7.45,7.45,8.18,8.65,8.42,8.11,8.10
28.90,0.91,-7.20,0.59,-7.51,7.51,8.19,8.78,8.43,8.11,8.11
29.19,0.68,-7.42,0.53,-7.57,7.57,8.21,8.91,8.26,8.10,8.10
29.48,0.35,-7.76,0.47,-7.63,7.63,8.22,9.02,7.99,8.10,8.11
29.78,0.03,-8.07,0.41,-7.69,7.69,8.23,9.12,7.72,8.10,8.10
30.08,-0.17,-8.28,0.35,-7.75,7.75,8.24,9.21,7.58,8.10,8.11
30.38,-0.01,-8.11,0.29,-7.81,7.81,8.24,9.29,7.80,8.10,8.10
30.68,0.16,-7.94,0.24,-7.85,7.85,8.24,9.35,8.01,8.10,8.10
30.99,0.32,-7.78,0.22,-7.87,7.87,8.23,9.41,8.19,8.10,8.10
31.30,0.29,-7.80,0.22,-7.87,7.87,8.23,9.44,8.16,8.09,8.09
31.61,0.25,-7.84,0.24,-7.85,7.85,8.22,9.47,8.11,8.09,8.09
31.93,0.21,-7.88,0.26,-7.83,7.83,8.20,9.48,8.04,8.09,8.09
32.24,0.28,-7.79,0.28,-7.80,7.80,8.19,9.48,8.09,8.08,8.08
32.57,0.38,-7.70,0.31,-7.77,7.77,8.17,9.47,8.15,8.08,8.08
32.89,0.48,-7.60,0.32,-7.75,7.75,8.15,9.44,8.23,8.07,8.08
33.22,0.48,-7.59,0.32,-7.75,7.75,8.13,9.40,8.23,8.07,8.07
33.55,0.44,-7.63,0.29,-7.77,7.77,8.11,9.36,8.21,8.06,8.07
33.89,0.40,-7.66,0.24,-7.82,7.82,8.08,9.30,8.22,8.06,8.06
34.23,0.27,-7.79,0.18,-7.87,7.87,8.06,9.24,8.15,8.06,8.06
34.57,0.09,-7.96,0.12,-7.93,7.93,8.03,9.17,8.02,8.05,8.05
34.92,-0.10,-8.14,0.07,-7.98,7.98,8.00,9.10,7.88,8.05,8.05
35.27,-0.17,-8.21,0.01,-8.03,8.03,7.97,9.02,7.87,8.04,8.04
35.62,-0.20,-8.24,-0.05,-8.09,8.09,7.94,8.93,7.90,8.04,8.04
35.97,-0.24,-8.28,-0.12,-8.16,8.16,7.92,8.85,7.92,8.04,8.04
36.33,-0.21,-8.25,-0.19,-8.23,8.23,7.89,8.76,8.02,8.04,8.04
36.70,-0.18,-8.21,-0.25,-8.28,8.28,7.86,8.68,8.11,8.04,8.03
37.06,-0.17,-8.20,-0.28,-8.32,8.32,7.83,8.59,8.15,8.04,8.03
37.43,-0.24,-8.28,-0.30,-8.33,8.33,7.80,8.51,8.10,8.04,8.04
37.81,-0.31,-8.35,-0.31,-8.34,8.34,7.77,8.42,8.04,8.04,8.04
38.19,-0.34,-8.37,-0.31,-8.35,8.35,7.74,8.34,8.01,8.04,8.03
38.57,-0.34,-8.38,-0.31,-8.35,8.35,7.71,8.26,8.01,8.04,8.04
38.95,-0.34,-8.39,-0.30,-8.34,8.34,7.69,8.19,8.01,8.04,8.05
39.34,-0.34,-8.38,-0.29,-8.33,8.33,7.66,8.12,7.99,8.04,8.04
39.74,-0.34,-8.38,-0.29,-8.33,8.33,7.64,8.05,7.99,8.04,8.04
40.14,-0.32,-8.36,-0.29,-8.33,8.33,7.62,7.99,8.01,8.04,8.04
40.54,-0.25,-8.29,-0.30,-8.34,8.34,7.60,7.93,8.09,8.04,8.04
40.94,-0.19,-8.22,-0.30,-8.33,8.33,7.58,7.88,8.15,8.03,8.03
41.35,-0.27,-8.30,-0.30,-8.33,8.33,7.57,7.83,8.06,8.03,8.03
41.76,-0.38,-8.40,-0.30,-8.32,8.32,7.55,7.79,7.94,8.02,8.02
42.18,-0.38,-8.40,-0.31,-8.32,8.32,7.54,7.75,7.94,8.01,8.02
42.60,-0.25,-8.25,-0.32,-8.32,8.32,7.54,7.72,8.08,8.00,8.01
43.03,-0.13,-8.13,-0.34,-8.33,8.33,7.53,7.69,8.20,7.99,8.00
43.46,-0.31,-8.30,-0.36,-8.34,8.34,7.53,7.67,8.03,7.98,7.99
43.90,-0.50,-8.46,-0.38,-8.35,8.35,7.53,7.66,7.85,7.97,7.97
44.33,-0.48,-8.43,-0.39,-8.34,8.34,7.54,7.65,7.86,7.95,7.95
44.78,-0.41,-8.34,-0.39,-8.33,8.33,7.54,7.64,7.92,7.94,7.93
45.23,-0.41,-8.33,-0.40,-8.33,8.33,7.55,7.65,7.92,7.93,7.92
45.68,-0.49,-8.40,-0.43,-8.34,8.34,7.57,7.66,7.85,7.91,7.91
46.13,-0.53,-8.42,-0.45,-8.35,8.35,7.59,7.67,7.82,7.90,7.89
46.60,-0.48,-8.37,-0.47,-8.36,8.36,7.61,7.69,7.88,7.89,7.89
47.06,-0.44,-8.31,-0.48,-8.35,8.35,7.63,7.71,7.92,7.87,7.87
47.53,-0.42,-8.28,-0.48,-8.34,8.34,7.66,7.74,7.92,7.86,7.86
48.01,-0.41,-8.27,-0.48,-8.32,8.32,7.69,7.78,7.92,7.84,7.86
48.49,-0.38,-8.22,-0.47,-8.30,8.30,7.73,7.82,7.92,7.83,7.84
48.97,-0.34,-8.16,-0.47,-8.28,8.28,7.76,7.86,7.94,7.82,7.82
49.46,-0.56,-8.36,-0.47,-8.27,8.27,7.80,7.91,7.71,7.80,7.80
49.96,-0.80,-8.57,-0.48,-8.26,8.26,7.85,7.97,7.47,7.79,7.78
50.46,-0.65,-8.42,-0.48,-8.26,8.26,7.90,8.02,7.61,7.77,7.77
50.96,-0.45,-8.21,-0.50,-8.26,8.26,7.94,8.08,7.82,7.76,7.76
51.47,-0.35,-8.09,-0.52,-8.27,8.27,8.00,8.15,7.93,7.75,7.74
51.99,-0.24,-7.97,-0.54,-8.28,8.28,8.05,8.21,8.04,7.74,7.73
52.51,-0.46,-8.18,-0.55,-8.28,8.28,8.10,8.28,7.81,7.72,7.72
53.03,-0.68,-8.40,-0.55,-8.26,8.26,8.16,8.35,7.59,7.71,7.72
53.56,-0.58,-8.28,-0.55,-8.24,8.24,8.21,8.41,7.67,7.70,7.70
54.10,-0.51,-8.20,-0.53,-8.22,8.22,8.27,8.48,7.71,7.69,7.69
54.64,-0.56,-8.23,-0.50,-8.18,8.18,8.32,8.55,7.62,7.68,7.67
55.18,-0.60,-8.27,-0.45,-8.11,8.11,8.37,8.61,7.52,7.67,7.67
55.74,-0.63,-8.28,-0.40,-8.06,8.06,8.42,8.68,7.43,7.66,7.65
56.29,-0.52,-8.15,-0.37,-8.01,8.01,8.47,8.73,7.50,7.64,7.64
56.86,-0.30,-7.93,-0.33,-7.96,7.96,8.51,8.79,7.66,7.63,7.63
57.42,-0.20,-7.80,-0.28,-7.89,7.89,8.54,8.83,7.69,7.61,7.60
58.00,-0.14,-7.73,-0.23,-7.82,7.82,8.57,8.87,7.68,7.59,7.59
58.58,-0.13,-7.71,-0.17,-7.74,7.74,8.59,8.91,7.62,7.57,7.58
59.16,-0.09,-7.65,-0.13,-7.67,7.67,8.60,8.93,7.58,7.54,7.56
59.76,0.00,-7.54,-0.10,-7.62,7.62,8.61,8.94,7.62,7.52,7.54
60.35,0.05,-7.45,-0.07,-7.56,7.56,8.60,8.94,7.61,7.49,7.50
60.96,0.06,-7.40,-0.05,-7.50,7.50,8.59,8.93,7.57,7.45,7.46
61.57,0.00,-7.42,-0.03,-7.45,7.45,8.56,8.91,7.45,7.42,7.42
62.18,-0.06,-7.44,-0.03,-7.40,7.40,8.52,8.88,7.35,7.38,7.38
62.80,-0.12,-7.45,-0.05,-7.38,7.38,8.48,8.83,7.27,7.34,7.33
63.43,-0.21,-7.50,-0.08,-7.38,7.38,8.42,8.77,7.17,7.29,7.29
64.07,-0.29,-7.53,-0.11,-7.36,7.36,8.35,8.70,7.07,7.25,7.24
64.71,-0.11,-7.31,-0.12,-7.32,7.32,8.27,8.62,7.22,7.20,7.20
65.35,-0.07,-7.23,-0.13,-7.29,7.29,8.19,8.52,7.22,7.16,7.16
66.01,-0.14,-7.25,-0.14,-7.26,7.26,8.10,8.41,7.12,7.11,7.11
66.67,-0.14,-7.20,-0.16,-7.23,7.23,8.00,8.30,7.09,7.06,7.06
67.33,-0.14,-7.15,-0.19,-7.20,7.20,7.89,8.17,7.06,7.02,7.01
68.01,-0.14,-7.11,-0.19,-7.16,7.16,7.78,8.03,7.02,6.97,6.97
68.69,-0.32,-7.24,-0.19,-7.11,7.11,7.67,7.89,6.79,6.92,6.92
69.37,-0.35,-7.21,-0.21,-7.08,7.08,7.56,7.74,6.73,6.87,6.87
70.07,-0.26,-7.08,-0.24,-7.06,7.06,7.44,7.58,6.80,6.81,6.82
70.77,-0.08,-6.85,-0.28,-7.04,7.04,7.33,7.42,6.96,6.76,6.77
71.48,-0.17,-6.89,-0.32,-7.02,7.02,7.22,7.25,6.85,6.70,6.72
72.19,-0.36,-7.01,-0.36,-7.01,7.01,7.11,7.08,6.65,6.65,6.65
72.91,-0.43,-7.02,-0.40,-6.99,6.99,7.01,6.91,6.57,6.59,6.59
73.64,-0.50,-7.04,-0.44,-6.98,6.98,6.91,6.73,6.48,6.54,6.54
74.38,-0.48,-6.96,-0.49,-6.97,6.97,6.82,6.55,6.49,6.48,6.48
75.12,-0.43,-6.85,-0.54,-6.96,6.96,6.75,6.38,6.53,6.42,6.42
75.87,-0.74,-7.10,-0.59,-6.96,6.96,6.68,6.20,6.22,6.37,6.36
76.63,-0.79,-7.10,-0.64,-6.95,6.95,6.62,6.02,6.17,6.31,6.31
77.40,-0.72,-6.98,-0.70,-6.96,6.96,6.58,5.85,6.25,6.26,6.26
78.17,-0.62,-6.82,-0.77,-6.98,6.98,6.54,5.67,6.36,6.21,6.20
78.95,-0.61,-6.77,-0.82,-6.97,6.97,6.53,5.50,6.37,6.16,6.16
79.74,-0.78,-6.89,-0.84,-6.95,6.95,6.52,5.33,6.17,6.11,6.11
80.54,-0.85,-6.91,-0.85,-6.90,6.90,6.52,5.16,6.06,6.06,6.06
81.35,-0.89,-6.90,-0.84,-6.86,6.86,6.53,4.99,5.97,6.01,6.01
82.16,-0.94,-6.90,-0.83,-6.80,6.80,6.55,4.82,5.86,5.96,5.96
82.98,-0.88,-6.80,-0.80,-6.72,6.72,6.55,4.66,5.84,5.92,5.92
83.81,-0.83,-6.70,-0.74,-6.60,6.60,6.55,4.50,5.78,5.87,5.87
84.65,-0.77,-6.59,-0.64,-6.46,6.46,6.52,4.34,5.69,5.82,5.82
85.50,-0.64,-6.42,-0.54,-6.31,6.31,6.45,4.19,5.67,5.77,5.78
86.35,-0.46,-6.19,-0.42,-6.14,6.14,6.35,4.03,5.68,5.72,5.73
87.22,-0.27,-5.95,-0.28,-5.95,5.95,6.20,3.88,5.68,5.67,5.68
88.09,-0.12,-5.75,-0.12,-5.75,5.75,6.01,3.74,5.63,5.62,5.63
88.97,0.06,-5.51,0.04,-5.53,5.53,5.78,3.59,5.59,5.57,5.57
89.86,0.22,-5.30,0.21,-5.31,5.31,5.52,3.45,5.53,5.52,5.52
90.76,0.44,-5.03,0.39,-5.08,5.08,5.24,3.31,5.53,5.47,5.47
91.66,0.75,-4.66,0.57,-4.85,4.85,4.95,3.17,5.60,5.42,5.42
92.58,0.93,-4.43,0.76,-4.61,4.61,4.66,3.04,5.55,5.37,5.36
93.51,1.02,-4.29,0.95,-4.37,4.37,4.36,2.90,5.39,5.32,5.31
94.44,1.14,-4.13,1.15,-4.12,4.12,4.08,2.77,5.26,5.27,5.27
95.39,1.28,-3.94,1.35,-3.87,3.87,3.80,2.65,5.15,5.22,5.22
96.34,1.37,-3.80,1.54,-3.63,3.63,3.53,2.52,5.00,5.17,5.17
97.30,1.52,-3.59,1.74,-3.38,3.38,3.28,2.40,4.90,5.12,5.12
98.28,1.80,-3.27,1.94,-3.13,3.13,3.03,2.28,4.93,5.07,5.07
99.26,2.09,-2.94,2.14,-2.88,2.88,2.80,2.16,4.98,5.03,5.03
100.25,2.40,-2.58,2.34,-2.64,2.64,2.57,2.04,5.04,4.98,4.98
101.25,2.63,-2.29,2.54,-2.39,2.39,2.36,1.93,5.02,4.93,4.93
102.27,2.84,-2.04,2.74,-2.14,2.14,2.15,1.82,4.99,4.88,4.88
103.29,3.02,-1.81,2.93,-1.90,1.90,1.94,1.71,4.92,4.83,4.83
104.32,3.19,-1.60,3.13,-1.65,1.65,1.74,1.60,4.85,4.78,4.79
105.37,3.31,-1.43,3.31,-1.42,1.42,1.55,1.50,4.73,4.73,4.74
106.42,3.44,-1.25,3.47,-1.21,1.21,1.36,1.40,4.65,4.68,4.69
107.48,3.60,-1.03,3.61,-1.01,1.01,1.17,1.30,4.62,4.63,4.63
108.56,3.74,-0.84,3.74,-0.84,0.84,0.99,1.20,4.58,4.58,4.58
109.64,3.87,-0.66,3.85,-0.68,0.68,0.82,1.11,4.55,4.52,4.53
110.74,4.01,-0.46,3.95,-0.53,0.53,0.65,1.02,4.54,4.47,4.47
111.85,4.09,-0.34,4.03,-0.39,0.39,0.48,0.93,4.48,4.42,4.43
112.97,4.07,-0.30,4.12,-0.25,0.25,0.32,0.84,4.33,4.37,4.37
114.10,4.13,-0.19,4.19,-0.13,0.13,0.17,0.76,4.26,4.32,4.32
115.24,4.22,-0.05,4.26,-0.02,0.02,0.03,0.68,4.24,4.28,4.27
116.39,4.24,0.02,4.32,0.09,-0.09,-0.10,0.60,4.16,4.23,4.22
117.55,4.33,0.15,4.38,0.19,-0.19,-0.22,0.53,4.15,4.19,4.18
118.73,4.45,0.31,4.43,0.28,-0.28,-0.33,0.46,4.17,4.15,4.14
119.92,4.52,0.41,4.47,0.36,-0.36,-0.42,0.39,4.16,4.11,4.11
121.12,4.54,0.47,4.51,0.44,-0.44,-0.50,0.33,4.10,4.07,4.07
122.33,4.55,0.51,4.54,0.50,-0.50,-0.56,0.27,4.05,4.04,4.04
123.55,4.55,0.54,4.56,0.55,-0.55,-0.61,0.22,4.00,4.01,4.01
124.79,4.56,0.58,4.58,0.60,-0.60,-0.65,0.16,3.96,3.98,3.98
126.03,4.57,0.62,4.59,0.64,-0.64,-0.67,0.11,3.93,3.95,3.95
127.29,4.57,0.64,4.59,0.67,-0.67,-0.68,0.07,3.90,3.92,3.93
128.57,4.62,0.73,4.58,0.70,-0.70,-0.68,0.03,3.93,3.89,3.89
129.85,4.68,0.82,4.57,0.71,-0.71,-0.67,-0.01,3.97,3.86,3.86
131.15,4.56,0.73,4.54,0.71,-0.71,-0.65,-0.05,3.85,3.83,3.83
132.46,4.47,0.67,4.51,0.71,-0.71,-0.63,-0.08,3.76,3.80,3.80
133.79,4.41,0.64,4.48,0.71,-0.71,-0.60,-0.11,3.70,3.77,3.77
135.12,4.35,0.61,4.44,0.70,-0.70,-0.57,-0.14,3.66,3.75,3.74
136.48,4.35,0.63,4.40,0.68,-0.68,-0.54,-0.17,3.67,3.72,3.72
137.84,4.38,0.70,4.35,0.66,-0.66,-0.50,-0.19,3.72,3.69,3.68
139.22,4.32,0.67,4.29,0.63,-0.63,-0.47,-0.21,3.69,3.66,3.65
140.61,4.26,0.64,4.23,0.60,-0.60,-0.44,-0.23,3.66,3.63,3.62
142.02,4.20,0.60,4.17,0.57,-0.57,-0.42,-0.25,3.64,3.60,3.60
143.44,4.07,0.50,4.09,0.53,-0.53,-0.39,-0.27,3.55,3.56,3.57
144.87,3.99,0.46,4.02,0.49,-0.49,-0.37,-0.28,3.50,3.53,3.53
146.32,3.94,0.45,3.94,0.46,-0.46,-0.35,-0.30,3.48,3.48,3.49
147.78,3.82,0.36,3.85,0.41,-0.41,-0.34,-0.31,3.41,3.43,3.46
149.26,3.71,0.30,3.72,0.34,-0.34,-0.33,-0.32,3.37,3.38,3.41
150.75,3.64,0.29,3.56,0.24,-0.24,-0.32,-0.33,3.40,3.32,3.35
152.26,3.52,0.24,3.38,0.12,-0.12,-0.32,-0.34,3.40,3.26,3.28
153.78,3.37,0.16,3.19,-0.01,0.01,-0.32,-0.36,3.38,3.19,3.21
155.32,3.23,0.09,3.01,-0.11,0.11,-0.33,-0.37,3.35,3.12,3.14
156.88,3.04,-0.02,2.87,-0.19,0.19,-0.34,-0.38,3.23,3.05,3.06
158.44,2.89,-0.09,2.76,-0.22,0.22,-0.36,-0.39,3.11,2.98,2.98
160.03,2.72,-0.18,2.70,-0.21,0.21,-0.38,-0.40,2.94,2.92,2.90
161.63,2.43,-0.40,2.68,-0.17,0.17,-0.40,-0.41,2.61,2.85,2.83
163.24,2.25,-0.52,2.69,-0.10,0.10,-0.43,-0.42,2.35,2.79,2.77
164.88,2.13,-0.59,2.74,0.01,-0.01,-0.46,-0.43,2.13,2.73,2.72
166.53,2.22,-0.45,2.82,0.14,-0.14,-0.50,-0.44,2.09,2.69,2.67
168.19,2.60,-0.03,2.93,0.29,-0.29,-0.54,-0.46,2.32,2.65,2.63
169.87,2.94,0.36,3.07,0.46,-0.46,-0.58,-0.47,2.49,2.61,2.59
171.57,3.52,0.95,3.22,0.63,-0.63,-0.63,-0.48,2.89,2.59,2.57
173.29,3.85,1.29,3.38,0.81,-0.81,-0.69,-0.50,3.04,2.57,2.56
175.02,4.00,1.45,3.55,1.00,-1.00,-0.75,-0.51,3.01,2.55,2.55
176.77,4.06,1.52,3.72,1.17,-1.17,-0.81,-0.53,2.89,2.54,2.54
178.54,4.07,1.54,3.87,1.33,-1.33,-0.87,-0.54,2.74,2.54,2.53
180.32,4.07,1.53,3.99,1.46,-1.46,-0.94,-0.56,2.61,2.53,2.54
182.13,4.08,1.53,4.08,1.56,-1.56,-1.01,-0.58,2.52,2.53,2.55
183.95,4.09,1.55,4.14,1.62,-1.62,-1.09,-0.60,2.48,2.52,2.54
185.79,4.04,1.50,4.14,1.63,-1.63,-1.16,-0.61,2.42,2.51,2.54
187.65,4.00,1.48,4.10,1.59,-1.59,-1.23,-0.63,2.41,2.51,2.52
189.52,3.94,1.43,4.04,1.55,-1.55,-1.31,-0.65,2.40,2.50,2.51
191.42,3.94,1.45,3.97,1.49,-1.49,-1.37,-0.67,2.45,2.48,2.49
193.33,3.94,1.47,3.92,1.45,-1.45,-1.44,-0.70,2.49,2.47,2.47
195.27,3.85,1.40,3.88,1.43,-1.43,-1.49,-0.72,2.43,2.45,2.45
197.22,3.79,1.36,3.84,1.40,-1.40,-1.54,-0.74,2.39,2.43,2.43
199.19,3.79,1.38,3.80,1.38,-1.38,-1.58,-0.76,2.41,2.41,2.41
201.18,3.79,1.40,3.75,1.36,-1.36,-1.60,-0.78,2.43,2.39,2.39
203.19,3.71,1.34,3.71,1.34,-1.34,-1.61,-0.80,2.37,2.37,2.37
205.23,3.63,1.28,3.68,1.33,-1.33,-1.61,-0.82,2.30,2.35,2.35
207.28,3.61,1.27,3.64,1.31,-1.31,-1.60,-0.85,2.30,2.33,2.34
209.35,3.60,1.28,3.60,1.29,-1.29,-1.57,-0.87,2.31,2.31,2.32
211.44,3.60,1.31,3.57,1.27,-1.27,-1.53,-0.89,2.33,2.29,2.29
213.56,3.55,1.27,3.52,1.24,-1.24,-1.47,-0.91,2.31,2.28,2.28
215.69,3.50,1.23,3.48,1.21,-1.21,-1.41,-0.92,2.29,2.27,2.27
217.85,3.41,1.15,3.44,1.19,-1.19,-1.34,-0.94,2.23,2.25,2.26
220.03,3.39,1.14,3.40,1.15,-1.15,-1.26,-0.95,2.24,2.25,2.25
222.23,3.38,1.16,3.36,1.12,-1.12,-1.18,-0.97,2.26,2.24,2.22
224.45,3.38,1.15,3.32,1.09,-1.09,-1.09,-0.98,2.30,2.24,2.23
226.70,3.30,1.07,3.29,1.06,-1.06,-1.00,-0.99,2.25,2.24,2.23
228.96,3.19,0.95,3.26,1.02,-1.02,-0.91,-1.00,2.17,2.24,2.24
231.25,3.19,0.94,3.23,0.98,-0.98,-0.83,-1.00,2.21,2.25,2.25
233.57,3.18,0.92,3.20,0.94,-0.94,-0.74,-1.00,2.25,2.26,2.26
235.90,3.11,0.84,3.18,0.90,-0.90,-0.65,-1.00,2.21,2.28,2.27
238.26,3.13,0.85,3.16,0.87,-0.87,-0.57,-0.99,2.27,2.29,2.28
240.64,3.15,0.84,3.15,0.83,-0.83,-0.49,-0.99,2.32,2.31,2.31
243.05,3.16,0.82,3.13,0.80,-0.80,-0.42,-0.97,2.37,2.33,2.34
245.48,3.12,0.76,3.11,0.76,-0.76,-0.34,-0.96,2.37,2.36,2.36
247.93,3.11,0.72,3.10,0.72,-0.72,-0.27,-0.94,2.40,2.38,2.39
250.41,3.09,0.68,3.08,0.68,-0.68,-0.21,-0.91,2.41,2.40,2.41
252.92,3.04,0.60,3.07,0.64,-0.64,-0.14,-0.89,2.40,2.43,2.44
255.45,3.06,0.60,3.05,0.60,-0.60,-0.08,-0.86,2.47,2.45,2.46
258.00,3.06,0.58,3.02,0.54,-0.54,-0.02,-0.82,2.52,2.48,2.48
260.58,3.02,0.52,2.99,0.49,-0.49,0.04,-0.78,2.54,2.50,2.50
263.19,2.97,0.44,2.95,0.43,-0.43,0.09,-0.74,2.54,2.53,2.53
265.82,2.89,0.34,2.91,0.36,-0.36,0.14,-0.69,2.53,2.55,2.55
268.48,2.86,0.29,2.88,0.30,-0.30,0.19,-0.64,2.56,2.57,2.57
271.16,2.86,0.26,2.84,0.24,-0.24,0.24,-0.59,2.63,2.60,2.60
273.87,2.79,0.17,2.80,0.17,-0.17,0.29,-0.53,2.62,2.62,2.62
276.61,2.74,0.09,2.76,0.11,-0.11,0.33,-0.47,2.63,2.65,2.65
279.38,2.67,-0.01,2.72,0.05,-0.05,0.37,-0.41,2.63,2.68,2.68
282.17,2.66,-0.04,2.68,-0.02,0.02,0.42,-0.35,2.69,2.70,2.70
284.99,2.62,-0.12,2.64,-0.10,0.10,0.46,-0.28,2.72,2.73,2.74
287.84,2.57,-0.19,2.60,-0.16,0.16,0.50,-0.21,2.74,2.76,2.76
290.72,2.58,-0.21,2.56,-0.23,0.23,0.54,-0.14,2.82,2.79,2.79
293.63,2.55,-0.27,2.52,-0.30,0.30,0.57,-0.06,2.85,2.82,2.82
296.57,2.52,-0.33,2.49,-0.36,0.36,0.61,0.02,2.88,2.85,2.85
299.53,2.44,-0.44,2.46,-0.42,0.42,0.65,0.10,2.86,2.88,2.88
302.53,2.43,-0.47,2.43,-0.48,0.48,0.68,0.18,2.91,2.91,2.90
305.55,2.41,-0.53,2.39,-0.54,0.54,0.72,0.26,2.95,2.93,2.94
308.61,2.29,-0.67,2.36,-0.60,0.60,0.76,0.34,2.89,2.96,2.96
311.69,2.25,-0.74,2.32,-0.66,0.66,0.79,0.43,2.91,2.98,2.99
314.81,2.26,-0.75,2.27,-0.73,0.73,0.83,0.51,2.99,3.00,3.01
317.96,2.21,-0.82,2.22,-0.80,0.80,0.86,0.60,3.01,3.02,3.03
321.14,2.17,-0.87,2.17,-0.87,0.87,0.90,0.69,3.05,3.04,3.04
324.35,2.15,-0.91,2.11,-0.95,0.95,0.94,0.78,3.11,3.06,3.06
327.59,2.12,-0.95,2.04,-1.04,1.04,0.97,0.87,3.16,3.07,3.07
330.87,1.99,-1.09,1.96,-1.13,1.13,1.01,0.97,3.12,3.09,3.08
334.18,1.87,-1.23,1.87,-1.23,1.23,1.04,1.06,3.10,3.10,3.10
337.52,1.78,-1.33,1.78,-1.33,1.33,1.08,1.16,3.11,3.11,3.11
340.90,1.68,-1.44,1.68,-1.44,1.44,1.12,1.25,3.12,3.12,3.12
344.30,1.59,-1.54,1.57,-1.55,1.55,1.16,1.35,3.15,3.12,3.13
347.75,1.46,-1.67,1.45,-1.68,1.68,1.19,1.45,3.14,3.13,3.13
351.23,1.31,-1.83,1.33,-1.81,1.81,1.23,1.55,3.12,3.13,3.14
354.74,1.20,-1.93,1.20,-1.93,1.93,1.27,1.65,3.14,3.14,3.13
358.28,1.06,-2.08,1.07,-2.07,2.07,1.31,1.75,3.13,3.14,3.14
361.87,0.89,-2.25,0.94,-2.20,2.20,1.35,1.86,3.09,3.14,3.14
365.49,0.78,-2.37,0.81,-2.33,2.33,1.40,1.96,3.12,3.14,3.15
369.14,0.72,-2.42,0.68,-2.46,2.46,1.44,2.07,3.18,3.14,3.14
372.83,0.59,-2.55,0.56,-2.58,2.58,1.48,2.18,3.17,3.14,3.14
376.56,0.43,-2.70,0.44,-2.70,2.70,1.53,2.28,3.13,3.14,3.13
380.33,0.33,-2.81,0.33,-2.81,2.81,1.57,2.39,3.14,3.13,3.14
384.13,0.24,-2.90,0.22,-2.91,2.91,1.62,2.50,3.15,3.13,3.14
387.97,0.13,-3.00,0.13,-3.00,3.00,1.66,2.61,3.13,3.13,3.13
391.85,0.00,-3.12,0.05,-3.08,3.08,1.71,2.72,3.08,3.12,3.12
395.77,-0.10,-3.23,-0.03,-3.15,3.15,1.76,2.84,3.05,3.12,3.13
399.73,-0.17,-3.29,-0.10,-3.21,3.21,1.81,2.95,3.04,3.11,3.12
403.72,-0.20,-3.32,-0.16,-3.26,3.26,1.87,3.06,3.07,3.11,3.12
407.76,-0.20,-3.30,-0.22,-3.32,3.32,1.92,3.17,3.12,3.10,3.10
411.84,-0.21,-3.31,-0.27,-3.37,3.37,1.97,3.29,3.16,3.10,3.10
415.96,-0.28,-3.38,-0.31,-3.41,3.41,2.03,3.40,3.13,3.10,3.10
420.12,-0.31,-3.41,-0.34,-3.44,3.44,2.09,3.51,3.13,3.10,3.10
424.32,-0.30,-3.40,-0.36,-3.46,3.46,2.15,3.62,3.16,3.11,3.10
428.56,-0.31,-3.42,-0.36,-3.47,3.47,2.21,3.72,3.17,3.12,3.11
432.85,-0.36,-3.48,-0.34,-3.47,3.47,2.27,3.83,3.12,3.13,3.12
437.18,-0.35,-3.48,-0.31,-3.47,3.47,2.33,3.93,3.12,3.15,3.13
441.55,-0.37,-3.54,-0.27,-3.45,3.45,2.40,4.04,3.08,3.18,3.17
445.96,-0.37,-3.57,-0.22,-3.43,3.43,2.46,4.13,3.06,3.21,3.20
450.42,-0.32,-3.55,-0.16,-3.41,3.41,2.53,4.23,3.09,3.25,3.23
454.93,-0.22,-3.50,-0.10,-3.38,3.38,2.60,4.31,3.17,3.29,3.28
459.48,-0.05,-3.37,-0.03,-3.36,3.36,2.67,4.40,3.32,3.33,3.32
464.07,0.07,-3.30,0.02,-3.35,3.35,2.74,4.48,3.42,3.38,3.37
468.71,0.15,-3.28,0.07,-3.35,3.35,2.82,4.55,3.50,3.42,3.43
473.40,0.21,-3.26,0.11,-3.36,3.36,2.90,4.62,3.58,3.47,3.47
478.13,0.27,-3.26,0.13,-3.39,3.39,2.97,4.68,3.66,3.52,3.53
482.91,0.30,-3.27,0.15,-3.42,3.42,3.05,4.73,3.72,3.57,3.57
487.74,0.29,-3.32,0.15,-3.46,3.46,3.13,4.78,3.76,3.61,3.61
492.62,0.22,-3.44,0.13,-3.51,3.51,3.22,4.82,3.73,3.64,3.66
497.55,0.14,-3.54,0.11,-3.56,3.56,3.30,4.85,3.70,3.67,3.68
502.52,-0.03,-3.74,0.07,-3.63,3.63,3.39,4.88,3.60,3.70,3.71
507.55,-0.15,-3.87,0.00,-3.71,3.71,3.48,4.89,3.56,3.71,3.72
512.62,-0.20,-3.93,-0.08,-3.79,3.79,3.56,4.90,3.60,3.72,3.73
517.75,-0.26,-4.00,-0.16,-3.88,3.88,3.65,4.90,3.62,3.72,3.74
522.93,-0.35,-4.08,-0.26,-3.96,3.96,3.74,4.90,3.61,3.70,3.73
528.16,-0.37,-4.07,-0.36,-4.04,4.04,3.84,4.89,3.67,3.68,3.70
533.44,-0.36,-4.03,-0.46,-4.11,4.11,3.93,4.87,3.76,3.65,3.67
538.77,-0.44,-4.08,-0.56,-4.18,4.18,4.02,4.85,3.74,3.62,3.64
544.16,-0.54,-4.13,-0.67,-4.25,4.25,4.11,4.82,3.71,3.58,3.59
549.60,-0.69,-4.23,-0.79,-4.31,4.31,4.21,4.78,3.63,3.53,3.54
