frequency,raw,error,smoothed,error_smoothed,equalization,parametric_eq,fixed_band_eq,equalized_raw,equalized_smoothed,target
20.00,0.50,-7.30,0.51,-7.29,7.42,7.46,3.43,7.92,7.93,7.80
20.20,0.58,-7.27,0.58,-7.27,7.31,7.47,3.52,7.89,7.89,7.85
20.40,0.65,-7.25,0.65,-7.24,7.21,7.47,3.62,7.87,7.86,7.90
20.61,0.73,-7.20,0.73,-7.21,7.13,7.47,3.72,7.86,7.86,7.93
20.81,0.80,-7.18,0.80,-7.17,7.06,7.47,3.82,7.87,7.87,7.98
21.02,0.88,-7.14,0.89,-7.12,7.01,7.48,3.93,7.90,7.90,8.02
21.23,0.98,-7.06,0.98,-7.06,6.98,7.48,4.04,7.96,7.96,8.04
21.44,1.09,-6.96,1.10,-6.96,6.95,7.48,4.15,8.05,8.05,8.06
21.66,1.19,-6.89,1.21,-6.87,6.93,7.48,4.26,8.12,8.14,8.08
21.87,1.29,-6.80,1.27,-6.82,6.93,7.49,4.38,8.22,8.20,8.09
22.09,1.30,-6.81,1.27,-6.84,6.95,7.49,4.50,8.25,8.22,8.11
22.31,1.17,-6.95,1.19,-6.93,7.00,7.49,4.63,8.17,8.18,8.12
22.54,1.04,-7.07,1.04,-7.08,7.06,7.50,4.76,8.10,8.10,8.12
22.76,0.91,-7.21,0.91,-7.21,7.13,7.50,4.89,8.04,8.03,8.12
22.99,0.78,-7.33,0.82,-7.29,7.20,7.50,5.02,7.99,8.02,8.11
23.22,0.77,-7.34,0.77,-7.34,7.28,7.51,5.16,8.05,8.05,8.11
23.45,0.77,-7.34,0.76,-7.35,7.33,7.51,5.30,8.11,8.10,8.11
23.69,0.77,-7.35,0.77,-7.34,7.38,7.51,5.45,8.15,8.15,8.12
23.92,0.77,-7.35,0.77,-7.35,7.40,7.52,5.59,8.17,8.17,8.12
24.16,0.75,-7.37,0.75,-7.37,7.41,7.52,5.74,8.16,8.16,8.12
24.40,0.73,-7.40,0.73,-7.40,7.40,7.52,5.89,8.13,8.13,8.13
24.65,0.70,-7.42,0.70,-7.42,7.38,7.53,6.05,8.09,8.08,8.12
24.89,0.68,-7.44,0.70,-7.42,7.36,7.53,6.21,8.05,8.06,8.12
25.14,0.71,-7.41,0.72,-7.40,7.35,7.54,6.37,8.06,8.07,8.12
25.39,0.77,-7.35,0.78,-7.35,7.34,7.54,6.53,8.12,8.12,8.13
25.65,0.83,-7.30,0.84,-7.28,7.35,7.55,6.69,8.18,8.19,8.13
25.91,0.90,-7.22,0.87,-7.25,7.36,7.55,6.86,8.26,8.24,8.12
26.16,0.86,-7.26,0.85,-7.27,7.37,7.55,7.02,8.23,8.22,8.12
26.43,0.77,-7.34,0.77,-7.35,7.37,7.56,7.19,8.14,8.13,8.12
26.69,0.68,-7.44,0.67,-7.45,7.35,7.56,7.35,8.03,8.02,8.12
26.96,0.58,-7.53,0.64,-7.48,7.32,7.57,7.51,7.91,7.96,8.12
27.23,0.68,-7.44,0.69,-7.43,7.28,7.57,7.67,7.97,7.97,8.12
27.50,0.82,-7.30,0.82,-7.30,7.23,7.58,7.83,8.06,8.05,8.12
27.77,0.96,-7.14,0.95,-7.16,7.19,7.58,7.99,8.15,8.14,8.11
28.05,1.06,-7.05,1.02,-7.08,7.17,7.59,8.14,8.24,8.20,8.11
28.33,1.01,-7.09,1.04,-7.06,7.20,7.60,8.28,8.21,8.24,8.10
28.62,0.96,-7.14,1.00,-7.11,7.28,7.60,8.42,8.25,8.28,8.10
28.90,0.91,-7.20,0.87,-7.24,7.40,7.61,8.55,8.32,8.27,8.11
29.19,0.68,-7.42,0.65,-7.45,7.54,7.61,8.67,8.23,8.19,8.10
29.48,0.35,-7.76,0.33,-7.77,7.69,7.62,8.78,8.04,8.02,8.11
29.78,0.03,-8.07,0.05,-8.05,7.81,7.63,8.89,7.84,7.87,8.10
30.08,-0.17,-8.28,-0.08,-8.18,7.91,7.63,8.98,7.74,7.84,8.11
30.38,-0.01,-8.11,-0.02,-8.12,7.98,7.64,9.06,7.98,7.97,8.10
30.68,0.16,-7.94,0.13,-7.97,8.01,7.64,9.12,8.18,8.15,8.10
30.99,0.32,-7.78,0.27,-7.83,8.00,7.65,9.18,8.32,8.26,8.10
31.30,0.29,-7.80,0.29,-7.80,7.94,7.66,9.22,8.23,8.22,8.09
31.61,0.25,-7.84,0.26,-7.83,7.85,7.67,9.25,8.10,8.11,8.09
31.93,0.21,-7.88,0.24,-7.84,7.76,7.67,9.27,7.97,8.00,8.09
32.24,0.28,-7.79,0.30,-7.79,7.69,7.68,9.28,7.98,7.99,8.08
32.57,0.38,-7.70,0.38,-7.70,7.66,7.69,9.27,8.04,8.04,8.08
32.89,0.48,-7.60,0.45,-7.62,7.65,7.70,9.25,8.14,8.11,8.08
33.22,0.48,-7.59,0.48,-7.59,7.67,7.70,9.22,8.15,8.16,8.07
33.55,0.44,-7.63,0.46,-7.60,7.71,7.71,9.18,8.15,8.17,8.07
33.89,0.40,-7.66,0.38,-7.68,7.76,7.72,9.14,8.17,8.15,8.06
34.23,0.27,-7.79,0.25,-7.80,7.84,7.73,9.08,8.11,8.09,8.06
34.57,0.09,-7.96,0.09,-7.96,7.93,7.74,9.02,8.02,8.02,8.05
34.92,-0.10,-8.14,-0.06,-8.10,8.02,7.75,8.96,7.93,7.97,8.05
35.27,-0.17,-8.21,-0.17,-8.21,8.11,7.76,8.89,7.94,7.94,8.04
35.62,-0.20,-8.24,-0.22,-8.26,8.18,7.77,8.81,7.98,7.96,8.04
35.97,-0.24,-8.28,-0.22,-8.26,8.23,7.78,8.74,7.99,8.01,8.04
36.33,-0.21,-8.25,-0.20,-8.24,8.26,7.79,8.66,8.06,8.06,8.04
36.70,-0.18,-8.21,-0.19,-8.22,8.28,7.80,8.58,8.10,8.10,8.03
37.06,-0.17,-8.20,-0.19,-8.23,8.29,7.81,8.50,8.12,8.10,8.03
37.43,-0.24,-8.28,-0.24,-8.27,8.31,7.82,8.43,8.07,8.07,8.04
37.81,-0.31,-8.35,-0.29,-8.32,8.32,7.83,8.35,8.01,8.03,8.04
38.19,-0.34,-8.37,-0.33,-8.37,8.34,7.84,8.28,8.00,8.01,8.03
38.57,-0.34,-8.38,-0.34,-8.38,8.35,7.85,8.21,8.01,8.01,8.04
38.95,-0.34,-8.39,-0.34,-8.38,8.36,7.86,8.14,8.02,8.01,8.05
39.34,-0.34,-8.38,-0.34,-8.39,8.36,7.87,8.08,8.02,8.02,8.04
39.74,-0.34,-8.38,-0.33,-8.37,8.36,7.88,8.02,8.02,8.03,8.04
40.14,-0.32,-8.36,-0.29,-8.33,8.35,7.89,7.96,8.03,8.06,8.04
40.54,-0.25,-8.29,-0.25,-8.28,8.33,7.91,7.91,8.09,8.09,8.04
40.94,-0.19,-8.22,-0.24,-8.27,8.31,7.92,7.87,8.12,8.07,8.03
41.35,-0.27,-8.30,-0.29,-8.31,8.30,7.93,7.82,8.03,8.01,8.03
41.76,-0.38,-8.40,-0.34,-8.36,8.29,7.94,7.79,7.91,7.96,8.02
42.18,-0.38,-8.40,-0.31,-8.33,8.30,7.95,7.76,7.92,7.98,8.02
42.60,-0.25,-8.25,-0.25,-8.26,8.30,7.97,7.73,8.06,8.05,8.01
43.03,-0.13,-8.13,-0.24,-8.24,8.32,7.98,7.71,8.19,8.07,8.00
43.46,-0.31,-8.30,-0.31,-8.29,8.33,7.99,7.70,8.02,8.02,7.99
43.90,-0.50,-8.46,-0.40,-8.37,8.34,8.00,7.69,7.85,7.94,7.97
44.33,-0.48,-8.43,-0.46,-8.41,8.35,8.02,7.69,7.88,7.89,7.95
44.78,-0.41,-8.34,-0.45,-8.38,8.37,8.03,7.69,7.96,7.92,7.93
45.23,-0.41,-8.33,-0.44,-8.36,8.38,8.04,7.70,7.97,7.94,7.92
45.68,-0.49,-8.40,-0.47,-8.37,8.38,8.06,7.72,7.89,7.91,7.91
46.13,-0.53,-8.42,-0.49,-8.39,8.35,8.07,7.74,7.83,7.86,7.89
46.60,-0.48,-8.37,-0.49,-8.37,8.32,8.08,7.76,7.85,7.84,7.89
47.06,-0.44,-8.31,-0.45,-8.32,8.30,8.09,7.79,7.87,7.85,7.87
47.53,-0.42,-8.28,-0.42,-8.28,8.31,8.11,7.83,7.89,7.89,7.86
48.01,-0.41,-8.27,-0.37,-8.23,8.32,8.12,7.87,7.91,7.95,7.86
48.49,-0.38,-8.22,-0.36,-8.20,8.32,8.13,7.92,7.95,7.96,7.84
48.97,-0.34,-8.16,-0.45,-8.27,8.31,8.14,7.97,7.97,7.86,7.82
49.46,-0.56,-8.36,-0.58,-8.37,8.28,8.15,8.02,7.73,7.71,7.80
49.96,-0.80,-8.57,-0.65,-8.44,8.27,8.16,8.08,7.47,7.61,7.78
50.46,-0.65,-8.42,-0.65,-8.41,8.26,8.17,8.15,7.61,7.61,7.77
50.96,-0.45,-8.21,-0.48,-8.24,8.26,8.18,8.21,7.81,7.77,7.76
51.47,-0.35,-8.09,-0.33,-8.07,8.25,8.19,8.28,7.90,7.92,7.74
51.99,-0.24,-7.97,-0.36,-8.09,8.23,8.20,8.35,8.00,7.88,7.73
52.51,-0.46,-8.18,-0.46,-8.18,8.22,8.20,8.43,7.76,7.77,7.72
53.03,-0.68,-8.40,-0.54,-8.26,8.22,8.21,8.50,7.54,7.68,7.72
53.56,-0.58,-8.28,-0.60,-8.30,8.23,8.21,8.58,7.65,7.63,7.70
54.10,-0.51,-8.20,-0.57,-8.26,8.24,8.22,8.65,7.73,7.67,7.69
54.64,-0.56,-8.23,-0.56,-8.23,8.24,8.22,8.72,7.68,7.68,7.67
55.18,-0.60,-8.27,-0.60,-8.26,8.22,8.22,8.79,7.62,7.62,7.67
55.74,-0.63,-8.28,-0.58,-8.23,8.16,8.22,8.86,7.53,7.57,7.65
56.29,-0.52,-8.15,-0.48,-8.12,8.08,8.22,8.93,7.56,7.59,7.64
56.86,-0.30,-7.93,-0.34,-7.96,7.98,8.21,8.98,7.69,7.64,7.63
57.42,-0.20,-7.80,-0.21,-7.82,7.89,8.21,9.04,7.69,7.67,7.60
58.00,-0.14,-7.73,-0.14,-7.73,7.79,8.20,9.08,7.65,7.64,7.59
58.58,-0.13,-7.71,-0.11,-7.69,7.68,8.19,9.12,7.56,7.57,7.58
59.16,-0.09,-7.65,-0.06,-7.62,7.59,8.18,9.14,7.51,7.53,7.56
59.76,0.00,-7.54,-0.01,-7.54,7.53,8.16,9.16,7.53,7.52,7.54
60.35,0.05,-7.45,0.04,-7.46,7.49,8.15,9.16,7.55,7.53,7.50
60.96,0.06,-7.40,0.05,-7.41,7.48,8.13,9.16,7.54,7.52,7.46
61.57,0.00,-7.42,0.01,-7.41,7.46,8.10,9.14,7.47,7.47,7.42
62.18,-0.06,-7.44,-0.05,-7.43,7.44,8.08,9.10,7.39,7.39,7.38
62.80,-0.12,-7.45,-0.15,-7.48,7.42,8.05,9.06,7.30,7.27,7.33
63.43,-0.21,-7.50,-0.20,-7.49,7.40,8.02,9.00,7.19,7.19,7.29
64.07,-0.29,-7.53,-0.19,-7.44,7.37,7.99,8.93,7.08,7.18,7.24
64.71,-0.11,-7.31,-0.16,-7.36,7.34,7.95,8.84,7.23,7.18,7.20
65.35,-0.07,-7.23,-0.12,-7.28,7.31,7.91,8.75,7.25,7.19,7.16
66.01,-0.14,-7.25,-0.10,-7.21,7.28,7.87,8.64,7.14,7.18,7.11
66.67,-0.14,-7.20,-0.11,-7.17,7.24,7.82,8.52,7.10,7.13,7.06
67.33,-0.14,-7.15,-0.15,-7.16,7.19,7.77,8.39,7.05,7.04,7.01
68.01,-0.14,-7.11,-0.21,-7.17,7.14,7.72,8.25,7.00,6.93,6.97
68.69,-0.32,-7.24,-0.28,-7.20,7.10,7.67,8.10,6.79,6.82,6.92
69.37,-0.35,-7.21,-0.28,-7.15,7.08,7.61,7.95,6.73,6.79,6.87
70.07,-0.26,-7.08,-0.23,-7.05,7.05,7.55,7.79,6.79,6.82,6.82
70.77,-0.08,-6.85,-0.18,-6.95,7.02,7.49,7.62,6.95,6.85,6.77
71.48,-0.17,-6.89,-0.20,-6.91,7.00,7.42,7.45,6.83,6.80,6.72
72.19,-0.36,-7.01,-0.30,-6.95,6.98,7.36,7.28,6.62,6.68,6.65
72.91,-0.43,-7.02,-0.43,-7.02,6.98,7.29,7.10,6.55,6.55,6.59
73.64,-0.50,-7.04,-0.45,-6.98,6.98,7.22,6.92,6.48,6.53,6.54
74.38,-0.48,-6.96,-0.48,-6.96,6.98,7.15,6.74,6.50,6.50,6.48
75.12,-0.43,-6.85,-0.56,-6.98,6.98,7.09,6.56,6.55,6.41,6.42
75.87,-0.74,-7.10,-0.66,-7.02,6.97,7.02,6.38,6.23,6.31,6.36
76.63,-0.79,-7.10,-0.72,-7.03,6.96,6.95,6.20,6.17,6.23,6.31
77.40,-0.72,-6.98,-0.72,-6.97,6.94,6.89,6.02,6.23,6.22,6.26
78.17,-0.62,-6.82,-0.66,-6.86,6.93,6.83,5.84,6.31,6.27,6.20
78.95,-0.61,-6.77,-0.67,-6.82,6.92,6.78,5.67,6.32,6.26,6.16
79.74,-0.78,-6.89,-0.73,-6.84,6.91,6.73,5.49,6.14,6.18,6.11
80.54,-0.85,-6.91,-0.84,-6.90,6.90,6.69,5.32,6.05,6.06,6.06
81.35,-0.89,-6.90,-0.91,-6.91,6.87,6.64,5.15,5.98,5.96,6.01
82.16,-0.94,-6.90,-0.91,-6.87,6.82,6.60,4.98,5.89,5.92,5.96
82.98,-0.88,-6.80,-0.89,-6.81,6.76,6.55,4.82,5.89,5.87,5.92
83.81,-0.83,-6.70,-0.84,-6.71,6.68,6.48,4.66,5.85,5.83,5.87
84.65,-0.77,-6.59,-0.75,-6.57,6.55,6.41,4.50,5.79,5.80,5.82
85.50,-0.64,-6.42,-0.62,-6.40,6.39,6.29,4.34,5.76,5.77,5.78
86.35,-0.46,-6.19,-0.46,-6.19,6.20,6.16,4.19,5.74,5.74,5.73
87.22,-0.27,-5.95,-0.28,-5.96,5.98,5.98,4.03,5.71,5.70,5.68
88.09,-0.12,-5.75,-0.11,-5.74,5.74,5.78,3.89,5.62,5.63,5.63
88.97,0.06,-5.51,0.05,-5.52,5.49,5.55,3.74,5.55,5.54,5.57
89.86,0.22,-5.30,0.25,-5.27,5.24,5.31,3.60,5.46,5.48,5.52
90.76,0.44,-5.03,0.48,-4.99,4.99,5.05,3.46,5.44,5.48,5.47
91.66,0.75,-4.66,0.71,-4.71,4.77,4.79,3.32,5.52,5.47,5.42
92.58,0.93,-4.43,0.90,-4.46,4.55,4.53,3.18,5.49,5.45,5.36
93.51,1.02,-4.29,1.05,-4.26,4.35,4.28,3.05,5.37,5.40,5.31
94.44,1.14,-4.13,1.15,-4.11,4.14,4.02,2.92,5.28,5.29,5.27
95.39,1.28,-3.94,1.25,-3.97,3.92,3.77,2.79,5.20,5.17,5.22
96.34,1.37,-3.80,1.38,-3.79,3.69,3.53,2.66,5.06,5.08,5.17
97.30,1.52,-3.59,1.56,-3.56,3.45,3.29,2.54,4.98,5.01,5.12
98.28,1.80,-3.27,1.80,-3.27,3.20,3.05,2.42,5.00,5.00,5.07
99.26,2.09,-2.94,2.09,-2.93,2.93,2.81,2.30,5.02,5.02,5.03
100.25,2.40,-2.58,2.38,-2.60,2.65,2.58,2.18,5.05,5.03,4.98
101.25,2.63,-2.29,2.63,-2.30,2.37,2.34,2.07,5.00,5.00,4.93
102.27,2.84,-2.04,2.85,-2.03,2.10,2.11,1.96,4.94,4.95,4.88
103.29,3.02,-1.81,3.02,-1.81,1.84,1.88,1.85,4.86,4.87,4.83
104.32,3.19,-1.60,3.18,-1.61,1.60,1.66,1.74,4.80,4.78,4.79
105.37,3.31,-1.43,3.32,-1.42,1.38,1.43,1.64,4.70,4.70,4.74
106.42,3.44,-1.25,3.46,-1.23,1.19,1.22,1.54,4.63,4.64,4.69
107.48,3.60,-1.03,3.59,-1.04,1.00,1.01,1.44,4.61,4.60,4.63
108.56,3.74,-0.84,3.74,-0.83,0.83,0.83,1.34,4.58,4.58,4.58
109.64,3.87,-0.66,3.89,-0.64,0.68,0.65,1.25,4.55,4.57,4.53
110.74,4.01,-0.46,3.99,-0.48,0.53,0.50,1.16,4.54,4.52,4.47
111.85,4.09,-0.34,4.06,-0.36,0.39,0.36,1.07,4.49,4.45,4.43
112.97,4.07,-0.30,4.11,-0.26,0.26,0.26,0.98,4.34,4.37,4.37
114.10,4.13,-0.19,4.14,-0.18,0.14,0.15,0.90,4.27,4.28,4.32
115.24,4.22,-0.05,4.19,-0.08,0.02,0.08,0.82,4.25,4.21,4.27
116.39,4.24,0.02,4.27,0.05,-0.08,0.01,0.74,4.16,4.19,4.22
117.55,4.33,0.15,4.35,0.17,-0.18,-0.05,0.67,4.15,4.17,4.18
118.73,4.45,0.31,4.43,0.29,-0.27,-0.11,0.60,4.18,4.16,4.14
119.92,4.52,0.41,4.51,0.40,-0.36,-0.16,0.53,4.17,4.15,4.11
121.12,4.54,0.47,4.55,0.48,-0.43,-0.21,0.47,4.11,4.11,4.07
122.33,4.55,0.51,4.55,0.52,-0.51,-0.25,0.41,4.04,4.05,4.04
123.55,4.55,0.54,4.56,0.55,-0.57,-0.30,0.35,3.98,3.99,4.01
124.79,4.56,0.58,4.56,0.58,-0.62,-0.35,0.30,3.94,3.93,3.98
126.03,4.57,0.62,4.57,0.61,-0.66,-0.40,0.25,3.91,3.91,3.95
127.29,4.57,0.64,4.60,0.68,-0.68,-0.46,0.20,3.89,3.92,3.93
128.57,4.62,0.73,4.63,0.74,-0.69,-0.51,0.15,3.93,3.94,3.89
129.85,4.68,0.82,4.62,0.76,-0.70,-0.56,0.11,3.98,3.92,3.86
131.15,4.56,0.73,4.58,0.75,-0.70,-0.61,0.07,3.86,3.87,3.83
132.46,4.47,0.67,4.49,0.69,-0.71,-0.67,0.04,3.77,3.78,3.80
133.79,4.41,0.64,4.40,0.63,-0.70,-0.72,0.00,3.71,3.70,3.77
135.12,4.35,0.61,4.37,0.63,-0.69,-0.77,-0.02,3.66,3.68,3.74
136.48,4.35,0.63,4.36,0.65,-0.67,-0.82,-0.05,3.68,3.69,3.72
137.84,4.38,0.70,4.35,0.67,-0.65,-0.87,-0.08,3.73,3.70,3.68
139.22,4.32,0.67,4.33,0.68,-0.63,-0.91,-0.11,3.70,3.70,3.65
140.61,4.26,0.64,4.27,0.65,-0.60,-0.96,-0.13,3.66,3.67,3.62
142.02,4.20,0.60,4.18,0.58,-0.58,-1.00,-0.15,3.63,3.60,3.60
143.44,4.07,0.50,4.10,0.53,-0.54,-1.04,-0.17,3.53,3.56,3.57
144.87,3.99,0.46,4.01,0.48,-0.50,-1.08,-0.19,3.50,3.51,3.53
146.32,3.94,0.45,3.91,0.42,-0.44,-1.12,-0.20,3.50,3.47,3.49
147.78,3.82,0.36,3.83,0.37,-0.39,-1.15,-0.22,3.43,3.44,3.46
149.26,3.71,0.30,3.74,0.33,-0.34,-1.19,-0.24,3.38,3.40,3.41
150.75,3.64,0.29,3.63,0.28,-0.28,-1.22,-0.25,3.36,3.34,3.35
152.26,3.52,0.24,3.52,0.24,-0.22,-1.24,-0.27,3.30,3.30,3.28
153.78,3.37,0.16,3.38,0.17,-0.12,-1.27,-0.28,3.25,3.26,3.21
155.32,3.23,0.09,3.22,0.09,-0.01,-1.29,-0.30,3.22,3.21,3.14
156.88,3.04,-0.02,3.07,0.01,0.09,-1.31,-0.31,3.13,3.16,3.06
158.44,2.89,-0.09,2.89,-0.09,0.17,-1.33,-0.32,3.06,3.05,2.98
160.03,2.72,-0.18,2.67,-0.23,0.21,-1.34,-0.34,2.94,2.89,2.90
161.63,2.43,-0.40,2.45,-0.38,0.22,-1.35,-0.35,2.65,2.67,2.83
163.24,2.25,-0.52,2.24,-0.53,0.17,-1.36,-0.37,2.42,2.41,2.77
164.88,2.13,-0.59,2.17,-0.55,0.05,-1.37,-0.38,2.18,2.22,2.72
166.53,2.22,-0.45,2.27,-0.40,-0.14,-1.38,-0.40,2.09,2.13,2.67
168.19,2.60,-0.03,2.57,-0.06,-0.37,-1.38,-0.42,2.24,2.20,2.63
169.87,2.94,0.36,3.02,0.42,-0.62,-1.38,-0.43,2.32,2.39,2.59
171.57,3.52,0.95,3.46,0.89,-0.88,-1.38,-0.45,2.64,2.58,2.57
173.29,3.85,1.29,3.80,1.24,-1.12,-1.38,-0.47,2.73,2.68,2.56
175.02,4.00,1.45,4.01,1.47,-1.31,-1.37,-0.49,2.69,2.70,2.55
176.77,4.06,1.52,4.07,1.53,-1.44,-1.37,-0.51,2.62,2.63,2.54
178.54,4.07,1.54,4.08,1.54,-1.53,-1.36,-0.53,2.54,2.55,2.53
180.32,4.07,1.53,4.09,1.55,-1.57,-1.35,-0.55,2.50,2.51,2.54
182.13,4.08,1.53,4.09,1.54,-1.58,-1.33,-0.57,2.50,2.50,2.55
183.95,4.09,1.55,4.08,1.53,-1.57,-1.32,-0.59,2.53,2.51,2.54
185.79,4.04,1.50,4.04,1.51,-1.53,-1.30,-0.61,2.51,2.52,2.54
187.65,4.00,1.48,4.00,1.48,-1.50,-1.28,-0.63,2.51,2.50,2.52
189.52,3.94,1.43,3.97,1.46,-1.47,-1.26,-0.66,2.47,2.50,2.51
191.42,3.94,1.45,3.94,1.46,-1.46,-1.24,-0.68,2.49,2.49,2.49
193.33,3.94,1.47,3.90,1.43,-1.44,-1.22,-0.71,2.51,2.47,2.47
195.27,3.85,1.40,3.86,1.41,-1.41,-1.20,-0.73,2.44,2.45,2.45
197.22,3.79,1.36,3.82,1.40,-1.39,-1.17,-0.76,2.40,2.43,2.43
199.19,3.79,1.38,3.79,1.38,-1.37,-1.15,-0.78,2.42,2.42,2.41
201.18,3.79,1.40,3.76,1.37,-1.36,-1.12,-0.81,2.43,2.40,2.39
203.19,3.71,1.34,3.71,1.34,-1.34,-1.09,-0.83,2.37,2.37,2.37
205.23,3.63,1.28,3.66,1.30,-1.33,-1.06,-0.86,2.31,2.33,2.35
207.28,3.61,1.27,3.62,1.28,-1.31,-1.03,-0.88,2.31,2.31,2.34
209.35,3.60,1.28,3.60,1.29,-1.29,-0.99,-0.90,2.32,2.32,2.32
211.44,3.60,1.31,3.59,1.30,-1.27,-0.96,-0.93,2.33,2.32,2.29
213.56,3.55,1.27,3.55,1.27,-1.25,-0.93,-0.95,2.30,2.30,2.28
215.69,3.50,1.23,3.49,1.22,-1.23,-0.89,-0.97,2.27,2.26,2.27
217.85,3.41,1.15,3.43,1.18,-1.20,-0.86,-0.99,2.21,2.23,2.26
220.03,3.39,1.14,3.40,1.16,-1.17,-0.82,-1.01,2.22,2.23,2.25
222.23,3.38,1.16,3.39,1.15,-1.13,-0.78,-1.02,2.25,2.25,2.22
224.45,3.38,1.15,3.35,1.12,-1.09,-0.74,-1.04,2.29,2.26,2.23
226.70,3.30,1.07,3.29,1.06,-1.04,-0.70,-1.05,2.26,2.25,2.23
228.96,3.19,0.95,3.24,1.00,-1.00,-0.66,-1.06,2.19,2.24,2.24
231.25,3.19,0.94,3.18,0.93,-0.97,-0.62,-1.06,2.23,2.22,2.25
233.57,3.18,0.92,3.15,0.89,-0.93,-0.58,-1.07,2.25,2.22,2.26
235.90,3.11,0.84,3.14,0.88,-0.89,-0.54,-1.07,2.22,2.25,2.27
238.26,3.13,0.85,3.14,0.85,-0.85,-0.50,-1.06,2.28,2.29,2.28
240.64,3.15,0.84,3.14,0.83,-0.82,-0.45,-1.06,2.34,2.32,2.31
243.05,3.16,0.82,3.15,0.81,-0.79,-0.41,-1.05,2.38,2.36,2.34
245.48,3.12,0.76,3.14,0.78,-0.76,-0.36,-1.03,2.36,2.38,2.36
247.93,3.11,0.72,3.11,0.72,-0.73,-0.32,-1.01,2.38,2.38,2.39
250.41,3.09,0.68,3.08,0.67,-0.69,-0.27,-0.99,2.40,2.39,2.41
252.92,3.04,0.60,3.07,0.63,-0.65,-0.22,-0.96,2.39,2.42,2.44
255.45,3.06,0.60,3.06,0.60,-0.60,-0.18,-0.93,2.46,2.46,2.46
258.00,3.06,0.58,3.05,0.57,-0.55,-0.13,-0.90,2.51,2.50,2.48
260.58,3.02,0.52,3.02,0.52,-0.50,-0.08,-0.86,2.53,2.53,2.50
263.19,2.97,0.44,2.96,0.44,-0.44,-0.03,-0.82,2.53,2.53,2.53
265.82,2.89,0.34,2.91,0.37,-0.38,0.02,-0.77,2.52,2.54,2.55
268.48,2.86,0.29,2.87,0.30,-0.31,0.07,-0.72,2.55,2.56,2.57
271.16,2.86,0.26,2.84,0.24,-0.24,0.12,-0.67,2.63,2.60,2.60
273.87,2.79,0.17,2.79,0.17,-0.16,0.17,-0.61,2.63,2.63,2.62
276.61,2.74,0.09,2.74,0.09,-0.09,0.22,-0.55,2.65,2.65,2.65
279.38,2.67,-0.01,2.69,0.02,-0.02,0.27,-0.49,2.65,2.67,2.68
282.17,2.66,-0.04,2.65,-0.06,0.04,0.32,-0.42,2.70,2.69,2.70
284.99,2.62,-0.12,2.62,-0.12,0.10,0.37,-0.35,2.72,2.72,2.74
287.84,2.57,-0.19,2.60,-0.17,0.16,0.43,-0.28,2.73,2.76,2.76
290.72,2.58,-0.21,2.57,-0.22,0.22,0.48,-0.21,2.81,2.80,2.79
293.63,2.55,-0.27,2.54,-0.27,0.29,0.54,-0.13,2.84,2.83,2.82
296.57,2.52,-0.33,2.51,-0.34,0.35,0.59,-0.05,2.87,2.86,2.85
299.53,2.44,-0.44,2.48,-0.40,0.42,0.64,0.03,2.86,2.89,2.88
302.53,2.43,-0.47,2.43,-0.48,0.49,0.70,0.11,2.92,2.92,2.90
305.55,2.41,-0.53,2.37,-0.56,0.56,0.76,0.19,2.97,2.93,2.94
308.61,2.29,-0.67,2.32,-0.64,0.62,0.81,0.28,2.91,2.94,2.96
311.69,2.25,-0.74,2.27,-0.71,0.68,0.87,0.36,2.93,2.96,2.99
314.81,2.26,-0.75,2.23,-0.77,0.74,0.93,0.45,3.00,2.97,3.01
317.96,2.21,-0.82,2.21,-0.81,0.80,0.99,0.54,3.02,3.02,3.03
321.14,2.17,-0.87,2.19,-0.85,0.87,1.05,0.63,3.04,3.06,3.04
324.35,2.15,-0.91,2.15,-0.90,0.94,1.10,0.72,3.09,3.09,3.06
327.59,2.12,-0.95,2.09,-0.98,1.01,1.16,0.82,3.14,3.10,3.07
330.87,1.99,-1.09,2.00,-1.08,1.10,1.22,0.91,3.09,3.10,3.08
334.18,1.87,-1.23,1.89,-1.21,1.19,1.29,1.01,3.07,3.08,3.10
337.52,1.78,-1.33,1.78,-1.33,1.30,1.35,1.10,3.09,3.08,3.11
340.90,1.68,-1.44,1.69,-1.43,1.42,1.41,1.20,3.11,3.11,3.12
344.30,1.59,-1.54,1.58,-1.55,1.55,1.47,1.30,3.15,3.13,3.13
347.75,1.46,-1.67,1.46,-1.67,1.69,1.53,1.40,3.15,3.14,3.13
351.23,1.31,-1.83,1.33,-1.80,1.82,1.60,1.50,3.13,3.15,3.14
354.74,1.20,-1.93,1.19,-1.94,1.95,1.66,1.60,3.15,3.14,3.13
358.28,1.06,-2.08,1.04,-2.09,2.07,1.73,1.71,3.14,3.12,3.14
361.87,0.89,-2.25,0.92,-2.22,2.20,1.79,1.81,3.10,3.12,3.14
365.49,0.78,-2.37,0.80,-2.34,2.33,1.86,1.92,3.11,3.13,3.15
369.14,0.72,-2.42,0.69,-2.45,2.45,1.92,2.02,3.17,3.14,3.14
372.83,0.59,-2.55,0.58,-2.56,2.57,1.99,2.13,3.17,3.15,3.14
376.56,0.43,-2.70,0.46,-2.68,2.69,2.06,2.24,3.13,3.15,3.13
380.33,0.33,-2.81,0.34,-2.80,2.81,2.12,2.35,3.14,3.15,3.14
384.13,0.24,-2.90,0.23,-2.90,2.92,2.19,2.46,3.16,3.14,3.14
387.97,0.13,-3.00,0.12,-3.01,3.01,2.26,2.57,3.15,3.14,3.13
391.85,0.00,-3.12,0.01,-3.12,3.10,2.33,2.68,3.11,3.11,3.12
395.77,-0.10,-3.23,-0.09,-3.22,3.18,2.40,2.79,3.08,3.08,3.13
399.73,-0.17,-3.29,-0.16,-3.28,3.24,2.47,2.91,3.07,3.08,3.12
403.72,-0.20,-3.32,-0.19,-3.30,3.29,2.54,3.02,3.09,3.10,3.12
407.76,-0.20,-3.30,-0.21,-3.31,3.32,2.61,3.13,3.13,3.12,3.10
411.84,-0.21,-3.31,-0.23,-3.33,3.35,2.68,3.24,3.14,3.12,3.10
415.96,-0.28,-3.38,-0.26,-3.36,3.37,2.75,3.36,3.10,3.11,3.10
420.12,-0.31,-3.41,-0.29,-3.39,3.40,2.82,3.47,3.09,3.11,3.10
424.32,-0.30,-3.40,-0.31,-3.41,3.42,2.90,3.58,3.13,3.11,3.10
428.56,-0.31,-3.42,-0.32,-3.43,3.45,2.97,3.68,3.15,3.13,3.11
432.85,-0.36,-3.48,-0.34,-3.45,3.48,3.04,3.79,3.13,3.15,3.12
437.18,-0.35,-3.48,-0.36,-3.50,3.50,3.11,3.89,3.16,3.14,3.13
441.55,-0.37,-3.54,-0.37,-3.54,3.51,3.18,3.99,3.14,3.14,3.17
445.96,-0.37,-3.57,-0.36,-3.56,3.50,3.26,4.09,3.13,3.14,3.20
450.42,-0.32,-3.55,-0.31,-3.54,3.47,3.33,4.18,3.16,3.17,3.23
454.93,-0.22,-3.50,-0.20,-3.47,3.44,3.40,4.27,3.22,3.24,3.28
459.48,-0.05,-3.37,-0.07,-3.39,3.39,3.47,4.36,3.34,3.33,3.32
464.07,0.07,-3.30,0.06,-3.31,3.34,3.54,4.44,3.41,3.40,3.37
468.71,0.15,-3.28,0.16,-3.27,3.30,3.62,4.51,3.45,3.45,3.43
473.40,0.21,-3.26,0.22,-3.25,3.27,3.69,4.58,3.48,3.49,3.47
478.13,0.27,-3.26,0.27,-3.25,3.27,3.76,4.64,3.55,3.55,3.53
482.91,0.30,-3.27,0.30,-3.27,3.31,3.83,4.69,3.61,3.61,3.57
487.74,0.29,-3.32,0.29,-3.32,3.38,3.90,4.73,3.67,3.67,3.61
492.62,0.22,-3.44,0.23,-3.42,3.47,3.96,4.77,3.69,3.70,3.66
497.55,0.14,-3.54,0.11,-3.57,3.58,4.03,4.80,3.72,3.69,3.68
502.52,-0.03,-3.74,-0.01,-3.72,3.69,4.10,4.83,3.66,3.68,3.71
507.55,-0.15,-3.87,-0.12,-3.84,3.79,4.16,4.84,3.64,3.67,3.72
512.62,-0.20,-3.93,-0.21,-3.95,3.87,4.23,4.85,3.68,3.66,3.73
517.75,-0.26,-4.00,-0.28,-4.01,3.94,4.29,4.85,3.69,3.67,3.74
522.93,-0.35,-4.08,-0.32,-4.04,4.00,4.35,4.85,3.66,3.69,3.73
528.16,-0.37,-4.07,-0.35,-4.06,4.05,4.41,4.84,3.69,3.70,3.70
533.44,-0.36,-4.03,-0.39,-4.06,4.10,4.47,4.82,3.75,3.72,3.67
538.77,-0.44,-4.08,-0.43,-4.06,4.15,4.52,4.80,3.72,3.72,3.64
544.16,-0.54,-4.13,-0.55,-4.14,4.21,4.58,4.77,3.67,3.66,3.59
549.60,-0.69,-4.23,-0.72,-4.26,4.27,4.63,4.73,3.58,3.54,3.54
