frequency,raw,error,smoothed,error_smoothed,equalization,parametric_eq,fixed_band_eq,equalized_raw,equalized_smoothed,target
20.00,-1.44,-10.10,-1.46,-10.12,10.12,9.56,3.39,8.67,8.66,8.66
20.20,-1.36,-10.01,-1.37,-10.01,10.01,9.50,3.49,8.65,8.65,8.65
20.40,-1.27,-9.91,-1.28,-9.91,9.91,9.45,3.58,8.64,8.64,8.64
20.61,-1.20,-9.82,-1.19,-9.81,9.81,9.39,3.68,8.62,8.62,8.63
20.81,-1.10,-9.71,-1.10,-9.71,9.71,9.33,3.78,8.61,8.61,8.61
21.02,-1.01,-9.61,-1.01,-9.62,9.62,9.28,3.89,8.60,8.60,8.60
21.23,-0.93,-9.52,-0.93,-9.52,9.52,9.22,3.99,8.59,8.59,8.59
21.44,-0.85,-9.45,-0.84,-9.42,9.42,9.16,4.11,8.57,8.58,8.60
21.66,-0.76,-9.34,-0.76,-9.33,9.33,9.10,4.22,8.57,8.57,8.58
21.87,-0.68,-9.26,-0.67,-9.24,9.24,9.04,4.34,8.55,8.57,8.58
22.09,-0.59,-9.15,-0.59,-9.14,9.14,8.98,4.46,8.55,8.56,8.56
22.31,-0.51,-9.06,-0.50,-9.05,9.05,8.92,4.58,8.54,8.55,8.55
22.54,-0.43,-8.96,-0.42,-8.96,8.96,8.86,4.71,8.54,8.54,8.54
22.76,-0.33,-8.87,-0.33,-8.87,8.87,8.79,4.84,8.54,8.54,8.54
22.99,-0.24,-8.77,-0.25,-8.78,8.78,8.73,4.97,8.54,8.53,8.53
23.22,-0.16,-8.68,-0.17,-8.69,8.69,8.67,5.11,8.53,8.53,8.52
23.45,-0.07,-8.60,-0.09,-8.61,8.61,8.60,5.25,8.54,8.52,8.53
23.69,0.00,-8.51,-0.01,-8.52,8.52,8.54,5.39,8.53,8.52,8.52
23.92,0.08,-8.43,0.07,-8.44,8.44,8.48,5.54,8.52,8.51,8.51
24.16,0.15,-8.37,0.15,-8.36,8.36,8.41,5.68,8.51,8.51,8.52
24.40,0.23,-8.29,0.22,-8.29,8.29,8.35,5.84,8.51,8.51,8.52
24.65,0.31,-8.20,0.30,-8.21,8.21,8.28,5.99,8.52,8.51,8.51
24.89,0.36,-8.15,0.37,-8.14,8.14,8.22,6.15,8.49,8.50,8.51
25.14,0.43,-8.07,0.44,-8.06,8.06,8.15,6.31,8.49,8.50,8.50
25.39,0.51,-7.99,0.51,-7.99,7.99,8.08,6.47,8.50,8.50,8.50
25.65,0.58,-7.92,0.58,-7.92,7.92,8.02,6.63,8.50,8.50,8.50
25.91,0.64,-7.85,0.65,-7.85,7.85,7.95,6.79,8.50,8.50,8.50
26.16,0.72,-7.79,0.72,-7.78,7.78,7.88,6.95,8.50,8.50,8.51
26.43,0.79,-7.71,0.79,-7.71,7.71,7.82,7.12,8.50,8.50,8.50
26.69,0.85,-7.65,0.86,-7.64,7.64,7.75,7.28,8.49,8.50,8.50
26.96,0.93,-7.57,0.92,-7.57,7.57,7.68,7.44,8.50,8.50,8.50
27.23,1.00,-7.50,0.99,-7.51,7.51,7.62,7.60,8.50,8.50,8.50
27.50,1.07,-7.43,1.06,-7.44,7.44,7.55,7.75,8.51,8.50,8.50
27.77,1.13,-7.38,1.13,-7.38,7.38,7.48,7.90,8.50,8.50,8.51
28.05,1.19,-7.31,1.19,-7.31,7.31,7.41,8.05,8.50,8.51,8.50
28.33,1.26,-7.25,1.26,-7.25,7.25,7.34,8.18,8.51,8.51,8.51
28.62,1.33,-7.18,1.32,-7.19,7.19,7.28,8.31,8.51,8.51,8.51
28.90,1.40,-7.12,1.39,-7.12,7.12,7.21,8.43,8.52,8.51,8.52
29.19,1.46,-7.06,1.45,-7.06,7.06,7.14,8.54,8.51,8.51,8.52
29.48,1.51,-7.00,1.51,-7.00,7.00,7.07,8.64,8.50,8.51,8.51
29.78,1.56,-6.95,1.57,-6.94,6.94,7.00,8.72,8.49,8.50,8.51
30.08,1.63,-6.88,1.63,-6.87,6.87,6.93,8.79,8.50,8.50,8.51
30.38,1.69,-6.80,1.68,-6.81,6.81,6.86,8.85,8.50,8.50,8.49
30.68,1.75,-6.74,1.74,-6.75,6.75,6.79,8.89,8.50,8.49,8.49
30.99,1.80,-6.69,1.80,-6.69,6.69,6.73,8.91,8.48,8.49,8.49
31.30,1.86,-6.63,1.85,-6.63,6.63,6.66,8.92,8.48,8.48,8.49
31.61,1.91,-6.57,1.91,-6.57,6.57,6.59,8.91,8.47,8.47,8.48
31.93,1.96,-6.50,1.96,-6.51,6.51,6.52,8.88,8.46,8.47,8.46
32.24,2.01,-6.46,2.01,-6.45,6.45,6.45,8.84,8.46,8.46,8.47
32.57,2.06,-6.39,2.06,-6.39,6.39,6.38,8.78,8.45,8.45,8.45
32.89,2.11,-6.34,2.11,-6.34,6.34,6.31,8.71,8.44,8.45,8.45
33.22,2.17,-6.27,2.16,-6.28,6.28,6.24,8.63,8.45,8.44,8.44
33.55,2.23,-6.21,2.21,-6.23,6.23,6.17,8.53,8.45,8.43,8.44
33.89,2.27,-6.16,2.25,-6.17,6.17,6.10,8.42,8.44,8.43,8.43
34.23,2.30,-6.11,2.30,-6.12,6.12,6.04,8.30,8.42,8.42,8.41
34.57,2.34,-6.07,2.34,-6.07,6.07,5.97,8.17,8.40,8.41,8.41
34.92,2.38,-6.01,2.39,-6.01,6.01,5.90,8.04,8.39,8.40,8.39
35.27,2.43,-5.98,2.43,-5.96,5.96,5.83,7.89,8.38,8.39,8.41
35.62,2.48,-5.90,2.47,-5.91,5.91,5.76,7.75,8.38,8.38,8.38
35.97,2.52,-5.86,2.51,-5.85,5.85,5.69,7.60,8.37,8.36,8.38
36.33,2.56,-5.80,2.55,-5.80,5.80,5.62,7.44,8.36,8.35,8.36
36.70,2.60,-5.74,2.59,-5.74,5.74,5.55,7.29,8.34,8.34,8.34
37.06,2.63,-5.69,2.63,-5.68,5.68,5.49,7.13,8.31,8.32,8.32
37.43,2.67,-5.63,2.68,-5.62,5.62,5.42,6.97,8.29,8.30,8.30
37.81,2.72,-5.57,2.72,-5.56,5.56,5.35,6.81,8.28,8.28,8.29
38.19,2.76,-5.50,2.76,-5.50,5.50,5.28,6.66,8.26,8.26,8.26
38.57,2.80,-5.44,2.80,-5.44,5.44,5.21,6.50,8.23,8.24,8.24
38.95,2.84,-5.39,2.84,-5.38,5.38,5.15,6.35,8.21,8.22,8.23
39.34,2.88,-5.32,2.88,-5.31,5.31,5.08,6.20,8.19,8.20,8.20
39.74,2.93,-5.24,2.92,-5.26,5.26,5.01,6.05,8.18,8.18,8.17
40.14,2.98,-5.17,2.96,-5.19,5.19,4.94,5.90,8.17,8.15,8.15
40.54,3.02,-5.11,3.00,-5.13,5.13,4.88,5.76,8.15,8.13,8.13
40.94,3.05,-5.05,3.03,-5.07,5.07,4.81,5.62,8.12,8.11,8.10
41.35,3.08,-5.01,3.07,-5.01,5.01,4.74,5.48,8.09,8.09,8.09
41.76,3.11,-4.95,3.11,-4.95,4.95,4.67,5.34,8.06,8.06,8.06
42.18,3.13,-4.92,3.15,-4.89,4.89,4.61,5.21,8.02,8.04,8.05
42.60,3.16,-4.86,3.18,-4.84,4.84,4.54,5.09,7.99,8.02,8.02
43.03,3.20,-4.80,3.21,-4.78,4.78,4.47,4.96,7.98,7.99,8.00
43.46,3.24,-4.72,3.24,-4.72,4.72,4.41,4.84,7.96,7.97,7.96
43.90,3.29,-4.65,3.27,-4.67,4.67,4.34,4.73,7.96,7.94,7.94
44.33,3.32,-4.59,3.30,-4.61,4.61,4.27,4.61,7.93,7.91,7.91
44.78,3.36,-4.53,3.33,-4.55,4.55,4.21,4.51,7.91,7.88,7.89
45.23,3.38,-4.49,3.36,-4.49,4.49,4.14,4.40,7.87,7.85,7.87
45.68,3.40,-4.42,3.39,-4.43,4.43,4.08,4.30,7.82,7.82,7.82
46.13,3.41,-4.38,3.42,-4.36,4.36,4.01,4.20,7.77,7.78,7.79
46.60,3.43,-4.32,3.45,-4.29,4.29,3.94,4.10,7.72,7.75,7.75
47.06,3.46,-4.26,3.48,-4.23,4.23,3.88,4.01,7.68,7.71,7.72
47.53,3.50,-4.18,3.51,-4.16,4.16,3.81,3.92,7.65,7.67,7.68
48.01,3.54,-4.09,3.54,-4.09,4.09,3.75,3.84,7.63,7.63,7.63
48.49,3.57,-4.02,3.56,-4.02,4.02,3.68,3.75,7.59,7.59,7.59
48.97,3.61,-3.93,3.59,-3.96,3.96,3.62,3.67,7.56,7.55,7.54
49.46,3.64,-3.87,3.62,-3.89,3.89,3.55,3.59,7.52,7.51,7.51
49.96,3.66,-3.79,3.65,-3.82,3.82,3.49,3.52,7.47,7.46,7.45
50.46,3.69,-3.73,3.67,-3.75,3.75,3.43,3.45,7.43,7.42,7.42
50.96,3.71,-3.67,3.70,-3.68,3.68,3.36,3.38,7.38,7.38,7.38
51.47,3.73,-3.61,3.73,-3.61,3.61,3.30,3.31,7.33,7.34,7.34
51.99,3.75,-3.54,3.75,-3.54,3.54,3.23,3.24,7.29,7.29,7.29
52.51,3.77,-3.49,3.78,-3.47,3.47,3.17,3.18,7.24,7.25,7.26
53.03,3.80,-3.43,3.80,-3.41,3.41,3.11,3.12,7.21,7.21,7.23
53.56,3.82,-3.36,3.82,-3.35,3.35,3.04,3.05,7.16,7.17,7.18
54.10,3.85,-3.28,3.85,-3.28,3.28,2.98,3.00,7.13,7.13,7.13
54.64,3.88,-3.21,3.87,-3.22,3.22,2.92,2.94,7.10,7.09,7.09
55.18,3.91,-3.14,3.90,-3.16,3.16,2.86,2.88,7.06,7.05,7.05
55.74,3.93,-3.07,3.93,-3.09,3.09,2.79,2.82,7.02,7.02,7.00
56.29,3.95,-3.03,3.95,-3.02,3.02,2.73,2.77,6.97,6.98,6.98
56.86,3.98,-2.96,3.98,-2.96,2.96,2.67,2.71,6.93,6.94,6.94
57.42,4.00,-2.89,4.01,-2.89,2.89,2.61,2.66,6.88,6.90,6.89
58.00,4.03,-2.82,4.03,-2.82,2.82,2.55,2.61,6.85,6.85,6.85
58.58,4.06,-2.76,4.06,-2.75,2.75,2.48,2.55,6.81,6.81,6.82
59.16,4.09,-2.70,4.08,-2.68,2.68,2.42,2.50,6.77,6.76,6.79
59.76,4.12,-2.62,4.10,-2.62,2.62,2.36,2.45,6.73,6.72,6.74
60.35,4.14,-2.55,4.12,-2.55,2.55,2.30,2.39,6.69,6.67,6.69
60.96,4.16,-2.47,4.13,-2.49,2.49,2.24,2.34,6.64,6.62,6.63
61.57,4.16,-2.41,4.15,-2.42,2.42,2.18,2.28,6.57,6.57,6.57
62.18,4.18,-2.33,4.17,-2.35,2.35,2.12,2.23,6.52,6.52,6.51
62.80,4.19,-2.26,4.19,-2.28,2.28,2.06,2.17,6.46,6.46,6.45
63.43,4.20,-2.20,4.20,-2.21,2.21,2.00,2.12,6.40,6.41,6.40
64.07,4.21,-2.14,4.22,-2.13,2.13,1.94,2.06,6.34,6.36,6.35
64.71,4.22,-2.08,4.24,-2.06,2.06,1.88,2.00,6.28,6.30,6.30
65.35,4.24,-2.00,4.26,-1.99,1.99,1.82,1.94,6.22,6.24,6.24
66.01,4.27,-1.92,4.28,-1.91,1.91,1.76,1.88,6.17,6.19,6.19
66.67,4.30,-1.85,4.31,-1.83,1.83,1.70,1.82,6.13,6.13,6.15
67.33,4.33,-1.75,4.33,-1.75,1.75,1.64,1.76,6.08,6.08,6.08
68.01,4.36,-1.67,4.36,-1.67,1.67,1.58,1.70,6.02,6.03,6.03
68.69,4.39,-1.59,4.39,-1.58,1.58,1.52,1.64,5.97,5.97,5.98
69.37,4.42,-1.51,4.41,-1.50,1.50,1.46,1.58,5.92,5.91,5.93
70.07,4.45,-1.42,4.44,-1.42,1.42,1.40,1.51,5.87,5.86,5.87
70.77,4.47,-1.33,4.46,-1.34,1.34,1.34,1.45,5.81,5.80,5.80
71.48,4.50,-1.25,4.48,-1.26,1.26,1.28,1.39,5.76,5.74,5.75
72.19,4.51,-1.18,4.49,-1.19,1.19,1.22,1.32,5.70,5.69,5.69
72.91,4.53,-1.09,4.50,-1.12,1.12,1.17,1.26,5.65,5.63,5.62
73.64,4.53,-1.04,4.51,-1.06,1.06,1.11,1.19,5.58,5.57,5.57
74.38,4.53,-0.98,4.52,-1.00,1.00,1.05,1.13,5.52,5.52,5.51
75.12,4.53,-0.93,4.52,-0.94,0.94,0.99,1.06,5.47,5.46,5.46
75.87,4.52,-0.89,4.52,-0.89,0.89,0.93,1.00,5.40,5.41,5.41
76.63,4.51,-0.84,4.52,-0.83,0.83,0.88,0.93,5.34,5.36,5.35
77.40,4.51,-0.80,4.52,-0.79,0.79,0.82,0.87,5.29,5.30,5.31
78.17,4.51,-0.74,4.52,-0.74,0.74,0.76,0.80,5.24,5.25,5.25
78.95,4.51,-0.70,4.51,-0.69,0.69,0.70,0.74,5.20,5.20,5.21
79.74,4.51,-0.65,4.51,-0.64,0.64,0.65,0.67,5.15,5.15,5.16
80.54,4.51,-0.60,4.51,-0.60,0.60,0.59,0.60,5.10,5.10,5.11
81.35,4.51,-0.54,4.51,-0.55,0.55,0.53,0.54,5.06,5.05,5.05
82.16,4.51,-0.51,4.50,-0.50,0.50,0.47,0.47,5.01,5.00,5.02
82.98,4.51,-0.45,4.50,-0.45,0.45,0.42,0.41,4.95,4.95,4.96
83.81,4.51,-0.40,4.50,-0.39,0.39,0.36,0.34,4.90,4.90,4.91
84.65,4.51,-0.34,4.51,-0.34,0.34,0.30,0.28,4.85,4.85,4.85
85.50,4.51,-0.28,4.51,-0.29,0.29,0.25,0.21,4.79,4.79,4.79
86.35,4.51,-0.23,4.51,-0.23,0.23,0.19,0.14,4.74,4.74,4.74
87.22,4.51,-0.18,4.51,-0.18,0.18,0.13,0.08,4.68,4.68,4.69
88.09,4.51,-0.12,4.51,-0.12,0.12,0.08,0.01,4.63,4.63,4.63
88.97,4.51,-0.06,4.51,-0.07,0.07,0.02,-0.05,4.57,4.57,4.57
89.86,4.51,-0.01,4.51,-0.01,0.01,-0.03,-0.12,4.51,4.51,4.52
90.76,4.51,0.05,4.51,0.05,-0.05,-0.09,-0.19,4.46,4.46,4.46
91.66,4.51,0.12,4.51,0.11,-0.11,-0.15,-0.25,4.39,4.39,4.39
92.58,4.51,0.17,4.51,0.17,-0.17,-0.20,-0.32,4.33,4.33,4.34
93.51,4.51,0.22,4.51,0.23,-0.23,-0.26,-0.39,4.27,4.27,4.29
94.44,4.51,0.28,4.51,0.29,-0.29,-0.31,-0.45,4.21,4.21,4.23
95.39,4.51,0.35,4.51,0.35,-0.35,-0.37,-0.52,4.15,4.15,4.16
96.34,4.51,0.42,4.51,0.42,-0.42,-0.42,-0.59,4.09,4.09,4.09
97.30,4.51,0.48,4.51,0.48,-0.48,-0.48,-0.65,4.03,4.03,4.03
98.28,4.51,0.55,4.51,0.54,-0.54,-0.54,-0.72,3.97,3.97,3.96
99.26,4.51,0.61,4.51,0.60,-0.60,-0.59,-0.79,3.91,3.91,3.90
100.25,4.51,0.67,4.51,0.66,-0.66,-0.65,-0.86,3.85,3.85,3.84
101.25,4.51,0.72,4.51,0.72,-0.72,-0.70,-0.92,3.79,3.79,3.79
102.27,4.51,0.78,4.51,0.78,-0.78,-0.76,-0.99,3.73,3.73,3.73
103.29,4.51,0.84,4.51,0.83,-0.83,-0.81,-1.06,3.67,3.67,3.67
104.32,4.51,0.89,4.51,0.89,-0.89,-0.86,-1.12,3.62,3.62,3.62
105.37,4.51,0.95,4.51,0.95,-0.95,-0.92,-1.19,3.56,3.56,3.56
106.42,4.51,1.00,4.51,1.00,-1.00,-0.97,-1.25,3.50,3.50,3.51
107.48,4.51,1.06,4.51,1.06,-1.06,-1.03,-1.32,3.45,3.45,3.45
108.56,4.51,1.11,4.51,1.12,-1.12,-1.08,-1.38,3.39,3.39,3.40
109.64,4.51,1.17,4.51,1.18,-1.18,-1.14,-1.44,3.33,3.33,3.34
110.74,4.51,1.23,4.51,1.23,-1.23,-1.19,-1.50,3.27,3.27,3.28
111.85,4.51,1.29,4.51,1.29,-1.29,-1.24,-1.56,3.21,3.21,3.22
112.97,4.51,1.34,4.51,1.35,-1.35,-1.30,-1.62,3.15,3.15,3.17
114.10,4.51,1.40,4.51,1.41,-1.41,-1.35,-1.67,3.10,3.10,3.11
115.24,4.51,1.48,4.51,1.47,-1.47,-1.40,-1.73,3.04,3.04,3.03
116.39,4.51,1.54,4.51,1.53,-1.53,-1.46,-1.78,2.98,2.98,2.97
117.55,4.51,1.60,4.51,1.58,-1.58,-1.51,-1.83,2.92,2.92,2.91
118.73,4.51,1.66,4.51,1.64,-1.64,-1.56,-1.88,2.87,2.87,2.85
119.92,4.51,1.70,4.51,1.70,-1.70,-1.62,-1.92,2.81,2.81,2.81
121.12,4.51,1.75,4.51,1.75,-1.75,-1.67,-1.97,2.75,2.75,2.76
122.33,4.51,1.81,4.51,1.81,-1.81,-1.72,-2.01,2.70,2.70,2.70
123.55,4.51,1.86,4.51,1.87,-1.87,-1.77,-2.04,2.64,2.64,2.65
124.79,4.51,1.91,4.50,1.92,-1.92,-1.83,-2.08,2.59,2.59,2.60
126.03,4.51,1.97,4.50,1.97,-1.97,-1.88,-2.11,2.53,2.53,2.54
127.29,4.51,2.02,4.50,2.03,-2.03,-1.93,-2.14,2.48,2.48,2.49
128.57,4.51,2.09,4.51,2.08,-2.08,-1.98,-2.17,2.42,2.42,2.42
129.85,4.51,2.14,4.51,2.14,-2.14,-2.03,-2.20,2.37,2.37,2.37
131.15,4.51,2.20,4.51,2.20,-2.20,-2.08,-2.22,2.31,2.31,2.31
132.46,4.51,2.25,4.51,2.26,-2.26,-2.13,-2.24,2.25,2.26,2.26
133.79,4.51,2.31,4.52,2.31,-2.31,-2.19,-2.26,2.19,2.20,2.20
135.12,4.51,2.36,4.52,2.37,-2.37,-2.24,-2.28,2.14,2.15,2.15
136.48,4.51,2.41,4.52,2.42,-2.42,-2.29,-2.29,2.08,2.10,2.10
137.84,4.52,2.47,4.52,2.48,-2.48,-2.34,-2.31,2.04,2.04,2.05
139.22,4.53,2.54,4.52,2.53,-2.53,-2.38,-2.32,2.00,1.99,1.99
140.61,4.53,2.58,4.52,2.57,-2.57,-2.43,-2.33,1.95,1.94,1.95
142.02,4.53,2.64,4.51,2.61,-2.61,-2.48,-2.35,1.91,1.90,1.89
143.44,4.52,2.67,4.50,2.65,-2.65,-2.53,-2.36,1.87,1.85,1.85
144.87,4.51,2.70,4.49,2.68,-2.68,-2.58,-2.37,1.82,1.80,1.81
146.32,4.49,2.73,4.47,2.71,-2.71,-2.63,-2.38,1.78,1.76,1.76
147.78,4.46,2.74,4.45,2.74,-2.74,-2.67,-2.39,1.72,1.72,1.72
149.26,4.44,2.77,4.43,2.76,-2.76,-2.72,-2.40,1.68,1.67,1.67
150.75,4.41,2.78,4.40,2.77,-2.77,-2.77,-2.42,1.63,1.63,1.63
152.26,4.38,2.79,4.37,2.79,-2.79,-2.81,-2.43,1.59,1.58,1.59
153.78,4.35,2.80,4.34,2.80,-2.80,-2.86,-2.44,1.55,1.54,1.55
155.32,4.31,2.80,4.31,2.81,-2.81,-2.90,-2.46,1.49,1.50,1.51
156.88,4.28,2.82,4.28,2.83,-2.83,-2.95,-2.48,1.45,1.46,1.46
158.44,4.25,2.84,4.26,2.85,-2.85,-2.99,-2.50,1.40,1.41,1.41
160.03,4.23,2.86,4.23,2.87,-2.87,-3.04,-2.51,1.36,1.37,1.37
161.63,4.21,2.88,4.21,2.89,-2.89,-3.08,-2.54,1.31,1.32,1.33
163.24,4.19,2.91,4.20,2.92,-2.92,-3.12,-2.56,1.26,1.28,1.28
164.88,4.17,2.94,4.19,2.96,-2.96,-3.16,-2.58,1.21,1.23,1.23
166.53,4.16,2.98,4.18,3.00,-3.00,-3.20,-2.61,1.16,1.18,1.18
168.19,4.16,3.01,4.18,3.04,-3.04,-3.24,-2.64,1.12,1.14,1.15
169.87,4.17,3.08,4.18,3.09,-3.09,-3.28,-2.67,1.08,1.09,1.09
171.57,4.18,3.14,4.18,3.14,-3.14,-3.32,-2.71,1.04,1.04,1.04
173.29,4.18,3.18,4.18,3.19,-3.19,-3.36,-2.74,0.99,0.99,1.00
175.02,4.19,3.24,4.18,3.24,-3.24,-3.40,-2.78,0.95,0.95,0.95
176.77,4.20,3.30,4.19,3.28,-3.28,-3.44,-2.82,0.91,0.90,0.90
178.54,4.21,3.35,4.18,3.33,-3.33,-3.47,-2.86,0.88,0.85,0.86
180.32,4.21,3.41,4.18,3.37,-3.37,-3.51,-2.90,0.83,0.81,0.80
182.13,4.20,3.43,4.18,3.42,-3.42,-3.54,-2.95,0.78,0.76,0.77
183.95,4.19,3.47,4.17,3.46,-3.46,-3.58,-3.00,0.73,0.72,0.72
185.79,4.17,3.50,4.16,3.49,-3.49,-3.61,-3.05,0.68,0.67,0.67
187.65,4.15,3.52,4.14,3.52,-3.52,-3.64,-3.10,0.63,0.63,0.63
189.52,4.13,3.54,4.13,3.54,-3.54,-3.68,-3.16,0.58,0.58,0.59
191.42,4.10,3.55,4.10,3.56,-3.56,-3.71,-3.22,0.53,0.54,0.55
193.33,4.07,3.56,4.08,3.58,-3.58,-3.74,-3.28,0.49,0.50,0.51
195.27,4.04,3.58,4.05,3.59,-3.59,-3.77,-3.34,0.45,0.46,0.46
197.22,4.03,3.62,4.02,3.60,-3.60,-3.79,-3.40,0.43,0.42,0.41
199.19,4.00,3.62,3.99,3.60,-3.60,-3.82,-3.46,0.39,0.38,0.38
201.18,3.97,3.63,3.95,3.61,-3.61,-3.85,-3.53,0.36,0.35,0.34
203.19,3.93,3.62,3.92,3.61,-3.61,-3.87,-3.59,0.32,0.31,0.31
205.23,3.90,3.61,3.89,3.61,-3.61,-3.90,-3.66,0.29,0.28,0.29
207.28,3.86,3.60,3.85,3.61,-3.61,-3.92,-3.73,0.25,0.25,0.26
209.35,3.82,3.60,3.82,3.60,-3.60,-3.94,-3.80,0.21,0.22,0.22
211.44,3.78,3.59,3.79,3.60,-3.60,-3.96,-3.86,0.18,0.19,0.19
213.56,3.74,3.57,3.75,3.60,-3.60,-3.98,-3.93,0.14,0.16,0.17
215.69,3.71,3.57,3.72,3.59,-3.59,-4.00,-4.00,0.12,0.13,0.14
217.85,3.69,3.58,3.69,3.58,-3.58,-4.02,-4.06,0.11,0.11,0.11
220.03,3.67,3.59,3.65,3.57,-3.57,-4.04,-4.12,0.10,0.08,0.08
222.23,3.64,3.59,3.62,3.56,-3.56,-4.05,-4.18,0.07,0.06,0.05
224.45,3.61,3.57,3.60,3.56,-3.56,-4.07,-4.24,0.05,0.03,0.04
226.70,3.59,3.58,3.57,3.56,-3.56,-4.08,-4.30,0.03,0.01,0.01
228.96,3.56,3.56,3.55,3.56,-3.56,-4.09,-4.35,0.00,-0.01,-0.00
231.25,3.54,3.56,3.53,3.56,-3.56,-4.10,-4.40,-0.02,-0.03,-0.02
233.57,3.51,3.55,3.52,3.56,-3.56,-4.11,-4.44,-0.05,-0.04,-0.04
235.90,3.49,3.54,3.51,3.56,-3.56,-4.12,-4.48,-0.08,-0.06,-0.05
238.26,3.49,3.57,3.50,3.57,-3.57,-4.13,-4.51,-0.09,-0.07,-0.08
240.64,3.49,3.56,3.50,3.58,-3.58,-4.13,-4.54,-0.10,-0.08,-0.07
243.05,3.51,3.60,3.51,3.60,-3.60,-4.14,-4.56,-0.09,-0.09,-0.09
245.48,3.53,3.63,3.52,3.62,-3.62,-4.14,-4.58,-0.09,-0.10,-0.10
247.93,3.54,3.65,3.54,3.65,-3.65,-4.15,-4.59,-0.11,-0.10,-0.11
250.41,3.56,3.66,3.57,3.68,-3.68,-4.15,-4.60,-0.12,-0.11,-0.10
252.92,3.60,3.71,3.60,3.71,-3.71,-4.15,-4.59,-0.12,-0.11,-0.11
255.45,3.64,3.76,3.63,3.75,-3.75,-4.15,-4.59,-0.12,-0.12,-0.12
258.00,3.68,3.80,3.68,3.80,-3.80,-4.15,-4.57,-0.13,-0.12,-0.12
260.58,3.73,3.85,3.73,3.86,-3.86,-4.14,-4.55,-0.13,-0.13,-0.12
263.19,3.78,3.90,3.78,3.91,-3.91,-4.14,-4.53,-0.14,-0.13,-0.12
265.82,3.83,3.96,3.84,3.97,-3.97,-4.13,-4.50,-0.15,-0.13,-0.13
268.48,3.89,4.02,3.90,4.04,-4.04,-4.13,-4.46,-0.15,-0.14,-0.13
271.16,3.95,4.08,3.96,4.10,-4.10,-4.12,-4.42,-0.15,-0.14,-0.13
273.87,4.01,4.14,4.02,4.16,-4.16,-4.11,-4.38,-0.16,-0.14,-0.13
276.61,4.08,4.21,4.08,4.22,-4.22,-4.10,-4.33,-0.15,-0.14,-0.13
279.38,4.15,4.30,4.14,4.28,-4.28,-4.09,-4.28,-0.13,-0.14,-0.15
282.17,4.22,4.37,4.19,4.33,-4.33,-4.08,-4.23,-0.11,-0.14,-0.15
284.99,4.27,4.41,4.24,4.38,-4.38,-4.07,-4.17,-0.11,-0.14,-0.14
287.84,4.31,4.44,4.28,4.42,-4.42,-4.05,-4.11,-0.11,-0.14,-0.13
290.72,4.34,4.48,4.31,4.45,-4.45,-4.04,-4.05,-0.11,-0.13,-0.14
293.63,4.36,4.49,4.34,4.48,-4.48,-4.02,-3.99,-0.12,-0.13,-0.13
296.57,4.38,4.50,4.37,4.49,-4.49,-4.01,-3.93,-0.12,-0.13,-0.12
299.53,4.38,4.50,4.38,4.50,-4.50,-3.99,-3.87,-0.12,-0.12,-0.12
302.53,4.38,4.48,4.38,4.50,-4.50,-3.97,-3.81,-0.12,-0.12,-0.10
305.55,4.37,4.48,4.37,4.48,-4.48,-3.95,-3.75,-0.12,-0.11,-0.11
308.61,4.36,4.46,4.36,4.46,-4.46,-3.93,-3.69,-0.11,-0.10,-0.10
311.69,4.36,4.45,4.34,4.44,-4.44,-3.91,-3.63,-0.08,-0.09,-0.09
314.81,4.34,4.43,4.32,4.41,-4.41,-3.88,-3.57,-0.07,-0.09,-0.09
317.96,4.32,4.40,4.29,4.37,-4.37,-3.86,-3.51,-0.06,-0.08,-0.08
321.14,4.28,4.35,4.26,4.34,-4.34,-3.83,-3.46,-0.06,-0.07,-0.07
324.35,4.23,4.30,4.23,4.30,-4.30,-3.81,-3.40,-0.07,-0.07,-0.07
327.59,4.18,4.22,4.20,4.26,-4.26,-3.78,-3.35,-0.08,-0.06,-0.04
330.87,4.13,4.18,4.16,4.21,-4.21,-3.76,-3.30,-0.09,-0.05,-0.05
334.18,4.10,4.14,4.13,4.17,-4.17,-3.73,-3.25,-0.07,-0.04,-0.04
337.52,4.08,4.12,4.09,4.12,-4.12,-3.70,-3.21,-0.05,-0.04,-0.04
340.90,4.05,4.07,4.05,4.08,-4.08,-3.67,-3.16,-0.03,-0.03,-0.02
344.30,4.02,4.03,4.01,4.03,-4.03,-3.64,-3.12,-0.01,-0.02,-0.01
347.75,3.99,4.00,3.97,3.98,-3.98,-3.61,-3.09,0.01,-0.01,-0.01
351.23,3.95,3.96,3.93,3.93,-3.93,-3.58,-3.05,0.01,-0.00,-0.01
354.74,3.90,3.88,3.89,3.88,-3.88,-3.55,-3.02,0.01,0.00,0.02
358.28,3.86,3.85,3.85,3.84,-3.84,-3.52,-2.98,0.02,0.01,0.01
361.87,3.81,3.79,3.81,3.79,-3.79,-3.48,-2.96,0.01,0.02,0.02
365.49,3.77,3.74,3.77,3.74,-3.74,-3.45,-2.93,0.02,0.03,0.03
369.14,3.73,3.68,3.73,3.69,-3.69,-3.42,-2.90,0.03,0.04,0.05
372.83,3.69,3.64,3.69,3.64,-3.64,-3.38,-2.88,0.04,0.05,0.05
376.56,3.65,3.60,3.64,3.59,-3.59,-3.35,-2.86,0.06,0.05,0.05
380.33,3.60,3.54,3.60,3.54,-3.54,-3.31,-2.85,0.06,0.06,0.06
384.13,3.56,3.48,3.56,3.49,-3.49,-3.27,-2.83,0.07,0.07,0.08
387.97,3.52,3.44,3.52,3.44,-3.44,-3.24,-2.82,0.08,0.08,0.08
391.85,3.48,3.39,3.48,3.39,-3.39,-3.20,-2.80,0.09,0.09,0.09
395.77,3.44,3.34,3.44,3.34,-3.34,-3.16,-2.79,0.10,0.10,0.10
399.73,3.40,3.29,3.40,3.29,-3.29,-3.13,-2.79,0.11,0.11,0.11
403.72,3.36,3.22,3.36,3.24,-3.24,-3.09,-2.78,0.12,0.12,0.14
407.76,3.32,3.19,3.32,3.19,-3.19,-3.05,-2.77,0.13,0.13,0.13
411.84,3.29,3.15,3.28,3.14,-3.14,-3.01,-2.77,0.14,0.14,0.14
415.96,3.25,3.09,3.25,3.10,-3.10,-2.97,-2.76,0.15,0.15,0.16
420.12,3.21,3.05,3.21,3.05,-3.05,-2.93,-2.76,0.16,0.16,0.16
424.32,3.17,3.00,3.17,3.00,-3.00,-2.89,-2.76,0.16,0.17,0.17
428.56,3.14,2.95,3.13,2.95,-2.95,-2.85,-2.76,0.18,0.18,0.19
432.85,3.10,2.90,3.09,2.90,-2.90,-2.81,-2.76,0.19,0.19,0.20
437.18,3.06,2.87,3.05,2.86,-2.86,-2.77,-2.75,0.20,0.20,0.19
441.55,3.02,2.82,3.01,2.81,-2.81,-2.73,-2.75,0.21,0.20,0.20
445.96,2.98,2.77,2.97,2.76,-2.76,-2.69,-2.75,0.22,0.21,0.21
450.42,2.94,2.72,2.93,2.71,-2.71,-2.65,-2.74,0.22,0.22,0.22
454.93,2.90,2.67,2.89,2.66,-2.66,-2.61,-2.74,0.23,0.23,0.23
459.48,2.85,2.61,2.85,2.61,-2.61,-2.57,-2.73,0.23,0.24,0.24
464.07,2.81,2.55,2.81,2.57,-2.57,-2.53,-2.72,0.24,0.25,0.26
468.71,2.77,2.50,2.77,2.52,-2.52,-2.48,-2.71,0.25,0.26,0.27
473.40,2.73,2.46,2.73,2.47,-2.47,-2.44,-2.70,0.26,0.27,0.27
478.13,2.70,2.42,2.70,2.42,-2.42,-2.40,-2.68,0.28,0.28,0.28
482.91,2.67,2.38,2.66,2.37,-2.37,-2.36,-2.66,0.30,0.29,0.29
487.74,2.63,2.33,2.62,2.32,-2.32,-2.32,-2.64,0.30,0.30,0.30
492.62,2.60,2.29,2.59,2.28,-2.28,-2.28,-2.62,0.32,0.31,0.31
497.55,2.56,2.24,2.55,2.23,-2.23,-2.23,-2.59,0.32,0.32,0.32
502.52,2.51,2.18,2.52,2.19,-2.19,-2.19,-2.56,0.32,0.33,0.33
507.55,2.48,2.13,2.49,2.14,-2.14,-2.15,-2.53,0.34,0.35,0.35
512.62,2.45,2.09,2.45,2.09,-2.09,-2.11,-2.49,0.35,0.36,0.36
517.75,2.42,2.04,2.42,2.05,-2.05,-2.07,-2.45,0.37,0.37,0.38
522.93,2.39,2.00,2.38,2.00,-2.00,-2.02,-2.41,0.39,0.38,0.39
528.16,2.36,1.96,2.34,1.95,-1.95,-1.98,-2.37,0.41,0.39,0.40
533.44,2.33,1.92,2.31,1.90,-1.90,-1.94,-2.32,0.43,0.41,0.41
538.77,2.28,1.86,2.27,1.85,-1.85,-1.90,-2.27,0.42,0.42,0.42
544.16,2.24,1.81,2.23,1.81,-1.81,-1.86,-2.22,0.43,0.43,0.43
