frequency,raw,error,smoothed,error_smoothed,equalization,parametric_eq,fixed_band_eq,equalized_raw,equalized_smoothed,target
20.00,-20.38,-22.59,-21.15,-23.37,23.37,21.05,9.86,2.99,2.22,2.22
20.20,-20.30,-22.50,-20.68,-22.89,22.89,21.03,10.04,2.60,2.21,2.21
20.40,-20.23,-22.42,-20.24,-22.44,22.44,21.01,10.23,2.22,2.20,2.20
20.61,-20.15,-22.34,-19.83,-22.02,22.02,20.98,10.42,1.87,2.19,2.20
20.81,-20.08,-22.25,-19.44,-21.63,21.63,20.95,10.61,1.55,2.18,2.18
21.02,-19.95,-22.12,-19.09,-21.26,21.26,20.91,10.81,1.32,2.18,2.18
21.23,-19.38,-21.54,-18.76,-20.92,20.92,20.87,11.01,1.55,2.17,2.17
21.44,-18.79,-20.97,-18.45,-20.61,20.61,20.83,11.22,1.82,2.16,2.18
21.66,-18.22,-20.39,-18.17,-20.33,20.33,20.78,11.44,2.10,2.15,2.17
21.87,-17.63,-19.79,-17.92,-20.07,20.07,20.73,11.66,2.44,2.15,2.16
22.09,-17.24,-19.38,-17.70,-19.84,19.84,20.68,11.88,2.61,2.14,2.15
22.31,-17.08,-19.23,-17.50,-19.64,19.64,20.62,12.11,2.56,2.14,2.15
22.54,-16.94,-19.08,-17.30,-19.43,19.43,20.56,12.35,2.49,2.13,2.14
22.76,-16.78,-18.90,-17.12,-19.25,19.25,20.50,12.60,2.48,2.13,2.13
22.99,-16.63,-18.74,-16.99,-19.12,19.12,20.43,12.85,2.49,2.13,2.12
23.22,-16.79,-18.89,-16.90,-19.02,19.02,20.36,13.11,2.24,2.12,2.11
23.45,-16.96,-19.07,-16.85,-18.97,18.97,20.29,13.37,2.01,2.12,2.12
23.69,-17.12,-19.23,-16.83,-18.95,18.95,20.21,13.65,1.83,2.12,2.11
23.92,-17.30,-19.40,-16.83,-18.94,18.94,20.13,13.93,1.65,2.11,2.11
24.16,-17.28,-19.39,-16.83,-18.95,18.95,20.05,14.22,1.67,2.11,2.12
24.40,-17.15,-19.28,-16.85,-18.97,18.97,19.97,14.52,1.81,2.12,2.13
24.65,-17.03,-19.15,-16.88,-19.00,19.00,19.88,14.83,1.97,2.12,2.13
24.89,-16.91,-19.03,-16.90,-19.02,19.02,19.79,15.15,2.12,2.12,2.13
25.14,-16.81,-18.92,-16.93,-19.05,19.05,19.70,15.48,2.25,2.12,2.12
25.39,-16.72,-18.83,-16.97,-19.09,19.09,19.60,15.82,2.37,2.12,2.12
25.65,-16.63,-18.74,-16.99,-19.11,19.11,19.50,16.18,2.49,2.13,2.12
25.91,-16.54,-18.66,-16.99,-19.12,19.12,19.40,16.54,2.58,2.13,2.13
26.16,-16.67,-18.81,-17.01,-19.14,19.14,19.30,16.92,2.47,2.13,2.14
26.43,-16.92,-19.06,-17.03,-19.16,19.16,19.20,17.30,2.24,2.13,2.14
26.69,-17.18,-19.31,-17.06,-19.19,19.19,19.10,17.70,2.02,2.13,2.14
26.96,-17.43,-19.56,-17.09,-19.22,19.22,18.99,18.12,1.79,2.13,2.13
27.23,-17.38,-19.50,-17.09,-19.22,19.22,18.88,18.54,1.84,2.13,2.13
27.50,-17.27,-19.39,-17.05,-19.18,19.18,18.77,18.98,1.91,2.13,2.13
27.77,-17.15,-19.28,-16.98,-19.11,19.11,18.66,19.43,1.96,2.13,2.14
28.05,-17.03,-19.16,-16.85,-18.98,18.98,18.55,19.88,1.95,2.13,2.14
28.33,-16.87,-18.98,-16.68,-18.81,18.81,18.43,20.34,1.94,2.13,2.12
28.62,-16.70,-18.82,-16.47,-18.60,18.60,18.32,20.80,1.90,2.13,2.12
28.90,-16.53,-18.66,-16.26,-18.39,18.39,18.20,21.26,1.85,2.13,2.13
29.19,-16.19,-18.31,-16.06,-18.19,18.19,18.08,21.71,2.00,2.12,2.13
29.48,-15.74,-17.86,-15.88,-18.00,18.00,17.96,22.14,2.25,2.12,2.12
29.78,-15.32,-17.44,-15.70,-17.81,17.81,17.84,22.54,2.49,2.12,2.12
30.08,-14.97,-17.10,-15.52,-17.63,17.63,17.72,22.89,2.66,2.11,2.13
30.38,-14.89,-17.00,-15.37,-17.47,17.47,17.60,23.18,2.58,2.11,2.12
30.68,-14.81,-16.90,-15.23,-17.33,17.33,17.48,23.39,2.52,2.10,2.10
30.99,-14.72,-16.81,-15.11,-17.20,17.20,17.35,23.52,2.48,2.09,2.10
31.30,-14.99,-17.08,-15.00,-17.08,17.08,17.23,23.56,2.09,2.09,2.09
31.61,-15.30,-17.37,-14.89,-16.97,16.97,17.10,23.50,1.67,2.08,2.08
31.93,-15.59,-17.66,-14.78,-16.85,16.85,16.98,23.34,1.26,2.07,2.07
32.24,-15.33,-17.40,-14.68,-16.74,16.74,16.85,23.11,1.41,2.07,2.07
32.57,-14.90,-16.95,-14.66,-16.71,16.71,16.72,22.81,1.81,2.06,2.05
32.89,-14.46,-16.50,-14.68,-16.73,16.73,16.59,22.45,2.27,2.05,2.05
33.22,-14.30,-16.34,-14.69,-16.74,16.74,16.46,22.06,2.44,2.05,2.05
33.55,-14.28,-16.31,-14.60,-16.65,16.65,16.33,21.64,2.37,2.04,2.04
33.89,-14.25,-16.29,-14.44,-16.48,16.48,16.20,21.20,2.23,2.04,2.05
34.23,-14.13,-16.15,-14.26,-16.29,16.29,16.07,20.75,2.17,2.03,2.03
34.57,-13.98,-16.00,-14.09,-16.12,16.12,15.94,20.31,2.14,2.03,2.03
34.92,-13.82,-15.84,-13.93,-15.95,15.95,15.81,19.87,2.13,2.02,2.02
35.27,-13.98,-16.01,-13.77,-15.78,15.78,15.68,19.43,1.80,2.02,2.03
35.62,-14.26,-16.26,-13.63,-15.64,15.64,15.55,19.01,1.38,2.01,2.01
35.97,-14.53,-16.53,-13.53,-15.52,15.52,15.42,18.59,1.00,2.00,2.01
36.33,-13.65,-15.63,-13.44,-15.42,15.42,15.28,18.19,1.78,1.98,1.99
36.70,-12.68,-14.66,-13.35,-15.32,15.32,15.15,17.80,2.63,1.97,1.98
37.06,-11.99,-13.95,-13.24,-15.19,15.19,15.02,17.43,3.20,1.95,1.96
37.43,-12.64,-14.57,-13.14,-15.07,15.07,14.88,17.06,2.43,1.93,1.94
37.81,-13.28,-15.19,-13.04,-14.94,14.94,14.75,16.71,1.67,1.91,1.92
38.19,-13.41,-15.29,-12.94,-14.82,14.82,14.61,16.37,1.42,1.89,1.89
38.57,-13.02,-14.88,-12.84,-14.70,14.70,14.48,16.05,1.68,1.86,1.87
38.95,-12.63,-14.46,-12.75,-14.59,14.59,14.34,15.73,1.96,1.84,1.84
39.34,-12.64,-14.43,-12.67,-14.48,14.48,14.21,15.43,1.84,1.81,1.80
39.74,-12.69,-14.46,-12.58,-14.37,14.37,14.07,15.14,1.68,1.78,1.78
40.14,-12.69,-14.43,-12.51,-14.26,14.26,13.94,14.85,1.58,1.76,1.75
40.54,-12.56,-14.28,-12.48,-14.21,14.21,13.80,14.58,1.65,1.73,1.73
40.94,-12.43,-14.12,-12.44,-14.14,14.14,13.66,14.32,1.72,1.70,1.70
41.35,-12.29,-13.96,-12.36,-14.03,14.03,13.53,14.06,1.75,1.67,1.68
41.76,-12.15,-13.78,-12.22,-13.87,13.87,13.39,13.82,1.72,1.65,1.64
42.18,-12.04,-13.65,-12.09,-13.71,13.71,13.25,13.58,1.68,1.62,1.62
42.60,-11.98,-13.57,-11.90,-13.49,13.49,13.12,13.35,1.52,1.59,1.60
43.03,-11.90,-13.46,-11.67,-13.23,13.23,12.98,13.13,1.34,1.57,1.57
43.46,-11.51,-13.04,-11.48,-13.02,13.02,12.84,12.92,1.51,1.54,1.54
43.90,-11.11,-12.63,-11.31,-12.82,12.82,12.70,12.71,1.71,1.51,1.52
44.33,-11.20,-12.68,-11.16,-12.64,12.64,12.57,12.51,1.44,1.48,1.48
44.78,-11.43,-12.87,-11.02,-12.47,12.47,12.43,12.32,1.05,1.45,1.45
45.23,-11.32,-12.75,-10.91,-12.33,12.33,12.29,12.13,1.01,1.42,1.44
45.68,-10.88,-12.27,-10.82,-12.20,12.20,12.15,11.95,1.32,1.39,1.39
46.13,-10.36,-11.71,-10.71,-12.06,12.06,12.01,11.77,1.70,1.35,1.35
46.60,-9.67,-10.99,-10.59,-11.90,11.90,11.87,11.61,2.23,1.31,1.32
47.06,-9.22,-10.50,-10.53,-11.80,11.80,11.74,11.44,2.58,1.27,1.28
47.53,-10.42,-11.67,-10.52,-11.75,11.75,11.60,11.28,1.33,1.23,1.25
48.01,-11.58,-12.77,-10.47,-11.66,11.66,11.46,11.13,0.08,1.19,1.19
48.49,-11.07,-12.21,-10.42,-11.56,11.56,11.32,10.98,0.49,1.14,1.14
48.97,-10.54,-11.63,-10.41,-11.51,11.51,11.18,10.83,0.97,1.10,1.10
49.46,-10.44,-11.49,-10.42,-11.47,11.47,11.04,10.69,1.04,1.05,1.06
49.96,-10.37,-11.35,-10.44,-11.45,11.45,10.90,10.55,1.08,1.01,0.99
50.46,-10.17,-11.12,-10.41,-11.37,11.37,10.76,10.42,1.20,0.96,0.95
50.96,-9.96,-10.86,-10.27,-11.18,11.18,10.62,10.29,1.22,0.91,0.91
51.47,-10.30,-11.16,-10.12,-10.99,10.99,10.48,10.16,0.69,0.87,0.87
51.99,-10.68,-11.50,-9.98,-10.80,10.80,10.34,10.04,0.12,0.82,0.82
52.51,-9.92,-10.70,-9.79,-10.56,10.56,10.20,9.91,0.64,0.77,0.78
53.03,-9.19,-9.93,-9.53,-10.26,10.26,10.05,9.79,1.07,0.73,0.75
53.56,-9.77,-10.45,-9.31,-9.99,9.99,9.91,9.68,0.23,0.68,0.69
54.10,-10.06,-10.70,-9.20,-9.84,9.84,9.77,9.56,-0.23,0.64,0.64
54.64,-9.09,-9.69,-9.11,-9.70,9.70,9.63,9.44,0.61,0.59,0.60
55.18,-8.16,-8.70,-9.03,-9.58,9.58,9.49,9.33,1.41,0.55,0.54
55.74,-7.36,-7.85,-8.94,-9.45,9.45,9.35,9.21,2.09,0.51,0.49
56.29,-7.80,-8.26,-8.84,-9.30,9.30,9.21,9.10,1.50,0.47,0.46
56.86,-9.36,-9.78,-8.75,-9.18,9.18,9.06,8.98,-0.19,0.42,0.42
57.42,-9.36,-9.72,-8.69,-9.06,9.06,8.92,8.87,-0.30,0.38,0.36
58.00,-8.82,-9.14,-8.58,-8.91,8.91,8.78,8.75,0.09,0.33,0.33
58.58,-8.62,-8.91,-8.51,-8.80,8.80,8.64,8.63,0.18,0.28,0.30
59.16,-8.57,-8.83,-8.44,-8.67,8.67,8.50,8.51,0.11,0.23,0.26
59.76,-8.94,-9.16,-8.35,-8.54,8.54,8.35,8.39,-0.41,0.18,0.22
60.35,-8.82,-8.97,-8.31,-8.45,8.45,8.21,8.26,-0.38,0.13,0.15
60.96,-8.38,-8.48,-8.30,-8.38,8.38,8.07,8.14,-0.00,0.08,0.10
61.57,-7.92,-7.95,-8.24,-8.27,8.27,7.93,8.01,0.35,0.03,0.03
62.18,-7.69,-7.64,-8.11,-8.08,8.08,7.78,7.88,0.39,-0.03,-0.04
62.80,-8.00,-7.90,-7.88,-7.79,7.79,7.64,7.74,-0.21,-0.09,-0.10
63.43,-7.49,-7.33,-7.73,-7.58,7.58,7.50,7.61,0.09,-0.15,-0.16
64.07,-6.79,-6.58,-7.65,-7.45,7.45,7.35,7.47,0.66,-0.21,-0.21
64.71,-7.59,-7.32,-7.56,-7.30,7.30,7.21,7.33,-0.30,-0.27,-0.27
65.35,-7.85,-7.51,-7.46,-7.13,7.13,7.07,7.18,-0.71,-0.33,-0.33
66.01,-7.62,-7.22,-7.33,-6.94,6.94,6.92,7.03,-0.67,-0.39,-0.39
66.67,-7.14,-6.71,-7.20,-6.75,6.75,6.78,6.88,-0.39,-0.45,-0.43
67.33,-7.00,-6.48,-7.11,-6.60,6.60,6.64,6.73,-0.40,-0.51,-0.51
68.01,-7.19,-6.62,-7.05,-6.48,6.48,6.49,6.57,-0.71,-0.57,-0.56
68.69,-7.07,-6.43,-6.95,-6.32,6.32,6.35,6.41,-0.74,-0.63,-0.63
69.37,-7.24,-6.55,-6.87,-6.17,6.17,6.21,6.26,-1.06,-0.69,-0.68
70.07,-7.47,-6.71,-6.82,-6.06,6.06,6.06,6.09,-1.40,-0.76,-0.75
70.77,-6.15,-5.33,-6.81,-5.99,5.99,5.92,5.93,-0.16,-0.82,-0.81
71.48,-6.11,-5.22,-6.72,-5.84,5.84,5.77,5.77,-0.27,-0.89,-0.88
72.19,-6.45,-5.49,-6.53,-5.58,5.58,5.63,5.60,-0.87,-0.95,-0.95
72.91,-6.12,-5.10,-6.38,-5.37,5.37,5.49,5.44,-0.75,-1.01,-1.01
73.64,-6.31,-5.22,-6.30,-5.23,5.23,5.34,5.27,-1.08,-1.08,-1.08
74.38,-6.40,-5.25,-6.17,-5.04,5.04,5.20,5.10,-1.36,-1.14,-1.14
75.12,-6.34,-5.12,-6.09,-4.90,4.90,5.05,4.93,-1.44,-1.20,-1.21
75.87,-6.19,-4.93,-6.00,-4.75,4.75,4.91,4.77,-1.44,-1.26,-1.25
76.63,-6.53,-5.20,-5.91,-4.60,4.60,4.76,4.60,-1.92,-1.31,-1.32
77.40,-6.23,-4.85,-5.81,-4.44,4.44,4.62,4.43,-1.78,-1.37,-1.37
78.17,-5.30,-3.87,-5.73,-4.30,4.30,4.48,4.26,-1.00,-1.43,-1.43
78.95,-4.66,-3.19,-5.66,-4.18,4.18,4.33,4.09,-0.48,-1.48,-1.47
79.74,-5.12,-3.59,-5.59,-4.06,4.06,4.19,3.92,-1.07,-1.54,-1.53
80.54,-5.75,-4.15,-5.49,-3.90,3.90,4.04,3.76,-1.85,-1.59,-1.59
81.35,-5.75,-4.10,-5.41,-3.76,3.76,3.90,3.59,-1.98,-1.65,-1.64
82.16,-5.17,-3.47,-5.34,-3.63,3.63,3.75,3.42,-1.53,-1.70,-1.69
82.98,-5.99,-4.24,-5.24,-3.48,3.48,3.61,3.25,-2.51,-1.76,-1.75
83.81,-4.91,-3.09,-5.11,-3.29,3.29,3.46,3.09,-1.61,-1.82,-1.81
84.65,-4.72,-2.84,-5.00,-3.13,3.13,3.32,2.92,-1.59,-1.88,-1.87
85.50,-4.83,-2.88,-4.94,-3.00,3.00,3.18,2.76,-1.82,-1.93,-1.94
86.35,-4.92,-2.91,-4.90,-2.91,2.91,3.03,2.59,-2.01,-1.99,-2.00
87.22,-5.06,-3.00,-4.86,-2.81,2.81,2.89,2.43,-2.25,-2.06,-2.05
88.09,-5.41,-3.28,-4.77,-2.65,2.65,2.74,2.26,-2.76,-2.12,-2.12
88.97,-4.31,-2.14,-4.59,-2.41,2.41,2.60,2.10,-1.90,-2.18,-2.17
89.86,-4.42,-2.16,-4.43,-2.19,2.19,2.46,1.93,-2.23,-2.24,-2.25
90.76,-4.39,-2.07,-4.36,-2.04,2.04,2.31,1.77,-2.34,-2.31,-2.31
91.66,-3.64,-1.25,-4.27,-1.89,1.89,2.17,1.60,-1.75,-2.38,-2.38
92.58,-3.85,-1.40,-4.19,-1.74,1.74,2.02,1.44,-2.11,-2.45,-2.44
93.51,-4.61,-2.10,-4.17,-1.65,1.65,1.88,1.28,-2.96,-2.52,-2.51
94.44,-4.42,-1.83,-4.04,-1.44,1.44,1.74,1.11,-2.98,-2.60,-2.58
95.39,-3.76,-1.10,-3.89,-1.22,1.22,1.59,0.95,-2.54,-2.67,-2.66
96.34,-3.76,-1.01,-3.82,-1.07,1.07,1.45,0.79,-2.69,-2.75,-2.74
97.30,-3.68,-0.85,-3.79,-0.96,0.96,1.31,0.62,-2.72,-2.83,-2.82
98.28,-3.62,-0.70,-3.74,-0.83,0.83,1.16,0.46,-2.79,-2.91,-2.91
99.26,-3.90,-0.89,-3.69,-0.70,0.70,1.02,0.30,-3.19,-2.99,-3.00
100.25,-4.01,-0.92,-3.65,-0.58,0.58,0.88,0.14,-3.42,-3.07,-3.08
101.25,-3.39,-0.23,-3.64,-0.49,0.49,0.74,-0.02,-2.90,-3.15,-3.15
102.27,-3.60,-0.35,-3.58,-0.34,0.34,0.59,-0.18,-3.25,-3.24,-3.24
103.29,-3.04,0.29,-3.44,-0.12,0.12,0.45,-0.34,-2.92,-3.32,-3.32
104.32,-2.94,0.45,-3.34,0.06,-0.06,0.31,-0.50,-3.00,-3.40,-3.39
105.37,-3.84,-0.37,-3.31,0.18,-0.18,0.17,-0.66,-4.02,-3.48,-3.47
106.42,-4.14,-0.57,-3.33,0.24,-0.24,0.03,-0.81,-4.37,-3.56,-3.56
107.48,-3.21,0.44,-3.31,0.33,-0.33,-0.12,-0.97,-3.55,-3.64,-3.65
108.56,-2.53,1.19,-3.21,0.52,-0.52,-0.26,-1.12,-3.04,-3.72,-3.71
109.64,-2.96,0.84,-3.14,0.66,-0.66,-0.40,-1.27,-3.62,-3.80,-3.80
110.74,-3.70,0.19,-3.11,0.76,-0.76,-0.54,-1.42,-4.46,-3.88,-3.88
111.85,-2.78,1.17,-3.08,0.87,-0.87,-0.68,-1.56,-3.65,-3.95,-3.95
112.97,-2.25,1.77,-3.01,1.02,-1.02,-0.82,-1.70,-3.27,-4.03,-4.02
114.10,-2.95,1.14,-2.92,1.19,-1.19,-0.96,-1.84,-4.14,-4.10,-4.09
115.24,-3.56,0.62,-2.86,1.32,-1.32,-1.10,-1.98,-4.87,-4.17,-4.17
116.39,-3.10,1.16,-2.76,1.48,-1.48,-1.24,-2.11,-4.58,-4.24,-4.25
117.55,-2.97,1.34,-2.57,1.74,-1.74,-1.38,-2.24,-4.72,-4.31,-4.31
118.73,-2.19,2.21,-2.44,1.94,-1.94,-1.52,-2.37,-4.13,-4.38,-4.39
119.92,-1.83,2.63,-2.38,2.07,-2.07,-1.66,-2.49,-3.89,-4.44,-4.45
121.12,-3.04,1.46,-2.35,2.15,-2.15,-1.79,-2.61,-5.20,-4.51,-4.50
122.33,-2.39,2.18,-2.22,2.36,-2.36,-1.93,-2.72,-4.74,-4.57,-4.57
123.55,-1.56,3.07,-2.09,2.55,-2.55,-2.07,-2.83,-4.10,-4.63,-4.62
124.79,-1.50,3.19,-2.10,2.60,-2.60,-2.21,-2.93,-4.10,-4.70,-4.68
126.03,-2.18,2.58,-2.06,2.70,-2.70,-2.34,-3.03,-4.88,-4.76,-4.75
127.29,-1.98,2.84,-1.88,2.94,-2.94,-2.48,-3.12,-4.91,-4.82,-4.81
128.57,-1.48,3.39,-1.79,3.09,-3.09,-2.62,-3.21,-4.57,-4.88,-4.87
129.85,-1.16,3.79,-1.80,3.14,-3.14,-2.75,-3.30,-4.30,-4.94,-4.94
131.15,-2.24,2.77,-1.76,3.24,-3.24,-2.89,-3.38,-5.48,-5.00,-5.00
132.46,-2.44,2.63,-1.69,3.37,-3.37,-3.02,-3.46,-5.80,-5.06,-5.06
133.79,-2.29,2.84,-1.66,3.46,-3.46,-3.16,-3.54,-5.75,-5.12,-5.12
135.12,-0.94,4.24,-1.61,3.56,-3.56,-3.29,-3.61,-4.50,-5.18,-5.18
136.48,-1.77,3.45,-1.59,3.64,-3.64,-3.42,-3.68,-5.42,-5.24,-5.22
137.84,-2.08,3.21,-1.53,3.76,-3.76,-3.56,-3.75,-5.84,-5.30,-5.28
139.22,-0.87,4.50,-1.46,3.89,-3.89,-3.69,-3.82,-4.76,-5.35,-5.36
140.61,-0.57,4.84,-1.39,4.02,-4.02,-3.82,-3.88,-4.59,-5.41,-5.40
142.02,-1.85,3.61,-1.34,4.12,-4.12,-3.95,-3.95,-5.98,-5.47,-5.46
143.44,-1.45,4.09,-1.29,4.24,-4.24,-4.09,-4.01,-5.68,-5.52,-5.53
144.87,-0.65,4.94,-1.15,4.43,-4.43,-4.22,-4.08,-5.08,-5.58,-5.58
146.32,-1.12,4.52,-1.00,4.63,-4.63,-4.35,-4.14,-5.75,-5.63,-5.63
147.78,-1.81,3.88,-1.00,4.69,-4.69,-4.48,-4.21,-6.50,-5.69,-5.69
149.26,-0.75,5.00,-0.96,4.79,-4.79,-4.61,-4.27,-5.53,-5.75,-5.74
150.75,-0.18,5.63,-0.89,4.91,-4.91,-4.73,-4.34,-5.09,-5.80,-5.81
152.26,-1.01,4.85,-0.76,5.10,-5.10,-4.86,-4.41,-6.11,-5.86,-5.85
153.78,-1.30,4.62,-0.71,5.21,-5.21,-4.99,-4.48,-6.50,-5.92,-5.91
155.32,-0.67,5.30,-0.70,5.27,-5.27,-5.12,-4.55,-5.93,-5.97,-5.96
156.88,-0.34,5.69,-0.62,5.41,-5.41,-5.24,-4.63,-5.75,-6.03,-6.02
158.44,-0.31,5.78,-0.46,5.63,-5.63,-5.37,-4.70,-5.94,-6.09,-6.08
160.03,-0.25,5.90,-0.45,5.70,-5.70,-5.49,-4.79,-5.94,-6.15,-6.14
161.63,-0.97,5.24,-0.45,5.76,-5.76,-5.62,-4.87,-6.72,-6.21,-6.20
163.24,-0.56,5.71,-0.33,5.93,-5.93,-5.74,-4.96,-6.50,-6.27,-6.27
164.88,0.73,7.05,-0.21,6.11,-6.11,-5.86,-5.05,-5.38,-6.33,-6.32
166.53,0.00,6.40,-0.21,6.17,-6.17,-5.99,-5.14,-6.17,-6.39,-6.39
168.19,-0.68,5.77,-0.16,6.28,-6.28,-6.11,-5.24,-6.96,-6.45,-6.44
169.87,-0.50,6.01,-0.07,6.44,-6.44,-6.23,-5.35,-6.94,-6.51,-6.50
171.57,0.01,6.59,-0.02,6.55,-6.55,-6.35,-5.45,-6.54,-6.57,-6.57
173.29,0.18,6.82,0.00,6.63,-6.63,-6.47,-5.57,-6.44,-6.63,-6.63
175.02,0.21,6.90,0.05,6.73,-6.73,-6.59,-5.68,-6.52,-6.68,-6.68
176.77,-0.52,6.22,0.14,6.87,-6.87,-6.70,-5.80,-7.39,-6.74,-6.73
178.54,0.45,7.25,0.21,7.00,-7.00,-6.82,-5.93,-6.55,-6.79,-6.79
180.32,1.09,7.94,0.28,7.12,-7.12,-6.94,-6.06,-6.03,-6.84,-6.85
182.13,0.28,7.18,0.33,7.22,-7.22,-7.05,-6.19,-6.94,-6.89,-6.89
183.95,-0.34,6.61,0.38,7.32,-7.32,-7.17,-6.33,-7.66,-6.94,-6.94
185.79,0.46,7.46,0.48,7.47,-7.47,-7.28,-6.47,-7.01,-6.99,-6.99
187.65,0.62,7.66,0.53,7.57,-7.57,-7.39,-6.62,-6.94,-7.04,-7.03
189.52,0.69,7.78,0.59,7.67,-7.67,-7.50,-6.77,-6.98,-7.08,-7.08
191.42,0.77,7.89,0.68,7.81,-7.81,-7.61,-6.93,-7.04,-7.13,-7.11
193.33,0.81,7.98,0.74,7.91,-7.91,-7.72,-7.09,-7.10,-7.17,-7.16
195.27,0.83,8.05,0.83,8.04,-8.04,-7.83,-7.25,-7.21,-7.21,-7.21
197.22,0.65,7.92,0.91,8.16,-8.16,-7.94,-7.42,-7.51,-7.25,-7.26
199.19,0.84,8.14,0.86,8.16,-8.16,-8.05,-7.60,-7.31,-7.29,-7.29
201.18,1.19,8.54,0.86,8.19,-8.19,-8.15,-7.77,-7.00,-7.33,-7.34
203.19,0.64,8.02,0.95,8.33,-8.33,-8.26,-7.95,-7.69,-7.38,-7.37
205.23,0.76,8.18,1.04,8.46,-8.46,-8.36,-8.13,-7.70,-7.42,-7.41
207.28,1.39,8.84,1.07,8.52,-8.52,-8.46,-8.32,-7.13,-7.46,-7.44
209.35,1.94,9.43,1.08,8.57,-8.57,-8.56,-8.51,-6.63,-7.49,-7.48
211.44,1.10,8.64,1.06,8.59,-8.59,-8.66,-8.69,-7.49,-7.53,-7.53
213.56,0.46,8.03,1.10,8.67,-8.67,-8.76,-8.88,-8.21,-7.57,-7.56
215.69,1.17,8.78,1.20,8.81,-8.81,-8.86,-9.07,-7.63,-7.60,-7.60
217.85,0.79,8.43,1.26,8.90,-8.90,-8.96,-9.25,-8.11,-7.64,-7.63
220.03,0.70,8.39,1.31,8.98,-8.98,-9.05,-9.44,-8.28,-7.67,-7.68
222.23,1.73,9.44,1.34,9.04,-9.04,-9.15,-9.62,-7.31,-7.70,-7.70
224.45,2.19,9.93,1.38,9.11,-9.11,-9.24,-9.80,-6.92,-7.73,-7.73
226.70,1.63,9.40,1.45,9.21,-9.21,-9.33,-9.97,-7.57,-7.76,-7.76
228.96,1.04,8.83,1.48,9.26,-9.26,-9.42,-10.13,-8.21,-7.78,-7.78
231.25,0.99,8.79,1.51,9.31,-9.31,-9.51,-10.29,-8.31,-7.80,-7.79
233.57,1.72,9.55,1.59,9.40,-9.40,-9.60,-10.44,-7.68,-7.81,-7.82
235.90,2.60,10.44,1.72,9.55,-9.55,-9.69,-10.57,-6.94,-7.83,-7.83
238.26,2.00,9.86,1.84,9.68,-9.68,-9.77,-10.70,-7.68,-7.84,-7.85
240.64,1.12,8.97,1.90,9.75,-9.75,-9.85,-10.82,-8.63,-7.85,-7.84
243.05,1.63,9.49,1.91,9.77,-9.77,-9.94,-10.92,-8.13,-7.86,-7.85
245.48,1.95,9.83,1.87,9.74,-9.74,-10.02,-11.00,-7.79,-7.87,-7.87
247.93,1.98,9.87,1.87,9.74,-9.74,-10.10,-11.08,-7.76,-7.88,-7.88
250.41,2.08,9.96,1.96,9.84,-9.84,-10.18,-11.13,-7.76,-7.88,-7.87
252.92,2.11,9.99,2.08,9.97,-9.97,-10.25,-11.18,-7.85,-7.89,-7.87
255.45,2.21,10.11,2.13,10.03,-10.03,-10.33,-11.21,-7.82,-7.90,-7.89
258.00,2.23,10.14,2.12,10.03,-10.03,-10.40,-11.22,-7.80,-7.91,-7.90
260.58,2.24,10.16,2.07,9.99,-9.99,-10.47,-11.22,-7.75,-7.92,-7.91
263.19,2.24,10.17,2.05,9.98,-9.98,-10.54,-11.21,-7.74,-7.93,-7.92
265.82,1.64,9.59,2.19,10.14,-10.14,-10.61,-11.19,-8.49,-7.94,-7.94
268.48,1.44,9.39,2.31,10.26,-10.26,-10.68,-11.15,-8.82,-7.95,-7.94
271.16,2.75,10.72,2.30,10.26,-10.26,-10.74,-11.11,-7.51,-7.97,-7.96
273.87,3.10,11.08,2.30,10.28,-10.28,-10.81,-11.06,-7.17,-7.98,-7.97
276.61,2.51,10.51,2.32,10.31,-10.31,-10.87,-11.00,-7.80,-7.99,-7.99
279.38,1.88,9.91,2.35,10.35,-10.35,-10.93,-10.94,-8.46,-8.00,-8.02
282.17,1.84,9.87,2.41,10.42,-10.42,-10.99,-10.87,-8.58,-8.01,-8.02
284.99,2.32,10.35,2.47,10.49,-10.49,-11.05,-10.80,-8.16,-8.02,-8.02
287.84,2.55,10.58,2.46,10.48,-10.48,-11.10,-10.73,-7.93,-8.02,-8.02
290.72,3.01,11.06,2.47,10.50,-10.50,-11.15,-10.66,-7.48,-8.03,-8.04
293.63,3.44,11.48,2.52,10.55,-10.55,-11.21,-10.59,-7.11,-8.04,-8.03
296.57,2.14,10.18,2.58,10.62,-10.62,-11.26,-10.51,-8.48,-8.04,-8.03
299.53,1.88,9.93,2.60,10.64,-10.64,-11.30,-10.44,-8.76,-8.04,-8.04
302.53,2.66,10.70,2.61,10.66,-10.66,-11.35,-10.38,-7.99,-8.04,-8.03
305.55,2.82,10.87,2.69,10.73,-10.73,-11.40,-10.31,-7.91,-8.05,-8.04
308.61,2.83,10.87,2.77,10.81,-10.81,-11.44,-10.25,-7.98,-8.05,-8.03
311.69,2.83,10.89,2.79,10.83,-10.83,-11.48,-10.20,-8.00,-8.05,-8.05
314.81,2.27,10.32,2.76,10.81,-10.81,-11.52,-10.15,-8.53,-8.05,-8.04
317.96,2.21,10.28,2.74,10.80,-10.80,-11.56,-10.10,-8.58,-8.05,-8.06
321.14,3.41,11.47,2.79,10.85,-10.85,-11.59,-10.06,-7.43,-8.06,-8.05
324.35,3.53,11.60,2.88,10.93,-10.93,-11.62,-10.03,-7.40,-8.06,-8.06
327.59,3.09,11.15,2.99,11.05,-11.05,-11.66,-10.00,-7.96,-8.06,-8.05
330.87,3.04,11.11,3.09,11.15,-11.15,-11.69,-9.98,-8.11,-8.06,-8.06
334.18,3.03,11.11,3.10,11.16,-11.16,-11.71,-9.97,-8.13,-8.07,-8.07
337.52,2.47,10.54,3.06,11.13,-11.13,-11.74,-9.96,-8.66,-8.07,-8.06
340.90,2.53,10.61,3.05,11.11,-11.11,-11.76,-9.96,-8.58,-8.06,-8.07
344.30,3.01,11.08,3.08,11.14,-11.14,-11.79,-9.96,-8.13,-8.06,-8.06
347.75,3.60,11.66,3.15,11.21,-11.21,-11.81,-9.98,-7.60,-8.06,-8.05
351.23,3.98,12.06,3.24,11.30,-11.30,-11.82,-10.00,-7.31,-8.06,-8.07
354.74,3.73,11.79,3.25,11.31,-11.31,-11.84,-10.02,-7.57,-8.05,-8.05
358.28,3.22,11.28,3.21,11.26,-11.26,-11.85,-10.06,-8.04,-8.05,-8.05
361.87,2.63,10.69,3.22,11.27,-11.27,-11.87,-10.10,-8.64,-8.05,-8.05
365.49,2.45,10.50,3.25,11.30,-11.30,-11.88,-10.15,-8.84,-8.04,-8.04
369.14,3.17,11.21,3.25,11.29,-11.29,-11.88,-10.21,-8.11,-8.04,-8.03
372.83,3.37,11.40,3.27,11.30,-11.30,-11.89,-10.27,-7.93,-8.04,-8.02
376.56,3.60,11.64,3.39,11.42,-11.42,-11.90,-10.34,-7.82,-8.03,-8.03
380.33,4.18,12.22,3.50,11.53,-11.53,-11.90,-10.42,-7.35,-8.03,-8.03
384.13,3.83,11.86,3.54,11.57,-11.57,-11.90,-10.50,-7.74,-8.03,-8.02
387.97,3.37,11.40,3.58,11.62,-11.62,-11.90,-10.60,-8.24,-8.04,-8.02
391.85,2.85,10.89,3.68,11.71,-11.71,-11.90,-10.69,-8.86,-8.04,-8.03
395.77,3.12,11.17,3.80,11.84,-11.84,-11.89,-10.80,-8.72,-8.04,-8.04
399.73,3.61,11.66,3.90,11.95,-11.95,-11.88,-10.91,-8.34,-8.05,-8.04
403.72,4.00,12.04,3.96,12.02,-12.02,-11.87,-11.03,-8.01,-8.05,-8.03
407.76,4.29,12.35,3.96,12.02,-12.02,-11.86,-11.15,-7.72,-8.06,-8.05
