frequency,raw,error,smoothed,error_smoothed,equalization,parametric_eq,fixed_band_eq,equalized_raw,equalized_smoothed,target
20.00,-20.38,-14.01,-20.31,-13.95,13.51,11.16,4.44,-6.87,-6.80,-6.36
20.20,-20.30,-13.92,-20.34,-13.97,13.22,11.23,4.56,-7.08,-7.12,-6.37
20.40,-20.23,-13.84,-20.30,-13.92,12.93,11.29,4.68,-7.30,-7.37,-6.38
20.61,-20.15,-13.77,-20.19,-13.81,12.65,11.35,4.80,-7.50,-7.55,-6.38
20.81,-20.08,-13.67,-20.08,-13.68,12.38,11.40,4.93,-7.70,-7.70,-6.40
21.02,-19.95,-13.54,-19.82,-13.42,12.12,11.45,5.05,-7.83,-7.71,-6.40
21.23,-19.38,-12.96,-19.40,-12.99,11.86,11.49,5.19,-7.51,-7.54,-6.41
21.44,-18.79,-12.39,-18.82,-12.41,11.62,11.53,5.32,-7.17,-7.20,-6.40
21.66,-18.22,-11.81,-18.18,-11.77,11.35,11.55,5.46,-6.88,-6.84,-6.41
21.87,-17.63,-11.21,-17.67,-11.25,11.08,11.58,5.61,-6.55,-6.59,-6.42
22.09,-17.24,-10.80,-17.30,-10.87,10.84,11.59,5.75,-6.39,-6.46,-6.43
22.31,-17.08,-10.65,-17.05,-10.62,10.65,11.60,5.90,-6.44,-6.41,-6.43
22.54,-16.94,-10.50,-16.88,-10.44,10.51,11.60,6.06,-6.43,-6.37,-6.44
22.76,-16.78,-10.33,-16.76,-10.32,10.44,11.59,6.22,-6.34,-6.33,-6.44
22.99,-16.63,-10.18,-16.72,-10.26,10.42,11.58,6.38,-6.21,-6.29,-6.45
23.22,-16.79,-10.32,-16.77,-10.32,10.45,11.56,6.55,-6.34,-6.32,-6.46
23.45,-16.96,-10.51,-16.94,-10.48,10.50,11.54,6.72,-6.46,-6.44,-6.45
23.69,-17.12,-10.66,-17.14,-10.68,10.56,11.50,6.90,-6.56,-6.58,-6.46
23.92,-17.30,-10.83,-17.25,-10.79,10.62,11.46,7.08,-6.68,-6.63,-6.46
24.16,-17.28,-10.82,-17.26,-10.80,10.64,11.42,7.26,-6.63,-6.61,-6.45
24.40,-17.15,-10.71,-17.17,-10.73,10.63,11.36,7.45,-6.53,-6.55,-6.44
24.65,-17.03,-10.59,-17.04,-10.60,10.57,11.31,7.64,-6.46,-6.47,-6.44
24.89,-16.91,-10.46,-16.91,-10.47,10.47,11.24,7.83,-6.43,-6.44,-6.44
25.14,-16.81,-10.36,-16.81,-10.36,10.38,11.17,8.03,-6.43,-6.43,-6.44
25.39,-16.72,-10.27,-16.69,-10.25,10.32,11.09,8.23,-6.40,-6.38,-6.44
25.65,-16.63,-10.19,-16.60,-10.17,10.31,11.01,8.43,-6.32,-6.30,-6.44
25.91,-16.54,-10.11,-16.60,-10.16,10.35,10.93,8.63,-6.18,-6.24,-6.43
26.16,-16.67,-10.25,-16.69,-10.27,10.44,10.84,8.84,-6.23,-6.26,-6.42
26.43,-16.92,-10.50,-16.93,-10.50,10.54,10.74,9.04,-6.38,-6.39,-6.42
26.69,-17.18,-10.75,-17.19,-10.77,10.64,10.64,9.25,-6.53,-6.54,-6.42
26.96,-17.43,-11.01,-17.35,-10.92,10.73,10.54,9.45,-6.70,-6.61,-6.42
27.23,-17.38,-10.96,-17.38,-10.96,10.80,10.43,9.66,-6.57,-6.57,-6.42
27.50,-17.27,-10.85,-17.30,-10.88,10.83,10.32,9.86,-6.43,-6.47,-6.42
27.77,-17.15,-10.73,-17.15,-10.74,10.80,10.21,10.05,-6.35,-6.36,-6.41
28.05,-17.03,-10.61,-17.02,-10.60,10.68,10.09,10.24,-6.35,-6.34,-6.41
28.33,-16.87,-10.44,-16.88,-10.47,10.48,9.98,10.42,-6.39,-6.40,-6.42
28.62,-16.70,-10.28,-16.72,-10.30,10.22,9.86,10.59,-6.48,-6.50,-6.42
28.90,-16.53,-10.12,-16.49,-10.07,9.92,9.73,10.74,-6.62,-6.57,-6.41
29.19,-16.19,-9.77,-16.16,-9.75,9.60,9.61,10.89,-6.59,-6.56,-6.41
29.48,-15.74,-9.33,-15.74,-9.33,9.29,9.48,11.01,-6.46,-6.46,-6.41
29.78,-15.32,-8.91,-15.34,-8.93,9.01,9.36,11.12,-6.31,-6.33,-6.41
30.08,-14.97,-8.57,-15.04,-8.63,8.80,9.23,11.21,-6.17,-6.24,-6.40
30.38,-14.89,-8.48,-14.83,-8.42,8.68,9.10,11.28,-6.21,-6.16,-6.41
30.68,-14.81,-8.38,-14.76,-8.34,8.62,8.97,11.32,-6.19,-6.14,-6.42
30.99,-14.72,-8.30,-14.82,-8.40,8.60,8.84,11.34,-6.12,-6.22,-6.42
31.30,-14.99,-8.56,-15.04,-8.61,8.60,8.71,11.34,-6.39,-6.44,-6.43
31.61,-15.30,-8.86,-15.30,-8.87,8.60,8.57,11.31,-6.70,-6.70,-6.43
31.93,-15.59,-9.15,-15.44,-9.00,8.58,8.44,11.26,-7.01,-6.86,-6.44
32.24,-15.33,-8.89,-15.28,-8.84,8.53,8.31,11.18,-6.80,-6.75,-6.44
32.57,-14.90,-8.45,-14.93,-8.48,8.44,8.18,11.08,-6.46,-6.49,-6.45
32.89,-14.46,-8.00,-14.55,-8.10,8.28,8.05,10.95,-6.17,-6.27,-6.45
33.22,-14.30,-7.84,-14.33,-7.88,8.09,7.91,10.81,-6.21,-6.25,-6.45
33.55,-14.28,-7.82,-14.25,-7.80,7.90,7.78,10.65,-6.38,-6.35,-6.45
33.89,-14.25,-7.80,-14.21,-7.76,7.78,7.65,10.48,-6.46,-6.43,-6.44
34.23,-14.13,-7.68,-14.09,-7.64,7.74,7.52,10.29,-6.39,-6.35,-6.45
34.57,-13.98,-7.52,-13.96,-7.51,7.71,7.39,10.09,-6.26,-6.24,-6.45
34.92,-13.82,-7.37,-13.91,-7.46,7.63,7.25,9.88,-6.18,-6.27,-6.45
35.27,-13.98,-7.54,-14.11,-7.66,7.49,7.12,9.67,-6.50,-6.62,-6.44
35.62,-14.26,-7.80,-14.28,-7.83,7.30,6.99,9.45,-6.96,-6.98,-6.45
35.97,-14.53,-8.07,-14.17,-7.71,7.12,6.87,9.22,-7.40,-7.04,-6.45
36.33,-13.65,-7.18,-13.54,-7.08,6.97,6.74,8.99,-6.68,-6.57,-6.46
36.70,-12.68,-6.21,-12.81,-6.34,6.82,6.61,8.75,-5.86,-5.99,-6.47
37.06,-11.99,-5.51,-12.42,-5.93,6.67,6.48,8.52,-5.33,-5.75,-6.48
37.43,-12.64,-6.13,-12.62,-6.12,6.50,6.35,8.29,-6.14,-6.12,-6.50
37.81,-13.28,-6.76,-13.03,-6.51,6.34,6.23,8.05,-6.93,-6.69,-6.51
38.19,-13.41,-6.87,-13.24,-6.71,6.24,6.10,7.82,-7.17,-7.00,-6.53
38.57,-13.02,-6.47,-13.07,-6.51,6.21,5.98,7.59,-6.81,-6.86,-6.55
38.95,-12.63,-6.05,-12.79,-6.22,6.23,5.85,7.36,-6.40,-6.57,-6.57
39.34,-12.64,-6.04,-12.64,-6.05,6.22,5.73,7.13,-6.41,-6.42,-6.60
39.74,-12.69,-6.07,-12.64,-6.02,6.15,5.61,6.91,-6.54,-6.49,-6.61
40.14,-12.69,-6.06,-12.65,-6.02,6.01,5.49,6.69,-6.67,-6.64,-6.63
40.54,-12.56,-5.91,-12.57,-5.92,5.86,5.36,6.47,-6.69,-6.70,-6.65
40.94,-12.43,-5.75,-12.43,-5.76,5.73,5.24,6.26,-6.69,-6.70,-6.67
41.35,-12.29,-5.60,-12.28,-5.59,5.61,5.12,6.04,-6.68,-6.67,-6.68
41.76,-12.15,-5.43,-12.15,-5.45,5.47,5.01,5.84,-6.68,-6.69,-6.71
42.18,-12.04,-5.31,-12.08,-5.36,5.30,4.89,5.63,-6.73,-6.78,-6.72
42.60,-11.98,-5.24,-11.98,-5.24,5.15,4.77,5.43,-6.83,-6.83,-6.73
43.03,-11.90,-5.14,-11.76,-5.01,5.03,4.65,5.23,-6.87,-6.73,-6.75
43.46,-11.51,-4.73,-11.49,-4.72,4.91,4.54,5.03,-6.60,-6.58,-6.77
43.90,-11.11,-4.33,-11.30,-4.52,4.72,4.42,4.84,-6.39,-6.59,-6.78
44.33,-11.20,-4.40,-11.26,-4.46,4.47,4.31,4.65,-6.73,-6.79,-6.80
44.78,-11.43,-4.60,-11.30,-4.49,4.20,4.19,4.47,-7.23,-7.10,-6.82
45.23,-11.32,-4.50,-11.25,-4.41,3.93,4.08,4.29,-7.39,-7.32,-6.82
45.68,-10.88,-4.03,-10.89,-4.04,3.71,3.97,4.11,-7.16,-7.17,-6.85
46.13,-10.36,-3.48,-10.18,-3.30,3.57,3.86,3.93,-6.79,-6.61,-6.88
46.60,-9.67,-2.77,-9.68,-2.78,3.47,3.75,3.75,-6.20,-6.21,-6.90
47.06,-9.22,-2.30,-9.86,-2.94,3.38,3.64,3.58,-5.84,-6.48,-6.92
47.53,-10.42,-3.48,-10.39,-3.44,3.30,3.53,3.41,-7.13,-7.09,-6.94
48.01,-11.58,-4.60,-10.91,-3.93,3.23,3.42,3.25,-8.35,-7.68,-6.98
48.49,-11.07,-4.06,-11.12,-4.12,3.23,3.31,3.08,-7.84,-7.89,-7.01
48.97,-10.54,-3.49,-10.83,-3.79,3.29,3.20,2.92,-7.24,-7.54,-7.04
49.46,-10.44,-3.37,-10.43,-3.36,3.36,3.10,2.76,-7.08,-7.07,-7.06
49.96,-10.37,-3.26,-10.24,-3.13,3.36,2.99,2.61,-7.01,-6.88,-7.11
50.46,-10.17,-3.04,-10.14,-3.01,3.26,2.89,2.45,-6.91,-6.87,-7.13
50.96,-9.96,-2.81,-10.23,-3.08,3.16,2.78,2.30,-6.80,-7.08,-7.15
51.47,-10.30,-3.13,-10.34,-3.16,3.07,2.68,2.15,-7.23,-7.27,-7.17
51.99,-10.68,-3.48,-10.17,-2.98,2.94,2.57,2.01,-7.74,-7.24,-7.20
52.51,-9.92,-2.70,-9.94,-2.73,2.73,2.47,1.86,-7.19,-7.21,-7.22
53.03,-9.19,-1.96,-9.81,-2.57,2.47,2.37,1.72,-6.72,-7.33,-7.23
53.56,-9.77,-2.51,-9.68,-2.42,2.16,2.27,1.58,-7.60,-7.51,-7.26
54.10,-10.06,-2.77,-9.58,-2.29,1.84,2.16,1.45,-8.23,-7.74,-7.29
54.64,-9.09,-1.78,-9.07,-1.75,1.55,2.06,1.31,-7.54,-7.52,-7.31
55.18,-8.16,-0.82,-8.15,-0.81,1.31,1.96,1.18,-6.85,-6.84,-7.34
55.74,-7.36,-0.00,-7.80,-0.45,1.14,1.86,1.06,-6.22,-6.66,-7.36
56.29,-7.80,-0.43,-8.18,-0.80,1.04,1.76,0.93,-6.77,-7.14,-7.37
56.86,-9.36,-1.98,-8.74,-1.35,1.01,1.67,0.81,-8.36,-7.73,-7.38
57.42,-9.36,-1.95,-9.14,-1.74,1.04,1.57,0.69,-8.32,-8.11,-7.41
58.00,-8.82,-1.41,-9.04,-1.63,1.10,1.47,0.57,-7.71,-7.94,-7.41
58.58,-8.62,-1.21,-8.72,-1.31,1.21,1.37,0.46,-7.40,-7.51,-7.41
59.16,-8.57,-1.15,-8.70,-1.28,1.29,1.28,0.35,-7.28,-7.42,-7.42
59.76,-8.94,-1.51,-8.78,-1.35,1.23,1.18,0.25,-7.71,-7.56,-7.43
60.35,-8.82,-1.36,-8.69,-1.24,1.06,1.08,0.14,-7.77,-7.64,-7.46
60.96,-8.38,-0.90,-8.37,-0.89,0.83,0.99,0.04,-7.55,-7.55,-7.48
61.57,-7.92,-0.41,-8.07,-0.56,0.59,0.89,-0.05,-7.33,-7.48,-7.51
62.18,-7.69,-0.15,-7.89,-0.35,0.39,0.80,-0.14,-7.30,-7.51,-7.54
62.80,-8.00,-0.43,-7.59,-0.02,0.23,0.70,-0.23,-7.78,-7.36,-7.57
63.43,-7.49,0.10,-7.41,0.18,0.06,0.61,-0.32,-7.43,-7.34,-7.59
64.07,-6.79,0.81,-7.38,0.23,-0.11,0.52,-0.40,-6.90,-7.49,-7.60
64.71,-7.59,0.03,-7.43,0.19,-0.22,0.42,-0.48,-7.82,-7.65,-7.62
65.35,-7.85,-0.21,-7.57,0.06,-0.27,0.33,-0.56,-8.11,-7.84,-7.63
66.01,-7.62,0.03,-7.57,0.07,-0.30,0.24,-0.64,-7.91,-7.87,-7.65
66.67,-7.14,0.51,-7.31,0.35,-0.32,0.15,-0.71,-7.46,-7.63,-7.65
67.33,-7.00,0.68,-7.09,0.59,-0.36,0.06,-0.78,-7.36,-7.45,-7.68
68.01,-7.19,0.51,-7.03,0.66,-0.48,-0.03,-0.85,-7.66,-7.51,-7.69
68.69,-7.07,0.64,-7.28,0.43,-0.63,-0.12,-0.91,-7.70,-7.91,-7.71
69.37,-7.24,0.47,-7.22,0.50,-0.80,-0.22,-0.98,-8.04,-8.03,-7.71
70.07,-7.47,0.27,-6.90,0.83,-0.98,-0.31,-1.04,-8.45,-7.88,-7.73
70.77,-6.15,1.59,-6.63,1.11,-1.13,-0.40,-1.10,-7.28,-7.76,-7.74
71.48,-6.11,1.64,-6.28,1.47,-1.24,-0.48,-1.16,-7.35,-7.52,-7.75
72.19,-6.45,1.33,-6.10,1.67,-1.31,-0.57,-1.22,-7.76,-7.41,-7.77
72.91,-6.12,1.66,-6.28,1.50,-1.37,-0.66,-1.28,-7.49,-7.65,-7.78
73.64,-6.31,1.48,-6.33,1.46,-1.44,-0.75,-1.34,-7.75,-7.77,-7.79
74.38,-6.40,1.40,-6.27,1.53,-1.52,-0.84,-1.39,-7.91,-7.78,-7.79
75.12,-6.34,1.47,-6.37,1.43,-1.61,-0.93,-1.45,-7.94,-7.97,-7.80
75.87,-6.19,1.60,-6.44,1.36,-1.73,-1.02,-1.51,-7.92,-8.16,-7.79
76.63,-6.53,1.27,-6.33,1.46,-1.84,-1.10,-1.57,-8.37,-8.17,-7.79
77.40,-6.23,1.55,-5.91,1.87,-1.94,-1.19,-1.63,-8.17,-7.86,-7.78
78.17,-5.30,2.48,-5.41,2.37,-2.05,-1.28,-1.69,-7.36,-7.46,-7.78
78.95,-4.66,3.10,-5.07,2.69,-2.15,-1.36,-1.75,-6.81,-7.22,-7.76
79.74,-5.12,2.63,-5.17,2.58,-2.23,-1.45,-1.82,-7.35,-7.41,-7.75
80.54,-5.75,2.00,-5.35,2.39,-2.36,-1.54,-1.88,-8.11,-7.71,-7.74
81.35,-5.75,1.99,-5.71,2.02,-2.45,-1.62,-1.95,-8.20,-8.17,-7.73
82.16,-5.17,2.54,-5.66,2.05,-2.49,-1.71,-2.01,-7.66,-8.15,-7.71
82.98,-5.99,1.71,-5.36,2.34,-2.48,-1.79,-2.08,-8.47,-7.84,-7.70
83.81,-4.91,2.79,-5.11,2.58,-2.45,-1.88,-2.15,-7.36,-7.56,-7.69
84.65,-4.72,2.97,-4.94,2.75,-2.46,-1.96,-2.22,-7.18,-7.40,-7.68
85.50,-4.83,2.86,-4.70,2.98,-2.56,-2.05,-2.30,-7.39,-7.26,-7.68
86.35,-4.92,2.74,-5.03,2.63,-2.71,-2.13,-2.37,-7.63,-7.74,-7.66
87.22,-5.06,2.59,-5.07,2.58,-2.87,-2.22,-2.45,-7.92,-7.94,-7.64
88.09,-5.41,2.23,-4.93,2.70,-2.99,-2.30,-2.53,-8.39,-7.92,-7.63
88.97,-4.31,3.30,-4.78,2.84,-3.06,-2.39,-2.61,-7.37,-7.84,-7.61
89.86,-4.42,3.20,-4.40,3.21,-3.12,-2.47,-2.70,-7.53,-7.52,-7.61
90.76,-4.39,3.21,-3.97,3.62,-3.19,-2.55,-2.78,-7.58,-7.17,-7.59
91.66,-3.64,3.95,-4.02,3.56,-3.31,-2.64,-2.87,-6.95,-7.33,-7.59
92.58,-3.85,3.72,-4.12,3.45,-3.45,-2.72,-2.96,-7.30,-7.57,-7.57
93.51,-4.61,2.95,-4.18,3.38,-3.55,-2.80,-3.05,-8.17,-7.73,-7.56
94.44,-4.42,3.14,-4.25,3.30,-3.61,-2.89,-3.15,-8.02,-7.86,-7.55
95.39,-3.76,3.79,-4.06,3.49,-3.62,-2.97,-3.25,-7.37,-7.68,-7.55
96.34,-3.76,3.80,-3.71,3.84,-3.62,-3.05,-3.34,-7.37,-7.33,-7.55
97.30,-3.68,3.88,-3.62,3.93,-3.68,-3.13,-3.44,-7.35,-7.30,-7.55
98.28,-3.62,3.93,-3.80,3.76,-3.79,-3.22,-3.55,-7.41,-7.59,-7.55
99.26,-3.90,3.67,-3.79,3.77,-3.90,-3.30,-3.65,-7.80,-7.69,-7.56
100.25,-4.01,3.56,-3.81,3.75,-3.96,-3.38,-3.75,-7.97,-7.77,-7.56
101.25,-3.39,4.16,-3.67,3.89,-4.00,-3.46,-3.86,-7.39,-7.67,-7.55
102.27,-3.60,3.96,-3.29,4.26,-4.01,-3.54,-3.97,-7.61,-7.30,-7.55
103.29,-3.04,4.51,-3.14,4.41,-4.03,-3.63,-4.08,-7.07,-7.17,-7.55
104.32,-2.94,4.60,-3.42,4.12,-4.09,-3.71,-4.18,-7.03,-7.51,-7.54
105.37,-3.84,3.70,-3.61,3.93,-4.17,-3.79,-4.29,-8.01,-7.78,-7.54
106.42,-4.14,3.41,-3.61,3.94,-4.24,-3.87,-4.40,-8.38,-7.85,-7.54
107.48,-3.21,4.34,-3.32,4.23,-4.33,-3.95,-4.51,-7.55,-7.65,-7.55
108.56,-2.53,5.00,-3.09,4.44,-4.39,-4.03,-4.62,-6.92,-7.49,-7.53
109.64,-2.96,4.57,-3.01,4.52,-4.39,-4.11,-4.72,-7.35,-7.40,-7.53
110.74,-3.70,3.84,-2.97,4.56,-4.41,-4.19,-4.83,-8.11,-7.38,-7.53
111.85,-2.78,4.74,-2.89,4.63,-4.49,-4.27,-4.93,-7.27,-7.38,-7.52
112.97,-2.25,5.26,-2.85,4.67,-4.55,-4.35,-5.03,-6.80,-7.40,-7.51
114.10,-2.95,4.55,-2.85,4.66,-4.59,-4.43,-5.13,-7.55,-7.44,-7.50
115.24,-3.56,3.95,-3.19,4.31,-4.62,-4.51,-5.22,-8.17,-7.80,-7.50
116.39,-3.10,4.40,-3.24,4.25,-4.65,-4.59,-5.31,-7.75,-7.90,-7.50
117.55,-2.97,4.51,-2.70,4.79,-4.74,-4.67,-5.40,-7.72,-7.44,-7.48
118.73,-2.19,5.29,-2.41,5.06,-4.85,-4.75,-5.48,-7.04,-7.26,-7.48
119.92,-1.83,5.63,-2.43,5.03,-4.97,-4.83,-5.55,-6.80,-7.40,-7.46
121.12,-3.04,4.39,-2.33,5.11,-5.12,-4.91,-5.63,-8.16,-7.45,-7.43
122.33,-2.39,5.03,-2.17,5.25,-5.30,-4.99,-5.69,-7.69,-7.47,-7.42
123.55,-1.56,5.84,-2.01,5.39,-5.47,-5.07,-5.76,-7.02,-7.48,-7.40
124.79,-1.50,5.88,-1.76,5.63,-5.54,-5.15,-5.81,-7.04,-7.30,-7.38
126.03,-2.18,5.20,-1.81,5.56,-5.54,-5.22,-5.86,-7.71,-7.35,-7.37
127.29,-1.98,5.39,-1.72,5.64,-5.53,-5.30,-5.91,-7.51,-7.25,-7.36
128.57,-1.48,5.87,-1.64,5.71,-5.51,-5.38,-5.95,-6.99,-7.15,-7.35
129.85,-1.16,6.18,-1.65,5.69,-5.50,-5.46,-5.99,-6.66,-7.16,-7.34
131.15,-2.24,5.10,-2.03,5.30,-5.49,-5.54,-6.02,-7.73,-7.53,-7.33
132.46,-2.44,4.89,-2.09,5.23,-5.49,-5.61,-6.04,-7.93,-7.58,-7.32
133.79,-2.29,5.02,-1.99,5.32,-5.52,-5.69,-6.07,-7.81,-7.51,-7.31
135.12,-0.94,6.36,-1.82,5.47,-5.60,-5.77,-6.08,-6.54,-7.42,-7.30
136.48,-1.77,5.51,-1.62,5.67,-5.67,-5.85,-6.10,-7.44,-7.29,-7.28
137.84,-2.08,5.20,-1.27,6.01,-5.74,-5.92,-6.11,-7.82,-7.01,-7.27
139.22,-0.87,6.41,-1.34,5.93,-5.84,-6.00,-6.12,-6.71,-7.18,-7.28
140.61,-0.57,6.69,-1.24,6.03,-5.95,-6.08,-6.13,-6.52,-7.19,-7.26
142.02,-1.85,5.41,-1.11,6.16,-6.03,-6.15,-6.14,-7.88,-7.14,-7.26
143.44,-1.45,5.81,-1.18,6.07,-6.10,-6.23,-6.15,-7.55,-7.28,-7.26
144.87,-0.65,6.60,-1.35,5.90,-6.15,-6.30,-6.16,-6.79,-7.49,-7.25
146.32,-1.12,6.12,-1.20,6.05,-6.15,-6.38,-6.16,-7.27,-7.35,-7.24
147.78,-1.81,5.43,-1.02,6.22,-6.17,-6.46,-6.17,-7.99,-7.19,-7.24
149.26,-0.75,6.50,-0.94,6.31,-6.26,-6.53,-6.18,-7.01,-7.20,-7.24
150.75,-0.18,7.07,-0.83,6.41,-6.33,-6.61,-6.19,-6.51,-7.17,-7.25
152.26,-1.01,6.23,-0.75,6.49,-6.40,-6.68,-6.21,-7.41,-7.15,-7.24
153.78,-1.30,5.95,-0.88,6.36,-6.49,-6.76,-6.22,-7.78,-7.37,-7.24
155.32,-0.67,6.58,-0.84,6.41,-6.59,-6.83,-6.24,-7.25,-7.42,-7.24
156.88,-0.34,6.91,-0.42,6.83,-6.68,-6.90,-6.26,-7.02,-7.11,-7.25
158.44,-0.31,6.96,-0.33,6.93,-6.79,-6.98,-6.29,-7.10,-7.12,-7.26
160.03,-0.25,7.03,-0.58,6.69,-6.86,-7.05,-6.31,-7.11,-7.44,-7.27
161.63,-0.97,6.32,-0.46,6.82,-6.93,-7.13,-6.35,-7.90,-7.39,-7.28
163.24,-0.56,6.74,-0.20,7.10,-7.01,-7.20,-6.38,-7.57,-7.20,-7.30
164.88,0.73,8.04,-0.08,7.23,-7.08,-7.27,-6.42,-6.34,-7.15,-7.31
166.53,0.00,7.34,-0.04,7.29,-7.11,-7.34,-6.46,-7.10,-7.15,-7.33
168.19,-0.68,6.67,-0.22,7.12,-7.15,-7.42,-6.51,-7.82,-7.37,-7.34
169.87,-0.50,6.87,-0.42,6.95,-7.23,-7.49,-6.57,-7.72,-7.64,-7.36
171.57,0.01,7.40,-0.10,7.28,-7.34,-7.56,-6.62,-7.33,-7.45,-7.38
173.29,0.18,7.58,0.00,7.40,-7.43,-7.63,-6.69,-7.24,-7.42,-7.40
175.02,0.21,7.62,-0.01,7.40,-7.48,-7.70,-6.76,-7.26,-7.49,-7.41
176.77,-0.52,6.92,0.17,7.61,-7.54,-7.78,-6.83,-8.05,-7.36,-7.43
178.54,0.45,7.90,0.40,7.85,-7.63,-7.85,-6.91,-7.17,-7.23,-7.45
180.32,1.09,8.56,0.39,7.86,-7.74,-7.92,-6.99,-6.65,-7.35,-7.47
182.13,0.28,7.77,0.43,7.91,-7.85,-7.99,-7.08,-7.56,-7.42,-7.48
183.95,-0.34,7.16,0.24,7.73,-7.91,-8.06,-7.17,-8.25,-7.68,-7.49
185.79,0.46,7.97,0.20,7.71,-7.99,-8.13,-7.27,-7.53,-7.79,-7.51
187.65,0.62,8.14,0.50,8.02,-8.08,-8.20,-7.37,-7.46,-7.58,-7.52
189.52,0.69,8.24,0.76,8.30,-8.14,-8.26,-7.48,-7.45,-7.38,-7.54
191.42,0.77,8.32,0.79,8.34,-8.19,-8.33,-7.59,-7.42,-7.40,-7.54
193.33,0.81,8.38,0.78,8.35,-8.26,-8.40,-7.71,-7.44,-7.47,-7.56
195.27,0.83,8.42,0.75,8.33,-8.34,-8.47,-7.83,-7.51,-7.59,-7.58
197.22,0.65,8.26,0.85,8.45,-8.45,-8.54,-7.96,-7.79,-7.60,-7.60
199.19,0.84,8.46,0.87,8.49,-8.55,-8.60,-8.09,-7.70,-7.68,-7.61
201.18,1.19,8.82,0.81,8.44,-8.63,-8.67,-8.22,-7.44,-7.82,-7.63
203.19,0.64,8.29,0.85,8.49,-8.68,-8.73,-8.36,-8.04,-7.84,-7.64
205.23,0.76,8.41,1.10,8.75,-8.70,-8.80,-8.50,-7.94,-7.60,-7.65
207.28,1.39,9.05,1.33,8.99,-8.71,-8.87,-8.64,-7.32,-7.38,-7.66
209.35,1.94,9.62,1.36,9.04,-8.72,-8.93,-8.78,-6.77,-7.35,-7.68
211.44,1.10,8.80,1.27,8.97,-8.76,-8.99,-8.93,-7.66,-7.49,-7.70
213.56,0.46,8.18,1.00,8.71,-8.85,-9.06,-9.07,-8.39,-7.85,-7.71
215.69,1.17,8.90,0.66,8.39,-8.92,-9.12,-9.22,-7.75,-8.26,-7.73
217.85,0.79,8.54,0.80,8.55,-8.94,-9.18,-9.37,-8.15,-8.14,-7.74
220.03,0.70,8.48,1.24,9.00,-8.95,-9.25,-9.51,-8.25,-7.72,-7.77
222.23,1.73,9.52,1.54,9.32,-9.01,-9.31,-9.65,-7.28,-7.47,-7.78
224.45,2.19,9.98,1.77,9.57,-9.14,-9.37,-9.79,-6.94,-7.36,-7.79
226.70,1.63,9.44,1.63,9.43,-9.29,-9.43,-9.93,-7.65,-7.66,-7.80
228.96,1.04,8.85,1.24,9.05,-9.41,-9.49,-10.05,-8.37,-8.17,-7.80
231.25,0.99,8.80,1.33,9.13,-9.48,-9.55,-10.18,-8.49,-8.15,-7.80
233.57,1.72,9.53,1.77,9.58,-9.50,-9.61,-10.29,-7.77,-7.72,-7.81
235.90,2.60,10.41,1.98,9.79,-9.49,-9.67,-10.40,-6.89,-7.51,-7.81
238.26,2.00,9.81,1.93,9.74,-9.51,-9.72,-10.49,-7.51,-7.58,-7.81
240.64,1.12,8.92,1.71,9.51,-9.55,-9.78,-10.58,-8.43,-7.84,-7.79
243.05,1.63,9.43,1.55,9.34,-9.64,-9.84,-10.66,-8.01,-8.09,-7.79
245.48,1.95,9.75,1.75,9.54,-9.75,-9.89,-10.72,-7.80,-8.00,-7.79
247.93,1.98,9.78,2.03,9.82,-9.80,-9.95,-10.77,-7.82,-7.77,-7.79
250.41,2.08,9.86,2.09,9.87,-9.79,-10.00,-10.81,-7.71,-7.70,-7.77
252.92,2.11,9.88,2.13,9.90,-9.79,-10.05,-10.84,-7.67,-7.65,-7.76
255.45,2.21,9.99,2.20,9.96,-9.80,-10.11,-10.85,-7.59,-7.61,-7.77
258.00,2.23,10.00,2.29,10.05,-9.86,-10.16,-10.86,-7.62,-7.57,-7.76
260.58,2.24,10.01,2.24,10.00,-9.93,-10.21,-10.85,-7.69,-7.70,-7.76
263.19,2.24,10.01,1.91,9.67,-9.98,-10.26,-10.83,-7.74,-8.07,-7.76
265.82,1.64,9.42,1.81,9.58,-9.98,-10.31,-10.81,-8.34,-8.18,-7.77
268.48,1.44,9.22,2.05,9.82,-9.96,-10.36,-10.77,-8.52,-7.91,-7.77
271.16,2.75,10.54,2.42,10.20,-9.95,-10.41,-10.73,-7.19,-7.53,-7.78
273.87,3.10,10.88,2.68,10.47,-9.99,-10.45,-10.68,-6.89,-7.31,-7.78
276.61,2.51,10.30,2.56,10.36,-10.08,-10.50,-10.62,-7.57,-7.52,-7.79
279.38,1.88,9.70,2.14,9.94,-10.19,-10.55,-10.56,-8.31,-8.05,-7.81
282.17,1.84,9.65,1.96,9.76,-10.29,-10.59,-10.49,-8.45,-8.34,-7.80
284.99,2.32,10.13,2.16,9.97,-10.31,-10.63,-10.43,-7.98,-8.14,-7.80
287.84,2.55,10.35,2.75,10.55,-10.29,-10.68,-10.36,-7.73,-7.54,-7.79
290.72,3.01,10.82,3.00,10.80,-10.30,-10.72,-10.29,-7.29,-7.30,-7.80
293.63,3.44,11.23,2.78,10.57,-10.34,-10.76,-10.22,-6.89,-7.55,-7.79
296.57,2.14,9.93,2.54,10.32,-10.38,-10.80,-10.15,-8.24,-7.84,-7.78
299.53,1.88,9.67,2.34,10.12,-10.41,-10.84,-10.09,-8.53,-8.07,-7.78
302.53,2.66,10.43,2.35,10.12,-10.40,-10.87,-10.02,-7.73,-8.05,-7.77
305.55,2.82,10.60,2.76,10.53,-10.36,-10.91,-9.96,-7.53,-7.59,-7.77
308.61,2.83,10.60,2.88,10.64,-10.36,-10.95,-9.91,-7.53,-7.49,-7.76
311.69,2.83,10.60,2.54,10.31,-10.45,-10.98,-9.85,-7.61,-7.90,-7.77
314.81,2.27,10.04,2.49,10.25,-10.57,-11.01,-9.81,-8.30,-8.08,-7.76
317.96,2.21,9.99,2.71,10.47,-10.67,-11.05,-9.76,-8.45,-7.96,-7.77
321.14,3.41,11.17,2.99,10.75,-10.70,-11.08,-9.73,-7.29,-7.72,-7.76
324.35,3.53,11.30,3.28,11.04,-10.67,-11.11,-9.70,-7.14,-7.39,-7.76
327.59,3.09,10.85,3.38,11.14,-10.64,-11.14,-9.67,-7.54,-7.25,-7.75
330.87,3.04,10.80,3.06,10.81,-10.68,-11.16,-9.65,-7.64,-7.62,-7.75
334.18,3.03,10.80,2.77,10.52,-10.78,-11.19,-9.64,-7.75,-8.02,-7.76
337.52,2.47,10.23,2.64,10.40,-10.87,-11.21,-9.63,-8.39,-8.23,-7.75
340.90,2.53,10.29,2.69,10.44,-10.92,-11.24,-9.63,-8.39,-8.23,-7.75
344.30,3.01,10.76,3.04,10.78,-10.93,-11.26,-9.64,-7.92,-7.90,-7.74
347.75,3.60,11.33,3.55,11.29,-10.94,-11.28,-9.65,-7.33,-7.38,-7.73
351.23,3.98,11.72,3.82,11.55,-10.97,-11.30,-9.67,-6.98,-7.14,-7.74
354.74,3.73,11.46,3.67,11.40,-11.04,-11.32,-9.70,-7.31,-7.37,-7.72
358.28,3.22,10.94,3.17,10.89,-11.13,-11.34,-9.73,-7.91,-7.96,-7.72
361.87,2.63,10.35,2.79,10.50,-11.21,-11.35,-9.78,-8.58,-8.43,-7.71
365.49,2.45,10.16,2.72,10.42,-11.26,-11.37,-9.82,-8.80,-8.54,-7.70
369.14,3.17,10.87,2.91,10.60,-11.23,-11.38,-9.88,-8.06,-8.32,-7.69
372.83,3.37,11.06,3.39,11.08,-11.16,-11.39,-9.94,-7.79,-7.77,-7.68
376.56,3.60,11.29,3.81,11.49,-11.10,-11.40,-10.01,-7.50,-7.29,-7.68
380.33,4.18,11.86,3.91,11.59,-11.07,-11.41,-10.09,-6.89,-7.16,-7.68
384.13,3.83,11.51,3.74,11.41,-11.09,-11.42,-10.17,-7.26,-7.35,-7.67
387.97,3.37,11.04,3.39,11.06,-11.19,-11.42,-10.26,-7.82,-7.80,-7.67
391.85,2.85,10.53,3.09,10.77,-11.32,-11.43,-10.36,-8.47,-8.23,-7.67
395.77,3.12,10.81,3.17,10.84,-11.45,-11.43,-10.46,-8.32,-8.28,-7.68
399.73,3.61,11.29,3.47,11.15,-11.56,-11.43,-10.57,-7.95,-8.09,-7.68
403.72,4.00,11.68,3.99,11.67,-11.64,-11.43,-10.68,-7.63,-7.65,-7.67
407.76,4.29,11.99,4.58,12.27,-11.71,-11.43,-10.80,-7.42,-7.13,-7.69
