frequency,raw,error,smoothed,error_smoothed,equalization,parametric_eq,fixed_band_eq,equalized_raw,equalized_smoothed,target
20.00,-2.46,-6.69,-2.44,-6.70,6.70,5.96,2.84,4.23,4.26,4.23
20.20,-2.42,-6.70,-2.42,-6.71,6.71,6.00,2.92,4.29,4.30,4.28
20.40,-2.38,-6.71,-2.39,-6.73,6.73,6.04,3.01,4.34,4.33,4.33
20.61,-2.35,-6.70,-2.37,-6.74,6.74,6.08,3.09,4.39,4.36,4.36
20.81,-2.31,-6.72,-2.35,-6.74,6.74,6.12,3.18,4.43,4.39,4.41
21.02,-2.27,-6.72,-2.33,-6.75,6.75,6.15,3.27,4.47,4.42,4.45
21.23,-2.27,-6.74,-2.30,-6.75,6.75,6.19,3.36,4.47,4.45,4.47
21.44,-2.27,-6.76,-2.28,-6.75,6.75,6.23,3.46,4.47,4.47,4.49
21.66,-2.28,-6.79,-2.25,-6.74,6.74,6.26,3.55,4.46,4.49,4.51
21.87,-2.28,-6.80,-2.23,-6.73,6.73,6.29,3.66,4.45,4.51,4.52
22.09,-2.26,-6.80,-2.20,-6.72,6.72,6.32,3.76,4.46,4.52,4.53
22.31,-2.22,-6.77,-2.17,-6.71,6.71,6.35,3.86,4.48,4.53,4.54
22.54,-2.18,-6.72,-2.14,-6.68,6.68,6.38,3.97,4.51,4.54,4.54
22.76,-2.13,-6.68,-2.11,-6.66,6.66,6.41,4.09,4.52,4.54,4.54
22.99,-2.08,-6.62,-2.09,-6.63,6.63,6.43,4.20,4.55,4.55,4.53
23.22,-2.03,-6.57,-2.06,-6.60,6.60,6.46,4.32,4.57,4.55,4.53
23.45,-1.98,-6.51,-2.03,-6.57,6.57,6.48,4.44,4.59,4.55,4.53
23.69,-1.94,-6.48,-1.99,-6.54,6.54,6.50,4.56,4.60,4.55,4.54
23.92,-1.88,-6.42,-1.95,-6.50,6.50,6.52,4.68,4.61,4.55,4.54
24.16,-1.87,-6.42,-1.92,-6.46,6.46,6.54,4.81,4.59,4.55,4.55
24.40,-1.88,-6.44,-1.88,-6.43,6.43,6.55,4.94,4.54,4.55,4.56
24.65,-1.89,-6.44,-1.86,-6.40,6.40,6.56,5.07,4.51,4.54,4.55
24.89,-1.90,-6.45,-1.84,-6.38,6.38,6.58,5.21,4.48,4.55,4.55
25.14,-1.87,-6.42,-1.82,-6.36,6.36,6.59,5.34,4.49,4.55,4.54
25.39,-1.81,-6.37,-1.79,-6.34,6.34,6.59,5.48,4.53,4.55,4.55
25.65,-1.75,-6.31,-1.77,-6.32,6.32,6.60,5.61,4.56,4.55,4.55
25.91,-1.70,-6.24,-1.74,-6.29,6.29,6.60,5.75,4.60,4.55,4.54
26.16,-1.67,-6.21,-1.72,-6.26,6.26,6.61,5.89,4.59,4.55,4.54
26.43,-1.68,-6.22,-1.69,-6.23,6.23,6.61,6.02,4.55,4.54,4.54
26.69,-1.68,-6.22,-1.66,-6.20,6.20,6.61,6.16,4.52,4.54,4.54
26.96,-1.69,-6.24,-1.63,-6.17,6.17,6.60,6.29,4.48,4.54,4.55
27.23,-1.65,-6.19,-1.61,-6.14,6.14,6.60,6.42,4.50,4.54,4.54
27.50,-1.58,-6.13,-1.59,-6.12,6.12,6.59,6.55,4.54,4.53,4.54
27.77,-1.53,-6.07,-1.57,-6.10,6.10,6.59,6.68,4.57,4.53,4.53
28.05,-1.48,-6.01,-1.56,-6.09,6.09,6.57,6.79,4.60,4.53,4.53
28.33,-1.49,-6.01,-1.54,-6.07,6.07,6.56,6.91,4.58,4.53,4.52
28.62,-1.49,-6.01,-1.52,-6.05,6.05,6.55,7.01,4.56,4.53,4.52
28.90,-1.50,-6.03,-1.50,-6.03,6.03,6.53,7.11,4.53,4.53,4.53
29.19,-1.50,-6.02,-1.48,-6.00,6.00,6.52,7.20,4.50,4.52,4.51
29.48,-1.50,-6.04,-1.46,-5.98,5.98,6.50,7.29,4.47,4.52,4.53
29.78,-1.51,-6.03,-1.44,-5.96,5.96,6.48,7.36,4.44,4.52,4.52
30.08,-1.49,-6.02,-1.42,-5.94,5.94,6.45,7.42,4.44,4.52,4.53
30.38,-1.44,-5.95,-1.41,-5.93,5.93,6.43,7.47,4.49,4.52,4.52
30.68,-1.36,-5.88,-1.40,-5.92,5.92,6.41,7.51,4.55,4.51,4.51
30.99,-1.30,-5.81,-1.39,-5.90,5.90,6.38,7.54,4.60,4.51,4.51
31.30,-1.29,-5.80,-1.36,-5.87,5.87,6.35,7.55,4.58,4.51,4.51
31.61,-1.30,-5.81,-1.34,-5.84,5.84,6.32,7.56,4.54,4.51,4.51
31.93,-1.30,-5.81,-1.31,-5.81,5.81,6.29,7.55,4.51,4.50,4.50
32.24,-1.30,-5.80,-1.29,-5.79,5.79,6.26,7.53,4.48,4.50,4.49
32.57,-1.31,-5.81,-1.26,-5.76,5.76,6.22,7.50,4.44,4.49,4.50
32.89,-1.32,-5.82,-1.24,-5.73,5.73,6.19,7.45,4.40,4.49,4.49
33.22,-1.27,-5.76,-1.22,-5.70,5.70,6.15,7.40,4.42,4.48,4.48
33.55,-1.19,-5.67,-1.19,-5.67,5.67,6.11,7.34,4.48,4.48,4.48
33.89,-1.12,-5.59,-1.18,-5.65,5.65,6.07,7.27,4.52,4.47,4.47
34.23,-1.10,-5.58,-1.16,-5.62,5.62,6.03,7.20,4.52,4.47,4.47
34.57,-1.11,-5.57,-1.14,-5.60,5.60,5.99,7.11,4.49,4.46,4.46
34.92,-1.13,-5.59,-1.12,-5.58,5.58,5.95,7.03,4.44,4.46,4.46
35.27,-1.11,-5.56,-1.10,-5.55,5.55,5.90,6.93,4.45,4.45,4.45
35.62,-1.06,-5.51,-1.08,-5.53,5.53,5.86,6.83,4.46,4.45,4.45
35.97,-1.02,-5.47,-1.05,-5.50,5.50,5.81,6.73,4.48,4.45,4.44
36.33,-1.02,-5.47,-1.04,-5.48,5.48,5.77,6.63,4.46,4.44,4.45
36.70,-1.02,-5.46,-1.02,-5.47,5.47,5.72,6.53,4.44,4.44,4.43
37.06,-1.02,-5.45,-1.01,-5.46,5.46,5.67,6.42,4.43,4.44,4.43
37.43,-1.02,-5.47,-1.01,-5.45,5.45,5.63,6.32,4.42,4.44,4.45
37.81,-1.02,-5.46,-0.99,-5.43,5.43,5.58,6.21,4.41,4.44,4.44
38.19,-1.00,-5.44,-0.97,-5.41,5.41,5.53,6.11,4.41,4.44,4.44
38.57,-0.95,-5.39,-0.96,-5.39,5.39,5.48,6.01,4.44,4.44,4.44
38.95,-0.91,-5.36,-0.94,-5.38,5.38,5.43,5.91,4.46,4.44,4.44
39.34,-0.91,-5.35,-0.92,-5.36,5.36,5.37,5.81,4.45,4.44,4.44
39.74,-0.91,-5.35,-0.91,-5.35,5.35,5.32,5.71,4.43,4.44,4.43
40.14,-0.91,-5.35,-0.89,-5.33,5.33,5.27,5.62,4.41,4.43,4.44
40.54,-0.88,-5.31,-0.88,-5.31,5.31,5.22,5.53,4.42,4.43,4.43
40.94,-0.84,-5.27,-0.87,-5.29,5.29,5.16,5.44,4.45,4.43,4.42
41.35,-0.83,-5.25,-0.86,-5.28,5.28,5.11,5.36,4.44,4.42,4.42
41.76,-0.82,-5.23,-0.85,-5.26,5.26,5.06,5.28,4.43,4.41,4.41
42.18,-0.82,-5.24,-0.84,-5.24,5.24,5.00,5.20,4.41,4.40,4.41
42.60,-0.82,-5.22,-0.83,-5.22,5.22,4.95,5.13,4.40,4.39,4.39
43.03,-0.82,-5.21,-0.83,-5.20,5.20,4.90,5.06,4.38,4.38,4.39
43.46,-0.82,-5.20,-0.82,-5.18,5.18,4.84,5.00,4.36,4.36,4.38
43.90,-0.82,-5.17,-0.81,-5.16,5.16,4.79,4.93,4.34,4.35,4.35
44.33,-0.82,-5.15,-0.80,-5.13,5.13,4.73,4.88,4.31,4.34,4.33
44.78,-0.82,-5.13,-0.79,-5.11,5.11,4.68,4.82,4.28,4.32,4.31
45.23,-0.80,-5.10,-0.77,-5.08,5.08,4.62,4.77,4.27,4.31,4.30
45.68,-0.75,-5.04,-0.76,-5.05,5.05,4.57,4.73,4.29,4.29,4.28
46.13,-0.72,-4.98,-0.74,-5.02,5.02,4.51,4.68,4.29,4.27,4.26
46.60,-0.73,-4.99,-0.73,-4.98,4.98,4.46,4.64,4.25,4.26,4.26
47.06,-0.73,-4.97,-0.71,-4.95,4.95,4.40,4.61,4.21,4.24,4.24
47.53,-0.68,-4.91,-0.69,-4.91,4.91,4.35,4.57,4.23,4.22,4.23
48.01,-0.63,-4.86,-0.68,-4.89,4.89,4.30,4.54,4.25,4.21,4.22
48.49,-0.63,-4.84,-0.67,-4.86,4.86,4.24,4.52,4.23,4.19,4.20
48.97,-0.63,-4.81,-0.66,-4.84,4.84,4.19,4.49,4.20,4.18,4.18
49.46,-0.63,-4.79,-0.65,-4.81,4.81,4.13,4.47,4.18,4.16,4.15
49.96,-0.63,-4.77,-0.65,-4.79,4.79,4.08,4.46,4.15,4.14,4.13
50.46,-0.63,-4.76,-0.64,-4.76,4.76,4.03,4.44,4.13,4.13,4.13
50.96,-0.63,-4.75,-0.63,-4.74,4.74,3.97,4.43,4.10,4.11,4.11
51.47,-0.63,-4.72,-0.61,-4.71,4.71,3.92,4.42,4.07,4.10,4.09
51.99,-0.63,-4.71,-0.60,-4.68,4.68,3.87,4.41,4.04,4.08,4.07
52.51,-0.63,-4.70,-0.58,-4.65,4.65,3.81,4.40,4.01,4.07,4.06
53.03,-0.63,-4.69,-0.57,-4.62,4.62,3.76,4.39,3.98,4.05,4.06
53.56,-0.57,-4.61,-0.55,-4.59,4.59,3.71,4.38,4.01,4.03,4.04
54.10,-0.52,-4.55,-0.54,-4.56,4.56,3.66,4.38,4.03,4.02,4.02
54.64,-0.47,-4.48,-0.52,-4.53,4.53,3.60,4.37,4.06,4.01,4.00
55.18,-0.44,-4.44,-0.51,-4.50,4.50,3.55,4.37,4.06,3.99,3.99
55.74,-0.44,-4.42,-0.50,-4.47,4.47,3.50,4.36,4.03,3.98,3.97
56.29,-0.44,-4.41,-0.48,-4.44,4.44,3.45,4.35,4.00,3.96,3.96
56.86,-0.44,-4.38,-0.46,-4.40,4.40,3.40,4.34,3.96,3.94,3.94
57.42,-0.44,-4.35,-0.44,-4.36,4.36,3.35,4.33,3.92,3.92,3.91
58.00,-0.44,-4.34,-0.42,-4.32,4.32,3.30,4.32,3.88,3.90,3.89
58.58,-0.44,-4.33,-0.40,-4.28,4.28,3.25,4.30,3.83,3.87,3.88
59.16,-0.44,-4.30,-0.39,-4.23,4.23,3.20,4.29,3.79,3.84,3.86
59.76,-0.44,-4.28,-0.37,-4.18,4.18,3.15,4.26,3.74,3.81,3.83
60.35,-0.40,-4.19,-0.36,-4.14,4.14,3.11,4.24,3.73,3.78,3.79
60.96,-0.34,-4.09,-0.34,-4.08,4.08,3.06,4.21,3.74,3.74,3.75
61.57,-0.28,-3.99,-0.33,-4.02,4.02,3.01,4.18,3.74,3.70,3.70
62.18,-0.24,-3.90,-0.31,-3.96,3.96,2.96,4.15,3.72,3.65,3.65
62.80,-0.24,-3.85,-0.29,-3.90,3.90,2.92,4.11,3.65,3.61,3.60
63.43,-0.24,-3.80,-0.28,-3.84,3.84,2.87,4.07,3.59,3.56,3.55
64.07,-0.24,-3.75,-0.27,-3.78,3.78,2.82,4.02,3.53,3.51,3.50
64.71,-0.24,-3.70,-0.25,-3.71,3.71,2.78,3.97,3.47,3.46,3.45
65.35,-0.24,-3.65,-0.24,-3.65,3.65,2.73,3.91,3.41,3.41,3.41
66.01,-0.24,-3.60,-0.23,-3.59,3.59,2.69,3.86,3.35,3.36,3.35
66.67,-0.24,-3.54,-0.23,-3.53,3.53,2.64,3.80,3.29,3.30,3.30
67.33,-0.24,-3.49,-0.22,-3.47,3.47,2.60,3.73,3.23,3.25,3.24
68.01,-0.24,-3.44,-0.22,-3.42,3.42,2.56,3.67,3.17,3.19,3.20
68.69,-0.24,-3.39,-0.22,-3.36,3.36,2.51,3.60,3.11,3.14,3.14
69.37,-0.24,-3.33,-0.21,-3.29,3.29,2.47,3.52,3.05,3.08,3.08
70.07,-0.23,-3.26,-0.20,-3.23,3.23,2.43,3.45,2.99,3.02,3.02
70.77,-0.16,-3.14,-0.19,-3.16,3.16,2.39,3.37,2.99,2.96,2.97
71.48,-0.14,-3.06,-0.19,-3.09,3.09,2.34,3.29,2.94,2.90,2.91
72.19,-0.15,-2.99,-0.18,-3.02,3.02,2.30,3.21,2.86,2.84,2.84
72.91,-0.15,-2.93,-0.17,-2.94,2.94,2.26,3.13,2.79,2.78,2.78
73.64,-0.15,-2.87,-0.16,-2.88,2.88,2.22,3.05,2.72,2.71,2.71
74.38,-0.15,-2.80,-0.16,-2.81,2.81,2.18,2.97,2.65,2.65,2.65
75.12,-0.15,-2.74,-0.15,-2.74,2.74,2.14,2.89,2.58,2.59,2.58
75.87,-0.15,-2.67,-0.15,-2.67,2.67,2.10,2.81,2.52,2.52,2.51
76.63,-0.15,-2.61,-0.15,-2.61,2.61,2.06,2.72,2.45,2.46,2.46
77.40,-0.15,-2.55,-0.15,-2.55,2.55,2.02,2.64,2.39,2.40,2.40
78.17,-0.15,-2.48,-0.15,-2.49,2.49,1.99,2.56,2.34,2.34,2.33
78.95,-0.15,-2.44,-0.16,-2.44,2.44,1.95,2.48,2.29,2.28,2.29
79.74,-0.15,-2.38,-0.16,-2.39,2.39,1.91,2.40,2.23,2.22,2.22
80.54,-0.15,-2.33,-0.16,-2.33,2.33,1.87,2.32,2.18,2.17,2.17
81.35,-0.15,-2.26,-0.16,-2.27,2.27,1.84,2.24,2.12,2.11,2.11
82.16,-0.15,-2.21,-0.16,-2.21,2.21,1.80,2.16,2.06,2.05,2.05
82.98,-0.15,-2.16,-0.15,-2.15,2.15,1.76,2.09,2.00,2.00,2.01
83.81,-0.15,-2.10,-0.15,-2.09,2.09,1.73,2.01,1.94,1.94,1.94
84.65,-0.15,-2.04,-0.14,-2.03,2.03,1.69,1.94,1.87,1.89,1.88
85.50,-0.15,-1.99,-0.13,-1.96,1.96,1.65,1.86,1.80,1.83,1.84
86.35,-0.16,-1.94,-0.12,-1.89,1.89,1.62,1.79,1.73,1.77,1.78
87.22,-0.15,-1.87,-0.11,-1.82,1.82,1.58,1.72,1.67,1.71,1.72
88.09,-0.06,-1.72,-0.10,-1.75,1.75,1.55,1.65,1.69,1.65,1.66
88.97,-0.05,-1.65,-0.09,-1.68,1.68,1.51,1.58,1.63,1.59,1.59
89.86,-0.05,-1.59,-0.08,-1.61,1.61,1.48,1.51,1.55,1.53,1.53
90.76,-0.05,-1.53,-0.06,-1.54,1.54,1.45,1.45,1.48,1.47,1.47
91.66,-0.04,-1.46,-0.06,-1.47,1.47,1.41,1.38,1.42,1.41,1.42
92.58,-0.04,-1.39,-0.05,-1.40,1.40,1.38,1.32,1.36,1.35,1.34
93.51,-0.04,-1.33,-0.05,-1.34,1.34,1.34,1.25,1.30,1.29,1.29
94.44,-0.04,-1.28,-0.04,-1.28,1.28,1.31,1.19,1.23,1.23,1.23
95.39,-0.04,-1.22,-0.04,-1.22,1.22,1.28,1.13,1.18,1.18,1.18
96.34,-0.05,-1.17,-0.05,-1.17,1.17,1.24,1.07,1.11,1.12,1.11
97.30,-0.05,-1.11,-0.06,-1.12,1.12,1.21,1.01,1.06,1.06,1.06
98.28,-0.06,-1.07,-0.07,-1.08,1.08,1.18,0.96,1.01,1.00,1.00
99.26,-0.08,-1.03,-0.08,-1.03,1.03,1.15,0.90,0.94,0.94,0.94
100.25,-0.10,-0.99,-0.09,-0.98,0.98,1.11,0.84,0.87,0.89,0.89
101.25,-0.12,-0.95,-0.11,-0.94,0.94,1.08,0.79,0.81,0.83,0.83
102.27,-0.13,-0.91,-0.13,-0.90,0.90,1.05,0.73,0.76,0.77,0.77
103.29,-0.14,-0.85,-0.15,-0.86,0.86,1.02,0.68,0.72,0.71,0.70
104.32,-0.16,-0.82,-0.18,-0.83,0.83,0.98,0.63,0.66,0.65,0.66
105.37,-0.18,-0.78,-0.20,-0.79,0.79,0.95,0.58,0.61,0.59,0.60
106.42,-0.21,-0.76,-0.23,-0.76,0.76,0.92,0.53,0.55,0.53,0.54
107.48,-0.23,-0.71,-0.26,-0.73,0.73,0.89,0.48,0.49,0.47,0.47
108.56,-0.26,-0.67,-0.29,-0.70,0.70,0.85,0.44,0.43,0.41,0.41
109.64,-0.28,-0.63,-0.32,-0.66,0.66,0.82,0.39,0.38,0.34,0.35
110.74,-0.32,-0.61,-0.34,-0.62,0.62,0.79,0.35,0.30,0.28,0.28
111.85,-0.42,-0.66,-0.36,-0.58,0.58,0.75,0.30,0.16,0.22,0.23
112.97,-0.44,-0.60,-0.38,-0.54,0.54,0.72,0.26,0.10,0.16,0.16
114.10,-0.42,-0.52,-0.40,-0.50,0.50,0.69,0.22,0.08,0.10,0.10
115.24,-0.43,-0.48,-0.41,-0.46,0.46,0.66,0.18,0.02,0.05,0.04
116.39,-0.42,-0.40,-0.41,-0.41,0.41,0.62,0.14,-0.02,-0.01,-0.02
117.55,-0.42,-0.36,-0.42,-0.36,0.36,0.59,0.10,-0.07,-0.06,-0.07
118.73,-0.42,-0.30,-0.42,-0.31,0.31,0.55,0.07,-0.12,-0.11,-0.12
119.92,-0.41,-0.26,-0.42,-0.26,0.26,0.52,0.04,-0.15,-0.16,-0.16
121.12,-0.40,-0.19,-0.42,-0.21,0.21,0.48,0.00,-0.19,-0.20,-0.21
122.33,-0.39,-0.14,-0.42,-0.17,0.17,0.45,-0.03,-0.23,-0.25,-0.25
123.55,-0.39,-0.11,-0.41,-0.12,0.12,0.41,-0.06,-0.28,-0.29,-0.29
124.79,-0.38,-0.06,-0.40,-0.07,0.07,0.38,-0.09,-0.31,-0.33,-0.33
126.03,-0.36,0.01,-0.40,-0.03,0.03,0.34,-0.11,-0.34,-0.37,-0.37
127.29,-0.37,0.03,-0.40,0.01,-0.01,0.30,-0.14,-0.38,-0.41,-0.40
128.57,-0.42,0.03,-0.41,0.04,-0.04,0.27,-0.16,-0.47,-0.45,-0.45
129.85,-0.45,0.04,-0.41,0.07,-0.07,0.23,-0.19,-0.53,-0.49,-0.49
131.15,-0.44,0.08,-0.42,0.10,-0.10,0.19,-0.21,-0.55,-0.53,-0.53
132.46,-0.44,0.12,-0.43,0.13,-0.13,0.15,-0.23,-0.58,-0.56,-0.57
133.79,-0.44,0.16,-0.45,0.16,-0.16,0.11,-0.25,-0.60,-0.60,-0.60
135.12,-0.43,0.21,-0.46,0.18,-0.18,0.07,-0.27,-0.61,-0.64,-0.65
136.48,-0.43,0.24,-0.47,0.20,-0.20,0.03,-0.28,-0.64,-0.67,-0.67
137.84,-0.43,0.28,-0.48,0.23,-0.23,-0.02,-0.30,-0.66,-0.71,-0.72
139.22,-0.49,0.27,-0.49,0.26,-0.26,-0.06,-0.32,-0.75,-0.75,-0.76
140.61,-0.54,0.26,-0.49,0.29,-0.29,-0.11,-0.33,-0.84,-0.79,-0.80
142.02,-0.53,0.29,-0.50,0.33,-0.33,-0.15,-0.35,-0.87,-0.83,-0.82
143.44,-0.52,0.34,-0.50,0.37,-0.37,-0.20,-0.36,-0.90,-0.87,-0.86
144.87,-0.52,0.39,-0.50,0.41,-0.41,-0.24,-0.37,-0.94,-0.92,-0.91
146.32,-0.52,0.44,-0.51,0.45,-0.45,-0.29,-0.39,-0.98,-0.97,-0.96
147.78,-0.52,0.47,-0.53,0.50,-0.50,-0.34,-0.40,-1.02,-1.03,-1.00
149.26,-0.52,0.53,-0.54,0.54,-0.54,-0.39,-0.41,-1.07,-1.09,-1.06
150.75,-0.52,0.61,-0.56,0.59,-0.59,-0.44,-0.43,-1.12,-1.15,-1.13
152.26,-0.51,0.69,-0.57,0.65,-0.65,-0.50,-0.44,-1.16,-1.22,-1.20
153.78,-0.52,0.75,-0.59,0.71,-0.71,-0.55,-0.45,-1.23,-1.30,-1.28
155.32,-0.58,0.78,-0.60,0.77,-0.77,-0.60,-0.47,-1.36,-1.37,-1.36
156.88,-0.61,0.83,-0.62,0.83,-0.83,-0.66,-0.48,-1.45,-1.45,-1.44
158.44,-0.66,0.87,-0.64,0.89,-0.89,-0.71,-0.49,-1.55,-1.53,-1.53
160.03,-0.73,0.89,-0.66,0.95,-0.95,-0.77,-0.51,-1.68,-1.60,-1.62
161.63,-0.72,0.98,-0.67,1.00,-1.00,-0.82,-0.52,-1.73,-1.68,-1.70
163.24,-0.71,1.05,-0.69,1.05,-1.05,-0.88,-0.54,-1.77,-1.75,-1.77
164.88,-0.72,1.10,-0.71,1.10,-1.10,-0.93,-0.55,-1.82,-1.81,-1.83
166.53,-0.72,1.16,-0.72,1.14,-1.14,-0.99,-0.57,-1.86,-1.86,-1.88
168.19,-0.73,1.19,-0.74,1.17,-1.17,-1.05,-0.58,-1.91,-1.91,-1.93
169.87,-0.73,1.23,-0.75,1.19,-1.19,-1.10,-0.60,-1.93,-1.95,-1.97
171.57,-0.74,1.25,-0.77,1.21,-1.21,-1.15,-0.62,-1.96,-1.98,-1.99
173.29,-0.75,1.26,-0.78,1.23,-1.23,-1.21,-0.63,-1.98,-2.00,-2.01
175.02,-0.74,1.28,-0.79,1.23,-1.23,-1.26,-0.65,-1.98,-2.02,-2.03
176.77,-0.74,1.30,-0.80,1.24,-1.24,-1.30,-0.67,-1.98,-2.04,-2.05
178.54,-0.82,1.23,-0.81,1.24,-1.24,-1.35,-0.69,-2.06,-2.05,-2.06
180.32,-0.85,1.20,-0.82,1.24,-1.24,-1.39,-0.71,-2.09,-2.06,-2.05
182.13,-0.84,1.21,-0.84,1.24,-1.24,-1.43,-0.73,-2.08,-2.07,-2.05
183.95,-0.83,1.23,-0.85,1.24,-1.24,-1.46,-0.75,-2.07,-2.09,-2.07
185.79,-0.92,1.15,-0.86,1.24,-1.24,-1.50,-0.78,-2.16,-2.10,-2.07
187.65,-0.92,1.18,-0.87,1.24,-1.24,-1.52,-0.80,-2.17,-2.11,-2.10
189.52,-0.90,1.21,-0.88,1.25,-1.25,-1.54,-0.82,-2.15,-2.13,-2.11
191.42,-0.88,1.25,-0.88,1.26,-1.26,-1.56,-0.85,-2.15,-2.14,-2.14
193.33,-0.86,1.30,-0.88,1.28,-1.28,-1.57,-0.87,-2.15,-2.16,-2.16
195.27,-0.83,1.35,-0.88,1.30,-1.30,-1.58,-0.90,-2.13,-2.18,-2.18
197.22,-0.83,1.37,-0.89,1.32,-1.32,-1.58,-0.92,-2.15,-2.21,-2.21
199.19,-0.88,1.35,-0.89,1.34,-1.34,-1.58,-0.95,-2.23,-2.23,-2.24
201.18,-0.91,1.34,-0.89,1.36,-1.36,-1.58,-0.97,-2.28,-2.25,-2.26
203.19,-0.90,1.37,-0.90,1.38,-1.38,-1.56,-1.00,-2.29,-2.28,-2.28
205.23,-0.90,1.40,-0.90,1.40,-1.40,-1.55,-1.02,-2.30,-2.30,-2.31
207.28,-0.90,1.41,-0.91,1.41,-1.41,-1.53,-1.05,-2.32,-2.33,-2.31
209.35,-0.90,1.44,-0.93,1.42,-1.42,-1.50,-1.07,-2.32,-2.35,-2.34
211.44,-0.91,1.46,-0.95,1.42,-1.42,-1.48,-1.10,-2.33,-2.37,-2.38
213.56,-0.97,1.41,-0.98,1.41,-1.41,-1.45,-1.12,-2.39,-2.39,-2.39
215.69,-1.02,1.38,-1.00,1.41,-1.41,-1.42,-1.14,-2.43,-2.40,-2.40
217.85,-1.03,1.38,-1.01,1.41,-1.41,-1.38,-1.17,-2.44,-2.42,-2.42
220.03,-1.01,1.42,-1.03,1.40,-1.40,-1.35,-1.19,-2.41,-2.43,-2.43
222.23,-1.01,1.44,-1.05,1.39,-1.39,-1.31,-1.21,-2.41,-2.44,-2.46
224.45,-1.08,1.37,-1.06,1.39,-1.39,-1.27,-1.23,-2.47,-2.45,-2.45
226.70,-1.12,1.33,-1.07,1.37,-1.37,-1.23,-1.25,-2.50,-2.45,-2.45
228.96,-1.11,1.33,-1.09,1.36,-1.36,-1.19,-1.26,-2.47,-2.45,-2.45
231.25,-1.11,1.33,-1.10,1.34,-1.34,-1.15,-1.28,-2.46,-2.44,-2.44
233.57,-1.10,1.33,-1.11,1.33,-1.33,-1.11,-1.29,-2.43,-2.43,-2.43
235.90,-1.08,1.34,-1.11,1.31,-1.31,-1.08,-1.30,-2.39,-2.42,-2.42
238.26,-1.07,1.34,-1.11,1.29,-1.29,-1.04,-1.31,-2.37,-2.41,-2.42
240.64,-1.12,1.27,-1.12,1.27,-1.27,-1.00,-1.32,-2.40,-2.39,-2.40
243.05,-1.14,1.22,-1.12,1.25,-1.25,-0.96,-1.32,-2.40,-2.37,-2.37
245.48,-1.10,1.24,-1.12,1.23,-1.23,-0.93,-1.32,-2.34,-2.35,-2.35
247.93,-1.06,1.25,-1.11,1.22,-1.22,-0.89,-1.32,-2.28,-2.33,-2.32
250.41,-1.14,1.16,-1.11,1.20,-1.20,-0.86,-1.32,-2.35,-2.31,-2.31
252.92,-1.15,1.12,-1.11,1.18,-1.18,-0.82,-1.31,-2.33,-2.29,-2.28
255.45,-1.13,1.12,-1.12,1.14,-1.14,-0.79,-1.30,-2.28,-2.26,-2.25
258.00,-1.13,1.10,-1.13,1.11,-1.11,-0.76,-1.29,-2.24,-2.24,-2.23
260.58,-1.12,1.10,-1.15,1.07,-1.07,-0.73,-1.28,-2.19,-2.22,-2.22
263.19,-1.12,1.06,-1.17,1.03,-1.03,-0.70,-1.26,-2.15,-2.19,-2.19
265.82,-1.12,1.05,-1.18,0.99,-0.99,-0.67,-1.24,-2.11,-2.17,-2.18
268.48,-1.12,1.03,-1.19,0.95,-0.95,-0.65,-1.22,-2.08,-2.15,-2.15
271.16,-1.18,0.94,-1.21,0.91,-0.91,-0.62,-1.20,-2.10,-2.12,-2.12
273.87,-1.23,0.87,-1.23,0.87,-0.87,-0.60,-1.18,-2.11,-2.10,-2.11
276.61,-1.32,0.75,-1.24,0.83,-0.83,-0.57,-1.15,-2.16,-2.08,-2.07
279.38,-1.33,0.72,-1.26,0.79,-0.79,-0.55,-1.12,-2.13,-2.05,-2.05
282.17,-1.32,0.70,-1.28,0.75,-0.75,-0.53,-1.09,-2.07,-2.02,-2.03
284.99,-1.32,0.67,-1.30,0.70,-0.70,-0.51,-1.06,-2.03,-2.00,-1.99
287.84,-1.31,0.66,-1.32,0.65,-0.65,-0.49,-1.03,-1.97,-1.97,-1.98
290.72,-1.30,0.64,-1.33,0.61,-0.61,-0.47,-0.99,-1.91,-1.94,-1.94
293.63,-1.29,0.62,-1.35,0.57,-0.57,-0.45,-0.96,-1.86,-1.91,-1.92
296.57,-1.31,0.57,-1.35,0.53,-0.53,-0.44,-0.92,-1.85,-1.89,-1.88
299.53,-1.35,0.50,-1.36,0.50,-0.50,-0.42,-0.89,-1.85,-1.86,-1.86
302.53,-1.34,0.50,-1.37,0.47,-0.47,-0.40,-0.85,-1.81,-1.83,-1.84
305.55,-1.38,0.41,-1.37,0.44,-0.44,-0.39,-0.81,-1.82,-1.81,-1.80
308.61,-1.42,0.36,-1.38,0.40,-0.40,-0.37,-0.77,-1.83,-1.79,-1.78
311.69,-1.42,0.33,-1.40,0.37,-0.37,-0.36,-0.74,-1.79,-1.76,-1.76
314.81,-1.41,0.32,-1.41,0.33,-0.33,-0.35,-0.70,-1.74,-1.74,-1.73
317.96,-1.41,0.30,-1.42,0.30,-0.30,-0.34,-0.66,-1.71,-1.72,-1.71
321.14,-1.41,0.29,-1.44,0.27,-0.27,-0.32,-0.62,-1.68,-1.70,-1.71
324.35,-1.41,0.28,-1.45,0.24,-0.24,-0.31,-0.58,-1.65,-1.69,-1.69
327.59,-1.45,0.22,-1.46,0.21,-0.21,-0.30,-0.55,-1.67,-1.67,-1.67
330.87,-1.50,0.16,-1.47,0.19,-0.19,-0.29,-0.51,-1.69,-1.66,-1.67
334.18,-1.51,0.14,-1.48,0.17,-0.17,-0.28,-0.47,-1.68,-1.65,-1.65
337.52,-1.51,0.13,-1.50,0.14,-0.14,-0.27,-0.43,-1.65,-1.64,-1.64
340.90,-1.51,0.11,-1.52,0.12,-0.12,-0.26,-0.39,-1.63,-1.63,-1.63
344.30,-1.52,0.10,-1.53,0.10,-0.10,-0.26,-0.35,-1.62,-1.63,-1.62
347.75,-1.51,0.11,-1.55,0.07,-0.07,-0.25,-0.32,-1.59,-1.62,-1.62
351.23,-1.51,0.10,-1.57,0.05,-0.05,-0.24,-0.28,-1.56,-1.62,-1.62
354.74,-1.58,0.03,-1.59,0.03,-0.03,-0.23,-0.24,-1.61,-1.61,-1.62
358.28,-1.60,0.01,-1.61,0.01,-0.01,-0.23,-0.21,-1.61,-1.61,-1.61
361.87,-1.62,-0.01,-1.62,-0.01,0.01,-0.22,-0.17,-1.61,-1.61,-1.61
365.49,-1.68,-0.08,-1.64,-0.03,0.03,-0.21,-0.13,-1.66,-1.61,-1.60
369.14,-1.68,-0.07,-1.66,-0.04,0.04,-0.21,-0.10,-1.64,-1.61,-1.62
372.83,-1.67,-0.06,-1.67,-0.06,0.06,-0.20,-0.06,-1.62,-1.61,-1.62
376.56,-1.66,-0.04,-1.69,-0.07,0.07,-0.20,-0.02,-1.59,-1.62,-1.62
380.33,-1.68,-0.07,-1.70,-0.08,0.08,-0.19,0.01,-1.60,-1.62,-1.61
384.13,-1.73,-0.12,-1.71,-0.09,0.09,-0.19,0.05,-1.65,-1.62,-1.61
387.97,-1.74,-0.12,-1.72,-0.10,0.10,-0.18,0.08,-1.65,-1.63,-1.63
391.85,-1.74,-0.11,-1.73,-0.10,0.10,-0.18,0.12,-1.64,-1.63,-1.64
395.77,-1.74,-0.12,-1.74,-0.10,0.10,-0.17,0.15,-1.64,-1.64,-1.63
399.73,-1.74,-0.10,-1.75,-0.11,0.11,-0.17,0.18,-1.64,-1.65,-1.64
403.72,-1.74,-0.10,-1.76,-0.11,0.11,-0.16,0.22,-1.63,-1.65,-1.64
407.76,-1.74,-0.09,-1.78,-0.12,0.12,-0.16,0.25,-1.62,-1.66,-1.65
411.84,-1.75,-0.10,-1.79,-0.13,0.13,-0.16,0.28,-1.62,-1.66,-1.66
415.96,-1.75,-0.10,-1.81,-0.15,0.15,-0.15,0.31,-1.61,-1.66,-1.66
420.12,-1.80,-0.15,-1.82,-0.16,0.16,-0.15,0.34,-1.65,-1.66,-1.66
424.32,-1.84,-0.19,-1.82,-0.17,0.17,-0.15,0.37,-1.68,-1.65,-1.66
428.56,-1.83,-0.18,-1.82,-0.17,0.17,-0.15,0.40,-1.66,-1.64,-1.65
432.85,-1.82,-0.18,-1.81,-0.18,0.18,-0.14,0.43,-1.65,-1.63,-1.64
437.18,-1.83,-0.20,-1.79,-0.19,0.19,-0.14,0.46,-1.65,-1.61,-1.63
441.55,-1.84,-0.25,-1.77,-0.19,0.19,-0.14,0.48,-1.65,-1.58,-1.59
445.96,-1.80,-0.24,-1.75,-0.20,0.20,-0.14,0.51,-1.60,-1.55,-1.56
450.42,-1.75,-0.22,-1.72,-0.21,0.21,-0.14,0.53,-1.55,-1.52,-1.54
454.93,-1.69,-0.21,-1.68,-0.21,0.21,-0.13,0.55,-1.48,-1.47,-1.49
459.48,-1.63,-0.20,-1.64,-0.21,0.21,-0.13,0.57,-1.42,-1.43,-1.44
464.07,-1.57,-0.19,-1.60,-0.21,0.21,-0.13,0.59,-1.36,-1.38,-1.39
468.71,-1.52,-0.20,-1.55,-0.22,0.22,-0.13,0.60,-1.31,-1.34,-1.33
473.40,-1.45,-0.16,-1.51,-0.22,0.22,-0.13,0.61,-1.23,-1.29,-1.29
