frequency,raw,error,smoothed,error_smoothed,equalization,parametric_eq,fixed_band_eq,equalized_raw,equalized_smoothed,target
20.00,-2.46,-5.56,-2.47,-5.56,5.52,4.99,2.27,3.06,3.05,3.09
20.20,-2.42,-5.57,-2.42,-5.57,5.55,5.02,2.34,3.13,3.13,3.14
20.40,-2.38,-5.58,-2.38,-5.57,5.58,5.06,2.40,3.19,3.20,3.19
20.61,-2.35,-5.57,-2.34,-5.58,5.60,5.09,2.47,3.25,3.26,3.22
20.81,-2.31,-5.59,-2.31,-5.58,5.62,5.12,2.54,3.30,3.31,3.27
21.02,-2.27,-5.59,-2.28,-5.59,5.63,5.15,2.61,3.35,3.34,3.31
21.23,-2.27,-5.61,-2.27,-5.61,5.64,5.18,2.69,3.36,3.36,3.33
21.44,-2.27,-5.63,-2.28,-5.63,5.64,5.21,2.77,3.36,3.36,3.35
21.66,-2.28,-5.66,-2.28,-5.66,5.65,5.24,2.85,3.36,3.36,3.37
21.87,-2.28,-5.67,-2.28,-5.67,5.65,5.27,2.93,3.36,3.37,3.38
22.09,-2.26,-5.67,-2.26,-5.66,5.64,5.29,3.01,3.37,3.38,3.40
22.31,-2.22,-5.64,-2.22,-5.64,5.62,5.31,3.10,3.39,3.39,3.41
22.54,-2.18,-5.59,-2.18,-5.60,5.58,5.34,3.18,3.41,3.40,3.41
22.76,-2.13,-5.55,-2.13,-5.54,5.54,5.36,3.28,3.41,3.41,3.41
22.99,-2.08,-5.49,-2.08,-5.49,5.49,5.38,3.37,3.41,3.41,3.40
23.22,-2.03,-5.44,-2.04,-5.44,5.44,5.39,3.46,3.41,3.41,3.40
23.45,-1.98,-5.39,-1.98,-5.39,5.40,5.41,3.56,3.42,3.42,3.40
23.69,-1.94,-5.35,-1.93,-5.34,5.37,5.42,3.66,3.43,3.44,3.41
23.92,-1.88,-5.30,-1.90,-5.31,5.34,5.43,3.76,3.46,3.45,3.41
24.16,-1.87,-5.29,-1.88,-5.30,5.32,5.45,3.86,3.45,3.45,3.41
24.40,-1.88,-5.31,-1.88,-5.30,5.31,5.45,3.96,3.42,3.42,3.42
24.65,-1.89,-5.31,-1.90,-5.31,5.29,5.46,4.07,3.39,3.39,3.41
24.89,-1.90,-5.32,-1.89,-5.31,5.26,5.47,4.17,3.36,3.37,3.41
25.14,-1.87,-5.29,-1.87,-5.28,5.24,5.47,4.28,3.37,3.37,3.41
25.39,-1.81,-5.24,-1.82,-5.24,5.22,5.47,4.38,3.41,3.40,3.42
25.65,-1.75,-5.18,-1.75,-5.17,5.20,5.47,4.49,3.44,3.44,3.42
25.91,-1.70,-5.11,-1.71,-5.12,5.17,5.47,4.60,3.47,3.46,3.41
26.16,-1.67,-5.09,-1.68,-5.10,5.14,5.47,4.71,3.47,3.46,3.41
26.43,-1.68,-5.10,-1.68,-5.09,5.11,5.46,4.81,3.42,3.43,3.41
26.69,-1.68,-5.10,-1.69,-5.10,5.07,5.46,4.92,3.39,3.39,3.41
26.96,-1.69,-5.11,-1.68,-5.09,5.04,5.45,5.02,3.35,3.37,3.41
27.23,-1.65,-5.06,-1.64,-5.06,5.02,5.44,5.12,3.37,3.37,3.41
27.50,-1.58,-5.00,-1.59,-5.00,4.99,5.43,5.22,3.40,3.40,3.41
27.77,-1.53,-4.94,-1.53,-4.94,4.96,5.41,5.31,3.43,3.43,3.40
28.05,-1.48,-4.89,-1.50,-4.90,4.94,5.40,5.40,3.46,3.44,3.40
28.33,-1.49,-4.89,-1.49,-4.89,4.92,5.38,5.49,3.43,3.43,3.39
28.62,-1.49,-4.89,-1.49,-4.89,4.91,5.36,5.57,3.42,3.42,3.39
28.90,-1.50,-4.91,-1.50,-4.90,4.90,5.34,5.65,3.40,3.40,3.40
29.19,-1.50,-4.90,-1.51,-4.91,4.89,5.32,5.71,3.39,3.39,3.39
29.48,-1.50,-4.91,-1.51,-4.91,4.88,5.30,5.77,3.38,3.37,3.40
29.78,-1.51,-4.91,-1.51,-4.91,4.87,5.27,5.83,3.35,3.36,3.39
30.08,-1.49,-4.90,-1.48,-4.88,4.84,5.25,5.87,3.35,3.36,3.40
30.38,-1.44,-4.83,-1.43,-4.83,4.81,5.22,5.91,3.38,3.38,3.39
30.68,-1.36,-4.76,-1.37,-4.76,4.78,5.19,5.94,3.42,3.41,3.39
30.99,-1.30,-4.69,-1.32,-4.71,4.75,5.16,5.96,3.46,3.44,3.39
31.30,-1.29,-4.68,-1.29,-4.68,4.73,5.13,5.97,3.43,3.43,3.38
31.61,-1.30,-4.69,-1.29,-4.68,4.71,5.10,5.97,3.40,3.41,3.38
31.93,-1.30,-4.69,-1.30,-4.68,4.69,5.06,5.97,3.38,3.39,3.38
32.24,-1.30,-4.68,-1.31,-4.69,4.67,5.03,5.95,3.36,3.35,3.37
32.57,-1.31,-4.69,-1.32,-4.69,4.65,4.99,5.93,3.33,3.33,3.37
32.89,-1.32,-4.70,-1.31,-4.68,4.63,4.95,5.90,3.30,3.32,3.37
33.22,-1.27,-4.64,-1.26,-4.63,4.60,4.92,5.86,3.33,3.34,3.36
33.55,-1.19,-4.56,-1.20,-4.56,4.58,4.88,5.81,3.38,3.38,3.36
33.89,-1.12,-4.48,-1.14,-4.49,4.54,4.84,5.76,3.42,3.40,3.35
34.23,-1.10,-4.46,-1.11,-4.47,4.50,4.80,5.70,3.40,3.39,3.35
34.57,-1.11,-4.46,-1.11,-4.46,4.47,4.76,5.64,3.35,3.35,3.34
34.92,-1.13,-4.48,-1.12,-4.46,4.43,4.71,5.57,3.30,3.32,3.34
35.27,-1.11,-4.44,-1.10,-4.44,4.41,4.67,5.49,3.31,3.31,3.33
35.62,-1.06,-4.40,-1.07,-4.40,4.40,4.63,5.42,3.33,3.33,3.33
35.97,-1.02,-4.36,-1.04,-4.37,4.39,4.58,5.34,3.36,3.35,3.33
36.33,-1.02,-4.36,-1.02,-4.35,4.38,4.54,5.26,3.35,3.36,3.33
36.70,-1.02,-4.35,-1.02,-4.35,4.37,4.49,5.18,3.34,3.34,3.32
37.06,-1.02,-4.35,-1.03,-4.36,4.35,4.45,5.09,3.33,3.32,3.32
37.43,-1.02,-4.36,-1.03,-4.36,4.34,4.40,5.01,3.31,3.31,3.33
37.81,-1.02,-4.36,-1.02,-4.35,4.32,4.35,4.93,3.30,3.30,3.33
38.19,-1.00,-4.33,-0.99,-4.33,4.31,4.31,4.84,3.31,3.32,3.32
38.57,-0.95,-4.29,-0.96,-4.29,4.30,4.26,4.76,3.35,3.34,3.33
38.95,-0.91,-4.26,-0.93,-4.26,4.29,4.21,4.68,3.37,3.36,3.34
39.34,-0.91,-4.25,-0.91,-4.25,4.26,4.16,4.59,3.35,3.35,3.33
39.74,-0.91,-4.25,-0.91,-4.25,4.24,4.12,4.52,3.33,3.33,3.33
40.14,-0.91,-4.25,-0.90,-4.24,4.22,4.07,4.44,3.31,3.32,3.33
40.54,-0.88,-4.22,-0.88,-4.21,4.20,4.02,4.36,3.32,3.32,3.33
40.94,-0.84,-4.17,-0.86,-4.18,4.18,3.97,4.29,3.34,3.33,3.32
41.35,-0.83,-4.16,-0.83,-4.16,4.17,3.92,4.22,3.34,3.34,3.32
41.76,-0.82,-4.14,-0.82,-4.14,4.16,3.87,4.15,3.33,3.33,3.31
42.18,-0.82,-4.14,-0.82,-4.14,4.14,3.82,4.08,3.32,3.32,3.31
42.60,-0.82,-4.13,-0.82,-4.13,4.13,3.77,4.02,3.30,3.31,3.30
43.03,-0.82,-4.12,-0.82,-4.12,4.11,3.73,3.96,3.29,3.29,3.29
43.46,-0.82,-4.11,-0.82,-4.11,4.10,3.68,3.90,3.28,3.28,3.28
43.90,-0.82,-4.09,-0.83,-4.09,4.08,3.63,3.85,3.26,3.26,3.26
44.33,-0.82,-4.07,-0.83,-4.07,4.06,3.58,3.80,3.24,3.23,3.24
44.78,-0.82,-4.05,-0.82,-4.05,4.04,3.53,3.75,3.21,3.22,3.22
45.23,-0.80,-4.02,-0.79,-4.00,4.01,3.48,3.70,3.20,3.22,3.21
45.68,-0.75,-3.96,-0.76,-3.96,3.98,3.44,3.66,3.22,3.21,3.20
46.13,-0.72,-3.91,-0.74,-3.93,3.94,3.39,3.62,3.22,3.20,3.18
46.60,-0.73,-3.92,-0.73,-3.91,3.90,3.34,3.58,3.17,3.17,3.18
47.06,-0.73,-3.90,-0.71,-3.88,3.87,3.29,3.55,3.13,3.16,3.16
47.53,-0.68,-3.84,-0.69,-3.84,3.84,3.24,3.51,3.15,3.15,3.15
48.01,-0.63,-3.79,-0.65,-3.80,3.81,3.20,3.48,3.17,3.15,3.15
48.49,-0.63,-3.77,-0.63,-3.77,3.78,3.15,3.46,3.14,3.15,3.13
48.97,-0.63,-3.75,-0.63,-3.74,3.75,3.10,3.43,3.12,3.12,3.11
49.46,-0.63,-3.73,-0.63,-3.73,3.73,3.06,3.41,3.10,3.10,3.09
49.96,-0.63,-3.71,-0.63,-3.71,3.72,3.01,3.39,3.08,3.08,3.07
50.46,-0.63,-3.70,-0.63,-3.70,3.70,2.97,3.37,3.07,3.07,3.06
50.96,-0.63,-3.69,-0.63,-3.68,3.69,2.92,3.35,3.06,3.06,3.05
51.47,-0.63,-3.67,-0.63,-3.67,3.68,2.88,3.34,3.04,3.04,3.03
51.99,-0.63,-3.66,-0.64,-3.67,3.65,2.83,3.32,3.02,3.01,3.02
52.51,-0.63,-3.65,-0.64,-3.65,3.63,2.79,3.31,2.99,2.99,3.01
53.03,-0.63,-3.65,-0.62,-3.63,3.59,2.74,3.30,2.96,2.97,3.01
53.56,-0.57,-3.57,-0.58,-3.57,3.55,2.70,3.28,2.98,2.98,2.99
54.10,-0.52,-3.51,-0.53,-3.51,3.52,2.66,3.27,2.99,2.99,2.98
54.64,-0.47,-3.44,-0.48,-3.45,3.48,2.61,3.26,3.00,3.00,2.96
55.18,-0.44,-3.41,-0.45,-3.41,3.44,2.57,3.25,2.99,2.99,2.96
55.74,-0.44,-3.39,-0.44,-3.39,3.41,2.53,3.24,2.96,2.96,2.94
56.29,-0.44,-3.38,-0.44,-3.38,3.38,2.49,3.22,2.94,2.94,2.93
56.86,-0.44,-3.37,-0.44,-3.36,3.36,2.44,3.21,2.92,2.92,2.92
57.42,-0.44,-3.34,-0.44,-3.35,3.35,2.40,3.20,2.91,2.91,2.89
58.00,-0.44,-3.33,-0.44,-3.33,3.34,2.36,3.18,2.89,2.89,2.88
58.58,-0.44,-3.32,-0.45,-3.32,3.31,2.32,3.16,2.87,2.86,2.87
59.16,-0.44,-3.30,-0.45,-3.30,3.27,2.28,3.14,2.83,2.82,2.85
59.76,-0.44,-3.28,-0.43,-3.26,3.22,2.24,3.12,2.78,2.79,2.83
60.35,-0.40,-3.20,-0.40,-3.19,3.16,2.20,3.10,2.76,2.76,2.79
60.96,-0.34,-3.10,-0.34,-3.10,3.10,2.17,3.07,2.75,2.75,2.75
61.57,-0.28,-3.00,-0.29,-3.00,3.03,2.13,3.04,2.75,2.74,2.71
62.18,-0.24,-2.92,-0.26,-2.93,2.96,2.09,3.01,2.72,2.71,2.67
62.80,-0.24,-2.87,-0.24,-2.87,2.90,2.05,2.98,2.65,2.65,2.62
63.43,-0.24,-2.83,-0.24,-2.82,2.83,2.01,2.94,2.59,2.59,2.58
64.07,-0.24,-2.78,-0.24,-2.78,2.78,1.98,2.90,2.53,2.53,2.53
64.71,-0.24,-2.74,-0.24,-2.74,2.73,1.94,2.86,2.48,2.48,2.49
65.35,-0.24,-2.70,-0.24,-2.69,2.69,1.91,2.82,2.44,2.44,2.45
66.01,-0.24,-2.65,-0.24,-2.65,2.65,1.87,2.77,2.40,2.40,2.40
66.67,-0.24,-2.60,-0.24,-2.60,2.61,1.83,2.72,2.36,2.36,2.35
67.33,-0.24,-2.55,-0.24,-2.55,2.56,1.80,2.67,2.31,2.31,2.30
68.01,-0.24,-2.51,-0.25,-2.51,2.50,1.76,2.61,2.26,2.26,2.26
68.69,-0.24,-2.46,-0.25,-2.46,2.44,1.73,2.56,2.20,2.19,2.21
69.37,-0.24,-2.41,-0.24,-2.40,2.38,1.70,2.50,2.14,2.14,2.16
70.07,-0.23,-2.35,-0.21,-2.33,2.32,1.66,2.44,2.08,2.10,2.11
70.77,-0.16,-2.23,-0.18,-2.25,2.25,1.63,2.38,2.09,2.07,2.06
71.48,-0.14,-2.16,-0.16,-2.16,2.18,1.60,2.32,2.04,2.03,2.01
72.19,-0.15,-2.10,-0.15,-2.09,2.11,1.56,2.26,1.96,1.97,1.94
72.91,-0.15,-2.04,-0.15,-2.04,2.05,1.53,2.19,1.89,1.89,1.88
73.64,-0.15,-1.99,-0.16,-1.98,1.98,1.50,2.13,1.83,1.83,1.83
74.38,-0.15,-1.93,-0.15,-1.93,1.92,1.47,2.06,1.77,1.77,1.77
75.12,-0.15,-1.87,-0.15,-1.87,1.86,1.44,2.00,1.71,1.71,1.71
75.87,-0.15,-1.81,-0.15,-1.81,1.81,1.41,1.93,1.66,1.66,1.65
76.63,-0.15,-1.76,-0.15,-1.76,1.76,1.38,1.87,1.60,1.60,1.60
77.40,-0.15,-1.71,-0.15,-1.70,1.71,1.35,1.80,1.55,1.55,1.55
78.17,-0.15,-1.65,-0.15,-1.65,1.66,1.32,1.73,1.50,1.50,1.49
78.95,-0.15,-1.61,-0.15,-1.61,1.60,1.29,1.67,1.45,1.45,1.45
79.74,-0.15,-1.56,-0.15,-1.56,1.55,1.26,1.61,1.40,1.40,1.40
80.54,-0.15,-1.51,-0.15,-1.51,1.51,1.23,1.54,1.35,1.35,1.35
81.35,-0.15,-1.46,-0.15,-1.46,1.46,1.20,1.48,1.31,1.31,1.30
82.16,-0.15,-1.41,-0.15,-1.41,1.42,1.17,1.41,1.26,1.26,1.25
82.98,-0.15,-1.37,-0.15,-1.36,1.37,1.14,1.35,1.22,1.22,1.21
83.81,-0.15,-1.32,-0.15,-1.32,1.33,1.11,1.29,1.17,1.17,1.16
84.65,-0.15,-1.27,-0.16,-1.27,1.27,1.08,1.23,1.12,1.11,1.11
85.50,-0.15,-1.23,-0.17,-1.24,1.21,1.06,1.17,1.06,1.05,1.07
86.35,-0.16,-1.19,-0.15,-1.18,1.15,1.03,1.11,0.99,1.00,1.02
87.22,-0.15,-1.13,-0.13,-1.10,1.09,1.00,1.05,0.93,0.96,0.97
88.09,-0.06,-0.99,-0.09,-1.01,1.02,0.97,0.99,0.95,0.93,0.92
88.97,-0.05,-0.92,-0.06,-0.93,0.95,0.95,0.93,0.90,0.89,0.86
89.86,-0.05,-0.87,-0.05,-0.86,0.88,0.92,0.88,0.83,0.84,0.81
90.76,-0.05,-0.82,-0.05,-0.81,0.82,0.89,0.82,0.76,0.77,0.76
91.66,-0.04,-0.76,-0.05,-0.76,0.76,0.87,0.76,0.71,0.71,0.71
92.58,-0.04,-0.70,-0.05,-0.70,0.70,0.84,0.71,0.65,0.65,0.65
93.51,-0.04,-0.65,-0.04,-0.65,0.65,0.81,0.65,0.60,0.60,0.60
94.44,-0.04,-0.61,-0.05,-0.60,0.60,0.79,0.60,0.56,0.56,0.56
95.39,-0.04,-0.56,-0.05,-0.56,0.56,0.76,0.55,0.51,0.51,0.51
96.34,-0.05,-0.52,-0.05,-0.51,0.52,0.73,0.50,0.46,0.47,0.46
97.30,-0.05,-0.47,-0.06,-0.47,0.48,0.71,0.44,0.42,0.42,0.41
98.28,-0.06,-0.43,-0.07,-0.44,0.44,0.68,0.39,0.38,0.37,0.36
99.26,-0.08,-0.41,-0.08,-0.40,0.40,0.65,0.34,0.32,0.32,0.32
100.25,-0.10,-0.38,-0.10,-0.38,0.37,0.63,0.29,0.27,0.27,0.27
101.25,-0.12,-0.35,-0.12,-0.34,0.34,0.60,0.24,0.21,0.22,0.22
102.27,-0.13,-0.31,-0.13,-0.31,0.31,0.57,0.20,0.17,0.17,0.17
103.29,-0.14,-0.27,-0.15,-0.27,0.28,0.55,0.15,0.13,0.13,0.12
104.32,-0.16,-0.25,-0.16,-0.25,0.24,0.52,0.10,0.08,0.08,0.08
105.37,-0.18,-0.22,-0.19,-0.22,0.22,0.49,0.06,0.03,0.03,0.03
106.42,-0.21,-0.20,-0.21,-0.19,0.19,0.47,0.01,-0.02,-0.02,-0.02
107.48,-0.23,-0.16,-0.24,-0.16,0.17,0.44,-0.03,-0.06,-0.06,-0.08
108.56,-0.26,-0.14,-0.26,-0.13,0.15,0.41,-0.07,-0.11,-0.10,-0.13
109.64,-0.28,-0.11,-0.29,-0.12,0.14,0.39,-0.12,-0.15,-0.16,-0.18
110.74,-0.32,-0.09,-0.35,-0.12,0.12,0.36,-0.16,-0.21,-0.23,-0.24
111.85,-0.42,-0.15,-0.40,-0.11,0.09,0.33,-0.20,-0.33,-0.30,-0.28
112.97,-0.44,-0.11,-0.43,-0.10,0.06,0.30,-0.23,-0.38,-0.37,-0.34
114.10,-0.42,-0.04,-0.44,-0.06,0.03,0.27,-0.27,-0.39,-0.41,-0.39
115.24,-0.43,0.00,-0.43,0.01,-0.00,0.24,-0.31,-0.44,-0.43,-0.44
116.39,-0.42,0.06,-0.43,0.06,-0.04,0.21,-0.34,-0.47,-0.47,-0.49
117.55,-0.42,0.10,-0.43,0.10,-0.09,0.19,-0.37,-0.51,-0.51,-0.53
118.73,-0.42,0.14,-0.42,0.14,-0.14,0.16,-0.40,-0.56,-0.56,-0.57
119.92,-0.41,0.18,-0.41,0.19,-0.19,0.12,-0.43,-0.60,-0.60,-0.60
121.12,-0.40,0.23,-0.41,0.23,-0.23,0.09,-0.46,-0.64,-0.64,-0.64
122.33,-0.39,0.27,-0.40,0.27,-0.27,0.06,-0.49,-0.67,-0.67,-0.67
123.55,-0.39,0.30,-0.39,0.31,-0.30,0.03,-0.51,-0.70,-0.69,-0.70
124.79,-0.38,0.34,-0.38,0.35,-0.33,-0.00,-0.53,-0.72,-0.71,-0.73
126.03,-0.36,0.39,-0.37,0.38,-0.36,-0.04,-0.55,-0.72,-0.73,-0.76
127.29,-0.37,0.40,-0.39,0.39,-0.38,-0.07,-0.57,-0.76,-0.77,-0.78
128.57,-0.42,0.39,-0.42,0.40,-0.40,-0.10,-0.59,-0.83,-0.82,-0.82
129.85,-0.45,0.39,-0.44,0.40,-0.43,-0.14,-0.61,-0.88,-0.87,-0.85
131.15,-0.44,0.43,-0.45,0.42,-0.45,-0.17,-0.62,-0.90,-0.90,-0.88
132.46,-0.44,0.46,-0.45,0.46,-0.47,-0.21,-0.63,-0.92,-0.92,-0.91
133.79,-0.44,0.49,-0.44,0.49,-0.49,-0.25,-0.64,-0.94,-0.93,-0.94
135.12,-0.43,0.53,-0.43,0.53,-0.51,-0.29,-0.65,-0.94,-0.94,-0.97
136.48,-0.43,0.55,-0.43,0.56,-0.53,-0.33,-0.66,-0.96,-0.96,-0.99
137.84,-0.43,0.59,-0.46,0.57,-0.55,-0.37,-0.67,-0.98,-1.00,-1.03
139.22,-0.49,0.56,-0.49,0.56,-0.56,-0.41,-0.68,-1.06,-1.06,-1.06
140.61,-0.54,0.54,-0.52,0.56,-0.58,-0.45,-0.69,-1.12,-1.10,-1.09
142.02,-0.53,0.57,-0.54,0.57,-0.60,-0.49,-0.69,-1.13,-1.13,-1.11
143.44,-0.52,0.61,-0.53,0.61,-0.62,-0.53,-0.70,-1.14,-1.15,-1.14
144.87,-0.52,0.65,-0.52,0.65,-0.65,-0.58,-0.70,-1.17,-1.17,-1.18
146.32,-0.52,0.69,-0.52,0.69,-0.69,-0.62,-0.71,-1.21,-1.21,-1.22
147.78,-0.52,0.72,-0.53,0.73,-0.74,-0.67,-0.71,-1.26,-1.26,-1.25
149.26,-0.52,0.77,-0.52,0.78,-0.79,-0.71,-0.72,-1.31,-1.31,-1.30
150.75,-0.52,0.83,-0.52,0.84,-0.84,-0.76,-0.72,-1.36,-1.35,-1.36
152.26,-0.51,0.91,-0.52,0.90,-0.89,-0.81,-0.72,-1.40,-1.41,-1.43
153.78,-0.52,0.97,-0.54,0.96,-0.93,-0.86,-0.73,-1.46,-1.47,-1.50
155.32,-0.58,0.98,-0.57,1.00,-0.98,-0.91,-0.73,-1.56,-1.55,-1.57
156.88,-0.61,1.03,-0.62,1.02,-1.03,-0.96,-0.74,-1.64,-1.65,-1.65
158.44,-0.66,1.06,-0.68,1.05,-1.07,-1.00,-0.74,-1.74,-1.75,-1.73
160.03,-0.73,1.07,-0.71,1.10,-1.12,-1.05,-0.75,-1.85,-1.83,-1.81
161.63,-0.72,1.15,-0.73,1.15,-1.16,-1.10,-0.75,-1.89,-1.89,-1.88
163.24,-0.71,1.22,-0.73,1.21,-1.21,-1.15,-0.76,-1.92,-1.94,-1.94
164.88,-0.72,1.26,-0.72,1.27,-1.26,-1.20,-0.77,-1.98,-1.98,-1.99
166.53,-0.72,1.31,-0.73,1.31,-1.30,-1.24,-0.77,-2.03,-2.03,-2.04
168.19,-0.73,1.34,-0.73,1.35,-1.34,-1.29,-0.78,-2.07,-2.07,-2.08
169.87,-0.73,1.38,-0.74,1.37,-1.37,-1.33,-0.79,-2.11,-2.11,-2.12
171.57,-0.74,1.39,-0.75,1.39,-1.39,-1.37,-0.80,-2.13,-2.13,-2.14
173.29,-0.75,1.39,-0.74,1.41,-1.40,-1.41,-0.81,-2.15,-2.14,-2.15
175.02,-0.74,1.41,-0.75,1.41,-1.39,-1.45,-0.82,-2.14,-2.14,-2.16
176.77,-0.74,1.42,-0.78,1.39,-1.38,-1.48,-0.83,-2.12,-2.15,-2.17
178.54,-0.82,1.35,-0.81,1.36,-1.36,-1.51,-0.84,-2.18,-2.17,-2.18
180.32,-0.85,1.31,-0.83,1.34,-1.33,-1.54,-0.86,-2.19,-2.16,-2.17
182.13,-0.84,1.31,-0.86,1.31,-1.31,-1.56,-0.87,-2.16,-2.17,-2.16
183.95,-0.83,1.33,-0.87,1.29,-1.30,-1.58,-0.89,-2.14,-2.17,-2.17
185.79,-0.92,1.24,-0.90,1.27,-1.30,-1.60,-0.90,-2.22,-2.19,-2.17
187.65,-0.92,1.26,-0.91,1.27,-1.30,-1.61,-0.92,-2.23,-2.22,-2.19
189.52,-0.90,1.29,-0.92,1.28,-1.32,-1.62,-0.93,-2.22,-2.23,-2.20
191.42,-0.88,1.33,-0.88,1.33,-1.33,-1.62,-0.95,-2.22,-2.22,-2.22
193.33,-0.86,1.37,-0.86,1.38,-1.35,-1.62,-0.97,-2.22,-2.21,-2.24
195.27,-0.83,1.42,-0.84,1.41,-1.37,-1.61,-0.98,-2.21,-2.22,-2.26
197.22,-0.83,1.44,-0.85,1.42,-1.40,-1.60,-1.00,-2.23,-2.25,-2.28
199.19,-0.88,1.41,-0.87,1.42,-1.42,-1.59,-1.02,-2.31,-2.30,-2.30
201.18,-0.91,1.40,-0.90,1.42,-1.44,-1.57,-1.04,-2.36,-2.34,-2.32
203.19,-0.90,1.43,-0.91,1.42,-1.45,-1.55,-1.06,-2.36,-2.36,-2.34
205.23,-0.90,1.45,-0.91,1.44,-1.45,-1.52,-1.08,-2.36,-2.36,-2.36
207.28,-0.90,1.46,-0.90,1.47,-1.46,-1.50,-1.10,-2.36,-2.35,-2.37
209.35,-0.90,1.48,-0.91,1.48,-1.46,-1.47,-1.12,-2.36,-2.36,-2.39
211.44,-0.91,1.50,-0.93,1.48,-1.46,-1.44,-1.14,-2.37,-2.39,-2.42
213.56,-0.97,1.45,-0.97,1.45,-1.46,-1.40,-1.16,-2.43,-2.43,-2.43
215.69,-1.02,1.41,-1.01,1.43,-1.45,-1.37,-1.17,-2.48,-2.46,-2.44
217.85,-1.03,1.41,-1.02,1.43,-1.44,-1.33,-1.19,-2.48,-2.46,-2.45
220.03,-1.01,1.44,-1.03,1.44,-1.42,-1.30,-1.21,-2.44,-2.45,-2.46
222.23,-1.01,1.47,-1.04,1.43,-1.41,-1.26,-1.23,-2.42,-2.45,-2.49
224.45,-1.08,1.39,-1.07,1.41,-1.40,-1.22,-1.24,-2.48,-2.47,-2.48
226.70,-1.12,1.35,-1.11,1.37,-1.38,-1.19,-1.25,-2.51,-2.49,-2.48
228.96,-1.11,1.35,-1.12,1.34,-1.37,-1.15,-1.27,-2.49,-2.50,-2.47
231.25,-1.11,1.34,-1.12,1.34,-1.36,-1.11,-1.28,-2.47,-2.48,-2.46
233.57,-1.10,1.34,-1.10,1.35,-1.34,-1.07,-1.28,-2.45,-2.44,-2.45
235.90,-1.08,1.35,-1.09,1.35,-1.32,-1.04,-1.29,-2.41,-2.41,-2.44
238.26,-1.07,1.35,-1.10,1.32,-1.31,-1.00,-1.30,-2.38,-2.41,-2.43
240.64,-1.12,1.27,-1.12,1.28,-1.28,-0.97,-1.30,-2.41,-2.40,-2.40
243.05,-1.14,1.22,-1.11,1.26,-1.26,-0.93,-1.30,-2.41,-2.37,-2.37
245.48,-1.10,1.24,-1.11,1.23,-1.23,-0.90,-1.30,-2.34,-2.34,-2.35
247.93,-1.06,1.25,-1.11,1.21,-1.20,-0.87,-1.29,-2.27,-2.31,-2.32
250.41,-1.14,1.15,-1.12,1.17,-1.17,-0.84,-1.29,-2.32,-2.29,-2.30
252.92,-1.15,1.11,-1.14,1.13,-1.15,-0.81,-1.28,-2.30,-2.29,-2.27
255.45,-1.13,1.11,-1.15,1.10,-1.13,-0.78,-1.27,-2.26,-2.28,-2.25
258.00,-1.13,1.09,-1.13,1.09,-1.11,-0.75,-1.26,-2.24,-2.24,-2.23
260.58,-1.12,1.08,-1.13,1.08,-1.08,-0.72,-1.24,-2.20,-2.20,-2.21
263.19,-1.12,1.05,-1.12,1.06,-1.04,-0.69,-1.22,-2.17,-2.16,-2.18
265.82,-1.12,1.03,-1.12,1.03,-1.00,-0.67,-1.20,-2.12,-2.12,-2.16
268.48,-1.12,1.01,-1.14,0.99,-0.95,-0.64,-1.18,-2.08,-2.09,-2.14
271.16,-1.18,0.92,-1.18,0.93,-0.90,-0.62,-1.16,-2.09,-2.09,-2.11
273.87,-1.23,0.85,-1.25,0.84,-0.85,-0.60,-1.13,-2.08,-2.09,-2.09
276.61,-1.32,0.73,-1.30,0.76,-0.79,-0.58,-1.10,-2.12,-2.09,-2.06
279.38,-1.33,0.69,-1.33,0.70,-0.74,-0.55,-1.08,-2.08,-2.07,-2.03
282.17,-1.32,0.68,-1.34,0.66,-0.70,-0.53,-1.04,-2.02,-2.03,-2.01
284.99,-1.32,0.64,-1.32,0.65,-0.66,-0.51,-1.01,-1.98,-1.98,-1.97
287.84,-1.31,0.63,-1.31,0.63,-0.62,-0.50,-0.98,-1.94,-1.93,-1.95
290.72,-1.30,0.61,-1.30,0.61,-0.59,-0.48,-0.95,-1.89,-1.89,-1.92
293.63,-1.29,0.59,-1.31,0.58,-0.56,-0.46,-0.91,-1.85,-1.86,-1.89
296.57,-1.31,0.54,-1.32,0.54,-0.52,-0.44,-0.88,-1.84,-1.84,-1.86
299.53,-1.35,0.47,-1.33,0.49,-0.48,-0.43,-0.84,-1.84,-1.81,-1.83
302.53,-1.34,0.46,-1.36,0.44,-0.44,-0.41,-0.80,-1.78,-1.80,-1.81
305.55,-1.38,0.38,-1.39,0.38,-0.40,-0.40,-0.77,-1.78,-1.79,-1.77
308.61,-1.42,0.32,-1.41,0.34,-0.36,-0.39,-0.73,-1.78,-1.77,-1.75
311.69,-1.42,0.29,-1.42,0.29,-0.32,-0.37,-0.69,-1.75,-1.74,-1.72
314.81,-1.41,0.28,-1.42,0.28,-0.29,-0.36,-0.65,-1.70,-1.71,-1.70
317.96,-1.41,0.26,-1.41,0.27,-0.25,-0.35,-0.61,-1.67,-1.66,-1.68
321.14,-1.41,0.25,-1.41,0.25,-0.22,-0.34,-0.58,-1.64,-1.63,-1.67
324.35,-1.41,0.23,-1.43,0.22,-0.19,-0.32,-0.54,-1.61,-1.62,-1.65
327.59,-1.45,0.18,-1.46,0.18,-0.17,-0.31,-0.50,-1.62,-1.63,-1.64
330.87,-1.50,0.12,-1.49,0.13,-0.15,-0.30,-0.46,-1.65,-1.63,-1.63
334.18,-1.51,0.09,-1.51,0.10,-0.12,-0.29,-0.42,-1.64,-1.64,-1.61
337.52,-1.51,0.08,-1.52,0.08,-0.10,-0.28,-0.38,-1.62,-1.62,-1.60
340.90,-1.51,0.07,-1.52,0.07,-0.08,-0.27,-0.34,-1.59,-1.60,-1.59
344.30,-1.52,0.05,-1.51,0.07,-0.05,-0.27,-0.31,-1.58,-1.57,-1.58
347.75,-1.51,0.06,-1.52,0.05,-0.03,-0.26,-0.27,-1.55,-1.55,-1.58
351.23,-1.51,0.05,-1.54,0.03,-0.01,-0.25,-0.23,-1.52,-1.55,-1.57
354.74,-1.58,-0.01,-1.56,0.01,0.01,-0.24,-0.19,-1.57,-1.55,-1.58
358.28,-1.60,-0.04,-1.60,-0.04,0.03,-0.23,-0.16,-1.57,-1.57,-1.57
361.87,-1.62,-0.06,-1.64,-0.08,0.05,-0.23,-0.12,-1.57,-1.59,-1.57
365.49,-1.68,-0.13,-1.67,-0.11,0.08,-0.22,-0.08,-1.61,-1.59,-1.56
369.14,-1.68,-0.12,-1.68,-0.11,0.10,-0.21,-0.04,-1.59,-1.58,-1.57
372.83,-1.67,-0.11,-1.68,-0.11,0.12,-0.21,-0.01,-1.56,-1.56,-1.57
376.56,-1.66,-0.09,-1.68,-0.11,0.13,-0.20,0.03,-1.53,-1.54,-1.58
380.33,-1.68,-0.12,-1.69,-0.13,0.14,-0.19,0.06,-1.54,-1.55,-1.57
384.13,-1.73,-0.17,-1.72,-0.15,0.15,-0.19,0.10,-1.59,-1.57,-1.57
387.97,-1.74,-0.17,-1.74,-0.17,0.15,-0.18,0.14,-1.59,-1.59,-1.58
391.85,-1.74,-0.16,-1.75,-0.17,0.15,-0.18,0.17,-1.59,-1.60,-1.59
395.77,-1.74,-0.17,-1.75,-0.16,0.15,-0.17,0.21,-1.59,-1.59,-1.58
399.73,-1.74,-0.16,-1.74,-0.16,0.15,-0.17,0.24,-1.59,-1.59,-1.59
403.72,-1.74,-0.16,-1.75,-0.15,0.16,-0.16,0.28,-1.59,-1.59,-1.59
407.76,-1.74,-0.14,-1.74,-0.14,0.16,-0.16,0.31,-1.58,-1.58,-1.61
411.84,-1.75,-0.15,-1.75,-0.14,0.17,-0.16,0.34,-1.59,-1.58,-1.61
415.96,-1.75,-0.15,-1.77,-0.16,0.18,-0.15,0.37,-1.58,-1.60,-1.61
420.12,-1.80,-0.20,-1.80,-0.20,0.19,-0.15,0.41,-1.61,-1.61,-1.61
424.32,-1.84,-0.24,-1.82,-0.22,0.21,-0.14,0.44,-1.63,-1.61,-1.61
428.56,-1.83,-0.24,-1.84,-0.24,0.23,-0.14,0.47,-1.60,-1.60,-1.60
432.85,-1.82,-0.24,-1.84,-0.25,0.25,-0.14,0.50,-1.57,-1.59,-1.59
437.18,-1.83,-0.26,-1.84,-0.27,0.27,-0.13,0.52,-1.57,-1.57,-1.58
441.55,-1.84,-0.31,-1.83,-0.29,0.28,-0.13,0.55,-1.57,-1.55,-1.54
445.96,-1.80,-0.30,-1.80,-0.30,0.28,-0.13,0.57,-1.53,-1.53,-1.51
450.42,-1.75,-0.28,-1.76,-0.29,0.27,-0.12,0.60,-1.48,-1.49,-1.48
454.93,-1.69,-0.27,-1.70,-0.26,0.26,-0.12,0.62,-1.43,-1.43,-1.43
459.48,-1.63,-0.25,-1.64,-0.25,0.26,-0.12,0.64,-1.38,-1.38,-1.39
464.07,-1.57,-0.24,-1.57,-0.24,0.26,-0.12,0.66,-1.32,-1.32,-1.34
468.71,-1.52,-0.25,-1.51,-0.23,0.26,-0.11,0.67,-1.27,-1.26,-1.28
