frequency,raw,error,smoothed,error_smoothed,equalization,parametric_eq,fixed_band_eq,equalized_raw,equalized_smoothed,target
20.00,-2.93,-8.46,-2.94,-8.46,8.48,8.56,2.38,5.55,5.55,5.53
20.20,-2.87,-8.43,-2.87,-8.43,8.43,8.52,2.45,5.56,5.56,5.56
20.40,-2.81,-8.40,-2.80,-8.38,8.37,8.48,2.51,5.56,5.58,5.59
20.61,-2.72,-8.33,-2.71,-8.33,8.31,8.43,2.59,5.59,5.60,5.61
20.81,-2.61,-8.25,-2.62,-8.26,8.25,8.37,2.66,5.64,5.62,5.64
21.02,-2.52,-8.19,-2.52,-8.18,8.18,8.31,2.73,5.66,5.66,5.67
21.23,-2.44,-8.12,-2.43,-8.11,8.11,8.24,2.81,5.67,5.68,5.68
21.44,-2.33,-8.02,-2.34,-8.03,8.03,8.16,2.89,5.70,5.69,5.69
21.66,-2.24,-7.94,-2.24,-7.94,7.95,8.08,2.97,5.70,5.70,5.70
21.87,-2.16,-7.86,-2.15,-7.85,7.86,8.00,3.06,5.70,5.71,5.70
22.09,-2.05,-7.76,-2.06,-7.77,7.77,7.91,3.14,5.72,5.71,5.71
22.31,-1.99,-7.70,-1.97,-7.68,7.68,7.82,3.23,5.69,5.71,5.71
22.54,-1.88,-7.59,-1.89,-7.59,7.59,7.72,3.32,5.71,5.71,5.71
22.76,-1.79,-7.50,-1.80,-7.50,7.50,7.63,3.42,5.71,5.70,5.71
22.99,-1.71,-7.41,-1.70,-7.40,7.40,7.53,3.51,5.69,5.70,5.70
23.22,-1.60,-7.30,-1.61,-7.31,7.31,7.43,3.61,5.71,5.70,5.70
23.45,-1.51,-7.21,-1.51,-7.20,7.20,7.32,3.71,5.70,5.70,5.70
23.69,-1.40,-7.10,-1.40,-7.10,7.10,7.22,3.81,5.70,5.70,5.70
23.92,-1.29,-6.99,-1.29,-6.99,6.99,7.12,3.91,5.70,5.70,5.70
24.16,-1.19,-6.89,-1.19,-6.88,6.88,7.01,4.02,5.69,5.70,5.70
24.40,-1.08,-6.78,-1.08,-6.78,6.77,6.91,4.13,5.69,5.69,5.70
24.65,-0.97,-6.66,-0.97,-6.66,6.65,6.80,4.23,5.68,5.68,5.69
24.89,-0.86,-6.55,-0.85,-6.54,6.54,6.69,4.34,5.68,5.69,5.69
25.14,-0.73,-6.42,-0.74,-6.42,6.42,6.59,4.45,5.70,5.69,5.69
25.39,-0.62,-6.31,-0.62,-6.31,6.31,6.48,4.57,5.69,5.69,5.69
25.65,-0.51,-6.20,-0.51,-6.19,6.20,6.37,4.68,5.69,5.70,5.69
25.91,-0.40,-6.08,-0.41,-6.09,6.10,6.27,4.79,5.70,5.69,5.68
26.16,-0.31,-5.99,-0.31,-5.99,6.00,6.16,4.90,5.69,5.69,5.68
26.43,-0.23,-5.91,-0.22,-5.90,5.90,6.06,5.01,5.67,5.68,5.68
26.69,-0.12,-5.80,-0.14,-5.81,5.81,5.95,5.12,5.69,5.67,5.68
26.96,-0.06,-5.74,-0.05,-5.72,5.71,5.85,5.22,5.65,5.67,5.68
27.23,0.05,-5.62,0.04,-5.63,5.62,5.74,5.32,5.67,5.66,5.67
27.50,0.14,-5.53,0.13,-5.53,5.52,5.64,5.42,5.66,5.66,5.67
27.77,0.22,-5.44,0.23,-5.43,5.43,5.54,5.52,5.65,5.66,5.66
28.05,0.33,-5.33,0.33,-5.33,5.33,5.44,5.61,5.66,5.66,5.66
28.33,0.43,-5.22,0.42,-5.23,5.23,5.33,5.70,5.66,5.65,5.65
28.62,0.52,-5.13,0.52,-5.12,5.13,5.23,5.78,5.65,5.65,5.65
28.90,0.61,-5.04,0.62,-5.03,5.03,5.13,5.85,5.64,5.65,5.65
29.19,0.72,-4.92,0.71,-4.93,4.93,5.04,5.92,5.66,5.65,5.64
29.48,0.79,-4.85,0.80,-4.84,4.84,4.94,5.97,5.64,5.64,5.64
29.78,0.89,-4.74,0.88,-4.75,4.76,4.84,6.02,5.65,5.64,5.63
30.08,0.95,-4.68,0.95,-4.67,4.68,4.75,6.06,5.62,5.63,5.63
30.38,1.02,-4.60,1.03,-4.60,4.60,4.65,6.10,5.62,5.62,5.62
30.68,1.10,-4.52,1.09,-4.52,4.52,4.56,6.12,5.62,5.61,5.62
30.99,1.16,-4.45,1.16,-4.45,4.45,4.46,6.13,5.61,5.61,5.61
31.30,1.23,-4.37,1.23,-4.37,4.37,4.37,6.13,5.60,5.60,5.60
31.61,1.29,-4.31,1.29,-4.30,4.30,4.28,6.12,5.59,5.59,5.60
31.93,1.36,-4.23,1.36,-4.23,4.23,4.19,6.10,5.59,5.58,5.59
32.24,1.42,-4.16,1.42,-4.16,4.15,4.11,6.07,5.58,5.58,5.58
32.57,1.49,-4.09,1.49,-4.08,4.08,4.02,6.03,5.57,5.57,5.58
32.89,1.57,-4.00,1.56,-4.00,4.01,3.94,5.99,5.58,5.57,5.57
33.22,1.63,-3.93,1.63,-3.93,3.93,3.85,5.93,5.56,5.57,5.56
33.55,1.70,-3.86,1.70,-3.86,3.86,3.77,5.87,5.56,5.56,5.56
33.89,1.76,-3.79,1.76,-3.79,3.78,3.69,5.80,5.54,5.55,5.55
34.23,1.83,-3.71,1.83,-3.71,3.71,3.61,5.72,5.54,5.54,5.54
34.57,1.89,-3.64,1.89,-3.64,3.63,3.54,5.63,5.52,5.53,5.53
34.92,1.96,-3.56,1.96,-3.56,3.56,3.46,5.54,5.52,5.52,5.52
35.27,2.02,-3.49,2.02,-3.49,3.49,3.39,5.45,5.51,5.51,5.51
35.62,2.08,-3.42,2.08,-3.42,3.42,3.31,5.35,5.50,5.50,5.50
35.97,2.14,-3.35,2.14,-3.35,3.35,3.24,5.25,5.49,5.49,5.49
36.33,2.20,-3.28,2.20,-3.28,3.28,3.18,5.15,5.48,5.48,5.48
36.70,2.26,-3.21,2.26,-3.21,3.22,3.11,5.05,5.48,5.47,5.47
37.06,2.31,-3.15,2.31,-3.15,3.15,3.04,4.94,5.46,5.46,5.46
37.43,2.35,-3.10,2.36,-3.09,3.09,2.98,4.83,5.44,5.45,5.45
37.81,2.40,-3.04,2.40,-3.04,3.03,2.92,4.72,5.43,5.44,5.44
38.19,2.46,-2.97,2.45,-2.98,2.98,2.86,4.62,5.44,5.43,5.43
38.57,2.49,-2.93,2.50,-2.92,2.92,2.80,4.51,5.41,5.42,5.42
38.95,2.54,-2.87,2.54,-2.86,2.86,2.74,4.40,5.40,5.40,5.41
39.34,2.59,-2.80,2.59,-2.81,2.80,2.68,4.29,5.39,5.39,5.39
39.74,2.63,-2.75,2.64,-2.74,2.74,2.63,4.19,5.37,5.38,5.38
40.14,2.69,-2.68,2.69,-2.68,2.68,2.58,4.09,5.37,5.37,5.37
40.54,2.74,-2.62,2.74,-2.62,2.62,2.52,3.99,5.36,5.36,5.36
40.94,2.79,-2.56,2.79,-2.56,2.57,2.47,3.89,5.36,5.35,5.35
41.35,2.82,-2.52,2.83,-2.51,2.51,2.43,3.79,5.33,5.34,5.34
41.76,2.88,-2.45,2.87,-2.46,2.46,2.38,3.69,5.34,5.33,5.33
42.18,2.91,-2.41,2.91,-2.40,2.40,2.33,3.60,5.31,5.32,5.32
42.60,2.96,-2.35,2.96,-2.35,2.35,2.29,3.51,5.31,5.30,5.31
43.03,2.99,-2.31,3.00,-2.30,2.30,2.24,3.42,5.29,5.29,5.30
43.46,3.03,-2.25,3.03,-2.24,2.25,2.20,3.34,5.28,5.28,5.28
43.90,3.08,-2.18,3.07,-2.19,2.20,2.16,3.25,5.28,5.26,5.26
44.33,3.09,-2.15,3.10,-2.14,2.15,2.12,3.17,5.24,5.24,5.24
44.78,3.12,-2.10,3.12,-2.10,2.09,2.09,3.09,5.21,5.21,5.22
45.23,3.15,-2.05,3.15,-2.05,2.04,2.05,3.02,5.19,5.19,5.20
45.68,3.18,-2.01,3.19,-2.00,1.99,2.02,2.94,5.17,5.18,5.19
46.13,3.24,-1.93,3.23,-1.94,1.94,1.98,2.87,5.18,5.17,5.17
46.60,3.27,-1.89,3.27,-1.89,1.89,1.95,2.80,5.16,5.16,5.16
47.06,3.30,-1.84,3.30,-1.84,1.84,1.92,2.73,5.14,5.15,5.14
47.53,3.33,-1.79,3.33,-1.79,1.79,1.89,2.67,5.12,5.12,5.12
48.01,3.36,-1.75,3.36,-1.74,1.74,1.86,2.61,5.10,5.10,5.11
48.49,3.38,-1.70,3.38,-1.70,1.69,1.83,2.55,5.07,5.07,5.08
48.97,3.40,-1.65,3.40,-1.65,1.65,1.81,2.49,5.05,5.05,5.05
49.46,3.41,-1.61,3.42,-1.60,1.60,1.78,2.43,5.01,5.02,5.02
49.96,3.45,-1.54,3.44,-1.56,1.56,1.76,2.38,5.01,5.00,4.99
50.46,3.45,-1.52,3.45,-1.52,1.53,1.74,2.33,4.98,4.97,4.97
50.96,3.45,-1.50,3.46,-1.49,1.49,1.71,2.27,4.94,4.95,4.95
51.47,3.46,-1.46,3.46,-1.46,1.46,1.69,2.23,4.92,4.92,4.92
51.99,3.47,-1.43,3.47,-1.43,1.43,1.68,2.18,4.90,4.90,4.90
52.51,3.47,-1.41,3.47,-1.41,1.40,1.66,2.13,4.87,4.88,4.88
53.03,3.47,-1.39,3.47,-1.39,1.38,1.64,2.09,4.85,4.85,4.86
53.56,3.47,-1.36,3.47,-1.36,1.36,1.63,2.05,4.83,4.83,4.83
54.10,3.47,-1.34,3.47,-1.34,1.33,1.61,2.01,4.80,4.80,4.81
54.64,3.47,-1.31,3.46,-1.32,1.31,1.60,1.97,4.78,4.78,4.78
55.18,3.45,-1.31,3.46,-1.29,1.30,1.59,1.93,4.75,4.76,4.76
55.74,3.45,-1.28,3.45,-1.28,1.28,1.58,1.90,4.73,4.73,4.73
56.29,3.45,-1.26,3.44,-1.27,1.27,1.58,1.86,4.72,4.71,4.71
56.86,3.40,-1.29,3.42,-1.26,1.27,1.57,1.83,4.67,4.69,4.69
57.42,3.40,-1.26,3.39,-1.27,1.28,1.57,1.79,4.68,4.67,4.66
58.00,3.36,-1.28,3.36,-1.28,1.29,1.56,1.76,4.65,4.64,4.64
58.58,3.31,-1.31,3.32,-1.30,1.30,1.56,1.73,4.61,4.62,4.62
59.16,3.27,-1.33,3.26,-1.33,1.32,1.56,1.70,4.59,4.59,4.60
59.76,3.21,-1.37,3.21,-1.36,1.35,1.57,1.67,4.56,4.56,4.58
60.35,3.15,-1.40,3.15,-1.40,1.39,1.57,1.64,4.54,4.54,4.55
60.96,3.09,-1.43,3.09,-1.43,1.44,1.58,1.61,4.53,4.52,4.52
61.57,3.00,-1.48,3.00,-1.48,1.50,1.58,1.59,4.50,4.50,4.48
62.18,2.91,-1.54,2.90,-1.55,1.57,1.59,1.56,4.48,4.47,4.45
62.80,2.78,-1.64,2.78,-1.63,1.66,1.60,1.54,4.44,4.44,4.42
63.43,2.65,-1.74,2.65,-1.74,1.75,1.62,1.51,4.40,4.40,4.39
64.07,2.52,-1.84,2.51,-1.85,1.85,1.63,1.49,4.37,4.36,4.36
64.71,2.36,-1.98,2.37,-1.96,1.95,1.65,1.46,4.31,4.32,4.34
65.35,2.24,-2.07,2.24,-2.07,2.05,1.67,1.44,4.29,4.29,4.31
66.01,2.12,-2.16,2.12,-2.16,2.14,1.69,1.42,4.26,4.26,4.28
66.67,2.01,-2.24,2.02,-2.23,2.22,1.72,1.40,4.23,4.24,4.25
67.33,1.93,-2.29,1.92,-2.30,2.29,1.74,1.37,4.22,4.21,4.22
68.01,1.84,-2.35,1.85,-2.34,2.35,1.77,1.35,4.19,4.19,4.19
68.69,1.78,-2.38,1.78,-2.38,2.39,1.80,1.33,4.17,4.16,4.16
69.37,1.72,-2.41,1.72,-2.41,2.42,1.83,1.31,4.14,4.13,4.13
70.07,1.66,-2.44,1.66,-2.43,2.43,1.86,1.30,4.09,4.10,4.10
70.77,1.63,-2.44,1.62,-2.45,2.44,1.89,1.28,4.07,4.06,4.07
71.48,1.58,-2.46,1.60,-2.44,2.44,1.92,1.26,4.02,4.04,4.04
72.19,1.58,-2.42,1.57,-2.43,2.43,1.95,1.24,4.01,4.00,4.00
72.91,1.58,-2.39,1.56,-2.40,2.40,1.98,1.23,3.98,3.97,3.97
73.64,1.54,-2.39,1.56,-2.37,2.37,2.00,1.21,3.91,3.93,3.93
74.38,1.58,-2.32,1.57,-2.33,2.32,2.03,1.19,3.90,3.89,3.90
75.12,1.59,-2.27,1.59,-2.27,2.26,2.05,1.18,3.85,3.85,3.86
75.87,1.62,-2.21,1.63,-2.20,2.19,2.07,1.17,3.81,3.82,3.83
76.63,1.68,-2.12,1.67,-2.12,2.12,2.09,1.15,3.80,3.79,3.80
77.40,1.73,-2.04,1.73,-2.03,2.03,2.09,1.14,3.76,3.76,3.77
78.17,1.79,-1.94,1.80,-1.94,1.93,2.10,1.13,3.72,3.73,3.73
78.95,1.86,-1.84,1.86,-1.84,1.83,2.10,1.12,3.69,3.69,3.70
79.74,1.93,-1.74,1.92,-1.74,1.73,2.09,1.11,3.66,3.65,3.67
80.54,1.98,-1.65,1.98,-1.65,1.64,2.08,1.10,3.62,3.62,3.63
81.35,2.03,-1.57,2.04,-1.56,1.56,2.06,1.09,3.59,3.60,3.60
82.16,2.08,-1.48,2.08,-1.48,1.51,2.04,1.08,3.59,3.59,3.56
82.98,2.10,-1.43,2.09,-1.43,1.49,2.01,1.07,3.59,3.58,3.53
83.81,2.07,-1.42,2.06,-1.43,1.49,1.97,1.06,3.56,3.55,3.49
84.65,1.97,-1.48,1.98,-1.48,1.51,1.93,1.06,3.48,3.49,3.45
85.50,1.87,-1.55,1.86,-1.56,1.56,1.89,1.05,3.43,3.41,3.42
86.35,1.72,-1.66,1.74,-1.64,1.61,1.85,1.05,3.33,3.35,3.38
87.22,1.62,-1.72,1.63,-1.71,1.68,1.80,1.04,3.30,3.31,3.34
88.09,1.55,-1.75,1.53,-1.77,1.75,1.75,1.04,3.30,3.28,3.30
88.97,1.44,-1.82,1.45,-1.81,1.80,1.70,1.04,3.24,3.25,3.26
89.86,1.37,-1.85,1.37,-1.84,1.84,1.66,1.04,3.21,3.22,3.22
90.76,1.30,-1.87,1.30,-1.87,1.86,1.61,1.04,3.16,3.16,3.17
91.66,1.26,-1.87,1.25,-1.87,1.86,1.56,1.03,3.12,3.12,3.13
92.58,1.21,-1.87,1.22,-1.86,1.85,1.51,1.03,3.06,3.06,3.08
93.51,1.21,-1.83,1.21,-1.83,1.81,1.46,1.04,3.02,3.03,3.04
94.44,1.21,-1.79,1.22,-1.78,1.77,1.42,1.04,2.98,2.99,3.00
95.39,1.26,-1.69,1.25,-1.70,1.71,1.37,1.04,2.97,2.96,2.95
96.34,1.26,-1.64,1.27,-1.63,1.65,1.33,1.04,2.91,2.91,2.90
97.30,1.30,-1.55,1.29,-1.56,1.57,1.29,1.04,2.87,2.86,2.85
98.28,1.30,-1.50,1.31,-1.49,1.49,1.25,1.05,2.79,2.80,2.80
99.26,1.34,-1.42,1.34,-1.41,1.40,1.21,1.05,2.74,2.74,2.76
100.25,1.38,-1.33,1.38,-1.33,1.32,1.18,1.06,2.70,2.70,2.71
101.25,1.43,-1.23,1.43,-1.23,1.23,1.15,1.06,2.66,2.66,2.66
102.27,1.48,-1.13,1.47,-1.14,1.15,1.11,1.07,2.63,2.62,2.61
103.29,1.49,-1.07,1.50,-1.06,1.08,1.08,1.08,2.57,2.58,2.56
104.32,1.52,-1.00,1.52,-0.99,1.00,1.06,1.08,2.52,2.52,2.52
105.37,1.54,-0.93,1.53,-0.94,0.93,1.03,1.09,2.47,2.47,2.47
106.42,1.54,-0.88,1.54,-0.88,0.87,1.01,1.10,2.41,2.41,2.42
107.48,1.54,-0.83,1.54,-0.83,0.82,0.98,1.10,2.36,2.36,2.37
108.56,1.54,-0.78,1.54,-0.78,0.78,0.96,1.11,2.32,2.32,2.32
109.64,1.54,-0.73,1.54,-0.73,0.74,0.94,1.12,2.28,2.28,2.27
110.74,1.53,-0.69,1.52,-0.70,0.71,0.92,1.13,2.24,2.23,2.22
111.85,1.49,-0.68,1.49,-0.68,0.68,0.90,1.13,2.17,2.17,2.17
112.97,1.44,-0.67,1.45,-0.66,0.66,0.89,1.14,2.10,2.11,2.11
114.10,1.41,-0.65,1.41,-0.65,0.64,0.87,1.15,2.05,2.04,2.06
115.24,1.36,-0.64,1.37,-0.63,0.63,0.86,1.16,1.99,1.99,2.00
116.39,1.33,-0.62,1.32,-0.62,0.62,0.85,1.16,1.95,1.94,1.95
117.55,1.28,-0.61,1.28,-0.61,0.61,0.84,1.17,1.89,1.89,1.89
118.73,1.23,-0.61,1.24,-0.60,0.61,0.83,1.18,1.84,1.85,1.84
119.92,1.19,-0.60,1.18,-0.61,0.62,0.82,1.18,1.81,1.80,1.79
121.12,1.12,-0.62,1.12,-0.62,0.63,0.81,1.19,1.75,1.75,1.74
122.33,1.05,-0.64,1.05,-0.64,0.65,0.80,1.19,1.70,1.70,1.69
123.55,0.98,-0.66,0.98,-0.66,0.66,0.80,1.20,1.64,1.64,1.64
124.79,0.90,-0.69,0.90,-0.69,0.68,0.79,1.20,1.58,1.58,1.59
126.03,0.83,-0.71,0.83,-0.71,0.69,0.79,1.21,1.52,1.53,1.54
127.29,0.77,-0.72,0.76,-0.72,0.70,0.79,1.21,1.47,1.47,1.49
128.57,0.70,-0.73,0.71,-0.72,0.71,0.79,1.21,1.41,1.42,1.43
129.85,0.66,-0.72,0.66,-0.71,0.71,0.79,1.22,1.37,1.37,1.38
131.15,0.63,-0.70,0.63,-0.70,0.70,0.79,1.22,1.33,1.33,1.33
132.46,0.60,-0.68,0.59,-0.69,0.69,0.79,1.22,1.29,1.29,1.28
133.79,0.56,-0.68,0.56,-0.68,0.68,0.79,1.22,1.24,1.24,1.24
135.12,0.51,-0.68,0.52,-0.67,0.67,0.80,1.23,1.18,1.19,1.19
136.48,0.48,-0.67,0.48,-0.67,0.67,0.80,1.23,1.15,1.14,1.15
137.84,0.44,-0.66,0.44,-0.66,0.67,0.81,1.23,1.11,1.10,1.10
139.22,0.39,-0.66,0.39,-0.66,0.67,0.82,1.23,1.06,1.06,1.05
140.61,0.33,-0.68,0.33,-0.68,0.69,0.83,1.23,1.02,1.02,1.01
142.02,0.27,-0.71,0.27,-0.71,0.71,0.84,1.24,0.98,0.98,0.98
143.44,0.20,-0.74,0.20,-0.74,0.74,0.85,1.24,0.94,0.94,0.94
144.87,0.12,-0.78,0.12,-0.78,0.77,0.86,1.24,0.89,0.90,0.90
146.32,0.05,-0.81,0.05,-0.81,0.81,0.88,1.25,0.86,0.86,0.86
147.78,-0.03,-0.86,-0.03,-0.85,0.85,0.89,1.25,0.82,0.82,0.83
149.26,-0.11,-0.90,-0.11,-0.90,0.90,0.91,1.25,0.79,0.79,0.79
150.75,-0.19,-0.94,-0.19,-0.94,0.94,0.93,1.26,0.75,0.75,0.75
152.26,-0.28,-0.99,-0.28,-0.99,0.99,0.95,1.26,0.71,0.71,0.71
153.78,-0.36,-1.03,-0.36,-1.03,1.03,0.97,1.27,0.67,0.67,0.67
155.32,-0.46,-1.09,-0.45,-1.08,1.07,1.00,1.28,0.61,0.62,0.63
156.88,-0.52,-1.11,-0.53,-1.12,1.12,1.02,1.28,0.60,0.59,0.59
158.44,-0.62,-1.17,-0.61,-1.16,1.16,1.05,1.29,0.54,0.55,0.55
160.03,-0.69,-1.20,-0.70,-1.21,1.20,1.08,1.30,0.51,0.51,0.51
161.63,-0.79,-1.26,-0.78,-1.25,1.25,1.12,1.31,0.46,0.47,0.47
163.24,-0.86,-1.29,-0.86,-1.29,1.29,1.15,1.32,0.43,0.44,0.43
164.88,-0.93,-1.33,-0.94,-1.34,1.34,1.19,1.33,0.41,0.40,0.40
166.53,-1.03,-1.39,-1.02,-1.38,1.39,1.23,1.35,0.36,0.36,0.36
168.19,-1.12,-1.44,-1.12,-1.44,1.43,1.28,1.36,0.31,0.32,0.32
169.87,-1.20,-1.48,-1.20,-1.48,1.48,1.32,1.37,0.28,0.28,0.28
171.57,-1.30,-1.54,-1.29,-1.54,1.53,1.37,1.39,0.23,0.23,0.24
173.29,-1.37,-1.58,-1.38,-1.58,1.58,1.43,1.41,0.21,0.20,0.21
175.02,-1.48,-1.65,-1.47,-1.63,1.63,1.48,1.43,0.15,0.17,0.17
176.77,-1.54,-1.67,-1.55,-1.68,1.69,1.54,1.45,0.15,0.13,0.13
178.54,-1.65,-1.74,-1.65,-1.73,1.75,1.61,1.47,0.10,0.10,0.09
180.32,-1.74,-1.79,-1.74,-1.79,1.81,1.68,1.49,0.07,0.07,0.05
182.13,-1.85,-1.87,-1.85,-1.87,1.87,1.75,1.51,0.02,0.02,0.02
183.95,-1.96,-1.94,-1.96,-1.94,1.94,1.82,1.53,-0.02,-0.02,-0.02
185.79,-2.07,-2.02,-2.07,-2.01,2.01,1.90,1.56,-0.06,-0.06,-0.05
187.65,-2.17,-2.08,-2.17,-2.08,2.07,1.98,1.58,-0.10,-0.10,-0.09
189.52,-2.26,-2.14,-2.27,-2.15,2.14,2.06,1.61,-0.12,-0.13,-0.12
191.42,-2.37,-2.22,-2.36,-2.20,2.19,2.15,1.64,-0.18,-0.16,-0.15
193.33,-2.43,-2.25,-2.44,-2.26,2.25,2.23,1.67,-0.18,-0.19,-0.18
195.27,-2.52,-2.31,-2.51,-2.30,2.29,2.32,1.70,-0.23,-0.22,-0.21
197.22,-2.58,-2.34,-2.58,-2.34,2.34,2.40,1.73,-0.24,-0.24,-0.24
199.19,-2.64,-2.37,-2.64,-2.38,2.39,2.49,1.76,-0.25,-0.26,-0.27
201.18,-2.71,-2.42,-2.71,-2.41,2.43,2.57,1.79,-0.28,-0.28,-0.29
203.19,-2.77,-2.46,-2.78,-2.46,2.47,2.64,1.82,-0.30,-0.30,-0.31
205.23,-2.85,-2.52,-2.85,-2.52,2.52,2.71,1.85,-0.33,-0.33,-0.33
207.28,-2.92,-2.58,-2.92,-2.57,2.57,2.77,1.88,-0.35,-0.35,-0.34
209.35,-2.98,-2.62,-2.99,-2.62,2.62,2.82,1.91,-0.36,-0.37,-0.36
211.44,-3.05,-2.67,-3.04,-2.67,2.67,2.86,1.94,-0.38,-0.38,-0.38
213.56,-3.10,-2.71,-3.10,-2.71,2.71,2.89,1.98,-0.39,-0.38,-0.39
215.69,-3.14,-2.75,-3.15,-2.75,2.75,2.90,2.01,-0.39,-0.39,-0.39
217.85,-3.19,-2.79,-3.19,-2.79,2.79,2.90,2.04,-0.40,-0.40,-0.40
220.03,-3.23,-2.82,-3.23,-2.82,2.81,2.89,2.06,-0.42,-0.41,-0.41
222.23,-3.26,-2.84,-3.25,-2.84,2.83,2.86,2.09,-0.43,-0.42,-0.42
224.45,-3.26,-2.84,-3.26,-2.84,2.84,2.83,2.12,-0.42,-0.43,-0.42
226.70,-3.26,-2.84,-3.26,-2.84,2.83,2.78,2.14,-0.43,-0.43,-0.42
228.96,-3.24,-2.82,-3.24,-2.82,2.82,2.72,2.17,-0.42,-0.42,-0.42
231.25,-3.21,-2.80,-3.21,-2.79,2.79,2.65,2.19,-0.42,-0.42,-0.41
233.57,-3.16,-2.75,-3.16,-2.75,2.74,2.57,2.21,-0.42,-0.41,-0.41
235.90,-3.10,-2.69,-3.10,-2.69,2.69,2.49,2.22,-0.41,-0.41,-0.41
238.26,-3.02,-2.62,-3.03,-2.63,2.62,2.41,2.24,-0.40,-0.41,-0.40
240.64,-2.96,-2.57,-2.94,-2.55,2.55,2.33,2.25,-0.41,-0.39,-0.39
243.05,-2.85,-2.47,-2.85,-2.47,2.47,2.24,2.26,-0.38,-0.38,-0.38
245.48,-2.74,-2.37,-2.75,-2.38,2.39,2.15,2.26,-0.35,-0.36,-0.37
247.93,-2.65,-2.29,-2.65,-2.28,2.29,2.07,2.26,-0.36,-0.35,-0.36
250.41,-2.54,-2.19,-2.54,-2.19,2.20,1.99,2.26,-0.34,-0.34,-0.35
252.92,-2.44,-2.11,-2.43,-2.10,2.10,1.91,2.26,-0.34,-0.34,-0.33
255.45,-2.31,-2.00,-2.32,-2.00,1.99,1.83,2.25,-0.32,-0.32,-0.31
258.00,-2.20,-1.90,-2.19,-1.90,1.89,1.75,2.24,-0.31,-0.31,-0.30
260.58,-2.06,-1.78,-2.06,-1.78,1.78,1.68,2.23,-0.28,-0.28,-0.28
263.19,-1.93,-1.67,-1.93,-1.66,1.66,1.62,2.22,-0.27,-0.26,-0.26
265.82,-1.78,-1.54,-1.79,-1.55,1.55,1.55,2.20,-0.23,-0.24,-0.24
268.48,-1.66,-1.44,-1.66,-1.44,1.43,1.49,2.18,-0.23,-0.22,-0.22
271.16,-1.53,-1.33,-1.52,-1.32,1.32,1.43,2.16,-0.21,-0.20,-0.20
273.87,-1.40,-1.22,-1.40,-1.22,1.22,1.38,2.13,-0.18,-0.18,-0.18
276.61,-1.27,-1.11,-1.28,-1.12,1.13,1.33,2.10,-0.14,-0.15,-0.16
279.38,-1.17,-1.03,-1.17,-1.03,1.04,1.28,2.08,-0.13,-0.13,-0.14
282.17,-1.08,-0.96,-1.08,-0.96,0.96,1.24,2.05,-0.12,-0.11,-0.12
284.99,-1.00,-0.90,-1.00,-0.90,0.90,1.20,2.01,-0.10,-0.10,-0.10
287.84,-0.92,-0.84,-0.92,-0.84,0.84,1.16,1.98,-0.08,-0.08,-0.08
290.72,-0.86,-0.80,-0.86,-0.80,0.79,1.12,1.95,-0.07,-0.07,-0.06
293.63,-0.80,-0.76,-0.80,-0.76,0.76,1.09,1.91,-0.04,-0.04,-0.04
296.57,-0.75,-0.73,-0.75,-0.73,0.73,1.06,1.88,-0.02,-0.02,-0.02
299.53,-0.70,-0.70,-0.71,-0.71,0.71,1.03,1.84,0.01,0.00,-0.00
302.53,-0.67,-0.69,-0.67,-0.69,0.70,1.00,1.81,0.03,0.03,0.02
305.55,-0.65,-0.70,-0.64,-0.69,0.69,0.97,1.77,0.04,0.05,0.05
308.61,-0.61,-0.68,-0.62,-0.69,0.69,0.95,1.74,0.08,0.07,0.07
311.69,-0.61,-0.71,-0.60,-0.70,0.70,0.93,1.70,0.09,0.10,0.10
314.81,-0.58,-0.71,-0.58,-0.70,0.70,0.91,1.67,0.12,0.12,0.13
317.96,-0.56,-0.71,-0.57,-0.72,0.71,0.89,1.63,0.15,0.14,0.15
321.14,-0.56,-0.73,-0.56,-0.73,0.72,0.87,1.60,0.16,0.16,0.17
324.35,-0.56,-0.75,-0.54,-0.73,0.73,0.86,1.57,0.17,0.19,0.19
327.59,-0.51,-0.72,-0.53,-0.74,0.74,0.84,1.54,0.23,0.21,0.21
330.87,-0.51,-0.74,-0.52,-0.74,0.75,0.83,1.50,0.24,0.23,0.23
334.18,-0.51,-0.76,-0.50,-0.75,0.76,0.82,1.47,0.25,0.25,0.25
337.52,-0.51,-0.78,-0.50,-0.77,0.76,0.81,1.44,0.25,0.27,0.27
340.90,-0.47,-0.76,-0.48,-0.77,0.77,0.80,1.41,0.30,0.29,0.29
344.30,-0.47,-0.78,-0.48,-0.79,0.78,0.79,1.39,0.31,0.31,0.31
347.75,-0.47,-0.80,-0.46,-0.79,0.79,0.78,1.36,0.32,0.33,0.33
351.23,-0.47,-0.82,-0.45,-0.80,0.80,0.77,1.33,0.33,0.34,0.35
354.74,-0.42,-0.79,-0.44,-0.80,0.80,0.77,1.31,0.38,0.37,0.37
358.28,-0.42,-0.80,-0.43,-0.81,0.81,0.76,1.29,0.39,0.38,0.38
361.87,-0.42,-0.82,-0.41,-0.81,0.81,0.76,1.26,0.39,0.40,0.40
365.49,-0.42,-0.84,-0.40,-0.82,0.82,0.75,1.24,0.40,0.41,0.42
369.14,-0.37,-0.80,-0.39,-0.82,0.82,0.75,1.22,0.45,0.44,0.43
372.83,-0.37,-0.82,-0.37,-0.82,0.83,0.75,1.20,0.46,0.45,0.45
376.56,-0.37,-0.83,-0.37,-0.83,0.83,0.74,1.18,0.46,0.46,0.46
380.33,-0.37,-0.85,-0.37,-0.84,0.83,0.74,1.16,0.46,0.47,0.48
384.13,-0.37,-0.86,-0.36,-0.84,0.84,0.74,1.15,0.47,0.48,0.49
387.97,-0.33,-0.83,-0.34,-0.84,0.85,0.74,1.13,0.52,0.50,0.50
391.85,-0.33,-0.84,-0.33,-0.84,0.85,0.74,1.11,0.52,0.52,0.51
395.77,-0.33,-0.86,-0.33,-0.85,0.86,0.74,1.10,0.53,0.54,0.53
399.73,-0.33,-0.87,-0.33,-0.87,0.87,0.75,1.09,0.54,0.54,0.54
403.72,-0.33,-0.88,-0.33,-0.88,0.88,0.75,1.07,0.55,0.55,0.55
407.76,-0.33,-0.89,-0.33,-0.89,0.88,0.75,1.06,0.55,0.55,0.56
411.84,-0.33,-0.90,-0.33,-0.90,0.89,0.75,1.05,0.56,0.56,0.57
415.96,-0.33,-0.91,-0.32,-0.90,0.89,0.76,1.04,0.56,0.57,0.58
420.12,-0.30,-0.89,-0.31,-0.89,0.89,0.76,1.03,0.59,0.59,0.59
424.32,-0.29,-0.89,-0.29,-0.89,0.90,0.77,1.02,0.61,0.61,0.60
428.56,-0.28,-0.89,-0.28,-0.89,0.90,0.77,1.01,0.62,0.62,0.61
432.85,-0.28,-0.90,-0.28,-0.90,0.91,0.78,1.01,0.63,0.63,0.62
437.18,-0.28,-0.91,-0.28,-0.91,0.91,0.78,1.00,0.63,0.63,0.63
441.55,-0.28,-0.93,-0.28,-0.92,0.92,0.79,0.99,0.64,0.64,0.65
445.96,-0.28,-0.94,-0.28,-0.94,0.94,0.80,0.99,0.66,0.66,0.66
450.42,-0.28,-0.95,-0.28,-0.95,0.95,0.81,0.98,0.67,0.67,0.67
454.93,-0.28,-0.97,-0.28,-0.96,0.96,0.81,0.98,0.68,0.68,0.69
459.48,-0.28,-0.98,-0.28,-0.98,0.98,0.82,0.97,0.70,0.69,0.70
464.07,-0.28,-0.99,-0.28,-0.99,0.98,0.83,0.97,0.70,0.70,0.71
468.71,-0.28,-1.01,-0.28,-1.00,0.99,0.84,0.96,0.71,0.72,0.73
473.40,-0.27,-1.01,-0.26,-1.00,1.00,0.85,0.96,0.73,0.74,0.74
478.13,-0.24,-1.00,-0.25,-1.00,1.01,0.86,0.96,0.77,0.76,0.76
482.91,-0.23,-1.00,-0.23,-1.01,1.02,0.87,0.95,0.79,0.78,0.77
487.74,-0.23,-1.02,-0.23,-1.02,1.03,0.88,0.95,0.80,0.80,0.79
492.62,-0.23,-1.04,-0.23,-1.03,1.04,0.89,0.95,0.81,0.81,0.81
497.55,-0.23,-1.05,-0.23,-1.05,1.05,0.90,0.94,0.82,0.81,0.82
502.52,-0.23,-1.07,-0.23,-1.07,1.06,0.92,0.94,0.83,0.83,0.84
507.55,-0.23,-1.08,-0.22,-1.07,1.07,0.93,0.94,0.84,0.84,0.85
512.62,-0.21,-1.08,-0.21,-1.08,1.08,0.94,0.94,0.87,0.87,0.87
517.75,-0.20,-1.09,-0.20,-1.09,1.09,0.95,0.94,0.89,0.89,0.89
522.93,-0.19,-1.10,-0.19,-1.10,1.10,0.97,0.93,0.91,0.91,0.91
528.16,-0.19,-1.11,-0.19,-1.11,1.12,0.98,0.93,0.93,0.93,0.92
533.44,-0.19,-1.13,-0.19,-1.13,1.13,0.99,0.93,0.94,0.94,0.94
