frequency,raw,error,smoothed,error_smoothed,equalization,parametric_eq,fixed_band_eq,equalized_raw,equalized_smoothed,target
20.00,-1.02,-8.75,-1.05,-8.80,8.80,8.43,2.55,7.78,7.75,7.73
20.20,-0.98,-8.74,-0.98,-8.75,8.75,8.35,2.63,7.77,7.77,7.76
20.40,-0.93,-8.72,-0.90,-8.70,8.70,8.27,2.70,7.76,7.79,7.79
20.61,-0.85,-8.65,-0.83,-8.64,8.64,8.19,2.78,7.80,7.81,7.81
20.81,-0.77,-8.61,-0.75,-8.58,8.58,8.11,2.85,7.81,7.83,7.84
21.02,-0.67,-8.54,-0.68,-8.52,8.52,8.03,2.93,7.85,7.84,7.87
21.23,-0.60,-8.48,-0.60,-8.46,8.46,7.95,3.02,7.86,7.86,7.88
21.44,-0.49,-8.38,-0.52,-8.39,8.39,7.87,3.10,7.90,7.87,7.89
21.66,-0.43,-8.33,-0.45,-8.33,8.33,7.79,3.19,7.89,7.88,7.90
21.87,-0.36,-8.26,-0.37,-8.26,8.26,7.71,3.28,7.90,7.89,7.90
22.09,-0.26,-8.17,-0.29,-8.19,8.19,7.62,3.37,7.92,7.90,7.90
22.31,-0.20,-8.11,-0.21,-8.11,8.11,7.54,3.47,7.91,7.90,7.90
22.54,-0.13,-8.04,-0.13,-8.03,8.03,7.46,3.57,7.90,7.90,7.90
22.76,-0.05,-7.96,-0.05,-7.95,7.95,7.38,3.66,7.90,7.90,7.90
22.99,0.04,-7.86,0.03,-7.87,7.87,7.31,3.77,7.91,7.90,7.89
23.22,0.10,-7.80,0.11,-7.79,7.79,7.23,3.87,7.88,7.90,7.89
23.45,0.21,-7.68,0.19,-7.70,7.70,7.15,3.98,7.91,7.90,7.89
23.69,0.27,-7.62,0.28,-7.62,7.62,7.07,4.09,7.88,7.90,7.89
23.92,0.38,-7.51,0.37,-7.53,7.53,6.99,4.20,7.90,7.89,7.89
24.16,0.44,-7.46,0.46,-7.43,7.43,6.91,4.31,7.87,7.89,7.90
24.40,0.55,-7.35,0.55,-7.34,7.34,6.84,4.42,7.89,7.89,7.90
24.65,0.64,-7.25,0.64,-7.24,7.24,6.76,4.54,7.88,7.89,7.89
24.89,0.74,-7.15,0.74,-7.14,7.14,6.68,4.65,7.88,7.88,7.89
25.14,0.84,-7.05,0.84,-7.04,7.04,6.60,4.77,7.88,7.88,7.88
25.39,0.94,-6.94,0.95,-6.94,6.94,6.53,4.89,7.87,7.88,7.88
25.65,1.05,-6.84,1.05,-6.83,6.83,6.45,5.01,7.88,7.88,7.88
25.91,1.15,-6.72,1.15,-6.73,6.73,6.38,5.13,7.88,7.88,7.87
26.16,1.26,-6.61,1.25,-6.62,6.62,6.30,5.25,7.88,7.87,7.87
26.43,1.36,-6.50,1.36,-6.51,6.51,6.23,5.36,7.88,7.87,7.87
26.69,1.46,-6.41,1.46,-6.41,6.41,6.16,5.48,7.87,7.87,7.87
26.96,1.56,-6.30,1.56,-6.30,6.30,6.08,5.59,7.87,7.86,7.87
27.23,1.67,-6.19,1.66,-6.20,6.20,6.01,5.71,7.88,7.86,7.86
27.50,1.76,-6.11,1.76,-6.10,6.10,5.94,5.81,7.86,7.86,7.86
27.77,1.87,-5.98,1.85,-6.00,6.00,5.86,5.92,7.87,7.85,7.85
28.05,1.93,-5.92,1.94,-5.91,5.91,5.79,6.02,7.83,7.85,7.85
28.33,2.04,-5.80,2.03,-5.81,5.81,5.72,6.11,7.85,7.84,7.84
28.62,2.11,-5.72,2.12,-5.72,5.72,5.65,6.20,7.84,7.84,7.84
28.90,2.21,-5.63,2.20,-5.63,5.63,5.58,6.28,7.84,7.84,7.83
29.19,2.29,-5.54,2.29,-5.54,5.54,5.51,6.35,7.83,7.83,7.82
29.48,2.39,-5.44,2.37,-5.45,5.45,5.44,6.42,7.84,7.82,7.83
29.78,2.45,-5.37,2.45,-5.37,5.37,5.38,6.47,7.81,7.82,7.82
30.08,2.52,-5.29,2.53,-5.28,5.28,5.31,6.52,7.81,7.81,7.82
30.38,2.61,-5.19,2.61,-5.20,5.20,5.24,6.56,7.82,7.81,7.81
30.68,2.68,-5.13,2.68,-5.12,5.12,5.17,6.58,7.79,7.80,7.80
30.99,2.76,-5.04,2.76,-5.04,5.04,5.11,6.60,7.79,7.79,7.79
31.30,2.83,-4.96,2.83,-4.95,4.95,5.04,6.60,7.78,7.79,7.79
31.61,2.91,-4.88,2.91,-4.87,4.87,4.98,6.60,7.78,7.78,7.79
31.93,2.99,-4.79,2.98,-4.79,4.79,4.91,6.58,7.78,7.77,7.77
32.24,3.06,-4.70,3.05,-4.71,4.71,4.85,6.56,7.77,7.77,7.76
32.57,3.12,-4.64,3.13,-4.63,4.63,4.79,6.52,7.75,7.76,7.76
32.89,3.20,-4.56,3.20,-4.55,4.55,4.72,6.47,7.75,7.75,7.75
33.22,3.27,-4.48,3.27,-4.48,4.48,4.66,6.42,7.74,7.74,7.74
33.55,3.33,-4.41,3.34,-4.40,4.40,4.60,6.36,7.73,7.73,7.74
33.89,3.41,-4.32,3.40,-4.32,4.32,4.54,6.29,7.73,7.73,7.73
34.23,3.48,-4.25,3.47,-4.25,4.25,4.48,6.21,7.72,7.72,7.72
34.57,3.54,-4.17,3.53,-4.18,4.18,4.42,6.12,7.71,7.71,7.71
34.92,3.61,-4.09,3.59,-4.10,4.10,4.36,6.03,7.71,7.70,7.70
35.27,3.67,-4.03,3.65,-4.03,4.03,4.30,5.94,7.70,7.69,7.69
35.62,3.73,-3.95,3.71,-3.96,3.96,4.24,5.84,7.69,7.68,7.68
35.97,3.77,-3.90,3.77,-3.90,3.90,4.18,5.74,7.66,7.67,7.66
36.33,3.82,-3.84,3.83,-3.83,3.83,4.13,5.63,7.65,7.66,7.66
36.70,3.87,-3.78,3.88,-3.76,3.76,4.07,5.53,7.63,7.64,7.64
37.06,3.93,-3.70,3.94,-3.70,3.70,4.02,5.42,7.62,7.63,7.63
37.43,4.00,-3.63,3.99,-3.63,3.63,3.96,5.31,7.63,7.62,7.62
37.81,4.05,-3.56,4.04,-3.57,3.57,3.91,5.20,7.62,7.61,7.61
38.19,4.09,-3.51,4.09,-3.51,3.51,3.85,5.09,7.59,7.60,7.60
38.57,4.14,-3.45,4.14,-3.45,3.45,3.80,4.98,7.58,7.58,7.59
38.95,4.19,-3.39,4.19,-3.38,3.38,3.74,4.87,7.57,7.57,7.57
39.34,4.24,-3.32,4.24,-3.32,3.32,3.69,4.76,7.56,7.56,7.56
39.74,4.29,-3.26,4.29,-3.26,3.26,3.64,4.66,7.55,7.55,7.54
40.14,4.34,-3.20,4.33,-3.20,3.20,3.59,4.55,7.54,7.54,7.54
40.54,4.38,-3.14,4.38,-3.15,3.15,3.54,4.45,7.52,7.53,7.52
40.94,4.42,-3.10,4.43,-3.09,3.09,3.49,4.35,7.51,7.51,7.51
41.35,4.48,-3.02,4.47,-3.03,3.03,3.44,4.25,7.51,7.50,7.50
41.76,4.52,-2.97,4.51,-2.97,2.97,3.39,4.15,7.49,7.49,7.49
42.18,4.56,-2.92,4.56,-2.92,2.92,3.34,4.06,7.47,7.47,7.48
42.60,4.59,-2.88,4.60,-2.86,2.86,3.30,3.97,7.45,7.46,7.46
43.03,4.65,-2.81,4.64,-2.80,2.80,3.25,3.88,7.45,7.44,7.46
43.46,4.68,-2.76,4.68,-2.75,2.75,3.20,3.80,7.43,7.43,7.44
43.90,4.71,-2.70,4.71,-2.70,2.70,3.16,3.71,7.40,7.41,7.41
44.33,4.76,-2.63,4.75,-2.64,2.64,3.11,3.63,7.40,7.39,7.39
44.78,4.79,-2.58,4.79,-2.59,2.59,3.07,3.56,7.38,7.38,7.37
45.23,4.82,-2.53,4.82,-2.54,2.54,3.02,3.48,7.35,7.36,7.35
45.68,4.86,-2.47,4.85,-2.49,2.49,2.98,3.41,7.34,7.34,7.33
46.13,4.87,-2.44,4.88,-2.44,2.44,2.94,3.34,7.31,7.32,7.31
46.60,4.91,-2.39,4.90,-2.39,2.39,2.89,3.27,7.30,7.30,7.30
47.06,4.93,-2.35,4.93,-2.34,2.34,2.85,3.21,7.27,7.27,7.28
47.53,4.96,-2.30,4.95,-2.30,2.30,2.81,3.15,7.25,7.25,7.26
48.01,4.96,-2.29,4.97,-2.26,2.26,2.77,3.09,7.21,7.22,7.24
48.49,5.01,-2.21,4.98,-2.22,2.22,2.73,3.03,7.22,7.20,7.21
48.97,5.01,-2.17,5.00,-2.18,2.18,2.69,2.97,7.19,7.18,7.18
49.46,5.01,-2.14,5.00,-2.15,2.15,2.65,2.92,7.15,7.15,7.14
49.96,5.01,-2.10,5.01,-2.12,2.12,2.61,2.87,7.12,7.13,7.11
50.46,5.01,-2.09,5.01,-2.09,2.09,2.58,2.82,7.09,7.10,7.10
50.96,5.01,-2.07,5.01,-2.06,2.06,2.54,2.78,7.07,7.07,7.07
51.47,5.01,-2.03,5.01,-2.04,2.04,2.50,2.73,7.04,7.04,7.04
51.99,5.01,-2.00,5.00,-2.02,2.02,2.47,2.69,7.02,7.02,7.01
52.51,5.01,-1.99,4.99,-2.00,2.00,2.43,2.65,7.01,6.99,6.99
53.03,4.96,-2.01,4.97,-1.99,1.99,2.40,2.61,6.94,6.96,6.97
53.56,4.96,-1.98,4.96,-1.98,1.98,2.37,2.57,6.93,6.93,6.94
54.10,4.96,-1.95,4.94,-1.97,1.97,2.33,2.53,6.93,6.91,6.91
54.64,4.91,-1.98,4.92,-1.96,1.96,2.30,2.50,6.87,6.88,6.88
55.18,4.91,-1.95,4.90,-1.96,1.96,2.27,2.46,6.87,6.86,6.85
55.74,4.87,-1.96,4.87,-1.96,1.96,2.24,2.43,6.82,6.83,6.82
56.29,4.85,-1.96,4.85,-1.95,1.95,2.21,2.39,6.80,6.80,6.80
56.86,4.82,-1.95,4.82,-1.95,1.95,2.18,2.36,6.77,6.78,6.77
57.42,4.79,-1.95,4.80,-1.95,1.95,2.15,2.33,6.74,6.75,6.74
58.00,4.77,-1.95,4.77,-1.95,1.95,2.12,2.30,6.71,6.72,6.71
58.58,4.73,-1.96,4.75,-1.94,1.94,2.09,2.27,6.67,6.69,6.69
59.16,4.73,-1.94,4.73,-1.93,1.93,2.07,2.24,6.66,6.66,6.67
59.76,4.68,-1.96,4.70,-1.93,1.93,2.04,2.21,6.61,6.63,6.64
60.35,4.68,-1.93,4.67,-1.92,1.92,2.02,2.17,6.60,6.60,6.61
60.96,4.63,-1.95,4.65,-1.92,1.92,1.99,2.14,6.55,6.57,6.58
61.57,4.62,-1.92,4.62,-1.92,1.92,1.97,2.11,6.53,6.53,6.53
62.18,4.59,-1.91,4.58,-1.92,1.92,1.95,2.08,6.50,6.50,6.49
62.80,4.54,-1.93,4.54,-1.92,1.92,1.93,2.05,6.46,6.47,6.46
63.43,4.50,-1.93,4.50,-1.94,1.94,1.91,2.02,6.43,6.43,6.42
64.07,4.47,-1.93,4.44,-1.96,1.96,1.89,1.99,6.42,6.40,6.39
64.71,4.41,-1.95,4.38,-1.99,1.99,1.87,1.96,6.39,6.36,6.36
65.35,4.33,-2.00,4.30,-2.03,2.03,1.86,1.92,6.35,6.33,6.33
66.01,4.26,-2.04,4.21,-2.08,2.08,1.84,1.89,6.34,6.29,6.29
66.67,4.16,-2.10,4.12,-2.14,2.14,1.83,1.86,6.30,6.26,6.26
67.33,4.07,-2.16,4.01,-2.21,2.21,1.81,1.83,6.28,6.22,6.22
68.01,3.94,-2.25,3.90,-2.29,2.29,1.80,1.79,6.23,6.19,6.19
68.69,3.82,-2.33,3.77,-2.38,2.38,1.80,1.76,6.19,6.15,6.15
69.37,3.67,-2.45,3.66,-2.46,2.46,1.79,1.73,6.12,6.11,6.11
70.07,3.56,-2.52,3.54,-2.54,2.54,1.78,1.69,6.09,6.08,6.07
70.77,3.43,-2.62,3.43,-2.61,2.61,1.78,1.66,6.03,6.04,6.04
71.48,3.32,-2.69,3.33,-2.66,2.66,1.78,1.63,5.98,6.00,6.00
72.19,3.19,-2.77,3.25,-2.71,2.71,1.78,1.60,5.89,5.96,5.96
72.91,3.14,-2.78,3.19,-2.72,2.72,1.79,1.56,5.86,5.92,5.92
73.64,3.07,-2.81,3.16,-2.72,2.72,1.80,1.53,5.78,5.88,5.87
74.38,3.05,-2.79,3.16,-2.68,2.68,1.81,1.50,5.72,5.84,5.84
75.12,3.06,-2.73,3.18,-2.62,2.62,1.83,1.47,5.67,5.80,5.79
75.87,3.11,-2.65,3.23,-2.53,2.53,1.85,1.44,5.64,5.76,5.75
76.63,3.19,-2.53,3.29,-2.43,2.43,1.88,1.41,5.61,5.72,5.72
77.40,3.27,-2.41,3.36,-2.32,2.32,1.91,1.38,5.58,5.68,5.68
78.17,3.38,-2.25,3.43,-2.20,2.20,1.95,1.35,5.58,5.63,5.63
78.95,3.49,-2.11,3.49,-2.10,2.10,2.00,1.32,5.59,5.59,5.60
79.74,3.60,-1.96,3.53,-2.02,2.02,2.05,1.29,5.61,5.55,5.55
80.54,3.71,-1.80,3.55,-1.96,1.96,2.11,1.26,5.66,5.51,5.51
81.35,3.77,-1.70,3.53,-1.93,1.93,2.17,1.24,5.70,5.47,5.47
82.16,3.73,-1.70,3.48,-1.94,1.94,2.24,1.21,5.67,5.42,5.42
82.98,3.62,-1.77,3.39,-1.99,1.99,2.32,1.19,5.60,5.38,5.39
83.81,3.47,-1.86,3.27,-2.06,2.06,2.40,1.16,5.53,5.33,5.33
84.65,3.26,-2.03,3.12,-2.17,2.17,2.47,1.14,5.43,5.29,5.28
85.50,3.02,-2.23,2.94,-2.30,2.30,2.55,1.12,5.32,5.24,5.24
86.35,2.75,-2.45,2.75,-2.44,2.44,2.62,1.09,5.19,5.20,5.20
87.22,2.47,-2.68,2.56,-2.59,2.59,2.67,1.07,5.06,5.15,5.15
88.09,2.24,-2.86,2.36,-2.73,2.73,2.70,1.05,4.97,5.10,5.10
88.97,2.02,-3.04,2.19,-2.86,2.86,2.71,1.03,4.88,5.05,5.05
89.86,1.86,-3.15,2.04,-2.96,2.96,2.69,1.01,4.82,5.00,5.00
90.76,1.76,-3.18,1.92,-3.03,3.03,2.65,0.99,4.79,4.95,4.94
91.66,1.70,-3.20,1.84,-3.06,3.06,2.58,0.97,4.75,4.89,4.90
92.58,1.70,-3.14,1.80,-3.04,3.04,2.50,0.96,4.74,4.84,4.83
93.51,1.74,-3.05,1.80,-2.99,2.99,2.40,0.94,4.73,4.79,4.79
94.44,1.79,-2.95,1.83,-2.90,2.90,2.29,0.92,4.69,4.73,4.73
95.39,1.91,-2.77,1.90,-2.77,2.77,2.18,0.91,4.68,4.67,4.68
96.34,2.02,-2.60,1.99,-2.62,2.62,2.06,0.89,4.64,4.62,4.61
97.30,2.14,-2.42,2.11,-2.45,2.45,1.95,0.88,4.59,4.56,4.56
98.28,2.27,-2.23,2.23,-2.27,2.27,1.85,0.87,4.54,4.50,4.50
99.26,2.40,-2.05,2.36,-2.08,2.08,1.75,0.85,4.48,4.45,4.44
100.25,2.54,-1.85,2.49,-1.90,1.90,1.66,0.84,4.43,4.39,4.39
101.25,2.67,-1.66,2.61,-1.72,1.72,1.58,0.83,4.38,4.33,4.33
102.27,2.78,-1.50,2.73,-1.54,1.54,1.50,0.82,4.31,4.27,4.27
103.29,2.89,-1.32,2.84,-1.37,1.37,1.43,0.80,4.26,4.21,4.20
104.32,2.97,-1.19,2.94,-1.21,1.21,1.36,0.79,4.18,4.16,4.16
105.37,3.07,-1.03,3.03,-1.06,1.06,1.30,0.78,4.13,4.10,4.10
106.42,3.12,-0.92,3.11,-0.93,0.93,1.25,0.77,4.04,4.04,4.04
107.48,3.18,-0.81,3.18,-0.80,0.80,1.20,0.77,3.97,3.98,3.98
108.56,3.23,-0.69,3.24,-0.67,0.67,1.15,0.76,3.90,3.92,3.92
109.64,3.28,-0.58,3.30,-0.56,0.56,1.11,0.75,3.84,3.86,3.86
110.74,3.31,-0.49,3.34,-0.46,0.46,1.07,0.74,3.76,3.79,3.80
111.85,3.35,-0.40,3.37,-0.36,0.36,1.03,0.73,3.71,3.73,3.74
112.97,3.38,-0.29,3.39,-0.28,0.28,1.00,0.73,3.66,3.67,3.67
114.10,3.39,-0.22,3.40,-0.21,0.21,0.97,0.72,3.60,3.61,3.61
115.24,3.42,-0.13,3.39,-0.15,0.15,0.94,0.71,3.57,3.55,3.54
116.39,3.42,-0.06,3.37,-0.11,0.11,0.91,0.71,3.53,3.48,3.48
117.55,3.38,-0.04,3.34,-0.08,0.08,0.89,0.70,3.46,3.42,3.41
118.73,3.36,0.01,3.29,-0.07,0.07,0.86,0.69,3.42,3.36,3.35
119.92,3.30,0.00,3.23,-0.06,0.06,0.84,0.69,3.36,3.29,3.29
121.12,3.22,-0.01,3.16,-0.07,0.07,0.82,0.68,3.29,3.23,3.23
122.33,3.13,-0.04,3.09,-0.08,0.08,0.80,0.68,3.21,3.17,3.17
123.55,3.02,-0.10,3.01,-0.10,0.10,0.78,0.67,3.11,3.11,3.11
124.79,2.91,-0.14,2.93,-0.12,0.12,0.76,0.67,3.02,3.04,3.05
126.03,2.80,-0.19,2.85,-0.13,0.13,0.75,0.66,2.93,2.98,2.99
127.29,2.72,-0.21,2.78,-0.14,0.14,0.73,0.66,2.86,2.92,2.93
128.57,2.63,-0.23,2.71,-0.15,0.15,0.72,0.66,2.78,2.86,2.86
129.85,2.59,-0.21,2.66,-0.15,0.15,0.70,0.65,2.73,2.80,2.80
131.15,2.54,-0.21,2.61,-0.13,0.13,0.69,0.65,2.67,2.75,2.74
132.46,2.54,-0.15,2.58,-0.11,0.11,0.68,0.64,2.65,2.69,2.68
133.79,2.54,-0.10,2.55,-0.08,0.08,0.67,0.64,2.62,2.63,2.64
135.12,2.54,-0.04,2.54,-0.04,0.04,0.65,0.64,2.58,2.58,2.57
136.48,2.55,0.02,2.52,0.00,-0.00,0.64,0.63,2.55,2.52,2.53
137.84,2.56,0.08,2.52,0.05,-0.05,0.63,0.63,2.51,2.47,2.47
139.22,2.54,0.13,2.51,0.09,-0.09,0.62,0.63,2.45,2.42,2.41
140.61,2.54,0.18,2.50,0.13,-0.13,0.61,0.63,2.41,2.37,2.36
142.02,2.52,0.19,2.48,0.16,-0.16,0.60,0.63,2.36,2.32,2.33
143.44,2.49,0.21,2.46,0.19,-0.19,0.60,0.62,2.30,2.27,2.28
144.87,2.46,0.23,2.43,0.20,-0.20,0.59,0.62,2.25,2.23,2.23
146.32,2.40,0.22,2.40,0.21,-0.21,0.58,0.62,2.18,2.18,2.18
147.78,2.37,0.22,2.35,0.22,-0.22,0.57,0.62,2.15,2.13,2.14
149.26,2.31,0.21,2.30,0.21,-0.21,0.56,0.62,2.09,2.09,2.09
150.75,2.24,0.20,2.24,0.20,-0.20,0.56,0.62,2.03,2.04,2.04
152.26,2.18,0.18,2.19,0.19,-0.19,0.55,0.62,1.98,1.99,1.99
153.78,2.12,0.16,2.12,0.18,-0.18,0.55,0.62,1.94,1.95,1.95
155.32,2.05,0.15,2.06,0.16,-0.16,0.54,0.62,1.89,1.90,1.90
156.88,1.99,0.13,2.00,0.14,-0.14,0.53,0.63,1.84,1.85,1.86
158.44,1.92,0.11,1.93,0.13,-0.13,0.53,0.63,1.79,1.81,1.81
160.03,1.86,0.10,1.87,0.11,-0.11,0.52,0.63,1.75,1.76,1.76
161.63,1.79,0.08,1.80,0.09,-0.09,0.52,0.63,1.70,1.72,1.71
163.24,1.72,0.05,1.74,0.07,-0.07,0.51,0.64,1.65,1.67,1.66
164.88,1.65,0.02,1.67,0.04,-0.04,0.51,0.64,1.60,1.62,1.62
166.53,1.60,0.02,1.59,0.02,-0.02,0.51,0.64,1.58,1.58,1.58
168.19,1.52,-0.02,1.52,-0.02,0.02,0.50,0.65,1.53,1.53,1.53
169.87,1.44,-0.05,1.43,-0.06,0.06,0.50,0.65,1.49,1.49,1.49
171.57,1.36,-0.09,1.34,-0.11,0.11,0.50,0.66,1.46,1.44,1.45
173.29,1.27,-0.14,1.24,-0.16,0.16,0.49,0.67,1.43,1.40,1.41
175.02,1.17,-0.20,1.13,-0.23,0.23,0.49,0.67,1.39,1.36,1.36
176.77,1.06,-0.26,1.01,-0.30,0.30,0.49,0.68,1.36,1.31,1.31
178.54,0.93,-0.34,0.88,-0.39,0.39,0.48,0.69,1.31,1.27,1.26
180.32,0.78,-0.45,0.75,-0.47,0.47,0.48,0.69,1.25,1.23,1.23
182.13,0.64,-0.55,0.62,-0.57,0.57,0.48,0.70,1.20,1.19,1.19
183.95,0.48,-0.66,0.48,-0.67,0.67,0.48,0.71,1.14,1.14,1.14
185.79,0.33,-0.78,0.34,-0.76,0.76,0.48,0.72,1.09,1.10,1.11
187.65,0.17,-0.89,0.20,-0.87,0.87,0.48,0.73,1.03,1.06,1.06
189.52,0.03,-1.00,0.06,-0.97,0.97,0.47,0.74,0.99,1.03,1.03
191.42,-0.11,-1.10,-0.07,-1.06,1.06,0.47,0.75,0.95,0.99,0.99
193.33,-0.25,-1.21,-0.20,-1.16,1.16,0.47,0.76,0.91,0.96,0.96
195.27,-0.34,-1.27,-0.33,-1.25,1.25,0.47,0.77,0.91,0.92,0.93
197.22,-0.44,-1.34,-0.45,-1.34,1.34,0.47,0.79,0.90,0.89,0.89
199.19,-0.55,-1.41,-0.56,-1.43,1.43,0.47,0.80,0.87,0.86,0.85
201.18,-0.64,-1.48,-0.67,-1.51,1.51,0.47,0.81,0.86,0.84,0.83
203.19,-0.73,-1.55,-0.77,-1.58,1.58,0.47,0.82,0.85,0.81,0.81
205.23,-0.83,-1.62,-0.86,-1.65,1.65,0.47,0.83,0.82,0.79,0.78
207.28,-0.93,-1.71,-0.95,-1.72,1.72,0.47,0.85,0.78,0.77,0.78
209.35,-1.00,-1.75,-1.03,-1.77,1.77,0.47,0.86,0.77,0.75,0.75
211.44,-1.09,-1.81,-1.09,-1.82,1.82,0.47,0.87,0.73,0.73,0.72
213.56,-1.16,-1.88,-1.15,-1.87,1.87,0.48,0.88,0.70,0.71,0.71
215.69,-1.22,-1.93,-1.20,-1.90,1.90,0.48,0.90,0.67,0.70,0.71
217.85,-1.27,-1.97,-1.23,-1.92,1.92,0.48,0.91,0.65,0.69,0.69
220.03,-1.29,-1.97,-1.25,-1.93,1.93,0.48,0.92,0.64,0.68,0.68
222.23,-1.29,-1.96,-1.25,-1.93,1.93,0.48,0.93,0.63,0.67,0.66
224.45,-1.28,-1.95,-1.25,-1.91,1.91,0.48,0.94,0.63,0.67,0.67
226.70,-1.24,-1.91,-1.23,-1.89,1.89,0.49,0.95,0.65,0.66,0.67
228.96,-1.20,-1.87,-1.19,-1.85,1.85,0.49,0.96,0.65,0.66,0.66
231.25,-1.13,-1.80,-1.15,-1.81,1.81,0.49,0.97,0.68,0.66,0.67
233.57,-1.08,-1.75,-1.10,-1.76,1.76,0.49,0.98,0.67,0.66,0.67
235.90,-1.01,-1.68,-1.03,-1.70,1.70,0.50,0.99,0.69,0.67,0.67
238.26,-0.93,-1.60,-0.97,-1.64,1.64,0.50,1.00,0.70,0.67,0.66
240.64,-0.87,-1.55,-0.90,-1.57,1.57,0.50,1.00,0.70,0.68,0.67
243.05,-0.80,-1.49,-0.82,-1.51,1.51,0.51,1.01,0.70,0.68,0.68
245.48,-0.74,-1.44,-0.75,-1.44,1.44,0.51,1.01,0.70,0.69,0.69
247.93,-0.67,-1.38,-0.67,-1.38,1.38,0.51,1.01,0.70,0.70,0.70
250.41,-0.59,-1.30,-0.60,-1.31,1.31,0.52,1.01,0.72,0.71,0.70
252.92,-0.51,-1.24,-0.52,-1.25,1.25,0.52,1.02,0.73,0.73,0.72
255.45,-0.44,-1.19,-0.44,-1.18,1.18,0.52,1.02,0.74,0.74,0.75
258.00,-0.36,-1.12,-0.36,-1.11,1.11,0.53,1.01,0.75,0.76,0.76
260.58,-0.28,-1.05,-0.27,-1.04,1.04,0.53,1.01,0.76,0.77,0.77
263.19,-0.19,-0.98,-0.18,-0.97,0.97,0.54,1.01,0.78,0.79,0.79
265.82,-0.10,-0.91,-0.09,-0.90,0.90,0.54,1.01,0.80,0.81,0.80
268.48,-0.02,-0.85,0.00,-0.82,0.82,0.55,1.00,0.80,0.82,0.83
271.16,0.09,-0.76,0.10,-0.75,0.75,0.55,1.00,0.83,0.84,0.85
273.87,0.18,-0.69,0.19,-0.67,0.67,0.56,0.99,0.85,0.86,0.86
276.61,0.29,-0.60,0.29,-0.59,0.59,0.56,0.98,0.88,0.88,0.89
279.38,0.37,-0.53,0.38,-0.52,0.52,0.57,0.98,0.88,0.90,0.90
282.17,0.48,-0.44,0.47,-0.45,0.45,0.58,0.97,0.92,0.92,0.91
284.99,0.58,-0.36,0.56,-0.38,0.38,0.58,0.96,0.95,0.93,0.94
287.84,0.65,-0.31,0.64,-0.32,0.32,0.59,0.95,0.96,0.95,0.95
290.72,0.74,-0.24,0.71,-0.26,0.26,0.59,0.94,1.00,0.97,0.98
293.63,0.80,-0.20,0.78,-0.21,0.21,0.60,0.93,1.01,1.00,0.99
296.57,0.86,-0.16,0.84,-0.18,0.18,0.61,0.92,1.03,1.02,1.02
299.53,0.90,-0.14,0.89,-0.15,0.15,0.61,0.92,1.04,1.04,1.03
302.53,0.95,-0.10,0.93,-0.13,0.13,0.62,0.91,1.07,1.06,1.05
305.55,0.99,-0.10,0.96,-0.12,0.12,0.63,0.90,1.10,1.08,1.08
308.61,1.00,-0.10,0.99,-0.11,0.11,0.63,0.89,1.11,1.10,1.10
311.69,1.00,-0.13,1.01,-0.12,0.12,0.64,0.88,1.11,1.12,1.12
314.81,1.02,-0.14,1.02,-0.13,0.13,0.65,0.87,1.15,1.15,1.16
317.96,1.04,-0.14,1.02,-0.15,0.15,0.66,0.87,1.18,1.17,1.18
321.14,1.02,-0.18,1.02,-0.17,0.17,0.66,0.86,1.19,1.19,1.19
324.35,1.00,-0.21,1.01,-0.20,0.20,0.67,0.85,1.20,1.21,1.21
327.59,1.00,-0.24,1.00,-0.23,0.23,0.68,0.85,1.23,1.23,1.24
330.87,1.00,-0.26,0.99,-0.26,0.26,0.69,0.84,1.26,1.25,1.25
334.18,0.97,-0.30,0.97,-0.30,0.30,0.70,0.83,1.27,1.27,1.27
337.52,0.95,-0.34,0.95,-0.34,0.34,0.70,0.83,1.28,1.29,1.29
340.90,0.95,-0.37,0.94,-0.37,0.37,0.71,0.83,1.32,1.31,1.31
344.30,0.91,-0.42,0.92,-0.41,0.41,0.72,0.82,1.32,1.33,1.33
347.75,0.90,-0.45,0.90,-0.45,0.45,0.73,0.82,1.34,1.35,1.35
351.23,0.89,-0.48,0.88,-0.48,0.48,0.74,0.82,1.37,1.36,1.36
354.74,0.86,-0.53,0.86,-0.52,0.52,0.75,0.81,1.38,1.38,1.38
358.28,0.86,-0.54,0.85,-0.55,0.55,0.76,0.81,1.41,1.40,1.40
361.87,0.86,-0.56,0.84,-0.58,0.58,0.77,0.81,1.43,1.42,1.42
365.49,0.81,-0.63,0.83,-0.60,0.60,0.78,0.81,1.41,1.43,1.44
369.14,0.81,-0.64,0.82,-0.62,0.62,0.79,0.81,1.43,1.45,1.44
372.83,0.81,-0.65,0.82,-0.64,0.64,0.80,0.81,1.45,1.46,1.46
376.56,0.81,-0.66,0.82,-0.65,0.65,0.81,0.81,1.46,1.48,1.47
380.33,0.81,-0.69,0.82,-0.67,0.67,0.81,0.82,1.47,1.49,1.50
384.13,0.81,-0.70,0.83,-0.67,0.67,0.82,0.82,1.48,1.50,1.51
387.97,0.83,-0.69,0.83,-0.68,0.68,0.83,0.82,1.51,1.51,1.51
391.85,0.86,-0.67,0.84,-0.69,0.69,0.84,0.83,1.55,1.53,1.52
395.77,0.86,-0.68,0.84,-0.70,0.70,0.85,0.83,1.55,1.54,1.54
399.73,0.86,-0.69,0.84,-0.71,0.71,0.86,0.84,1.56,1.55,1.55
403.72,0.86,-0.70,0.85,-0.71,0.71,0.87,0.84,1.57,1.56,1.56
407.76,0.86,-0.71,0.85,-0.72,0.72,0.89,0.85,1.58,1.57,1.57
411.84,0.86,-0.73,0.84,-0.74,0.74,0.90,0.85,1.59,1.58,1.58
415.96,0.86,-0.74,0.84,-0.75,0.75,0.91,0.86,1.61,1.59,1.59
420.12,0.85,-0.76,0.83,-0.77,0.77,0.92,0.87,1.61,1.60,1.60
424.32,0.81,-0.80,0.82,-0.79,0.79,0.93,0.88,1.59,1.61,1.61
428.56,0.81,-0.81,0.81,-0.81,0.81,0.94,0.88,1.62,1.62,1.62
432.85,0.81,-0.82,0.79,-0.84,0.84,0.95,0.89,1.65,1.63,1.63
437.18,0.76,-0.88,0.78,-0.87,0.87,0.96,0.90,1.62,1.64,1.64
441.55,0.76,-0.90,0.76,-0.89,0.89,0.97,0.91,1.65,1.65,1.66
445.96,0.76,-0.91,0.74,-0.92,0.92,0.98,0.92,1.68,1.67,1.67
450.42,0.72,-0.96,0.73,-0.95,0.95,0.99,0.93,1.67,1.68,1.67
454.93,0.72,-0.98,0.72,-0.98,0.98,1.00,0.94,1.69,1.69,1.69
459.48,0.72,-0.99,0.70,-1.00,1.00,1.01,0.95,1.72,1.71,1.70
464.07,0.68,-1.05,0.69,-1.03,1.03,1.02,0.96,1.70,1.72,1.72
468.71,0.67,-1.07,0.68,-1.05,1.05,1.03,0.97,1.72,1.73,1.74
473.40,0.67,-1.08,0.68,-1.07,1.07,1.05,0.98,1.74,1.75,1.75
478.13,0.67,-1.10,0.67,-1.09,1.09,1.06,0.99,1.76,1.77,1.77
482.91,0.67,-1.11,0.67,-1.11,1.11,1.07,1.00,1.78,1.78,1.78
487.74,0.67,-1.13,0.67,-1.13,1.13,1.08,1.01,1.80,1.80,1.80
492.62,0.67,-1.15,0.67,-1.15,1.15,1.09,1.02,1.81,1.81,1.82
497.55,0.67,-1.16,0.67,-1.16,1.16,1.11,1.03,1.83,1.83,1.83
502.52,0.67,-1.18,0.67,-1.18,1.18,1.12,1.04,1.84,1.84,1.85
507.55,0.67,-1.19,0.66,-1.20,1.20,1.13,1.05,1.86,1.86,1.86
512.62,0.67,-1.21,0.66,-1.21,1.21,1.15,1.06,1.88,1.88,1.87
517.75,0.67,-1.23,0.66,-1.23,1.23,1.16,1.08,1.90,1.89,1.89
522.93,0.67,-1.25,0.66,-1.25,1.25,1.18,1.09,1.92,1.91,1.91
528.16,0.67,-1.26,0.66,-1.27,1.27,1.19,1.10,1.94,1.93,1.92
533.44,0.67,-1.28,0.65,-1.29,1.29,1.21,1.11,1.96,1.94,1.94
538.77,0.67,-1.30,0.65,-1.31,1.31,1.22,1.12,1.98,1.96,1.96
544.16,0.65,-1.34,0.64,-1.34,1.34,1.24,1.14,1.98,1.98,1.98
549.60,0.62,-1.38,0.64,-1.36,1.36,1.26,1.15,1.97,1.99,2.00
555.10,0.62,-1.39,0.63,-1.38,1.38,1.28,1.16,1.99,2.01,2.01
560.65,0.62,-1.41,0.63,-1.40,1.40,1.30,1.18,2.02,2.03,2.03
566.25,0.62,-1.43,0.62,-1.42,1.42,1.32,1.19,2.04,2.04,2.05
571.92,0.62,-1.44,0.62,-1.44,1.44,1.34,1.20,2.05,2.06,2.06
