frequency,raw,error,smoothed,error_smoothed,equalization,parametric_eq,fixed_band_eq,equalized_raw,equalized_smoothed,target
20.00,-11.01,-15.74,-11.00,-15.77,15.77,15.37,6.31,4.76,4.76,4.74
20.20,-10.89,-15.71,-10.88,-15.72,15.72,15.43,6.45,4.84,4.84,4.83
20.40,-10.76,-15.67,-10.76,-15.68,15.68,15.47,6.60,4.91,4.91,4.91
20.61,-10.64,-15.61,-10.64,-15.62,15.62,15.49,6.75,4.99,4.98,4.97
20.81,-10.52,-15.58,-10.52,-15.57,15.57,15.51,6.91,5.06,5.05,5.07
21.02,-10.40,-15.54,-10.40,-15.51,15.51,15.51,7.07,5.12,5.12,5.14
21.23,-10.27,-15.47,-10.27,-15.45,15.45,15.50,7.24,5.19,5.18,5.20
21.44,-10.14,-15.41,-10.15,-15.39,15.39,15.48,7.41,5.24,5.24,5.26
21.66,-10.03,-15.34,-10.02,-15.32,15.32,15.44,7.59,5.29,5.30,5.31
21.87,-9.89,-15.26,-9.90,-15.25,15.25,15.40,7.77,5.36,5.35,5.36
22.09,-9.77,-15.19,-9.77,-15.18,15.18,15.34,7.95,5.40,5.41,5.41
22.31,-9.64,-15.11,-9.64,-15.10,15.10,15.28,8.14,5.46,5.46,5.46
22.54,-9.52,-15.02,-9.52,-15.02,15.02,15.20,8.34,5.50,5.50,5.50
22.76,-9.39,-14.93,-9.39,-14.93,14.93,15.12,8.54,5.55,5.54,5.54
22.99,-9.27,-14.84,-9.26,-14.84,14.84,15.03,8.74,5.58,5.58,5.57
23.22,-9.14,-14.74,-9.13,-14.75,14.75,14.93,8.95,5.61,5.62,5.61
23.45,-9.00,-14.64,-9.00,-14.66,14.66,14.83,9.17,5.66,5.66,5.65
23.69,-8.87,-14.55,-8.87,-14.56,14.56,14.72,9.39,5.69,5.69,5.69
23.92,-8.73,-14.46,-8.74,-14.46,14.46,14.61,9.62,5.73,5.73,5.73
24.16,-8.61,-14.38,-8.60,-14.37,14.37,14.50,9.86,5.76,5.76,5.78
24.40,-8.47,-14.28,-8.47,-14.27,14.27,14.38,10.10,5.79,5.80,5.80
24.65,-8.34,-14.17,-8.34,-14.17,14.17,14.25,10.35,5.83,5.83,5.83
24.89,-8.20,-14.07,-8.20,-14.07,14.07,14.13,10.60,5.87,5.87,5.86
25.14,-8.06,-13.97,-8.07,-13.97,13.97,14.01,10.86,5.90,5.90,5.90
25.39,-7.93,-13.86,-7.94,-13.87,13.87,13.88,11.13,5.93,5.93,5.93
25.65,-7.80,-13.77,-7.80,-13.77,13.77,13.75,11.40,5.97,5.96,5.97
25.91,-7.67,-13.66,-7.67,-13.66,13.66,13.63,11.68,5.99,6.00,5.99
26.16,-7.52,-13.54,-7.53,-13.56,13.56,13.50,11.96,6.03,6.03,6.02
26.43,-7.40,-13.45,-7.40,-13.45,13.45,13.37,12.24,6.05,6.06,6.06
26.69,-7.27,-13.35,-7.26,-13.35,13.35,13.25,12.54,6.08,6.08,6.08
26.96,-7.13,-13.24,-7.13,-13.24,13.24,13.13,12.83,6.11,6.11,6.11
27.23,-7.00,-13.15,-6.99,-13.14,13.14,13.00,13.12,6.14,6.14,6.15
27.50,-6.86,-13.04,-6.86,-13.03,13.03,12.88,13.42,6.17,6.17,6.18
27.77,-6.71,-12.91,-6.72,-12.92,12.92,12.76,13.71,6.21,6.20,6.20
28.05,-6.58,-12.81,-6.58,-12.81,12.81,12.64,14.00,6.24,6.23,6.24
28.33,-6.45,-12.70,-6.44,-12.71,12.71,12.52,14.28,6.26,6.26,6.26
28.62,-6.31,-12.59,-6.30,-12.60,12.60,12.41,14.55,6.29,6.29,6.28
28.90,-6.17,-12.49,-6.16,-12.49,12.49,12.29,14.81,6.32,6.32,6.32
29.19,-6.03,-12.37,-6.02,-12.37,12.37,12.18,15.05,6.35,6.35,6.34
29.48,-5.89,-12.27,-5.88,-12.26,12.26,12.07,15.27,6.38,6.38,6.39
29.78,-5.75,-12.15,-5.74,-12.15,12.15,11.96,15.46,6.40,6.41,6.41
30.08,-5.60,-12.03,-5.60,-12.03,12.03,11.85,15.62,6.43,6.43,6.43
30.38,-5.46,-11.92,-5.46,-11.92,11.92,11.74,15.75,6.46,6.46,6.46
30.68,-5.32,-11.81,-5.32,-11.80,11.80,11.64,15.84,6.49,6.49,6.49
30.99,-5.18,-11.69,-5.18,-11.69,11.69,11.53,15.88,6.51,6.51,6.51
31.30,-5.04,-11.57,-5.04,-11.57,11.57,11.43,15.88,6.54,6.54,6.54
31.61,-4.89,-11.45,-4.89,-11.46,11.46,11.33,15.84,6.57,6.56,6.56
31.93,-4.75,-11.33,-4.76,-11.34,11.34,11.22,15.76,6.59,6.58,6.58
32.24,-4.61,-11.21,-4.62,-11.22,11.22,11.12,15.63,6.61,6.61,6.60
32.57,-4.48,-11.10,-4.48,-11.10,11.10,11.02,15.47,6.63,6.63,6.62
32.89,-4.34,-10.99,-4.34,-10.99,10.99,10.92,15.28,6.65,6.65,6.65
33.22,-4.21,-10.87,-4.20,-10.87,10.87,10.82,15.06,6.66,6.67,6.67
33.55,-4.06,-10.75,-4.06,-10.75,10.75,10.71,14.81,6.68,6.68,6.69
33.89,-3.93,-10.62,-3.93,-10.62,10.62,10.61,14.55,6.70,6.70,6.69
34.23,-3.80,-10.52,-3.79,-10.50,10.50,10.51,14.27,6.70,6.71,6.72
34.57,-3.66,-10.38,-3.65,-10.38,10.38,10.40,13.98,6.72,6.72,6.73
34.92,-3.52,-10.25,-3.52,-10.25,10.25,10.30,13.69,6.73,6.73,6.73
35.27,-3.39,-10.14,-3.38,-10.13,10.13,10.19,13.38,6.74,6.74,6.75
35.62,-3.25,-9.99,-3.25,-10.00,10.00,10.08,13.08,6.75,6.75,6.74
35.97,-3.11,-9.87,-3.11,-9.87,9.87,9.97,12.77,6.75,6.76,6.75
36.33,-2.97,-9.74,-2.98,-9.74,9.74,9.86,12.47,6.76,6.76,6.77
36.70,-2.84,-9.60,-2.84,-9.60,9.60,9.75,12.17,6.76,6.76,6.76
37.06,-2.70,-9.46,-2.71,-9.47,9.47,9.64,11.87,6.76,6.76,6.76
37.43,-2.57,-9.34,-2.57,-9.33,9.33,9.52,11.58,6.76,6.76,6.76
37.81,-2.45,-9.20,-2.44,-9.20,9.20,9.40,11.29,6.75,6.76,6.76
38.19,-2.32,-9.07,-2.31,-9.06,9.06,9.28,11.00,6.75,6.75,6.75
38.57,-2.19,-8.94,-2.18,-8.93,8.93,9.16,10.73,6.74,6.75,6.76
38.95,-2.05,-8.81,-2.05,-8.80,8.80,9.04,10.45,6.74,6.75,6.75
39.34,-1.92,-8.66,-1.93,-8.67,8.67,8.91,10.19,6.74,6.74,6.74
39.74,-1.80,-8.53,-1.80,-8.54,8.54,8.78,9.93,6.74,6.74,6.73
40.14,-1.68,-8.40,-1.68,-8.41,8.41,8.66,9.67,6.73,6.73,6.72
40.54,-1.56,-8.27,-1.57,-8.29,8.29,8.53,9.42,6.73,6.72,6.72
40.94,-1.45,-8.16,-1.45,-8.16,8.16,8.39,9.18,6.72,6.71,6.71
41.35,-1.34,-8.04,-1.34,-8.04,8.04,8.26,8.94,6.71,6.70,6.70
41.76,-1.23,-7.92,-1.23,-7.92,7.92,8.13,8.71,6.70,6.69,6.70
42.18,-1.13,-7.81,-1.12,-7.80,7.80,7.99,8.49,6.68,6.68,6.69
42.60,-1.02,-7.69,-1.02,-7.69,7.69,7.86,8.27,6.68,6.67,6.67
43.03,-0.92,-7.59,-0.92,-7.58,7.58,7.72,8.05,6.66,6.66,6.67
43.46,-0.83,-7.48,-0.82,-7.47,7.47,7.58,7.84,6.64,6.65,6.65
43.90,-0.73,-7.36,-0.73,-7.36,7.36,7.45,7.64,6.64,6.63,6.64
44.33,-0.64,-7.25,-0.64,-7.26,7.26,7.31,7.44,6.62,6.62,6.62
44.78,-0.55,-7.15,-0.54,-7.16,7.16,7.17,7.24,6.61,6.61,6.61
45.23,-0.46,-7.04,-0.46,-7.06,7.06,7.03,7.05,6.60,6.60,6.59
45.68,-0.37,-6.94,-0.37,-6.95,6.95,6.89,6.87,6.59,6.59,6.58
46.13,-0.28,-6.84,-0.28,-6.86,6.86,6.75,6.69,6.58,6.57,6.57
46.60,-0.20,-6.76,-0.20,-6.76,6.76,6.62,6.51,6.56,6.56,6.57
47.06,-0.11,-6.66,-0.11,-6.66,6.66,6.48,6.33,6.55,6.55,6.55
47.53,-0.03,-6.57,-0.03,-6.57,6.57,6.34,6.16,6.54,6.54,6.54
48.01,0.05,-6.49,0.06,-6.47,6.47,6.21,6.00,6.52,6.53,6.54
48.49,0.14,-6.39,0.14,-6.38,6.38,6.07,5.84,6.52,6.52,6.53
48.97,0.23,-6.28,0.23,-6.28,6.28,5.94,5.68,6.52,6.51,6.52
49.46,0.31,-6.18,0.32,-6.19,6.19,5.80,5.52,6.50,6.51,6.49
49.96,0.40,-6.07,0.40,-6.09,6.09,5.67,5.37,6.50,6.50,6.48
50.46,0.49,-5.99,0.49,-6.00,6.00,5.54,5.22,6.49,6.49,6.48
50.96,0.58,-5.90,0.59,-5.90,5.90,5.41,5.07,6.48,6.49,6.49
51.47,0.68,-5.79,0.68,-5.80,5.80,5.28,4.93,6.48,6.48,6.47
51.99,0.78,-5.68,0.78,-5.69,5.69,5.15,4.79,6.48,6.47,6.47
52.51,0.87,-5.60,0.88,-5.59,5.59,5.02,4.65,6.46,6.46,6.47
53.03,0.97,-5.49,0.98,-5.47,5.47,4.90,4.51,6.45,6.46,6.46
53.56,1.08,-5.37,1.09,-5.36,5.36,4.77,4.38,6.44,6.45,6.46
54.10,1.19,-5.25,1.20,-5.24,5.24,4.65,4.25,6.43,6.44,6.45
54.64,1.31,-5.12,1.31,-5.11,5.11,4.53,4.12,6.43,6.43,6.43
55.18,1.43,-4.99,1.43,-4.98,4.98,4.40,4.00,6.42,6.42,6.42
55.74,1.54,-4.86,1.56,-4.85,4.85,4.28,3.88,6.39,6.41,6.40
56.29,1.67,-4.71,1.68,-4.71,4.71,4.17,3.76,6.38,6.39,6.39
56.86,1.81,-4.55,1.81,-4.56,4.56,4.05,3.64,6.37,6.37,6.37
57.42,1.94,-4.40,1.94,-4.41,4.41,3.93,3.52,6.35,6.35,6.34
58.00,2.07,-4.26,2.08,-4.25,4.25,3.82,3.41,6.33,6.33,6.33
58.58,2.21,-4.09,2.22,-4.09,4.09,3.70,3.29,6.30,6.31,6.31
59.16,2.35,-3.94,2.36,-3.92,3.92,3.59,3.18,6.28,6.28,6.29
59.76,2.49,-3.78,2.50,-3.76,3.76,3.48,3.07,6.25,6.25,6.27
60.35,2.64,-3.59,2.64,-3.59,3.59,3.37,2.97,6.23,6.23,6.23
60.96,2.78,-3.43,2.78,-3.42,3.42,3.26,2.86,6.20,6.20,6.22
61.57,2.92,-3.25,2.92,-3.25,3.25,3.15,2.76,6.17,6.17,6.17
62.18,3.06,-3.07,3.07,-3.07,3.07,3.04,2.66,6.14,6.14,6.13
62.80,3.21,-2.90,3.21,-2.91,2.91,2.94,2.56,6.12,6.11,6.11
63.43,3.35,-2.72,3.35,-2.74,2.74,2.83,2.46,6.09,6.09,6.07
64.07,3.48,-2.57,3.49,-2.57,2.57,2.73,2.36,6.06,6.06,6.05
64.71,3.62,-2.40,3.63,-2.41,2.41,2.62,2.26,6.03,6.04,6.03
65.35,3.76,-2.24,3.77,-2.25,2.25,2.52,2.17,6.01,6.02,6.01
66.01,3.90,-2.09,3.90,-2.10,2.10,2.42,2.07,6.00,6.00,5.99
66.67,4.03,-1.94,4.03,-1.95,1.95,2.31,1.98,5.98,5.98,5.98
67.33,4.16,-1.80,4.16,-1.80,1.80,2.21,1.89,5.97,5.96,5.96
68.01,4.27,-1.67,4.28,-1.66,1.66,2.11,1.79,5.94,5.94,5.95
68.69,4.39,-1.53,4.40,-1.53,1.53,2.01,1.70,5.92,5.93,5.93
69.37,4.52,-1.40,4.52,-1.40,1.40,1.91,1.61,5.92,5.92,5.92
70.07,4.64,-1.26,4.63,-1.27,1.27,1.81,1.52,5.92,5.90,5.90
70.77,4.75,-1.15,4.74,-1.15,1.15,1.71,1.44,5.91,5.89,5.90
71.48,4.84,-1.04,4.84,-1.03,1.03,1.62,1.35,5.88,5.87,5.88
72.19,4.93,-0.92,4.94,-0.92,0.92,1.52,1.26,5.85,5.85,5.86
72.91,5.02,-0.82,5.03,-0.81,0.81,1.42,1.17,5.83,5.84,5.84
73.64,5.11,-0.71,5.12,-0.70,0.70,1.32,1.08,5.81,5.82,5.82
74.38,5.20,-0.60,5.20,-0.60,0.60,1.23,1.00,5.80,5.80,5.80
75.12,5.28,-0.49,5.28,-0.50,0.50,1.13,0.91,5.78,5.78,5.78
75.87,5.36,-0.40,5.36,-0.40,0.40,1.03,0.82,5.76,5.76,5.76
76.63,5.43,-0.31,5.43,-0.31,0.31,0.94,0.73,5.74,5.74,5.74
77.40,5.50,-0.21,5.50,-0.22,0.22,0.84,0.65,5.72,5.72,5.71
78.17,5.56,-0.12,5.57,-0.13,0.13,0.75,0.56,5.70,5.70,5.68
78.95,5.63,-0.05,5.63,-0.05,0.05,0.65,0.47,5.68,5.68,5.68
79.74,5.69,0.03,5.69,0.03,-0.03,0.55,0.38,5.66,5.66,5.66
80.54,5.75,0.12,5.75,0.11,-0.11,0.46,0.29,5.65,5.65,5.64
81.35,5.81,0.19,5.81,0.18,-0.18,0.36,0.20,5.64,5.63,5.62
82.16,5.86,0.25,5.86,0.25,-0.25,0.26,0.11,5.62,5.62,5.61
82.98,5.91,0.31,5.92,0.31,-0.31,0.17,0.02,5.60,5.61,5.60
83.81,5.96,0.38,5.97,0.37,-0.37,0.07,-0.08,5.59,5.59,5.59
84.65,6.01,0.44,6.02,0.43,-0.43,-0.03,-0.17,5.58,5.58,5.57
85.50,6.06,0.49,6.07,0.50,-0.50,-0.12,-0.26,5.57,5.57,5.57
86.35,6.12,0.56,6.12,0.56,-0.56,-0.22,-0.36,5.57,5.56,5.56
87.22,6.17,0.63,6.17,0.62,-0.62,-0.32,-0.45,5.55,5.55,5.54
88.09,6.21,0.68,6.22,0.69,-0.69,-0.42,-0.55,5.52,5.53,5.53
88.97,6.26,0.74,6.27,0.76,-0.76,-0.51,-0.65,5.50,5.51,5.52
89.86,6.31,0.81,6.32,0.83,-0.83,-0.61,-0.75,5.48,5.49,5.50
90.76,6.36,0.90,6.38,0.91,-0.91,-0.71,-0.85,5.45,5.47,5.47
91.66,6.41,0.97,6.43,1.00,-1.00,-0.81,-0.95,5.42,5.44,5.44
92.58,6.47,1.07,6.49,1.09,-1.09,-0.91,-1.05,5.39,5.40,5.40
93.51,6.54,1.17,6.55,1.18,-1.18,-1.01,-1.15,5.36,5.36,5.38
94.44,6.60,1.27,6.60,1.28,-1.28,-1.11,-1.26,5.33,5.32,5.33
95.39,6.65,1.37,6.65,1.38,-1.38,-1.21,-1.36,5.28,5.27,5.29
96.34,6.70,1.47,6.70,1.48,-1.48,-1.31,-1.47,5.23,5.22,5.23
97.30,6.75,1.59,6.75,1.58,-1.58,-1.41,-1.57,5.17,5.16,5.16
98.28,6.79,1.69,6.79,1.68,-1.68,-1.50,-1.68,5.11,5.10,5.11
99.26,6.84,1.80,6.83,1.79,-1.79,-1.60,-1.79,5.06,5.04,5.04
100.25,6.88,1.91,6.86,1.88,-1.88,-1.70,-1.89,5.00,4.98,4.97
101.25,6.90,2.00,6.89,1.98,-1.98,-1.80,-2.00,4.93,4.91,4.91
102.27,6.91,2.07,6.91,2.07,-2.07,-1.90,-2.11,4.85,4.84,4.84
103.29,6.92,2.16,6.92,2.15,-2.15,-2.00,-2.22,4.77,4.77,4.76
104.32,6.93,2.23,6.94,2.24,-2.24,-2.09,-2.32,4.70,4.70,4.70
105.37,6.94,2.32,6.94,2.31,-2.31,-2.19,-2.43,4.63,4.63,4.63
106.42,6.95,2.40,6.95,2.39,-2.39,-2.28,-2.53,4.57,4.56,4.56
107.48,6.96,2.47,6.95,2.46,-2.46,-2.38,-2.63,4.51,4.49,4.49
108.56,6.94,2.52,6.95,2.52,-2.52,-2.47,-2.73,4.42,4.42,4.42
109.64,6.93,2.58,6.95,2.59,-2.59,-2.56,-2.83,4.35,4.36,4.36
110.74,6.93,2.64,6.94,2.65,-2.65,-2.65,-2.93,4.28,4.29,4.30
111.85,6.93,2.69,6.94,2.71,-2.71,-2.74,-3.02,4.22,4.23,4.24
112.97,6.93,2.77,6.95,2.77,-2.77,-2.82,-3.11,4.16,4.17,4.16
114.10,6.93,2.82,6.95,2.83,-2.83,-2.91,-3.19,4.10,4.11,4.12
115.24,6.93,2.88,6.95,2.89,-2.89,-2.99,-3.27,4.05,4.06,4.05
116.39,6.93,2.94,6.95,2.94,-2.94,-3.06,-3.34,3.99,4.01,4.00
117.55,6.93,2.98,6.95,2.99,-2.99,-3.14,-3.41,3.94,3.96,3.95
118.73,6.94,3.05,6.95,3.04,-3.04,-3.21,-3.47,3.91,3.91,3.89
119.92,6.95,3.09,6.94,3.08,-3.08,-3.28,-3.53,3.87,3.86,3.86
121.12,6.95,3.14,6.94,3.12,-3.12,-3.34,-3.58,3.83,3.82,3.82
122.33,6.95,3.18,6.93,3.16,-3.16,-3.40,-3.62,3.80,3.78,3.77
123.55,6.94,3.20,6.92,3.19,-3.19,-3.46,-3.66,3.75,3.73,3.74
124.79,6.92,3.23,6.91,3.21,-3.21,-3.51,-3.69,3.71,3.70,3.70
126.03,6.89,3.23,6.89,3.23,-3.23,-3.56,-3.71,3.66,3.66,3.67
127.29,6.88,3.26,6.87,3.25,-3.25,-3.60,-3.73,3.63,3.62,3.63
128.57,6.85,3.28,6.85,3.27,-3.27,-3.64,-3.74,3.59,3.58,3.58
129.85,6.80,3.26,6.82,3.28,-3.28,-3.67,-3.74,3.53,3.54,3.55
131.15,6.78,3.27,6.79,3.28,-3.28,-3.70,-3.74,3.50,3.51,3.51
132.46,6.76,3.30,6.76,3.29,-3.29,-3.72,-3.73,3.47,3.47,3.46
133.79,6.73,3.30,6.73,3.30,-3.30,-3.74,-3.71,3.44,3.43,3.43
135.12,6.68,3.29,6.69,3.30,-3.30,-3.75,-3.69,3.38,3.39,3.39
136.48,6.65,3.30,6.66,3.31,-3.31,-3.76,-3.66,3.34,3.35,3.35
137.84,6.61,3.30,6.62,3.32,-3.32,-3.76,-3.63,3.30,3.31,3.31
139.22,6.58,3.33,6.59,3.33,-3.33,-3.76,-3.60,3.26,3.27,3.26
140.61,6.54,3.33,6.56,3.33,-3.33,-3.76,-3.56,3.21,3.22,3.21
142.02,6.50,3.32,6.52,3.34,-3.34,-3.74,-3.52,3.16,3.18,3.18
143.44,6.49,3.35,6.49,3.35,-3.35,-3.73,-3.48,3.15,3.14,3.14
144.87,6.45,3.36,6.45,3.35,-3.35,-3.71,-3.43,3.10,3.09,3.09
146.32,6.42,3.38,6.41,3.36,-3.36,-3.68,-3.38,3.07,3.05,3.05
147.78,6.37,3.37,6.36,3.36,-3.36,-3.66,-3.33,3.01,3.00,3.01
149.26,6.33,3.37,6.32,3.37,-3.37,-3.62,-3.28,2.97,2.96,2.96
150.75,6.28,3.38,6.28,3.37,-3.37,-3.59,-3.23,2.91,2.91,2.91
152.26,6.24,3.38,6.24,3.38,-3.38,-3.55,-3.18,2.87,2.86,2.86
153.78,6.19,3.38,6.19,3.38,-3.38,-3.51,-3.13,2.82,2.81,2.82
155.32,6.14,3.38,6.14,3.38,-3.38,-3.46,-3.09,2.76,2.76,2.77
156.88,6.08,3.36,6.10,3.38,-3.38,-3.42,-3.04,2.70,2.71,2.72
158.44,6.03,3.37,6.05,3.38,-3.38,-3.37,-2.99,2.65,2.66,2.66
160.03,5.97,3.36,6.00,3.38,-3.38,-3.32,-2.94,2.59,2.61,2.61
161.63,5.95,3.40,5.95,3.38,-3.38,-3.26,-2.90,2.57,2.56,2.56
163.24,5.91,3.41,5.90,3.38,-3.38,-3.21,-2.86,2.53,2.51,2.51
164.88,5.85,3.39,5.85,3.39,-3.39,-3.15,-2.81,2.47,2.47,2.46
166.53,5.80,3.39,5.80,3.39,-3.39,-3.10,-2.77,2.42,2.42,2.42
168.19,5.75,3.38,5.76,3.38,-3.38,-3.04,-2.74,2.37,2.37,2.37
169.87,5.69,3.37,5.71,3.38,-3.38,-2.98,-2.70,2.31,2.33,2.33
171.57,5.66,3.38,5.66,3.38,-3.38,-2.92,-2.67,2.28,2.28,2.28
173.29,5.62,3.38,5.61,3.37,-3.37,-2.86,-2.64,2.25,2.24,2.24
175.02,5.56,3.36,5.57,3.37,-3.37,-2.80,-2.61,2.20,2.20,2.20
176.77,5.52,3.36,5.52,3.36,-3.36,-2.74,-2.58,2.17,2.16,2.16
178.54,5.47,3.35,5.47,3.34,-3.34,-2.68,-2.56,2.13,2.13,2.12
180.32,5.42,3.33,5.42,3.33,-3.33,-2.62,-2.53,2.10,2.10,2.09
182.13,5.37,3.31,5.38,3.31,-3.31,-2.56,-2.51,2.06,2.07,2.07
183.95,5.32,3.29,5.33,3.29,-3.29,-2.50,-2.49,2.03,2.04,2.04
185.79,5.28,3.27,5.29,3.27,-3.27,-2.44,-2.48,2.01,2.02,2.01
187.65,5.24,3.26,5.24,3.25,-3.25,-2.38,-2.46,2.00,1.99,1.99
189.52,5.18,3.21,5.19,3.22,-3.22,-2.32,-2.45,1.96,1.97,1.97
191.42,5.13,3.19,5.14,3.19,-3.19,-2.27,-2.44,1.94,1.95,1.95
193.33,5.08,3.15,5.09,3.16,-3.16,-2.21,-2.43,1.93,1.93,1.94
195.27,5.04,3.12,5.04,3.12,-3.12,-2.15,-2.43,1.92,1.91,1.92
197.22,4.99,3.09,4.98,3.09,-3.09,-2.10,-2.42,1.91,1.90,1.90
199.19,4.93,3.06,4.92,3.04,-3.04,-2.04,-2.42,1.89,1.88,1.87
201.18,4.87,3.01,4.87,3.00,-3.00,-1.99,-2.42,1.87,1.86,1.86
203.19,4.81,2.96,4.81,2.96,-2.96,-1.93,-2.41,1.86,1.85,1.85
205.23,4.74,2.91,4.74,2.91,-2.91,-1.88,-2.41,1.83,1.83,1.83
207.28,4.68,2.86,4.68,2.86,-2.86,-1.83,-2.41,1.82,1.82,1.82
209.35,4.61,2.81,4.61,2.81,-2.81,-1.78,-2.42,1.80,1.80,1.81
211.44,4.54,2.77,4.54,2.76,-2.76,-1.73,-2.42,1.79,1.79,1.78
213.56,4.47,2.70,4.47,2.70,-2.70,-1.68,-2.42,1.77,1.77,1.77
215.69,4.40,2.64,4.41,2.65,-2.65,-1.63,-2.42,1.75,1.76,1.77
217.85,4.32,2.58,4.34,2.59,-2.59,-1.58,-2.42,1.73,1.74,1.74
220.03,4.26,2.54,4.27,2.54,-2.54,-1.54,-2.42,1.72,1.73,1.72
222.23,4.20,2.50,4.20,2.49,-2.49,-1.49,-2.42,1.71,1.71,1.70
224.45,4.13,2.44,4.14,2.44,-2.44,-1.45,-2.42,1.69,1.69,1.70
226.70,4.06,2.38,4.07,2.40,-2.40,-1.40,-2.42,1.67,1.68,1.68
228.96,3.99,2.32,4.01,2.35,-2.35,-1.36,-2.42,1.64,1.66,1.67
231.25,3.95,2.30,3.95,2.31,-2.31,-1.32,-2.41,1.64,1.64,1.66
233.57,3.89,2.26,3.89,2.27,-2.27,-1.27,-2.40,1.63,1.63,1.63
235.90,3.83,2.22,3.84,2.23,-2.23,-1.23,-2.39,1.61,1.61,1.61
238.26,3.78,2.19,3.78,2.19,-2.19,-1.19,-2.38,1.60,1.59,1.59
240.64,3.71,2.14,3.73,2.15,-2.15,-1.15,-2.36,1.56,1.58,1.57
243.05,3.68,2.12,3.68,2.11,-2.11,-1.11,-2.35,1.57,1.57,1.56
245.48,3.63,2.08,3.63,2.07,-2.07,-1.08,-2.32,1.56,1.55,1.55
247.93,3.57,2.03,3.58,2.03,-2.03,-1.04,-2.30,1.54,1.54,1.54
250.41,3.53,2.01,3.53,1.99,-1.99,-1.00,-2.27,1.54,1.54,1.52
252.92,3.46,1.93,3.48,1.94,-1.94,-0.97,-2.24,1.52,1.53,1.53
255.45,3.42,1.89,3.43,1.89,-1.89,-0.93,-2.21,1.53,1.53,1.53
258.00,3.38,1.85,3.38,1.84,-1.84,-0.90,-2.17,1.54,1.54,1.53
260.58,3.34,1.81,3.33,1.79,-1.79,-0.86,-2.13,1.56,1.54,1.54
263.19,3.29,1.75,3.28,1.73,-1.73,-0.83,-2.08,1.57,1.55,1.55
265.82,3.23,1.68,3.23,1.67,-1.67,-0.80,-2.04,1.57,1.56,1.55
268.48,3.17,1.60,3.18,1.61,-1.61,-0.76,-1.99,1.57,1.57,1.57
271.16,3.12,1.54,3.12,1.54,-1.54,-0.73,-1.94,1.58,1.58,1.59
273.87,3.05,1.45,3.07,1.48,-1.48,-0.70,-1.88,1.57,1.60,1.60
276.61,3.01,1.39,3.03,1.42,-1.42,-0.67,-1.82,1.60,1.61,1.62
279.38,2.97,1.35,2.98,1.35,-1.35,-0.64,-1.76,1.62,1.62,1.63
282.17,2.93,1.29,2.93,1.29,-1.29,-0.61,-1.70,1.64,1.64,1.64
284.99,2.89,1.24,2.88,1.23,-1.23,-0.58,-1.64,1.66,1.65,1.65
287.84,2.83,1.16,2.84,1.17,-1.17,-0.55,-1.57,1.67,1.67,1.67
290.72,2.78,1.09,2.80,1.11,-1.11,-0.52,-1.51,1.68,1.69,1.69
293.63,2.74,1.05,2.75,1.05,-1.05,-0.49,-1.44,1.69,1.70,1.70
296.57,2.71,0.99,2.71,0.99,-0.99,-0.46,-1.37,1.72,1.72,1.72
299.53,2.67,0.94,2.67,0.93,-0.93,-0.43,-1.30,1.74,1.74,1.74
302.53,2.63,0.89,2.63,0.87,-0.87,-0.40,-1.23,1.76,1.76,1.74
305.55,2.59,0.81,2.59,0.81,-0.81,-0.38,-1.16,1.78,1.78,1.78
308.61,2.55,0.76,2.55,0.75,-0.75,-0.35,-1.08,1.80,1.80,1.80
311.69,2.51,0.69,2.51,0.69,-0.69,-0.32,-1.01,1.83,1.82,1.82
314.81,2.48,0.63,2.47,0.63,-0.63,-0.29,-0.94,1.86,1.84,1.86
317.96,2.44,0.57,2.43,0.56,-0.56,-0.27,-0.87,1.88,1.86,1.87
321.14,2.39,0.50,2.39,0.50,-0.50,-0.24,-0.79,1.89,1.89,1.89
324.35,2.33,0.43,2.35,0.44,-0.44,-0.21,-0.72,1.89,1.91,1.91
327.59,2.29,0.36,2.31,0.38,-0.38,-0.18,-0.64,1.91,1.93,1.93
330.87,2.25,0.30,2.27,0.31,-0.31,-0.16,-0.57,1.94,1.95,1.95
334.18,2.22,0.25,2.23,0.25,-0.25,-0.13,-0.50,1.98,1.98,1.98
337.52,2.18,0.19,2.19,0.18,-0.18,-0.10,-0.42,2.00,2.00,1.99
340.90,2.16,0.14,2.15,0.12,-0.12,-0.08,-0.35,2.04,2.02,2.02
344.30,2.12,0.08,2.11,0.06,-0.06,-0.05,-0.28,2.06,2.05,2.05
347.75,2.08,0.02,2.07,0.00,-0.00,-0.02,-0.20,2.08,2.07,2.06
351.23,2.03,-0.06,2.04,-0.06,0.06,0.00,-0.13,2.09,2.09,2.09
354.74,1.99,-0.13,2.00,-0.11,0.11,0.03,-0.06,2.11,2.12,2.12
358.28,1.94,-0.19,1.97,-0.17,0.17,0.06,0.01,2.12,2.14,2.14
361.87,1.91,-0.25,1.93,-0.23,0.23,0.08,0.09,2.15,2.16,2.16
365.49,1.88,-0.31,1.89,-0.29,0.29,0.11,0.16,2.18,2.19,2.19
369.14,1.86,-0.34,1.86,-0.35,0.35,0.14,0.23,2.22,2.21,2.20
372.83,1.85,-0.37,1.82,-0.41,0.41,0.17,0.31,2.26,2.23,2.23
376.56,1.81,-0.43,1.79,-0.46,0.46,0.20,0.38,2.28,2.25,2.25
380.33,1.77,-0.51,1.76,-0.51,0.51,0.22,0.45,2.29,2.27,2.28
384.13,1.72,-0.57,1.73,-0.56,0.56,0.25,0.52,2.29,2.29,2.29
387.97,1.68,-0.63,1.70,-0.61,0.61,0.28,0.60,2.29,2.31,2.31
391.85,1.64,-0.68,1.67,-0.66,0.66,0.31,0.67,2.30,2.32,2.32
395.77,1.61,-0.73,1.64,-0.70,0.70,0.34,0.74,2.31,2.34,2.35
399.73,1.59,-0.76,1.60,-0.74,0.74,0.37,0.81,2.34,2.35,2.36
403.72,1.57,-0.78,1.57,-0.79,0.79,0.40,0.88,2.36,2.36,2.35
407.76,1.56,-0.80,1.54,-0.83,0.83,0.43,0.95,2.39,2.36,2.36
411.84,1.52,-0.85,1.50,-0.86,0.86,0.47,1.02,2.39,2.37,2.37
415.96,1.49,-0.88,1.47,-0.90,0.90,0.50,1.09,2.39,2.37,2.37
420.12,1.44,-0.93,1.44,-0.93,0.93,0.53,1.16,2.37,2.37,2.37
424.32,1.40,-0.96,1.41,-0.95,0.95,0.57,1.22,2.36,2.37,2.37
428.56,1.36,-1.00,1.38,-0.98,0.98,0.60,1.29,2.34,2.36,2.37
432.85,1.33,-1.02,1.35,-1.01,1.01,0.64,1.35,2.34,2.36,2.36
437.18,1.29,-1.06,1.32,-1.04,1.04,0.67,1.41,2.33,2.36,2.35
441.55,1.27,-1.08,1.28,-1.07,1.07,0.71,1.48,2.34,2.35,2.35
445.96,1.25,-1.09,1.25,-1.10,1.10,0.74,1.53,2.35,2.35,2.34
450.42,1.23,-1.11,1.21,-1.13,1.13,0.78,1.59,2.37,2.35,2.34
454.93,1.20,-1.14,1.18,-1.16,1.16,0.82,1.65,2.36,2.34,2.34
459.48,1.16,-1.17,1.15,-1.19,1.19,0.86,1.70,2.35,2.34,2.33
464.07,1.13,-1.20,1.12,-1.22,1.22,0.90,1.75,2.35,2.34,2.34
468.71,1.08,-1.25,1.09,-1.24,1.24,0.94,1.79,2.33,2.34,2.34
473.40,1.04,-1.29,1.06,-1.27,1.27,0.99,1.84,2.32,2.34,2.34
478.13,1.00,-1.34,1.03,-1.31,1.31,1.03,1.88,2.31,2.34,2.35
482.91,0.97,-1.36,1.00,-1.34,1.34,1.08,1.91,2.32,2.34,2.34
487.74,0.96,-1.38,0.96,-1.38,1.38,1.12,1.95,2.34,2.34,2.34
492.62,0.94,-1.41,0.92,-1.42,1.42,1.17,1.98,2.37,2.34,2.35
497.55,0.91,-1.43,0.88,-1.47,1.47,1.22,2.00,2.38,2.35,2.34
502.52,0.87,-1.48,0.84,-1.51,1.51,1.27,2.03,2.38,2.35,2.35
507.55,0.82,-1.53,0.81,-1.55,1.55,1.32,2.05,2.37,2.36,2.35
512.62,0.77,-1.59,0.77,-1.59,1.59,1.37,2.06,2.37,2.36,2.36
517.75,0.73,-1.64,0.74,-1.63,1.63,1.42,2.08,2.37,2.37,2.37
522.93,0.68,-1.70,0.70,-1.68,1.68,1.47,2.09,2.36,2.38,2.38
