frequency,raw,error,smoothed,error_smoothed,equalization,parametric_eq,fixed_band_eq,equalized_raw,equalized_smoothed,target
20.00,-6.78,-13.21,-6.86,-13.29,13.29,12.98,5.32,6.51,6.43,6.42
20.20,-6.71,-13.13,-6.74,-13.15,13.15,12.91,5.45,6.44,6.42,6.41
20.40,-6.65,-13.06,-6.62,-13.03,13.03,12.84,5.59,6.37,6.41,6.40
20.61,-6.59,-12.99,-6.51,-12.91,12.91,12.78,5.73,6.32,6.40,6.40
20.81,-6.51,-12.89,-6.40,-12.79,12.79,12.71,5.88,6.28,6.39,6.38
21.02,-6.43,-12.81,-6.30,-12.68,12.68,12.65,6.02,6.25,6.38,6.38
21.23,-6.27,-12.64,-6.21,-12.58,12.58,12.58,6.18,6.31,6.37,6.37
21.44,-6.10,-12.48,-6.12,-12.49,12.49,12.52,6.33,6.39,6.36,6.38
21.66,-5.95,-12.31,-6.04,-12.40,12.40,12.46,6.49,6.45,6.36,6.37
21.87,-5.78,-12.14,-5.97,-12.32,12.32,12.39,6.66,6.54,6.35,6.36
22.09,-5.69,-12.04,-5.90,-12.24,12.24,12.33,6.83,6.55,6.34,6.34
22.31,-5.72,-12.07,-5.84,-12.18,12.18,12.27,7.00,6.45,6.34,6.34
22.54,-5.75,-12.09,-5.79,-12.12,12.12,12.21,7.18,6.37,6.33,6.33
22.76,-5.77,-12.11,-5.76,-12.09,12.09,12.15,7.37,6.31,6.33,6.33
22.99,-5.80,-12.12,-5.74,-12.06,12.06,12.08,7.56,6.26,6.32,6.32
23.22,-5.75,-12.06,-5.72,-12.04,12.04,12.02,7.75,6.29,6.32,6.31
23.45,-5.70,-12.02,-5.69,-12.01,12.01,11.97,7.95,6.31,6.32,6.32
23.69,-5.65,-11.96,-5.65,-11.97,11.97,11.91,8.16,6.31,6.31,6.31
23.92,-5.61,-11.92,-5.59,-11.90,11.90,11.85,8.37,6.29,6.31,6.31
24.16,-5.57,-11.89,-5.51,-11.82,11.82,11.79,8.58,6.25,6.31,6.31
24.40,-5.53,-11.86,-5.41,-11.72,11.72,11.73,8.80,6.19,6.31,6.32
24.65,-5.50,-11.82,-5.30,-11.61,11.61,11.68,9.02,6.11,6.31,6.32
24.89,-5.46,-11.78,-5.17,-11.49,11.49,11.62,9.25,6.03,6.32,6.32
25.14,-5.28,-11.60,-5.06,-11.37,11.37,11.57,9.49,6.09,6.32,6.32
25.39,-4.98,-11.29,-4.97,-11.28,11.28,11.51,9.73,6.31,6.32,6.32
25.65,-4.71,-11.02,-4.89,-11.22,11.22,11.46,9.97,6.51,6.32,6.31
25.91,-4.43,-10.75,-4.84,-11.16,11.16,11.40,10.22,6.74,6.32,6.32
26.16,-4.36,-10.68,-4.79,-11.11,11.11,11.35,10.47,6.75,6.32,6.33
26.43,-4.43,-10.76,-4.72,-11.04,11.04,11.29,10.72,6.61,6.32,6.33
26.69,-4.52,-10.85,-4.66,-10.98,10.98,11.24,10.97,6.45,6.32,6.33
26.96,-4.60,-10.93,-4.60,-10.92,10.92,11.19,11.23,6.32,6.32,6.32
27.23,-4.70,-11.02,-4.56,-10.88,10.88,11.14,11.48,6.18,6.32,6.32
27.50,-4.81,-11.13,-4.54,-10.86,10.86,11.09,11.73,6.05,6.32,6.32
27.77,-4.91,-11.24,-4.55,-10.87,10.87,11.03,11.98,5.95,6.32,6.33
28.05,-4.95,-11.28,-4.57,-10.89,10.89,10.98,12.23,5.94,6.32,6.32
28.33,-4.71,-11.02,-4.60,-10.92,10.92,10.93,12.46,6.21,6.32,6.31
28.62,-4.48,-10.78,-4.62,-10.94,10.94,10.88,12.69,6.46,6.32,6.31
28.90,-4.22,-10.54,-4.63,-10.95,10.95,10.83,12.90,6.72,6.31,6.31
29.19,-4.25,-10.57,-4.61,-10.92,10.92,10.78,13.10,6.67,6.31,6.31
29.48,-4.42,-10.72,-4.58,-10.88,10.88,10.73,13.29,6.47,6.31,6.31
29.78,-4.57,-10.88,-4.53,-10.83,10.83,10.68,13.45,6.26,6.30,6.30
30.08,-4.67,-10.98,-4.48,-10.77,10.77,10.63,13.59,6.10,6.30,6.31
30.38,-4.59,-10.89,-4.42,-10.71,10.71,10.58,13.70,6.11,6.29,6.30
30.68,-4.51,-10.80,-4.35,-10.63,10.63,10.54,13.78,6.12,6.28,6.28
30.99,-4.43,-10.71,-4.29,-10.56,10.56,10.49,13.84,6.13,6.28,6.28
31.30,-4.33,-10.59,-4.23,-10.50,10.50,10.44,13.87,6.18,6.27,6.27
31.61,-4.21,-10.48,-4.20,-10.46,10.46,10.39,13.87,6.25,6.26,6.26
31.93,-4.11,-10.35,-4.17,-10.42,10.42,10.34,13.83,6.31,6.25,6.25
32.24,-4.01,-10.26,-4.12,-10.37,10.37,10.29,13.77,6.36,6.24,6.24
32.57,-3.93,-10.16,-4.05,-10.29,10.29,10.24,13.69,6.35,6.24,6.23
32.89,-3.86,-10.09,-3.96,-10.19,10.19,10.20,13.57,6.33,6.23,6.22
33.22,-3.81,-10.03,-3.88,-10.11,10.11,10.15,13.44,6.29,6.22,6.22
33.55,-3.77,-9.99,-3.83,-10.05,10.05,10.10,13.29,6.28,6.22,6.21
33.89,-3.74,-9.96,-3.81,-10.02,10.02,10.05,13.12,6.27,6.21,6.22
34.23,-3.78,-9.99,-3.78,-9.99,9.99,10.00,12.94,6.21,6.21,6.20
34.57,-3.84,-10.04,-3.75,-9.95,9.95,9.95,12.74,6.11,6.20,6.20
34.92,-3.91,-10.10,-3.72,-9.91,9.91,9.90,12.54,6.00,6.19,6.19
35.27,-3.82,-10.01,-3.71,-9.89,9.89,9.85,12.34,6.07,6.18,6.19
35.62,-3.64,-9.82,-3.70,-9.87,9.87,9.80,12.12,6.23,6.17,6.18
35.97,-3.49,-9.65,-3.70,-9.86,9.86,9.75,11.91,6.38,6.16,6.17
36.33,-3.61,-9.76,-3.69,-9.84,9.84,9.70,11.70,6.23,6.15,6.15
36.70,-3.74,-9.88,-3.68,-9.81,9.81,9.65,11.48,6.07,6.13,6.13
37.06,-3.82,-9.94,-3.66,-9.77,9.77,9.60,11.27,5.94,6.11,6.12
37.43,-3.62,-9.71,-3.62,-9.71,9.71,9.55,11.06,6.09,6.09,6.09
37.81,-3.42,-9.49,-3.57,-9.64,9.64,9.50,10.86,6.21,6.06,6.07
38.19,-3.40,-9.45,-3.51,-9.55,9.55,9.45,10.66,6.14,6.04,6.04
38.57,-3.55,-9.57,-3.44,-9.45,9.45,9.40,10.46,5.90,6.01,6.01
38.95,-3.71,-9.69,-3.40,-9.38,9.38,9.34,10.27,5.67,5.98,5.98
39.34,-3.55,-9.49,-3.38,-9.33,9.33,9.29,10.08,5.78,5.95,5.94
39.74,-3.34,-9.27,-3.35,-9.28,9.28,9.24,9.90,5.93,5.93,5.92
40.14,-3.19,-9.08,-3.31,-9.21,9.21,9.19,9.73,6.02,5.90,5.89
40.54,-3.10,-8.97,-3.26,-9.12,9.12,9.13,9.56,6.02,5.87,5.86
40.94,-3.03,-8.86,-3.20,-9.04,9.04,9.08,9.40,6.00,5.84,5.83
41.35,-3.02,-8.83,-3.16,-8.97,8.97,9.02,9.25,5.94,5.81,5.81
41.76,-3.02,-8.79,-3.15,-8.93,8.93,8.97,9.10,5.91,5.78,5.77
42.18,-3.09,-8.84,-3.15,-8.90,8.90,8.91,8.95,5.80,5.75,5.74
42.60,-3.26,-8.98,-3.13,-8.84,8.84,8.85,8.82,5.59,5.72,5.72
43.03,-3.39,-9.08,-3.09,-8.78,8.78,8.80,8.69,5.38,5.69,5.69
43.46,-3.18,-8.84,-3.05,-8.71,8.71,8.74,8.56,5.53,5.66,5.65
43.90,-2.98,-8.61,-3.03,-8.66,8.66,8.68,8.44,5.68,5.63,5.63
44.33,-2.92,-8.52,-3.02,-8.62,8.62,8.62,8.33,5.69,5.60,5.59
44.78,-2.92,-8.48,-3.02,-8.58,8.58,8.56,8.23,5.66,5.56,5.56
45.23,-3.00,-8.55,-3.01,-8.54,8.54,8.50,8.13,5.53,5.53,5.54
45.68,-3.16,-8.66,-2.99,-8.48,8.48,8.44,8.03,5.31,5.49,5.50
46.13,-3.18,-8.63,-2.95,-8.40,8.40,8.38,7.94,5.22,5.45,5.45
46.60,-2.85,-8.26,-2.90,-8.31,8.31,8.32,7.86,5.46,5.41,5.41
47.06,-2.55,-7.93,-2.86,-8.23,8.23,8.26,7.78,5.67,5.36,5.37
47.53,-2.64,-7.98,-2.84,-8.15,8.15,8.19,7.71,5.51,5.32,5.33
48.01,-2.72,-8.00,-2.82,-8.09,8.09,8.13,7.64,5.37,5.27,5.27
48.49,-2.90,-8.13,-2.81,-8.04,8.04,8.07,7.57,5.13,5.22,5.22
48.97,-3.07,-8.24,-2.79,-7.97,7.97,8.00,7.51,4.89,5.17,5.17
49.46,-2.87,-8.00,-2.76,-7.88,7.88,7.94,7.46,5.01,5.13,5.13
49.96,-2.65,-7.70,-2.74,-7.81,7.81,7.87,7.41,5.17,5.08,5.06
50.46,-2.62,-7.64,-2.72,-7.75,7.75,7.80,7.36,5.12,5.02,5.01
50.96,-2.62,-7.59,-2.71,-7.68,7.68,7.74,7.31,5.06,4.97,4.97
51.47,-2.74,-7.67,-2.72,-7.64,7.64,7.67,7.27,4.89,4.92,4.92
51.99,-2.87,-7.74,-2.74,-7.61,7.61,7.60,7.23,4.73,4.87,4.87
52.51,-2.70,-7.52,-2.72,-7.54,7.54,7.53,7.20,4.85,4.82,4.82
53.03,-2.52,-7.31,-2.67,-7.44,7.44,7.46,7.16,4.91,4.76,4.78
53.56,-2.52,-7.25,-2.61,-7.32,7.32,7.39,7.13,4.80,4.71,4.72
54.10,-2.55,-7.22,-2.55,-7.21,7.21,7.32,7.10,4.66,4.66,4.66
54.64,-2.72,-7.34,-2.52,-7.13,7.13,7.25,7.06,4.41,4.61,4.61
55.18,-2.76,-7.31,-2.51,-7.07,7.07,7.18,7.03,4.31,4.57,4.55
55.74,-2.54,-7.04,-2.49,-7.00,7.00,7.11,7.00,4.47,4.52,4.50
56.29,-2.42,-6.88,-2.45,-6.92,6.92,7.03,6.97,4.49,4.47,4.46
56.86,-2.42,-6.84,-2.41,-6.83,6.83,6.96,6.93,4.41,4.42,4.41
57.42,-2.24,-6.59,-2.37,-6.74,6.74,6.89,6.90,4.49,4.37,4.35
58.00,-2.00,-6.31,-2.33,-6.64,6.64,6.81,6.86,4.64,4.31,4.31
58.58,-2.12,-6.40,-2.31,-6.57,6.57,6.74,6.82,4.45,4.26,4.27
59.16,-2.28,-6.50,-2.31,-6.51,6.51,6.66,6.78,4.23,4.20,4.22
59.76,-2.53,-6.71,-2.29,-6.44,6.44,6.58,6.73,3.90,4.14,4.17
60.35,-2.49,-6.59,-2.27,-6.36,6.36,6.51,6.68,3.87,4.09,4.10
60.96,-2.25,-6.28,-2.26,-6.28,6.28,6.43,6.62,4.04,4.03,4.04
61.57,-2.22,-6.19,-2.26,-6.22,6.22,6.35,6.56,4.00,3.96,3.97
62.18,-2.22,-6.12,-2.27,-6.17,6.17,6.28,6.50,3.94,3.90,3.89
62.80,-2.22,-6.04,-2.27,-6.10,6.10,6.20,6.43,3.88,3.83,3.82
63.43,-2.22,-5.97,-2.26,-6.02,6.02,6.12,6.36,3.80,3.77,3.75
64.07,-2.24,-5.93,-2.25,-5.95,5.95,6.04,6.28,3.71,3.70,3.69
64.71,-2.43,-6.05,-2.25,-5.88,5.88,5.96,6.20,3.45,3.63,3.62
65.35,-2.38,-5.94,-2.24,-5.79,5.79,5.88,6.11,3.41,3.56,3.56
66.01,-2.12,-5.61,-2.21,-5.70,5.70,5.80,6.02,3.58,3.49,3.49
66.67,-2.12,-5.56,-2.20,-5.62,5.62,5.72,5.92,3.49,3.42,3.44
67.33,-2.12,-5.47,-2.20,-5.55,5.55,5.64,5.83,3.42,3.35,3.35
68.01,-2.12,-5.41,-2.20,-5.48,5.48,5.56,5.72,3.36,3.28,3.28
68.69,-2.12,-5.33,-2.19,-5.39,5.39,5.48,5.62,3.27,3.21,3.21
69.37,-2.12,-5.27,-2.17,-5.31,5.31,5.39,5.51,3.18,3.14,3.15
70.07,-2.14,-5.21,-2.15,-5.21,5.21,5.31,5.40,3.07,3.07,3.07
70.77,-2.34,-5.34,-2.12,-5.11,5.11,5.23,5.29,2.77,2.99,3.00
71.48,-2.27,-5.20,-2.10,-5.02,5.02,5.15,5.17,2.74,2.92,2.93
72.19,-2.10,-4.95,-2.09,-4.93,4.93,5.06,5.06,2.83,2.84,2.84
72.91,-2.03,-4.80,-2.10,-4.87,4.87,4.98,4.94,2.84,2.77,2.77
73.64,-2.02,-4.71,-2.11,-4.81,4.81,4.90,4.82,2.78,2.70,2.69
74.38,-2.02,-4.65,-2.10,-4.73,4.73,4.81,4.71,2.70,2.63,2.62
75.12,-2.02,-4.57,-2.10,-4.66,4.66,4.73,4.59,2.63,2.56,2.54
75.87,-2.02,-4.51,-2.09,-4.58,4.58,4.65,4.47,2.55,2.49,2.48
76.63,-2.02,-4.44,-2.07,-4.49,4.49,4.56,4.36,2.46,2.42,2.41
77.40,-2.02,-4.37,-2.04,-4.39,4.39,4.48,4.24,2.37,2.35,2.35
78.17,-2.05,-4.33,-2.01,-4.29,4.29,4.39,4.13,2.24,2.28,2.28
78.95,-2.21,-4.43,-1.99,-4.20,4.20,4.31,4.02,1.99,2.22,2.22
79.74,-2.15,-4.31,-1.97,-4.12,4.12,4.23,3.91,1.97,2.15,2.15
80.54,-2.02,-4.11,-1.96,-4.05,4.05,4.14,3.80,2.02,2.08,2.09
81.35,-1.92,-3.94,-1.97,-3.99,3.99,4.06,3.69,2.06,2.02,2.02
82.16,-1.92,-3.88,-1.98,-3.93,3.93,3.97,3.58,2.00,1.95,1.96
82.98,-1.92,-3.81,-1.98,-3.86,3.86,3.89,3.48,1.94,1.88,1.89
83.81,-1.78,-3.60,-1.98,-3.79,3.79,3.80,3.38,2.01,1.81,1.82
84.65,-1.75,-3.50,-1.98,-3.72,3.72,3.72,3.28,1.97,1.74,1.74
85.50,-1.88,-3.54,-1.98,-3.65,3.65,3.63,3.18,1.77,1.67,1.66
86.35,-2.02,-3.62,-1.98,-3.57,3.57,3.55,3.08,1.55,1.60,1.59
87.22,-2.02,-3.55,-1.97,-3.50,3.50,3.46,2.99,1.47,1.53,1.53
88.09,-2.03,-3.48,-1.97,-3.42,3.42,3.38,2.89,1.39,1.45,1.45
88.97,-2.22,-3.61,-1.98,-3.36,3.36,3.29,2.80,1.13,1.38,1.38
89.86,-2.23,-3.53,-1.99,-3.29,3.29,3.21,2.71,1.06,1.30,1.30
90.76,-1.99,-3.22,-1.99,-3.21,3.21,3.12,2.63,1.22,1.22,1.23
91.66,-1.91,-3.05,-1.98,-3.12,3.12,3.04,2.54,1.21,1.14,1.14
92.58,-1.91,-2.98,-1.99,-3.05,3.05,2.96,2.46,1.13,1.06,1.07
93.51,-1.91,-2.90,-1.99,-2.97,2.97,2.87,2.38,1.06,0.97,0.98
94.44,-1.91,-2.82,-1.99,-2.88,2.88,2.79,2.30,0.96,0.89,0.90
95.39,-1.91,-2.72,-1.97,-2.77,2.77,2.70,2.22,0.86,0.80,0.81
96.34,-1.91,-2.63,-1.96,-2.67,2.67,2.62,2.14,0.75,0.71,0.72
97.30,-1.92,-2.55,-1.95,-2.57,2.57,2.54,2.07,0.64,0.62,0.62
98.28,-1.93,-2.46,-1.94,-2.47,2.47,2.45,2.00,0.53,0.53,0.53
99.26,-1.94,-2.37,-1.94,-2.37,2.37,2.37,1.92,0.43,0.44,0.42
100.25,-1.96,-2.29,-1.96,-2.30,2.30,2.29,1.85,0.33,0.34,0.33
101.25,-2.03,-2.28,-1.98,-2.22,2.22,2.20,1.79,0.19,0.25,0.24
102.27,-2.15,-2.30,-1.98,-2.13,2.13,2.12,1.72,-0.03,0.15,0.15
103.29,-2.01,-2.07,-1.98,-2.03,2.03,2.04,1.65,0.02,0.06,0.05
104.32,-1.92,-1.89,-1.98,-1.95,1.95,1.95,1.59,0.02,-0.04,-0.03
105.37,-1.94,-1.82,-1.99,-1.86,1.86,1.87,1.52,-0.08,-0.13,-0.13
106.42,-1.97,-1.75,-1.99,-1.77,1.77,1.79,1.46,-0.20,-0.22,-0.22
107.48,-1.99,-1.67,-2.00,-1.69,1.69,1.71,1.40,-0.31,-0.32,-0.33
108.56,-2.02,-1.62,-2.03,-1.62,1.62,1.63,1.34,-0.40,-0.41,-0.40
109.64,-2.04,-1.55,-2.05,-1.55,1.55,1.55,1.28,-0.49,-0.50,-0.50
110.74,-2.01,-1.42,-2.07,-1.48,1.48,1.46,1.22,-0.54,-0.59,-0.59
111.85,-1.92,-1.25,-2.08,-1.40,1.40,1.38,1.16,-0.52,-0.68,-0.68
112.97,-2.03,-1.27,-2.10,-1.33,1.33,1.30,1.11,-0.70,-0.77,-0.76
114.10,-2.19,-1.35,-2.11,-1.26,1.26,1.22,1.05,-0.93,-0.85,-0.85
115.24,-2.19,-1.25,-2.14,-1.20,1.20,1.14,0.99,-1.00,-0.94,-0.94
116.39,-2.19,-1.16,-2.15,-1.13,1.13,1.06,0.94,-1.06,-1.02,-1.03
117.55,-2.20,-1.10,-2.15,-1.05,1.05,0.99,0.88,-1.15,-1.10,-1.11
118.73,-2.30,-1.11,-2.15,-0.97,0.97,0.91,0.83,-1.33,-1.18,-1.20
119.92,-2.29,-1.02,-2.15,-0.89,0.89,0.83,0.78,-1.40,-1.26,-1.27
121.12,-2.07,-0.74,-2.14,-0.81,0.81,0.75,0.72,-1.27,-1.34,-1.33
122.33,-2.06,-0.65,-2.14,-0.73,0.73,0.67,0.67,-1.34,-1.41,-1.41
123.55,-2.05,-0.57,-2.12,-0.64,0.64,0.60,0.62,-1.42,-1.49,-1.48
124.79,-2.05,-0.51,-2.10,-0.54,0.54,0.52,0.56,-1.52,-1.56,-1.55
126.03,-2.04,-0.42,-2.07,-0.43,0.43,0.44,0.51,-1.61,-1.64,-1.63
127.29,-2.03,-0.33,-2.04,-0.34,0.34,0.37,0.46,-1.70,-1.71,-1.70
128.57,-2.03,-0.25,-2.03,-0.25,0.25,0.29,0.41,-1.78,-1.78,-1.78
129.85,-2.02,-0.17,-2.02,-0.17,0.17,0.21,0.35,-1.86,-1.85,-1.85
131.15,-2.01,-0.08,-2.01,-0.09,0.09,0.14,0.30,-1.93,-1.92,-1.93
132.46,-2.01,-0.01,-2.00,-0.01,0.01,0.07,0.25,-2.01,-2.00,-2.00
133.79,-2.01,0.06,-2.01,0.06,-0.06,-0.01,0.19,-2.08,-2.07,-2.07
135.12,-1.99,0.15,-2.02,0.12,-0.12,-0.08,0.14,-2.12,-2.14,-2.15
136.48,-1.90,0.30,-2.02,0.20,-0.20,-0.16,0.09,-2.10,-2.21,-2.21
137.84,-1.99,0.28,-2.01,0.27,-0.27,-0.23,0.04,-2.26,-2.28,-2.27
139.22,-2.13,0.23,-2.01,0.34,-0.34,-0.30,-0.02,-2.48,-2.35,-2.36
140.61,-2.12,0.30,-2.01,0.41,-0.41,-0.37,-0.07,-2.54,-2.42,-2.42
142.02,-1.99,0.50,-2.01,0.48,-0.48,-0.44,-0.13,-2.48,-2.49,-2.49
143.44,-1.99,0.57,-2.01,0.55,-0.55,-0.51,-0.18,-2.54,-2.56,-2.57
144.87,-1.99,0.64,-2.01,0.62,-0.62,-0.59,-0.24,-2.61,-2.63,-2.63
146.32,-1.99,0.70,-2.01,0.69,-0.69,-0.65,-0.29,-2.68,-2.70,-2.69
147.78,-1.99,0.77,-2.01,0.76,-0.76,-0.72,-0.35,-2.75,-2.76,-2.76
149.26,-1.99,0.84,-2.01,0.82,-0.82,-0.79,-0.41,-2.82,-2.83,-2.83
150.75,-1.99,0.92,-2.00,0.90,-0.90,-0.86,-0.46,-2.90,-2.90,-2.91
152.26,-1.99,0.97,-1.99,0.98,-0.98,-0.93,-0.52,-2.97,-2.97,-2.97
153.78,-1.99,1.04,-1.98,1.05,-1.05,-1.00,-0.58,-3.05,-3.04,-3.03
155.32,-1.99,1.10,-1.98,1.13,-1.13,-1.06,-0.64,-3.12,-3.11,-3.10
156.88,-1.99,1.18,-1.99,1.19,-1.19,-1.13,-0.70,-3.18,-3.18,-3.17
158.44,-1.99,1.25,-2.00,1.25,-1.25,-1.20,-0.76,-3.24,-3.24,-3.24
160.03,-1.99,1.32,-2.00,1.31,-1.31,-1.26,-0.83,-3.31,-3.31,-3.31
161.63,-1.99,1.39,-2.01,1.38,-1.38,-1.33,-0.89,-3.37,-3.38,-3.38
163.24,-1.99,1.46,-2.01,1.44,-1.44,-1.39,-0.96,-3.44,-3.45,-3.46
164.88,-1.97,1.55,-2.02,1.51,-1.51,-1.45,-1.02,-3.48,-3.53,-3.52
166.53,-1.95,1.64,-2.02,1.57,-1.57,-1.52,-1.09,-3.53,-3.60,-3.60
168.19,-2.09,1.57,-2.03,1.64,-1.64,-1.58,-1.16,-3.73,-3.67,-3.66
169.87,-2.11,1.62,-2.03,1.70,-1.70,-1.64,-1.22,-3.81,-3.74,-3.73
171.57,-2.04,1.76,-2.04,1.77,-1.77,-1.70,-1.29,-3.81,-3.80,-3.81
173.29,-2.03,1.84,-2.04,1.83,-1.83,-1.76,-1.37,-3.86,-3.87,-3.88
175.02,-2.03,1.90,-2.04,1.89,-1.89,-1.82,-1.44,-3.93,-3.94,-3.93
176.77,-2.04,1.96,-2.04,1.96,-1.96,-1.88,-1.51,-4.00,-4.00,-4.00
178.54,-2.04,2.02,-2.04,2.02,-2.02,-1.94,-1.59,-4.07,-4.06,-4.07
180.32,-2.03,2.10,-2.03,2.09,-2.09,-2.00,-1.66,-4.12,-4.12,-4.13
182.13,-2.03,2.15,-2.03,2.15,-2.15,-2.06,-1.74,-4.19,-4.18,-4.19
183.95,-2.02,2.21,-2.03,2.21,-2.21,-2.12,-1.82,-4.24,-4.24,-4.24
185.79,-2.01,2.29,-2.02,2.28,-2.28,-2.17,-1.90,-4.29,-4.30,-4.30
187.65,-1.99,2.36,-2.00,2.35,-2.35,-2.23,-1.98,-4.35,-4.35,-4.35
189.52,-1.98,2.43,-1.98,2.42,-2.42,-2.28,-2.06,-4.41,-4.41,-4.41
191.42,-1.97,2.47,-1.97,2.49,-2.49,-2.34,-2.15,-4.46,-4.46,-4.45
193.33,-1.95,2.55,-1.95,2.56,-2.56,-2.39,-2.23,-4.51,-4.51,-4.50
195.27,-1.93,2.63,-1.93,2.63,-2.63,-2.45,-2.32,-4.56,-4.56,-4.56
197.22,-1.94,2.67,-1.92,2.69,-2.69,-2.50,-2.40,-4.63,-4.61,-4.61
199.19,-1.96,2.69,-1.90,2.75,-2.75,-2.55,-2.49,-4.72,-4.66,-4.66
201.18,-1.95,2.76,-1.89,2.81,-2.81,-2.61,-2.58,-4.76,-4.70,-4.71
203.19,-1.86,2.89,-1.89,2.87,-2.87,-2.66,-2.67,-4.73,-4.75,-4.75
205.23,-1.78,3.01,-1.88,2.92,-2.92,-2.71,-2.75,-4.70,-4.80,-4.79
207.28,-1.76,3.07,-1.88,2.97,-2.97,-2.76,-2.84,-4.73,-4.84,-4.83
209.35,-1.82,3.06,-1.88,3.01,-3.01,-2.81,-2.93,-4.84,-4.89,-4.88
211.44,-1.89,3.04,-1.88,3.06,-3.06,-2.85,-3.02,-4.95,-4.93,-4.93
213.56,-1.90,3.06,-1.88,3.10,-3.10,-2.90,-3.10,-5.00,-4.98,-4.97
215.69,-1.91,3.10,-1.89,3.13,-3.13,-2.95,-3.19,-5.04,-5.02,-5.01
217.85,-1.91,3.14,-1.90,3.16,-3.16,-3.00,-3.27,-5.07,-5.06,-5.05
220.03,-1.91,3.19,-1.90,3.19,-3.19,-3.04,-3.36,-5.10,-5.09,-5.10
222.23,-1.92,3.21,-1.91,3.22,-3.22,-3.09,-3.44,-5.14,-5.13,-5.14
224.45,-1.92,3.25,-1.91,3.25,-3.25,-3.13,-3.51,-5.17,-5.16,-5.17
226.70,-1.91,3.29,-1.92,3.28,-3.28,-3.18,-3.59,-5.19,-5.19,-5.20
228.96,-1.91,3.31,-1.91,3.31,-3.31,-3.22,-3.66,-5.22,-5.22,-5.22
231.25,-1.90,3.34,-1.90,3.35,-3.35,-3.26,-3.73,-5.26,-5.25,-5.25
233.57,-1.90,3.37,-1.87,3.40,-3.40,-3.31,-3.79,-5.30,-5.27,-5.28
235.90,-1.90,3.39,-1.85,3.44,-3.44,-3.35,-3.85,-5.34,-5.29,-5.29
238.26,-1.86,3.45,-1.82,3.48,-3.48,-3.39,-3.91,-5.35,-5.30,-5.31
240.64,-1.77,3.54,-1.80,3.52,-3.52,-3.43,-3.96,-5.30,-5.32,-5.31
243.05,-1.74,3.59,-1.77,3.56,-3.56,-3.47,-4.01,-5.30,-5.33,-5.33
245.48,-1.72,3.62,-1.74,3.60,-3.60,-3.51,-4.05,-5.32,-5.34,-5.35
247.93,-1.69,3.67,-1.72,3.64,-3.64,-3.55,-4.08,-5.33,-5.35,-5.36
250.41,-1.67,3.68,-1.70,3.67,-3.67,-3.59,-4.11,-5.34,-5.36,-5.36
252.92,-1.65,3.71,-1.68,3.69,-3.69,-3.62,-4.14,-5.35,-5.38,-5.36
255.45,-1.64,3.74,-1.67,3.72,-3.72,-3.66,-4.16,-5.37,-5.39,-5.39
258.00,-1.63,3.76,-1.65,3.75,-3.75,-3.70,-4.17,-5.38,-5.40,-5.39
260.58,-1.63,3.77,-1.64,3.77,-3.77,-3.73,-4.19,-5.41,-5.41,-5.41
263.19,-1.62,3.79,-1.63,3.80,-3.80,-3.76,-4.19,-5.42,-5.43,-5.42
265.82,-1.63,3.81,-1.62,3.82,-3.82,-3.80,-4.19,-5.45,-5.44,-5.44
268.48,-1.63,3.82,-1.62,3.84,-3.84,-3.83,-4.19,-5.47,-5.46,-5.45
271.16,-1.63,3.84,-1.61,3.86,-3.86,-3.86,-4.18,-5.50,-5.48,-5.48
273.87,-1.64,3.84,-1.60,3.89,-3.89,-3.90,-4.18,-5.53,-5.49,-5.49
276.61,-1.64,3.86,-1.59,3.91,-3.91,-3.93,-4.16,-5.55,-5.50,-5.51
279.38,-1.59,3.94,-1.58,3.94,-3.94,-3.96,-4.15,-5.53,-5.52,-5.54
282.17,-1.54,3.99,-1.57,3.96,-3.96,-3.99,-4.13,-5.50,-5.53,-5.54
284.99,-1.53,4.01,-1.55,3.98,-3.98,-4.02,-4.11,-5.52,-5.54,-5.55
287.84,-1.52,4.02,-1.54,4.01,-4.01,-4.05,-4.09,-5.53,-5.55,-5.55
290.72,-1.51,4.05,-1.53,4.03,-4.03,-4.08,-4.07,-5.54,-5.56,-5.57
293.63,-1.50,4.06,-1.51,4.05,-4.05,-4.10,-4.05,-5.55,-5.56,-5.57
296.57,-1.49,4.07,-1.50,4.07,-4.07,-4.13,-4.03,-5.57,-5.57,-5.56
299.53,-1.47,4.10,-1.48,4.09,-4.09,-4.16,-4.01,-5.57,-5.57,-5.57
302.53,-1.46,4.11,-1.46,4.12,-4.12,-4.18,-3.99,-5.58,-5.58,-5.57
305.55,-1.45,4.12,-1.45,4.14,-4.14,-4.21,-3.97,-5.59,-5.58,-5.58
308.61,-1.44,4.13,-1.43,4.15,-4.15,-4.23,-3.95,-5.60,-5.59,-5.57
311.69,-1.44,4.15,-1.42,4.17,-4.17,-4.26,-3.94,-5.61,-5.59,-5.59
314.81,-1.43,4.15,-1.41,4.18,-4.18,-4.28,-3.92,-5.62,-5.59,-5.59
317.96,-1.43,4.17,-1.40,4.20,-4.20,-4.30,-3.91,-5.64,-5.60,-5.61
321.14,-1.36,4.24,-1.38,4.22,-4.22,-4.32,-3.90,-5.58,-5.60,-5.60
324.35,-1.33,4.27,-1.38,4.23,-4.23,-4.34,-3.89,-5.56,-5.61,-5.61
327.59,-1.33,4.27,-1.37,4.24,-4.24,-4.36,-3.88,-5.57,-5.61,-5.60
330.87,-1.33,4.28,-1.36,4.25,-4.25,-4.38,-3.88,-5.58,-5.61,-5.61
334.18,-1.33,4.29,-1.36,4.26,-4.26,-4.40,-3.88,-5.59,-5.62,-5.62
337.52,-1.34,4.28,-1.35,4.27,-4.27,-4.42,-3.88,-5.62,-5.62,-5.62
340.90,-1.34,4.28,-1.34,4.28,-4.28,-4.44,-3.88,-5.63,-5.62,-5.62
344.30,-1.34,4.28,-1.33,4.29,-4.29,-4.46,-3.89,-5.64,-5.62,-5.62
347.75,-1.34,4.27,-1.31,4.30,-4.30,-4.47,-3.90,-5.65,-5.62,-5.61
351.23,-1.34,4.28,-1.30,4.31,-4.31,-4.49,-3.92,-5.66,-5.62,-5.63
354.74,-1.33,4.28,-1.30,4.32,-4.32,-4.51,-3.93,-5.65,-5.61,-5.61
358.28,-1.32,4.29,-1.29,4.32,-4.32,-4.52,-3.95,-5.64,-5.61,-5.62
361.87,-1.25,4.36,-1.28,4.33,-4.33,-4.54,-3.98,-5.58,-5.61,-5.61
365.49,-1.22,4.38,-1.26,4.34,-4.34,-4.55,-4.00,-5.57,-5.60,-5.60
369.14,-1.21,4.38,-1.24,4.36,-4.36,-4.56,-4.03,-5.57,-5.60,-5.60
372.83,-1.20,4.39,-1.22,4.38,-4.38,-4.58,-4.06,-5.58,-5.60,-5.59
376.56,-1.19,4.40,-1.20,4.40,-4.40,-4.59,-4.10,-5.59,-5.60,-5.59
380.33,-1.19,4.40,-1.18,4.42,-4.42,-4.60,-4.14,-5.61,-5.60,-5.60
384.13,-1.18,4.41,-1.16,4.44,-4.44,-4.61,-4.18,-5.62,-5.60,-5.59
387.97,-1.17,4.42,-1.15,4.45,-4.45,-4.62,-4.22,-5.63,-5.60,-5.59
391.85,-1.17,4.42,-1.14,4.47,-4.47,-4.63,-4.27,-5.64,-5.61,-5.60
395.77,-1.10,4.51,-1.13,4.49,-4.49,-4.64,-4.31,-5.59,-5.61,-5.61
399.73,-1.07,4.54,-1.12,4.50,-4.50,-4.65,-4.36,-5.57,-5.62,-5.61
403.72,-1.07,4.53,-1.12,4.50,-4.50,-4.65,-4.42,-5.58,-5.62,-5.61
407.76,-1.08,4.54,-1.12,4.51,-4.51,-4.66,-4.47,-5.60,-5.63,-5.63
411.84,-1.08,4.55,-1.11,4.53,-4.53,-4.67,-4.52,-5.61,-5.63,-5.63
415.96,-1.08,4.55,-1.09,4.54,-4.54,-4.67,-4.58,-5.62,-5.63,-5.63
420.12,-1.08,4.56,-1.08,4.55,-4.55,-4.68,-4.64,-5.64,-5.63,-5.64
424.32,-1.07,4.56,-1.06,4.57,-4.57,-4.68,-4.69,-5.64,-5.62,-5.64
428.56,-1.06,4.55,-1.03,4.58,-4.58,-4.69,-4.75,-5.64,-5.61,-5.62
432.85,-1.05,4.55,-1.00,4.59,-4.59,-4.69,-4.80,-5.65,-5.59,-5.60
437.18,-1.02,4.57,-0.96,4.60,-4.60,-4.70,-4.86,-5.63,-5.57,-5.59
441.55,-0.99,4.56,-0.92,4.61,-4.61,-4.70,-4.91,-5.61,-5.54,-5.55
445.96,-0.91,4.60,-0.88,4.63,-4.63,-4.70,-4.96,-5.54,-5.50,-5.52
450.42,-0.79,4.68,-0.82,4.64,-4.64,-4.70,-5.01,-5.43,-5.46,-5.48
