frequency,raw,error,smoothed,error_smoothed,equalization,parametric_eq,fixed_band_eq,equalized_raw,equalized_smoothed,target
20.00,-3.24,-8.42,-3.24,-8.46,8.46,7.69,1.69,5.23,5.22,5.19
20.20,-3.10,-8.33,-3.10,-8.35,8.35,7.80,1.75,5.26,5.26,5.24
20.40,-2.95,-8.24,-2.95,-8.24,8.24,7.89,1.80,5.29,5.29,5.29
20.61,-2.82,-8.14,-2.81,-8.13,8.13,7.97,1.85,5.31,5.32,5.32
20.81,-2.67,-8.04,-2.66,-8.02,8.02,8.02,1.91,5.34,5.35,5.37
21.02,-2.54,-7.94,-2.52,-7.90,7.90,8.06,1.97,5.37,5.38,5.41
21.23,-2.39,-7.81,-2.38,-7.78,7.78,8.07,2.03,5.40,5.41,5.43
21.44,-2.23,-7.68,-2.24,-7.67,7.67,8.05,2.09,5.43,5.43,5.45
21.66,-2.09,-7.55,-2.10,-7.55,7.55,8.02,2.15,5.46,5.45,5.47
21.87,-1.94,-7.42,-1.96,-7.42,7.42,7.96,2.22,5.48,5.47,5.48
22.09,-1.79,-7.29,-1.82,-7.30,7.30,7.88,2.29,5.51,5.48,5.49
22.31,-1.66,-7.17,-1.68,-7.18,7.18,7.78,2.36,5.51,5.49,5.50
22.54,-1.54,-7.04,-1.55,-7.05,7.05,7.66,2.43,5.51,5.50,5.50
22.76,-1.40,-6.91,-1.41,-6.91,6.91,7.53,2.50,5.51,5.50,5.50
22.99,-1.28,-6.77,-1.28,-6.78,6.78,7.38,2.57,5.51,5.50,5.49
23.22,-1.15,-6.64,-1.14,-6.65,6.65,7.22,2.65,5.50,5.51,5.49
23.45,-1.02,-6.51,-1.01,-6.52,6.52,7.05,2.73,5.49,5.51,5.49
23.69,-0.90,-6.40,-0.88,-6.39,6.39,6.87,2.81,5.49,5.51,5.50
23.92,-0.77,-6.27,-0.75,-6.26,6.26,6.68,2.89,5.48,5.51,5.50
24.16,-0.63,-6.14,-0.62,-6.12,6.12,6.49,2.97,5.49,5.51,5.51
24.40,-0.48,-6.00,-0.49,-5.99,5.99,6.30,3.05,5.51,5.50,5.52
24.65,-0.35,-5.85,-0.35,-5.86,5.86,6.10,3.14,5.51,5.50,5.51
24.89,-0.19,-5.70,-0.22,-5.72,5.72,5.90,3.22,5.53,5.50,5.50
25.14,-0.06,-5.57,-0.08,-5.59,5.59,5.71,3.31,5.52,5.51,5.50
25.39,0.07,-5.45,0.06,-5.45,5.45,5.51,3.39,5.52,5.51,5.51
25.65,0.18,-5.33,0.19,-5.31,5.31,5.32,3.48,5.50,5.51,5.51
25.91,0.30,-5.20,0.33,-5.17,5.17,5.13,3.56,5.48,5.51,5.50
26.16,0.46,-5.04,0.47,-5.03,5.03,4.94,3.64,5.49,5.51,5.50
26.43,0.60,-4.90,0.61,-4.89,4.89,4.75,3.73,5.49,5.50,5.50
26.69,0.75,-4.74,0.75,-4.75,4.75,4.57,3.81,5.50,5.50,5.50
26.96,0.90,-4.60,0.89,-4.61,4.61,4.39,3.88,5.51,5.50,5.51
27.23,1.03,-4.47,1.03,-4.47,4.47,4.22,3.96,5.50,5.50,5.50
27.50,1.17,-4.33,1.17,-4.33,4.33,4.05,4.03,5.50,5.49,5.50
27.77,1.32,-4.17,1.31,-4.19,4.19,3.89,4.10,5.50,5.49,5.49
28.05,1.46,-4.03,1.45,-4.04,4.04,3.72,4.16,5.50,5.49,5.49
28.33,1.59,-3.89,1.60,-3.89,3.89,3.57,4.22,5.48,5.49,5.48
28.62,1.72,-3.75,1.74,-3.75,3.75,3.42,4.27,5.47,5.49,5.48
28.90,1.86,-3.63,1.87,-3.61,3.61,3.27,4.32,5.47,5.49,5.48
29.19,1.99,-3.48,2.00,-3.48,3.48,3.12,4.36,5.48,5.48,5.47
29.48,2.13,-3.37,2.12,-3.36,3.36,2.98,4.39,5.49,5.48,5.49
29.78,2.25,-3.23,2.24,-3.24,3.24,2.85,4.41,5.50,5.48,5.48
30.08,2.38,-3.10,2.35,-3.12,3.12,2.71,4.42,5.51,5.48,5.49
30.38,2.51,-2.96,2.47,-3.01,3.01,2.59,4.43,5.52,5.48,5.48
30.68,2.64,-2.83,2.58,-2.89,2.89,2.46,4.42,5.53,5.47,5.47
30.99,2.77,-2.70,2.70,-2.77,2.77,2.34,4.41,5.54,5.47,5.47
31.30,2.82,-2.64,2.82,-2.65,2.65,2.22,4.38,5.47,5.47,5.47
31.61,2.87,-2.59,2.94,-2.53,2.53,2.11,4.35,5.40,5.47,5.47
31.93,2.92,-2.54,3.06,-2.41,2.41,1.99,4.31,5.33,5.46,5.46
32.24,3.08,-2.37,3.17,-2.28,2.28,1.88,4.25,5.36,5.46,5.45
32.57,3.24,-2.21,3.29,-2.16,2.16,1.78,4.19,5.40,5.45,5.46
32.89,3.43,-2.03,3.41,-2.03,2.03,1.67,4.12,5.46,5.45,5.45
33.22,3.58,-1.87,3.53,-1.91,1.91,1.57,4.04,5.48,5.44,5.44
33.55,3.70,-1.74,3.66,-1.78,1.78,1.48,3.95,5.47,5.44,5.44
33.89,3.82,-1.60,3.79,-1.64,1.64,1.38,3.85,5.47,5.43,5.43
34.23,3.94,-1.49,3.91,-1.51,1.51,1.29,3.75,5.46,5.43,5.43
34.57,4.05,-1.36,4.03,-1.39,1.39,1.19,3.64,5.44,5.42,5.42
34.92,4.16,-1.25,4.15,-1.27,1.27,1.10,3.52,5.43,5.42,5.41
35.27,4.27,-1.14,4.27,-1.14,1.14,1.02,3.40,5.42,5.41,5.41
35.62,4.38,-1.02,4.39,-1.02,1.02,0.93,3.27,5.40,5.41,5.41
35.97,4.49,-0.92,4.51,-0.90,0.90,0.85,3.14,5.38,5.41,5.40
36.33,4.61,-0.80,4.62,-0.78,0.78,0.77,3.01,5.39,5.40,5.41
36.70,4.73,-0.66,4.73,-0.67,0.67,0.68,2.87,5.41,5.40,5.39
37.06,4.85,-0.54,4.83,-0.57,0.57,0.61,2.73,5.42,5.40,5.39
37.43,4.89,-0.52,4.93,-0.47,0.47,0.53,2.58,5.36,5.40,5.40
37.81,4.93,-0.47,5.02,-0.38,0.38,0.45,2.44,5.31,5.40,5.40
38.19,5.06,-0.33,5.12,-0.28,0.28,0.38,2.29,5.34,5.40,5.39
38.57,5.28,-0.12,5.22,-0.17,0.17,0.30,2.14,5.46,5.40,5.40
38.95,5.50,0.10,5.33,-0.07,0.07,0.23,1.99,5.58,5.40,5.40
39.34,5.52,0.13,5.43,0.03,-0.03,0.16,1.84,5.49,5.40,5.40
39.74,5.52,0.13,5.52,0.13,-0.13,0.09,1.69,5.40,5.40,5.39
40.14,5.53,0.14,5.62,0.23,-0.23,0.02,1.54,5.31,5.39,5.40
40.54,5.60,0.21,5.71,0.32,-0.32,-0.05,1.39,5.28,5.39,5.39
40.94,5.68,0.29,5.80,0.42,-0.42,-0.12,1.24,5.26,5.38,5.38
41.35,5.86,0.48,5.89,0.51,-0.51,-0.19,1.09,5.34,5.38,5.38
41.76,6.05,0.68,5.98,0.61,-0.61,-0.25,0.93,5.44,5.37,5.37
42.18,6.17,0.80,6.06,0.70,-0.70,-0.32,0.78,5.47,5.36,5.37
42.60,6.21,0.85,6.14,0.79,-0.79,-0.39,0.63,5.41,5.35,5.35
43.03,6.24,0.90,6.22,0.89,-0.89,-0.45,0.48,5.36,5.34,5.34
43.46,6.30,0.97,6.31,0.99,-0.99,-0.52,0.33,5.32,5.32,5.34
43.90,6.37,1.07,6.40,1.10,-1.10,-0.58,0.17,5.28,5.31,5.31
44.33,6.46,1.17,6.50,1.20,-1.20,-0.64,0.02,5.25,5.29,5.29
44.78,6.54,1.27,6.59,1.31,-1.31,-0.71,-0.13,5.24,5.28,5.27
45.23,6.63,1.37,6.67,1.41,-1.41,-0.77,-0.28,5.23,5.26,5.26
45.68,6.73,1.49,6.74,1.50,-1.50,-0.83,-0.43,5.24,5.25,5.24
46.13,6.84,1.62,6.82,1.58,-1.58,-0.90,-0.58,5.25,5.23,5.22
46.60,6.93,1.72,6.89,1.68,-1.68,-0.96,-0.74,5.26,5.22,5.22
47.06,7.02,1.83,6.98,1.78,-1.78,-1.02,-0.89,5.25,5.20,5.20
47.53,7.06,1.88,7.06,1.88,-1.88,-1.08,-1.04,5.18,5.18,5.19
48.01,7.11,1.93,7.14,1.98,-1.98,-1.15,-1.19,5.13,5.17,5.18
48.49,7.20,2.04,7.22,2.07,-2.07,-1.21,-1.34,5.13,5.15,5.16
48.97,7.29,2.16,7.29,2.16,-2.16,-1.27,-1.49,5.14,5.13,5.14
49.46,7.35,2.24,7.36,2.24,-2.24,-1.33,-1.64,5.11,5.12,5.11
49.96,7.40,2.31,7.43,2.33,-2.33,-1.40,-1.79,5.08,5.10,5.09
50.46,7.50,2.42,7.50,2.41,-2.41,-1.46,-1.94,5.09,5.09,5.09
50.96,7.60,2.53,7.56,2.49,-2.49,-1.52,-2.09,5.11,5.07,5.07
51.47,7.64,2.60,7.62,2.57,-2.57,-1.58,-2.23,5.08,5.06,5.05
51.99,7.67,2.64,7.68,2.64,-2.64,-1.65,-2.38,5.04,5.04,5.03
52.51,7.71,2.69,7.73,2.71,-2.71,-1.71,-2.52,5.01,5.02,5.02
53.03,7.75,2.74,7.78,2.78,-2.78,-1.77,-2.66,4.98,5.01,5.02
53.56,7.80,2.81,7.83,2.84,-2.84,-1.84,-2.80,4.97,4.99,5.00
54.10,7.86,2.88,7.88,2.90,-2.90,-1.90,-2.94,4.97,4.98,4.98
54.64,7.95,2.99,7.92,2.95,-2.95,-1.97,-3.08,5.01,4.97,4.96
55.18,8.01,3.06,7.95,3.00,-3.00,-2.03,-3.21,5.02,4.95,4.95
55.74,8.01,3.08,7.98,3.05,-3.05,-2.10,-3.34,4.97,4.94,4.93
56.29,7.99,3.07,8.01,3.09,-3.09,-2.16,-3.46,4.90,4.92,4.92
56.86,7.96,3.07,8.04,3.14,-3.14,-2.23,-3.58,4.82,4.90,4.90
57.42,8.03,3.16,8.08,3.19,-3.19,-2.29,-3.70,4.83,4.88,4.87
58.00,8.11,3.26,8.10,3.24,-3.24,-2.36,-3.81,4.88,4.86,4.85
58.58,8.11,3.27,8.11,3.28,-3.28,-2.43,-3.91,4.84,4.83,4.84
59.16,8.11,3.30,8.11,3.31,-3.31,-2.49,-4.01,4.81,4.80,4.82
59.76,8.11,3.32,8.11,3.34,-3.34,-2.56,-4.10,4.78,4.77,4.79
60.35,8.11,3.37,8.10,3.37,-3.37,-2.63,-4.19,4.75,4.74,4.75
60.96,8.11,3.41,8.09,3.39,-3.39,-2.70,-4.27,4.72,4.70,4.71
61.57,8.13,3.47,8.08,3.43,-3.43,-2.77,-4.34,4.71,4.66,4.66
62.18,8.13,3.52,8.08,3.46,-3.46,-2.84,-4.40,4.67,4.61,4.61
62.80,8.08,3.52,8.06,3.49,-3.49,-2.91,-4.46,4.60,4.57,4.56
63.43,7.98,3.47,8.03,3.51,-3.51,-2.98,-4.51,4.48,4.52,4.51
64.07,7.88,3.41,7.99,3.52,-3.52,-3.05,-4.56,4.36,4.47,4.46
64.71,7.90,3.49,7.95,3.53,-3.53,-3.13,-4.60,4.37,4.42,4.41
65.35,7.92,3.56,7.92,3.55,-3.55,-3.20,-4.63,4.38,4.37,4.37
66.01,7.94,3.63,7.88,3.56,-3.56,-3.27,-4.66,4.38,4.32,4.31
66.67,7.85,3.60,7.83,3.57,-3.57,-3.35,-4.68,4.29,4.26,4.26
67.33,7.82,3.62,7.78,3.57,-3.57,-3.42,-4.69,4.25,4.21,4.20
68.01,7.83,3.68,7.74,3.58,-3.58,-3.50,-4.71,4.25,4.15,4.16
68.69,7.67,3.56,7.70,3.60,-3.60,-3.57,-4.71,4.07,4.10,4.10
69.37,7.60,3.56,7.66,3.62,-3.62,-3.65,-4.72,3.99,4.04,4.04
70.07,7.61,3.63,7.63,3.65,-3.65,-3.72,-4.72,3.96,3.98,3.98
70.77,7.62,3.69,7.61,3.69,-3.69,-3.80,-4.71,3.93,3.92,3.93
71.48,7.57,3.70,7.60,3.74,-3.74,-3.88,-4.71,3.84,3.86,3.87
72.19,7.51,3.72,7.58,3.78,-3.78,-3.96,-4.70,3.74,3.80,3.80
72.91,7.51,3.78,7.57,3.83,-3.83,-4.04,-4.70,3.68,3.73,3.74
73.64,7.51,3.84,7.56,3.89,-3.89,-4.11,-4.69,3.62,3.67,3.67
74.38,7.55,3.95,7.57,3.97,-3.97,-4.19,-4.68,3.59,3.61,3.61
75.12,7.61,4.07,7.59,4.04,-4.04,-4.27,-4.68,3.57,3.55,3.54
75.87,7.62,4.14,7.61,4.12,-4.12,-4.35,-4.67,3.49,3.48,3.47
76.63,7.67,4.26,7.64,4.22,-4.22,-4.43,-4.66,3.46,3.42,3.42
77.40,7.71,4.36,7.67,4.31,-4.31,-4.52,-4.66,3.41,3.36,3.36
78.17,7.71,4.43,7.70,4.40,-4.40,-4.60,-4.66,3.32,3.30,3.29
78.95,7.70,4.46,7.73,4.49,-4.49,-4.68,-4.66,3.22,3.24,3.25
79.74,7.74,4.56,7.76,4.58,-4.58,-4.76,-4.66,3.17,3.18,3.18
80.54,7.78,4.65,7.79,4.66,-4.66,-4.84,-4.67,3.12,3.13,3.13
81.35,7.81,4.75,7.81,4.74,-4.74,-4.92,-4.67,3.07,3.07,3.07
82.16,7.82,4.81,7.83,4.82,-4.82,-5.00,-4.68,3.01,3.01,3.01
82.98,7.85,4.89,7.85,4.89,-4.89,-5.08,-4.70,2.97,2.96,2.97
83.81,7.90,5.00,7.86,4.96,-4.96,-5.17,-4.72,2.94,2.90,2.90
84.65,7.91,5.07,7.88,5.04,-5.04,-5.25,-4.74,2.88,2.85,2.84
85.50,7.91,5.12,7.90,5.11,-5.11,-5.33,-4.76,2.80,2.79,2.79
86.35,7.91,5.18,7.92,5.19,-5.19,-5.41,-4.79,2.73,2.73,2.74
87.22,7.91,5.24,7.94,5.26,-5.26,-5.49,-4.82,2.65,2.67,2.68
88.09,7.91,5.30,7.96,5.34,-5.34,-5.57,-4.86,2.57,2.61,2.62
88.97,7.91,5.36,7.97,5.42,-5.42,-5.64,-4.90,2.50,2.55,2.55
89.86,7.91,5.42,7.98,5.49,-5.49,-5.72,-4.94,2.43,2.49,2.49
90.76,7.99,5.56,7.99,5.55,-5.55,-5.80,-4.98,2.44,2.43,2.43
91.66,8.02,5.65,7.99,5.62,-5.62,-5.87,-5.04,2.41,2.37,2.38
92.58,8.02,5.72,8.00,5.68,-5.68,-5.95,-5.09,2.34,2.31,2.30
93.51,8.02,5.78,8.00,5.74,-5.74,-6.02,-5.15,2.28,2.25,2.25
94.44,8.02,5.83,7.99,5.80,-5.80,-6.09,-5.21,2.23,2.19,2.19
95.39,8.02,5.89,7.99,5.85,-5.85,-6.16,-5.27,2.17,2.13,2.14
96.34,8.00,5.93,7.97,5.90,-5.90,-6.23,-5.34,2.11,2.08,2.07
97.30,7.95,5.94,7.96,5.94,-5.94,-6.30,-5.41,2.02,2.02,2.02
98.28,7.89,5.93,7.93,5.97,-5.97,-6.36,-5.49,1.92,1.96,1.96
99.26,7.88,5.98,7.91,6.01,-6.01,-6.42,-5.57,1.88,1.90,1.90
100.25,7.87,6.03,7.88,6.04,-6.04,-6.48,-5.65,1.84,1.85,1.85
101.25,7.85,6.07,7.85,6.06,-6.06,-6.54,-5.73,1.79,1.79,1.79
102.27,7.81,6.08,7.81,6.08,-6.08,-6.60,-5.81,1.73,1.73,1.73
103.29,7.75,6.09,7.77,6.10,-6.10,-6.65,-5.90,1.65,1.67,1.66
104.32,7.70,6.09,7.73,6.12,-6.12,-6.70,-5.98,1.58,1.61,1.62
105.37,7.68,6.13,7.69,6.14,-6.14,-6.75,-6.07,1.54,1.55,1.56
106.42,7.65,6.15,7.65,6.16,-6.16,-6.79,-6.16,1.49,1.49,1.50
107.48,7.63,6.20,7.61,6.18,-6.18,-6.83,-6.24,1.45,1.43,1.43
108.56,7.60,6.24,7.57,6.20,-6.20,-6.87,-6.33,1.41,1.37,1.37
109.64,7.58,6.28,7.52,6.22,-6.22,-6.91,-6.42,1.37,1.30,1.31
110.74,7.48,6.24,7.48,6.23,-6.23,-6.94,-6.50,1.25,1.24,1.24
111.85,7.37,6.18,7.43,6.25,-6.25,-6.97,-6.58,1.12,1.18,1.19
112.97,7.34,6.23,7.39,6.26,-6.26,-6.99,-6.65,1.08,1.12,1.12
114.10,7.33,6.28,7.34,6.28,-6.28,-7.01,-6.73,1.05,1.06,1.06
115.24,7.32,6.32,7.30,6.30,-6.30,-7.03,-6.79,1.03,1.01,1.00
116.39,7.25,6.32,7.26,6.31,-6.31,-7.04,-6.85,0.94,0.95,0.94
117.55,7.17,6.28,7.22,6.32,-6.32,-7.05,-6.91,0.85,0.90,0.89
118.73,7.14,6.31,7.18,6.33,-6.33,-7.06,-6.96,0.81,0.85,0.84
119.92,7.14,6.34,7.14,6.34,-6.34,-7.06,-7.00,0.80,0.80,0.80
121.12,7.14,6.40,7.10,6.35,-6.35,-7.06,-7.03,0.80,0.76,0.75
122.33,7.08,6.38,7.06,6.35,-6.35,-7.06,-7.06,0.73,0.71,0.71
123.55,7.01,6.34,7.03,6.36,-6.36,-7.05,-7.07,0.66,0.67,0.67
124.79,6.97,6.34,6.99,6.36,-6.36,-7.04,-7.08,0.61,0.63,0.63
126.03,6.98,6.39,6.95,6.36,-6.36,-7.03,-7.08,0.63,0.59,0.59
127.29,6.92,6.37,6.90,6.35,-6.35,-7.01,-7.07,0.57,0.55,0.56
128.57,6.86,6.36,6.85,6.34,-6.34,-6.99,-7.05,0.52,0.51,0.51
129.85,6.80,6.33,6.81,6.34,-6.34,-6.96,-7.03,0.47,0.47,0.47
131.15,6.73,6.30,6.76,6.32,-6.32,-6.94,-6.99,0.41,0.43,0.43
132.46,6.67,6.28,6.70,6.31,-6.31,-6.91,-6.95,0.37,0.40,0.39
133.79,6.62,6.27,6.64,6.28,-6.28,-6.87,-6.90,0.34,0.36,0.36
135.12,6.56,6.25,6.58,6.25,-6.25,-6.84,-6.84,0.31,0.32,0.31
136.48,6.53,6.25,6.52,6.23,-6.23,-6.80,-6.78,0.31,0.29,0.29
137.84,6.51,6.27,6.46,6.21,-6.21,-6.76,-6.72,0.31,0.25,0.24
139.22,6.39,6.20,6.39,6.18,-6.18,-6.72,-6.65,0.21,0.21,0.20
140.61,6.32,6.17,6.33,6.15,-6.15,-6.68,-6.57,0.17,0.17,0.16
142.02,6.29,6.16,6.27,6.13,-6.13,-6.64,-6.49,0.16,0.13,0.14
143.44,6.17,6.08,6.20,6.11,-6.11,-6.59,-6.41,0.06,0.09,0.10
144.87,6.09,6.05,6.14,6.10,-6.10,-6.54,-6.33,-0.00,0.04,0.05
146.32,6.04,6.05,6.07,6.08,-6.08,-6.49,-6.25,-0.04,-0.01,-0.00
147.78,5.96,6.00,6.00,6.07,-6.07,-6.45,-6.16,-0.11,-0.07,-0.04
149.26,5.93,6.03,5.93,6.06,-6.06,-6.40,-6.08,-0.12,-0.13,-0.10
150.75,5.92,6.10,5.85,6.05,-6.05,-6.35,-6.00,-0.12,-0.19,-0.17
152.26,5.83,6.08,5.77,6.04,-6.04,-6.30,-5.92,-0.20,-0.26,-0.25
153.78,5.69,6.01,5.69,6.03,-6.03,-6.25,-5.84,-0.34,-0.34,-0.32
155.32,5.64,6.05,5.62,6.03,-6.03,-6.20,-5.76,-0.39,-0.41,-0.40
156.88,5.58,6.07,5.55,6.04,-6.04,-6.15,-5.68,-0.45,-0.49,-0.48
158.44,5.49,6.07,5.47,6.04,-6.04,-6.10,-5.61,-0.55,-0.57,-0.57
160.03,5.37,6.04,5.41,6.05,-6.05,-6.05,-5.54,-0.68,-0.64,-0.66
161.63,5.29,6.04,5.34,6.06,-6.06,-6.00,-5.47,-0.76,-0.72,-0.74
163.24,5.23,6.04,5.28,6.06,-6.06,-5.96,-5.40,-0.83,-0.79,-0.81
164.88,5.15,6.02,5.22,6.07,-6.07,-5.91,-5.34,-0.91,-0.85,-0.87
166.53,5.12,6.05,5.17,6.07,-6.07,-5.87,-5.28,-0.94,-0.90,-0.92
168.19,5.10,6.07,5.12,6.07,-6.07,-5.83,-5.23,-0.96,-0.95,-0.97
169.87,5.09,6.10,5.08,6.07,-6.07,-5.79,-5.18,-0.97,-0.99,-1.01
171.57,5.07,6.11,5.05,6.07,-6.07,-5.76,-5.13,-0.99,-1.02,-1.03
173.29,5.01,6.07,5.01,6.06,-6.06,-5.72,-5.09,-1.04,-1.04,-1.05
175.02,4.97,6.04,4.98,6.05,-6.05,-5.69,-5.05,-1.07,-1.06,-1.07
176.77,4.97,6.06,4.96,6.04,-6.04,-5.67,-5.01,-1.06,-1.08,-1.09
178.54,4.97,6.07,4.94,6.03,-6.03,-5.64,-4.98,-1.05,-1.09,-1.10
180.32,4.94,6.04,4.91,6.02,-6.02,-5.62,-4.95,-1.07,-1.10,-1.09
182.13,4.89,5.99,4.89,6.00,-6.00,-5.61,-4.93,-1.11,-1.12,-1.09
183.95,4.83,5.94,4.86,5.99,-5.99,-5.59,-4.91,-1.15,-1.13,-1.11
185.79,4.80,5.92,4.83,5.97,-5.97,-5.59,-4.89,-1.17,-1.14,-1.12
187.65,4.80,5.95,4.80,5.95,-5.95,-5.58,-4.88,-1.15,-1.15,-1.14
189.52,4.75,5.91,4.77,5.94,-5.94,-5.58,-4.87,-1.18,-1.17,-1.16
191.42,4.69,5.87,4.73,5.91,-5.91,-5.58,-4.87,-1.22,-1.18,-1.18
193.33,4.67,5.88,4.69,5.90,-5.90,-5.59,-4.86,-1.22,-1.20,-1.20
195.27,4.67,5.90,4.65,5.88,-5.88,-5.60,-4.86,-1.20,-1.22,-1.22
197.22,4.64,5.89,4.61,5.85,-5.85,-5.61,-4.87,-1.21,-1.25,-1.25
199.19,4.57,5.85,4.56,5.82,-5.82,-5.62,-4.87,-1.25,-1.27,-1.28
201.18,4.51,5.81,4.50,5.80,-5.80,-5.63,-4.88,-1.28,-1.29,-1.30
203.19,4.44,5.76,4.43,5.75,-5.75,-5.64,-4.89,-1.31,-1.32,-1.32
205.23,4.38,5.73,4.36,5.70,-5.70,-5.65,-4.90,-1.31,-1.34,-1.35
207.28,4.30,5.66,4.27,5.64,-5.64,-5.66,-4.92,-1.34,-1.37,-1.35
209.35,4.18,5.57,4.18,5.57,-5.57,-5.65,-4.93,-1.39,-1.39,-1.38
211.44,4.10,5.52,4.10,5.51,-5.51,-5.64,-4.94,-1.40,-1.41,-1.42
213.56,4.10,5.53,4.02,5.44,-5.44,-5.62,-4.96,-1.34,-1.43,-1.43
215.69,3.96,5.41,3.94,5.39,-5.39,-5.59,-4.97,-1.42,-1.44,-1.44
217.85,3.78,5.24,3.87,5.33,-5.33,-5.54,-4.98,-1.54,-1.46,-1.46
220.03,3.70,5.18,3.80,5.27,-5.27,-5.48,-5.00,-1.56,-1.47,-1.47
222.23,3.59,5.09,3.72,5.20,-5.20,-5.41,-5.00,-1.61,-1.48,-1.50
224.45,3.46,4.96,3.63,5.12,-5.12,-5.32,-5.01,-1.65,-1.49,-1.49
226.70,3.48,4.98,3.54,5.03,-5.03,-5.22,-5.02,-1.54,-1.49,-1.50
228.96,3.50,4.99,3.45,4.93,-4.93,-5.11,-5.02,-1.43,-1.49,-1.49
231.25,3.42,4.91,3.35,4.83,-4.83,-4.99,-5.01,-1.40,-1.48,-1.48
233.57,3.47,4.95,3.25,4.72,-4.72,-4.86,-5.00,-1.24,-1.47,-1.47
235.90,3.38,4.85,3.14,4.60,-4.60,-4.73,-4.99,-1.22,-1.46,-1.46
238.26,3.19,4.65,3.04,4.49,-4.49,-4.59,-4.97,-1.29,-1.45,-1.46
240.64,2.95,4.39,2.95,4.38,-4.38,-4.45,-4.95,-1.42,-1.43,-1.44
243.05,2.76,4.17,2.85,4.26,-4.26,-4.30,-4.91,-1.50,-1.41,-1.41
245.48,2.59,3.98,2.76,4.15,-4.15,-4.16,-4.88,-1.56,-1.39,-1.39
247.93,2.47,3.83,2.67,4.04,-4.04,-4.02,-4.83,-1.57,-1.37,-1.36
250.41,2.49,3.84,2.58,3.93,-3.93,-3.88,-4.78,-1.44,-1.35,-1.35
252.92,2.43,3.75,2.49,3.82,-3.82,-3.74,-4.72,-1.38,-1.33,-1.32
255.45,2.36,3.66,2.41,3.72,-3.72,-3.60,-4.65,-1.35,-1.30,-1.29
258.00,2.33,3.61,2.36,3.64,-3.64,-3.47,-4.58,-1.30,-1.28,-1.27
260.58,2.34,3.61,2.30,3.56,-3.56,-3.35,-4.50,-1.21,-1.26,-1.26
263.19,2.34,3.57,2.27,3.50,-3.50,-3.22,-4.41,-1.16,-1.23,-1.23
265.82,2.23,3.45,2.24,3.45,-3.45,-3.11,-4.32,-1.22,-1.21,-1.22
268.48,2.22,3.42,2.22,3.41,-3.41,-2.99,-4.22,-1.18,-1.19,-1.19
271.16,2.24,3.41,2.19,3.35,-3.35,-2.88,-4.11,-1.11,-1.16,-1.16
273.87,2.13,3.28,2.14,3.28,-3.28,-2.77,-4.00,-1.15,-1.14,-1.15
276.61,2.09,3.21,2.09,3.20,-3.20,-2.67,-3.88,-1.11,-1.12,-1.11
279.38,2.06,3.16,2.02,3.11,-3.11,-2.57,-3.76,-1.05,-1.09,-1.09
282.17,2.04,3.11,1.96,3.02,-3.02,-2.47,-3.63,-0.98,-1.06,-1.07
284.99,1.94,2.98,1.88,2.92,-2.92,-2.38,-3.50,-0.98,-1.04,-1.03
287.84,1.75,2.77,1.80,2.81,-2.81,-2.29,-3.37,-1.05,-1.01,-1.02
290.72,1.73,2.72,1.71,2.69,-2.69,-2.20,-3.24,-0.95,-0.98,-0.98
293.63,1.61,2.57,1.62,2.57,-2.57,-2.11,-3.10,-0.96,-0.95,-0.96
296.57,1.49,2.42,1.54,2.46,-2.46,-2.03,-2.96,-0.97,-0.93,-0.92
299.53,1.32,2.22,1.45,2.35,-2.35,-1.95,-2.82,-1.02,-0.90,-0.90
302.53,1.32,2.21,1.35,2.23,-2.23,-1.87,-2.67,-0.90,-0.87,-0.88
305.55,1.28,2.12,1.26,2.10,-2.10,-1.79,-2.53,-0.82,-0.85,-0.84
308.61,1.16,1.99,1.15,1.98,-1.98,-1.71,-2.38,-0.81,-0.83,-0.82
311.69,1.02,1.82,1.04,1.85,-1.85,-1.64,-2.24,-0.82,-0.80,-0.80
314.81,0.94,1.72,0.95,1.73,-1.73,-1.57,-2.09,-0.78,-0.78,-0.77
317.96,0.87,1.63,0.86,1.62,-1.62,-1.49,-1.94,-0.75,-0.76,-0.75
321.14,0.80,1.55,0.77,1.51,-1.51,-1.42,-1.80,-0.71,-0.74,-0.75
324.35,0.75,1.49,0.67,1.39,-1.39,-1.35,-1.65,-0.64,-0.73,-0.73
327.59,0.63,1.35,0.57,1.29,-1.29,-1.28,-1.50,-0.65,-0.71,-0.71
330.87,0.42,1.13,0.48,1.18,-1.18,-1.21,-1.35,-0.76,-0.70,-0.71
334.18,0.24,0.94,0.38,1.07,-1.07,-1.15,-1.21,-0.83,-0.69,-0.69
337.52,0.20,0.89,0.27,0.95,-0.95,-1.08,-1.06,-0.74,-0.68,-0.68
340.90,0.13,0.80,0.15,0.83,-0.83,-1.01,-0.91,-0.69,-0.67,-0.67
344.30,0.08,0.74,0.05,0.72,-0.72,-0.95,-0.76,-0.63,-0.67,-0.66
347.75,0.08,0.75,-0.06,0.61,-0.61,-0.88,-0.62,-0.52,-0.66,-0.66
351.23,-0.14,0.52,-0.17,0.49,-0.49,-0.81,-0.47,-0.62,-0.66,-0.66
354.74,-0.33,0.33,-0.29,0.36,-0.36,-0.75,-0.32,-0.69,-0.65,-0.66
358.28,-0.37,0.28,-0.40,0.25,-0.25,-0.68,-0.18,-0.62,-0.65,-0.65
361.87,-0.44,0.22,-0.49,0.16,-0.16,-0.61,-0.03,-0.59,-0.65,-0.65
365.49,-0.60,0.05,-0.58,0.07,-0.07,-0.55,0.11,-0.67,-0.65,-0.64
369.14,-0.83,-0.17,-0.66,-0.01,0.01,-0.48,0.26,-0.81,-0.65,-0.66
372.83,-0.86,-0.20,-0.76,-0.10,0.10,-0.41,0.41,-0.75,-0.65,-0.66
376.56,-0.88,-0.21,-0.86,-0.20,0.20,-0.34,0.55,-0.68,-0.66,-0.66
380.33,-0.95,-0.29,-0.96,-0.30,0.30,-0.28,0.70,-0.65,-0.66,-0.65
384.13,-1.08,-0.42,-1.06,-0.39,0.39,-0.21,0.84,-0.68,-0.66,-0.65
387.97,-1.24,-0.57,-1.15,-0.48,0.48,-0.14,0.98,-0.76,-0.67,-0.67
391.85,-1.17,-0.49,-1.24,-0.57,0.57,-0.07,1.13,-0.60,-0.67,-0.68
395.77,-1.11,-0.44,-1.35,-0.67,0.67,0.01,1.27,-0.44,-0.68,-0.67
399.73,-1.29,-0.60,-1.46,-0.78,0.78,0.08,1.41,-0.51,-0.69,-0.68
403.72,-1.55,-0.86,-1.57,-0.88,0.88,0.15,1.55,-0.67,-0.69,-0.68
407.76,-1.75,-1.05,-1.67,-0.97,0.97,0.23,1.70,-0.77,-0.70,-0.69
411.84,-1.79,-1.09,-1.76,-1.06,1.06,0.31,1.83,-0.72,-0.70,-0.70
415.96,-1.85,-1.15,-1.85,-1.15,1.15,0.39,1.97,-0.69,-0.70,-0.70
420.12,-2.05,-1.35,-1.94,-1.24,1.24,0.47,2.11,-0.80,-0.70,-0.70
424.32,-2.07,-1.37,-2.03,-1.34,1.34,0.55,2.24,-0.73,-0.69,-0.70
428.56,-2.19,-1.49,-2.11,-1.43,1.43,0.63,2.37,-0.76,-0.68,-0.69
432.85,-2.43,-1.74,-2.19,-1.52,1.52,0.72,2.50,-0.91,-0.67,-0.68
437.18,-2.37,-1.69,-2.28,-1.63,1.63,0.81,2.62,-0.73,-0.65,-0.67
441.55,-2.22,-1.58,-2.35,-1.73,1.73,0.90,2.74,-0.48,-0.62,-0.63
445.96,-2.28,-1.67,-2.40,-1.80,1.80,0.99,2.85,-0.47,-0.59,-0.61
450.42,-2.31,-1.73,-2.44,-1.89,1.89,1.09,2.97,-0.42,-0.56,-0.58
454.93,-2.35,-1.82,-2.48,-1.96,1.96,1.19,3.07,-0.38,-0.51,-0.53
459.48,-2.45,-1.97,-2.50,-2.03,2.03,1.29,3.17,-0.41,-0.47,-0.48
464.07,-2.66,-2.23,-2.54,-2.12,2.12,1.39,3.26,-0.54,-0.43,-0.43
468.71,-2.67,-2.30,-2.57,-2.19,2.19,1.50,3.35,-0.48,-0.38,-0.37
473.40,-2.63,-2.29,-2.57,-2.24,2.24,1.61,3.43,-0.38,-0.33,-0.33
478.13,-2.75,-2.47,-2.59,-2.31,2.31,1.72,3.50,-0.44,-0.28,-0.27
482.91,-2.83,-2.59,-2.63,-2.39,2.39,1.84,3.56,-0.43,-0.24,-0.23
487.74,-2.58,-2.38,-2.67,-2.47,2.47,1.95,3.62,-0.10,-0.19,-0.19
492.62,-2.61,-2.46,-2.71,-2.55,2.55,2.08,3.67,-0.05,-0.16,-0.14
497.55,-2.77,-2.64,-2.75,-2.62,2.62,2.20,3.71,-0.14,-0.13,-0.12
502.52,-2.56,-2.46,-2.78,-2.68,2.68,2.33,3.74,0.12,-0.11,-0.09
507.55,-2.80,-2.71,-2.84,-2.75,2.75,2.46,3.76,-0.05,-0.09,-0.09
512.62,-3.01,-2.93,-2.91,-2.82,2.82,2.59,3.77,-0.18,-0.09,-0.08
