frequency,raw,error,smoothed,error_smoothed,equalization,parametric_eq,fixed_band_eq,equalized_raw,equalized_smoothed,target
20.00,4.47,-6.31,4.46,-6.33,6.37,3.64,1.36,10.84,10.83,10.78
20.20,4.55,-6.24,4.55,-6.24,6.24,3.62,1.40,10.79,10.79,10.79
20.40,4.65,-6.15,4.67,-6.13,6.10,3.61,1.44,10.75,10.77,10.80
20.61,4.80,-6.01,4.80,-6.01,5.96,3.60,1.49,10.76,10.76,10.81
20.81,4.97,-5.84,4.96,-5.85,5.83,3.58,1.53,10.80,10.79,10.81
21.02,5.13,-5.69,5.13,-5.70,5.69,3.57,1.58,10.82,10.82,10.82
21.23,5.28,-5.55,5.28,-5.55,5.56,3.56,1.62,10.84,10.84,10.83
21.44,5.43,-5.41,5.43,-5.41,5.42,3.54,1.67,10.85,10.85,10.84
21.66,5.57,-5.27,5.57,-5.28,5.28,3.53,1.72,10.85,10.85,10.84
21.87,5.70,-5.15,5.71,-5.14,5.14,3.52,1.77,10.84,10.85,10.85
22.09,5.85,-5.00,5.84,-5.01,5.01,3.50,1.83,10.86,10.85,10.85
22.31,5.99,-4.87,5.98,-4.88,4.88,3.49,1.88,10.87,10.86,10.86
22.54,6.10,-4.76,6.11,-4.75,4.76,3.47,1.94,10.85,10.86,10.86
22.76,6.24,-4.63,6.23,-4.64,4.63,3.46,1.99,10.87,10.87,10.87
22.99,6.35,-4.52,6.35,-4.52,4.51,3.45,2.05,10.86,10.86,10.87
23.22,6.48,-4.39,6.48,-4.40,4.40,3.43,2.11,10.87,10.87,10.87
23.45,6.59,-4.29,6.59,-4.28,4.28,3.42,2.17,10.87,10.88,10.88
23.69,6.72,-4.16,6.71,-4.17,4.17,3.40,2.23,10.89,10.88,10.88
23.92,6.82,-4.06,6.82,-4.06,4.06,3.39,2.30,10.88,10.89,10.88
24.16,6.93,-3.95,6.93,-3.95,3.96,3.37,2.36,10.89,10.89,10.88
24.40,7.03,-3.86,7.03,-3.86,3.86,3.36,2.43,10.89,10.88,10.89
24.65,7.13,-3.76,7.12,-3.77,3.76,3.34,2.49,10.89,10.88,10.89
24.89,7.21,-3.68,7.22,-3.67,3.67,3.33,2.56,10.88,10.89,10.89
25.14,7.32,-3.57,7.32,-3.58,3.57,3.31,2.63,10.89,10.89,10.89
25.39,7.42,-3.47,7.41,-3.48,3.49,3.30,2.70,10.91,10.89,10.89
25.65,7.48,-3.41,7.49,-3.40,3.40,3.28,2.76,10.88,10.89,10.89
25.91,7.58,-3.31,7.57,-3.32,3.32,3.27,2.83,10.90,10.89,10.89
26.16,7.64,-3.25,7.65,-3.24,3.24,3.25,2.90,10.88,10.89,10.89
26.43,7.74,-3.15,7.73,-3.16,3.16,3.24,2.97,10.90,10.89,10.89
26.69,7.80,-3.09,7.79,-3.10,3.09,3.22,3.03,10.89,10.89,10.89
26.96,7.86,-3.03,7.87,-3.02,3.03,3.20,3.10,10.88,10.89,10.89
27.23,7.93,-2.96,7.93,-2.96,2.96,3.19,3.16,10.89,10.89,10.89
27.50,8.01,-2.88,7.99,-2.90,2.90,3.17,3.22,10.91,10.89,10.89
27.77,8.05,-2.84,8.05,-2.84,2.84,3.16,3.28,10.89,10.89,10.89
28.05,8.09,-2.80,8.10,-2.79,2.79,3.14,3.34,10.87,10.89,10.89
28.33,8.16,-2.73,8.15,-2.74,2.73,3.12,3.39,10.89,10.89,10.89
28.62,8.21,-2.68,8.20,-2.69,2.68,3.11,3.44,10.89,10.89,10.89
28.90,8.26,-2.63,8.26,-2.63,2.64,3.09,3.48,10.90,10.89,10.89
29.19,8.29,-2.60,8.30,-2.59,2.59,3.07,3.53,10.88,10.89,10.89
29.48,8.35,-2.54,8.34,-2.55,2.55,3.06,3.56,10.90,10.89,10.89
29.78,8.38,-2.51,8.38,-2.51,2.51,3.04,3.60,10.89,10.89,10.89
30.08,8.41,-2.48,8.41,-2.48,2.48,3.03,3.62,10.88,10.89,10.89
30.38,8.44,-2.44,8.44,-2.44,2.44,3.01,3.65,10.88,10.88,10.88
30.68,8.47,-2.41,8.47,-2.41,2.41,2.99,3.67,10.88,10.88,10.88
30.99,8.51,-2.37,8.50,-2.38,2.38,2.97,3.68,10.89,10.88,10.88
31.30,8.51,-2.36,8.52,-2.35,2.35,2.96,3.68,10.86,10.87,10.87
31.61,8.55,-2.32,8.54,-2.33,2.33,2.94,3.69,10.88,10.87,10.87
31.93,8.55,-2.31,8.56,-2.30,2.31,2.92,3.68,10.85,10.87,10.86
32.24,8.59,-2.27,8.58,-2.28,2.28,2.91,3.67,10.87,10.86,10.86
32.57,8.59,-2.26,8.58,-2.27,2.26,2.89,3.65,10.85,10.85,10.85
32.89,8.59,-2.26,8.60,-2.25,2.25,2.87,3.63,10.83,10.84,10.85
33.22,8.60,-2.24,8.61,-2.23,2.23,2.86,3.61,10.83,10.84,10.84
33.55,8.64,-2.20,8.62,-2.21,2.21,2.84,3.58,10.85,10.84,10.84
33.89,8.64,-2.19,8.64,-2.19,2.20,2.82,3.54,10.84,10.83,10.83
34.23,8.64,-2.18,8.64,-2.18,2.18,2.80,3.51,10.82,10.83,10.82
34.57,8.64,-2.17,8.64,-2.17,2.17,2.79,3.46,10.81,10.81,10.81
34.92,8.64,-2.16,8.64,-2.16,2.17,2.77,3.42,10.80,10.81,10.80
35.27,8.64,-2.16,8.64,-2.16,2.16,2.75,3.37,10.80,10.80,10.80
35.62,8.64,-2.14,8.63,-2.16,2.16,2.73,3.32,10.80,10.78,10.78
35.97,8.61,-2.16,8.61,-2.16,2.15,2.72,3.27,10.76,10.77,10.77
36.33,8.59,-2.17,8.60,-2.16,2.15,2.70,3.21,10.74,10.75,10.76
36.70,8.59,-2.15,8.59,-2.16,2.15,2.68,3.16,10.74,10.74,10.74
37.06,8.59,-2.14,8.58,-2.15,2.15,2.66,3.10,10.74,10.73,10.73
37.43,8.56,-2.15,8.57,-2.14,2.15,2.64,3.05,10.71,10.72,10.71
37.81,8.55,-2.14,8.55,-2.14,2.14,2.63,2.99,10.69,10.70,10.69
38.19,8.55,-2.13,8.53,-2.14,2.14,2.61,2.93,10.69,10.68,10.68
38.57,8.51,-2.15,8.52,-2.14,2.14,2.59,2.88,10.65,10.66,10.66
38.95,8.51,-2.13,8.50,-2.14,2.14,2.57,2.82,10.65,10.64,10.64
39.34,8.49,-2.13,8.48,-2.14,2.14,2.55,2.76,10.63,10.62,10.62
39.74,8.46,-2.14,8.47,-2.13,2.14,2.53,2.71,10.60,10.60,10.60
40.14,8.45,-2.13,8.44,-2.14,2.14,2.51,2.66,10.59,10.58,10.58
40.54,8.42,-2.14,8.42,-2.14,2.14,2.50,2.60,10.56,10.56,10.56
40.94,8.39,-2.14,8.39,-2.14,2.14,2.48,2.55,10.53,10.53,10.53
41.35,8.38,-2.13,8.37,-2.14,2.14,2.46,2.50,10.52,10.51,10.51
41.76,8.34,-2.14,8.35,-2.14,2.14,2.44,2.45,10.47,10.48,10.48
42.18,8.33,-2.13,8.32,-2.14,2.14,2.42,2.41,10.46,10.46,10.46
42.60,8.29,-2.14,8.29,-2.14,2.14,2.40,2.36,10.42,10.43,10.43
43.03,8.27,-2.13,8.27,-2.13,2.13,2.38,2.32,10.40,10.40,10.40
43.46,8.25,-2.12,8.24,-2.13,2.13,2.36,2.27,10.38,10.37,10.37
43.90,8.21,-2.13,8.21,-2.13,2.13,2.34,2.23,10.34,10.34,10.34
44.33,8.18,-2.13,8.18,-2.13,2.13,2.32,2.20,10.31,10.31,10.31
44.78,8.16,-2.12,8.15,-2.13,2.13,2.30,2.16,10.28,10.28,10.28
45.23,8.12,-2.13,8.12,-2.13,2.12,2.28,2.12,10.24,10.25,10.25
45.68,8.09,-2.12,8.09,-2.12,2.12,2.26,2.09,10.21,10.21,10.21
46.13,8.06,-2.11,8.06,-2.11,2.12,2.24,2.06,10.17,10.17,10.17
46.60,8.03,-2.10,8.02,-2.11,2.11,2.22,2.03,10.14,10.13,10.13
47.06,7.99,-2.11,7.99,-2.11,2.10,2.20,2.00,10.09,10.09,10.10
47.53,7.95,-2.11,7.96,-2.10,2.09,2.18,1.98,10.04,10.05,10.06
48.01,7.94,-2.07,7.93,-2.09,2.08,2.16,1.95,10.02,10.01,10.01
48.49,7.90,-2.07,7.90,-2.07,2.07,2.14,1.93,9.97,9.97,9.97
48.97,7.86,-2.06,7.86,-2.06,2.06,2.11,1.90,9.92,9.93,9.92
49.46,7.83,-2.05,7.83,-2.05,2.05,2.09,1.88,9.88,9.88,9.88
49.96,7.80,-2.03,7.80,-2.04,2.04,2.07,1.86,9.84,9.84,9.83
50.46,7.77,-2.02,7.76,-2.03,2.03,2.05,1.85,9.80,9.79,9.79
50.96,7.73,-2.02,7.73,-2.02,2.02,2.02,1.83,9.75,9.75,9.75
51.47,7.70,-2.01,7.70,-2.00,2.01,2.00,1.81,9.70,9.71,9.71
51.99,7.68,-1.98,7.67,-1.99,2.00,1.98,1.80,9.67,9.67,9.66
52.51,7.64,-1.98,7.64,-1.98,1.98,1.95,1.78,9.62,9.62,9.62
53.03,7.60,-1.98,7.60,-1.97,1.97,1.93,1.77,9.57,9.57,9.58
53.56,7.57,-1.96,7.57,-1.96,1.96,1.91,1.75,9.52,9.52,9.53
54.10,7.54,-1.94,7.54,-1.94,1.94,1.88,1.74,9.48,9.48,9.48
54.64,7.51,-1.92,7.51,-1.92,1.92,1.86,1.73,9.43,9.43,9.43
55.18,7.48,-1.90,7.48,-1.90,1.91,1.83,1.71,9.39,9.39,9.38
55.74,7.45,-1.88,7.45,-1.89,1.89,1.81,1.70,9.34,9.34,9.33
56.29,7.42,-1.87,7.42,-1.87,1.88,1.78,1.68,9.29,9.29,9.29
56.86,7.39,-1.86,7.39,-1.86,1.86,1.75,1.67,9.25,9.25,9.25
57.42,7.36,-1.84,7.36,-1.84,1.85,1.73,1.66,9.20,9.21,9.20
58.00,7.34,-1.82,7.33,-1.83,1.83,1.70,1.64,9.17,9.16,9.16
58.58,7.30,-1.82,7.30,-1.82,1.81,1.67,1.62,9.11,9.12,9.12
59.16,7.29,-1.79,7.28,-1.80,1.79,1.64,1.61,9.08,9.07,9.08
59.76,7.25,-1.79,7.26,-1.78,1.77,1.61,1.59,9.02,9.03,9.04
60.35,7.25,-1.73,7.24,-1.74,1.74,1.58,1.57,8.99,8.98,8.98
60.96,7.21,-1.71,7.21,-1.71,1.71,1.55,1.55,8.91,8.92,8.92
61.57,7.19,-1.67,7.19,-1.67,1.67,1.52,1.53,8.86,8.86,8.86
62.18,7.16,-1.63,7.16,-1.63,1.63,1.49,1.50,8.79,8.79,8.79
62.80,7.15,-1.58,7.14,-1.59,1.59,1.46,1.48,8.74,8.74,8.73
63.43,7.12,-1.55,7.12,-1.55,1.56,1.43,1.45,8.67,8.68,8.67
64.07,7.12,-1.50,7.11,-1.51,1.52,1.39,1.43,8.64,8.62,8.62
64.71,7.08,-1.49,7.09,-1.48,1.48,1.36,1.40,8.56,8.57,8.57
65.35,7.08,-1.44,7.08,-1.45,1.45,1.33,1.37,8.52,8.52,8.52
66.01,7.07,-1.40,7.05,-1.42,1.41,1.29,1.34,8.48,8.46,8.47
66.67,7.03,-1.39,7.05,-1.37,1.37,1.26,1.30,8.40,8.42,8.42
67.33,7.03,-1.33,7.03,-1.33,1.33,1.22,1.27,8.36,8.36,8.36
68.01,7.03,-1.27,7.01,-1.29,1.29,1.18,1.23,8.32,8.30,8.30
68.69,6.99,-1.25,7.00,-1.24,1.24,1.14,1.20,8.23,8.24,8.24
69.37,6.99,-1.20,6.99,-1.20,1.19,1.10,1.16,8.18,8.18,8.19
70.07,6.99,-1.14,6.98,-1.14,1.14,1.06,1.12,8.13,8.13,8.13
70.77,6.99,-1.08,6.99,-1.09,1.09,1.02,1.08,8.08,8.08,8.07
71.48,6.98,-1.03,6.98,-1.03,1.04,0.98,1.04,8.02,8.01,8.01
72.19,6.97,-0.98,6.97,-0.98,0.98,0.94,1.00,7.95,7.95,7.95
72.91,6.95,-0.93,6.95,-0.93,0.93,0.89,0.96,7.87,7.88,7.88
73.64,6.95,-0.87,6.95,-0.87,0.87,0.85,0.91,7.82,7.82,7.82
74.38,6.95,-0.81,6.95,-0.81,0.81,0.80,0.87,7.76,7.76,7.76
75.12,6.95,-0.75,6.95,-0.75,0.76,0.75,0.83,7.71,7.71,7.70
75.87,6.95,-0.70,6.95,-0.70,0.70,0.71,0.79,7.65,7.65,7.65
76.63,6.95,-0.64,6.95,-0.64,0.65,0.66,0.74,7.59,7.59,7.59
77.40,6.95,-0.59,6.95,-0.59,0.59,0.61,0.70,7.54,7.54,7.54
78.17,6.95,-0.53,6.95,-0.54,0.54,0.55,0.65,7.48,7.48,7.48
78.95,6.95,-0.48,6.95,-0.48,0.48,0.50,0.61,7.43,7.43,7.43
79.74,6.95,-0.43,6.95,-0.43,0.43,0.45,0.57,7.37,7.37,7.38
80.54,6.95,-0.37,6.95,-0.37,0.37,0.39,0.52,7.32,7.32,7.32
81.35,6.95,-0.31,6.95,-0.32,0.31,0.34,0.48,7.26,7.26,7.26
82.16,6.95,-0.26,6.95,-0.26,0.26,0.28,0.43,7.21,7.21,7.21
82.98,6.95,-0.20,6.95,-0.20,0.20,0.22,0.39,7.15,7.15,7.15
83.81,6.95,-0.14,6.95,-0.14,0.14,0.16,0.35,7.09,7.09,7.09
84.65,6.95,-0.08,6.95,-0.08,0.09,0.10,0.30,7.03,7.03,7.03
85.50,6.95,-0.02,6.95,-0.03,0.03,0.04,0.26,6.98,6.98,6.97
86.35,6.95,0.03,6.95,0.03,-0.03,-0.02,0.21,6.92,6.92,6.92
87.22,6.95,0.09,6.95,0.09,-0.09,-0.08,0.17,6.86,6.86,6.86
88.09,6.95,0.15,6.95,0.15,-0.15,-0.15,0.13,6.80,6.80,6.80
88.97,6.95,0.21,6.95,0.21,-0.21,-0.21,0.08,6.74,6.74,6.74
89.86,6.95,0.27,6.95,0.27,-0.27,-0.27,0.04,6.68,6.68,6.68
90.76,6.95,0.33,6.95,0.33,-0.32,-0.34,-0.00,6.63,6.63,6.62
91.66,6.95,0.40,6.94,0.39,-0.38,-0.40,-0.05,6.57,6.56,6.55
92.58,6.94,0.45,6.93,0.44,-0.44,-0.46,-0.09,6.50,6.49,6.49
93.51,6.90,0.47,6.91,0.48,-0.49,-0.53,-0.13,6.41,6.42,6.43
94.44,6.90,0.53,6.90,0.53,-0.55,-0.59,-0.17,6.35,6.35,6.37
95.39,6.90,0.60,6.90,0.60,-0.60,-0.65,-0.22,6.29,6.29,6.30
96.34,6.90,0.67,6.89,0.66,-0.66,-0.70,-0.26,6.24,6.23,6.23
97.30,6.89,0.72,6.88,0.72,-0.71,-0.76,-0.30,6.17,6.17,6.17
98.28,6.86,0.76,6.87,0.77,-0.77,-0.81,-0.35,6.09,6.10,6.10
99.26,6.86,0.83,6.85,0.82,-0.82,-0.87,-0.39,6.04,6.04,6.03
100.25,6.85,0.89,6.84,0.88,-0.87,-0.91,-0.43,5.98,5.97,5.96
101.25,6.82,0.91,6.83,0.92,-0.91,-0.96,-0.47,5.91,5.91,5.91
102.27,6.81,0.96,6.80,0.95,-0.95,-1.00,-0.51,5.86,5.85,5.85
103.29,6.77,0.98,6.78,0.99,-0.99,-1.04,-0.56,5.78,5.79,5.79
104.32,6.75,1.02,6.75,1.02,-1.02,-1.08,-0.60,5.73,5.73,5.73
105.37,6.73,1.06,6.72,1.05,-1.05,-1.11,-0.64,5.68,5.67,5.67
106.42,6.69,1.07,6.69,1.08,-1.08,-1.14,-0.68,5.61,5.61,5.62
107.48,6.66,1.11,6.66,1.11,-1.11,-1.17,-0.72,5.55,5.55,5.55
108.56,6.64,1.15,6.63,1.14,-1.14,-1.19,-0.75,5.50,5.49,5.49
109.64,6.60,1.17,6.60,1.17,-1.17,-1.22,-0.79,5.43,5.43,5.43
110.74,6.56,1.19,6.56,1.19,-1.19,-1.23,-0.83,5.37,5.37,5.37
111.85,6.52,1.21,6.52,1.21,-1.22,-1.25,-0.87,5.30,5.30,5.31
112.97,6.49,1.25,6.48,1.24,-1.24,-1.27,-0.90,5.25,5.24,5.24
114.10,6.44,1.26,6.44,1.26,-1.26,-1.28,-0.93,5.17,5.18,5.18
115.24,6.39,1.28,6.40,1.29,-1.28,-1.29,-0.97,5.10,5.11,5.11
116.39,6.36,1.32,6.35,1.30,-1.30,-1.30,-1.00,5.06,5.05,5.04
117.55,6.30,1.32,6.30,1.32,-1.31,-1.31,-1.03,4.98,4.98,4.98
118.73,6.24,1.33,6.24,1.33,-1.33,-1.32,-1.06,4.91,4.92,4.91
119.92,6.19,1.34,6.19,1.34,-1.33,-1.33,-1.08,4.86,4.86,4.85
121.12,6.14,1.34,6.13,1.34,-1.34,-1.33,-1.11,4.80,4.79,4.80
122.33,6.08,1.34,6.08,1.34,-1.34,-1.34,-1.13,4.74,4.74,4.74
123.55,6.01,1.33,6.02,1.34,-1.34,-1.34,-1.15,4.67,4.68,4.68
124.79,5.97,1.35,5.96,1.34,-1.34,-1.35,-1.17,4.63,4.62,4.62
126.03,5.90,1.34,5.90,1.34,-1.34,-1.35,-1.19,4.56,4.56,4.56
127.29,5.84,1.34,5.84,1.34,-1.34,-1.35,-1.21,4.50,4.50,4.50
128.57,5.78,1.35,5.77,1.34,-1.34,-1.35,-1.22,4.44,4.43,4.43
129.85,5.71,1.34,5.71,1.34,-1.34,-1.35,-1.24,4.37,4.37,4.37
131.15,5.64,1.33,5.64,1.33,-1.33,-1.35,-1.25,4.30,4.31,4.31
132.46,5.58,1.33,5.58,1.33,-1.33,-1.35,-1.26,4.25,4.25,4.25
133.79,5.52,1.33,5.52,1.33,-1.32,-1.34,-1.27,4.19,4.19,4.19
135.12,5.46,1.33,5.45,1.32,-1.32,-1.34,-1.28,4.14,4.13,4.13
136.48,5.38,1.30,5.38,1.31,-1.31,-1.33,-1.29,4.07,4.08,4.08
137.84,5.31,1.29,5.32,1.30,-1.30,-1.32,-1.29,4.01,4.02,4.02
139.22,5.26,1.30,5.25,1.29,-1.29,-1.32,-1.30,3.97,3.96,3.96
140.61,5.19,1.28,5.19,1.28,-1.27,-1.31,-1.30,3.91,3.91,3.91
142.02,5.12,1.26,5.12,1.26,-1.26,-1.30,-1.31,3.86,3.86,3.86
143.44,5.06,1.25,5.06,1.24,-1.25,-1.28,-1.31,3.81,3.81,3.81
144.87,5.00,1.23,5.00,1.23,-1.23,-1.27,-1.32,3.76,3.76,3.77
146.32,4.94,1.22,4.94,1.22,-1.22,-1.26,-1.32,3.72,3.72,3.72
147.78,4.88,1.21,4.88,1.21,-1.21,-1.24,-1.32,3.67,3.67,3.67
149.26,4.82,1.20,4.82,1.20,-1.19,-1.23,-1.33,3.63,3.63,3.62
150.75,4.76,1.19,4.76,1.18,-1.18,-1.22,-1.33,3.58,3.58,3.57
152.26,4.70,1.17,4.70,1.17,-1.17,-1.20,-1.34,3.53,3.53,3.53
153.78,4.64,1.16,4.64,1.16,-1.17,-1.19,-1.34,3.47,3.47,3.48
155.32,4.59,1.16,4.59,1.16,-1.16,-1.17,-1.35,3.42,3.42,3.43
156.88,4.54,1.16,4.54,1.16,-1.16,-1.16,-1.35,3.38,3.38,3.38
158.44,4.50,1.17,4.49,1.16,-1.16,-1.15,-1.36,3.33,3.33,3.33
160.03,4.45,1.17,4.45,1.17,-1.17,-1.15,-1.37,3.28,3.28,3.28
161.63,4.41,1.18,4.41,1.18,-1.17,-1.14,-1.38,3.23,3.23,3.23
163.24,4.37,1.19,4.37,1.19,-1.18,-1.14,-1.39,3.19,3.18,3.18
164.88,4.32,1.19,4.32,1.19,-1.19,-1.14,-1.40,3.13,3.13,3.13
166.53,4.29,1.21,4.28,1.20,-1.20,-1.15,-1.41,3.08,3.08,3.08
168.19,4.24,1.21,4.24,1.21,-1.22,-1.16,-1.42,3.02,3.03,3.03
169.87,4.21,1.23,4.21,1.23,-1.23,-1.17,-1.43,2.98,2.98,2.98
171.57,4.18,1.25,4.18,1.25,-1.25,-1.19,-1.45,2.93,2.93,2.93
173.29,4.15,1.27,4.15,1.27,-1.27,-1.21,-1.47,2.88,2.88,2.88
175.02,4.12,1.29,4.12,1.29,-1.28,-1.24,-1.48,2.83,2.83,2.83
176.77,4.09,1.31,4.09,1.31,-1.31,-1.27,-1.50,2.78,2.78,2.78
178.54,4.06,1.33,4.06,1.33,-1.33,-1.30,-1.52,2.73,2.73,2.73
180.32,4.04,1.36,4.03,1.35,-1.35,-1.33,-1.54,2.69,2.68,2.68
182.13,4.00,1.37,4.01,1.37,-1.38,-1.37,-1.57,2.62,2.63,2.63
183.95,4.00,1.41,3.99,1.40,-1.40,-1.40,-1.59,2.60,2.58,2.59
185.79,3.96,1.42,3.97,1.43,-1.43,-1.44,-1.61,2.53,2.54,2.54
187.65,3.96,1.47,3.95,1.46,-1.46,-1.48,-1.64,2.50,2.49,2.49
189.52,3.94,1.50,3.93,1.49,-1.49,-1.52,-1.67,2.45,2.44,2.44
191.42,3.91,1.51,3.92,1.53,-1.52,-1.55,-1.69,2.39,2.40,2.40
193.33,3.91,1.56,3.91,1.55,-1.55,-1.59,-1.72,2.35,2.35,2.35
195.27,3.91,1.60,3.89,1.58,-1.59,-1.63,-1.75,2.32,2.31,2.31
197.22,3.87,1.61,3.89,1.62,-1.62,-1.66,-1.78,2.25,2.27,2.26
199.19,3.87,1.65,3.87,1.65,-1.65,-1.70,-1.82,2.22,2.22,2.22
201.18,3.87,1.69,3.85,1.67,-1.67,-1.73,-1.85,2.19,2.18,2.18
203.19,3.83,1.69,3.84,1.70,-1.70,-1.76,-1.88,2.13,2.14,2.14
205.23,3.83,1.72,3.83,1.73,-1.73,-1.79,-1.91,2.10,2.11,2.11
207.28,3.83,1.76,3.82,1.75,-1.75,-1.82,-1.95,2.08,2.07,2.07
209.35,3.83,1.80,3.81,1.78,-1.77,-1.85,-1.98,2.06,2.04,2.03
211.44,3.78,1.78,3.79,1.80,-1.80,-1.87,-2.01,1.98,2.00,2.00
213.56,3.78,1.81,3.78,1.81,-1.82,-1.90,-2.04,1.96,1.97,1.97
215.69,3.78,1.84,3.77,1.83,-1.84,-1.92,-2.08,1.94,1.93,1.94
217.85,3.78,1.87,3.76,1.86,-1.86,-1.94,-2.11,1.92,1.90,1.91
220.03,3.74,1.87,3.75,1.88,-1.88,-1.96,-2.14,1.86,1.87,1.87
222.23,3.74,1.90,3.74,1.90,-1.90,-1.98,-2.17,1.84,1.85,1.84
224.45,3.74,1.93,3.73,1.92,-1.92,-1.99,-2.19,1.82,1.82,1.81
226.70,3.74,1.95,3.72,1.94,-1.93,-2.01,-2.22,1.81,1.79,1.79
228.96,3.70,1.93,3.72,1.95,-1.94,-2.02,-2.25,1.75,1.77,1.77
231.25,3.70,1.96,3.70,1.95,-1.96,-2.04,-2.27,1.74,1.74,1.74
233.57,3.70,1.98,3.68,1.96,-1.97,-2.05,-2.29,1.73,1.71,1.72
235.90,3.65,1.96,3.66,1.97,-1.97,-2.06,-2.30,1.67,1.69,1.69
238.26,3.65,1.98,3.65,1.98,-1.98,-2.07,-2.32,1.67,1.67,1.67
240.64,3.65,1.99,3.64,1.99,-1.99,-2.07,-2.33,1.66,1.65,1.66
243.05,3.65,2.01,3.63,2.00,-1.99,-2.08,-2.34,1.65,1.64,1.64
245.48,3.61,1.99,3.62,2.00,-2.00,-2.09,-2.35,1.61,1.62,1.62
247.93,3.61,2.01,3.61,2.01,-2.01,-2.09,-2.35,1.60,1.61,1.60
250.41,3.61,2.02,3.60,2.01,-2.01,-2.09,-2.35,1.60,1.59,1.59
252.92,3.61,2.03,3.59,2.02,-2.02,-2.10,-2.35,1.59,1.58,1.58
255.45,3.57,2.01,3.58,2.02,-2.02,-2.10,-2.34,1.55,1.56,1.56
258.00,3.57,2.02,3.57,2.02,-2.03,-2.10,-2.33,1.54,1.54,1.55
260.58,3.57,2.03,3.56,2.03,-2.03,-2.10,-2.32,1.54,1.53,1.54
263.19,3.57,2.04,3.57,2.04,-2.03,-2.10,-2.30,1.54,1.54,1.53
265.82,3.57,2.05,3.57,2.05,-2.04,-2.10,-2.29,1.53,1.53,1.52
268.48,3.57,2.06,3.55,2.04,-2.04,-2.10,-2.27,1.53,1.51,1.51
271.16,3.52,2.02,3.53,2.03,-2.04,-2.09,-2.24,1.48,1.49,1.50
273.87,3.52,2.03,3.52,2.03,-2.04,-2.09,-2.22,1.48,1.48,1.49
276.61,3.52,2.04,3.51,2.03,-2.04,-2.09,-2.19,1.48,1.47,1.48
279.38,3.52,2.05,3.52,2.05,-2.04,-2.08,-2.16,1.48,1.48,1.47
282.17,3.52,2.05,3.52,2.05,-2.03,-2.08,-2.13,1.48,1.48,1.47
284.99,3.52,2.05,3.50,2.04,-2.03,-2.07,-2.10,1.49,1.47,1.47
287.84,3.48,2.01,3.49,2.02,-2.03,-2.06,-2.07,1.45,1.46,1.47
290.72,3.48,2.02,3.48,2.02,-2.03,-2.05,-2.03,1.45,1.45,1.46
293.63,3.48,2.02,3.47,2.01,-2.02,-2.05,-2.00,1.46,1.45,1.46
296.57,3.48,2.02,3.48,2.02,-2.02,-2.04,-1.96,1.46,1.46,1.46
299.53,3.48,2.02,3.48,2.02,-2.01,-2.03,-1.93,1.47,1.47,1.46
302.53,3.48,2.02,3.47,2.01,-2.00,-2.02,-1.89,1.48,1.47,1.46
305.55,3.46,2.00,3.46,2.00,-2.00,-2.01,-1.86,1.46,1.46,1.46
308.61,3.44,1.98,3.45,1.99,-1.99,-2.00,-1.82,1.45,1.45,1.46
311.69,3.44,1.98,3.44,1.98,-1.99,-1.99,-1.79,1.45,1.45,1.46
314.81,3.44,1.98,3.44,1.98,-1.98,-1.97,-1.75,1.45,1.45,1.46
317.96,3.44,1.98,3.44,1.98,-1.98,-1.96,-1.72,1.46,1.46,1.46
321.14,3.44,1.98,3.44,1.98,-1.97,-1.95,-1.69,1.46,1.46,1.46
324.35,3.44,1.98,3.44,1.98,-1.97,-1.93,-1.66,1.47,1.47,1.46
327.59,3.44,1.97,3.44,1.97,-1.96,-1.92,-1.62,1.48,1.48,1.47
330.87,3.44,1.97,3.43,1.96,-1.95,-1.90,-1.59,1.48,1.48,1.47
334.18,3.42,1.95,3.42,1.95,-1.94,-1.89,-1.56,1.47,1.47,1.47
337.52,3.40,1.93,3.40,1.93,-1.93,-1.87,-1.54,1.47,1.47,1.47
340.90,3.39,1.91,3.39,1.91,-1.92,-1.85,-1.51,1.47,1.47,1.48
344.30,3.39,1.91,3.39,1.90,-1.91,-1.84,-1.48,1.48,1.48,1.48
347.75,3.39,1.90,3.39,1.90,-1.90,-1.82,-1.46,1.49,1.49,1.49
351.23,3.39,1.90,3.39,1.90,-1.89,-1.80,-1.44,1.50,1.50,1.49
354.74,3.39,1.89,3.39,1.89,-1.89,-1.78,-1.41,1.50,1.50,1.50
358.28,3.39,1.89,3.39,1.88,-1.89,-1.76,-1.39,1.50,1.49,1.50
361.87,3.39,1.88,3.40,1.89,-1.89,-1.74,-1.37,1.50,1.50,1.51
365.49,3.41,1.89,3.41,1.89,-1.89,-1.72,-1.35,1.51,1.52,1.52
369.14,3.44,1.92,3.43,1.90,-1.90,-1.70,-1.33,1.54,1.53,1.52
372.83,3.44,1.91,3.44,1.91,-1.90,-1.68,-1.32,1.54,1.54,1.53
376.56,3.44,1.91,3.44,1.91,-1.90,-1.65,-1.30,1.54,1.54,1.53
380.33,3.44,1.90,3.43,1.90,-1.90,-1.63,-1.29,1.53,1.53,1.54
384.13,3.44,1.90,3.44,1.90,-1.90,-1.61,-1.27,1.53,1.54,1.54
387.97,3.44,1.89,3.45,1.90,-1.91,-1.58,-1.26,1.53,1.55,1.55
391.85,3.48,1.92,3.46,1.91,-1.91,-1.56,-1.25,1.57,1.56,1.56
395.77,3.48,1.92,3.47,1.91,-1.91,-1.53,-1.24,1.57,1.57,1.56
399.73,3.48,1.91,3.48,1.91,-1.91,-1.50,-1.22,1.57,1.57,1.57
403.72,3.48,1.90,3.49,1.91,-1.91,-1.48,-1.21,1.57,1.57,1.58
407.76,3.50,1.92,3.50,1.91,-1.91,-1.45,-1.20,1.59,1.59,1.58
411.84,3.52,1.93,3.51,1.92,-1.91,-1.42,-1.19,1.60,1.60,1.59
415.96,3.52,1.92,3.52,1.92,-1.92,-1.39,-1.19,1.60,1.60,1.60
420.12,3.52,1.92,3.52,1.91,-1.92,-1.36,-1.18,1.60,1.60,1.60
424.32,3.52,1.91,3.52,1.91,-1.92,-1.33,-1.17,1.60,1.60,1.61
428.56,3.52,1.90,3.53,1.92,-1.93,-1.30,-1.16,1.59,1.61,1.62
432.85,3.57,1.94,3.55,1.92,-1.93,-1.26,-1.15,1.64,1.62,1.63
437.18,3.57,1.94,3.57,1.93,-1.93,-1.23,-1.14,1.64,1.64,1.63
441.55,3.57,1.93,3.57,1.93,-1.92,-1.19,-1.13,1.65,1.65,1.64
445.96,3.57,1.92,3.57,1.92,-1.91,-1.16,-1.12,1.66,1.66,1.65
450.42,3.57,1.91,3.57,1.91,-1.90,-1.12,-1.10,1.67,1.66,1.66
454.93,3.57,1.90,3.55,1.88,-1.89,-1.09,-1.09,1.68,1.67,1.67
459.48,3.52,1.84,3.54,1.86,-1.86,-1.05,-1.08,1.65,1.67,1.68
464.07,3.52,1.83,3.52,1.83,-1.84,-1.01,-1.06,1.68,1.68,1.69
468.71,3.52,1.82,3.50,1.80,-1.81,-0.97,-1.04,1.71,1.69,1.70
473.40,3.48,1.77,3.49,1.78,-1.77,-0.93,-1.03,1.70,1.71,1.71
478.13,3.46,1.74,3.46,1.74,-1.73,-0.88,-1.01,1.72,1.72,1.72
482.91,3.43,1.70,3.42,1.69,-1.69,-0.84,-0.98,1.74,1.73,1.73
487.74,3.38,1.64,3.38,1.64,-1.64,-0.79,-0.96,1.74,1.75,1.74
492.62,3.33,1.58,3.33,1.58,-1.57,-0.75,-0.93,1.75,1.75,1.75
497.55,3.27,1.51,3.26,1.50,-1.51,-0.70,-0.91,1.76,1.76,1.76
502.52,3.20,1.43,3.20,1.43,-1.43,-0.65,-0.88,1.77,1.77,1.77
507.55,3.12,1.33,3.13,1.34,-1.34,-0.60,-0.84,1.78,1.78,1.79
512.62,3.06,1.26,3.05,1.25,-1.25,-0.55,-0.81,1.81,1.80,1.80
517.75,2.96,1.15,2.96,1.15,-1.15,-0.50,-0.77,1.81,1.81,1.81
522.93,2.86,1.04,2.86,1.04,-1.04,-0.45,-0.73,1.82,1.83,1.82
528.16,2.76,0.93,2.75,0.92,-0.92,-0.39,-0.69,1.84,1.83,1.83
533.44,2.63,0.79,2.64,0.80,-0.79,-0.33,-0.65,1.84,1.84,1.84
538.77,2.51,0.66,2.51,0.66,-0.66,-0.27,-0.60,1.85,1.86,1.85
