frequency,raw,error,smoothed,error_smoothed,equalization,parametric_eq,fixed_band_eq,equalized_raw,equalized_smoothed,target
20.00,16.84,7.90,16.84,7.90,-7.90,-7.52,-3.45,8.95,8.95,8.94
20.20,16.83,7.90,16.83,7.90,-7.90,-7.52,-3.54,8.94,8.94,8.93
20.40,16.82,7.90,16.82,7.90,-7.90,-7.52,-3.64,8.93,8.92,8.92
20.61,16.81,7.89,16.81,7.90,-7.90,-7.52,-3.74,8.91,8.91,8.91
20.81,16.79,7.90,16.80,7.90,-7.90,-7.52,-3.84,8.90,8.90,8.89
21.02,16.78,7.90,16.79,7.90,-7.90,-7.52,-3.95,8.89,8.89,8.88
21.23,16.77,7.90,16.78,7.90,-7.90,-7.52,-4.06,8.88,8.88,8.87
21.44,16.76,7.88,16.76,7.89,-7.89,-7.52,-4.17,8.87,8.87,8.88
21.66,16.75,7.89,16.75,7.89,-7.89,-7.52,-4.29,8.86,8.86,8.86
21.87,16.74,7.88,16.74,7.89,-7.89,-7.52,-4.41,8.86,8.85,8.86
22.09,16.72,7.88,16.73,7.88,-7.88,-7.52,-4.53,8.84,8.84,8.84
22.31,16.71,7.88,16.71,7.88,-7.88,-7.52,-4.66,8.84,8.84,8.83
22.54,16.70,7.88,16.70,7.87,-7.87,-7.52,-4.79,8.83,8.83,8.82
22.76,16.68,7.86,16.69,7.86,-7.86,-7.52,-4.92,8.82,8.83,8.82
22.99,16.67,7.86,16.68,7.86,-7.86,-7.52,-5.05,8.82,8.82,8.81
23.22,16.66,7.86,16.66,7.85,-7.85,-7.52,-5.19,8.82,8.81,8.80
23.45,16.64,7.83,16.65,7.84,-7.84,-7.52,-5.34,8.81,8.81,8.81
23.69,16.63,7.83,16.63,7.83,-7.83,-7.53,-5.48,8.81,8.80,8.80
23.92,16.61,7.82,16.62,7.82,-7.82,-7.53,-5.63,8.80,8.80,8.79
24.16,16.60,7.80,16.61,7.81,-7.81,-7.53,-5.78,8.80,8.80,8.80
24.40,16.59,7.79,16.59,7.80,-7.80,-7.53,-5.94,8.80,8.80,8.80
24.65,16.57,7.78,16.58,7.78,-7.78,-7.52,-6.10,8.79,8.79,8.79
24.89,16.56,7.77,16.56,7.77,-7.77,-7.52,-6.26,8.79,8.79,8.79
25.14,16.54,7.76,16.55,7.76,-7.76,-7.52,-6.42,8.79,8.79,8.78
25.39,16.53,7.75,16.53,7.74,-7.74,-7.52,-6.58,8.79,8.79,8.78
25.65,16.51,7.73,16.52,7.73,-7.73,-7.52,-6.75,8.79,8.79,8.78
25.91,16.50,7.72,16.50,7.71,-7.71,-7.52,-6.91,8.79,8.79,8.78
26.16,16.48,7.69,16.49,7.70,-7.70,-7.52,-7.08,8.78,8.78,8.79
26.43,16.46,7.68,16.47,7.68,-7.68,-7.52,-7.25,8.78,8.79,8.78
26.69,16.45,7.67,16.45,7.67,-7.67,-7.52,-7.41,8.79,8.79,8.78
26.96,16.43,7.65,16.44,7.65,-7.65,-7.52,-7.58,8.78,8.79,8.78
27.23,16.42,7.64,16.42,7.63,-7.63,-7.52,-7.74,8.79,8.79,8.78
27.50,16.40,7.62,16.41,7.62,-7.62,-7.52,-7.90,8.79,8.79,8.78
27.77,16.38,7.59,16.39,7.60,-7.60,-7.52,-8.06,8.79,8.79,8.79
28.05,16.37,7.59,16.37,7.58,-7.58,-7.52,-8.21,8.80,8.79,8.78
28.33,16.35,7.56,16.35,7.56,-7.56,-7.52,-8.35,8.79,8.79,8.79
28.62,16.33,7.54,16.34,7.54,-7.54,-7.52,-8.49,8.79,8.79,8.79
28.90,16.32,7.52,16.32,7.52,-7.52,-7.52,-8.62,8.80,8.79,8.80
29.19,16.30,7.50,16.30,7.51,-7.51,-7.52,-8.74,8.80,8.79,8.80
29.48,16.28,7.49,16.28,7.49,-7.49,-7.52,-8.85,8.80,8.79,8.79
29.78,16.26,7.47,16.26,7.47,-7.47,-7.52,-8.95,8.80,8.79,8.79
30.08,16.24,7.44,16.24,7.45,-7.45,-7.52,-9.04,8.78,8.79,8.79
30.38,16.21,7.44,16.22,7.44,-7.44,-7.52,-9.12,8.78,8.78,8.77
30.68,16.19,7.42,16.20,7.42,-7.42,-7.51,-9.18,8.78,8.78,8.77
30.99,16.17,7.40,16.18,7.40,-7.40,-7.51,-9.23,8.77,8.77,8.77
31.30,16.15,7.38,16.15,7.38,-7.38,-7.51,-9.26,8.77,8.77,8.77
31.61,16.13,7.37,16.13,7.37,-7.37,-7.51,-9.28,8.76,8.76,8.76
31.93,16.11,7.37,16.11,7.35,-7.35,-7.51,-9.29,8.76,8.75,8.74
32.24,16.08,7.33,16.09,7.34,-7.34,-7.51,-9.28,8.75,8.75,8.75
32.57,16.06,7.33,16.06,7.32,-7.32,-7.51,-9.26,8.74,8.74,8.73
32.89,16.04,7.31,16.04,7.31,-7.31,-7.51,-9.23,8.74,8.73,8.73
33.22,16.01,7.29,16.02,7.29,-7.29,-7.51,-9.19,8.72,8.73,8.72
33.55,15.99,7.27,16.00,7.28,-7.28,-7.51,-9.13,8.72,8.72,8.72
33.89,15.97,7.26,15.98,7.27,-7.27,-7.51,-9.07,8.71,8.71,8.71
34.23,15.95,7.26,15.96,7.25,-7.25,-7.50,-9.00,8.70,8.71,8.69
34.57,15.93,7.24,15.94,7.24,-7.24,-7.50,-8.92,8.70,8.70,8.69
34.92,15.91,7.24,15.91,7.23,-7.23,-7.50,-8.84,8.69,8.69,8.67
35.27,15.89,7.20,15.89,7.22,-7.22,-7.50,-8.75,8.68,8.68,8.69
35.62,15.87,7.21,15.87,7.20,-7.20,-7.50,-8.66,8.67,8.67,8.66
35.97,15.85,7.19,15.85,7.20,-7.20,-7.50,-8.56,8.66,8.65,8.66
36.33,15.83,7.19,15.83,7.19,-7.19,-7.50,-8.47,8.65,8.64,8.64
36.70,15.80,7.18,15.80,7.18,-7.18,-7.50,-8.37,8.62,8.62,8.62
37.06,15.78,7.18,15.78,7.17,-7.17,-7.49,-8.28,8.61,8.61,8.60
37.43,15.75,7.17,15.76,7.17,-7.17,-7.49,-8.18,8.59,8.59,8.58
37.81,15.72,7.15,15.73,7.16,-7.16,-7.49,-8.08,8.56,8.57,8.57
38.19,15.70,7.16,15.71,7.16,-7.16,-7.49,-7.99,8.54,8.55,8.54
38.57,15.68,7.16,15.68,7.16,-7.16,-7.49,-7.90,8.53,8.53,8.52
38.95,15.65,7.14,15.66,7.15,-7.15,-7.49,-7.81,8.50,8.51,8.51
39.34,15.63,7.15,15.64,7.15,-7.15,-7.49,-7.73,8.48,8.48,8.48
39.74,15.61,7.16,15.61,7.15,-7.15,-7.48,-7.65,8.47,8.46,8.45
40.14,15.59,7.15,15.58,7.15,-7.15,-7.48,-7.58,8.44,8.44,8.43
40.54,15.56,7.15,15.56,7.14,-7.14,-7.48,-7.50,8.42,8.42,8.41
40.94,15.53,7.15,15.53,7.14,-7.14,-7.48,-7.44,8.40,8.40,8.38
41.35,15.51,7.14,15.51,7.14,-7.14,-7.48,-7.38,8.38,8.37,8.37
41.76,15.48,7.14,15.48,7.13,-7.13,-7.48,-7.32,8.35,8.35,8.34
42.18,15.45,7.12,15.46,7.13,-7.13,-7.48,-7.27,8.32,8.33,8.33
42.60,15.42,7.12,15.43,7.13,-7.13,-7.47,-7.22,8.30,8.30,8.30
43.03,15.40,7.12,15.40,7.12,-7.12,-7.47,-7.18,8.28,8.28,8.28
43.46,15.37,7.13,15.38,7.12,-7.12,-7.47,-7.14,8.25,8.25,8.24
43.90,15.34,7.12,15.35,7.12,-7.12,-7.47,-7.11,8.22,8.23,8.22
44.33,15.31,7.12,15.32,7.12,-7.12,-7.47,-7.08,8.19,8.20,8.19
44.78,15.29,7.12,15.30,7.13,-7.13,-7.47,-7.06,8.17,8.17,8.17
45.23,15.27,7.12,15.27,7.13,-7.13,-7.46,-7.05,8.14,8.14,8.15
45.68,15.24,7.14,15.24,7.14,-7.14,-7.46,-7.04,8.11,8.11,8.10
46.13,15.21,7.14,15.21,7.14,-7.14,-7.46,-7.03,8.07,8.07,8.07
46.60,15.18,7.15,15.19,7.15,-7.15,-7.46,-7.03,8.03,8.03,8.03
47.06,15.16,7.16,15.16,7.16,-7.16,-7.46,-7.04,8.00,8.00,8.00
47.53,15.13,7.17,15.13,7.18,-7.18,-7.46,-7.05,7.96,7.96,7.96
48.01,15.10,7.19,15.10,7.19,-7.19,-7.46,-7.06,7.92,7.92,7.91
48.49,15.07,7.20,15.07,7.20,-7.20,-7.45,-7.08,7.88,7.88,7.87
48.97,15.04,7.22,15.05,7.21,-7.21,-7.45,-7.10,7.83,7.83,7.82
49.46,15.01,7.22,15.02,7.22,-7.22,-7.45,-7.13,7.79,7.79,7.79
49.96,14.98,7.25,14.99,7.24,-7.24,-7.45,-7.16,7.75,7.75,7.73
50.46,14.95,7.25,14.96,7.25,-7.25,-7.45,-7.20,7.71,7.71,7.70
50.96,14.92,7.26,14.93,7.26,-7.26,-7.45,-7.23,7.66,7.67,7.66
51.47,14.89,7.27,14.90,7.27,-7.27,-7.44,-7.28,7.62,7.62,7.62
51.99,14.86,7.29,14.86,7.28,-7.28,-7.44,-7.32,7.58,7.58,7.57
52.51,14.83,7.29,14.83,7.29,-7.29,-7.44,-7.36,7.54,7.54,7.54
53.03,14.80,7.29,14.80,7.30,-7.30,-7.44,-7.41,7.50,7.50,7.51
53.56,14.77,7.31,14.77,7.31,-7.31,-7.44,-7.46,7.46,7.46,7.46
54.10,14.73,7.32,14.74,7.32,-7.32,-7.44,-7.51,7.41,7.42,7.41
54.64,14.70,7.33,14.71,7.33,-7.33,-7.44,-7.56,7.38,7.38,7.37
55.18,14.67,7.34,14.67,7.33,-7.33,-7.44,-7.61,7.34,7.34,7.33
55.74,14.64,7.36,14.64,7.34,-7.34,-7.43,-7.66,7.31,7.30,7.28
56.29,14.60,7.34,14.61,7.34,-7.34,-7.43,-7.70,7.26,7.27,7.26
56.86,14.57,7.35,14.57,7.35,-7.35,-7.43,-7.75,7.23,7.22,7.22
57.42,14.53,7.36,14.54,7.35,-7.35,-7.43,-7.79,7.18,7.18,7.17
58.00,14.50,7.37,14.50,7.36,-7.36,-7.43,-7.83,7.14,7.14,7.13
58.58,14.46,7.36,14.46,7.37,-7.37,-7.43,-7.87,7.10,7.10,7.10
59.16,14.42,7.35,14.43,7.38,-7.38,-7.43,-7.90,7.05,7.05,7.07
59.76,14.38,7.36,14.39,7.39,-7.39,-7.43,-7.92,7.00,7.00,7.02
60.35,14.35,7.38,14.36,7.40,-7.40,-7.43,-7.94,6.96,6.96,6.97
60.96,14.31,7.40,14.32,7.41,-7.41,-7.43,-7.96,6.90,6.91,6.91
61.57,14.28,7.43,14.28,7.42,-7.42,-7.43,-7.97,6.86,6.86,6.85
62.18,14.24,7.45,14.24,7.44,-7.44,-7.43,-7.97,6.81,6.80,6.79
62.80,14.20,7.47,14.20,7.45,-7.45,-7.43,-7.97,6.75,6.75,6.73
63.43,14.16,7.48,14.16,7.47,-7.47,-7.42,-7.97,6.70,6.70,6.68
64.07,14.13,7.50,14.13,7.48,-7.48,-7.42,-7.95,6.65,6.64,6.63
64.71,14.08,7.50,14.09,7.50,-7.50,-7.42,-7.93,6.59,6.59,6.58
65.35,14.04,7.52,14.05,7.51,-7.51,-7.42,-7.91,6.53,6.53,6.52
66.01,14.00,7.53,14.01,7.53,-7.53,-7.42,-7.88,6.48,6.48,6.47
66.67,13.96,7.53,13.96,7.54,-7.54,-7.42,-7.84,6.42,6.42,6.43
67.33,13.92,7.56,13.92,7.56,-7.56,-7.43,-7.80,6.37,6.37,6.36
68.01,13.88,7.57,13.88,7.57,-7.57,-7.43,-7.76,6.32,6.31,6.31
68.69,13.83,7.57,13.84,7.58,-7.58,-7.43,-7.72,6.25,6.26,6.26
69.37,13.79,7.58,13.80,7.60,-7.60,-7.43,-7.67,6.20,6.20,6.21
70.07,13.76,7.61,13.76,7.61,-7.61,-7.43,-7.62,6.15,6.15,6.15
70.77,13.71,7.63,13.72,7.63,-7.63,-7.43,-7.57,6.08,6.09,6.08
71.48,13.67,7.64,13.68,7.65,-7.65,-7.43,-7.51,6.03,6.03,6.03
72.19,13.63,7.66,13.64,7.66,-7.66,-7.43,-7.46,5.97,5.97,5.97
72.91,13.59,7.69,13.59,7.68,-7.68,-7.43,-7.41,5.92,5.92,5.90
73.64,13.55,7.70,13.55,7.69,-7.69,-7.43,-7.35,5.86,5.86,5.85
74.38,13.51,7.72,13.51,7.71,-7.71,-7.44,-7.30,5.81,5.80,5.79
75.12,13.46,7.72,13.47,7.72,-7.72,-7.44,-7.25,5.75,5.75,5.74
75.87,13.43,7.74,13.43,7.73,-7.73,-7.44,-7.21,5.70,5.70,5.69
76.63,13.38,7.75,13.38,7.74,-7.74,-7.44,-7.16,5.64,5.64,5.63
77.40,13.34,7.75,13.34,7.75,-7.75,-7.44,-7.12,5.60,5.59,5.59
78.17,13.29,7.76,13.30,7.75,-7.75,-7.45,-7.08,5.54,5.54,5.53
78.95,13.24,7.75,13.25,7.76,-7.76,-7.45,-7.04,5.48,5.49,5.49
79.74,13.20,7.76,13.21,7.77,-7.77,-7.45,-7.01,5.44,5.44,5.44
80.54,13.16,7.77,13.16,7.77,-7.77,-7.46,-6.99,5.39,5.39,5.39
81.35,13.12,7.79,13.12,7.78,-7.78,-7.46,-6.96,5.35,5.34,5.33
82.16,13.08,7.78,13.07,7.78,-7.78,-7.46,-6.94,5.30,5.29,5.30
82.98,13.03,7.79,13.03,7.79,-7.79,-7.47,-6.93,5.25,5.24,5.24
83.81,12.97,7.78,12.98,7.80,-7.80,-7.47,-6.92,5.18,5.19,5.19
84.65,12.92,7.79,12.94,7.80,-7.80,-7.48,-6.91,5.12,5.13,5.13
85.50,12.88,7.81,12.89,7.81,-7.81,-7.48,-6.91,5.07,5.08,5.07
86.35,12.85,7.83,12.85,7.82,-7.82,-7.49,-6.92,5.03,5.03,5.02
87.22,12.81,7.84,12.81,7.83,-7.83,-7.49,-6.93,4.98,4.97,4.97
88.09,12.76,7.85,12.76,7.85,-7.85,-7.50,-6.94,4.92,4.92,4.91
88.97,12.71,7.86,12.72,7.86,-7.86,-7.50,-6.96,4.86,4.86,4.85
89.86,12.67,7.87,12.67,7.87,-7.87,-7.51,-6.99,4.80,4.80,4.80
90.76,12.61,7.87,12.63,7.88,-7.88,-7.51,-7.02,4.73,4.74,4.74
91.66,12.57,7.90,12.58,7.90,-7.90,-7.52,-7.06,4.67,4.68,4.67
92.58,12.54,7.92,12.54,7.91,-7.91,-7.53,-7.10,4.63,4.62,4.62
93.51,12.49,7.92,12.49,7.93,-7.93,-7.53,-7.14,4.57,4.56,4.57
94.44,12.44,7.93,12.44,7.94,-7.94,-7.54,-7.19,4.51,4.50,4.51
95.39,12.39,7.95,12.39,7.95,-7.95,-7.55,-7.25,4.45,4.44,4.44
96.34,12.33,7.96,12.33,7.96,-7.96,-7.55,-7.31,4.38,4.38,4.37
97.30,12.28,7.97,12.28,7.97,-7.97,-7.56,-7.37,4.32,4.32,4.31
98.28,12.24,8.00,12.23,7.98,-7.98,-7.57,-7.44,4.27,4.26,4.24
99.26,12.18,8.00,12.18,7.99,-7.99,-7.58,-7.51,4.20,4.19,4.18
100.25,12.12,8.00,12.13,7.99,-7.99,-7.59,-7.58,4.13,4.13,4.12
101.25,12.05,7.98,12.07,8.00,-8.00,-7.60,-7.66,4.06,4.08,4.07
102.27,11.99,7.98,12.02,8.00,-8.00,-7.61,-7.74,3.99,4.02,4.01
103.29,11.95,8.00,11.96,8.00,-8.00,-7.62,-7.83,3.95,3.96,3.95
104.32,11.91,8.01,11.91,8.01,-8.01,-7.62,-7.91,3.91,3.90,3.90
105.37,11.86,8.02,11.85,8.01,-8.01,-7.63,-8.00,3.86,3.85,3.84
106.42,11.81,8.02,11.80,8.01,-8.01,-7.64,-8.09,3.81,3.79,3.79
107.48,11.75,8.02,11.75,8.01,-8.01,-7.66,-8.18,3.74,3.73,3.73
108.56,11.69,8.01,11.70,8.02,-8.02,-7.67,-8.27,3.67,3.68,3.68
109.64,11.63,8.01,11.64,8.03,-8.03,-7.68,-8.36,3.61,3.62,3.62
110.74,11.58,8.02,11.59,8.03,-8.03,-7.69,-8.44,3.55,3.56,3.56
111.85,11.53,8.03,11.54,8.04,-8.04,-7.70,-8.52,3.49,3.50,3.50
112.97,11.48,8.03,11.49,8.05,-8.05,-7.71,-8.60,3.43,3.44,3.45
114.10,11.42,8.03,11.44,8.05,-8.05,-7.72,-8.68,3.37,3.38,3.39
115.24,11.36,8.05,11.38,8.06,-8.06,-7.73,-8.75,3.31,3.33,3.31
116.39,11.34,8.09,11.33,8.06,-8.06,-7.74,-8.81,3.29,3.27,3.25
117.55,11.30,8.11,11.27,8.06,-8.06,-7.76,-8.87,3.24,3.21,3.19
118.73,11.24,8.11,11.22,8.07,-8.07,-7.77,-8.92,3.18,3.15,3.13
119.92,11.17,8.08,11.16,8.07,-8.07,-7.78,-8.96,3.11,3.10,3.09
121.12,11.09,8.05,11.11,8.07,-8.07,-7.79,-8.99,3.03,3.04,3.04
122.33,11.04,8.06,11.05,8.07,-8.07,-7.80,-9.02,2.98,2.98,2.98
123.55,10.99,8.06,11.00,8.07,-8.07,-7.82,-9.03,2.93,2.93,2.93
124.79,10.91,8.03,10.94,8.07,-8.07,-7.83,-9.03,2.85,2.87,2.88
126.03,10.86,8.04,10.88,8.06,-8.06,-7.84,-9.03,2.80,2.82,2.82
127.29,10.83,8.06,10.83,8.06,-8.06,-7.85,-9.01,2.77,2.76,2.77
128.57,10.78,8.08,10.77,8.06,-8.06,-7.86,-8.99,2.72,2.71,2.70
129.85,10.70,8.05,10.71,8.06,-8.06,-7.88,-8.95,2.65,2.65,2.65
131.15,10.64,8.05,10.66,8.06,-8.06,-7.89,-8.91,2.58,2.60,2.59
132.46,10.60,8.06,10.61,8.06,-8.06,-7.90,-8.85,2.54,2.54,2.54
133.79,10.55,8.07,10.55,8.06,-8.06,-7.91,-8.79,2.49,2.49,2.48
135.12,10.49,8.06,10.50,8.06,-8.06,-7.92,-8.73,2.43,2.44,2.43
136.48,10.45,8.07,10.44,8.06,-8.06,-7.93,-8.65,2.40,2.38,2.38
137.84,10.38,8.05,10.39,8.05,-8.05,-7.94,-8.57,2.33,2.33,2.33
139.22,10.34,8.07,10.33,8.05,-8.05,-7.95,-8.49,2.30,2.28,2.27
140.61,10.28,8.05,10.27,8.03,-8.03,-7.96,-8.40,2.25,2.23,2.23
142.02,10.20,8.03,10.20,8.02,-8.02,-7.97,-8.31,2.19,2.18,2.17
143.44,10.15,8.02,10.14,8.00,-8.00,-7.98,-8.22,2.15,2.14,2.13
144.87,10.07,7.98,10.08,7.99,-7.99,-7.98,-8.13,2.09,2.09,2.09
146.32,10.01,7.97,10.02,7.97,-7.97,-7.99,-8.03,2.05,2.05,2.04
147.78,9.94,7.94,9.95,7.95,-7.95,-8.00,-7.94,2.00,2.00,2.00
149.26,9.88,7.93,9.89,7.93,-7.93,-8.00,-7.85,1.96,1.96,1.95
150.75,9.80,7.89,9.82,7.91,-7.91,-8.01,-7.76,1.90,1.92,1.91
152.26,9.75,7.88,9.76,7.88,-7.88,-8.01,-7.66,1.87,1.87,1.87
153.78,9.68,7.85,9.69,7.86,-7.86,-8.01,-7.58,1.82,1.83,1.83
155.32,9.63,7.84,9.63,7.84,-7.84,-8.01,-7.49,1.79,1.79,1.79
156.88,9.56,7.82,9.57,7.82,-7.82,-8.01,-7.41,1.74,1.74,1.74
158.44,9.51,7.82,9.51,7.81,-7.81,-8.01,-7.33,1.71,1.70,1.69
160.03,9.43,7.78,9.44,7.79,-7.79,-8.01,-7.26,1.65,1.65,1.65
161.63,9.38,7.77,9.38,7.77,-7.77,-8.01,-7.19,1.61,1.61,1.61
163.24,9.33,7.77,9.32,7.76,-7.76,-8.00,-7.12,1.58,1.56,1.56
164.88,9.26,7.75,9.26,7.75,-7.75,-8.00,-7.06,1.52,1.52,1.51
166.53,9.20,7.74,9.20,7.73,-7.73,-7.99,-7.00,1.47,1.47,1.46
168.19,9.15,7.72,9.15,7.72,-7.72,-7.98,-6.95,1.43,1.42,1.43
169.87,9.07,7.70,9.09,7.71,-7.71,-7.97,-6.90,1.36,1.38,1.37
171.57,9.01,7.69,9.03,7.70,-7.70,-7.96,-6.86,1.31,1.33,1.32
173.29,8.97,7.69,8.97,7.69,-7.69,-7.95,-6.82,1.28,1.28,1.28
175.02,8.90,7.67,8.92,7.68,-7.68,-7.93,-6.79,1.22,1.23,1.23
176.77,8.86,7.68,8.86,7.67,-7.67,-7.91,-6.76,1.19,1.19,1.18
178.54,8.80,7.66,8.80,7.66,-7.66,-7.90,-6.73,1.14,1.14,1.14
180.32,8.75,7.67,8.75,7.65,-7.65,-7.88,-6.72,1.10,1.10,1.08
182.13,8.70,7.65,8.69,7.64,-7.64,-7.85,-6.70,1.06,1.05,1.05
183.95,8.62,7.62,8.64,7.64,-7.64,-7.83,-6.70,0.99,1.00,1.00
185.79,8.58,7.63,8.58,7.63,-7.63,-7.80,-6.69,0.96,0.96,0.95
187.65,8.52,7.61,8.53,7.62,-7.62,-7.78,-6.69,0.91,0.91,0.91
189.52,8.46,7.59,8.47,7.60,-7.60,-7.75,-6.70,0.86,0.87,0.87
191.42,8.41,7.58,8.41,7.59,-7.59,-7.72,-6.71,0.83,0.83,0.83
193.33,8.36,7.57,8.36,7.57,-7.57,-7.68,-6.72,0.80,0.79,0.79
195.27,8.30,7.56,8.30,7.55,-7.55,-7.65,-6.74,0.76,0.75,0.74
197.22,8.24,7.55,8.23,7.53,-7.53,-7.61,-6.77,0.72,0.71,0.69
199.19,8.17,7.51,8.17,7.50,-7.50,-7.57,-6.79,0.68,0.67,0.66
201.18,8.11,7.49,8.11,7.47,-7.47,-7.53,-6.82,0.64,0.64,0.62
203.19,8.04,7.45,8.05,7.45,-7.45,-7.49,-6.85,0.60,0.60,0.59
205.23,7.97,7.40,7.98,7.42,-7.42,-7.44,-6.89,0.56,0.57,0.57
207.28,7.90,7.36,7.92,7.38,-7.38,-7.40,-6.93,0.52,0.53,0.54
209.35,7.85,7.35,7.85,7.34,-7.34,-7.35,-6.96,0.51,0.50,0.50
211.44,7.78,7.31,7.78,7.31,-7.31,-7.30,-7.00,0.48,0.47,0.47
213.56,7.71,7.26,7.71,7.26,-7.26,-7.25,-7.04,0.45,0.45,0.45
215.69,7.63,7.21,7.64,7.22,-7.22,-7.20,-7.09,0.41,0.42,0.42
217.85,7.56,7.17,7.57,7.18,-7.18,-7.14,-7.13,0.39,0.39,0.39
220.03,7.51,7.15,7.50,7.14,-7.14,-7.09,-7.16,0.38,0.37,0.36
222.23,7.45,7.12,7.44,7.09,-7.09,-7.03,-7.20,0.36,0.35,0.33
224.45,7.37,7.05,7.37,7.05,-7.05,-6.97,-7.24,0.32,0.32,0.32
226.70,7.29,7.00,7.31,7.01,-7.01,-6.91,-7.27,0.29,0.30,0.29
228.96,7.21,6.93,7.24,6.96,-6.96,-6.85,-7.30,0.25,0.28,0.28
231.25,7.17,6.91,7.18,6.92,-6.92,-6.78,-7.32,0.26,0.26,0.26
233.57,7.11,6.87,7.11,6.87,-6.87,-6.72,-7.34,0.25,0.25,0.24
235.90,7.04,6.81,7.05,6.82,-6.82,-6.66,-7.35,0.23,0.23,0.23
238.26,6.99,6.79,6.99,6.77,-6.77,-6.59,-7.36,0.22,0.22,0.20
240.64,6.92,6.71,6.93,6.72,-6.72,-6.52,-7.35,0.21,0.21,0.21
243.05,6.87,6.68,6.86,6.66,-6.66,-6.45,-7.35,0.21,0.20,0.19
245.48,6.81,6.63,6.80,6.61,-6.61,-6.39,-7.33,0.20,0.19,0.18
247.93,6.73,6.56,6.74,6.56,-6.56,-6.32,-7.30,0.18,0.18,0.17
250.41,6.68,6.50,6.68,6.50,-6.50,-6.25,-7.27,0.18,0.18,0.18
252.92,6.61,6.44,6.62,6.44,-6.44,-6.17,-7.23,0.17,0.17,0.17
255.45,6.55,6.39,6.55,6.39,-6.39,-6.10,-7.18,0.17,0.17,0.16
258.00,6.49,6.33,6.49,6.33,-6.33,-6.03,-7.12,0.16,0.16,0.16
260.58,6.42,6.26,6.43,6.27,-6.27,-5.96,-7.06,0.15,0.16,0.16
263.19,6.37,6.21,6.37,6.22,-6.22,-5.88,-6.98,0.16,0.16,0.16
265.82,6.30,6.15,6.32,6.16,-6.16,-5.81,-6.90,0.14,0.15,0.15
268.48,6.25,6.10,6.26,6.11,-6.11,-5.74,-6.82,0.15,0.15,0.15
271.16,6.20,6.05,6.20,6.05,-6.05,-5.66,-6.72,0.15,0.15,0.15
273.87,6.12,5.97,6.15,6.00,-6.00,-5.59,-6.62,0.13,0.15,0.15
276.61,6.08,5.93,6.09,5.94,-5.94,-5.52,-6.52,0.14,0.15,0.15
279.38,6.03,5.90,6.04,5.89,-5.89,-5.44,-6.41,0.14,0.15,0.13
282.17,5.98,5.85,5.98,5.83,-5.83,-5.37,-6.30,0.15,0.15,0.13
284.99,5.94,5.80,5.92,5.77,-5.77,-5.29,-6.19,0.17,0.15,0.14
287.84,5.86,5.71,5.86,5.71,-5.71,-5.22,-6.07,0.15,0.15,0.15
290.72,5.81,5.67,5.80,5.65,-5.65,-5.14,-5.95,0.17,0.15,0.14
293.63,5.74,5.59,5.74,5.59,-5.59,-5.07,-5.83,0.16,0.16,0.15
296.57,5.68,5.52,5.68,5.52,-5.52,-5.00,-5.71,0.17,0.16,0.16
299.53,5.62,5.46,5.61,5.45,-5.45,-4.92,-5.59,0.18,0.17,0.16
302.53,5.55,5.37,5.55,5.38,-5.38,-4.85,-5.46,0.18,0.17,0.18
305.55,5.48,5.31,5.48,5.30,-5.30,-4.78,-5.34,0.18,0.18,0.17
308.61,5.40,5.22,5.41,5.23,-5.23,-4.70,-5.22,0.18,0.18,0.18
311.69,5.32,5.13,5.34,5.15,-5.15,-4.63,-5.11,0.17,0.19,0.19
314.81,5.26,5.07,5.27,5.07,-5.07,-4.56,-4.99,0.19,0.20,0.19
317.96,5.20,5.00,5.21,5.00,-5.00,-4.49,-4.87,0.20,0.21,0.20
321.14,5.14,4.93,5.14,4.93,-4.93,-4.42,-4.76,0.22,0.21,0.21
324.35,5.07,4.86,5.07,4.85,-4.85,-4.34,-4.65,0.22,0.22,0.21
327.59,4.99,4.75,5.01,4.78,-4.78,-4.27,-4.54,0.21,0.23,0.24
330.87,4.94,4.71,4.95,4.71,-4.71,-4.20,-4.43,0.23,0.24,0.23
334.18,4.88,4.64,4.89,4.64,-4.64,-4.13,-4.33,0.24,0.24,0.24
337.52,4.82,4.58,4.83,4.57,-4.57,-4.07,-4.23,0.25,0.25,0.24
340.90,4.77,4.51,4.77,4.51,-4.51,-4.00,-4.13,0.27,0.26,0.26
344.30,4.70,4.43,4.71,4.44,-4.44,-3.93,-4.04,0.27,0.27,0.27
347.75,4.64,4.37,4.65,4.37,-4.37,-3.86,-3.94,0.28,0.28,0.27
351.23,4.58,4.31,4.58,4.30,-4.30,-3.80,-3.85,0.29,0.28,0.27
354.74,4.53,4.23,4.52,4.23,-4.23,-3.73,-3.77,0.30,0.29,0.30
358.28,4.46,4.17,4.46,4.16,-4.16,-3.67,-3.68,0.30,0.30,0.29
361.87,4.41,4.11,4.40,4.09,-4.09,-3.60,-3.60,0.32,0.31,0.30
365.49,4.34,4.03,4.34,4.02,-4.02,-3.54,-3.52,0.32,0.31,0.31
369.14,4.27,3.94,4.27,3.95,-3.95,-3.47,-3.45,0.32,0.32,0.33
372.83,4.21,3.88,4.21,3.88,-3.88,-3.41,-3.38,0.33,0.33,0.33
376.56,4.13,3.80,4.15,3.81,-3.81,-3.35,-3.30,0.32,0.34,0.33
380.33,4.08,3.74,4.09,3.74,-3.74,-3.29,-3.24,0.34,0.35,0.34
384.13,4.02,3.66,4.03,3.67,-3.67,-3.23,-3.17,0.35,0.36,0.36
387.97,3.97,3.61,3.97,3.61,-3.61,-3.17,-3.11,0.37,0.37,0.36
391.85,3.91,3.54,3.92,3.54,-3.54,-3.11,-3.05,0.38,0.38,0.37
395.77,3.85,3.47,3.86,3.47,-3.47,-3.05,-2.99,0.38,0.39,0.38
399.73,3.80,3.41,3.81,3.41,-3.41,-2.99,-2.93,0.40,0.40,0.39
403.72,3.75,3.33,3.76,3.35,-3.35,-2.93,-2.88,0.41,0.41,0.42
407.76,3.71,3.30,3.70,3.29,-3.29,-2.87,-2.83,0.43,0.42,0.41
411.84,3.65,3.23,3.65,3.23,-3.23,-2.82,-2.78,0.43,0.43,0.42
415.96,3.60,3.16,3.60,3.17,-3.17,-2.76,-2.73,0.44,0.44,0.44
420.12,3.54,3.10,3.55,3.11,-3.11,-2.71,-2.68,0.44,0.45,0.44
424.32,3.49,3.04,3.50,3.05,-3.05,-2.65,-2.63,0.45,0.46,0.45
428.56,3.46,2.99,3.45,2.99,-2.99,-2.60,-2.59,0.47,0.46,0.47
432.85,3.41,2.93,3.40,2.93,-2.93,-2.54,-2.55,0.48,0.47,0.48
437.18,3.36,2.89,3.35,2.87,-2.87,-2.49,-2.51,0.49,0.48,0.47
441.55,3.31,2.83,3.30,2.81,-2.81,-2.44,-2.46,0.50,0.49,0.48
445.96,3.25,2.76,3.25,2.75,-2.75,-2.38,-2.42,0.50,0.50,0.49
450.42,3.19,2.69,3.20,2.70,-2.70,-2.33,-2.38,0.50,0.51,0.50
454.93,3.14,2.63,3.16,2.64,-2.64,-2.28,-2.35,0.51,0.52,0.51
459.48,3.10,2.58,3.11,2.58,-2.58,-2.23,-2.31,0.52,0.53,0.52
464.07,3.06,2.52,3.06,2.53,-2.53,-2.18,-2.27,0.54,0.53,0.54
468.71,3.01,2.46,3.02,2.47,-2.47,-2.13,-2.23,0.54,0.54,0.55
473.40,2.95,2.40,2.97,2.41,-2.41,-2.08,-2.19,0.54,0.55,0.55
478.13,2.90,2.34,2.92,2.35,-2.35,-2.04,-2.15,0.55,0.56,0.56
482.91,2.86,2.29,2.87,2.29,-2.29,-1.99,-2.12,0.57,0.58,0.57
487.74,2.83,2.25,2.82,2.23,-2.23,-1.94,-2.08,0.60,0.59,0.58
492.62,2.79,2.20,2.77,2.17,-2.17,-1.89,-2.04,0.62,0.60,0.59
497.55,2.74,2.14,2.73,2.12,-2.12,-1.85,-2.00,0.63,0.61,0.60
502.52,2.68,2.07,2.68,2.05,-2.05,-1.80,-1.96,0.63,0.62,0.61
507.55,2.62,1.99,2.63,1.99,-1.99,-1.75,-1.92,0.63,0.63,0.63
512.62,2.57,1.93,2.57,1.93,-1.93,-1.71,-1.88,0.65,0.65,0.64
