frequency,raw,error,smoothed,error_smoothed,equalization,parametric_eq,fixed_band_eq,equalized_raw,equalized_smoothed,target
20.00,-11.58,-18.33,-11.56,-18.35,18.35,17.88,7.17,6.76,6.78,6.75
20.20,-11.44,-18.24,-11.43,-18.25,18.25,17.76,7.32,6.81,6.82,6.80
20.40,-11.30,-18.15,-11.29,-18.15,18.15,17.64,7.48,6.85,6.85,6.85
20.61,-11.16,-18.04,-11.16,-18.05,18.05,17.52,7.65,6.88,6.89,6.88
20.81,-11.02,-17.95,-11.03,-17.94,17.94,17.40,7.82,6.92,6.92,6.93
21.02,-10.88,-17.85,-10.89,-17.84,17.84,17.28,7.99,6.96,6.94,6.97
21.23,-10.75,-17.74,-10.76,-17.73,17.73,17.17,8.17,6.98,6.97,6.99
21.44,-10.62,-17.63,-10.63,-17.62,17.62,17.05,8.35,7.00,6.99,7.01
21.66,-10.49,-17.52,-10.50,-17.51,17.51,16.94,8.54,7.02,7.01,7.03
21.87,-10.36,-17.40,-10.37,-17.40,17.40,16.82,8.73,7.04,7.03,7.04
22.09,-10.24,-17.30,-10.24,-17.29,17.29,16.71,8.93,7.05,7.04,7.06
22.31,-10.11,-17.18,-10.12,-17.17,17.17,16.60,9.13,7.06,7.06,7.07
22.54,-9.98,-17.05,-9.99,-17.06,17.06,16.49,9.34,7.07,7.06,7.07
22.76,-9.85,-16.91,-9.87,-16.94,16.94,16.38,9.56,7.09,7.07,7.07
22.99,-9.72,-16.78,-9.74,-16.81,16.81,16.27,9.77,7.09,7.07,7.05
23.22,-9.61,-16.66,-9.62,-16.69,16.69,16.16,10.00,7.08,7.07,7.05
23.45,-9.51,-16.56,-9.49,-16.56,16.56,16.05,10.23,7.05,7.07,7.05
23.69,-9.41,-16.47,-9.37,-16.43,16.43,15.95,10.47,7.02,7.07,7.06
23.92,-9.31,-16.37,-9.24,-16.31,16.31,15.84,10.71,7.00,7.07,7.06
24.16,-9.17,-16.24,-9.12,-16.19,16.19,15.73,10.96,7.02,7.07,7.07
24.40,-9.01,-16.09,-9.00,-16.07,16.07,15.63,11.22,7.06,7.07,7.08
24.65,-8.86,-15.93,-8.88,-15.95,15.95,15.52,11.48,7.09,7.07,7.07
24.89,-8.70,-15.77,-8.77,-15.84,15.84,15.42,11.75,7.14,7.07,7.07
25.14,-8.58,-15.65,-8.66,-15.73,15.73,15.31,12.03,7.15,7.07,7.07
25.39,-8.49,-15.57,-8.55,-15.62,15.62,15.21,12.31,7.13,7.07,7.08
25.65,-8.41,-15.49,-8.44,-15.51,15.51,15.10,12.60,7.10,7.07,7.07
25.91,-8.32,-15.39,-8.32,-15.39,15.39,15.00,12.89,7.07,7.07,7.06
26.16,-8.23,-15.29,-8.21,-15.28,15.28,14.90,13.19,7.05,7.07,7.06
26.43,-8.13,-15.19,-8.09,-15.16,15.16,14.79,13.50,7.03,7.07,7.06
26.69,-8.03,-15.09,-7.98,-15.04,15.04,14.69,13.81,7.01,7.06,7.06
26.96,-7.94,-15.01,-7.87,-14.93,14.93,14.58,14.13,6.98,7.06,7.07
27.23,-7.80,-14.87,-7.76,-14.81,14.81,14.48,14.45,7.01,7.06,7.07
27.50,-7.66,-14.73,-7.64,-14.70,14.70,14.37,14.77,7.04,7.06,7.07
27.77,-7.52,-14.57,-7.53,-14.59,14.59,14.27,15.08,7.07,7.06,7.05
28.05,-7.39,-14.44,-7.42,-14.47,14.47,14.16,15.40,7.08,7.05,7.05
28.33,-7.26,-14.30,-7.30,-14.35,14.35,14.05,15.71,7.09,7.05,7.04
28.62,-7.13,-14.17,-7.18,-14.23,14.23,13.95,16.01,7.10,7.05,7.04
28.90,-7.00,-14.05,-7.07,-14.11,14.11,13.84,16.30,7.11,7.05,7.05
29.19,-6.91,-13.95,-6.95,-13.99,13.99,13.73,16.57,7.08,7.05,7.04
29.48,-6.83,-13.88,-6.83,-13.87,13.87,13.63,16.82,7.04,7.04,7.05
29.78,-6.75,-13.79,-6.71,-13.75,13.75,13.52,17.04,7.00,7.04,7.04
30.08,-6.66,-13.71,-6.59,-13.63,13.63,13.41,17.23,6.97,7.04,7.05
30.38,-6.53,-13.57,-6.48,-13.52,13.52,13.30,17.39,6.99,7.04,7.04
30.68,-6.40,-13.44,-6.37,-13.41,13.41,13.19,17.50,7.01,7.04,7.04
30.99,-6.27,-13.31,-6.27,-13.30,13.30,13.08,17.57,7.03,7.03,7.03
31.30,-6.14,-13.17,-6.16,-13.19,13.19,12.97,17.59,7.05,7.03,7.03
31.61,-6.01,-13.04,-6.05,-13.08,13.08,12.86,17.56,7.07,7.03,7.03
31.93,-5.88,-12.91,-5.94,-12.96,12.96,12.74,17.49,7.08,7.02,7.03
32.24,-5.78,-12.79,-5.82,-12.84,12.84,12.63,17.37,7.06,7.02,7.01
32.57,-5.69,-12.71,-5.70,-12.72,12.72,12.52,17.22,7.03,7.01,7.02
32.89,-5.60,-12.62,-5.59,-12.60,12.60,12.40,17.03,7.00,7.01,7.02
33.22,-5.50,-12.50,-5.47,-12.48,12.48,12.29,16.81,6.98,7.01,7.00
33.55,-5.39,-12.39,-5.36,-12.36,12.36,12.17,16.56,6.97,7.00,7.00
33.89,-5.28,-12.27,-5.25,-12.24,12.24,12.06,16.29,6.96,6.99,6.99
34.23,-5.15,-12.15,-5.14,-12.13,12.13,11.94,16.01,6.97,6.99,6.99
34.57,-5.02,-12.00,-5.02,-12.00,12.00,11.83,15.72,6.98,6.98,6.98
34.92,-4.88,-11.86,-4.90,-11.88,11.88,11.71,15.42,7.00,6.98,6.98
35.27,-4.77,-11.75,-4.78,-11.76,11.76,11.60,15.12,6.99,6.98,6.97
35.62,-4.68,-11.65,-4.67,-11.64,11.64,11.48,14.82,6.96,6.97,6.97
35.97,-4.58,-11.55,-4.56,-11.52,11.52,11.36,14.51,6.95,6.97,6.97
36.33,-4.45,-11.42,-4.44,-11.41,11.41,11.24,14.21,6.96,6.97,6.97
36.70,-4.32,-11.28,-4.33,-11.30,11.30,11.13,13.91,6.98,6.96,6.96
37.06,-4.19,-11.14,-4.23,-11.19,11.19,11.01,13.62,7.00,6.96,6.95
37.43,-4.07,-11.04,-4.12,-11.08,11.08,10.89,13.33,7.01,6.96,6.97
37.81,-3.95,-10.91,-4.01,-10.97,10.97,10.77,13.05,7.02,6.96,6.96
38.19,-3.87,-10.83,-3.90,-10.86,10.86,10.66,12.77,6.99,6.96,6.96
38.57,-3.82,-10.78,-3.80,-10.76,10.76,10.54,12.50,6.94,6.96,6.96
38.95,-3.77,-10.74,-3.69,-10.65,10.65,10.42,12.24,6.88,6.96,6.97
39.34,-3.65,-10.61,-3.58,-10.54,10.54,10.30,11.98,6.89,6.96,6.96
39.74,-3.52,-10.48,-3.48,-10.43,10.43,10.18,11.73,6.91,6.96,6.95
40.14,-3.38,-10.34,-3.37,-10.33,10.33,10.07,11.49,6.95,6.96,6.96
40.54,-3.25,-10.20,-3.27,-10.22,10.22,9.95,11.25,6.97,6.95,6.95
40.94,-3.11,-10.06,-3.16,-10.11,10.11,9.83,11.03,7.00,6.95,6.95
41.35,-3.03,-9.97,-3.06,-10.00,10.00,9.72,10.80,6.97,6.94,6.94
41.76,-2.95,-9.88,-2.95,-9.88,9.88,9.60,10.59,6.94,6.93,6.93
42.18,-2.86,-9.79,-2.85,-9.77,9.77,9.48,10.38,6.91,6.92,6.93
42.60,-2.74,-9.66,-2.74,-9.66,9.66,9.37,10.18,6.92,6.91,6.92
43.03,-2.62,-9.53,-2.64,-9.54,9.54,9.25,9.98,6.92,6.90,6.91
43.46,-2.54,-9.44,-2.54,-9.43,9.43,9.14,9.79,6.88,6.88,6.90
43.90,-2.46,-9.33,-2.45,-9.32,9.32,9.02,9.61,6.86,6.87,6.87
44.33,-2.35,-9.20,-2.36,-9.21,9.21,8.91,9.43,6.86,6.86,6.85
44.78,-2.24,-9.07,-2.27,-9.11,9.11,8.79,9.26,6.87,6.84,6.83
45.23,-2.16,-8.98,-2.18,-9.01,9.01,8.68,9.09,6.85,6.83,6.82
45.68,-2.11,-8.91,-2.09,-8.90,8.90,8.57,8.93,6.79,6.81,6.80
46.13,-2.04,-8.82,-1.99,-8.79,8.79,8.46,8.77,6.75,6.80,6.78
46.60,-1.92,-8.70,-1.90,-8.68,8.68,8.35,8.62,6.76,6.78,6.78
47.06,-1.81,-8.57,-1.82,-8.58,8.58,8.23,8.48,6.77,6.76,6.76
47.53,-1.72,-8.47,-1.73,-8.47,8.47,8.12,8.33,6.75,6.74,6.75
48.01,-1.63,-8.38,-1.64,-8.37,8.37,8.02,8.20,6.73,6.73,6.75
48.49,-1.56,-8.28,-1.55,-8.26,8.26,7.91,8.06,6.70,6.71,6.72
48.97,-1.48,-8.18,-1.46,-8.16,8.16,7.80,7.93,6.68,6.70,6.70
49.46,-1.36,-8.04,-1.38,-8.06,8.06,7.69,7.81,6.70,6.68,6.68
49.96,-1.24,-7.89,-1.29,-7.96,7.96,7.59,7.68,6.72,6.67,6.65
50.46,-1.21,-7.86,-1.21,-7.86,7.86,7.48,7.57,6.65,6.65,6.65
50.96,-1.18,-7.81,-1.12,-7.76,7.76,7.38,7.45,6.58,6.63,6.63
51.47,-1.06,-7.67,-1.05,-7.67,7.67,7.27,7.34,6.61,6.62,6.61
51.99,-0.93,-7.52,-0.98,-7.59,7.59,7.17,7.23,6.66,6.60,6.59
52.51,-0.89,-7.48,-0.92,-7.51,7.51,7.07,7.13,6.62,6.59,6.59
53.03,-0.86,-7.44,-0.86,-7.43,7.43,6.97,7.02,6.57,6.57,6.58
53.56,-0.79,-7.35,-0.80,-7.35,7.35,6.87,6.92,6.56,6.56,6.56
54.10,-0.72,-7.26,-0.74,-7.28,7.28,6.77,6.82,6.56,6.54,6.54
54.64,-0.67,-7.20,-0.68,-7.21,7.21,6.67,6.73,6.54,6.53,6.52
55.18,-0.61,-7.13,-0.62,-7.14,7.14,6.58,6.63,6.53,6.52,6.51
55.74,-0.56,-7.06,-0.56,-7.06,7.06,6.48,6.54,6.50,6.50,6.49
56.29,-0.53,-7.01,-0.50,-6.98,6.98,6.38,6.45,6.45,6.48,6.48
56.86,-0.52,-6.98,-0.44,-6.90,6.90,6.29,6.36,6.38,6.46,6.46
57.42,-0.43,-6.86,-0.38,-6.83,6.83,6.20,6.27,6.40,6.44,6.43
58.00,-0.32,-6.74,-0.32,-6.74,6.74,6.11,6.18,6.42,6.42,6.42
58.58,-0.24,-6.64,-0.26,-6.65,6.65,6.01,6.09,6.41,6.39,6.40
59.16,-0.17,-6.55,-0.19,-6.56,6.56,5.92,6.01,6.39,6.36,6.38
59.76,-0.13,-6.49,-0.13,-6.47,6.47,5.83,5.92,6.34,6.33,6.35
60.35,-0.05,-6.36,-0.07,-6.37,6.37,5.75,5.83,6.32,6.30,6.31
60.96,0.07,-6.20,-0.01,-6.27,6.27,5.66,5.75,6.34,6.26,6.27
61.57,0.08,-6.14,0.06,-6.16,6.16,5.57,5.66,6.24,6.22,6.22
62.18,0.10,-6.08,0.12,-6.05,6.05,5.49,5.57,6.15,6.18,6.18
62.80,0.16,-5.97,0.18,-5.95,5.95,5.40,5.48,6.11,6.13,6.13
63.43,0.22,-5.86,0.25,-5.84,5.84,5.32,5.40,6.06,6.08,6.08
64.07,0.29,-5.74,0.30,-5.73,5.73,5.24,5.31,6.02,6.03,6.03
64.71,0.35,-5.62,0.36,-5.63,5.63,5.16,5.22,5.98,5.98,5.97
65.35,0.42,-5.51,0.42,-5.52,5.52,5.08,5.13,5.94,5.93,5.93
66.01,0.48,-5.40,0.48,-5.40,5.40,5.00,5.04,5.88,5.88,5.88
66.67,0.55,-5.27,0.54,-5.28,5.28,4.92,4.95,5.83,5.83,5.82
67.33,0.61,-5.16,0.60,-5.17,5.17,4.84,4.86,5.78,5.77,5.77
68.01,0.67,-5.05,0.66,-5.06,5.06,4.77,4.77,5.73,5.72,5.72
68.69,0.68,-4.98,0.72,-4.94,4.94,4.69,4.68,5.62,5.66,5.66
69.37,0.76,-4.84,0.78,-4.82,4.82,4.62,4.59,5.58,5.60,5.60
70.07,0.88,-4.67,0.84,-4.70,4.70,4.55,4.50,5.58,5.54,5.55
70.77,0.88,-4.62,0.90,-4.58,4.58,4.47,4.41,5.46,5.48,5.50
71.48,0.96,-4.48,0.96,-4.47,4.47,4.40,4.32,5.43,5.42,5.43
72.19,1.05,-4.31,1.00,-4.36,4.36,4.33,4.23,5.41,5.36,5.36
72.91,1.08,-4.22,1.05,-4.25,4.25,4.26,4.14,5.33,5.30,5.30
73.64,1.08,-4.16,1.09,-4.14,4.14,4.20,4.06,5.22,5.23,5.23
74.38,1.11,-4.06,1.14,-4.03,4.03,4.13,3.97,5.14,5.17,5.17
75.12,1.18,-3.92,1.18,-3.92,3.92,4.06,3.88,5.10,5.11,5.10
75.87,1.27,-3.77,1.23,-3.82,3.82,4.00,3.80,5.09,5.05,5.04
76.63,1.29,-3.69,1.27,-3.72,3.72,3.93,3.71,5.01,4.98,4.98
77.40,1.29,-3.63,1.30,-3.62,3.62,3.87,3.63,4.91,4.92,4.92
78.17,1.29,-3.56,1.33,-3.53,3.53,3.81,3.55,4.82,4.86,4.85
78.95,1.28,-3.53,1.36,-3.44,3.44,3.75,3.46,4.72,4.80,4.81
79.74,1.38,-3.37,1.39,-3.36,3.36,3.69,3.38,4.74,4.75,4.75
80.54,1.46,-3.23,1.41,-3.28,3.28,3.63,3.31,4.74,4.69,4.69
81.35,1.49,-3.14,1.43,-3.20,3.20,3.57,3.23,4.69,4.63,4.63
82.16,1.49,-3.09,1.45,-3.13,3.13,3.51,3.15,4.61,4.58,4.57
82.98,1.49,-3.04,1.47,-3.05,3.05,3.46,3.08,4.54,4.52,4.53
83.81,1.49,-2.97,1.48,-2.98,2.98,3.40,3.00,4.47,4.47,4.46
84.65,1.49,-2.92,1.50,-2.91,2.91,3.35,2.93,4.40,4.41,4.41
85.50,1.49,-2.87,1.51,-2.84,2.84,3.29,2.86,4.33,4.35,4.36
86.35,1.49,-2.81,1.53,-2.76,2.76,3.24,2.79,4.25,4.29,4.30
87.22,1.49,-2.75,1.54,-2.69,2.69,3.19,2.72,4.18,4.23,4.24
88.09,1.50,-2.68,1.55,-2.62,2.62,3.13,2.65,4.12,4.17,4.18
88.97,1.59,-2.53,1.55,-2.56,2.56,3.08,2.59,4.15,4.12,4.12
89.86,1.59,-2.47,1.56,-2.50,2.50,3.03,2.52,4.09,4.06,4.06
90.76,1.59,-2.40,1.57,-2.43,2.43,2.99,2.46,4.02,4.00,3.99
91.66,1.59,-2.35,1.58,-2.36,2.36,2.94,2.40,3.95,3.94,3.94
92.58,1.59,-2.28,1.58,-2.29,2.29,2.89,2.34,3.88,3.88,3.87
93.51,1.59,-2.22,1.59,-2.23,2.23,2.84,2.28,3.82,3.82,3.81
94.44,1.59,-2.17,1.59,-2.17,2.17,2.80,2.22,3.76,3.76,3.76
95.39,1.59,-2.11,1.59,-2.11,2.11,2.75,2.16,3.70,3.70,3.70
96.34,1.59,-2.05,1.59,-2.05,2.05,2.71,2.10,3.64,3.64,3.64
97.30,1.58,-2.00,1.59,-1.99,1.99,2.67,2.05,3.57,3.58,3.58
98.28,1.57,-1.95,1.58,-1.95,1.95,2.62,1.99,3.52,3.52,3.52
99.26,1.56,-1.91,1.56,-1.91,1.91,2.58,1.94,3.46,3.47,3.47
100.25,1.54,-1.87,1.55,-1.86,1.86,2.54,1.89,3.40,3.41,3.41
101.25,1.52,-1.83,1.53,-1.82,1.82,2.50,1.84,3.34,3.35,3.35
102.27,1.51,-1.79,1.50,-1.79,1.79,2.46,1.79,3.30,3.29,3.29
103.29,1.50,-1.73,1.48,-1.76,1.76,2.42,1.74,3.26,3.23,3.23
104.32,1.48,-1.70,1.45,-1.72,1.72,2.39,1.69,3.20,3.17,3.18
105.37,1.46,-1.66,1.43,-1.68,1.68,2.35,1.65,3.14,3.11,3.12
106.42,1.43,-1.63,1.40,-1.65,1.65,2.31,1.60,3.08,3.05,3.06
107.48,1.37,-1.63,1.37,-1.62,1.62,2.28,1.56,2.99,2.99,3.00
108.56,1.28,-1.65,1.33,-1.60,1.60,2.24,1.52,2.88,2.93,2.93
109.64,1.25,-1.62,1.30,-1.57,1.57,2.21,1.48,2.82,2.87,2.87
110.74,1.24,-1.56,1.26,-1.54,1.54,2.17,1.44,2.78,2.81,2.80
111.85,1.22,-1.54,1.23,-1.52,1.52,2.14,1.40,2.73,2.74,2.76
112.97,1.22,-1.46,1.19,-1.49,1.49,2.11,1.36,2.71,2.68,2.68
114.10,1.21,-1.41,1.16,-1.47,1.47,2.08,1.32,2.68,2.63,2.62
115.24,1.20,-1.37,1.12,-1.45,1.45,2.05,1.29,2.65,2.57,2.57
116.39,1.08,-1.42,1.10,-1.42,1.42,2.02,1.26,2.50,2.51,2.50
117.55,1.00,-1.46,1.07,-1.39,1.39,1.99,1.22,2.39,2.46,2.45
118.73,1.00,-1.40,1.06,-1.35,1.35,1.96,1.19,2.35,2.41,2.40
119.92,1.02,-1.35,1.04,-1.32,1.32,1.93,1.17,2.34,2.36,2.37
121.12,1.03,-1.28,1.02,-1.29,1.29,1.90,1.14,2.32,2.32,2.31
122.33,1.02,-1.25,1.00,-1.27,1.27,1.88,1.11,2.29,2.27,2.27
123.55,0.96,-1.28,0.98,-1.26,1.26,1.85,1.09,2.21,2.23,2.24
124.79,0.92,-1.27,0.95,-1.24,1.24,1.82,1.06,2.15,2.19,2.19
126.03,0.96,-1.19,0.93,-1.22,1.22,1.80,1.04,2.17,2.15,2.15
127.29,0.99,-1.13,0.92,-1.19,1.19,1.77,1.02,2.18,2.11,2.12
128.57,1.00,-1.07,0.91,-1.16,1.16,1.75,1.00,2.16,2.07,2.07
129.85,0.90,-1.13,0.90,-1.14,1.14,1.73,0.99,2.04,2.03,2.03
131.15,0.85,-1.15,0.88,-1.11,1.11,1.70,0.97,1.96,2.00,1.99
132.46,0.78,-1.18,0.86,-1.10,1.10,1.68,0.96,1.87,1.96,1.96
133.79,0.77,-1.15,0.84,-1.09,1.09,1.66,0.94,1.85,1.92,1.92
135.12,0.80,-1.08,0.80,-1.08,1.08,1.64,0.93,1.88,1.89,1.87
136.48,0.80,-1.05,0.77,-1.08,1.08,1.62,0.92,1.88,1.85,1.85
137.84,0.80,-1.01,0.75,-1.06,1.06,1.60,0.91,1.86,1.81,1.81
139.22,0.77,-0.99,0.72,-1.05,1.05,1.58,0.90,1.82,1.78,1.76
140.61,0.72,-1.00,0.69,-1.04,1.04,1.56,0.89,1.76,1.74,1.72
142.02,0.67,-1.03,0.66,-1.04,1.04,1.54,0.89,1.70,1.70,1.70
143.44,0.63,-1.03,0.63,-1.03,1.03,1.52,0.88,1.66,1.65,1.66
144.87,0.60,-1.01,0.59,-1.01,1.01,1.50,0.88,1.61,1.61,1.61
146.32,0.49,-1.07,0.56,-0.99,0.99,1.49,0.87,1.48,1.55,1.56
147.78,0.46,-1.06,0.54,-0.96,0.96,1.47,0.87,1.42,1.50,1.52
149.26,0.49,-0.98,0.51,-0.93,0.93,1.46,0.87,1.42,1.44,1.47
150.75,0.54,-0.85,0.47,-0.90,0.90,1.44,0.87,1.44,1.37,1.39
152.26,0.51,-0.81,0.43,-0.87,0.87,1.42,0.87,1.38,1.30,1.32
153.78,0.42,-0.82,0.40,-0.83,0.83,1.41,0.87,1.25,1.23,1.24
155.32,0.31,-0.85,0.37,-0.77,0.77,1.40,0.87,1.08,1.15,1.16
156.88,0.24,-0.84,0.35,-0.72,0.72,1.38,0.87,0.96,1.07,1.08
158.44,0.28,-0.71,0.32,-0.67,0.67,1.37,0.87,0.95,0.99,0.99
160.03,0.33,-0.57,0.28,-0.64,0.64,1.36,0.88,0.97,0.92,0.90
161.63,0.35,-0.47,0.24,-0.60,0.60,1.35,0.88,0.95,0.85,0.82
163.24,0.26,-0.49,0.20,-0.57,0.57,1.33,0.88,0.83,0.78,0.75
164.88,0.16,-0.54,0.16,-0.56,0.56,1.32,0.89,0.72,0.72,0.70
166.53,0.06,-0.58,0.11,-0.55,0.55,1.31,0.89,0.61,0.66,0.64
168.19,0.09,-0.51,0.07,-0.54,0.54,1.30,0.90,0.63,0.61,0.60
169.87,0.14,-0.41,0.04,-0.54,0.54,1.29,0.91,0.68,0.58,0.55
171.57,0.02,-0.51,0.00,-0.54,0.54,1.28,0.91,0.56,0.54,0.53
173.29,-0.13,-0.64,-0.03,-0.55,0.55,1.28,0.92,0.42,0.52,0.51
175.02,-0.19,-0.69,-0.08,-0.58,0.58,1.27,0.93,0.38,0.50,0.50
176.77,-0.15,-0.63,-0.12,-0.60,0.60,1.26,0.94,0.45,0.48,0.48
178.54,-0.14,-0.61,-0.15,-0.62,0.62,1.25,0.94,0.48,0.47,0.47
180.32,-0.14,-0.61,-0.17,-0.63,0.63,1.24,0.95,0.49,0.46,0.47
182.13,-0.15,-0.62,-0.18,-0.63,0.63,1.24,0.96,0.48,0.45,0.47
183.95,-0.19,-0.64,-0.20,-0.64,0.64,1.23,0.97,0.45,0.44,0.45
185.79,-0.23,-0.68,-0.23,-0.65,0.65,1.23,0.98,0.42,0.42,0.45
187.65,-0.29,-0.71,-0.25,-0.66,0.66,1.22,0.99,0.37,0.41,0.42
189.52,-0.28,-0.69,-0.25,-0.65,0.65,1.22,1.01,0.37,0.40,0.41
191.42,-0.27,-0.65,-0.26,-0.64,0.64,1.21,1.02,0.37,0.38,0.38
193.33,-0.26,-0.62,-0.27,-0.63,0.63,1.21,1.03,0.37,0.36,0.36
195.27,-0.21,-0.55,-0.30,-0.63,0.63,1.20,1.04,0.42,0.34,0.34
197.22,-0.22,-0.54,-0.32,-0.64,0.64,1.20,1.06,0.42,0.32,0.32
199.19,-0.38,-0.67,-0.35,-0.64,0.64,1.20,1.07,0.26,0.29,0.29
201.18,-0.47,-0.74,-0.37,-0.64,0.64,1.20,1.08,0.17,0.27,0.27
203.19,-0.43,-0.68,-0.39,-0.64,0.64,1.19,1.10,0.21,0.24,0.25
205.23,-0.39,-0.61,-0.43,-0.64,0.64,1.19,1.11,0.25,0.22,0.22
207.28,-0.35,-0.56,-0.46,-0.66,0.66,1.19,1.12,0.31,0.20,0.21
209.35,-0.46,-0.64,-0.50,-0.67,0.67,1.19,1.14,0.21,0.17,0.18
211.44,-0.63,-0.77,-0.54,-0.69,0.69,1.19,1.15,0.06,0.15,0.14
213.56,-0.65,-0.79,-0.58,-0.72,0.72,1.19,1.17,0.06,0.13,0.14
215.69,-0.62,-0.74,-0.62,-0.74,0.74,1.19,1.18,0.12,0.12,0.12
217.85,-0.57,-0.68,-0.66,-0.76,0.76,1.19,1.20,0.19,0.10,0.10
220.03,-0.64,-0.73,-0.68,-0.78,0.78,1.19,1.21,0.14,0.09,0.09
222.23,-0.71,-0.78,-0.71,-0.80,0.80,1.19,1.23,0.09,0.08,0.07
224.45,-0.83,-0.90,-0.76,-0.83,0.83,1.20,1.24,0.00,0.08,0.07
226.70,-0.88,-0.95,-0.80,-0.88,0.88,1.20,1.25,-0.00,0.07,0.07
228.96,-0.82,-0.90,-0.84,-0.92,0.92,1.20,1.27,0.10,0.08,0.07
231.25,-0.82,-0.90,-0.87,-0.95,0.95,1.21,1.28,0.13,0.08,0.08
233.57,-0.85,-0.94,-0.89,-0.98,0.98,1.21,1.29,0.13,0.09,0.09
235.90,-0.93,-1.03,-0.91,-1.01,1.01,1.21,1.30,0.08,0.10,0.10
238.26,-0.89,-1.00,-0.93,-1.04,1.04,1.22,1.31,0.15,0.12,0.11
240.64,-0.94,-1.07,-0.94,-1.07,1.07,1.22,1.32,0.13,0.13,0.13
243.05,-1.03,-1.19,-0.95,-1.11,1.11,1.23,1.33,0.08,0.15,0.16
245.48,-1.09,-1.27,-0.97,-1.14,1.14,1.23,1.34,0.05,0.17,0.18
247.93,-1.03,-1.24,-0.99,-1.18,1.18,1.24,1.35,0.15,0.19,0.21
250.41,-0.99,-1.21,-1.00,-1.22,1.22,1.24,1.36,0.23,0.21,0.22
252.92,-0.97,-1.22,-1.03,-1.27,1.27,1.25,1.37,0.30,0.24,0.25
255.45,-0.95,-1.22,-1.06,-1.32,1.32,1.26,1.37,0.37,0.26,0.27
258.00,-0.97,-1.26,-1.08,-1.36,1.36,1.27,1.38,0.39,0.28,0.29
260.58,-1.03,-1.33,-1.09,-1.40,1.40,1.27,1.38,0.37,0.31,0.30
263.19,-1.09,-1.42,-1.12,-1.45,1.45,1.28,1.39,0.36,0.33,0.33
265.82,-1.14,-1.49,-1.15,-1.51,1.51,1.29,1.39,0.36,0.35,0.35
268.48,-1.31,-1.68,-1.18,-1.55,1.55,1.30,1.39,0.24,0.37,0.37
271.16,-1.32,-1.72,-1.20,-1.60,1.60,1.31,1.40,0.28,0.40,0.40
273.87,-1.25,-1.67,-1.23,-1.65,1.65,1.32,1.40,0.40,0.42,0.41
276.61,-1.25,-1.70,-1.26,-1.70,1.70,1.33,1.40,0.45,0.45,0.45
279.38,-1.25,-1.72,-1.28,-1.75,1.75,1.34,1.40,0.50,0.47,0.47
282.17,-1.18,-1.68,-1.29,-1.79,1.79,1.35,1.41,0.61,0.50,0.50
284.99,-1.23,-1.76,-1.30,-1.82,1.82,1.36,1.41,0.59,0.52,0.53
287.84,-1.41,-1.96,-1.29,-1.84,1.84,1.37,1.41,0.43,0.55,0.54
290.72,-1.41,-1.99,-1.26,-1.85,1.85,1.38,1.41,0.43,0.58,0.58
293.63,-1.23,-1.83,-1.24,-1.85,1.85,1.39,1.42,0.62,0.61,0.60
296.57,-1.20,-1.84,-1.21,-1.85,1.85,1.41,1.42,0.65,0.64,0.64
299.53,-1.20,-1.86,-1.19,-1.85,1.85,1.42,1.42,0.65,0.66,0.66
302.53,-1.20,-1.88,-1.17,-1.86,1.86,1.43,1.43,0.66,0.69,0.68
305.55,-1.16,-1.89,-1.15,-1.87,1.87,1.44,1.43,0.71,0.71,0.72
308.61,-1.10,-1.84,-1.13,-1.87,1.87,1.46,1.44,0.77,0.74,0.74
311.69,-1.05,-1.82,-1.11,-1.87,1.87,1.47,1.45,0.82,0.76,0.77
314.81,-1.04,-1.83,-1.10,-1.88,1.88,1.49,1.45,0.84,0.78,0.79
317.96,-1.04,-1.85,-1.09,-1.90,1.90,1.50,1.46,0.85,0.80,0.81
321.14,-1.09,-1.91,-1.10,-1.91,1.91,1.52,1.47,0.82,0.82,0.81
324.35,-1.14,-1.97,-1.12,-1.95,1.95,1.53,1.48,0.81,0.83,0.83
327.59,-1.15,-2.00,-1.15,-2.00,2.00,1.55,1.49,0.85,0.85,0.85
330.87,-1.15,-2.01,-1.18,-2.04,2.04,1.56,1.51,0.89,0.86,0.85
334.18,-1.15,-2.02,-1.22,-2.09,2.09,1.58,1.52,0.94,0.87,0.87
337.52,-1.18,-2.06,-1.26,-2.14,2.14,1.59,1.53,0.96,0.88,0.88
340.90,-1.30,-2.20,-1.30,-2.18,2.18,1.61,1.55,0.88,0.89,0.90
344.30,-1.37,-2.27,-1.33,-2.23,2.23,1.63,1.57,0.86,0.90,0.90
347.75,-1.44,-2.34,-1.36,-2.26,2.26,1.64,1.58,0.82,0.90,0.90
351.23,-1.45,-2.36,-1.39,-2.29,2.29,1.66,1.60,0.84,0.91,0.91
354.74,-1.45,-2.36,-1.41,-2.31,2.31,1.68,1.62,0.86,0.91,0.90
358.28,-1.45,-2.36,-1.41,-2.32,2.32,1.69,1.65,0.87,0.91,0.91
361.87,-1.44,-2.35,-1.41,-2.33,2.33,1.71,1.67,0.89,0.91,0.91
365.49,-1.44,-2.36,-1.41,-2.32,2.32,1.73,1.69,0.88,0.91,0.92
369.14,-1.43,-2.34,-1.39,-2.30,2.30,1.75,1.72,0.87,0.91,0.91
372.83,-1.35,-2.25,-1.37,-2.28,2.28,1.76,1.75,0.93,0.91,0.90
376.56,-1.31,-2.21,-1.35,-2.25,2.25,1.78,1.77,0.94,0.91,0.90
380.33,-1.31,-2.22,-1.32,-2.22,2.22,1.80,1.80,0.91,0.90,0.91
384.13,-1.30,-2.21,-1.29,-2.19,2.19,1.82,1.83,0.89,0.90,0.91
387.97,-1.28,-2.18,-1.27,-2.17,2.17,1.84,1.86,0.89,0.89,0.90
391.85,-1.21,-2.10,-1.26,-2.15,2.15,1.86,1.89,0.94,0.89,0.88
395.77,-1.19,-2.08,-1.26,-2.14,2.14,1.87,1.93,0.95,0.88,0.89
399.73,-1.19,-2.07,-1.26,-2.14,2.14,1.89,1.96,0.95,0.88,0.88
403.72,-1.20,-2.08,-1.27,-2.14,2.14,1.91,1.99,0.94,0.87,0.88
407.76,-1.28,-2.15,-1.28,-2.15,2.15,1.93,2.03,0.87,0.87,0.87
411.84,-1.30,-2.17,-1.29,-2.16,2.16,1.95,2.06,0.86,0.86,0.87
415.96,-1.28,-2.15,-1.30,-2.17,2.17,1.97,2.10,0.89,0.86,0.87
420.12,-1.34,-2.21,-1.31,-2.17,2.17,1.99,2.13,0.83,0.86,0.86
424.32,-1.38,-2.24,-1.31,-2.18,2.18,2.00,2.17,0.80,0.87,0.86
428.56,-1.38,-2.25,-1.31,-2.19,2.19,2.02,2.20,0.81,0.88,0.87
432.85,-1.37,-2.25,-1.31,-2.21,2.21,2.04,2.24,0.84,0.89,0.88
437.18,-1.34,-2.23,-1.31,-2.22,2.22,2.06,2.27,0.88,0.92,0.89
441.55,-1.31,-2.24,-1.29,-2.23,2.23,2.08,2.30,0.92,0.94,0.93
445.96,-1.26,-2.22,-1.26,-2.23,2.23,2.09,2.33,0.97,0.97,0.96
450.42,-1.21,-2.20,-1.23,-2.23,2.23,2.11,2.36,1.02,1.01,0.99
454.93,-1.15,-2.19,-1.18,-2.23,2.23,2.13,2.39,1.08,1.05,1.04
459.48,-1.09,-2.18,-1.14,-2.23,2.23,2.15,2.42,1.14,1.09,1.08
464.07,-1.10,-2.23,-1.09,-2.23,2.23,2.16,2.44,1.13,1.14,1.13
468.71,-1.07,-2.26,-1.04,-2.23,2.23,2.18,2.47,1.15,1.19,1.19
473.40,-1.01,-2.24,-0.99,-2.23,2.23,2.20,2.49,1.22,1.23,1.23
478.13,-0.96,-2.25,-0.95,-2.24,2.24,2.21,2.51,1.28,1.28,1.29
482.91,-0.91,-2.24,-0.92,-2.25,2.25,2.23,2.52,1.33,1.33,1.33
487.74,-0.87,-2.24,-0.89,-2.26,2.26,2.24,2.54,1.38,1.37,1.37
492.62,-0.84,-2.26,-0.86,-2.27,2.27,2.26,2.55,1.42,1.40,1.42
497.55,-0.81,-2.25,-0.84,-2.28,2.28,2.27,2.55,1.47,1.44,1.44
502.52,-0.78,-2.25,-0.83,-2.28,2.28,2.29,2.56,1.50,1.46,1.47
