frequency,raw,error,smoothed,error_smoothed,equalization,parametric_eq,fixed_band_eq,equalized_raw,equalized_smoothed,target
20.00,-0.53,-2.10,-0.53,-2.10,2.11,0.63,0.47,1.58,1.58,1.57
20.20,-0.47,-2.09,-0.47,-2.09,2.09,0.63,0.48,1.62,1.62,1.62
20.40,-0.41,-2.08,-0.41,-2.08,2.07,0.63,0.50,1.66,1.67,1.67
20.61,-0.35,-2.05,-0.35,-2.06,2.05,0.62,0.51,1.70,1.70,1.70
20.81,-0.29,-2.04,-0.29,-2.04,2.03,0.62,0.53,1.74,1.74,1.75
21.02,-0.23,-2.02,-0.24,-2.02,2.01,0.62,0.55,1.78,1.78,1.79
21.23,-0.19,-2.00,-0.19,-2.00,2.00,0.62,0.56,1.80,1.81,1.81
21.44,-0.14,-1.97,-0.14,-1.97,1.98,0.61,0.58,1.84,1.84,1.83
21.66,-0.10,-1.95,-0.10,-1.95,1.96,0.61,0.60,1.86,1.86,1.85
21.87,-0.06,-1.92,-0.06,-1.93,1.94,0.61,0.62,1.88,1.88,1.86
22.09,-0.03,-1.91,-0.03,-1.91,1.92,0.60,0.64,1.89,1.89,1.88
22.31,-0.01,-1.90,-0.01,-1.90,1.90,0.60,0.66,1.89,1.89,1.89
22.54,-0.00,-1.89,0.00,-1.89,1.88,0.60,0.68,1.88,1.88,1.89
22.76,0.02,-1.87,0.02,-1.87,1.86,0.59,0.70,1.88,1.88,1.89
22.99,0.04,-1.84,0.04,-1.84,1.84,0.59,0.72,1.88,1.89,1.88
23.22,0.07,-1.81,0.07,-1.81,1.82,0.59,0.75,1.89,1.89,1.88
23.45,0.10,-1.78,0.10,-1.79,1.79,0.58,0.77,1.89,1.89,1.88
23.69,0.13,-1.76,0.13,-1.76,1.75,0.58,0.79,1.88,1.88,1.89
23.92,0.16,-1.73,0.17,-1.73,1.71,0.58,0.82,1.87,1.87,1.89
24.16,0.21,-1.68,0.21,-1.68,1.66,0.57,0.84,1.87,1.88,1.89
24.40,0.27,-1.63,0.27,-1.62,1.62,0.57,0.86,1.89,1.89,1.90
24.65,0.33,-1.56,0.33,-1.56,1.58,0.57,0.89,1.91,1.91,1.89
24.89,0.39,-1.50,0.38,-1.51,1.54,0.56,0.91,1.93,1.93,1.89
25.14,0.42,-1.47,0.42,-1.48,1.51,0.56,0.94,1.93,1.92,1.89
25.39,0.43,-1.47,0.43,-1.46,1.47,0.56,0.96,1.90,1.90,1.90
25.65,0.45,-1.45,0.44,-1.45,1.43,0.55,0.99,1.88,1.87,1.90
25.91,0.46,-1.43,0.47,-1.43,1.39,0.55,1.01,1.85,1.86,1.89
26.16,0.50,-1.39,0.51,-1.39,1.36,0.54,1.03,1.86,1.87,1.89
26.43,0.56,-1.33,0.56,-1.33,1.33,0.54,1.06,1.89,1.89,1.89
26.69,0.61,-1.28,0.61,-1.28,1.31,0.53,1.08,1.92,1.92,1.89
26.96,0.66,-1.23,0.65,-1.24,1.28,0.53,1.10,1.94,1.93,1.89
27.23,0.67,-1.22,0.67,-1.22,1.24,0.52,1.12,1.91,1.91,1.89
27.50,0.68,-1.21,0.68,-1.21,1.21,0.52,1.14,1.89,1.89,1.89
27.77,0.68,-1.20,0.68,-1.20,1.18,0.51,1.16,1.86,1.86,1.88
28.05,0.69,-1.19,0.70,-1.17,1.14,0.51,1.18,1.83,1.85,1.88
28.33,0.75,-1.12,0.74,-1.13,1.11,0.50,1.20,1.86,1.86,1.87
28.62,0.80,-1.07,0.80,-1.07,1.07,0.50,1.21,1.87,1.87,1.87
28.90,0.86,-1.02,0.85,-1.02,1.04,0.49,1.22,1.90,1.89,1.88
29.19,0.90,-0.97,0.90,-0.98,1.00,0.49,1.24,1.90,1.89,1.87
29.48,0.93,-0.95,0.94,-0.94,0.96,0.48,1.24,1.88,1.89,1.88
29.78,0.97,-0.90,0.97,-0.91,0.92,0.48,1.25,1.89,1.88,1.87
30.08,1.00,-0.88,1.00,-0.88,0.88,0.47,1.26,1.88,1.87,1.88
30.38,1.02,-0.85,1.02,-0.85,0.84,0.47,1.26,1.86,1.87,1.87
30.68,1.05,-0.82,1.05,-0.82,0.81,0.46,1.26,1.86,1.86,1.87
30.99,1.08,-0.79,1.08,-0.79,0.77,0.45,1.25,1.85,1.86,1.87
31.30,1.12,-0.74,1.12,-0.75,0.74,0.45,1.25,1.86,1.86,1.86
31.61,1.16,-0.70,1.16,-0.70,0.70,0.44,1.24,1.86,1.86,1.86
31.93,1.20,-0.66,1.20,-0.66,0.67,0.43,1.23,1.87,1.87,1.86
32.24,1.23,-0.62,1.23,-0.63,0.64,0.43,1.21,1.87,1.87,1.85
32.57,1.25,-0.60,1.25,-0.60,0.62,0.42,1.20,1.87,1.87,1.85
32.89,1.27,-0.58,1.27,-0.58,0.59,0.41,1.18,1.86,1.86,1.85
33.22,1.28,-0.56,1.27,-0.57,0.56,0.40,1.16,1.84,1.84,1.84
33.55,1.28,-0.56,1.28,-0.56,0.53,0.40,1.14,1.81,1.81,1.84
33.89,1.28,-0.55,1.29,-0.54,0.50,0.39,1.11,1.78,1.79,1.83
34.23,1.33,-0.50,1.33,-0.50,0.47,0.38,1.08,1.80,1.80,1.83
34.57,1.39,-0.43,1.39,-0.43,0.44,0.37,1.05,1.83,1.83,1.82
34.92,1.46,-0.36,1.44,-0.37,0.41,0.37,1.02,1.87,1.85,1.82
35.27,1.48,-0.33,1.47,-0.34,0.38,0.36,0.99,1.86,1.86,1.81
35.62,1.48,-0.33,1.48,-0.33,0.36,0.35,0.95,1.84,1.84,1.81
35.97,1.48,-0.33,1.48,-0.33,0.33,0.34,0.92,1.81,1.81,1.81
36.33,1.48,-0.33,1.47,-0.33,0.30,0.33,0.88,1.78,1.78,1.81
36.70,1.48,-0.32,1.48,-0.32,0.28,0.32,0.85,1.76,1.76,1.80
37.06,1.49,-0.31,1.51,-0.29,0.26,0.31,0.81,1.75,1.77,1.80
37.43,1.57,-0.24,1.57,-0.24,0.23,0.30,0.77,1.81,1.80,1.81
37.81,1.64,-0.17,1.63,-0.18,0.21,0.29,0.73,1.85,1.84,1.81
38.19,1.68,-0.12,1.67,-0.14,0.19,0.28,0.69,1.87,1.86,1.80
38.57,1.68,-0.13,1.68,-0.13,0.16,0.27,0.65,1.84,1.85,1.81
38.95,1.68,-0.14,1.68,-0.13,0.13,0.26,0.60,1.81,1.81,1.82
39.34,1.68,-0.13,1.67,-0.14,0.10,0.25,0.56,1.78,1.78,1.81
39.74,1.68,-0.13,1.69,-0.13,0.07,0.24,0.52,1.75,1.76,1.81
40.14,1.71,-0.10,1.73,-0.08,0.05,0.22,0.48,1.76,1.78,1.81
40.54,1.79,-0.02,1.79,-0.02,0.02,0.21,0.44,1.81,1.81,1.81
40.94,1.87,0.07,1.84,0.04,-0.01,0.20,0.40,1.86,1.84,1.80
41.35,1.88,0.08,1.88,0.08,-0.04,0.19,0.35,1.84,1.84,1.80
41.76,1.88,0.09,1.89,0.09,-0.07,0.17,0.31,1.81,1.82,1.79
42.18,1.88,0.09,1.88,0.09,-0.09,0.16,0.27,1.79,1.79,1.79
42.60,1.88,0.10,1.88,0.10,-0.10,0.14,0.23,1.78,1.78,1.78
43.03,1.88,0.11,1.88,0.11,-0.11,0.13,0.19,1.77,1.77,1.77
43.46,1.88,0.12,1.88,0.12,-0.13,0.12,0.14,1.75,1.75,1.76
43.90,1.88,0.14,1.87,0.13,-0.15,0.10,0.10,1.73,1.72,1.74
44.33,1.88,0.16,1.87,0.15,-0.18,0.08,0.06,1.70,1.69,1.72
44.78,1.88,0.18,1.89,0.19,-0.22,0.07,0.02,1.66,1.67,1.70
45.23,1.93,0.24,1.95,0.26,-0.27,0.05,-0.02,1.66,1.68,1.69
45.68,2.02,0.34,2.01,0.33,-0.31,0.04,-0.06,1.71,1.70,1.68
46.13,2.08,0.42,2.06,0.39,-0.35,0.02,-0.10,1.73,1.71,1.66
46.60,2.08,0.42,2.09,0.43,-0.39,-0.00,-0.14,1.69,1.69,1.66
47.06,2.08,0.44,2.09,0.44,-0.43,-0.02,-0.18,1.65,1.66,1.64
47.53,2.08,0.45,2.08,0.44,-0.45,-0.04,-0.23,1.63,1.63,1.63
48.01,2.08,0.45,2.08,0.46,-0.47,-0.06,-0.27,1.61,1.61,1.63
48.49,2.08,0.47,2.08,0.47,-0.48,-0.08,-0.31,1.60,1.60,1.61
48.97,2.08,0.49,2.08,0.49,-0.49,-0.10,-0.35,1.59,1.59,1.59
49.46,2.08,0.51,2.08,0.51,-0.51,-0.12,-0.39,1.57,1.57,1.57
49.96,2.08,0.53,2.07,0.52,-0.53,-0.14,-0.43,1.55,1.55,1.55
50.46,2.08,0.54,2.08,0.54,-0.55,-0.16,-0.47,1.53,1.52,1.54
50.96,2.08,0.55,2.10,0.57,-0.58,-0.19,-0.50,1.50,1.52,1.53
51.47,2.13,0.62,2.13,0.62,-0.61,-0.21,-0.54,1.52,1.52,1.51
51.99,2.18,0.68,2.16,0.66,-0.64,-0.24,-0.58,1.54,1.52,1.50
52.51,2.18,0.69,2.18,0.69,-0.67,-0.26,-0.62,1.51,1.51,1.49
53.03,2.18,0.69,2.18,0.69,-0.70,-0.29,-0.66,1.48,1.48,1.49
53.56,2.18,0.71,2.18,0.71,-0.73,-0.32,-0.70,1.45,1.45,1.47
54.10,2.19,0.73,2.20,0.74,-0.76,-0.35,-0.73,1.42,1.44,1.46
54.64,2.24,0.80,2.24,0.79,-0.79,-0.37,-0.77,1.44,1.44,1.44
55.18,2.28,0.84,2.26,0.83,-0.82,-0.40,-0.80,1.46,1.44,1.44
55.74,2.28,0.86,2.28,0.86,-0.84,-0.44,-0.84,1.44,1.44,1.42
56.29,2.28,0.87,2.28,0.87,-0.86,-0.47,-0.87,1.42,1.42,1.41
56.86,2.28,0.88,2.28,0.89,-0.87,-0.50,-0.91,1.41,1.41,1.40
57.42,2.28,0.91,2.28,0.90,-0.88,-0.54,-0.94,1.40,1.40,1.37
58.00,2.27,0.91,2.25,0.89,-0.88,-0.57,-0.97,1.39,1.37,1.36
58.58,2.22,0.87,2.22,0.87,-0.88,-0.61,-1.00,1.34,1.34,1.35
59.16,2.18,0.85,2.19,0.86,-0.89,-0.64,-1.03,1.29,1.31,1.33
59.76,2.18,0.87,2.18,0.87,-0.90,-0.68,-1.06,1.28,1.27,1.31
60.35,2.18,0.91,2.18,0.90,-0.92,-0.72,-1.08,1.25,1.25,1.27
60.96,2.18,0.95,2.18,0.95,-0.95,-0.77,-1.11,1.23,1.23,1.23
61.57,2.18,0.99,2.18,0.99,-0.98,-0.81,-1.13,1.19,1.19,1.19
62.18,2.18,1.03,2.18,1.03,-1.02,-0.85,-1.16,1.16,1.16,1.15
62.80,2.18,1.08,2.18,1.08,-1.06,-0.90,-1.18,1.12,1.12,1.10
63.43,2.18,1.12,2.17,1.11,-1.10,-0.94,-1.20,1.08,1.07,1.06
64.07,2.16,1.15,2.15,1.13,-1.14,-0.99,-1.22,1.02,1.01,1.01
64.71,2.11,1.14,2.12,1.15,-1.16,-1.04,-1.24,0.95,0.96,0.97
65.35,2.08,1.15,2.09,1.17,-1.18,-1.09,-1.25,0.90,0.91,0.93
66.01,2.08,1.20,2.07,1.19,-1.19,-1.14,-1.27,0.89,0.88,0.88
66.67,2.05,1.22,2.05,1.21,-1.18,-1.20,-1.29,0.87,0.87,0.83
67.33,2.00,1.22,2.00,1.22,-1.17,-1.25,-1.30,0.83,0.83,0.78
68.01,1.94,1.20,1.93,1.19,-1.15,-1.30,-1.32,0.79,0.77,0.74
68.69,1.84,1.15,1.84,1.15,-1.15,-1.36,-1.33,0.69,0.69,0.69
69.37,1.75,1.11,1.76,1.11,-1.15,-1.42,-1.34,0.60,0.61,0.64
70.07,1.68,1.09,1.70,1.10,-1.16,-1.48,-1.35,0.52,0.53,0.59
70.77,1.68,1.14,1.67,1.13,-1.19,-1.53,-1.37,0.49,0.48,0.54
71.48,1.68,1.19,1.68,1.19,-1.22,-1.59,-1.38,0.46,0.46,0.49
72.19,1.69,1.27,1.71,1.28,-1.26,-1.65,-1.39,0.43,0.44,0.42
72.91,1.74,1.38,1.74,1.37,-1.32,-1.71,-1.40,0.42,0.42,0.36
73.64,1.77,1.46,1.75,1.44,-1.39,-1.76,-1.41,0.38,0.36,0.31
74.38,1.75,1.50,1.74,1.49,-1.47,-1.82,-1.43,0.28,0.27,0.25
75.12,1.70,1.51,1.71,1.52,-1.55,-1.87,-1.44,0.15,0.16,0.19
75.87,1.68,1.55,1.70,1.57,-1.62,-1.93,-1.45,0.06,0.09,0.13
76.63,1.74,1.66,1.75,1.67,-1.69,-1.98,-1.47,0.05,0.06,0.08
77.40,1.82,1.79,1.81,1.78,-1.76,-2.02,-1.48,0.05,0.04,0.03
78.17,1.88,1.91,1.86,1.88,-1.85,-2.07,-1.50,0.03,0.01,-0.03
78.95,1.88,1.95,1.88,1.95,-1.94,-2.11,-1.51,-0.06,-0.06,-0.07
79.74,1.88,2.00,1.88,2.00,-2.04,-2.14,-1.53,-0.16,-0.16,-0.12
80.54,1.89,2.06,1.92,2.08,-2.13,-2.17,-1.55,-0.24,-0.21,-0.17
81.35,1.96,2.18,1.98,2.20,-2.21,-2.20,-1.57,-0.25,-0.22,-0.22
82.16,2.08,2.35,2.04,2.30,-2.27,-2.22,-1.59,-0.19,-0.23,-0.27
82.98,2.08,2.39,2.06,2.37,-2.31,-2.23,-1.61,-0.23,-0.25,-0.31
83.81,2.00,2.36,2.03,2.39,-2.35,-2.24,-1.63,-0.35,-0.31,-0.36
84.65,1.97,2.38,1.97,2.37,-2.37,-2.24,-1.65,-0.40,-0.40,-0.41
85.50,1.92,2.37,1.90,2.36,-2.39,-2.23,-1.68,-0.47,-0.48,-0.45
86.35,1.84,2.34,1.84,2.34,-2.38,-2.21,-1.71,-0.54,-0.54,-0.50
87.22,1.77,2.32,1.78,2.33,-2.37,-2.18,-1.73,-0.60,-0.59,-0.55
88.09,1.72,2.32,1.72,2.32,-2.35,-2.15,-1.76,-0.63,-0.62,-0.60
88.97,1.67,2.33,1.66,2.32,-2.31,-2.10,-1.79,-0.64,-0.65,-0.66
89.86,1.58,2.29,1.57,2.28,-2.27,-2.05,-1.82,-0.69,-0.69,-0.71
90.76,1.46,2.22,1.46,2.22,-2.20,-1.98,-1.86,-0.74,-0.75,-0.76
91.66,1.30,2.11,1.31,2.13,-2.10,-1.90,-1.89,-0.80,-0.79,-0.81
92.58,1.14,2.01,1.15,2.01,-1.97,-1.80,-1.93,-0.83,-0.82,-0.87
93.51,0.96,1.88,0.93,1.85,-1.80,-1.69,-1.96,-0.84,-0.87,-0.92
94.44,0.69,1.65,0.68,1.65,-1.61,-1.55,-2.00,-0.92,-0.93,-0.96
95.39,0.37,1.38,0.40,1.41,-1.39,-1.40,-2.04,-1.02,-1.00,-1.01
96.34,0.10,1.16,0.08,1.14,-1.16,-1.22,-2.08,-1.06,-1.08,-1.06
97.30,-0.21,0.90,-0.22,0.89,-0.92,-1.03,-2.12,-1.13,-1.13,-1.11
98.28,-0.52,0.64,-0.48,0.68,-0.67,-0.82,-2.16,-1.19,-1.15,-1.16
99.26,-0.72,0.48,-0.74,0.46,-0.44,-0.60,-2.21,-1.16,-1.18,-1.20
100.25,-0.95,0.30,-0.98,0.27,-0.24,-0.40,-2.25,-1.19,-1.23,-1.25
101.25,-1.22,0.08,-1.20,0.10,-0.09,-0.20,-2.30,-1.31,-1.29,-1.30
102.27,-1.41,-0.06,-1.40,-0.05,0.01,-0.08,-2.34,-1.40,-1.38,-1.35
103.29,-1.51,-0.11,-1.52,-0.13,0.05,0.02,-2.39,-1.46,-1.48,-1.40
104.32,-1.57,-0.13,-1.56,-0.12,0.02,-0.01,-2.44,-1.55,-1.54,-1.44
105.37,-1.52,-0.03,-1.51,-0.02,-0.06,-0.08,-2.48,-1.58,-1.57,-1.49
106.42,-1.38,0.16,-1.38,0.16,-0.20,-0.26,-2.53,-1.58,-1.58,-1.54
107.48,-1.19,0.41,-1.18,0.41,-0.39,-0.46,-2.58,-1.58,-1.57,-1.60
108.56,-0.95,0.70,-0.98,0.67,-0.61,-0.71,-2.63,-1.56,-1.59,-1.65
109.64,-0.77,0.93,-0.78,0.92,-0.85,-0.96,-2.67,-1.62,-1.64,-1.70
110.74,-0.63,1.13,-0.60,1.15,-1.10,-1.21,-2.72,-1.73,-1.71,-1.76
111.85,-0.43,1.37,-0.44,1.37,-1.35,-1.46,-2.76,-1.78,-1.79,-1.80
112.97,-0.26,1.60,-0.27,1.58,-1.59,-1.67,-2.81,-1.85,-1.86,-1.86
114.10,-0.11,1.80,-0.11,1.80,-1.82,-1.89,-2.85,-1.93,-1.92,-1.91
115.24,0.05,2.01,0.05,2.01,-2.03,-2.07,-2.89,-1.98,-1.98,-1.96
116.39,0.22,2.23,0.23,2.23,-2.24,-2.24,-2.93,-2.02,-2.02,-2.01
117.55,0.40,2.45,0.40,2.44,-2.44,-2.39,-2.97,-2.04,-2.05,-2.05
118.73,0.57,2.66,0.56,2.65,-2.64,-2.53,-3.01,-2.07,-2.08,-2.09
119.92,0.70,2.82,0.70,2.83,-2.82,-2.66,-3.04,-2.12,-2.11,-2.12
121.12,0.84,3.00,0.83,2.99,-2.98,-2.78,-3.07,-2.14,-2.15,-2.16
122.33,0.94,3.13,0.95,3.14,-3.13,-2.89,-3.10,-2.19,-2.17,-2.19
123.55,1.06,3.28,1.05,3.27,-3.26,-3.00,-3.13,-2.20,-2.21,-2.22
124.79,1.14,3.39,1.12,3.37,-3.36,-3.09,-3.15,-2.22,-2.24,-2.25
126.03,1.15,3.43,1.18,3.46,-3.45,-3.19,-3.18,-2.30,-2.27,-2.28
127.29,1.22,3.52,1.22,3.52,-3.53,-3.28,-3.20,-2.31,-2.31,-2.30
128.57,1.27,3.61,1.25,3.59,-3.59,-3.36,-3.21,-2.32,-2.34,-2.34
129.85,1.27,3.64,1.28,3.64,-3.64,-3.44,-3.23,-2.37,-2.36,-2.37
131.15,1.28,3.68,1.28,3.68,-3.68,-3.53,-3.24,-2.40,-2.40,-2.40
132.46,1.28,3.71,1.28,3.71,-3.71,-3.60,-3.25,-2.43,-2.43,-2.43
133.79,1.29,3.75,1.29,3.74,-3.75,-3.68,-3.27,-2.46,-2.46,-2.46
135.12,1.29,3.78,1.29,3.78,-3.78,-3.75,-3.27,-2.49,-2.48,-2.49
136.48,1.30,3.81,1.30,3.81,-3.81,-3.83,-3.28,-2.51,-2.52,-2.51
137.84,1.30,3.85,1.29,3.84,-3.85,-3.90,-3.29,-2.55,-2.56,-2.55
139.22,1.30,3.88,1.31,3.88,-3.90,-3.97,-3.29,-2.60,-2.59,-2.58
140.61,1.31,3.92,1.33,3.93,-3.95,-4.04,-3.30,-2.64,-2.62,-2.61
142.02,1.39,4.02,1.37,4.00,-4.01,-4.11,-3.30,-2.62,-2.64,-2.63
143.44,1.40,4.06,1.41,4.08,-4.07,-4.18,-3.31,-2.67,-2.66,-2.66
144.87,1.46,4.16,1.46,4.15,-4.14,-4.24,-3.31,-2.68,-2.68,-2.70
146.32,1.49,4.23,1.48,4.21,-4.21,-4.31,-3.32,-2.72,-2.73,-2.74
147.78,1.50,4.27,1.50,4.27,-4.28,-4.37,-3.32,-2.78,-2.78,-2.77
149.26,1.50,4.32,1.50,4.32,-4.34,-4.43,-3.33,-2.85,-2.84,-2.82
150.75,1.50,4.38,1.51,4.38,-4.40,-4.50,-3.33,-2.90,-2.90,-2.88
152.26,1.50,4.45,1.50,4.45,-4.44,-4.56,-3.34,-2.94,-2.94,-2.95
153.78,1.49,4.51,1.48,4.50,-4.47,-4.62,-3.35,-2.98,-2.99,-3.02
155.32,1.43,4.52,1.44,4.53,-4.47,-4.68,-3.37,-3.04,-3.03,-3.09
156.88,1.36,4.53,1.35,4.52,-4.46,-4.73,-3.38,-3.10,-3.11,-3.17
158.44,1.26,4.51,1.24,4.49,-4.45,-4.79,-3.40,-3.19,-3.21,-3.25
160.03,1.10,4.43,1.11,4.44,-4.44,-4.84,-3.41,-3.34,-3.32,-3.33
161.63,0.99,4.39,0.99,4.39,-4.44,-4.89,-3.43,-3.45,-3.45,-3.40
163.24,0.92,4.38,0.91,4.37,-4.47,-4.94,-3.45,-3.55,-3.56,-3.46
164.88,0.89,4.40,0.90,4.41,-4.52,-4.99,-3.48,-3.63,-3.62,-3.51
166.53,0.94,4.50,0.97,4.52,-4.58,-5.04,-3.51,-3.64,-3.62,-3.56
168.19,1.07,4.67,1.07,4.67,-4.67,-5.08,-3.54,-3.60,-3.60,-3.60
169.87,1.23,4.87,1.19,4.82,-4.76,-5.13,-3.57,-3.53,-3.58,-3.64
171.57,1.26,4.92,1.28,4.94,-4.86,-5.17,-3.61,-3.60,-3.58,-3.66
173.29,1.33,5.00,1.33,5.00,-4.94,-5.20,-3.64,-3.61,-3.61,-3.67
175.02,1.36,5.04,1.35,5.03,-5.01,-5.24,-3.68,-3.65,-3.66,-3.68
176.77,1.36,5.05,1.36,5.05,-5.05,-5.27,-3.73,-3.69,-3.69,-3.69
178.54,1.36,5.06,1.36,5.05,-5.07,-5.30,-3.78,-3.71,-3.70,-3.70
180.32,1.36,5.05,1.37,5.06,-5.07,-5.33,-3.82,-3.71,-3.70,-3.69
182.13,1.37,5.05,1.37,5.05,-5.06,-5.35,-3.88,-3.69,-3.69,-3.68
183.95,1.38,5.07,1.36,5.04,-5.05,-5.38,-3.93,-3.67,-3.69,-3.69
185.79,1.33,5.02,1.34,5.03,-5.04,-5.39,-3.99,-3.71,-3.70,-3.69
187.65,1.30,5.01,1.32,5.03,-5.03,-5.41,-4.05,-3.73,-3.71,-3.71
189.52,1.32,5.04,1.31,5.03,-5.03,-5.42,-4.11,-3.71,-3.72,-3.72
191.42,1.31,5.05,1.29,5.03,-5.03,-5.43,-4.18,-3.72,-3.74,-3.74
193.33,1.27,5.03,1.28,5.04,-5.04,-5.44,-4.25,-3.77,-3.76,-3.76
195.27,1.26,5.04,1.27,5.05,-5.05,-5.44,-4.32,-3.79,-3.78,-3.78
197.22,1.27,5.07,1.27,5.07,-5.08,-5.44,-4.39,-3.81,-3.81,-3.80
199.19,1.29,5.11,1.28,5.09,-5.11,-5.44,-4.46,-3.82,-3.83,-3.82
201.18,1.29,5.13,1.29,5.13,-5.14,-5.43,-4.54,-3.85,-3.85,-3.84
203.19,1.30,5.16,1.32,5.18,-5.18,-5.43,-4.62,-3.88,-3.86,-3.86
205.23,1.36,5.24,1.35,5.23,-5.22,-5.41,-4.70,-3.86,-3.86,-3.88
207.28,1.40,5.29,1.39,5.28,-5.25,-5.40,-4.77,-3.85,-3.87,-3.89
209.35,1.40,5.31,1.40,5.32,-5.29,-5.38,-4.85,-3.89,-3.89,-3.91
211.44,1.40,5.34,1.39,5.33,-5.33,-5.36,-4.93,-3.93,-3.93,-3.94
213.56,1.39,5.34,1.39,5.34,-5.37,-5.34,-5.01,-3.98,-3.97,-3.95
215.69,1.39,5.35,1.41,5.37,-5.40,-5.31,-5.09,-4.01,-3.99,-3.96
217.85,1.45,5.42,1.44,5.41,-5.42,-5.28,-5.16,-3.97,-3.99,-3.97
220.03,1.47,5.45,1.46,5.45,-5.44,-5.25,-5.23,-3.97,-3.98,-3.98
222.23,1.48,5.49,1.48,5.48,-5.45,-5.22,-5.30,-3.97,-3.97,-4.01
224.45,1.48,5.48,1.49,5.49,-5.46,-5.18,-5.37,-3.98,-3.97,-4.00
226.70,1.48,5.48,1.48,5.47,-5.46,-5.14,-5.43,-3.98,-3.98,-4.00
228.96,1.48,5.47,1.46,5.45,-5.45,-5.10,-5.49,-3.97,-3.99,-3.99
231.25,1.41,5.39,1.44,5.42,-5.44,-5.06,-5.54,-4.03,-4.00,-3.98
233.57,1.43,5.40,1.42,5.39,-5.41,-5.02,-5.59,-3.98,-3.99,-3.97
235.90,1.41,5.37,1.42,5.38,-5.38,-4.97,-5.63,-3.97,-3.96,-3.96
238.26,1.43,5.38,1.43,5.38,-5.35,-4.93,-5.66,-3.92,-3.92,-3.95
240.64,1.45,5.37,1.42,5.34,-5.32,-4.88,-5.69,-3.87,-3.90,-3.92
243.05,1.41,5.30,1.41,5.31,-5.30,-4.83,-5.71,-3.89,-3.89,-3.89
245.48,1.38,5.25,1.40,5.26,-5.29,-4.78,-5.71,-3.91,-3.89,-3.87
247.93,1.40,5.24,1.40,5.24,-5.28,-4.72,-5.72,-3.88,-3.88,-3.84
250.41,1.42,5.24,1.42,5.23,-5.26,-4.67,-5.71,-3.84,-3.85,-3.82
252.92,1.44,5.23,1.43,5.23,-5.24,-4.62,-5.70,-3.80,-3.81,-3.79
255.45,1.45,5.22,1.46,5.23,-5.21,-4.56,-5.67,-3.77,-3.76,-3.77
258.00,1.46,5.21,1.48,5.23,-5.19,-4.50,-5.64,-3.73,-3.71,-3.75
260.58,1.49,5.22,1.45,5.18,-5.14,-4.45,-5.60,-3.66,-3.69,-3.73
263.19,1.42,5.12,1.40,5.10,-5.09,-4.39,-5.55,-3.67,-3.69,-3.70
265.82,1.27,4.95,1.32,5.00,-5.01,-4.33,-5.50,-3.74,-3.68,-3.68
268.48,1.25,4.91,1.25,4.91,-4.91,-4.28,-5.44,-3.66,-3.66,-3.66
271.16,1.20,4.83,1.18,4.81,-4.80,-4.22,-5.37,-3.60,-3.62,-3.63
273.87,1.12,4.73,1.08,4.69,-4.68,-4.16,-5.29,-3.56,-3.60,-3.61
276.61,0.94,4.52,0.96,4.53,-4.55,-4.10,-5.21,-3.61,-3.59,-3.58
279.38,0.79,4.34,0.84,4.39,-4.40,-4.04,-5.13,-3.61,-3.57,-3.55
282.17,0.75,4.28,0.73,4.26,-4.25,-3.98,-5.04,-3.50,-3.52,-3.53
284.99,0.66,4.15,0.64,4.13,-4.10,-3.93,-4.95,-3.44,-3.46,-3.49
287.84,0.53,4.00,0.51,3.98,-3.95,-3.87,-4.86,-3.42,-3.44,-3.47
290.72,0.35,3.79,0.36,3.80,-3.81,-3.81,-4.76,-3.46,-3.45,-3.44
293.63,0.21,3.62,0.22,3.63,-3.68,-3.75,-4.66,-3.47,-3.45,-3.41
296.57,0.12,3.50,0.12,3.50,-3.55,-3.70,-4.56,-3.44,-3.44,-3.38
299.53,0.05,3.40,0.05,3.40,-3.44,-3.64,-4.46,-3.39,-3.39,-3.35
302.53,-0.00,3.33,0.01,3.33,-3.32,-3.58,-4.36,-3.32,-3.32,-3.33
305.55,-0.04,3.25,-0.04,3.25,-3.21,-3.53,-4.26,-3.25,-3.26,-3.29
308.61,-0.09,3.18,-0.12,3.15,-3.11,-3.47,-4.16,-3.20,-3.22,-3.27
311.69,-0.21,3.03,-0.21,3.03,-3.00,-3.42,-4.05,-3.21,-3.21,-3.24
314.81,-0.34,2.88,-0.31,2.91,-2.89,-3.36,-3.95,-3.23,-3.21,-3.22
317.96,-0.42,2.78,-0.42,2.78,-2.78,-3.31,-3.86,-3.20,-3.20,-3.20
321.14,-0.50,2.69,-0.52,2.66,-2.66,-3.26,-3.76,-3.16,-3.19,-3.19
324.35,-0.63,2.54,-0.63,2.55,-2.55,-3.20,-3.66,-3.19,-3.18,-3.17
327.59,-0.74,2.42,-0.73,2.43,-2.46,-3.15,-3.57,-3.20,-3.19,-3.16
330.87,-0.81,2.34,-0.81,2.34,-2.37,-3.10,-3.47,-3.18,-3.18,-3.15
334.18,-0.87,2.26,-0.86,2.28,-2.30,-3.05,-3.38,-3.17,-3.15,-3.13
337.52,-0.87,2.25,-0.89,2.23,-2.23,-3.00,-3.29,-3.10,-3.12,-3.12
340.90,-0.93,2.18,-0.93,2.18,-2.16,-2.95,-3.21,-3.09,-3.09,-3.11
344.30,-0.97,2.13,-0.97,2.13,-2.10,-2.90,-3.12,-3.07,-3.07,-3.10
347.75,-1.02,2.08,-1.02,2.07,-2.04,-2.86,-3.04,-3.06,-3.06,-3.10
351.23,-1.08,2.01,-1.09,2.01,-1.98,-2.81,-2.96,-3.06,-3.07,-3.09
354.74,-1.16,1.94,-1.16,1.93,-1.92,-2.76,-2.88,-3.08,-3.08,-3.10
358.28,-1.24,1.85,-1.23,1.86,-1.87,-2.72,-2.81,-3.11,-3.10,-3.09
361.87,-1.29,1.80,-1.30,1.79,-1.82,-2.68,-2.73,-3.11,-3.12,-3.09
365.49,-1.33,1.75,-1.32,1.76,-1.79,-2.63,-2.66,-3.12,-3.12,-3.08
369.14,-1.34,1.75,-1.33,1.76,-1.78,-2.59,-2.59,-3.12,-3.10,-3.09
372.83,-1.30,1.79,-1.33,1.76,-1.78,-2.55,-2.52,-3.08,-3.11,-3.09
376.56,-1.31,1.79,-1.31,1.78,-1.79,-2.51,-2.46,-3.10,-3.10,-3.10
380.33,-1.31,1.78,-1.28,1.82,-1.81,-2.47,-2.39,-3.12,-3.09,-3.09
384.13,-1.22,1.87,-1.24,1.85,-1.84,-2.43,-2.33,-3.06,-3.08,-3.09
387.97,-1.20,1.90,-1.21,1.88,-1.86,-2.39,-2.27,-3.06,-3.07,-3.10
391.85,-1.20,1.91,-1.19,1.91,-1.88,-2.35,-2.22,-3.08,-3.08,-3.11
395.77,-1.20,1.90,-1.20,1.91,-1.90,-2.32,-2.16,-3.10,-3.10,-3.10
399.73,-1.20,1.91,-1.20,1.91,-1.92,-2.28,-2.11,-3.12,-3.12,-3.11
403.72,-1.20,1.91,-1.20,1.91,-1.93,-2.25,-2.06,-3.13,-3.13,-3.11
407.76,-1.20,1.93,-1.20,1.92,-1.94,-2.21,-2.01,-3.14,-3.14,-3.13
411.84,-1.20,1.93,-1.20,1.92,-1.94,-2.18,-1.96,-3.14,-3.15,-3.13
415.96,-1.21,1.92,-1.20,1.93,-1.93,-2.15,-1.91,-3.14,-3.13,-3.13
420.12,-1.20,1.93,-1.20,1.93,-1.90,-2.12,-1.87,-3.10,-3.10,-3.13
424.32,-1.20,1.93,-1.21,1.92,-1.87,-2.08,-1.83,-3.07,-3.07,-3.13
428.56,-1.23,1.89,-1.25,1.88,-1.82,-2.05,-1.78,-3.06,-3.07,-3.12
432.85,-1.31,1.80,-1.32,1.79,-1.78,-2.03,-1.75,-3.09,-3.10,-3.11
437.18,-1.42,1.68,-1.40,1.69,-1.72,-2.00,-1.71,-3.14,-3.13,-3.10
441.55,-1.47,1.59,-1.46,1.61,-1.67,-1.97,-1.67,-3.14,-3.12,-3.06
445.96,-1.47,1.56,-1.46,1.57,-1.61,-1.94,-1.64,-3.08,-3.07,-3.03
450.42,-1.42,1.58,-1.43,1.56,-1.56,-1.92,-1.61,-2.98,-2.99,-3.00
454.93,-1.40,1.55,-1.41,1.54,-1.51,-1.89,-1.58,-2.91,-2.92,-2.95
459.48,-1.39,1.52,-1.40,1.50,-1.48,-1.87,-1.55,-2.87,-2.89,-2.91
464.07,-1.41,1.45,-1.39,1.46,-1.47,-1.84,-1.52,-2.88,-2.86,-2.86
468.71,-1.38,1.42,-1.37,1.43,-1.46,-1.82,-1.50,-2.84,-2.83,-2.80
473.40,-1.32,1.44,-1.33,1.42,-1.45,-1.80,-1.47,-2.77,-2.78,-2.76
478.13,-1.27,1.43,-1.27,1.44,-1.44,-1.78,-1.45,-2.71,-2.71,-2.70
482.91,-1.21,1.45,-1.22,1.44,-1.42,-1.76,-1.43,-2.63,-2.64,-2.66
487.74,-1.18,1.44,-1.17,1.44,-1.40,-1.74,-1.41,-2.58,-2.57,-2.62
492.62,-1.15,1.42,-1.15,1.42,-1.38,-1.72,-1.39,-2.53,-2.53,-2.57
