frequency,raw,error,smoothed,error_smoothed,equalization,parametric_eq,fixed_band_eq,equalized_raw,equalized_smoothed,target
20.00,-6.85,-9.16,-6.86,-9.17,9.18,8.65,3.45,2.33,2.32,2.30
20.20,-6.83,-9.17,-6.82,-9.16,9.16,8.63,3.54,2.32,2.33,2.33
20.40,-6.78,-9.15,-6.77,-9.14,9.13,8.60,3.64,2.34,2.35,2.36
20.61,-6.72,-9.10,-6.72,-9.11,9.09,8.58,3.74,2.38,2.38,2.38
20.81,-6.64,-9.06,-6.65,-9.06,9.06,8.56,3.84,2.41,2.41,2.41
21.02,-6.58,-9.03,-6.58,-9.02,9.02,8.54,3.95,2.43,2.43,2.44
21.23,-6.51,-8.97,-6.52,-8.98,8.97,8.51,4.06,2.46,2.45,2.45
21.44,-6.47,-8.94,-6.46,-8.93,8.93,8.49,4.17,2.45,2.47,2.46
21.66,-6.39,-8.87,-6.40,-8.87,8.87,8.46,4.29,2.48,2.47,2.47
21.87,-6.34,-8.82,-6.34,-8.82,8.82,8.44,4.41,2.48,2.48,2.47
22.09,-6.28,-8.77,-6.28,-8.76,8.76,8.41,4.53,2.48,2.48,2.48
22.31,-6.21,-8.70,-6.22,-8.70,8.70,8.39,4.66,2.49,2.48,2.48
22.54,-6.16,-8.65,-6.16,-8.64,8.64,8.36,4.79,2.47,2.48,2.48
22.76,-6.09,-8.58,-6.10,-8.58,8.58,8.33,4.92,2.48,2.48,2.48
22.99,-6.03,-8.51,-6.04,-8.51,8.51,8.31,5.06,2.48,2.48,2.47
23.22,-5.97,-8.45,-5.97,-8.45,8.45,8.28,5.20,2.48,2.48,2.47
23.45,-5.91,-8.39,-5.91,-8.38,8.39,8.25,5.34,2.47,2.47,2.47
23.69,-5.85,-8.33,-5.85,-8.32,8.32,8.22,5.48,2.47,2.47,2.47
23.92,-5.78,-8.26,-5.79,-8.26,8.26,8.19,5.63,2.48,2.47,2.47
24.16,-5.73,-8.21,-5.73,-8.20,8.20,8.16,5.78,2.47,2.47,2.47
24.40,-5.66,-8.14,-5.67,-8.14,8.14,8.13,5.94,2.47,2.47,2.47
24.65,-5.60,-8.07,-5.61,-8.07,8.08,8.10,6.10,2.47,2.47,2.46
24.89,-5.55,-8.02,-5.55,-8.01,8.01,8.07,6.25,2.46,2.47,2.46
25.14,-5.49,-7.96,-5.49,-7.96,7.95,8.04,6.42,2.46,2.46,2.46
25.39,-5.43,-7.90,-5.44,-7.90,7.89,8.01,6.58,2.46,2.46,2.46
25.65,-5.38,-7.85,-5.38,-7.84,7.84,7.98,6.75,2.45,2.46,2.46
25.91,-5.32,-7.77,-5.32,-7.78,7.78,7.94,6.91,2.47,2.46,2.45
26.16,-5.26,-7.72,-5.27,-7.72,7.73,7.91,7.08,2.46,2.46,2.45
26.43,-5.21,-7.67,-5.22,-7.67,7.67,7.88,7.24,2.46,2.45,2.45
26.69,-5.17,-7.63,-5.17,-7.62,7.62,7.84,7.41,2.44,2.45,2.45
26.96,-5.12,-7.58,-5.12,-7.57,7.56,7.81,7.57,2.44,2.44,2.45
27.23,-5.06,-7.51,-5.07,-7.51,7.51,7.77,7.73,2.44,2.44,2.44
27.50,-5.00,-7.45,-5.01,-7.46,7.46,7.74,7.89,2.45,2.44,2.44
27.77,-4.97,-7.41,-4.97,-7.40,7.41,7.70,8.04,2.43,2.44,2.43
28.05,-4.92,-7.36,-4.92,-7.35,7.35,7.66,8.19,2.43,2.43,2.43
28.33,-4.87,-7.30,-4.88,-7.30,7.30,7.62,8.33,2.43,2.43,2.42
28.62,-4.82,-7.25,-4.83,-7.25,7.25,7.59,8.47,2.43,2.42,2.42
28.90,-4.78,-7.21,-4.78,-7.20,7.20,7.55,8.59,2.42,2.42,2.42
29.19,-4.74,-7.16,-4.74,-7.16,7.15,7.51,8.70,2.41,2.41,2.41
29.48,-4.69,-7.11,-4.70,-7.11,7.11,7.47,8.80,2.41,2.41,2.41
29.78,-4.65,-7.06,-4.65,-7.06,7.06,7.43,8.89,2.41,2.41,2.40
30.08,-4.61,-7.02,-4.61,-7.01,7.02,7.39,8.97,2.40,2.40,2.40
30.38,-4.57,-6.97,-4.58,-6.97,6.97,7.35,9.03,2.40,2.40,2.39
30.68,-4.54,-6.94,-4.54,-6.93,6.93,7.30,9.08,2.39,2.39,2.39
30.99,-4.51,-6.90,-4.51,-6.90,6.89,7.26,9.11,2.38,2.38,2.38
31.30,-4.48,-6.86,-4.48,-6.86,6.86,7.22,9.12,2.37,2.37,2.37
31.61,-4.45,-6.83,-4.45,-6.82,6.82,7.17,9.12,2.37,2.37,2.37
31.93,-4.42,-6.79,-4.43,-6.79,6.79,7.13,9.10,2.37,2.36,2.36
32.24,-4.41,-6.77,-4.41,-6.77,6.77,7.09,9.07,2.35,2.36,2.35
32.57,-4.39,-6.75,-4.39,-6.74,6.75,7.04,9.02,2.35,2.36,2.35
32.89,-4.37,-6.72,-4.38,-6.72,6.73,6.99,8.97,2.35,2.35,2.34
33.22,-4.37,-6.71,-4.37,-6.71,6.71,6.95,8.89,2.34,2.34,2.33
33.55,-4.37,-6.71,-4.37,-6.70,6.70,6.90,8.80,2.33,2.33,2.33
33.89,-4.37,-6.70,-4.37,-6.70,6.69,6.85,8.70,2.31,2.31,2.32
34.23,-4.37,-6.69,-4.37,-6.69,6.68,6.81,8.60,2.30,2.30,2.31
34.57,-4.37,-6.68,-4.37,-6.68,6.67,6.76,8.48,2.30,2.30,2.30
34.92,-4.37,-6.67,-4.37,-6.66,6.67,6.71,8.36,2.29,2.30,2.29
35.27,-4.37,-6.66,-4.37,-6.66,6.67,6.66,8.23,2.29,2.30,2.28
35.62,-4.37,-6.65,-4.38,-6.65,6.67,6.61,8.10,2.30,2.29,2.27
35.97,-4.39,-6.66,-4.39,-6.65,6.68,6.56,7.96,2.28,2.29,2.26
36.33,-4.41,-6.67,-4.41,-6.66,6.68,6.51,7.82,2.26,2.27,2.25
36.70,-4.41,-6.66,-4.43,-6.68,6.67,6.45,7.67,2.26,2.24,2.24
37.06,-4.45,-6.69,-4.44,-6.68,6.65,6.40,7.53,2.20,2.21,2.23
37.43,-4.45,-6.68,-4.44,-6.66,6.63,6.35,7.39,2.17,2.19,2.22
37.81,-4.39,-6.61,-4.40,-6.62,6.58,6.29,7.24,2.19,2.18,2.21
38.19,-4.34,-6.55,-4.34,-6.54,6.53,6.24,7.10,2.18,2.19,2.20
38.57,-4.26,-6.46,-4.27,-6.46,6.46,6.19,6.96,2.20,2.20,2.19
38.95,-4.18,-6.37,-4.19,-6.37,6.39,6.13,6.82,2.20,2.20,2.18
39.34,-4.12,-6.29,-4.12,-6.28,6.31,6.08,6.68,2.18,2.19,2.16
39.74,-4.04,-6.20,-4.05,-6.20,6.22,6.02,6.55,2.18,2.17,2.15
40.14,-3.98,-6.13,-3.99,-6.13,6.14,5.97,6.42,2.15,2.15,2.14
40.54,-3.92,-6.06,-3.92,-6.06,6.05,5.91,6.29,2.13,2.13,2.13
40.94,-3.86,-5.99,-3.86,-5.98,5.97,5.85,6.17,2.10,2.11,2.12
41.35,-3.78,-5.90,-3.79,-5.90,5.88,5.80,6.04,2.10,2.10,2.11
41.76,-3.70,-5.81,-3.70,-5.80,5.80,5.74,5.93,2.09,2.09,2.10
42.18,-3.62,-5.72,-3.62,-5.71,5.71,5.68,5.81,2.09,2.09,2.09
42.60,-3.52,-5.61,-3.53,-5.62,5.63,5.62,5.70,2.10,2.09,2.08
43.03,-3.46,-5.54,-3.46,-5.53,5.54,5.56,5.60,2.08,2.08,2.07
43.46,-3.39,-5.45,-3.40,-5.45,5.46,5.50,5.50,2.07,2.06,2.05
43.90,-3.35,-5.39,-3.35,-5.38,5.39,5.45,5.40,2.03,2.04,2.03
44.33,-3.30,-5.32,-3.31,-5.32,5.32,5.39,5.31,2.01,2.01,2.01
44.78,-3.26,-5.26,-3.26,-5.26,5.25,5.33,5.22,1.99,1.99,1.99
45.23,-3.22,-5.20,-3.22,-5.19,5.19,5.27,5.13,1.97,1.97,1.97
45.68,-3.17,-5.14,-3.18,-5.14,5.13,5.21,5.05,1.96,1.96,1.96
46.13,-3.13,-5.08,-3.14,-5.08,5.08,5.15,4.97,1.95,1.95,1.94
46.60,-3.09,-5.03,-3.10,-5.03,5.04,5.09,4.90,1.94,1.94,1.93
47.06,-3.07,-4.99,-3.06,-4.98,4.99,5.03,4.83,1.92,1.93,1.91
47.53,-3.03,-4.93,-3.04,-4.94,4.95,4.97,4.76,1.91,1.90,1.89
48.01,-3.02,-4.91,-3.03,-4.91,4.90,4.91,4.70,1.88,1.87,1.88
48.49,-3.02,-4.88,-3.02,-4.87,4.86,4.85,4.64,1.83,1.84,1.85
48.97,-3.00,-4.83,-3.00,-4.83,4.81,4.79,4.58,1.80,1.81,1.82
49.46,-2.97,-4.77,-2.98,-4.77,4.76,4.73,4.53,1.78,1.78,1.79
49.96,-2.94,-4.71,-2.94,-4.70,4.71,4.67,4.47,1.76,1.77,1.76
50.46,-2.89,-4.64,-2.90,-4.64,4.65,4.61,4.43,1.75,1.75,1.74
50.96,-2.86,-4.59,-2.86,-4.58,4.59,4.55,4.38,1.73,1.73,1.72
51.47,-2.83,-4.53,-2.83,-4.53,4.53,4.49,4.34,1.70,1.70,1.69
51.99,-2.79,-4.47,-2.80,-4.47,4.47,4.43,4.29,1.68,1.67,1.67
52.51,-2.76,-4.42,-2.76,-4.41,4.41,4.37,4.25,1.65,1.66,1.65
53.03,-2.72,-4.36,-2.73,-4.36,4.36,4.31,4.22,1.64,1.63,1.63
53.56,-2.69,-4.30,-2.70,-4.30,4.31,4.26,4.18,1.61,1.61,1.60
54.10,-2.68,-4.27,-2.67,-4.25,4.25,4.20,4.14,1.57,1.58,1.58
54.64,-2.63,-4.19,-2.65,-4.20,4.20,4.14,4.11,1.56,1.55,1.55
55.18,-2.62,-4.16,-2.62,-4.15,4.14,4.08,4.08,1.52,1.52,1.53
55.74,-2.59,-4.10,-2.59,-4.09,4.09,4.03,4.04,1.50,1.51,1.50
56.29,-2.55,-4.04,-2.56,-4.04,4.04,3.97,4.01,1.49,1.48,1.48
56.86,-2.51,-3.98,-2.52,-3.98,3.99,3.92,3.98,1.47,1.47,1.46
57.42,-2.50,-3.94,-2.49,-3.93,3.94,3.86,3.95,1.43,1.44,1.43
58.00,-2.46,-3.88,-2.47,-3.88,3.89,3.81,3.91,1.42,1.42,1.41
58.58,-2.44,-3.84,-2.44,-3.83,3.83,3.75,3.88,1.39,1.39,1.39
59.16,-2.41,-3.79,-2.41,-3.78,3.78,3.70,3.84,1.37,1.37,1.37
59.76,-2.37,-3.73,-2.38,-3.73,3.72,3.65,3.81,1.35,1.34,1.35
60.35,-2.35,-3.68,-2.35,-3.67,3.67,3.59,3.77,1.31,1.32,1.32
60.96,-2.32,-3.62,-2.32,-3.61,3.61,3.54,3.73,1.28,1.29,1.29
61.57,-2.29,-3.55,-2.29,-3.55,3.55,3.49,3.69,1.26,1.26,1.25
62.18,-2.26,-3.49,-2.26,-3.49,3.49,3.44,3.65,1.23,1.23,1.22
62.80,-2.23,-3.43,-2.23,-3.43,3.44,3.39,3.60,1.20,1.20,1.19
63.43,-2.20,-3.37,-2.21,-3.37,3.38,3.34,3.56,1.18,1.17,1.16
64.07,-2.19,-3.33,-2.19,-3.33,3.33,3.29,3.51,1.13,1.14,1.13
64.71,-2.16,-3.28,-2.17,-3.28,3.27,3.24,3.46,1.11,1.10,1.11
65.35,-2.16,-3.25,-2.15,-3.23,3.22,3.19,3.41,1.06,1.07,1.08
66.01,-2.11,-3.17,-2.13,-3.18,3.18,3.15,3.36,1.06,1.05,1.05
66.67,-2.11,-3.14,-2.10,-3.13,3.13,3.10,3.30,1.02,1.03,1.02
67.33,-2.07,-3.07,-2.09,-3.08,3.09,3.05,3.25,1.01,1.00,0.99
68.01,-2.07,-3.04,-2.07,-3.04,3.04,3.01,3.19,0.97,0.97,0.96
68.69,-2.07,-3.01,-2.06,-2.99,2.99,2.96,3.13,0.92,0.94,0.93
69.37,-2.03,-2.94,-2.05,-2.95,2.95,2.92,3.07,0.91,0.90,0.90
70.07,-2.03,-2.91,-2.03,-2.91,2.90,2.87,3.01,0.87,0.87,0.87
70.77,-2.03,-2.88,-2.01,-2.86,2.86,2.83,2.95,0.82,0.84,0.84
71.48,-1.98,-2.80,-2.00,-2.81,2.81,2.79,2.89,0.83,0.81,0.81
72.19,-1.98,-2.76,-1.99,-2.77,2.77,2.74,2.83,0.78,0.78,0.77
72.91,-1.98,-2.73,-1.98,-2.72,2.72,2.70,2.77,0.74,0.74,0.74
73.64,-1.98,-2.69,-1.97,-2.68,2.67,2.66,2.70,0.69,0.70,0.70
74.38,-1.94,-2.62,-1.96,-2.63,2.63,2.62,2.64,0.69,0.67,0.67
75.12,-1.94,-2.58,-1.95,-2.58,2.59,2.57,2.58,0.64,0.64,0.63
75.87,-1.94,-2.55,-1.94,-2.54,2.54,2.53,2.52,0.60,0.61,0.60
76.63,-1.94,-2.52,-1.93,-2.50,2.50,2.49,2.46,0.56,0.57,0.57
77.40,-1.91,-2.46,-1.92,-2.46,2.46,2.45,2.40,0.55,0.54,0.54
78.17,-1.90,-2.41,-1.91,-2.42,2.42,2.41,2.34,0.51,0.51,0.50
78.95,-1.90,-2.38,-1.91,-2.38,2.38,2.37,2.28,0.47,0.47,0.47
79.74,-1.90,-2.35,-1.90,-2.34,2.33,2.33,2.23,0.43,0.43,0.44
80.54,-1.90,-2.31,-1.89,-2.29,2.29,2.29,2.17,0.39,0.40,0.40
81.35,-1.85,-2.23,-1.87,-2.24,2.24,2.25,2.11,0.39,0.37,0.37
82.16,-1.85,-2.19,-1.86,-2.19,2.20,2.21,2.06,0.34,0.34,0.33
82.98,-1.85,-2.16,-1.85,-2.15,2.15,2.17,2.01,0.30,0.30,0.30
83.81,-1.85,-2.12,-1.85,-2.11,2.11,2.12,1.96,0.25,0.26,0.26
84.65,-1.84,-2.07,-1.84,-2.06,2.06,2.08,1.90,0.22,0.22,0.22
85.50,-1.81,-2.01,-1.82,-2.01,2.02,2.04,1.86,0.20,0.19,0.19
86.35,-1.81,-1.97,-1.81,-1.97,1.97,2.00,1.81,0.16,0.16,0.15
87.22,-1.81,-1.93,-1.81,-1.92,1.93,1.96,1.76,0.12,0.12,0.11
88.09,-1.81,-1.89,-1.81,-1.89,1.89,1.92,1.71,0.07,0.07,0.07
88.97,-1.81,-1.85,-1.81,-1.85,1.84,1.88,1.67,0.03,0.03,0.03
89.86,-1.81,-1.81,-1.81,-1.80,1.80,1.84,1.63,-0.01,-0.01,-0.01
90.76,-1.81,-1.76,-1.81,-1.76,1.76,1.79,1.59,-0.06,-0.06,-0.06
91.66,-1.81,-1.72,-1.81,-1.71,1.71,1.75,1.54,-0.10,-0.10,-0.10
92.58,-1.81,-1.67,-1.81,-1.67,1.67,1.71,1.50,-0.14,-0.14,-0.15
93.51,-1.81,-1.63,-1.81,-1.63,1.63,1.67,1.47,-0.19,-0.19,-0.19
94.44,-1.81,-1.59,-1.81,-1.58,1.59,1.62,1.43,-0.23,-0.22,-0.23
95.39,-1.81,-1.54,-1.82,-1.54,1.55,1.58,1.39,-0.27,-0.27,-0.28
96.34,-1.81,-1.49,-1.83,-1.50,1.50,1.54,1.36,-0.31,-0.32,-0.33
97.30,-1.85,-1.48,-1.84,-1.46,1.46,1.50,1.32,-0.39,-0.38,-0.38
98.28,-1.85,-1.43,-1.85,-1.43,1.42,1.45,1.29,-0.43,-0.43,-0.43
99.26,-1.85,-1.39,-1.86,-1.39,1.38,1.41,1.26,-0.48,-0.48,-0.47
100.25,-1.85,-1.34,-1.85,-1.34,1.33,1.36,1.22,-0.52,-0.52,-0.52
101.25,-1.85,-1.29,-1.85,-1.29,1.29,1.32,1.19,-0.57,-0.57,-0.57
102.27,-1.85,-1.24,-1.85,-1.24,1.24,1.28,1.16,-0.61,-0.61,-0.62
103.29,-1.85,-1.19,-1.85,-1.19,1.19,1.23,1.13,-0.66,-0.66,-0.67
104.32,-1.85,-1.15,-1.85,-1.14,1.14,1.19,1.10,-0.71,-0.71,-0.71
105.37,-1.85,-1.10,-1.85,-1.10,1.10,1.14,1.07,-0.76,-0.76,-0.76
106.42,-1.85,-1.05,-1.85,-1.05,1.05,1.10,1.05,-0.81,-0.81,-0.81
107.48,-1.85,-1.00,-1.85,-1.00,1.00,1.05,1.02,-0.86,-0.86,-0.86
108.56,-1.85,-0.95,-1.85,-0.95,0.95,1.01,0.99,-0.91,-0.91,-0.91
109.64,-1.85,-0.90,-1.85,-0.90,0.90,0.97,0.96,-0.96,-0.96,-0.96
110.74,-1.85,-0.85,-1.85,-0.85,0.84,0.92,0.94,-1.01,-1.01,-1.01
111.85,-1.85,-0.80,-1.85,-0.79,0.79,0.88,0.91,-1.06,-1.06,-1.06
112.97,-1.85,-0.74,-1.85,-0.74,0.74,0.83,0.88,-1.12,-1.12,-1.12
114.10,-1.85,-0.69,-1.85,-0.69,0.68,0.79,0.85,-1.17,-1.17,-1.17
115.24,-1.85,-0.63,-1.85,-0.63,0.63,0.74,0.83,-1.22,-1.22,-1.23
116.39,-1.85,-0.58,-1.85,-0.57,0.58,0.70,0.80,-1.27,-1.27,-1.28
117.55,-1.85,-0.52,-1.86,-0.53,0.53,0.66,0.77,-1.32,-1.33,-1.34
118.73,-1.87,-0.49,-1.87,-0.48,0.49,0.61,0.74,-1.39,-1.38,-1.39
119.92,-1.88,-0.45,-1.88,-0.44,0.44,0.57,0.71,-1.44,-1.44,-1.44
121.12,-1.88,-0.40,-1.89,-0.40,0.40,0.52,0.69,-1.48,-1.49,-1.49
122.33,-1.90,-0.37,-1.90,-0.36,0.35,0.48,0.66,-1.55,-1.54,-1.54
123.55,-1.90,-0.32,-1.90,-0.32,0.31,0.44,0.63,-1.60,-1.59,-1.59
124.79,-1.90,-0.27,-1.91,-0.27,0.26,0.40,0.60,-1.64,-1.64,-1.64
126.03,-1.90,-0.22,-1.90,-0.22,0.21,0.35,0.56,-1.69,-1.69,-1.69
127.29,-1.90,-0.17,-1.90,-0.16,0.16,0.31,0.53,-1.74,-1.74,-1.74
128.57,-1.90,-0.11,-1.90,-0.11,0.12,0.27,0.50,-1.79,-1.78,-1.80
129.85,-1.90,-0.06,-1.91,-0.06,0.07,0.23,0.47,-1.83,-1.84,-1.85
131.15,-1.91,-0.02,-1.92,-0.02,0.03,0.19,0.43,-1.89,-1.89,-1.90
132.46,-1.94,0.00,-1.93,0.01,-0.02,0.15,0.40,-1.96,-1.95,-1.95
133.79,-1.94,0.04,-1.94,0.05,-0.05,0.11,0.36,-2.00,-1.99,-1.99
135.12,-1.94,0.09,-1.95,0.09,-0.09,0.07,0.33,-2.03,-2.04,-2.04
136.48,-1.94,0.13,-1.96,0.12,-0.12,0.03,0.29,-2.07,-2.08,-2.08
137.84,-1.98,0.14,-1.97,0.16,-0.16,-0.01,0.25,-2.14,-2.12,-2.13
139.22,-1.98,0.19,-1.98,0.19,-0.19,-0.05,0.21,-2.17,-2.17,-2.18
140.61,-1.98,0.23,-2.00,0.22,-0.21,-0.08,0.18,-2.20,-2.21,-2.22
142.02,-2.01,0.23,-2.01,0.24,-0.24,-0.12,0.14,-2.26,-2.25,-2.25
143.44,-2.03,0.25,-2.02,0.27,-0.27,-0.16,0.10,-2.30,-2.29,-2.29
144.87,-2.03,0.29,-2.04,0.29,-0.29,-0.19,0.06,-2.33,-2.33,-2.33
146.32,-2.03,0.33,-2.05,0.31,-0.32,-0.23,0.01,-2.35,-2.37,-2.37
147.78,-2.07,0.32,-2.06,0.34,-0.34,-0.26,-0.03,-2.41,-2.40,-2.40
149.26,-2.07,0.36,-2.07,0.36,-0.37,-0.30,-0.07,-2.44,-2.44,-2.44
150.75,-2.07,0.40,-2.09,0.39,-0.39,-0.33,-0.11,-2.46,-2.48,-2.48
152.26,-2.11,0.40,-2.10,0.42,-0.42,-0.37,-0.16,-2.53,-2.51,-2.52
153.78,-2.11,0.44,-2.11,0.44,-0.44,-0.40,-0.20,-2.56,-2.56,-2.56
155.32,-2.11,0.48,-2.13,0.46,-0.47,-0.43,-0.25,-2.58,-2.60,-2.60
156.88,-2.16,0.47,-2.14,0.49,-0.49,-0.47,-0.29,-2.65,-2.64,-2.64
158.44,-2.16,0.51,-2.17,0.51,-0.51,-0.50,-0.34,-2.68,-2.68,-2.68
160.03,-2.17,0.54,-2.18,0.54,-0.54,-0.53,-0.39,-2.71,-2.72,-2.72
161.63,-2.20,0.55,-2.20,0.56,-0.56,-0.56,-0.44,-2.76,-2.75,-2.76
163.24,-2.20,0.59,-2.21,0.58,-0.58,-0.59,-0.48,-2.78,-2.79,-2.80
164.88,-2.24,0.58,-2.24,0.59,-0.60,-0.62,-0.53,-2.84,-2.83,-2.83
166.53,-2.24,0.62,-2.25,0.61,-0.61,-0.66,-0.58,-2.86,-2.87,-2.87
168.19,-2.29,0.61,-2.28,0.63,-0.63,-0.69,-0.63,-2.92,-2.91,-2.91
169.87,-2.29,0.65,-2.30,0.64,-0.64,-0.72,-0.69,-2.94,-2.95,-2.95
171.57,-2.33,0.65,-2.33,0.66,-0.66,-0.75,-0.74,-2.99,-2.99,-2.99
173.29,-2.34,0.67,-2.35,0.67,-0.67,-0.78,-0.79,-3.01,-3.02,-3.02
175.02,-2.37,0.68,-2.38,0.68,-0.68,-0.81,-0.84,-3.06,-3.06,-3.06
176.77,-2.40,0.69,-2.40,0.70,-0.69,-0.84,-0.90,-3.10,-3.09,-3.10
178.54,-2.43,0.70,-2.43,0.70,-0.70,-0.87,-0.95,-3.14,-3.14,-3.14
180.32,-2.46,0.71,-2.46,0.71,-0.71,-0.90,-1.01,-3.17,-3.17,-3.18
182.13,-2.49,0.71,-2.49,0.72,-0.72,-0.93,-1.07,-3.21,-3.21,-3.21
183.95,-2.52,0.72,-2.52,0.72,-0.72,-0.96,-1.12,-3.24,-3.24,-3.25
185.79,-2.55,0.72,-2.55,0.73,-0.72,-1.00,-1.18,-3.28,-3.28,-3.28
187.65,-2.58,0.73,-2.58,0.73,-0.73,-1.03,-1.24,-3.31,-3.31,-3.32
189.52,-2.61,0.73,-2.61,0.74,-0.73,-1.06,-1.30,-3.35,-3.34,-3.35
191.42,-2.63,0.74,-2.64,0.74,-0.74,-1.10,-1.36,-3.37,-3.38,-3.38
193.33,-2.66,0.74,-2.66,0.75,-0.74,-1.13,-1.42,-3.41,-3.40,-3.41
195.27,-2.68,0.75,-2.68,0.76,-0.75,-1.17,-1.48,-3.44,-3.43,-3.44
197.22,-2.68,0.78,-2.69,0.78,-0.77,-1.21,-1.54,-3.45,-3.46,-3.47
199.19,-2.70,0.79,-2.70,0.80,-0.80,-1.24,-1.60,-3.50,-3.49,-3.50
201.18,-2.68,0.83,-2.69,0.83,-0.83,-1.28,-1.67,-3.52,-3.52,-3.52
203.19,-2.67,0.86,-2.67,0.87,-0.88,-1.32,-1.73,-3.56,-3.55,-3.54
205.23,-2.62,0.93,-2.62,0.93,-0.95,-1.37,-1.79,-3.57,-3.57,-3.56
207.28,-2.55,1.01,-2.56,1.01,-1.02,-1.41,-1.85,-3.58,-3.59,-3.57
209.35,-2.48,1.10,-2.48,1.11,-1.12,-1.46,-1.91,-3.60,-3.59,-3.59
211.44,-2.38,1.22,-2.38,1.22,-1.22,-1.51,-1.97,-3.61,-3.60,-3.61
213.56,-2.26,1.35,-2.27,1.34,-1.34,-1.56,-2.03,-3.60,-3.61,-3.62
215.69,-2.14,1.47,-2.15,1.47,-1.47,-1.61,-2.09,-3.61,-3.62,-3.62
217.85,-2.03,1.59,-2.02,1.61,-1.61,-1.67,-2.14,-3.64,-3.63,-3.63
220.03,-1.88,1.75,-1.90,1.74,-1.75,-1.72,-2.20,-3.63,-3.65,-3.64
222.23,-1.76,1.88,-1.76,1.89,-1.89,-1.79,-2.25,-3.66,-3.65,-3.65
224.45,-1.61,2.03,-1.61,2.04,-2.04,-1.85,-2.30,-3.65,-3.65,-3.65
226.70,-1.45,2.19,-1.46,2.18,-2.18,-1.92,-2.35,-3.63,-3.64,-3.65
228.96,-1.32,2.32,-1.32,2.32,-2.31,-1.98,-2.39,-3.64,-3.63,-3.65
231.25,-1.19,2.44,-1.19,2.45,-2.44,-2.06,-2.44,-3.63,-3.63,-3.64
233.57,-1.07,2.56,-1.08,2.56,-2.56,-2.13,-2.47,-3.63,-3.64,-3.64
235.90,-0.97,2.66,-0.97,2.67,-2.66,-2.21,-2.51,-3.64,-3.63,-3.64
238.26,-0.86,2.76,-0.87,2.76,-2.76,-2.28,-2.54,-3.62,-3.63,-3.63
240.64,-0.78,2.83,-0.78,2.84,-2.83,-2.36,-2.57,-3.62,-3.61,-3.62
243.05,-0.70,2.90,-0.71,2.90,-2.90,-2.44,-2.59,-3.60,-3.60,-3.61
245.48,-0.64,2.95,-0.65,2.95,-2.95,-2.52,-2.61,-3.59,-3.59,-3.60
247.93,-0.60,2.98,-0.60,2.99,-2.98,-2.59,-2.63,-3.59,-3.58,-3.59
250.41,-0.55,3.02,-0.56,3.01,-3.01,-2.67,-2.64,-3.56,-3.57,-3.58
252.92,-0.54,3.01,-0.54,3.02,-3.02,-2.74,-2.64,-3.57,-3.56,-3.56
255.45,-0.51,3.02,-0.52,3.02,-3.03,-2.80,-2.64,-3.54,-3.54,-3.54
258.00,-0.51,3.01,-0.51,3.02,-3.02,-2.86,-2.64,-3.53,-3.53,-3.53
260.58,-0.49,3.01,-0.50,3.01,-3.01,-2.91,-2.63,-3.50,-3.51,-3.51
263.19,-0.49,2.99,-0.49,2.99,-2.99,-2.95,-2.62,-3.49,-3.49,-3.49
265.82,-0.49,2.97,-0.49,2.98,-2.97,-2.98,-2.61,-3.47,-3.46,-3.47
268.48,-0.49,2.95,-0.49,2.95,-2.95,-3.00,-2.59,-3.45,-3.45,-3.45
271.16,-0.49,2.93,-0.50,2.93,-2.93,-3.00,-2.57,-3.42,-3.43,-3.43
273.87,-0.51,2.89,-0.51,2.90,-2.91,-2.99,-2.55,-3.42,-3.41,-3.41
276.61,-0.51,2.87,-0.51,2.87,-2.88,-2.97,-2.52,-3.39,-3.39,-3.39
279.38,-0.51,2.85,-0.51,2.86,-2.85,-2.94,-2.49,-3.37,-3.36,-3.37
282.17,-0.51,2.83,-0.52,2.83,-2.83,-2.90,-2.46,-3.34,-3.34,-3.35
284.99,-0.51,2.81,-0.53,2.80,-2.80,-2.85,-2.42,-3.31,-3.33,-3.33
287.84,-0.55,2.75,-0.54,2.77,-2.77,-2.79,-2.39,-3.32,-3.31,-3.31
290.72,-0.55,2.73,-0.55,2.74,-2.74,-2.73,-2.35,-3.30,-3.29,-3.29
293.63,-0.55,2.71,-0.55,2.71,-2.71,-2.66,-2.31,-3.27,-3.27,-3.27
296.57,-0.55,2.69,-0.56,2.69,-2.68,-2.58,-2.27,-3.23,-3.24,-3.25
299.53,-0.56,2.66,-0.57,2.65,-2.65,-2.51,-2.23,-3.21,-3.22,-3.23
302.53,-0.60,2.60,-0.59,2.61,-2.62,-2.43,-2.19,-3.22,-3.21,-3.21
305.55,-0.60,2.57,-0.60,2.58,-2.58,-2.35,-2.15,-3.19,-3.19,-3.18
308.61,-0.60,2.55,-0.60,2.55,-2.55,-2.28,-2.11,-3.15,-3.15,-3.16
311.69,-0.60,2.52,-0.61,2.52,-2.52,-2.20,-2.07,-3.12,-3.12,-3.13
314.81,-0.60,2.49,-0.62,2.48,-2.48,-2.13,-2.03,-3.09,-3.10,-3.10
317.96,-0.64,2.43,-0.63,2.45,-2.45,-2.06,-1.99,-3.09,-3.08,-3.08
321.14,-0.64,2.41,-0.64,2.41,-2.41,-1.99,-1.95,-3.06,-3.06,-3.06
324.35,-0.64,2.39,-0.66,2.38,-2.38,-1.92,-1.92,-3.02,-3.04,-3.04
327.59,-0.68,2.33,-0.67,2.35,-2.35,-1.86,-1.88,-3.03,-3.01,-3.02
330.87,-0.68,2.31,-0.68,2.31,-2.31,-1.80,-1.84,-3.00,-3.00,-3.00
334.18,-0.68,2.29,-0.70,2.27,-2.28,-1.74,-1.81,-2.96,-2.98,-2.98
337.52,-0.73,2.22,-0.71,2.24,-2.24,-1.68,-1.77,-2.98,-2.96,-2.96
340.90,-0.73,2.20,-0.73,2.20,-2.21,-1.63,-1.74,-2.94,-2.94,-2.94
344.30,-0.73,2.18,-0.75,2.17,-2.18,-1.58,-1.71,-2.91,-2.92,-2.92
347.75,-0.77,2.12,-0.76,2.13,-2.14,-1.53,-1.68,-2.91,-2.90,-2.90
351.23,-0.77,2.10,-0.78,2.10,-2.10,-1.49,-1.65,-2.88,-2.88,-2.88
354.74,-0.81,2.04,-0.80,2.06,-2.06,-1.44,-1.62,-2.88,-2.86,-2.86
358.28,-0.81,2.03,-0.83,2.02,-2.02,-1.40,-1.60,-2.83,-2.84,-2.85
361.87,-0.86,1.96,-0.86,1.96,-1.96,-1.36,-1.57,-2.82,-2.82,-2.83
365.49,-0.91,1.89,-0.91,1.90,-1.89,-1.32,-1.55,-2.81,-2.80,-2.81
369.14,-0.97,1.82,-0.97,1.82,-1.81,-1.28,-1.52,-2.79,-2.79,-2.80
372.83,-1.04,1.73,-1.05,1.73,-1.72,-1.24,-1.50,-2.76,-2.76,-2.78
376.56,-1.13,1.63,-1.14,1.62,-1.60,-1.20,-1.48,-2.74,-2.74,-2.77
380.33,-1.26,1.48,-1.26,1.49,-1.48,-1.16,-1.46,-2.74,-2.73,-2.75
384.13,-1.38,1.35,-1.39,1.35,-1.33,-1.12,-1.45,-2.72,-2.72,-2.74
387.97,-1.53,1.19,-1.53,1.19,-1.19,-1.08,-1.43,-2.72,-2.72,-2.73
391.85,-1.68,1.03,-1.68,1.03,-1.04,-1.04,-1.42,-2.72,-2.72,-2.72
395.77,-1.82,0.87,-1.83,0.87,-0.89,-0.99,-1.40,-2.71,-2.72,-2.70
399.73,-1.95,0.73,-1.95,0.74,-0.75,-0.95,-1.39,-2.70,-2.70,-2.69
403.72,-2.07,0.60,-2.07,0.61,-0.62,-0.90,-1.38,-2.70,-2.69,-2.68
407.76,-2.15,0.51,-2.16,0.50,-0.51,-0.85,-1.37,-2.66,-2.67,-2.67
411.84,-2.25,0.40,-2.25,0.41,-0.41,-0.80,-1.36,-2.67,-2.66,-2.66
415.96,-2.30,0.34,-2.30,0.34,-0.34,-0.75,-1.35,-2.64,-2.64,-2.65
420.12,-2.35,0.28,-2.36,0.28,-0.28,-0.69,-1.34,-2.64,-2.64,-2.64
424.32,-2.37,0.25,-2.39,0.24,-0.25,-0.64,-1.33,-2.62,-2.64,-2.63
428.56,-2.42,0.19,-2.40,0.22,-0.24,-0.59,-1.33,-2.66,-2.64,-2.62
432.85,-2.37,0.23,-2.38,0.23,-0.24,-0.54,-1.32,-2.62,-2.62,-2.61
437.18,-2.33,0.26,-2.34,0.25,-0.27,-0.51,-1.32,-2.60,-2.60,-2.60
441.55,-2.27,0.30,-2.27,0.31,-0.30,-0.48,-1.31,-2.58,-2.57,-2.58
445.96,-2.21,0.35,-2.21,0.36,-0.35,-0.47,-1.31,-2.56,-2.56,-2.57
450.42,-2.13,0.42,-2.14,0.41,-0.41,-0.47,-1.31,-2.54,-2.55,-2.56
454.93,-2.07,0.46,-2.07,0.47,-0.47,-0.48,-1.30,-2.54,-2.53,-2.54
459.48,-1.99,0.53,-1.99,0.53,-0.53,-0.51,-1.30,-2.52,-2.52,-2.53
464.07,-1.92,0.59,-1.93,0.59,-0.59,-0.56,-1.30,-2.51,-2.51,-2.52
468.71,-1.85,0.64,-1.86,0.64,-0.64,-0.61,-1.30,-2.49,-2.50,-2.50
