frequency,raw,error,smoothed,error_smoothed,equalization,parametric_eq,fixed_band_eq,equalized_raw,equalized_smoothed,target
20.00,0.28,-10.30,0.21,-10.38,10.38,9.09,4.12,10.65,10.59,10.58
20.20,0.32,-10.25,0.28,-10.29,10.29,9.22,4.23,10.61,10.57,10.57
20.40,0.36,-10.20,0.35,-10.21,10.21,9.34,4.35,10.57,10.56,10.56
20.61,0.40,-10.16,0.42,-10.13,10.13,9.46,4.46,10.53,10.56,10.56
20.81,0.43,-10.11,0.49,-10.05,10.05,9.57,4.58,10.48,10.55,10.54
21.02,0.48,-10.06,0.56,-9.98,9.98,9.67,4.71,10.46,10.54,10.54
21.23,0.57,-9.96,0.62,-9.91,9.91,9.76,4.83,10.48,10.53,10.53
21.44,0.66,-9.88,0.68,-9.84,9.84,9.85,4.96,10.50,10.52,10.54
21.66,0.75,-9.78,0.74,-9.77,9.77,9.92,5.10,10.52,10.52,10.53
21.87,0.84,-9.67,0.80,-9.71,9.71,9.99,5.24,10.55,10.51,10.51
22.09,0.91,-9.59,0.86,-9.64,9.64,10.05,5.38,10.55,10.50,10.50
22.31,0.95,-9.55,0.91,-9.58,9.58,10.09,5.52,10.53,10.50,10.50
22.54,0.99,-9.50,0.97,-9.52,9.52,10.13,5.67,10.51,10.49,10.49
22.76,1.03,-9.46,1.03,-9.46,9.46,10.15,5.83,10.49,10.49,10.49
22.99,1.07,-9.41,1.08,-9.41,9.41,10.16,5.98,10.48,10.48,10.48
23.22,1.11,-9.36,1.12,-9.36,9.36,10.16,6.14,10.47,10.48,10.47
23.45,1.16,-9.32,1.16,-9.31,9.31,10.15,6.31,10.47,10.48,10.48
23.69,1.20,-9.27,1.20,-9.27,9.27,10.13,6.48,10.47,10.47,10.47
23.92,1.25,-9.22,1.23,-9.24,9.24,10.11,6.65,10.49,10.47,10.46
24.16,1.28,-9.19,1.27,-9.20,9.20,10.07,6.83,10.48,10.47,10.47
24.40,1.31,-9.17,1.31,-9.17,9.17,10.02,7.01,10.47,10.47,10.48
24.65,1.34,-9.14,1.35,-9.13,9.13,9.97,7.19,10.46,10.47,10.48
24.89,1.37,-9.11,1.39,-9.08,9.08,9.90,7.38,10.45,10.47,10.48
25.14,1.41,-9.07,1.44,-9.04,9.04,9.83,7.57,10.45,10.48,10.48
25.39,1.46,-9.01,1.48,-9.00,9.00,9.76,7.76,10.46,10.48,10.47
25.65,1.51,-8.96,1.52,-8.96,8.96,9.68,7.95,10.46,10.48,10.47
25.91,1.56,-8.92,1.57,-8.91,8.91,9.60,8.15,10.47,10.48,10.48
26.16,1.61,-8.88,1.61,-8.87,8.87,9.51,8.35,10.48,10.48,10.49
26.43,1.67,-8.82,1.65,-8.83,8.83,9.42,8.54,10.50,10.48,10.49
26.69,1.72,-8.77,1.69,-8.79,8.79,9.33,8.74,10.51,10.48,10.48
26.96,1.77,-8.71,1.73,-8.75,8.75,9.23,8.94,10.52,10.48,10.48
27.23,1.80,-8.68,1.77,-8.71,8.71,9.14,9.13,10.50,10.48,10.48
27.50,1.83,-8.65,1.82,-8.66,8.66,9.04,9.32,10.49,10.48,10.48
27.77,1.85,-8.64,1.86,-8.62,8.62,8.95,9.51,10.47,10.48,10.48
28.05,1.88,-8.60,1.89,-8.59,8.59,8.85,9.69,10.46,10.48,10.48
28.33,1.91,-8.56,1.93,-8.55,8.55,8.76,9.86,10.46,10.48,10.47
28.62,1.94,-8.53,1.96,-8.52,8.52,8.67,10.02,10.46,10.48,10.47
28.90,1.97,-8.50,1.99,-8.48,8.48,8.58,10.17,10.45,10.47,10.47
29.19,2.01,-8.46,2.02,-8.45,8.45,8.49,10.31,10.46,10.47,10.47
29.48,2.07,-8.40,2.06,-8.41,8.41,8.40,10.44,10.48,10.47,10.47
29.78,2.12,-8.35,2.09,-8.37,8.37,8.32,10.55,10.49,10.46,10.46
30.08,2.16,-8.31,2.12,-8.33,8.33,8.24,10.64,10.49,10.46,10.47
30.38,2.17,-8.29,2.16,-8.29,8.29,8.16,10.71,10.46,10.45,10.46
30.68,2.17,-8.27,2.19,-8.25,8.25,8.09,10.77,10.42,10.44,10.44
30.99,2.18,-8.26,2.22,-8.21,8.21,8.02,10.80,10.39,10.44,10.44
31.30,2.24,-8.19,2.26,-8.17,8.17,7.96,10.82,10.41,10.43,10.42
31.61,2.30,-8.12,2.29,-8.13,8.13,7.90,10.81,10.43,10.42,10.42
31.93,2.37,-8.04,2.32,-8.09,8.09,7.84,10.79,10.46,10.41,10.41
32.24,2.38,-8.02,2.35,-8.06,8.06,7.79,10.74,10.44,10.40,10.40
32.57,2.38,-8.01,2.37,-8.02,8.02,7.74,10.68,10.40,10.40,10.39
32.89,2.38,-8.00,2.40,-7.99,7.99,7.70,10.60,10.37,10.39,10.38
33.22,2.41,-7.97,2.43,-7.95,7.95,7.66,10.50,10.36,10.38,10.38
33.55,2.45,-7.92,2.46,-7.92,7.92,7.62,10.39,10.37,10.38,10.37
33.89,2.50,-7.88,2.49,-7.88,7.88,7.59,10.26,10.38,10.37,10.38
34.23,2.53,-7.83,2.52,-7.84,7.84,7.56,10.13,10.37,10.37,10.36
34.57,2.55,-7.81,2.55,-7.80,7.80,7.54,9.98,10.35,10.36,10.35
34.92,2.57,-7.78,2.58,-7.77,7.77,7.52,9.83,10.33,10.35,10.35
35.27,2.61,-7.74,2.62,-7.73,7.73,7.50,9.67,10.33,10.34,10.35
35.62,2.64,-7.70,2.65,-7.68,7.68,7.49,9.51,10.32,10.33,10.34
35.97,2.68,-7.65,2.69,-7.63,7.63,7.48,9.34,10.31,10.32,10.33
36.33,2.71,-7.60,2.72,-7.59,7.59,7.48,9.17,10.30,10.30,10.31
36.70,2.75,-7.55,2.74,-7.54,7.54,7.48,9.00,10.29,10.29,10.29
37.06,2.79,-7.49,2.77,-7.50,7.50,7.48,8.83,10.29,10.27,10.28
37.43,2.83,-7.42,2.80,-7.45,7.45,7.48,8.66,10.28,10.25,10.25
37.81,2.87,-7.36,2.82,-7.40,7.40,7.48,8.49,10.27,10.22,10.23
38.19,2.89,-7.31,2.85,-7.34,7.34,7.49,8.32,10.23,10.20,10.20
38.57,2.89,-7.28,2.88,-7.29,7.29,7.49,8.16,10.18,10.17,10.17
38.95,2.89,-7.25,2.91,-7.23,7.23,7.50,8.00,10.12,10.14,10.14
39.34,2.89,-7.21,2.93,-7.18,7.18,7.50,7.84,10.07,10.11,10.10
39.74,2.89,-7.19,2.96,-7.13,7.13,7.51,7.69,10.02,10.08,10.08
40.14,2.92,-7.13,2.97,-7.08,7.08,7.51,7.54,10.00,10.05,10.05
40.54,3.00,-7.02,2.99,-7.03,7.03,7.51,7.40,10.03,10.02,10.02
40.94,3.08,-6.91,3.01,-6.99,6.99,7.50,7.25,10.06,9.99,9.99
41.35,3.09,-6.88,3.03,-6.94,6.94,7.50,7.12,10.02,9.97,9.97
41.76,3.09,-6.84,3.05,-6.88,6.88,7.49,6.99,9.97,9.94,9.93
42.18,3.09,-6.81,3.08,-6.83,6.83,7.47,6.86,9.92,9.91,9.90
42.60,3.09,-6.79,3.11,-6.77,6.77,7.45,6.74,9.86,9.88,9.88
43.03,3.09,-6.76,3.13,-6.71,6.71,7.42,6.62,9.80,9.85,9.85
43.46,3.11,-6.70,3.16,-6.66,6.66,7.38,6.51,9.77,9.82,9.81
43.90,3.13,-6.66,3.18,-6.61,6.61,7.34,6.40,9.74,9.79,9.79
44.33,3.18,-6.57,3.20,-6.56,6.56,7.29,6.30,9.74,9.75,9.75
44.78,3.25,-6.47,3.21,-6.51,6.51,7.23,6.20,9.76,9.72,9.72
45.23,3.29,-6.41,3.23,-6.46,6.46,7.17,6.11,9.75,9.69,9.70
45.68,3.29,-6.37,3.25,-6.40,6.40,7.10,6.02,9.69,9.65,9.65
46.13,3.29,-6.32,3.27,-6.34,6.34,7.02,5.94,9.63,9.61,9.61
46.60,3.29,-6.28,3.28,-6.28,6.28,6.94,5.86,9.57,9.57,9.57
47.06,3.29,-6.24,3.30,-6.22,6.22,6.85,5.78,9.51,9.52,9.53
47.53,3.29,-6.20,3.32,-6.16,6.16,6.75,5.71,9.45,9.48,9.49
48.01,3.29,-6.14,3.34,-6.09,6.09,6.65,5.64,9.38,9.43,9.43
48.49,3.34,-6.04,3.35,-6.03,6.03,6.55,5.58,9.37,9.38,9.38
48.97,3.39,-5.94,3.36,-5.97,5.97,6.44,5.52,9.36,9.33,9.33
49.46,3.39,-5.90,3.37,-5.92,5.92,6.33,5.46,9.30,9.28,9.29
49.96,3.39,-5.83,3.38,-5.85,5.85,6.21,5.41,9.24,9.23,9.22
50.46,3.39,-5.78,3.40,-5.79,5.79,6.09,5.35,9.17,9.18,9.17
50.96,3.39,-5.74,3.42,-5.71,5.71,5.98,5.31,9.10,9.13,9.13
51.47,3.43,-5.65,3.44,-5.64,5.64,5.86,5.26,9.07,9.08,9.08
51.99,3.48,-5.55,3.46,-5.57,5.57,5.74,5.22,9.05,9.03,9.03
52.51,3.49,-5.49,3.48,-5.50,5.50,5.62,5.18,8.99,8.98,8.98
53.03,3.49,-5.45,3.50,-5.43,5.43,5.50,5.14,8.92,8.92,8.94
53.56,3.49,-5.39,3.51,-5.36,5.36,5.39,5.10,8.85,8.87,8.88
54.10,3.50,-5.32,3.53,-5.30,5.30,5.28,5.06,8.80,8.82,8.82
54.64,3.55,-5.22,3.54,-5.23,5.23,5.16,5.03,8.78,8.77,8.77
55.18,3.59,-5.12,3.55,-5.17,5.17,5.06,4.99,8.76,8.72,8.71
55.74,3.59,-5.07,3.56,-5.11,5.11,4.95,4.95,8.70,8.68,8.66
56.29,3.59,-5.03,3.57,-5.06,5.06,4.85,4.92,8.64,8.63,8.61
56.86,3.59,-4.98,3.58,-5.00,5.00,4.75,4.88,8.59,8.58,8.57
57.42,3.59,-4.92,3.58,-4.95,4.95,4.65,4.84,8.53,8.52,8.50
58.00,3.59,-4.88,3.58,-4.89,4.89,4.56,4.80,8.48,8.47,8.47
58.58,3.59,-4.84,3.58,-4.83,4.83,4.47,4.76,8.42,8.42,8.43
59.16,3.59,-4.79,3.59,-4.77,4.77,4.39,4.72,8.36,8.36,8.38
59.76,3.59,-4.74,3.60,-4.70,4.70,4.31,4.67,8.29,8.30,8.33
60.35,3.59,-4.67,3.61,-4.64,4.64,4.24,4.63,8.22,8.24,8.26
60.96,3.59,-4.61,3.62,-4.57,4.57,4.17,4.58,8.15,8.18,8.20
61.57,3.59,-4.54,3.63,-4.49,4.49,4.10,4.52,8.08,8.12,8.13
62.18,3.61,-4.44,3.65,-4.41,4.41,4.03,4.47,8.02,8.06,8.05
62.80,3.67,-4.31,3.67,-4.33,4.33,3.98,4.41,7.99,7.99,7.97
63.43,3.69,-4.22,3.69,-4.24,4.24,3.92,4.34,7.93,7.93,7.91
64.07,3.70,-4.15,3.71,-4.15,4.15,3.87,4.28,7.85,7.86,7.85
64.71,3.76,-4.02,3.72,-4.06,4.06,3.82,4.21,7.82,7.79,7.78
65.35,3.79,-3.93,3.74,-3.98,3.98,3.77,4.14,7.77,7.72,7.72
66.01,3.79,-3.86,3.76,-3.89,3.89,3.73,4.06,7.68,7.65,7.65
66.67,3.79,-3.81,3.77,-3.81,3.81,3.69,3.98,7.60,7.58,7.59
67.33,3.79,-3.72,3.78,-3.73,3.73,3.65,3.90,7.52,7.51,7.51
68.01,3.79,-3.66,3.79,-3.65,3.65,3.61,3.82,7.44,7.44,7.44
68.69,3.79,-3.58,3.80,-3.57,3.57,3.57,3.73,7.36,7.37,7.37
69.37,3.79,-3.52,3.80,-3.50,3.50,3.53,3.64,7.29,7.30,7.31
70.07,3.79,-3.44,3.80,-3.43,3.43,3.49,3.55,7.22,7.23,7.23
70.77,3.79,-3.37,3.80,-3.36,3.36,3.45,3.46,7.14,7.15,7.16
71.48,3.79,-3.30,3.79,-3.28,3.28,3.41,3.37,7.07,7.08,7.08
72.19,3.79,-3.21,3.79,-3.21,3.21,3.36,3.27,7.00,7.00,7.00
72.91,3.79,-3.14,3.79,-3.14,3.14,3.31,3.18,6.93,6.93,6.93
73.64,3.79,-3.06,3.79,-3.07,3.07,3.26,3.08,6.86,6.86,6.85
74.38,3.79,-2.99,3.79,-3.00,3.00,3.20,2.99,6.79,6.79,6.78
75.12,3.79,-2.91,3.79,-2.93,2.93,3.14,2.89,6.72,6.72,6.70
75.87,3.79,-2.85,3.79,-2.86,2.86,3.07,2.80,6.65,6.65,6.64
76.63,3.79,-2.78,3.79,-2.79,2.79,3.00,2.70,6.58,6.58,6.57
77.40,3.79,-2.72,3.79,-2.72,2.72,2.92,2.60,6.51,6.51,6.51
78.17,3.79,-2.65,3.79,-2.65,2.65,2.84,2.51,6.44,6.44,6.43
78.95,3.79,-2.59,3.79,-2.59,2.59,2.75,2.41,6.38,6.38,6.38
79.74,3.79,-2.53,3.79,-2.52,2.52,2.66,2.32,6.31,6.31,6.31
80.54,3.79,-2.46,3.79,-2.45,2.45,2.56,2.22,6.24,6.24,6.25
81.35,3.79,-2.39,3.78,-2.39,2.39,2.47,2.13,6.18,6.18,6.18
82.16,3.79,-2.33,3.78,-2.33,2.33,2.37,2.04,6.12,6.11,6.12
82.98,3.79,-2.26,3.78,-2.26,2.26,2.27,1.95,6.05,6.04,6.05
83.81,3.79,-2.19,3.78,-2.19,2.19,2.17,1.86,5.98,5.97,5.97
84.65,3.79,-2.11,3.78,-2.12,2.12,2.07,1.77,5.90,5.90,5.90
85.50,3.79,-2.03,3.79,-2.04,2.04,1.96,1.68,5.83,5.83,5.82
86.35,3.79,-1.96,3.80,-1.96,1.96,1.86,1.59,5.75,5.76,5.75
87.22,3.79,-1.90,3.81,-1.88,1.88,1.76,1.50,5.67,5.69,5.69
88.09,3.79,-1.82,3.82,-1.80,1.80,1.66,1.42,5.58,5.61,5.61
88.97,3.79,-1.75,3.83,-1.71,1.71,1.56,1.33,5.50,5.54,5.54
89.86,3.79,-1.67,3.84,-1.62,1.62,1.47,1.25,5.41,5.46,5.45
90.76,3.87,-1.52,3.85,-1.53,1.53,1.37,1.17,5.40,5.38,5.38
91.66,3.90,-1.40,3.86,-1.44,1.44,1.28,1.08,5.34,5.30,5.29
92.58,3.90,-1.33,3.87,-1.35,1.35,1.18,1.00,5.25,5.22,5.22
93.51,3.90,-1.24,3.88,-1.26,1.26,1.09,0.92,5.15,5.13,5.14
94.44,3.90,-1.16,3.88,-1.16,1.16,1.01,0.84,5.06,5.05,5.06
95.39,3.90,-1.07,3.89,-1.07,1.07,0.92,0.76,4.97,4.96,4.97
96.34,3.89,-0.99,3.89,-0.98,0.98,0.84,0.69,4.87,4.87,4.88
97.30,3.89,-0.89,3.89,-0.89,0.89,0.75,0.61,4.78,4.78,4.78
98.28,3.88,-0.81,3.89,-0.80,0.80,0.67,0.53,4.68,4.69,4.69
99.26,3.86,-0.72,3.88,-0.72,0.72,0.59,0.46,4.58,4.59,4.58
100.25,3.85,-0.64,3.86,-0.64,0.64,0.52,0.38,4.49,4.50,4.49
101.25,3.83,-0.58,3.84,-0.57,0.57,0.44,0.31,4.40,4.41,4.40
102.27,3.82,-0.49,3.81,-0.50,0.50,0.37,0.23,4.32,4.31,4.31
103.29,3.80,-0.41,3.79,-0.43,0.43,0.30,0.16,4.23,4.22,4.21
104.32,3.78,-0.35,3.76,-0.36,0.36,0.22,0.09,4.14,4.12,4.13
105.37,3.76,-0.27,3.73,-0.30,0.30,0.15,0.02,4.06,4.03,4.03
106.42,3.74,-0.20,3.70,-0.24,0.24,0.09,-0.05,3.97,3.94,3.94
107.48,3.71,-0.12,3.67,-0.17,0.17,0.02,-0.12,3.88,3.84,3.83
108.56,3.64,-0.12,3.64,-0.11,0.11,-0.05,-0.18,3.75,3.75,3.76
109.64,3.57,-0.09,3.61,-0.05,0.05,-0.11,-0.25,3.62,3.66,3.66
110.74,3.55,-0.02,3.59,0.02,-0.02,-0.18,-0.32,3.53,3.57,3.57
111.85,3.53,0.05,3.56,0.08,-0.08,-0.24,-0.38,3.44,3.48,3.48
112.97,3.52,0.12,3.54,0.15,-0.15,-0.30,-0.44,3.37,3.39,3.40
114.10,3.51,0.20,3.53,0.22,-0.22,-0.37,-0.50,3.28,3.31,3.31
115.24,3.51,0.29,3.52,0.30,-0.30,-0.43,-0.56,3.21,3.22,3.22
116.39,3.51,0.38,3.51,0.37,-0.37,-0.49,-0.62,3.14,3.14,3.13
117.55,3.52,0.47,3.51,0.45,-0.45,-0.55,-0.68,3.07,3.06,3.05
118.73,3.52,0.56,3.52,0.54,-0.54,-0.61,-0.73,2.98,2.98,2.96
119.92,3.53,0.64,3.52,0.62,-0.62,-0.67,-0.78,2.90,2.90,2.89
121.12,3.54,0.71,3.54,0.71,-0.71,-0.73,-0.84,2.83,2.82,2.83
122.33,3.54,0.79,3.54,0.80,-0.80,-0.78,-0.89,2.74,2.75,2.75
123.55,3.55,0.87,3.55,0.88,-0.88,-0.84,-0.93,2.67,2.67,2.68
124.79,3.56,0.95,3.55,0.96,-0.96,-0.90,-0.98,2.60,2.60,2.61
126.03,3.57,1.04,3.55,1.03,-1.03,-0.96,-1.02,2.54,2.52,2.53
127.29,3.57,1.11,3.55,1.10,-1.10,-1.02,-1.07,2.47,2.45,2.46
128.57,3.58,1.20,3.55,1.17,-1.17,-1.07,-1.11,2.41,2.38,2.38
129.85,3.59,1.28,3.55,1.24,-1.24,-1.13,-1.15,2.35,2.31,2.30
131.15,3.58,1.35,3.55,1.31,-1.31,-1.19,-1.19,2.27,2.23,2.23
132.46,3.52,1.36,3.54,1.38,-1.38,-1.25,-1.23,2.14,2.16,2.16
133.79,3.50,1.41,3.53,1.44,-1.44,-1.30,-1.26,2.05,2.09,2.08
135.12,3.50,1.49,3.53,1.51,-1.51,-1.36,-1.30,1.99,2.02,2.01
136.48,3.51,1.56,3.52,1.58,-1.58,-1.42,-1.34,1.93,1.95,1.95
137.84,3.51,1.62,3.52,1.65,-1.65,-1.47,-1.37,1.86,1.87,1.88
139.22,3.51,1.71,3.52,1.71,-1.71,-1.53,-1.40,1.79,1.80,1.80
140.61,3.51,1.77,3.51,1.78,-1.78,-1.59,-1.44,1.73,1.73,1.74
142.02,3.51,1.84,3.51,1.85,-1.85,-1.65,-1.47,1.66,1.67,1.66
143.44,3.51,1.92,3.51,1.91,-1.91,-1.70,-1.50,1.60,1.60,1.59
144.87,3.51,1.98,3.51,1.98,-1.98,-1.76,-1.54,1.53,1.53,1.53
146.32,3.51,2.04,3.50,2.04,-2.04,-1.82,-1.57,1.47,1.46,1.47
147.78,3.51,2.11,3.50,2.10,-2.10,-1.88,-1.61,1.41,1.39,1.40
149.26,3.51,2.18,3.48,2.16,-2.16,-1.93,-1.64,1.35,1.33,1.33
150.75,3.51,2.26,3.47,2.21,-2.21,-1.99,-1.68,1.30,1.26,1.25
152.26,3.49,2.30,3.45,2.26,-2.26,-2.05,-1.71,1.23,1.19,1.19
153.78,3.43,2.30,3.43,2.31,-2.31,-2.11,-1.75,1.12,1.12,1.13
155.32,3.41,2.35,3.42,2.36,-2.36,-2.16,-1.79,1.05,1.05,1.06
156.88,3.41,2.42,3.40,2.41,-2.41,-2.22,-1.83,1.00,0.98,0.99
158.44,3.37,2.45,3.38,2.46,-2.46,-2.28,-1.87,0.91,0.91,0.92
160.03,3.31,2.46,3.36,2.51,-2.51,-2.34,-1.91,0.80,0.85,0.85
161.63,3.31,2.53,3.34,2.57,-2.57,-2.40,-1.95,0.74,0.77,0.78
163.24,3.31,2.61,3.33,2.62,-2.62,-2.46,-2.00,0.69,0.70,0.70
164.88,3.31,2.67,3.31,2.68,-2.68,-2.51,-2.04,0.63,0.63,0.64
166.53,3.30,2.74,3.30,2.74,-2.74,-2.57,-2.09,0.56,0.56,0.56
168.19,3.30,2.80,3.29,2.80,-2.80,-2.63,-2.14,0.50,0.49,0.50
169.87,3.29,2.86,3.29,2.86,-2.86,-2.69,-2.19,0.43,0.42,0.42
171.57,3.28,2.93,3.28,2.92,-2.92,-2.75,-2.25,0.36,0.35,0.35
173.29,3.28,3.00,3.26,2.98,-2.98,-2.80,-2.30,0.30,0.29,0.28
175.02,3.27,3.04,3.25,3.03,-3.03,-2.86,-2.36,0.24,0.22,0.22
176.77,3.27,3.11,3.24,3.08,-3.08,-2.92,-2.42,0.19,0.16,0.16
178.54,3.27,3.18,3.23,3.13,-3.13,-2.98,-2.48,0.14,0.10,0.09
180.32,3.24,3.21,3.21,3.18,-3.18,-3.03,-2.55,0.06,0.04,0.03
182.13,3.20,3.23,3.20,3.22,-3.22,-3.09,-2.61,-0.02,-0.02,-0.03
183.95,3.18,3.26,3.19,3.27,-3.27,-3.14,-2.68,-0.09,-0.08,-0.08
185.79,3.14,3.28,3.18,3.32,-3.32,-3.20,-2.75,-0.18,-0.14,-0.14
187.65,3.12,3.31,3.18,3.37,-3.37,-3.25,-2.82,-0.25,-0.19,-0.19
189.52,3.13,3.38,3.18,3.42,-3.42,-3.31,-2.89,-0.30,-0.25,-0.25
191.42,3.14,3.43,3.18,3.48,-3.48,-3.36,-2.97,-0.34,-0.30,-0.29
193.33,3.15,3.49,3.17,3.52,-3.52,-3.41,-3.04,-0.38,-0.35,-0.35
195.27,3.17,3.57,3.17,3.57,-3.57,-3.47,-3.12,-0.40,-0.40,-0.40
197.22,3.18,3.63,3.16,3.61,-3.61,-3.52,-3.20,-0.43,-0.45,-0.46
199.19,3.19,3.69,3.16,3.65,-3.65,-3.57,-3.28,-0.46,-0.50,-0.50
201.18,3.20,3.75,3.15,3.69,-3.69,-3.62,-3.36,-0.50,-0.54,-0.55
203.19,3.21,3.80,3.15,3.74,-3.74,-3.66,-3.44,-0.53,-0.59,-0.59
205.23,3.21,3.84,3.14,3.78,-3.78,-3.71,-3.53,-0.57,-0.64,-0.63
207.28,3.16,3.83,3.13,3.81,-3.81,-3.76,-3.61,-0.66,-0.69,-0.67
209.35,3.10,3.82,3.11,3.84,-3.84,-3.80,-3.69,-0.74,-0.73,-0.72
211.44,3.02,3.79,3.09,3.86,-3.86,-3.84,-3.77,-0.84,-0.77,-0.77
213.56,3.00,3.81,3.06,3.87,-3.87,-3.88,-3.85,-0.88,-0.82,-0.81
215.69,3.00,3.85,3.03,3.88,-3.88,-3.92,-3.93,-0.89,-0.86,-0.85
217.85,2.99,3.88,2.99,3.89,-3.89,-3.96,-4.01,-0.90,-0.90,-0.89
220.03,2.99,3.93,2.96,3.90,-3.90,-4.00,-4.09,-0.91,-0.93,-0.94
222.23,2.99,3.97,2.94,3.91,-3.91,-4.03,-4.16,-0.92,-0.97,-0.98
224.45,2.97,3.98,2.91,3.92,-3.92,-4.06,-4.23,-0.95,-1.00,-1.01
226.70,2.90,3.94,2.89,3.93,-3.93,-4.09,-4.30,-1.03,-1.04,-1.04
228.96,2.84,3.90,2.88,3.94,-3.94,-4.12,-4.36,-1.10,-1.06,-1.07
231.25,2.81,3.89,2.87,3.96,-3.96,-4.15,-4.42,-1.15,-1.09,-1.09
233.57,2.81,3.92,2.86,3.97,-3.97,-4.17,-4.47,-1.16,-1.11,-1.12
235.90,2.82,3.95,2.86,3.99,-3.99,-4.19,-4.52,-1.17,-1.13,-1.14
238.26,2.83,3.98,2.85,4.00,-4.00,-4.21,-4.56,-1.17,-1.15,-1.15
240.64,2.85,4.00,2.85,4.00,-4.00,-4.23,-4.60,-1.16,-1.16,-1.15
243.05,2.86,4.03,2.84,4.01,-4.01,-4.24,-4.63,-1.15,-1.17,-1.17
245.48,2.88,4.07,2.83,4.02,-4.02,-4.25,-4.65,-1.14,-1.18,-1.19
247.93,2.85,4.05,2.83,4.03,-4.03,-4.26,-4.66,-1.18,-1.20,-1.20
250.41,2.83,4.03,2.83,4.03,-4.03,-4.27,-4.67,-1.20,-1.21,-1.20
252.92,2.85,4.05,2.82,4.04,-4.04,-4.28,-4.68,-1.19,-1.22,-1.20
255.45,2.85,4.08,2.81,4.04,-4.04,-4.28,-4.67,-1.19,-1.23,-1.23
258.00,2.80,4.03,2.79,4.04,-4.04,-4.28,-4.66,-1.24,-1.24,-1.23
260.58,2.77,4.02,2.78,4.03,-4.03,-4.28,-4.64,-1.26,-1.26,-1.25
263.19,2.77,4.03,2.75,4.02,-4.02,-4.27,-4.61,-1.25,-1.27,-1.26
265.82,2.74,4.02,2.73,4.01,-4.01,-4.26,-4.58,-1.27,-1.29,-1.28
268.48,2.68,3.97,2.70,4.00,-4.00,-4.25,-4.55,-1.32,-1.30,-1.29
271.16,2.66,3.97,2.67,3.99,-3.99,-4.24,-4.50,-1.33,-1.32,-1.32
273.87,2.66,3.99,2.65,3.98,-3.98,-4.23,-4.46,-1.32,-1.33,-1.33
276.61,2.60,3.95,2.63,3.97,-3.97,-4.21,-4.41,-1.37,-1.35,-1.35
279.38,2.57,3.95,2.61,3.97,-3.97,-4.19,-4.35,-1.40,-1.36,-1.38
282.17,2.56,3.94,2.59,3.96,-3.96,-4.17,-4.29,-1.40,-1.37,-1.38
284.99,2.57,3.96,2.56,3.94,-3.94,-4.15,-4.23,-1.38,-1.38,-1.39
287.84,2.58,3.97,2.54,3.94,-3.94,-4.12,-4.17,-1.36,-1.39,-1.39
290.72,2.50,3.91,2.53,3.93,-3.93,-4.10,-4.11,-1.43,-1.40,-1.41
293.63,2.50,3.91,2.52,3.92,-3.92,-4.07,-4.04,-1.42,-1.41,-1.41
296.57,2.51,3.91,2.50,3.91,-3.91,-4.04,-3.97,-1.40,-1.41,-1.41
299.53,2.52,3.93,2.48,3.90,-3.90,-4.01,-3.91,-1.38,-1.42,-1.41
302.53,2.51,3.92,2.46,3.88,-3.88,-3.97,-3.84,-1.37,-1.42,-1.41
305.55,2.45,3.87,2.44,3.86,-3.86,-3.94,-3.77,-1.41,-1.42,-1.42
308.61,2.40,3.81,2.41,3.84,-3.84,-3.90,-3.70,-1.44,-1.43,-1.42
311.69,2.36,3.79,2.39,3.82,-3.82,-3.86,-3.64,-1.46,-1.43,-1.43
314.81,2.36,3.79,2.36,3.80,-3.80,-3.82,-3.57,-1.44,-1.43,-1.43
317.96,2.37,3.81,2.33,3.77,-3.77,-3.78,-3.51,-1.40,-1.44,-1.45
321.14,2.36,3.80,2.30,3.75,-3.75,-3.74,-3.44,-1.39,-1.44,-1.44
324.35,2.25,3.70,2.27,3.72,-3.72,-3.70,-3.38,-1.47,-1.45,-1.45
327.59,2.17,3.61,2.24,3.69,-3.69,-3.65,-3.32,-1.52,-1.45,-1.44
330.87,2.16,3.61,2.20,3.66,-3.66,-3.61,-3.27,-1.50,-1.45,-1.45
334.18,2.16,3.62,2.17,3.62,-3.62,-3.56,-3.21,-1.47,-1.46,-1.47
337.52,2.16,3.62,2.14,3.60,-3.60,-3.52,-3.16,-1.44,-1.46,-1.46
340.90,2.16,3.62,2.11,3.57,-3.57,-3.47,-3.11,-1.41,-1.46,-1.47
344.30,2.14,3.60,2.08,3.54,-3.54,-3.43,-3.06,-1.40,-1.46,-1.46
347.75,2.02,3.47,2.05,3.51,-3.51,-3.38,-3.01,-1.49,-1.46,-1.45
351.23,1.96,3.43,2.01,3.47,-3.47,-3.33,-2.97,-1.51,-1.46,-1.47
354.74,1.96,3.41,1.98,3.43,-3.43,-3.28,-2.93,-1.48,-1.45,-1.45
358.28,1.96,3.42,1.95,3.41,-3.41,-3.23,-2.89,-1.45,-1.45,-1.46
361.87,1.96,3.41,1.93,3.38,-3.38,-3.18,-2.85,-1.42,-1.45,-1.45
365.49,1.90,3.34,1.90,3.35,-3.35,-3.14,-2.82,-1.45,-1.45,-1.45
369.14,1.88,3.32,1.87,3.31,-3.31,-3.09,-2.78,-1.43,-1.44,-1.44
372.83,1.85,3.28,1.83,3.27,-3.27,-3.04,-2.75,-1.43,-1.44,-1.43
376.56,1.81,3.24,1.80,3.24,-3.24,-2.99,-2.73,-1.43,-1.44,-1.44
380.33,1.74,3.18,1.77,3.21,-3.21,-2.94,-2.70,-1.47,-1.44,-1.44
384.13,1.71,3.14,1.74,3.18,-3.18,-2.89,-2.68,-1.47,-1.44,-1.43
387.97,1.72,3.15,1.71,3.16,-3.16,-2.84,-2.66,-1.44,-1.44,-1.44
391.85,1.72,3.16,1.68,3.13,-3.13,-2.79,-2.64,-1.41,-1.45,-1.44
395.77,1.67,3.12,1.64,3.09,-3.09,-2.74,-2.62,-1.42,-1.45,-1.45
399.73,1.61,3.06,1.59,3.05,-3.05,-2.70,-2.60,-1.44,-1.46,-1.45
403.72,1.54,2.98,1.55,3.01,-3.01,-2.65,-2.59,-1.48,-1.46,-1.45
407.76,1.51,2.98,1.51,2.98,-2.98,-2.60,-2.57,-1.47,-1.47,-1.47
411.84,1.51,2.98,1.48,2.95,-2.95,-2.55,-2.56,-1.44,-1.47,-1.47
415.96,1.48,2.95,1.45,2.92,-2.92,-2.51,-2.55,-1.44,-1.47,-1.47
420.12,1.42,2.90,1.42,2.89,-2.89,-2.46,-2.54,-1.47,-1.47,-1.49
424.32,1.35,2.83,1.40,2.86,-2.86,-2.41,-2.53,-1.51,-1.46,-1.48
428.56,1.33,2.79,1.38,2.83,-2.83,-2.37,-2.52,-1.50,-1.45,-1.46
432.85,1.32,2.76,1.36,2.79,-2.79,-2.32,-2.51,-1.47,-1.43,-1.44
437.18,1.28,2.71,1.34,2.75,-2.75,-2.28,-2.50,-1.47,-1.41,-1.43
441.55,1.30,2.69,1.34,2.72,-2.72,-2.23,-2.49,-1.42,-1.38,-1.40
445.96,1.34,2.70,1.34,2.68,-2.68,-2.19,-2.48,-1.34,-1.34,-1.36
450.42,1.40,2.72,1.34,2.64,-2.64,-2.14,-2.47,-1.24,-1.30,-1.32
454.93,1.42,2.69,1.35,2.60,-2.60,-2.10,-2.46,-1.18,-1.25,-1.27
459.48,1.36,2.57,1.36,2.56,-2.56,-2.06,-2.45,-1.21,-1.20,-1.21
464.07,1.37,2.51,1.37,2.52,-2.52,-2.01,-2.44,-1.16,-1.15,-1.14
468.71,1.37,2.46,1.39,2.48,-2.48,-1.97,-2.42,-1.11,-1.10,-1.09
473.40,1.39,2.42,1.39,2.44,-2.44,-1.93,-2.41,-1.05,-1.04,-1.04
478.13,1.37,2.35,1.40,2.39,-2.39,-1.89,-2.39,-1.02,-0.99,-0.98
482.91,1.39,2.32,1.41,2.35,-2.35,-1.85,-2.37,-0.96,-0.94,-0.93
487.74,1.43,2.32,1.41,2.30,-2.30,-1.81,-2.35,-0.87,-0.90,-0.89
492.62,1.41,2.26,1.40,2.26,-2.26,-1.77,-2.33,-0.85,-0.86,-0.85
497.55,1.40,2.21,1.39,2.21,-2.21,-1.73,-2.30,-0.81,-0.82,-0.81
502.52,1.44,2.23,1.37,2.16,-2.16,-1.69,-2.27,-0.72,-0.80,-0.79
507.55,1.34,2.10,1.34,2.12,-2.12,-1.65,-2.24,-0.78,-0.78,-0.76
512.62,1.25,2.00,1.32,2.08,-2.08,-1.61,-2.21,-0.83,-0.77,-0.76
