frequency,raw,error,smoothed,error_smoothed,equalization,parametric_eq,fixed_band_eq,equalized_raw,equalized_smoothed,target
20.00,0.28,-8.61,0.29,-8.60,8.65,8.17,3.17,8.92,8.93,8.89
20.20,0.32,-8.56,0.31,-8.57,8.58,8.15,3.26,8.90,8.90,8.88
20.40,0.36,-8.51,0.35,-8.52,8.52,8.13,3.35,8.87,8.87,8.87
20.61,0.40,-8.47,0.39,-8.47,8.45,8.10,3.45,8.85,8.84,8.87
20.81,0.43,-8.42,0.43,-8.42,8.38,8.08,3.55,8.81,8.82,8.85
21.02,0.48,-8.37,0.49,-8.36,8.32,8.06,3.65,8.80,8.81,8.85
21.23,0.57,-8.27,0.56,-8.28,8.25,8.03,3.75,8.82,8.81,8.84
21.44,0.66,-8.19,0.66,-8.19,8.18,8.01,3.86,8.84,8.84,8.85
21.66,0.75,-8.09,0.75,-8.09,8.10,7.98,3.97,8.85,8.85,8.84
21.87,0.84,-7.99,0.83,-8.00,8.02,7.95,4.09,8.86,8.86,8.83
22.09,0.91,-7.91,0.90,-7.92,7.95,7.93,4.20,8.86,8.85,8.82
22.31,0.95,-7.87,0.95,-7.86,7.88,7.90,4.32,8.83,8.83,8.82
22.54,0.99,-7.82,0.99,-7.82,7.82,7.87,4.45,8.80,8.81,8.81
22.76,1.03,-7.77,1.03,-7.77,7.76,7.84,4.58,8.79,8.79,8.80
22.99,1.07,-7.72,1.07,-7.72,7.71,7.81,4.71,8.78,8.78,8.79
23.22,1.11,-7.67,1.11,-7.68,7.67,7.79,4.84,8.78,8.78,8.78
23.45,1.16,-7.63,1.16,-7.63,7.63,7.76,4.98,8.79,8.78,8.79
23.69,1.20,-7.58,1.20,-7.58,7.59,7.72,5.12,8.79,8.79,8.78
23.92,1.25,-7.53,1.24,-7.54,7.56,7.69,5.26,8.80,8.80,8.78
24.16,1.28,-7.51,1.28,-7.51,7.52,7.66,5.41,8.80,8.80,8.79
24.40,1.31,-7.49,1.31,-7.49,7.48,7.63,5.55,8.79,8.79,8.80
24.65,1.34,-7.46,1.34,-7.46,7.45,7.60,5.71,8.79,8.79,8.80
24.89,1.37,-7.43,1.37,-7.43,7.41,7.56,5.86,8.78,8.78,8.80
25.14,1.41,-7.38,1.41,-7.38,7.38,7.53,6.02,8.79,8.79,8.79
25.39,1.46,-7.33,1.46,-7.33,7.33,7.49,6.17,8.79,8.79,8.79
25.65,1.51,-7.28,1.51,-7.29,7.29,7.46,6.33,8.80,8.79,8.79
25.91,1.56,-7.24,1.56,-7.24,7.24,7.42,6.49,8.80,8.80,8.80
26.16,1.61,-7.20,1.61,-7.20,7.19,7.39,6.65,8.80,8.80,8.81
26.43,1.67,-7.14,1.67,-7.14,7.14,7.35,6.81,8.81,8.81,8.81
26.69,1.72,-7.09,1.72,-7.09,7.10,7.31,6.97,8.81,8.81,8.81
26.96,1.77,-7.03,1.76,-7.04,7.05,7.28,7.13,8.82,8.82,8.80
27.23,1.80,-7.00,1.80,-7.00,7.02,7.24,7.28,8.82,8.82,8.80
27.50,1.83,-6.97,1.83,-6.98,6.98,7.20,7.43,8.81,8.81,8.80
27.77,1.85,-6.96,1.85,-6.95,6.95,7.16,7.58,8.80,8.80,8.81
28.05,1.88,-6.93,1.88,-6.92,6.92,7.12,7.72,8.80,8.80,8.81
28.33,1.91,-6.88,1.91,-6.89,6.88,7.08,7.85,8.79,8.79,8.79
28.62,1.94,-6.85,1.94,-6.86,6.85,7.04,7.98,8.79,8.78,8.79
28.90,1.97,-6.83,1.97,-6.82,6.81,7.00,8.10,8.78,8.78,8.80
29.19,2.01,-6.79,2.02,-6.78,6.77,6.96,8.20,8.78,8.79,8.80
29.48,2.07,-6.72,2.07,-6.73,6.74,6.92,8.30,8.81,8.81,8.79
29.78,2.12,-6.67,2.12,-6.68,6.70,6.88,8.38,8.82,8.82,8.79
30.08,2.16,-6.64,2.15,-6.64,6.67,6.84,8.45,8.82,8.82,8.80
30.38,2.17,-6.62,2.16,-6.62,6.62,6.79,8.51,8.79,8.79,8.79
30.68,2.17,-6.60,2.17,-6.61,6.58,6.75,8.55,8.75,8.75,8.77
30.99,2.18,-6.59,2.19,-6.58,6.54,6.71,8.58,8.72,8.73,8.77
31.30,2.24,-6.52,2.24,-6.52,6.50,6.66,8.59,8.74,8.74,8.76
31.61,2.30,-6.45,2.30,-6.45,6.46,6.62,8.58,8.76,8.76,8.75
31.93,2.37,-6.37,2.35,-6.39,6.43,6.57,8.56,8.80,8.78,8.74
32.24,2.38,-6.36,2.37,-6.36,6.39,6.53,8.52,8.77,8.76,8.74
32.57,2.38,-6.34,2.38,-6.34,6.35,6.48,8.47,8.73,8.73,8.72
32.89,2.38,-6.34,2.39,-6.33,6.31,6.43,8.41,8.69,8.70,8.72
33.22,2.41,-6.31,2.41,-6.31,6.28,6.39,8.33,8.69,8.69,8.72
33.55,2.45,-6.26,2.45,-6.27,6.25,6.34,8.25,8.70,8.70,8.71
33.89,2.50,-6.22,2.49,-6.22,6.23,6.29,8.15,8.72,8.72,8.72
34.23,2.53,-6.17,2.52,-6.18,6.20,6.25,8.04,8.72,8.72,8.70
34.57,2.55,-6.15,2.55,-6.15,6.16,6.20,7.93,8.71,8.71,8.70
34.92,2.57,-6.12,2.57,-6.12,6.12,6.15,7.80,8.69,8.70,8.69
35.27,2.61,-6.09,2.60,-6.09,6.08,6.10,7.68,8.69,8.69,8.70
35.62,2.64,-6.04,2.64,-6.05,6.04,6.05,7.54,8.68,8.68,8.68
35.97,2.68,-6.00,2.68,-6.00,5.99,6.00,7.41,8.67,8.67,8.68
36.33,2.71,-5.95,2.71,-5.95,5.94,5.95,7.27,8.65,8.65,8.66
36.70,2.75,-5.90,2.75,-5.90,5.89,5.90,7.13,8.64,8.64,8.65
37.06,2.79,-5.84,2.79,-5.84,5.84,5.85,6.99,8.63,8.63,8.63
37.43,2.83,-5.78,2.83,-5.78,5.79,5.80,6.85,8.62,8.62,8.61
37.81,2.87,-5.72,2.86,-5.72,5.75,5.75,6.70,8.61,8.61,8.59
38.19,2.89,-5.67,2.88,-5.68,5.70,5.70,6.56,8.59,8.59,8.56
38.57,2.89,-5.65,2.89,-5.65,5.66,5.65,6.43,8.55,8.55,8.54
38.95,2.89,-5.62,2.89,-5.62,5.61,5.60,6.29,8.50,8.50,8.51
39.34,2.89,-5.58,2.88,-5.59,5.56,5.54,6.16,8.45,8.44,8.47
39.74,2.89,-5.56,2.89,-5.55,5.51,5.49,6.02,8.40,8.40,8.45
40.14,2.92,-5.50,2.94,-5.48,5.46,5.44,5.90,8.37,8.39,8.42
40.54,3.00,-5.40,3.00,-5.40,5.40,5.39,5.77,8.40,8.40,8.40
40.94,3.08,-5.29,3.05,-5.32,5.35,5.33,5.65,8.43,8.41,8.37
41.35,3.09,-5.26,3.09,-5.26,5.30,5.28,5.53,8.39,8.39,8.35
41.76,3.09,-5.22,3.10,-5.22,5.25,5.23,5.42,8.34,8.35,8.31
42.18,3.09,-5.20,3.09,-5.20,5.21,5.17,5.30,8.30,8.30,8.29
42.60,3.09,-5.18,3.09,-5.18,5.16,5.12,5.20,8.25,8.25,8.27
43.03,3.09,-5.15,3.09,-5.15,5.12,5.06,5.09,8.21,8.21,8.24
43.46,3.11,-5.10,3.10,-5.11,5.07,5.01,4.99,8.18,8.18,8.21
43.90,3.13,-5.06,3.14,-5.04,5.02,4.95,4.90,8.15,8.16,8.19
44.33,3.18,-4.97,3.19,-4.97,4.97,4.90,4.81,8.15,8.15,8.15
44.78,3.25,-4.87,3.24,-4.89,4.91,4.84,4.72,8.16,8.15,8.12
45.23,3.29,-4.82,3.28,-4.82,4.85,4.79,4.63,8.14,8.13,8.11
45.68,3.29,-4.77,3.29,-4.77,4.80,4.73,4.55,8.09,8.09,8.06
46.13,3.29,-4.73,3.29,-4.73,4.75,4.68,4.48,8.04,8.04,8.02
46.60,3.29,-4.70,3.29,-4.70,4.69,4.62,4.40,7.98,7.98,7.99
47.06,3.29,-4.66,3.28,-4.67,4.64,4.56,4.33,7.93,7.93,7.95
47.53,3.29,-4.63,3.29,-4.62,4.59,4.51,4.26,7.88,7.88,7.92
48.01,3.29,-4.57,3.31,-4.56,4.54,4.45,4.20,7.83,7.85,7.86
48.49,3.34,-4.47,3.34,-4.48,4.48,4.39,4.14,7.82,7.82,7.81
48.97,3.39,-4.38,3.37,-4.40,4.42,4.34,4.08,7.81,7.79,7.77
49.46,3.39,-4.34,3.39,-4.33,4.36,4.28,4.03,7.74,7.75,7.73
49.96,3.39,-4.27,3.39,-4.28,4.29,4.22,3.98,7.68,7.68,7.66
50.46,3.39,-4.23,3.39,-4.24,4.22,4.16,3.93,7.61,7.61,7.62
50.96,3.39,-4.19,3.40,-4.17,4.16,4.11,3.88,7.55,7.56,7.58
51.47,3.43,-4.11,3.43,-4.10,4.10,4.05,3.83,7.53,7.54,7.54
51.99,3.48,-4.01,3.46,-4.03,4.04,3.99,3.79,7.52,7.51,7.49
52.51,3.49,-3.96,3.49,-3.97,3.98,3.93,3.75,7.47,7.47,7.45
53.03,3.49,-3.93,3.49,-3.92,3.92,3.87,3.71,7.40,7.40,7.42
53.56,3.49,-3.87,3.49,-3.87,3.85,3.82,3.67,7.34,7.34,7.36
54.10,3.50,-3.81,3.51,-3.80,3.78,3.76,3.63,7.28,7.29,7.31
54.64,3.55,-3.72,3.54,-3.72,3.72,3.70,3.59,7.27,7.26,7.27
55.18,3.59,-3.62,3.57,-3.64,3.66,3.64,3.56,7.25,7.23,7.21
55.74,3.59,-3.57,3.59,-3.58,3.60,3.58,3.52,7.19,7.19,7.16
56.29,3.59,-3.54,3.59,-3.53,3.55,3.52,3.48,7.14,7.14,7.13
56.86,3.59,-3.50,3.59,-3.49,3.50,3.46,3.45,7.09,7.09,7.09
57.42,3.59,-3.44,3.59,-3.45,3.45,3.40,3.41,7.04,7.04,7.03
58.00,3.59,-3.41,3.59,-3.41,3.42,3.34,3.37,7.00,7.00,7.00
58.58,3.59,-3.38,3.59,-3.38,3.38,3.28,3.33,6.97,6.97,6.97
59.16,3.59,-3.34,3.59,-3.34,3.34,3.22,3.29,6.92,6.92,6.93
59.76,3.59,-3.30,3.59,-3.30,3.29,3.16,3.25,6.88,6.88,6.89
60.35,3.59,-3.23,3.59,-3.24,3.23,3.10,3.21,6.82,6.82,6.82
60.96,3.59,-3.18,3.58,-3.18,3.16,3.04,3.16,6.75,6.75,6.77
61.57,3.59,-3.11,3.60,-3.10,3.09,2.98,3.11,6.68,6.69,6.70
62.18,3.61,-3.02,3.62,-3.01,3.01,2.92,3.06,6.62,6.63,6.63
62.80,3.67,-2.90,3.65,-2.92,2.92,2.86,3.01,6.59,6.57,6.57
63.43,3.69,-2.82,3.68,-2.83,2.83,2.80,2.96,6.52,6.52,6.51
64.07,3.70,-2.76,3.72,-2.74,2.74,2.74,2.90,6.44,6.47,6.46
64.71,3.76,-2.64,3.75,-2.65,2.66,2.68,2.84,6.42,6.41,6.40
65.35,3.79,-2.55,3.78,-2.57,2.58,2.62,2.78,6.37,6.36,6.34
66.01,3.79,-2.49,3.79,-2.49,2.51,2.56,2.72,6.29,6.30,6.28
66.67,3.79,-2.45,3.79,-2.44,2.44,2.50,2.66,6.23,6.23,6.24
67.33,3.79,-2.37,3.79,-2.38,2.37,2.44,2.59,6.16,6.16,6.16
68.01,3.79,-2.32,3.79,-2.32,2.31,2.38,2.52,6.10,6.10,6.11
68.69,3.79,-2.25,3.79,-2.26,2.25,2.32,2.45,6.04,6.04,6.04
69.37,3.79,-2.20,3.79,-2.20,2.19,2.26,2.38,5.98,5.98,5.99
70.07,3.79,-2.13,3.79,-2.13,2.13,2.20,2.30,5.92,5.92,5.92
70.77,3.79,-2.07,3.79,-2.07,2.07,2.14,2.23,5.85,5.85,5.86
71.48,3.79,-2.00,3.79,-2.00,2.00,2.07,2.16,5.79,5.79,5.79
72.19,3.79,-1.93,3.79,-1.94,1.93,2.01,2.08,5.72,5.72,5.72
72.91,3.79,-1.87,3.79,-1.87,1.87,1.95,2.00,5.66,5.66,5.66
73.64,3.79,-1.80,3.79,-1.80,1.81,1.89,1.92,5.59,5.59,5.59
74.38,3.79,-1.74,3.79,-1.74,1.74,1.83,1.84,5.53,5.53,5.53
75.12,3.79,-1.67,3.79,-1.68,1.68,1.77,1.77,5.47,5.47,5.46
75.87,3.79,-1.63,3.79,-1.62,1.62,1.71,1.69,5.41,5.41,5.42
76.63,3.79,-1.56,3.79,-1.56,1.57,1.64,1.61,5.35,5.35,5.35
77.40,3.79,-1.51,3.79,-1.51,1.51,1.58,1.53,5.30,5.30,5.30
78.17,3.79,-1.45,3.79,-1.46,1.46,1.52,1.45,5.25,5.25,5.24
78.95,3.79,-1.41,3.79,-1.40,1.40,1.46,1.37,5.19,5.19,5.20
79.74,3.79,-1.35,3.79,-1.35,1.35,1.40,1.29,5.14,5.14,5.14
80.54,3.79,-1.29,3.79,-1.30,1.30,1.34,1.21,5.09,5.09,5.08
81.35,3.79,-1.24,3.79,-1.24,1.24,1.27,1.13,5.03,5.03,5.03
82.16,3.79,-1.19,3.79,-1.19,1.18,1.21,1.05,4.97,4.97,4.98
82.98,3.79,-1.13,3.79,-1.13,1.13,1.15,0.97,4.92,4.92,4.92
83.81,3.79,-1.07,3.79,-1.07,1.07,1.09,0.90,4.86,4.86,4.86
84.65,3.79,-1.01,3.79,-1.01,1.02,1.03,0.82,4.80,4.80,4.80
85.50,3.79,-0.94,3.79,-0.95,0.96,0.96,0.74,4.75,4.75,4.73
86.35,3.79,-0.88,3.79,-0.88,0.89,0.90,0.66,4.68,4.68,4.67
87.22,3.79,-0.83,3.79,-0.83,0.83,0.84,0.59,4.61,4.61,4.62
88.09,3.79,-0.76,3.78,-0.77,0.75,0.78,0.51,4.54,4.53,4.55
88.97,3.79,-0.71,3.79,-0.70,0.67,0.71,0.43,4.46,4.46,4.50
89.86,3.79,-0.63,3.82,-0.61,0.60,0.65,0.36,4.38,4.41,4.42
90.76,3.87,-0.49,3.85,-0.51,0.51,0.59,0.28,4.38,4.37,4.36
91.66,3.90,-0.39,3.88,-0.41,0.43,0.53,0.21,4.33,4.32,4.29
92.58,3.90,-0.33,3.90,-0.32,0.35,0.46,0.13,4.25,4.25,4.23
93.51,3.90,-0.26,3.90,-0.26,0.26,0.40,0.06,4.16,4.17,4.16
94.44,3.90,-0.19,3.90,-0.19,0.18,0.34,-0.02,4.08,4.08,4.09
95.39,3.90,-0.11,3.90,-0.12,0.10,0.28,-0.09,4.00,4.00,4.01
96.34,3.89,-0.04,3.89,-0.04,0.03,0.21,-0.16,3.92,3.92,3.93
97.30,3.89,0.04,3.89,0.04,-0.04,0.15,-0.24,3.85,3.84,3.85
98.28,3.88,0.12,3.88,0.12,-0.11,0.09,-0.31,3.77,3.77,3.76
99.26,3.86,0.19,3.86,0.19,-0.18,0.02,-0.38,3.68,3.68,3.67
100.25,3.85,0.26,3.85,0.25,-0.25,-0.04,-0.46,3.60,3.59,3.59
101.25,3.83,0.31,3.83,0.32,-0.32,-0.10,-0.53,3.51,3.51,3.52
102.27,3.82,0.39,3.82,0.38,-0.39,-0.16,-0.60,3.43,3.43,3.43
103.29,3.80,0.45,3.80,0.44,-0.45,-0.23,-0.67,3.35,3.35,3.35
104.32,3.78,0.50,3.78,0.50,-0.51,-0.29,-0.74,3.27,3.27,3.28
105.37,3.76,0.56,3.76,0.57,-0.56,-0.35,-0.81,3.20,3.21,3.20
106.42,3.74,0.63,3.74,0.62,-0.60,-0.42,-0.88,3.14,3.14,3.11
107.48,3.71,0.69,3.69,0.66,-0.64,-0.48,-0.95,3.06,3.05,3.02
108.56,3.64,0.68,3.64,0.69,-0.69,-0.54,-1.02,2.95,2.95,2.96
109.64,3.57,0.70,3.59,0.71,-0.73,-0.60,-1.08,2.84,2.86,2.87
110.74,3.55,0.76,3.55,0.75,-0.77,-0.67,-1.15,2.78,2.77,2.79
111.85,3.53,0.81,3.53,0.81,-0.82,-0.73,-1.21,2.71,2.70,2.72
112.97,3.52,0.87,3.52,0.87,-0.88,-0.79,-1.27,2.64,2.64,2.65
114.10,3.51,0.93,3.51,0.93,-0.94,-0.86,-1.33,2.57,2.57,2.58
115.24,3.51,1.01,3.51,1.01,-1.01,-0.92,-1.39,2.50,2.50,2.50
116.39,3.51,1.09,3.51,1.08,-1.08,-0.98,-1.44,2.43,2.43,2.42
117.55,3.52,1.16,3.51,1.16,-1.15,-1.04,-1.50,2.37,2.36,2.36
118.73,3.52,1.24,3.52,1.24,-1.23,-1.11,-1.55,2.29,2.30,2.28
119.92,3.53,1.31,3.53,1.31,-1.30,-1.17,-1.60,2.23,2.23,2.22
121.12,3.54,1.37,3.53,1.37,-1.37,-1.23,-1.64,2.17,2.16,2.17
122.33,3.54,1.44,3.54,1.43,-1.44,-1.29,-1.69,2.10,2.10,2.10
123.55,3.55,1.50,3.55,1.50,-1.51,-1.36,-1.73,2.04,2.04,2.05
124.79,3.56,1.57,3.56,1.57,-1.58,-1.42,-1.77,1.98,1.98,1.99
126.03,3.57,1.65,3.57,1.64,-1.65,-1.48,-1.81,1.92,1.92,1.92
127.29,3.57,1.71,3.57,1.71,-1.71,-1.54,-1.84,1.86,1.86,1.86
128.57,3.58,1.78,3.58,1.79,-1.77,-1.60,-1.88,1.81,1.82,1.80
129.85,3.59,1.86,3.58,1.85,-1.82,-1.66,-1.91,1.77,1.76,1.73
131.15,3.58,1.91,3.56,1.89,-1.88,-1.73,-1.94,1.70,1.69,1.67
132.46,3.52,1.91,3.53,1.92,-1.93,-1.79,-1.96,1.59,1.61,1.61
133.79,3.50,1.95,3.51,1.96,-1.97,-1.85,-1.99,1.52,1.53,1.55
135.12,3.50,2.01,3.50,2.00,-2.02,-1.91,-2.01,1.48,1.47,1.49
136.48,3.51,2.06,3.50,2.06,-2.07,-1.97,-2.03,1.44,1.43,1.45
137.84,3.51,2.12,3.51,2.12,-2.12,-2.03,-2.05,1.38,1.38,1.39
139.22,3.51,2.20,3.51,2.18,-2.18,-2.09,-2.07,1.33,1.33,1.31
140.61,3.51,2.24,3.51,2.25,-2.24,-2.15,-2.09,1.27,1.27,1.27
142.02,3.51,2.30,3.51,2.30,-2.30,-2.21,-2.11,1.21,1.21,1.21
143.44,3.51,2.37,3.51,2.36,-2.36,-2.26,-2.13,1.14,1.14,1.14
144.87,3.51,2.42,3.51,2.42,-2.42,-2.32,-2.15,1.09,1.09,1.09
146.32,3.51,2.47,3.51,2.47,-2.48,-2.38,-2.17,1.03,1.03,1.04
147.78,3.51,2.53,3.51,2.53,-2.53,-2.44,-2.18,0.98,0.98,0.98
149.26,3.51,2.58,3.51,2.59,-2.57,-2.49,-2.20,0.93,0.94,0.93
150.75,3.51,2.65,3.50,2.63,-2.61,-2.55,-2.22,0.89,0.89,0.86
152.26,3.49,2.67,3.47,2.66,-2.65,-2.61,-2.24,0.84,0.82,0.82
153.78,3.43,2.67,3.45,2.68,-2.68,-2.66,-2.26,0.75,0.76,0.76
155.32,3.41,2.70,3.42,2.71,-2.71,-2.72,-2.29,0.70,0.71,0.71
156.88,3.41,2.76,3.39,2.74,-2.74,-2.77,-2.31,0.66,0.64,0.65
158.44,3.37,2.78,3.36,2.77,-2.78,-2.83,-2.33,0.59,0.58,0.59
160.03,3.31,2.78,3.33,2.80,-2.81,-2.88,-2.36,0.50,0.52,0.53
161.63,3.31,2.84,3.31,2.84,-2.86,-2.93,-2.39,0.45,0.45,0.47
163.24,3.31,2.91,3.30,2.90,-2.90,-2.98,-2.42,0.41,0.40,0.40
164.88,3.31,2.96,3.31,2.96,-2.95,-3.03,-2.45,0.35,0.35,0.35
166.53,3.30,3.02,3.30,3.02,-3.01,-3.08,-2.48,0.29,0.29,0.28
168.19,3.30,3.07,3.30,3.07,-3.07,-3.13,-2.52,0.23,0.23,0.23
169.87,3.29,3.12,3.29,3.12,-3.12,-3.18,-2.56,0.16,0.16,0.17
171.57,3.28,3.18,3.28,3.18,-3.18,-3.23,-2.60,0.10,0.10,0.10
173.29,3.28,3.24,3.27,3.23,-3.24,-3.28,-2.64,0.04,0.04,0.04
175.02,3.27,3.28,3.27,3.28,-3.28,-3.32,-2.68,-0.01,-0.01,-0.01
176.77,3.27,3.33,3.27,3.34,-3.32,-3.37,-2.73,-0.06,-0.05,-0.06
178.54,3.27,3.39,3.26,3.38,-3.36,-3.41,-2.78,-0.09,-0.10,-0.12
180.32,3.24,3.42,3.24,3.41,-3.39,-3.45,-2.83,-0.15,-0.15,-0.18
182.13,3.20,3.42,3.21,3.43,-3.42,-3.49,-2.88,-0.22,-0.21,-0.22
183.95,3.18,3.45,3.17,3.44,-3.45,-3.54,-2.93,-0.27,-0.28,-0.27
185.79,3.14,3.46,3.14,3.46,-3.48,-3.57,-2.99,-0.34,-0.33,-0.32
187.65,3.12,3.48,3.13,3.49,-3.51,-3.61,-3.05,-0.39,-0.38,-0.36
189.52,3.13,3.54,3.12,3.53,-3.55,-3.65,-3.11,-0.42,-0.42,-0.41
191.42,3.14,3.58,3.14,3.58,-3.59,-3.69,-3.17,-0.46,-0.46,-0.44
193.33,3.15,3.64,3.15,3.64,-3.65,-3.72,-3.24,-0.50,-0.50,-0.49
195.27,3.17,3.71,3.17,3.70,-3.71,-3.75,-3.30,-0.54,-0.54,-0.54
197.22,3.18,3.77,3.18,3.76,-3.76,-3.79,-3.37,-0.58,-0.59,-0.59
199.19,3.19,3.81,3.19,3.82,-3.81,-3.82,-3.44,-0.62,-0.62,-0.62
201.18,3.20,3.87,3.20,3.87,-3.85,-3.85,-3.51,-0.65,-0.65,-0.67
203.19,3.21,3.91,3.21,3.91,-3.88,-3.87,-3.58,-0.67,-0.67,-0.70
205.23,3.21,3.95,3.20,3.93,-3.90,-3.90,-3.65,-0.69,-0.70,-0.74
207.28,3.16,3.93,3.15,3.93,-3.91,-3.93,-3.73,-0.75,-0.75,-0.77
209.35,3.10,3.91,3.09,3.91,-3.92,-3.95,-3.80,-0.82,-0.83,-0.81
211.44,3.02,3.88,3.04,3.89,-3.93,-3.97,-3.87,-0.91,-0.89,-0.86
213.56,3.00,3.89,3.00,3.89,-3.94,-3.99,-3.94,-0.94,-0.94,-0.89
215.69,3.00,3.93,2.99,3.92,-3.95,-4.01,-4.01,-0.95,-0.96,-0.93
217.85,2.99,3.95,2.99,3.96,-3.96,-4.03,-4.08,-0.97,-0.97,-0.96
220.03,2.99,4.00,2.99,4.00,-3.96,-4.05,-4.15,-0.97,-0.97,-1.01
222.23,2.99,4.02,2.98,4.02,-3.97,-4.06,-4.21,-0.98,-0.99,-1.03
224.45,2.97,4.03,2.95,4.02,-3.98,-4.07,-4.27,-1.01,-1.02,-1.06
226.70,2.90,3.99,2.90,3.99,-3.98,-4.09,-4.33,-1.08,-1.08,-1.09
228.96,2.84,3.95,2.85,3.96,-3.98,-4.10,-4.39,-1.14,-1.13,-1.11
231.25,2.81,3.93,2.81,3.94,-3.98,-4.10,-4.44,-1.17,-1.17,-1.12
233.57,2.81,3.96,2.81,3.95,-3.98,-4.11,-4.48,-1.17,-1.18,-1.15
235.90,2.82,3.98,2.82,3.98,-3.99,-4.12,-4.52,-1.17,-1.17,-1.16
238.26,2.83,4.01,2.83,4.00,-4.00,-4.12,-4.56,-1.17,-1.17,-1.18
240.64,2.85,4.02,2.85,4.03,-4.01,-4.12,-4.59,-1.16,-1.16,-1.17
243.05,2.86,4.04,2.86,4.05,-4.03,-4.12,-4.61,-1.17,-1.17,-1.18
245.48,2.88,4.08,2.86,4.05,-4.04,-4.12,-4.63,-1.17,-1.18,-1.20
247.93,2.85,4.06,2.85,4.05,-4.05,-4.12,-4.64,-1.20,-1.20,-1.21
250.41,2.83,4.03,2.85,4.05,-4.06,-4.12,-4.64,-1.23,-1.21,-1.20
252.92,2.85,4.05,2.84,4.05,-4.05,-4.11,-4.64,-1.20,-1.21,-1.20
255.45,2.85,4.07,2.83,4.04,-4.05,-4.10,-4.63,-1.20,-1.22,-1.22
258.00,2.80,4.03,2.81,4.04,-4.03,-4.10,-4.62,-1.24,-1.22,-1.23
260.58,2.77,4.01,2.79,4.03,-4.02,-4.09,-4.60,-1.25,-1.23,-1.24
263.19,2.77,4.02,2.75,4.01,-4.00,-4.08,-4.57,-1.24,-1.25,-1.25
265.82,2.74,4.01,2.72,3.99,-3.99,-4.06,-4.54,-1.25,-1.26,-1.27
268.48,2.68,3.95,2.70,3.97,-3.97,-4.05,-4.50,-1.29,-1.27,-1.27
271.16,2.66,3.95,2.67,3.95,-3.96,-4.03,-4.45,-1.30,-1.29,-1.29
273.87,2.66,3.96,2.63,3.94,-3.95,-4.02,-4.41,-1.29,-1.31,-1.30
276.61,2.60,3.92,2.61,3.93,-3.93,-4.00,-4.35,-1.33,-1.33,-1.32
279.38,2.57,3.92,2.58,3.92,-3.92,-3.98,-4.30,-1.35,-1.34,-1.35
282.17,2.56,3.91,2.57,3.92,-3.91,-3.96,-4.24,-1.35,-1.34,-1.35
284.99,2.57,3.92,2.56,3.92,-3.91,-3.94,-4.18,-1.34,-1.34,-1.35
287.84,2.58,3.93,2.55,3.90,-3.90,-3.92,-4.12,-1.32,-1.36,-1.35
290.72,2.50,3.87,2.53,3.88,-3.90,-3.89,-4.05,-1.40,-1.37,-1.37
293.63,2.50,3.86,2.51,3.87,-3.88,-3.87,-3.98,-1.39,-1.38,-1.36
296.57,2.51,3.87,2.51,3.87,-3.87,-3.84,-3.92,-1.36,-1.36,-1.36
299.53,2.52,3.89,2.51,3.88,-3.85,-3.82,-3.85,-1.33,-1.34,-1.37
302.53,2.51,3.87,2.49,3.86,-3.84,-3.79,-3.78,-1.33,-1.34,-1.36
305.55,2.45,3.82,2.45,3.82,-3.82,-3.76,-3.72,-1.37,-1.37,-1.37
308.61,2.40,3.76,2.40,3.77,-3.80,-3.73,-3.65,-1.40,-1.40,-1.36
311.69,2.36,3.74,2.37,3.74,-3.77,-3.70,-3.58,-1.41,-1.40,-1.38
314.81,2.36,3.73,2.37,3.75,-3.74,-3.67,-3.52,-1.38,-1.37,-1.37
317.96,2.37,3.76,2.36,3.74,-3.70,-3.64,-3.45,-1.33,-1.34,-1.39
321.14,2.36,3.74,2.32,3.70,-3.67,-3.61,-3.39,-1.31,-1.35,-1.38
324.35,2.25,3.64,2.26,3.64,-3.65,-3.57,-3.33,-1.40,-1.39,-1.39
327.59,2.17,3.55,2.20,3.58,-3.62,-3.54,-3.27,-1.46,-1.43,-1.38
330.87,2.16,3.55,2.16,3.54,-3.60,-3.50,-3.21,-1.44,-1.44,-1.39
334.18,2.16,3.56,2.15,3.55,-3.56,-3.47,-3.16,-1.41,-1.41,-1.40
337.52,2.16,3.55,2.17,3.57,-3.53,-3.43,-3.11,-1.37,-1.36,-1.39
340.90,2.16,3.56,2.15,3.54,-3.49,-3.40,-3.06,-1.34,-1.34,-1.40
344.30,2.14,3.53,2.10,3.49,-3.47,-3.36,-3.01,-1.33,-1.36,-1.39
347.75,2.02,3.40,2.04,3.43,-3.44,-3.32,-2.96,-1.42,-1.40,-1.38
351.23,1.96,3.36,1.98,3.37,-3.41,-3.28,-2.92,-1.45,-1.43,-1.40
354.74,1.96,3.34,1.96,3.34,-3.38,-3.24,-2.88,-1.42,-1.42,-1.38
358.28,1.96,3.34,1.95,3.33,-3.34,-3.21,-2.84,-1.38,-1.38,-1.38
361.87,1.96,3.34,1.94,3.32,-3.29,-3.17,-2.80,-1.34,-1.35,-1.38
365.49,1.90,3.27,1.91,3.28,-3.26,-3.13,-2.76,-1.36,-1.34,-1.37
369.14,1.88,3.24,1.88,3.24,-3.22,-3.09,-2.73,-1.35,-1.34,-1.36
372.83,1.85,3.20,1.84,3.20,-3.20,-3.05,-2.70,-1.35,-1.36,-1.35
376.56,1.81,3.17,1.80,3.15,-3.17,-3.01,-2.67,-1.36,-1.37,-1.36
380.33,1.74,3.10,1.75,3.11,-3.13,-2.97,-2.65,-1.40,-1.38,-1.36
384.13,1.71,3.06,1.73,3.08,-3.10,-2.92,-2.62,-1.39,-1.37,-1.35
387.97,1.72,3.07,1.71,3.07,-3.06,-2.88,-2.60,-1.34,-1.35,-1.35
391.85,1.72,3.08,1.70,3.06,-3.03,-2.84,-2.58,-1.31,-1.33,-1.36
395.77,1.67,3.04,1.67,3.03,-3.01,-2.80,-2.56,-1.34,-1.34,-1.37
399.73,1.61,2.98,1.61,2.97,-2.98,-2.76,-2.54,-1.37,-1.37,-1.37
403.72,1.54,2.90,1.55,2.92,-2.95,-2.72,-2.53,-1.41,-1.40,-1.36
407.76,1.51,2.89,1.52,2.90,-2.91,-2.67,-2.51,-1.41,-1.39,-1.38
411.84,1.51,2.90,1.50,2.88,-2.87,-2.63,-2.50,-1.37,-1.38,-1.39
415.96,1.48,2.87,1.46,2.86,-2.83,-2.59,-2.49,-1.35,-1.37,-1.39
420.12,1.42,2.82,1.42,2.81,-2.79,-2.55,-2.48,-1.37,-1.37,-1.40
424.32,1.35,2.74,1.37,2.75,-2.75,-2.51,-2.47,-1.40,-1.38,-1.39
428.56,1.33,2.70,1.33,2.70,-2.72,-2.46,-2.46,-1.39,-1.39,-1.37
432.85,1.32,2.67,1.30,2.66,-2.69,-2.42,-2.45,-1.37,-1.39,-1.35
437.18,1.28,2.62,1.29,2.63,-2.66,-2.38,-2.44,-1.39,-1.37,-1.34
441.55,1.30,2.61,1.31,2.61,-2.63,-2.34,-2.43,-1.33,-1.32,-1.31
445.96,1.34,2.61,1.35,2.62,-2.60,-2.30,-2.42,-1.26,-1.25,-1.27
450.42,1.40,2.63,1.38,2.61,-2.56,-2.25,-2.41,-1.17,-1.18,-1.23
454.93,1.42,2.60,1.39,2.57,-2.53,-2.21,-2.40,-1.11,-1.13,-1.18
459.48,1.36,2.48,1.38,2.50,-2.48,-2.17,-2.38,-1.13,-1.10,-1.12
464.07,1.37,2.42,1.37,2.43,-2.44,-2.13,-2.37,-1.07,-1.06,-1.05
468.71,1.37,2.37,1.37,2.36,-2.39,-2.08,-2.36,-1.02,-1.02,-1.00
473.40,1.39,2.33,1.37,2.31,-2.34,-2.04,-2.34,-0.95,-0.97,-0.94
478.13,1.37,2.25,1.38,2.27,-2.29,-2.00,-2.32,-0.92,-0.91,-0.88
482.91,1.39,2.22,1.40,2.23,-2.24,-1.96,-2.30,-0.85,-0.84,-0.83
487.74,1.43,2.23,1.40,2.19,-2.19,-1.92,-2.28,-0.77,-0.79,-0.80
492.62,1.41,2.17,1.42,2.18,-2.15,-1.87,-2.25,-0.74,-0.73,-0.76
497.55,1.40,2.12,1.42,2.15,-2.11,-1.83,-2.23,-0.71,-0.68,-0.72
502.52,1.44,2.14,1.39,2.08,-2.07,-1.79,-2.20,-0.63,-0.68,-0.70
507.55,1.34,2.01,1.34,2.01,-2.03,-1.75,-2.17,-0.70,-0.69,-0.67
512.62,1.25,1.91,1.29,1.95,-1.99,-1.71,-2.13,-0.75,-0.70,-0.66
517.75,1.26,1.91,1.26,1.91,-1.95,-1.67,-2.10,-0.69,-0.69,-0.65
522.93,1.26,1.91,1.25,1.90,-1.90,-1.63,-2.06,-0.64,-0.65,-0.65
528.16,1.24,1.91,1.22,1.89,-1.85,-1.58,-2.02,-0.61,-0.62,-0.67
