frequency,raw,error,smoothed,error_smoothed,equalization,parametric_eq,fixed_band_eq,equalized_raw,equalized_smoothed,target
20.00,0.45,-1.93,0.43,-1.97,1.97,2.90,0.19,2.42,2.40,2.38
20.20,0.50,-1.92,0.49,-1.94,1.94,2.90,0.19,2.44,2.43,2.42
20.40,0.54,-1.91,0.54,-1.92,1.92,2.88,0.20,2.46,2.46,2.45
20.61,0.59,-1.89,0.59,-1.89,1.89,2.85,0.20,2.48,2.49,2.48
20.81,0.64,-1.88,0.64,-1.87,1.87,2.80,0.21,2.50,2.51,2.52
21.02,0.69,-1.87,0.70,-1.84,1.84,2.74,0.21,2.52,2.53,2.56
21.23,0.74,-1.83,0.75,-1.81,1.81,2.66,0.22,2.54,2.55,2.57
21.44,0.79,-1.80,0.80,-1.77,1.77,2.58,0.23,2.56,2.57,2.59
21.66,0.85,-1.76,0.85,-1.74,1.74,2.49,0.23,2.59,2.59,2.61
21.87,0.90,-1.72,0.90,-1.71,1.71,2.39,0.24,2.60,2.61,2.62
22.09,0.95,-1.68,0.96,-1.67,1.67,2.29,0.25,2.62,2.63,2.63
22.31,1.01,-1.62,1.01,-1.63,1.63,2.18,0.25,2.64,2.64,2.63
22.54,1.07,-1.57,1.06,-1.59,1.59,2.08,0.26,2.65,2.65,2.64
22.76,1.13,-1.52,1.12,-1.54,1.54,1.97,0.27,2.67,2.66,2.65
22.99,1.19,-1.46,1.17,-1.50,1.50,1.87,0.27,2.68,2.67,2.65
23.22,1.23,-1.43,1.22,-1.45,1.45,1.77,0.28,2.68,2.67,2.66
23.45,1.27,-1.40,1.27,-1.40,1.40,1.67,0.29,2.67,2.68,2.67
23.69,1.31,-1.37,1.32,-1.36,1.36,1.58,0.30,2.67,2.68,2.68
23.92,1.36,-1.33,1.36,-1.32,1.32,1.49,0.31,2.68,2.69,2.69
24.16,1.41,-1.29,1.40,-1.29,1.29,1.40,0.31,2.69,2.69,2.70
24.40,1.46,-1.25,1.45,-1.25,1.25,1.32,0.32,2.70,2.69,2.71
24.65,1.51,-1.19,1.49,-1.20,1.20,1.24,0.33,2.71,2.70,2.70
24.89,1.57,-1.13,1.54,-1.16,1.16,1.16,0.34,2.73,2.70,2.70
25.14,1.60,-1.10,1.59,-1.11,1.11,1.09,0.34,2.71,2.70,2.70
25.39,1.63,-1.07,1.63,-1.07,1.07,1.02,0.35,2.70,2.70,2.70
25.65,1.65,-1.05,1.68,-1.02,1.02,0.96,0.36,2.67,2.70,2.70
25.91,1.67,-1.01,1.72,-0.97,0.97,0.90,0.37,2.64,2.70,2.68
26.16,1.73,-0.96,1.77,-0.93,0.93,0.84,0.37,2.66,2.70,2.69
26.43,1.81,-0.88,1.81,-0.88,0.88,0.78,0.38,2.69,2.69,2.69
26.69,1.90,-0.79,1.86,-0.83,0.83,0.73,0.39,2.73,2.69,2.69
26.96,1.98,-0.71,1.91,-0.78,0.78,0.68,0.39,2.76,2.69,2.69
27.23,2.00,-0.69,1.96,-0.73,0.73,0.64,0.40,2.73,2.68,2.69
27.50,2.02,-0.67,2.01,-0.67,0.67,0.59,0.40,2.69,2.68,2.69
27.77,2.04,-0.64,2.06,-0.62,0.62,0.55,0.40,2.66,2.68,2.68
28.05,2.06,-0.62,2.12,-0.56,0.56,0.51,0.41,2.62,2.68,2.68
28.33,2.13,-0.53,2.17,-0.51,0.51,0.47,0.41,2.64,2.68,2.66
28.62,2.19,-0.48,2.21,-0.46,0.46,0.43,0.41,2.65,2.68,2.67
28.90,2.26,-0.41,2.26,-0.41,0.41,0.39,0.41,2.67,2.67,2.67
29.19,2.32,-0.34,2.30,-0.37,0.37,0.36,0.41,2.68,2.67,2.66
29.48,2.38,-0.29,2.35,-0.32,0.32,0.33,0.41,2.70,2.67,2.67
29.78,2.44,-0.23,2.39,-0.27,0.27,0.30,0.40,2.71,2.66,2.67
30.08,2.48,-0.19,2.43,-0.22,0.22,0.27,0.40,2.70,2.66,2.67
30.38,2.49,-0.16,2.48,-0.18,0.18,0.24,0.39,2.66,2.65,2.65
30.68,2.50,-0.15,2.52,-0.13,0.13,0.21,0.38,2.63,2.65,2.65
30.99,2.51,-0.13,2.56,-0.08,0.08,0.18,0.38,2.59,2.64,2.64
31.30,2.58,-0.06,2.60,-0.04,0.04,0.16,0.37,2.61,2.64,2.64
31.61,2.64,-0.00,2.64,0.00,-0.00,0.13,0.36,2.64,2.63,2.64
31.93,2.71,0.09,2.67,0.04,-0.04,0.11,0.34,2.67,2.63,2.62
32.24,2.73,0.12,2.70,0.08,-0.08,0.08,0.33,2.65,2.62,2.61
32.57,2.73,0.12,2.73,0.12,-0.12,0.06,0.31,2.61,2.62,2.61
32.89,2.73,0.12,2.77,0.16,-0.16,0.04,0.30,2.57,2.61,2.61
33.22,2.78,0.17,2.81,0.20,-0.20,0.02,0.28,2.57,2.61,2.61
33.55,2.86,0.26,2.85,0.25,-0.25,-0.00,0.26,2.61,2.60,2.60
33.89,2.93,0.33,2.90,0.30,-0.30,-0.02,0.24,2.63,2.60,2.60
34.23,2.96,0.36,2.94,0.34,-0.34,-0.05,0.22,2.61,2.59,2.60
34.57,2.96,0.37,2.97,0.38,-0.38,-0.07,0.20,2.57,2.59,2.59
34.92,2.96,0.38,3.00,0.42,-0.42,-0.08,0.18,2.54,2.58,2.58
35.27,3.02,0.44,3.03,0.46,-0.46,-0.10,0.15,2.56,2.58,2.58
35.62,3.10,0.53,3.07,0.50,-0.50,-0.12,0.13,2.60,2.57,2.57
35.97,3.17,0.61,3.11,0.54,-0.54,-0.14,0.11,2.63,2.57,2.56
36.33,3.18,0.62,3.15,0.59,-0.59,-0.16,0.08,2.59,2.56,2.56
36.70,3.19,0.63,3.19,0.63,-0.63,-0.18,0.05,2.55,2.55,2.56
37.06,3.19,0.65,3.21,0.67,-0.67,-0.20,0.03,2.52,2.55,2.54
37.43,3.21,0.67,3.24,0.70,-0.70,-0.22,0.00,2.51,2.54,2.54
37.81,3.23,0.70,3.26,0.73,-0.73,-0.23,-0.03,2.50,2.53,2.53
38.19,3.27,0.75,3.29,0.76,-0.76,-0.25,-0.05,2.50,2.53,2.52
38.57,3.34,0.82,3.32,0.80,-0.80,-0.27,-0.08,2.54,2.52,2.52
38.95,3.41,0.90,3.35,0.84,-0.84,-0.29,-0.11,2.57,2.51,2.51
39.34,3.42,0.92,3.38,0.87,-0.87,-0.30,-0.14,2.54,2.51,2.50
39.74,3.42,0.94,3.40,0.90,-0.90,-0.32,-0.17,2.51,2.50,2.48
40.14,3.42,0.93,3.43,0.94,-0.94,-0.34,-0.20,2.48,2.49,2.49
40.54,3.42,0.94,3.46,0.98,-0.98,-0.36,-0.23,2.44,2.48,2.48
40.94,3.42,0.94,3.49,1.02,-1.02,-0.37,-0.26,2.40,2.47,2.48
41.35,3.50,1.04,3.52,1.07,-1.07,-0.39,-0.29,2.43,2.45,2.46
41.76,3.59,1.15,3.55,1.12,-1.12,-0.41,-0.32,2.47,2.43,2.44
42.18,3.64,1.21,3.59,1.17,-1.17,-0.43,-0.35,2.47,2.41,2.43
42.60,3.64,1.24,3.62,1.23,-1.23,-0.44,-0.38,2.41,2.39,2.40
43.03,3.64,1.25,3.65,1.28,-1.28,-0.46,-0.41,2.36,2.37,2.39
43.46,3.64,1.28,3.68,1.34,-1.34,-0.48,-0.44,2.30,2.34,2.36
43.90,3.64,1.33,3.72,1.40,-1.40,-0.50,-0.47,2.24,2.32,2.31
44.33,3.72,1.44,3.75,1.46,-1.46,-0.52,-0.50,2.26,2.29,2.28
44.78,3.82,1.57,3.78,1.52,-1.52,-0.54,-0.53,2.30,2.26,2.25
45.23,3.87,1.65,3.80,1.57,-1.57,-0.55,-0.56,2.30,2.23,2.22
45.68,3.87,1.68,3.82,1.61,-1.61,-0.57,-0.59,2.26,2.21,2.19
46.13,3.87,1.70,3.83,1.64,-1.64,-0.59,-0.63,2.23,2.19,2.17
46.60,3.87,1.71,3.83,1.67,-1.67,-0.61,-0.66,2.20,2.17,2.16
47.06,3.87,1.73,3.85,1.70,-1.70,-0.63,-0.69,2.17,2.15,2.14
47.53,3.87,1.73,3.88,1.73,-1.73,-0.65,-0.72,2.13,2.14,2.14
48.01,3.87,1.73,3.89,1.76,-1.76,-0.67,-0.76,2.11,2.13,2.14
48.49,3.87,1.75,3.91,1.78,-1.78,-0.69,-0.79,2.09,2.13,2.12
48.97,3.87,1.76,3.92,1.79,-1.79,-0.71,-0.82,2.08,2.12,2.11
49.46,3.87,1.77,3.92,1.79,-1.79,-0.73,-0.86,2.07,2.12,2.10
49.96,3.87,1.77,3.91,1.80,-1.80,-0.75,-0.89,2.07,2.12,2.10
50.46,3.89,1.78,3.92,1.80,-1.80,-0.77,-0.93,2.08,2.11,2.11
50.96,3.92,1.80,3.92,1.81,-1.81,-0.80,-0.96,2.10,2.10,2.12
51.47,4.01,1.90,3.93,1.83,-1.83,-0.82,-1.00,2.18,2.09,2.11
51.99,4.10,2.01,3.94,1.86,-1.86,-0.84,-1.03,2.24,2.08,2.09
52.51,3.98,1.90,3.94,1.88,-1.88,-0.86,-1.07,2.10,2.06,2.08
53.03,3.87,1.82,3.93,1.90,-1.90,-0.89,-1.10,1.97,2.03,2.05
53.56,3.87,1.85,3.92,1.92,-1.92,-0.91,-1.14,1.95,2.00,2.02
54.10,3.87,1.89,3.91,1.94,-1.94,-0.93,-1.18,1.93,1.97,1.98
54.64,3.87,1.94,3.89,1.96,-1.96,-0.96,-1.21,1.91,1.93,1.93
55.18,3.87,1.99,3.86,1.98,-1.98,-0.98,-1.25,1.89,1.88,1.88
55.74,3.87,2.04,3.84,2.00,-2.00,-1.01,-1.29,1.87,1.83,1.83
56.29,3.87,2.09,3.80,2.03,-2.03,-1.04,-1.32,1.84,1.78,1.78
56.86,3.87,2.15,3.77,2.05,-2.05,-1.06,-1.36,1.82,1.72,1.72
57.42,3.77,2.12,3.74,2.08,-2.08,-1.09,-1.40,1.69,1.66,1.65
58.00,3.64,2.05,3.72,2.12,-2.12,-1.12,-1.43,1.52,1.60,1.59
58.58,3.64,2.11,3.70,2.17,-2.17,-1.14,-1.47,1.47,1.54,1.53
59.16,3.64,2.16,3.69,2.21,-2.21,-1.17,-1.51,1.42,1.48,1.48
59.76,3.64,2.22,3.68,2.26,-2.26,-1.20,-1.54,1.37,1.41,1.42
60.35,3.64,2.29,3.67,2.32,-2.32,-1.23,-1.58,1.32,1.35,1.35
60.96,3.64,2.34,3.66,2.37,-2.37,-1.26,-1.62,1.27,1.29,1.30
61.57,3.64,2.41,3.66,2.42,-2.42,-1.29,-1.66,1.21,1.23,1.23
62.18,3.64,2.48,3.65,2.48,-2.48,-1.32,-1.69,1.16,1.18,1.16
62.80,3.64,2.52,3.65,2.52,-2.52,-1.36,-1.73,1.11,1.12,1.12
63.43,3.64,2.58,3.65,2.58,-2.58,-1.39,-1.77,1.06,1.07,1.06
64.07,3.64,2.62,3.65,2.62,-2.62,-1.42,-1.80,1.01,1.02,1.02
64.71,3.64,2.67,3.64,2.66,-2.66,-1.46,-1.84,0.98,0.98,0.97
65.35,3.64,2.72,3.60,2.67,-2.67,-1.49,-1.88,0.97,0.93,0.92
66.01,3.64,2.75,3.56,2.66,-2.66,-1.53,-1.92,0.97,0.89,0.89
66.67,3.49,2.64,3.49,2.64,-2.64,-1.56,-1.96,0.85,0.86,0.85
67.33,3.39,2.57,3.41,2.59,-2.59,-1.60,-2.00,0.80,0.82,0.82
68.01,3.32,2.53,3.31,2.53,-2.53,-1.64,-2.04,0.79,0.79,0.79
68.69,3.21,2.45,3.19,2.43,-2.43,-1.68,-2.08,0.78,0.76,0.76
69.37,3.08,2.36,3.03,2.30,-2.30,-1.72,-2.12,0.78,0.73,0.72
70.07,2.94,2.25,2.84,2.14,-2.14,-1.76,-2.16,0.80,0.70,0.69
70.77,2.71,2.03,2.62,1.95,-1.95,-1.80,-2.20,0.76,0.67,0.68
71.48,2.46,1.82,2.38,1.74,-1.74,-1.84,-2.25,0.72,0.64,0.64
72.19,2.20,1.58,2.12,1.51,-1.51,-1.89,-2.29,0.69,0.61,0.62
72.91,1.94,1.36,1.84,1.27,-1.27,-1.93,-2.34,0.67,0.58,0.58
73.64,1.68,1.13,1.57,1.02,-1.02,-1.98,-2.39,0.66,0.55,0.55
74.38,1.38,0.86,1.29,0.77,-0.77,-2.03,-2.44,0.61,0.52,0.52
75.12,1.05,0.56,1.01,0.52,-0.52,-2.07,-2.49,0.52,0.49,0.49
75.87,0.68,0.22,0.75,0.29,-0.29,-2.12,-2.54,0.38,0.46,0.46
76.63,0.40,-0.03,0.53,0.10,-0.10,-2.17,-2.60,0.30,0.43,0.43
77.40,0.23,-0.17,0.34,-0.06,0.06,-2.22,-2.65,0.29,0.41,0.40
78.17,0.13,-0.24,0.21,-0.17,0.17,-2.27,-2.71,0.30,0.38,0.37
78.95,0.01,-0.35,0.13,-0.23,0.23,-2.33,-2.77,0.24,0.36,0.36
79.74,-0.00,-0.34,0.12,-0.23,0.23,-2.38,-2.84,0.22,0.34,0.34
80.54,-0.00,-0.32,0.16,-0.16,0.16,-2.44,-2.90,0.16,0.33,0.32
81.35,0.05,-0.25,0.26,-0.05,0.05,-2.49,-2.97,0.10,0.31,0.30
82.16,0.20,-0.10,0.42,0.12,-0.12,-2.55,-3.04,0.08,0.30,0.30
82.98,0.55,0.25,0.63,0.33,-0.33,-2.61,-3.11,0.22,0.30,0.30
83.81,0.89,0.60,0.88,0.58,-0.58,-2.67,-3.19,0.31,0.29,0.29
84.65,1.20,0.92,1.16,0.87,-0.87,-2.73,-3.26,0.33,0.29,0.28
85.50,1.55,1.26,1.47,1.18,-1.18,-2.80,-3.34,0.37,0.29,0.29
86.35,1.91,1.62,1.79,1.49,-1.49,-2.86,-3.43,0.42,0.29,0.29
87.22,2.23,1.94,2.11,1.82,-1.82,-2.93,-3.51,0.41,0.30,0.29
88.09,2.58,2.29,2.44,2.15,-2.15,-3.00,-3.60,0.43,0.30,0.29
88.97,2.84,2.53,2.76,2.47,-2.47,-3.06,-3.69,0.37,0.30,0.31
89.86,3.10,2.79,3.07,2.77,-2.77,-3.13,-3.78,0.32,0.30,0.31
90.76,3.37,3.08,3.36,3.06,-3.06,-3.21,-3.88,0.30,0.29,0.29
91.66,3.60,3.30,3.61,3.32,-3.32,-3.28,-3.98,0.27,0.29,0.30
92.58,3.84,3.57,3.84,3.56,-3.56,-3.35,-4.08,0.28,0.28,0.27
93.51,4.13,3.85,4.05,3.78,-3.78,-3.43,-4.19,0.34,0.27,0.28
94.44,4.31,4.05,4.24,3.99,-3.99,-3.51,-4.29,0.32,0.26,0.26
95.39,4.43,4.18,4.41,4.17,-4.17,-3.59,-4.40,0.25,0.24,0.25
96.34,4.59,4.38,4.57,4.35,-4.35,-3.67,-4.51,0.24,0.22,0.21
97.30,4.70,4.51,4.71,4.51,-4.51,-3.75,-4.63,0.19,0.20,0.19
98.28,4.83,4.66,4.84,4.66,-4.66,-3.83,-4.74,0.16,0.18,0.17
99.26,4.98,4.84,4.96,4.81,-4.81,-3.92,-4.86,0.17,0.14,0.14
100.25,5.02,4.91,5.07,4.95,-4.95,-4.01,-4.98,0.06,0.11,0.11
101.25,5.09,5.01,5.16,5.08,-5.08,-4.09,-5.10,0.01,0.08,0.08
102.27,5.24,5.20,5.25,5.21,-5.21,-4.18,-5.22,0.03,0.03,0.04
103.29,5.24,5.25,5.32,5.33,-5.33,-4.27,-5.35,-0.09,-0.01,-0.01
104.32,5.29,5.34,5.37,5.43,-5.43,-4.37,-5.47,-0.15,-0.06,-0.05
105.37,5.41,5.51,5.41,5.52,-5.52,-4.46,-5.59,-0.12,-0.11,-0.10
106.42,5.47,5.62,5.43,5.60,-5.60,-4.55,-5.71,-0.13,-0.17,-0.15
107.48,5.47,5.69,5.42,5.65,-5.65,-4.65,-5.83,-0.19,-0.23,-0.22
108.56,5.47,5.77,5.39,5.69,-5.69,-4.75,-5.95,-0.22,-0.30,-0.30
109.64,5.47,5.84,5.33,5.70,-5.70,-4.84,-6.06,-0.23,-0.37,-0.37
110.74,5.46,5.89,5.26,5.69,-5.69,-4.94,-6.18,-0.24,-0.44,-0.43
111.85,5.27,5.77,5.16,5.67,-5.67,-5.04,-6.28,-0.40,-0.51,-0.50
112.97,5.22,5.81,5.05,5.63,-5.63,-5.14,-6.39,-0.42,-0.58,-0.59
114.10,4.97,5.62,4.93,5.59,-5.59,-5.24,-6.48,-0.62,-0.65,-0.65
115.24,4.75,5.48,4.82,5.55,-5.55,-5.34,-6.57,-0.80,-0.72,-0.73
116.39,4.63,5.44,4.72,5.51,-5.51,-5.44,-6.66,-0.88,-0.79,-0.81
117.55,4.54,5.41,4.63,5.48,-5.48,-5.54,-6.73,-0.95,-0.85,-0.87
118.73,4.38,5.32,4.56,5.47,-5.47,-5.64,-6.80,-1.09,-0.91,-0.94
119.92,4.33,5.31,4.50,5.47,-5.47,-5.74,-6.86,-1.14,-0.97,-0.98
121.12,4.33,5.37,4.47,5.49,-5.49,-5.84,-6.90,-1.16,-1.02,-1.04
122.33,4.33,5.41,4.47,5.54,-5.54,-5.94,-6.94,-1.21,-1.06,-1.08
123.55,4.43,5.53,4.51,5.61,-5.61,-6.04,-6.97,-1.19,-1.11,-1.10
124.79,4.55,5.69,4.57,5.72,-5.72,-6.13,-6.98,-1.17,-1.15,-1.14
126.03,4.71,5.89,4.66,5.84,-5.84,-6.23,-6.99,-1.13,-1.18,-1.18
127.29,4.83,6.04,4.76,5.98,-5.98,-6.32,-6.98,-1.15,-1.22,-1.21
128.57,4.96,6.21,4.87,6.12,-6.12,-6.41,-6.96,-1.16,-1.25,-1.25
129.85,5.01,6.29,4.98,6.26,-6.26,-6.49,-6.94,-1.25,-1.28,-1.28
131.15,5.06,6.37,5.08,6.40,-6.40,-6.58,-6.90,-1.34,-1.31,-1.31
132.46,5.19,6.53,5.18,6.53,-6.53,-6.66,-6.85,-1.34,-1.35,-1.34
133.79,5.38,6.75,5.27,6.65,-6.65,-6.73,-6.80,-1.27,-1.38,-1.37
135.12,5.47,6.89,5.34,6.75,-6.75,-6.80,-6.73,-1.28,-1.41,-1.42
136.48,5.47,6.92,5.40,6.84,-6.84,-6.87,-6.66,-1.37,-1.44,-1.45
137.84,5.47,6.95,5.44,6.92,-6.92,-6.93,-6.59,-1.46,-1.48,-1.48
139.22,5.47,7.00,5.48,7.00,-7.00,-6.98,-6.50,-1.53,-1.52,-1.53
140.61,5.47,7.05,5.51,7.07,-7.07,-7.03,-6.41,-1.60,-1.55,-1.58
142.02,5.47,7.07,5.55,7.14,-7.14,-7.08,-6.32,-1.68,-1.60,-1.60
143.44,5.47,7.11,5.57,7.22,-7.22,-7.12,-6.23,-1.75,-1.64,-1.64
144.87,5.47,7.15,5.60,7.29,-7.29,-7.15,-6.13,-1.82,-1.69,-1.68
146.32,5.47,7.20,5.59,7.34,-7.34,-7.17,-6.03,-1.88,-1.75,-1.73
147.78,5.47,7.24,5.56,7.37,-7.37,-7.19,-5.92,-1.90,-1.81,-1.77
149.26,5.47,7.31,5.49,7.36,-7.36,-7.20,-5.82,-1.89,-1.87,-1.84
150.75,5.47,7.39,5.37,7.31,-7.31,-7.20,-5.72,-1.84,-1.94,-1.92
152.26,5.45,7.44,5.21,7.21,-7.21,-7.20,-5.62,-1.77,-2.01,-1.99
153.78,5.31,7.37,5.01,7.09,-7.09,-7.19,-5.51,-1.78,-2.08,-2.06
155.32,5.20,7.36,4.79,6.94,-6.94,-7.17,-5.41,-1.74,-2.15,-2.16
156.88,5.00,7.23,4.55,6.78,-6.78,-7.15,-5.31,-1.78,-2.22,-2.23
158.44,4.62,6.92,4.33,6.62,-6.62,-7.11,-5.22,-2.00,-2.29,-2.30
160.03,4.23,6.61,4.12,6.48,-6.48,-7.08,-5.12,-2.25,-2.36,-2.38
161.63,3.78,6.22,3.93,6.35,-6.35,-7.03,-5.03,-2.57,-2.42,-2.44
163.24,3.35,5.84,3.77,6.24,-6.24,-6.98,-4.94,-2.89,-2.47,-2.49
164.88,3.02,5.55,3.64,6.15,-6.15,-6.93,-4.85,-3.13,-2.51,-2.53
166.53,2.83,5.40,3.54,6.08,-6.08,-6.87,-4.77,-3.26,-2.55,-2.57
168.19,2.97,5.57,3.48,6.05,-6.05,-6.80,-4.69,-3.09,-2.57,-2.60
169.87,3.23,5.84,3.47,6.06,-6.06,-6.73,-4.61,-2.84,-2.59,-2.61
171.57,3.49,6.11,3.50,6.10,-6.10,-6.66,-4.53,-2.61,-2.60,-2.62
173.29,3.75,6.37,3.56,6.16,-6.16,-6.58,-4.46,-2.42,-2.61,-2.62
175.02,4.01,6.61,3.64,6.25,-6.25,-6.50,-4.39,-2.25,-2.61,-2.60
176.77,4.09,6.70,3.74,6.36,-6.36,-6.41,-4.33,-2.27,-2.61,-2.61
178.54,4.10,6.70,3.84,6.46,-6.46,-6.33,-4.27,-2.36,-2.61,-2.60
180.32,4.10,6.69,3.93,6.54,-6.54,-6.24,-4.21,-2.45,-2.61,-2.59
182.13,4.10,6.69,3.99,6.60,-6.60,-6.15,-4.15,-2.50,-2.61,-2.59
183.95,4.10,6.69,4.00,6.62,-6.62,-6.05,-4.10,-2.52,-2.61,-2.59
185.79,4.10,6.70,3.97,6.59,-6.59,-5.96,-4.05,-2.49,-2.62,-2.60
187.65,3.94,6.56,3.88,6.51,-6.51,-5.86,-4.01,-2.57,-2.63,-2.62
189.52,3.70,6.34,3.77,6.41,-6.41,-5.76,-3.96,-2.71,-2.64,-2.64
191.42,3.59,6.25,3.66,6.31,-6.31,-5.67,-3.92,-2.72,-2.65,-2.66
193.33,3.47,6.15,3.53,6.20,-6.20,-5.57,-3.89,-2.74,-2.67,-2.68
195.27,3.31,5.99,3.41,6.10,-6.10,-5.47,-3.85,-2.79,-2.69,-2.68
197.22,3.21,5.91,3.29,6.00,-6.00,-5.37,-3.82,-2.79,-2.70,-2.70
199.19,3.05,5.79,3.18,5.90,-5.90,-5.27,-3.79,-2.85,-2.72,-2.74
201.18,2.96,5.70,3.06,5.80,-5.80,-5.18,-3.76,-2.85,-2.74,-2.74
203.19,2.92,5.68,2.94,5.70,-5.70,-5.08,-3.74,-2.79,-2.76,-2.76
205.23,2.79,5.58,2.82,5.60,-5.60,-4.98,-3.72,-2.81,-2.78,-2.79
207.28,2.73,5.52,2.71,5.51,-5.51,-4.89,-3.70,-2.78,-2.80,-2.79
209.35,2.73,5.54,2.60,5.41,-5.41,-4.79,-3.68,-2.68,-2.81,-2.81
211.44,2.61,5.45,2.48,5.30,-5.30,-4.70,-3.66,-2.70,-2.83,-2.84
213.56,2.36,5.20,2.34,5.18,-5.18,-4.61,-3.64,-2.83,-2.84,-2.84
215.69,2.28,5.12,2.20,5.06,-5.06,-4.51,-3.62,-2.78,-2.85,-2.84
217.85,2.07,4.94,2.06,4.93,-4.93,-4.42,-3.61,-2.86,-2.87,-2.87
220.03,1.96,4.84,1.91,4.79,-4.79,-4.34,-3.59,-2.83,-2.88,-2.88
222.23,1.77,4.67,1.75,4.64,-4.64,-4.25,-3.58,-2.87,-2.89,-2.90
224.45,1.51,4.41,1.58,4.48,-4.48,-4.16,-3.56,-2.97,-2.90,-2.90
226.70,1.38,4.28,1.41,4.31,-4.31,-4.08,-3.55,-2.93,-2.90,-2.90
228.96,1.21,4.12,1.23,4.14,-4.14,-4.00,-3.53,-2.94,-2.91,-2.91
231.25,0.98,3.89,1.05,3.97,-3.97,-3.91,-3.52,-2.99,-2.92,-2.91
233.57,0.88,3.80,0.88,3.80,-3.80,-3.83,-3.50,-2.92,-2.92,-2.92
235.90,0.69,3.62,0.71,3.63,-3.63,-3.75,-3.48,-2.95,-2.92,-2.93
238.26,0.57,3.50,0.56,3.48,-3.48,-3.68,-3.46,-2.92,-2.92,-2.93
240.64,0.47,3.40,0.41,3.33,-3.33,-3.60,-3.44,-2.86,-2.92,-2.93
243.05,0.29,3.21,0.26,3.18,-3.18,-3.53,-3.42,-2.89,-2.92,-2.92
245.48,0.06,2.97,0.12,3.04,-3.04,-3.46,-3.39,-2.98,-2.91,-2.91
247.93,-0.00,2.90,-0.01,2.90,-2.90,-3.39,-3.36,-2.90,-2.91,-2.90
250.41,-0.19,2.72,-0.14,2.76,-2.76,-3.32,-3.34,-2.96,-2.90,-2.91
252.92,-0.28,2.62,-0.27,2.63,-2.63,-3.25,-3.30,-2.91,-2.90,-2.90
255.45,-0.43,2.44,-0.39,2.49,-2.49,-3.18,-3.27,-2.92,-2.89,-2.87
258.00,-0.46,2.41,-0.52,2.36,-2.36,-3.12,-3.23,-2.82,-2.88,-2.87
260.58,-0.60,2.27,-0.65,2.21,-2.21,-3.05,-3.20,-2.82,-2.87,-2.87
263.19,-0.69,2.16,-0.77,2.08,-2.08,-2.99,-3.16,-2.77,-2.85,-2.85
265.82,-0.89,1.96,-0.89,1.95,-1.95,-2.93,-3.12,-2.84,-2.84,-2.85
268.48,-0.97,1.85,-1.00,1.83,-1.83,-2.87,-3.07,-2.80,-2.82,-2.82
271.16,-1.10,1.71,-1.10,1.70,-1.70,-2.81,-3.03,-2.81,-2.80,-2.81
273.87,-1.22,1.58,-1.20,1.59,-1.59,-2.76,-2.98,-2.81,-2.78,-2.80
276.61,-1.35,1.41,-1.30,1.46,-1.46,-2.70,-2.93,-2.82,-2.76,-2.76
279.38,-1.37,1.38,-1.39,1.35,-1.35,-2.65,-2.89,-2.72,-2.74,-2.75
282.17,-1.54,1.18,-1.48,1.24,-1.24,-2.60,-2.84,-2.78,-2.72,-2.72
284.99,-1.60,1.09,-1.55,1.14,-1.14,-2.55,-2.79,-2.74,-2.69,-2.69
287.84,-1.60,1.07,-1.62,1.04,-1.04,-2.50,-2.74,-2.64,-2.66,-2.67
290.72,-1.60,1.03,-1.68,0.95,-0.95,-2.45,-2.69,-2.56,-2.63,-2.63
293.63,-1.71,0.90,-1.73,0.88,-0.88,-2.40,-2.63,-2.59,-2.61,-2.61
296.57,-1.81,0.77,-1.76,0.82,-0.82,-2.36,-2.58,-2.63,-2.58,-2.58
299.53,-1.83,0.72,-1.79,0.77,-0.77,-2.31,-2.53,-2.60,-2.56,-2.55
302.53,-1.83,0.71,-1.82,0.72,-0.72,-2.27,-2.48,-2.55,-2.53,-2.54
305.55,-1.83,0.67,-1.84,0.67,-0.67,-2.22,-2.43,-2.51,-2.51,-2.50
308.61,-1.83,0.65,-1.85,0.64,-0.64,-2.18,-2.38,-2.47,-2.50,-2.48
311.69,-1.83,0.64,-1.86,0.62,-0.62,-2.14,-2.33,-2.45,-2.48,-2.47
314.81,-1.83,0.61,-1.85,0.61,-0.61,-2.10,-2.28,-2.44,-2.47,-2.44
317.96,-1.83,0.61,-1.85,0.61,-0.61,-2.07,-2.24,-2.44,-2.45,-2.44
321.14,-1.83,0.62,-1.84,0.61,-0.61,-2.03,-2.19,-2.44,-2.44,-2.45
324.35,-1.83,0.61,-1.82,0.62,-0.62,-1.99,-2.15,-2.45,-2.43,-2.44
327.59,-1.83,0.60,-1.80,0.63,-0.63,-1.96,-2.10,-2.46,-2.42,-2.43
330.87,-1.83,0.59,-1.78,0.63,-0.63,-1.92,-2.06,-2.47,-2.41,-2.42
334.18,-1.83,0.59,-1.76,0.64,-0.64,-1.89,-2.02,-2.48,-2.40,-2.42
337.52,-1.70,0.71,-1.73,0.66,-0.66,-1.86,-1.98,-2.36,-2.39,-2.41
340.90,-1.62,0.76,-1.70,0.68,-0.68,-1.83,-1.94,-2.30,-2.38,-2.38
344.30,-1.60,0.77,-1.67,0.69,-0.69,-1.80,-1.90,-2.30,-2.36,-2.37
347.75,-1.60,0.76,-1.64,0.71,-0.71,-1.77,-1.86,-2.31,-2.35,-2.36
351.23,-1.60,0.73,-1.60,0.73,-0.73,-1.74,-1.83,-2.33,-2.33,-2.33
354.74,-1.60,0.71,-1.57,0.73,-0.73,-1.71,-1.79,-2.34,-2.31,-2.31
358.28,-1.60,0.68,-1.54,0.74,-0.74,-1.68,-1.76,-2.34,-2.28,-2.28
361.87,-1.60,0.66,-1.51,0.75,-0.75,-1.66,-1.73,-2.35,-2.26,-2.26
365.49,-1.43,0.81,-1.48,0.75,-0.75,-1.63,-1.70,-2.19,-2.24,-2.24
369.14,-1.38,0.84,-1.45,0.76,-0.76,-1.61,-1.67,-2.15,-2.21,-2.22
372.83,-1.37,0.82,-1.42,0.77,-0.77,-1.58,-1.64,-2.15,-2.19,-2.19
376.56,-1.37,0.80,-1.40,0.77,-0.77,-1.56,-1.62,-2.14,-2.17,-2.17
380.33,-1.37,0.77,-1.38,0.77,-0.77,-1.54,-1.59,-2.15,-2.15,-2.14
384.13,-1.37,0.75,-1.35,0.79,-0.79,-1.51,-1.57,-2.16,-2.14,-2.12
387.97,-1.37,0.74,-1.31,0.81,-0.81,-1.49,-1.55,-2.18,-2.12,-2.11
391.85,-1.36,0.75,-1.27,0.83,-0.83,-1.47,-1.52,-2.19,-2.11,-2.11
395.77,-1.20,0.90,-1.24,0.85,-0.85,-1.45,-1.50,-2.05,-2.09,-2.10
399.73,-1.14,0.95,-1.21,0.87,-0.87,-1.43,-1.48,-2.02,-2.08,-2.09
403.72,-1.14,0.94,-1.17,0.90,-0.90,-1.42,-1.47,-2.04,-2.08,-2.08
407.76,-1.14,0.93,-1.14,0.93,-0.93,-1.40,-1.45,-2.07,-2.07,-2.07
411.84,-1.14,0.92,-1.09,0.97,-0.97,-1.38,-1.43,-2.11,-2.06,-2.06
415.96,-1.14,0.91,-1.05,1.01,-1.01,-1.36,-1.42,-2.15,-2.06,-2.05
420.12,-0.96,1.09,-1.01,1.05,-1.05,-1.35,-1.40,-2.01,-2.06,-2.05
424.32,-0.91,1.14,-0.96,1.10,-1.10,-1.33,-1.39,-2.01,-2.06,-2.05
428.56,-0.91,1.14,-0.91,1.14,-1.14,-1.32,-1.38,-2.06,-2.05,-2.05
432.85,-0.91,1.15,-0.87,1.18,-1.18,-1.30,-1.36,-2.09,-2.05,-2.06
437.18,-0.81,1.24,-0.83,1.22,-1.22,-1.29,-1.35,-2.03,-2.04,-2.05
441.55,-0.72,1.32,-0.79,1.25,-1.25,-1.28,-1.34,-1.98,-2.04,-2.04
445.96,-0.69,1.35,-0.73,1.30,-1.30,-1.26,-1.33,-1.99,-2.03,-2.04
450.42,-0.69,1.34,-0.68,1.34,-1.34,-1.25,-1.32,-2.03,-2.02,-2.03
454.93,-0.69,1.33,-0.64,1.38,-1.38,-1.24,-1.31,-2.07,-2.01,-2.02
459.48,-0.64,1.37,-0.58,1.42,-1.42,-1.23,-1.30,-2.06,-2.00,-2.01
464.07,-0.49,1.50,-0.53,1.45,-1.45,-1.22,-1.29,-1.94,-1.99,-1.99
468.71,-0.46,1.51,-0.49,1.48,-1.48,-1.21,-1.28,-1.94,-1.97,-1.97
473.40,-0.46,1.50,-0.43,1.52,-1.52,-1.20,-1.28,-1.98,-1.95,-1.96
478.13,-0.46,1.47,-0.37,1.56,-1.56,-1.19,-1.27,-2.02,-1.93,-1.93
482.91,-0.28,1.63,-0.32,1.59,-1.59,-1.18,-1.26,-1.87,-1.90,-1.91
487.74,-0.23,1.65,-0.27,1.61,-1.61,-1.17,-1.25,-1.85,-1.88,-1.88
492.62,-0.23,1.62,-0.22,1.64,-1.64,-1.17,-1.24,-1.87,-1.86,-1.85
497.55,-0.23,1.60,-0.18,1.65,-1.65,-1.16,-1.24,-1.88,-1.83,-1.83
