frequency,raw,error,smoothed,error_smoothed,equalization,parametric_eq,fixed_band_eq,equalized_raw,equalized_smoothed,target
20.00,0.45,-3.07,0.43,-3.10,3.10,2.66,0.60,3.55,3.53,3.51
20.20,0.50,-3.06,0.49,-3.08,3.08,2.69,0.62,3.57,3.56,3.55
20.40,0.54,-3.05,0.54,-3.05,3.05,2.71,0.64,3.59,3.59,3.58
20.61,0.59,-3.03,0.59,-3.03,3.03,2.73,0.66,3.61,3.62,3.61
20.81,0.64,-3.02,0.64,-3.00,3.00,2.74,0.68,3.64,3.64,3.65
21.02,0.69,-3.00,0.70,-2.97,2.97,2.75,0.70,3.66,3.67,3.69
21.23,0.74,-2.96,0.75,-2.94,2.94,2.75,0.73,3.68,3.69,3.70
21.44,0.79,-2.93,0.80,-2.91,2.91,2.74,0.75,3.70,3.71,3.72
21.66,0.85,-2.89,0.85,-2.87,2.87,2.73,0.78,3.72,3.73,3.74
21.87,0.90,-2.85,0.90,-2.84,2.84,2.72,0.80,3.74,3.74,3.75
22.09,0.95,-2.82,0.96,-2.80,2.80,2.70,0.83,3.75,3.76,3.77
22.31,1.01,-2.76,1.01,-2.77,2.77,2.68,0.85,3.78,3.77,3.77
22.54,1.07,-2.71,1.06,-2.72,2.72,2.65,0.88,3.79,3.78,3.78
22.76,1.13,-2.66,1.12,-2.68,2.68,2.62,0.91,3.81,3.79,3.79
22.99,1.19,-2.60,1.17,-2.63,2.63,2.58,0.94,3.82,3.80,3.79
23.22,1.23,-2.57,1.22,-2.58,2.58,2.54,0.97,3.81,3.81,3.80
23.45,1.27,-2.54,1.27,-2.54,2.54,2.50,1.00,3.81,3.81,3.81
23.69,1.31,-2.51,1.32,-2.50,2.50,2.45,1.03,3.80,3.82,3.81
23.92,1.36,-2.47,1.36,-2.46,2.46,2.40,1.06,3.82,3.82,3.82
24.16,1.41,-2.43,1.40,-2.42,2.42,2.35,1.09,3.83,3.82,3.83
24.40,1.46,-2.38,1.45,-2.38,2.38,2.29,1.13,3.84,3.83,3.84
24.65,1.51,-2.32,1.49,-2.33,2.33,2.24,1.16,3.84,3.83,3.83
24.89,1.57,-2.26,1.54,-2.29,2.29,2.18,1.19,3.86,3.83,3.83
25.14,1.60,-2.23,1.59,-2.24,2.24,2.12,1.22,3.84,3.83,3.83
25.39,1.63,-2.20,1.63,-2.20,2.20,2.06,1.26,3.83,3.83,3.83
25.65,1.65,-2.18,1.68,-2.15,2.15,2.00,1.29,3.80,3.83,3.83
25.91,1.67,-2.15,1.72,-2.10,2.10,1.95,1.32,3.77,3.83,3.82
26.16,1.73,-2.10,1.77,-2.06,2.06,1.89,1.36,3.79,3.83,3.83
26.43,1.81,-2.02,1.81,-2.01,2.01,1.83,1.39,3.82,3.82,3.82
26.69,1.90,-1.92,1.86,-1.96,1.96,1.77,1.42,3.86,3.82,3.82
26.96,1.98,-1.84,1.91,-1.91,1.91,1.71,1.45,3.89,3.82,3.82
27.23,2.00,-1.82,1.96,-1.86,1.86,1.65,1.48,3.86,3.81,3.82
27.50,2.02,-1.80,2.01,-1.80,1.80,1.59,1.51,3.82,3.81,3.82
27.77,2.04,-1.77,2.06,-1.75,1.75,1.54,1.54,3.79,3.81,3.81
28.05,2.06,-1.75,2.12,-1.69,1.69,1.48,1.56,3.75,3.81,3.81
28.33,2.13,-1.67,2.17,-1.64,1.64,1.43,1.59,3.77,3.81,3.79
28.62,2.19,-1.62,2.21,-1.59,1.59,1.38,1.61,3.78,3.80,3.80
28.90,2.26,-1.54,2.26,-1.54,1.54,1.33,1.63,3.80,3.80,3.80
29.19,2.32,-1.47,2.30,-1.49,1.49,1.27,1.65,3.81,3.80,3.79
29.48,2.38,-1.42,2.35,-1.44,1.44,1.23,1.66,3.82,3.79,3.80
29.78,2.44,-1.36,2.39,-1.40,1.40,1.18,1.67,3.83,3.79,3.79
30.08,2.48,-1.32,2.43,-1.35,1.35,1.13,1.68,3.83,3.78,3.79
30.38,2.49,-1.29,2.48,-1.30,1.30,1.08,1.69,3.79,3.78,3.78
30.68,2.50,-1.28,2.52,-1.26,1.26,1.04,1.70,3.75,3.77,3.78
30.99,2.51,-1.26,2.56,-1.21,1.21,1.00,1.70,3.72,3.77,3.77
31.30,2.58,-1.19,2.60,-1.16,1.16,0.95,1.69,3.74,3.76,3.76
31.61,2.64,-1.12,2.64,-1.12,1.12,0.91,1.69,3.76,3.76,3.76
31.93,2.71,-1.04,2.67,-1.08,1.08,0.87,1.68,3.79,3.75,3.75
32.24,2.73,-1.01,2.70,-1.05,1.05,0.83,1.67,3.77,3.75,3.74
32.57,2.73,-1.01,2.73,-1.01,1.01,0.80,1.66,3.73,3.74,3.73
32.89,2.73,-1.00,2.77,-0.96,0.96,0.76,1.64,3.69,3.73,3.73
33.22,2.78,-0.95,2.81,-0.92,0.92,0.72,1.62,3.69,3.73,3.73
33.55,2.86,-0.87,2.85,-0.87,0.87,0.69,1.60,3.73,3.72,3.72
33.89,2.93,-0.79,2.90,-0.82,0.82,0.65,1.57,3.75,3.72,3.72
34.23,2.96,-0.76,2.94,-0.77,0.77,0.62,1.54,3.73,3.71,3.72
34.57,2.96,-0.75,2.97,-0.73,0.73,0.59,1.52,3.69,3.71,3.70
34.92,2.96,-0.74,3.00,-0.70,0.70,0.56,1.48,3.66,3.70,3.70
35.27,3.02,-0.68,3.03,-0.66,0.66,0.53,1.45,3.68,3.69,3.70
35.62,3.10,-0.59,3.07,-0.62,0.62,0.50,1.42,3.72,3.69,3.68
35.97,3.17,-0.51,3.11,-0.57,0.57,0.47,1.38,3.74,3.68,3.68
36.33,3.18,-0.50,3.15,-0.52,0.52,0.44,1.34,3.70,3.67,3.67
36.70,3.19,-0.48,3.19,-0.48,0.48,0.41,1.31,3.67,3.67,3.67
37.06,3.19,-0.47,3.21,-0.44,0.44,0.38,1.27,3.63,3.66,3.66
37.43,3.21,-0.44,3.24,-0.41,0.41,0.35,1.23,3.62,3.65,3.65
37.81,3.23,-0.42,3.26,-0.38,0.38,0.33,1.19,3.61,3.64,3.65
38.19,3.27,-0.36,3.29,-0.34,0.34,0.30,1.15,3.61,3.64,3.63
38.57,3.34,-0.29,3.32,-0.31,0.31,0.28,1.11,3.64,3.63,3.62
38.95,3.41,-0.21,3.35,-0.27,0.27,0.25,1.07,3.67,3.62,3.62
39.34,3.42,-0.19,3.38,-0.23,0.23,0.23,1.02,3.65,3.61,3.60
39.74,3.42,-0.17,3.40,-0.20,0.20,0.20,0.98,3.62,3.60,3.59
40.14,3.42,-0.17,3.43,-0.17,0.17,0.18,0.94,3.58,3.59,3.59
40.54,3.42,-0.17,3.46,-0.13,0.13,0.16,0.90,3.54,3.58,3.58
40.94,3.42,-0.16,3.49,-0.08,0.08,0.13,0.86,3.50,3.57,3.58
41.35,3.50,-0.06,3.52,-0.03,0.03,0.11,0.82,3.53,3.55,3.56
41.76,3.59,0.04,3.55,0.02,-0.02,0.09,0.78,3.57,3.53,3.54
42.18,3.64,0.11,3.59,0.07,-0.07,0.07,0.74,3.56,3.51,3.53
42.60,3.64,0.14,3.62,0.13,-0.13,0.04,0.71,3.51,3.49,3.50
43.03,3.64,0.16,3.65,0.19,-0.19,0.02,0.67,3.45,3.46,3.48
43.46,3.64,0.19,3.68,0.25,-0.25,0.00,0.63,3.39,3.43,3.45
43.90,3.64,0.23,3.72,0.31,-0.31,-0.02,0.59,3.33,3.41,3.40
44.33,3.72,0.34,3.75,0.37,-0.37,-0.04,0.56,3.35,3.38,3.37
44.78,3.82,0.48,3.78,0.43,-0.43,-0.06,0.52,3.39,3.35,3.34
45.23,3.87,0.56,3.80,0.48,-0.48,-0.08,0.49,3.38,3.32,3.31
45.68,3.87,0.59,3.82,0.53,-0.53,-0.10,0.45,3.34,3.29,3.28
46.13,3.87,0.61,3.83,0.56,-0.56,-0.13,0.42,3.31,3.27,3.25
46.60,3.87,0.62,3.83,0.58,-0.58,-0.15,0.38,3.28,3.25,3.24
47.06,3.87,0.65,3.85,0.62,-0.62,-0.17,0.35,3.25,3.23,3.22
47.53,3.87,0.66,3.88,0.66,-0.66,-0.19,0.32,3.21,3.22,3.21
48.01,3.87,0.66,3.89,0.69,-0.69,-0.21,0.29,3.18,3.21,3.21
48.49,3.87,0.67,3.91,0.71,-0.71,-0.23,0.25,3.16,3.20,3.20
48.97,3.87,0.68,3.92,0.72,-0.72,-0.25,0.22,3.15,3.19,3.18
49.46,3.87,0.70,3.92,0.73,-0.73,-0.27,0.19,3.14,3.19,3.17
49.96,3.87,0.70,3.91,0.73,-0.73,-0.29,0.16,3.14,3.18,3.17
50.46,3.89,0.72,3.92,0.74,-0.74,-0.31,0.13,3.15,3.17,3.17
50.96,3.92,0.74,3.92,0.76,-0.76,-0.33,0.10,3.16,3.16,3.18
51.47,4.01,0.85,3.93,0.78,-0.78,-0.35,0.07,3.23,3.15,3.16
51.99,4.10,0.95,3.94,0.81,-0.81,-0.37,0.04,3.29,3.13,3.15
52.51,3.98,0.85,3.94,0.83,-0.83,-0.40,0.00,3.15,3.11,3.13
53.03,3.87,0.77,3.93,0.85,-0.85,-0.42,-0.03,3.01,3.08,3.10
53.56,3.87,0.80,3.92,0.88,-0.88,-0.44,-0.06,2.99,3.05,3.06
54.10,3.87,0.85,3.91,0.90,-0.90,-0.46,-0.09,2.97,3.01,3.02
54.64,3.87,0.90,3.89,0.92,-0.92,-0.48,-0.12,2.94,2.97,2.97
55.18,3.87,0.95,3.86,0.95,-0.95,-0.51,-0.15,2.92,2.92,2.92
55.74,3.87,1.01,3.84,0.97,-0.97,-0.53,-0.18,2.90,2.86,2.86
56.29,3.87,1.06,3.80,1.00,-1.00,-0.55,-0.22,2.87,2.81,2.81
56.86,3.87,1.12,3.77,1.03,-1.03,-0.57,-0.25,2.84,2.74,2.75
57.42,3.77,1.09,3.74,1.06,-1.06,-0.60,-0.28,2.71,2.68,2.67
58.00,3.64,1.03,3.72,1.10,-1.10,-0.62,-0.32,2.54,2.62,2.61
58.58,3.64,1.09,3.70,1.15,-1.15,-0.64,-0.35,2.48,2.55,2.55
59.16,3.64,1.15,3.69,1.21,-1.21,-0.67,-0.39,2.43,2.48,2.49
59.76,3.64,1.21,3.68,1.26,-1.26,-0.69,-0.43,2.38,2.42,2.43
60.35,3.64,1.29,3.67,1.32,-1.32,-0.72,-0.46,2.32,2.35,2.35
60.96,3.64,1.34,3.66,1.38,-1.38,-0.74,-0.50,2.26,2.29,2.29
61.57,3.64,1.42,3.66,1.43,-1.43,-0.77,-0.54,2.20,2.22,2.22
62.18,3.64,1.49,3.65,1.49,-1.49,-0.80,-0.58,2.15,2.16,2.15
62.80,3.64,1.54,3.65,1.54,-1.54,-0.82,-0.63,2.09,2.10,2.10
63.43,3.64,1.60,3.65,1.60,-1.60,-0.85,-0.67,2.04,2.05,2.04
64.07,3.64,1.65,3.65,1.65,-1.65,-0.88,-0.71,1.98,1.99,1.99
64.71,3.64,1.70,3.64,1.69,-1.69,-0.91,-0.76,1.94,1.94,1.94
65.35,3.64,1.75,3.60,1.71,-1.71,-0.93,-0.81,1.92,1.89,1.88
66.01,3.64,1.80,3.56,1.71,-1.71,-0.96,-0.85,1.93,1.84,1.84
66.67,3.49,1.69,3.49,1.69,-1.69,-0.99,-0.90,1.80,1.80,1.80
67.33,3.39,1.63,3.41,1.65,-1.65,-1.02,-0.96,1.74,1.76,1.76
68.01,3.32,1.59,3.31,1.59,-1.59,-1.05,-1.01,1.73,1.72,1.72
68.69,3.21,1.52,3.19,1.50,-1.50,-1.09,-1.06,1.71,1.69,1.69
69.37,3.08,1.43,3.03,1.38,-1.38,-1.12,-1.12,1.70,1.65,1.65
70.07,2.94,1.33,2.84,1.22,-1.22,-1.15,-1.17,1.71,1.61,1.61
70.77,2.71,1.12,2.62,1.04,-1.04,-1.19,-1.23,1.67,1.58,1.59
71.48,2.46,0.91,2.38,0.84,-0.84,-1.22,-1.29,1.62,1.54,1.55
72.19,2.20,0.68,2.12,0.61,-0.61,-1.26,-1.35,1.58,1.50,1.51
72.91,1.94,0.46,1.84,0.38,-0.38,-1.29,-1.42,1.56,1.47,1.47
73.64,1.68,0.24,1.57,0.14,-0.14,-1.33,-1.48,1.54,1.43,1.44
74.38,1.38,-0.02,1.29,-0.11,0.11,-1.37,-1.55,1.48,1.39,1.40
75.12,1.05,-0.31,1.01,-0.35,0.35,-1.40,-1.61,1.39,1.36,1.36
75.87,0.68,-0.64,0.75,-0.57,0.57,-1.44,-1.68,1.24,1.32,1.32
76.63,0.40,-0.88,0.53,-0.76,0.76,-1.48,-1.76,1.16,1.29,1.28
77.40,0.23,-1.02,0.34,-0.91,0.91,-1.53,-1.83,1.14,1.25,1.25
78.17,0.13,-1.08,0.21,-1.01,1.01,-1.57,-1.90,1.14,1.22,1.21
78.95,0.01,-1.18,0.13,-1.06,1.06,-1.61,-1.98,1.07,1.19,1.19
79.74,-0.00,-1.17,0.12,-1.05,1.05,-1.66,-2.06,1.05,1.17,1.17
80.54,-0.00,-1.14,0.16,-0.98,0.98,-1.70,-2.14,0.98,1.14,1.14
81.35,0.05,-1.06,0.26,-0.86,0.86,-1.75,-2.22,0.91,1.12,1.11
82.16,0.20,-0.90,0.42,-0.69,0.69,-1.80,-2.31,0.88,1.11,1.10
82.98,0.55,-0.54,0.63,-0.46,0.46,-1.85,-2.39,1.01,1.09,1.09
83.81,0.89,-0.19,0.88,-0.20,0.20,-1.90,-2.48,1.09,1.08,1.08
84.65,1.20,0.14,1.16,0.09,-0.09,-1.95,-2.57,1.11,1.07,1.06
85.50,1.55,0.49,1.47,0.41,-0.41,-2.00,-2.66,1.14,1.06,1.06
86.35,1.91,0.86,1.79,0.73,-0.73,-2.06,-2.76,1.17,1.05,1.05
87.22,2.23,1.18,2.11,1.07,-1.07,-2.11,-2.86,1.16,1.04,1.04
88.09,2.58,1.55,2.44,1.41,-1.41,-2.17,-2.96,1.17,1.04,1.03
88.97,2.84,1.80,2.76,1.73,-1.73,-2.23,-3.06,1.10,1.03,1.04
89.86,3.10,2.07,3.07,2.05,-2.05,-2.29,-3.16,1.05,1.02,1.03
90.76,3.37,2.36,3.36,2.35,-2.35,-2.35,-3.27,1.02,1.01,1.01
91.66,3.60,2.60,3.61,2.62,-2.62,-2.41,-3.38,0.98,0.99,1.00
92.58,3.84,2.87,3.84,2.87,-2.87,-2.48,-3.49,0.97,0.97,0.97
93.51,4.13,3.16,4.05,3.10,-3.10,-2.54,-3.60,1.03,0.96,0.96
94.44,4.31,3.37,4.24,3.31,-3.31,-2.61,-3.71,1.00,0.93,0.94
95.39,4.43,3.51,4.41,3.51,-3.51,-2.68,-3.83,0.92,0.91,0.91
96.34,4.59,3.72,4.57,3.69,-3.69,-2.75,-3.95,0.90,0.88,0.87
97.30,4.70,3.86,4.71,3.86,-3.86,-2.83,-4.07,0.83,0.85,0.84
98.28,4.83,4.02,4.84,4.03,-4.03,-2.90,-4.19,0.80,0.81,0.81
99.26,4.98,4.21,4.96,4.18,-4.18,-2.98,-4.32,0.80,0.77,0.77
100.25,5.02,4.29,5.07,4.34,-4.34,-3.06,-4.44,0.68,0.73,0.73
101.25,5.09,4.40,5.16,4.47,-4.47,-3.14,-4.57,0.61,0.68,0.68
102.27,5.24,4.60,5.25,4.61,-4.61,-3.22,-4.69,0.62,0.63,0.64
103.29,5.24,4.66,5.32,4.74,-4.74,-3.31,-4.82,0.50,0.58,0.58
104.32,5.29,4.76,5.37,4.85,-4.85,-3.39,-4.95,0.43,0.52,0.53
105.37,5.41,4.93,5.41,4.95,-4.95,-3.48,-5.07,0.45,0.46,0.47
106.42,5.47,5.06,5.43,5.04,-5.04,-3.57,-5.20,0.43,0.39,0.41
107.48,5.47,5.14,5.42,5.10,-5.10,-3.67,-5.32,0.36,0.32,0.33
108.56,5.47,5.23,5.39,5.15,-5.15,-3.76,-5.44,0.32,0.24,0.24
109.64,5.47,5.30,5.33,5.17,-5.17,-3.86,-5.56,0.30,0.16,0.16
110.74,5.46,5.37,5.26,5.17,-5.17,-3.96,-5.67,0.28,0.08,0.09
111.85,5.27,5.26,5.16,5.16,-5.16,-4.06,-5.78,0.10,-0.00,0.01
112.97,5.22,5.31,5.05,5.14,-5.14,-4.16,-5.89,0.08,-0.08,-0.09
114.10,4.97,5.13,4.93,5.10,-5.10,-4.27,-5.99,-0.13,-0.17,-0.16
115.24,4.75,5.00,4.82,5.07,-5.07,-4.38,-6.08,-0.32,-0.25,-0.25
116.39,4.63,4.96,4.72,5.04,-5.04,-4.49,-6.17,-0.41,-0.32,-0.34
117.55,4.54,4.95,4.63,5.02,-5.02,-4.60,-6.25,-0.49,-0.39,-0.41
118.73,4.38,4.87,4.56,5.02,-5.02,-4.71,-6.32,-0.64,-0.46,-0.49
119.92,4.33,4.87,4.50,5.03,-5.03,-4.82,-6.38,-0.70,-0.53,-0.54
121.12,4.33,4.93,4.47,5.06,-5.06,-4.93,-6.43,-0.73,-0.59,-0.61
122.33,4.33,4.99,4.47,5.12,-5.12,-5.05,-6.47,-0.79,-0.64,-0.66
123.55,4.43,5.12,4.51,5.20,-5.20,-5.17,-6.50,-0.78,-0.70,-0.69
124.79,4.55,5.29,4.57,5.32,-5.32,-5.28,-6.52,-0.77,-0.75,-0.74
126.03,4.71,5.49,4.66,5.45,-5.45,-5.40,-6.53,-0.74,-0.79,-0.78
127.29,4.83,5.65,4.76,5.60,-5.60,-5.52,-6.53,-0.77,-0.83,-0.83
128.57,4.96,5.83,4.87,5.75,-5.75,-5.64,-6.52,-0.79,-0.88,-0.88
129.85,5.01,5.92,4.98,5.90,-5.90,-5.75,-6.50,-0.89,-0.92,-0.91
131.15,5.06,6.01,5.08,6.04,-6.04,-5.87,-6.47,-0.99,-0.96,-0.95
132.46,5.19,6.19,5.18,6.19,-6.19,-5.98,-6.43,-1.00,-1.00,-1.00
133.79,5.38,6.41,5.27,6.31,-6.31,-6.09,-6.39,-0.94,-1.04,-1.04
135.12,5.47,6.56,5.34,6.42,-6.42,-6.20,-6.33,-0.96,-1.09,-1.09
136.48,5.47,6.60,5.40,6.53,-6.53,-6.31,-6.27,-1.06,-1.13,-1.13
137.84,5.47,6.64,5.44,6.62,-6.62,-6.41,-6.20,-1.15,-1.17,-1.17
139.22,5.47,6.70,5.48,6.70,-6.70,-6.51,-6.12,-1.23,-1.22,-1.23
140.61,5.47,6.75,5.51,6.78,-6.78,-6.61,-6.05,-1.31,-1.27,-1.29
142.02,5.47,6.79,5.55,6.86,-6.86,-6.70,-5.96,-1.40,-1.32,-1.32
143.44,5.47,6.84,5.57,6.95,-6.95,-6.78,-5.88,-1.48,-1.37,-1.37
144.87,5.47,6.89,5.60,7.03,-7.03,-6.86,-5.79,-1.56,-1.43,-1.42
146.32,5.47,6.94,5.59,7.09,-7.09,-6.93,-5.69,-1.62,-1.49,-1.48
147.78,5.47,6.99,5.56,7.12,-7.12,-6.99,-5.60,-1.65,-1.56,-1.52
149.26,5.47,7.07,5.49,7.12,-7.12,-7.05,-5.51,-1.65,-1.63,-1.60
150.75,5.47,7.15,5.37,7.08,-7.08,-7.09,-5.41,-1.61,-1.71,-1.69
152.26,5.45,7.21,5.21,6.99,-6.99,-7.13,-5.32,-1.54,-1.78,-1.76
153.78,5.31,7.15,5.01,6.87,-6.87,-7.16,-5.23,-1.56,-1.86,-1.84
155.32,5.20,7.14,4.79,6.73,-6.73,-7.18,-5.14,-1.53,-1.94,-1.95
156.88,5.00,7.03,4.55,6.57,-6.57,-7.19,-5.05,-1.57,-2.02,-2.03
158.44,4.62,6.72,4.33,6.42,-6.42,-7.19,-4.96,-1.81,-2.09,-2.11
160.03,4.23,6.42,4.12,6.29,-6.29,-7.18,-4.87,-2.06,-2.17,-2.19
161.63,3.78,6.03,3.93,6.17,-6.17,-7.16,-4.79,-2.39,-2.23,-2.26
163.24,3.35,5.66,3.77,6.06,-6.06,-7.13,-4.71,-2.72,-2.29,-2.31
164.88,3.02,5.38,3.64,5.98,-5.98,-7.09,-4.63,-2.96,-2.34,-2.36
166.53,2.83,5.23,3.54,5.92,-5.92,-7.05,-4.55,-3.09,-2.38,-2.41
168.19,2.97,5.41,3.48,5.90,-5.90,-6.99,-4.48,-2.93,-2.42,-2.44
169.87,3.23,5.69,3.47,5.91,-5.91,-6.93,-4.41,-2.69,-2.44,-2.46
171.57,3.49,5.97,3.50,5.96,-5.96,-6.86,-4.34,-2.47,-2.46,-2.48
173.29,3.75,6.23,3.56,6.03,-6.03,-6.78,-4.27,-2.28,-2.47,-2.48
175.02,4.01,6.48,3.64,6.12,-6.12,-6.70,-4.21,-2.11,-2.48,-2.47
176.77,4.09,6.57,3.74,6.23,-6.23,-6.61,-4.16,-2.14,-2.49,-2.48
178.54,4.10,6.58,3.84,6.34,-6.34,-6.52,-4.10,-2.24,-2.49,-2.48
180.32,4.10,6.58,3.93,6.43,-6.43,-6.42,-4.05,-2.33,-2.50,-2.48
182.13,4.10,6.57,3.99,6.49,-6.49,-6.32,-4.00,-2.39,-2.50,-2.48
183.95,4.10,6.58,4.00,6.51,-6.51,-6.22,-3.96,-2.41,-2.51,-2.48
185.79,4.10,6.60,3.97,6.49,-6.49,-6.11,-3.91,-2.39,-2.52,-2.50
187.65,3.94,6.46,3.88,6.42,-6.42,-6.00,-3.88,-2.48,-2.53,-2.52
189.52,3.70,6.25,3.77,6.32,-6.32,-5.89,-3.84,-2.62,-2.55,-2.55
191.42,3.59,6.16,3.66,6.23,-6.23,-5.78,-3.81,-2.64,-2.57,-2.57
193.33,3.47,6.06,3.53,6.12,-6.12,-5.66,-3.77,-2.66,-2.59,-2.60
195.27,3.31,5.92,3.41,6.02,-6.02,-5.55,-3.75,-2.71,-2.61,-2.61
197.22,3.21,5.84,3.29,5.93,-5.93,-5.44,-3.72,-2.72,-2.63,-2.63
199.19,3.05,5.72,3.18,5.83,-5.83,-5.32,-3.70,-2.78,-2.66,-2.67
201.18,2.96,5.64,3.06,5.74,-5.74,-5.21,-3.68,-2.78,-2.68,-2.68
203.19,2.92,5.62,2.94,5.65,-5.65,-5.10,-3.66,-2.73,-2.70,-2.70
205.23,2.79,5.52,2.82,5.55,-5.55,-4.99,-3.64,-2.76,-2.73,-2.73
207.28,2.73,5.47,2.71,5.46,-5.46,-4.88,-3.63,-2.73,-2.75,-2.74
209.35,2.73,5.49,2.60,5.36,-5.36,-4.77,-3.61,-2.63,-2.77,-2.77
211.44,2.61,5.40,2.48,5.26,-5.26,-4.66,-3.60,-2.65,-2.78,-2.79
213.56,2.36,5.16,2.34,5.15,-5.15,-4.56,-3.59,-2.79,-2.80,-2.80
215.69,2.28,5.08,2.20,5.02,-5.02,-4.45,-3.58,-2.74,-2.82,-2.81
217.85,2.07,4.90,2.06,4.89,-4.89,-4.35,-3.57,-2.83,-2.83,-2.83
220.03,1.96,4.81,1.91,4.76,-4.76,-4.25,-3.56,-2.80,-2.85,-2.85
222.23,1.77,4.64,1.75,4.61,-4.61,-4.15,-3.55,-2.84,-2.86,-2.87
224.45,1.51,4.38,1.58,4.45,-4.45,-4.06,-3.54,-2.95,-2.87,-2.88
226.70,1.38,4.26,1.41,4.29,-4.29,-3.96,-3.53,-2.91,-2.88,-2.88
228.96,1.21,4.10,1.23,4.13,-4.13,-3.87,-3.52,-2.92,-2.89,-2.89
231.25,0.98,3.87,1.05,3.95,-3.95,-3.78,-3.50,-2.98,-2.90,-2.90
233.57,0.88,3.79,0.88,3.78,-3.78,-3.70,-3.49,-2.90,-2.91,-2.91
235.90,0.69,3.61,0.71,3.62,-3.62,-3.61,-3.48,-2.94,-2.91,-2.92
238.26,0.57,3.49,0.56,3.48,-3.48,-3.53,-3.46,-2.91,-2.91,-2.92
240.64,0.47,3.39,0.41,3.32,-3.32,-3.44,-3.44,-2.85,-2.92,-2.92
243.05,0.29,3.20,0.26,3.18,-3.18,-3.37,-3.42,-2.89,-2.91,-2.91
245.48,0.06,2.97,0.12,3.04,-3.04,-3.29,-3.40,-2.98,-2.91,-2.91
247.93,-0.00,2.90,-0.01,2.90,-2.90,-3.21,-3.38,-2.90,-2.91,-2.90
250.41,-0.19,2.72,-0.14,2.77,-2.77,-3.14,-3.35,-2.96,-2.91,-2.91
252.92,-0.28,2.62,-0.27,2.63,-2.63,-3.07,-3.32,-2.91,-2.90,-2.90
255.45,-0.43,2.45,-0.39,2.50,-2.50,-3.00,-3.29,-2.93,-2.89,-2.88
258.00,-0.46,2.42,-0.52,2.36,-2.36,-2.93,-3.25,-2.83,-2.89,-2.88
260.58,-0.60,2.27,-0.65,2.22,-2.22,-2.87,-3.22,-2.83,-2.88,-2.88
263.19,-0.69,2.17,-0.77,2.09,-2.09,-2.80,-3.18,-2.78,-2.86,-2.86
265.82,-0.89,1.97,-0.89,1.97,-1.97,-2.74,-3.14,-2.86,-2.85,-2.86
268.48,-0.97,1.87,-1.00,1.84,-1.84,-2.68,-3.10,-2.81,-2.84,-2.84
271.16,-1.10,1.72,-1.10,1.72,-1.72,-2.62,-3.06,-2.82,-2.82,-2.83
273.87,-1.22,1.59,-1.20,1.60,-1.60,-2.57,-3.01,-2.83,-2.80,-2.81
276.61,-1.35,1.43,-1.30,1.48,-1.48,-2.51,-2.96,-2.83,-2.78,-2.78
279.38,-1.37,1.39,-1.39,1.37,-1.37,-2.46,-2.92,-2.74,-2.76,-2.77
282.17,-1.54,1.20,-1.48,1.26,-1.26,-2.41,-2.87,-2.80,-2.74,-2.74
284.99,-1.60,1.11,-1.55,1.16,-1.16,-2.36,-2.82,-2.76,-2.71,-2.72
287.84,-1.60,1.09,-1.62,1.06,-1.06,-2.31,-2.77,-2.66,-2.69,-2.69
290.72,-1.60,1.06,-1.68,0.98,-0.98,-2.26,-2.72,-2.58,-2.66,-2.66
293.63,-1.71,0.92,-1.73,0.91,-0.91,-2.21,-2.67,-2.62,-2.63,-2.63
296.57,-1.81,0.80,-1.76,0.85,-0.85,-2.17,-2.62,-2.66,-2.61,-2.61
299.53,-1.83,0.75,-1.79,0.80,-0.80,-2.13,-2.56,-2.63,-2.59,-2.58
302.53,-1.83,0.74,-1.82,0.75,-0.75,-2.09,-2.51,-2.58,-2.56,-2.57
305.55,-1.83,0.70,-1.84,0.71,-0.71,-2.04,-2.46,-2.54,-2.55,-2.53
308.61,-1.83,0.68,-1.85,0.68,-0.68,-2.01,-2.41,-2.51,-2.53,-2.52
311.69,-1.83,0.67,-1.86,0.65,-0.65,-1.97,-2.37,-2.49,-2.51,-2.50
314.81,-1.83,0.64,-1.85,0.65,-0.65,-1.93,-2.32,-2.48,-2.50,-2.47
317.96,-1.83,0.65,-1.85,0.64,-0.64,-1.90,-2.27,-2.47,-2.49,-2.48
321.14,-1.83,0.65,-1.84,0.64,-0.64,-1.86,-2.22,-2.48,-2.48,-2.48
324.35,-1.83,0.64,-1.82,0.65,-0.65,-1.83,-2.18,-2.49,-2.47,-2.48
327.59,-1.83,0.64,-1.80,0.66,-0.66,-1.80,-2.14,-2.50,-2.46,-2.47
330.87,-1.83,0.63,-1.78,0.67,-0.67,-1.76,-2.09,-2.51,-2.45,-2.46
334.18,-1.83,0.62,-1.76,0.69,-0.69,-1.73,-2.05,-2.52,-2.44,-2.46
337.52,-1.70,0.75,-1.73,0.70,-0.70,-1.71,-2.01,-2.40,-2.43,-2.45
340.90,-1.62,0.80,-1.70,0.72,-0.72,-1.68,-1.97,-2.34,-2.42,-2.42
344.30,-1.60,0.81,-1.67,0.74,-0.74,-1.65,-1.93,-2.34,-2.41,-2.41
347.75,-1.60,0.79,-1.64,0.75,-0.75,-1.62,-1.90,-2.36,-2.39,-2.40
351.23,-1.60,0.77,-1.60,0.77,-0.77,-1.60,-1.86,-2.37,-2.37,-2.37
354.74,-1.60,0.75,-1.57,0.78,-0.78,-1.57,-1.83,-2.38,-2.35,-2.35
358.28,-1.60,0.72,-1.54,0.78,-0.78,-1.55,-1.80,-2.38,-2.33,-2.32
361.87,-1.60,0.70,-1.51,0.79,-0.79,-1.53,-1.77,-2.39,-2.30,-2.31
365.49,-1.43,0.85,-1.48,0.80,-0.80,-1.51,-1.74,-2.23,-2.28,-2.28
369.14,-1.38,0.88,-1.45,0.81,-0.81,-1.49,-1.71,-2.19,-2.26,-2.26
372.83,-1.37,0.86,-1.42,0.82,-0.82,-1.47,-1.68,-2.19,-2.24,-2.23
376.56,-1.37,0.84,-1.40,0.81,-0.81,-1.45,-1.66,-2.19,-2.22,-2.22
380.33,-1.37,0.82,-1.38,0.82,-0.82,-1.43,-1.63,-2.19,-2.20,-2.19
384.13,-1.37,0.80,-1.35,0.84,-0.84,-1.41,-1.61,-2.21,-2.18,-2.17
387.97,-1.37,0.79,-1.31,0.86,-0.86,-1.39,-1.59,-2.23,-2.17,-2.16
391.85,-1.36,0.79,-1.27,0.88,-0.88,-1.38,-1.57,-2.24,-2.15,-2.15
395.77,-1.20,0.94,-1.24,0.90,-0.90,-1.36,-1.55,-2.10,-2.14,-2.14
399.73,-1.14,0.99,-1.21,0.92,-0.92,-1.34,-1.53,-2.07,-2.13,-2.14
403.72,-1.14,0.99,-1.17,0.95,-0.95,-1.33,-1.51,-2.09,-2.13,-2.13
407.76,-1.14,0.98,-1.14,0.98,-0.98,-1.32,-1.49,-2.12,-2.12,-2.12
411.84,-1.14,0.97,-1.09,1.02,-1.02,-1.30,-1.48,-2.16,-2.11,-2.11
415.96,-1.14,0.96,-1.05,1.06,-1.06,-1.29,-1.46,-2.20,-2.11,-2.10
420.12,-0.96,1.14,-1.01,1.10,-1.10,-1.28,-1.45,-2.06,-2.11,-2.10
424.32,-0.91,1.19,-0.96,1.15,-1.15,-1.27,-1.44,-2.06,-2.11,-2.10
428.56,-0.91,1.19,-0.91,1.19,-1.19,-1.26,-1.43,-2.11,-2.10,-2.11
432.85,-0.91,1.19,-0.87,1.23,-1.23,-1.25,-1.41,-2.14,-2.10,-2.11
437.18,-0.81,1.29,-0.83,1.27,-1.27,-1.24,-1.40,-2.08,-2.10,-2.10
441.55,-0.72,1.37,-0.79,1.30,-1.30,-1.23,-1.39,-2.03,-2.09,-2.09
445.96,-0.69,1.40,-0.73,1.35,-1.35,-1.22,-1.38,-2.04,-2.08,-2.09
450.42,-0.69,1.39,-0.68,1.39,-1.39,-1.21,-1.37,-2.09,-2.08,-2.08
454.93,-0.69,1.38,-0.64,1.43,-1.43,-1.20,-1.37,-2.12,-2.07,-2.07
459.48,-0.64,1.42,-0.58,1.47,-1.47,-1.20,-1.36,-2.11,-2.05,-2.06
464.07,-0.49,1.55,-0.53,1.51,-1.51,-1.19,-1.35,-2.00,-2.04,-2.04
468.71,-0.46,1.56,-0.49,1.54,-1.54,-1.18,-1.34,-2.00,-2.02,-2.02
473.40,-0.46,1.55,-0.43,1.57,-1.57,-1.18,-1.33,-2.04,-2.00,-2.01
478.13,-0.46,1.52,-0.37,1.61,-1.61,-1.17,-1.33,-2.07,-1.98,-1.99
482.91,-0.28,1.68,-0.32,1.64,-1.64,-1.17,-1.32,-1.93,-1.96,-1.97
487.74,-0.23,1.70,-0.27,1.67,-1.67,-1.16,-1.31,-1.90,-1.94,-1.94
492.62,-0.23,1.68,-0.22,1.69,-1.69,-1.16,-1.30,-1.93,-1.91,-1.91
497.55,-0.23,1.66,-0.18,1.71,-1.71,-1.15,-1.30,-1.94,-1.89,-1.89
502.52,-0.10,1.76,-0.14,1.72,-1.72,-1.15,-1.29,-1.82,-1.86,-1.86
