frequency,raw,error,smoothed,error_smoothed,equalization,parametric_eq,fixed_band_eq,equalized_raw,equalized_smoothed,target
20.00,-1.44,-7.55,-1.44,-7.58,7.58,7.29,2.61,6.13,6.13,6.11
20.20,-1.42,-7.53,-1.42,-7.54,7.54,7.26,2.69,6.12,6.12,6.11
20.40,-1.40,-7.51,-1.39,-7.51,7.51,7.23,2.77,6.11,6.11,6.11
20.61,-1.37,-7.48,-1.37,-7.47,7.47,7.20,2.85,6.10,6.10,6.11
20.81,-1.33,-7.44,-1.34,-7.44,7.44,7.17,2.94,6.10,6.09,6.11
21.02,-1.31,-7.42,-1.32,-7.40,7.40,7.14,3.02,6.09,6.08,6.11
21.23,-1.28,-7.37,-1.29,-7.36,7.36,7.11,3.11,6.08,6.07,6.09
21.44,-1.25,-7.33,-1.26,-7.32,7.32,7.08,3.20,6.06,6.06,6.07
21.66,-1.23,-7.29,-1.23,-7.27,7.27,7.05,3.30,6.04,6.04,6.05
21.87,-1.20,-7.24,-1.20,-7.23,7.23,7.02,3.40,6.03,6.03,6.03
22.09,-1.17,-7.19,-1.17,-7.18,7.18,6.98,3.50,6.01,6.01,6.02
22.31,-1.14,-7.13,-1.14,-7.13,7.13,6.95,3.60,5.99,5.99,5.99
22.54,-1.11,-7.09,-1.11,-7.08,7.08,6.92,3.70,5.96,5.97,5.97
22.76,-1.07,-7.02,-1.07,-7.02,7.02,6.88,3.81,5.95,5.95,5.95
22.99,-1.04,-6.96,-1.04,-6.97,6.97,6.85,3.92,5.92,5.93,5.92
23.22,-1.01,-6.90,-1.01,-6.91,6.91,6.81,4.03,5.90,5.90,5.89
23.45,-0.97,-6.84,-0.97,-6.85,6.85,6.78,4.15,5.88,5.88,5.87
23.69,-0.93,-6.79,-0.93,-6.80,6.80,6.74,4.27,5.86,5.86,5.86
23.92,-0.89,-6.73,-0.90,-6.74,6.74,6.70,4.39,5.85,5.84,5.84
24.16,-0.85,-6.68,-0.86,-6.68,6.68,6.66,4.51,5.83,5.82,5.83
24.40,-0.83,-6.64,-0.83,-6.63,6.63,6.63,4.63,5.80,5.80,5.81
24.65,-0.79,-6.58,-0.79,-6.57,6.57,6.59,4.76,5.78,5.78,5.78
24.89,-0.75,-6.52,-0.76,-6.52,6.52,6.55,4.89,5.77,5.76,5.76
25.14,-0.72,-6.47,-0.72,-6.47,6.47,6.51,5.01,5.75,5.75,5.75
25.39,-0.68,-6.41,-0.69,-6.42,6.42,6.47,5.14,5.74,5.73,5.73
25.65,-0.65,-6.37,-0.65,-6.37,6.37,6.43,5.28,5.71,5.72,5.72
25.91,-0.61,-6.30,-0.62,-6.32,6.32,6.39,5.41,5.70,5.70,5.69
26.16,-0.58,-6.26,-0.58,-6.27,6.27,6.35,5.54,5.68,5.68,5.68
26.43,-0.55,-6.22,-0.55,-6.21,6.21,6.31,5.67,5.66,5.67,5.67
26.69,-0.51,-6.16,-0.51,-6.16,6.16,6.26,5.79,5.65,5.65,5.65
26.96,-0.48,-6.12,-0.48,-6.11,6.11,6.22,5.92,5.63,5.63,5.63
27.23,-0.44,-6.07,-0.44,-6.06,6.06,6.18,6.04,5.62,5.62,5.62
27.50,-0.41,-6.02,-0.41,-6.01,6.01,6.13,6.17,5.60,5.60,5.61
27.77,-0.37,-5.96,-0.37,-5.96,5.96,6.09,6.28,5.59,5.59,5.59
28.05,-0.33,-5.91,-0.33,-5.91,5.91,6.05,6.39,5.58,5.58,5.58
28.33,-0.30,-5.86,-0.30,-5.86,5.86,6.00,6.50,5.56,5.56,5.56
28.62,-0.26,-5.81,-0.26,-5.81,5.81,5.96,6.60,5.55,5.55,5.55
28.90,-0.22,-5.76,-0.23,-5.76,5.76,5.91,6.69,5.54,5.54,5.53
29.19,-0.19,-5.70,-0.19,-5.71,5.71,5.86,6.77,5.52,5.52,5.51
29.48,-0.15,-5.66,-0.16,-5.66,5.66,5.82,6.85,5.51,5.51,5.51
29.78,-0.12,-5.62,-0.12,-5.62,5.62,5.77,6.91,5.49,5.49,5.50
30.08,-0.08,-5.57,-0.09,-5.57,5.57,5.72,6.97,5.49,5.48,5.49
30.38,-0.06,-5.53,-0.06,-5.52,5.52,5.68,7.01,5.46,5.46,5.46
30.68,-0.02,-5.47,-0.03,-5.48,5.48,5.63,7.04,5.45,5.45,5.45
30.99,0.01,-5.42,0.00,-5.43,5.43,5.58,7.06,5.44,5.43,5.43
31.30,0.03,-5.39,0.03,-5.39,5.39,5.53,7.07,5.41,5.41,5.42
31.61,0.06,-5.35,0.06,-5.34,5.34,5.48,7.07,5.40,5.40,5.40
31.93,0.08,-5.30,0.08,-5.30,5.30,5.43,7.05,5.37,5.38,5.38
32.24,0.11,-5.24,0.11,-5.25,5.25,5.38,7.02,5.36,5.36,5.35
32.57,0.14,-5.20,0.13,-5.21,5.21,5.33,6.98,5.34,5.34,5.34
32.89,0.16,-5.17,0.16,-5.16,5.16,5.28,6.94,5.32,5.32,5.32
33.22,0.19,-5.10,0.18,-5.12,5.12,5.23,6.88,5.30,5.30,5.29
33.55,0.20,-5.08,0.20,-5.07,5.07,5.18,6.81,5.27,5.27,5.28
33.89,0.23,-5.03,0.23,-5.03,5.03,5.13,6.73,5.25,5.25,5.25
34.23,0.25,-4.98,0.25,-4.98,4.98,5.08,6.64,5.23,5.23,5.23
34.57,0.28,-4.93,0.27,-4.94,4.94,5.03,6.55,5.21,5.21,5.21
34.92,0.30,-4.89,0.30,-4.89,4.89,4.98,6.45,5.19,5.19,5.18
35.27,0.32,-4.85,0.32,-4.85,4.85,4.92,6.35,5.16,5.17,5.17
35.62,0.35,-4.80,0.35,-4.80,4.80,4.87,6.24,5.15,5.15,5.15
35.97,0.37,-4.75,0.37,-4.75,4.75,4.82,6.12,5.12,5.13,5.12
36.33,0.40,-4.71,0.40,-4.71,4.71,4.77,6.01,5.10,5.10,5.11
36.70,0.42,-4.67,0.42,-4.66,4.66,4.71,5.89,5.07,5.08,5.08
37.06,0.45,-4.61,0.45,-4.61,4.61,4.66,5.77,5.06,5.06,5.06
37.43,0.48,-4.57,0.48,-4.56,4.56,4.61,5.65,5.04,5.04,5.04
37.81,0.51,-4.51,0.51,-4.51,4.51,4.55,5.53,5.02,5.02,5.02
38.19,0.54,-4.46,0.54,-4.46,4.46,4.50,5.41,5.00,5.00,4.99
38.57,0.57,-4.41,0.56,-4.41,4.41,4.44,5.29,4.98,4.97,4.98
38.95,0.60,-4.35,0.60,-4.36,4.36,4.39,5.17,4.96,4.95,4.95
39.34,0.63,-4.30,0.63,-4.31,4.31,4.33,5.05,4.94,4.93,4.93
39.74,0.66,-4.24,0.66,-4.26,4.26,4.28,4.93,4.91,4.91,4.90
40.14,0.69,-4.21,0.69,-4.21,4.21,4.22,4.82,4.89,4.89,4.89
40.54,0.71,-4.16,0.72,-4.15,4.15,4.17,4.71,4.86,4.87,4.87
40.94,0.75,-4.10,0.75,-4.10,4.10,4.11,4.60,4.85,4.85,4.85
41.35,0.78,-4.05,0.78,-4.05,4.05,4.06,4.49,4.83,4.83,4.82
41.76,0.82,-4.00,0.81,-4.00,4.00,4.00,4.38,4.82,4.81,4.82
42.18,0.85,-3.95,0.84,-3.95,3.95,3.94,4.28,4.79,4.79,4.80
42.60,0.88,-3.89,0.88,-3.89,3.89,3.89,4.18,4.77,4.77,4.77
43.03,0.91,-3.86,0.91,-3.84,3.84,3.83,4.08,4.75,4.75,4.76
43.46,0.94,-3.80,0.94,-3.79,3.79,3.77,3.99,4.72,4.73,4.74
43.90,0.98,-3.73,0.98,-3.73,3.73,3.72,3.90,4.71,4.71,4.71
44.33,1.02,-3.67,1.01,-3.68,3.68,3.66,3.81,4.70,4.69,4.69
44.78,1.04,-3.63,1.04,-3.63,3.63,3.60,3.72,4.66,4.67,4.67
45.23,1.08,-3.56,1.08,-3.57,3.57,3.55,3.64,4.65,4.65,4.64
45.68,1.11,-3.51,1.11,-3.52,3.52,3.49,3.56,4.63,4.63,4.62
46.13,1.15,-3.45,1.14,-3.46,3.46,3.43,3.48,4.61,4.61,4.60
46.60,1.18,-3.41,1.17,-3.41,3.41,3.37,3.41,4.59,4.58,4.59
47.06,1.21,-3.36,1.20,-3.36,3.36,3.32,3.33,4.56,4.56,4.57
47.53,1.24,-3.31,1.24,-3.30,3.30,3.26,3.26,4.54,4.54,4.54
48.01,1.27,-3.26,1.27,-3.25,3.25,3.20,3.20,4.51,4.51,4.53
48.49,1.30,-3.20,1.30,-3.19,3.19,3.14,3.13,4.49,4.49,4.50
48.97,1.32,-3.15,1.32,-3.14,3.14,3.08,3.07,4.46,4.47,4.47
49.46,1.35,-3.09,1.35,-3.09,3.09,3.03,3.01,4.44,4.44,4.43
49.96,1.38,-3.02,1.38,-3.04,3.04,2.97,2.95,4.41,4.42,4.40
50.46,1.42,-2.98,1.41,-2.98,2.98,2.91,2.90,4.40,4.39,4.40
50.96,1.44,-2.93,1.44,-2.93,2.93,2.85,2.84,4.37,4.37,4.37
51.47,1.47,-2.87,1.46,-2.88,2.88,2.79,2.79,4.35,4.34,4.33
51.99,1.49,-2.82,1.49,-2.82,2.82,2.73,2.74,4.31,4.31,4.31
52.51,1.52,-2.78,1.52,-2.77,2.77,2.68,2.69,4.29,4.29,4.29
53.03,1.54,-2.73,1.54,-2.72,2.72,2.62,2.64,4.26,4.26,4.27
53.56,1.57,-2.67,1.57,-2.66,2.66,2.56,2.59,4.23,4.23,4.24
54.10,1.60,-2.61,1.59,-2.61,2.61,2.50,2.55,4.21,4.21,4.21
54.64,1.62,-2.56,1.62,-2.56,2.56,2.44,2.50,4.18,4.18,4.18
55.18,1.65,-2.50,1.65,-2.51,2.51,2.38,2.46,4.15,4.15,4.15
55.74,1.67,-2.45,1.67,-2.46,2.46,2.32,2.42,4.12,4.13,4.12
56.29,1.70,-2.40,1.70,-2.40,2.40,2.26,2.37,4.10,4.10,4.10
56.86,1.73,-2.34,1.72,-2.35,2.35,2.20,2.33,4.07,4.07,4.07
57.42,1.75,-2.29,1.75,-2.29,2.29,2.14,2.29,4.04,4.04,4.04
58.00,1.78,-2.24,1.78,-2.24,2.24,2.09,2.24,4.02,4.01,4.01
58.58,1.80,-2.18,1.80,-2.18,2.18,2.03,2.20,3.98,3.98,3.98
59.16,1.83,-2.13,1.83,-2.13,2.13,1.97,2.15,3.95,3.95,3.96
59.76,1.85,-2.08,1.85,-2.07,2.07,1.91,2.11,3.92,3.92,3.93
60.35,1.88,-2.02,1.88,-2.01,2.01,1.85,2.06,3.89,3.89,3.89
60.96,1.90,-1.98,1.90,-1.96,1.96,1.79,2.02,3.86,3.86,3.88
61.57,1.93,-1.90,1.93,-1.90,1.90,1.73,1.97,3.83,3.83,3.83
62.18,1.96,-1.83,1.95,-1.85,1.85,1.67,1.92,3.80,3.80,3.79
62.80,1.98,-1.78,1.98,-1.79,1.79,1.61,1.87,3.77,3.77,3.76
63.43,2.00,-1.72,2.00,-1.74,1.74,1.55,1.82,3.73,3.73,3.72
64.07,2.02,-1.67,2.02,-1.68,1.68,1.49,1.77,3.70,3.70,3.69
64.71,2.05,-1.62,2.05,-1.62,1.62,1.43,1.71,3.67,3.67,3.67
65.35,2.07,-1.57,2.07,-1.57,1.57,1.38,1.66,3.64,3.64,3.64
66.01,2.09,-1.53,2.09,-1.52,1.52,1.32,1.60,3.60,3.61,3.61
66.67,2.12,-1.46,2.12,-1.46,1.46,1.26,1.54,3.58,3.58,3.58
67.33,2.15,-1.41,2.14,-1.41,1.41,1.20,1.48,3.56,3.55,3.55
68.01,2.16,-1.36,2.16,-1.36,1.36,1.14,1.43,3.51,3.52,3.52
68.69,2.19,-1.30,2.18,-1.30,1.30,1.08,1.36,3.49,3.49,3.49
69.37,2.20,-1.25,2.20,-1.25,1.25,1.02,1.30,3.45,3.45,3.45
70.07,2.22,-1.20,2.22,-1.20,1.20,0.96,1.24,3.42,3.42,3.42
70.77,2.25,-1.14,2.24,-1.14,1.14,0.90,1.18,3.39,3.39,3.39
71.48,2.27,-1.08,2.26,-1.09,1.09,0.84,1.11,3.36,3.35,3.35
72.19,2.28,-1.04,2.28,-1.03,1.03,0.79,1.05,3.31,3.31,3.32
72.91,2.30,-0.98,2.30,-0.97,0.97,0.73,0.98,3.27,3.27,3.27
73.64,2.32,-0.91,2.32,-0.92,0.92,0.67,0.91,3.24,3.23,3.23
74.38,2.33,-0.87,2.33,-0.86,0.86,0.61,0.85,3.19,3.19,3.20
75.12,2.35,-0.79,2.35,-0.80,0.80,0.55,0.78,3.15,3.15,3.14
75.87,2.37,-0.73,2.36,-0.74,0.74,0.49,0.71,3.11,3.11,3.10
76.63,2.38,-0.69,2.38,-0.68,0.68,0.43,0.64,3.06,3.06,3.06
77.40,2.40,-0.62,2.40,-0.62,0.62,0.38,0.57,3.02,3.01,3.02
78.17,2.41,-0.55,2.41,-0.55,0.55,0.32,0.50,2.96,2.97,2.96
78.95,2.43,-0.50,2.43,-0.49,0.49,0.26,0.44,2.92,2.92,2.92
79.74,2.44,-0.43,2.44,-0.43,0.43,0.20,0.37,2.87,2.87,2.87
80.54,2.45,-0.37,2.45,-0.36,0.36,0.14,0.30,2.81,2.82,2.82
81.35,2.47,-0.30,2.47,-0.30,0.30,0.08,0.22,2.77,2.77,2.77
82.16,2.49,-0.22,2.48,-0.23,0.23,0.03,0.15,2.72,2.71,2.71
82.98,2.50,-0.17,2.49,-0.17,0.17,-0.03,0.08,2.66,2.66,2.67
83.81,2.51,-0.09,2.51,-0.10,0.10,-0.09,0.01,2.60,2.60,2.60
84.65,2.52,-0.02,2.52,-0.03,0.03,-0.15,-0.06,2.55,2.55,2.54
85.50,2.53,0.03,2.53,0.04,-0.04,-0.20,-0.13,2.49,2.49,2.49
86.35,2.55,0.11,2.54,0.11,-0.11,-0.26,-0.21,2.44,2.43,2.43
87.22,2.55,0.17,2.55,0.18,-0.18,-0.32,-0.28,2.37,2.38,2.37
88.09,2.57,0.25,2.57,0.25,-0.25,-0.37,-0.35,2.32,2.32,2.31
88.97,2.58,0.31,2.58,0.32,-0.32,-0.43,-0.42,2.26,2.26,2.26
89.86,2.59,0.39,2.59,0.39,-0.39,-0.49,-0.50,2.20,2.20,2.20
90.76,2.60,0.47,2.60,0.46,-0.46,-0.54,-0.57,2.14,2.14,2.13
91.66,2.61,0.53,2.61,0.53,-0.53,-0.60,-0.65,2.08,2.08,2.08
92.58,2.62,0.62,2.62,0.60,-0.60,-0.66,-0.72,2.01,2.01,2.00
93.51,2.62,0.66,2.63,0.68,-0.68,-0.71,-0.80,1.94,1.95,1.96
94.44,2.64,0.74,2.64,0.75,-0.75,-0.77,-0.87,1.89,1.89,1.89
95.39,2.65,0.82,2.64,0.83,-0.83,-0.82,-0.95,1.82,1.82,1.83
96.34,2.65,0.90,2.65,0.90,-0.90,-0.88,-1.03,1.75,1.75,1.75
97.30,2.66,0.97,2.66,0.97,-0.97,-0.94,-1.10,1.68,1.69,1.69
98.28,2.67,1.05,2.67,1.05,-1.05,-0.99,-1.18,1.62,1.62,1.62
99.26,2.68,1.14,2.67,1.13,-1.13,-1.04,-1.26,1.55,1.55,1.54
100.25,2.68,1.20,2.68,1.20,-1.20,-1.10,-1.33,1.48,1.48,1.48
101.25,2.69,1.28,2.68,1.28,-1.28,-1.15,-1.41,1.41,1.41,1.41
102.27,2.69,1.36,2.69,1.35,-1.35,-1.21,-1.49,1.33,1.33,1.33
103.29,2.69,1.43,2.69,1.43,-1.43,-1.26,-1.56,1.26,1.26,1.25
104.32,2.70,1.51,2.69,1.51,-1.51,-1.32,-1.64,1.19,1.19,1.19
105.37,2.70,1.58,2.69,1.58,-1.58,-1.37,-1.71,1.11,1.11,1.12
106.42,2.69,1.65,2.70,1.66,-1.66,-1.42,-1.79,1.03,1.04,1.04
107.48,2.69,1.73,2.70,1.73,-1.73,-1.47,-1.86,0.95,0.96,0.96
108.56,2.70,1.81,2.69,1.81,-1.81,-1.53,-1.93,0.89,0.88,0.88
109.64,2.69,1.88,2.69,1.88,-1.88,-1.58,-2.00,0.80,0.81,0.81
110.74,2.69,1.95,2.69,1.96,-1.96,-1.63,-2.07,0.73,0.73,0.74
111.85,2.69,2.03,2.68,2.03,-2.03,-1.68,-2.14,0.66,0.65,0.66
112.97,2.68,2.11,2.68,2.10,-2.10,-1.73,-2.20,0.58,0.57,0.57
114.10,2.67,2.17,2.67,2.17,-2.17,-1.79,-2.26,0.50,0.50,0.50
115.24,2.67,2.25,2.66,2.24,-2.24,-1.84,-2.32,0.43,0.42,0.42
116.39,2.66,2.32,2.65,2.30,-2.30,-1.89,-2.38,0.35,0.34,0.34
117.55,2.64,2.38,2.64,2.37,-2.37,-1.94,-2.43,0.27,0.27,0.26
118.73,2.63,2.44,2.63,2.43,-2.43,-1.99,-2.48,0.20,0.19,0.19
119.92,2.61,2.49,2.61,2.49,-2.49,-2.03,-2.53,0.12,0.12,0.12
121.12,2.60,2.55,2.60,2.55,-2.55,-2.08,-2.58,0.05,0.05,0.05
122.33,2.58,2.60,2.58,2.61,-2.61,-2.13,-2.62,-0.03,-0.02,-0.03
123.55,2.56,2.65,2.56,2.66,-2.66,-2.18,-2.65,-0.10,-0.10,-0.09
124.79,2.55,2.71,2.55,2.71,-2.71,-2.23,-2.69,-0.16,-0.16,-0.16
126.03,2.53,2.75,2.53,2.76,-2.76,-2.27,-2.71,-0.23,-0.23,-0.22
127.29,2.51,2.80,2.51,2.81,-2.81,-2.32,-2.74,-0.30,-0.30,-0.29
128.57,2.49,2.86,2.49,2.86,-2.86,-2.37,-2.76,-0.37,-0.36,-0.37
129.85,2.48,2.91,2.47,2.90,-2.90,-2.41,-2.78,-0.42,-0.43,-0.43
131.15,2.46,2.95,2.45,2.94,-2.94,-2.46,-2.80,-0.49,-0.49,-0.49
132.46,2.44,2.99,2.43,2.98,-2.98,-2.50,-2.81,-0.55,-0.55,-0.56
133.79,2.42,3.02,2.42,3.02,-3.02,-2.54,-2.82,-0.60,-0.61,-0.60
135.12,2.40,3.07,2.39,3.06,-3.06,-2.59,-2.82,-0.66,-0.66,-0.67
136.48,2.37,3.08,2.37,3.09,-3.09,-2.63,-2.83,-0.72,-0.71,-0.71
137.84,2.35,3.11,2.35,3.12,-3.12,-2.67,-2.83,-0.77,-0.76,-0.76
139.22,2.33,3.15,2.33,3.14,-3.14,-2.72,-2.83,-0.82,-0.81,-0.82
140.61,2.31,3.18,2.31,3.17,-3.17,-2.76,-2.83,-0.86,-0.86,-0.87
142.02,2.29,3.18,2.29,3.19,-3.19,-2.80,-2.83,-0.90,-0.90,-0.89
143.44,2.26,3.19,2.26,3.20,-3.20,-2.84,-2.82,-0.94,-0.94,-0.94
144.87,2.24,3.22,2.24,3.22,-3.22,-2.88,-2.82,-0.98,-0.98,-0.98
146.32,2.22,3.24,2.21,3.23,-3.23,-2.91,-2.81,-1.01,-1.02,-1.02
147.78,2.19,3.24,2.18,3.24,-3.24,-2.95,-2.81,-1.05,-1.06,-1.05
149.26,2.16,3.24,2.16,3.25,-3.25,-2.99,-2.81,-1.09,-1.09,-1.09
150.75,2.13,3.26,2.13,3.26,-3.26,-3.03,-2.80,-1.13,-1.13,-1.13
152.26,2.10,3.26,2.10,3.26,-3.26,-3.06,-2.80,-1.17,-1.17,-1.17
153.78,2.07,3.27,2.07,3.27,-3.27,-3.10,-2.79,-1.20,-1.20,-1.20
155.32,2.04,3.27,2.04,3.27,-3.27,-3.13,-2.79,-1.23,-1.23,-1.23
156.88,2.01,3.27,2.01,3.27,-3.27,-3.16,-2.79,-1.27,-1.27,-1.26
158.44,1.97,3.27,1.97,3.28,-3.28,-3.20,-2.79,-1.31,-1.30,-1.30
160.03,1.94,3.28,1.94,3.28,-3.28,-3.23,-2.80,-1.34,-1.34,-1.34
161.63,1.90,3.28,1.90,3.28,-3.28,-3.26,-2.80,-1.38,-1.37,-1.38
163.24,1.87,3.28,1.87,3.28,-3.28,-3.29,-2.81,-1.41,-1.41,-1.41
164.88,1.84,3.27,1.83,3.28,-3.28,-3.32,-2.81,-1.44,-1.44,-1.44
166.53,1.80,3.27,1.80,3.27,-3.27,-3.35,-2.82,-1.48,-1.48,-1.47
168.19,1.76,3.27,1.76,3.27,-3.27,-3.38,-2.84,-1.51,-1.51,-1.52
169.87,1.72,3.27,1.72,3.27,-3.27,-3.40,-2.85,-1.55,-1.55,-1.55
171.57,1.68,3.26,1.68,3.27,-3.27,-3.43,-2.87,-1.59,-1.59,-1.58
173.29,1.64,3.25,1.64,3.26,-3.26,-3.46,-2.88,-1.63,-1.63,-1.62
175.02,1.60,3.25,1.59,3.26,-3.26,-3.48,-2.90,-1.66,-1.67,-1.66
176.77,1.55,3.26,1.55,3.26,-3.26,-3.50,-2.93,-1.71,-1.71,-1.71
178.54,1.51,3.25,1.50,3.25,-3.25,-3.53,-2.95,-1.74,-1.75,-1.75
180.32,1.46,3.24,1.46,3.24,-3.24,-3.55,-2.98,-1.78,-1.78,-1.79
182.13,1.41,3.23,1.41,3.23,-3.23,-3.57,-3.01,-1.83,-1.83,-1.82
183.95,1.36,3.23,1.36,3.22,-3.22,-3.59,-3.04,-1.87,-1.87,-1.87
185.79,1.31,3.21,1.31,3.21,-3.21,-3.61,-3.08,-1.90,-1.90,-1.91
187.65,1.26,3.21,1.25,3.19,-3.19,-3.63,-3.12,-1.94,-1.94,-1.95
189.52,1.19,3.17,1.20,3.17,-3.17,-3.64,-3.16,-1.99,-1.98,-1.99
191.42,1.15,3.17,1.14,3.15,-3.15,-3.66,-3.20,-2.01,-2.02,-2.02
193.33,1.09,3.13,1.08,3.13,-3.13,-3.67,-3.24,-2.04,-2.05,-2.04
195.27,1.03,3.10,1.02,3.10,-3.10,-3.69,-3.28,-2.08,-2.08,-2.08
197.22,0.96,3.06,0.96,3.07,-3.07,-3.70,-3.33,-2.12,-2.11,-2.11
199.19,0.90,3.06,0.90,3.04,-3.04,-3.71,-3.38,-2.14,-2.14,-2.16
201.18,0.85,3.03,0.84,3.01,-3.01,-3.72,-3.43,-2.16,-2.17,-2.18
203.19,0.78,2.98,0.77,2.97,-2.97,-3.73,-3.48,-2.20,-2.20,-2.20
205.23,0.71,2.94,0.71,2.94,-2.94,-3.74,-3.53,-2.23,-2.23,-2.23
207.28,0.66,2.89,0.65,2.90,-2.90,-3.75,-3.58,-2.24,-2.25,-2.24
209.35,0.60,2.87,0.59,2.87,-2.87,-3.76,-3.63,-2.27,-2.27,-2.27
211.44,0.55,2.85,0.54,2.83,-2.83,-3.76,-3.68,-2.29,-2.29,-2.30
213.56,0.49,2.81,0.49,2.80,-2.80,-3.77,-3.74,-2.31,-2.31,-2.32
215.69,0.44,2.76,0.44,2.77,-2.77,-3.77,-3.79,-2.33,-2.33,-2.32
217.85,0.39,2.73,0.40,2.74,-2.74,-3.77,-3.84,-2.35,-2.35,-2.34
220.03,0.36,2.72,0.36,2.72,-2.72,-3.78,-3.88,-2.36,-2.36,-2.36
222.23,0.34,2.72,0.33,2.70,-2.70,-3.78,-3.93,-2.36,-2.37,-2.38
224.45,0.31,2.68,0.31,2.69,-2.69,-3.78,-3.97,-2.38,-2.38,-2.37
226.70,0.29,2.67,0.30,2.68,-2.68,-3.78,-4.01,-2.39,-2.38,-2.39
228.96,0.30,2.69,0.30,2.68,-2.68,-3.77,-4.05,-2.38,-2.38,-2.39
231.25,0.30,2.68,0.31,2.69,-2.69,-3.77,-4.08,-2.39,-2.38,-2.38
233.57,0.32,2.69,0.33,2.71,-2.71,-3.77,-4.11,-2.39,-2.38,-2.37
235.90,0.35,2.72,0.36,2.73,-2.73,-3.76,-4.14,-2.39,-2.38,-2.38
238.26,0.40,2.77,0.40,2.77,-2.77,-3.75,-4.16,-2.37,-2.37,-2.38
240.64,0.45,2.81,0.46,2.82,-2.82,-3.75,-4.17,-2.37,-2.36,-2.36
243.05,0.52,2.87,0.53,2.88,-2.88,-3.74,-4.18,-2.36,-2.35,-2.35
245.48,0.60,2.93,0.61,2.94,-2.94,-3.73,-4.18,-2.35,-2.33,-2.33
247.93,0.69,3.01,0.71,3.02,-3.02,-3.72,-4.18,-2.33,-2.32,-2.32
250.41,0.80,3.11,0.81,3.11,-3.11,-3.71,-4.17,-2.31,-2.30,-2.31
252.92,0.92,3.19,0.93,3.21,-3.21,-3.69,-4.16,-2.29,-2.28,-2.28
255.45,1.04,3.29,1.05,3.32,-3.32,-3.68,-4.14,-2.28,-2.26,-2.26
258.00,1.18,3.41,1.19,3.43,-3.43,-3.66,-4.11,-2.25,-2.24,-2.23
260.58,1.33,3.55,1.33,3.55,-3.55,-3.65,-4.08,-2.22,-2.22,-2.22
263.19,1.47,3.67,1.48,3.68,-3.68,-3.63,-4.05,-2.21,-2.20,-2.20
265.82,1.63,3.81,1.63,3.81,-3.81,-3.61,-4.00,-2.18,-2.18,-2.18
268.48,1.78,3.93,1.78,3.94,-3.94,-3.60,-3.96,-2.16,-2.15,-2.16
271.16,1.93,4.05,1.94,4.07,-4.07,-3.58,-3.91,-2.14,-2.13,-2.12
273.87,2.08,4.19,2.09,4.20,-4.20,-3.56,-3.85,-2.12,-2.11,-2.11
276.61,2.23,4.30,2.23,4.32,-4.32,-3.53,-3.79,-2.09,-2.08,-2.08
279.38,2.37,4.43,2.37,4.43,-4.43,-3.51,-3.73,-2.06,-2.06,-2.06
282.17,2.49,4.53,2.49,4.53,-4.53,-3.49,-3.66,-2.04,-2.04,-2.04
284.99,2.61,4.62,2.60,4.61,-4.61,-3.46,-3.59,-2.00,-2.01,-2.01
287.84,2.71,4.70,2.69,4.67,-4.67,-3.44,-3.52,-1.97,-1.99,-1.99
290.72,2.80,4.75,2.76,4.72,-4.72,-3.41,-3.45,-1.92,-1.96,-1.95
293.63,2.87,4.81,2.81,4.74,-4.74,-3.38,-3.38,-1.87,-1.93,-1.94
296.57,2.90,4.80,2.83,4.73,-4.73,-3.36,-3.30,-1.84,-1.90,-1.91
299.53,2.90,4.78,2.84,4.71,-4.71,-3.33,-3.23,-1.81,-1.87,-1.88
302.53,2.88,4.73,2.82,4.66,-4.66,-3.30,-3.15,-1.79,-1.84,-1.85
305.55,2.83,4.64,2.79,4.60,-4.60,-3.27,-3.07,-1.77,-1.81,-1.81
308.61,2.76,4.54,2.74,4.52,-4.52,-3.23,-3.00,-1.76,-1.78,-1.78
311.69,2.68,4.42,2.67,4.42,-4.42,-3.20,-2.92,-1.75,-1.75,-1.75
314.81,2.58,4.29,2.60,4.32,-4.32,-3.17,-2.85,-1.74,-1.72,-1.71
317.96,2.48,4.16,2.52,4.21,-4.21,-3.13,-2.77,-1.73,-1.69,-1.69
321.14,2.39,4.05,2.43,4.09,-4.09,-3.10,-2.70,-1.71,-1.66,-1.66
324.35,2.29,3.92,2.35,3.98,-3.98,-3.06,-2.62,-1.69,-1.63,-1.63
327.59,2.21,3.80,2.26,3.86,-3.86,-3.02,-2.55,-1.66,-1.60,-1.60
330.87,2.14,3.71,2.18,3.75,-3.75,-2.98,-2.48,-1.61,-1.58,-1.57
334.18,2.07,3.62,2.09,3.64,-3.64,-2.94,-2.41,-1.58,-1.55,-1.55
337.52,2.01,3.53,2.02,3.54,-3.54,-2.90,-2.35,-1.53,-1.52,-1.53
340.90,1.95,3.45,1.94,3.44,-3.44,-2.86,-2.28,-1.49,-1.50,-1.50
344.30,1.88,3.36,1.86,3.34,-3.34,-2.82,-2.21,-1.47,-1.48,-1.48
347.75,1.81,3.26,1.79,3.25,-3.25,-2.77,-2.15,-1.44,-1.46,-1.45
351.23,1.75,3.18,1.72,3.16,-3.16,-2.73,-2.09,-1.41,-1.44,-1.44
354.74,1.67,3.09,1.64,3.06,-3.06,-2.68,-2.03,-1.39,-1.42,-1.42
358.28,1.58,2.98,1.56,2.96,-2.96,-2.64,-1.97,-1.39,-1.40,-1.40
361.87,1.49,2.87,1.49,2.87,-2.87,-2.59,-1.92,-1.38,-1.38,-1.38
365.49,1.40,2.75,1.40,2.76,-2.76,-2.54,-1.86,-1.37,-1.36,-1.36
369.14,1.32,2.67,1.32,2.66,-2.66,-2.49,-1.81,-1.34,-1.34,-1.35
372.83,1.23,2.56,1.23,2.55,-2.55,-2.44,-1.75,-1.33,-1.32,-1.33
376.56,1.14,2.45,1.14,2.45,-2.45,-2.39,-1.70,-1.31,-1.31,-1.31
380.33,1.05,2.33,1.05,2.34,-2.34,-2.33,-1.66,-1.29,-1.29,-1.28
384.13,0.97,2.23,0.96,2.23,-2.23,-2.28,-1.61,-1.26,-1.27,-1.27
387.97,0.88,2.13,0.88,2.12,-2.12,-2.22,-1.56,-1.25,-1.25,-1.25
391.85,0.79,2.02,0.79,2.02,-2.02,-2.17,-1.52,-1.23,-1.23,-1.23
395.77,0.71,1.91,0.71,1.92,-1.92,-2.11,-1.47,-1.21,-1.21,-1.20
399.73,0.64,1.82,0.63,1.82,-1.82,-2.05,-1.43,-1.18,-1.19,-1.18
403.72,0.55,1.71,0.56,1.72,-1.72,-1.99,-1.39,-1.17,-1.16,-1.16
407.76,0.48,1.62,0.48,1.63,-1.63,-1.93,-1.35,-1.15,-1.14,-1.15
411.84,0.41,1.52,0.42,1.54,-1.54,-1.87,-1.32,-1.13,-1.12,-1.12
415.96,0.35,1.45,0.35,1.45,-1.45,-1.80,-1.28,-1.10,-1.10,-1.10
420.12,0.29,1.37,0.29,1.37,-1.37,-1.74,-1.24,-1.08,-1.08,-1.08
424.32,0.23,1.28,0.23,1.29,-1.29,-1.68,-1.21,-1.06,-1.05,-1.05
428.56,0.18,1.21,0.18,1.21,-1.21,-1.61,-1.18,-1.03,-1.03,-1.03
432.85,0.13,1.14,0.13,1.14,-1.14,-1.55,-1.15,-1.01,-1.01,-1.01
437.18,0.09,1.07,0.09,1.07,-1.07,-1.48,-1.12,-0.98,-0.98,-0.98
441.55,0.06,1.01,0.04,1.00,-1.00,-1.41,-1.09,-0.95,-0.96,-0.96
445.96,0.01,0.94,0.01,0.94,-0.94,-1.34,-1.06,-0.93,-0.93,-0.94
450.42,-0.02,0.89,-0.03,0.88,-0.88,-1.28,-1.03,-0.90,-0.91,-0.92
454.93,-0.06,0.82,-0.06,0.82,-0.82,-1.21,-1.00,-0.89,-0.88,-0.88
459.48,-0.08,0.78,-0.08,0.77,-0.77,-1.14,-0.98,-0.85,-0.85,-0.86
464.07,-0.11,0.72,-0.11,0.72,-0.72,-1.08,-0.95,-0.83,-0.83,-0.83
468.71,-0.13,0.66,-0.13,0.67,-0.67,-1.01,-0.93,-0.81,-0.80,-0.79
473.40,-0.14,0.63,-0.14,0.63,-0.63,-0.94,-0.91,-0.77,-0.77,-0.77
478.13,-0.15,0.59,-0.16,0.59,-0.59,-0.88,-0.89,-0.74,-0.74,-0.74
482.91,-0.17,0.54,-0.17,0.55,-0.55,-0.82,-0.87,-0.72,-0.71,-0.71
487.74,-0.17,0.51,-0.17,0.51,-0.51,-0.76,-0.85,-0.69,-0.69,-0.68
492.62,-0.17,0.48,-0.18,0.48,-0.48,-0.70,-0.83,-0.66,-0.66,-0.65
497.55,-0.16,0.47,-0.17,0.45,-0.45,-0.64,-0.81,-0.62,-0.63,-0.64
502.52,-0.17,0.42,-0.17,0.43,-0.43,-0.59,-0.79,-0.60,-0.60,-0.60
507.55,-0.16,0.41,-0.17,0.41,-0.41,-0.54,-0.78,-0.57,-0.57,-0.58
512.62,-0.16,0.38,-0.16,0.39,-0.39,-0.49,-0.76,-0.55,-0.55,-0.55
