frequency,raw,error,smoothed,error_smoothed,equalization,parametric_eq,fixed_band_eq,equalized_raw,equalized_smoothed,target
20.00,-13.28,-13.91,-13.28,-13.93,13.93,13.60,5.35,0.65,0.66,0.63
20.20,-13.15,-13.87,-13.15,-13.88,13.88,13.56,5.48,0.73,0.73,0.72
20.40,-13.01,-13.81,-13.02,-13.82,13.82,13.51,5.62,0.81,0.81,0.80
20.61,-12.89,-13.76,-12.89,-13.77,13.77,13.46,5.76,0.88,0.88,0.87
20.81,-12.76,-13.72,-12.76,-13.71,13.71,13.41,5.90,0.94,0.94,0.96
21.02,-12.64,-13.67,-12.64,-13.65,13.65,13.35,6.05,1.01,1.01,1.04
21.23,-12.51,-13.60,-12.51,-13.58,13.58,13.30,6.20,1.07,1.07,1.10
21.44,-12.38,-13.54,-12.38,-13.51,13.51,13.24,6.36,1.13,1.13,1.16
21.66,-12.26,-13.46,-12.25,-13.45,13.45,13.18,6.52,1.19,1.19,1.21
21.87,-12.12,-13.38,-12.13,-13.37,13.37,13.12,6.68,1.25,1.25,1.26
22.09,-12.00,-13.31,-12.00,-13.30,13.30,13.06,6.85,1.30,1.30,1.31
22.31,-11.87,-13.23,-11.87,-13.22,13.22,12.99,7.03,1.35,1.35,1.35
22.54,-11.75,-13.14,-11.75,-13.14,13.14,12.93,7.20,1.39,1.39,1.39
22.76,-11.62,-13.05,-11.62,-13.06,13.06,12.86,7.38,1.44,1.44,1.43
22.99,-11.50,-12.96,-11.50,-12.97,12.97,12.79,7.57,1.47,1.47,1.46
23.22,-11.37,-12.87,-11.37,-12.88,12.88,12.72,7.76,1.51,1.51,1.50
23.45,-11.25,-12.79,-11.24,-12.79,12.79,12.65,7.96,1.55,1.55,1.54
23.69,-11.12,-12.70,-11.12,-12.70,12.70,12.58,8.16,1.59,1.59,1.58
23.92,-10.99,-12.61,-10.99,-12.61,12.61,12.51,8.36,1.62,1.62,1.62
24.16,-10.88,-12.54,-10.87,-12.53,12.53,12.44,8.57,1.65,1.66,1.67
24.40,-10.74,-12.44,-10.75,-12.44,12.44,12.37,8.78,1.69,1.69,1.70
24.65,-10.63,-12.35,-10.62,-12.35,12.35,12.29,9.00,1.72,1.72,1.73
24.89,-10.49,-12.25,-10.50,-12.26,12.26,12.22,9.22,1.76,1.76,1.76
25.14,-10.37,-12.17,-10.38,-12.17,12.17,12.14,9.45,1.80,1.79,1.79
25.39,-10.25,-12.08,-10.26,-12.08,12.08,12.07,9.68,1.83,1.82,1.82
25.65,-10.14,-12.00,-10.14,-11.99,11.99,11.99,9.91,1.86,1.86,1.86
25.91,-10.02,-11.90,-10.02,-11.91,11.91,11.91,10.14,1.89,1.89,1.88
26.16,-9.89,-11.80,-9.90,-11.82,11.82,11.84,10.38,1.92,1.92,1.91
26.43,-9.79,-11.74,-9.78,-11.73,11.73,11.76,10.62,1.94,1.95,1.95
26.69,-9.67,-11.64,-9.66,-11.64,11.64,11.68,10.86,1.97,1.98,1.98
26.96,-9.55,-11.55,-9.55,-11.55,11.55,11.60,11.09,2.01,2.01,2.01
27.23,-9.44,-11.48,-9.43,-11.47,11.47,11.52,11.33,2.03,2.04,2.04
27.50,-9.32,-11.39,-9.32,-11.38,11.38,11.45,11.56,2.07,2.07,2.07
27.77,-9.20,-11.30,-9.21,-11.30,11.30,11.37,11.79,2.10,2.10,2.09
28.05,-9.10,-11.23,-9.09,-11.22,11.22,11.29,12.02,2.12,2.13,2.13
28.33,-8.99,-11.13,-8.98,-11.14,11.14,11.21,12.23,2.15,2.16,2.15
28.62,-8.88,-11.05,-8.87,-11.06,11.06,11.13,12.44,2.18,2.19,2.18
28.90,-8.77,-10.98,-8.77,-10.98,10.98,11.05,12.63,2.22,2.21,2.22
29.19,-8.66,-10.89,-8.66,-10.91,10.91,10.98,12.81,2.25,2.24,2.23
29.48,-8.56,-10.84,-8.56,-10.83,10.83,10.90,12.97,2.27,2.27,2.28
29.78,-8.46,-10.76,-8.46,-10.76,10.76,10.82,13.12,2.30,2.30,2.30
30.08,-8.36,-10.68,-8.36,-10.69,10.69,10.74,13.24,2.33,2.33,2.33
30.38,-8.27,-10.62,-8.27,-10.62,10.62,10.67,13.35,2.35,2.35,2.35
30.68,-8.18,-10.56,-8.17,-10.55,10.55,10.59,13.43,2.38,2.38,2.38
30.99,-8.08,-10.48,-8.08,-10.49,10.49,10.51,13.48,2.41,2.40,2.40
31.30,-8.00,-10.43,-8.00,-10.43,10.43,10.44,13.51,2.43,2.43,2.43
31.61,-7.91,-10.36,-7.91,-10.36,10.36,10.36,13.51,2.46,2.45,2.46
31.93,-7.83,-10.30,-7.82,-10.30,10.30,10.28,13.49,2.47,2.48,2.47
32.24,-7.75,-10.24,-7.74,-10.24,10.24,10.21,13.45,2.50,2.50,2.49
32.57,-7.67,-10.18,-7.66,-10.18,10.18,10.13,13.39,2.51,2.52,2.52
32.89,-7.59,-10.13,-7.58,-10.12,10.12,10.06,13.30,2.53,2.54,2.55
33.22,-7.51,-10.07,-7.50,-10.06,10.06,9.99,13.19,2.56,2.56,2.56
33.55,-7.43,-10.00,-7.43,-10.00,10.00,9.91,13.07,2.58,2.57,2.58
33.89,-7.36,-9.94,-7.35,-9.94,9.94,9.84,12.94,2.59,2.59,2.59
34.23,-7.28,-9.89,-7.28,-9.88,9.88,9.77,12.79,2.61,2.60,2.61
34.57,-7.21,-9.82,-7.21,-9.83,9.83,9.70,12.63,2.62,2.62,2.62
34.92,-7.14,-9.76,-7.14,-9.77,9.77,9.62,12.46,2.63,2.63,2.62
35.27,-7.07,-9.71,-7.07,-9.71,9.71,9.55,12.29,2.64,2.64,2.64
35.62,-7.01,-9.64,-7.01,-9.65,9.65,9.48,12.12,2.65,2.64,2.64
35.97,-6.94,-9.58,-6.95,-9.59,9.59,9.41,11.94,2.66,2.65,2.64
36.33,-6.89,-9.54,-6.89,-9.54,9.54,9.35,11.76,2.65,2.65,2.66
36.70,-6.83,-9.48,-6.83,-9.48,9.48,9.28,11.58,2.65,2.65,2.65
37.06,-6.77,-9.42,-6.77,-9.42,9.42,9.21,11.40,2.66,2.65,2.65
37.43,-6.72,-9.37,-6.71,-9.37,9.37,9.15,11.22,2.65,2.65,2.66
37.81,-6.67,-9.32,-6.66,-9.31,9.31,9.08,11.05,2.64,2.65,2.65
38.19,-6.61,-9.25,-6.60,-9.25,9.25,9.02,10.87,2.64,2.65,2.65
38.57,-6.56,-9.21,-6.55,-9.19,9.19,8.95,10.71,2.64,2.64,2.65
38.95,-6.51,-9.15,-6.50,-9.14,9.14,8.89,10.55,2.63,2.64,2.64
39.34,-6.45,-9.07,-6.45,-9.08,9.08,8.83,10.39,2.63,2.63,2.63
39.74,-6.40,-9.02,-6.40,-9.02,9.02,8.77,10.23,2.63,2.63,2.62
40.14,-6.35,-8.96,-6.35,-8.97,8.97,8.71,10.09,2.62,2.62,2.62
40.54,-6.30,-8.91,-6.30,-8.91,8.91,8.65,9.95,2.61,2.61,2.61
40.94,-6.25,-8.85,-6.25,-8.85,8.85,8.59,9.81,2.61,2.61,2.60
41.35,-6.20,-8.79,-6.20,-8.80,8.80,8.53,9.68,2.60,2.60,2.60
41.76,-6.16,-8.74,-6.16,-8.74,8.74,8.47,9.56,2.59,2.59,2.59
42.18,-6.11,-8.69,-6.11,-8.69,8.69,8.42,9.44,2.58,2.57,2.58
42.60,-6.08,-8.64,-6.07,-8.64,8.64,8.37,9.33,2.56,2.56,2.56
43.03,-6.04,-8.60,-6.03,-8.58,8.58,8.31,9.22,2.55,2.55,2.57
43.46,-6.00,-8.54,-6.00,-8.53,8.53,8.26,9.12,2.54,2.54,2.55
43.90,-5.97,-8.49,-5.96,-8.49,8.49,8.21,9.03,2.52,2.53,2.53
44.33,-5.93,-8.44,-5.93,-8.44,8.44,8.16,8.94,2.52,2.52,2.51
44.78,-5.90,-8.40,-5.90,-8.40,8.40,8.11,8.86,2.50,2.50,2.50
45.23,-5.87,-8.35,-5.87,-8.36,8.36,8.06,8.78,2.49,2.49,2.48
45.68,-5.84,-8.31,-5.84,-8.32,8.32,8.02,8.71,2.48,2.48,2.47
46.13,-5.81,-8.27,-5.81,-8.28,8.28,7.97,8.65,2.47,2.47,2.46
46.60,-5.79,-8.24,-5.79,-8.24,8.24,7.93,8.59,2.46,2.45,2.46
47.06,-5.77,-8.21,-5.77,-8.21,8.21,7.89,8.53,2.44,2.44,2.45
47.53,-5.75,-8.18,-5.75,-8.18,8.18,7.85,8.48,2.43,2.43,2.44
48.01,-5.73,-8.16,-5.73,-8.15,8.15,7.81,8.44,2.43,2.42,2.43
48.49,-5.72,-8.14,-5.71,-8.13,8.13,7.77,8.40,2.41,2.41,2.42
48.97,-5.70,-8.10,-5.70,-8.10,8.10,7.74,8.37,2.41,2.41,2.41
49.46,-5.69,-8.07,-5.69,-8.08,8.08,7.70,8.34,2.40,2.40,2.38
49.96,-5.68,-8.05,-5.67,-8.07,8.07,7.67,8.32,2.39,2.39,2.37
50.46,-5.67,-8.04,-5.66,-8.05,8.05,7.64,8.30,2.38,2.39,2.38
50.96,-5.66,-8.04,-5.65,-8.03,8.03,7.61,8.28,2.37,2.38,2.38
51.47,-5.66,-8.02,-5.64,-8.02,8.02,7.58,8.27,2.36,2.37,2.37
51.99,-5.65,-8.01,-5.64,-8.00,8.00,7.55,8.26,2.36,2.36,2.36
52.51,-5.64,-8.00,-5.63,-7.99,7.99,7.53,8.25,2.35,2.36,2.36
53.03,-5.63,-7.98,-5.63,-7.98,7.98,7.51,8.25,2.35,2.35,2.36
53.56,-5.62,-7.97,-5.63,-7.97,7.97,7.48,8.24,2.35,2.34,2.35
54.10,-5.62,-7.96,-5.63,-7.96,7.96,7.47,8.24,2.34,2.33,2.34
54.64,-5.63,-7.95,-5.63,-7.95,7.95,7.45,8.24,2.32,2.32,2.32
55.18,-5.63,-7.94,-5.63,-7.94,7.94,7.43,8.25,2.32,2.31,2.31
55.74,-5.64,-7.93,-5.64,-7.93,7.93,7.42,8.25,2.30,2.30,2.29
56.29,-5.66,-7.94,-5.64,-7.92,7.92,7.41,8.25,2.27,2.28,2.28
56.86,-5.67,-7.93,-5.65,-7.92,7.92,7.40,8.26,2.25,2.26,2.26
57.42,-5.67,-7.90,-5.66,-7.91,7.91,7.40,8.26,2.24,2.24,2.24
58.00,-5.68,-7.90,-5.68,-7.90,7.90,7.39,8.26,2.22,2.22,2.22
58.58,-5.69,-7.89,-5.69,-7.89,7.89,7.39,8.26,2.20,2.20,2.20
59.16,-5.71,-7.89,-5.71,-7.88,7.88,7.39,8.26,2.18,2.17,2.19
59.76,-5.73,-7.89,-5.73,-7.87,7.87,7.40,8.25,2.15,2.15,2.16
60.35,-5.75,-7.87,-5.75,-7.87,7.87,7.40,8.25,2.12,2.12,2.13
60.96,-5.78,-7.88,-5.77,-7.86,7.86,7.41,8.24,2.09,2.09,2.11
61.57,-5.80,-7.86,-5.80,-7.86,7.86,7.42,8.22,2.07,2.06,2.06
62.18,-5.83,-7.85,-5.83,-7.87,7.87,7.43,8.21,2.04,2.03,2.02
62.80,-5.87,-7.87,-5.86,-7.87,7.87,7.45,8.19,2.01,2.01,2.00
63.43,-5.91,-7.87,-5.90,-7.88,7.88,7.47,8.17,1.98,1.98,1.96
64.07,-5.94,-7.88,-5.94,-7.90,7.90,7.49,8.15,1.96,1.95,1.94
64.71,-5.98,-7.90,-5.99,-7.92,7.92,7.52,8.12,1.94,1.93,1.92
65.35,-6.03,-7.92,-6.03,-7.94,7.94,7.54,8.09,1.92,1.91,1.90
66.01,-6.08,-7.96,-6.08,-7.97,7.97,7.57,8.06,1.90,1.89,1.88
66.67,-6.14,-8.01,-6.14,-8.01,8.01,7.61,8.02,1.87,1.87,1.87
67.33,-6.20,-8.05,-6.19,-8.04,8.04,7.64,7.99,1.85,1.85,1.85
68.01,-6.25,-8.08,-6.25,-8.08,8.08,7.68,7.95,1.84,1.84,1.84
68.69,-6.31,-8.13,-6.30,-8.13,8.13,7.72,7.91,1.82,1.82,1.82
69.37,-6.37,-8.18,-6.36,-8.17,8.17,7.77,7.87,1.80,1.81,1.81
70.07,-6.43,-8.22,-6.42,-8.22,8.22,7.82,7.83,1.79,1.80,1.79
70.77,-6.49,-8.28,-6.48,-8.26,8.26,7.87,7.79,1.78,1.78,1.79
71.48,-6.55,-8.32,-6.55,-8.31,8.31,7.92,7.75,1.76,1.76,1.77
72.19,-6.62,-8.37,-6.61,-8.36,8.36,7.98,7.71,1.74,1.75,1.75
72.91,-6.67,-8.40,-6.67,-8.40,8.40,8.04,7.67,1.74,1.73,1.74
73.64,-6.73,-8.44,-6.74,-8.45,8.45,8.10,7.64,1.72,1.71,1.71
74.38,-6.79,-8.48,-6.80,-8.49,8.49,8.16,7.61,1.70,1.69,1.70
75.12,-6.86,-8.53,-6.86,-8.53,8.53,8.23,7.57,1.67,1.67,1.67
75.87,-6.93,-8.58,-6.92,-8.58,8.58,8.29,7.55,1.65,1.65,1.65
76.63,-7.00,-8.63,-6.99,-8.62,8.62,8.36,7.52,1.62,1.63,1.64
77.40,-7.06,-8.66,-7.05,-8.66,8.66,8.43,7.50,1.60,1.61,1.61
78.17,-7.12,-8.69,-7.11,-8.70,8.70,8.51,7.48,1.58,1.59,1.58
78.95,-7.18,-8.75,-7.17,-8.74,8.74,8.58,7.47,1.57,1.57,1.58
79.74,-7.23,-8.78,-7.23,-8.79,8.79,8.65,7.46,1.56,1.55,1.55
80.54,-7.29,-8.82,-7.29,-8.83,8.83,8.73,7.45,1.54,1.54,1.53
81.35,-7.34,-8.85,-7.35,-8.87,8.87,8.80,7.45,1.54,1.52,1.52
82.16,-7.40,-8.90,-7.40,-8.91,8.91,8.87,7.46,1.52,1.51,1.50
82.98,-7.47,-8.96,-7.46,-8.96,8.96,8.94,7.46,1.49,1.50,1.50
83.81,-7.53,-9.01,-7.51,-9.00,9.00,9.01,7.48,1.47,1.49,1.48
84.65,-7.57,-9.03,-7.56,-9.04,9.04,9.08,7.50,1.47,1.48,1.46
85.50,-7.62,-9.08,-7.61,-9.07,9.07,9.14,7.52,1.46,1.46,1.46
86.35,-7.67,-9.12,-7.66,-9.11,9.11,9.20,7.55,1.45,1.45,1.46
87.22,-7.71,-9.14,-7.71,-9.15,9.15,9.25,7.58,1.44,1.44,1.44
88.09,-7.75,-9.17,-7.76,-9.18,9.18,9.30,7.62,1.43,1.42,1.43
88.97,-7.80,-9.21,-7.81,-9.21,9.21,9.34,7.67,1.42,1.41,1.41
89.86,-7.84,-9.23,-7.85,-9.24,9.24,9.37,7.72,1.40,1.38,1.39
90.76,-7.90,-9.26,-7.90,-9.26,9.26,9.40,7.77,1.36,1.36,1.36
91.66,-7.94,-9.27,-7.94,-9.27,9.27,9.42,7.83,1.33,1.33,1.34
92.58,-7.98,-9.27,-7.98,-9.28,9.28,9.44,7.90,1.30,1.30,1.29
93.51,-8.03,-9.30,-8.02,-9.28,9.28,9.44,7.97,1.26,1.26,1.27
94.44,-8.07,-9.29,-8.07,-9.28,9.28,9.44,8.05,1.21,1.21,1.22
95.39,-8.12,-9.29,-8.10,-9.27,9.27,9.42,8.13,1.15,1.17,1.18
96.34,-8.15,-9.27,-8.14,-9.25,9.25,9.40,8.22,1.11,1.11,1.12
97.30,-8.18,-9.23,-8.17,-9.23,9.23,9.37,8.31,1.05,1.06,1.06
98.28,-8.20,-9.20,-8.20,-9.20,9.20,9.33,8.41,1.00,1.00,1.00
99.26,-8.22,-9.15,-8.22,-9.15,9.15,9.28,8.51,0.94,0.93,0.93
100.25,-8.25,-9.11,-8.24,-9.10,9.10,9.23,8.61,0.86,0.87,0.87
101.25,-8.27,-9.07,-8.25,-9.05,9.05,9.16,8.72,0.78,0.80,0.80
102.27,-8.28,-9.01,-8.25,-8.99,8.99,9.10,8.83,0.71,0.73,0.73
103.29,-8.29,-8.94,-8.26,-8.92,8.92,9.02,8.94,0.64,0.66,0.65
104.32,-8.29,-8.88,-8.26,-8.86,8.86,8.94,9.06,0.57,0.59,0.60
105.37,-8.28,-8.80,-8.26,-8.79,8.79,8.85,9.18,0.51,0.52,0.52
106.42,-8.26,-8.71,-8.27,-8.72,8.72,8.76,9.30,0.46,0.45,0.45
107.48,-8.25,-8.63,-8.27,-8.65,8.65,8.67,9.41,0.41,0.39,0.38
108.56,-8.24,-8.55,-8.27,-8.59,8.59,8.58,9.53,0.35,0.32,0.32
109.64,-8.25,-8.49,-8.28,-8.53,8.53,8.48,9.65,0.28,0.25,0.25
110.74,-8.27,-8.46,-8.29,-8.48,8.48,8.39,9.76,0.21,0.19,0.19
111.85,-8.30,-8.43,-8.30,-8.43,8.43,8.29,9.87,0.13,0.12,0.13
112.97,-8.32,-8.37,-8.32,-8.38,8.38,8.20,9.97,0.06,0.06,0.06
114.10,-8.35,-8.36,-8.34,-8.34,8.34,8.10,10.06,-0.00,0.01,0.01
115.24,-8.38,-8.32,-8.36,-8.31,8.31,8.01,10.15,-0.06,-0.05,-0.06
116.39,-8.39,-8.27,-8.39,-8.29,8.29,7.92,10.23,-0.10,-0.10,-0.11
117.55,-8.42,-8.26,-8.42,-8.27,8.27,7.84,10.30,-0.14,-0.15,-0.16
118.73,-8.46,-8.24,-8.46,-8.26,8.26,7.76,10.36,-0.20,-0.20,-0.21
119.92,-8.51,-8.26,-8.49,-8.25,8.25,7.68,10.40,-0.26,-0.25,-0.25
121.12,-8.55,-8.26,-8.53,-8.24,8.24,7.61,10.43,-0.30,-0.29,-0.29
122.33,-8.58,-8.24,-8.57,-8.24,8.24,7.55,10.44,-0.34,-0.33,-0.33
123.55,-8.61,-8.24,-8.61,-8.23,8.23,7.49,10.44,-0.37,-0.37,-0.37
124.79,-8.65,-8.24,-8.65,-8.24,8.24,7.44,10.42,-0.41,-0.41,-0.41
126.03,-8.71,-8.27,-8.69,-8.25,8.25,7.39,10.39,-0.46,-0.45,-0.44
127.29,-8.74,-8.26,-8.74,-8.25,8.25,7.35,10.33,-0.48,-0.49,-0.48
128.57,-8.78,-8.25,-8.79,-8.27,8.27,7.32,10.27,-0.51,-0.52,-0.53
129.85,-8.83,-8.27,-8.84,-8.28,8.28,7.30,10.18,-0.55,-0.56,-0.56
131.15,-8.89,-8.29,-8.90,-8.29,8.29,7.29,10.09,-0.59,-0.60,-0.60
132.46,-8.93,-8.28,-8.95,-8.31,8.31,7.28,9.98,-0.62,-0.64,-0.65
133.79,-9.00,-8.32,-9.01,-8.33,8.33,7.29,9.85,-0.67,-0.68,-0.67
135.12,-9.07,-8.35,-9.06,-8.35,8.35,7.30,9.72,-0.72,-0.72,-0.72
136.48,-9.12,-8.36,-9.12,-8.36,8.36,7.33,9.57,-0.75,-0.76,-0.75
137.84,-9.20,-8.40,-9.18,-8.38,8.38,7.36,9.42,-0.82,-0.80,-0.80
139.22,-9.25,-8.40,-9.24,-8.39,8.39,7.41,9.26,-0.85,-0.84,-0.85
140.61,-9.29,-8.39,-9.29,-8.40,8.40,7.46,9.09,-0.88,-0.88,-0.89
142.02,-9.36,-8.43,-9.34,-8.41,8.41,7.52,8.91,-0.94,-0.93,-0.92
143.44,-9.40,-8.43,-9.39,-8.42,8.42,7.60,8.74,-0.98,-0.97,-0.96
144.87,-9.44,-8.42,-9.43,-8.42,8.42,7.68,8.56,-1.02,-1.01,-1.01
146.32,-9.48,-8.41,-9.47,-8.41,8.41,7.77,8.37,-1.07,-1.06,-1.06
147.78,-9.51,-8.41,-9.50,-8.39,8.39,7.86,8.19,-1.11,-1.10,-1.10
149.26,-9.53,-8.38,-9.52,-8.37,8.37,7.96,8.00,-1.16,-1.15,-1.15
150.75,-9.55,-8.35,-9.54,-8.34,8.34,8.07,7.82,-1.20,-1.20,-1.20
152.26,-9.56,-8.31,-9.56,-8.31,8.31,8.17,7.64,-1.25,-1.25,-1.25
153.78,-9.58,-8.29,-9.57,-8.27,8.27,8.27,7.46,-1.30,-1.29,-1.29
155.32,-9.59,-8.25,-9.58,-8.23,8.23,8.37,7.28,-1.35,-1.34,-1.34
156.88,-9.59,-8.20,-9.58,-8.19,8.19,8.45,7.10,-1.39,-1.39,-1.38
158.44,-9.58,-8.13,-9.59,-8.14,8.14,8.52,6.92,-1.43,-1.44,-1.44
160.03,-9.56,-8.06,-9.59,-8.10,8.10,8.57,6.75,-1.46,-1.49,-1.49
161.63,-9.57,-8.02,-9.59,-8.05,8.05,8.60,6.58,-1.52,-1.54,-1.55
163.24,-9.58,-7.98,-9.59,-8.00,8.00,8.60,6.42,-1.58,-1.59,-1.60
164.88,-9.59,-7.94,-9.59,-7.94,7.94,8.58,6.26,-1.64,-1.64,-1.65
166.53,-9.59,-7.90,-9.58,-7.89,7.89,8.52,6.10,-1.70,-1.69,-1.69
168.19,-9.58,-7.84,-9.57,-7.83,7.83,8.43,5.94,-1.74,-1.74,-1.74
169.87,-9.56,-7.78,-9.56,-7.78,7.78,8.31,5.79,-1.78,-1.78,-1.78
171.57,-9.55,-7.72,-9.54,-7.72,7.72,8.16,5.65,-1.83,-1.83,-1.82
173.29,-9.54,-7.67,-9.52,-7.66,7.66,7.99,5.50,-1.88,-1.87,-1.86
175.02,-9.51,-7.60,-9.50,-7.59,7.59,7.79,5.36,-1.91,-1.91,-1.91
176.77,-9.47,-7.52,-9.47,-7.53,7.53,7.58,5.23,-1.94,-1.94,-1.95
178.54,-9.44,-7.45,-9.43,-7.46,7.46,7.35,5.10,-1.98,-1.98,-1.99
180.32,-9.40,-7.38,-9.39,-7.38,7.38,7.11,4.97,-2.01,-2.01,-2.01
182.13,-9.36,-7.31,-9.34,-7.30,7.30,6.86,4.84,-2.05,-2.04,-2.04
183.95,-9.29,-7.22,-9.29,-7.22,7.22,6.61,4.72,-2.07,-2.07,-2.07
185.79,-9.23,-7.13,-9.23,-7.13,7.13,6.36,4.61,-2.09,-2.09,-2.09
187.65,-9.16,-7.04,-9.16,-7.04,7.04,6.11,4.49,-2.11,-2.12,-2.12
189.52,-9.08,-6.94,-9.08,-6.95,6.95,5.86,4.38,-2.13,-2.14,-2.13
191.42,-9.00,-6.84,-9.00,-6.84,6.84,5.62,4.27,-2.15,-2.16,-2.16
193.33,-8.90,-6.72,-8.91,-6.74,6.74,5.39,4.17,-2.16,-2.18,-2.17
195.27,-8.81,-6.62,-8.81,-6.62,6.62,5.16,4.07,-2.19,-2.19,-2.18
197.22,-8.72,-6.51,-8.71,-6.49,6.49,4.94,3.97,-2.22,-2.21,-2.21
199.19,-8.62,-6.38,-8.59,-6.36,6.36,4.73,3.87,-2.26,-2.23,-2.24
201.18,-8.50,-6.25,-8.47,-6.22,6.22,4.52,3.78,-2.27,-2.24,-2.25
203.19,-8.37,-6.11,-8.34,-6.08,6.08,4.32,3.69,-2.29,-2.26,-2.26
205.23,-8.22,-5.94,-8.21,-5.93,5.93,4.14,3.60,-2.29,-2.28,-2.28
207.28,-8.08,-5.79,-8.07,-5.78,5.78,3.96,3.52,-2.30,-2.29,-2.28
209.35,-7.93,-5.62,-7.92,-5.62,5.62,3.78,3.44,-2.31,-2.31,-2.30
211.44,-7.76,-5.43,-7.77,-5.45,5.45,3.62,3.35,-2.30,-2.32,-2.33
213.56,-7.59,-5.25,-7.62,-5.28,5.28,3.46,3.28,-2.30,-2.34,-2.34
215.69,-7.42,-5.07,-7.46,-5.11,5.11,3.30,3.20,-2.30,-2.35,-2.34
217.85,-7.26,-4.89,-7.30,-4.94,4.94,3.16,3.12,-2.32,-2.37,-2.37
220.03,-7.16,-4.77,-7.14,-4.76,4.76,3.02,3.05,-2.40,-2.38,-2.38
222.23,-7.01,-4.60,-6.98,-4.58,4.58,2.88,2.98,-2.43,-2.40,-2.41
224.45,-6.83,-4.41,-6.81,-4.40,4.40,2.75,2.91,-2.43,-2.41,-2.41
226.70,-6.65,-4.22,-6.64,-4.21,4.21,2.63,2.84,-2.43,-2.43,-2.42
228.96,-6.46,-4.02,-6.47,-4.03,4.03,2.51,2.77,-2.43,-2.45,-2.44
231.25,-6.32,-3.87,-6.30,-3.83,3.83,2.39,2.70,-2.48,-2.47,-2.45
233.57,-6.14,-3.66,-6.13,-3.64,3.64,2.28,2.63,-2.49,-2.48,-2.47
235.90,-5.93,-3.43,-5.95,-3.45,3.45,2.17,2.57,-2.48,-2.50,-2.49
238.26,-5.78,-3.26,-5.77,-3.25,3.25,2.06,2.50,-2.53,-2.51,-2.52
240.64,-5.58,-3.04,-5.58,-3.05,3.05,1.96,2.44,-2.53,-2.53,-2.54
243.05,-5.42,-2.87,-5.38,-2.84,2.84,1.86,2.37,-2.57,-2.54,-2.55
245.48,-5.21,-2.65,-5.19,-2.64,2.64,1.76,2.31,-2.57,-2.55,-2.56
247.93,-4.98,-2.41,-5.00,-2.44,2.44,1.66,2.25,-2.54,-2.56,-2.57
250.41,-4.82,-2.23,-4.80,-2.23,2.23,1.56,2.18,-2.58,-2.57,-2.59
252.92,-4.59,-2.01,-4.61,-2.03,2.03,1.47,2.12,-2.55,-2.57,-2.58
255.45,-4.41,-1.83,-4.41,-1.84,1.84,1.38,2.06,-2.57,-2.57,-2.57
258.00,-4.23,-1.65,-4.21,-1.64,1.64,1.29,1.99,-2.59,-2.57,-2.57
260.58,-4.00,-1.42,-4.01,-1.45,1.45,1.20,1.93,-2.55,-2.57,-2.57
263.19,-3.82,-1.26,-3.82,-1.26,1.26,1.11,1.87,-2.56,-2.56,-2.56
265.82,-3.61,-1.05,-3.62,-1.07,1.07,1.02,1.80,-2.54,-2.55,-2.56
268.48,-3.44,-0.90,-3.42,-0.89,0.89,0.93,1.74,-2.55,-2.54,-2.53
271.16,-3.27,-0.74,-3.23,-0.70,0.70,0.84,1.68,-2.56,-2.52,-2.52
273.87,-3.02,-0.51,-3.04,-0.53,0.53,0.75,1.61,-2.49,-2.51,-2.51
276.61,-2.84,-0.35,-2.85,-0.35,0.35,0.66,1.55,-2.48,-2.50,-2.48
279.38,-2.67,-0.19,-2.66,-0.18,0.18,0.56,1.48,-2.49,-2.48,-2.48
282.17,-2.50,-0.03,-2.48,-0.01,0.01,0.47,1.42,-2.49,-2.47,-2.47
284.99,-2.33,0.13,-2.30,0.16,-0.16,0.37,1.36,-2.48,-2.45,-2.45
287.84,-2.10,0.34,-2.12,0.32,-0.32,0.27,1.29,-2.41,-2.44,-2.44
290.72,-1.94,0.48,-1.95,0.47,-0.47,0.17,1.23,-2.41,-2.42,-2.41
293.63,-1.77,0.64,-1.78,0.62,-0.62,0.07,1.17,-2.39,-2.40,-2.41
296.57,-1.61,0.78,-1.62,0.77,-0.77,-0.03,1.10,-2.37,-2.38,-2.38
299.53,-1.46,0.91,-1.46,0.91,-0.91,-0.14,1.04,-2.37,-2.37,-2.37
302.53,-1.31,1.06,-1.30,1.04,-1.04,-0.26,0.98,-2.35,-2.35,-2.36
305.55,-1.17,1.16,-1.16,1.17,-1.17,-0.37,0.91,-2.34,-2.33,-2.33
308.61,-1.02,1.30,-1.01,1.30,-1.30,-0.49,0.85,-2.31,-2.31,-2.31
311.69,-0.87,1.42,-0.87,1.41,-1.41,-0.62,0.79,-2.28,-2.29,-2.29
314.81,-0.74,1.51,-0.74,1.53,-1.53,-0.75,0.72,-2.26,-2.26,-2.25
317.96,-0.62,1.62,-0.61,1.63,-1.63,-0.88,0.66,-2.25,-2.24,-2.23
321.14,-0.51,1.71,-0.50,1.73,-1.73,-1.02,0.59,-2.23,-2.22,-2.22
324.35,-0.39,1.81,-0.38,1.82,-1.82,-1.17,0.53,-2.21,-2.20,-2.20
327.59,-0.26,1.92,-0.27,1.91,-1.91,-1.32,0.47,-2.16,-2.18,-2.17
330.87,-0.16,2.00,-0.17,1.99,-1.99,-1.47,0.40,-2.14,-2.15,-2.16
334.18,-0.06,2.07,-0.07,2.06,-2.06,-1.63,0.34,-2.12,-2.13,-2.13
337.52,0.04,2.16,0.02,2.13,-2.13,-1.78,0.28,-2.09,-2.11,-2.11
340.90,0.10,2.19,0.11,2.19,-2.19,-1.94,0.21,-2.09,-2.09,-2.09
344.30,0.18,2.24,0.19,2.25,-2.25,-2.10,0.15,-2.07,-2.06,-2.06
347.75,0.25,2.30,0.26,2.30,-2.30,-2.25,0.08,-2.05,-2.04,-2.04
351.23,0.32,2.34,0.34,2.35,-2.35,-2.40,0.02,-2.03,-2.02,-2.02
354.74,0.39,2.38,0.40,2.39,-2.39,-2.54,-0.05,-2.00,-1.99,-1.99
358.28,0.46,2.43,0.46,2.43,-2.43,-2.67,-0.11,-1.96,-1.97,-1.97
361.87,0.51,2.46,0.51,2.46,-2.46,-2.79,-0.18,-1.94,-1.94,-1.94
365.49,0.57,2.49,0.57,2.49,-2.49,-2.88,-0.24,-1.91,-1.92,-1.91
369.14,0.61,2.52,0.62,2.51,-2.51,-2.96,-0.31,-1.90,-1.90,-1.91
372.83,0.65,2.53,0.66,2.53,-2.53,-3.02,-0.37,-1.88,-1.87,-1.88
376.56,0.69,2.55,0.70,2.55,-2.55,-3.05,-0.44,-1.86,-1.85,-1.86
380.33,0.73,2.56,0.74,2.57,-2.57,-3.05,-0.51,-1.84,-1.83,-1.82
384.13,0.76,2.58,0.77,2.58,-2.58,-3.04,-0.57,-1.82,-1.82,-1.81
387.97,0.78,2.58,0.79,2.59,-2.59,-3.00,-0.64,-1.81,-1.80,-1.80
391.85,0.80,2.59,0.81,2.60,-2.60,-2.94,-0.71,-1.79,-1.78,-1.79
395.77,0.83,2.59,0.83,2.60,-2.60,-2.87,-0.77,-1.76,-1.77,-1.76
399.73,0.85,2.60,0.84,2.60,-2.60,-2.78,-0.84,-1.74,-1.76,-1.75
403.72,0.85,2.61,0.84,2.59,-2.59,-2.68,-0.90,-1.74,-1.75,-1.75
407.76,0.84,2.59,0.84,2.58,-2.58,-2.58,-0.97,-1.74,-1.75,-1.74
411.84,0.82,2.56,0.83,2.57,-2.57,-2.47,-1.04,-1.75,-1.74,-1.74
415.96,0.80,2.54,0.81,2.55,-2.55,-2.35,-1.10,-1.75,-1.74,-1.74
420.12,0.77,2.51,0.79,2.53,-2.53,-2.24,-1.16,-1.75,-1.74,-1.74
424.32,0.75,2.49,0.76,2.50,-2.50,-2.12,-1.23,-1.75,-1.74,-1.74
428.56,0.72,2.46,0.72,2.46,-2.46,-2.01,-1.29,-1.74,-1.74,-1.74
432.85,0.67,2.43,0.67,2.42,-2.42,-1.91,-1.35,-1.74,-1.75,-1.75
437.18,0.62,2.38,0.61,2.37,-2.37,-1.80,-1.41,-1.74,-1.75,-1.75
441.55,0.57,2.33,0.55,2.31,-2.31,-1.71,-1.47,-1.73,-1.76,-1.75
445.96,0.49,2.26,0.48,2.24,-2.24,-1.62,-1.52,-1.74,-1.76,-1.76
450.42,0.40,2.17,0.40,2.16,-2.16,-1.53,-1.58,-1.76,-1.76,-1.77
454.93,0.32,2.09,0.31,2.08,-2.08,-1.45,-1.63,-1.75,-1.76,-1.77
459.48,0.21,1.99,0.22,1.99,-1.99,-1.37,-1.68,-1.77,-1.77,-1.78
