frequency,raw,error,smoothed,error_smoothed,equalization,parametric_eq,fixed_band_eq,equalized_raw,equalized_smoothed,target
20.00,-2.94,-10.53,-2.94,-10.56,10.56,8.12,3.09,7.62,7.62,7.59
20.20,-2.82,-10.46,-2.82,-10.48,10.48,8.33,3.18,7.66,7.66,7.64
20.40,-2.70,-10.39,-2.70,-10.40,10.40,8.53,3.26,7.70,7.69,7.69
20.61,-2.58,-10.30,-2.59,-10.31,10.31,8.73,3.35,7.73,7.73,7.72
20.81,-2.46,-10.23,-2.47,-10.23,10.23,8.92,3.45,7.77,7.76,7.77
21.02,-2.34,-10.15,-2.36,-10.14,10.14,9.09,3.54,7.80,7.78,7.81
21.23,-2.24,-10.07,-2.24,-10.05,10.05,9.25,3.64,7.81,7.81,7.83
21.44,-2.13,-9.98,-2.12,-9.96,9.96,9.40,3.75,7.83,7.83,7.85
21.66,-2.03,-9.90,-2.01,-9.86,9.86,9.52,3.85,7.83,7.85,7.87
21.87,-1.92,-9.80,-1.89,-9.76,9.76,9.63,3.96,7.84,7.87,7.88
22.09,-1.80,-9.70,-1.78,-9.66,9.66,9.71,4.07,7.86,7.88,7.90
22.31,-1.67,-9.58,-1.66,-9.56,9.56,9.76,4.18,7.89,7.90,7.91
22.54,-1.54,-9.45,-1.55,-9.45,9.45,9.79,4.30,7.91,7.90,7.91
22.76,-1.41,-9.32,-1.43,-9.34,9.34,9.80,4.42,7.93,7.91,7.91
22.99,-1.28,-9.18,-1.32,-9.22,9.22,9.77,4.54,7.94,7.91,7.89
23.22,-1.17,-9.07,-1.20,-9.11,9.11,9.72,4.66,7.94,7.91,7.89
23.45,-1.07,-8.96,-1.08,-8.99,8.99,9.65,4.79,7.92,7.91,7.89
23.69,-0.97,-8.88,-0.96,-8.87,8.87,9.56,4.92,7.90,7.91,7.90
23.92,-0.87,-8.77,-0.85,-8.76,8.76,9.44,5.05,7.89,7.91,7.90
24.16,-0.76,-8.67,-0.73,-8.64,8.64,9.31,5.19,7.88,7.91,7.91
24.40,-0.63,-8.55,-0.62,-8.52,8.52,9.16,5.32,7.90,7.91,7.92
24.65,-0.51,-8.42,-0.51,-8.41,8.41,9.00,5.46,7.90,7.91,7.91
24.89,-0.38,-8.29,-0.40,-8.30,8.30,8.83,5.60,7.92,7.91,7.91
25.14,-0.27,-8.18,-0.28,-8.19,8.19,8.65,5.74,7.92,7.91,7.91
25.39,-0.15,-8.07,-0.17,-8.08,8.08,8.47,5.89,7.93,7.91,7.92
25.65,-0.04,-7.96,-0.05,-7.96,7.96,8.28,6.03,7.92,7.91,7.91
25.91,0.07,-7.84,0.07,-7.84,7.84,8.09,6.17,7.91,7.91,7.90
26.16,0.18,-7.72,0.19,-7.72,7.72,7.90,6.32,7.90,7.91,7.90
26.43,0.29,-7.61,0.31,-7.60,7.60,7.71,6.46,7.89,7.91,7.90
26.69,0.40,-7.50,0.42,-7.48,7.48,7.52,6.60,7.88,7.90,7.90
26.96,0.51,-7.40,0.53,-7.37,7.37,7.33,6.74,7.88,7.90,7.91
27.23,0.64,-7.27,0.64,-7.26,7.26,7.15,6.87,7.89,7.90,7.91
27.50,0.78,-7.13,0.75,-7.15,7.15,6.98,7.00,7.92,7.90,7.91
27.77,0.91,-6.98,0.86,-7.04,7.04,6.81,7.13,7.95,7.90,7.89
28.05,1.03,-6.86,0.97,-6.92,6.92,6.64,7.24,7.95,7.89,7.89
28.33,1.11,-6.77,1.09,-6.80,6.80,6.48,7.36,7.91,7.89,7.88
28.62,1.19,-6.69,1.20,-6.69,6.69,6.33,7.46,7.87,7.89,7.88
28.90,1.27,-6.62,1.32,-6.57,6.57,6.18,7.55,7.84,7.89,7.89
29.19,1.39,-6.49,1.44,-6.45,6.45,6.04,7.63,7.84,7.89,7.88
29.48,1.52,-6.37,1.55,-6.33,6.33,5.90,7.70,7.85,7.88,7.89
29.78,1.65,-6.23,1.66,-6.22,6.22,5.77,7.76,7.86,7.88,7.88
30.08,1.78,-6.11,1.78,-6.10,6.10,5.65,7.80,7.88,7.88,7.89
30.38,1.91,-5.97,1.89,-5.98,5.98,5.53,7.83,7.89,7.88,7.88
30.68,2.04,-5.84,2.01,-5.87,5.87,5.42,7.84,7.90,7.88,7.88
30.99,2.17,-5.71,2.13,-5.75,5.75,5.31,7.84,7.91,7.87,7.87
31.30,2.27,-5.60,2.25,-5.62,5.62,5.21,7.82,7.89,7.87,7.87
31.61,2.37,-5.50,2.37,-5.50,5.50,5.11,7.78,7.87,7.87,7.87
31.93,2.47,-5.40,2.49,-5.38,5.38,5.02,7.73,7.85,7.86,7.87
32.24,2.59,-5.26,2.60,-5.26,5.26,4.93,7.67,7.85,7.86,7.85
32.57,2.71,-5.15,2.71,-5.15,5.15,4.84,7.59,7.85,7.85,7.86
32.89,2.84,-5.02,2.82,-5.03,5.03,4.75,7.49,7.87,7.85,7.86
33.22,2.95,-4.90,2.93,-4.92,4.92,4.67,7.39,7.86,7.85,7.84
33.55,3.05,-4.79,3.04,-4.80,4.80,4.58,7.27,7.85,7.84,7.84
33.89,3.16,-4.67,3.15,-4.68,4.68,4.50,7.13,7.84,7.83,7.83
34.23,3.26,-4.58,3.27,-4.56,4.56,4.41,6.99,7.82,7.83,7.83
34.57,3.36,-4.46,3.39,-4.44,4.44,4.32,6.84,7.79,7.82,7.82
34.92,3.47,-4.35,3.51,-4.30,4.30,4.23,6.69,7.77,7.82,7.82
35.27,3.60,-4.22,3.64,-4.18,4.18,4.14,6.52,7.77,7.82,7.81
35.62,3.74,-4.07,3.76,-4.05,4.05,4.05,6.35,7.79,7.81,7.81
35.97,3.88,-3.93,3.87,-3.93,3.93,3.95,6.17,7.81,7.81,7.81
36.33,4.00,-3.81,3.99,-3.82,3.82,3.85,5.99,7.82,7.81,7.81
36.70,4.13,-3.67,4.10,-3.71,3.71,3.75,5.81,7.83,7.80,7.80
37.06,4.25,-3.54,4.21,-3.59,3.59,3.64,5.63,7.84,7.80,7.79
37.43,4.38,-3.43,4.33,-3.48,3.48,3.53,5.44,7.86,7.80,7.81
37.81,4.51,-3.29,4.44,-3.36,3.36,3.41,5.25,7.87,7.80,7.80
38.19,4.60,-3.20,4.56,-3.24,3.24,3.30,5.06,7.84,7.80,7.80
38.57,4.66,-3.14,4.67,-3.13,3.13,3.18,4.87,7.79,7.80,7.80
38.95,4.71,-3.10,4.78,-3.02,3.02,3.06,4.68,7.73,7.80,7.81
39.34,4.82,-2.98,4.89,-2.91,2.91,2.94,4.50,7.73,7.80,7.80
39.74,4.93,-2.87,4.99,-2.81,2.81,2.81,4.31,7.73,7.80,7.80
40.14,5.06,-2.74,5.10,-2.70,2.70,2.69,4.12,7.75,7.80,7.80
40.54,5.22,-2.58,5.21,-2.58,2.58,2.57,3.94,7.80,7.79,7.79
40.94,5.38,-2.41,5.31,-2.47,2.47,2.45,3.75,7.85,7.79,7.79
41.35,5.47,-2.31,5.42,-2.36,2.36,2.32,3.57,7.83,7.78,7.78
41.76,5.55,-2.22,5.52,-2.25,2.25,2.20,3.39,7.80,7.77,7.77
42.18,5.64,-2.13,5.63,-2.14,2.14,2.08,3.21,7.78,7.76,7.77
42.60,5.73,-2.03,5.73,-2.02,2.02,1.96,3.03,7.75,7.75,7.76
43.03,5.82,-1.93,5.84,-1.89,1.89,1.85,2.85,7.71,7.74,7.75
43.46,5.94,-1.80,5.95,-1.78,1.78,1.73,2.68,7.72,7.73,7.74
43.90,6.07,-1.64,6.04,-1.67,1.67,1.62,2.50,7.74,7.71,7.71
44.33,6.15,-1.54,6.13,-1.57,1.57,1.51,2.33,7.71,7.70,7.69
44.78,6.21,-1.46,6.22,-1.46,1.46,1.40,2.16,7.67,7.68,7.67
45.23,6.29,-1.38,6.31,-1.36,1.36,1.29,1.99,7.65,7.67,7.66
45.68,6.39,-1.25,6.40,-1.25,1.25,1.19,1.83,7.64,7.65,7.64
46.13,6.49,-1.13,6.50,-1.14,1.14,1.09,1.66,7.63,7.64,7.62
46.60,6.61,-1.01,6.60,-1.02,1.02,0.99,1.50,7.63,7.62,7.62
47.06,6.72,-0.88,6.69,-0.91,0.91,0.89,1.34,7.63,7.60,7.60
47.53,6.77,-0.82,6.78,-0.80,0.80,0.80,1.18,7.57,7.58,7.59
48.01,6.82,-0.77,6.87,-0.69,0.69,0.70,1.02,7.51,7.57,7.59
48.49,6.94,-0.63,6.96,-0.59,0.59,0.61,0.86,7.53,7.55,7.56
48.97,7.05,-0.49,7.05,-0.49,0.49,0.52,0.70,7.53,7.54,7.54
49.46,7.18,-0.34,7.15,-0.37,0.37,0.43,0.55,7.55,7.52,7.52
49.96,7.30,-0.20,7.24,-0.27,0.27,0.34,0.40,7.56,7.51,7.49
50.46,7.36,-0.13,7.33,-0.16,0.16,0.26,0.25,7.52,7.49,7.49
50.96,7.41,-0.07,7.41,-0.06,0.06,0.18,0.10,7.47,7.47,7.47
51.47,7.46,0.01,7.49,0.03,-0.03,0.09,-0.05,7.43,7.46,7.45
51.99,7.51,0.08,7.56,0.12,-0.12,0.01,-0.19,7.39,7.44,7.43
52.51,7.61,0.18,7.63,0.21,-0.21,-0.07,-0.33,7.40,7.43,7.43
53.03,7.72,0.30,7.71,0.30,-0.30,-0.14,-0.47,7.42,7.41,7.42
53.56,7.82,0.42,7.78,0.38,-0.38,-0.22,-0.61,7.44,7.40,7.40
54.10,7.90,0.51,7.83,0.45,-0.45,-0.30,-0.74,7.45,7.38,7.38
54.64,7.91,0.54,7.89,0.52,-0.52,-0.37,-0.87,7.39,7.37,7.36
55.18,7.93,0.57,7.94,0.58,-0.58,-0.44,-1.00,7.35,7.36,7.36
55.74,7.98,0.64,7.99,0.65,-0.65,-0.52,-1.12,7.33,7.34,7.33
56.29,8.01,0.68,8.04,0.72,-0.72,-0.59,-1.23,7.29,7.32,7.32
56.86,8.02,0.72,8.09,0.78,-0.78,-0.66,-1.35,7.24,7.31,7.30
57.42,8.11,0.84,8.13,0.84,-0.84,-0.73,-1.45,7.27,7.28,7.27
58.00,8.22,0.96,8.16,0.90,-0.90,-0.80,-1.56,7.32,7.26,7.26
58.58,8.22,0.97,8.19,0.96,-0.96,-0.86,-1.65,7.26,7.23,7.24
59.16,8.22,1.00,8.22,1.01,-1.01,-0.93,-1.75,7.21,7.20,7.22
59.76,8.22,1.02,8.24,1.07,-1.07,-1.00,-1.83,7.15,7.17,7.19
60.35,8.26,1.11,8.26,1.12,-1.12,-1.06,-1.91,7.14,7.14,7.15
60.96,8.32,1.21,8.28,1.18,-1.18,-1.13,-1.98,7.13,7.10,7.11
61.57,8.32,1.25,8.30,1.24,-1.24,-1.19,-2.05,7.08,7.06,7.06
62.18,8.32,1.30,8.31,1.30,-1.30,-1.25,-2.11,7.02,7.02,7.02
62.80,8.32,1.35,8.32,1.35,-1.35,-1.32,-2.17,6.97,6.97,6.97
63.43,8.32,1.40,8.32,1.40,-1.40,-1.38,-2.22,6.92,6.92,6.92
64.07,8.32,1.45,8.32,1.45,-1.45,-1.44,-2.26,6.87,6.87,6.87
64.71,8.32,1.50,8.33,1.50,-1.50,-1.50,-2.29,6.82,6.82,6.81
65.35,8.32,1.55,8.33,1.56,-1.56,-1.55,-2.32,6.76,6.77,6.77
66.01,8.32,1.60,8.34,1.62,-1.62,-1.61,-2.35,6.70,6.72,6.72
66.67,8.32,1.66,8.34,1.67,-1.67,-1.67,-2.37,6.64,6.67,6.66
67.33,8.32,1.71,8.33,1.72,-1.72,-1.72,-2.38,6.60,6.61,6.61
68.01,8.32,1.76,8.32,1.77,-1.77,-1.78,-2.39,6.55,6.56,6.56
68.69,8.32,1.81,8.32,1.81,-1.81,-1.83,-2.39,6.50,6.50,6.50
69.37,8.32,1.87,8.31,1.86,-1.86,-1.88,-2.40,6.46,6.44,6.45
70.07,8.32,1.93,8.29,1.91,-1.91,-1.93,-2.39,6.41,6.39,6.39
70.77,8.32,1.98,8.28,1.95,-1.95,-1.98,-2.39,6.37,6.32,6.34
71.48,8.30,2.02,8.26,2.00,-2.00,-2.02,-2.38,6.30,6.26,6.27
72.19,8.26,2.06,8.24,2.04,-2.04,-2.07,-2.37,6.22,6.20,6.20
72.91,8.21,2.07,8.22,2.08,-2.08,-2.11,-2.36,6.13,6.14,6.14
73.64,8.14,2.06,8.19,2.11,-2.11,-2.16,-2.34,6.02,6.08,6.07
74.38,8.11,2.10,8.16,2.14,-2.14,-2.20,-2.33,5.97,6.01,6.01
75.12,8.11,2.16,8.13,2.18,-2.18,-2.24,-2.31,5.93,5.95,5.94
75.87,8.11,2.23,8.09,2.21,-2.21,-2.27,-2.30,5.90,5.89,5.88
76.63,8.07,2.25,8.06,2.23,-2.23,-2.31,-2.28,5.83,5.82,5.82
77.40,8.03,2.27,8.02,2.26,-2.26,-2.34,-2.27,5.77,5.76,5.76
78.17,8.01,2.32,7.99,2.28,-2.28,-2.38,-2.25,5.73,5.70,5.69
78.95,7.99,2.34,7.94,2.30,-2.30,-2.40,-2.23,5.69,5.64,5.65
79.74,7.86,2.27,7.90,2.31,-2.31,-2.43,-2.22,5.55,5.59,5.59
80.54,7.81,2.27,7.85,2.32,-2.32,-2.46,-2.21,5.49,5.53,5.53
81.35,7.81,2.34,7.80,2.33,-2.33,-2.48,-2.19,5.48,5.47,5.47
82.16,7.81,2.39,7.75,2.34,-2.34,-2.50,-2.18,5.47,5.42,5.42
82.98,7.81,2.44,7.70,2.34,-2.34,-2.52,-2.17,5.47,5.36,5.37
83.81,7.65,2.35,7.66,2.35,-2.35,-2.54,-2.16,5.30,5.31,5.30
84.65,7.60,2.35,7.61,2.36,-2.36,-2.55,-2.16,5.23,5.25,5.25
85.50,7.55,2.35,7.57,2.38,-2.38,-2.57,-2.15,5.17,5.19,5.20
86.35,7.47,2.33,7.53,2.40,-2.40,-2.58,-2.15,5.07,5.13,5.14
87.22,7.41,2.33,7.50,2.43,-2.43,-2.59,-2.15,4.98,5.07,5.08
88.09,7.41,2.39,7.47,2.45,-2.45,-2.59,-2.15,4.96,5.01,5.02
88.97,7.41,2.45,7.44,2.49,-2.49,-2.60,-2.15,4.92,4.96,4.96
89.86,7.41,2.51,7.41,2.51,-2.51,-2.60,-2.15,4.90,4.90,4.90
90.76,7.42,2.59,7.38,2.54,-2.54,-2.60,-2.16,4.88,4.84,4.83
91.66,7.42,2.64,7.35,2.57,-2.57,-2.60,-2.16,4.85,4.78,4.78
92.58,7.37,2.66,7.32,2.61,-2.61,-2.60,-2.17,4.76,4.72,4.71
93.51,7.30,2.65,7.30,2.64,-2.64,-2.59,-2.18,4.66,4.66,4.65
94.44,7.25,2.65,7.26,2.66,-2.66,-2.59,-2.20,4.59,4.60,4.60
95.39,7.22,2.68,7.22,2.68,-2.68,-2.58,-2.21,4.54,4.54,4.54
96.34,7.18,2.70,7.17,2.69,-2.69,-2.57,-2.23,4.49,4.48,4.48
97.30,7.11,2.69,7.11,2.69,-2.69,-2.56,-2.24,4.42,4.42,4.42
98.28,7.07,2.71,7.04,2.68,-2.68,-2.54,-2.26,4.39,4.36,4.36
99.26,6.98,2.67,6.97,2.66,-2.66,-2.53,-2.28,4.32,4.31,4.31
100.25,6.93,2.68,6.89,2.64,-2.64,-2.52,-2.30,4.29,4.25,4.25
101.25,6.80,2.61,6.80,2.61,-2.61,-2.50,-2.33,4.19,4.19,4.19
102.27,6.71,2.57,6.71,2.58,-2.58,-2.48,-2.35,4.13,4.13,4.13
103.29,6.61,2.54,6.62,2.54,-2.54,-2.46,-2.37,4.07,4.07,4.07
104.32,6.53,2.51,6.52,2.50,-2.50,-2.45,-2.40,4.02,4.01,4.02
105.37,6.43,2.47,6.42,2.46,-2.46,-2.43,-2.42,3.97,3.95,3.96
106.42,6.30,2.39,6.32,2.42,-2.42,-2.41,-2.45,3.87,3.89,3.90
107.48,6.23,2.39,6.22,2.39,-2.39,-2.39,-2.47,3.84,3.83,3.84
108.56,6.14,2.37,6.12,2.35,-2.35,-2.36,-2.50,3.79,3.77,3.77
109.64,6.02,2.31,6.02,2.32,-2.32,-2.34,-2.52,3.70,3.71,3.71
110.74,5.91,2.27,5.94,2.29,-2.29,-2.32,-2.55,3.61,3.65,3.64
111.85,5.84,2.24,5.86,2.27,-2.27,-2.30,-2.57,3.57,3.58,3.60
112.97,5.73,2.21,5.79,2.26,-2.26,-2.28,-2.59,3.47,3.52,3.52
114.10,5.68,2.22,5.71,2.25,-2.25,-2.26,-2.61,3.43,3.47,3.46
115.24,5.62,2.21,5.65,2.24,-2.24,-2.23,-2.63,3.38,3.41,3.41
116.39,5.60,2.26,5.58,2.23,-2.23,-2.21,-2.65,3.37,3.35,3.34
117.55,5.56,2.26,5.53,2.23,-2.23,-2.19,-2.67,3.33,3.30,3.30
118.73,5.46,2.22,5.48,2.23,-2.23,-2.17,-2.68,3.23,3.25,3.24
119.92,5.44,2.23,5.43,2.23,-2.23,-2.15,-2.69,3.21,3.20,3.21
121.12,5.43,2.28,5.38,2.23,-2.23,-2.13,-2.70,3.20,3.16,3.15
122.33,5.37,2.26,5.34,2.23,-2.23,-2.11,-2.70,3.14,3.11,3.11
123.55,5.30,2.22,5.29,2.22,-2.22,-2.09,-2.71,3.07,3.07,3.08
124.79,5.25,2.21,5.25,2.22,-2.22,-2.08,-2.71,3.03,3.03,3.03
126.03,5.18,2.19,5.21,2.22,-2.22,-2.06,-2.70,2.96,2.99,2.99
127.29,5.18,2.22,5.17,2.22,-2.22,-2.04,-2.70,2.96,2.95,2.96
128.57,5.15,2.24,5.12,2.21,-2.21,-2.03,-2.69,2.94,2.91,2.91
129.85,5.09,2.22,5.08,2.20,-2.20,-2.01,-2.68,2.89,2.87,2.87
131.15,5.02,2.18,5.04,2.20,-2.20,-2.00,-2.66,2.82,2.84,2.83
132.46,4.96,2.16,5.00,2.20,-2.20,-1.99,-2.65,2.76,2.80,2.80
133.79,4.92,2.16,4.96,2.20,-2.20,-1.98,-2.63,2.72,2.76,2.76
135.12,4.91,2.19,4.92,2.19,-2.19,-1.97,-2.61,2.72,2.73,2.71
136.48,4.91,2.22,4.88,2.19,-2.19,-1.97,-2.58,2.72,2.69,2.69
137.84,4.86,2.21,4.84,2.19,-2.19,-1.96,-2.56,2.67,2.65,2.65
139.22,4.80,2.20,4.80,2.18,-2.18,-1.96,-2.53,2.61,2.62,2.60
140.61,4.74,2.18,4.76,2.18,-2.18,-1.95,-2.50,2.56,2.58,2.56
142.02,4.72,2.18,4.71,2.17,-2.17,-1.95,-2.48,2.54,2.54,2.54
143.44,4.72,2.22,4.66,2.17,-2.17,-1.96,-2.45,2.55,2.49,2.50
144.87,4.66,2.21,4.62,2.17,-2.17,-1.96,-2.42,2.49,2.45,2.45
146.32,4.56,2.16,4.57,2.18,-2.18,-1.97,-2.38,2.38,2.39,2.40
147.78,4.52,2.15,4.53,2.19,-2.19,-1.98,-2.35,2.33,2.34,2.36
149.26,4.48,2.17,4.48,2.20,-2.20,-1.99,-2.32,2.27,2.28,2.31
150.75,4.37,2.14,4.42,2.21,-2.21,-2.00,-2.29,2.16,2.21,2.23
152.26,4.33,2.17,4.36,2.22,-2.22,-2.02,-2.26,2.11,2.14,2.16
153.78,4.31,2.22,4.29,2.23,-2.23,-2.04,-2.23,2.08,2.07,2.08
155.32,4.25,2.25,4.23,2.24,-2.24,-2.06,-2.20,2.01,1.99,2.00
156.88,4.18,2.26,4.16,2.24,-2.24,-2.08,-2.17,1.93,1.91,1.92
158.44,4.13,2.30,4.08,2.25,-2.25,-2.11,-2.15,1.88,1.83,1.83
160.03,4.12,2.38,4.01,2.25,-2.25,-2.15,-2.12,1.86,1.76,1.74
161.63,4.04,2.38,3.95,2.26,-2.26,-2.18,-2.09,1.78,1.69,1.66
163.24,3.91,2.31,3.88,2.27,-2.27,-2.22,-2.07,1.64,1.62,1.59
164.88,3.78,2.24,3.83,2.27,-2.27,-2.26,-2.05,1.51,1.56,1.54
166.53,3.72,2.24,3.79,2.28,-2.28,-2.31,-2.03,1.43,1.50,1.48
168.19,3.70,2.26,3.76,2.30,-2.30,-2.36,-2.01,1.39,1.46,1.44
169.87,3.69,2.30,3.74,2.33,-2.33,-2.41,-1.99,1.36,1.42,1.39
171.57,3.68,2.31,3.75,2.37,-2.37,-2.47,-1.97,1.31,1.38,1.37
173.29,3.70,2.35,3.78,2.42,-2.42,-2.53,-1.96,1.27,1.36,1.35
175.02,3.76,2.42,3.83,2.49,-2.49,-2.59,-1.94,1.27,1.34,1.34
176.77,3.81,2.49,3.89,2.56,-2.56,-2.65,-1.93,1.25,1.32,1.32
178.54,3.86,2.55,3.96,2.65,-2.65,-2.71,-1.92,1.21,1.31,1.31
180.32,3.98,2.67,4.04,2.74,-2.74,-2.78,-1.91,1.24,1.30,1.31
182.13,4.13,2.82,4.12,2.83,-2.83,-2.84,-1.90,1.29,1.29,1.31
183.95,4.29,2.99,4.20,2.92,-2.92,-2.90,-1.90,1.37,1.28,1.29
185.79,4.34,3.05,4.26,3.00,-3.00,-2.95,-1.89,1.34,1.26,1.29
187.65,4.42,3.16,4.31,3.06,-3.06,-3.01,-1.89,1.36,1.25,1.26
189.52,4.51,3.26,4.34,3.11,-3.11,-3.05,-1.89,1.40,1.24,1.25
191.42,4.48,3.25,4.36,3.14,-3.14,-3.09,-1.89,1.34,1.22,1.22
193.33,4.39,3.19,4.35,3.15,-3.15,-3.12,-1.89,1.23,1.20,1.20
195.27,4.37,3.19,4.33,3.15,-3.15,-3.14,-1.89,1.22,1.18,1.18
197.22,4.32,3.16,4.29,3.13,-3.13,-3.14,-1.89,1.19,1.16,1.16
199.19,4.20,3.07,4.23,3.10,-3.10,-3.14,-1.90,1.10,1.13,1.13
201.18,4.11,3.00,4.16,3.05,-3.05,-3.12,-1.90,1.06,1.11,1.11
203.19,4.04,2.95,4.07,2.99,-2.99,-3.09,-1.91,1.05,1.08,1.09
205.23,3.95,2.89,3.98,2.92,-2.92,-3.05,-1.91,1.03,1.06,1.06
207.28,3.86,2.81,3.89,2.86,-2.86,-3.00,-1.92,1.00,1.04,1.05
209.35,3.76,2.74,3.80,2.79,-2.79,-2.93,-1.93,0.97,1.01,1.02
211.44,3.70,2.71,3.71,2.72,-2.72,-2.86,-1.93,0.98,0.99,0.98
213.56,3.62,2.64,3.63,2.66,-2.66,-2.79,-1.94,0.96,0.97,0.98
215.69,3.56,2.60,3.56,2.60,-2.60,-2.70,-1.95,0.96,0.96,0.96
217.85,3.49,2.54,3.48,2.54,-2.54,-2.61,-1.96,0.95,0.94,0.95
220.03,3.42,2.49,3.41,2.48,-2.48,-2.52,-1.96,0.94,0.93,0.93
222.23,3.35,2.44,3.35,2.43,-2.43,-2.43,-1.97,0.92,0.92,0.91
224.45,3.30,2.39,3.29,2.37,-2.37,-2.34,-1.97,0.93,0.92,0.91
226.70,3.22,2.31,3.23,2.32,-2.32,-2.24,-1.98,0.90,0.92,0.91
228.96,3.18,2.26,3.18,2.26,-2.26,-2.15,-1.98,0.92,0.92,0.91
231.25,3.12,2.20,3.12,2.20,-2.20,-2.06,-1.98,0.92,0.92,0.92
233.57,3.08,2.15,3.07,2.14,-2.14,-1.97,-1.98,0.94,0.93,0.93
235.90,3.02,2.08,3.02,2.08,-2.08,-1.89,-1.98,0.94,0.94,0.94
238.26,3.02,2.07,2.99,2.03,-2.03,-1.81,-1.97,0.99,0.96,0.95
240.64,2.93,1.96,2.95,1.98,-1.98,-1.73,-1.96,0.95,0.97,0.97
243.05,2.88,1.88,2.91,1.92,-1.92,-1.65,-1.96,0.96,0.99,1.00
245.48,2.88,1.86,2.88,1.87,-1.87,-1.58,-1.94,1.01,1.01,1.02
247.93,2.84,1.79,2.85,1.81,-1.81,-1.51,-1.93,1.03,1.03,1.05
250.41,2.81,1.75,2.82,1.76,-1.76,-1.44,-1.91,1.05,1.05,1.06
252.92,2.75,1.66,2.79,1.71,-1.71,-1.38,-1.90,1.04,1.08,1.09
255.45,2.76,1.65,2.76,1.66,-1.66,-1.32,-1.87,1.10,1.10,1.11
258.00,2.77,1.64,2.73,1.61,-1.61,-1.26,-1.85,1.16,1.12,1.13
260.58,2.77,1.63,2.70,1.55,-1.55,-1.21,-1.82,1.22,1.15,1.14
263.19,2.71,1.53,2.66,1.49,-1.49,-1.15,-1.79,1.22,1.17,1.17
265.82,2.59,1.40,2.62,1.43,-1.43,-1.11,-1.76,1.16,1.19,1.19
268.48,2.57,1.36,2.59,1.38,-1.38,-1.06,-1.73,1.19,1.22,1.21
271.16,2.56,1.32,2.56,1.32,-1.32,-1.01,-1.69,1.24,1.24,1.24
273.87,2.56,1.30,2.52,1.26,-1.26,-0.97,-1.66,1.30,1.26,1.25
276.61,2.49,1.20,2.49,1.20,-1.20,-0.93,-1.62,1.29,1.29,1.29
279.38,2.44,1.13,2.45,1.14,-1.14,-0.89,-1.58,1.30,1.31,1.31
282.17,2.38,1.04,2.42,1.08,-1.08,-0.86,-1.53,1.30,1.34,1.34
284.99,2.37,1.00,2.38,1.01,-1.01,-0.82,-1.49,1.36,1.37,1.37
287.84,2.32,0.93,2.34,0.95,-0.95,-0.79,-1.45,1.37,1.39,1.38
290.72,2.28,0.86,2.31,0.89,-0.89,-0.76,-1.40,1.39,1.42,1.42
293.63,2.30,0.85,2.29,0.84,-0.84,-0.73,-1.35,1.46,1.45,1.44
296.57,2.31,0.83,2.26,0.79,-0.79,-0.70,-1.31,1.52,1.48,1.48
299.53,2.24,0.73,2.23,0.73,-0.73,-0.67,-1.26,1.51,1.50,1.50
302.53,2.20,0.68,2.20,0.67,-0.67,-0.64,-1.21,1.53,1.53,1.52
305.55,2.15,0.58,2.17,0.61,-0.61,-0.62,-1.16,1.54,1.55,1.57
308.61,2.15,0.57,2.14,0.56,-0.56,-0.59,-1.11,1.59,1.58,1.58
311.69,2.14,0.53,2.11,0.51,-0.51,-0.57,-1.06,1.63,1.60,1.61
314.81,2.08,0.45,2.07,0.45,-0.45,-0.55,-1.02,1.63,1.62,1.63
317.96,2.06,0.41,2.04,0.40,-0.40,-0.52,-0.97,1.66,1.64,1.65
321.14,2.02,0.36,2.01,0.35,-0.35,-0.50,-0.92,1.67,1.66,1.66
324.35,1.97,0.30,1.97,0.30,-0.30,-0.48,-0.87,1.67,1.67,1.67
327.59,1.88,0.19,1.93,0.24,-0.24,-0.46,-0.82,1.64,1.69,1.69
330.87,1.86,0.16,1.89,0.19,-0.19,-0.44,-0.77,1.67,1.70,1.69
334.18,1.86,0.15,1.85,0.14,-0.14,-0.42,-0.72,1.72,1.71,1.71
337.52,1.86,0.14,1.81,0.09,-0.09,-0.41,-0.68,1.77,1.72,1.72
340.90,1.77,0.03,1.78,0.05,-0.05,-0.39,-0.63,1.72,1.73,1.74
344.30,1.73,-0.01,1.75,0.01,-0.01,-0.37,-0.58,1.72,1.74,1.74
347.75,1.76,0.02,1.71,-0.03,0.03,-0.36,-0.54,1.79,1.74,1.74
351.23,1.70,-0.05,1.68,-0.07,0.07,-0.34,-0.49,1.77,1.75,1.75
354.74,1.58,-0.17,1.64,-0.11,0.11,-0.32,-0.44,1.69,1.75,1.75
358.28,1.56,-0.19,1.60,-0.15,0.15,-0.31,-0.40,1.71,1.75,1.75
361.87,1.57,-0.18,1.57,-0.19,0.19,-0.30,-0.35,1.75,1.75,1.75
365.49,1.57,-0.19,1.53,-0.22,0.22,-0.28,-0.31,1.79,1.75,1.76
369.14,1.52,-0.23,1.49,-0.26,0.26,-0.27,-0.27,1.78,1.75,1.75
372.83,1.48,-0.27,1.46,-0.29,0.29,-0.25,-0.22,1.77,1.75,1.74
376.56,1.51,-0.23,1.44,-0.31,0.31,-0.24,-0.18,1.82,1.75,1.74
380.33,1.41,-0.34,1.42,-0.32,0.32,-0.23,-0.13,1.73,1.74,1.75
384.13,1.30,-0.45,1.39,-0.35,0.35,-0.21,-0.09,1.64,1.74,1.75
387.97,1.29,-0.45,1.37,-0.37,0.37,-0.20,-0.05,1.66,1.73,1.74
391.85,1.31,-0.42,1.34,-0.39,0.39,-0.19,-0.01,1.70,1.73,1.72
395.77,1.32,-0.41,1.32,-0.41,0.41,-0.18,0.04,1.72,1.72,1.73
399.73,1.32,-0.40,1.29,-0.43,0.43,-0.16,0.08,1.75,1.72,1.72
403.72,1.31,-0.41,1.26,-0.45,0.45,-0.15,0.12,1.76,1.71,1.72
407.76,1.31,-0.40,1.24,-0.47,0.47,-0.14,0.16,1.77,1.71,1.71
411.84,1.34,-0.37,1.22,-0.48,0.48,-0.13,0.20,1.82,1.70,1.71
415.96,1.25,-0.46,1.20,-0.50,0.50,-0.12,0.24,1.75,1.70,1.71
420.12,1.14,-0.57,1.19,-0.51,0.51,-0.11,0.28,1.65,1.70,1.70
424.32,1.11,-0.59,1.18,-0.53,0.53,-0.10,0.32,1.63,1.71,1.70
428.56,1.12,-0.59,1.18,-0.54,0.54,-0.09,0.35,1.66,1.72,1.71
432.85,1.13,-0.59,1.18,-0.56,0.56,-0.07,0.39,1.69,1.74,1.72
437.18,1.16,-0.57,1.18,-0.58,0.58,-0.06,0.43,1.73,1.76,1.73
441.55,1.20,-0.57,1.19,-0.59,0.59,-0.05,0.46,1.79,1.78,1.77
445.96,1.24,-0.56,1.21,-0.60,0.60,-0.04,0.50,1.84,1.81,1.80
450.42,1.24,-0.59,1.25,-0.60,0.60,-0.03,0.53,1.84,1.85,1.83
454.93,1.21,-0.67,1.28,-0.60,0.60,-0.02,0.57,1.81,1.89,1.88
459.48,1.30,-0.63,1.33,-0.61,0.61,-0.01,0.60,1.90,1.93,1.93
464.07,1.37,-0.61,1.38,-0.60,0.60,0.00,0.63,1.97,1.98,1.97
468.71,1.43,-0.60,1.44,-0.59,0.59,0.01,0.66,2.01,2.03,2.03
473.40,1.49,-0.58,1.49,-0.58,0.58,0.02,0.69,2.07,2.08,2.07
478.13,1.55,-0.58,1.53,-0.60,0.60,0.03,0.72,2.14,2.12,2.13
482.91,1.59,-0.58,1.56,-0.61,0.61,0.05,0.74,2.20,2.17,2.17
487.74,1.63,-0.58,1.59,-0.62,0.62,0.06,0.77,2.25,2.21,2.21
492.62,1.67,-0.59,1.61,-0.64,0.64,0.07,0.79,2.30,2.25,2.26
497.55,1.69,-0.59,1.62,-0.65,0.65,0.08,0.81,2.34,2.28,2.28
502.52,1.59,-0.72,1.63,-0.67,0.67,0.09,0.83,2.26,2.30,2.31
507.55,1.64,-0.68,1.62,-0.69,0.69,0.10,0.85,2.33,2.31,2.32
512.62,1.67,-0.66,1.59,-0.72,0.72,0.11,0.87,2.39,2.32,2.33
517.75,1.59,-0.75,1.56,-0.75,0.75,0.12,0.89,2.34,2.31,2.34
522.93,1.45,-0.88,1.52,-0.78,0.78,0.14,0.91,2.23,2.30,2.33
528.16,1.39,-0.91,1.47,-0.81,0.81,0.15,0.92,2.20,2.28,2.30
533.44,1.46,-0.81,1.42,-0.83,0.83,0.16,0.94,2.29,2.25,2.27
538.77,1.46,-0.78,1.36,-0.86,0.86,0.17,0.95,2.31,2.21,2.23
544.16,1.29,-0.90,1.30,-0.87,0.87,0.18,0.97,2.16,2.17,2.18
549.60,1.22,-0.92,1.24,-0.88,0.88,0.20,0.98,2.10,2.12,2.13
