frequency,raw,error,smoothed,error_smoothed,equalization,parametric_eq,fixed_band_eq,equalized_raw,equalized_smoothed,target
20.00,-2.94,-9.40,-2.94,-9.42,9.42,9.17,2.50,6.48,6.48,6.46
20.20,-2.82,-9.33,-2.82,-9.34,9.34,9.14,2.58,6.52,6.52,6.51
20.40,-2.70,-9.26,-2.70,-9.26,9.26,9.10,2.65,6.56,6.56,6.56
20.61,-2.58,-9.17,-2.59,-9.18,9.18,9.06,2.73,6.60,6.59,6.59
20.81,-2.46,-9.10,-2.47,-9.09,9.09,9.01,2.81,6.63,6.62,6.64
21.02,-2.34,-9.02,-2.36,-9.01,9.01,8.96,2.89,6.67,6.65,6.68
21.23,-2.24,-8.94,-2.24,-8.92,8.92,8.91,2.98,6.68,6.68,6.70
21.44,-2.13,-8.85,-2.12,-8.82,8.82,8.84,3.06,6.69,6.70,6.72
21.66,-2.03,-8.77,-2.01,-8.73,8.73,8.78,3.15,6.70,6.72,6.74
21.87,-1.92,-8.67,-1.89,-8.63,8.63,8.71,3.25,6.71,6.74,6.75
22.09,-1.80,-8.57,-1.78,-8.53,8.53,8.63,3.34,6.73,6.75,6.77
22.31,-1.67,-8.45,-1.66,-8.43,8.43,8.55,3.44,6.76,6.77,6.78
22.54,-1.54,-8.32,-1.55,-8.32,8.32,8.47,3.54,6.78,6.77,6.78
22.76,-1.41,-8.19,-1.43,-8.21,8.21,8.38,3.64,6.80,6.78,6.78
22.99,-1.28,-8.05,-1.32,-8.09,8.09,8.29,3.74,6.81,6.78,6.77
23.22,-1.17,-7.94,-1.20,-7.98,7.98,8.20,3.85,6.81,6.78,6.77
23.45,-1.07,-7.84,-1.08,-7.86,7.86,8.10,3.96,6.79,6.78,6.77
23.69,-0.97,-7.75,-0.96,-7.74,7.74,8.00,4.07,6.77,6.78,6.78
23.92,-0.87,-7.65,-0.85,-7.63,7.63,7.90,4.18,6.76,6.78,6.78
24.16,-0.76,-7.54,-0.73,-7.51,7.51,7.79,4.29,6.75,6.78,6.78
24.40,-0.63,-7.42,-0.62,-7.40,7.40,7.68,4.41,6.77,6.78,6.79
24.65,-0.51,-7.29,-0.51,-7.28,7.28,7.57,4.53,6.77,6.78,6.78
24.89,-0.38,-7.16,-0.40,-7.17,7.17,7.46,4.65,6.79,6.78,6.78
25.14,-0.27,-7.05,-0.28,-7.06,7.06,7.34,4.77,6.79,6.78,6.78
25.39,-0.15,-6.94,-0.17,-6.95,6.95,7.23,4.89,6.80,6.78,6.79
25.65,-0.04,-6.83,-0.05,-6.83,6.83,7.11,5.01,6.79,6.78,6.79
25.91,0.07,-6.71,0.07,-6.71,6.71,6.99,5.13,6.78,6.78,6.78
26.16,0.18,-6.60,0.19,-6.59,6.59,6.86,5.25,6.77,6.78,6.78
26.43,0.29,-6.49,0.31,-6.47,6.47,6.74,5.37,6.76,6.78,6.78
26.69,0.40,-6.38,0.42,-6.36,6.36,6.62,5.48,6.76,6.78,6.78
26.96,0.51,-6.27,0.53,-6.24,6.24,6.49,5.60,6.75,6.77,6.78
27.23,0.64,-6.14,0.64,-6.13,6.13,6.36,5.71,6.77,6.77,6.78
27.50,0.78,-6.00,0.75,-6.02,6.02,6.24,5.81,6.80,6.77,6.78
27.77,0.91,-5.86,0.86,-5.91,5.91,6.11,5.92,6.82,6.77,6.77
28.05,1.03,-5.74,0.97,-5.79,5.79,5.98,6.01,6.82,6.77,6.77
28.33,1.11,-5.65,1.09,-5.68,5.68,5.85,6.10,6.79,6.77,6.76
28.62,1.19,-5.57,1.20,-5.56,5.56,5.72,6.18,6.75,6.76,6.76
28.90,1.27,-5.50,1.32,-5.44,5.44,5.59,6.26,6.71,6.76,6.77
29.19,1.39,-5.37,1.44,-5.33,5.33,5.46,6.32,6.72,6.76,6.76
29.48,1.52,-5.25,1.55,-5.21,5.21,5.33,6.37,6.73,6.76,6.77
29.78,1.65,-5.11,1.66,-5.09,5.09,5.20,6.42,6.74,6.76,6.76
30.08,1.78,-4.99,1.78,-4.98,4.98,5.07,6.45,6.75,6.76,6.77
30.38,1.91,-4.85,1.89,-4.86,4.86,4.94,6.47,6.77,6.76,6.76
30.68,2.04,-4.72,2.01,-4.74,4.74,4.81,6.47,6.78,6.75,6.76
30.99,2.17,-4.59,2.13,-4.62,4.62,4.68,6.47,6.79,6.75,6.76
31.30,2.27,-4.48,2.25,-4.50,4.50,4.55,6.45,6.77,6.75,6.75
31.61,2.37,-4.38,2.37,-4.38,4.38,4.43,6.42,6.75,6.75,6.75
31.93,2.47,-4.28,2.49,-4.26,4.26,4.30,6.37,6.73,6.74,6.75
32.24,2.59,-4.15,2.60,-4.14,4.14,4.17,6.31,6.73,6.74,6.74
32.57,2.71,-4.03,2.71,-4.03,4.03,4.04,6.24,6.73,6.74,6.74
32.89,2.84,-3.90,2.82,-3.91,3.91,3.92,6.15,6.75,6.73,6.74
33.22,2.95,-3.78,2.93,-3.80,3.80,3.79,6.06,6.75,6.73,6.73
33.55,3.05,-3.68,3.04,-3.68,3.68,3.66,5.95,6.73,6.72,6.73
33.89,3.16,-3.56,3.15,-3.57,3.57,3.54,5.84,6.72,6.72,6.72
34.23,3.26,-3.46,3.27,-3.45,3.45,3.42,5.71,6.70,6.71,6.72
34.57,3.36,-3.35,3.39,-3.32,3.32,3.29,5.58,6.68,6.71,6.71
34.92,3.47,-3.24,3.51,-3.19,3.19,3.17,5.44,6.66,6.70,6.71
35.27,3.60,-3.10,3.64,-3.06,3.06,3.05,5.29,6.66,6.70,6.70
35.62,3.74,-2.96,3.76,-2.94,2.94,2.93,5.14,6.68,6.70,6.70
35.97,3.88,-2.82,3.87,-2.82,2.82,2.81,4.98,6.70,6.70,6.70
36.33,4.00,-2.70,3.99,-2.71,2.71,2.69,4.82,6.71,6.69,6.70
36.70,4.13,-2.56,4.10,-2.60,2.60,2.57,4.65,6.72,6.69,6.69
37.06,4.25,-2.44,4.21,-2.48,2.48,2.45,4.49,6.73,6.69,6.69
37.43,4.38,-2.32,4.33,-2.37,2.37,2.34,4.31,6.75,6.69,6.70
37.81,4.51,-2.19,4.44,-2.25,2.25,2.22,4.14,6.76,6.69,6.70
38.19,4.60,-2.09,4.56,-2.14,2.14,2.11,3.97,6.73,6.69,6.69
38.57,4.66,-2.04,4.67,-2.02,2.02,2.00,3.79,6.68,6.70,6.70
38.95,4.71,-2.00,4.78,-1.91,1.91,1.88,3.62,6.62,6.70,6.71
39.34,4.82,-1.88,4.89,-1.81,1.81,1.77,3.44,6.63,6.70,6.70
39.74,4.93,-1.77,4.99,-1.70,1.70,1.66,3.27,6.63,6.70,6.70
40.14,5.06,-1.64,5.10,-1.60,1.60,1.55,3.09,6.65,6.70,6.70
40.54,5.22,-1.48,5.21,-1.49,1.49,1.45,2.91,6.70,6.69,6.70
40.94,5.38,-1.31,5.31,-1.38,1.38,1.34,2.74,6.75,6.69,6.69
41.35,5.47,-1.22,5.42,-1.27,1.27,1.23,2.57,6.73,6.68,6.69
41.76,5.55,-1.13,5.52,-1.15,1.15,1.13,2.39,6.70,6.68,6.68
42.18,5.64,-1.04,5.63,-1.04,1.04,1.03,2.22,6.68,6.67,6.68
42.60,5.73,-0.94,5.73,-0.92,0.92,0.93,2.05,6.65,6.66,6.67
43.03,5.82,-0.84,5.84,-0.80,0.80,0.82,1.88,6.62,6.65,6.66
43.46,5.94,-0.71,5.95,-0.69,0.69,0.72,1.71,6.63,6.64,6.65
43.90,6.07,-0.56,6.04,-0.58,0.58,0.63,1.54,6.65,6.62,6.63
44.33,6.15,-0.46,6.13,-0.48,0.48,0.53,1.37,6.63,6.61,6.61
44.78,6.21,-0.38,6.22,-0.38,0.38,0.43,1.20,6.59,6.60,6.59
45.23,6.29,-0.29,6.31,-0.28,0.28,0.34,1.04,6.57,6.59,6.58
45.68,6.39,-0.18,6.40,-0.17,0.17,0.24,0.87,6.56,6.57,6.57
46.13,6.49,-0.06,6.50,-0.06,0.06,0.15,0.71,6.55,6.56,6.55
46.60,6.61,0.06,6.60,0.06,-0.06,0.06,0.54,6.55,6.54,6.55
47.06,6.72,0.19,6.69,0.17,-0.17,-0.03,0.38,6.55,6.53,6.53
47.53,6.77,0.25,6.78,0.27,-0.27,-0.12,0.22,6.50,6.51,6.52
48.01,6.82,0.30,6.87,0.37,-0.37,-0.21,0.06,6.44,6.50,6.52
48.49,6.94,0.44,6.96,0.48,-0.48,-0.29,-0.10,6.46,6.49,6.50
48.97,7.05,0.57,7.05,0.58,-0.58,-0.38,-0.26,6.47,6.47,6.48
49.46,7.18,0.72,7.15,0.69,-0.69,-0.46,-0.41,6.49,6.46,6.46
49.96,7.30,0.86,7.24,0.79,-0.79,-0.55,-0.57,6.50,6.45,6.44
50.46,7.36,0.93,7.33,0.90,-0.90,-0.63,-0.72,6.46,6.43,6.43
50.96,7.41,0.99,7.41,0.99,-0.99,-0.71,-0.88,6.41,6.42,6.42
51.47,7.46,1.06,7.49,1.09,-1.09,-0.79,-1.03,6.37,6.41,6.40
51.99,7.51,1.12,7.56,1.17,-1.17,-0.86,-1.18,6.34,6.39,6.39
52.51,7.61,1.23,7.63,1.25,-1.25,-0.94,-1.32,6.35,6.38,6.38
53.03,7.72,1.34,7.71,1.34,-1.34,-1.02,-1.47,6.38,6.37,6.38
53.56,7.82,1.46,7.78,1.42,-1.42,-1.09,-1.61,6.40,6.35,6.36
54.10,7.90,1.55,7.83,1.49,-1.49,-1.16,-1.75,6.41,6.34,6.35
54.64,7.91,1.58,7.89,1.55,-1.55,-1.23,-1.88,6.36,6.33,6.33
55.18,7.93,1.60,7.94,1.61,-1.61,-1.30,-2.01,6.32,6.32,6.33
55.74,7.98,1.67,7.99,1.68,-1.68,-1.37,-2.14,6.30,6.31,6.31
56.29,8.01,1.71,8.04,1.74,-1.74,-1.44,-2.26,6.27,6.30,6.30
56.86,8.02,1.73,8.09,1.80,-1.80,-1.51,-2.38,6.22,6.29,6.29
57.42,8.11,1.85,8.13,1.86,-1.86,-1.57,-2.49,6.25,6.27,6.26
58.00,8.22,1.97,8.16,1.91,-1.91,-1.64,-2.59,6.30,6.25,6.25
58.58,8.22,1.98,8.19,1.97,-1.97,-1.70,-2.69,6.25,6.23,6.24
59.16,8.22,2.00,8.22,2.02,-2.02,-1.76,-2.78,6.20,6.20,6.22
59.76,8.22,2.02,8.24,2.07,-2.07,-1.82,-2.87,6.15,6.17,6.20
60.35,8.26,2.10,8.26,2.12,-2.12,-1.88,-2.95,6.14,6.14,6.16
60.96,8.32,2.20,8.28,2.17,-2.17,-1.93,-3.02,6.14,6.11,6.12
61.57,8.32,2.24,8.30,2.23,-2.23,-1.99,-3.09,6.09,6.07,6.08
62.18,8.32,2.28,8.31,2.28,-2.28,-2.04,-3.14,6.04,6.04,6.04
62.80,8.32,2.33,8.32,2.33,-2.33,-2.10,-3.19,5.99,6.00,5.99
63.43,8.32,2.37,8.32,2.37,-2.37,-2.15,-3.23,5.95,5.95,5.95
64.07,8.32,2.42,8.32,2.42,-2.42,-2.20,-3.27,5.90,5.91,5.90
64.71,8.32,2.46,8.33,2.46,-2.46,-2.25,-3.30,5.85,5.86,5.86
65.35,8.32,2.50,8.33,2.52,-2.52,-2.30,-3.32,5.80,5.82,5.82
66.01,8.32,2.55,8.34,2.57,-2.57,-2.35,-3.33,5.75,5.77,5.77
66.67,8.32,2.60,8.34,2.62,-2.62,-2.39,-3.34,5.70,5.72,5.72
67.33,8.32,2.65,8.33,2.66,-2.66,-2.44,-3.34,5.66,5.67,5.67
68.01,8.32,2.69,8.32,2.70,-2.70,-2.48,-3.34,5.62,5.62,5.63
68.69,8.32,2.74,8.32,2.74,-2.74,-2.52,-3.33,5.58,5.57,5.58
69.37,8.32,2.79,8.31,2.78,-2.78,-2.56,-3.32,5.54,5.52,5.53
70.07,8.32,2.84,8.29,2.82,-2.82,-2.60,-3.30,5.50,5.47,5.48
70.77,8.32,2.89,8.28,2.86,-2.86,-2.64,-3.28,5.46,5.42,5.43
71.48,8.30,2.92,8.26,2.90,-2.90,-2.68,-3.26,5.40,5.36,5.38
72.19,8.26,2.95,8.24,2.94,-2.94,-2.71,-3.23,5.32,5.31,5.31
72.91,8.21,2.96,8.22,2.97,-2.97,-2.75,-3.20,5.24,5.25,5.25
73.64,8.14,2.94,8.19,2.99,-2.99,-2.78,-3.17,5.14,5.19,5.20
74.38,8.11,2.97,8.16,3.02,-3.02,-2.81,-3.14,5.09,5.14,5.14
75.12,8.11,3.03,8.13,3.04,-3.04,-2.84,-3.11,5.06,5.08,5.08
75.87,8.11,3.09,8.09,3.07,-3.07,-2.87,-3.08,5.04,5.03,5.02
76.63,8.07,3.10,8.06,3.09,-3.09,-2.90,-3.05,4.98,4.97,4.97
77.40,8.03,3.11,8.02,3.11,-3.11,-2.93,-3.02,4.92,4.92,4.92
78.17,8.01,3.15,7.99,3.12,-3.12,-2.96,-2.99,4.89,4.87,4.86
78.95,7.99,3.17,7.94,3.13,-3.13,-2.98,-2.96,4.86,4.81,4.82
79.74,7.86,3.09,7.90,3.13,-3.13,-3.01,-2.93,4.72,4.76,4.77
80.54,7.81,3.09,7.85,3.13,-3.13,-3.03,-2.90,4.67,4.72,4.72
81.35,7.81,3.14,7.80,3.13,-3.13,-3.05,-2.88,4.67,4.67,4.67
82.16,7.81,3.19,7.75,3.13,-3.13,-3.07,-2.85,4.68,4.62,4.62
82.98,7.81,3.23,7.70,3.13,-3.13,-3.09,-2.83,4.68,4.57,4.58
83.81,7.65,3.12,7.66,3.13,-3.13,-3.11,-2.81,4.52,4.53,4.53
84.65,7.60,3.12,7.61,3.14,-3.14,-3.13,-2.79,4.46,4.48,4.48
85.50,7.55,3.11,7.57,3.14,-3.14,-3.14,-2.77,4.40,4.43,4.44
86.35,7.47,3.08,7.53,3.16,-3.16,-3.16,-2.76,4.31,4.38,4.39
87.22,7.41,3.07,7.50,3.17,-3.17,-3.17,-2.75,4.24,4.33,4.34
88.09,7.41,3.12,7.47,3.19,-3.19,-3.19,-2.73,4.22,4.28,4.29
88.97,7.41,3.18,7.44,3.21,-3.21,-3.20,-2.73,4.20,4.23,4.23
89.86,7.41,3.23,7.41,3.23,-3.23,-3.21,-2.72,4.18,4.18,4.18
90.76,7.42,3.29,7.38,3.25,-3.25,-3.22,-2.72,4.17,4.13,4.13
91.66,7.42,3.34,7.35,3.27,-3.27,-3.23,-2.72,4.15,4.08,4.08
92.58,7.37,3.35,7.32,3.30,-3.30,-3.24,-2.72,4.07,4.03,4.02
93.51,7.30,3.33,7.30,3.32,-3.32,-3.24,-2.72,3.98,3.98,3.97
94.44,7.25,3.32,7.26,3.33,-3.33,-3.25,-2.73,3.91,3.92,3.93
95.39,7.22,3.34,7.22,3.34,-3.34,-3.26,-2.73,3.87,3.87,3.88
96.34,7.18,3.35,7.17,3.34,-3.34,-3.26,-2.74,3.83,3.83,3.83
97.30,7.11,3.33,7.11,3.33,-3.33,-3.26,-2.75,3.78,3.78,3.78
98.28,7.07,3.34,7.04,3.31,-3.31,-3.27,-2.77,3.76,3.73,3.73
99.26,6.98,3.29,6.97,3.29,-3.29,-3.27,-2.78,3.69,3.68,3.69
100.25,6.93,3.29,6.89,3.25,-3.25,-3.27,-2.80,3.68,3.63,3.64
101.25,6.80,3.21,6.80,3.21,-3.21,-3.27,-2.82,3.58,3.59,3.59
102.27,6.71,3.17,6.71,3.17,-3.17,-3.27,-2.83,3.54,3.54,3.54
103.29,6.61,3.12,6.62,3.13,-3.13,-3.27,-2.85,3.48,3.49,3.49
104.32,6.53,3.08,6.52,3.08,-3.08,-3.26,-2.87,3.45,3.44,3.45
105.37,6.43,3.03,6.42,3.03,-3.03,-3.26,-2.90,3.40,3.39,3.40
106.42,6.30,2.95,6.32,2.98,-2.98,-3.26,-2.92,3.32,3.34,3.35
107.48,6.23,2.94,6.22,2.93,-2.93,-3.25,-2.94,3.30,3.29,3.29
108.56,6.14,2.90,6.12,2.88,-2.88,-3.25,-2.96,3.25,3.23,3.24
109.64,6.02,2.83,6.02,2.84,-2.84,-3.24,-2.98,3.17,3.18,3.19
110.74,5.91,2.78,5.94,2.81,-2.81,-3.23,-3.00,3.10,3.13,3.13
111.85,5.84,2.75,5.86,2.78,-2.78,-3.22,-3.02,3.06,3.08,3.09
112.97,5.73,2.70,5.79,2.76,-2.76,-3.22,-3.04,2.97,3.03,3.03
114.10,5.68,2.70,5.71,2.73,-2.73,-3.21,-3.06,2.95,2.98,2.98
115.24,5.62,2.69,5.65,2.71,-2.71,-3.20,-3.08,2.91,2.93,2.93
116.39,5.60,2.72,5.58,2.70,-2.70,-3.19,-3.09,2.90,2.89,2.88
117.55,5.56,2.72,5.53,2.68,-2.68,-3.18,-3.10,2.87,2.85,2.84
118.73,5.46,2.66,5.48,2.67,-2.67,-3.16,-3.11,2.78,2.81,2.80
119.92,5.44,2.67,5.43,2.66,-2.66,-3.15,-3.12,2.78,2.77,2.77
121.12,5.43,2.70,5.38,2.65,-2.65,-3.14,-3.12,2.78,2.73,2.73
122.33,5.37,2.67,5.34,2.64,-2.64,-3.13,-3.12,2.73,2.70,2.70
123.55,5.30,2.63,5.29,2.63,-2.63,-3.11,-3.12,2.67,2.66,2.67
124.79,5.25,2.61,5.25,2.62,-2.62,-3.10,-3.11,2.63,2.63,2.64
126.03,5.18,2.57,5.21,2.61,-2.61,-3.08,-3.11,2.57,2.60,2.61
127.29,5.18,2.59,5.17,2.59,-2.59,-3.07,-3.10,2.59,2.57,2.59
128.57,5.15,2.60,5.12,2.58,-2.58,-3.05,-3.08,2.57,2.54,2.55
129.85,5.09,2.57,5.08,2.56,-2.56,-3.03,-3.06,2.53,2.52,2.52
131.15,5.02,2.53,5.04,2.55,-2.55,-3.02,-3.04,2.47,2.49,2.49
132.46,4.96,2.50,5.00,2.54,-2.54,-3.00,-3.02,2.42,2.46,2.46
133.79,4.92,2.49,4.96,2.53,-2.53,-2.98,-3.00,2.39,2.43,2.43
135.12,4.91,2.51,4.92,2.52,-2.52,-2.96,-2.97,2.39,2.40,2.40
136.48,4.91,2.53,4.88,2.51,-2.51,-2.94,-2.94,2.40,2.38,2.38
137.84,4.86,2.52,4.84,2.49,-2.49,-2.92,-2.91,2.37,2.35,2.34
139.22,4.80,2.49,4.80,2.48,-2.48,-2.90,-2.87,2.32,2.32,2.31
140.61,4.74,2.46,4.76,2.47,-2.47,-2.88,-2.84,2.27,2.29,2.28
142.02,4.72,2.46,4.71,2.45,-2.45,-2.86,-2.80,2.26,2.26,2.26
143.44,4.72,2.49,4.66,2.44,-2.44,-2.84,-2.76,2.28,2.22,2.23
144.87,4.66,2.47,4.62,2.43,-2.43,-2.82,-2.73,2.22,2.18,2.19
146.32,4.56,2.41,4.57,2.44,-2.44,-2.80,-2.69,2.12,2.14,2.15
147.78,4.52,2.40,4.53,2.44,-2.44,-2.78,-2.65,2.08,2.09,2.12
149.26,4.48,2.41,4.48,2.44,-2.44,-2.75,-2.61,2.04,2.04,2.07
150.75,4.37,2.36,4.42,2.44,-2.44,-2.73,-2.57,1.93,1.98,2.01
152.26,4.33,2.39,4.36,2.44,-2.44,-2.71,-2.53,1.89,1.92,1.94
153.78,4.31,2.44,4.29,2.44,-2.44,-2.68,-2.50,1.86,1.85,1.87
155.32,4.25,2.45,4.23,2.45,-2.45,-2.66,-2.46,1.80,1.78,1.80
156.88,4.18,2.46,4.16,2.44,-2.44,-2.64,-2.42,1.74,1.71,1.72
158.44,4.13,2.49,4.08,2.44,-2.44,-2.61,-2.39,1.69,1.64,1.64
160.03,4.12,2.56,4.01,2.44,-2.44,-2.59,-2.35,1.68,1.57,1.56
161.63,4.04,2.55,3.95,2.44,-2.44,-2.56,-2.32,1.60,1.51,1.49
163.24,3.91,2.48,3.88,2.44,-2.44,-2.54,-2.29,1.47,1.45,1.43
164.88,3.78,2.40,3.83,2.44,-2.44,-2.51,-2.26,1.34,1.39,1.38
166.53,3.72,2.39,3.79,2.44,-2.44,-2.49,-2.23,1.28,1.34,1.33
168.19,3.70,2.41,3.76,2.46,-2.46,-2.46,-2.20,1.24,1.30,1.29
169.87,3.69,2.44,3.74,2.47,-2.47,-2.44,-2.18,1.21,1.27,1.25
171.57,3.68,2.45,3.75,2.51,-2.51,-2.41,-2.16,1.17,1.24,1.23
173.29,3.70,2.48,3.78,2.56,-2.56,-2.39,-2.13,1.14,1.23,1.22
175.02,3.76,2.55,3.83,2.62,-2.62,-2.36,-2.11,1.14,1.21,1.21
176.77,3.81,2.61,3.89,2.68,-2.68,-2.34,-2.09,1.12,1.20,1.20
178.54,3.86,2.67,3.96,2.76,-2.76,-2.31,-2.08,1.10,1.19,1.19
180.32,3.98,2.78,4.04,2.85,-2.85,-2.28,-2.06,1.13,1.19,1.20
182.13,4.13,2.92,4.12,2.94,-2.94,-2.26,-2.05,1.19,1.18,1.21
183.95,4.29,3.09,4.20,3.02,-3.02,-2.23,-2.04,1.27,1.18,1.20
185.79,4.34,3.14,4.26,3.09,-3.09,-2.20,-2.02,1.25,1.17,1.20
187.65,4.42,3.24,4.31,3.15,-3.15,-2.18,-2.02,1.27,1.16,1.18
189.52,4.51,3.34,4.34,3.19,-3.19,-2.15,-2.01,1.32,1.15,1.17
191.42,4.48,3.33,4.36,3.22,-3.22,-2.12,-2.00,1.26,1.14,1.15
193.33,4.39,3.26,4.35,3.23,-3.23,-2.10,-2.00,1.16,1.13,1.13
195.27,4.37,3.26,4.33,3.22,-3.22,-2.07,-1.99,1.15,1.11,1.11
197.22,4.32,3.23,4.29,3.20,-3.20,-2.04,-1.99,1.12,1.09,1.09
199.19,4.20,3.13,4.23,3.16,-3.16,-2.02,-1.99,1.04,1.07,1.07
201.18,4.11,3.06,4.16,3.11,-3.11,-1.99,-1.99,1.00,1.05,1.05
203.19,4.04,3.01,4.07,3.04,-3.04,-1.96,-1.99,1.00,1.03,1.03
205.23,3.95,2.94,3.98,2.97,-2.97,-1.93,-1.99,0.98,1.01,1.01
207.28,3.86,2.86,3.89,2.90,-2.90,-1.91,-1.99,0.95,0.99,1.00
209.35,3.76,2.78,3.80,2.83,-2.83,-1.88,-2.00,0.93,0.97,0.98
211.44,3.70,2.75,3.71,2.76,-2.76,-1.85,-2.00,0.94,0.95,0.95
213.56,3.62,2.68,3.63,2.69,-2.69,-1.83,-2.00,0.92,0.94,0.94
215.69,3.56,2.63,3.56,2.63,-2.63,-1.80,-2.01,0.92,0.92,0.93
217.85,3.49,2.57,3.48,2.57,-2.57,-1.77,-2.01,0.92,0.91,0.92
220.03,3.42,2.51,3.41,2.51,-2.51,-1.74,-2.01,0.91,0.90,0.91
222.23,3.35,2.47,3.35,2.46,-2.46,-1.72,-2.01,0.89,0.90,0.88
224.45,3.30,2.41,3.29,2.40,-2.40,-1.69,-2.01,0.90,0.89,0.89
226.70,3.22,2.33,3.23,2.34,-2.34,-1.66,-2.01,0.88,0.89,0.89
228.96,3.18,2.28,3.18,2.28,-2.28,-1.64,-2.01,0.90,0.90,0.90
231.25,3.12,2.21,3.12,2.22,-2.22,-1.61,-2.01,0.90,0.91,0.91
233.57,3.08,2.16,3.07,2.15,-2.15,-1.58,-2.01,0.93,0.92,0.92
235.90,3.02,2.09,3.02,2.09,-2.09,-1.56,-2.00,0.93,0.93,0.93
238.26,3.02,2.08,2.99,2.04,-2.04,-1.53,-1.99,0.98,0.95,0.94
240.64,2.93,1.96,2.95,1.98,-1.98,-1.50,-1.98,0.95,0.97,0.97
243.05,2.88,1.88,2.91,1.92,-1.92,-1.47,-1.97,0.95,0.99,1.00
245.48,2.88,1.86,2.88,1.86,-1.86,-1.45,-1.96,1.01,1.01,1.02
247.93,2.84,1.79,2.85,1.81,-1.81,-1.42,-1.94,1.03,1.04,1.05
250.41,2.81,1.74,2.82,1.76,-1.76,-1.39,-1.92,1.05,1.06,1.07
252.92,2.75,1.65,2.79,1.70,-1.70,-1.37,-1.90,1.04,1.09,1.10
255.45,2.76,1.64,2.76,1.65,-1.65,-1.34,-1.88,1.11,1.11,1.12
258.00,2.77,1.63,2.73,1.59,-1.59,-1.31,-1.85,1.17,1.13,1.14
260.58,2.77,1.61,2.70,1.54,-1.54,-1.29,-1.82,1.23,1.16,1.16
263.19,2.71,1.52,2.66,1.48,-1.48,-1.26,-1.79,1.23,1.18,1.19
265.82,2.59,1.38,2.62,1.42,-1.42,-1.24,-1.76,1.17,1.21,1.21
268.48,2.57,1.34,2.59,1.36,-1.36,-1.21,-1.72,1.21,1.23,1.23
271.16,2.56,1.30,2.56,1.30,-1.30,-1.18,-1.69,1.26,1.26,1.26
273.87,2.56,1.28,2.52,1.24,-1.24,-1.16,-1.65,1.32,1.28,1.28
276.61,2.49,1.18,2.49,1.18,-1.18,-1.13,-1.61,1.31,1.31,1.31
279.38,2.44,1.10,2.45,1.12,-1.12,-1.10,-1.56,1.32,1.34,1.34
282.17,2.38,1.02,2.42,1.05,-1.05,-1.08,-1.52,1.33,1.36,1.36
284.99,2.37,0.97,2.38,0.99,-0.99,-1.05,-1.48,1.38,1.39,1.40
287.84,2.32,0.90,2.34,0.92,-0.92,-1.03,-1.43,1.40,1.42,1.42
290.72,2.28,0.83,2.31,0.86,-0.86,-1.00,-1.38,1.42,1.45,1.45
293.63,2.30,0.82,2.29,0.81,-0.81,-0.98,-1.34,1.49,1.48,1.48
296.57,2.31,0.80,2.26,0.76,-0.76,-0.95,-1.29,1.55,1.51,1.51
299.53,2.24,0.70,2.23,0.70,-0.70,-0.92,-1.24,1.54,1.54,1.54
302.53,2.20,0.64,2.20,0.63,-0.63,-0.90,-1.19,1.56,1.56,1.56
305.55,2.15,0.55,2.17,0.58,-0.58,-0.87,-1.14,1.57,1.59,1.60
308.61,2.15,0.53,2.14,0.53,-0.53,-0.85,-1.09,1.62,1.61,1.62
311.69,2.14,0.49,2.11,0.47,-0.47,-0.82,-1.04,1.67,1.64,1.65
314.81,2.08,0.41,2.07,0.41,-0.41,-0.80,-0.99,1.66,1.66,1.67
317.96,2.06,0.37,2.04,0.36,-0.36,-0.77,-0.94,1.70,1.68,1.69
321.14,2.02,0.32,2.01,0.31,-0.31,-0.75,-0.89,1.71,1.70,1.70
324.35,1.97,0.25,1.97,0.25,-0.25,-0.72,-0.85,1.71,1.72,1.72
327.59,1.88,0.15,1.93,0.20,-0.20,-0.70,-0.80,1.68,1.73,1.73
330.87,1.86,0.12,1.89,0.14,-0.14,-0.67,-0.75,1.71,1.74,1.74
334.18,1.86,0.10,1.85,0.10,-0.10,-0.65,-0.70,1.76,1.76,1.76
337.52,1.86,0.09,1.81,0.05,-0.05,-0.62,-0.65,1.81,1.77,1.77
340.90,1.77,-0.01,1.78,0.00,-0.00,-0.59,-0.60,1.76,1.77,1.78
344.30,1.73,-0.06,1.75,-0.03,0.03,-0.57,-0.55,1.76,1.78,1.79
347.75,1.76,-0.03,1.71,-0.07,0.07,-0.54,-0.51,1.83,1.79,1.79
351.23,1.70,-0.10,1.68,-0.11,0.11,-0.52,-0.46,1.81,1.79,1.80
354.74,1.58,-0.21,1.64,-0.16,0.16,-0.49,-0.41,1.73,1.79,1.79
358.28,1.56,-0.24,1.60,-0.20,0.20,-0.47,-0.37,1.75,1.80,1.80
361.87,1.57,-0.23,1.57,-0.23,0.23,-0.44,-0.32,1.80,1.80,1.80
365.49,1.57,-0.24,1.53,-0.27,0.27,-0.42,-0.27,1.84,1.80,1.81
369.14,1.52,-0.28,1.49,-0.31,0.31,-0.39,-0.23,1.83,1.80,1.80
372.83,1.48,-0.32,1.46,-0.34,0.34,-0.37,-0.18,1.82,1.80,1.80
376.56,1.51,-0.28,1.44,-0.36,0.36,-0.34,-0.14,1.87,1.80,1.79
380.33,1.41,-0.39,1.42,-0.37,0.37,-0.32,-0.09,1.78,1.79,1.80
384.13,1.30,-0.50,1.39,-0.40,0.40,-0.29,-0.05,1.69,1.79,1.80
387.97,1.29,-0.50,1.37,-0.42,0.42,-0.27,-0.01,1.71,1.78,1.79
391.85,1.31,-0.47,1.34,-0.44,0.44,-0.24,0.04,1.75,1.78,1.78
395.77,1.32,-0.47,1.32,-0.46,0.46,-0.22,0.08,1.77,1.77,1.79
399.73,1.32,-0.46,1.29,-0.48,0.48,-0.19,0.12,1.80,1.77,1.78
403.72,1.31,-0.47,1.26,-0.50,0.50,-0.16,0.17,1.81,1.76,1.78
407.76,1.31,-0.45,1.24,-0.52,0.52,-0.14,0.21,1.83,1.76,1.76
411.84,1.34,-0.42,1.22,-0.53,0.53,-0.11,0.25,1.87,1.76,1.76
415.96,1.25,-0.51,1.20,-0.55,0.55,-0.09,0.29,1.80,1.76,1.76
420.12,1.14,-0.62,1.19,-0.57,0.57,-0.06,0.33,1.71,1.76,1.76
424.32,1.11,-0.65,1.18,-0.58,0.58,-0.03,0.37,1.69,1.76,1.76
428.56,1.12,-0.65,1.18,-0.59,0.59,-0.01,0.41,1.71,1.77,1.77
432.85,1.13,-0.65,1.18,-0.61,0.61,0.02,0.45,1.74,1.79,1.78
437.18,1.16,-0.63,1.18,-0.63,0.63,0.04,0.49,1.79,1.81,1.79
441.55,1.20,-0.63,1.19,-0.64,0.64,0.07,0.52,1.84,1.84,1.83
445.96,1.24,-0.62,1.21,-0.66,0.66,0.10,0.56,1.89,1.87,1.86
450.42,1.24,-0.65,1.25,-0.66,0.66,0.12,0.59,1.90,1.90,1.89
454.93,1.21,-0.73,1.28,-0.66,0.66,0.15,0.63,1.87,1.94,1.94
459.48,1.30,-0.68,1.33,-0.66,0.66,0.18,0.66,1.96,1.99,1.98
464.07,1.37,-0.66,1.38,-0.65,0.65,0.21,0.69,2.02,2.03,2.03
468.71,1.43,-0.66,1.44,-0.64,0.64,0.23,0.73,2.07,2.08,2.09
473.40,1.49,-0.64,1.49,-0.64,0.64,0.26,0.76,2.13,2.13,2.13
478.13,1.55,-0.64,1.53,-0.65,0.65,0.29,0.78,2.20,2.18,2.19
482.91,1.59,-0.64,1.56,-0.67,0.67,0.32,0.81,2.26,2.22,2.23
487.74,1.63,-0.64,1.59,-0.68,0.68,0.34,0.84,2.31,2.27,2.27
492.62,1.67,-0.65,1.61,-0.69,0.69,0.37,0.86,2.36,2.30,2.32
497.55,1.69,-0.65,1.62,-0.71,0.71,0.40,0.88,2.40,2.33,2.34
502.52,1.59,-0.78,1.63,-0.73,0.73,0.43,0.91,2.32,2.36,2.37
507.55,1.64,-0.74,1.62,-0.75,0.75,0.46,0.93,2.39,2.37,2.38
512.62,1.67,-0.72,1.59,-0.78,0.78,0.49,0.95,2.45,2.38,2.39
517.75,1.59,-0.81,1.56,-0.81,0.81,0.52,0.96,2.40,2.37,2.40
522.93,1.45,-0.94,1.52,-0.84,0.84,0.54,0.98,2.29,2.36,2.39
528.16,1.39,-0.97,1.47,-0.87,0.87,0.57,1.00,2.26,2.34,2.36
533.44,1.46,-0.87,1.42,-0.90,0.90,0.60,1.01,2.36,2.31,2.33
538.77,1.46,-0.84,1.36,-0.92,0.92,0.63,1.02,2.38,2.28,2.30
544.16,1.29,-0.96,1.30,-0.93,0.93,0.66,1.04,2.22,2.23,2.25
549.60,1.22,-0.98,1.24,-0.94,0.94,0.69,1.05,2.16,2.18,2.20
