frequency,raw,error,smoothed,error_smoothed,equalization,parametric_eq,fixed_band_eq,equalized_raw,equalized_smoothed,target
20.00,0.33,-1.67,0.33,-1.67,1.67,1.86,0.86,2.00,2.00,2.00
20.20,0.34,-1.70,0.34,-1.70,1.70,1.86,0.89,2.04,2.04,2.04
20.40,0.35,-1.73,0.35,-1.72,1.73,1.86,0.91,2.08,2.08,2.08
20.61,0.37,-1.74,0.37,-1.75,1.75,1.86,0.94,2.12,2.12,2.11
20.81,0.38,-1.77,0.38,-1.77,1.77,1.85,0.97,2.15,2.15,2.15
21.02,0.39,-1.80,0.39,-1.79,1.79,1.85,1.00,2.18,2.18,2.19
21.23,0.40,-1.81,0.40,-1.81,1.81,1.85,1.03,2.21,2.21,2.21
21.44,0.41,-1.82,0.41,-1.82,1.82,1.85,1.06,2.23,2.23,2.23
21.66,0.42,-1.83,0.42,-1.83,1.83,1.85,1.09,2.25,2.25,2.25
21.87,0.43,-1.83,0.43,-1.83,1.83,1.84,1.12,2.26,2.26,2.26
22.09,0.44,-1.84,0.44,-1.83,1.83,1.84,1.16,2.27,2.28,2.28
22.31,0.46,-1.83,0.46,-1.83,1.83,1.84,1.19,2.29,2.29,2.29
22.54,0.47,-1.83,0.47,-1.83,1.83,1.84,1.23,2.30,2.30,2.30
22.76,0.48,-1.83,0.48,-1.83,1.83,1.84,1.26,2.31,2.31,2.31
22.99,0.49,-1.82,0.49,-1.82,1.83,1.83,1.30,2.32,2.32,2.31
23.22,0.50,-1.82,0.50,-1.82,1.82,1.83,1.34,2.32,2.32,2.32
23.45,0.51,-1.82,0.51,-1.82,1.82,1.83,1.38,2.33,2.33,2.33
23.69,0.52,-1.82,0.52,-1.82,1.82,1.83,1.42,2.34,2.34,2.34
23.92,0.53,-1.82,0.53,-1.83,1.82,1.83,1.46,2.35,2.35,2.35
24.16,0.54,-1.83,0.54,-1.83,1.82,1.82,1.50,2.36,2.36,2.37
24.40,0.55,-1.84,0.55,-1.83,1.82,1.82,1.54,2.37,2.37,2.39
24.65,0.56,-1.82,0.56,-1.83,1.82,1.82,1.58,2.38,2.38,2.38
24.89,0.57,-1.82,0.57,-1.82,1.82,1.82,1.62,2.39,2.39,2.39
25.14,0.58,-1.82,0.58,-1.82,1.82,1.81,1.67,2.40,2.40,2.40
25.39,0.59,-1.82,0.59,-1.82,1.82,1.81,1.71,2.41,2.41,2.41
25.65,0.60,-1.83,0.60,-1.82,1.82,1.81,1.75,2.42,2.42,2.43
25.91,0.61,-1.82,0.61,-1.82,1.82,1.81,1.80,2.43,2.43,2.43
26.16,0.62,-1.82,0.62,-1.82,1.83,1.80,1.84,2.45,2.44,2.44
26.43,0.62,-1.83,0.62,-1.83,1.83,1.80,1.88,2.45,2.45,2.45
26.69,0.63,-1.83,0.63,-1.83,1.83,1.80,1.92,2.46,2.46,2.46
26.96,0.64,-1.84,0.64,-1.84,1.83,1.79,1.97,2.47,2.47,2.48
27.23,0.65,-1.84,0.65,-1.84,1.83,1.79,2.01,2.48,2.48,2.49
27.50,0.66,-1.83,0.66,-1.84,1.83,1.79,2.04,2.49,2.49,2.49
27.77,0.66,-1.83,0.66,-1.83,1.84,1.79,2.08,2.50,2.50,2.49
28.05,0.67,-1.84,0.67,-1.83,1.84,1.78,2.12,2.51,2.51,2.51
28.33,0.68,-1.83,0.68,-1.84,1.84,1.78,2.15,2.52,2.51,2.51
28.62,0.68,-1.84,0.68,-1.84,1.84,1.78,2.18,2.52,2.52,2.52
28.90,0.69,-1.84,0.69,-1.84,1.84,1.77,2.21,2.53,2.53,2.53
29.19,0.69,-1.84,0.69,-1.85,1.84,1.77,2.24,2.53,2.54,2.53
29.48,0.70,-1.86,0.70,-1.85,1.85,1.77,2.26,2.54,2.54,2.56
29.78,0.71,-1.84,0.71,-1.85,1.85,1.76,2.28,2.56,2.55,2.55
30.08,0.71,-1.85,0.71,-1.85,1.85,1.76,2.30,2.56,2.56,2.56
30.38,0.72,-1.84,0.72,-1.85,1.85,1.75,2.32,2.57,2.57,2.56
30.68,0.72,-1.86,0.72,-1.85,1.85,1.75,2.33,2.57,2.57,2.58
30.99,0.73,-1.85,0.73,-1.85,1.85,1.75,2.33,2.58,2.58,2.58
31.30,0.73,-1.85,0.73,-1.85,1.85,1.74,2.34,2.58,2.58,2.58
31.61,0.74,-1.85,0.74,-1.85,1.86,1.74,2.34,2.60,2.59,2.59
31.93,0.74,-1.86,0.74,-1.86,1.86,1.73,2.34,2.60,2.60,2.60
32.24,0.74,-1.86,0.74,-1.87,1.87,1.73,2.33,2.61,2.61,2.60
32.57,0.74,-1.88,0.74,-1.87,1.87,1.72,2.32,2.61,2.61,2.62
32.89,0.74,-1.88,0.74,-1.88,1.88,1.72,2.31,2.62,2.62,2.62
33.22,0.74,-1.89,0.74,-1.89,1.89,1.72,2.29,2.63,2.63,2.63
33.55,0.74,-1.90,0.74,-1.90,1.90,1.71,2.28,2.64,2.64,2.64
33.89,0.74,-1.91,0.74,-1.91,1.91,1.71,2.26,2.65,2.65,2.65
34.23,0.74,-1.91,0.74,-1.92,1.92,1.70,2.23,2.66,2.66,2.65
34.57,0.73,-1.93,0.73,-1.93,1.93,1.69,2.21,2.66,2.66,2.66
34.92,0.72,-1.94,0.72,-1.94,1.94,1.69,2.18,2.66,2.66,2.66
35.27,0.71,-1.96,0.71,-1.95,1.95,1.68,2.15,2.66,2.66,2.67
35.62,0.71,-1.96,0.71,-1.96,1.96,1.68,2.12,2.67,2.67,2.67
35.97,0.70,-1.97,0.70,-1.97,1.97,1.67,2.09,2.67,2.67,2.67
36.33,0.70,-1.98,0.70,-1.98,1.98,1.67,2.06,2.68,2.68,2.68
36.70,0.69,-1.98,0.69,-1.98,1.99,1.66,2.02,2.67,2.68,2.67
37.06,0.69,-1.99,0.69,-1.99,1.99,1.65,1.99,2.68,2.68,2.68
37.43,0.69,-1.99,0.69,-1.99,1.99,1.65,1.95,2.68,2.67,2.68
37.81,0.69,-1.99,0.69,-1.99,1.99,1.64,1.92,2.67,2.67,2.68
38.19,0.69,-1.99,0.69,-1.98,1.98,1.64,1.88,2.67,2.67,2.68
38.57,0.70,-1.97,0.70,-1.97,1.97,1.63,1.85,2.67,2.67,2.67
38.95,0.71,-1.96,0.71,-1.96,1.97,1.62,1.81,2.67,2.67,2.67
39.34,0.71,-1.95,0.71,-1.95,1.95,1.61,1.78,2.66,2.67,2.66
39.74,0.72,-1.94,0.72,-1.94,1.94,1.61,1.74,2.66,2.66,2.66
40.14,0.72,-1.94,0.72,-1.93,1.93,1.60,1.71,2.65,2.66,2.66
40.54,0.74,-1.92,0.74,-1.92,1.92,1.59,1.68,2.66,2.66,2.66
40.94,0.75,-1.90,0.75,-1.90,1.91,1.58,1.65,2.66,2.66,2.65
41.35,0.76,-1.89,0.76,-1.89,1.90,1.58,1.62,2.66,2.66,2.65
41.76,0.77,-1.88,0.77,-1.88,1.88,1.57,1.59,2.65,2.65,2.65
42.18,0.78,-1.87,0.78,-1.87,1.87,1.56,1.56,2.65,2.65,2.65
42.60,0.79,-1.86,0.79,-1.86,1.85,1.55,1.53,2.64,2.64,2.65
43.03,0.80,-1.85,0.80,-1.85,1.84,1.54,1.51,2.64,2.64,2.65
43.46,0.82,-1.83,0.82,-1.82,1.82,1.53,1.48,2.64,2.64,2.65
43.90,0.84,-1.79,0.83,-1.80,1.80,1.52,1.46,2.64,2.64,2.63
44.33,0.85,-1.78,0.85,-1.78,1.78,1.51,1.43,2.63,2.63,2.63
44.78,0.86,-1.76,0.86,-1.76,1.76,1.50,1.41,2.62,2.63,2.62
45.23,0.88,-1.74,0.88,-1.74,1.74,1.49,1.39,2.62,2.62,2.62
45.68,0.90,-1.72,0.90,-1.72,1.72,1.48,1.37,2.62,2.62,2.62
46.13,0.91,-1.70,0.91,-1.70,1.71,1.47,1.36,2.61,2.62,2.61
46.60,0.93,-1.69,0.93,-1.68,1.69,1.46,1.34,2.62,2.61,2.62
47.06,0.94,-1.67,0.94,-1.67,1.67,1.45,1.32,2.61,2.61,2.61
47.53,0.96,-1.64,0.96,-1.65,1.65,1.43,1.31,2.61,2.60,2.60
48.01,0.97,-1.64,0.97,-1.63,1.62,1.42,1.29,2.59,2.59,2.61
48.49,0.98,-1.61,0.98,-1.61,1.60,1.41,1.28,2.58,2.58,2.59
48.97,1.00,-1.57,1.00,-1.58,1.58,1.40,1.27,2.57,2.57,2.57
49.46,1.01,-1.55,1.01,-1.54,1.55,1.38,1.26,2.56,2.56,2.56
49.96,1.03,-1.51,1.03,-1.52,1.52,1.37,1.25,2.55,2.55,2.54
50.46,1.04,-1.50,1.04,-1.49,1.49,1.35,1.24,2.53,2.53,2.54
50.96,1.05,-1.47,1.05,-1.47,1.47,1.34,1.23,2.52,2.51,2.52
51.47,1.05,-1.44,1.05,-1.44,1.44,1.32,1.22,2.49,2.50,2.49
51.99,1.06,-1.42,1.06,-1.42,1.42,1.31,1.21,2.48,2.48,2.48
52.51,1.07,-1.40,1.06,-1.40,1.40,1.29,1.20,2.47,2.47,2.47
53.03,1.07,-1.38,1.07,-1.38,1.39,1.28,1.20,2.46,2.46,2.45
53.56,1.06,-1.38,1.06,-1.37,1.38,1.26,1.19,2.43,2.44,2.44
54.10,1.06,-1.35,1.05,-1.36,1.36,1.24,1.18,2.42,2.42,2.41
54.64,1.04,-1.36,1.04,-1.35,1.35,1.22,1.18,2.39,2.39,2.40
55.18,1.03,-1.34,1.03,-1.34,1.34,1.20,1.17,2.37,2.37,2.37
55.74,1.02,-1.32,1.02,-1.33,1.32,1.18,1.16,2.34,2.35,2.34
56.29,1.02,-1.32,1.02,-1.31,1.31,1.16,1.15,2.33,2.32,2.34
56.86,1.02,-1.29,1.02,-1.29,1.29,1.14,1.14,2.31,2.31,2.31
57.42,1.02,-1.26,1.02,-1.26,1.26,1.12,1.14,2.28,2.29,2.28
58.00,1.03,-1.23,1.03,-1.23,1.24,1.10,1.13,2.27,2.26,2.26
58.58,1.04,-1.20,1.04,-1.20,1.20,1.07,1.11,2.24,2.24,2.24
59.16,1.05,-1.17,1.05,-1.17,1.17,1.05,1.10,2.21,2.22,2.22
59.76,1.07,-1.13,1.07,-1.13,1.12,1.02,1.09,2.19,2.19,2.20
60.35,1.09,-1.08,1.08,-1.09,1.08,0.99,1.08,2.17,2.16,2.17
60.96,1.10,-1.04,1.10,-1.03,1.03,0.97,1.06,2.13,2.13,2.14
61.57,1.12,-0.97,1.12,-0.97,0.97,0.94,1.05,2.09,2.10,2.09
62.18,1.15,-0.90,1.14,-0.92,0.92,0.91,1.03,2.07,2.06,2.05
62.80,1.16,-0.87,1.16,-0.86,0.86,0.87,1.01,2.02,2.02,2.03
63.43,1.18,-0.80,1.18,-0.80,0.80,0.84,0.99,1.98,1.98,1.98
64.07,1.20,-0.74,1.20,-0.74,0.74,0.81,0.97,1.94,1.94,1.94
64.71,1.23,-0.68,1.23,-0.68,0.68,0.77,0.95,1.91,1.91,1.91
65.35,1.25,-0.62,1.25,-0.62,0.62,0.73,0.92,1.87,1.87,1.87
66.01,1.27,-0.56,1.27,-0.56,0.56,0.69,0.90,1.83,1.83,1.83
66.67,1.29,-0.51,1.29,-0.51,0.50,0.65,0.87,1.79,1.79,1.80
67.33,1.31,-0.45,1.31,-0.45,0.45,0.61,0.84,1.76,1.76,1.76
68.01,1.33,-0.39,1.33,-0.39,0.39,0.56,0.82,1.72,1.72,1.72
68.69,1.35,-0.33,1.35,-0.33,0.33,0.51,0.79,1.68,1.68,1.68
69.37,1.36,-0.28,1.36,-0.28,0.28,0.46,0.76,1.64,1.64,1.64
70.07,1.37,-0.23,1.37,-0.23,0.23,0.41,0.72,1.60,1.60,1.60
70.77,1.39,-0.17,1.38,-0.18,0.18,0.36,0.69,1.57,1.56,1.56
71.48,1.39,-0.14,1.39,-0.13,0.14,0.31,0.66,1.53,1.53,1.53
72.19,1.39,-0.09,1.39,-0.09,0.10,0.25,0.62,1.49,1.49,1.48
72.91,1.39,-0.06,1.39,-0.06,0.06,0.20,0.59,1.45,1.45,1.45
73.64,1.38,-0.03,1.38,-0.03,0.03,0.14,0.56,1.41,1.41,1.41
74.38,1.38,-0.00,1.38,-0.00,-0.00,0.09,0.52,1.38,1.37,1.38
75.12,1.37,0.03,1.37,0.03,-0.03,0.03,0.48,1.34,1.34,1.34
75.87,1.37,0.06,1.37,0.06,-0.06,-0.02,0.45,1.31,1.31,1.31
76.63,1.37,0.09,1.37,0.09,-0.09,-0.07,0.41,1.28,1.27,1.28
77.40,1.37,0.12,1.37,0.12,-0.13,-0.11,0.37,1.24,1.24,1.25
78.17,1.37,0.15,1.37,0.15,-0.16,-0.15,0.34,1.21,1.22,1.22
78.95,1.38,0.19,1.38,0.19,-0.19,-0.18,0.30,1.19,1.19,1.19
79.74,1.39,0.22,1.39,0.22,-0.22,-0.21,0.26,1.17,1.17,1.17
80.54,1.39,0.24,1.39,0.25,-0.24,-0.23,0.22,1.15,1.15,1.15
81.35,1.39,0.27,1.39,0.27,-0.27,-0.25,0.19,1.12,1.12,1.12
82.16,1.39,0.30,1.38,0.29,-0.29,-0.25,0.15,1.10,1.10,1.09
82.98,1.37,0.29,1.37,0.30,-0.30,-0.26,0.11,1.07,1.07,1.08
83.81,1.36,0.31,1.36,0.31,-0.31,-0.26,0.07,1.05,1.05,1.05
84.65,1.34,0.32,1.34,0.31,-0.31,-0.26,0.03,1.03,1.03,1.02
85.50,1.32,0.31,1.32,0.31,-0.31,-0.26,-0.00,1.01,1.01,1.01
86.35,1.30,0.31,1.29,0.31,-0.30,-0.25,-0.04,0.99,0.99,0.99
87.22,1.26,0.29,1.27,0.30,-0.30,-0.25,-0.08,0.96,0.97,0.97
88.09,1.24,0.29,1.24,0.29,-0.29,-0.24,-0.12,0.95,0.95,0.95
88.97,1.21,0.28,1.21,0.28,-0.28,-0.24,-0.16,0.93,0.93,0.93
89.86,1.18,0.26,1.18,0.27,-0.27,-0.23,-0.20,0.91,0.91,0.92
90.76,1.15,0.26,1.15,0.26,-0.26,-0.23,-0.24,0.89,0.89,0.89
91.66,1.12,0.25,1.12,0.25,-0.25,-0.23,-0.28,0.87,0.87,0.87
92.58,1.10,0.25,1.10,0.25,-0.25,-0.23,-0.31,0.85,0.85,0.85
93.51,1.09,0.25,1.08,0.25,-0.25,-0.23,-0.35,0.84,0.83,0.84
94.44,1.07,0.25,1.07,0.25,-0.25,-0.23,-0.39,0.82,0.82,0.82
95.39,1.05,0.25,1.05,0.25,-0.26,-0.24,-0.43,0.79,0.79,0.80
96.34,1.03,0.26,1.03,0.26,-0.26,-0.24,-0.47,0.77,0.77,0.77
97.30,1.01,0.27,1.01,0.27,-0.27,-0.25,-0.51,0.74,0.74,0.74
98.28,0.99,0.28,0.99,0.28,-0.27,-0.26,-0.55,0.72,0.72,0.71
99.26,0.97,0.28,0.97,0.28,-0.28,-0.28,-0.59,0.69,0.69,0.69
100.25,0.95,0.29,0.95,0.29,-0.29,-0.29,-0.63,0.66,0.66,0.66
101.25,0.92,0.29,0.92,0.29,-0.29,-0.31,-0.67,0.63,0.63,0.63
102.27,0.89,0.30,0.89,0.30,-0.30,-0.33,-0.71,0.59,0.60,0.59
103.29,0.87,0.31,0.87,0.31,-0.30,-0.35,-0.75,0.56,0.56,0.56
104.32,0.85,0.32,0.84,0.32,-0.31,-0.38,-0.79,0.54,0.53,0.53
105.37,0.81,0.32,0.81,0.32,-0.32,-0.41,-0.82,0.49,0.49,0.49
106.42,0.78,0.34,0.78,0.33,-0.33,-0.44,-0.86,0.45,0.45,0.44
107.48,0.75,0.34,0.75,0.35,-0.35,-0.47,-0.90,0.40,0.40,0.41
108.56,0.73,0.38,0.73,0.38,-0.38,-0.51,-0.94,0.35,0.35,0.35
109.64,0.71,0.41,0.71,0.40,-0.42,-0.54,-0.97,0.29,0.29,0.30
110.74,0.69,0.44,0.69,0.45,-0.46,-0.58,-1.01,0.23,0.24,0.25
111.85,0.69,0.49,0.69,0.50,-0.51,-0.62,-1.05,0.18,0.18,0.20
112.97,0.70,0.57,0.70,0.56,-0.57,-0.67,-1.08,0.13,0.13,0.13
114.10,0.72,0.64,0.71,0.63,-0.63,-0.71,-1.11,0.09,0.08,0.08
115.24,0.72,0.70,0.72,0.70,-0.69,-0.76,-1.15,0.03,0.03,0.02
116.39,0.72,0.77,0.72,0.77,-0.76,-0.81,-1.18,-0.04,-0.04,-0.05
117.55,0.72,0.83,0.72,0.83,-0.82,-0.86,-1.21,-0.10,-0.10,-0.11
118.73,0.72,0.89,0.72,0.89,-0.88,-0.91,-1.24,-0.17,-0.17,-0.17
119.92,0.72,0.94,0.72,0.94,-0.94,-0.96,-1.26,-0.22,-0.22,-0.22
121.12,0.72,1.00,0.72,1.00,-1.00,-1.02,-1.29,-0.28,-0.28,-0.28
122.33,0.72,1.05,0.72,1.05,-1.05,-1.07,-1.31,-0.33,-0.33,-0.33
123.55,0.72,1.10,0.72,1.10,-1.10,-1.12,-1.34,-0.38,-0.38,-0.38
124.79,0.72,1.15,0.72,1.15,-1.15,-1.18,-1.36,-0.43,-0.43,-0.43
126.03,0.72,1.20,0.72,1.20,-1.20,-1.23,-1.38,-0.49,-0.49,-0.48
127.29,0.72,1.25,0.72,1.25,-1.25,-1.28,-1.40,-0.53,-0.53,-0.53
128.57,0.72,1.31,0.72,1.30,-1.30,-1.33,-1.42,-0.58,-0.58,-0.59
129.85,0.72,1.35,0.72,1.35,-1.35,-1.38,-1.44,-0.63,-0.63,-0.63
131.15,0.72,1.40,0.72,1.40,-1.39,-1.44,-1.45,-0.67,-0.67,-0.68
132.46,0.72,1.44,0.72,1.44,-1.44,-1.49,-1.47,-0.72,-0.72,-0.72
133.79,0.72,1.48,0.72,1.48,-1.48,-1.54,-1.48,-0.76,-0.76,-0.76
135.12,0.72,1.52,0.72,1.52,-1.52,-1.59,-1.50,-0.80,-0.80,-0.80
136.48,0.72,1.56,0.72,1.56,-1.56,-1.64,-1.51,-0.84,-0.84,-0.84
137.84,0.72,1.60,0.72,1.61,-1.60,-1.68,-1.52,-0.88,-0.88,-0.88
139.22,0.72,1.65,0.72,1.65,-1.64,-1.73,-1.53,-0.92,-0.92,-0.93
140.61,0.72,1.69,0.72,1.68,-1.68,-1.78,-1.54,-0.96,-0.96,-0.97
142.02,0.72,1.71,0.72,1.72,-1.72,-1.82,-1.55,-1.00,-1.00,-0.99
143.44,0.72,1.75,0.72,1.75,-1.75,-1.87,-1.56,-1.03,-1.03,-1.03
144.87,0.72,1.79,0.72,1.79,-1.79,-1.91,-1.57,-1.07,-1.07,-1.07
146.32,0.72,1.83,0.72,1.82,-1.83,-1.96,-1.58,-1.11,-1.11,-1.11
147.78,0.72,1.86,0.72,1.86,-1.86,-2.00,-1.59,-1.14,-1.14,-1.14
149.26,0.72,1.89,0.72,1.90,-1.90,-2.04,-1.61,-1.18,-1.18,-1.17
150.75,0.72,1.95,0.72,1.94,-1.94,-2.08,-1.62,-1.22,-1.22,-1.23
152.26,0.72,1.99,0.72,1.99,-1.98,-2.12,-1.63,-1.27,-1.27,-1.27
153.78,0.72,2.02,0.72,2.03,-2.03,-2.16,-1.64,-1.31,-1.31,-1.30
155.32,0.72,2.08,0.72,2.07,-2.07,-2.20,-1.66,-1.35,-1.35,-1.36
156.88,0.72,2.11,0.72,2.11,-2.12,-2.24,-1.67,-1.40,-1.40,-1.39
158.44,0.72,2.16,0.72,2.16,-2.16,-2.28,-1.69,-1.44,-1.44,-1.44
160.03,0.72,2.21,0.72,2.21,-2.21,-2.31,-1.71,-1.49,-1.49,-1.49
161.63,0.72,2.26,0.72,2.26,-2.25,-2.35,-1.73,-1.53,-1.53,-1.54
163.24,0.72,2.30,0.72,2.30,-2.30,-2.38,-1.74,-1.58,-1.58,-1.58
164.88,0.72,2.34,0.72,2.34,-2.34,-2.41,-1.77,-1.62,-1.62,-1.62
166.53,0.72,2.39,0.72,2.39,-2.39,-2.45,-1.79,-1.67,-1.67,-1.67
168.19,0.72,2.44,0.72,2.44,-2.44,-2.48,-1.81,-1.72,-1.72,-1.72
169.87,0.72,2.49,0.72,2.49,-2.49,-2.51,-1.84,-1.77,-1.77,-1.77
171.57,0.72,2.53,0.72,2.54,-2.54,-2.54,-1.86,-1.82,-1.82,-1.81
173.29,0.72,2.59,0.72,2.59,-2.59,-2.56,-1.89,-1.87,-1.87,-1.87
175.02,0.72,2.64,0.72,2.64,-2.64,-2.59,-1.92,-1.92,-1.92,-1.92
176.77,0.72,2.70,0.72,2.70,-2.70,-2.62,-1.95,-1.98,-1.98,-1.98
178.54,0.72,2.75,0.72,2.75,-2.76,-2.64,-1.99,-2.04,-2.04,-2.03
180.32,0.72,2.81,0.72,2.81,-2.82,-2.67,-2.02,-2.10,-2.09,-2.09
182.13,0.73,2.87,0.73,2.87,-2.88,-2.69,-2.06,-2.15,-2.15,-2.14
183.95,0.74,2.94,0.74,2.94,-2.93,-2.71,-2.09,-2.19,-2.20,-2.20
185.79,0.74,2.99,0.74,2.99,-2.99,-2.73,-2.13,-2.25,-2.25,-2.25
187.65,0.73,3.05,0.73,3.05,-3.04,-2.75,-2.17,-2.31,-2.31,-2.32
189.52,0.72,3.09,0.72,3.09,-3.09,-2.77,-2.21,-2.37,-2.37,-2.37
191.42,0.71,3.13,0.71,3.13,-3.13,-2.79,-2.26,-2.42,-2.42,-2.42
193.33,0.69,3.16,0.69,3.16,-3.16,-2.80,-2.30,-2.47,-2.47,-2.47
195.27,0.66,3.18,0.66,3.18,-3.19,-2.82,-2.35,-2.53,-2.52,-2.52
197.22,0.63,3.21,0.63,3.20,-3.20,-2.83,-2.39,-2.57,-2.58,-2.58
199.19,0.58,3.21,0.58,3.21,-3.21,-2.84,-2.44,-2.63,-2.62,-2.63
201.18,0.54,3.22,0.54,3.22,-3.21,-2.85,-2.49,-2.67,-2.67,-2.68
203.19,0.49,3.20,0.49,3.21,-3.20,-2.87,-2.54,-2.71,-2.71,-2.71
205.23,0.43,3.20,0.43,3.19,-3.18,-2.87,-2.59,-2.75,-2.76,-2.77
207.28,0.36,3.15,0.36,3.16,-3.16,-2.88,-2.63,-2.80,-2.81,-2.79
209.35,0.28,3.13,0.28,3.14,-3.14,-2.89,-2.68,-2.86,-2.85,-2.85
211.44,0.21,3.11,0.21,3.10,-3.11,-2.90,-2.73,-2.90,-2.90,-2.90
213.56,0.14,3.08,0.14,3.07,-3.08,-2.90,-2.78,-2.94,-2.94,-2.94
215.69,0.07,3.03,0.07,3.04,-3.05,-2.90,-2.83,-2.98,-2.98,-2.96
217.85,-0.00,3.00,0.01,3.01,-3.01,-2.90,-2.87,-3.01,-3.00,-3.00
220.03,-0.05,2.99,-0.05,2.98,-2.97,-2.91,-2.92,-3.03,-3.03,-3.04
222.23,-0.11,2.96,-0.12,2.95,-2.94,-2.91,-2.96,-3.05,-3.06,-3.07
224.45,-0.19,2.90,-0.19,2.91,-2.90,-2.91,-3.00,-3.09,-3.09,-3.09
226.70,-0.27,2.85,-0.27,2.85,-2.85,-2.90,-3.04,-3.12,-3.12,-3.12
228.96,-0.34,2.81,-0.33,2.81,-2.81,-2.90,-3.08,-3.15,-3.15,-3.15
231.25,-0.39,2.77,-0.39,2.77,-2.77,-2.90,-3.11,-3.16,-3.17,-3.16
233.57,-0.44,2.74,-0.45,2.73,-2.73,-2.89,-3.14,-3.17,-3.18,-3.18
235.90,-0.50,2.69,-0.49,2.70,-2.70,-2.88,-3.16,-3.20,-3.19,-3.19
238.26,-0.53,2.67,-0.53,2.67,-2.68,-2.88,-3.19,-3.21,-3.21,-3.20
240.64,-0.56,2.65,-0.56,2.65,-2.66,-2.87,-3.20,-3.22,-3.22,-3.21
243.05,-0.57,2.64,-0.57,2.65,-2.66,-2.86,-3.22,-3.23,-3.22,-3.21
245.48,-0.56,2.66,-0.56,2.65,-2.66,-2.85,-3.23,-3.22,-3.22,-3.22
247.93,-0.55,2.67,-0.55,2.67,-2.67,-2.84,-3.23,-3.22,-3.22,-3.22
250.41,-0.53,2.69,-0.53,2.69,-2.69,-2.83,-3.23,-3.22,-3.22,-3.22
252.92,-0.50,2.71,-0.50,2.71,-2.71,-2.81,-3.23,-3.21,-3.21,-3.21
255.45,-0.46,2.74,-0.46,2.74,-2.74,-2.80,-3.22,-3.20,-3.20,-3.20
258.00,-0.42,2.77,-0.42,2.77,-2.77,-2.79,-3.21,-3.19,-3.19,-3.19
260.58,-0.38,2.81,-0.38,2.81,-2.80,-2.77,-3.19,-3.18,-3.19,-3.19
263.19,-0.35,2.83,-0.35,2.83,-2.83,-2.75,-3.17,-3.18,-3.18,-3.18
265.82,-0.31,2.86,-0.31,2.85,-2.86,-2.74,-3.14,-3.17,-3.17,-3.17
268.48,-0.28,2.87,-0.28,2.87,-2.88,-2.72,-3.11,-3.16,-3.15,-3.15
271.16,-0.25,2.88,-0.25,2.89,-2.89,-2.70,-3.08,-3.14,-3.13,-3.13
273.87,-0.22,2.91,-0.22,2.90,-2.89,-2.68,-3.04,-3.11,-3.11,-3.13
276.61,-0.21,2.89,-0.21,2.89,-2.88,-2.66,-3.00,-3.09,-3.09,-3.10
279.38,-0.22,2.88,-0.22,2.88,-2.86,-2.64,-2.96,-3.08,-3.08,-3.10
282.17,-0.24,2.84,-0.24,2.84,-2.83,-2.62,-2.92,-3.08,-3.08,-3.08
284.99,-0.27,2.80,-0.27,2.80,-2.80,-2.60,-2.87,-3.07,-3.08,-3.07
287.84,-0.31,2.75,-0.31,2.75,-2.77,-2.58,-2.82,-3.08,-3.07,-3.06
290.72,-0.34,2.71,-0.34,2.71,-2.72,-2.56,-2.77,-3.06,-3.06,-3.05
293.63,-0.36,2.67,-0.36,2.67,-2.68,-2.54,-2.72,-3.04,-3.04,-3.03
296.57,-0.39,2.62,-0.39,2.63,-2.63,-2.51,-2.67,-3.02,-3.02,-3.01
299.53,-0.42,2.59,-0.42,2.59,-2.58,-2.49,-2.62,-3.00,-3.00,-3.01
302.53,-0.45,2.55,-0.46,2.54,-2.53,-2.47,-2.57,-2.98,-2.98,-3.00
305.55,-0.50,2.48,-0.50,2.49,-2.47,-2.44,-2.51,-2.97,-2.97,-2.98
308.61,-0.55,2.42,-0.55,2.42,-2.42,-2.42,-2.46,-2.97,-2.97,-2.97
311.69,-0.60,2.36,-0.60,2.36,-2.36,-2.39,-2.41,-2.96,-2.96,-2.96
314.81,-0.64,2.29,-0.64,2.30,-2.31,-2.37,-2.36,-2.95,-2.95,-2.93
317.96,-0.68,2.26,-0.69,2.25,-2.26,-2.35,-2.31,-2.94,-2.94,-2.94
321.14,-0.73,2.20,-0.73,2.20,-2.21,-2.32,-2.26,-2.94,-2.94,-2.93
324.35,-0.76,2.17,-0.76,2.17,-2.17,-2.30,-2.21,-2.93,-2.93,-2.93
327.59,-0.79,2.13,-0.79,2.13,-2.13,-2.27,-2.16,-2.92,-2.92,-2.92
330.87,-0.81,2.11,-0.81,2.11,-2.10,-2.24,-2.11,-2.91,-2.91,-2.92
334.18,-0.84,2.08,-0.84,2.07,-2.07,-2.22,-2.07,-2.91,-2.91,-2.92
337.52,-0.87,2.04,-0.87,2.05,-2.04,-2.19,-2.02,-2.91,-2.91,-2.91
340.90,-0.89,2.02,-0.89,2.02,-2.02,-2.17,-1.98,-2.91,-2.91,-2.91
344.30,-0.91,2.00,-0.91,2.00,-2.01,-2.14,-1.94,-2.92,-2.92,-2.91
347.75,-0.92,1.99,-0.92,1.99,-2.00,-2.12,-1.90,-2.92,-2.92,-2.91
351.23,-0.93,1.98,-0.92,1.99,-2.00,-2.09,-1.86,-2.93,-2.92,-2.91
354.74,-0.92,1.99,-0.92,2.00,-2.00,-2.06,-1.82,-2.92,-2.92,-2.91
358.28,-0.91,2.02,-0.91,2.01,-2.00,-2.04,-1.78,-2.91,-2.92,-2.93
361.87,-0.91,2.02,-0.91,2.02,-2.01,-2.01,-1.75,-2.92,-2.92,-2.93
365.49,-0.90,2.03,-0.90,2.03,-2.02,-1.99,-1.72,-2.92,-2.93,-2.93
369.14,-0.90,2.04,-0.90,2.04,-2.03,-1.96,-1.68,-2.93,-2.93,-2.94
372.83,-0.90,2.04,-0.90,2.04,-2.04,-1.94,-1.65,-2.94,-2.94,-2.94
376.56,-0.90,2.05,-0.90,2.05,-2.05,-1.91,-1.62,-2.95,-2.95,-2.95
380.33,-0.90,2.06,-0.90,2.06,-2.06,-1.88,-1.60,-2.96,-2.96,-2.96
384.13,-0.90,2.07,-0.90,2.07,-2.07,-1.86,-1.57,-2.97,-2.97,-2.97
387.97,-0.90,2.08,-0.90,2.08,-2.08,-1.83,-1.55,-2.98,-2.98,-2.98
391.85,-0.90,2.09,-0.90,2.09,-2.09,-1.81,-1.52,-2.99,-2.99,-2.99
395.77,-0.89,2.09,-0.89,2.10,-2.10,-1.79,-1.50,-2.99,-2.99,-2.98
399.73,-0.88,2.11,-0.88,2.11,-2.11,-1.76,-1.48,-2.99,-2.99,-2.99
403.72,-0.88,2.12,-0.88,2.12,-2.11,-1.74,-1.46,-2.99,-2.99,-3.00
407.76,-0.88,2.13,-0.88,2.12,-2.12,-1.71,-1.44,-3.00,-3.00,-3.01
411.84,-0.89,2.11,-0.89,2.12,-2.12,-1.69,-1.42,-3.01,-3.01,-3.00
415.96,-0.91,2.11,-0.91,2.10,-2.11,-1.67,-1.40,-3.02,-3.02,-3.02
420.12,-0.93,2.09,-0.93,2.09,-2.10,-1.64,-1.39,-3.03,-3.02,-3.02
424.32,-0.95,2.07,-0.95,2.08,-2.08,-1.62,-1.37,-3.03,-3.02,-3.02
428.56,-0.96,2.07,-0.97,2.06,-2.05,-1.60,-1.36,-3.01,-3.02,-3.03
432.85,-1.00,2.03,-1.00,2.03,-2.01,-1.57,-1.35,-3.02,-3.02,-3.03
437.18,-1.05,1.98,-1.05,1.98,-1.97,-1.55,-1.33,-3.02,-3.02,-3.03
441.55,-1.10,1.92,-1.10,1.93,-1.93,-1.53,-1.32,-3.03,-3.03,-3.02
445.96,-1.15,1.87,-1.15,1.87,-1.88,-1.51,-1.31,-3.03,-3.03,-3.02
450.42,-1.21,1.82,-1.21,1.82,-1.82,-1.49,-1.30,-3.03,-3.03,-3.03
454.93,-1.26,1.76,-1.26,1.76,-1.76,-1.47,-1.29,-3.02,-3.02,-3.02
459.48,-1.31,1.71,-1.31,1.70,-1.70,-1.45,-1.29,-3.01,-3.01,-3.02
464.07,-1.37,1.64,-1.37,1.64,-1.64,-1.43,-1.28,-3.01,-3.01,-3.01
468.71,-1.42,1.58,-1.43,1.58,-1.58,-1.41,-1.27,-3.00,-3.01,-3.00
473.40,-1.49,1.52,-1.48,1.52,-1.52,-1.39,-1.26,-3.01,-3.01,-3.01
478.13,-1.54,1.46,-1.54,1.47,-1.46,-1.37,-1.26,-3.01,-3.00,-3.00
482.91,-1.58,1.42,-1.59,1.41,-1.41,-1.35,-1.25,-2.99,-2.99,-3.00
487.74,-1.63,1.36,-1.63,1.36,-1.36,-1.33,-1.25,-2.99,-2.99,-2.99
492.62,-1.68,1.30,-1.68,1.31,-1.31,-1.31,-1.24,-2.99,-2.99,-2.98
497.55,-1.72,1.26,-1.72,1.25,-1.27,-1.29,-1.24,-2.99,-2.99,-2.98
502.52,-1.76,1.21,-1.76,1.22,-1.23,-1.28,-1.23,-2.99,-2.99,-2.97
507.55,-1.78,1.19,-1.78,1.19,-1.19,-1.26,-1.23,-2.97,-2.98,-2.97
