frequency,raw,error,smoothed,error_smoothed,equalization,parametric_eq,fixed_band_eq,equalized_raw,equalized_smoothed,target
20.00,-8.25,-16.15,-8.25,-16.17,16.17,15.70,6.24,7.92,7.92,7.90
20.20,-8.14,-16.08,-8.14,-16.09,16.09,15.71,6.38,7.95,7.95,7.94
20.40,-8.03,-16.01,-8.04,-16.01,16.01,15.72,6.54,7.98,7.98,7.98
20.61,-7.93,-15.94,-7.93,-15.93,15.93,15.71,6.69,8.00,8.01,8.00
20.81,-7.82,-15.87,-7.82,-15.85,15.85,15.70,6.86,8.03,8.03,8.04
21.02,-7.71,-15.80,-7.71,-15.77,15.77,15.69,7.02,8.06,8.06,8.08
21.23,-7.60,-15.70,-7.60,-15.68,15.68,15.67,7.19,8.08,8.08,8.10
21.44,-7.49,-15.61,-7.49,-15.60,15.60,15.64,7.37,8.11,8.10,8.12
21.66,-7.38,-15.52,-7.38,-15.51,15.51,15.60,7.55,8.13,8.13,8.14
21.87,-7.27,-15.42,-7.27,-15.42,15.42,15.56,7.73,8.15,8.14,8.15
22.09,-7.16,-15.33,-7.17,-15.33,15.33,15.52,7.92,8.17,8.16,8.17
22.31,-7.06,-15.24,-7.06,-15.24,15.24,15.47,8.12,8.18,8.18,8.18
22.54,-6.95,-15.14,-6.95,-15.14,15.14,15.41,8.32,8.19,8.19,8.19
22.76,-6.84,-15.04,-6.84,-15.04,15.04,15.35,8.52,8.20,8.20,8.20
22.99,-6.73,-14.93,-6.73,-14.94,14.94,15.28,8.73,8.21,8.21,8.20
23.22,-6.63,-14.84,-6.63,-14.84,14.84,15.21,8.95,8.21,8.22,8.21
23.45,-6.52,-14.74,-6.52,-14.74,14.74,15.14,9.17,8.22,8.23,8.22
23.69,-6.41,-14.64,-6.41,-14.65,14.65,15.06,9.40,8.23,8.23,8.23
23.92,-6.30,-14.54,-6.30,-14.55,14.55,14.98,9.64,8.25,8.24,8.24
24.16,-6.20,-14.46,-6.20,-14.45,14.45,14.89,9.88,8.25,8.25,8.25
24.40,-6.09,-14.36,-6.09,-14.35,14.35,14.81,10.13,8.26,8.26,8.27
24.65,-5.98,-14.26,-5.98,-14.25,14.25,14.72,10.38,8.27,8.27,8.27
24.89,-5.88,-14.16,-5.88,-14.16,14.16,14.62,10.64,8.28,8.28,8.28
25.14,-5.77,-14.06,-5.77,-14.06,14.06,14.53,10.91,8.29,8.29,8.29
25.39,-5.67,-13.97,-5.67,-13.97,13.97,14.43,11.18,8.30,8.30,8.30
25.65,-5.56,-13.88,-5.56,-13.88,13.88,14.33,11.46,8.31,8.31,8.32
25.91,-5.46,-13.78,-5.46,-13.78,13.78,14.23,11.74,8.32,8.32,8.32
26.16,-5.35,-13.68,-5.36,-13.69,13.69,14.13,12.03,8.34,8.33,8.33
26.43,-5.25,-13.59,-5.25,-13.59,13.59,14.03,12.32,8.34,8.34,8.33
26.69,-5.15,-13.50,-5.15,-13.50,13.50,13.93,12.62,8.35,8.35,8.34
26.96,-5.05,-13.41,-5.05,-13.41,13.41,13.82,12.92,8.35,8.36,8.36
27.23,-4.95,-13.32,-4.95,-13.31,13.31,13.72,13.22,8.36,8.36,8.37
27.50,-4.85,-13.23,-4.85,-13.22,13.22,13.61,13.52,8.37,8.37,8.38
27.77,-4.75,-13.13,-4.75,-13.13,13.13,13.51,13.82,8.38,8.38,8.38
28.05,-4.65,-13.05,-4.65,-13.04,13.04,13.40,14.12,8.39,8.39,8.40
28.33,-4.55,-12.95,-4.55,-12.95,12.95,13.30,14.41,8.40,8.40,8.39
28.62,-4.45,-12.86,-4.46,-12.86,12.86,13.19,14.69,8.41,8.41,8.40
28.90,-4.35,-12.76,-4.36,-12.77,12.77,13.09,14.96,8.42,8.41,8.41
29.19,-4.26,-12.67,-4.27,-12.69,12.69,12.98,15.21,8.43,8.42,8.41
29.48,-4.17,-12.61,-4.18,-12.60,12.60,12.88,15.44,8.43,8.43,8.44
29.78,-4.08,-12.52,-4.09,-12.52,12.52,12.78,15.65,8.44,8.43,8.44
30.08,-3.99,-12.44,-4.00,-12.44,12.44,12.67,15.83,8.44,8.44,8.44
30.38,-3.91,-12.35,-3.91,-12.36,12.36,12.57,15.97,8.44,8.45,8.44
30.68,-3.83,-12.29,-3.82,-12.28,12.28,12.47,16.09,8.45,8.45,8.46
30.99,-3.74,-12.20,-3.74,-12.20,12.20,12.37,16.16,8.46,8.46,8.46
31.30,-3.66,-12.13,-3.66,-12.13,12.13,12.27,16.20,8.46,8.47,8.46
31.61,-3.58,-12.05,-3.58,-12.05,12.05,12.17,16.19,8.47,8.47,8.47
31.93,-3.50,-11.98,-3.50,-11.98,11.98,12.08,16.15,8.48,8.48,8.48
32.24,-3.42,-11.90,-3.43,-11.91,11.91,11.98,16.07,8.49,8.49,8.48
32.57,-3.34,-11.84,-3.35,-11.84,11.84,11.89,15.96,8.50,8.49,8.49
32.89,-3.27,-11.77,-3.27,-11.77,11.77,11.79,15.82,8.50,8.50,8.50
33.22,-3.20,-11.71,-3.20,-11.71,11.71,11.70,15.65,8.51,8.51,8.51
33.55,-3.13,-11.65,-3.13,-11.64,11.64,11.61,15.46,8.51,8.51,8.52
33.89,-3.06,-11.58,-3.06,-11.58,11.58,11.52,15.25,8.51,8.52,8.52
34.23,-2.99,-11.52,-2.99,-11.51,11.51,11.43,15.02,8.52,8.52,8.53
34.57,-2.92,-11.46,-2.92,-11.45,11.45,11.34,14.79,8.53,8.53,8.53
34.92,-2.85,-11.38,-2.85,-11.39,11.39,11.26,14.55,8.54,8.53,8.53
35.27,-2.78,-11.32,-2.79,-11.33,11.33,11.17,14.30,8.54,8.54,8.54
35.62,-2.72,-11.27,-2.72,-11.26,11.26,11.09,14.05,8.54,8.54,8.54
35.97,-2.65,-11.19,-2.66,-11.20,11.20,11.00,13.80,8.55,8.54,8.54
36.33,-2.59,-11.14,-2.59,-11.14,11.14,10.92,13.55,8.55,8.54,8.55
36.70,-2.53,-11.07,-2.53,-11.08,11.08,10.85,13.31,8.54,8.54,8.54
37.06,-2.47,-11.02,-2.47,-11.01,11.01,10.77,13.07,8.54,8.54,8.55
37.43,-2.41,-10.96,-2.41,-10.95,10.95,10.69,12.84,8.54,8.54,8.55
37.81,-2.34,-10.89,-2.34,-10.88,10.88,10.62,12.61,8.54,8.54,8.55
38.19,-2.28,-10.82,-2.28,-10.82,10.82,10.54,12.38,8.54,8.54,8.54
38.57,-2.22,-10.76,-2.22,-10.75,10.75,10.47,12.17,8.53,8.53,8.54
38.95,-2.16,-10.69,-2.16,-10.69,10.69,10.40,11.96,8.53,8.53,8.53
39.34,-2.09,-10.62,-2.09,-10.62,10.62,10.33,11.75,8.53,8.53,8.52
39.74,-2.03,-10.55,-2.03,-10.56,10.56,10.26,11.56,8.52,8.53,8.52
40.14,-1.97,-10.49,-1.97,-10.49,10.49,10.20,11.37,8.52,8.52,8.52
40.54,-1.90,-10.42,-1.90,-10.42,10.42,10.13,11.19,8.52,8.52,8.52
40.94,-1.84,-10.35,-1.84,-10.35,10.35,10.07,11.02,8.51,8.51,8.51
41.35,-1.77,-10.27,-1.78,-10.29,10.29,10.01,10.86,8.51,8.51,8.50
41.76,-1.71,-10.22,-1.71,-10.22,10.22,9.95,10.70,8.51,8.50,8.51
42.18,-1.64,-10.15,-1.65,-10.15,10.15,9.89,10.55,8.51,8.50,8.51
42.60,-1.58,-10.08,-1.59,-10.08,10.08,9.83,10.41,8.50,8.50,8.50
43.03,-1.53,-10.03,-1.52,-10.01,10.01,9.78,10.27,8.48,8.49,8.50
43.46,-1.47,-9.96,-1.46,-9.95,9.95,9.72,10.14,8.48,8.49,8.49
43.90,-1.40,-9.88,-1.40,-9.88,9.88,9.67,10.02,8.48,8.48,8.47
44.33,-1.34,-9.82,-1.34,-9.82,9.82,9.62,9.91,8.48,8.48,8.48
44.78,-1.28,-9.75,-1.28,-9.76,9.76,9.57,9.80,8.47,8.47,8.47
45.23,-1.22,-9.68,-1.22,-9.69,9.69,9.52,9.70,8.47,8.47,8.46
45.68,-1.16,-9.62,-1.17,-9.63,9.63,9.47,9.61,8.47,8.46,8.46
46.13,-1.10,-9.55,-1.11,-9.56,9.56,9.42,9.52,8.46,8.46,8.45
46.60,-1.05,-9.51,-1.05,-9.50,9.50,9.38,9.44,8.45,8.45,8.45
47.06,-0.99,-9.44,-0.99,-9.43,9.43,9.33,9.36,8.44,8.44,8.44
47.53,-0.94,-9.37,-0.94,-9.37,9.37,9.29,9.29,8.43,8.43,8.43
48.01,-0.89,-9.33,-0.88,-9.30,9.30,9.25,9.23,8.41,8.42,8.44
48.49,-0.83,-9.25,-0.83,-9.24,9.24,9.21,9.17,8.41,8.41,8.42
48.97,-0.77,-9.17,-0.78,-9.17,9.17,9.17,9.11,8.40,8.40,8.39
49.46,-0.72,-9.10,-0.72,-9.11,9.11,9.13,9.06,8.38,8.38,8.38
49.96,-0.67,-9.03,-0.67,-9.04,9.04,9.09,9.02,8.37,8.37,8.36
50.46,-0.62,-8.97,-0.62,-8.97,8.97,9.05,8.98,8.35,8.35,8.35
50.96,-0.56,-8.90,-0.57,-8.90,8.90,9.01,8.94,8.34,8.33,8.34
51.47,-0.52,-8.82,-0.52,-8.83,8.83,8.98,8.91,8.31,8.31,8.30
51.99,-0.47,-8.76,-0.47,-8.76,8.76,8.94,8.88,8.29,8.29,8.29
52.51,-0.42,-8.70,-0.42,-8.69,8.69,8.91,8.85,8.27,8.27,8.28
53.03,-0.38,-8.63,-0.37,-8.62,8.62,8.87,8.83,8.24,8.25,8.25
53.56,-0.33,-8.57,-0.32,-8.55,8.55,8.84,8.80,8.22,8.23,8.24
54.10,-0.28,-8.49,-0.28,-8.48,8.48,8.81,8.78,8.20,8.21,8.21
54.64,-0.23,-8.42,-0.24,-8.42,8.42,8.77,8.76,8.19,8.19,8.19
55.18,-0.19,-8.35,-0.20,-8.36,8.36,8.74,8.74,8.17,8.16,8.16
55.74,-0.15,-8.28,-0.16,-8.30,8.30,8.71,8.72,8.15,8.14,8.13
56.29,-0.12,-8.24,-0.13,-8.24,8.24,8.67,8.70,8.12,8.12,8.12
56.86,-0.09,-8.18,-0.10,-8.19,8.19,8.64,8.67,8.10,8.09,8.09
57.42,-0.07,-8.13,-0.08,-8.14,8.14,8.61,8.65,8.07,8.06,8.05
58.00,-0.05,-8.08,-0.06,-8.10,8.10,8.57,8.62,8.04,8.04,8.03
58.58,-0.04,-8.05,-0.05,-8.05,8.05,8.54,8.59,8.01,8.01,8.01
59.16,-0.04,-8.02,-0.04,-8.01,8.01,8.50,8.55,7.97,7.98,7.98
59.76,-0.03,-7.99,-0.03,-7.98,7.98,8.47,8.51,7.94,7.94,7.96
60.35,-0.03,-7.95,-0.04,-7.94,7.94,8.43,8.47,7.91,7.91,7.92
60.96,-0.03,-7.92,-0.04,-7.92,7.92,8.40,8.42,7.88,7.87,7.89
61.57,-0.05,-7.89,-0.05,-7.89,7.89,8.36,8.37,7.84,7.84,7.84
62.18,-0.07,-7.86,-0.07,-7.86,7.86,8.32,8.31,7.79,7.80,7.79
62.80,-0.08,-7.84,-0.08,-7.84,7.84,8.28,8.25,7.76,7.76,7.76
63.43,-0.10,-7.81,-0.10,-7.82,7.82,8.24,8.18,7.72,7.72,7.71
64.07,-0.12,-7.79,-0.13,-7.80,7.80,8.20,8.11,7.68,7.68,7.67
64.71,-0.14,-7.77,-0.15,-7.78,7.78,8.15,8.03,7.64,7.63,7.63
65.35,-0.17,-7.76,-0.18,-7.77,7.77,8.11,7.94,7.60,7.59,7.58
66.01,-0.20,-7.74,-0.21,-7.75,7.75,8.06,7.85,7.55,7.54,7.54
66.67,-0.23,-7.74,-0.23,-7.73,7.73,8.01,7.76,7.50,7.50,7.51
67.33,-0.25,-7.71,-0.26,-7.71,7.71,7.96,7.66,7.46,7.45,7.46
68.01,-0.28,-7.70,-0.28,-7.69,7.69,7.91,7.56,7.41,7.41,7.41
68.69,-0.31,-7.68,-0.30,-7.67,7.67,7.86,7.45,7.36,7.36,7.37
69.37,-0.33,-7.65,-0.32,-7.64,7.64,7.80,7.35,7.31,7.32,7.32
70.07,-0.34,-7.61,-0.33,-7.61,7.61,7.75,7.24,7.26,7.27,7.27
70.77,-0.35,-7.58,-0.34,-7.57,7.57,7.69,7.13,7.21,7.23,7.23
71.48,-0.35,-7.54,-0.34,-7.52,7.52,7.63,7.01,7.17,7.18,7.19
72.19,-0.35,-7.49,-0.33,-7.47,7.47,7.57,6.90,7.12,7.14,7.14
72.91,-0.33,-7.42,-0.32,-7.41,7.41,7.50,6.79,7.08,7.10,7.09
73.64,-0.31,-7.36,-0.30,-7.35,7.35,7.44,6.67,7.04,7.05,7.05
74.38,-0.28,-7.29,-0.28,-7.29,7.29,7.37,6.56,7.01,7.01,7.01
75.12,-0.24,-7.21,-0.25,-7.22,7.22,7.30,6.45,6.98,6.97,6.97
75.87,-0.21,-7.14,-0.22,-7.15,7.15,7.23,6.34,6.94,6.93,6.93
76.63,-0.17,-7.06,-0.18,-7.07,7.07,7.16,6.23,6.90,6.89,6.89
77.40,-0.13,-6.98,-0.14,-6.99,6.99,7.09,6.12,6.86,6.85,6.85
78.17,-0.08,-6.89,-0.09,-6.91,6.91,7.02,6.01,6.83,6.82,6.81
78.95,-0.04,-6.82,-0.04,-6.82,6.82,6.94,5.91,6.78,6.78,6.78
79.74,-0.00,-6.75,0.01,-6.74,6.74,6.86,5.81,6.74,6.75,6.75
80.54,0.05,-6.67,0.06,-6.65,6.65,6.79,5.71,6.70,6.71,6.72
81.35,0.10,-6.59,0.11,-6.57,6.57,6.71,5.62,6.67,6.68,6.68
82.16,0.16,-6.49,0.16,-6.49,6.49,6.63,5.52,6.65,6.65,6.65
82.98,0.21,-6.41,0.21,-6.41,6.41,6.55,5.44,6.61,6.62,6.62
83.81,0.27,-6.32,0.26,-6.33,6.33,6.47,5.35,6.60,6.59,6.59
84.65,0.33,-6.22,0.31,-6.25,6.25,6.38,5.27,6.58,6.56,6.55
85.50,0.37,-6.16,0.35,-6.18,6.18,6.30,5.19,6.55,6.53,6.53
86.35,0.42,-6.08,0.39,-6.11,6.11,6.22,5.11,6.53,6.50,6.50
87.22,0.46,-6.01,0.43,-6.04,6.04,6.13,5.04,6.50,6.47,6.47
88.09,0.48,-5.96,0.47,-5.98,5.98,6.05,4.97,6.45,6.45,6.44
88.97,0.51,-5.91,0.51,-5.91,5.91,5.97,4.91,6.42,6.42,6.42
89.86,0.54,-5.86,0.54,-5.85,5.85,5.88,4.84,6.39,6.39,6.40
90.76,0.56,-5.80,0.58,-5.79,5.79,5.80,4.79,6.34,6.36,6.36
91.66,0.59,-5.75,0.61,-5.73,5.73,5.71,4.73,6.31,6.34,6.33
92.58,0.62,-5.68,0.64,-5.66,5.66,5.63,4.68,6.28,6.31,6.30
93.51,0.66,-5.63,0.67,-5.60,5.60,5.54,4.63,6.26,6.28,6.29
94.44,0.70,-5.55,0.70,-5.54,5.54,5.46,4.58,6.24,6.25,6.25
95.39,0.74,-5.49,0.74,-5.48,5.48,5.38,4.54,6.22,6.21,6.23
96.34,0.78,-5.40,0.77,-5.41,5.41,5.29,4.50,6.19,6.18,6.18
97.30,0.81,-5.34,0.80,-5.34,5.34,5.21,4.46,6.15,6.15,6.14
98.28,0.84,-5.27,0.84,-5.28,5.28,5.13,4.43,6.11,6.11,6.11
99.26,0.87,-5.20,0.87,-5.21,5.21,5.04,4.39,6.08,6.07,6.07
100.25,0.89,-5.14,0.89,-5.14,5.14,4.96,4.36,6.03,6.03,6.03
101.25,0.92,-5.08,0.92,-5.08,5.08,4.88,4.34,6.00,5.99,6.00
102.27,0.94,-5.01,0.93,-5.02,5.02,4.80,4.31,5.95,5.95,5.95
103.29,0.96,-4.94,0.95,-4.96,4.96,4.72,4.29,5.91,5.91,5.90
104.32,0.98,-4.88,0.96,-4.90,4.90,4.64,4.26,5.87,5.86,5.86
105.37,1.00,-4.82,0.97,-4.84,4.84,4.56,4.24,5.84,5.81,5.81
106.42,1.01,-4.75,0.98,-4.78,4.78,4.49,4.22,5.79,5.75,5.76
107.48,1.01,-4.70,0.98,-4.72,4.72,4.41,4.20,5.72,5.70,5.71
108.56,0.99,-4.65,0.99,-4.65,4.65,4.33,4.18,5.64,5.64,5.64
109.64,0.98,-4.61,1.00,-4.58,4.58,4.26,4.16,5.56,5.58,5.58
110.74,0.98,-4.55,1.01,-4.51,4.51,4.18,4.14,5.49,5.52,5.53
111.85,0.99,-4.47,1.02,-4.43,4.43,4.11,4.12,5.42,5.45,5.46
112.97,1.01,-4.37,1.04,-4.35,4.35,4.04,4.10,5.36,5.39,5.38
114.10,1.04,-4.29,1.05,-4.27,4.27,3.96,4.08,5.30,5.32,5.33
115.24,1.06,-4.19,1.07,-4.18,4.18,3.89,4.06,5.24,5.25,5.25
116.39,1.09,-4.09,1.10,-4.08,4.08,3.82,4.04,5.17,5.18,5.17
117.55,1.12,-3.99,1.13,-3.99,3.99,3.75,4.01,5.11,5.11,5.11
118.73,1.15,-3.89,1.16,-3.89,3.89,3.68,3.99,5.04,5.05,5.03
119.92,1.20,-3.78,1.19,-3.79,3.79,3.61,3.96,4.99,4.98,4.98
121.12,1.23,-3.68,1.22,-3.70,3.70,3.55,3.92,4.92,4.91,4.91
122.33,1.25,-3.59,1.24,-3.60,3.60,3.48,3.89,4.85,4.85,4.84
123.55,1.28,-3.51,1.27,-3.52,3.52,3.41,3.85,4.79,4.78,4.79
124.79,1.31,-3.42,1.29,-3.43,3.43,3.35,3.81,4.74,4.72,4.73
126.03,1.33,-3.34,1.30,-3.36,3.36,3.29,3.77,4.69,4.66,4.67
127.29,1.34,-3.27,1.31,-3.29,3.29,3.22,3.72,4.63,4.60,4.61
128.57,1.34,-3.20,1.32,-3.22,3.22,3.16,3.68,4.56,4.55,4.54
129.85,1.33,-3.16,1.32,-3.17,3.17,3.10,3.62,4.49,4.49,4.49
131.15,1.33,-3.10,1.32,-3.11,3.11,3.04,3.57,4.44,4.43,4.43
132.46,1.32,-3.06,1.32,-3.06,3.06,2.97,3.51,4.38,4.38,4.38
133.79,1.32,-3.02,1.32,-3.01,3.01,2.91,3.45,4.33,4.33,4.33
135.12,1.31,-2.97,1.31,-2.97,2.97,2.86,3.39,4.28,4.28,4.28
136.48,1.31,-2.92,1.31,-2.92,2.92,2.80,3.33,4.23,4.23,4.23
137.84,1.30,-2.88,1.31,-2.87,2.87,2.74,3.26,4.17,4.18,4.18
139.22,1.29,-2.84,1.31,-2.83,2.83,2.68,3.20,4.11,4.13,4.13
140.61,1.30,-2.78,1.31,-2.77,2.77,2.62,3.13,4.07,4.09,4.07
142.02,1.31,-2.73,1.32,-2.72,2.72,2.57,3.06,4.03,4.04,4.04
143.44,1.32,-2.68,1.34,-2.66,2.66,2.51,2.98,3.98,4.00,4.00
144.87,1.35,-2.60,1.36,-2.59,2.59,2.45,2.91,3.94,3.95,3.95
146.32,1.37,-2.54,1.38,-2.52,2.52,2.40,2.84,3.89,3.90,3.90
147.78,1.40,-2.47,1.41,-2.45,2.45,2.34,2.77,3.85,3.86,3.87
149.26,1.43,-2.39,1.44,-2.37,2.37,2.29,2.69,3.80,3.81,3.82
150.75,1.46,-2.30,1.47,-2.29,2.29,2.23,2.62,3.75,3.76,3.76
152.26,1.50,-2.21,1.50,-2.21,2.21,2.18,2.54,3.71,3.71,3.71
153.78,1.53,-2.14,1.53,-2.14,2.14,2.12,2.47,3.66,3.66,3.67
155.32,1.56,-2.05,1.55,-2.06,2.06,2.07,2.40,3.62,3.61,3.61
156.88,1.60,-1.97,1.58,-1.98,1.98,2.01,2.32,3.58,3.56,3.56
158.44,1.62,-1.89,1.60,-1.91,1.91,1.96,2.25,3.53,3.51,3.51
160.03,1.65,-1.81,1.62,-1.84,1.84,1.90,2.18,3.49,3.46,3.45
161.63,1.66,-1.74,1.63,-1.77,1.77,1.85,2.11,3.43,3.41,3.40
163.24,1.66,-1.69,1.64,-1.71,1.71,1.79,2.03,3.37,3.35,3.35
164.88,1.66,-1.64,1.65,-1.65,1.65,1.74,1.96,3.31,3.30,3.30
166.53,1.65,-1.60,1.65,-1.59,1.59,1.68,1.90,3.24,3.24,3.25
168.19,1.64,-1.55,1.65,-1.54,1.54,1.63,1.83,3.17,3.19,3.19
169.87,1.64,-1.50,1.65,-1.48,1.48,1.57,1.76,3.12,3.13,3.14
171.57,1.64,-1.45,1.65,-1.43,1.43,1.51,1.69,3.06,3.08,3.08
173.29,1.64,-1.38,1.65,-1.37,1.37,1.46,1.63,3.01,3.02,3.02
175.02,1.64,-1.33,1.64,-1.32,1.32,1.40,1.56,2.95,2.96,2.97
176.77,1.64,-1.26,1.64,-1.26,1.26,1.34,1.50,2.90,2.90,2.90
178.54,1.64,-1.20,1.64,-1.20,1.20,1.28,1.44,2.84,2.84,2.84
180.32,1.64,-1.14,1.64,-1.14,1.14,1.22,1.37,2.78,2.78,2.78
182.13,1.64,-1.09,1.64,-1.08,1.08,1.17,1.31,2.72,2.72,2.72
183.95,1.64,-1.02,1.64,-1.02,1.02,1.11,1.25,2.66,2.66,2.66
185.79,1.64,-0.96,1.64,-0.96,0.96,1.05,1.19,2.60,2.60,2.60
187.65,1.64,-0.89,1.64,-0.90,0.90,0.99,1.14,2.54,2.54,2.53
189.52,1.64,-0.83,1.64,-0.84,0.84,0.92,1.08,2.48,2.48,2.47
191.42,1.64,-0.78,1.64,-0.78,0.78,0.86,1.02,2.42,2.42,2.42
193.33,1.64,-0.73,1.64,-0.72,0.72,0.80,0.97,2.36,2.36,2.36
195.27,1.64,-0.67,1.64,-0.67,0.67,0.74,0.91,2.31,2.31,2.31
197.22,1.64,-0.61,1.64,-0.61,0.61,0.68,0.86,2.25,2.25,2.25
199.19,1.64,-0.55,1.64,-0.56,0.56,0.62,0.81,2.20,2.20,2.19
201.18,1.64,-0.50,1.64,-0.51,0.51,0.56,0.76,2.14,2.14,2.14
203.19,1.64,-0.46,1.64,-0.46,0.46,0.50,0.71,2.09,2.09,2.10
205.23,1.64,-0.40,1.64,-0.41,0.41,0.44,0.66,2.04,2.04,2.04
207.28,1.64,-0.37,1.64,-0.36,0.36,0.38,0.61,2.00,2.00,2.01
209.35,1.64,-0.32,1.64,-0.31,0.31,0.32,0.56,1.95,1.95,1.95
211.44,1.64,-0.26,1.64,-0.27,0.27,0.27,0.52,1.91,1.91,1.90
213.56,1.64,-0.22,1.64,-0.23,0.23,0.22,0.47,1.86,1.86,1.86
215.69,1.64,-0.20,1.64,-0.19,0.19,0.17,0.43,1.82,1.82,1.83
217.85,1.64,-0.15,1.64,-0.15,0.15,0.12,0.39,1.79,1.79,1.79
220.03,1.64,-0.11,1.64,-0.11,0.11,0.08,0.35,1.75,1.75,1.74
222.23,1.64,-0.07,1.64,-0.08,0.08,0.04,0.31,1.72,1.72,1.71
224.45,1.64,-0.05,1.64,-0.05,0.05,0.00,0.28,1.69,1.69,1.68
226.70,1.64,-0.02,1.64,-0.02,0.02,-0.03,0.24,1.66,1.66,1.66
228.96,1.64,0.01,1.64,0.01,-0.01,-0.06,0.21,1.63,1.63,1.63
231.25,1.64,0.02,1.64,0.03,-0.03,-0.08,0.18,1.61,1.61,1.62
233.57,1.64,0.04,1.65,0.05,-0.05,-0.09,0.15,1.59,1.59,1.59
235.90,1.64,0.07,1.65,0.07,-0.07,-0.11,0.13,1.57,1.58,1.57
238.26,1.64,0.08,1.65,0.09,-0.09,-0.11,0.10,1.55,1.56,1.56
240.64,1.64,0.09,1.66,0.10,-0.10,-0.12,0.08,1.54,1.55,1.55
243.05,1.65,0.10,1.66,0.11,-0.11,-0.12,0.06,1.54,1.55,1.55
245.48,1.66,0.12,1.65,0.11,-0.11,-0.11,0.05,1.55,1.54,1.54
247.93,1.67,0.13,1.65,0.11,-0.11,-0.10,0.03,1.56,1.54,1.54
250.41,1.66,0.13,1.64,0.10,-0.10,-0.09,0.02,1.56,1.54,1.53
252.92,1.65,0.11,1.63,0.09,-0.09,-0.07,0.01,1.56,1.54,1.54
255.45,1.63,0.08,1.61,0.07,-0.07,-0.05,0.01,1.56,1.54,1.55
258.00,1.62,0.07,1.59,0.04,-0.04,-0.03,0.00,1.57,1.55,1.55
260.58,1.59,0.03,1.57,0.01,-0.01,-0.01,-0.00,1.58,1.56,1.56
263.19,1.56,-0.01,1.55,-0.02,0.02,0.02,-0.00,1.58,1.57,1.57
265.82,1.51,-0.06,1.52,-0.06,0.06,0.05,0.00,1.57,1.58,1.57
268.48,1.49,-0.10,1.49,-0.10,0.10,0.07,0.01,1.59,1.59,1.59
271.16,1.46,-0.15,1.45,-0.15,0.15,0.10,0.01,1.60,1.60,1.61
273.87,1.41,-0.20,1.42,-0.19,0.19,0.13,0.02,1.60,1.61,1.61
276.61,1.38,-0.25,1.40,-0.23,0.23,0.16,0.03,1.61,1.62,1.63
279.38,1.36,-0.28,1.37,-0.26,0.26,0.19,0.04,1.62,1.64,1.64
282.17,1.34,-0.31,1.35,-0.30,0.30,0.22,0.06,1.63,1.65,1.65
284.99,1.32,-0.35,1.33,-0.33,0.33,0.25,0.07,1.64,1.66,1.66
287.84,1.30,-0.37,1.32,-0.35,0.35,0.28,0.09,1.65,1.67,1.67
290.72,1.29,-0.39,1.31,-0.38,0.38,0.31,0.11,1.66,1.69,1.68
293.63,1.30,-0.40,1.31,-0.39,0.39,0.33,0.13,1.69,1.70,1.70
296.57,1.31,-0.40,1.30,-0.41,0.41,0.36,0.15,1.72,1.71,1.71
299.53,1.31,-0.41,1.30,-0.42,0.42,0.38,0.17,1.73,1.72,1.72
302.53,1.32,-0.40,1.30,-0.43,0.43,0.41,0.19,1.75,1.73,1.72
305.55,1.32,-0.43,1.30,-0.44,0.44,0.43,0.21,1.76,1.74,1.75
308.61,1.32,-0.44,1.31,-0.45,0.45,0.46,0.24,1.76,1.75,1.75
311.69,1.32,-0.44,1.31,-0.45,0.45,0.48,0.26,1.77,1.76,1.76
314.81,1.32,-0.47,1.32,-0.45,0.45,0.50,0.29,1.77,1.77,1.79
317.96,1.32,-0.46,1.32,-0.46,0.46,0.52,0.31,1.77,1.78,1.78
321.14,1.32,-0.47,1.33,-0.46,0.46,0.54,0.34,1.78,1.79,1.79
324.35,1.32,-0.47,1.33,-0.46,0.46,0.56,0.37,1.78,1.79,1.79
327.59,1.32,-0.48,1.33,-0.46,0.46,0.58,0.40,1.78,1.80,1.80
330.87,1.32,-0.48,1.33,-0.47,0.47,0.59,0.43,1.79,1.80,1.80
334.18,1.33,-0.47,1.33,-0.47,0.47,0.61,0.45,1.80,1.80,1.80
337.52,1.34,-0.46,1.33,-0.48,0.48,0.63,0.48,1.81,1.80,1.80
340.90,1.34,-0.47,1.32,-0.48,0.48,0.64,0.51,1.82,1.80,1.81
344.30,1.33,-0.48,1.31,-0.49,0.49,0.65,0.54,1.82,1.80,1.81
347.75,1.32,-0.49,1.30,-0.50,0.50,0.67,0.57,1.82,1.80,1.80
351.23,1.31,-0.49,1.28,-0.52,0.52,0.68,0.60,1.82,1.80,1.80
354.74,1.28,-0.52,1.26,-0.53,0.53,0.69,0.64,1.81,1.79,1.80
358.28,1.25,-0.54,1.24,-0.55,0.55,0.71,0.67,1.80,1.79,1.79
361.87,1.22,-0.57,1.21,-0.57,0.57,0.72,0.70,1.79,1.79,1.78
365.49,1.19,-0.59,1.19,-0.59,0.59,0.73,0.73,1.78,1.78,1.78
369.14,1.16,-0.61,1.16,-0.62,0.62,0.74,0.76,1.77,1.77,1.77
372.83,1.12,-0.65,1.13,-0.64,0.64,0.75,0.80,1.75,1.77,1.77
376.56,1.08,-0.68,1.10,-0.65,0.65,0.76,0.83,1.73,1.76,1.76
380.33,1.06,-0.70,1.08,-0.67,0.67,0.77,0.87,1.73,1.75,1.75
384.13,1.03,-0.71,1.06,-0.69,0.69,0.78,0.90,1.71,1.74,1.74
387.97,1.02,-0.71,1.03,-0.70,0.70,0.79,0.93,1.72,1.73,1.73
391.85,1.00,-0.72,1.01,-0.71,0.71,0.80,0.97,1.71,1.73,1.72
395.77,0.99,-0.74,1.00,-0.72,0.72,0.81,1.00,1.71,1.72,1.73
399.73,0.98,-0.74,0.98,-0.73,0.73,0.82,1.04,1.71,1.71,1.72
403.72,0.98,-0.73,0.97,-0.74,0.74,0.83,1.07,1.72,1.71,1.70
407.76,0.97,-0.72,0.95,-0.75,0.75,0.84,1.11,1.72,1.70,1.69
411.84,0.96,-0.74,0.93,-0.76,0.76,0.84,1.14,1.72,1.70,1.70
415.96,0.93,-0.76,0.92,-0.77,0.77,0.85,1.18,1.70,1.69,1.69
420.12,0.90,-0.79,0.90,-0.79,0.79,0.86,1.21,1.69,1.69,1.69
424.32,0.87,-0.82,0.87,-0.81,0.81,0.87,1.24,1.68,1.68,1.69
428.56,0.85,-0.83,0.84,-0.84,0.84,0.88,1.28,1.69,1.68,1.68
432.85,0.83,-0.85,0.81,-0.87,0.87,0.89,1.31,1.70,1.68,1.67
437.18,0.79,-0.89,0.78,-0.90,0.90,0.90,1.34,1.69,1.68,1.67
441.55,0.75,-0.93,0.74,-0.94,0.94,0.90,1.37,1.68,1.68,1.68
445.96,0.71,-0.97,0.70,-0.98,0.98,0.91,1.41,1.68,1.68,1.68
450.42,0.66,-1.01,0.66,-1.02,1.02,0.92,1.43,1.67,1.68,1.67
454.93,0.62,-1.06,0.62,-1.06,1.06,0.93,1.46,1.68,1.68,1.68
459.48,0.58,-1.10,0.59,-1.10,1.10,0.94,1.49,1.68,1.68,1.68
464.07,0.54,-1.15,0.55,-1.14,1.14,0.95,1.52,1.68,1.69,1.69
468.71,0.51,-1.19,0.51,-1.18,1.18,0.96,1.54,1.69,1.69,1.70
473.40,0.47,-1.23,0.47,-1.22,1.22,0.98,1.56,1.69,1.70,1.70
478.13,0.45,-1.26,0.44,-1.26,1.26,0.99,1.58,1.71,1.70,1.71
482.91,0.42,-1.29,0.42,-1.29,1.29,1.00,1.60,1.71,1.71,1.70
487.74,0.40,-1.32,0.39,-1.32,1.32,1.01,1.62,1.72,1.71,1.71
492.62,0.37,-1.35,0.38,-1.34,1.34,1.02,1.63,1.71,1.72,1.72
497.55,0.35,-1.37,0.37,-1.36,1.36,1.04,1.64,1.71,1.72,1.72
502.52,0.33,-1.40,0.36,-1.37,1.37,1.05,1.66,1.70,1.73,1.73
507.55,0.32,-1.41,0.35,-1.38,1.38,1.07,1.66,1.70,1.73,1.73
512.62,0.32,-1.41,0.35,-1.39,1.39,1.09,1.67,1.70,1.73,1.73
517.75,0.34,-1.40,0.35,-1.39,1.39,1.10,1.68,1.73,1.74,1.74
