frequency,raw,error,smoothed,error_smoothed,equalization,parametric_eq,fixed_band_eq,equalized_raw,equalized_smoothed,target
20.00,16.30,6.41,16.30,6.41,-6.41,-6.42,-2.69,9.89,9.89,9.89
20.20,16.28,6.40,16.28,6.40,-6.40,-6.41,-2.77,9.88,9.88,9.88
20.40,16.27,6.40,16.27,6.40,-6.40,-6.40,-2.85,9.87,9.86,9.87
20.61,16.25,6.39,16.25,6.40,-6.40,-6.39,-2.93,9.85,9.85,9.86
20.81,16.23,6.39,16.23,6.39,-6.39,-6.37,-3.01,9.84,9.84,9.84
21.02,16.22,6.39,16.22,6.39,-6.39,-6.36,-3.09,9.83,9.83,9.83
21.23,16.20,6.38,16.20,6.38,-6.38,-6.35,-3.18,9.82,9.82,9.82
21.44,16.18,6.35,16.18,6.37,-6.37,-6.33,-3.27,9.81,9.81,9.83
21.66,16.17,6.36,16.17,6.36,-6.36,-6.32,-3.36,9.81,9.80,9.81
21.87,16.15,6.34,16.15,6.36,-6.36,-6.31,-3.46,9.79,9.79,9.81
22.09,16.13,6.34,16.13,6.35,-6.35,-6.29,-3.55,9.78,9.79,9.79
22.31,16.11,6.33,16.11,6.33,-6.33,-6.28,-3.65,9.78,9.78,9.78
22.54,16.10,6.33,16.10,6.32,-6.32,-6.26,-3.75,9.78,9.77,9.77
22.76,16.08,6.31,16.08,6.31,-6.31,-6.25,-3.86,9.77,9.77,9.77
22.99,16.06,6.30,16.06,6.30,-6.30,-6.23,-3.97,9.76,9.76,9.76
23.22,16.04,6.29,16.04,6.28,-6.28,-6.22,-4.08,9.76,9.76,9.75
23.45,16.02,6.26,16.02,6.27,-6.27,-6.20,-4.19,9.75,9.75,9.76
23.69,16.00,6.25,16.00,6.26,-6.26,-6.19,-4.30,9.74,9.75,9.75
23.92,15.99,6.25,15.98,6.24,-6.24,-6.17,-4.42,9.75,9.74,9.74
24.16,15.97,6.22,15.96,6.22,-6.22,-6.15,-4.54,9.75,9.74,9.75
24.40,15.94,6.19,15.94,6.21,-6.21,-6.14,-4.66,9.73,9.74,9.75
24.65,15.92,6.18,15.92,6.19,-6.19,-6.12,-4.78,9.73,9.74,9.74
24.89,15.90,6.16,15.90,6.17,-6.17,-6.10,-4.91,9.73,9.73,9.74
25.14,15.88,6.15,15.88,6.15,-6.15,-6.08,-5.03,9.73,9.73,9.73
25.39,15.86,6.13,15.86,6.13,-6.13,-6.07,-5.16,9.73,9.73,9.73
25.65,15.84,6.11,15.84,6.11,-6.11,-6.05,-5.29,9.73,9.73,9.73
25.91,15.82,6.09,15.81,6.09,-6.09,-6.03,-5.41,9.73,9.73,9.73
26.16,15.79,6.05,15.79,6.07,-6.07,-6.01,-5.54,9.72,9.73,9.74
26.43,15.77,6.04,15.77,6.04,-6.04,-5.99,-5.67,9.73,9.73,9.73
26.69,15.75,6.02,15.75,6.02,-6.02,-5.97,-5.79,9.73,9.73,9.73
26.96,15.72,5.99,15.72,5.99,-5.99,-5.95,-5.92,9.73,9.73,9.73
27.23,15.70,5.97,15.70,5.97,-5.97,-5.94,-6.04,9.73,9.73,9.73
27.50,15.67,5.94,15.68,5.94,-5.94,-5.92,-6.16,9.73,9.73,9.73
27.77,15.65,5.91,15.65,5.92,-5.92,-5.90,-6.27,9.73,9.73,9.74
28.05,15.63,5.90,15.63,5.89,-5.89,-5.88,-6.38,9.74,9.74,9.73
28.33,15.60,5.86,15.60,5.87,-5.87,-5.86,-6.49,9.73,9.74,9.74
28.62,15.58,5.84,15.58,5.84,-5.84,-5.84,-6.59,9.74,9.74,9.74
28.90,15.56,5.81,15.55,5.82,-5.82,-5.82,-6.68,9.74,9.74,9.75
29.19,15.53,5.78,15.53,5.79,-5.79,-5.80,-6.77,9.74,9.74,9.75
29.48,15.51,5.77,15.50,5.77,-5.77,-5.78,-6.84,9.74,9.74,9.74
29.78,15.48,5.74,15.48,5.74,-5.74,-5.76,-6.91,9.74,9.73,9.74
30.08,15.45,5.71,15.45,5.72,-5.72,-5.74,-6.97,9.73,9.73,9.74
30.38,15.42,5.70,15.42,5.70,-5.70,-5.72,-7.02,9.72,9.73,9.72
30.68,15.39,5.67,15.39,5.67,-5.67,-5.70,-7.06,9.72,9.72,9.72
30.99,15.36,5.64,15.37,5.65,-5.65,-5.68,-7.09,9.71,9.72,9.72
31.30,15.33,5.61,15.34,5.62,-5.62,-5.66,-7.10,9.71,9.71,9.72
31.61,15.30,5.59,15.31,5.60,-5.60,-5.64,-7.11,9.70,9.70,9.71
31.93,15.28,5.59,15.28,5.58,-5.58,-5.62,-7.11,9.70,9.70,9.69
32.24,15.25,5.55,15.25,5.56,-5.56,-5.60,-7.10,9.69,9.69,9.70
32.57,15.22,5.54,15.22,5.53,-5.53,-5.58,-7.07,9.69,9.68,9.68
32.89,15.19,5.51,15.18,5.51,-5.51,-5.56,-7.04,9.68,9.68,9.68
33.22,15.16,5.49,15.15,5.48,-5.48,-5.54,-7.00,9.68,9.67,9.67
33.55,15.12,5.45,15.12,5.46,-5.46,-5.52,-6.95,9.66,9.66,9.67
33.89,15.09,5.43,15.09,5.43,-5.43,-5.50,-6.89,9.66,9.66,9.66
34.23,15.06,5.42,15.06,5.41,-5.41,-5.48,-6.83,9.65,9.65,9.64
34.57,15.02,5.38,15.02,5.39,-5.39,-5.46,-6.76,9.63,9.64,9.64
34.92,14.99,5.37,14.99,5.36,-5.36,-5.44,-6.69,9.63,9.63,9.62
35.27,14.96,5.32,14.96,5.34,-5.34,-5.42,-6.61,9.62,9.62,9.64
35.62,14.92,5.31,14.92,5.32,-5.32,-5.40,-6.53,9.60,9.61,9.61
35.97,14.89,5.28,14.89,5.30,-5.30,-5.39,-6.45,9.59,9.59,9.61
36.33,14.86,5.27,14.86,5.28,-5.28,-5.37,-6.36,9.58,9.58,9.59
36.70,14.82,5.25,14.82,5.26,-5.26,-5.35,-6.28,9.56,9.57,9.57
37.06,14.78,5.23,14.79,5.24,-5.24,-5.33,-6.19,9.54,9.55,9.55
37.43,14.75,5.22,14.75,5.22,-5.22,-5.31,-6.10,9.53,9.53,9.53
37.81,14.73,5.21,14.72,5.21,-5.21,-5.29,-6.02,9.52,9.51,9.52
38.19,14.69,5.20,14.69,5.19,-5.19,-5.28,-5.93,9.50,9.49,9.49
38.57,14.65,5.18,14.65,5.18,-5.18,-5.26,-5.85,9.47,9.47,9.47
38.95,14.61,5.15,14.62,5.17,-5.17,-5.24,-5.77,9.44,9.45,9.46
39.34,14.58,5.15,14.58,5.15,-5.15,-5.22,-5.69,9.43,9.43,9.43
39.74,14.54,5.14,14.54,5.14,-5.14,-5.20,-5.61,9.40,9.40,9.40
40.14,14.51,5.13,14.51,5.13,-5.13,-5.19,-5.54,9.38,9.38,9.38
40.54,14.47,5.11,14.47,5.11,-5.11,-5.17,-5.46,9.36,9.36,9.36
40.94,14.44,5.11,14.44,5.10,-5.10,-5.15,-5.40,9.34,9.34,9.33
41.35,14.40,5.08,14.40,5.08,-5.08,-5.14,-5.33,9.32,9.31,9.32
41.76,14.36,5.07,14.36,5.07,-5.07,-5.12,-5.27,9.29,9.29,9.29
42.18,14.32,5.04,14.32,5.05,-5.05,-5.11,-5.21,9.27,9.27,9.28
42.60,14.28,5.03,14.28,5.04,-5.04,-5.09,-5.16,9.24,9.24,9.25
43.03,14.24,5.01,14.24,5.02,-5.02,-5.08,-5.11,9.22,9.22,9.23
43.46,14.20,5.01,14.20,5.00,-5.00,-5.06,-5.06,9.20,9.20,9.19
43.90,14.16,4.99,14.16,4.99,-4.99,-5.05,-5.02,9.17,9.17,9.17
44.33,14.12,4.98,14.12,4.97,-4.97,-5.03,-4.98,9.15,9.14,9.14
44.78,14.07,4.95,14.07,4.96,-4.96,-5.02,-4.94,9.11,9.11,9.12
45.23,14.03,4.93,14.03,4.95,-4.95,-5.00,-4.91,9.08,9.08,9.10
45.68,13.98,4.93,13.99,4.94,-4.94,-4.99,-4.88,9.04,9.05,9.05
46.13,13.94,4.92,13.94,4.93,-4.93,-4.98,-4.86,9.01,9.01,9.02
46.60,13.90,4.92,13.90,4.92,-4.92,-4.96,-4.84,8.98,8.98,8.98
47.06,13.85,4.90,13.85,4.92,-4.92,-4.95,-4.82,8.93,8.94,8.95
47.53,13.81,4.90,13.81,4.91,-4.91,-4.94,-4.81,8.90,8.90,8.91
48.01,13.77,4.91,13.76,4.90,-4.90,-4.93,-4.80,8.87,8.86,8.86
48.49,13.72,4.90,13.71,4.90,-4.90,-4.91,-4.79,8.82,8.82,8.82
48.97,13.67,4.90,13.67,4.89,-4.89,-4.90,-4.79,8.78,8.78,8.77
49.46,13.62,4.88,13.62,4.89,-4.89,-4.89,-4.79,8.73,8.73,8.74
49.96,13.57,4.89,13.58,4.88,-4.88,-4.88,-4.79,8.69,8.69,8.68
50.46,13.53,4.88,13.53,4.88,-4.88,-4.87,-4.79,8.65,8.65,8.65
50.96,13.48,4.87,13.48,4.87,-4.87,-4.86,-4.80,8.61,8.61,8.61
51.47,13.43,4.86,13.43,4.87,-4.87,-4.85,-4.81,8.56,8.57,8.57
51.99,13.38,4.86,13.38,4.86,-4.86,-4.84,-4.82,8.52,8.52,8.52
52.51,13.33,4.84,13.34,4.85,-4.85,-4.83,-4.83,8.48,8.48,8.49
53.03,13.29,4.83,13.29,4.85,-4.85,-4.82,-4.85,8.44,8.44,8.46
53.56,13.24,4.83,13.24,4.84,-4.84,-4.81,-4.86,8.40,8.40,8.41
54.10,13.20,4.84,13.19,4.83,-4.83,-4.80,-4.88,8.37,8.36,8.36
54.64,13.15,4.83,13.14,4.82,-4.82,-4.80,-4.90,8.33,8.32,8.32
55.18,13.09,4.81,13.09,4.81,-4.81,-4.79,-4.91,8.28,8.28,8.28
55.74,13.04,4.81,13.05,4.80,-4.80,-4.78,-4.93,8.24,8.25,8.23
56.29,12.99,4.78,13.00,4.79,-4.79,-4.77,-4.94,8.20,8.21,8.21
56.86,12.94,4.77,12.95,4.78,-4.78,-4.77,-4.96,8.16,8.17,8.17
57.42,12.90,4.78,12.90,4.78,-4.78,-4.76,-4.97,8.12,8.13,8.12
58.00,12.86,4.78,12.85,4.77,-4.77,-4.76,-4.98,8.09,8.08,8.08
58.58,12.81,4.76,12.80,4.77,-4.77,-4.75,-4.99,8.04,8.04,8.05
59.16,12.76,4.74,12.75,4.76,-4.76,-4.74,-5.00,8.00,7.99,8.02
59.76,12.70,4.73,12.71,4.76,-4.76,-4.74,-5.00,7.94,7.95,7.97
60.35,12.66,4.74,12.66,4.76,-4.76,-4.73,-5.01,7.90,7.90,7.92
60.96,12.61,4.75,12.61,4.76,-4.76,-4.73,-5.01,7.85,7.85,7.86
61.57,12.56,4.76,12.56,4.76,-4.76,-4.73,-5.00,7.80,7.80,7.80
62.18,12.50,4.76,12.51,4.76,-4.76,-4.72,-5.00,7.74,7.75,7.74
62.80,12.45,4.77,12.46,4.76,-4.76,-4.72,-4.99,7.69,7.69,7.68
63.43,12.40,4.77,12.40,4.76,-4.76,-4.72,-4.97,7.64,7.64,7.63
64.07,12.35,4.77,12.35,4.77,-4.77,-4.71,-4.96,7.58,7.58,7.58
64.71,12.30,4.77,12.30,4.77,-4.77,-4.71,-4.94,7.53,7.53,7.53
65.35,12.25,4.78,12.24,4.77,-4.77,-4.71,-4.91,7.48,7.47,7.47
66.01,12.19,4.77,12.19,4.77,-4.77,-4.71,-4.89,7.42,7.42,7.42
66.67,12.13,4.75,12.14,4.77,-4.77,-4.70,-4.86,7.36,7.36,7.38
67.33,12.08,4.77,12.08,4.77,-4.77,-4.70,-4.83,7.31,7.31,7.31
68.01,12.03,4.77,12.02,4.77,-4.77,-4.70,-4.80,7.26,7.25,7.26
68.69,11.97,4.76,11.97,4.77,-4.77,-4.70,-4.76,7.20,7.20,7.21
69.37,11.92,4.76,11.91,4.77,-4.77,-4.70,-4.73,7.15,7.14,7.16
70.07,11.85,4.75,11.85,4.76,-4.76,-4.70,-4.69,7.09,7.09,7.10
70.77,11.79,4.76,11.79,4.76,-4.76,-4.70,-4.65,7.03,7.03,7.03
71.48,11.73,4.75,11.73,4.76,-4.76,-4.70,-4.62,6.97,6.97,6.98
72.19,11.67,4.75,11.68,4.76,-4.76,-4.70,-4.58,6.91,6.91,6.92
72.91,11.62,4.77,11.62,4.76,-4.76,-4.70,-4.54,6.86,6.86,6.85
73.64,11.56,4.76,11.56,4.76,-4.76,-4.70,-4.50,6.80,6.80,6.80
74.38,11.50,4.76,11.50,4.76,-4.76,-4.70,-4.46,6.74,6.75,6.74
75.12,11.44,4.75,11.44,4.75,-4.75,-4.70,-4.43,6.69,6.69,6.69
75.87,11.38,4.74,11.39,4.75,-4.75,-4.70,-4.39,6.63,6.64,6.64
76.63,11.33,4.75,11.33,4.74,-4.74,-4.70,-4.36,6.59,6.59,6.58
77.40,11.27,4.73,11.27,4.74,-4.74,-4.70,-4.33,6.53,6.53,6.54
78.17,11.22,4.74,11.22,4.73,-4.73,-4.70,-4.30,6.49,6.48,6.48
78.95,11.16,4.72,11.16,4.73,-4.73,-4.70,-4.27,6.43,6.43,6.44
79.74,11.11,4.72,11.10,4.72,-4.72,-4.71,-4.25,6.39,6.38,6.39
80.54,11.05,4.71,11.05,4.71,-4.71,-4.71,-4.22,6.34,6.33,6.34
81.35,10.99,4.71,10.99,4.71,-4.71,-4.71,-4.20,6.28,6.28,6.28
82.16,10.93,4.68,10.94,4.70,-4.70,-4.71,-4.18,6.23,6.23,6.25
82.98,10.88,4.69,10.88,4.70,-4.70,-4.71,-4.17,6.18,6.18,6.19
83.81,10.83,4.69,10.82,4.69,-4.69,-4.71,-4.16,6.14,6.13,6.14
84.65,10.77,4.69,10.76,4.69,-4.69,-4.72,-4.15,6.08,6.08,6.08
85.50,10.71,4.69,10.71,4.68,-4.68,-4.72,-4.14,6.03,6.02,6.02
86.35,10.64,4.67,10.65,4.68,-4.68,-4.72,-4.14,5.96,5.97,5.97
87.22,10.58,4.66,10.59,4.68,-4.68,-4.72,-4.14,5.90,5.91,5.92
88.09,10.53,4.67,10.53,4.67,-4.67,-4.72,-4.14,5.86,5.86,5.86
88.97,10.48,4.68,10.47,4.67,-4.67,-4.73,-4.15,5.81,5.80,5.80
89.86,10.42,4.67,10.41,4.67,-4.67,-4.73,-4.16,5.75,5.74,5.75
90.76,10.35,4.66,10.35,4.67,-4.67,-4.73,-4.17,5.68,5.68,5.69
91.66,10.28,4.66,10.29,4.67,-4.67,-4.73,-4.19,5.61,5.62,5.62
92.58,10.23,4.66,10.23,4.66,-4.66,-4.73,-4.21,5.57,5.56,5.57
93.51,10.18,4.66,10.17,4.66,-4.66,-4.74,-4.23,5.52,5.50,5.52
94.44,10.12,4.66,10.11,4.66,-4.66,-4.74,-4.25,5.46,5.44,5.46
95.39,10.05,4.66,10.05,4.67,-4.67,-4.74,-4.28,5.38,5.38,5.39
96.34,9.99,4.67,9.99,4.67,-4.67,-4.74,-4.31,5.32,5.32,5.32
97.30,9.92,4.66,9.93,4.68,-4.68,-4.74,-4.34,5.24,5.26,5.26
98.28,9.87,4.68,9.88,4.68,-4.68,-4.74,-4.38,5.19,5.20,5.19
99.26,9.81,4.68,9.82,4.68,-4.68,-4.75,-4.42,5.13,5.14,5.13
100.25,9.75,4.68,9.76,4.69,-4.69,-4.75,-4.46,5.06,5.08,5.07
101.25,9.69,4.67,9.71,4.69,-4.69,-4.75,-4.50,5.00,5.02,5.02
102.27,9.64,4.68,9.66,4.70,-4.70,-4.75,-4.54,4.94,4.96,4.96
103.29,9.61,4.71,9.60,4.70,-4.70,-4.75,-4.58,4.91,4.90,4.90
104.32,9.57,4.72,9.54,4.70,-4.70,-4.75,-4.63,4.87,4.84,4.85
105.37,9.51,4.72,9.49,4.70,-4.70,-4.75,-4.67,4.81,4.79,4.79
106.42,9.44,4.70,9.43,4.70,-4.70,-4.75,-4.72,4.74,4.73,4.74
107.48,9.38,4.70,9.38,4.70,-4.70,-4.75,-4.76,4.68,4.68,4.68
108.56,9.32,4.69,9.32,4.70,-4.70,-4.75,-4.81,4.62,4.62,4.63
109.64,9.26,4.69,9.26,4.70,-4.70,-4.75,-4.85,4.56,4.56,4.57
110.74,9.20,4.69,9.20,4.70,-4.70,-4.75,-4.90,4.50,4.50,4.51
111.85,9.14,4.69,9.14,4.70,-4.70,-4.75,-4.94,4.44,4.44,4.45
112.97,9.07,4.67,9.08,4.70,-4.70,-4.74,-4.98,4.37,4.38,4.40
114.10,9.00,4.66,9.02,4.69,-4.69,-4.74,-5.02,4.31,4.33,4.34
115.24,8.94,4.68,8.95,4.69,-4.69,-4.74,-5.05,4.26,4.27,4.26
116.39,8.91,4.71,8.89,4.68,-4.68,-4.74,-5.08,4.23,4.21,4.20
117.55,8.85,4.71,8.83,4.67,-4.67,-4.73,-5.11,4.18,4.15,4.14
118.73,8.77,4.69,8.76,4.67,-4.67,-4.73,-5.13,4.10,4.09,4.08
119.92,8.69,4.65,8.70,4.66,-4.66,-4.73,-5.15,4.03,4.04,4.04
121.12,8.62,4.63,8.63,4.65,-4.65,-4.72,-5.16,3.97,3.98,3.99
122.33,8.58,4.65,8.57,4.64,-4.64,-4.72,-5.17,3.94,3.93,3.93
123.55,8.52,4.64,8.50,4.63,-4.63,-4.72,-5.17,3.89,3.87,3.88
124.79,8.43,4.60,8.44,4.62,-4.62,-4.71,-5.17,3.81,3.81,3.83
126.03,8.35,4.58,8.37,4.61,-4.61,-4.71,-5.16,3.74,3.76,3.77
127.29,8.30,4.58,8.31,4.60,-4.60,-4.70,-5.15,3.70,3.71,3.72
128.57,8.25,4.60,8.24,4.59,-4.59,-4.69,-5.13,3.66,3.65,3.65
129.85,8.17,4.57,8.18,4.58,-4.58,-4.69,-5.11,3.59,3.60,3.60
131.15,8.10,4.56,8.12,4.57,-4.57,-4.68,-5.08,3.53,3.54,3.54
132.46,8.06,4.57,8.06,4.57,-4.57,-4.67,-5.05,3.49,3.49,3.49
133.79,7.99,4.56,8.00,4.56,-4.56,-4.66,-5.01,3.43,3.43,3.43
135.12,7.93,4.55,7.93,4.56,-4.56,-4.66,-4.97,3.37,3.38,3.38
136.48,7.89,4.56,7.87,4.55,-4.55,-4.65,-4.93,3.34,3.33,3.33
137.84,7.82,4.54,7.82,4.54,-4.54,-4.64,-4.88,3.28,3.27,3.28
139.22,7.77,4.55,7.76,4.53,-4.53,-4.63,-4.83,3.24,3.22,3.22
140.61,7.71,4.53,7.70,4.52,-4.52,-4.62,-4.78,3.19,3.17,3.18
142.02,7.62,4.50,7.64,4.51,-4.51,-4.61,-4.73,3.11,3.13,3.12
143.44,7.58,4.50,7.58,4.50,-4.50,-4.60,-4.67,3.08,3.08,3.08
144.87,7.51,4.47,7.52,4.49,-4.49,-4.59,-4.61,3.02,3.03,3.04
146.32,7.46,4.47,7.46,4.47,-4.47,-4.57,-4.56,2.99,2.99,2.99
147.78,7.40,4.45,7.40,4.45,-4.45,-4.56,-4.50,2.95,2.95,2.95
149.26,7.35,4.45,7.34,4.43,-4.43,-4.55,-4.44,2.92,2.90,2.90
150.75,7.27,4.41,7.28,4.42,-4.42,-4.54,-4.38,2.85,2.86,2.86
152.26,7.22,4.40,7.22,4.40,-4.40,-4.52,-4.33,2.82,2.81,2.82
153.78,7.15,4.37,7.16,4.39,-4.39,-4.51,-4.27,2.76,2.77,2.78
155.32,7.10,4.36,7.10,4.37,-4.37,-4.49,-4.22,2.73,2.73,2.74
156.88,7.04,4.35,7.04,4.36,-4.36,-4.48,-4.16,2.68,2.68,2.69
158.44,6.99,4.35,6.99,4.35,-4.35,-4.46,-4.11,2.64,2.64,2.64
160.03,6.91,4.31,6.93,4.33,-4.33,-4.45,-4.06,2.58,2.60,2.60
161.63,6.87,4.31,6.87,4.32,-4.32,-4.43,-4.02,2.55,2.55,2.56
163.24,6.83,4.32,6.82,4.31,-4.31,-4.41,-3.97,2.52,2.51,2.51
164.88,6.77,4.31,6.76,4.30,-4.30,-4.39,-3.93,2.47,2.46,2.46
166.53,6.71,4.30,6.70,4.29,-4.29,-4.37,-3.89,2.42,2.41,2.41
168.19,6.66,4.28,6.65,4.28,-4.28,-4.36,-3.85,2.38,2.37,2.38
169.87,6.58,4.26,6.59,4.27,-4.27,-4.34,-3.82,2.31,2.32,2.32
171.57,6.53,4.26,6.54,4.27,-4.27,-4.32,-3.79,2.26,2.27,2.27
173.29,6.49,4.26,6.48,4.26,-4.26,-4.30,-3.76,2.23,2.22,2.23
175.02,6.42,4.24,6.42,4.25,-4.25,-4.28,-3.73,2.17,2.18,2.18
176.77,6.37,4.24,6.37,4.24,-4.24,-4.25,-3.71,2.13,2.13,2.13
178.54,6.31,4.22,6.31,4.23,-4.23,-4.23,-3.69,2.08,2.08,2.09
180.32,6.25,4.22,6.26,4.22,-4.22,-4.21,-3.67,2.03,2.04,2.03
182.13,6.21,4.21,6.20,4.21,-4.21,-4.19,-3.66,2.00,1.99,2.00
183.95,6.14,4.19,6.15,4.20,-4.20,-4.16,-3.64,1.94,1.95,1.95
185.79,6.10,4.20,6.09,4.19,-4.19,-4.14,-3.63,1.91,1.90,1.90
187.65,6.04,4.18,6.04,4.18,-4.18,-4.11,-3.63,1.86,1.85,1.86
189.52,5.98,4.16,5.99,4.17,-4.17,-4.09,-3.62,1.81,1.81,1.82
191.42,5.92,4.14,5.93,4.16,-4.16,-4.06,-3.62,1.76,1.77,1.78
193.33,5.88,4.14,5.88,4.15,-4.15,-4.04,-3.62,1.73,1.73,1.74
195.27,5.83,4.14,5.83,4.14,-4.14,-4.01,-3.63,1.69,1.69,1.69
197.22,5.79,4.15,5.77,4.12,-4.12,-3.98,-3.63,1.67,1.65,1.64
199.19,5.73,4.12,5.72,4.11,-4.11,-3.96,-3.64,1.62,1.61,1.61
201.18,5.67,4.10,5.67,4.09,-4.09,-3.93,-3.65,1.58,1.58,1.57
203.19,5.61,4.07,5.62,4.07,-4.07,-3.90,-3.66,1.54,1.54,1.54
205.23,5.56,4.04,5.57,4.06,-4.06,-3.87,-3.67,1.50,1.51,1.52
207.28,5.51,4.02,5.51,4.04,-4.04,-3.84,-3.68,1.47,1.48,1.49
209.35,5.46,4.01,5.46,4.01,-4.01,-3.81,-3.69,1.45,1.45,1.45
211.44,5.41,3.99,5.41,3.99,-3.99,-3.78,-3.71,1.42,1.42,1.42
213.56,5.34,3.94,5.35,3.97,-3.97,-3.75,-3.72,1.37,1.39,1.40
215.69,5.29,3.92,5.30,3.94,-3.94,-3.72,-3.74,1.35,1.36,1.37
217.85,5.24,3.90,5.25,3.91,-3.91,-3.69,-3.75,1.33,1.34,1.34
220.03,5.21,3.90,5.19,3.88,-3.88,-3.66,-3.76,1.33,1.31,1.31
222.23,5.16,3.88,5.14,3.85,-3.85,-3.63,-3.77,1.31,1.29,1.28
224.45,5.09,3.82,5.08,3.82,-3.82,-3.59,-3.78,1.27,1.26,1.27
226.70,5.02,3.78,5.03,3.79,-3.79,-3.56,-3.79,1.23,1.24,1.24
228.96,4.96,3.73,4.97,3.75,-3.75,-3.53,-3.80,1.21,1.22,1.23
231.25,4.92,3.71,4.91,3.71,-3.71,-3.49,-3.80,1.21,1.20,1.21
233.57,4.87,3.68,4.85,3.67,-3.67,-3.46,-3.80,1.20,1.19,1.19
235.90,4.80,3.62,4.79,3.62,-3.62,-3.42,-3.80,1.18,1.17,1.18
238.26,4.75,3.60,4.74,3.58,-3.58,-3.39,-3.80,1.17,1.16,1.15
240.64,4.67,3.51,4.68,3.53,-3.53,-3.35,-3.79,1.14,1.15,1.16
243.05,4.61,3.47,4.62,3.48,-3.48,-3.32,-3.77,1.13,1.14,1.14
245.48,4.55,3.42,4.56,3.43,-3.43,-3.28,-3.76,1.12,1.13,1.13
247.93,4.49,3.37,4.51,3.38,-3.38,-3.24,-3.74,1.11,1.12,1.12
250.41,4.45,3.32,4.45,3.33,-3.33,-3.21,-3.71,1.12,1.12,1.13
252.92,4.38,3.26,4.40,3.28,-3.28,-3.17,-3.68,1.10,1.11,1.12
255.45,4.34,3.23,4.34,3.23,-3.23,-3.13,-3.64,1.11,1.11,1.11
258.00,4.29,3.18,4.29,3.18,-3.18,-3.09,-3.61,1.11,1.11,1.11
260.58,4.24,3.13,4.23,3.13,-3.13,-3.05,-3.56,1.11,1.10,1.11
263.19,4.20,3.09,4.18,3.08,-3.08,-3.02,-3.52,1.12,1.10,1.11
265.82,4.14,3.04,4.13,3.03,-3.03,-2.98,-3.46,1.11,1.10,1.10
268.48,4.08,2.98,4.08,2.98,-2.98,-2.94,-3.41,1.10,1.09,1.10
271.16,4.02,2.92,4.02,2.93,-2.93,-2.90,-3.35,1.09,1.09,1.10
273.87,3.95,2.85,3.97,2.88,-2.88,-2.86,-3.29,1.07,1.09,1.10
276.61,3.91,2.81,3.92,2.83,-2.83,-2.82,-3.23,1.08,1.09,1.10
279.38,3.87,2.79,3.86,2.78,-2.78,-2.78,-3.16,1.09,1.09,1.08
282.17,3.82,2.74,3.81,2.72,-2.72,-2.73,-3.09,1.10,1.09,1.08
284.99,3.78,2.69,3.76,2.67,-2.67,-2.69,-3.02,1.11,1.09,1.09
287.84,3.70,2.60,3.71,2.62,-2.62,-2.65,-2.95,1.08,1.09,1.10
290.72,3.65,2.56,3.66,2.57,-2.57,-2.61,-2.87,1.08,1.10,1.09
293.63,3.60,2.50,3.62,2.52,-2.52,-2.57,-2.80,1.08,1.10,1.10
296.57,3.56,2.45,3.57,2.47,-2.47,-2.52,-2.72,1.09,1.10,1.11
299.53,3.53,2.42,3.53,2.42,-2.42,-2.48,-2.64,1.11,1.11,1.11
302.53,3.49,2.36,3.48,2.37,-2.37,-2.44,-2.56,1.12,1.11,1.13
305.55,3.44,2.32,3.44,2.32,-2.32,-2.39,-2.49,1.12,1.12,1.12
308.61,3.39,2.26,3.39,2.26,-2.26,-2.35,-2.41,1.13,1.13,1.13
311.69,3.34,2.20,3.35,2.21,-2.21,-2.31,-2.33,1.13,1.13,1.14
314.81,3.31,2.17,3.30,2.16,-2.16,-2.26,-2.25,1.15,1.14,1.14
317.96,3.27,2.12,3.26,2.11,-2.11,-2.22,-2.18,1.16,1.15,1.15
321.14,3.22,2.06,3.22,2.06,-2.06,-2.17,-2.10,1.16,1.16,1.16
324.35,3.17,2.01,3.17,2.01,-2.01,-2.13,-2.03,1.16,1.16,1.16
327.59,3.13,1.94,3.13,1.96,-1.96,-2.08,-1.95,1.17,1.17,1.19
330.87,3.08,1.90,3.08,1.90,-1.90,-2.04,-1.88,1.18,1.18,1.18
334.18,3.03,1.84,3.04,1.85,-1.85,-1.99,-1.81,1.18,1.19,1.19
337.52,2.98,1.79,2.99,1.80,-1.80,-1.94,-1.73,1.18,1.19,1.19
340.90,2.94,1.73,2.94,1.74,-1.74,-1.90,-1.66,1.20,1.20,1.21
344.30,2.90,1.68,2.90,1.69,-1.69,-1.85,-1.59,1.21,1.21,1.22
347.75,2.86,1.64,2.85,1.63,-1.63,-1.80,-1.52,1.23,1.22,1.22
351.23,2.81,1.59,2.80,1.58,-1.58,-1.76,-1.46,1.23,1.23,1.22
354.74,2.77,1.52,2.76,1.52,-1.52,-1.71,-1.39,1.25,1.23,1.25
358.28,2.71,1.47,2.71,1.47,-1.47,-1.66,-1.32,1.24,1.24,1.24
361.87,2.67,1.42,2.67,1.42,-1.42,-1.61,-1.26,1.25,1.25,1.25
365.49,2.63,1.37,2.63,1.37,-1.37,-1.57,-1.20,1.26,1.26,1.26
369.14,2.57,1.29,2.58,1.32,-1.32,-1.52,-1.13,1.25,1.27,1.28
372.83,2.53,1.25,2.54,1.27,-1.27,-1.47,-1.07,1.26,1.27,1.28
376.56,2.48,1.20,2.50,1.22,-1.22,-1.42,-1.01,1.26,1.28,1.28
380.33,2.45,1.16,2.46,1.17,-1.17,-1.37,-0.95,1.28,1.29,1.29
384.13,2.42,1.11,2.42,1.12,-1.12,-1.32,-0.89,1.30,1.30,1.31
387.97,2.39,1.08,2.38,1.07,-1.07,-1.27,-0.84,1.32,1.31,1.31
391.85,2.36,1.04,2.34,1.02,-1.02,-1.22,-0.78,1.34,1.32,1.32
395.77,2.32,0.99,2.30,0.97,-0.97,-1.17,-0.72,1.35,1.33,1.33
399.73,2.28,0.94,2.27,0.93,-0.93,-1.12,-0.67,1.35,1.34,1.34
403.72,2.23,0.86,2.24,0.89,-0.89,-1.07,-0.62,1.34,1.35,1.37
407.76,2.19,0.83,2.21,0.85,-0.85,-1.02,-0.56,1.34,1.36,1.36
411.84,2.15,0.78,2.17,0.80,-0.80,-0.97,-0.51,1.35,1.37,1.37
415.96,2.13,0.74,2.14,0.76,-0.76,-0.91,-0.46,1.37,1.38,1.39
420.12,2.10,0.71,2.11,0.72,-0.72,-0.86,-0.41,1.38,1.39,1.39
424.32,2.08,0.68,2.08,0.68,-0.68,-0.81,-0.36,1.40,1.40,1.40
428.56,2.07,0.65,2.05,0.64,-0.64,-0.76,-0.31,1.43,1.41,1.42
432.85,2.03,0.60,2.02,0.60,-0.60,-0.71,-0.27,1.43,1.42,1.43
437.18,2.00,0.58,1.99,0.56,-0.56,-0.65,-0.22,1.44,1.42,1.42
441.55,1.96,0.53,1.96,0.53,-0.53,-0.60,-0.17,1.43,1.43,1.43
445.96,1.93,0.49,1.93,0.49,-0.49,-0.55,-0.13,1.44,1.44,1.44
450.42,1.89,0.44,1.91,0.46,-0.46,-0.49,-0.09,1.43,1.45,1.45
454.93,1.86,0.40,1.88,0.42,-0.42,-0.44,-0.04,1.44,1.46,1.46
459.48,1.83,0.36,1.84,0.37,-0.37,-0.39,-0.00,1.46,1.47,1.47
464.07,1.82,0.33,1.81,0.33,-0.33,-0.33,0.04,1.49,1.48,1.49
468.71,1.80,0.30,1.78,0.29,-0.29,-0.28,0.07,1.51,1.49,1.50
473.40,1.76,0.26,1.74,0.25,-0.25,-0.22,0.11,1.51,1.50,1.50
478.13,1.72,0.21,1.71,0.20,-0.20,-0.17,0.15,1.52,1.51,1.51
482.91,1.68,0.16,1.68,0.16,-0.16,-0.11,0.18,1.52,1.52,1.52
487.74,1.63,0.10,1.64,0.11,-0.11,-0.06,0.22,1.52,1.53,1.53
492.62,1.59,0.05,1.61,0.07,-0.07,-0.00,0.25,1.52,1.54,1.54
497.55,1.55,0.00,1.57,0.02,-0.02,0.05,0.28,1.53,1.55,1.55
502.52,1.52,-0.04,1.53,-0.03,0.03,0.11,0.31,1.55,1.56,1.56
507.55,1.50,-0.08,1.50,-0.08,0.08,0.16,0.34,1.58,1.58,1.58
512.62,1.47,-0.12,1.46,-0.13,0.13,0.22,0.37,1.60,1.59,1.59
517.75,1.44,-0.17,1.42,-0.18,0.18,0.27,0.40,1.62,1.60,1.61
