frequency,raw,error,smoothed,error_smoothed,equalization,parametric_eq,fixed_band_eq,equalized_raw,equalized_smoothed,target
20.00,16.30,4.72,16.30,4.72,-4.72,-4.63,-1.91,11.58,11.58,11.58
20.20,16.28,4.71,16.28,4.72,-4.72,-4.62,-1.96,11.56,11.57,11.57
20.40,16.27,4.71,16.27,4.71,-4.71,-4.61,-2.02,11.56,11.55,11.56
20.61,16.25,4.71,16.25,4.71,-4.71,-4.60,-2.08,11.54,11.54,11.54
20.81,16.23,4.71,16.23,4.70,-4.70,-4.60,-2.14,11.53,11.53,11.52
21.02,16.22,4.71,16.22,4.70,-4.70,-4.59,-2.20,11.52,11.52,11.51
21.23,16.20,4.70,16.20,4.69,-4.69,-4.58,-2.26,11.51,11.51,11.50
21.44,16.18,4.67,16.18,4.69,-4.69,-4.57,-2.33,11.49,11.50,11.51
21.66,16.17,4.68,16.17,4.68,-4.68,-4.56,-2.39,11.49,11.49,11.49
21.87,16.15,4.66,16.15,4.67,-4.67,-4.55,-2.46,11.48,11.48,11.49
22.09,16.13,4.66,16.13,4.66,-4.66,-4.54,-2.53,11.47,11.47,11.47
22.31,16.11,4.64,16.11,4.65,-4.65,-4.53,-2.60,11.46,11.46,11.47
22.54,16.10,4.64,16.10,4.64,-4.64,-4.53,-2.68,11.46,11.46,11.46
22.76,16.08,4.63,16.08,4.63,-4.63,-4.52,-2.75,11.45,11.45,11.45
22.99,16.06,4.62,16.06,4.61,-4.61,-4.51,-2.83,11.45,11.45,11.44
23.22,16.04,4.61,16.04,4.60,-4.60,-4.49,-2.91,11.44,11.44,11.43
23.45,16.02,4.58,16.02,4.59,-4.59,-4.48,-2.99,11.43,11.44,11.44
23.69,16.00,4.57,16.00,4.57,-4.57,-4.47,-3.07,11.43,11.43,11.43
23.92,15.99,4.57,15.98,4.56,-4.56,-4.46,-3.16,11.43,11.43,11.42
24.16,15.97,4.54,15.96,4.54,-4.54,-4.45,-3.24,11.43,11.42,11.43
24.40,15.94,4.51,15.94,4.52,-4.52,-4.44,-3.33,11.42,11.42,11.43
24.65,15.92,4.50,15.92,4.50,-4.50,-4.43,-3.42,11.42,11.42,11.42
24.89,15.90,4.48,15.90,4.49,-4.49,-4.42,-3.51,11.41,11.42,11.42
25.14,15.88,4.47,15.88,4.47,-4.47,-4.40,-3.60,11.41,11.41,11.41
25.39,15.86,4.45,15.86,4.45,-4.45,-4.39,-3.69,11.41,11.41,11.41
25.65,15.84,4.43,15.84,4.43,-4.43,-4.38,-3.78,11.41,11.41,11.41
25.91,15.82,4.42,15.81,4.41,-4.41,-4.37,-3.87,11.41,11.41,11.40
26.16,15.79,4.38,15.79,4.38,-4.38,-4.35,-3.96,11.41,11.41,11.41
26.43,15.77,4.36,15.77,4.36,-4.36,-4.34,-4.05,11.41,11.41,11.41
26.69,15.75,4.34,15.75,4.34,-4.34,-4.33,-4.13,11.41,11.41,11.41
26.96,15.72,4.31,15.72,4.32,-4.32,-4.31,-4.22,11.40,11.41,11.41
27.23,15.70,4.30,15.70,4.29,-4.29,-4.30,-4.31,11.41,11.41,11.40
27.50,15.67,4.27,15.68,4.27,-4.27,-4.28,-4.39,11.40,11.41,11.40
27.77,15.65,4.24,15.65,4.24,-4.24,-4.27,-4.47,11.41,11.41,11.41
28.05,15.63,4.22,15.63,4.22,-4.22,-4.26,-4.54,11.41,11.41,11.41
28.33,15.60,4.19,15.60,4.19,-4.19,-4.24,-4.61,11.41,11.41,11.41
28.62,15.58,4.17,15.58,4.17,-4.17,-4.23,-4.68,11.41,11.41,11.41
28.90,15.56,4.14,15.55,4.14,-4.14,-4.21,-4.75,11.42,11.41,11.42
29.19,15.53,4.12,15.53,4.12,-4.12,-4.20,-4.80,11.41,11.41,11.41
29.48,15.51,4.10,15.50,4.10,-4.10,-4.18,-4.86,11.41,11.41,11.41
29.78,15.48,4.07,15.48,4.07,-4.07,-4.17,-4.90,11.41,11.40,11.41
30.08,15.45,4.05,15.45,4.05,-4.05,-4.15,-4.94,11.40,11.40,11.40
30.38,15.42,4.03,15.42,4.03,-4.03,-4.14,-4.97,11.39,11.40,11.39
30.68,15.39,4.00,15.39,4.00,-4.00,-4.12,-5.00,11.39,11.39,11.39
30.99,15.36,3.98,15.37,3.98,-3.98,-4.10,-5.02,11.38,11.38,11.38
31.30,15.33,3.95,15.34,3.96,-3.96,-4.09,-5.03,11.37,11.38,11.38
31.61,15.30,3.92,15.31,3.94,-3.94,-4.07,-5.04,11.36,11.37,11.38
31.93,15.28,3.93,15.28,3.92,-3.92,-4.06,-5.04,11.37,11.36,11.35
32.24,15.25,3.89,15.25,3.89,-3.89,-4.04,-5.03,11.36,11.35,11.36
32.57,15.22,3.88,15.22,3.87,-3.87,-4.02,-5.01,11.35,11.35,11.34
32.89,15.19,3.85,15.18,3.85,-3.85,-4.01,-4.99,11.34,11.34,11.34
33.22,15.16,3.83,15.15,3.82,-3.82,-3.99,-4.96,11.34,11.33,11.33
33.55,15.12,3.79,15.12,3.80,-3.80,-3.97,-4.93,11.32,11.32,11.33
33.89,15.09,3.78,15.09,3.78,-3.78,-3.96,-4.89,11.31,11.31,11.31
34.23,15.06,3.77,15.06,3.75,-3.75,-3.94,-4.85,11.31,11.30,11.29
34.57,15.02,3.73,15.02,3.73,-3.73,-3.92,-4.80,11.29,11.29,11.29
34.92,14.99,3.72,14.99,3.71,-3.71,-3.91,-4.75,11.28,11.28,11.27
35.27,14.96,3.67,14.96,3.69,-3.69,-3.89,-4.70,11.27,11.27,11.29
35.62,14.92,3.66,14.92,3.67,-3.67,-3.87,-4.64,11.25,11.26,11.26
35.97,14.89,3.64,14.89,3.65,-3.65,-3.86,-4.59,11.24,11.24,11.25
36.33,14.86,3.62,14.86,3.63,-3.63,-3.84,-4.53,11.23,11.23,11.24
36.70,14.82,3.61,14.82,3.61,-3.61,-3.82,-4.47,11.21,11.21,11.21
37.06,14.78,3.59,14.79,3.60,-3.60,-3.81,-4.40,11.18,11.19,11.19
37.43,14.75,3.58,14.75,3.58,-3.58,-3.79,-4.34,11.17,11.17,11.17
37.81,14.73,3.58,14.72,3.57,-3.57,-3.77,-4.28,11.16,11.15,11.15
38.19,14.69,3.57,14.69,3.56,-3.56,-3.76,-4.22,11.13,11.13,11.13
38.57,14.65,3.54,14.65,3.54,-3.54,-3.74,-4.16,11.11,11.11,11.11
38.95,14.61,3.52,14.62,3.53,-3.53,-3.72,-4.10,11.08,11.08,11.09
39.34,14.58,3.52,14.58,3.52,-3.52,-3.70,-4.04,11.06,11.06,11.06
39.74,14.54,3.51,14.54,3.51,-3.51,-3.69,-3.99,11.03,11.03,11.03
40.14,14.51,3.50,14.51,3.50,-3.50,-3.67,-3.93,11.01,11.01,11.01
40.54,14.47,3.48,14.47,3.49,-3.49,-3.65,-3.88,10.98,10.98,10.99
40.94,14.44,3.49,14.44,3.48,-3.48,-3.64,-3.83,10.96,10.96,10.95
41.35,14.40,3.47,14.40,3.46,-3.46,-3.62,-3.78,10.94,10.93,10.93
41.76,14.36,3.46,14.36,3.45,-3.45,-3.61,-3.73,10.91,10.91,10.90
42.18,14.32,3.43,14.32,3.44,-3.44,-3.59,-3.69,10.88,10.88,10.89
42.60,14.28,3.42,14.28,3.42,-3.42,-3.57,-3.65,10.86,10.86,10.85
43.03,14.24,3.41,14.24,3.41,-3.41,-3.56,-3.61,10.83,10.83,10.83
43.46,14.20,3.40,14.20,3.40,-3.40,-3.54,-3.57,10.80,10.80,10.80
43.90,14.16,3.39,14.16,3.39,-3.39,-3.53,-3.54,10.77,10.77,10.77
44.33,14.12,3.38,14.12,3.37,-3.37,-3.51,-3.51,10.74,10.74,10.74
44.78,14.07,3.36,14.07,3.36,-3.36,-3.50,-3.48,10.71,10.71,10.71
45.23,14.03,3.34,14.03,3.36,-3.36,-3.48,-3.46,10.67,10.67,10.69
45.68,13.98,3.34,13.99,3.35,-3.35,-3.47,-3.44,10.63,10.64,10.64
46.13,13.94,3.34,13.94,3.34,-3.34,-3.45,-3.42,10.60,10.60,10.60
46.60,13.90,3.34,13.90,3.34,-3.34,-3.44,-3.40,10.56,10.56,10.56
47.06,13.85,3.32,13.85,3.34,-3.34,-3.42,-3.38,10.51,10.52,10.53
47.53,13.81,3.32,13.81,3.33,-3.33,-3.41,-3.37,10.48,10.47,10.49
48.01,13.77,3.34,13.76,3.33,-3.33,-3.39,-3.36,10.44,10.43,10.43
48.49,13.72,3.33,13.71,3.33,-3.33,-3.38,-3.35,10.39,10.39,10.39
48.97,13.67,3.34,13.67,3.33,-3.33,-3.37,-3.35,10.34,10.34,10.33
49.46,13.62,3.33,13.62,3.33,-3.33,-3.36,-3.35,10.29,10.29,10.29
49.96,13.57,3.34,13.58,3.33,-3.33,-3.34,-3.35,10.24,10.25,10.23
50.46,13.53,3.33,13.53,3.33,-3.33,-3.33,-3.35,10.20,10.20,10.20
50.96,13.48,3.33,13.48,3.33,-3.33,-3.32,-3.35,10.15,10.15,10.15
51.47,13.43,3.32,13.43,3.33,-3.33,-3.31,-3.35,10.10,10.10,10.11
51.99,13.38,3.33,13.38,3.33,-3.33,-3.30,-3.36,10.05,10.06,10.05
52.51,13.33,3.32,13.34,3.32,-3.32,-3.29,-3.37,10.01,10.01,10.01
53.03,13.29,3.31,13.29,3.32,-3.32,-3.28,-3.37,9.97,9.96,9.98
53.56,13.24,3.31,13.24,3.32,-3.32,-3.27,-3.38,9.92,9.92,9.93
54.10,13.20,3.33,13.19,3.32,-3.32,-3.26,-3.39,9.88,9.87,9.87
54.64,13.15,3.32,13.14,3.31,-3.31,-3.25,-3.40,9.84,9.83,9.83
55.18,13.09,3.31,13.09,3.31,-3.31,-3.24,-3.41,9.78,9.78,9.78
55.74,13.04,3.32,13.05,3.31,-3.31,-3.23,-3.42,9.73,9.74,9.72
56.29,12.99,3.30,13.00,3.31,-3.31,-3.22,-3.43,9.68,9.69,9.69
56.86,12.94,3.30,12.95,3.30,-3.30,-3.22,-3.44,9.64,9.65,9.64
57.42,12.90,3.31,12.90,3.30,-3.30,-3.21,-3.45,9.60,9.60,9.59
58.00,12.86,3.32,12.85,3.30,-3.30,-3.21,-3.46,9.56,9.55,9.54
58.58,12.81,3.31,12.80,3.31,-3.31,-3.20,-3.47,9.51,9.50,9.51
59.16,12.76,3.29,12.75,3.31,-3.31,-3.19,-3.48,9.45,9.45,9.47
59.76,12.70,3.28,12.71,3.31,-3.31,-3.19,-3.48,9.39,9.39,9.42
60.35,12.66,3.30,12.66,3.32,-3.32,-3.19,-3.49,9.34,9.34,9.36
60.96,12.61,3.32,12.61,3.33,-3.33,-3.18,-3.49,9.28,9.28,9.29
61.57,12.56,3.34,12.56,3.33,-3.33,-3.18,-3.49,9.23,9.22,9.22
62.18,12.50,3.34,12.51,3.34,-3.34,-3.18,-3.49,9.16,9.16,9.16
62.80,12.45,3.36,12.46,3.36,-3.36,-3.18,-3.48,9.09,9.10,9.09
63.43,12.40,3.38,12.40,3.37,-3.37,-3.18,-3.48,9.03,9.04,9.02
64.07,12.35,3.39,12.35,3.38,-3.38,-3.18,-3.47,8.98,8.98,8.96
64.71,12.30,3.40,12.30,3.39,-3.39,-3.18,-3.46,8.91,8.91,8.90
65.35,12.25,3.41,12.24,3.40,-3.40,-3.18,-3.45,8.85,8.85,8.84
66.01,12.19,3.41,12.19,3.41,-3.41,-3.18,-3.44,8.78,8.78,8.78
66.67,12.13,3.40,12.14,3.42,-3.42,-3.19,-3.43,8.71,8.72,8.73
67.33,12.08,3.43,12.08,3.42,-3.42,-3.19,-3.42,8.66,8.66,8.65
68.01,12.03,3.43,12.02,3.43,-3.43,-3.19,-3.40,8.60,8.59,8.60
68.69,11.97,3.44,11.97,3.44,-3.44,-3.20,-3.39,8.53,8.53,8.53
69.37,11.92,3.45,11.91,3.45,-3.45,-3.21,-3.37,8.47,8.46,8.47
70.07,11.85,3.45,11.85,3.45,-3.45,-3.21,-3.35,8.40,8.40,8.40
70.77,11.79,3.46,11.79,3.46,-3.46,-3.22,-3.34,8.33,8.33,8.33
71.48,11.73,3.46,11.73,3.47,-3.47,-3.23,-3.32,8.26,8.26,8.27
72.19,11.67,3.47,11.68,3.48,-3.48,-3.24,-3.30,8.19,8.20,8.20
72.91,11.62,3.50,11.62,3.49,-3.49,-3.25,-3.28,8.13,8.13,8.12
73.64,11.56,3.51,11.56,3.50,-3.50,-3.26,-3.27,8.06,8.06,8.05
74.38,11.50,3.51,11.50,3.51,-3.51,-3.27,-3.25,7.99,8.00,7.99
75.12,11.44,3.51,11.44,3.51,-3.51,-3.28,-3.24,7.93,7.93,7.93
75.87,11.38,3.51,11.39,3.52,-3.52,-3.30,-3.23,7.86,7.87,7.87
76.63,11.33,3.53,11.33,3.52,-3.52,-3.31,-3.21,7.81,7.80,7.80
77.40,11.27,3.53,11.27,3.53,-3.53,-3.33,-3.20,7.74,7.74,7.74
78.17,11.22,3.55,11.22,3.54,-3.54,-3.34,-3.19,7.68,7.68,7.67
78.95,11.16,3.54,11.16,3.54,-3.54,-3.36,-3.19,7.62,7.62,7.62
79.74,11.11,3.55,11.10,3.55,-3.55,-3.38,-3.18,7.56,7.56,7.56
80.54,11.05,3.55,11.05,3.55,-3.55,-3.39,-3.18,7.50,7.50,7.50
81.35,10.99,3.56,10.99,3.56,-3.56,-3.41,-3.18,7.43,7.43,7.43
82.16,10.93,3.55,10.94,3.56,-3.56,-3.43,-3.18,7.37,7.37,7.38
82.98,10.88,3.57,10.88,3.57,-3.57,-3.45,-3.18,7.31,7.31,7.31
83.81,10.83,3.58,10.82,3.58,-3.58,-3.47,-3.19,7.25,7.24,7.25
84.65,10.77,3.59,10.76,3.58,-3.58,-3.49,-3.20,7.19,7.18,7.18
85.50,10.71,3.60,10.71,3.59,-3.59,-3.52,-3.21,7.12,7.12,7.11
86.35,10.64,3.59,10.65,3.60,-3.60,-3.54,-3.22,7.04,7.05,7.05
87.22,10.58,3.60,10.59,3.61,-3.61,-3.56,-3.23,6.97,6.98,6.98
88.09,10.53,3.62,10.53,3.62,-3.62,-3.59,-3.25,6.91,6.91,6.91
88.97,10.48,3.63,10.47,3.62,-3.62,-3.61,-3.27,6.86,6.85,6.85
89.86,10.42,3.64,10.41,3.63,-3.63,-3.64,-3.29,6.79,6.78,6.78
90.76,10.35,3.64,10.35,3.65,-3.65,-3.66,-3.32,6.70,6.71,6.71
91.66,10.28,3.65,10.29,3.66,-3.66,-3.69,-3.35,6.62,6.63,6.63
92.58,10.23,3.66,10.23,3.67,-3.67,-3.71,-3.38,6.56,6.56,6.57
93.51,10.18,3.68,10.17,3.68,-3.68,-3.74,-3.41,6.50,6.49,6.50
94.44,10.12,3.69,10.11,3.69,-3.69,-3.76,-3.44,6.43,6.42,6.43
95.39,10.05,3.71,10.05,3.71,-3.71,-3.79,-3.48,6.34,6.34,6.34
96.34,9.99,3.72,9.99,3.72,-3.72,-3.81,-3.52,6.27,6.27,6.27
97.30,9.92,3.72,9.93,3.74,-3.74,-3.84,-3.56,6.18,6.19,6.20
98.28,9.87,3.76,9.88,3.76,-3.76,-3.86,-3.60,6.11,6.12,6.11
99.26,9.81,3.77,9.82,3.77,-3.77,-3.89,-3.64,6.04,6.05,6.04
100.25,9.75,3.79,9.76,3.79,-3.79,-3.91,-3.69,5.96,5.98,5.96
101.25,9.69,3.79,9.71,3.81,-3.81,-3.94,-3.74,5.88,5.90,5.90
102.27,9.64,3.81,9.66,3.82,-3.82,-3.96,-3.79,5.82,5.83,5.83
103.29,9.61,3.85,9.60,3.84,-3.84,-3.98,-3.83,5.77,5.76,5.76
104.32,9.57,3.88,9.54,3.85,-3.85,-4.00,-3.88,5.72,5.69,5.69
105.37,9.51,3.88,9.49,3.86,-3.86,-4.02,-3.93,5.65,5.62,5.63
106.42,9.44,3.88,9.43,3.88,-3.88,-4.04,-3.98,5.56,5.56,5.56
107.48,9.38,3.89,9.38,3.89,-3.89,-4.06,-4.03,5.49,5.49,5.49
108.56,9.32,3.90,9.32,3.90,-3.90,-4.07,-4.08,5.42,5.42,5.42
109.64,9.26,3.90,9.26,3.92,-3.92,-4.09,-4.13,5.34,5.35,5.36
110.74,9.20,3.92,9.20,3.93,-3.93,-4.10,-4.18,5.27,5.27,5.28
111.85,9.14,3.93,9.14,3.94,-3.94,-4.12,-4.22,5.20,5.20,5.21
112.97,9.07,3.93,9.08,3.95,-3.95,-4.13,-4.27,5.12,5.13,5.14
114.10,9.00,3.93,9.02,3.96,-3.96,-4.14,-4.31,5.04,5.06,5.07
115.24,8.94,3.96,8.95,3.96,-3.96,-4.14,-4.34,4.98,4.99,4.98
116.39,8.91,4.00,8.89,3.97,-3.97,-4.15,-4.38,4.94,4.92,4.91
117.55,8.85,4.01,8.83,3.98,-3.98,-4.15,-4.41,4.87,4.85,4.84
118.73,8.77,4.00,8.76,3.98,-3.98,-4.16,-4.44,4.79,4.78,4.77
119.92,8.69,3.99,8.70,3.99,-3.99,-4.16,-4.46,4.70,4.71,4.70
121.12,8.62,3.98,8.63,3.99,-3.99,-4.16,-4.48,4.63,4.64,4.64
122.33,8.58,4.01,8.57,3.99,-3.99,-4.15,-4.50,4.59,4.57,4.57
123.55,8.52,4.01,8.50,4.00,-4.00,-4.15,-4.51,4.52,4.50,4.51
124.79,8.43,3.99,8.44,4.00,-4.00,-4.14,-4.51,4.43,4.44,4.44
126.03,8.35,3.97,8.37,4.00,-4.00,-4.13,-4.51,4.35,4.37,4.38
127.29,8.30,3.99,8.31,4.01,-4.01,-4.13,-4.51,4.29,4.30,4.31
128.57,8.25,4.02,8.24,4.01,-4.01,-4.11,-4.50,4.24,4.23,4.23
129.85,8.17,4.00,8.18,4.01,-4.01,-4.10,-4.48,4.16,4.17,4.17
131.15,8.10,4.01,8.12,4.02,-4.02,-4.09,-4.47,4.08,4.10,4.09
132.46,8.06,4.03,8.06,4.02,-4.02,-4.07,-4.45,4.04,4.03,4.03
133.79,7.99,4.03,8.00,4.03,-4.03,-4.06,-4.42,3.96,3.97,3.96
135.12,7.93,4.03,7.93,4.04,-4.04,-4.04,-4.39,3.89,3.90,3.90
136.48,7.89,4.05,7.87,4.04,-4.04,-4.03,-4.36,3.85,3.83,3.84
137.84,7.82,4.05,7.82,4.05,-4.05,-4.01,-4.32,3.77,3.77,3.77
139.22,7.77,4.07,7.76,4.05,-4.05,-3.99,-4.28,3.72,3.71,3.70
140.61,7.71,4.07,7.70,4.05,-4.05,-3.97,-4.25,3.66,3.65,3.64
142.02,7.62,4.04,7.64,4.05,-4.05,-3.95,-4.20,3.57,3.59,3.58
143.44,7.58,4.06,7.58,4.05,-4.05,-3.93,-4.16,3.53,3.53,3.52
144.87,7.51,4.04,7.52,4.05,-4.05,-3.91,-4.12,3.46,3.47,3.47
146.32,7.46,4.05,7.46,4.04,-4.04,-3.89,-4.07,3.42,3.41,3.41
147.78,7.40,4.04,7.40,4.04,-4.04,-3.88,-4.03,3.36,3.36,3.36
149.26,7.35,4.05,7.34,4.03,-4.03,-3.86,-3.98,3.32,3.30,3.30
150.75,7.27,4.03,7.28,4.03,-4.03,-3.84,-3.94,3.24,3.25,3.24
152.26,7.22,4.02,7.22,4.03,-4.03,-3.82,-3.90,3.19,3.19,3.20
153.78,7.15,4.01,7.16,4.02,-4.02,-3.81,-3.85,3.13,3.14,3.14
155.32,7.10,4.01,7.10,4.02,-4.02,-3.79,-3.81,3.08,3.08,3.09
156.88,7.04,4.01,7.04,4.02,-4.02,-3.78,-3.77,3.02,3.03,3.03
158.44,6.99,4.02,6.99,4.01,-4.01,-3.77,-3.73,2.98,2.97,2.97
160.03,6.91,3.99,6.93,4.01,-4.01,-3.76,-3.70,2.90,2.92,2.92
161.63,6.87,4.01,6.87,4.01,-4.01,-3.75,-3.66,2.86,2.86,2.86
163.24,6.83,4.02,6.82,4.01,-4.01,-3.74,-3.63,2.82,2.81,2.81
164.88,6.77,4.02,6.76,4.01,-4.01,-3.74,-3.60,2.76,2.75,2.75
166.53,6.71,4.03,6.70,4.01,-4.01,-3.73,-3.57,2.70,2.69,2.68
168.19,6.66,4.02,6.65,4.01,-4.01,-3.73,-3.55,2.65,2.64,2.64
169.87,6.58,4.00,6.59,4.01,-4.01,-3.73,-3.52,2.57,2.58,2.58
171.57,6.53,4.01,6.54,4.02,-4.02,-3.73,-3.50,2.51,2.52,2.52
173.29,6.49,4.02,6.48,4.02,-4.02,-3.74,-3.49,2.47,2.46,2.47
175.02,6.42,4.01,6.42,4.02,-4.02,-3.75,-3.47,2.40,2.41,2.41
176.77,6.37,4.02,6.37,4.02,-4.02,-3.75,-3.46,2.35,2.35,2.35
178.54,6.31,4.01,6.31,4.02,-4.02,-3.77,-3.45,2.29,2.30,2.30
180.32,6.25,4.02,6.26,4.02,-4.02,-3.78,-3.44,2.23,2.24,2.23
182.13,6.21,4.02,6.20,4.02,-4.02,-3.79,-3.44,2.19,2.18,2.19
183.95,6.14,4.01,6.15,4.02,-4.02,-3.81,-3.44,2.12,2.13,2.13
185.79,6.10,4.03,6.09,4.02,-4.02,-3.83,-3.44,2.08,2.08,2.07
187.65,6.04,4.02,6.04,4.02,-4.02,-3.85,-3.44,2.02,2.02,2.02
189.52,5.98,4.01,5.99,4.01,-4.01,-3.87,-3.45,1.97,1.97,1.97
191.42,5.92,3.99,5.93,4.01,-4.01,-3.89,-3.46,1.91,1.92,1.93
193.33,5.88,4.00,5.88,4.01,-4.01,-3.91,-3.47,1.87,1.87,1.88
195.27,5.83,4.01,5.83,4.00,-4.00,-3.93,-3.48,1.83,1.83,1.82
197.22,5.79,4.02,5.77,3.99,-3.99,-3.96,-3.49,1.80,1.78,1.77
199.19,5.73,4.00,5.72,3.98,-3.98,-3.98,-3.51,1.75,1.74,1.73
201.18,5.67,3.99,5.67,3.97,-3.97,-4.00,-3.53,1.70,1.70,1.68
203.19,5.61,3.96,5.62,3.96,-3.96,-4.02,-3.55,1.65,1.65,1.65
205.23,5.56,3.94,5.57,3.95,-3.95,-4.03,-3.57,1.61,1.61,1.62
207.28,5.51,3.93,5.51,3.94,-3.94,-4.05,-3.59,1.57,1.57,1.58
209.35,5.46,3.92,5.46,3.92,-3.92,-4.06,-3.61,1.54,1.54,1.54
211.44,5.41,3.91,5.41,3.91,-3.91,-4.06,-3.63,1.50,1.50,1.50
213.56,5.34,3.86,5.35,3.89,-3.89,-4.07,-3.66,1.45,1.47,1.48
215.69,5.29,3.85,5.30,3.87,-3.87,-4.06,-3.68,1.42,1.43,1.44
217.85,5.24,3.84,5.25,3.84,-3.84,-4.05,-3.70,1.40,1.40,1.40
220.03,5.21,3.84,5.19,3.82,-3.82,-4.04,-3.72,1.39,1.37,1.37
222.23,5.16,3.82,5.14,3.80,-3.80,-4.02,-3.74,1.36,1.34,1.34
224.45,5.09,3.78,5.08,3.77,-3.77,-3.99,-3.76,1.32,1.31,1.31
226.70,5.02,3.74,5.03,3.74,-3.74,-3.96,-3.77,1.28,1.29,1.28
228.96,4.96,3.69,4.97,3.71,-3.71,-3.92,-3.78,1.25,1.26,1.27
231.25,4.92,3.68,4.91,3.67,-3.67,-3.88,-3.79,1.25,1.24,1.24
233.57,4.87,3.65,4.85,3.64,-3.64,-3.82,-3.80,1.23,1.22,1.22
235.90,4.80,3.60,4.79,3.60,-3.60,-3.77,-3.80,1.20,1.20,1.20
238.26,4.75,3.58,4.74,3.55,-3.55,-3.71,-3.80,1.20,1.18,1.17
240.64,4.67,3.50,4.68,3.51,-3.51,-3.64,-3.80,1.16,1.17,1.17
243.05,4.61,3.46,4.62,3.47,-3.47,-3.57,-3.79,1.14,1.15,1.15
245.48,4.55,3.41,4.56,3.42,-3.42,-3.49,-3.78,1.13,1.14,1.14
247.93,4.49,3.37,4.51,3.37,-3.37,-3.41,-3.76,1.11,1.13,1.12
250.41,4.45,3.32,4.45,3.33,-3.33,-3.33,-3.74,1.12,1.12,1.13
252.92,4.38,3.26,4.40,3.28,-3.28,-3.25,-3.71,1.10,1.12,1.12
255.45,4.34,3.23,4.34,3.23,-3.23,-3.17,-3.68,1.11,1.11,1.11
258.00,4.29,3.19,4.29,3.19,-3.19,-3.08,-3.65,1.10,1.10,1.10
260.58,4.24,3.14,4.23,3.14,-3.14,-2.99,-3.61,1.10,1.09,1.10
263.19,4.20,3.11,4.18,3.09,-3.09,-2.91,-3.56,1.11,1.09,1.09
265.82,4.14,3.06,4.13,3.05,-3.05,-2.82,-3.51,1.09,1.08,1.08
268.48,4.08,3.00,4.08,3.00,-3.00,-2.74,-3.46,1.08,1.08,1.08
271.16,4.02,2.94,4.02,2.95,-2.95,-2.65,-3.40,1.07,1.07,1.08
273.87,3.95,2.88,3.97,2.90,-2.90,-2.57,-3.34,1.05,1.07,1.07
276.61,3.91,2.84,3.92,2.85,-2.85,-2.48,-3.28,1.06,1.06,1.07
279.38,3.87,2.82,3.86,2.81,-2.81,-2.40,-3.21,1.06,1.06,1.05
282.17,3.82,2.78,3.81,2.76,-2.76,-2.32,-3.14,1.06,1.06,1.04
284.99,3.78,2.72,3.76,2.71,-2.71,-2.25,-3.07,1.07,1.06,1.06
287.84,3.70,2.64,3.71,2.66,-2.66,-2.17,-3.00,1.04,1.05,1.06
290.72,3.65,2.60,3.66,2.61,-2.61,-2.10,-2.93,1.04,1.05,1.05
293.63,3.60,2.54,3.62,2.56,-2.56,-2.02,-2.85,1.04,1.06,1.06
296.57,3.56,2.50,3.57,2.51,-2.51,-1.95,-2.78,1.05,1.06,1.06
299.53,3.53,2.47,3.53,2.46,-2.46,-1.89,-2.70,1.07,1.06,1.06
302.53,3.49,2.42,3.48,2.42,-2.42,-1.82,-2.62,1.07,1.07,1.07
305.55,3.44,2.37,3.44,2.37,-2.37,-1.76,-2.55,1.07,1.07,1.07
308.61,3.39,2.31,3.39,2.32,-2.32,-1.69,-2.47,1.07,1.07,1.08
311.69,3.34,2.26,3.35,2.26,-2.26,-1.63,-2.39,1.08,1.08,1.08
314.81,3.31,2.23,3.30,2.22,-2.22,-1.57,-2.31,1.09,1.09,1.08
317.96,3.27,2.18,3.26,2.17,-2.17,-1.52,-2.24,1.10,1.09,1.09
321.14,3.22,2.12,3.22,2.12,-2.12,-1.46,-2.16,1.10,1.10,1.10
324.35,3.17,2.07,3.17,2.07,-2.07,-1.41,-2.09,1.10,1.10,1.10
327.59,3.13,2.01,3.13,2.02,-2.02,-1.36,-2.01,1.11,1.11,1.12
330.87,3.08,1.97,3.08,1.97,-1.97,-1.31,-1.94,1.11,1.12,1.11
334.18,3.03,1.91,3.04,1.91,-1.91,-1.26,-1.87,1.12,1.12,1.12
337.52,2.98,1.86,2.99,1.86,-1.86,-1.21,-1.79,1.12,1.13,1.12
340.90,2.94,1.80,2.94,1.81,-1.81,-1.16,-1.72,1.13,1.14,1.14
344.30,2.90,1.76,2.90,1.76,-1.76,-1.12,-1.65,1.14,1.14,1.14
347.75,2.86,1.71,2.85,1.70,-1.70,-1.08,-1.59,1.16,1.15,1.15
351.23,2.81,1.66,2.80,1.65,-1.65,-1.03,-1.52,1.16,1.15,1.15
354.74,2.77,1.60,2.76,1.59,-1.59,-0.99,-1.45,1.18,1.16,1.17
358.28,2.71,1.54,2.71,1.54,-1.54,-0.95,-1.39,1.17,1.17,1.17
361.87,2.67,1.50,2.67,1.49,-1.49,-0.91,-1.32,1.18,1.17,1.17
365.49,2.63,1.45,2.63,1.44,-1.44,-0.87,-1.26,1.19,1.18,1.18
369.14,2.57,1.37,2.58,1.39,-1.39,-0.84,-1.20,1.18,1.19,1.20
372.83,2.53,1.33,2.54,1.35,-1.35,-0.80,-1.14,1.18,1.20,1.20
376.56,2.48,1.28,2.50,1.30,-1.30,-0.76,-1.08,1.18,1.20,1.20
380.33,2.45,1.24,2.46,1.25,-1.25,-0.73,-1.02,1.20,1.21,1.21
384.13,2.42,1.20,2.42,1.20,-1.20,-0.70,-0.96,1.22,1.22,1.22
387.97,2.39,1.16,2.38,1.15,-1.15,-0.66,-0.91,1.24,1.23,1.23
391.85,2.36,1.12,2.34,1.10,-1.10,-0.63,-0.85,1.26,1.24,1.24
395.77,2.32,1.08,2.30,1.06,-1.06,-0.60,-0.80,1.26,1.25,1.24
399.73,2.28,1.03,2.27,1.01,-1.01,-0.57,-0.75,1.27,1.26,1.25
403.72,2.23,0.95,2.24,0.97,-0.97,-0.53,-0.69,1.26,1.27,1.28
407.76,2.19,0.91,2.21,0.93,-0.93,-0.50,-0.64,1.26,1.28,1.28
411.84,2.15,0.87,2.17,0.89,-0.89,-0.47,-0.59,1.26,1.28,1.28
415.96,2.13,0.83,2.14,0.85,-0.85,-0.44,-0.54,1.28,1.29,1.30
420.12,2.10,0.80,2.11,0.81,-0.81,-0.42,-0.49,1.29,1.30,1.30
424.32,2.08,0.77,2.08,0.77,-0.77,-0.39,-0.45,1.31,1.31,1.31
428.56,2.07,0.74,2.05,0.73,-0.73,-0.36,-0.40,1.34,1.32,1.33
432.85,2.03,0.70,2.02,0.69,-0.69,-0.33,-0.35,1.34,1.33,1.33
437.18,2.00,0.67,1.99,0.65,-0.65,-0.30,-0.31,1.35,1.34,1.33
441.55,1.96,0.62,1.96,0.62,-0.62,-0.27,-0.26,1.34,1.34,1.34
445.96,1.93,0.58,1.93,0.58,-0.58,-0.24,-0.22,1.35,1.35,1.35
450.42,1.89,0.53,1.91,0.55,-0.55,-0.22,-0.18,1.34,1.36,1.36
454.93,1.86,0.50,1.88,0.51,-0.51,-0.19,-0.14,1.35,1.37,1.36
459.48,1.83,0.46,1.84,0.47,-0.47,-0.16,-0.10,1.36,1.38,1.37
464.07,1.82,0.43,1.81,0.42,-0.42,-0.13,-0.06,1.40,1.39,1.39
468.71,1.80,0.40,1.78,0.38,-0.38,-0.11,-0.02,1.42,1.40,1.40
473.40,1.76,0.35,1.74,0.34,-0.34,-0.08,0.01,1.42,1.40,1.41
478.13,1.72,0.30,1.71,0.29,-0.29,-0.05,0.05,1.43,1.41,1.42
482.91,1.68,0.25,1.68,0.25,-0.25,-0.02,0.08,1.43,1.43,1.43
487.74,1.63,0.20,1.64,0.21,-0.21,0.01,0.12,1.42,1.44,1.43
492.62,1.59,0.15,1.61,0.16,-0.16,0.03,0.15,1.43,1.45,1.44
