frequency,raw,error,smoothed,error_smoothed,equalization,parametric_eq,fixed_band_eq,equalized_raw,equalized_smoothed,target
20.00,-1.11,-6.37,-1.10,-6.39,6.39,5.99,1.05,5.28,5.29,5.26
20.20,-0.97,-6.28,-0.97,-6.30,6.30,6.04,1.08,5.32,5.33,5.31
20.40,-0.83,-6.19,-0.83,-6.19,6.19,6.06,1.11,5.36,5.37,5.36
20.61,-0.69,-6.09,-0.69,-6.09,6.09,6.07,1.15,5.40,5.40,5.39
20.81,-0.55,-5.99,-0.56,-5.99,5.99,6.06,1.18,5.44,5.43,5.44
21.02,-0.41,-5.89,-0.42,-5.88,5.88,6.03,1.22,5.47,5.46,5.48
21.23,-0.28,-5.78,-0.29,-5.77,5.77,5.98,1.26,5.49,5.48,5.50
21.44,-0.16,-5.68,-0.16,-5.66,5.66,5.91,1.30,5.50,5.51,5.52
21.66,-0.03,-5.58,-0.03,-5.55,5.55,5.83,1.34,5.52,5.53,5.54
21.87,0.10,-5.45,0.10,-5.44,5.44,5.73,1.38,5.54,5.54,5.55
22.09,0.23,-5.34,0.24,-5.33,5.33,5.62,1.43,5.56,5.56,5.57
22.31,0.36,-5.22,0.36,-5.21,5.21,5.50,1.47,5.57,5.57,5.58
22.54,0.49,-5.10,0.49,-5.09,5.09,5.37,1.52,5.57,5.58,5.58
22.76,0.62,-4.96,0.62,-4.96,4.96,5.24,1.56,5.58,5.58,5.58
22.99,0.75,-4.82,0.75,-4.83,4.83,5.09,1.61,5.58,5.59,5.57
23.22,0.88,-4.69,0.88,-4.71,4.71,4.95,1.66,5.59,5.59,5.57
23.45,1.00,-4.57,1.00,-4.58,4.58,4.80,1.71,5.58,5.59,5.57
23.69,1.13,-4.46,1.13,-4.46,4.46,4.65,1.76,5.59,5.59,5.58
23.92,1.25,-4.33,1.25,-4.34,4.34,4.50,1.81,5.59,5.59,5.58
24.16,1.37,-4.21,1.37,-4.22,4.22,4.34,1.87,5.59,5.59,5.58
24.40,1.49,-4.10,1.49,-4.10,4.10,4.19,1.92,5.59,5.59,5.59
24.65,1.62,-3.97,1.61,-3.98,3.98,4.05,1.97,5.60,5.58,5.58
24.89,1.74,-3.84,1.72,-3.86,3.86,3.90,2.03,5.60,5.59,5.58
25.14,1.85,-3.73,1.84,-3.75,3.75,3.76,2.08,5.60,5.59,5.58
25.39,1.95,-3.64,1.95,-3.64,3.64,3.62,2.14,5.59,5.59,5.59
25.65,2.04,-3.55,2.06,-3.53,3.53,3.48,2.19,5.56,5.59,5.59
25.91,2.14,-3.45,2.17,-3.42,3.42,3.35,2.25,5.55,5.59,5.58
26.16,2.26,-3.32,2.28,-3.31,3.31,3.22,2.30,5.57,5.59,5.58
26.43,2.38,-3.21,2.38,-3.20,3.20,3.10,2.36,5.58,5.58,5.58
26.69,2.51,-3.07,2.49,-3.10,3.10,2.98,2.41,5.61,5.58,5.58
26.96,2.63,-2.96,2.59,-2.99,2.99,2.86,2.46,5.62,5.58,5.58
27.23,2.72,-2.87,2.69,-2.89,2.89,2.75,2.51,5.60,5.58,5.58
27.50,2.80,-2.78,2.80,-2.78,2.78,2.64,2.56,5.58,5.58,5.58
27.77,2.88,-2.69,2.90,-2.68,2.68,2.54,2.60,5.56,5.58,5.57
28.05,2.97,-2.60,3.00,-2.57,2.57,2.44,2.65,5.54,5.57,5.57
28.33,3.08,-2.48,3.11,-2.47,2.47,2.34,2.69,5.55,5.57,5.56
28.62,3.19,-2.38,3.21,-2.36,2.36,2.25,2.72,5.55,5.57,5.56
28.90,3.30,-2.27,3.30,-2.27,2.27,2.16,2.76,5.57,5.57,5.57
29.19,3.40,-2.16,3.40,-2.17,2.17,2.07,2.79,5.57,5.57,5.56
29.48,3.50,-2.07,3.49,-2.08,2.08,1.99,2.81,5.58,5.57,5.57
29.78,3.60,-1.96,3.57,-1.99,1.99,1.91,2.83,5.59,5.57,5.56
30.08,3.69,-1.89,3.66,-1.91,1.91,1.83,2.85,5.59,5.56,5.57
30.38,3.77,-1.80,3.74,-1.82,1.82,1.76,2.86,5.59,5.56,5.56
30.68,3.85,-1.71,3.83,-1.73,1.73,1.69,2.86,5.58,5.56,5.56
30.99,3.93,-1.63,3.91,-1.65,1.65,1.62,2.86,5.57,5.56,5.56
31.30,3.99,-1.56,4.00,-1.56,1.56,1.56,2.86,5.55,5.56,5.55
31.61,4.05,-1.50,4.08,-1.47,1.47,1.49,2.85,5.52,5.55,5.55
31.93,4.12,-1.43,4.16,-1.39,1.39,1.43,2.84,5.51,5.55,5.55
32.24,4.20,-1.34,4.24,-1.30,1.30,1.37,2.81,5.50,5.55,5.54
32.57,4.28,-1.26,4.32,-1.22,1.22,1.32,2.79,5.50,5.54,5.54
32.89,4.37,-1.17,4.40,-1.14,1.14,1.26,2.76,5.51,5.54,5.54
33.22,4.47,-1.06,4.47,-1.06,1.06,1.21,2.72,5.53,5.53,5.53
33.55,4.57,-0.96,4.54,-0.99,0.99,1.16,2.68,5.56,5.53,5.53
33.89,4.68,-0.84,4.60,-0.92,0.92,1.11,2.64,5.60,5.52,5.52
34.23,4.73,-0.79,4.67,-0.85,0.85,1.07,2.59,5.58,5.52,5.52
34.57,4.77,-0.74,4.73,-0.79,0.79,1.02,2.54,5.56,5.52,5.51
34.92,4.80,-0.71,4.79,-0.72,0.72,0.98,2.48,5.52,5.51,5.51
35.27,4.84,-0.66,4.85,-0.66,0.66,0.93,2.43,5.50,5.51,5.50
35.62,4.88,-0.62,4.89,-0.61,0.61,0.89,2.37,5.49,5.51,5.50
35.97,4.92,-0.58,4.94,-0.57,0.57,0.85,2.30,5.48,5.50,5.50
36.33,4.95,-0.55,4.98,-0.52,0.52,0.81,2.24,5.47,5.50,5.50
36.70,4.98,-0.51,5.02,-0.48,0.48,0.78,2.17,5.46,5.50,5.49
37.06,5.02,-0.47,5.06,-0.44,0.44,0.74,2.10,5.46,5.50,5.49
37.43,5.10,-0.40,5.10,-0.40,0.40,0.70,2.03,5.50,5.50,5.50
37.81,5.17,-0.33,5.14,-0.37,0.37,0.67,1.96,5.53,5.50,5.50
38.19,5.21,-0.28,5.17,-0.33,0.33,0.64,1.89,5.54,5.50,5.49
38.57,5.21,-0.29,5.21,-0.29,0.29,0.60,1.82,5.50,5.50,5.50
38.95,5.21,-0.30,5.25,-0.25,0.25,0.57,1.75,5.46,5.50,5.51
39.34,5.27,-0.23,5.28,-0.22,0.22,0.54,1.68,5.49,5.50,5.50
39.74,5.34,-0.16,5.32,-0.19,0.19,0.51,1.60,5.53,5.50,5.50
40.14,5.38,-0.12,5.35,-0.15,0.15,0.48,1.53,5.53,5.50,5.50
40.54,5.40,-0.10,5.38,-0.12,0.12,0.46,1.46,5.52,5.50,5.50
40.94,5.41,-0.08,5.40,-0.09,0.09,0.43,1.39,5.50,5.50,5.49
41.35,5.41,-0.08,5.42,-0.07,0.07,0.40,1.32,5.48,5.49,5.49
41.76,5.41,-0.07,5.44,-0.04,0.04,0.37,1.25,5.45,5.48,5.48
42.18,5.43,-0.05,5.46,-0.02,0.02,0.35,1.18,5.45,5.48,5.48
42.60,5.47,-0.00,5.47,0.00,-0.00,0.32,1.11,5.47,5.47,5.47
43.03,5.51,0.05,5.48,0.03,-0.03,0.30,1.04,5.48,5.45,5.46
43.46,5.51,0.06,5.49,0.05,-0.05,0.27,0.97,5.46,5.44,5.45
43.90,5.51,0.08,5.50,0.07,-0.07,0.25,0.90,5.44,5.43,5.43
44.33,5.51,0.10,5.50,0.08,-0.08,0.23,0.83,5.43,5.42,5.41
44.78,5.51,0.12,5.51,0.10,-0.10,0.20,0.77,5.41,5.41,5.39
45.23,5.51,0.13,5.51,0.12,-0.12,0.18,0.70,5.39,5.39,5.38
45.68,5.51,0.14,5.51,0.14,-0.14,0.16,0.64,5.37,5.38,5.37
46.13,5.51,0.16,5.52,0.15,-0.15,0.14,0.57,5.36,5.36,5.35
46.60,5.51,0.16,5.52,0.17,-0.17,0.12,0.51,5.34,5.35,5.35
47.06,5.51,0.18,5.51,0.18,-0.18,0.09,0.45,5.33,5.33,5.33
47.53,5.51,0.19,5.51,0.19,-0.19,0.07,0.39,5.32,5.32,5.32
48.01,5.51,0.19,5.51,0.20,-0.20,0.05,0.32,5.31,5.31,5.32
48.49,5.51,0.21,5.51,0.22,-0.22,0.03,0.26,5.29,5.29,5.30
48.97,5.51,0.23,5.51,0.23,-0.23,0.01,0.20,5.28,5.28,5.28
49.46,5.51,0.25,5.51,0.25,-0.25,-0.01,0.14,5.26,5.27,5.26
49.96,5.51,0.27,5.52,0.27,-0.27,-0.03,0.09,5.24,5.25,5.24
50.46,5.51,0.28,5.52,0.28,-0.28,-0.05,0.03,5.23,5.24,5.23
50.96,5.51,0.29,5.52,0.30,-0.30,-0.06,-0.03,5.21,5.23,5.22
51.47,5.51,0.31,5.52,0.30,-0.30,-0.08,-0.08,5.21,5.21,5.20
51.99,5.51,0.32,5.51,0.31,-0.31,-0.10,-0.14,5.20,5.20,5.19
52.51,5.51,0.33,5.50,0.31,-0.31,-0.12,-0.19,5.20,5.19,5.18
53.03,5.51,0.33,5.48,0.31,-0.31,-0.14,-0.25,5.20,5.17,5.18
53.56,5.51,0.35,5.47,0.31,-0.31,-0.16,-0.30,5.20,5.16,5.16
54.10,5.50,0.35,5.45,0.30,-0.30,-0.18,-0.35,5.20,5.15,5.15
54.64,5.47,0.34,5.43,0.29,-0.29,-0.19,-0.40,5.18,5.14,5.13
55.18,5.43,0.30,5.42,0.29,-0.29,-0.21,-0.45,5.14,5.13,5.13
55.74,5.36,0.25,5.40,0.28,-0.28,-0.23,-0.49,5.08,5.12,5.11
56.29,5.32,0.22,5.38,0.27,-0.27,-0.25,-0.54,5.04,5.11,5.10
56.86,5.31,0.22,5.36,0.27,-0.27,-0.27,-0.58,5.04,5.09,5.09
57.42,5.31,0.25,5.35,0.27,-0.27,-0.28,-0.62,5.04,5.08,5.06
58.00,5.31,0.26,5.33,0.27,-0.27,-0.30,-0.67,5.04,5.06,5.05
58.58,5.31,0.27,5.31,0.27,-0.27,-0.32,-0.70,5.04,5.03,5.04
59.16,5.31,0.29,5.29,0.28,-0.28,-0.34,-0.74,5.03,5.01,5.02
59.76,5.31,0.31,5.27,0.29,-0.29,-0.35,-0.78,5.02,4.98,5.00
60.35,5.29,0.33,5.25,0.30,-0.30,-0.37,-0.81,4.99,4.95,4.96
60.96,5.26,0.34,5.24,0.32,-0.32,-0.39,-0.84,4.94,4.92,4.92
61.57,5.23,0.35,5.23,0.35,-0.35,-0.41,-0.87,4.88,4.88,4.88
62.18,5.21,0.37,5.22,0.37,-0.37,-0.43,-0.89,4.83,4.84,4.84
62.80,5.20,0.41,5.20,0.40,-0.40,-0.44,-0.92,4.80,4.80,4.79
63.43,5.16,0.41,5.18,0.42,-0.42,-0.46,-0.94,4.74,4.76,4.75
64.07,5.11,0.41,5.15,0.44,-0.44,-0.48,-0.96,4.67,4.71,4.70
64.71,5.11,0.45,5.13,0.46,-0.46,-0.50,-0.98,4.65,4.67,4.66
65.35,5.11,0.49,5.10,0.48,-0.48,-0.51,-1.00,4.63,4.62,4.62
66.01,5.11,0.54,5.07,0.50,-0.50,-0.53,-1.01,4.61,4.58,4.57
66.67,5.08,0.56,5.05,0.52,-0.52,-0.55,-1.03,4.56,4.53,4.52
67.33,5.04,0.57,5.02,0.54,-0.54,-0.57,-1.04,4.50,4.48,4.47
68.01,5.01,0.58,5.00,0.57,-0.57,-0.59,-1.05,4.44,4.43,4.43
68.69,4.95,0.57,4.98,0.60,-0.60,-0.60,-1.06,4.35,4.38,4.38
69.37,4.92,0.59,4.95,0.62,-0.62,-0.62,-1.07,4.30,4.33,4.33
70.07,4.91,0.63,4.93,0.65,-0.65,-0.64,-1.08,4.26,4.28,4.28
70.77,4.91,0.68,4.91,0.68,-0.68,-0.66,-1.08,4.22,4.22,4.23
71.48,4.89,0.71,4.88,0.72,-0.72,-0.68,-1.09,4.17,4.17,4.18
72.19,4.86,0.75,4.86,0.75,-0.75,-0.69,-1.09,4.11,4.11,4.11
72.91,4.82,0.77,4.84,0.78,-0.78,-0.71,-1.10,4.04,4.06,4.05
73.64,4.81,0.81,4.81,0.81,-0.81,-0.73,-1.10,4.00,4.00,4.00
74.38,4.81,0.87,4.79,0.84,-0.84,-0.75,-1.11,3.97,3.95,3.94
75.12,4.80,0.92,4.76,0.87,-0.87,-0.77,-1.11,3.93,3.89,3.88
75.87,4.72,0.90,4.74,0.90,-0.90,-0.79,-1.11,3.82,3.83,3.82
76.63,4.71,0.94,4.71,0.93,-0.93,-0.81,-1.12,3.78,3.78,3.77
77.40,4.71,0.99,4.69,0.96,-0.96,-0.82,-1.12,3.75,3.72,3.72
78.17,4.69,1.03,4.66,0.99,-0.99,-0.84,-1.13,3.70,3.67,3.66
78.95,4.61,0.99,4.64,1.02,-1.02,-0.86,-1.13,3.59,3.62,3.62
79.74,4.61,1.04,4.61,1.04,-1.04,-0.88,-1.14,3.57,3.57,3.57
80.54,4.56,1.04,4.58,1.06,-1.06,-0.90,-1.14,3.50,3.52,3.52
81.35,4.51,1.04,4.56,1.08,-1.08,-0.92,-1.15,3.43,3.48,3.47
82.16,4.51,1.09,4.52,1.10,-1.10,-0.94,-1.16,3.41,3.43,3.42
82.98,4.51,1.13,4.49,1.11,-1.11,-0.96,-1.17,3.40,3.38,3.38
83.81,4.51,1.18,4.46,1.13,-1.13,-0.98,-1.18,3.38,3.33,3.33
84.65,4.48,1.20,4.43,1.15,-1.15,-1.00,-1.19,3.33,3.28,3.28
85.50,4.44,1.20,4.40,1.17,-1.17,-1.02,-1.20,3.27,3.24,3.24
86.35,4.37,1.18,4.38,1.19,-1.19,-1.04,-1.21,3.18,3.19,3.19
87.22,4.31,1.17,4.35,1.22,-1.22,-1.06,-1.22,3.09,3.14,3.14
88.09,4.31,1.22,4.33,1.24,-1.24,-1.08,-1.23,3.07,3.09,3.09
88.97,4.31,1.28,4.30,1.27,-1.27,-1.10,-1.25,3.04,3.04,3.03
89.86,4.25,1.27,4.28,1.29,-1.29,-1.12,-1.26,2.96,2.98,2.98
90.76,4.22,1.29,4.26,1.33,-1.33,-1.14,-1.28,2.89,2.93,2.93
91.66,4.21,1.33,4.24,1.36,-1.36,-1.17,-1.30,2.85,2.88,2.88
92.58,4.22,1.40,4.22,1.38,-1.38,-1.19,-1.32,2.84,2.83,2.82
93.51,4.22,1.45,4.19,1.41,-1.41,-1.21,-1.34,2.81,2.78,2.77
94.44,4.20,1.47,4.17,1.44,-1.44,-1.23,-1.36,2.76,2.73,2.73
95.39,4.15,1.47,4.15,1.47,-1.47,-1.25,-1.38,2.68,2.68,2.68
96.34,4.11,1.48,4.13,1.50,-1.50,-1.27,-1.40,2.61,2.63,2.63
97.30,4.10,1.52,4.10,1.52,-1.52,-1.29,-1.42,2.58,2.58,2.58
98.28,4.09,1.56,4.07,1.53,-1.53,-1.32,-1.45,2.56,2.54,2.53
99.26,4.08,1.59,4.03,1.54,-1.54,-1.34,-1.47,2.54,2.49,2.49
100.25,4.04,1.60,3.99,1.55,-1.55,-1.36,-1.50,2.49,2.44,2.44
101.25,3.92,1.53,3.93,1.54,-1.54,-1.38,-1.52,2.38,2.39,2.39
102.27,3.83,1.49,3.87,1.53,-1.53,-1.41,-1.55,2.30,2.34,2.34
103.29,3.82,1.53,3.81,1.51,-1.51,-1.43,-1.58,2.31,2.30,2.29
104.32,3.80,1.55,3.75,1.50,-1.50,-1.45,-1.60,2.30,2.25,2.25
105.37,3.73,1.53,3.68,1.49,-1.49,-1.47,-1.63,2.24,2.20,2.20
106.42,3.60,1.45,3.62,1.47,-1.47,-1.50,-1.66,2.13,2.14,2.15
107.48,3.53,1.44,3.55,1.45,-1.45,-1.52,-1.69,2.07,2.09,2.09
108.56,3.47,1.43,3.48,1.44,-1.44,-1.54,-1.72,2.03,2.04,2.04
109.64,3.39,1.40,3.41,1.42,-1.42,-1.57,-1.74,1.97,1.99,1.99
110.74,3.30,1.37,3.34,1.41,-1.41,-1.59,-1.77,1.89,1.94,1.93
111.85,3.25,1.36,3.28,1.39,-1.39,-1.61,-1.80,1.86,1.89,1.89
112.97,3.23,1.40,3.22,1.38,-1.38,-1.64,-1.82,1.85,1.84,1.83
114.10,3.22,1.44,3.16,1.37,-1.37,-1.66,-1.85,1.85,1.79,1.78
115.24,3.15,1.42,3.11,1.37,-1.37,-1.68,-1.87,1.78,1.74,1.73
116.39,3.08,1.40,3.08,1.38,-1.38,-1.71,-1.90,1.70,1.69,1.68
117.55,3.03,1.39,3.05,1.40,-1.40,-1.73,-1.92,1.63,1.65,1.64
118.73,3.03,1.43,3.04,1.43,-1.43,-1.76,-1.94,1.60,1.61,1.60
119.92,2.99,1.42,3.04,1.46,-1.46,-1.78,-1.96,1.53,1.57,1.57
121.12,2.95,1.42,3.04,1.50,-1.50,-1.81,-1.98,1.45,1.54,1.53
122.33,2.95,1.45,3.04,1.54,-1.54,-1.83,-2.00,1.41,1.50,1.50
123.55,3.00,1.53,3.06,1.59,-1.59,-1.85,-2.01,1.41,1.47,1.47
124.79,3.08,1.64,3.07,1.63,-1.63,-1.88,-2.03,1.45,1.44,1.44
126.03,3.17,1.76,3.09,1.68,-1.68,-1.90,-2.04,1.49,1.41,1.41
127.29,3.18,1.79,3.11,1.73,-1.73,-1.93,-2.05,1.45,1.38,1.39
128.57,3.19,1.84,3.13,1.78,-1.78,-1.95,-2.06,1.41,1.35,1.35
129.85,3.20,1.88,3.15,1.83,-1.83,-1.98,-2.07,1.37,1.32,1.32
131.15,3.20,1.91,3.18,1.88,-1.88,-2.00,-2.08,1.32,1.29,1.29
132.46,3.21,1.95,3.20,1.93,-1.93,-2.03,-2.09,1.28,1.27,1.26
133.79,3.21,1.98,3.22,1.98,-1.98,-2.05,-2.09,1.23,1.24,1.23
135.12,3.22,2.02,3.24,2.03,-2.03,-2.08,-2.10,1.19,1.21,1.20
136.48,3.22,2.04,3.25,2.07,-2.07,-2.10,-2.10,1.15,1.18,1.18
137.84,3.22,2.08,3.26,2.10,-2.10,-2.13,-2.11,1.12,1.15,1.14
139.22,3.22,2.11,3.26,2.14,-2.14,-2.15,-2.11,1.08,1.13,1.11
140.61,3.22,2.14,3.27,2.17,-2.17,-2.18,-2.11,1.05,1.10,1.08
142.02,3.31,2.25,3.28,2.22,-2.22,-2.20,-2.11,1.09,1.06,1.06
143.44,3.34,2.31,3.29,2.26,-2.26,-2.22,-2.12,1.08,1.03,1.03
144.87,3.33,2.34,3.30,2.31,-2.31,-2.25,-2.12,1.02,0.99,0.99
146.32,3.32,2.37,3.32,2.37,-2.37,-2.27,-2.12,0.95,0.95,0.95
147.78,3.32,2.40,3.33,2.43,-2.43,-2.30,-2.13,0.88,0.90,0.92
149.26,3.35,2.48,3.34,2.50,-2.50,-2.32,-2.13,0.85,0.84,0.87
150.75,3.34,2.53,3.35,2.57,-2.57,-2.35,-2.13,0.77,0.79,0.81
152.26,3.33,2.59,3.36,2.63,-2.63,-2.37,-2.14,0.70,0.72,0.74
153.78,3.33,2.66,3.35,2.70,-2.70,-2.40,-2.15,0.63,0.66,0.67
155.32,3.33,2.73,3.34,2.75,-2.75,-2.42,-2.15,0.57,0.59,0.60
156.88,3.33,2.81,3.32,2.80,-2.80,-2.45,-2.16,0.52,0.52,0.52
158.44,3.33,2.89,3.29,2.85,-2.85,-2.47,-2.17,0.48,0.45,0.44
160.03,3.33,2.97,3.26,2.88,-2.88,-2.50,-2.18,0.45,0.38,0.36
161.63,3.33,3.04,3.23,2.91,-2.91,-2.52,-2.20,0.42,0.32,0.29
163.24,3.23,3.00,3.19,2.94,-2.94,-2.54,-2.21,0.29,0.25,0.23
164.88,3.15,2.97,3.15,2.95,-2.95,-2.57,-2.22,0.20,0.20,0.18
166.53,3.10,2.97,3.10,2.95,-2.95,-2.59,-2.24,0.15,0.15,0.13
168.19,3.04,2.95,3.05,2.94,-2.94,-2.62,-2.26,0.10,0.11,0.09
169.87,3.00,2.95,3.01,2.94,-2.94,-2.64,-2.28,0.06,0.08,0.05
171.57,2.91,2.88,2.98,2.93,-2.93,-2.66,-2.30,-0.02,0.05,0.03
173.29,2.89,2.87,2.95,2.91,-2.91,-2.69,-2.33,-0.02,0.03,0.02
175.02,2.88,2.87,2.92,2.90,-2.90,-2.71,-2.35,-0.02,0.02,0.01
176.77,2.88,2.88,2.90,2.90,-2.90,-2.73,-2.38,-0.02,0.01,0.00
178.54,2.88,2.89,2.89,2.89,-2.89,-2.76,-2.41,-0.01,0.00,-0.01
180.32,2.88,2.88,2.90,2.90,-2.90,-2.78,-2.44,-0.02,-0.00,0.00
182.13,2.89,2.88,2.91,2.92,-2.92,-2.80,-2.48,-0.03,-0.01,0.01
183.95,2.91,2.91,2.93,2.95,-2.95,-2.82,-2.51,-0.04,-0.02,0.00
185.79,3.00,3.00,2.96,2.98,-2.98,-2.85,-2.55,0.02,-0.02,0.00
187.65,3.03,3.05,2.99,3.02,-3.02,-2.87,-2.59,0.01,-0.03,-0.02
189.52,3.04,3.07,3.02,3.06,-3.06,-2.89,-2.63,-0.02,-0.04,-0.03
191.42,3.05,3.10,3.05,3.10,-3.10,-2.91,-2.67,-0.05,-0.05,-0.05
193.33,3.07,3.14,3.08,3.15,-3.15,-2.93,-2.71,-0.08,-0.07,-0.07
195.27,3.08,3.17,3.11,3.19,-3.19,-2.95,-2.76,-0.11,-0.08,-0.09
197.22,3.13,3.24,3.13,3.24,-3.24,-2.97,-2.81,-0.11,-0.10,-0.11
199.19,3.19,3.32,3.16,3.28,-3.28,-2.99,-2.85,-0.09,-0.12,-0.13
201.18,3.22,3.37,3.17,3.32,-3.32,-3.01,-2.90,-0.10,-0.14,-0.15
203.19,3.22,3.39,3.19,3.35,-3.35,-3.03,-2.95,-0.13,-0.16,-0.17
205.23,3.19,3.38,3.20,3.38,-3.38,-3.05,-3.00,-0.19,-0.19,-0.19
207.28,3.20,3.40,3.20,3.41,-3.41,-3.07,-3.05,-0.21,-0.21,-0.20
209.35,3.22,3.44,3.21,3.43,-3.43,-3.09,-3.10,-0.21,-0.22,-0.22
211.44,3.22,3.47,3.21,3.45,-3.45,-3.11,-3.15,-0.24,-0.24,-0.25
213.56,3.21,3.47,3.21,3.47,-3.47,-3.13,-3.20,-0.26,-0.26,-0.26
215.69,3.21,3.48,3.21,3.48,-3.48,-3.15,-3.26,-0.27,-0.27,-0.27
217.85,3.21,3.49,3.21,3.49,-3.49,-3.17,-3.30,-0.28,-0.28,-0.28
220.03,3.20,3.49,3.21,3.50,-3.50,-3.18,-3.35,-0.30,-0.29,-0.29
222.23,3.20,3.52,3.20,3.50,-3.50,-3.20,-3.40,-0.30,-0.30,-0.32
224.45,3.20,3.51,3.20,3.50,-3.50,-3.22,-3.45,-0.30,-0.30,-0.31
226.70,3.20,3.51,3.21,3.51,-3.51,-3.23,-3.49,-0.31,-0.30,-0.31
228.96,3.21,3.51,3.21,3.51,-3.51,-3.25,-3.53,-0.30,-0.29,-0.30
231.25,3.21,3.50,3.22,3.50,-3.50,-3.26,-3.57,-0.29,-0.29,-0.29
233.57,3.22,3.50,3.22,3.50,-3.50,-3.28,-3.61,-0.28,-0.27,-0.28
235.90,3.23,3.50,3.23,3.49,-3.49,-3.29,-3.64,-0.26,-0.26,-0.27
238.26,3.25,3.51,3.25,3.49,-3.49,-3.31,-3.67,-0.24,-0.24,-0.26
240.64,3.27,3.50,3.27,3.49,-3.49,-3.32,-3.70,-0.22,-0.22,-0.23
243.05,3.28,3.48,3.29,3.49,-3.49,-3.34,-3.72,-0.21,-0.20,-0.20
245.48,3.30,3.48,3.31,3.48,-3.48,-3.35,-3.74,-0.19,-0.18,-0.18
247.93,3.33,3.48,3.33,3.48,-3.48,-3.36,-3.76,-0.15,-0.16,-0.15
250.41,3.35,3.48,3.35,3.48,-3.48,-3.37,-3.77,-0.14,-0.13,-0.13
252.92,3.36,3.46,3.38,3.49,-3.49,-3.39,-3.77,-0.13,-0.11,-0.10
255.45,3.38,3.46,3.40,3.49,-3.49,-3.40,-3.78,-0.11,-0.08,-0.08
258.00,3.44,3.50,3.43,3.49,-3.49,-3.41,-3.78,-0.05,-0.06,-0.06
260.58,3.49,3.53,3.45,3.49,-3.49,-3.42,-3.77,0.00,-0.03,-0.04
263.19,3.49,3.50,3.47,3.48,-3.48,-3.43,-3.77,0.01,-0.01,-0.01
265.82,3.49,3.48,3.50,3.48,-3.48,-3.44,-3.76,0.01,0.01,0.01
268.48,3.49,3.46,3.52,3.48,-3.48,-3.45,-3.74,0.01,0.04,0.03
271.16,3.55,3.49,3.53,3.47,-3.47,-3.46,-3.72,0.08,0.06,0.06
273.87,3.58,3.50,3.55,3.46,-3.46,-3.46,-3.71,0.12,0.09,0.08
276.61,3.58,3.47,3.56,3.45,-3.45,-3.47,-3.68,0.13,0.12,0.11
279.38,3.58,3.44,3.58,3.44,-3.44,-3.48,-3.66,0.14,0.14,0.14
282.17,3.58,3.42,3.59,3.42,-3.42,-3.49,-3.64,0.16,0.17,0.16
284.99,3.59,3.39,3.60,3.40,-3.40,-3.49,-3.61,0.19,0.20,0.20
287.84,3.60,3.38,3.61,3.38,-3.38,-3.50,-3.58,0.22,0.23,0.22
290.72,3.61,3.36,3.62,3.37,-3.37,-3.50,-3.55,0.24,0.26,0.25
293.63,3.62,3.34,3.64,3.35,-3.35,-3.51,-3.53,0.27,0.29,0.28
296.57,3.63,3.32,3.64,3.33,-3.33,-3.51,-3.50,0.30,0.31,0.31
299.53,3.64,3.30,3.64,3.30,-3.30,-3.52,-3.47,0.34,0.34,0.34
302.53,3.66,3.30,3.64,3.28,-3.28,-3.52,-3.44,0.38,0.37,0.36
305.55,3.67,3.27,3.65,3.25,-3.25,-3.52,-3.42,0.42,0.40,0.40
308.61,3.67,3.25,3.65,3.23,-3.23,-3.52,-3.39,0.44,0.42,0.42
311.69,3.68,3.23,3.65,3.20,-3.20,-3.53,-3.37,0.48,0.44,0.45
314.81,3.69,3.22,3.65,3.18,-3.18,-3.53,-3.35,0.51,0.47,0.47
317.96,3.69,3.20,3.65,3.17,-3.17,-3.53,-3.33,0.52,0.49,0.49
321.14,3.64,3.14,3.66,3.15,-3.15,-3.53,-3.31,0.49,0.51,0.50
324.35,3.60,3.08,3.66,3.14,-3.14,-3.53,-3.29,0.46,0.52,0.52
327.59,3.59,3.06,3.67,3.13,-3.13,-3.53,-3.27,0.46,0.54,0.53
330.87,3.65,3.11,3.68,3.13,-3.13,-3.52,-3.26,0.52,0.55,0.54
334.18,3.68,3.12,3.69,3.13,-3.13,-3.52,-3.25,0.55,0.56,0.56
337.52,3.68,3.11,3.70,3.13,-3.13,-3.52,-3.24,0.55,0.57,0.57
340.90,3.71,3.13,3.71,3.13,-3.13,-3.52,-3.24,0.58,0.58,0.58
344.30,3.77,3.18,3.72,3.14,-3.14,-3.51,-3.23,0.63,0.59,0.59
347.75,3.78,3.19,3.74,3.14,-3.14,-3.51,-3.23,0.64,0.59,0.59
351.23,3.78,3.18,3.75,3.15,-3.15,-3.50,-3.23,0.62,0.60,0.60
354.74,3.78,3.19,3.77,3.17,-3.17,-3.50,-3.24,0.61,0.60,0.59
358.28,3.79,3.19,3.79,3.19,-3.19,-3.49,-3.24,0.60,0.60,0.60
361.87,3.79,3.19,3.81,3.20,-3.20,-3.49,-3.25,0.59,0.61,0.60
365.49,3.80,3.19,3.82,3.21,-3.21,-3.48,-3.26,0.59,0.61,0.61
369.14,3.81,3.21,3.82,3.22,-3.22,-3.47,-3.28,0.59,0.61,0.60
372.83,3.81,3.21,3.83,3.22,-3.22,-3.47,-3.30,0.59,0.60,0.60
376.56,3.82,3.23,3.83,3.22,-3.22,-3.46,-3.31,0.59,0.60,0.59
380.33,3.83,3.23,3.82,3.22,-3.22,-3.45,-3.33,0.61,0.60,0.60
384.13,3.84,3.24,3.82,3.22,-3.22,-3.44,-3.36,0.62,0.60,0.60
387.97,3.84,3.25,3.81,3.22,-3.22,-3.43,-3.38,0.62,0.59,0.59
391.85,3.84,3.26,3.80,3.22,-3.22,-3.42,-3.41,0.62,0.59,0.58
395.77,3.85,3.26,3.79,3.21,-3.21,-3.41,-3.44,0.64,0.58,0.59
399.73,3.80,3.22,3.78,3.20,-3.20,-3.40,-3.47,0.60,0.57,0.58
403.72,3.75,3.17,3.76,3.20,-3.20,-3.39,-3.50,0.55,0.57,0.58
407.76,3.74,3.18,3.76,3.19,-3.19,-3.37,-3.53,0.55,0.56,0.56
411.84,3.74,3.18,3.75,3.19,-3.19,-3.36,-3.57,0.55,0.56,0.56
415.96,3.73,3.17,3.75,3.19,-3.19,-3.35,-3.60,0.54,0.56,0.56
420.12,3.74,3.18,3.76,3.19,-3.19,-3.33,-3.64,0.55,0.56,0.56
424.32,3.74,3.18,3.77,3.20,-3.20,-3.32,-3.67,0.54,0.57,0.56
428.56,3.75,3.18,3.79,3.21,-3.21,-3.31,-3.70,0.54,0.58,0.57
432.85,3.76,3.18,3.82,3.22,-3.22,-3.29,-3.74,0.54,0.60,0.58
437.18,3.81,3.22,3.86,3.24,-3.24,-3.27,-3.77,0.57,0.62,0.59
441.55,3.91,3.28,3.90,3.26,-3.26,-3.26,-3.80,0.65,0.64,0.63
445.96,3.97,3.31,3.95,3.28,-3.28,-3.24,-3.83,0.69,0.67,0.66
450.42,4.03,3.34,4.01,3.30,-3.30,-3.23,-3.86,0.73,0.71,0.69
454.93,4.08,3.34,4.07,3.32,-3.32,-3.21,-3.88,0.76,0.75,0.74
459.48,4.14,3.36,4.13,3.33,-3.33,-3.19,-3.90,0.81,0.79,0.78
464.07,4.21,3.38,4.19,3.35,-3.35,-3.17,-3.92,0.86,0.84,0.83
468.71,4.26,3.37,4.25,3.36,-3.36,-3.15,-3.94,0.90,0.89,0.89
473.40,4.32,3.39,4.31,3.37,-3.37,-3.13,-3.95,0.95,0.94,0.93
478.13,4.38,3.39,4.36,3.38,-3.38,-3.12,-3.95,1.00,0.99,0.99
482.91,4.42,3.39,4.42,3.39,-3.39,-3.10,-3.95,1.03,1.03,1.03
487.74,4.46,3.39,4.47,3.39,-3.39,-3.08,-3.95,1.07,1.07,1.07
492.62,4.50,3.38,4.51,3.40,-3.40,-3.05,-3.94,1.10,1.11,1.12
497.55,4.53,3.39,4.56,3.42,-3.42,-3.03,-3.93,1.11,1.14,1.14
502.52,4.55,3.38,4.59,3.43,-3.43,-3.01,-3.91,1.12,1.16,1.17
507.55,4.57,3.39,4.62,3.44,-3.44,-2.99,-3.88,1.12,1.18,1.18
512.62,4.65,3.46,4.64,3.45,-3.45,-2.97,-3.85,1.19,1.18,1.19
517.75,4.70,3.50,4.65,3.46,-3.46,-2.94,-3.82,1.23,1.18,1.20
522.93,4.69,3.50,4.65,3.48,-3.48,-2.92,-3.78,1.21,1.17,1.19
528.16,4.68,3.52,4.64,3.49,-3.49,-2.90,-3.73,1.19,1.15,1.16
533.44,4.67,3.54,4.62,3.50,-3.50,-2.87,-3.68,1.17,1.12,1.13
538.77,4.64,3.54,4.59,3.51,-3.51,-2.85,-3.63,1.13,1.08,1.10
544.16,4.60,3.55,4.55,3.51,-3.51,-2.83,-3.57,1.09,1.04,1.05
