frequency,raw,error,smoothed,error_smoothed,equalization,parametric_eq,fixed_band_eq,equalized_raw,equalized_smoothed,target
20.00,-15.98,-14.59,-15.98,-14.62,14.62,13.67,4.89,-1.36,-1.36,-1.39
20.20,-15.81,-14.51,-15.81,-14.53,14.53,13.74,5.01,-1.28,-1.28,-1.30
20.40,-15.64,-14.42,-15.64,-14.43,14.43,13.80,5.13,-1.21,-1.21,-1.22
20.61,-15.47,-14.33,-15.47,-14.33,14.33,13.85,5.26,-1.14,-1.14,-1.15
20.81,-15.30,-14.24,-15.30,-14.23,14.23,13.89,5.40,-1.07,-1.07,-1.06
21.02,-15.13,-14.15,-15.13,-14.13,14.13,13.91,5.53,-1.00,-1.00,-0.98
21.23,-14.96,-14.04,-14.96,-14.02,14.02,13.92,5.67,-0.94,-0.94,-0.92
21.44,-14.79,-13.93,-14.79,-13.91,13.91,13.91,5.81,-0.88,-0.88,-0.86
21.66,-14.62,-13.82,-14.62,-13.80,13.80,13.89,5.96,-0.82,-0.82,-0.81
21.87,-14.45,-13.69,-14.45,-13.68,13.68,13.86,6.11,-0.76,-0.76,-0.76
22.09,-14.28,-13.57,-14.28,-13.57,13.57,13.81,6.27,-0.71,-0.71,-0.71
22.31,-14.11,-13.45,-14.10,-13.45,13.45,13.75,6.43,-0.66,-0.66,-0.66
22.54,-13.93,-13.32,-13.93,-13.32,13.32,13.67,6.59,-0.61,-0.61,-0.62
22.76,-13.76,-13.18,-13.76,-13.19,13.19,13.59,6.76,-0.57,-0.57,-0.58
22.99,-13.59,-13.04,-13.59,-13.05,13.05,13.49,6.93,-0.54,-0.53,-0.55
23.22,-13.41,-12.90,-13.41,-12.92,12.92,13.38,7.11,-0.49,-0.50,-0.51
23.45,-13.24,-12.77,-13.24,-12.78,12.78,13.27,7.28,-0.46,-0.46,-0.47
23.69,-13.07,-12.65,-13.07,-12.65,12.65,13.14,7.47,-0.43,-0.42,-0.43
23.92,-12.90,-12.51,-12.89,-12.51,12.51,13.00,7.66,-0.39,-0.39,-0.39
24.16,-12.72,-12.38,-12.72,-12.37,12.37,12.86,7.85,-0.35,-0.35,-0.34
24.40,-12.55,-12.24,-12.55,-12.23,12.23,12.72,8.05,-0.31,-0.32,-0.31
24.65,-12.38,-12.10,-12.38,-12.09,12.09,12.56,8.24,-0.29,-0.28,-0.29
24.89,-12.20,-11.94,-12.20,-11.96,11.96,12.41,8.45,-0.24,-0.25,-0.26
25.14,-12.03,-11.81,-12.03,-11.82,11.82,12.24,8.65,-0.21,-0.22,-0.22
25.39,-11.86,-11.67,-11.86,-11.68,11.68,12.08,8.86,-0.18,-0.18,-0.19
25.65,-11.69,-11.54,-11.69,-11.54,11.54,11.91,9.08,-0.15,-0.15,-0.15
25.91,-11.52,-11.40,-11.52,-11.40,11.40,11.74,9.29,-0.12,-0.12,-0.13
26.16,-11.35,-11.25,-11.35,-11.26,11.26,11.57,9.51,-0.09,-0.09,-0.10
26.43,-11.18,-11.13,-11.18,-11.12,11.12,11.40,9.72,-0.07,-0.06,-0.06
26.69,-11.01,-10.98,-11.01,-10.98,10.98,11.22,9.94,-0.03,-0.03,-0.03
26.96,-10.84,-10.85,-10.84,-10.84,10.84,11.05,10.16,-0.00,0.00,0.00
27.23,-10.67,-10.71,-10.67,-10.70,10.70,10.88,10.37,0.03,0.03,0.03
27.50,-10.50,-10.56,-10.50,-10.56,10.56,10.70,10.58,0.06,0.06,0.06
27.77,-10.33,-10.41,-10.33,-10.42,10.42,10.53,10.78,0.10,0.09,0.08
28.05,-10.16,-10.28,-10.16,-10.28,10.28,10.36,10.98,0.13,0.12,0.12
28.33,-10.00,-10.14,-10.00,-10.15,10.15,10.19,11.17,0.15,0.15,0.14
28.62,-9.83,-10.01,-9.83,-10.01,10.01,10.02,11.35,0.18,0.18,0.17
28.90,-9.67,-9.88,-9.66,-9.88,9.88,9.85,11.52,0.21,0.21,0.21
29.19,-9.50,-9.73,-9.50,-9.74,9.74,9.69,11.67,0.24,0.24,0.23
29.48,-9.34,-9.62,-9.34,-9.61,9.61,9.52,11.80,0.27,0.27,0.28
29.78,-9.17,-9.47,-9.18,-9.48,9.48,9.36,11.92,0.30,0.30,0.29
30.08,-9.01,-9.34,-9.02,-9.35,9.35,9.20,12.01,0.33,0.32,0.32
30.38,-8.86,-9.22,-8.87,-9.22,9.22,9.04,12.08,0.36,0.35,0.35
30.68,-8.71,-9.09,-8.71,-9.09,9.09,8.88,12.13,0.38,0.38,0.38
30.99,-8.56,-8.97,-8.56,-8.97,8.97,8.72,12.15,0.40,0.40,0.40
31.30,-8.41,-8.84,-8.41,-8.84,8.84,8.57,12.15,0.43,0.43,0.42
31.61,-8.26,-8.71,-8.26,-8.72,8.72,8.42,12.12,0.46,0.45,0.45
31.93,-8.11,-8.59,-8.11,-8.59,8.59,8.27,12.06,0.48,0.48,0.47
32.24,-7.97,-8.46,-7.97,-8.47,8.47,8.12,11.98,0.50,0.50,0.49
32.57,-7.83,-8.36,-7.82,-8.35,8.35,7.98,11.88,0.51,0.52,0.52
32.89,-7.69,-8.23,-7.68,-8.22,8.22,7.83,11.75,0.53,0.54,0.54
33.22,-7.54,-8.10,-7.54,-8.10,8.10,7.69,11.60,0.56,0.56,0.56
33.55,-7.40,-7.98,-7.40,-7.98,7.98,7.55,11.44,0.58,0.58,0.58
33.89,-7.26,-7.85,-7.26,-7.85,7.85,7.41,11.26,0.59,0.60,0.59
34.23,-7.12,-7.73,-7.11,-7.72,7.72,7.28,11.07,0.60,0.61,0.61
34.57,-6.97,-7.59,-6.98,-7.60,7.60,7.14,10.86,0.63,0.62,0.62
34.92,-6.83,-7.47,-6.84,-7.47,7.47,7.01,10.65,0.64,0.63,0.63
35.27,-6.70,-7.36,-6.70,-7.35,7.35,6.88,10.43,0.64,0.64,0.65
35.62,-6.56,-7.20,-6.57,-7.22,7.22,6.75,10.20,0.66,0.65,0.64
35.97,-6.43,-7.08,-6.43,-7.09,7.09,6.63,9.97,0.66,0.66,0.65
36.33,-6.30,-6.97,-6.30,-6.96,6.96,6.51,9.74,0.66,0.66,0.67
36.70,-6.17,-6.84,-6.17,-6.83,6.83,6.38,9.51,0.66,0.67,0.66
37.06,-6.04,-6.70,-6.04,-6.70,6.70,6.26,9.27,0.67,0.67,0.66
37.43,-5.91,-6.57,-5.91,-6.58,6.58,6.14,9.03,0.67,0.67,0.66
37.81,-5.78,-6.44,-5.78,-6.45,6.45,6.03,8.80,0.67,0.67,0.66
38.19,-5.66,-6.32,-5.66,-6.32,6.32,5.91,8.57,0.66,0.66,0.66
38.57,-5.53,-6.19,-5.53,-6.19,6.19,5.80,8.34,0.66,0.66,0.66
38.95,-5.40,-6.06,-5.41,-6.06,6.06,5.69,8.11,0.67,0.66,0.66
39.34,-5.29,-5.93,-5.28,-5.94,5.94,5.58,7.88,0.65,0.65,0.64
39.74,-5.17,-5.81,-5.16,-5.81,5.81,5.47,7.66,0.64,0.65,0.64
40.14,-5.05,-5.69,-5.04,-5.68,5.68,5.36,7.44,0.63,0.64,0.63
40.54,-4.92,-5.56,-4.92,-5.56,5.56,5.26,7.22,0.64,0.64,0.63
40.94,-4.80,-5.42,-4.80,-5.43,5.43,5.15,7.01,0.63,0.63,0.62
41.35,-4.68,-5.30,-4.69,-5.31,5.31,5.05,6.80,0.63,0.62,0.62
41.76,-4.57,-5.18,-4.57,-5.18,5.18,4.95,6.60,0.61,0.61,0.61
42.18,-4.45,-5.05,-4.45,-5.05,5.05,4.85,6.40,0.60,0.60,0.60
42.60,-4.34,-4.93,-4.33,-4.93,4.93,4.75,6.20,0.59,0.59,0.59
43.03,-4.22,-4.81,-4.22,-4.80,4.80,4.66,6.01,0.58,0.58,0.59
43.46,-4.11,-4.69,-4.10,-4.68,4.68,4.56,5.81,0.57,0.57,0.58
43.90,-4.00,-4.57,-3.99,-4.55,4.55,4.47,5.63,0.55,0.56,0.56
44.33,-3.88,-4.42,-3.88,-4.43,4.43,4.38,5.44,0.55,0.55,0.54
44.78,-3.76,-4.29,-3.77,-4.31,4.31,4.29,5.26,0.55,0.54,0.53
45.23,-3.65,-4.18,-3.66,-4.19,4.19,4.20,5.09,0.54,0.53,0.52
45.68,-3.54,-4.05,-3.55,-4.07,4.07,4.11,4.91,0.53,0.52,0.51
46.13,-3.44,-3.94,-3.44,-3.95,3.95,4.02,4.74,0.51,0.51,0.50
46.60,-3.33,-3.84,-3.33,-3.83,3.83,3.93,4.58,0.50,0.50,0.50
47.06,-3.23,-3.72,-3.23,-3.72,3.72,3.85,4.41,0.49,0.49,0.49
47.53,-3.13,-3.61,-3.13,-3.61,3.61,3.77,4.25,0.48,0.48,0.48
48.01,-3.03,-3.51,-3.02,-3.50,3.50,3.68,4.09,0.47,0.47,0.48
48.49,-2.93,-3.40,-2.92,-3.39,3.39,3.60,3.94,0.46,0.47,0.47
48.97,-2.83,-3.29,-2.83,-3.29,3.29,3.52,3.78,0.46,0.46,0.46
49.46,-2.73,-3.17,-2.73,-3.19,3.19,3.44,3.64,0.46,0.46,0.44
49.96,-2.64,-3.07,-2.64,-3.09,3.09,3.37,3.49,0.45,0.45,0.43
50.46,-2.55,-2.99,-2.55,-3.00,3.00,3.29,3.34,0.45,0.45,0.44
50.96,-2.46,-2.90,-2.46,-2.91,2.91,3.21,3.20,0.45,0.44,0.44
51.47,-2.37,-2.80,-2.38,-2.82,2.82,3.14,3.06,0.45,0.44,0.43
51.99,-2.29,-2.72,-2.29,-2.73,2.73,3.07,2.93,0.44,0.44,0.43
52.51,-2.21,-2.64,-2.21,-2.64,2.64,2.99,2.80,0.43,0.43,0.43
53.03,-2.13,-2.56,-2.14,-2.56,2.56,2.92,2.67,0.43,0.43,0.43
53.56,-2.06,-2.49,-2.06,-2.48,2.48,2.85,2.54,0.42,0.42,0.43
54.10,-1.99,-2.41,-1.99,-2.41,2.41,2.78,2.42,0.42,0.42,0.42
54.64,-1.92,-2.33,-1.92,-2.33,2.33,2.71,2.29,0.41,0.41,0.41
55.18,-1.86,-2.26,-1.86,-2.26,2.26,2.64,2.18,0.40,0.40,0.40
55.74,-1.79,-2.17,-1.79,-2.18,2.18,2.58,2.06,0.39,0.39,0.38
56.29,-1.73,-2.11,-1.73,-2.11,2.11,2.51,1.95,0.38,0.38,0.38
56.86,-1.67,-2.03,-1.67,-2.04,2.04,2.44,1.84,0.37,0.37,0.36
57.42,-1.62,-1.96,-1.61,-1.97,1.97,2.38,1.74,0.35,0.35,0.34
58.00,-1.57,-1.90,-1.56,-1.89,1.89,2.32,1.63,0.32,0.33,0.33
58.58,-1.51,-1.82,-1.51,-1.82,1.82,2.25,1.54,0.31,0.31,0.31
59.16,-1.46,-1.76,-1.46,-1.75,1.75,2.19,1.44,0.29,0.29,0.30
59.76,-1.40,-1.68,-1.41,-1.68,1.68,2.13,1.35,0.28,0.27,0.28
60.35,-1.36,-1.61,-1.37,-1.61,1.61,2.07,1.26,0.25,0.25,0.25
60.96,-1.31,-1.55,-1.33,-1.55,1.55,2.01,1.18,0.24,0.22,0.24
61.57,-1.28,-1.47,-1.28,-1.48,1.48,1.95,1.10,0.20,0.20,0.19
62.18,-1.25,-1.41,-1.24,-1.42,1.42,1.89,1.02,0.17,0.18,0.16
62.80,-1.21,-1.36,-1.20,-1.36,1.36,1.83,0.95,0.15,0.15,0.15
63.43,-1.17,-1.28,-1.17,-1.30,1.30,1.78,0.88,0.13,0.13,0.11
64.07,-1.14,-1.23,-1.13,-1.24,1.24,1.72,0.82,0.10,0.11,0.09
64.71,-1.10,-1.18,-1.09,-1.18,1.18,1.66,0.75,0.08,0.09,0.08
65.35,-1.06,-1.12,-1.06,-1.13,1.13,1.61,0.69,0.07,0.07,0.06
66.01,-1.03,-1.08,-1.02,-1.08,1.08,1.55,0.64,0.05,0.06,0.05
66.67,-0.99,-1.03,-0.98,-1.03,1.03,1.50,0.58,0.04,0.05,0.04
67.33,-0.95,-0.98,-0.95,-0.98,0.98,1.45,0.53,0.04,0.04,0.03
68.01,-0.91,-0.93,-0.92,-0.94,0.94,1.40,0.49,0.03,0.03,0.02
68.69,-0.88,-0.89,-0.89,-0.90,0.90,1.34,0.44,0.02,0.02,0.01
69.37,-0.85,-0.86,-0.86,-0.87,0.87,1.29,0.40,0.02,0.01,0.01
70.07,-0.83,-0.83,-0.83,-0.83,0.83,1.24,0.36,-0.00,0.00,0.00
70.77,-0.79,-0.79,-0.80,-0.80,0.80,1.19,0.32,0.01,-0.01,0.00
71.48,-0.77,-0.76,-0.78,-0.76,0.76,1.14,0.28,-0.01,-0.02,-0.01
72.19,-0.74,-0.71,-0.76,-0.73,0.73,1.09,0.24,-0.01,-0.03,-0.03
72.91,-0.72,-0.69,-0.74,-0.70,0.70,1.05,0.21,-0.02,-0.04,-0.03
73.64,-0.72,-0.67,-0.72,-0.67,0.67,1.00,0.18,-0.05,-0.05,-0.05
74.38,-0.71,-0.65,-0.70,-0.64,0.64,0.95,0.14,-0.07,-0.06,-0.06
75.12,-0.70,-0.62,-0.68,-0.61,0.61,0.90,0.11,-0.09,-0.07,-0.08
75.87,-0.67,-0.58,-0.66,-0.58,0.58,0.86,0.08,-0.09,-0.09,-0.09
76.63,-0.65,-0.55,-0.65,-0.55,0.55,0.81,0.05,-0.10,-0.10,-0.10
77.40,-0.63,-0.51,-0.63,-0.52,0.52,0.77,0.02,-0.11,-0.11,-0.12
78.17,-0.61,-0.47,-0.61,-0.49,0.49,0.72,-0.01,-0.12,-0.12,-0.14
78.95,-0.59,-0.45,-0.59,-0.46,0.46,0.68,-0.04,-0.13,-0.14,-0.14
79.74,-0.57,-0.42,-0.57,-0.43,0.43,0.64,-0.07,-0.14,-0.14,-0.15
80.54,-0.55,-0.39,-0.55,-0.40,0.40,0.59,-0.10,-0.15,-0.15,-0.16
81.35,-0.53,-0.36,-0.52,-0.36,0.36,0.55,-0.13,-0.17,-0.16,-0.17
82.16,-0.51,-0.33,-0.50,-0.33,0.33,0.51,-0.16,-0.18,-0.16,-0.18
82.98,-0.48,-0.31,-0.47,-0.30,0.30,0.47,-0.19,-0.18,-0.17,-0.17
83.81,-0.46,-0.28,-0.44,-0.27,0.27,0.43,-0.22,-0.19,-0.17,-0.18
84.65,-0.42,-0.23,-0.42,-0.25,0.25,0.39,-0.25,-0.17,-0.17,-0.19
85.50,-0.40,-0.22,-0.40,-0.22,0.22,0.35,-0.29,-0.18,-0.18,-0.18
86.35,-0.37,-0.19,-0.38,-0.20,0.20,0.31,-0.32,-0.17,-0.18,-0.18
87.22,-0.35,-0.16,-0.36,-0.18,0.18,0.27,-0.35,-0.17,-0.18,-0.19
88.09,-0.33,-0.14,-0.34,-0.15,0.15,0.23,-0.39,-0.18,-0.19,-0.19
88.97,-0.31,-0.11,-0.33,-0.13,0.13,0.19,-0.42,-0.18,-0.20,-0.20
89.86,-0.30,-0.09,-0.32,-0.11,0.11,0.15,-0.45,-0.19,-0.21,-0.21
90.76,-0.30,-0.07,-0.31,-0.08,0.08,0.11,-0.49,-0.22,-0.23,-0.23
91.66,-0.30,-0.05,-0.31,-0.06,0.06,0.08,-0.53,-0.24,-0.25,-0.25
92.58,-0.31,-0.03,-0.31,-0.03,0.03,0.04,-0.56,-0.28,-0.27,-0.28
93.51,-0.32,-0.02,-0.31,-0.00,0.00,0.00,-0.60,-0.32,-0.30,-0.30
94.44,-0.32,0.01,-0.31,0.03,-0.03,-0.03,-0.64,-0.35,-0.34,-0.33
95.39,-0.32,0.05,-0.31,0.07,-0.07,-0.07,-0.68,-0.39,-0.38,-0.37
96.34,-0.32,0.09,-0.31,0.11,-0.11,-0.10,-0.72,-0.43,-0.42,-0.41
97.30,-0.32,0.15,-0.32,0.15,-0.15,-0.14,-0.76,-0.47,-0.47,-0.47
98.28,-0.32,0.20,-0.32,0.20,-0.20,-0.17,-0.80,-0.52,-0.52,-0.52
99.26,-0.32,0.25,-0.32,0.25,-0.25,-0.21,-0.84,-0.57,-0.57,-0.57
100.25,-0.32,0.31,-0.32,0.30,-0.30,-0.24,-0.88,-0.62,-0.63,-0.63
101.25,-0.32,0.37,-0.32,0.36,-0.36,-0.27,-0.92,-0.68,-0.68,-0.69
102.27,-0.32,0.43,-0.32,0.42,-0.42,-0.30,-0.97,-0.74,-0.74,-0.75
103.29,-0.32,0.49,-0.32,0.48,-0.48,-0.34,-1.01,-0.80,-0.80,-0.81
104.32,-0.32,0.54,-0.32,0.54,-0.54,-0.37,-1.05,-0.86,-0.86,-0.86
105.37,-0.32,0.61,-0.32,0.60,-0.60,-0.40,-1.09,-0.92,-0.92,-0.93
106.42,-0.32,0.67,-0.32,0.66,-0.66,-0.43,-1.13,-0.98,-0.98,-0.99
107.48,-0.32,0.72,-0.32,0.72,-0.72,-0.46,-1.17,-1.04,-1.04,-1.04
108.56,-0.32,0.78,-0.32,0.78,-0.78,-0.49,-1.21,-1.10,-1.10,-1.10
109.64,-0.32,0.84,-0.32,0.83,-0.83,-0.52,-1.25,-1.15,-1.15,-1.16
110.74,-0.32,0.89,-0.32,0.89,-0.89,-0.55,-1.29,-1.21,-1.21,-1.21
111.85,-0.32,0.93,-0.32,0.94,-0.94,-0.58,-1.32,-1.26,-1.26,-1.25
112.97,-0.32,1.00,-0.32,0.99,-0.99,-0.61,-1.36,-1.31,-1.31,-1.32
114.10,-0.32,1.04,-0.32,1.04,-1.04,-0.64,-1.39,-1.36,-1.36,-1.36
115.24,-0.32,1.09,-0.32,1.08,-1.08,-0.66,-1.42,-1.40,-1.40,-1.41
116.39,-0.32,1.14,-0.32,1.13,-1.13,-0.69,-1.45,-1.45,-1.45,-1.46
117.55,-0.32,1.18,-0.32,1.17,-1.17,-0.72,-1.47,-1.49,-1.49,-1.50
118.73,-0.32,1.22,-0.32,1.20,-1.20,-0.74,-1.50,-1.52,-1.52,-1.54
119.92,-0.32,1.25,-0.32,1.24,-1.24,-0.77,-1.52,-1.56,-1.56,-1.57
121.12,-0.32,1.28,-0.32,1.27,-1.27,-0.80,-1.54,-1.59,-1.59,-1.60
122.33,-0.32,1.31,-0.32,1.31,-1.31,-0.82,-1.56,-1.63,-1.63,-1.63
123.55,-0.32,1.34,-0.32,1.34,-1.34,-0.85,-1.57,-1.66,-1.66,-1.66
124.79,-0.32,1.37,-0.32,1.37,-1.37,-0.87,-1.58,-1.69,-1.69,-1.69
126.03,-0.32,1.39,-0.32,1.39,-1.39,-0.89,-1.59,-1.71,-1.72,-1.71
127.29,-0.32,1.42,-0.32,1.42,-1.42,-0.92,-1.59,-1.74,-1.74,-1.74
128.57,-0.32,1.46,-0.32,1.45,-1.45,-0.94,-1.60,-1.77,-1.77,-1.78
129.85,-0.32,1.48,-0.32,1.48,-1.48,-0.96,-1.60,-1.80,-1.80,-1.80
131.15,-0.32,1.51,-0.32,1.51,-1.51,-0.99,-1.59,-1.83,-1.83,-1.83
132.46,-0.32,1.55,-0.31,1.54,-1.54,-1.01,-1.59,-1.86,-1.86,-1.87
133.79,-0.32,1.57,-0.31,1.58,-1.58,-1.03,-1.58,-1.90,-1.89,-1.89
135.12,-0.32,1.60,-0.31,1.61,-1.61,-1.05,-1.57,-1.93,-1.92,-1.92
136.48,-0.32,1.63,-0.31,1.64,-1.64,-1.07,-1.56,-1.96,-1.95,-1.95
137.84,-0.32,1.66,-0.31,1.68,-1.68,-1.09,-1.55,-2.00,-1.98,-1.98
139.22,-0.31,1.72,-0.31,1.71,-1.71,-1.11,-1.53,-2.02,-2.02,-2.03
140.61,-0.30,1.76,-0.31,1.74,-1.74,-1.13,-1.51,-2.04,-2.05,-2.06
142.02,-0.30,1.78,-0.32,1.77,-1.77,-1.15,-1.50,-2.07,-2.08,-2.08
143.44,-0.31,1.81,-0.33,1.79,-1.79,-1.17,-1.48,-2.10,-2.12,-2.12
144.87,-0.32,1.84,-0.34,1.81,-1.81,-1.18,-1.46,-2.13,-2.15,-2.16
146.32,-0.34,1.86,-0.36,1.83,-1.83,-1.20,-1.44,-2.17,-2.19,-2.20
147.78,-0.37,1.86,-0.38,1.85,-1.85,-1.22,-1.41,-2.22,-2.23,-2.23
149.26,-0.39,1.87,-0.40,1.86,-1.86,-1.23,-1.39,-2.25,-2.27,-2.26
150.75,-0.42,1.89,-0.43,1.87,-1.87,-1.25,-1.37,-2.29,-2.31,-2.31
152.26,-0.46,1.89,-0.46,1.89,-1.89,-1.27,-1.35,-2.35,-2.35,-2.35
153.78,-0.49,1.89,-0.49,1.90,-1.90,-1.28,-1.33,-2.39,-2.39,-2.38
155.32,-0.52,1.91,-0.52,1.91,-1.91,-1.29,-1.30,-2.43,-2.43,-2.43
156.88,-0.57,1.89,-0.54,1.93,-1.93,-1.31,-1.28,-2.50,-2.47,-2.46
158.44,-0.59,1.93,-0.57,1.95,-1.95,-1.32,-1.26,-2.54,-2.51,-2.52
160.03,-0.62,1.94,-0.59,1.97,-1.97,-1.33,-1.24,-2.59,-2.56,-2.56
161.63,-0.63,1.98,-0.61,1.99,-1.99,-1.35,-1.22,-2.62,-2.60,-2.61
163.24,-0.64,2.01,-0.63,2.01,-2.01,-1.36,-1.20,-2.65,-2.64,-2.65
164.88,-0.65,2.04,-0.65,2.04,-2.04,-1.37,-1.18,-2.69,-2.68,-2.69
166.53,-0.66,2.07,-0.67,2.06,-2.06,-1.38,-1.17,-2.72,-2.73,-2.73
168.19,-0.67,2.10,-0.68,2.08,-2.08,-1.39,-1.15,-2.75,-2.77,-2.77
169.87,-0.68,2.13,-0.70,2.11,-2.11,-1.40,-1.13,-2.79,-2.81,-2.81
171.57,-0.70,2.14,-0.72,2.12,-2.12,-1.40,-1.12,-2.82,-2.84,-2.84
173.29,-0.72,2.16,-0.74,2.14,-2.14,-1.41,-1.10,-2.86,-2.88,-2.88
175.02,-0.77,2.15,-0.76,2.15,-2.15,-1.42,-1.09,-2.92,-2.91,-2.92
176.77,-0.79,2.16,-0.79,2.15,-2.15,-1.42,-1.08,-2.94,-2.94,-2.95
178.54,-0.81,2.17,-0.82,2.15,-2.15,-1.43,-1.07,-2.96,-2.97,-2.98
180.32,-0.84,2.17,-0.85,2.14,-2.14,-1.43,-1.06,-2.98,-3.00,-3.01
182.13,-0.87,2.16,-0.88,2.14,-2.14,-1.44,-1.05,-3.01,-3.02,-3.03
183.95,-0.92,2.13,-0.92,2.13,-2.13,-1.44,-1.04,-3.05,-3.04,-3.05
185.79,-0.96,2.11,-0.95,2.12,-2.12,-1.44,-1.03,-3.08,-3.07,-3.07
187.65,-1.00,2.09,-0.98,2.10,-2.10,-1.45,-1.03,-3.10,-3.08,-3.09
189.52,-1.04,2.06,-1.02,2.08,-2.08,-1.45,-1.02,-3.12,-3.10,-3.10
191.42,-1.07,2.05,-1.05,2.06,-2.06,-1.45,-1.02,-3.13,-3.12,-3.12
193.33,-1.10,2.03,-1.09,2.04,-2.04,-1.45,-1.01,-3.14,-3.13,-3.13
195.27,-1.12,2.02,-1.12,2.02,-2.02,-1.44,-1.01,-3.14,-3.14,-3.14
197.22,-1.14,2.02,-1.16,2.00,-2.00,-1.44,-1.00,-3.14,-3.16,-3.16
199.19,-1.17,2.01,-1.19,1.98,-1.98,-1.44,-1.00,-3.15,-3.17,-3.18
201.18,-1.21,1.98,-1.23,1.95,-1.95,-1.43,-1.00,-3.16,-3.18,-3.19
203.19,-1.25,1.94,-1.26,1.93,-1.93,-1.43,-1.00,-3.18,-3.19,-3.19
205.23,-1.30,1.91,-1.30,1.91,-1.91,-1.42,-1.00,-3.21,-3.20,-3.21
207.28,-1.35,1.86,-1.33,1.88,-1.88,-1.41,-1.00,-3.23,-3.22,-3.21
209.35,-1.38,1.85,-1.37,1.86,-1.86,-1.40,-1.00,-3.24,-3.23,-3.23
211.44,-1.42,1.83,-1.41,1.83,-1.83,-1.39,-1.00,-3.25,-3.24,-3.25
213.56,-1.45,1.81,-1.45,1.80,-1.80,-1.38,-0.99,-3.25,-3.25,-3.26
215.69,-1.49,1.77,-1.50,1.77,-1.77,-1.37,-0.99,-3.26,-3.26,-3.26
217.85,-1.54,1.74,-1.54,1.73,-1.73,-1.36,-0.99,-3.27,-3.27,-3.28
220.03,-1.57,1.72,-1.58,1.70,-1.70,-1.34,-0.99,-3.27,-3.29,-3.29
222.23,-1.62,1.69,-1.63,1.67,-1.67,-1.33,-0.99,-3.29,-3.30,-3.31
224.45,-1.67,1.64,-1.67,1.64,-1.64,-1.31,-0.98,-3.31,-3.31,-3.31
226.70,-1.72,1.61,-1.71,1.62,-1.62,-1.29,-0.98,-3.34,-3.33,-3.33
228.96,-1.77,1.57,-1.76,1.59,-1.59,-1.27,-0.97,-3.36,-3.34,-3.34
231.25,-1.81,1.54,-1.80,1.56,-1.56,-1.25,-0.97,-3.37,-3.36,-3.35
233.57,-1.85,1.52,-1.85,1.52,-1.52,-1.23,-0.96,-3.37,-3.37,-3.37
235.90,-1.90,1.48,-1.90,1.49,-1.49,-1.20,-0.95,-3.39,-3.38,-3.38
238.26,-1.93,1.47,-1.94,1.46,-1.46,-1.17,-0.94,-3.39,-3.40,-3.40
240.64,-1.98,1.44,-1.99,1.42,-1.42,-1.15,-0.93,-3.40,-3.41,-3.42
243.05,-2.03,1.40,-2.04,1.38,-1.38,-1.11,-0.91,-3.41,-3.42,-3.43
245.48,-2.09,1.35,-2.09,1.34,-1.34,-1.08,-0.90,-3.43,-3.43,-3.44
247.93,-2.16,1.29,-2.14,1.30,-1.30,-1.05,-0.88,-3.46,-3.44,-3.45
250.41,-2.19,1.27,-2.19,1.25,-1.25,-1.01,-0.86,-3.44,-3.44,-3.46
252.92,-2.24,1.21,-2.24,1.20,-1.20,-0.97,-0.84,-3.44,-3.44,-3.45
255.45,-2.29,1.16,-2.30,1.14,-1.14,-0.93,-0.82,-3.43,-3.44,-3.45
258.00,-2.34,1.10,-2.35,1.08,-1.08,-0.89,-0.79,-3.42,-3.44,-3.44
260.58,-2.41,1.03,-2.41,1.02,-1.02,-0.84,-0.77,-3.43,-3.43,-3.44
263.19,-2.46,0.97,-2.47,0.95,-0.95,-0.80,-0.74,-3.41,-3.42,-3.43
265.82,-2.54,0.88,-2.53,0.88,-0.88,-0.75,-0.71,-3.42,-3.41,-3.42
268.48,-2.61,0.79,-2.59,0.80,-0.80,-0.69,-0.67,-3.41,-3.40,-3.40
271.16,-2.66,0.72,-2.66,0.72,-0.72,-0.64,-0.64,-3.38,-3.38,-3.38
273.87,-2.74,0.63,-2.72,0.64,-0.64,-0.58,-0.60,-3.38,-3.37,-3.37
276.61,-2.80,0.54,-2.79,0.56,-0.56,-0.52,-0.57,-3.36,-3.35,-3.34
279.38,-2.87,0.47,-2.86,0.47,-0.47,-0.45,-0.53,-3.34,-3.34,-3.34
282.17,-2.93,0.39,-2.94,0.39,-0.39,-0.38,-0.49,-3.32,-3.32,-3.32
284.99,-3.00,0.31,-3.01,0.29,-0.29,-0.31,-0.44,-3.29,-3.30,-3.31
287.84,-3.08,0.21,-3.09,0.20,-0.20,-0.24,-0.40,-3.28,-3.29,-3.29
290.72,-3.16,0.11,-3.17,0.10,-0.10,-0.16,-0.36,-3.26,-3.27,-3.27
293.63,-3.26,-0.00,-3.25,0.00,-0.00,-0.07,-0.31,-3.26,-3.25,-3.26
296.57,-3.35,-0.12,-3.34,-0.11,0.11,0.01,-0.26,-3.24,-3.23,-3.23
299.53,-3.43,-0.21,-3.43,-0.22,0.22,0.10,-0.22,-3.21,-3.21,-3.22
302.53,-3.52,-0.31,-3.53,-0.34,0.34,0.20,-0.17,-3.18,-3.19,-3.21
305.55,-3.62,-0.44,-3.63,-0.46,0.46,0.30,-0.12,-3.16,-3.17,-3.18
308.61,-3.73,-0.57,-3.74,-0.59,0.59,0.40,-0.07,-3.14,-3.15,-3.16
311.69,-3.85,-0.72,-3.86,-0.73,0.73,0.51,-0.02,-3.12,-3.13,-3.13
314.81,-3.95,-0.86,-3.97,-0.87,0.87,0.62,0.03,-3.08,-3.11,-3.09
317.96,-4.07,-0.99,-4.10,-1.01,1.01,0.74,0.09,-3.06,-3.08,-3.08
321.14,-4.20,-1.14,-4.22,-1.16,1.16,0.86,0.14,-3.04,-3.06,-3.06
324.35,-4.36,-1.32,-4.34,-1.31,1.31,0.99,0.19,-3.05,-3.04,-3.04
327.59,-4.50,-1.48,-4.47,-1.46,1.46,1.12,0.25,-3.04,-3.01,-3.02
330.87,-4.61,-1.61,-4.60,-1.61,1.61,1.25,0.30,-3.00,-2.99,-3.00
334.18,-4.74,-1.77,-4.73,-1.77,1.77,1.40,0.36,-2.97,-2.97,-2.97
337.52,-4.88,-1.93,-4.86,-1.92,1.92,1.54,0.41,-2.96,-2.94,-2.95
340.90,-4.99,-2.06,-4.99,-2.08,2.08,1.69,0.47,-2.91,-2.92,-2.93
344.30,-5.13,-2.23,-5.12,-2.23,2.23,1.84,0.53,-2.90,-2.90,-2.90
347.75,-5.24,-2.36,-5.25,-2.38,2.38,2.00,0.58,-2.86,-2.87,-2.88
351.23,-5.37,-2.52,-5.38,-2.53,2.53,2.16,0.64,-2.84,-2.85,-2.85
354.74,-5.48,-2.66,-5.50,-2.67,2.67,2.32,0.70,-2.81,-2.82,-2.82
358.28,-5.61,-2.80,-5.61,-2.81,2.81,2.49,0.76,-2.80,-2.80,-2.81
361.87,-5.72,-2.94,-5.73,-2.95,2.95,2.66,0.82,-2.77,-2.77,-2.78
365.49,-5.83,-3.08,-5.83,-3.08,3.08,2.82,0.88,-2.75,-2.75,-2.75
369.14,-5.94,-3.20,-5.94,-3.21,3.21,2.99,0.94,-2.73,-2.73,-2.74
372.83,-6.03,-3.32,-6.03,-3.33,3.33,3.15,1.01,-2.70,-2.70,-2.71
376.56,-6.14,-3.45,-6.12,-3.44,3.44,3.31,1.07,-2.70,-2.68,-2.69
380.33,-6.22,-3.56,-6.20,-3.54,3.54,3.46,1.13,-2.68,-2.66,-2.66
384.13,-6.29,-3.64,-6.28,-3.63,3.63,3.61,1.19,-2.66,-2.64,-2.65
387.97,-6.35,-3.72,-6.34,-3.72,3.72,3.74,1.26,-2.63,-2.63,-2.63
391.85,-6.41,-3.79,-6.40,-3.79,3.79,3.87,1.32,-2.62,-2.61,-2.62
395.77,-6.44,-3.85,-6.45,-3.85,3.85,3.98,1.38,-2.59,-2.60,-2.59
399.73,-6.47,-3.89,-6.48,-3.90,3.90,4.07,1.45,-2.57,-2.59,-2.58
403.72,-6.50,-3.92,-6.51,-3.94,3.94,4.15,1.51,-2.56,-2.58,-2.58
407.76,-6.52,-3.95,-6.53,-3.96,3.96,4.21,1.57,-2.56,-2.57,-2.57
411.84,-6.54,-3.98,-6.54,-3.98,3.98,4.25,1.63,-2.56,-2.57,-2.56
415.96,-6.55,-3.98,-6.54,-3.98,3.98,4.27,1.70,-2.57,-2.56,-2.57
420.12,-6.53,-3.96,-6.53,-3.97,3.97,4.27,1.76,-2.56,-2.56,-2.57
424.32,-6.51,-3.94,-6.51,-3.95,3.95,4.24,1.81,-2.56,-2.57,-2.57
428.56,-6.49,-3.92,-6.48,-3.92,3.92,4.20,1.87,-2.57,-2.57,-2.57
432.85,-6.45,-3.87,-6.44,-3.87,3.87,4.13,1.93,-2.58,-2.57,-2.58
437.18,-6.39,-3.81,-6.38,-3.81,3.81,4.04,1.98,-2.58,-2.57,-2.58
