frequency,raw,error,smoothed,error_smoothed,equalization,parametric_eq,fixed_band_eq,equalized_raw,equalized_smoothed,target
20.00,-15.18,-16.47,-15.18,-16.50,16.50,17.32,6.80,1.32,1.32,1.30
20.20,-15.07,-16.45,-15.07,-16.46,16.46,17.21,6.96,1.40,1.40,1.39
20.40,-14.96,-16.42,-14.95,-16.43,16.43,17.11,7.12,1.47,1.47,1.47
20.61,-14.84,-16.37,-14.84,-16.39,16.39,17.00,7.28,1.55,1.54,1.53
20.81,-14.73,-16.35,-14.73,-16.34,16.34,16.90,7.45,1.62,1.61,1.63
21.02,-14.62,-16.32,-14.62,-16.30,16.30,16.80,7.63,1.68,1.68,1.70
21.23,-14.51,-16.27,-14.51,-16.25,16.25,16.70,7.81,1.74,1.74,1.76
21.44,-14.40,-16.22,-14.40,-16.20,16.20,16.60,7.99,1.80,1.80,1.82
21.66,-14.29,-16.16,-14.29,-16.14,16.14,16.51,8.18,1.85,1.86,1.87
21.87,-14.17,-16.09,-14.17,-16.09,16.09,16.41,8.37,1.92,1.91,1.92
22.09,-14.06,-16.03,-14.06,-16.03,16.03,16.31,8.57,1.97,1.97,1.97
22.31,-13.95,-15.97,-13.95,-15.97,15.97,16.22,8.77,2.02,2.02,2.02
22.54,-13.84,-15.90,-13.84,-15.90,15.90,16.12,8.98,2.06,2.06,2.06
22.76,-13.73,-15.83,-13.72,-15.83,15.83,16.03,9.20,2.10,2.10,2.10
22.99,-13.62,-15.75,-13.61,-15.75,15.75,15.94,9.42,2.13,2.14,2.13
23.22,-13.50,-15.67,-13.50,-15.68,15.68,15.85,9.65,2.18,2.18,2.17
23.45,-13.39,-15.60,-13.38,-15.60,15.60,15.76,9.88,2.21,2.22,2.21
23.69,-13.27,-15.52,-13.27,-15.52,15.52,15.67,10.12,2.25,2.25,2.25
23.92,-13.16,-15.44,-13.16,-15.45,15.45,15.58,10.36,2.29,2.29,2.29
24.16,-13.04,-15.37,-13.05,-15.37,15.37,15.49,10.61,2.33,2.32,2.34
24.40,-12.93,-15.29,-12.93,-15.29,15.29,15.41,10.87,2.36,2.36,2.36
24.65,-12.82,-15.21,-12.82,-15.21,15.21,15.32,11.14,2.39,2.39,2.39
24.89,-12.71,-15.13,-12.71,-15.13,15.13,15.24,11.41,2.43,2.42,2.42
25.14,-12.60,-15.06,-12.60,-15.06,15.06,15.15,11.68,2.46,2.46,2.46
25.39,-12.49,-14.98,-12.49,-14.98,14.98,15.07,11.97,2.49,2.49,2.49
25.65,-12.38,-14.91,-12.38,-14.90,14.90,14.99,12.26,2.52,2.52,2.53
25.91,-12.27,-14.82,-12.27,-14.82,14.82,14.90,12.55,2.55,2.55,2.55
26.16,-12.16,-14.73,-12.16,-14.74,14.74,14.82,12.86,2.58,2.59,2.58
26.43,-12.05,-14.66,-12.05,-14.66,14.66,14.74,13.16,2.61,2.61,2.61
26.69,-11.94,-14.58,-11.94,-14.58,14.58,14.66,13.47,2.64,2.64,2.64
26.96,-11.83,-14.50,-11.83,-14.50,14.50,14.58,13.79,2.67,2.67,2.67
27.23,-11.72,-14.43,-11.72,-14.42,14.42,14.50,14.10,2.70,2.70,2.71
27.50,-11.61,-14.35,-11.61,-14.34,14.34,14.42,14.42,2.73,2.73,2.74
27.77,-11.50,-14.26,-11.50,-14.26,14.26,14.34,14.74,2.77,2.76,2.76
28.05,-11.39,-14.18,-11.39,-14.19,14.19,14.27,15.05,2.80,2.79,2.80
28.33,-11.29,-14.10,-11.29,-14.11,14.11,14.19,15.35,2.82,2.82,2.82
28.62,-11.18,-14.02,-11.18,-14.03,14.03,14.11,15.65,2.85,2.85,2.84
28.90,-11.08,-13.96,-11.08,-13.96,13.96,14.04,15.93,2.88,2.88,2.88
29.19,-10.97,-13.87,-10.97,-13.88,13.88,13.96,16.20,2.91,2.91,2.90
29.48,-10.87,-13.82,-10.87,-13.81,13.81,13.88,16.44,2.94,2.94,2.95
29.78,-10.77,-13.74,-10.77,-13.74,13.74,13.81,16.66,2.97,2.96,2.97
30.08,-10.67,-13.66,-10.67,-13.66,13.66,13.73,16.85,2.99,2.99,2.99
30.38,-10.57,-13.59,-10.57,-13.59,13.59,13.66,17.00,3.02,3.02,3.02
30.68,-10.48,-13.53,-10.48,-13.52,13.52,13.59,17.12,3.04,3.05,3.05
30.99,-10.38,-13.45,-10.38,-13.45,13.45,13.51,17.19,3.07,3.07,3.07
31.30,-10.29,-13.38,-10.29,-13.38,13.38,13.44,17.22,3.09,3.10,3.09
31.61,-10.20,-13.32,-10.19,-13.31,13.31,13.37,17.21,3.12,3.12,3.12
31.93,-10.10,-13.24,-10.10,-13.24,13.24,13.29,17.16,3.15,3.14,3.14
32.24,-10.01,-13.17,-10.01,-13.18,13.18,13.22,17.07,3.17,3.17,3.16
32.57,-9.92,-13.10,-9.92,-13.11,13.11,13.15,16.94,3.19,3.19,3.18
32.89,-9.83,-13.04,-9.83,-13.04,13.04,13.08,16.79,3.21,3.21,3.21
33.22,-9.74,-12.97,-9.74,-12.97,12.97,13.00,16.60,3.23,3.22,3.23
33.55,-9.66,-12.90,-9.65,-12.89,12.89,12.93,16.39,3.24,3.24,3.25
33.89,-9.57,-12.82,-9.57,-12.82,12.82,12.86,16.17,3.25,3.26,3.25
34.23,-9.48,-12.76,-9.48,-12.75,12.75,12.79,15.93,3.27,3.27,3.28
34.57,-9.40,-12.68,-9.40,-12.68,12.68,12.72,15.68,3.28,3.28,3.29
34.92,-9.31,-12.60,-9.31,-12.61,12.61,12.65,15.42,3.30,3.29,3.29
35.27,-9.23,-12.54,-9.23,-12.53,12.53,12.58,15.17,3.30,3.30,3.31
35.62,-9.15,-12.45,-9.15,-12.46,12.46,12.51,14.90,3.31,3.31,3.30
35.97,-9.07,-12.38,-9.07,-12.38,12.38,12.44,14.64,3.32,3.32,3.31
36.33,-8.99,-12.31,-8.99,-12.31,12.31,12.37,14.39,3.32,3.32,3.33
36.70,-8.91,-12.23,-8.91,-12.23,12.23,12.30,14.13,3.32,3.32,3.32
37.06,-8.84,-12.15,-8.84,-12.16,12.16,12.23,13.89,3.32,3.32,3.32
37.43,-8.77,-12.09,-8.76,-12.08,12.08,12.16,13.64,3.32,3.32,3.32
37.81,-8.70,-12.02,-8.69,-12.01,12.01,12.09,13.41,3.31,3.32,3.32
38.19,-8.62,-11.93,-8.62,-11.93,11.93,12.02,13.18,3.31,3.31,3.31
38.57,-8.55,-11.87,-8.55,-11.86,11.86,11.95,12.95,3.31,3.31,3.32
38.95,-8.48,-11.79,-8.48,-11.78,11.78,11.88,12.74,3.31,3.31,3.31
39.34,-8.41,-11.70,-8.41,-11.71,11.71,11.81,12.53,3.30,3.30,3.30
39.74,-8.34,-11.63,-8.34,-11.64,11.64,11.74,12.33,3.30,3.29,3.29
40.14,-8.28,-11.56,-8.28,-11.56,11.56,11.68,12.14,3.29,3.29,3.28
40.54,-8.21,-11.49,-8.21,-11.49,11.49,11.61,11.96,3.28,3.28,3.28
40.94,-8.15,-11.42,-8.15,-11.42,11.42,11.54,11.78,3.27,3.27,3.27
41.35,-8.09,-11.35,-8.08,-11.35,11.35,11.47,11.61,3.26,3.26,3.26
41.76,-8.02,-11.27,-8.02,-11.27,11.27,11.40,11.45,3.25,3.25,3.26
42.18,-7.96,-11.21,-7.96,-11.20,11.20,11.33,11.30,3.24,3.24,3.25
42.60,-7.90,-11.13,-7.90,-11.13,11.13,11.26,11.16,3.23,3.23,3.23
43.03,-7.85,-11.08,-7.84,-11.06,11.06,11.19,11.02,3.21,3.22,3.23
43.46,-7.79,-11.00,-7.78,-10.99,10.99,11.13,10.89,3.20,3.21,3.21
43.90,-7.72,-10.91,-7.73,-10.92,10.92,11.06,10.77,3.20,3.19,3.20
44.33,-7.67,-10.84,-7.67,-10.86,10.86,10.99,10.65,3.19,3.18,3.18
44.78,-7.62,-10.79,-7.62,-10.79,10.79,10.92,10.54,3.17,3.17,3.17
45.23,-7.56,-10.71,-7.57,-10.73,10.73,10.85,10.44,3.17,3.16,3.15
45.68,-7.52,-10.66,-7.52,-10.66,10.66,10.78,10.34,3.14,3.15,3.14
46.13,-7.47,-10.59,-7.46,-10.60,10.60,10.72,10.26,3.13,3.13,3.13
46.60,-7.41,-10.53,-7.41,-10.54,10.54,10.65,10.17,3.13,3.12,3.13
47.06,-7.36,-10.47,-7.37,-10.47,10.47,10.58,10.10,3.12,3.11,3.11
47.53,-7.32,-10.42,-7.32,-10.42,10.42,10.51,10.03,3.10,3.10,3.10
48.01,-7.28,-10.38,-7.27,-10.36,10.36,10.44,9.96,3.08,3.09,3.10
48.49,-7.23,-10.32,-7.22,-10.30,10.30,10.37,9.90,3.07,3.08,3.09
48.97,-7.18,-10.25,-7.18,-10.25,10.25,10.31,9.85,3.07,3.07,3.07
49.46,-7.13,-10.18,-7.13,-10.20,10.20,10.24,9.80,3.07,3.07,3.05
49.96,-7.08,-10.12,-7.08,-10.14,10.14,10.17,9.75,3.06,3.06,3.04
50.46,-7.03,-10.07,-7.03,-10.09,10.09,10.10,9.71,3.06,3.05,3.04
50.96,-6.98,-10.03,-6.99,-10.03,10.03,10.03,9.67,3.05,3.05,3.05
51.47,-6.94,-9.97,-6.94,-9.98,9.98,9.97,9.64,3.04,3.04,3.03
51.99,-6.90,-9.93,-6.89,-9.92,9.92,9.90,9.61,3.02,3.03,3.03
52.51,-6.85,-9.88,-6.84,-9.86,9.86,9.83,9.58,3.01,3.02,3.03
53.03,-6.80,-9.82,-6.79,-9.80,9.80,9.76,9.56,3.01,3.02,3.02
53.56,-6.74,-9.75,-6.74,-9.74,9.74,9.69,9.54,3.01,3.01,3.02
54.10,-6.68,-9.69,-6.69,-9.69,9.69,9.62,9.52,3.01,3.00,3.01
54.64,-6.63,-9.62,-6.64,-9.62,9.62,9.56,9.49,2.99,2.99,2.99
55.18,-6.58,-9.56,-6.58,-9.56,9.56,9.49,9.47,2.98,2.98,2.98
55.74,-6.53,-9.49,-6.53,-9.50,9.50,9.42,9.45,2.97,2.96,2.96
56.29,-6.48,-9.43,-6.48,-9.43,9.43,9.35,9.43,2.95,2.95,2.95
56.86,-6.43,-9.36,-6.42,-9.36,9.36,9.28,9.41,2.93,2.93,2.93
57.42,-6.38,-9.28,-6.37,-9.28,9.28,9.22,9.38,2.90,2.91,2.90
58.00,-6.32,-9.21,-6.31,-9.20,9.20,9.15,9.35,2.89,2.89,2.89
58.58,-6.26,-9.13,-6.26,-9.13,9.13,9.08,9.32,2.87,2.87,2.87
59.16,-6.21,-9.06,-6.21,-9.05,9.05,9.01,9.28,2.84,2.84,2.85
59.76,-6.15,-8.98,-6.15,-8.96,8.96,8.94,9.24,2.82,2.81,2.83
60.35,-6.10,-8.89,-6.10,-8.88,8.88,8.88,9.20,2.78,2.79,2.79
60.96,-6.05,-8.82,-6.04,-8.80,8.80,8.81,9.15,2.75,2.76,2.78
61.57,-5.99,-8.72,-5.99,-8.72,8.72,8.74,9.09,2.73,2.73,2.73
62.18,-5.93,-8.62,-5.93,-8.64,8.64,8.67,9.03,2.71,2.70,2.69
62.80,-5.87,-8.54,-5.88,-8.55,8.55,8.60,8.96,2.69,2.67,2.67
63.43,-5.82,-8.45,-5.82,-8.47,8.47,8.54,8.89,2.65,2.65,2.63
64.07,-5.77,-8.38,-5.77,-8.39,8.39,8.47,8.81,2.62,2.62,2.61
64.71,-5.72,-8.31,-5.72,-8.31,8.31,8.40,8.72,2.60,2.60,2.59
65.35,-5.67,-8.23,-5.66,-8.24,8.24,8.33,8.63,2.57,2.58,2.57
66.01,-5.62,-8.17,-5.61,-8.17,8.17,8.27,8.54,2.55,2.55,2.55
66.67,-5.57,-8.11,-5.56,-8.09,8.09,8.20,8.44,2.53,2.54,2.54
67.33,-5.51,-8.03,-5.51,-8.03,8.03,8.13,8.33,2.52,2.52,2.52
68.01,-5.46,-7.96,-5.46,-7.96,7.96,8.06,8.22,2.50,2.50,2.50
68.69,-5.40,-7.89,-5.41,-7.90,7.90,7.99,8.11,2.50,2.49,2.49
69.37,-5.35,-7.83,-5.36,-7.83,7.83,7.93,7.99,2.48,2.48,2.48
70.07,-5.30,-7.76,-5.31,-7.77,7.77,7.86,7.88,2.47,2.46,2.46
70.77,-5.25,-7.71,-5.26,-7.70,7.70,7.79,7.76,2.46,2.45,2.46
71.48,-5.21,-7.65,-5.21,-7.64,7.64,7.72,7.64,2.43,2.43,2.44
72.19,-5.17,-7.58,-5.16,-7.57,7.57,7.66,7.51,2.41,2.41,2.42
72.91,-5.13,-7.53,-5.11,-7.51,7.51,7.59,7.39,2.38,2.40,2.40
73.64,-5.07,-7.45,-5.07,-7.45,7.45,7.52,7.27,2.38,2.38,2.38
74.38,-5.03,-7.39,-5.03,-7.38,7.38,7.46,7.15,2.35,2.36,2.36
75.12,-4.98,-7.32,-4.98,-7.32,7.32,7.39,7.03,2.34,2.34,2.34
75.87,-4.94,-7.26,-4.94,-7.26,7.26,7.32,6.91,2.32,2.32,2.32
76.63,-4.89,-7.19,-4.90,-7.20,7.20,7.25,6.79,2.31,2.30,2.30
77.40,-4.85,-7.12,-4.86,-7.14,7.14,7.19,6.67,2.29,2.28,2.27
78.17,-4.82,-7.06,-4.82,-7.08,7.08,7.12,6.56,2.26,2.26,2.24
78.95,-4.79,-7.03,-4.78,-7.02,7.02,7.05,6.45,2.24,2.24,2.24
79.74,-4.76,-6.98,-4.75,-6.97,6.97,6.99,6.34,2.21,2.22,2.22
80.54,-4.72,-6.92,-4.71,-6.91,6.91,6.92,6.23,2.20,2.21,2.20
81.35,-4.68,-6.86,-4.67,-6.86,6.86,6.86,6.13,2.19,2.19,2.18
82.16,-4.64,-6.81,-4.64,-6.82,6.82,6.79,6.03,2.18,2.18,2.17
82.98,-4.60,-6.76,-4.60,-6.77,6.77,6.72,5.93,2.17,2.17,2.16
83.81,-4.57,-6.72,-4.57,-6.72,6.72,6.66,5.84,2.15,2.15,2.15
84.65,-4.53,-6.66,-4.53,-6.68,6.68,6.59,5.75,2.15,2.14,2.13
85.50,-4.50,-6.63,-4.50,-6.63,6.63,6.52,5.67,2.13,2.13,2.13
86.35,-4.46,-6.58,-4.46,-6.58,6.58,6.46,5.58,2.12,2.12,2.12
87.22,-4.42,-6.52,-4.42,-6.53,6.53,6.39,5.51,2.11,2.11,2.10
88.09,-4.39,-6.48,-4.38,-6.47,6.47,6.33,5.43,2.08,2.09,2.09
88.97,-4.35,-6.43,-4.34,-6.42,6.42,6.26,5.36,2.07,2.07,2.08
89.86,-4.32,-6.38,-4.31,-6.36,6.36,6.20,5.29,2.04,2.05,2.06
90.76,-4.28,-6.31,-4.27,-6.30,6.30,6.13,5.23,2.02,2.03,2.03
91.66,-4.24,-6.24,-4.23,-6.23,6.23,6.07,5.17,1.99,2.00,2.00
92.58,-4.19,-6.15,-4.20,-6.16,6.16,6.00,5.11,1.97,1.96,1.96
93.51,-4.14,-6.07,-4.16,-6.08,6.08,5.94,5.06,1.94,1.92,1.94
94.44,-4.11,-6.00,-4.12,-6.00,6.00,5.87,5.01,1.89,1.88,1.89
95.39,-4.08,-5.92,-4.08,-5.91,5.91,5.81,4.96,1.84,1.83,1.85
96.34,-4.05,-5.84,-4.04,-5.83,5.83,5.74,4.91,1.78,1.78,1.79
97.30,-4.02,-5.74,-4.01,-5.73,5.73,5.68,4.87,1.72,1.72,1.72
98.28,-3.99,-5.66,-3.98,-5.64,5.64,5.62,4.84,1.65,1.66,1.67
99.26,-3.96,-5.56,-3.94,-5.54,5.54,5.55,4.80,1.59,1.60,1.60
100.25,-3.91,-5.44,-3.91,-5.45,5.45,5.49,4.77,1.54,1.54,1.53
101.25,-3.87,-5.33,-3.88,-5.35,5.35,5.42,4.74,1.48,1.47,1.47
102.27,-3.82,-5.22,-3.85,-5.25,5.25,5.36,4.71,1.43,1.40,1.40
103.29,-3.80,-5.12,-3.82,-5.15,5.15,5.30,4.68,1.35,1.33,1.32
104.32,-3.78,-5.04,-3.79,-5.05,5.05,5.23,4.65,1.27,1.26,1.26
105.37,-3.76,-4.94,-3.75,-4.94,4.94,5.17,4.63,1.18,1.19,1.19
106.42,-3.74,-4.86,-3.71,-4.83,4.83,5.11,4.61,1.09,1.12,1.12
107.48,-3.72,-4.77,-3.68,-4.73,4.73,5.05,4.58,1.01,1.05,1.05
108.56,-3.67,-4.65,-3.64,-4.63,4.63,4.98,4.56,0.96,0.98,0.98
109.64,-3.62,-4.53,-3.61,-4.52,4.52,4.92,4.54,0.91,0.92,0.91
110.74,-3.57,-4.43,-3.57,-4.42,4.42,4.86,4.52,0.86,0.85,0.86
111.85,-3.53,-4.33,-3.54,-4.33,4.33,4.80,4.50,0.80,0.79,0.80
112.97,-3.47,-4.19,-3.50,-4.23,4.23,4.74,4.47,0.77,0.73,0.72
114.10,-3.44,-4.12,-3.47,-4.14,4.14,4.67,4.45,0.70,0.67,0.68
115.24,-3.41,-4.02,-3.43,-4.05,4.05,4.61,4.43,0.64,0.62,0.61
116.39,-3.40,-3.95,-3.40,-3.97,3.97,4.55,4.40,0.57,0.57,0.55
117.55,-3.38,-3.89,-3.37,-3.88,3.88,4.49,4.37,0.51,0.52,0.51
118.73,-3.35,-3.80,-3.34,-3.81,3.81,4.43,4.34,0.46,0.47,0.45
119.92,-3.32,-3.74,-3.31,-3.73,3.73,4.37,4.31,0.41,0.42,0.42
121.12,-3.29,-3.66,-3.29,-3.66,3.66,4.31,4.27,0.38,0.38,0.38
122.33,-3.27,-3.60,-3.26,-3.60,3.60,4.25,4.23,0.33,0.34,0.33
123.55,-3.24,-3.54,-3.24,-3.53,3.53,4.19,4.19,0.29,0.29,0.30
124.79,-3.21,-3.47,-3.21,-3.47,3.47,4.13,4.14,0.26,0.26,0.26
126.03,-3.18,-3.41,-3.18,-3.40,3.40,4.07,4.09,0.22,0.22,0.23
127.29,-3.17,-3.35,-3.16,-3.34,3.34,4.01,4.04,0.17,0.18,0.19
128.57,-3.15,-3.28,-3.13,-3.27,3.27,3.95,3.99,0.12,0.14,0.14
129.85,-3.11,-3.22,-3.10,-3.20,3.20,3.89,3.93,0.09,0.10,0.11
131.15,-3.07,-3.14,-3.07,-3.13,3.13,3.83,3.87,0.06,0.07,0.07
132.46,-3.05,-3.07,-3.04,-3.07,3.07,3.78,3.81,0.02,0.03,0.02
133.79,-3.02,-3.01,-3.02,-3.01,3.01,3.72,3.74,-0.01,-0.01,-0.01
135.12,-2.98,-2.93,-3.00,-2.95,2.95,3.66,3.67,-0.03,-0.05,-0.05
136.48,-2.97,-2.88,-2.98,-2.89,2.89,3.60,3.60,-0.08,-0.09,-0.09
137.84,-2.94,-2.81,-2.96,-2.83,2.83,3.54,3.52,-0.11,-0.13,-0.13
139.22,-2.93,-2.75,-2.95,-2.77,2.77,3.49,3.45,-0.16,-0.17,-0.18
140.61,-2.92,-2.69,-2.94,-2.72,2.72,3.43,3.37,-0.20,-0.22,-0.23
142.02,-2.92,-2.66,-2.92,-2.66,2.66,3.37,3.29,-0.25,-0.26,-0.26
143.44,-2.93,-2.63,-2.92,-2.61,2.61,3.32,3.21,-0.31,-0.30,-0.30
144.87,-2.93,-2.58,-2.91,-2.57,2.57,3.26,3.13,-0.36,-0.35,-0.35
146.32,-2.94,-2.54,-2.91,-2.52,2.52,3.21,3.05,-0.42,-0.39,-0.39
147.78,-2.93,-2.50,-2.91,-2.47,2.47,3.15,2.97,-0.45,-0.44,-0.43
149.26,-2.93,-2.45,-2.91,-2.43,2.43,3.09,2.89,-0.50,-0.48,-0.48
150.75,-2.92,-2.38,-2.92,-2.39,2.39,3.04,2.80,-0.53,-0.53,-0.53
152.26,-2.92,-2.34,-2.93,-2.35,2.35,2.99,2.72,-0.57,-0.58,-0.58
153.78,-2.92,-2.30,-2.93,-2.31,2.31,2.93,2.64,-0.61,-0.63,-0.62
155.32,-2.93,-2.25,-2.95,-2.27,2.27,2.88,2.56,-0.66,-0.68,-0.67
156.88,-2.95,-2.23,-2.96,-2.23,2.23,2.82,2.48,-0.72,-0.73,-0.72
158.44,-2.97,-2.19,-2.98,-2.20,2.20,2.77,2.39,-0.77,-0.78,-0.78
160.03,-3.01,-2.18,-3.00,-2.17,2.17,2.72,2.31,-0.84,-0.83,-0.83
161.63,-3.03,-2.14,-3.02,-2.14,2.14,2.67,2.24,-0.88,-0.88,-0.88
163.24,-3.04,-2.11,-3.05,-2.12,2.12,2.62,2.16,-0.92,-0.93,-0.93
164.88,-3.08,-2.10,-3.08,-2.11,2.11,2.57,2.08,-0.97,-0.98,-0.98
166.53,-3.11,-2.08,-3.12,-2.09,2.09,2.52,2.00,-1.01,-1.02,-1.02
168.19,-3.14,-2.07,-3.16,-2.09,2.09,2.47,1.93,-1.05,-1.07,-1.07
169.87,-3.20,-2.09,-3.20,-2.08,2.08,2.42,1.85,-1.12,-1.11,-1.11
171.57,-3.25,-2.09,-3.24,-2.08,2.08,2.37,1.78,-1.17,-1.16,-1.16
173.29,-3.29,-2.09,-3.28,-2.08,2.08,2.33,1.71,-1.21,-1.20,-1.20
175.02,-3.34,-2.10,-3.33,-2.09,2.09,2.28,1.64,-1.25,-1.24,-1.24
176.77,-3.38,-2.10,-3.38,-2.10,2.10,2.24,1.56,-1.27,-1.28,-1.28
178.54,-3.43,-2.11,-3.43,-2.12,2.12,2.20,1.50,-1.31,-1.31,-1.32
180.32,-3.47,-2.12,-3.48,-2.14,2.14,2.16,1.43,-1.33,-1.34,-1.35
182.13,-3.51,-2.13,-3.53,-2.16,2.16,2.12,1.36,-1.35,-1.37,-1.38
183.95,-3.58,-2.18,-3.58,-2.18,2.18,2.09,1.29,-1.39,-1.40,-1.40
185.79,-3.63,-2.20,-3.63,-2.21,2.21,2.06,1.23,-1.42,-1.43,-1.43
187.65,-3.68,-2.22,-3.68,-2.23,2.23,2.03,1.16,-1.45,-1.45,-1.45
189.52,-3.74,-2.27,-3.72,-2.25,2.25,2.00,1.10,-1.49,-1.47,-1.47
191.42,-3.78,-2.29,-3.76,-2.27,2.27,1.98,1.04,-1.51,-1.49,-1.49
193.33,-3.82,-2.31,-3.80,-2.29,2.29,1.96,0.98,-1.53,-1.51,-1.50
195.27,-3.85,-2.33,-3.83,-2.30,2.30,1.95,0.92,-1.55,-1.53,-1.52
197.22,-3.87,-2.33,-3.86,-2.31,2.31,1.95,0.86,-1.55,-1.54,-1.54
199.19,-3.88,-2.31,-3.88,-2.32,2.32,1.95,0.80,-1.56,-1.56,-1.57
201.18,-3.90,-2.32,-3.90,-2.33,2.33,1.96,0.74,-1.57,-1.58,-1.58
203.19,-3.92,-2.33,-3.92,-2.33,2.33,1.98,0.68,-1.59,-1.59,-1.59
205.23,-3.93,-2.32,-3.94,-2.33,2.33,2.01,0.63,-1.60,-1.61,-1.61
207.28,-3.93,-2.31,-3.95,-2.32,2.32,2.04,0.57,-1.61,-1.62,-1.62
209.35,-3.94,-2.30,-3.95,-2.31,2.31,2.09,0.52,-1.62,-1.64,-1.64
211.44,-3.94,-2.28,-3.96,-2.30,2.30,2.14,0.46,-1.63,-1.65,-1.66
213.56,-3.94,-2.27,-3.96,-2.29,2.29,2.19,0.41,-1.65,-1.67,-1.67
215.69,-3.94,-2.26,-3.95,-2.27,2.27,2.25,0.35,-1.67,-1.68,-1.68
217.85,-3.94,-2.24,-3.94,-2.24,2.24,2.29,0.30,-1.69,-1.70,-1.70
220.03,-3.93,-2.21,-3.93,-2.21,2.21,2.33,0.25,-1.72,-1.71,-1.72
222.23,-3.92,-2.18,-3.90,-2.17,2.17,2.33,0.20,-1.74,-1.73,-1.74
224.45,-3.89,-2.14,-3.87,-2.12,2.12,2.31,0.15,-1.76,-1.75,-1.74
226.70,-3.85,-2.09,-3.83,-2.06,2.06,2.24,0.10,-1.78,-1.76,-1.76
228.96,-3.78,-2.01,-3.77,-1.99,1.99,2.14,0.05,-1.79,-1.78,-1.77
231.25,-3.73,-1.94,-3.71,-1.91,1.91,2.00,-0.00,-1.82,-1.80,-1.78
233.57,-3.65,-1.84,-3.63,-1.81,1.81,1.83,-0.05,-1.84,-1.82,-1.81
235.90,-3.53,-1.70,-3.54,-1.71,1.71,1.64,-0.10,-1.82,-1.83,-1.83
238.26,-3.45,-1.60,-3.44,-1.59,1.59,1.44,-0.14,-1.86,-1.85,-1.85
240.64,-3.32,-1.45,-3.33,-1.46,1.46,1.23,-0.19,-1.85,-1.86,-1.87
243.05,-3.21,-1.33,-3.20,-1.32,1.32,1.02,-0.23,-1.89,-1.88,-1.88
245.48,-3.07,-1.18,-3.06,-1.18,1.18,0.81,-0.28,-1.89,-1.89,-1.89
247.93,-2.88,-0.98,-2.91,-1.02,1.02,0.61,-0.32,-1.86,-1.90,-1.90
250.41,-2.75,-0.83,-2.75,-0.85,0.85,0.42,-0.37,-1.90,-1.90,-1.92
252.92,-2.55,-0.64,-2.57,-0.67,0.67,0.24,-0.41,-1.88,-1.91,-1.91
255.45,-2.40,-0.49,-2.39,-0.48,0.48,0.06,-0.46,-1.92,-1.91,-1.91
258.00,-2.24,-0.33,-2.19,-0.29,0.29,-0.11,-0.50,-1.95,-1.90,-1.91
260.58,-2.01,-0.10,-1.98,-0.09,0.09,-0.27,-0.54,-1.92,-1.90,-1.90
263.19,-1.81,0.08,-1.77,0.12,-0.12,-0.43,-0.59,-1.93,-1.89,-1.89
265.82,-1.53,0.36,-1.54,0.35,-0.35,-0.59,-0.63,-1.87,-1.88,-1.89
268.48,-1.31,0.56,-1.30,0.57,-0.57,-0.74,-0.67,-1.88,-1.87,-1.87
271.16,-1.09,0.77,-1.05,0.80,-0.80,-0.89,-0.71,-1.89,-1.86,-1.85
273.87,-0.78,1.06,-0.80,1.04,-1.04,-1.03,-0.76,-1.82,-1.85,-1.84
276.61,-0.53,1.29,-0.55,1.28,-1.28,-1.18,-0.80,-1.81,-1.83,-1.82
279.38,-0.29,1.53,-0.29,1.53,-1.53,-1.32,-0.84,-1.82,-1.82,-1.81
282.17,-0.05,1.75,-0.03,1.77,-1.77,-1.47,-0.89,-1.82,-1.80,-1.80
284.99,0.19,1.98,0.23,2.02,-2.02,-1.61,-0.93,-1.83,-1.79,-1.79
287.84,0.52,2.29,0.49,2.26,-2.26,-1.75,-0.98,-1.74,-1.77,-1.77
290.72,0.77,2.52,0.74,2.49,-2.49,-1.90,-1.02,-1.72,-1.75,-1.75
293.63,1.00,2.74,0.98,2.71,-2.71,-2.04,-1.07,-1.71,-1.74,-1.74
296.57,1.23,2.95,1.21,2.93,-2.93,-2.19,-1.11,-1.70,-1.72,-1.72
299.53,1.45,3.15,1.44,3.14,-3.14,-2.34,-1.16,-1.69,-1.70,-1.70
302.53,1.67,3.37,1.66,3.34,-3.34,-2.48,-1.21,-1.67,-1.68,-1.70
305.55,1.88,3.54,1.87,3.53,-3.53,-2.63,-1.26,-1.65,-1.66,-1.66
308.61,2.08,3.73,2.07,3.71,-3.71,-2.78,-1.31,-1.63,-1.64,-1.65
311.69,2.27,3.89,2.26,3.88,-3.88,-2.93,-1.36,-1.61,-1.62,-1.62
314.81,2.41,3.99,2.44,4.04,-4.04,-3.09,-1.41,-1.62,-1.60,-1.58
317.96,2.58,4.15,2.61,4.18,-4.18,-3.24,-1.47,-1.60,-1.58,-1.57
321.14,2.76,4.31,2.76,4.32,-4.32,-3.39,-1.52,-1.56,-1.55,-1.55
324.35,2.94,4.48,2.92,4.45,-4.45,-3.55,-1.58,-1.51,-1.53,-1.53
327.59,3.08,4.59,3.06,4.57,-4.57,-3.70,-1.64,-1.49,-1.51,-1.51
330.87,3.19,4.68,3.20,4.69,-4.69,-3.86,-1.70,-1.50,-1.49,-1.49
334.18,3.32,4.79,3.33,4.79,-4.79,-4.01,-1.76,-1.47,-1.46,-1.46
337.52,3.44,4.89,3.45,4.89,-4.89,-4.16,-1.82,-1.45,-1.44,-1.45
340.90,3.55,4.97,3.56,4.98,-4.98,-4.31,-1.89,-1.43,-1.42,-1.42
344.30,3.66,5.05,3.66,5.06,-5.06,-4.46,-1.96,-1.40,-1.40,-1.39
347.75,3.75,5.13,3.76,5.13,-5.13,-4.60,-2.02,-1.38,-1.37,-1.38
351.23,3.85,5.20,3.84,5.19,-5.19,-4.74,-2.09,-1.34,-1.35,-1.35
354.74,3.92,5.24,3.92,5.24,-5.24,-4.87,-2.17,-1.32,-1.32,-1.32
358.28,4.00,5.30,3.98,5.28,-5.28,-5.00,-2.24,-1.28,-1.30,-1.30
361.87,4.05,5.33,4.04,5.32,-5.32,-5.12,-2.31,-1.27,-1.28,-1.28
365.49,4.10,5.35,4.10,5.35,-5.35,-5.23,-2.39,-1.25,-1.25,-1.25
369.14,4.14,5.38,4.14,5.37,-5.37,-5.33,-2.47,-1.23,-1.23,-1.24
372.83,4.16,5.37,4.17,5.38,-5.38,-5.42,-2.55,-1.22,-1.21,-1.21
376.56,4.20,5.40,4.20,5.39,-5.39,-5.50,-2.63,-1.19,-1.19,-1.19
380.33,4.21,5.37,4.22,5.39,-5.39,-5.57,-2.72,-1.18,-1.17,-1.16
384.13,4.23,5.38,4.24,5.39,-5.39,-5.63,-2.80,-1.15,-1.15,-1.15
387.97,4.24,5.37,4.25,5.38,-5.38,-5.67,-2.89,-1.14,-1.13,-1.13
391.85,4.25,5.37,4.25,5.37,-5.37,-5.70,-2.98,-1.11,-1.12,-1.12
395.77,4.24,5.33,4.25,5.35,-5.35,-5.72,-3.06,-1.11,-1.10,-1.09
399.73,4.22,5.31,4.24,5.33,-5.33,-5.73,-3.15,-1.11,-1.09,-1.08
403.72,4.20,5.29,4.22,5.31,-5.31,-5.72,-3.24,-1.10,-1.09,-1.09
407.76,4.18,5.26,4.20,5.28,-5.28,-5.70,-3.33,-1.09,-1.08,-1.08
411.84,4.16,5.23,4.17,5.24,-5.24,-5.66,-3.42,-1.08,-1.07,-1.07
415.96,4.13,5.20,4.13,5.20,-5.20,-5.62,-3.51,-1.07,-1.07,-1.07
420.12,4.09,5.16,4.07,5.15,-5.15,-5.56,-3.60,-1.06,-1.07,-1.07
424.32,4.03,5.10,4.02,5.09,-5.09,-5.50,-3.69,-1.06,-1.07,-1.07
428.56,3.97,5.05,3.95,5.02,-5.02,-5.42,-3.78,-1.05,-1.08,-1.07
432.85,3.89,4.98,3.87,4.95,-4.95,-5.34,-3.86,-1.05,-1.08,-1.08
437.18,3.79,4.88,3.78,4.86,-4.86,-5.25,-3.95,-1.07,-1.08,-1.09
441.55,3.69,4.78,3.68,4.76,-4.76,-5.16,-4.03,-1.07,-1.09,-1.09
445.96,3.58,4.68,3.57,4.66,-4.66,-5.06,-4.10,-1.08,-1.09,-1.10
