frequency,raw,error,smoothed,error_smoothed,equalization,parametric_eq,fixed_band_eq,equalized_raw,equalized_smoothed,target
20.00,2.90,-4.58,2.89,-4.62,4.62,4.58,0.88,7.51,7.50,7.48
20.20,2.95,-4.53,2.94,-4.56,4.56,4.55,0.91,7.50,7.50,7.48
20.40,2.99,-4.49,2.99,-4.49,4.49,4.52,0.93,7.48,7.49,7.48
20.61,3.04,-4.44,3.04,-4.43,4.43,4.48,0.96,7.47,7.48,7.48
20.81,3.10,-4.38,3.10,-4.37,4.37,4.43,0.99,7.47,7.47,7.48
21.02,3.15,-4.33,3.15,-4.30,4.30,4.38,1.02,7.45,7.45,7.48
21.23,3.21,-4.25,3.20,-4.24,4.24,4.32,1.05,7.44,7.44,7.46
21.44,3.26,-4.19,3.26,-4.17,4.17,4.26,1.08,7.43,7.43,7.45
21.66,3.31,-4.12,3.31,-4.10,4.10,4.19,1.12,7.41,7.41,7.43
21.87,3.37,-4.04,3.37,-4.03,4.03,4.12,1.15,7.40,7.40,7.41
22.09,3.43,-3.97,3.42,-3.96,3.96,4.04,1.19,7.39,7.38,7.40
22.31,3.48,-3.89,3.48,-3.89,3.89,3.96,1.22,7.36,7.37,7.36
22.54,3.54,-3.81,3.54,-3.81,3.81,3.88,1.26,7.34,7.34,7.34
22.76,3.60,-3.73,3.59,-3.73,3.73,3.80,1.30,7.32,7.32,7.32
22.99,3.66,-3.64,3.65,-3.65,3.65,3.71,1.34,7.30,7.30,7.29
23.22,3.71,-3.56,3.71,-3.57,3.57,3.62,1.37,7.27,7.28,7.26
23.45,3.77,-3.47,3.77,-3.49,3.49,3.54,1.41,7.25,7.26,7.24
23.69,3.83,-3.41,3.83,-3.41,3.41,3.45,1.46,7.23,7.23,7.23
23.92,3.89,-3.32,3.88,-3.33,3.33,3.36,1.50,7.22,7.21,7.21
24.16,3.95,-3.25,3.94,-3.25,3.25,3.27,1.54,7.20,7.19,7.20
24.40,4.00,-3.18,4.00,-3.17,3.17,3.18,1.58,7.17,7.17,7.18
24.65,4.06,-3.10,4.06,-3.09,3.09,3.09,1.62,7.15,7.15,7.16
24.89,4.12,-3.02,4.12,-3.02,3.02,3.00,1.67,7.14,7.14,7.14
25.14,4.18,-2.95,4.18,-2.94,2.94,2.91,1.71,7.12,7.12,7.12
25.39,4.24,-2.87,4.23,-2.87,2.87,2.83,1.75,7.11,7.10,7.10
25.65,4.30,-2.80,4.29,-2.80,2.80,2.74,1.80,7.09,7.09,7.09
25.91,4.35,-2.72,4.35,-2.72,2.72,2.66,1.84,7.07,7.07,7.06
26.16,4.41,-2.64,4.41,-2.65,2.65,2.58,1.88,7.06,7.06,7.05
26.43,4.47,-2.57,4.46,-2.58,2.58,2.50,1.92,7.04,7.04,7.04
26.69,4.52,-2.50,4.52,-2.50,2.50,2.42,1.97,7.02,7.02,7.02
26.96,4.58,-2.43,4.57,-2.43,2.43,2.34,2.01,7.01,7.01,7.01
27.23,4.64,-2.36,4.63,-2.36,2.36,2.27,2.04,7.00,6.99,7.00
27.50,4.68,-2.31,4.69,-2.29,2.29,2.19,2.08,6.96,6.98,6.98
27.77,4.74,-2.23,4.74,-2.22,2.22,2.12,2.11,6.96,6.96,6.96
28.05,4.80,-2.15,4.80,-2.15,2.15,2.05,2.15,6.94,6.95,6.95
28.33,4.86,-2.07,4.86,-2.08,2.08,1.98,2.18,6.93,6.93,6.93
28.62,4.92,-2.00,4.91,-2.01,2.01,1.92,2.20,6.92,6.92,6.92
28.90,4.97,-1.94,4.97,-1.94,1.94,1.85,2.23,6.90,6.91,6.91
29.19,5.02,-1.87,5.02,-1.87,1.87,1.79,2.25,6.89,6.89,6.88
29.48,5.09,-1.80,5.08,-1.80,1.80,1.73,2.27,6.89,6.88,6.88
29.78,5.14,-1.73,5.13,-1.74,1.74,1.67,2.28,6.87,6.87,6.87
30.08,5.19,-1.67,5.18,-1.67,1.67,1.61,2.29,6.86,6.85,6.86
30.38,5.23,-1.61,5.23,-1.61,1.61,1.55,2.30,6.84,6.84,6.84
30.68,5.28,-1.55,5.27,-1.55,1.55,1.49,2.30,6.82,6.82,6.82
30.99,5.33,-1.48,5.31,-1.49,1.49,1.44,2.30,6.82,6.80,6.80
31.30,5.36,-1.43,5.35,-1.43,1.43,1.39,2.29,6.79,6.79,6.79
31.61,5.40,-1.38,5.39,-1.38,1.38,1.34,2.28,6.77,6.77,6.78
31.93,5.43,-1.33,5.43,-1.32,1.32,1.29,2.26,6.75,6.75,6.75
32.24,5.46,-1.26,5.46,-1.27,1.27,1.24,2.25,6.72,6.73,6.72
32.57,5.50,-1.21,5.50,-1.21,1.21,1.19,2.22,6.71,6.71,6.71
32.89,5.53,-1.17,5.53,-1.16,1.16,1.14,2.20,6.69,6.69,6.70
33.22,5.56,-1.11,5.56,-1.11,1.11,1.10,2.16,6.67,6.67,6.66
33.55,5.59,-1.06,5.58,-1.06,1.06,1.05,2.13,6.65,6.65,6.65
33.89,5.61,-1.02,5.61,-1.01,1.01,1.01,2.09,6.62,6.63,6.63
34.23,5.64,-0.97,5.64,-0.97,0.97,0.97,2.05,6.60,6.60,6.60
34.57,5.67,-0.91,5.66,-0.92,0.92,0.93,2.01,6.59,6.58,6.58
34.92,5.69,-0.87,5.69,-0.87,0.87,0.89,1.96,6.56,6.56,6.56
35.27,5.71,-0.84,5.71,-0.83,0.83,0.85,1.92,6.54,6.54,6.54
35.62,5.74,-0.78,5.73,-0.79,0.79,0.81,1.87,6.52,6.52,6.52
35.97,5.75,-0.75,5.75,-0.75,0.75,0.77,1.81,6.49,6.50,6.49
36.33,5.78,-0.70,5.77,-0.71,0.71,0.74,1.76,6.48,6.48,6.48
36.70,5.79,-0.67,5.79,-0.67,0.67,0.70,1.70,6.45,6.45,6.46
37.06,5.81,-0.62,5.80,-0.63,0.63,0.67,1.65,6.44,6.43,6.43
37.43,5.83,-0.59,5.82,-0.59,0.59,0.63,1.59,6.42,6.41,6.42
37.81,5.84,-0.55,5.83,-0.56,0.56,0.60,1.53,6.39,6.39,6.39
38.19,5.85,-0.52,5.85,-0.52,0.52,0.57,1.48,6.37,6.37,6.37
38.57,5.86,-0.49,5.86,-0.49,0.49,0.53,1.42,6.34,6.35,6.35
38.95,5.87,-0.46,5.87,-0.46,0.46,0.50,1.36,6.32,6.33,6.32
39.34,5.88,-0.42,5.88,-0.42,0.42,0.47,1.30,6.30,6.30,6.30
39.74,5.89,-0.39,5.89,-0.39,0.39,0.44,1.24,6.28,6.28,6.27
40.14,5.90,-0.37,5.90,-0.36,0.36,0.41,1.18,6.26,6.26,6.27
40.54,5.91,-0.33,5.91,-0.34,0.34,0.38,1.13,6.24,6.24,6.24
40.94,5.92,-0.31,5.92,-0.31,0.31,0.35,1.07,6.22,6.22,6.22
41.35,5.93,-0.27,5.93,-0.28,0.28,0.32,1.01,6.20,6.20,6.20
41.76,5.94,-0.25,5.93,-0.25,0.25,0.30,0.95,6.19,6.18,6.19
42.18,5.95,-0.23,5.94,-0.22,0.22,0.27,0.90,6.17,6.16,6.17
42.60,5.95,-0.20,5.95,-0.20,0.20,0.24,0.84,6.14,6.14,6.14
43.03,5.96,-0.18,5.95,-0.17,0.17,0.22,0.79,6.12,6.12,6.14
43.46,5.96,-0.15,5.96,-0.14,0.14,0.19,0.73,6.10,6.10,6.11
43.90,5.97,-0.11,5.96,-0.12,0.12,0.16,0.68,6.09,6.08,6.08
44.33,5.97,-0.09,5.96,-0.10,0.10,0.14,0.62,6.07,6.06,6.06
44.78,5.97,-0.07,5.97,-0.08,0.08,0.11,0.57,6.04,6.04,6.04
45.23,5.97,-0.04,5.97,-0.06,0.06,0.09,0.52,6.02,6.02,6.01
45.68,5.96,-0.03,5.96,-0.04,0.04,0.06,0.47,5.99,6.00,5.99
46.13,5.97,-0.00,5.96,-0.02,0.02,0.04,0.42,5.98,5.98,5.97
46.60,5.96,-0.00,5.95,-0.00,0.00,0.01,0.37,5.96,5.96,5.96
47.06,5.96,0.02,5.95,0.02,-0.02,-0.01,0.32,5.94,5.93,5.94
47.53,5.95,0.03,5.94,0.03,-0.03,-0.03,0.27,5.91,5.91,5.92
48.01,5.94,0.03,5.93,0.05,-0.05,-0.06,0.22,5.89,5.89,5.90
48.49,5.93,0.05,5.92,0.06,-0.06,-0.08,0.17,5.86,5.86,5.87
48.97,5.92,0.08,5.92,0.08,-0.08,-0.10,0.12,5.84,5.84,5.84
49.46,5.91,0.10,5.91,0.09,-0.09,-0.13,0.07,5.81,5.82,5.81
49.96,5.89,0.11,5.90,0.11,-0.11,-0.15,0.03,5.78,5.79,5.77
50.46,5.89,0.12,5.89,0.12,-0.12,-0.17,-0.02,5.77,5.77,5.77
50.96,5.88,0.13,5.88,0.14,-0.14,-0.20,-0.06,5.74,5.74,5.74
51.47,5.87,0.16,5.87,0.15,-0.15,-0.22,-0.11,5.71,5.71,5.71
51.99,5.86,0.18,5.86,0.17,-0.17,-0.24,-0.15,5.68,5.69,5.68
52.51,5.85,0.18,5.85,0.19,-0.19,-0.26,-0.19,5.66,5.66,5.66
53.03,5.84,0.20,5.84,0.21,-0.21,-0.29,-0.24,5.63,5.63,5.64
53.56,5.84,0.23,5.84,0.23,-0.23,-0.31,-0.28,5.61,5.61,5.61
54.10,5.84,0.25,5.83,0.25,-0.25,-0.33,-0.32,5.59,5.58,5.58
54.64,5.82,0.26,5.82,0.27,-0.27,-0.35,-0.36,5.54,5.55,5.55
55.18,5.82,0.29,5.82,0.29,-0.29,-0.38,-0.40,5.52,5.53,5.52
55.74,5.82,0.32,5.82,0.32,-0.32,-0.40,-0.44,5.50,5.50,5.49
56.29,5.81,0.33,5.81,0.34,-0.34,-0.42,-0.47,5.47,5.47,5.47
56.86,5.81,0.37,5.81,0.36,-0.36,-0.44,-0.51,5.44,5.44,5.44
57.42,5.81,0.40,5.80,0.39,-0.39,-0.46,-0.55,5.42,5.42,5.41
58.00,5.80,0.41,5.80,0.41,-0.41,-0.49,-0.58,5.39,5.39,5.39
58.58,5.79,0.43,5.79,0.43,-0.43,-0.51,-0.61,5.35,5.35,5.35
59.16,5.79,0.46,5.78,0.46,-0.46,-0.53,-0.64,5.33,5.32,5.33
59.76,5.78,0.47,5.77,0.48,-0.48,-0.55,-0.67,5.30,5.29,5.30
60.35,5.77,0.50,5.77,0.50,-0.50,-0.58,-0.70,5.26,5.26,5.27
60.96,5.76,0.51,5.76,0.52,-0.52,-0.60,-0.73,5.23,5.23,5.25
61.57,5.75,0.54,5.75,0.54,-0.54,-0.62,-0.75,5.20,5.20,5.20
62.18,5.74,0.57,5.73,0.56,-0.56,-0.64,-0.78,5.17,5.17,5.16
62.80,5.73,0.59,5.72,0.58,-0.58,-0.67,-0.80,5.14,5.14,5.13
63.43,5.71,0.61,5.70,0.60,-0.60,-0.69,-0.83,5.11,5.11,5.09
64.07,5.69,0.62,5.69,0.61,-0.61,-0.71,-0.85,5.07,5.08,5.06
64.71,5.68,0.63,5.67,0.63,-0.63,-0.73,-0.87,5.05,5.04,5.04
65.35,5.65,0.64,5.65,0.64,-0.64,-0.76,-0.88,5.01,5.01,5.01
66.01,5.63,0.64,5.63,0.65,-0.65,-0.78,-0.90,4.98,4.98,4.99
66.67,5.62,0.67,5.61,0.66,-0.66,-0.80,-0.92,4.95,4.95,4.95
67.33,5.60,0.67,5.59,0.67,-0.67,-0.83,-0.93,4.92,4.92,4.93
68.01,5.57,0.68,5.57,0.68,-0.68,-0.85,-0.95,4.89,4.89,4.89
68.69,5.55,0.68,5.55,0.69,-0.69,-0.87,-0.96,4.86,4.86,4.86
69.37,5.53,0.70,5.52,0.70,-0.70,-0.90,-0.98,4.83,4.83,4.82
70.07,5.50,0.70,5.50,0.71,-0.71,-0.92,-0.99,4.79,4.79,4.79
70.77,5.48,0.71,5.47,0.72,-0.72,-0.95,-1.00,4.76,4.76,4.76
71.48,5.46,0.73,5.45,0.73,-0.73,-0.97,-1.02,4.73,4.72,4.72
72.19,5.42,0.73,5.42,0.74,-0.74,-0.99,-1.03,4.68,4.68,4.69
72.91,5.40,0.75,5.40,0.75,-0.75,-1.02,-1.04,4.65,4.65,4.65
73.64,5.37,0.76,5.37,0.76,-0.76,-1.04,-1.05,4.60,4.61,4.60
74.38,5.34,0.77,5.34,0.78,-0.78,-1.07,-1.07,4.56,4.56,4.57
75.12,5.32,0.80,5.31,0.79,-0.79,-1.09,-1.08,4.53,4.52,4.51
75.87,5.29,0.81,5.29,0.81,-0.81,-1.12,-1.09,4.48,4.48,4.47
76.63,5.26,0.82,5.26,0.82,-0.82,-1.14,-1.11,4.43,4.43,4.44
77.40,5.23,0.84,5.23,0.84,-0.84,-1.17,-1.12,4.39,4.39,4.39
78.17,5.20,0.87,5.20,0.86,-0.86,-1.19,-1.13,4.34,4.34,4.33
78.95,5.17,0.87,5.17,0.88,-0.88,-1.22,-1.15,4.29,4.29,4.30
79.74,5.14,0.89,5.14,0.90,-0.90,-1.24,-1.16,4.24,4.24,4.24
80.54,5.11,0.91,5.11,0.92,-0.92,-1.27,-1.18,4.18,4.19,4.19
81.35,5.09,0.95,5.08,0.94,-0.94,-1.30,-1.20,4.14,4.14,4.14
82.16,5.06,0.97,5.05,0.96,-0.96,-1.32,-1.22,4.09,4.09,4.08
82.98,5.03,0.99,5.02,0.99,-0.99,-1.35,-1.24,4.04,4.03,4.04
83.81,4.99,1.01,4.99,1.01,-1.01,-1.38,-1.26,3.98,3.98,3.97
84.65,4.95,1.03,4.96,1.04,-1.04,-1.40,-1.28,3.91,3.92,3.91
85.50,4.93,1.06,4.92,1.06,-1.06,-1.43,-1.30,3.87,3.86,3.87
86.35,4.90,1.09,4.89,1.09,-1.09,-1.46,-1.32,3.81,3.81,3.81
87.22,4.86,1.11,4.86,1.11,-1.11,-1.49,-1.35,3.75,3.75,3.75
88.09,4.83,1.14,4.83,1.14,-1.14,-1.51,-1.37,3.69,3.69,3.69
88.97,4.80,1.16,4.80,1.16,-1.16,-1.54,-1.40,3.63,3.63,3.64
89.86,4.77,1.19,4.76,1.19,-1.19,-1.57,-1.43,3.57,3.57,3.57
90.76,4.73,1.23,4.73,1.22,-1.22,-1.60,-1.45,3.51,3.51,3.50
91.66,4.70,1.25,4.70,1.25,-1.25,-1.63,-1.48,3.45,3.45,3.45
92.58,4.67,1.29,4.67,1.28,-1.28,-1.65,-1.51,3.38,3.39,3.37
93.51,4.64,1.31,4.64,1.31,-1.31,-1.68,-1.55,3.32,3.32,3.33
94.44,4.61,1.34,4.61,1.35,-1.35,-1.71,-1.58,3.26,3.26,3.27
95.39,4.58,1.38,4.58,1.38,-1.38,-1.74,-1.61,3.19,3.19,3.20
96.34,4.55,1.42,4.55,1.42,-1.42,-1.77,-1.65,3.12,3.13,3.12
97.30,4.52,1.46,4.52,1.46,-1.46,-1.80,-1.68,3.06,3.06,3.06
98.28,4.49,1.49,4.49,1.50,-1.50,-1.83,-1.72,2.99,2.99,2.99
99.26,4.46,1.54,4.46,1.54,-1.54,-1.86,-1.76,2.92,2.92,2.91
100.25,4.44,1.59,4.43,1.58,-1.58,-1.89,-1.79,2.85,2.85,2.85
101.25,4.41,1.63,4.41,1.63,-1.63,-1.92,-1.83,2.78,2.78,2.78
102.27,4.38,1.67,4.38,1.67,-1.67,-1.95,-1.87,2.70,2.71,2.70
103.29,4.35,1.72,4.35,1.72,-1.72,-1.98,-1.91,2.63,2.63,2.63
104.32,4.33,1.77,4.32,1.76,-1.76,-2.01,-1.95,2.56,2.56,2.56
105.37,4.30,1.81,4.29,1.81,-1.81,-2.04,-1.99,2.49,2.48,2.49
106.42,4.27,1.85,4.27,1.86,-1.86,-2.07,-2.03,2.41,2.41,2.41
107.48,4.24,1.90,4.24,1.90,-1.90,-2.10,-2.07,2.33,2.33,2.33
108.56,4.21,1.95,4.21,1.95,-1.95,-2.13,-2.11,2.25,2.26,2.26
109.64,4.19,2.01,4.18,2.00,-2.00,-2.16,-2.15,2.19,2.18,2.18
110.74,4.16,2.04,4.15,2.05,-2.05,-2.20,-2.19,2.11,2.10,2.11
111.85,4.12,2.08,4.12,2.09,-2.09,-2.23,-2.22,2.02,2.02,2.03
112.97,4.09,2.15,4.09,2.14,-2.14,-2.26,-2.26,1.95,1.95,1.94
114.10,4.06,2.19,4.06,2.19,-2.19,-2.29,-2.30,1.87,1.87,1.87
115.24,4.03,2.23,4.02,2.23,-2.23,-2.32,-2.33,1.80,1.79,1.79
116.39,4.00,2.29,3.99,2.28,-2.28,-2.35,-2.36,1.72,1.72,1.71
117.55,3.96,2.32,3.96,2.32,-2.32,-2.38,-2.39,1.63,1.64,1.63
118.73,3.93,2.37,3.93,2.37,-2.37,-2.42,-2.42,1.56,1.57,1.56
119.92,3.90,2.40,3.90,2.41,-2.41,-2.45,-2.45,1.49,1.49,1.49
121.12,3.87,2.45,3.87,2.45,-2.45,-2.48,-2.47,1.41,1.42,1.42
122.33,3.85,2.50,3.84,2.50,-2.50,-2.51,-2.50,1.35,1.35,1.35
123.55,3.82,2.53,3.82,2.54,-2.54,-2.54,-2.52,1.27,1.28,1.28
124.79,3.79,2.57,3.79,2.58,-2.58,-2.57,-2.54,1.20,1.21,1.21
126.03,3.77,2.62,3.76,2.62,-2.62,-2.60,-2.55,1.14,1.14,1.15
127.29,3.74,2.66,3.74,2.66,-2.66,-2.63,-2.57,1.07,1.07,1.08
128.57,3.71,2.71,3.71,2.70,-2.70,-2.67,-2.58,1.01,1.01,1.00
129.85,3.69,2.75,3.68,2.74,-2.74,-2.70,-2.59,0.95,0.95,0.94
131.15,3.66,2.77,3.65,2.77,-2.77,-2.73,-2.60,0.89,0.88,0.88
132.46,3.63,2.81,3.62,2.80,-2.80,-2.76,-2.61,0.83,0.82,0.82
133.79,3.60,2.83,3.59,2.83,-2.83,-2.79,-2.61,0.77,0.77,0.77
135.12,3.57,2.86,3.56,2.85,-2.85,-2.82,-2.62,0.71,0.71,0.70
136.48,3.54,2.88,3.53,2.87,-2.87,-2.85,-2.62,0.66,0.66,0.66
137.84,3.50,2.88,3.50,2.89,-2.89,-2.88,-2.62,0.60,0.61,0.61
139.22,3.47,2.92,3.47,2.91,-2.91,-2.91,-2.62,0.56,0.56,0.55
140.61,3.44,2.94,3.44,2.92,-2.92,-2.94,-2.62,0.52,0.51,0.50
142.02,3.41,2.93,3.40,2.93,-2.93,-2.97,-2.62,0.48,0.47,0.48
143.44,3.37,2.93,3.37,2.93,-2.93,-3.00,-2.62,0.43,0.43,0.44
144.87,3.33,2.94,3.33,2.94,-2.94,-3.03,-2.62,0.39,0.39,0.39
146.32,3.30,2.95,3.29,2.94,-2.94,-3.06,-2.62,0.35,0.35,0.35
147.78,3.26,2.93,3.26,2.94,-2.94,-3.08,-2.62,0.31,0.31,0.32
149.26,3.23,2.94,3.22,2.94,-2.94,-3.11,-2.62,0.28,0.28,0.29
150.75,3.18,2.94,3.18,2.94,-2.94,-3.14,-2.62,0.24,0.24,0.24
152.26,3.15,2.94,3.14,2.94,-2.94,-3.17,-2.62,0.21,0.21,0.21
153.78,3.11,2.93,3.10,2.93,-2.93,-3.19,-2.63,0.17,0.17,0.17
155.32,3.07,2.93,3.07,2.93,-2.93,-3.22,-2.63,0.14,0.14,0.14
156.88,3.03,2.92,3.02,2.92,-2.92,-3.24,-2.64,0.10,0.10,0.11
158.44,2.99,2.92,2.98,2.92,-2.92,-3.27,-2.65,0.07,0.07,0.07
160.03,2.95,2.92,2.94,2.91,-2.91,-3.29,-2.65,0.04,0.03,0.03
161.63,2.91,2.92,2.90,2.90,-2.90,-3.32,-2.67,0.00,-0.00,-0.01
163.24,2.87,2.90,2.86,2.90,-2.90,-3.34,-2.68,-0.03,-0.04,-0.04
164.88,2.83,2.89,2.82,2.89,-2.89,-3.36,-2.69,-0.07,-0.07,-0.06
166.53,2.79,2.89,2.78,2.89,-2.89,-3.39,-2.71,-0.10,-0.11,-0.10
168.19,2.75,2.89,2.74,2.88,-2.88,-3.41,-2.73,-0.14,-0.14,-0.14
169.87,2.71,2.88,2.70,2.88,-2.88,-3.43,-2.75,-0.18,-0.18,-0.18
171.57,2.68,2.89,2.67,2.89,-2.89,-3.45,-2.77,-0.21,-0.22,-0.21
173.29,2.64,2.88,2.64,2.89,-2.89,-3.47,-2.80,-0.26,-0.26,-0.24
175.02,2.61,2.89,2.61,2.90,-2.90,-3.49,-2.83,-0.30,-0.30,-0.28
176.77,2.58,2.91,2.59,2.92,-2.92,-3.51,-2.86,-0.34,-0.33,-0.34
178.54,2.56,2.93,2.57,2.94,-2.94,-3.52,-2.89,-0.38,-0.37,-0.37
180.32,2.54,2.95,2.56,2.97,-2.97,-3.54,-2.92,-0.43,-0.41,-0.41
182.13,2.53,2.98,2.55,3.00,-3.00,-3.55,-2.96,-0.48,-0.45,-0.45
183.95,2.52,3.01,2.55,3.04,-3.04,-3.57,-3.00,-0.52,-0.49,-0.50
185.79,2.54,3.07,2.55,3.08,-3.08,-3.58,-3.04,-0.55,-0.53,-0.53
187.65,2.55,3.13,2.55,3.12,-3.12,-3.60,-3.08,-0.58,-0.57,-0.58
189.52,2.55,3.16,2.56,3.17,-3.17,-3.61,-3.13,-0.62,-0.61,-0.61
191.42,2.58,3.22,2.57,3.21,-3.21,-3.62,-3.18,-0.64,-0.64,-0.65
193.33,2.60,3.27,2.58,3.26,-3.26,-3.63,-3.23,-0.66,-0.68,-0.67
195.27,2.61,3.31,2.59,3.30,-3.30,-3.64,-3.28,-0.69,-0.71,-0.70
197.22,2.62,3.35,2.59,3.33,-3.33,-3.65,-3.33,-0.72,-0.74,-0.73
199.19,2.63,3.41,2.59,3.36,-3.36,-3.65,-3.38,-0.74,-0.77,-0.79
201.18,2.63,3.43,2.59,3.39,-3.39,-3.66,-3.44,-0.76,-0.80,-0.81
203.19,2.61,3.43,2.58,3.41,-3.41,-3.66,-3.49,-0.81,-0.83,-0.83
205.23,2.60,3.45,2.57,3.43,-3.43,-3.67,-3.55,-0.83,-0.85,-0.86
207.28,2.58,3.44,2.56,3.44,-3.44,-3.67,-3.60,-0.87,-0.88,-0.86
209.35,2.56,3.46,2.56,3.46,-3.46,-3.67,-3.66,-0.90,-0.90,-0.90
211.44,2.55,3.47,2.55,3.47,-3.47,-3.67,-3.72,-0.92,-0.92,-0.93
213.56,2.52,3.46,2.54,3.48,-3.48,-3.67,-3.77,-0.97,-0.94,-0.95
215.69,2.52,3.47,2.54,3.50,-3.50,-3.67,-3.83,-0.98,-0.96,-0.95
217.85,2.51,3.47,2.55,3.52,-3.52,-3.67,-3.88,-1.01,-0.97,-0.97
220.03,2.53,3.52,2.56,3.54,-3.54,-3.66,-3.93,-1.02,-0.99,-0.99
222.23,2.55,3.55,2.58,3.57,-3.57,-3.66,-3.98,-1.02,-0.99,-1.01
224.45,2.58,3.58,2.60,3.60,-3.60,-3.65,-4.02,-1.03,-1.00,-1.00
226.70,2.62,3.63,2.63,3.64,-3.64,-3.64,-4.07,-1.03,-1.01,-1.01
228.96,2.67,3.68,2.67,3.68,-3.68,-3.64,-4.10,-1.02,-1.01,-1.02
231.25,2.71,3.72,2.71,3.72,-3.72,-3.63,-4.14,-1.02,-1.01,-1.01
233.57,2.76,3.76,2.75,3.76,-3.76,-3.62,-4.17,-1.01,-1.01,-1.00
235.90,2.81,3.81,2.80,3.80,-3.80,-3.60,-4.19,-0.99,-1.00,-1.00
238.26,2.86,3.86,2.84,3.83,-3.83,-3.59,-4.21,-0.98,-1.00,-1.00
240.64,2.90,3.88,2.88,3.86,-3.86,-3.58,-4.23,-0.97,-0.99,-0.99
243.05,2.94,3.91,2.91,3.88,-3.88,-3.56,-4.23,-0.95,-0.97,-0.98
245.48,2.96,3.91,2.94,3.90,-3.90,-3.54,-4.23,-0.94,-0.96,-0.96
247.93,2.98,3.92,2.96,3.90,-3.90,-3.53,-4.23,-0.93,-0.94,-0.95
250.41,3.00,3.93,2.97,3.90,-3.90,-3.51,-4.22,-0.90,-0.93,-0.94
252.92,3.00,3.90,2.98,3.89,-3.89,-3.49,-4.20,-0.89,-0.91,-0.90
255.45,2.98,3.86,2.98,3.87,-3.87,-3.47,-4.17,-0.90,-0.89,-0.88
258.00,2.98,3.84,2.98,3.85,-3.85,-3.45,-4.14,-0.87,-0.87,-0.86
260.58,2.97,3.82,2.97,3.82,-3.82,-3.42,-4.10,-0.85,-0.85,-0.85
263.19,2.95,3.77,2.96,3.78,-3.78,-3.40,-4.06,-0.84,-0.83,-0.83
265.82,2.94,3.74,2.94,3.74,-3.74,-3.37,-4.01,-0.81,-0.80,-0.81
268.48,2.92,3.70,2.92,3.70,-3.70,-3.35,-3.95,-0.78,-0.78,-0.78
271.16,2.90,3.65,2.90,3.66,-3.66,-3.32,-3.89,-0.76,-0.76,-0.75
273.87,2.87,3.60,2.87,3.61,-3.61,-3.29,-3.83,-0.74,-0.74,-0.74
276.61,2.85,3.55,2.85,3.56,-3.56,-3.26,-3.76,-0.72,-0.71,-0.70
279.38,2.83,3.52,2.82,3.51,-3.51,-3.23,-3.68,-0.69,-0.69,-0.69
282.17,2.80,3.46,2.80,3.47,-3.47,-3.20,-3.61,-0.67,-0.67,-0.67
284.99,2.77,3.41,2.77,3.41,-3.41,-3.17,-3.53,-0.65,-0.64,-0.64
287.84,2.74,3.35,2.75,3.36,-3.36,-3.14,-3.44,-0.62,-0.61,-0.62
290.72,2.73,3.31,2.72,3.30,-3.30,-3.10,-3.36,-0.58,-0.59,-0.58
293.63,2.70,3.26,2.69,3.25,-3.25,-3.07,-3.27,-0.55,-0.56,-0.57
296.57,2.67,3.20,2.66,3.19,-3.19,-3.03,-3.18,-0.53,-0.53,-0.53
299.53,2.64,3.14,2.63,3.13,-3.13,-3.00,-3.10,-0.50,-0.50,-0.51
302.53,2.60,3.08,2.60,3.07,-3.07,-2.96,-3.01,-0.48,-0.47,-0.48
305.55,2.57,3.00,2.57,3.01,-3.01,-2.92,-2.92,-0.45,-0.44,-0.44
308.61,2.55,2.96,2.54,2.95,-2.95,-2.88,-2.82,-0.40,-0.41,-0.41
311.69,2.51,2.88,2.51,2.89,-2.89,-2.84,-2.73,-0.38,-0.38,-0.38
314.81,2.48,2.82,2.48,2.82,-2.82,-2.80,-2.64,-0.35,-0.35,-0.34
317.96,2.44,2.75,2.44,2.76,-2.76,-2.76,-2.55,-0.32,-0.32,-0.31
321.14,2.42,2.70,2.41,2.70,-2.70,-2.72,-2.46,-0.28,-0.29,-0.29
324.35,2.38,2.64,2.37,2.63,-2.63,-2.68,-2.38,-0.25,-0.26,-0.26
327.59,2.34,2.56,2.34,2.57,-2.57,-2.63,-2.29,-0.23,-0.23,-0.22
330.87,2.31,2.50,2.30,2.50,-2.50,-2.59,-2.20,-0.20,-0.20,-0.20
334.18,2.27,2.45,2.27,2.44,-2.44,-2.54,-2.12,-0.18,-0.18,-0.18
337.52,2.24,2.39,2.23,2.38,-2.38,-2.50,-2.03,-0.15,-0.15,-0.15
340.90,2.20,2.32,2.19,2.32,-2.32,-2.45,-1.95,-0.13,-0.13,-0.13
344.30,2.16,2.27,2.16,2.27,-2.27,-2.41,-1.87,-0.11,-0.11,-0.11
347.75,2.13,2.21,2.12,2.21,-2.21,-2.36,-1.79,-0.08,-0.09,-0.08
351.23,2.09,2.15,2.09,2.16,-2.16,-2.31,-1.71,-0.07,-0.07,-0.06
354.74,2.05,2.09,2.06,2.11,-2.11,-2.27,-1.63,-0.06,-0.05,-0.05
358.28,2.02,2.05,2.03,2.05,-2.05,-2.22,-1.55,-0.04,-0.03,-0.03
361.87,2.00,2.01,2.00,2.01,-2.01,-2.17,-1.48,-0.01,-0.01,-0.01
365.49,1.97,1.95,1.97,1.96,-1.96,-2.12,-1.40,0.00,0.01,0.02
369.14,1.95,1.92,1.95,1.92,-1.92,-2.07,-1.33,0.03,0.03,0.02
372.83,1.92,1.87,1.92,1.87,-1.87,-2.02,-1.26,0.04,0.05,0.04
376.56,1.91,1.85,1.90,1.83,-1.83,-1.97,-1.19,0.07,0.07,0.06
380.33,1.88,1.79,1.88,1.79,-1.79,-1.91,-1.12,0.08,0.09,0.09
384.13,1.87,1.76,1.86,1.75,-1.75,-1.86,-1.05,0.11,0.11,0.11
387.97,1.84,1.71,1.84,1.71,-1.71,-1.81,-0.99,0.12,0.13,0.12
391.85,1.83,1.68,1.82,1.68,-1.68,-1.76,-0.92,0.15,0.15,0.14
395.77,1.81,1.63,1.81,1.64,-1.64,-1.70,-0.86,0.16,0.17,0.17
399.73,1.80,1.61,1.79,1.61,-1.61,-1.65,-0.79,0.19,0.19,0.19
403.72,1.78,1.57,1.78,1.57,-1.57,-1.59,-0.73,0.21,0.21,0.21
407.76,1.76,1.53,1.77,1.54,-1.54,-1.54,-0.67,0.22,0.23,0.23
411.84,1.75,1.49,1.75,1.50,-1.50,-1.48,-0.61,0.24,0.25,0.26
415.96,1.74,1.46,1.74,1.47,-1.47,-1.43,-0.55,0.27,0.27,0.27
420.12,1.73,1.43,1.73,1.44,-1.44,-1.37,-0.49,0.29,0.30,0.29
424.32,1.72,1.39,1.72,1.40,-1.40,-1.31,-0.43,0.32,0.32,0.32
428.56,1.70,1.36,1.70,1.36,-1.36,-1.25,-0.38,0.33,0.34,0.34
432.85,1.69,1.33,1.69,1.32,-1.32,-1.19,-0.32,0.36,0.36,0.36
437.18,1.68,1.29,1.67,1.28,-1.28,-1.13,-0.27,0.40,0.39,0.39
441.55,1.67,1.25,1.65,1.23,-1.23,-1.07,-0.22,0.43,0.41,0.42
445.96,1.65,1.21,1.62,1.18,-1.18,-1.01,-0.16,0.46,0.44,0.44
450.42,1.62,1.16,1.60,1.13,-1.13,-0.95,-0.11,0.48,0.46,0.46
454.93,1.57,1.07,1.57,1.08,-1.08,-0.89,-0.06,0.49,0.49,0.49
459.48,1.54,1.02,1.53,1.02,-1.02,-0.82,-0.02,0.52,0.52,0.51
464.07,1.50,0.95,1.50,0.95,-0.95,-0.76,0.03,0.54,0.55,0.54
468.71,1.46,0.87,1.46,0.89,-0.89,-0.69,0.08,0.57,0.57,0.58
473.40,1.42,0.82,1.42,0.82,-0.82,-0.63,0.12,0.59,0.60,0.60
478.13,1.38,0.75,1.38,0.75,-0.75,-0.56,0.17,0.62,0.63,0.63
482.91,1.33,0.67,1.34,0.68,-0.68,-0.49,0.21,0.65,0.66,0.66
487.74,1.29,0.60,1.29,0.61,-0.61,-0.42,0.25,0.68,0.69,0.69
492.62,1.25,0.53,1.25,0.54,-0.54,-0.35,0.29,0.71,0.71,0.72
497.55,1.21,0.47,1.20,0.46,-0.46,-0.28,0.33,0.74,0.74,0.74
502.52,1.15,0.37,1.16,0.39,-0.39,-0.20,0.37,0.76,0.77,0.78
507.55,1.11,0.31,1.11,0.32,-0.32,-0.12,0.41,0.79,0.80,0.80
512.62,1.06,0.23,1.06,0.24,-0.24,-0.05,0.45,0.82,0.83,0.83
517.75,1.01,0.15,1.01,0.16,-0.16,0.03,0.49,0.85,0.85,0.85
522.93,0.95,0.06,0.95,0.07,-0.07,0.12,0.52,0.87,0.88,0.88
528.16,0.90,-0.01,0.89,-0.02,0.02,0.20,0.56,0.91,0.91,0.90
533.44,0.84,-0.10,0.82,-0.11,0.11,0.29,0.59,0.95,0.94,0.93
