frequency,raw,error,smoothed,error_smoothed,equalization,parametric_eq,fixed_band_eq,equalized_raw,equalized_smoothed,target
20.00,-5.43,-9.06,-5.45,-9.09,9.09,8.56,3.12,3.66,3.65,3.63
20.20,-5.41,-9.07,-5.39,-9.06,9.06,8.58,3.20,3.65,3.67,3.66
20.40,-5.35,-9.04,-5.34,-9.02,9.02,8.60,3.30,3.67,3.69,3.68
20.61,-5.28,-8.99,-5.28,-8.99,8.99,8.61,3.39,3.70,3.71,3.70
20.81,-5.23,-8.96,-5.22,-8.95,8.95,8.62,3.49,3.72,3.72,3.73
21.02,-5.17,-8.93,-5.17,-8.91,8.91,8.63,3.59,3.74,3.74,3.76
21.23,-5.08,-8.85,-5.11,-8.87,8.87,8.63,3.69,3.79,3.75,3.77
21.44,-5.04,-8.82,-5.06,-8.82,8.82,8.63,3.80,3.78,3.77,3.78
21.66,-5.00,-8.79,-5.00,-8.78,8.78,8.62,3.91,3.78,3.78,3.79
21.87,-4.95,-8.74,-4.95,-8.73,8.73,8.61,4.02,3.78,3.79,3.79
22.09,-4.89,-8.69,-4.89,-8.68,8.68,8.60,4.14,3.79,3.79,3.80
22.31,-4.83,-8.63,-4.84,-8.64,8.64,8.58,4.25,3.81,3.80,3.80
22.54,-4.78,-8.58,-4.78,-8.58,8.58,8.56,4.38,3.80,3.80,3.80
22.76,-4.74,-8.54,-4.73,-8.53,8.53,8.53,4.50,3.78,3.80,3.80
22.99,-4.69,-8.48,-4.67,-8.47,8.47,8.50,4.63,3.78,3.80,3.79
23.22,-4.62,-8.41,-4.62,-8.41,8.41,8.47,4.76,3.79,3.80,3.79
23.45,-4.56,-8.35,-4.56,-8.36,8.36,8.44,4.90,3.80,3.79,3.79
23.69,-4.51,-8.30,-4.51,-8.30,8.30,8.40,5.03,3.79,3.79,3.79
23.92,-4.45,-8.23,-4.46,-8.25,8.25,8.36,5.17,3.80,3.79,3.78
24.16,-4.39,-8.18,-4.40,-8.19,8.19,8.31,5.32,3.80,3.79,3.79
24.40,-4.34,-8.13,-4.35,-8.13,8.13,8.27,5.46,3.79,3.78,3.79
24.65,-4.29,-8.07,-4.30,-8.08,8.08,8.22,5.61,3.79,3.78,3.78
24.89,-4.24,-8.02,-4.24,-8.03,8.03,8.16,5.76,3.79,3.78,3.78
25.14,-4.19,-7.97,-4.19,-7.97,7.97,8.11,5.92,3.78,3.78,3.78
25.39,-4.13,-7.91,-4.14,-7.91,7.91,8.05,6.07,3.78,3.78,3.78
25.65,-4.09,-7.87,-4.08,-7.86,7.86,7.99,6.23,3.77,3.78,3.78
25.91,-4.05,-7.82,-4.03,-7.80,7.80,7.93,6.38,3.75,3.77,3.77
26.16,-3.96,-7.73,-3.97,-7.75,7.75,7.87,6.54,3.78,3.77,3.77
26.43,-3.92,-7.69,-3.92,-7.68,7.68,7.80,6.69,3.76,3.77,3.76
26.69,-3.87,-7.63,-3.86,-7.62,7.62,7.74,6.85,3.75,3.76,3.76
26.96,-3.80,-7.56,-3.80,-7.56,7.56,7.67,7.00,3.76,3.76,3.76
27.23,-3.74,-7.50,-3.74,-7.49,7.49,7.60,7.15,3.75,3.76,3.76
27.50,-3.68,-7.44,-3.67,-7.42,7.42,7.53,7.30,3.74,3.75,3.76
27.77,-3.60,-7.35,-3.61,-7.36,7.36,7.46,7.44,3.76,3.75,3.75
28.05,-3.54,-7.29,-3.54,-7.29,7.29,7.38,7.58,3.75,3.74,3.75
28.33,-3.48,-7.21,-3.47,-7.21,7.21,7.31,7.71,3.73,3.74,3.73
28.62,-3.41,-7.14,-3.41,-7.14,7.14,7.24,7.84,3.73,3.74,3.73
28.90,-3.33,-7.06,-3.34,-7.07,7.07,7.16,7.95,3.74,3.73,3.73
29.19,-3.26,-6.98,-3.27,-7.00,7.00,7.09,8.06,3.74,3.73,3.72
29.48,-3.20,-6.93,-3.21,-6.93,6.93,7.01,8.15,3.73,3.72,3.73
29.78,-3.14,-6.86,-3.14,-6.85,6.85,6.94,8.24,3.71,3.71,3.72
30.08,-3.06,-6.78,-3.07,-6.78,6.78,6.86,8.30,3.72,3.71,3.71
30.38,-3.01,-6.71,-3.01,-6.71,6.71,6.78,8.36,3.70,3.70,3.70
30.68,-2.94,-6.64,-2.94,-6.64,6.64,6.71,8.40,3.70,3.70,3.70
30.99,-2.88,-6.57,-2.88,-6.57,6.57,6.63,8.43,3.69,3.69,3.69
31.30,-2.81,-6.50,-2.81,-6.50,6.50,6.56,8.44,3.69,3.68,3.68
31.61,-2.75,-6.43,-2.75,-6.43,6.43,6.48,8.44,3.68,3.68,3.68
31.93,-2.69,-6.36,-2.69,-6.36,6.36,6.40,8.42,3.67,3.67,3.67
32.24,-2.62,-6.28,-2.63,-6.29,6.29,6.33,8.39,3.67,3.66,3.66
32.57,-2.56,-6.22,-2.56,-6.22,6.22,6.25,8.34,3.65,3.66,3.65
32.89,-2.49,-6.14,-2.49,-6.14,6.14,6.18,8.28,3.65,3.65,3.65
33.22,-2.44,-6.08,-2.43,-6.07,6.07,6.10,8.21,3.63,3.64,3.64
33.55,-2.37,-6.00,-2.37,-6.00,6.00,6.03,8.13,3.63,3.63,3.63
33.89,-2.31,-5.93,-2.30,-5.92,5.92,5.96,8.03,3.61,3.62,3.62
34.23,-2.24,-5.86,-2.24,-5.85,5.85,5.88,7.93,3.61,3.61,3.62
34.57,-2.18,-5.79,-2.17,-5.78,5.78,5.81,7.82,3.60,3.60,3.60
34.92,-2.12,-5.71,-2.11,-5.71,5.71,5.74,7.70,3.59,3.59,3.59
35.27,-2.04,-5.63,-2.05,-5.64,5.64,5.67,7.57,3.60,3.58,3.59
35.62,-1.97,-5.54,-1.99,-5.57,5.57,5.60,7.44,3.60,3.57,3.57
35.97,-1.92,-5.48,-1.94,-5.50,5.50,5.53,7.31,3.58,3.56,3.56
36.33,-1.88,-5.44,-1.88,-5.44,5.44,5.46,7.18,3.55,3.55,3.55
36.70,-1.84,-5.38,-1.83,-5.37,5.37,5.39,7.04,3.53,3.54,3.54
37.06,-1.78,-5.31,-1.78,-5.31,5.31,5.32,6.90,3.53,3.53,3.53
37.43,-1.73,-5.25,-1.73,-5.25,5.25,5.25,6.76,3.52,3.52,3.52
37.81,-1.68,-5.19,-1.69,-5.19,5.19,5.19,6.62,3.51,3.50,3.51
38.19,-1.65,-5.14,-1.64,-5.14,5.14,5.12,6.48,3.48,3.49,3.49
38.57,-1.60,-5.09,-1.60,-5.08,5.08,5.06,6.34,3.48,3.48,3.49
38.95,-1.55,-5.02,-1.56,-5.03,5.03,4.99,6.21,3.48,3.47,3.47
39.34,-1.52,-4.97,-1.52,-4.98,4.98,4.93,6.07,3.46,3.46,3.45
39.74,-1.49,-4.93,-1.48,-4.93,4.93,4.87,5.94,3.44,3.45,3.44
40.14,-1.44,-4.87,-1.44,-4.88,4.88,4.81,5.81,3.43,3.43,3.43
40.54,-1.41,-4.83,-1.40,-4.82,4.82,4.75,5.69,3.41,3.42,3.42
40.94,-1.36,-4.77,-1.36,-4.77,4.77,4.69,5.56,3.41,3.41,3.41
41.35,-1.33,-4.72,-1.32,-4.72,4.72,4.63,5.44,3.39,3.40,3.39
41.76,-1.27,-4.66,-1.28,-4.67,4.67,4.57,5.33,3.39,3.38,3.38
42.18,-1.24,-4.62,-1.24,-4.61,4.61,4.51,5.22,3.37,3.37,3.38
42.60,-1.21,-4.57,-1.20,-4.56,4.56,4.45,5.11,3.34,3.35,3.36
43.03,-1.16,-4.51,-1.16,-4.50,4.50,4.40,5.00,3.34,3.34,3.35
43.46,-1.13,-4.46,-1.12,-4.45,4.45,4.34,4.90,3.32,3.32,3.33
43.90,-1.08,-4.39,-1.08,-4.39,4.39,4.29,4.80,3.31,3.31,3.30
44.33,-1.05,-4.34,-1.05,-4.34,4.34,4.23,4.71,3.29,3.29,3.28
44.78,-1.00,-4.27,-1.01,-4.28,4.28,4.18,4.61,3.28,3.27,3.27
45.23,-0.97,-4.22,-0.97,-4.23,4.23,4.12,4.53,3.26,3.25,3.25
45.68,-0.94,-4.17,-0.94,-4.17,4.17,4.07,4.44,3.23,3.23,3.23
46.13,-0.90,-4.11,-0.91,-4.12,4.12,4.02,4.36,3.22,3.21,3.21
46.60,-0.86,-4.06,-0.87,-4.07,4.07,3.97,4.28,3.20,3.19,3.19
47.06,-0.85,-4.02,-0.84,-4.01,4.01,3.92,4.21,3.16,3.17,3.17
47.53,-0.82,-3.97,-0.81,-3.96,3.96,3.87,4.14,3.14,3.14,3.15
48.01,-0.77,-3.91,-0.78,-3.90,3.90,3.82,4.07,3.13,3.12,3.14
48.49,-0.76,-3.87,-0.75,-3.85,3.85,3.77,4.01,3.09,3.10,3.11
48.97,-0.73,-3.80,-0.73,-3.80,3.80,3.72,3.95,3.07,3.07,3.07
49.46,-0.70,-3.74,-0.70,-3.75,3.75,3.67,3.89,3.04,3.05,3.04
49.96,-0.67,-3.68,-0.67,-3.69,3.69,3.63,3.83,3.02,3.02,3.01
50.46,-0.64,-3.63,-0.64,-3.64,3.64,3.58,3.78,2.99,2.99,2.99
50.96,-0.61,-3.58,-0.61,-3.58,3.58,3.53,3.73,2.97,2.97,2.97
51.47,-0.60,-3.53,-0.58,-3.53,3.53,3.49,3.68,2.92,2.94,2.93
51.99,-0.56,-3.47,-0.56,-3.47,3.47,3.44,3.63,2.91,2.91,2.91
52.51,-0.52,-3.41,-0.53,-3.41,3.41,3.40,3.58,2.89,2.88,2.89
53.03,-0.51,-3.37,-0.50,-3.36,3.36,3.36,3.54,2.85,2.86,2.86
53.56,-0.47,-3.31,-0.47,-3.30,3.30,3.31,3.50,2.83,2.83,2.83
54.10,-0.45,-3.26,-0.45,-3.25,3.25,3.27,3.46,2.80,2.80,2.81
54.64,-0.43,-3.21,-0.43,-3.20,3.20,3.23,3.42,2.77,2.78,2.78
55.18,-0.39,-3.14,-0.41,-3.16,3.16,3.19,3.38,2.77,2.75,2.75
55.74,-0.38,-3.10,-0.39,-3.12,3.12,3.15,3.34,2.73,2.73,2.72
56.29,-0.38,-3.08,-0.38,-3.07,3.07,3.12,3.31,2.69,2.70,2.70
56.86,-0.34,-3.01,-0.36,-3.03,3.03,3.08,3.27,2.69,2.67,2.67
57.42,-0.34,-2.97,-0.35,-3.00,3.00,3.04,3.23,2.65,2.64,2.63
58.00,-0.34,-2.95,-0.35,-2.96,2.96,3.01,3.20,2.62,2.61,2.61
58.58,-0.34,-2.93,-0.34,-2.93,2.93,2.97,3.16,2.59,2.58,2.59
59.16,-0.34,-2.90,-0.34,-2.89,2.89,2.94,3.13,2.55,2.55,2.56
59.76,-0.34,-2.88,-0.34,-2.86,2.86,2.91,3.09,2.52,2.52,2.54
60.35,-0.34,-2.84,-0.33,-2.83,2.83,2.88,3.05,2.49,2.49,2.50
60.96,-0.34,-2.82,-0.33,-2.80,2.80,2.86,3.01,2.45,2.46,2.47
61.57,-0.34,-2.77,-0.33,-2.76,2.76,2.83,2.97,2.42,2.43,2.43
62.18,-0.34,-2.73,-0.33,-2.73,2.73,2.81,2.93,2.39,2.40,2.39
62.80,-0.34,-2.70,-0.33,-2.69,2.69,2.79,2.89,2.35,2.36,2.36
63.43,-0.34,-2.66,-0.33,-2.65,2.65,2.77,2.85,2.31,2.33,2.32
64.07,-0.34,-2.63,-0.32,-2.62,2.62,2.75,2.81,2.28,2.29,2.29
64.71,-0.32,-2.58,-0.32,-2.58,2.58,2.74,2.76,2.26,2.26,2.26
65.35,-0.32,-2.54,-0.32,-2.55,2.55,2.72,2.72,2.23,2.22,2.22
66.01,-0.32,-2.51,-0.33,-2.52,2.52,2.71,2.67,2.20,2.19,2.19
66.67,-0.34,-2.50,-0.33,-2.49,2.49,2.71,2.63,2.15,2.15,2.16
67.33,-0.34,-2.46,-0.35,-2.46,2.46,2.70,2.58,2.12,2.12,2.12
68.01,-0.34,-2.42,-0.36,-2.45,2.45,2.70,2.53,2.11,2.08,2.08
68.69,-0.38,-2.43,-0.39,-2.44,2.44,2.70,2.48,2.05,2.05,2.05
69.37,-0.41,-2.42,-0.42,-2.43,2.43,2.70,2.43,2.02,2.01,2.01
70.07,-0.45,-2.42,-0.46,-2.43,2.43,2.71,2.38,1.98,1.97,1.97
70.77,-0.49,-2.43,-0.51,-2.44,2.44,2.72,2.33,1.95,1.93,1.94
71.48,-0.55,-2.45,-0.57,-2.46,2.46,2.72,2.28,1.91,1.89,1.90
72.19,-0.62,-2.48,-0.63,-2.49,2.49,2.73,2.23,1.87,1.85,1.86
72.91,-0.69,-2.50,-0.71,-2.52,2.52,2.74,2.18,1.83,1.81,1.81
73.64,-0.75,-2.52,-0.79,-2.56,2.56,2.74,2.13,1.81,1.77,1.77
74.38,-0.86,-2.59,-0.87,-2.61,2.61,2.74,2.08,1.74,1.73,1.73
75.12,-0.94,-2.63,-0.96,-2.66,2.66,2.74,2.03,1.71,1.69,1.69
75.87,-1.03,-2.68,-1.05,-2.70,2.70,2.73,1.98,1.67,1.65,1.65
76.63,-1.12,-2.73,-1.14,-2.75,2.75,2.72,1.93,1.63,1.61,1.61
77.40,-1.23,-2.80,-1.22,-2.79,2.79,2.70,1.88,1.56,1.57,1.57
78.17,-1.29,-2.81,-1.29,-2.82,2.82,2.67,1.84,1.53,1.53,1.52
78.95,-1.39,-2.88,-1.35,-2.84,2.84,2.63,1.79,1.45,1.49,1.49
79.74,-1.45,-2.90,-1.40,-2.85,2.85,2.59,1.74,1.40,1.45,1.45
80.54,-1.49,-2.90,-1.44,-2.84,2.84,2.54,1.70,1.35,1.40,1.41
81.35,-1.51,-2.87,-1.46,-2.82,2.82,2.48,1.65,1.31,1.36,1.36
82.16,-1.51,-2.83,-1.46,-2.78,2.78,2.42,1.61,1.27,1.32,1.32
82.98,-1.51,-2.79,-1.46,-2.73,2.73,2.35,1.57,1.22,1.28,1.28
83.81,-1.46,-2.69,-1.44,-2.67,2.67,2.28,1.52,1.21,1.23,1.23
84.65,-1.41,-2.59,-1.41,-2.59,2.59,2.21,1.48,1.18,1.18,1.18
85.50,-1.36,-2.50,-1.37,-2.50,2.50,2.13,1.44,1.14,1.14,1.14
86.35,-1.30,-2.39,-1.32,-2.41,2.41,2.06,1.40,1.11,1.09,1.09
87.22,-1.23,-2.27,-1.27,-2.31,2.31,1.98,1.36,1.08,1.04,1.04
88.09,-1.19,-2.18,-1.22,-2.21,2.21,1.91,1.33,1.02,0.99,0.99
88.97,-1.14,-2.09,-1.17,-2.11,2.11,1.84,1.29,0.97,0.94,0.95
89.86,-1.10,-2.00,-1.12,-2.02,2.02,1.77,1.25,0.92,0.89,0.90
90.76,-1.06,-1.90,-1.08,-1.92,1.92,1.70,1.22,0.86,0.84,0.84
91.66,-1.03,-1.82,-1.05,-1.83,1.83,1.64,1.19,0.80,0.79,0.79
92.58,-0.99,-1.72,-1.02,-1.75,1.75,1.58,1.15,0.76,0.74,0.73
93.51,-0.99,-1.68,-0.99,-1.68,1.68,1.52,1.12,0.68,0.68,0.68
94.44,-0.99,-1.62,-0.98,-1.60,1.60,1.46,1.09,0.61,0.63,0.63
95.39,-0.95,-1.53,-0.96,-1.53,1.53,1.40,1.06,0.58,0.57,0.57
96.34,-0.95,-1.46,-0.95,-1.47,1.47,1.35,1.03,0.51,0.51,0.51
97.30,-0.95,-1.40,-0.95,-1.40,1.40,1.30,1.00,0.45,0.46,0.45
98.28,-0.95,-1.35,-0.94,-1.34,1.34,1.25,0.97,0.39,0.40,0.40
99.26,-0.95,-1.29,-0.94,-1.28,1.28,1.20,0.94,0.33,0.34,0.34
100.25,-0.95,-1.23,-0.94,-1.23,1.23,1.15,0.92,0.28,0.28,0.28
101.25,-0.95,-1.18,-0.95,-1.17,1.17,1.11,0.89,0.22,0.23,0.23
102.27,-0.95,-1.12,-0.95,-1.12,1.12,1.07,0.86,0.17,0.17,0.17
103.29,-0.95,-1.05,-0.95,-1.06,1.06,1.02,0.84,0.11,0.11,0.10
104.32,-0.95,-1.00,-0.96,-1.01,1.01,0.98,0.81,0.06,0.05,0.05
105.37,-0.95,-0.95,-0.96,-0.96,0.96,0.94,0.79,0.01,-0.01,-0.01
106.42,-0.97,-0.91,-0.97,-0.90,0.90,0.91,0.76,-0.07,-0.07,-0.06
107.48,-0.99,-0.87,-0.97,-0.85,0.85,0.87,0.74,-0.14,-0.13,-0.12
108.56,-0.99,-0.80,-0.98,-0.79,0.79,0.83,0.72,-0.20,-0.19,-0.19
109.64,-0.99,-0.74,-0.98,-0.74,0.74,0.80,0.70,-0.25,-0.25,-0.25
110.74,-0.99,-0.69,-0.99,-0.68,0.68,0.76,0.67,-0.31,-0.31,-0.30
111.85,-0.99,-0.63,-1.00,-0.63,0.63,0.73,0.65,-0.36,-0.37,-0.36
112.97,-1.01,-0.57,-1.01,-0.57,0.57,0.69,0.63,-0.44,-0.43,-0.44
114.10,-1.03,-0.54,-1.01,-0.52,0.52,0.66,0.61,-0.51,-0.50,-0.49
115.24,-1.03,-0.47,-1.02,-0.47,0.47,0.63,0.59,-0.57,-0.56,-0.56
116.39,-1.03,-0.40,-1.04,-0.41,0.41,0.60,0.57,-0.62,-0.62,-0.63
117.55,-1.03,-0.34,-1.05,-0.37,0.37,0.56,0.55,-0.67,-0.69,-0.69
118.73,-1.07,-0.31,-1.07,-0.32,0.32,0.53,0.52,-0.75,-0.75,-0.76
119.92,-1.08,-0.27,-1.08,-0.27,0.27,0.50,0.50,-0.81,-0.81,-0.81
121.12,-1.10,-0.23,-1.11,-0.23,0.23,0.47,0.48,-0.87,-0.87,-0.87
122.33,-1.12,-0.18,-1.13,-0.20,0.20,0.44,0.46,-0.92,-0.94,-0.94
123.55,-1.16,-0.17,-1.16,-0.16,0.16,0.41,0.44,-1.00,-1.00,-0.99
124.79,-1.18,-0.13,-1.19,-0.13,0.13,0.38,0.42,-1.05,-1.06,-1.05
126.03,-1.23,-0.12,-1.23,-0.11,0.11,0.35,0.40,-1.12,-1.12,-1.11
127.29,-1.26,-0.09,-1.26,-0.08,0.08,0.32,0.38,-1.18,-1.18,-1.17
128.57,-1.31,-0.07,-1.30,-0.06,0.06,0.29,0.36,-1.25,-1.24,-1.24
129.85,-1.34,-0.04,-1.35,-0.05,0.05,0.26,0.34,-1.29,-1.30,-1.30
131.15,-1.39,-0.03,-1.39,-0.03,0.03,0.23,0.32,-1.36,-1.36,-1.36
132.46,-1.44,-0.02,-1.44,-0.02,0.02,0.20,0.30,-1.42,-1.42,-1.42
133.79,-1.49,-0.02,-1.48,-0.01,0.01,0.16,0.28,-1.48,-1.47,-1.47
135.12,-1.53,0.00,-1.53,-0.01,0.01,0.13,0.25,-1.52,-1.53,-1.53
136.48,-1.58,-0.00,-1.58,-0.00,0.00,0.10,0.23,-1.58,-1.58,-1.58
137.84,-1.63,0.00,-1.64,-0.00,0.00,0.07,0.21,-1.63,-1.63,-1.63
139.22,-1.66,0.03,-1.69,-0.01,0.01,0.04,0.19,-1.65,-1.68,-1.69
140.61,-1.72,0.03,-1.74,-0.01,0.01,0.00,0.17,-1.71,-1.73,-1.75
142.02,-1.78,-0.00,-1.79,-0.01,0.01,-0.03,0.15,-1.77,-1.78,-1.78
143.44,-1.84,-0.01,-1.84,-0.01,0.01,-0.06,0.12,-1.83,-1.83,-1.83
144.87,-1.88,-0.00,-1.88,-0.00,0.00,-0.10,0.10,-1.88,-1.88,-1.88
146.32,-1.92,0.00,-1.92,0.01,-0.01,-0.13,0.08,-1.93,-1.92,-1.93
147.78,-1.97,-0.01,-1.95,0.02,-0.02,-0.17,0.06,-2.00,-1.97,-1.96
149.26,-1.99,0.02,-1.97,0.05,-0.05,-0.20,0.03,-2.04,-2.02,-2.01
150.75,-2.03,0.03,-1.99,0.08,-0.08,-0.24,0.01,-2.11,-2.06,-2.06
152.26,-2.03,0.08,-1.99,0.12,-0.12,-0.28,-0.01,-2.15,-2.11,-2.11
153.78,-2.01,0.14,-1.99,0.16,-0.16,-0.31,-0.04,-2.18,-2.16,-2.15
155.32,-1.99,0.21,-1.98,0.22,-0.22,-0.35,-0.06,-2.21,-2.20,-2.21
156.88,-1.99,0.26,-1.97,0.28,-0.28,-0.39,-0.09,-2.28,-2.25,-2.25
158.44,-1.95,0.35,-1.95,0.35,-0.35,-0.43,-0.11,-2.30,-2.30,-2.30
160.03,-1.92,0.43,-1.92,0.42,-0.42,-0.47,-0.13,-2.34,-2.34,-2.35
161.63,-1.89,0.50,-1.90,0.49,-0.49,-0.51,-0.16,-2.38,-2.39,-2.40
163.24,-1.86,0.58,-1.87,0.56,-0.56,-0.55,-0.19,-2.42,-2.44,-2.44
164.88,-1.83,0.65,-1.85,0.63,-0.63,-0.60,-0.21,-2.46,-2.48,-2.48
166.53,-1.81,0.71,-1.83,0.69,-0.69,-0.64,-0.24,-2.51,-2.53,-2.53
168.19,-1.77,0.80,-1.82,0.75,-0.75,-0.68,-0.26,-2.52,-2.57,-2.57
169.87,-1.77,0.84,-1.81,0.81,-0.81,-0.72,-0.29,-2.58,-2.62,-2.61
171.57,-1.77,0.89,-1.81,0.86,-0.86,-0.76,-0.32,-2.63,-2.66,-2.66
173.29,-1.81,0.89,-1.81,0.90,-0.90,-0.81,-0.34,-2.71,-2.70,-2.70
175.02,-1.81,0.93,-1.81,0.94,-0.94,-0.85,-0.37,-2.75,-2.75,-2.74
176.77,-1.81,0.98,-1.82,0.97,-0.97,-0.89,-0.40,-2.78,-2.79,-2.79
178.54,-1.86,0.98,-1.83,1.00,-1.00,-0.93,-0.43,-2.87,-2.83,-2.84
180.32,-1.86,1.02,-1.84,1.04,-1.04,-0.97,-0.46,-2.90,-2.88,-2.88
182.13,-1.86,1.06,-1.86,1.06,-1.06,-1.01,-0.49,-2.92,-2.92,-2.92
183.95,-1.90,1.06,-1.87,1.09,-1.09,-1.05,-0.52,-2.99,-2.96,-2.96
185.79,-1.90,1.10,-1.89,1.11,-1.11,-1.09,-0.55,-3.01,-3.00,-3.00
187.65,-1.90,1.14,-1.91,1.13,-1.13,-1.12,-0.58,-3.03,-3.04,-3.04
189.52,-1.91,1.17,-1.92,1.16,-1.16,-1.15,-0.61,-3.07,-3.08,-3.08
191.42,-1.94,1.17,-1.93,1.18,-1.18,-1.18,-0.64,-3.12,-3.11,-3.11
193.33,-1.94,1.21,-1.95,1.20,-1.20,-1.21,-0.67,-3.14,-3.15,-3.15
195.27,-1.94,1.24,-1.97,1.22,-1.22,-1.24,-0.70,-3.16,-3.18,-3.18
197.22,-1.99,1.22,-1.98,1.23,-1.23,-1.26,-0.74,-3.22,-3.21,-3.21
199.19,-1.99,1.26,-2.00,1.24,-1.24,-1.28,-0.77,-3.23,-3.24,-3.25
201.18,-2.03,1.24,-2.02,1.25,-1.25,-1.29,-0.80,-3.28,-3.27,-3.27
203.19,-2.03,1.26,-2.04,1.25,-1.25,-1.30,-0.83,-3.29,-3.29,-3.29
205.23,-2.07,1.25,-2.06,1.26,-1.26,-1.31,-0.86,-3.33,-3.32,-3.32
207.28,-2.07,1.26,-2.08,1.26,-1.26,-1.31,-0.89,-3.33,-3.34,-3.33
209.35,-2.11,1.25,-2.11,1.25,-1.25,-1.32,-0.92,-3.36,-3.36,-3.36
211.44,-2.12,1.26,-2.13,1.24,-1.24,-1.31,-0.95,-3.36,-3.37,-3.38
213.56,-2.16,1.23,-2.16,1.23,-1.23,-1.31,-0.98,-3.39,-3.39,-3.39
215.69,-2.17,1.23,-2.18,1.22,-1.22,-1.30,-1.01,-3.39,-3.40,-3.40
217.85,-2.20,1.21,-2.21,1.21,-1.21,-1.28,-1.04,-3.41,-3.41,-3.41
220.03,-2.23,1.20,-2.23,1.19,-1.19,-1.27,-1.07,-3.42,-3.42,-3.43
222.23,-2.25,1.19,-2.25,1.18,-1.18,-1.25,-1.09,-3.43,-3.43,-3.44
224.45,-2.29,1.14,-2.27,1.16,-1.16,-1.23,-1.12,-3.45,-3.44,-3.44
226.70,-2.29,1.15,-2.30,1.14,-1.14,-1.21,-1.14,-3.44,-3.44,-3.44
228.96,-2.33,1.11,-2.31,1.13,-1.13,-1.18,-1.16,-3.46,-3.44,-3.44
231.25,-2.33,1.10,-2.33,1.11,-1.11,-1.16,-1.18,-3.44,-3.44,-3.43
233.57,-2.33,1.11,-2.35,1.09,-1.09,-1.13,-1.20,-3.43,-3.44,-3.44
235.90,-2.38,1.06,-2.36,1.08,-1.08,-1.10,-1.21,-3.46,-3.44,-3.44
238.26,-2.38,1.06,-2.37,1.06,-1.06,-1.07,-1.23,-3.44,-3.43,-3.44
240.64,-2.38,1.05,-2.38,1.05,-1.05,-1.04,-1.24,-3.43,-3.43,-3.43
243.05,-2.38,1.04,-2.39,1.03,-1.03,-1.01,-1.25,-3.41,-3.42,-3.42
245.48,-2.39,1.02,-2.39,1.02,-1.02,-0.98,-1.25,-3.41,-3.41,-3.41
247.93,-2.40,1.00,-2.40,1.01,-1.01,-0.95,-1.25,-3.41,-3.40,-3.40
250.41,-2.40,1.00,-2.40,0.99,-0.99,-0.92,-1.26,-3.39,-3.39,-3.40
252.92,-2.40,0.98,-2.40,0.98,-0.98,-0.89,-1.25,-3.38,-3.38,-3.38
255.45,-2.40,0.96,-2.40,0.96,-0.96,-0.86,-1.25,-3.36,-3.36,-3.36
258.00,-2.40,0.95,-2.40,0.95,-0.95,-0.83,-1.24,-3.35,-3.35,-3.35
260.58,-2.40,0.93,-2.40,0.93,-0.93,-0.80,-1.23,-3.33,-3.33,-3.34
263.19,-2.40,0.91,-2.40,0.91,-0.91,-0.78,-1.22,-3.31,-3.31,-3.31
265.82,-2.40,0.90,-2.40,0.90,-0.90,-0.75,-1.21,-3.30,-3.30,-3.30
268.48,-2.40,0.88,-2.40,0.88,-0.88,-0.72,-1.19,-3.28,-3.28,-3.28
271.16,-2.40,0.85,-2.40,0.86,-0.86,-0.70,-1.17,-3.26,-3.26,-3.26
273.87,-2.40,0.84,-2.40,0.84,-0.84,-0.67,-1.15,-3.24,-3.24,-3.24
276.61,-2.40,0.82,-2.40,0.82,-0.82,-0.65,-1.13,-3.23,-3.22,-3.22
279.38,-2.40,0.80,-2.40,0.81,-0.81,-0.62,-1.11,-3.21,-3.21,-3.20
282.17,-2.40,0.79,-2.40,0.79,-0.79,-0.60,-1.08,-3.19,-3.19,-3.19
284.99,-2.40,0.77,-2.40,0.77,-0.77,-0.58,-1.06,-3.17,-3.17,-3.17
287.84,-2.40,0.75,-2.40,0.75,-0.75,-0.56,-1.03,-3.15,-3.15,-3.15
290.72,-2.40,0.73,-2.40,0.72,-0.72,-0.54,-1.00,-3.13,-3.13,-3.13
293.63,-2.41,0.70,-2.41,0.70,-0.70,-0.52,-0.97,-3.11,-3.11,-3.11
296.57,-2.42,0.67,-2.41,0.67,-0.67,-0.50,-0.94,-3.09,-3.09,-3.09
299.53,-2.42,0.65,-2.42,0.65,-0.65,-0.49,-0.91,-3.07,-3.07,-3.07
302.53,-2.42,0.64,-2.43,0.62,-0.62,-0.47,-0.88,-3.04,-3.05,-3.06
305.55,-2.42,0.60,-2.44,0.59,-0.59,-0.45,-0.85,-3.01,-3.02,-3.02
308.61,-2.43,0.58,-2.45,0.55,-0.55,-0.44,-0.81,-2.98,-3.00,-3.01
311.69,-2.46,0.52,-2.46,0.52,-0.52,-0.42,-0.78,-2.98,-2.98,-2.98
314.81,-2.46,0.48,-2.47,0.49,-0.49,-0.41,-0.75,-2.95,-2.96,-2.94
317.96,-2.48,0.45,-2.48,0.46,-0.46,-0.40,-0.71,-2.94,-2.94,-2.93
321.14,-2.51,0.40,-2.49,0.42,-0.42,-0.38,-0.68,-2.93,-2.91,-2.91
324.35,-2.51,0.38,-2.50,0.39,-0.39,-0.37,-0.65,-2.90,-2.89,-2.90
327.59,-2.51,0.36,-2.51,0.36,-0.36,-0.36,-0.62,-2.87,-2.87,-2.87
330.87,-2.53,0.32,-2.52,0.34,-0.34,-0.35,-0.58,-2.87,-2.85,-2.85
334.18,-2.53,0.30,-2.52,0.31,-0.31,-0.34,-0.55,-2.84,-2.83,-2.84
337.52,-2.53,0.29,-2.53,0.28,-0.28,-0.33,-0.52,-2.81,-2.81,-2.82
340.90,-2.53,0.26,-2.53,0.26,-0.26,-0.32,-0.49,-2.79,-2.79,-2.79
344.30,-2.53,0.24,-2.53,0.24,-0.24,-0.31,-0.45,-2.77,-2.77,-2.77
347.75,-2.53,0.23,-2.54,0.22,-0.22,-0.30,-0.42,-2.75,-2.76,-2.76
351.23,-2.53,0.21,-2.54,0.20,-0.20,-0.29,-0.39,-2.73,-2.74,-2.74
354.74,-2.53,0.19,-2.54,0.19,-0.19,-0.28,-0.36,-2.72,-2.72,-2.72
358.28,-2.53,0.17,-2.53,0.17,-0.17,-0.28,-0.33,-2.70,-2.70,-2.70
361.87,-2.53,0.16,-2.53,0.16,-0.16,-0.27,-0.30,-2.69,-2.69,-2.69
365.49,-2.53,0.14,-2.53,0.14,-0.14,-0.26,-0.27,-2.67,-2.67,-2.67
369.14,-2.53,0.13,-2.53,0.13,-0.13,-0.26,-0.24,-2.66,-2.66,-2.66
372.83,-2.53,0.11,-2.53,0.12,-0.12,-0.25,-0.21,-2.65,-2.64,-2.64
376.56,-2.53,0.10,-2.53,0.10,-0.10,-0.24,-0.18,-2.63,-2.63,-2.63
380.33,-2.53,0.08,-2.52,0.09,-0.09,-0.24,-0.15,-2.62,-2.62,-2.61
384.13,-2.53,0.07,-2.52,0.08,-0.08,-0.23,-0.12,-2.61,-2.60,-2.60
387.97,-2.51,0.08,-2.52,0.07,-0.07,-0.23,-0.10,-2.58,-2.59,-2.59
391.85,-2.51,0.07,-2.52,0.06,-0.06,-0.22,-0.07,-2.57,-2.58,-2.58
395.77,-2.51,0.05,-2.52,0.05,-0.05,-0.22,-0.04,-2.56,-2.57,-2.56
399.73,-2.51,0.04,-2.52,0.04,-0.04,-0.21,-0.02,-2.55,-2.56,-2.56
403.72,-2.51,0.04,-2.52,0.03,-0.03,-0.21,0.01,-2.54,-2.54,-2.55
407.76,-2.51,0.03,-2.51,0.02,-0.02,-0.21,0.04,-2.54,-2.53,-2.54
411.84,-2.51,0.01,-2.50,0.02,-0.02,-0.20,0.06,-2.53,-2.52,-2.52
415.96,-2.51,0.00,-2.50,0.02,-0.02,-0.20,0.09,-2.53,-2.51,-2.51
420.12,-2.51,-0.01,-2.49,0.01,-0.01,-0.20,0.11,-2.52,-2.50,-2.50
424.32,-2.51,-0.02,-2.48,0.01,-0.01,-0.19,0.13,-2.52,-2.49,-2.49
428.56,-2.47,0.01,-2.48,0.01,-0.01,-0.19,0.15,-2.48,-2.48,-2.48
432.85,-2.46,0.01,-2.47,0.01,-0.01,-0.19,0.17,-2.47,-2.47,-2.48
437.18,-2.46,0.01,-2.46,0.00,-0.00,-0.19,0.19,-2.46,-2.46,-2.47
441.55,-2.42,0.03,-2.45,0.00,-0.00,-0.18,0.21,-2.42,-2.45,-2.45
445.96,-2.42,0.02,-2.44,0.00,-0.00,-0.18,0.23,-2.42,-2.44,-2.44
450.42,-2.42,0.01,-2.43,-0.00,0.00,-0.18,0.25,-2.42,-2.42,-2.43
454.93,-2.42,-0.01,-2.42,-0.00,0.00,-0.18,0.26,-2.42,-2.41,-2.41
459.48,-2.41,-0.01,-2.41,-0.01,0.01,-0.18,0.28,-2.40,-2.40,-2.40
464.07,-2.38,0.00,-2.40,-0.01,0.01,-0.18,0.29,-2.37,-2.38,-2.38
468.71,-2.38,-0.02,-2.39,-0.02,0.02,-0.18,0.30,-2.36,-2.37,-2.36
473.40,-2.38,-0.03,-2.38,-0.03,0.03,-0.17,0.31,-2.36,-2.35,-2.35
