frequency,raw,error,smoothed,error_smoothed,equalization,parametric_eq,fixed_band_eq,equalized_raw,equalized_smoothed,target
20.00,7.75,-0.42,7.75,-0.42,0.40,0.22,0.03,8.15,8.15,8.17
20.20,7.75,-0.41,7.75,-0.42,0.41,0.22,0.03,8.16,8.16,8.16
20.40,7.75,-0.41,7.75,-0.41,0.42,0.23,0.04,8.17,8.17,8.16
20.61,7.75,-0.41,7.75,-0.41,0.42,0.23,0.04,8.17,8.17,8.16
20.81,7.75,-0.39,7.75,-0.40,0.42,0.23,0.05,8.17,8.17,8.14
21.02,7.75,-0.39,7.75,-0.40,0.42,0.24,0.05,8.17,8.17,8.14
21.23,7.75,-0.39,7.75,-0.39,0.41,0.24,0.06,8.16,8.16,8.14
21.44,7.75,-0.40,7.75,-0.40,0.40,0.24,0.06,8.15,8.15,8.15
21.66,7.75,-0.39,7.75,-0.40,0.39,0.25,0.07,8.14,8.14,8.14
21.87,7.75,-0.40,7.76,-0.39,0.37,0.25,0.07,8.12,8.13,8.15
22.09,7.77,-0.37,7.78,-0.37,0.35,0.25,0.08,8.12,8.13,8.14
22.31,7.81,-0.34,7.81,-0.34,0.33,0.25,0.08,8.14,8.13,8.15
22.54,7.85,-0.29,7.85,-0.29,0.30,0.26,0.09,8.15,8.15,8.14
22.76,7.89,-0.25,7.89,-0.25,0.27,0.26,0.09,8.16,8.16,8.14
22.99,7.93,-0.21,7.92,-0.22,0.24,0.26,0.10,8.17,8.16,8.14
23.22,7.94,-0.20,7.94,-0.21,0.22,0.26,0.11,8.16,8.16,8.14
23.45,7.95,-0.20,7.95,-0.20,0.20,0.26,0.11,8.15,8.15,8.15
23.69,7.96,-0.19,7.96,-0.19,0.19,0.26,0.12,8.15,8.15,8.15
23.92,7.98,-0.17,7.97,-0.18,0.18,0.27,0.13,8.16,8.16,8.15
24.16,7.98,-0.18,7.98,-0.18,0.18,0.27,0.13,8.16,8.16,8.16
24.40,7.98,-0.19,7.98,-0.19,0.18,0.27,0.14,8.16,8.17,8.17
24.65,7.98,-0.19,7.98,-0.19,0.19,0.27,0.15,8.17,8.17,8.17
24.89,7.98,-0.19,7.98,-0.19,0.19,0.27,0.15,8.17,8.17,8.17
25.14,7.98,-0.18,7.98,-0.19,0.19,0.27,0.16,8.17,8.17,8.16
25.39,7.98,-0.19,7.98,-0.19,0.19,0.27,0.17,8.17,8.17,8.17
25.65,7.98,-0.19,7.98,-0.19,0.19,0.27,0.17,8.17,8.17,8.17
25.91,7.98,-0.18,7.98,-0.19,0.19,0.27,0.18,8.17,8.17,8.16
26.16,7.98,-0.19,7.98,-0.19,0.19,0.27,0.19,8.17,8.17,8.17
26.43,7.98,-0.19,7.98,-0.19,0.19,0.26,0.19,8.17,8.17,8.17
26.69,7.98,-0.19,7.98,-0.19,0.19,0.26,0.20,8.17,8.17,8.17
26.96,7.98,-0.17,7.98,-0.18,0.18,0.26,0.20,8.16,8.16,8.15
27.23,7.98,-0.17,7.98,-0.18,0.18,0.26,0.21,8.16,8.16,8.15
27.50,7.98,-0.17,7.98,-0.18,0.18,0.26,0.21,8.16,8.16,8.15
27.77,7.98,-0.18,7.98,-0.18,0.17,0.25,0.22,8.15,8.15,8.16
28.05,7.98,-0.17,7.98,-0.17,0.17,0.25,0.22,8.15,8.15,8.15
28.33,7.98,-0.16,7.98,-0.17,0.17,0.24,0.22,8.15,8.15,8.14
28.62,7.98,-0.15,7.98,-0.16,0.16,0.24,0.22,8.14,8.14,8.13
28.90,7.98,-0.16,7.98,-0.16,0.16,0.23,0.23,8.14,8.14,8.14
29.19,7.98,-0.15,7.98,-0.15,0.15,0.23,0.23,8.13,8.13,8.13
29.48,7.98,-0.13,7.98,-0.14,0.14,0.22,0.22,8.12,8.12,8.11
29.78,7.98,-0.13,7.98,-0.13,0.13,0.21,0.22,8.11,8.11,8.11
30.08,7.98,-0.13,7.98,-0.13,0.12,0.21,0.22,8.10,8.10,8.11
30.38,7.98,-0.11,7.98,-0.12,0.11,0.20,0.21,8.09,8.09,8.09
30.68,7.98,-0.10,7.98,-0.11,0.10,0.19,0.21,8.08,8.08,8.08
30.99,7.98,-0.09,7.98,-0.09,0.09,0.18,0.20,8.07,8.07,8.07
31.30,7.98,-0.08,7.98,-0.08,0.08,0.17,0.19,8.06,8.06,8.06
31.61,7.98,-0.07,7.98,-0.07,0.07,0.16,0.18,8.05,8.05,8.05
31.93,7.98,-0.05,7.98,-0.06,0.06,0.15,0.17,8.04,8.04,8.03
32.24,7.98,-0.06,7.98,-0.05,0.06,0.14,0.16,8.04,8.04,8.04
32.57,7.98,-0.04,7.98,-0.05,0.05,0.13,0.15,8.03,8.03,8.02
32.89,7.98,-0.04,7.98,-0.04,0.04,0.11,0.13,8.02,8.02,8.02
33.22,7.98,-0.04,7.98,-0.04,0.04,0.10,0.12,8.02,8.02,8.02
33.55,7.98,-0.03,7.98,-0.04,0.04,0.08,0.10,8.02,8.02,8.01
33.89,7.98,-0.04,7.98,-0.04,0.04,0.07,0.08,8.02,8.02,8.02
34.23,7.98,-0.02,7.98,-0.03,0.03,0.05,0.06,8.01,8.01,8.00
34.57,7.98,-0.03,7.98,-0.03,0.03,0.04,0.04,8.01,8.01,8.01
34.92,7.98,-0.02,7.98,-0.03,0.03,0.02,0.02,8.01,8.01,8.00
35.27,7.98,-0.03,7.98,-0.02,0.02,0.00,-0.01,8.00,8.00,8.01
35.62,7.98,-0.00,7.98,-0.01,0.01,-0.02,-0.03,7.99,7.99,7.98
35.97,7.98,-0.00,7.98,-0.00,0.00,-0.03,-0.06,7.98,7.98,7.98
36.33,7.98,0.01,7.98,0.01,-0.01,-0.05,-0.08,7.97,7.97,7.97
36.70,7.98,0.03,7.98,0.02,-0.02,-0.07,-0.11,7.96,7.96,7.95
37.06,7.98,0.05,7.98,0.04,-0.04,-0.10,-0.14,7.94,7.94,7.93
37.43,7.98,0.06,7.98,0.06,-0.06,-0.12,-0.16,7.92,7.92,7.92
37.81,7.98,0.09,7.98,0.08,-0.08,-0.14,-0.19,7.90,7.90,7.89
38.19,7.98,0.11,7.98,0.10,-0.11,-0.16,-0.22,7.87,7.87,7.87
38.57,7.98,0.13,7.98,0.13,-0.14,-0.19,-0.25,7.84,7.84,7.85
38.95,7.98,0.16,7.98,0.16,-0.17,-0.21,-0.29,7.81,7.81,7.82
39.34,7.98,0.21,7.98,0.20,-0.20,-0.24,-0.32,7.78,7.78,7.77
39.74,7.98,0.24,7.98,0.23,-0.23,-0.26,-0.35,7.75,7.75,7.74
40.14,7.98,0.27,7.98,0.27,-0.26,-0.29,-0.38,7.72,7.72,7.71
40.54,7.98,0.29,7.98,0.29,-0.29,-0.31,-0.42,7.69,7.69,7.69
40.94,7.98,0.33,7.98,0.32,-0.32,-0.34,-0.45,7.66,7.66,7.65
41.35,7.98,0.35,7.98,0.35,-0.35,-0.37,-0.48,7.63,7.63,7.63
41.76,7.98,0.38,7.98,0.37,-0.38,-0.40,-0.52,7.60,7.60,7.60
42.18,7.98,0.40,7.98,0.40,-0.40,-0.43,-0.55,7.58,7.58,7.58
42.60,7.98,0.43,7.98,0.43,-0.43,-0.46,-0.59,7.55,7.55,7.55
43.03,7.98,0.46,7.98,0.45,-0.45,-0.49,-0.63,7.53,7.53,7.52
43.46,7.98,0.49,7.98,0.48,-0.48,-0.52,-0.66,7.50,7.50,7.49
43.90,7.98,0.51,7.98,0.51,-0.51,-0.55,-0.70,7.47,7.47,7.47
44.33,7.98,0.55,7.98,0.54,-0.54,-0.58,-0.74,7.44,7.44,7.43
44.78,7.98,0.58,7.98,0.57,-0.57,-0.61,-0.78,7.41,7.41,7.40
45.23,7.98,0.59,7.98,0.60,-0.60,-0.65,-0.82,7.38,7.38,7.39
45.68,7.98,0.64,7.98,0.63,-0.63,-0.68,-0.86,7.35,7.35,7.34
46.13,7.98,0.68,7.98,0.67,-0.67,-0.71,-0.90,7.31,7.31,7.30
46.60,7.98,0.71,7.98,0.70,-0.70,-0.75,-0.94,7.28,7.28,7.27
47.06,7.98,0.74,7.98,0.74,-0.74,-0.78,-0.98,7.24,7.24,7.24
47.53,7.98,0.77,7.98,0.78,-0.78,-0.82,-1.02,7.20,7.20,7.21
48.01,7.98,0.83,7.98,0.82,-0.82,-0.85,-1.06,7.16,7.16,7.15
48.49,7.98,0.87,7.98,0.86,-0.86,-0.89,-1.10,7.12,7.12,7.11
48.97,7.98,0.91,7.98,0.91,-0.91,-0.93,-1.15,7.07,7.07,7.07
49.46,7.98,0.95,7.98,0.95,-0.95,-0.96,-1.19,7.03,7.03,7.03
49.96,7.98,1.01,7.98,1.00,-0.99,-1.00,-1.23,6.99,6.99,6.97
50.46,7.98,1.05,7.98,1.04,-1.04,-1.04,-1.28,6.94,6.94,6.93
50.96,7.98,1.08,7.98,1.08,-1.08,-1.08,-1.32,6.90,6.90,6.90
51.47,7.98,1.12,7.98,1.12,-1.12,-1.12,-1.37,6.86,6.86,6.86
51.99,7.98,1.17,7.98,1.16,-1.16,-1.16,-1.41,6.82,6.82,6.81
52.51,7.98,1.21,7.98,1.20,-1.21,-1.20,-1.46,6.77,6.77,6.77
53.03,7.98,1.24,7.98,1.25,-1.26,-1.24,-1.50,6.72,6.72,6.74
53.56,7.98,1.31,7.98,1.30,-1.30,-1.28,-1.55,6.68,6.68,6.67
54.10,7.98,1.36,7.98,1.35,-1.35,-1.32,-1.59,6.63,6.63,6.62
54.64,7.98,1.40,7.98,1.41,-1.40,-1.37,-1.64,6.58,6.58,6.58
55.18,7.98,1.46,7.98,1.45,-1.45,-1.41,-1.68,6.53,6.53,6.52
55.74,7.98,1.51,7.98,1.50,-1.50,-1.45,-1.73,6.48,6.48,6.47
56.29,7.98,1.55,7.98,1.55,-1.54,-1.50,-1.77,6.44,6.44,6.43
56.86,7.98,1.58,7.98,1.59,-1.58,-1.54,-1.82,6.40,6.40,6.40
57.42,7.98,1.64,7.98,1.63,-1.62,-1.59,-1.86,6.36,6.36,6.34
58.00,7.98,1.68,7.98,1.67,-1.67,-1.63,-1.90,6.31,6.31,6.30
58.58,7.98,1.71,7.98,1.71,-1.71,-1.68,-1.94,6.27,6.27,6.27
59.16,7.98,1.74,7.98,1.74,-1.75,-1.72,-1.98,6.23,6.23,6.24
59.76,7.98,1.79,7.98,1.79,-1.81,-1.77,-2.02,6.17,6.17,6.19
60.35,7.98,1.86,7.98,1.85,-1.86,-1.82,-2.06,6.12,6.12,6.12
60.96,7.98,1.91,7.98,1.91,-1.91,-1.86,-2.10,6.07,6.07,6.07
61.57,7.98,1.98,7.98,1.98,-1.97,-1.91,-2.14,6.01,6.01,6.00
62.18,7.98,2.05,7.98,2.04,-2.03,-1.96,-2.17,5.95,5.95,5.93
62.80,7.98,2.10,7.98,2.10,-2.09,-2.01,-2.21,5.89,5.89,5.88
63.43,7.98,2.16,7.98,2.15,-2.15,-2.06,-2.24,5.83,5.83,5.82
64.07,7.98,2.21,7.98,2.21,-2.21,-2.11,-2.27,5.77,5.77,5.77
64.71,7.98,2.26,7.98,2.26,-2.27,-2.16,-2.31,5.71,5.71,5.72
65.35,7.98,2.33,7.98,2.32,-2.32,-2.21,-2.34,5.66,5.66,5.65
66.01,7.98,2.39,7.98,2.38,-2.38,-2.26,-2.37,5.60,5.60,5.59
66.67,7.98,2.44,7.98,2.44,-2.44,-2.32,-2.40,5.54,5.54,5.54
67.33,7.98,2.51,7.98,2.50,-2.50,-2.37,-2.43,5.48,5.48,5.47
68.01,7.98,2.56,7.98,2.56,-2.56,-2.42,-2.46,5.42,5.42,5.42
68.69,7.98,2.63,7.98,2.62,-2.62,-2.48,-2.49,5.36,5.36,5.35
69.37,7.98,2.68,7.98,2.68,-2.68,-2.53,-2.52,5.30,5.30,5.30
70.07,7.98,2.75,7.98,2.75,-2.75,-2.58,-2.55,5.23,5.23,5.23
70.77,7.98,2.81,7.98,2.81,-2.81,-2.64,-2.58,5.17,5.17,5.17
71.48,7.98,2.89,7.98,2.88,-2.88,-2.70,-2.61,5.10,5.10,5.09
72.19,7.98,2.95,7.98,2.95,-2.95,-2.75,-2.64,5.03,5.03,5.03
72.91,7.98,3.01,7.98,3.01,-3.01,-2.81,-2.67,4.97,4.97,4.97
73.64,7.98,3.09,7.98,3.08,-3.08,-2.86,-2.70,4.90,4.90,4.89
74.38,7.98,3.15,7.98,3.14,-3.14,-2.92,-2.74,4.84,4.84,4.83
75.12,7.98,3.21,7.98,3.20,-3.20,-2.98,-2.77,4.78,4.78,4.77
75.87,7.98,3.24,7.98,3.25,-3.25,-3.04,-2.81,4.73,4.73,4.74
76.63,7.98,3.31,7.98,3.30,-3.30,-3.10,-2.84,4.68,4.68,4.67
77.40,7.98,3.36,7.98,3.35,-3.36,-3.16,-2.88,4.62,4.62,4.62
78.17,7.98,3.41,7.98,3.41,-3.40,-3.22,-2.93,4.58,4.58,4.57
78.95,7.98,3.45,7.98,3.45,-3.45,-3.28,-2.97,4.53,4.53,4.53
79.74,7.98,3.51,7.98,3.50,-3.50,-3.34,-3.01,4.48,4.48,4.47
80.54,7.98,3.56,7.98,3.55,-3.55,-3.40,-3.06,4.43,4.43,4.42
81.35,7.98,3.61,7.98,3.60,-3.60,-3.46,-3.11,4.38,4.38,4.37
82.16,7.98,3.65,7.98,3.65,-3.66,-3.52,-3.16,4.32,4.32,4.33
82.98,7.98,3.71,7.98,3.71,-3.71,-3.58,-3.22,4.27,4.27,4.27
83.81,7.98,3.77,7.98,3.76,-3.77,-3.64,-3.27,4.21,4.21,4.21
84.65,7.98,3.83,7.98,3.83,-3.83,-3.70,-3.33,4.15,4.15,4.15
85.50,7.98,3.90,7.98,3.89,-3.90,-3.77,-3.39,4.08,4.08,4.08
86.35,7.98,3.96,7.98,3.96,-3.97,-3.83,-3.46,4.01,4.01,4.02
87.22,7.98,4.02,7.98,4.02,-4.03,-3.89,-3.52,3.95,3.95,3.96
88.09,7.98,4.09,7.98,4.08,-4.08,-3.95,-3.59,3.90,3.90,3.89
88.97,7.98,4.15,7.99,4.16,-4.12,-4.02,-3.67,3.86,3.87,3.83
89.86,7.98,4.22,7.97,4.21,-4.16,-4.08,-3.74,3.82,3.82,3.76
90.76,7.96,4.27,7.92,4.22,-4.19,-4.14,-3.82,3.77,3.73,3.69
91.66,7.82,4.19,7.84,4.21,-4.22,-4.20,-3.90,3.60,3.63,3.63
92.58,7.75,4.18,7.78,4.21,-4.25,-4.27,-3.98,3.50,3.53,3.57
93.51,7.75,4.25,7.74,4.23,-4.29,-4.33,-4.07,3.46,3.45,3.50
94.44,7.75,4.31,7.74,4.31,-4.33,-4.39,-4.16,3.42,3.41,3.44
95.39,7.75,4.39,7.75,4.38,-4.38,-4.45,-4.25,3.37,3.37,3.36
96.34,7.75,4.47,7.75,4.46,-4.45,-4.52,-4.34,3.30,3.30,3.28
97.30,7.75,4.53,7.75,4.54,-4.52,-4.58,-4.43,3.23,3.23,3.22
98.28,7.75,4.62,7.75,4.61,-4.60,-4.64,-4.53,3.15,3.15,3.13
99.26,7.75,4.69,7.75,4.68,-4.67,-4.70,-4.63,3.08,3.08,3.06
100.25,7.75,4.75,7.75,4.75,-4.74,-4.76,-4.73,3.01,3.01,3.00
101.25,7.75,4.81,7.75,4.81,-4.81,-4.83,-4.83,2.94,2.94,2.94
102.27,7.75,4.88,7.75,4.87,-4.87,-4.89,-4.94,2.88,2.88,2.87
103.29,7.75,4.94,7.75,4.93,-4.93,-4.95,-5.04,2.82,2.82,2.81
104.32,7.75,4.99,7.75,4.99,-4.99,-5.00,-5.15,2.76,2.76,2.76
105.37,7.75,5.05,7.75,5.05,-5.05,-5.06,-5.25,2.70,2.70,2.70
106.42,7.75,5.11,7.75,5.11,-5.12,-5.12,-5.36,2.63,2.63,2.64
107.48,7.75,5.18,7.75,5.17,-5.18,-5.18,-5.46,2.57,2.57,2.57
108.56,7.75,5.22,7.75,5.22,-5.24,-5.24,-5.57,2.51,2.51,2.53
109.64,7.75,5.28,7.75,5.28,-5.28,-5.29,-5.67,2.47,2.47,2.47
110.74,7.75,5.34,7.75,5.34,-5.32,-5.35,-5.77,2.43,2.43,2.41
111.85,7.75,5.40,7.76,5.41,-5.35,-5.40,-5.86,2.40,2.41,2.35
112.97,7.75,5.45,7.72,5.42,-5.38,-5.46,-5.96,2.37,2.34,2.30
114.10,7.70,5.46,7.66,5.42,-5.41,-5.51,-6.05,2.29,2.25,2.24
115.24,7.52,5.35,7.58,5.41,-5.44,-5.56,-6.13,2.08,2.14,2.17
116.39,7.52,5.42,7.52,5.42,-5.47,-5.61,-6.21,2.05,2.05,2.10
117.55,7.52,5.48,7.50,5.46,-5.50,-5.66,-6.29,2.02,2.00,2.04
118.73,7.52,5.55,7.52,5.54,-5.55,-5.71,-6.36,1.97,1.97,1.97
119.92,7.52,5.62,7.52,5.61,-5.60,-5.76,-6.42,1.92,1.92,1.90
121.12,7.52,5.67,7.52,5.68,-5.66,-5.81,-6.48,1.86,1.86,1.85
122.33,7.52,5.75,7.52,5.74,-5.73,-5.85,-6.53,1.79,1.79,1.77
123.55,7.52,5.80,7.52,5.80,-5.80,-5.90,-6.57,1.72,1.72,1.72
124.79,7.52,5.87,7.52,5.87,-5.88,-5.94,-6.61,1.64,1.64,1.65
126.03,7.52,5.94,7.52,5.93,-5.95,-5.99,-6.63,1.57,1.57,1.58
127.29,7.52,6.01,7.52,6.00,-6.02,-6.03,-6.66,1.50,1.50,1.51
128.57,7.52,6.07,7.52,6.07,-6.07,-6.07,-6.67,1.45,1.45,1.45
129.85,7.52,6.15,7.53,6.15,-6.12,-6.11,-6.68,1.40,1.42,1.37
131.15,7.52,6.21,7.52,6.21,-6.15,-6.15,-6.68,1.37,1.37,1.31
132.46,7.52,6.28,7.47,6.23,-6.19,-6.18,-6.67,1.33,1.28,1.24
133.79,7.38,6.20,7.40,6.21,-6.22,-6.22,-6.66,1.16,1.18,1.18
135.12,7.29,6.18,7.33,6.20,-6.24,-6.26,-6.64,1.05,1.08,1.11
136.48,7.29,6.22,7.28,6.21,-6.27,-6.29,-6.62,1.02,1.01,1.07
137.84,7.29,6.28,7.28,6.27,-6.30,-6.32,-6.60,0.99,0.98,1.01
139.22,7.29,6.35,7.29,6.34,-6.34,-6.36,-6.57,0.95,0.95,0.94
140.61,7.29,6.40,7.29,6.40,-6.39,-6.39,-6.54,0.90,0.90,0.89
142.02,7.29,6.45,7.29,6.45,-6.45,-6.42,-6.50,0.84,0.84,0.84
143.44,7.29,6.51,7.29,6.50,-6.50,-6.45,-6.47,0.79,0.79,0.78
144.87,7.29,6.55,7.29,6.55,-6.55,-6.47,-6.43,0.74,0.74,0.74
146.32,7.29,6.60,7.30,6.61,-6.59,-6.50,-6.39,0.70,0.71,0.69
147.78,7.29,6.66,7.29,6.65,-6.61,-6.53,-6.36,0.68,0.68,0.63
149.26,7.29,6.70,7.26,6.67,-6.63,-6.55,-6.32,0.66,0.63,0.59
150.75,7.19,6.66,7.19,6.65,-6.64,-6.58,-6.29,0.55,0.55,0.53
152.26,7.10,6.60,7.12,6.63,-6.66,-6.60,-6.25,0.44,0.47,0.50
153.78,7.07,6.63,7.07,6.63,-6.68,-6.63,-6.22,0.39,0.40,0.44
155.32,7.07,6.67,7.06,6.66,-6.70,-6.65,-6.20,0.37,0.36,0.40
156.88,7.07,6.72,7.07,6.71,-6.73,-6.67,-6.17,0.34,0.33,0.35
158.44,7.07,6.77,7.07,6.76,-6.77,-6.69,-6.15,0.30,0.30,0.30
160.03,7.07,6.82,7.07,6.82,-6.81,-6.72,-6.13,0.26,0.26,0.25
161.63,7.07,6.87,7.07,6.87,-6.85,-6.74,-6.11,0.22,0.22,0.20
163.24,7.07,6.93,7.08,6.93,-6.88,-6.76,-6.10,0.19,0.20,0.14
164.88,7.07,6.97,7.06,6.96,-6.91,-6.78,-6.09,0.16,0.15,0.10
166.53,7.03,6.99,7.00,6.95,-6.92,-6.80,-6.09,0.11,0.08,0.04
168.19,6.91,6.90,6.93,6.92,-6.94,-6.82,-6.09,-0.03,-0.01,0.01
169.87,6.84,6.88,6.87,6.91,-6.96,-6.84,-6.09,-0.12,-0.09,-0.04
171.57,6.84,6.94,6.83,6.92,-6.98,-6.86,-6.10,-0.14,-0.15,-0.10
173.29,6.84,6.99,6.83,6.98,-7.01,-6.87,-6.11,-0.17,-0.18,-0.15
175.02,6.84,7.04,6.84,7.04,-7.04,-6.89,-6.13,-0.20,-0.20,-0.20
176.77,6.84,7.09,6.84,7.09,-7.08,-6.91,-6.15,-0.24,-0.24,-0.25
178.54,6.84,7.14,6.85,7.15,-7.11,-6.93,-6.18,-0.27,-0.26,-0.30
180.32,6.84,7.20,6.85,7.20,-7.14,-6.95,-6.21,-0.30,-0.29,-0.36
182.13,6.84,7.25,6.80,7.21,-7.17,-6.97,-6.25,-0.33,-0.36,-0.41
183.95,6.75,7.21,6.74,7.20,-7.19,-6.99,-6.29,-0.44,-0.46,-0.46
185.79,6.62,7.14,6.66,7.17,-7.21,-7.00,-6.33,-0.59,-0.55,-0.52
187.65,6.61,7.17,6.61,7.17,-7.24,-7.02,-6.38,-0.63,-0.62,-0.56
189.52,6.61,7.22,6.60,7.20,-7.25,-7.04,-6.44,-0.64,-0.66,-0.61
191.42,6.61,7.26,6.61,7.26,-7.27,-7.06,-6.50,-0.66,-0.66,-0.65
193.33,6.61,7.31,6.62,7.32,-7.27,-7.08,-6.56,-0.66,-0.65,-0.70
195.27,6.61,7.36,6.61,7.36,-7.29,-7.10,-6.63,-0.68,-0.68,-0.75
197.22,6.61,7.41,6.56,7.35,-7.31,-7.11,-6.70,-0.70,-0.75,-0.80
199.19,6.47,7.30,6.49,7.32,-7.32,-7.13,-6.77,-0.85,-0.84,-0.83
201.18,6.38,7.26,6.42,7.29,-7.34,-7.15,-6.85,-0.96,-0.92,-0.88
203.19,6.38,7.29,6.37,7.28,-7.34,-7.17,-6.93,-0.96,-0.97,-0.91
205.23,6.38,7.32,6.37,7.31,-7.34,-7.18,-7.01,-0.96,-0.97,-0.94
207.28,6.38,7.35,6.39,7.36,-7.33,-7.20,-7.09,-0.95,-0.93,-0.97
209.35,6.38,7.39,6.38,7.39,-7.32,-7.22,-7.18,-0.94,-0.94,-1.01
211.44,6.38,7.43,6.33,7.37,-7.32,-7.23,-7.26,-0.94,-1.00,-1.05
213.56,6.23,7.31,6.26,7.33,-7.33,-7.25,-7.35,-1.10,-1.08,-1.08
215.69,6.16,7.27,6.19,7.29,-7.34,-7.27,-7.44,-1.18,-1.16,-1.11
217.85,6.15,7.29,6.14,7.28,-7.35,-7.28,-7.52,-1.20,-1.21,-1.14
220.03,6.15,7.33,6.14,7.32,-7.35,-7.29,-7.60,-1.20,-1.21,-1.18
222.23,6.15,7.36,6.15,7.35,-7.35,-7.31,-7.68,-1.20,-1.20,-1.21
224.45,6.15,7.39,6.17,7.40,-7.35,-7.32,-7.76,-1.20,-1.18,-1.24
226.70,6.15,7.42,6.15,7.41,-7.35,-7.33,-7.83,-1.20,-1.21,-1.27
228.96,6.15,7.45,6.09,7.38,-7.36,-7.34,-7.90,-1.21,-1.27,-1.30
231.25,5.98,7.30,6.02,7.34,-7.36,-7.35,-7.96,-1.38,-1.34,-1.32
233.57,5.93,7.28,5.95,7.30,-7.36,-7.36,-8.02,-1.43,-1.40,-1.35
235.90,5.93,7.30,5.92,7.29,-7.33,-7.37,-8.07,-1.40,-1.42,-1.37
238.26,5.93,7.34,5.94,7.33,-7.31,-7.37,-8.11,-1.38,-1.37,-1.41
240.64,5.93,7.34,5.92,7.34,-7.28,-7.38,-8.14,-1.35,-1.36,-1.41
243.05,5.92,7.35,5.87,7.30,-7.27,-7.38,-8.16,-1.35,-1.40,-1.43
245.48,5.76,7.22,5.79,7.24,-7.26,-7.38,-8.17,-1.50,-1.46,-1.46
247.93,5.70,7.18,5.73,7.20,-7.25,-7.38,-8.17,-1.55,-1.52,-1.48
250.41,5.70,7.18,5.69,7.17,-7.22,-7.38,-8.16,-1.52,-1.54,-1.48
252.92,5.70,7.20,5.71,7.21,-7.19,-7.37,-8.14,-1.49,-1.49,-1.50
255.45,5.70,7.22,5.70,7.22,-7.16,-7.37,-8.10,-1.46,-1.46,-1.52
258.00,5.70,7.24,5.65,7.18,-7.14,-7.36,-8.06,-1.44,-1.49,-1.54
260.58,5.56,7.11,5.58,7.13,-7.12,-7.35,-8.01,-1.56,-1.54,-1.55
263.19,5.48,7.04,5.51,7.07,-7.10,-7.34,-7.95,-1.62,-1.59,-1.56
265.82,5.47,7.04,5.46,7.03,-7.08,-7.32,-7.88,-1.61,-1.61,-1.57
268.48,5.47,7.04,5.48,7.04,-7.04,-7.30,-7.80,-1.57,-1.57,-1.57
271.16,5.47,7.04,5.47,7.04,-7.01,-7.28,-7.71,-1.54,-1.54,-1.57
273.87,5.47,7.05,5.42,7.00,-6.97,-7.26,-7.62,-1.50,-1.55,-1.58
276.61,5.34,6.93,5.36,6.95,-6.94,-7.24,-7.52,-1.60,-1.59,-1.59
279.38,5.26,6.87,5.29,6.89,-6.91,-7.21,-7.42,-1.65,-1.62,-1.61
282.17,5.24,6.85,5.24,6.85,-6.87,-7.18,-7.31,-1.63,-1.62,-1.61
284.99,5.24,6.84,5.24,6.85,-6.82,-7.15,-7.20,-1.58,-1.58,-1.60
287.84,5.24,6.84,5.21,6.81,-6.78,-7.11,-7.08,-1.54,-1.57,-1.60
290.72,5.17,6.78,5.15,6.74,-6.74,-7.07,-6.97,-1.57,-1.59,-1.61
293.63,5.03,6.63,5.07,6.67,-6.70,-7.03,-6.85,-1.67,-1.63,-1.60
296.57,5.01,6.61,5.02,6.62,-6.66,-6.99,-6.73,-1.65,-1.65,-1.60
299.53,5.01,6.62,5.00,6.60,-6.62,-6.95,-6.62,-1.61,-1.62,-1.61
302.53,5.01,6.60,5.02,6.61,-6.59,-6.90,-6.50,-1.58,-1.57,-1.59
305.55,5.01,6.61,4.99,6.58,-6.54,-6.85,-6.38,-1.53,-1.55,-1.60
308.61,4.96,6.55,4.93,6.51,-6.50,-6.80,-6.27,-1.54,-1.58,-1.59
311.69,4.81,6.41,4.86,6.45,-6.46,-6.74,-6.15,-1.65,-1.60,-1.60
314.81,4.79,6.38,4.81,6.40,-6.41,-6.69,-6.04,-1.62,-1.60,-1.59
317.96,4.79,6.39,4.77,6.36,-6.36,-6.63,-5.94,-1.57,-1.59,-1.60
321.14,4.78,6.37,4.72,6.31,-6.30,-6.57,-5.83,-1.52,-1.58,-1.59
324.35,4.61,6.21,4.65,6.24,-6.24,-6.51,-5.73,-1.63,-1.59,-1.60
327.59,4.56,6.13,4.60,6.18,-6.18,-6.45,-5.63,-1.62,-1.58,-1.57
330.87,4.56,6.14,4.55,6.12,-6.12,-6.38,-5.53,-1.56,-1.58,-1.58
334.18,4.56,6.14,4.51,6.08,-6.07,-6.31,-5.44,-1.51,-1.56,-1.58
337.52,4.43,6.00,4.45,6.01,-6.01,-6.25,-5.35,-1.58,-1.57,-1.57
340.90,4.35,5.91,4.38,5.93,-5.96,-6.18,-5.27,-1.61,-1.58,-1.56
344.30,4.33,5.88,4.34,5.89,-5.90,-6.11,-5.19,-1.57,-1.57,-1.55
347.75,4.33,5.87,4.33,5.87,-5.85,-6.04,-5.11,-1.52,-1.52,-1.54
351.23,4.33,5.88,4.29,5.82,-5.80,-5.97,-5.04,-1.47,-1.51,-1.55
354.74,4.23,5.75,4.23,5.75,-5.75,-5.89,-4.97,-1.52,-1.52,-1.52
358.28,4.12,5.64,4.16,5.68,-5.69,-5.82,-4.90,-1.57,-1.53,-1.52
361.87,4.10,5.62,4.12,5.63,-5.64,-5.75,-4.84,-1.54,-1.52,-1.52
365.49,4.10,5.61,4.08,5.59,-5.58,-5.67,-4.78,-1.48,-1.50,-1.51
369.14,4.08,5.58,4.03,5.53,-5.52,-5.60,-4.73,-1.44,-1.49,-1.50
372.83,3.93,5.42,3.96,5.45,-5.46,-5.52,-4.68,-1.53,-1.50,-1.49
376.56,3.87,5.37,3.91,5.40,-5.40,-5.45,-4.63,-1.53,-1.49,-1.50
380.33,3.87,5.36,3.86,5.34,-5.35,-5.38,-4.59,-1.48,-1.49,-1.49
384.13,3.87,5.35,3.81,5.29,-5.29,-5.30,-4.55,-1.42,-1.48,-1.48
387.97,3.72,5.20,3.75,5.23,-5.24,-5.23,-4.51,-1.52,-1.49,-1.48
391.85,3.66,5.14,3.69,5.17,-5.18,-5.16,-4.47,-1.52,-1.49,-1.48
395.77,3.65,5.14,3.65,5.13,-5.13,-5.08,-4.44,-1.48,-1.48,-1.49
399.73,3.65,5.13,3.61,5.09,-5.07,-5.01,-4.41,-1.42,-1.45,-1.48
403.72,3.56,5.02,3.55,5.02,-5.00,-4.94,-4.38,-1.44,-1.45,-1.46
407.76,3.45,4.91,3.50,4.95,-4.93,-4.87,-4.36,-1.48,-1.43,-1.46
411.84,3.42,4.87,3.42,4.87,-4.86,-4.80,-4.34,-1.44,-1.44,-1.45
415.96,3.42,4.86,3.35,4.79,-4.80,-4.74,-4.32,-1.38,-1.45,-1.44
420.12,3.24,4.68,3.28,4.71,-4.74,-4.67,-4.30,-1.50,-1.46,-1.44
424.32,3.19,4.61,3.22,4.63,-4.68,-4.61,-4.28,-1.49,-1.46,-1.42
428.56,3.19,4.59,3.18,4.58,-4.62,-4.55,-4.26,-1.43,-1.44,-1.40
432.85,3.19,4.58,3.20,4.59,-4.56,-4.49,-4.24,-1.37,-1.36,-1.39
437.18,3.19,4.57,3.19,4.57,-4.51,-4.43,-4.23,-1.32,-1.32,-1.38
441.55,3.19,4.57,3.13,4.50,-4.47,-4.37,-4.21,-1.28,-1.33,-1.38
445.96,3.03,4.39,3.06,4.42,-4.42,-4.32,-4.19,-1.39,-1.36,-1.36
450.42,2.96,4.31,2.99,4.34,-4.38,-4.27,-4.18,-1.42,-1.39,-1.35
454.93,2.96,4.29,2.95,4.28,-4.33,-4.22,-4.16,-1.37,-1.38,-1.33
459.48,2.96,4.28,2.97,4.28,-4.28,-4.17,-4.14,-1.32,-1.31,-1.32
464.07,2.96,4.26,2.96,4.26,-4.22,-4.12,-4.12,-1.26,-1.26,-1.30
468.71,2.96,4.24,2.91,4.19,-4.16,-4.08,-4.09,-1.20,-1.25,-1.28
473.40,2.82,4.09,2.84,4.11,-4.10,-4.04,-4.07,-1.28,-1.26,-1.27
478.13,2.75,4.00,2.79,4.03,-4.04,-3.99,-4.04,-1.29,-1.26,-1.25
482.91,2.74,3.98,2.74,3.98,-3.98,-3.95,-4.00,-1.24,-1.24,-1.24
487.74,2.74,3.97,2.70,3.92,-3.92,-3.90,-3.97,-1.18,-1.22,-1.23
492.62,2.65,3.86,2.64,3.85,-3.85,-3.86,-3.93,-1.20,-1.21,-1.21
497.55,2.54,3.74,2.57,3.76,-3.79,-3.81,-3.89,-1.25,-1.22,-1.20
502.52,2.51,3.69,2.52,3.69,-3.73,-3.75,-3.85,-1.22,-1.21,-1.18
507.55,2.51,3.66,2.51,3.66,-3.65,-3.70,-3.80,-1.14,-1.14,-1.15
512.62,2.51,3.64,2.49,3.61,-3.58,-3.63,-3.75,-1.07,-1.09,-1.13
517.75,2.47,3.57,2.44,3.54,-3.49,-3.56,-3.69,-1.02,-1.05,-1.10
522.93,2.32,3.40,2.36,3.44,-3.41,-3.49,-3.63,-1.09,-1.05,-1.08
