frequency,raw,error,smoothed,error_smoothed,equalization,parametric_eq,fixed_band_eq,equalized_raw,equalized_smoothed,target
20.00,-4.44,-8.87,-4.44,-8.89,8.89,8.68,2.92,4.45,4.45,4.43
20.20,-4.33,-8.85,-4.33,-8.85,8.85,8.70,3.01,4.52,4.53,4.52
20.40,-4.21,-8.81,-4.21,-8.81,8.81,8.72,3.09,4.60,4.60,4.60
20.61,-4.10,-8.77,-4.10,-8.77,8.77,8.73,3.18,4.67,4.67,4.66
20.81,-3.98,-8.73,-3.99,-8.73,8.73,8.74,3.27,4.75,4.74,4.75
21.02,-3.87,-8.70,-3.87,-8.68,8.68,8.74,3.36,4.81,4.81,4.83
21.23,-3.76,-8.65,-3.76,-8.63,8.63,8.73,3.45,4.87,4.87,4.89
21.44,-3.64,-8.59,-3.65,-8.58,8.58,8.72,3.55,4.94,4.93,4.95
21.66,-3.53,-8.53,-3.53,-8.52,8.52,8.71,3.65,4.99,4.99,5.00
21.87,-3.42,-8.47,-3.42,-8.46,8.46,8.69,3.75,5.04,5.04,5.05
22.09,-3.30,-8.40,-3.31,-8.40,8.40,8.66,3.86,5.10,5.10,5.10
22.31,-3.19,-8.34,-3.19,-8.34,8.34,8.63,3.97,5.15,5.15,5.15
22.54,-3.08,-8.27,-3.08,-8.27,8.27,8.60,4.08,5.19,5.19,5.19
22.76,-2.97,-8.20,-2.97,-8.20,8.20,8.56,4.19,5.23,5.23,5.23
22.99,-2.86,-8.12,-2.85,-8.12,8.12,8.52,4.31,5.26,5.27,5.26
23.22,-2.74,-8.04,-2.74,-8.05,8.05,8.47,4.43,5.31,5.31,5.30
23.45,-2.63,-7.97,-2.63,-7.97,7.97,8.42,4.55,5.34,5.35,5.34
23.69,-2.51,-7.89,-2.51,-7.90,7.90,8.36,4.68,5.38,5.38,5.38
23.92,-2.40,-7.81,-2.40,-7.82,7.82,8.30,4.80,5.42,5.42,5.42
24.16,-2.28,-7.74,-2.29,-7.74,7.74,8.24,4.93,5.46,5.45,5.46
24.40,-2.17,-7.66,-2.17,-7.66,7.66,8.17,5.06,5.49,5.49,5.49
24.65,-2.06,-7.58,-2.06,-7.58,7.58,8.11,5.19,5.52,5.52,5.52
24.89,-1.95,-7.50,-1.95,-7.50,7.50,8.03,5.33,5.55,5.55,5.55
25.14,-1.83,-7.42,-1.83,-7.42,7.42,7.96,5.46,5.59,5.59,5.59
25.39,-1.72,-7.34,-1.72,-7.34,7.34,7.88,5.60,5.62,5.62,5.62
25.65,-1.61,-7.27,-1.61,-7.26,7.26,7.80,5.74,5.65,5.65,5.66
25.91,-1.49,-7.17,-1.49,-7.18,7.18,7.72,5.88,5.69,5.68,5.68
26.16,-1.38,-7.09,-1.38,-7.10,7.10,7.64,6.01,5.72,5.71,5.71
26.43,-1.27,-7.02,-1.27,-7.02,7.02,7.55,6.15,5.74,5.74,5.74
26.69,-1.16,-6.93,-1.16,-6.93,6.93,7.46,6.28,5.77,5.77,5.77
26.96,-1.05,-6.85,-1.05,-6.85,6.85,7.38,6.42,5.80,5.80,5.80
27.23,-0.94,-6.78,-0.94,-6.77,6.77,7.29,6.55,5.83,5.83,5.84
27.50,-0.83,-6.70,-0.83,-6.69,6.69,7.20,6.67,5.86,5.86,5.87
27.77,-0.72,-6.61,-0.72,-6.61,6.61,7.11,6.79,5.89,5.89,5.89
28.05,-0.61,-6.54,-0.61,-6.53,6.53,7.01,6.91,5.92,5.92,5.93
28.33,-0.50,-6.44,-0.50,-6.45,6.45,6.92,7.02,5.95,5.95,5.94
28.62,-0.39,-6.36,-0.40,-6.38,6.38,6.83,7.12,5.98,5.98,5.97
28.90,-0.29,-6.30,-0.29,-6.30,6.30,6.74,7.21,6.01,6.01,6.01
29.19,-0.18,-6.21,-0.18,-6.22,6.22,6.64,7.30,6.04,6.04,6.03
29.48,-0.08,-6.16,-0.08,-6.15,6.15,6.55,7.37,6.07,6.07,6.08
29.78,0.02,-6.08,0.02,-6.07,6.07,6.46,7.44,6.09,6.09,6.10
30.08,0.13,-6.00,0.13,-6.00,6.00,6.36,7.49,6.12,6.12,6.12
30.38,0.23,-5.92,0.23,-5.92,5.92,6.27,7.53,6.15,6.15,6.15
30.68,0.33,-5.85,0.33,-5.85,5.85,6.18,7.56,6.18,6.17,6.18
30.99,0.43,-5.77,0.43,-5.77,5.77,6.09,7.58,6.20,6.20,6.20
31.30,0.52,-5.71,0.52,-5.70,5.70,5.99,7.58,6.22,6.23,6.22
31.61,0.62,-5.63,0.62,-5.63,5.63,5.90,7.57,6.25,6.25,6.25
31.93,0.72,-5.55,0.72,-5.56,5.56,5.81,7.55,6.27,6.27,6.27
32.24,0.81,-5.48,0.81,-5.48,5.48,5.72,7.51,6.29,6.30,6.29
32.57,0.91,-5.41,0.91,-5.41,5.41,5.63,7.46,6.32,6.32,6.31
32.89,1.00,-5.34,1.00,-5.34,5.34,5.54,7.40,6.34,6.33,6.34
33.22,1.09,-5.27,1.09,-5.27,5.27,5.46,7.33,6.36,6.35,6.36
33.55,1.18,-5.19,1.18,-5.19,5.19,5.37,7.26,6.37,6.37,6.38
33.89,1.27,-5.11,1.27,-5.12,5.12,5.28,7.17,6.39,6.39,6.38
34.23,1.36,-5.05,1.35,-5.05,5.05,5.20,7.07,6.40,6.40,6.41
34.57,1.44,-4.98,1.44,-4.97,4.97,5.11,6.97,6.41,6.41,6.41
34.92,1.52,-4.90,1.53,-4.90,4.90,5.03,6.86,6.42,6.42,6.42
35.27,1.60,-4.84,1.61,-4.82,4.82,4.95,6.74,6.42,6.43,6.44
35.62,1.69,-4.74,1.69,-4.75,4.75,4.87,6.62,6.44,6.44,6.43
35.97,1.77,-4.67,1.77,-4.67,4.67,4.79,6.50,6.44,6.44,6.44
36.33,1.85,-4.60,1.85,-4.60,4.60,4.71,6.37,6.45,6.45,6.46
36.70,1.93,-4.52,1.93,-4.52,4.52,4.63,6.24,6.45,6.45,6.45
37.06,2.01,-4.44,2.00,-4.45,4.45,4.55,6.11,6.46,6.45,6.45
37.43,2.08,-4.37,2.08,-4.37,4.37,4.47,5.98,6.45,6.45,6.45
37.81,2.15,-4.30,2.15,-4.30,4.30,4.40,5.85,6.45,6.45,6.45
38.19,2.22,-4.22,2.22,-4.23,4.23,4.32,5.72,6.45,6.44,6.44
38.57,2.29,-4.16,2.28,-4.15,4.15,4.25,5.59,6.44,6.44,6.45
38.95,2.35,-4.09,2.35,-4.09,4.09,4.18,5.46,6.44,6.43,6.44
39.34,2.41,-4.01,2.41,-4.02,4.02,4.10,5.33,6.43,6.43,6.42
39.74,2.47,-3.95,2.47,-3.95,3.95,4.03,5.21,6.42,6.42,6.42
40.14,2.53,-3.88,2.53,-3.89,3.89,3.96,5.08,6.42,6.42,6.41
40.54,2.59,-3.82,2.59,-3.82,3.82,3.90,4.96,6.41,6.41,6.41
40.94,2.64,-3.76,2.64,-3.76,3.76,3.83,4.84,6.40,6.40,6.40
41.35,2.69,-3.70,2.69,-3.70,3.70,3.76,4.73,6.39,6.39,6.39
41.76,2.74,-3.64,2.74,-3.64,3.64,3.70,4.61,6.38,6.38,6.38
42.18,2.79,-3.59,2.79,-3.58,3.58,3.63,4.50,6.37,6.37,6.38
42.60,2.84,-3.52,2.84,-3.52,3.52,3.57,4.39,6.36,6.36,6.36
43.03,2.88,-3.48,2.89,-3.46,3.46,3.51,4.29,6.34,6.35,6.36
43.46,2.93,-3.41,2.93,-3.41,3.41,3.44,4.19,6.33,6.34,6.34
43.90,2.98,-3.35,2.97,-3.35,3.35,3.38,4.09,6.33,6.32,6.32
44.33,3.02,-3.29,3.01,-3.30,3.30,3.32,3.99,6.32,6.31,6.31
44.78,3.05,-3.25,3.05,-3.25,3.25,3.27,3.90,6.30,6.30,6.30
45.23,3.09,-3.19,3.09,-3.20,3.20,3.21,3.81,6.29,6.29,6.28
45.68,3.12,-3.15,3.12,-3.15,3.15,3.15,3.72,6.27,6.27,6.27
46.13,3.15,-3.11,3.15,-3.11,3.11,3.10,3.63,6.26,6.26,6.26
46.60,3.18,-3.08,3.18,-3.07,3.07,3.04,3.55,6.25,6.25,6.25
47.06,3.21,-3.03,3.21,-3.03,3.03,2.99,3.47,6.24,6.24,6.24
47.53,3.24,-2.99,3.23,-3.00,3.00,2.93,3.39,6.24,6.23,6.23
48.01,3.26,-2.97,3.25,-2.96,2.96,2.88,3.32,6.22,6.22,6.23
48.49,3.28,-2.94,3.27,-2.94,2.94,2.83,3.25,6.22,6.21,6.22
48.97,3.30,-2.90,3.29,-2.91,2.91,2.78,3.18,6.21,6.20,6.20
49.46,3.31,-2.87,3.30,-2.89,2.89,2.73,3.11,6.20,6.19,6.18
49.96,3.32,-2.85,3.32,-2.87,2.87,2.68,3.05,6.19,6.19,6.17
50.46,3.33,-2.84,3.33,-2.85,2.85,2.64,2.98,6.18,6.18,6.17
50.96,3.34,-2.84,3.35,-2.83,2.83,2.59,2.92,6.17,6.17,6.18
51.47,3.35,-2.81,3.36,-2.81,2.81,2.54,2.86,6.16,6.17,6.16
51.99,3.37,-2.79,3.37,-2.79,2.79,2.50,2.81,6.16,6.16,6.16
52.51,3.39,-2.77,3.39,-2.76,2.76,2.45,2.75,6.15,6.15,6.16
53.03,3.40,-2.75,3.40,-2.74,2.74,2.41,2.70,6.14,6.14,6.15
53.56,3.41,-2.74,3.42,-2.72,2.72,2.37,2.65,6.12,6.14,6.15
54.10,3.42,-2.72,3.44,-2.69,2.69,2.32,2.60,6.11,6.13,6.14
54.64,3.45,-2.67,3.46,-2.66,2.66,2.28,2.55,6.11,6.12,6.12
55.18,3.48,-2.63,3.47,-2.63,2.63,2.24,2.50,6.11,6.11,6.11
55.74,3.50,-2.59,3.49,-2.60,2.60,2.20,2.45,6.10,6.09,6.09
56.29,3.52,-2.56,3.51,-2.57,2.57,2.16,2.40,6.09,6.08,6.08
56.86,3.54,-2.52,3.52,-2.54,2.54,2.12,2.36,6.08,6.06,6.06
57.42,3.55,-2.48,3.54,-2.50,2.50,2.09,2.31,6.05,6.04,6.03
58.00,3.57,-2.45,3.56,-2.46,2.46,2.05,2.27,6.03,6.02,6.02
58.58,3.58,-2.42,3.57,-2.42,2.42,2.01,2.22,6.00,5.99,6.00
59.16,3.59,-2.39,3.59,-2.38,2.38,1.98,2.18,5.97,5.97,5.98
59.76,3.60,-2.36,3.61,-2.33,2.33,1.94,2.13,5.93,5.94,5.96
60.35,3.61,-2.31,3.63,-2.29,2.29,1.91,2.09,5.90,5.91,5.92
60.96,3.63,-2.28,3.65,-2.24,2.24,1.87,2.04,5.87,5.89,5.90
61.57,3.65,-2.21,3.67,-2.19,2.19,1.84,2.00,5.84,5.86,5.86
62.18,3.68,-2.14,3.69,-2.15,2.15,1.81,1.95,5.82,5.83,5.82
62.80,3.70,-2.10,3.71,-2.10,2.10,1.78,1.91,5.80,5.80,5.80
63.43,3.73,-2.03,3.73,-2.05,2.05,1.75,1.86,5.78,5.78,5.76
64.07,3.76,-1.98,3.75,-2.00,2.00,1.72,1.82,5.76,5.75,5.74
64.71,3.80,-1.92,3.78,-1.95,1.95,1.69,1.77,5.75,5.73,5.72
65.35,3.82,-1.88,3.80,-1.90,1.90,1.66,1.72,5.72,5.70,5.69
66.01,3.84,-1.84,3.83,-1.86,1.86,1.63,1.68,5.70,5.68,5.68
66.67,3.86,-1.81,3.85,-1.81,1.81,1.60,1.63,5.67,5.67,5.67
67.33,3.88,-1.77,3.88,-1.77,1.77,1.57,1.58,5.65,5.65,5.65
68.01,3.90,-1.73,3.90,-1.73,1.73,1.54,1.53,5.63,5.63,5.63
68.69,3.92,-1.70,3.93,-1.69,1.69,1.52,1.48,5.61,5.62,5.62
69.37,3.95,-1.66,3.96,-1.65,1.65,1.49,1.43,5.60,5.61,5.61
70.07,3.97,-1.62,3.99,-1.60,1.60,1.47,1.38,5.57,5.59,5.59
70.77,4.00,-1.59,4.02,-1.56,1.56,1.44,1.33,5.56,5.58,5.59
71.48,4.04,-1.53,4.05,-1.51,1.51,1.42,1.29,5.55,5.56,5.57
72.19,4.08,-1.47,4.09,-1.46,1.46,1.39,1.24,5.54,5.54,5.55
72.91,4.12,-1.41,4.12,-1.41,1.41,1.37,1.19,5.53,5.53,5.53
73.64,4.16,-1.35,4.15,-1.35,1.35,1.35,1.13,5.51,5.51,5.51
74.38,4.20,-1.29,4.19,-1.30,1.30,1.33,1.08,5.50,5.49,5.49
75.12,4.23,-1.24,4.22,-1.25,1.25,1.30,1.03,5.48,5.47,5.47
75.87,4.26,-1.19,4.25,-1.19,1.19,1.28,0.98,5.45,5.45,5.45
76.63,4.30,-1.13,4.28,-1.14,1.14,1.26,0.93,5.44,5.43,5.43
77.40,4.32,-1.08,4.31,-1.09,1.09,1.24,0.88,5.41,5.41,5.40
78.17,4.34,-1.03,4.34,-1.05,1.05,1.22,0.83,5.39,5.39,5.37
78.95,4.36,-1.01,4.36,-1.01,1.01,1.20,0.78,5.37,5.37,5.37
79.74,4.37,-0.98,4.38,-0.97,0.97,1.18,0.73,5.34,5.35,5.35
80.54,4.39,-0.94,4.39,-0.94,0.94,1.16,0.68,5.33,5.33,5.33
81.35,4.41,-0.90,4.41,-0.91,0.91,1.15,0.63,5.32,5.32,5.31
82.16,4.42,-0.88,4.42,-0.89,0.89,1.13,0.58,5.31,5.31,5.30
82.98,4.44,-0.85,4.42,-0.87,0.87,1.11,0.53,5.31,5.30,5.29
83.81,4.44,-0.84,4.43,-0.86,0.86,1.09,0.48,5.29,5.28,5.28
84.65,4.44,-0.82,4.43,-0.84,0.84,1.08,0.43,5.28,5.27,5.26
85.50,4.44,-0.82,4.43,-0.83,0.83,1.06,0.38,5.27,5.26,5.26
86.35,4.43,-0.82,4.43,-0.82,0.82,1.04,0.33,5.25,5.25,5.25
87.22,4.42,-0.81,4.43,-0.80,0.80,1.03,0.28,5.22,5.24,5.23
88.09,4.42,-0.80,4.43,-0.79,0.79,1.01,0.23,5.21,5.22,5.22
88.97,4.42,-0.79,4.43,-0.77,0.77,1.00,0.18,5.19,5.20,5.21
89.86,4.42,-0.77,4.43,-0.76,0.76,0.99,0.13,5.17,5.18,5.19
90.76,4.42,-0.74,4.42,-0.73,0.73,0.97,0.08,5.15,5.16,5.16
91.66,4.42,-0.71,4.42,-0.71,0.71,0.96,0.03,5.12,5.13,5.13
92.58,4.42,-0.67,4.42,-0.67,0.67,0.95,-0.02,5.09,5.09,5.09
93.51,4.42,-0.65,4.42,-0.64,0.64,0.93,-0.07,5.06,5.05,5.07
94.44,4.42,-0.60,4.42,-0.59,0.59,0.92,-0.12,5.01,5.01,5.02
95.39,4.42,-0.56,4.42,-0.54,0.54,0.91,-0.17,4.96,4.96,4.98
96.34,4.42,-0.50,4.42,-0.49,0.49,0.90,-0.22,4.91,4.91,4.92
97.30,4.42,-0.43,4.42,-0.44,0.44,0.89,-0.27,4.86,4.85,4.85
98.28,4.42,-0.38,4.42,-0.38,0.38,0.87,-0.32,4.79,4.79,4.80
99.26,4.42,-0.31,4.42,-0.31,0.31,0.86,-0.37,4.73,4.73,4.73
100.25,4.42,-0.24,4.42,-0.24,0.24,0.85,-0.42,4.66,4.66,4.66
101.25,4.42,-0.18,4.43,-0.17,0.17,0.84,-0.47,4.59,4.60,4.60
102.27,4.42,-0.11,4.43,-0.10,0.10,0.84,-0.51,4.52,4.53,4.53
103.29,4.42,-0.03,4.43,-0.03,0.03,0.83,-0.56,4.45,4.46,4.45
104.32,4.42,0.03,4.43,0.04,-0.04,0.82,-0.61,4.38,4.39,4.39
105.37,4.42,0.10,4.43,0.11,-0.11,0.81,-0.65,4.31,4.32,4.31
106.42,4.43,0.18,4.43,0.18,-0.18,0.80,-0.69,4.25,4.25,4.25
107.48,4.44,0.26,4.42,0.24,-0.24,0.79,-0.73,4.20,4.18,4.18
108.56,4.44,0.33,4.42,0.31,-0.31,0.79,-0.77,4.13,4.11,4.11
109.64,4.43,0.39,4.41,0.36,-0.36,0.78,-0.81,4.07,4.05,4.04
110.74,4.42,0.43,4.40,0.42,-0.42,0.77,-0.85,4.00,3.98,3.99
111.85,4.39,0.46,4.38,0.46,-0.46,0.77,-0.88,3.93,3.92,3.93
112.97,4.36,0.51,4.36,0.50,-0.50,0.76,-0.91,3.86,3.86,3.85
114.10,4.33,0.52,4.34,0.54,-0.54,0.75,-0.94,3.79,3.80,3.81
115.24,4.30,0.56,4.31,0.56,-0.56,0.75,-0.96,3.74,3.75,3.74
116.39,4.29,0.61,4.28,0.59,-0.59,0.74,-0.98,3.70,3.69,3.68
117.55,4.26,0.62,4.25,0.60,-0.60,0.74,-1.00,3.66,3.64,3.64
118.73,4.23,0.65,4.21,0.62,-0.62,0.74,-1.01,3.61,3.60,3.58
119.92,4.18,0.63,4.18,0.63,-0.63,0.73,-1.02,3.55,3.55,3.55
121.12,4.13,0.62,4.14,0.63,-0.63,0.73,-1.02,3.49,3.51,3.51
122.33,4.10,0.64,4.11,0.64,-0.64,0.72,-1.02,3.46,3.46,3.46
123.55,4.06,0.63,4.07,0.65,-0.65,0.72,-1.02,3.41,3.42,3.43
124.79,4.01,0.62,4.03,0.65,-0.65,0.72,-1.01,3.36,3.38,3.39
126.03,3.97,0.61,3.99,0.65,-0.65,0.72,-1.00,3.32,3.35,3.36
127.29,3.96,0.64,3.96,0.65,-0.65,0.72,-0.98,3.31,3.31,3.32
128.57,3.93,0.66,3.92,0.64,-0.64,0.71,-0.96,3.28,3.27,3.27
129.85,3.89,0.65,3.88,0.64,-0.64,0.71,-0.94,3.25,3.23,3.24
131.15,3.84,0.64,3.84,0.64,-0.64,0.71,-0.91,3.20,3.20,3.20
132.46,3.81,0.66,3.80,0.64,-0.64,0.71,-0.87,3.17,3.16,3.15
133.79,3.77,0.65,3.76,0.64,-0.64,0.71,-0.83,3.13,3.12,3.12
135.12,3.71,0.63,3.72,0.64,-0.64,0.71,-0.79,3.07,3.08,3.08
136.48,3.67,0.63,3.68,0.64,-0.64,0.71,-0.74,3.03,3.04,3.04
137.84,3.62,0.62,3.63,0.64,-0.64,0.72,-0.70,2.98,3.00,3.00
139.22,3.58,0.63,3.59,0.63,-0.63,0.72,-0.64,2.95,2.95,2.95
140.61,3.54,0.64,3.54,0.63,-0.63,0.72,-0.59,2.91,2.91,2.90
142.02,3.49,0.62,3.48,0.61,-0.61,0.72,-0.53,2.87,2.87,2.87
143.44,3.45,0.62,3.43,0.60,-0.60,0.73,-0.47,2.84,2.83,2.83
144.87,3.38,0.60,3.38,0.59,-0.59,0.73,-0.40,2.79,2.78,2.78
146.32,3.33,0.59,3.32,0.58,-0.58,0.73,-0.34,2.75,2.74,2.73
147.78,3.26,0.56,3.26,0.56,-0.56,0.74,-0.27,2.69,2.69,2.70
149.26,3.20,0.55,3.20,0.55,-0.55,0.74,-0.20,2.65,2.65,2.65
150.75,3.13,0.53,3.13,0.53,-0.53,0.75,-0.13,2.59,2.60,2.60
152.26,3.07,0.52,3.07,0.52,-0.52,0.76,-0.05,2.55,2.55,2.55
153.78,3.00,0.49,3.00,0.50,-0.50,0.76,0.02,2.50,2.50,2.51
155.32,2.94,0.48,2.93,0.48,-0.48,0.77,0.10,2.46,2.45,2.46
156.88,2.85,0.44,2.86,0.46,-0.46,0.78,0.18,2.39,2.40,2.41
158.44,2.78,0.43,2.79,0.44,-0.44,0.79,0.26,2.34,2.35,2.35
160.03,2.70,0.40,2.72,0.42,-0.42,0.80,0.34,2.28,2.30,2.30
161.63,2.65,0.40,2.65,0.40,-0.40,0.81,0.42,2.25,2.25,2.25
163.24,2.60,0.40,2.58,0.38,-0.38,0.82,0.50,2.22,2.20,2.20
164.88,2.50,0.35,2.51,0.36,-0.36,0.83,0.59,2.14,2.15,2.15
166.53,2.43,0.32,2.44,0.34,-0.34,0.85,0.67,2.09,2.11,2.11
168.19,2.37,0.31,2.37,0.31,-0.31,0.86,0.76,2.06,2.06,2.06
169.87,2.28,0.26,2.30,0.29,-0.29,0.88,0.84,1.99,2.01,2.02
171.57,2.22,0.25,2.23,0.26,-0.26,0.89,0.93,1.96,1.97,1.97
173.29,2.16,0.23,2.15,0.22,-0.22,0.91,1.02,1.94,1.93,1.93
175.02,2.07,0.18,2.07,0.18,-0.18,0.93,1.11,1.89,1.89,1.89
176.77,2.00,0.15,1.99,0.14,-0.14,0.95,1.20,1.86,1.85,1.85
178.54,1.93,0.12,1.90,0.08,-0.08,0.97,1.29,1.85,1.82,1.81
180.32,1.84,0.06,1.81,0.02,-0.02,0.99,1.38,1.82,1.79,1.78
182.13,1.74,-0.01,1.71,-0.05,0.05,1.01,1.47,1.79,1.76,1.75
183.95,1.59,-0.14,1.61,-0.12,0.12,1.04,1.56,1.71,1.73,1.73
185.79,1.49,-0.21,1.50,-0.20,0.20,1.07,1.66,1.69,1.70,1.70
187.65,1.39,-0.29,1.39,-0.29,0.29,1.09,1.75,1.68,1.68,1.68
189.52,1.27,-0.39,1.27,-0.39,0.39,1.12,1.85,1.66,1.66,1.66
191.42,1.14,-0.50,1.14,-0.50,0.50,1.16,1.94,1.64,1.64,1.64
193.33,1.01,-0.62,1.01,-0.60,0.60,1.19,2.04,1.61,1.62,1.62
195.27,0.89,-0.72,0.88,-0.72,0.72,1.23,2.13,1.61,1.60,1.61
197.22,0.75,-0.84,0.74,-0.84,0.84,1.27,2.23,1.59,1.58,1.59
199.19,0.60,-0.96,0.60,-0.97,0.97,1.31,2.33,1.57,1.57,1.56
201.18,0.46,-1.09,0.46,-1.09,1.09,1.36,2.43,1.55,1.55,1.55
203.19,0.32,-1.22,0.32,-1.22,1.22,1.41,2.52,1.53,1.54,1.54
205.23,0.17,-1.35,0.18,-1.34,1.34,1.46,2.62,1.51,1.52,1.52
207.28,0.03,-1.48,0.03,-1.47,1.47,1.52,2.71,1.50,1.50,1.51
209.35,-0.11,-1.60,-0.12,-1.61,1.61,1.58,2.81,1.50,1.49,1.49
211.44,-0.27,-1.74,-0.27,-1.74,1.74,1.64,2.90,1.47,1.47,1.47
213.56,-0.43,-1.89,-0.42,-1.88,1.88,1.71,3.00,1.45,1.46,1.46
215.69,-0.60,-2.05,-0.58,-2.02,2.02,1.79,3.09,1.42,1.45,1.45
217.85,-0.76,-2.19,-0.74,-2.17,2.17,1.87,3.17,1.41,1.43,1.43
220.03,-0.87,-2.28,-0.89,-2.31,2.31,1.96,3.26,1.44,1.42,1.41
222.23,-1.02,-2.41,-1.05,-2.45,2.45,2.05,3.34,1.43,1.40,1.39
224.45,-1.20,-2.59,-1.22,-2.60,2.60,2.16,3.42,1.40,1.38,1.38
226.70,-1.38,-2.75,-1.39,-2.76,2.76,2.27,3.50,1.37,1.37,1.37
228.96,-1.59,-2.95,-1.56,-2.91,2.91,2.39,3.57,1.32,1.35,1.36
231.25,-1.73,-3.08,-1.74,-3.07,3.07,2.52,3.64,1.34,1.33,1.35
233.57,-1.91,-3.23,-1.92,-3.23,3.23,2.66,3.70,1.32,1.31,1.32
235.90,-2.12,-3.42,-2.10,-3.40,3.40,2.81,3.76,1.28,1.30,1.30
238.26,-2.26,-3.54,-2.29,-3.57,3.57,2.97,3.81,1.31,1.28,1.28
240.64,-2.46,-3.72,-2.48,-3.75,3.75,3.15,3.85,1.29,1.27,1.26
243.05,-2.63,-3.88,-2.67,-3.93,3.93,3.34,3.89,1.30,1.25,1.25
245.48,-2.84,-4.08,-2.87,-4.11,4.11,3.54,3.93,1.27,1.24,1.24
247.93,-3.07,-4.30,-3.06,-4.29,4.29,3.76,3.95,1.22,1.23,1.23
250.41,-3.23,-4.44,-3.24,-4.47,4.47,3.99,3.97,1.24,1.23,1.21
252.92,-3.43,-4.65,-3.42,-4.65,4.65,4.23,3.99,1.22,1.22,1.22
255.45,-3.60,-4.82,-3.60,-4.83,4.83,4.48,3.99,1.23,1.22,1.22
258.00,-3.75,-4.97,-3.78,-5.00,5.00,4.74,3.99,1.25,1.23,1.22
260.58,-3.94,-5.17,-3.94,-5.17,5.17,5.00,3.99,1.23,1.23,1.22
263.19,-4.07,-5.31,-4.08,-5.32,5.32,5.26,3.98,1.25,1.24,1.24
265.82,-4.22,-5.46,-4.21,-5.46,5.46,5.51,3.96,1.24,1.25,1.24
268.48,-4.32,-5.58,-4.32,-5.58,5.58,5.73,3.94,1.26,1.26,1.26
271.16,-4.41,-5.69,-4.41,-5.68,5.68,5.93,3.91,1.27,1.27,1.28
273.87,-4.51,-5.80,-4.47,-5.75,5.75,6.09,3.88,1.24,1.28,1.29
276.61,-4.55,-5.86,-4.51,-5.81,5.81,6.20,3.85,1.25,1.30,1.31
279.38,-4.58,-5.90,-4.52,-5.83,5.83,6.25,3.81,1.25,1.31,1.32
282.17,-4.56,-5.89,-4.50,-5.82,5.82,6.24,3.77,1.26,1.33,1.33
284.99,-4.50,-5.84,-4.45,-5.79,5.79,6.18,3.72,1.29,1.34,1.34
287.84,-4.41,-5.77,-4.38,-5.74,5.74,6.07,3.68,1.33,1.36,1.36
290.72,-4.30,-5.68,-4.29,-5.66,5.66,5.91,3.63,1.36,1.38,1.38
293.63,-4.18,-5.57,-4.17,-5.56,5.56,5.71,3.58,1.38,1.39,1.39
296.57,-4.03,-5.44,-4.02,-5.44,5.44,5.49,3.53,1.41,1.41,1.41
299.53,-3.87,-5.30,-3.87,-5.30,5.30,5.26,3.48,1.43,1.43,1.43
302.53,-3.68,-5.11,-3.69,-5.14,5.14,5.01,3.42,1.46,1.45,1.43
305.55,-3.47,-4.94,-3.50,-4.97,4.97,4.77,3.37,1.50,1.47,1.47
308.61,-3.27,-4.75,-3.31,-4.80,4.80,4.53,3.32,1.52,1.49,1.48
311.69,-3.07,-4.58,-3.10,-4.61,4.61,4.30,3.27,1.54,1.51,1.51
314.81,-2.91,-4.46,-2.90,-4.43,4.43,4.08,3.22,1.52,1.53,1.55
317.96,-2.71,-4.27,-2.69,-4.24,4.24,3.88,3.17,1.53,1.55,1.56
321.14,-2.47,-4.05,-2.48,-4.06,4.06,3.68,3.12,1.59,1.57,1.58
324.35,-2.25,-3.85,-2.27,-3.87,3.87,3.50,3.08,1.62,1.60,1.59
327.59,-2.04,-3.66,-2.07,-3.69,3.69,3.34,3.03,1.65,1.62,1.62
330.87,-1.88,-3.52,-1.87,-3.51,3.51,3.18,2.99,1.63,1.64,1.64
334.18,-1.67,-3.34,-1.67,-3.33,3.33,3.04,2.95,1.66,1.67,1.67
337.52,-1.46,-3.14,-1.48,-3.17,3.17,2.92,2.91,1.71,1.69,1.68
340.90,-1.29,-3.00,-1.29,-3.00,3.00,2.80,2.87,1.71,1.71,1.71
344.30,-1.10,-2.84,-1.11,-2.85,2.85,2.69,2.84,1.74,1.73,1.74
347.75,-0.94,-2.69,-0.94,-2.70,2.70,2.59,2.80,1.76,1.76,1.75
351.23,-0.76,-2.54,-0.78,-2.56,2.56,2.50,2.77,1.79,1.78,1.78
354.74,-0.62,-2.43,-0.62,-2.43,2.43,2.42,2.74,1.81,1.80,1.81
358.28,-0.46,-2.29,-0.48,-2.31,2.31,2.35,2.72,1.85,1.83,1.83
361.87,-0.32,-2.17,-0.34,-2.20,2.20,2.28,2.69,1.88,1.85,1.85
365.49,-0.19,-2.07,-0.22,-2.09,2.09,2.22,2.67,1.90,1.88,1.88
369.14,-0.09,-1.98,-0.10,-1.99,1.99,2.17,2.65,1.90,1.90,1.89
372.83,-0.00,-1.92,0.01,-1.91,1.91,2.12,2.63,1.91,1.92,1.92
376.56,0.12,-1.82,0.12,-1.82,1.82,2.07,2.62,1.94,1.94,1.94
380.33,0.20,-1.77,0.22,-1.75,1.75,2.03,2.60,1.95,1.96,1.97
384.13,0.29,-1.69,0.30,-1.68,1.68,2.00,2.59,1.97,1.98,1.98
387.97,0.38,-1.62,0.39,-1.61,1.61,1.97,2.58,1.99,2.00,2.00
391.85,0.46,-1.55,0.46,-1.55,1.55,1.94,2.57,2.01,2.01,2.01
395.77,0.53,-1.51,0.53,-1.49,1.49,1.92,2.56,2.02,2.02,2.04
399.73,0.59,-1.46,0.60,-1.44,1.44,1.89,2.56,2.03,2.04,2.04
403.72,0.66,-1.38,0.65,-1.39,1.39,1.88,2.55,2.05,2.04,2.04
407.76,0.71,-1.34,0.70,-1.35,1.35,1.86,2.55,2.06,2.05,2.05
411.84,0.77,-1.29,0.75,-1.31,1.31,1.85,2.55,2.08,2.06,2.06
415.96,0.80,-1.26,0.78,-1.27,1.27,1.84,2.55,2.07,2.06,2.06
420.12,0.83,-1.23,0.81,-1.24,1.24,1.83,2.55,2.07,2.06,2.06
424.32,0.86,-1.20,0.84,-1.22,1.22,1.83,2.55,2.08,2.05,2.06
428.56,0.86,-1.20,0.86,-1.19,1.19,1.82,2.55,2.05,2.05,2.06
432.85,0.87,-1.18,0.87,-1.18,1.18,1.82,2.56,2.05,2.05,2.04
437.18,0.87,-1.17,0.88,-1.16,1.16,1.82,2.56,2.03,2.05,2.04
441.55,0.87,-1.17,0.89,-1.15,1.15,1.83,2.56,2.02,2.04,2.04
445.96,0.86,-1.17,0.90,-1.14,1.14,1.83,2.57,2.00,2.04,2.03
450.42,0.87,-1.16,0.90,-1.14,1.14,1.84,2.57,2.01,2.03,2.03
454.93,0.88,-1.15,0.90,-1.13,1.13,1.85,2.57,2.01,2.03,2.03
459.48,0.88,-1.14,0.89,-1.13,1.13,1.86,2.57,2.01,2.03,2.02
464.07,0.88,-1.15,0.89,-1.14,1.14,1.88,2.58,2.02,2.03,2.03
468.71,0.87,-1.16,0.88,-1.15,1.15,1.89,2.58,2.02,2.03,2.03
473.40,0.85,-1.18,0.86,-1.16,1.16,1.91,2.58,2.01,2.03,2.03
478.13,0.83,-1.21,0.83,-1.19,1.19,1.93,2.57,2.02,2.03,2.04
482.91,0.81,-1.22,0.80,-1.23,1.23,1.96,2.57,2.04,2.03,2.02
487.74,0.76,-1.27,0.75,-1.28,1.28,1.99,2.56,2.04,2.03,2.03
492.62,0.71,-1.33,0.68,-1.35,1.35,2.02,2.56,2.06,2.03,2.04
497.55,0.64,-1.39,0.60,-1.43,1.43,2.05,2.55,2.07,2.04,2.03
502.52,0.56,-1.48,0.50,-1.54,1.54,2.09,2.54,2.10,2.04,2.04
507.55,0.44,-1.60,0.39,-1.66,1.66,2.14,2.53,2.10,2.05,2.04
512.62,0.31,-1.74,0.26,-1.79,1.79,2.18,2.52,2.10,2.05,2.05
517.75,0.15,-1.91,0.12,-1.94,1.94,2.24,2.50,2.09,2.06,2.06
522.93,-0.02,-2.09,-0.04,-2.11,2.11,2.30,2.49,2.09,2.07,2.07
528.16,-0.21,-2.28,-0.21,-2.28,2.28,2.37,2.47,2.07,2.08,2.07
533.44,-0.37,-2.45,-0.38,-2.47,2.47,2.45,2.45,2.10,2.09,2.08
538.77,-0.56,-2.66,-0.57,-2.67,2.67,2.54,2.43,2.11,2.10,2.10
544.16,-0.76,-2.87,-0.76,-2.87,2.87,2.65,2.41,2.11,2.11,2.11
549.60,-0.93,-3.06,-0.94,-3.06,3.06,2.76,2.39,2.13,2.12,2.13
555.10,-1.13,-3.27,-1.12,-3.26,3.26,2.89,2.37,2.13,2.13,2.14
560.65,-1.29,-3.44,-1.29,-3.44,3.44,3.04,2.34,2.15,2.14,2.15
