frequency,raw,error,smoothed,error_smoothed,equalization,parametric_eq,fixed_band_eq,equalized_raw,equalized_smoothed,target
20.00,9.73,1.49,9.72,1.47,-1.47,-1.26,-0.94,8.26,8.25,8.25
20.20,9.71,1.48,9.70,1.47,-1.47,-1.27,-0.96,8.25,8.24,8.24
20.40,9.69,1.47,9.69,1.47,-1.47,-1.29,-0.98,8.23,8.22,8.23
20.61,9.67,1.46,9.68,1.47,-1.47,-1.31,-1.01,8.21,8.21,8.22
20.81,9.66,1.47,9.67,1.47,-1.47,-1.33,-1.03,8.20,8.20,8.20
21.02,9.65,1.47,9.66,1.47,-1.47,-1.34,-1.06,8.18,8.19,8.19
21.23,9.65,1.48,9.66,1.48,-1.48,-1.36,-1.09,8.17,8.18,8.18
21.44,9.65,1.47,9.66,1.49,-1.49,-1.38,-1.11,8.16,8.17,8.19
21.66,9.65,1.49,9.66,1.50,-1.50,-1.40,-1.14,8.15,8.16,8.17
21.87,9.66,1.50,9.67,1.52,-1.52,-1.41,-1.17,8.15,8.15,8.17
22.09,9.67,1.53,9.68,1.53,-1.53,-1.43,-1.20,8.14,8.15,8.15
22.31,9.68,1.55,9.69,1.55,-1.55,-1.45,-1.23,8.13,8.14,8.14
22.54,9.70,1.58,9.71,1.58,-1.58,-1.47,-1.26,8.13,8.13,8.13
22.76,9.72,1.60,9.73,1.61,-1.61,-1.49,-1.29,8.12,8.13,8.13
22.99,9.75,1.64,9.76,1.64,-1.64,-1.51,-1.32,8.12,8.12,8.12
23.22,9.77,1.67,9.78,1.67,-1.67,-1.53,-1.36,8.11,8.12,8.11
23.45,9.80,1.69,9.81,1.70,-1.70,-1.55,-1.39,8.10,8.11,8.12
23.69,9.84,1.74,9.84,1.74,-1.74,-1.57,-1.43,8.11,8.11,8.11
23.92,9.87,1.78,9.87,1.77,-1.77,-1.59,-1.46,8.10,8.10,8.10
24.16,9.90,1.80,9.90,1.80,-1.80,-1.60,-1.50,8.10,8.10,8.11
24.40,9.93,1.83,9.93,1.83,-1.83,-1.62,-1.53,8.10,8.10,8.11
24.65,9.95,1.86,9.95,1.86,-1.86,-1.64,-1.57,8.10,8.09,8.10
24.89,9.98,1.89,9.97,1.88,-1.88,-1.66,-1.61,8.10,8.09,8.10
25.14,10.00,1.92,9.99,1.90,-1.90,-1.68,-1.64,8.11,8.09,8.09
25.39,10.02,1.94,10.00,1.91,-1.91,-1.70,-1.68,8.11,8.09,8.09
25.65,10.03,1.95,10.01,1.92,-1.92,-1.73,-1.72,8.11,8.09,8.09
25.91,10.03,1.95,10.02,1.93,-1.93,-1.75,-1.76,8.10,8.09,8.09
26.16,10.03,1.94,10.02,1.94,-1.94,-1.77,-1.79,8.10,8.09,8.10
26.43,10.02,1.94,10.02,1.94,-1.94,-1.79,-1.83,8.09,8.09,8.09
26.69,10.01,1.93,10.02,1.93,-1.93,-1.81,-1.87,8.08,8.09,8.09
26.96,10.01,1.93,10.02,1.93,-1.93,-1.83,-1.91,8.08,8.09,8.09
27.23,10.00,1.92,10.01,1.92,-1.92,-1.85,-1.94,8.08,8.09,8.09
27.50,10.00,1.92,10.01,1.92,-1.92,-1.87,-1.98,8.09,8.09,8.09
27.77,10.00,1.91,10.01,1.91,-1.91,-1.89,-2.01,8.09,8.09,8.10
28.05,10.00,1.92,10.00,1.91,-1.91,-1.92,-2.05,8.09,8.09,8.09
28.33,10.00,1.91,10.00,1.91,-1.91,-1.94,-2.08,8.09,8.10,8.10
28.62,10.00,1.91,10.01,1.91,-1.91,-1.96,-2.11,8.09,8.10,8.10
28.90,10.01,1.91,10.01,1.92,-1.92,-1.98,-2.15,8.10,8.10,8.11
29.19,10.01,1.91,10.02,1.93,-1.93,-2.00,-2.18,8.09,8.10,8.11
29.48,10.02,1.93,10.04,1.94,-1.94,-2.03,-2.20,8.08,8.09,8.10
29.78,10.04,1.95,10.05,1.96,-1.96,-2.05,-2.23,8.08,8.09,8.10
30.08,10.06,1.97,10.07,1.98,-1.98,-2.07,-2.25,8.08,8.09,8.10
30.38,10.08,2.01,10.09,2.01,-2.01,-2.09,-2.28,8.08,8.09,8.08
30.68,10.10,2.03,10.11,2.03,-2.03,-2.12,-2.30,8.07,8.08,8.08
30.99,10.13,2.06,10.14,2.06,-2.06,-2.14,-2.32,8.07,8.08,8.08
31.30,10.16,2.09,10.16,2.09,-2.09,-2.16,-2.33,8.07,8.07,8.08
31.61,10.19,2.13,10.19,2.13,-2.13,-2.19,-2.35,8.07,8.06,8.07
31.93,10.21,2.17,10.21,2.16,-2.16,-2.21,-2.36,8.06,8.06,8.05
32.24,10.24,2.19,10.24,2.19,-2.19,-2.23,-2.38,8.06,8.05,8.06
32.57,10.26,2.23,10.26,2.22,-2.22,-2.26,-2.39,8.05,8.04,8.04
32.89,10.29,2.26,10.28,2.24,-2.24,-2.28,-2.40,8.05,8.04,8.04
33.22,10.30,2.28,10.30,2.27,-2.27,-2.31,-2.41,8.04,8.03,8.03
33.55,10.32,2.30,10.31,2.29,-2.29,-2.33,-2.41,8.03,8.02,8.03
33.89,10.33,2.32,10.32,2.31,-2.31,-2.35,-2.42,8.03,8.02,8.02
34.23,10.33,2.34,10.33,2.33,-2.33,-2.38,-2.42,8.01,8.01,8.00
34.57,10.34,2.35,10.34,2.34,-2.34,-2.40,-2.43,8.00,8.00,8.00
34.92,10.34,2.37,10.34,2.36,-2.36,-2.43,-2.43,7.99,7.99,7.98
35.27,10.34,2.35,10.35,2.37,-2.37,-2.45,-2.43,7.98,7.98,8.00
35.62,10.34,2.38,10.35,2.38,-2.38,-2.48,-2.44,7.96,7.97,7.97
35.97,10.34,2.38,10.34,2.39,-2.39,-2.50,-2.44,7.95,7.95,7.97
36.33,10.34,2.40,10.34,2.40,-2.40,-2.53,-2.45,7.94,7.94,7.95
36.70,10.33,2.41,10.34,2.42,-2.42,-2.55,-2.45,7.92,7.92,7.93
37.06,10.33,2.43,10.34,2.43,-2.43,-2.58,-2.45,7.90,7.91,7.91
37.43,10.33,2.45,10.34,2.45,-2.45,-2.61,-2.46,7.89,7.89,7.89
37.81,10.33,2.46,10.34,2.47,-2.47,-2.63,-2.47,7.87,7.87,7.88
38.19,10.33,2.49,10.34,2.49,-2.49,-2.66,-2.47,7.85,7.85,7.85
38.57,10.33,2.51,10.33,2.51,-2.51,-2.69,-2.48,7.83,7.83,7.83
38.95,10.33,2.52,10.33,2.53,-2.53,-2.71,-2.49,7.81,7.81,7.82
39.34,10.33,2.55,10.33,2.55,-2.55,-2.74,-2.50,7.79,7.78,7.79
39.74,10.33,2.58,10.33,2.57,-2.57,-2.77,-2.52,7.76,7.76,7.76
40.14,10.33,2.60,10.33,2.59,-2.59,-2.79,-2.53,7.74,7.74,7.74
40.54,10.33,2.62,10.33,2.62,-2.62,-2.82,-2.55,7.72,7.72,7.72
40.94,10.33,2.65,10.33,2.64,-2.64,-2.85,-2.56,7.70,7.70,7.69
41.35,10.33,2.66,10.33,2.66,-2.66,-2.88,-2.58,7.67,7.67,7.68
41.76,10.33,2.69,10.33,2.68,-2.68,-2.90,-2.60,7.65,7.65,7.65
42.18,10.33,2.70,10.33,2.71,-2.71,-2.93,-2.63,7.63,7.63,7.64
42.60,10.33,2.73,10.33,2.73,-2.73,-2.96,-2.65,7.60,7.60,7.61
43.03,10.33,2.75,10.33,2.75,-2.75,-2.99,-2.68,7.58,7.58,7.59
43.46,10.33,2.79,10.33,2.78,-2.78,-3.02,-2.71,7.55,7.55,7.55
43.90,10.33,2.81,10.33,2.80,-2.80,-3.05,-2.74,7.53,7.53,7.53
44.33,10.33,2.84,10.33,2.83,-2.83,-3.07,-2.77,7.50,7.50,7.50
44.78,10.33,2.86,10.33,2.86,-2.86,-3.10,-2.81,7.47,7.47,7.48
45.23,10.33,2.88,10.33,2.89,-2.89,-3.13,-2.85,7.44,7.44,7.46
45.68,10.33,2.93,10.33,2.93,-2.93,-3.16,-2.89,7.41,7.41,7.41
46.13,10.33,2.96,10.33,2.96,-2.96,-3.19,-2.93,7.37,7.37,7.38
46.60,10.33,3.00,10.33,3.00,-3.00,-3.22,-2.97,7.34,7.34,7.34
47.06,10.33,3.03,10.33,3.04,-3.04,-3.25,-3.02,7.30,7.30,7.31
47.53,10.33,3.07,10.33,3.08,-3.08,-3.28,-3.07,7.26,7.26,7.27
48.01,10.33,3.12,10.33,3.12,-3.12,-3.31,-3.12,7.22,7.22,7.22
48.49,10.33,3.16,10.33,3.16,-3.16,-3.35,-3.17,7.18,7.18,7.18
48.97,10.33,3.21,10.33,3.20,-3.20,-3.38,-3.22,7.14,7.14,7.13
49.46,10.33,3.24,10.33,3.24,-3.24,-3.41,-3.28,7.09,7.09,7.10
49.96,10.33,3.30,10.33,3.28,-3.28,-3.44,-3.33,7.05,7.05,7.04
50.46,10.33,3.33,10.33,3.33,-3.33,-3.47,-3.39,7.01,7.01,7.01
50.96,10.33,3.37,10.33,3.37,-3.37,-3.50,-3.45,6.97,6.97,6.97
51.47,10.33,3.41,10.33,3.41,-3.41,-3.54,-3.51,6.92,6.92,6.93
51.99,10.33,3.46,10.33,3.45,-3.45,-3.57,-3.57,6.88,6.88,6.88
52.51,10.33,3.49,10.33,3.49,-3.49,-3.60,-3.63,6.84,6.84,6.85
53.03,10.33,3.52,10.33,3.53,-3.53,-3.63,-3.69,6.80,6.80,6.82
53.56,10.33,3.57,10.33,3.57,-3.57,-3.67,-3.75,6.76,6.76,6.77
54.10,10.33,3.62,10.33,3.61,-3.61,-3.70,-3.81,6.72,6.72,6.72
54.64,10.33,3.66,10.33,3.65,-3.65,-3.73,-3.87,6.68,6.68,6.68
55.18,10.33,3.70,10.33,3.69,-3.69,-3.77,-3.93,6.64,6.64,6.64
55.74,10.33,3.75,10.33,3.73,-3.73,-3.80,-3.99,6.61,6.61,6.59
56.29,10.33,3.77,10.33,3.77,-3.77,-3.84,-4.05,6.57,6.57,6.57
56.86,10.33,3.81,10.33,3.81,-3.81,-3.87,-4.11,6.53,6.53,6.53
57.42,10.33,3.86,10.33,3.85,-3.85,-3.91,-4.16,6.48,6.48,6.48
58.00,10.33,3.90,10.33,3.89,-3.89,-3.94,-4.21,6.44,6.44,6.44
58.58,10.33,3.93,10.33,3.94,-3.94,-3.98,-4.26,6.40,6.40,6.41
59.16,10.33,3.96,10.33,3.98,-3.98,-4.01,-4.31,6.35,6.35,6.38
59.76,10.33,4.01,10.33,4.03,-4.03,-4.05,-4.35,6.31,6.31,6.33
60.35,10.33,4.06,10.33,4.07,-4.07,-4.08,-4.40,6.26,6.26,6.28
60.96,10.33,4.12,10.33,4.12,-4.12,-4.12,-4.44,6.21,6.21,6.22
61.57,10.33,4.18,10.33,4.17,-4.17,-4.16,-4.47,6.16,6.16,6.16
62.18,10.33,4.24,10.33,4.23,-4.23,-4.19,-4.50,6.11,6.10,6.10
62.80,10.33,4.30,10.33,4.28,-4.28,-4.23,-4.53,6.05,6.05,6.04
63.43,10.33,4.35,10.34,4.34,-4.34,-4.27,-4.56,6.00,6.00,5.99
64.07,10.33,4.40,10.34,4.40,-4.40,-4.31,-4.58,5.94,5.94,5.94
64.71,10.33,4.45,10.34,4.45,-4.45,-4.34,-4.60,5.88,5.89,5.89
65.35,10.33,4.51,10.35,4.51,-4.51,-4.38,-4.62,5.82,5.83,5.83
66.01,10.33,4.56,10.35,4.57,-4.57,-4.42,-4.63,5.76,5.78,5.78
66.67,10.34,4.61,10.35,4.63,-4.63,-4.46,-4.64,5.72,5.72,5.74
67.33,10.34,4.68,10.35,4.68,-4.68,-4.50,-4.65,5.66,5.67,5.67
68.01,10.35,4.74,10.35,4.74,-4.74,-4.54,-4.66,5.62,5.61,5.62
68.69,10.36,4.80,10.35,4.79,-4.79,-4.58,-4.67,5.58,5.56,5.57
69.37,10.35,4.84,10.34,4.84,-4.84,-4.62,-4.67,5.52,5.50,5.52
70.07,10.34,4.89,10.33,4.88,-4.88,-4.66,-4.67,5.46,5.45,5.46
70.77,10.33,4.95,10.31,4.93,-4.93,-4.70,-4.68,5.41,5.39,5.39
71.48,10.31,4.98,10.30,4.97,-4.97,-4.74,-4.68,5.35,5.33,5.34
72.19,10.28,5.01,10.28,5.00,-5.00,-4.78,-4.68,5.28,5.27,5.28
72.91,10.25,5.05,10.25,5.03,-5.03,-4.82,-4.69,5.22,5.22,5.21
73.64,10.23,5.08,10.23,5.07,-5.07,-4.86,-4.69,5.17,5.16,5.16
74.38,10.19,5.10,10.20,5.09,-5.09,-4.90,-4.70,5.10,5.10,5.10
75.12,10.16,5.12,10.17,5.12,-5.12,-4.95,-4.70,5.05,5.05,5.05
75.87,10.13,5.14,10.14,5.14,-5.14,-4.99,-4.71,4.99,5.00,5.00
76.63,10.10,5.17,10.11,5.16,-5.16,-5.03,-4.72,4.94,4.94,4.94
77.40,10.07,5.18,10.08,5.19,-5.19,-5.07,-4.73,4.88,4.89,4.90
78.17,10.05,5.22,10.06,5.22,-5.22,-5.11,-4.75,4.84,4.84,4.84
78.95,10.02,5.23,10.04,5.25,-5.25,-5.16,-4.76,4.78,4.79,4.80
79.74,10.01,5.27,10.02,5.28,-5.28,-5.20,-4.78,4.73,4.74,4.75
80.54,9.99,5.30,10.01,5.32,-5.32,-5.24,-4.81,4.67,4.69,4.70
81.35,9.99,5.36,10.01,5.36,-5.36,-5.29,-4.83,4.63,4.64,4.64
82.16,9.98,5.38,10.00,5.41,-5.41,-5.33,-4.86,4.58,4.59,4.61
82.98,9.99,5.45,10.00,5.46,-5.46,-5.38,-4.89,4.53,4.54,4.55
83.81,10.00,5.51,10.00,5.51,-5.51,-5.42,-4.93,4.49,4.49,4.50
84.65,10.01,5.58,10.01,5.57,-5.57,-5.46,-4.97,4.44,4.44,4.44
85.50,10.01,5.64,10.01,5.63,-5.63,-5.51,-5.01,4.38,4.38,4.38
86.35,10.01,5.69,10.02,5.69,-5.69,-5.55,-5.06,4.33,4.33,4.33
87.22,10.02,5.75,10.02,5.75,-5.75,-5.60,-5.11,4.28,4.27,4.28
88.09,10.02,5.81,10.02,5.81,-5.81,-5.64,-5.16,4.22,4.22,4.22
88.97,10.03,5.88,10.02,5.86,-5.86,-5.69,-5.22,4.17,4.16,4.16
89.86,10.03,5.93,10.02,5.92,-5.92,-5.73,-5.28,4.12,4.10,4.11
90.76,10.02,5.98,10.01,5.97,-5.97,-5.78,-5.35,4.06,4.04,4.05
91.66,10.01,6.04,10.00,6.02,-6.02,-5.82,-5.42,4.00,3.98,3.98
92.58,9.99,6.07,9.98,6.06,-6.06,-5.87,-5.49,3.93,3.92,3.93
93.51,9.97,6.10,9.97,6.10,-6.10,-5.92,-5.57,3.87,3.86,3.88
94.44,9.95,6.14,9.94,6.14,-6.14,-5.96,-5.65,3.81,3.80,3.82
95.39,9.92,6.18,9.92,6.18,-6.18,-6.01,-5.74,3.75,3.74,3.75
96.34,9.89,6.22,9.89,6.21,-6.21,-6.05,-5.82,3.68,3.68,3.68
97.30,9.86,6.25,9.86,6.24,-6.24,-6.10,-5.91,3.62,3.62,3.62
98.28,9.83,6.29,9.83,6.28,-6.28,-6.15,-6.01,3.56,3.56,3.55
99.26,9.80,6.32,9.80,6.31,-6.31,-6.19,-6.11,3.50,3.50,3.49
100.25,9.77,6.35,9.78,6.34,-6.34,-6.24,-6.21,3.43,3.44,3.43
101.25,9.74,6.37,9.76,6.38,-6.38,-6.29,-6.31,3.36,3.38,3.38
102.27,9.72,6.41,9.74,6.42,-6.42,-6.33,-6.41,3.30,3.32,3.32
103.29,9.70,6.45,9.73,6.46,-6.46,-6.38,-6.52,3.24,3.26,3.26
104.32,9.68,6.48,9.71,6.51,-6.51,-6.43,-6.63,3.17,3.20,3.21
105.37,9.67,6.53,9.70,6.56,-6.56,-6.47,-6.73,3.12,3.15,3.15
106.42,9.67,6.58,9.70,6.60,-6.60,-6.52,-6.84,3.07,3.09,3.10
107.48,9.68,6.65,9.69,6.65,-6.65,-6.56,-6.95,3.03,3.03,3.04
108.56,9.69,6.71,9.68,6.71,-6.71,-6.61,-7.06,2.99,2.98,2.99
109.64,9.70,6.78,9.68,6.76,-6.76,-6.66,-7.16,2.95,2.92,2.93
110.74,9.69,6.83,9.67,6.81,-6.81,-6.70,-7.27,2.89,2.86,2.87
111.85,9.68,6.88,9.66,6.85,-6.85,-6.75,-7.37,2.83,2.80,2.81
112.97,9.66,6.91,9.64,6.90,-6.90,-6.79,-7.47,2.77,2.74,2.76
114.10,9.64,6.95,9.62,6.94,-6.94,-6.84,-7.56,2.70,2.68,2.70
115.24,9.61,7.00,9.60,6.98,-6.98,-6.89,-7.65,2.64,2.63,2.62
116.39,9.58,7.03,9.58,7.01,-7.01,-6.93,-7.73,2.57,2.57,2.56
117.55,9.55,7.06,9.55,7.04,-7.04,-6.98,-7.81,2.51,2.51,2.50
118.73,9.52,7.09,9.53,7.07,-7.07,-7.02,-7.88,2.45,2.45,2.44
119.92,9.49,7.10,9.50,7.10,-7.10,-7.06,-7.94,2.39,2.40,2.40
121.12,9.46,7.12,9.47,7.13,-7.13,-7.11,-8.00,2.33,2.34,2.35
122.33,9.43,7.15,9.45,7.16,-7.16,-7.15,-8.04,2.27,2.28,2.29
123.55,9.40,7.17,9.43,7.20,-7.20,-7.20,-8.08,2.20,2.23,2.24
124.79,9.38,7.20,9.41,7.24,-7.24,-7.24,-8.11,2.15,2.17,2.19
126.03,9.37,7.25,9.40,7.28,-7.28,-7.28,-8.13,2.10,2.12,2.13
127.29,9.36,7.29,9.38,7.32,-7.32,-7.32,-8.14,2.05,2.06,2.08
128.57,9.36,7.36,9.37,7.36,-7.36,-7.37,-8.14,2.00,2.01,2.01
129.85,9.36,7.41,9.36,7.40,-7.40,-7.41,-8.13,1.96,1.96,1.96
131.15,9.36,7.47,9.35,7.44,-7.44,-7.45,-8.12,1.92,1.90,1.90
132.46,9.35,7.51,9.33,7.49,-7.49,-7.49,-8.10,1.87,1.85,1.85
133.79,9.34,7.56,9.32,7.53,-7.53,-7.53,-8.07,1.82,1.79,1.79
135.12,9.32,7.59,9.30,7.57,-7.57,-7.57,-8.04,1.76,1.74,1.74
136.48,9.30,7.62,9.29,7.60,-7.60,-7.61,-8.00,1.70,1.68,1.69
137.84,9.27,7.64,9.27,7.63,-7.63,-7.65,-7.95,1.64,1.63,1.64
139.22,9.24,7.67,9.24,7.66,-7.66,-7.68,-7.90,1.58,1.58,1.58
140.61,9.21,7.68,9.22,7.69,-7.69,-7.72,-7.85,1.53,1.53,1.54
142.02,9.18,7.71,9.19,7.71,-7.71,-7.76,-7.80,1.48,1.49,1.48
143.44,9.15,7.72,9.17,7.73,-7.73,-7.79,-7.74,1.43,1.44,1.44
144.87,9.13,7.74,9.14,7.75,-7.75,-7.83,-7.68,1.39,1.39,1.40
146.32,9.10,7.76,9.11,7.76,-7.76,-7.86,-7.62,1.34,1.35,1.35
147.78,9.08,7.78,9.09,7.78,-7.78,-7.89,-7.57,1.30,1.30,1.31
149.26,9.06,7.81,9.07,7.81,-7.81,-7.93,-7.51,1.26,1.26,1.26
150.75,9.04,7.83,9.05,7.83,-7.83,-7.96,-7.45,1.22,1.22,1.22
152.26,9.01,7.84,9.02,7.85,-7.85,-7.99,-7.40,1.16,1.17,1.18
153.78,8.99,7.86,9.00,7.87,-7.87,-8.02,-7.35,1.12,1.13,1.14
155.32,8.97,7.88,8.98,7.90,-7.90,-8.04,-7.30,1.08,1.09,1.10
156.88,8.95,7.91,8.96,7.92,-7.92,-8.07,-7.25,1.04,1.04,1.05
158.44,8.94,7.95,8.94,7.94,-7.94,-8.10,-7.21,1.01,1.00,1.00
160.03,8.92,7.97,8.91,7.95,-7.95,-8.12,-7.17,0.97,0.95,0.96
161.63,8.90,7.99,8.88,7.97,-7.97,-8.15,-7.14,0.94,0.91,0.92
163.24,8.87,8.01,8.85,7.98,-7.98,-8.17,-7.11,0.89,0.86,0.87
164.88,8.83,8.02,8.81,7.99,-7.99,-8.19,-7.08,0.84,0.82,0.82
166.53,8.79,8.03,8.78,8.01,-8.01,-8.21,-7.06,0.79,0.77,0.77
168.19,8.74,8.01,8.75,8.02,-8.02,-8.23,-7.05,0.72,0.72,0.74
169.87,8.70,8.03,8.71,8.04,-8.04,-8.25,-7.04,0.67,0.68,0.68
171.57,8.65,8.03,8.68,8.05,-8.05,-8.27,-7.03,0.60,0.63,0.63
173.29,8.61,8.03,8.64,8.06,-8.06,-8.28,-7.03,0.55,0.58,0.59
175.02,8.57,8.04,8.61,8.07,-8.07,-8.30,-7.04,0.50,0.54,0.54
176.77,8.55,8.07,8.57,8.08,-8.08,-8.31,-7.05,0.47,0.49,0.49
178.54,8.53,8.09,8.53,8.09,-8.09,-8.32,-7.06,0.44,0.44,0.45
180.32,8.51,8.13,8.50,8.10,-8.10,-8.33,-7.08,0.41,0.40,0.39
182.13,8.49,8.14,8.47,8.12,-8.12,-8.34,-7.11,0.38,0.35,0.36
183.95,8.46,8.16,8.44,8.14,-8.14,-8.35,-7.14,0.33,0.30,0.31
185.79,8.42,8.17,8.41,8.15,-8.15,-8.35,-7.17,0.27,0.26,0.26
187.65,8.38,8.17,8.38,8.17,-8.17,-8.36,-7.22,0.21,0.21,0.22
189.52,8.34,8.17,8.36,8.18,-8.18,-8.36,-7.26,0.16,0.17,0.18
191.42,8.30,8.17,8.33,8.20,-8.20,-8.36,-7.31,0.11,0.13,0.14
193.33,8.27,8.18,8.30,8.21,-8.21,-8.36,-7.37,0.06,0.09,0.10
195.27,8.25,8.21,8.27,8.22,-8.22,-8.36,-7.43,0.04,0.05,0.05
197.22,8.24,8.25,8.23,8.22,-8.22,-8.35,-7.49,0.02,0.01,-0.00
199.19,8.22,8.26,8.20,8.23,-8.23,-8.35,-7.56,-0.00,-0.03,-0.03
201.18,8.18,8.26,8.17,8.23,-8.23,-8.34,-7.63,-0.04,-0.06,-0.07
203.19,8.14,8.25,8.13,8.23,-8.23,-8.33,-7.70,-0.09,-0.10,-0.10
205.23,8.10,8.23,8.10,8.23,-8.23,-8.32,-7.78,-0.13,-0.13,-0.12
207.28,8.06,8.22,8.07,8.23,-8.23,-8.31,-7.86,-0.17,-0.16,-0.15
209.35,8.02,8.22,8.04,8.23,-8.23,-8.30,-7.94,-0.21,-0.20,-0.19
211.44,7.99,8.22,8.00,8.23,-8.23,-8.29,-8.03,-0.23,-0.23,-0.22
213.56,7.95,8.20,7.96,8.22,-8.22,-8.27,-8.11,-0.26,-0.25,-0.24
215.69,7.91,8.19,7.92,8.20,-8.20,-8.25,-8.19,-0.29,-0.28,-0.27
217.85,7.87,8.18,7.88,8.19,-8.19,-8.23,-8.27,-0.31,-0.31,-0.30
220.03,7.84,8.18,7.84,8.17,-8.17,-8.21,-8.36,-0.32,-0.33,-0.33
222.23,7.80,8.17,7.79,8.15,-8.15,-8.19,-8.43,-0.34,-0.35,-0.36
224.45,7.77,8.15,7.75,8.13,-8.13,-8.17,-8.51,-0.35,-0.38,-0.37
226.70,7.72,8.13,7.71,8.11,-8.11,-8.14,-8.58,-0.38,-0.40,-0.40
228.96,7.67,8.09,7.66,8.08,-8.08,-8.11,-8.65,-0.41,-0.42,-0.41
231.25,7.61,8.05,7.61,8.05,-8.05,-8.09,-8.71,-0.44,-0.44,-0.43
233.57,7.55,8.01,7.57,8.02,-8.02,-8.06,-8.76,-0.47,-0.45,-0.45
235.90,7.50,7.97,7.52,7.99,-7.99,-8.03,-8.80,-0.48,-0.47,-0.46
238.26,7.45,7.95,7.47,7.95,-7.95,-7.99,-8.84,-0.50,-0.48,-0.49
240.64,7.41,7.90,7.42,7.91,-7.91,-7.96,-8.86,-0.50,-0.49,-0.48
243.05,7.37,7.88,7.37,7.87,-7.87,-7.93,-8.88,-0.50,-0.50,-0.50
245.48,7.33,7.85,7.33,7.83,-7.83,-7.89,-8.89,-0.50,-0.51,-0.51
247.93,7.28,7.81,7.28,7.79,-7.79,-7.85,-8.88,-0.51,-0.52,-0.52
250.41,7.23,7.75,7.23,7.75,-7.75,-7.81,-8.87,-0.52,-0.52,-0.51
252.92,7.18,7.71,7.19,7.71,-7.71,-7.77,-8.84,-0.53,-0.53,-0.52
255.45,7.13,7.67,7.15,7.68,-7.68,-7.73,-8.80,-0.54,-0.53,-0.53
258.00,7.09,7.63,7.10,7.64,-7.64,-7.69,-8.75,-0.55,-0.54,-0.53
260.58,7.06,7.60,7.06,7.60,-7.60,-7.65,-8.69,-0.54,-0.54,-0.53
263.19,7.02,7.56,7.02,7.56,-7.56,-7.60,-8.62,-0.54,-0.54,-0.53
265.82,6.98,7.53,6.97,7.52,-7.52,-7.55,-8.54,-0.53,-0.54,-0.54
268.48,6.93,7.48,6.93,7.47,-7.47,-7.51,-8.45,-0.54,-0.55,-0.54
271.16,6.88,7.43,6.88,7.43,-7.43,-7.46,-8.36,-0.55,-0.55,-0.54
273.87,6.84,7.39,6.83,7.38,-7.38,-7.41,-8.25,-0.54,-0.55,-0.54
276.61,6.80,7.35,6.79,7.34,-7.34,-7.36,-8.14,-0.54,-0.55,-0.54
279.38,6.76,7.33,6.75,7.30,-7.30,-7.31,-8.03,-0.54,-0.55,-0.56
282.17,6.71,7.28,6.71,7.26,-7.26,-7.26,-7.91,-0.54,-0.55,-0.56
284.99,6.65,7.21,6.67,7.22,-7.22,-7.21,-7.79,-0.56,-0.55,-0.55
287.84,6.61,7.16,6.63,7.18,-7.18,-7.15,-7.66,-0.56,-0.55,-0.54
290.72,6.57,7.13,6.59,7.14,-7.14,-7.10,-7.54,-0.56,-0.55,-0.55
293.63,6.53,7.08,6.56,7.10,-7.10,-7.04,-7.41,-0.57,-0.54,-0.54
296.57,6.51,7.05,6.53,7.07,-7.07,-6.99,-7.28,-0.56,-0.54,-0.53
299.53,6.49,7.03,6.51,7.04,-7.04,-6.93,-7.15,-0.55,-0.53,-0.53
302.53,6.48,7.00,6.49,7.01,-7.01,-6.88,-7.03,-0.53,-0.53,-0.51
305.55,6.47,7.00,6.47,6.99,-6.99,-6.82,-6.90,-0.52,-0.52,-0.52
308.61,6.45,6.97,6.45,6.97,-6.97,-6.76,-6.78,-0.51,-0.51,-0.51
311.69,6.44,6.95,6.44,6.94,-6.94,-6.70,-6.65,-0.50,-0.51,-0.50
314.81,6.42,6.93,6.43,6.92,-6.92,-6.64,-6.53,-0.50,-0.50,-0.50
317.96,6.41,6.91,6.41,6.91,-6.91,-6.58,-6.42,-0.49,-0.49,-0.49
321.14,6.39,6.88,6.40,6.88,-6.88,-6.52,-6.30,-0.49,-0.48,-0.48
324.35,6.38,6.87,6.38,6.86,-6.86,-6.46,-6.19,-0.47,-0.48,-0.48
327.59,6.37,6.83,6.36,6.83,-6.83,-6.40,-6.09,-0.46,-0.47,-0.45
330.87,6.35,6.82,6.34,6.80,-6.80,-6.34,-5.98,-0.45,-0.46,-0.46
334.18,6.32,6.78,6.31,6.76,-6.76,-6.28,-5.88,-0.44,-0.45,-0.45
337.52,6.28,6.74,6.28,6.73,-6.73,-6.22,-5.79,-0.44,-0.45,-0.45
340.90,6.24,6.68,6.25,6.68,-6.68,-6.16,-5.69,-0.44,-0.44,-0.43
344.30,6.21,6.64,6.21,6.64,-6.64,-6.10,-5.61,-0.43,-0.43,-0.42
347.75,6.17,6.60,6.17,6.59,-6.59,-6.03,-5.52,-0.42,-0.42,-0.42
351.23,6.12,6.55,6.13,6.54,-6.54,-5.97,-5.44,-0.42,-0.41,-0.42
354.74,6.07,6.47,6.08,6.49,-6.49,-5.91,-5.37,-0.42,-0.41,-0.39
358.28,6.02,6.43,6.03,6.43,-6.43,-5.84,-5.30,-0.41,-0.40,-0.40
361.87,5.97,6.37,5.98,6.37,-6.37,-5.78,-5.23,-0.40,-0.39,-0.39
365.49,5.92,6.31,5.92,6.30,-6.30,-5.72,-5.16,-0.38,-0.38,-0.38
369.14,5.86,6.23,5.86,6.23,-6.23,-5.65,-5.10,-0.37,-0.37,-0.36
372.83,5.80,6.17,5.80,6.16,-6.16,-5.59,-5.05,-0.36,-0.37,-0.36
376.56,5.75,6.12,5.73,6.09,-6.09,-5.53,-5.00,-0.34,-0.36,-0.36
380.33,5.68,6.04,5.67,6.02,-6.02,-5.46,-4.95,-0.33,-0.35,-0.35
384.13,5.61,5.95,5.60,5.94,-5.94,-5.40,-4.90,-0.32,-0.34,-0.33
387.97,5.52,5.86,5.53,5.86,-5.86,-5.34,-4.86,-0.33,-0.33,-0.33
391.85,5.44,5.77,5.46,5.78,-5.78,-5.27,-4.82,-0.33,-0.32,-0.32
395.77,5.36,5.68,5.38,5.69,-5.69,-5.21,-4.78,-0.33,-0.31,-0.31
399.73,5.30,5.61,5.31,5.61,-5.61,-5.15,-4.75,-0.31,-0.30,-0.30
403.72,5.23,5.51,5.24,5.53,-5.53,-5.08,-4.72,-0.29,-0.29,-0.27
407.76,5.16,5.45,5.17,5.45,-5.45,-5.02,-4.69,-0.28,-0.28,-0.28
411.84,5.09,5.37,5.10,5.37,-5.37,-4.95,-4.67,-0.27,-0.27,-0.27
415.96,5.01,5.27,5.03,5.29,-5.29,-4.89,-4.64,-0.27,-0.26,-0.25
420.12,4.95,5.21,4.96,5.21,-5.21,-4.83,-4.62,-0.26,-0.25,-0.25
424.32,4.89,5.14,4.89,5.14,-5.14,-4.76,-4.60,-0.24,-0.24,-0.24
428.56,4.83,5.06,4.83,5.06,-5.06,-4.70,-4.58,-0.23,-0.23,-0.22
432.85,4.76,4.98,4.77,4.99,-4.99,-4.64,-4.56,-0.23,-0.22,-0.21
437.18,4.69,4.92,4.71,4.92,-4.92,-4.58,-4.54,-0.23,-0.22,-0.22
441.55,4.64,4.86,4.64,4.85,-4.85,-4.51,-4.52,-0.21,-0.21,-0.21
445.96,4.59,4.80,4.58,4.78,-4.78,-4.45,-4.51,-0.18,-0.20,-0.20
450.42,4.53,4.73,4.52,4.71,-4.71,-4.39,-4.49,-0.17,-0.19,-0.19
454.93,4.46,4.65,4.46,4.64,-4.64,-4.33,-4.47,-0.17,-0.18,-0.18
459.48,4.39,4.57,4.40,4.57,-4.57,-4.26,-4.44,-0.18,-0.17,-0.17
464.07,4.33,4.49,4.34,4.50,-4.50,-4.20,-4.42,-0.17,-0.16,-0.15
468.71,4.28,4.43,4.28,4.43,-4.43,-4.14,-4.40,-0.15,-0.15,-0.14
473.40,4.21,4.36,4.22,4.36,-4.36,-4.08,-4.37,-0.15,-0.14,-0.14
478.13,4.15,4.29,4.16,4.29,-4.29,-4.01,-4.34,-0.14,-0.13,-0.13
482.91,4.08,4.21,4.10,4.22,-4.22,-3.95,-4.31,-0.14,-0.12,-0.12
487.74,4.02,4.14,4.04,4.15,-4.15,-3.89,-4.27,-0.13,-0.11,-0.11
492.62,3.98,4.09,3.98,4.08,-4.08,-3.83,-4.24,-0.10,-0.10,-0.10
497.55,3.93,4.03,3.93,4.01,-4.01,-3.77,-4.20,-0.08,-0.09,-0.09
