frequency,raw,error,smoothed,error_smoothed,equalization,parametric_eq,fixed_band_eq,equalized_raw,equalized_smoothed,target
20.00,-3.20,-9.93,-3.21,-9.93,9.91,9.13,4.04,6.70,6.70,6.72
20.20,-3.14,-9.86,-3.14,-9.86,9.85,9.11,4.15,6.70,6.70,6.71
20.40,-3.08,-9.79,-3.08,-9.79,9.79,9.09,4.26,6.70,6.71,6.70
20.61,-3.03,-9.73,-3.02,-9.72,9.73,9.07,4.37,6.71,6.71,6.70
20.81,-2.96,-9.65,-2.96,-9.65,9.68,9.06,4.49,6.71,6.71,6.68
21.02,-2.90,-9.59,-2.91,-9.60,9.62,9.04,4.61,6.72,6.71,6.68
21.23,-2.87,-9.55,-2.88,-9.56,9.58,9.02,4.74,6.70,6.70,6.67
21.44,-2.85,-9.54,-2.85,-9.53,9.53,9.00,4.87,6.68,6.68,6.68
21.66,-2.83,-9.51,-2.83,-9.50,9.49,8.98,5.00,6.66,6.66,6.67
21.87,-2.80,-9.47,-2.81,-9.47,9.46,8.96,5.13,6.65,6.65,6.66
22.09,-2.77,-9.43,-2.78,-9.43,9.42,8.94,5.27,6.65,6.64,6.65
22.31,-2.74,-9.40,-2.74,-9.39,9.38,8.92,5.42,6.64,6.64,6.65
22.54,-2.70,-9.35,-2.70,-9.35,9.34,8.90,5.56,6.64,6.64,6.64
22.76,-2.66,-9.30,-2.66,-9.30,9.30,8.88,5.71,6.64,6.64,6.63
22.99,-2.62,-9.25,-2.63,-9.25,9.26,8.86,5.87,6.64,6.63,6.62
23.22,-2.59,-9.21,-2.59,-9.21,9.22,8.83,6.03,6.63,6.63,6.61
23.45,-2.56,-9.19,-2.56,-9.18,9.19,8.81,6.19,6.62,6.62,6.62
23.69,-2.53,-9.15,-2.53,-9.15,9.16,8.79,6.35,6.62,6.62,6.61
23.92,-2.50,-9.12,-2.50,-9.12,9.13,8.77,6.52,6.63,6.63,6.61
24.16,-2.47,-9.10,-2.48,-9.10,9.10,8.75,6.70,6.63,6.63,6.62
24.40,-2.45,-9.09,-2.45,-9.08,9.07,8.73,6.87,6.62,6.62,6.63
24.65,-2.42,-9.06,-2.43,-9.06,9.04,8.71,7.05,6.62,6.61,6.63
24.89,-2.40,-9.04,-2.40,-9.03,9.01,8.68,7.23,6.60,6.61,6.63
25.14,-2.36,-8.99,-2.36,-8.99,8.97,8.66,7.42,6.61,6.61,6.62
25.39,-2.31,-8.94,-2.31,-8.94,8.94,8.64,7.61,6.63,6.63,6.62
25.65,-2.26,-8.89,-2.26,-8.89,8.92,8.62,7.80,6.65,6.65,6.62
25.91,-2.21,-8.85,-2.22,-8.86,8.89,8.59,7.99,6.67,6.67,6.63
26.16,-2.19,-8.84,-2.20,-8.84,8.86,8.57,8.18,6.67,6.66,6.64
26.43,-2.19,-8.84,-2.19,-8.84,8.83,8.55,8.38,6.64,6.64,6.64
26.69,-2.19,-8.84,-2.19,-8.84,8.81,8.52,8.57,6.61,6.61,6.64
26.96,-2.19,-8.83,-2.18,-8.82,8.78,8.50,8.76,6.59,6.60,6.63
27.23,-2.14,-8.78,-2.15,-8.78,8.76,8.48,8.95,6.61,6.61,6.63
27.50,-2.09,-8.73,-2.09,-8.73,8.73,8.45,9.14,6.64,6.64,6.63
27.77,-2.03,-8.68,-2.04,-8.68,8.71,8.43,9.32,6.67,6.67,6.64
28.05,-1.99,-8.64,-2.01,-8.64,8.68,8.41,9.49,6.68,6.67,6.64
28.33,-1.99,-8.62,-1.99,-8.63,8.64,8.38,9.66,6.65,6.65,6.62
28.62,-1.99,-8.62,-1.99,-8.62,8.61,8.36,9.82,6.62,6.62,6.62
28.90,-1.99,-8.63,-1.98,-8.61,8.58,8.33,9.97,6.58,6.59,6.63
29.19,-1.95,-8.59,-1.95,-8.58,8.55,8.31,10.11,6.59,6.60,6.63
29.48,-1.89,-8.52,-1.89,-8.52,8.52,8.28,10.23,6.62,6.62,6.62
29.78,-1.83,-8.46,-1.84,-8.47,8.49,8.26,10.35,6.65,6.65,6.62
30.08,-1.79,-8.43,-1.80,-8.43,8.45,8.23,10.44,6.66,6.65,6.63
30.38,-1.78,-8.41,-1.78,-8.40,8.42,8.21,10.52,6.63,6.63,6.62
30.68,-1.77,-8.38,-1.77,-8.38,8.38,8.18,10.58,6.61,6.61,6.60
30.99,-1.76,-8.37,-1.76,-8.36,8.35,8.16,10.63,6.59,6.59,6.60
31.30,-1.74,-8.34,-1.74,-8.34,8.33,8.13,10.64,6.59,6.59,6.59
31.61,-1.72,-8.31,-1.72,-8.31,8.32,8.10,10.65,6.59,6.59,6.58
31.93,-1.70,-8.28,-1.71,-8.28,8.30,8.08,10.63,6.59,6.59,6.57
32.24,-1.69,-8.27,-1.70,-8.27,8.27,8.05,10.60,6.58,6.57,6.57
32.57,-1.69,-8.25,-1.70,-8.26,8.24,8.02,10.55,6.54,6.54,6.55
32.89,-1.69,-8.25,-1.68,-8.24,8.20,8.00,10.49,6.51,6.52,6.55
33.22,-1.65,-8.21,-1.64,-8.19,8.17,7.97,10.40,6.51,6.52,6.55
33.55,-1.58,-8.13,-1.58,-8.13,8.13,7.94,10.31,6.55,6.55,6.54
33.89,-1.51,-8.07,-1.53,-8.08,8.11,7.91,10.20,6.59,6.58,6.55
34.23,-1.49,-8.03,-1.50,-8.04,8.08,7.89,10.08,6.59,6.59,6.53
34.57,-1.49,-8.03,-1.49,-8.02,8.06,7.86,9.95,6.56,6.57,6.53
34.92,-1.49,-8.02,-1.49,-8.02,8.03,7.83,9.81,6.54,6.54,6.52
35.27,-1.49,-8.03,-1.50,-8.03,8.00,7.80,9.67,6.51,6.50,6.53
35.62,-1.49,-8.01,-1.50,-8.02,7.97,7.77,9.52,6.47,6.47,6.51
35.97,-1.49,-8.01,-1.47,-7.98,7.94,7.74,9.37,6.44,6.46,6.51
36.33,-1.42,-7.92,-1.42,-7.92,7.90,7.71,9.22,6.48,6.48,6.49
36.70,-1.35,-7.84,-1.36,-7.84,7.86,7.68,9.06,6.50,6.50,6.48
37.06,-1.29,-7.76,-1.31,-7.78,7.81,7.65,8.91,6.52,6.50,6.46
37.43,-1.29,-7.74,-1.29,-7.73,7.77,7.62,8.76,6.47,6.48,6.44
37.81,-1.29,-7.72,-1.29,-7.71,7.73,7.59,8.60,6.43,6.44,6.42
38.19,-1.29,-7.69,-1.29,-7.69,7.69,7.56,8.45,6.40,6.40,6.39
38.57,-1.29,-7.67,-1.29,-7.66,7.66,7.53,8.30,6.37,6.37,6.37
38.95,-1.29,-7.64,-1.29,-7.64,7.63,7.50,8.16,6.34,6.34,6.34
39.34,-1.29,-7.60,-1.30,-7.61,7.60,7.46,8.01,6.31,6.30,6.30
39.74,-1.29,-7.58,-1.29,-7.57,7.56,7.43,7.88,6.27,6.27,6.28
40.14,-1.28,-7.54,-1.28,-7.53,7.51,7.40,7.74,6.23,6.23,6.25
40.54,-1.24,-7.48,-1.25,-7.48,7.46,7.36,7.61,6.21,6.21,6.23
40.94,-1.20,-7.41,-1.20,-7.41,7.40,7.33,7.48,6.20,6.20,6.20
41.35,-1.15,-7.34,-1.15,-7.33,7.34,7.30,7.36,6.19,6.19,6.18
41.76,-1.11,-7.26,-1.12,-7.27,7.29,7.26,7.25,6.18,6.17,6.14
42.18,-1.08,-7.21,-1.09,-7.22,7.24,7.22,7.14,6.16,6.15,6.12
42.60,-1.08,-7.19,-1.08,-7.18,7.19,7.19,7.03,6.11,6.11,6.10
43.03,-1.08,-7.16,-1.08,-7.16,7.16,7.15,6.93,6.07,6.08,6.07
43.46,-1.08,-7.13,-1.08,-7.13,7.13,7.12,6.83,6.04,6.04,6.04
43.90,-1.08,-7.11,-1.08,-7.10,7.10,7.08,6.74,6.02,6.02,6.02
44.33,-1.08,-7.07,-1.08,-7.07,7.07,7.04,6.65,5.99,5.99,5.98
44.78,-1.08,-7.04,-1.08,-7.05,7.04,7.00,6.57,5.96,5.96,5.95
45.23,-1.08,-7.03,-1.09,-7.02,7.00,6.96,6.49,5.92,5.91,5.94
45.68,-1.08,-6.98,-1.08,-6.98,6.96,6.92,6.42,5.87,5.88,5.89
46.13,-1.07,-6.93,-1.06,-6.92,6.91,6.88,6.35,5.84,5.85,5.85
46.60,-1.02,-6.85,-1.03,-6.85,6.86,6.84,6.29,5.84,5.83,5.82
47.06,-0.98,-6.77,-1.00,-6.79,6.81,6.80,6.23,5.82,5.81,5.78
47.53,-0.98,-6.74,-0.98,-6.73,6.74,6.75,6.17,5.76,5.76,5.75
48.01,-0.98,-6.68,-0.98,-6.68,6.68,6.71,6.12,5.69,5.69,5.69
48.49,-0.98,-6.63,-0.99,-6.64,6.61,6.66,6.08,5.63,5.62,5.64
48.97,-0.98,-6.59,-0.96,-6.57,6.54,6.62,6.03,5.56,5.58,5.60
49.46,-0.93,-6.50,-0.93,-6.49,6.48,6.57,5.99,5.55,5.55,5.56
49.96,-0.88,-6.38,-0.90,-6.41,6.43,6.52,5.96,5.54,5.52,5.49
50.46,-0.88,-6.34,-0.88,-6.34,6.37,6.48,5.93,5.49,5.49,5.45
50.96,-0.88,-6.30,-0.88,-6.29,6.32,6.43,5.90,5.43,5.44,5.41
51.47,-0.88,-6.26,-0.88,-6.25,6.26,6.38,5.87,5.37,5.37,5.37
51.99,-0.88,-6.21,-0.89,-6.22,6.20,6.32,5.84,5.31,5.31,5.32
52.51,-0.88,-6.17,-0.88,-6.17,6.14,6.27,5.82,5.25,5.25,5.28
53.03,-0.88,-6.14,-0.86,-6.10,6.08,6.22,5.80,5.20,5.22,5.25
53.56,-0.82,-6.02,-0.83,-6.03,6.02,6.16,5.78,5.20,5.19,5.19
54.10,-0.78,-5.93,-0.80,-5.95,5.96,6.11,5.76,5.18,5.16,5.14
54.64,-0.78,-5.89,-0.78,-5.87,5.90,6.05,5.74,5.12,5.12,5.10
55.18,-0.78,-5.83,-0.78,-5.83,5.84,5.99,5.72,5.06,5.06,5.04
55.74,-0.78,-5.78,-0.78,-5.79,5.79,5.93,5.70,5.00,5.00,4.99
56.29,-0.78,-5.75,-0.78,-5.74,5.74,5.87,5.68,4.96,4.96,4.96
56.86,-0.78,-5.71,-0.78,-5.70,5.70,5.81,5.66,4.92,4.92,4.92
57.42,-0.78,-5.65,-0.78,-5.66,5.67,5.75,5.64,4.88,4.88,4.86
58.00,-0.78,-5.62,-0.78,-5.62,5.63,5.68,5.62,4.85,4.85,4.83
58.58,-0.78,-5.59,-0.78,-5.59,5.59,5.62,5.59,4.80,4.80,4.80
59.16,-0.78,-5.55,-0.78,-5.55,5.54,5.55,5.56,4.75,4.75,4.76
59.76,-0.78,-5.51,-0.79,-5.51,5.48,5.49,5.53,4.70,4.69,4.72
60.35,-0.78,-5.44,-0.78,-5.45,5.42,5.42,5.49,4.63,4.63,4.65
60.96,-0.78,-5.39,-0.76,-5.36,5.35,5.35,5.45,4.57,4.59,4.60
61.57,-0.72,-5.26,-0.73,-5.26,5.27,5.28,5.41,4.55,4.54,4.53
62.18,-0.68,-5.15,-0.70,-5.17,5.19,5.21,5.36,4.51,4.49,4.46
62.80,-0.68,-5.09,-0.69,-5.09,5.10,5.14,5.31,4.42,4.42,4.40
63.43,-0.68,-5.03,-0.68,-5.02,5.02,5.07,5.26,4.33,4.34,4.34
64.07,-0.67,-4.97,-0.66,-4.95,4.93,5.00,5.20,4.26,4.28,4.29
64.71,-0.61,-4.85,-0.62,-4.86,4.86,4.93,5.13,4.24,4.23,4.23
65.35,-0.58,-4.76,-0.60,-4.77,4.78,4.86,5.07,4.20,4.19,4.17
66.01,-0.58,-4.70,-0.58,-4.70,4.71,4.78,4.99,4.13,4.14,4.11
66.67,-0.58,-4.66,-0.58,-4.64,4.65,4.71,4.92,4.06,4.07,4.07
67.33,-0.58,-4.58,-0.58,-4.59,4.58,4.64,4.84,4.00,4.00,3.99
68.01,-0.58,-4.53,-0.58,-4.53,4.52,4.57,4.76,3.94,3.94,3.94
68.69,-0.58,-4.46,-0.58,-4.46,4.46,4.50,4.68,3.87,3.87,3.87
69.37,-0.58,-4.41,-0.58,-4.40,4.40,4.43,4.59,3.81,3.81,3.82
70.07,-0.58,-4.34,-0.58,-4.34,4.34,4.37,4.50,3.75,3.75,3.75
70.77,-0.58,-4.28,-0.58,-4.28,4.27,4.30,4.41,3.69,3.69,3.69
71.48,-0.58,-4.21,-0.58,-4.21,4.21,4.23,4.32,3.62,3.62,3.62
72.19,-0.58,-4.14,-0.58,-4.14,4.14,4.17,4.23,3.56,3.56,3.55
72.91,-0.58,-4.08,-0.58,-4.07,4.08,4.10,4.14,3.49,3.49,3.49
73.64,-0.58,-4.01,-0.58,-4.01,4.01,4.04,4.04,3.43,3.43,3.42
74.38,-0.58,-3.95,-0.58,-3.95,3.95,3.97,3.95,3.37,3.37,3.36
75.12,-0.58,-3.88,-0.58,-3.89,3.89,3.91,3.86,3.30,3.30,3.29
75.87,-0.58,-3.84,-0.58,-3.83,3.83,3.84,3.76,3.25,3.25,3.25
76.63,-0.58,-3.77,-0.58,-3.77,3.77,3.78,3.67,3.19,3.19,3.18
77.40,-0.58,-3.72,-0.58,-3.72,3.72,3.72,3.58,3.13,3.13,3.13
78.17,-0.58,-3.66,-0.58,-3.66,3.66,3.66,3.49,3.08,3.08,3.07
78.95,-0.58,-3.62,-0.58,-3.61,3.61,3.59,3.40,3.03,3.03,3.03
79.74,-0.58,-3.56,-0.58,-3.56,3.56,3.53,3.31,2.98,2.98,2.97
80.54,-0.58,-3.50,-0.58,-3.50,3.51,3.47,3.22,2.93,2.93,2.91
81.35,-0.58,-3.45,-0.58,-3.45,3.45,3.40,3.13,2.87,2.87,2.86
82.16,-0.58,-3.40,-0.58,-3.39,3.39,3.34,3.05,2.81,2.81,2.81
82.98,-0.58,-3.34,-0.59,-3.34,3.33,3.28,2.97,2.74,2.74,2.75
83.81,-0.58,-3.28,-0.59,-3.28,3.25,3.21,2.88,2.67,2.67,2.69
84.65,-0.58,-3.22,-0.57,-3.20,3.18,3.15,2.80,2.60,2.61,2.63
85.50,-0.54,-3.11,-0.53,-3.10,3.11,3.08,2.73,2.57,2.57,2.56
86.35,-0.48,-2.99,-0.50,-3.01,3.04,3.01,2.65,2.55,2.54,2.50
87.22,-0.46,-2.92,-0.48,-2.93,2.96,2.94,2.58,2.50,2.48,2.45
88.09,-0.48,-2.87,-0.47,-2.86,2.88,2.88,2.50,2.40,2.41,2.38
88.97,-0.48,-2.82,-0.49,-2.82,2.80,2.81,2.43,2.32,2.31,2.33
89.86,-0.48,-2.74,-0.49,-2.75,2.72,2.74,2.36,2.23,2.22,2.25
90.76,-0.50,-2.70,-0.47,-2.67,2.64,2.67,2.30,2.13,2.17,2.19
91.66,-0.43,-2.56,-0.44,-2.57,2.56,2.60,2.23,2.12,2.12,2.12
92.58,-0.38,-2.45,-0.40,-2.46,2.48,2.52,2.17,2.09,2.07,2.06
93.51,-0.37,-2.37,-0.37,-2.37,2.39,2.45,2.10,2.02,2.02,1.99
94.44,-0.37,-2.30,-0.37,-2.29,2.30,2.38,2.04,1.93,1.93,1.92
95.39,-0.37,-2.22,-0.38,-2.22,2.22,2.30,1.99,1.84,1.84,1.84
96.34,-0.38,-2.15,-0.38,-2.14,2.14,2.23,1.93,1.75,1.76,1.76
97.30,-0.38,-2.07,-0.39,-2.07,2.06,2.16,1.87,1.68,1.68,1.68
98.28,-0.39,-1.99,-0.40,-1.99,1.99,2.08,1.82,1.60,1.60,1.59
99.26,-0.41,-1.92,-0.41,-1.92,1.93,2.01,1.76,1.51,1.51,1.50
100.25,-0.43,-1.86,-0.43,-1.86,1.86,1.93,1.71,1.43,1.43,1.42
101.25,-0.45,-1.81,-0.45,-1.80,1.79,1.86,1.66,1.34,1.34,1.35
102.27,-0.46,-1.73,-0.46,-1.73,1.73,1.78,1.61,1.26,1.26,1.26
103.29,-0.47,-1.66,-0.48,-1.67,1.67,1.71,1.56,1.19,1.19,1.18
104.32,-0.49,-1.61,-0.49,-1.60,1.61,1.63,1.52,1.11,1.11,1.11
105.37,-0.51,-1.55,-0.52,-1.54,1.55,1.56,1.47,1.03,1.03,1.03
106.42,-0.54,-1.49,-0.54,-1.49,1.49,1.48,1.42,0.94,0.95,0.94
107.48,-0.56,-1.42,-0.57,-1.43,1.43,1.41,1.38,0.87,0.86,0.85
108.56,-0.59,-1.39,-0.59,-1.37,1.37,1.34,1.33,0.78,0.78,0.79
109.64,-0.61,-1.32,-0.61,-1.32,1.32,1.27,1.29,0.70,0.71,0.70
110.74,-0.62,-1.25,-0.63,-1.26,1.26,1.19,1.25,0.63,0.63,0.62
111.85,-0.64,-1.20,-0.64,-1.20,1.20,1.12,1.20,0.55,0.55,0.55
112.97,-0.65,-1.14,-0.65,-1.14,1.13,1.05,1.16,0.48,0.48,0.48
114.10,-0.66,-1.08,-0.66,-1.07,1.06,0.98,1.12,0.40,0.40,0.41
115.24,-0.66,-1.00,-0.66,-1.00,0.99,0.92,1.08,0.33,0.33,0.33
116.39,-0.66,-0.92,-0.66,-0.92,0.92,0.85,1.04,0.26,0.26,0.25
117.55,-0.65,-0.85,-0.66,-0.84,0.85,0.78,0.99,0.20,0.19,0.19
118.73,-0.65,-0.77,-0.65,-0.77,0.78,0.72,0.95,0.13,0.13,0.11
119.92,-0.64,-0.70,-0.64,-0.70,0.71,0.65,0.91,0.06,0.06,0.05
121.12,-0.63,-0.64,-0.64,-0.63,0.64,0.59,0.87,0.00,-0.00,0.00
122.33,-0.63,-0.57,-0.63,-0.57,0.57,0.53,0.83,-0.07,-0.06,-0.07
123.55,-0.62,-0.51,-0.62,-0.50,0.50,0.47,0.78,-0.12,-0.12,-0.12
124.79,-0.61,-0.44,-0.62,-0.43,0.43,0.41,0.74,-0.18,-0.18,-0.18
126.03,-0.60,-0.36,-0.61,-0.37,0.36,0.35,0.70,-0.24,-0.24,-0.25
127.29,-0.60,-0.30,-0.60,-0.30,0.30,0.30,0.65,-0.31,-0.31,-0.31
128.57,-0.59,-0.23,-0.60,-0.23,0.23,0.24,0.61,-0.37,-0.37,-0.37
129.85,-0.59,-0.16,-0.59,-0.16,0.16,0.18,0.56,-0.43,-0.43,-0.44
131.15,-0.58,-0.09,-0.59,-0.09,0.09,0.13,0.52,-0.49,-0.49,-0.50
132.46,-0.58,-0.03,-0.58,-0.02,0.03,0.08,0.47,-0.56,-0.55,-0.56
133.79,-0.57,0.04,-0.58,0.04,-0.04,0.02,0.43,-0.61,-0.61,-0.62
135.12,-0.57,0.10,-0.57,0.10,-0.10,-0.03,0.38,-0.67,-0.67,-0.68
136.48,-0.56,0.15,-0.57,0.16,-0.16,-0.08,0.33,-0.72,-0.73,-0.72
137.84,-0.56,0.21,-0.56,0.22,-0.22,-0.14,0.28,-0.78,-0.78,-0.78
139.22,-0.56,0.29,-0.56,0.28,-0.28,-0.19,0.23,-0.84,-0.84,-0.86
140.61,-0.56,0.33,-0.56,0.34,-0.34,-0.25,0.18,-0.90,-0.90,-0.90
142.02,-0.56,0.39,-0.56,0.40,-0.40,-0.30,0.13,-0.96,-0.96,-0.96
143.44,-0.56,0.46,-0.56,0.45,-0.45,-0.35,0.08,-1.02,-1.02,-1.03
144.87,-0.56,0.51,-0.56,0.51,-0.51,-0.41,0.03,-1.07,-1.07,-1.08
146.32,-0.56,0.56,-0.56,0.57,-0.57,-0.47,-0.02,-1.13,-1.13,-1.13
147.78,-0.56,0.62,-0.56,0.62,-0.62,-0.52,-0.07,-1.19,-1.19,-1.19
149.26,-0.56,0.67,-0.56,0.68,-0.68,-0.58,-0.13,-1.24,-1.24,-1.24
150.75,-0.56,0.74,-0.56,0.73,-0.73,-0.64,-0.18,-1.29,-1.29,-1.31
152.26,-0.56,0.78,-0.56,0.79,-0.79,-0.71,-0.24,-1.35,-1.35,-1.35
153.78,-0.56,0.84,-0.56,0.84,-0.84,-0.77,-0.29,-1.41,-1.41,-1.41
155.32,-0.56,0.89,-0.56,0.89,-0.90,-0.83,-0.35,-1.46,-1.46,-1.46
156.88,-0.56,0.95,-0.56,0.95,-0.96,-0.90,-0.40,-1.52,-1.52,-1.52
158.44,-0.56,1.01,-0.56,1.01,-1.02,-0.96,-0.46,-1.58,-1.58,-1.58
160.03,-0.56,1.07,-0.56,1.07,-1.07,-1.03,-0.52,-1.64,-1.64,-1.64
161.63,-0.56,1.13,-0.56,1.13,-1.13,-1.09,-0.58,-1.70,-1.70,-1.70
163.24,-0.56,1.20,-0.56,1.20,-1.19,-1.16,-0.64,-1.76,-1.76,-1.77
164.88,-0.56,1.25,-0.57,1.26,-1.25,-1.23,-0.70,-1.81,-1.82,-1.82
166.53,-0.57,1.31,-0.57,1.31,-1.31,-1.29,-0.76,-1.88,-1.88,-1.89
168.19,-0.57,1.36,-0.58,1.36,-1.36,-1.36,-0.83,-1.94,-1.94,-1.94
169.87,-0.58,1.41,-0.58,1.42,-1.42,-1.43,-0.89,-2.00,-2.00,-2.00
171.57,-0.59,1.47,-0.59,1.47,-1.47,-1.49,-0.95,-2.06,-2.06,-2.07
173.29,-0.59,1.53,-0.60,1.52,-1.52,-1.55,-1.02,-2.12,-2.12,-2.13
175.02,-0.60,1.57,-0.60,1.58,-1.58,-1.62,-1.09,-2.18,-2.18,-2.18
176.77,-0.60,1.62,-0.60,1.63,-1.63,-1.68,-1.15,-2.23,-2.23,-2.23
178.54,-0.60,1.68,-0.61,1.68,-1.68,-1.74,-1.22,-2.29,-2.29,-2.29
180.32,-0.60,1.74,-0.60,1.74,-1.74,-1.80,-1.29,-2.34,-2.34,-2.35
182.13,-0.59,1.79,-0.59,1.80,-1.79,-1.85,-1.36,-2.39,-2.39,-2.39
183.95,-0.58,1.85,-0.59,1.85,-1.85,-1.91,-1.43,-2.43,-2.44,-2.44
185.79,-0.57,1.91,-0.57,1.91,-1.91,-1.96,-1.51,-2.48,-2.48,-2.49
187.65,-0.56,1.96,-0.56,1.97,-1.97,-2.02,-1.58,-2.53,-2.53,-2.53
189.52,-0.54,2.03,-0.55,2.02,-2.03,-2.07,-1.65,-2.57,-2.57,-2.58
191.42,-0.53,2.07,-0.53,2.08,-2.08,-2.12,-1.73,-2.62,-2.62,-2.61
193.33,-0.52,2.13,-0.52,2.14,-2.14,-2.16,-1.80,-2.67,-2.66,-2.66
195.27,-0.50,2.20,-0.51,2.20,-2.20,-2.21,-1.88,-2.70,-2.70,-2.71
197.22,-0.49,2.26,-0.49,2.26,-2.25,-2.25,-1.96,-2.75,-2.74,-2.76
199.19,-0.47,2.31,-0.48,2.31,-2.30,-2.29,-2.03,-2.78,-2.78,-2.79
201.18,-0.47,2.36,-0.47,2.36,-2.35,-2.33,-2.11,-2.83,-2.82,-2.84
203.19,-0.46,2.40,-0.47,2.40,-2.40,-2.37,-2.19,-2.86,-2.87,-2.87
205.23,-0.46,2.44,-0.46,2.44,-2.44,-2.41,-2.27,-2.91,-2.91,-2.91
207.28,-0.46,2.47,-0.46,2.48,-2.48,-2.45,-2.34,-2.95,-2.94,-2.94
209.35,-0.46,2.51,-0.46,2.51,-2.52,-2.48,-2.42,-2.98,-2.98,-2.98
211.44,-0.46,2.56,-0.47,2.55,-2.55,-2.51,-2.50,-3.02,-3.02,-3.03
213.56,-0.47,2.58,-0.47,2.59,-2.59,-2.54,-2.57,-3.06,-3.06,-3.06
215.69,-0.47,2.62,-0.48,2.62,-2.62,-2.57,-2.64,-3.09,-3.10,-3.10
217.85,-0.48,2.64,-0.48,2.65,-2.65,-2.60,-2.71,-3.14,-3.14,-3.13
220.03,-0.48,2.69,-0.48,2.68,-2.69,-2.63,-2.78,-3.17,-3.17,-3.18
222.23,-0.48,2.71,-0.48,2.71,-2.72,-2.65,-2.85,-3.20,-3.20,-3.20
224.45,-0.48,2.74,-0.48,2.74,-2.74,-2.68,-2.91,-3.23,-3.23,-3.23
226.70,-0.48,2.77,-0.48,2.77,-2.76,-2.70,-2.97,-3.25,-3.25,-3.26
228.96,-0.48,2.79,-0.47,2.80,-2.78,-2.72,-3.03,-3.26,-3.25,-3.28
231.25,-0.47,2.81,-0.48,2.81,-2.79,-2.74,-3.09,-3.27,-3.28,-3.29
233.57,-0.47,2.84,-0.50,2.81,-2.81,-2.76,-3.14,-3.28,-3.30,-3.32
235.90,-0.54,2.78,-0.52,2.81,-2.82,-2.78,-3.18,-3.36,-3.33,-3.33
238.26,-0.53,2.81,-0.53,2.81,-2.83,-2.80,-3.22,-3.37,-3.36,-3.35
240.64,-0.51,2.82,-0.53,2.82,-2.85,-2.82,-3.26,-3.36,-3.37,-3.34
243.05,-0.50,2.84,-0.50,2.85,-2.86,-2.83,-3.29,-3.37,-3.36,-3.35
245.48,-0.48,2.88,-0.48,2.88,-2.88,-2.85,-3.31,-3.36,-3.36,-3.37
247.93,-0.45,2.92,-0.46,2.91,-2.89,-2.86,-3.33,-3.35,-3.35,-3.38
250.41,-0.44,2.92,-0.44,2.93,-2.91,-2.87,-3.35,-3.35,-3.34,-3.37
252.92,-0.42,2.94,-0.43,2.94,-2.92,-2.88,-3.36,-3.34,-3.35,-3.37
255.45,-0.43,2.95,-0.45,2.93,-2.93,-2.90,-3.36,-3.36,-3.38,-3.39
258.00,-0.48,2.91,-0.47,2.92,-2.93,-2.91,-3.36,-3.41,-3.40,-3.40
260.58,-0.50,2.90,-0.49,2.92,-2.93,-2.92,-3.35,-3.44,-3.43,-3.41
263.19,-0.49,2.92,-0.50,2.92,-2.94,-2.93,-3.34,-3.43,-3.44,-3.42
265.82,-0.49,2.94,-0.50,2.93,-2.94,-2.93,-3.32,-3.44,-3.44,-3.44
268.48,-0.50,2.93,-0.50,2.94,-2.94,-2.94,-3.30,-3.45,-3.44,-3.44
271.16,-0.50,2.95,-0.50,2.95,-2.95,-2.95,-3.28,-3.45,-3.45,-3.46
273.87,-0.50,2.96,-0.50,2.97,-2.95,-2.95,-3.25,-3.45,-3.45,-3.47
276.61,-0.50,2.98,-0.51,2.98,-2.95,-2.96,-3.21,-3.45,-3.46,-3.49
279.38,-0.53,2.98,-0.54,2.96,-2.95,-2.97,-3.18,-3.48,-3.49,-3.52
282.17,-0.58,2.93,-0.57,2.94,-2.95,-2.97,-3.14,-3.53,-3.52,-3.52
284.99,-0.60,2.91,-0.59,2.93,-2.95,-2.97,-3.10,-3.55,-3.54,-3.52
287.84,-0.59,2.92,-0.60,2.92,-2.95,-2.98,-3.06,-3.54,-3.55,-3.52
290.72,-0.58,2.95,-0.59,2.94,-2.95,-2.98,-3.01,-3.53,-3.54,-3.54
293.63,-0.57,2.95,-0.57,2.96,-2.96,-2.98,-2.97,-3.53,-3.53,-3.53
296.57,-0.55,2.97,-0.56,2.97,-2.97,-2.98,-2.92,-3.52,-3.53,-3.53
299.53,-0.54,2.99,-0.54,2.99,-2.99,-2.98,-2.87,-3.53,-3.53,-3.54
302.53,-0.53,2.99,-0.53,3.00,-3.00,-2.98,-2.83,-3.53,-3.53,-3.53
305.55,-0.52,3.01,-0.52,3.01,-3.01,-2.98,-2.78,-3.53,-3.53,-3.54
308.61,-0.51,3.01,-0.51,3.02,-3.01,-2.98,-2.73,-3.53,-3.52,-3.53
311.69,-0.50,3.04,-0.51,3.03,-3.01,-2.97,-2.68,-3.51,-3.52,-3.55
314.81,-0.50,3.03,-0.52,3.02,-3.01,-2.97,-2.64,-3.51,-3.53,-3.54
317.96,-0.55,3.00,-0.55,3.00,-3.00,-2.96,-2.59,-3.56,-3.55,-3.56
321.14,-0.59,2.95,-0.58,2.97,-2.99,-2.96,-2.55,-3.59,-3.57,-3.55
324.35,-0.60,2.95,-0.60,2.95,-2.98,-2.95,-2.50,-3.58,-3.58,-3.56
327.59,-0.60,2.94,-0.60,2.95,-2.96,-2.94,-2.46,-3.56,-3.56,-3.55
330.87,-0.60,2.95,-0.60,2.95,-2.93,-2.94,-2.42,-3.54,-3.54,-3.56
334.18,-0.60,2.96,-0.62,2.94,-2.90,-2.93,-2.38,-3.51,-3.53,-3.57
337.52,-0.66,2.89,-0.66,2.91,-2.88,-2.92,-2.34,-3.54,-3.53,-3.56
340.90,-0.70,2.86,-0.70,2.85,-2.85,-2.91,-2.31,-3.55,-3.55,-3.57
344.30,-0.75,2.80,-0.76,2.80,-2.82,-2.89,-2.27,-3.58,-3.58,-3.56
347.75,-0.79,2.75,-0.79,2.77,-2.80,-2.88,-2.24,-3.59,-3.58,-3.55
351.23,-0.81,2.75,-0.81,2.75,-2.77,-2.87,-2.21,-3.59,-3.58,-3.57
354.74,-0.80,2.74,-0.81,2.74,-2.76,-2.85,-2.18,-3.56,-3.57,-3.55
358.28,-0.80,2.74,-0.81,2.74,-2.74,-2.84,-2.15,-3.55,-3.55,-3.55
361.87,-0.80,2.74,-0.80,2.74,-2.73,-2.82,-2.13,-3.54,-3.53,-3.55
365.49,-0.79,2.74,-0.79,2.75,-2.72,-2.80,-2.10,-3.52,-3.51,-3.54
369.14,-0.78,2.74,-0.78,2.74,-2.72,-2.79,-2.08,-3.50,-3.50,-3.53
372.83,-0.77,2.74,-0.80,2.72,-2.71,-2.77,-2.06,-3.48,-3.51,-3.52
376.56,-0.83,2.69,-0.82,2.70,-2.70,-2.75,-2.04,-3.53,-3.52,-3.53
380.33,-0.86,2.66,-0.85,2.67,-2.69,-2.73,-2.02,-3.56,-3.54,-3.53
384.13,-0.85,2.66,-0.86,2.66,-2.69,-2.71,-2.01,-3.54,-3.55,-3.52
387.97,-0.85,2.66,-0.85,2.67,-2.68,-2.69,-1.99,-3.54,-3.54,-3.52
391.85,-0.84,2.68,-0.85,2.68,-2.68,-2.66,-1.98,-3.52,-3.53,-3.53
395.77,-0.84,2.69,-0.84,2.68,-2.68,-2.64,-1.97,-3.52,-3.53,-3.54
399.73,-0.84,2.69,-0.85,2.69,-2.68,-2.62,-1.96,-3.52,-3.53,-3.54
403.72,-0.85,2.67,-0.84,2.69,-2.68,-2.60,-1.95,-3.53,-3.52,-3.53
407.76,-0.85,2.69,-0.85,2.69,-2.67,-2.57,-1.94,-3.52,-3.52,-3.55
411.84,-0.85,2.70,-0.88,2.67,-2.66,-2.55,-1.94,-3.52,-3.54,-3.56
415.96,-0.92,2.63,-0.91,2.65,-2.65,-2.53,-1.93,-3.58,-3.56,-3.56
420.12,-0.95,2.61,-0.94,2.62,-2.64,-2.50,-1.92,-3.59,-3.58,-3.57
424.32,-0.95,2.60,-0.96,2.59,-2.62,-2.48,-1.92,-3.58,-3.58,-3.56
428.56,-0.94,2.59,-0.94,2.60,-2.60,-2.45,-1.92,-3.55,-3.55,-3.54
432.85,-0.93,2.58,-0.93,2.59,-2.58,-2.43,-1.92,-3.51,-3.51,-3.52
437.18,-0.90,2.60,-0.91,2.59,-2.56,-2.41,-1.91,-3.46,-3.47,-3.51
441.55,-0.91,2.56,-0.92,2.56,-2.54,-2.38,-1.91,-3.45,-3.45,-3.48
445.96,-0.91,2.52,-0.92,2.51,-2.51,-2.36,-1.91,-3.43,-3.44,-3.44
450.42,-0.94,2.45,-0.93,2.47,-2.49,-2.33,-1.91,-3.43,-3.42,-3.40
454.93,-0.91,2.43,-0.90,2.44,-2.46,-2.31,-1.91,-3.37,-3.36,-3.35
459.48,-0.85,2.43,-0.85,2.43,-2.43,-2.28,-1.91,-3.28,-3.28,-3.29
464.07,-0.78,2.43,-0.81,2.42,-2.40,-2.26,-1.90,-3.19,-3.21,-3.22
468.71,-0.76,2.40,-0.77,2.39,-2.38,-2.23,-1.90,-3.15,-3.15,-3.17
473.40,-0.76,2.34,-0.74,2.36,-2.37,-2.21,-1.90,-3.13,-3.11,-3.11
