frequency,raw,error,smoothed,error_smoothed,equalization,parametric_eq,fixed_band_eq,equalized_raw,equalized_smoothed,target
20.00,7.07,7.30,7.07,7.30,-7.30,-7.68,-3.60,-0.22,-0.22,-0.22
20.20,7.11,7.30,7.11,7.30,-7.29,-7.68,-3.70,-0.18,-0.18,-0.18
20.40,7.15,7.30,7.15,7.30,-7.29,-7.68,-3.80,-0.14,-0.14,-0.14
20.61,7.19,7.31,7.19,7.30,-7.30,-7.68,-3.90,-0.11,-0.11,-0.11
20.81,7.22,7.30,7.23,7.30,-7.30,-7.69,-4.01,-0.08,-0.08,-0.07
21.02,7.26,7.30,7.26,7.30,-7.31,-7.69,-4.12,-0.05,-0.05,-0.03
21.23,7.30,7.32,7.30,7.31,-7.32,-7.69,-4.24,-0.02,-0.02,-0.01
21.44,7.34,7.34,7.34,7.34,-7.34,-7.69,-4.35,0.00,0.00,0.01
21.66,7.38,7.36,7.38,7.36,-7.36,-7.69,-4.48,0.03,0.03,0.03
21.87,7.42,7.39,7.42,7.38,-7.38,-7.70,-4.60,0.04,0.04,0.04
22.09,7.46,7.41,7.46,7.41,-7.40,-7.70,-4.73,0.06,0.06,0.06
22.31,7.49,7.43,7.50,7.43,-7.43,-7.70,-4.86,0.06,0.07,0.07
22.54,7.53,7.46,7.53,7.45,-7.46,-7.70,-4.99,0.07,0.07,0.08
22.76,7.56,7.48,7.57,7.48,-7.49,-7.70,-5.13,0.08,0.08,0.09
22.99,7.60,7.52,7.60,7.51,-7.51,-7.70,-5.27,0.09,0.09,0.09
23.22,7.64,7.55,7.64,7.54,-7.54,-7.70,-5.42,0.10,0.10,0.10
23.45,7.67,7.57,7.68,7.57,-7.57,-7.70,-5.57,0.11,0.11,0.11
23.69,7.71,7.60,7.71,7.60,-7.59,-7.71,-5.72,0.12,0.12,0.12
23.92,7.75,7.63,7.75,7.62,-7.62,-7.71,-5.87,0.14,0.13,0.13
24.16,7.78,7.64,7.78,7.64,-7.64,-7.71,-6.03,0.14,0.14,0.15
24.40,7.81,7.65,7.81,7.66,-7.66,-7.71,-6.19,0.15,0.15,0.17
24.65,7.84,7.69,7.85,7.68,-7.69,-7.71,-6.36,0.16,0.16,0.16
24.89,7.88,7.72,7.88,7.71,-7.71,-7.71,-6.53,0.17,0.17,0.17
25.14,7.91,7.74,7.91,7.74,-7.73,-7.71,-6.70,0.18,0.18,0.18
25.39,7.94,7.76,7.94,7.76,-7.76,-7.71,-6.87,0.19,0.19,0.19
25.65,7.97,7.77,7.98,7.78,-7.78,-7.71,-7.04,0.19,0.20,0.21
25.91,8.01,7.81,8.01,7.80,-7.80,-7.71,-7.22,0.21,0.21,0.21
26.16,8.04,7.83,8.04,7.83,-7.82,-7.71,-7.40,0.22,0.22,0.22
26.43,8.07,7.85,8.07,7.85,-7.84,-7.71,-7.57,0.23,0.23,0.23
26.69,8.10,7.87,8.10,7.86,-7.86,-7.71,-7.75,0.24,0.24,0.24
26.96,8.13,7.88,8.13,7.88,-7.88,-7.71,-7.93,0.25,0.25,0.26
27.23,8.15,7.89,8.16,7.90,-7.90,-7.71,-8.10,0.25,0.26,0.27
27.50,8.18,7.92,8.18,7.91,-7.92,-7.71,-8.27,0.26,0.26,0.27
27.77,8.21,7.95,8.21,7.94,-7.94,-7.71,-8.44,0.28,0.27,0.27
28.05,8.23,7.95,8.24,7.96,-7.95,-7.71,-8.60,0.28,0.28,0.29
28.33,8.26,7.98,8.26,7.97,-7.97,-7.71,-8.76,0.29,0.29,0.29
28.62,8.28,7.99,8.28,7.99,-7.98,-7.71,-8.91,0.30,0.30,0.30
28.90,8.30,8.00,8.30,8.00,-8.00,-7.71,-9.05,0.30,0.30,0.31
29.19,8.32,8.02,8.32,8.01,-8.01,-7.71,-9.18,0.31,0.31,0.31
29.48,8.34,8.01,8.34,8.02,-8.02,-7.70,-9.30,0.32,0.32,0.34
29.78,8.36,8.04,8.36,8.03,-8.04,-7.70,-9.41,0.33,0.33,0.33
30.08,8.38,8.05,8.38,8.05,-8.05,-7.70,-9.51,0.34,0.34,0.34
30.38,8.40,8.07,8.40,8.06,-8.06,-7.70,-9.59,0.35,0.34,0.34
30.68,8.41,8.06,8.42,8.07,-8.07,-7.70,-9.66,0.35,0.35,0.36
30.99,8.43,8.08,8.43,8.08,-8.07,-7.70,-9.71,0.36,0.36,0.36
31.30,8.44,8.09,8.44,8.08,-8.08,-7.70,-9.75,0.36,0.36,0.36
31.61,8.45,8.09,8.45,8.09,-8.09,-7.70,-9.77,0.36,0.37,0.37
31.93,8.46,8.09,8.46,8.09,-8.09,-7.69,-9.78,0.37,0.37,0.38
32.24,8.47,8.10,8.47,8.09,-8.09,-7.69,-9.77,0.38,0.38,0.38
32.57,8.48,8.09,8.49,8.10,-8.10,-7.69,-9.75,0.39,0.39,0.40
32.89,8.50,8.11,8.50,8.10,-8.09,-7.69,-9.71,0.41,0.40,0.40
33.22,8.50,8.10,8.50,8.09,-8.09,-7.69,-9.66,0.41,0.41,0.41
33.55,8.50,8.09,8.50,8.09,-8.09,-7.68,-9.60,0.41,0.42,0.42
33.89,8.50,8.08,8.50,8.08,-8.08,-7.68,-9.53,0.42,0.42,0.43
34.23,8.50,8.08,8.50,8.08,-8.08,-7.68,-9.45,0.43,0.43,0.43
34.57,8.50,8.07,8.50,8.07,-8.07,-7.68,-9.37,0.43,0.44,0.44
34.92,8.50,8.07,8.50,8.06,-8.06,-7.67,-9.27,0.44,0.44,0.44
35.27,8.49,8.05,8.49,8.05,-8.05,-7.67,-9.17,0.44,0.44,0.45
35.62,8.48,8.04,8.48,8.04,-8.04,-7.67,-9.07,0.44,0.44,0.45
35.97,8.47,8.03,8.47,8.02,-8.03,-7.67,-8.96,0.44,0.45,0.45
36.33,8.46,8.01,8.47,8.02,-8.02,-7.66,-8.85,0.45,0.45,0.46
36.70,8.46,8.02,8.46,8.01,-8.01,-7.66,-8.74,0.46,0.45,0.45
37.06,8.45,8.00,8.45,8.00,-8.00,-7.66,-8.63,0.46,0.46,0.46
37.43,8.44,7.99,8.44,7.99,-7.99,-7.65,-8.53,0.45,0.46,0.46
37.81,8.43,7.98,8.43,7.98,-7.98,-7.65,-8.42,0.45,0.45,0.46
38.19,8.42,7.97,8.42,7.97,-7.97,-7.65,-8.31,0.45,0.45,0.46
38.57,8.41,7.97,8.41,7.96,-7.97,-7.64,-8.21,0.44,0.44,0.45
38.95,8.40,7.96,8.40,7.96,-7.96,-7.64,-8.11,0.44,0.44,0.45
39.34,8.39,7.96,8.40,7.96,-7.95,-7.64,-8.01,0.44,0.44,0.44
39.74,8.39,7.96,8.39,7.95,-7.95,-7.63,-7.92,0.45,0.44,0.44
40.14,8.37,7.94,8.38,7.94,-7.94,-7.63,-7.83,0.44,0.44,0.44
40.54,8.36,7.93,8.36,7.93,-7.93,-7.63,-7.75,0.44,0.44,0.44
40.94,8.34,7.92,8.34,7.91,-7.91,-7.62,-7.67,0.43,0.43,0.43
41.35,8.32,7.90,8.32,7.90,-7.90,-7.62,-7.59,0.43,0.43,0.43
41.76,8.30,7.88,8.30,7.88,-7.88,-7.61,-7.52,0.42,0.42,0.43
42.18,8.28,7.86,8.29,7.86,-7.86,-7.61,-7.46,0.42,0.42,0.43
42.60,8.27,7.85,8.27,7.84,-7.85,-7.60,-7.40,0.42,0.42,0.43
43.03,8.25,7.83,8.25,7.83,-7.83,-7.60,-7.35,0.42,0.42,0.43
43.46,8.23,7.81,8.23,7.81,-7.81,-7.59,-7.30,0.42,0.42,0.43
43.90,8.21,7.81,8.21,7.80,-7.80,-7.59,-7.26,0.42,0.41,0.41
44.33,8.18,7.78,8.18,7.78,-7.78,-7.58,-7.22,0.41,0.41,0.41
44.78,8.15,7.76,8.16,7.76,-7.76,-7.58,-7.19,0.40,0.40,0.40
45.23,8.13,7.74,8.13,7.73,-7.73,-7.57,-7.16,0.40,0.40,0.40
45.68,8.10,7.71,8.10,7.71,-7.71,-7.57,-7.14,0.40,0.39,0.40
46.13,8.07,7.69,8.07,7.68,-7.68,-7.56,-7.12,0.39,0.39,0.39
46.60,8.04,7.65,8.04,7.65,-7.66,-7.56,-7.11,0.39,0.39,0.40
47.06,8.01,7.63,8.01,7.63,-7.63,-7.55,-7.11,0.38,0.38,0.39
47.53,7.98,7.61,7.98,7.60,-7.60,-7.54,-7.11,0.38,0.38,0.38
48.01,7.95,7.57,7.95,7.58,-7.58,-7.54,-7.11,0.37,0.37,0.39
48.49,7.92,7.56,7.92,7.55,-7.56,-7.53,-7.12,0.37,0.37,0.37
48.97,7.88,7.54,7.89,7.54,-7.53,-7.53,-7.13,0.35,0.35,0.35
49.46,7.85,7.52,7.85,7.52,-7.51,-7.52,-7.15,0.34,0.34,0.34
49.96,7.81,7.50,7.81,7.49,-7.49,-7.51,-7.17,0.32,0.32,0.32
50.46,7.77,7.46,7.77,7.47,-7.47,-7.51,-7.19,0.30,0.30,0.32
50.96,7.73,7.44,7.74,7.45,-7.45,-7.50,-7.22,0.28,0.28,0.30
51.47,7.70,7.44,7.70,7.43,-7.43,-7.49,-7.25,0.27,0.27,0.27
51.99,7.67,7.42,7.67,7.42,-7.41,-7.48,-7.28,0.26,0.26,0.26
52.51,7.64,7.40,7.64,7.40,-7.40,-7.48,-7.32,0.25,0.25,0.25
53.03,7.61,7.39,7.61,7.38,-7.38,-7.47,-7.36,0.23,0.23,0.23
53.56,7.57,7.36,7.57,7.36,-7.36,-7.46,-7.39,0.21,0.21,0.22
54.10,7.53,7.35,7.53,7.34,-7.34,-7.45,-7.43,0.19,0.19,0.19
54.64,7.49,7.32,7.49,7.32,-7.32,-7.45,-7.47,0.17,0.17,0.18
55.18,7.45,7.31,7.45,7.30,-7.30,-7.44,-7.51,0.15,0.15,0.15
55.74,7.40,7.29,7.41,7.28,-7.28,-7.43,-7.54,0.12,0.12,0.12
56.29,7.36,7.25,7.36,7.26,-7.27,-7.42,-7.58,0.10,0.10,0.12
56.86,7.32,7.24,7.33,7.24,-7.25,-7.41,-7.61,0.07,0.08,0.09
57.42,7.29,7.24,7.29,7.23,-7.23,-7.40,-7.64,0.06,0.06,0.06
58.00,7.26,7.23,7.26,7.22,-7.21,-7.39,-7.67,0.05,0.05,0.04
58.58,7.22,7.21,7.22,7.21,-7.20,-7.38,-7.69,0.03,0.03,0.02
59.16,7.18,7.19,7.18,7.19,-7.18,-7.38,-7.71,0.00,0.00,-0.00
59.76,7.13,7.16,7.14,7.16,-7.17,-7.37,-7.72,-0.03,-0.03,-0.02
60.35,7.09,7.15,7.09,7.14,-7.16,-7.36,-7.73,-0.06,-0.07,-0.05
60.96,7.04,7.13,7.04,7.14,-7.15,-7.35,-7.73,-0.10,-0.10,-0.08
61.57,7.00,7.14,7.00,7.13,-7.14,-7.34,-7.72,-0.14,-0.14,-0.13
62.18,6.96,7.14,6.97,7.13,-7.13,-7.33,-7.71,-0.17,-0.17,-0.17
62.80,6.93,7.13,6.93,7.14,-7.13,-7.32,-7.69,-0.20,-0.20,-0.19
63.43,6.89,7.14,6.89,7.13,-7.12,-7.30,-7.67,-0.23,-0.23,-0.24
64.07,6.85,7.14,6.85,7.13,-7.12,-7.29,-7.63,-0.27,-0.27,-0.28
64.71,6.80,7.12,6.80,7.12,-7.12,-7.28,-7.60,-0.32,-0.32,-0.31
65.35,6.75,7.11,6.75,7.11,-7.11,-7.27,-7.55,-0.36,-0.36,-0.35
66.01,6.70,7.10,6.71,7.10,-7.11,-7.26,-7.50,-0.41,-0.40,-0.39
66.67,6.67,7.10,6.67,7.10,-7.10,-7.25,-7.45,-0.43,-0.43,-0.42
67.33,6.63,7.10,6.63,7.10,-7.10,-7.24,-7.39,-0.46,-0.46,-0.46
68.01,6.59,7.10,6.59,7.09,-7.09,-7.22,-7.33,-0.50,-0.50,-0.50
68.69,6.54,7.09,6.54,7.09,-7.08,-7.21,-7.26,-0.54,-0.54,-0.54
69.37,6.49,7.08,6.49,7.08,-7.08,-7.20,-7.19,-0.58,-0.58,-0.58
70.07,6.44,7.07,6.44,7.06,-7.07,-7.19,-7.12,-0.63,-0.63,-0.62
70.77,6.39,7.06,6.39,7.05,-7.06,-7.17,-7.04,-0.67,-0.67,-0.66
71.48,6.34,7.04,6.35,7.05,-7.05,-7.16,-6.97,-0.71,-0.70,-0.69
72.19,6.30,7.05,6.30,7.04,-7.04,-7.15,-6.89,-0.74,-0.74,-0.74
72.91,6.26,7.04,6.26,7.03,-7.03,-7.13,-6.81,-0.77,-0.77,-0.77
73.64,6.21,7.03,6.21,7.02,-7.02,-7.12,-6.73,-0.81,-0.81,-0.81
74.38,6.15,7.00,6.16,7.00,-7.01,-7.11,-6.66,-0.86,-0.85,-0.84
75.12,6.10,6.99,6.11,6.99,-7.00,-7.09,-6.58,-0.89,-0.89,-0.88
75.87,6.06,6.98,6.06,6.98,-6.98,-7.08,-6.51,-0.92,-0.92,-0.91
76.63,6.02,6.97,6.02,6.97,-6.96,-7.06,-6.44,-0.94,-0.94,-0.94
77.40,5.97,6.95,5.97,6.95,-6.94,-7.05,-6.37,-0.97,-0.97,-0.97
78.17,5.92,6.93,5.92,6.92,-6.92,-7.03,-6.30,-0.99,-1.00,-1.00
78.95,5.85,6.89,5.86,6.89,-6.89,-7.02,-6.24,-1.04,-1.03,-1.03
79.74,5.80,6.86,5.80,6.85,-6.86,-7.00,-6.17,-1.06,-1.06,-1.05
80.54,5.74,6.82,5.75,6.83,-6.83,-6.99,-6.12,-1.09,-1.09,-1.07
81.35,5.69,6.80,5.69,6.80,-6.80,-6.97,-6.06,-1.11,-1.10,-1.10
82.16,5.64,6.78,5.64,6.77,-6.76,-6.95,-6.01,-1.12,-1.13,-1.13
82.98,5.58,6.73,5.58,6.73,-6.73,-6.94,-5.97,-1.15,-1.15,-1.14
83.81,5.51,6.69,5.52,6.69,-6.69,-6.92,-5.92,-1.18,-1.18,-1.17
84.65,5.45,6.66,5.45,6.65,-6.65,-6.90,-5.89,-1.20,-1.20,-1.20
85.50,5.39,6.61,5.40,6.62,-6.61,-6.88,-5.85,-1.22,-1.22,-1.21
86.35,5.34,6.58,5.34,6.58,-6.57,-6.87,-5.82,-1.23,-1.23,-1.23
87.22,5.28,6.54,5.28,6.53,-6.53,-6.85,-5.80,-1.24,-1.25,-1.25
88.09,5.20,6.48,5.21,6.48,-6.48,-6.83,-5.78,-1.28,-1.27,-1.27
88.97,5.13,6.43,5.14,6.43,-6.43,-6.81,-5.76,-1.30,-1.30,-1.29
89.86,5.07,6.38,5.07,6.38,-6.39,-6.79,-5.75,-1.31,-1.32,-1.30
90.76,5.01,6.35,5.01,6.34,-6.34,-6.77,-5.74,-1.33,-1.33,-1.33
91.66,4.94,6.30,4.95,6.30,-6.30,-6.76,-5.74,-1.35,-1.35,-1.35
92.58,4.88,6.26,4.88,6.25,-6.25,-6.74,-5.74,-1.37,-1.37,-1.37
93.51,4.81,6.20,4.82,6.20,-6.21,-6.72,-5.74,-1.39,-1.39,-1.38
94.44,4.75,6.16,4.75,6.16,-6.16,-6.70,-5.75,-1.41,-1.41,-1.40
95.39,4.69,6.12,4.69,6.12,-6.12,-6.68,-5.76,-1.43,-1.43,-1.42
96.34,4.63,6.09,4.63,6.09,-6.07,-6.65,-5.78,-1.44,-1.44,-1.45
97.30,4.56,6.05,4.56,6.04,-6.03,-6.63,-5.80,-1.47,-1.47,-1.48
98.28,4.48,6.00,4.48,6.00,-5.99,-6.61,-5.82,-1.51,-1.51,-1.51
99.26,4.40,5.94,4.41,5.95,-5.95,-6.59,-5.85,-1.55,-1.54,-1.53
100.25,4.34,5.91,4.34,5.90,-5.92,-6.57,-5.88,-1.57,-1.58,-1.56
101.25,4.27,5.87,4.27,5.87,-5.89,-6.55,-5.91,-1.61,-1.61,-1.59
102.27,4.21,5.85,4.22,5.85,-5.86,-6.52,-5.94,-1.64,-1.63,-1.63
103.29,4.17,5.84,4.17,5.83,-5.83,-6.50,-5.98,-1.65,-1.66,-1.66
104.32,4.12,5.82,4.11,5.81,-5.80,-6.48,-6.02,-1.68,-1.69,-1.69
105.37,4.05,5.79,4.06,5.79,-5.78,-6.46,-6.05,-1.73,-1.73,-1.73
106.42,3.98,5.77,3.99,5.77,-5.76,-6.43,-6.09,-1.78,-1.77,-1.78
107.48,3.92,5.74,3.92,5.74,-5.74,-6.41,-6.14,-1.82,-1.82,-1.81
108.56,3.85,5.73,3.85,5.72,-5.72,-6.39,-6.18,-1.87,-1.87,-1.87
109.64,3.77,5.70,3.78,5.70,-5.71,-6.36,-6.22,-1.93,-1.93,-1.92
110.74,3.71,5.69,3.71,5.69,-5.69,-6.34,-6.25,-1.98,-1.98,-1.97
111.85,3.65,5.68,3.65,5.68,-5.69,-6.31,-6.29,-2.04,-2.04,-2.02
112.97,3.59,5.69,3.59,5.68,-5.69,-6.29,-6.33,-2.09,-2.10,-2.09
114.10,3.53,5.68,3.53,5.68,-5.69,-6.26,-6.36,-2.15,-2.15,-2.14
115.24,3.47,5.68,3.49,5.69,-5.69,-6.24,-6.39,-2.22,-2.20,-2.20
116.39,3.44,5.72,3.44,5.71,-5.69,-6.21,-6.41,-2.25,-2.26,-2.27
117.55,3.39,5.73,3.38,5.71,-5.70,-6.18,-6.43,-2.31,-2.32,-2.33
118.73,3.31,5.71,3.32,5.71,-5.70,-6.16,-6.45,-2.39,-2.39,-2.39
119.92,3.24,5.69,3.25,5.70,-5.71,-6.13,-6.46,-2.46,-2.46,-2.44
121.12,3.19,5.70,3.20,5.70,-5.71,-6.10,-6.46,-2.52,-2.51,-2.50
122.33,3.16,5.72,3.16,5.71,-5.71,-6.08,-6.46,-2.55,-2.55,-2.55
123.55,3.12,5.73,3.11,5.71,-5.71,-6.05,-6.46,-2.59,-2.60,-2.60
124.79,3.05,5.71,3.06,5.71,-5.72,-6.02,-6.44,-2.66,-2.66,-2.65
126.03,2.99,5.70,3.01,5.71,-5.72,-5.99,-6.42,-2.73,-2.71,-2.70
127.29,2.96,5.72,2.96,5.72,-5.72,-5.97,-6.40,-2.76,-2.76,-2.75
128.57,2.93,5.75,2.92,5.73,-5.72,-5.94,-6.37,-2.79,-2.80,-2.81
129.85,2.88,5.74,2.88,5.74,-5.72,-5.91,-6.33,-2.84,-2.84,-2.85
131.15,2.82,5.73,2.83,5.73,-5.72,-5.88,-6.28,-2.90,-2.89,-2.90
132.46,2.78,5.73,2.77,5.72,-5.72,-5.85,-6.23,-2.94,-2.95,-2.94
133.79,2.71,5.70,2.72,5.70,-5.72,-5.82,-6.18,-3.00,-3.00,-2.98
135.12,2.66,5.69,2.67,5.69,-5.71,-5.79,-6.12,-3.04,-3.04,-3.02
136.48,2.63,5.70,2.63,5.69,-5.69,-5.76,-6.06,-3.06,-3.07,-3.06
137.84,2.58,5.69,2.58,5.69,-5.68,-5.74,-5.99,-3.10,-3.09,-3.10
139.22,2.53,5.69,2.53,5.68,-5.66,-5.71,-5.92,-3.13,-3.13,-3.15
140.61,2.47,5.67,2.47,5.65,-5.65,-5.68,-5.85,-3.17,-3.18,-3.19
142.02,2.39,5.61,2.41,5.63,-5.63,-5.65,-5.77,-3.24,-3.23,-3.21
143.44,2.35,5.61,2.35,5.60,-5.62,-5.62,-5.70,-3.26,-3.27,-3.25
144.87,2.29,5.59,2.30,5.59,-5.60,-5.59,-5.62,-3.31,-3.30,-3.29
146.32,2.25,5.59,2.25,5.58,-5.58,-5.56,-5.54,-3.33,-3.33,-3.33
147.78,2.20,5.57,2.20,5.57,-5.57,-5.53,-5.46,-3.37,-3.37,-3.36
149.26,2.16,5.56,2.15,5.56,-5.56,-5.50,-5.39,-3.40,-3.40,-3.39
150.75,2.09,5.55,2.10,5.55,-5.55,-5.48,-5.31,-3.46,-3.45,-3.45
152.26,2.05,5.55,2.05,5.54,-5.54,-5.45,-5.23,-3.49,-3.49,-3.49
153.78,2.00,5.53,2.00,5.54,-5.54,-5.42,-5.16,-3.54,-3.53,-3.52
155.32,1.96,5.55,1.96,5.54,-5.53,-5.40,-5.09,-3.57,-3.57,-3.58
156.88,1.91,5.53,1.91,5.53,-5.53,-5.37,-5.01,-3.61,-3.62,-3.61
158.44,1.86,5.53,1.85,5.52,-5.52,-5.35,-4.95,-3.66,-3.67,-3.66
160.03,1.78,5.50,1.80,5.51,-5.52,-5.33,-4.88,-3.73,-3.72,-3.71
161.63,1.74,5.51,1.74,5.50,-5.51,-5.30,-4.82,-3.77,-3.77,-3.76
163.24,1.70,5.51,1.69,5.50,-5.50,-5.29,-4.75,-3.80,-3.81,-3.80
164.88,1.64,5.49,1.65,5.50,-5.49,-5.27,-4.70,-3.85,-3.84,-3.84
166.53,1.59,5.49,1.60,5.49,-5.48,-5.25,-4.64,-3.89,-3.89,-3.89
168.19,1.54,5.49,1.54,5.48,-5.47,-5.24,-4.59,-3.93,-3.94,-3.94
169.87,1.47,5.47,1.48,5.47,-5.46,-5.24,-4.54,-3.99,-3.99,-3.99
171.57,1.40,5.44,1.41,5.45,-5.45,-5.23,-4.50,-4.05,-4.04,-4.03
173.29,1.34,5.44,1.34,5.43,-5.44,-5.23,-4.46,-4.09,-4.10,-4.09
175.02,1.26,5.41,1.27,5.41,-5.42,-5.24,-4.42,-4.16,-4.15,-4.14
176.77,1.20,5.41,1.20,5.41,-5.41,-5.25,-4.38,-4.21,-4.20,-4.20
178.54,1.14,5.40,1.14,5.40,-5.40,-5.26,-4.35,-4.25,-4.25,-4.25
180.32,1.08,5.40,1.08,5.39,-5.38,-5.29,-4.33,-4.30,-4.31,-4.31
182.13,1.01,5.38,1.01,5.37,-5.37,-5.31,-4.30,-4.36,-4.36,-4.36
183.95,0.92,5.35,0.93,5.36,-5.36,-5.34,-4.28,-4.44,-4.43,-4.42
185.79,0.86,5.34,0.86,5.34,-5.35,-5.37,-4.26,-4.49,-4.49,-4.47
187.65,0.79,5.34,0.79,5.33,-5.34,-5.40,-4.25,-4.54,-4.54,-4.54
189.52,0.73,5.33,0.73,5.32,-5.32,-5.42,-4.23,-4.59,-4.59,-4.59
191.42,0.66,5.31,0.66,5.30,-5.31,-5.43,-4.23,-4.64,-4.65,-4.64
193.33,0.58,5.28,0.59,5.28,-5.29,-5.41,-4.22,-4.70,-4.70,-4.69
195.27,0.51,5.26,0.51,5.26,-5.26,-5.38,-4.22,-4.75,-4.75,-4.74
197.22,0.44,5.25,0.44,5.24,-5.24,-5.31,-4.21,-4.80,-4.80,-4.80
199.19,0.36,5.22,0.36,5.21,-5.21,-5.23,-4.21,-4.85,-4.85,-4.85
201.18,0.27,5.18,0.27,5.18,-5.17,-5.13,-4.22,-4.90,-4.90,-4.90
203.19,0.18,5.12,0.18,5.12,-5.13,-5.01,-4.22,-4.95,-4.95,-4.93
205.23,0.08,5.08,0.09,5.07,-5.08,-4.88,-4.22,-5.00,-4.99,-4.99
207.28,-0.01,5.01,-0.01,5.02,-5.02,-4.76,-4.23,-5.03,-5.03,-5.01
209.35,-0.11,4.97,-0.11,4.96,-4.95,-4.63,-4.24,-5.06,-5.06,-5.07
211.44,-0.24,4.89,-0.23,4.88,-4.87,-4.51,-4.24,-5.11,-5.10,-5.12
213.56,-0.37,4.80,-0.37,4.78,-4.78,-4.40,-4.25,-5.15,-5.16,-5.16
215.69,-0.52,4.67,-0.52,4.68,-4.69,-4.28,-4.25,-5.21,-5.21,-5.18
217.85,-0.68,4.55,-0.66,4.57,-4.58,-4.18,-4.25,-5.26,-5.24,-5.22
220.03,-0.79,4.48,-0.80,4.46,-4.46,-4.08,-4.26,-5.25,-5.26,-5.26
222.23,-0.94,4.36,-0.95,4.35,-4.33,-3.98,-4.26,-5.27,-5.28,-5.29
224.45,-1.12,4.20,-1.12,4.20,-4.19,-3.89,-4.25,-5.31,-5.31,-5.31
226.70,-1.30,4.05,-1.30,4.04,-4.04,-3.80,-4.24,-5.34,-5.34,-5.34
228.96,-1.51,3.87,-1.48,3.89,-3.89,-3.72,-4.23,-5.39,-5.37,-5.37
231.25,-1.65,3.74,-1.67,3.72,-3.72,-3.64,-4.22,-5.37,-5.39,-5.38
233.57,-1.85,3.56,-1.86,3.54,-3.55,-3.56,-4.20,-5.39,-5.40,-5.40
235.90,-2.08,3.34,-2.05,3.36,-3.36,-3.48,-4.17,-5.44,-5.42,-5.41
238.26,-2.24,3.19,-2.25,3.17,-3.18,-3.40,-4.14,-5.42,-5.43,-5.42
240.64,-2.45,2.99,-2.44,3.00,-2.99,-3.33,-4.10,-5.44,-5.43,-5.43
243.05,-2.62,2.82,-2.63,2.81,-2.81,-3.25,-4.05,-5.42,-5.43,-5.43
245.48,-2.81,2.64,-2.82,2.62,-2.62,-3.18,-4.00,-5.43,-5.44,-5.44
247.93,-3.03,2.42,-3.01,2.44,-2.44,-3.10,-3.94,-5.46,-5.44,-5.44
250.41,-3.18,2.27,-3.19,2.25,-2.26,-3.03,-3.87,-5.44,-5.45,-5.44
252.92,-3.37,2.07,-3.35,2.08,-2.09,-2.96,-3.79,-5.45,-5.44,-5.43
255.45,-3.50,1.93,-3.50,1.93,-1.92,-2.88,-3.71,-5.42,-5.42,-5.42
258.00,-3.63,1.79,-3.64,1.77,-1.77,-2.81,-3.62,-5.40,-5.42,-5.41
260.58,-3.79,1.63,-3.78,1.64,-1.63,-2.74,-3.52,-5.42,-5.41,-5.41
263.19,-3.90,1.51,-3.90,1.50,-1.51,-2.66,-3.41,-5.41,-5.41,-5.40
265.82,-4.01,1.39,-4.00,1.39,-1.41,-2.59,-3.30,-5.41,-5.40,-5.39
268.48,-4.07,1.31,-4.07,1.31,-1.31,-2.52,-3.18,-5.38,-5.38,-5.37
271.16,-4.12,1.24,-4.13,1.23,-1.24,-2.44,-3.05,-5.36,-5.37,-5.35
273.87,-4.18,1.18,-4.17,1.18,-1.18,-2.37,-2.92,-5.36,-5.35,-5.35
276.61,-4.20,1.13,-4.20,1.13,-1.14,-2.29,-2.78,-5.33,-5.34,-5.32
279.38,-4.22,1.11,-4.22,1.10,-1.11,-2.21,-2.64,-5.32,-5.33,-5.32
282.17,-4.23,1.08,-4.23,1.08,-1.09,-2.13,-2.49,-5.31,-5.31,-5.30
284.99,-4.23,1.07,-4.22,1.07,-1.07,-2.05,-2.34,-5.30,-5.30,-5.29
287.84,-4.22,1.07,-4.22,1.07,-1.06,-1.97,-2.18,-5.28,-5.28,-5.28
290.72,-4.21,1.07,-4.21,1.06,-1.05,-1.89,-2.02,-5.26,-5.26,-5.27
293.63,-4.21,1.05,-4.21,1.05,-1.04,-1.81,-1.86,-5.25,-5.24,-5.25
296.57,-4.21,1.03,-4.21,1.03,-1.02,-1.72,-1.69,-5.23,-5.24,-5.23
299.53,-4.23,1.01,-4.22,1.01,-1.00,-1.64,-1.52,-5.23,-5.23,-5.23
302.53,-4.25,0.98,-4.24,0.98,-0.98,-1.55,-1.35,-5.22,-5.22,-5.22
305.55,-4.26,0.95,-4.26,0.95,-0.94,-1.46,-1.17,-5.20,-5.21,-5.20
308.61,-4.29,0.91,-4.29,0.91,-0.91,-1.37,-1.00,-5.19,-5.19,-5.19
311.69,-4.32,0.87,-4.31,0.86,-0.87,-1.28,-0.82,-5.18,-5.18,-5.18
314.81,-4.35,0.81,-4.35,0.82,-0.82,-1.18,-0.64,-5.17,-5.17,-5.15
317.96,-4.39,0.78,-4.39,0.77,-0.77,-1.09,-0.46,-5.16,-5.16,-5.16
321.14,-4.44,0.72,-4.44,0.72,-0.72,-0.99,-0.28,-5.16,-5.16,-5.15
324.35,-4.49,0.67,-4.48,0.67,-0.67,-0.89,-0.10,-5.15,-5.15,-5.15
327.59,-4.54,0.61,-4.54,0.61,-0.61,-0.79,0.08,-5.14,-5.14,-5.14
330.87,-4.59,0.56,-4.59,0.55,-0.55,-0.68,0.27,-5.13,-5.14,-5.14
334.18,-4.66,0.49,-4.66,0.48,-0.48,-0.58,0.46,-5.14,-5.14,-5.14
337.52,-4.74,0.40,-4.73,0.41,-0.41,-0.47,0.64,-5.15,-5.14,-5.13
340.90,-4.80,0.34,-4.80,0.33,-0.34,-0.36,0.83,-5.14,-5.14,-5.13
344.30,-4.88,0.26,-4.87,0.26,-0.27,-0.24,1.02,-5.14,-5.14,-5.13
347.75,-4.95,0.19,-4.95,0.19,-0.19,-0.13,1.21,-5.14,-5.13,-5.13
351.23,-5.03,0.11,-5.03,0.10,-0.10,-0.00,1.40,-5.13,-5.13,-5.13
354.74,-5.12,0.02,-5.12,0.02,-0.01,0.12,1.59,-5.13,-5.13,-5.13
358.28,-5.23,-0.07,-5.22,-0.08,0.08,0.24,1.79,-5.14,-5.14,-5.15
361.87,-5.33,-0.17,-5.34,-0.18,0.19,0.37,1.98,-5.14,-5.15,-5.15
365.49,-5.47,-0.31,-5.45,-0.30,0.30,0.51,2.18,-5.17,-5.15,-5.15
369.14,-5.58,-0.41,-5.58,-0.42,0.42,0.65,2.37,-5.16,-5.16,-5.16
372.83,-5.71,-0.54,-5.72,-0.55,0.55,0.79,2.57,-5.16,-5.17,-5.16
376.56,-5.87,-0.69,-5.86,-0.69,0.68,0.93,2.77,-5.19,-5.18,-5.17
380.33,-6.01,-0.82,-6.01,-0.83,0.81,1.08,2.97,-5.20,-5.20,-5.18
384.13,-6.17,-0.97,-6.16,-0.96,0.95,1.23,3.17,-5.22,-5.20,-5.19
387.97,-6.30,-1.09,-6.30,-1.10,1.10,1.39,3.38,-5.20,-5.20,-5.20
391.85,-6.45,-1.23,-6.45,-1.25,1.25,1.55,3.58,-5.20,-5.20,-5.21
395.77,-6.62,-1.41,-6.61,-1.40,1.41,1.72,3.78,-5.20,-5.20,-5.20
399.73,-6.80,-1.58,-6.79,-1.58,1.59,1.89,3.99,-5.21,-5.21,-5.21
403.72,-6.98,-1.75,-6.98,-1.76,1.77,2.07,4.19,-5.21,-5.21,-5.22
407.76,-7.19,-1.95,-7.18,-1.96,1.96,2.25,4.40,-5.23,-5.22,-5.23
411.84,-7.40,-2.17,-7.40,-2.17,2.16,2.44,4.60,-5.23,-5.24,-5.22
415.96,-7.63,-2.38,-7.63,-2.39,2.38,2.63,4.80,-5.25,-5.25,-5.24
420.12,-7.86,-2.61,-7.85,-2.61,2.60,2.83,5.00,-5.26,-5.25,-5.24
424.32,-8.09,-2.84,-8.07,-2.82,2.83,3.03,5.20,-5.26,-5.25,-5.24
428.56,-8.29,-3.03,-8.30,-3.05,3.06,3.24,5.40,-5.23,-5.24,-5.25
432.85,-8.54,-3.28,-8.54,-3.29,3.30,3.46,5.59,-5.23,-5.24,-5.25
437.18,-8.82,-3.56,-8.80,-3.55,3.55,3.68,5.78,-5.27,-5.25,-5.25
441.55,-9.07,-3.82,-9.08,-3.83,3.80,3.91,5.96,-5.27,-5.28,-5.24
445.96,-9.36,-4.11,-9.36,-4.12,4.06,4.14,6.13,-5.30,-5.31,-5.24
450.42,-9.68,-4.42,-9.66,-4.41,4.32,4.38,6.30,-5.36,-5.34,-5.25
454.93,-9.95,-4.70,-9.96,-4.72,4.58,4.63,6.46,-5.37,-5.39,-5.24
459.48,-10.28,-5.03,-10.26,-5.02,4.84,4.88,6.60,-5.44,-5.42,-5.24
464.07,-10.56,-5.32,-10.56,-5.32,5.10,5.13,6.73,-5.46,-5.46,-5.23
468.71,-10.86,-5.63,-10.87,-5.64,5.36,5.39,6.85,-5.50,-5.52,-5.22
473.40,-11.20,-5.96,-11.19,-5.96,5.61,5.65,6.96,-5.58,-5.57,-5.23
478.13,-11.52,-6.29,-11.51,-6.29,5.87,5.91,7.04,-5.65,-5.64,-5.22
