frequency,raw,error,smoothed,error_smoothed,equalization,parametric_eq,fixed_band_eq,equalized_raw,equalized_smoothed,target
20.00,13.18,1.11,13.18,1.11,-1.11,-1.26,-0.77,12.07,12.07,12.07
20.20,13.20,1.14,13.20,1.14,-1.14,-1.30,-0.79,12.06,12.06,12.06
20.40,13.21,1.16,13.21,1.17,-1.17,-1.34,-0.81,12.04,12.05,12.05
20.61,13.23,1.19,13.23,1.20,-1.20,-1.37,-0.83,12.03,12.04,12.04
20.81,13.25,1.23,13.25,1.22,-1.22,-1.41,-0.85,12.03,12.02,12.02
21.02,13.26,1.25,13.26,1.25,-1.25,-1.44,-0.88,12.01,12.01,12.01
21.23,13.28,1.28,13.28,1.28,-1.28,-1.48,-0.90,12.00,12.00,12.00
21.44,13.30,1.29,13.30,1.30,-1.30,-1.51,-0.92,12.00,11.99,12.01
21.66,13.31,1.32,13.31,1.33,-1.33,-1.54,-0.95,11.98,11.98,11.99
21.87,13.33,1.34,13.33,1.35,-1.35,-1.57,-0.97,11.98,11.98,11.99
22.09,13.35,1.38,13.34,1.38,-1.38,-1.60,-1.00,11.97,11.97,11.97
22.31,13.36,1.40,13.36,1.40,-1.40,-1.63,-1.03,11.96,11.96,11.96
22.54,13.37,1.42,13.37,1.42,-1.42,-1.65,-1.05,11.95,11.96,11.95
22.76,13.39,1.44,13.39,1.44,-1.44,-1.67,-1.08,11.95,11.95,11.95
22.99,13.40,1.46,13.40,1.46,-1.46,-1.69,-1.11,11.94,11.94,11.94
23.22,13.41,1.48,13.42,1.48,-1.48,-1.71,-1.14,11.93,11.94,11.93
23.45,13.43,1.49,13.43,1.50,-1.50,-1.72,-1.17,11.93,11.93,11.94
23.69,13.44,1.51,13.44,1.51,-1.51,-1.74,-1.20,11.93,11.93,11.93
23.92,13.46,1.54,13.46,1.53,-1.53,-1.74,-1.23,11.93,11.92,11.92
24.16,13.47,1.54,13.47,1.55,-1.55,-1.75,-1.26,11.92,11.92,11.93
24.40,13.48,1.55,13.48,1.56,-1.56,-1.76,-1.29,11.92,11.92,11.93
24.65,13.49,1.57,13.49,1.58,-1.58,-1.76,-1.33,11.91,11.92,11.92
24.89,13.50,1.58,13.51,1.59,-1.59,-1.76,-1.36,11.91,11.92,11.92
25.14,13.52,1.61,13.52,1.60,-1.60,-1.76,-1.39,11.92,11.91,11.91
25.39,13.53,1.62,13.53,1.62,-1.62,-1.76,-1.42,11.91,11.91,11.91
25.65,13.54,1.63,13.54,1.63,-1.63,-1.75,-1.46,11.91,11.91,11.91
25.91,13.55,1.64,13.55,1.64,-1.64,-1.75,-1.49,11.91,11.91,11.91
26.16,13.56,1.64,13.56,1.65,-1.65,-1.75,-1.52,11.91,11.91,11.92
26.43,13.57,1.66,13.57,1.66,-1.66,-1.74,-1.56,11.91,11.91,11.91
26.69,13.58,1.67,13.58,1.67,-1.67,-1.74,-1.59,11.91,11.91,11.91
26.96,13.59,1.68,13.59,1.68,-1.68,-1.73,-1.62,11.91,11.91,11.91
27.23,13.59,1.68,13.59,1.68,-1.68,-1.72,-1.65,11.91,11.91,11.91
27.50,13.60,1.69,13.60,1.69,-1.69,-1.72,-1.68,11.91,11.91,11.91
27.77,13.61,1.69,13.61,1.69,-1.69,-1.71,-1.71,11.92,11.92,11.92
28.05,13.61,1.70,13.61,1.70,-1.70,-1.71,-1.74,11.91,11.92,11.91
28.33,13.62,1.70,13.62,1.70,-1.70,-1.71,-1.77,11.92,11.92,11.92
28.62,13.62,1.70,13.62,1.70,-1.70,-1.70,-1.79,11.92,11.92,11.92
28.90,13.63,1.70,13.63,1.71,-1.71,-1.70,-1.82,11.92,11.92,11.93
29.19,13.63,1.70,13.63,1.71,-1.71,-1.70,-1.84,11.92,11.92,11.93
29.48,13.63,1.71,13.63,1.72,-1.72,-1.70,-1.86,11.91,11.92,11.92
29.78,13.64,1.72,13.64,1.72,-1.72,-1.70,-1.88,11.92,11.92,11.92
30.08,13.64,1.72,13.64,1.73,-1.73,-1.70,-1.90,11.91,11.91,11.92
30.38,13.64,1.74,13.64,1.73,-1.73,-1.70,-1.92,11.91,11.91,11.90
30.68,13.64,1.74,13.64,1.74,-1.74,-1.70,-1.93,11.90,11.90,11.90
30.99,13.64,1.74,13.64,1.74,-1.74,-1.71,-1.95,11.90,11.90,11.90
31.30,13.64,1.74,13.64,1.75,-1.75,-1.71,-1.96,11.89,11.89,11.90
31.61,13.64,1.75,13.64,1.75,-1.75,-1.71,-1.96,11.89,11.89,11.89
31.93,13.64,1.77,13.64,1.76,-1.76,-1.72,-1.97,11.88,11.88,11.87
32.24,13.64,1.76,13.63,1.76,-1.76,-1.73,-1.98,11.88,11.87,11.88
32.57,13.63,1.77,13.62,1.76,-1.76,-1.73,-1.98,11.87,11.86,11.86
32.89,13.62,1.76,13.61,1.76,-1.76,-1.74,-1.98,11.86,11.86,11.86
33.22,13.61,1.76,13.60,1.75,-1.75,-1.75,-1.98,11.86,11.85,11.85
33.55,13.60,1.75,13.59,1.75,-1.75,-1.76,-1.98,11.85,11.85,11.85
33.89,13.58,1.74,13.58,1.74,-1.74,-1.77,-1.97,11.84,11.84,11.84
34.23,13.57,1.75,13.57,1.74,-1.74,-1.78,-1.97,11.83,11.83,11.82
34.57,13.55,1.73,13.56,1.73,-1.73,-1.79,-1.97,11.82,11.82,11.82
34.92,13.53,1.73,13.54,1.73,-1.73,-1.80,-1.96,11.80,11.81,11.80
35.27,13.52,1.70,13.53,1.73,-1.73,-1.81,-1.95,11.79,11.80,11.82
35.62,13.51,1.72,13.52,1.73,-1.73,-1.83,-1.95,11.78,11.79,11.79
35.97,13.50,1.71,13.50,1.73,-1.73,-1.84,-1.94,11.77,11.78,11.79
36.33,13.49,1.72,13.49,1.73,-1.73,-1.85,-1.93,11.76,11.76,11.77
36.70,13.48,1.73,13.48,1.73,-1.73,-1.87,-1.93,11.75,11.75,11.75
37.06,13.47,1.74,13.47,1.74,-1.74,-1.88,-1.92,11.73,11.73,11.73
37.43,13.46,1.75,13.46,1.75,-1.75,-1.90,-1.91,11.71,11.71,11.71
37.81,13.45,1.75,13.45,1.76,-1.76,-1.91,-1.91,11.69,11.69,11.70
38.19,13.44,1.77,13.44,1.77,-1.77,-1.93,-1.90,11.67,11.67,11.67
38.57,13.43,1.78,13.43,1.78,-1.78,-1.95,-1.89,11.65,11.65,11.65
38.95,13.42,1.78,13.42,1.79,-1.79,-1.96,-1.89,11.63,11.63,11.64
39.34,13.41,1.80,13.41,1.80,-1.80,-1.98,-1.89,11.61,11.61,11.61
39.74,13.40,1.82,13.39,1.81,-1.81,-2.00,-1.88,11.59,11.59,11.58
40.14,13.38,1.82,13.38,1.82,-1.82,-2.02,-1.88,11.56,11.56,11.56
40.54,13.37,1.83,13.37,1.82,-1.82,-2.04,-1.88,11.55,11.54,11.54
40.94,13.35,1.84,13.35,1.83,-1.83,-2.06,-1.89,11.52,11.52,11.51
41.35,13.34,1.84,13.33,1.84,-1.84,-2.08,-1.89,11.50,11.50,11.50
41.76,13.32,1.85,13.32,1.84,-1.84,-2.10,-1.89,11.48,11.47,11.47
42.18,13.30,1.84,13.30,1.85,-1.85,-2.12,-1.90,11.45,11.45,11.46
42.60,13.29,1.86,13.29,1.86,-1.86,-2.14,-1.90,11.43,11.43,11.43
43.03,13.27,1.86,13.27,1.87,-1.87,-2.16,-1.91,11.40,11.40,11.41
43.46,13.25,1.88,13.26,1.88,-1.88,-2.18,-1.92,11.37,11.38,11.37
43.90,13.23,1.88,13.24,1.89,-1.89,-2.20,-1.93,11.34,11.35,11.35
44.33,13.22,1.90,13.23,1.91,-1.91,-2.22,-1.95,11.31,11.32,11.32
44.78,13.21,1.91,13.22,1.93,-1.93,-2.24,-1.96,11.28,11.29,11.30
45.23,13.20,1.92,13.21,1.95,-1.95,-2.26,-1.98,11.25,11.26,11.28
45.68,13.19,1.96,13.20,1.97,-1.97,-2.28,-1.99,11.22,11.23,11.23
46.13,13.19,1.99,13.19,1.99,-1.99,-2.31,-2.01,11.20,11.19,11.20
46.60,13.18,2.02,13.18,2.02,-2.02,-2.33,-2.03,11.16,11.16,11.16
47.06,13.17,2.04,13.16,2.04,-2.04,-2.35,-2.06,11.13,11.12,11.13
47.53,13.16,2.07,13.15,2.07,-2.07,-2.37,-2.08,11.09,11.08,11.09
48.01,13.15,2.11,13.13,2.09,-2.09,-2.40,-2.10,11.06,11.04,11.04
48.49,13.13,2.13,13.12,2.12,-2.12,-2.42,-2.13,11.01,11.00,11.00
48.97,13.10,2.15,13.10,2.14,-2.14,-2.44,-2.16,10.96,10.96,10.95
49.46,13.08,2.16,13.08,2.16,-2.16,-2.47,-2.18,10.92,10.92,10.92
49.96,13.06,2.20,13.06,2.18,-2.18,-2.49,-2.21,10.88,10.87,10.86
50.46,13.03,2.20,13.03,2.20,-2.20,-2.51,-2.24,10.83,10.83,10.83
50.96,13.00,2.21,13.01,2.22,-2.22,-2.54,-2.27,10.78,10.79,10.79
51.47,12.98,2.23,12.99,2.24,-2.24,-2.56,-2.31,10.74,10.75,10.75
51.99,12.95,2.25,12.96,2.25,-2.25,-2.58,-2.34,10.70,10.71,10.70
52.51,12.93,2.26,12.94,2.27,-2.27,-2.61,-2.37,10.66,10.66,10.67
53.03,12.91,2.27,12.91,2.29,-2.29,-2.63,-2.41,10.62,10.62,10.64
53.56,12.89,2.30,12.89,2.30,-2.30,-2.66,-2.44,10.58,10.58,10.59
54.10,12.87,2.33,12.86,2.32,-2.32,-2.68,-2.47,10.55,10.54,10.54
54.64,12.84,2.34,12.84,2.34,-2.34,-2.70,-2.51,10.50,10.50,10.50
55.18,12.82,2.36,12.82,2.35,-2.35,-2.73,-2.54,10.47,10.47,10.46
55.74,12.79,2.38,12.79,2.36,-2.36,-2.75,-2.57,10.43,10.43,10.41
56.29,12.77,2.38,12.77,2.38,-2.38,-2.78,-2.60,10.39,10.39,10.39
56.86,12.75,2.40,12.75,2.40,-2.40,-2.80,-2.63,10.35,10.35,10.35
57.42,12.72,2.42,12.72,2.41,-2.41,-2.83,-2.66,10.31,10.31,10.30
58.00,12.70,2.44,12.70,2.43,-2.43,-2.85,-2.69,10.27,10.26,10.26
58.58,12.67,2.44,12.67,2.45,-2.45,-2.87,-2.72,10.22,10.22,10.23
59.16,12.64,2.44,12.64,2.47,-2.47,-2.90,-2.74,10.17,10.17,10.20
59.76,12.62,2.47,12.62,2.49,-2.49,-2.92,-2.77,10.13,10.13,10.15
60.35,12.59,2.49,12.59,2.51,-2.51,-2.95,-2.79,10.08,10.08,10.10
60.96,12.56,2.52,12.56,2.53,-2.53,-2.97,-2.81,10.03,10.03,10.04
61.57,12.54,2.56,12.54,2.56,-2.56,-3.00,-2.83,9.98,9.98,9.98
62.18,12.51,2.59,12.51,2.58,-2.58,-3.02,-2.84,9.93,9.93,9.92
62.80,12.48,2.62,12.48,2.61,-2.61,-3.04,-2.86,9.87,9.87,9.86
63.43,12.45,2.64,12.45,2.63,-2.63,-3.07,-2.87,9.82,9.82,9.81
64.07,12.42,2.66,12.42,2.65,-2.65,-3.09,-2.88,9.77,9.77,9.76
64.71,12.39,2.68,12.39,2.68,-2.68,-3.11,-2.89,9.72,9.71,9.71
65.35,12.36,2.71,12.35,2.70,-2.70,-3.14,-2.89,9.66,9.66,9.65
66.01,12.33,2.73,12.32,2.72,-2.72,-3.16,-2.90,9.61,9.60,9.60
66.67,12.30,2.74,12.29,2.74,-2.74,-3.19,-2.90,9.56,9.55,9.56
67.33,12.26,2.77,12.26,2.77,-2.77,-3.21,-2.90,9.49,9.49,9.49
68.01,12.23,2.79,12.23,2.79,-2.79,-3.23,-2.90,9.44,9.44,9.44
68.69,12.20,2.81,12.20,2.82,-2.82,-3.25,-2.90,9.38,9.38,9.39
69.37,12.16,2.82,12.18,2.85,-2.85,-3.28,-2.90,9.31,9.33,9.34
70.07,12.13,2.85,12.15,2.88,-2.88,-3.30,-2.90,9.25,9.27,9.28
70.77,12.11,2.90,12.13,2.92,-2.92,-3.32,-2.90,9.19,9.21,9.21
71.48,12.09,2.93,12.10,2.95,-2.95,-3.35,-2.89,9.14,9.15,9.16
72.19,12.08,2.98,12.08,2.99,-2.99,-3.37,-2.89,9.09,9.10,9.10
72.91,12.07,3.04,12.06,3.02,-3.02,-3.39,-2.89,9.05,9.04,9.03
73.64,12.06,3.08,12.05,3.06,-3.06,-3.41,-2.89,9.00,8.98,8.98
74.38,12.04,3.12,12.03,3.10,-3.10,-3.43,-2.88,8.94,8.93,8.92
75.12,12.03,3.16,12.01,3.14,-3.14,-3.45,-2.88,8.89,8.87,8.87
75.87,12.00,3.18,12.00,3.18,-3.18,-3.48,-2.88,8.82,8.82,8.82
76.63,11.98,3.22,11.99,3.22,-3.22,-3.50,-2.89,8.76,8.77,8.76
77.40,11.96,3.24,11.97,3.26,-3.26,-3.52,-2.89,8.70,8.72,8.72
78.17,11.95,3.29,11.96,3.29,-3.29,-3.54,-2.89,8.66,8.66,8.66
78.95,11.93,3.31,11.94,3.32,-3.32,-3.56,-2.90,8.61,8.62,8.62
79.74,11.92,3.35,11.92,3.35,-3.35,-3.58,-2.91,8.57,8.57,8.57
80.54,11.90,3.38,11.90,3.38,-3.38,-3.60,-2.92,8.52,8.52,8.52
81.35,11.88,3.42,11.87,3.41,-3.41,-3.62,-2.93,8.47,8.47,8.46
82.16,11.86,3.43,11.85,3.43,-3.43,-3.64,-2.94,8.43,8.42,8.43
82.98,11.84,3.47,11.82,3.46,-3.46,-3.66,-2.96,8.38,8.36,8.37
83.81,11.81,3.49,11.79,3.48,-3.48,-3.67,-2.97,8.33,8.31,8.32
84.65,11.77,3.51,11.77,3.51,-3.51,-3.69,-2.99,8.26,8.26,8.26
85.50,11.74,3.54,11.74,3.53,-3.53,-3.71,-3.02,8.21,8.20,8.20
86.35,11.70,3.55,11.71,3.56,-3.56,-3.73,-3.04,8.14,8.15,8.15
87.22,11.66,3.56,11.68,3.58,-3.58,-3.75,-3.07,8.08,8.10,8.10
88.09,11.63,3.59,11.65,3.61,-3.61,-3.76,-3.10,8.02,8.04,8.04
88.97,11.59,3.61,11.61,3.63,-3.63,-3.78,-3.13,7.96,7.98,7.98
89.86,11.57,3.64,11.58,3.65,-3.65,-3.80,-3.16,7.92,7.93,7.93
90.76,11.55,3.68,11.54,3.68,-3.68,-3.81,-3.20,7.87,7.87,7.87
91.66,11.52,3.72,11.51,3.70,-3.70,-3.83,-3.24,7.82,7.81,7.80
92.58,11.49,3.74,11.47,3.72,-3.72,-3.84,-3.28,7.77,7.75,7.75
93.51,11.45,3.75,11.43,3.74,-3.74,-3.86,-3.32,7.71,7.69,7.70
94.44,11.40,3.76,11.39,3.77,-3.77,-3.87,-3.37,7.63,7.62,7.64
95.39,11.35,3.78,11.35,3.79,-3.79,-3.89,-3.42,7.56,7.56,7.57
96.34,11.31,3.81,11.32,3.81,-3.81,-3.90,-3.47,7.50,7.50,7.50
97.30,11.27,3.83,11.28,3.84,-3.84,-3.91,-3.52,7.43,7.44,7.44
98.28,11.23,3.86,11.24,3.86,-3.86,-3.93,-3.57,7.37,7.38,7.37
99.26,11.18,3.87,11.20,3.88,-3.88,-3.94,-3.63,7.30,7.32,7.31
100.25,11.14,3.89,11.15,3.89,-3.89,-3.95,-3.68,7.25,7.26,7.25
101.25,11.09,3.89,11.11,3.91,-3.91,-3.96,-3.74,7.18,7.20,7.20
102.27,11.06,3.92,11.07,3.93,-3.93,-3.98,-3.80,7.13,7.14,7.14
103.29,11.04,3.96,11.03,3.94,-3.94,-3.99,-3.86,7.10,7.08,7.08
104.32,11.01,3.98,10.98,3.95,-3.95,-4.00,-3.92,7.06,7.03,7.03
105.37,10.96,3.99,10.94,3.96,-3.96,-4.01,-3.98,7.00,6.97,6.97
106.42,10.90,3.98,10.89,3.97,-3.97,-4.02,-4.04,6.93,6.91,6.92
107.48,10.85,3.99,10.84,3.98,-3.98,-4.03,-4.10,6.87,6.86,6.86
108.56,10.79,3.98,10.79,3.99,-3.99,-4.04,-4.16,6.80,6.80,6.81
109.64,10.74,3.99,10.75,4.00,-4.00,-4.05,-4.21,6.74,6.74,6.75
110.74,10.69,4.00,10.70,4.01,-4.01,-4.05,-4.27,6.68,6.68,6.69
111.85,10.65,4.02,10.65,4.02,-4.02,-4.06,-4.32,6.63,6.62,6.63
112.97,10.59,4.01,10.60,4.03,-4.03,-4.07,-4.37,6.56,6.57,6.58
114.10,10.53,4.01,10.55,4.04,-4.04,-4.07,-4.42,6.49,6.51,6.52
115.24,10.47,4.03,10.50,4.05,-4.05,-4.08,-4.47,6.42,6.45,6.44
116.39,10.45,4.07,10.45,4.06,-4.06,-4.09,-4.51,6.39,6.39,6.38
117.55,10.41,4.09,10.41,4.07,-4.07,-4.09,-4.55,6.34,6.33,6.32
118.73,10.37,4.11,10.36,4.08,-4.08,-4.10,-4.58,6.29,6.28,6.26
119.92,10.32,4.10,10.31,4.09,-4.09,-4.10,-4.61,6.23,6.22,6.22
121.12,10.26,4.09,10.27,4.10,-4.10,-4.10,-4.63,6.16,6.16,6.17
122.33,10.23,4.12,10.22,4.11,-4.11,-4.11,-4.65,6.12,6.11,6.11
123.55,10.18,4.12,10.17,4.12,-4.12,-4.11,-4.66,6.06,6.05,6.06
124.79,10.12,4.11,10.12,4.13,-4.13,-4.11,-4.67,5.99,6.00,6.01
126.03,10.07,4.12,10.08,4.14,-4.14,-4.12,-4.67,5.93,5.94,5.95
127.29,10.04,4.14,10.03,4.14,-4.14,-4.12,-4.67,5.90,5.89,5.90
128.57,10.00,4.17,9.98,4.14,-4.14,-4.12,-4.66,5.86,5.83,5.83
129.85,9.92,4.14,9.92,4.14,-4.14,-4.12,-4.64,5.78,5.78,5.78
131.15,9.85,4.13,9.87,4.14,-4.14,-4.12,-4.62,5.71,5.72,5.72
132.46,9.81,4.14,9.82,4.15,-4.15,-4.12,-4.60,5.66,5.67,5.67
133.79,9.76,4.15,9.76,4.15,-4.15,-4.11,-4.57,5.61,5.61,5.61
135.12,9.71,4.15,9.71,4.15,-4.15,-4.11,-4.54,5.56,5.56,5.56
136.48,9.67,4.16,9.66,4.15,-4.15,-4.11,-4.50,5.52,5.51,5.51
137.84,9.60,4.14,9.60,4.15,-4.15,-4.11,-4.46,5.45,5.46,5.46
139.22,9.55,4.15,9.55,4.14,-4.14,-4.10,-4.42,5.41,5.40,5.40
140.61,9.49,4.13,9.49,4.14,-4.14,-4.10,-4.38,5.35,5.36,5.36
142.02,9.42,4.12,9.44,4.13,-4.13,-4.10,-4.33,5.29,5.31,5.30
143.44,9.39,4.13,9.39,4.13,-4.13,-4.09,-4.28,5.26,5.26,5.26
144.87,9.35,4.13,9.34,4.12,-4.12,-4.08,-4.23,5.23,5.22,5.22
146.32,9.30,4.13,9.28,4.11,-4.11,-4.08,-4.18,5.19,5.17,5.17
147.78,9.23,4.10,9.23,4.10,-4.10,-4.07,-4.13,5.13,5.13,5.13
149.26,9.18,4.10,9.18,4.10,-4.10,-4.06,-4.08,5.08,5.08,5.08
150.75,9.11,4.07,9.13,4.09,-4.09,-4.06,-4.02,5.02,5.04,5.04
152.26,9.07,4.07,9.08,4.08,-4.08,-4.05,-3.97,4.99,5.00,5.00
153.78,9.03,4.07,9.03,4.08,-4.08,-4.04,-3.92,4.95,4.95,4.96
155.32,8.99,4.07,8.98,4.07,-4.07,-4.03,-3.88,4.92,4.91,4.92
156.88,8.93,4.06,8.93,4.07,-4.07,-4.02,-3.83,4.86,4.87,4.87
158.44,8.88,4.06,8.89,4.06,-4.06,-4.01,-3.78,4.82,4.82,4.82
160.03,8.82,4.04,8.84,4.06,-4.06,-4.00,-3.74,4.76,4.78,4.78
161.63,8.79,4.05,8.79,4.06,-4.06,-3.98,-3.70,4.73,4.73,4.74
163.24,8.76,4.07,8.74,4.05,-4.05,-3.97,-3.66,4.71,4.69,4.69
164.88,8.70,4.06,8.70,4.05,-4.05,-3.96,-3.62,4.65,4.64,4.64
166.53,8.65,4.06,8.65,4.05,-4.05,-3.94,-3.59,4.60,4.59,4.59
168.19,8.60,4.04,8.60,4.05,-4.05,-3.93,-3.55,4.55,4.55,4.56
169.87,8.54,4.04,8.54,4.05,-4.05,-3.91,-3.52,4.49,4.50,4.50
171.57,8.49,4.04,8.49,4.04,-4.04,-3.90,-3.50,4.45,4.45,4.45
173.29,8.45,4.04,8.44,4.03,-4.03,-3.88,-3.47,4.42,4.40,4.41
175.02,8.38,4.02,8.38,4.02,-4.02,-3.86,-3.45,4.36,4.36,4.36
176.77,8.33,4.02,8.33,4.01,-4.01,-3.85,-3.43,4.32,4.31,4.31
178.54,8.27,4.00,8.27,4.00,-4.00,-3.83,-3.41,4.27,4.27,4.27
180.32,8.21,4.00,8.21,3.99,-3.99,-3.81,-3.40,4.22,4.22,4.21
182.13,8.16,3.98,8.15,3.98,-3.98,-3.79,-3.39,4.18,4.17,4.18
183.95,8.07,3.94,8.09,3.96,-3.96,-3.77,-3.38,4.11,4.13,4.13
185.79,8.03,3.95,8.03,3.95,-3.95,-3.75,-3.37,4.08,4.08,4.08
187.65,7.96,3.92,7.97,3.93,-3.93,-3.73,-3.37,4.03,4.04,4.04
189.52,7.90,3.90,7.91,3.91,-3.91,-3.71,-3.37,3.99,3.99,4.00
191.42,7.85,3.89,7.85,3.90,-3.90,-3.68,-3.37,3.95,3.95,3.96
193.33,7.79,3.87,7.79,3.88,-3.88,-3.66,-3.37,3.91,3.91,3.92
195.27,7.73,3.86,7.73,3.85,-3.85,-3.64,-3.38,3.88,3.87,3.87
197.22,7.67,3.85,7.66,3.83,-3.83,-3.61,-3.38,3.84,3.83,3.82
199.19,7.61,3.82,7.60,3.81,-3.81,-3.59,-3.39,3.80,3.80,3.79
201.18,7.54,3.79,7.54,3.78,-3.78,-3.56,-3.40,3.76,3.76,3.75
203.19,7.48,3.76,7.49,3.76,-3.76,-3.53,-3.42,3.72,3.72,3.72
205.23,7.43,3.73,7.43,3.74,-3.74,-3.51,-3.43,3.69,3.69,3.70
207.28,7.37,3.70,7.37,3.71,-3.71,-3.48,-3.44,3.66,3.66,3.67
209.35,7.31,3.68,7.31,3.68,-3.68,-3.45,-3.46,3.63,3.63,3.63
211.44,7.25,3.65,7.25,3.66,-3.66,-3.42,-3.47,3.59,3.60,3.60
213.56,7.18,3.60,7.20,3.63,-3.63,-3.39,-3.49,3.55,3.57,3.58
215.69,7.14,3.59,7.14,3.60,-3.60,-3.36,-3.50,3.54,3.54,3.55
217.85,7.08,3.56,7.09,3.57,-3.57,-3.33,-3.51,3.51,3.52,3.52
220.03,7.05,3.56,7.03,3.54,-3.54,-3.30,-3.53,3.51,3.49,3.49
222.23,6.99,3.53,6.98,3.51,-3.51,-3.26,-3.54,3.48,3.47,3.46
224.45,6.93,3.48,6.93,3.48,-3.48,-3.23,-3.55,3.45,3.45,3.45
226.70,6.86,3.44,6.88,3.45,-3.45,-3.20,-3.56,3.41,3.42,3.42
228.96,6.81,3.40,6.82,3.42,-3.42,-3.16,-3.56,3.39,3.40,3.41
231.25,6.79,3.40,6.77,3.39,-3.39,-3.13,-3.56,3.40,3.39,3.39
233.57,6.73,3.36,6.72,3.35,-3.35,-3.09,-3.56,3.38,3.37,3.37
235.90,6.66,3.30,6.67,3.31,-3.31,-3.05,-3.56,3.35,3.36,3.36
238.26,6.61,3.28,6.62,3.27,-3.27,-3.02,-3.55,3.34,3.34,3.33
240.64,6.56,3.22,6.57,3.23,-3.23,-2.98,-3.54,3.33,3.33,3.34
243.05,6.52,3.20,6.51,3.19,-3.19,-2.94,-3.52,3.33,3.32,3.32
245.48,6.47,3.16,6.46,3.15,-3.15,-2.90,-3.50,3.32,3.31,3.31
247.93,6.41,3.11,6.41,3.11,-3.11,-2.86,-3.47,3.30,3.31,3.30
250.41,6.36,3.05,6.36,3.06,-3.06,-2.82,-3.44,3.30,3.30,3.31
252.92,6.29,2.99,6.31,3.01,-3.01,-2.78,-3.41,3.28,3.30,3.30
255.45,6.25,2.96,6.25,2.96,-2.96,-2.74,-3.37,3.29,3.29,3.29
258.00,6.21,2.92,6.20,2.91,-2.91,-2.70,-3.32,3.30,3.29,3.29
260.58,6.16,2.87,6.15,2.86,-2.86,-2.65,-3.27,3.30,3.28,3.29
263.19,6.11,2.82,6.09,2.81,-2.81,-2.61,-3.22,3.30,3.28,3.29
265.82,6.04,2.76,6.04,2.76,-2.76,-2.56,-3.16,3.28,3.28,3.28
268.48,5.97,2.69,5.98,2.70,-2.70,-2.52,-3.10,3.27,3.28,3.28
271.16,5.92,2.64,5.92,2.65,-2.65,-2.47,-3.03,3.27,3.27,3.28
273.87,5.85,2.57,5.86,2.59,-2.59,-2.43,-2.96,3.26,3.27,3.28
276.61,5.80,2.52,5.80,2.53,-2.53,-2.38,-2.88,3.27,3.27,3.28
279.38,5.74,2.48,5.74,2.47,-2.47,-2.33,-2.81,3.27,3.27,3.26
282.17,5.69,2.43,5.68,2.41,-2.41,-2.28,-2.73,3.28,3.27,3.26
284.99,5.63,2.36,5.62,2.35,-2.35,-2.23,-2.65,3.28,3.27,3.27
287.84,5.55,2.27,5.56,2.28,-2.28,-2.18,-2.56,3.27,3.27,3.28
290.72,5.50,2.23,5.50,2.22,-2.22,-2.13,-2.48,3.28,3.28,3.27
293.63,5.43,2.15,5.43,2.15,-2.15,-2.08,-2.39,3.28,3.28,3.28
296.57,5.38,2.09,5.37,2.09,-2.09,-2.03,-2.30,3.29,3.28,3.29
299.53,5.31,2.02,5.31,2.02,-2.02,-1.98,-2.21,3.29,3.29,3.29
302.53,5.25,1.94,5.25,1.95,-1.95,-1.93,-2.12,3.30,3.30,3.31
305.55,5.18,1.88,5.19,1.88,-1.88,-1.87,-2.03,3.30,3.30,3.30
308.61,5.11,1.80,5.12,1.81,-1.81,-1.82,-1.94,3.30,3.31,3.31
311.69,5.05,1.73,5.06,1.74,-1.74,-1.76,-1.85,3.31,3.32,3.32
314.81,5.00,1.68,4.99,1.67,-1.67,-1.71,-1.75,3.33,3.32,3.32
317.96,4.94,1.61,4.93,1.60,-1.60,-1.65,-1.66,3.34,3.33,3.33
321.14,4.87,1.53,4.86,1.53,-1.53,-1.60,-1.57,3.34,3.34,3.34
324.35,4.80,1.46,4.80,1.45,-1.45,-1.54,-1.48,3.35,3.35,3.34
327.59,4.73,1.36,4.74,1.38,-1.38,-1.48,-1.39,3.35,3.35,3.37
330.87,4.67,1.31,4.67,1.31,-1.31,-1.42,-1.29,3.36,3.36,3.36
334.18,4.61,1.24,4.61,1.24,-1.24,-1.36,-1.20,3.37,3.37,3.37
337.52,4.53,1.16,4.54,1.16,-1.16,-1.30,-1.11,3.37,3.38,3.37
340.90,4.47,1.08,4.48,1.09,-1.09,-1.24,-1.02,3.38,3.39,3.39
344.30,4.40,1.00,4.41,1.02,-1.02,-1.18,-0.94,3.38,3.39,3.40
347.75,4.36,0.96,4.34,0.94,-0.94,-1.12,-0.85,3.42,3.40,3.40
351.23,4.29,0.89,4.28,0.87,-0.87,-1.06,-0.76,3.42,3.41,3.40
354.74,4.22,0.79,4.21,0.80,-0.80,-1.00,-0.67,3.42,3.42,3.43
358.28,4.15,0.73,4.15,0.73,-0.73,-0.93,-0.58,3.42,3.42,3.42
361.87,4.08,0.65,4.09,0.66,-0.66,-0.87,-0.50,3.42,3.43,3.43
365.49,4.02,0.58,4.02,0.59,-0.59,-0.81,-0.41,3.43,3.44,3.44
369.14,3.96,0.50,3.96,0.51,-0.51,-0.74,-0.33,3.45,3.45,3.46
372.83,3.90,0.44,3.90,0.44,-0.44,-0.68,-0.24,3.46,3.46,3.46
376.56,3.83,0.37,3.84,0.37,-0.37,-0.61,-0.16,3.46,3.47,3.46
380.33,3.77,0.30,3.78,0.30,-0.30,-0.55,-0.07,3.47,3.47,3.47
384.13,3.71,0.22,3.72,0.23,-0.23,-0.48,0.01,3.48,3.48,3.49
387.97,3.66,0.17,3.66,0.16,-0.16,-0.41,0.09,3.50,3.49,3.49
391.85,3.60,0.10,3.60,0.09,-0.09,-0.35,0.18,3.51,3.50,3.50
395.77,3.54,0.03,3.54,0.03,-0.03,-0.28,0.26,3.51,3.51,3.51
399.73,3.48,-0.04,3.48,-0.05,0.05,-0.21,0.34,3.53,3.52,3.52
403.72,3.42,-0.13,3.42,-0.11,0.11,-0.14,0.42,3.53,3.53,3.55
407.76,3.36,-0.18,3.36,-0.18,0.18,-0.07,0.50,3.54,3.54,3.54
411.84,3.30,-0.25,3.30,-0.25,0.25,-0.00,0.58,3.55,3.55,3.55
415.96,3.24,-0.33,3.23,-0.33,0.33,0.07,0.66,3.57,3.56,3.57
420.12,3.17,-0.40,3.17,-0.40,0.40,0.14,0.73,3.57,3.57,3.57
424.32,3.11,-0.47,3.11,-0.47,0.47,0.21,0.81,3.58,3.58,3.58
428.56,3.05,-0.55,3.04,-0.54,0.54,0.28,0.88,3.59,3.59,3.60
432.85,2.99,-0.62,2.98,-0.62,0.62,0.35,0.96,3.61,3.60,3.61
437.18,2.91,-0.69,2.91,-0.69,0.69,0.42,1.03,3.60,3.61,3.60
441.55,2.85,-0.76,2.85,-0.77,0.77,0.50,1.10,3.62,3.62,3.61
445.96,2.79,-0.83,2.78,-0.84,0.84,0.57,1.17,3.63,3.62,3.62
450.42,2.71,-0.92,2.72,-0.91,0.91,0.64,1.24,3.62,3.63,3.63
454.93,2.65,-0.99,2.66,-0.99,0.99,0.71,1.31,3.64,3.64,3.64
459.48,2.59,-1.06,2.60,-1.06,1.06,0.79,1.37,3.65,3.65,3.65
464.07,2.53,-1.14,2.54,-1.12,1.12,0.86,1.43,3.65,3.66,3.67
468.71,2.48,-1.20,2.48,-1.19,1.19,0.94,1.50,3.67,3.67,3.68
473.40,2.42,-1.26,2.42,-1.26,1.26,1.01,1.55,3.68,3.68,3.68
478.13,2.35,-1.34,2.36,-1.33,1.33,1.08,1.61,3.68,3.69,3.69
482.91,2.30,-1.40,2.31,-1.39,1.39,1.16,1.66,3.69,3.70,3.70
487.74,2.25,-1.46,2.26,-1.45,1.45,1.23,1.71,3.70,3.71,3.71
