frequency,raw,error,smoothed,error_smoothed,equalization,parametric_eq,fixed_band_eq,equalized_raw,equalized_smoothed,target
20.00,-11.02,-12.86,-11.03,-12.89,12.89,12.35,5.04,1.86,1.86,1.84
20.20,-10.93,-12.81,-10.93,-12.83,12.83,12.35,5.16,1.89,1.89,1.88
20.40,-10.84,-12.76,-10.84,-12.77,12.77,12.35,5.29,1.92,1.92,1.92
20.61,-10.75,-12.69,-10.75,-12.70,12.70,12.34,5.43,1.95,1.95,1.95
20.81,-10.65,-12.64,-10.66,-12.64,12.64,12.33,5.57,1.98,1.98,1.99
21.02,-10.56,-12.59,-10.57,-12.57,12.57,12.32,5.71,2.00,2.00,2.03
21.23,-10.47,-12.52,-10.47,-12.50,12.50,12.31,5.85,2.03,2.03,2.05
21.44,-10.38,-12.45,-10.38,-12.43,12.43,12.29,6.00,2.05,2.05,2.07
21.66,-10.30,-12.38,-10.29,-12.36,12.36,12.27,6.15,2.06,2.07,2.09
21.87,-10.19,-12.29,-10.20,-12.29,12.29,12.24,6.31,2.09,2.09,2.10
22.09,-10.10,-12.22,-10.11,-12.21,12.21,12.22,6.47,2.11,2.11,2.12
22.31,-10.01,-12.14,-10.01,-12.14,12.14,12.19,6.63,2.12,2.12,2.12
22.54,-9.93,-12.06,-9.92,-12.05,12.05,12.16,6.80,2.13,2.13,2.13
22.76,-9.83,-11.98,-9.83,-11.97,11.97,12.12,6.98,2.14,2.14,2.14
22.99,-9.73,-11.88,-9.74,-11.89,11.89,12.08,7.15,2.15,2.15,2.14
23.22,-9.64,-11.80,-9.64,-11.80,11.80,12.04,7.34,2.16,2.16,2.15
23.45,-9.55,-11.71,-9.55,-11.72,11.72,12.00,7.52,2.17,2.17,2.16
23.69,-9.46,-11.63,-9.46,-11.64,11.64,11.95,7.72,2.18,2.18,2.17
23.92,-9.36,-11.54,-9.37,-11.55,11.55,11.90,7.91,2.19,2.19,2.18
24.16,-9.27,-11.47,-9.28,-11.47,11.47,11.85,8.11,2.20,2.20,2.20
24.40,-9.18,-11.40,-9.18,-11.39,11.39,11.80,8.31,2.21,2.21,2.22
24.65,-9.10,-11.31,-9.09,-11.31,11.31,11.74,8.52,2.21,2.21,2.22
24.89,-9.00,-11.23,-9.00,-11.23,11.23,11.68,8.74,2.22,2.22,2.23
25.14,-8.91,-11.15,-8.91,-11.15,11.15,11.62,8.95,2.23,2.23,2.23
25.39,-8.82,-11.07,-8.82,-11.07,11.07,11.56,9.17,2.25,2.25,2.24
25.65,-8.73,-11.00,-8.73,-10.99,10.99,11.49,9.39,2.26,2.26,2.26
25.91,-8.65,-10.91,-8.65,-10.91,10.91,11.43,9.62,2.27,2.27,2.26
26.16,-8.55,-10.82,-8.56,-10.83,10.83,11.36,9.84,2.28,2.28,2.27
26.43,-8.48,-10.75,-8.47,-10.75,10.75,11.29,10.07,2.28,2.28,2.28
26.69,-8.38,-10.67,-8.38,-10.68,10.68,11.22,10.30,2.29,2.29,2.29
26.96,-8.30,-10.60,-8.30,-10.60,10.60,11.15,10.53,2.30,2.30,2.31
27.23,-8.22,-10.53,-8.21,-10.52,10.52,11.07,10.75,2.30,2.31,2.31
27.50,-8.12,-10.45,-8.13,-10.44,10.44,11.00,10.97,2.32,2.32,2.32
27.77,-8.04,-10.37,-8.04,-10.37,10.37,10.92,11.19,2.32,2.33,2.32
28.05,-7.95,-10.29,-7.96,-10.29,10.29,10.84,11.40,2.34,2.33,2.34
28.33,-7.87,-10.21,-7.87,-10.22,10.22,10.76,11.60,2.34,2.34,2.34
28.62,-7.80,-10.14,-7.79,-10.14,10.14,10.69,11.79,2.34,2.35,2.35
28.90,-7.71,-10.07,-7.71,-10.07,10.07,10.60,11.97,2.35,2.36,2.36
29.19,-7.63,-9.99,-7.63,-9.99,9.99,10.52,12.13,2.36,2.36,2.35
29.48,-7.55,-9.94,-7.55,-9.92,9.92,10.44,12.28,2.37,2.37,2.38
29.78,-7.48,-9.85,-7.48,-9.85,9.85,10.36,12.40,2.38,2.38,2.38
30.08,-7.40,-9.78,-7.40,-9.79,9.79,10.28,12.50,2.39,2.38,2.39
30.38,-7.33,-9.71,-7.33,-9.72,9.72,10.19,12.58,2.40,2.39,2.39
30.68,-7.25,-9.66,-7.26,-9.66,9.66,10.11,12.64,2.40,2.40,2.40
30.99,-7.19,-9.59,-7.20,-9.60,9.60,10.03,12.66,2.41,2.40,2.40
31.30,-7.13,-9.53,-7.13,-9.54,9.54,9.94,12.66,2.42,2.41,2.41
31.61,-7.06,-9.48,-7.07,-9.49,9.49,9.86,12.64,2.42,2.42,2.42
31.93,-7.01,-9.43,-7.01,-9.43,9.43,9.78,12.58,2.43,2.42,2.42
32.24,-6.95,-9.37,-6.95,-9.38,9.38,9.70,12.50,2.43,2.43,2.42
32.57,-6.90,-9.33,-6.89,-9.33,9.33,9.61,12.40,2.44,2.44,2.44
32.89,-6.83,-9.28,-6.84,-9.28,9.28,9.53,12.28,2.45,2.44,2.45
33.22,-6.78,-9.24,-6.78,-9.23,9.23,9.45,12.13,2.45,2.45,2.45
33.55,-6.73,-9.19,-6.73,-9.19,9.19,9.37,11.97,2.45,2.46,2.46
33.89,-6.68,-9.15,-6.68,-9.14,9.14,9.29,11.79,2.45,2.46,2.47
34.23,-6.62,-9.10,-6.62,-9.09,9.09,9.22,11.60,2.47,2.47,2.47
34.57,-6.56,-9.04,-6.57,-9.04,9.04,9.14,11.40,2.48,2.47,2.48
34.92,-6.51,-8.98,-6.52,-9.00,9.00,9.07,11.19,2.49,2.48,2.48
35.27,-6.46,-8.94,-6.46,-8.95,8.95,8.99,10.97,2.49,2.48,2.48
35.62,-6.40,-8.89,-6.41,-8.89,8.89,8.92,10.75,2.49,2.49,2.49
35.97,-6.35,-8.84,-6.35,-8.84,8.84,8.85,10.53,2.49,2.49,2.48
36.33,-6.29,-8.78,-6.29,-8.78,8.78,8.79,10.30,2.49,2.49,2.49
36.70,-6.23,-8.72,-6.23,-8.72,8.72,8.72,10.07,2.49,2.49,2.48
37.06,-6.17,-8.66,-6.17,-8.66,8.66,8.66,9.84,2.49,2.49,2.49
37.43,-6.11,-8.61,-6.11,-8.59,8.59,8.59,9.62,2.48,2.49,2.50
37.81,-6.04,-8.54,-6.04,-8.53,8.53,8.53,9.39,2.48,2.48,2.49
38.19,-5.97,-8.46,-5.97,-8.45,8.45,8.47,9.17,2.48,2.48,2.49
38.57,-5.90,-8.38,-5.90,-8.38,8.38,8.41,8.95,2.47,2.48,2.48
38.95,-5.82,-8.30,-5.82,-8.30,8.30,8.35,8.74,2.47,2.48,2.47
39.34,-5.73,-8.20,-5.74,-8.21,8.21,8.28,8.53,2.48,2.47,2.47
39.74,-5.65,-8.12,-5.65,-8.12,8.12,8.21,8.32,2.47,2.47,2.46
40.14,-5.57,-8.03,-5.56,-8.03,8.03,8.13,8.12,2.46,2.47,2.47
40.54,-5.48,-7.94,-5.47,-7.93,7.93,8.05,7.92,2.46,2.46,2.46
40.94,-5.37,-7.83,-5.37,-7.83,7.83,7.96,7.72,2.46,2.46,2.45
41.35,-5.27,-7.72,-5.27,-7.73,7.73,7.86,7.53,2.45,2.45,2.45
41.76,-5.17,-7.62,-5.17,-7.62,7.62,7.75,7.35,2.45,2.45,2.45
42.18,-5.06,-7.52,-5.07,-7.51,7.51,7.63,7.16,2.45,2.44,2.45
42.60,-4.95,-7.40,-4.96,-7.40,7.40,7.51,6.99,2.44,2.44,2.44
43.03,-4.84,-7.29,-4.84,-7.28,7.28,7.38,6.82,2.43,2.43,2.45
43.46,-4.72,-7.16,-4.73,-7.16,7.16,7.24,6.65,2.43,2.43,2.44
43.90,-4.62,-7.03,-4.61,-7.04,7.04,7.10,6.48,2.42,2.43,2.42
44.33,-4.49,-6.91,-4.49,-6.91,6.91,6.96,6.32,2.42,2.42,2.42
44.78,-4.37,-6.78,-4.36,-6.78,6.78,6.81,6.17,2.42,2.42,2.41
45.23,-4.25,-6.65,-4.24,-6.65,6.65,6.67,6.02,2.40,2.41,2.40
45.68,-4.12,-6.52,-4.11,-6.52,6.52,6.52,5.87,2.40,2.41,2.40
46.13,-3.98,-6.37,-3.98,-6.38,6.38,6.38,5.73,2.40,2.40,2.39
46.60,-3.86,-6.25,-3.85,-6.24,6.24,6.24,5.59,2.39,2.39,2.40
47.06,-3.71,-6.10,-3.72,-6.10,6.10,6.10,5.45,2.39,2.38,2.39
47.53,-3.58,-5.96,-3.59,-5.96,5.96,5.96,5.32,2.38,2.37,2.38
48.01,-3.46,-5.84,-3.46,-5.82,5.82,5.82,5.19,2.36,2.36,2.38
48.49,-3.33,-5.69,-3.32,-5.68,5.68,5.69,5.07,2.35,2.35,2.36
48.97,-3.19,-5.53,-3.19,-5.53,5.53,5.56,4.95,2.34,2.34,2.34
49.46,-3.06,-5.39,-3.06,-5.39,5.39,5.42,4.83,2.33,2.33,2.33
49.96,-2.94,-5.24,-2.94,-5.25,5.25,5.30,4.71,2.31,2.31,2.30
50.46,-2.82,-5.11,-2.81,-5.11,5.11,5.17,4.60,2.29,2.30,2.30
50.96,-2.68,-4.97,-2.69,-4.97,4.97,5.04,4.49,2.28,2.28,2.28
51.47,-2.56,-4.81,-2.57,-4.83,4.83,4.91,4.39,2.26,2.26,2.25
51.99,-2.45,-4.68,-2.46,-4.69,4.69,4.79,4.28,2.25,2.24,2.23
52.51,-2.34,-4.56,-2.35,-4.56,4.56,4.67,4.18,2.23,2.22,2.22
53.03,-2.22,-4.42,-2.24,-4.43,4.43,4.54,4.08,2.21,2.20,2.20
53.56,-2.13,-4.31,-2.13,-4.31,4.31,4.42,3.98,2.17,2.17,2.18
54.10,-2.04,-4.19,-2.04,-4.19,4.19,4.30,3.89,2.15,2.15,2.15
54.64,-1.94,-4.07,-1.94,-4.07,4.07,4.17,3.79,2.14,2.13,2.13
55.18,-1.84,-3.95,-1.85,-3.96,3.96,4.05,3.70,2.11,2.11,2.10
55.74,-1.77,-3.84,-1.76,-3.85,3.85,3.93,3.61,2.08,2.08,2.07
56.29,-1.68,-3.75,-1.68,-3.74,3.74,3.80,3.53,2.05,2.06,2.06
56.86,-1.60,-3.63,-1.59,-3.63,3.63,3.68,3.44,2.03,2.03,2.03
57.42,-1.51,-3.51,-1.51,-3.52,3.52,3.56,3.36,2.01,2.01,2.00
58.00,-1.44,-3.42,-1.44,-3.42,3.42,3.43,3.27,1.97,1.98,1.98
58.58,-1.36,-3.32,-1.36,-3.31,3.31,3.31,3.19,1.95,1.95,1.95
59.16,-1.29,-3.22,-1.29,-3.21,3.21,3.19,3.11,1.91,1.92,1.93
59.76,-1.22,-3.12,-1.21,-3.10,3.10,3.06,3.03,1.88,1.89,1.90
60.35,-1.14,-3.01,-1.14,-3.00,3.00,2.94,2.95,1.85,1.85,1.87
60.96,-1.07,-2.90,-1.08,-2.89,2.89,2.82,2.87,1.82,1.82,1.83
61.57,-1.00,-2.79,-1.01,-2.79,2.79,2.70,2.79,1.79,1.78,1.78
62.18,-0.93,-2.67,-0.95,-2.69,2.69,2.58,2.71,1.75,1.74,1.73
62.80,-0.87,-2.58,-0.88,-2.59,2.59,2.46,2.64,1.71,1.70,1.70
63.43,-0.82,-2.48,-0.82,-2.49,2.49,2.35,2.56,1.66,1.66,1.65
64.07,-0.76,-2.38,-0.76,-2.38,2.38,2.24,2.49,1.62,1.62,1.61
64.71,-0.71,-2.29,-0.71,-2.28,2.28,2.13,2.41,1.57,1.58,1.57
65.35,-0.65,-2.18,-0.65,-2.18,2.18,2.03,2.34,1.53,1.53,1.53
66.01,-0.60,-2.09,-0.60,-2.09,2.09,1.93,2.26,1.48,1.49,1.49
66.67,-0.55,-2.01,-0.55,-1.99,1.99,1.84,2.19,1.44,1.44,1.45
67.33,-0.50,-1.91,-0.50,-1.90,1.90,1.75,2.11,1.39,1.40,1.40
68.01,-0.45,-1.81,-0.45,-1.80,1.80,1.66,2.04,1.35,1.35,1.36
68.69,-0.39,-1.71,-0.41,-1.72,1.72,1.58,1.96,1.32,1.31,1.31
69.37,-0.35,-1.62,-0.36,-1.63,1.63,1.51,1.89,1.27,1.26,1.26
70.07,-0.31,-1.53,-0.32,-1.54,1.54,1.44,1.82,1.23,1.22,1.21
70.77,-0.27,-1.45,-0.28,-1.46,1.46,1.37,1.74,1.18,1.17,1.17
71.48,-0.24,-1.38,-0.25,-1.38,1.38,1.31,1.67,1.13,1.13,1.13
72.19,-0.20,-1.28,-0.21,-1.29,1.29,1.25,1.60,1.09,1.08,1.08
72.91,-0.17,-1.21,-0.17,-1.21,1.21,1.19,1.53,1.04,1.04,1.04
73.64,-0.14,-1.14,-0.14,-1.14,1.14,1.13,1.45,0.99,1.00,0.99
74.38,-0.11,-1.07,-0.10,-1.06,1.06,1.07,1.38,0.94,0.95,0.96
75.12,-0.08,-1.00,-0.07,-0.98,0.98,1.01,1.31,0.90,0.91,0.91
75.87,-0.05,-0.93,-0.04,-0.91,0.91,0.96,1.24,0.86,0.88,0.87
76.63,-0.01,-0.85,-0.00,-0.84,0.84,0.90,1.17,0.83,0.84,0.84
77.40,0.03,-0.77,0.03,-0.77,0.77,0.84,1.10,0.80,0.80,0.80
78.17,0.06,-0.70,0.06,-0.70,0.70,0.79,1.02,0.76,0.76,0.76
78.95,0.10,-0.63,0.09,-0.63,0.63,0.73,0.95,0.73,0.73,0.73
79.74,0.14,-0.56,0.12,-0.57,0.57,0.67,0.88,0.70,0.69,0.69
80.54,0.17,-0.50,0.15,-0.51,0.51,0.61,0.81,0.67,0.66,0.66
81.35,0.19,-0.44,0.18,-0.45,0.45,0.55,0.74,0.63,0.63,0.63
82.16,0.21,-0.39,0.20,-0.39,0.39,0.49,0.67,0.60,0.59,0.59
82.98,0.23,-0.34,0.22,-0.34,0.34,0.43,0.60,0.57,0.56,0.57
83.81,0.25,-0.29,0.24,-0.29,0.29,0.37,0.53,0.54,0.53,0.53
84.65,0.27,-0.23,0.25,-0.25,0.25,0.31,0.46,0.51,0.50,0.49
85.50,0.28,-0.20,0.27,-0.21,0.21,0.24,0.39,0.48,0.47,0.48
86.35,0.29,-0.16,0.28,-0.17,0.17,0.18,0.32,0.45,0.45,0.45
87.22,0.30,-0.12,0.29,-0.13,0.13,0.12,0.25,0.43,0.42,0.42
88.09,0.30,-0.09,0.30,-0.09,0.09,0.05,0.17,0.39,0.39,0.39
88.97,0.31,-0.06,0.31,-0.05,0.05,-0.01,0.10,0.36,0.36,0.37
89.86,0.32,-0.03,0.33,-0.01,0.01,-0.08,0.03,0.33,0.34,0.34
90.76,0.33,0.02,0.34,0.03,-0.03,-0.14,-0.04,0.29,0.31,0.30
91.66,0.34,0.06,0.36,0.08,-0.08,-0.21,-0.11,0.25,0.28,0.28
92.58,0.37,0.12,0.38,0.13,-0.13,-0.28,-0.18,0.23,0.25,0.24
93.51,0.40,0.17,0.41,0.19,-0.19,-0.34,-0.26,0.21,0.22,0.23
94.44,0.42,0.22,0.43,0.24,-0.24,-0.41,-0.33,0.17,0.19,0.19
95.39,0.46,0.29,0.46,0.30,-0.30,-0.47,-0.40,0.15,0.16,0.17
96.34,0.49,0.36,0.49,0.36,-0.36,-0.54,-0.47,0.12,0.12,0.12
97.30,0.52,0.43,0.52,0.43,-0.43,-0.61,-0.55,0.09,0.09,0.09
98.28,0.56,0.50,0.54,0.49,-0.49,-0.67,-0.62,0.07,0.06,0.05
99.26,0.59,0.57,0.57,0.55,-0.55,-0.74,-0.69,0.04,0.02,0.01
100.25,0.61,0.63,0.59,0.61,-0.61,-0.81,-0.77,-0.00,-0.02,-0.02
101.25,0.63,0.69,0.61,0.67,-0.67,-0.87,-0.84,-0.04,-0.06,-0.06
102.27,0.64,0.74,0.62,0.73,-0.73,-0.94,-0.91,-0.09,-0.11,-0.11
103.29,0.65,0.80,0.63,0.78,-0.78,-1.00,-0.98,-0.14,-0.15,-0.16
104.32,0.65,0.84,0.64,0.84,-0.84,-1.07,-1.06,-0.19,-0.20,-0.19
105.37,0.65,0.89,0.64,0.89,-0.89,-1.13,-1.13,-0.25,-0.25,-0.24
106.42,0.65,0.94,0.64,0.94,-0.94,-1.20,-1.20,-0.30,-0.30,-0.30
107.48,0.64,0.98,0.64,1.00,-1.00,-1.26,-1.27,-0.36,-0.36,-0.35
108.56,0.63,1.04,0.64,1.06,-1.06,-1.33,-1.34,-0.43,-0.41,-0.41
109.64,0.63,1.10,0.64,1.11,-1.11,-1.39,-1.41,-0.49,-0.47,-0.47
110.74,0.63,1.15,0.63,1.17,-1.17,-1.45,-1.47,-0.55,-0.54,-0.53
111.85,0.63,1.22,0.63,1.23,-1.23,-1.52,-1.54,-0.61,-0.60,-0.60
112.97,0.63,1.30,0.63,1.30,-1.30,-1.58,-1.60,-0.67,-0.67,-0.67
114.10,0.63,1.36,0.63,1.36,-1.36,-1.64,-1.66,-0.74,-0.74,-0.73
115.24,0.63,1.43,0.62,1.43,-1.43,-1.71,-1.73,-0.80,-0.80,-0.81
116.39,0.63,1.51,0.62,1.50,-1.50,-1.77,-1.78,-0.87,-0.87,-0.88
117.55,0.63,1.57,0.62,1.57,-1.57,-1.83,-1.84,-0.94,-0.94,-0.95
118.73,0.63,1.65,0.62,1.63,-1.63,-1.89,-1.89,-1.01,-1.01,-1.02
119.92,0.63,1.70,0.62,1.70,-1.70,-1.95,-1.95,-1.08,-1.08,-1.08
121.12,0.63,1.78,0.63,1.77,-1.77,-2.01,-2.00,-1.14,-1.14,-1.15
122.33,0.63,1.84,0.63,1.83,-1.83,-2.07,-2.04,-1.21,-1.21,-1.21
123.55,0.63,1.89,0.63,1.90,-1.90,-2.13,-2.09,-1.27,-1.27,-1.27
124.79,0.63,1.95,0.63,1.96,-1.96,-2.19,-2.13,-1.33,-1.33,-1.33
126.03,0.63,2.02,0.62,2.02,-2.02,-2.24,-2.17,-1.39,-1.39,-1.39
127.29,0.63,2.08,0.62,2.08,-2.08,-2.30,-2.20,-1.45,-1.45,-1.45
128.57,0.63,2.15,0.62,2.13,-2.13,-2.36,-2.24,-1.51,-1.51,-1.52
129.85,0.63,2.19,0.62,2.19,-2.19,-2.42,-2.27,-1.57,-1.57,-1.57
131.15,0.63,2.25,0.62,2.25,-2.25,-2.47,-2.30,-1.62,-1.62,-1.63
132.46,0.63,2.30,0.63,2.30,-2.30,-2.53,-2.33,-1.68,-1.67,-1.68
133.79,0.63,2.35,0.63,2.36,-2.36,-2.58,-2.35,-1.73,-1.73,-1.72
135.12,0.63,2.40,0.63,2.41,-2.41,-2.63,-2.38,-1.78,-1.78,-1.78
136.48,0.63,2.45,0.63,2.46,-2.46,-2.69,-2.40,-1.83,-1.83,-1.82
137.84,0.63,2.50,0.64,2.51,-2.51,-2.74,-2.42,-1.89,-1.87,-1.88
139.22,0.63,2.56,0.64,2.56,-2.56,-2.79,-2.44,-1.93,-1.92,-1.93
140.61,0.64,2.62,0.64,2.61,-2.61,-2.84,-2.46,-1.97,-1.97,-1.98
142.02,0.64,2.65,0.64,2.65,-2.65,-2.90,-2.48,-2.02,-2.01,-2.01
143.44,0.65,2.70,0.64,2.70,-2.70,-2.95,-2.49,-2.05,-2.06,-2.05
144.87,0.65,2.75,0.63,2.74,-2.74,-2.99,-2.51,-2.09,-2.11,-2.10
146.32,0.64,2.79,0.62,2.77,-2.77,-3.04,-2.53,-2.14,-2.15,-2.15
147.78,0.63,2.81,0.61,2.81,-2.81,-3.09,-2.55,-2.18,-2.20,-2.19
149.26,0.62,2.85,0.59,2.84,-2.84,-3.14,-2.57,-2.23,-2.25,-2.23
150.75,0.59,2.89,0.57,2.87,-2.87,-3.19,-2.59,-2.28,-2.30,-2.30
152.26,0.57,2.91,0.55,2.90,-2.90,-3.23,-2.61,-2.33,-2.34,-2.34
153.78,0.54,2.92,0.52,2.92,-2.92,-3.28,-2.63,-2.38,-2.39,-2.39
155.32,0.51,2.96,0.50,2.94,-2.94,-3.32,-2.65,-2.43,-2.44,-2.45
156.88,0.46,2.95,0.47,2.96,-2.96,-3.37,-2.68,-2.50,-2.49,-2.49
158.44,0.44,2.98,0.44,2.98,-2.98,-3.41,-2.70,-2.55,-2.55,-2.54
160.03,0.40,3.00,0.41,3.00,-3.00,-3.45,-2.73,-2.61,-2.60,-2.60
161.63,0.38,3.04,0.38,3.03,-3.03,-3.49,-2.76,-2.65,-2.65,-2.66
163.24,0.35,3.05,0.36,3.06,-3.06,-3.53,-2.79,-2.71,-2.70,-2.71
164.88,0.32,3.07,0.34,3.09,-3.09,-3.57,-2.83,-2.78,-2.76,-2.75
166.53,0.30,3.11,0.32,3.13,-3.13,-3.61,-2.86,-2.83,-2.81,-2.81
168.19,0.29,3.15,0.31,3.17,-3.17,-3.65,-2.90,-2.89,-2.87,-2.87
169.87,0.29,3.20,0.30,3.22,-3.22,-3.69,-2.94,-2.93,-2.92,-2.92
171.57,0.29,3.26,0.29,3.27,-3.27,-3.73,-2.99,-2.98,-2.98,-2.97
173.29,0.29,3.32,0.29,3.32,-3.32,-3.76,-3.03,-3.04,-3.04,-3.03
175.02,0.30,3.38,0.29,3.38,-3.38,-3.80,-3.08,-3.09,-3.10,-3.09
176.77,0.30,3.45,0.29,3.44,-3.44,-3.83,-3.13,-3.15,-3.16,-3.16
178.54,0.31,3.52,0.29,3.51,-3.51,-3.87,-3.18,-3.20,-3.21,-3.22
180.32,0.31,3.58,0.29,3.57,-3.57,-3.90,-3.24,-3.26,-3.27,-3.27
182.13,0.31,3.64,0.30,3.63,-3.63,-3.93,-3.30,-3.33,-3.34,-3.33
183.95,0.31,3.70,0.30,3.70,-3.70,-3.96,-3.36,-3.39,-3.40,-3.40
185.79,0.31,3.76,0.30,3.76,-3.76,-3.99,-3.42,-3.46,-3.46,-3.45
187.65,0.31,3.84,0.30,3.82,-3.82,-4.02,-3.49,-3.52,-3.52,-3.53
189.52,0.31,3.89,0.31,3.88,-3.88,-4.05,-3.55,-3.58,-3.58,-3.58
191.42,0.31,3.94,0.31,3.94,-3.94,-4.08,-3.62,-3.64,-3.64,-3.64
193.33,0.31,4.00,0.31,4.00,-4.00,-4.11,-3.69,-3.70,-3.69,-3.69
195.27,0.31,4.05,0.31,4.06,-4.06,-4.13,-3.77,-3.76,-3.75,-3.74
197.22,0.31,4.11,0.31,4.12,-4.12,-4.16,-3.84,-3.81,-3.81,-3.81
199.19,0.31,4.17,0.32,4.18,-4.18,-4.18,-3.92,-3.87,-3.86,-3.87
201.18,0.31,4.22,0.32,4.23,-4.23,-4.20,-4.00,-3.92,-3.91,-3.92
203.19,0.31,4.26,0.32,4.28,-4.28,-4.23,-4.08,-3.98,-3.96,-3.96
205.23,0.32,4.33,0.32,4.33,-4.33,-4.25,-4.16,-4.01,-4.01,-4.02
207.28,0.33,4.37,0.31,4.37,-4.37,-4.27,-4.24,-4.05,-4.06,-4.04
209.35,0.33,4.43,0.31,4.41,-4.41,-4.29,-4.32,-4.09,-4.10,-4.10
211.44,0.32,4.47,0.30,4.45,-4.45,-4.31,-4.40,-4.13,-4.15,-4.16
213.56,0.31,4.50,0.29,4.48,-4.48,-4.32,-4.48,-4.17,-4.19,-4.20
215.69,0.29,4.51,0.27,4.50,-4.50,-4.34,-4.56,-4.22,-4.23,-4.22
217.85,0.26,4.52,0.25,4.52,-4.52,-4.36,-4.64,-4.26,-4.27,-4.27
220.03,0.24,4.55,0.22,4.53,-4.53,-4.37,-4.72,-4.29,-4.31,-4.31
222.23,0.21,4.55,0.20,4.54,-4.54,-4.39,-4.79,-4.33,-4.34,-4.35
224.45,0.18,4.55,0.17,4.54,-4.54,-4.40,-4.86,-4.36,-4.37,-4.37
226.70,0.14,4.53,0.14,4.53,-4.53,-4.41,-4.93,-4.40,-4.40,-4.39
228.96,0.10,4.52,0.11,4.53,-4.53,-4.42,-4.99,-4.43,-4.42,-4.43
231.25,0.08,4.52,0.08,4.52,-4.52,-4.43,-5.05,-4.45,-4.45,-4.44
233.57,0.05,4.51,0.05,4.51,-4.51,-4.44,-5.10,-4.47,-4.46,-4.46
235.90,0.01,4.49,0.03,4.51,-4.51,-4.45,-5.15,-4.50,-4.48,-4.48
238.26,-0.01,4.48,0.01,4.50,-4.50,-4.46,-5.19,-4.51,-4.49,-4.50
240.64,-0.03,4.47,-0.01,4.49,-4.49,-4.46,-5.22,-4.52,-4.50,-4.51
243.05,-0.04,4.46,-0.03,4.48,-4.48,-4.47,-5.25,-4.53,-4.51,-4.51
245.48,-0.04,4.47,-0.04,4.47,-4.47,-4.48,-5.27,-4.52,-4.51,-4.52
247.93,-0.04,4.47,-0.05,4.47,-4.47,-4.48,-5.29,-4.51,-4.52,-4.52
250.41,-0.03,4.49,-0.05,4.46,-4.46,-4.48,-5.29,-4.50,-4.52,-4.53
252.92,-0.03,4.48,-0.06,4.46,-4.46,-4.48,-5.29,-4.49,-4.52,-4.52
255.45,-0.03,4.47,-0.05,4.46,-4.46,-4.48,-5.29,-4.49,-4.51,-4.50
258.00,-0.04,4.46,-0.05,4.46,-4.46,-4.48,-5.27,-4.50,-4.50,-4.50
260.58,-0.04,4.46,-0.04,4.46,-4.46,-4.48,-5.25,-4.50,-4.50,-4.50
263.19,-0.04,4.44,-0.03,4.46,-4.46,-4.48,-5.22,-4.50,-4.49,-4.49
265.82,-0.02,4.46,-0.01,4.46,-4.46,-4.48,-5.19,-4.49,-4.48,-4.49
268.48,-0.01,4.45,0.00,4.47,-4.47,-4.48,-5.15,-4.49,-4.47,-4.46
271.16,0.01,4.46,0.02,4.48,-4.48,-4.47,-5.10,-4.47,-4.46,-4.45
273.87,0.04,4.48,0.05,4.49,-4.49,-4.46,-5.05,-4.46,-4.44,-4.45
276.61,0.07,4.49,0.07,4.51,-4.51,-4.46,-4.99,-4.44,-4.43,-4.42
279.38,0.10,4.52,0.10,4.52,-4.52,-4.45,-4.94,-4.43,-4.42,-4.42
282.17,0.13,4.53,0.13,4.54,-4.54,-4.44,-4.87,-4.42,-4.41,-4.41
284.99,0.16,4.55,0.16,4.56,-4.56,-4.43,-4.81,-4.40,-4.40,-4.39
287.84,0.21,4.59,0.19,4.58,-4.58,-4.42,-4.74,-4.37,-4.38,-4.39
290.72,0.24,4.61,0.22,4.59,-4.59,-4.41,-4.67,-4.35,-4.37,-4.37
293.63,0.27,4.62,0.24,4.60,-4.60,-4.40,-4.60,-4.34,-4.36,-4.36
296.57,0.29,4.63,0.27,4.61,-4.61,-4.39,-4.53,-4.33,-4.35,-4.34
299.53,0.31,4.64,0.28,4.62,-4.62,-4.37,-4.46,-4.31,-4.33,-4.34
302.53,0.32,4.65,0.30,4.62,-4.62,-4.36,-4.39,-4.30,-4.32,-4.33
305.55,0.32,4.62,0.31,4.62,-4.62,-4.34,-4.32,-4.30,-4.31,-4.31
308.61,0.32,4.62,0.31,4.62,-4.62,-4.33,-4.25,-4.30,-4.30,-4.30
311.69,0.32,4.61,0.32,4.61,-4.61,-4.31,-4.18,-4.29,-4.29,-4.30
314.81,0.31,4.58,0.32,4.60,-4.60,-4.29,-4.11,-4.30,-4.28,-4.27
317.96,0.31,4.58,0.32,4.59,-4.59,-4.28,-4.04,-4.29,-4.28,-4.27
321.14,0.31,4.57,0.31,4.58,-4.58,-4.26,-3.98,-4.28,-4.27,-4.27
324.35,0.31,4.58,0.31,4.58,-4.58,-4.24,-3.91,-4.27,-4.26,-4.27
327.59,0.31,4.56,0.31,4.57,-4.57,-4.22,-3.85,-4.26,-4.26,-4.25
330.87,0.31,4.56,0.31,4.57,-4.57,-4.19,-3.79,-4.26,-4.26,-4.26
334.18,0.31,4.57,0.31,4.56,-4.56,-4.17,-3.74,-4.26,-4.25,-4.26
337.52,0.31,4.56,0.31,4.56,-4.56,-4.15,-3.68,-4.26,-4.25,-4.25
340.90,0.31,4.55,0.31,4.57,-4.57,-4.12,-3.63,-4.26,-4.25,-4.25
344.30,0.31,4.55,0.32,4.57,-4.57,-4.10,-3.58,-4.26,-4.25,-4.25
347.75,0.31,4.56,0.32,4.57,-4.57,-4.08,-3.54,-4.27,-4.25,-4.25
351.23,0.32,4.57,0.32,4.58,-4.58,-4.05,-3.50,-4.26,-4.26,-4.25
354.74,0.33,4.58,0.32,4.58,-4.58,-4.02,-3.45,-4.25,-4.26,-4.26
358.28,0.32,4.59,0.32,4.58,-4.58,-4.00,-3.42,-4.27,-4.27,-4.27
361.87,0.31,4.58,0.31,4.58,-4.58,-3.97,-3.38,-4.27,-4.27,-4.27
365.49,0.30,4.57,0.30,4.58,-4.58,-3.94,-3.35,-4.28,-4.28,-4.27
369.14,0.29,4.57,0.28,4.57,-4.57,-3.91,-3.32,-4.28,-4.28,-4.29
372.83,0.28,4.56,0.26,4.55,-4.55,-3.88,-3.29,-4.28,-4.29,-4.29
376.56,0.24,4.54,0.24,4.53,-4.53,-3.85,-3.27,-4.30,-4.30,-4.30
380.33,0.22,4.52,0.20,4.51,-4.51,-3.82,-3.25,-4.29,-4.31,-4.30
384.13,0.17,4.48,0.16,4.47,-4.47,-3.79,-3.23,-4.31,-4.31,-4.31
387.97,0.12,4.44,0.10,4.43,-4.43,-3.76,-3.21,-4.31,-4.32,-4.33
391.85,0.07,4.40,0.04,4.37,-4.37,-3.73,-3.19,-4.31,-4.33,-4.34
395.77,-0.01,4.31,-0.02,4.31,-4.31,-3.70,-3.18,-4.33,-4.34,-4.33
399.73,-0.08,4.26,-0.10,4.24,-4.24,-3.66,-3.17,-4.33,-4.34,-4.34
403.72,-0.17,4.18,-0.18,4.16,-4.16,-3.63,-3.16,-4.34,-4.35,-4.35
407.76,-0.27,4.09,-0.28,4.08,-4.08,-3.60,-3.15,-4.35,-4.36,-4.36
411.84,-0.37,3.98,-0.37,3.99,-3.99,-3.56,-3.15,-4.36,-4.36,-4.36
415.96,-0.47,3.89,-0.48,3.89,-3.89,-3.53,-3.14,-4.36,-4.37,-4.37
420.12,-0.59,3.77,-0.59,3.78,-3.78,-3.49,-3.14,-4.37,-4.37,-4.37
424.32,-0.70,3.66,-0.70,3.67,-3.67,-3.46,-3.14,-4.37,-4.37,-4.37
428.56,-0.80,3.58,-0.82,3.56,-3.56,-3.42,-3.14,-4.36,-4.38,-4.38
432.85,-0.92,3.46,-0.94,3.44,-3.44,-3.39,-3.14,-4.36,-4.38,-4.38
437.18,-1.05,3.33,-1.06,3.32,-3.32,-3.36,-3.14,-4.38,-4.38,-4.38
441.55,-1.16,3.21,-1.17,3.21,-3.21,-3.32,-3.14,-4.37,-4.38,-4.37
445.96,-1.27,3.10,-1.28,3.10,-3.10,-3.29,-3.14,-4.37,-4.38,-4.37
450.42,-1.39,2.99,-1.39,2.99,-2.99,-3.25,-3.14,-4.38,-4.38,-4.39
454.93,-1.50,2.87,-1.49,2.89,-2.89,-3.21,-3.14,-4.39,-4.37,-4.38
459.48,-1.60,2.77,-1.58,2.79,-2.79,-3.18,-3.14,-4.40,-4.37,-4.38
464.07,-1.68,2.68,-1.66,2.70,-2.70,-3.15,-3.14,-4.39,-4.37,-4.37
468.71,-1.75,2.60,-1.74,2.62,-2.62,-3.11,-3.14,-4.38,-4.36,-4.36
473.40,-1.82,2.54,-1.80,2.55,-2.55,-3.08,-3.14,-4.38,-4.36,-4.36
