frequency,raw,error,smoothed,error_smoothed,equalization,parametric_eq,fixed_band_eq,equalized_raw,equalized_smoothed,target
20.00,-1.55,-11.28,-1.52,-11.26,11.26,10.64,4.16,9.71,9.74,9.74
20.20,-1.45,-11.17,-1.44,-11.16,11.16,10.60,4.27,9.71,9.73,9.73
20.40,-1.36,-11.07,-1.35,-11.06,11.06,10.57,4.38,9.71,9.71,9.71
20.61,-1.27,-10.97,-1.27,-10.97,10.97,10.53,4.50,9.70,9.70,9.70
20.81,-1.18,-10.86,-1.19,-10.88,10.88,10.49,4.62,9.70,9.69,9.68
21.02,-1.10,-10.77,-1.11,-10.78,10.78,10.46,4.74,9.69,9.68,9.67
21.23,-1.02,-10.68,-1.03,-10.70,10.70,10.42,4.87,9.68,9.67,9.66
21.44,-0.94,-10.61,-0.95,-10.61,10.61,10.38,5.00,9.67,9.66,9.67
21.66,-0.86,-10.51,-0.88,-10.53,10.53,10.34,5.14,9.67,9.65,9.65
21.87,-0.79,-10.43,-0.80,-10.44,10.44,10.30,5.28,9.66,9.64,9.65
22.09,-0.71,-10.33,-0.73,-10.36,10.36,10.26,5.42,9.66,9.63,9.63
22.31,-0.65,-10.27,-0.66,-10.28,10.28,10.22,5.57,9.64,9.62,9.63
22.54,-0.60,-10.21,-0.60,-10.21,10.21,10.17,5.72,9.62,9.62,9.62
22.76,-0.55,-10.16,-0.53,-10.14,10.14,10.13,5.87,9.60,9.61,9.61
22.99,-0.49,-10.09,-0.47,-10.08,10.08,10.09,6.03,9.59,9.61,9.60
23.22,-0.42,-10.01,-0.41,-10.01,10.01,10.04,6.19,9.59,9.60,9.59
23.45,-0.35,-9.95,-0.35,-9.94,9.94,10.00,6.36,9.60,9.60,9.60
23.69,-0.29,-9.88,-0.28,-9.88,9.88,9.95,6.53,9.59,9.59,9.59
23.92,-0.23,-9.80,-0.22,-9.81,9.81,9.91,6.70,9.58,9.59,9.58
24.16,-0.16,-9.74,-0.16,-9.74,9.74,9.86,6.88,9.58,9.58,9.59
24.40,-0.10,-9.68,-0.09,-9.67,9.67,9.81,7.06,9.57,9.58,9.58
24.65,-0.03,-9.61,-0.02,-9.60,9.60,9.76,7.24,9.57,9.58,9.58
24.89,0.04,-9.54,0.05,-9.53,9.53,9.71,7.43,9.57,9.58,9.58
25.14,0.10,-9.47,0.12,-9.45,9.45,9.67,7.62,9.56,9.57,9.57
25.39,0.18,-9.38,0.19,-9.38,9.38,9.62,7.81,9.56,9.57,9.57
25.65,0.26,-9.30,0.26,-9.31,9.31,9.57,8.01,9.57,9.57,9.57
25.91,0.34,-9.22,0.33,-9.24,9.24,9.51,8.20,9.58,9.57,9.56
26.16,0.41,-9.16,0.40,-9.17,9.17,9.46,8.40,9.58,9.57,9.57
26.43,0.47,-9.10,0.47,-9.10,9.10,9.41,8.60,9.57,9.57,9.57
26.69,0.54,-9.02,0.54,-9.03,9.03,9.36,8.79,9.57,9.57,9.57
26.96,0.61,-8.95,0.61,-8.96,8.96,9.31,8.99,9.57,9.57,9.57
27.23,0.68,-8.88,0.67,-8.89,8.89,9.25,9.18,9.58,9.57,9.56
27.50,0.74,-8.82,0.74,-8.83,8.83,9.20,9.37,9.57,9.57,9.56
27.77,0.80,-8.76,0.80,-8.77,8.77,9.14,9.56,9.57,9.57,9.57
28.05,0.84,-8.72,0.86,-8.71,8.71,9.09,9.74,9.55,9.57,9.57
28.33,0.91,-8.66,0.92,-8.65,8.65,9.03,9.91,9.56,9.57,9.57
28.62,0.97,-8.60,0.98,-8.59,8.59,8.98,10.07,9.57,9.57,9.57
28.90,1.03,-8.54,1.03,-8.54,8.54,8.92,10.22,9.57,9.57,9.58
29.19,1.08,-8.49,1.08,-8.48,8.48,8.87,10.36,9.57,9.57,9.57
29.48,1.13,-8.44,1.14,-8.43,8.43,8.81,10.48,9.56,9.57,9.57
29.78,1.19,-8.37,1.19,-8.38,8.38,8.75,10.59,9.57,9.56,9.57
30.08,1.24,-8.32,1.23,-8.33,8.33,8.69,10.68,9.57,9.56,9.56
30.38,1.28,-8.27,1.28,-8.28,8.28,8.63,10.76,9.56,9.56,9.55
30.68,1.32,-8.22,1.32,-8.23,8.23,8.58,10.81,9.55,9.55,9.55
30.99,1.36,-8.18,1.36,-8.18,8.18,8.52,10.84,9.54,9.54,9.54
31.30,1.40,-8.14,1.40,-8.14,8.14,8.46,10.86,9.54,9.54,9.54
31.61,1.44,-8.09,1.44,-8.09,8.09,8.40,10.85,9.53,9.53,9.53
31.93,1.47,-8.04,1.48,-8.05,8.05,8.34,10.82,9.52,9.52,9.51
32.24,1.50,-8.01,1.51,-8.00,8.00,8.28,10.77,9.51,9.51,9.52
32.57,1.53,-7.97,1.54,-7.96,7.96,8.21,10.71,9.50,9.50,9.50
32.89,1.56,-7.93,1.57,-7.93,7.93,8.15,10.62,9.49,9.50,9.50
33.22,1.60,-7.89,1.60,-7.89,7.89,8.09,10.52,9.49,9.49,9.49
33.55,1.63,-7.85,1.63,-7.85,7.85,8.03,10.41,9.49,9.48,9.49
33.89,1.66,-7.81,1.66,-7.82,7.82,7.97,10.28,9.48,9.47,9.47
34.23,1.68,-7.77,1.68,-7.78,7.78,7.90,10.14,9.46,9.46,9.45
34.57,1.71,-7.74,1.71,-7.75,7.75,7.84,9.99,9.46,9.45,9.45
34.92,1.73,-7.70,1.73,-7.71,7.71,7.78,9.83,9.44,9.44,9.43
35.27,1.75,-7.69,1.75,-7.68,7.68,7.71,9.67,9.43,9.43,9.45
35.62,1.77,-7.65,1.78,-7.64,7.64,7.65,9.50,9.41,9.42,9.42
35.97,1.79,-7.62,1.80,-7.61,7.61,7.58,9.33,9.40,9.40,9.41
36.33,1.81,-7.58,1.82,-7.57,7.57,7.52,9.16,9.38,9.39,9.39
36.70,1.84,-7.52,1.83,-7.54,7.54,7.45,8.98,9.38,9.37,9.37
37.06,1.86,-7.49,1.85,-7.50,7.50,7.39,8.81,9.36,9.35,9.35
37.43,1.88,-7.45,1.87,-7.46,7.46,7.32,8.63,9.34,9.33,9.33
37.81,1.90,-7.41,1.90,-7.41,7.41,7.26,8.46,9.32,9.31,9.31
38.19,1.92,-7.36,1.92,-7.37,7.37,7.19,8.29,9.29,9.29,9.28
38.57,1.93,-7.33,1.95,-7.32,7.32,7.12,8.12,9.25,9.27,9.27
38.95,1.95,-7.29,1.97,-7.27,7.27,7.06,7.95,9.22,9.24,9.25
39.34,1.98,-7.23,2.01,-7.21,7.21,6.99,7.79,9.20,9.22,9.22
39.74,2.02,-7.16,2.04,-7.16,7.16,6.92,7.63,9.18,9.19,9.19
40.14,2.06,-7.10,2.07,-7.10,7.10,6.85,7.48,9.16,9.17,9.17
40.54,2.11,-7.03,2.11,-7.04,7.04,6.79,7.32,9.15,9.14,9.14
40.94,2.15,-6.96,2.14,-6.97,6.97,6.72,7.18,9.13,9.12,9.11
41.35,2.19,-6.90,2.18,-6.91,6.91,6.65,7.03,9.10,9.09,9.09
41.76,2.23,-6.83,2.23,-6.84,6.84,6.58,6.90,9.08,9.07,9.06
42.18,2.27,-6.77,2.27,-6.77,6.77,6.51,6.76,9.05,9.04,9.05
42.60,2.31,-6.70,2.31,-6.70,6.70,6.44,6.63,9.02,9.02,9.01
43.03,2.35,-6.64,2.36,-6.63,6.63,6.37,6.51,8.98,8.99,8.99
43.46,2.40,-6.55,2.40,-6.56,6.56,6.31,6.39,8.96,8.96,8.96
43.90,2.44,-6.49,2.44,-6.49,6.49,6.24,6.27,8.93,8.93,8.93
44.33,2.48,-6.41,2.49,-6.41,6.41,6.17,6.16,8.90,8.90,8.90
44.78,2.53,-6.34,2.53,-6.34,6.34,6.10,6.05,8.87,8.87,8.87
45.23,2.57,-6.27,2.57,-6.26,6.26,6.03,5.95,8.84,8.83,8.85
45.68,2.61,-6.19,2.61,-6.18,6.18,5.96,5.85,8.80,8.80,8.80
46.13,2.65,-6.11,2.66,-6.10,6.10,5.89,5.76,8.76,8.76,8.76
46.60,2.70,-6.02,2.70,-6.02,6.02,5.81,5.67,8.72,8.72,8.72
47.06,2.74,-5.94,2.74,-5.93,5.93,5.74,5.59,8.68,8.68,8.68
47.53,2.77,-5.87,2.79,-5.85,5.85,5.67,5.50,8.62,8.63,8.65
48.01,2.81,-5.77,2.83,-5.76,5.76,5.60,5.43,8.58,8.59,8.59
48.49,2.86,-5.68,2.87,-5.68,5.68,5.53,5.35,8.54,8.55,8.54
48.97,2.90,-5.59,2.90,-5.60,5.60,5.46,5.28,8.50,8.50,8.49
49.46,2.94,-5.51,2.94,-5.52,5.52,5.39,5.21,8.46,8.45,8.45
49.96,2.98,-5.41,2.97,-5.44,5.44,5.31,5.15,8.42,8.41,8.39
50.46,3.02,-5.33,3.00,-5.36,5.36,5.24,5.09,8.38,8.36,8.36
50.96,3.04,-5.27,3.02,-5.29,5.29,5.17,5.03,8.33,8.31,8.31
51.47,3.06,-5.20,3.05,-5.21,5.21,5.10,4.97,8.28,8.26,8.27
51.99,3.07,-5.14,3.07,-5.15,5.15,5.03,4.92,8.22,8.22,8.21
52.51,3.08,-5.09,3.09,-5.08,5.08,4.95,4.86,8.16,8.17,8.17
53.03,3.10,-5.03,3.11,-5.01,5.01,4.88,4.81,8.11,8.12,8.13
53.56,3.12,-4.96,3.13,-4.95,4.95,4.81,4.76,8.07,8.08,8.09
54.10,3.14,-4.88,3.15,-4.88,4.88,4.74,4.72,8.02,8.03,8.03
54.64,3.16,-4.82,3.17,-4.82,4.82,4.66,4.67,7.98,7.99,7.99
55.18,3.18,-4.75,3.19,-4.75,4.75,4.59,4.62,7.94,7.94,7.93
55.74,3.20,-4.68,3.21,-4.69,4.69,4.52,4.57,7.89,7.90,7.88
56.29,3.22,-4.63,3.23,-4.62,4.62,4.44,4.53,7.84,7.85,7.85
56.86,3.24,-4.56,3.25,-4.55,4.55,4.37,4.48,7.79,7.81,7.80
57.42,3.27,-4.48,3.28,-4.48,4.48,4.29,4.43,7.75,7.76,7.75
58.00,3.30,-4.40,3.30,-4.41,4.41,4.22,4.38,7.71,7.71,7.70
58.58,3.33,-4.33,3.33,-4.33,4.33,4.15,4.33,7.66,7.66,7.66
59.16,3.36,-4.26,3.35,-4.25,4.25,4.07,4.28,7.62,7.61,7.63
59.76,3.39,-4.18,3.37,-4.18,4.18,4.00,4.22,7.57,7.55,7.58
60.35,3.40,-4.11,3.40,-4.10,4.10,3.93,4.17,7.50,7.50,7.51
60.96,3.42,-4.03,3.42,-4.02,4.02,3.85,4.11,7.45,7.44,7.45
61.57,3.44,-3.94,3.44,-3.94,3.94,3.78,4.05,7.39,7.38,7.38
62.18,3.46,-3.85,3.46,-3.86,3.86,3.70,3.98,7.32,7.32,7.31
62.80,3.48,-3.77,3.48,-3.78,3.78,3.63,3.92,7.26,7.26,7.25
63.43,3.50,-3.68,3.50,-3.69,3.69,3.55,3.85,7.20,7.20,7.18
64.07,3.51,-3.61,3.53,-3.61,3.61,3.48,3.77,7.12,7.13,7.12
64.71,3.53,-3.53,3.55,-3.52,3.52,3.40,3.70,7.06,7.07,7.06
65.35,3.55,-3.45,3.57,-3.43,3.43,3.33,3.62,6.99,7.01,7.00
66.01,3.58,-3.36,3.60,-3.34,3.34,3.25,3.54,6.93,6.94,6.94
66.67,3.61,-3.27,3.63,-3.25,3.25,3.18,3.46,6.87,6.88,6.89
67.33,3.64,-3.17,3.65,-3.16,3.16,3.10,3.37,6.81,6.82,6.81
68.01,3.68,-3.07,3.68,-3.07,3.07,3.03,3.29,6.75,6.75,6.76
68.69,3.71,-2.98,3.70,-2.98,2.98,2.95,3.20,6.70,6.69,6.69
69.37,3.73,-2.90,3.73,-2.90,2.90,2.88,3.10,6.63,6.62,6.63
70.07,3.76,-2.80,3.75,-2.81,2.81,2.80,3.01,6.57,6.56,6.56
70.77,3.78,-2.71,3.76,-2.72,2.72,2.73,2.92,6.51,6.49,6.49
71.48,3.79,-2.64,3.78,-2.64,2.64,2.65,2.82,6.44,6.42,6.43
72.19,3.80,-2.55,3.79,-2.56,2.56,2.57,2.72,6.37,6.35,6.35
72.91,3.81,-2.47,3.80,-2.49,2.49,2.50,2.63,6.31,6.29,6.28
73.64,3.80,-2.41,3.80,-2.42,2.42,2.42,2.53,6.23,6.22,6.21
74.38,3.80,-2.34,3.80,-2.36,2.36,2.35,2.43,6.16,6.16,6.15
75.12,3.79,-2.29,3.79,-2.30,2.30,2.27,2.33,6.09,6.09,6.09
75.87,3.78,-2.24,3.79,-2.24,2.24,2.19,2.23,6.02,6.03,6.03
76.63,3.78,-2.17,3.78,-2.18,2.18,2.12,2.13,5.96,5.96,5.96
77.40,3.78,-2.12,3.78,-2.12,2.12,2.04,2.03,5.90,5.90,5.90
78.17,3.77,-2.06,3.78,-2.06,2.06,1.97,1.93,5.83,5.84,5.83
78.95,3.76,-2.02,3.78,-2.00,2.00,1.89,1.83,5.76,5.78,5.78
79.74,3.76,-1.95,3.78,-1.93,1.93,1.81,1.73,5.70,5.72,5.72
80.54,3.77,-1.89,3.79,-1.87,1.87,1.74,1.63,5.64,5.65,5.66
81.35,3.78,-1.81,3.80,-1.80,1.80,1.66,1.53,5.58,5.59,5.59
82.16,3.80,-1.74,3.81,-1.72,1.72,1.58,1.43,5.52,5.53,5.54
82.98,3.82,-1.65,3.83,-1.64,1.64,1.51,1.34,5.47,5.47,5.47
83.81,3.85,-1.56,3.85,-1.56,1.56,1.43,1.24,5.41,5.40,5.41
84.65,3.88,-1.45,3.87,-1.47,1.47,1.35,1.14,5.35,5.34,5.34
85.50,3.90,-1.37,3.90,-1.38,1.38,1.28,1.04,5.28,5.27,5.27
86.35,3.92,-1.28,3.93,-1.28,1.28,1.20,0.95,5.21,5.21,5.21
87.22,3.95,-1.19,3.96,-1.18,1.18,1.12,0.85,5.14,5.14,5.14
88.09,3.98,-1.09,3.99,-1.08,1.08,1.05,0.76,5.06,5.07,5.07
88.97,4.01,-0.99,4.03,-0.98,0.98,0.97,0.66,4.99,5.01,5.01
89.86,4.05,-0.88,4.07,-0.87,0.87,0.89,0.57,4.92,4.94,4.94
90.76,4.10,-0.77,4.10,-0.76,0.76,0.81,0.47,4.87,4.87,4.87
91.66,4.14,-0.65,4.14,-0.66,0.66,0.74,0.38,4.80,4.79,4.79
92.58,4.18,-0.54,4.17,-0.55,0.55,0.66,0.28,4.73,4.72,4.73
93.51,4.22,-0.43,4.21,-0.44,0.44,0.58,0.19,4.66,4.65,4.66
94.44,4.25,-0.33,4.24,-0.33,0.33,0.50,0.10,4.59,4.58,4.58
95.39,4.28,-0.22,4.28,-0.22,0.22,0.43,0.01,4.51,4.50,4.50
96.34,4.30,-0.13,4.31,-0.12,0.12,0.35,-0.09,4.42,4.43,4.43
97.30,4.33,-0.02,4.34,-0.02,0.02,0.27,-0.18,4.35,4.35,4.36
98.28,4.35,0.08,4.36,0.08,-0.08,0.20,-0.27,4.27,4.28,4.27
99.26,4.38,0.19,4.38,0.18,-0.18,0.12,-0.36,4.21,4.21,4.20
100.25,4.40,0.28,4.40,0.27,-0.27,0.04,-0.45,4.14,4.13,4.12
101.25,4.42,0.37,4.42,0.35,-0.35,-0.04,-0.54,4.07,4.06,4.06
102.27,4.44,0.45,4.43,0.43,-0.43,-0.11,-0.63,4.01,3.99,3.99
103.29,4.45,0.54,4.44,0.51,-0.51,-0.19,-0.71,3.94,3.92,3.92
104.32,4.46,0.61,4.44,0.59,-0.59,-0.27,-0.80,3.87,3.85,3.85
105.37,4.45,0.67,4.45,0.66,-0.66,-0.35,-0.89,3.79,3.78,3.79
106.42,4.44,0.72,4.45,0.73,-0.73,-0.42,-0.97,3.71,3.72,3.72
107.48,4.44,0.80,4.45,0.80,-0.80,-0.50,-1.06,3.64,3.65,3.65
108.56,4.43,0.85,4.45,0.87,-0.87,-0.58,-1.14,3.56,3.58,3.58
109.64,4.43,0.92,4.45,0.94,-0.94,-0.65,-1.22,3.49,3.51,3.51
110.74,4.43,0.99,4.44,1.01,-1.01,-0.73,-1.30,3.43,3.43,3.44
111.85,4.43,1.07,4.44,1.08,-1.08,-0.81,-1.37,3.36,3.36,3.37
112.97,4.43,1.13,4.44,1.14,-1.14,-0.89,-1.45,3.29,3.29,3.30
114.10,4.43,1.21,4.43,1.21,-1.21,-0.96,-1.52,3.22,3.22,3.23
115.24,4.43,1.29,4.43,1.28,-1.28,-1.04,-1.59,3.15,3.15,3.14
116.39,4.43,1.36,4.43,1.35,-1.35,-1.12,-1.66,3.08,3.08,3.07
117.55,4.43,1.44,4.43,1.42,-1.42,-1.19,-1.73,3.01,3.01,3.00
118.73,4.43,1.51,4.43,1.49,-1.49,-1.27,-1.79,2.94,2.94,2.93
119.92,4.43,1.57,4.43,1.56,-1.56,-1.35,-1.85,2.87,2.87,2.86
121.12,4.43,1.63,4.43,1.63,-1.63,-1.42,-1.91,2.80,2.80,2.80
122.33,4.43,1.70,4.43,1.70,-1.70,-1.50,-1.96,2.73,2.73,2.73
123.55,4.43,1.76,4.43,1.77,-1.77,-1.57,-2.01,2.66,2.66,2.67
124.79,4.43,1.83,4.43,1.84,-1.84,-1.65,-2.06,2.60,2.60,2.60
126.03,4.43,1.90,4.43,1.90,-1.90,-1.72,-2.10,2.53,2.53,2.54
127.29,4.43,1.96,4.43,1.97,-1.97,-1.80,-2.14,2.46,2.46,2.47
128.57,4.43,2.04,4.43,2.04,-2.04,-1.87,-2.18,2.40,2.39,2.39
129.85,4.43,2.11,4.43,2.11,-2.11,-1.95,-2.22,2.33,2.33,2.33
131.15,4.43,2.18,4.43,2.17,-2.17,-2.02,-2.25,2.26,2.26,2.25
132.46,4.43,2.24,4.44,2.24,-2.24,-2.10,-2.28,2.19,2.19,2.19
133.79,4.43,2.31,4.44,2.31,-2.31,-2.17,-2.31,2.12,2.12,2.12
135.12,4.43,2.38,4.44,2.38,-2.38,-2.24,-2.34,2.05,2.06,2.06
136.48,4.43,2.44,4.44,2.45,-2.45,-2.31,-2.36,1.98,1.99,2.00
137.84,4.43,2.50,4.45,2.52,-2.52,-2.39,-2.39,1.92,1.93,1.93
139.22,4.44,2.58,4.45,2.58,-2.58,-2.46,-2.41,1.86,1.87,1.86
140.61,4.44,2.64,4.45,2.64,-2.64,-2.53,-2.43,1.80,1.80,1.80
142.02,4.45,2.71,4.45,2.70,-2.70,-2.60,-2.45,1.75,1.75,1.74
143.44,4.45,2.77,4.44,2.76,-2.76,-2.67,-2.47,1.70,1.69,1.68
144.87,4.45,2.82,4.44,2.81,-2.81,-2.74,-2.49,1.64,1.63,1.63
146.32,4.44,2.87,4.43,2.86,-2.86,-2.81,-2.50,1.59,1.57,1.57
147.78,4.43,2.91,4.42,2.90,-2.90,-2.88,-2.52,1.53,1.52,1.52
149.26,4.41,2.95,4.40,2.94,-2.94,-2.95,-2.54,1.48,1.46,1.46
150.75,4.39,2.99,4.38,2.97,-2.97,-3.01,-2.56,1.42,1.41,1.40
152.26,4.36,3.01,4.36,3.01,-3.01,-3.08,-2.58,1.36,1.35,1.36
153.78,4.33,3.03,4.33,3.04,-3.04,-3.14,-2.60,1.30,1.30,1.30
155.32,4.30,3.06,4.30,3.06,-3.06,-3.21,-2.63,1.24,1.24,1.25
156.88,4.27,3.08,4.28,3.09,-3.09,-3.27,-2.65,1.18,1.19,1.19
158.44,4.24,3.11,4.25,3.11,-3.11,-3.34,-2.68,1.13,1.13,1.13
160.03,4.21,3.13,4.21,3.14,-3.14,-3.40,-2.70,1.07,1.08,1.08
161.63,4.18,3.16,4.19,3.16,-3.16,-3.46,-2.73,1.02,1.02,1.02
163.24,4.16,3.20,4.16,3.19,-3.19,-3.52,-2.76,0.97,0.97,0.97
164.88,4.13,3.22,4.14,3.23,-3.23,-3.58,-2.80,0.90,0.91,0.91
166.53,4.11,3.27,4.12,3.27,-3.27,-3.64,-2.83,0.85,0.85,0.84
168.19,4.10,3.30,4.10,3.31,-3.31,-3.70,-2.87,0.79,0.79,0.80
169.87,4.08,3.35,4.09,3.36,-3.36,-3.75,-2.91,0.73,0.74,0.74
171.57,4.07,3.40,4.09,3.41,-3.41,-3.81,-2.95,0.66,0.68,0.68
173.29,4.07,3.45,4.09,3.47,-3.47,-3.86,-2.99,0.60,0.62,0.63
175.02,4.07,3.50,4.10,3.53,-3.53,-3.92,-3.04,0.54,0.57,0.57
176.77,4.09,3.58,4.11,3.60,-3.60,-3.97,-3.09,0.49,0.51,0.51
178.54,4.11,3.66,4.12,3.67,-3.67,-4.02,-3.14,0.44,0.45,0.46
180.32,4.13,3.74,4.14,3.74,-3.74,-4.07,-3.19,0.39,0.40,0.39
182.13,4.16,3.82,4.16,3.81,-3.81,-4.11,-3.25,0.35,0.34,0.35
183.95,4.18,3.89,4.18,3.89,-3.89,-4.16,-3.31,0.29,0.29,0.29
185.79,4.21,3.98,4.20,3.96,-3.96,-4.20,-3.37,0.25,0.24,0.23
187.65,4.23,4.05,4.22,4.03,-4.03,-4.25,-3.44,0.20,0.18,0.18
189.52,4.24,4.11,4.23,4.10,-4.10,-4.29,-3.50,0.14,0.13,0.13
191.42,4.25,4.17,4.25,4.16,-4.16,-4.33,-3.57,0.09,0.08,0.09
193.33,4.26,4.22,4.25,4.22,-4.22,-4.37,-3.64,0.04,0.03,0.04
195.27,4.26,4.28,4.26,4.27,-4.27,-4.40,-3.71,-0.01,-0.01,-0.02
197.22,4.26,4.34,4.25,4.31,-4.31,-4.44,-3.79,-0.05,-0.06,-0.07
199.19,4.26,4.37,4.25,4.35,-4.35,-4.47,-3.86,-0.09,-0.10,-0.11
201.18,4.25,4.41,4.24,4.38,-4.38,-4.50,-3.94,-0.13,-0.15,-0.16
203.19,4.23,4.42,4.22,4.41,-4.41,-4.53,-4.02,-0.17,-0.19,-0.19
205.23,4.22,4.44,4.20,4.43,-4.43,-4.56,-4.10,-0.21,-0.23,-0.22
207.28,4.19,4.45,4.19,4.45,-4.45,-4.59,-4.18,-0.26,-0.27,-0.26
209.35,4.17,4.47,4.17,4.48,-4.48,-4.62,-4.26,-0.30,-0.30,-0.30
211.44,4.14,4.48,4.16,4.50,-4.50,-4.64,-4.33,-0.35,-0.34,-0.34
213.56,4.11,4.48,4.15,4.52,-4.52,-4.66,-4.41,-0.41,-0.37,-0.36
215.69,4.09,4.49,4.14,4.54,-4.54,-4.68,-4.49,-0.45,-0.41,-0.40
217.85,4.09,4.53,4.13,4.57,-4.57,-4.70,-4.57,-0.47,-0.44,-0.44
220.03,4.09,4.56,4.12,4.59,-4.59,-4.71,-4.64,-0.50,-0.47,-0.47
222.23,4.10,4.61,4.11,4.61,-4.61,-4.73,-4.71,-0.51,-0.50,-0.50
224.45,4.11,4.64,4.11,4.64,-4.64,-4.74,-4.78,-0.52,-0.53,-0.53
226.70,4.12,4.68,4.11,4.66,-4.66,-4.75,-4.85,-0.54,-0.55,-0.56
228.96,4.12,4.69,4.10,4.68,-4.68,-4.76,-4.91,-0.56,-0.58,-0.57
231.25,4.12,4.73,4.10,4.70,-4.70,-4.77,-4.97,-0.58,-0.60,-0.60
233.57,4.11,4.74,4.09,4.71,-4.71,-4.77,-5.02,-0.60,-0.62,-0.62
235.90,4.10,4.74,4.08,4.72,-4.72,-4.77,-5.07,-0.62,-0.64,-0.64
238.26,4.08,4.75,4.07,4.73,-4.73,-4.78,-5.11,-0.65,-0.66,-0.67
240.64,4.06,4.73,4.05,4.73,-4.73,-4.78,-5.15,-0.66,-0.67,-0.67
243.05,4.03,4.72,4.03,4.72,-4.72,-4.77,-5.18,-0.69,-0.69,-0.69
245.48,4.01,4.72,4.01,4.71,-4.71,-4.77,-5.20,-0.70,-0.70,-0.70
247.93,3.98,4.70,3.98,4.69,-4.69,-4.77,-5.21,-0.71,-0.71,-0.72
250.41,3.95,4.67,3.96,4.68,-4.68,-4.76,-5.22,-0.72,-0.72,-0.72
252.92,3.92,4.64,3.93,4.66,-4.66,-4.75,-5.22,-0.74,-0.73,-0.72
255.45,3.89,4.63,3.91,4.64,-4.64,-4.74,-5.22,-0.75,-0.73,-0.73
258.00,3.86,4.60,3.88,4.62,-4.62,-4.73,-5.20,-0.76,-0.74,-0.74
260.58,3.85,4.60,3.86,4.61,-4.61,-4.71,-5.18,-0.75,-0.75,-0.74
263.19,3.83,4.58,3.84,4.59,-4.59,-4.70,-5.16,-0.76,-0.75,-0.75
265.82,3.81,4.57,3.82,4.58,-4.58,-4.68,-5.12,-0.76,-0.76,-0.76
268.48,3.79,4.55,3.79,4.56,-4.56,-4.67,-5.09,-0.77,-0.77,-0.76
271.16,3.77,4.54,3.77,4.54,-4.54,-4.65,-5.04,-0.77,-0.77,-0.76
273.87,3.76,4.54,3.75,4.53,-4.53,-4.63,-5.00,-0.76,-0.77,-0.77
276.61,3.74,4.52,3.73,4.51,-4.51,-4.60,-4.94,-0.76,-0.78,-0.78
279.38,3.71,4.51,3.70,4.49,-4.49,-4.58,-4.89,-0.77,-0.78,-0.80
282.17,3.69,4.49,3.68,4.46,-4.46,-4.56,-4.83,-0.77,-0.78,-0.80
284.99,3.66,4.45,3.65,4.44,-4.44,-4.53,-4.77,-0.78,-0.79,-0.79
287.84,3.64,4.43,3.63,4.41,-4.41,-4.51,-4.71,-0.77,-0.79,-0.79
290.72,3.60,4.40,3.60,4.39,-4.39,-4.48,-4.64,-0.78,-0.79,-0.79
293.63,3.57,4.36,3.58,4.36,-4.36,-4.45,-4.58,-0.79,-0.79,-0.78
296.57,3.54,4.32,3.56,4.34,-4.34,-4.42,-4.51,-0.80,-0.78,-0.78
299.53,3.52,4.30,3.54,4.32,-4.32,-4.39,-4.44,-0.79,-0.78,-0.78
302.53,3.49,4.26,3.52,4.29,-4.29,-4.36,-4.37,-0.80,-0.78,-0.77
305.55,3.47,4.25,3.50,4.27,-4.27,-4.33,-4.31,-0.80,-0.77,-0.77
308.61,3.46,4.23,3.49,4.25,-4.25,-4.29,-4.24,-0.79,-0.77,-0.76
311.69,3.46,4.22,3.48,4.24,-4.24,-4.26,-4.18,-0.77,-0.76,-0.76
314.81,3.46,4.22,3.46,4.22,-4.22,-4.22,-4.12,-0.75,-0.75,-0.76
317.96,3.46,4.22,3.45,4.20,-4.20,-4.19,-4.05,-0.74,-0.75,-0.75
321.14,3.45,4.19,3.44,4.18,-4.18,-4.15,-3.99,-0.73,-0.74,-0.74
324.35,3.45,4.20,3.42,4.16,-4.16,-4.11,-3.94,-0.71,-0.74,-0.74
327.59,3.43,4.15,3.41,4.14,-4.14,-4.08,-3.88,-0.71,-0.73,-0.72
330.87,3.41,4.14,3.39,4.12,-4.12,-4.04,-3.83,-0.70,-0.73,-0.73
334.18,3.38,4.10,3.37,4.09,-4.09,-4.00,-3.78,-0.71,-0.72,-0.72
337.52,3.35,4.07,3.35,4.06,-4.06,-3.96,-3.73,-0.71,-0.71,-0.72
340.90,3.32,4.02,3.32,4.03,-4.03,-3.92,-3.69,-0.70,-0.71,-0.70
344.30,3.29,3.99,3.29,3.99,-3.99,-3.88,-3.64,-0.70,-0.70,-0.70
347.75,3.26,3.95,3.26,3.96,-3.96,-3.84,-3.60,-0.69,-0.69,-0.69
351.23,3.23,3.93,3.23,3.92,-3.92,-3.80,-3.57,-0.69,-0.69,-0.70
354.74,3.20,3.87,3.21,3.89,-3.89,-3.76,-3.53,-0.68,-0.68,-0.67
358.28,3.17,3.85,3.19,3.86,-3.86,-3.72,-3.50,-0.69,-0.67,-0.67
361.87,3.15,3.82,3.17,3.83,-3.83,-3.68,-3.47,-0.68,-0.67,-0.67
365.49,3.13,3.79,3.15,3.81,-3.81,-3.63,-3.45,-0.68,-0.66,-0.66
369.14,3.12,3.77,3.14,3.80,-3.80,-3.59,-3.42,-0.67,-0.65,-0.65
372.83,3.11,3.75,3.14,3.78,-3.78,-3.55,-3.40,-0.67,-0.64,-0.64
376.56,3.11,3.76,3.14,3.77,-3.77,-3.51,-3.39,-0.66,-0.64,-0.64
380.33,3.12,3.76,3.14,3.76,-3.76,-3.47,-3.37,-0.64,-0.63,-0.64
384.13,3.13,3.75,3.14,3.76,-3.76,-3.42,-3.36,-0.62,-0.62,-0.62
387.97,3.14,3.75,3.14,3.75,-3.75,-3.38,-3.35,-0.61,-0.61,-0.61
391.85,3.15,3.76,3.14,3.74,-3.74,-3.34,-3.34,-0.59,-0.60,-0.60
395.77,3.16,3.76,3.14,3.73,-3.73,-3.30,-3.33,-0.57,-0.59,-0.60
399.73,3.15,3.74,3.13,3.72,-3.72,-3.25,-3.33,-0.56,-0.58,-0.59
403.72,3.15,3.72,3.13,3.70,-3.70,-3.21,-3.33,-0.55,-0.57,-0.56
407.76,3.13,3.70,3.12,3.68,-3.68,-3.17,-3.32,-0.55,-0.57,-0.56
411.84,3.11,3.67,3.10,3.66,-3.66,-3.13,-3.32,-0.55,-0.56,-0.56
415.96,3.09,3.63,3.09,3.64,-3.64,-3.08,-3.32,-0.54,-0.55,-0.54
420.12,3.06,3.60,3.07,3.61,-3.61,-3.04,-3.33,-0.54,-0.54,-0.54
424.32,3.03,3.57,3.04,3.57,-3.57,-3.00,-3.33,-0.54,-0.53,-0.53
428.56,3.00,3.52,3.02,3.54,-3.54,-2.96,-3.33,-0.54,-0.52,-0.52
432.85,2.97,3.48,2.99,3.50,-3.50,-2.91,-3.33,-0.53,-0.51,-0.51
437.18,2.95,3.46,2.95,3.46,-3.46,-2.87,-3.34,-0.51,-0.51,-0.51
441.55,2.93,3.43,2.92,3.42,-3.42,-2.83,-3.34,-0.49,-0.50,-0.50
445.96,2.90,3.40,2.89,3.38,-3.38,-2.79,-3.34,-0.48,-0.49,-0.49
450.42,2.87,3.36,2.86,3.34,-3.34,-2.75,-3.34,-0.47,-0.48,-0.48
454.93,2.83,3.31,2.84,3.31,-3.31,-2.71,-3.34,-0.47,-0.47,-0.48
459.48,2.80,3.27,2.81,3.27,-3.27,-2.67,-3.34,-0.47,-0.46,-0.47
464.07,2.76,3.21,2.78,3.24,-3.24,-2.62,-3.33,-0.47,-0.46,-0.45
468.71,2.73,3.17,2.75,3.20,-3.20,-2.58,-3.32,-0.47,-0.45,-0.44
473.40,2.70,3.14,2.72,3.16,-3.16,-2.54,-3.31,-0.46,-0.44,-0.43
478.13,2.68,3.11,2.69,3.12,-3.12,-2.50,-3.30,-0.44,-0.43,-0.42
482.91,2.67,3.09,2.66,3.08,-3.08,-2.46,-3.28,-0.41,-0.42,-0.41
487.74,2.65,3.06,2.63,3.04,-3.04,-2.43,-3.27,-0.38,-0.40,-0.41
492.62,2.62,3.02,2.60,2.99,-2.99,-2.39,-3.24,-0.37,-0.39,-0.40
497.55,2.59,2.98,2.57,2.95,-2.95,-2.35,-3.22,-0.36,-0.38,-0.39
502.52,2.55,2.93,2.54,2.91,-2.91,-2.31,-3.19,-0.36,-0.37,-0.38
507.55,2.51,2.87,2.51,2.87,-2.87,-2.27,-3.15,-0.36,-0.36,-0.36
512.62,2.46,2.81,2.48,2.83,-2.83,-2.23,-3.12,-0.37,-0.35,-0.35
517.75,2.42,2.76,2.45,2.79,-2.79,-2.19,-3.08,-0.36,-0.34,-0.33
522.93,2.39,2.72,2.41,2.74,-2.74,-2.16,-3.03,-0.35,-0.33,-0.32
