frequency,raw,error,smoothed,error_smoothed,equalization,parametric_eq,fixed_band_eq,equalized_raw,equalized_smoothed,target
20.00,7.58,-3.41,7.57,-3.42,3.43,3.15,0.91,11.01,11.00,11.00
20.20,7.61,-3.39,7.62,-3.38,3.38,3.13,0.94,10.99,11.00,11.01
20.40,7.66,-3.35,7.67,-3.34,3.33,3.10,0.97,11.00,11.01,11.02
20.61,7.72,-3.30,7.73,-3.29,3.28,3.08,1.00,11.01,11.01,11.03
20.81,7.80,-3.22,7.79,-3.24,3.24,3.05,1.04,11.04,11.03,11.03
21.02,7.85,-3.18,7.85,-3.18,3.19,3.03,1.07,11.04,11.05,11.04
21.23,7.90,-3.14,7.91,-3.13,3.14,3.00,1.11,11.05,11.05,11.05
21.44,7.96,-3.09,7.96,-3.10,3.10,2.97,1.14,11.06,11.05,11.06
21.66,8.00,-3.05,8.01,-3.05,3.05,2.94,1.18,11.06,11.06,11.06
21.87,8.04,-3.02,8.05,-3.01,3.01,2.92,1.22,11.06,11.06,11.07
22.09,8.10,-2.96,8.10,-2.97,2.97,2.89,1.26,11.07,11.06,11.07
22.31,8.14,-2.93,8.14,-2.93,2.93,2.86,1.30,11.07,11.07,11.08
22.54,8.18,-2.89,8.19,-2.89,2.88,2.83,1.34,11.07,11.07,11.08
22.76,8.24,-2.84,8.24,-2.84,2.84,2.79,1.38,11.08,11.08,11.09
22.99,8.28,-2.80,8.29,-2.80,2.79,2.76,1.42,11.08,11.08,11.09
23.22,8.34,-2.74,8.34,-2.75,2.75,2.73,1.47,11.10,11.09,11.09
23.45,8.38,-2.71,8.39,-2.70,2.72,2.70,1.51,11.10,11.10,11.10
23.69,8.43,-2.66,8.43,-2.67,2.68,2.67,1.56,11.11,11.11,11.10
23.92,8.47,-2.62,8.46,-2.63,2.64,2.63,1.61,11.12,11.11,11.10
24.16,8.47,-2.62,8.49,-2.61,2.61,2.60,1.66,11.08,11.10,11.10
24.40,8.52,-2.58,8.52,-2.59,2.58,2.57,1.70,11.10,11.09,11.11
24.65,8.54,-2.56,8.55,-2.56,2.54,2.53,1.75,11.08,11.09,11.11
24.89,8.59,-2.51,8.59,-2.52,2.50,2.50,1.80,11.10,11.09,11.11
25.14,8.62,-2.48,8.63,-2.47,2.47,2.46,1.85,11.09,11.10,11.11
25.39,8.68,-2.42,8.68,-2.42,2.43,2.43,1.90,11.11,11.11,11.11
25.65,8.73,-2.37,8.73,-2.38,2.39,2.39,1.95,11.12,11.11,11.11
25.91,8.76,-2.34,8.77,-2.33,2.35,2.35,2.00,11.11,11.12,11.11
26.16,8.80,-2.30,8.80,-2.30,2.31,2.32,2.05,11.11,11.11,11.11
26.43,8.84,-2.26,8.83,-2.27,2.27,2.28,2.10,11.11,11.10,11.11
26.69,8.85,-2.25,8.86,-2.24,2.24,2.24,2.15,11.09,11.10,11.11
26.96,8.89,-2.21,8.90,-2.21,2.20,2.21,2.19,11.10,11.10,11.11
27.23,8.94,-2.16,8.93,-2.17,2.17,2.17,2.24,11.11,11.10,11.11
27.50,8.97,-2.13,8.97,-2.14,2.14,2.13,2.28,11.11,11.11,11.11
27.77,8.98,-2.12,9.00,-2.11,2.11,2.09,2.32,11.09,11.11,11.11
28.05,9.03,-2.07,9.03,-2.08,2.08,2.06,2.36,11.11,11.11,11.11
28.33,9.06,-2.04,9.06,-2.05,2.05,2.02,2.40,11.11,11.11,11.11
28.62,9.08,-2.02,9.09,-2.02,2.02,1.98,2.43,11.10,11.11,11.11
28.90,9.12,-1.98,9.11,-1.99,1.99,1.94,2.46,11.12,11.11,11.11
29.19,9.13,-1.97,9.14,-1.96,1.96,1.90,2.48,11.10,11.11,11.11
29.48,9.17,-1.93,9.17,-1.93,1.93,1.87,2.51,11.11,11.11,11.11
29.78,9.20,-1.90,9.20,-1.91,1.90,1.83,2.52,11.10,11.10,11.11
30.08,9.23,-1.87,9.23,-1.87,1.86,1.79,2.54,11.09,11.09,11.11
30.38,9.26,-1.83,9.27,-1.83,1.82,1.75,2.54,11.08,11.09,11.10
30.68,9.31,-1.78,9.32,-1.78,1.77,1.71,2.55,11.09,11.09,11.10
30.99,9.37,-1.72,9.37,-1.73,1.72,1.67,2.54,11.10,11.09,11.10
31.30,9.42,-1.66,9.42,-1.67,1.68,1.63,2.54,11.10,11.10,11.09
31.61,9.45,-1.63,9.47,-1.62,1.63,1.60,2.52,11.09,11.10,11.09
31.93,9.50,-1.57,9.50,-1.58,1.59,1.56,2.51,11.10,11.09,11.08
32.24,9.54,-1.53,9.53,-1.54,1.55,1.52,2.49,11.10,11.08,11.08
32.57,9.54,-1.52,9.55,-1.51,1.52,1.48,2.46,11.06,11.07,11.07
32.89,9.57,-1.49,9.57,-1.49,1.48,1.44,2.43,11.06,11.06,11.07
33.22,9.59,-1.46,9.60,-1.46,1.45,1.40,2.39,11.04,11.04,11.06
33.55,9.62,-1.43,9.63,-1.43,1.41,1.36,2.35,11.04,11.04,11.06
33.89,9.66,-1.38,9.66,-1.39,1.38,1.32,2.30,11.04,11.03,11.05
34.23,9.68,-1.35,9.70,-1.34,1.34,1.28,2.25,11.03,11.04,11.04
34.57,9.73,-1.29,9.73,-1.29,1.31,1.24,2.20,11.04,11.04,11.03
34.92,9.77,-1.24,9.76,-1.26,1.27,1.20,2.14,11.05,11.03,11.02
35.27,9.78,-1.23,9.79,-1.22,1.24,1.17,2.08,11.02,11.02,11.02
35.62,9.78,-1.21,9.80,-1.20,1.20,1.13,2.02,10.98,11.00,11.00
35.97,9.82,-1.16,9.81,-1.18,1.17,1.09,1.96,10.99,10.98,10.99
36.33,9.82,-1.15,9.83,-1.14,1.13,1.05,1.89,10.96,10.96,10.98
36.70,9.85,-1.10,9.86,-1.10,1.10,1.01,1.82,10.95,10.95,10.96
37.06,9.87,-1.07,9.88,-1.06,1.06,0.97,1.75,10.94,10.94,10.95
37.43,9.91,-1.01,9.90,-1.02,1.03,0.93,1.68,10.94,10.93,10.93
37.81,9.92,-0.98,9.93,-0.98,0.99,0.89,1.61,10.91,10.92,10.91
38.19,9.94,-0.95,9.94,-0.95,0.95,0.85,1.54,10.89,10.89,10.90
38.57,9.96,-0.91,9.96,-0.91,0.91,0.81,1.46,10.87,10.87,10.88
38.95,9.97,-0.88,9.98,-0.88,0.87,0.77,1.39,10.84,10.85,10.86
39.34,10.01,-0.82,10.00,-0.83,0.83,0.73,1.31,10.84,10.83,10.84
39.74,10.01,-0.80,10.03,-0.79,0.79,0.69,1.24,10.80,10.82,10.82
40.14,10.06,-0.73,10.05,-0.75,0.75,0.65,1.16,10.82,10.80,10.80
40.54,10.06,-0.71,10.06,-0.71,0.72,0.61,1.09,10.78,10.78,10.78
40.94,10.06,-0.68,10.07,-0.68,0.68,0.57,1.01,10.75,10.76,10.75
41.35,10.08,-0.64,10.08,-0.65,0.65,0.53,0.94,10.73,10.72,10.73
41.76,10.08,-0.61,10.09,-0.61,0.61,0.49,0.86,10.69,10.70,10.70
42.18,10.10,-0.57,10.09,-0.58,0.57,0.45,0.79,10.67,10.66,10.68
42.60,10.10,-0.54,10.11,-0.54,0.53,0.41,0.71,10.63,10.63,10.65
43.03,10.10,-0.51,10.12,-0.50,0.49,0.37,0.64,10.59,10.60,10.62
43.46,10.15,-0.43,10.14,-0.45,0.44,0.33,0.57,10.59,10.58,10.59
43.90,10.15,-0.40,10.17,-0.39,0.39,0.29,0.50,10.55,10.56,10.56
44.33,10.20,-0.32,10.19,-0.33,0.35,0.25,0.42,10.55,10.54,10.53
44.78,10.20,-0.29,10.20,-0.30,0.31,0.21,0.35,10.51,10.51,10.50
45.23,10.20,-0.26,10.21,-0.25,0.27,0.17,0.28,10.47,10.48,10.47
45.68,10.20,-0.22,10.20,-0.22,0.23,0.13,0.21,10.43,10.43,10.43
46.13,10.20,-0.18,10.20,-0.18,0.18,0.09,0.14,10.39,10.39,10.39
46.60,10.20,-0.14,10.20,-0.15,0.14,0.04,0.07,10.34,10.34,10.35
47.06,10.20,-0.11,10.20,-0.11,0.09,0.00,-0.00,10.29,10.29,10.32
47.53,10.20,-0.07,10.22,-0.05,0.03,-0.04,-0.07,10.24,10.25,10.28
48.01,10.24,0.02,10.24,0.01,-0.03,-0.08,-0.14,10.22,10.21,10.23
48.49,10.28,0.10,10.27,0.09,-0.09,-0.12,-0.21,10.19,10.18,10.19
48.97,10.29,0.16,10.31,0.17,-0.15,-0.17,-0.28,10.14,10.15,10.14
49.46,10.34,0.25,10.33,0.24,-0.22,-0.21,-0.35,10.13,10.11,10.10
49.96,10.34,0.30,10.34,0.29,-0.28,-0.25,-0.42,10.07,10.07,10.05
50.46,10.34,0.34,10.35,0.34,-0.33,-0.29,-0.48,10.01,10.02,10.01
50.96,10.34,0.38,10.34,0.38,-0.38,-0.34,-0.55,9.96,9.96,9.97
51.47,10.34,0.42,10.34,0.42,-0.43,-0.38,-0.61,9.92,9.92,9.93
51.99,10.34,0.47,10.34,0.46,-0.47,-0.42,-0.68,9.87,9.87,9.88
52.51,10.34,0.51,10.34,0.51,-0.51,-0.47,-0.74,9.83,9.83,9.84
53.03,10.34,0.55,10.34,0.55,-0.56,-0.51,-0.81,9.79,9.79,9.80
53.56,10.34,0.60,10.34,0.60,-0.60,-0.56,-0.87,9.74,9.74,9.75
54.10,10.34,0.65,10.34,0.65,-0.65,-0.60,-0.93,9.70,9.70,9.70
54.64,10.34,0.70,10.34,0.70,-0.70,-0.64,-0.99,9.65,9.65,9.65
55.18,10.34,0.75,10.34,0.75,-0.74,-0.69,-1.05,9.60,9.60,9.60
55.74,10.34,0.80,10.34,0.79,-0.79,-0.74,-1.11,9.55,9.55,9.55
56.29,10.34,0.84,10.34,0.84,-0.84,-0.78,-1.16,9.51,9.51,9.51
56.86,10.34,0.88,10.34,0.88,-0.88,-0.83,-1.22,9.46,9.46,9.47
57.42,10.34,0.93,10.34,0.92,-0.92,-0.87,-1.27,9.42,9.42,9.42
58.00,10.34,0.97,10.34,0.97,-0.96,-0.92,-1.32,9.38,9.38,9.38
58.58,10.34,1.01,10.34,1.01,-1.01,-0.97,-1.37,9.34,9.34,9.34
59.16,10.34,1.05,10.34,1.05,-1.05,-1.01,-1.42,9.29,9.29,9.30
59.76,10.34,1.09,10.34,1.09,-1.10,-1.06,-1.47,9.24,9.24,9.26
60.35,10.34,1.15,10.34,1.15,-1.16,-1.11,-1.51,9.19,9.19,9.20
60.96,10.34,1.21,10.34,1.21,-1.21,-1.16,-1.55,9.13,9.13,9.14
61.57,10.34,1.27,10.34,1.27,-1.27,-1.21,-1.59,9.07,9.07,9.08
62.18,10.34,1.34,10.34,1.34,-1.33,-1.25,-1.63,9.01,9.01,9.01
62.80,10.34,1.40,10.34,1.40,-1.39,-1.30,-1.66,8.96,8.96,8.95
63.43,10.34,1.46,10.34,1.46,-1.45,-1.35,-1.70,8.90,8.90,8.89
64.07,10.34,1.51,10.34,1.51,-1.51,-1.40,-1.73,8.84,8.84,8.84
64.71,10.34,1.56,10.34,1.56,-1.56,-1.45,-1.76,8.78,8.78,8.79
65.35,10.34,1.61,10.34,1.61,-1.62,-1.50,-1.79,8.73,8.73,8.74
66.01,10.34,1.66,10.34,1.66,-1.67,-1.55,-1.81,8.68,8.68,8.69
66.67,10.34,1.71,10.35,1.71,-1.71,-1.61,-1.84,8.63,8.63,8.64
67.33,10.34,1.77,10.35,1.77,-1.76,-1.66,-1.86,8.59,8.59,8.58
68.01,10.34,1.83,10.34,1.82,-1.80,-1.71,-1.88,8.54,8.54,8.52
68.69,10.31,1.86,10.31,1.85,-1.84,-1.76,-1.90,8.47,8.47,8.46
69.37,10.28,1.88,10.28,1.88,-1.88,-1.81,-1.92,8.40,8.41,8.41
70.07,10.24,1.90,10.26,1.91,-1.92,-1.86,-1.94,8.32,8.34,8.35
70.77,10.24,1.96,10.23,1.94,-1.96,-1.92,-1.96,8.28,8.27,8.29
71.48,10.21,1.99,10.22,1.99,-2.01,-1.97,-1.98,8.21,8.21,8.23
72.19,10.20,2.04,10.21,2.05,-2.05,-2.02,-2.00,8.15,8.16,8.17
72.91,10.20,2.11,10.20,2.10,-2.11,-2.07,-2.01,8.10,8.09,8.10
73.64,10.20,2.17,10.20,2.17,-2.16,-2.13,-2.03,8.04,8.04,8.04
74.38,10.20,2.23,10.20,2.23,-2.22,-2.18,-2.05,7.98,7.98,7.98
75.12,10.20,2.29,10.20,2.29,-2.28,-2.23,-2.07,7.92,7.92,7.92
75.87,10.20,2.34,10.20,2.34,-2.34,-2.29,-2.09,7.86,7.86,7.87
76.63,10.20,2.40,10.21,2.40,-2.39,-2.34,-2.11,7.81,7.82,7.81
77.40,10.20,2.45,10.20,2.45,-2.44,-2.39,-2.13,7.77,7.76,7.76
78.17,10.20,2.51,10.19,2.49,-2.48,-2.45,-2.15,7.72,7.71,7.70
78.95,10.15,2.51,10.17,2.52,-2.52,-2.50,-2.18,7.64,7.65,7.65
79.74,10.15,2.56,10.15,2.56,-2.55,-2.55,-2.20,7.60,7.59,7.60
80.54,10.11,2.58,10.12,2.58,-2.59,-2.61,-2.23,7.52,7.52,7.54
81.35,10.10,2.63,10.10,2.62,-2.63,-2.66,-2.26,7.47,7.47,7.48
82.16,10.06,2.64,10.08,2.65,-2.67,-2.71,-2.28,7.39,7.41,7.43
82.98,10.07,2.71,10.07,2.70,-2.71,-2.76,-2.32,7.36,7.36,7.37
83.81,10.06,2.76,10.06,2.76,-2.75,-2.81,-2.35,7.31,7.31,7.31
84.65,10.06,2.82,10.06,2.81,-2.80,-2.87,-2.38,7.27,7.26,7.25
85.50,10.04,2.86,10.04,2.85,-2.84,-2.92,-2.42,7.20,7.20,7.19
86.35,10.01,2.88,10.03,2.89,-2.89,-2.97,-2.46,7.12,7.13,7.14
87.22,10.01,2.94,10.00,2.93,-2.93,-3.02,-2.50,7.08,7.07,7.08
88.09,9.98,2.97,9.99,2.97,-2.98,-3.06,-2.54,7.01,7.01,7.02
88.97,9.96,3.01,9.97,3.02,-3.01,-3.11,-2.59,6.95,6.96,6.96
89.86,9.96,3.07,9.95,3.05,-3.05,-3.16,-2.63,6.91,6.90,6.90
90.76,9.92,3.09,9.93,3.10,-3.09,-3.21,-2.68,6.83,6.84,6.84
91.66,9.89,3.13,9.90,3.13,-3.13,-3.25,-2.73,6.77,6.77,6.77
92.58,9.87,3.17,9.87,3.16,-3.16,-3.30,-2.78,6.71,6.71,6.71
93.51,9.83,3.19,9.84,3.20,-3.20,-3.34,-2.84,6.64,6.65,6.65
94.44,9.82,3.24,9.81,3.23,-3.23,-3.38,-2.89,6.59,6.58,6.59
95.39,9.78,3.27,9.79,3.27,-3.27,-3.43,-2.95,6.51,6.52,6.52
96.34,9.75,3.31,9.76,3.31,-3.31,-3.47,-3.01,6.44,6.45,6.45
97.30,9.73,3.35,9.72,3.34,-3.35,-3.51,-3.07,6.38,6.37,6.39
98.28,9.68,3.37,9.70,3.39,-3.39,-3.54,-3.13,6.29,6.31,6.32
99.26,9.68,3.44,9.68,3.44,-3.44,-3.58,-3.20,6.25,6.25,6.25
100.25,9.68,3.51,9.67,3.49,-3.48,-3.62,-3.26,6.20,6.19,6.18
101.25,9.64,3.52,9.65,3.53,-3.52,-3.65,-3.33,6.12,6.13,6.13
102.27,9.64,3.58,9.63,3.56,-3.57,-3.68,-3.40,6.08,6.06,6.07
103.29,9.59,3.59,9.61,3.61,-3.61,-3.72,-3.46,5.98,6.00,6.01
104.32,9.59,3.65,9.59,3.65,-3.65,-3.75,-3.53,5.94,5.94,5.95
105.37,9.59,3.71,9.58,3.69,-3.69,-3.77,-3.60,5.90,5.89,5.89
106.42,9.54,3.71,9.56,3.73,-3.73,-3.80,-3.67,5.82,5.84,5.84
107.48,9.54,3.78,9.53,3.77,-3.76,-3.83,-3.74,5.78,5.78,5.77
108.56,9.50,3.80,9.51,3.80,-3.79,-3.85,-3.80,5.71,5.71,5.71
109.64,9.47,3.83,9.48,3.83,-3.82,-3.87,-3.87,5.65,5.65,5.65
110.74,9.44,3.86,9.44,3.85,-3.86,-3.90,-3.93,5.59,5.58,5.59
111.85,9.39,3.87,9.40,3.88,-3.89,-3.92,-3.99,5.51,5.51,5.53
112.97,9.36,3.91,9.37,3.91,-3.92,-3.94,-4.05,5.45,5.45,5.46
114.10,9.33,3.94,9.33,3.94,-3.95,-3.95,-4.11,5.39,5.39,5.40
115.24,9.31,3.99,9.30,3.98,-3.98,-3.97,-4.17,5.34,5.33,5.33
116.39,9.26,4.01,9.27,4.01,-4.01,-3.98,-4.22,5.26,5.27,5.26
117.55,9.23,4.04,9.23,4.04,-4.04,-4.00,-4.27,5.20,5.20,5.20
118.73,9.20,4.08,9.20,4.07,-4.06,-4.01,-4.31,5.14,5.13,5.13
119.92,9.15,4.09,9.16,4.09,-4.09,-4.02,-4.35,5.06,5.07,5.07
121.12,9.12,4.11,9.12,4.11,-4.11,-4.03,-4.38,5.01,5.01,5.02
122.33,9.08,4.13,9.09,4.13,-4.13,-4.04,-4.41,4.95,4.95,4.96
123.55,9.05,4.16,9.05,4.16,-4.15,-4.05,-4.44,4.90,4.90,4.90
124.79,9.01,4.18,9.01,4.17,-4.17,-4.05,-4.46,4.84,4.84,4.84
126.03,8.97,4.20,8.97,4.19,-4.19,-4.06,-4.48,4.78,4.78,4.78
127.29,8.91,4.20,8.92,4.21,-4.22,-4.07,-4.49,4.70,4.71,4.72
128.57,8.88,4.24,8.88,4.23,-4.24,-4.07,-4.50,4.65,4.64,4.65
129.85,8.83,4.25,8.84,4.25,-4.26,-4.07,-4.50,4.58,4.58,4.59
131.15,8.80,4.28,8.80,4.28,-4.28,-4.08,-4.50,4.53,4.53,4.53
132.46,8.76,4.30,8.76,4.30,-4.29,-4.08,-4.49,4.47,4.47,4.47
133.79,8.71,4.31,8.72,4.32,-4.30,-4.08,-4.48,4.41,4.42,4.41
135.12,8.68,4.34,8.67,4.32,-4.32,-4.09,-4.47,4.37,4.36,4.35
136.48,8.61,4.32,8.61,4.32,-4.33,-4.09,-4.45,4.29,4.29,4.30
137.84,8.55,4.32,8.56,4.32,-4.33,-4.09,-4.43,4.22,4.23,4.24
139.22,8.49,4.32,8.50,4.32,-4.33,-4.09,-4.41,4.16,4.17,4.18
140.61,8.45,4.33,8.45,4.33,-4.32,-4.10,-4.39,4.13,4.13,4.13
142.02,8.40,4.33,8.40,4.33,-4.31,-4.10,-4.36,4.09,4.09,4.08
143.44,8.35,4.33,8.35,4.32,-4.30,-4.10,-4.34,4.05,4.05,4.03
144.87,8.27,4.29,8.28,4.30,-4.29,-4.11,-4.31,3.99,3.99,3.99
146.32,8.20,4.27,8.20,4.26,-4.27,-4.11,-4.28,3.93,3.93,3.94
147.78,8.12,4.24,8.13,4.24,-4.26,-4.11,-4.26,3.86,3.87,3.89
149.26,8.05,4.22,8.06,4.23,-4.24,-4.12,-4.23,3.81,3.82,3.84
150.75,8.01,4.23,8.01,4.22,-4.23,-4.12,-4.20,3.79,3.78,3.79
152.26,7.96,4.22,7.96,4.22,-4.21,-4.13,-4.18,3.75,3.75,3.75
153.78,7.90,4.21,7.90,4.21,-4.19,-4.14,-4.16,3.71,3.71,3.70
155.32,7.83,4.19,7.83,4.19,-4.18,-4.14,-4.13,3.66,3.65,3.65
156.88,7.75,4.16,7.76,4.16,-4.16,-4.15,-4.11,3.60,3.60,3.60
158.44,7.67,4.13,7.68,4.13,-4.13,-4.16,-4.09,3.54,3.54,3.55
160.03,7.59,4.10,7.59,4.10,-4.10,-4.17,-4.08,3.49,3.49,3.50
161.63,7.51,4.07,7.51,4.07,-4.07,-4.18,-4.06,3.45,3.45,3.45
163.24,7.42,4.03,7.43,4.03,-4.02,-4.19,-4.05,3.40,3.41,3.40
164.88,7.34,4.00,7.34,3.99,-3.97,-4.21,-4.04,3.37,3.36,3.35
166.53,7.23,3.94,7.23,3.94,-3.92,-4.22,-4.04,3.31,3.31,3.30
168.19,7.12,3.88,7.12,3.88,-3.87,-4.23,-4.04,3.26,3.26,3.25
169.87,7.01,3.82,7.01,3.82,-3.81,-4.25,-4.04,3.20,3.20,3.20
171.57,6.90,3.76,6.91,3.76,-3.77,-4.27,-4.04,3.14,3.14,3.15
173.29,6.82,3.73,6.82,3.72,-3.73,-4.29,-4.05,3.09,3.09,3.10
175.02,6.73,3.69,6.74,3.69,-3.71,-4.31,-4.05,3.03,3.03,3.05
176.77,6.68,3.69,6.69,3.69,-3.70,-4.33,-4.07,2.98,2.98,3.00
178.54,6.65,3.71,6.65,3.71,-3.72,-4.35,-4.08,2.93,2.93,2.95
180.32,6.65,3.76,6.65,3.75,-3.77,-4.37,-4.10,2.89,2.88,2.90
182.13,6.66,3.82,6.67,3.82,-3.84,-4.39,-4.12,2.83,2.83,2.85
183.95,6.71,3.91,6.72,3.91,-3.93,-4.42,-4.15,2.79,2.79,2.81
185.79,6.78,4.03,6.78,4.03,-4.04,-4.44,-4.18,2.74,2.74,2.76
187.65,6.87,4.17,6.87,4.16,-4.17,-4.47,-4.21,2.71,2.70,2.71
189.52,6.96,4.31,6.97,4.31,-4.30,-4.50,-4.24,2.66,2.66,2.66
191.42,7.06,4.45,7.07,4.45,-4.45,-4.53,-4.28,2.61,2.62,2.62
193.33,7.17,4.61,7.16,4.60,-4.59,-4.55,-4.32,2.58,2.57,2.57
195.27,7.25,4.73,7.26,4.74,-4.73,-4.58,-4.36,2.52,2.53,2.53
197.22,7.34,4.87,7.35,4.87,-4.86,-4.61,-4.41,2.48,2.49,2.48
199.19,7.43,5.00,7.42,4.99,-4.97,-4.64,-4.45,2.46,2.45,2.44
201.18,7.48,5.09,7.48,5.09,-5.07,-4.67,-4.50,2.41,2.41,2.40
203.19,7.51,5.16,7.52,5.16,-5.15,-4.70,-4.55,2.37,2.38,2.36
205.23,7.54,5.22,7.54,5.21,-5.20,-4.73,-4.60,2.34,2.33,2.33
207.28,7.54,5.26,7.53,5.25,-5.25,-4.75,-4.65,2.30,2.29,2.29
209.35,7.50,5.26,7.52,5.27,-5.27,-4.78,-4.71,2.23,2.25,2.25
211.44,7.49,5.28,7.49,5.28,-5.28,-4.81,-4.76,2.21,2.21,2.22
213.56,7.46,5.28,7.46,5.28,-5.29,-4.83,-4.81,2.18,2.18,2.19
215.69,7.43,5.28,7.43,5.27,-5.28,-4.86,-4.86,2.16,2.15,2.16
217.85,7.38,5.26,7.38,5.26,-5.26,-4.88,-4.91,2.12,2.12,2.13
220.03,7.33,5.25,7.34,5.25,-5.24,-4.90,-4.96,2.09,2.09,2.09
222.23,7.28,5.23,7.28,5.23,-5.22,-4.92,-5.01,2.06,2.06,2.06
224.45,7.23,5.21,7.22,5.20,-5.20,-4.93,-5.05,2.04,2.03,2.03
226.70,7.15,5.15,7.16,5.16,-5.17,-4.94,-5.09,1.99,2.00,2.01
228.96,7.10,5.12,7.11,5.12,-5.13,-4.95,-5.13,1.97,1.97,1.99
231.25,7.05,5.10,7.05,5.09,-5.10,-4.96,-5.16,1.95,1.95,1.96
233.57,7.00,5.07,7.00,5.07,-5.06,-4.97,-5.18,1.94,1.93,1.94
235.90,6.94,5.04,6.94,5.03,-5.03,-4.97,-5.20,1.92,1.91,1.91
238.26,6.86,4.98,6.88,4.99,-4.99,-4.96,-5.22,1.88,1.89,1.89
240.64,6.82,4.95,6.81,4.94,-4.94,-4.96,-5.23,1.88,1.87,1.88
243.05,6.75,4.90,6.75,4.90,-4.90,-4.95,-5.23,1.85,1.85,1.86
245.48,6.68,4.85,6.69,4.86,-4.85,-4.93,-5.23,1.83,1.84,1.84
247.93,6.63,4.82,6.63,4.81,-4.80,-4.91,-5.21,1.83,1.82,1.82
250.41,6.56,4.76,6.56,4.76,-4.75,-4.89,-5.19,1.81,1.81,1.81
252.92,6.48,4.69,6.49,4.70,-4.70,-4.87,-5.17,1.78,1.79,1.80
255.45,6.42,4.65,6.42,4.64,-4.65,-4.83,-5.13,1.77,1.77,1.78
258.00,6.35,4.59,6.36,4.59,-4.60,-4.80,-5.09,1.75,1.76,1.77
260.58,6.30,4.55,6.31,4.55,-4.54,-4.76,-5.04,1.76,1.76,1.76
263.19,6.24,4.50,6.24,4.50,-4.49,-4.72,-4.99,1.76,1.76,1.75
265.82,6.19,4.46,6.18,4.44,-4.43,-4.67,-4.92,1.76,1.75,1.74
268.48,6.09,4.37,6.11,4.38,-4.38,-4.62,-4.86,1.72,1.73,1.73
271.16,6.03,4.32,6.03,4.31,-4.32,-4.56,-4.78,1.71,1.71,1.72
273.87,5.95,4.25,5.95,4.25,-4.27,-4.51,-4.70,1.69,1.69,1.71
276.61,5.88,4.19,5.90,4.20,-4.21,-4.44,-4.62,1.68,1.69,1.70
279.38,5.84,4.16,5.84,4.15,-4.15,-4.38,-4.53,1.70,1.69,1.69
282.17,5.79,4.11,5.78,4.10,-4.09,-4.31,-4.44,1.71,1.70,1.69
284.99,5.71,4.03,5.72,4.04,-4.03,-4.24,-4.35,1.69,1.69,1.69
287.84,5.65,3.97,5.65,3.97,-3.97,-4.17,-4.25,1.69,1.68,1.69
290.72,5.58,3.91,5.58,3.90,-3.91,-4.09,-4.15,1.68,1.68,1.68
293.63,5.51,3.84,5.52,3.84,-3.84,-4.01,-4.05,1.67,1.67,1.68
296.57,5.45,3.78,5.45,3.77,-3.78,-3.94,-3.94,1.68,1.67,1.68
299.53,5.37,3.70,5.38,3.71,-3.71,-3.85,-3.84,1.66,1.67,1.68
302.53,5.32,3.65,5.32,3.65,-3.64,-3.77,-3.74,1.68,1.68,1.68
305.55,5.26,3.59,5.26,3.58,-3.58,-3.69,-3.63,1.68,1.68,1.68
308.61,5.19,3.52,5.19,3.52,-3.52,-3.60,-3.53,1.67,1.68,1.68
311.69,5.12,3.45,5.13,3.45,-3.46,-3.52,-3.42,1.67,1.67,1.68
314.81,5.06,3.39,5.06,3.39,-3.39,-3.43,-3.32,1.67,1.67,1.68
317.96,5.00,3.33,5.01,3.33,-3.33,-3.35,-3.22,1.67,1.68,1.68
321.14,4.95,3.28,4.95,3.27,-3.27,-3.26,-3.11,1.69,1.68,1.68
324.35,4.89,3.22,4.89,3.21,-3.20,-3.17,-3.01,1.69,1.69,1.68
327.59,4.81,3.13,4.82,3.14,-3.14,-3.08,-2.91,1.68,1.68,1.69
330.87,4.75,3.07,4.75,3.07,-3.07,-3.00,-2.82,1.68,1.68,1.69
334.18,4.68,3.00,4.69,3.00,-3.00,-2.91,-2.72,1.68,1.68,1.69
337.52,4.62,2.94,4.62,2.94,-2.94,-2.82,-2.63,1.69,1.69,1.69
340.90,4.56,2.87,4.56,2.87,-2.87,-2.74,-2.53,1.69,1.69,1.70
344.30,4.50,2.81,4.50,2.81,-2.80,-2.65,-2.44,1.70,1.70,1.70
347.75,4.44,2.74,4.44,2.74,-2.74,-2.57,-2.35,1.71,1.71,1.71
351.23,4.38,2.68,4.38,2.67,-2.67,-2.48,-2.26,1.71,1.70,1.71
354.74,4.31,2.60,4.32,2.60,-2.61,-2.40,-2.18,1.70,1.70,1.72
358.28,4.25,2.54,4.26,2.54,-2.55,-2.32,-2.09,1.71,1.71,1.72
361.87,4.20,2.48,4.21,2.48,-2.48,-2.24,-2.01,1.72,1.73,1.73
365.49,4.16,2.43,4.15,2.42,-2.41,-2.15,-1.93,1.75,1.74,1.74
369.14,4.09,2.36,4.09,2.35,-2.34,-2.07,-1.85,1.75,1.75,1.74
372.83,4.01,2.27,4.02,2.28,-2.27,-1.99,-1.77,1.74,1.75,1.75
376.56,3.94,2.20,3.95,2.20,-2.20,-1.92,-1.69,1.74,1.75,1.75
380.33,3.88,2.13,3.88,2.13,-2.13,-1.84,-1.62,1.76,1.75,1.76
384.13,3.80,2.05,3.80,2.05,-2.05,-1.76,-1.54,1.75,1.75,1.76
387.97,3.74,1.98,3.73,1.97,-1.98,-1.69,-1.47,1.77,1.76,1.77
391.85,3.64,1.87,3.66,1.89,-1.90,-1.61,-1.40,1.75,1.77,1.78
395.77,3.61,1.84,3.61,1.83,-1.82,-1.54,-1.33,1.79,1.78,1.78
399.73,3.54,1.76,3.54,1.75,-1.75,-1.46,-1.27,1.80,1.79,1.79
403.72,3.48,1.69,3.48,1.68,-1.67,-1.39,-1.20,1.81,1.80,1.80
407.76,3.38,1.59,3.40,1.60,-1.60,-1.32,-1.13,1.78,1.80,1.80
411.84,3.33,1.53,3.32,1.52,-1.53,-1.25,-1.07,1.81,1.80,1.81
415.96,3.25,1.44,3.26,1.45,-1.46,-1.18,-1.01,1.80,1.80,1.82
420.12,3.19,1.38,3.20,1.38,-1.39,-1.11,-0.95,1.81,1.82,1.82
424.32,3.15,1.33,3.14,1.31,-1.32,-1.04,-0.89,1.84,1.83,1.83
428.56,3.08,1.25,3.09,1.25,-1.25,-0.98,-0.83,1.84,1.84,1.84
432.85,3.02,1.18,3.03,1.18,-1.18,-0.91,-0.77,1.85,1.85,1.85
437.18,2.96,1.12,2.97,1.12,-1.11,-0.85,-0.71,1.85,1.85,1.85
441.55,2.90,1.05,2.91,1.05,-1.04,-0.78,-0.66,1.86,1.86,1.86
445.96,2.85,0.99,2.84,0.98,-0.98,-0.72,-0.60,1.88,1.87,1.87
450.42,2.77,0.90,2.78,0.90,-0.91,-0.65,-0.55,1.86,1.87,1.88
454.93,2.71,0.83,2.72,0.83,-0.84,-0.59,-0.50,1.87,1.87,1.89
459.48,2.66,0.77,2.67,0.77,-0.78,-0.53,-0.45,1.89,1.89,1.90
464.07,2.62,0.72,2.62,0.71,-0.71,-0.47,-0.40,1.91,1.91,1.91
468.71,2.57,0.66,2.57,0.66,-0.65,-0.41,-0.35,1.93,1.93,1.92
473.40,2.51,0.59,2.51,0.59,-0.58,-0.35,-0.30,1.94,1.94,1.93
478.13,2.45,0.52,2.45,0.52,-0.51,-0.29,-0.25,1.94,1.94,1.94
482.91,2.38,0.44,2.39,0.44,-0.44,-0.23,-0.20,1.94,1.95,1.95
487.74,2.33,0.38,2.33,0.37,-0.38,-0.17,-0.16,1.96,1.95,1.96
492.62,2.26,0.30,2.27,0.30,-0.31,-0.11,-0.11,1.96,1.96,1.97
497.55,2.20,0.23,2.21,0.23,-0.24,-0.05,-0.07,1.97,1.97,1.98
502.52,2.15,0.17,2.15,0.17,-0.17,0.01,-0.02,1.98,1.99,1.99
507.55,2.10,0.10,2.11,0.10,-0.10,0.06,0.02,2.00,2.00,2.01
512.62,2.06,0.05,2.05,0.04,-0.03,0.12,0.06,2.03,2.02,2.02
517.75,1.99,-0.03,2.00,-0.03,0.04,0.18,0.10,2.03,2.03,2.03
