frequency,raw,error,smoothed,error_smoothed,equalization,parametric_eq,fixed_band_eq,equalized_raw,equalized_smoothed,target
20.00,7.58,-3.41,7.56,-3.44,3.44,3.17,0.88,11.02,11.00,11.00
20.20,7.61,-3.39,7.62,-3.39,3.39,3.14,0.91,11.00,11.01,11.01
20.40,7.66,-3.35,7.68,-3.33,3.33,3.11,0.94,11.00,11.01,11.02
20.61,7.72,-3.30,7.74,-3.29,3.29,3.08,0.97,11.01,11.02,11.03
20.81,7.80,-3.22,7.79,-3.24,3.24,3.05,1.00,11.04,11.03,11.03
21.02,7.85,-3.18,7.85,-3.19,3.19,3.02,1.04,11.04,11.04,11.04
21.23,7.90,-3.14,7.90,-3.14,3.14,2.99,1.07,11.05,11.04,11.05
21.44,7.96,-3.09,7.95,-3.10,3.10,2.95,1.11,11.06,11.05,11.06
21.66,8.00,-3.05,8.01,-3.05,3.05,2.92,1.14,11.05,11.06,11.06
21.87,8.04,-3.02,8.06,-3.01,3.01,2.88,1.18,11.05,11.06,11.07
22.09,8.10,-2.96,8.11,-2.96,2.96,2.85,1.22,11.07,11.07,11.07
22.31,8.14,-2.93,8.15,-2.92,2.92,2.82,1.26,11.07,11.07,11.08
22.54,8.18,-2.89,8.20,-2.88,2.88,2.78,1.30,11.06,11.08,11.08
22.76,8.24,-2.84,8.25,-2.84,2.84,2.74,1.34,11.08,11.08,11.09
22.99,8.28,-2.80,8.29,-2.80,2.80,2.71,1.39,11.08,11.09,11.09
23.22,8.34,-2.74,8.33,-2.76,2.76,2.67,1.43,11.11,11.09,11.09
23.45,8.38,-2.71,8.37,-2.72,2.72,2.63,1.47,11.11,11.09,11.10
23.69,8.43,-2.66,8.41,-2.69,2.69,2.60,1.52,11.12,11.10,11.10
23.92,8.47,-2.62,8.45,-2.65,2.65,2.56,1.57,11.12,11.10,11.10
24.16,8.47,-2.62,8.49,-2.61,2.61,2.52,1.61,11.08,11.10,11.10
24.40,8.52,-2.58,8.53,-2.57,2.57,2.49,1.66,11.09,11.10,11.11
24.65,8.54,-2.56,8.57,-2.53,2.53,2.45,1.71,11.08,11.10,11.11
24.89,8.59,-2.51,8.61,-2.50,2.50,2.41,1.76,11.09,11.10,11.11
25.14,8.62,-2.48,8.65,-2.46,2.46,2.37,1.81,11.08,11.11,11.11
25.39,8.68,-2.42,8.68,-2.42,2.42,2.33,1.85,11.11,11.11,11.11
25.65,8.73,-2.37,8.72,-2.39,2.39,2.29,1.90,11.12,11.11,11.11
25.91,8.76,-2.34,8.75,-2.35,2.35,2.26,1.95,11.11,11.11,11.11
26.16,8.80,-2.30,8.79,-2.31,2.31,2.22,2.00,11.12,11.11,11.11
26.43,8.84,-2.26,8.83,-2.28,2.28,2.18,2.05,11.12,11.11,11.11
26.69,8.85,-2.25,8.86,-2.24,2.24,2.14,2.09,11.10,11.11,11.11
26.96,8.89,-2.21,8.90,-2.21,2.21,2.10,2.14,11.10,11.11,11.11
27.23,8.94,-2.16,8.93,-2.17,2.17,2.06,2.18,11.11,11.11,11.11
27.50,8.97,-2.13,8.97,-2.14,2.14,2.02,2.22,11.11,11.11,11.11
27.77,8.98,-2.12,9.00,-2.11,2.11,1.98,2.26,11.10,11.11,11.11
28.05,9.03,-2.07,9.02,-2.08,2.08,1.94,2.30,11.12,11.11,11.11
28.33,9.06,-2.04,9.05,-2.05,2.05,1.90,2.34,11.12,11.11,11.11
28.62,9.08,-2.02,9.08,-2.03,2.03,1.86,2.37,11.11,11.11,11.11
28.90,9.12,-1.98,9.11,-1.99,1.99,1.82,2.40,11.12,11.11,11.11
29.19,9.13,-1.97,9.15,-1.96,1.96,1.78,2.42,11.09,11.11,11.11
29.48,9.17,-1.93,9.18,-1.92,1.92,1.74,2.44,11.10,11.10,11.11
29.78,9.20,-1.90,9.22,-1.88,1.88,1.70,2.46,11.09,11.10,11.11
30.08,9.23,-1.87,9.26,-1.84,1.84,1.67,2.47,11.08,11.10,11.11
30.38,9.26,-1.83,9.29,-1.81,1.81,1.63,2.48,11.07,11.10,11.10
30.68,9.31,-1.78,9.33,-1.77,1.77,1.59,2.48,11.08,11.10,11.10
30.99,9.37,-1.72,9.37,-1.73,1.73,1.55,2.48,11.10,11.09,11.10
31.30,9.42,-1.66,9.40,-1.69,1.69,1.51,2.47,11.11,11.09,11.09
31.61,9.45,-1.63,9.44,-1.65,1.65,1.47,2.46,11.10,11.08,11.09
31.93,9.50,-1.57,9.48,-1.60,1.60,1.43,2.44,11.11,11.08,11.08
32.24,9.54,-1.53,9.51,-1.56,1.56,1.39,2.42,11.11,11.08,11.08
32.57,9.54,-1.52,9.55,-1.52,1.52,1.35,2.39,11.07,11.07,11.07
32.89,9.57,-1.49,9.58,-1.48,1.48,1.31,2.36,11.06,11.06,11.07
33.22,9.59,-1.46,9.61,-1.44,1.44,1.27,2.32,11.04,11.06,11.06
33.55,9.62,-1.43,9.64,-1.41,1.41,1.23,2.28,11.03,11.05,11.06
33.89,9.66,-1.38,9.67,-1.37,1.37,1.19,2.24,11.04,11.04,11.05
34.23,9.68,-1.35,9.70,-1.34,1.34,1.15,2.19,11.02,11.04,11.04
34.57,9.73,-1.29,9.72,-1.31,1.31,1.11,2.14,11.04,11.03,11.03
34.92,9.77,-1.24,9.75,-1.27,1.27,1.08,2.09,11.05,11.02,11.02
35.27,9.78,-1.23,9.77,-1.24,1.24,1.04,2.03,11.02,11.01,11.02
35.62,9.78,-1.21,9.79,-1.20,1.20,1.00,1.97,10.99,11.00,11.00
35.97,9.82,-1.16,9.82,-1.17,1.17,0.96,1.90,10.99,10.98,10.99
36.33,9.82,-1.15,9.84,-1.13,1.13,0.92,1.84,10.96,10.97,10.98
36.70,9.85,-1.10,9.86,-1.09,1.09,0.88,1.77,10.95,10.96,10.96
37.06,9.87,-1.07,9.89,-1.06,1.06,0.84,1.70,10.93,10.94,10.95
37.43,9.91,-1.01,9.91,-1.02,1.02,0.80,1.63,10.93,10.93,10.93
37.81,9.92,-0.98,9.93,-0.98,0.98,0.76,1.56,10.91,10.91,10.91
38.19,9.94,-0.95,9.95,-0.95,0.95,0.72,1.49,10.89,10.89,10.90
38.57,9.96,-0.91,9.97,-0.91,0.91,0.69,1.42,10.87,10.88,10.88
38.95,9.97,-0.88,9.98,-0.87,0.87,0.65,1.35,10.85,10.86,10.86
39.34,10.01,-0.82,10.00,-0.83,0.83,0.61,1.27,10.85,10.84,10.84
39.74,10.01,-0.80,10.02,-0.80,0.80,0.57,1.20,10.81,10.82,10.82
40.14,10.06,-0.73,10.03,-0.76,0.76,0.53,1.13,10.82,10.79,10.80
40.54,10.06,-0.71,10.05,-0.72,0.72,0.49,1.05,10.78,10.77,10.78
40.94,10.06,-0.68,10.07,-0.68,0.68,0.45,0.98,10.75,10.75,10.75
41.35,10.08,-0.64,10.08,-0.64,0.64,0.41,0.91,10.73,10.72,10.73
41.76,10.08,-0.61,10.10,-0.60,0.60,0.37,0.83,10.69,10.70,10.70
42.18,10.10,-0.57,10.11,-0.56,0.56,0.33,0.76,10.67,10.67,10.68
42.60,10.10,-0.54,10.13,-0.52,0.52,0.29,0.69,10.62,10.65,10.65
43.03,10.10,-0.51,10.14,-0.48,0.48,0.25,0.61,10.58,10.62,10.62
43.46,10.15,-0.43,10.15,-0.44,0.44,0.21,0.54,10.60,10.59,10.59
43.90,10.15,-0.40,10.15,-0.40,0.40,0.17,0.47,10.56,10.56,10.56
44.33,10.20,-0.32,10.16,-0.36,0.36,0.13,0.40,10.57,10.53,10.53
44.78,10.20,-0.29,10.17,-0.32,0.32,0.09,0.33,10.53,10.49,10.50
45.23,10.20,-0.26,10.18,-0.28,0.28,0.05,0.26,10.48,10.46,10.47
45.68,10.20,-0.22,10.20,-0.23,0.23,0.01,0.19,10.43,10.42,10.43
46.13,10.20,-0.18,10.21,-0.17,0.17,-0.03,0.12,10.38,10.39,10.39
46.60,10.20,-0.14,10.23,-0.12,0.12,-0.07,0.05,10.33,10.35,10.35
47.06,10.20,-0.11,10.24,-0.07,0.07,-0.11,-0.02,10.27,10.31,10.32
47.53,10.20,-0.07,10.25,-0.01,0.01,-0.15,-0.09,10.22,10.27,10.28
48.01,10.24,0.02,10.27,0.04,-0.04,-0.19,-0.16,10.20,10.23,10.23
48.49,10.28,0.10,10.28,0.09,-0.09,-0.23,-0.23,10.19,10.18,10.19
48.97,10.29,0.16,10.29,0.15,-0.15,-0.27,-0.30,10.15,10.14,10.14
49.46,10.34,0.25,10.30,0.20,-0.20,-0.31,-0.37,10.14,10.10,10.10
49.96,10.34,0.30,10.31,0.26,-0.26,-0.35,-0.43,10.09,10.06,10.05
50.46,10.34,0.34,10.32,0.31,-0.31,-0.40,-0.50,10.03,10.01,10.01
50.96,10.34,0.38,10.33,0.37,-0.37,-0.44,-0.57,9.98,9.97,9.97
51.47,10.34,0.42,10.34,0.42,-0.42,-0.48,-0.63,9.92,9.92,9.93
51.99,10.34,0.47,10.35,0.47,-0.47,-0.52,-0.70,9.87,9.88,9.88
52.51,10.34,0.51,10.35,0.52,-0.52,-0.57,-0.76,9.82,9.83,9.84
53.03,10.34,0.55,10.35,0.57,-0.57,-0.61,-0.82,9.78,9.78,9.80
53.56,10.34,0.60,10.35,0.61,-0.61,-0.65,-0.89,9.73,9.74,9.75
54.10,10.34,0.65,10.35,0.65,-0.65,-0.70,-0.95,9.69,9.69,9.70
54.64,10.34,0.70,10.35,0.70,-0.70,-0.74,-1.01,9.65,9.65,9.65
55.18,10.34,0.75,10.34,0.74,-0.74,-0.78,-1.07,9.61,9.61,9.60
55.74,10.34,0.80,10.34,0.78,-0.78,-0.83,-1.12,9.56,9.56,9.55
56.29,10.34,0.84,10.34,0.83,-0.83,-0.87,-1.18,9.52,9.52,9.51
56.86,10.34,0.88,10.34,0.87,-0.87,-0.92,-1.23,9.47,9.47,9.47
57.42,10.34,0.93,10.34,0.92,-0.92,-0.96,-1.29,9.43,9.43,9.42
58.00,10.34,0.97,10.34,0.97,-0.97,-1.01,-1.34,9.38,9.38,9.38
58.58,10.34,1.01,10.34,1.02,-1.02,-1.06,-1.39,9.33,9.33,9.34
59.16,10.34,1.05,10.34,1.07,-1.07,-1.10,-1.44,9.28,9.28,9.30
59.76,10.34,1.09,10.34,1.12,-1.12,-1.15,-1.48,9.23,9.23,9.26
60.35,10.34,1.15,10.34,1.17,-1.17,-1.20,-1.53,9.18,9.18,9.20
60.96,10.34,1.21,10.34,1.22,-1.22,-1.24,-1.57,9.13,9.13,9.14
61.57,10.34,1.27,10.35,1.27,-1.27,-1.29,-1.61,9.07,9.07,9.08
62.18,10.34,1.34,10.35,1.33,-1.33,-1.34,-1.64,9.01,9.02,9.01
62.80,10.34,1.40,10.35,1.39,-1.39,-1.39,-1.68,8.96,8.96,8.95
63.43,10.34,1.46,10.35,1.44,-1.44,-1.44,-1.71,8.90,8.91,8.89
64.07,10.34,1.51,10.35,1.50,-1.50,-1.48,-1.74,8.84,8.85,8.84
64.71,10.34,1.56,10.35,1.56,-1.56,-1.53,-1.77,8.79,8.79,8.79
65.35,10.34,1.61,10.34,1.61,-1.61,-1.58,-1.80,8.74,8.74,8.74
66.01,10.34,1.66,10.34,1.66,-1.66,-1.63,-1.83,8.69,8.68,8.69
66.67,10.34,1.71,10.33,1.70,-1.70,-1.68,-1.85,8.64,8.62,8.64
67.33,10.34,1.77,10.32,1.75,-1.75,-1.73,-1.87,8.60,8.57,8.58
68.01,10.34,1.83,10.31,1.79,-1.79,-1.78,-1.90,8.55,8.51,8.52
68.69,10.31,1.86,10.29,1.84,-1.84,-1.83,-1.92,8.48,8.46,8.46
69.37,10.28,1.88,10.28,1.88,-1.88,-1.89,-1.94,8.40,8.40,8.41
70.07,10.24,1.90,10.27,1.93,-1.93,-1.94,-1.96,8.32,8.34,8.35
70.77,10.24,1.96,10.26,1.97,-1.97,-1.99,-1.97,8.27,8.28,8.29
71.48,10.21,1.99,10.25,2.02,-2.02,-2.04,-1.99,8.19,8.22,8.23
72.19,10.20,2.04,10.24,2.07,-2.07,-2.09,-2.01,8.13,8.16,8.17
72.91,10.20,2.11,10.23,2.12,-2.12,-2.14,-2.03,8.08,8.10,8.10
73.64,10.20,2.17,10.22,2.18,-2.18,-2.20,-2.04,8.03,8.04,8.04
74.38,10.20,2.23,10.21,2.22,-2.22,-2.25,-2.06,7.98,7.98,7.98
75.12,10.20,2.29,10.20,2.27,-2.27,-2.30,-2.08,7.93,7.93,7.92
75.87,10.20,2.34,10.19,2.32,-2.32,-2.35,-2.10,7.88,7.87,7.87
76.63,10.20,2.40,10.18,2.37,-2.37,-2.40,-2.12,7.83,7.81,7.81
77.40,10.20,2.45,10.18,2.42,-2.42,-2.46,-2.14,7.78,7.75,7.76
78.17,10.20,2.51,10.17,2.47,-2.47,-2.51,-2.17,7.73,7.70,7.70
78.95,10.15,2.51,10.16,2.51,-2.51,-2.56,-2.19,7.64,7.64,7.65
79.74,10.15,2.56,10.15,2.56,-2.56,-2.61,-2.21,7.59,7.59,7.60
80.54,10.11,2.58,10.13,2.60,-2.60,-2.66,-2.24,7.51,7.53,7.54
81.35,10.10,2.63,10.12,2.64,-2.64,-2.71,-2.27,7.46,7.48,7.48
82.16,10.06,2.64,10.10,2.68,-2.68,-2.77,-2.30,7.38,7.42,7.43
82.98,10.07,2.71,10.09,2.72,-2.72,-2.82,-2.33,7.35,7.36,7.37
83.81,10.06,2.76,10.07,2.76,-2.76,-2.87,-2.36,7.30,7.31,7.31
84.65,10.06,2.82,10.05,2.80,-2.80,-2.92,-2.40,7.26,7.25,7.25
85.50,10.04,2.86,10.03,2.84,-2.84,-2.97,-2.43,7.20,7.19,7.19
86.35,10.01,2.88,10.02,2.88,-2.88,-3.02,-2.47,7.13,7.13,7.14
87.22,10.01,2.94,10.00,2.93,-2.93,-3.06,-2.51,7.09,7.07,7.08
88.09,9.98,2.97,9.98,2.97,-2.97,-3.11,-2.55,7.01,7.01,7.02
88.97,9.96,3.01,9.96,3.01,-3.01,-3.16,-2.60,6.95,6.95,6.96
89.86,9.96,3.07,9.94,3.05,-3.05,-3.20,-2.64,6.92,6.89,6.90
90.76,9.92,3.09,9.92,3.09,-3.09,-3.25,-2.69,6.84,6.83,6.84
91.66,9.89,3.13,9.89,3.12,-3.12,-3.29,-2.74,6.77,6.77,6.77
92.58,9.87,3.17,9.87,3.16,-3.16,-3.34,-2.79,6.71,6.71,6.71
93.51,9.83,3.19,9.84,3.20,-3.20,-3.38,-2.85,6.63,6.64,6.65
94.44,9.82,3.24,9.81,3.24,-3.24,-3.42,-2.90,6.59,6.58,6.59
95.39,9.78,3.27,9.79,3.28,-3.28,-3.46,-2.96,6.51,6.51,6.52
96.34,9.75,3.31,9.76,3.32,-3.32,-3.50,-3.02,6.44,6.45,6.45
97.30,9.73,3.35,9.74,3.36,-3.36,-3.54,-3.08,6.38,6.38,6.39
98.28,9.68,3.37,9.72,3.40,-3.40,-3.58,-3.14,6.29,6.32,6.32
99.26,9.68,3.44,9.69,3.44,-3.44,-3.61,-3.21,6.25,6.26,6.25
100.25,9.68,3.51,9.67,3.48,-3.48,-3.65,-3.27,6.20,6.19,6.18
101.25,9.64,3.52,9.65,3.52,-3.52,-3.68,-3.34,6.12,6.13,6.13
102.27,9.64,3.58,9.63,3.57,-3.57,-3.71,-3.41,6.08,6.07,6.07
103.29,9.59,3.59,9.61,3.60,-3.60,-3.74,-3.47,5.99,6.01,6.01
104.32,9.59,3.65,9.59,3.64,-3.64,-3.77,-3.54,5.95,5.95,5.95
105.37,9.59,3.71,9.57,3.68,-3.68,-3.80,-3.61,5.91,5.89,5.89
106.42,9.54,3.71,9.55,3.72,-3.72,-3.83,-3.68,5.82,5.83,5.84
107.48,9.54,3.78,9.52,3.76,-3.76,-3.85,-3.75,5.79,5.77,5.77
108.56,9.50,3.80,9.50,3.79,-3.79,-3.87,-3.81,5.71,5.70,5.71
109.64,9.47,3.83,9.47,3.83,-3.83,-3.90,-3.88,5.65,5.64,5.65
110.74,9.44,3.86,9.44,3.86,-3.86,-3.92,-3.94,5.59,5.58,5.59
111.85,9.39,3.87,9.41,3.89,-3.89,-3.94,-4.01,5.51,5.52,5.53
112.97,9.36,3.91,9.37,3.92,-3.92,-3.95,-4.07,5.44,5.45,5.46
114.10,9.33,3.94,9.34,3.95,-3.95,-3.97,-4.12,5.38,5.39,5.40
115.24,9.31,3.99,9.31,3.98,-3.98,-3.99,-4.18,5.33,5.33,5.33
116.39,9.26,4.01,9.27,4.01,-4.01,-4.00,-4.23,5.26,5.26,5.26
117.55,9.23,4.04,9.23,4.03,-4.03,-4.01,-4.28,5.20,5.20,5.20
118.73,9.20,4.08,9.20,4.06,-4.06,-4.03,-4.32,5.14,5.14,5.13
119.92,9.15,4.09,9.16,4.08,-4.08,-4.04,-4.36,5.07,5.08,5.07
121.12,9.12,4.11,9.12,4.11,-4.11,-4.05,-4.39,5.02,5.01,5.02
122.33,9.08,4.13,9.09,4.13,-4.13,-4.05,-4.43,4.95,4.95,4.96
123.55,9.05,4.16,9.05,4.16,-4.16,-4.06,-4.45,4.90,4.89,4.90
124.79,9.01,4.18,9.01,4.18,-4.18,-4.07,-4.47,4.83,4.83,4.84
126.03,8.97,4.20,8.97,4.20,-4.20,-4.08,-4.49,4.77,4.77,4.78
127.29,8.91,4.20,8.93,4.22,-4.22,-4.08,-4.50,4.69,4.71,4.72
128.57,8.88,4.24,8.89,4.24,-4.24,-4.09,-4.51,4.64,4.65,4.65
129.85,8.83,4.25,8.85,4.26,-4.26,-4.09,-4.51,4.58,4.59,4.59
131.15,8.80,4.28,8.80,4.28,-4.28,-4.09,-4.51,4.53,4.53,4.53
132.46,8.76,4.30,8.76,4.29,-4.29,-4.10,-4.50,4.47,4.47,4.47
133.79,8.71,4.31,8.71,4.30,-4.30,-4.10,-4.49,4.41,4.41,4.41
135.12,8.68,4.34,8.66,4.31,-4.31,-4.10,-4.48,4.37,4.35,4.35
136.48,8.61,4.32,8.61,4.32,-4.32,-4.10,-4.46,4.30,4.29,4.30
137.84,8.55,4.32,8.56,4.32,-4.32,-4.11,-4.44,4.23,4.24,4.24
139.22,8.49,4.32,8.50,4.32,-4.32,-4.11,-4.42,4.17,4.18,4.18
140.61,8.45,4.33,8.45,4.32,-4.32,-4.11,-4.40,4.14,4.13,4.13
142.02,8.40,4.33,8.39,4.31,-4.31,-4.11,-4.37,4.09,4.08,4.08
143.44,8.35,4.33,8.33,4.30,-4.30,-4.12,-4.35,4.05,4.03,4.03
144.87,8.27,4.29,8.27,4.29,-4.29,-4.12,-4.32,3.98,3.98,3.99
146.32,8.20,4.27,8.21,4.28,-4.28,-4.12,-4.29,3.92,3.93,3.94
147.78,8.12,4.24,8.15,4.27,-4.27,-4.13,-4.27,3.86,3.88,3.89
149.26,8.05,4.22,8.09,4.25,-4.25,-4.13,-4.24,3.80,3.84,3.84
150.75,8.01,4.23,8.02,4.24,-4.24,-4.14,-4.21,3.78,3.79,3.79
152.26,7.96,4.22,7.96,4.22,-4.22,-4.14,-4.19,3.74,3.74,3.75
153.78,7.90,4.21,7.89,4.20,-4.20,-4.15,-4.16,3.70,3.69,3.70
155.32,7.83,4.19,7.82,4.18,-4.18,-4.16,-4.14,3.66,3.64,3.65
156.88,7.75,4.16,7.74,4.15,-4.15,-4.17,-4.12,3.61,3.59,3.60
158.44,7.67,4.13,7.66,4.12,-4.12,-4.17,-4.10,3.56,3.55,3.55
160.03,7.59,4.10,7.58,4.08,-4.08,-4.18,-4.09,3.51,3.50,3.50
161.63,7.51,4.07,7.49,4.04,-4.04,-4.19,-4.07,3.47,3.45,3.45
163.24,7.42,4.03,7.39,3.99,-3.99,-4.21,-4.06,3.43,3.40,3.40
164.88,7.34,4.00,7.29,3.95,-3.95,-4.22,-4.05,3.40,3.35,3.35
166.53,7.23,3.94,7.19,3.90,-3.90,-4.23,-4.05,3.34,3.30,3.30
168.19,7.12,3.88,7.09,3.85,-3.85,-4.25,-4.04,3.28,3.25,3.25
169.87,7.01,3.82,7.00,3.80,-3.80,-4.26,-4.04,3.21,3.20,3.20
171.57,6.90,3.76,6.92,3.77,-3.77,-4.28,-4.05,3.13,3.15,3.15
173.29,6.82,3.73,6.84,3.75,-3.75,-4.30,-4.05,3.08,3.10,3.10
175.02,6.73,3.69,6.79,3.74,-3.74,-4.32,-4.06,2.99,3.05,3.05
176.77,6.68,3.69,6.75,3.75,-3.75,-4.34,-4.07,2.93,3.00,3.00
178.54,6.65,3.71,6.72,3.77,-3.77,-4.36,-4.09,2.88,2.95,2.95
180.32,6.65,3.76,6.72,3.82,-3.82,-4.38,-4.11,2.83,2.90,2.90
182.13,6.66,3.82,6.73,3.89,-3.89,-4.41,-4.13,2.78,2.85,2.85
183.95,6.71,3.91,6.77,3.97,-3.97,-4.43,-4.16,2.74,2.80,2.81
185.79,6.78,4.03,6.82,4.07,-4.07,-4.46,-4.18,2.71,2.75,2.76
187.65,6.87,4.17,6.89,4.19,-4.19,-4.48,-4.22,2.69,2.71,2.71
189.52,6.96,4.31,6.97,4.31,-4.31,-4.51,-4.25,2.65,2.66,2.66
191.42,7.06,4.45,7.06,4.44,-4.44,-4.54,-4.29,2.62,2.61,2.62
193.33,7.17,4.61,7.14,4.57,-4.57,-4.56,-4.33,2.60,2.57,2.57
195.27,7.25,4.73,7.23,4.70,-4.70,-4.59,-4.37,2.55,2.52,2.53
197.22,7.34,4.87,7.30,4.82,-4.82,-4.62,-4.41,2.52,2.48,2.48
199.19,7.43,5.00,7.37,4.93,-4.93,-4.65,-4.46,2.50,2.44,2.44
201.18,7.48,5.09,7.43,5.03,-5.03,-4.68,-4.51,2.46,2.40,2.40
203.19,7.51,5.16,7.47,5.11,-5.11,-4.71,-4.56,2.40,2.36,2.36
205.23,7.54,5.22,7.50,5.18,-5.18,-4.73,-4.61,2.37,2.32,2.33
207.28,7.54,5.26,7.51,5.23,-5.23,-4.76,-4.66,2.32,2.28,2.29
209.35,7.50,5.26,7.51,5.26,-5.26,-4.79,-4.71,2.24,2.25,2.25
211.44,7.49,5.28,7.50,5.28,-5.28,-4.81,-4.76,2.21,2.22,2.22
213.56,7.46,5.28,7.47,5.29,-5.29,-4.84,-4.82,2.18,2.18,2.19
215.69,7.43,5.28,7.44,5.29,-5.29,-4.86,-4.87,2.15,2.15,2.16
217.85,7.38,5.26,7.39,5.27,-5.27,-4.88,-4.92,2.11,2.12,2.13
220.03,7.33,5.25,7.34,5.26,-5.26,-4.90,-4.97,2.08,2.09,2.09
222.23,7.28,5.23,7.29,5.23,-5.23,-4.92,-5.01,2.05,2.06,2.06
224.45,7.23,5.21,7.24,5.20,-5.20,-4.94,-5.06,2.03,2.03,2.03
226.70,7.15,5.15,7.18,5.17,-5.17,-4.95,-5.10,1.98,2.01,2.01
228.96,7.10,5.12,7.12,5.14,-5.14,-4.96,-5.13,1.96,1.98,1.99
231.25,7.05,5.10,7.06,5.11,-5.11,-4.97,-5.16,1.95,1.96,1.96
233.57,7.00,5.07,7.00,5.07,-5.07,-4.97,-5.19,1.94,1.93,1.94
235.90,6.94,5.04,6.94,5.03,-5.03,-4.97,-5.21,1.92,1.91,1.91
238.26,6.86,4.98,6.87,4.98,-4.98,-4.97,-5.23,1.88,1.89,1.89
240.64,6.82,4.95,6.81,4.94,-4.94,-4.96,-5.24,1.88,1.87,1.88
243.05,6.75,4.90,6.75,4.90,-4.90,-4.95,-5.24,1.86,1.85,1.86
245.48,6.68,4.85,6.69,4.85,-4.85,-4.94,-5.23,1.83,1.84,1.84
247.93,6.63,4.82,6.63,4.81,-4.81,-4.92,-5.22,1.83,1.82,1.82
250.41,6.56,4.76,6.56,4.76,-4.76,-4.90,-5.20,1.81,1.81,1.81
252.92,6.48,4.69,6.50,4.70,-4.70,-4.87,-5.17,1.78,1.79,1.80
255.45,6.42,4.65,6.43,4.65,-4.65,-4.84,-5.14,1.77,1.78,1.78
258.00,6.35,4.59,6.36,4.60,-4.60,-4.81,-5.10,1.76,1.77,1.77
260.58,6.30,4.55,6.30,4.54,-4.54,-4.77,-5.05,1.76,1.75,1.76
263.19,6.24,4.50,6.23,4.49,-4.49,-4.72,-4.99,1.75,1.74,1.75
265.82,6.19,4.46,6.17,4.44,-4.44,-4.68,-4.93,1.76,1.73,1.74
268.48,6.09,4.37,6.10,4.38,-4.38,-4.63,-4.86,1.71,1.72,1.73
271.16,6.03,4.32,6.04,4.32,-4.32,-4.57,-4.79,1.71,1.71,1.72
273.87,5.95,4.25,5.97,4.26,-4.26,-4.52,-4.71,1.69,1.71,1.71
276.61,5.88,4.19,5.91,4.21,-4.21,-4.45,-4.63,1.68,1.70,1.70
279.38,5.84,4.16,5.84,4.15,-4.15,-4.39,-4.54,1.70,1.69,1.69
282.17,5.79,4.11,5.78,4.09,-4.09,-4.32,-4.45,1.71,1.69,1.69
284.99,5.71,4.03,5.71,4.03,-4.03,-4.25,-4.35,1.69,1.68,1.69
287.84,5.65,3.97,5.64,3.96,-3.96,-4.18,-4.25,1.69,1.68,1.69
290.72,5.58,3.91,5.58,3.90,-3.90,-4.11,-4.15,1.68,1.68,1.68
293.63,5.51,3.84,5.51,3.84,-3.84,-4.03,-4.05,1.68,1.68,1.68
296.57,5.45,3.78,5.45,3.78,-3.78,-3.95,-3.95,1.68,1.67,1.68
299.53,5.37,3.70,5.39,3.71,-3.71,-3.87,-3.84,1.66,1.67,1.68
302.53,5.32,3.65,5.33,3.65,-3.65,-3.79,-3.74,1.67,1.67,1.68
305.55,5.26,3.59,5.26,3.59,-3.59,-3.71,-3.63,1.68,1.67,1.68
308.61,5.19,3.52,5.20,3.52,-3.52,-3.62,-3.53,1.67,1.67,1.68
311.69,5.12,3.45,5.13,3.46,-3.46,-3.54,-3.43,1.67,1.67,1.68
314.81,5.06,3.39,5.07,3.39,-3.39,-3.45,-3.32,1.67,1.68,1.68
317.96,5.00,3.33,5.00,3.33,-3.33,-3.37,-3.22,1.68,1.68,1.68
321.14,4.95,3.28,4.94,3.26,-3.26,-3.28,-3.12,1.69,1.68,1.68
324.35,4.89,3.22,4.88,3.20,-3.20,-3.19,-3.02,1.69,1.68,1.68
327.59,4.81,3.13,4.81,3.13,-3.13,-3.11,-2.92,1.68,1.68,1.69
330.87,4.75,3.07,4.75,3.07,-3.07,-3.02,-2.82,1.69,1.68,1.69
334.18,4.68,3.00,4.69,3.00,-3.00,-2.93,-2.72,1.68,1.69,1.69
337.52,4.62,2.94,4.63,2.94,-2.94,-2.85,-2.63,1.68,1.69,1.69
340.90,4.56,2.87,4.57,2.87,-2.87,-2.76,-2.53,1.69,1.69,1.70
344.30,4.50,2.81,4.51,2.81,-2.81,-2.68,-2.44,1.69,1.70,1.70
347.75,4.44,2.74,4.45,2.74,-2.74,-2.59,-2.35,1.70,1.70,1.71
351.23,4.38,2.68,4.39,2.68,-2.68,-2.51,-2.26,1.70,1.71,1.71
354.74,4.31,2.60,4.32,2.61,-2.61,-2.43,-2.18,1.70,1.71,1.72
358.28,4.25,2.54,4.26,2.54,-2.54,-2.34,-2.09,1.71,1.72,1.72
361.87,4.20,2.48,4.20,2.47,-2.47,-2.26,-2.01,1.73,1.72,1.73
365.49,4.16,2.43,4.14,2.41,-2.41,-2.18,-1.93,1.76,1.73,1.74
369.14,4.09,2.36,4.07,2.34,-2.34,-2.10,-1.85,1.76,1.74,1.74
372.83,4.01,2.27,4.01,2.27,-2.27,-2.02,-1.77,1.75,1.74,1.75
376.56,3.94,2.20,3.95,2.20,-2.20,-1.95,-1.69,1.75,1.75,1.75
380.33,3.88,2.13,3.88,2.12,-2.12,-1.87,-1.62,1.76,1.75,1.76
384.13,3.80,2.05,3.81,2.05,-2.05,-1.79,-1.54,1.75,1.76,1.76
387.97,3.74,1.98,3.74,1.98,-1.98,-1.72,-1.47,1.77,1.77,1.77
391.85,3.64,1.87,3.67,1.90,-1.90,-1.64,-1.40,1.74,1.77,1.78
395.77,3.61,1.84,3.60,1.83,-1.83,-1.57,-1.33,1.79,1.78,1.78
399.73,3.54,1.76,3.54,1.75,-1.75,-1.50,-1.26,1.79,1.79,1.79
403.72,3.48,1.69,3.47,1.68,-1.68,-1.43,-1.20,1.81,1.79,1.80
407.76,3.38,1.59,3.40,1.60,-1.60,-1.36,-1.13,1.78,1.80,1.80
411.84,3.33,1.53,3.34,1.53,-1.53,-1.29,-1.07,1.80,1.81,1.81
415.96,3.25,1.44,3.27,1.46,-1.46,-1.22,-1.01,1.80,1.81,1.82
420.12,3.19,1.38,3.21,1.39,-1.39,-1.15,-0.95,1.81,1.82,1.82
424.32,3.15,1.33,3.14,1.32,-1.32,-1.08,-0.89,1.84,1.83,1.83
428.56,3.08,1.25,3.08,1.25,-1.25,-1.02,-0.83,1.84,1.83,1.84
432.85,3.02,1.18,3.02,1.18,-1.18,-0.95,-0.77,1.84,1.84,1.85
437.18,2.96,1.12,2.96,1.11,-1.11,-0.89,-0.71,1.85,1.85,1.85
441.55,2.90,1.05,2.90,1.04,-1.04,-0.82,-0.66,1.86,1.86,1.86
445.96,2.85,0.99,2.84,0.98,-0.98,-0.76,-0.60,1.88,1.87,1.87
450.42,2.77,0.90,2.79,0.91,-0.91,-0.70,-0.55,1.86,1.88,1.88
454.93,2.71,0.83,2.73,0.85,-0.85,-0.64,-0.50,1.87,1.89,1.89
459.48,2.66,0.77,2.67,0.78,-0.78,-0.58,-0.44,1.89,1.89,1.90
464.07,2.62,0.72,2.62,0.71,-0.71,-0.52,-0.39,1.91,1.90,1.91
468.71,2.57,0.66,2.56,0.64,-0.64,-0.46,-0.34,1.93,1.91,1.92
473.40,2.51,0.59,2.50,0.58,-0.58,-0.40,-0.30,1.94,1.92,1.93
478.13,2.45,0.52,2.44,0.51,-0.51,-0.34,-0.25,1.94,1.94,1.94
482.91,2.38,0.44,2.39,0.44,-0.44,-0.28,-0.20,1.94,1.95,1.95
487.74,2.33,0.38,2.33,0.38,-0.38,-0.23,-0.15,1.96,1.96,1.96
492.62,2.26,0.30,2.28,0.31,-0.31,-0.17,-0.11,1.96,1.97,1.97
497.55,2.20,0.23,2.22,0.24,-0.24,-0.12,-0.06,1.96,1.98,1.98
502.52,2.15,0.17,2.16,0.17,-0.17,-0.06,-0.02,1.98,1.99,1.99
507.55,2.10,0.10,2.10,0.10,-0.10,-0.01,0.02,2.00,2.00,2.01
512.62,2.06,0.05,2.04,0.03,-0.03,0.05,0.06,2.03,2.01,2.02
