frequency,raw,error,smoothed,error_smoothed,equalization,parametric_eq,fixed_band_eq,equalized_raw,equalized_smoothed,target
20.00,-5.70,-9.60,-5.71,-9.61,9.57,9.42,3.23,3.87,3.86,3.90
20.20,-5.61,-9.55,-5.60,-9.54,9.53,9.38,3.32,3.92,3.93,3.94
20.40,-5.51,-9.48,-5.51,-9.48,9.49,9.35,3.41,3.98,3.98,3.97
20.61,-5.42,-9.42,-5.41,-9.42,9.45,9.31,3.50,4.03,4.03,4.00
20.81,-5.32,-9.36,-5.32,-9.36,9.40,9.27,3.60,4.08,4.08,4.04
21.02,-5.24,-9.32,-5.25,-9.32,9.35,9.23,3.70,4.11,4.11,4.08
21.23,-5.18,-9.27,-5.18,-9.28,9.30,9.19,3.81,4.12,4.12,4.09
21.44,-5.13,-9.24,-5.13,-9.24,9.24,9.15,3.92,4.12,4.11,4.11
21.66,-5.08,-9.21,-5.08,-9.21,9.19,9.10,4.03,4.11,4.11,4.13
21.87,-5.03,-9.17,-5.02,-9.17,9.13,9.05,4.14,4.10,4.11,4.14
22.09,-4.96,-9.11,-4.95,-9.10,9.07,9.00,4.26,4.11,4.12,4.15
22.31,-4.86,-9.01,-4.86,-9.02,9.00,8.95,4.38,4.14,4.14,4.15
22.54,-4.76,-8.92,-4.76,-8.92,8.93,8.90,4.50,4.17,4.17,4.16
22.76,-4.66,-8.83,-4.66,-8.83,8.86,8.85,4.63,4.20,4.20,4.17
22.99,-4.56,-8.73,-4.57,-8.75,8.79,8.79,4.76,4.23,4.21,4.17
23.22,-4.51,-8.69,-4.50,-8.69,8.72,8.74,4.89,4.21,4.22,4.18
23.45,-4.45,-8.64,-4.45,-8.64,8.65,8.68,5.02,4.20,4.20,4.19
23.69,-4.40,-8.60,-4.40,-8.60,8.58,8.62,5.16,4.18,4.18,4.20
23.92,-4.35,-8.56,-4.34,-8.55,8.51,8.56,5.30,4.17,4.18,4.21
24.16,-4.26,-8.48,-4.26,-8.48,8.44,8.50,5.45,4.18,4.18,4.22
24.40,-4.16,-8.39,-4.16,-8.39,8.37,8.43,5.60,4.21,4.21,4.23
24.65,-4.06,-8.28,-4.05,-8.28,8.29,8.37,5.75,4.23,4.23,4.22
24.89,-3.95,-8.17,-3.96,-8.18,8.20,8.31,5.90,4.25,4.24,4.22
25.14,-3.87,-8.09,-3.87,-8.10,8.12,8.24,6.05,4.25,4.24,4.22
25.39,-3.81,-8.03,-3.80,-8.02,8.03,8.18,6.21,4.22,4.23,4.22
25.65,-3.74,-7.96,-3.74,-7.95,7.96,8.11,6.36,4.22,4.22,4.22
25.91,-3.67,-7.87,-3.67,-7.89,7.89,8.04,6.52,4.21,4.21,4.20
26.16,-3.61,-7.82,-3.61,-7.82,7.82,7.97,6.68,4.21,4.21,4.21
26.43,-3.55,-7.76,-3.55,-7.76,7.76,7.90,6.84,4.21,4.21,4.21
26.69,-3.49,-7.70,-3.49,-7.70,7.70,7.83,6.99,4.21,4.21,4.21
26.96,-3.43,-7.64,-3.43,-7.64,7.64,7.76,7.15,4.21,4.21,4.21
27.23,-3.37,-7.58,-3.37,-7.58,7.58,7.69,7.30,4.21,4.21,4.21
27.50,-3.30,-7.51,-3.30,-7.51,7.52,7.62,7.45,4.22,4.21,4.21
27.77,-3.24,-7.44,-3.24,-7.44,7.45,7.54,7.59,4.21,4.21,4.20
28.05,-3.18,-7.38,-3.18,-7.37,7.38,7.47,7.73,4.20,4.21,4.20
28.33,-3.11,-7.29,-3.12,-7.31,7.30,7.39,7.86,4.19,4.19,4.18
28.62,-3.05,-7.24,-3.05,-7.24,7.22,7.32,7.99,4.17,4.17,4.19
28.90,-2.98,-7.17,-2.97,-7.16,7.13,7.25,8.10,4.15,4.16,4.19
29.19,-2.88,-7.06,-2.87,-7.06,7.04,7.17,8.21,4.16,4.16,4.18
29.48,-2.75,-6.94,-2.75,-6.94,6.94,7.09,8.30,4.19,4.19,4.19
29.78,-2.62,-6.81,-2.63,-6.82,6.85,7.02,8.38,4.23,4.22,4.19
30.08,-2.52,-6.71,-2.53,-6.72,6.76,6.94,8.45,4.23,4.22,4.19
30.38,-2.46,-6.63,-2.46,-6.64,6.66,6.86,8.50,4.20,4.20,4.17
30.68,-2.41,-6.58,-2.41,-6.57,6.57,6.79,8.54,4.16,4.16,4.17
30.99,-2.35,-6.51,-2.34,-6.51,6.48,6.71,8.56,4.13,4.14,4.16
31.30,-2.26,-6.42,-2.26,-6.42,6.40,6.63,8.57,4.14,4.14,4.16
31.61,-2.17,-6.33,-2.17,-6.32,6.32,6.56,8.56,4.14,4.15,4.16
31.93,-2.07,-6.21,-2.08,-6.22,6.23,6.48,8.53,4.16,4.15,4.14
32.24,-2.00,-6.13,-2.00,-6.14,6.15,6.40,8.49,4.15,4.15,4.13
32.57,-1.93,-6.06,-1.93,-6.06,6.06,6.32,8.43,4.13,4.13,4.13
32.89,-1.86,-5.99,-1.86,-5.99,5.98,6.24,8.36,4.12,4.12,4.13
33.22,-1.79,-5.92,-1.78,-5.91,5.91,6.16,8.28,4.12,4.13,4.13
33.55,-1.71,-5.83,-1.70,-5.83,5.85,6.09,8.18,4.14,4.15,4.12
33.89,-1.63,-5.75,-1.64,-5.77,5.80,6.01,8.07,4.17,4.16,4.12
34.23,-1.60,-5.72,-1.61,-5.73,5.75,5.93,7.95,4.15,4.14,4.12
34.57,-1.60,-5.71,-1.60,-5.71,5.71,5.85,7.83,4.11,4.11,4.11
34.92,-1.60,-5.70,-1.58,-5.69,5.65,5.77,7.69,4.05,4.07,4.10
35.27,-1.54,-5.64,-1.54,-5.64,5.60,5.69,7.55,4.05,4.06,4.10
35.62,-1.46,-5.55,-1.47,-5.56,5.53,5.61,7.40,4.07,4.06,4.09
35.97,-1.38,-5.46,-1.38,-5.47,5.45,5.54,7.25,4.07,4.08,4.08
36.33,-1.29,-5.37,-1.29,-5.37,5.37,5.46,7.10,4.08,4.08,4.08
36.70,-1.21,-5.29,-1.21,-5.28,5.29,5.38,6.94,4.08,4.08,4.08
37.06,-1.13,-5.19,-1.12,-5.19,5.20,5.30,6.78,4.08,4.08,4.06
37.43,-1.04,-5.10,-1.03,-5.09,5.13,5.22,6.62,4.09,4.10,4.06
37.81,-0.95,-5.00,-0.96,-5.01,5.06,5.14,6.46,4.11,4.10,4.05
38.19,-0.91,-4.95,-0.93,-4.97,5.00,5.07,6.30,4.09,4.07,4.04
38.57,-0.91,-4.95,-0.91,-4.95,4.93,4.99,6.14,4.02,4.02,4.04
38.95,-0.91,-4.94,-0.88,-4.91,4.86,4.91,5.98,3.95,3.98,4.03
39.34,-0.83,-4.85,-0.83,-4.85,4.80,4.83,5.82,3.97,3.97,4.02
39.74,-0.74,-4.74,-0.75,-4.76,4.74,4.75,5.67,4.00,3.99,4.00
40.14,-0.65,-4.66,-0.64,-4.65,4.67,4.68,5.51,4.02,4.03,4.01
40.54,-0.56,-4.56,-0.56,-4.56,4.60,4.60,5.36,4.04,4.05,4.00
40.94,-0.47,-4.47,-0.50,-4.49,4.53,4.52,5.22,4.06,4.03,4.00
41.35,-0.46,-4.44,-0.47,-4.45,4.46,4.45,5.07,4.00,3.99,3.98
41.76,-0.46,-4.42,-0.44,-4.41,4.38,4.37,4.93,3.93,3.94,3.96
42.18,-0.42,-4.37,-0.39,-4.34,4.32,4.29,4.79,3.90,3.92,3.95
42.60,-0.32,-4.24,-0.32,-4.25,4.25,4.22,4.65,3.93,3.92,3.92
43.03,-0.23,-4.14,-0.27,-4.17,4.18,4.14,4.52,3.95,3.91,3.91
43.46,-0.23,-4.11,-0.23,-4.10,4.10,4.06,4.39,3.87,3.87,3.88
43.90,-0.23,-4.06,-0.19,-4.03,4.02,3.99,4.26,3.79,3.83,3.83
44.33,-0.15,-3.95,-0.14,-3.94,3.94,3.91,4.14,3.79,3.80,3.80
44.78,-0.05,-3.82,-0.07,-3.84,3.85,3.84,4.02,3.80,3.78,3.77
45.23,-0.00,-3.74,-0.02,-3.76,3.77,3.76,3.90,3.77,3.75,3.74
45.68,0.00,-3.71,0.01,-3.70,3.70,3.69,3.79,3.70,3.71,3.71
46.13,0.03,-3.66,0.07,-3.63,3.63,3.61,3.67,3.66,3.69,3.69
46.60,0.14,-3.54,0.13,-3.54,3.56,3.54,3.57,3.70,3.69,3.68
47.06,0.23,-3.43,0.19,-3.48,3.49,3.47,3.46,3.72,3.68,3.66
47.53,0.23,-3.43,0.23,-3.43,3.43,3.39,3.36,3.66,3.67,3.66
48.01,0.23,-3.43,0.26,-3.40,3.38,3.32,3.25,3.61,3.64,3.66
48.49,0.29,-3.35,0.29,-3.35,3.33,3.25,3.16,3.62,3.62,3.64
48.97,0.36,-3.27,0.35,-3.28,3.28,3.17,3.06,3.64,3.63,3.63
49.46,0.41,-3.21,0.41,-3.21,3.24,3.10,2.97,3.65,3.65,3.62
49.96,0.46,-3.16,0.45,-3.18,3.19,3.03,2.88,3.65,3.64,3.62
50.46,0.48,-3.15,0.48,-3.15,3.15,2.96,2.79,3.63,3.63,3.63
50.96,0.50,-3.14,0.53,-3.10,3.09,2.88,2.70,3.59,3.62,3.64
51.47,0.59,-3.04,0.59,-3.04,3.03,2.81,2.62,3.62,3.62,3.63
51.99,0.68,-2.93,0.64,-2.98,2.96,2.74,2.54,3.64,3.60,3.61
52.51,0.68,-2.92,0.68,-2.91,2.90,2.67,2.46,3.58,3.58,3.60
53.03,0.69,-2.88,0.74,-2.83,2.83,2.60,2.38,3.52,3.57,3.57
53.56,0.81,-2.73,0.80,-2.74,2.75,2.53,2.30,3.56,3.55,3.54
54.10,0.91,-2.59,0.87,-2.63,2.66,2.46,2.23,3.57,3.53,3.50
54.64,0.91,-2.54,0.91,-2.54,2.57,2.39,2.16,3.48,3.48,3.45
55.18,0.91,-2.49,0.91,-2.49,2.47,2.33,2.09,3.38,3.38,3.40
55.74,0.91,-2.44,0.94,-2.42,2.38,2.26,2.02,3.29,3.31,3.35
56.29,0.98,-2.32,1.00,-2.30,2.28,2.19,1.95,3.26,3.28,3.30
56.86,1.11,-2.13,1.07,-2.17,2.18,2.12,1.88,3.29,3.26,3.24
57.42,1.14,-2.03,1.13,-2.05,2.08,2.06,1.82,3.22,3.21,3.17
58.00,1.14,-1.97,1.14,-1.97,1.97,1.99,1.75,3.11,3.11,3.11
58.58,1.14,-1.91,1.16,-1.90,1.87,1.93,1.69,3.01,3.02,3.05
59.16,1.18,-1.82,1.21,-1.79,1.76,1.86,1.63,2.94,2.97,3.00
59.76,1.31,-1.63,1.28,-1.66,1.67,1.80,1.57,2.97,2.95,2.94
60.35,1.36,-1.51,1.34,-1.54,1.57,1.73,1.51,2.93,2.92,2.87
60.96,1.37,-1.45,1.38,-1.44,1.48,1.67,1.45,2.85,2.85,2.82
61.57,1.37,-1.38,1.36,-1.39,1.38,1.61,1.40,2.75,2.74,2.75
62.18,1.37,-1.31,1.36,-1.33,1.27,1.55,1.34,2.64,2.64,2.68
62.80,1.37,-1.27,1.41,-1.22,1.18,1.49,1.29,2.55,2.59,2.64
63.43,1.47,-1.11,1.48,-1.11,1.10,1.43,1.23,2.57,2.58,2.58
64.07,1.60,-0.94,1.55,-0.99,1.02,1.37,1.18,2.62,2.58,2.54
64.71,1.60,-0.89,1.60,-0.89,0.95,1.31,1.13,2.55,2.55,2.49
65.35,1.60,-0.84,1.61,-0.84,0.87,1.25,1.08,2.47,2.48,2.44
66.01,1.60,-0.81,1.60,-0.81,0.79,1.19,1.03,2.39,2.39,2.41
66.67,1.60,-0.77,1.60,-0.77,0.72,1.14,0.98,2.32,2.32,2.37
67.33,1.63,-0.71,1.64,-0.70,0.65,1.08,0.93,2.28,2.29,2.34
68.01,1.69,-0.62,1.70,-0.61,0.59,1.03,0.88,2.28,2.29,2.31
68.69,1.78,-0.50,1.76,-0.51,0.54,0.98,0.83,2.32,2.30,2.28
69.37,1.82,-0.42,1.81,-0.44,0.48,0.93,0.78,2.30,2.29,2.24
70.07,1.82,-0.39,1.83,-0.39,0.43,0.88,0.73,2.25,2.25,2.21
70.77,1.82,-0.38,1.82,-0.37,0.38,0.83,0.68,2.20,2.20,2.20
71.48,1.82,-0.34,1.82,-0.35,0.34,0.79,0.64,2.16,2.16,2.16
72.19,1.82,-0.32,1.82,-0.32,0.31,0.74,0.59,2.13,2.13,2.14
72.91,1.82,-0.28,1.82,-0.28,0.29,0.70,0.54,2.11,2.11,2.10
73.64,1.82,-0.25,1.82,-0.25,0.25,0.66,0.50,2.07,2.07,2.07
74.38,1.82,-0.22,1.81,-0.23,0.20,0.63,0.45,2.02,2.01,2.04
75.12,1.82,-0.19,1.82,-0.19,0.15,0.59,0.41,1.97,1.96,2.01
75.87,1.82,-0.16,1.86,-0.12,0.08,0.56,0.36,1.90,1.94,1.98
76.63,1.93,-0.02,1.93,-0.02,0.02,0.53,0.32,1.95,1.95,1.95
77.40,2.02,0.10,1.99,0.07,-0.04,0.51,0.27,1.98,1.95,1.92
78.17,2.05,0.16,2.05,0.15,-0.10,0.48,0.23,1.95,1.94,1.89
78.95,2.05,0.17,2.06,0.18,-0.16,0.47,0.18,1.89,1.90,1.88
79.74,2.05,0.19,2.05,0.19,-0.20,0.45,0.13,1.85,1.85,1.86
80.54,2.05,0.21,2.05,0.21,-0.23,0.45,0.09,1.82,1.82,1.84
81.35,2.05,0.23,2.05,0.22,-0.24,0.44,0.04,1.81,1.81,1.82
82.16,2.05,0.23,2.06,0.24,-0.24,0.44,-0.00,1.81,1.83,1.82
82.98,2.05,0.23,2.05,0.24,-0.22,0.45,-0.05,1.83,1.83,1.82
83.81,2.05,0.24,2.00,0.18,-0.18,0.46,-0.09,1.87,1.81,1.81
84.65,1.90,0.10,1.93,0.12,-0.13,0.48,-0.14,1.77,1.80,1.80
85.50,1.82,0.01,1.87,0.07,-0.06,0.51,-0.19,1.76,1.82,1.81
86.35,1.82,0.01,1.79,-0.01,0.04,0.54,-0.23,1.86,1.83,1.81
87.22,1.76,-0.05,1.71,-0.11,0.16,0.58,-0.28,1.92,1.86,1.81
88.09,1.53,-0.28,1.56,-0.26,0.29,0.62,-0.33,1.82,1.85,1.81
88.97,1.38,-0.45,1.39,-0.43,0.43,0.67,-0.38,1.81,1.82,1.83
89.86,1.21,-0.62,1.23,-0.59,0.58,0.72,-0.43,1.79,1.81,1.83
90.76,1.13,-0.68,1.10,-0.72,0.72,0.77,-0.48,1.85,1.82,1.81
91.66,0.98,-0.84,0.97,-0.84,0.85,0.81,-0.52,1.83,1.82,1.82
92.58,0.83,-0.96,0.84,-0.96,0.95,0.86,-0.57,1.78,1.79,1.79
93.51,0.73,-1.07,0.74,-1.06,1.01,0.89,-0.62,1.75,1.75,1.80
94.44,0.68,-1.10,0.68,-1.10,1.04,0.91,-0.67,1.72,1.72,1.78
95.39,0.68,-1.09,0.68,-1.08,1.02,0.92,-0.72,1.70,1.71,1.77
96.34,0.72,-1.01,0.74,-1.00,0.98,0.90,-0.78,1.70,1.72,1.73
97.30,0.83,-0.88,0.81,-0.91,0.92,0.87,-0.83,1.75,1.72,1.71
98.28,0.91,-0.78,0.91,-0.78,0.83,0.81,-0.88,1.74,1.74,1.69
99.26,0.97,-0.69,1.01,-0.66,0.72,0.72,-0.93,1.69,1.73,1.66
100.25,1.13,-0.50,1.07,-0.56,0.59,0.62,-0.98,1.72,1.67,1.63
101.25,1.14,-0.46,1.14,-0.46,0.45,0.49,-1.03,1.59,1.59,1.60
102.27,1.17,-0.39,1.20,-0.36,0.31,0.36,-1.09,1.48,1.51,1.56
103.29,1.29,-0.22,1.28,-0.23,0.16,0.21,-1.14,1.45,1.44,1.51
104.32,1.42,-0.05,1.44,-0.03,0.00,0.05,-1.19,1.42,1.44,1.47
105.37,1.60,0.18,1.61,0.19,-0.16,-0.11,-1.24,1.44,1.45,1.42
106.42,1.79,0.42,1.73,0.36,-0.33,-0.27,-1.29,1.46,1.40,1.37
107.48,1.82,0.52,1.82,0.52,-0.49,-0.43,-1.34,1.33,1.33,1.30
108.56,1.82,0.60,1.89,0.66,-0.64,-0.58,-1.39,1.18,1.25,1.22
109.64,1.97,0.82,1.95,0.79,-0.78,-0.73,-1.44,1.19,1.17,1.15
110.74,2.05,0.96,2.02,0.93,-0.91,-0.88,-1.49,1.14,1.11,1.09
111.85,2.05,1.03,2.06,1.04,-1.03,-1.02,-1.54,1.02,1.03,1.02
112.97,2.05,1.12,2.05,1.10,-1.14,-1.15,-1.58,0.91,0.91,0.93
114.10,2.05,1.18,2.06,1.20,-1.25,-1.27,-1.63,0.80,0.81,0.87
115.24,2.08,1.29,2.12,1.33,-1.35,-1.39,-1.67,0.73,0.76,0.79
116.39,2.21,1.50,2.19,1.47,-1.46,-1.51,-1.72,0.75,0.73,0.71
117.55,2.28,1.63,2.25,1.60,-1.57,-1.61,-1.76,0.71,0.69,0.65
118.73,2.28,1.70,2.28,1.69,-1.67,-1.72,-1.79,0.61,0.60,0.58
119.92,2.28,1.74,2.29,1.76,-1.78,-1.81,-1.83,0.50,0.51,0.54
121.12,2.29,1.81,2.34,1.85,-1.88,-1.91,-1.86,0.41,0.46,0.48
122.33,2.43,1.99,2.41,1.96,-1.97,-1.99,-1.90,0.46,0.44,0.44
123.55,2.51,2.09,2.48,2.07,-2.04,-2.08,-1.93,0.47,0.44,0.42
124.79,2.51,2.13,2.52,2.14,-2.10,-2.16,-1.96,0.41,0.42,0.38
126.03,2.51,2.17,2.52,2.17,-2.16,-2.23,-1.98,0.35,0.36,0.34
127.29,2.51,2.20,2.51,2.20,-2.21,-2.31,-2.01,0.30,0.30,0.31
128.57,2.51,2.24,2.51,2.24,-2.25,-2.38,-2.03,0.26,0.26,0.27
129.85,2.51,2.27,2.51,2.27,-2.28,-2.44,-2.05,0.23,0.23,0.24
131.15,2.51,2.30,2.51,2.30,-2.31,-2.51,-2.07,0.20,0.20,0.21
132.46,2.51,2.33,2.51,2.33,-2.34,-2.57,-2.08,0.17,0.17,0.18
133.79,2.51,2.36,2.51,2.37,-2.37,-2.63,-2.10,0.14,0.14,0.15
135.12,2.51,2.41,2.51,2.40,-2.40,-2.68,-2.11,0.11,0.11,0.10
136.48,2.51,2.44,2.51,2.44,-2.44,-2.74,-2.13,0.07,0.07,0.07
137.84,2.51,2.47,2.51,2.48,-2.47,-2.79,-2.14,0.04,0.04,0.04
139.22,2.51,2.52,2.51,2.52,-2.50,-2.84,-2.15,0.01,0.01,-0.01
140.61,2.51,2.57,2.51,2.56,-2.54,-2.89,-2.16,-0.03,-0.03,-0.06
142.02,2.51,2.59,2.51,2.59,-2.58,-2.93,-2.17,-0.07,-0.07,-0.08
143.44,2.51,2.63,2.51,2.63,-2.64,-2.98,-2.18,-0.13,-0.13,-0.12
144.87,2.51,2.67,2.50,2.66,-2.71,-3.02,-2.19,-0.20,-0.21,-0.16
146.32,2.51,2.72,2.53,2.73,-2.79,-3.06,-2.20,-0.28,-0.26,-0.21
147.78,2.56,2.81,2.59,2.84,-2.88,-3.10,-2.20,-0.32,-0.30,-0.25
149.26,2.68,3.00,2.66,2.98,-2.98,-3.14,-2.21,-0.30,-0.33,-0.32
150.75,2.74,3.14,2.72,3.11,-3.09,-3.17,-2.23,-0.35,-0.37,-0.40
152.26,2.74,3.21,2.75,3.22,-3.18,-3.21,-2.24,-0.44,-0.43,-0.47
153.78,2.74,3.28,2.76,3.31,-3.26,-3.24,-2.25,-0.52,-0.51,-0.54
155.32,2.74,3.38,2.73,3.36,-3.33,-3.27,-2.26,-0.59,-0.60,-0.64
156.88,2.72,3.43,2.67,3.38,-3.37,-3.30,-2.28,-0.65,-0.69,-0.71
158.44,2.57,3.35,2.61,3.40,-3.38,-3.33,-2.29,-0.81,-0.77,-0.78
160.03,2.51,3.37,2.54,3.39,-3.39,-3.36,-2.31,-0.88,-0.85,-0.86
161.63,2.51,3.43,2.45,3.36,-3.38,-3.38,-2.33,-0.87,-0.93,-0.92
163.24,2.37,3.34,2.38,3.35,-3.36,-3.41,-2.35,-0.99,-0.98,-0.97
164.88,2.28,3.29,2.32,3.33,-3.35,-3.43,-2.37,-1.07,-1.03,-1.01
166.53,2.28,3.33,2.27,3.32,-3.34,-3.45,-2.40,-1.06,-1.07,-1.05
168.19,2.28,3.36,2.27,3.35,-3.34,-3.47,-2.43,-1.06,-1.07,-1.08
169.87,2.28,3.37,2.28,3.37,-3.36,-3.49,-2.45,-1.08,-1.08,-1.09
171.57,2.28,3.38,2.26,3.36,-3.39,-3.51,-2.48,-1.11,-1.12,-1.10
173.29,2.28,3.38,2.29,3.38,-3.42,-3.53,-2.52,-1.14,-1.13,-1.10
175.02,2.28,3.36,2.35,3.44,-3.45,-3.55,-2.55,-1.17,-1.11,-1.08
176.77,2.47,3.56,2.42,3.50,-3.49,-3.56,-2.59,-1.02,-1.07,-1.09
178.54,2.51,3.59,2.49,3.56,-3.52,-3.57,-2.63,-1.01,-1.03,-1.08
180.32,2.51,3.58,2.53,3.60,-3.55,-3.59,-2.67,-1.04,-1.02,-1.07
182.13,2.51,3.58,2.51,3.58,-3.57,-3.60,-2.71,-1.06,-1.06,-1.07
183.95,2.51,3.58,2.51,3.58,-3.60,-3.61,-2.75,-1.09,-1.09,-1.07
185.79,2.51,3.59,2.51,3.59,-3.62,-3.62,-2.80,-1.11,-1.11,-1.08
187.65,2.51,3.61,2.51,3.61,-3.63,-3.62,-2.85,-1.12,-1.12,-1.10
189.52,2.51,3.63,2.51,3.63,-3.65,-3.63,-2.90,-1.14,-1.14,-1.12
191.42,2.51,3.65,2.51,3.65,-3.65,-3.64,-2.95,-1.14,-1.14,-1.14
193.33,2.51,3.67,2.51,3.66,-3.66,-3.64,-3.01,-1.15,-1.14,-1.16
195.27,2.51,3.67,2.52,3.69,-3.65,-3.64,-3.06,-1.14,-1.13,-1.16
197.22,2.51,3.69,2.51,3.69,-3.64,-3.65,-3.12,-1.13,-1.14,-1.18
199.19,2.50,3.72,2.46,3.66,-3.63,-3.65,-3.18,-1.13,-1.17,-1.22
201.18,2.37,3.59,2.38,3.61,-3.61,-3.65,-3.24,-1.24,-1.23,-1.22
203.19,2.28,3.52,2.32,3.56,-3.60,-3.65,-3.30,-1.32,-1.28,-1.24
205.23,2.28,3.55,2.27,3.53,-3.58,-3.64,-3.36,-1.30,-1.31,-1.27
207.28,2.28,3.55,2.27,3.55,-3.57,-3.64,-3.42,-1.29,-1.30,-1.27
209.35,2.28,3.57,2.28,3.57,-3.57,-3.64,-3.48,-1.29,-1.29,-1.29
211.44,2.28,3.60,2.28,3.58,-3.57,-3.63,-3.54,-1.29,-1.29,-1.32
213.56,2.28,3.60,2.28,3.60,-3.59,-3.63,-3.60,-1.31,-1.31,-1.32
215.69,2.28,3.60,2.28,3.61,-3.61,-3.62,-3.66,-1.33,-1.33,-1.32
217.85,2.28,3.63,2.28,3.62,-3.62,-3.61,-3.72,-1.34,-1.34,-1.35
220.03,2.28,3.64,2.28,3.64,-3.64,-3.61,-3.77,-1.36,-1.36,-1.36
222.23,2.28,3.66,2.28,3.65,-3.65,-3.60,-3.83,-1.37,-1.37,-1.38
224.45,2.28,3.66,2.28,3.66,-3.66,-3.59,-3.88,-1.38,-1.38,-1.38
226.70,2.28,3.66,2.28,3.66,-3.66,-3.58,-3.93,-1.38,-1.38,-1.38
228.96,2.28,3.67,2.28,3.66,-3.67,-3.57,-3.97,-1.39,-1.39,-1.39
231.25,2.28,3.67,2.28,3.67,-3.68,-3.55,-4.01,-1.40,-1.40,-1.39
233.57,2.28,3.68,2.28,3.68,-3.68,-3.54,-4.05,-1.40,-1.40,-1.40
235.90,2.28,3.69,2.28,3.69,-3.68,-3.53,-4.08,-1.40,-1.40,-1.41
238.26,2.28,3.69,2.28,3.69,-3.68,-3.51,-4.11,-1.40,-1.40,-1.41
240.64,2.28,3.69,2.28,3.69,-3.68,-3.50,-4.14,-1.40,-1.40,-1.41
243.05,2.28,3.68,2.28,3.68,-3.68,-3.48,-4.15,-1.40,-1.40,-1.40
245.48,2.28,3.67,2.28,3.67,-3.67,-3.46,-4.17,-1.39,-1.39,-1.39
247.93,2.28,3.66,2.28,3.67,-3.67,-3.45,-4.17,-1.39,-1.39,-1.38
250.41,2.28,3.67,2.28,3.66,-3.66,-3.43,-4.17,-1.38,-1.38,-1.39
252.92,2.28,3.66,2.28,3.65,-3.65,-3.41,-4.17,-1.37,-1.37,-1.38
255.45,2.28,3.63,2.28,3.64,-3.65,-3.39,-4.15,-1.37,-1.37,-1.35
258.00,2.28,3.63,2.28,3.63,-3.65,-3.37,-4.14,-1.37,-1.37,-1.35
260.58,2.28,3.63,2.28,3.62,-3.64,-3.35,-4.12,-1.36,-1.36,-1.35
263.19,2.28,3.61,2.28,3.61,-3.62,-3.33,-4.09,-1.34,-1.34,-1.33
265.82,2.28,3.61,2.29,3.61,-3.58,-3.31,-4.05,-1.30,-1.30,-1.33
268.48,2.28,3.58,2.29,3.60,-3.54,-3.29,-4.02,-1.26,-1.25,-1.30
271.16,2.28,3.57,2.25,3.54,-3.49,-3.26,-3.97,-1.21,-1.25,-1.29
273.87,2.20,3.48,2.18,3.45,-3.44,-3.24,-3.93,-1.24,-1.26,-1.28
276.61,2.07,3.31,2.11,3.36,-3.39,-3.22,-3.88,-1.32,-1.28,-1.24
279.38,2.05,3.28,2.06,3.28,-3.33,-3.19,-3.82,-1.28,-1.27,-1.23
282.17,2.05,3.25,2.04,3.24,-3.27,-3.17,-3.77,-1.22,-1.24,-1.20
284.99,2.05,3.22,2.05,3.22,-3.22,-3.14,-3.71,-1.17,-1.18,-1.17
287.84,2.05,3.20,2.05,3.19,-3.18,-3.12,-3.65,-1.13,-1.13,-1.15
290.72,2.05,3.16,2.05,3.16,-3.15,-3.09,-3.59,-1.10,-1.10,-1.11
293.63,2.05,3.14,2.05,3.13,-3.13,-3.07,-3.52,-1.08,-1.08,-1.09
296.57,2.05,3.11,2.05,3.11,-3.10,-3.04,-3.46,-1.05,-1.05,-1.06
299.53,2.05,3.08,2.05,3.08,-3.09,-3.01,-3.39,-1.04,-1.04,-1.03
302.53,2.05,3.07,2.05,3.06,-3.07,-2.99,-3.33,-1.02,-1.02,-1.02
305.55,2.05,3.03,2.05,3.04,-3.05,-2.96,-3.26,-1.00,-1.00,-0.98
308.61,2.05,3.01,2.05,3.01,-3.03,-2.93,-3.20,-0.98,-0.98,-0.96
311.69,2.05,3.00,2.05,2.99,-2.99,-2.91,-3.14,-0.94,-0.94,-0.95
314.81,2.05,2.97,2.07,2.99,-2.96,-2.88,-3.07,-0.91,-0.89,-0.92
317.96,2.05,2.97,2.04,2.97,-2.92,-2.85,-3.01,-0.87,-0.87,-0.92
321.14,2.04,2.97,1.98,2.90,-2.88,-2.82,-2.95,-0.84,-0.89,-0.93
324.35,1.87,2.79,1.91,2.83,-2.84,-2.79,-2.89,-0.97,-0.93,-0.92
327.59,1.82,2.73,1.84,2.75,-2.80,-2.76,-2.83,-0.98,-0.95,-0.91
330.87,1.82,2.72,1.81,2.71,-2.76,-2.74,-2.77,-0.94,-0.95,-0.90
334.18,1.82,2.72,1.82,2.71,-2.73,-2.71,-2.72,-0.91,-0.91,-0.90
337.52,1.82,2.71,1.82,2.70,-2.69,-2.68,-2.67,-0.87,-0.87,-0.89
340.90,1.82,2.68,1.82,2.69,-2.67,-2.65,-2.61,-0.85,-0.85,-0.86
344.30,1.82,2.67,1.82,2.67,-2.66,-2.62,-2.57,-0.84,-0.84,-0.85
347.75,1.82,2.66,1.82,2.65,-2.64,-2.59,-2.52,-0.82,-0.82,-0.84
351.23,1.82,2.63,1.82,2.63,-2.63,-2.56,-2.47,-0.81,-0.81,-0.81
354.74,1.82,2.61,1.82,2.61,-2.62,-2.53,-2.43,-0.80,-0.80,-0.79
358.28,1.82,2.58,1.82,2.58,-2.60,-2.50,-2.39,-0.78,-0.78,-0.76
361.87,1.82,2.56,1.82,2.56,-2.57,-2.47,-2.35,-0.75,-0.75,-0.74
365.49,1.82,2.54,1.82,2.54,-2.54,-2.44,-2.31,-0.72,-0.72,-0.72
369.14,1.82,2.52,1.83,2.52,-2.49,-2.41,-2.27,-0.67,-0.67,-0.70
372.83,1.82,2.49,1.83,2.50,-2.45,-2.38,-2.24,-0.63,-0.62,-0.67
376.56,1.82,2.47,1.79,2.43,-2.39,-2.35,-2.21,-0.57,-0.61,-0.65
380.33,1.73,2.35,1.72,2.34,-2.34,-2.32,-2.18,-0.61,-0.62,-0.62
384.13,1.62,2.22,1.65,2.26,-2.29,-2.29,-2.15,-0.67,-0.64,-0.60
387.97,1.60,2.19,1.60,2.19,-2.25,-2.26,-2.12,-0.65,-0.65,-0.59
391.85,1.60,2.19,1.59,2.17,-2.21,-2.23,-2.09,-0.61,-0.62,-0.59
395.77,1.60,2.18,1.60,2.18,-2.17,-2.20,-2.07,-0.57,-0.58,-0.58
399.73,1.60,2.17,1.60,2.17,-2.15,-2.17,-2.05,-0.55,-0.55,-0.57
403.72,1.60,2.16,1.60,2.16,-2.14,-2.14,-2.02,-0.54,-0.54,-0.56
407.76,1.60,2.15,1.60,2.15,-2.15,-2.11,-2.00,-0.55,-0.55,-0.55
411.84,1.60,2.14,1.60,2.14,-2.15,-2.08,-1.99,-0.55,-0.55,-0.54
415.96,1.60,2.13,1.60,2.13,-2.15,-2.05,-1.97,-0.55,-0.55,-0.53
420.12,1.60,2.13,1.60,2.13,-2.14,-2.02,-1.95,-0.54,-0.54,-0.53
424.32,1.60,2.13,1.61,2.14,-2.11,-1.99,-1.93,-0.51,-0.50,-0.53
428.56,1.60,2.13,1.60,2.14,-2.08,-1.96,-1.92,-0.48,-0.48,-0.53
432.85,1.60,2.14,1.56,2.09,-2.05,-1.93,-1.90,-0.45,-0.49,-0.54
437.18,1.49,2.02,1.50,2.02,-2.02,-1.91,-1.89,-0.53,-0.52,-0.53
441.55,1.40,1.92,1.43,1.95,-1.98,-1.88,-1.87,-0.58,-0.55,-0.52
445.96,1.37,1.89,1.37,1.89,-1.94,-1.85,-1.85,-0.57,-0.57,-0.52
450.42,1.37,1.88,1.36,1.87,-1.91,-1.82,-1.84,-0.54,-0.54,-0.51
454.93,1.37,1.87,1.37,1.87,-1.88,-1.79,-1.82,-0.51,-0.51,-0.50
459.48,1.37,1.86,1.37,1.85,-1.86,-1.76,-1.81,-0.49,-0.49,-0.49
464.07,1.37,1.84,1.37,1.84,-1.84,-1.73,-1.79,-0.47,-0.47,-0.47
468.71,1.37,1.82,1.37,1.82,-1.82,-1.70,-1.77,-0.45,-0.45,-0.45
473.40,1.37,1.81,1.38,1.81,-1.79,-1.67,-1.75,-0.42,-0.41,-0.44
478.13,1.37,1.78,1.38,1.79,-1.75,-1.65,-1.73,-0.38,-0.37,-0.41
482.91,1.37,1.76,1.35,1.73,-1.70,-1.62,-1.71,-0.33,-0.36,-0.39
487.74,1.31,1.67,1.28,1.64,-1.64,-1.59,-1.69,-0.33,-0.36,-0.36
492.62,1.18,1.51,1.21,1.54,-1.57,-1.56,-1.67,-0.39,-0.35,-0.33
497.55,1.14,1.45,1.17,1.48,-1.48,-1.53,-1.64,-0.34,-0.31,-0.31
502.52,1.14,1.42,1.13,1.41,-1.41,-1.51,-1.62,-0.27,-0.28,-0.28
507.55,1.14,1.41,1.08,1.34,-1.33,-1.48,-1.59,-0.19,-0.25,-0.27
512.62,0.97,1.21,1.01,1.25,-1.26,-1.45,-1.56,-0.29,-0.25,-0.24
