frequency,raw,error,smoothed,error_smoothed,equalization,parametric_eq,fixed_band_eq,equalized_raw,equalized_smoothed,target
20.00,15.79,4.34,15.82,4.36,-4.36,-4.25,-1.57,11.44,11.46,11.46
20.20,15.80,4.36,15.83,4.38,-4.38,-4.24,-1.61,11.43,11.45,11.45
20.40,15.80,4.37,15.83,4.39,-4.39,-4.23,-1.66,11.42,11.44,11.44
20.61,15.81,4.38,15.83,4.40,-4.40,-4.21,-1.71,11.41,11.43,11.44
20.81,15.81,4.40,15.83,4.41,-4.41,-4.20,-1.76,11.41,11.42,11.41
21.02,15.82,4.41,15.82,4.41,-4.41,-4.18,-1.81,11.41,11.41,11.41
21.23,15.83,4.43,15.82,4.41,-4.41,-4.17,-1.86,11.42,11.41,11.40
21.44,15.85,4.44,15.80,4.41,-4.41,-4.15,-1.92,11.45,11.40,11.41
21.66,15.86,4.46,15.79,4.40,-4.40,-4.14,-1.97,11.46,11.39,11.40
21.87,15.87,4.48,15.78,4.39,-4.39,-4.12,-2.03,11.48,11.38,11.39
22.09,15.85,4.47,15.76,4.38,-4.38,-4.11,-2.09,11.48,11.38,11.38
22.31,15.77,4.40,15.74,4.36,-4.36,-4.09,-2.15,11.41,11.37,11.38
22.54,15.69,4.32,15.71,4.34,-4.34,-4.08,-2.22,11.35,11.37,11.37
22.76,15.60,4.24,15.67,4.31,-4.31,-4.06,-2.28,11.29,11.36,11.37
22.99,15.52,4.17,15.64,4.28,-4.28,-4.05,-2.35,11.25,11.36,11.35
23.22,15.52,4.18,15.60,4.24,-4.24,-4.03,-2.41,11.28,11.36,11.34
23.45,15.52,4.17,15.56,4.21,-4.21,-4.01,-2.48,11.32,11.35,11.35
23.69,15.52,4.18,15.52,4.17,-4.17,-4.00,-2.55,11.36,11.35,11.34
23.92,15.52,4.18,15.48,4.13,-4.13,-3.98,-2.62,11.39,11.35,11.34
24.16,15.49,4.15,15.44,4.09,-4.09,-3.96,-2.70,11.40,11.35,11.35
24.40,15.44,4.09,15.41,4.06,-4.06,-3.94,-2.77,11.38,11.35,11.36
24.65,15.39,4.04,15.38,4.03,-4.03,-3.93,-2.84,11.36,11.35,11.35
24.89,15.34,3.99,15.35,4.01,-4.01,-3.91,-2.92,11.34,11.35,11.35
25.14,15.31,3.96,15.33,3.98,-3.98,-3.89,-3.00,11.33,11.35,11.35
25.39,15.28,3.93,15.30,3.95,-3.95,-3.87,-3.07,11.34,11.35,11.35
25.65,15.25,3.91,15.27,3.91,-3.91,-3.86,-3.15,11.34,11.36,11.35
25.91,15.23,3.88,15.23,3.88,-3.88,-3.84,-3.23,11.36,11.36,11.36
26.16,15.20,3.84,15.20,3.85,-3.85,-3.82,-3.30,11.36,11.36,11.36
26.43,15.18,3.82,15.18,3.83,-3.83,-3.80,-3.38,11.36,11.36,11.36
26.69,15.15,3.80,15.17,3.81,-3.81,-3.78,-3.45,11.34,11.36,11.36
26.96,15.12,3.77,15.16,3.80,-3.80,-3.76,-3.53,11.32,11.36,11.36
27.23,15.10,3.75,15.13,3.78,-3.78,-3.74,-3.60,11.33,11.36,11.35
27.50,15.07,3.72,15.10,3.74,-3.74,-3.73,-3.67,11.33,11.36,11.35
27.77,15.04,3.68,15.05,3.70,-3.70,-3.71,-3.73,11.35,11.36,11.36
28.05,15.02,3.67,15.02,3.66,-3.66,-3.69,-3.80,11.36,11.35,11.36
28.33,15.04,3.70,14.99,3.64,-3.64,-3.67,-3.86,11.41,11.35,11.34
28.62,15.06,3.72,14.97,3.62,-3.62,-3.65,-3.92,11.45,11.35,11.34
28.90,15.08,3.74,14.94,3.60,-3.60,-3.63,-3.97,11.49,11.35,11.35
29.19,14.98,3.64,14.92,3.57,-3.57,-3.61,-4.02,11.41,11.34,11.35
29.48,14.81,3.47,14.89,3.55,-3.55,-3.59,-4.06,11.27,11.34,11.34
29.78,14.65,3.31,14.85,3.52,-3.52,-3.57,-4.10,11.13,11.34,11.34
30.08,14.55,3.20,14.81,3.48,-3.48,-3.55,-4.14,11.07,11.33,11.35
30.38,14.66,3.33,14.76,3.44,-3.44,-3.53,-4.16,11.23,11.32,11.33
30.68,14.78,3.47,14.71,3.39,-3.39,-3.51,-4.19,11.40,11.32,11.32
30.99,14.90,3.59,14.65,3.34,-3.34,-3.49,-4.20,11.57,11.31,11.31
31.30,14.79,3.49,14.58,3.28,-3.28,-3.47,-4.21,11.51,11.30,11.30
31.61,14.63,3.34,14.52,3.23,-3.23,-3.45,-4.22,11.41,11.30,11.30
31.93,14.50,3.22,14.47,3.18,-3.18,-3.43,-4.21,11.31,11.29,11.28
32.24,14.39,3.12,14.43,3.15,-3.15,-3.41,-4.20,11.25,11.28,11.28
32.57,14.32,3.05,14.39,3.12,-3.12,-3.38,-4.19,11.20,11.27,11.26
32.89,14.22,2.97,14.35,3.09,-3.09,-3.36,-4.17,11.13,11.26,11.26
33.22,14.18,2.93,14.31,3.05,-3.05,-3.34,-4.15,11.13,11.26,11.25
33.55,14.16,2.92,14.26,3.00,-3.00,-3.32,-4.12,11.16,11.25,11.25
33.89,14.14,2.89,14.19,2.95,-2.95,-3.30,-4.08,11.20,11.25,11.25
34.23,14.15,2.92,14.14,2.90,-2.90,-3.28,-4.04,11.25,11.24,11.24
34.57,14.18,2.96,14.12,2.89,-2.89,-3.26,-4.00,11.30,11.23,11.23
34.92,14.20,2.98,14.12,2.89,-2.89,-3.24,-3.95,11.31,11.23,11.22
35.27,14.17,2.94,14.11,2.89,-2.89,-3.22,-3.90,11.27,11.22,11.23
35.62,14.09,2.88,14.09,2.88,-2.88,-3.20,-3.85,11.22,11.21,11.21
35.97,14.02,2.82,14.06,2.86,-2.86,-3.18,-3.80,11.16,11.19,11.20
36.33,13.99,2.81,14.03,2.85,-2.85,-3.16,-3.74,11.14,11.18,11.19
36.70,13.97,2.81,14.01,2.84,-2.84,-3.13,-3.69,11.13,11.16,11.17
37.06,13.97,2.81,13.98,2.83,-2.83,-3.11,-3.63,11.13,11.14,11.15
37.43,14.02,2.89,13.94,2.82,-2.82,-3.09,-3.57,11.20,11.12,11.12
37.81,14.06,2.96,13.90,2.80,-2.80,-3.07,-3.51,11.26,11.10,11.10
38.19,13.97,2.89,13.86,2.79,-2.79,-3.05,-3.45,11.18,11.07,11.08
38.57,13.73,2.69,13.81,2.77,-2.77,-3.03,-3.40,10.97,11.05,11.05
38.95,13.51,2.49,13.77,2.75,-2.75,-3.01,-3.34,10.75,11.02,11.02
39.34,13.60,2.62,13.73,2.74,-2.74,-2.99,-3.28,10.85,10.99,10.98
39.74,13.73,2.78,13.69,2.73,-2.73,-2.97,-3.23,11.00,10.96,10.96
40.14,13.78,2.86,13.65,2.72,-2.72,-2.95,-3.17,11.07,10.93,10.93
40.54,13.66,2.76,13.59,2.69,-2.69,-2.93,-3.12,10.96,10.90,10.90
40.94,13.52,2.66,13.52,2.65,-2.65,-2.91,-3.07,10.87,10.87,10.86
41.35,13.47,2.63,13.45,2.61,-2.61,-2.89,-3.02,10.87,10.84,10.84
41.76,13.43,2.63,13.40,2.59,-2.59,-2.87,-2.97,10.85,10.81,10.80
42.18,13.38,2.61,13.36,2.58,-2.58,-2.85,-2.92,10.80,10.78,10.78
42.60,13.31,2.56,13.32,2.57,-2.57,-2.83,-2.88,10.74,10.75,10.76
43.03,13.25,2.53,13.27,2.55,-2.55,-2.81,-2.83,10.70,10.72,10.72
43.46,13.18,2.50,13.22,2.52,-2.52,-2.79,-2.79,10.66,10.69,10.69
43.90,13.13,2.46,13.15,2.49,-2.49,-2.77,-2.76,10.64,10.66,10.66
44.33,13.01,2.39,13.09,2.46,-2.46,-2.75,-2.72,10.56,10.63,10.63
44.78,12.90,2.30,13.04,2.44,-2.44,-2.73,-2.68,10.46,10.60,10.59
45.23,12.93,2.36,12.99,2.43,-2.43,-2.71,-2.65,10.50,10.56,10.58
45.68,13.13,2.60,12.95,2.42,-2.42,-2.69,-2.62,10.71,10.52,10.53
46.13,13.17,2.69,12.90,2.41,-2.41,-2.68,-2.59,10.76,10.48,10.48
46.60,12.84,2.39,12.85,2.41,-2.41,-2.66,-2.57,10.43,10.44,10.44
47.06,12.56,2.16,12.80,2.40,-2.40,-2.64,-2.54,10.16,10.40,10.41
47.53,12.68,2.31,12.76,2.41,-2.41,-2.62,-2.52,10.27,10.35,10.37
48.01,12.79,2.49,12.72,2.41,-2.41,-2.60,-2.50,10.38,10.31,10.31
48.49,12.72,2.47,12.68,2.42,-2.42,-2.59,-2.48,10.31,10.26,10.26
48.97,12.64,2.44,12.62,2.41,-2.41,-2.57,-2.47,10.23,10.21,10.20
49.46,12.55,2.39,12.56,2.40,-2.40,-2.55,-2.45,10.15,10.16,10.16
49.96,12.47,2.37,12.51,2.40,-2.40,-2.54,-2.44,10.07,10.11,10.09
50.46,12.43,2.39,12.44,2.39,-2.39,-2.52,-2.43,10.05,10.06,10.05
50.96,12.40,2.40,12.39,2.39,-2.39,-2.50,-2.42,10.02,10.01,10.00
51.47,12.37,2.42,12.35,2.40,-2.40,-2.49,-2.41,9.98,9.96,9.96
51.99,12.33,2.43,12.32,2.41,-2.41,-2.47,-2.40,9.92,9.90,9.90
52.51,12.27,2.41,12.26,2.41,-2.41,-2.46,-2.39,9.85,9.85,9.85
53.03,12.19,2.38,12.19,2.39,-2.39,-2.44,-2.39,9.81,9.80,9.82
53.56,12.05,2.30,12.12,2.37,-2.37,-2.43,-2.38,9.69,9.75,9.76
54.10,11.96,2.26,12.06,2.36,-2.36,-2.41,-2.38,9.60,9.70,9.70
54.64,12.05,2.41,12.00,2.35,-2.35,-2.40,-2.38,9.70,9.65,9.65
55.18,12.08,2.50,11.95,2.35,-2.35,-2.38,-2.38,9.74,9.60,9.59
55.74,11.99,2.45,11.89,2.34,-2.34,-2.37,-2.38,9.65,9.55,9.53
56.29,11.83,2.34,11.82,2.32,-2.32,-2.36,-2.37,9.51,9.50,9.49
56.86,11.64,2.19,11.75,2.29,-2.29,-2.34,-2.37,9.34,9.45,9.45
57.42,11.58,2.20,11.66,2.26,-2.26,-2.33,-2.37,9.32,9.40,9.38
58.00,11.57,2.23,11.60,2.25,-2.25,-2.32,-2.37,9.33,9.35,9.34
58.58,11.56,2.26,11.54,2.25,-2.25,-2.31,-2.37,9.31,9.29,9.31
59.16,11.54,2.29,11.49,2.26,-2.26,-2.30,-2.37,9.29,9.24,9.26
59.76,11.48,2.28,11.45,2.27,-2.27,-2.29,-2.37,9.22,9.18,9.21
60.35,11.41,2.28,11.40,2.28,-2.28,-2.28,-2.37,9.13,9.12,9.14
60.96,11.34,2.27,11.36,2.30,-2.30,-2.27,-2.37,9.05,9.06,9.07
61.57,11.19,2.18,11.31,2.31,-2.31,-2.26,-2.36,8.88,9.00,9.00
62.18,11.06,2.14,11.26,2.33,-2.33,-2.25,-2.36,8.74,8.93,8.93
62.80,11.08,2.23,11.22,2.35,-2.35,-2.24,-2.36,8.72,8.87,8.85
63.43,11.25,2.46,11.17,2.37,-2.37,-2.23,-2.35,8.88,8.80,8.78
64.07,11.43,2.71,11.12,2.38,-2.38,-2.22,-2.35,9.05,8.73,8.72
64.71,11.20,2.54,11.07,2.40,-2.40,-2.22,-2.34,8.79,8.66,8.66
65.35,11.05,2.46,11.00,2.40,-2.40,-2.21,-2.34,8.65,8.59,8.59
66.01,10.99,2.47,10.95,2.43,-2.43,-2.20,-2.33,8.57,8.52,8.52
66.67,10.92,2.46,10.90,2.45,-2.45,-2.20,-2.32,8.48,8.45,8.47
67.33,10.76,2.38,10.83,2.45,-2.45,-2.19,-2.32,8.32,8.39,8.38
68.01,10.50,2.18,10.78,2.47,-2.47,-2.19,-2.31,8.03,8.31,8.32
68.69,10.68,2.44,10.73,2.48,-2.48,-2.19,-2.30,8.20,8.24,8.24
69.37,10.68,2.50,10.65,2.48,-2.48,-2.18,-2.29,8.20,8.17,8.18
70.07,10.55,2.45,10.57,2.47,-2.47,-2.18,-2.29,8.08,8.10,8.10
70.77,10.62,2.59,10.50,2.48,-2.48,-2.18,-2.28,8.15,8.03,8.03
71.48,10.44,2.48,10.42,2.47,-2.47,-2.18,-2.27,7.97,7.95,7.96
72.19,10.27,2.39,10.37,2.49,-2.49,-2.17,-2.27,7.77,7.88,7.88
72.91,10.57,2.77,10.33,2.52,-2.52,-2.17,-2.26,8.05,7.81,7.80
73.64,10.15,2.43,10.27,2.54,-2.54,-2.17,-2.26,7.61,7.73,7.72
74.38,10.10,2.45,10.21,2.55,-2.55,-2.17,-2.25,7.56,7.66,7.66
75.12,10.36,2.78,10.15,2.56,-2.56,-2.18,-2.25,7.80,7.59,7.58
75.87,9.95,2.44,10.09,2.57,-2.57,-2.18,-2.25,7.39,7.52,7.52
76.63,9.97,2.53,10.01,2.56,-2.56,-2.18,-2.25,7.42,7.45,7.45
77.40,10.03,2.65,9.95,2.56,-2.56,-2.18,-2.25,7.47,7.38,7.38
78.17,9.96,2.65,9.88,2.57,-2.57,-2.19,-2.25,7.40,7.32,7.31
78.95,9.58,2.32,9.82,2.57,-2.57,-2.19,-2.25,7.01,7.25,7.25
79.74,9.94,2.75,9.77,2.58,-2.58,-2.20,-2.25,7.36,7.18,7.19
80.54,9.73,2.61,9.71,2.59,-2.59,-2.20,-2.26,7.14,7.12,7.12
81.35,9.48,2.42,9.64,2.59,-2.59,-2.21,-2.27,6.89,7.05,7.05
82.16,9.53,2.54,9.59,2.61,-2.61,-2.22,-2.28,6.93,6.98,6.99
82.98,9.58,2.66,9.53,2.61,-2.61,-2.23,-2.29,6.97,6.92,6.92
83.81,9.50,2.65,9.46,2.61,-2.61,-2.24,-2.30,6.89,6.85,6.85
84.65,9.45,2.68,9.41,2.64,-2.64,-2.25,-2.31,6.82,6.78,6.78
85.50,9.37,2.68,9.35,2.64,-2.64,-2.26,-2.33,6.73,6.71,6.69
86.35,9.28,2.66,9.29,2.65,-2.65,-2.27,-2.34,6.63,6.63,6.63
87.22,9.23,2.67,9.23,2.67,-2.67,-2.28,-2.36,6.57,6.56,6.56
88.09,9.17,2.69,9.18,2.69,-2.69,-2.29,-2.38,6.48,6.49,6.49
88.97,9.08,2.67,9.10,2.69,-2.69,-2.31,-2.41,6.39,6.41,6.42
89.86,9.02,2.70,9.05,2.72,-2.72,-2.32,-2.43,6.31,6.34,6.33
90.76,8.97,2.71,9.00,2.74,-2.74,-2.34,-2.46,6.24,6.26,6.26
91.66,8.91,2.74,8.92,2.74,-2.74,-2.35,-2.49,6.17,6.18,6.17
92.58,8.84,2.75,8.85,2.75,-2.75,-2.37,-2.52,6.09,6.09,6.10
93.51,8.77,2.76,8.78,2.77,-2.77,-2.39,-2.55,6.01,6.01,6.02
94.44,8.72,2.79,8.71,2.78,-2.78,-2.40,-2.58,5.94,5.92,5.94
95.39,8.65,2.81,8.64,2.80,-2.80,-2.42,-2.62,5.85,5.84,5.84
96.34,8.57,2.82,8.56,2.82,-2.82,-2.44,-2.65,5.76,5.75,5.75
97.30,8.52,2.87,8.49,2.83,-2.83,-2.46,-2.69,5.69,5.65,5.66
98.28,8.43,2.87,8.41,2.85,-2.85,-2.49,-2.73,5.59,5.56,5.56
99.26,8.31,2.86,8.33,2.86,-2.86,-2.51,-2.77,5.46,5.47,5.46
100.25,8.22,2.86,8.24,2.87,-2.87,-2.53,-2.81,5.36,5.38,5.36
101.25,8.13,2.86,8.16,2.88,-2.88,-2.56,-2.85,5.26,5.28,5.28
102.27,8.06,2.88,8.07,2.89,-2.89,-2.58,-2.90,5.18,5.19,5.18
103.29,7.98,2.90,7.98,2.89,-2.89,-2.61,-2.94,5.09,5.09,5.09
104.32,7.90,2.90,7.89,2.90,-2.90,-2.63,-2.98,5.01,5.00,5.00
105.37,7.81,2.91,7.80,2.90,-2.90,-2.66,-3.03,4.92,4.90,4.91
106.42,7.71,2.90,7.71,2.90,-2.90,-2.69,-3.07,4.81,4.81,4.81
107.48,7.63,2.93,7.63,2.91,-2.91,-2.72,-3.11,4.72,4.72,4.71
108.56,7.54,2.91,7.54,2.92,-2.92,-2.75,-3.16,4.63,4.63,4.63
109.64,7.46,2.93,7.47,2.93,-2.93,-2.78,-3.20,4.53,4.53,4.54
110.74,7.37,2.93,7.39,2.95,-2.95,-2.81,-3.24,4.43,4.44,4.44
111.85,7.31,2.96,7.31,2.96,-2.96,-2.84,-3.28,4.36,4.35,4.36
112.97,7.20,2.93,7.24,2.97,-2.97,-2.87,-3.32,4.23,4.27,4.27
114.10,7.15,2.97,7.17,2.99,-2.99,-2.90,-3.35,4.17,4.18,4.19
115.24,7.08,2.99,7.10,3.00,-3.00,-2.93,-3.39,4.08,4.10,4.09
116.39,7.02,3.02,7.04,3.02,-3.02,-2.97,-3.42,4.00,4.01,4.00
117.55,7.00,3.08,6.97,3.04,-3.04,-3.00,-3.45,3.97,3.93,3.93
118.73,6.93,3.10,6.91,3.06,-3.06,-3.03,-3.47,3.88,3.85,3.84
119.92,6.84,3.08,6.85,3.07,-3.07,-3.07,-3.49,3.77,3.78,3.76
121.12,6.80,3.10,6.78,3.08,-3.08,-3.10,-3.51,3.72,3.70,3.70
122.33,6.74,3.12,6.73,3.11,-3.11,-3.14,-3.53,3.64,3.62,3.62
123.55,6.67,3.12,6.67,3.12,-3.12,-3.17,-3.54,3.55,3.55,3.55
124.79,6.62,3.14,6.63,3.15,-3.15,-3.21,-3.55,3.47,3.47,3.49
126.03,6.55,3.15,6.60,3.20,-3.20,-3.24,-3.55,3.36,3.40,3.41
127.29,6.49,3.16,6.54,3.21,-3.21,-3.28,-3.55,3.28,3.33,3.33
128.57,6.45,3.20,6.48,3.23,-3.23,-3.31,-3.55,3.23,3.25,3.25
129.85,6.38,3.21,6.43,3.25,-3.25,-3.34,-3.54,3.14,3.18,3.18
131.15,6.34,3.24,6.36,3.25,-3.25,-3.38,-3.53,3.10,3.11,3.11
132.46,6.28,3.25,6.29,3.26,-3.26,-3.41,-3.51,3.03,3.04,3.03
133.79,6.29,3.33,6.24,3.27,-3.27,-3.44,-3.50,3.02,2.96,2.96
135.12,6.33,3.45,6.16,3.27,-3.27,-3.47,-3.48,3.07,2.89,2.89
136.48,6.13,3.30,6.08,3.26,-3.26,-3.50,-3.45,2.87,2.82,2.83
137.84,6.24,3.48,6.01,3.26,-3.26,-3.53,-3.43,2.98,2.75,2.76
139.22,5.91,3.24,5.95,3.27,-3.27,-3.56,-3.40,2.65,2.68,2.67
140.61,5.56,2.95,5.88,3.27,-3.27,-3.59,-3.37,2.29,2.61,2.62
142.02,5.78,3.24,5.81,3.27,-3.27,-3.61,-3.34,2.51,2.54,2.54
143.44,5.72,3.26,5.74,3.27,-3.27,-3.64,-3.31,2.45,2.47,2.47
144.87,5.52,3.12,5.68,3.27,-3.27,-3.66,-3.28,2.25,2.41,2.40
146.32,5.71,3.37,5.61,3.27,-3.27,-3.68,-3.25,2.44,2.34,2.34
147.78,5.52,3.25,5.54,3.27,-3.27,-3.70,-3.22,2.25,2.27,2.27
149.26,5.33,3.13,5.47,3.27,-3.27,-3.72,-3.19,2.06,2.20,2.20
150.75,5.53,3.41,5.42,3.28,-3.28,-3.73,-3.15,2.25,2.13,2.12
152.26,5.55,3.49,5.37,3.30,-3.30,-3.75,-3.12,2.25,2.06,2.07
153.78,5.33,3.33,5.31,3.32,-3.32,-3.76,-3.09,2.02,2.00,2.00
155.32,5.23,3.30,5.27,3.34,-3.34,-3.77,-3.06,1.89,1.93,1.94
156.88,5.18,3.32,5.22,3.36,-3.36,-3.77,-3.03,1.83,1.86,1.86
158.44,5.11,3.32,5.13,3.35,-3.35,-3.78,-3.01,1.77,1.79,1.79
160.03,5.06,3.34,5.07,3.34,-3.34,-3.78,-2.98,1.72,1.72,1.72
161.63,4.99,3.34,4.99,3.34,-3.34,-3.78,-2.96,1.65,1.65,1.65
163.24,4.92,3.35,4.91,3.33,-3.33,-3.78,-2.94,1.59,1.58,1.58
164.88,4.85,3.34,4.84,3.33,-3.33,-3.78,-2.92,1.52,1.51,1.51
166.53,4.79,3.36,4.75,3.31,-3.31,-3.77,-2.90,1.49,1.44,1.44
168.19,4.67,3.30,4.64,3.27,-3.27,-3.76,-2.88,1.40,1.37,1.37
169.87,4.57,3.28,4.58,3.29,-3.29,-3.75,-2.87,1.29,1.30,1.30
171.57,4.50,3.28,4.53,3.30,-3.30,-3.74,-2.86,1.20,1.23,1.23
173.29,4.43,3.28,4.45,3.29,-3.29,-3.72,-2.85,1.14,1.16,1.16
175.02,4.35,3.25,4.40,3.30,-3.30,-3.71,-2.84,1.06,1.10,1.10
176.77,4.30,3.27,4.35,3.31,-3.31,-3.69,-2.83,0.99,1.03,1.03
178.54,4.24,3.28,4.28,3.31,-3.31,-3.67,-2.83,0.93,0.97,0.97
180.32,4.16,3.26,4.22,3.31,-3.31,-3.64,-2.83,0.85,0.91,0.90
182.13,4.10,3.26,4.17,3.31,-3.31,-3.62,-2.83,0.79,0.85,0.85
183.95,4.05,3.26,4.11,3.32,-3.32,-3.59,-2.83,0.74,0.79,0.80
185.79,4.25,3.52,4.08,3.34,-3.34,-3.56,-2.84,0.91,0.74,0.73
187.65,4.29,3.61,4.04,3.36,-3.36,-3.54,-2.85,0.94,0.68,0.68
189.52,3.85,3.23,3.98,3.35,-3.35,-3.51,-2.86,0.50,0.63,0.62
191.42,3.84,3.26,3.92,3.35,-3.35,-3.47,-2.87,0.50,0.58,0.59
193.33,4.06,3.53,3.88,3.36,-3.36,-3.44,-2.88,0.71,0.52,0.53
195.27,3.79,3.31,3.84,3.36,-3.36,-3.41,-2.90,0.42,0.47,0.47
197.22,3.58,3.17,3.79,3.37,-3.37,-3.38,-2.91,0.22,0.43,0.42
199.19,3.72,3.35,3.74,3.36,-3.36,-3.34,-2.93,0.36,0.38,0.38
201.18,3.70,3.38,3.69,3.36,-3.36,-3.31,-2.95,0.34,0.33,0.32
203.19,3.69,3.41,3.63,3.35,-3.35,-3.27,-2.97,0.34,0.28,0.28
205.23,3.69,3.45,3.57,3.33,-3.33,-3.24,-2.99,0.36,0.24,0.24
207.28,3.33,3.13,3.50,3.31,-3.31,-3.20,-3.01,0.02,0.19,0.20
209.35,3.31,3.16,3.45,3.31,-3.31,-3.17,-3.04,0.01,0.15,0.15
211.44,3.58,3.48,3.40,3.30,-3.30,-3.13,-3.06,0.28,0.10,0.10
213.56,3.48,3.42,3.32,3.26,-3.26,-3.10,-3.08,0.22,0.06,0.07
215.69,3.29,3.27,3.25,3.24,-3.24,-3.07,-3.10,0.06,0.02,0.02
217.85,3.18,3.20,3.22,3.24,-3.24,-3.04,-3.12,-0.06,-0.02,-0.02
220.03,3.11,3.18,3.17,3.23,-3.23,-3.00,-3.14,-0.11,-0.06,-0.07
222.23,3.06,3.17,3.10,3.19,-3.19,-2.97,-3.16,-0.13,-0.09,-0.10
224.45,2.98,3.12,3.04,3.17,-3.17,-2.94,-3.18,-0.19,-0.13,-0.14
226.70,2.93,3.10,2.97,3.13,-3.13,-2.91,-3.19,-0.20,-0.16,-0.17
228.96,2.85,3.04,2.91,3.10,-3.10,-2.89,-3.21,-0.25,-0.19,-0.19
231.25,2.79,3.01,2.87,3.08,-3.08,-2.86,-3.22,-0.29,-0.21,-0.21
233.57,2.75,3.00,2.80,3.03,-3.03,-2.83,-3.23,-0.28,-0.23,-0.24
235.90,2.82,3.09,2.72,2.98,-2.98,-2.81,-3.23,-0.15,-0.25,-0.26
238.26,2.95,3.23,2.68,2.95,-2.95,-2.79,-3.23,0.01,-0.27,-0.28
240.64,2.74,3.02,2.64,2.92,-2.92,-2.77,-3.23,-0.18,-0.28,-0.28
243.05,2.49,2.79,2.59,2.89,-2.89,-2.75,-3.22,-0.40,-0.30,-0.29
245.48,2.44,2.76,2.55,2.86,-2.86,-2.73,-3.21,-0.41,-0.31,-0.31
247.93,2.40,2.73,2.50,2.82,-2.82,-2.71,-3.20,-0.42,-0.32,-0.33
250.41,2.26,2.59,2.45,2.78,-2.78,-2.69,-3.18,-0.52,-0.33,-0.32
252.92,2.54,2.87,2.40,2.74,-2.74,-2.67,-3.15,-0.20,-0.34,-0.33
255.45,2.37,2.73,2.34,2.69,-2.69,-2.66,-3.13,-0.32,-0.35,-0.35
258.00,2.15,2.51,2.27,2.64,-2.64,-2.64,-3.09,-0.48,-0.37,-0.36
260.58,2.31,2.69,2.21,2.59,-2.59,-2.62,-3.06,-0.28,-0.38,-0.37
263.19,2.29,2.68,2.15,2.54,-2.54,-2.60,-3.02,-0.25,-0.39,-0.38
265.82,2.14,2.55,2.10,2.51,-2.51,-2.58,-2.97,-0.36,-0.41,-0.41
268.48,2.05,2.47,2.08,2.50,-2.50,-2.56,-2.93,-0.45,-0.43,-0.42
271.16,1.99,2.44,2.04,2.48,-2.48,-2.54,-2.88,-0.49,-0.44,-0.44
273.87,1.92,2.38,1.98,2.44,-2.44,-2.51,-2.82,-0.51,-0.46,-0.45
276.61,1.85,2.33,1.91,2.38,-2.38,-2.48,-2.77,-0.52,-0.47,-0.47
279.38,1.79,2.30,1.85,2.33,-2.33,-2.45,-2.71,-0.54,-0.48,-0.50
282.17,1.74,2.25,1.80,2.29,-2.29,-2.41,-2.65,-0.55,-0.50,-0.50
284.99,1.83,2.35,1.75,2.26,-2.26,-2.37,-2.58,-0.42,-0.51,-0.51
287.84,1.80,2.32,1.70,2.22,-2.22,-2.32,-2.52,-0.41,-0.52,-0.51
290.72,1.65,2.19,1.66,2.19,-2.19,-2.28,-2.45,-0.53,-0.52,-0.53
293.63,1.68,2.22,1.62,2.15,-2.15,-2.22,-2.38,-0.46,-0.53,-0.53
296.57,1.65,2.18,1.57,2.11,-2.11,-2.17,-2.31,-0.45,-0.54,-0.53
299.53,1.24,1.78,1.53,2.07,-2.07,-2.11,-2.24,-0.82,-0.54,-0.54
302.53,1.32,1.86,1.48,2.03,-2.03,-2.05,-2.17,-0.70,-0.54,-0.54
305.55,1.46,2.01,1.43,1.98,-1.98,-1.99,-2.10,-0.52,-0.55,-0.54
308.61,1.63,2.18,1.38,1.94,-1.94,-1.93,-2.03,-0.30,-0.55,-0.54
311.69,1.41,1.97,1.34,1.90,-1.90,-1.87,-1.96,-0.48,-0.56,-0.56
314.81,1.17,1.73,1.29,1.84,-1.84,-1.81,-1.89,-0.67,-0.56,-0.55
317.96,1.29,1.87,1.21,1.78,-1.78,-1.74,-1.82,-0.48,-0.56,-0.57
321.14,1.24,1.81,1.15,1.72,-1.72,-1.68,-1.75,-0.48,-0.57,-0.57
324.35,0.87,1.45,1.10,1.68,-1.68,-1.62,-1.68,-0.80,-0.57,-0.57
327.59,1.06,1.63,1.05,1.62,-1.62,-1.55,-1.61,-0.56,-0.58,-0.57
330.87,1.07,1.65,0.99,1.57,-1.57,-1.49,-1.54,-0.50,-0.58,-0.57
334.18,0.95,1.54,0.94,1.53,-1.53,-1.43,-1.47,-0.57,-0.58,-0.59
337.52,0.86,1.45,0.86,1.45,-1.45,-1.37,-1.40,-0.58,-0.58,-0.59
340.90,0.82,1.41,0.79,1.37,-1.37,-1.32,-1.34,-0.55,-0.58,-0.59
344.30,0.76,1.35,0.72,1.31,-1.31,-1.26,-1.27,-0.55,-0.58,-0.58
347.75,0.51,1.09,0.68,1.27,-1.27,-1.21,-1.21,-0.75,-0.58,-0.58
351.23,0.54,1.14,0.64,1.22,-1.22,-1.15,-1.14,-0.68,-0.58,-0.59
354.74,0.71,1.29,0.59,1.16,-1.16,-1.10,-1.08,-0.45,-0.58,-0.58
358.28,0.57,1.16,0.55,1.12,-1.12,-1.05,-1.02,-0.55,-0.58,-0.58
361.87,0.47,1.05,0.51,1.08,-1.08,-1.00,-0.96,-0.61,-0.57,-0.58
365.49,0.44,1.01,0.45,1.02,-1.02,-0.95,-0.90,-0.58,-0.57,-0.57
369.14,0.36,0.93,0.41,0.97,-0.97,-0.90,-0.84,-0.61,-0.57,-0.56
372.83,0.34,0.90,0.37,0.93,-0.93,-0.86,-0.78,-0.59,-0.57,-0.56
376.56,0.35,0.92,0.33,0.89,-0.89,-0.81,-0.72,-0.54,-0.56,-0.56
380.33,0.33,0.90,0.28,0.85,-0.85,-0.77,-0.66,-0.51,-0.56,-0.56
384.13,0.28,0.84,0.25,0.81,-0.81,-0.72,-0.61,-0.53,-0.57,-0.56
387.97,0.21,0.77,0.20,0.77,-0.77,-0.68,-0.55,-0.56,-0.57,-0.56
391.85,0.16,0.73,0.15,0.72,-0.72,-0.64,-0.49,-0.56,-0.57,-0.56
395.77,0.09,0.67,0.09,0.66,-0.66,-0.60,-0.44,-0.57,-0.58,-0.58
399.73,0.02,0.60,0.03,0.62,-0.62,-0.56,-0.39,-0.59,-0.58,-0.58
403.72,-0.02,0.56,-0.00,0.59,-0.59,-0.52,-0.33,-0.60,-0.59,-0.57
407.76,-0.04,0.56,-0.04,0.56,-0.56,-0.48,-0.28,-0.59,-0.59,-0.59
411.84,-0.11,0.49,-0.08,0.52,-0.52,-0.44,-0.23,-0.62,-0.60,-0.60
415.96,-0.14,0.46,-0.13,0.46,-0.46,-0.41,-0.18,-0.60,-0.60,-0.60
420.12,-0.19,0.42,-0.18,0.41,-0.41,-0.37,-0.13,-0.60,-0.60,-0.61
424.32,-0.23,0.38,-0.22,0.37,-0.37,-0.33,-0.08,-0.59,-0.59,-0.60
428.56,-0.29,0.30,-0.26,0.32,-0.32,-0.29,-0.04,-0.61,-0.58,-0.58
432.85,-0.32,0.25,-0.28,0.27,-0.27,-0.26,0.01,-0.59,-0.56,-0.57
437.18,-0.37,0.19,-0.30,0.23,-0.23,-0.22,0.06,-0.59,-0.53,-0.56
441.55,-0.24,0.28,-0.32,0.18,-0.18,-0.19,0.10,-0.42,-0.50,-0.52
445.96,-0.11,0.38,-0.33,0.14,-0.14,-0.15,0.14,-0.24,-0.47,-0.48
450.42,-0.40,0.05,-0.33,0.09,-0.09,-0.12,0.19,-0.49,-0.42,-0.44
454.93,-0.58,-0.18,-0.34,0.04,-0.04,-0.08,0.23,-0.62,-0.38,-0.40
459.48,-0.41,-0.07,-0.34,-0.01,0.01,-0.04,0.27,-0.40,-0.33,-0.34
464.07,-0.31,-0.04,-0.33,-0.06,0.06,-0.01,0.31,-0.25,-0.28,-0.27
468.71,-0.30,-0.08,-0.32,-0.10,0.10,0.03,0.34,-0.19,-0.22,-0.22
473.40,-0.31,-0.14,-0.31,-0.14,0.14,0.06,0.38,-0.16,-0.17,-0.16
478.13,-0.29,-0.18,-0.30,-0.19,0.19,0.10,0.42,-0.10,-0.12,-0.10
