frequency,raw,error,smoothed,error_smoothed,equalization,parametric_eq,fixed_band_eq,equalized_raw,equalized_smoothed,target
20.00,-8.23,-20.04,-8.23,-20.04,20.04,18.74,9.23,11.81,11.81,11.81
20.20,-8.16,-19.96,-8.17,-19.96,19.96,18.88,9.41,11.80,11.80,11.80
20.40,-8.10,-19.89,-8.10,-19.88,19.88,19.00,9.59,11.79,11.79,11.79
20.61,-8.03,-19.81,-8.03,-19.81,19.81,19.11,9.78,11.77,11.77,11.78
20.81,-7.97,-19.73,-7.97,-19.73,19.73,19.21,9.98,11.76,11.76,11.76
21.02,-7.90,-19.65,-7.90,-19.65,19.65,19.30,10.17,11.75,11.75,11.75
21.23,-7.83,-19.56,-7.83,-19.57,19.57,19.38,10.38,11.74,11.74,11.73
21.44,-7.77,-19.51,-7.76,-19.49,19.49,19.44,10.58,11.72,11.73,11.74
21.66,-7.70,-19.42,-7.69,-19.42,19.42,19.49,10.80,11.72,11.72,11.72
21.87,-7.63,-19.35,-7.63,-19.34,19.34,19.52,11.01,11.71,11.71,11.72
22.09,-7.56,-19.26,-7.56,-19.26,19.26,19.55,11.24,11.70,11.70,11.70
22.31,-7.49,-19.19,-7.49,-19.18,19.18,19.55,11.47,11.70,11.70,11.70
22.54,-7.42,-19.11,-7.42,-19.11,19.11,19.55,11.70,11.69,11.69,11.69
22.76,-7.34,-19.03,-7.35,-19.03,19.03,19.54,11.95,11.69,11.68,11.69
22.99,-7.27,-18.95,-7.28,-18.95,18.95,19.51,12.20,11.68,11.68,11.68
23.22,-7.20,-18.86,-7.20,-18.88,18.88,19.47,12.45,11.68,11.67,11.66
23.45,-7.13,-18.80,-7.13,-18.80,18.80,19.42,12.72,11.67,11.67,11.67
23.69,-7.06,-18.72,-7.06,-18.72,18.72,19.36,12.99,11.66,11.66,11.66
23.92,-6.99,-18.64,-6.99,-18.65,18.65,19.30,13.26,11.66,11.66,11.65
24.16,-6.92,-18.58,-6.92,-18.57,18.57,19.22,13.55,11.65,11.66,11.66
24.40,-6.85,-18.51,-6.84,-18.50,18.50,19.14,13.85,11.65,11.65,11.66
24.65,-6.77,-18.43,-6.77,-18.42,18.42,19.05,14.15,11.65,11.65,11.66
24.89,-6.70,-18.35,-6.70,-18.35,18.35,18.96,14.46,11.65,11.65,11.65
25.14,-6.63,-18.27,-6.62,-18.27,18.27,18.86,14.78,11.64,11.65,11.64
25.39,-6.55,-18.19,-6.55,-18.19,18.19,18.76,15.11,11.65,11.64,11.64
25.65,-6.47,-18.11,-6.48,-18.12,18.12,18.66,15.45,11.65,11.64,11.64
25.91,-6.40,-18.04,-6.40,-18.04,18.04,18.55,15.80,11.64,11.64,11.64
26.16,-6.32,-17.96,-6.33,-17.97,17.97,18.44,16.16,11.65,11.64,11.65
26.43,-6.25,-17.89,-6.25,-17.89,17.89,18.33,16.53,11.64,11.64,11.64
26.69,-6.18,-17.82,-6.18,-17.82,17.82,18.22,16.91,11.64,11.64,11.64
26.96,-6.10,-17.74,-6.10,-17.74,17.74,18.11,17.29,11.64,11.64,11.64
27.23,-6.03,-17.67,-6.02,-17.67,17.67,18.00,17.69,11.63,11.64,11.64
27.50,-5.95,-17.58,-5.95,-17.59,17.59,17.89,18.09,11.64,11.64,11.63
27.77,-5.87,-17.51,-5.87,-17.52,17.52,17.78,18.49,11.65,11.64,11.64
28.05,-5.80,-17.44,-5.80,-17.44,17.44,17.67,18.90,11.64,11.64,11.64
28.33,-5.72,-17.37,-5.72,-17.36,17.36,17.56,19.31,11.64,11.64,11.65
28.62,-5.64,-17.28,-5.64,-17.29,17.29,17.46,19.71,11.64,11.64,11.64
28.90,-5.56,-17.21,-5.56,-17.21,17.21,17.35,20.10,11.65,11.64,11.65
29.19,-5.48,-17.13,-5.48,-17.12,17.12,17.25,20.47,11.65,11.64,11.65
29.48,-5.40,-17.04,-5.40,-17.04,17.04,17.15,20.82,11.64,11.64,11.64
29.78,-5.33,-16.97,-5.32,-16.96,16.96,17.05,21.13,11.63,11.64,11.64
30.08,-5.25,-16.89,-5.24,-16.87,16.87,16.95,21.40,11.62,11.63,11.64
30.38,-5.16,-16.78,-5.16,-16.79,16.79,16.85,21.62,11.62,11.63,11.62
30.68,-5.08,-16.70,-5.08,-16.70,16.70,16.76,21.78,11.62,11.62,11.62
30.99,-4.99,-16.61,-4.99,-16.61,16.61,16.67,21.87,11.62,11.62,11.62
31.30,-4.91,-16.52,-4.91,-16.52,16.52,16.58,21.89,11.61,11.61,11.61
31.61,-4.82,-16.43,-4.83,-16.43,16.43,16.49,21.84,11.61,11.60,11.61
31.93,-4.74,-16.32,-4.74,-16.34,16.34,16.40,21.72,11.59,11.59,11.58
32.24,-4.66,-16.25,-4.66,-16.24,16.24,16.32,21.54,11.58,11.59,11.59
32.57,-4.57,-16.14,-4.57,-16.15,16.15,16.24,21.31,11.58,11.58,11.57
32.89,-4.49,-16.06,-4.49,-16.06,16.06,16.16,21.04,11.57,11.57,11.57
33.22,-4.41,-15.97,-4.41,-15.97,15.97,16.08,20.73,11.56,11.56,11.56
33.55,-4.33,-15.89,-4.33,-15.88,15.88,16.00,20.40,11.56,11.55,11.56
33.89,-4.25,-15.79,-4.25,-15.80,15.80,15.93,20.06,11.55,11.55,11.54
34.23,-4.17,-15.70,-4.17,-15.71,15.71,15.86,19.70,11.54,11.54,11.53
34.57,-4.09,-15.61,-4.09,-15.62,15.62,15.78,19.34,11.53,11.53,11.52
34.92,-4.01,-15.52,-4.02,-15.53,15.53,15.71,18.98,11.52,11.51,11.50
35.27,-3.94,-15.46,-3.94,-15.44,15.44,15.64,18.62,11.50,11.50,11.52
35.62,-3.87,-15.36,-3.87,-15.36,15.36,15.57,18.26,11.49,11.49,11.49
35.97,-3.80,-15.28,-3.79,-15.27,15.27,15.51,17.92,11.47,11.48,11.48
36.33,-3.72,-15.19,-3.72,-15.18,15.18,15.44,17.58,11.46,11.46,11.47
36.70,-3.64,-15.08,-3.65,-15.09,15.09,15.37,17.25,11.45,11.44,11.44
37.06,-3.57,-14.99,-3.58,-15.00,15.00,15.30,16.93,11.43,11.42,11.42
37.43,-3.50,-14.90,-3.51,-14.91,14.91,15.24,16.62,11.41,11.40,11.40
37.81,-3.43,-14.82,-3.44,-14.82,14.82,15.17,16.32,11.39,11.38,11.39
38.19,-3.37,-14.73,-3.37,-14.73,14.73,15.11,16.03,11.36,11.36,11.36
38.57,-3.30,-14.64,-3.30,-14.64,14.64,15.04,15.75,11.34,11.34,11.34
38.95,-3.23,-14.55,-3.23,-14.54,14.54,14.97,15.49,11.32,11.31,11.32
39.34,-3.16,-14.45,-3.16,-14.45,14.45,14.90,15.23,11.29,11.29,11.29
39.74,-3.09,-14.35,-3.09,-14.36,14.36,14.83,14.98,11.27,11.27,11.26
40.14,-3.03,-14.27,-3.02,-14.26,14.26,14.76,14.74,11.23,11.24,11.24
40.54,-2.96,-14.18,-2.95,-14.17,14.17,14.69,14.52,11.21,11.22,11.22
40.94,-2.89,-14.08,-2.88,-14.08,14.08,14.62,14.30,11.19,11.19,11.19
41.35,-2.82,-13.98,-2.81,-13.98,13.98,14.55,14.09,11.16,11.17,11.16
41.76,-2.74,-13.87,-2.74,-13.88,13.88,14.47,13.89,11.15,11.14,11.13
42.18,-2.67,-13.79,-2.67,-13.79,13.79,14.39,13.69,11.12,11.11,11.12
42.60,-2.60,-13.69,-2.60,-13.69,13.69,14.31,13.51,11.09,11.09,11.09
43.03,-2.52,-13.58,-2.53,-13.59,13.59,14.23,13.33,11.07,11.06,11.06
43.46,-2.45,-13.48,-2.45,-13.48,13.48,14.15,13.16,11.03,11.03,11.03
43.90,-2.38,-13.39,-2.38,-13.38,13.38,14.06,13.00,11.00,11.00,11.01
44.33,-2.31,-13.28,-2.30,-13.28,13.28,13.97,12.85,10.97,10.97,10.97
44.78,-2.24,-13.18,-2.23,-13.17,13.17,13.88,12.70,10.93,10.94,10.94
45.23,-2.16,-13.08,-2.15,-13.06,13.06,13.79,12.56,10.90,10.91,10.92
45.68,-2.08,-12.95,-2.08,-12.95,12.95,13.69,12.43,10.87,10.87,10.87
46.13,-2.01,-12.84,-2.01,-12.84,12.84,13.59,12.30,10.83,10.83,10.83
46.60,-1.93,-12.73,-1.94,-12.73,12.73,13.49,12.18,10.80,10.79,10.80
47.06,-1.86,-12.62,-1.87,-12.62,12.62,13.38,12.07,10.76,10.75,10.76
47.53,-1.80,-12.52,-1.80,-12.51,12.51,13.28,11.96,10.71,10.71,10.72
48.01,-1.73,-12.39,-1.74,-12.40,12.40,13.17,11.86,10.67,10.66,10.66
48.49,-1.67,-12.29,-1.67,-12.29,12.29,13.06,11.76,10.62,10.62,10.62
48.97,-1.61,-12.18,-1.61,-12.18,12.18,12.94,11.67,10.57,10.57,10.57
49.46,-1.55,-12.07,-1.55,-12.07,12.07,12.82,11.58,10.52,10.53,10.52
49.96,-1.49,-11.95,-1.49,-11.97,11.97,12.70,11.50,10.47,10.48,10.46
50.46,-1.43,-11.86,-1.43,-11.86,11.86,12.58,11.42,10.43,10.43,10.43
50.96,-1.37,-11.75,-1.38,-11.76,11.76,12.46,11.34,10.39,10.38,10.38
51.47,-1.32,-11.66,-1.32,-11.66,11.66,12.33,11.27,10.34,10.34,10.34
51.99,-1.27,-11.55,-1.27,-11.56,11.56,12.20,11.20,10.29,10.29,10.28
52.51,-1.22,-11.47,-1.22,-11.46,11.46,12.07,11.13,10.24,10.24,10.25
53.03,-1.17,-11.38,-1.17,-11.37,11.37,11.94,11.07,10.20,10.20,10.21
53.56,-1.12,-11.28,-1.12,-11.27,11.27,11.81,11.01,10.15,10.15,10.16
54.10,-1.07,-11.17,-1.08,-11.18,11.18,11.67,10.95,10.11,10.10,10.10
54.64,-1.03,-11.09,-1.03,-11.09,11.09,11.53,10.89,10.06,10.06,10.06
55.18,-0.99,-11.00,-0.99,-11.00,11.00,11.40,10.83,10.01,10.02,10.01
55.74,-0.95,-10.91,-0.94,-10.91,10.91,11.26,10.77,9.96,9.97,9.96
56.29,-0.90,-10.82,-0.90,-10.82,10.82,11.12,10.70,9.92,9.93,9.92
56.86,-0.85,-10.73,-0.85,-10.73,10.73,10.98,10.64,9.88,9.88,9.88
57.42,-0.81,-10.63,-0.81,-10.64,10.64,10.84,10.58,9.83,9.83,9.82
58.00,-0.76,-10.54,-0.76,-10.54,10.54,10.70,10.51,9.78,9.78,9.77
58.58,-0.71,-10.45,-0.71,-10.45,10.45,10.56,10.44,9.74,9.73,9.74
59.16,-0.67,-10.37,-0.67,-10.35,10.35,10.42,10.37,9.68,9.68,9.70
59.76,-0.62,-10.27,-0.62,-10.24,10.24,10.27,10.29,9.62,9.62,9.65
60.35,-0.57,-10.16,-0.57,-10.14,10.14,10.13,10.21,9.57,9.57,9.59
60.96,-0.52,-10.05,-0.51,-10.03,10.03,9.99,10.13,9.51,9.51,9.53
61.57,-0.47,-9.92,-0.46,-9.91,9.91,9.85,10.04,9.44,9.45,9.45
62.18,-0.41,-9.80,-0.41,-9.80,9.80,9.71,9.94,9.39,9.39,9.39
62.80,-0.36,-9.68,-0.35,-9.68,9.68,9.57,9.84,9.32,9.33,9.32
63.43,-0.30,-9.55,-0.30,-9.57,9.57,9.43,9.74,9.27,9.27,9.25
64.07,-0.23,-9.43,-0.24,-9.45,9.45,9.29,9.63,9.22,9.21,9.20
64.71,-0.18,-9.32,-0.18,-9.33,9.33,9.15,9.52,9.15,9.14,9.14
65.35,-0.12,-9.20,-0.13,-9.21,9.21,9.01,9.40,9.09,9.08,9.08
66.01,-0.07,-9.08,-0.07,-9.09,9.09,8.88,9.27,9.02,9.02,9.01
66.67,-0.02,-8.98,-0.02,-8.97,8.97,8.74,9.15,8.95,8.95,8.96
67.33,0.03,-8.86,0.03,-8.86,8.86,8.61,9.02,8.89,8.89,8.89
68.01,0.08,-8.75,0.08,-8.75,8.75,8.47,8.88,8.83,8.82,8.83
68.69,0.13,-8.63,0.13,-8.63,8.63,8.34,8.74,8.76,8.76,8.76
69.37,0.18,-8.52,0.17,-8.52,8.52,8.21,8.60,8.70,8.69,8.70
70.07,0.23,-8.40,0.22,-8.41,8.41,8.08,8.46,8.64,8.63,8.63
70.77,0.27,-8.29,0.26,-8.30,8.30,7.95,8.32,8.57,8.56,8.56
71.48,0.30,-8.20,0.31,-8.19,8.19,7.83,8.17,8.49,8.49,8.50
72.19,0.34,-8.09,0.35,-8.08,8.08,7.70,8.02,8.42,8.43,8.43
72.91,0.38,-7.97,0.39,-7.97,7.97,7.57,7.88,8.35,8.36,8.35
73.64,0.43,-7.86,0.43,-7.86,7.86,7.45,7.73,8.29,8.29,8.29
74.38,0.47,-7.75,0.47,-7.76,7.76,7.33,7.58,8.23,8.23,8.22
75.12,0.52,-7.64,0.51,-7.65,7.65,7.21,7.44,8.17,8.16,8.16
75.87,0.56,-7.54,0.55,-7.55,7.55,7.09,7.29,8.11,8.10,8.10
76.63,0.60,-7.43,0.59,-7.44,7.44,6.97,7.15,8.04,8.04,8.03
77.40,0.64,-7.34,0.64,-7.34,7.34,6.85,7.00,7.98,7.97,7.98
78.17,0.67,-7.23,0.68,-7.23,7.23,6.74,6.86,7.90,7.91,7.90
78.95,0.71,-7.15,0.72,-7.13,7.13,6.63,6.72,7.84,7.85,7.86
79.74,0.75,-7.04,0.77,-7.02,7.02,6.51,6.59,7.77,7.79,7.79
80.54,0.80,-6.93,0.81,-6.92,6.92,6.40,6.45,7.72,7.73,7.73
81.35,0.85,-6.81,0.85,-6.81,6.81,6.29,6.32,7.66,7.67,7.66
82.16,0.90,-6.71,0.89,-6.71,6.71,6.19,6.19,7.61,7.60,7.61
82.98,0.95,-6.59,0.93,-6.61,6.61,6.08,6.06,7.56,7.54,7.54
83.81,0.99,-6.49,0.97,-6.50,6.50,5.98,5.94,7.49,7.48,7.48
84.65,1.03,-6.38,1.01,-6.40,6.40,5.87,5.81,7.43,7.41,7.41
85.50,1.06,-6.28,1.06,-6.29,6.29,5.77,5.69,7.35,7.35,7.34
86.35,1.09,-6.19,1.10,-6.19,6.19,5.67,5.58,7.28,7.28,7.28
87.22,1.13,-6.08,1.14,-6.08,6.08,5.57,5.46,7.21,7.22,7.21
88.09,1.16,-5.99,1.17,-5.97,5.97,5.47,5.35,7.13,7.15,7.15
88.97,1.21,-5.87,1.21,-5.87,5.87,5.38,5.25,7.08,7.08,7.08
89.86,1.24,-5.77,1.25,-5.76,5.76,5.28,5.14,7.00,7.01,7.01
90.76,1.27,-5.67,1.28,-5.66,5.66,5.19,5.04,6.93,6.94,6.94
91.66,1.31,-5.55,1.31,-5.55,5.55,5.09,4.94,6.86,6.87,6.86
92.58,1.36,-5.44,1.35,-5.45,5.45,5.00,4.84,6.81,6.79,6.80
93.51,1.40,-5.33,1.38,-5.34,5.34,4.91,4.75,6.74,6.72,6.73
94.44,1.43,-5.23,1.42,-5.23,5.23,4.82,4.66,6.66,6.65,6.66
95.39,1.46,-5.11,1.45,-5.12,5.12,4.74,4.57,6.58,6.57,6.57
96.34,1.49,-5.01,1.49,-5.01,5.01,4.65,4.48,6.50,6.50,6.50
97.30,1.51,-4.92,1.52,-4.91,4.91,4.56,4.39,6.42,6.43,6.43
98.28,1.53,-4.81,1.55,-4.80,4.80,4.48,4.31,6.33,6.35,6.34
99.26,1.57,-4.70,1.58,-4.70,4.70,4.40,4.23,6.27,6.28,6.27
100.25,1.61,-4.59,1.61,-4.59,4.59,4.31,4.16,6.20,6.21,6.20
101.25,1.65,-4.48,1.64,-4.49,4.49,4.23,4.08,6.14,6.14,6.13
102.27,1.69,-4.38,1.67,-4.39,4.39,4.15,4.01,6.08,6.07,6.07
103.29,1.71,-4.28,1.71,-4.29,4.29,4.07,3.93,6.00,5.99,5.99
104.32,1.73,-4.19,1.74,-4.19,4.19,3.99,3.86,5.92,5.93,5.92
105.37,1.76,-4.10,1.77,-4.09,4.09,3.92,3.80,5.85,5.86,5.86
106.42,1.79,-4.00,1.80,-3.99,3.99,3.84,3.73,5.78,5.79,5.79
107.48,1.82,-3.90,1.83,-3.89,3.89,3.76,3.66,5.71,5.72,5.72
108.56,1.85,-3.80,1.86,-3.79,3.79,3.69,3.60,5.64,5.65,5.65
109.64,1.88,-3.71,1.88,-3.70,3.70,3.61,3.54,5.58,5.58,5.59
110.74,1.91,-3.60,1.90,-3.61,3.61,3.54,3.48,5.52,5.51,5.51
111.85,1.94,-3.50,1.91,-3.52,3.52,3.47,3.41,5.46,5.44,5.44
112.97,1.96,-3.41,1.92,-3.44,3.44,3.40,3.36,5.40,5.36,5.37
114.10,1.96,-3.34,1.93,-3.36,3.36,3.32,3.30,5.32,5.29,5.30
115.24,1.96,-3.26,1.94,-3.28,3.28,3.25,3.24,5.24,5.22,5.22
116.39,1.96,-3.18,1.94,-3.21,3.21,3.18,3.18,5.17,5.15,5.14
117.55,1.95,-3.12,1.94,-3.14,3.14,3.11,3.12,5.09,5.08,5.07
118.73,1.94,-3.06,1.95,-3.07,3.07,3.04,3.06,5.01,5.01,5.00
119.92,1.93,-3.01,1.95,-3.00,3.00,2.97,3.01,4.93,4.94,4.94
121.12,1.92,-2.96,1.95,-2.92,2.92,2.90,2.95,4.84,4.87,4.88
122.33,1.93,-2.88,1.95,-2.85,2.85,2.83,2.89,4.78,4.80,4.81
123.55,1.94,-2.81,1.96,-2.77,2.77,2.76,2.84,4.71,4.74,4.75
124.79,1.96,-2.72,1.98,-2.69,2.69,2.69,2.78,4.65,4.67,4.68
126.03,1.98,-2.63,1.99,-2.61,2.61,2.62,2.72,4.59,4.60,4.61
127.29,2.00,-2.54,2.02,-2.52,2.52,2.55,2.67,4.52,4.53,4.54
128.57,2.03,-2.44,2.04,-2.42,2.42,2.48,2.61,4.45,4.47,4.47
129.85,2.07,-2.33,2.07,-2.33,2.33,2.41,2.55,4.40,4.40,4.40
131.15,2.11,-2.22,2.10,-2.23,2.23,2.34,2.49,4.34,4.33,4.33
132.46,2.13,-2.13,2.14,-2.13,2.13,2.26,2.43,4.26,4.26,4.26
133.79,2.17,-2.02,2.16,-2.03,2.03,2.19,2.38,4.20,4.20,4.19
135.12,2.21,-1.92,2.19,-1.94,1.94,2.12,2.32,4.15,4.13,4.13
136.48,2.23,-1.84,2.22,-1.85,1.85,2.04,2.26,4.08,4.07,4.07
137.84,2.26,-1.74,2.24,-1.77,1.77,1.97,2.20,4.03,4.00,4.00
139.22,2.27,-1.66,2.25,-1.69,1.69,1.89,2.14,3.96,3.94,3.93
140.61,2.29,-1.59,2.27,-1.61,1.61,1.81,2.08,3.90,3.88,3.88
142.02,2.29,-1.52,2.28,-1.54,1.54,1.74,2.02,3.83,3.82,3.81
143.44,2.29,-1.47,2.28,-1.48,1.48,1.66,1.96,3.77,3.76,3.76
144.87,2.28,-1.42,2.28,-1.42,1.42,1.58,1.90,3.70,3.70,3.70
146.32,2.27,-1.37,2.28,-1.36,1.36,1.50,1.85,3.63,3.65,3.64
147.78,2.27,-1.32,2.29,-1.30,1.30,1.42,1.79,3.57,3.59,3.59
149.26,2.27,-1.26,2.28,-1.25,1.25,1.34,1.73,3.52,3.53,3.53
150.75,2.27,-1.20,2.28,-1.19,1.19,1.26,1.67,3.46,3.48,3.47
152.26,2.27,-1.16,2.28,-1.14,1.14,1.18,1.61,3.41,3.42,3.43
153.78,2.27,-1.10,2.28,-1.09,1.09,1.10,1.55,3.36,3.37,3.37
155.32,2.27,-1.05,2.28,-1.03,1.03,1.02,1.50,3.30,3.32,3.32
156.88,2.28,-0.99,2.28,-0.98,0.98,0.95,1.44,3.26,3.26,3.27
158.44,2.28,-0.92,2.28,-0.92,0.92,0.88,1.38,3.20,3.21,3.20
160.03,2.29,-0.86,2.28,-0.87,0.87,0.81,1.32,3.16,3.15,3.15
161.63,2.29,-0.81,2.27,-0.82,0.82,0.75,1.27,3.11,3.09,3.10
163.24,2.29,-0.75,2.27,-0.77,0.77,0.69,1.21,3.06,3.04,3.04
164.88,2.27,-0.71,2.26,-0.72,0.72,0.64,1.15,2.99,2.98,2.98
166.53,2.25,-0.67,2.24,-0.68,0.68,0.59,1.10,2.93,2.92,2.92
168.19,2.24,-0.63,2.23,-0.64,0.64,0.55,1.04,2.88,2.87,2.87
169.87,2.20,-0.61,2.21,-0.60,0.60,0.52,0.99,2.80,2.81,2.81
171.57,2.18,-0.57,2.18,-0.57,0.57,0.49,0.93,2.75,2.75,2.75
173.29,2.15,-0.55,2.15,-0.54,0.54,0.47,0.88,2.69,2.70,2.70
175.02,2.11,-0.53,2.12,-0.52,0.52,0.46,0.82,2.63,2.64,2.64
176.77,2.09,-0.49,2.09,-0.50,0.50,0.44,0.77,2.59,2.58,2.58
178.54,2.07,-0.46,2.05,-0.48,0.48,0.44,0.71,2.55,2.53,2.53
180.32,2.03,-0.43,2.01,-0.46,0.46,0.43,0.66,2.49,2.47,2.46
182.13,2.00,-0.42,1.98,-0.44,0.44,0.43,0.60,2.44,2.42,2.42
183.95,1.93,-0.44,1.95,-0.42,0.42,0.43,0.55,2.35,2.36,2.37
185.79,1.89,-0.42,1.91,-0.40,0.40,0.43,0.50,2.29,2.31,2.31
187.65,1.86,-0.40,1.88,-0.38,0.38,0.43,0.44,2.24,2.26,2.26
189.52,1.83,-0.38,1.85,-0.36,0.36,0.43,0.39,2.19,2.20,2.21
191.42,1.80,-0.36,1.81,-0.34,0.34,0.43,0.34,2.14,2.15,2.16
193.33,1.77,-0.34,1.78,-0.32,0.32,0.43,0.28,2.09,2.11,2.11
195.27,1.75,-0.31,1.75,-0.30,0.30,0.43,0.23,2.06,2.06,2.06
197.22,1.73,-0.27,1.72,-0.29,0.29,0.43,0.18,2.02,2.01,2.00
199.19,1.71,-0.26,1.70,-0.27,0.27,0.42,0.13,1.98,1.97,1.97
201.18,1.68,-0.23,1.67,-0.26,0.26,0.41,0.08,1.94,1.93,1.91
203.19,1.65,-0.23,1.64,-0.24,0.24,0.40,0.03,1.89,1.89,1.88
205.23,1.62,-0.23,1.62,-0.23,0.23,0.39,-0.02,1.85,1.85,1.85
207.28,1.59,-0.22,1.59,-0.22,0.22,0.38,-0.07,1.81,1.81,1.81
209.35,1.56,-0.21,1.56,-0.21,0.21,0.36,-0.12,1.77,1.77,1.77
211.44,1.54,-0.20,1.53,-0.21,0.21,0.35,-0.17,1.75,1.73,1.74
213.56,1.51,-0.20,1.49,-0.21,0.21,0.33,-0.22,1.72,1.70,1.71
215.69,1.47,-0.20,1.46,-0.21,0.21,0.31,-0.26,1.68,1.67,1.67
217.85,1.44,-0.20,1.43,-0.21,0.21,0.29,-0.30,1.65,1.63,1.64
220.03,1.42,-0.18,1.39,-0.21,0.21,0.26,-0.35,1.63,1.60,1.60
222.23,1.39,-0.18,1.36,-0.21,0.21,0.24,-0.39,1.60,1.58,1.57
224.45,1.34,-0.21,1.34,-0.21,0.21,0.21,-0.43,1.55,1.55,1.55
226.70,1.30,-0.21,1.32,-0.20,0.20,0.18,-0.47,1.50,1.52,1.51
228.96,1.28,-0.22,1.31,-0.18,0.18,0.15,-0.50,1.46,1.49,1.50
231.25,1.27,-0.20,1.30,-0.17,0.17,0.12,-0.54,1.44,1.47,1.47
233.57,1.28,-0.17,1.30,-0.15,0.15,0.08,-0.57,1.43,1.45,1.45
235.90,1.29,-0.14,1.31,-0.12,0.12,0.05,-0.60,1.41,1.43,1.43
238.26,1.31,-0.09,1.33,-0.09,0.09,0.01,-0.62,1.40,1.41,1.40
240.64,1.34,-0.06,1.35,-0.05,0.05,-0.03,-0.65,1.39,1.40,1.40
243.05,1.38,-0.01,1.38,-0.00,0.00,-0.07,-0.67,1.38,1.39,1.39
245.48,1.43,0.06,1.42,0.05,-0.05,-0.11,-0.69,1.38,1.37,1.37
247.93,1.49,0.14,1.47,0.11,-0.11,-0.15,-0.70,1.38,1.36,1.35
250.41,1.53,0.17,1.53,0.17,-0.17,-0.19,-0.72,1.36,1.36,1.36
252.92,1.59,0.24,1.58,0.24,-0.24,-0.24,-0.73,1.35,1.35,1.35
255.45,1.63,0.29,1.64,0.30,-0.30,-0.28,-0.74,1.33,1.34,1.34
258.00,1.69,0.36,1.70,0.37,-0.37,-0.33,-0.74,1.32,1.33,1.33
260.58,1.76,0.43,1.77,0.44,-0.44,-0.37,-0.74,1.32,1.33,1.33
263.19,1.82,0.49,1.83,0.51,-0.51,-0.42,-0.74,1.31,1.32,1.33
265.82,1.90,0.59,1.89,0.57,-0.57,-0.47,-0.74,1.33,1.31,1.31
268.48,1.96,0.65,1.95,0.64,-0.64,-0.51,-0.74,1.32,1.31,1.31
271.16,2.01,0.70,2.00,0.70,-0.70,-0.56,-0.73,1.31,1.30,1.31
273.87,2.07,0.77,2.05,0.75,-0.75,-0.61,-0.72,1.32,1.30,1.30
276.61,2.10,0.80,2.10,0.81,-0.81,-0.65,-0.71,1.29,1.29,1.30
279.38,2.15,0.87,2.14,0.85,-0.85,-0.70,-0.70,1.30,1.29,1.28
282.17,2.19,0.91,2.18,0.89,-0.89,-0.74,-0.68,1.30,1.29,1.28
284.99,2.22,0.93,2.21,0.92,-0.92,-0.78,-0.67,1.30,1.29,1.29
287.84,2.25,0.96,2.24,0.95,-0.95,-0.82,-0.65,1.30,1.29,1.29
290.72,2.26,0.98,2.25,0.97,-0.97,-0.86,-0.63,1.29,1.29,1.28
293.63,2.28,0.99,2.27,0.98,-0.98,-0.90,-0.61,1.30,1.29,1.29
296.57,2.29,1.00,2.28,0.99,-0.99,-0.93,-0.59,1.30,1.29,1.29
299.53,2.29,1.00,2.28,0.99,-0.99,-0.96,-0.57,1.30,1.29,1.29
302.53,2.29,0.98,2.29,0.99,-0.99,-0.99,-0.55,1.30,1.30,1.31
305.55,2.28,0.98,2.29,0.99,-0.99,-1.01,-0.53,1.29,1.30,1.30
308.61,2.27,0.96,2.29,0.98,-0.98,-1.03,-0.50,1.29,1.31,1.31
311.69,2.27,0.96,2.29,0.97,-0.97,-1.05,-0.48,1.30,1.31,1.31
314.81,2.27,0.95,2.29,0.97,-0.97,-1.06,-0.46,1.30,1.32,1.32
317.96,2.27,0.95,2.29,0.96,-0.96,-1.06,-0.44,1.31,1.32,1.32
321.14,2.27,0.94,2.29,0.96,-0.96,-1.07,-0.41,1.31,1.33,1.33
324.35,2.27,0.94,2.29,0.95,-0.95,-1.06,-0.39,1.32,1.34,1.33
327.59,2.28,0.93,2.29,0.94,-0.94,-1.06,-0.37,1.34,1.34,1.35
330.87,2.29,0.94,2.28,0.94,-0.94,-1.05,-0.34,1.35,1.35,1.35
334.18,2.29,0.94,2.28,0.93,-0.93,-1.03,-0.32,1.36,1.35,1.35
337.52,2.29,0.93,2.27,0.91,-0.91,-1.01,-0.30,1.38,1.36,1.36
340.90,2.28,0.91,2.26,0.90,-0.90,-0.99,-0.28,1.38,1.37,1.37
344.30,2.27,0.89,2.25,0.88,-0.88,-0.96,-0.26,1.39,1.37,1.38
347.75,2.25,0.87,2.23,0.85,-0.85,-0.93,-0.24,1.40,1.38,1.38
351.23,2.23,0.85,2.21,0.83,-0.83,-0.90,-0.21,1.40,1.39,1.38
354.74,2.20,0.80,2.19,0.80,-0.80,-0.86,-0.19,1.40,1.39,1.40
358.28,2.16,0.76,2.17,0.77,-0.77,-0.83,-0.17,1.39,1.40,1.40
361.87,2.13,0.72,2.14,0.73,-0.73,-0.79,-0.15,1.40,1.41,1.41
365.49,2.10,0.69,2.11,0.70,-0.70,-0.74,-0.13,1.40,1.41,1.41
369.14,2.07,0.64,2.08,0.66,-0.66,-0.70,-0.11,1.41,1.42,1.43
372.83,2.04,0.61,2.05,0.62,-0.62,-0.65,-0.09,1.42,1.43,1.43
376.56,2.01,0.58,2.02,0.58,-0.58,-0.61,-0.08,1.43,1.44,1.43
380.33,1.99,0.55,1.99,0.55,-0.55,-0.56,-0.06,1.44,1.44,1.44
384.13,1.96,0.51,1.96,0.51,-0.51,-0.51,-0.04,1.45,1.45,1.45
387.97,1.94,0.48,1.94,0.47,-0.47,-0.46,-0.02,1.47,1.46,1.46
391.85,1.91,0.44,1.91,0.44,-0.44,-0.41,-0.00,1.47,1.47,1.47
395.77,1.88,0.40,1.88,0.40,-0.40,-0.36,0.01,1.48,1.48,1.48
399.73,1.86,0.38,1.86,0.37,-0.37,-0.32,0.03,1.49,1.49,1.48
403.72,1.84,0.33,1.83,0.33,-0.33,-0.27,0.05,1.51,1.50,1.51
407.76,1.81,0.30,1.80,0.30,-0.30,-0.22,0.07,1.51,1.51,1.51
411.84,1.78,0.26,1.78,0.26,-0.26,-0.17,0.08,1.52,1.52,1.52
415.96,1.75,0.22,1.75,0.23,-0.23,-0.13,0.10,1.52,1.53,1.53
420.12,1.72,0.19,1.73,0.19,-0.19,-0.08,0.12,1.53,1.53,1.53
424.32,1.69,0.15,1.70,0.16,-0.16,-0.04,0.13,1.53,1.54,1.54
428.56,1.68,0.12,1.67,0.12,-0.12,0.01,0.15,1.56,1.55,1.56
432.85,1.65,0.08,1.65,0.09,-0.09,0.05,0.17,1.56,1.56,1.57
437.18,1.62,0.06,1.62,0.06,-0.06,0.10,0.18,1.56,1.57,1.56
441.55,1.60,0.03,1.60,0.02,-0.02,0.14,0.20,1.58,1.58,1.57
445.96,1.57,-0.01,1.57,-0.01,0.01,0.18,0.21,1.58,1.58,1.58
450.42,1.54,-0.05,1.55,-0.05,0.05,0.22,0.23,1.59,1.59,1.59
454.93,1.52,-0.08,1.52,-0.08,0.08,0.26,0.25,1.60,1.60,1.60
459.48,1.49,-0.11,1.49,-0.12,0.12,0.30,0.26,1.61,1.61,1.60
464.07,1.47,-0.15,1.47,-0.15,0.15,0.33,0.28,1.62,1.62,1.62
468.71,1.44,-0.19,1.44,-0.19,0.19,0.37,0.30,1.63,1.63,1.63
473.40,1.41,-0.23,1.41,-0.23,0.23,0.41,0.31,1.64,1.64,1.64
