frequency,raw,error,smoothed,error_smoothed,equalization,parametric_eq,fixed_band_eq,equalized_raw,equalized_smoothed,target
20.00,-9.18,-10.68,-9.18,-10.69,10.68,9.97,4.16,1.51,1.51,1.51
20.20,-9.09,-10.68,-9.08,-10.68,10.68,10.06,4.27,1.59,1.60,1.60
20.40,-9.00,-10.67,-8.99,-10.67,10.67,10.14,4.39,1.68,1.68,1.68
20.61,-8.90,-10.64,-8.90,-10.66,10.66,10.21,4.50,1.76,1.76,1.74
20.81,-8.81,-10.64,-8.81,-10.64,10.64,10.28,4.62,1.84,1.83,1.84
21.02,-8.72,-10.63,-8.71,-10.62,10.62,10.33,4.75,1.90,1.90,1.92
21.23,-8.63,-10.60,-8.62,-10.60,10.59,10.38,4.88,1.97,1.97,1.98
21.44,-8.52,-10.56,-8.53,-10.56,10.56,10.42,5.01,2.04,2.03,2.04
21.66,-8.44,-10.52,-8.43,-10.52,10.52,10.44,5.15,2.09,2.09,2.09
21.87,-8.33,-10.47,-8.34,-10.48,10.48,10.46,5.29,2.15,2.14,2.14
22.09,-8.25,-10.43,-8.25,-10.43,10.43,10.47,5.43,2.19,2.19,2.19
22.31,-8.15,-10.39,-8.15,-10.39,10.38,10.48,5.58,2.23,2.23,2.24
22.54,-8.06,-10.33,-8.06,-10.33,10.33,10.47,5.73,2.27,2.27,2.28
22.76,-7.97,-10.28,-7.96,-10.28,10.28,10.45,5.88,2.31,2.31,2.32
22.99,-7.87,-10.21,-7.87,-10.22,10.22,10.43,6.04,2.36,2.35,2.35
23.22,-7.78,-10.16,-7.78,-10.16,10.17,10.39,6.20,2.39,2.39,2.39
23.45,-7.69,-10.11,-7.68,-10.11,10.11,10.35,6.37,2.43,2.43,2.43
23.69,-7.59,-10.05,-7.59,-10.06,10.06,10.31,6.54,2.47,2.47,2.47
23.92,-7.49,-10.00,-7.50,-10.01,10.00,10.25,6.71,2.51,2.51,2.51
24.16,-7.41,-9.96,-7.40,-9.95,9.94,10.19,6.89,2.54,2.54,2.56
24.40,-7.30,-9.89,-7.31,-9.89,9.89,10.12,7.07,2.58,2.58,2.59
24.65,-7.22,-9.82,-7.22,-9.83,9.83,10.05,7.26,2.61,2.61,2.61
24.89,-7.12,-9.76,-7.12,-9.76,9.77,9.98,7.44,2.64,2.64,2.64
25.14,-7.03,-9.71,-7.03,-9.71,9.71,9.90,7.63,2.67,2.67,2.68
25.39,-6.93,-9.64,-6.94,-9.65,9.65,9.81,7.83,2.71,2.71,2.71
25.65,-6.85,-9.59,-6.84,-9.58,9.58,9.73,8.02,2.74,2.74,2.75
25.91,-6.75,-9.51,-6.75,-9.52,9.52,9.64,8.22,2.77,2.77,2.77
26.16,-6.65,-9.45,-6.66,-9.46,9.46,9.54,8.42,2.81,2.80,2.80
26.43,-6.57,-9.40,-6.56,-9.40,9.40,9.45,8.61,2.83,2.83,2.84
26.69,-6.48,-9.34,-6.47,-9.34,9.34,9.36,8.81,2.86,2.86,2.87
26.96,-6.38,-9.27,-6.38,-9.28,9.27,9.26,9.01,2.90,2.89,2.90
27.23,-6.29,-9.21,-6.29,-9.21,9.21,9.17,9.20,2.92,2.92,2.93
27.50,-6.20,-9.15,-6.20,-9.15,9.15,9.07,9.39,2.95,2.95,2.96
27.77,-6.10,-9.08,-6.11,-9.09,9.09,8.97,9.58,2.98,2.98,2.98
28.05,-6.02,-9.03,-6.02,-9.02,9.03,8.88,9.76,3.01,3.01,3.02
28.33,-5.93,-8.96,-5.93,-8.97,8.97,8.79,9.93,3.04,3.04,3.04
28.62,-5.84,-8.90,-5.84,-8.90,8.91,8.69,10.09,3.07,3.07,3.07
28.90,-5.75,-8.85,-5.75,-8.85,8.85,8.60,10.24,3.10,3.10,3.11
29.19,-5.66,-8.78,-5.66,-8.79,8.79,8.51,10.38,3.14,3.13,3.13
29.48,-5.58,-8.75,-5.57,-8.74,8.74,8.42,10.51,3.16,3.17,3.18
29.78,-5.49,-8.67,-5.49,-8.68,8.68,8.34,10.62,3.20,3.19,3.19
30.08,-5.41,-8.62,-5.41,-8.63,8.63,8.25,10.71,3.22,3.22,3.22
30.38,-5.34,-8.58,-5.33,-8.58,8.58,8.17,10.78,3.24,3.25,3.25
30.68,-5.26,-8.53,-5.26,-8.53,8.53,8.09,10.84,3.27,3.27,3.28
30.99,-5.18,-8.47,-5.18,-8.48,8.47,8.01,10.87,3.30,3.29,3.30
31.30,-5.11,-8.42,-5.10,-8.42,8.42,7.94,10.89,3.32,3.32,3.32
31.61,-5.03,-8.37,-5.03,-8.37,8.37,7.87,10.88,3.35,3.34,3.35
31.93,-4.96,-8.32,-4.95,-8.32,8.32,7.80,10.85,3.36,3.37,3.37
32.24,-4.87,-8.26,-4.88,-8.27,8.27,7.73,10.80,3.39,3.39,3.39
32.57,-4.80,-8.21,-4.80,-8.21,8.21,7.66,10.74,3.42,3.41,3.42
32.89,-4.73,-8.16,-4.72,-8.16,8.16,7.60,10.65,3.43,3.44,3.44
33.22,-4.65,-8.10,-4.65,-8.10,8.11,7.54,10.56,3.46,3.46,3.46
33.55,-4.58,-8.05,-4.58,-8.05,8.05,7.48,10.44,3.48,3.48,3.48
33.89,-4.51,-7.99,-4.51,-8.00,8.00,7.43,10.31,3.49,3.49,3.49
34.23,-4.44,-7.94,-4.44,-7.94,7.94,7.38,10.18,3.51,3.50,3.51
34.57,-4.38,-7.89,-4.37,-7.89,7.89,7.33,10.03,3.51,3.51,3.52
34.92,-4.31,-7.83,-4.30,-7.83,7.83,7.28,9.87,3.52,3.52,3.53
35.27,-4.23,-7.77,-4.23,-7.77,7.76,7.23,9.71,3.54,3.53,3.55
35.62,-4.16,-7.69,-4.16,-7.70,7.70,7.19,9.54,3.54,3.54,3.54
35.97,-4.09,-7.63,-4.08,-7.63,7.63,7.15,9.37,3.55,3.55,3.55
36.33,-4.01,-7.57,-4.01,-7.56,7.57,7.11,9.20,3.56,3.56,3.57
36.70,-3.94,-7.49,-3.94,-7.50,7.50,7.07,9.03,3.56,3.56,3.56
37.06,-3.87,-7.42,-3.87,-7.42,7.43,7.03,8.85,3.56,3.56,3.56
37.43,-3.80,-7.35,-3.80,-7.35,7.35,6.99,8.68,3.56,3.56,3.56
37.81,-3.73,-7.28,-3.72,-7.28,7.28,6.96,8.51,3.55,3.56,3.56
38.19,-3.65,-7.20,-3.65,-7.21,7.20,6.93,8.34,3.56,3.55,3.56
38.57,-3.58,-7.13,-3.58,-7.13,7.12,6.89,8.17,3.55,3.55,3.56
38.95,-3.51,-7.06,-3.50,-7.05,7.05,6.86,8.00,3.54,3.55,3.56
39.34,-3.43,-6.96,-3.43,-6.97,6.97,6.82,7.84,3.54,3.54,3.54
39.74,-3.35,-6.88,-3.35,-6.88,6.89,6.79,7.68,3.54,3.54,3.54
40.14,-3.28,-6.80,-3.28,-6.80,6.81,6.76,7.53,3.54,3.54,3.53
40.54,-3.21,-6.73,-3.21,-6.73,6.74,6.72,7.38,3.53,3.53,3.53
40.94,-3.15,-6.66,-3.14,-6.66,6.66,6.69,7.23,3.52,3.52,3.52
41.35,-3.08,-6.59,-3.08,-6.59,6.59,6.65,7.09,3.51,3.51,3.52
41.76,-3.02,-6.52,-3.01,-6.52,6.51,6.61,6.95,3.50,3.50,3.51
42.18,-2.95,-6.44,-2.94,-6.44,6.44,6.57,6.82,3.49,3.50,3.50
42.60,-2.88,-6.36,-2.88,-6.37,6.36,6.53,6.69,3.49,3.49,3.49
43.03,-2.81,-6.29,-2.81,-6.29,6.29,6.49,6.57,3.48,3.48,3.49
43.46,-2.75,-6.22,-2.74,-6.21,6.21,6.44,6.45,3.47,3.47,3.48
43.90,-2.68,-6.13,-2.68,-6.14,6.14,6.39,6.34,3.46,3.46,3.46
44.33,-2.62,-6.05,-2.62,-6.06,6.06,6.34,6.23,3.45,3.44,3.44
44.78,-2.56,-5.98,-2.56,-5.98,5.99,6.29,6.12,3.43,3.43,3.43
45.23,-2.50,-5.91,-2.50,-5.91,5.91,6.23,6.02,3.42,3.42,3.42
45.68,-2.44,-5.84,-2.44,-5.84,5.84,6.17,5.93,3.40,3.40,3.41
46.13,-2.38,-5.77,-2.37,-5.77,5.77,6.11,5.83,3.39,3.40,3.40
46.60,-2.31,-5.70,-2.31,-5.70,5.70,6.04,5.75,3.39,3.39,3.40
47.06,-2.24,-5.62,-2.24,-5.63,5.63,5.97,5.66,3.39,3.39,3.39
47.53,-2.19,-5.56,-2.18,-5.56,5.56,5.90,5.58,3.38,3.38,3.38
48.01,-2.13,-5.50,-2.12,-5.50,5.49,5.83,5.51,3.37,3.37,3.38
48.49,-2.07,-5.43,-2.07,-5.43,5.43,5.75,5.43,3.36,3.36,3.37
48.97,-2.01,-5.36,-2.01,-5.36,5.36,5.67,5.37,3.36,3.35,3.36
49.46,-1.96,-5.29,-1.95,-5.29,5.30,5.59,5.30,3.34,3.34,3.34
49.96,-1.90,-5.22,-1.90,-5.23,5.24,5.50,5.24,3.34,3.34,3.33
50.46,-1.85,-5.18,-1.84,-5.18,5.18,5.42,5.18,3.33,3.33,3.34
50.96,-1.79,-5.12,-1.79,-5.12,5.12,5.33,5.12,3.33,3.33,3.34
51.47,-1.74,-5.06,-1.73,-5.06,5.06,5.24,5.07,3.33,3.33,3.33
51.99,-1.68,-5.00,-1.68,-5.01,5.01,5.15,5.02,3.33,3.33,3.33
52.51,-1.63,-4.95,-1.63,-4.96,4.96,5.06,4.97,3.33,3.33,3.33
53.03,-1.59,-4.91,-1.58,-4.91,4.91,4.97,4.92,3.32,3.32,3.33
53.56,-1.54,-4.86,-1.54,-4.86,4.85,4.87,4.88,3.32,3.32,3.33
54.10,-1.49,-4.80,-1.49,-4.81,4.80,4.78,4.83,3.32,3.31,3.32
54.64,-1.45,-4.75,-1.45,-4.75,4.75,4.68,4.79,3.31,3.31,3.31
55.18,-1.41,-4.70,-1.40,-4.70,4.70,4.59,4.75,3.30,3.30,3.30
55.74,-1.37,-4.64,-1.37,-4.65,4.65,4.49,4.70,3.29,3.29,3.28
56.29,-1.33,-4.60,-1.33,-4.60,4.60,4.40,4.66,3.28,3.27,3.28
56.86,-1.30,-4.55,-1.30,-4.55,4.55,4.30,4.62,3.26,3.26,3.26
57.42,-1.27,-4.50,-1.27,-4.51,4.51,4.21,4.58,3.24,3.24,3.24
58.00,-1.24,-4.46,-1.24,-4.46,4.46,4.11,4.54,3.22,3.22,3.23
58.58,-1.21,-4.41,-1.20,-4.41,4.41,4.02,4.49,3.20,3.21,3.21
59.16,-1.17,-4.36,-1.17,-4.36,4.36,3.93,4.45,3.19,3.19,3.20
59.76,-1.13,-4.30,-1.13,-4.31,4.30,3.84,4.40,3.18,3.17,3.18
60.35,-1.11,-4.25,-1.10,-4.26,4.25,3.75,4.36,3.14,3.15,3.15
60.96,-1.08,-4.21,-1.07,-4.19,4.20,3.66,4.31,3.12,3.12,3.14
61.57,-1.05,-4.13,-1.05,-4.14,4.14,3.57,4.26,3.10,3.10,3.09
62.18,-1.02,-4.07,-1.02,-4.09,4.09,3.49,4.20,3.08,3.07,3.06
62.80,-1.01,-4.05,-1.00,-4.04,4.05,3.40,4.15,3.04,3.04,3.05
63.43,-0.99,-3.99,-0.99,-4.00,4.00,3.32,4.09,3.01,3.01,3.01
64.07,-0.98,-3.96,-0.97,-3.96,3.95,3.23,4.03,2.98,2.99,2.99
64.71,-0.94,-3.91,-0.94,-3.91,3.91,3.15,3.97,2.97,2.97,2.98
65.35,-0.92,-3.87,-0.92,-3.87,3.87,3.07,3.90,2.96,2.96,2.96
66.01,-0.89,-3.83,-0.88,-3.83,3.83,3.00,3.84,2.95,2.95,2.95
66.67,-0.86,-3.79,-0.86,-3.79,3.80,2.92,3.77,2.94,2.94,2.94
67.33,-0.83,-3.75,-0.83,-3.75,3.76,2.84,3.70,2.93,2.93,2.93
68.01,-0.81,-3.72,-0.80,-3.72,3.72,2.77,3.63,2.92,2.92,2.92
68.69,-0.78,-3.68,-0.78,-3.69,3.69,2.70,3.56,2.91,2.91,2.91
69.37,-0.75,-3.65,-0.75,-3.65,3.65,2.63,3.49,2.90,2.90,2.91
70.07,-0.72,-3.61,-0.71,-3.61,3.60,2.56,3.41,2.89,2.89,2.90
70.77,-0.68,-3.57,-0.68,-3.57,3.56,2.49,3.34,2.88,2.88,2.90
71.48,-0.64,-3.52,-0.63,-3.52,3.51,2.42,3.26,2.87,2.88,2.89
72.19,-0.59,-3.45,-0.59,-3.46,3.46,2.36,3.18,2.87,2.87,2.87
72.91,-0.55,-3.41,-0.54,-3.40,3.41,2.29,3.11,2.86,2.87,2.87
73.64,-0.50,-3.34,-0.50,-3.35,3.36,2.23,3.03,2.86,2.86,2.85
74.38,-0.46,-3.29,-0.46,-3.29,3.30,2.17,2.95,2.85,2.84,2.84
75.12,-0.43,-3.24,-0.42,-3.24,3.25,2.11,2.87,2.82,2.83,2.82
75.87,-0.40,-3.20,-0.39,-3.20,3.20,2.05,2.80,2.80,2.80,2.81
76.63,-0.36,-3.15,-0.36,-3.15,3.14,1.99,2.72,2.79,2.78,2.80
77.40,-0.33,-3.10,-0.32,-3.10,3.09,1.94,2.65,2.76,2.77,2.78
78.17,-0.28,-3.03,-0.28,-3.04,3.03,1.88,2.57,2.76,2.76,2.76
78.95,-0.23,-2.98,-0.23,-2.98,2.98,1.83,2.50,2.75,2.75,2.76
79.74,-0.18,-2.92,-0.18,-2.92,2.92,1.78,2.42,2.75,2.75,2.75
80.54,-0.13,-2.86,-0.13,-2.86,2.87,1.72,2.35,2.74,2.74,2.74
81.35,-0.09,-2.81,-0.08,-2.81,2.82,1.67,2.28,2.73,2.73,2.73
82.16,-0.05,-2.76,-0.05,-2.77,2.77,1.62,2.21,2.73,2.73,2.72
82.98,-0.01,-2.73,-0.01,-2.73,2.73,1.57,2.14,2.72,2.72,2.73
83.81,0.02,-2.69,0.03,-2.69,2.69,1.53,2.07,2.72,2.72,2.72
84.65,0.06,-2.64,0.06,-2.66,2.66,1.48,2.01,2.72,2.72,2.71
85.50,0.08,-2.63,0.09,-2.62,2.63,1.43,1.94,2.71,2.72,2.72
86.35,0.11,-2.60,0.11,-2.60,2.60,1.39,1.88,2.71,2.71,2.72
87.22,0.14,-2.56,0.14,-2.57,2.57,1.34,1.82,2.71,2.71,2.71
88.09,0.16,-2.54,0.17,-2.54,2.53,1.30,1.75,2.69,2.70,2.71
88.97,0.19,-2.50,0.19,-2.50,2.49,1.26,1.69,2.69,2.69,2.70
89.86,0.22,-2.46,0.23,-2.46,2.45,1.21,1.63,2.67,2.68,2.69
90.76,0.26,-2.40,0.26,-2.40,2.41,1.17,1.58,2.67,2.67,2.67
91.66,0.30,-2.34,0.30,-2.34,2.36,1.13,1.52,2.66,2.66,2.65
92.58,0.33,-2.28,0.33,-2.29,2.31,1.09,1.46,2.64,2.64,2.62
93.51,0.35,-2.24,0.35,-2.24,2.24,1.05,1.41,2.60,2.60,2.60
94.44,0.37,-2.19,0.38,-2.19,2.18,1.01,1.35,2.55,2.55,2.57
95.39,0.40,-2.12,0.41,-2.12,2.10,0.97,1.30,2.51,2.51,2.53
96.34,0.44,-2.04,0.45,-2.04,2.02,0.93,1.25,2.46,2.46,2.49
97.30,0.49,-1.93,0.49,-1.94,1.93,0.90,1.20,2.42,2.42,2.43
98.28,0.54,-1.83,0.54,-1.83,1.83,0.86,1.15,2.37,2.37,2.38
99.26,0.59,-1.73,0.60,-1.72,1.73,0.82,1.10,2.32,2.33,2.33
100.25,0.65,-1.61,0.65,-1.61,1.62,0.79,1.05,2.28,2.28,2.27
101.25,0.70,-1.50,0.70,-1.50,1.52,0.75,1.00,2.23,2.23,2.21
102.27,0.74,-1.40,0.74,-1.41,1.43,0.71,0.96,2.17,2.17,2.15
103.29,0.76,-1.32,0.77,-1.32,1.34,0.68,0.91,2.10,2.10,2.09
104.32,0.78,-1.25,0.78,-1.25,1.25,0.64,0.86,2.03,2.03,2.04
105.37,0.79,-1.17,0.80,-1.17,1.16,0.61,0.82,1.96,1.96,1.97
106.42,0.81,-1.09,0.81,-1.10,1.08,0.58,0.78,1.90,1.90,1.91
107.48,0.83,-1.02,0.84,-1.01,1.00,0.54,0.73,1.83,1.84,1.86
108.56,0.87,-0.92,0.87,-0.92,0.92,0.51,0.69,1.79,1.79,1.80
109.64,0.90,-0.83,0.91,-0.84,0.84,0.47,0.65,1.74,1.74,1.74
110.74,0.94,-0.74,0.94,-0.74,0.75,0.44,0.61,1.70,1.70,1.69
111.85,0.97,-0.67,0.97,-0.66,0.67,0.41,0.57,1.64,1.64,1.65
112.97,1.00,-0.57,1.00,-0.58,0.59,0.37,0.53,1.59,1.59,1.58
114.10,1.02,-0.51,1.03,-0.51,0.51,0.34,0.49,1.53,1.53,1.54
115.24,1.05,-0.43,1.05,-0.43,0.43,0.31,0.45,1.48,1.48,1.49
116.39,1.07,-0.36,1.08,-0.36,0.35,0.27,0.41,1.43,1.43,1.44
117.55,1.10,-0.29,1.11,-0.29,0.28,0.24,0.37,1.39,1.39,1.40
118.73,1.14,-0.21,1.14,-0.21,0.22,0.21,0.33,1.36,1.36,1.36
119.92,1.18,-0.14,1.18,-0.15,0.15,0.17,0.29,1.34,1.33,1.33
121.12,1.20,-0.09,1.20,-0.09,0.10,0.14,0.25,1.31,1.31,1.30
122.33,1.21,-0.05,1.22,-0.04,0.06,0.11,0.21,1.27,1.28,1.27
123.55,1.23,-0.00,1.23,-0.01,0.02,0.07,0.18,1.25,1.25,1.24
124.79,1.23,0.03,1.23,0.02,-0.01,0.04,0.14,1.22,1.22,1.21
126.03,1.22,0.04,1.22,0.04,-0.04,0.00,0.10,1.19,1.19,1.19
127.29,1.21,0.06,1.21,0.06,-0.06,-0.03,0.06,1.15,1.15,1.16
128.57,1.19,0.08,1.20,0.08,-0.09,-0.06,0.03,1.10,1.11,1.12
129.85,1.20,0.11,1.20,0.11,-0.12,-0.10,-0.01,1.08,1.08,1.10
131.15,1.21,0.15,1.21,0.15,-0.16,-0.13,-0.05,1.06,1.05,1.07
132.46,1.22,0.20,1.23,0.20,-0.20,-0.17,-0.08,1.02,1.03,1.03
133.79,1.25,0.25,1.25,0.25,-0.25,-0.21,-0.12,1.00,1.00,1.01
135.12,1.29,0.32,1.29,0.31,-0.31,-0.24,-0.16,0.98,0.97,0.98
136.48,1.31,0.37,1.32,0.37,-0.37,-0.28,-0.20,0.94,0.95,0.95
137.84,1.35,0.44,1.35,0.44,-0.44,-0.32,-0.24,0.91,0.91,0.92
139.22,1.38,0.52,1.38,0.51,-0.51,-0.35,-0.27,0.87,0.87,0.87
140.61,1.41,0.58,1.42,0.58,-0.58,-0.39,-0.31,0.83,0.84,0.84
142.02,1.46,0.65,1.46,0.65,-0.65,-0.43,-0.35,0.82,0.81,0.82
143.44,1.48,0.71,1.49,0.71,-0.71,-0.47,-0.39,0.77,0.78,0.78
144.87,1.51,0.78,1.51,0.77,-0.77,-0.51,-0.43,0.75,0.74,0.74
146.32,1.52,0.83,1.53,0.83,-0.82,-0.55,-0.47,0.70,0.71,0.70
147.78,1.55,0.89,1.55,0.88,-0.87,-0.60,-0.51,0.69,0.68,0.67
149.26,1.55,0.92,1.55,0.92,-0.91,-0.64,-0.55,0.65,0.64,0.64
150.75,1.54,0.96,1.55,0.95,-0.95,-0.68,-0.60,0.59,0.60,0.59
152.26,1.53,0.99,1.53,0.98,-0.99,-0.73,-0.64,0.54,0.54,0.55
153.78,1.52,1.01,1.53,1.02,-1.03,-0.77,-0.68,0.49,0.50,0.52
155.32,1.53,1.07,1.53,1.06,-1.08,-0.82,-0.73,0.45,0.45,0.47
156.88,1.55,1.12,1.55,1.12,-1.14,-0.87,-0.77,0.42,0.41,0.44
158.44,1.56,1.19,1.57,1.19,-1.19,-0.91,-0.82,0.37,0.38,0.38
160.03,1.60,1.27,1.60,1.26,-1.26,-0.96,-0.87,0.34,0.34,0.34
161.63,1.62,1.34,1.63,1.34,-1.33,-1.01,-0.92,0.29,0.30,0.29
163.24,1.65,1.41,1.66,1.41,-1.40,-1.07,-0.96,0.25,0.26,0.25
164.88,1.69,1.49,1.69,1.48,-1.48,-1.12,-1.01,0.22,0.21,0.21
166.53,1.71,1.55,1.72,1.55,-1.55,-1.17,-1.07,0.16,0.17,0.17
168.19,1.74,1.62,1.75,1.62,-1.63,-1.23,-1.12,0.12,0.12,0.13
169.87,1.78,1.70,1.78,1.69,-1.70,-1.29,-1.17,0.08,0.08,0.09
171.57,1.81,1.76,1.82,1.76,-1.77,-1.34,-1.23,0.04,0.04,0.06
173.29,1.85,1.84,1.86,1.84,-1.85,-1.40,-1.28,0.01,0.01,0.02
175.02,1.90,1.93,1.90,1.92,-1.92,-1.46,-1.34,-0.01,-0.02,-0.02
176.77,1.94,2.00,1.94,2.00,-1.98,-1.53,-1.40,-0.04,-0.04,-0.05
178.54,1.97,2.06,1.97,2.06,-2.05,-1.59,-1.46,-0.08,-0.08,-0.08
180.32,2.00,2.12,2.00,2.11,-2.11,-1.65,-1.52,-0.11,-0.11,-0.11
182.13,2.02,2.16,2.03,2.17,-2.17,-1.72,-1.58,-0.15,-0.14,-0.13
183.95,2.06,2.22,2.06,2.22,-2.22,-1.78,-1.64,-0.16,-0.16,-0.15
185.79,2.09,2.27,2.09,2.26,-2.27,-1.85,-1.70,-0.17,-0.18,-0.17
187.65,2.11,2.31,2.12,2.31,-2.31,-1.92,-1.77,-0.19,-0.19,-0.19
189.52,2.14,2.35,2.14,2.35,-2.35,-1.99,-1.83,-0.20,-0.20,-0.20
191.42,2.16,2.39,2.16,2.38,-2.38,-2.06,-1.90,-0.22,-0.22,-0.22
193.33,2.17,2.41,2.18,2.41,-2.41,-2.13,-1.97,-0.23,-0.23,-0.23
195.27,2.19,2.44,2.19,2.44,-2.43,-2.20,-2.04,-0.24,-0.24,-0.24
197.22,2.19,2.46,2.19,2.46,-2.45,-2.27,-2.11,-0.26,-0.26,-0.26
199.19,2.19,2.48,2.20,2.48,-2.47,-2.35,-2.18,-0.28,-0.27,-0.28
201.18,2.20,2.50,2.20,2.49,-2.49,-2.42,-2.25,-0.29,-0.29,-0.29
203.19,2.21,2.51,2.21,2.51,-2.52,-2.49,-2.32,-0.31,-0.31,-0.29
205.23,2.22,2.54,2.23,2.53,-2.55,-2.56,-2.39,-0.32,-0.32,-0.31
207.28,2.24,2.56,2.25,2.57,-2.58,-2.63,-2.46,-0.34,-0.33,-0.31
209.35,2.27,2.61,2.27,2.61,-2.62,-2.69,-2.53,-0.34,-0.34,-0.33
211.44,2.31,2.67,2.31,2.66,-2.66,-2.76,-2.60,-0.34,-0.35,-0.35
213.56,2.34,2.71,2.35,2.71,-2.70,-2.82,-2.67,-0.36,-0.35,-0.36
215.69,2.38,2.75,2.38,2.75,-2.75,-2.88,-2.73,-0.36,-0.37,-0.36
217.85,2.41,2.80,2.41,2.79,-2.79,-2.94,-2.80,-0.38,-0.38,-0.38
220.03,2.43,2.83,2.44,2.83,-2.83,-2.99,-2.86,-0.40,-0.40,-0.39
222.23,2.46,2.88,2.46,2.87,-2.87,-3.04,-2.92,-0.41,-0.41,-0.41
224.45,2.48,2.90,2.49,2.91,-2.90,-3.09,-2.98,-0.42,-0.42,-0.41
226.70,2.51,2.95,2.51,2.94,-2.93,-3.13,-3.04,-0.42,-0.42,-0.43
228.96,2.52,2.97,2.52,2.96,-2.96,-3.17,-3.09,-0.43,-0.44,-0.44
231.25,2.52,2.98,2.53,2.98,-2.98,-3.20,-3.14,-0.46,-0.45,-0.45
233.57,2.52,3.00,2.53,3.00,-3.00,-3.23,-3.18,-0.48,-0.47,-0.47
235.90,2.52,3.01,2.52,3.01,-3.02,-3.25,-3.23,-0.49,-0.49,-0.48
238.26,2.52,3.03,2.52,3.03,-3.03,-3.27,-3.26,-0.51,-0.51,-0.50
240.64,2.51,3.04,2.52,3.04,-3.04,-3.28,-3.29,-0.53,-0.52,-0.52
243.05,2.51,3.05,2.51,3.05,-3.05,-3.28,-3.32,-0.54,-0.54,-0.53
245.48,2.51,3.06,2.51,3.06,-3.06,-3.28,-3.34,-0.54,-0.55,-0.54
247.93,2.51,3.07,2.51,3.07,-3.06,-3.28,-3.36,-0.55,-0.55,-0.55
250.41,2.51,3.08,2.51,3.07,-3.07,-3.27,-3.37,-0.55,-0.55,-0.56
252.92,2.51,3.07,2.51,3.07,-3.07,-3.25,-3.37,-0.56,-0.56,-0.55
255.45,2.51,3.07,2.51,3.07,-3.07,-3.23,-3.37,-0.55,-0.55,-0.55
258.00,2.51,3.06,2.51,3.06,-3.06,-3.21,-3.37,-0.55,-0.55,-0.54
260.58,2.51,3.06,2.51,3.06,-3.06,-3.18,-3.36,-0.54,-0.54,-0.54
263.19,2.51,3.05,2.51,3.05,-3.04,-3.15,-3.34,-0.53,-0.53,-0.53
265.82,2.51,3.04,2.51,3.03,-3.03,-3.12,-3.33,-0.52,-0.52,-0.52
268.48,2.51,3.02,2.51,3.02,-3.02,-3.08,-3.30,-0.50,-0.50,-0.50
271.16,2.51,3.00,2.51,3.00,-3.00,-3.04,-3.27,-0.49,-0.49,-0.48
273.87,2.51,2.99,2.51,2.98,-2.99,-3.00,-3.24,-0.47,-0.47,-0.47
276.61,2.51,2.96,2.51,2.97,-2.97,-2.96,-3.21,-0.46,-0.46,-0.44
279.38,2.51,2.96,2.51,2.95,-2.96,-2.91,-3.17,-0.44,-0.44,-0.44
282.17,2.51,2.94,2.51,2.94,-2.94,-2.87,-3.13,-0.43,-0.43,-0.42
284.99,2.51,2.93,2.52,2.93,-2.93,-2.83,-3.09,-0.42,-0.41,-0.41
287.84,2.52,2.92,2.52,2.92,-2.92,-2.78,-3.04,-0.40,-0.40,-0.39
290.72,2.53,2.91,2.53,2.91,-2.91,-2.74,-3.00,-0.37,-0.38,-0.37
293.63,2.53,2.90,2.54,2.89,-2.89,-2.69,-2.95,-0.36,-0.35,-0.36
296.57,2.53,2.87,2.53,2.87,-2.87,-2.65,-2.90,-0.33,-0.33,-0.33
299.53,2.52,2.85,2.52,2.85,-2.84,-2.60,-2.85,-0.31,-0.32,-0.32
302.53,2.50,2.82,2.51,2.81,-2.80,-2.56,-2.80,-0.30,-0.30,-0.31
305.55,2.48,2.77,2.48,2.77,-2.76,-2.52,-2.76,-0.28,-0.28,-0.28
308.61,2.45,2.72,2.46,2.72,-2.71,-2.48,-2.71,-0.26,-0.26,-0.26
311.69,2.42,2.66,2.43,2.66,-2.66,-2.44,-2.66,-0.24,-0.24,-0.23
314.81,2.40,2.60,2.40,2.60,-2.61,-2.40,-2.61,-0.21,-0.21,-0.19
317.96,2.36,2.55,2.37,2.55,-2.55,-2.36,-2.56,-0.19,-0.19,-0.18
321.14,2.33,2.50,2.33,2.50,-2.50,-2.33,-2.52,-0.16,-0.16,-0.16
324.35,2.30,2.45,2.30,2.45,-2.44,-2.29,-2.48,-0.14,-0.14,-0.14
327.59,2.26,2.39,2.27,2.39,-2.39,-2.26,-2.43,-0.12,-0.12,-0.12
330.87,2.24,2.35,2.24,2.34,-2.34,-2.22,-2.39,-0.09,-0.10,-0.10
334.18,2.21,2.29,2.21,2.29,-2.29,-2.19,-2.35,-0.08,-0.08,-0.07
337.52,2.18,2.24,2.19,2.24,-2.25,-2.16,-2.31,-0.07,-0.06,-0.05
340.90,2.17,2.21,2.17,2.20,-2.21,-2.14,-2.27,-0.04,-0.04,-0.03
344.30,2.16,2.17,2.16,2.17,-2.18,-2.11,-2.24,-0.02,-0.02,-0.00
347.75,2.16,2.15,2.17,2.15,-2.15,-2.08,-2.21,0.01,0.02,0.02
351.23,2.17,2.13,2.17,2.13,-2.13,-2.06,-2.17,0.05,0.05,0.05
354.74,2.18,2.11,2.18,2.11,-2.10,-2.03,-2.14,0.08,0.08,0.08
358.28,2.18,2.10,2.18,2.09,-2.08,-2.01,-2.12,0.10,0.10,0.09
361.87,2.18,2.07,2.18,2.07,-2.06,-1.99,-2.09,0.12,0.12,0.12
365.49,2.18,2.04,2.18,2.05,-2.04,-1.97,-2.06,0.14,0.14,0.15
369.14,2.18,2.03,2.18,2.02,-2.02,-1.95,-2.04,0.16,0.16,0.16
372.83,2.18,2.00,2.18,2.00,-2.00,-1.93,-2.02,0.18,0.18,0.19
376.56,2.18,1.98,2.18,1.98,-1.98,-1.91,-2.00,0.21,0.21,0.21
380.33,2.18,1.95,2.18,1.95,-1.96,-1.89,-1.98,0.23,0.23,0.24
384.13,2.18,1.94,2.18,1.94,-1.93,-1.88,-1.97,0.25,0.25,0.25
387.97,2.18,1.92,2.18,1.92,-1.92,-1.86,-1.95,0.27,0.27,0.27
391.85,2.18,1.91,2.18,1.90,-1.90,-1.85,-1.94,0.29,0.29,0.28
395.77,2.18,1.88,2.18,1.88,-1.88,-1.83,-1.92,0.30,0.30,0.31
399.73,2.18,1.87,2.18,1.87,-1.87,-1.82,-1.91,0.31,0.31,0.32
403.72,2.18,1.87,2.18,1.86,-1.87,-1.81,-1.90,0.32,0.32,0.32
407.76,2.18,1.86,2.18,1.86,-1.86,-1.79,-1.89,0.32,0.32,0.33
411.84,2.18,1.85,2.19,1.86,-1.86,-1.78,-1.89,0.32,0.32,0.34
415.96,2.19,1.87,2.19,1.86,-1.87,-1.77,-1.88,0.33,0.33,0.33
420.12,2.19,1.87,2.20,1.87,-1.87,-1.76,-1.87,0.32,0.33,0.33
424.32,2.20,1.88,2.20,1.88,-1.88,-1.74,-1.87,0.33,0.33,0.33
428.56,2.20,1.88,2.20,1.88,-1.88,-1.73,-1.86,0.32,0.32,0.33
432.85,2.20,1.89,2.21,1.89,-1.88,-1.72,-1.86,0.32,0.32,0.32
437.18,2.20,1.89,2.20,1.89,-1.88,-1.71,-1.85,0.32,0.32,0.32
441.55,2.19,1.88,2.19,1.88,-1.87,-1.70,-1.84,0.32,0.32,0.32
445.96,2.17,1.87,2.17,1.86,-1.86,-1.69,-1.84,0.32,0.32,0.31
450.42,2.14,1.84,2.15,1.84,-1.84,-1.68,-1.83,0.31,0.31,0.31
454.93,2.12,1.82,2.12,1.82,-1.81,-1.67,-1.83,0.31,0.30,0.31
459.48,2.08,1.79,2.09,1.78,-1.78,-1.66,-1.82,0.30,0.30,0.30
464.07,2.05,1.75,2.05,1.75,-1.75,-1.65,-1.81,0.30,0.30,0.31
468.71,2.02,1.72,2.02,1.72,-1.72,-1.63,-1.80,0.31,0.30,0.31
473.40,1.98,1.69,1.99,1.68,-1.68,-1.62,-1.79,0.30,0.30,0.30
478.13,1.95,1.65,1.95,1.65,-1.65,-1.61,-1.78,0.30,0.30,0.31
482.91,1.92,1.63,1.93,1.62,-1.63,-1.60,-1.76,0.30,0.30,0.30
487.74,1.90,1.60,1.90,1.60,-1.60,-1.59,-1.75,0.30,0.30,0.31
492.62,1.88,1.57,1.88,1.57,-1.58,-1.58,-1.73,0.30,0.30,0.32
497.55,1.86,1.56,1.87,1.56,-1.57,-1.56,-1.71,0.30,0.30,0.31
502.52,1.86,1.55,1.86,1.55,-1.56,-1.55,-1.69,0.31,0.31,0.32
507.55,1.86,1.55,1.87,1.55,-1.55,-1.54,-1.67,0.32,0.32,0.32
512.62,1.87,1.55,1.87,1.54,-1.54,-1.52,-1.65,0.34,0.33,0.33
