frequency,raw,error,smoothed,error_smoothed,equalization,parametric_eq,fixed_band_eq,equalized_raw,equalized_smoothed,target
20.00,5.50,-2.04,5.50,-2.06,2.06,0.91,-0.44,7.57,7.56,7.54
20.20,5.57,-1.97,5.57,-1.99,1.99,0.93,-0.45,7.56,7.55,7.54
20.40,5.63,-1.91,5.64,-1.91,1.91,0.94,-0.47,7.54,7.55,7.54
20.61,5.70,-1.84,5.71,-1.83,1.83,0.95,-0.48,7.53,7.54,7.54
20.81,5.78,-1.76,5.78,-1.75,1.75,0.94,-0.49,7.53,7.53,7.54
21.02,5.84,-1.70,5.85,-1.67,1.67,0.92,-0.51,7.51,7.52,7.54
21.23,5.92,-1.60,5.92,-1.58,1.58,0.89,-0.52,7.51,7.50,7.52
21.44,5.99,-1.52,5.99,-1.50,1.50,0.85,-0.54,7.49,7.49,7.51
21.66,6.06,-1.43,6.06,-1.42,1.42,0.80,-0.55,7.48,7.48,7.49
21.87,6.13,-1.34,6.13,-1.33,1.33,0.74,-0.57,7.46,7.46,7.47
22.09,6.20,-1.26,6.20,-1.24,1.24,0.68,-0.58,7.44,7.45,7.46
22.31,6.27,-1.16,6.28,-1.15,1.15,0.61,-0.60,7.43,7.43,7.43
22.54,6.34,-1.07,6.35,-1.06,1.06,0.53,-0.61,7.40,7.41,7.41
22.76,6.42,-0.97,6.42,-0.96,0.96,0.46,-0.63,7.39,7.38,7.39
22.99,6.49,-0.87,6.49,-0.87,0.87,0.38,-0.65,7.36,7.36,7.36
23.22,6.56,-0.77,6.57,-0.77,0.77,0.31,-0.67,7.34,7.34,7.33
23.45,6.64,-0.66,6.64,-0.68,0.68,0.23,-0.69,7.32,7.32,7.30
23.69,6.71,-0.58,6.71,-0.59,0.59,0.16,-0.71,7.30,7.30,7.29
23.92,6.79,-0.48,6.78,-0.49,0.49,0.09,-0.73,7.29,7.28,7.27
24.16,6.86,-0.40,6.86,-0.40,0.40,0.02,-0.74,7.26,7.26,7.26
24.40,6.92,-0.32,6.93,-0.31,0.31,-0.05,-0.76,7.23,7.24,7.24
24.65,7.00,-0.22,7.00,-0.22,0.22,-0.11,-0.79,7.22,7.22,7.22
24.89,7.07,-0.13,7.07,-0.13,0.13,-0.17,-0.81,7.20,7.20,7.20
25.14,7.14,-0.05,7.15,-0.04,0.04,-0.22,-0.83,7.18,7.18,7.19
25.39,7.21,0.04,7.22,0.05,-0.05,-0.28,-0.85,7.16,7.17,7.17
25.65,7.29,0.13,7.29,0.14,-0.14,-0.33,-0.87,7.15,7.15,7.16
25.91,7.36,0.23,7.36,0.23,-0.23,-0.38,-0.89,7.13,7.14,7.13
26.16,7.43,0.31,7.44,0.32,-0.32,-0.42,-0.91,7.12,7.12,7.12
26.43,7.51,0.40,7.51,0.40,-0.40,-0.47,-0.94,7.11,7.10,7.11
26.69,7.58,0.50,7.58,0.49,-0.49,-0.51,-0.96,7.09,7.09,7.08
26.96,7.65,0.58,7.65,0.58,-0.58,-0.55,-0.98,7.07,7.07,7.07
27.23,7.73,0.67,7.73,0.67,-0.67,-0.59,-1.00,7.06,7.06,7.06
27.50,7.79,0.74,7.80,0.76,-0.76,-0.63,-1.03,7.04,7.04,7.05
27.77,7.87,0.84,7.87,0.84,-0.84,-0.66,-1.05,7.03,7.03,7.03
28.05,7.94,0.92,7.94,0.92,-0.92,-0.70,-1.07,7.02,7.02,7.02
28.33,8.00,1.00,8.01,1.01,-1.01,-0.73,-1.09,7.00,7.00,7.00
28.62,8.07,1.08,8.08,1.09,-1.09,-0.77,-1.11,6.98,6.99,6.99
28.90,8.14,1.17,8.14,1.17,-1.17,-0.80,-1.13,6.98,6.98,6.97
29.19,8.20,1.25,8.21,1.24,-1.24,-0.83,-1.15,6.96,6.96,6.95
29.48,8.27,1.32,8.27,1.32,-1.32,-0.86,-1.17,6.95,6.95,6.95
29.78,8.33,1.39,8.33,1.39,-1.39,-0.89,-1.19,6.94,6.94,6.94
30.08,8.39,1.46,8.38,1.46,-1.46,-0.91,-1.21,6.93,6.92,6.93
30.38,8.43,1.52,8.44,1.53,-1.53,-0.94,-1.23,6.90,6.91,6.91
30.68,8.49,1.59,8.49,1.60,-1.60,-0.97,-1.25,6.90,6.89,6.90
30.99,8.54,1.67,8.53,1.66,-1.66,-1.00,-1.27,6.88,6.88,6.87
31.30,8.58,1.72,8.58,1.72,-1.72,-1.02,-1.28,6.86,6.86,6.86
31.61,8.63,1.78,8.62,1.78,-1.78,-1.05,-1.30,6.85,6.84,6.85
31.93,8.66,1.83,8.66,1.84,-1.84,-1.08,-1.31,6.82,6.82,6.83
32.24,8.69,1.89,8.70,1.90,-1.90,-1.10,-1.33,6.80,6.80,6.80
32.57,8.73,1.95,8.74,1.95,-1.95,-1.13,-1.34,6.78,6.78,6.78
32.89,8.76,1.99,8.77,2.01,-2.01,-1.15,-1.36,6.76,6.76,6.77
33.22,8.80,2.06,8.80,2.06,-2.06,-1.17,-1.37,6.75,6.74,6.74
33.55,8.82,2.09,8.83,2.11,-2.11,-1.20,-1.39,6.72,6.72,6.73
33.89,8.85,2.15,8.86,2.15,-2.15,-1.22,-1.40,6.70,6.70,6.70
34.23,8.88,2.20,8.88,2.20,-2.20,-1.25,-1.41,6.68,6.68,6.68
34.57,8.91,2.25,8.90,2.24,-2.24,-1.27,-1.43,6.67,6.66,6.66
34.92,8.93,2.29,8.93,2.29,-2.29,-1.30,-1.44,6.65,6.64,6.64
35.27,8.95,2.33,8.95,2.33,-2.33,-1.32,-1.45,6.62,6.62,6.62
35.62,8.97,2.37,8.97,2.37,-2.37,-1.34,-1.46,6.61,6.60,6.60
35.97,8.98,2.40,8.98,2.41,-2.41,-1.37,-1.48,6.58,6.58,6.58
36.33,9.00,2.44,9.00,2.44,-2.44,-1.39,-1.49,6.56,6.56,6.56
36.70,9.00,2.46,9.01,2.48,-2.48,-1.41,-1.51,6.53,6.54,6.54
37.06,9.02,2.50,9.03,2.51,-2.51,-1.44,-1.52,6.51,6.52,6.52
37.43,9.03,2.53,9.04,2.54,-2.54,-1.46,-1.54,6.49,6.50,6.50
37.81,9.04,2.56,9.05,2.57,-2.57,-1.48,-1.55,6.47,6.47,6.48
38.19,9.06,2.61,9.05,2.60,-2.60,-1.51,-1.57,6.46,6.45,6.45
38.57,9.06,2.62,9.06,2.63,-2.63,-1.53,-1.59,6.43,6.43,6.44
38.95,9.07,2.66,9.07,2.66,-2.66,-1.55,-1.61,6.42,6.41,6.41
39.34,9.08,2.69,9.07,2.68,-2.68,-1.58,-1.63,6.40,6.39,6.39
39.74,9.08,2.71,9.08,2.71,-2.71,-1.60,-1.65,6.38,6.38,6.37
40.14,9.08,2.72,9.09,2.73,-2.73,-1.62,-1.67,6.35,6.36,6.36
40.54,9.08,2.74,9.09,2.75,-2.75,-1.65,-1.69,6.33,6.34,6.34
40.94,9.09,2.77,9.10,2.78,-2.78,-1.67,-1.72,6.32,6.32,6.32
41.35,9.09,2.80,9.10,2.80,-2.80,-1.69,-1.74,6.30,6.30,6.29
41.76,9.10,2.81,9.10,2.82,-2.82,-1.72,-1.77,6.28,6.28,6.29
42.18,9.10,2.83,9.10,2.84,-2.84,-1.74,-1.80,6.26,6.26,6.27
42.60,9.10,2.85,9.10,2.86,-2.86,-1.76,-1.83,6.24,6.24,6.25
43.03,9.10,2.86,9.10,2.88,-2.88,-1.79,-1.86,6.22,6.23,6.24
43.46,9.10,2.89,9.10,2.90,-2.90,-1.81,-1.89,6.21,6.21,6.21
43.90,9.11,2.92,9.10,2.91,-2.91,-1.83,-1.93,6.20,6.19,6.19
44.33,9.10,2.93,9.10,2.93,-2.93,-1.86,-1.96,6.17,6.17,6.17
44.78,9.09,2.94,9.10,2.95,-2.95,-1.88,-2.00,6.15,6.15,6.15
45.23,9.09,2.97,9.09,2.96,-2.96,-1.90,-2.04,6.13,6.13,6.12
45.68,9.08,2.98,9.09,2.97,-2.97,-1.93,-2.08,6.11,6.11,6.10
46.13,9.08,2.99,9.08,2.99,-2.99,-1.95,-2.12,6.10,6.09,6.09
46.60,9.07,2.99,9.07,3.00,-3.00,-1.97,-2.16,6.07,6.07,6.08
47.06,9.06,3.00,9.06,3.01,-3.01,-2.00,-2.21,6.05,6.05,6.06
47.53,9.05,3.01,9.05,3.02,-3.02,-2.02,-2.25,6.03,6.03,6.04
48.01,9.04,3.01,9.04,3.03,-3.03,-2.04,-2.30,6.01,6.01,6.03
48.49,9.03,3.03,9.03,3.04,-3.04,-2.07,-2.34,6.00,5.99,6.00
48.97,9.01,3.04,9.01,3.04,-3.04,-2.09,-2.39,5.97,5.97,5.97
49.46,8.99,3.05,9.00,3.05,-3.05,-2.11,-2.44,5.94,5.95,5.94
49.96,8.97,3.06,8.98,3.05,-3.05,-2.14,-2.49,5.92,5.92,5.91
50.46,8.96,3.06,8.96,3.06,-3.06,-2.16,-2.54,5.90,5.90,5.90
50.96,8.94,3.06,8.94,3.06,-3.06,-2.18,-2.60,5.88,5.88,5.88
51.47,8.92,3.07,8.92,3.07,-3.07,-2.20,-2.65,5.85,5.85,5.85
51.99,8.90,3.07,8.90,3.07,-3.07,-2.23,-2.70,5.83,5.83,5.83
52.51,8.88,3.07,8.88,3.07,-3.07,-2.25,-2.75,5.81,5.81,5.81
53.03,8.85,3.06,8.86,3.07,-3.07,-2.27,-2.80,5.78,5.78,5.79
53.56,8.83,3.07,8.83,3.08,-3.08,-2.30,-2.85,5.76,5.76,5.76
54.10,8.81,3.07,8.81,3.07,-3.07,-2.32,-2.90,5.74,5.73,5.74
54.64,8.78,3.07,8.78,3.07,-3.07,-2.34,-2.95,5.71,5.71,5.71
55.18,8.75,3.06,8.76,3.07,-3.07,-2.37,-3.00,5.68,5.69,5.69
55.74,8.73,3.07,8.73,3.07,-3.07,-2.39,-3.05,5.67,5.67,5.66
56.29,8.70,3.06,8.70,3.06,-3.06,-2.41,-3.09,5.64,5.64,5.64
56.86,8.67,3.06,8.68,3.06,-3.06,-2.43,-3.14,5.61,5.62,5.61
57.42,8.65,3.06,8.65,3.05,-3.05,-2.46,-3.18,5.60,5.59,5.59
58.00,8.62,3.05,8.62,3.05,-3.05,-2.48,-3.21,5.57,5.57,5.57
58.58,8.58,3.04,8.59,3.05,-3.05,-2.50,-3.25,5.54,5.54,5.54
59.16,8.56,3.04,8.56,3.04,-3.04,-2.52,-3.28,5.52,5.51,5.52
59.76,8.52,3.02,8.52,3.04,-3.04,-2.55,-3.30,5.49,5.49,5.50
60.35,8.49,3.02,8.49,3.03,-3.03,-2.57,-3.33,5.46,5.46,5.47
60.96,8.45,3.00,8.46,3.02,-3.02,-2.59,-3.35,5.43,5.44,5.45
61.57,8.42,3.01,8.42,3.01,-3.01,-2.61,-3.36,5.41,5.41,5.41
62.18,8.39,3.01,8.39,3.00,-3.00,-2.64,-3.38,5.39,5.38,5.38
62.80,8.35,3.00,8.35,2.99,-2.99,-2.66,-3.38,5.36,5.36,5.35
63.43,8.31,2.99,8.31,2.98,-2.98,-2.68,-3.39,5.33,5.33,5.32
64.07,8.27,2.98,8.27,2.97,-2.97,-2.70,-3.39,5.30,5.30,5.29
64.71,8.23,2.96,8.23,2.95,-2.95,-2.72,-3.39,5.28,5.28,5.27
65.35,8.18,2.93,8.19,2.94,-2.94,-2.74,-3.38,5.24,5.25,5.25
66.01,8.14,2.91,8.15,2.92,-2.92,-2.76,-3.37,5.22,5.22,5.23
66.67,8.10,2.90,8.10,2.90,-2.90,-2.79,-3.35,5.20,5.20,5.20
67.33,8.06,2.88,8.06,2.88,-2.88,-2.81,-3.33,5.18,5.18,5.18
68.01,8.01,2.86,8.01,2.86,-2.86,-2.83,-3.31,5.15,5.15,5.15
68.69,7.97,2.84,7.97,2.84,-2.84,-2.85,-3.29,5.13,5.12,5.13
69.37,7.91,2.81,7.92,2.82,-2.82,-2.87,-3.27,5.09,5.10,5.10
70.07,7.87,2.80,7.87,2.80,-2.80,-2.89,-3.24,5.08,5.07,5.07
70.77,7.82,2.77,7.82,2.78,-2.78,-2.91,-3.21,5.05,5.04,5.05
71.48,7.77,2.75,7.77,2.75,-2.75,-2.93,-3.18,5.02,5.01,5.02
72.19,7.71,2.72,7.72,2.73,-2.73,-2.95,-3.15,4.98,4.98,4.99
72.91,7.66,2.71,7.66,2.71,-2.71,-2.97,-3.12,4.95,4.95,4.95
73.64,7.60,2.68,7.61,2.69,-2.69,-2.99,-3.08,4.91,4.92,4.92
74.38,7.55,2.66,7.55,2.67,-2.67,-3.01,-3.05,4.89,4.88,4.89
75.12,7.50,2.66,7.49,2.64,-2.64,-3.03,-3.02,4.86,4.85,4.84
75.87,7.44,2.63,7.43,2.62,-2.62,-3.04,-2.99,4.82,4.81,4.81
76.63,7.37,2.59,7.38,2.60,-2.60,-3.06,-2.95,4.77,4.77,4.78
77.40,7.31,2.57,7.32,2.58,-2.58,-3.08,-2.92,4.73,4.73,4.74
78.17,7.25,2.57,7.26,2.56,-2.56,-3.10,-2.89,4.69,4.69,4.68
78.95,7.19,2.53,7.19,2.54,-2.54,-3.12,-2.86,4.65,4.65,4.66
79.74,7.13,2.51,7.13,2.52,-2.52,-3.14,-2.84,4.61,4.61,4.62
80.54,7.06,2.49,7.07,2.50,-2.50,-3.15,-2.81,4.56,4.57,4.57
81.35,7.01,2.48,7.01,2.48,-2.48,-3.17,-2.79,4.53,4.53,4.53
82.16,6.95,2.47,6.95,2.47,-2.47,-3.19,-2.76,4.49,4.48,4.48
82.98,6.89,2.45,6.89,2.45,-2.45,-3.20,-2.74,4.44,4.44,4.44
83.81,6.83,2.45,6.82,2.43,-2.43,-3.22,-2.72,4.40,4.39,4.38
84.65,6.76,2.42,6.76,2.42,-2.42,-3.24,-2.70,4.34,4.34,4.34
85.50,6.70,2.40,6.70,2.41,-2.41,-3.25,-2.69,4.29,4.29,4.30
86.35,6.64,2.39,6.64,2.40,-2.40,-3.27,-2.67,4.25,4.25,4.25
87.22,6.57,2.37,6.58,2.38,-2.38,-3.29,-2.66,4.19,4.20,4.20
88.09,6.52,2.38,6.52,2.38,-2.38,-3.30,-2.65,4.15,4.15,4.14
88.97,6.46,2.36,6.46,2.37,-2.37,-3.32,-2.64,4.10,4.10,4.10
89.86,6.40,2.35,6.41,2.36,-2.36,-3.33,-2.64,4.04,4.05,4.05
90.76,6.35,2.36,6.35,2.36,-2.36,-3.35,-2.63,4.00,3.99,3.99
91.66,6.29,2.35,6.29,2.35,-2.35,-3.36,-2.63,3.94,3.94,3.94
92.58,6.24,2.36,6.24,2.35,-2.35,-3.37,-2.63,3.89,3.89,3.88
93.51,6.18,2.34,6.19,2.36,-2.36,-3.39,-2.63,3.83,3.83,3.84
94.44,6.14,2.35,6.14,2.36,-2.36,-3.40,-2.64,3.78,3.78,3.79
95.39,6.09,2.36,6.09,2.37,-2.37,-3.41,-2.64,3.72,3.72,3.73
96.34,6.04,2.38,6.04,2.38,-2.38,-3.43,-2.65,3.66,3.66,3.66
97.30,5.99,2.38,6.00,2.39,-2.39,-3.44,-2.66,3.60,3.61,3.61
98.28,5.95,2.40,5.95,2.40,-2.40,-3.45,-2.67,3.55,3.55,3.55
99.26,5.90,2.42,5.91,2.42,-2.42,-3.46,-2.69,3.48,3.49,3.48
100.25,5.86,2.43,5.86,2.44,-2.44,-3.48,-2.70,3.43,3.43,3.43
101.25,5.82,2.45,5.82,2.45,-2.45,-3.49,-2.72,3.37,3.37,3.37
102.27,5.78,2.48,5.78,2.48,-2.48,-3.50,-2.73,3.30,3.30,3.30
103.29,5.74,2.51,5.74,2.50,-2.50,-3.51,-2.75,3.24,3.24,3.23
104.32,5.70,2.52,5.70,2.53,-2.53,-3.52,-2.77,3.17,3.18,3.18
105.37,5.67,2.55,5.67,2.55,-2.55,-3.53,-2.79,3.12,3.11,3.12
106.42,5.62,2.57,5.63,2.58,-2.58,-3.54,-2.81,3.04,3.05,3.05
107.48,5.59,2.61,5.60,2.62,-2.62,-3.55,-2.83,2.98,2.98,2.98
108.56,5.56,2.65,5.56,2.65,-2.65,-3.56,-2.85,2.91,2.91,2.91
109.64,5.53,2.68,5.53,2.69,-2.69,-3.57,-2.87,2.85,2.85,2.85
110.74,5.50,2.71,5.50,2.72,-2.72,-3.58,-2.89,2.78,2.78,2.79
111.85,5.47,2.75,5.47,2.76,-2.76,-3.58,-2.91,2.71,2.71,2.72
112.97,5.44,2.80,5.45,2.80,-2.80,-3.59,-2.94,2.64,2.64,2.64
114.10,5.41,2.83,5.42,2.84,-2.84,-3.60,-2.95,2.57,2.58,2.58
115.24,5.39,2.88,5.39,2.88,-2.88,-3.61,-2.97,2.51,2.51,2.51
116.39,5.37,2.93,5.37,2.92,-2.92,-3.61,-2.99,2.45,2.44,2.44
117.55,5.34,2.97,5.34,2.96,-2.96,-3.62,-3.01,2.38,2.38,2.37
118.73,5.31,3.00,5.32,3.00,-3.00,-3.63,-3.02,2.31,2.31,2.31
119.92,5.29,3.04,5.29,3.04,-3.04,-3.63,-3.03,2.25,2.25,2.25
121.12,5.26,3.07,5.27,3.08,-3.08,-3.64,-3.05,2.19,2.19,2.19
122.33,5.23,3.11,5.24,3.11,-3.11,-3.64,-3.06,2.12,2.13,2.12
123.55,5.21,3.14,5.21,3.15,-3.15,-3.65,-3.06,2.06,2.06,2.07
124.79,5.18,3.17,5.18,3.18,-3.18,-3.65,-3.07,2.01,2.00,2.01
126.03,5.15,3.19,5.15,3.20,-3.20,-3.66,-3.07,1.95,1.95,1.96
127.29,5.12,3.22,5.12,3.23,-3.23,-3.66,-3.08,1.90,1.89,1.90
128.57,5.08,3.25,5.08,3.25,-3.25,-3.66,-3.08,1.84,1.83,1.83
129.85,5.05,3.27,5.04,3.26,-3.26,-3.66,-3.08,1.79,1.78,1.78
131.15,5.00,3.27,5.00,3.27,-3.27,-3.67,-3.07,1.73,1.73,1.73
132.46,4.96,3.29,4.96,3.28,-3.28,-3.67,-3.07,1.68,1.68,1.67
133.79,4.91,3.28,4.91,3.28,-3.28,-3.67,-3.06,1.63,1.63,1.63
135.12,4.86,3.29,4.86,3.28,-3.28,-3.67,-3.06,1.58,1.58,1.57
136.48,4.80,3.26,4.81,3.27,-3.27,-3.67,-3.05,1.53,1.54,1.54
137.84,4.75,3.25,4.75,3.26,-3.26,-3.67,-3.04,1.50,1.50,1.50
139.22,4.69,3.24,4.69,3.23,-3.23,-3.67,-3.03,1.46,1.46,1.45
140.61,4.63,3.22,4.62,3.20,-3.20,-3.67,-3.02,1.43,1.42,1.41
142.02,4.57,3.18,4.55,3.17,-3.17,-3.67,-3.01,1.40,1.39,1.39
143.44,4.50,3.14,4.48,3.13,-3.13,-3.67,-3.00,1.37,1.35,1.36
144.87,4.42,3.10,4.40,3.08,-3.08,-3.67,-2.99,1.34,1.32,1.32
146.32,4.35,3.06,4.32,3.03,-3.03,-3.67,-2.98,1.32,1.29,1.29
147.78,4.27,3.00,4.25,2.98,-2.98,-3.66,-2.97,1.29,1.26,1.27
149.26,4.19,2.95,4.17,2.93,-2.93,-3.66,-2.96,1.26,1.23,1.24
150.75,4.10,2.90,4.09,2.89,-2.89,-3.66,-2.95,1.21,1.21,1.20
152.26,4.02,2.84,4.02,2.85,-2.85,-3.65,-2.95,1.17,1.18,1.18
153.78,3.95,2.80,3.96,2.81,-2.81,-3.65,-2.94,1.14,1.15,1.15
155.32,3.89,2.76,3.91,2.79,-2.79,-3.64,-2.94,1.10,1.12,1.13
156.88,3.84,2.74,3.88,2.78,-2.78,-3.64,-2.94,1.06,1.10,1.10
158.44,3.81,2.74,3.85,2.79,-2.79,-3.63,-2.94,1.03,1.07,1.07
160.03,3.80,2.76,3.85,2.81,-2.81,-3.62,-2.94,1.00,1.04,1.04
161.63,3.81,2.80,3.86,2.84,-2.84,-3.62,-2.95,0.97,1.01,1.01
163.24,3.84,2.86,3.89,2.90,-2.90,-3.61,-2.95,0.94,0.99,0.98
164.88,3.89,2.93,3.93,2.97,-2.97,-3.60,-2.96,0.92,0.96,0.96
166.53,3.96,3.02,3.99,3.06,-3.06,-3.59,-2.97,0.90,0.93,0.94
168.19,4.04,3.14,4.06,3.16,-3.16,-3.59,-2.98,0.88,0.90,0.90
169.87,4.12,3.25,4.14,3.27,-3.27,-3.58,-3.00,0.85,0.87,0.87
171.57,4.22,3.38,4.22,3.39,-3.39,-3.57,-3.02,0.84,0.84,0.84
173.29,4.32,3.50,4.31,3.51,-3.51,-3.56,-3.04,0.81,0.80,0.82
175.02,4.42,3.64,4.40,3.63,-3.63,-3.54,-3.06,0.79,0.77,0.78
176.77,4.51,3.77,4.49,3.75,-3.75,-3.53,-3.08,0.76,0.74,0.74
178.54,4.59,3.89,4.56,3.86,-3.86,-3.52,-3.11,0.73,0.70,0.70
180.32,4.66,3.99,4.63,3.96,-3.96,-3.51,-3.14,0.70,0.67,0.67
182.13,4.72,4.08,4.69,4.05,-4.05,-3.49,-3.17,0.67,0.63,0.64
183.95,4.76,4.16,4.73,4.13,-4.13,-3.48,-3.21,0.63,0.60,0.60
185.79,4.79,4.23,4.76,4.20,-4.20,-3.47,-3.24,0.60,0.56,0.56
187.65,4.81,4.29,4.78,4.24,-4.24,-3.45,-3.28,0.57,0.53,0.52
189.52,4.79,4.30,4.78,4.28,-4.28,-3.43,-3.32,0.51,0.50,0.49
191.42,4.79,4.32,4.77,4.30,-4.30,-3.42,-3.36,0.49,0.47,0.47
193.33,4.76,4.31,4.75,4.31,-4.31,-3.40,-3.41,0.45,0.44,0.45
195.27,4.72,4.30,4.72,4.31,-4.31,-3.38,-3.46,0.41,0.41,0.42
197.22,4.67,4.28,4.69,4.30,-4.30,-3.36,-3.50,0.37,0.38,0.39
199.19,4.63,4.29,4.64,4.29,-4.29,-3.35,-3.55,0.35,0.36,0.34
201.18,4.59,4.26,4.60,4.26,-4.26,-3.33,-3.60,0.33,0.33,0.33
203.19,4.53,4.22,4.55,4.24,-4.24,-3.31,-3.65,0.30,0.31,0.31
205.23,4.48,4.19,4.50,4.21,-4.21,-3.28,-3.71,0.27,0.29,0.29
207.28,4.43,4.15,4.45,4.18,-4.18,-3.26,-3.76,0.25,0.27,0.28
209.35,4.38,4.13,4.40,4.15,-4.15,-3.24,-3.81,0.23,0.25,0.25
211.44,4.34,4.11,4.35,4.12,-4.12,-3.22,-3.86,0.22,0.23,0.23
213.56,4.29,4.08,4.30,4.09,-4.09,-3.19,-3.91,0.20,0.21,0.21
215.69,4.25,4.04,4.26,4.06,-4.06,-3.17,-3.96,0.19,0.20,0.21
217.85,4.21,4.01,4.22,4.03,-4.03,-3.14,-4.01,0.18,0.19,0.20
220.03,4.17,4.00,4.18,4.00,-4.00,-3.11,-4.05,0.17,0.18,0.17
222.23,4.14,3.98,4.14,3.97,-3.97,-3.09,-4.09,0.17,0.17,0.16
224.45,4.11,3.94,4.11,3.94,-3.94,-3.06,-4.13,0.17,0.17,0.17
226.70,4.07,3.91,4.07,3.91,-3.91,-3.03,-4.16,0.16,0.16,0.16
228.96,4.04,3.88,4.04,3.88,-3.88,-3.00,-4.19,0.16,0.16,0.16
231.25,4.01,3.84,4.01,3.85,-3.85,-2.97,-4.21,0.16,0.17,0.17
233.57,3.98,3.80,3.98,3.81,-3.81,-2.94,-4.23,0.17,0.17,0.18
235.90,3.95,3.77,3.96,3.78,-3.78,-2.91,-4.24,0.18,0.18,0.18
238.26,3.93,3.75,3.93,3.74,-3.74,-2.87,-4.25,0.19,0.19,0.18
240.64,3.90,3.70,3.90,3.70,-3.70,-2.84,-4.25,0.20,0.20,0.20
243.05,3.88,3.66,3.87,3.66,-3.66,-2.80,-4.24,0.23,0.22,0.22
245.48,3.84,3.60,3.85,3.61,-3.61,-2.77,-4.22,0.23,0.23,0.24
247.93,3.81,3.56,3.82,3.57,-3.57,-2.73,-4.20,0.25,0.25,0.25
250.41,3.79,3.53,3.79,3.52,-3.52,-2.69,-4.16,0.27,0.27,0.26
252.92,3.76,3.46,3.76,3.47,-3.47,-2.65,-4.12,0.29,0.29,0.30
255.45,3.72,3.40,3.73,3.42,-3.42,-2.61,-4.07,0.30,0.31,0.32
258.00,3.70,3.36,3.70,3.37,-3.37,-2.57,-4.02,0.34,0.33,0.34
260.58,3.67,3.31,3.67,3.31,-3.31,-2.52,-3.95,0.36,0.36,0.36
263.19,3.63,3.25,3.63,3.25,-3.25,-2.48,-3.88,0.38,0.38,0.38
265.82,3.60,3.20,3.60,3.19,-3.19,-2.44,-3.80,0.41,0.40,0.40
268.48,3.56,3.13,3.56,3.13,-3.13,-2.39,-3.71,0.43,0.43,0.43
271.16,3.53,3.07,3.53,3.07,-3.07,-2.34,-3.62,0.46,0.45,0.46
273.87,3.48,3.00,3.49,3.01,-3.01,-2.29,-3.52,0.47,0.48,0.48
276.61,3.44,2.93,3.45,2.94,-2.94,-2.24,-3.41,0.50,0.50,0.51
279.38,3.40,2.87,3.40,2.88,-2.88,-2.19,-3.30,0.53,0.53,0.53
282.17,3.35,2.80,3.36,2.81,-2.81,-2.14,-3.19,0.55,0.55,0.55
284.99,3.31,2.73,3.31,2.73,-2.73,-2.09,-3.07,0.58,0.58,0.58
287.84,3.25,2.65,3.26,2.65,-2.65,-2.03,-2.95,0.60,0.61,0.60
290.72,3.21,2.57,3.21,2.57,-2.57,-1.97,-2.82,0.64,0.64,0.64
293.63,3.15,2.49,3.15,2.49,-2.49,-1.92,-2.69,0.67,0.66,0.66
296.57,3.09,2.40,3.09,2.40,-2.40,-1.86,-2.56,0.69,0.69,0.69
299.53,3.03,2.31,3.03,2.31,-2.31,-1.79,-2.42,0.73,0.72,0.72
302.53,2.97,2.23,2.97,2.21,-2.21,-1.73,-2.29,0.76,0.76,0.74
305.55,2.89,2.10,2.90,2.11,-2.11,-1.67,-2.15,0.78,0.79,0.79
308.61,2.83,2.01,2.83,2.01,-2.01,-1.60,-2.01,0.82,0.82,0.82
311.69,2.75,1.89,2.75,1.90,-1.90,-1.54,-1.87,0.85,0.85,0.86
314.81,2.68,1.79,2.68,1.79,-1.79,-1.47,-1.73,0.89,0.88,0.89
317.96,2.59,1.67,2.60,1.68,-1.68,-1.40,-1.59,0.91,0.91,0.92
321.14,2.52,1.57,2.52,1.57,-1.57,-1.32,-1.45,0.95,0.95,0.95
324.35,2.42,1.45,2.43,1.45,-1.45,-1.25,-1.31,0.97,0.98,0.97
327.59,2.34,1.33,2.34,1.34,-1.34,-1.17,-1.16,1.01,1.00,1.01
330.87,2.25,1.21,2.25,1.22,-1.22,-1.10,-1.02,1.04,1.03,1.04
334.18,2.15,1.09,2.15,1.09,-1.09,-1.02,-0.88,1.06,1.06,1.06
337.52,2.06,0.98,2.06,0.97,-0.97,-0.94,-0.74,1.09,1.08,1.08
340.90,1.96,0.85,1.96,0.85,-0.85,-0.85,-0.59,1.11,1.11,1.11
344.30,1.85,0.72,1.85,0.72,-0.72,-0.77,-0.45,1.13,1.13,1.13
347.75,1.75,0.59,1.75,0.60,-0.60,-0.68,-0.31,1.15,1.15,1.16
351.23,1.65,0.47,1.64,0.47,-0.47,-0.60,-0.17,1.18,1.17,1.18
354.74,1.54,0.35,1.54,0.35,-0.35,-0.50,-0.02,1.20,1.19,1.19
358.28,1.42,0.21,1.43,0.22,-0.22,-0.41,0.12,1.21,1.21,1.21
361.87,1.31,0.08,1.32,0.09,-0.09,-0.32,0.26,1.23,1.23,1.23
365.49,1.20,-0.06,1.21,-0.04,0.04,-0.22,0.40,1.25,1.25,1.26
369.14,1.09,-0.18,1.10,-0.17,0.17,-0.12,0.54,1.27,1.27,1.27
372.83,0.98,-0.30,0.98,-0.31,0.31,-0.02,0.69,1.29,1.29,1.28
376.56,0.87,-0.43,0.87,-0.44,0.44,0.08,0.83,1.31,1.31,1.30
380.33,0.76,-0.57,0.76,-0.57,0.57,0.18,0.97,1.33,1.33,1.33
384.13,0.65,-0.70,0.65,-0.70,0.70,0.29,1.11,1.35,1.35,1.35
387.97,0.54,-0.83,0.54,-0.83,0.83,0.40,1.25,1.37,1.37,1.37
391.85,0.43,-0.96,0.43,-0.96,0.96,0.51,1.39,1.39,1.39,1.39
395.77,0.32,-1.10,0.32,-1.09,1.09,0.62,1.53,1.41,1.41,1.42
399.73,0.22,-1.22,0.22,-1.21,1.21,0.73,1.67,1.44,1.43,1.44
403.72,0.11,-1.34,0.11,-1.34,1.34,0.85,1.81,1.45,1.45,1.45
407.76,0.00,-1.47,0.01,-1.47,1.47,0.97,1.95,1.47,1.48,1.47
411.84,-0.11,-1.61,-0.10,-1.59,1.59,1.09,2.09,1.49,1.50,1.50
415.96,-0.20,-1.72,-0.20,-1.72,1.72,1.21,2.22,1.52,1.52,1.52
420.12,-0.30,-1.84,-0.30,-1.84,1.84,1.33,2.36,1.54,1.54,1.54
424.32,-0.40,-1.97,-0.39,-1.96,1.96,1.46,2.49,1.56,1.56,1.57
428.56,-0.49,-2.08,-0.49,-2.08,2.08,1.58,2.62,1.59,1.59,1.59
432.85,-0.59,-2.20,-0.59,-2.20,2.20,1.71,2.75,1.61,1.61,1.61
437.18,-0.68,-2.32,-0.68,-2.32,2.32,1.84,2.87,1.64,1.64,1.64
441.55,-0.77,-2.44,-0.77,-2.43,2.43,1.97,2.99,1.66,1.66,1.67
445.96,-0.87,-2.56,-0.86,-2.55,2.55,2.10,3.11,1.68,1.69,1.69
450.42,-0.95,-2.65,-0.95,-2.67,2.67,2.23,3.22,1.72,1.71,1.70
454.93,-1.05,-2.79,-1.04,-2.78,2.78,2.37,3.33,1.73,1.74,1.74
459.48,-1.13,-2.89,-1.13,-2.90,2.90,2.50,3.43,1.77,1.77,1.76
464.07,-1.22,-3.01,-1.22,-3.01,3.01,2.63,3.53,1.80,1.79,1.79
468.71,-1.31,-3.14,-1.31,-3.13,3.13,2.76,3.62,1.82,1.82,1.83
473.40,-1.39,-3.24,-1.40,-3.25,3.25,2.90,3.70,1.86,1.85,1.85
478.13,-1.48,-3.36,-1.49,-3.37,3.37,3.03,3.78,1.89,1.88,1.88
482.91,-1.57,-3.48,-1.58,-3.49,3.49,3.16,3.85,1.92,1.91,1.91
487.74,-1.65,-3.59,-1.67,-3.61,3.61,3.29,3.91,1.96,1.94,1.94
492.62,-1.73,-3.70,-1.76,-3.72,3.72,3.42,3.97,1.99,1.96,1.97
497.55,-1.82,-3.81,-1.84,-3.83,3.83,3.54,4.02,2.02,1.99,1.99
502.52,-1.91,-3.94,-1.92,-3.94,3.94,3.67,4.06,2.03,2.02,2.03
507.55,-1.99,-4.04,-1.99,-4.04,4.04,3.79,4.09,2.05,2.05,2.05
512.62,-2.07,-4.15,-2.05,-4.13,4.13,3.90,4.12,2.06,2.08,2.08
517.75,-2.13,-4.24,-2.10,-4.20,4.20,4.02,4.14,2.08,2.11,2.11
522.93,-2.19,-4.33,-2.13,-4.27,4.27,4.12,4.15,2.08,2.14,2.14
528.16,-2.21,-4.37,-2.16,-4.32,4.32,4.23,4.15,2.12,2.16,2.16
533.44,-2.22,-4.41,-2.18,-4.37,4.37,4.32,4.15,2.15,2.19,2.19
538.77,-2.23,-4.45,-2.18,-4.40,4.40,4.42,4.15,2.17,2.22,2.22
544.16,-2.20,-4.45,-2.18,-4.42,4.42,4.50,4.13,2.22,2.24,2.25
