frequency,raw,error,smoothed,error_smoothed,equalization,parametric_eq,fixed_band_eq,equalized_raw,equalized_smoothed,target
20.00,-6.46,-11.22,-6.46,-11.23,11.17,11.08,4.44,4.71,4.71,4.76
20.20,-6.40,-11.15,-6.39,-11.15,11.13,11.04,4.55,4.73,4.74,4.75
20.40,-6.34,-11.08,-6.33,-11.08,11.09,10.99,4.67,4.75,4.76,4.74
20.61,-6.28,-11.02,-6.27,-11.01,11.04,10.95,4.79,4.77,4.77,4.74
20.81,-6.22,-10.94,-6.22,-10.95,11.00,10.90,4.92,4.78,4.78,4.72
21.02,-6.17,-10.89,-6.18,-10.90,10.96,10.86,5.05,4.79,4.78,4.72
21.23,-6.16,-10.87,-6.16,-10.88,10.92,10.81,5.18,4.76,4.76,4.71
21.44,-6.16,-10.88,-6.15,-10.87,10.87,10.76,5.32,4.71,4.72,4.72
21.66,-6.15,-10.86,-6.15,-10.86,10.84,10.71,5.46,4.69,4.69,4.71
21.87,-6.14,-10.84,-6.13,-10.84,10.81,10.66,5.61,4.67,4.68,4.70
22.09,-6.11,-10.80,-6.10,-10.79,10.77,10.60,5.76,4.66,4.67,4.69
22.31,-6.04,-10.73,-6.05,-10.74,10.72,10.55,5.91,4.68,4.68,4.69
22.54,-5.98,-10.66,-5.98,-10.66,10.66,10.50,6.06,4.68,4.68,4.68
22.76,-5.91,-10.58,-5.91,-10.58,10.58,10.44,6.22,4.68,4.67,4.67
22.99,-5.84,-10.50,-5.84,-10.50,10.50,10.39,6.39,4.66,4.66,4.66
23.22,-5.76,-10.41,-5.76,-10.42,10.41,10.33,6.56,4.65,4.66,4.65
23.45,-5.67,-10.33,-5.67,-10.32,10.33,10.28,6.73,4.66,4.66,4.66
23.69,-5.58,-10.23,-5.58,-10.23,10.24,10.22,6.91,4.66,4.66,4.65
23.92,-5.49,-10.14,-5.49,-10.15,10.16,10.16,7.09,4.67,4.66,4.65
24.16,-5.42,-10.08,-5.42,-10.08,10.09,10.11,7.27,4.67,4.67,4.66
24.40,-5.36,-10.03,-5.35,-10.02,10.03,10.05,7.46,4.67,4.67,4.67
24.65,-5.30,-9.97,-5.29,-9.97,9.98,9.99,7.65,4.68,4.68,4.67
24.89,-5.24,-9.91,-5.25,-9.92,9.94,9.94,7.85,4.70,4.69,4.67
25.14,-5.22,-9.88,-5.22,-9.89,9.92,9.88,8.04,4.70,4.70,4.66
25.39,-5.22,-9.88,-5.22,-9.88,9.90,9.82,8.24,4.68,4.68,4.66
25.65,-5.22,-9.88,-5.22,-9.89,9.88,9.77,8.45,4.67,4.66,4.66
25.91,-5.22,-9.89,-5.21,-9.88,9.87,9.71,8.65,4.65,4.65,4.67
26.16,-5.19,-9.87,-5.18,-9.86,9.84,9.65,8.86,4.65,4.66,4.68
26.43,-5.13,-9.81,-5.14,-9.82,9.79,9.60,9.06,4.66,4.65,4.68
26.69,-5.08,-9.76,-5.09,-9.77,9.73,9.54,9.27,4.66,4.65,4.68
26.96,-5.03,-9.70,-5.01,-9.69,9.66,9.48,9.48,4.63,4.65,4.67
27.23,-4.92,-9.59,-4.92,-9.59,9.57,9.43,9.68,4.65,4.66,4.67
27.50,-4.80,-9.47,-4.80,-9.48,9.48,9.37,9.88,4.68,4.68,4.67
27.77,-4.69,-9.37,-4.69,-9.36,9.40,9.32,10.08,4.71,4.71,4.68
28.05,-4.58,-9.26,-4.60,-9.27,9.31,9.26,10.27,4.73,4.72,4.68
28.33,-4.54,-9.20,-4.53,-9.21,9.24,9.21,10.45,4.70,4.71,4.66
28.62,-4.50,-9.16,-4.49,-9.16,9.18,9.15,10.62,4.68,4.69,4.66
28.90,-4.46,-9.13,-4.46,-9.13,9.13,9.10,10.78,4.67,4.67,4.67
29.19,-4.43,-9.10,-4.43,-9.10,9.09,9.04,10.93,4.66,4.66,4.67
29.48,-4.40,-9.06,-4.40,-9.07,9.05,8.99,11.07,4.66,4.66,4.66
29.78,-4.36,-9.02,-4.36,-9.03,9.02,8.93,11.18,4.66,4.66,4.66
30.08,-4.33,-9.00,-4.32,-8.99,8.97,8.88,11.29,4.64,4.65,4.67
30.38,-4.28,-8.94,-4.28,-8.94,8.92,8.82,11.37,4.64,4.64,4.66
30.68,-4.24,-8.88,-4.24,-8.89,8.87,8.77,11.43,4.63,4.63,4.64
30.99,-4.19,-8.83,-4.19,-8.83,8.82,8.72,11.47,4.63,4.63,4.64
31.30,-4.13,-8.76,-4.12,-8.75,8.77,8.66,11.49,4.64,4.65,4.63
31.61,-4.06,-8.68,-4.06,-8.68,8.73,8.61,11.48,4.67,4.67,4.62
31.93,-4.00,-8.61,-4.02,-8.63,8.70,8.56,11.46,4.70,4.68,4.61
32.24,-4.01,-8.62,-4.02,-8.63,8.66,8.50,11.41,4.65,4.64,4.61
32.57,-4.04,-8.63,-4.04,-8.64,8.61,8.45,11.35,4.57,4.57,4.59
32.89,-4.08,-8.67,-4.05,-8.64,8.56,8.40,11.26,4.48,4.52,4.59
33.22,-4.01,-8.60,-4.00,-8.59,8.51,8.34,11.16,4.50,4.52,4.59
33.55,-3.90,-8.48,-3.91,-8.50,8.46,8.29,11.04,4.57,4.56,4.58
33.89,-3.79,-8.38,-3.80,-8.39,8.42,8.24,10.91,4.63,4.61,4.59
34.23,-3.73,-8.30,-3.73,-8.30,8.38,8.19,10.77,4.65,4.65,4.57
34.57,-3.69,-8.26,-3.68,-8.26,8.33,8.13,10.62,4.64,4.65,4.57
34.92,-3.66,-8.22,-3.67,-8.23,8.28,8.08,10.46,4.63,4.62,4.56
35.27,-3.67,-8.24,-3.69,-8.25,8.24,8.03,10.29,4.57,4.55,4.57
35.62,-3.71,-8.26,-3.71,-8.26,8.21,7.97,10.12,4.50,4.50,4.55
35.97,-3.74,-8.29,-3.70,-8.25,8.18,7.92,9.94,4.44,4.48,4.55
36.33,-3.64,-8.17,-3.64,-8.17,8.14,7.87,9.76,4.51,4.51,4.53
36.70,-3.54,-8.06,-3.55,-8.07,8.10,7.81,9.58,4.56,4.55,4.52
37.06,-3.45,-7.95,-3.48,-7.99,8.03,7.76,9.40,4.58,4.55,4.50
37.43,-3.46,-7.94,-3.46,-7.95,7.95,7.71,9.23,4.49,4.49,4.48
37.81,-3.47,-7.93,-3.44,-7.90,7.86,7.65,9.05,4.40,4.42,4.46
38.19,-3.41,-7.84,-3.38,-7.82,7.78,7.60,8.87,4.37,4.39,4.43
38.57,-3.29,-7.70,-3.29,-7.70,7.70,7.54,8.70,4.41,4.41,4.41
38.95,-3.16,-7.54,-3.20,-7.58,7.62,7.49,8.53,4.47,4.42,4.38
39.34,-3.15,-7.49,-3.15,-7.50,7.55,7.43,8.36,4.40,4.40,4.34
39.74,-3.15,-7.47,-3.14,-7.46,7.48,7.38,8.20,4.33,4.34,4.32
40.14,-3.14,-7.43,-3.13,-7.43,7.40,7.32,8.04,4.26,4.27,4.29
40.54,-3.10,-7.37,-3.10,-7.37,7.34,7.27,7.89,4.24,4.23,4.27
40.94,-3.06,-7.30,-3.06,-7.30,7.28,7.21,7.74,4.22,4.22,4.24
41.35,-3.01,-7.23,-3.01,-7.23,7.24,7.15,7.59,4.23,4.23,4.22
41.76,-2.97,-7.15,-2.97,-7.16,7.19,7.10,7.45,4.22,4.22,4.18
42.18,-2.94,-7.10,-2.95,-7.11,7.14,7.04,7.32,4.20,4.19,4.16
42.60,-2.94,-7.08,-2.94,-7.07,7.08,6.98,7.18,4.15,4.15,4.14
43.03,-2.94,-7.05,-2.93,-7.05,7.02,6.92,7.06,4.09,4.09,4.11
43.46,-2.92,-7.00,-2.92,-7.01,6.97,6.86,6.94,4.05,4.04,4.08
43.90,-2.90,-6.96,-2.89,-6.94,6.91,6.80,6.82,4.01,4.02,4.06
44.33,-2.84,-6.86,-2.83,-6.86,6.86,6.74,6.71,4.02,4.03,4.02
44.78,-2.76,-6.75,-2.77,-6.77,6.80,6.68,6.60,4.05,4.03,3.99
45.23,-2.72,-6.70,-2.73,-6.70,6.75,6.62,6.50,4.03,4.02,3.98
45.68,-2.73,-6.66,-2.72,-6.66,6.69,6.56,6.40,3.97,3.97,3.93
46.13,-2.74,-6.63,-2.73,-6.63,6.63,6.50,6.31,3.90,3.90,3.89
46.60,-2.74,-6.60,-2.74,-6.60,6.57,6.44,6.22,3.83,3.83,3.86
47.06,-2.73,-6.55,-2.72,-6.55,6.51,6.37,6.14,3.78,3.79,3.82
47.53,-2.69,-6.48,-2.69,-6.47,6.44,6.31,6.06,3.75,3.75,3.79
48.01,-2.64,-6.37,-2.64,-6.38,6.36,6.25,5.98,3.72,3.72,3.73
48.49,-2.59,-6.27,-2.59,-6.28,6.28,6.18,5.91,3.69,3.69,3.68
48.97,-2.54,-6.18,-2.54,-6.18,6.19,6.12,5.84,3.66,3.66,3.64
49.46,-2.50,-6.10,-2.49,-6.09,6.12,6.05,5.77,3.62,3.62,3.60
49.96,-2.45,-5.98,-2.46,-6.00,6.04,5.99,5.71,3.60,3.58,3.53
50.46,-2.45,-5.94,-2.44,-5.94,5.98,5.92,5.65,3.53,3.53,3.49
50.96,-2.44,-5.89,-2.45,-5.90,5.91,5.85,5.59,3.47,3.46,3.45
51.47,-2.46,-5.87,-2.46,-5.87,5.85,5.79,5.54,3.39,3.38,3.41
51.99,-2.48,-5.84,-2.46,-5.83,5.78,5.72,5.49,3.30,3.31,3.36
52.51,-2.44,-5.76,-2.44,-5.77,5.70,5.65,5.44,3.26,3.26,3.32
53.03,-2.39,-5.68,-2.37,-5.66,5.63,5.58,5.39,3.24,3.26,3.29
53.56,-2.30,-5.53,-2.30,-5.54,5.56,5.51,5.35,3.26,3.26,3.23
54.10,-2.22,-5.40,-2.25,-5.44,5.49,5.44,5.30,3.27,3.24,3.18
54.64,-2.23,-5.37,-2.22,-5.36,5.43,5.37,5.26,3.20,3.20,3.14
55.18,-2.24,-5.32,-2.22,-5.31,5.36,5.30,5.21,3.12,3.13,3.08
55.74,-2.24,-5.27,-2.25,-5.30,5.29,5.23,5.17,3.05,3.03,3.03
56.29,-2.26,-5.26,-2.28,-5.27,5.22,5.16,5.13,2.96,2.94,3.00
56.86,-2.31,-5.27,-2.27,-5.23,5.15,5.08,5.08,2.85,2.88,2.96
57.42,-2.24,-5.14,-2.23,-5.14,5.09,5.01,5.04,2.86,2.87,2.90
58.00,-2.14,-5.01,-2.15,-5.02,5.03,4.94,4.99,2.89,2.89,2.87
58.58,-2.05,-4.89,-2.06,-4.90,4.97,4.87,4.94,2.92,2.91,2.84
59.16,-2.00,-4.80,-2.01,-4.82,4.89,4.79,4.90,2.89,2.87,2.80
59.76,-2.02,-4.78,-2.03,-4.79,4.80,4.72,4.84,2.78,2.77,2.76
60.35,-2.06,-4.75,-2.06,-4.76,4.72,4.64,4.79,2.66,2.66,2.69
60.96,-2.12,-4.76,-2.06,-4.70,4.64,4.57,4.73,2.52,2.58,2.64
61.57,-2.02,-4.59,-2.03,-4.60,4.56,4.49,4.68,2.54,2.54,2.57
62.18,-1.94,-4.44,-1.98,-4.48,4.49,4.42,4.61,2.55,2.52,2.50
62.80,-1.94,-4.38,-1.93,-4.38,4.43,4.34,4.55,2.49,2.49,2.44
63.43,-1.94,-4.32,-1.93,-4.32,4.36,4.27,4.48,2.42,2.43,2.38
64.07,-1.94,-4.27,-1.94,-4.27,4.29,4.19,4.41,2.35,2.35,2.33
64.71,-1.94,-4.21,-1.93,-4.21,4.22,4.12,4.34,2.28,2.28,2.27
65.35,-1.94,-4.15,-1.95,-4.16,4.14,4.04,4.26,2.21,2.20,2.21
66.01,-1.94,-4.09,-1.96,-4.12,4.07,3.96,4.19,2.13,2.10,2.15
66.67,-1.98,-4.09,-1.95,-4.05,3.99,3.89,4.10,2.01,2.04,2.11
67.33,-1.93,-3.96,-1.89,-3.94,3.90,3.81,4.02,1.97,2.01,2.03
68.01,-1.79,-3.77,-1.81,-3.80,3.81,3.73,3.94,2.02,1.99,1.98
68.69,-1.72,-3.63,-1.74,-3.66,3.71,3.65,3.85,2.00,1.97,1.91
69.37,-1.71,-3.57,-1.71,-3.57,3.62,3.58,3.76,1.92,1.91,1.86
70.07,-1.74,-3.53,-1.72,-3.52,3.54,3.50,3.67,1.80,1.82,1.79
70.77,-1.74,-3.47,-1.74,-3.47,3.46,3.42,3.57,1.72,1.73,1.73
71.48,-1.74,-3.40,-1.74,-3.40,3.39,3.34,3.48,1.66,1.66,1.66
72.19,-1.74,-3.33,-1.74,-3.34,3.33,3.27,3.38,1.59,1.59,1.59
72.91,-1.74,-3.27,-1.75,-3.28,3.27,3.19,3.29,1.53,1.52,1.53
73.64,-1.77,-3.23,-1.77,-3.23,3.21,3.11,3.19,1.44,1.44,1.46
74.38,-1.77,-3.17,-1.76,-3.16,3.14,3.03,3.10,1.37,1.38,1.40
75.12,-1.75,-3.08,-1.73,-3.07,3.06,2.95,3.00,1.32,1.34,1.33
75.87,-1.66,-2.95,-1.68,-2.97,2.98,2.88,2.90,1.33,1.30,1.29
76.63,-1.64,-2.86,-1.65,-2.87,2.90,2.80,2.81,1.26,1.25,1.22
77.40,-1.64,-2.81,-1.64,-2.81,2.81,2.72,2.71,1.17,1.17,1.17
78.17,-1.64,-2.75,-1.64,-2.75,2.72,2.64,2.61,1.09,1.09,1.11
78.95,-1.64,-2.71,-1.60,-2.66,2.65,2.57,2.52,1.01,1.05,1.07
79.74,-1.53,-2.54,-1.55,-2.56,2.58,2.49,2.42,1.05,1.03,1.01
80.54,-1.48,-2.43,-1.51,-2.46,2.51,2.41,2.33,1.03,1.01,0.95
81.35,-1.50,-2.40,-1.50,-2.40,2.45,2.33,2.24,0.95,0.95,0.90
82.16,-1.54,-2.39,-1.54,-2.39,2.37,2.25,2.15,0.84,0.84,0.85
82.98,-1.57,-2.36,-1.56,-2.36,2.30,2.18,2.06,0.73,0.74,0.79
83.81,-1.58,-2.31,-1.55,-2.28,2.23,2.10,1.97,0.65,0.68,0.73
84.65,-1.49,-2.16,-1.50,-2.17,2.16,2.02,1.88,0.67,0.66,0.67
85.50,-1.44,-2.04,-1.46,-2.07,2.09,1.95,1.79,0.65,0.63,0.60
86.35,-1.44,-1.98,-1.43,-1.98,2.02,1.87,1.70,0.58,0.58,0.54
87.22,-1.44,-1.93,-1.43,-1.92,1.94,1.79,1.61,0.50,0.51,0.49
88.09,-1.43,-1.85,-1.43,-1.86,1.86,1.71,1.53,0.43,0.43,0.42
88.97,-1.43,-1.80,-1.43,-1.80,1.79,1.64,1.45,0.36,0.36,0.37
89.86,-1.43,-1.72,-1.43,-1.73,1.72,1.56,1.36,0.29,0.29,0.29
90.76,-1.43,-1.66,-1.43,-1.66,1.66,1.49,1.28,0.23,0.23,0.23
91.66,-1.43,-1.59,-1.43,-1.59,1.60,1.41,1.20,0.17,0.17,0.16
92.58,-1.43,-1.53,-1.43,-1.53,1.54,1.33,1.12,0.11,0.11,0.10
93.51,-1.43,-1.46,-1.43,-1.46,1.47,1.26,1.04,0.04,0.04,0.03
94.44,-1.43,-1.39,-1.43,-1.40,1.39,1.18,0.96,-0.04,-0.04,-0.04
95.39,-1.44,-1.32,-1.45,-1.33,1.31,1.11,0.88,-0.13,-0.14,-0.12
96.34,-1.46,-1.26,-1.45,-1.25,1.22,1.03,0.81,-0.23,-0.22,-0.20
97.30,-1.45,-1.17,-1.42,-1.14,1.13,0.96,0.73,-0.32,-0.29,-0.28
98.28,-1.37,-1.00,-1.40,-1.03,1.03,0.88,0.66,-0.34,-0.37,-0.37
99.26,-1.36,-0.90,-1.38,-0.93,0.93,0.81,0.58,-0.43,-0.45,-0.46
100.25,-1.38,-0.84,-1.35,-0.82,0.83,0.73,0.51,-0.55,-0.52,-0.54
101.25,-1.36,-0.75,-1.34,-0.72,0.73,0.66,0.43,-0.63,-0.60,-0.61
102.27,-1.28,-0.58,-1.32,-0.62,0.64,0.59,0.36,-0.64,-0.68,-0.70
103.29,-1.31,-0.53,-1.31,-0.54,0.56,0.51,0.29,-0.75,-0.75,-0.78
104.32,-1.34,-0.49,-1.33,-0.48,0.49,0.44,0.22,-0.85,-0.84,-0.85
105.37,-1.36,-0.43,-1.36,-0.43,0.42,0.37,0.15,-0.94,-0.94,-0.93
106.42,-1.39,-0.37,-1.39,-0.37,0.36,0.29,0.08,-1.02,-1.02,-1.02
107.48,-1.41,-0.30,-1.41,-0.31,0.31,0.22,0.02,-1.10,-1.10,-1.11
108.56,-1.44,-0.27,-1.44,-0.26,0.26,0.15,-0.05,-1.18,-1.18,-1.17
109.64,-1.46,-0.20,-1.46,-0.20,0.20,0.08,-0.11,-1.26,-1.26,-1.26
110.74,-1.48,-0.14,-1.48,-0.15,0.15,0.01,-0.18,-1.33,-1.34,-1.34
111.85,-1.50,-0.09,-1.50,-0.09,0.09,-0.07,-0.24,-1.41,-1.41,-1.41
112.97,-1.51,-0.03,-1.51,-0.03,0.03,-0.14,-0.30,-1.48,-1.48,-1.48
114.10,-1.51,0.04,-1.51,0.04,-0.04,-0.21,-0.36,-1.55,-1.55,-1.55
115.24,-1.51,0.12,-1.51,0.12,-0.11,-0.28,-0.42,-1.62,-1.62,-1.63
116.39,-1.51,0.20,-1.52,0.19,-0.19,-0.35,-0.48,-1.69,-1.70,-1.71
117.55,-1.52,0.25,-1.53,0.25,-0.27,-0.42,-0.54,-1.79,-1.80,-1.77
118.73,-1.53,0.32,-1.51,0.33,-0.35,-0.49,-0.59,-1.88,-1.86,-1.85
119.92,-1.50,0.41,-1.47,0.43,-0.44,-0.56,-0.64,-1.94,-1.91,-1.91
121.12,-1.39,0.57,-1.42,0.54,-0.53,-0.63,-0.70,-1.92,-1.95,-1.96
122.33,-1.38,0.65,-1.38,0.64,-0.61,-0.69,-0.75,-1.99,-1.99,-2.03
123.55,-1.37,0.71,-1.36,0.72,-0.70,-0.76,-0.80,-2.06,-2.06,-2.08
124.79,-1.36,0.78,-1.36,0.78,-0.78,-0.83,-0.84,-2.14,-2.14,-2.14
126.03,-1.36,0.85,-1.35,0.85,-0.86,-0.90,-0.89,-2.21,-2.21,-2.21
127.29,-1.35,0.92,-1.35,0.92,-0.93,-0.96,-0.93,-2.28,-2.28,-2.27
128.57,-1.34,0.99,-1.34,0.99,-1.00,-1.03,-0.98,-2.33,-2.34,-2.33
129.85,-1.34,1.06,-1.34,1.06,-1.06,-1.10,-1.02,-2.40,-2.39,-2.40
131.15,-1.33,1.13,-1.33,1.13,-1.12,-1.16,-1.06,-2.45,-2.45,-2.46
132.46,-1.33,1.19,-1.33,1.19,-1.19,-1.23,-1.10,-2.51,-2.51,-2.52
133.79,-1.32,1.26,-1.32,1.25,-1.25,-1.29,-1.14,-2.57,-2.57,-2.58
135.12,-1.32,1.32,-1.32,1.31,-1.31,-1.36,-1.18,-2.63,-2.63,-2.64
136.48,-1.32,1.36,-1.32,1.37,-1.37,-1.42,-1.22,-2.69,-2.69,-2.68
137.84,-1.32,1.42,-1.32,1.43,-1.43,-1.49,-1.25,-2.75,-2.75,-2.74
139.22,-1.31,1.51,-1.31,1.49,-1.49,-1.55,-1.29,-2.80,-2.80,-2.82
140.61,-1.31,1.55,-1.31,1.55,-1.55,-1.61,-1.33,-2.86,-2.86,-2.86
142.02,-1.31,1.61,-1.31,1.62,-1.61,-1.68,-1.36,-2.92,-2.92,-2.92
143.44,-1.31,1.68,-1.31,1.67,-1.67,-1.74,-1.40,-2.98,-2.98,-2.99
144.87,-1.31,1.73,-1.31,1.73,-1.73,-1.80,-1.44,-3.04,-3.04,-3.04
146.32,-1.31,1.78,-1.31,1.78,-1.78,-1.86,-1.47,-3.09,-3.09,-3.09
147.78,-1.31,1.84,-1.31,1.84,-1.84,-1.92,-1.51,-3.15,-3.15,-3.15
149.26,-1.31,1.89,-1.31,1.89,-1.89,-1.98,-1.55,-3.20,-3.20,-3.20
150.75,-1.31,1.96,-1.31,1.95,-1.95,-2.04,-1.59,-3.26,-3.26,-3.27
152.26,-1.31,2.00,-1.31,2.00,-2.00,-2.10,-1.63,-3.31,-3.31,-3.31
153.78,-1.31,2.06,-1.31,2.06,-2.06,-2.16,-1.67,-3.37,-3.37,-3.37
155.32,-1.31,2.11,-1.31,2.11,-2.11,-2.22,-1.71,-3.42,-3.42,-3.42
156.88,-1.31,2.17,-1.31,2.17,-2.17,-2.28,-1.75,-3.48,-3.48,-3.48
158.44,-1.31,2.23,-1.31,2.23,-2.23,-2.34,-1.79,-3.54,-3.54,-3.54
160.03,-1.31,2.29,-1.31,2.29,-2.29,-2.39,-1.84,-3.60,-3.60,-3.60
161.63,-1.31,2.35,-1.31,2.35,-2.35,-2.45,-1.89,-3.66,-3.66,-3.66
163.24,-1.31,2.42,-1.31,2.41,-2.41,-2.50,-1.93,-3.71,-3.72,-3.73
164.88,-1.32,2.46,-1.32,2.47,-2.46,-2.56,-1.98,-3.78,-3.78,-3.78
166.53,-1.32,2.53,-1.32,2.52,-2.52,-2.61,-2.04,-3.84,-3.84,-3.85
168.19,-1.33,2.57,-1.33,2.57,-2.58,-2.67,-2.09,-3.90,-3.90,-3.90
169.87,-1.33,2.63,-1.33,2.63,-2.63,-2.72,-2.14,-3.96,-3.96,-3.96
171.57,-1.34,2.69,-1.34,2.68,-2.68,-2.77,-2.20,-4.02,-4.02,-4.03
173.29,-1.35,2.74,-1.35,2.74,-2.73,-2.83,-2.26,-4.08,-4.08,-4.09
175.02,-1.35,2.79,-1.35,2.78,-2.79,-2.88,-2.32,-4.13,-4.14,-4.14
176.77,-1.36,2.83,-1.36,2.84,-2.84,-2.93,-2.38,-4.20,-4.20,-4.19
178.54,-1.36,2.89,-1.36,2.89,-2.89,-2.98,-2.44,-4.25,-4.25,-4.25
180.32,-1.35,2.96,-1.35,2.95,-2.95,-3.03,-2.51,-4.30,-4.30,-4.31
182.13,-1.35,3.00,-1.35,3.01,-3.01,-3.08,-2.58,-4.35,-4.35,-4.35
183.95,-1.34,3.06,-1.34,3.06,-3.06,-3.12,-2.65,-4.40,-4.40,-4.40
185.79,-1.32,3.13,-1.32,3.12,-3.12,-3.17,-2.72,-4.44,-4.44,-4.45
187.65,-1.31,3.18,-1.31,3.18,-3.18,-3.22,-2.79,-4.49,-4.49,-4.49
189.52,-1.29,3.25,-1.29,3.24,-3.24,-3.26,-2.87,-4.53,-4.53,-4.54
191.42,-1.28,3.29,-1.28,3.29,-3.30,-3.31,-2.95,-4.58,-4.58,-4.57
193.33,-1.27,3.35,-1.26,3.36,-3.36,-3.35,-3.02,-4.63,-4.62,-4.62
195.27,-1.25,3.42,-1.25,3.41,-3.41,-3.40,-3.10,-4.66,-4.67,-4.67
197.22,-1.24,3.48,-1.24,3.47,-3.47,-3.44,-3.19,-4.71,-4.71,-4.72
199.19,-1.23,3.52,-1.23,3.53,-3.52,-3.48,-3.27,-4.75,-4.75,-4.75
201.18,-1.22,3.58,-1.22,3.57,-3.57,-3.52,-3.35,-4.78,-4.79,-4.80
203.19,-1.22,3.61,-1.21,3.61,-3.61,-3.57,-3.44,-4.83,-4.82,-4.83
205.23,-1.21,3.66,-1.21,3.65,-3.65,-3.61,-3.52,-4.86,-4.86,-4.87
207.28,-1.21,3.69,-1.21,3.69,-3.69,-3.64,-3.61,-4.90,-4.90,-4.90
209.35,-1.22,3.72,-1.21,3.73,-3.73,-3.68,-3.69,-4.95,-4.94,-4.94
211.44,-1.22,3.77,-1.22,3.76,-3.76,-3.72,-3.78,-4.98,-4.98,-4.99
213.56,-1.22,3.80,-1.22,3.80,-3.80,-3.76,-3.86,-5.02,-5.02,-5.02
215.69,-1.23,3.83,-1.23,3.83,-3.83,-3.79,-3.94,-5.06,-5.06,-5.06
217.85,-1.23,3.86,-1.23,3.87,-3.86,-3.83,-4.02,-5.09,-5.09,-5.09
220.03,-1.23,3.91,-1.23,3.90,-3.90,-3.86,-4.10,-5.12,-5.13,-5.14
222.23,-1.23,3.93,-1.23,3.93,-3.93,-3.89,-4.18,-5.15,-5.16,-5.16
224.45,-1.24,3.95,-1.23,3.96,-3.96,-3.92,-4.25,-5.19,-5.19,-5.19
226.70,-1.23,3.99,-1.23,3.98,-3.98,-3.96,-4.32,-5.21,-5.22,-5.22
228.96,-1.23,4.01,-1.23,4.01,-4.01,-3.99,-4.39,-5.24,-5.24,-5.24
231.25,-1.22,4.03,-1.22,4.04,-4.03,-4.02,-4.46,-5.25,-5.25,-5.25
233.57,-1.21,4.07,-1.21,4.06,-4.06,-4.04,-4.51,-5.27,-5.27,-5.28
235.90,-1.20,4.09,-1.20,4.09,-4.09,-4.07,-4.57,-5.29,-5.29,-5.29
238.26,-1.19,4.12,-1.19,4.11,-4.12,-4.10,-4.62,-5.31,-5.30,-5.31
240.64,-1.17,4.13,-1.17,4.13,-4.14,-4.12,-4.66,-5.31,-5.32,-5.30
243.05,-1.16,4.15,-1.16,4.16,-4.17,-4.15,-4.70,-5.33,-5.32,-5.31
245.48,-1.14,4.19,-1.13,4.20,-4.18,-4.17,-4.73,-5.32,-5.31,-5.33
247.93,-1.10,4.24,-1.10,4.22,-4.20,-4.19,-4.75,-5.30,-5.30,-5.34
250.41,-1.08,4.25,-1.10,4.23,-4.21,-4.22,-4.77,-5.29,-5.31,-5.33
252.92,-1.12,4.21,-1.11,4.22,-4.22,-4.24,-4.78,-5.33,-5.33,-5.33
255.45,-1.15,4.20,-1.13,4.21,-4.22,-4.26,-4.79,-5.37,-5.36,-5.35
258.00,-1.15,4.21,-1.15,4.20,-4.23,-4.27,-4.79,-5.37,-5.38,-5.36
260.58,-1.15,4.22,-1.15,4.22,-4.23,-4.29,-4.78,-5.38,-5.38,-5.37
263.19,-1.15,4.23,-1.15,4.23,-4.23,-4.31,-4.77,-5.38,-5.38,-5.38
265.82,-1.15,4.25,-1.15,4.24,-4.24,-4.32,-4.75,-5.39,-5.39,-5.40
268.48,-1.15,4.25,-1.15,4.25,-4.25,-4.34,-4.73,-5.40,-5.40,-5.40
271.16,-1.15,4.27,-1.15,4.26,-4.26,-4.35,-4.70,-5.41,-5.41,-5.42
273.87,-1.16,4.27,-1.16,4.28,-4.28,-4.37,-4.67,-5.44,-5.43,-5.43
276.61,-1.16,4.29,-1.16,4.29,-4.29,-4.38,-4.64,-5.45,-5.45,-5.45
279.38,-1.16,4.32,-1.16,4.31,-4.30,-4.39,-4.60,-5.46,-5.46,-5.48
282.17,-1.16,4.32,-1.16,4.32,-4.32,-4.40,-4.56,-5.48,-5.47,-5.48
284.99,-1.15,4.33,-1.15,4.33,-4.33,-4.41,-4.51,-5.48,-5.48,-5.48
287.84,-1.14,4.34,-1.14,4.34,-4.35,-4.42,-4.47,-5.49,-5.49,-5.48
290.72,-1.13,4.37,-1.13,4.36,-4.37,-4.42,-4.42,-5.49,-5.50,-5.50
293.63,-1.12,4.37,-1.12,4.37,-4.38,-4.43,-4.38,-5.50,-5.50,-5.49
296.57,-1.11,4.38,-1.11,4.39,-4.38,-4.44,-4.33,-5.49,-5.49,-5.49
299.53,-1.09,4.41,-1.09,4.41,-4.39,-4.44,-4.28,-5.48,-5.47,-5.50
302.53,-1.08,4.41,-1.08,4.41,-4.39,-4.44,-4.23,-5.47,-5.47,-5.49
305.55,-1.07,4.43,-1.09,4.40,-4.39,-4.45,-4.19,-5.45,-5.48,-5.50
308.61,-1.13,4.36,-1.12,4.38,-4.38,-4.45,-4.14,-5.51,-5.50,-5.49
311.69,-1.16,4.35,-1.14,4.36,-4.38,-4.45,-4.09,-5.53,-5.52,-5.51
314.81,-1.15,4.35,-1.16,4.35,-4.37,-4.45,-4.05,-5.52,-5.53,-5.50
317.96,-1.15,4.37,-1.15,4.36,-4.36,-4.45,-4.01,-5.51,-5.52,-5.52
321.14,-1.15,4.36,-1.15,4.36,-4.36,-4.45,-3.97,-5.51,-5.51,-5.51
324.35,-1.15,4.37,-1.15,4.36,-4.36,-4.44,-3.93,-5.51,-5.51,-5.52
327.59,-1.15,4.36,-1.15,4.36,-4.37,-4.44,-3.90,-5.51,-5.51,-5.51
330.87,-1.15,4.37,-1.15,4.36,-4.37,-4.44,-3.86,-5.51,-5.52,-5.52
334.18,-1.16,4.37,-1.15,4.37,-4.36,-4.43,-3.83,-5.52,-5.51,-5.53
337.52,-1.16,4.36,-1.15,4.37,-4.35,-4.43,-3.81,-5.51,-5.50,-5.52
340.90,-1.16,4.37,-1.17,4.35,-4.33,-4.42,-3.78,-5.49,-5.50,-5.53
344.30,-1.18,4.34,-1.19,4.33,-4.32,-4.41,-3.76,-5.50,-5.51,-5.52
347.75,-1.24,4.27,-1.23,4.29,-4.30,-4.41,-3.74,-5.54,-5.53,-5.51
351.23,-1.26,4.27,-1.25,4.26,-4.29,-4.40,-3.72,-5.54,-5.54,-5.53
354.74,-1.26,4.25,-1.26,4.25,-4.27,-4.39,-3.71,-5.53,-5.53,-5.51
358.28,-1.25,4.26,-1.25,4.26,-4.27,-4.38,-3.70,-5.52,-5.52,-5.51
361.87,-1.25,4.26,-1.25,4.26,-4.26,-4.37,-3.69,-5.51,-5.51,-5.51
365.49,-1.24,4.26,-1.24,4.26,-4.26,-4.36,-3.69,-5.50,-5.50,-5.50
369.14,-1.23,4.26,-1.23,4.26,-4.25,-4.35,-3.69,-5.48,-5.48,-5.49
372.83,-1.22,4.26,-1.22,4.27,-4.24,-4.33,-3.69,-5.46,-5.46,-5.48
376.56,-1.22,4.27,-1.22,4.26,-4.23,-4.32,-3.69,-5.45,-5.45,-5.49
380.33,-1.24,4.25,-1.25,4.23,-4.21,-4.31,-3.70,-5.44,-5.45,-5.49
384.13,-1.29,4.19,-1.30,4.18,-4.18,-4.29,-3.70,-5.47,-5.48,-5.48
387.97,-1.36,4.12,-1.34,4.14,-4.16,-4.28,-3.72,-5.52,-5.50,-5.48
391.85,-1.39,4.10,-1.38,4.11,-4.14,-4.26,-3.73,-5.53,-5.52,-5.49
395.77,-1.39,4.11,-1.40,4.09,-4.12,-4.25,-3.75,-5.51,-5.52,-5.50
399.73,-1.40,4.10,-1.40,4.10,-4.11,-4.23,-3.76,-5.51,-5.51,-5.50
403.72,-1.40,4.09,-1.40,4.10,-4.10,-4.22,-3.78,-5.50,-5.49,-5.49
407.76,-1.40,4.11,-1.40,4.11,-4.09,-4.20,-3.80,-5.49,-5.48,-5.51
411.84,-1.40,4.12,-1.40,4.11,-4.08,-4.18,-3.83,-5.48,-5.48,-5.52
415.96,-1.41,4.11,-1.42,4.10,-4.07,-4.17,-3.85,-5.48,-5.49,-5.52
420.12,-1.46,4.07,-1.45,4.07,-4.06,-4.15,-3.88,-5.52,-5.51,-5.53
424.32,-1.49,4.03,-1.48,4.03,-4.05,-4.13,-3.90,-5.54,-5.53,-5.52
428.56,-1.49,4.01,-1.49,4.01,-4.04,-4.12,-3.93,-5.53,-5.53,-5.50
432.85,-1.48,4.00,-1.48,4.01,-4.03,-4.10,-3.95,-5.51,-5.51,-5.48
437.18,-1.45,4.02,-1.45,4.01,-4.03,-4.08,-3.98,-5.48,-5.48,-5.47
441.55,-1.41,4.03,-1.41,4.02,-4.03,-4.06,-4.00,-5.43,-5.44,-5.44
445.96,-1.37,4.03,-1.37,4.03,-4.03,-4.04,-4.03,-5.39,-5.39,-5.40
450.42,-1.32,4.04,-1.31,4.04,-4.02,-4.03,-4.05,-5.34,-5.34,-5.36
454.93,-1.26,4.05,-1.26,4.05,-4.02,-4.01,-4.08,-5.28,-5.28,-5.31
459.48,-1.20,4.05,-1.21,4.04,-4.01,-3.99,-4.10,-5.21,-5.22,-5.25
