frequency,raw,error,smoothed,error_smoothed,equalization,parametric_eq,fixed_band_eq,equalized_raw,equalized_smoothed,target
20.00,-11.96,-20.00,-12.04,-20.10,20.10,17.55,6.19,8.14,8.06,8.04
20.20,-11.86,-19.93,-11.85,-19.94,19.94,17.81,6.34,8.08,8.08,8.07
20.40,-11.70,-19.80,-11.67,-19.77,19.77,18.06,6.48,8.07,8.10,8.10
20.61,-11.51,-19.63,-11.48,-19.60,19.60,18.27,6.63,8.09,8.12,8.12
20.81,-11.33,-19.47,-11.29,-19.43,19.43,18.46,6.79,8.10,8.14,8.15
21.02,-11.12,-19.30,-11.10,-19.25,19.25,18.61,6.95,8.14,8.15,8.18
21.23,-10.92,-19.10,-10.91,-19.08,19.08,18.73,7.11,8.16,8.17,8.19
21.44,-10.72,-18.91,-10.72,-18.90,18.90,18.80,7.28,8.18,8.18,8.19
21.66,-10.53,-18.74,-10.52,-18.71,18.71,18.83,7.45,8.18,8.19,8.20
21.87,-10.32,-18.52,-10.33,-18.53,18.53,18.81,7.62,8.21,8.20,8.20
22.09,-10.13,-18.34,-10.13,-18.34,18.34,18.74,7.80,8.21,8.21,8.21
22.31,-9.93,-18.14,-9.93,-18.15,18.15,18.63,7.99,8.22,8.21,8.21
22.54,-9.72,-17.93,-9.73,-17.94,17.94,18.49,8.18,8.22,8.21,8.21
22.76,-9.52,-17.73,-9.52,-17.73,17.73,18.30,8.37,8.22,8.21,8.21
22.99,-9.32,-17.52,-9.32,-17.53,17.53,18.09,8.57,8.21,8.21,8.20
23.22,-9.12,-17.32,-9.12,-17.32,17.32,17.85,8.77,8.20,8.21,8.20
23.45,-8.92,-17.12,-8.91,-17.12,17.12,17.58,8.98,8.20,8.21,8.20
23.69,-8.71,-16.91,-8.71,-16.92,16.92,17.30,9.20,8.20,8.20,8.20
23.92,-8.50,-16.69,-8.51,-16.71,16.71,17.01,9.42,8.21,8.20,8.20
24.16,-8.30,-16.50,-8.30,-16.50,16.50,16.71,9.65,8.20,8.20,8.21
24.40,-8.09,-16.29,-8.09,-16.29,16.29,16.40,9.88,8.20,8.20,8.21
24.65,-7.89,-16.09,-7.89,-16.08,16.08,16.09,10.12,8.19,8.19,8.19
24.89,-7.68,-15.87,-7.68,-15.87,15.87,15.77,10.36,8.19,8.19,8.19
25.14,-7.47,-15.66,-7.47,-15.66,15.66,15.46,10.61,8.19,8.19,8.19
25.39,-7.27,-15.46,-7.26,-15.45,15.45,15.15,10.86,8.18,8.19,8.19
25.65,-7.06,-15.25,-7.05,-15.23,15.23,14.84,11.12,8.17,8.19,8.19
25.91,-6.85,-15.03,-6.84,-15.02,15.02,14.54,11.38,8.17,8.19,8.18
26.16,-6.62,-14.79,-6.63,-14.81,14.81,14.24,11.65,8.19,8.18,8.18
26.43,-6.40,-14.58,-6.42,-14.60,14.60,13.94,11.92,8.19,8.18,8.18
26.69,-6.19,-14.37,-6.21,-14.38,14.38,13.65,12.20,8.19,8.18,8.18
26.96,-5.98,-14.16,-5.99,-14.17,14.17,13.37,12.47,8.18,8.17,8.17
27.23,-5.78,-13.96,-5.78,-13.95,13.95,13.09,12.75,8.17,8.17,8.17
27.50,-5.57,-13.74,-5.57,-13.73,13.73,12.82,13.03,8.16,8.16,8.17
27.77,-5.36,-13.52,-5.36,-13.52,13.52,12.56,13.30,8.16,8.16,8.16
28.05,-5.16,-13.32,-5.15,-13.30,13.30,12.30,13.57,8.14,8.16,8.16
28.33,-4.95,-13.10,-4.93,-13.09,13.09,12.05,13.83,8.14,8.15,8.15
28.62,-4.74,-12.89,-4.72,-12.87,12.87,11.80,14.08,8.13,8.15,8.15
28.90,-4.51,-12.65,-4.51,-12.66,12.66,11.56,14.32,8.15,8.14,8.14
29.19,-4.29,-12.42,-4.30,-12.44,12.44,11.32,14.54,8.15,8.14,8.13
29.48,-4.08,-12.22,-4.10,-12.23,12.23,11.09,14.74,8.15,8.13,8.14
29.78,-3.88,-12.01,-3.89,-12.01,12.01,10.87,14.91,8.13,8.13,8.13
30.08,-3.67,-11.80,-3.68,-11.80,11.80,10.65,15.06,8.12,8.12,8.13
30.38,-3.46,-11.58,-3.47,-11.58,11.58,10.43,15.17,8.12,8.12,8.11
30.68,-3.26,-11.37,-3.26,-11.37,11.37,10.22,15.24,8.11,8.11,8.11
30.99,-3.05,-11.15,-3.05,-11.15,11.15,10.02,15.28,8.10,8.10,8.10
31.30,-2.84,-10.94,-2.84,-10.94,10.94,9.82,15.27,8.10,8.10,8.10
31.61,-2.64,-10.73,-2.63,-10.72,10.72,9.62,15.23,8.08,8.09,8.09
31.93,-2.43,-10.51,-2.43,-10.51,10.51,9.43,15.14,8.08,8.08,8.08
32.24,-2.22,-10.29,-2.22,-10.30,10.30,9.24,15.02,8.08,8.08,8.07
32.57,-2.02,-10.09,-2.02,-10.08,10.08,9.06,14.86,8.06,8.07,8.07
32.89,-1.81,-9.87,-1.81,-9.87,9.87,8.88,14.67,8.06,8.06,8.06
33.22,-1.60,-9.65,-1.60,-9.65,9.65,8.70,14.45,8.05,8.05,8.05
33.55,-1.40,-9.44,-1.40,-9.44,9.44,8.53,14.21,8.04,8.04,8.05
33.89,-1.19,-9.22,-1.19,-9.22,9.22,8.36,13.94,8.03,8.03,8.03
34.23,-0.99,-9.02,-0.98,-9.01,9.01,8.20,13.66,8.02,8.03,8.03
34.57,-0.78,-8.80,-0.78,-8.80,8.80,8.04,13.37,8.02,8.02,8.02
34.92,-0.57,-8.58,-0.58,-8.58,8.58,7.88,13.07,8.01,8.01,8.00
35.27,-0.38,-8.38,-0.38,-8.37,8.37,7.73,12.76,7.99,8.00,8.00
35.62,-0.18,-8.17,-0.18,-8.16,8.16,7.57,12.45,7.98,7.99,7.99
35.97,0.03,-7.94,0.02,-7.95,7.95,7.43,12.14,7.98,7.98,7.97
36.33,0.23,-7.74,0.22,-7.74,7.74,7.28,11.82,7.97,7.96,7.97
36.70,0.41,-7.54,0.42,-7.53,7.53,7.14,11.51,7.94,7.95,7.95
37.06,0.60,-7.34,0.61,-7.33,7.33,7.00,11.20,7.93,7.94,7.94
37.43,0.81,-7.12,0.80,-7.13,7.13,6.86,10.89,7.94,7.93,7.93
37.81,0.97,-6.95,0.99,-6.93,6.93,6.73,10.58,7.90,7.92,7.92
38.19,1.18,-6.72,1.17,-6.73,6.73,6.59,10.28,7.91,7.90,7.90
38.57,1.36,-6.54,1.35,-6.54,6.54,6.46,9.98,7.90,7.89,7.90
38.95,1.53,-6.35,1.53,-6.35,6.35,6.34,9.69,7.88,7.88,7.88
39.34,1.73,-6.13,1.70,-6.17,6.17,6.21,9.40,7.90,7.87,7.87
39.74,1.89,-5.96,1.88,-5.98,5.98,6.09,9.11,7.87,7.86,7.85
40.14,2.04,-5.81,2.04,-5.80,5.80,5.97,8.83,7.84,7.85,7.84
40.54,2.20,-5.63,2.21,-5.63,5.63,5.85,8.56,7.83,7.83,7.83
40.94,2.35,-5.47,2.37,-5.45,5.45,5.73,8.28,7.81,7.82,7.82
41.35,2.51,-5.29,2.52,-5.29,5.29,5.62,8.02,7.80,7.81,7.80
41.76,2.66,-5.14,2.67,-5.12,5.12,5.51,7.76,7.78,7.80,7.80
42.18,2.82,-4.97,2.82,-4.96,4.96,5.40,7.50,7.78,7.78,7.79
42.60,2.97,-4.80,2.96,-4.80,4.80,5.29,7.24,7.77,7.77,7.77
43.03,3.10,-4.66,3.10,-4.65,4.65,5.18,6.99,7.75,7.75,7.76
43.46,3.24,-4.50,3.23,-4.50,4.50,5.08,6.75,7.74,7.74,7.75
43.90,3.39,-4.33,3.36,-4.36,4.36,4.97,6.50,7.75,7.72,7.72
44.33,3.49,-4.21,3.49,-4.22,4.22,4.87,6.27,7.71,7.70,7.70
44.78,3.62,-4.06,3.61,-4.08,4.08,4.77,6.03,7.70,7.69,7.68
45.23,3.72,-3.94,3.72,-3.95,3.95,4.67,5.80,7.66,7.67,7.66
45.68,3.82,-3.82,3.83,-3.82,3.82,4.58,5.57,7.64,7.65,7.64
46.13,3.93,-3.69,3.93,-3.69,3.69,4.48,5.34,7.62,7.63,7.62
46.60,4.03,-3.58,4.03,-3.57,3.57,4.39,5.12,7.60,7.60,7.61
47.06,4.13,-3.46,4.13,-3.45,3.45,4.30,4.90,7.58,7.58,7.59
47.53,4.21,-3.35,4.22,-3.34,3.34,4.20,4.69,7.55,7.56,7.56
48.01,4.32,-3.23,4.31,-3.23,3.23,4.12,4.47,7.55,7.53,7.55
48.49,4.38,-3.14,4.39,-3.12,3.12,4.03,4.26,7.50,7.51,7.52
48.97,4.48,-3.01,4.47,-3.01,3.01,3.94,4.05,7.49,7.49,7.49
49.46,4.54,-2.91,4.55,-2.91,2.91,3.86,3.85,7.45,7.46,7.45
49.96,4.64,-2.78,4.63,-2.80,2.80,3.77,3.65,7.44,7.43,7.42
50.46,4.70,-2.71,4.71,-2.70,2.70,3.69,3.45,7.40,7.41,7.40
50.96,4.79,-2.59,4.78,-2.60,2.60,3.61,3.25,7.39,7.38,7.38
51.47,4.86,-2.48,4.85,-2.50,2.50,3.53,3.06,7.36,7.35,7.34
51.99,4.91,-2.41,4.92,-2.40,2.40,3.45,2.87,7.31,7.32,7.32
52.51,4.98,-2.32,4.99,-2.31,2.31,3.37,2.68,7.29,7.30,7.30
53.03,5.06,-2.21,5.06,-2.21,2.21,3.29,2.50,7.27,7.27,7.27
53.56,5.13,-2.12,5.12,-2.12,2.12,3.22,2.32,7.25,7.24,7.25
54.10,5.18,-2.04,5.19,-2.03,2.03,3.14,2.14,7.20,7.22,7.22
54.64,5.25,-1.94,5.25,-1.94,1.94,3.07,1.97,7.19,7.19,7.19
55.18,5.31,-1.85,5.32,-1.85,1.85,2.99,1.80,7.16,7.16,7.16
55.74,5.37,-1.76,5.38,-1.76,1.76,2.92,1.64,7.13,7.14,7.13
56.29,5.43,-1.68,5.44,-1.67,1.67,2.85,1.48,7.10,7.11,7.11
56.86,5.49,-1.59,5.49,-1.59,1.59,2.78,1.33,7.08,7.08,7.08
57.42,5.55,-1.50,5.55,-1.51,1.51,2.71,1.19,7.06,7.06,7.05
58.00,5.61,-1.41,5.60,-1.43,1.43,2.64,1.05,7.04,7.03,7.02
58.58,5.65,-1.35,5.65,-1.35,1.35,2.57,0.91,7.00,7.00,7.00
59.16,5.69,-1.28,5.69,-1.28,1.28,2.51,0.78,6.97,6.97,6.97
59.76,5.74,-1.21,5.73,-1.21,1.21,2.44,0.66,6.95,6.94,6.95
60.35,5.77,-1.14,5.77,-1.14,1.14,2.37,0.54,6.91,6.91,6.91
60.96,5.81,-1.08,5.80,-1.08,1.08,2.31,0.44,6.89,6.87,6.89
61.57,5.83,-1.01,5.82,-1.02,1.02,2.25,0.33,6.85,6.84,6.84
62.18,5.85,-0.95,5.85,-0.96,0.96,2.18,0.24,6.81,6.81,6.80
62.80,5.85,-0.92,5.86,-0.91,0.91,2.12,0.15,6.76,6.78,6.77
63.43,5.89,-0.84,5.88,-0.86,0.86,2.06,0.07,6.75,6.74,6.73
64.07,5.89,-0.81,5.89,-0.82,0.82,2.00,-0.01,6.71,6.71,6.70
64.71,5.89,-0.78,5.89,-0.78,0.78,1.93,-0.08,6.67,6.67,6.67
65.35,5.89,-0.75,5.90,-0.74,0.74,1.87,-0.14,6.63,6.64,6.64
66.01,5.89,-0.71,5.90,-0.70,0.70,1.81,-0.19,6.59,6.60,6.60
66.67,5.89,-0.68,5.89,-0.67,0.67,1.76,-0.24,6.56,6.57,6.57
67.33,5.89,-0.64,5.89,-0.64,0.64,1.70,-0.29,6.53,6.53,6.53
68.01,5.89,-0.61,5.88,-0.61,0.61,1.64,-0.33,6.50,6.49,6.50
68.69,5.85,-0.61,5.87,-0.59,0.59,1.58,-0.36,6.44,6.46,6.46
69.37,5.85,-0.57,5.86,-0.56,0.56,1.52,-0.40,6.41,6.42,6.42
70.07,5.85,-0.53,5.84,-0.54,0.54,1.47,-0.42,6.39,6.38,6.38
70.77,5.82,-0.53,5.82,-0.52,0.52,1.41,-0.45,6.34,6.34,6.35
71.48,5.81,-0.50,5.80,-0.50,0.50,1.35,-0.46,6.31,6.31,6.31
72.19,5.78,-0.49,5.78,-0.49,0.49,1.30,-0.48,6.27,6.27,6.27
72.91,5.76,-0.46,5.75,-0.47,0.47,1.24,-0.50,6.23,6.23,6.22
73.64,5.72,-0.46,5.72,-0.46,0.46,1.19,-0.51,6.18,6.19,6.18
74.38,5.69,-0.46,5.69,-0.45,0.45,1.13,-0.52,6.14,6.15,6.15
75.12,5.66,-0.44,5.66,-0.45,0.45,1.08,-0.53,6.11,6.11,6.10
75.87,5.63,-0.43,5.62,-0.45,0.45,1.03,-0.54,6.07,6.07,6.06
76.63,5.58,-0.44,5.58,-0.44,0.44,0.97,-0.54,6.02,6.02,6.02
77.40,5.55,-0.43,5.54,-0.44,0.44,0.92,-0.55,5.99,5.98,5.98
78.17,5.49,-0.45,5.50,-0.45,0.45,0.86,-0.55,5.94,5.94,5.93
78.95,5.45,-0.45,5.45,-0.45,0.45,0.81,-0.56,5.90,5.90,5.90
79.74,5.41,-0.45,5.41,-0.45,0.45,0.76,-0.57,5.86,5.86,5.86
80.54,5.36,-0.46,5.36,-0.46,0.46,0.71,-0.57,5.82,5.82,5.82
81.35,5.31,-0.47,5.31,-0.46,0.46,0.65,-0.58,5.77,5.77,5.78
82.16,5.26,-0.47,5.27,-0.46,0.46,0.60,-0.58,5.72,5.73,5.73
82.98,5.22,-0.48,5.22,-0.47,0.47,0.55,-0.59,5.69,5.69,5.70
83.81,5.18,-0.46,5.17,-0.47,0.47,0.50,-0.60,5.65,5.64,5.64
84.65,5.12,-0.47,5.13,-0.47,0.47,0.44,-0.61,5.59,5.60,5.59
85.50,5.09,-0.46,5.08,-0.47,0.47,0.39,-0.62,5.56,5.55,5.55
86.35,5.04,-0.46,5.04,-0.47,0.47,0.34,-0.63,5.51,5.50,5.50
87.22,4.99,-0.46,5.00,-0.46,0.46,0.29,-0.64,5.45,5.46,5.45
88.09,4.96,-0.44,4.95,-0.45,0.45,0.23,-0.65,5.41,5.41,5.40
88.97,4.91,-0.45,4.91,-0.44,0.44,0.18,-0.67,5.35,5.36,5.36
89.86,4.87,-0.44,4.88,-0.43,0.43,0.13,-0.68,5.30,5.31,5.31
90.76,4.83,-0.42,4.84,-0.42,0.42,0.08,-0.70,5.25,5.25,5.25
91.66,4.80,-0.41,4.80,-0.40,0.40,0.03,-0.72,5.20,5.20,5.21
92.58,4.77,-0.37,4.77,-0.38,0.38,-0.03,-0.73,5.15,5.15,5.14
93.51,4.74,-0.36,4.74,-0.36,0.36,-0.08,-0.75,5.10,5.09,5.10
94.44,4.71,-0.33,4.71,-0.33,0.33,-0.13,-0.77,5.04,5.04,5.04
95.39,4.68,-0.31,4.68,-0.30,0.30,-0.19,-0.80,4.98,4.98,4.99
96.34,4.65,-0.27,4.65,-0.27,0.27,-0.24,-0.82,4.92,4.93,4.92
97.30,4.64,-0.23,4.63,-0.24,0.24,-0.29,-0.84,4.88,4.87,4.87
98.28,4.59,-0.22,4.61,-0.21,0.21,-0.34,-0.87,4.80,4.81,4.81
99.26,4.59,-0.16,4.59,-0.17,0.17,-0.40,-0.89,4.76,4.75,4.75
100.25,4.55,-0.15,4.57,-0.13,0.13,-0.45,-0.92,4.68,4.70,4.70
101.25,4.55,-0.09,4.56,-0.08,0.08,-0.51,-0.95,4.63,4.64,4.64
102.27,4.55,-0.03,4.54,-0.04,0.04,-0.56,-0.97,4.59,4.58,4.58
103.29,4.55,0.04,4.53,0.01,-0.01,-0.61,-1.00,4.54,4.52,4.51
104.32,4.51,0.05,4.52,0.06,-0.06,-0.67,-1.03,4.45,4.46,4.46
105.37,4.51,0.10,4.51,0.11,-0.11,-0.72,-1.06,4.40,4.41,4.41
106.42,4.51,0.16,4.51,0.16,-0.16,-0.78,-1.09,4.35,4.35,4.35
107.48,4.51,0.22,4.51,0.22,-0.22,-0.83,-1.12,4.29,4.29,4.29
108.56,4.51,0.29,4.50,0.28,-0.28,-0.89,-1.15,4.23,4.23,4.22
109.64,4.51,0.34,4.51,0.34,-0.34,-0.95,-1.18,4.17,4.17,4.17
110.74,4.51,0.40,4.51,0.40,-0.40,-1.00,-1.21,4.11,4.10,4.11
111.85,4.51,0.46,4.51,0.47,-0.47,-1.06,-1.24,4.04,4.04,4.05
112.97,4.51,0.54,4.51,0.53,-0.53,-1.12,-1.27,3.98,3.98,3.97
114.10,4.51,0.59,4.52,0.60,-0.60,-1.17,-1.30,3.91,3.92,3.92
115.24,4.51,0.66,4.52,0.67,-0.67,-1.23,-1.33,3.84,3.85,3.85
116.39,4.55,0.76,4.53,0.74,-0.74,-1.29,-1.35,3.81,3.79,3.79
117.55,4.55,0.83,4.54,0.81,-0.81,-1.35,-1.38,3.74,3.73,3.72
118.73,4.55,0.89,4.55,0.89,-0.89,-1.41,-1.41,3.66,3.66,3.66
119.92,4.55,0.95,4.56,0.96,-0.96,-1.46,-1.43,3.59,3.60,3.60
121.12,4.59,1.05,4.58,1.04,-1.04,-1.52,-1.45,3.55,3.54,3.54
122.33,4.59,1.12,4.59,1.12,-1.12,-1.58,-1.48,3.47,3.48,3.47
123.55,4.59,1.17,4.61,1.20,-1.20,-1.64,-1.50,3.39,3.41,3.42
124.79,4.64,1.28,4.63,1.28,-1.28,-1.70,-1.52,3.36,3.35,3.36
126.03,4.64,1.34,4.65,1.35,-1.35,-1.76,-1.54,3.29,3.29,3.30
127.29,4.68,1.44,4.66,1.43,-1.43,-1.82,-1.55,3.25,3.23,3.24
128.57,4.68,1.51,4.68,1.51,-1.51,-1.88,-1.57,3.17,3.17,3.17
129.85,4.72,1.61,4.70,1.59,-1.59,-1.94,-1.58,3.13,3.11,3.11
131.15,4.72,1.67,4.72,1.67,-1.67,-2.00,-1.60,3.05,3.06,3.05
132.46,4.76,1.77,4.75,1.75,-1.75,-2.06,-1.61,3.01,3.00,2.99
133.79,4.77,1.82,4.77,1.83,-1.83,-2.12,-1.62,2.94,2.94,2.95
135.12,4.80,1.92,4.79,1.91,-1.91,-2.18,-1.63,2.89,2.89,2.88
136.48,4.81,1.97,4.82,1.99,-1.99,-2.24,-1.64,2.82,2.83,2.84
137.84,4.85,2.07,4.85,2.07,-2.07,-2.30,-1.65,2.78,2.78,2.78
139.22,4.87,2.15,4.88,2.15,-2.15,-2.36,-1.66,2.72,2.73,2.72
140.61,4.90,2.23,4.92,2.24,-2.24,-2.42,-1.67,2.66,2.68,2.67
142.02,4.95,2.32,4.96,2.33,-2.33,-2.48,-1.68,2.62,2.63,2.63
143.44,4.98,2.40,5.00,2.42,-2.42,-2.54,-1.69,2.56,2.58,2.58
144.87,5.03,2.49,5.05,2.51,-2.51,-2.60,-1.70,2.52,2.54,2.54
146.32,5.07,2.58,5.09,2.61,-2.61,-2.66,-1.71,2.46,2.49,2.49
147.78,5.13,2.68,5.14,2.70,-2.70,-2.72,-1.72,2.43,2.44,2.45
149.26,5.19,2.79,5.19,2.80,-2.80,-2.77,-1.73,2.39,2.39,2.40
150.75,5.25,2.90,5.24,2.89,-2.89,-2.83,-1.74,2.36,2.35,2.35
152.26,5.31,3.01,5.29,2.99,-2.99,-2.88,-1.75,2.32,2.30,2.30
153.78,5.35,3.09,5.33,3.08,-3.08,-2.94,-1.77,2.27,2.26,2.26
155.32,5.39,3.18,5.37,3.16,-3.16,-2.99,-1.78,2.23,2.21,2.21
156.88,5.42,3.25,5.41,3.25,-3.25,-3.04,-1.80,2.17,2.16,2.17
158.44,5.46,3.34,5.43,3.32,-3.32,-3.09,-1.81,2.14,2.12,2.12
160.03,5.46,3.39,5.46,3.39,-3.39,-3.14,-1.83,2.07,2.07,2.07
161.63,5.50,3.48,5.47,3.45,-3.45,-3.18,-1.85,2.05,2.02,2.02
163.24,5.50,3.53,5.49,3.51,-3.51,-3.23,-1.87,1.99,1.98,1.97
164.88,5.50,3.57,5.49,3.56,-3.56,-3.27,-1.90,1.94,1.93,1.93
166.53,5.50,3.61,5.49,3.61,-3.61,-3.31,-1.92,1.89,1.89,1.89
168.19,5.48,3.64,5.49,3.65,-3.65,-3.35,-1.95,1.83,1.84,1.84
169.87,5.46,3.66,5.49,3.69,-3.69,-3.39,-1.97,1.77,1.80,1.80
171.57,5.46,3.70,5.48,3.73,-3.73,-3.43,-2.00,1.73,1.75,1.76
173.29,5.46,3.75,5.47,3.77,-3.77,-3.46,-2.03,1.69,1.71,1.71
175.02,5.46,3.79,5.47,3.80,-3.80,-3.49,-2.07,1.66,1.66,1.67
176.77,5.46,3.84,5.46,3.84,-3.84,-3.52,-2.10,1.62,1.62,1.62
178.54,5.46,3.89,5.45,3.88,-3.88,-3.54,-2.14,1.58,1.58,1.57
180.32,5.43,3.90,5.45,3.91,-3.91,-3.56,-2.18,1.52,1.54,1.53
182.13,5.42,3.92,5.44,3.95,-3.95,-3.58,-2.22,1.47,1.49,1.50
183.95,5.42,3.97,5.43,3.98,-3.98,-3.60,-2.26,1.44,1.45,1.45
185.79,5.42,4.01,5.42,4.01,-4.01,-3.62,-2.30,1.41,1.41,1.41
187.65,5.42,4.05,5.40,4.03,-4.03,-3.63,-2.35,1.39,1.37,1.37
189.52,5.37,4.04,5.38,4.05,-4.05,-3.64,-2.40,1.32,1.34,1.33
191.42,5.37,4.07,5.36,4.06,-4.06,-3.64,-2.44,1.31,1.30,1.30
193.33,5.35,4.08,5.33,4.06,-4.06,-3.65,-2.49,1.29,1.26,1.27
195.27,5.31,4.08,5.29,4.06,-4.06,-3.65,-2.54,1.25,1.23,1.23
197.22,5.27,4.07,5.25,4.05,-4.05,-3.64,-2.60,1.22,1.20,1.20
199.19,5.21,4.05,5.20,4.03,-4.03,-3.64,-2.65,1.18,1.17,1.16
201.18,5.15,4.01,5.15,4.00,-4.00,-3.63,-2.70,1.15,1.14,1.14
203.19,5.09,3.97,5.09,3.97,-3.97,-3.62,-2.76,1.12,1.12,1.12
205.23,5.02,3.93,5.02,3.93,-3.93,-3.60,-2.81,1.09,1.10,1.09
207.28,4.94,3.86,4.95,3.88,-3.88,-3.59,-2.87,1.06,1.07,1.08
209.35,4.87,3.81,4.88,3.83,-3.83,-3.57,-2.92,1.04,1.05,1.06
211.44,4.78,3.75,4.80,3.77,-3.77,-3.54,-2.98,1.01,1.04,1.03
213.56,4.72,3.70,4.72,3.70,-3.70,-3.52,-3.03,1.02,1.02,1.02
215.69,4.62,3.60,4.64,3.63,-3.63,-3.49,-3.08,0.99,1.01,1.02
217.85,4.55,3.55,4.55,3.55,-3.55,-3.46,-3.13,1.00,1.00,1.00
220.03,4.46,3.47,4.45,3.46,-3.46,-3.43,-3.18,1.00,0.99,0.99
222.23,4.35,3.38,4.35,3.37,-3.37,-3.40,-3.23,0.98,0.98,0.97
224.45,4.27,3.29,4.25,3.27,-3.27,-3.36,-3.27,1.00,0.98,0.98
226.70,4.15,3.18,4.14,3.17,-3.17,-3.32,-3.31,0.98,0.97,0.97
228.96,4.03,3.06,4.02,3.05,-3.05,-3.29,-3.35,0.98,0.97,0.97
231.25,3.92,2.94,3.90,2.93,-2.93,-3.24,-3.38,0.99,0.97,0.98
233.57,3.79,2.81,3.77,2.80,-2.80,-3.20,-3.41,0.99,0.97,0.98
235.90,3.65,2.68,3.63,2.66,-2.66,-3.16,-3.44,0.99,0.97,0.97
238.26,3.52,2.55,3.48,2.51,-2.51,-3.11,-3.46,1.01,0.98,0.97
240.64,3.37,2.39,3.33,2.35,-2.35,-3.07,-3.47,1.02,0.98,0.98
243.05,3.23,2.24,3.17,2.18,-2.18,-3.02,-3.48,1.05,0.99,0.99
245.48,3.08,2.08,3.02,2.02,-2.02,-2.97,-3.49,1.06,1.00,1.00
247.93,2.94,1.93,2.87,1.86,-1.86,-2.92,-3.49,1.08,1.01,1.01
250.41,2.79,1.78,2.73,1.71,-1.71,-2.87,-3.48,1.08,1.02,1.01
252.92,2.65,1.62,2.62,1.58,-1.58,-2.82,-3.47,1.07,1.03,1.03
255.45,2.52,1.47,2.53,1.49,-1.49,-2.77,-3.45,1.03,1.05,1.05
258.00,2.41,1.34,2.48,1.42,-1.42,-2.72,-3.42,0.99,1.06,1.07
260.58,2.35,1.27,2.48,1.40,-1.40,-2.67,-3.39,0.95,1.08,1.08
263.19,2.30,1.20,2.51,1.41,-1.41,-2.61,-3.36,0.89,1.10,1.10
265.82,2.38,1.27,2.58,1.47,-1.47,-2.56,-3.32,0.91,1.11,1.11
268.48,2.48,1.35,2.70,1.57,-1.57,-2.51,-3.27,0.91,1.13,1.13
271.16,2.66,1.50,2.85,1.70,-1.70,-2.45,-3.22,0.96,1.15,1.16
273.87,2.91,1.74,3.03,1.86,-1.86,-2.40,-3.17,1.05,1.17,1.17
276.61,3.18,1.99,3.23,2.04,-2.04,-2.35,-3.11,1.14,1.19,1.19
279.38,3.47,2.26,3.44,2.23,-2.23,-2.29,-3.05,1.24,1.21,1.21
282.17,3.74,2.52,3.64,2.42,-2.42,-2.24,-2.98,1.32,1.22,1.22
284.99,4.00,2.75,3.84,2.60,-2.60,-2.18,-2.91,1.40,1.24,1.25
287.84,4.21,2.95,4.02,2.76,-2.76,-2.13,-2.84,1.45,1.26,1.26
290.72,4.37,3.09,4.17,2.89,-2.89,-2.08,-2.77,1.49,1.28,1.28
293.63,4.47,3.17,4.28,2.98,-2.98,-2.02,-2.70,1.49,1.30,1.30
296.57,4.51,3.19,4.36,3.03,-3.03,-1.97,-2.62,1.48,1.32,1.32
299.53,4.48,3.14,4.39,3.04,-3.04,-1.92,-2.54,1.44,1.35,1.34
302.53,4.43,3.08,4.38,3.02,-3.02,-1.87,-2.47,1.41,1.37,1.36
305.55,4.34,2.95,4.34,2.95,-2.95,-1.82,-2.39,1.39,1.39,1.39
308.61,4.22,2.81,4.27,2.86,-2.86,-1.76,-2.31,1.36,1.41,1.41
311.69,4.11,2.68,4.17,2.74,-2.74,-1.71,-2.23,1.37,1.43,1.43
314.81,4.01,2.54,4.06,2.60,-2.60,-1.66,-2.16,1.41,1.45,1.47
317.96,3.89,2.41,3.93,2.46,-2.46,-1.61,-2.08,1.43,1.48,1.48
321.14,3.76,2.26,3.80,2.31,-2.31,-1.56,-2.00,1.45,1.50,1.50
324.35,3.64,2.12,3.68,2.16,-2.16,-1.51,-1.93,1.48,1.52,1.52
327.59,3.52,1.98,3.56,2.02,-2.02,-1.46,-1.85,1.50,1.54,1.54
330.87,3.41,1.85,3.44,1.88,-1.88,-1.41,-1.77,1.53,1.56,1.56
334.18,3.30,1.72,3.33,1.75,-1.75,-1.36,-1.70,1.55,1.58,1.58
337.52,3.22,1.63,3.23,1.63,-1.63,-1.32,-1.63,1.59,1.60,1.59
340.90,3.12,1.50,3.13,1.51,-1.51,-1.27,-1.56,1.61,1.62,1.62
344.30,3.03,1.39,3.04,1.40,-1.40,-1.22,-1.48,1.63,1.64,1.64
347.75,2.96,1.30,2.95,1.30,-1.30,-1.17,-1.41,1.66,1.66,1.66
351.23,2.88,1.21,2.87,1.20,-1.20,-1.13,-1.35,1.68,1.67,1.67
354.74,2.80,1.11,2.80,1.10,-1.10,-1.08,-1.28,1.70,1.69,1.69
358.28,2.73,1.02,2.72,1.02,-1.02,-1.04,-1.21,1.71,1.71,1.71
361.87,2.66,0.93,2.66,0.93,-0.93,-0.99,-1.14,1.73,1.72,1.73
365.49,2.59,0.85,2.59,0.85,-0.85,-0.95,-1.08,1.74,1.74,1.74
369.14,2.53,0.78,2.53,0.78,-0.78,-0.90,-1.02,1.75,1.76,1.75
372.83,2.47,0.70,2.47,0.70,-0.70,-0.86,-0.95,1.77,1.77,1.77
376.56,2.41,0.63,2.42,0.63,-0.63,-0.81,-0.89,1.78,1.78,1.78
380.33,2.36,0.55,2.37,0.57,-0.57,-0.77,-0.83,1.79,1.80,1.81
384.13,2.32,0.51,2.32,0.51,-0.51,-0.73,-0.77,1.81,1.81,1.81
387.97,2.28,0.46,2.27,0.45,-0.45,-0.68,-0.71,1.83,1.82,1.82
391.85,2.23,0.40,2.23,0.39,-0.39,-0.64,-0.65,1.84,1.83,1.83
395.77,2.19,0.34,2.19,0.34,-0.34,-0.60,-0.60,1.85,1.85,1.85
399.73,2.14,0.28,2.15,0.29,-0.29,-0.56,-0.54,1.85,1.86,1.86
403.72,2.11,0.24,2.12,0.25,-0.25,-0.51,-0.49,1.86,1.87,1.87
407.76,2.08,0.21,2.09,0.21,-0.21,-0.47,-0.43,1.87,1.88,1.87
411.84,2.05,0.16,2.05,0.17,-0.17,-0.43,-0.38,1.88,1.89,1.89
415.96,2.04,0.14,2.03,0.13,-0.13,-0.39,-0.32,1.91,1.90,1.90
420.12,1.99,0.08,2.00,0.09,-0.09,-0.35,-0.27,1.90,1.91,1.91
424.32,1.98,0.06,1.98,0.06,-0.06,-0.31,-0.22,1.92,1.92,1.92
428.56,1.95,0.02,1.95,0.02,-0.02,-0.27,-0.17,1.93,1.93,1.93
432.85,1.94,0.00,1.93,-0.01,0.01,-0.23,-0.12,1.95,1.94,1.94
437.18,1.91,-0.04,1.91,-0.04,0.04,-0.19,-0.07,1.95,1.95,1.95
441.55,1.91,-0.05,1.89,-0.07,0.07,-0.14,-0.02,1.98,1.96,1.96
445.96,1.86,-0.11,1.87,-0.10,0.10,-0.10,0.03,1.96,1.98,1.97
450.42,1.86,-0.12,1.85,-0.14,0.14,-0.06,0.07,2.00,1.99,1.98
454.93,1.82,-0.18,1.84,-0.17,0.17,-0.02,0.12,1.99,2.00,2.00
459.48,1.82,-0.19,1.82,-0.20,0.20,0.02,0.16,2.02,2.01,2.01
464.07,1.78,-0.25,1.80,-0.23,0.23,0.06,0.21,2.01,2.03,2.03
468.71,1.78,-0.27,1.79,-0.26,0.26,0.10,0.25,2.04,2.04,2.05
473.40,1.78,-0.28,1.77,-0.29,0.29,0.14,0.30,2.07,2.06,2.06
478.13,1.78,-0.30,1.75,-0.32,0.32,0.18,0.34,2.10,2.07,2.08
482.91,1.73,-0.36,1.74,-0.35,0.35,0.22,0.38,2.08,2.09,2.09
487.74,1.73,-0.38,1.72,-0.38,0.38,0.26,0.42,2.11,2.10,2.11
492.62,1.69,-0.44,1.71,-0.41,0.41,0.30,0.46,2.10,2.12,2.13
497.55,1.69,-0.44,1.69,-0.45,0.45,0.34,0.50,2.14,2.14,2.13
502.52,1.69,-0.46,1.67,-0.48,0.48,0.38,0.54,2.17,2.15,2.15
507.55,1.65,-0.51,1.66,-0.51,0.51,0.42,0.58,2.16,2.17,2.16
512.62,1.65,-0.53,1.64,-0.55,0.55,0.46,0.62,2.20,2.19,2.18
517.75,1.60,-0.60,1.62,-0.58,0.58,0.50,0.66,2.18,2.20,2.20
522.93,1.60,-0.62,1.60,-0.62,0.62,0.54,0.70,2.22,2.22,2.22
