frequency,raw,error,smoothed,error_smoothed,equalization,parametric_eq,fixed_band_eq,equalized_raw,equalized_smoothed,target
20.00,9.17,-0.68,9.09,-0.77,0.77,0.60,-0.08,9.94,9.86,9.85
20.20,9.19,-0.65,9.15,-0.69,0.69,0.58,-0.08,9.89,9.84,9.84
20.40,9.22,-0.61,9.21,-0.62,0.62,0.56,-0.09,9.85,9.84,9.83
20.61,9.24,-0.59,9.27,-0.56,0.56,0.55,-0.09,9.80,9.83,9.83
20.81,9.27,-0.54,9.32,-0.49,0.49,0.53,-0.09,9.77,9.82,9.81
21.02,9.30,-0.51,9.38,-0.43,0.43,0.51,-0.09,9.74,9.81,9.81
21.23,9.35,-0.45,9.42,-0.38,0.38,0.49,-0.09,9.73,9.80,9.80
21.44,9.41,-0.40,9.47,-0.33,0.33,0.47,-0.09,9.74,9.79,9.81
21.66,9.46,-0.34,9.51,-0.28,0.28,0.45,-0.09,9.74,9.79,9.80
21.87,9.52,-0.27,9.55,-0.23,0.23,0.43,-0.09,9.76,9.78,9.79
22.09,9.58,-0.20,9.59,-0.19,0.19,0.41,-0.10,9.78,9.78,9.78
22.31,9.64,-0.14,9.62,-0.15,0.15,0.38,-0.10,9.80,9.77,9.78
22.54,9.70,-0.07,9.65,-0.12,0.12,0.36,-0.10,9.82,9.77,9.77
22.76,9.76,0.00,9.68,-0.08,0.08,0.34,-0.10,9.85,9.76,9.76
22.99,9.82,0.07,9.70,-0.06,0.06,0.32,-0.10,9.88,9.76,9.75
23.22,9.79,0.05,9.72,-0.03,0.03,0.29,-0.10,9.83,9.76,9.74
23.45,9.75,0.00,9.74,-0.01,0.01,0.27,-0.10,9.76,9.75,9.75
23.69,9.72,-0.02,9.76,0.01,-0.01,0.24,-0.11,9.72,9.75,9.74
23.92,9.68,-0.06,9.77,0.02,-0.02,0.22,-0.11,9.66,9.75,9.74
24.16,9.69,-0.06,9.78,0.04,-0.04,0.20,-0.11,9.66,9.75,9.75
24.40,9.73,-0.03,9.80,0.05,-0.05,0.17,-0.11,9.69,9.75,9.76
24.65,9.76,0.00,9.80,0.05,-0.05,0.15,-0.11,9.71,9.75,9.76
24.89,9.80,0.04,9.81,0.06,-0.06,0.12,-0.12,9.74,9.75,9.76
25.14,9.83,0.08,9.83,0.07,-0.07,0.10,-0.12,9.76,9.75,9.75
25.39,9.87,0.12,9.84,0.09,-0.09,0.07,-0.12,9.79,9.76,9.75
25.65,9.90,0.15,9.87,0.11,-0.11,0.05,-0.12,9.80,9.76,9.75
25.91,9.94,0.18,9.90,0.13,-0.13,0.02,-0.13,9.81,9.76,9.76
26.16,9.95,0.18,9.92,0.16,-0.16,-0.00,-0.13,9.79,9.76,9.77
26.43,9.95,0.18,9.95,0.18,-0.18,-0.03,-0.13,9.77,9.76,9.77
26.69,9.95,0.18,9.97,0.21,-0.21,-0.05,-0.14,9.75,9.76,9.77
26.96,9.95,0.19,9.99,0.22,-0.22,-0.08,-0.14,9.73,9.76,9.76
27.23,9.98,0.22,10.00,0.24,-0.24,-0.10,-0.15,9.75,9.76,9.76
27.50,10.01,0.25,10.01,0.25,-0.25,-0.13,-0.15,9.77,9.76,9.76
27.77,10.04,0.27,10.02,0.26,-0.26,-0.16,-0.16,9.78,9.76,9.77
28.05,10.06,0.29,10.04,0.27,-0.27,-0.18,-0.16,9.79,9.76,9.77
28.33,10.06,0.31,10.06,0.29,-0.29,-0.21,-0.17,9.77,9.76,9.75
28.62,10.06,0.31,10.07,0.31,-0.31,-0.23,-0.18,9.75,9.76,9.75
28.90,10.06,0.30,10.09,0.34,-0.34,-0.26,-0.19,9.73,9.76,9.76
29.19,10.08,0.32,10.12,0.36,-0.36,-0.28,-0.20,9.72,9.76,9.76
29.48,10.11,0.36,10.14,0.39,-0.39,-0.31,-0.20,9.72,9.75,9.75
29.78,10.14,0.39,10.16,0.41,-0.41,-0.33,-0.22,9.73,9.75,9.75
30.08,10.17,0.41,10.18,0.43,-0.43,-0.36,-0.23,9.74,9.75,9.76
30.38,10.20,0.45,10.19,0.45,-0.45,-0.39,-0.24,9.76,9.74,9.75
30.68,10.23,0.50,10.19,0.46,-0.46,-0.41,-0.25,9.77,9.73,9.73
30.99,10.26,0.53,10.21,0.48,-0.48,-0.44,-0.27,9.78,9.73,9.73
31.30,10.26,0.54,10.22,0.50,-0.50,-0.46,-0.28,9.76,9.72,9.72
31.61,10.26,0.55,10.23,0.52,-0.52,-0.49,-0.30,9.74,9.71,9.71
31.93,10.26,0.56,10.25,0.54,-0.54,-0.52,-0.31,9.72,9.71,9.70
32.24,10.24,0.54,10.26,0.56,-0.56,-0.54,-0.33,9.68,9.70,9.70
32.57,10.21,0.53,10.27,0.58,-0.58,-0.57,-0.35,9.63,9.69,9.68
32.89,10.19,0.51,10.28,0.60,-0.60,-0.59,-0.37,9.60,9.69,9.68
33.22,10.22,0.54,10.29,0.61,-0.61,-0.62,-0.39,9.61,9.68,9.68
33.55,10.28,0.61,10.30,0.62,-0.62,-0.65,-0.41,9.66,9.68,9.67
33.89,10.34,0.66,10.30,0.63,-0.63,-0.67,-0.43,9.71,9.67,9.68
34.23,10.36,0.70,10.31,0.64,-0.64,-0.70,-0.46,9.73,9.67,9.66
34.57,10.36,0.70,10.31,0.65,-0.65,-0.72,-0.48,9.71,9.66,9.66
34.92,10.36,0.71,10.32,0.67,-0.67,-0.75,-0.51,9.70,9.66,9.65
35.27,10.36,0.70,10.34,0.69,-0.69,-0.78,-0.53,9.68,9.65,9.66
35.62,10.36,0.72,10.35,0.71,-0.71,-0.80,-0.56,9.65,9.64,9.64
35.97,10.36,0.72,10.37,0.74,-0.74,-0.83,-0.59,9.63,9.63,9.64
36.33,10.34,0.72,10.38,0.76,-0.76,-0.86,-0.62,9.58,9.62,9.62
36.70,10.32,0.71,10.39,0.79,-0.79,-0.89,-0.65,9.54,9.60,9.61
37.06,10.31,0.72,10.40,0.81,-0.81,-0.91,-0.68,9.50,9.58,9.59
37.43,10.37,0.80,10.40,0.84,-0.84,-0.94,-0.71,9.54,9.57,9.57
37.81,10.43,0.88,10.41,0.86,-0.86,-0.97,-0.74,9.57,9.54,9.55
38.19,10.46,0.94,10.42,0.90,-0.90,-1.00,-0.77,9.57,9.52,9.52
38.57,10.46,0.96,10.43,0.93,-0.93,-1.02,-0.81,9.53,9.50,9.50
38.95,10.46,0.99,10.44,0.97,-0.97,-1.05,-0.84,9.50,9.47,9.47
39.34,10.46,1.03,10.45,1.01,-1.01,-1.08,-0.88,9.46,9.44,9.43
39.74,10.46,1.05,10.46,1.04,-1.04,-1.11,-0.91,9.42,9.42,9.41
40.14,10.46,1.08,10.47,1.08,-1.08,-1.14,-0.95,9.39,9.39,9.38
40.54,10.46,1.10,10.47,1.11,-1.11,-1.17,-0.99,9.35,9.36,9.36
40.94,10.46,1.13,10.47,1.14,-1.14,-1.20,-1.03,9.33,9.33,9.33
41.35,10.46,1.15,10.47,1.16,-1.16,-1.22,-1.07,9.30,9.31,9.31
41.76,10.46,1.19,10.46,1.18,-1.18,-1.25,-1.11,9.28,9.28,9.27
42.18,10.46,1.21,10.46,1.20,-1.20,-1.28,-1.15,9.26,9.25,9.25
42.60,10.46,1.23,10.46,1.23,-1.23,-1.31,-1.19,9.23,9.23,9.23
43.03,10.46,1.26,10.46,1.26,-1.26,-1.34,-1.23,9.20,9.20,9.20
43.46,10.46,1.29,10.47,1.29,-1.29,-1.37,-1.28,9.17,9.17,9.17
43.90,10.46,1.31,10.47,1.33,-1.33,-1.41,-1.32,9.14,9.15,9.15
44.33,10.45,1.34,10.48,1.37,-1.37,-1.44,-1.37,9.09,9.12,9.11
44.78,10.43,1.35,10.49,1.40,-1.40,-1.47,-1.42,9.03,9.09,9.08
45.23,10.45,1.38,10.50,1.45,-1.45,-1.50,-1.47,9.01,9.05,9.07
45.68,10.52,1.50,10.51,1.49,-1.49,-1.53,-1.52,9.03,9.02,9.02
46.13,10.56,1.58,10.52,1.54,-1.54,-1.56,-1.57,9.03,8.98,8.98
46.60,10.56,1.61,10.53,1.59,-1.59,-1.60,-1.62,8.98,8.94,8.95
47.06,10.56,1.65,10.54,1.64,-1.64,-1.63,-1.67,8.93,8.90,8.91
47.53,10.56,1.68,10.55,1.69,-1.69,-1.66,-1.72,8.88,8.86,8.88
48.01,10.56,1.74,10.56,1.74,-1.74,-1.69,-1.78,8.83,8.82,8.82
48.49,10.56,1.79,10.56,1.79,-1.79,-1.73,-1.83,8.78,8.78,8.77
48.97,10.56,1.83,10.57,1.84,-1.84,-1.76,-1.89,8.73,8.73,8.73
49.46,10.56,1.87,10.57,1.89,-1.89,-1.80,-1.94,8.68,8.69,8.69
49.96,10.56,1.94,10.57,1.93,-1.93,-1.83,-2.00,8.63,8.64,8.62
50.46,10.56,1.98,10.57,1.98,-1.98,-1.86,-2.06,8.59,8.59,8.58
50.96,10.56,2.02,10.57,2.02,-2.02,-1.90,-2.12,8.54,8.55,8.54
51.47,10.56,2.06,10.56,2.06,-2.06,-1.94,-2.17,8.50,8.50,8.50
51.99,10.56,2.11,10.56,2.11,-2.11,-1.97,-2.23,8.45,8.45,8.45
52.51,10.56,2.15,10.56,2.16,-2.16,-2.01,-2.29,8.40,8.41,8.41
53.03,10.56,2.18,10.57,2.21,-2.21,-2.04,-2.35,8.35,8.36,8.38
53.56,10.56,2.24,10.57,2.26,-2.26,-2.08,-2.41,8.31,8.31,8.32
54.10,10.56,2.29,10.57,2.30,-2.30,-2.12,-2.47,8.26,8.27,8.27
54.64,10.56,2.33,10.57,2.34,-2.34,-2.15,-2.52,8.22,8.23,8.23
55.18,10.56,2.39,10.57,2.38,-2.38,-2.19,-2.58,8.18,8.18,8.17
55.74,10.56,2.44,10.56,2.42,-2.42,-2.23,-2.64,8.14,8.14,8.12
56.29,10.56,2.47,10.56,2.46,-2.46,-2.27,-2.69,8.11,8.10,8.09
56.86,10.56,2.51,10.55,2.49,-2.49,-2.31,-2.75,8.07,8.06,8.05
57.42,10.57,2.58,10.54,2.53,-2.53,-2.35,-2.80,8.04,8.01,7.99
58.00,10.58,2.62,10.53,2.57,-2.57,-2.39,-2.85,8.02,7.96,7.96
58.58,10.53,2.60,10.52,2.61,-2.61,-2.42,-2.90,7.93,7.92,7.93
59.16,10.49,2.60,10.51,2.64,-2.64,-2.46,-2.94,7.85,7.87,7.89
59.76,10.47,2.62,10.50,2.69,-2.69,-2.51,-2.99,7.79,7.82,7.85
60.35,10.46,2.68,10.49,2.73,-2.73,-2.55,-3.03,7.74,7.77,7.78
60.96,10.46,2.73,10.48,2.77,-2.77,-2.59,-3.07,7.69,7.71,7.73
61.57,10.46,2.80,10.48,2.82,-2.82,-2.63,-3.11,7.65,7.66,7.66
62.18,10.46,2.87,10.47,2.86,-2.86,-2.67,-3.15,7.60,7.60,7.59
62.80,10.46,2.93,10.46,2.92,-2.92,-2.71,-3.18,7.55,7.55,7.53
63.43,10.46,2.99,10.46,2.97,-2.97,-2.75,-3.21,7.49,7.49,7.47
64.07,10.46,3.04,10.46,3.03,-3.03,-2.80,-3.24,7.44,7.43,7.42
64.71,10.46,3.10,10.46,3.09,-3.09,-2.84,-3.27,7.37,7.37,7.36
65.35,10.46,3.16,10.46,3.15,-3.15,-2.88,-3.30,7.31,7.31,7.30
66.01,10.46,3.22,10.47,3.22,-3.22,-2.93,-3.32,7.24,7.24,7.24
66.67,10.46,3.26,10.47,3.29,-3.29,-2.97,-3.34,7.18,7.18,7.20
67.33,10.46,3.34,10.48,3.35,-3.35,-3.02,-3.36,7.11,7.12,7.12
68.01,10.46,3.39,10.48,3.42,-3.42,-3.06,-3.38,7.05,7.06,7.07
68.69,10.46,3.46,10.48,3.47,-3.47,-3.11,-3.40,6.99,7.00,7.00
69.37,10.46,3.51,10.47,3.53,-3.53,-3.15,-3.42,6.93,6.94,6.95
70.07,10.46,3.58,10.46,3.58,-3.58,-3.20,-3.43,6.88,6.88,6.88
70.77,10.46,3.64,10.45,3.63,-3.63,-3.24,-3.45,6.83,6.81,6.82
71.48,10.46,3.71,10.43,3.68,-3.68,-3.29,-3.47,6.78,6.75,6.75
72.19,10.46,3.78,10.41,3.73,-3.73,-3.34,-3.48,6.74,6.68,6.68
72.91,10.46,3.84,10.39,3.77,-3.77,-3.38,-3.50,6.69,6.62,6.62
73.64,10.40,3.85,10.38,3.82,-3.82,-3.43,-3.52,6.59,6.56,6.55
74.38,10.33,3.84,10.36,3.86,-3.86,-3.48,-3.53,6.47,6.50,6.49
75.12,10.28,3.86,10.34,3.90,-3.90,-3.53,-3.55,6.38,6.44,6.42
75.87,10.25,3.87,10.32,3.94,-3.94,-3.58,-3.57,6.31,6.38,6.38
76.63,10.26,3.95,10.30,3.98,-3.98,-3.62,-3.60,6.28,6.32,6.31
77.40,10.26,4.00,10.29,4.03,-4.03,-3.67,-3.62,6.24,6.26,6.26
78.17,10.26,4.06,10.28,4.07,-4.07,-3.72,-3.65,6.19,6.21,6.20
78.95,10.26,4.10,10.27,4.12,-4.12,-3.77,-3.68,6.15,6.15,6.16
79.74,10.26,4.16,10.26,4.17,-4.17,-3.82,-3.71,6.10,6.10,6.10
80.54,10.26,4.22,10.26,4.21,-4.21,-3.87,-3.74,6.05,6.04,6.04
81.35,10.26,4.27,10.25,4.26,-4.26,-3.92,-3.77,6.00,5.99,5.99
82.16,10.26,4.32,10.24,4.31,-4.31,-3.97,-3.81,5.95,5.93,5.94
82.98,10.26,4.38,10.24,4.36,-4.36,-4.02,-3.85,5.90,5.87,5.88
83.81,10.26,4.44,10.23,4.41,-4.41,-4.07,-3.90,5.86,5.82,5.82
84.65,10.24,4.48,10.21,4.45,-4.45,-4.12,-3.94,5.79,5.76,5.76
85.50,10.20,4.51,10.19,4.49,-4.49,-4.17,-3.99,5.71,5.70,5.69
86.35,10.16,4.53,10.17,4.54,-4.54,-4.23,-4.04,5.63,5.64,5.63
87.22,10.16,4.58,10.16,4.58,-4.58,-4.28,-4.10,5.58,5.58,5.58
88.09,10.14,4.63,10.15,4.63,-4.63,-4.33,-4.16,5.51,5.52,5.51
88.97,10.06,4.60,10.13,4.68,-4.68,-4.38,-4.22,5.39,5.45,5.46
89.86,10.06,4.68,10.12,4.73,-4.73,-4.43,-4.28,5.34,5.39,5.38
90.76,10.06,4.74,10.10,4.78,-4.78,-4.49,-4.35,5.28,5.32,5.32
91.66,10.06,4.81,10.08,4.83,-4.83,-4.54,-4.42,5.24,5.25,5.25
92.58,10.06,4.87,10.06,4.88,-4.88,-4.59,-4.50,5.19,5.18,5.19
93.51,10.06,4.94,10.04,4.93,-4.93,-4.64,-4.57,5.13,5.11,5.12
94.44,10.06,5.01,10.02,4.98,-4.98,-4.69,-4.65,5.08,5.04,5.05
95.39,10.07,5.10,10.00,5.04,-5.04,-4.75,-4.74,5.03,4.96,4.97
96.34,10.03,5.14,9.98,5.10,-5.10,-4.80,-4.82,4.93,4.88,4.89
97.30,9.95,5.14,9.96,5.15,-5.15,-4.85,-4.91,4.80,4.80,4.81
98.28,9.93,5.21,9.93,5.21,-5.21,-4.91,-5.00,4.73,4.73,4.72
99.26,9.88,5.25,9.91,5.26,-5.26,-4.96,-5.09,4.62,4.64,4.63
100.25,9.81,5.26,9.87,5.31,-5.31,-5.01,-5.19,4.50,4.56,4.55
101.25,9.79,5.31,9.84,5.36,-5.36,-5.06,-5.29,4.44,4.48,4.48
102.27,9.78,5.39,9.80,5.40,-5.40,-5.12,-5.38,4.38,4.40,4.39
103.29,9.77,5.46,9.76,5.45,-5.45,-5.17,-5.48,4.33,4.31,4.31
104.32,9.75,5.51,9.72,5.48,-5.48,-5.22,-5.59,4.27,4.23,4.24
105.37,9.71,5.55,9.67,5.52,-5.52,-5.27,-5.69,4.19,4.15,4.16
106.42,9.63,5.56,9.63,5.56,-5.56,-5.33,-5.79,4.08,4.07,4.07
107.48,9.57,5.59,9.59,5.60,-5.60,-5.38,-5.89,3.98,3.99,3.98
108.56,9.55,5.63,9.55,5.64,-5.64,-5.43,-5.99,3.92,3.91,3.92
109.64,9.53,5.70,9.51,5.68,-5.68,-5.48,-6.08,3.86,3.83,3.83
110.74,9.49,5.74,9.48,5.72,-5.72,-5.54,-6.18,3.77,3.76,3.75
111.85,9.40,5.72,9.44,5.76,-5.76,-5.59,-6.27,3.64,3.68,3.68
112.97,9.38,5.77,9.40,5.79,-5.79,-5.64,-6.36,3.59,3.61,3.61
114.10,9.33,5.79,9.36,5.83,-5.83,-5.69,-6.45,3.51,3.53,3.54
115.24,9.27,5.81,9.32,5.86,-5.86,-5.74,-6.53,3.41,3.46,3.46
116.39,9.28,5.90,9.29,5.90,-5.90,-5.79,-6.61,3.38,3.39,3.38
117.55,9.28,5.96,9.27,5.95,-5.95,-5.84,-6.68,3.34,3.32,3.32
118.73,9.28,6.04,9.25,5.99,-5.99,-5.89,-6.74,3.29,3.26,3.24
119.92,9.23,6.05,9.22,6.03,-6.03,-5.94,-6.80,3.20,3.19,3.18
121.12,9.20,6.07,9.20,6.07,-6.07,-5.99,-6.85,3.13,3.13,3.13
122.33,9.16,6.10,9.18,6.11,-6.11,-6.04,-6.89,3.05,3.06,3.06
123.55,9.12,6.11,9.16,6.16,-6.16,-6.08,-6.93,2.97,3.00,3.01
124.79,9.12,6.17,9.14,6.20,-6.20,-6.13,-6.96,2.92,2.94,2.95
126.03,9.13,6.25,9.11,6.24,-6.24,-6.18,-6.98,2.90,2.88,2.88
127.29,9.13,6.31,9.09,6.28,-6.28,-6.22,-6.99,2.86,2.82,2.82
128.57,9.10,6.34,9.07,6.31,-6.31,-6.27,-6.99,2.79,2.76,2.76
129.85,9.05,6.36,9.05,6.35,-6.35,-6.32,-6.99,2.71,2.70,2.69
131.15,8.99,6.36,9.02,6.39,-6.39,-6.36,-6.98,2.61,2.64,2.63
132.46,8.96,6.39,9.00,6.43,-6.43,-6.40,-6.96,2.54,2.58,2.57
133.79,8.96,6.45,8.98,6.47,-6.47,-6.45,-6.94,2.50,2.52,2.51
135.12,8.96,6.51,8.96,6.50,-6.50,-6.49,-6.91,2.46,2.46,2.45
136.48,8.93,6.52,8.94,6.54,-6.54,-6.53,-6.88,2.40,2.40,2.41
137.84,8.88,6.53,8.91,6.57,-6.57,-6.57,-6.84,2.31,2.34,2.35
139.22,8.88,6.61,8.87,6.59,-6.59,-6.61,-6.80,2.29,2.28,2.27
140.61,8.87,6.64,8.84,6.61,-6.61,-6.65,-6.76,2.26,2.22,2.23
142.02,8.84,6.67,8.81,6.64,-6.64,-6.69,-6.71,2.21,2.17,2.17
143.44,8.79,6.69,8.77,6.66,-6.66,-6.73,-6.66,2.13,2.11,2.10
144.87,8.77,6.72,8.74,6.69,-6.69,-6.76,-6.61,2.09,2.06,2.05
146.32,8.70,6.70,8.71,6.71,-6.71,-6.80,-6.56,2.00,2.00,2.00
147.78,8.65,6.71,8.67,6.73,-6.73,-6.83,-6.51,1.93,1.94,1.94
149.26,8.60,6.71,8.63,6.74,-6.74,-6.87,-6.46,1.86,1.89,1.89
150.75,8.57,6.75,8.59,6.76,-6.76,-6.90,-6.42,1.81,1.83,1.82
152.26,8.51,6.73,8.56,6.78,-6.78,-6.93,-6.37,1.73,1.77,1.78
153.78,8.47,6.75,8.51,6.80,-6.80,-6.96,-6.32,1.68,1.72,1.72
155.32,8.47,6.80,8.47,6.81,-6.81,-6.99,-6.28,1.67,1.66,1.67
156.88,8.47,6.86,8.43,6.82,-6.82,-7.02,-6.24,1.65,1.60,1.61
158.44,8.40,6.85,8.39,6.84,-6.84,-7.04,-6.20,1.56,1.55,1.55
160.03,8.37,6.88,8.35,6.86,-6.86,-7.07,-6.17,1.51,1.49,1.49
161.63,8.33,6.90,8.31,6.88,-6.88,-7.09,-6.14,1.45,1.43,1.43
163.24,8.28,6.92,8.27,6.90,-6.90,-7.11,-6.11,1.38,1.37,1.36
164.88,8.20,6.89,8.23,6.92,-6.92,-7.13,-6.09,1.28,1.31,1.31
166.53,8.17,6.93,8.19,6.94,-6.94,-7.15,-6.07,1.23,1.25,1.24
168.19,8.12,6.93,8.14,6.96,-6.96,-7.17,-6.06,1.17,1.19,1.19
169.87,8.05,6.92,8.09,6.97,-6.97,-7.19,-6.05,1.08,1.13,1.13
171.57,8.04,6.98,8.04,6.98,-6.98,-7.20,-6.04,1.07,1.07,1.06
173.29,8.03,7.03,8.00,6.99,-6.99,-7.22,-6.04,1.05,1.01,1.00
175.02,7.99,7.04,7.95,7.00,-7.00,-7.23,-6.04,0.99,0.95,0.95
176.77,7.93,7.03,7.91,7.01,-7.01,-7.24,-6.05,0.92,0.90,0.90
178.54,7.84,7.00,7.87,7.03,-7.03,-7.25,-6.06,0.81,0.84,0.84
180.32,7.82,7.04,7.84,7.05,-7.05,-7.26,-6.08,0.78,0.79,0.78
182.13,7.79,7.05,7.80,7.06,-7.06,-7.27,-6.10,0.73,0.74,0.74
183.95,7.74,7.05,7.77,7.08,-7.08,-7.27,-6.13,0.67,0.69,0.69
185.79,7.69,7.05,7.74,7.09,-7.09,-7.27,-6.16,0.60,0.64,0.64
187.65,7.66,7.06,7.71,7.11,-7.11,-7.28,-6.20,0.55,0.60,0.60
189.52,7.68,7.13,7.67,7.12,-7.12,-7.28,-6.23,0.56,0.55,0.55
191.42,7.68,7.16,7.64,7.13,-7.13,-7.28,-6.28,0.55,0.51,0.52
193.33,7.63,7.16,7.60,7.14,-7.14,-7.27,-6.33,0.50,0.46,0.47
195.27,7.58,7.16,7.57,7.14,-7.14,-7.27,-6.38,0.44,0.42,0.42
197.22,7.54,7.17,7.53,7.15,-7.15,-7.26,-6.43,0.39,0.38,0.37
199.19,7.48,7.14,7.50,7.16,-7.16,-7.25,-6.49,0.33,0.34,0.34
201.18,7.45,7.16,7.45,7.15,-7.15,-7.25,-6.55,0.30,0.30,0.29
203.19,7.43,7.17,7.41,7.15,-7.15,-7.23,-6.61,0.29,0.26,0.26
205.23,7.38,7.16,7.36,7.15,-7.15,-7.22,-6.68,0.24,0.22,0.22
207.28,7.30,7.11,7.31,7.14,-7.14,-7.21,-6.75,0.17,0.18,0.19
209.35,7.24,7.09,7.26,7.12,-7.12,-7.19,-6.82,0.12,0.14,0.15
211.44,7.18,7.08,7.21,7.10,-7.10,-7.18,-6.89,0.08,0.10,0.10
213.56,7.15,7.08,7.15,7.09,-7.09,-7.16,-6.96,0.07,0.06,0.07
215.69,7.11,7.08,7.10,7.07,-7.07,-7.14,-7.03,0.04,0.03,0.03
217.85,7.04,7.04,7.05,7.05,-7.05,-7.12,-7.10,-0.01,-0.00,0.00
220.03,6.97,7.02,7.00,7.03,-7.03,-7.09,-7.16,-0.06,-0.04,-0.05
222.23,6.93,7.00,6.95,7.01,-7.01,-7.07,-7.23,-0.08,-0.07,-0.07
224.45,6.94,7.04,6.89,6.99,-6.99,-7.04,-7.29,-0.04,-0.09,-0.10
226.70,6.86,6.99,6.85,6.97,-6.97,-7.02,-7.35,-0.10,-0.12,-0.13
228.96,6.74,6.89,6.80,6.95,-6.95,-6.99,-7.40,-0.20,-0.14,-0.15
231.25,6.75,6.91,6.76,6.92,-6.92,-6.96,-7.45,-0.17,-0.16,-0.16
233.57,6.74,6.93,6.71,6.89,-6.89,-6.92,-7.49,-0.14,-0.18,-0.19
235.90,6.64,6.84,6.66,6.86,-6.86,-6.89,-7.52,-0.21,-0.19,-0.20
238.26,6.59,6.81,6.62,6.83,-6.83,-6.86,-7.55,-0.24,-0.21,-0.22
240.64,6.60,6.81,6.58,6.80,-6.80,-6.82,-7.57,-0.20,-0.22,-0.21
243.05,6.56,6.78,6.54,6.77,-6.77,-6.79,-7.58,-0.21,-0.23,-0.22
245.48,6.47,6.71,6.51,6.74,-6.74,-6.75,-7.58,-0.27,-0.23,-0.24
247.93,6.46,6.71,6.47,6.71,-6.71,-6.71,-7.57,-0.25,-0.24,-0.25
250.41,6.45,6.69,6.43,6.67,-6.67,-6.67,-7.55,-0.22,-0.25,-0.24
252.92,6.34,6.58,6.39,6.65,-6.65,-6.63,-7.52,-0.30,-0.26,-0.24
255.45,6.31,6.57,6.35,6.62,-6.62,-6.58,-7.49,-0.30,-0.26,-0.26
258.00,6.31,6.58,6.30,6.58,-6.58,-6.54,-7.44,-0.27,-0.27,-0.27
260.58,6.32,6.60,6.26,6.54,-6.54,-6.49,-7.38,-0.22,-0.28,-0.28
263.19,6.26,6.55,6.21,6.51,-6.51,-6.45,-7.32,-0.24,-0.30,-0.29
265.82,6.14,6.45,6.16,6.47,-6.47,-6.40,-7.25,-0.32,-0.31,-0.31
268.48,6.12,6.43,6.10,6.42,-6.42,-6.35,-7.16,-0.30,-0.32,-0.31
271.16,6.08,6.41,6.05,6.38,-6.38,-6.30,-7.08,-0.30,-0.33,-0.33
273.87,5.95,6.29,5.99,6.34,-6.34,-6.26,-6.98,-0.38,-0.34,-0.34
276.61,5.91,6.27,5.93,6.29,-6.29,-6.20,-6.88,-0.37,-0.36,-0.36
279.38,5.89,6.28,5.87,6.24,-6.24,-6.15,-6.78,-0.34,-0.37,-0.39
282.17,5.77,6.16,5.81,6.19,-6.19,-6.10,-6.67,-0.42,-0.38,-0.39
284.99,5.72,6.11,5.75,6.13,-6.13,-6.05,-6.56,-0.41,-0.38,-0.39
287.84,5.67,6.06,5.69,6.08,-6.08,-5.99,-6.44,-0.41,-0.39,-0.39
290.72,5.63,6.04,5.63,6.03,-6.03,-5.94,-6.33,-0.39,-0.40,-0.41
293.63,5.56,5.96,5.58,5.98,-5.98,-5.88,-6.21,-0.41,-0.40,-0.40
296.57,5.52,5.92,5.52,5.93,-5.93,-5.83,-6.09,-0.40,-0.41,-0.40
299.53,5.48,5.89,5.46,5.87,-5.87,-5.77,-5.97,-0.38,-0.41,-0.41
302.53,5.40,5.80,5.40,5.81,-5.81,-5.71,-5.85,-0.41,-0.41,-0.40
305.55,5.36,5.77,5.36,5.77,-5.77,-5.65,-5.73,-0.41,-0.41,-0.41
308.61,5.31,5.71,5.31,5.72,-5.72,-5.59,-5.62,-0.40,-0.41,-0.40
311.69,5.25,5.67,5.25,5.67,-5.67,-5.54,-5.50,-0.41,-0.41,-0.42
314.81,5.19,5.60,5.20,5.62,-5.62,-5.48,-5.39,-0.42,-0.42,-0.41
317.96,5.13,5.56,5.14,5.56,-5.56,-5.41,-5.28,-0.43,-0.42,-0.43
321.14,5.06,5.48,5.08,5.50,-5.50,-5.35,-5.17,-0.44,-0.42,-0.42
324.35,5.01,5.44,5.02,5.44,-5.44,-5.29,-5.06,-0.43,-0.42,-0.43
327.59,4.90,5.32,4.95,5.38,-5.38,-5.23,-4.96,-0.47,-0.43,-0.42
330.87,4.90,5.33,4.88,5.31,-5.31,-5.17,-4.86,-0.41,-0.43,-0.43
334.18,4.91,5.35,4.82,5.25,-5.25,-5.10,-4.76,-0.33,-0.43,-0.44
337.52,4.81,5.24,4.75,5.18,-5.18,-5.04,-4.66,-0.37,-0.43,-0.43
340.90,4.65,5.09,4.68,5.11,-5.11,-4.98,-4.57,-0.46,-0.43,-0.44
344.30,4.58,5.01,4.61,5.04,-5.04,-4.91,-4.48,-0.46,-0.43,-0.43
347.75,4.52,4.94,4.55,4.97,-4.97,-4.85,-4.40,-0.45,-0.43,-0.42
351.23,4.45,4.89,4.48,4.91,-4.91,-4.79,-4.32,-0.45,-0.42,-0.44
354.74,4.39,4.81,4.42,4.84,-4.84,-4.72,-4.24,-0.45,-0.42,-0.42
358.28,4.32,4.74,4.35,4.77,-4.77,-4.66,-4.16,-0.44,-0.42,-0.42
361.87,4.26,4.68,4.28,4.69,-4.69,-4.59,-4.09,-0.43,-0.41,-0.42
365.49,4.23,4.64,4.21,4.62,-4.62,-4.52,-4.02,-0.39,-0.41,-0.41
369.14,4.15,4.55,4.14,4.55,-4.55,-4.46,-3.95,-0.39,-0.40,-0.40
372.83,4.09,4.48,4.08,4.48,-4.48,-4.39,-3.89,-0.39,-0.40,-0.39
376.56,4.05,4.45,4.03,4.43,-4.43,-4.33,-3.83,-0.37,-0.40,-0.40
380.33,3.98,4.38,3.98,4.38,-4.38,-4.26,-3.77,-0.39,-0.40,-0.40
384.13,3.93,4.32,3.91,4.32,-4.32,-4.19,-3.72,-0.38,-0.40,-0.39
387.97,3.85,4.24,3.84,4.25,-4.25,-4.13,-3.67,-0.39,-0.40,-0.39
391.85,3.72,4.12,3.78,4.19,-4.19,-4.06,-3.62,-0.46,-0.41,-0.40
395.77,3.64,4.05,3.71,4.12,-4.12,-3.99,-3.57,-0.48,-0.41,-0.41
399.73,3.63,4.04,3.64,4.06,-4.06,-3.92,-3.53,-0.42,-0.42,-0.41
403.72,3.64,4.04,3.58,4.00,-4.00,-3.86,-3.49,-0.35,-0.42,-0.40
407.76,3.58,4.00,3.51,3.93,-3.93,-3.79,-3.45,-0.35,-0.42,-0.42
411.84,3.51,3.94,3.44,3.87,-3.87,-3.72,-3.41,-0.35,-0.43,-0.43
415.96,3.40,3.83,3.37,3.80,-3.80,-3.65,-3.37,-0.40,-0.43,-0.43
420.12,3.27,3.71,3.31,3.73,-3.73,-3.59,-3.33,-0.46,-0.42,-0.44
424.32,3.12,3.55,3.25,3.66,-3.66,-3.52,-3.30,-0.54,-0.42,-0.43
428.56,3.15,3.56,3.19,3.59,-3.59,-3.45,-3.27,-0.44,-0.40,-0.41
432.85,3.20,3.59,3.14,3.53,-3.53,-3.38,-3.23,-0.32,-0.39,-0.39
437.18,3.05,3.43,3.10,3.46,-3.46,-3.32,-3.20,-0.41,-0.36,-0.38
441.55,3.03,3.38,3.06,3.39,-3.39,-3.25,-3.17,-0.35,-0.33,-0.35
445.96,3.05,3.36,3.03,3.32,-3.32,-3.18,-3.14,-0.26,-0.29,-0.31
450.42,2.93,3.20,2.99,3.24,-3.24,-3.11,-3.10,-0.31,-0.25,-0.27
454.93,2.92,3.14,2.97,3.17,-3.17,-3.04,-3.07,-0.25,-0.20,-0.22
459.48,2.95,3.11,2.96,3.11,-3.11,-2.98,-3.04,-0.16,-0.15,-0.16
464.07,2.94,3.03,2.96,3.05,-3.05,-2.91,-3.00,-0.11,-0.10,-0.09
468.71,2.95,2.99,2.94,2.98,-2.98,-2.84,-2.97,-0.03,-0.04,-0.04
473.40,2.94,2.92,2.92,2.91,-2.91,-2.77,-2.93,0.03,0.01,0.02
478.13,2.93,2.85,2.89,2.83,-2.83,-2.70,-2.89,0.10,0.06,0.08
482.91,2.91,2.78,2.86,2.75,-2.75,-2.64,-2.85,0.16,0.11,0.13
487.74,2.87,2.71,2.84,2.68,-2.68,-2.57,-2.80,0.19,0.16,0.16
492.62,2.81,2.61,2.81,2.61,-2.61,-2.50,-2.76,0.21,0.20,0.20
497.55,2.73,2.49,2.77,2.53,-2.53,-2.43,-2.71,0.20,0.23,0.24
502.52,2.80,2.54,2.72,2.47,-2.47,-2.37,-2.66,0.34,0.26,0.26
507.55,2.67,2.38,2.67,2.39,-2.39,-2.30,-2.61,0.28,0.28,0.29
