frequency,raw,error,smoothed,error_smoothed,equalization,parametric_eq,fixed_band_eq,equalized_raw,equalized_smoothed,target
20.00,-3.14,-9.82,-3.14,-9.84,9.84,9.84,3.36,6.70,6.70,6.68
20.20,-3.06,-9.78,-3.06,-9.79,9.79,9.81,3.45,6.74,6.74,6.72
20.40,-2.99,-9.75,-2.98,-9.75,9.75,9.77,3.55,6.76,6.76,6.76
20.61,-2.91,-9.70,-2.90,-9.70,9.70,9.72,3.64,6.79,6.79,6.79
20.81,-2.83,-9.66,-2.83,-9.65,9.65,9.68,3.74,6.82,6.82,6.83
21.02,-2.75,-9.62,-2.75,-9.59,9.59,9.63,3.85,6.85,6.84,6.87
21.23,-2.68,-9.56,-2.67,-9.54,9.54,9.58,3.95,6.87,6.87,6.89
21.44,-2.60,-9.50,-2.60,-9.49,9.49,9.53,4.06,6.89,6.89,6.91
21.66,-2.52,-9.44,-2.52,-9.43,9.43,9.48,4.18,6.91,6.91,6.93
21.87,-2.44,-9.37,-2.44,-9.37,9.37,9.42,4.29,6.94,6.93,6.94
22.09,-2.37,-9.32,-2.36,-9.31,9.31,9.37,4.41,6.95,6.95,6.96
22.31,-2.29,-9.25,-2.28,-9.25,9.25,9.31,4.54,6.96,6.96,6.97
22.54,-2.21,-9.18,-2.21,-9.18,9.18,9.25,4.66,6.98,6.98,6.97
22.76,-2.13,-9.11,-2.13,-9.11,9.11,9.19,4.79,6.99,6.99,6.98
22.99,-2.05,-9.03,-2.05,-9.04,9.04,9.13,4.92,7.00,6.99,6.98
23.22,-1.98,-8.97,-1.97,-8.97,8.97,9.06,5.06,7.00,7.00,6.99
23.45,-1.90,-8.90,-1.89,-8.90,8.90,9.00,5.20,7.01,7.01,7.00
23.69,-1.82,-8.83,-1.82,-8.83,8.83,8.93,5.34,7.02,7.02,7.01
23.92,-1.74,-8.76,-1.74,-8.77,8.77,8.87,5.48,7.03,7.03,7.02
24.16,-1.67,-8.71,-1.66,-8.70,8.70,8.80,5.63,7.03,7.04,7.04
24.40,-1.58,-8.64,-1.58,-8.63,8.63,8.73,5.78,7.04,7.05,7.06
24.65,-1.50,-8.55,-1.50,-8.56,8.56,8.66,5.93,7.06,7.06,7.06
24.89,-1.41,-8.48,-1.42,-8.49,8.49,8.59,6.09,7.07,7.07,7.07
25.14,-1.34,-8.41,-1.34,-8.42,8.42,8.52,6.25,7.08,7.08,7.08
25.39,-1.26,-8.35,-1.26,-8.35,8.35,8.45,6.41,7.08,7.09,7.09
25.65,-1.19,-8.29,-1.18,-8.28,8.28,8.38,6.57,7.09,7.10,7.10
25.91,-1.11,-8.21,-1.10,-8.21,8.21,8.31,6.73,7.10,7.11,7.10
26.16,-1.02,-8.14,-1.02,-8.14,8.14,8.23,6.89,7.12,7.12,7.11
26.43,-0.95,-8.07,-0.94,-8.07,8.07,8.16,7.05,7.12,7.12,7.12
26.69,-0.87,-8.00,-0.87,-8.00,8.00,8.09,7.21,7.13,7.13,7.13
26.96,-0.79,-7.93,-0.79,-7.93,7.93,8.01,7.37,7.14,7.14,7.15
27.23,-0.71,-7.86,-0.71,-7.86,7.86,7.94,7.53,7.15,7.15,7.16
27.50,-0.63,-7.79,-0.63,-7.79,7.79,7.87,7.68,7.16,7.16,7.16
27.77,-0.55,-7.71,-0.55,-7.72,7.72,7.79,7.83,7.18,7.17,7.16
28.05,-0.48,-7.66,-0.47,-7.65,7.65,7.72,7.97,7.17,7.18,7.18
28.33,-0.40,-7.58,-0.40,-7.58,7.58,7.64,8.11,7.18,7.18,7.18
28.62,-0.32,-7.51,-0.32,-7.51,7.51,7.57,8.24,7.19,7.19,7.19
28.90,-0.25,-7.44,-0.24,-7.44,7.44,7.50,8.36,7.19,7.20,7.20
29.19,-0.17,-7.36,-0.16,-7.37,7.37,7.42,8.47,7.20,7.21,7.19
29.48,-0.09,-7.31,-0.09,-7.30,7.30,7.35,8.57,7.21,7.21,7.22
29.78,-0.02,-7.24,-0.01,-7.23,7.23,7.28,8.66,7.21,7.22,7.22
30.08,0.06,-7.17,0.07,-7.16,7.16,7.20,8.73,7.22,7.22,7.23
30.38,0.14,-7.08,0.14,-7.09,7.09,7.13,8.79,7.23,7.23,7.23
30.68,0.22,-7.02,0.22,-7.02,7.02,7.06,8.83,7.24,7.24,7.24
30.99,0.30,-6.94,0.29,-6.95,6.95,6.98,8.86,7.25,7.24,7.24
31.30,0.37,-6.88,0.37,-6.88,6.88,6.91,8.88,7.26,7.25,7.25
31.61,0.44,-6.81,0.44,-6.82,6.82,6.84,8.87,7.26,7.26,7.26
31.93,0.51,-6.75,0.52,-6.75,6.75,6.77,8.86,7.26,7.27,7.26
32.24,0.58,-6.68,0.59,-6.68,6.68,6.70,8.82,7.27,7.27,7.26
32.57,0.66,-6.62,0.66,-6.62,6.62,6.62,8.77,7.28,7.28,7.28
32.89,0.73,-6.55,0.73,-6.55,6.55,6.55,8.71,7.29,7.29,7.29
33.22,0.80,-6.49,0.81,-6.49,6.49,6.48,8.63,7.29,7.29,7.29
33.55,0.87,-6.43,0.88,-6.42,6.42,6.41,8.55,7.30,7.30,7.30
33.89,0.95,-6.35,0.94,-6.36,6.36,6.34,8.45,7.31,7.30,7.31
34.23,1.01,-6.30,1.01,-6.30,6.30,6.28,8.34,7.31,7.31,7.31
34.57,1.08,-6.24,1.08,-6.23,6.23,6.21,8.22,7.32,7.32,7.32
34.92,1.14,-6.17,1.15,-6.17,6.17,6.14,8.10,7.31,7.32,7.32
35.27,1.21,-6.11,1.22,-6.11,6.11,6.07,7.96,7.32,7.32,7.32
35.62,1.28,-6.05,1.28,-6.04,6.04,6.00,7.83,7.33,7.33,7.33
35.97,1.35,-5.97,1.35,-5.98,5.98,5.94,7.69,7.33,7.33,7.32
36.33,1.41,-5.92,1.41,-5.92,5.92,5.87,7.54,7.33,7.33,7.33
36.70,1.48,-5.84,1.48,-5.85,5.85,5.80,7.40,7.34,7.33,7.33
37.06,1.54,-5.79,1.54,-5.79,5.79,5.74,7.25,7.33,7.33,7.33
37.43,1.60,-5.73,1.60,-5.72,5.72,5.67,7.10,7.33,7.33,7.34
37.81,1.66,-5.67,1.67,-5.66,5.66,5.61,6.96,7.32,7.33,7.33
38.19,1.72,-5.60,1.73,-5.59,5.59,5.55,6.81,7.32,7.32,7.33
38.57,1.78,-5.54,1.79,-5.53,5.53,5.48,6.67,7.31,7.32,7.32
38.95,1.84,-5.47,1.85,-5.47,5.47,5.42,6.52,7.31,7.32,7.32
39.34,1.91,-5.40,1.91,-5.40,5.40,5.36,6.38,7.32,7.31,7.31
39.74,1.97,-5.33,1.97,-5.34,5.34,5.29,6.24,7.31,7.31,7.30
40.14,2.03,-5.27,2.03,-5.28,5.28,5.23,6.11,7.31,7.31,7.31
40.54,2.09,-5.21,2.09,-5.22,5.22,5.17,5.97,7.31,7.30,7.30
40.94,2.14,-5.15,2.14,-5.15,5.15,5.11,5.84,7.30,7.30,7.29
41.35,2.20,-5.08,2.20,-5.09,5.09,5.05,5.72,7.30,7.29,7.29
41.76,2.26,-5.03,2.26,-5.03,5.03,4.99,5.59,7.29,7.29,7.29
42.18,2.31,-4.98,2.31,-4.97,4.97,4.93,5.48,7.28,7.28,7.29
42.60,2.36,-4.92,2.37,-4.91,4.91,4.87,5.36,7.27,7.28,7.29
43.03,2.41,-4.87,2.42,-4.85,4.85,4.81,5.25,7.26,7.28,7.29
43.46,2.47,-4.80,2.48,-4.79,4.79,4.75,5.14,7.27,7.27,7.28
43.90,2.53,-4.73,2.53,-4.74,4.74,4.70,5.04,7.27,7.27,7.26
44.33,2.58,-4.68,2.58,-4.68,4.68,4.64,4.93,7.26,7.26,7.26
44.78,2.63,-4.62,2.63,-4.63,4.63,4.58,4.84,7.26,7.26,7.25
45.23,2.69,-4.55,2.68,-4.57,4.57,4.53,4.74,7.26,7.25,7.24
45.68,2.73,-4.51,2.73,-4.51,4.51,4.47,4.65,7.25,7.25,7.24
46.13,2.78,-4.45,2.78,-4.46,4.46,4.41,4.57,7.24,7.24,7.23
46.60,2.83,-4.41,2.83,-4.40,4.40,4.36,4.49,7.24,7.23,7.24
47.06,2.88,-4.35,2.88,-4.35,4.35,4.30,4.41,7.23,7.22,7.23
47.53,2.92,-4.29,2.92,-4.29,4.29,4.25,4.33,7.21,7.21,7.22
48.01,2.96,-4.26,2.97,-4.24,4.24,4.20,4.26,7.20,7.20,7.23
48.49,3.00,-4.20,3.01,-4.18,4.18,4.14,4.19,7.18,7.19,7.20
48.97,3.05,-4.13,3.06,-4.12,4.12,4.09,4.12,7.18,7.18,7.18
49.46,3.09,-4.07,3.10,-4.07,4.07,4.04,4.06,7.16,7.17,7.17
49.96,3.14,-4.00,3.14,-4.01,4.01,3.98,3.99,7.15,7.15,7.14
50.46,3.18,-3.95,3.18,-3.95,3.95,3.93,3.93,7.14,7.14,7.14
50.96,3.23,-3.89,3.23,-3.89,3.89,3.88,3.88,7.13,7.12,7.12
51.47,3.26,-3.82,3.27,-3.83,3.83,3.83,3.82,7.10,7.10,7.09
51.99,3.30,-3.77,3.31,-3.77,3.77,3.77,3.77,7.08,7.08,7.07
52.51,3.34,-3.72,3.35,-3.71,3.71,3.72,3.72,7.06,7.06,7.07
53.03,3.38,-3.65,3.38,-3.65,3.65,3.67,3.67,7.04,7.04,7.04
53.56,3.42,-3.60,3.42,-3.60,3.60,3.62,3.62,7.02,7.01,7.02
54.10,3.45,-3.54,3.45,-3.54,3.54,3.57,3.58,6.99,6.99,6.99
54.64,3.48,-3.49,3.48,-3.49,3.49,3.52,3.53,6.97,6.97,6.97
55.18,3.51,-3.43,3.51,-3.43,3.43,3.47,3.48,6.95,6.95,6.94
55.74,3.54,-3.37,3.54,-3.38,3.38,3.42,3.44,6.93,6.93,6.91
56.29,3.57,-3.33,3.57,-3.33,3.33,3.37,3.40,6.91,6.90,6.90
56.86,3.59,-3.28,3.59,-3.28,3.28,3.32,3.35,6.88,6.88,6.87
57.42,3.61,-3.23,3.62,-3.23,3.23,3.27,3.31,6.85,6.85,6.84
58.00,3.63,-3.18,3.64,-3.18,3.18,3.22,3.26,6.82,6.82,6.82
58.58,3.65,-3.14,3.66,-3.14,3.14,3.17,3.21,6.79,6.79,6.79
59.16,3.67,-3.09,3.67,-3.09,3.09,3.12,3.17,6.76,6.76,6.77
59.76,3.69,-3.05,3.69,-3.04,3.04,3.07,3.12,6.74,6.73,6.74
60.35,3.69,-3.01,3.70,-3.00,3.00,3.02,3.07,6.69,6.69,6.71
60.96,3.70,-2.97,3.71,-2.95,2.95,2.97,3.02,6.66,6.66,6.67
61.57,3.71,-2.91,3.71,-2.91,2.91,2.92,2.97,6.62,6.62,6.62
62.18,3.71,-2.86,3.71,-2.87,2.87,2.88,2.91,6.58,6.58,6.57
62.80,3.73,-2.81,3.71,-2.83,2.83,2.83,2.86,6.56,6.54,6.55
63.43,3.73,-2.76,3.71,-2.79,2.79,2.78,2.80,6.52,6.50,6.50
64.07,3.72,-2.73,3.71,-2.75,2.75,2.73,2.74,6.47,6.46,6.45
64.71,3.71,-2.70,3.71,-2.71,2.71,2.68,2.68,6.42,6.42,6.41
65.35,3.71,-2.66,3.71,-2.66,2.66,2.63,2.62,6.38,6.37,6.37
66.01,3.70,-2.62,3.71,-2.62,2.62,2.58,2.56,6.32,6.33,6.33
66.67,3.69,-2.60,3.71,-2.57,2.57,2.53,2.49,6.27,6.28,6.29
67.33,3.69,-2.55,3.72,-2.52,2.52,2.48,2.42,6.22,6.24,6.25
68.01,3.70,-2.50,3.72,-2.47,2.47,2.43,2.35,6.18,6.19,6.20
68.69,3.71,-2.44,3.73,-2.42,2.42,2.38,2.28,6.13,6.15,6.15
69.37,3.73,-2.37,3.74,-2.36,2.36,2.33,2.21,6.10,6.10,6.10
70.07,3.75,-2.30,3.76,-2.30,2.30,2.28,2.14,6.06,6.06,6.05
70.77,3.77,-2.24,3.77,-2.24,2.24,2.23,2.07,6.02,6.01,6.01
71.48,3.79,-2.18,3.79,-2.18,2.18,2.18,1.99,5.97,5.97,5.97
72.19,3.82,-2.10,3.82,-2.11,2.11,2.13,1.92,5.93,5.93,5.92
72.91,3.84,-2.03,3.84,-2.04,2.04,2.08,1.84,5.88,5.88,5.88
73.64,3.87,-1.96,3.87,-1.97,1.97,2.03,1.76,5.84,5.84,5.83
74.38,3.89,-1.90,3.90,-1.90,1.90,1.98,1.69,5.79,5.80,5.80
75.12,3.91,-1.84,3.92,-1.83,1.83,1.92,1.61,5.75,5.76,5.75
75.87,3.94,-1.77,3.94,-1.77,1.77,1.87,1.53,5.72,5.72,5.72
76.63,3.96,-1.71,3.96,-1.71,1.71,1.82,1.45,5.68,5.68,5.68
77.40,3.98,-1.65,3.98,-1.66,1.66,1.77,1.37,5.64,5.64,5.64
78.17,4.01,-1.58,4.00,-1.61,1.61,1.71,1.30,5.62,5.60,5.60
78.95,4.03,-1.53,4.01,-1.56,1.56,1.66,1.22,5.59,5.57,5.57
79.74,4.04,-1.49,4.02,-1.52,1.52,1.60,1.14,5.56,5.53,5.54
80.54,4.04,-1.46,4.03,-1.47,1.47,1.55,1.06,5.52,5.50,5.50
81.35,4.04,-1.42,4.03,-1.43,1.43,1.49,0.98,5.48,5.47,5.47
82.16,4.04,-1.39,4.04,-1.39,1.39,1.44,0.91,5.44,5.44,5.43
82.98,4.03,-1.37,4.05,-1.36,1.36,1.38,0.83,5.39,5.40,5.41
83.81,4.03,-1.34,4.06,-1.32,1.32,1.32,0.75,5.35,5.37,5.37
84.65,4.04,-1.29,4.07,-1.28,1.28,1.27,0.67,5.32,5.34,5.33
85.50,4.05,-1.26,4.08,-1.24,1.24,1.21,0.59,5.29,5.32,5.32
86.35,4.07,-1.21,4.09,-1.20,1.20,1.15,0.52,5.27,5.29,5.29
87.22,4.10,-1.15,4.11,-1.15,1.15,1.09,0.44,5.26,5.26,5.26
88.09,4.12,-1.10,4.12,-1.11,1.11,1.03,0.36,5.23,5.23,5.23
88.97,4.15,-1.05,4.15,-1.06,1.06,0.97,0.29,5.21,5.20,5.21
89.86,4.18,-1.00,4.17,-1.01,1.01,0.91,0.21,5.19,5.18,5.18
90.76,4.20,-0.94,4.20,-0.95,0.95,0.85,0.13,5.15,5.15,5.14
91.66,4.23,-0.88,4.23,-0.89,0.89,0.79,0.06,5.13,5.12,5.12
92.58,4.25,-0.83,4.26,-0.83,0.83,0.73,-0.02,5.09,5.09,5.09
93.51,4.28,-0.79,4.29,-0.77,0.77,0.66,-0.10,5.06,5.06,5.07
94.44,4.31,-0.72,4.32,-0.71,0.71,0.60,-0.17,5.03,5.03,5.04
95.39,4.34,-0.67,4.35,-0.65,0.65,0.53,-0.25,5.00,5.00,5.01
96.34,4.37,-0.59,4.37,-0.59,0.59,0.47,-0.32,4.97,4.97,4.96
97.30,4.41,-0.51,4.40,-0.53,0.53,0.40,-0.40,4.95,4.93,4.93
98.28,4.44,-0.45,4.42,-0.47,0.47,0.33,-0.48,4.92,4.90,4.89
99.26,4.47,-0.38,4.45,-0.41,0.41,0.27,-0.55,4.88,4.86,4.86
100.25,4.49,-0.32,4.48,-0.34,0.34,0.20,-0.62,4.83,4.82,4.82
101.25,4.51,-0.27,4.51,-0.27,0.27,0.13,-0.70,4.78,4.78,4.78
102.27,4.53,-0.20,4.55,-0.19,0.19,0.06,-0.77,4.72,4.74,4.73
103.29,4.55,-0.13,4.58,-0.11,0.11,-0.01,-0.84,4.66,4.69,4.69
104.32,4.57,-0.07,4.62,-0.03,0.03,-0.08,-0.92,4.60,4.64,4.65
105.37,4.62,0.02,4.65,0.06,-0.06,-0.15,-0.99,4.57,4.59,4.60
106.42,4.67,0.13,4.68,0.14,-0.14,-0.22,-1.06,4.53,4.54,4.54
107.48,4.71,0.22,4.72,0.23,-0.23,-0.30,-1.12,4.48,4.48,4.49
108.56,4.76,0.34,4.75,0.32,-0.32,-0.37,-1.19,4.44,4.43,4.43
109.64,4.81,0.44,4.79,0.42,-0.42,-0.44,-1.25,4.39,4.37,4.37
110.74,4.85,0.54,4.82,0.52,-0.52,-0.52,-1.32,4.34,4.30,4.31
111.85,4.88,0.64,4.86,0.62,-0.62,-0.59,-1.38,4.27,4.24,4.25
112.97,4.90,0.74,4.89,0.72,-0.72,-0.67,-1.44,4.19,4.17,4.17
114.10,4.92,0.81,4.92,0.81,-0.81,-0.74,-1.49,4.11,4.10,4.11
115.24,4.94,0.91,4.95,0.91,-0.91,-0.82,-1.54,4.03,4.04,4.04
116.39,4.95,0.99,4.97,1.01,-1.01,-0.90,-1.59,3.95,3.97,3.96
117.55,4.98,1.09,5.00,1.10,-1.10,-0.97,-1.64,3.89,3.90,3.89
118.73,5.01,1.19,5.02,1.19,-1.19,-1.05,-1.68,3.82,3.83,3.82
119.92,5.05,1.29,5.05,1.28,-1.28,-1.13,-1.72,3.77,3.76,3.76
121.12,5.07,1.38,5.07,1.37,-1.37,-1.20,-1.76,3.70,3.70,3.69
122.33,5.09,1.47,5.10,1.47,-1.47,-1.28,-1.79,3.63,3.63,3.63
123.55,5.11,1.54,5.13,1.56,-1.56,-1.36,-1.82,3.55,3.57,3.57
124.79,5.14,1.63,5.16,1.66,-1.66,-1.43,-1.85,3.49,3.51,3.51
126.03,5.18,1.73,5.20,1.75,-1.75,-1.51,-1.87,3.44,3.45,3.45
127.29,5.21,1.82,5.23,1.84,-1.84,-1.58,-1.88,3.37,3.39,3.39
128.57,5.24,1.92,5.26,1.93,-1.93,-1.66,-1.90,3.32,3.33,3.32
129.85,5.28,2.01,5.29,2.01,-2.01,-1.73,-1.91,3.27,3.27,3.27
131.15,5.31,2.10,5.31,2.09,-2.09,-1.80,-1.92,3.23,3.22,3.21
132.46,5.33,2.17,5.32,2.16,-2.16,-1.88,-1.92,3.18,3.17,3.17
133.79,5.36,2.24,5.34,2.22,-2.22,-1.95,-1.92,3.14,3.11,3.12
135.12,5.38,2.32,5.35,2.28,-2.28,-2.02,-1.92,3.10,3.06,3.06
136.48,5.38,2.37,5.35,2.33,-2.33,-2.08,-1.91,3.05,3.02,3.02
137.84,5.36,2.40,5.35,2.38,-2.38,-2.15,-1.90,2.98,2.97,2.96
139.22,5.34,2.43,5.34,2.42,-2.42,-2.21,-1.89,2.93,2.92,2.91
140.61,5.32,2.46,5.32,2.45,-2.45,-2.28,-1.88,2.88,2.87,2.86
142.02,5.28,2.46,5.30,2.47,-2.47,-2.34,-1.87,2.81,2.83,2.83
143.44,5.26,2.48,5.27,2.49,-2.49,-2.39,-1.85,2.77,2.78,2.79
144.87,5.22,2.49,5.24,2.51,-2.51,-2.45,-1.84,2.71,2.74,2.74
146.32,5.20,2.51,5.21,2.52,-2.52,-2.50,-1.82,2.68,2.69,2.69
147.78,5.17,2.52,5.18,2.54,-2.54,-2.55,-1.80,2.64,2.64,2.65
149.26,5.15,2.55,5.15,2.55,-2.55,-2.60,-1.78,2.60,2.59,2.61
150.75,5.11,2.57,5.11,2.56,-2.56,-2.65,-1.76,2.55,2.55,2.54
152.26,5.08,2.59,5.08,2.58,-2.58,-2.69,-1.75,2.50,2.50,2.50
153.78,5.03,2.58,5.05,2.60,-2.60,-2.72,-1.73,2.43,2.45,2.45
155.32,4.99,2.60,5.02,2.62,-2.62,-2.76,-1.71,2.38,2.40,2.39
156.88,4.95,2.60,4.98,2.64,-2.64,-2.79,-1.69,2.32,2.35,2.35
158.44,4.94,2.65,4.95,2.65,-2.65,-2.82,-1.67,2.29,2.30,2.30
160.03,4.90,2.66,4.91,2.67,-2.67,-2.84,-1.66,2.24,2.24,2.24
161.63,4.88,2.70,4.87,2.68,-2.68,-2.86,-1.64,2.21,2.19,2.18
163.24,4.85,2.72,4.82,2.69,-2.69,-2.88,-1.62,2.17,2.14,2.13
164.88,4.79,2.71,4.78,2.70,-2.70,-2.89,-1.61,2.10,2.08,2.09
166.53,4.75,2.72,4.74,2.71,-2.71,-2.90,-1.60,2.05,2.03,2.03
168.19,4.71,2.74,4.69,2.72,-2.72,-2.90,-1.58,2.00,1.98,1.98
169.87,4.63,2.71,4.64,2.72,-2.72,-2.90,-1.57,1.91,1.92,1.92
171.57,4.57,2.70,4.59,2.73,-2.73,-2.90,-1.56,1.84,1.86,1.87
173.29,4.52,2.72,4.54,2.73,-2.73,-2.89,-1.56,1.79,1.80,1.81
175.02,4.44,2.69,4.48,2.73,-2.73,-2.88,-1.55,1.71,1.75,1.76
176.77,4.40,2.72,4.42,2.73,-2.73,-2.86,-1.54,1.67,1.69,1.69
178.54,4.35,2.73,4.35,2.73,-2.73,-2.85,-1.54,1.63,1.63,1.63
180.32,4.31,2.75,4.29,2.72,-2.72,-2.82,-1.54,1.59,1.57,1.57
182.13,4.25,2.74,4.22,2.72,-2.72,-2.80,-1.53,1.54,1.51,1.51
183.95,4.14,2.70,4.15,2.71,-2.71,-2.77,-1.53,1.43,1.44,1.44
185.79,4.08,2.70,4.08,2.70,-2.70,-2.74,-1.53,1.38,1.38,1.39
187.65,4.00,2.69,4.01,2.69,-2.69,-2.71,-1.54,1.31,1.32,1.31
189.52,3.93,2.68,3.94,2.67,-2.67,-2.67,-1.54,1.26,1.26,1.26
191.42,3.85,2.65,3.86,2.65,-2.65,-2.63,-1.54,1.20,1.21,1.20
193.33,3.78,2.63,3.78,2.63,-2.63,-2.59,-1.55,1.15,1.15,1.15
195.27,3.69,2.60,3.69,2.60,-2.60,-2.54,-1.55,1.09,1.09,1.10
197.22,3.60,2.57,3.60,2.56,-2.56,-2.50,-1.56,1.04,1.04,1.04
199.19,3.51,2.54,3.51,2.52,-2.52,-2.45,-1.57,0.99,0.98,0.97
201.18,3.42,2.50,3.41,2.48,-2.48,-2.40,-1.58,0.94,0.93,0.92
203.19,3.32,2.44,3.32,2.44,-2.44,-2.35,-1.59,0.88,0.88,0.88
205.23,3.22,2.40,3.22,2.40,-2.40,-2.30,-1.60,0.83,0.83,0.83
207.28,3.12,2.33,3.12,2.34,-2.34,-2.24,-1.61,0.78,0.78,0.80
209.35,3.01,2.27,3.02,2.29,-2.29,-2.19,-1.62,0.73,0.74,0.74
211.44,2.91,2.23,2.92,2.23,-2.23,-2.13,-1.63,0.69,0.69,0.68
213.56,2.81,2.17,2.81,2.16,-2.16,-2.07,-1.64,0.65,0.65,0.65
215.69,2.70,2.08,2.71,2.10,-2.10,-2.01,-1.65,0.61,0.61,0.62
217.85,2.59,2.02,2.60,2.03,-2.03,-1.96,-1.66,0.56,0.57,0.57
220.03,2.52,1.99,2.50,1.96,-1.96,-1.90,-1.67,0.56,0.54,0.53
222.23,2.42,1.93,2.39,1.89,-1.89,-1.84,-1.68,0.53,0.50,0.49
224.45,2.30,1.83,2.29,1.82,-1.82,-1.78,-1.68,0.49,0.47,0.47
226.70,2.18,1.74,2.19,1.75,-1.75,-1.72,-1.69,0.44,0.44,0.45
228.96,2.06,1.65,2.09,1.67,-1.67,-1.66,-1.69,0.39,0.42,0.41
231.25,1.98,1.58,2.00,1.60,-1.60,-1.60,-1.70,0.38,0.40,0.40
233.57,1.89,1.52,1.91,1.53,-1.53,-1.54,-1.70,0.37,0.38,0.38
235.90,1.80,1.45,1.82,1.46,-1.46,-1.48,-1.70,0.35,0.36,0.36
238.26,1.73,1.39,1.73,1.38,-1.38,-1.42,-1.70,0.35,0.35,0.35
240.64,1.65,1.32,1.65,1.32,-1.32,-1.37,-1.69,0.34,0.34,0.33
243.05,1.59,1.26,1.58,1.25,-1.25,-1.31,-1.68,0.35,0.33,0.33
245.48,1.52,1.20,1.51,1.18,-1.18,-1.25,-1.67,0.34,0.33,0.32
247.93,1.44,1.12,1.45,1.13,-1.13,-1.20,-1.66,0.32,0.32,0.32
250.41,1.39,1.08,1.40,1.07,-1.07,-1.14,-1.65,0.32,0.32,0.31
252.92,1.32,1.00,1.35,1.02,-1.02,-1.09,-1.63,0.30,0.33,0.33
255.45,1.29,0.96,1.31,0.98,-0.98,-1.03,-1.61,0.32,0.33,0.34
258.00,1.25,0.92,1.27,0.93,-0.93,-0.98,-1.59,0.32,0.34,0.34
260.58,1.21,0.87,1.23,0.89,-0.89,-0.93,-1.56,0.32,0.34,0.34
263.19,1.19,0.84,1.21,0.85,-0.85,-0.87,-1.54,0.34,0.35,0.35
265.82,1.17,0.82,1.18,0.82,-0.82,-0.82,-1.51,0.36,0.36,0.35
268.48,1.16,0.79,1.16,0.78,-0.78,-0.77,-1.47,0.38,0.37,0.38
271.16,1.15,0.76,1.13,0.75,-0.75,-0.72,-1.44,0.40,0.38,0.39
273.87,1.12,0.73,1.11,0.72,-0.72,-0.68,-1.40,0.41,0.40,0.39
276.61,1.10,0.69,1.09,0.69,-0.69,-0.63,-1.37,0.42,0.41,0.42
279.38,1.08,0.66,1.07,0.65,-0.65,-0.58,-1.33,0.43,0.42,0.42
282.17,1.06,0.63,1.05,0.62,-0.62,-0.54,-1.28,0.45,0.43,0.43
284.99,1.05,0.60,1.02,0.58,-0.58,-0.49,-1.24,0.47,0.44,0.45
287.84,1.01,0.56,1.00,0.54,-0.54,-0.45,-1.20,0.47,0.46,0.45
290.72,0.98,0.52,0.98,0.50,-0.50,-0.41,-1.15,0.48,0.47,0.47
293.63,0.94,0.46,0.95,0.47,-0.47,-0.37,-1.11,0.48,0.48,0.48
296.57,0.91,0.42,0.92,0.43,-0.43,-0.33,-1.06,0.49,0.50,0.50
299.53,0.88,0.38,0.90,0.39,-0.39,-0.29,-1.01,0.49,0.51,0.50
302.53,0.85,0.35,0.88,0.36,-0.36,-0.25,-0.96,0.50,0.52,0.51
305.55,0.83,0.30,0.86,0.33,-0.33,-0.21,-0.92,0.51,0.53,0.53
308.61,0.82,0.28,0.84,0.30,-0.30,-0.17,-0.87,0.53,0.54,0.54
311.69,0.80,0.26,0.82,0.27,-0.27,-0.14,-0.82,0.54,0.55,0.55
314.81,0.79,0.22,0.80,0.24,-0.24,-0.10,-0.77,0.55,0.56,0.57
317.96,0.78,0.22,0.78,0.22,-0.22,-0.07,-0.72,0.57,0.56,0.57
321.14,0.77,0.20,0.76,0.19,-0.19,-0.04,-0.67,0.58,0.57,0.57
324.35,0.75,0.18,0.75,0.17,-0.17,-0.00,-0.62,0.58,0.58,0.57
327.59,0.73,0.15,0.73,0.14,-0.14,0.03,-0.57,0.59,0.58,0.59
330.87,0.71,0.13,0.70,0.12,-0.12,0.06,-0.52,0.60,0.59,0.58
334.18,0.69,0.11,0.68,0.09,-0.09,0.09,-0.47,0.61,0.59,0.58
337.52,0.65,0.07,0.65,0.06,-0.06,0.11,-0.42,0.60,0.59,0.59
340.90,0.63,0.04,0.61,0.02,-0.02,0.14,-0.37,0.61,0.59,0.59
344.30,0.59,0.00,0.58,-0.01,0.01,0.17,-0.32,0.60,0.59,0.59
347.75,0.55,-0.04,0.54,-0.05,0.05,0.19,-0.27,0.60,0.59,0.59
351.23,0.50,-0.08,0.50,-0.08,0.08,0.22,-0.22,0.58,0.58,0.59
354.74,0.46,-0.12,0.46,-0.12,0.12,0.24,-0.17,0.58,0.58,0.58
358.28,0.40,-0.17,0.43,-0.15,0.15,0.27,-0.12,0.55,0.58,0.57
361.87,0.36,-0.21,0.39,-0.18,0.18,0.29,-0.07,0.55,0.57,0.57
365.49,0.32,-0.24,0.35,-0.21,0.21,0.31,-0.02,0.54,0.56,0.57
369.14,0.29,-0.26,0.31,-0.25,0.25,0.33,0.03,0.54,0.56,0.55
372.83,0.27,-0.28,0.28,-0.27,0.27,0.35,0.07,0.55,0.55,0.55
376.56,0.24,-0.30,0.24,-0.30,0.30,0.37,0.12,0.54,0.54,0.54
380.33,0.22,-0.32,0.21,-0.33,0.33,0.39,0.17,0.55,0.53,0.54
384.13,0.19,-0.33,0.18,-0.35,0.35,0.41,0.22,0.54,0.53,0.53
387.97,0.15,-0.36,0.15,-0.37,0.37,0.42,0.27,0.53,0.52,0.52
391.85,0.12,-0.38,0.12,-0.40,0.40,0.44,0.31,0.52,0.51,0.50
395.77,0.08,-0.43,0.09,-0.42,0.42,0.46,0.36,0.50,0.50,0.51
399.73,0.05,-0.45,0.06,-0.44,0.44,0.47,0.41,0.49,0.50,0.50
403.72,0.02,-0.47,0.03,-0.47,0.47,0.49,0.45,0.49,0.49,0.49
407.76,0.00,-0.47,-0.01,-0.49,0.49,0.50,0.50,0.49,0.49,0.48
411.84,-0.03,-0.51,-0.04,-0.52,0.52,0.51,0.54,0.49,0.48,0.49
415.96,-0.06,-0.53,-0.07,-0.54,0.54,0.53,0.59,0.49,0.48,0.47
420.12,-0.09,-0.56,-0.09,-0.56,0.56,0.54,0.63,0.48,0.47,0.47
424.32,-0.12,-0.59,-0.12,-0.58,0.58,0.55,0.68,0.47,0.47,0.47
428.56,-0.15,-0.61,-0.13,-0.60,0.60,0.56,0.72,0.45,0.47,0.46
432.85,-0.17,-0.63,-0.15,-0.61,0.61,0.57,0.76,0.45,0.46,0.46
437.18,-0.19,-0.64,-0.16,-0.62,0.62,0.58,0.80,0.44,0.46,0.46
441.55,-0.20,-0.66,-0.17,-0.63,0.63,0.59,0.84,0.43,0.46,0.47
445.96,-0.20,-0.66,-0.17,-0.64,0.64,0.60,0.87,0.44,0.46,0.47
450.42,-0.20,-0.65,-0.18,-0.64,0.64,0.61,0.91,0.45,0.46,0.46
454.93,-0.19,-0.65,-0.18,-0.65,0.65,0.61,0.94,0.46,0.47,0.46
459.48,-0.18,-0.64,-0.18,-0.65,0.65,0.62,0.98,0.47,0.47,0.46
464.07,-0.17,-0.64,-0.18,-0.65,0.65,0.63,1.01,0.49,0.47,0.47
468.71,-0.16,-0.64,-0.18,-0.66,0.66,0.63,1.03,0.50,0.48,0.48
473.40,-0.17,-0.65,-0.19,-0.67,0.67,0.64,1.06,0.50,0.48,0.48
478.13,-0.18,-0.67,-0.19,-0.68,0.68,0.65,1.08,0.51,0.49,0.49
482.91,-0.19,-0.68,-0.20,-0.70,0.70,0.65,1.10,0.51,0.49,0.49
487.74,-0.20,-0.70,-0.22,-0.72,0.72,0.66,1.12,0.52,0.50,0.50
492.62,-0.23,-0.73,-0.24,-0.74,0.74,0.66,1.14,0.52,0.50,0.51
497.55,-0.26,-0.76,-0.27,-0.77,0.77,0.66,1.15,0.52,0.51,0.51
502.52,-0.29,-0.80,-0.29,-0.81,0.81,0.67,1.17,0.52,0.51,0.52
507.55,-0.33,-0.84,-0.33,-0.84,0.84,0.67,1.17,0.51,0.52,0.52
512.62,-0.36,-0.87,-0.36,-0.87,0.87,0.67,1.18,0.52,0.52,0.52
517.75,-0.39,-0.91,-0.39,-0.91,0.91,0.67,1.18,0.52,0.52,0.53
522.93,-0.43,-0.95,-0.41,-0.94,0.94,0.67,1.19,0.51,0.52,0.52
528.16,-0.46,-0.98,-0.44,-0.96,0.96,0.68,1.19,0.51,0.52,0.52
533.44,-0.48,-1.00,-0.46,-0.98,0.98,0.68,1.18,0.51,0.52,0.52
538.77,-0.51,-1.03,-0.48,-1.00,1.00,0.68,1.18,0.50,0.52,0.52
544.16,-0.52,-1.04,-0.49,-1.01,1.01,0.68,1.17,0.50,0.52,0.52
549.60,-0.53,-1.05,-0.51,-1.02,1.02,0.68,1.16,0.50,0.52,0.52
