frequency,raw,error,smoothed,error_smoothed,equalization,parametric_eq,fixed_band_eq,equalized_raw,equalized_smoothed,target
20.00,13.04,10.91,13.03,10.90,-10.94,-11.21,-3.89,2.11,2.10,2.13
20.20,13.03,10.85,13.04,10.86,-10.87,-11.15,-3.99,2.16,2.17,2.18
20.40,13.02,10.79,13.03,10.81,-10.80,-11.08,-4.10,2.22,2.24,2.23
20.61,13.02,10.76,13.02,10.75,-10.73,-11.01,-4.21,2.29,2.29,2.26
20.81,13.01,10.70,13.01,10.70,-10.67,-10.94,-4.33,2.35,2.34,2.31
21.02,12.99,10.64,12.98,10.64,-10.60,-10.87,-4.45,2.39,2.38,2.35
21.23,12.93,10.56,12.93,10.56,-10.54,-10.79,-4.57,2.39,2.40,2.37
21.44,12.87,10.48,12.87,10.48,-10.48,-10.71,-4.69,2.39,2.40,2.39
21.66,12.81,10.40,12.81,10.40,-10.41,-10.63,-4.82,2.40,2.40,2.41
21.87,12.75,10.33,12.75,10.33,-10.34,-10.55,-4.95,2.41,2.41,2.42
22.09,12.70,10.26,12.70,10.26,-10.29,-10.47,-5.08,2.42,2.42,2.44
22.31,12.66,10.21,12.66,10.21,-10.23,-10.39,-5.22,2.43,2.43,2.45
22.54,12.63,10.18,12.63,10.18,-10.19,-10.31,-5.36,2.45,2.44,2.45
22.76,12.60,10.15,12.60,10.15,-10.15,-10.23,-5.51,2.46,2.45,2.45
22.99,12.56,10.12,12.56,10.12,-10.11,-10.15,-5.66,2.45,2.45,2.44
23.22,12.52,10.08,12.52,10.08,-10.07,-10.06,-5.81,2.45,2.45,2.44
23.45,12.47,10.03,12.48,10.03,-10.02,-9.98,-5.96,2.45,2.45,2.44
23.69,12.43,9.98,12.43,9.98,-9.97,-9.90,-6.12,2.46,2.46,2.45
23.92,12.38,9.93,12.38,9.92,-9.91,-9.81,-6.29,2.47,2.46,2.45
24.16,12.31,9.86,12.31,9.86,-9.85,-9.73,-6.45,2.46,2.46,2.45
24.40,12.23,9.77,12.23,9.78,-9.78,-9.65,-6.62,2.45,2.45,2.46
24.65,12.15,9.70,12.15,9.70,-9.71,-9.56,-6.79,2.44,2.44,2.45
24.89,12.07,9.62,12.07,9.62,-9.64,-9.48,-6.97,2.43,2.43,2.45
25.14,12.00,9.55,12.00,9.55,-9.57,-9.40,-7.15,2.43,2.44,2.45
25.39,11.94,9.48,11.94,9.49,-9.49,-9.32,-7.33,2.45,2.45,2.46
25.65,11.88,9.42,11.88,9.43,-9.41,-9.24,-7.51,2.47,2.47,2.46
25.91,11.82,9.37,11.81,9.36,-9.33,-9.16,-7.69,2.49,2.48,2.45
26.16,11.73,9.28,11.73,9.28,-9.25,-9.08,-7.88,2.48,2.48,2.45
26.43,11.62,9.17,11.63,9.18,-9.16,-9.00,-8.06,2.46,2.46,2.45
26.69,11.52,9.07,11.52,9.07,-9.08,-8.92,-8.24,2.44,2.44,2.45
26.96,11.41,8.96,11.42,8.97,-8.99,-8.84,-8.42,2.42,2.43,2.45
27.23,11.33,8.88,11.34,8.89,-8.91,-8.76,-8.60,2.42,2.43,2.45
27.50,11.26,8.81,11.26,8.81,-8.83,-8.69,-8.78,2.44,2.44,2.45
27.77,11.20,8.76,11.19,8.75,-8.75,-8.61,-8.95,2.45,2.45,2.44
28.05,11.12,8.68,11.12,8.68,-8.67,-8.53,-9.11,2.45,2.45,2.44
28.33,11.04,8.61,11.04,8.61,-8.59,-8.46,-9.27,2.45,2.45,2.43
28.62,10.96,8.53,10.96,8.53,-8.52,-8.38,-9.42,2.44,2.44,2.43
28.90,10.88,8.44,10.88,8.44,-8.44,-8.31,-9.56,2.44,2.44,2.44
29.19,10.79,8.36,10.79,8.36,-8.36,-8.24,-9.69,2.43,2.44,2.43
29.48,10.70,8.26,10.71,8.27,-8.27,-8.16,-9.80,2.43,2.44,2.44
29.78,10.62,8.19,10.62,8.18,-8.18,-8.09,-9.91,2.44,2.44,2.43
30.08,10.53,8.09,10.53,8.10,-8.10,-8.02,-9.99,2.44,2.44,2.44
30.38,10.44,8.01,10.44,8.01,-8.01,-7.95,-10.06,2.43,2.43,2.43
30.68,10.35,7.92,10.35,7.92,-7.93,-7.88,-10.11,2.43,2.42,2.43
30.99,10.25,7.82,10.26,7.83,-7.84,-7.81,-10.15,2.41,2.42,2.43
31.30,10.18,7.76,10.18,7.75,-7.76,-7.74,-10.16,2.43,2.42,2.42
31.61,10.10,7.68,10.10,7.68,-7.67,-7.67,-10.16,2.43,2.43,2.42
31.93,10.02,7.60,10.02,7.60,-7.59,-7.60,-10.14,2.44,2.43,2.42
32.24,9.93,7.52,9.93,7.51,-7.50,-7.53,-10.10,2.43,2.43,2.41
32.57,9.83,7.42,9.84,7.42,-7.42,-7.46,-10.04,2.41,2.42,2.41
32.89,9.74,7.33,9.74,7.33,-7.34,-7.39,-9.96,2.40,2.41,2.41
33.22,9.65,7.25,9.65,7.25,-7.26,-7.33,-9.88,2.40,2.40,2.40
33.55,9.57,7.17,9.57,7.17,-7.18,-7.26,-9.77,2.39,2.39,2.40
33.89,9.49,7.10,9.49,7.10,-7.11,-7.19,-9.66,2.38,2.39,2.39
34.23,9.42,7.03,9.42,7.03,-7.04,-7.12,-9.53,2.38,2.38,2.39
34.57,9.36,6.98,9.36,6.97,-6.99,-7.06,-9.40,2.38,2.37,2.38
34.92,9.29,6.91,9.30,6.92,-6.93,-6.99,-9.25,2.36,2.37,2.38
35.27,9.24,6.87,9.25,6.87,-6.87,-6.93,-9.10,2.37,2.38,2.37
35.62,9.19,6.82,9.19,6.82,-6.80,-6.86,-8.95,2.39,2.39,2.37
35.97,9.13,6.76,9.12,6.75,-6.73,-6.80,-8.79,2.40,2.40,2.37
36.33,9.04,6.67,9.05,6.68,-6.65,-6.73,-8.62,2.39,2.40,2.37
36.70,8.95,6.59,8.95,6.59,-6.56,-6.66,-8.46,2.39,2.39,2.36
37.06,8.85,6.49,8.84,6.48,-6.47,-6.60,-8.29,2.38,2.37,2.36
37.43,8.73,6.36,8.73,6.36,-6.38,-6.54,-8.13,2.35,2.35,2.37
37.81,8.62,6.25,8.63,6.26,-6.30,-6.47,-7.96,2.33,2.33,2.37
38.19,8.54,6.18,8.55,6.18,-6.22,-6.41,-7.80,2.33,2.34,2.36
38.57,8.50,6.13,8.49,6.12,-6.14,-6.34,-7.63,2.36,2.35,2.37
38.95,8.45,6.07,8.45,6.08,-6.07,-6.28,-7.47,2.38,2.38,2.38
39.34,8.40,6.03,8.40,6.03,-6.01,-6.21,-7.32,2.39,2.39,2.37
39.74,8.35,5.98,8.35,5.97,-5.96,-6.15,-7.16,2.40,2.39,2.37
40.14,8.28,5.91,8.28,5.91,-5.90,-6.09,-7.01,2.38,2.38,2.37
40.54,8.21,5.84,8.21,5.84,-5.84,-6.02,-6.86,2.37,2.37,2.37
40.94,8.13,5.77,8.14,5.77,-5.78,-5.96,-6.72,2.35,2.36,2.36
41.35,8.06,5.70,8.07,5.71,-5.70,-5.90,-6.57,2.36,2.37,2.36
41.76,8.00,5.65,8.00,5.64,-5.62,-5.83,-6.44,2.38,2.37,2.35
42.18,7.92,5.57,7.92,5.57,-5.54,-5.77,-6.30,2.38,2.37,2.35
42.60,7.82,5.48,7.82,5.48,-5.47,-5.71,-6.17,2.35,2.36,2.34
43.03,7.72,5.39,7.72,5.38,-5.40,-5.64,-6.05,2.32,2.32,2.33
43.46,7.62,5.30,7.62,5.30,-5.35,-5.58,-5.93,2.28,2.27,2.32
43.90,7.52,5.22,7.54,5.24,-5.29,-5.52,-5.81,2.23,2.25,2.30
44.33,7.49,5.21,7.50,5.22,-5.24,-5.45,-5.70,2.25,2.25,2.28
44.78,7.48,5.22,7.47,5.21,-5.19,-5.39,-5.59,2.29,2.28,2.26
45.23,7.45,5.20,7.45,5.20,-5.14,-5.33,-5.48,2.31,2.31,2.25
45.68,7.40,5.16,7.40,5.16,-5.10,-5.27,-5.38,2.30,2.30,2.24
46.13,7.32,5.10,7.31,5.08,-5.06,-5.20,-5.29,2.26,2.25,2.22
46.60,7.20,4.98,7.21,4.99,-5.01,-5.14,-5.19,2.19,2.20,2.22
47.06,7.10,4.90,7.12,4.92,-4.96,-5.08,-5.10,2.14,2.16,2.20
47.53,7.06,4.87,7.06,4.86,-4.90,-5.02,-5.02,2.16,2.15,2.19
48.01,7.02,4.83,7.03,4.84,-4.85,-4.96,-4.93,2.18,2.18,2.19
48.49,6.99,4.82,7.00,4.82,-4.79,-4.90,-4.85,2.20,2.20,2.17
48.97,6.96,4.81,6.93,4.77,-4.75,-4.84,-4.78,2.21,2.18,2.15
49.46,6.84,4.71,6.84,4.71,-4.71,-4.77,-4.71,2.14,2.13,2.13
49.96,6.71,4.60,6.76,4.64,-4.66,-4.71,-4.64,2.05,2.10,2.11
50.46,6.69,4.59,6.69,4.59,-4.62,-4.65,-4.57,2.08,2.08,2.10
50.96,6.68,4.59,6.66,4.57,-4.56,-4.59,-4.51,2.12,2.09,2.09
51.47,6.61,4.54,6.61,4.54,-4.51,-4.53,-4.44,2.10,2.10,2.07
51.99,6.53,4.47,6.53,4.47,-4.45,-4.47,-4.39,2.08,2.08,2.06
52.51,6.44,4.39,6.44,4.39,-4.40,-4.41,-4.33,2.04,2.05,2.05
53.03,6.36,4.31,6.38,4.33,-4.34,-4.36,-4.27,2.02,2.03,2.05
53.56,6.31,4.28,6.31,4.28,-4.28,-4.30,-4.22,2.03,2.03,2.03
54.10,6.27,4.25,6.26,4.23,-4.22,-4.24,-4.17,2.05,2.03,2.02
54.64,6.18,4.18,6.18,4.18,-4.16,-4.18,-4.12,2.02,2.02,2.00
55.18,6.10,4.10,6.09,4.10,-4.11,-4.12,-4.07,1.99,1.99,2.00
55.74,6.00,4.02,6.02,4.04,-4.06,-4.06,-4.03,1.95,1.97,1.98
56.29,5.95,3.98,5.98,4.01,-4.01,-4.01,-3.98,1.94,1.97,1.97
56.86,5.96,4.00,5.91,3.96,-3.96,-3.95,-3.93,2.00,1.95,1.96
57.42,5.86,3.93,5.85,3.91,-3.91,-3.89,-3.89,1.95,1.94,1.93
58.00,5.72,3.80,5.79,3.87,-3.86,-3.84,-3.84,1.86,1.93,1.92
58.58,5.74,3.83,5.73,3.82,-3.81,-3.78,-3.80,1.93,1.92,1.91
59.16,5.71,3.82,5.66,3.77,-3.76,-3.73,-3.76,1.95,1.90,1.89
59.76,5.57,3.70,5.59,3.73,-3.71,-3.67,-3.71,1.86,1.89,1.87
60.35,5.47,3.64,5.49,3.66,-3.66,-3.62,-3.67,1.82,1.83,1.83
60.96,5.40,3.61,5.39,3.59,-3.61,-3.57,-3.62,1.79,1.78,1.79
61.57,5.30,3.55,5.30,3.55,-3.57,-3.51,-3.58,1.74,1.74,1.75
62.18,5.21,3.50,5.22,3.51,-3.53,-3.46,-3.53,1.69,1.70,1.71
62.80,5.15,3.49,5.14,3.48,-3.49,-3.41,-3.48,1.66,1.65,1.66
63.43,5.07,3.45,5.07,3.46,-3.46,-3.35,-3.44,1.61,1.61,1.62
64.07,5.00,3.43,5.02,3.44,-3.43,-3.30,-3.39,1.57,1.58,1.57
64.71,4.96,3.43,4.95,3.42,-3.40,-3.25,-3.34,1.56,1.55,1.53
65.35,4.89,3.40,4.88,3.40,-3.38,-3.20,-3.29,1.52,1.51,1.49
66.01,4.80,3.36,4.80,3.36,-3.34,-3.15,-3.24,1.46,1.45,1.44
66.67,4.69,3.30,4.71,3.31,-3.31,-3.10,-3.19,1.38,1.40,1.39
67.33,4.61,3.27,4.62,3.27,-3.28,-3.05,-3.14,1.33,1.34,1.34
68.01,4.55,3.25,4.53,3.23,-3.25,-3.00,-3.09,1.31,1.28,1.30
68.69,4.44,3.19,4.45,3.20,-3.21,-2.96,-3.03,1.23,1.24,1.25
69.37,4.36,3.16,4.38,3.18,-3.18,-2.91,-2.98,1.18,1.20,1.20
70.07,4.31,3.16,4.31,3.16,-3.15,-2.86,-2.93,1.16,1.16,1.15
70.77,4.26,3.16,4.25,3.15,-3.13,-2.81,-2.88,1.13,1.12,1.10
71.48,4.17,3.12,4.15,3.11,-3.11,-2.77,-2.83,1.06,1.04,1.05
72.19,4.05,3.07,4.05,3.07,-3.09,-2.72,-2.77,0.96,0.96,0.98
72.91,3.92,3.00,3.98,3.05,-3.06,-2.68,-2.72,0.86,0.91,0.92
73.64,3.93,3.06,3.91,3.05,-3.03,-2.63,-2.67,0.90,0.88,0.87
74.38,3.88,3.07,3.84,3.03,-3.00,-2.59,-2.62,0.88,0.84,0.81
75.12,3.75,3.00,3.75,3.00,-2.97,-2.54,-2.57,0.78,0.78,0.75
75.87,3.60,2.91,3.63,2.94,-2.95,-2.50,-2.52,0.65,0.69,0.69
76.63,3.53,2.89,3.53,2.89,-2.92,-2.46,-2.48,0.61,0.60,0.64
77.40,3.46,2.87,3.45,2.86,-2.90,-2.41,-2.43,0.57,0.55,0.59
78.17,3.38,2.85,3.39,2.85,-2.86,-2.37,-2.38,0.52,0.54,0.53
78.95,3.31,2.82,3.34,2.85,-2.82,-2.33,-2.34,0.50,0.52,0.49
79.74,3.30,2.86,3.26,2.82,-2.78,-2.29,-2.29,0.52,0.49,0.44
80.54,3.18,2.79,3.16,2.77,-2.74,-2.25,-2.25,0.44,0.42,0.39
81.35,3.02,2.68,3.04,2.70,-2.71,-2.21,-2.21,0.31,0.33,0.34
82.16,2.90,2.61,2.93,2.64,-2.68,-2.17,-2.17,0.23,0.25,0.29
82.98,2.86,2.61,2.85,2.60,-2.64,-2.13,-2.13,0.22,0.21,0.25
83.81,2.81,2.61,2.80,2.60,-2.61,-2.09,-2.09,0.20,0.19,0.20
84.65,2.73,2.58,2.74,2.58,-2.57,-2.06,-2.06,0.16,0.17,0.15
85.50,2.67,2.56,2.67,2.56,-2.54,-2.02,-2.02,0.13,0.13,0.11
86.35,2.59,2.53,2.60,2.53,-2.51,-1.98,-1.99,0.08,0.08,0.06
87.22,2.51,2.50,2.52,2.50,-2.48,-1.95,-1.96,0.03,0.03,0.01
88.09,2.43,2.47,2.41,2.46,-2.45,-1.91,-1.93,-0.02,-0.04,-0.04
88.97,2.31,2.41,2.31,2.40,-2.41,-1.88,-1.90,-0.10,-0.10,-0.10
89.86,2.18,2.33,2.21,2.36,-2.37,-1.84,-1.87,-0.19,-0.16,-0.15
90.76,2.12,2.32,2.11,2.31,-2.33,-1.81,-1.84,-0.21,-0.22,-0.20
91.66,2.04,2.29,2.03,2.28,-2.29,-1.77,-1.82,-0.25,-0.26,-0.25
92.58,1.94,2.25,1.95,2.25,-2.25,-1.74,-1.79,-0.30,-0.30,-0.31
93.51,1.85,2.21,1.86,2.22,-2.21,-1.70,-1.77,-0.35,-0.34,-0.36
94.44,1.78,2.18,1.78,2.18,-2.17,-1.67,-1.75,-0.39,-0.39,-0.40
95.39,1.70,2.15,1.69,2.14,-2.14,-1.64,-1.72,-0.44,-0.45,-0.45
96.34,1.59,2.09,1.59,2.09,-2.11,-1.61,-1.70,-0.51,-0.51,-0.50
97.30,1.48,2.03,1.51,2.05,-2.07,-1.58,-1.69,-0.59,-0.56,-0.55
98.28,1.43,2.03,1.43,2.03,-2.03,-1.55,-1.67,-0.60,-0.60,-0.60
99.26,1.37,2.01,1.36,2.00,-1.98,-1.52,-1.65,-0.61,-0.62,-0.64
100.25,1.28,1.97,1.28,1.96,-1.94,-1.49,-1.64,-0.65,-0.66,-0.69
101.25,1.16,1.90,1.17,1.91,-1.89,-1.46,-1.62,-0.73,-0.72,-0.74
102.27,1.05,1.84,1.05,1.84,-1.84,-1.43,-1.61,-0.79,-0.80,-0.79
103.29,0.93,1.77,0.93,1.77,-1.79,-1.40,-1.59,-0.86,-0.86,-0.84
104.32,0.82,1.70,0.84,1.72,-1.74,-1.37,-1.58,-0.91,-0.90,-0.88
105.37,0.74,1.67,0.75,1.68,-1.68,-1.34,-1.57,-0.93,-0.93,-0.93
106.42,0.67,1.65,0.65,1.63,-1.61,-1.31,-1.56,-0.94,-0.96,-0.98
107.48,0.55,1.59,0.55,1.59,-1.55,-1.29,-1.54,-1.00,-1.00,-1.04
108.56,0.41,1.50,0.43,1.52,-1.50,-1.26,-1.53,-1.09,-1.07,-1.09
109.64,0.32,1.46,0.30,1.44,-1.45,-1.23,-1.52,-1.13,-1.16,-1.14
110.74,0.16,1.36,0.18,1.37,-1.41,-1.21,-1.51,-1.25,-1.22,-1.20
111.85,0.08,1.32,0.09,1.33,-1.36,-1.18,-1.50,-1.28,-1.27,-1.24
112.97,0.02,1.32,0.02,1.32,-1.33,-1.15,-1.49,-1.30,-1.31,-1.30
114.10,-0.04,1.31,-0.04,1.30,-1.29,-1.13,-1.48,-1.33,-1.34,-1.35
115.24,-0.10,1.30,-0.13,1.27,-1.26,-1.10,-1.46,-1.36,-1.39,-1.40
116.39,-0.24,1.21,-0.20,1.25,-1.23,-1.08,-1.45,-1.47,-1.42,-1.45
117.55,-0.29,1.20,-0.26,1.23,-1.20,-1.05,-1.44,-1.49,-1.46,-1.49
118.73,-0.28,1.25,-0.35,1.18,-1.18,-1.03,-1.43,-1.46,-1.53,-1.53
119.92,-0.43,1.13,-0.42,1.14,-1.15,-1.01,-1.41,-1.58,-1.57,-1.56
121.12,-0.55,1.05,-0.50,1.10,-1.13,-0.98,-1.40,-1.67,-1.62,-1.60
122.33,-0.55,1.08,-0.57,1.05,-1.10,-0.96,-1.38,-1.64,-1.67,-1.63
123.55,-0.59,1.07,-0.59,1.07,-1.07,-0.94,-1.37,-1.66,-1.65,-1.66
124.79,-0.64,1.05,-0.61,1.08,-1.04,-0.92,-1.35,-1.68,-1.65,-1.69
126.03,-0.62,1.10,-0.68,1.04,-1.01,-0.89,-1.33,-1.63,-1.68,-1.72
127.29,-0.77,0.97,-0.76,0.98,-0.97,-0.87,-1.31,-1.74,-1.74,-1.74
128.57,-0.88,0.90,-0.84,0.94,-0.94,-0.85,-1.29,-1.82,-1.78,-1.78
129.85,-0.93,0.88,-0.92,0.89,-0.91,-0.83,-1.27,-1.83,-1.82,-1.81
131.15,-0.92,0.92,-0.97,0.87,-0.87,-0.81,-1.25,-1.79,-1.84,-1.84
132.46,-1.05,0.82,-1.04,0.83,-0.84,-0.79,-1.23,-1.89,-1.88,-1.87
133.79,-1.12,0.78,-1.11,0.79,-0.81,-0.77,-1.21,-1.93,-1.92,-1.90
135.12,-1.19,0.74,-1.16,0.77,-0.78,-0.74,-1.19,-1.97,-1.94,-1.93
136.48,-1.18,0.77,-1.18,0.77,-0.76,-0.72,-1.16,-1.94,-1.94,-1.95
137.84,-1.18,0.81,-1.23,0.75,-0.73,-0.70,-1.14,-1.91,-1.96,-1.99
139.22,-1.31,0.71,-1.28,0.74,-0.70,-0.69,-1.11,-2.01,-1.98,-2.02
140.61,-1.40,0.65,-1.35,0.69,-0.67,-0.67,-1.09,-2.07,-2.02,-2.05
142.02,-1.38,0.69,-1.44,0.63,-0.64,-0.65,-1.06,-2.02,-2.08,-2.07
143.44,-1.51,0.59,-1.50,0.60,-0.62,-0.63,-1.04,-2.13,-2.12,-2.10
144.87,-1.60,0.54,-1.55,0.58,-0.60,-0.61,-1.01,-2.20,-2.15,-2.14
146.32,-1.59,0.59,-1.61,0.56,-0.59,-0.59,-0.98,-2.18,-2.20,-2.18
147.78,-1.63,0.58,-1.64,0.57,-0.58,-0.57,-0.96,-2.21,-2.22,-2.21
149.26,-1.68,0.58,-1.66,0.60,-0.59,-0.55,-0.93,-2.27,-2.25,-2.26
150.75,-1.70,0.62,-1.70,0.62,-0.61,-0.53,-0.90,-2.31,-2.31,-2.32
152.26,-1.72,0.67,-1.73,0.65,-0.64,-0.52,-0.88,-2.36,-2.38,-2.39
153.78,-1.78,0.68,-1.78,0.68,-0.68,-0.50,-0.85,-2.46,-2.46,-2.46
155.32,-1.84,0.69,-1.84,0.69,-0.71,-0.48,-0.82,-2.55,-2.55,-2.53
156.88,-1.90,0.71,-1.87,0.74,-0.75,-0.46,-0.80,-2.64,-2.62,-2.61
158.44,-1.90,0.79,-1.89,0.79,-0.78,-0.45,-0.77,-2.68,-2.67,-2.69
160.03,-1.89,0.88,-1.93,0.84,-0.81,-0.43,-0.74,-2.70,-2.74,-2.77
161.63,-1.99,0.85,-1.98,0.85,-0.84,-0.41,-0.72,-2.83,-2.83,-2.84
163.24,-2.07,0.83,-2.05,0.85,-0.87,-0.39,-0.69,-2.94,-2.92,-2.90
164.88,-2.10,0.85,-2.09,0.86,-0.89,-0.38,-0.67,-2.99,-2.98,-2.95
166.53,-2.11,0.89,-2.11,0.89,-0.90,-0.36,-0.64,-3.01,-3.00,-3.00
168.19,-2.11,0.93,-2.12,0.92,-0.89,-0.34,-0.62,-3.00,-3.01,-3.04
169.87,-2.15,0.93,-2.16,0.92,-0.87,-0.33,-0.59,-3.02,-3.03,-3.08
171.57,-2.22,0.88,-2.22,0.88,-0.85,-0.31,-0.57,-3.06,-3.06,-3.10
173.29,-2.30,0.81,-2.30,0.81,-0.81,-0.30,-0.55,-3.11,-3.11,-3.11
175.02,-2.37,0.75,-2.37,0.75,-0.78,-0.28,-0.52,-3.15,-3.15,-3.12
176.77,-2.45,0.68,-2.42,0.71,-0.73,-0.26,-0.50,-3.18,-3.16,-3.13
178.54,-2.44,0.70,-2.47,0.66,-0.69,-0.25,-0.48,-3.12,-3.15,-3.14
180.32,-2.50,0.63,-2.49,0.64,-0.64,-0.23,-0.46,-3.14,-3.13,-3.13
182.13,-2.53,0.59,-2.51,0.62,-0.60,-0.21,-0.44,-3.13,-3.11,-3.12
183.95,-2.53,0.60,-2.55,0.57,-0.57,-0.20,-0.41,-3.10,-3.12,-3.13
185.79,-2.57,0.56,-2.60,0.54,-0.54,-0.18,-0.39,-3.11,-3.14,-3.13
187.65,-2.68,0.47,-2.64,0.51,-0.52,-0.17,-0.37,-3.19,-3.15,-3.15
189.52,-2.69,0.47,-2.67,0.49,-0.49,-0.15,-0.35,-3.18,-3.16,-3.16
191.42,-2.68,0.50,-2.71,0.47,-0.47,-0.14,-0.33,-3.15,-3.18,-3.18
193.33,-2.73,0.47,-2.74,0.46,-0.45,-0.12,-0.31,-3.18,-3.19,-3.20
195.27,-2.81,0.41,-2.78,0.44,-0.43,-0.10,-0.29,-3.24,-3.22,-3.22
197.22,-2.83,0.41,-2.83,0.41,-0.43,-0.09,-0.27,-3.25,-3.25,-3.24
199.19,-2.85,0.41,-2.86,0.40,-0.41,-0.07,-0.25,-3.26,-3.28,-3.26
201.18,-2.89,0.39,-2.88,0.40,-0.40,-0.06,-0.23,-3.29,-3.28,-3.28
203.19,-2.91,0.39,-2.90,0.40,-0.38,-0.04,-0.21,-3.29,-3.28,-3.30
205.23,-2.91,0.41,-2.92,0.39,-0.37,-0.03,-0.19,-3.27,-3.29,-3.32
207.28,-2.95,0.38,-2.96,0.38,-0.35,-0.01,-0.18,-3.30,-3.31,-3.33
209.35,-3.01,0.34,-3.01,0.34,-0.34,0.01,-0.16,-3.35,-3.36,-3.35
211.44,-3.09,0.29,-3.07,0.30,-0.33,0.02,-0.14,-3.42,-3.41,-3.38
213.56,-3.12,0.27,-3.11,0.28,-0.32,0.04,-0.12,-3.44,-3.43,-3.39
215.69,-3.12,0.28,-3.12,0.27,-0.30,0.05,-0.10,-3.42,-3.42,-3.40
217.85,-3.12,0.29,-3.11,0.30,-0.27,0.07,-0.08,-3.39,-3.38,-3.41
220.03,-3.13,0.29,-3.12,0.30,-0.24,0.09,-0.07,-3.37,-3.37,-3.42
222.23,-3.13,0.32,-3.17,0.26,-0.22,0.10,-0.05,-3.35,-3.39,-3.45
224.45,-3.26,0.18,-3.24,0.20,-0.19,0.12,-0.03,-3.45,-3.43,-3.44
226.70,-3.33,0.11,-3.30,0.14,-0.17,0.13,-0.01,-3.50,-3.47,-3.44
228.96,-3.33,0.10,-3.33,0.09,-0.15,0.15,0.01,-3.48,-3.48,-3.43
231.25,-3.32,0.10,-3.33,0.09,-0.13,0.17,0.03,-3.45,-3.46,-3.42
233.57,-3.31,0.10,-3.31,0.10,-0.11,0.18,0.04,-3.42,-3.42,-3.41
235.90,-3.30,0.10,-3.29,0.11,-0.09,0.20,0.06,-3.39,-3.39,-3.40
238.26,-3.28,0.11,-3.27,0.11,-0.08,0.22,0.08,-3.36,-3.35,-3.39
240.64,-3.26,0.10,-3.26,0.10,-0.07,0.23,0.10,-3.33,-3.33,-3.36
243.05,-3.25,0.08,-3.26,0.07,-0.05,0.25,0.12,-3.30,-3.31,-3.33
245.48,-3.29,0.02,-3.27,0.03,-0.02,0.27,0.14,-3.31,-3.29,-3.31
247.93,-3.30,-0.02,-3.30,-0.02,0.01,0.28,0.16,-3.29,-3.29,-3.28
250.41,-3.31,-0.05,-3.33,-0.07,0.05,0.30,0.18,-3.26,-3.28,-3.26
252.92,-3.37,-0.14,-3.34,-0.11,0.10,0.32,0.20,-3.27,-3.24,-3.23
255.45,-3.36,-0.15,-3.35,-0.14,0.15,0.34,0.21,-3.21,-3.21,-3.21
258.00,-3.35,-0.16,-3.37,-0.18,0.19,0.35,0.23,-3.16,-3.18,-3.19
260.58,-3.38,-0.21,-3.39,-0.22,0.23,0.37,0.26,-3.15,-3.16,-3.17
263.19,-3.43,-0.29,-3.42,-0.27,0.27,0.39,0.28,-3.16,-3.15,-3.14
265.82,-3.45,-0.33,-3.44,-0.32,0.30,0.41,0.30,-3.15,-3.14,-3.12
268.48,-3.45,-0.35,-3.45,-0.36,0.34,0.43,0.32,-3.11,-3.11,-3.10
271.16,-3.45,-0.38,-3.45,-0.38,0.38,0.44,0.34,-3.07,-3.07,-3.07
273.87,-3.45,-0.40,-3.45,-0.40,0.42,0.46,0.36,-3.03,-3.02,-3.05
276.61,-3.46,-0.44,-3.47,-0.45,0.47,0.48,0.38,-2.99,-3.00,-3.02
279.38,-3.48,-0.49,-3.49,-0.50,0.51,0.50,0.41,-2.97,-2.98,-2.99
282.17,-3.55,-0.58,-3.52,-0.56,0.56,0.52,0.43,-2.99,-2.96,-2.97
284.99,-3.54,-0.61,-3.55,-0.62,0.61,0.54,0.45,-2.93,-2.94,-2.93
287.84,-3.57,-0.66,-3.58,-0.68,0.66,0.56,0.48,-2.91,-2.92,-2.91
290.72,-3.62,-0.74,-3.59,-0.71,0.72,0.58,0.50,-2.90,-2.87,-2.88
293.63,-3.62,-0.77,-3.61,-0.77,0.77,0.60,0.53,-2.85,-2.85,-2.85
296.57,-3.60,-0.78,-3.64,-0.82,0.82,0.62,0.55,-2.78,-2.82,-2.82
299.53,-3.68,-0.89,-3.66,-0.87,0.86,0.64,0.58,-2.82,-2.80,-2.79
302.53,-3.70,-0.93,-3.67,-0.91,0.90,0.66,0.61,-2.79,-2.76,-2.77
305.55,-3.67,-0.94,-3.68,-0.95,0.95,0.68,0.63,-2.72,-2.73,-2.73
308.61,-3.66,-0.95,-3.69,-0.98,1.00,0.71,0.66,-2.66,-2.69,-2.71
311.69,-3.73,-1.05,-3.71,-1.04,1.04,0.73,0.69,-2.69,-2.67,-2.68
314.81,-3.77,-1.11,-3.74,-1.08,1.08,0.75,0.72,-2.68,-2.65,-2.66
317.96,-3.76,-1.12,-3.77,-1.13,1.12,0.77,0.75,-2.63,-2.65,-2.64
321.14,-3.77,-1.14,-3.81,-1.19,1.17,0.79,0.79,-2.60,-2.64,-2.63
324.35,-3.88,-1.27,-3.85,-1.23,1.22,0.82,0.82,-2.66,-2.62,-2.61
327.59,-3.91,-1.31,-3.85,-1.25,1.27,0.84,0.85,-2.64,-2.58,-2.60
330.87,-3.84,-1.25,-3.88,-1.30,1.32,0.86,0.89,-2.52,-2.56,-2.59
334.18,-3.85,-1.28,-3.92,-1.34,1.37,0.89,0.92,-2.48,-2.55,-2.57
337.52,-4.04,-1.48,-3.98,-1.42,1.42,0.91,0.96,-2.62,-2.56,-2.56
340.90,-4.07,-1.52,-4.04,-1.50,1.47,0.94,1.00,-2.60,-2.58,-2.55
344.30,-4.06,-1.52,-4.07,-1.53,1.51,0.96,1.03,-2.54,-2.55,-2.54
347.75,-4.06,-1.52,-4.07,-1.54,1.56,0.99,1.07,-2.50,-2.52,-2.54
351.23,-4.08,-1.55,-4.11,-1.58,1.59,1.01,1.11,-2.49,-2.52,-2.53
354.74,-4.19,-1.65,-4.16,-1.62,1.61,1.04,1.16,-2.58,-2.54,-2.54
358.28,-4.21,-1.68,-4.18,-1.65,1.62,1.06,1.20,-2.58,-2.56,-2.53
361.87,-4.16,-1.63,-4.18,-1.65,1.63,1.09,1.24,-2.53,-2.55,-2.53
365.49,-4.14,-1.62,-4.15,-1.62,1.62,1.11,1.29,-2.52,-2.52,-2.52
369.14,-4.13,-1.60,-4.13,-1.60,1.62,1.14,1.33,-2.51,-2.51,-2.53
372.83,-4.12,-1.59,-4.12,-1.59,1.61,1.17,1.38,-2.51,-2.51,-2.53
376.56,-4.12,-1.58,-4.11,-1.58,1.59,1.19,1.42,-2.53,-2.52,-2.54
380.33,-4.11,-1.58,-4.11,-1.58,1.57,1.22,1.47,-2.54,-2.54,-2.53
384.13,-4.10,-1.57,-4.10,-1.57,1.55,1.25,1.52,-2.54,-2.55,-2.53
387.97,-4.10,-1.56,-4.09,-1.56,1.55,1.27,1.57,-2.55,-2.54,-2.54
391.85,-4.09,-1.54,-4.09,-1.55,1.56,1.30,1.62,-2.53,-2.53,-2.55
395.77,-4.09,-1.55,-4.08,-1.54,1.57,1.33,1.67,-2.52,-2.51,-2.54
399.73,-4.09,-1.54,-4.09,-1.54,1.58,1.36,1.72,-2.51,-2.51,-2.55
403.72,-4.10,-1.55,-4.13,-1.58,1.59,1.39,1.77,-2.51,-2.54,-2.55
407.76,-4.18,-1.61,-4.18,-1.62,1.60,1.41,1.82,-2.58,-2.59,-2.57
411.84,-4.27,-1.70,-4.22,-1.66,1.61,1.44,1.87,-2.66,-2.61,-2.57
415.96,-4.24,-1.67,-4.24,-1.67,1.63,1.47,1.92,-2.61,-2.61,-2.57
420.12,-4.20,-1.63,-4.22,-1.65,1.65,1.50,1.97,-2.54,-2.57,-2.57
424.32,-4.20,-1.63,-4.18,-1.62,1.67,1.53,2.02,-2.53,-2.51,-2.57
428.56,-4.19,-1.63,-4.20,-1.64,1.68,1.55,2.07,-2.51,-2.52,-2.56
432.85,-4.20,-1.65,-4.25,-1.70,1.69,1.58,2.11,-2.51,-2.56,-2.55
437.18,-4.33,-1.79,-4.27,-1.74,1.70,1.61,2.16,-2.63,-2.57,-2.54
441.55,-4.28,-1.78,-4.26,-1.75,1.71,1.64,2.20,-2.57,-2.55,-2.50
445.96,-4.18,-1.71,-4.19,-1.72,1.73,1.66,2.24,-2.45,-2.47,-2.47
450.42,-4.12,-1.68,-4.12,-1.69,1.74,1.69,2.28,-2.38,-2.39,-2.44
454.93,-4.06,-1.67,-4.12,-1.72,1.74,1.72,2.31,-2.31,-2.37,-2.39
459.48,-4.16,-1.81,-4.12,-1.77,1.75,1.74,2.34,-2.41,-2.37,-2.35
464.07,-4.14,-1.84,-4.09,-1.79,1.76,1.77,2.37,-2.38,-2.33,-2.30
468.71,-4.00,-1.76,-4.02,-1.77,1.77,1.80,2.40,-2.22,-2.24,-2.24
473.40,-3.92,-1.72,-3.93,-1.74,1.79,1.82,2.42,-2.13,-2.14,-2.20
