frequency,raw,error,smoothed,error_smoothed,equalization,parametric_eq,fixed_band_eq,equalized_raw,equalized_smoothed,target
20.00,4.32,-1.63,4.32,-1.66,1.66,1.39,0.54,5.98,5.98,5.96
20.20,4.37,-1.67,4.38,-1.68,1.68,1.42,0.56,6.06,6.06,6.05
20.40,4.43,-1.69,4.43,-1.70,1.70,1.44,0.58,6.14,6.13,6.13
20.61,4.48,-1.71,4.48,-1.72,1.72,1.47,0.59,6.20,6.20,6.19
20.81,4.54,-1.75,4.54,-1.73,1.73,1.49,0.61,6.27,6.27,6.29
21.02,4.59,-1.77,4.59,-1.75,1.75,1.52,0.63,6.34,6.34,6.37
21.23,4.64,-1.78,4.64,-1.76,1.76,1.54,0.65,6.40,6.40,6.42
21.44,4.70,-1.79,4.70,-1.76,1.76,1.56,0.67,6.46,6.46,6.48
21.66,4.75,-1.78,4.75,-1.77,1.77,1.58,0.69,6.52,6.52,6.53
21.87,4.81,-1.78,4.81,-1.77,1.77,1.60,0.71,6.57,6.57,6.58
22.09,4.86,-1.78,4.86,-1.77,1.77,1.61,0.73,6.62,6.63,6.63
22.31,4.92,-1.77,4.91,-1.77,1.77,1.62,0.76,6.68,6.68,6.68
22.54,4.96,-1.76,4.97,-1.76,1.76,1.63,0.78,6.72,6.72,6.72
22.76,5.01,-1.75,5.02,-1.74,1.74,1.64,0.80,6.76,6.76,6.76
22.99,5.07,-1.72,5.07,-1.73,1.73,1.65,0.83,6.80,6.80,6.79
23.22,5.12,-1.70,5.13,-1.71,1.71,1.65,0.85,6.84,6.84,6.83
23.45,5.18,-1.68,5.18,-1.70,1.70,1.65,0.88,6.88,6.88,6.87
23.69,5.23,-1.67,5.23,-1.68,1.68,1.64,0.90,6.92,6.91,6.91
23.92,5.29,-1.66,5.28,-1.66,1.66,1.64,0.93,6.95,6.95,6.95
24.16,5.34,-1.66,5.34,-1.65,1.65,1.63,0.95,6.98,6.98,7.00
24.40,5.40,-1.63,5.39,-1.63,1.63,1.62,0.98,7.02,7.02,7.03
24.65,5.44,-1.61,5.44,-1.61,1.61,1.60,1.01,7.05,7.05,7.05
24.89,5.50,-1.59,5.50,-1.59,1.59,1.59,1.03,7.09,7.09,7.08
25.14,5.55,-1.58,5.55,-1.57,1.57,1.57,1.06,7.12,7.12,7.12
25.39,5.60,-1.56,5.60,-1.55,1.55,1.55,1.09,7.15,7.15,7.15
25.65,5.65,-1.54,5.65,-1.53,1.53,1.52,1.11,7.19,7.18,7.19
25.91,5.70,-1.50,5.71,-1.51,1.51,1.50,1.14,7.21,7.22,7.21
26.16,5.76,-1.48,5.76,-1.49,1.49,1.47,1.16,7.24,7.25,7.24
26.43,5.81,-1.46,5.81,-1.46,1.46,1.44,1.19,7.28,7.28,7.28
26.69,5.86,-1.44,5.86,-1.44,1.44,1.41,1.21,7.31,7.31,7.30
26.96,5.91,-1.42,5.92,-1.42,1.42,1.38,1.24,7.33,7.33,7.33
27.23,5.96,-1.41,5.97,-1.40,1.40,1.34,1.26,7.36,7.36,7.37
27.50,6.02,-1.38,6.02,-1.38,1.38,1.31,1.28,7.40,7.39,7.40
27.77,6.08,-1.34,6.07,-1.36,1.36,1.27,1.30,7.43,7.42,7.42
28.05,6.12,-1.33,6.12,-1.33,1.33,1.24,1.32,7.46,7.45,7.46
28.33,6.17,-1.30,6.17,-1.31,1.31,1.20,1.34,7.49,7.48,7.48
28.62,6.22,-1.28,6.22,-1.29,1.29,1.16,1.35,7.52,7.51,7.50
28.90,6.26,-1.28,6.27,-1.27,1.27,1.13,1.36,7.54,7.54,7.54
29.19,6.31,-1.25,6.32,-1.25,1.25,1.09,1.38,7.56,7.57,7.56
29.48,6.36,-1.24,6.37,-1.23,1.23,1.05,1.38,7.59,7.60,7.61
29.78,6.41,-1.21,6.42,-1.20,1.20,1.01,1.39,7.62,7.63,7.63
30.08,6.46,-1.19,6.47,-1.18,1.18,0.97,1.39,7.65,7.65,7.65
30.38,6.51,-1.17,6.52,-1.16,1.16,0.94,1.39,7.67,7.68,7.68
30.68,6.57,-1.14,6.57,-1.14,1.14,0.90,1.39,7.71,7.71,7.71
30.99,6.62,-1.10,6.61,-1.12,1.12,0.86,1.39,7.74,7.73,7.73
31.30,6.66,-1.09,6.66,-1.10,1.10,0.82,1.38,7.76,7.76,7.76
31.61,6.71,-1.07,6.70,-1.08,1.08,0.79,1.37,7.79,7.78,7.78
31.93,6.75,-1.05,6.75,-1.06,1.06,0.75,1.35,7.81,7.81,7.80
32.24,6.80,-1.02,6.79,-1.03,1.03,0.72,1.34,7.83,7.83,7.82
32.57,6.83,-1.01,6.84,-1.01,1.01,0.68,1.32,7.85,7.85,7.85
32.89,6.87,-1.00,6.88,-0.99,0.99,0.65,1.30,7.86,7.87,7.87
33.22,6.91,-0.97,6.92,-0.97,0.97,0.61,1.27,7.88,7.89,7.89
33.55,6.95,-0.95,6.96,-0.94,0.94,0.58,1.25,7.90,7.90,7.91
33.89,6.99,-0.92,7.00,-0.92,0.92,0.55,1.22,7.91,7.92,7.91
34.23,7.03,-0.91,7.04,-0.90,0.90,0.51,1.18,7.93,7.93,7.94
34.57,7.07,-0.87,7.08,-0.87,0.87,0.48,1.15,7.94,7.94,7.95
34.92,7.11,-0.84,7.11,-0.84,0.84,0.45,1.12,7.95,7.95,7.95
35.27,7.15,-0.81,7.15,-0.81,0.81,0.42,1.08,7.96,7.96,7.97
35.62,7.19,-0.77,7.19,-0.78,0.78,0.39,1.04,7.97,7.97,7.96
35.97,7.23,-0.74,7.23,-0.75,0.75,0.36,1.00,7.98,7.98,7.97
36.33,7.26,-0.72,7.27,-0.71,0.71,0.33,0.96,7.98,7.98,7.99
36.70,7.30,-0.68,7.30,-0.68,0.68,0.30,0.92,7.98,7.98,7.98
37.06,7.34,-0.63,7.34,-0.64,0.64,0.28,0.88,7.99,7.98,7.98
37.43,7.38,-0.61,7.38,-0.60,0.60,0.25,0.83,7.98,7.98,7.98
37.81,7.41,-0.56,7.41,-0.57,0.57,0.22,0.79,7.98,7.98,7.98
38.19,7.45,-0.52,7.45,-0.53,0.53,0.19,0.74,7.98,7.98,7.97
38.57,7.48,-0.49,7.48,-0.49,0.49,0.17,0.70,7.97,7.97,7.98
38.95,7.51,-0.46,7.52,-0.45,0.45,0.14,0.65,7.96,7.97,7.97
39.34,7.54,-0.41,7.56,-0.41,0.41,0.12,0.61,7.95,7.96,7.96
39.74,7.58,-0.37,7.59,-0.37,0.37,0.09,0.56,7.95,7.96,7.95
40.14,7.62,-0.32,7.63,-0.32,0.32,0.07,0.51,7.95,7.95,7.94
40.54,7.65,-0.28,7.66,-0.28,0.28,0.04,0.47,7.93,7.94,7.94
40.94,7.69,-0.24,7.70,-0.24,0.24,0.02,0.42,7.93,7.93,7.93
41.35,7.73,-0.19,7.73,-0.19,0.19,-0.01,0.38,7.93,7.92,7.92
41.76,7.77,-0.14,7.76,-0.15,0.15,-0.03,0.33,7.92,7.91,7.92
42.18,7.80,-0.10,7.80,-0.11,0.11,-0.05,0.29,7.91,7.90,7.91
42.60,7.83,-0.06,7.83,-0.06,0.06,-0.08,0.24,7.90,7.89,7.89
43.03,7.86,-0.03,7.86,-0.02,0.02,-0.10,0.19,7.88,7.88,7.89
43.46,7.89,0.02,7.89,0.03,-0.03,-0.12,0.15,7.87,7.87,7.87
43.90,7.92,0.07,7.93,0.07,-0.07,-0.15,0.10,7.85,7.86,7.86
44.33,7.95,0.12,7.96,0.11,-0.11,-0.17,0.06,7.84,7.84,7.84
44.78,7.98,0.16,7.99,0.16,-0.16,-0.19,0.01,7.83,7.83,7.83
45.23,8.01,0.21,8.02,0.20,-0.20,-0.21,-0.03,7.81,7.82,7.81
45.68,8.04,0.25,8.05,0.24,-0.24,-0.24,-0.07,7.80,7.81,7.80
46.13,8.07,0.29,8.08,0.29,-0.29,-0.26,-0.12,7.79,7.79,7.79
46.60,8.11,0.33,8.11,0.33,-0.33,-0.28,-0.16,7.78,7.78,7.79
47.06,8.14,0.37,8.15,0.38,-0.38,-0.30,-0.21,7.77,7.77,7.78
47.53,8.18,0.42,8.18,0.42,-0.42,-0.33,-0.25,7.76,7.76,7.76
48.01,8.21,0.45,8.21,0.46,-0.46,-0.35,-0.29,7.75,7.75,7.76
48.49,8.24,0.50,8.25,0.51,-0.51,-0.37,-0.34,7.74,7.74,7.75
48.97,8.27,0.54,8.28,0.54,-0.54,-0.39,-0.38,7.73,7.73,7.74
49.46,8.30,0.59,8.31,0.58,-0.58,-0.41,-0.42,7.72,7.73,7.71
49.96,8.34,0.65,8.34,0.62,-0.62,-0.44,-0.47,7.72,7.72,7.70
50.46,8.37,0.67,8.37,0.66,-0.66,-0.46,-0.51,7.72,7.71,7.70
50.96,8.40,0.70,8.40,0.69,-0.69,-0.48,-0.55,7.71,7.71,7.71
51.47,8.42,0.73,8.42,0.72,-0.72,-0.50,-0.60,7.70,7.70,7.69
51.99,8.45,0.77,8.45,0.76,-0.76,-0.53,-0.64,7.70,7.69,7.69
52.51,8.47,0.78,8.47,0.79,-0.79,-0.55,-0.68,7.69,7.68,7.69
53.03,8.49,0.81,8.49,0.82,-0.82,-0.57,-0.72,7.68,7.68,7.68
53.56,8.51,0.84,8.51,0.85,-0.85,-0.60,-0.77,7.67,7.67,7.68
54.10,8.53,0.87,8.53,0.87,-0.87,-0.62,-0.81,7.66,7.66,7.67
54.64,8.55,0.90,8.55,0.90,-0.90,-0.64,-0.85,7.66,7.65,7.65
55.18,8.56,0.92,8.56,0.93,-0.93,-0.67,-0.89,7.64,7.64,7.64
55.74,8.57,0.95,8.58,0.95,-0.95,-0.69,-0.93,7.62,7.63,7.62
56.29,8.59,0.99,8.60,0.99,-0.99,-0.71,-0.97,7.61,7.61,7.61
56.86,8.61,1.03,8.61,1.02,-1.02,-0.74,-1.01,7.59,7.59,7.59
57.42,8.62,1.06,8.63,1.06,-1.06,-0.76,-1.05,7.57,7.57,7.57
58.00,8.63,1.08,8.65,1.10,-1.10,-0.79,-1.09,7.54,7.55,7.55
58.58,8.65,1.13,8.66,1.14,-1.14,-0.81,-1.13,7.52,7.53,7.53
59.16,8.67,1.16,8.68,1.18,-1.18,-0.84,-1.17,7.50,7.50,7.51
59.76,8.69,1.21,8.70,1.22,-1.22,-0.86,-1.21,7.47,7.47,7.49
60.35,8.71,1.26,8.71,1.27,-1.27,-0.89,-1.25,7.45,7.45,7.45
60.96,8.74,1.31,8.73,1.31,-1.31,-0.92,-1.29,7.43,7.42,7.44
61.57,8.76,1.38,8.75,1.36,-1.36,-0.94,-1.32,7.40,7.39,7.39
62.18,8.77,1.42,8.77,1.41,-1.41,-0.97,-1.36,7.36,7.36,7.35
62.80,8.79,1.46,8.79,1.46,-1.46,-1.00,-1.39,7.34,7.33,7.33
63.43,8.80,1.51,8.81,1.50,-1.50,-1.02,-1.43,7.30,7.31,7.29
64.07,8.81,1.54,8.83,1.55,-1.55,-1.05,-1.47,7.27,7.28,7.27
64.71,8.84,1.60,8.85,1.59,-1.59,-1.08,-1.50,7.25,7.26,7.25
65.35,8.86,1.64,8.87,1.63,-1.63,-1.11,-1.53,7.23,7.24,7.23
66.01,8.88,1.67,8.88,1.67,-1.67,-1.14,-1.57,7.22,7.22,7.21
66.67,8.90,1.71,8.90,1.70,-1.70,-1.17,-1.60,7.20,7.20,7.20
67.33,8.92,1.74,8.91,1.73,-1.73,-1.20,-1.64,7.19,7.18,7.18
68.01,8.93,1.77,8.93,1.76,-1.76,-1.23,-1.67,7.17,7.17,7.17
68.69,8.94,1.80,8.94,1.79,-1.79,-1.26,-1.71,7.16,7.15,7.15
69.37,8.95,1.81,8.95,1.81,-1.81,-1.29,-1.74,7.14,7.14,7.14
70.07,8.96,1.84,8.96,1.84,-1.84,-1.33,-1.78,7.13,7.12,7.12
70.77,8.98,1.86,8.97,1.87,-1.87,-1.36,-1.81,7.12,7.11,7.12
71.48,8.98,1.89,8.99,1.89,-1.89,-1.39,-1.85,7.09,7.09,7.10
72.19,8.99,1.92,9.00,1.92,-1.92,-1.43,-1.89,7.07,7.08,7.08
72.91,9.00,1.94,9.01,1.95,-1.95,-1.46,-1.93,7.05,7.06,7.06
73.64,9.01,1.97,9.02,1.98,-1.98,-1.50,-1.97,7.03,7.04,7.04
74.38,9.02,2.00,9.04,2.02,-2.02,-1.53,-2.01,7.01,7.02,7.02
75.12,9.03,2.04,9.05,2.05,-2.05,-1.57,-2.05,6.98,7.00,7.00
75.87,9.06,2.08,9.07,2.09,-2.09,-1.61,-2.09,6.97,6.98,6.98
76.63,9.08,2.12,9.09,2.14,-2.14,-1.64,-2.13,6.95,6.96,6.96
77.40,9.11,2.18,9.12,2.18,-2.18,-1.68,-2.18,6.94,6.94,6.93
78.17,9.14,2.24,9.14,2.22,-2.22,-1.72,-2.23,6.92,6.92,6.90
78.95,9.16,2.26,9.16,2.26,-2.26,-1.76,-2.27,6.90,6.90,6.90
79.74,9.18,2.30,9.19,2.31,-2.31,-1.80,-2.33,6.88,6.88,6.88
80.54,9.21,2.36,9.21,2.35,-2.35,-1.85,-2.38,6.87,6.87,6.86
81.35,9.23,2.39,9.23,2.38,-2.38,-1.89,-2.43,6.85,6.85,6.84
82.16,9.25,2.42,9.25,2.42,-2.42,-1.93,-2.49,6.84,6.84,6.83
82.98,9.28,2.46,9.27,2.44,-2.44,-1.97,-2.54,6.84,6.83,6.82
83.81,9.30,2.50,9.29,2.47,-2.47,-2.02,-2.60,6.83,6.81,6.81
84.65,9.31,2.52,9.30,2.49,-2.49,-2.06,-2.67,6.82,6.80,6.79
85.50,9.31,2.52,9.30,2.51,-2.51,-2.11,-2.73,6.80,6.79,6.79
86.35,9.32,2.54,9.31,2.53,-2.53,-2.16,-2.80,6.79,6.78,6.78
87.22,9.31,2.55,9.31,2.55,-2.55,-2.21,-2.87,6.77,6.77,6.76
88.09,9.31,2.56,9.32,2.57,-2.57,-2.26,-2.94,6.75,6.75,6.75
88.97,9.30,2.56,9.32,2.58,-2.58,-2.31,-3.01,6.72,6.73,6.74
89.86,9.30,2.58,9.32,2.60,-2.60,-2.36,-3.08,6.70,6.71,6.72
90.76,9.30,2.62,9.32,2.63,-2.63,-2.41,-3.16,6.68,6.69,6.69
91.66,9.30,2.64,9.31,2.65,-2.65,-2.46,-3.24,6.65,6.66,6.66
92.58,9.30,2.68,9.31,2.68,-2.68,-2.52,-3.32,6.62,6.62,6.62
93.51,9.30,2.71,9.30,2.72,-2.72,-2.57,-3.41,6.58,6.59,6.60
94.44,9.30,2.75,9.30,2.76,-2.76,-2.63,-3.49,6.55,6.54,6.55
95.39,9.30,2.80,9.30,2.80,-2.80,-2.68,-3.58,6.50,6.49,6.51
96.34,9.30,2.85,9.29,2.85,-2.85,-2.74,-3.67,6.45,6.44,6.45
97.30,9.30,2.92,9.29,2.90,-2.90,-2.80,-3.76,6.40,6.39,6.38
98.28,9.30,2.98,9.29,2.96,-2.96,-2.86,-3.86,6.34,6.33,6.33
99.26,9.29,3.03,9.29,3.02,-3.02,-2.92,-3.95,6.27,6.26,6.26
100.25,9.28,3.09,9.29,3.09,-3.09,-2.99,-4.05,6.19,6.20,6.19
101.25,9.27,3.15,9.29,3.16,-3.16,-3.05,-4.14,6.12,6.13,6.13
102.27,9.28,3.22,9.29,3.23,-3.23,-3.12,-4.24,6.05,6.06,6.06
103.29,9.28,3.30,9.30,3.31,-3.31,-3.18,-4.34,5.98,5.99,5.98
104.32,9.29,3.37,9.31,3.39,-3.39,-3.25,-4.44,5.91,5.92,5.92
105.37,9.31,3.47,9.33,3.47,-3.47,-3.32,-4.54,5.84,5.85,5.85
106.42,9.33,3.56,9.34,3.56,-3.56,-3.39,-4.64,5.77,5.78,5.78
107.48,9.36,3.65,9.37,3.66,-3.66,-3.46,-4.74,5.71,5.71,5.71
108.56,9.39,3.75,9.40,3.75,-3.75,-3.53,-4.83,5.64,5.65,5.64
109.64,9.42,3.85,9.43,3.85,-3.85,-3.61,-4.93,5.58,5.58,5.58
110.74,9.45,3.94,9.46,3.95,-3.95,-3.68,-5.02,5.50,5.51,5.52
111.85,9.49,4.03,9.50,4.05,-4.05,-3.76,-5.11,5.45,5.45,5.46
112.97,9.53,4.15,9.54,4.15,-4.15,-3.84,-5.20,5.39,5.39,5.38
114.10,9.58,4.25,9.58,4.24,-4.24,-3.92,-5.28,5.34,5.33,5.34
115.24,9.63,4.36,9.61,4.34,-4.34,-4.00,-5.36,5.30,5.28,5.27
116.39,9.66,4.45,9.65,4.43,-4.43,-4.08,-5.44,5.24,5.23,5.22
117.55,9.70,4.53,9.69,4.51,-4.51,-4.16,-5.51,5.19,5.18,5.17
118.73,9.74,4.63,9.73,4.60,-4.60,-4.25,-5.57,5.15,5.13,5.12
119.92,9.77,4.69,9.76,4.68,-4.68,-4.33,-5.63,5.09,5.08,5.08
121.12,9.80,4.77,9.80,4.76,-4.76,-4.42,-5.69,5.04,5.04,5.04
122.33,9.82,4.83,9.84,4.84,-4.84,-4.51,-5.73,4.98,5.00,4.99
123.55,9.85,4.89,9.87,4.92,-4.92,-4.60,-5.77,4.94,4.95,4.96
124.79,9.90,4.99,9.91,5.00,-5.00,-4.69,-5.81,4.91,4.92,4.92
126.03,9.95,5.07,9.95,5.07,-5.07,-4.78,-5.84,4.88,4.88,4.89
127.29,9.98,5.14,9.99,5.15,-5.15,-4.87,-5.86,4.83,4.84,4.85
128.57,10.01,5.22,10.04,5.24,-5.24,-4.97,-5.87,4.78,4.80,4.80
129.85,10.07,5.31,10.09,5.32,-5.32,-5.06,-5.88,4.75,4.76,4.77
131.15,10.13,5.41,10.14,5.41,-5.41,-5.16,-5.88,4.72,4.73,4.73
132.46,10.17,5.49,10.19,5.50,-5.50,-5.26,-5.88,4.67,4.69,4.68
133.79,10.22,5.57,10.24,5.59,-5.59,-5.36,-5.87,4.63,4.65,4.66
135.12,10.29,5.69,10.29,5.68,-5.68,-5.46,-5.85,4.62,4.61,4.61
136.48,10.33,5.76,10.34,5.77,-5.77,-5.56,-5.84,4.57,4.57,4.57
137.84,10.40,5.87,10.38,5.85,-5.85,-5.66,-5.81,4.55,4.53,4.53
139.22,10.44,5.97,10.42,5.94,-5.94,-5.76,-5.79,4.51,4.49,4.48
140.61,10.48,6.05,10.46,6.02,-6.02,-5.86,-5.76,4.47,4.44,4.44
142.02,10.53,6.13,10.50,6.10,-6.10,-5.96,-5.73,4.44,4.40,4.40
143.44,10.54,6.18,10.53,6.17,-6.17,-6.06,-5.70,4.37,4.36,4.36
144.87,10.56,6.25,10.56,6.24,-6.24,-6.16,-5.67,4.32,4.31,4.31
146.32,10.57,6.31,10.59,6.32,-6.32,-6.26,-5.64,4.26,4.27,4.27
147.78,10.59,6.37,10.61,6.39,-6.39,-6.37,-5.60,4.21,4.22,4.23
149.26,10.62,6.44,10.64,6.46,-6.46,-6.47,-5.57,4.17,4.18,4.18
150.75,10.65,6.53,10.66,6.53,-6.53,-6.56,-5.54,4.12,4.13,4.13
152.26,10.66,6.58,10.69,6.60,-6.60,-6.66,-5.51,4.06,4.08,4.08
153.78,10.69,6.66,10.71,6.68,-6.68,-6.76,-5.49,4.02,4.03,4.04
155.32,10.71,6.73,10.74,6.76,-6.76,-6.85,-5.46,3.96,3.98,3.99
156.88,10.76,6.82,10.77,6.83,-6.83,-6.95,-5.44,3.93,3.93,3.95
158.44,10.78,6.90,10.80,6.91,-6.91,-7.04,-5.42,3.87,3.88,3.88
160.03,10.83,7.00,10.82,6.99,-6.99,-7.13,-5.40,3.84,3.83,3.84
161.63,10.85,7.08,10.85,7.07,-7.07,-7.21,-5.38,3.79,3.78,3.78
163.24,10.87,7.15,10.88,7.14,-7.14,-7.29,-5.37,3.73,3.73,3.73
164.88,10.91,7.23,10.90,7.21,-7.21,-7.37,-5.36,3.70,3.69,3.68
166.53,10.93,7.30,10.92,7.28,-7.28,-7.45,-5.36,3.66,3.64,3.64
168.19,10.94,7.35,10.93,7.34,-7.34,-7.52,-5.36,3.61,3.59,3.59
169.87,10.95,7.41,10.94,7.40,-7.40,-7.58,-5.36,3.56,3.55,3.55
171.57,10.95,7.45,10.95,7.44,-7.44,-7.64,-5.37,3.51,3.50,3.51
173.29,10.94,7.48,10.95,7.49,-7.49,-7.70,-5.38,3.46,3.46,3.46
175.02,10.93,7.51,10.94,7.52,-7.52,-7.75,-5.40,3.41,3.42,3.42
176.77,10.93,7.55,10.94,7.55,-7.55,-7.79,-5.42,3.38,3.39,3.38
178.54,10.92,7.58,10.93,7.57,-7.57,-7.83,-5.45,3.35,3.35,3.34
180.32,10.91,7.60,10.91,7.59,-7.59,-7.86,-5.47,3.32,3.32,3.31
182.13,10.90,7.62,10.90,7.61,-7.61,-7.88,-5.51,3.30,3.29,3.29
183.95,10.86,7.61,10.88,7.61,-7.61,-7.90,-5.54,3.25,3.26,3.26
185.79,10.84,7.61,10.85,7.62,-7.62,-7.91,-5.59,3.23,3.24,3.23
187.65,10.82,7.62,10.83,7.62,-7.62,-7.91,-5.63,3.21,3.21,3.21
189.52,10.79,7.60,10.80,7.61,-7.61,-7.90,-5.68,3.18,3.19,3.19
191.42,10.77,7.61,10.77,7.60,-7.60,-7.89,-5.73,3.17,3.17,3.17
193.33,10.73,7.58,10.74,7.59,-7.59,-7.87,-5.79,3.14,3.15,3.16
195.27,10.70,7.56,10.70,7.57,-7.57,-7.84,-5.85,3.13,3.13,3.14
197.22,10.67,7.55,10.66,7.55,-7.55,-7.81,-5.91,3.13,3.12,3.12
199.19,10.63,7.54,10.62,7.52,-7.52,-7.76,-5.98,3.11,3.10,3.09
201.18,10.57,7.49,10.58,7.49,-7.49,-7.71,-6.04,3.08,3.08,3.08
203.19,10.52,7.45,10.53,7.46,-7.46,-7.66,-6.11,3.06,3.07,3.07
205.23,10.48,7.43,10.48,7.43,-7.43,-7.59,-6.19,3.06,3.05,3.05
207.28,10.42,7.38,10.42,7.38,-7.38,-7.52,-6.26,3.04,3.04,3.04
209.35,10.35,7.33,10.36,7.34,-7.34,-7.45,-6.33,3.02,3.02,3.03
211.44,10.28,7.29,10.29,7.29,-7.29,-7.36,-6.40,3.00,3.01,3.00
213.56,10.21,7.22,10.22,7.23,-7.23,-7.28,-6.48,2.98,2.99,2.99
215.69,10.15,7.17,10.15,7.17,-7.17,-7.18,-6.55,2.98,2.98,2.99
217.85,10.07,7.11,10.07,7.11,-7.11,-7.08,-6.62,2.97,2.96,2.96
220.03,10.00,7.06,9.99,7.04,-7.04,-6.98,-6.69,2.96,2.95,2.94
222.23,9.91,6.99,9.90,6.97,-6.97,-6.88,-6.75,2.94,2.93,2.92
224.45,9.81,6.90,9.81,6.90,-6.90,-6.77,-6.81,2.92,2.91,2.92
226.70,9.71,6.81,9.72,6.82,-6.82,-6.65,-6.86,2.89,2.90,2.90
228.96,9.60,6.71,9.62,6.74,-6.74,-6.54,-6.91,2.87,2.88,2.89
231.25,9.52,6.65,9.51,6.65,-6.65,-6.42,-6.94,2.87,2.86,2.88
233.57,9.41,6.56,9.41,6.56,-6.56,-6.29,-6.97,2.85,2.85,2.85
235.90,9.29,6.46,9.29,6.47,-6.47,-6.17,-6.99,2.83,2.83,2.83
238.26,9.20,6.39,9.18,6.37,-6.37,-6.04,-7.00,2.84,2.81,2.81
240.64,9.06,6.27,9.07,6.27,-6.27,-5.92,-7.00,2.80,2.80,2.79
243.05,8.96,6.18,8.95,6.16,-6.16,-5.79,-6.99,2.80,2.79,2.78
245.48,8.83,6.06,8.83,6.06,-6.06,-5.66,-6.97,2.77,2.77,2.77
247.93,8.68,5.92,8.72,5.95,-5.95,-5.52,-6.93,2.73,2.77,2.76
250.41,8.58,5.84,8.60,5.84,-5.84,-5.39,-6.88,2.74,2.76,2.74
252.92,8.44,5.69,8.48,5.73,-5.73,-5.26,-6.81,2.72,2.75,2.75
255.45,8.34,5.59,8.36,5.61,-5.61,-5.12,-6.74,2.73,2.75,2.75
258.00,8.25,5.50,8.25,5.49,-5.49,-4.99,-6.65,2.77,2.76,2.75
260.58,8.12,5.37,8.13,5.37,-5.37,-4.86,-6.54,2.76,2.76,2.76
263.19,8.02,5.26,8.01,5.24,-5.24,-4.72,-6.43,2.79,2.77,2.77
265.82,7.88,5.11,7.88,5.10,-5.10,-4.59,-6.30,2.78,2.78,2.77
268.48,7.76,4.97,7.76,4.97,-4.97,-4.45,-6.17,2.80,2.79,2.79
271.16,7.65,4.85,7.63,4.83,-4.83,-4.32,-6.02,2.83,2.80,2.81
273.87,7.49,4.67,7.50,4.68,-4.68,-4.18,-5.87,2.81,2.82,2.82
276.61,7.37,4.53,7.36,4.53,-4.53,-4.05,-5.70,2.84,2.83,2.84
279.38,7.24,4.40,7.22,4.38,-4.38,-3.91,-5.53,2.87,2.84,2.85
282.17,7.09,4.23,7.08,4.22,-4.22,-3.78,-5.35,2.87,2.86,2.86
284.99,6.96,4.09,6.93,4.06,-4.06,-3.65,-5.17,2.91,2.87,2.88
287.84,6.77,3.88,6.78,3.89,-3.89,-3.52,-4.98,2.88,2.89,2.89
290.72,6.61,3.70,6.63,3.72,-3.72,-3.38,-4.79,2.89,2.91,2.91
293.63,6.47,3.56,6.48,3.56,-3.56,-3.25,-4.59,2.92,2.93,2.92
296.57,6.32,3.38,6.33,3.39,-3.39,-3.12,-4.39,2.93,2.94,2.94
299.53,6.16,3.21,6.19,3.22,-3.22,-2.99,-4.19,2.94,2.96,2.96
302.53,6.01,3.05,6.04,3.06,-3.06,-2.86,-3.99,2.96,2.98,2.96
305.55,5.87,2.87,5.89,2.89,-2.89,-2.73,-3.78,2.98,3.00,3.00
308.61,5.74,2.73,5.75,2.73,-2.73,-2.60,-3.57,3.02,3.02,3.02
311.69,5.59,2.55,5.60,2.56,-2.56,-2.47,-3.37,3.03,3.04,3.04
314.81,5.46,2.39,5.46,2.40,-2.40,-2.34,-3.16,3.06,3.06,3.08
317.96,5.33,2.24,5.32,2.24,-2.24,-2.21,-2.95,3.10,3.08,3.09
321.14,5.20,2.09,5.19,2.08,-2.08,-2.09,-2.75,3.12,3.11,3.11
324.35,5.05,1.93,5.05,1.92,-1.92,-1.96,-2.54,3.14,3.13,3.13
327.59,4.89,1.74,4.91,1.75,-1.75,-1.83,-2.33,3.14,3.15,3.15
330.87,4.76,1.59,4.76,1.59,-1.59,-1.70,-2.13,3.18,3.17,3.17
334.18,4.63,1.44,4.62,1.42,-1.42,-1.58,-1.92,3.21,3.20,3.20
337.52,4.47,1.26,4.48,1.26,-1.26,-1.45,-1.71,3.22,3.22,3.21
340.90,4.34,1.10,4.33,1.09,-1.09,-1.32,-1.51,3.26,3.24,3.24
344.30,4.18,0.92,4.18,0.92,-0.92,-1.20,-1.31,3.27,3.27,3.27
347.75,4.04,0.76,4.03,0.75,-0.75,-1.07,-1.10,3.30,3.29,3.29
351.23,3.88,0.57,3.88,0.57,-0.57,-0.94,-0.90,3.31,3.31,3.31
354.74,3.73,0.39,3.73,0.40,-0.40,-0.82,-0.70,3.34,3.34,3.34
358.28,3.57,0.22,3.58,0.22,-0.22,-0.69,-0.49,3.35,3.36,3.36
361.87,3.44,0.06,3.44,0.05,-0.05,-0.56,-0.29,3.39,3.38,3.39
365.49,3.28,-0.13,3.29,-0.12,0.12,-0.44,-0.09,3.40,3.41,3.41
369.14,3.13,-0.29,3.14,-0.29,0.29,-0.31,0.11,3.43,3.43,3.42
372.83,3.00,-0.44,2.99,-0.46,0.46,-0.18,0.31,3.46,3.45,3.45
376.56,2.84,-0.62,2.85,-0.62,0.62,-0.05,0.51,3.46,3.47,3.47
380.33,2.70,-0.80,2.71,-0.78,0.78,0.08,0.71,3.48,3.49,3.50
384.13,2.56,-0.95,2.58,-0.93,0.93,0.20,0.91,3.50,3.51,3.51
387.97,2.44,-1.09,2.45,-1.08,1.08,0.33,1.11,3.53,3.53,3.53
391.85,2.32,-1.22,2.32,-1.23,1.23,0.46,1.31,3.55,3.54,3.54
395.77,2.19,-1.37,2.19,-1.36,1.36,0.59,1.50,3.56,3.56,3.57
399.73,2.06,-1.51,2.07,-1.50,1.50,0.72,1.70,3.56,3.57,3.58
403.72,1.94,-1.63,1.96,-1.62,1.62,0.86,1.89,3.56,3.58,3.57
407.76,1.83,-1.75,1.84,-1.74,1.74,0.99,2.09,3.57,3.58,3.58
411.84,1.73,-1.86,1.73,-1.85,1.85,1.12,2.28,3.59,3.59,3.59
415.96,1.62,-1.97,1.63,-1.96,1.96,1.25,2.47,3.59,3.59,3.59
420.12,1.50,-2.08,1.52,-2.07,2.07,1.39,2.65,3.57,3.59,3.59
424.32,1.40,-2.18,1.42,-2.17,2.17,1.52,2.84,3.57,3.59,3.59
428.56,1.31,-2.27,1.31,-2.27,2.27,1.65,3.02,3.59,3.58,3.59
432.85,1.21,-2.36,1.21,-2.37,2.37,1.79,3.20,3.59,3.58,3.58
437.18,1.12,-2.45,1.10,-2.47,2.47,1.93,3.37,3.60,3.58,3.57
441.55,1.03,-2.54,1.00,-2.57,2.57,2.06,3.54,3.61,3.57,3.57
445.96,0.91,-2.65,0.90,-2.67,2.67,2.20,3.70,3.59,3.57,3.56
450.42,0.79,-2.77,0.79,-2.78,2.78,2.34,3.86,3.57,3.57,3.56
454.93,0.68,-2.88,0.68,-2.88,2.88,2.47,4.01,3.57,3.56,3.56
459.48,0.56,-2.99,0.58,-2.98,2.98,2.61,4.15,3.55,3.56,3.55
464.07,0.46,-3.09,0.47,-3.09,3.09,2.75,4.29,3.55,3.56,3.56
468.71,0.37,-3.18,0.36,-3.20,3.20,2.89,4.42,3.57,3.56,3.56
473.40,0.25,-3.30,0.26,-3.30,3.30,3.03,4.54,3.56,3.56,3.56
478.13,0.14,-3.42,0.15,-3.41,3.41,3.17,4.64,3.55,3.56,3.57
482.91,0.03,-3.52,0.05,-3.51,3.51,3.31,4.74,3.55,3.56,3.56
487.74,-0.06,-3.62,-0.05,-3.62,3.62,3.44,4.83,3.56,3.56,3.57
492.62,-0.16,-3.73,-0.15,-3.71,3.71,3.58,4.91,3.56,3.56,3.57
497.55,-0.25,-3.81,-0.24,-3.81,3.81,3.72,4.97,3.56,3.57,3.56
502.52,-0.34,-3.91,-0.33,-3.90,3.90,3.85,5.03,3.57,3.57,3.57
507.55,-0.42,-3.99,-0.42,-3.99,3.99,3.99,5.08,3.58,3.58,3.57
512.62,-0.52,-4.10,-0.50,-4.08,4.08,4.12,5.11,3.57,3.58,3.58
517.75,-0.59,-4.18,-0.58,-4.17,4.17,4.25,5.13,3.59,3.59,3.59
522.93,-0.66,-4.26,-0.66,-4.26,4.26,4.38,5.15,3.61,3.60,3.60
528.16,-0.73,-4.33,-0.74,-4.35,4.35,4.51,5.15,3.62,3.61,3.60
533.44,-0.79,-4.40,-0.81,-4.43,4.43,4.63,5.15,3.64,3.62,3.61
538.77,-0.86,-4.49,-0.88,-4.51,4.51,4.75,5.14,3.65,3.63,3.63
544.16,-0.95,-4.58,-0.94,-4.58,4.58,4.87,5.11,3.64,3.64,3.64
