frequency,raw,error,smoothed,error_smoothed,equalization,parametric_eq,fixed_band_eq,equalized_raw,equalized_smoothed,target
20.00,-0.03,-2.62,-0.03,-2.62,2.62,2.55,0.85,2.59,2.59,2.59
20.20,0.01,-2.62,0.01,-2.62,2.62,2.55,0.88,2.63,2.63,2.63
20.40,0.05,-2.62,0.05,-2.62,2.62,2.54,0.91,2.67,2.67,2.67
20.61,0.09,-2.61,0.09,-2.61,2.61,2.54,0.94,2.70,2.70,2.70
20.81,0.13,-2.61,0.13,-2.61,2.60,2.53,0.97,2.73,2.73,2.74
21.02,0.17,-2.61,0.17,-2.60,2.59,2.53,1.00,2.76,2.77,2.78
21.23,0.21,-2.59,0.21,-2.59,2.58,2.52,1.03,2.79,2.79,2.80
21.44,0.25,-2.57,0.25,-2.57,2.57,2.51,1.06,2.82,2.82,2.82
21.66,0.28,-2.56,0.28,-2.55,2.55,2.51,1.10,2.83,2.84,2.84
21.87,0.32,-2.53,0.32,-2.53,2.53,2.50,1.13,2.85,2.85,2.85
22.09,0.36,-2.51,0.36,-2.51,2.51,2.49,1.17,2.87,2.87,2.87
22.31,0.39,-2.49,0.39,-2.49,2.49,2.48,1.21,2.88,2.89,2.88
22.54,0.42,-2.47,0.42,-2.47,2.47,2.47,1.24,2.89,2.89,2.89
22.76,0.45,-2.45,0.45,-2.45,2.45,2.46,1.28,2.90,2.90,2.90
22.99,0.47,-2.43,0.47,-2.43,2.43,2.45,1.32,2.90,2.90,2.90
23.22,0.49,-2.42,0.50,-2.41,2.41,2.44,1.36,2.90,2.91,2.91
23.45,0.53,-2.39,0.53,-2.39,2.38,2.43,1.41,2.91,2.91,2.92
23.69,0.57,-2.36,0.57,-2.36,2.35,2.42,1.45,2.92,2.92,2.93
23.92,0.61,-2.33,0.61,-2.33,2.32,2.41,1.49,2.93,2.94,2.94
24.16,0.66,-2.30,0.66,-2.30,2.29,2.39,1.54,2.95,2.95,2.96
24.40,0.71,-2.27,0.71,-2.26,2.26,2.38,1.58,2.97,2.97,2.98
24.65,0.75,-2.22,0.75,-2.23,2.24,2.37,1.63,2.99,2.99,2.97
24.89,0.79,-2.19,0.79,-2.19,2.21,2.35,1.67,3.00,3.00,2.98
25.14,0.81,-2.18,0.81,-2.18,2.19,2.34,1.72,3.00,3.00,2.99
25.39,0.84,-2.16,0.84,-2.16,2.16,2.33,1.77,3.00,3.00,3.00
25.65,0.86,-2.16,0.86,-2.15,2.14,2.31,1.81,3.00,3.00,3.02
25.91,0.89,-2.13,0.89,-2.13,2.12,2.30,1.86,3.01,3.01,3.02
26.16,0.92,-2.11,0.93,-2.10,2.10,2.28,1.91,3.02,3.02,3.03
26.43,0.97,-2.07,0.97,-2.07,2.07,2.27,1.95,3.04,3.04,3.04
26.69,1.01,-2.04,1.01,-2.04,2.05,2.25,2.00,3.06,3.05,3.05
26.96,1.05,-2.02,1.05,-2.01,2.02,2.23,2.04,3.07,3.07,3.07
27.23,1.09,-1.99,1.09,-1.99,1.99,2.22,2.08,3.08,3.08,3.08
27.50,1.12,-1.96,1.12,-1.96,1.97,2.20,2.12,3.08,3.09,3.08
27.77,1.15,-1.93,1.15,-1.94,1.94,2.18,2.16,3.09,3.09,3.08
28.05,1.17,-1.93,1.17,-1.92,1.92,2.17,2.20,3.09,3.09,3.10
28.33,1.19,-1.91,1.19,-1.91,1.90,2.15,2.24,3.09,3.10,3.10
28.62,1.22,-1.89,1.22,-1.89,1.88,2.13,2.27,3.10,3.10,3.11
28.90,1.25,-1.87,1.25,-1.87,1.87,2.11,2.30,3.12,3.12,3.12
29.19,1.27,-1.85,1.27,-1.86,1.86,2.09,2.33,3.13,3.13,3.12
29.48,1.29,-1.86,1.29,-1.85,1.86,2.07,2.35,3.15,3.14,3.15
29.78,1.30,-1.84,1.30,-1.84,1.85,2.06,2.38,3.15,3.15,3.14
30.08,1.30,-1.85,1.30,-1.85,1.85,2.04,2.39,3.15,3.16,3.15
30.38,1.30,-1.85,1.30,-1.85,1.86,2.02,2.41,3.16,3.16,3.15
30.68,1.30,-1.87,1.30,-1.86,1.86,2.00,2.42,3.16,3.16,3.17
30.99,1.30,-1.87,1.30,-1.87,1.86,1.98,2.43,3.16,3.16,3.17
31.30,1.30,-1.87,1.30,-1.87,1.86,1.96,2.43,3.16,3.16,3.17
31.61,1.31,-1.87,1.31,-1.86,1.86,1.94,2.43,3.17,3.17,3.18
31.93,1.34,-1.85,1.33,-1.85,1.85,1.92,2.42,3.19,3.18,3.19
32.24,1.36,-1.83,1.36,-1.83,1.83,1.90,2.42,3.19,3.19,3.19
32.57,1.39,-1.82,1.39,-1.81,1.82,1.88,2.40,3.20,3.21,3.21
32.89,1.42,-1.79,1.42,-1.79,1.79,1.86,2.39,3.21,3.21,3.21
33.22,1.45,-1.77,1.45,-1.77,1.77,1.84,2.37,3.22,3.22,3.22
33.55,1.48,-1.75,1.48,-1.75,1.75,1.82,2.35,3.23,3.23,3.23
33.89,1.51,-1.73,1.51,-1.73,1.72,1.79,2.32,3.23,3.23,3.24
34.23,1.54,-1.70,1.54,-1.70,1.70,1.77,2.29,3.24,3.24,3.24
34.57,1.57,-1.68,1.57,-1.68,1.68,1.75,2.26,3.25,3.25,3.25
34.92,1.59,-1.66,1.59,-1.66,1.66,1.73,2.23,3.25,3.25,3.25
35.27,1.61,-1.65,1.61,-1.64,1.65,1.71,2.19,3.26,3.26,3.26
35.62,1.63,-1.63,1.63,-1.63,1.64,1.69,2.16,3.27,3.26,3.26
35.97,1.64,-1.62,1.64,-1.62,1.63,1.67,2.12,3.27,3.27,3.26
36.33,1.64,-1.63,1.64,-1.62,1.63,1.65,2.08,3.27,3.28,3.27
36.70,1.64,-1.62,1.64,-1.63,1.64,1.62,2.04,3.28,3.28,3.26
37.06,1.63,-1.64,1.63,-1.64,1.64,1.60,2.00,3.27,3.27,3.27
37.43,1.61,-1.66,1.61,-1.65,1.65,1.58,1.95,3.26,3.26,3.27
37.81,1.60,-1.67,1.60,-1.67,1.65,1.56,1.91,3.25,3.26,3.27
38.19,1.60,-1.67,1.60,-1.67,1.66,1.54,1.87,3.26,3.25,3.27
38.57,1.60,-1.66,1.60,-1.66,1.65,1.52,1.82,3.25,3.25,3.26
38.95,1.61,-1.65,1.61,-1.64,1.64,1.49,1.78,3.25,3.25,3.26
39.34,1.63,-1.62,1.63,-1.62,1.62,1.47,1.74,3.25,3.25,3.25
39.74,1.65,-1.60,1.65,-1.60,1.60,1.45,1.69,3.25,3.25,3.25
40.14,1.68,-1.57,1.68,-1.57,1.57,1.43,1.65,3.25,3.25,3.25
40.54,1.70,-1.55,1.70,-1.54,1.54,1.41,1.61,3.24,3.24,3.25
40.94,1.73,-1.51,1.73,-1.51,1.51,1.39,1.57,3.24,3.24,3.24
41.35,1.77,-1.47,1.77,-1.47,1.48,1.36,1.53,3.25,3.24,3.24
41.76,1.80,-1.44,1.80,-1.44,1.44,1.34,1.49,3.24,3.24,3.24
42.18,1.83,-1.41,1.83,-1.41,1.41,1.32,1.45,3.24,3.24,3.24
42.60,1.86,-1.38,1.86,-1.38,1.38,1.30,1.41,3.24,3.24,3.24
43.03,1.89,-1.35,1.89,-1.35,1.35,1.28,1.37,3.24,3.23,3.24
43.46,1.91,-1.33,1.91,-1.32,1.32,1.26,1.34,3.23,3.23,3.24
43.90,1.93,-1.29,1.93,-1.29,1.29,1.24,1.30,3.22,3.23,3.22
44.33,1.95,-1.27,1.95,-1.27,1.28,1.21,1.27,3.23,3.22,3.22
44.78,1.96,-1.25,1.96,-1.25,1.26,1.19,1.23,3.22,3.22,3.21
45.23,1.97,-1.24,1.97,-1.24,1.25,1.17,1.20,3.22,3.22,3.21
45.68,1.97,-1.24,1.97,-1.24,1.25,1.15,1.17,3.22,3.21,3.21
46.13,1.96,-1.24,1.96,-1.25,1.24,1.13,1.14,3.20,3.20,3.20
46.60,1.95,-1.26,1.95,-1.25,1.24,1.11,1.11,3.19,3.20,3.21
47.06,1.95,-1.25,1.95,-1.25,1.24,1.09,1.08,3.19,3.19,3.20
47.53,1.95,-1.24,1.95,-1.25,1.24,1.06,1.06,3.19,3.19,3.19
48.01,1.95,-1.25,1.95,-1.24,1.23,1.04,1.03,3.18,3.18,3.20
48.49,1.95,-1.23,1.95,-1.23,1.23,1.02,1.00,3.18,3.18,3.18
48.97,1.95,-1.21,1.95,-1.21,1.22,1.00,0.98,3.17,3.17,3.16
49.46,1.95,-1.20,1.95,-1.20,1.21,0.98,0.95,3.16,3.16,3.15
49.96,1.94,-1.19,1.94,-1.19,1.20,0.96,0.93,3.14,3.14,3.13
50.46,1.94,-1.19,1.94,-1.18,1.19,0.94,0.91,3.13,3.12,3.13
50.96,1.93,-1.18,1.93,-1.17,1.17,0.92,0.89,3.10,3.11,3.11
51.47,1.93,-1.15,1.93,-1.16,1.16,0.90,0.86,3.09,3.09,3.08
51.99,1.93,-1.14,1.93,-1.14,1.14,0.87,0.84,3.07,3.07,3.07
52.51,1.93,-1.13,1.93,-1.12,1.12,0.85,0.82,3.05,3.05,3.06
53.03,1.94,-1.10,1.94,-1.10,1.09,0.83,0.80,3.03,3.03,3.04
53.56,1.96,-1.07,1.96,-1.07,1.06,0.81,0.78,3.02,3.02,3.03
54.10,1.98,-1.02,1.98,-1.03,1.02,0.79,0.76,3.00,3.00,3.00
54.64,2.00,-0.99,2.00,-0.98,0.98,0.77,0.74,2.98,2.98,2.99
55.18,2.03,-0.93,2.03,-0.93,0.93,0.75,0.72,2.96,2.96,2.96
55.74,2.06,-0.87,2.06,-0.88,0.88,0.73,0.70,2.94,2.94,2.93
56.29,2.09,-0.84,2.09,-0.83,0.83,0.71,0.69,2.92,2.92,2.93
56.86,2.12,-0.78,2.12,-0.78,0.78,0.69,0.67,2.90,2.90,2.90
57.42,2.15,-0.72,2.15,-0.72,0.73,0.66,0.65,2.88,2.88,2.87
58.00,2.18,-0.67,2.18,-0.67,0.68,0.64,0.63,2.86,2.86,2.85
58.58,2.21,-0.62,2.21,-0.62,0.63,0.62,0.60,2.84,2.83,2.83
59.16,2.23,-0.58,2.23,-0.58,0.58,0.60,0.58,2.81,2.81,2.81
59.76,2.25,-0.54,2.25,-0.54,0.53,0.58,0.56,2.78,2.78,2.79
60.35,2.27,-0.49,2.27,-0.49,0.49,0.56,0.54,2.76,2.75,2.76
60.96,2.28,-0.45,2.28,-0.44,0.44,0.54,0.52,2.72,2.73,2.73
61.57,2.29,-0.39,2.29,-0.40,0.40,0.52,0.49,2.69,2.69,2.68
62.18,2.29,-0.35,2.29,-0.36,0.37,0.49,0.47,2.66,2.65,2.64
62.80,2.28,-0.34,2.28,-0.32,0.33,0.47,0.45,2.61,2.61,2.62
63.43,2.28,-0.29,2.28,-0.29,0.29,0.45,0.42,2.57,2.57,2.57
64.07,2.27,-0.26,2.27,-0.26,0.26,0.43,0.39,2.53,2.53,2.53
64.71,2.27,-0.23,2.27,-0.22,0.22,0.41,0.37,2.49,2.49,2.50
65.35,2.27,-0.19,2.27,-0.19,0.19,0.38,0.34,2.46,2.46,2.46
66.01,2.27,-0.15,2.27,-0.15,0.15,0.36,0.31,2.42,2.42,2.42
66.67,2.27,-0.12,2.27,-0.12,0.12,0.34,0.28,2.39,2.39,2.39
67.33,2.27,-0.08,2.27,-0.08,0.08,0.32,0.25,2.35,2.35,2.35
68.01,2.27,-0.04,2.27,-0.04,0.04,0.29,0.22,2.31,2.31,2.31
68.69,2.27,0.00,2.27,0.00,-0.00,0.27,0.19,2.27,2.27,2.27
69.37,2.27,0.04,2.27,0.04,-0.04,0.25,0.16,2.23,2.23,2.23
70.07,2.27,0.08,2.27,0.08,-0.08,0.22,0.12,2.19,2.19,2.19
70.77,2.27,0.12,2.27,0.12,-0.12,0.20,0.09,2.15,2.15,2.15
71.48,2.27,0.15,2.27,0.16,-0.16,0.17,0.05,2.11,2.11,2.12
72.19,2.27,0.20,2.27,0.20,-0.20,0.15,0.02,2.07,2.07,2.07
72.91,2.27,0.23,2.27,0.23,-0.23,0.12,-0.02,2.04,2.04,2.04
73.64,2.27,0.27,2.27,0.27,-0.27,0.10,-0.05,2.00,2.00,2.00
74.38,2.27,0.30,2.27,0.30,-0.30,0.07,-0.09,1.97,1.97,1.97
75.12,2.27,0.34,2.27,0.34,-0.34,0.05,-0.13,1.93,1.93,1.93
75.87,2.27,0.37,2.27,0.37,-0.37,0.02,-0.17,1.90,1.90,1.90
76.63,2.27,0.40,2.27,0.40,-0.40,-0.01,-0.21,1.87,1.87,1.87
77.40,2.27,0.43,2.27,0.43,-0.43,-0.03,-0.25,1.84,1.84,1.84
78.17,2.27,0.46,2.27,0.46,-0.46,-0.06,-0.29,1.81,1.81,1.81
78.95,2.27,0.49,2.27,0.49,-0.49,-0.09,-0.33,1.78,1.78,1.78
79.74,2.27,0.51,2.27,0.51,-0.51,-0.12,-0.37,1.76,1.76,1.76
80.54,2.27,0.53,2.27,0.54,-0.54,-0.15,-0.41,1.73,1.73,1.74
81.35,2.27,0.56,2.27,0.56,-0.56,-0.18,-0.46,1.71,1.71,1.71
82.16,2.27,0.59,2.27,0.58,-0.59,-0.21,-0.50,1.68,1.68,1.68
82.98,2.27,0.60,2.27,0.61,-0.61,-0.24,-0.54,1.66,1.66,1.67
83.81,2.27,0.63,2.27,0.63,-0.63,-0.28,-0.59,1.64,1.64,1.64
84.65,2.27,0.66,2.27,0.65,-0.65,-0.31,-0.63,1.62,1.62,1.61
85.50,2.27,0.67,2.27,0.67,-0.67,-0.35,-0.68,1.60,1.60,1.60
86.35,2.27,0.69,2.27,0.69,-0.69,-0.38,-0.73,1.58,1.58,1.58
87.22,2.27,0.71,2.27,0.71,-0.71,-0.42,-0.77,1.56,1.56,1.56
88.09,2.27,0.73,2.27,0.73,-0.73,-0.45,-0.82,1.54,1.54,1.54
88.97,2.27,0.75,2.27,0.75,-0.75,-0.49,-0.87,1.52,1.52,1.52
89.86,2.27,0.76,2.27,0.77,-0.77,-0.53,-0.92,1.50,1.50,1.51
90.76,2.27,0.79,2.27,0.79,-0.79,-0.57,-0.97,1.48,1.48,1.48
91.66,2.27,0.81,2.27,0.81,-0.81,-0.61,-1.02,1.46,1.46,1.46
92.58,2.27,0.83,2.27,0.83,-0.82,-0.66,-1.08,1.45,1.45,1.44
93.51,2.27,0.84,2.27,0.84,-0.85,-0.70,-1.13,1.42,1.42,1.43
94.44,2.27,0.86,2.27,0.86,-0.87,-0.75,-1.18,1.40,1.40,1.41
95.39,2.27,0.88,2.27,0.88,-0.89,-0.79,-1.23,1.38,1.38,1.39
96.34,2.27,0.91,2.27,0.91,-0.91,-0.84,-1.29,1.36,1.36,1.36
97.30,2.27,0.94,2.27,0.94,-0.94,-0.89,-1.34,1.33,1.33,1.33
98.28,2.27,0.97,2.27,0.97,-0.96,-0.94,-1.40,1.31,1.31,1.30
99.26,2.27,0.99,2.27,0.99,-0.99,-0.99,-1.45,1.28,1.28,1.28
100.25,2.27,1.02,2.27,1.02,-1.02,-1.05,-1.51,1.25,1.25,1.25
101.25,2.27,1.05,2.27,1.05,-1.05,-1.10,-1.56,1.22,1.22,1.22
102.27,2.27,1.09,2.27,1.09,-1.09,-1.16,-1.62,1.18,1.18,1.18
103.29,2.27,1.12,2.27,1.12,-1.12,-1.21,-1.67,1.15,1.15,1.15
104.32,2.27,1.15,2.27,1.16,-1.16,-1.27,-1.72,1.11,1.11,1.12
105.37,2.27,1.19,2.27,1.19,-1.19,-1.33,-1.78,1.08,1.08,1.08
106.42,2.27,1.24,2.27,1.23,-1.24,-1.40,-1.83,1.03,1.03,1.03
107.48,2.27,1.27,2.27,1.28,-1.28,-1.46,-1.88,0.99,0.99,1.00
108.56,2.27,1.33,2.27,1.33,-1.33,-1.52,-1.93,0.94,0.94,0.94
109.64,2.27,1.38,2.27,1.38,-1.38,-1.59,-1.98,0.89,0.89,0.89
110.74,2.27,1.43,2.27,1.43,-1.43,-1.65,-2.03,0.84,0.84,0.84
111.85,2.27,1.48,2.27,1.49,-1.49,-1.72,-2.07,0.78,0.78,0.79
112.97,2.27,1.55,2.27,1.54,-1.55,-1.78,-2.11,0.72,0.72,0.72
114.10,2.27,1.60,2.27,1.60,-1.61,-1.85,-2.15,0.66,0.66,0.67
115.24,2.27,1.66,2.27,1.67,-1.67,-1.92,-2.19,0.60,0.60,0.61
116.39,2.27,1.73,2.27,1.73,-1.73,-1.98,-2.22,0.54,0.54,0.54
117.55,2.27,1.79,2.27,1.79,-1.79,-2.04,-2.25,0.48,0.48,0.48
118.73,2.27,1.85,2.27,1.85,-1.84,-2.11,-2.28,0.43,0.43,0.42
119.92,2.27,1.90,2.27,1.90,-1.90,-2.17,-2.30,0.37,0.37,0.37
121.12,2.27,1.96,2.27,1.96,-1.96,-2.22,-2.32,0.31,0.31,0.31
122.33,2.27,2.01,2.27,2.01,-2.02,-2.28,-2.33,0.25,0.25,0.26
123.55,2.27,2.06,2.27,2.07,-2.07,-2.33,-2.34,0.20,0.20,0.21
124.79,2.28,2.12,2.28,2.12,-2.13,-2.38,-2.35,0.15,0.15,0.16
126.03,2.29,2.18,2.29,2.18,-2.18,-2.42,-2.35,0.11,0.11,0.11
127.29,2.29,2.23,2.29,2.23,-2.23,-2.46,-2.35,0.06,0.06,0.06
128.57,2.29,2.29,2.29,2.28,-2.28,-2.50,-2.34,0.01,0.01,-0.00
129.85,2.28,2.32,2.28,2.33,-2.32,-2.53,-2.33,-0.04,-0.04,-0.04
131.15,2.27,2.36,2.27,2.36,-2.36,-2.55,-2.32,-0.09,-0.09,-0.09
132.46,2.26,2.39,2.26,2.39,-2.39,-2.57,-2.30,-0.13,-0.13,-0.13
133.79,2.24,2.41,2.24,2.41,-2.41,-2.58,-2.28,-0.17,-0.17,-0.17
135.12,2.22,2.43,2.21,2.42,-2.43,-2.59,-2.25,-0.21,-0.21,-0.21
136.48,2.18,2.43,2.18,2.43,-2.44,-2.58,-2.22,-0.26,-0.25,-0.25
137.84,2.14,2.43,2.15,2.44,-2.44,-2.58,-2.19,-0.30,-0.30,-0.29
139.22,2.11,2.45,2.10,2.44,-2.44,-2.57,-2.16,-0.33,-0.34,-0.34
140.61,2.06,2.44,2.06,2.43,-2.43,-2.55,-2.12,-0.37,-0.37,-0.38
142.02,2.01,2.41,2.01,2.42,-2.42,-2.52,-2.08,-0.41,-0.41,-0.40
143.44,1.96,2.40,1.96,2.40,-2.40,-2.50,-2.04,-0.44,-0.44,-0.44
144.87,1.90,2.38,1.90,2.38,-2.38,-2.46,-2.00,-0.48,-0.48,-0.48
146.32,1.84,2.36,1.84,2.35,-2.35,-2.43,-1.96,-0.51,-0.52,-0.52
147.78,1.77,2.32,1.77,2.32,-2.33,-2.39,-1.91,-0.56,-0.56,-0.55
149.26,1.70,2.28,1.70,2.29,-2.30,-2.34,-1.87,-0.60,-0.60,-0.58
150.75,1.63,2.27,1.63,2.26,-2.27,-2.30,-1.82,-0.64,-0.64,-0.64
152.26,1.56,2.24,1.56,2.24,-2.24,-2.25,-1.77,-0.68,-0.68,-0.68
153.78,1.49,2.20,1.49,2.21,-2.21,-2.20,-1.73,-0.72,-0.72,-0.71
155.32,1.41,2.18,1.41,2.17,-2.17,-2.15,-1.68,-0.76,-0.76,-0.77
156.88,1.34,2.14,1.33,2.14,-2.14,-2.10,-1.63,-0.80,-0.81,-0.80
158.44,1.25,2.10,1.25,2.11,-2.11,-2.05,-1.59,-0.86,-0.85,-0.85
160.03,1.17,2.07,1.17,2.07,-2.07,-1.99,-1.54,-0.90,-0.90,-0.90
161.63,1.09,2.04,1.09,2.04,-2.04,-1.94,-1.50,-0.94,-0.95,-0.95
163.24,1.01,2.00,1.01,2.00,-2.00,-1.89,-1.45,-0.99,-0.99,-0.99
164.88,0.92,1.95,0.92,1.96,-1.96,-1.84,-1.41,-1.04,-1.03,-1.03
166.53,0.84,1.92,0.83,1.92,-1.92,-1.78,-1.36,-1.08,-1.08,-1.08
168.19,0.74,1.87,0.74,1.87,-1.87,-1.73,-1.32,-1.13,-1.13,-1.13
169.87,0.65,1.83,0.65,1.83,-1.83,-1.68,-1.28,-1.18,-1.18,-1.18
171.57,0.56,1.78,0.56,1.79,-1.79,-1.63,-1.23,-1.23,-1.23,-1.22
173.29,0.47,1.75,0.47,1.75,-1.75,-1.58,-1.19,-1.28,-1.28,-1.28
175.02,0.37,1.70,0.37,1.70,-1.70,-1.53,-1.15,-1.33,-1.33,-1.33
176.77,0.27,1.66,0.27,1.66,-1.66,-1.49,-1.11,-1.39,-1.39,-1.39
178.54,0.17,1.61,0.17,1.61,-1.61,-1.44,-1.07,-1.44,-1.44,-1.44
180.32,0.07,1.57,0.07,1.56,-1.56,-1.39,-1.04,-1.49,-1.50,-1.50
182.13,-0.04,1.51,-0.04,1.51,-1.51,-1.35,-1.00,-1.55,-1.55,-1.55
183.95,-0.16,1.45,-0.15,1.46,-1.46,-1.30,-0.96,-1.62,-1.61,-1.61
185.79,-0.26,1.40,-0.26,1.40,-1.40,-1.26,-0.93,-1.66,-1.66,-1.66
187.65,-0.37,1.36,-0.38,1.35,-1.34,-1.21,-0.90,-1.71,-1.72,-1.73
189.52,-0.50,1.28,-0.50,1.28,-1.28,-1.16,-0.86,-1.78,-1.78,-1.78
191.42,-0.62,1.21,-0.62,1.22,-1.22,-1.12,-0.83,-1.84,-1.84,-1.83
193.33,-0.73,1.15,-0.73,1.15,-1.16,-1.07,-0.80,-1.89,-1.89,-1.88
195.27,-0.84,1.09,-0.84,1.09,-1.10,-1.02,-0.77,-1.94,-1.94,-1.93
197.22,-0.95,1.04,-0.95,1.04,-1.04,-0.97,-0.74,-1.99,-1.99,-1.99
199.19,-1.06,0.98,-1.06,0.98,-0.98,-0.92,-0.71,-2.04,-2.03,-2.04
201.18,-1.16,0.93,-1.17,0.92,-0.92,-0.87,-0.68,-2.08,-2.08,-2.09
203.19,-1.28,0.84,-1.27,0.86,-0.85,-0.82,-0.65,-2.13,-2.13,-2.12
205.23,-1.38,0.80,-1.38,0.79,-0.79,-0.76,-0.63,-2.17,-2.17,-2.18
207.28,-1.48,0.72,-1.49,0.73,-0.73,-0.71,-0.60,-2.21,-2.22,-2.20
209.35,-1.60,0.66,-1.59,0.67,-0.66,-0.65,-0.58,-2.26,-2.25,-2.26
211.44,-1.70,0.61,-1.70,0.60,-0.60,-0.59,-0.55,-2.30,-2.30,-2.31
213.56,-1.81,0.54,-1.81,0.53,-0.53,-0.52,-0.53,-2.34,-2.35,-2.35
215.69,-1.92,0.45,-1.91,0.47,-0.47,-0.46,-0.51,-2.39,-2.39,-2.37
217.85,-2.01,0.40,-2.01,0.40,-0.41,-0.39,-0.49,-2.42,-2.42,-2.41
220.03,-2.10,0.35,-2.10,0.35,-0.35,-0.32,-0.46,-2.45,-2.45,-2.45
222.23,-2.18,0.30,-2.18,0.30,-0.30,-0.26,-0.44,-2.48,-2.47,-2.48
224.45,-2.26,0.24,-2.26,0.24,-0.23,-0.19,-0.42,-2.49,-2.50,-2.50
226.70,-2.34,0.19,-2.34,0.19,-0.18,-0.12,-0.41,-2.52,-2.52,-2.53
228.96,-2.43,0.13,-2.42,0.13,-0.12,-0.06,-0.39,-2.55,-2.54,-2.56
231.25,-2.50,0.07,-2.51,0.07,-0.06,-0.00,-0.37,-2.56,-2.57,-2.57
233.57,-2.59,0.00,-2.59,0.00,-0.01,0.05,-0.36,-2.60,-2.59,-2.59
235.90,-2.66,-0.06,-2.66,-0.05,0.04,0.09,-0.34,-2.62,-2.62,-2.60
238.26,-2.71,-0.10,-2.71,-0.10,0.08,0.13,-0.33,-2.63,-2.63,-2.61
240.64,-2.75,-0.13,-2.75,-0.13,0.12,0.16,-0.31,-2.63,-2.63,-2.62
243.05,-2.77,-0.15,-2.77,-0.15,0.14,0.18,-0.30,-2.63,-2.63,-2.62
245.48,-2.79,-0.16,-2.79,-0.16,0.16,0.19,-0.29,-2.63,-2.62,-2.63
247.93,-2.79,-0.16,-2.80,-0.16,0.17,0.19,-0.28,-2.62,-2.62,-2.63
250.41,-2.80,-0.17,-2.80,-0.17,0.18,0.18,-0.27,-2.62,-2.62,-2.63
252.92,-2.80,-0.18,-2.80,-0.18,0.18,0.17,-0.26,-2.62,-2.62,-2.62
255.45,-2.79,-0.18,-2.79,-0.18,0.17,0.15,-0.25,-2.62,-2.62,-2.61
258.00,-2.77,-0.17,-2.77,-0.17,0.16,0.12,-0.24,-2.61,-2.61,-2.60
260.58,-2.75,-0.15,-2.75,-0.15,0.14,0.09,-0.23,-2.61,-2.61,-2.60
263.19,-2.72,-0.13,-2.72,-0.13,0.12,0.06,-0.23,-2.60,-2.60,-2.59
265.82,-2.68,-0.10,-2.68,-0.10,0.09,0.02,-0.22,-2.59,-2.59,-2.58
268.48,-2.63,-0.07,-2.63,-0.06,0.06,-0.01,-0.22,-2.57,-2.57,-2.56
271.16,-2.57,-0.03,-2.57,-0.02,0.02,-0.05,-0.21,-2.55,-2.55,-2.54
273.87,-2.51,0.03,-2.52,0.02,-0.01,-0.08,-0.21,-2.52,-2.52,-2.54
276.61,-2.47,0.04,-2.47,0.05,-0.03,-0.11,-0.20,-2.50,-2.50,-2.51
279.38,-2.43,0.08,-2.43,0.08,-0.06,-0.14,-0.20,-2.49,-2.49,-2.51
282.17,-2.40,0.09,-2.41,0.09,-0.08,-0.16,-0.20,-2.48,-2.48,-2.49
284.99,-2.39,0.09,-2.39,0.10,-0.09,-0.19,-0.20,-2.48,-2.48,-2.48
287.84,-2.37,0.10,-2.37,0.10,-0.11,-0.21,-0.20,-2.48,-2.48,-2.47
290.72,-2.35,0.11,-2.35,0.11,-0.12,-0.23,-0.20,-2.47,-2.47,-2.46
293.63,-2.32,0.12,-2.32,0.12,-0.14,-0.25,-0.19,-2.46,-2.46,-2.44
296.57,-2.28,0.14,-2.28,0.15,-0.15,-0.26,-0.19,-2.43,-2.44,-2.42
299.53,-2.25,0.17,-2.25,0.17,-0.17,-0.28,-0.19,-2.42,-2.41,-2.42
302.53,-2.21,0.20,-2.21,0.19,-0.18,-0.29,-0.20,-2.39,-2.39,-2.41
305.55,-2.18,0.21,-2.18,0.22,-0.20,-0.29,-0.20,-2.38,-2.38,-2.39
308.61,-2.15,0.23,-2.15,0.23,-0.22,-0.30,-0.20,-2.37,-2.37,-2.38
311.69,-2.13,0.24,-2.13,0.23,-0.24,-0.31,-0.20,-2.37,-2.37,-2.37
314.81,-2.11,0.23,-2.11,0.25,-0.26,-0.31,-0.20,-2.37,-2.37,-2.34
317.96,-2.08,0.27,-2.08,0.27,-0.29,-0.31,-0.20,-2.37,-2.36,-2.35
321.14,-2.04,0.30,-2.04,0.30,-0.31,-0.31,-0.20,-2.35,-2.35,-2.34
324.35,-2.00,0.34,-2.00,0.34,-0.33,-0.31,-0.21,-2.33,-2.34,-2.34
327.59,-1.97,0.36,-1.97,0.36,-0.35,-0.31,-0.21,-2.32,-2.32,-2.33
330.87,-1.95,0.38,-1.95,0.38,-0.37,-0.30,-0.21,-2.32,-2.32,-2.33
334.18,-1.94,0.39,-1.94,0.39,-0.38,-0.30,-0.21,-2.32,-2.32,-2.33
337.52,-1.94,0.38,-1.94,0.39,-0.38,-0.29,-0.22,-2.32,-2.32,-2.32
340.90,-1.94,0.38,-1.94,0.38,-0.37,-0.29,-0.22,-2.31,-2.31,-2.32
344.30,-1.96,0.36,-1.96,0.36,-0.35,-0.28,-0.22,-2.31,-2.31,-2.32
347.75,-1.99,0.33,-1.99,0.33,-0.33,-0.27,-0.23,-2.32,-2.32,-2.32
351.23,-2.03,0.29,-2.03,0.29,-0.30,-0.26,-0.23,-2.33,-2.33,-2.32
354.74,-2.07,0.25,-2.07,0.26,-0.27,-0.25,-0.23,-2.34,-2.33,-2.32
358.28,-2.10,0.24,-2.10,0.23,-0.24,-0.24,-0.24,-2.34,-2.34,-2.34
361.87,-2.14,0.20,-2.14,0.20,-0.21,-0.23,-0.24,-2.35,-2.34,-2.34
365.49,-2.17,0.17,-2.17,0.18,-0.18,-0.22,-0.24,-2.35,-2.35,-2.34
369.14,-2.20,0.15,-2.20,0.15,-0.15,-0.21,-0.25,-2.35,-2.35,-2.35
372.83,-2.22,0.13,-2.22,0.13,-0.13,-0.20,-0.25,-2.35,-2.35,-2.35
376.56,-2.25,0.11,-2.25,0.11,-0.11,-0.19,-0.25,-2.36,-2.36,-2.36
380.33,-2.27,0.10,-2.27,0.10,-0.09,-0.19,-0.26,-2.36,-2.37,-2.37
384.13,-2.30,0.08,-2.30,0.09,-0.09,-0.19,-0.26,-2.39,-2.38,-2.38
387.97,-2.31,0.08,-2.31,0.08,-0.08,-0.19,-0.27,-2.39,-2.40,-2.39
391.85,-2.32,0.08,-2.32,0.08,-0.09,-0.19,-0.27,-2.41,-2.41,-2.40
395.77,-2.31,0.08,-2.31,0.09,-0.10,-0.20,-0.28,-2.41,-2.41,-2.39
399.73,-2.29,0.11,-2.29,0.11,-0.12,-0.21,-0.28,-2.41,-2.41,-2.40
403.72,-2.26,0.15,-2.26,0.14,-0.14,-0.22,-0.29,-2.40,-2.41,-2.41
407.76,-2.24,0.18,-2.24,0.18,-0.17,-0.23,-0.29,-2.41,-2.41,-2.42
411.84,-2.21,0.20,-2.21,0.21,-0.21,-0.25,-0.30,-2.42,-2.42,-2.41
415.96,-2.18,0.25,-2.18,0.24,-0.24,-0.27,-0.31,-2.42,-2.42,-2.43
420.12,-2.15,0.28,-2.15,0.28,-0.28,-0.28,-0.31,-2.43,-2.43,-2.43
424.32,-2.12,0.31,-2.12,0.32,-0.32,-0.30,-0.32,-2.44,-2.44,-2.43
428.56,-2.09,0.35,-2.09,0.35,-0.35,-0.32,-0.32,-2.44,-2.44,-2.44
432.85,-2.06,0.38,-2.06,0.38,-0.38,-0.34,-0.33,-2.44,-2.44,-2.44
437.18,-2.03,0.41,-2.03,0.41,-0.41,-0.36,-0.34,-2.44,-2.43,-2.44
441.55,-2.00,0.43,-2.00,0.43,-0.43,-0.38,-0.35,-2.43,-2.43,-2.43
445.96,-1.98,0.45,-1.98,0.45,-0.45,-0.40,-0.36,-2.43,-2.43,-2.43
450.42,-1.97,0.47,-1.97,0.47,-0.46,-0.42,-0.36,-2.43,-2.43,-2.44
454.93,-1.96,0.47,-1.96,0.48,-0.47,-0.44,-0.37,-2.43,-2.43,-2.43
459.48,-1.95,0.48,-1.95,0.48,-0.48,-0.46,-0.38,-2.43,-2.43,-2.43
464.07,-1.94,0.48,-1.94,0.48,-0.49,-0.48,-0.39,-2.43,-2.43,-2.42
468.71,-1.93,0.48,-1.93,0.49,-0.49,-0.49,-0.40,-2.42,-2.42,-2.41
473.40,-1.92,0.50,-1.92,0.50,-0.50,-0.51,-0.42,-2.42,-2.42,-2.42
478.13,-1.90,0.51,-1.90,0.51,-0.52,-0.53,-0.43,-2.42,-2.42,-2.41
482.91,-1.88,0.53,-1.88,0.53,-0.53,-0.55,-0.44,-2.41,-2.41,-2.41
487.74,-1.85,0.55,-1.85,0.55,-0.55,-0.56,-0.45,-2.40,-2.40,-2.40
492.62,-1.82,0.57,-1.82,0.57,-0.57,-0.58,-0.47,-2.39,-2.40,-2.39
497.55,-1.79,0.60,-1.79,0.60,-0.60,-0.60,-0.48,-2.39,-2.39,-2.39
502.52,-1.76,0.62,-1.76,0.62,-0.63,-0.61,-0.49,-2.39,-2.39,-2.38
