frequency,raw,error,smoothed,error_smoothed,equalization,parametric_eq,fixed_band_eq,equalized_raw,equalized_smoothed,target
20.00,-0.03,-3.76,-0.02,-3.77,3.77,3.63,1.42,3.74,3.75,3.73
20.20,0.01,-3.76,0.02,-3.76,3.76,3.62,1.46,3.77,3.78,3.77
20.40,0.05,-3.75,0.06,-3.75,3.75,3.62,1.51,3.80,3.81,3.81
20.61,0.09,-3.74,0.09,-3.75,3.75,3.61,1.55,3.84,3.84,3.83
20.81,0.13,-3.74,0.13,-3.74,3.74,3.61,1.60,3.87,3.86,3.87
21.02,0.17,-3.74,0.16,-3.73,3.73,3.60,1.65,3.90,3.89,3.91
21.23,0.21,-3.72,0.20,-3.71,3.71,3.59,1.69,3.92,3.91,3.93
21.44,0.25,-3.70,0.24,-3.70,3.70,3.59,1.74,3.95,3.93,3.95
21.66,0.28,-3.69,0.27,-3.68,3.68,3.58,1.80,3.96,3.96,3.97
21.87,0.32,-3.66,0.31,-3.67,3.67,3.57,1.85,3.99,3.97,3.98
22.09,0.36,-3.64,0.34,-3.65,3.65,3.56,1.90,4.01,3.99,4.00
22.31,0.39,-3.62,0.38,-3.63,3.63,3.56,1.96,4.02,4.01,4.01
22.54,0.42,-3.60,0.41,-3.61,3.61,3.55,2.02,4.03,4.02,4.02
22.76,0.45,-3.58,0.45,-3.58,3.58,3.54,2.08,4.03,4.03,4.03
22.99,0.47,-3.56,0.48,-3.56,3.56,3.53,2.14,4.03,4.04,4.03
23.22,0.49,-3.55,0.52,-3.53,3.53,3.52,2.20,4.02,4.05,4.04
23.45,0.53,-3.52,0.55,-3.50,3.50,3.51,2.26,4.03,4.05,4.05
23.69,0.57,-3.49,0.59,-3.48,3.48,3.50,2.33,4.05,4.06,4.06
23.92,0.61,-3.45,0.62,-3.45,3.45,3.49,2.39,4.06,4.07,4.07
24.16,0.66,-3.42,0.66,-3.43,3.43,3.48,2.46,4.09,4.08,4.08
24.40,0.71,-3.39,0.69,-3.40,3.40,3.47,2.53,4.11,4.09,4.10
24.65,0.75,-3.35,0.73,-3.37,3.37,3.45,2.59,4.12,4.10,4.10
24.89,0.79,-3.32,0.76,-3.35,3.35,3.44,2.66,4.14,4.11,4.11
25.14,0.81,-3.31,0.80,-3.32,3.32,3.43,2.73,4.13,4.12,4.12
25.39,0.84,-3.29,0.84,-3.29,3.29,3.42,2.80,4.13,4.13,4.13
25.65,0.86,-3.29,0.88,-3.27,3.27,3.40,2.87,4.13,4.14,4.15
25.91,0.89,-3.26,0.91,-3.24,3.24,3.39,2.94,4.13,4.15,4.15
26.16,0.92,-3.24,0.95,-3.22,3.22,3.38,3.01,4.14,4.16,4.16
26.43,0.97,-3.20,0.98,-3.19,3.19,3.36,3.08,4.16,4.17,4.16
26.69,1.01,-3.16,1.01,-3.17,3.17,3.35,3.15,4.18,4.18,4.17
26.96,1.05,-3.14,1.05,-3.14,3.14,3.33,3.21,4.19,4.19,4.19
27.23,1.09,-3.11,1.08,-3.12,3.12,3.32,3.28,4.21,4.19,4.20
27.50,1.12,-3.09,1.11,-3.09,3.09,3.31,3.34,4.21,4.20,4.21
27.77,1.15,-3.06,1.14,-3.07,3.07,3.29,3.40,4.22,4.21,4.21
28.05,1.17,-3.06,1.17,-3.05,3.05,3.27,3.46,4.22,4.22,4.23
28.33,1.19,-3.03,1.20,-3.03,3.03,3.26,3.51,4.22,4.23,4.22
28.62,1.22,-3.01,1.22,-3.01,3.01,3.24,3.57,4.23,4.24,4.23
28.90,1.25,-2.99,1.24,-3.00,3.00,3.23,3.61,4.25,4.24,4.24
29.19,1.27,-2.97,1.25,-3.00,3.00,3.21,3.65,4.27,4.25,4.24
29.48,1.29,-2.98,1.27,-2.99,2.99,3.19,3.69,4.28,4.26,4.27
29.78,1.30,-2.97,1.28,-2.99,2.99,3.17,3.73,4.29,4.26,4.27
30.08,1.30,-2.97,1.29,-2.98,2.98,3.16,3.75,4.28,4.27,4.27
30.38,1.30,-2.97,1.29,-2.98,2.98,3.14,3.78,4.28,4.28,4.27
30.68,1.30,-2.99,1.30,-2.98,2.98,3.12,3.79,4.28,4.28,4.29
30.99,1.30,-2.99,1.32,-2.97,2.97,3.10,3.80,4.27,4.29,4.29
31.30,1.30,-2.99,1.33,-2.97,2.97,3.08,3.81,4.27,4.30,4.29
31.61,1.31,-2.99,1.34,-2.96,2.96,3.07,3.81,4.27,4.30,4.30
31.93,1.34,-2.97,1.36,-2.95,2.95,3.05,3.80,4.29,4.31,4.31
32.24,1.36,-2.95,1.38,-2.94,2.94,3.03,3.79,4.30,4.32,4.31
32.57,1.39,-2.93,1.40,-2.93,2.93,3.01,3.77,4.32,4.32,4.32
32.89,1.42,-2.91,1.42,-2.91,2.91,2.99,3.75,4.33,4.33,4.33
33.22,1.45,-2.89,1.45,-2.89,2.89,2.97,3.72,4.34,4.34,4.34
33.55,1.48,-2.86,1.48,-2.86,2.86,2.95,3.69,4.34,4.34,4.34
33.89,1.51,-2.84,1.51,-2.84,2.84,2.93,3.66,4.35,4.35,4.35
34.23,1.54,-2.82,1.54,-2.82,2.82,2.91,3.62,4.36,4.35,4.36
34.57,1.57,-2.79,1.56,-2.80,2.80,2.89,3.57,4.37,4.36,4.36
34.92,1.59,-2.77,1.58,-2.78,2.78,2.87,3.53,4.37,4.36,4.36
35.27,1.61,-2.76,1.59,-2.77,2.77,2.84,3.48,4.38,4.37,4.37
35.62,1.63,-2.74,1.61,-2.77,2.77,2.82,3.42,4.40,4.37,4.37
35.97,1.64,-2.73,1.61,-2.76,2.76,2.80,3.37,4.40,4.37,4.37
36.33,1.64,-2.73,1.62,-2.76,2.76,2.78,3.31,4.40,4.37,4.37
36.70,1.64,-2.73,1.62,-2.76,2.76,2.76,3.26,4.40,4.37,4.37
37.06,1.63,-2.75,1.62,-2.75,2.75,2.74,3.20,4.38,4.37,4.38
37.43,1.61,-2.77,1.62,-2.75,2.75,2.71,3.14,4.36,4.37,4.38
37.81,1.60,-2.78,1.62,-2.75,2.75,2.69,3.08,4.35,4.37,4.38
38.19,1.60,-2.77,1.62,-2.74,2.74,2.67,3.02,4.34,4.37,4.37
38.57,1.60,-2.77,1.63,-2.74,2.74,2.65,2.96,4.34,4.36,4.37
38.95,1.61,-2.75,1.64,-2.73,2.73,2.62,2.91,4.34,4.36,4.36
39.34,1.63,-2.72,1.65,-2.71,2.71,2.60,2.85,4.34,4.36,4.35
39.74,1.65,-2.70,1.66,-2.69,2.69,2.58,2.79,4.34,4.36,4.35
40.14,1.68,-2.67,1.68,-2.67,2.67,2.55,2.74,4.35,4.35,4.35
40.54,1.70,-2.65,1.71,-2.64,2.64,2.53,2.68,4.34,4.35,4.35
40.94,1.73,-2.61,1.73,-2.61,2.61,2.50,2.63,4.34,4.34,4.34
41.35,1.77,-2.56,1.77,-2.57,2.57,2.48,2.58,4.34,4.34,4.33
41.76,1.80,-2.53,1.80,-2.54,2.54,2.46,2.53,4.34,4.33,4.33
42.18,1.83,-2.51,1.83,-2.50,2.50,2.43,2.48,4.33,4.33,4.34
42.60,1.86,-2.47,1.85,-2.47,2.47,2.41,2.43,4.33,4.33,4.33
43.03,1.89,-2.44,1.88,-2.44,2.44,2.38,2.39,4.33,4.32,4.33
43.46,1.91,-2.41,1.90,-2.42,2.42,2.36,2.35,4.33,4.32,4.32
43.90,1.93,-2.37,1.92,-2.39,2.39,2.33,2.31,4.32,4.31,4.30
44.33,1.95,-2.35,1.93,-2.37,2.37,2.31,2.27,4.32,4.31,4.31
44.78,1.96,-2.34,1.95,-2.36,2.36,2.28,2.23,4.32,4.30,4.30
45.23,1.97,-2.32,1.95,-2.34,2.34,2.26,2.19,4.31,4.30,4.29
45.68,1.97,-2.32,1.96,-2.33,2.33,2.23,2.16,4.30,4.29,4.29
46.13,1.96,-2.32,1.96,-2.32,2.32,2.21,2.13,4.28,4.29,4.28
46.60,1.95,-2.33,1.96,-2.31,2.31,2.18,2.10,4.26,4.28,4.28
47.06,1.95,-2.32,1.96,-2.31,2.31,2.16,2.07,4.26,4.27,4.27
47.53,1.95,-2.31,1.96,-2.30,2.30,2.13,2.04,4.25,4.26,4.26
48.01,1.95,-2.32,1.95,-2.29,2.29,2.11,2.01,4.24,4.25,4.27
48.49,1.95,-2.30,1.95,-2.29,2.29,2.08,1.99,4.24,4.24,4.25
48.97,1.95,-2.27,1.94,-2.28,2.28,2.06,1.97,4.23,4.23,4.22
49.46,1.95,-2.26,1.94,-2.28,2.28,2.03,1.94,4.23,4.21,4.21
49.96,1.94,-2.25,1.93,-2.26,2.26,2.00,1.92,4.20,4.20,4.19
50.46,1.94,-2.24,1.93,-2.25,2.25,1.98,1.90,4.19,4.18,4.18
50.96,1.93,-2.24,1.93,-2.23,2.23,1.95,1.89,4.16,4.16,4.17
51.47,1.93,-2.20,1.93,-2.21,2.21,1.93,1.87,4.14,4.14,4.13
51.99,1.93,-2.19,1.94,-2.18,2.18,1.90,1.85,4.11,4.12,4.12
52.51,1.93,-2.18,1.95,-2.16,2.16,1.87,1.84,4.09,4.10,4.11
53.03,1.94,-2.14,1.96,-2.12,2.12,1.85,1.82,4.06,4.08,4.08
53.56,1.96,-2.10,1.97,-2.09,2.09,1.82,1.81,4.05,4.06,4.06
54.10,1.98,-2.06,1.99,-2.05,2.05,1.79,1.79,4.03,4.04,4.04
54.64,2.00,-2.02,2.01,-2.00,2.00,1.77,1.78,4.00,4.01,4.02
55.18,2.03,-1.96,2.03,-1.96,1.96,1.74,1.76,3.99,3.99,3.99
55.74,2.06,-1.90,2.06,-1.91,1.91,1.71,1.75,3.97,3.97,3.96
56.29,2.09,-1.86,2.09,-1.85,1.85,1.69,1.73,3.94,3.94,3.95
56.86,2.12,-1.80,2.12,-1.80,1.80,1.66,1.71,3.92,3.92,3.92
57.42,2.15,-1.73,2.15,-1.75,1.75,1.63,1.70,3.90,3.89,3.88
58.00,2.18,-1.68,2.18,-1.69,1.69,1.60,1.68,3.87,3.87,3.86
58.58,2.21,-1.63,2.20,-1.64,1.64,1.58,1.66,3.85,3.84,3.84
59.16,2.23,-1.58,2.22,-1.58,1.58,1.55,1.64,3.81,3.81,3.81
59.76,2.25,-1.54,2.24,-1.53,1.53,1.52,1.62,3.78,3.77,3.79
60.35,2.27,-1.48,2.25,-1.48,1.48,1.49,1.60,3.75,3.74,3.75
60.96,2.28,-1.43,2.27,-1.44,1.44,1.47,1.57,3.72,3.70,3.71
61.57,2.29,-1.38,2.27,-1.39,1.39,1.44,1.55,3.68,3.67,3.67
62.18,2.29,-1.33,2.28,-1.35,1.35,1.41,1.52,3.64,3.63,3.62
62.80,2.28,-1.31,2.28,-1.31,1.31,1.38,1.49,3.59,3.59,3.59
63.43,2.28,-1.26,2.28,-1.26,1.26,1.35,1.46,3.54,3.55,3.54
64.07,2.27,-1.23,2.28,-1.22,1.22,1.33,1.43,3.49,3.51,3.50
64.71,2.27,-1.19,2.28,-1.18,1.18,1.30,1.39,3.45,3.46,3.46
65.35,2.27,-1.14,2.28,-1.14,1.14,1.27,1.36,3.41,3.42,3.41
66.01,2.27,-1.10,2.28,-1.10,1.10,1.24,1.32,3.37,3.37,3.37
66.67,2.27,-1.07,2.27,-1.05,1.05,1.21,1.28,3.32,3.33,3.34
67.33,2.27,-1.02,2.27,-1.01,1.01,1.18,1.24,3.28,3.28,3.29
68.01,2.27,-0.97,2.27,-0.97,0.97,1.15,1.19,3.24,3.24,3.24
68.69,2.27,-0.93,2.27,-0.93,0.93,1.12,1.15,3.20,3.19,3.20
69.37,2.27,-0.88,2.27,-0.88,0.88,1.10,1.10,3.15,3.15,3.15
70.07,2.27,-0.83,2.27,-0.83,0.83,1.07,1.06,3.10,3.10,3.10
70.77,2.27,-0.79,2.27,-0.79,0.79,1.04,1.01,3.06,3.06,3.06
71.48,2.27,-0.75,2.27,-0.74,0.74,1.01,0.96,3.01,3.01,3.02
72.19,2.27,-0.70,2.27,-0.70,0.70,0.97,0.91,2.97,2.97,2.97
72.91,2.27,-0.65,2.27,-0.66,0.66,0.94,0.86,2.93,2.93,2.92
73.64,2.27,-0.61,2.27,-0.61,0.61,0.91,0.81,2.88,2.88,2.88
74.38,2.27,-0.57,2.27,-0.57,0.57,0.88,0.75,2.84,2.84,2.84
75.12,2.27,-0.53,2.27,-0.53,0.53,0.85,0.70,2.80,2.80,2.80
75.87,2.27,-0.49,2.27,-0.49,0.49,0.82,0.65,2.76,2.76,2.76
76.63,2.27,-0.45,2.27,-0.45,0.45,0.79,0.59,2.72,2.72,2.72
77.40,2.27,-0.41,2.27,-0.41,0.41,0.75,0.54,2.68,2.68,2.68
78.17,2.27,-0.37,2.27,-0.38,0.38,0.72,0.48,2.65,2.65,2.64
78.95,2.27,-0.34,2.27,-0.34,0.34,0.69,0.43,2.61,2.61,2.61
79.74,2.27,-0.31,2.27,-0.31,0.31,0.65,0.37,2.58,2.58,2.58
80.54,2.27,-0.28,2.27,-0.27,0.27,0.62,0.31,2.54,2.54,2.55
81.35,2.27,-0.24,2.27,-0.24,0.24,0.58,0.26,2.51,2.51,2.51
82.16,2.27,-0.21,2.27,-0.21,0.21,0.55,0.20,2.48,2.48,2.48
82.98,2.27,-0.18,2.27,-0.18,0.18,0.51,0.14,2.45,2.45,2.45
83.81,2.27,-0.15,2.27,-0.15,0.15,0.47,0.09,2.42,2.42,2.42
84.65,2.27,-0.11,2.27,-0.12,0.12,0.43,0.03,2.39,2.39,2.38
85.50,2.27,-0.09,2.27,-0.09,0.09,0.40,-0.03,2.36,2.36,2.36
86.35,2.27,-0.06,2.27,-0.06,0.06,0.36,-0.09,2.33,2.33,2.33
87.22,2.27,-0.03,2.27,-0.03,0.03,0.32,-0.14,2.30,2.30,2.30
88.09,2.27,-0.00,2.27,-0.01,0.01,0.28,-0.20,2.28,2.28,2.27
88.97,2.27,0.02,2.27,0.02,-0.02,0.24,-0.26,2.25,2.25,2.25
89.86,2.27,0.04,2.27,0.05,-0.05,0.19,-0.32,2.22,2.22,2.23
90.76,2.27,0.08,2.27,0.08,-0.08,0.15,-0.38,2.19,2.19,2.19
91.66,2.27,0.11,2.27,0.10,-0.10,0.11,-0.44,2.17,2.17,2.16
92.58,2.27,0.14,2.27,0.13,-0.13,0.06,-0.50,2.14,2.14,2.13
93.51,2.27,0.16,2.27,0.16,-0.16,0.01,-0.56,2.11,2.11,2.11
94.44,2.27,0.19,2.27,0.19,-0.19,-0.03,-0.62,2.08,2.08,2.08
95.39,2.27,0.22,2.27,0.23,-0.23,-0.08,-0.68,2.04,2.04,2.05
96.34,2.27,0.26,2.27,0.26,-0.26,-0.13,-0.73,2.01,2.01,2.01
97.30,2.27,0.30,2.27,0.29,-0.29,-0.18,-0.79,1.98,1.98,1.97
98.28,2.27,0.33,2.27,0.33,-0.33,-0.24,-0.85,1.94,1.94,1.94
99.26,2.27,0.37,2.27,0.37,-0.37,-0.29,-0.91,1.90,1.90,1.90
100.25,2.27,0.41,2.27,0.41,-0.41,-0.34,-0.97,1.86,1.86,1.86
101.25,2.27,0.44,2.27,0.45,-0.45,-0.40,-1.03,1.82,1.82,1.83
102.27,2.27,0.49,2.27,0.49,-0.49,-0.46,-1.09,1.78,1.78,1.78
103.29,2.27,0.54,2.27,0.54,-0.54,-0.52,-1.15,1.73,1.73,1.73
104.32,2.27,0.58,2.27,0.58,-0.58,-0.58,-1.20,1.69,1.69,1.69
105.37,2.27,0.63,2.27,0.63,-0.63,-0.64,-1.26,1.64,1.64,1.64
106.42,2.27,0.68,2.27,0.69,-0.69,-0.71,-1.32,1.58,1.58,1.59
107.48,2.27,0.73,2.27,0.74,-0.74,-0.77,-1.37,1.53,1.53,1.54
108.56,2.27,0.80,2.27,0.80,-0.80,-0.84,-1.42,1.47,1.47,1.47
109.64,2.27,0.86,2.27,0.86,-0.86,-0.90,-1.47,1.41,1.41,1.41
110.74,2.27,0.91,2.27,0.92,-0.92,-0.97,-1.52,1.35,1.35,1.36
111.85,2.27,0.98,2.27,0.99,-0.99,-1.04,-1.57,1.28,1.28,1.29
112.97,2.27,1.06,2.27,1.05,-1.05,-1.11,-1.61,1.22,1.22,1.21
114.10,2.27,1.11,2.27,1.12,-1.12,-1.19,-1.65,1.15,1.15,1.16
115.24,2.27,1.19,2.27,1.19,-1.19,-1.26,-1.69,1.08,1.08,1.08
116.39,2.27,1.27,2.27,1.26,-1.26,-1.33,-1.73,1.01,1.01,1.00
117.55,2.27,1.33,2.27,1.33,-1.33,-1.40,-1.76,0.94,0.94,0.94
118.73,2.27,1.41,2.27,1.40,-1.40,-1.47,-1.79,0.87,0.88,0.86
119.92,2.27,1.46,2.28,1.47,-1.47,-1.55,-1.82,0.80,0.81,0.81
121.12,2.27,1.53,2.28,1.54,-1.54,-1.61,-1.84,0.73,0.74,0.74
122.33,2.27,1.60,2.28,1.61,-1.61,-1.68,-1.86,0.66,0.68,0.67
123.55,2.27,1.65,2.29,1.67,-1.67,-1.75,-1.87,0.60,0.61,0.62
124.79,2.28,1.72,2.29,1.73,-1.73,-1.81,-1.88,0.55,0.55,0.56
126.03,2.29,1.79,2.29,1.79,-1.79,-1.87,-1.89,0.50,0.49,0.50
127.29,2.29,1.85,2.29,1.85,-1.85,-1.93,-1.90,0.44,0.43,0.44
128.57,2.29,1.92,2.28,1.91,-1.91,-1.98,-1.89,0.38,0.38,0.37
129.85,2.28,1.96,2.28,1.96,-1.96,-2.03,-1.89,0.32,0.32,0.32
131.15,2.27,2.01,2.26,2.00,-2.00,-2.07,-1.88,0.27,0.26,0.26
132.46,2.26,2.05,2.25,2.04,-2.04,-2.10,-1.87,0.22,0.21,0.21
133.79,2.24,2.08,2.23,2.07,-2.07,-2.13,-1.86,0.17,0.16,0.16
135.12,2.22,2.11,2.21,2.10,-2.10,-2.16,-1.84,0.12,0.11,0.11
136.48,2.18,2.12,2.18,2.12,-2.12,-2.17,-1.82,0.06,0.06,0.06
137.84,2.14,2.13,2.14,2.13,-2.13,-2.18,-1.80,0.01,0.01,0.01
139.22,2.11,2.15,2.10,2.14,-2.14,-2.19,-1.77,-0.03,-0.04,-0.04
140.61,2.06,2.16,2.06,2.14,-2.14,-2.18,-1.74,-0.08,-0.08,-0.10
142.02,2.01,2.14,2.01,2.14,-2.14,-2.17,-1.71,-0.13,-0.13,-0.13
143.44,1.96,2.13,1.96,2.13,-2.13,-2.16,-1.68,-0.17,-0.17,-0.17
144.87,1.90,2.12,1.90,2.12,-2.12,-2.14,-1.65,-0.22,-0.22,-0.22
146.32,1.84,2.11,1.84,2.10,-2.10,-2.11,-1.61,-0.26,-0.27,-0.27
147.78,1.77,2.07,1.77,2.09,-2.09,-2.08,-1.58,-0.32,-0.31,-0.30
149.26,1.70,2.05,1.70,2.07,-2.07,-2.04,-1.54,-0.37,-0.36,-0.35
150.75,1.63,2.04,1.64,2.05,-2.05,-2.00,-1.50,-0.42,-0.41,-0.41
152.26,1.56,2.02,1.56,2.02,-2.02,-1.96,-1.47,-0.46,-0.46,-0.46
153.78,1.49,1.99,1.49,2.00,-2.00,-1.91,-1.43,-0.51,-0.51,-0.50
155.32,1.41,1.97,1.41,1.97,-1.97,-1.86,-1.39,-0.56,-0.56,-0.57
156.88,1.34,1.95,1.34,1.94,-1.94,-1.81,-1.35,-0.60,-0.61,-0.61
158.44,1.25,1.91,1.26,1.92,-1.92,-1.76,-1.31,-0.67,-0.66,-0.66
160.03,1.17,1.89,1.17,1.89,-1.89,-1.70,-1.28,-0.72,-0.71,-0.72
161.63,1.09,1.87,1.09,1.86,-1.86,-1.65,-1.24,-0.77,-0.76,-0.78
163.24,1.01,1.83,1.01,1.83,-1.83,-1.60,-1.20,-0.82,-0.82,-0.82
164.88,0.92,1.79,0.92,1.79,-1.79,-1.54,-1.17,-0.87,-0.87,-0.87
166.53,0.84,1.77,0.84,1.76,-1.76,-1.49,-1.13,-0.92,-0.93,-0.92
168.19,0.74,1.72,0.75,1.73,-1.73,-1.44,-1.09,-0.99,-0.98,-0.98
169.87,0.65,1.68,0.65,1.69,-1.69,-1.38,-1.06,-1.04,-1.04,-1.03
171.57,0.56,1.65,0.56,1.66,-1.66,-1.33,-1.02,-1.10,-1.09,-1.09
173.29,0.47,1.62,0.47,1.62,-1.62,-1.28,-0.99,-1.15,-1.15,-1.15
175.02,0.37,1.57,0.37,1.58,-1.58,-1.23,-0.96,-1.21,-1.21,-1.20
176.77,0.27,1.54,0.27,1.54,-1.54,-1.19,-0.93,-1.27,-1.27,-1.27
178.54,0.17,1.50,0.16,1.49,-1.49,-1.14,-0.90,-1.32,-1.33,-1.33
180.32,0.07,1.46,0.06,1.45,-1.45,-1.10,-0.86,-1.38,-1.39,-1.39
182.13,-0.04,1.41,-0.05,1.40,-1.40,-1.05,-0.83,-1.44,-1.45,-1.45
183.95,-0.16,1.35,-0.16,1.35,-1.35,-1.01,-0.81,-1.51,-1.51,-1.51
185.79,-0.26,1.31,-0.27,1.30,-1.30,-0.97,-0.78,-1.56,-1.57,-1.57
187.65,-0.37,1.27,-0.38,1.25,-1.25,-0.93,-0.75,-1.62,-1.63,-1.64
189.52,-0.50,1.20,-0.49,1.20,-1.20,-0.89,-0.72,-1.70,-1.69,-1.70
191.42,-0.62,1.13,-0.61,1.14,-1.14,-0.85,-0.70,-1.76,-1.75,-1.75
193.33,-0.73,1.08,-0.72,1.09,-1.09,-0.82,-0.67,-1.82,-1.81,-1.81
195.27,-0.84,1.02,-0.83,1.03,-1.03,-0.78,-0.65,-1.87,-1.87,-1.86
197.22,-0.95,0.97,-0.94,0.97,-0.97,-0.75,-0.62,-1.92,-1.92,-1.92
199.19,-1.06,0.92,-1.06,0.91,-0.91,-0.71,-0.60,-1.97,-1.97,-1.98
201.18,-1.16,0.87,-1.17,0.86,-0.86,-0.68,-0.58,-2.02,-2.03,-2.03
203.19,-1.28,0.79,-1.28,0.80,-0.80,-0.65,-0.56,-2.08,-2.08,-2.07
205.23,-1.38,0.75,-1.39,0.74,-0.74,-0.61,-0.54,-2.12,-2.13,-2.13
207.28,-1.48,0.68,-1.50,0.68,-0.68,-0.58,-0.51,-2.16,-2.17,-2.16
209.35,-1.60,0.62,-1.60,0.62,-0.62,-0.55,-0.49,-2.22,-2.22,-2.22
211.44,-1.70,0.57,-1.70,0.56,-0.56,-0.52,-0.48,-2.26,-2.26,-2.27
213.56,-1.81,0.50,-1.80,0.50,-0.50,-0.48,-0.46,-2.31,-2.31,-2.31
215.69,-1.92,0.42,-1.90,0.44,-0.44,-0.45,-0.44,-2.36,-2.35,-2.34
217.85,-2.01,0.37,-2.00,0.38,-0.38,-0.41,-0.42,-2.39,-2.38,-2.38
220.03,-2.10,0.33,-2.10,0.32,-0.32,-0.37,-0.41,-2.42,-2.42,-2.43
222.23,-2.18,0.28,-2.19,0.26,-0.26,-0.33,-0.39,-2.44,-2.45,-2.46
224.45,-2.26,0.23,-2.28,0.20,-0.20,-0.29,-0.38,-2.46,-2.48,-2.49
226.70,-2.34,0.17,-2.36,0.15,-0.15,-0.24,-0.36,-2.49,-2.51,-2.51
228.96,-2.43,0.11,-2.44,0.10,-0.10,-0.19,-0.35,-2.53,-2.54,-2.54
231.25,-2.50,0.05,-2.51,0.05,-0.05,-0.14,-0.33,-2.55,-2.56,-2.55
233.57,-2.59,-0.01,-2.58,0.00,-0.00,-0.08,-0.32,-2.59,-2.58,-2.58
235.90,-2.66,-0.06,-2.63,-0.04,0.04,-0.01,-0.31,-2.62,-2.59,-2.60
238.26,-2.71,-0.10,-2.68,-0.08,0.08,0.05,-0.30,-2.63,-2.61,-2.61
240.64,-2.75,-0.13,-2.72,-0.11,0.11,0.11,-0.29,-2.64,-2.62,-2.62
243.05,-2.77,-0.15,-2.76,-0.13,0.13,0.16,-0.28,-2.64,-2.62,-2.62
245.48,-2.79,-0.16,-2.78,-0.16,0.16,0.21,-0.27,-2.63,-2.63,-2.63
247.93,-2.79,-0.16,-2.80,-0.17,0.17,0.23,-0.26,-2.62,-2.63,-2.63
250.41,-2.80,-0.16,-2.80,-0.17,0.17,0.24,-0.25,-2.63,-2.63,-2.64
252.92,-2.80,-0.17,-2.80,-0.17,0.17,0.22,-0.25,-2.63,-2.63,-2.63
255.45,-2.79,-0.17,-2.78,-0.16,0.16,0.19,-0.24,-2.63,-2.63,-2.62
258.00,-2.77,-0.15,-2.76,-0.14,0.14,0.15,-0.23,-2.63,-2.62,-2.62
260.58,-2.75,-0.13,-2.73,-0.12,0.12,0.11,-0.23,-2.63,-2.61,-2.62
263.19,-2.72,-0.12,-2.70,-0.09,0.09,0.06,-0.22,-2.63,-2.60,-2.60
265.82,-2.68,-0.08,-2.66,-0.07,0.07,0.01,-0.22,-2.61,-2.59,-2.60
268.48,-2.63,-0.05,-2.62,-0.04,0.04,-0.03,-0.22,-2.59,-2.58,-2.58
271.16,-2.57,-0.00,-2.59,-0.02,0.02,-0.06,-0.21,-2.55,-2.57,-2.57
273.87,-2.51,0.05,-2.55,0.01,-0.01,-0.10,-0.21,-2.52,-2.56,-2.56
276.61,-2.47,0.07,-2.51,0.04,-0.04,-0.12,-0.21,-2.51,-2.55,-2.54
279.38,-2.43,0.10,-2.47,0.07,-0.07,-0.15,-0.21,-2.50,-2.53,-2.53
282.17,-2.40,0.12,-2.43,0.09,-0.09,-0.17,-0.21,-2.49,-2.52,-2.52
284.99,-2.39,0.12,-2.39,0.12,-0.12,-0.19,-0.20,-2.51,-2.51,-2.51
287.84,-2.37,0.13,-2.36,0.14,-0.14,-0.20,-0.20,-2.51,-2.50,-2.50
290.72,-2.35,0.14,-2.33,0.16,-0.16,-0.22,-0.20,-2.51,-2.48,-2.49
293.63,-2.32,0.15,-2.30,0.17,-0.17,-0.23,-0.20,-2.49,-2.47,-2.47
296.57,-2.28,0.18,-2.27,0.19,-0.19,-0.24,-0.21,-2.47,-2.46,-2.46
299.53,-2.25,0.20,-2.24,0.21,-0.21,-0.25,-0.21,-2.46,-2.45,-2.45
302.53,-2.21,0.24,-2.21,0.22,-0.22,-0.26,-0.21,-2.43,-2.44,-2.45
305.55,-2.18,0.24,-2.18,0.24,-0.24,-0.27,-0.21,-2.42,-2.43,-2.42
308.61,-2.15,0.27,-2.15,0.27,-0.27,-0.27,-0.21,-2.42,-2.42,-2.42
311.69,-2.13,0.28,-2.12,0.29,-0.29,-0.28,-0.21,-2.42,-2.41,-2.41
314.81,-2.11,0.27,-2.09,0.31,-0.31,-0.29,-0.21,-2.42,-2.40,-2.38
317.96,-2.08,0.31,-2.05,0.34,-0.34,-0.29,-0.22,-2.42,-2.39,-2.39
321.14,-2.04,0.34,-2.03,0.36,-0.36,-0.30,-0.22,-2.40,-2.38,-2.38
324.35,-2.00,0.39,-2.00,0.38,-0.38,-0.30,-0.22,-2.38,-2.38,-2.39
327.59,-1.97,0.40,-1.99,0.39,-0.39,-0.31,-0.22,-2.36,-2.37,-2.37
330.87,-1.95,0.42,-1.97,0.40,-0.40,-0.32,-0.23,-2.35,-2.37,-2.37
334.18,-1.94,0.44,-1.97,0.40,-0.40,-0.32,-0.23,-2.34,-2.37,-2.38
337.52,-1.94,0.43,-1.97,0.40,-0.40,-0.33,-0.23,-2.34,-2.37,-2.37
340.90,-1.94,0.42,-1.98,0.39,-0.39,-0.33,-0.24,-2.33,-2.37,-2.36
344.30,-1.96,0.40,-1.99,0.38,-0.38,-0.34,-0.24,-2.34,-2.37,-2.36
347.75,-1.99,0.38,-2.00,0.36,-0.36,-0.34,-0.25,-2.35,-2.37,-2.37
351.23,-2.03,0.34,-2.03,0.34,-0.34,-0.35,-0.25,-2.37,-2.37,-2.37
354.74,-2.07,0.30,-2.06,0.32,-0.32,-0.35,-0.25,-2.39,-2.38,-2.37
358.28,-2.10,0.28,-2.09,0.29,-0.29,-0.36,-0.26,-2.39,-2.38,-2.38
361.87,-2.14,0.25,-2.13,0.26,-0.26,-0.36,-0.26,-2.40,-2.39,-2.39
365.49,-2.17,0.22,-2.16,0.23,-0.23,-0.37,-0.27,-2.40,-2.39,-2.39
369.14,-2.20,0.20,-2.20,0.20,-0.20,-0.38,-0.27,-2.40,-2.40,-2.40
372.83,-2.22,0.18,-2.22,0.18,-0.18,-0.38,-0.28,-2.40,-2.41,-2.40
376.56,-2.25,0.16,-2.25,0.16,-0.16,-0.39,-0.28,-2.41,-2.41,-2.41
380.33,-2.27,0.15,-2.27,0.15,-0.15,-0.40,-0.29,-2.42,-2.42,-2.42
384.13,-2.30,0.13,-2.28,0.15,-0.15,-0.40,-0.29,-2.45,-2.43,-2.43
387.97,-2.31,0.13,-2.29,0.15,-0.15,-0.41,-0.30,-2.46,-2.44,-2.44
391.85,-2.32,0.13,-2.29,0.15,-0.15,-0.42,-0.30,-2.47,-2.44,-2.45
395.77,-2.31,0.13,-2.28,0.17,-0.17,-0.42,-0.31,-2.48,-2.45,-2.44
399.73,-2.29,0.17,-2.27,0.18,-0.18,-0.43,-0.31,-2.47,-2.46,-2.46
403.72,-2.26,0.21,-2.26,0.21,-0.21,-0.44,-0.32,-2.47,-2.46,-2.47
407.76,-2.24,0.24,-2.24,0.23,-0.23,-0.45,-0.33,-2.47,-2.47,-2.48
411.84,-2.21,0.26,-2.21,0.26,-0.26,-0.45,-0.33,-2.47,-2.47,-2.47
415.96,-2.18,0.30,-2.19,0.29,-0.29,-0.46,-0.34,-2.47,-2.48,-2.48
420.12,-2.15,0.33,-2.16,0.33,-0.33,-0.47,-0.35,-2.48,-2.48,-2.48
424.32,-2.12,0.36,-2.13,0.36,-0.36,-0.48,-0.36,-2.48,-2.49,-2.48
428.56,-2.09,0.40,-2.10,0.39,-0.39,-0.49,-0.36,-2.48,-2.49,-2.49
432.85,-2.06,0.44,-2.07,0.42,-0.42,-0.50,-0.37,-2.48,-2.49,-2.50
437.18,-2.03,0.47,-2.04,0.45,-0.45,-0.51,-0.38,-2.48,-2.49,-2.50
441.55,-2.00,0.49,-2.02,0.47,-0.47,-0.52,-0.39,-2.47,-2.49,-2.49
445.96,-1.98,0.51,-2.00,0.49,-0.49,-0.53,-0.40,-2.47,-2.49,-2.49
450.42,-1.97,0.53,-1.98,0.51,-0.51,-0.54,-0.41,-2.48,-2.49,-2.50
454.93,-1.96,0.53,-1.97,0.52,-0.52,-0.55,-0.42,-2.48,-2.49,-2.49
459.48,-1.95,0.54,-1.95,0.53,-0.53,-0.56,-0.43,-2.48,-2.49,-2.49
464.07,-1.94,0.54,-1.93,0.55,-0.55,-0.57,-0.44,-2.49,-2.48,-2.48
468.71,-1.93,0.54,-1.92,0.56,-0.56,-0.58,-0.45,-2.49,-2.48,-2.47
473.40,-1.92,0.55,-1.90,0.57,-0.57,-0.59,-0.46,-2.49,-2.47,-2.47
478.13,-1.90,0.56,-1.88,0.59,-0.59,-0.61,-0.47,-2.49,-2.47,-2.46
482.91,-1.88,0.59,-1.86,0.60,-0.60,-0.62,-0.49,-2.48,-2.46,-2.47
487.74,-1.85,0.61,-1.84,0.62,-0.62,-0.63,-0.50,-2.47,-2.46,-2.46
492.62,-1.82,0.63,-1.81,0.64,-0.64,-0.65,-0.51,-2.46,-2.45,-2.45
497.55,-1.79,0.66,-1.79,0.66,-0.66,-0.66,-0.53,-2.45,-2.45,-2.45
502.52,-1.76,0.68,-1.76,0.69,-0.69,-0.67,-0.54,-2.45,-2.44,-2.44
507.55,-1.73,0.71,-1.73,0.71,-0.71,-0.69,-0.56,-2.44,-2.44,-2.44
