frequency,raw,error,smoothed,error_smoothed,equalization,parametric_eq,fixed_band_eq,equalized_raw,equalized_smoothed,target
20.00,-14.85,-18.05,-14.85,-18.04,18.01,18.28,4.34,3.15,3.15,3.20
20.20,-14.61,-17.81,-14.62,-17.81,17.81,18.21,4.45,3.19,3.19,3.20
20.40,-14.39,-17.59,-14.39,-17.59,17.60,18.11,4.56,3.21,3.21,3.20
20.61,-14.18,-17.37,-14.17,-17.37,17.40,17.97,4.68,3.22,3.23,3.20
20.81,-13.95,-17.15,-13.96,-17.15,17.18,17.81,4.80,3.23,3.22,3.20
21.02,-13.75,-16.95,-13.75,-16.94,16.96,17.62,4.92,3.21,3.21,3.20
21.23,-13.55,-16.73,-13.55,-16.73,16.74,17.41,5.05,3.19,3.19,3.18
21.44,-13.35,-16.52,-13.35,-16.51,16.51,17.17,5.18,3.16,3.16,3.17
21.66,-13.15,-16.29,-13.14,-16.29,16.28,16.92,5.31,3.14,3.14,3.15
21.87,-12.93,-16.05,-12.93,-16.06,16.05,16.65,5.45,3.12,3.12,3.13
22.09,-12.70,-15.82,-12.70,-15.81,15.80,16.36,5.59,3.10,3.10,3.11
22.31,-12.46,-15.54,-12.46,-15.55,15.54,16.07,5.73,3.08,3.08,3.09
22.54,-12.23,-15.29,-12.22,-15.28,15.27,15.77,5.88,3.05,3.06,3.07
22.76,-11.96,-15.01,-11.97,-15.01,15.00,15.46,6.03,3.04,3.03,3.05
22.99,-11.70,-14.72,-11.71,-14.72,14.72,15.15,6.19,3.02,3.01,3.02
23.22,-11.45,-14.44,-11.45,-14.43,14.44,14.84,6.35,2.99,2.99,2.99
23.45,-11.18,-14.14,-11.19,-14.15,14.16,14.52,6.51,2.98,2.97,2.96
23.69,-10.94,-13.88,-10.93,-13.87,13.89,14.21,6.68,2.95,2.96,2.95
23.92,-10.68,-13.61,-10.68,-13.61,13.62,13.89,6.85,2.94,2.94,2.93
24.16,-10.44,-13.36,-10.44,-13.36,13.36,13.58,7.02,2.92,2.91,2.92
24.40,-10.21,-13.10,-10.21,-13.10,13.10,13.27,7.20,2.89,2.90,2.89
24.65,-9.99,-12.86,-9.98,-12.86,12.86,12.96,7.38,2.87,2.87,2.88
24.89,-9.75,-12.60,-9.75,-12.61,12.61,12.65,7.56,2.86,2.86,2.86
25.14,-9.53,-12.38,-9.53,-12.37,12.37,12.35,7.75,2.84,2.85,2.85
25.39,-9.30,-12.12,-9.30,-12.13,12.13,12.05,7.94,2.83,2.83,2.83
25.65,-9.08,-11.90,-9.08,-11.89,11.89,11.75,8.13,2.81,2.81,2.82
25.91,-8.87,-11.65,-8.86,-11.65,11.65,11.46,8.32,2.78,2.79,2.79
26.16,-8.63,-11.40,-8.64,-11.41,11.40,11.17,8.52,2.77,2.77,2.78
26.43,-8.41,-11.17,-8.40,-11.16,11.15,10.88,8.71,2.75,2.75,2.77
26.69,-8.16,-10.90,-8.16,-10.91,10.90,10.60,8.90,2.74,2.74,2.74
26.96,-7.93,-10.65,-7.92,-10.65,10.65,10.32,9.09,2.73,2.73,2.73
27.23,-7.68,-10.39,-7.68,-10.39,10.40,10.04,9.28,2.72,2.72,2.72
27.50,-7.44,-10.15,-7.44,-10.14,10.14,9.77,9.46,2.70,2.70,2.71
27.77,-7.20,-9.88,-7.20,-9.89,9.89,9.50,9.64,2.69,2.69,2.69
28.05,-6.96,-9.64,-6.97,-9.64,9.64,9.23,9.81,2.68,2.67,2.68
28.33,-6.73,-9.39,-6.73,-9.39,9.39,8.97,9.97,2.66,2.66,2.66
28.62,-6.50,-9.14,-6.50,-9.14,9.14,8.71,10.12,2.65,2.64,2.65
28.90,-6.26,-8.89,-6.27,-8.89,8.90,8.45,10.26,2.63,2.63,2.63
29.19,-6.04,-8.65,-6.04,-8.65,8.65,8.20,10.38,2.61,2.61,2.61
29.48,-5.80,-8.41,-5.80,-8.40,8.40,7.95,10.49,2.60,2.60,2.61
29.78,-5.57,-8.16,-5.57,-8.16,8.15,7.70,10.57,2.59,2.59,2.60
30.08,-5.33,-7.91,-5.33,-7.91,7.90,7.46,10.63,2.58,2.58,2.59
30.38,-5.10,-7.66,-5.09,-7.66,7.66,7.21,10.67,2.56,2.56,2.57
30.68,-4.85,-7.41,-4.85,-7.40,7.41,6.97,10.68,2.55,2.55,2.56
30.99,-4.62,-7.14,-4.62,-7.15,7.16,6.74,10.66,2.54,2.54,2.53
31.30,-4.39,-6.90,-4.39,-6.90,6.91,6.50,10.62,2.52,2.52,2.52
31.61,-4.15,-6.66,-4.16,-6.66,6.66,6.27,10.55,2.51,2.50,2.51
31.93,-3.95,-6.43,-3.94,-6.42,6.42,6.04,10.46,2.47,2.48,2.49
32.24,-3.72,-6.17,-3.72,-6.18,6.18,5.81,10.34,2.46,2.46,2.46
32.57,-3.50,-5.93,-3.50,-5.94,5.94,5.59,10.19,2.44,2.44,2.44
32.89,-3.28,-5.71,-3.28,-5.70,5.71,5.36,10.02,2.42,2.42,2.43
33.22,-3.07,-5.47,-3.07,-5.47,5.47,5.14,9.83,2.40,2.40,2.40
33.55,-2.86,-5.25,-2.86,-5.24,5.24,4.92,9.62,2.38,2.38,2.38
33.89,-2.65,-5.01,-2.65,-5.01,5.01,4.70,9.40,2.35,2.36,2.36
34.23,-2.44,-4.78,-2.44,-4.78,4.78,4.49,9.16,2.33,2.33,2.34
34.57,-2.23,-4.55,-2.23,-4.55,4.55,4.27,8.90,2.32,2.31,2.32
34.92,-2.03,-4.32,-2.03,-4.32,4.32,4.06,8.64,2.29,2.29,2.30
35.27,-1.82,-4.09,-1.81,-4.09,4.09,3.85,8.37,2.27,2.27,2.28
35.62,-1.60,-3.86,-1.60,-3.86,3.86,3.64,8.09,2.25,2.25,2.26
35.97,-1.39,-3.63,-1.39,-3.63,3.63,3.44,7.80,2.24,2.23,2.24
36.33,-1.18,-3.40,-1.18,-3.40,3.40,3.23,7.51,2.22,2.21,2.22
36.70,-0.98,-3.18,-0.97,-3.17,3.17,3.03,7.22,2.19,2.20,2.20
37.06,-0.76,-2.94,-0.77,-2.94,2.95,2.82,6.92,2.19,2.18,2.18
37.43,-0.56,-2.72,-0.57,-2.72,2.72,2.62,6.62,2.16,2.16,2.16
37.81,-0.37,-2.51,-0.37,-2.50,2.50,2.43,6.32,2.13,2.13,2.14
38.19,-0.17,-2.28,-0.18,-2.29,2.28,2.23,6.02,2.11,2.11,2.11
38.57,0.02,-2.08,0.02,-2.07,2.07,2.03,5.72,2.09,2.09,2.10
38.95,0.21,-1.86,0.21,-1.86,1.86,1.84,5.43,2.07,2.07,2.07
39.34,0.40,-1.65,0.40,-1.65,1.65,1.65,5.13,2.05,2.05,2.05
39.74,0.59,-1.44,0.58,-1.45,1.45,1.46,4.83,2.03,2.03,2.03
40.14,0.76,-1.25,0.76,-1.25,1.25,1.27,4.54,2.01,2.01,2.02
40.54,0.94,-1.06,0.94,-1.05,1.05,1.08,4.24,1.98,1.99,2.00
40.94,1.13,-0.85,1.12,-0.85,0.85,0.89,3.95,1.98,1.97,1.98
41.35,1.30,-0.65,1.30,-0.66,0.66,0.71,3.66,1.96,1.96,1.95
41.76,1.47,-0.48,1.47,-0.47,0.47,0.52,3.37,1.94,1.94,1.95
42.18,1.64,-0.29,1.64,-0.29,0.29,0.34,3.08,1.92,1.92,1.93
42.60,1.80,-0.11,1.80,-0.11,0.10,0.16,2.79,1.90,1.90,1.91
43.03,1.97,0.07,1.96,0.08,-0.08,-0.01,2.50,1.89,1.88,1.90
43.46,2.13,0.26,2.13,0.26,-0.26,-0.19,2.21,1.87,1.87,1.87
43.90,2.29,0.44,2.29,0.44,-0.44,-0.37,1.93,1.85,1.85,1.85
44.33,2.45,0.62,2.44,0.62,-0.61,-0.54,1.64,1.83,1.83,1.83
44.78,2.59,0.78,2.59,0.79,-0.79,-0.71,1.36,1.80,1.80,1.81
45.23,2.74,0.96,2.74,0.96,-0.95,-0.88,1.08,1.78,1.78,1.78
45.68,2.88,1.12,2.88,1.12,-1.12,-1.05,0.79,1.76,1.76,1.76
46.13,3.03,1.28,3.02,1.28,-1.28,-1.21,0.51,1.75,1.75,1.75
46.60,3.17,1.43,3.16,1.43,-1.43,-1.38,0.23,1.74,1.73,1.74
47.06,3.30,1.58,3.30,1.58,-1.58,-1.54,-0.05,1.71,1.72,1.72
47.53,3.43,1.73,3.43,1.73,-1.73,-1.70,-0.34,1.70,1.69,1.70
48.01,3.55,1.86,3.55,1.87,-1.88,-1.85,-0.62,1.67,1.67,1.69
48.49,3.68,2.02,3.67,2.02,-2.02,-2.01,-0.90,1.65,1.65,1.66
48.97,3.80,2.17,3.79,2.17,-2.17,-2.16,-1.18,1.63,1.63,1.63
49.46,3.91,2.31,3.91,2.31,-2.31,-2.31,-1.46,1.60,1.60,1.60
49.96,4.02,2.45,4.02,2.45,-2.45,-2.46,-1.73,1.57,1.58,1.57
50.46,4.14,2.58,4.13,2.58,-2.58,-2.60,-2.01,1.56,1.55,1.56
50.96,4.25,2.71,4.24,2.71,-2.71,-2.75,-2.29,1.54,1.53,1.54
51.47,4.35,2.84,4.35,2.84,-2.84,-2.89,-2.56,1.51,1.51,1.51
51.99,4.45,2.96,4.45,2.96,-2.96,-3.02,-2.83,1.48,1.49,1.49
52.51,4.55,3.08,4.54,3.08,-3.08,-3.16,-3.10,1.46,1.46,1.47
53.03,4.64,3.19,4.64,3.20,-3.20,-3.29,-3.37,1.44,1.44,1.45
53.56,4.74,3.32,4.73,3.32,-3.32,-3.42,-3.63,1.42,1.42,1.42
54.10,4.83,3.43,4.82,3.43,-3.43,-3.54,-3.89,1.39,1.39,1.40
54.64,4.91,3.54,4.91,3.55,-3.54,-3.66,-4.15,1.36,1.37,1.37
55.18,5.00,3.65,5.00,3.65,-3.65,-3.78,-4.39,1.34,1.34,1.35
55.74,5.09,3.77,5.08,3.76,-3.76,-3.90,-4.63,1.32,1.32,1.32
56.29,5.16,3.86,5.16,3.87,-3.87,-4.01,-4.87,1.29,1.29,1.30
56.86,5.24,3.97,5.24,3.97,-3.97,-4.12,-5.09,1.27,1.27,1.27
57.42,5.32,4.07,5.31,4.07,-4.07,-4.23,-5.30,1.25,1.24,1.25
58.00,5.39,4.16,5.39,4.17,-4.16,-4.33,-5.51,1.22,1.22,1.23
58.58,5.46,4.26,5.46,4.26,-4.26,-4.43,-5.69,1.20,1.20,1.20
59.16,5.53,4.35,5.52,4.35,-4.35,-4.52,-5.87,1.18,1.18,1.18
59.76,5.59,4.43,5.59,4.43,-4.44,-4.61,-6.03,1.15,1.15,1.16
60.35,5.65,4.52,5.65,4.52,-4.52,-4.70,-6.18,1.12,1.12,1.13
60.96,5.70,4.59,5.70,4.60,-4.61,-4.78,-6.31,1.09,1.09,1.11
61.57,5.76,4.69,5.76,4.69,-4.69,-4.86,-6.42,1.07,1.06,1.07
62.18,5.81,4.77,5.81,4.77,-4.77,-4.94,-6.51,1.04,1.04,1.04
62.80,5.86,4.85,5.85,4.85,-4.84,-5.01,-6.59,1.01,1.01,1.01
63.43,5.90,4.92,5.90,4.92,-4.91,-5.07,-6.65,0.98,0.98,0.98
64.07,5.93,4.98,5.93,4.98,-4.98,-5.14,-6.70,0.95,0.95,0.95
64.71,5.97,5.04,5.96,5.04,-5.04,-5.20,-6.73,0.93,0.93,0.93
65.35,5.99,5.08,5.99,5.09,-5.09,-5.25,-6.74,0.90,0.90,0.91
66.01,6.02,5.13,6.02,5.13,-5.14,-5.30,-6.74,0.88,0.88,0.89
66.67,6.04,5.18,6.04,5.18,-5.18,-5.35,-6.72,0.86,0.86,0.86
67.33,6.06,5.22,6.05,5.22,-5.22,-5.40,-6.69,0.84,0.83,0.84
68.01,6.06,5.25,6.06,5.25,-5.25,-5.44,-6.65,0.80,0.81,0.81
68.69,6.08,5.29,6.07,5.29,-5.29,-5.47,-6.60,0.79,0.78,0.79
69.37,6.07,5.31,6.07,5.32,-5.32,-5.51,-6.54,0.75,0.76,0.76
70.07,6.08,5.35,6.07,5.34,-5.34,-5.53,-6.47,0.73,0.73,0.73
70.77,6.07,5.36,6.07,5.36,-5.37,-5.56,-6.40,0.70,0.70,0.71
71.48,6.06,5.38,6.06,5.38,-5.39,-5.58,-6.32,0.67,0.67,0.68
72.19,6.05,5.40,6.04,5.40,-5.40,-5.60,-6.23,0.64,0.64,0.65
72.91,6.03,5.42,6.03,5.42,-5.42,-5.61,-6.15,0.61,0.61,0.61
73.64,6.01,5.43,6.01,5.43,-5.43,-5.63,-6.06,0.57,0.57,0.58
74.38,5.98,5.43,5.98,5.44,-5.44,-5.63,-5.97,0.53,0.54,0.55
75.12,5.96,5.46,5.95,5.45,-5.45,-5.64,-5.88,0.51,0.50,0.50
75.87,5.93,5.46,5.92,5.46,-5.46,-5.64,-5.79,0.47,0.47,0.47
76.63,5.89,5.45,5.89,5.46,-5.46,-5.64,-5.70,0.43,0.43,0.44
77.40,5.85,5.45,5.85,5.46,-5.46,-5.64,-5.61,0.39,0.39,0.40
78.17,5.80,5.46,5.80,5.45,-5.45,-5.63,-5.52,0.35,0.35,0.34
78.95,5.76,5.44,5.75,5.44,-5.45,-5.62,-5.43,0.31,0.31,0.32
79.74,5.71,5.43,5.70,5.43,-5.44,-5.61,-5.35,0.27,0.27,0.28
80.54,5.65,5.42,5.65,5.42,-5.43,-5.60,-5.27,0.22,0.23,0.23
81.35,5.60,5.41,5.60,5.41,-5.41,-5.58,-5.19,0.18,0.18,0.19
82.16,5.54,5.40,5.54,5.40,-5.40,-5.56,-5.11,0.14,0.14,0.14
82.98,5.48,5.38,5.47,5.38,-5.38,-5.54,-5.04,0.10,0.09,0.10
83.81,5.41,5.37,5.40,5.36,-5.36,-5.52,-4.97,0.05,0.04,0.04
84.65,5.33,5.33,5.34,5.34,-5.34,-5.49,-4.91,-0.01,-0.00,-0.00
85.50,5.27,5.31,5.26,5.31,-5.32,-5.47,-4.85,-0.05,-0.05,-0.04
86.35,5.20,5.29,5.19,5.29,-5.29,-5.44,-4.79,-0.10,-0.10,-0.09
87.22,5.12,5.26,5.12,5.27,-5.27,-5.41,-4.74,-0.15,-0.15,-0.14
88.09,5.05,5.25,5.04,5.24,-5.24,-5.38,-4.69,-0.19,-0.20,-0.20
88.97,4.97,5.21,4.97,5.21,-5.21,-5.34,-4.64,-0.25,-0.25,-0.24
89.86,4.89,5.18,4.89,5.19,-5.19,-5.31,-4.60,-0.30,-0.30,-0.29
90.76,4.81,5.16,4.81,5.16,-5.16,-5.27,-4.56,-0.35,-0.35,-0.35
91.66,4.73,5.13,4.72,5.13,-5.13,-5.24,-4.53,-0.40,-0.40,-0.40
92.58,4.64,5.10,4.64,5.10,-5.10,-5.20,-4.49,-0.46,-0.46,-0.46
93.51,4.56,5.06,4.56,5.06,-5.07,-5.16,-4.47,-0.51,-0.51,-0.50
94.44,4.48,5.03,4.47,5.03,-5.04,-5.12,-4.44,-0.56,-0.56,-0.55
95.39,4.39,5.00,4.39,5.00,-5.01,-5.08,-4.42,-0.62,-0.62,-0.61
96.34,4.30,4.98,4.30,4.97,-4.98,-5.04,-4.40,-0.68,-0.68,-0.68
97.30,4.21,4.94,4.21,4.95,-4.95,-4.99,-4.39,-0.74,-0.74,-0.73
98.28,4.13,4.92,4.12,4.92,-4.92,-4.95,-4.38,-0.79,-0.80,-0.79
99.26,4.04,4.90,4.04,4.89,-4.89,-4.90,-4.37,-0.86,-0.85,-0.86
100.25,3.95,4.86,3.95,4.86,-4.86,-4.86,-4.36,-0.92,-0.92,-0.91
101.25,3.86,4.83,3.85,4.84,-4.83,-4.81,-4.36,-0.98,-0.98,-0.97
102.27,3.76,4.80,3.76,4.80,-4.80,-4.77,-4.36,-1.04,-1.04,-1.04
103.29,3.67,4.78,3.67,4.77,-4.77,-4.72,-4.36,-1.10,-1.10,-1.11
104.32,3.57,4.73,3.57,4.74,-4.74,-4.68,-4.36,-1.17,-1.17,-1.16
105.37,3.48,4.70,3.47,4.70,-4.70,-4.63,-4.36,-1.23,-1.23,-1.22
106.42,3.37,4.66,3.37,4.67,-4.67,-4.58,-4.37,-1.30,-1.30,-1.29
107.48,3.28,4.64,3.27,4.64,-4.64,-4.53,-4.37,-1.36,-1.36,-1.36
108.56,3.18,4.61,3.18,4.61,-4.60,-4.48,-4.38,-1.43,-1.43,-1.43
109.64,3.08,4.57,3.08,4.57,-4.57,-4.44,-4.38,-1.49,-1.49,-1.49
110.74,2.98,4.53,2.98,4.54,-4.54,-4.39,-4.39,-1.56,-1.56,-1.55
111.85,2.88,4.50,2.88,4.50,-4.51,-4.34,-4.39,-1.63,-1.63,-1.62
112.97,2.78,4.48,2.78,4.47,-4.48,-4.29,-4.39,-1.70,-1.70,-1.70
114.10,2.68,4.44,2.68,4.44,-4.44,-4.24,-4.39,-1.77,-1.77,-1.76
115.24,2.58,4.41,2.58,4.41,-4.41,-4.19,-4.39,-1.83,-1.83,-1.83
116.39,2.48,4.38,2.48,4.38,-4.38,-4.14,-4.39,-1.90,-1.90,-1.90
117.55,2.38,4.35,2.37,4.35,-4.34,-4.09,-4.39,-1.97,-1.97,-1.97
118.73,2.27,4.30,2.27,4.30,-4.30,-4.05,-4.38,-2.04,-2.03,-2.03
119.92,2.17,4.26,2.17,4.27,-4.26,-4.00,-4.37,-2.10,-2.10,-2.09
121.12,2.07,4.22,2.07,4.22,-4.22,-3.95,-4.35,-2.15,-2.16,-2.15
122.33,1.97,4.19,1.96,4.18,-4.18,-3.90,-4.34,-2.21,-2.22,-2.22
123.55,1.86,4.13,1.86,4.14,-4.14,-3.85,-4.31,-2.28,-2.28,-2.27
124.79,1.76,4.09,1.76,4.09,-4.09,-3.80,-4.29,-2.34,-2.34,-2.33
126.03,1.66,4.04,1.65,4.04,-4.05,-3.76,-4.26,-2.40,-2.40,-2.38
127.29,1.56,4.00,1.56,4.01,-4.01,-3.71,-4.23,-2.45,-2.45,-2.44
128.57,1.46,3.97,1.46,3.97,-3.97,-3.66,-4.19,-2.51,-2.51,-2.51
129.85,1.37,3.93,1.36,3.93,-3.92,-3.61,-4.15,-2.56,-2.56,-2.56
131.15,1.27,3.88,1.27,3.88,-3.88,-3.56,-4.11,-2.61,-2.61,-2.61
132.46,1.17,3.84,1.17,3.84,-3.83,-3.52,-4.06,-2.67,-2.67,-2.67
133.79,1.07,3.78,1.07,3.79,-3.79,-3.47,-4.01,-2.72,-2.72,-2.71
135.12,0.97,3.74,0.97,3.73,-3.74,-3.42,-3.96,-2.77,-2.77,-2.77
136.48,0.88,3.68,0.87,3.68,-3.68,-3.38,-3.90,-2.81,-2.81,-2.80
137.84,0.78,3.62,0.78,3.63,-3.63,-3.33,-3.84,-2.85,-2.85,-2.84
139.22,0.69,3.58,0.68,3.57,-3.57,-3.29,-3.78,-2.89,-2.89,-2.89
140.61,0.59,3.52,0.59,3.52,-3.52,-3.24,-3.72,-2.93,-2.93,-2.93
142.02,0.50,3.45,0.50,3.46,-3.46,-3.20,-3.65,-2.96,-2.96,-2.95
143.44,0.41,3.39,0.41,3.40,-3.40,-3.15,-3.59,-2.99,-2.99,-2.98
144.87,0.32,3.34,0.32,3.34,-3.34,-3.11,-3.52,-3.02,-3.02,-3.02
146.32,0.24,3.29,0.23,3.28,-3.28,-3.06,-3.45,-3.04,-3.05,-3.05
147.78,0.14,3.21,0.14,3.22,-3.22,-3.02,-3.39,-3.08,-3.08,-3.07
149.26,0.06,3.16,0.05,3.16,-3.16,-2.97,-3.32,-3.10,-3.11,-3.10
150.75,-0.04,3.10,-0.04,3.10,-3.10,-2.93,-3.25,-3.14,-3.14,-3.14
152.26,-0.12,3.04,-0.13,3.04,-3.04,-2.89,-3.18,-3.16,-3.17,-3.16
153.78,-0.21,2.98,-0.21,2.98,-2.98,-2.85,-3.12,-3.20,-3.19,-3.19
155.32,-0.29,2.92,-0.29,2.92,-2.93,-2.80,-3.05,-3.22,-3.22,-3.21
156.88,-0.37,2.87,-0.38,2.87,-2.87,-2.76,-2.99,-3.24,-3.25,-3.24
158.44,-0.46,2.81,-0.46,2.82,-2.82,-2.72,-2.92,-3.28,-3.27,-3.27
160.03,-0.53,2.77,-0.54,2.77,-2.77,-2.68,-2.86,-3.30,-3.30,-3.30
161.63,-0.61,2.72,-0.62,2.72,-2.72,-2.64,-2.80,-3.33,-3.33,-3.33
163.24,-0.69,2.67,-0.69,2.67,-2.67,-2.60,-2.74,-3.36,-3.36,-3.36
164.88,-0.76,2.62,-0.76,2.62,-2.62,-2.56,-2.68,-3.39,-3.39,-3.38
166.53,-0.83,2.57,-0.83,2.58,-2.58,-2.52,-2.62,-3.41,-3.41,-3.40
168.19,-0.90,2.54,-0.90,2.54,-2.54,-2.48,-2.57,-3.44,-3.44,-3.44
169.87,-0.97,2.50,-0.97,2.50,-2.50,-2.44,-2.51,-3.47,-3.47,-3.47
171.57,-1.04,2.46,-1.04,2.46,-2.46,-2.40,-2.46,-3.50,-3.50,-3.50
173.29,-1.11,2.41,-1.11,2.42,-2.43,-2.36,-2.41,-3.54,-3.54,-3.52
175.02,-1.17,2.39,-1.17,2.39,-2.40,-2.33,-2.36,-3.57,-3.57,-3.56
176.77,-1.23,2.37,-1.23,2.37,-2.37,-2.29,-2.32,-3.60,-3.60,-3.60
178.54,-1.29,2.35,-1.29,2.35,-2.34,-2.25,-2.27,-3.64,-3.64,-3.64
180.32,-1.35,2.32,-1.35,2.32,-2.32,-2.22,-2.23,-3.67,-3.67,-3.67
182.13,-1.41,2.29,-1.41,2.29,-2.30,-2.18,-2.19,-3.71,-3.71,-3.70
183.95,-1.47,2.27,-1.47,2.28,-2.28,-2.14,-2.15,-3.75,-3.75,-3.74
185.79,-1.52,2.26,-1.52,2.26,-2.26,-2.11,-2.11,-3.78,-3.78,-3.78
187.65,-1.57,2.25,-1.58,2.25,-2.24,-2.07,-2.07,-3.81,-3.81,-3.82
189.52,-1.63,2.22,-1.63,2.22,-2.22,-2.04,-2.04,-3.85,-3.84,-3.85
191.42,-1.67,2.20,-1.68,2.20,-2.20,-2.00,-2.00,-3.87,-3.88,-3.87
193.33,-1.72,2.17,-1.73,2.17,-2.18,-1.97,-1.97,-3.90,-3.91,-3.89
195.27,-1.77,2.15,-1.77,2.15,-2.16,-1.93,-1.94,-3.93,-3.93,-3.92
197.22,-1.82,2.13,-1.82,2.14,-2.14,-1.90,-1.91,-3.96,-3.96,-3.95
199.19,-1.86,2.14,-1.86,2.13,-2.12,-1.87,-1.89,-3.99,-3.99,-4.00
201.18,-1.90,2.11,-1.91,2.11,-2.10,-1.84,-1.86,-4.01,-4.01,-4.01
203.19,-1.95,2.08,-1.95,2.09,-2.09,-1.80,-1.84,-4.04,-4.03,-4.03
205.23,-1.99,2.06,-1.99,2.06,-2.07,-1.77,-1.81,-4.06,-4.06,-4.05
207.28,-2.02,2.04,-2.03,2.04,-2.05,-1.74,-1.79,-4.07,-4.08,-4.06
209.35,-2.06,2.03,-2.06,2.03,-2.03,-1.71,-1.77,-4.09,-4.09,-4.09
211.44,-2.10,2.01,-2.10,2.01,-2.01,-1.68,-1.75,-4.11,-4.11,-4.11
213.56,-2.14,1.99,-2.14,1.99,-1.99,-1.64,-1.72,-4.13,-4.13,-4.13
215.69,-2.17,1.96,-2.18,1.96,-1.97,-1.61,-1.70,-4.14,-4.14,-4.13
217.85,-2.21,1.93,-2.21,1.94,-1.95,-1.58,-1.68,-4.16,-4.16,-4.14
220.03,-2.24,1.93,-2.24,1.92,-1.92,-1.55,-1.67,-4.17,-4.16,-4.17
222.23,-2.27,1.91,-2.28,1.90,-1.89,-1.52,-1.65,-4.17,-4.17,-4.18
224.45,-2.31,1.86,-2.31,1.87,-1.87,-1.49,-1.63,-4.18,-4.18,-4.17
226.70,-2.35,1.83,-2.35,1.84,-1.84,-1.46,-1.61,-4.19,-4.18,-4.18
228.96,-2.37,1.81,-2.38,1.80,-1.80,-1.43,-1.59,-4.18,-4.18,-4.18
231.25,-2.41,1.76,-2.41,1.76,-1.77,-1.40,-1.57,-4.18,-4.18,-4.17
233.57,-2.44,1.72,-2.44,1.73,-1.73,-1.38,-1.55,-4.17,-4.17,-4.16
235.90,-2.48,1.68,-2.48,1.69,-1.69,-1.35,-1.53,-4.17,-4.17,-4.16
238.26,-2.50,1.66,-2.51,1.65,-1.65,-1.32,-1.51,-4.15,-4.15,-4.16
240.64,-2.53,1.61,-2.54,1.61,-1.61,-1.29,-1.49,-4.14,-4.14,-4.14
243.05,-2.56,1.56,-2.56,1.56,-1.57,-1.26,-1.46,-4.13,-4.13,-4.12
245.48,-2.59,1.51,-2.59,1.52,-1.52,-1.23,-1.44,-4.12,-4.11,-4.10
247.93,-2.61,1.48,-2.61,1.48,-1.48,-1.21,-1.42,-4.09,-4.09,-4.09
250.41,-2.63,1.45,-2.63,1.44,-1.44,-1.18,-1.39,-4.07,-4.07,-4.08
252.92,-2.65,1.39,-2.66,1.39,-1.39,-1.15,-1.36,-4.05,-4.05,-4.04
255.45,-2.68,1.34,-2.68,1.35,-1.35,-1.12,-1.34,-4.03,-4.03,-4.02
258.00,-2.70,1.30,-2.70,1.30,-1.31,-1.10,-1.31,-4.01,-4.01,-4.00
260.58,-2.71,1.27,-2.72,1.26,-1.26,-1.07,-1.28,-3.98,-3.99,-3.98
263.19,-2.74,1.22,-2.74,1.22,-1.22,-1.04,-1.25,-3.96,-3.96,-3.96
265.82,-2.76,1.18,-2.76,1.18,-1.18,-1.01,-1.22,-3.94,-3.94,-3.94
268.48,-2.78,1.13,-2.78,1.13,-1.13,-0.99,-1.19,-3.92,-3.91,-3.91
271.16,-2.79,1.09,-2.80,1.09,-1.09,-0.96,-1.16,-3.88,-3.89,-3.88
273.87,-2.82,1.04,-2.82,1.04,-1.05,-0.93,-1.12,-3.87,-3.86,-3.86
276.61,-2.83,1.00,-2.84,1.00,-1.00,-0.90,-1.09,-3.84,-3.84,-3.83
279.38,-2.85,0.96,-2.85,0.96,-0.96,-0.88,-1.05,-3.81,-3.82,-3.81
282.17,-2.87,0.92,-2.87,0.92,-0.92,-0.85,-1.02,-3.79,-3.79,-3.79
284.99,-2.88,0.88,-2.89,0.88,-0.88,-0.82,-0.98,-3.77,-3.77,-3.76
287.84,-2.90,0.84,-2.90,0.84,-0.84,-0.79,-0.95,-3.75,-3.74,-3.74
290.72,-2.90,0.80,-2.91,0.80,-0.81,-0.76,-0.91,-3.71,-3.71,-3.70
293.63,-2.91,0.77,-2.91,0.77,-0.77,-0.73,-0.87,-3.68,-3.68,-3.68
296.57,-2.92,0.73,-2.92,0.73,-0.73,-0.70,-0.83,-3.65,-3.65,-3.65
299.53,-2.93,0.69,-2.93,0.69,-0.69,-0.67,-0.80,-3.62,-3.62,-3.62
302.53,-2.94,0.66,-2.94,0.65,-0.65,-0.64,-0.76,-3.59,-3.59,-3.60
305.55,-2.95,0.60,-2.95,0.61,-0.61,-0.61,-0.72,-3.56,-3.56,-3.55
308.61,-2.96,0.56,-2.96,0.56,-0.56,-0.58,-0.68,-3.53,-3.52,-3.52
311.69,-2.96,0.52,-2.97,0.52,-0.52,-0.55,-0.64,-3.49,-3.49,-3.48
314.81,-2.97,0.48,-2.97,0.48,-0.48,-0.51,-0.61,-3.46,-3.46,-3.45
317.96,-2.98,0.44,-2.98,0.44,-0.45,-0.48,-0.57,-3.43,-3.43,-3.42
321.14,-2.98,0.41,-2.99,0.41,-0.41,-0.44,-0.53,-3.40,-3.40,-3.39
324.35,-2.99,0.38,-2.99,0.38,-0.38,-0.41,-0.49,-3.37,-3.37,-3.37
327.59,-2.98,0.35,-2.99,0.35,-0.35,-0.37,-0.45,-3.33,-3.34,-3.33
330.87,-2.98,0.32,-2.98,0.33,-0.33,-0.33,-0.41,-3.31,-3.31,-3.30
334.18,-2.98,0.30,-2.98,0.30,-0.31,-0.29,-0.38,-3.29,-3.29,-3.28
337.52,-2.98,0.28,-2.98,0.28,-0.29,-0.25,-0.34,-3.27,-3.27,-3.26
340.90,-2.98,0.25,-2.98,0.25,-0.27,-0.21,-0.30,-3.25,-3.25,-3.23
344.30,-2.98,0.23,-2.98,0.23,-0.24,-0.17,-0.26,-3.22,-3.22,-3.21
347.75,-2.98,0.20,-2.97,0.22,-0.20,-0.12,-0.22,-3.19,-3.18,-3.18
351.23,-2.97,0.19,-2.98,0.19,-0.16,-0.07,-0.18,-3.13,-3.14,-3.16
354.74,-2.99,0.16,-3.01,0.14,-0.10,-0.02,-0.15,-3.09,-3.11,-3.15
358.28,-3.08,0.05,-3.08,0.06,-0.03,0.03,-0.11,-3.12,-3.11,-3.13
361.87,-3.16,-0.05,-3.16,-0.05,0.04,0.08,-0.07,-3.12,-3.11,-3.11
365.49,-3.24,-0.16,-3.24,-0.15,0.13,0.13,-0.03,-3.11,-3.11,-3.08
369.14,-3.31,-0.24,-3.31,-0.24,0.22,0.19,0.01,-3.09,-3.09,-3.07
372.83,-3.38,-0.32,-3.38,-0.32,0.31,0.25,0.04,-3.07,-3.07,-3.06
376.56,-3.44,-0.40,-3.44,-0.40,0.40,0.31,0.08,-3.04,-3.04,-3.04
380.33,-3.50,-0.49,-3.50,-0.48,0.48,0.37,0.12,-3.02,-3.02,-3.01
384.13,-3.55,-0.56,-3.55,-0.56,0.56,0.43,0.16,-2.99,-3.00,-2.99
387.97,-3.60,-0.63,-3.60,-0.63,0.63,0.49,0.19,-2.98,-2.98,-2.97
391.85,-3.64,-0.69,-3.64,-0.69,0.69,0.55,0.23,-2.96,-2.95,-2.95
395.77,-3.67,-0.75,-3.67,-0.74,0.74,0.61,0.27,-2.93,-2.93,-2.92
399.73,-3.69,-0.79,-3.70,-0.79,0.79,0.67,0.30,-2.90,-2.91,-2.90
403.72,-3.72,-0.83,-3.72,-0.83,0.83,0.73,0.34,-2.89,-2.89,-2.89
407.76,-3.73,-0.86,-3.73,-0.86,0.87,0.78,0.38,-2.87,-2.87,-2.87
411.84,-3.74,-0.90,-3.74,-0.89,0.89,0.82,0.41,-2.85,-2.85,-2.84
415.96,-3.74,-0.92,-3.74,-0.92,0.92,0.87,0.45,-2.83,-2.83,-2.82
420.12,-3.73,-0.93,-3.74,-0.94,0.93,0.90,0.48,-2.80,-2.80,-2.80
424.32,-3.72,-0.95,-3.72,-0.94,0.95,0.93,0.51,-2.78,-2.78,-2.77
428.56,-3.70,-0.95,-3.70,-0.95,0.95,0.95,0.54,-2.75,-2.75,-2.75
432.85,-3.67,-0.94,-3.67,-0.94,0.95,0.96,0.58,-2.73,-2.73,-2.73
437.18,-3.64,-0.94,-3.65,-0.94,0.94,0.96,0.61,-2.71,-2.71,-2.70
441.55,-3.60,-0.93,-3.61,-0.93,0.92,0.95,0.63,-2.69,-2.69,-2.67
445.96,-3.57,-0.92,-3.56,-0.90,0.89,0.94,0.66,-2.68,-2.67,-2.65
450.42,-3.49,-0.85,-3.50,-0.87,0.86,0.92,0.69,-2.63,-2.64,-2.64
454.93,-3.43,-0.83,-3.43,-0.82,0.82,0.89,0.71,-2.61,-2.61,-2.60
459.48,-3.35,-0.77,-3.36,-0.77,0.78,0.86,0.73,-2.57,-2.57,-2.58
464.07,-3.28,-0.73,-3.28,-0.73,0.74,0.82,0.75,-2.54,-2.54,-2.55
468.71,-3.21,-0.70,-3.21,-0.69,0.70,0.78,0.77,-2.52,-2.52,-2.51
