frequency,raw,error,smoothed,error_smoothed,equalization,parametric_eq,fixed_band_eq,equalized_raw,equalized_smoothed,target
20.00,-1.81,-7.84,-1.60,-7.67,7.67,7.77,2.73,5.86,6.07,6.04
20.20,-1.69,-7.77,-1.58,-7.68,7.68,7.74,2.81,5.99,6.10,6.09
20.40,-1.56,-7.70,-1.55,-7.69,7.69,7.70,2.89,6.12,6.14,6.14
20.61,-1.45,-7.61,-1.52,-7.69,7.69,7.67,2.97,6.25,6.17,6.17
20.81,-1.32,-7.54,-1.49,-7.69,7.69,7.63,3.06,6.37,6.20,6.22
21.02,-1.22,-7.47,-1.46,-7.68,7.68,7.59,3.15,6.47,6.23,6.25
21.23,-1.26,-7.53,-1.42,-7.67,7.67,7.56,3.24,6.42,6.25,6.27
21.44,-1.30,-7.59,-1.38,-7.66,7.66,7.52,3.33,6.36,6.28,6.29
21.66,-1.32,-7.64,-1.34,-7.63,7.63,7.48,3.43,6.31,6.30,6.31
21.87,-1.37,-7.69,-1.29,-7.60,7.60,7.44,3.52,6.24,6.31,6.32
22.09,-1.35,-7.70,-1.24,-7.57,7.57,7.40,3.62,6.22,6.33,6.34
22.31,-1.28,-7.64,-1.19,-7.53,7.53,7.36,3.73,6.25,6.34,6.35
22.54,-1.23,-7.58,-1.16,-7.50,7.50,7.32,3.83,6.28,6.35,6.35
22.76,-1.15,-7.50,-1.12,-7.47,7.47,7.28,3.94,6.31,6.35,6.35
22.99,-1.09,-7.42,-1.07,-7.42,7.42,7.24,4.05,6.34,6.35,6.34
23.22,-1.00,-7.33,-1.01,-7.36,7.36,7.20,4.17,6.37,6.35,6.34
23.45,-0.90,-7.24,-0.94,-7.29,7.29,7.15,4.28,6.39,6.35,6.34
23.69,-0.82,-7.16,-0.85,-7.21,7.21,7.11,4.40,6.39,6.35,6.35
23.92,-0.72,-7.07,-0.76,-7.11,7.11,7.07,4.52,6.39,6.35,6.35
24.16,-0.64,-7.00,-0.66,-7.01,7.01,7.03,4.65,6.37,6.35,6.36
24.40,-0.56,-6.93,-0.55,-6.91,6.91,6.98,4.77,6.34,6.35,6.36
24.65,-0.49,-6.84,-0.45,-6.80,6.80,6.94,4.90,6.31,6.35,6.35
24.89,-0.40,-6.76,-0.35,-6.70,6.70,6.89,5.03,6.30,6.35,6.35
25.14,-0.31,-6.67,-0.25,-6.60,6.60,6.85,5.16,6.29,6.35,6.35
25.39,-0.19,-6.55,-0.17,-6.52,6.52,6.80,5.29,6.33,6.35,6.36
25.65,-0.09,-6.45,-0.10,-6.45,6.45,6.76,5.42,6.37,6.36,6.36
25.91,0.02,-6.33,-0.04,-6.39,6.39,6.71,5.55,6.42,6.35,6.35
26.16,0.11,-6.24,0.01,-6.34,6.34,6.67,5.68,6.44,6.35,6.35
26.43,0.16,-6.18,0.07,-6.28,6.28,6.62,5.81,6.45,6.35,6.35
26.69,0.22,-6.12,0.11,-6.23,6.23,6.57,5.93,6.46,6.35,6.34
26.96,0.28,-6.07,0.16,-6.18,6.18,6.53,6.06,6.47,6.35,6.35
27.23,0.25,-6.11,0.21,-6.14,6.14,6.48,6.18,6.38,6.34,6.35
27.50,0.18,-6.17,0.25,-6.09,6.09,6.43,6.30,6.27,6.34,6.35
27.77,0.13,-6.20,0.30,-6.04,6.04,6.38,6.42,6.18,6.34,6.34
28.05,0.11,-6.23,0.33,-6.01,6.01,6.34,6.53,6.12,6.34,6.34
28.33,0.23,-6.10,0.35,-5.99,5.99,6.29,6.63,6.21,6.34,6.33
28.62,0.34,-5.98,0.37,-5.97,5.97,6.24,6.73,6.31,6.33,6.32
28.90,0.47,-5.87,0.39,-5.94,5.94,6.19,6.82,6.41,6.33,6.33
29.19,0.53,-5.79,0.42,-5.91,5.91,6.14,6.90,6.44,6.33,6.32
29.48,0.57,-5.76,0.46,-5.87,5.87,6.09,6.97,6.44,6.33,6.34
29.78,0.61,-5.71,0.50,-5.83,5.83,6.04,7.04,6.44,6.33,6.33
30.08,0.63,-5.70,0.55,-5.78,5.78,5.99,7.09,6.41,6.32,6.33
30.38,0.61,-5.72,0.60,-5.72,5.72,5.94,7.13,6.32,6.32,6.32
30.68,0.56,-5.76,0.66,-5.66,5.66,5.89,7.16,6.23,6.32,6.32
30.99,0.54,-5.78,0.71,-5.61,5.61,5.84,7.18,6.14,6.32,6.32
31.30,0.64,-5.67,0.76,-5.56,5.56,5.79,7.18,6.20,6.32,6.32
31.61,0.76,-5.55,0.80,-5.52,5.52,5.74,7.18,6.28,6.31,6.31
31.93,0.88,-5.43,0.84,-5.47,5.47,5.69,7.16,6.35,6.31,6.31
32.24,0.95,-5.35,0.89,-5.41,5.41,5.64,7.13,6.36,6.30,6.30
32.57,0.98,-5.32,0.95,-5.35,5.35,5.59,7.09,6.34,6.30,6.31
32.89,1.03,-5.28,1.00,-5.29,5.29,5.54,7.04,6.32,6.29,6.30
33.22,1.07,-5.21,1.06,-5.23,5.23,5.49,6.98,6.31,6.29,6.29
33.55,1.14,-5.15,1.12,-5.17,5.17,5.44,6.91,6.30,6.28,6.29
33.89,1.19,-5.08,1.18,-5.10,5.10,5.38,6.83,6.29,6.28,6.27
34.23,1.24,-5.04,1.24,-5.03,5.03,5.33,6.75,6.28,6.27,6.28
34.57,1.29,-4.97,1.29,-4.98,4.98,5.28,6.66,6.27,6.27,6.27
34.92,1.34,-4.92,1.33,-4.93,4.93,5.23,6.56,6.27,6.26,6.26
35.27,1.37,-4.88,1.38,-4.88,4.88,5.18,6.46,6.26,6.26,6.26
35.62,1.39,-4.86,1.43,-4.83,4.83,5.12,6.35,6.22,6.26,6.25
35.97,1.43,-4.83,1.47,-4.78,4.78,5.07,6.24,6.21,6.25,6.25
36.33,1.49,-4.77,1.51,-4.74,4.74,5.02,6.13,6.23,6.25,6.26
36.70,1.55,-4.69,1.54,-4.71,4.71,4.97,6.01,6.27,6.25,6.24
37.06,1.62,-4.61,1.57,-4.67,4.67,4.92,5.90,6.30,6.25,6.24
37.43,1.65,-4.60,1.62,-4.63,4.63,4.86,5.78,6.28,6.25,6.25
37.81,1.67,-4.57,1.66,-4.58,4.58,4.81,5.66,6.26,6.25,6.25
38.19,1.71,-4.53,1.71,-4.54,4.54,4.76,5.55,6.25,6.25,6.24
38.57,1.76,-4.48,1.75,-4.50,4.50,4.71,5.43,6.26,6.25,6.25
38.95,1.80,-4.45,1.78,-4.46,4.46,4.65,5.32,6.27,6.24,6.25
39.34,1.77,-4.47,1.82,-4.42,4.42,4.60,5.21,6.20,6.24,6.25
39.74,1.73,-4.50,1.86,-4.38,4.38,4.55,5.09,6.12,6.24,6.24
40.14,1.77,-4.47,1.90,-4.34,4.34,4.50,4.99,6.11,6.24,6.24
40.54,1.96,-4.27,1.94,-4.30,4.30,4.45,4.88,6.26,6.24,6.24
40.94,2.15,-4.08,1.97,-4.26,4.26,4.39,4.77,6.42,6.23,6.23
41.35,2.10,-4.12,2.00,-4.23,4.23,4.34,4.67,6.33,6.23,6.22
41.76,2.01,-4.20,2.03,-4.19,4.19,4.29,4.57,6.20,6.22,6.22
42.18,2.00,-4.22,2.06,-4.14,4.14,4.24,4.48,6.14,6.21,6.22
42.60,2.07,-4.14,2.09,-4.10,4.10,4.18,4.39,6.17,6.20,6.20
43.03,2.12,-4.07,2.12,-4.06,4.06,4.13,4.30,6.19,6.18,6.19
43.46,2.18,-4.00,2.15,-4.02,4.02,4.08,4.21,6.21,6.17,6.18
43.90,2.24,-3.91,2.17,-3.98,3.98,4.03,4.12,6.23,6.16,6.16
44.33,2.20,-3.93,2.20,-3.94,3.94,3.97,4.04,6.15,6.14,6.14
44.78,2.14,-3.98,2.22,-3.91,3.91,3.92,3.97,6.05,6.13,6.12
45.23,2.15,-3.95,2.24,-3.87,3.87,3.87,3.89,6.03,6.11,6.11
45.68,2.25,-3.83,2.27,-3.83,3.83,3.82,3.82,6.08,6.10,6.09
46.13,2.32,-3.74,2.30,-3.78,3.78,3.77,3.75,6.10,6.08,6.07
46.60,2.32,-3.74,2.32,-3.74,3.74,3.71,3.68,6.07,6.06,6.07
47.06,2.33,-3.71,2.34,-3.70,3.70,3.66,3.62,6.04,6.05,6.04
47.53,2.37,-3.66,2.37,-3.66,3.66,3.61,3.56,6.04,6.03,6.03
48.01,2.42,-3.61,2.40,-3.62,3.62,3.56,3.50,6.04,6.01,6.03
48.49,2.47,-3.53,2.43,-3.57,3.57,3.51,3.45,6.04,6.00,6.01
48.97,2.52,-3.46,2.47,-3.51,3.51,3.46,3.39,6.04,5.98,5.99
49.46,2.52,-3.44,2.51,-3.46,3.46,3.40,3.34,5.98,5.97,5.96
49.96,2.52,-3.41,2.55,-3.41,3.41,3.35,3.29,5.93,5.95,5.94
50.46,2.47,-3.47,2.57,-3.36,3.36,3.30,3.25,5.82,5.93,5.93
50.96,2.40,-3.52,2.60,-3.32,3.32,3.25,3.20,5.72,5.92,5.92
51.47,2.59,-3.30,2.63,-3.28,3.28,3.20,3.16,5.87,5.90,5.89
51.99,2.82,-3.06,2.66,-3.23,3.23,3.15,3.12,6.05,5.89,5.88
52.51,2.78,-3.10,2.68,-3.20,3.20,3.10,3.08,5.97,5.87,5.87
53.03,2.72,-3.14,2.68,-3.17,3.17,3.05,3.04,5.90,5.86,5.86
53.56,2.72,-3.12,2.69,-3.15,3.15,3.00,3.00,5.88,5.84,5.85
54.10,2.72,-3.10,2.69,-3.13,3.13,2.94,2.97,5.86,5.83,5.83
54.64,2.72,-3.08,2.70,-3.12,3.12,2.89,2.93,5.84,5.81,5.81
55.18,2.72,-3.08,2.71,-3.09,3.09,2.84,2.89,5.82,5.80,5.80
55.74,2.72,-3.06,2.73,-3.06,3.06,2.79,2.86,5.78,5.79,5.78
56.29,2.72,-3.04,2.75,-3.02,3.02,2.74,2.82,5.74,5.77,5.77
56.86,2.72,-3.02,2.76,-2.99,2.99,2.69,2.79,5.72,5.75,5.75
57.42,2.66,-3.05,2.75,-2.98,2.98,2.64,2.75,5.64,5.73,5.72
58.00,2.58,-3.12,2.75,-2.95,2.95,2.59,2.71,5.54,5.71,5.70
58.58,2.72,-2.96,2.77,-2.91,2.91,2.54,2.68,5.63,5.68,5.69
59.16,2.82,-2.84,2.80,-2.85,2.85,2.49,2.64,5.68,5.65,5.66
59.76,2.82,-2.81,2.82,-2.80,2.80,2.44,2.60,5.62,5.62,5.64
60.35,2.92,-2.68,2.85,-2.74,2.74,2.39,2.56,5.65,5.58,5.59
60.96,3.05,-2.50,2.87,-2.67,2.67,2.34,2.52,5.73,5.55,5.56
61.57,2.99,-2.52,2.89,-2.61,2.61,2.29,2.47,5.60,5.50,5.51
62.18,2.89,-2.57,2.91,-2.55,2.55,2.24,2.43,5.44,5.46,5.46
62.80,2.82,-2.60,2.93,-2.49,2.49,2.19,2.38,5.30,5.42,5.41
63.43,2.89,-2.48,2.95,-2.42,2.42,2.14,2.33,5.30,5.37,5.36
64.07,3.02,-2.29,2.97,-2.35,2.35,2.09,2.28,5.37,5.32,5.31
64.71,3.02,-2.23,3.00,-2.27,2.27,2.04,2.23,5.30,5.27,5.26
65.35,3.02,-2.19,3.02,-2.20,2.20,1.99,2.17,5.23,5.22,5.22
66.01,3.02,-2.14,3.04,-2.13,2.13,1.94,2.12,5.15,5.16,5.16
66.67,3.02,-2.08,3.06,-2.05,2.05,1.89,2.06,5.07,5.11,5.11
67.33,3.00,-2.05,3.08,-1.98,1.98,1.84,2.00,4.98,5.06,5.05
68.01,2.96,-2.04,3.10,-1.90,1.90,1.79,1.94,4.87,5.00,5.01
68.69,3.11,-1.83,3.13,-1.82,1.82,1.74,1.88,4.93,4.95,4.95
69.37,3.20,-1.68,3.15,-1.74,1.74,1.69,1.81,4.94,4.89,4.89
70.07,3.23,-1.60,3.17,-1.66,1.66,1.64,1.75,4.90,4.83,4.83
70.77,3.28,-1.50,3.17,-1.60,1.60,1.59,1.68,4.88,4.77,4.78
71.48,3.29,-1.42,3.17,-1.54,1.54,1.54,1.62,4.83,4.71,4.72
72.19,3.24,-1.40,3.18,-1.47,1.47,1.49,1.55,4.71,4.65,4.65
72.91,3.13,-1.45,3.18,-1.40,1.40,1.44,1.48,4.54,4.58,4.58
73.64,3.12,-1.39,3.18,-1.34,1.34,1.39,1.41,4.47,4.52,4.52
74.38,3.12,-1.33,3.17,-1.29,1.29,1.34,1.34,4.41,4.46,4.45
75.12,3.12,-1.26,3.16,-1.24,1.24,1.29,1.27,4.36,4.39,4.39
75.87,3.12,-1.20,3.15,-1.18,1.18,1.24,1.20,4.31,4.33,4.32
76.63,3.12,-1.14,3.13,-1.14,1.14,1.19,1.13,4.26,4.27,4.26
77.40,3.12,-1.08,3.13,-1.08,1.08,1.14,1.06,4.21,4.21,4.20
78.17,3.12,-1.01,3.13,-1.02,1.02,1.09,0.99,4.15,4.15,4.13
78.95,3.12,-0.97,3.14,-0.95,0.95,1.04,0.92,4.08,4.09,4.09
79.74,3.12,-0.91,3.14,-0.89,0.89,0.99,0.84,4.01,4.03,4.03
80.54,3.12,-0.85,3.15,-0.82,0.82,0.94,0.77,3.95,3.97,3.98
81.35,3.12,-0.79,3.16,-0.76,0.76,0.89,0.70,3.88,3.92,3.91
82.16,3.14,-0.72,3.17,-0.69,0.69,0.84,0.63,3.84,3.86,3.86
82.98,3.23,-0.58,3.18,-0.63,0.63,0.79,0.56,3.86,3.81,3.81
83.81,3.31,-0.43,3.19,-0.56,0.56,0.73,0.49,3.87,3.75,3.75
84.65,3.26,-0.43,3.20,-0.49,0.49,0.68,0.41,3.76,3.69,3.69
85.50,3.22,-0.42,3.21,-0.43,0.43,0.63,0.34,3.65,3.64,3.64
86.35,3.22,-0.36,3.22,-0.36,0.36,0.58,0.27,3.58,3.58,3.58
87.22,3.19,-0.33,3.24,-0.28,0.28,0.53,0.20,3.47,3.52,3.52
88.09,3.11,-0.35,3.27,-0.19,0.19,0.47,0.13,3.31,3.46,3.46
88.97,3.24,-0.16,3.29,-0.11,0.11,0.42,0.06,3.35,3.40,3.40
89.86,3.32,-0.02,3.31,-0.03,0.03,0.37,-0.02,3.36,3.34,3.34
90.76,3.33,0.06,3.32,0.04,-0.04,0.31,-0.09,3.30,3.28,3.28
91.66,3.33,0.11,3.33,0.11,-0.11,0.26,-0.16,3.22,3.22,3.22
92.58,3.33,0.18,3.34,0.18,-0.18,0.21,-0.23,3.15,3.16,3.15
93.51,3.33,0.24,3.36,0.26,-0.26,0.15,-0.30,3.07,3.10,3.10
94.44,3.43,0.39,3.39,0.34,-0.34,0.10,-0.37,3.09,3.04,3.04
95.39,3.55,0.57,3.41,0.43,-0.43,0.04,-0.45,3.13,2.98,2.99
96.34,3.51,0.59,3.43,0.50,-0.50,-0.01,-0.52,3.01,2.92,2.92
97.30,3.40,0.54,3.44,0.57,-0.57,-0.07,-0.59,2.83,2.87,2.86
98.28,3.34,0.54,3.45,0.64,-0.64,-0.13,-0.66,2.71,2.81,2.81
99.26,3.32,0.57,3.44,0.69,-0.69,-0.18,-0.73,2.63,2.75,2.75
100.25,3.45,0.76,3.44,0.74,-0.74,-0.24,-0.80,2.71,2.69,2.69
101.25,3.46,0.83,3.43,0.79,-0.79,-0.30,-0.87,2.67,2.64,2.64
102.27,3.45,0.88,3.42,0.84,-0.84,-0.35,-0.94,2.61,2.58,2.58
103.29,3.44,0.93,3.42,0.90,-0.90,-0.41,-1.01,2.55,2.52,2.51
104.32,3.42,0.96,3.41,0.95,-0.95,-0.47,-1.08,2.48,2.46,2.46
105.37,3.39,0.99,3.39,0.99,-0.99,-0.53,-1.15,2.41,2.40,2.41
106.42,3.37,1.03,3.37,1.03,-1.03,-0.59,-1.22,2.34,2.34,2.35
107.48,3.34,1.06,3.36,1.08,-1.08,-0.65,-1.28,2.26,2.28,2.28
108.56,3.32,1.11,3.35,1.13,-1.13,-0.71,-1.35,2.19,2.21,2.21
109.64,3.30,1.15,3.33,1.18,-1.18,-0.76,-1.41,2.13,2.15,2.16
110.74,3.28,1.20,3.30,1.21,-1.21,-0.82,-1.47,2.07,2.09,2.09
111.85,3.28,1.24,3.27,1.24,-1.24,-0.89,-1.53,2.04,2.03,2.04
112.97,3.35,1.39,3.25,1.28,-1.28,-0.95,-1.59,2.07,1.97,1.96
114.10,3.28,1.38,3.23,1.32,-1.32,-1.01,-1.64,1.96,1.91,1.91
115.24,3.15,1.30,3.22,1.36,-1.36,-1.07,-1.69,1.79,1.85,1.85
116.39,3.15,1.37,3.20,1.41,-1.41,-1.13,-1.74,1.75,1.80,1.79
117.55,3.15,1.41,3.20,1.45,-1.45,-1.19,-1.79,1.71,1.75,1.74
118.73,3.16,1.48,3.19,1.49,-1.49,-1.25,-1.83,1.67,1.70,1.68
119.92,3.16,1.51,3.19,1.54,-1.54,-1.31,-1.87,1.62,1.65,1.65
121.12,3.17,1.58,3.19,1.59,-1.59,-1.38,-1.91,1.59,1.60,1.60
122.33,3.18,1.63,3.19,1.64,-1.64,-1.44,-1.95,1.55,1.56,1.55
123.55,3.19,1.67,3.19,1.68,-1.68,-1.50,-1.98,1.52,1.52,1.52
124.79,3.19,1.72,3.19,1.72,-1.72,-1.56,-2.01,1.48,1.47,1.48
126.03,3.20,1.77,3.19,1.75,-1.75,-1.62,-2.03,1.45,1.43,1.44
127.29,3.21,1.81,3.19,1.79,-1.79,-1.68,-2.05,1.42,1.39,1.41
128.57,3.21,1.86,3.19,1.83,-1.83,-1.75,-2.07,1.38,1.36,1.36
129.85,3.22,1.91,3.18,1.86,-1.86,-1.81,-2.08,1.37,1.32,1.32
131.15,3.22,1.95,3.17,1.89,-1.89,-1.87,-2.09,1.34,1.28,1.28
132.46,3.18,1.94,3.16,1.92,-1.92,-1.93,-2.10,1.27,1.24,1.24
133.79,3.14,1.94,3.15,1.94,-1.94,-1.99,-2.11,1.20,1.21,1.21
135.12,3.08,1.93,3.14,1.97,-1.97,-2.04,-2.11,1.12,1.17,1.16
136.48,3.05,1.92,3.12,1.98,-1.98,-2.10,-2.11,1.07,1.13,1.13
137.84,3.04,1.95,3.10,2.00,-2.00,-2.16,-2.11,1.05,1.10,1.09
139.22,3.04,2.00,3.07,2.01,-2.01,-2.21,-2.11,1.03,1.06,1.05
140.61,3.04,2.04,3.05,2.02,-2.02,-2.27,-2.11,1.02,1.02,1.01
142.02,3.05,2.07,3.02,2.04,-2.04,-2.32,-2.10,1.02,0.98,0.98
143.44,3.05,2.11,2.99,2.05,-2.05,-2.37,-2.09,1.00,0.94,0.94
144.87,3.05,2.16,2.97,2.08,-2.08,-2.42,-2.09,0.98,0.89,0.89
146.32,2.98,2.14,2.96,2.12,-2.12,-2.47,-2.08,0.87,0.84,0.85
147.78,2.92,2.12,2.95,2.17,-2.17,-2.52,-2.07,0.76,0.78,0.81
149.26,2.87,2.12,2.94,2.22,-2.22,-2.57,-2.06,0.66,0.72,0.75
150.75,2.84,2.17,2.92,2.26,-2.26,-2.61,-2.05,0.58,0.65,0.68
152.26,2.84,2.24,2.90,2.31,-2.31,-2.65,-2.04,0.53,0.58,0.60
153.78,2.84,2.32,2.87,2.36,-2.36,-2.69,-2.03,0.48,0.51,0.53
155.32,2.84,2.40,2.84,2.41,-2.41,-2.73,-2.03,0.44,0.43,0.45
156.88,2.85,2.49,2.81,2.46,-2.46,-2.76,-2.02,0.40,0.36,0.37
158.44,2.85,2.58,2.79,2.51,-2.51,-2.79,-2.01,0.35,0.28,0.27
160.03,2.87,2.69,2.77,2.57,-2.57,-2.82,-2.01,0.31,0.20,0.19
161.63,2.85,2.75,2.75,2.62,-2.62,-2.85,-2.00,0.23,0.13,0.11
163.24,2.67,2.64,2.74,2.67,-2.67,-2.87,-2.00,0.00,0.06,0.04
164.88,2.61,2.63,2.72,2.72,-2.72,-2.89,-2.00,-0.10,0.00,-0.02
166.53,2.63,2.71,2.70,2.75,-2.75,-2.91,-2.00,-0.12,-0.05,-0.07
168.19,2.63,2.75,2.67,2.77,-2.77,-2.93,-2.00,-0.14,-0.10,-0.12
169.87,2.62,2.79,2.64,2.78,-2.78,-2.94,-2.01,-0.16,-0.14,-0.16
171.57,2.61,2.80,2.62,2.79,-2.79,-2.95,-2.01,-0.18,-0.17,-0.19
173.29,2.63,2.84,2.61,2.80,-2.80,-2.96,-2.02,-0.17,-0.20,-0.21
175.02,2.67,2.89,2.59,2.81,-2.81,-2.96,-2.03,-0.14,-0.22,-0.22
176.77,2.62,2.86,2.58,2.81,-2.81,-2.96,-2.04,-0.19,-0.23,-0.24
178.54,2.53,2.78,2.57,2.81,-2.81,-2.96,-2.05,-0.28,-0.24,-0.25
180.32,2.50,2.75,2.56,2.81,-2.81,-2.96,-2.06,-0.31,-0.26,-0.25
182.13,2.51,2.76,2.55,2.82,-2.82,-2.95,-2.08,-0.30,-0.27,-0.24
183.95,2.52,2.79,2.53,2.81,-2.81,-2.94,-2.09,-0.29,-0.28,-0.26
185.79,2.53,2.80,2.52,2.81,-2.81,-2.93,-2.11,-0.28,-0.29,-0.27
187.65,2.54,2.84,2.51,2.81,-2.81,-2.91,-2.13,-0.27,-0.30,-0.29
189.52,2.59,2.90,2.50,2.82,-2.82,-2.90,-2.15,-0.22,-0.32,-0.31
191.42,2.52,2.86,2.49,2.83,-2.83,-2.88,-2.17,-0.31,-0.34,-0.33
193.33,2.39,2.75,2.48,2.84,-2.84,-2.86,-2.20,-0.44,-0.35,-0.35
195.27,2.38,2.76,2.47,2.84,-2.84,-2.83,-2.22,-0.46,-0.38,-0.38
197.22,2.41,2.81,2.46,2.86,-2.86,-2.81,-2.25,-0.44,-0.40,-0.40
199.19,2.43,2.86,2.45,2.87,-2.87,-2.78,-2.28,-0.44,-0.42,-0.43
201.18,2.43,2.88,2.43,2.88,-2.88,-2.75,-2.30,-0.44,-0.45,-0.45
203.19,2.46,2.93,2.41,2.88,-2.88,-2.72,-2.33,-0.41,-0.47,-0.47
205.23,2.49,2.99,2.38,2.88,-2.88,-2.68,-2.36,-0.38,-0.50,-0.50
207.28,2.41,2.92,2.36,2.88,-2.88,-2.65,-2.39,-0.47,-0.52,-0.51
209.35,2.35,2.89,2.35,2.89,-2.89,-2.61,-2.42,-0.53,-0.54,-0.53
211.44,2.31,2.89,2.32,2.88,-2.88,-2.58,-2.45,-0.57,-0.56,-0.57
213.56,2.20,2.78,2.30,2.88,-2.88,-2.54,-2.48,-0.67,-0.58,-0.58
215.69,2.19,2.79,2.27,2.86,-2.86,-2.50,-2.51,-0.67,-0.60,-0.59
217.85,2.27,2.88,2.23,2.84,-2.84,-2.46,-2.54,-0.57,-0.61,-0.61
220.03,2.21,2.84,2.20,2.82,-2.82,-2.42,-2.56,-0.61,-0.62,-0.63
222.23,2.14,2.79,2.16,2.80,-2.80,-2.38,-2.59,-0.65,-0.63,-0.65
224.45,2.12,2.77,2.13,2.77,-2.77,-2.34,-2.61,-0.64,-0.64,-0.64
226.70,2.15,2.80,2.09,2.73,-2.73,-2.30,-2.64,-0.57,-0.64,-0.65
228.96,2.15,2.79,2.06,2.69,-2.69,-2.26,-2.66,-0.54,-0.64,-0.64
231.25,1.97,2.61,2.03,2.66,-2.66,-2.22,-2.67,-0.69,-0.63,-0.63
233.57,1.90,2.53,2.00,2.63,-2.63,-2.17,-2.69,-0.72,-0.62,-0.63
235.90,1.95,2.57,1.98,2.59,-2.59,-2.13,-2.70,-0.64,-0.61,-0.62
238.26,1.96,2.57,1.97,2.57,-2.57,-2.09,-2.71,-0.61,-0.60,-0.61
240.64,2.00,2.59,1.95,2.54,-2.54,-2.05,-2.71,-0.53,-0.58,-0.59
243.05,1.96,2.52,1.93,2.50,-2.50,-2.00,-2.71,-0.53,-0.56,-0.56
245.48,1.83,2.37,1.92,2.46,-2.46,-1.96,-2.71,-0.62,-0.54,-0.54
247.93,1.83,2.34,1.90,2.42,-2.42,-1.92,-2.70,-0.58,-0.52,-0.51
250.41,1.85,2.35,1.88,2.38,-2.38,-1.88,-2.69,-0.52,-0.50,-0.50
252.92,1.88,2.35,1.86,2.34,-2.34,-1.84,-2.67,-0.46,-0.48,-0.47
255.45,1.89,2.34,1.86,2.31,-2.31,-1.80,-2.65,-0.42,-0.46,-0.45
258.00,1.91,2.34,1.85,2.28,-2.28,-1.75,-2.63,-0.37,-0.43,-0.43
260.58,1.94,2.36,1.83,2.24,-2.24,-1.71,-2.60,-0.30,-0.41,-0.41
263.19,1.85,2.24,1.80,2.19,-2.19,-1.67,-2.57,-0.33,-0.39,-0.38
265.82,1.68,2.05,1.77,2.13,-2.13,-1.64,-2.54,-0.45,-0.36,-0.37
268.48,1.67,2.02,1.74,2.08,-2.08,-1.60,-2.50,-0.41,-0.34,-0.35
271.16,1.68,2.00,1.72,2.04,-2.04,-1.56,-2.46,-0.36,-0.32,-0.31
273.87,1.69,2.00,1.70,1.99,-1.99,-1.52,-2.42,-0.30,-0.29,-0.30
276.61,1.72,1.99,1.67,1.94,-1.94,-1.48,-2.37,-0.21,-0.27,-0.27
279.38,1.70,1.95,1.64,1.88,-1.88,-1.44,-2.32,-0.18,-0.24,-0.24
282.17,1.62,1.84,1.61,1.83,-1.83,-1.41,-2.27,-0.21,-0.22,-0.22
284.99,1.53,1.72,1.59,1.78,-1.78,-1.37,-2.22,-0.25,-0.19,-0.19
287.84,1.46,1.64,1.57,1.73,-1.73,-1.34,-2.16,-0.26,-0.16,-0.17
290.72,1.48,1.62,1.54,1.68,-1.68,-1.30,-2.10,-0.19,-0.13,-0.14
293.63,1.54,1.66,1.53,1.64,-1.64,-1.27,-2.05,-0.09,-0.11,-0.11
296.57,1.58,1.66,1.52,1.60,-1.60,-1.23,-1.99,-0.01,-0.08,-0.08
299.53,1.49,1.55,1.50,1.55,-1.55,-1.20,-1.93,-0.06,-0.05,-0.05
302.53,1.46,1.50,1.47,1.50,-1.50,-1.17,-1.87,-0.04,-0.03,-0.04
305.55,1.48,1.47,1.45,1.45,-1.45,-1.13,-1.81,0.04,-0.00,0.01
308.61,1.50,1.48,1.42,1.40,-1.40,-1.10,-1.75,0.11,0.02,0.03
311.69,1.42,1.37,1.40,1.35,-1.35,-1.07,-1.69,0.07,0.05,0.05
314.81,1.31,1.24,1.37,1.31,-1.31,-1.04,-1.62,0.01,0.07,0.08
317.96,1.28,1.19,1.35,1.26,-1.26,-1.01,-1.56,0.02,0.09,0.09
321.14,1.30,1.20,1.31,1.21,-1.21,-0.98,-1.50,0.10,0.10,0.10
324.35,1.32,1.21,1.28,1.16,-1.16,-0.95,-1.44,0.17,0.12,0.12
327.59,1.27,1.14,1.24,1.10,-1.10,-0.92,-1.38,0.17,0.13,0.13
330.87,1.20,1.07,1.20,1.05,-1.05,-0.89,-1.33,0.15,0.15,0.14
334.18,1.10,0.95,1.16,1.00,-1.00,-0.87,-1.27,0.10,0.16,0.16
337.52,1.08,0.92,1.12,0.96,-0.96,-0.84,-1.21,0.13,0.17,0.16
340.90,1.10,0.92,1.08,0.91,-0.91,-0.81,-1.15,0.19,0.17,0.18
344.30,1.06,0.88,1.05,0.87,-0.87,-0.78,-1.10,0.20,0.18,0.19
347.75,1.00,0.82,1.02,0.84,-0.84,-0.76,-1.04,0.17,0.19,0.18
351.23,0.99,0.80,0.99,0.80,-0.80,-0.73,-0.99,0.19,0.19,0.19
354.74,0.97,0.78,0.96,0.76,-0.76,-0.71,-0.93,0.21,0.19,0.19
358.28,0.91,0.72,0.92,0.72,-0.72,-0.68,-0.88,0.19,0.20,0.20
361.87,0.85,0.66,0.88,0.68,-0.68,-0.66,-0.83,0.17,0.20,0.20
365.49,0.81,0.61,0.84,0.65,-0.65,-0.63,-0.77,0.17,0.20,0.20
369.14,0.82,0.63,0.81,0.62,-0.62,-0.61,-0.72,0.21,0.20,0.19
372.83,0.82,0.64,0.79,0.59,-0.59,-0.58,-0.67,0.23,0.19,0.19
376.56,0.76,0.58,0.75,0.56,-0.56,-0.56,-0.62,0.20,0.19,0.19
380.33,0.73,0.54,0.72,0.53,-0.53,-0.54,-0.57,0.20,0.19,0.19
384.13,0.71,0.52,0.69,0.50,-0.50,-0.51,-0.53,0.21,0.18,0.19
387.97,0.61,0.43,0.65,0.47,-0.47,-0.49,-0.48,0.14,0.18,0.18
391.85,0.56,0.40,0.62,0.44,-0.44,-0.47,-0.43,0.12,0.17,0.17
395.77,0.55,0.38,0.58,0.41,-0.41,-0.45,-0.39,0.14,0.17,0.18
399.73,0.55,0.39,0.54,0.38,-0.38,-0.43,-0.34,0.17,0.16,0.17
403.72,0.55,0.39,0.51,0.35,-0.35,-0.40,-0.30,0.20,0.16,0.16
407.76,0.54,0.39,0.47,0.32,-0.32,-0.38,-0.26,0.22,0.15,0.15
411.84,0.50,0.35,0.44,0.29,-0.29,-0.36,-0.21,0.21,0.15,0.15
415.96,0.38,0.23,0.41,0.26,-0.26,-0.34,-0.17,0.12,0.15,0.15
420.12,0.34,0.20,0.39,0.24,-0.24,-0.32,-0.13,0.11,0.15,0.15
424.32,0.34,0.20,0.37,0.21,-0.21,-0.30,-0.09,0.13,0.15,0.15
428.56,0.33,0.18,0.35,0.19,-0.19,-0.28,-0.05,0.15,0.16,0.16
432.85,0.28,0.12,0.34,0.16,-0.16,-0.26,-0.01,0.12,0.18,0.17
437.18,0.29,0.12,0.34,0.14,-0.14,-0.24,0.02,0.16,0.20,0.17
441.55,0.33,0.12,0.34,0.11,-0.11,-0.22,0.06,0.22,0.23,0.21
445.96,0.37,0.13,0.34,0.08,-0.08,-0.20,0.09,0.29,0.26,0.24
450.42,0.35,0.08,0.35,0.06,-0.06,-0.18,0.13,0.30,0.29,0.27
454.93,0.35,0.03,0.37,0.03,-0.03,-0.16,0.16,0.32,0.33,0.32
459.48,0.35,-0.02,0.39,0.01,-0.01,-0.14,0.19,0.34,0.38,0.37
464.07,0.41,-0.00,0.42,-0.00,0.00,-0.12,0.22,0.42,0.42,0.42
468.71,0.46,-0.01,0.45,-0.03,0.03,-0.10,0.25,0.49,0.47,0.48
473.40,0.47,-0.04,0.47,-0.05,0.05,-0.08,0.27,0.53,0.52,0.52
478.13,0.49,-0.08,0.48,-0.08,0.08,-0.06,0.30,0.58,0.57,0.58
482.91,0.52,-0.09,0.50,-0.11,0.11,-0.04,0.32,0.64,0.61,0.62
487.74,0.49,-0.16,0.51,-0.15,0.15,-0.02,0.35,0.64,0.65,0.66
492.62,0.50,-0.20,0.51,-0.18,0.18,-0.00,0.37,0.68,0.69,0.70
497.55,0.53,-0.19,0.52,-0.20,0.20,0.01,0.39,0.74,0.72,0.72
502.52,0.55,-0.20,0.52,-0.22,0.22,0.03,0.40,0.78,0.74,0.75
507.55,0.54,-0.22,0.51,-0.25,0.25,0.05,0.42,0.79,0.76,0.76
512.62,0.50,-0.27,0.49,-0.27,0.27,0.07,0.43,0.78,0.76,0.77
517.75,0.43,-0.35,0.46,-0.30,0.30,0.09,0.45,0.73,0.76,0.78
522.93,0.39,-0.38,0.43,-0.32,0.32,0.11,0.46,0.71,0.75,0.77
528.16,0.38,-0.36,0.39,-0.33,0.33,0.13,0.47,0.72,0.72,0.74
533.44,0.37,-0.34,0.35,-0.34,0.34,0.15,0.48,0.71,0.69,0.71
538.77,0.34,-0.33,0.31,-0.35,0.35,0.17,0.49,0.69,0.66,0.68
