frequency,raw,error,smoothed,error_smoothed,equalization,parametric_eq,fixed_band_eq,equalized_raw,equalized_smoothed,target
20.00,1.34,-5.95,1.30,-5.99,5.99,5.57,2.04,7.34,7.30,7.29
20.20,1.38,-5.90,1.37,-5.92,5.92,5.55,2.10,7.30,7.29,7.28
20.40,1.43,-5.84,1.44,-5.84,5.84,5.54,2.16,7.28,7.28,7.27
20.61,1.47,-5.80,1.50,-5.77,5.77,5.52,2.23,7.24,7.27,7.27
20.81,1.52,-5.73,1.56,-5.70,5.70,5.50,2.30,7.22,7.26,7.25
21.02,1.57,-5.68,1.62,-5.63,5.63,5.48,2.36,7.21,7.25,7.25
21.23,1.64,-5.60,1.67,-5.57,5.57,5.46,2.43,7.21,7.24,7.24
21.44,1.71,-5.54,1.73,-5.51,5.51,5.44,2.51,7.23,7.24,7.25
21.66,1.79,-5.45,1.78,-5.45,5.45,5.41,2.58,7.25,7.23,7.24
21.87,1.86,-5.37,1.83,-5.40,5.40,5.39,2.66,7.26,7.22,7.23
22.09,1.91,-5.31,1.87,-5.35,5.35,5.37,2.74,7.26,7.22,7.22
22.31,1.94,-5.28,1.92,-5.30,5.30,5.35,2.82,7.24,7.21,7.22
22.54,1.98,-5.23,1.96,-5.25,5.25,5.33,2.90,7.23,7.21,7.21
22.76,2.01,-5.19,2.00,-5.21,5.21,5.30,2.98,7.22,7.21,7.20
22.99,2.04,-5.15,2.04,-5.17,5.17,5.28,3.07,7.21,7.20,7.19
23.22,2.06,-5.12,2.07,-5.13,5.13,5.26,3.16,7.19,7.20,7.18
23.45,2.09,-5.10,2.10,-5.09,5.09,5.23,3.25,7.19,7.19,7.19
23.69,2.11,-5.07,2.13,-5.06,5.06,5.21,3.34,7.17,7.19,7.18
23.92,2.13,-5.05,2.16,-5.03,5.03,5.18,3.44,7.16,7.19,7.18
24.16,2.17,-5.02,2.19,-5.00,5.00,5.16,3.53,7.17,7.19,7.19
24.40,2.21,-4.99,2.23,-4.96,4.96,5.13,3.63,7.18,7.19,7.20
24.65,2.24,-4.96,2.26,-4.93,4.93,5.10,3.73,7.17,7.19,7.20
24.89,2.28,-4.92,2.30,-4.89,4.89,5.08,3.83,7.18,7.19,7.20
25.14,2.33,-4.86,2.34,-4.85,4.85,5.05,3.93,7.19,7.20,7.19
25.39,2.38,-4.81,2.38,-4.82,4.82,5.02,4.03,7.20,7.20,7.19
25.65,2.43,-4.76,2.42,-4.78,4.78,5.00,4.13,7.21,7.20,7.19
25.91,2.48,-4.72,2.46,-4.74,4.74,4.97,4.23,7.22,7.20,7.20
26.16,2.52,-4.69,2.50,-4.70,4.70,4.94,4.33,7.23,7.20,7.21
26.43,2.55,-4.66,2.54,-4.67,4.67,4.91,4.43,7.22,7.21,7.21
26.69,2.58,-4.63,2.57,-4.63,4.63,4.88,4.53,7.22,7.21,7.21
26.96,2.61,-4.59,2.60,-4.60,4.60,4.85,4.63,7.21,7.21,7.20
27.23,2.64,-4.56,2.64,-4.57,4.57,4.82,4.72,7.21,7.20,7.20
27.50,2.66,-4.54,2.67,-4.54,4.54,4.79,4.82,7.20,7.21,7.20
27.77,2.68,-4.53,2.69,-4.51,4.51,4.76,4.90,7.20,7.21,7.21
28.05,2.71,-4.50,2.72,-4.49,4.49,4.73,4.99,7.20,7.21,7.21
28.33,2.73,-4.46,2.75,-4.46,4.46,4.70,5.07,7.19,7.21,7.19
28.62,2.76,-4.43,2.77,-4.43,4.43,4.67,5.14,7.19,7.20,7.19
28.90,2.79,-4.41,2.80,-4.40,4.40,4.64,5.21,7.19,7.20,7.20
29.19,2.82,-4.38,2.83,-4.37,4.37,4.60,5.27,7.19,7.20,7.20
29.48,2.85,-4.34,2.86,-4.34,4.34,4.57,5.33,7.19,7.20,7.19
29.78,2.89,-4.30,2.89,-4.30,4.30,4.54,5.37,7.20,7.19,7.19
30.08,2.92,-4.28,2.92,-4.27,4.27,4.51,5.41,7.19,7.19,7.20
30.38,2.95,-4.24,2.95,-4.23,4.23,4.47,5.44,7.18,7.18,7.19
30.68,2.98,-4.19,2.99,-4.19,4.19,4.44,5.46,7.17,7.18,7.17
30.99,3.01,-4.16,3.02,-4.15,4.15,4.40,5.48,7.16,7.17,7.17
31.30,3.04,-4.12,3.05,-4.12,4.12,4.37,5.48,7.16,7.16,7.16
31.61,3.07,-4.08,3.08,-4.08,4.08,4.33,5.48,7.15,7.16,7.15
31.93,3.10,-4.04,3.10,-4.05,4.05,4.30,5.46,7.15,7.15,7.14
32.24,3.13,-4.01,3.13,-4.01,4.01,4.26,5.44,7.15,7.14,7.14
32.57,3.17,-3.95,3.16,-3.98,3.98,4.23,5.41,7.15,7.14,7.12
32.89,3.20,-3.92,3.18,-3.95,3.95,4.19,5.37,7.16,7.13,7.12
33.22,3.21,-3.91,3.20,-3.93,3.93,4.16,5.32,7.14,7.12,7.12
33.55,3.21,-3.90,3.22,-3.90,3.90,4.12,5.27,7.12,7.12,7.11
33.89,3.21,-3.91,3.24,-3.88,3.88,4.08,5.21,7.09,7.11,7.12
34.23,3.23,-3.87,3.26,-3.85,3.85,4.04,5.14,7.09,7.11,7.10
34.57,3.27,-3.83,3.28,-3.83,3.83,4.01,5.07,7.10,7.10,7.10
34.92,3.30,-3.79,3.29,-3.80,3.80,3.97,4.99,7.11,7.10,7.09
35.27,3.31,-3.79,3.31,-3.78,3.78,3.93,4.91,7.10,7.09,7.10
35.62,3.31,-3.77,3.32,-3.76,3.76,3.89,4.83,7.07,7.08,7.08
35.97,3.31,-3.77,3.33,-3.74,3.74,3.85,4.74,7.05,7.07,7.08
36.33,3.34,-3.72,3.35,-3.71,3.71,3.82,4.65,7.06,7.06,7.06
36.70,3.38,-3.67,3.36,-3.68,3.68,3.78,4.56,7.07,7.04,7.05
37.06,3.41,-3.62,3.37,-3.65,3.65,3.74,4.46,7.07,7.03,7.03
37.43,3.41,-3.60,3.39,-3.62,3.62,3.70,4.37,7.03,7.01,7.01
37.81,3.41,-3.58,3.41,-3.58,3.58,3.66,4.27,6.99,6.99,6.99
38.19,3.41,-3.55,3.43,-3.54,3.54,3.62,4.18,6.95,6.96,6.96
38.57,3.41,-3.53,3.44,-3.50,3.50,3.58,4.08,6.91,6.94,6.94
38.95,3.41,-3.50,3.46,-3.45,3.45,3.54,3.99,6.86,6.91,6.91
39.34,3.44,-3.43,3.48,-3.40,3.40,3.50,3.89,6.85,6.88,6.87
39.74,3.48,-3.37,3.50,-3.36,3.36,3.46,3.80,6.84,6.86,6.85
40.14,3.52,-3.30,3.52,-3.31,3.31,3.41,3.71,6.83,6.83,6.82
40.54,3.55,-3.25,3.54,-3.27,3.27,3.37,3.62,6.82,6.80,6.80
40.94,3.58,-3.19,3.55,-3.22,3.22,3.33,3.53,6.81,6.78,6.77
41.35,3.59,-3.16,3.57,-3.18,3.18,3.29,3.45,6.78,6.75,6.75
41.76,3.60,-3.11,3.58,-3.14,3.14,3.25,3.36,6.74,6.72,6.71
42.18,3.61,-3.08,3.60,-3.10,3.10,3.21,3.28,6.71,6.70,6.69
42.60,3.61,-3.06,3.61,-3.06,3.06,3.16,3.20,6.67,6.67,6.67
43.03,3.61,-3.03,3.62,-3.03,3.03,3.12,3.12,6.64,6.64,6.64
43.46,3.61,-3.00,3.62,-2.99,2.99,3.08,3.05,6.61,6.62,6.61
43.90,3.61,-2.98,3.62,-2.97,2.97,3.04,2.98,6.58,6.59,6.59
44.33,3.61,-2.94,3.62,-2.94,2.94,2.99,2.90,6.55,6.56,6.55
44.78,3.61,-2.91,3.62,-2.91,2.91,2.95,2.84,6.52,6.53,6.52
45.23,3.61,-2.90,3.62,-2.88,2.88,2.91,2.77,6.49,6.50,6.51
45.68,3.61,-2.85,3.61,-2.85,2.85,2.86,2.71,6.47,6.46,6.46
46.13,3.61,-2.81,3.61,-2.82,2.82,2.82,2.64,6.43,6.42,6.42
46.60,3.61,-2.78,3.61,-2.78,2.78,2.78,2.58,6.39,6.39,6.39
47.06,3.61,-2.74,3.61,-2.74,2.74,2.73,2.53,6.35,6.35,6.35
47.53,3.61,-2.71,3.61,-2.69,2.69,2.69,2.47,6.30,6.30,6.32
48.01,3.61,-2.65,3.62,-2.64,2.64,2.64,2.42,6.26,6.26,6.26
48.49,3.61,-2.60,3.63,-2.59,2.59,2.60,2.37,6.20,6.22,6.21
48.97,3.61,-2.56,3.64,-2.54,2.54,2.55,2.32,6.15,6.17,6.17
49.46,3.61,-2.52,3.64,-2.48,2.48,2.51,2.27,6.10,6.13,6.13
49.96,3.61,-2.45,3.65,-2.43,2.43,2.47,2.22,6.04,6.08,6.06
50.46,3.66,-2.36,3.66,-2.37,2.37,2.42,2.18,6.03,6.04,6.02
50.96,3.71,-2.27,3.67,-2.32,2.32,2.38,2.13,6.03,5.99,5.98
51.47,3.71,-2.23,3.68,-2.26,2.26,2.33,2.09,5.97,5.94,5.94
51.99,3.71,-2.18,3.69,-2.20,2.20,2.29,2.05,5.92,5.90,5.89
52.51,3.71,-2.14,3.70,-2.15,2.15,2.24,2.01,5.86,5.85,5.85
53.03,3.71,-2.11,3.71,-2.09,2.09,2.19,1.97,5.81,5.80,5.82
53.56,3.71,-2.05,3.71,-2.04,2.04,2.15,1.94,5.76,5.76,5.76
54.10,3.71,-2.00,3.72,-1.99,1.99,2.10,1.90,5.71,5.71,5.71
54.64,3.71,-1.96,3.72,-1.95,1.95,2.06,1.86,5.66,5.67,5.67
55.18,3.71,-1.90,3.72,-1.90,1.90,2.01,1.83,5.62,5.63,5.61
55.74,3.71,-1.85,3.72,-1.87,1.87,1.97,1.79,5.58,5.59,5.56
56.29,3.71,-1.82,3.72,-1.83,1.83,1.92,1.76,5.54,5.54,5.53
56.86,3.71,-1.78,3.71,-1.78,1.78,1.87,1.72,5.50,5.50,5.49
57.42,3.71,-1.72,3.72,-1.74,1.74,1.83,1.69,5.45,5.45,5.43
58.00,3.71,-1.69,3.72,-1.69,1.69,1.78,1.65,5.40,5.41,5.40
58.58,3.71,-1.66,3.72,-1.64,1.64,1.74,1.62,5.35,5.36,5.37
59.16,3.71,-1.62,3.72,-1.59,1.59,1.69,1.58,5.30,5.31,5.33
59.76,3.71,-1.58,3.72,-1.54,1.54,1.64,1.55,5.25,5.26,5.29
60.35,3.71,-1.51,3.71,-1.49,1.49,1.60,1.51,5.21,5.21,5.22
60.96,3.71,-1.46,3.71,-1.45,1.45,1.55,1.47,5.16,5.16,5.17
61.57,3.71,-1.39,3.70,-1.40,1.40,1.50,1.43,5.11,5.10,5.10
62.18,3.71,-1.32,3.70,-1.35,1.35,1.46,1.40,5.06,5.05,5.03
62.80,3.71,-1.26,3.69,-1.30,1.30,1.41,1.36,5.01,4.99,4.97
63.43,3.70,-1.21,3.68,-1.25,1.25,1.36,1.32,4.95,4.93,4.91
64.07,3.68,-1.18,3.67,-1.20,1.20,1.31,1.27,4.88,4.87,4.86
64.71,3.63,-1.17,3.66,-1.15,1.15,1.27,1.23,4.78,4.81,4.80
65.35,3.61,-1.13,3.65,-1.10,1.10,1.22,1.19,4.71,4.75,4.74
66.01,3.61,-1.07,3.64,-1.05,1.05,1.17,1.14,4.66,4.69,4.68
66.67,3.61,-1.03,3.62,-1.00,1.00,1.13,1.10,4.62,4.63,4.64
67.33,3.61,-0.95,3.61,-0.96,0.96,1.08,1.05,4.57,4.57,4.56
68.01,3.61,-0.90,3.59,-0.91,0.91,1.03,1.01,4.52,4.50,4.51
68.69,3.61,-0.83,3.58,-0.86,0.86,0.98,0.96,4.48,4.44,4.44
69.37,3.59,-0.80,3.57,-0.81,0.81,0.94,0.91,4.41,4.38,4.39
70.07,3.57,-0.75,3.56,-0.76,0.76,0.89,0.86,4.34,4.32,4.32
70.77,3.52,-0.74,3.55,-0.71,0.71,0.84,0.81,4.23,4.25,4.26
71.48,3.51,-0.68,3.54,-0.65,0.65,0.79,0.76,4.16,4.19,4.19
72.19,3.51,-0.61,3.53,-0.59,0.59,0.75,0.71,4.11,4.13,4.12
72.91,3.51,-0.55,3.53,-0.54,0.54,0.70,0.66,4.05,4.06,4.06
73.64,3.51,-0.48,3.52,-0.48,0.48,0.65,0.60,3.99,4.00,3.99
74.38,3.51,-0.42,3.52,-0.42,0.42,0.60,0.55,3.93,3.94,3.93
75.12,3.51,-0.35,3.52,-0.36,0.36,0.55,0.50,3.87,3.88,3.86
75.87,3.51,-0.31,3.52,-0.30,0.30,0.51,0.44,3.81,3.82,3.82
76.63,3.51,-0.24,3.52,-0.24,0.24,0.46,0.39,3.76,3.76,3.75
77.40,3.51,-0.19,3.52,-0.19,0.19,0.41,0.34,3.70,3.71,3.70
78.17,3.51,-0.13,3.51,-0.14,0.14,0.36,0.28,3.65,3.65,3.64
78.95,3.51,-0.09,3.50,-0.09,0.09,0.31,0.23,3.61,3.59,3.60
79.74,3.51,-0.03,3.49,-0.05,0.05,0.27,0.17,3.57,3.54,3.54
80.54,3.51,0.03,3.47,-0.01,0.01,0.22,0.12,3.53,3.48,3.48
81.35,3.51,0.08,3.45,0.02,-0.02,0.17,0.06,3.49,3.43,3.43
82.16,3.49,0.11,3.43,0.06,-0.06,0.12,0.01,3.43,3.37,3.38
82.98,3.41,0.09,3.41,0.10,-0.10,0.07,-0.05,3.32,3.32,3.32
83.81,3.33,0.07,3.40,0.14,-0.14,0.02,-0.11,3.20,3.26,3.26
84.65,3.31,0.11,3.38,0.18,-0.18,-0.02,-0.16,3.13,3.20,3.20
85.50,3.31,0.18,3.37,0.22,-0.22,-0.07,-0.22,3.09,3.14,3.13
86.35,3.31,0.24,3.35,0.27,-0.27,-0.12,-0.28,3.04,3.08,3.07
87.22,3.31,0.29,3.34,0.32,-0.32,-0.17,-0.34,2.99,3.02,3.02
88.09,3.31,0.36,3.33,0.37,-0.37,-0.22,-0.39,2.95,2.96,2.95
88.97,3.31,0.41,3.31,0.42,-0.42,-0.27,-0.45,2.90,2.90,2.90
89.86,3.31,0.49,3.30,0.47,-0.47,-0.32,-0.51,2.85,2.83,2.82
90.76,3.31,0.55,3.28,0.52,-0.52,-0.36,-0.57,2.79,2.76,2.76
91.66,3.31,0.62,3.27,0.58,-0.58,-0.41,-0.63,2.74,2.70,2.69
92.58,3.32,0.69,3.26,0.64,-0.64,-0.46,-0.69,2.69,2.63,2.63
93.51,3.28,0.72,3.25,0.70,-0.70,-0.51,-0.75,2.59,2.55,2.56
94.44,3.23,0.74,3.23,0.75,-0.75,-0.56,-0.81,2.48,2.48,2.49
95.39,3.20,0.79,3.21,0.81,-0.81,-0.61,-0.87,2.40,2.40,2.41
96.34,3.16,0.83,3.19,0.86,-0.86,-0.66,-0.93,2.31,2.33,2.33
97.30,3.10,0.85,3.16,0.91,-0.91,-0.70,-0.99,2.19,2.25,2.25
98.28,3.09,0.93,3.13,0.96,-0.96,-0.75,-1.05,2.13,2.17,2.16
99.26,3.08,1.01,3.10,1.01,-1.01,-0.80,-1.12,2.07,2.09,2.07
100.25,3.06,1.07,3.07,1.06,-1.06,-0.85,-1.18,2.00,2.00,1.99
101.25,3.04,1.12,3.03,1.11,-1.11,-0.90,-1.24,1.93,1.92,1.92
102.27,3.02,1.19,3.00,1.16,-1.16,-0.95,-1.30,1.86,1.84,1.83
103.29,3.00,1.25,2.97,1.21,-1.21,-1.00,-1.36,1.79,1.76,1.75
104.32,2.95,1.27,2.93,1.26,-1.26,-1.05,-1.42,1.70,1.67,1.68
105.37,2.88,1.28,2.90,1.30,-1.30,-1.09,-1.48,1.58,1.59,1.60
106.42,2.85,1.34,2.86,1.35,-1.35,-1.14,-1.54,1.51,1.51,1.51
107.48,2.83,1.41,2.82,1.39,-1.39,-1.19,-1.60,1.45,1.43,1.42
108.56,2.80,1.44,2.78,1.43,-1.43,-1.24,-1.66,1.38,1.35,1.36
109.64,2.75,1.48,2.75,1.47,-1.47,-1.29,-1.72,1.28,1.28,1.27
110.74,2.68,1.49,2.71,1.51,-1.51,-1.34,-1.78,1.17,1.20,1.19
111.85,2.64,1.52,2.68,1.56,-1.56,-1.38,-1.83,1.09,1.12,1.12
112.97,2.63,1.58,2.65,1.60,-1.60,-1.43,-1.88,1.04,1.05,1.05
114.10,2.61,1.63,2.61,1.64,-1.64,-1.48,-1.94,0.98,0.97,0.98
115.24,2.53,1.63,2.58,1.68,-1.68,-1.53,-1.98,0.86,0.90,0.90
116.39,2.53,1.71,2.55,1.72,-1.72,-1.58,-2.03,0.81,0.83,0.82
117.55,2.53,1.77,2.53,1.76,-1.76,-1.63,-2.08,0.77,0.77,0.76
118.73,2.54,1.86,2.50,1.80,-1.80,-1.67,-2.12,0.74,0.70,0.68
119.92,2.54,1.92,2.48,1.85,-1.85,-1.72,-2.16,0.70,0.63,0.62
121.12,2.51,1.94,2.47,1.90,-1.90,-1.77,-2.20,0.61,0.57,0.57
122.33,2.45,1.95,2.46,1.96,-1.96,-1.82,-2.24,0.50,0.50,0.50
123.55,2.39,1.94,2.45,2.01,-2.01,-1.86,-2.27,0.38,0.44,0.45
124.79,2.37,1.98,2.44,2.06,-2.06,-1.91,-2.30,0.31,0.38,0.39
126.03,2.38,2.06,2.42,2.11,-2.11,-1.96,-2.33,0.28,0.32,0.32
127.29,2.39,2.13,2.41,2.15,-2.15,-2.00,-2.35,0.24,0.26,0.26
128.57,2.39,2.19,2.39,2.19,-2.19,-2.05,-2.38,0.20,0.20,0.20
129.85,2.40,2.27,2.37,2.23,-2.23,-2.10,-2.40,0.17,0.14,0.13
131.15,2.40,2.33,2.35,2.27,-2.27,-2.14,-2.42,0.13,0.08,0.07
132.46,2.41,2.40,2.34,2.32,-2.32,-2.19,-2.43,0.10,0.02,0.01
133.79,2.40,2.45,2.33,2.37,-2.37,-2.24,-2.44,0.03,-0.04,-0.05
135.12,2.29,2.40,2.32,2.42,-2.42,-2.28,-2.46,-0.13,-0.10,-0.11
136.48,2.24,2.39,2.31,2.47,-2.47,-2.33,-2.47,-0.23,-0.16,-0.15
137.84,2.22,2.43,2.30,2.51,-2.51,-2.37,-2.48,-0.29,-0.22,-0.21
139.22,2.22,2.51,2.27,2.55,-2.55,-2.42,-2.48,-0.33,-0.28,-0.29
140.61,2.22,2.55,2.25,2.58,-2.58,-2.46,-2.49,-0.36,-0.33,-0.33
142.02,2.23,2.62,2.22,2.61,-2.61,-2.51,-2.50,-0.38,-0.39,-0.39
143.44,2.23,2.69,2.20,2.64,-2.64,-2.55,-2.50,-0.41,-0.45,-0.46
144.87,2.23,2.74,2.18,2.68,-2.68,-2.59,-2.51,-0.44,-0.50,-0.51
146.32,2.23,2.79,2.16,2.71,-2.71,-2.64,-2.51,-0.48,-0.56,-0.56
147.78,2.17,2.79,2.14,2.75,-2.75,-2.68,-2.52,-0.58,-0.61,-0.62
149.26,2.07,2.74,2.12,2.79,-2.79,-2.72,-2.52,-0.71,-0.67,-0.67
150.75,2.02,2.76,2.10,2.83,-2.83,-2.76,-2.53,-0.80,-0.73,-0.74
152.26,2.02,2.80,2.08,2.86,-2.86,-2.80,-2.54,-0.84,-0.78,-0.78
153.78,2.02,2.86,2.05,2.89,-2.89,-2.84,-2.55,-0.86,-0.84,-0.84
155.32,2.02,2.91,2.02,2.92,-2.92,-2.89,-2.56,-0.89,-0.90,-0.89
156.88,2.03,2.98,1.99,2.95,-2.95,-2.93,-2.57,-0.91,-0.95,-0.95
158.44,2.02,3.03,1.96,2.97,-2.97,-2.96,-2.58,-0.95,-1.01,-1.01
160.03,1.96,3.03,1.93,3.01,-3.01,-3.00,-2.59,-1.04,-1.07,-1.07
161.63,1.90,3.03,1.91,3.04,-3.04,-3.04,-2.61,-1.14,-1.13,-1.13
163.24,1.85,3.05,1.88,3.07,-3.07,-3.08,-2.62,-1.22,-1.19,-1.20
164.88,1.82,3.07,1.86,3.11,-3.11,-3.12,-2.64,-1.28,-1.25,-1.25
166.53,1.81,3.13,1.83,3.14,-3.14,-3.15,-2.66,-1.33,-1.31,-1.32
168.19,1.81,3.18,1.80,3.17,-3.17,-3.19,-2.69,-1.36,-1.37,-1.37
169.87,1.80,3.23,1.77,3.20,-3.20,-3.23,-2.71,-1.40,-1.43,-1.43
171.57,1.75,3.25,1.74,3.23,-3.23,-3.26,-2.74,-1.48,-1.49,-1.50
173.29,1.70,3.26,1.71,3.26,-3.26,-3.29,-2.77,-1.56,-1.55,-1.56
175.02,1.68,3.29,1.69,3.30,-3.30,-3.33,-2.80,-1.61,-1.61,-1.61
176.77,1.68,3.34,1.67,3.33,-3.33,-3.36,-2.83,-1.65,-1.66,-1.66
178.54,1.61,3.33,1.65,3.37,-3.37,-3.39,-2.87,-1.75,-1.71,-1.72
180.32,1.58,3.36,1.63,3.40,-3.40,-3.42,-2.91,-1.82,-1.77,-1.78
182.13,1.59,3.41,1.62,3.43,-3.43,-3.45,-2.95,-1.84,-1.82,-1.82
183.95,1.60,3.47,1.60,3.47,-3.47,-3.48,-2.99,-1.86,-1.87,-1.87
185.79,1.61,3.53,1.59,3.50,-3.50,-3.51,-3.03,-1.89,-1.91,-1.92
187.65,1.62,3.58,1.57,3.53,-3.53,-3.54,-3.08,-1.91,-1.96,-1.96
189.52,1.56,3.57,1.56,3.57,-3.57,-3.57,-3.13,-2.00,-2.01,-2.01
191.42,1.55,3.59,1.55,3.60,-3.60,-3.59,-3.18,-2.05,-2.05,-2.04
193.33,1.52,3.61,1.54,3.63,-3.63,-3.62,-3.23,-2.11,-2.09,-2.09
195.27,1.49,3.63,1.52,3.66,-3.66,-3.64,-3.29,-2.17,-2.14,-2.14
197.22,1.49,3.68,1.51,3.68,-3.68,-3.67,-3.34,-2.19,-2.18,-2.19
199.19,1.50,3.72,1.49,3.71,-3.71,-3.69,-3.40,-2.20,-2.22,-2.22
201.18,1.51,3.78,1.47,3.73,-3.73,-3.71,-3.46,-2.22,-2.26,-2.27
203.19,1.46,3.76,1.45,3.75,-3.75,-3.73,-3.52,-2.29,-2.30,-2.30
205.23,1.42,3.76,1.43,3.77,-3.77,-3.75,-3.58,-2.35,-2.34,-2.34
207.28,1.42,3.79,1.41,3.79,-3.79,-3.77,-3.64,-2.37,-2.38,-2.37
209.35,1.41,3.82,1.39,3.81,-3.81,-3.79,-3.70,-2.40,-2.42,-2.41
211.44,1.33,3.79,1.37,3.83,-3.83,-3.81,-3.76,-2.49,-2.46,-2.46
213.56,1.31,3.80,1.35,3.84,-3.84,-3.82,-3.82,-2.53,-2.49,-2.49
215.69,1.31,3.84,1.32,3.85,-3.85,-3.84,-3.88,-2.53,-2.53,-2.53
217.85,1.30,3.86,1.29,3.85,-3.85,-3.85,-3.94,-2.55,-2.56,-2.56
220.03,1.30,3.91,1.27,3.86,-3.86,-3.86,-4.00,-2.56,-2.59,-2.61
222.23,1.30,3.93,1.24,3.87,-3.87,-3.88,-4.05,-2.56,-2.62,-2.63
224.45,1.22,3.88,1.23,3.88,-3.88,-3.89,-4.10,-2.66,-2.65,-2.66
226.70,1.20,3.89,1.21,3.89,-3.89,-3.90,-4.15,-2.69,-2.68,-2.69
228.96,1.15,3.86,1.20,3.90,-3.90,-3.90,-4.20,-2.74,-2.70,-2.71
231.25,1.12,3.84,1.18,3.90,-3.90,-3.91,-4.24,-2.78,-2.72,-2.72
233.57,1.12,3.87,1.16,3.90,-3.90,-3.92,-4.28,-2.78,-2.74,-2.75
235.90,1.13,3.89,1.15,3.90,-3.90,-3.92,-4.32,-2.77,-2.75,-2.76
238.26,1.14,3.92,1.14,3.90,-3.90,-3.93,-4.35,-2.76,-2.76,-2.78
240.64,1.16,3.93,1.13,3.90,-3.90,-3.93,-4.38,-2.74,-2.77,-2.77
243.05,1.17,3.95,1.12,3.91,-3.91,-3.93,-4.40,-2.73,-2.78,-2.78
245.48,1.14,3.94,1.12,3.91,-3.91,-3.94,-4.41,-2.77,-2.79,-2.80
247.93,1.11,3.92,1.11,3.91,-3.91,-3.94,-4.42,-2.80,-2.80,-2.81
250.41,1.05,3.85,1.11,3.91,-3.91,-3.94,-4.42,-2.86,-2.81,-2.80
252.92,1.06,3.86,1.10,3.91,-3.91,-3.93,-4.42,-2.85,-2.81,-2.80
255.45,1.07,3.89,1.08,3.90,-3.90,-3.93,-4.41,-2.83,-2.82,-2.82
258.00,1.08,3.91,1.06,3.90,-3.90,-3.93,-4.40,-2.81,-2.83,-2.83
260.58,1.08,3.92,1.04,3.89,-3.89,-3.92,-4.38,-2.80,-2.84,-2.84
263.19,1.08,3.93,1.03,3.88,-3.88,-3.92,-4.36,-2.80,-2.85,-2.85
265.82,1.05,3.92,1.01,3.87,-3.87,-3.91,-4.33,-2.82,-2.87,-2.87
268.48,0.99,3.86,0.98,3.86,-3.86,-3.90,-4.30,-2.87,-2.88,-2.87
271.16,0.90,3.79,0.96,3.85,-3.85,-3.89,-4.26,-2.94,-2.89,-2.89
273.87,0.87,3.77,0.93,3.83,-3.83,-3.88,-4.22,-2.96,-2.90,-2.90
276.61,0.87,3.79,0.91,3.82,-3.82,-3.87,-4.17,-2.95,-2.91,-2.92
279.38,0.87,3.82,0.88,3.81,-3.81,-3.86,-4.13,-2.93,-2.93,-2.95
282.17,0.87,3.82,0.86,3.79,-3.79,-3.85,-4.08,-2.92,-2.93,-2.95
284.99,0.88,3.83,0.84,3.78,-3.78,-3.83,-4.02,-2.89,-2.94,-2.95
287.84,0.84,3.79,0.82,3.76,-3.76,-3.82,-3.97,-2.92,-2.95,-2.95
290.72,0.80,3.77,0.80,3.75,-3.75,-3.81,-3.91,-2.95,-2.95,-2.97
293.63,0.73,3.69,0.79,3.75,-3.75,-3.79,-3.86,-3.01,-2.96,-2.96
296.57,0.72,3.68,0.78,3.74,-3.74,-3.77,-3.80,-3.02,-2.96,-2.96
299.53,0.73,3.70,0.77,3.74,-3.74,-3.76,-3.74,-3.01,-2.97,-2.97
302.53,0.74,3.70,0.76,3.73,-3.73,-3.74,-3.69,-2.99,-2.97,-2.96
305.55,0.76,3.73,0.75,3.72,-3.72,-3.72,-3.63,-2.95,-2.97,-2.97
308.61,0.76,3.72,0.72,3.70,-3.70,-3.70,-3.57,-2.93,-2.97,-2.96
311.69,0.76,3.74,0.70,3.67,-3.67,-3.68,-3.52,-2.91,-2.97,-2.98
314.81,0.70,3.67,0.68,3.66,-3.66,-3.66,-3.46,-2.95,-2.98,-2.97
317.96,0.68,3.67,0.66,3.64,-3.64,-3.64,-3.41,-2.95,-2.98,-2.99
321.14,0.68,3.66,0.64,3.62,-3.62,-3.61,-3.36,-2.94,-2.98,-2.98
324.35,0.64,3.63,0.62,3.60,-3.60,-3.59,-3.31,-2.96,-2.98,-2.99
327.59,0.58,3.56,0.59,3.58,-3.58,-3.57,-3.26,-2.99,-2.99,-2.98
330.87,0.50,3.49,0.57,3.55,-3.55,-3.54,-3.22,-3.05,-2.99,-2.99
334.18,0.47,3.47,0.54,3.53,-3.53,-3.52,-3.17,-3.06,-2.99,-3.00
337.52,0.47,3.46,0.52,3.50,-3.50,-3.49,-3.13,-3.03,-2.99,-2.99
340.90,0.47,3.47,0.49,3.48,-3.48,-3.47,-3.09,-3.00,-2.99,-3.00
344.30,0.47,3.46,0.46,3.45,-3.45,-3.44,-3.05,-2.98,-2.99,-2.99
347.75,0.47,3.45,0.44,3.42,-3.42,-3.41,-3.02,-2.95,-2.99,-2.98
351.23,0.42,3.42,0.41,3.40,-3.40,-3.39,-2.98,-2.97,-2.98,-3.00
354.74,0.38,3.36,0.39,3.37,-3.37,-3.36,-2.95,-2.99,-2.98,-2.98
358.28,0.37,3.35,0.37,3.35,-3.35,-3.33,-2.93,-2.97,-2.97,-2.98
361.87,0.38,3.36,0.35,3.32,-3.32,-3.30,-2.90,-2.94,-2.97,-2.98
365.49,0.39,3.36,0.34,3.30,-3.30,-3.27,-2.88,-2.91,-2.97,-2.97
369.14,0.32,3.28,0.32,3.28,-3.28,-3.24,-2.86,-2.95,-2.96,-2.96
372.83,0.26,3.21,0.29,3.25,-3.25,-3.22,-2.84,-2.99,-2.96,-2.95
376.56,0.22,3.18,0.27,3.23,-3.23,-3.19,-2.82,-3.01,-2.96,-2.96
380.33,0.21,3.17,0.25,3.21,-3.21,-3.16,-2.81,-3.00,-2.96,-2.96
384.13,0.22,3.17,0.23,3.19,-3.19,-3.13,-2.79,-2.97,-2.96,-2.95
387.97,0.23,3.18,0.21,3.17,-3.17,-3.09,-2.78,-2.94,-2.96,-2.95
391.85,0.20,3.16,0.19,3.16,-3.16,-3.06,-2.77,-2.95,-2.96,-2.96
395.77,0.15,3.12,0.17,3.14,-3.14,-3.03,-2.77,-2.98,-2.97,-2.97
399.73,0.13,3.10,0.14,3.11,-3.11,-3.00,-2.76,-2.98,-2.97,-2.97
403.72,0.13,3.09,0.11,3.09,-3.09,-2.97,-2.76,-2.96,-2.98,-2.96
407.76,0.12,3.10,0.08,3.07,-3.07,-2.94,-2.75,-2.94,-2.98,-2.98
411.84,0.12,3.11,0.06,3.04,-3.04,-2.91,-2.75,-2.92,-2.99,-2.99
415.96,0.09,3.08,0.04,3.02,-3.02,-2.88,-2.75,-2.93,-2.99,-2.99
420.12,0.03,3.03,0.02,3.00,-3.00,-2.84,-2.75,-2.97,-2.98,-3.00
424.32,-0.03,2.96,0.00,2.98,-2.98,-2.81,-2.75,-3.00,-2.97,-2.99
428.56,-0.05,2.92,-0.01,2.95,-2.95,-2.78,-2.75,-3.00,-2.96,-2.97
432.85,-0.06,2.89,-0.01,2.93,-2.93,-2.75,-2.75,-2.99,-2.94,-2.95
437.18,-0.11,2.83,-0.01,2.91,-2.91,-2.72,-2.76,-3.02,-2.92,-2.94
441.55,-0.09,2.82,0.00,2.89,-2.89,-2.68,-2.76,-2.97,-2.89,-2.91
445.96,-0.04,2.83,0.01,2.86,-2.86,-2.65,-2.76,-2.89,-2.85,-2.87
450.42,0.01,2.84,0.02,2.83,-2.83,-2.62,-2.76,-2.81,-2.81,-2.83
454.93,0.07,2.85,0.04,2.80,-2.80,-2.59,-2.76,-2.72,-2.76,-2.78
459.48,0.13,2.85,0.06,2.77,-2.77,-2.56,-2.76,-2.64,-2.71,-2.72
464.07,0.14,2.79,0.09,2.75,-2.75,-2.52,-2.75,-2.60,-2.66,-2.65
468.71,0.15,2.75,0.12,2.72,-2.72,-2.49,-2.75,-2.57,-2.60,-2.60
473.40,0.19,2.73,0.15,2.70,-2.70,-2.46,-2.74,-2.50,-2.55,-2.54
478.13,0.17,2.65,0.17,2.67,-2.67,-2.43,-2.73,-2.50,-2.50,-2.48
482.91,0.15,2.58,0.19,2.64,-2.64,-2.40,-2.72,-2.48,-2.44,-2.43
487.74,0.15,2.55,0.21,2.61,-2.61,-2.37,-2.71,-2.46,-2.40,-2.40
492.62,0.18,2.54,0.22,2.58,-2.58,-2.33,-2.69,-2.39,-2.36,-2.36
497.55,0.21,2.53,0.21,2.54,-2.54,-2.30,-2.68,-2.33,-2.33,-2.32
502.52,0.23,2.53,0.20,2.50,-2.50,-2.27,-2.66,-2.27,-2.30,-2.30
507.55,0.21,2.48,0.19,2.47,-2.47,-2.24,-2.63,-2.25,-2.28,-2.27
512.62,0.17,2.43,0.17,2.44,-2.44,-2.21,-2.61,-2.26,-2.27,-2.26
517.75,0.18,2.43,0.14,2.41,-2.41,-2.18,-2.58,-2.23,-2.27,-2.25
522.93,0.12,2.37,0.11,2.38,-2.38,-2.15,-2.55,-2.26,-2.27,-2.25
