frequency,raw,error,smoothed,error_smoothed,equalization,parametric_eq,fixed_band_eq,equalized_raw,equalized_smoothed,target
20.00,2.24,-6.00,2.24,-6.00,6.00,5.85,0.36,8.24,8.24,8.24
20.20,2.39,-5.89,2.39,-5.89,5.89,5.85,0.37,8.28,8.28,8.28
20.40,2.54,-5.78,2.54,-5.78,5.78,5.84,0.39,8.32,8.32,8.32
20.61,2.68,-5.66,2.69,-5.67,5.67,5.81,0.41,8.35,8.35,8.35
20.81,2.84,-5.55,2.84,-5.55,5.55,5.78,0.42,8.39,8.38,8.39
21.02,2.99,-5.44,2.99,-5.43,5.42,5.73,0.44,8.41,8.42,8.43
21.23,3.15,-5.30,3.14,-5.30,5.30,5.67,0.46,8.45,8.44,8.45
21.44,3.30,-5.17,3.30,-5.17,5.17,5.60,0.48,8.47,8.47,8.47
21.66,3.45,-5.04,3.45,-5.04,5.04,5.52,0.50,8.48,8.49,8.49
21.87,3.60,-4.90,3.60,-4.90,4.90,5.42,0.52,8.50,8.50,8.50
22.09,3.76,-4.76,3.75,-4.76,4.76,5.32,0.54,8.52,8.52,8.52
22.31,3.91,-4.62,3.91,-4.62,4.62,5.21,0.56,8.53,8.53,8.53
22.54,4.06,-4.48,4.06,-4.48,4.47,5.09,0.58,8.53,8.53,8.54
22.76,4.22,-4.33,4.21,-4.33,4.33,4.96,0.60,8.55,8.54,8.55
22.99,4.37,-4.18,4.37,-4.18,4.18,4.83,0.63,8.55,8.55,8.55
23.22,4.53,-4.03,4.53,-4.03,4.03,4.68,0.65,8.56,8.56,8.56
23.45,4.69,-3.88,4.68,-3.88,3.89,4.54,0.67,8.58,8.57,8.57
23.69,4.84,-3.74,4.84,-3.74,3.74,4.39,0.70,8.58,8.58,8.58
23.92,5.00,-3.59,5.00,-3.59,3.59,4.23,0.72,8.59,8.59,8.59
24.16,5.16,-3.45,5.15,-3.45,3.45,4.07,0.75,8.61,8.60,8.61
24.40,5.31,-3.32,5.31,-3.30,3.30,3.91,0.77,8.61,8.61,8.63
24.65,5.47,-3.15,5.47,-3.16,3.16,3.75,0.80,8.62,8.62,8.62
24.89,5.62,-3.01,5.62,-3.01,3.01,3.58,0.82,8.63,8.63,8.63
25.14,5.78,-2.86,5.78,-2.86,2.86,3.41,0.85,8.64,8.64,8.64
25.39,5.93,-2.72,5.93,-2.72,2.72,3.24,0.87,8.65,8.65,8.65
25.65,6.09,-2.58,6.09,-2.57,2.57,3.08,0.89,8.66,8.66,8.67
25.91,6.23,-2.43,6.24,-2.43,2.43,2.91,0.92,8.66,8.67,8.67
26.16,6.40,-2.28,6.39,-2.28,2.28,2.74,0.94,8.68,8.68,8.68
26.43,6.55,-2.14,6.55,-2.14,2.14,2.57,0.96,8.68,8.69,8.69
26.69,6.71,-1.99,6.71,-1.99,1.99,2.40,0.98,8.70,8.70,8.70
26.96,6.87,-1.85,6.86,-1.85,1.85,2.24,0.99,8.71,8.71,8.72
27.23,7.02,-1.71,7.02,-1.70,1.70,2.07,1.01,8.72,8.72,8.73
27.50,7.18,-1.55,7.18,-1.55,1.55,1.91,1.02,8.73,8.73,8.73
27.77,7.33,-1.40,7.33,-1.40,1.41,1.75,1.03,8.74,8.74,8.73
28.05,7.49,-1.26,7.48,-1.26,1.26,1.59,1.04,8.75,8.74,8.75
28.33,7.64,-1.11,7.64,-1.11,1.11,1.43,1.05,8.75,8.75,8.75
28.62,7.79,-0.97,7.79,-0.96,0.97,1.27,1.05,8.75,8.76,8.76
28.90,7.95,-0.82,7.94,-0.82,0.82,1.12,1.05,8.77,8.76,8.77
29.19,8.10,-0.67,8.10,-0.68,0.68,0.96,1.05,8.77,8.77,8.77
29.48,8.25,-0.55,8.25,-0.53,0.53,0.81,1.04,8.78,8.78,8.80
29.78,8.41,-0.38,8.40,-0.39,0.39,0.66,1.02,8.79,8.79,8.79
30.08,8.55,-0.24,8.55,-0.24,0.24,0.51,1.01,8.80,8.80,8.80
30.38,8.71,-0.09,8.70,-0.10,0.10,0.37,0.99,8.81,8.80,8.80
30.68,8.85,0.03,8.85,0.04,-0.04,0.22,0.96,8.80,8.81,8.82
30.99,9.00,0.18,9.00,0.18,-0.19,0.08,0.93,8.81,8.81,8.82
31.30,9.15,0.33,9.15,0.32,-0.33,-0.06,0.89,8.82,8.82,8.82
31.61,9.30,0.47,9.30,0.47,-0.47,-0.19,0.85,8.83,8.83,8.83
31.93,9.45,0.61,9.44,0.61,-0.60,-0.33,0.81,8.84,8.84,8.84
32.24,9.59,0.75,9.59,0.74,-0.74,-0.47,0.75,8.85,8.85,8.84
32.57,9.73,0.87,9.73,0.88,-0.88,-0.60,0.70,8.85,8.85,8.86
32.89,9.87,1.01,9.87,1.01,-1.01,-0.73,0.64,8.86,8.86,8.86
33.22,10.01,1.14,10.01,1.14,-1.14,-0.86,0.57,8.87,8.87,8.87
33.55,10.15,1.27,10.15,1.27,-1.27,-0.98,0.50,8.88,8.88,8.88
33.89,10.29,1.40,10.28,1.40,-1.40,-1.11,0.43,8.89,8.88,8.89
34.23,10.42,1.53,10.42,1.53,-1.53,-1.23,0.35,8.89,8.89,8.89
34.57,10.55,1.65,10.55,1.66,-1.66,-1.36,0.27,8.89,8.89,8.90
34.92,10.69,1.79,10.68,1.78,-1.79,-1.48,0.18,8.90,8.90,8.90
35.27,10.82,1.91,10.82,1.91,-1.91,-1.60,0.09,8.90,8.90,8.91
35.62,10.95,2.04,10.95,2.04,-2.04,-1.71,-0.00,8.90,8.91,8.91
35.97,11.08,2.17,11.08,2.17,-2.17,-1.83,-0.10,8.91,8.91,8.91
36.33,11.21,2.29,11.21,2.30,-2.30,-1.94,-0.20,8.91,8.91,8.92
36.70,11.34,2.43,11.34,2.43,-2.42,-2.06,-0.30,8.91,8.92,8.91
37.06,11.47,2.55,11.47,2.55,-2.55,-2.17,-0.41,8.92,8.92,8.92
37.43,11.59,2.67,11.59,2.67,-2.67,-2.28,-0.52,8.92,8.92,8.92
37.81,11.71,2.79,11.71,2.79,-2.79,-2.39,-0.63,8.92,8.91,8.92
38.19,11.82,2.90,11.82,2.91,-2.91,-2.50,-0.74,8.91,8.91,8.92
38.57,11.94,3.03,11.94,3.03,-3.03,-2.60,-0.86,8.91,8.91,8.91
38.95,12.05,3.14,12.05,3.14,-3.14,-2.71,-0.98,8.90,8.90,8.91
39.34,12.16,3.26,12.16,3.26,-3.26,-2.81,-1.10,8.90,8.90,8.90
39.74,12.27,3.37,12.26,3.37,-3.36,-2.91,-1.22,8.90,8.90,8.90
40.14,12.37,3.47,12.37,3.47,-3.47,-3.02,-1.34,8.90,8.90,8.90
40.54,12.47,3.57,12.47,3.57,-3.57,-3.12,-1.47,8.90,8.90,8.90
40.94,12.57,3.68,12.56,3.67,-3.67,-3.21,-1.60,8.90,8.89,8.89
41.35,12.65,3.76,12.65,3.76,-3.76,-3.31,-1.73,8.89,8.89,8.89
41.76,12.73,3.84,12.73,3.85,-3.85,-3.41,-1.86,8.88,8.88,8.89
42.18,12.82,3.93,12.82,3.93,-3.94,-3.50,-1.99,8.88,8.88,8.89
42.60,12.91,4.02,12.91,4.02,-4.02,-3.60,-2.13,8.88,8.88,8.89
43.03,13.00,4.11,12.99,4.11,-4.11,-3.69,-2.26,8.89,8.88,8.89
43.46,13.07,4.18,13.07,4.19,-4.19,-3.78,-2.40,8.88,8.88,8.89
43.90,13.15,4.28,13.15,4.27,-4.27,-3.87,-2.54,8.87,8.87,8.87
44.33,13.22,4.35,13.22,4.35,-4.35,-3.96,-2.69,8.87,8.87,8.87
44.78,13.29,4.43,13.29,4.43,-4.43,-4.05,-2.83,8.86,8.86,8.86
45.23,13.36,4.50,13.36,4.50,-4.50,-4.14,-2.98,8.86,8.86,8.86
45.68,13.43,4.57,13.42,4.57,-4.57,-4.22,-3.13,8.86,8.86,8.86
46.13,13.49,4.64,13.49,4.63,-4.63,-4.31,-3.28,8.86,8.86,8.85
46.60,13.55,4.69,13.55,4.70,-4.70,-4.39,-3.43,8.85,8.85,8.86
47.06,13.61,4.76,13.60,4.76,-4.76,-4.47,-3.58,8.85,8.84,8.85
47.53,13.66,4.82,13.66,4.81,-4.83,-4.55,-3.74,8.83,8.84,8.84
48.01,13.72,4.87,13.72,4.88,-4.89,-4.63,-3.90,8.83,8.83,8.85
48.49,13.78,4.95,13.78,4.95,-4.95,-4.71,-4.06,8.82,8.82,8.83
48.97,13.84,5.03,13.84,5.02,-5.02,-4.79,-4.22,8.82,8.82,8.81
49.46,13.89,5.09,13.89,5.09,-5.08,-4.86,-4.38,8.80,8.80,8.80
49.96,13.94,5.16,13.94,5.15,-5.15,-4.94,-4.54,8.79,8.79,8.78
50.46,13.98,5.20,13.98,5.21,-5.21,-5.01,-4.71,8.76,8.77,8.78
50.96,14.03,5.27,14.03,5.27,-5.28,-5.08,-4.87,8.75,8.75,8.76
51.47,14.07,5.34,14.07,5.33,-5.33,-5.15,-5.03,8.73,8.74,8.73
51.99,14.12,5.40,14.12,5.40,-5.39,-5.22,-5.20,8.73,8.72,8.72
52.51,14.16,5.45,14.15,5.45,-5.45,-5.29,-5.36,8.71,8.71,8.71
53.03,14.19,5.50,14.19,5.50,-5.50,-5.35,-5.52,8.69,8.69,8.69
53.56,14.22,5.54,14.22,5.55,-5.56,-5.42,-5.68,8.66,8.67,8.68
54.10,14.26,5.61,14.25,5.60,-5.61,-5.48,-5.84,8.65,8.65,8.65
54.64,14.29,5.65,14.29,5.66,-5.66,-5.54,-6.00,8.63,8.63,8.64
55.18,14.32,5.71,14.32,5.71,-5.70,-5.60,-6.15,8.61,8.61,8.61
55.74,14.35,5.77,14.34,5.76,-5.75,-5.66,-6.29,8.59,8.59,8.58
56.29,14.37,5.79,14.37,5.80,-5.80,-5.72,-6.43,8.57,8.57,8.58
56.86,14.39,5.84,14.39,5.84,-5.85,-5.77,-6.57,8.54,8.54,8.55
57.42,14.41,5.89,14.41,5.89,-5.89,-5.82,-6.70,8.52,8.52,8.52
58.00,14.43,5.93,14.43,5.93,-5.93,-5.88,-6.82,8.49,8.50,8.50
58.58,14.46,5.98,14.46,5.98,-5.98,-5.93,-6.93,8.48,8.48,8.48
59.16,14.48,6.02,14.48,6.02,-6.02,-5.97,-7.03,8.46,8.46,8.46
59.76,14.50,6.06,14.50,6.06,-6.06,-6.02,-7.13,8.43,8.43,8.44
60.35,14.51,6.10,14.51,6.10,-6.11,-6.07,-7.21,8.40,8.40,8.41
60.96,14.52,6.14,14.52,6.15,-6.15,-6.11,-7.28,8.37,8.37,8.38
61.57,14.52,6.19,14.52,6.19,-6.19,-6.15,-7.34,8.33,8.33,8.33
62.18,14.52,6.23,14.52,6.22,-6.22,-6.19,-7.39,8.30,8.30,8.29
62.80,14.52,6.25,14.52,6.26,-6.25,-6.23,-7.43,8.26,8.26,8.27
63.43,14.51,6.29,14.51,6.29,-6.28,-6.26,-7.45,8.22,8.23,8.22
64.07,14.50,6.32,14.50,6.31,-6.31,-6.29,-7.47,8.19,8.19,8.18
64.71,14.48,6.33,14.48,6.34,-6.33,-6.33,-7.47,8.15,8.15,8.15
65.35,14.46,6.35,14.46,6.35,-6.35,-6.36,-7.46,8.11,8.11,8.11
66.01,14.43,6.36,14.43,6.36,-6.37,-6.38,-7.44,8.06,8.07,8.07
66.67,14.41,6.37,14.41,6.37,-6.38,-6.41,-7.42,8.02,8.02,8.04
67.33,14.39,6.39,14.39,6.39,-6.40,-6.43,-7.38,7.99,7.99,8.00
68.01,14.37,6.41,14.37,6.41,-6.42,-6.46,-7.34,7.95,7.95,7.96
68.69,14.36,6.44,14.36,6.44,-6.44,-6.48,-7.28,7.92,7.92,7.92
69.37,14.34,6.46,14.34,6.46,-6.45,-6.50,-7.23,7.88,7.88,7.88
70.07,14.32,6.48,14.32,6.48,-6.47,-6.51,-7.16,7.85,7.85,7.84
70.77,14.29,6.49,14.29,6.49,-6.48,-6.53,-7.10,7.81,7.81,7.80
71.48,14.26,6.49,14.26,6.49,-6.49,-6.54,-7.03,7.76,7.76,7.77
72.19,14.22,6.50,14.22,6.50,-6.50,-6.55,-6.96,7.71,7.72,7.72
72.91,14.19,6.50,14.19,6.50,-6.51,-6.56,-6.88,7.68,7.68,7.69
73.64,14.16,6.51,14.16,6.51,-6.51,-6.57,-6.81,7.64,7.64,7.65
74.38,14.13,6.51,14.13,6.52,-6.52,-6.58,-6.73,7.61,7.61,7.62
75.12,14.11,6.53,14.10,6.52,-6.52,-6.58,-6.65,7.59,7.58,7.58
75.87,14.08,6.53,14.07,6.53,-6.52,-6.58,-6.58,7.55,7.55,7.55
76.63,14.04,6.52,14.04,6.53,-6.53,-6.58,-6.50,7.51,7.52,7.52
77.40,14.01,6.52,14.01,6.52,-6.52,-6.58,-6.43,7.48,7.48,7.49
78.17,13.98,6.52,13.98,6.52,-6.52,-6.58,-6.36,7.46,7.46,7.46
78.95,13.95,6.52,13.95,6.52,-6.52,-6.58,-6.30,7.43,7.43,7.43
79.74,13.92,6.51,13.91,6.51,-6.51,-6.57,-6.23,7.41,7.41,7.41
80.54,13.88,6.49,13.88,6.50,-6.49,-6.57,-6.17,7.38,7.39,7.39
81.35,13.84,6.48,13.84,6.48,-6.48,-6.56,-6.11,7.36,7.36,7.36
82.16,13.80,6.47,13.79,6.46,-6.46,-6.55,-6.06,7.34,7.34,7.33
82.98,13.75,6.43,13.75,6.44,-6.43,-6.54,-6.01,7.31,7.31,7.32
83.81,13.70,6.41,13.70,6.41,-6.41,-6.53,-5.96,7.29,7.29,7.29
84.65,13.65,6.39,13.65,6.38,-6.39,-6.51,-5.92,7.26,7.26,7.26
85.50,13.60,6.35,13.60,6.35,-6.36,-6.50,-5.88,7.24,7.23,7.25
86.35,13.55,6.32,13.55,6.33,-6.34,-6.48,-5.85,7.21,7.22,7.23
87.22,13.51,6.30,13.51,6.31,-6.31,-6.47,-5.82,7.20,7.20,7.21
88.09,13.49,6.30,13.48,6.29,-6.29,-6.45,-5.79,7.20,7.19,7.19
88.97,13.45,6.28,13.44,6.27,-6.27,-6.43,-5.77,7.18,7.18,7.17
89.86,13.40,6.24,13.40,6.25,-6.24,-6.41,-5.75,7.15,7.16,7.16
90.76,13.35,6.22,13.35,6.22,-6.22,-6.39,-5.74,7.12,7.13,7.13
91.66,13.31,6.20,13.31,6.20,-6.20,-6.37,-5.73,7.11,7.11,7.11
92.58,13.27,6.18,13.27,6.18,-6.18,-6.35,-5.73,7.09,7.09,7.09
93.51,13.23,6.15,13.23,6.15,-6.16,-6.32,-5.73,7.07,7.07,7.08
94.44,13.19,6.13,13.19,6.13,-6.13,-6.30,-5.74,7.06,7.06,7.06
95.39,13.15,6.11,13.14,6.11,-6.11,-6.28,-5.75,7.04,7.04,7.04
96.34,13.10,6.09,13.09,6.09,-6.08,-6.25,-5.76,7.02,7.01,7.01
97.30,13.04,6.06,13.04,6.06,-6.06,-6.23,-5.77,6.98,6.98,6.98
98.28,12.99,6.04,12.99,6.04,-6.04,-6.20,-5.79,6.95,6.95,6.95
99.26,12.94,6.01,12.94,6.01,-6.02,-6.18,-5.82,6.92,6.92,6.93
100.25,12.89,5.99,12.89,5.99,-6.00,-6.15,-5.84,6.89,6.89,6.90
101.25,12.85,5.98,12.84,5.98,-5.99,-6.12,-5.87,6.86,6.86,6.87
102.27,12.80,5.97,12.80,5.97,-5.97,-6.10,-5.90,6.83,6.83,6.83
103.29,12.77,5.97,12.77,5.97,-5.96,-6.07,-5.94,6.81,6.81,6.80
104.32,12.73,5.96,12.72,5.96,-5.95,-6.04,-5.97,6.78,6.77,6.77
105.37,12.68,5.95,12.67,5.95,-5.95,-6.02,-6.01,6.73,6.73,6.73
106.42,12.62,5.94,12.62,5.94,-5.94,-5.99,-6.05,6.67,6.68,6.68
107.48,12.57,5.92,12.57,5.93,-5.94,-5.96,-6.09,6.63,6.63,6.65
108.56,12.53,5.94,12.53,5.94,-5.94,-5.94,-6.13,6.59,6.59,6.59
109.64,12.49,5.95,12.48,5.94,-5.94,-5.91,-6.17,6.55,6.55,6.54
110.74,12.44,5.95,12.43,5.95,-5.94,-5.89,-6.21,6.50,6.49,6.49
111.85,12.38,5.94,12.38,5.95,-5.95,-5.86,-6.25,6.43,6.43,6.44
112.97,12.32,5.95,12.32,5.94,-5.95,-5.83,-6.29,6.36,6.36,6.37
114.10,12.27,5.95,12.27,5.95,-5.96,-5.81,-6.32,6.31,6.30,6.32
115.24,12.21,5.95,12.22,5.97,-5.97,-5.79,-6.35,6.24,6.25,6.26
116.39,12.19,6.00,12.18,5.99,-5.98,-5.76,-6.38,6.21,6.20,6.19
117.55,12.14,6.01,12.13,6.00,-5.99,-5.74,-6.41,6.15,6.14,6.13
118.73,12.08,6.01,12.08,6.01,-6.00,-5.72,-6.43,6.08,6.08,6.07
119.92,12.02,6.00,12.02,6.01,-6.01,-5.69,-6.45,6.00,6.01,6.02
121.12,11.98,6.02,11.98,6.02,-6.03,-5.67,-6.47,5.95,5.95,5.96
122.33,11.95,6.04,11.94,6.04,-6.04,-5.65,-6.48,5.91,5.91,5.91
123.55,11.91,6.05,11.90,6.05,-6.05,-5.63,-6.49,5.86,5.85,5.86
124.79,11.87,6.06,11.87,6.06,-6.06,-5.61,-6.49,5.80,5.80,5.81
126.03,11.82,6.06,11.83,6.07,-6.08,-5.60,-6.48,5.74,5.75,5.76
127.29,11.80,6.09,11.79,6.09,-6.09,-5.58,-6.47,5.71,5.70,5.71
128.57,11.77,6.12,11.76,6.11,-6.10,-5.57,-6.46,5.66,5.66,5.65
129.85,11.72,6.11,11.72,6.12,-6.11,-5.55,-6.44,5.61,5.61,5.61
131.15,11.68,6.12,11.68,6.13,-6.12,-5.54,-6.42,5.56,5.57,5.56
132.46,11.65,6.13,11.64,6.12,-6.12,-5.53,-6.39,5.53,5.52,5.52
133.79,11.60,6.12,11.60,6.12,-6.12,-5.52,-6.36,5.48,5.48,5.48
135.12,11.54,6.10,11.55,6.11,-6.11,-5.51,-6.33,5.43,5.43,5.44
136.48,11.50,6.10,11.49,6.09,-6.10,-5.50,-6.29,5.40,5.39,5.40
137.84,11.44,6.08,11.44,6.09,-6.09,-5.49,-6.25,5.35,5.35,5.36
139.22,11.39,6.08,11.39,6.08,-6.08,-5.49,-6.21,5.31,5.31,5.31
140.61,11.35,6.08,11.34,6.06,-6.06,-5.49,-6.17,5.28,5.27,5.27
142.02,11.28,6.03,11.29,6.05,-6.05,-5.48,-6.13,5.23,5.24,5.25
143.44,11.25,6.04,11.24,6.04,-6.03,-5.48,-6.08,5.22,5.21,5.21
144.87,11.19,6.02,11.18,6.02,-6.01,-5.49,-6.04,5.18,5.17,5.17
146.32,11.13,6.00,11.13,6.00,-5.99,-5.49,-5.99,5.14,5.14,5.13
147.78,11.06,5.96,11.06,5.97,-5.97,-5.50,-5.95,5.09,5.09,5.10
149.26,11.01,5.94,11.00,5.94,-5.95,-5.50,-5.90,5.06,5.05,5.07
150.75,10.93,5.92,10.94,5.92,-5.93,-5.51,-5.86,5.00,5.01,5.01
152.26,10.89,5.92,10.88,5.91,-5.92,-5.52,-5.82,4.97,4.97,4.97
153.78,10.83,5.89,10.83,5.90,-5.91,-5.54,-5.78,4.92,4.92,4.94
155.32,10.79,5.91,10.79,5.90,-5.91,-5.55,-5.75,4.88,4.88,4.88
156.88,10.74,5.89,10.74,5.90,-5.91,-5.57,-5.71,4.83,4.84,4.85
158.44,10.72,5.92,10.71,5.91,-5.91,-5.59,-5.68,4.80,4.79,4.80
160.03,10.67,5.92,10.68,5.93,-5.92,-5.62,-5.66,4.74,4.75,4.75
161.63,10.65,5.95,10.65,5.94,-5.93,-5.64,-5.63,4.71,4.71,4.70
163.24,10.62,5.96,10.61,5.95,-5.95,-5.67,-5.61,4.67,4.66,4.66
164.88,10.57,5.95,10.58,5.96,-5.96,-5.70,-5.60,4.61,4.62,4.62
166.53,10.54,5.97,10.54,5.97,-5.97,-5.73,-5.59,4.57,4.57,4.57
168.19,10.51,5.99,10.50,5.98,-5.99,-5.76,-5.58,4.52,4.51,4.52
169.87,10.47,6.00,10.47,6.00,-6.00,-5.80,-5.57,4.46,4.47,4.47
171.57,10.44,6.01,10.44,6.02,-6.02,-5.84,-5.57,4.42,4.42,4.43
173.29,10.42,6.05,10.41,6.04,-6.04,-5.88,-5.58,4.38,4.37,4.37
175.02,10.38,6.06,10.38,6.06,-6.06,-5.92,-5.58,4.31,4.32,4.32
176.77,10.35,6.09,10.35,6.09,-6.09,-5.96,-5.60,4.26,4.26,4.26
178.54,10.33,6.12,10.33,6.12,-6.12,-6.01,-5.61,4.21,4.21,4.21
180.32,10.31,6.16,10.30,6.16,-6.15,-6.06,-5.63,4.15,4.15,4.15
182.13,10.29,6.19,10.28,6.19,-6.19,-6.11,-5.66,4.09,4.09,4.10
183.95,10.26,6.22,10.27,6.23,-6.24,-6.16,-5.69,4.02,4.03,4.04
185.79,10.26,6.27,10.26,6.28,-6.29,-6.21,-5.72,3.97,3.97,3.99
187.65,10.26,6.34,10.26,6.34,-6.34,-6.27,-5.76,3.92,3.92,3.92
189.52,10.27,6.40,10.27,6.40,-6.40,-6.32,-5.80,3.87,3.87,3.87
191.42,10.28,6.46,10.27,6.46,-6.46,-6.38,-5.84,3.82,3.82,3.82
193.33,10.28,6.51,10.28,6.51,-6.52,-6.44,-5.89,3.76,3.76,3.77
195.27,10.29,6.57,10.29,6.58,-6.58,-6.49,-5.94,3.71,3.71,3.72
197.22,10.30,6.64,10.30,6.64,-6.63,-6.55,-6.00,3.66,3.66,3.66
199.19,10.31,6.70,10.30,6.69,-6.69,-6.61,-6.05,3.62,3.62,3.61
201.18,10.30,6.74,10.30,6.74,-6.73,-6.66,-6.11,3.57,3.57,3.56
203.19,10.29,6.76,10.29,6.77,-6.77,-6.71,-6.18,3.52,3.52,3.53
205.23,10.28,6.81,10.28,6.80,-6.80,-6.77,-6.24,3.47,3.48,3.47
207.28,10.27,6.82,10.26,6.83,-6.83,-6.81,-6.31,3.44,3.43,3.45
209.35,10.24,6.85,10.24,6.85,-6.85,-6.86,-6.37,3.39,3.39,3.39
211.44,10.20,6.86,10.20,6.86,-6.85,-6.90,-6.44,3.34,3.35,3.34
213.56,10.16,6.86,10.16,6.86,-6.85,-6.94,-6.51,3.30,3.30,3.30
215.69,10.12,6.84,10.11,6.84,-6.85,-6.97,-6.57,3.27,3.27,3.28
217.85,10.06,6.82,10.07,6.83,-6.83,-7.00,-6.64,3.23,3.24,3.24
220.03,10.02,6.82,10.01,6.81,-6.81,-7.03,-6.70,3.21,3.21,3.20
222.23,9.96,6.79,9.95,6.78,-6.77,-7.04,-6.76,3.19,3.18,3.17
224.45,9.88,6.73,9.88,6.74,-6.73,-7.05,-6.82,3.15,3.15,3.15
226.70,9.80,6.68,9.80,6.68,-6.69,-7.06,-6.87,3.11,3.11,3.12
228.96,9.72,6.63,9.73,6.64,-6.64,-7.05,-6.92,3.08,3.09,3.09
231.25,9.67,6.59,9.66,6.58,-6.59,-7.04,-6.96,3.08,3.07,3.08
233.57,9.60,6.54,9.59,6.53,-6.54,-7.02,-7.00,3.06,3.05,3.06
235.90,9.51,6.46,9.52,6.48,-6.48,-7.00,-7.03,3.02,3.04,3.05
238.26,9.47,6.43,9.46,6.42,-6.43,-6.97,-7.05,3.04,3.03,3.04
240.64,9.40,6.37,9.40,6.37,-6.37,-6.92,-7.06,3.03,3.03,3.03
243.05,9.35,6.32,9.34,6.32,-6.31,-6.88,-7.07,3.04,3.03,3.03
245.48,9.29,6.27,9.28,6.26,-6.25,-6.82,-7.06,3.04,3.03,3.02
247.93,9.20,6.18,9.21,6.19,-6.19,-6.76,-7.05,3.01,3.02,3.02
250.41,9.15,6.13,9.14,6.12,-6.12,-6.69,-7.02,3.02,3.01,3.02
252.92,9.07,6.04,9.08,6.05,-6.06,-6.62,-6.99,3.01,3.01,3.03
255.45,9.02,5.98,9.02,5.99,-6.00,-6.54,-6.94,3.02,3.02,3.04
258.00,8.98,5.93,8.97,5.93,-5.93,-6.46,-6.89,3.05,3.04,3.05
260.58,8.92,5.87,8.92,5.87,-5.87,-6.37,-6.82,3.05,3.06,3.05
263.19,8.88,5.82,8.87,5.82,-5.80,-6.28,-6.75,3.08,3.07,3.06
265.82,8.82,5.75,8.82,5.75,-5.74,-6.18,-6.67,3.08,3.08,3.07
268.48,8.77,5.68,8.77,5.68,-5.68,-6.09,-6.58,3.09,3.09,3.09
271.16,8.72,5.61,8.71,5.61,-5.62,-5.99,-6.49,3.10,3.09,3.11
273.87,8.65,5.54,8.66,5.55,-5.56,-5.89,-6.38,3.09,3.11,3.11
276.61,8.62,5.48,8.62,5.49,-5.50,-5.79,-6.28,3.12,3.12,3.14
279.38,8.59,5.45,8.58,5.44,-5.43,-5.68,-6.16,3.15,3.14,3.14
282.17,8.54,5.38,8.54,5.38,-5.38,-5.58,-6.04,3.16,3.16,3.16
284.99,8.50,5.33,8.49,5.33,-5.32,-5.48,-5.92,3.18,3.17,3.17
287.84,8.44,5.26,8.44,5.26,-5.27,-5.38,-5.80,3.17,3.17,3.18
290.72,8.40,5.21,8.40,5.21,-5.21,-5.28,-5.67,3.18,3.19,3.19
293.63,8.36,5.15,8.36,5.15,-5.16,-5.18,-5.54,3.20,3.20,3.21
296.57,8.33,5.10,8.32,5.10,-5.10,-5.09,-5.41,3.23,3.22,3.23
299.53,8.28,5.05,8.28,5.05,-5.04,-4.99,-5.28,3.24,3.24,3.23
302.53,8.23,4.99,8.23,4.98,-4.98,-4.90,-5.15,3.25,3.25,3.24
305.55,8.17,4.91,8.17,4.92,-4.92,-4.81,-5.01,3.25,3.25,3.26
308.61,8.12,4.85,8.12,4.85,-4.86,-4.73,-4.88,3.26,3.26,3.27
311.69,8.07,4.79,8.07,4.79,-4.79,-4.64,-4.75,3.27,3.28,3.28
314.81,8.03,4.72,8.03,4.73,-4.73,-4.56,-4.62,3.30,3.30,3.31
317.96,7.99,4.69,7.98,4.68,-4.67,-4.48,-4.50,3.32,3.31,3.30
321.14,7.92,4.61,7.92,4.61,-4.60,-4.41,-4.37,3.32,3.31,3.31
324.35,7.85,4.54,7.85,4.54,-4.54,-4.34,-4.24,3.31,3.31,3.31
327.59,7.78,4.46,7.78,4.47,-4.48,-4.27,-4.12,3.30,3.30,3.32
330.87,7.73,4.41,7.73,4.41,-4.42,-4.20,-4.00,3.31,3.31,3.32
334.18,7.68,4.36,7.68,4.36,-4.36,-4.14,-3.88,3.32,3.32,3.32
337.52,7.63,4.30,7.63,4.30,-4.30,-4.08,-3.77,3.33,3.33,3.33
340.90,7.58,4.25,7.57,4.25,-4.24,-4.02,-3.65,3.33,3.33,3.33
344.30,7.51,4.18,7.52,4.19,-4.19,-3.97,-3.54,3.32,3.33,3.33
347.75,7.47,4.14,7.46,4.13,-4.13,-3.92,-3.43,3.33,3.33,3.33
351.23,7.41,4.08,7.41,4.08,-4.08,-3.88,-3.33,3.33,3.33,3.33
354.74,7.35,4.02,7.35,4.03,-4.02,-3.83,-3.22,3.33,3.33,3.33
358.28,7.28,3.97,7.28,3.97,-3.96,-3.79,-3.12,3.32,3.32,3.31
361.87,7.22,3.91,7.21,3.91,-3.90,-3.75,-3.02,3.31,3.31,3.31
365.49,7.15,3.84,7.15,3.84,-3.85,-3.71,-2.93,3.30,3.30,3.31
369.14,7.08,3.78,7.08,3.78,-3.79,-3.67,-2.83,3.29,3.29,3.30
372.83,7.02,3.72,7.01,3.72,-3.73,-3.64,-2.74,3.29,3.29,3.30
376.56,6.95,3.66,6.95,3.67,-3.67,-3.60,-2.65,3.28,3.28,3.29
380.33,6.89,3.61,6.89,3.61,-3.61,-3.57,-2.56,3.28,3.28,3.28
384.13,6.83,3.56,6.82,3.55,-3.55,-3.53,-2.48,3.28,3.27,3.27
387.97,6.75,3.49,6.75,3.49,-3.48,-3.49,-2.40,3.26,3.26,3.26
391.85,6.67,3.42,6.68,3.42,-3.42,-3.45,-2.31,3.24,3.25,3.25
395.77,6.61,3.35,6.60,3.35,-3.36,-3.41,-2.24,3.25,3.24,3.26
399.73,6.54,3.29,6.54,3.29,-3.30,-3.37,-2.16,3.24,3.24,3.25
403.72,6.47,3.23,6.47,3.23,-3.23,-3.32,-2.08,3.24,3.24,3.24
407.76,6.40,3.17,6.40,3.16,-3.16,-3.27,-2.01,3.24,3.24,3.23
411.84,6.32,3.08,6.32,3.10,-3.09,-3.21,-1.94,3.23,3.23,3.24
415.96,6.25,3.03,6.24,3.02,-3.02,-3.15,-1.87,3.23,3.22,3.22
420.12,6.17,2.95,6.16,2.95,-2.95,-3.08,-1.80,3.22,3.22,3.22
424.32,6.08,2.86,6.09,2.87,-2.87,-3.01,-1.73,3.20,3.21,3.22
428.56,6.01,2.80,6.00,2.79,-2.80,-2.94,-1.66,3.21,3.21,3.21
432.85,5.93,2.72,5.93,2.72,-2.72,-2.86,-1.60,3.21,3.21,3.21
437.18,5.85,2.64,5.85,2.64,-2.64,-2.77,-1.53,3.21,3.21,3.21
441.55,5.78,2.56,5.77,2.56,-2.56,-2.68,-1.47,3.22,3.21,3.22
445.96,5.70,2.48,5.69,2.48,-2.48,-2.59,-1.41,3.22,3.21,3.22
450.42,5.60,2.39,5.61,2.39,-2.39,-2.49,-1.35,3.20,3.21,3.21
454.93,5.53,2.31,5.53,2.31,-2.31,-2.39,-1.29,3.22,3.22,3.22
459.48,5.45,2.23,5.45,2.23,-2.22,-2.29,-1.23,3.22,3.22,3.22
464.07,5.37,2.14,5.37,2.14,-2.14,-2.18,-1.17,3.23,3.23,3.23
468.71,5.29,2.05,5.28,2.05,-2.05,-2.07,-1.12,3.24,3.23,3.24
473.40,5.18,1.95,5.19,1.96,-1.96,-1.96,-1.06,3.21,3.23,3.23
478.13,5.11,1.87,5.11,1.87,-1.88,-1.85,-1.00,3.23,3.23,3.24
482.91,5.04,1.80,5.03,1.79,-1.79,-1.74,-0.95,3.25,3.24,3.24
487.74,4.95,1.70,4.95,1.70,-1.70,-1.63,-0.89,3.25,3.25,3.25
492.62,4.86,1.60,4.86,1.61,-1.61,-1.51,-0.84,3.25,3.26,3.26
497.55,4.78,1.52,4.78,1.51,-1.51,-1.40,-0.78,3.26,3.26,3.26
502.52,4.69,1.42,4.69,1.42,-1.42,-1.29,-0.73,3.27,3.27,3.27
507.55,4.60,1.33,4.60,1.33,-1.33,-1.17,-0.68,3.27,3.27,3.27
512.62,4.50,1.23,4.50,1.23,-1.23,-1.06,-0.62,3.27,3.27,3.27
517.75,4.40,1.12,4.40,1.12,-1.13,-0.94,-0.57,3.27,3.27,3.28
