frequency,raw,error,smoothed,error_smoothed,equalization,parametric_eq,fixed_band_eq,equalized_raw,equalized_smoothed,target
20.00,-7.79,-11.84,-7.79,-11.87,11.87,11.91,4.02,4.08,4.08,4.05
20.20,-7.65,-11.79,-7.65,-11.80,11.80,11.91,4.12,4.15,4.16,4.14
20.40,-7.50,-11.72,-7.50,-11.73,11.73,11.90,4.23,4.23,4.23,4.22
20.61,-7.36,-11.65,-7.35,-11.66,11.66,11.87,4.35,4.30,4.30,4.29
20.81,-7.21,-11.59,-7.21,-11.58,11.58,11.83,4.46,4.37,4.37,4.38
21.02,-7.07,-11.53,-7.06,-11.50,11.50,11.77,4.58,4.43,4.44,4.46
21.23,-6.92,-11.44,-6.92,-11.42,11.42,11.70,4.71,4.50,4.50,4.52
21.44,-6.78,-11.36,-6.77,-11.33,11.33,11.62,4.83,4.56,4.56,4.58
21.66,-6.63,-11.26,-6.63,-11.25,11.25,11.53,4.96,4.62,4.62,4.63
21.87,-6.48,-11.16,-6.48,-11.16,11.16,11.44,5.10,4.68,4.68,4.68
22.09,-6.34,-11.07,-6.34,-11.07,11.07,11.33,5.23,4.73,4.73,4.73
22.31,-6.19,-10.97,-6.19,-10.97,10.97,11.22,5.38,4.79,4.78,4.78
22.54,-6.05,-10.87,-6.05,-10.87,10.87,11.10,5.52,4.82,4.82,4.82
22.76,-5.90,-10.76,-5.90,-10.77,10.77,10.98,5.67,4.87,4.87,4.86
22.99,-5.76,-10.65,-5.75,-10.66,10.66,10.86,5.82,4.90,4.91,4.89
23.22,-5.61,-10.54,-5.61,-10.55,10.55,10.73,5.98,4.94,4.94,4.93
23.45,-5.47,-10.44,-5.46,-10.44,10.44,10.60,6.14,4.98,4.98,4.97
23.69,-5.32,-10.33,-5.32,-10.34,10.34,10.47,6.30,5.02,5.02,5.01
23.92,-5.18,-10.23,-5.17,-10.23,10.23,10.34,6.47,5.05,5.05,5.05
24.16,-5.03,-10.13,-5.03,-10.12,10.12,10.21,6.64,5.09,5.09,5.10
24.40,-4.89,-10.02,-4.89,-10.01,10.01,10.08,6.81,5.12,5.12,5.13
24.65,-4.75,-9.90,-4.74,-9.90,9.90,9.95,6.99,5.15,5.16,5.15
24.89,-4.60,-9.78,-4.60,-9.79,9.79,9.82,7.17,5.20,5.19,5.18
25.14,-4.46,-9.68,-4.46,-9.68,9.68,9.69,7.36,5.23,5.22,5.22
25.39,-4.32,-9.57,-4.32,-9.57,9.57,9.57,7.54,5.26,5.26,5.25
25.65,-4.18,-9.47,-4.18,-9.47,9.47,9.44,7.73,5.29,5.29,5.29
25.91,-4.04,-9.35,-4.04,-9.36,9.36,9.32,7.92,5.32,5.32,5.31
26.16,-3.90,-9.24,-3.90,-9.25,9.25,9.20,8.11,5.35,5.35,5.34
26.43,-3.76,-9.14,-3.76,-9.14,9.14,9.08,8.30,5.38,5.38,5.38
26.69,-3.62,-9.03,-3.62,-9.03,9.03,8.96,8.49,5.41,5.41,5.41
26.96,-3.48,-8.92,-3.48,-8.92,8.92,8.85,8.68,5.44,5.44,5.44
27.23,-3.35,-8.82,-3.34,-8.81,8.81,8.74,8.86,5.47,5.47,5.47
27.50,-3.21,-8.71,-3.21,-8.71,8.71,8.63,9.04,5.50,5.50,5.50
27.77,-3.07,-8.59,-3.07,-8.60,8.60,8.52,9.22,5.54,5.53,5.52
28.05,-2.94,-8.50,-2.94,-8.50,8.50,8.42,9.39,5.56,5.56,5.56
28.33,-2.81,-8.39,-2.80,-8.40,8.40,8.31,9.56,5.59,5.59,5.58
28.62,-2.68,-8.29,-2.67,-8.29,8.29,8.21,9.71,5.61,5.62,5.61
28.90,-2.54,-8.19,-2.54,-8.19,8.19,8.12,9.85,5.65,5.65,5.65
29.19,-2.42,-8.09,-2.41,-8.09,8.09,8.02,9.98,5.67,5.68,5.67
29.48,-2.29,-8.01,-2.29,-7.99,7.99,7.93,10.10,5.71,5.71,5.72
29.78,-2.16,-7.89,-2.16,-7.90,7.90,7.84,10.20,5.74,5.74,5.73
30.08,-2.03,-7.79,-2.04,-7.80,7.80,7.76,10.28,5.77,5.76,5.76
30.38,-1.91,-7.70,-1.92,-7.71,7.71,7.67,10.34,5.80,5.79,5.79
30.68,-1.79,-7.61,-1.80,-7.62,7.62,7.59,10.39,5.83,5.82,5.82
30.99,-1.68,-7.52,-1.68,-7.53,7.53,7.51,10.41,5.85,5.84,5.84
31.30,-1.57,-7.43,-1.57,-7.44,7.44,7.44,10.41,5.87,5.87,5.86
31.61,-1.46,-7.35,-1.46,-7.35,7.35,7.36,10.39,5.89,5.89,5.89
31.93,-1.36,-7.27,-1.35,-7.27,7.27,7.29,10.36,5.91,5.92,5.91
32.24,-1.25,-7.18,-1.24,-7.18,7.18,7.23,10.30,5.93,5.94,5.93
32.57,-1.14,-7.10,-1.13,-7.09,7.09,7.16,10.22,5.96,5.96,5.96
32.89,-1.03,-7.01,-1.03,-7.01,7.01,7.09,10.12,5.98,5.98,5.98
33.22,-0.93,-6.93,-0.93,-6.93,6.93,7.03,10.01,6.00,6.00,6.00
33.55,-0.83,-6.85,-0.83,-6.85,6.85,6.97,9.88,6.02,6.02,6.02
33.89,-0.73,-6.76,-0.73,-6.76,6.76,6.91,9.74,6.03,6.03,6.03
34.23,-0.63,-6.68,-0.63,-6.68,6.68,6.86,9.59,6.05,6.05,6.05
34.57,-0.53,-6.59,-0.53,-6.59,6.59,6.80,9.43,6.07,6.06,6.06
34.92,-0.43,-6.50,-0.44,-6.51,6.51,6.74,9.26,6.08,6.07,6.07
35.27,-0.34,-6.43,-0.34,-6.42,6.42,6.69,9.09,6.09,6.08,6.09
35.62,-0.25,-6.33,-0.25,-6.34,6.34,6.63,8.90,6.09,6.09,6.08
35.97,-0.17,-6.26,-0.16,-6.26,6.26,6.57,8.72,6.09,6.10,6.09
36.33,-0.08,-6.19,-0.07,-6.17,6.17,6.52,8.53,6.10,6.10,6.11
36.70,0.01,-6.09,0.02,-6.09,6.09,6.46,8.34,6.10,6.10,6.10
37.06,0.10,-6.00,0.10,-6.00,6.00,6.40,8.15,6.11,6.11,6.10
37.43,0.19,-5.91,0.19,-5.92,5.92,6.34,7.96,6.11,6.11,6.10
37.81,0.27,-5.83,0.27,-5.84,5.84,6.28,7.77,6.11,6.10,6.10
38.19,0.36,-5.74,0.35,-5.75,5.75,6.21,7.58,6.11,6.10,6.10
38.57,0.43,-5.67,0.43,-5.67,5.67,6.15,7.39,6.10,6.10,6.10
38.95,0.50,-5.60,0.51,-5.59,5.59,6.08,7.21,6.09,6.10,6.10
39.34,0.58,-5.50,0.59,-5.50,5.50,6.00,7.02,6.09,6.09,6.08
39.74,0.66,-5.42,0.67,-5.42,5.42,5.93,6.85,6.08,6.09,6.08
40.14,0.74,-5.33,0.74,-5.34,5.34,5.85,6.67,6.08,6.08,6.07
40.54,0.81,-5.26,0.82,-5.26,5.26,5.77,6.50,6.07,6.07,6.07
40.94,0.89,-5.17,0.89,-5.18,5.18,5.68,6.33,6.07,6.07,6.06
41.35,0.96,-5.10,0.96,-5.10,5.10,5.60,6.16,6.06,6.06,6.06
41.76,1.03,-5.02,1.03,-5.02,5.02,5.51,6.00,6.05,6.05,6.05
42.18,1.10,-4.94,1.10,-4.94,4.94,5.41,5.84,6.04,6.04,6.04
42.60,1.17,-4.86,1.17,-4.86,4.86,5.32,5.69,6.03,6.03,6.03
43.03,1.24,-4.79,1.24,-4.78,4.78,5.22,5.54,6.02,6.02,6.03
43.46,1.31,-4.71,1.30,-4.71,4.71,5.12,5.39,6.02,6.01,6.02
43.90,1.37,-4.63,1.37,-4.63,4.63,5.02,5.25,6.01,6.00,6.00
44.33,1.43,-4.55,1.43,-4.56,4.56,4.92,5.11,6.00,5.99,5.98
44.78,1.49,-4.48,1.49,-4.49,4.49,4.82,4.98,5.98,5.98,5.97
45.23,1.55,-4.41,1.55,-4.42,4.42,4.71,4.85,5.97,5.97,5.96
45.68,1.60,-4.35,1.61,-4.35,4.35,4.61,4.72,5.95,5.96,5.95
46.13,1.66,-4.28,1.67,-4.28,4.28,4.50,4.60,5.95,5.95,5.94
46.60,1.72,-4.22,1.72,-4.22,4.22,4.40,4.48,5.94,5.94,5.94
47.06,1.78,-4.15,1.78,-4.15,4.15,4.29,4.36,5.93,5.93,5.93
47.53,1.83,-4.09,1.83,-4.09,4.09,4.19,4.25,5.92,5.92,5.92
48.01,1.88,-4.04,1.89,-4.02,4.02,4.08,4.14,5.90,5.91,5.92
48.49,1.94,-3.97,1.94,-3.96,3.96,3.98,4.03,5.90,5.91,5.91
48.97,2.00,-3.90,2.00,-3.90,3.90,3.88,3.92,5.90,5.90,5.90
49.46,2.05,-3.83,2.05,-3.84,3.84,3.78,3.82,5.90,5.90,5.88
49.96,2.10,-3.77,2.11,-3.79,3.79,3.68,3.72,5.89,5.89,5.87
50.46,2.16,-3.72,2.16,-3.73,3.73,3.58,3.63,5.89,5.89,5.88
50.96,2.22,-3.66,2.21,-3.67,3.67,3.48,3.53,5.89,5.88,5.88
51.47,2.27,-3.60,2.27,-3.61,3.61,3.39,3.44,5.89,5.88,5.87
51.99,2.32,-3.55,2.32,-3.56,3.56,3.30,3.36,5.88,5.88,5.87
52.51,2.37,-3.50,2.37,-3.50,3.50,3.21,3.27,5.87,5.87,5.87
53.03,2.42,-3.45,2.43,-3.44,3.44,3.12,3.19,5.86,5.87,5.87
53.56,2.47,-3.40,2.48,-3.38,3.38,3.03,3.11,5.85,5.86,5.87
54.10,2.52,-3.34,2.53,-3.32,3.32,2.95,3.03,5.85,5.86,5.86
54.64,2.58,-3.27,2.58,-3.27,3.27,2.86,2.95,5.85,5.85,5.85
55.18,2.64,-3.20,2.64,-3.21,3.21,2.78,2.87,5.85,5.84,5.84
55.74,2.69,-3.13,2.69,-3.14,3.14,2.70,2.80,5.84,5.83,5.82
56.29,2.74,-3.08,2.74,-3.08,3.08,2.62,2.73,5.82,5.82,5.82
56.86,2.80,-3.00,2.79,-3.01,3.01,2.55,2.66,5.82,5.81,5.80
57.42,2.84,-2.94,2.85,-2.95,2.95,2.47,2.59,5.79,5.79,5.78
58.00,2.89,-2.88,2.90,-2.87,2.87,2.40,2.52,5.77,5.77,5.77
58.58,2.94,-2.81,2.95,-2.80,2.80,2.33,2.46,5.74,5.75,5.75
59.16,2.99,-2.75,3.00,-2.73,2.73,2.26,2.39,5.72,5.73,5.74
59.76,3.05,-2.67,3.05,-2.66,2.66,2.20,2.33,5.71,5.71,5.72
60.35,3.10,-2.59,3.10,-2.58,2.58,2.13,2.27,5.69,5.69,5.69
60.96,3.16,-2.52,3.15,-2.51,2.51,2.07,2.20,5.67,5.66,5.68
61.57,3.20,-2.43,3.20,-2.44,2.44,2.01,2.14,5.64,5.64,5.63
62.18,3.24,-2.36,3.24,-2.37,2.37,1.95,2.08,5.61,5.62,5.60
62.80,3.29,-2.30,3.29,-2.30,2.30,1.89,2.03,5.60,5.59,5.59
63.43,3.34,-2.21,3.33,-2.24,2.24,1.83,1.97,5.58,5.57,5.55
64.07,3.38,-2.15,3.38,-2.17,2.17,1.78,1.91,5.56,5.55,5.53
64.71,3.42,-2.10,3.42,-2.11,2.11,1.72,1.86,5.53,5.53,5.52
65.35,3.45,-2.05,3.46,-2.05,2.05,1.67,1.80,5.51,5.51,5.50
66.01,3.49,-2.00,3.50,-2.00,2.00,1.62,1.75,5.49,5.50,5.49
66.67,3.53,-1.95,3.54,-1.95,1.95,1.57,1.69,5.48,5.48,5.48
67.33,3.57,-1.90,3.57,-1.90,1.90,1.52,1.64,5.47,5.47,5.47
68.01,3.60,-1.86,3.61,-1.85,1.85,1.47,1.59,5.46,5.46,5.46
68.69,3.64,-1.81,3.65,-1.81,1.81,1.42,1.53,5.45,5.46,5.45
69.37,3.68,-1.77,3.68,-1.77,1.77,1.38,1.48,5.45,5.45,5.45
70.07,3.72,-1.72,3.72,-1.73,1.73,1.33,1.43,5.45,5.44,5.44
70.77,3.76,-1.68,3.75,-1.69,1.69,1.29,1.38,5.45,5.43,5.44
71.48,3.79,-1.64,3.78,-1.64,1.64,1.25,1.33,5.44,5.42,5.43
72.19,3.82,-1.59,3.81,-1.60,1.60,1.21,1.28,5.42,5.41,5.41
72.91,3.84,-1.57,3.85,-1.56,1.56,1.17,1.23,5.40,5.40,5.41
73.64,3.87,-1.52,3.88,-1.51,1.51,1.12,1.18,5.39,5.39,5.39
74.38,3.90,-1.48,3.91,-1.47,1.47,1.09,1.13,5.37,5.38,5.38
75.12,3.93,-1.43,3.94,-1.42,1.42,1.05,1.09,5.36,5.37,5.36
75.87,3.96,-1.39,3.98,-1.38,1.38,1.01,1.04,5.34,5.35,5.35
76.63,4.00,-1.34,4.01,-1.33,1.33,0.97,0.99,5.33,5.34,5.34
77.40,4.03,-1.29,4.04,-1.28,1.28,0.94,0.94,5.32,5.33,5.32
78.17,4.06,-1.24,4.08,-1.24,1.24,0.90,0.90,5.30,5.32,5.30
78.95,4.11,-1.19,4.11,-1.19,1.19,0.86,0.85,5.31,5.30,5.30
79.74,4.15,-1.14,4.14,-1.15,1.15,0.83,0.81,5.31,5.30,5.29
80.54,4.18,-1.10,4.17,-1.11,1.11,0.80,0.76,5.30,5.29,5.28
81.35,4.21,-1.06,4.20,-1.08,1.08,0.76,0.72,5.29,5.28,5.27
82.16,4.24,-1.02,4.23,-1.05,1.05,0.73,0.67,5.29,5.28,5.26
82.98,4.27,-1.00,4.26,-1.02,1.02,0.70,0.63,5.29,5.27,5.27
83.81,4.29,-0.97,4.28,-0.99,0.99,0.66,0.58,5.28,5.27,5.26
84.65,4.30,-0.95,4.30,-0.97,0.97,0.63,0.54,5.27,5.27,5.25
85.50,4.32,-0.94,4.32,-0.95,0.95,0.60,0.49,5.27,5.26,5.26
86.35,4.33,-0.93,4.33,-0.93,0.93,0.57,0.45,5.26,5.26,5.26
87.22,4.34,-0.91,4.35,-0.91,0.91,0.54,0.41,5.25,5.25,5.25
88.09,4.36,-0.89,4.36,-0.89,0.89,0.51,0.36,5.25,5.25,5.25
88.97,4.37,-0.87,4.38,-0.86,0.86,0.48,0.32,5.24,5.24,5.24
89.86,4.39,-0.84,4.39,-0.83,0.83,0.45,0.27,5.23,5.23,5.23
90.76,4.40,-0.81,4.41,-0.80,0.80,0.42,0.23,5.20,5.21,5.21
91.66,4.41,-0.78,4.43,-0.76,0.76,0.39,0.19,5.17,5.19,5.19
92.58,4.43,-0.73,4.45,-0.71,0.71,0.36,0.14,5.14,5.16,5.16
93.51,4.46,-0.68,4.48,-0.66,0.66,0.33,0.10,5.12,5.14,5.14
94.44,4.49,-0.62,4.50,-0.60,0.60,0.30,0.06,5.09,5.10,5.11
95.39,4.52,-0.55,4.53,-0.53,0.53,0.27,0.01,5.05,5.06,5.07
96.34,4.55,-0.48,4.56,-0.46,0.46,0.24,-0.03,5.01,5.02,5.03
97.30,4.58,-0.39,4.59,-0.39,0.39,0.21,-0.07,4.97,4.97,4.97
98.28,4.62,-0.30,4.61,-0.31,0.31,0.18,-0.12,4.93,4.92,4.92
99.26,4.65,-0.22,4.63,-0.24,0.24,0.15,-0.16,4.89,4.87,4.87
100.25,4.67,-0.14,4.65,-0.16,0.16,0.13,-0.20,4.83,4.81,4.81
101.25,4.69,-0.06,4.67,-0.09,0.09,0.10,-0.24,4.78,4.76,4.75
102.27,4.70,0.01,4.69,-0.01,0.01,0.07,-0.29,4.71,4.70,4.69
103.29,4.71,0.08,4.70,0.06,-0.06,0.04,-0.33,4.65,4.64,4.63
104.32,4.71,0.13,4.70,0.13,-0.13,0.01,-0.37,4.59,4.58,4.58
105.37,4.71,0.20,4.71,0.19,-0.19,-0.02,-0.41,4.52,4.52,4.51
106.42,4.71,0.26,4.71,0.25,-0.25,-0.05,-0.45,4.46,4.46,4.45
107.48,4.70,0.30,4.71,0.31,-0.31,-0.08,-0.49,4.39,4.40,4.40
108.56,4.69,0.35,4.71,0.36,-0.36,-0.11,-0.53,4.33,4.34,4.34
109.64,4.69,0.41,4.70,0.42,-0.42,-0.14,-0.57,4.28,4.29,4.28
110.74,4.69,0.46,4.70,0.47,-0.47,-0.17,-0.61,4.22,4.23,4.23
111.85,4.69,0.50,4.70,0.52,-0.52,-0.21,-0.65,4.18,4.18,4.19
112.97,4.69,0.57,4.69,0.56,-0.56,-0.24,-0.68,4.13,4.13,4.12
114.10,4.69,0.61,4.69,0.61,-0.61,-0.27,-0.72,4.08,4.08,4.08
115.24,4.69,0.66,4.69,0.65,-0.65,-0.30,-0.75,4.04,4.04,4.03
116.39,4.69,0.71,4.69,0.70,-0.70,-0.33,-0.79,4.00,3.99,3.98
117.55,4.69,0.75,4.69,0.74,-0.74,-0.37,-0.82,3.96,3.95,3.94
118.73,4.69,0.79,4.69,0.78,-0.78,-0.40,-0.85,3.92,3.92,3.90
119.92,4.69,0.82,4.69,0.81,-0.81,-0.44,-0.88,3.88,3.88,3.87
121.12,4.69,0.85,4.69,0.85,-0.85,-0.47,-0.91,3.84,3.84,3.84
122.33,4.69,0.88,4.69,0.88,-0.88,-0.51,-0.93,3.81,3.81,3.81
123.55,4.69,0.91,4.69,0.91,-0.91,-0.54,-0.96,3.78,3.78,3.78
124.79,4.69,0.94,4.69,0.94,-0.94,-0.58,-0.98,3.75,3.75,3.75
126.03,4.69,0.96,4.69,0.97,-0.97,-0.62,-1.00,3.72,3.72,3.73
127.29,4.69,0.99,4.69,1.00,-1.00,-0.66,-1.02,3.70,3.70,3.70
128.57,4.69,1.03,4.69,1.02,-1.02,-0.70,-1.04,3.67,3.67,3.66
129.85,4.69,1.05,4.69,1.05,-1.05,-0.73,-1.06,3.64,3.64,3.64
131.15,4.69,1.08,4.69,1.08,-1.08,-0.78,-1.07,3.61,3.61,3.61
132.46,4.69,1.12,4.69,1.11,-1.11,-0.82,-1.09,3.58,3.58,3.57
133.79,4.69,1.14,4.69,1.14,-1.14,-0.86,-1.10,3.55,3.55,3.55
135.12,4.69,1.17,4.69,1.17,-1.17,-0.90,-1.11,3.52,3.52,3.52
136.48,4.69,1.20,4.69,1.20,-1.20,-0.94,-1.13,3.49,3.49,3.49
137.84,4.69,1.23,4.69,1.24,-1.24,-0.99,-1.14,3.46,3.46,3.46
139.22,4.69,1.28,4.69,1.27,-1.27,-1.03,-1.15,3.42,3.42,3.41
140.61,4.69,1.31,4.69,1.30,-1.30,-1.08,-1.16,3.39,3.39,3.38
142.02,4.69,1.33,4.69,1.34,-1.34,-1.13,-1.17,3.36,3.36,3.36
143.44,4.69,1.37,4.69,1.37,-1.37,-1.18,-1.17,3.32,3.32,3.32
144.87,4.69,1.41,4.69,1.41,-1.41,-1.22,-1.18,3.29,3.29,3.28
146.32,4.69,1.45,4.69,1.44,-1.44,-1.27,-1.19,3.25,3.25,3.24
147.78,4.69,1.48,4.69,1.48,-1.48,-1.32,-1.20,3.21,3.21,3.21
149.26,4.69,1.51,4.69,1.52,-1.52,-1.37,-1.21,3.17,3.17,3.18
150.75,4.69,1.56,4.69,1.56,-1.56,-1.43,-1.22,3.13,3.13,3.13
152.26,4.69,1.60,4.69,1.60,-1.60,-1.48,-1.23,3.09,3.09,3.09
153.78,4.69,1.63,4.69,1.64,-1.64,-1.53,-1.24,3.05,3.05,3.06
155.32,4.69,1.68,4.69,1.68,-1.68,-1.58,-1.25,3.01,3.01,3.01
156.88,4.69,1.71,4.69,1.72,-1.72,-1.64,-1.26,2.97,2.97,2.98
158.44,4.69,1.77,4.69,1.77,-1.77,-1.69,-1.28,2.93,2.93,2.92
160.03,4.69,1.81,4.69,1.81,-1.81,-1.74,-1.29,2.88,2.88,2.88
161.63,4.69,1.86,4.69,1.85,-1.85,-1.80,-1.30,2.84,2.84,2.83
163.24,4.69,1.90,4.69,1.89,-1.89,-1.85,-1.32,2.80,2.80,2.79
164.88,4.69,1.94,4.69,1.94,-1.94,-1.90,-1.34,2.76,2.76,2.75
166.53,4.69,1.98,4.69,1.98,-1.98,-1.96,-1.35,2.71,2.71,2.71
168.19,4.69,2.02,4.69,2.02,-2.02,-2.01,-1.37,2.67,2.67,2.67
169.87,4.69,2.06,4.69,2.06,-2.06,-2.06,-1.39,2.64,2.63,2.63
171.57,4.69,2.09,4.69,2.09,-2.09,-2.11,-1.41,2.60,2.60,2.60
173.29,4.69,2.13,4.69,2.13,-2.13,-2.16,-1.44,2.56,2.56,2.56
175.02,4.69,2.17,4.69,2.16,-2.16,-2.21,-1.46,2.53,2.53,2.52
176.77,4.69,2.20,4.69,2.20,-2.20,-2.25,-1.48,2.50,2.50,2.49
178.54,4.69,2.23,4.70,2.23,-2.23,-2.30,-1.51,2.47,2.47,2.46
180.32,4.69,2.26,4.70,2.26,-2.26,-2.34,-1.54,2.44,2.44,2.43
182.13,4.69,2.28,4.70,2.29,-2.29,-2.37,-1.57,2.41,2.42,2.41
183.95,4.69,2.30,4.71,2.31,-2.31,-2.41,-1.60,2.38,2.40,2.39
185.79,4.69,2.32,4.71,2.33,-2.33,-2.44,-1.63,2.36,2.37,2.37
187.65,4.70,2.35,4.71,2.35,-2.35,-2.47,-1.66,2.35,2.36,2.35
189.52,4.71,2.37,4.71,2.37,-2.37,-2.50,-1.69,2.35,2.34,2.34
191.42,4.71,2.39,4.70,2.38,-2.38,-2.52,-1.73,2.33,2.32,2.32
193.33,4.71,2.40,4.69,2.38,-2.38,-2.54,-1.76,2.33,2.31,2.31
195.27,4.70,2.40,4.68,2.39,-2.39,-2.55,-1.80,2.32,2.30,2.30
197.22,4.69,2.41,4.67,2.38,-2.38,-2.56,-1.84,2.31,2.28,2.28
199.19,4.66,2.40,4.65,2.37,-2.37,-2.57,-1.88,2.29,2.27,2.26
201.18,4.63,2.38,4.62,2.36,-2.36,-2.57,-1.91,2.27,2.26,2.25
203.19,4.60,2.35,4.60,2.35,-2.35,-2.57,-1.95,2.25,2.25,2.25
205.23,4.57,2.34,4.57,2.33,-2.33,-2.56,-1.99,2.24,2.23,2.23
207.28,4.54,2.31,4.54,2.32,-2.32,-2.55,-2.03,2.23,2.22,2.23
209.35,4.50,2.29,4.51,2.30,-2.30,-2.53,-2.07,2.20,2.21,2.21
211.44,4.47,2.28,4.48,2.28,-2.28,-2.52,-2.11,2.19,2.20,2.19
213.56,4.44,2.26,4.46,2.27,-2.27,-2.49,-2.14,2.17,2.19,2.18
215.69,4.40,2.22,4.44,2.26,-2.26,-2.47,-2.18,2.14,2.18,2.18
217.85,4.38,2.22,4.42,2.25,-2.25,-2.44,-2.21,2.13,2.17,2.16
220.03,4.37,2.22,4.40,2.25,-2.25,-2.41,-2.25,2.12,2.15,2.15
222.23,4.37,2.24,4.38,2.24,-2.24,-2.37,-2.28,2.13,2.14,2.13
224.45,4.37,2.24,4.37,2.24,-2.24,-2.34,-2.31,2.13,2.13,2.13
226.70,4.37,2.26,4.35,2.24,-2.24,-2.30,-2.34,2.13,2.11,2.11
228.96,4.36,2.26,4.34,2.24,-2.24,-2.26,-2.36,2.12,2.10,2.10
231.25,4.35,2.26,4.32,2.24,-2.24,-2.21,-2.39,2.11,2.08,2.09
233.57,4.33,2.26,4.31,2.24,-2.24,-2.17,-2.40,2.09,2.07,2.07
235.90,4.30,2.24,4.29,2.23,-2.23,-2.12,-2.42,2.07,2.05,2.06
238.26,4.28,2.24,4.27,2.23,-2.23,-2.08,-2.43,2.05,2.04,2.04
240.64,4.24,2.22,4.25,2.22,-2.22,-2.03,-2.44,2.02,2.03,2.02
243.05,4.21,2.20,4.22,2.20,-2.20,-1.98,-2.44,2.01,2.02,2.01
245.48,4.18,2.18,4.19,2.18,-2.18,-1.93,-2.44,2.00,2.01,2.00
247.93,4.15,2.16,4.16,2.16,-2.16,-1.88,-2.44,1.99,2.00,1.99
250.41,4.13,2.15,4.13,2.14,-2.14,-1.83,-2.43,2.00,2.00,1.98
252.92,4.10,2.11,4.10,2.10,-2.10,-1.79,-2.42,2.00,2.00,1.99
255.45,4.07,2.08,4.07,2.07,-2.07,-1.74,-2.40,2.00,2.00,1.99
258.00,4.04,2.04,4.04,2.04,-2.04,-1.69,-2.38,2.01,2.00,2.00
260.58,4.01,2.01,4.01,2.00,-2.00,-1.64,-2.35,2.01,2.01,2.00
263.19,3.98,1.97,3.98,1.96,-1.96,-1.59,-2.32,2.02,2.02,2.01
265.82,3.94,1.92,3.95,1.92,-1.92,-1.55,-2.29,2.02,2.03,2.02
268.48,3.92,1.88,3.92,1.88,-1.88,-1.50,-2.25,2.04,2.04,2.04
271.16,3.90,1.84,3.90,1.84,-1.84,-1.45,-2.21,2.06,2.06,2.06
273.87,3.86,1.79,3.87,1.80,-1.80,-1.41,-2.17,2.07,2.07,2.07
276.61,3.83,1.73,3.84,1.76,-1.76,-1.37,-2.12,2.08,2.09,2.10
279.38,3.81,1.71,3.82,1.71,-1.71,-1.32,-2.07,2.10,2.10,2.10
282.17,3.79,1.67,3.79,1.67,-1.67,-1.28,-2.02,2.12,2.12,2.12
284.99,3.77,1.64,3.77,1.63,-1.63,-1.24,-1.96,2.14,2.13,2.13
287.84,3.74,1.59,3.74,1.59,-1.59,-1.20,-1.91,2.15,2.15,2.15
290.72,3.72,1.55,3.72,1.55,-1.55,-1.16,-1.85,2.17,2.17,2.17
293.63,3.69,1.51,3.70,1.51,-1.51,-1.12,-1.79,2.18,2.19,2.18
296.57,3.67,1.46,3.68,1.47,-1.47,-1.08,-1.73,2.21,2.21,2.21
299.53,3.66,1.44,3.65,1.43,-1.43,-1.05,-1.67,2.24,2.23,2.22
302.53,3.63,1.40,3.63,1.38,-1.38,-1.01,-1.60,2.25,2.25,2.23
305.55,3.61,1.35,3.61,1.34,-1.34,-0.98,-1.54,2.27,2.27,2.26
308.61,3.58,1.30,3.58,1.29,-1.29,-0.94,-1.48,2.29,2.29,2.28
311.69,3.54,1.23,3.55,1.24,-1.24,-0.91,-1.41,2.30,2.31,2.31
314.81,3.53,1.18,3.53,1.19,-1.19,-0.87,-1.35,2.34,2.33,2.35
317.96,3.50,1.14,3.50,1.14,-1.14,-0.84,-1.28,2.36,2.36,2.36
321.14,3.48,1.10,3.47,1.09,-1.09,-0.81,-1.22,2.39,2.38,2.38
324.35,3.45,1.05,3.44,1.04,-1.04,-0.78,-1.15,2.41,2.40,2.40
327.59,3.41,0.99,3.41,0.99,-0.99,-0.75,-1.09,2.43,2.43,2.42
330.87,3.38,0.94,3.38,0.93,-0.93,-0.72,-1.03,2.45,2.45,2.44
334.18,3.34,0.87,3.35,0.88,-0.88,-0.70,-0.96,2.46,2.47,2.47
337.52,3.30,0.81,3.33,0.83,-0.83,-0.67,-0.90,2.47,2.50,2.49
340.90,3.29,0.78,3.30,0.78,-0.78,-0.64,-0.84,2.51,2.52,2.51
344.30,3.26,0.72,3.27,0.73,-0.73,-0.61,-0.77,2.54,2.54,2.54
347.75,3.24,0.68,3.24,0.67,-0.67,-0.59,-0.71,2.57,2.57,2.56
351.23,3.21,0.62,3.21,0.62,-0.62,-0.56,-0.65,2.59,2.59,2.59
354.74,3.19,0.57,3.18,0.57,-0.57,-0.54,-0.59,2.63,2.62,2.62
358.28,3.16,0.53,3.15,0.51,-0.51,-0.51,-0.53,2.65,2.64,2.63
361.87,3.14,0.48,3.13,0.46,-0.46,-0.49,-0.47,2.68,2.66,2.66
365.49,3.10,0.41,3.10,0.41,-0.41,-0.47,-0.41,2.69,2.69,2.69
369.14,3.07,0.37,3.07,0.36,-0.36,-0.44,-0.35,2.71,2.71,2.70
372.83,3.04,0.31,3.05,0.31,-0.31,-0.42,-0.30,2.73,2.73,2.73
376.56,3.00,0.25,3.02,0.26,-0.26,-0.40,-0.24,2.74,2.76,2.75
380.33,2.98,0.20,2.99,0.21,-0.21,-0.38,-0.18,2.77,2.78,2.78
384.13,2.95,0.16,2.96,0.16,-0.16,-0.36,-0.12,2.79,2.80,2.79
387.97,2.93,0.12,2.93,0.12,-0.12,-0.33,-0.07,2.81,2.81,2.81
391.85,2.90,0.08,2.90,0.07,-0.07,-0.31,-0.01,2.83,2.83,2.82
395.77,2.87,0.02,2.87,0.03,-0.03,-0.29,0.04,2.84,2.84,2.85
399.73,2.85,-0.01,2.85,-0.01,0.01,-0.27,0.10,2.86,2.85,2.86
403.72,2.83,-0.03,2.82,-0.04,0.04,-0.25,0.15,2.88,2.86,2.86
407.76,2.80,-0.07,2.79,-0.08,0.08,-0.23,0.20,2.88,2.87,2.87
411.84,2.76,-0.12,2.76,-0.11,0.11,-0.21,0.26,2.87,2.87,2.88
415.96,2.73,-0.14,2.74,-0.14,0.14,-0.19,0.31,2.87,2.87,2.87
420.12,2.70,-0.17,2.71,-0.16,0.16,-0.17,0.36,2.87,2.87,2.87
424.32,2.67,-0.20,2.68,-0.19,0.19,-0.15,0.41,2.86,2.87,2.87
428.56,2.65,-0.22,2.66,-0.22,0.22,-0.13,0.46,2.87,2.87,2.87
432.85,2.62,-0.24,2.63,-0.24,0.24,-0.11,0.51,2.87,2.87,2.86
437.18,2.59,-0.27,2.60,-0.27,0.27,-0.09,0.55,2.86,2.87,2.86
441.55,2.57,-0.29,2.56,-0.30,0.30,-0.07,0.60,2.87,2.86,2.86
445.96,2.55,-0.30,2.54,-0.32,0.32,-0.05,0.65,2.88,2.86,2.85
450.42,2.51,-0.34,2.51,-0.35,0.35,-0.03,0.69,2.86,2.86,2.85
454.93,2.49,-0.36,2.48,-0.37,0.37,-0.01,0.73,2.87,2.85,2.85
459.48,2.45,-0.39,2.45,-0.40,0.40,0.01,0.77,2.85,2.85,2.84
464.07,2.41,-0.44,2.42,-0.42,0.42,0.03,0.81,2.84,2.85,2.85
468.71,2.38,-0.47,2.40,-0.45,0.45,0.06,0.85,2.84,2.85,2.85
473.40,2.34,-0.50,2.36,-0.48,0.48,0.08,0.89,2.83,2.85,2.84
478.13,2.31,-0.54,2.33,-0.52,0.52,0.10,0.92,2.83,2.85,2.85
482.91,2.29,-0.55,2.30,-0.55,0.55,0.12,0.96,2.85,2.85,2.84
487.74,2.28,-0.57,2.26,-0.59,0.59,0.14,0.99,2.87,2.85,2.85
492.62,2.26,-0.60,2.22,-0.63,0.63,0.17,1.02,2.89,2.85,2.86
497.55,2.21,-0.64,2.19,-0.67,0.67,0.19,1.05,2.88,2.86,2.85
502.52,2.17,-0.69,2.15,-0.71,0.71,0.22,1.07,2.88,2.86,2.86
507.55,2.12,-0.74,2.12,-0.75,0.75,0.24,1.10,2.87,2.87,2.86
512.62,2.07,-0.80,2.09,-0.79,0.79,0.27,1.12,2.86,2.88,2.87
517.75,2.02,-0.86,2.05,-0.83,0.83,0.29,1.14,2.86,2.88,2.88
522.93,1.98,-0.91,2.01,-0.88,0.88,0.32,1.16,2.86,2.89,2.89
528.16,1.95,-0.94,1.97,-0.93,0.93,0.35,1.18,2.88,2.90,2.89
533.44,1.93,-0.97,1.93,-0.98,0.98,0.38,1.20,2.91,2.91,2.90
538.77,1.90,-1.02,1.89,-1.03,1.03,0.41,1.22,2.93,2.92,2.92
544.16,1.88,-1.05,1.85,-1.08,1.08,0.44,1.23,2.96,2.94,2.93
