frequency,raw,error,smoothed,error_smoothed,equalization,parametric_eq,fixed_band_eq,equalized_raw,equalized_smoothed,target
20.00,-15.24,-15.06,-15.24,-15.08,15.08,15.56,6.01,-0.16,-0.15,-0.18
20.20,-15.12,-15.03,-15.12,-15.04,15.04,15.49,6.15,-0.08,-0.08,-0.09
20.40,-15.00,-14.99,-15.01,-15.00,15.00,15.41,6.30,0.00,-0.00,-0.01
20.61,-14.89,-14.95,-14.89,-14.96,14.96,15.32,6.45,0.06,0.07,0.06
20.81,-14.77,-14.92,-14.77,-14.91,14.91,15.23,6.61,0.14,0.14,0.15
21.02,-14.65,-14.88,-14.65,-14.85,14.85,15.13,6.76,0.20,0.20,0.23
21.23,-14.53,-14.82,-14.53,-14.80,14.80,15.03,6.93,0.27,0.27,0.29
21.44,-14.41,-14.76,-14.41,-14.74,14.74,14.93,7.10,0.33,0.33,0.35
21.66,-14.29,-14.69,-14.29,-14.68,14.68,14.81,7.27,0.39,0.39,0.40
21.87,-14.17,-14.62,-14.17,-14.62,14.62,14.70,7.45,0.45,0.44,0.45
22.09,-14.05,-14.55,-14.05,-14.55,14.55,14.59,7.63,0.50,0.50,0.50
22.31,-13.93,-14.48,-13.93,-14.48,14.48,14.47,7.82,0.55,0.55,0.55
22.54,-13.81,-14.40,-13.81,-14.40,14.40,14.35,8.01,0.59,0.59,0.59
22.76,-13.69,-14.32,-13.69,-14.32,14.32,14.23,8.21,0.63,0.63,0.63
22.99,-13.57,-14.23,-13.57,-14.24,14.24,14.11,8.41,0.67,0.67,0.66
23.22,-13.44,-14.14,-13.44,-14.15,14.15,14.00,8.62,0.71,0.71,0.70
23.45,-13.32,-14.06,-13.32,-14.07,14.07,13.88,8.83,0.75,0.75,0.74
23.69,-13.19,-13.97,-13.20,-13.98,13.98,13.76,9.05,0.79,0.78,0.78
23.92,-13.07,-13.89,-13.07,-13.89,13.89,13.64,9.28,0.82,0.82,0.82
24.16,-12.95,-13.82,-12.95,-13.80,13.80,13.53,9.51,0.85,0.86,0.87
24.40,-12.82,-13.72,-12.82,-13.71,13.71,13.41,9.75,0.89,0.89,0.90
24.65,-12.70,-13.62,-12.70,-13.62,13.62,13.30,9.99,0.92,0.92,0.92
24.89,-12.57,-13.52,-12.57,-13.53,13.53,13.19,10.24,0.96,0.96,0.95
25.14,-12.45,-13.44,-12.45,-13.44,13.44,13.08,10.49,0.99,0.99,0.99
25.39,-12.32,-13.34,-12.32,-13.35,13.35,12.98,10.75,1.03,1.02,1.02
25.65,-12.20,-13.26,-12.20,-13.26,13.26,12.87,11.02,1.05,1.06,1.06
25.91,-12.08,-13.16,-12.08,-13.16,13.16,12.77,11.29,1.08,1.09,1.08
26.16,-11.95,-13.06,-11.95,-13.07,13.07,12.67,11.57,1.12,1.12,1.11
26.43,-11.82,-12.97,-11.83,-12.97,12.97,12.57,11.85,1.15,1.15,1.15
26.69,-11.70,-12.88,-11.70,-12.88,12.88,12.47,12.13,1.18,1.18,1.18
26.96,-11.57,-12.78,-11.58,-12.78,12.78,12.38,12.42,1.21,1.21,1.21
27.23,-11.45,-12.69,-11.45,-12.69,12.69,12.29,12.71,1.23,1.24,1.24
27.50,-11.32,-12.59,-11.32,-12.59,12.59,12.20,12.99,1.27,1.27,1.27
27.77,-11.20,-12.49,-11.20,-12.50,12.50,12.11,13.28,1.30,1.30,1.29
28.05,-11.08,-12.41,-11.07,-12.40,12.40,12.02,13.56,1.32,1.33,1.33
28.33,-10.95,-12.30,-10.95,-12.31,12.31,11.93,13.84,1.36,1.36,1.35
28.62,-10.83,-12.21,-10.83,-12.22,12.22,11.85,14.10,1.38,1.39,1.38
28.90,-10.70,-12.12,-10.71,-12.12,12.12,11.77,14.35,1.42,1.42,1.42
29.19,-10.58,-12.02,-10.58,-12.03,12.03,11.68,14.59,1.45,1.45,1.44
29.48,-10.46,-11.95,-10.46,-11.94,11.94,11.60,14.80,1.48,1.47,1.49
29.78,-10.33,-11.83,-10.34,-11.85,11.85,11.52,14.99,1.51,1.50,1.50
30.08,-10.21,-11.74,-10.22,-11.75,11.75,11.44,15.15,1.54,1.53,1.53
30.38,-10.10,-11.66,-10.11,-11.66,11.66,11.36,15.28,1.56,1.56,1.56
30.68,-9.99,-11.58,-9.99,-11.57,11.57,11.28,15.38,1.58,1.58,1.59
30.99,-9.87,-11.48,-9.87,-11.48,11.48,11.20,15.43,1.61,1.61,1.61
31.30,-9.76,-11.39,-9.75,-11.39,11.39,11.11,15.44,1.63,1.64,1.63
31.61,-9.64,-11.30,-9.64,-11.30,11.30,11.03,15.42,1.66,1.66,1.66
31.93,-9.52,-11.20,-9.52,-11.21,11.21,10.95,15.36,1.68,1.68,1.68
32.24,-9.40,-11.10,-9.41,-11.11,11.11,10.86,15.25,1.71,1.71,1.70
32.57,-9.29,-11.02,-9.29,-11.02,11.02,10.77,15.12,1.73,1.73,1.73
32.89,-9.18,-10.93,-9.18,-10.92,10.92,10.68,14.95,1.74,1.75,1.75
33.22,-9.06,-10.83,-9.06,-10.83,10.83,10.59,14.76,1.77,1.77,1.77
33.55,-8.94,-10.73,-8.94,-10.73,10.73,10.50,14.54,1.79,1.79,1.79
33.89,-8.83,-10.63,-8.83,-10.63,10.63,10.41,14.30,1.80,1.80,1.80
34.23,-8.71,-10.53,-8.71,-10.53,10.53,10.31,14.05,1.81,1.82,1.82
34.57,-8.59,-10.42,-8.59,-10.42,10.42,10.21,13.79,1.83,1.83,1.83
34.92,-8.48,-10.32,-8.48,-10.32,10.32,10.10,13.52,1.83,1.84,1.84
35.27,-8.36,-10.22,-8.36,-10.21,10.21,10.00,13.24,1.85,1.85,1.86
35.62,-8.24,-10.09,-8.24,-10.10,10.10,9.89,12.96,1.86,1.86,1.85
35.97,-8.13,-9.99,-8.13,-9.99,9.99,9.78,12.68,1.86,1.86,1.86
36.33,-8.01,-9.89,-8.01,-9.88,9.88,9.67,12.40,1.87,1.87,1.88
36.70,-7.90,-9.77,-7.90,-9.77,9.77,9.55,12.12,1.87,1.87,1.87
37.06,-7.78,-9.65,-7.79,-9.66,9.66,9.44,11.85,1.88,1.87,1.87
37.43,-7.67,-9.54,-7.67,-9.55,9.55,9.32,11.57,1.88,1.87,1.87
37.81,-7.56,-9.43,-7.56,-9.43,9.43,9.19,11.31,1.87,1.87,1.87
38.19,-7.45,-9.32,-7.45,-9.32,9.32,9.07,11.04,1.87,1.87,1.87
38.57,-7.34,-9.21,-7.34,-9.21,9.21,8.94,10.79,1.87,1.87,1.87
38.95,-7.23,-9.10,-7.24,-9.10,9.10,8.82,10.54,1.87,1.86,1.87
39.34,-7.13,-8.98,-7.13,-8.99,8.99,8.69,10.29,1.86,1.86,1.85
39.74,-7.02,-8.87,-7.02,-8.88,8.88,8.56,10.05,1.86,1.85,1.85
40.14,-6.92,-8.76,-6.92,-8.77,8.77,8.43,9.82,1.85,1.85,1.84
40.54,-6.82,-8.66,-6.82,-8.66,8.66,8.30,9.59,1.83,1.84,1.84
40.94,-6.71,-8.54,-6.71,-8.55,8.55,8.17,9.37,1.84,1.83,1.83
41.35,-6.61,-8.44,-6.61,-8.44,8.44,8.03,9.16,1.82,1.83,1.83
41.76,-6.51,-8.33,-6.51,-8.32,8.32,7.90,8.95,1.81,1.82,1.82
42.18,-6.41,-8.22,-6.40,-8.21,8.21,7.77,8.75,1.80,1.81,1.81
42.60,-6.30,-8.10,-6.30,-8.10,8.10,7.64,8.55,1.80,1.80,1.80
43.03,-6.20,-8.00,-6.20,-7.99,7.99,7.51,8.36,1.79,1.79,1.80
43.46,-6.10,-7.89,-6.10,-7.88,7.88,7.38,8.17,1.78,1.78,1.79
43.90,-5.99,-7.76,-6.00,-7.77,7.77,7.25,7.99,1.78,1.77,1.77
44.33,-5.90,-7.65,-5.90,-7.66,7.66,7.12,7.82,1.76,1.76,1.75
44.78,-5.80,-7.54,-5.80,-7.55,7.55,6.99,7.65,1.75,1.75,1.74
45.23,-5.70,-7.43,-5.70,-7.44,7.44,6.87,7.48,1.74,1.74,1.73
45.68,-5.61,-7.33,-5.61,-7.33,7.33,6.74,7.32,1.72,1.73,1.72
46.13,-5.51,-7.22,-5.51,-7.23,7.23,6.62,7.16,1.72,1.72,1.71
46.60,-5.41,-7.12,-5.41,-7.12,7.12,6.50,7.01,1.71,1.71,1.71
47.06,-5.32,-7.02,-5.32,-7.01,7.01,6.38,6.87,1.69,1.70,1.70
47.53,-5.22,-6.91,-5.22,-6.91,6.91,6.26,6.72,1.69,1.69,1.69
48.01,-5.13,-6.82,-5.13,-6.81,6.81,6.14,6.59,1.67,1.68,1.69
48.49,-5.03,-6.71,-5.03,-6.71,6.71,6.03,6.45,1.67,1.67,1.68
48.97,-4.94,-6.61,-4.94,-6.61,6.61,5.91,6.32,1.67,1.67,1.67
49.46,-4.84,-6.49,-4.85,-6.51,6.51,5.80,6.20,1.67,1.66,1.65
49.96,-4.75,-6.39,-4.76,-6.41,6.41,5.69,6.08,1.66,1.66,1.64
50.46,-4.66,-6.31,-4.66,-6.32,6.32,5.58,5.96,1.66,1.65,1.65
50.96,-4.57,-6.22,-4.57,-6.22,6.22,5.48,5.84,1.65,1.65,1.65
51.47,-4.47,-6.11,-4.48,-6.12,6.12,5.37,5.73,1.65,1.65,1.64
51.99,-4.38,-6.02,-4.39,-6.03,6.03,5.27,5.62,1.65,1.64,1.64
52.51,-4.30,-5.94,-4.29,-5.93,5.93,5.17,5.52,1.63,1.64,1.64
53.03,-4.21,-5.85,-4.20,-5.83,5.83,5.08,5.41,1.62,1.63,1.64
53.56,-4.12,-5.76,-4.11,-5.74,5.74,4.98,5.32,1.62,1.63,1.64
54.10,-4.02,-5.65,-4.02,-5.64,5.64,4.89,5.22,1.62,1.62,1.63
54.64,-3.92,-5.54,-3.93,-5.54,5.54,4.79,5.13,1.62,1.62,1.62
55.18,-3.82,-5.43,-3.83,-5.44,5.44,4.70,5.03,1.62,1.61,1.61
55.74,-3.74,-5.33,-3.74,-5.34,5.34,4.62,4.95,1.60,1.60,1.59
56.29,-3.65,-5.24,-3.65,-5.24,5.24,4.53,4.86,1.59,1.59,1.59
56.86,-3.55,-5.12,-3.56,-5.13,5.13,4.45,4.78,1.58,1.57,1.57
57.42,-3.47,-5.02,-3.47,-5.03,5.03,4.36,4.69,1.56,1.56,1.55
58.00,-3.38,-4.92,-3.38,-4.92,4.92,4.28,4.62,1.54,1.54,1.54
58.58,-3.29,-4.81,-3.29,-4.81,4.81,4.20,4.54,1.52,1.52,1.52
59.16,-3.20,-4.71,-3.20,-4.70,4.70,4.13,4.46,1.50,1.50,1.51
59.76,-3.11,-4.60,-3.11,-4.59,4.59,4.05,4.39,1.47,1.48,1.49
60.35,-3.02,-4.48,-3.02,-4.48,4.48,3.98,4.32,1.45,1.45,1.46
60.96,-2.94,-4.39,-2.94,-4.37,4.37,3.91,4.25,1.42,1.43,1.45
61.57,-2.85,-4.25,-2.85,-4.26,4.26,3.84,4.18,1.40,1.41,1.40
62.18,-2.76,-4.13,-2.77,-4.15,4.15,3.77,4.11,1.39,1.38,1.37
62.80,-2.68,-4.04,-2.68,-4.04,4.04,3.70,4.05,1.36,1.36,1.36
63.43,-2.59,-3.91,-2.60,-3.93,3.93,3.64,3.98,1.34,1.34,1.32
64.07,-2.50,-3.80,-2.51,-3.83,3.83,3.58,3.92,1.33,1.32,1.30
64.71,-2.43,-3.72,-2.43,-3.73,3.73,3.52,3.86,1.30,1.30,1.29
65.35,-2.36,-3.63,-2.35,-3.63,3.63,3.46,3.80,1.27,1.28,1.27
66.01,-2.28,-3.54,-2.27,-3.54,3.54,3.40,3.75,1.26,1.26,1.26
66.67,-2.20,-3.45,-2.20,-3.45,3.45,3.34,3.69,1.25,1.25,1.25
67.33,-2.12,-3.36,-2.12,-3.36,3.36,3.29,3.64,1.24,1.24,1.24
68.01,-2.04,-3.27,-2.04,-3.27,3.27,3.23,3.58,1.23,1.23,1.23
68.69,-1.96,-3.18,-1.97,-3.19,3.19,3.18,3.53,1.23,1.22,1.22
69.37,-1.89,-3.11,-1.89,-3.11,3.11,3.13,3.48,1.22,1.22,1.22
70.07,-1.82,-3.03,-1.82,-3.03,3.03,3.08,3.43,1.21,1.21,1.21
70.77,-1.75,-2.96,-1.75,-2.95,2.95,3.03,3.38,1.20,1.20,1.21
71.48,-1.68,-2.88,-1.68,-2.87,2.87,2.99,3.34,1.19,1.19,1.20
72.19,-1.61,-2.79,-1.61,-2.79,2.79,2.94,3.29,1.18,1.18,1.18
72.91,-1.55,-2.73,-1.55,-2.72,2.72,2.90,3.25,1.17,1.17,1.18
73.64,-1.48,-2.64,-1.49,-2.65,2.65,2.86,3.21,1.17,1.16,1.16
74.38,-1.42,-2.57,-1.43,-2.58,2.58,2.82,3.17,1.15,1.15,1.15
75.12,-1.36,-2.49,-1.38,-2.51,2.51,2.78,3.13,1.15,1.13,1.13
75.87,-1.31,-2.43,-1.32,-2.44,2.44,2.74,3.09,1.13,1.12,1.12
76.63,-1.26,-2.37,-1.27,-2.38,2.38,2.70,3.06,1.11,1.11,1.11
77.40,-1.22,-2.31,-1.22,-2.31,2.31,2.67,3.03,1.09,1.09,1.09
78.17,-1.18,-2.25,-1.17,-2.25,2.25,2.64,2.99,1.07,1.08,1.07
78.95,-1.14,-2.21,-1.12,-2.19,2.19,2.60,2.96,1.05,1.07,1.07
79.74,-1.10,-2.16,-1.08,-2.14,2.14,2.57,2.93,1.04,1.06,1.06
80.54,-1.05,-2.10,-1.04,-2.09,2.09,2.54,2.91,1.04,1.05,1.05
81.35,-1.00,-2.04,-1.00,-2.04,2.04,2.51,2.88,1.04,1.05,1.04
82.16,-0.95,-1.98,-0.96,-2.00,2.00,2.49,2.86,1.05,1.04,1.03
82.98,-0.91,-1.95,-0.93,-1.97,1.97,2.46,2.84,1.05,1.04,1.04
83.81,-0.88,-1.91,-0.90,-1.93,1.93,2.44,2.82,1.05,1.04,1.03
84.65,-0.86,-1.88,-0.87,-1.90,1.90,2.42,2.80,1.04,1.03,1.02
85.50,-0.84,-1.87,-0.84,-1.87,1.87,2.40,2.78,1.03,1.03,1.03
86.35,-0.82,-1.85,-0.82,-1.85,1.85,2.38,2.76,1.03,1.03,1.03
87.22,-0.81,-1.83,-0.81,-1.83,1.83,2.36,2.75,1.02,1.02,1.02
88.09,-0.80,-1.82,-0.80,-1.81,1.81,2.34,2.74,1.01,1.01,1.02
88.97,-0.80,-1.81,-0.80,-1.80,1.80,2.33,2.73,1.00,1.01,1.01
89.86,-0.80,-1.80,-0.80,-1.79,1.79,2.31,2.72,0.99,0.99,1.00
90.76,-0.81,-1.79,-0.81,-1.79,1.79,2.30,2.71,0.98,0.98,0.98
91.66,-0.82,-1.78,-0.83,-1.79,1.79,2.29,2.70,0.96,0.96,0.96
92.58,-0.84,-1.77,-0.85,-1.79,1.79,2.28,2.70,0.94,0.93,0.93
93.51,-0.86,-1.77,-0.88,-1.79,1.79,2.27,2.70,0.92,0.90,0.91
94.44,-0.89,-1.77,-0.92,-1.79,1.79,2.26,2.70,0.89,0.87,0.88
95.39,-0.94,-1.78,-0.95,-1.78,1.78,2.26,2.70,0.84,0.83,0.84
96.34,-1.00,-1.80,-1.00,-1.78,1.78,2.25,2.70,0.78,0.79,0.80
97.30,-1.06,-1.80,-1.04,-1.79,1.79,2.25,2.70,0.72,0.74,0.74
98.28,-1.12,-1.81,-1.10,-1.79,1.79,2.25,2.70,0.67,0.69,0.69
99.26,-1.17,-1.81,-1.15,-1.79,1.79,2.25,2.71,0.62,0.64,0.64
100.25,-1.23,-1.81,-1.21,-1.79,1.79,2.26,2.71,0.56,0.58,0.58
101.25,-1.29,-1.81,-1.28,-1.80,1.80,2.26,2.72,0.51,0.52,0.52
102.27,-1.35,-1.81,-1.35,-1.81,1.81,2.27,2.73,0.46,0.47,0.46
103.29,-1.40,-1.80,-1.42,-1.83,1.83,2.28,2.74,0.42,0.41,0.40
104.32,-1.46,-1.81,-1.50,-1.84,1.84,2.29,2.75,0.38,0.35,0.35
105.37,-1.55,-1.83,-1.58,-1.86,1.86,2.30,2.76,0.31,0.29,0.28
106.42,-1.64,-1.86,-1.66,-1.88,1.88,2.31,2.77,0.24,0.23,0.22
107.48,-1.73,-1.90,-1.74,-1.91,1.91,2.33,2.78,0.17,0.17,0.17
108.56,-1.82,-1.93,-1.82,-1.93,1.93,2.35,2.80,0.11,0.11,0.11
109.64,-1.91,-1.96,-1.91,-1.96,1.96,2.37,2.81,0.05,0.05,0.05
110.74,-2.01,-2.01,-2.00,-2.00,2.00,2.39,2.82,-0.02,-0.00,0.00
111.85,-2.11,-2.07,-2.08,-2.03,2.03,2.41,2.83,-0.08,-0.05,-0.04
112.97,-2.20,-2.09,-2.17,-2.07,2.07,2.44,2.85,-0.13,-0.10,-0.11
114.10,-2.28,-2.13,-2.26,-2.11,2.11,2.47,2.86,-0.17,-0.15,-0.15
115.24,-2.37,-2.17,-2.35,-2.15,2.15,2.50,2.87,-0.22,-0.20,-0.20
116.39,-2.42,-2.17,-2.43,-2.20,2.20,2.53,2.88,-0.23,-0.24,-0.25
117.55,-2.49,-2.20,-2.52,-2.24,2.24,2.57,2.89,-0.25,-0.28,-0.29
118.73,-2.60,-2.27,-2.60,-2.29,2.29,2.61,2.90,-0.31,-0.32,-0.33
119.92,-2.69,-2.33,-2.69,-2.34,2.34,2.65,2.91,-0.35,-0.35,-0.36
121.12,-2.80,-2.41,-2.78,-2.39,2.39,2.70,2.91,-0.41,-0.39,-0.39
122.33,-2.86,-2.44,-2.87,-2.45,2.45,2.74,2.92,-0.41,-0.42,-0.42
123.55,-2.94,-2.49,-2.97,-2.52,2.52,2.79,2.92,-0.43,-0.45,-0.45
124.79,-3.06,-2.58,-3.07,-2.59,2.59,2.85,2.93,-0.48,-0.48,-0.48
126.03,-3.19,-2.69,-3.17,-2.66,2.66,2.90,2.93,-0.53,-0.51,-0.50
127.29,-3.25,-2.72,-3.27,-2.73,2.73,2.96,2.93,-0.52,-0.54,-0.53
128.57,-3.35,-2.78,-3.38,-2.81,2.81,3.02,2.93,-0.54,-0.57,-0.57
129.85,-3.49,-2.90,-3.49,-2.90,2.90,3.09,2.93,-0.59,-0.59,-0.59
131.15,-3.65,-3.03,-3.61,-2.99,2.99,3.15,2.93,-0.66,-0.62,-0.62
132.46,-3.72,-3.06,-3.73,-3.08,3.08,3.23,2.93,-0.65,-0.65,-0.66
133.79,-3.84,-3.16,-3.85,-3.17,3.17,3.30,2.93,-0.67,-0.68,-0.68
135.12,-4.00,-3.29,-3.98,-3.26,3.26,3.38,2.92,-0.74,-0.71,-0.71
136.48,-4.09,-3.35,-4.11,-3.37,3.37,3.46,2.92,-0.73,-0.74,-0.74
137.84,-4.23,-3.46,-4.24,-3.47,3.47,3.55,2.92,-0.77,-0.78,-0.77
139.22,-4.34,-3.52,-4.38,-3.57,3.57,3.63,2.91,-0.77,-0.81,-0.82
140.61,-4.48,-3.63,-4.51,-3.67,3.67,3.72,2.91,-0.81,-0.84,-0.85
142.02,-4.68,-3.81,-4.65,-3.77,3.77,3.82,2.90,-0.91,-0.88,-0.87
143.44,-4.78,-3.87,-4.79,-3.88,3.88,3.92,2.90,-0.91,-0.91,-0.91
144.87,-4.95,-4.00,-4.92,-3.98,3.98,4.02,2.90,-0.97,-0.95,-0.95
146.32,-5.06,-4.07,-5.07,-4.08,4.08,4.12,2.89,-0.98,-0.98,-0.99
147.78,-5.21,-4.19,-5.21,-4.19,4.19,4.23,2.89,-1.02,-1.02,-1.02
149.26,-5.33,-4.28,-5.34,-4.28,4.28,4.33,2.89,-1.05,-1.06,-1.05
150.75,-5.48,-4.38,-5.48,-4.38,4.38,4.44,2.89,-1.10,-1.10,-1.10
152.26,-5.59,-4.45,-5.61,-4.47,4.47,4.56,2.89,-1.12,-1.14,-1.14
153.78,-5.73,-4.56,-5.73,-4.55,4.55,4.67,2.90,-1.18,-1.18,-1.17
155.32,-5.84,-4.62,-5.85,-4.63,4.63,4.78,2.90,-1.21,-1.22,-1.22
156.88,-5.99,-4.74,-5.96,-4.70,4.70,4.90,2.91,-1.29,-1.26,-1.25
158.44,-6.08,-4.77,-6.07,-4.76,4.76,5.01,2.92,-1.32,-1.31,-1.31
160.03,-6.22,-4.87,-6.18,-4.83,4.83,5.12,2.93,-1.40,-1.35,-1.35
161.63,-6.29,-4.89,-6.27,-4.88,4.88,5.23,2.94,-1.41,-1.39,-1.40
163.24,-6.34,-4.90,-6.37,-4.93,4.93,5.33,2.95,-1.41,-1.43,-1.44
164.88,-6.44,-4.96,-6.45,-4.98,4.98,5.44,2.97,-1.47,-1.48,-1.48
166.53,-6.52,-5.00,-6.53,-5.01,5.01,5.53,2.99,-1.51,-1.52,-1.52
168.19,-6.58,-5.02,-6.61,-5.05,5.05,5.62,3.01,-1.54,-1.56,-1.56
169.87,-6.68,-5.08,-6.67,-5.07,5.07,5.70,3.03,-1.61,-1.60,-1.60
171.57,-6.75,-5.12,-6.73,-5.10,5.10,5.78,3.06,-1.65,-1.64,-1.63
173.29,-6.80,-5.13,-6.79,-5.12,5.12,5.84,3.08,-1.68,-1.67,-1.67
175.02,-6.87,-5.16,-6.84,-5.14,5.14,5.90,3.11,-1.74,-1.71,-1.71
176.77,-6.91,-5.17,-6.89,-5.16,5.16,5.94,3.15,-1.75,-1.74,-1.74
178.54,-6.93,-5.16,-6.94,-5.18,5.18,5.97,3.18,-1.76,-1.76,-1.77
180.32,-6.97,-5.17,-6.99,-5.20,5.20,5.99,3.22,-1.78,-1.79,-1.80
182.13,-7.00,-5.18,-7.03,-5.21,5.21,5.99,3.26,-1.79,-1.82,-1.82
183.95,-7.06,-5.22,-7.06,-5.23,5.23,5.99,3.30,-1.84,-1.84,-1.84
185.79,-7.09,-5.23,-7.10,-5.24,5.24,5.96,3.34,-1.85,-1.86,-1.86
187.65,-7.12,-5.24,-7.14,-5.26,5.26,5.93,3.39,-1.86,-1.88,-1.88
189.52,-7.16,-5.27,-7.17,-5.28,5.28,5.88,3.43,-1.89,-1.89,-1.89
191.42,-7.21,-5.30,-7.21,-5.30,5.30,5.82,3.48,-1.91,-1.91,-1.91
193.33,-7.24,-5.32,-7.24,-5.32,5.32,5.75,3.53,-1.92,-1.92,-1.92
195.27,-7.27,-5.34,-7.28,-5.34,5.34,5.66,3.59,-1.93,-1.94,-1.93
197.22,-7.29,-5.34,-7.31,-5.36,5.36,5.57,3.64,-1.93,-1.95,-1.95
199.19,-7.32,-5.35,-7.34,-5.38,5.38,5.47,3.70,-1.94,-1.96,-1.97
201.18,-7.35,-5.37,-7.37,-5.39,5.39,5.36,3.76,-1.96,-1.97,-1.98
203.19,-7.39,-5.41,-7.39,-5.40,5.40,5.24,3.81,-1.99,-1.99,-1.98
205.23,-7.43,-5.43,-7.40,-5.40,5.40,5.12,3.87,-2.03,-2.00,-2.00
207.28,-7.45,-5.45,-7.41,-5.40,5.40,4.99,3.93,-2.05,-2.01,-2.00
209.35,-7.45,-5.43,-7.42,-5.39,5.39,4.86,3.99,-2.06,-2.02,-2.02
211.44,-7.44,-5.40,-7.41,-5.38,5.38,4.73,4.05,-2.06,-2.03,-2.04
213.56,-7.42,-5.37,-7.41,-5.36,5.36,4.60,4.10,-2.06,-2.04,-2.05
215.69,-7.38,-5.33,-7.40,-5.34,5.34,4.46,4.16,-2.04,-2.06,-2.05
217.85,-7.35,-5.28,-7.38,-5.31,5.31,4.32,4.21,-2.04,-2.07,-2.07
220.03,-7.33,-5.25,-7.36,-5.28,5.28,4.19,4.26,-2.06,-2.08,-2.08
222.23,-7.31,-5.21,-7.33,-5.24,5.24,4.05,4.31,-2.07,-2.09,-2.10
224.45,-7.27,-5.17,-7.30,-5.19,5.19,3.92,4.36,-2.08,-2.11,-2.10
226.70,-7.24,-5.12,-7.26,-5.14,5.14,3.78,4.40,-2.10,-2.12,-2.12
228.96,-7.20,-5.07,-7.22,-5.08,5.08,3.65,4.44,-2.12,-2.14,-2.13
231.25,-7.17,-5.03,-7.17,-5.02,5.02,3.52,4.47,-2.16,-2.15,-2.14
233.57,-7.12,-4.96,-7.11,-4.95,4.95,3.40,4.50,-2.17,-2.16,-2.16
235.90,-7.04,-4.87,-7.05,-4.88,4.88,3.27,4.52,-2.17,-2.18,-2.17
238.26,-6.99,-4.80,-6.99,-4.80,4.80,3.15,4.53,-2.20,-2.19,-2.19
240.64,-6.90,-4.69,-6.91,-4.70,4.70,3.04,4.54,-2.20,-2.20,-2.21
243.05,-6.84,-4.62,-6.81,-4.60,4.60,2.92,4.54,-2.25,-2.22,-2.22
245.48,-6.74,-4.51,-6.71,-4.48,4.48,2.81,4.54,-2.26,-2.22,-2.23
247.93,-6.59,-4.35,-6.58,-4.35,4.35,2.70,4.53,-2.24,-2.23,-2.24
250.41,-6.49,-4.24,-6.45,-4.21,4.21,2.60,4.51,-2.28,-2.24,-2.25
252.92,-6.31,-4.07,-6.30,-4.06,4.06,2.49,4.48,-2.25,-2.24,-2.24
255.45,-6.17,-3.93,-6.14,-3.90,3.90,2.39,4.44,-2.27,-2.24,-2.24
258.00,-6.01,-3.78,-5.97,-3.74,3.74,2.30,4.40,-2.28,-2.23,-2.23
260.58,-5.79,-3.56,-5.79,-3.56,3.56,2.20,4.35,-2.23,-2.22,-2.23
263.19,-5.60,-3.38,-5.59,-3.38,3.38,2.11,4.29,-2.22,-2.22,-2.22
265.82,-5.36,-3.15,-5.39,-3.19,3.19,2.02,4.22,-2.17,-2.20,-2.21
268.48,-5.17,-2.98,-5.19,-3.00,3.00,1.94,4.15,-2.17,-2.19,-2.19
271.16,-4.99,-2.82,-4.98,-2.80,2.80,1.86,4.08,-2.19,-2.18,-2.17
273.87,-4.74,-2.58,-4.77,-2.61,2.61,1.78,3.99,-2.13,-2.16,-2.16
276.61,-4.55,-2.42,-4.56,-2.42,2.42,1.70,3.91,-2.13,-2.15,-2.13
279.38,-4.36,-2.23,-4.36,-2.23,2.23,1.62,3.81,-2.13,-2.13,-2.13
282.17,-4.17,-2.06,-4.16,-2.05,2.05,1.55,3.72,-2.12,-2.12,-2.11
284.99,-3.99,-1.89,-3.97,-1.87,1.87,1.48,3.62,-2.12,-2.10,-2.10
287.84,-3.74,-1.66,-3.79,-1.71,1.71,1.41,3.51,-2.04,-2.08,-2.08
290.72,-3.58,-1.52,-3.61,-1.55,1.55,1.35,3.41,-2.03,-2.06,-2.06
293.63,-3.41,-1.36,-3.44,-1.40,1.40,1.28,3.30,-2.01,-2.04,-2.05
296.57,-3.26,-1.24,-3.28,-1.26,1.26,1.22,3.19,-2.00,-2.02,-2.02
299.53,-3.12,-1.11,-3.13,-1.12,1.12,1.16,3.08,-2.00,-2.01,-2.01
302.53,-2.98,-0.98,-2.98,-1.00,1.00,1.10,2.96,-1.98,-1.99,-2.00
305.55,-2.85,-0.88,-2.85,-0.88,0.88,1.04,2.85,-1.97,-1.96,-1.97
308.61,-2.73,-0.78,-2.72,-0.77,0.77,0.99,2.74,-1.96,-1.94,-1.95
311.69,-2.59,-0.67,-2.59,-0.67,0.67,0.93,2.62,-1.92,-1.92,-1.92
314.81,-2.49,-0.61,-2.48,-0.58,0.58,0.88,2.51,-1.91,-1.90,-1.88
317.96,-2.37,-0.50,-2.36,-0.49,0.49,0.83,2.39,-1.88,-1.88,-1.87
321.14,-2.25,-0.40,-2.26,-0.41,0.41,0.78,2.28,-1.85,-1.85,-1.85
324.35,-2.13,-0.30,-2.15,-0.32,0.32,0.73,2.16,-1.81,-1.83,-1.83
327.59,-2.04,-0.23,-2.05,-0.24,0.24,0.69,2.05,-1.80,-1.81,-1.81
330.87,-1.96,-0.17,-1.95,-0.16,0.16,0.64,1.93,-1.80,-1.78,-1.79
334.18,-1.86,-0.10,-1.85,-0.09,0.09,0.60,1.82,-1.77,-1.76,-1.76
337.52,-1.75,-0.01,-1.75,-0.01,0.01,0.56,1.71,-1.74,-1.74,-1.74
340.90,-1.66,0.06,-1.65,0.06,-0.06,0.51,1.60,-1.72,-1.71,-1.72
344.30,-1.56,0.13,-1.56,0.13,-0.13,0.47,1.49,-1.69,-1.69,-1.69
347.75,-1.47,0.20,-1.46,0.20,-0.20,0.43,1.38,-1.67,-1.67,-1.67
351.23,-1.37,0.27,-1.37,0.27,-0.27,0.39,1.27,-1.65,-1.64,-1.64
354.74,-1.28,0.33,-1.28,0.34,-0.34,0.35,1.16,-1.62,-1.62,-1.61
358.28,-1.18,0.42,-1.18,0.41,-0.41,0.32,1.05,-1.59,-1.59,-1.60
361.87,-1.10,0.47,-1.09,0.48,-0.48,0.28,0.95,-1.58,-1.57,-1.57
365.49,-1.01,0.53,-1.00,0.55,-0.55,0.25,0.84,-1.56,-1.54,-1.54
369.14,-0.92,0.61,-0.91,0.61,-0.61,0.21,0.74,-1.54,-1.52,-1.53
372.83,-0.84,0.66,-0.82,0.68,-0.68,0.18,0.64,-1.52,-1.50,-1.50
376.56,-0.73,0.75,-0.74,0.74,-0.74,0.14,0.53,-1.47,-1.48,-1.48
380.33,-0.65,0.80,-0.66,0.80,-0.80,0.11,0.43,-1.45,-1.46,-1.45
384.13,-0.58,0.86,-0.59,0.85,-0.85,0.08,0.33,-1.43,-1.44,-1.44
387.97,-0.52,0.90,-0.52,0.90,-0.90,0.05,0.23,-1.42,-1.42,-1.42
391.85,-0.46,0.95,-0.46,0.94,-0.94,0.01,0.13,-1.40,-1.40,-1.41
395.77,-0.40,0.98,-0.42,0.98,-0.98,-0.02,0.04,-1.38,-1.39,-1.38
399.73,-0.36,1.01,-0.38,1.00,-1.00,-0.05,-0.06,-1.37,-1.38,-1.37
403.72,-0.32,1.05,-0.35,1.03,-1.03,-0.08,-0.15,-1.35,-1.37,-1.37
407.76,-0.30,1.06,-0.33,1.04,-1.04,-0.11,-0.25,-1.34,-1.37,-1.36
411.84,-0.30,1.05,-0.32,1.04,-1.04,-0.13,-0.34,-1.35,-1.36,-1.35
415.96,-0.31,1.05,-0.32,1.04,-1.04,-0.16,-0.43,-1.35,-1.36,-1.36
420.12,-0.33,1.03,-0.33,1.03,-1.03,-0.19,-0.52,-1.36,-1.36,-1.36
424.32,-0.34,1.02,-0.35,1.01,-1.01,-0.22,-0.61,-1.35,-1.36,-1.36
428.56,-0.36,1.00,-0.37,0.99,-0.99,-0.25,-0.69,-1.35,-1.36,-1.36
432.85,-0.40,0.97,-0.41,0.96,-0.96,-0.27,-0.78,-1.36,-1.36,-1.37
437.18,-0.45,0.92,-0.45,0.92,-0.92,-0.30,-0.86,-1.37,-1.37,-1.37
441.55,-0.49,0.88,-0.50,0.88,-0.88,-0.33,-0.94,-1.37,-1.37,-1.37
445.96,-0.54,0.84,-0.54,0.83,-0.83,-0.35,-1.01,-1.37,-1.37,-1.38
450.42,-0.59,0.79,-0.59,0.78,-0.78,-0.38,-1.09,-1.37,-1.38,-1.38
454.93,-0.64,0.74,-0.64,0.74,-0.74,-0.40,-1.16,-1.38,-1.38,-1.38
