frequency,raw,error,smoothed,error_smoothed,equalization,parametric_eq,fixed_band_eq,equalized_raw,equalized_smoothed,target
20.00,-4.87,-6.53,-4.86,-6.54,6.54,6.48,2.10,1.66,1.68,1.65
20.20,-4.81,-6.52,-4.80,-6.52,6.52,6.43,2.16,1.70,1.72,1.70
20.40,-4.75,-6.50,-4.74,-6.49,6.49,6.38,2.22,1.74,1.75,1.75
20.61,-4.70,-6.48,-4.68,-6.47,6.47,6.33,2.29,1.77,1.79,1.78
20.81,-4.63,-6.46,-4.63,-6.44,6.44,6.28,2.35,1.81,1.82,1.83
21.02,-4.56,-6.44,-4.57,-6.41,6.41,6.23,2.42,1.85,1.84,1.87
21.23,-4.50,-6.40,-4.51,-6.38,6.38,6.18,2.49,1.88,1.87,1.89
21.44,-4.43,-6.34,-4.46,-6.35,6.35,6.13,2.56,1.92,1.89,1.91
21.66,-4.37,-6.30,-4.40,-6.32,6.32,6.08,2.63,1.95,1.91,1.93
21.87,-4.30,-6.24,-4.35,-6.28,6.28,6.04,2.71,1.98,1.93,1.94
22.09,-4.24,-6.20,-4.29,-6.24,6.24,5.99,2.78,2.00,1.95,1.96
22.31,-4.21,-6.18,-4.24,-6.20,6.20,5.95,2.86,1.99,1.96,1.97
22.54,-4.18,-6.15,-4.19,-6.16,6.16,5.90,2.95,1.99,1.97,1.97
22.76,-4.13,-6.10,-4.15,-6.12,6.12,5.86,3.03,1.98,1.97,1.97
22.99,-4.09,-6.06,-4.10,-6.07,6.07,5.82,3.11,1.98,1.97,1.96
23.22,-4.06,-6.03,-4.05,-6.02,6.02,5.77,3.20,1.96,1.97,1.96
23.45,-4.02,-5.99,-3.99,-5.97,5.97,5.73,3.29,1.94,1.97,1.96
23.69,-3.99,-5.97,-3.94,-5.91,5.91,5.69,3.38,1.92,1.97,1.97
23.92,-3.95,-5.92,-3.88,-5.86,5.86,5.65,3.48,1.90,1.97,1.97
24.16,-3.88,-5.85,-3.83,-5.80,5.80,5.61,3.57,1.92,1.97,1.97
24.40,-3.78,-5.76,-3.77,-5.74,5.74,5.57,3.67,1.96,1.97,1.98
24.65,-3.70,-5.67,-3.71,-5.68,5.68,5.53,3.77,1.98,1.97,1.97
24.89,-3.60,-5.57,-3.64,-5.62,5.62,5.49,3.87,2.01,1.97,1.97
25.14,-3.53,-5.50,-3.58,-5.56,5.56,5.45,3.97,2.02,1.97,1.97
25.39,-3.48,-5.46,-3.53,-5.50,5.50,5.41,4.07,2.02,1.97,1.98
25.65,-3.44,-5.43,-3.48,-5.45,5.45,5.37,4.17,2.01,1.98,1.98
25.91,-3.40,-5.37,-3.43,-5.40,5.40,5.33,4.27,2.00,1.97,1.97
26.16,-3.35,-5.32,-3.38,-5.35,5.35,5.29,4.37,2.00,1.97,1.97
26.43,-3.32,-5.30,-3.34,-5.31,5.31,5.25,4.47,1.98,1.97,1.97
26.69,-3.29,-5.27,-3.29,-5.26,5.26,5.21,4.57,1.97,1.97,1.97
26.96,-3.26,-5.24,-3.26,-5.23,5.23,5.17,4.67,1.96,1.97,1.97
27.23,-3.24,-5.22,-3.22,-5.19,5.19,5.13,4.77,1.94,1.97,1.97
27.50,-3.21,-5.19,-3.18,-5.15,5.15,5.09,4.86,1.93,1.97,1.97
27.77,-3.18,-5.14,-3.14,-5.11,5.11,5.05,4.96,1.92,1.96,1.96
28.05,-3.15,-5.11,-3.10,-5.06,5.06,5.01,5.05,1.91,1.96,1.96
28.33,-3.08,-5.03,-3.06,-5.02,5.02,4.97,5.13,1.94,1.96,1.95
28.62,-3.02,-4.97,-3.02,-4.98,4.98,4.93,5.21,1.96,1.96,1.95
28.90,-2.94,-4.90,-2.97,-4.93,4.93,4.89,5.29,1.99,1.96,1.96
29.19,-2.89,-4.85,-2.92,-4.88,4.88,4.85,5.36,1.98,1.96,1.95
29.48,-2.84,-4.80,-2.87,-4.82,4.82,4.81,5.42,1.98,1.95,1.96
29.78,-2.80,-4.76,-2.82,-4.77,4.77,4.76,5.48,1.97,1.95,1.95
30.08,-2.76,-4.72,-2.77,-4.72,4.72,4.72,5.53,1.97,1.95,1.96
30.38,-2.72,-4.68,-2.72,-4.67,4.67,4.68,5.57,1.95,1.95,1.95
30.68,-2.69,-4.65,-2.68,-4.63,4.63,4.64,5.60,1.93,1.95,1.95
30.99,-2.66,-4.62,-2.63,-4.58,4.58,4.60,5.63,1.92,1.95,1.95
31.30,-2.61,-4.55,-2.59,-4.54,4.54,4.56,5.65,1.93,1.94,1.94
31.61,-2.53,-4.48,-2.55,-4.49,4.49,4.51,5.66,1.96,1.94,1.94
31.93,-2.48,-4.42,-2.51,-4.45,4.45,4.47,5.67,1.97,1.94,1.94
32.24,-2.45,-4.39,-2.47,-4.41,4.41,4.43,5.67,1.95,1.93,1.93
32.57,-2.45,-4.39,-2.44,-4.37,4.37,4.39,5.65,1.92,1.93,1.93
32.89,-2.45,-4.38,-2.41,-4.34,4.34,4.35,5.64,1.88,1.93,1.93
33.22,-2.41,-4.33,-2.39,-4.31,4.31,4.31,5.61,1.89,1.92,1.92
33.55,-2.34,-4.26,-2.36,-4.27,4.27,4.26,5.58,1.93,1.92,1.92
33.89,-2.27,-4.19,-2.33,-4.24,4.24,4.22,5.54,1.97,1.91,1.91
34.23,-2.25,-4.17,-2.30,-4.21,4.21,4.18,5.50,1.96,1.91,1.91
34.57,-2.25,-4.16,-2.28,-4.18,4.18,4.14,5.46,1.93,1.90,1.90
34.92,-2.25,-4.16,-2.26,-4.16,4.16,4.10,5.41,1.91,1.90,1.90
35.27,-2.25,-4.15,-2.24,-4.14,4.14,4.06,5.35,1.88,1.90,1.89
35.62,-2.25,-4.15,-2.21,-4.11,4.11,4.02,5.29,1.85,1.89,1.89
35.97,-2.25,-4.14,-2.18,-4.07,4.07,3.98,5.24,1.82,1.89,1.89
36.33,-2.18,-4.07,-2.15,-4.04,4.04,3.95,5.17,1.85,1.89,1.89
36.70,-2.12,-4.00,-2.12,-4.01,4.01,3.91,5.11,1.89,1.89,1.88
37.06,-2.05,-3.94,-2.09,-3.98,3.98,3.87,5.05,1.92,1.89,1.88
37.43,-2.05,-3.95,-2.06,-3.95,3.95,3.83,4.99,1.89,1.89,1.89
37.81,-2.05,-3.95,-2.03,-3.92,3.92,3.80,4.92,1.86,1.89,1.89
38.19,-2.01,-3.90,-1.99,-3.88,3.88,3.76,4.86,1.86,1.89,1.88
38.57,-1.94,-3.84,-1.95,-3.84,3.84,3.73,4.80,1.90,1.89,1.89
38.95,-1.86,-3.76,-1.91,-3.80,3.80,3.70,4.74,1.94,1.89,1.90
39.34,-1.85,-3.75,-1.88,-3.77,3.77,3.66,4.68,1.92,1.89,1.89
39.74,-1.85,-3.75,-1.86,-3.75,3.75,3.63,4.63,1.89,1.89,1.89
40.14,-1.84,-3.74,-1.83,-3.72,3.72,3.60,4.57,1.88,1.89,1.89
40.54,-1.80,-3.70,-1.82,-3.71,3.71,3.57,4.52,1.90,1.89,1.89
40.94,-1.76,-3.65,-1.80,-3.69,3.69,3.54,4.47,1.92,1.88,1.88
41.35,-1.75,-3.64,-1.78,-3.66,3.66,3.51,4.42,1.91,1.88,1.88
41.76,-1.75,-3.63,-1.76,-3.63,3.63,3.49,4.38,1.88,1.87,1.87
42.18,-1.75,-3.63,-1.74,-3.60,3.60,3.46,4.34,1.85,1.86,1.87
42.60,-1.75,-3.62,-1.72,-3.58,3.58,3.44,4.30,1.82,1.85,1.86
43.03,-1.75,-3.61,-1.71,-3.55,3.55,3.41,4.27,1.79,1.84,1.85
43.46,-1.73,-3.58,-1.69,-3.52,3.52,3.39,4.24,1.79,1.83,1.84
43.90,-1.71,-3.54,-1.67,-3.49,3.49,3.37,4.21,1.77,1.82,1.82
44.33,-1.66,-3.46,-1.65,-3.46,3.46,3.35,4.18,1.79,1.81,1.80
44.78,-1.60,-3.39,-1.63,-3.43,3.43,3.33,4.16,1.82,1.79,1.78
45.23,-1.57,-3.35,-1.62,-3.40,3.40,3.32,4.14,1.82,1.78,1.77
45.68,-1.56,-3.33,-1.60,-3.37,3.37,3.30,4.13,1.80,1.77,1.76
46.13,-1.55,-3.30,-1.58,-3.34,3.34,3.29,4.11,1.78,1.75,1.74
46.60,-1.55,-3.30,-1.57,-3.30,3.30,3.27,4.10,1.75,1.74,1.74
47.06,-1.55,-3.28,-1.55,-3.28,3.28,3.26,4.10,1.72,1.72,1.72
47.53,-1.55,-3.27,-1.54,-3.25,3.25,3.25,4.10,1.69,1.71,1.71
48.01,-1.55,-3.27,-1.53,-3.23,3.23,3.24,4.09,1.67,1.69,1.71
48.49,-1.55,-3.25,-1.53,-3.21,3.21,3.24,4.10,1.65,1.68,1.69
48.97,-1.55,-3.23,-1.53,-3.20,3.20,3.23,4.10,1.64,1.67,1.67
49.46,-1.55,-3.21,-1.54,-3.20,3.20,3.23,4.11,1.64,1.65,1.65
49.96,-1.55,-3.19,-1.56,-3.20,3.20,3.23,4.12,1.64,1.64,1.63
50.46,-1.55,-3.18,-1.57,-3.20,3.20,3.23,4.13,1.64,1.63,1.62
50.96,-1.55,-3.17,-1.59,-3.20,3.20,3.23,4.15,1.65,1.61,1.61
51.47,-1.58,-3.18,-1.62,-3.22,3.22,3.23,4.16,1.63,1.60,1.59
51.99,-1.62,-3.20,-1.65,-3.23,3.23,3.24,4.18,1.61,1.59,1.58
52.51,-1.64,-3.22,-1.68,-3.25,3.25,3.25,4.20,1.61,1.57,1.57
53.03,-1.67,-3.25,-1.71,-3.27,3.27,3.26,4.22,1.60,1.56,1.57
53.56,-1.77,-3.33,-1.75,-3.30,3.30,3.27,4.24,1.52,1.55,1.55
54.10,-1.85,-3.39,-1.79,-3.33,3.33,3.28,4.26,1.47,1.54,1.54
54.64,-1.86,-3.39,-1.83,-3.35,3.35,3.30,4.28,1.49,1.53,1.52
55.18,-1.88,-3.41,-1.87,-3.39,3.39,3.31,4.30,1.50,1.52,1.52
55.74,-1.95,-3.45,-1.91,-3.42,3.42,3.33,4.32,1.47,1.51,1.50
56.29,-2.00,-3.50,-1.97,-3.46,3.46,3.36,4.34,1.45,1.49,1.49
56.86,-2.04,-3.52,-2.02,-3.50,3.50,3.38,4.36,1.46,1.48,1.48
57.42,-2.06,-3.52,-2.08,-3.55,3.55,3.41,4.38,1.48,1.46,1.45
58.00,-2.07,-3.52,-2.15,-3.59,3.59,3.44,4.39,1.51,1.44,1.44
58.58,-2.16,-3.59,-2.21,-3.63,3.63,3.47,4.41,1.47,1.42,1.43
59.16,-2.25,-3.66,-2.28,-3.68,3.68,3.50,4.42,1.43,1.40,1.41
59.76,-2.31,-3.70,-2.36,-3.73,3.73,3.53,4.43,1.41,1.37,1.39
60.35,-2.43,-3.78,-2.44,-3.78,3.78,3.57,4.43,1.36,1.34,1.35
60.96,-2.55,-3.86,-2.53,-3.84,3.84,3.61,4.44,1.29,1.31,1.31
61.57,-2.67,-3.94,-2.63,-3.90,3.90,3.66,4.44,1.23,1.27,1.27
62.18,-2.79,-4.03,-2.73,-3.96,3.96,3.70,4.43,1.17,1.23,1.23
62.80,-2.90,-4.08,-2.84,-4.03,4.03,3.75,4.43,1.13,1.19,1.18
63.43,-2.97,-4.12,-2.96,-4.11,4.11,3.80,4.42,1.13,1.15,1.14
64.07,-3.05,-4.14,-3.10,-4.20,4.20,3.85,4.41,1.14,1.10,1.09
64.71,-3.20,-4.25,-3.23,-4.29,4.29,3.91,4.39,1.09,1.06,1.05
65.35,-3.35,-4.36,-3.37,-4.38,4.38,3.96,4.37,1.04,1.01,1.01
66.01,-3.46,-4.42,-3.52,-4.48,4.48,4.02,4.35,1.02,0.96,0.96
66.67,-3.59,-4.50,-3.66,-4.58,4.58,4.08,4.33,0.98,0.91,0.91
67.33,-3.76,-4.62,-3.81,-4.68,4.68,4.15,4.30,0.92,0.87,0.86
68.01,-3.93,-4.75,-3.96,-4.78,4.78,4.21,4.27,0.85,0.82,0.82
68.69,-4.10,-4.87,-4.12,-4.88,4.88,4.28,4.24,0.78,0.77,0.77
69.37,-4.30,-5.02,-4.26,-4.98,4.98,4.35,4.21,0.68,0.72,0.72
70.07,-4.51,-5.18,-4.41,-5.07,5.07,4.42,4.18,0.56,0.66,0.67
70.77,-4.59,-5.22,-4.54,-5.15,5.15,4.49,4.14,0.56,0.61,0.62
71.48,-4.68,-5.25,-4.66,-5.21,5.21,4.56,4.11,0.53,0.56,0.57
72.19,-4.78,-5.29,-4.76,-5.26,5.26,4.64,4.07,0.47,0.50,0.50
72.91,-4.89,-5.33,-4.85,-5.29,5.29,4.71,4.04,0.41,0.44,0.44
73.64,-4.99,-5.39,-4.93,-5.32,5.32,4.78,4.00,0.33,0.39,0.39
74.38,-5.07,-5.41,-5.00,-5.33,5.33,4.86,3.97,0.26,0.33,0.33
75.12,-5.11,-5.38,-5.06,-5.34,5.34,4.93,3.94,0.22,0.28,0.27
75.87,-5.09,-5.30,-5.11,-5.34,5.34,5.00,3.91,0.24,0.22,0.21
76.63,-5.11,-5.28,-5.17,-5.33,5.33,5.07,3.87,0.22,0.17,0.16
77.40,-5.15,-5.27,-5.22,-5.33,5.33,5.14,3.85,0.18,0.11,0.11
78.17,-5.18,-5.23,-5.26,-5.32,5.32,5.21,3.82,0.14,0.06,0.05
78.95,-5.16,-5.17,-5.31,-5.32,5.32,5.27,3.79,0.16,0.01,0.01
79.74,-5.35,-5.32,-5.36,-5.32,5.32,5.33,3.77,-0.03,-0.04,-0.04
80.54,-5.43,-5.35,-5.42,-5.33,5.33,5.38,3.75,-0.11,-0.09,-0.09
81.35,-5.46,-5.33,-5.47,-5.33,5.33,5.43,3.73,-0.13,-0.14,-0.14
82.16,-5.53,-5.35,-5.52,-5.33,5.33,5.48,3.71,-0.20,-0.19,-0.19
82.98,-5.61,-5.39,-5.56,-5.33,5.33,5.51,3.70,-0.29,-0.23,-0.23
83.81,-5.66,-5.39,-5.61,-5.33,5.33,5.55,3.69,-0.34,-0.28,-0.28
84.65,-5.72,-5.40,-5.66,-5.33,5.33,5.57,3.68,-0.39,-0.33,-0.33
85.50,-5.68,-5.32,-5.70,-5.33,5.33,5.59,3.68,-0.36,-0.38,-0.37
86.35,-5.67,-5.26,-5.73,-5.30,5.30,5.60,3.67,-0.37,-0.43,-0.42
87.22,-5.79,-5.32,-5.75,-5.28,5.28,5.60,3.67,-0.52,-0.48,-0.47
88.09,-5.83,-5.32,-5.77,-5.24,5.24,5.59,3.68,-0.59,-0.53,-0.52
88.97,-5.77,-5.20,-5.77,-5.19,5.19,5.57,3.68,-0.58,-0.58,-0.58
89.86,-5.77,-5.15,-5.78,-5.15,5.15,5.55,3.69,-0.63,-0.63,-0.63
90.76,-5.73,-5.06,-5.79,-5.11,5.11,5.52,3.70,-0.62,-0.68,-0.68
91.66,-5.76,-5.03,-5.79,-5.06,5.06,5.48,3.72,-0.69,-0.73,-0.73
92.58,-5.87,-5.09,-5.79,-5.01,5.01,5.43,3.73,-0.86,-0.78,-0.79
93.51,-5.83,-5.00,-5.80,-4.97,4.97,5.37,3.75,-0.87,-0.83,-0.84
94.44,-5.70,-4.83,-5.81,-4.93,4.93,5.31,3.77,-0.77,-0.88,-0.88
95.39,-5.74,-4.82,-5.84,-4.91,4.91,5.24,3.80,-0.83,-0.93,-0.93
96.34,-5.85,-4.88,-5.86,-4.88,4.88,5.17,3.83,-0.97,-0.98,-0.98
97.30,-5.83,-4.81,-5.87,-4.85,4.85,5.09,3.85,-0.99,-1.03,-1.03
98.28,-5.85,-4.78,-5.88,-4.81,4.81,5.00,3.89,-1.05,-1.08,-1.08
99.26,-5.96,-4.85,-5.89,-4.77,4.77,4.91,3.92,-1.20,-1.12,-1.12
100.25,-5.92,-4.75,-5.89,-4.72,4.72,4.82,3.95,-1.21,-1.17,-1.17
101.25,-5.87,-4.66,-5.89,-4.67,4.67,4.72,3.99,-1.21,-1.22,-1.22
102.27,-5.94,-4.68,-5.88,-4.61,4.61,4.63,4.03,-1.33,-1.27,-1.27
103.29,-6.00,-4.69,-5.88,-4.56,4.56,4.53,4.06,-1.44,-1.32,-1.32
104.32,-6.03,-4.67,-5.88,-4.51,4.51,4.42,4.10,-1.52,-1.37,-1.36
105.37,-5.91,-4.51,-5.88,-4.47,4.47,4.32,4.14,-1.45,-1.42,-1.41
106.42,-5.73,-4.28,-5.88,-4.41,4.41,4.21,4.18,-1.33,-1.47,-1.46
107.48,-5.68,-4.17,-5.87,-4.35,4.35,4.11,4.22,-1.34,-1.52,-1.52
108.56,-5.70,-4.14,-5.87,-4.30,4.30,4.00,4.25,-1.40,-1.57,-1.57
109.64,-5.78,-4.17,-5.86,-4.24,4.24,3.90,4.29,-1.55,-1.62,-1.62
110.74,-5.81,-4.14,-5.83,-4.16,4.16,3.80,4.32,-1.66,-1.68,-1.68
111.85,-5.83,-4.12,-5.80,-4.07,4.07,3.69,4.35,-1.77,-1.73,-1.72
112.97,-5.84,-4.07,-5.75,-3.97,3.97,3.59,4.38,-1.87,-1.78,-1.78
114.10,-5.85,-4.03,-5.69,-3.86,3.86,3.49,4.40,-1.99,-1.83,-1.83
115.24,-5.83,-3.96,-5.62,-3.75,3.75,3.39,4.42,-2.08,-1.87,-1.88
116.39,-5.76,-3.84,-5.57,-3.65,3.65,3.29,4.44,-2.12,-1.92,-1.93
117.55,-5.65,-3.68,-5.54,-3.58,3.58,3.20,4.45,-2.08,-1.96,-1.97
118.73,-5.59,-3.59,-5.54,-3.54,3.54,3.10,4.46,-2.05,-2.00,-2.01
119.92,-5.51,-3.48,-5.54,-3.51,3.51,3.01,4.46,-2.01,-2.04,-2.04
121.12,-5.18,-3.10,-5.54,-3.46,3.46,2.92,4.45,-1.71,-2.07,-2.08
122.33,-5.20,-3.10,-5.56,-3.45,3.45,2.83,4.44,-1.76,-2.11,-2.11
123.55,-5.21,-3.08,-5.57,-3.43,3.43,2.74,4.42,-1.78,-2.14,-2.14
124.79,-5.38,-3.21,-5.58,-3.41,3.41,2.66,4.40,-1.98,-2.17,-2.17
126.03,-5.50,-3.31,-5.59,-3.39,3.39,2.58,4.37,-2.12,-2.20,-2.20
127.29,-5.65,-3.43,-5.61,-3.37,3.37,2.50,4.33,-2.27,-2.23,-2.22
128.57,-5.95,-3.69,-5.65,-3.38,3.38,2.42,4.28,-2.57,-2.26,-2.26
129.85,-6.22,-3.93,-5.72,-3.43,3.43,2.34,4.23,-2.79,-2.29,-2.29
131.15,-6.13,-3.82,-5.79,-3.47,3.47,2.26,4.18,-2.66,-2.32,-2.32
132.46,-5.79,-3.44,-5.85,-3.50,3.50,2.19,4.11,-2.30,-2.35,-2.35
133.79,-5.71,-3.34,-5.87,-3.49,3.49,2.12,4.05,-2.22,-2.38,-2.38
135.12,-5.85,-3.44,-5.86,-3.46,3.46,2.05,3.97,-2.40,-2.40,-2.41
136.48,-5.48,-3.05,-5.80,-3.37,3.37,1.98,3.89,-2.10,-2.43,-2.43
137.84,-5.55,-3.09,-5.73,-3.27,3.27,1.92,3.81,-2.29,-2.46,-2.47
139.22,-5.75,-3.25,-5.61,-3.13,3.13,1.85,3.72,-2.63,-2.49,-2.50
140.61,-5.84,-3.32,-5.49,-2.98,2.98,1.79,3.63,-2.87,-2.52,-2.53
142.02,-5.88,-3.34,-5.39,-2.84,2.84,1.73,3.54,-3.04,-2.55,-2.55
143.44,-5.70,-3.13,-5.33,-2.75,2.75,1.67,3.44,-2.96,-2.58,-2.58
144.87,-5.13,-2.51,-5.25,-2.63,2.63,1.61,3.34,-2.51,-2.62,-2.62
146.32,-4.91,-2.26,-5.22,-2.55,2.55,1.55,3.24,-2.36,-2.67,-2.66
147.78,-4.76,-2.08,-5.23,-2.52,2.52,1.50,3.13,-2.25,-2.72,-2.69
149.26,-4.87,-2.14,-5.28,-2.51,2.51,1.44,3.03,-2.36,-2.77,-2.74
150.75,-5.10,-2.31,-5.36,-2.54,2.54,1.39,2.92,-2.57,-2.83,-2.80
152.26,-5.21,-2.35,-5.48,-2.59,2.59,1.34,2.81,-2.62,-2.89,-2.87
153.78,-5.31,-2.37,-5.59,-2.63,2.63,1.28,2.71,-2.67,-2.95,-2.94
155.32,-5.69,-2.69,-5.70,-2.67,2.67,1.23,2.60,-3.02,-3.02,-3.01
156.88,-6.03,-2.94,-5.80,-2.71,2.71,1.19,2.49,-3.32,-3.09,-3.09
158.44,-6.00,-2.83,-5.91,-2.75,2.75,1.14,2.38,-3.25,-3.16,-3.17
160.03,-5.70,-2.46,-6.01,-2.78,2.78,1.09,2.27,-2.93,-3.23,-3.25
161.63,-6.52,-3.20,-6.07,-2.77,2.77,1.04,2.17,-3.75,-3.30,-3.32
163.24,-6.80,-3.42,-6.08,-2.72,2.72,1.00,2.06,-4.09,-3.36,-3.38
164.88,-6.60,-3.18,-6.04,-2.62,2.62,0.95,1.95,-3.98,-3.41,-3.43
166.53,-6.27,-2.79,-5.93,-2.47,2.47,0.91,1.85,-3.79,-3.46,-3.48
168.19,-5.90,-2.38,-5.80,-2.30,2.30,0.86,1.74,-3.60,-3.50,-3.52
169.87,-5.54,-1.98,-5.65,-2.11,2.11,0.82,1.64,-3.43,-3.54,-3.56
171.57,-5.15,-1.57,-5.46,-1.90,1.90,0.78,1.53,-3.26,-3.56,-3.58
173.29,-4.88,-1.30,-5.23,-1.65,1.65,0.73,1.43,-3.23,-3.58,-3.59
175.02,-4.76,-1.17,-5.01,-1.42,1.42,0.69,1.33,-3.35,-3.59,-3.60
176.77,-4.50,-0.90,-4.81,-1.20,1.20,0.65,1.23,-3.30,-3.60,-3.61
178.54,-4.45,-0.84,-4.60,-0.99,0.99,0.61,1.13,-3.46,-3.61,-3.62
180.32,-4.47,-0.86,-4.38,-0.76,0.76,0.57,1.03,-3.71,-3.62,-3.61
182.13,-4.27,-0.68,-4.21,-0.59,0.59,0.52,0.93,-3.68,-3.62,-3.60
183.95,-4.08,-0.48,-4.10,-0.47,0.47,0.48,0.84,-3.62,-3.63,-3.61
185.79,-4.12,-0.52,-3.99,-0.36,0.36,0.44,0.74,-3.77,-3.63,-3.61
187.65,-3.91,-0.29,-3.91,-0.26,0.26,0.40,0.65,-3.65,-3.64,-3.63
189.52,-3.69,-0.06,-3.83,-0.17,0.17,0.36,0.55,-3.52,-3.65,-3.64
191.42,-3.74,-0.09,-3.75,-0.09,0.09,0.31,0.46,-3.66,-3.67,-3.66
193.33,-3.78,-0.11,-3.67,0.01,-0.01,0.27,0.37,-3.80,-3.68,-3.68
195.27,-3.70,-0.01,-3.59,0.11,-0.11,0.23,0.27,-3.82,-3.70,-3.70
197.22,-3.55,0.16,-3.51,0.21,-0.21,0.18,0.18,-3.76,-3.72,-3.72
199.19,-3.41,0.32,-3.43,0.31,-0.31,0.14,0.10,-3.72,-3.73,-3.74
201.18,-3.32,0.43,-3.35,0.41,-0.41,0.09,0.01,-3.73,-3.76,-3.76
203.19,-3.20,0.57,-3.28,0.50,-0.50,0.05,-0.08,-3.70,-3.78,-3.78
205.23,-3.15,0.64,-3.21,0.59,-0.59,-0.00,-0.17,-3.74,-3.80,-3.80
207.28,-3.17,0.63,-3.15,0.67,-0.67,-0.05,-0.25,-3.84,-3.82,-3.81
209.35,-3.11,0.71,-3.10,0.73,-0.73,-0.10,-0.33,-3.85,-3.84,-3.83
211.44,-3.05,0.80,-3.06,0.80,-0.80,-0.15,-0.41,-3.85,-3.85,-3.86
213.56,-3.01,0.85,-3.00,0.87,-0.87,-0.20,-0.49,-3.88,-3.87,-3.87
215.69,-2.96,0.91,-2.96,0.92,-0.92,-0.26,-0.57,-3.88,-3.88,-3.88
217.85,-2.92,0.96,-2.94,0.95,-0.95,-0.31,-0.64,-3.88,-3.89,-3.89
220.03,-2.87,1.02,-2.93,0.98,-0.98,-0.37,-0.72,-3.85,-3.90,-3.90
222.23,-2.86,1.06,-2.91,1.00,-1.00,-0.42,-0.79,-3.86,-3.91,-3.93
224.45,-2.86,1.05,-2.90,1.01,-1.01,-0.48,-0.86,-3.88,-3.91,-3.92
226.70,-2.88,1.03,-2.88,1.03,-1.03,-0.54,-0.92,-3.91,-3.91,-3.92
228.96,-2.94,0.96,-2.86,1.04,-1.04,-0.61,-0.98,-3.99,-3.91,-3.91
231.25,-2.87,1.02,-2.85,1.05,-1.05,-0.67,-1.04,-3.93,-3.90,-3.90
233.57,-2.84,1.04,-2.83,1.06,-1.06,-0.74,-1.10,-3.90,-3.89,-3.89
235.90,-2.82,1.05,-2.81,1.06,-1.06,-0.80,-1.15,-3.88,-3.87,-3.88
238.26,-2.81,1.05,-2.79,1.07,-1.07,-0.87,-1.20,-3.88,-3.86,-3.87
240.64,-2.79,1.04,-2.76,1.08,-1.08,-0.93,-1.25,-3.87,-3.84,-3.84
243.05,-2.71,1.09,-2.72,1.09,-1.09,-1.00,-1.29,-3.81,-3.82,-3.81
245.48,-2.66,1.12,-2.68,1.11,-1.11,-1.06,-1.33,-3.78,-3.79,-3.79
247.93,-2.63,1.12,-2.63,1.14,-1.14,-1.13,-1.36,-3.77,-3.77,-3.76
250.41,-2.61,1.12,-2.58,1.16,-1.16,-1.19,-1.39,-3.78,-3.75,-3.74
252.92,-2.58,1.12,-2.54,1.18,-1.18,-1.24,-1.42,-3.77,-3.72,-3.71
255.45,-2.50,1.18,-2.49,1.21,-1.21,-1.30,-1.44,-3.71,-3.70,-3.69
258.00,-2.42,1.24,-2.45,1.22,-1.22,-1.34,-1.46,-3.65,-3.67,-3.67
260.58,-2.37,1.27,-2.41,1.24,-1.24,-1.38,-1.48,-3.61,-3.65,-3.65
263.19,-2.29,1.32,-2.37,1.25,-1.25,-1.42,-1.49,-3.55,-3.62,-3.62
265.82,-2.27,1.32,-2.33,1.26,-1.26,-1.45,-1.50,-3.54,-3.60,-3.60
268.48,-2.27,1.30,-2.30,1.27,-1.27,-1.47,-1.50,-3.55,-3.57,-3.58
271.16,-2.27,1.27,-2.28,1.27,-1.27,-1.48,-1.50,-3.54,-3.55,-3.55
273.87,-2.28,1.24,-2.26,1.26,-1.26,-1.49,-1.50,-3.55,-3.52,-3.53
276.61,-2.28,1.21,-2.24,1.26,-1.26,-1.49,-1.50,-3.54,-3.50,-3.50
279.38,-2.22,1.24,-2.22,1.25,-1.25,-1.48,-1.50,-3.47,-3.47,-3.47
282.17,-2.18,1.26,-2.20,1.24,-1.24,-1.47,-1.49,-3.43,-3.44,-3.45
284.99,-2.17,1.23,-2.18,1.23,-1.23,-1.45,-1.48,-3.41,-3.41,-3.41
287.84,-2.16,1.22,-2.16,1.23,-1.23,-1.42,-1.47,-3.39,-3.39,-3.39
290.72,-2.15,1.20,-2.13,1.22,-1.22,-1.40,-1.46,-3.38,-3.36,-3.36
293.63,-2.14,1.18,-2.10,1.22,-1.22,-1.37,-1.45,-3.37,-3.33,-3.33
296.57,-2.12,1.17,-2.07,1.23,-1.23,-1.34,-1.43,-3.35,-3.30,-3.30
299.53,-2.11,1.15,-2.04,1.23,-1.23,-1.31,-1.42,-3.35,-3.27,-3.27
302.53,-2.02,1.22,-2.01,1.24,-1.24,-1.27,-1.40,-3.26,-3.24,-3.25
305.55,-1.91,1.29,-1.98,1.24,-1.24,-1.24,-1.39,-3.15,-3.22,-3.21
308.61,-1.88,1.30,-1.95,1.24,-1.24,-1.21,-1.37,-3.13,-3.19,-3.19
311.69,-1.87,1.28,-1.93,1.24,-1.24,-1.18,-1.36,-3.11,-3.17,-3.16
314.81,-1.87,1.26,-1.91,1.24,-1.24,-1.15,-1.34,-3.11,-3.15,-3.14
317.96,-1.87,1.24,-1.89,1.23,-1.23,-1.12,-1.33,-3.11,-3.13,-3.12
321.14,-1.87,1.23,-1.88,1.23,-1.23,-1.10,-1.31,-3.10,-3.11,-3.11
324.35,-1.87,1.21,-1.87,1.22,-1.22,-1.07,-1.30,-3.10,-3.09,-3.09
327.59,-1.87,1.20,-1.86,1.21,-1.21,-1.05,-1.29,-3.09,-3.08,-3.08
330.87,-1.87,1.19,-1.86,1.20,-1.20,-1.03,-1.27,-3.08,-3.06,-3.07
334.18,-1.87,1.17,-1.86,1.19,-1.19,-1.01,-1.26,-3.06,-3.05,-3.05
337.52,-1.87,1.16,-1.87,1.17,-1.17,-0.99,-1.25,-3.04,-3.04,-3.04
340.90,-1.88,1.14,-1.88,1.16,-1.16,-0.98,-1.24,-3.04,-3.03,-3.03
344.30,-1.88,1.13,-1.88,1.15,-1.15,-0.97,-1.23,-3.03,-3.03,-3.02
347.75,-1.88,1.13,-1.88,1.14,-1.14,-0.95,-1.22,-3.03,-3.02,-3.02
351.23,-1.87,1.13,-1.88,1.14,-1.14,-0.94,-1.22,-3.01,-3.01,-3.01
354.74,-1.87,1.14,-1.87,1.14,-1.14,-0.94,-1.21,-3.01,-3.01,-3.02
358.28,-1.87,1.13,-1.87,1.14,-1.14,-0.93,-1.21,-3.02,-3.01,-3.01
361.87,-1.86,1.14,-1.86,1.14,-1.14,-0.92,-1.20,-3.01,-3.01,-3.01
365.49,-1.86,1.13,-1.86,1.15,-1.15,-0.92,-1.20,-3.01,-3.01,-3.00
369.14,-1.85,1.15,-1.85,1.16,-1.16,-0.92,-1.20,-3.01,-3.01,-3.01
372.83,-1.84,1.16,-1.85,1.16,-1.16,-0.91,-1.19,-3.01,-3.01,-3.01
376.56,-1.83,1.18,-1.84,1.17,-1.17,-0.91,-1.19,-3.01,-3.01,-3.02
380.33,-1.83,1.17,-1.83,1.18,-1.18,-0.91,-1.20,-3.01,-3.01,-3.01
384.13,-1.82,1.18,-1.83,1.19,-1.19,-0.92,-1.20,-3.01,-3.02,-3.01
387.97,-1.81,1.20,-1.83,1.19,-1.19,-0.92,-1.20,-3.01,-3.02,-3.02
391.85,-1.81,1.21,-1.83,1.20,-1.20,-0.92,-1.20,-3.01,-3.03,-3.03
395.77,-1.81,1.20,-1.83,1.21,-1.21,-0.92,-1.21,-3.02,-3.03,-3.02
399.73,-1.81,1.21,-1.83,1.21,-1.21,-0.93,-1.21,-3.03,-3.04,-3.03
403.72,-1.81,1.21,-1.83,1.22,-1.22,-0.93,-1.22,-3.03,-3.04,-3.03
407.76,-1.82,1.22,-1.83,1.22,-1.22,-0.94,-1.23,-3.04,-3.05,-3.05
411.84,-1.82,1.22,-1.83,1.22,-1.22,-0.95,-1.23,-3.05,-3.05,-3.05
415.96,-1.82,1.22,-1.83,1.22,-1.22,-0.96,-1.24,-3.05,-3.05,-3.05
420.12,-1.82,1.22,-1.82,1.23,-1.23,-0.96,-1.25,-3.05,-3.05,-3.05
424.32,-1.81,1.23,-1.81,1.23,-1.23,-0.97,-1.26,-3.05,-3.04,-3.05
428.56,-1.80,1.23,-1.79,1.24,-1.24,-0.98,-1.27,-3.05,-3.03,-3.04
432.85,-1.79,1.23,-1.77,1.25,-1.25,-0.99,-1.28,-3.04,-3.02,-3.03
437.18,-1.76,1.25,-1.74,1.26,-1.26,-1.00,-1.29,-3.02,-3.00,-3.02
441.55,-1.73,1.24,-1.71,1.26,-1.26,-1.01,-1.30,-3.00,-2.97,-2.98
445.96,-1.68,1.26,-1.67,1.27,-1.27,-1.02,-1.31,-2.95,-2.94,-2.95
450.42,-1.63,1.28,-1.63,1.28,-1.28,-1.04,-1.32,-2.91,-2.90,-2.92
454.93,-1.57,1.29,-1.58,1.29,-1.29,-1.05,-1.33,-2.86,-2.86,-2.87
459.48,-1.51,1.31,-1.52,1.30,-1.30,-1.06,-1.34,-2.81,-2.82,-2.83
464.07,-1.45,1.32,-1.46,1.31,-1.31,-1.07,-1.35,-2.76,-2.77,-2.78
468.71,-1.40,1.31,-1.40,1.32,-1.32,-1.09,-1.36,-2.73,-2.72,-2.72
