frequency,raw,error,smoothed,error_smoothed,equalization,parametric_eq,fixed_band_eq,equalized_raw,equalized_smoothed,target
20.00,3.44,-2.48,3.44,-2.47,2.47,2.41,-1.07,5.91,5.91,5.91
20.20,3.63,-2.29,3.63,-2.29,2.29,2.27,-1.11,5.92,5.91,5.91
20.40,3.81,-2.10,3.81,-2.11,2.11,2.12,-1.14,5.92,5.92,5.91
20.61,3.98,-1.93,3.99,-1.93,1.93,1.97,-1.17,5.92,5.92,5.91
20.81,4.16,-1.75,4.16,-1.76,1.76,1.81,-1.20,5.92,5.92,5.91
21.02,4.32,-1.60,4.32,-1.59,1.59,1.65,-1.24,5.90,5.91,5.91
21.23,4.49,-1.41,4.48,-1.42,1.41,1.48,-1.28,5.90,5.90,5.89
21.44,4.64,-1.24,4.64,-1.24,1.24,1.32,-1.31,5.88,5.88,5.88
21.66,4.79,-1.08,4.79,-1.07,1.08,1.15,-1.35,5.86,5.87,5.86
21.87,4.94,-0.90,4.94,-0.91,0.91,0.99,-1.39,5.85,5.85,5.84
22.09,5.09,-0.74,5.08,-0.74,0.74,0.82,-1.43,5.83,5.83,5.83
22.31,5.23,-0.57,5.23,-0.58,0.57,0.66,-1.47,5.80,5.80,5.80
22.54,5.37,-0.42,5.37,-0.41,0.41,0.50,-1.51,5.77,5.78,5.78
22.76,5.52,-0.24,5.51,-0.25,0.24,0.34,-1.56,5.76,5.76,5.76
22.99,5.65,-0.09,5.65,-0.08,0.08,0.18,-1.60,5.73,5.73,5.73
23.22,5.78,0.07,5.78,0.08,-0.07,0.02,-1.65,5.71,5.71,5.70
23.45,5.92,0.24,5.91,0.23,-0.22,-0.13,-1.69,5.69,5.69,5.67
23.69,6.04,0.37,6.04,0.38,-0.37,-0.28,-1.74,5.66,5.67,5.66
23.92,6.17,0.53,6.17,0.52,-0.52,-0.43,-1.79,5.65,5.65,5.64
24.16,6.29,0.65,6.29,0.65,-0.66,-0.57,-1.84,5.63,5.63,5.63
24.40,6.40,0.79,6.40,0.79,-0.79,-0.71,-1.89,5.61,5.61,5.61
24.65,6.52,0.92,6.52,0.92,-0.93,-0.85,-1.94,5.59,5.59,5.59
24.89,6.63,1.06,6.63,1.06,-1.06,-0.99,-1.99,5.57,5.58,5.57
25.14,6.75,1.19,6.75,1.18,-1.19,-1.12,-2.05,5.56,5.56,5.56
25.39,6.86,1.32,6.86,1.31,-1.31,-1.25,-2.10,5.54,5.54,5.54
25.65,6.97,1.43,6.97,1.44,-1.44,-1.38,-2.15,5.52,5.53,5.53
25.91,7.08,1.57,7.08,1.57,-1.57,-1.50,-2.21,5.51,5.51,5.50
26.16,7.19,1.70,7.18,1.69,-1.69,-1.62,-2.26,5.50,5.49,5.49
26.43,7.29,1.80,7.29,1.81,-1.81,-1.74,-2.32,5.48,5.48,5.48
26.69,7.39,1.93,7.39,1.93,-1.93,-1.85,-2.37,5.46,5.46,5.45
26.96,7.49,2.04,7.49,2.04,-2.04,-1.97,-2.42,5.45,5.45,5.44
27.23,7.59,2.15,7.58,2.15,-2.15,-2.07,-2.48,5.44,5.43,5.43
27.50,7.67,2.24,7.67,2.25,-2.25,-2.18,-2.53,5.42,5.42,5.42
27.77,7.76,2.36,7.76,2.35,-2.35,-2.29,-2.58,5.41,5.41,5.40
28.05,7.85,2.45,7.84,2.45,-2.45,-2.39,-2.63,5.40,5.39,5.39
28.33,7.92,2.54,7.92,2.55,-2.55,-2.49,-2.68,5.37,5.38,5.37
28.62,8.01,2.64,8.00,2.64,-2.64,-2.59,-2.73,5.36,5.36,5.36
28.90,8.08,2.73,8.08,2.74,-2.73,-2.68,-2.77,5.34,5.34,5.34
29.19,8.16,2.83,8.16,2.83,-2.83,-2.77,-2.81,5.33,5.33,5.32
29.48,8.24,2.91,8.24,2.92,-2.92,-2.86,-2.85,5.32,5.32,5.32
29.78,8.32,3.00,8.32,3.01,-3.01,-2.95,-2.89,5.31,5.31,5.31
30.08,8.40,3.09,8.39,3.09,-3.10,-3.04,-2.93,5.30,5.30,5.30
30.38,8.47,3.18,8.47,3.18,-3.18,-3.12,-2.96,5.28,5.28,5.28
30.68,8.54,3.26,8.54,3.27,-3.27,-3.21,-2.99,5.27,5.27,5.27
30.99,8.62,3.37,8.61,3.36,-3.36,-3.29,-3.02,5.26,5.26,5.24
31.30,8.68,3.44,8.68,3.44,-3.44,-3.36,-3.05,5.24,5.24,5.23
31.61,8.75,3.52,8.74,3.52,-3.52,-3.44,-3.07,5.22,5.22,5.22
31.93,8.80,3.59,8.80,3.60,-3.60,-3.51,-3.09,5.19,5.20,5.20
32.24,8.86,3.68,8.86,3.68,-3.68,-3.58,-3.11,5.18,5.18,5.17
32.57,8.92,3.76,8.91,3.76,-3.76,-3.65,-3.12,5.16,5.16,5.15
32.89,8.97,3.82,8.97,3.83,-3.83,-3.72,-3.14,5.14,5.14,5.14
33.22,9.02,3.90,9.02,3.90,-3.90,-3.79,-3.15,5.12,5.12,5.11
33.55,9.07,3.96,9.07,3.97,-3.97,-3.85,-3.15,5.10,5.10,5.10
33.89,9.11,4.03,9.11,4.03,-4.03,-3.91,-3.16,5.07,5.08,5.07
34.23,9.15,4.09,9.15,4.09,-4.09,-3.97,-3.16,5.05,5.06,5.05
34.57,9.19,4.15,9.19,4.16,-4.15,-4.03,-3.17,5.04,5.04,5.03
34.92,9.23,4.21,9.22,4.21,-4.21,-4.08,-3.17,5.02,5.02,5.01
35.27,9.26,4.26,9.25,4.26,-4.26,-4.14,-3.17,5.00,5.00,4.99
35.62,9.28,4.30,9.28,4.31,-4.31,-4.19,-3.17,4.97,4.98,4.97
35.97,9.31,4.35,9.31,4.35,-4.35,-4.24,-3.17,4.95,4.95,4.95
36.33,9.34,4.40,9.33,4.40,-4.40,-4.29,-3.17,4.94,4.93,4.93
36.70,9.35,4.43,9.36,4.44,-4.44,-4.33,-3.17,4.90,4.91,4.91
37.06,9.38,4.48,9.38,4.48,-4.49,-4.38,-3.17,4.89,4.89,4.89
37.43,9.40,4.52,9.40,4.52,-4.53,-4.42,-3.17,4.87,4.87,4.87
37.81,9.42,4.56,9.42,4.57,-4.57,-4.46,-3.17,4.85,4.85,4.85
38.19,9.44,4.61,9.44,4.61,-4.61,-4.50,-3.17,4.83,4.83,4.82
38.57,9.45,4.63,9.45,4.64,-4.64,-4.53,-3.18,4.81,4.81,4.81
38.95,9.47,4.68,9.46,4.68,-4.67,-4.57,-3.18,4.79,4.79,4.78
39.34,9.48,4.71,9.47,4.71,-4.71,-4.60,-3.19,4.77,4.77,4.76
39.74,9.48,4.73,9.48,4.74,-4.73,-4.63,-3.20,4.74,4.75,4.74
40.14,9.49,4.75,9.49,4.76,-4.76,-4.66,-3.21,4.73,4.73,4.73
40.54,9.49,4.77,9.49,4.78,-4.78,-4.68,-3.22,4.71,4.71,4.71
40.94,9.50,4.80,9.49,4.80,-4.80,-4.71,-3.23,4.70,4.69,4.69
41.35,9.49,4.82,9.49,4.82,-4.82,-4.73,-3.25,4.67,4.68,4.66
41.76,9.50,4.83,9.49,4.84,-4.83,-4.75,-3.27,4.67,4.66,4.66
42.18,9.49,4.84,9.49,4.84,-4.84,-4.77,-3.29,4.64,4.64,4.64
42.60,9.48,4.85,9.48,4.85,-4.86,-4.78,-3.31,4.62,4.62,4.62
43.03,9.47,4.85,9.47,4.86,-4.87,-4.80,-3.34,4.60,4.60,4.61
43.46,9.46,4.87,9.46,4.88,-4.88,-4.81,-3.37,4.58,4.58,4.58
43.90,9.46,4.89,9.45,4.89,-4.89,-4.82,-3.40,4.57,4.56,4.56
44.33,9.45,4.90,9.44,4.90,-4.90,-4.83,-3.43,4.55,4.55,4.54
44.78,9.43,4.90,9.43,4.91,-4.91,-4.84,-3.47,4.52,4.52,4.52
45.23,9.42,4.92,9.42,4.92,-4.91,-4.85,-3.51,4.50,4.50,4.49
45.68,9.40,4.92,9.40,4.92,-4.92,-4.86,-3.55,4.48,4.48,4.47
46.13,9.39,4.92,9.39,4.92,-4.92,-4.86,-3.59,4.47,4.47,4.46
46.60,9.37,4.91,9.37,4.92,-4.92,-4.86,-3.64,4.45,4.45,4.45
47.06,9.35,4.91,9.35,4.91,-4.91,-4.86,-3.69,4.43,4.43,4.43
47.53,9.33,4.91,9.32,4.91,-4.91,-4.86,-3.74,4.42,4.41,4.41
48.01,9.30,4.89,9.30,4.90,-4.91,-4.86,-3.79,4.39,4.39,4.40
48.49,9.27,4.89,9.27,4.90,-4.90,-4.86,-3.85,4.36,4.37,4.37
48.97,9.25,4.90,9.24,4.90,-4.90,-4.86,-3.90,4.35,4.34,4.34
49.46,9.22,4.90,9.22,4.90,-4.90,-4.85,-3.96,4.32,4.32,4.31
49.96,9.19,4.90,9.19,4.90,-4.89,-4.85,-4.02,4.30,4.30,4.28
50.46,9.16,4.88,9.16,4.89,-4.88,-4.84,-4.09,4.27,4.27,4.27
50.96,9.13,4.87,9.13,4.88,-4.88,-4.83,-4.15,4.25,4.25,4.25
51.47,9.10,4.87,9.10,4.87,-4.87,-4.82,-4.22,4.23,4.23,4.22
51.99,9.06,4.85,9.06,4.86,-4.86,-4.81,-4.28,4.20,4.20,4.20
52.51,9.03,4.84,9.03,4.84,-4.85,-4.80,-4.35,4.18,4.18,4.18
53.03,8.99,4.82,8.99,4.83,-4.83,-4.79,-4.41,4.15,4.16,4.16
53.56,8.96,4.82,8.96,4.82,-4.82,-4.78,-4.48,4.14,4.14,4.13
54.10,8.93,4.81,8.92,4.81,-4.81,-4.77,-4.55,4.12,4.11,4.11
54.64,8.89,4.80,8.89,4.80,-4.80,-4.75,-4.61,4.09,4.09,4.08
55.18,8.85,4.78,8.85,4.79,-4.79,-4.74,-4.67,4.06,4.06,4.06
55.74,8.82,4.78,8.81,4.78,-4.78,-4.73,-4.74,4.04,4.03,4.03
56.29,8.78,4.76,8.78,4.77,-4.77,-4.72,-4.80,4.01,4.01,4.01
56.86,8.74,4.75,8.74,4.75,-4.75,-4.70,-4.85,3.98,3.99,3.98
57.42,8.71,4.74,8.70,4.74,-4.74,-4.69,-4.91,3.97,3.97,3.96
58.00,8.67,4.72,8.67,4.73,-4.72,-4.67,-4.96,3.94,3.94,3.94
58.58,8.63,4.71,8.63,4.71,-4.71,-4.66,-5.01,3.92,3.92,3.91
59.16,8.59,4.69,8.59,4.69,-4.69,-4.65,-5.05,3.90,3.90,3.89
59.76,8.55,4.67,8.55,4.67,-4.68,-4.63,-5.09,3.87,3.87,3.87
60.35,8.51,4.66,8.50,4.66,-4.67,-4.62,-5.13,3.84,3.84,3.84
60.96,8.46,4.63,8.46,4.65,-4.65,-4.60,-5.16,3.80,3.81,3.82
61.57,8.43,4.64,8.43,4.64,-4.64,-4.59,-5.18,3.78,3.78,3.78
62.18,8.39,4.63,8.39,4.63,-4.63,-4.58,-5.20,3.75,3.76,3.75
62.80,8.36,4.63,8.35,4.63,-4.63,-4.57,-5.22,3.73,3.73,3.72
63.43,8.32,4.62,8.32,4.62,-4.62,-4.55,-5.23,3.70,3.70,3.69
64.07,8.28,4.61,8.28,4.62,-4.61,-4.54,-5.23,3.67,3.67,3.66
64.71,8.25,4.60,8.24,4.60,-4.60,-4.53,-5.23,3.65,3.65,3.64
65.35,8.21,4.58,8.21,4.58,-4.59,-4.52,-5.23,3.62,3.62,3.62
66.01,8.17,4.56,8.17,4.57,-4.57,-4.51,-5.22,3.59,3.60,3.60
66.67,8.14,4.56,8.14,4.56,-4.56,-4.50,-5.21,3.58,3.57,3.57
67.33,8.11,4.55,8.10,4.55,-4.55,-4.50,-5.19,3.56,3.55,3.55
68.01,8.07,4.54,8.07,4.54,-4.54,-4.49,-5.17,3.53,3.53,3.52
68.69,8.04,4.53,8.03,4.53,-4.53,-4.48,-5.15,3.50,3.50,3.50
69.37,8.00,4.52,8.00,4.53,-4.53,-4.48,-5.12,3.47,3.47,3.47
70.07,7.97,4.52,7.97,4.52,-4.52,-4.47,-5.09,3.44,3.45,3.44
70.77,7.95,4.52,7.94,4.52,-4.52,-4.47,-5.07,3.43,3.42,3.42
71.48,7.92,4.52,7.91,4.52,-4.52,-4.47,-5.03,3.40,3.39,3.39
72.19,7.88,4.51,7.89,4.52,-4.52,-4.47,-5.00,3.35,3.36,3.36
72.91,7.86,4.53,7.85,4.52,-4.53,-4.47,-4.97,3.33,3.32,3.32
73.64,7.83,4.53,7.83,4.53,-4.54,-4.47,-4.94,3.29,3.29,3.29
74.38,7.80,4.53,7.81,4.55,-4.55,-4.48,-4.91,3.25,3.26,3.26
75.12,7.79,4.57,7.78,4.56,-4.56,-4.48,-4.88,3.23,3.22,3.21
75.87,7.76,4.57,7.76,4.57,-4.57,-4.49,-4.85,3.19,3.19,3.18
76.63,7.73,4.57,7.73,4.59,-4.58,-4.50,-4.82,3.14,3.15,3.15
77.40,7.71,4.59,7.71,4.60,-4.60,-4.51,-4.80,3.11,3.11,3.11
78.17,7.69,4.63,7.69,4.62,-4.62,-4.52,-4.77,3.07,3.07,3.05
78.95,7.67,4.63,7.66,4.64,-4.64,-4.53,-4.75,3.03,3.03,3.03
79.74,7.64,4.64,7.64,4.65,-4.66,-4.55,-4.73,2.98,2.99,2.99
80.54,7.62,4.67,7.62,4.67,-4.68,-4.56,-4.71,2.94,2.94,2.94
81.35,7.61,4.70,7.60,4.70,-4.70,-4.58,-4.70,2.90,2.90,2.90
82.16,7.59,4.73,7.59,4.73,-4.73,-4.60,-4.69,2.86,2.86,2.85
82.98,7.57,4.75,7.57,4.76,-4.76,-4.62,-4.68,2.81,2.81,2.81
83.81,7.55,4.79,7.55,4.79,-4.78,-4.65,-4.68,2.76,2.76,2.75
84.65,7.53,4.81,7.53,4.82,-4.81,-4.67,-4.68,2.71,2.72,2.71
85.50,7.52,4.84,7.51,4.84,-4.84,-4.70,-4.68,2.67,2.67,2.67
86.35,7.50,4.87,7.49,4.87,-4.87,-4.73,-4.69,2.62,2.62,2.62
87.22,7.47,4.89,7.48,4.90,-4.90,-4.76,-4.70,2.56,2.57,2.57
88.09,7.46,4.94,7.45,4.93,-4.93,-4.80,-4.71,2.52,2.52,2.51
88.97,7.44,4.96,7.44,4.97,-4.97,-4.83,-4.73,2.47,2.47,2.47
89.86,7.42,4.99,7.42,5.00,-5.00,-4.87,-4.75,2.42,2.42,2.42
90.76,7.40,5.03,7.40,5.03,-5.03,-4.91,-4.77,2.37,2.37,2.36
91.66,7.38,5.06,7.38,5.07,-5.06,-4.95,-4.80,2.31,2.31,2.31
92.58,7.36,5.10,7.36,5.10,-5.10,-4.99,-4.83,2.26,2.26,2.25
93.51,7.34,5.12,7.34,5.13,-5.13,-5.04,-4.87,2.20,2.21,2.21
94.44,7.33,5.16,7.32,5.17,-5.17,-5.09,-4.91,2.16,2.15,2.16
95.39,7.31,5.20,7.31,5.20,-5.21,-5.13,-4.95,2.10,2.10,2.10
96.34,7.29,5.25,7.29,5.25,-5.25,-5.18,-4.99,2.04,2.04,2.03
97.30,7.27,5.28,7.27,5.29,-5.29,-5.23,-5.04,1.98,1.98,1.98
98.28,7.25,5.32,7.25,5.33,-5.33,-5.28,-5.09,1.92,1.92,1.92
99.26,7.23,5.37,7.23,5.37,-5.37,-5.34,-5.14,1.86,1.86,1.85
100.25,7.21,5.40,7.21,5.41,-5.41,-5.39,-5.20,1.80,1.80,1.80
101.25,7.19,5.44,7.18,5.45,-5.44,-5.44,-5.25,1.74,1.74,1.74
102.27,7.16,5.48,7.16,5.48,-5.48,-5.50,-5.31,1.68,1.68,1.67
103.29,7.13,5.52,7.13,5.52,-5.52,-5.55,-5.37,1.61,1.62,1.60
104.32,7.11,5.55,7.10,5.55,-5.55,-5.60,-5.43,1.55,1.55,1.55
105.37,7.08,5.58,7.07,5.58,-5.59,-5.65,-5.50,1.49,1.49,1.49
106.42,7.04,5.61,7.04,5.62,-5.62,-5.71,-5.56,1.42,1.42,1.42
107.48,7.01,5.65,7.01,5.65,-5.65,-5.75,-5.62,1.35,1.35,1.35
108.56,6.98,5.69,6.98,5.69,-5.69,-5.80,-5.68,1.29,1.29,1.28
109.64,6.95,5.72,6.94,5.72,-5.72,-5.85,-5.73,1.23,1.23,1.22
110.74,6.91,5.74,6.91,5.75,-5.75,-5.89,-5.79,1.16,1.16,1.16
111.85,6.87,5.77,6.87,5.78,-5.78,-5.93,-5.84,1.09,1.09,1.09
112.97,6.83,5.81,6.82,5.80,-5.81,-5.96,-5.89,1.02,1.02,1.01
114.10,6.78,5.82,6.78,5.83,-5.83,-5.99,-5.94,0.95,0.95,0.95
115.24,6.74,5.85,6.74,5.86,-5.85,-6.02,-5.98,0.88,0.88,0.88
116.39,6.70,5.88,6.69,5.88,-5.87,-6.04,-6.01,0.82,0.82,0.81
117.55,6.64,5.89,6.64,5.90,-5.89,-6.06,-6.04,0.75,0.75,0.74
118.73,6.59,5.90,6.59,5.90,-5.90,-6.07,-6.07,0.69,0.69,0.68
119.92,6.53,5.90,6.53,5.91,-5.91,-6.07,-6.08,0.62,0.62,0.62
121.12,6.47,5.90,6.47,5.91,-5.91,-6.07,-6.09,0.56,0.56,0.56
122.33,6.41,5.91,6.41,5.91,-5.91,-6.06,-6.09,0.50,0.50,0.49
123.55,6.35,5.90,6.35,5.90,-5.90,-6.04,-6.08,0.44,0.44,0.44
124.79,6.28,5.89,6.28,5.89,-5.90,-6.02,-6.07,0.38,0.38,0.38
126.03,6.21,5.87,6.21,5.88,-5.89,-5.99,-6.05,0.32,0.32,0.33
127.29,6.14,5.86,6.14,5.87,-5.87,-5.95,-6.01,0.27,0.27,0.27
128.57,6.07,5.86,6.06,5.85,-5.85,-5.91,-5.97,0.21,0.21,0.20
129.85,5.99,5.83,5.99,5.84,-5.83,-5.86,-5.92,0.16,0.16,0.15
131.15,5.91,5.80,5.91,5.81,-5.81,-5.81,-5.87,0.10,0.10,0.10
132.46,5.83,5.78,5.83,5.78,-5.77,-5.74,-5.80,0.05,0.05,0.04
133.79,5.74,5.73,5.74,5.74,-5.74,-5.68,-5.73,0.00,0.00,0.00
135.12,5.65,5.70,5.64,5.69,-5.69,-5.61,-5.66,-0.05,-0.05,-0.06
136.48,5.55,5.63,5.55,5.64,-5.64,-5.53,-5.57,-0.09,-0.09,-0.09
137.84,5.45,5.57,5.45,5.59,-5.59,-5.45,-5.48,-0.14,-0.13,-0.13
139.22,5.36,5.53,5.35,5.52,-5.52,-5.36,-5.39,-0.17,-0.17,-0.18
140.61,5.25,5.46,5.25,5.46,-5.46,-5.27,-5.29,-0.21,-0.21,-0.22
142.02,5.15,5.38,5.14,5.38,-5.38,-5.18,-5.19,-0.23,-0.24,-0.24
143.44,5.03,5.29,5.03,5.30,-5.30,-5.08,-5.09,-0.28,-0.27,-0.27
144.87,4.92,5.22,4.92,5.22,-5.22,-4.99,-4.98,-0.30,-0.30,-0.31
146.32,4.81,5.14,4.80,5.13,-5.13,-4.89,-4.87,-0.33,-0.33,-0.34
147.78,4.68,5.03,4.68,5.04,-5.04,-4.79,-4.76,-0.36,-0.36,-0.36
149.26,4.56,4.94,4.56,4.95,-4.95,-4.68,-4.65,-0.39,-0.39,-0.39
150.75,4.43,4.85,4.43,4.85,-4.85,-4.58,-4.54,-0.42,-0.42,-0.43
152.26,4.30,4.74,4.30,4.75,-4.75,-4.48,-4.43,-0.45,-0.45,-0.45
153.78,4.17,4.64,4.17,4.64,-4.64,-4.37,-4.32,-0.47,-0.47,-0.48
155.32,4.04,4.53,4.03,4.53,-4.54,-4.27,-4.21,-0.50,-0.50,-0.50
156.88,3.90,4.42,3.90,4.43,-4.43,-4.17,-4.10,-0.53,-0.53,-0.53
158.44,3.76,4.31,3.76,4.31,-4.31,-4.06,-3.99,-0.56,-0.56,-0.56
160.03,3.62,4.20,3.61,4.20,-4.20,-3.96,-3.88,-0.58,-0.59,-0.59
161.63,3.47,4.08,3.47,4.09,-4.09,-3.86,-3.78,-0.62,-0.61,-0.62
163.24,3.33,3.97,3.33,3.97,-3.97,-3.76,-3.67,-0.64,-0.64,-0.65
164.88,3.19,3.85,3.18,3.85,-3.85,-3.66,-3.57,-0.66,-0.67,-0.67
166.53,3.04,3.72,3.04,3.73,-3.73,-3.56,-3.47,-0.69,-0.69,-0.69
168.19,2.89,3.61,2.89,3.61,-3.61,-3.46,-3.37,-0.72,-0.72,-0.73
169.87,2.74,3.49,2.74,3.49,-3.49,-3.37,-3.27,-0.76,-0.75,-0.76
171.57,2.60,3.38,2.59,3.37,-3.38,-3.27,-3.18,-0.78,-0.78,-0.79
173.29,2.44,3.24,2.44,3.26,-3.26,-3.18,-3.09,-0.82,-0.81,-0.81
175.02,2.30,3.14,2.29,3.14,-3.14,-3.09,-3.00,-0.85,-0.85,-0.85
176.77,2.15,3.03,2.15,3.03,-3.03,-2.99,-2.91,-0.88,-0.88,-0.89
178.54,2.00,2.92,2.00,2.92,-2.92,-2.90,-2.82,-0.92,-0.92,-0.93
180.32,1.86,2.81,1.85,2.81,-2.81,-2.81,-2.74,-0.95,-0.96,-0.96
182.13,1.71,2.69,1.71,2.70,-2.71,-2.72,-2.66,-1.00,-1.00,-0.99
183.95,1.57,2.59,1.57,2.60,-2.60,-2.63,-2.58,-1.03,-1.03,-1.03
185.79,1.44,2.50,1.44,2.50,-2.50,-2.55,-2.50,-1.06,-1.06,-1.07
187.65,1.31,2.41,1.30,2.41,-2.40,-2.46,-2.43,-1.09,-1.09,-1.11
189.52,1.17,2.30,1.17,2.31,-2.30,-2.37,-2.36,-1.13,-1.13,-1.14
191.42,1.05,2.20,1.05,2.21,-2.21,-2.28,-2.29,-1.16,-1.16,-1.16
193.33,0.93,2.10,0.93,2.11,-2.12,-2.18,-2.22,-1.19,-1.19,-1.18
195.27,0.82,2.02,0.81,2.02,-2.03,-2.09,-2.15,-1.21,-1.21,-1.21
197.22,0.70,1.93,0.70,1.94,-1.94,-2.00,-2.09,-1.25,-1.24,-1.24
199.19,0.60,1.88,0.60,1.87,-1.86,-1.90,-2.02,-1.26,-1.27,-1.29
201.18,0.50,1.79,0.49,1.79,-1.79,-1.81,-1.96,-1.29,-1.29,-1.30
203.19,0.40,1.71,0.40,1.72,-1.72,-1.73,-1.90,-1.32,-1.32,-1.32
205.23,0.31,1.64,0.31,1.64,-1.65,-1.65,-1.84,-1.34,-1.34,-1.34
207.28,0.24,1.58,0.23,1.59,-1.59,-1.58,-1.79,-1.35,-1.36,-1.35
209.35,0.16,1.53,0.16,1.54,-1.54,-1.53,-1.73,-1.38,-1.37,-1.38
211.44,0.10,1.49,0.09,1.49,-1.48,-1.48,-1.68,-1.39,-1.39,-1.40
213.56,0.03,1.44,0.03,1.44,-1.44,-1.45,-1.63,-1.41,-1.41,-1.42
215.69,-0.02,1.39,-0.03,1.39,-1.40,-1.42,-1.58,-1.42,-1.43,-1.42
217.85,-0.08,1.34,-0.08,1.36,-1.36,-1.39,-1.53,-1.45,-1.44,-1.43
220.03,-0.12,1.33,-0.12,1.33,-1.33,-1.36,-1.48,-1.45,-1.45,-1.46
222.23,-0.15,1.31,-0.16,1.30,-1.30,-1.34,-1.43,-1.45,-1.46,-1.47
224.45,-0.18,1.27,-0.19,1.28,-1.27,-1.31,-1.39,-1.45,-1.46,-1.46
226.70,-0.22,1.24,-0.21,1.25,-1.25,-1.28,-1.34,-1.47,-1.46,-1.47
228.96,-0.23,1.23,-0.24,1.22,-1.22,-1.24,-1.30,-1.46,-1.46,-1.47
231.25,-0.26,1.19,-0.26,1.20,-1.20,-1.21,-1.26,-1.46,-1.46,-1.46
233.57,-0.28,1.16,-0.28,1.17,-1.18,-1.17,-1.21,-1.46,-1.45,-1.45
235.90,-0.29,1.15,-0.29,1.15,-1.15,-1.14,-1.17,-1.45,-1.45,-1.45
238.26,-0.30,1.14,-0.31,1.13,-1.13,-1.10,-1.13,-1.43,-1.43,-1.45
240.64,-0.32,1.10,-0.32,1.11,-1.10,-1.06,-1.10,-1.42,-1.42,-1.43
243.05,-0.33,1.07,-0.34,1.07,-1.07,-1.03,-1.06,-1.41,-1.41,-1.41
245.48,-0.35,1.03,-0.35,1.04,-1.04,-0.99,-1.02,-1.40,-1.39,-1.39
247.93,-0.36,1.01,-0.36,1.01,-1.01,-0.95,-0.98,-1.37,-1.37,-1.38
250.41,-0.37,0.99,-0.38,0.98,-0.97,-0.91,-0.95,-1.35,-1.35,-1.37
252.92,-0.39,0.93,-0.39,0.94,-0.94,-0.87,-0.91,-1.33,-1.33,-1.33
255.45,-0.41,0.89,-0.41,0.90,-0.90,-0.84,-0.88,-1.31,-1.31,-1.31
258.00,-0.43,0.85,-0.43,0.85,-0.86,-0.80,-0.85,-1.29,-1.29,-1.29
260.58,-0.44,0.82,-0.45,0.82,-0.82,-0.76,-0.81,-1.27,-1.27,-1.27
263.19,-0.46,0.78,-0.46,0.79,-0.78,-0.73,-0.78,-1.25,-1.24,-1.25
265.82,-0.47,0.75,-0.47,0.75,-0.74,-0.69,-0.75,-1.22,-1.22,-1.23
268.48,-0.49,0.70,-0.49,0.71,-0.71,-0.65,-0.72,-1.20,-1.19,-1.20
271.16,-0.49,0.67,-0.50,0.67,-0.67,-0.61,-0.68,-1.16,-1.17,-1.17
273.87,-0.51,0.63,-0.51,0.63,-0.64,-0.58,-0.65,-1.15,-1.15,-1.15
276.61,-0.52,0.59,-0.52,0.60,-0.60,-0.54,-0.62,-1.13,-1.12,-1.12
279.38,-0.52,0.57,-0.53,0.57,-0.57,-0.51,-0.59,-1.09,-1.10,-1.10
282.17,-0.53,0.54,-0.53,0.54,-0.54,-0.47,-0.56,-1.07,-1.07,-1.08
284.99,-0.54,0.50,-0.54,0.51,-0.51,-0.43,-0.53,-1.05,-1.05,-1.05
287.84,-0.54,0.48,-0.54,0.48,-0.48,-0.40,-0.50,-1.02,-1.02,-1.03
290.72,-0.54,0.44,-0.55,0.45,-0.45,-0.36,-0.48,-0.99,-0.99,-0.99
293.63,-0.55,0.41,-0.55,0.41,-0.41,-0.32,-0.45,-0.96,-0.96,-0.97
296.57,-0.56,0.37,-0.56,0.38,-0.37,-0.29,-0.42,-0.94,-0.93,-0.94
299.53,-0.57,0.33,-0.57,0.34,-0.34,-0.25,-0.39,-0.91,-0.91,-0.91
302.53,-0.57,0.31,-0.58,0.30,-0.30,-0.22,-0.36,-0.87,-0.88,-0.89
305.55,-0.59,0.24,-0.59,0.26,-0.26,-0.18,-0.33,-0.85,-0.84,-0.84
308.61,-0.59,0.21,-0.59,0.21,-0.21,-0.14,-0.31,-0.80,-0.81,-0.81
311.69,-0.60,0.16,-0.60,0.16,-0.17,-0.11,-0.28,-0.77,-0.77,-0.77
314.81,-0.61,0.12,-0.61,0.12,-0.12,-0.07,-0.25,-0.73,-0.73,-0.74
317.96,-0.63,0.07,-0.63,0.07,-0.07,-0.03,-0.22,-0.70,-0.70,-0.71
321.14,-0.65,0.02,-0.65,0.03,-0.02,0.00,-0.20,-0.68,-0.67,-0.68
324.35,-0.67,-0.02,-0.67,-0.02,0.02,0.04,-0.17,-0.65,-0.65,-0.66
327.59,-0.69,-0.08,-0.69,-0.07,0.07,0.08,-0.14,-0.62,-0.62,-0.62
330.87,-0.71,-0.13,-0.71,-0.12,0.12,0.11,-0.11,-0.59,-0.59,-0.59
334.18,-0.73,-0.17,-0.73,-0.17,0.16,0.15,-0.09,-0.57,-0.57,-0.57
337.52,-0.74,-0.20,-0.75,-0.20,0.20,0.19,-0.06,-0.54,-0.54,-0.55
340.90,-0.76,-0.25,-0.76,-0.24,0.24,0.23,-0.03,-0.52,-0.52,-0.52
344.30,-0.77,-0.28,-0.77,-0.28,0.28,0.26,-0.00,-0.49,-0.49,-0.50
347.75,-0.79,-0.33,-0.79,-0.32,0.31,0.30,0.02,-0.48,-0.47,-0.47
351.23,-0.79,-0.35,-0.80,-0.35,0.35,0.34,0.05,-0.45,-0.45,-0.45
354.74,-0.81,-0.38,-0.81,-0.37,0.37,0.38,0.08,-0.44,-0.43,-0.44
358.28,-0.81,-0.40,-0.81,-0.40,0.40,0.42,0.11,-0.41,-0.41,-0.42
361.87,-0.82,-0.43,-0.82,-0.43,0.43,0.45,0.14,-0.39,-0.39,-0.40
365.49,-0.83,-0.47,-0.83,-0.46,0.46,0.49,0.16,-0.38,-0.37,-0.37
369.14,-0.84,-0.49,-0.84,-0.48,0.48,0.53,0.19,-0.36,-0.36,-0.36
372.83,-0.85,-0.51,-0.85,-0.51,0.52,0.57,0.22,-0.34,-0.34,-0.35
376.56,-0.86,-0.54,-0.86,-0.54,0.55,0.61,0.25,-0.31,-0.32,-0.33
380.33,-0.88,-0.59,-0.88,-0.58,0.58,0.64,0.28,-0.30,-0.30,-0.30
384.13,-0.89,-0.62,-0.90,-0.62,0.62,0.68,0.31,-0.27,-0.28,-0.28
387.97,-0.92,-0.67,-0.92,-0.66,0.66,0.72,0.34,-0.26,-0.26,-0.26
391.85,-0.93,-0.70,-0.93,-0.70,0.70,0.76,0.37,-0.23,-0.23,-0.24
395.77,-0.95,-0.75,-0.95,-0.74,0.74,0.79,0.40,-0.21,-0.21,-0.21
399.73,-0.97,-0.79,-0.97,-0.78,0.79,0.83,0.43,-0.19,-0.19,-0.19
403.72,-1.00,-0.83,-1.00,-0.83,0.83,0.86,0.45,-0.17,-0.17,-0.18
407.76,-1.02,-0.87,-1.03,-0.87,0.88,0.89,0.48,-0.15,-0.15,-0.16
411.84,-1.05,-0.93,-1.05,-0.92,0.92,0.93,0.51,-0.13,-0.13,-0.13
415.96,-1.07,-0.97,-1.07,-0.97,0.97,0.96,0.54,-0.11,-0.11,-0.11
420.12,-1.09,-1.01,-1.09,-1.01,1.01,0.99,0.57,-0.08,-0.08,-0.09
424.32,-1.11,-1.06,-1.11,-1.05,1.05,1.02,0.60,-0.06,-0.06,-0.06
428.56,-1.12,-1.09,-1.12,-1.09,1.08,1.04,0.63,-0.04,-0.04,-0.04
432.85,-1.13,-1.12,-1.13,-1.12,1.11,1.07,0.66,-0.02,-0.02,-0.02
437.18,-1.13,-1.15,-1.13,-1.15,1.14,1.09,0.68,0.01,0.01,0.01
441.55,-1.12,-1.17,-1.13,-1.16,1.16,1.12,0.71,0.04,0.03,0.04
445.96,-1.12,-1.19,-1.12,-1.18,1.18,1.14,0.74,0.05,0.06,0.06
450.42,-1.10,-1.18,-1.10,-1.19,1.19,1.16,0.76,0.09,0.09,0.07
454.93,-1.09,-1.21,-1.09,-1.19,1.20,1.17,0.79,0.11,0.11,0.11
459.48,-1.06,-1.20,-1.07,-1.21,1.21,1.19,0.81,0.15,0.14,0.13
464.07,-1.05,-1.22,-1.05,-1.22,1.22,1.20,0.84,0.17,0.17,0.16
468.71,-1.03,-1.24,-1.03,-1.22,1.23,1.21,0.86,0.19,0.20,0.20
473.40,-1.00,-1.23,-1.01,-1.24,1.23,1.22,0.88,0.23,0.22,0.22
478.13,-0.98,-1.24,-0.98,-1.24,1.23,1.23,0.90,0.25,0.25,0.25
482.91,-0.96,-1.25,-0.96,-1.24,1.24,1.23,0.92,0.27,0.28,0.28
487.74,-0.92,-1.24,-0.93,-1.24,1.24,1.24,0.94,0.31,0.31,0.31
492.62,-0.89,-1.24,-0.89,-1.23,1.23,1.24,0.95,0.34,0.34,0.34
497.55,-0.85,-1.22,-0.86,-1.23,1.23,1.24,0.97,0.38,0.37,0.36
502.52,-0.82,-1.23,-0.82,-1.22,1.22,1.24,0.99,0.40,0.40,0.40
