frequency,raw,error,smoothed,error_smoothed,equalization,parametric_eq,fixed_band_eq,equalized_raw,equalized_smoothed,target
20.00,-6.61,-6.00,-6.65,-6.05,6.05,5.80,2.01,-0.56,-0.60,-0.62
20.20,-6.59,-6.01,-6.59,-6.01,6.01,5.78,2.07,-0.58,-0.58,-0.59
20.40,-6.54,-5.99,-6.53,-5.97,5.97,5.76,2.14,-0.57,-0.55,-0.56
20.61,-6.50,-5.96,-6.47,-5.93,5.93,5.74,2.20,-0.56,-0.54,-0.54
20.81,-6.41,-5.91,-6.41,-5.89,5.89,5.72,2.27,-0.52,-0.52,-0.51
21.02,-6.35,-5.88,-6.35,-5.85,5.85,5.70,2.34,-0.50,-0.50,-0.48
21.23,-6.31,-5.85,-6.30,-5.81,5.81,5.68,2.41,-0.50,-0.49,-0.47
21.44,-6.24,-5.79,-6.24,-5.77,5.77,5.66,2.48,-0.47,-0.47,-0.46
21.66,-6.19,-5.74,-6.19,-5.73,5.73,5.64,2.55,-0.46,-0.46,-0.45
21.87,-6.13,-5.69,-6.14,-5.69,5.69,5.62,2.63,-0.45,-0.45,-0.45
22.09,-6.07,-5.64,-6.09,-5.64,5.64,5.60,2.71,-0.43,-0.45,-0.44
22.31,-6.01,-5.58,-6.04,-5.60,5.60,5.58,2.79,-0.41,-0.44,-0.44
22.54,-5.99,-5.55,-5.99,-5.55,5.55,5.55,2.87,-0.43,-0.44,-0.44
22.76,-5.93,-5.50,-5.95,-5.51,5.51,5.53,2.95,-0.43,-0.44,-0.44
22.99,-5.90,-5.46,-5.90,-5.46,5.46,5.51,3.04,-0.44,-0.44,-0.45
23.22,-5.86,-5.42,-5.86,-5.42,5.42,5.48,3.13,-0.44,-0.44,-0.45
23.45,-5.82,-5.38,-5.82,-5.38,5.38,5.46,3.22,-0.45,-0.44,-0.45
23.69,-5.80,-5.35,-5.78,-5.33,5.33,5.43,3.31,-0.46,-0.45,-0.45
23.92,-5.75,-5.31,-5.74,-5.29,5.29,5.41,3.40,-0.46,-0.45,-0.45
24.16,-5.70,-5.26,-5.70,-5.25,5.25,5.38,3.50,-0.46,-0.45,-0.45
24.40,-5.66,-5.22,-5.66,-5.20,5.20,5.36,3.60,-0.46,-0.45,-0.45
24.65,-5.62,-5.17,-5.62,-5.16,5.16,5.33,3.69,-0.46,-0.45,-0.46
24.89,-5.57,-5.12,-5.57,-5.12,5.12,5.31,3.79,-0.46,-0.46,-0.46
25.14,-5.53,-5.08,-5.53,-5.08,5.08,5.28,3.89,-0.46,-0.46,-0.46
25.39,-5.49,-5.04,-5.49,-5.03,5.03,5.25,3.99,-0.46,-0.46,-0.46
25.65,-5.44,-4.99,-5.45,-4.99,4.99,5.22,4.10,-0.45,-0.46,-0.46
25.91,-5.41,-4.94,-5.42,-4.95,4.95,5.20,4.20,-0.45,-0.46,-0.47
26.16,-5.36,-4.90,-5.38,-4.92,4.92,5.17,4.30,-0.45,-0.47,-0.47
26.43,-5.34,-4.88,-5.35,-4.88,4.88,5.14,4.40,-0.47,-0.47,-0.47
26.69,-5.30,-4.84,-5.32,-4.84,4.84,5.11,4.50,-0.46,-0.47,-0.47
26.96,-5.27,-4.81,-5.28,-4.81,4.81,5.08,4.59,-0.47,-0.48,-0.47
27.23,-5.25,-4.78,-5.25,-4.78,4.78,5.05,4.69,-0.48,-0.48,-0.48
27.50,-5.21,-4.74,-5.22,-4.74,4.74,5.02,4.78,-0.47,-0.48,-0.48
27.77,-5.21,-4.73,-5.19,-4.71,4.71,4.99,4.87,-0.51,-0.49,-0.49
28.05,-5.17,-4.69,-5.16,-4.67,4.67,4.96,4.95,-0.50,-0.49,-0.49
28.33,-5.14,-4.65,-5.13,-4.64,4.64,4.93,5.03,-0.51,-0.49,-0.50
28.62,-5.12,-4.62,-5.10,-4.60,4.60,4.90,5.11,-0.51,-0.50,-0.50
28.90,-5.08,-4.59,-5.07,-4.56,4.56,4.87,5.18,-0.52,-0.50,-0.50
29.19,-5.03,-4.53,-5.03,-4.53,4.53,4.84,5.24,-0.51,-0.51,-0.51
29.48,-5.00,-4.50,-5.00,-4.49,4.49,4.80,5.30,-0.52,-0.51,-0.51
29.78,-4.96,-4.44,-4.97,-4.45,4.45,4.77,5.35,-0.51,-0.52,-0.52
30.08,-4.93,-4.41,-4.93,-4.41,4.41,4.74,5.39,-0.51,-0.52,-0.52
30.38,-4.88,-4.35,-4.90,-4.37,4.37,4.71,5.42,-0.50,-0.53,-0.53
30.68,-4.85,-4.33,-4.87,-4.34,4.34,4.67,5.45,-0.52,-0.53,-0.53
30.99,-4.83,-4.29,-4.84,-4.30,4.30,4.64,5.47,-0.53,-0.54,-0.54
31.30,-4.80,-4.26,-4.81,-4.27,4.27,4.60,5.48,-0.54,-0.54,-0.55
31.61,-4.77,-4.23,-4.78,-4.23,4.23,4.57,5.48,-0.54,-0.55,-0.55
31.93,-4.77,-4.22,-4.76,-4.20,4.20,4.54,5.47,-0.58,-0.56,-0.56
32.24,-4.73,-4.17,-4.73,-4.17,4.17,4.50,5.45,-0.57,-0.56,-0.57
32.57,-4.72,-4.16,-4.71,-4.14,4.14,4.47,5.42,-0.59,-0.57,-0.57
32.89,-4.69,-4.12,-4.69,-4.11,4.11,4.43,5.39,-0.59,-0.58,-0.58
33.22,-4.66,-4.08,-4.67,-4.08,4.08,4.40,5.35,-0.58,-0.59,-0.59
33.55,-4.64,-4.06,-4.64,-4.05,4.05,4.36,5.30,-0.59,-0.59,-0.59
33.89,-4.60,-4.01,-4.62,-4.02,4.02,4.32,5.24,-0.58,-0.60,-0.60
34.23,-4.60,-4.00,-4.60,-3.99,3.99,4.29,5.18,-0.62,-0.61,-0.61
34.57,-4.56,-3.95,-4.57,-3.95,3.95,4.25,5.12,-0.61,-0.62,-0.62
34.92,-4.55,-3.93,-4.55,-3.92,3.92,4.21,5.05,-0.64,-0.63,-0.63
35.27,-4.52,-3.88,-4.52,-3.88,3.88,4.18,4.97,-0.63,-0.64,-0.64
35.62,-4.50,-3.86,-4.49,-3.84,3.84,4.14,4.89,-0.66,-0.65,-0.65
35.97,-4.47,-3.82,-4.46,-3.80,3.80,4.10,4.81,-0.67,-0.66,-0.66
36.33,-4.44,-3.78,-4.43,-3.76,3.76,4.06,4.73,-0.68,-0.67,-0.67
36.70,-4.41,-3.74,-4.40,-3.73,3.73,4.03,4.64,-0.69,-0.68,-0.68
37.06,-4.38,-3.70,-4.37,-3.69,3.69,3.99,4.56,-0.70,-0.69,-0.69
37.43,-4.34,-3.65,-4.34,-3.65,3.65,3.95,4.47,-0.70,-0.70,-0.70
37.81,-4.30,-3.60,-4.32,-3.61,3.61,3.91,4.38,-0.70,-0.71,-0.71
38.19,-4.27,-3.56,-4.29,-3.57,3.57,3.87,4.29,-0.71,-0.72,-0.72
38.57,-4.25,-3.53,-4.27,-3.53,3.53,3.83,4.20,-0.72,-0.73,-0.73
38.95,-4.23,-3.50,-4.25,-3.50,3.50,3.79,4.11,-0.73,-0.74,-0.74
39.34,-4.21,-3.46,-4.23,-3.47,3.47,3.76,4.03,-0.74,-0.75,-0.76
39.74,-4.21,-3.45,-4.21,-3.45,3.45,3.72,3.94,-0.77,-0.76,-0.77
40.14,-4.19,-3.41,-4.20,-3.42,3.42,3.68,3.86,-0.76,-0.77,-0.78
40.54,-4.17,-3.39,-4.19,-3.40,3.40,3.64,3.77,-0.77,-0.78,-0.79
40.94,-4.17,-3.38,-4.18,-3.38,3.38,3.60,3.69,-0.79,-0.80,-0.80
41.35,-4.17,-3.37,-4.17,-3.36,3.36,3.56,3.61,-0.81,-0.81,-0.81
41.76,-4.17,-3.36,-4.17,-3.35,3.35,3.52,3.54,-0.83,-0.82,-0.82
42.18,-4.17,-3.35,-4.17,-3.33,3.33,3.48,3.46,-0.84,-0.83,-0.83
42.60,-4.17,-3.34,-4.16,-3.31,3.31,3.44,3.39,-0.86,-0.85,-0.84
43.03,-4.17,-3.33,-4.16,-3.30,3.30,3.40,3.32,-0.88,-0.86,-0.85
43.46,-4.14,-3.28,-4.15,-3.28,3.28,3.35,3.25,-0.87,-0.87,-0.87
43.90,-4.14,-3.26,-4.15,-3.26,3.26,3.31,3.19,-0.89,-0.89,-0.89
44.33,-4.14,-3.24,-4.14,-3.24,3.24,3.27,3.12,-0.91,-0.90,-0.91
44.78,-4.12,-3.20,-4.13,-3.22,3.22,3.23,3.06,-0.91,-0.92,-0.93
45.23,-4.12,-3.18,-4.13,-3.19,3.19,3.19,3.00,-0.93,-0.94,-0.95
45.68,-4.12,-3.17,-4.12,-3.16,3.16,3.15,2.95,-0.96,-0.95,-0.96
46.13,-4.12,-3.15,-4.11,-3.13,3.13,3.11,2.89,-0.99,-0.97,-0.98
46.60,-4.09,-3.10,-4.09,-3.10,3.10,3.07,2.84,-0.98,-0.99,-0.99
47.06,-4.08,-3.08,-4.08,-3.07,3.07,3.03,2.79,-1.02,-1.01,-1.01
47.53,-4.08,-3.06,-4.07,-3.04,3.04,2.98,2.75,-1.05,-1.04,-1.03
48.01,-4.04,-3.01,-4.06,-3.01,3.01,2.94,2.70,-1.04,-1.06,-1.04
48.49,-4.04,-2.98,-4.05,-2.97,2.97,2.90,2.66,-1.07,-1.08,-1.07
48.97,-4.04,-2.95,-4.04,-2.94,2.94,2.86,2.62,-1.10,-1.10,-1.10
49.46,-4.04,-2.92,-4.03,-2.91,2.91,2.82,2.58,-1.13,-1.12,-1.13
49.96,-4.00,-2.85,-4.02,-2.88,2.88,2.77,2.54,-1.13,-1.15,-1.16
50.46,-3.99,-2.82,-4.02,-2.84,2.84,2.73,2.50,-1.15,-1.17,-1.18
50.96,-3.99,-2.80,-4.00,-2.81,2.81,2.69,2.47,-1.19,-1.20,-1.20
51.47,-3.99,-2.77,-3.99,-2.77,2.77,2.65,2.44,-1.22,-1.22,-1.23
51.99,-3.99,-2.75,-3.98,-2.74,2.74,2.61,2.41,-1.26,-1.25,-1.25
52.51,-3.99,-2.73,-3.97,-2.70,2.70,2.56,2.38,-1.30,-1.27,-1.27
53.03,-3.95,-2.67,-3.96,-2.66,2.66,2.52,2.35,-1.29,-1.30,-1.29
53.56,-3.95,-2.64,-3.94,-2.62,2.62,2.48,2.32,-1.33,-1.32,-1.32
54.10,-3.93,-2.60,-3.93,-2.58,2.58,2.44,2.29,-1.35,-1.34,-1.34
54.64,-3.91,-2.55,-3.91,-2.54,2.54,2.40,2.26,-1.37,-1.37,-1.37
55.18,-3.88,-2.50,-3.89,-2.50,2.50,2.35,2.24,-1.39,-1.39,-1.39
55.74,-3.86,-2.45,-3.87,-2.46,2.46,2.31,2.21,-1.41,-1.41,-1.42
56.29,-3.82,-2.39,-3.84,-2.41,2.41,2.27,2.18,-1.41,-1.43,-1.44
56.86,-3.82,-2.37,-3.82,-2.36,2.36,2.23,2.16,-1.46,-1.46,-1.46
57.42,-3.78,-2.30,-3.79,-2.31,2.31,2.19,2.13,-1.47,-1.48,-1.49
58.00,-3.77,-2.27,-3.77,-2.26,2.26,2.14,2.10,-1.51,-1.51,-1.51
58.58,-3.73,-2.21,-3.74,-2.21,2.21,2.10,2.07,-1.52,-1.53,-1.53
59.16,-3.71,-2.17,-3.72,-2.16,2.16,2.06,2.04,-1.55,-1.56,-1.55
59.76,-3.69,-2.13,-3.69,-2.11,2.11,2.02,2.01,-1.59,-1.58,-1.57
60.35,-3.65,-2.06,-3.66,-2.05,2.05,1.97,1.98,-1.60,-1.61,-1.60
60.96,-3.64,-2.02,-3.64,-2.00,2.00,1.93,1.95,-1.64,-1.64,-1.63
61.57,-3.60,-1.94,-3.61,-1.94,1.94,1.89,1.92,-1.66,-1.66,-1.67
62.18,-3.58,-1.89,-3.58,-1.89,1.89,1.85,1.89,-1.70,-1.69,-1.70
62.80,-3.55,-1.83,-3.55,-1.83,1.83,1.81,1.85,-1.73,-1.72,-1.73
63.43,-3.52,-1.77,-3.52,-1.77,1.77,1.76,1.81,-1.76,-1.75,-1.76
64.07,-3.49,-1.71,-3.49,-1.71,1.71,1.72,1.78,-1.79,-1.78,-1.79
64.71,-3.46,-1.66,-3.46,-1.65,1.65,1.68,1.74,-1.82,-1.81,-1.81
65.35,-3.43,-1.60,-3.43,-1.59,1.59,1.64,1.70,-1.85,-1.84,-1.84
66.01,-3.39,-1.53,-3.40,-1.53,1.53,1.60,1.65,-1.87,-1.87,-1.87
66.67,-3.35,-1.46,-3.37,-1.47,1.47,1.56,1.61,-1.89,-1.90,-1.90
67.33,-3.34,-1.42,-3.34,-1.41,1.41,1.51,1.57,-1.93,-1.93,-1.93
68.01,-3.30,-1.35,-3.31,-1.35,1.35,1.47,1.52,-1.95,-1.96,-1.96
68.69,-3.28,-1.30,-3.29,-1.30,1.30,1.43,1.47,-1.98,-1.99,-1.99
69.37,-3.26,-1.25,-3.27,-1.25,1.25,1.39,1.43,-2.02,-2.02,-2.02
70.07,-3.23,-1.19,-3.24,-1.19,1.19,1.35,1.38,-2.04,-2.05,-2.05
70.77,-3.21,-1.14,-3.22,-1.14,1.14,1.31,1.33,-2.07,-2.08,-2.08
71.48,-3.21,-1.11,-3.21,-1.09,1.09,1.27,1.28,-2.12,-2.12,-2.11
72.19,-3.18,-1.04,-3.19,-1.04,1.04,1.22,1.23,-2.14,-2.15,-2.15
72.91,-3.17,-1.00,-3.18,-1.00,1.00,1.18,1.18,-2.18,-2.18,-2.18
73.64,-3.17,-0.96,-3.17,-0.96,0.96,1.14,1.13,-2.22,-2.21,-2.22
74.38,-3.17,-0.93,-3.16,-0.91,0.91,1.10,1.07,-2.26,-2.25,-2.25
75.12,-3.16,-0.88,-3.15,-0.87,0.87,1.06,1.02,-2.29,-2.28,-2.29
75.87,-3.13,-0.82,-3.15,-0.83,0.83,1.02,0.97,-2.30,-2.31,-2.32
76.63,-3.13,-0.79,-3.14,-0.79,0.79,0.98,0.92,-2.34,-2.35,-2.35
77.40,-3.13,-0.76,-3.14,-0.76,0.76,0.94,0.86,-2.38,-2.38,-2.38
78.17,-3.13,-0.72,-3.14,-0.72,0.72,0.90,0.81,-2.41,-2.42,-2.42
78.95,-3.13,-0.69,-3.13,-0.69,0.69,0.86,0.76,-2.45,-2.45,-2.45
79.74,-3.13,-0.66,-3.13,-0.65,0.65,0.82,0.71,-2.49,-2.48,-2.48
80.54,-3.13,-0.62,-3.13,-0.62,0.62,0.78,0.65,-2.52,-2.52,-2.52
81.35,-3.13,-0.59,-3.13,-0.58,0.58,0.74,0.60,-2.55,-2.55,-2.55
82.16,-3.13,-0.55,-3.13,-0.55,0.55,0.70,0.55,-2.59,-2.59,-2.59
82.98,-3.13,-0.52,-3.13,-0.51,0.51,0.66,0.50,-2.62,-2.62,-2.62
83.81,-3.13,-0.48,-3.13,-0.48,0.48,0.62,0.45,-2.66,-2.66,-2.66
84.65,-3.13,-0.44,-3.13,-0.44,0.44,0.58,0.39,-2.69,-2.69,-2.70
85.50,-3.13,-0.41,-3.13,-0.40,0.40,0.54,0.34,-2.73,-2.73,-2.73
86.35,-3.13,-0.37,-3.13,-0.36,0.36,0.50,0.29,-2.77,-2.77,-2.77
87.22,-3.13,-0.33,-3.13,-0.33,0.33,0.46,0.24,-2.81,-2.81,-2.81
88.09,-3.13,-0.29,-3.13,-0.29,0.29,0.42,0.19,-2.85,-2.85,-2.85
88.97,-3.13,-0.25,-3.13,-0.24,0.24,0.38,0.14,-2.89,-2.89,-2.89
89.86,-3.13,-0.21,-3.13,-0.20,0.20,0.34,0.08,-2.94,-2.93,-2.93
90.76,-3.13,-0.16,-3.13,-0.16,0.16,0.30,0.03,-2.98,-2.98,-2.98
91.66,-3.13,-0.12,-3.13,-0.11,0.11,0.26,-0.02,-3.02,-3.02,-3.02
92.58,-3.13,-0.07,-3.13,-0.07,0.07,0.22,-0.07,-3.06,-3.06,-3.07
93.51,-3.13,-0.03,-3.13,-0.03,0.03,0.18,-0.12,-3.11,-3.11,-3.11
94.44,-3.13,0.01,-3.14,0.02,-0.02,0.14,-0.17,-3.15,-3.15,-3.15
95.39,-3.13,0.06,-3.14,0.06,-0.06,0.11,-0.22,-3.20,-3.20,-3.20
96.34,-3.13,0.11,-3.14,0.11,-0.11,0.07,-0.27,-3.24,-3.25,-3.25
97.30,-3.13,0.16,-3.15,0.15,-0.15,0.03,-0.32,-3.28,-3.30,-3.30
98.28,-3.13,0.21,-3.15,0.19,-0.19,-0.01,-0.37,-3.33,-3.34,-3.35
99.26,-3.17,0.21,-3.16,0.23,-0.23,-0.05,-0.42,-3.41,-3.39,-3.39
100.25,-3.17,0.26,-3.17,0.27,-0.27,-0.09,-0.47,-3.45,-3.44,-3.44
101.25,-3.17,0.31,-3.17,0.32,-0.32,-0.12,-0.52,-3.49,-3.49,-3.49
102.27,-3.17,0.36,-3.18,0.36,-0.36,-0.16,-0.57,-3.53,-3.53,-3.54
103.29,-3.17,0.41,-3.18,0.40,-0.40,-0.20,-0.62,-3.57,-3.58,-3.59
104.32,-3.19,0.43,-3.19,0.44,-0.44,-0.24,-0.67,-3.64,-3.63,-3.63
105.37,-3.21,0.46,-3.20,0.48,-0.48,-0.27,-0.72,-3.70,-3.68,-3.68
106.42,-3.21,0.51,-3.21,0.52,-0.52,-0.31,-0.76,-3.74,-3.73,-3.73
107.48,-3.21,0.56,-3.21,0.56,-0.56,-0.35,-0.81,-3.78,-3.78,-3.78
108.56,-3.21,0.61,-3.22,0.61,-0.61,-0.38,-0.86,-3.82,-3.83,-3.83
109.64,-3.21,0.66,-3.23,0.66,-0.66,-0.42,-0.90,-3.87,-3.88,-3.88
110.74,-3.21,0.71,-3.23,0.70,-0.70,-0.46,-0.95,-3.92,-3.93,-3.93
111.85,-3.22,0.75,-3.24,0.75,-0.75,-0.49,-0.99,-3.97,-3.99,-3.98
112.97,-3.26,0.77,-3.24,0.79,-0.79,-0.53,-1.04,-4.06,-4.04,-4.04
114.10,-3.26,0.82,-3.25,0.84,-0.84,-0.57,-1.08,-4.10,-4.09,-4.09
115.24,-3.26,0.88,-3.26,0.89,-0.89,-0.60,-1.12,-4.15,-4.14,-4.15
116.39,-3.26,0.93,-3.26,0.94,-0.94,-0.64,-1.16,-4.20,-4.20,-4.20
117.55,-3.26,0.99,-3.27,0.98,-0.98,-0.68,-1.19,-4.25,-4.25,-4.26
118.73,-3.26,1.04,-3.28,1.03,-1.03,-0.71,-1.23,-4.29,-4.30,-4.31
119.92,-3.26,1.09,-3.28,1.07,-1.07,-0.75,-1.26,-4.34,-4.36,-4.36
121.12,-3.30,1.10,-3.29,1.12,-1.12,-0.78,-1.30,-4.42,-4.41,-4.41
122.33,-3.30,1.15,-3.29,1.17,-1.17,-0.82,-1.33,-4.47,-4.46,-4.46
123.55,-3.30,1.20,-3.30,1.21,-1.21,-0.85,-1.36,-4.52,-4.51,-4.51
124.79,-3.30,1.25,-3.31,1.26,-1.26,-0.89,-1.39,-4.56,-4.56,-4.56
126.03,-3.30,1.30,-3.31,1.30,-1.30,-0.92,-1.41,-4.61,-4.61,-4.61
127.29,-3.30,1.35,-3.32,1.34,-1.34,-0.96,-1.44,-4.65,-4.67,-4.66
128.57,-3.34,1.37,-3.33,1.39,-1.39,-0.99,-1.46,-4.73,-4.72,-4.72
129.85,-3.34,1.42,-3.34,1.43,-1.43,-1.03,-1.48,-4.77,-4.77,-4.77
131.15,-3.34,1.47,-3.35,1.47,-1.47,-1.06,-1.51,-4.81,-4.81,-4.82
132.46,-3.34,1.52,-3.36,1.51,-1.51,-1.09,-1.52,-4.85,-4.86,-4.87
133.79,-3.34,1.56,-3.36,1.55,-1.55,-1.13,-1.54,-4.89,-4.91,-4.91
135.12,-3.38,1.57,-3.37,1.59,-1.59,-1.16,-1.56,-4.97,-4.96,-4.96
136.48,-3.39,1.60,-3.38,1.62,-1.62,-1.20,-1.58,-5.02,-5.00,-5.00
137.84,-3.39,1.65,-3.39,1.66,-1.66,-1.23,-1.59,-5.05,-5.05,-5.05
139.22,-3.39,1.70,-3.40,1.69,-1.69,-1.26,-1.61,-5.09,-5.09,-5.10
140.61,-3.39,1.74,-3.40,1.73,-1.73,-1.30,-1.62,-5.12,-5.13,-5.14
142.02,-3.40,1.76,-3.41,1.76,-1.76,-1.33,-1.64,-5.17,-5.17,-5.17
143.44,-3.41,1.79,-3.41,1.79,-1.79,-1.36,-1.65,-5.21,-5.21,-5.21
144.87,-3.43,1.81,-3.42,1.83,-1.83,-1.39,-1.66,-5.26,-5.25,-5.25
146.32,-3.43,1.85,-3.43,1.86,-1.86,-1.43,-1.68,-5.29,-5.29,-5.29
147.78,-3.43,1.88,-3.44,1.89,-1.89,-1.46,-1.69,-5.32,-5.33,-5.32
149.26,-3.43,1.92,-3.44,1.92,-1.92,-1.49,-1.71,-5.36,-5.37,-5.36
150.75,-3.43,1.96,-3.44,1.96,-1.96,-1.52,-1.72,-5.39,-5.40,-5.40
152.26,-3.43,2.00,-3.45,1.99,-1.99,-1.55,-1.74,-5.43,-5.44,-5.44
153.78,-3.45,2.02,-3.46,2.02,-2.02,-1.58,-1.75,-5.48,-5.48,-5.48
155.32,-3.47,2.04,-3.46,2.06,-2.06,-1.62,-1.77,-5.53,-5.52,-5.52
156.88,-3.47,2.08,-3.47,2.09,-2.09,-1.65,-1.79,-5.57,-5.56,-5.56
158.44,-3.47,2.12,-3.47,2.13,-2.13,-1.68,-1.81,-5.60,-5.60,-5.60
160.03,-3.47,2.16,-3.47,2.16,-2.16,-1.71,-1.83,-5.64,-5.64,-5.64
161.63,-3.47,2.20,-3.48,2.20,-2.20,-1.74,-1.85,-5.67,-5.67,-5.68
163.24,-3.47,2.24,-3.48,2.23,-2.23,-1.77,-1.87,-5.71,-5.71,-5.72
164.88,-3.47,2.27,-3.49,2.27,-2.27,-1.80,-1.90,-5.74,-5.75,-5.75
166.53,-3.49,2.29,-3.49,2.30,-2.30,-1.83,-1.92,-5.80,-5.79,-5.79
168.19,-3.49,2.33,-3.49,2.34,-2.34,-1.86,-1.95,-5.83,-5.83,-5.83
169.87,-3.49,2.37,-3.49,2.38,-2.38,-1.89,-1.98,-5.87,-5.87,-5.87
171.57,-3.49,2.41,-3.49,2.42,-2.42,-1.91,-2.01,-5.91,-5.91,-5.91
173.29,-3.49,2.44,-3.49,2.45,-2.45,-1.94,-2.04,-5.95,-5.94,-5.94
175.02,-3.49,2.48,-3.49,2.49,-2.49,-1.97,-2.08,-5.99,-5.98,-5.98
176.77,-3.49,2.52,-3.49,2.53,-2.53,-2.00,-2.11,-6.03,-6.02,-6.02
178.54,-3.47,2.58,-3.49,2.57,-2.57,-2.03,-2.15,-6.04,-6.06,-6.06
180.32,-3.47,2.62,-3.48,2.61,-2.61,-2.06,-2.19,-6.09,-6.09,-6.10
182.13,-3.47,2.65,-3.48,2.65,-2.65,-2.08,-2.23,-6.13,-6.13,-6.13
183.95,-3.47,2.69,-3.47,2.69,-2.69,-2.11,-2.27,-6.17,-6.17,-6.17
185.79,-3.47,2.72,-3.47,2.73,-2.73,-2.14,-2.31,-6.21,-6.20,-6.20
187.65,-3.47,2.76,-3.47,2.77,-2.77,-2.16,-2.36,-6.25,-6.24,-6.24
189.52,-3.47,2.79,-3.46,2.81,-2.81,-2.19,-2.41,-6.28,-6.27,-6.27
191.42,-3.45,2.84,-3.46,2.84,-2.84,-2.22,-2.46,-6.30,-6.30,-6.30
193.33,-3.43,2.89,-3.45,2.88,-2.88,-2.24,-2.50,-6.32,-6.33,-6.33
195.27,-3.43,2.92,-3.45,2.91,-2.91,-2.27,-2.56,-6.35,-6.36,-6.36
197.22,-3.43,2.95,-3.44,2.95,-2.95,-2.29,-2.61,-6.38,-6.39,-6.39
199.19,-3.43,2.98,-3.44,2.97,-2.97,-2.32,-2.66,-6.41,-6.41,-6.42
201.18,-3.43,3.00,-3.43,3.00,-3.00,-2.34,-2.71,-6.44,-6.43,-6.44
203.19,-3.43,3.02,-3.43,3.03,-3.03,-2.37,-2.77,-6.47,-6.46,-6.46
205.23,-3.43,3.04,-3.42,3.06,-3.06,-2.39,-2.82,-6.49,-6.48,-6.48
207.28,-3.41,3.07,-3.41,3.08,-3.08,-2.42,-2.88,-6.50,-6.49,-6.49
209.35,-3.39,3.11,-3.41,3.10,-3.10,-2.44,-2.93,-6.50,-6.51,-6.51
211.44,-3.39,3.13,-3.40,3.12,-3.12,-2.46,-2.99,-6.52,-6.52,-6.53
213.56,-3.39,3.14,-3.39,3.14,-3.14,-2.49,-3.04,-6.54,-6.54,-6.54
215.69,-3.39,3.14,-3.39,3.16,-3.16,-2.51,-3.10,-6.55,-6.55,-6.54
217.85,-3.39,3.15,-3.38,3.18,-3.18,-2.53,-3.15,-6.57,-6.55,-6.55
220.03,-3.36,3.19,-3.37,3.19,-3.19,-2.55,-3.20,-6.55,-6.56,-6.56
222.23,-3.34,3.22,-3.36,3.20,-3.20,-2.58,-3.25,-6.55,-6.56,-6.57
224.45,-3.34,3.22,-3.35,3.21,-3.21,-2.60,-3.30,-6.56,-6.57,-6.57
226.70,-3.34,3.22,-3.34,3.22,-3.22,-2.62,-3.35,-6.57,-6.57,-6.57
228.96,-3.34,3.22,-3.33,3.23,-3.23,-2.64,-3.39,-6.58,-6.57,-6.57
231.25,-3.33,3.22,-3.33,3.24,-3.24,-2.66,-3.43,-6.57,-6.56,-6.56
233.57,-3.30,3.25,-3.32,3.24,-3.24,-2.68,-3.47,-6.54,-6.56,-6.56
235.90,-3.30,3.25,-3.31,3.24,-3.24,-2.70,-3.50,-6.55,-6.55,-6.56
238.26,-3.30,3.24,-3.30,3.25,-3.25,-2.72,-3.53,-6.55,-6.55,-6.55
240.64,-3.30,3.23,-3.29,3.25,-3.25,-2.74,-3.55,-6.55,-6.54,-6.54
243.05,-3.30,3.22,-3.29,3.24,-3.24,-2.76,-3.58,-6.55,-6.53,-6.53
245.48,-3.26,3.25,-3.28,3.24,-3.24,-2.78,-3.59,-6.50,-6.52,-6.52
247.93,-3.26,3.24,-3.27,3.23,-3.23,-2.80,-3.61,-6.50,-6.51,-6.51
250.41,-3.26,3.23,-3.26,3.23,-3.23,-2.81,-3.61,-6.50,-6.49,-6.50
252.92,-3.26,3.21,-3.25,3.23,-3.23,-2.83,-3.62,-6.49,-6.48,-6.48
255.45,-3.26,3.19,-3.24,3.22,-3.22,-2.85,-3.62,-6.48,-6.46,-6.46
258.00,-3.21,3.23,-3.23,3.21,-3.21,-2.87,-3.61,-6.43,-6.45,-6.45
260.58,-3.21,3.21,-3.23,3.20,-3.20,-2.88,-3.60,-6.41,-6.43,-6.43
263.19,-3.21,3.19,-3.22,3.19,-3.19,-2.90,-3.59,-6.40,-6.41,-6.41
265.82,-3.21,3.17,-3.21,3.18,-3.18,-2.91,-3.57,-6.39,-6.39,-6.39
268.48,-3.21,3.15,-3.20,3.17,-3.17,-2.93,-3.55,-6.38,-6.37,-6.37
271.16,-3.19,3.15,-3.20,3.15,-3.15,-2.95,-3.52,-6.35,-6.35,-6.35
273.87,-3.17,3.15,-3.19,3.14,-3.14,-2.96,-3.49,-6.32,-6.33,-6.33
276.61,-3.17,3.13,-3.18,3.13,-3.13,-2.97,-3.46,-6.30,-6.31,-6.31
279.38,-3.17,3.11,-3.17,3.12,-3.12,-2.99,-3.43,-6.29,-6.29,-6.29
282.17,-3.17,3.09,-3.17,3.10,-3.10,-3.00,-3.39,-6.28,-6.27,-6.27
284.99,-3.17,3.07,-3.16,3.09,-3.09,-3.01,-3.36,-6.26,-6.25,-6.25
287.84,-3.17,3.05,-3.16,3.07,-3.07,-3.03,-3.32,-6.24,-6.23,-6.23
290.72,-3.15,3.05,-3.15,3.05,-3.05,-3.04,-3.28,-6.21,-6.21,-6.21
293.63,-3.14,3.04,-3.15,3.04,-3.04,-3.05,-3.24,-6.18,-6.19,-6.19
296.57,-3.13,3.03,-3.14,3.02,-3.02,-3.06,-3.20,-6.15,-6.16,-6.17
299.53,-3.13,3.01,-3.14,3.00,-3.00,-3.07,-3.16,-6.14,-6.14,-6.15
302.53,-3.13,2.99,-3.14,2.98,-2.98,-3.08,-3.11,-6.11,-6.12,-6.13
305.55,-3.13,2.96,-3.14,2.96,-2.96,-3.09,-3.07,-6.09,-6.10,-6.10
308.61,-3.13,2.94,-3.14,2.94,-2.94,-3.10,-3.03,-6.07,-6.07,-6.08
311.69,-3.13,2.91,-3.14,2.91,-2.91,-3.11,-2.99,-6.05,-6.05,-6.05
314.81,-3.13,2.88,-3.14,2.89,-2.89,-3.12,-2.96,-6.03,-6.03,-6.02
317.96,-3.13,2.86,-3.14,2.87,-2.87,-3.13,-2.92,-6.00,-6.01,-6.00
321.14,-3.13,2.84,-3.14,2.85,-2.85,-3.14,-2.88,-5.98,-5.98,-5.98
324.35,-3.13,2.82,-3.14,2.82,-2.82,-3.14,-2.85,-5.96,-5.96,-5.96
327.59,-3.13,2.80,-3.14,2.80,-2.80,-3.15,-2.81,-5.94,-5.94,-5.94
330.87,-3.13,2.78,-3.14,2.78,-2.78,-3.16,-2.78,-5.92,-5.92,-5.92
334.18,-3.13,2.76,-3.13,2.76,-2.76,-3.16,-2.75,-5.90,-5.90,-5.90
337.52,-3.13,2.74,-3.13,2.75,-2.75,-3.17,-2.72,-5.88,-5.88,-5.88
340.90,-3.13,2.72,-3.12,2.74,-2.74,-3.17,-2.70,-5.87,-5.86,-5.86
344.30,-3.11,2.72,-3.11,2.73,-2.73,-3.17,-2.67,-5.85,-5.84,-5.84
347.75,-3.08,2.73,-3.09,2.73,-2.73,-3.18,-2.65,-5.81,-5.82,-5.82
351.23,-3.08,2.71,-3.08,2.73,-2.73,-3.18,-2.63,-5.81,-5.80,-5.80
354.74,-3.05,2.72,-3.06,2.73,-2.73,-3.18,-2.61,-5.78,-5.78,-5.78
358.28,-3.04,2.72,-3.03,2.73,-2.73,-3.18,-2.59,-5.78,-5.77,-5.77
361.87,-3.01,2.73,-3.01,2.74,-2.74,-3.18,-2.58,-5.75,-5.75,-5.75
365.49,-2.98,2.74,-2.99,2.75,-2.75,-3.18,-2.57,-5.73,-5.73,-5.73
369.14,-2.95,2.76,-2.96,2.76,-2.76,-3.18,-2.56,-5.71,-5.72,-5.72
372.83,-2.92,2.77,-2.93,2.77,-2.77,-3.18,-2.55,-5.70,-5.70,-5.70
376.56,-2.89,2.79,-2.90,2.79,-2.79,-3.18,-2.54,-5.68,-5.69,-5.69
380.33,-2.86,2.80,-2.87,2.80,-2.80,-3.18,-2.54,-5.67,-5.67,-5.67
384.13,-2.83,2.82,-2.84,2.82,-2.82,-3.17,-2.53,-5.66,-5.66,-5.66
387.97,-2.80,2.84,-2.81,2.84,-2.84,-3.17,-2.53,-5.64,-5.65,-5.65
391.85,-2.77,2.86,-2.77,2.86,-2.86,-3.16,-2.53,-5.63,-5.63,-5.64
395.77,-2.74,2.87,-2.74,2.88,-2.88,-3.16,-2.54,-5.62,-5.62,-5.62
399.73,-2.71,2.89,-2.71,2.90,-2.90,-3.15,-2.54,-5.62,-5.61,-5.61
403.72,-2.68,2.91,-2.68,2.92,-2.92,-3.14,-2.55,-5.61,-5.60,-5.60
407.76,-2.65,2.93,-2.65,2.94,-2.94,-3.14,-2.55,-5.60,-5.59,-5.59
411.84,-2.61,2.96,-2.61,2.96,-2.96,-3.13,-2.56,-5.58,-5.58,-5.58
415.96,-2.57,2.99,-2.58,2.99,-2.99,-3.12,-2.57,-5.56,-5.57,-5.57
420.12,-2.56,2.99,-2.55,3.01,-3.01,-3.11,-2.58,-5.57,-5.56,-5.56
424.32,-2.52,3.02,-2.52,3.03,-3.03,-3.10,-2.59,-5.55,-5.55,-5.55
428.56,-2.48,3.05,-2.49,3.04,-3.04,-3.08,-2.60,-5.53,-5.54,-5.54
432.85,-2.47,3.05,-2.46,3.06,-3.06,-3.07,-2.62,-5.54,-5.52,-5.53
