frequency,raw,error,smoothed,error_smoothed,equalization,parametric_eq,fixed_band_eq,equalized_raw,equalized_smoothed,target
20.00,-1.19,-4.12,-1.20,-4.12,4.11,4.03,1.65,2.92,2.91,2.92
20.20,-1.15,-4.13,-1.15,-4.12,4.12,4.03,1.70,2.96,2.97,2.97
20.40,-1.10,-4.13,-1.10,-4.12,4.12,4.03,1.75,3.02,3.02,3.02
20.61,-1.06,-4.12,-1.06,-4.12,4.13,4.02,1.80,3.06,3.07,3.05
20.81,-1.01,-4.12,-1.01,-4.12,4.13,4.02,1.85,3.12,3.12,3.10
21.02,-0.97,-4.12,-0.98,-4.12,4.13,4.02,1.91,3.16,3.15,3.14
21.23,-0.95,-4.12,-0.95,-4.12,4.13,4.01,1.96,3.18,3.18,3.16
21.44,-0.94,-4.13,-0.94,-4.12,4.13,4.01,2.02,3.18,3.19,3.18
21.66,-0.92,-4.13,-0.93,-4.13,4.12,4.00,2.08,3.20,3.20,3.20
21.87,-0.91,-4.13,-0.91,-4.13,4.12,4.00,2.14,3.21,3.21,3.21
22.09,-0.89,-4.13,-0.89,-4.12,4.11,3.99,2.20,3.22,3.22,3.23
22.31,-0.87,-4.12,-0.87,-4.12,4.10,3.99,2.27,3.23,3.23,3.24
22.54,-0.85,-4.10,-0.85,-4.10,4.09,3.99,2.34,3.24,3.24,3.24
22.76,-0.83,-4.08,-0.83,-4.07,4.08,3.98,2.40,3.25,3.25,3.24
22.99,-0.81,-4.05,-0.82,-4.05,4.07,3.98,2.47,3.26,3.26,3.23
23.22,-0.81,-4.05,-0.81,-4.04,4.06,3.97,2.55,3.25,3.25,3.23
23.45,-0.80,-4.04,-0.81,-4.04,4.05,3.97,2.62,3.24,3.24,3.23
23.69,-0.80,-4.05,-0.80,-4.04,4.03,3.96,2.69,3.23,3.23,3.24
23.92,-0.79,-4.04,-0.79,-4.03,4.01,3.96,2.77,3.22,3.22,3.24
24.16,-0.77,-4.02,-0.77,-4.02,4.00,3.95,2.85,3.22,3.23,3.24
24.40,-0.73,-3.99,-0.74,-3.98,3.98,3.95,2.92,3.24,3.24,3.25
24.65,-0.70,-3.95,-0.70,-3.95,3.95,3.94,3.00,3.25,3.25,3.24
24.89,-0.66,-3.91,-0.67,-3.91,3.93,3.93,3.08,3.27,3.26,3.24
25.14,-0.64,-3.89,-0.65,-3.89,3.90,3.93,3.16,3.26,3.26,3.24
25.39,-0.63,-3.89,-0.63,-3.88,3.88,3.92,3.25,3.25,3.26,3.25
25.65,-0.61,-3.87,-0.61,-3.86,3.87,3.92,3.33,3.26,3.26,3.25
25.91,-0.60,-3.85,-0.60,-3.85,3.86,3.91,3.41,3.26,3.26,3.24
26.16,-0.59,-3.84,-0.59,-3.84,3.85,3.90,3.49,3.26,3.25,3.24
26.43,-0.59,-3.84,-0.60,-3.84,3.84,3.90,3.57,3.24,3.24,3.24
26.69,-0.59,-3.84,-0.59,-3.84,3.82,3.89,3.65,3.23,3.23,3.24
26.96,-0.59,-3.84,-0.58,-3.83,3.80,3.89,3.73,3.21,3.22,3.24
27.23,-0.55,-3.80,-0.56,-3.80,3.78,3.88,3.81,3.22,3.22,3.24
27.50,-0.51,-3.76,-0.51,-3.76,3.75,3.87,3.88,3.23,3.23,3.24
27.77,-0.47,-3.71,-0.47,-3.71,3.72,3.87,3.96,3.25,3.25,3.23
28.05,-0.43,-3.67,-0.44,-3.67,3.69,3.86,4.03,3.26,3.25,3.23
28.33,-0.42,-3.65,-0.42,-3.65,3.67,3.85,4.09,3.24,3.25,3.22
28.62,-0.41,-3.64,-0.41,-3.63,3.64,3.84,4.16,3.23,3.24,3.22
28.90,-0.39,-3.63,-0.40,-3.63,3.63,3.84,4.21,3.24,3.23,3.23
29.19,-0.39,-3.62,-0.39,-3.62,3.62,3.83,4.27,3.23,3.23,3.22
29.48,-0.39,-3.63,-0.39,-3.62,3.62,3.82,4.32,3.23,3.23,3.23
29.78,-0.39,-3.62,-0.39,-3.62,3.63,3.81,4.36,3.23,3.24,3.22
30.08,-0.39,-3.63,-0.39,-3.62,3.63,3.81,4.40,3.23,3.23,3.23
30.38,-0.39,-3.62,-0.40,-3.63,3.62,3.80,4.43,3.23,3.22,3.22
30.68,-0.40,-3.63,-0.40,-3.63,3.61,3.79,4.46,3.20,3.20,3.22
30.99,-0.40,-3.63,-0.39,-3.61,3.58,3.78,4.48,3.18,3.19,3.22
31.30,-0.36,-3.58,-0.36,-3.58,3.56,3.77,4.49,3.20,3.20,3.21
31.61,-0.31,-3.53,-0.32,-3.53,3.53,3.76,4.50,3.22,3.21,3.21
31.93,-0.26,-3.48,-0.27,-3.48,3.50,3.75,4.50,3.23,3.23,3.21
32.24,-0.24,-3.45,-0.24,-3.45,3.47,3.74,4.50,3.22,3.23,3.20
32.57,-0.22,-3.43,-0.22,-3.42,3.44,3.74,4.49,3.21,3.22,3.20
32.89,-0.20,-3.41,-0.21,-3.41,3.41,3.73,4.47,3.21,3.21,3.20
33.22,-0.19,-3.39,-0.20,-3.39,3.39,3.72,4.45,3.20,3.20,3.19
33.55,-0.19,-3.39,-0.19,-3.38,3.38,3.71,4.43,3.19,3.19,3.19
33.89,-0.19,-3.38,-0.19,-3.38,3.37,3.70,4.39,3.18,3.18,3.18
34.23,-0.19,-3.38,-0.19,-3.37,3.37,3.69,4.36,3.18,3.18,3.18
34.57,-0.19,-3.37,-0.19,-3.37,3.37,3.67,4.32,3.17,3.17,3.17
34.92,-0.19,-3.37,-0.19,-3.36,3.36,3.66,4.28,3.17,3.17,3.17
35.27,-0.19,-3.36,-0.19,-3.36,3.36,3.65,4.23,3.17,3.17,3.16
35.62,-0.19,-3.36,-0.19,-3.36,3.36,3.64,4.19,3.16,3.16,3.16
35.97,-0.19,-3.36,-0.19,-3.36,3.35,3.63,4.14,3.16,3.16,3.16
36.33,-0.19,-3.36,-0.19,-3.35,3.35,3.62,4.08,3.16,3.16,3.16
36.70,-0.19,-3.35,-0.19,-3.35,3.35,3.61,4.03,3.16,3.16,3.15
37.06,-0.19,-3.35,-0.19,-3.35,3.35,3.59,3.98,3.16,3.16,3.15
37.43,-0.19,-3.36,-0.19,-3.35,3.35,3.58,3.93,3.16,3.16,3.16
37.81,-0.19,-3.36,-0.19,-3.35,3.35,3.57,3.87,3.16,3.16,3.16
38.19,-0.19,-3.35,-0.19,-3.36,3.36,3.56,3.82,3.16,3.16,3.15
38.57,-0.19,-3.36,-0.19,-3.36,3.36,3.54,3.77,3.16,3.16,3.16
38.95,-0.19,-3.37,-0.19,-3.36,3.36,3.53,3.72,3.16,3.16,3.17
39.34,-0.19,-3.36,-0.19,-3.36,3.36,3.52,3.67,3.17,3.17,3.16
39.74,-0.19,-3.36,-0.19,-3.36,3.36,3.50,3.62,3.16,3.16,3.16
40.14,-0.19,-3.36,-0.19,-3.36,3.36,3.49,3.58,3.16,3.16,3.16
40.54,-0.19,-3.36,-0.19,-3.35,3.35,3.47,3.53,3.16,3.16,3.16
40.94,-0.19,-3.35,-0.19,-3.35,3.35,3.46,3.49,3.16,3.16,3.15
41.35,-0.19,-3.35,-0.19,-3.34,3.35,3.44,3.45,3.15,3.15,3.15
41.76,-0.19,-3.34,-0.19,-3.34,3.34,3.43,3.41,3.15,3.15,3.14
42.18,-0.19,-3.34,-0.19,-3.33,3.33,3.41,3.37,3.14,3.14,3.14
42.60,-0.19,-3.33,-0.19,-3.33,3.32,3.40,3.34,3.13,3.13,3.13
43.03,-0.19,-3.32,-0.19,-3.32,3.31,3.38,3.31,3.12,3.12,3.12
43.46,-0.19,-3.31,-0.19,-3.30,3.30,3.36,3.28,3.11,3.11,3.11
43.90,-0.19,-3.29,-0.19,-3.29,3.29,3.35,3.26,3.09,3.09,3.09
44.33,-0.19,-3.27,-0.19,-3.27,3.27,3.33,3.23,3.08,3.08,3.07
44.78,-0.19,-3.25,-0.19,-3.25,3.26,3.31,3.21,3.06,3.06,3.05
45.23,-0.19,-3.24,-0.19,-3.24,3.24,3.29,3.19,3.05,3.05,3.04
45.68,-0.19,-3.23,-0.19,-3.22,3.22,3.28,3.18,3.03,3.03,3.03
46.13,-0.19,-3.21,-0.19,-3.21,3.21,3.26,3.17,3.02,3.02,3.01
46.60,-0.19,-3.21,-0.19,-3.20,3.19,3.24,3.15,3.00,3.00,3.01
47.06,-0.19,-3.19,-0.19,-3.19,3.18,3.22,3.15,2.99,2.99,2.99
47.53,-0.19,-3.18,-0.19,-3.18,3.17,3.20,3.14,2.98,2.98,2.98
48.01,-0.19,-3.18,-0.19,-3.16,3.17,3.18,3.14,2.98,2.99,2.98
48.49,-0.19,-3.16,-0.19,-3.15,3.18,3.16,3.13,2.99,2.99,2.96
48.97,-0.19,-3.14,-0.22,-3.16,3.19,3.13,3.13,3.00,2.97,2.94
49.46,-0.26,-3.19,-0.26,-3.19,3.20,3.11,3.14,2.94,2.94,2.92
49.96,-0.33,-3.24,-0.32,-3.23,3.21,3.09,3.14,2.88,2.89,2.90
50.46,-0.36,-3.26,-0.37,-3.26,3.22,3.07,3.15,2.86,2.86,2.89
50.96,-0.39,-3.28,-0.39,-3.27,3.23,3.04,3.15,2.84,2.84,2.88
51.47,-0.39,-3.26,-0.39,-3.26,3.24,3.02,3.16,2.85,2.85,2.86
51.99,-0.39,-3.25,-0.39,-3.25,3.26,3.00,3.17,2.86,2.87,2.85
52.51,-0.39,-3.24,-0.39,-3.24,3.27,2.97,3.18,2.88,2.88,2.84
53.03,-0.39,-3.24,-0.41,-3.25,3.28,2.95,3.18,2.89,2.87,2.84
53.56,-0.45,-3.28,-0.45,-3.27,3.29,2.92,3.19,2.84,2.84,2.82
54.10,-0.50,-3.32,-0.50,-3.32,3.30,2.90,3.20,2.80,2.80,2.81
54.64,-0.55,-3.35,-0.55,-3.35,3.32,2.87,3.21,2.77,2.77,2.79
55.18,-0.59,-3.39,-0.58,-3.37,3.34,2.84,3.22,2.75,2.76,2.79
55.74,-0.59,-3.37,-0.60,-3.38,3.37,2.81,3.22,2.77,2.77,2.77
56.29,-0.61,-3.38,-0.62,-3.39,3.40,2.78,3.23,2.78,2.77,2.76
56.86,-0.66,-3.42,-0.65,-3.40,3.43,2.76,3.23,2.76,2.77,2.75
57.42,-0.70,-3.43,-0.70,-3.43,3.46,2.73,3.23,2.76,2.76,2.72
58.00,-0.74,-3.46,-0.77,-3.48,3.50,2.70,3.23,2.76,2.74,2.71
58.58,-0.84,-3.55,-0.84,-3.54,3.55,2.66,3.22,2.71,2.72,2.70
59.16,-0.93,-3.62,-0.91,-3.60,3.61,2.63,3.21,2.67,2.70,2.68
59.76,-0.97,-3.64,-0.98,-3.64,3.66,2.60,3.20,2.68,2.67,2.66
60.35,-1.04,-3.67,-1.06,-3.68,3.68,2.57,3.19,2.64,2.63,2.62
60.96,-1.13,-3.72,-1.14,-3.73,3.69,2.53,3.17,2.56,2.55,2.58
61.57,-1.21,-3.76,-1.20,-3.74,3.67,2.50,3.14,2.46,2.47,2.54
62.18,-1.23,-3.74,-1.20,-3.70,3.63,2.47,3.12,2.40,2.44,2.50
62.80,-1.12,-3.58,-1.15,-3.60,3.58,2.43,3.08,2.46,2.44,2.45
63.43,-1.05,-3.47,-1.05,-3.47,3.52,2.39,3.05,2.47,2.47,2.41
64.07,-0.98,-3.35,-0.96,-3.33,3.44,2.36,3.01,2.45,2.47,2.36
64.71,-0.89,-3.22,-0.94,-3.27,3.33,2.32,2.96,2.43,2.39,2.32
65.35,-0.90,-3.19,-0.94,-3.22,3.20,2.28,2.92,2.30,2.26,2.28
66.01,-0.99,-3.23,-0.92,-3.16,3.06,2.24,2.86,2.07,2.14,2.23
66.67,-0.85,-3.04,-0.83,-3.01,2.92,2.20,2.81,2.06,2.09,2.18
67.33,-0.66,-2.79,-0.66,-2.80,2.76,2.16,2.75,2.10,2.10,2.13
68.01,-0.41,-2.51,-0.47,-2.56,2.60,2.12,2.69,2.19,2.13,2.09
68.69,-0.33,-2.38,-0.34,-2.38,2.43,2.08,2.62,2.10,2.09,2.04
69.37,-0.24,-2.24,-0.22,-2.22,2.25,2.03,2.55,2.01,2.03,1.99
70.07,-0.15,-2.10,-0.12,-2.07,2.08,1.99,2.48,1.93,1.96,1.94
70.77,0.02,-1.88,-0.02,-1.91,1.93,1.95,2.41,1.94,1.91,1.89
71.48,0.08,-1.77,0.07,-1.77,1.79,1.90,2.33,1.87,1.86,1.84
72.19,0.11,-1.67,0.12,-1.65,1.66,1.85,2.25,1.77,1.79,1.77
72.91,0.16,-1.56,0.15,-1.57,1.54,1.81,2.17,1.70,1.69,1.71
73.64,0.19,-1.48,0.18,-1.48,1.42,1.76,2.09,1.61,1.61,1.66
74.38,0.23,-1.38,0.25,-1.35,1.32,1.71,2.01,1.55,1.57,1.60
75.12,0.31,-1.24,0.32,-1.22,1.23,1.66,1.93,1.54,1.55,1.54
75.87,0.42,-1.07,0.39,-1.10,1.15,1.61,1.84,1.57,1.54,1.48
76.63,0.43,-1.01,0.41,-1.02,1.08,1.56,1.76,1.51,1.50,1.43
77.40,0.39,-1.00,0.39,-0.99,1.02,1.51,1.68,1.41,1.41,1.38
78.17,0.33,-1.00,0.33,-1.00,0.97,1.46,1.59,1.30,1.30,1.32
78.95,0.28,-1.01,0.30,-0.98,0.94,1.40,1.51,1.21,1.24,1.28
79.74,0.30,-0.94,0.30,-0.93,0.91,1.35,1.42,1.21,1.22,1.23
80.54,0.33,-0.86,0.30,-0.88,0.90,1.29,1.34,1.22,1.20,1.18
81.35,0.31,-0.83,0.29,-0.84,0.88,1.24,1.25,1.18,1.17,1.13
82.16,0.24,-0.85,0.25,-0.84,0.85,1.18,1.17,1.08,1.10,1.08
82.98,0.21,-0.84,0.21,-0.83,0.81,1.12,1.08,1.01,1.02,1.04
83.81,0.19,-0.81,0.20,-0.79,0.76,1.07,1.00,0.95,0.96,0.99
84.65,0.23,-0.72,0.23,-0.72,0.71,1.01,0.92,0.93,0.94,0.94
85.50,0.28,-0.63,0.26,-0.64,0.64,0.95,0.83,0.92,0.91,0.90
86.35,0.31,-0.55,0.29,-0.57,0.56,0.89,0.75,0.87,0.85,0.85
87.22,0.31,-0.50,0.32,-0.48,0.47,0.83,0.67,0.78,0.79,0.80
88.09,0.33,-0.43,0.37,-0.38,0.37,0.77,0.59,0.69,0.74,0.75
88.97,0.47,-0.23,0.43,-0.27,0.26,0.70,0.51,0.73,0.69,0.69
89.86,0.51,-0.14,0.49,-0.15,0.16,0.64,0.42,0.66,0.65,0.64
90.76,0.52,-0.08,0.55,-0.04,0.06,0.58,0.34,0.58,0.62,0.59
91.66,0.60,0.05,0.59,0.05,-0.03,0.52,0.26,0.57,0.56,0.54
92.58,0.64,0.15,0.62,0.13,-0.11,0.45,0.18,0.53,0.51,0.48
93.51,0.63,0.19,0.63,0.20,-0.18,0.39,0.10,0.45,0.45,0.43
94.44,0.62,0.22,0.63,0.24,-0.24,0.32,0.03,0.38,0.39,0.39
95.39,0.62,0.27,0.62,0.27,-0.29,0.26,-0.05,0.33,0.33,0.34
96.34,0.62,0.32,0.61,0.32,-0.33,0.19,-0.13,0.29,0.29,0.29
97.30,0.61,0.36,0.61,0.36,-0.36,0.13,-0.21,0.24,0.24,0.24
98.28,0.60,0.40,0.60,0.40,-0.40,0.06,-0.28,0.20,0.20,0.19
99.26,0.59,0.43,0.58,0.43,-0.43,-0.00,-0.36,0.15,0.15,0.15
100.25,0.57,0.46,0.57,0.46,-0.47,-0.07,-0.44,0.10,0.10,0.10
101.25,0.55,0.49,0.55,0.50,-0.50,-0.14,-0.51,0.05,0.05,0.05
102.27,0.54,0.53,0.54,0.53,-0.53,-0.20,-0.59,0.00,0.00,0.00
103.29,0.53,0.57,0.52,0.57,-0.56,-0.27,-0.66,-0.04,-0.04,-0.05
104.32,0.51,0.59,0.51,0.60,-0.59,-0.33,-0.73,-0.08,-0.08,-0.09
105.37,0.49,0.62,0.49,0.62,-0.62,-0.40,-0.80,-0.13,-0.13,-0.14
106.42,0.46,0.64,0.46,0.65,-0.64,-0.47,-0.87,-0.18,-0.18,-0.19
107.48,0.44,0.68,0.43,0.68,-0.67,-0.53,-0.94,-0.23,-0.23,-0.25
108.56,0.41,0.70,0.41,0.71,-0.70,-0.60,-1.01,-0.29,-0.29,-0.30
109.64,0.39,0.73,0.39,0.73,-0.74,-0.66,-1.08,-0.36,-0.36,-0.35
110.74,0.37,0.77,0.35,0.75,-0.79,-0.73,-1.14,-0.42,-0.44,-0.41
111.85,0.35,0.79,0.36,0.81,-0.85,-0.79,-1.20,-0.50,-0.49,-0.45
112.97,0.35,0.85,0.39,0.89,-0.90,-0.86,-1.27,-0.56,-0.52,-0.51
114.10,0.46,1.01,0.42,0.98,-0.96,-0.92,-1.32,-0.51,-0.54,-0.56
115.24,0.47,1.07,0.45,1.06,-1.02,-0.98,-1.38,-0.55,-0.57,-0.61
116.39,0.45,1.10,0.46,1.11,-1.08,-1.05,-1.44,-0.63,-0.62,-0.66
117.55,0.44,1.13,0.45,1.14,-1.14,-1.11,-1.49,-0.70,-0.69,-0.70
118.73,0.45,1.18,0.44,1.18,-1.19,-1.17,-1.54,-0.74,-0.74,-0.74
119.92,0.46,1.22,0.45,1.22,-1.23,-1.23,-1.58,-0.78,-0.78,-0.77
121.12,0.46,1.26,0.46,1.26,-1.28,-1.29,-1.63,-0.82,-0.82,-0.81
122.33,0.47,1.30,0.47,1.30,-1.31,-1.35,-1.67,-0.85,-0.85,-0.84
123.55,0.48,1.34,0.47,1.34,-1.35,-1.41,-1.71,-0.87,-0.87,-0.87
124.79,0.49,1.38,0.48,1.38,-1.38,-1.46,-1.74,-0.89,-0.89,-0.90
126.03,0.49,1.41,0.51,1.43,-1.40,-1.52,-1.77,-0.92,-0.90,-0.93
127.29,0.52,1.46,0.51,1.46,-1.43,-1.57,-1.80,-0.91,-0.92,-0.95
128.57,0.53,1.51,0.49,1.47,-1.46,-1.63,-1.83,-0.93,-0.96,-0.99
129.85,0.44,1.45,0.46,1.47,-1.49,-1.68,-1.85,-1.05,-1.03,-1.02
131.15,0.42,1.46,0.42,1.47,-1.52,-1.73,-1.88,-1.10,-1.10,-1.05
132.46,0.42,1.49,0.43,1.51,-1.56,-1.78,-1.90,-1.14,-1.13,-1.08
133.79,0.46,1.56,0.48,1.58,-1.59,-1.83,-1.91,-1.14,-1.11,-1.11
135.12,0.57,1.70,0.52,1.65,-1.63,-1.88,-1.93,-1.06,-1.11,-1.14
136.48,0.55,1.70,0.55,1.71,-1.67,-1.93,-1.94,-1.13,-1.12,-1.16
137.84,0.54,1.73,0.55,1.75,-1.71,-1.98,-1.95,-1.18,-1.16,-1.20
139.22,0.54,1.76,0.54,1.76,-1.76,-2.02,-1.96,-1.22,-1.22,-1.23
140.61,0.54,1.79,0.54,1.79,-1.80,-2.06,-1.97,-1.26,-1.26,-1.26
142.02,0.54,1.81,0.54,1.82,-1.83,-2.11,-1.98,-1.30,-1.30,-1.28
143.44,0.54,1.84,0.54,1.85,-1.86,-2.15,-1.99,-1.32,-1.32,-1.31
144.87,0.54,1.88,0.54,1.88,-1.88,-2.19,-1.99,-1.35,-1.35,-1.35
146.32,0.54,1.92,0.54,1.92,-1.91,-2.22,-2.00,-1.38,-1.38,-1.39
147.78,0.54,1.95,0.55,1.97,-1.95,-2.26,-2.01,-1.41,-1.40,-1.42
149.26,0.54,2.00,0.54,2.01,-1.99,-2.30,-2.01,-1.45,-1.45,-1.47
150.75,0.54,2.06,0.49,2.02,-2.04,-2.33,-2.02,-1.50,-1.54,-1.53
152.26,0.44,2.03,0.45,2.04,-2.08,-2.36,-2.03,-1.65,-1.64,-1.60
153.78,0.38,2.04,0.44,2.10,-2.13,-2.40,-2.03,-1.75,-1.69,-1.67
155.32,0.45,2.18,0.44,2.17,-2.17,-2.43,-2.04,-1.72,-1.73,-1.74
156.88,0.50,2.31,0.43,2.25,-2.20,-2.46,-2.05,-1.70,-1.77,-1.82
158.44,0.38,2.27,0.39,2.29,-2.23,-2.48,-2.06,-1.85,-1.84,-1.90
160.03,0.30,2.27,0.32,2.29,-2.26,-2.51,-2.07,-1.97,-1.95,-1.98
161.63,0.23,2.27,0.25,2.29,-2.31,-2.54,-2.09,-2.08,-2.06,-2.05
163.24,0.25,2.35,0.21,2.31,-2.36,-2.56,-2.10,-2.11,-2.15,-2.11
164.88,0.19,2.34,0.18,2.34,-2.41,-2.58,-2.11,-2.23,-2.23,-2.16
166.53,0.16,2.36,0.20,2.41,-2.47,-2.61,-2.13,-2.31,-2.26,-2.21
168.19,0.24,2.48,0.26,2.51,-2.52,-2.63,-2.15,-2.29,-2.26,-2.25
169.87,0.40,2.68,0.35,2.63,-2.58,-2.65,-2.17,-2.19,-2.24,-2.29
171.57,0.43,2.73,0.41,2.72,-2.64,-2.67,-2.19,-2.21,-2.23,-2.31
173.29,0.41,2.72,0.42,2.74,-2.68,-2.68,-2.22,-2.28,-2.26,-2.32
175.02,0.40,2.72,0.40,2.73,-2.72,-2.70,-2.24,-2.32,-2.32,-2.33
176.77,0.39,2.72,0.39,2.73,-2.74,-2.72,-2.27,-2.35,-2.35,-2.34
178.54,0.39,2.73,0.39,2.73,-2.75,-2.73,-2.30,-2.36,-2.36,-2.35
180.32,0.40,2.73,0.39,2.73,-2.75,-2.75,-2.33,-2.35,-2.36,-2.34
182.13,0.40,2.72,0.40,2.73,-2.75,-2.76,-2.36,-2.35,-2.35,-2.33
183.95,0.41,2.74,0.41,2.74,-2.76,-2.77,-2.40,-2.35,-2.35,-2.34
185.79,0.43,2.76,0.42,2.76,-2.78,-2.78,-2.43,-2.35,-2.36,-2.34
187.65,0.44,2.79,0.44,2.79,-2.80,-2.80,-2.47,-2.37,-2.36,-2.36
189.52,0.46,2.82,0.45,2.82,-2.82,-2.81,-2.51,-2.37,-2.37,-2.37
191.42,0.47,2.85,0.47,2.86,-2.84,-2.82,-2.55,-2.37,-2.37,-2.39
193.33,0.48,2.88,0.49,2.89,-2.86,-2.83,-2.59,-2.38,-2.37,-2.41
195.27,0.50,2.92,0.48,2.91,-2.87,-2.84,-2.64,-2.37,-2.39,-2.43
197.22,0.48,2.92,0.45,2.89,-2.89,-2.84,-2.68,-2.41,-2.44,-2.45
199.19,0.39,2.85,0.41,2.87,-2.90,-2.85,-2.73,-2.51,-2.49,-2.47
201.18,0.35,2.83,0.38,2.87,-2.91,-2.86,-2.78,-2.56,-2.53,-2.49
203.19,0.40,2.90,0.39,2.89,-2.93,-2.87,-2.83,-2.53,-2.54,-2.51
205.23,0.44,2.96,0.42,2.94,-2.95,-2.88,-2.87,-2.51,-2.53,-2.53
207.28,0.44,2.97,0.44,2.98,-2.96,-2.88,-2.92,-2.53,-2.53,-2.54
209.35,0.43,2.98,0.44,3.00,-2.98,-2.89,-2.97,-2.55,-2.54,-2.56
211.44,0.43,3.01,0.43,3.01,-2.99,-2.90,-3.02,-2.56,-2.56,-2.59
213.56,0.43,3.02,0.44,3.03,-2.99,-2.91,-3.07,-2.57,-2.56,-2.60
215.69,0.42,3.02,0.42,3.02,-2.99,-2.91,-3.12,-2.58,-2.58,-2.61
217.85,0.42,3.03,0.36,2.98,-2.99,-2.92,-3.17,-2.57,-2.62,-2.62
220.03,0.28,2.90,0.31,2.94,-2.98,-2.93,-3.21,-2.70,-2.66,-2.63
222.23,0.24,2.89,0.28,2.92,-2.96,-2.94,-3.26,-2.72,-2.68,-2.66
224.45,0.30,2.94,0.27,2.92,-2.94,-2.95,-3.30,-2.64,-2.67,-2.65
226.70,0.31,2.95,0.31,2.95,-2.92,-2.95,-3.34,-2.61,-2.61,-2.65
228.96,0.32,2.95,0.32,2.95,-2.91,-2.96,-3.38,-2.59,-2.59,-2.64
231.25,0.32,2.94,0.29,2.92,-2.91,-2.97,-3.41,-2.59,-2.62,-2.63
233.57,0.27,2.88,0.28,2.90,-2.92,-2.98,-3.44,-2.65,-2.64,-2.62
235.90,0.25,2.85,0.28,2.89,-2.94,-2.99,-3.47,-2.69,-2.65,-2.61
238.26,0.36,2.95,0.33,2.92,-2.95,-3.01,-3.49,-2.60,-2.62,-2.60
240.64,0.40,2.96,0.43,2.99,-2.98,-3.02,-3.51,-2.58,-2.56,-2.57
243.05,0.54,3.07,0.50,3.04,-3.02,-3.03,-3.53,-2.48,-2.52,-2.54
245.48,0.59,3.10,0.56,3.08,-3.07,-3.05,-3.54,-2.48,-2.50,-2.52
247.93,0.58,3.06,0.63,3.12,-3.12,-3.06,-3.55,-2.55,-2.49,-2.49
250.41,0.71,3.17,0.69,3.15,-3.18,-3.08,-3.55,-2.47,-2.49,-2.47
252.92,0.79,3.22,0.78,3.22,-3.23,-3.10,-3.54,-2.44,-2.45,-2.44
255.45,0.87,3.28,0.88,3.30,-3.28,-3.12,-3.54,-2.41,-2.39,-2.42
258.00,0.96,3.35,0.94,3.34,-3.32,-3.14,-3.53,-2.36,-2.37,-2.40
260.58,1.01,3.38,1.00,3.37,-3.35,-3.17,-3.51,-2.35,-2.36,-2.38
263.19,1.01,3.35,1.03,3.38,-3.39,-3.19,-3.49,-2.38,-2.35,-2.35
265.82,1.08,3.40,1.07,3.39,-3.41,-3.22,-3.46,-2.33,-2.34,-2.33
268.48,1.10,3.40,1.11,3.42,-3.41,-3.24,-3.44,-2.32,-2.30,-2.31
271.16,1.17,3.44,1.16,3.44,-3.41,-3.27,-3.41,-2.25,-2.25,-2.28
273.87,1.20,3.45,1.18,3.43,-3.41,-3.30,-3.37,-2.21,-2.23,-2.26
276.61,1.19,3.41,1.19,3.42,-3.41,-3.33,-3.33,-2.22,-2.22,-2.23
279.38,1.19,3.38,1.19,3.39,-3.42,-3.36,-3.29,-2.23,-2.23,-2.20
282.17,1.20,3.37,1.21,3.38,-3.43,-3.39,-3.25,-2.23,-2.22,-2.18
284.99,1.26,3.39,1.26,3.40,-3.43,-3.42,-3.21,-2.18,-2.18,-2.14
287.84,1.31,3.42,1.32,3.44,-3.44,-3.44,-3.16,-2.13,-2.12,-2.12
290.72,1.41,3.49,1.39,3.47,-3.44,-3.46,-3.12,-2.04,-2.06,-2.09
293.63,1.44,3.49,1.43,3.49,-3.45,-3.48,-3.07,-2.01,-2.02,-2.06
296.57,1.45,3.47,1.45,3.48,-3.45,-3.49,-3.02,-2.01,-2.00,-2.03
299.53,1.46,3.45,1.46,3.46,-3.45,-3.49,-2.97,-2.00,-1.99,-2.00
302.53,1.47,3.44,1.47,3.44,-3.44,-3.49,-2.92,-1.98,-1.98,-1.98
305.55,1.48,3.41,1.48,3.42,-3.43,-3.48,-2.87,-1.95,-1.95,-1.94
308.61,1.49,3.40,1.49,3.40,-3.42,-3.46,-2.82,-1.93,-1.93,-1.92
311.69,1.50,3.38,1.49,3.38,-3.40,-3.42,-2.78,-1.90,-1.91,-1.89
314.81,1.50,3.36,1.50,3.36,-3.38,-3.38,-2.73,-1.88,-1.89,-1.87
317.96,1.50,3.34,1.51,3.35,-3.36,-3.33,-2.68,-1.86,-1.85,-1.85
321.14,1.51,3.34,1.52,3.35,-3.33,-3.27,-2.64,-1.82,-1.81,-1.84
324.35,1.54,3.35,1.52,3.34,-3.30,-3.20,-2.60,-1.76,-1.78,-1.82
327.59,1.49,3.29,1.48,3.28,-3.26,-3.12,-2.55,-1.78,-1.79,-1.81
330.87,1.42,3.21,1.41,3.20,-3.23,-3.03,-2.51,-1.81,-1.82,-1.80
334.18,1.30,3.07,1.34,3.12,-3.18,-2.94,-2.47,-1.88,-1.84,-1.78
337.52,1.29,3.05,1.30,3.06,-3.11,-2.84,-2.44,-1.82,-1.81,-1.77
340.90,1.29,3.04,1.26,3.01,-3.02,-2.74,-2.40,-1.73,-1.76,-1.76
344.30,1.20,2.94,1.20,2.95,-2.90,-2.62,-2.37,-1.70,-1.69,-1.75
347.75,1.09,2.83,1.09,2.83,-2.75,-2.50,-2.33,-1.66,-1.66,-1.75
351.23,0.93,2.66,0.91,2.65,-2.58,-2.38,-2.30,-1.65,-1.67,-1.74
354.74,0.69,2.43,0.68,2.42,-2.38,-2.25,-2.27,-1.69,-1.70,-1.75
358.28,0.42,2.15,0.42,2.15,-2.16,-2.11,-2.25,-1.74,-1.74,-1.74
361.87,0.12,1.85,0.16,1.89,-1.92,-1.96,-2.22,-1.80,-1.76,-1.74
365.49,-0.07,1.65,-0.10,1.63,-1.68,-1.81,-2.20,-1.75,-1.77,-1.73
369.14,-0.30,1.43,-0.33,1.41,-1.44,-1.65,-2.17,-1.74,-1.77,-1.74
372.83,-0.57,1.16,-0.53,1.20,-1.22,-1.48,-2.15,-1.80,-1.75,-1.74
376.56,-0.72,1.02,-0.73,1.01,-1.03,-1.31,-2.13,-1.75,-1.76,-1.75
380.33,-0.88,0.85,-0.90,0.84,-0.85,-1.14,-2.12,-1.73,-1.75,-1.74
384.13,-1.04,0.69,-1.04,0.70,-0.70,-0.96,-2.10,-1.74,-1.73,-1.74
387.97,-1.18,0.56,-1.15,0.60,-0.56,-0.79,-2.09,-1.75,-1.71,-1.75
391.85,-1.23,0.52,-1.25,0.49,-0.46,-0.63,-2.08,-1.69,-1.71,-1.76
395.77,-1.31,0.43,-1.37,0.38,-0.38,-0.49,-2.06,-1.70,-1.75,-1.75
399.73,-1.49,0.26,-1.46,0.30,-0.33,-0.38,-2.06,-1.83,-1.79,-1.76
403.72,-1.55,0.20,-1.51,0.25,-0.31,-0.29,-2.05,-1.87,-1.83,-1.76
407.76,-1.48,0.29,-1.50,0.27,-0.32,-0.24,-2.04,-1.80,-1.82,-1.78
411.84,-1.42,0.35,-1.43,0.35,-0.34,-0.23,-2.03,-1.77,-1.77,-1.78
415.96,-1.34,0.43,-1.35,0.43,-0.39,-0.26,-2.03,-1.74,-1.74,-1.78
420.12,-1.28,0.49,-1.28,0.49,-0.46,-0.32,-2.03,-1.75,-1.75,-1.78
424.32,-1.22,0.55,-1.21,0.56,-0.55,-0.40,-2.02,-1.77,-1.76,-1.78
428.56,-1.12,0.64,-1.13,0.64,-0.65,-0.51,-2.02,-1.77,-1.78,-1.77
432.85,-1.03,0.72,-1.02,0.73,-0.74,-0.63,-2.02,-1.78,-1.77,-1.76
437.18,-0.90,0.84,-0.90,0.84,-0.84,-0.75,-2.02,-1.74,-1.73,-1.75
441.55,-0.76,0.94,-0.78,0.93,-0.93,-0.88,-2.01,-1.69,-1.71,-1.71
445.96,-0.64,1.03,-0.65,1.02,-1.02,-1.00,-2.01,-1.66,-1.67,-1.68
450.42,-0.57,1.07,-0.52,1.12,-1.11,-1.12,-2.01,-1.68,-1.63,-1.65
454.93,-0.36,1.23,-0.40,1.20,-1.19,-1.23,-2.01,-1.56,-1.59,-1.60
459.48,-0.25,1.30,-0.28,1.27,-1.27,-1.33,-2.01,-1.52,-1.55,-1.56
464.07,-0.19,1.31,-0.16,1.34,-1.34,-1.42,-2.01,-1.53,-1.50,-1.51
468.71,-0.07,1.37,-0.07,1.39,-1.39,-1.51,-2.01,-1.47,-1.46,-1.45
473.40,0.05,1.45,0.05,1.45,-1.44,-1.58,-2.00,-1.39,-1.39,-1.41
478.13,0.17,1.51,0.15,1.50,-1.48,-1.65,-2.00,-1.31,-1.33,-1.35
482.91,0.23,1.53,0.22,1.53,-1.51,-1.71,-2.00,-1.28,-1.29,-1.31
487.74,0.27,1.53,0.29,1.55,-1.54,-1.77,-1.99,-1.28,-1.26,-1.27
492.62,0.35,1.56,0.35,1.57,-1.58,-1.82,-1.99,-1.23,-1.23,-1.22
