frequency,raw,error,smoothed,error_smoothed,equalization,parametric_eq,fixed_band_eq,equalized_raw,equalized_smoothed,target
20.00,-29.64,-39.24,-29.68,-39.29,39.29,0.00,18.09,9.65,9.61,9.60
20.20,-29.52,-39.11,-29.54,-39.13,39.13,0.00,18.32,9.62,9.60,9.59
20.40,-29.40,-38.98,-29.39,-38.98,38.98,0.00,18.55,9.59,9.59,9.58
20.61,-29.28,-38.86,-29.25,-38.83,38.83,0.00,18.78,9.55,9.58,9.58
20.81,-29.15,-38.72,-29.10,-38.67,38.67,0.00,19.02,9.52,9.57,9.56
21.02,-29.03,-38.59,-28.96,-38.52,38.52,0.00,19.27,9.49,9.56,9.56
21.23,-28.85,-38.40,-28.81,-38.37,38.37,0.00,19.52,9.52,9.55,9.55
21.44,-28.66,-38.23,-28.66,-38.21,38.21,0.00,19.78,9.55,9.55,9.56
21.66,-28.49,-38.04,-28.52,-38.06,38.06,0.00,20.04,9.57,9.54,9.55
21.87,-28.30,-37.85,-28.37,-37.91,37.91,0.00,20.31,9.60,9.54,9.54
22.09,-28.15,-37.69,-28.22,-37.75,37.75,0.00,20.59,9.60,9.53,9.53
22.31,-28.03,-37.57,-28.08,-37.60,37.60,0.00,20.88,9.57,9.52,9.53
22.54,-27.92,-37.44,-27.92,-37.44,37.44,0.00,21.17,9.53,9.52,9.52
22.76,-27.80,-37.31,-27.77,-37.29,37.29,0.00,21.48,9.49,9.52,9.51
22.99,-27.69,-37.19,-27.62,-37.14,37.14,0.00,21.79,9.45,9.51,9.50
23.22,-27.52,-37.01,-27.48,-36.98,36.98,0.00,22.11,9.47,9.51,9.49
23.45,-27.36,-36.86,-27.33,-36.83,36.83,0.00,22.45,9.48,9.51,9.50
23.69,-27.19,-36.68,-27.18,-36.68,36.68,0.00,22.79,9.50,9.50,9.49
23.92,-27.01,-36.51,-27.03,-36.53,36.53,0.00,23.15,9.52,9.50,9.49
24.16,-26.86,-36.37,-26.88,-36.39,36.39,0.00,23.52,9.52,9.50,9.50
24.40,-26.72,-36.24,-26.73,-36.23,36.23,0.00,23.91,9.51,9.50,9.51
24.65,-26.59,-36.10,-26.58,-36.08,36.08,0.00,24.31,9.49,9.50,9.51
24.89,-26.43,-35.95,-26.42,-35.93,35.93,0.00,24.73,9.49,9.51,9.51
25.14,-26.28,-35.79,-26.27,-35.77,35.77,0.00,25.17,9.49,9.51,9.50
25.39,-26.11,-35.62,-26.12,-35.63,35.63,0.00,25.62,9.52,9.51,9.50
25.65,-25.96,-35.46,-25.97,-35.49,35.49,0.00,26.10,9.53,9.51,9.50
25.91,-25.80,-35.31,-25.84,-35.35,35.35,0.00,26.61,9.55,9.51,9.51
26.16,-25.65,-35.18,-25.70,-35.21,35.21,0.00,27.14,9.56,9.52,9.52
26.43,-25.53,-35.05,-25.56,-35.07,35.07,0.00,27.71,9.54,9.52,9.52
26.69,-25.41,-34.93,-25.41,-34.93,34.93,0.00,28.31,9.52,9.52,9.52
26.96,-25.28,-34.79,-25.27,-34.78,34.78,0.00,28.96,9.51,9.52,9.51
27.23,-25.15,-34.66,-25.13,-34.64,34.64,0.00,29.66,9.49,9.52,9.51
27.50,-25.02,-34.53,-24.98,-34.50,34.50,0.00,30.41,9.48,9.52,9.51
27.77,-24.88,-34.41,-24.84,-34.36,34.36,0.00,31.24,9.48,9.52,9.52
28.05,-24.76,-34.28,-24.70,-34.22,34.22,0.00,32.15,9.46,9.52,9.52
28.33,-24.56,-34.07,-24.56,-34.08,34.08,0.00,33.17,9.51,9.52,9.50
28.62,-24.39,-33.89,-24.42,-33.93,33.93,0.00,34.35,9.54,9.51,9.50
28.90,-24.20,-33.71,-24.26,-33.78,33.78,0.00,35.73,9.58,9.51,9.51
29.19,-24.06,-33.57,-24.10,-33.61,33.61,0.00,37.44,9.55,9.51,9.51
29.48,-23.93,-33.43,-23.93,-33.43,33.43,0.00,39.73,9.51,9.51,9.50
29.78,-23.80,-33.30,-23.75,-33.26,33.26,0.00,43.43,9.46,9.50,9.50
30.08,-23.65,-33.16,-23.58,-33.08,33.08,0.00,,9.43,9.50,9.51
30.38,-23.47,-32.97,-23.41,-32.90,32.90,0.00,,9.43,9.49,9.50
30.68,-23.29,-32.77,-23.24,-32.72,32.72,0.00,,9.44,9.49,9.48
30.99,-23.11,-32.59,-23.07,-32.55,32.55,0.00,,9.44,9.48,9.48
31.30,-22.89,-32.36,-22.91,-32.38,32.38,0.00,,9.49,9.47,9.47
31.61,-22.66,-32.12,-22.74,-32.21,32.21,0.00,,9.55,9.47,9.46
31.93,-22.44,-31.89,-22.57,-32.03,32.03,0.00,,9.59,9.46,9.45
32.24,-22.31,-31.77,-22.40,-31.85,31.85,0.00,,9.54,9.45,9.45
32.57,-22.22,-31.65,-22.23,-31.68,31.68,0.00,55.19,9.46,9.45,9.43
32.89,-22.13,-31.56,-22.08,-31.52,31.52,0.00,43.26,9.39,9.44,9.43
33.22,-21.99,-31.42,-21.93,-31.36,31.36,0.00,40.02,9.38,9.43,9.43
33.55,-21.83,-31.26,-21.78,-31.21,31.21,0.00,37.97,9.38,9.43,9.42
33.89,-21.68,-31.11,-21.64,-31.06,31.06,0.00,36.44,9.39,9.43,9.43
34.23,-21.50,-30.91,-21.49,-30.91,30.91,0.00,35.22,9.42,9.42,9.41
34.57,-21.30,-30.71,-21.34,-30.76,30.76,0.00,34.19,9.46,9.42,9.41
34.92,-21.11,-30.51,-21.20,-30.61,30.61,0.00,33.31,9.50,9.41,9.40
35.27,-21.02,-30.43,-21.06,-30.46,30.46,0.00,32.53,9.44,9.40,9.41
35.62,-20.97,-30.36,-20.92,-30.31,30.31,0.00,31.84,9.35,9.39,9.39
35.97,-20.91,-30.31,-20.77,-30.16,30.16,0.00,31.22,9.24,9.38,9.39
36.33,-20.68,-30.06,-20.62,-29.99,29.99,0.00,30.66,9.31,9.37,9.37
36.70,-20.45,-29.81,-20.47,-29.82,29.82,0.00,30.15,9.38,9.35,9.36
37.06,-20.22,-29.57,-20.32,-29.65,29.65,0.00,29.68,9.43,9.34,9.34
37.43,-20.10,-29.43,-20.16,-29.48,29.48,0.00,29.25,9.38,9.32,9.32
37.81,-19.98,-29.28,-20.01,-29.31,29.31,0.00,28.85,9.33,9.30,9.30
38.19,-19.87,-29.14,-19.87,-29.14,29.14,0.00,28.48,9.27,9.27,9.27
38.57,-19.78,-29.03,-19.72,-28.97,28.97,0.00,28.14,9.19,9.25,9.25
38.95,-19.68,-28.91,-19.57,-28.79,28.79,0.00,27.82,9.11,9.22,9.22
39.34,-19.45,-28.64,-19.41,-28.61,28.61,0.00,27.53,9.16,9.20,9.18
39.74,-19.21,-28.37,-19.26,-28.42,28.42,0.00,27.26,9.22,9.17,9.16
40.14,-19.01,-28.14,-19.10,-28.24,28.24,0.00,27.00,9.24,9.14,9.13
40.54,-18.90,-28.01,-18.96,-28.07,28.07,0.00,26.77,9.17,9.11,9.11
40.94,-18.79,-27.87,-18.80,-27.89,27.89,0.00,26.55,9.11,9.09,9.08
41.35,-18.67,-27.73,-18.65,-27.71,27.71,0.00,26.35,9.04,9.06,9.06
41.76,-18.54,-27.57,-18.48,-27.51,27.51,0.00,26.16,8.97,9.03,9.02
42.18,-18.38,-27.39,-18.31,-27.32,27.32,0.00,25.98,8.93,9.01,9.00
42.60,-18.18,-27.17,-18.14,-27.12,27.12,0.00,25.82,8.94,8.98,8.98
43.03,-18.00,-26.95,-17.98,-26.93,26.93,0.00,25.68,8.93,8.95,8.95
43.46,-17.82,-26.74,-17.81,-26.74,26.74,0.00,25.54,8.93,8.93,8.92
43.90,-17.64,-26.54,-17.66,-26.56,26.56,0.00,25.42,8.92,8.90,8.90
44.33,-17.47,-26.34,-17.51,-26.38,26.38,0.00,25.31,8.90,8.87,8.86
44.78,-17.32,-26.15,-17.36,-26.20,26.20,0.00,25.21,8.89,8.84,8.83
45.23,-17.16,-25.98,-17.21,-26.02,26.02,0.00,25.12,8.86,8.81,8.82
45.68,-17.02,-25.79,-17.06,-25.83,25.83,0.00,25.04,8.82,8.77,8.77
46.13,-16.87,-25.60,-16.91,-25.64,25.64,0.00,24.97,8.78,8.74,8.73
46.60,-16.75,-25.45,-16.75,-25.45,25.45,0.00,24.91,8.70,8.70,8.70
47.06,-16.62,-25.28,-16.60,-25.26,25.26,0.00,24.87,8.64,8.66,8.66
47.53,-16.48,-25.11,-16.45,-25.07,25.07,0.00,24.83,8.59,8.61,8.63
48.01,-16.34,-24.91,-16.30,-24.88,24.88,0.00,24.80,8.54,8.57,8.57
48.49,-16.26,-24.78,-16.16,-24.69,24.69,0.00,24.77,8.43,8.53,8.52
48.97,-16.16,-24.65,-16.01,-24.50,24.50,0.00,24.76,8.33,8.48,8.48
49.46,-15.90,-24.35,-15.87,-24.31,24.31,0.00,24.75,8.40,8.44,8.44
49.96,-15.63,-24.00,-15.72,-24.11,24.11,0.00,24.76,8.48,8.39,8.37
50.46,-15.46,-23.79,-15.56,-23.91,23.91,0.00,24.76,8.45,8.35,8.33
50.96,-15.29,-23.58,-15.41,-23.71,23.71,0.00,24.78,8.42,8.30,8.29
51.47,-15.21,-23.46,-15.25,-23.51,23.51,0.00,24.80,8.30,8.25,8.25
51.99,-15.14,-23.34,-15.10,-23.30,23.30,0.00,24.83,8.17,8.21,8.20
52.51,-14.99,-23.15,-14.94,-23.10,23.10,0.00,24.86,8.12,8.16,8.16
53.03,-14.83,-22.96,-14.80,-22.91,22.91,0.00,24.89,8.08,8.11,8.13
53.56,-14.69,-22.76,-14.66,-22.72,22.72,0.00,24.93,8.04,8.07,8.07
54.10,-14.54,-22.56,-14.51,-22.54,22.54,0.00,24.97,8.00,8.02,8.02
54.64,-14.35,-22.33,-14.37,-22.35,22.35,0.00,25.01,8.00,7.98,7.98
55.18,-14.18,-22.10,-14.23,-22.17,22.17,0.00,25.05,7.99,7.94,7.92
55.74,-14.07,-21.94,-14.09,-21.99,21.99,0.00,25.09,7.92,7.90,7.87
56.29,-13.95,-21.79,-13.94,-21.80,21.80,0.00,25.12,7.85,7.85,7.84
56.86,-13.81,-21.61,-13.79,-21.60,21.60,0.00,25.15,7.79,7.81,7.80
57.42,-13.68,-21.42,-13.63,-21.39,21.39,0.00,25.16,7.72,7.76,7.74
58.00,-13.55,-21.26,-13.47,-21.19,21.19,0.00,25.17,7.64,7.72,7.71
58.58,-13.38,-21.06,-13.32,-20.99,20.99,0.00,25.17,7.61,7.67,7.68
59.16,-13.18,-20.83,-13.17,-20.79,20.79,0.00,25.15,7.60,7.62,7.64
59.76,-12.93,-20.53,-13.02,-20.59,20.59,0.00,25.12,7.66,7.57,7.60
60.35,-12.79,-20.32,-12.87,-20.39,20.39,0.00,25.07,7.60,7.52,7.53
60.96,-12.73,-20.21,-12.72,-20.19,20.19,0.00,25.00,7.46,7.47,7.48
61.57,-12.58,-19.99,-12.57,-19.98,19.98,0.00,24.91,7.41,7.41,7.41
62.18,-12.41,-19.75,-12.42,-19.78,19.78,0.00,24.80,7.37,7.36,7.34
62.80,-12.26,-19.54,-12.28,-19.57,19.57,0.00,24.66,7.32,7.30,7.28
63.43,-12.14,-19.36,-12.14,-19.38,19.38,0.00,24.51,7.24,7.24,7.22
64.07,-12.02,-19.19,-12.00,-19.18,19.18,0.00,24.33,7.16,7.18,7.17
64.71,-11.87,-18.98,-11.87,-18.99,18.99,0.00,24.13,7.12,7.12,7.11
65.35,-11.74,-18.79,-11.74,-18.80,18.80,0.00,23.91,7.06,7.06,7.05
66.01,-11.64,-18.63,-11.62,-18.62,18.62,0.00,23.68,6.98,7.00,6.99
66.67,-11.49,-18.44,-11.49,-18.43,18.43,0.00,23.43,6.94,6.94,6.95
67.33,-11.36,-18.23,-11.36,-18.24,18.24,0.00,23.16,6.88,6.88,6.87
68.01,-11.25,-18.07,-11.23,-18.04,18.04,0.00,22.88,6.80,6.82,6.82
68.69,-11.12,-17.87,-11.10,-17.86,17.86,0.00,22.59,6.74,6.75,6.75
69.37,-10.99,-17.69,-10.98,-17.67,17.67,0.00,22.30,6.69,6.69,6.70
70.07,-10.87,-17.50,-10.86,-17.49,17.49,0.00,21.99,6.62,6.63,6.63
70.77,-10.73,-17.30,-10.74,-17.30,17.30,0.00,21.68,6.57,6.56,6.57
71.48,-10.61,-17.11,-10.61,-17.11,17.11,0.00,21.37,6.51,6.50,6.50
72.19,-10.50,-16.93,-10.49,-16.93,16.93,0.00,21.05,6.43,6.44,6.43
72.91,-10.34,-16.71,-10.37,-16.74,16.74,0.00,20.74,6.41,6.37,6.37
73.64,-10.22,-16.52,-10.24,-16.56,16.56,0.00,20.42,6.34,6.31,6.30
74.38,-10.10,-16.34,-10.12,-16.37,16.37,0.00,20.11,6.27,6.25,6.24
75.12,-10.00,-16.17,-9.99,-16.18,16.18,0.00,19.79,6.19,6.19,6.17
75.87,-9.97,-16.10,-9.86,-15.99,15.99,0.00,19.48,6.02,6.13,6.13
76.63,-9.77,-15.83,-9.73,-15.80,15.80,0.00,19.18,6.04,6.07,6.06
77.40,-9.61,-15.62,-9.61,-15.63,15.63,0.00,18.87,6.02,6.02,6.01
78.17,-9.50,-15.45,-9.49,-15.45,15.45,0.00,18.57,5.95,5.96,5.95
78.95,-9.36,-15.27,-9.36,-15.27,15.27,0.00,18.28,5.91,5.90,5.91
79.74,-9.25,-15.10,-9.24,-15.09,15.09,0.00,17.99,5.84,5.85,5.85
80.54,-9.11,-14.90,-9.12,-14.91,14.91,0.00,17.70,5.81,5.79,5.79
81.35,-8.96,-14.70,-9.01,-14.75,14.75,0.00,17.42,5.80,5.74,5.74
82.16,-8.83,-14.52,-8.90,-14.58,14.58,0.00,17.15,5.76,5.68,5.69
82.98,-8.73,-14.36,-8.78,-14.40,14.40,0.00,16.88,5.68,5.63,5.63
83.81,-8.67,-14.24,-8.65,-14.22,14.22,0.00,16.62,5.56,5.57,5.57
84.65,-8.66,-14.17,-8.53,-14.04,14.04,0.00,16.36,5.39,5.51,5.51
85.50,-8.49,-13.93,-8.43,-13.89,13.89,0.00,16.10,5.40,5.45,5.44
86.35,-8.29,-13.67,-8.34,-13.73,13.73,0.00,15.86,5.44,5.39,5.38
87.22,-8.23,-13.56,-8.24,-13.57,13.57,0.00,15.61,5.34,5.33,5.33
88.09,-8.17,-13.43,-8.13,-13.40,13.40,0.00,15.38,5.24,5.27,5.26
88.97,-8.09,-13.30,-8.03,-13.24,13.24,0.00,15.14,5.15,5.21,5.21
89.86,-7.97,-13.10,-7.94,-13.08,13.08,0.00,14.92,5.11,5.14,5.13
90.76,-7.70,-12.77,-7.83,-12.90,12.90,0.00,14.69,5.20,5.07,5.07
91.66,-7.62,-12.62,-7.72,-12.73,12.73,0.00,14.48,5.11,5.01,5.00
92.58,-7.65,-12.59,-7.62,-12.56,12.56,0.00,14.26,4.91,4.94,4.94
93.51,-7.66,-12.53,-7.53,-12.39,12.39,0.00,14.05,4.73,4.86,4.87
94.44,-7.58,-12.38,-7.44,-12.23,12.23,0.00,13.85,4.65,4.79,4.80
95.39,-7.38,-12.10,-7.37,-12.08,12.08,0.00,13.65,4.70,4.71,4.72
96.34,-7.17,-11.81,-7.30,-11.93,11.93,0.00,13.46,4.77,4.64,4.64
97.30,-7.10,-11.66,-7.22,-11.78,11.78,0.00,13.27,4.68,4.56,4.56
98.28,-7.17,-11.64,-7.15,-11.63,11.63,0.00,13.08,4.46,4.48,4.47
99.26,-7.03,-11.41,-7.09,-11.48,11.48,0.00,12.90,4.46,4.40,4.38
100.25,-6.91,-11.21,-7.03,-11.34,11.34,0.00,12.72,4.44,4.32,4.30
101.25,-7.07,-11.30,-6.97,-11.20,11.20,0.00,12.55,4.14,4.23,4.23
102.27,-7.03,-11.17,-6.91,-11.06,11.06,0.00,12.37,4.03,4.15,4.14
103.29,-6.93,-10.99,-6.85,-10.92,10.92,0.00,12.21,3.99,4.07,4.06
104.32,-6.84,-10.83,-6.80,-10.78,10.78,0.00,12.04,3.94,3.98,3.99
105.37,-6.75,-10.66,-6.74,-10.64,10.64,0.00,11.88,3.89,3.90,3.91
106.42,-6.67,-10.49,-6.69,-10.51,10.51,0.00,11.72,3.85,3.82,3.82
107.48,-6.60,-10.33,-6.64,-10.38,10.38,0.00,11.57,3.79,3.74,3.73
108.56,-6.55,-10.22,-6.59,-10.25,10.25,0.00,11.42,3.70,3.66,3.67
109.64,-6.54,-10.12,-6.53,-10.12,10.12,0.00,11.27,3.58,3.59,3.58
110.74,-6.49,-9.99,-6.48,-9.99,9.99,0.00,11.12,3.50,3.51,3.50
111.85,-6.41,-9.84,-6.42,-9.85,9.85,0.00,10.97,3.44,3.43,3.43
112.97,-6.41,-9.77,-6.35,-9.71,9.71,0.00,10.83,3.30,3.36,3.36
114.10,-6.29,-9.58,-6.30,-9.59,9.59,0.00,10.69,3.30,3.29,3.29
115.24,-6.11,-9.32,-6.25,-9.47,9.47,0.00,10.55,3.36,3.21,3.21
116.39,-6.17,-9.30,-6.21,-9.35,9.35,0.00,10.41,3.19,3.14,3.13
117.55,-6.27,-9.34,-6.16,-9.23,9.23,0.00,10.27,2.97,3.08,3.07
118.73,-6.21,-9.20,-6.10,-9.11,9.11,0.00,10.14,2.91,3.01,2.99
119.92,-6.10,-9.03,-6.05,-8.99,8.99,0.00,10.00,2.90,2.94,2.93
121.12,-5.99,-8.87,-6.00,-8.88,8.88,0.00,9.87,2.89,2.88,2.88
122.33,-5.93,-8.74,-5.96,-8.77,8.77,0.00,9.74,2.85,2.82,2.81
123.55,-5.88,-8.64,-5.92,-8.67,8.67,0.00,9.61,2.79,2.75,2.76
124.79,-5.86,-8.56,-5.87,-8.56,8.56,0.00,9.47,2.70,2.69,2.70
126.03,-5.81,-8.44,-5.81,-8.44,8.44,0.00,9.34,2.64,2.63,2.63
127.29,-5.77,-8.34,-5.76,-8.33,8.33,0.00,9.22,2.56,2.57,2.57
128.57,-5.69,-8.20,-5.72,-8.23,8.23,0.00,9.09,2.54,2.51,2.51
129.85,-5.64,-8.08,-5.67,-8.12,8.12,0.00,8.96,2.48,2.45,2.44
131.15,-5.64,-8.02,-5.63,-8.01,8.01,0.00,8.83,2.38,2.39,2.38
132.46,-5.70,-8.02,-5.60,-7.93,7.93,0.00,8.71,2.23,2.33,2.32
133.79,-5.68,-7.94,-5.56,-7.83,7.83,0.00,8.58,2.16,2.27,2.26
135.12,-5.51,-7.71,-5.52,-7.73,7.73,0.00,8.46,2.23,2.21,2.20
136.48,-5.36,-7.52,-5.49,-7.64,7.64,0.00,8.33,2.28,2.15,2.16
137.84,-5.31,-7.41,-5.46,-7.55,7.55,0.00,8.21,2.25,2.09,2.10
139.22,-5.41,-7.43,-5.43,-7.46,7.46,0.00,8.09,2.06,2.03,2.02
140.61,-5.49,-7.47,-5.40,-7.37,7.37,0.00,7.97,1.89,1.98,1.98
142.02,-5.51,-7.43,-5.36,-7.28,7.28,0.00,7.85,1.77,1.92,1.92
143.44,-5.37,-7.22,-5.33,-7.19,7.19,0.00,7.73,1.83,1.86,1.85
144.87,-5.31,-7.11,-5.31,-7.12,7.12,0.00,7.61,1.81,1.81,1.80
146.32,-5.24,-6.99,-5.28,-7.04,7.04,0.00,7.49,1.80,1.75,1.75
147.78,-5.13,-6.82,-5.26,-6.95,6.95,0.00,7.38,1.83,1.70,1.69
149.26,-5.23,-6.87,-5.23,-6.88,6.88,0.00,7.26,1.65,1.64,1.64
150.75,-5.31,-6.88,-5.21,-6.80,6.80,0.00,7.15,1.49,1.58,1.57
152.26,-5.18,-6.71,-5.18,-6.71,6.71,0.00,7.04,1.53,1.53,1.53
153.78,-5.11,-6.58,-5.14,-6.61,6.61,0.00,6.93,1.50,1.47,1.47
155.32,-5.10,-6.52,-5.09,-6.50,6.50,0.00,6.82,1.41,1.42,1.42
156.88,-5.10,-6.46,-5.05,-6.41,6.41,0.00,6.71,1.32,1.36,1.36
158.44,-5.16,-6.46,-5.03,-6.33,6.33,0.00,6.60,1.17,1.30,1.30
160.03,-5.13,-6.37,-5.01,-6.25,6.25,0.00,6.50,1.12,1.24,1.24
161.63,-4.88,-6.06,-4.99,-6.17,6.17,0.00,6.39,1.29,1.18,1.18
163.24,-4.87,-5.98,-4.97,-6.09,6.09,0.00,6.29,1.22,1.12,1.11
164.88,-4.86,-5.92,-4.94,-6.00,6.00,0.00,6.19,1.15,1.06,1.06
166.53,-4.87,-5.86,-4.91,-5.91,5.91,0.00,6.09,1.05,1.00,0.99
168.19,-4.86,-5.80,-4.89,-5.83,5.83,0.00,6.00,0.98,0.94,0.94
169.87,-4.85,-5.73,-4.89,-5.77,5.77,0.00,5.90,0.92,0.88,0.88
171.57,-4.98,-5.79,-4.88,-5.70,5.70,0.00,5.81,0.73,0.82,0.81
173.29,-4.98,-5.73,-4.87,-5.63,5.63,0.00,5.72,0.66,0.76,0.75
175.02,-4.84,-5.54,-4.86,-5.57,5.57,0.00,5.63,0.73,0.70,0.70
176.77,-4.85,-5.50,-4.85,-5.50,5.50,0.00,5.54,0.66,0.65,0.65
178.54,-4.85,-5.44,-4.85,-5.44,5.44,0.00,5.45,0.60,0.60,0.59
180.32,-4.85,-5.38,-4.85,-5.39,5.39,0.00,5.36,0.55,0.55,0.53
182.13,-4.84,-5.33,-4.83,-5.33,5.33,0.00,5.28,0.49,0.49,0.49
183.95,-4.83,-5.27,-4.82,-5.26,5.26,0.00,5.20,0.43,0.44,0.44
185.79,-4.87,-5.26,-4.79,-5.19,5.19,0.00,5.11,0.32,0.40,0.39
187.65,-4.80,-5.15,-4.77,-5.12,5.12,0.00,5.03,0.32,0.35,0.35
189.52,-4.71,-5.01,-4.74,-5.04,5.04,0.00,4.95,0.34,0.30,0.30
191.42,-4.68,-4.95,-4.70,-4.97,4.97,0.00,4.88,0.29,0.26,0.27
193.33,-4.66,-4.88,-4.68,-4.90,4.90,0.00,4.80,0.24,0.22,0.22
195.27,-4.64,-4.81,-4.66,-4.83,4.83,0.00,4.73,0.19,0.17,0.17
197.22,-4.63,-4.75,-4.63,-4.77,4.77,0.00,4.65,0.14,0.13,0.12
199.19,-4.65,-4.74,-4.61,-4.70,4.70,0.00,4.58,0.06,0.09,0.09
201.18,-4.62,-4.66,-4.59,-4.64,4.64,0.00,4.51,0.02,0.05,0.04
203.19,-4.54,-4.55,-4.57,-4.58,4.58,0.00,4.44,0.04,0.01,0.01
205.23,-4.51,-4.48,-4.55,-4.52,4.52,0.00,4.37,0.01,-0.03,-0.03
207.28,-4.51,-4.45,-4.53,-4.47,4.47,0.00,4.31,-0.04,-0.07,-0.06
209.35,-4.51,-4.41,-4.53,-4.42,4.42,0.00,4.24,-0.09,-0.11,-0.10
211.44,-4.51,-4.36,-4.52,-4.37,4.37,0.00,4.18,-0.13,-0.15,-0.15
213.56,-4.51,-4.33,-4.51,-4.32,4.32,0.00,4.12,-0.18,-0.18,-0.18
215.69,-4.54,-4.32,-4.49,-4.27,4.27,0.00,4.05,-0.26,-0.22,-0.22
217.85,-4.54,-4.29,-4.48,-4.23,4.23,0.00,3.99,-0.31,-0.25,-0.25
220.03,-4.46,-4.16,-4.46,-4.18,4.18,0.00,3.94,-0.28,-0.28,-0.30
222.23,-4.43,-4.11,-4.45,-4.13,4.13,0.00,3.88,-0.29,-0.31,-0.32
224.45,-4.43,-4.08,-4.43,-4.09,4.09,0.00,3.82,-0.34,-0.34,-0.35
226.70,-4.43,-4.05,-4.41,-4.04,4.04,0.00,3.77,-0.38,-0.37,-0.38
228.96,-4.42,-4.02,-4.38,-3.99,3.99,0.00,3.71,-0.42,-0.39,-0.40
231.25,-4.36,-3.95,-4.35,-3.94,3.94,0.00,3.66,-0.42,-0.41,-0.41
233.57,-4.31,-3.87,-4.32,-3.89,3.89,0.00,3.61,-0.42,-0.43,-0.44
235.90,-4.29,-3.84,-4.28,-3.84,3.84,0.00,3.56,-0.44,-0.44,-0.45
238.26,-4.28,-3.81,-4.25,-3.80,3.80,0.00,3.51,-0.48,-0.45,-0.47
240.64,-4.26,-3.80,-4.21,-3.75,3.75,0.00,3.46,-0.51,-0.46,-0.46
243.05,-4.18,-3.71,-4.18,-3.71,3.71,0.00,3.42,-0.47,-0.47,-0.47
245.48,-4.12,-3.63,-4.16,-3.68,3.68,0.00,3.37,-0.44,-0.48,-0.49
247.93,-4.10,-3.60,-4.13,-3.64,3.64,0.00,3.33,-0.46,-0.49,-0.50
250.41,-4.08,-3.59,-4.10,-3.61,3.61,0.00,3.29,-0.47,-0.49,-0.49
252.92,-4.06,-3.57,-4.08,-3.58,3.58,0.00,3.24,-0.48,-0.50,-0.49
255.45,-4.06,-3.55,-4.07,-3.55,3.55,0.00,3.20,-0.50,-0.51,-0.51
258.00,-4.08,-3.56,-4.06,-3.54,3.54,0.00,3.16,-0.54,-0.52,-0.52
260.58,-4.05,-3.52,-4.05,-3.52,3.52,0.00,3.13,-0.53,-0.53,-0.53
263.19,-4.03,-3.49,-4.04,-3.50,3.50,0.00,3.09,-0.53,-0.54,-0.54
265.82,-4.04,-3.48,-4.03,-3.48,3.48,0.00,3.05,-0.56,-0.56,-0.56
268.48,-4.04,-3.48,-4.03,-3.46,3.46,0.00,3.02,-0.57,-0.57,-0.56
271.16,-4.04,-3.46,-4.03,-3.45,3.45,0.00,2.99,-0.59,-0.58,-0.58
273.87,-4.05,-3.46,-4.03,-3.44,3.44,0.00,2.96,-0.61,-0.59,-0.59
276.61,-4.05,-3.44,-4.03,-3.42,3.42,0.00,2.92,-0.62,-0.60,-0.61
279.38,-4.05,-3.41,-4.02,-3.41,3.41,0.00,2.89,-0.64,-0.61,-0.64
282.17,-4.04,-3.40,-4.02,-3.39,3.39,0.00,2.87,-0.64,-0.62,-0.64
284.99,-4.04,-3.40,-4.00,-3.37,3.37,0.00,2.84,-0.66,-0.63,-0.64
287.84,-3.96,-3.32,-4.00,-3.36,3.36,0.00,2.81,-0.60,-0.64,-0.64
290.72,-4.00,-3.34,-4.00,-3.35,3.35,0.00,2.79,-0.64,-0.64,-0.66
293.63,-4.01,-3.36,-4.00,-3.35,3.35,0.00,2.76,-0.65,-0.65,-0.65
296.57,-4.00,-3.35,-4.00,-3.35,3.35,0.00,2.74,-0.64,-0.65,-0.65
299.53,-3.98,-3.32,-4.01,-3.35,3.35,0.00,2.72,-0.62,-0.66,-0.66
302.53,-4.04,-3.39,-4.02,-3.36,3.36,0.00,2.70,-0.67,-0.66,-0.65
305.55,-4.00,-3.34,-4.05,-3.40,3.40,0.00,2.68,-0.60,-0.66,-0.66
308.61,-3.96,-3.31,-4.09,-3.43,3.43,0.00,2.66,-0.52,-0.66,-0.65
311.69,-4.01,-3.34,-4.13,-3.47,3.47,0.00,2.65,-0.54,-0.66,-0.67
314.81,-4.09,-3.43,-4.15,-3.48,3.48,0.00,2.63,-0.60,-0.66,-0.66
317.96,-4.16,-3.48,-4.15,-3.48,3.48,0.00,2.62,-0.68,-0.67,-0.68
321.14,-4.21,-3.54,-4.13,-3.46,3.46,0.00,2.61,-0.75,-0.67,-0.67
324.35,-4.16,-3.48,-4.08,-3.41,3.41,0.00,2.59,-0.75,-0.67,-0.68
327.59,-4.08,-3.41,-4.02,-3.35,3.35,0.00,2.58,-0.73,-0.67,-0.67
330.87,-4.16,-3.48,-3.94,-3.27,3.27,0.00,2.57,-0.89,-0.68,-0.68
334.18,-4.19,-3.50,-3.85,-3.18,3.18,0.00,2.57,-1.01,-0.68,-0.69
337.52,-4.07,-3.39,-3.75,-3.07,3.07,0.00,2.56,-1.00,-0.68,-0.68
340.90,-3.71,-3.02,-3.64,-2.96,2.96,0.00,2.55,-0.75,-0.68,-0.69
344.30,-3.39,-2.71,-3.52,-2.84,2.84,0.00,2.55,-0.54,-0.68,-0.68
347.75,-3.14,-2.47,-3.40,-2.72,2.72,0.00,2.55,-0.42,-0.67,-0.67
351.23,-3.05,-2.36,-3.28,-2.60,2.60,0.00,2.54,-0.44,-0.67,-0.69
354.74,-2.99,-2.32,-3.17,-2.50,2.50,0.00,2.54,-0.49,-0.67,-0.67
358.28,-2.94,-2.27,-3.07,-2.41,2.41,0.00,2.54,-0.53,-0.66,-0.67
361.87,-2.93,-2.26,-3.00,-2.34,2.34,0.00,2.55,-0.59,-0.66,-0.67
365.49,-2.92,-2.26,-2.94,-2.29,2.29,0.00,2.55,-0.63,-0.66,-0.66
369.14,-2.91,-2.26,-2.90,-2.25,2.25,0.00,2.55,-0.66,-0.65,-0.65
372.83,-2.91,-2.27,-2.88,-2.23,2.23,0.00,2.56,-0.68,-0.65,-0.64
376.56,-2.96,-2.31,-2.89,-2.25,2.25,0.00,2.57,-0.71,-0.65,-0.65
380.33,-2.99,-2.34,-2.93,-2.29,2.29,0.00,2.57,-0.70,-0.65,-0.65
384.13,-2.99,-2.35,-2.97,-2.32,2.32,0.00,2.58,-0.67,-0.65,-0.64
387.97,-3.03,-2.39,-3.00,-2.35,2.35,0.00,2.59,-0.68,-0.65,-0.64
391.85,-3.04,-2.39,-3.02,-2.37,2.37,0.00,2.60,-0.67,-0.65,-0.65
395.77,-3.04,-2.38,-3.04,-2.38,2.38,0.00,2.61,-0.66,-0.66,-0.66
399.73,-3.07,-2.41,-3.05,-2.39,2.39,0.00,2.63,-0.68,-0.66,-0.66
403.72,-3.08,-2.43,-3.06,-2.40,2.40,0.00,2.64,-0.68,-0.67,-0.65
407.76,-3.08,-2.41,-3.07,-2.40,2.40,0.00,2.65,-0.68,-0.67,-0.67
411.84,-3.09,-2.41,-3.08,-2.41,2.41,0.00,2.67,-0.68,-0.67,-0.68
415.96,-3.13,-2.45,-3.09,-2.41,2.41,0.00,2.68,-0.72,-0.68,-0.68
420.12,-3.10,-2.41,-3.08,-2.41,2.41,0.00,2.70,-0.69,-0.67,-0.69
424.32,-3.04,-2.36,-3.07,-2.40,2.40,0.00,2.71,-0.63,-0.66,-0.68
428.56,-3.06,-2.40,-3.05,-2.40,2.40,0.00,2.73,-0.65,-0.65,-0.66
