frequency,raw,error,smoothed,error_smoothed,equalization,parametric_eq,fixed_band_eq,equalized_raw,equalized_smoothed,target
20.00,-10.15,-13.56,-10.15,-13.59,13.59,12.95,4.41,3.44,3.44,3.41
20.20,-9.99,-13.49,-9.99,-13.51,13.51,12.99,4.53,3.52,3.51,3.50
20.40,-9.84,-13.42,-9.84,-13.42,13.42,13.02,4.65,3.59,3.59,3.58
20.61,-9.68,-13.33,-9.68,-13.34,13.34,13.04,4.77,3.65,3.66,3.65
20.81,-9.52,-13.26,-9.52,-13.25,13.25,13.04,4.90,3.73,3.73,3.74
21.02,-9.36,-13.18,-9.36,-13.15,13.15,13.04,5.02,3.79,3.79,3.82
21.23,-9.21,-13.09,-9.20,-13.06,13.06,13.02,5.16,3.85,3.85,3.88
21.44,-9.05,-12.99,-9.05,-12.96,12.96,12.99,5.29,3.91,3.92,3.94
21.66,-8.89,-12.88,-8.89,-12.86,12.86,12.96,5.43,3.97,3.97,3.99
21.87,-8.73,-12.77,-8.73,-12.76,12.76,12.91,5.58,4.03,4.03,4.04
22.09,-8.57,-12.66,-8.57,-12.65,12.65,12.85,5.72,4.08,4.08,4.09
22.31,-8.41,-12.54,-8.41,-12.54,12.54,12.78,5.88,4.13,4.13,4.14
22.54,-8.25,-12.43,-8.25,-12.43,12.43,12.70,6.03,4.17,4.18,4.17
22.76,-8.09,-12.30,-8.09,-12.31,12.31,12.62,6.19,4.22,4.22,4.21
22.99,-7.93,-12.17,-7.93,-12.19,12.19,12.52,6.35,4.26,4.26,4.24
23.22,-7.77,-12.05,-7.77,-12.07,12.07,12.42,6.52,4.29,4.29,4.28
23.45,-7.61,-11.93,-7.61,-11.94,11.94,12.31,6.69,4.33,4.33,4.32
23.69,-7.45,-11.81,-7.45,-11.82,11.82,12.20,6.87,4.36,4.37,4.36
23.92,-7.29,-11.69,-7.29,-11.69,11.69,12.08,7.05,4.40,4.40,4.40
24.16,-7.13,-11.58,-7.13,-11.57,11.57,11.95,7.23,4.44,4.44,4.45
24.40,-6.97,-11.45,-6.97,-11.44,11.44,11.82,7.42,4.47,4.47,4.48
24.65,-6.81,-11.32,-6.81,-11.31,11.31,11.69,7.61,4.50,4.51,4.51
24.89,-6.65,-11.18,-6.65,-11.19,11.19,11.55,7.81,4.54,4.54,4.54
25.14,-6.49,-11.06,-6.48,-11.06,11.06,11.40,8.01,4.57,4.57,4.58
25.39,-6.32,-10.92,-6.32,-10.93,10.93,11.26,8.21,4.61,4.61,4.61
25.65,-6.16,-10.80,-6.16,-10.80,10.80,11.11,8.41,4.64,4.64,4.64
25.91,-6.00,-10.67,-6.00,-10.67,10.67,10.97,8.62,4.67,4.67,4.66
26.16,-5.84,-10.53,-5.84,-10.54,10.54,10.82,8.82,4.71,4.70,4.69
26.43,-5.68,-10.41,-5.68,-10.41,10.41,10.66,9.03,4.73,4.73,4.73
26.69,-5.52,-10.28,-5.52,-10.28,10.28,10.51,9.24,4.76,4.76,4.76
26.96,-5.37,-10.16,-5.36,-10.15,10.15,10.36,9.45,4.78,4.79,4.79
27.23,-5.21,-10.04,-5.21,-10.02,10.02,10.21,9.65,4.81,4.82,4.83
27.50,-5.05,-9.91,-5.05,-9.89,9.89,10.06,9.85,4.84,4.85,4.85
27.77,-4.89,-9.76,-4.89,-9.77,9.77,9.90,10.05,4.88,4.88,4.87
28.05,-4.73,-9.64,-4.73,-9.64,9.64,9.75,10.24,4.91,4.91,4.91
28.33,-4.58,-9.51,-4.57,-9.51,9.51,9.60,10.42,4.93,4.94,4.93
28.62,-4.42,-9.38,-4.42,-9.39,9.39,9.45,10.60,4.96,4.97,4.96
28.90,-4.26,-9.26,-4.26,-9.26,9.26,9.30,10.76,5.00,5.00,5.00
29.19,-4.11,-9.12,-4.11,-9.14,9.14,9.15,10.90,5.03,5.02,5.02
29.48,-3.96,-9.02,-3.96,-9.01,9.01,9.01,11.04,5.05,5.05,5.06
29.78,-3.80,-8.88,-3.81,-8.89,8.89,8.86,11.15,5.09,5.08,5.08
30.08,-3.65,-8.76,-3.66,-8.77,8.77,8.71,11.24,5.12,5.11,5.11
30.38,-3.51,-8.65,-3.52,-8.65,8.65,8.57,11.31,5.14,5.13,5.14
30.68,-3.37,-8.54,-3.37,-8.53,8.53,8.43,11.36,5.16,5.16,5.16
30.99,-3.23,-8.41,-3.23,-8.42,8.42,8.29,11.39,5.18,5.19,5.18
31.30,-3.09,-8.30,-3.09,-8.30,8.30,8.15,11.39,5.21,5.21,5.21
31.61,-2.95,-8.19,-2.95,-8.18,8.18,8.01,11.36,5.23,5.24,5.24
31.93,-2.81,-8.07,-2.81,-8.06,8.06,7.87,11.31,5.25,5.26,5.25
32.24,-2.67,-7.94,-2.67,-7.95,7.95,7.74,11.24,5.28,5.28,5.27
32.57,-2.53,-7.83,-2.53,-7.83,7.83,7.61,11.15,5.30,5.30,5.30
32.89,-2.40,-7.73,-2.39,-7.71,7.71,7.48,11.03,5.32,5.32,5.33
33.22,-2.26,-7.60,-2.26,-7.60,7.60,7.35,10.89,5.34,5.34,5.34
33.55,-2.12,-7.48,-2.12,-7.48,7.48,7.22,10.74,5.36,5.36,5.36
33.89,-1.98,-7.35,-1.99,-7.36,7.36,7.09,10.57,5.38,5.37,5.37
34.23,-1.85,-7.24,-1.86,-7.24,7.24,6.97,10.39,5.39,5.39,5.39
34.57,-1.72,-7.12,-1.72,-7.12,7.12,6.84,10.20,5.40,5.40,5.40
34.92,-1.59,-7.00,-1.59,-7.00,7.00,6.72,10.00,5.41,5.41,5.41
35.27,-1.46,-6.88,-1.46,-6.88,6.88,6.60,9.79,5.42,5.42,5.42
35.62,-1.34,-6.76,-1.33,-6.76,6.76,6.48,9.58,5.42,5.42,5.42
35.97,-1.21,-6.63,-1.20,-6.63,6.63,6.36,9.36,5.42,5.43,5.43
36.33,-1.08,-6.52,-1.07,-6.51,6.51,6.25,9.13,5.43,5.43,5.44
36.70,-0.95,-6.39,-0.95,-6.38,6.38,6.13,8.91,5.43,5.43,5.44
37.06,-0.82,-6.25,-0.82,-6.26,6.26,6.02,8.69,5.44,5.44,5.43
37.43,-0.70,-6.14,-0.70,-6.13,6.13,5.91,8.46,5.43,5.43,5.44
37.81,-0.57,-6.00,-0.57,-6.01,6.01,5.80,8.24,5.44,5.43,5.43
38.19,-0.45,-5.88,-0.45,-5.88,5.88,5.69,8.01,5.43,5.43,5.43
38.57,-0.33,-5.76,-0.33,-5.76,5.76,5.59,7.79,5.43,5.43,5.43
38.95,-0.20,-5.62,-0.21,-5.63,5.63,5.48,7.57,5.43,5.42,5.43
39.34,-0.09,-5.50,-0.09,-5.51,5.51,5.38,7.36,5.42,5.42,5.41
39.74,0.02,-5.38,0.02,-5.39,5.39,5.27,7.15,5.41,5.41,5.40
40.14,0.14,-5.26,0.14,-5.27,5.27,5.17,6.94,5.41,5.40,5.40
40.54,0.25,-5.14,0.25,-5.15,5.15,5.07,6.73,5.40,5.40,5.39
40.94,0.35,-5.03,0.36,-5.03,5.03,4.97,6.53,5.38,5.39,5.38
41.35,0.46,-4.92,0.47,-4.91,4.91,4.87,6.33,5.37,5.38,5.38
41.76,0.57,-4.80,0.57,-4.79,4.79,4.78,6.13,5.36,5.37,5.37
42.18,0.67,-4.69,0.68,-4.68,4.68,4.68,5.94,5.35,5.36,5.36
42.60,0.78,-4.56,0.78,-4.56,4.56,4.59,5.75,5.35,5.34,5.35
43.03,0.88,-4.47,0.88,-4.45,4.45,4.50,5.57,5.33,5.33,5.35
43.46,0.98,-4.35,0.98,-4.34,4.34,4.41,5.39,5.32,5.32,5.33
43.90,1.09,-4.22,1.07,-4.23,4.23,4.32,5.21,5.32,5.31,5.31
44.33,1.18,-4.11,1.17,-4.13,4.13,4.23,5.03,5.31,5.30,5.29
44.78,1.27,-4.01,1.26,-4.02,4.02,4.14,4.86,5.29,5.29,5.28
45.23,1.35,-3.91,1.35,-3.92,3.92,4.05,4.70,5.27,5.27,5.26
45.68,1.44,-3.81,1.44,-3.82,3.82,3.96,4.53,5.26,5.26,5.25
46.13,1.52,-3.72,1.53,-3.72,3.72,3.88,4.37,5.24,5.25,5.24
46.60,1.61,-3.63,1.62,-3.62,3.62,3.80,4.21,5.23,5.24,5.24
47.06,1.69,-3.54,1.70,-3.53,3.53,3.71,4.06,5.22,5.22,5.23
47.53,1.78,-3.44,1.78,-3.43,3.43,3.63,3.91,5.21,5.21,5.22
48.01,1.86,-3.36,1.86,-3.34,3.34,3.55,3.76,5.20,5.20,5.22
48.49,1.94,-3.26,1.93,-3.26,3.26,3.47,3.61,5.20,5.19,5.20
48.97,2.02,-3.17,2.01,-3.18,3.18,3.39,3.47,5.20,5.19,5.19
49.46,2.09,-3.08,2.08,-3.10,3.10,3.31,3.33,5.19,5.18,5.17
49.96,2.15,-3.00,2.15,-3.02,3.02,3.23,3.19,5.17,5.17,5.15
50.46,2.22,-2.94,2.22,-2.94,2.94,3.16,3.06,5.16,5.17,5.16
50.96,2.29,-2.87,2.29,-2.87,2.87,3.08,2.93,5.16,5.16,5.16
51.47,2.36,-2.79,2.35,-2.80,2.80,3.01,2.80,5.16,5.15,5.15
51.99,2.42,-2.72,2.42,-2.73,2.73,2.93,2.67,5.15,5.15,5.14
52.51,2.48,-2.67,2.48,-2.66,2.66,2.86,2.55,5.14,5.14,5.15
53.03,2.53,-2.61,2.54,-2.59,2.59,2.79,2.43,5.13,5.13,5.14
53.56,2.59,-2.54,2.59,-2.53,2.53,2.71,2.31,5.12,5.12,5.13
54.10,2.65,-2.47,2.65,-2.46,2.46,2.64,2.19,5.11,5.11,5.12
54.64,2.70,-2.40,2.70,-2.40,2.40,2.57,2.08,5.10,5.10,5.10
55.18,2.76,-2.33,2.76,-2.33,2.33,2.50,1.97,5.09,5.09,5.09
55.74,2.81,-2.26,2.81,-2.27,2.27,2.43,1.86,5.08,5.08,5.07
56.29,2.87,-2.19,2.86,-2.20,2.20,2.36,1.75,5.07,5.06,5.06
56.86,2.92,-2.12,2.92,-2.13,2.13,2.29,1.65,5.05,5.05,5.04
57.42,2.96,-2.06,2.97,-2.06,2.06,2.23,1.55,5.02,5.03,5.02
58.00,3.01,-2.00,3.02,-1.99,1.99,2.16,1.46,5.00,5.00,5.01
58.58,3.07,-1.91,3.07,-1.91,1.91,2.09,1.36,4.98,4.98,4.98
59.16,3.12,-1.85,3.12,-1.84,1.84,2.03,1.27,4.96,4.95,4.97
59.76,3.17,-1.77,3.17,-1.76,1.76,1.96,1.18,4.93,4.93,4.94
60.35,3.22,-1.69,3.21,-1.69,1.69,1.90,1.10,4.91,4.90,4.91
60.96,3.27,-1.62,3.26,-1.61,1.61,1.83,1.02,4.88,4.87,4.89
61.57,3.32,-1.52,3.31,-1.53,1.53,1.77,0.94,4.85,4.84,4.84
62.18,3.36,-1.44,3.37,-1.45,1.45,1.70,0.86,4.81,4.82,4.80
62.80,3.41,-1.38,3.42,-1.37,1.37,1.64,0.79,4.78,4.79,4.79
63.43,3.47,-1.28,3.47,-1.29,1.29,1.58,0.72,4.76,4.76,4.75
64.07,3.52,-1.20,3.53,-1.21,1.21,1.51,0.65,4.73,4.74,4.72
64.71,3.57,-1.13,3.58,-1.13,1.13,1.45,0.59,4.70,4.71,4.70
65.35,3.63,-1.05,3.64,-1.05,1.05,1.39,0.52,4.68,4.69,4.68
66.01,3.69,-0.98,3.70,-0.97,0.97,1.33,0.46,4.66,4.67,4.67
66.67,3.76,-0.89,3.76,-0.89,0.89,1.26,0.41,4.65,4.65,4.65
67.33,3.82,-0.82,3.82,-0.81,0.81,1.20,0.35,4.63,4.64,4.64
68.01,3.89,-0.73,3.88,-0.74,0.74,1.14,0.30,4.63,4.62,4.62
68.69,3.95,-0.65,3.94,-0.66,0.66,1.08,0.25,4.61,4.61,4.60
69.37,4.01,-0.58,4.00,-0.59,0.59,1.02,0.20,4.60,4.59,4.59
70.07,4.07,-0.51,4.06,-0.52,0.52,0.96,0.15,4.59,4.58,4.58
70.77,4.13,-0.44,4.12,-0.45,0.45,0.90,0.10,4.58,4.56,4.57
71.48,4.18,-0.37,4.17,-0.37,0.37,0.84,0.05,4.55,4.55,4.55
72.19,4.23,-0.30,4.23,-0.30,0.30,0.78,0.01,4.53,4.53,4.53
72.91,4.27,-0.25,4.28,-0.23,0.23,0.72,-0.04,4.50,4.51,4.52
73.64,4.32,-0.17,4.33,-0.16,0.16,0.66,-0.08,4.49,4.49,4.49
74.38,4.37,-0.11,4.37,-0.10,0.10,0.60,-0.12,4.47,4.47,4.48
75.12,4.42,-0.03,4.42,-0.03,0.03,0.54,-0.16,4.45,4.45,4.45
75.87,4.46,0.02,4.46,0.03,-0.03,0.48,-0.21,4.43,4.43,4.44
76.63,4.50,0.08,4.51,0.09,-0.09,0.42,-0.25,4.41,4.41,4.42
77.40,4.54,0.15,4.55,0.15,-0.15,0.36,-0.29,4.39,4.39,4.39
78.17,4.59,0.23,4.58,0.21,-0.21,0.30,-0.33,4.38,4.37,4.36
78.95,4.63,0.27,4.62,0.26,-0.26,0.24,-0.37,4.37,4.35,4.36
79.74,4.66,0.32,4.65,0.32,-0.32,0.18,-0.42,4.34,4.34,4.34
80.54,4.69,0.38,4.68,0.36,-0.36,0.12,-0.46,4.33,4.32,4.31
81.35,4.71,0.41,4.72,0.41,-0.41,0.06,-0.50,4.30,4.31,4.30
82.16,4.74,0.46,4.74,0.45,-0.45,-0.00,-0.55,4.29,4.29,4.28
82.98,4.77,0.49,4.77,0.49,-0.49,-0.06,-0.59,4.28,4.28,4.28
83.81,4.79,0.53,4.79,0.52,-0.52,-0.12,-0.64,4.27,4.27,4.26
84.65,4.80,0.56,4.81,0.56,-0.56,-0.18,-0.68,4.24,4.26,4.24
85.50,4.82,0.57,4.83,0.59,-0.59,-0.24,-0.73,4.23,4.25,4.25
86.35,4.85,0.61,4.84,0.61,-0.61,-0.30,-0.78,4.24,4.23,4.24
87.22,4.86,0.64,4.85,0.63,-0.63,-0.37,-0.83,4.23,4.22,4.22
88.09,4.88,0.67,4.86,0.65,-0.65,-0.43,-0.88,4.23,4.20,4.21
88.97,4.89,0.69,4.86,0.68,-0.68,-0.49,-0.93,4.21,4.19,4.20
89.86,4.89,0.72,4.86,0.70,-0.70,-0.55,-0.98,4.19,4.17,4.17
90.76,4.88,0.74,4.86,0.72,-0.72,-0.61,-1.03,4.16,4.14,4.14
91.66,4.87,0.75,4.86,0.75,-0.75,-0.67,-1.09,4.12,4.11,4.12
92.58,4.86,0.78,4.86,0.78,-0.78,-0.74,-1.14,4.08,4.08,4.08
93.51,4.85,0.80,4.86,0.82,-0.82,-0.80,-1.20,4.03,4.04,4.05
94.44,4.85,0.84,4.86,0.87,-0.87,-0.86,-1.25,3.98,4.00,4.01
95.39,4.84,0.88,4.87,0.92,-0.92,-0.92,-1.31,3.92,3.95,3.96
96.34,4.84,0.93,4.87,0.98,-0.98,-0.99,-1.37,3.86,3.90,3.91
97.30,4.86,1.02,4.88,1.04,-1.04,-1.05,-1.43,3.82,3.84,3.84
98.28,4.88,1.10,4.90,1.12,-1.12,-1.11,-1.49,3.76,3.78,3.78
99.26,4.90,1.18,4.92,1.20,-1.20,-1.18,-1.55,3.70,3.72,3.72
100.25,4.93,1.28,4.94,1.29,-1.29,-1.24,-1.61,3.64,3.65,3.65
101.25,4.96,1.38,4.97,1.38,-1.38,-1.30,-1.67,3.58,3.58,3.58
102.27,5.00,1.49,5.00,1.48,-1.48,-1.37,-1.73,3.52,3.51,3.51
103.29,5.02,1.58,5.03,1.58,-1.58,-1.43,-1.79,3.44,3.45,3.44
104.32,5.04,1.66,5.05,1.68,-1.68,-1.49,-1.85,3.36,3.38,3.38
105.37,5.08,1.78,5.08,1.77,-1.77,-1.56,-1.91,3.31,3.31,3.30
106.42,5.11,1.88,5.10,1.86,-1.86,-1.62,-1.97,3.25,3.24,3.23
107.48,5.14,1.98,5.11,1.94,-1.94,-1.69,-2.03,3.20,3.17,3.17
108.56,5.15,2.05,5.11,2.01,-2.01,-1.75,-2.09,3.14,3.10,3.10
109.64,5.15,2.12,5.11,2.07,-2.07,-1.81,-2.15,3.08,3.03,3.03
110.74,5.14,2.17,5.10,2.13,-2.13,-1.88,-2.20,3.01,2.97,2.97
111.85,5.11,2.19,5.08,2.17,-2.17,-1.94,-2.26,2.94,2.91,2.92
112.97,5.07,2.23,5.06,2.21,-2.21,-2.00,-2.31,2.86,2.85,2.84
114.10,5.03,2.24,5.03,2.25,-2.25,-2.06,-2.36,2.78,2.79,2.79
115.24,4.99,2.26,5.01,2.28,-2.28,-2.12,-2.41,2.71,2.73,2.73
116.39,4.96,2.29,4.98,2.30,-2.30,-2.19,-2.46,2.66,2.68,2.67
117.55,4.93,2.31,4.96,2.33,-2.33,-2.25,-2.50,2.60,2.63,2.62
118.73,4.90,2.33,4.94,2.35,-2.35,-2.31,-2.54,2.55,2.58,2.57
119.92,4.87,2.34,4.91,2.38,-2.38,-2.36,-2.57,2.49,2.54,2.53
121.12,4.86,2.37,4.90,2.40,-2.40,-2.42,-2.61,2.46,2.49,2.49
122.33,4.86,2.41,4.88,2.43,-2.43,-2.48,-2.63,2.43,2.45,2.45
123.55,4.86,2.44,4.87,2.46,-2.46,-2.54,-2.66,2.40,2.41,2.42
124.79,4.87,2.50,4.86,2.49,-2.49,-2.59,-2.68,2.38,2.37,2.37
126.03,4.87,2.53,4.84,2.51,-2.51,-2.64,-2.70,2.36,2.33,2.34
127.29,4.87,2.57,4.83,2.54,-2.54,-2.70,-2.71,2.33,2.29,2.30
128.57,4.86,2.61,4.82,2.56,-2.56,-2.75,-2.73,2.30,2.26,2.25
129.85,4.82,2.60,4.80,2.58,-2.58,-2.80,-2.73,2.24,2.22,2.22
131.15,4.80,2.62,4.78,2.60,-2.60,-2.84,-2.74,2.20,2.18,2.18
132.46,4.77,2.63,4.76,2.62,-2.62,-2.89,-2.74,2.15,2.14,2.14
133.79,4.74,2.63,4.74,2.64,-2.64,-2.93,-2.74,2.10,2.10,2.11
135.12,4.70,2.64,4.71,2.65,-2.65,-2.97,-2.73,2.05,2.06,2.06
136.48,4.67,2.64,4.69,2.66,-2.66,-3.01,-2.72,2.01,2.02,2.03
137.84,4.63,2.65,4.66,2.68,-2.68,-3.05,-2.71,1.95,1.98,1.98
139.22,4.62,2.69,4.63,2.69,-2.69,-3.09,-2.70,1.93,1.94,1.93
140.61,4.60,2.71,4.60,2.71,-2.71,-3.12,-2.69,1.89,1.90,1.89
142.02,4.57,2.71,4.58,2.72,-2.72,-3.15,-2.67,1.85,1.86,1.86
143.44,4.56,2.74,4.55,2.74,-2.74,-3.18,-2.66,1.82,1.81,1.82
144.87,4.52,2.75,4.53,2.76,-2.76,-3.20,-2.64,1.76,1.77,1.77
146.32,4.51,2.79,4.50,2.78,-2.78,-3.23,-2.62,1.73,1.72,1.72
147.78,4.48,2.80,4.47,2.80,-2.80,-3.25,-2.61,1.68,1.68,1.68
149.26,4.47,2.83,4.45,2.82,-2.82,-3.26,-2.59,1.65,1.63,1.64
150.75,4.44,2.86,4.42,2.84,-2.84,-3.28,-2.57,1.60,1.58,1.58
152.26,4.41,2.87,4.40,2.86,-2.86,-3.29,-2.55,1.55,1.54,1.54
153.78,4.37,2.88,4.37,2.89,-2.89,-3.30,-2.54,1.48,1.49,1.49
155.32,4.34,2.90,4.35,2.91,-2.91,-3.30,-2.52,1.43,1.44,1.44
156.88,4.30,2.90,4.32,2.93,-2.93,-3.31,-2.51,1.37,1.39,1.40
158.44,4.29,2.95,4.30,2.96,-2.96,-3.31,-2.50,1.33,1.34,1.34
160.03,4.26,2.97,4.27,2.99,-2.99,-3.31,-2.48,1.27,1.29,1.29
161.63,4.24,3.01,4.25,3.01,-3.01,-3.30,-2.47,1.23,1.24,1.23
163.24,4.23,3.05,4.22,3.04,-3.04,-3.29,-2.46,1.19,1.19,1.18
164.88,4.20,3.06,4.20,3.06,-3.06,-3.28,-2.46,1.14,1.14,1.14
166.53,4.18,3.09,4.18,3.09,-3.09,-3.27,-2.45,1.09,1.09,1.09
168.19,4.17,3.12,4.16,3.11,-3.11,-3.25,-2.45,1.06,1.05,1.05
169.87,4.14,3.14,4.13,3.13,-3.13,-3.24,-2.45,1.01,1.00,1.00
171.57,4.12,3.16,4.11,3.15,-3.15,-3.22,-2.45,0.97,0.96,0.96
173.29,4.09,3.17,4.08,3.17,-3.17,-3.20,-2.45,0.92,0.92,0.92
175.02,4.05,3.17,4.06,3.18,-3.18,-3.17,-2.45,0.87,0.88,0.88
176.77,4.03,3.19,4.03,3.19,-3.19,-3.15,-2.46,0.84,0.84,0.84
178.54,4.01,3.21,4.00,3.19,-3.19,-3.12,-2.47,0.82,0.81,0.80
180.32,3.98,3.21,3.97,3.19,-3.19,-3.09,-2.48,0.79,0.77,0.77
182.13,3.95,3.21,3.94,3.19,-3.19,-3.06,-2.49,0.76,0.74,0.74
183.95,3.90,3.19,3.91,3.19,-3.19,-3.02,-2.50,0.71,0.72,0.71
185.79,3.86,3.17,3.88,3.19,-3.19,-2.99,-2.52,0.67,0.69,0.69
187.65,3.83,3.17,3.85,3.18,-3.18,-2.95,-2.54,0.65,0.67,0.66
189.52,3.80,3.15,3.82,3.17,-3.17,-2.92,-2.56,0.63,0.64,0.65
191.42,3.77,3.15,3.78,3.16,-3.16,-2.88,-2.58,0.61,0.62,0.62
193.33,3.75,3.14,3.75,3.15,-3.15,-2.84,-2.60,0.60,0.60,0.61
195.27,3.73,3.13,3.72,3.13,-3.13,-2.80,-2.63,0.60,0.59,0.60
197.22,3.71,3.13,3.69,3.11,-3.11,-2.76,-2.65,0.60,0.57,0.58
199.19,3.68,3.14,3.65,3.10,-3.10,-2.72,-2.68,0.58,0.55,0.54
201.18,3.64,3.11,3.62,3.08,-3.08,-2.67,-2.71,0.56,0.54,0.53
203.19,3.59,3.06,3.59,3.07,-3.07,-2.63,-2.74,0.52,0.52,0.52
205.23,3.55,3.04,3.56,3.05,-3.05,-2.59,-2.77,0.50,0.51,0.51
207.28,3.50,3.00,3.52,3.03,-3.03,-2.55,-2.80,0.47,0.49,0.50
209.35,3.46,2.98,3.49,3.01,-3.01,-2.50,-2.83,0.45,0.48,0.48
211.44,3.44,2.99,3.45,2.99,-2.99,-2.46,-2.86,0.45,0.46,0.45
213.56,3.41,2.96,3.41,2.97,-2.97,-2.41,-2.89,0.45,0.45,0.45
215.69,3.39,2.95,3.37,2.94,-2.94,-2.37,-2.92,0.45,0.43,0.44
217.85,3.35,2.94,3.33,2.92,-2.92,-2.32,-2.95,0.43,0.42,0.41
220.03,3.32,2.92,3.30,2.90,-2.90,-2.28,-2.97,0.42,0.40,0.40
222.23,3.28,2.91,3.26,2.88,-2.88,-2.24,-3.00,0.40,0.39,0.37
224.45,3.22,2.85,3.23,2.86,-2.86,-2.19,-3.02,0.36,0.37,0.37
226.70,3.17,2.81,3.19,2.84,-2.84,-2.15,-3.04,0.33,0.35,0.36
228.96,3.12,2.78,3.15,2.82,-2.82,-2.10,-3.06,0.30,0.33,0.34
231.25,3.10,2.77,3.11,2.80,-2.80,-2.06,-3.08,0.30,0.32,0.33
233.57,3.08,2.77,3.07,2.78,-2.78,-2.02,-3.09,0.30,0.30,0.31
235.90,3.04,2.75,3.04,2.75,-2.75,-1.98,-3.09,0.29,0.28,0.29
238.26,3.02,2.75,3.00,2.73,-2.73,-1.93,-3.10,0.29,0.27,0.27
240.64,2.98,2.73,2.96,2.71,-2.71,-1.89,-3.10,0.27,0.25,0.25
243.05,2.94,2.71,2.92,2.69,-2.69,-1.85,-3.09,0.25,0.24,0.23
245.48,2.88,2.66,2.89,2.66,-2.66,-1.81,-3.08,0.22,0.23,0.22
247.93,2.82,2.61,2.85,2.63,-2.63,-1.77,-3.07,0.19,0.22,0.21
250.41,2.80,2.60,2.82,2.60,-2.60,-1.73,-3.05,0.20,0.21,0.20
252.92,2.77,2.56,2.78,2.57,-2.57,-1.69,-3.03,0.20,0.21,0.21
255.45,2.75,2.54,2.74,2.53,-2.53,-1.65,-3.00,0.22,0.21,0.21
258.00,2.72,2.51,2.70,2.49,-2.49,-1.61,-2.96,0.23,0.21,0.21
260.58,2.68,2.47,2.67,2.45,-2.45,-1.57,-2.92,0.23,0.22,0.21
263.19,2.64,2.42,2.63,2.40,-2.40,-1.53,-2.88,0.24,0.22,0.22
265.82,2.58,2.35,2.59,2.36,-2.36,-1.49,-2.83,0.22,0.23,0.23
268.48,2.54,2.29,2.55,2.31,-2.31,-1.46,-2.78,0.23,0.24,0.25
271.16,2.50,2.24,2.52,2.26,-2.26,-1.42,-2.72,0.24,0.26,0.26
273.87,2.47,2.20,2.48,2.21,-2.21,-1.38,-2.66,0.26,0.27,0.27
276.61,2.44,2.14,2.44,2.15,-2.15,-1.35,-2.60,0.29,0.28,0.30
279.38,2.41,2.11,2.40,2.10,-2.10,-1.31,-2.53,0.31,0.30,0.30
282.17,2.38,2.06,2.35,2.04,-2.04,-1.28,-2.47,0.34,0.31,0.32
284.99,2.34,2.01,2.31,1.99,-1.99,-1.24,-2.39,0.35,0.33,0.33
287.84,2.27,1.93,2.27,1.93,-1.93,-1.21,-2.32,0.34,0.34,0.34
290.72,2.22,1.85,2.24,1.87,-1.87,-1.17,-2.24,0.35,0.36,0.37
293.63,2.18,1.81,2.20,1.82,-1.82,-1.14,-2.17,0.36,0.38,0.37
296.57,2.14,1.74,2.16,1.76,-1.76,-1.11,-2.09,0.38,0.40,0.40
299.53,2.10,1.69,2.12,1.70,-1.70,-1.07,-2.01,0.40,0.42,0.41
302.53,2.08,1.66,2.08,1.64,-1.64,-1.04,-1.93,0.44,0.43,0.42
305.55,2.05,1.60,2.04,1.59,-1.59,-1.01,-1.84,0.46,0.45,0.45
308.61,2.02,1.55,2.00,1.53,-1.53,-0.98,-1.76,0.49,0.47,0.47
311.69,1.97,1.47,1.97,1.47,-1.47,-0.95,-1.68,0.50,0.50,0.50
314.81,1.94,1.41,1.94,1.42,-1.42,-0.92,-1.60,0.52,0.52,0.53
317.96,1.90,1.35,1.90,1.37,-1.37,-0.89,-1.51,0.53,0.54,0.55
321.14,1.85,1.29,1.87,1.31,-1.31,-0.86,-1.43,0.54,0.56,0.56
324.35,1.82,1.24,1.84,1.25,-1.25,-0.83,-1.35,0.57,0.58,0.58
327.59,1.79,1.18,1.80,1.19,-1.19,-0.80,-1.26,0.60,0.61,0.61
330.87,1.78,1.16,1.76,1.13,-1.13,-0.77,-1.18,0.65,0.63,0.62
334.18,1.75,1.10,1.72,1.07,-1.07,-0.74,-1.10,0.68,0.65,0.65
337.52,1.71,1.04,1.68,1.01,-1.01,-0.71,-1.02,0.70,0.68,0.67
340.90,1.66,0.97,1.64,0.95,-0.95,-0.68,-0.94,0.71,0.70,0.69
344.30,1.61,0.89,1.61,0.89,-0.89,-0.65,-0.85,0.72,0.72,0.72
347.75,1.57,0.83,1.57,0.83,-0.83,-0.62,-0.77,0.74,0.74,0.74
351.23,1.51,0.74,1.54,0.77,-0.77,-0.59,-0.69,0.74,0.77,0.77
354.74,1.47,0.68,1.50,0.71,-0.71,-0.56,-0.61,0.76,0.79,0.79
358.28,1.44,0.63,1.47,0.65,-0.65,-0.53,-0.54,0.79,0.81,0.81
361.87,1.42,0.58,1.43,0.59,-0.59,-0.51,-0.46,0.83,0.84,0.84
365.49,1.40,0.53,1.40,0.54,-0.54,-0.48,-0.38,0.86,0.86,0.87
369.14,1.38,0.50,1.37,0.48,-0.48,-0.45,-0.30,0.90,0.89,0.88
372.83,1.36,0.46,1.34,0.43,-0.43,-0.42,-0.23,0.93,0.91,0.90
376.56,1.32,0.40,1.31,0.38,-0.38,-0.39,-0.15,0.94,0.93,0.92
380.33,1.29,0.33,1.29,0.34,-0.34,-0.36,-0.07,0.95,0.95,0.96
384.13,1.26,0.29,1.26,0.29,-0.29,-0.33,0.00,0.97,0.97,0.97
387.97,1.23,0.24,1.24,0.25,-0.25,-0.30,0.08,0.98,0.98,0.99
391.85,1.21,0.22,1.21,0.21,-0.21,-0.27,0.15,1.00,1.00,0.99
395.77,1.18,0.16,1.19,0.18,-0.18,-0.24,0.22,1.00,1.01,1.02
399.73,1.16,0.13,1.16,0.14,-0.14,-0.21,0.30,1.02,1.02,1.03
403.72,1.13,0.10,1.13,0.10,-0.10,-0.18,0.37,1.03,1.03,1.03
407.76,1.10,0.06,1.10,0.06,-0.06,-0.15,0.44,1.04,1.04,1.04
411.84,1.08,0.03,1.07,0.03,-0.03,-0.12,0.51,1.05,1.04,1.05
415.96,1.05,0.01,1.04,0.00,-0.00,-0.09,0.58,1.05,1.04,1.05
420.12,1.02,-0.02,1.02,-0.02,0.02,-0.06,0.64,1.04,1.04,1.04
424.32,0.99,-0.05,0.99,-0.05,0.05,-0.02,0.71,1.04,1.04,1.04
428.56,0.96,-0.08,0.96,-0.07,0.07,0.01,0.77,1.03,1.04,1.04
432.85,0.92,-0.11,0.94,-0.10,0.10,0.05,0.83,1.02,1.03,1.03
437.18,0.89,-0.14,0.91,-0.12,0.12,0.08,0.90,1.01,1.03,1.03
441.55,0.87,-0.16,0.88,-0.15,0.15,0.12,0.95,1.02,1.03,1.03
445.96,0.85,-0.17,0.85,-0.17,0.17,0.15,1.01,1.02,1.02,1.02
450.42,0.83,-0.19,0.82,-0.20,0.20,0.19,1.06,1.03,1.02,1.02
454.93,0.81,-0.21,0.79,-0.22,0.22,0.23,1.11,1.03,1.02,1.02
459.48,0.77,-0.23,0.76,-0.25,0.25,0.27,1.16,1.02,1.01,1.00
464.07,0.73,-0.28,0.73,-0.28,0.28,0.31,1.21,1.01,1.01,1.01
468.71,0.70,-0.31,0.70,-0.31,0.31,0.36,1.25,1.01,1.01,1.01
473.40,0.66,-0.35,0.67,-0.34,0.34,0.40,1.29,1.00,1.01,1.01
478.13,0.62,-0.40,0.63,-0.38,0.38,0.44,1.32,1.00,1.01,1.02
482.91,0.58,-0.43,0.59,-0.43,0.43,0.49,1.36,1.01,1.01,1.01
487.74,0.54,-0.48,0.54,-0.48,0.48,0.54,1.38,1.02,1.02,1.02
492.62,0.49,-0.54,0.48,-0.54,0.54,0.59,1.41,1.03,1.02,1.03
497.55,0.44,-0.58,0.42,-0.60,0.60,0.64,1.43,1.04,1.02,1.02
502.52,0.39,-0.64,0.36,-0.67,0.67,0.69,1.45,1.06,1.03,1.03
507.55,0.33,-0.70,0.29,-0.74,0.74,0.75,1.46,1.07,1.03,1.03
512.62,0.24,-0.80,0.22,-0.82,0.82,0.81,1.47,1.06,1.04,1.04
517.75,0.15,-0.90,0.14,-0.90,0.90,0.86,1.48,1.05,1.05,1.05
522.93,0.06,-1.00,0.06,-0.99,0.99,0.92,1.48,1.05,1.05,1.06
528.16,-0.04,-1.09,-0.02,-1.09,1.09,0.99,1.48,1.05,1.06,1.05
533.44,-0.12,-1.18,-0.11,-1.18,1.18,1.05,1.47,1.06,1.07,1.06
