frequency,raw,error,smoothed,error_smoothed,equalization,parametric_eq,fixed_band_eq,equalized_raw,equalized_smoothed,target
20.00,4.99,4.77,5.00,4.78,-4.77,-4.03,-1.57,0.22,0.23,0.22
20.20,4.91,4.64,4.91,4.63,-4.63,-4.06,-1.62,0.29,0.28,0.27
20.40,4.83,4.51,4.82,4.50,-4.49,-4.09,-1.67,0.34,0.33,0.32
20.61,4.75,4.40,4.74,4.38,-4.38,-4.11,-1.72,0.38,0.37,0.35
20.81,4.66,4.26,4.67,4.26,-4.27,-4.13,-1.77,0.39,0.39,0.40
21.02,4.59,4.15,4.61,4.17,-4.19,-4.15,-1.82,0.40,0.42,0.44
21.23,4.57,4.11,4.57,4.10,-4.11,-4.16,-1.87,0.46,0.45,0.46
21.44,4.55,4.07,4.54,4.06,-4.06,-4.17,-1.93,0.49,0.49,0.48
21.66,4.53,4.03,4.53,4.03,-4.02,-4.18,-1.99,0.51,0.51,0.50
21.87,4.51,4.00,4.52,4.00,-3.99,-4.19,-2.05,0.52,0.52,0.51
22.09,4.51,3.98,4.52,3.98,-3.98,-4.19,-2.11,0.53,0.53,0.53
22.31,4.53,3.99,4.53,3.99,-3.99,-4.19,-2.17,0.54,0.54,0.54
22.54,4.55,4.01,4.55,4.00,-4.02,-4.19,-2.23,0.53,0.53,0.54
22.76,4.57,4.03,4.57,4.03,-4.06,-4.19,-2.30,0.51,0.51,0.54
22.99,4.59,4.06,4.60,4.07,-4.11,-4.18,-2.36,0.48,0.50,0.53
23.22,4.65,4.12,4.65,4.12,-4.15,-4.17,-2.43,0.50,0.50,0.53
23.45,4.72,4.19,4.73,4.19,-4.18,-4.15,-2.50,0.54,0.54,0.53
23.69,4.79,4.25,4.80,4.26,-4.20,-4.13,-2.57,0.59,0.60,0.54
23.92,4.86,4.32,4.83,4.28,-4.19,-4.11,-2.64,0.67,0.64,0.54
24.16,4.80,4.26,4.79,4.24,-4.16,-4.09,-2.72,0.64,0.63,0.54
24.40,4.68,4.13,4.69,4.14,-4.11,-4.07,-2.79,0.57,0.58,0.55
24.65,4.56,4.02,4.56,4.01,-4.04,-4.04,-2.87,0.52,0.52,0.54
24.89,4.44,3.90,4.46,3.91,-3.96,-4.01,-2.95,0.48,0.49,0.54
25.14,4.38,3.84,4.39,3.84,-3.89,-3.98,-3.02,0.49,0.49,0.54
25.39,4.35,3.80,4.34,3.79,-3.84,-3.95,-3.10,0.51,0.50,0.55
25.65,4.32,3.77,4.32,3.77,-3.81,-3.91,-3.18,0.51,0.51,0.55
25.91,4.30,3.76,4.31,3.76,-3.80,-3.87,-3.25,0.50,0.51,0.54
26.16,4.31,3.77,4.32,3.77,-3.79,-3.83,-3.33,0.52,0.53,0.54
26.43,4.35,3.81,4.36,3.81,-3.78,-3.79,-3.41,0.57,0.58,0.54
26.69,4.38,3.84,4.39,3.84,-3.76,-3.75,-3.48,0.62,0.63,0.54
26.96,4.41,3.87,4.38,3.83,-3.73,-3.71,-3.55,0.68,0.65,0.54
27.23,4.32,3.78,4.32,3.77,-3.71,-3.66,-3.63,0.62,0.61,0.54
27.50,4.20,3.66,4.20,3.66,-3.69,-3.62,-3.69,0.51,0.51,0.54
27.77,4.09,3.56,4.09,3.56,-3.67,-3.57,-3.76,0.42,0.42,0.53
28.05,4.01,3.48,4.06,3.53,-3.66,-3.52,-3.82,0.35,0.40,0.53
28.33,4.10,3.58,4.10,3.57,-3.64,-3.47,-3.88,0.46,0.46,0.52
28.62,4.19,3.67,4.19,3.66,-3.63,-3.42,-3.94,0.56,0.56,0.52
28.90,4.28,3.75,4.25,3.72,-3.61,-3.38,-3.99,0.67,0.64,0.53
29.19,4.25,3.73,4.24,3.71,-3.60,-3.33,-4.03,0.65,0.63,0.52
29.48,4.15,3.62,4.16,3.63,-3.59,-3.27,-4.07,0.56,0.58,0.53
29.78,4.06,3.54,4.07,3.54,-3.56,-3.22,-4.11,0.50,0.51,0.52
30.08,3.98,3.45,3.99,3.46,-3.51,-3.17,-4.14,0.47,0.48,0.53
30.38,3.94,3.42,3.94,3.41,-3.46,-3.12,-4.16,0.48,0.48,0.52
30.68,3.90,3.38,3.90,3.37,-3.40,-3.07,-4.17,0.50,0.50,0.52
30.99,3.86,3.34,3.86,3.34,-3.34,-3.02,-4.18,0.52,0.52,0.52
31.30,3.83,3.32,3.83,3.31,-3.30,-2.97,-4.18,0.53,0.53,0.51
31.61,3.79,3.28,3.79,3.28,-3.27,-2.92,-4.18,0.52,0.52,0.51
31.93,3.76,3.25,3.76,3.25,-3.25,-2.87,-4.16,0.51,0.51,0.51
32.24,3.72,3.22,3.72,3.21,-3.22,-2.82,-4.15,0.50,0.50,0.50
32.57,3.68,3.18,3.68,3.18,-3.19,-2.77,-4.12,0.49,0.49,0.50
32.89,3.64,3.14,3.64,3.14,-3.15,-2.72,-4.09,0.49,0.49,0.50
33.22,3.60,3.11,3.61,3.11,-3.09,-2.67,-4.05,0.51,0.51,0.49
33.55,3.56,3.07,3.57,3.08,-3.03,-2.62,-4.00,0.53,0.54,0.49
33.89,3.52,3.04,3.51,3.02,-2.96,-2.58,-3.96,0.56,0.54,0.48
34.23,3.42,2.94,3.40,2.92,-2.90,-2.53,-3.90,0.53,0.50,0.48
34.57,3.27,2.80,3.27,2.80,-2.83,-2.48,-3.84,0.44,0.44,0.47
34.92,3.13,2.66,3.17,2.70,-2.77,-2.44,-3.78,0.36,0.40,0.47
35.27,3.10,2.64,3.11,2.65,-2.71,-2.39,-3.71,0.40,0.41,0.46
35.62,3.11,2.65,3.10,2.63,-2.64,-2.35,-3.64,0.47,0.46,0.46
35.97,3.11,2.65,3.09,2.63,-2.59,-2.30,-3.57,0.52,0.50,0.46
36.33,3.05,2.59,3.05,2.59,-2.54,-2.26,-3.50,0.51,0.51,0.46
36.70,2.98,2.53,2.99,2.53,-2.50,-2.22,-3.42,0.48,0.49,0.45
37.06,2.91,2.46,2.92,2.46,-2.47,-2.18,-3.34,0.44,0.45,0.45
37.43,2.86,2.40,2.86,2.40,-2.43,-2.14,-3.26,0.43,0.43,0.46
37.81,2.81,2.35,2.81,2.35,-2.39,-2.10,-3.18,0.43,0.43,0.46
38.19,2.78,2.33,2.79,2.33,-2.34,-2.06,-3.10,0.44,0.45,0.45
38.57,2.77,2.31,2.77,2.31,-2.30,-2.02,-3.02,0.48,0.48,0.46
38.95,2.76,2.29,2.74,2.27,-2.25,-1.98,-2.94,0.51,0.49,0.47
39.34,2.69,2.23,2.69,2.22,-2.21,-1.94,-2.86,0.48,0.48,0.46
39.74,2.62,2.16,2.63,2.16,-2.15,-1.90,-2.78,0.47,0.48,0.46
40.14,2.56,2.10,2.57,2.11,-2.09,-1.87,-2.70,0.47,0.48,0.46
40.54,2.52,2.06,2.53,2.07,-2.04,-1.83,-2.62,0.49,0.49,0.46
40.94,2.49,2.04,2.46,2.00,-1.99,-1.80,-2.55,0.50,0.47,0.45
41.35,2.38,1.93,2.37,1.91,-1.95,-1.76,-2.47,0.43,0.41,0.45
41.76,2.26,1.82,2.29,1.84,-1.93,-1.73,-2.40,0.33,0.36,0.44
42.18,2.23,1.79,2.28,1.84,-1.91,-1.70,-2.32,0.32,0.37,0.44
42.60,2.32,1.89,2.32,1.88,-1.90,-1.67,-2.25,0.43,0.42,0.43
43.03,2.41,1.99,2.36,1.93,-1.88,-1.64,-2.18,0.53,0.48,0.42
43.46,2.35,1.94,2.36,1.95,-1.86,-1.61,-2.11,0.49,0.50,0.41
43.90,2.28,1.89,2.30,1.90,-1.84,-1.58,-2.04,0.44,0.45,0.39
44.33,2.21,1.84,2.21,1.83,-1.82,-1.55,-1.98,0.39,0.38,0.37
44.78,2.12,1.77,2.13,1.77,-1.80,-1.52,-1.91,0.32,0.33,0.35
45.23,2.05,1.71,2.05,1.70,-1.75,-1.49,-1.85,0.30,0.29,0.34
45.68,1.98,1.65,1.99,1.65,-1.70,-1.47,-1.79,0.29,0.29,0.33
46.13,1.93,1.62,1.97,1.65,-1.63,-1.44,-1.73,0.30,0.33,0.31
46.60,1.95,1.64,1.94,1.64,-1.58,-1.41,-1.67,0.37,0.36,0.31
47.06,1.94,1.65,1.88,1.58,-1.54,-1.39,-1.61,0.40,0.34,0.29
47.53,1.78,1.50,1.79,1.50,-1.50,-1.36,-1.56,0.28,0.28,0.28
48.01,1.63,1.35,1.70,1.42,-1.47,-1.34,-1.50,0.16,0.23,0.28
48.49,1.65,1.39,1.65,1.38,-1.43,-1.32,-1.45,0.22,0.21,0.26
48.97,1.67,1.43,1.64,1.39,-1.40,-1.29,-1.40,0.27,0.24,0.24
49.46,1.62,1.40,1.63,1.40,-1.37,-1.27,-1.35,0.25,0.26,0.22
49.96,1.57,1.37,1.57,1.36,-1.34,-1.25,-1.30,0.23,0.23,0.20
50.46,1.51,1.32,1.50,1.31,-1.32,-1.23,-1.25,0.20,0.19,0.19
50.96,1.44,1.26,1.47,1.29,-1.29,-1.21,-1.21,0.15,0.17,0.18
51.47,1.43,1.27,1.44,1.27,-1.27,-1.19,-1.16,0.16,0.17,0.16
51.99,1.44,1.29,1.40,1.24,-1.24,-1.17,-1.12,0.20,0.16,0.15
52.51,1.35,1.21,1.35,1.21,-1.20,-1.15,-1.08,0.15,0.15,0.14
53.03,1.27,1.13,1.30,1.16,-1.17,-1.13,-1.04,0.11,0.14,0.14
53.56,1.25,1.13,1.25,1.12,-1.13,-1.11,-1.00,0.12,0.12,0.12
54.10,1.23,1.12,1.21,1.10,-1.09,-1.10,-0.96,0.14,0.12,0.11
54.64,1.16,1.07,1.16,1.06,-1.05,-1.08,-0.92,0.11,0.11,0.09
55.18,1.09,1.00,1.09,1.01,-1.01,-1.06,-0.89,0.08,0.08,0.09
55.74,1.02,0.95,1.03,0.95,-0.97,-1.05,-0.85,0.05,0.06,0.07
56.29,0.97,0.91,0.98,0.91,-0.92,-1.03,-0.82,0.05,0.06,0.06
56.86,0.94,0.89,0.93,0.88,-0.87,-1.02,-0.79,0.07,0.06,0.05
57.42,0.87,0.85,0.87,0.84,-0.82,-1.00,-0.76,0.05,0.06,0.02
58.00,0.80,0.79,0.80,0.78,-0.76,-0.99,-0.73,0.04,0.03,0.01
58.58,0.71,0.71,0.71,0.71,-0.71,-0.97,-0.71,-0.00,-0.00,0.00
59.16,0.62,0.64,0.63,0.65,-0.67,-0.96,-0.68,-0.05,-0.03,-0.02
59.76,0.56,0.60,0.56,0.60,-0.62,-0.95,-0.66,-0.06,-0.06,-0.04
60.35,0.49,0.57,0.49,0.56,-0.57,-0.94,-0.64,-0.08,-0.08,-0.08
60.96,0.42,0.54,0.42,0.54,-0.53,-0.92,-0.61,-0.11,-0.11,-0.12
61.57,0.36,0.52,0.36,0.52,-0.50,-0.91,-0.60,-0.13,-0.14,-0.16
62.18,0.29,0.49,0.29,0.49,-0.47,-0.90,-0.58,-0.18,-0.18,-0.20
62.80,0.23,0.48,0.22,0.46,-0.47,-0.89,-0.56,-0.23,-0.25,-0.25
63.43,0.15,0.44,0.14,0.43,-0.47,-0.88,-0.55,-0.31,-0.32,-0.29
64.07,0.07,0.41,0.09,0.42,-0.47,-0.87,-0.53,-0.40,-0.38,-0.34
64.71,0.05,0.43,0.07,0.45,-0.47,-0.86,-0.52,-0.42,-0.40,-0.38
65.35,0.07,0.49,0.08,0.50,-0.48,-0.85,-0.51,-0.41,-0.40,-0.42
66.01,0.12,0.59,0.07,0.53,-0.49,-0.84,-0.50,-0.37,-0.42,-0.47
66.67,0.01,0.53,0.02,0.54,-0.49,-0.83,-0.49,-0.48,-0.47,-0.52
67.33,-0.07,0.50,-0.05,0.51,-0.49,-0.82,-0.48,-0.56,-0.54,-0.57
68.01,-0.14,0.47,-0.13,0.48,-0.49,-0.82,-0.48,-0.63,-0.62,-0.61
68.69,-0.18,0.48,-0.18,0.47,-0.48,-0.81,-0.47,-0.66,-0.66,-0.66
69.37,-0.23,0.48,-0.24,0.47,-0.47,-0.80,-0.47,-0.70,-0.70,-0.71
70.07,-0.30,0.46,-0.30,0.45,-0.46,-0.79,-0.47,-0.76,-0.76,-0.76
70.77,-0.38,0.43,-0.38,0.43,-0.46,-0.79,-0.47,-0.84,-0.84,-0.81
71.48,-0.44,0.42,-0.42,0.45,-0.47,-0.78,-0.47,-0.91,-0.89,-0.86
72.19,-0.46,0.47,-0.44,0.48,-0.49,-0.78,-0.47,-0.95,-0.93,-0.93
72.91,-0.41,0.58,-0.46,0.52,-0.51,-0.77,-0.47,-0.92,-0.97,-0.99
73.64,-0.49,0.55,-0.48,0.56,-0.54,-0.76,-0.47,-1.03,-1.02,-1.04
74.38,-0.53,0.57,-0.50,0.59,-0.58,-0.76,-0.47,-1.10,-1.08,-1.10
75.12,-0.53,0.63,-0.55,0.61,-0.61,-0.75,-0.48,-1.14,-1.16,-1.16
75.87,-0.57,0.65,-0.58,0.64,-0.65,-0.75,-0.48,-1.21,-1.22,-1.22
76.63,-0.62,0.65,-0.60,0.66,-0.67,-0.75,-0.48,-1.29,-1.28,-1.27
77.40,-0.64,0.68,-0.63,0.69,-0.69,-0.74,-0.49,-1.33,-1.32,-1.32
78.17,-0.64,0.74,-0.65,0.72,-0.70,-0.74,-0.50,-1.34,-1.35,-1.38
78.95,-0.66,0.76,-0.67,0.75,-0.72,-0.73,-0.50,-1.38,-1.39,-1.42
79.74,-0.72,0.75,-0.72,0.74,-0.74,-0.73,-0.51,-1.46,-1.46,-1.47
80.54,-0.79,0.73,-0.78,0.73,-0.76,-0.73,-0.52,-1.55,-1.54,-1.52
81.35,-0.84,0.73,-0.82,0.74,-0.78,-0.73,-0.53,-1.62,-1.61,-1.57
82.16,-0.84,0.78,-0.84,0.77,-0.80,-0.72,-0.53,-1.64,-1.64,-1.62
82.98,-0.84,0.82,-0.84,0.82,-0.82,-0.72,-0.54,-1.66,-1.66,-1.66
83.81,-0.84,0.87,-0.84,0.86,-0.83,-0.72,-0.55,-1.67,-1.67,-1.71
84.65,-0.87,0.89,-0.87,0.88,-0.84,-0.72,-0.56,-1.71,-1.71,-1.76
85.50,-0.91,0.89,-0.92,0.88,-0.85,-0.72,-0.57,-1.76,-1.77,-1.80
86.35,-0.98,0.87,-0.98,0.87,-0.87,-0.71,-0.58,-1.85,-1.85,-1.85
87.22,-1.05,0.85,-1.04,0.85,-0.88,-0.71,-0.60,-1.93,-1.93,-1.90
88.09,-1.10,0.85,-1.10,0.85,-0.89,-0.71,-0.61,-1.99,-1.99,-1.95
88.97,-1.14,0.87,-1.13,0.87,-0.90,-0.71,-0.62,-2.04,-2.03,-2.01
89.86,-1.14,0.92,-1.13,0.92,-0.91,-0.71,-0.63,-2.05,-2.05,-2.06
90.76,-1.14,0.97,-1.15,0.96,-0.93,-0.71,-0.64,-2.07,-2.08,-2.11
91.66,-1.16,1.00,-1.19,0.97,-0.95,-0.71,-0.66,-2.11,-2.14,-2.16
92.58,-1.26,0.96,-1.25,0.96,-0.96,-0.71,-0.67,-2.22,-2.21,-2.22
93.51,-1.33,0.94,-1.30,0.96,-0.98,-0.71,-0.69,-2.31,-2.28,-2.27
94.44,-1.34,0.97,-1.33,0.98,-0.98,-0.71,-0.70,-2.32,-2.32,-2.31
95.39,-1.34,1.02,-1.36,1.00,-0.99,-0.72,-0.71,-2.33,-2.34,-2.36
96.34,-1.38,1.03,-1.41,1.00,-0.99,-0.72,-0.73,-2.37,-2.39,-2.41
97.30,-1.49,0.97,-1.47,0.98,-0.99,-0.72,-0.74,-2.48,-2.46,-2.46
98.28,-1.56,0.95,-1.53,0.97,-0.99,-0.72,-0.76,-2.55,-2.52,-2.51
99.26,-1.57,0.98,-1.57,0.98,-0.99,-0.72,-0.78,-2.56,-2.56,-2.55
100.25,-1.59,1.01,-1.61,0.99,-0.98,-0.72,-0.79,-2.57,-2.59,-2.60
101.25,-1.65,1.00,-1.66,0.99,-0.97,-0.73,-0.81,-2.62,-2.63,-2.65
102.27,-1.74,0.96,-1.72,0.97,-0.96,-0.73,-0.82,-2.70,-2.68,-2.70
103.29,-1.80,0.95,-1.79,0.95,-0.94,-0.73,-0.84,-2.74,-2.73,-2.75
104.32,-1.85,0.94,-1.85,0.93,-0.93,-0.73,-0.86,-2.77,-2.78,-2.79
105.37,-1.91,0.93,-1.92,0.91,-0.91,-0.74,-0.87,-2.82,-2.84,-2.84
106.42,-2.01,0.88,-2.00,0.88,-0.90,-0.74,-0.89,-2.91,-2.91,-2.89
107.48,-2.09,0.86,-2.08,0.86,-0.89,-0.74,-0.91,-2.98,-2.97,-2.95
108.56,-2.15,0.85,-2.14,0.86,-0.88,-0.75,-0.92,-3.03,-3.02,-3.00
109.64,-2.17,0.88,-2.17,0.88,-0.88,-0.75,-0.94,-3.05,-3.05,-3.05
110.74,-2.19,0.92,-2.20,0.90,-0.88,-0.76,-0.95,-3.07,-3.08,-3.11
111.85,-2.22,0.93,-2.24,0.91,-0.89,-0.76,-0.97,-3.11,-3.13,-3.15
112.97,-2.32,0.89,-2.30,0.90,-0.89,-0.77,-0.98,-3.21,-3.19,-3.21
114.10,-2.37,0.89,-2.37,0.89,-0.89,-0.77,-1.00,-3.26,-3.26,-3.26
115.24,-2.43,0.88,-2.42,0.89,-0.89,-0.77,-1.01,-3.32,-3.31,-3.31
116.39,-2.45,0.91,-2.46,0.90,-0.89,-0.78,-1.02,-3.34,-3.35,-3.36
117.55,-2.49,0.91,-2.51,0.88,-0.90,-0.78,-1.03,-3.38,-3.41,-3.40
118.73,-2.58,0.86,-2.56,0.88,-0.90,-0.79,-1.04,-3.48,-3.46,-3.44
119.92,-2.61,0.86,-2.59,0.88,-0.90,-0.80,-1.05,-3.51,-3.50,-3.47
121.12,-2.60,0.91,-2.60,0.90,-0.90,-0.80,-1.06,-3.50,-3.50,-3.51
122.33,-2.59,0.95,-2.59,0.95,-0.91,-0.81,-1.07,-3.50,-3.50,-3.54
123.55,-2.59,0.98,-2.61,0.96,-0.91,-0.81,-1.08,-3.50,-3.53,-3.57
124.79,-2.65,0.95,-2.67,0.93,-0.92,-0.82,-1.08,-3.57,-3.59,-3.60
126.03,-2.76,0.87,-2.72,0.90,-0.93,-0.82,-1.09,-3.69,-3.65,-3.63
127.29,-2.77,0.88,-2.76,0.89,-0.93,-0.83,-1.09,-3.70,-3.69,-3.65
128.57,-2.76,0.93,-2.76,0.92,-0.93,-0.84,-1.10,-3.69,-3.69,-3.69
129.85,-2.75,0.97,-2.76,0.96,-0.92,-0.84,-1.10,-3.67,-3.68,-3.72
131.15,-2.77,0.98,-2.78,0.96,-0.92,-0.85,-1.10,-3.69,-3.71,-3.75
132.46,-2.83,0.95,-2.84,0.94,-0.93,-0.86,-1.10,-3.76,-3.77,-3.78
133.79,-2.91,0.90,-2.89,0.91,-0.94,-0.87,-1.10,-3.85,-3.83,-3.81
135.12,-2.94,0.90,-2.93,0.91,-0.95,-0.87,-1.10,-3.89,-3.88,-3.84
136.48,-2.93,0.93,-2.94,0.92,-0.96,-0.88,-1.10,-3.88,-3.89,-3.86
137.84,-2.93,0.97,-2.92,0.97,-0.96,-0.89,-1.10,-3.88,-3.88,-3.90
139.22,-2.93,1.00,-2.93,1.00,-0.95,-0.89,-1.10,-3.88,-3.88,-3.93
140.61,-2.93,1.03,-2.96,0.99,-0.95,-0.90,-1.10,-3.88,-3.91,-3.96
142.02,-3.03,0.95,-3.02,0.96,-0.95,-0.91,-1.09,-3.98,-3.97,-3.98
143.44,-3.10,0.91,-3.08,0.94,-0.94,-0.92,-1.09,-4.04,-4.02,-4.01
144.87,-3.13,0.92,-3.13,0.92,-0.93,-0.93,-1.09,-4.06,-4.06,-4.05
146.32,-3.14,0.95,-3.16,0.92,-0.93,-0.93,-1.09,-4.07,-4.09,-4.09
147.78,-3.20,0.92,-3.20,0.92,-0.93,-0.94,-1.08,-4.12,-4.13,-4.12
149.26,-3.26,0.91,-3.26,0.91,-0.93,-0.95,-1.08,-4.19,-4.19,-4.17
150.75,-3.32,0.91,-3.30,0.93,-0.96,-0.96,-1.08,-4.27,-4.26,-4.23
152.26,-3.33,0.97,-3.33,0.97,-0.99,-0.97,-1.08,-4.31,-4.31,-4.30
153.78,-3.33,1.04,-3.35,1.02,-1.02,-0.98,-1.08,-4.35,-4.36,-4.37
155.32,-3.38,1.06,-3.38,1.06,-1.05,-0.99,-1.07,-4.42,-4.42,-4.44
156.88,-3.43,1.09,-3.43,1.09,-1.06,-0.99,-1.07,-4.49,-4.49,-4.52
158.44,-3.50,1.10,-3.49,1.11,-1.07,-1.00,-1.07,-4.57,-4.56,-4.60
160.03,-3.56,1.12,-3.56,1.12,-1.07,-1.01,-1.07,-4.63,-4.63,-4.68
161.63,-3.62,1.13,-3.64,1.10,-1.07,-1.02,-1.07,-4.69,-4.71,-4.75
163.24,-3.74,1.07,-3.74,1.06,-1.07,-1.03,-1.08,-4.81,-4.82,-4.81
164.88,-3.84,1.02,-3.83,1.03,-1.08,-1.04,-1.08,-4.92,-4.91,-4.86
166.53,-3.91,1.00,-3.89,1.02,-1.09,-1.05,-1.08,-5.00,-4.98,-4.91
168.19,-3.88,1.07,-3.89,1.06,-1.11,-1.06,-1.09,-4.99,-5.00,-4.95
169.87,-3.86,1.13,-3.85,1.14,-1.14,-1.07,-1.09,-4.99,-4.98,-4.99
171.57,-3.78,1.23,-3.80,1.21,-1.16,-1.08,-1.10,-4.94,-4.96,-5.01
173.29,-3.77,1.25,-3.77,1.24,-1.20,-1.09,-1.10,-4.96,-4.97,-5.02
175.02,-3.77,1.26,-3.77,1.26,-1.23,-1.09,-1.11,-4.99,-4.99,-5.03
176.77,-3.78,1.26,-3.77,1.26,-1.25,-1.10,-1.12,-5.03,-5.03,-5.04
178.54,-3.78,1.27,-3.78,1.26,-1.27,-1.11,-1.13,-5.05,-5.04,-5.05
180.32,-3.77,1.27,-3.77,1.26,-1.28,-1.12,-1.14,-5.04,-5.05,-5.04
182.13,-3.77,1.26,-3.77,1.26,-1.28,-1.13,-1.15,-5.05,-5.05,-5.03
183.95,-3.76,1.28,-3.76,1.27,-1.29,-1.14,-1.16,-5.05,-5.05,-5.04
185.79,-3.75,1.29,-3.75,1.29,-1.30,-1.15,-1.17,-5.05,-5.05,-5.04
187.65,-3.73,1.33,-3.73,1.32,-1.32,-1.16,-1.18,-5.05,-5.06,-5.06
189.52,-3.72,1.35,-3.72,1.35,-1.35,-1.17,-1.20,-5.07,-5.07,-5.07
191.42,-3.71,1.38,-3.70,1.38,-1.39,-1.18,-1.21,-5.09,-5.09,-5.09
193.33,-3.69,1.42,-3.69,1.42,-1.42,-1.19,-1.23,-5.11,-5.11,-5.11
195.27,-3.67,1.46,-3.67,1.45,-1.46,-1.20,-1.24,-5.13,-5.13,-5.13
197.22,-3.66,1.49,-3.66,1.49,-1.49,-1.21,-1.26,-5.15,-5.15,-5.15
199.19,-3.65,1.52,-3.65,1.52,-1.51,-1.22,-1.28,-5.16,-5.16,-5.17
201.18,-3.64,1.55,-3.64,1.55,-1.53,-1.23,-1.29,-5.16,-5.16,-5.19
203.19,-3.64,1.57,-3.64,1.56,-1.53,-1.24,-1.31,-5.17,-5.17,-5.21
205.23,-3.66,1.57,-3.67,1.55,-1.53,-1.25,-1.33,-5.18,-5.20,-5.23
207.28,-3.72,1.52,-3.72,1.52,-1.52,-1.26,-1.35,-5.23,-5.24,-5.24
209.35,-3.79,1.47,-3.78,1.48,-1.50,-1.26,-1.37,-5.29,-5.28,-5.26
211.44,-3.83,1.46,-3.82,1.46,-1.49,-1.27,-1.38,-5.32,-5.31,-5.29
213.56,-3.84,1.46,-3.84,1.45,-1.48,-1.28,-1.40,-5.32,-5.32,-5.30
215.69,-3.85,1.46,-3.85,1.46,-1.47,-1.29,-1.42,-5.32,-5.32,-5.31
217.85,-3.85,1.47,-3.85,1.47,-1.46,-1.30,-1.44,-5.31,-5.31,-5.32
220.03,-3.85,1.48,-3.85,1.48,-1.47,-1.31,-1.46,-5.32,-5.32,-5.33
222.23,-3.86,1.50,-3.86,1.49,-1.47,-1.32,-1.47,-5.33,-5.33,-5.36
224.45,-3.86,1.49,-3.86,1.49,-1.48,-1.33,-1.49,-5.34,-5.34,-5.35
226.70,-3.86,1.49,-3.86,1.49,-1.49,-1.34,-1.51,-5.35,-5.35,-5.35
228.96,-3.85,1.49,-3.86,1.48,-1.50,-1.34,-1.52,-5.35,-5.35,-5.34
231.25,-3.85,1.48,-3.83,1.49,-1.50,-1.35,-1.53,-5.35,-5.33,-5.33
233.57,-3.82,1.50,-3.81,1.50,-1.49,-1.36,-1.55,-5.31,-5.31,-5.32
235.90,-3.77,1.54,-3.80,1.51,-1.49,-1.37,-1.56,-5.25,-5.28,-5.31
238.26,-3.80,1.50,-3.79,1.50,-1.48,-1.38,-1.57,-5.28,-5.27,-5.30
240.64,-3.79,1.48,-3.78,1.48,-1.48,-1.39,-1.58,-5.27,-5.26,-5.27
243.05,-3.78,1.46,-3.79,1.45,-1.49,-1.39,-1.58,-5.26,-5.27,-5.24
245.48,-3.76,1.46,-3.76,1.45,-1.49,-1.40,-1.59,-5.25,-5.25,-5.22
247.93,-3.75,1.44,-3.72,1.47,-1.49,-1.41,-1.59,-5.24,-5.21,-5.19
250.41,-3.65,1.52,-3.66,1.50,-1.49,-1.42,-1.59,-5.14,-5.15,-5.17
252.92,-3.59,1.55,-3.61,1.53,-1.50,-1.42,-1.59,-5.09,-5.11,-5.14
255.45,-3.58,1.54,-3.57,1.55,-1.51,-1.43,-1.59,-5.09,-5.08,-5.12
258.00,-3.57,1.53,-3.58,1.52,-1.52,-1.44,-1.59,-5.09,-5.10,-5.10
260.58,-3.57,1.51,-3.57,1.51,-1.53,-1.45,-1.59,-5.10,-5.10,-5.08
263.19,-3.57,1.48,-3.54,1.51,-1.53,-1.45,-1.58,-5.10,-5.07,-5.05
265.82,-3.48,1.55,-3.50,1.53,-1.53,-1.46,-1.57,-5.00,-5.02,-5.03
268.48,-3.45,1.56,-3.47,1.54,-1.51,-1.46,-1.56,-4.96,-4.98,-5.01
271.16,-3.46,1.52,-3.45,1.52,-1.50,-1.47,-1.55,-4.95,-4.95,-4.98
273.87,-3.48,1.48,-3.47,1.48,-1.47,-1.48,-1.54,-4.95,-4.94,-4.96
276.61,-3.48,1.45,-3.48,1.45,-1.45,-1.48,-1.53,-4.93,-4.93,-4.93
279.38,-3.48,1.42,-3.48,1.42,-1.42,-1.49,-1.52,-4.90,-4.90,-4.90
282.17,-3.48,1.40,-3.47,1.40,-1.40,-1.49,-1.51,-4.88,-4.87,-4.88
284.99,-3.47,1.37,-3.47,1.37,-1.38,-1.50,-1.49,-4.84,-4.85,-4.84
287.84,-3.46,1.36,-3.48,1.34,-1.36,-1.50,-1.48,-4.82,-4.84,-4.82
290.72,-3.47,1.32,-3.46,1.32,-1.35,-1.51,-1.46,-4.82,-4.81,-4.79
293.63,-3.46,1.30,-3.42,1.33,-1.35,-1.51,-1.45,-4.81,-4.77,-4.76
296.57,-3.35,1.38,-3.37,1.35,-1.35,-1.52,-1.43,-4.70,-4.72,-4.73
299.53,-3.31,1.39,-3.32,1.37,-1.34,-1.52,-1.42,-4.65,-4.67,-4.70
302.53,-3.30,1.38,-3.29,1.38,-1.34,-1.53,-1.40,-4.64,-4.63,-4.68
305.55,-3.29,1.35,-3.29,1.35,-1.34,-1.53,-1.39,-4.63,-4.62,-4.64
308.61,-3.28,1.34,-3.28,1.33,-1.34,-1.54,-1.37,-4.62,-4.62,-4.62
311.69,-3.28,1.31,-3.28,1.31,-1.34,-1.54,-1.36,-4.62,-4.62,-4.59
314.81,-3.27,1.30,-3.26,1.30,-1.34,-1.54,-1.34,-4.60,-4.60,-4.57
317.96,-3.25,1.30,-3.23,1.32,-1.33,-1.55,-1.33,-4.58,-4.56,-4.55
321.14,-3.18,1.36,-3.19,1.34,-1.33,-1.55,-1.32,-4.51,-4.52,-4.54
324.35,-3.15,1.37,-3.17,1.35,-1.33,-1.55,-1.31,-4.48,-4.50,-4.52
327.59,-3.17,1.34,-3.16,1.35,-1.33,-1.55,-1.29,-4.50,-4.49,-4.51
330.87,-3.17,1.33,-3.17,1.33,-1.33,-1.56,-1.28,-4.49,-4.49,-4.50
334.18,-3.17,1.31,-3.17,1.31,-1.32,-1.56,-1.27,-4.48,-4.49,-4.48
337.52,-3.18,1.29,-3.17,1.30,-1.29,-1.56,-1.26,-4.47,-4.46,-4.47
340.90,-3.18,1.28,-3.18,1.28,-1.26,-1.56,-1.26,-4.44,-4.44,-4.46
344.30,-3.18,1.27,-3.21,1.24,-1.23,-1.56,-1.25,-4.41,-4.44,-4.45
347.75,-3.26,1.19,-3.24,1.20,-1.19,-1.57,-1.24,-4.45,-4.43,-4.45
351.23,-3.31,1.13,-3.28,1.16,-1.16,-1.57,-1.24,-4.47,-4.44,-4.44
354.74,-3.29,1.16,-3.33,1.11,-1.12,-1.57,-1.23,-4.41,-4.45,-4.45
358.28,-3.35,1.09,-3.36,1.08,-1.09,-1.57,-1.23,-4.44,-4.45,-4.44
361.87,-3.41,1.03,-3.37,1.06,-1.07,-1.57,-1.23,-4.48,-4.44,-4.44
365.49,-3.38,1.05,-3.38,1.05,-1.05,-1.57,-1.23,-4.43,-4.43,-4.43
369.14,-3.35,1.09,-3.38,1.05,-1.06,-1.57,-1.22,-4.40,-4.44,-4.44
372.83,-3.37,1.07,-3.37,1.06,-1.07,-1.57,-1.22,-4.44,-4.44,-4.44
376.56,-3.40,1.05,-3.36,1.08,-1.10,-1.57,-1.23,-4.50,-4.46,-4.45
380.33,-3.32,1.12,-3.32,1.12,-1.14,-1.57,-1.23,-4.46,-4.47,-4.44
384.13,-3.25,1.19,-3.26,1.18,-1.19,-1.57,-1.23,-4.44,-4.45,-4.44
387.97,-3.18,1.27,-3.19,1.26,-1.25,-1.57,-1.23,-4.42,-4.43,-4.45
391.85,-3.14,1.32,-3.12,1.33,-1.30,-1.57,-1.24,-4.44,-4.43,-4.46
395.77,-3.07,1.38,-3.07,1.38,-1.36,-1.57,-1.24,-4.43,-4.44,-4.45
399.73,-3.02,1.44,-3.03,1.42,-1.42,-1.57,-1.25,-4.44,-4.45,-4.46
403.72,-3.01,1.45,-3.00,1.46,-1.46,-1.57,-1.26,-4.47,-4.46,-4.46
407.76,-2.98,1.50,-2.97,1.50,-1.50,-1.56,-1.27,-4.48,-4.46,-4.48
411.84,-2.93,1.55,-2.94,1.53,-1.52,-1.56,-1.27,-4.45,-4.46,-4.48
415.96,-2.92,1.56,-2.92,1.56,-1.53,-1.56,-1.28,-4.45,-4.45,-4.48
420.12,-2.92,1.56,-2.91,1.57,-1.54,-1.56,-1.29,-4.46,-4.46,-4.48
424.32,-2.91,1.57,-2.93,1.55,-1.56,-1.56,-1.30,-4.47,-4.49,-4.48
428.56,-2.93,1.54,-2.93,1.54,-1.57,-1.55,-1.31,-4.50,-4.50,-4.47
432.85,-2.94,1.52,-2.91,1.55,-1.59,-1.55,-1.32,-4.53,-4.50,-4.46
437.18,-2.85,1.60,-2.85,1.59,-1.61,-1.55,-1.33,-4.46,-4.46,-4.45
441.55,-2.75,1.66,-2.77,1.64,-1.63,-1.55,-1.35,-4.38,-4.40,-4.41
445.96,-2.68,1.70,-2.68,1.69,-1.67,-1.55,-1.36,-4.34,-4.35,-4.38
450.42,-2.63,1.72,-2.63,1.71,-1.71,-1.54,-1.37,-4.33,-4.33,-4.35
454.93,-2.57,1.73,-2.57,1.73,-1.75,-1.54,-1.38,-4.32,-4.32,-4.30
459.48,-2.51,1.75,-2.49,1.76,-1.79,-1.54,-1.39,-4.30,-4.28,-4.26
464.07,-2.39,1.82,-2.40,1.81,-1.82,-1.54,-1.41,-4.21,-4.22,-4.21
