frequency,raw,error,smoothed,error_smoothed,equalization,parametric_eq,fixed_band_eq,equalized_raw,equalized_smoothed,target
20.00,-22.10,-26.86,-22.10,-26.86,26.86,27.13,12.53,4.76,4.76,4.76
20.20,-21.96,-26.76,-21.96,-26.76,26.77,26.96,12.73,4.81,4.80,4.80
20.40,-21.83,-26.67,-21.82,-26.67,26.67,26.80,12.93,4.84,4.84,4.84
20.61,-21.69,-26.56,-21.69,-26.57,26.57,26.64,13.13,4.88,4.88,4.87
20.81,-21.55,-26.46,-21.55,-26.47,26.46,26.48,13.34,4.92,4.91,4.91
21.02,-21.42,-26.37,-21.41,-26.36,26.35,26.32,13.55,4.94,4.94,4.95
21.23,-21.28,-26.25,-21.28,-26.25,26.24,26.17,13.77,4.97,4.97,4.97
21.44,-21.14,-26.13,-21.14,-26.13,26.13,26.02,13.99,4.99,4.99,4.99
21.66,-21.00,-26.01,-21.00,-26.01,26.01,25.88,14.22,5.01,5.01,5.01
21.87,-20.86,-25.88,-20.86,-25.88,25.89,25.73,14.46,5.03,5.03,5.02
22.09,-20.72,-25.76,-20.72,-25.76,25.76,25.59,14.70,5.04,5.04,5.04
22.31,-20.58,-25.63,-20.58,-25.63,25.63,25.45,14.95,5.05,5.05,5.05
22.54,-20.44,-25.50,-20.44,-25.50,25.50,25.31,15.20,5.06,5.06,5.06
22.76,-20.30,-25.37,-20.30,-25.37,25.36,25.18,15.46,5.07,5.07,5.07
22.99,-20.16,-25.23,-20.15,-25.23,25.23,25.04,15.73,5.07,5.08,5.07
23.22,-20.01,-25.09,-20.01,-25.09,25.10,24.91,16.01,5.09,5.09,5.08
23.45,-19.87,-24.96,-19.87,-24.96,24.97,24.78,16.30,5.10,5.10,5.09
23.69,-19.73,-24.83,-19.73,-24.83,24.83,24.65,16.59,5.10,5.10,5.10
23.92,-19.59,-24.70,-19.58,-24.70,24.70,24.52,16.90,5.11,5.11,5.11
24.16,-19.44,-24.57,-19.44,-24.57,24.56,24.39,17.21,5.13,5.12,5.13
24.40,-19.29,-24.44,-19.29,-24.43,24.43,24.26,17.54,5.14,5.14,5.15
24.65,-19.15,-24.29,-19.14,-24.29,24.29,24.14,17.87,5.14,5.15,5.14
24.89,-19.00,-24.15,-19.00,-24.15,24.16,24.01,18.22,5.16,5.16,5.15
25.14,-18.86,-24.02,-18.85,-24.02,24.02,23.88,18.59,5.16,5.17,5.16
25.39,-18.71,-23.88,-18.71,-23.88,23.88,23.76,18.96,5.18,5.18,5.17
25.65,-18.56,-23.75,-18.56,-23.74,23.74,23.63,19.35,5.18,5.18,5.19
25.91,-18.41,-23.60,-18.41,-23.61,23.61,23.51,19.76,5.20,5.19,5.19
26.16,-18.27,-23.47,-18.27,-23.47,23.47,23.38,20.18,5.20,5.21,5.20
26.43,-18.12,-23.33,-18.12,-23.33,23.33,23.26,20.62,5.21,5.22,5.21
26.69,-17.97,-23.19,-17.97,-23.20,23.20,23.13,21.08,5.23,5.23,5.22
26.96,-17.82,-23.06,-17.82,-23.06,23.06,23.01,21.57,5.24,5.23,5.24
27.23,-17.68,-22.93,-17.68,-22.92,22.92,22.88,22.07,5.24,5.24,5.25
27.50,-17.53,-22.78,-17.53,-22.78,22.78,22.75,22.60,5.25,5.25,5.25
27.77,-17.38,-22.63,-17.38,-22.64,22.64,22.63,23.15,5.26,5.26,5.25
28.05,-17.23,-22.50,-17.23,-22.49,22.50,22.50,23.72,5.27,5.27,5.27
28.33,-17.08,-22.35,-17.08,-22.35,22.35,22.37,24.32,5.28,5.28,5.27
28.62,-16.93,-22.21,-16.93,-22.21,22.21,22.24,24.95,5.28,5.28,5.28
28.90,-16.78,-22.07,-16.78,-22.07,22.07,22.12,25.59,5.29,5.29,5.29
29.19,-16.63,-21.92,-16.63,-21.93,21.93,21.99,26.25,5.30,5.30,5.29
29.48,-16.48,-21.80,-16.48,-21.79,21.79,21.85,26.91,5.31,5.31,5.32
29.78,-16.33,-21.64,-16.33,-21.64,21.65,21.72,27.56,5.32,5.32,5.31
30.08,-16.18,-21.50,-16.19,-21.51,21.51,21.59,28.17,5.33,5.33,5.32
30.38,-16.05,-21.37,-16.05,-21.37,21.38,21.46,28.71,5.33,5.33,5.32
30.68,-15.91,-21.25,-15.91,-21.24,21.24,21.32,29.14,5.33,5.33,5.34
30.99,-15.77,-21.11,-15.77,-21.11,21.10,21.19,29.42,5.33,5.33,5.34
31.30,-15.62,-20.96,-15.62,-20.97,20.96,21.05,29.51,5.34,5.34,5.34
31.61,-15.47,-20.82,-15.47,-20.82,20.82,20.92,29.41,5.35,5.35,5.35
31.93,-15.32,-20.68,-15.32,-20.68,20.68,20.78,29.13,5.36,5.36,5.36
32.24,-15.18,-20.54,-15.17,-20.54,20.54,20.64,28.70,5.37,5.37,5.36
32.57,-15.03,-20.41,-15.03,-20.40,20.40,20.50,28.16,5.37,5.38,5.38
32.89,-14.88,-20.26,-14.88,-20.26,20.26,20.36,27.57,5.39,5.39,5.38
33.22,-14.73,-20.12,-14.73,-20.13,20.13,20.22,26.93,5.40,5.39,5.39
33.55,-14.59,-19.99,-14.59,-19.99,19.99,20.08,26.29,5.40,5.40,5.40
33.89,-14.45,-19.86,-14.44,-19.85,19.85,19.94,25.66,5.40,5.41,5.41
34.23,-14.30,-19.71,-14.30,-19.71,19.71,19.80,25.04,5.42,5.41,5.41
34.57,-14.16,-19.58,-14.16,-19.58,19.58,19.65,24.44,5.42,5.42,5.42
34.92,-14.01,-19.43,-14.01,-19.44,19.44,19.51,23.86,5.43,5.43,5.42
35.27,-13.88,-19.31,-13.88,-19.30,19.30,19.36,23.31,5.43,5.43,5.43
35.62,-13.74,-19.17,-13.74,-19.17,19.17,19.22,22.78,5.43,5.43,5.43
35.97,-13.60,-19.03,-13.60,-19.03,19.03,19.07,22.28,5.44,5.43,5.43
36.33,-13.46,-18.90,-13.46,-18.89,18.89,18.92,21.80,5.44,5.44,5.44
36.70,-13.32,-18.75,-13.32,-18.75,18.76,18.77,21.34,5.44,5.44,5.43
37.06,-13.18,-18.62,-13.18,-18.62,18.62,18.63,20.91,5.45,5.44,5.44
37.43,-13.04,-18.48,-13.04,-18.48,18.48,18.48,20.49,5.45,5.44,5.44
37.81,-12.91,-18.35,-12.90,-18.35,18.34,18.33,20.09,5.43,5.44,5.44
38.19,-12.77,-18.21,-12.77,-18.21,18.20,18.18,19.71,5.43,5.43,5.44
38.57,-12.63,-18.06,-12.63,-18.06,18.06,18.03,19.35,5.43,5.43,5.43
38.95,-12.49,-17.92,-12.48,-17.91,17.91,17.88,19.00,5.43,5.43,5.43
39.34,-12.34,-17.76,-12.34,-17.76,17.76,17.73,18.66,5.43,5.43,5.42
39.74,-12.19,-17.61,-12.19,-17.61,17.61,17.57,18.34,5.43,5.43,5.42
40.14,-12.04,-17.46,-12.04,-17.46,17.46,17.42,18.03,5.43,5.42,5.42
40.54,-11.90,-17.32,-11.90,-17.31,17.32,17.27,17.74,5.42,5.42,5.42
40.94,-11.75,-17.16,-11.75,-17.17,17.17,17.12,17.45,5.42,5.42,5.41
41.35,-11.61,-17.02,-11.61,-17.02,17.02,16.97,17.17,5.41,5.41,5.41
41.76,-11.46,-16.87,-11.46,-16.87,16.87,16.81,16.91,5.42,5.41,5.41
42.18,-11.32,-16.73,-11.31,-16.73,16.73,16.66,16.65,5.41,5.41,5.41
42.60,-11.17,-16.58,-11.17,-16.58,16.58,16.51,16.41,5.42,5.41,5.41
43.03,-11.03,-16.44,-11.03,-16.44,16.44,16.36,16.17,5.41,5.41,5.41
43.46,-10.89,-16.30,-10.89,-16.29,16.29,16.21,15.94,5.41,5.41,5.41
43.90,-10.75,-16.14,-10.75,-16.15,16.15,16.05,15.72,5.40,5.40,5.39
44.33,-10.62,-16.01,-10.61,-16.00,16.01,15.90,15.50,5.39,5.39,5.39
44.78,-10.48,-15.86,-10.48,-15.86,15.86,15.75,15.29,5.38,5.38,5.38
45.23,-10.34,-15.72,-10.34,-15.72,15.72,15.60,15.09,5.38,5.38,5.38
45.68,-10.20,-15.58,-10.20,-15.58,15.58,15.45,14.90,5.38,5.38,5.38
46.13,-10.06,-15.43,-10.05,-15.43,15.43,15.30,14.71,5.38,5.38,5.37
46.60,-9.91,-15.29,-9.91,-15.28,15.29,15.15,14.53,5.38,5.38,5.38
47.06,-9.77,-15.14,-9.77,-15.14,15.15,15.00,14.35,5.38,5.38,5.37
47.53,-9.63,-14.99,-9.63,-15.00,15.00,14.85,14.18,5.37,5.37,5.36
48.01,-9.50,-14.87,-9.49,-14.86,14.85,14.70,14.01,5.35,5.36,5.37
48.49,-9.36,-14.71,-9.36,-14.71,14.70,14.55,13.85,5.34,5.34,5.35
48.97,-9.22,-14.55,-9.22,-14.55,14.55,14.40,13.69,5.33,5.33,5.33
49.46,-9.08,-14.40,-9.07,-14.39,14.40,14.25,13.54,5.32,5.32,5.32
49.96,-8.93,-14.23,-8.93,-14.24,14.24,14.10,13.39,5.31,5.31,5.30
50.46,-8.79,-14.09,-8.79,-14.08,14.08,13.95,13.25,5.29,5.29,5.30
50.96,-8.65,-13.93,-8.65,-13.92,13.92,13.81,13.11,5.28,5.28,5.28
51.47,-8.51,-13.76,-8.51,-13.77,13.77,13.66,12.97,5.26,5.26,5.25
51.99,-8.36,-13.60,-8.36,-13.60,13.61,13.52,12.84,5.25,5.25,5.24
52.51,-8.23,-13.46,-8.22,-13.45,13.46,13.37,12.71,5.23,5.24,5.23
53.03,-8.09,-13.30,-8.09,-13.31,13.31,13.23,12.58,5.22,5.22,5.21
53.56,-7.97,-13.17,-7.97,-13.17,13.16,13.08,12.46,5.19,5.19,5.20
54.10,-7.85,-13.02,-7.84,-13.02,13.01,12.94,12.33,5.16,5.17,5.17
54.64,-7.71,-12.87,-7.71,-12.87,12.86,12.80,12.21,5.16,5.15,5.16
55.18,-7.58,-12.71,-7.58,-12.72,12.72,12.66,12.09,5.14,5.13,5.13
55.74,-7.46,-12.56,-7.46,-12.57,12.57,12.51,11.97,5.11,5.12,5.10
56.29,-7.34,-12.44,-7.33,-12.42,12.43,12.37,11.86,5.09,5.09,5.10
56.86,-7.21,-12.28,-7.21,-12.28,12.28,12.23,11.74,5.07,5.07,5.07
57.42,-7.09,-12.13,-7.09,-12.14,12.14,12.09,11.63,5.05,5.05,5.04
58.00,-6.98,-12.00,-6.97,-11.99,12.00,11.96,11.51,5.02,5.03,5.02
58.58,-6.86,-11.86,-6.86,-11.86,11.86,11.82,11.40,5.01,5.01,5.00
59.16,-6.74,-11.72,-6.74,-11.72,11.73,11.68,11.28,4.99,4.98,4.98
59.76,-6.63,-11.59,-6.63,-11.59,11.59,11.55,11.17,4.96,4.96,4.96
60.35,-6.53,-11.46,-6.52,-11.46,11.45,11.41,11.05,4.92,4.92,4.93
60.96,-6.42,-11.32,-6.42,-11.31,11.31,11.28,10.93,4.89,4.89,4.90
61.57,-6.31,-11.16,-6.31,-11.17,11.17,11.14,10.82,4.86,4.86,4.85
62.18,-6.20,-11.01,-6.20,-11.02,11.02,11.01,10.70,4.82,4.82,4.81
62.80,-6.09,-10.88,-6.09,-10.87,10.88,10.88,10.58,4.79,4.78,4.79
63.43,-5.99,-10.73,-5.98,-10.73,10.73,10.75,10.46,4.74,4.74,4.74
64.07,-5.88,-10.58,-5.87,-10.58,10.58,10.62,10.34,4.70,4.71,4.70
64.71,-5.76,-10.43,-5.76,-10.43,10.43,10.49,10.22,4.67,4.67,4.67
65.35,-5.65,-10.28,-5.65,-10.28,10.28,10.36,10.10,4.64,4.63,4.63
66.01,-5.54,-10.13,-5.54,-10.13,10.13,10.23,9.98,4.59,4.60,4.59
66.67,-5.43,-9.99,-5.42,-9.98,9.98,10.11,9.85,4.55,4.56,4.56
67.33,-5.31,-9.83,-5.31,-9.83,9.83,9.98,9.73,4.52,4.52,4.52
68.01,-5.20,-9.68,-5.20,-9.68,9.68,9.86,9.60,4.48,4.48,4.48
68.69,-5.09,-9.53,-5.09,-9.53,9.53,9.73,9.48,4.44,4.44,4.44
69.37,-4.98,-9.38,-4.97,-9.38,9.38,9.61,9.36,4.40,4.40,4.40
70.07,-4.86,-9.22,-4.86,-9.22,9.22,9.49,9.23,4.37,4.36,4.36
70.77,-4.75,-9.07,-4.75,-9.07,9.07,9.37,9.11,4.33,4.32,4.32
71.48,-4.64,-8.93,-4.64,-8.92,8.92,9.25,8.98,4.28,4.29,4.29
72.19,-4.53,-8.77,-4.53,-8.77,8.77,9.13,8.86,4.25,4.25,4.24
72.91,-4.42,-8.63,-4.42,-8.63,8.63,9.01,8.74,4.21,4.21,4.21
73.64,-4.31,-8.48,-4.31,-8.48,8.48,8.89,8.61,4.17,4.18,4.17
74.38,-4.20,-8.34,-4.20,-8.34,8.34,8.78,8.49,4.14,4.14,4.14
75.12,-4.09,-8.19,-4.09,-8.20,8.20,8.66,8.37,4.11,4.11,4.10
75.87,-4.00,-8.07,-3.99,-8.07,8.07,8.55,8.25,4.07,4.08,4.07
76.63,-3.90,-7.94,-3.90,-7.94,7.94,8.43,8.14,4.04,4.04,4.04
77.40,-3.80,-7.81,-3.80,-7.81,7.81,8.32,8.02,4.02,4.01,4.01
78.17,-3.71,-7.69,-3.71,-7.69,7.69,8.21,7.91,3.98,3.98,3.98
78.95,-3.62,-7.57,-3.62,-7.58,7.57,8.10,7.80,3.96,3.95,3.95
79.74,-3.54,-7.47,-3.53,-7.46,7.45,7.99,7.68,3.92,3.92,3.93
80.54,-3.44,-7.35,-3.44,-7.35,7.34,7.88,7.58,3.90,3.90,3.91
81.35,-3.35,-7.23,-3.35,-7.23,7.23,7.77,7.47,3.88,3.88,3.88
82.16,-3.26,-7.11,-3.26,-7.12,7.12,7.67,7.37,3.86,3.86,3.85
82.98,-3.17,-7.01,-3.17,-7.01,7.01,7.56,7.26,3.85,3.84,3.84
83.81,-3.10,-6.91,-3.09,-6.90,6.91,7.46,7.16,3.82,3.82,3.81
84.65,-3.02,-6.80,-3.02,-6.81,6.81,7.35,7.06,3.80,3.79,3.78
85.50,-2.95,-6.72,-2.95,-6.72,6.72,7.25,6.97,3.77,3.77,3.77
86.35,-2.89,-6.64,-2.88,-6.63,6.63,7.15,6.87,3.74,3.75,3.75
87.22,-2.82,-6.55,-2.82,-6.55,6.54,7.05,6.78,3.72,3.73,3.73
88.09,-2.75,-6.46,-2.75,-6.46,6.46,6.95,6.69,3.71,3.71,3.71
88.97,-2.68,-6.37,-2.68,-6.38,6.37,6.85,6.60,3.70,3.69,3.69
89.86,-2.62,-6.30,-2.62,-6.29,6.29,6.75,6.52,3.68,3.68,3.68
90.76,-2.56,-6.21,-2.56,-6.21,6.22,6.65,6.44,3.66,3.66,3.65
91.66,-2.51,-6.14,-2.51,-6.14,6.14,6.55,6.36,3.64,3.64,3.63
92.58,-2.46,-6.07,-2.45,-6.07,6.07,6.46,6.28,3.61,3.62,3.61
93.51,-2.40,-6.00,-2.40,-6.00,6.00,6.36,6.20,3.61,3.60,3.60
94.44,-2.36,-5.94,-2.36,-5.94,5.94,6.27,6.12,3.58,3.58,3.58
95.39,-2.33,-5.89,-2.32,-5.88,5.88,6.18,6.05,3.55,3.56,3.56
96.34,-2.30,-5.83,-2.29,-5.83,5.83,6.09,5.98,3.53,3.53,3.53
97.30,-2.26,-5.76,-2.27,-5.77,5.77,6.00,5.91,3.52,3.51,3.50
98.28,-2.25,-5.72,-2.24,-5.72,5.72,5.91,5.84,3.48,3.48,3.47
99.26,-2.23,-5.68,-2.23,-5.68,5.68,5.82,5.78,3.45,3.45,3.45
100.25,-2.22,-5.64,-2.22,-5.64,5.64,5.73,5.71,3.42,3.42,3.42
101.25,-2.21,-5.60,-2.21,-5.60,5.60,5.64,5.65,3.39,3.39,3.39
102.27,-2.20,-5.55,-2.20,-5.56,5.56,5.56,5.59,3.36,3.36,3.35
103.29,-2.20,-5.52,-2.20,-5.52,5.53,5.47,5.53,3.33,3.33,3.32
104.32,-2.20,-5.49,-2.20,-5.49,5.49,5.39,5.47,3.29,3.29,3.29
105.37,-2.21,-5.46,-2.21,-5.46,5.45,5.30,5.41,3.25,3.25,3.25
106.42,-2.22,-5.42,-2.21,-5.42,5.42,5.22,5.35,3.20,3.20,3.20
107.48,-2.22,-5.39,-2.22,-5.38,5.37,5.14,5.30,3.16,3.16,3.17
108.56,-2.22,-5.33,-2.22,-5.33,5.33,5.06,5.24,3.11,3.11,3.11
109.64,-2.22,-5.28,-2.22,-5.28,5.28,4.98,5.19,3.06,3.06,3.06
110.74,-2.22,-5.23,-2.22,-5.23,5.23,4.90,5.13,3.01,3.01,3.01
111.85,-2.22,-5.18,-2.22,-5.17,5.17,4.82,5.08,2.96,2.96,2.96
112.97,-2.22,-5.11,-2.22,-5.12,5.11,4.75,5.02,2.90,2.90,2.89
114.10,-2.22,-5.06,-2.22,-5.06,5.05,4.67,4.97,2.84,2.84,2.84
115.24,-2.22,-5.00,-2.22,-5.00,4.99,4.59,4.91,2.78,2.78,2.78
116.39,-2.22,-4.93,-2.22,-4.93,4.94,4.52,4.86,2.72,2.72,2.71
117.55,-2.22,-4.87,-2.22,-4.87,4.88,4.44,4.80,2.66,2.66,2.65
118.73,-2.22,-4.81,-2.22,-4.81,4.83,4.37,4.74,2.61,2.61,2.59
119.92,-2.23,-4.77,-2.23,-4.77,4.78,4.30,4.69,2.55,2.55,2.54
121.12,-2.24,-4.72,-2.24,-4.72,4.72,4.23,4.63,2.49,2.49,2.48
122.33,-2.25,-4.68,-2.25,-4.68,4.67,4.16,4.57,2.42,2.43,2.43
123.55,-2.25,-4.63,-2.24,-4.63,4.62,4.09,4.51,2.37,2.37,2.38
124.79,-2.24,-4.57,-2.24,-4.57,4.56,4.02,4.45,2.32,2.32,2.33
126.03,-2.22,-4.50,-2.22,-4.50,4.49,3.95,4.39,2.28,2.27,2.28
127.29,-2.21,-4.44,-2.20,-4.43,4.43,3.88,4.33,2.22,2.22,2.23
128.57,-2.18,-4.35,-2.17,-4.35,4.35,3.82,4.26,2.17,2.18,2.17
129.85,-2.14,-4.27,-2.14,-4.27,4.28,3.75,4.20,2.14,2.13,2.13
131.15,-2.11,-4.19,-2.11,-4.19,4.20,3.69,4.13,2.09,2.09,2.08
132.46,-2.08,-4.12,-2.08,-4.12,4.12,3.62,4.06,2.05,2.05,2.04
133.79,-2.05,-4.05,-2.04,-4.05,4.05,3.56,4.00,2.00,2.00,2.00
135.12,-2.01,-3.97,-2.01,-3.98,3.98,3.50,3.93,1.97,1.96,1.96
136.48,-1.99,-3.91,-1.98,-3.91,3.91,3.43,3.86,1.92,1.92,1.92
137.84,-1.96,-3.84,-1.96,-3.84,3.84,3.37,3.79,1.89,1.88,1.88
139.22,-1.95,-3.78,-1.94,-3.78,3.78,3.31,3.72,1.83,1.84,1.83
140.61,-1.93,-3.72,-1.92,-3.72,3.72,3.25,3.65,1.79,1.80,1.79
142.02,-1.89,-3.66,-1.90,-3.66,3.66,3.19,3.57,1.78,1.77,1.77
143.44,-1.88,-3.61,-1.87,-3.60,3.61,3.14,3.50,1.73,1.73,1.73
144.87,-1.85,-3.54,-1.85,-3.55,3.55,3.08,3.43,1.70,1.70,1.69
146.32,-1.84,-3.49,-1.83,-3.49,3.49,3.02,3.36,1.65,1.65,1.65
147.78,-1.81,-3.43,-1.81,-3.43,3.42,2.96,3.29,1.61,1.61,1.62
149.26,-1.79,-3.38,-1.78,-3.36,3.35,2.91,3.22,1.57,1.57,1.59
150.75,-1.75,-3.28,-1.75,-3.29,3.28,2.85,3.15,1.54,1.53,1.53
152.26,-1.72,-3.21,-1.72,-3.21,3.21,2.80,3.08,1.49,1.49,1.49
153.78,-1.68,-3.14,-1.68,-3.13,3.13,2.75,3.01,1.46,1.46,1.46
155.32,-1.65,-3.05,-1.65,-3.06,3.06,2.69,2.94,1.41,1.41,1.40
156.88,-1.61,-2.98,-1.61,-2.98,2.98,2.64,2.87,1.38,1.37,1.37
158.44,-1.60,-2.92,-1.59,-2.91,2.92,2.59,2.80,1.32,1.32,1.32
160.03,-1.57,-2.84,-1.57,-2.84,2.85,2.54,2.73,1.28,1.28,1.27
161.63,-1.56,-2.78,-1.56,-2.78,2.79,2.49,2.66,1.24,1.23,1.22
163.24,-1.55,-2.73,-1.55,-2.73,2.74,2.43,2.60,1.19,1.19,1.18
164.88,-1.56,-2.70,-1.55,-2.69,2.69,2.39,2.53,1.14,1.14,1.14
166.53,-1.56,-2.65,-1.56,-2.65,2.65,2.34,2.47,1.09,1.09,1.09
168.19,-1.57,-2.61,-1.57,-2.61,2.61,2.29,2.40,1.04,1.04,1.04
169.87,-1.58,-2.57,-1.57,-2.57,2.57,2.24,2.34,0.99,1.00,0.99
171.57,-1.58,-2.53,-1.58,-2.53,2.53,2.19,2.28,0.95,0.95,0.95
173.29,-1.59,-2.48,-1.59,-2.48,2.48,2.14,2.21,0.90,0.89,0.89
175.02,-1.60,-2.44,-1.59,-2.44,2.43,2.10,2.15,0.83,0.84,0.84
176.77,-1.60,-2.38,-1.60,-2.38,2.38,2.05,2.09,0.78,0.78,0.78
178.54,-1.59,-2.32,-1.59,-2.32,2.31,2.01,2.03,0.72,0.72,0.73
180.32,-1.58,-2.25,-1.58,-2.25,2.24,1.96,1.98,0.66,0.67,0.67
182.13,-1.56,-2.18,-1.55,-2.17,2.17,1.92,1.92,0.61,0.62,0.62
183.95,-1.52,-2.08,-1.52,-2.09,2.09,1.87,1.86,0.57,0.56,0.56
185.79,-1.49,-2.00,-1.49,-2.00,2.00,1.83,1.81,0.52,0.51,0.51
187.65,-1.47,-1.91,-1.46,-1.91,1.92,1.79,1.75,0.45,0.45,0.44
189.52,-1.44,-1.83,-1.43,-1.83,1.83,1.74,1.70,0.39,0.39,0.39
191.42,-1.40,-1.74,-1.40,-1.74,1.74,1.70,1.64,0.34,0.34,0.34
193.33,-1.37,-1.66,-1.37,-1.66,1.65,1.66,1.59,0.29,0.29,0.29
195.27,-1.34,-1.58,-1.34,-1.57,1.57,1.62,1.54,0.23,0.23,0.24
197.22,-1.31,-1.49,-1.31,-1.49,1.49,1.57,1.48,0.18,0.19,0.18
199.19,-1.28,-1.41,-1.28,-1.41,1.42,1.53,1.43,0.14,0.14,0.13
201.18,-1.26,-1.34,-1.26,-1.34,1.36,1.49,1.38,0.10,0.10,0.08
203.19,-1.24,-1.29,-1.24,-1.29,1.30,1.45,1.33,0.06,0.06,0.05
205.23,-1.24,-1.23,-1.24,-1.24,1.25,1.41,1.28,0.01,0.01,-0.01
207.28,-1.24,-1.21,-1.24,-1.20,1.20,1.37,1.23,-0.04,-0.04,-0.03
209.35,-1.25,-1.16,-1.25,-1.16,1.16,1.33,1.19,-0.09,-0.09,-0.09
211.44,-1.27,-1.13,-1.26,-1.13,1.12,1.29,1.14,-0.15,-0.14,-0.14
213.56,-1.26,-1.08,-1.26,-1.09,1.08,1.25,1.09,-0.18,-0.18,-0.18
215.69,-1.25,-1.05,-1.25,-1.04,1.03,1.21,1.04,-0.22,-0.22,-0.20
217.85,-1.23,-0.99,-1.23,-0.99,0.98,1.18,1.00,-0.25,-0.25,-0.24
220.03,-1.21,-0.93,-1.21,-0.93,0.93,1.14,0.95,-0.28,-0.28,-0.28
222.23,-1.18,-0.87,-1.18,-0.87,0.87,1.10,0.91,-0.31,-0.31,-0.31
224.45,-1.15,-0.82,-1.14,-0.81,0.81,1.06,0.86,-0.34,-0.33,-0.33
226.70,-1.11,-0.75,-1.11,-0.75,0.75,1.02,0.82,-0.35,-0.35,-0.36
228.96,-1.07,-0.68,-1.07,-0.69,0.70,0.98,0.77,-0.37,-0.38,-0.39
231.25,-1.05,-0.65,-1.04,-0.64,0.65,0.95,0.73,-0.40,-0.39,-0.40
233.57,-1.02,-0.60,-1.02,-0.60,0.60,0.91,0.69,-0.41,-0.41,-0.42
235.90,-0.99,-0.56,-0.99,-0.56,0.56,0.87,0.65,-0.42,-0.43,-0.43
238.26,-0.97,-0.53,-0.97,-0.53,0.53,0.83,0.60,-0.44,-0.43,-0.44
240.64,-0.95,-0.50,-0.95,-0.51,0.51,0.80,0.56,-0.44,-0.45,-0.45
243.05,-0.94,-0.49,-0.94,-0.48,0.48,0.76,0.52,-0.45,-0.45,-0.45
245.48,-0.93,-0.47,-0.92,-0.46,0.47,0.72,0.48,-0.46,-0.45,-0.46
247.93,-0.90,-0.44,-0.91,-0.45,0.45,0.68,0.44,-0.44,-0.45,-0.46
250.41,-0.89,-0.43,-0.89,-0.43,0.44,0.64,0.40,-0.45,-0.45,-0.46
252.92,-0.88,-0.43,-0.87,-0.43,0.42,0.61,0.36,-0.45,-0.45,-0.45
255.45,-0.86,-0.42,-0.86,-0.42,0.41,0.57,0.32,-0.45,-0.45,-0.44
258.00,-0.83,-0.40,-0.83,-0.40,0.38,0.53,0.28,-0.44,-0.44,-0.43
260.58,-0.79,-0.36,-0.79,-0.36,0.36,0.49,0.24,-0.43,-0.43,-0.43
263.19,-0.75,-0.33,-0.74,-0.33,0.33,0.45,0.20,-0.42,-0.42,-0.42
265.82,-0.69,-0.28,-0.69,-0.29,0.29,0.42,0.17,-0.40,-0.41,-0.41
268.48,-0.64,-0.25,-0.63,-0.24,0.24,0.38,0.13,-0.39,-0.39,-0.39
271.16,-0.58,-0.21,-0.57,-0.20,0.20,0.34,0.09,-0.38,-0.37,-0.37
273.87,-0.49,-0.12,-0.50,-0.14,0.15,0.30,0.05,-0.34,-0.36,-0.37
276.61,-0.44,-0.10,-0.43,-0.09,0.09,0.26,0.01,-0.34,-0.34,-0.34
279.38,-0.37,-0.03,-0.37,-0.04,0.04,0.22,-0.03,-0.33,-0.33,-0.34
282.17,-0.31,0.01,-0.31,0.01,-0.01,0.18,-0.07,-0.32,-0.32,-0.32
284.99,-0.25,0.06,-0.24,0.07,-0.07,0.14,-0.11,-0.32,-0.31,-0.31
287.84,-0.17,0.13,-0.18,0.12,-0.13,0.10,-0.15,-0.30,-0.30,-0.30
290.72,-0.11,0.18,-0.10,0.18,-0.19,0.06,-0.19,-0.30,-0.29,-0.29
293.63,-0.03,0.24,-0.02,0.25,-0.25,0.02,-0.23,-0.28,-0.27,-0.27
296.57,0.06,0.31,0.06,0.31,-0.31,-0.03,-0.27,-0.25,-0.25,-0.25
299.53,0.14,0.39,0.14,0.38,-0.37,-0.07,-0.31,-0.23,-0.24,-0.25
302.53,0.20,0.44,0.21,0.44,-0.44,-0.11,-0.35,-0.23,-0.23,-0.24
305.55,0.28,0.50,0.28,0.50,-0.50,-0.16,-0.39,-0.22,-0.22,-0.22
308.61,0.35,0.56,0.35,0.56,-0.56,-0.20,-0.44,-0.21,-0.21,-0.21
311.69,0.43,0.63,0.43,0.62,-0.62,-0.25,-0.48,-0.19,-0.19,-0.20
314.81,0.50,0.67,0.50,0.68,-0.69,-0.29,-0.53,-0.18,-0.18,-0.17
317.96,0.57,0.75,0.57,0.74,-0.75,-0.34,-0.57,-0.18,-0.18,-0.18
321.14,0.64,0.81,0.64,0.81,-0.82,-0.38,-0.62,-0.18,-0.18,-0.17
324.35,0.71,0.88,0.72,0.88,-0.89,-0.43,-0.66,-0.18,-0.17,-0.17
327.59,0.80,0.96,0.80,0.96,-0.96,-0.48,-0.71,-0.15,-0.16,-0.16
330.87,0.87,1.03,0.87,1.03,-1.02,-0.53,-0.76,-0.15,-0.15,-0.16
334.18,0.94,1.10,0.94,1.10,-1.09,-0.58,-0.81,-0.15,-0.15,-0.16
337.52,1.01,1.16,1.01,1.16,-1.15,-0.63,-0.86,-0.14,-0.14,-0.15
340.90,1.06,1.21,1.07,1.22,-1.21,-0.68,-0.91,-0.15,-0.14,-0.15
344.30,1.12,1.27,1.12,1.26,-1.26,-0.74,-0.97,-0.14,-0.15,-0.15
347.75,1.16,1.31,1.16,1.31,-1.31,-0.79,-1.02,-0.15,-0.15,-0.15
351.23,1.20,1.35,1.21,1.35,-1.36,-0.85,-1.07,-0.15,-0.15,-0.15
354.74,1.24,1.39,1.24,1.40,-1.40,-0.90,-1.13,-0.15,-0.15,-0.15
358.28,1.28,1.45,1.28,1.44,-1.44,-0.96,-1.19,-0.16,-0.16,-0.17
361.87,1.31,1.48,1.31,1.48,-1.48,-1.02,-1.25,-0.17,-0.17,-0.17
365.49,1.34,1.51,1.34,1.51,-1.52,-1.07,-1.30,-0.18,-0.18,-0.17
369.14,1.37,1.55,1.38,1.55,-1.56,-1.13,-1.36,-0.19,-0.18,-0.18
372.83,1.41,1.59,1.41,1.59,-1.60,-1.19,-1.43,-0.19,-0.19,-0.18
376.56,1.45,1.64,1.45,1.64,-1.64,-1.25,-1.49,-0.18,-0.19,-0.19
380.33,1.48,1.68,1.48,1.68,-1.68,-1.32,-1.55,-0.19,-0.19,-0.20
384.13,1.51,1.72,1.51,1.72,-1.71,-1.38,-1.61,-0.20,-0.20,-0.21
387.97,1.53,1.75,1.54,1.75,-1.75,-1.44,-1.68,-0.22,-0.22,-0.22
391.85,1.56,1.79,1.56,1.78,-1.79,-1.51,-1.74,-0.23,-0.23,-0.23
395.77,1.59,1.81,1.59,1.82,-1.82,-1.57,-1.81,-0.23,-0.23,-0.22
399.73,1.62,1.85,1.62,1.85,-1.85,-1.63,-1.88,-0.23,-0.23,-0.23
403.72,1.64,1.88,1.64,1.88,-1.87,-1.70,-1.94,-0.23,-0.23,-0.24
407.76,1.66,1.91,1.66,1.90,-1.89,-1.77,-2.01,-0.23,-0.23,-0.25
411.84,1.67,1.91,1.67,1.92,-1.91,-1.83,-2.08,-0.23,-0.24,-0.24
415.96,1.67,1.93,1.67,1.93,-1.92,-1.90,-2.14,-0.25,-0.25,-0.26
420.12,1.67,1.93,1.67,1.93,-1.93,-1.96,-2.21,-0.26,-0.26,-0.26
424.32,1.67,1.93,1.67,1.93,-1.94,-2.03,-2.27,-0.27,-0.27,-0.26
428.56,1.67,1.94,1.68,1.94,-1.95,-2.09,-2.34,-0.28,-0.27,-0.27
432.85,1.68,1.95,1.69,1.95,-1.96,-2.15,-2.40,-0.28,-0.28,-0.27
437.18,1.71,1.98,1.71,1.97,-1.98,-2.21,-2.46,-0.27,-0.28,-0.27
441.55,1.73,1.99,1.73,2.00,-2.00,-2.27,-2.52,-0.27,-0.27,-0.26
