frequency,raw,error,smoothed,error_smoothed,equalization,parametric_eq,fixed_band_eq,equalized_raw,equalized_smoothed,target
20.00,-40.34,-37.63,-40.34,-37.62,37.62,19.94,8.42,-2.72,-2.71,-2.71
20.20,-40.22,-37.51,-40.22,-37.51,37.52,19.94,8.61,-2.70,-2.71,-2.71
20.40,-40.11,-37.40,-40.11,-37.40,37.40,19.93,8.80,-2.71,-2.71,-2.71
20.61,-39.99,-37.28,-39.99,-37.28,37.28,19.93,8.99,-2.71,-2.71,-2.71
20.81,-39.87,-37.16,-39.87,-37.16,37.16,19.93,9.19,-2.70,-2.71,-2.71
21.02,-39.76,-37.05,-39.75,-37.04,37.04,19.93,9.39,-2.72,-2.72,-2.71
21.23,-39.63,-36.90,-39.64,-36.91,36.91,19.92,9.60,-2.72,-2.73,-2.73
21.44,-39.52,-36.78,-39.52,-36.78,36.77,19.92,9.81,-2.75,-2.75,-2.74
21.66,-39.40,-36.64,-39.39,-36.63,36.63,19.92,10.03,-2.77,-2.76,-2.76
21.87,-39.27,-36.49,-39.27,-36.49,36.49,19.91,10.25,-2.78,-2.78,-2.78
22.09,-39.13,-36.34,-39.13,-36.34,36.34,19.91,10.48,-2.79,-2.80,-2.79
22.31,-39.00,-36.18,-39.00,-36.18,36.18,19.91,10.72,-2.81,-2.82,-2.82
22.54,-38.87,-36.03,-38.86,-36.03,36.03,19.90,10.96,-2.85,-2.84,-2.84
22.76,-38.73,-35.87,-38.73,-35.87,35.87,19.90,11.21,-2.86,-2.87,-2.86
22.99,-38.60,-35.71,-38.60,-35.71,35.71,19.90,11.46,-2.89,-2.89,-2.89
23.22,-38.47,-35.55,-38.47,-35.55,35.55,19.89,11.73,-2.92,-2.91,-2.92
23.45,-38.33,-35.38,-38.33,-35.39,35.40,19.89,11.99,-2.93,-2.94,-2.95
23.69,-38.20,-35.24,-38.20,-35.24,35.24,19.88,12.27,-2.96,-2.96,-2.96
23.92,-38.07,-35.09,-38.06,-35.09,35.09,19.88,12.55,-2.98,-2.98,-2.98
24.16,-37.93,-34.94,-37.94,-34.94,34.94,19.87,12.85,-2.99,-3.00,-2.99
24.40,-37.81,-34.80,-37.80,-34.79,34.79,19.87,13.15,-3.02,-3.02,-3.01
24.65,-37.68,-34.65,-37.67,-34.65,34.64,19.86,13.46,-3.04,-3.03,-3.03
24.89,-37.54,-34.49,-37.54,-34.49,34.50,19.86,13.77,-3.04,-3.05,-3.05
25.14,-37.41,-34.35,-37.41,-34.35,34.35,19.85,14.10,-3.06,-3.06,-3.06
25.39,-37.28,-34.20,-37.28,-34.20,34.20,19.85,14.43,-3.08,-3.08,-3.08
25.65,-37.15,-34.06,-37.15,-34.05,34.05,19.84,14.77,-3.10,-3.10,-3.09
25.91,-37.02,-33.90,-37.02,-33.91,33.91,19.84,15.12,-3.12,-3.11,-3.12
26.16,-36.89,-33.76,-36.89,-33.76,33.76,19.83,15.48,-3.13,-3.13,-3.13
26.43,-36.76,-33.62,-36.76,-33.61,33.61,19.82,15.84,-3.15,-3.15,-3.14
26.69,-36.62,-33.45,-36.62,-33.46,33.46,19.82,16.21,-3.16,-3.16,-3.17
26.96,-36.49,-33.31,-36.49,-33.31,33.31,19.81,16.59,-3.18,-3.18,-3.18
27.23,-36.34,-33.15,-36.35,-33.16,33.15,19.80,16.97,-3.19,-3.19,-3.19
27.50,-36.21,-33.01,-36.21,-33.00,33.00,19.79,17.36,-3.21,-3.21,-3.20
27.77,-36.07,-32.85,-36.06,-32.85,32.84,19.79,17.75,-3.22,-3.22,-3.22
28.05,-35.92,-32.69,-35.92,-32.69,32.69,19.78,18.14,-3.23,-3.23,-3.23
28.33,-35.78,-32.53,-35.78,-32.53,32.53,19.77,18.52,-3.24,-3.24,-3.25
28.62,-35.64,-32.38,-35.64,-32.38,32.38,19.76,18.91,-3.26,-3.26,-3.26
28.90,-35.50,-32.22,-35.50,-32.22,32.23,19.75,19.27,-3.27,-3.27,-3.28
29.19,-35.37,-32.07,-35.36,-32.07,32.08,19.74,19.63,-3.29,-3.29,-3.30
29.48,-35.22,-31.92,-35.23,-31.92,31.92,19.73,19.96,-3.29,-3.30,-3.30
29.78,-35.09,-31.78,-35.09,-31.78,31.77,19.72,20.27,-3.32,-3.32,-3.31
30.08,-34.95,-31.63,-34.95,-31.63,31.62,19.71,20.53,-3.33,-3.33,-3.32
30.38,-34.81,-31.47,-34.81,-31.47,31.47,19.70,20.77,-3.34,-3.34,-3.34
30.68,-34.67,-31.32,-34.67,-31.31,31.31,19.69,20.95,-3.36,-3.35,-3.35
30.99,-34.52,-31.14,-34.52,-31.15,31.16,19.68,21.11,-3.36,-3.37,-3.38
31.30,-34.38,-30.99,-34.38,-30.99,31.00,19.66,21.18,-3.38,-3.39,-3.39
31.61,-34.24,-30.84,-34.24,-30.83,30.83,19.65,21.23,-3.41,-3.41,-3.40
31.93,-34.10,-30.68,-34.10,-30.67,30.67,19.64,21.21,-3.43,-3.43,-3.42
32.24,-33.95,-30.50,-33.95,-30.51,30.50,19.62,21.16,-3.44,-3.45,-3.45
32.57,-33.80,-30.33,-33.80,-30.33,30.33,19.61,21.05,-3.47,-3.47,-3.47
32.89,-33.65,-30.17,-33.65,-30.16,30.16,19.59,20.92,-3.48,-3.48,-3.48
33.22,-33.50,-29.99,-33.50,-29.99,29.99,19.58,20.75,-3.51,-3.51,-3.51
33.55,-33.35,-29.83,-33.35,-29.82,29.82,19.56,20.56,-3.53,-3.53,-3.52
33.89,-33.19,-29.64,-33.19,-29.64,29.64,19.55,20.34,-3.55,-3.55,-3.55
34.23,-33.03,-29.46,-33.03,-29.46,29.46,19.53,20.12,-3.57,-3.57,-3.57
34.57,-32.87,-29.28,-32.87,-29.28,29.29,19.51,19.89,-3.58,-3.59,-3.59
34.92,-32.72,-29.11,-32.72,-29.11,29.11,19.49,19.65,-3.61,-3.61,-3.61
35.27,-32.56,-28.93,-32.56,-28.93,28.93,19.47,19.41,-3.63,-3.63,-3.63
35.62,-32.40,-28.75,-32.40,-28.75,28.75,19.45,19.17,-3.65,-3.65,-3.65
35.97,-32.24,-28.57,-32.24,-28.57,28.57,19.43,18.94,-3.67,-3.67,-3.67
36.33,-32.08,-28.39,-32.08,-28.39,28.39,19.41,18.71,-3.69,-3.69,-3.69
36.70,-31.92,-28.21,-31.92,-28.21,28.21,19.39,18.49,-3.71,-3.71,-3.71
37.06,-31.76,-28.03,-31.76,-28.03,28.03,19.37,18.28,-3.73,-3.73,-3.73
37.43,-31.60,-27.85,-31.60,-27.85,27.84,19.34,18.08,-3.75,-3.75,-3.75
37.81,-31.44,-27.67,-31.44,-27.66,27.66,19.32,17.89,-3.78,-3.77,-3.77
38.19,-31.27,-27.47,-31.27,-27.48,27.48,19.29,17.70,-3.79,-3.79,-3.80
38.57,-31.11,-27.30,-31.11,-27.29,27.30,19.27,17.53,-3.81,-3.81,-3.81
38.95,-30.95,-27.11,-30.95,-27.11,27.11,19.24,17.37,-3.83,-3.83,-3.84
39.34,-30.79,-26.93,-30.79,-26.93,26.93,19.21,17.22,-3.86,-3.86,-3.86
39.74,-30.62,-26.74,-30.62,-26.75,26.75,19.18,17.08,-3.87,-3.88,-3.88
40.14,-30.46,-26.57,-30.46,-26.57,26.56,19.15,16.95,-3.90,-3.90,-3.89
40.54,-30.30,-26.39,-30.30,-26.38,26.38,19.12,16.83,-3.92,-3.92,-3.91
40.94,-30.13,-26.20,-30.13,-26.20,26.20,19.09,16.72,-3.93,-3.93,-3.93
41.35,-29.97,-26.01,-29.96,-26.01,26.02,19.06,16.62,-3.95,-3.94,-3.96
41.76,-29.80,-25.84,-29.80,-25.83,25.84,19.03,16.53,-3.96,-3.96,-3.96
42.18,-29.64,-25.66,-29.64,-25.66,25.66,18.99,16.46,-3.98,-3.98,-3.98
42.60,-29.49,-25.49,-29.48,-25.49,25.48,18.95,16.39,-4.01,-4.00,-4.00
43.03,-29.33,-25.32,-29.33,-25.31,25.30,18.92,16.33,-4.03,-4.02,-4.01
43.46,-29.16,-25.12,-29.16,-25.13,25.12,18.88,16.29,-4.04,-4.04,-4.04
43.90,-29.00,-24.94,-29.00,-24.94,24.94,18.84,16.25,-4.06,-4.06,-4.06
44.33,-28.84,-24.76,-28.84,-24.76,24.76,18.80,16.23,-4.07,-4.08,-4.08
44.78,-28.69,-24.59,-28.69,-24.58,24.59,18.76,16.21,-4.10,-4.10,-4.10
45.23,-28.53,-24.40,-28.53,-24.40,24.41,18.71,16.21,-4.12,-4.12,-4.13
45.68,-28.38,-24.23,-28.37,-24.23,24.23,18.67,16.21,-4.15,-4.14,-4.15
46.13,-28.21,-24.05,-28.22,-24.05,24.06,18.62,16.22,-4.15,-4.16,-4.16
46.60,-28.06,-23.89,-28.06,-23.88,23.88,18.57,16.25,-4.18,-4.17,-4.17
47.06,-27.90,-23.71,-27.90,-23.71,23.71,18.53,16.28,-4.19,-4.19,-4.19
47.53,-27.74,-23.53,-27.74,-23.54,23.53,18.48,16.33,-4.21,-4.21,-4.21
48.01,-27.58,-23.36,-27.58,-23.36,23.35,18.42,16.38,-4.23,-4.23,-4.22
48.49,-27.43,-23.18,-27.43,-23.18,23.17,18.37,16.44,-4.26,-4.26,-4.25
48.97,-27.27,-22.99,-27.27,-22.99,22.99,18.32,16.51,-4.28,-4.28,-4.28
49.46,-27.11,-22.80,-27.11,-22.80,22.81,18.26,16.59,-4.30,-4.30,-4.31
49.96,-26.95,-22.61,-26.95,-22.62,22.62,18.20,16.68,-4.33,-4.33,-4.34
50.46,-26.79,-22.44,-26.79,-22.43,22.44,18.15,16.78,-4.35,-4.35,-4.35
50.96,-26.63,-22.26,-26.63,-22.26,22.26,18.08,16.88,-4.37,-4.37,-4.37
51.47,-26.47,-22.07,-26.47,-22.08,22.08,18.02,17.00,-4.39,-4.40,-4.40
51.99,-26.32,-21.90,-26.32,-21.90,21.90,17.96,17.12,-4.43,-4.42,-4.42
52.51,-26.16,-21.72,-26.16,-21.72,21.72,17.89,17.25,-4.45,-4.44,-4.44
53.03,-26.00,-21.54,-26.00,-21.54,21.54,17.83,17.38,-4.46,-4.46,-4.46
53.56,-25.84,-21.35,-25.84,-21.35,21.35,17.76,17.52,-4.48,-4.49,-4.49
54.10,-25.68,-21.17,-25.68,-21.17,21.17,17.69,17.66,-4.51,-4.51,-4.51
54.64,-25.53,-20.99,-25.53,-20.99,20.99,17.62,17.80,-4.54,-4.54,-4.54
55.18,-25.37,-20.81,-25.37,-20.81,20.81,17.54,17.94,-4.56,-4.56,-4.56
55.74,-25.21,-20.62,-25.21,-20.63,20.62,17.47,18.09,-4.59,-4.59,-4.59
56.29,-25.06,-20.45,-25.05,-20.44,20.44,17.39,18.23,-4.62,-4.61,-4.61
56.86,-24.89,-20.25,-24.89,-20.25,20.26,17.31,18.36,-4.63,-4.64,-4.64
57.42,-24.73,-20.07,-24.73,-20.07,20.07,17.23,18.49,-4.65,-4.66,-4.66
58.00,-24.57,-19.89,-24.57,-19.89,19.89,17.15,18.60,-4.68,-4.68,-4.68
58.58,-24.42,-19.71,-24.41,-19.71,19.71,17.07,18.70,-4.71,-4.70,-4.71
59.16,-24.25,-19.52,-24.25,-19.52,19.53,16.98,18.78,-4.72,-4.73,-4.73
59.76,-24.10,-19.35,-24.10,-19.35,19.34,16.90,18.84,-4.76,-4.75,-4.75
60.35,-23.94,-19.16,-23.94,-19.16,19.16,16.81,18.88,-4.78,-4.78,-4.78
60.96,-23.79,-18.99,-23.79,-18.98,18.97,16.72,18.89,-4.82,-4.82,-4.80
61.57,-23.63,-18.79,-23.63,-18.79,18.79,16.62,18.88,-4.84,-4.84,-4.84
62.18,-23.47,-18.60,-23.47,-18.60,18.60,16.53,18.83,-4.87,-4.87,-4.87
62.80,-23.31,-18.41,-23.31,-18.41,18.41,16.43,18.76,-4.89,-4.89,-4.90
63.43,-23.15,-18.22,-23.15,-18.22,18.23,16.34,18.65,-4.92,-4.92,-4.93
64.07,-23.00,-18.04,-23.00,-18.04,18.05,16.24,18.51,-4.95,-4.95,-4.96
64.71,-22.84,-17.86,-22.84,-17.86,17.87,16.14,18.35,-4.97,-4.98,-4.98
65.35,-22.69,-17.69,-22.69,-17.69,17.69,16.04,18.16,-5.00,-5.01,-5.00
66.01,-22.54,-17.52,-22.53,-17.51,17.51,15.93,17.94,-5.03,-5.03,-5.02
66.67,-22.38,-17.33,-22.38,-17.33,17.33,15.83,17.70,-5.05,-5.05,-5.05
67.33,-22.22,-17.15,-22.22,-17.15,17.15,15.72,17.45,-5.07,-5.07,-5.07
68.01,-22.07,-16.97,-22.07,-16.97,16.97,15.61,17.18,-5.10,-5.10,-5.10
68.69,-21.91,-16.79,-21.91,-16.79,16.79,15.50,16.89,-5.12,-5.12,-5.12
69.37,-21.76,-16.61,-21.76,-16.61,16.61,15.39,16.60,-5.15,-5.15,-5.15
70.07,-21.60,-16.42,-21.60,-16.42,16.42,15.28,16.30,-5.18,-5.18,-5.18
70.77,-21.44,-16.24,-21.44,-16.24,16.24,15.16,16.00,-5.20,-5.20,-5.20
71.48,-21.28,-16.05,-21.28,-16.05,16.05,15.05,15.70,-5.23,-5.23,-5.23
72.19,-21.13,-15.87,-21.13,-15.86,15.86,14.93,15.39,-5.27,-5.26,-5.26
72.91,-20.97,-15.67,-20.97,-15.68,15.67,14.81,15.09,-5.29,-5.30,-5.30
73.64,-20.82,-15.49,-20.82,-15.49,15.48,14.69,14.79,-5.33,-5.33,-5.33
74.38,-20.66,-15.30,-20.66,-15.29,15.29,14.57,14.49,-5.37,-5.37,-5.36
75.12,-20.50,-15.09,-20.50,-15.10,15.10,14.44,14.20,-5.40,-5.40,-5.41
75.87,-20.35,-14.91,-20.35,-14.91,14.91,14.32,13.91,-5.44,-5.44,-5.44
76.63,-20.19,-14.72,-20.19,-14.71,14.72,14.19,13.63,-5.47,-5.47,-5.47
77.40,-20.04,-14.53,-20.04,-14.52,14.52,14.07,13.35,-5.51,-5.51,-5.51
78.17,-19.89,-14.32,-19.88,-14.33,14.33,13.94,13.08,-5.56,-5.55,-5.57
78.95,-19.73,-14.14,-19.73,-14.14,14.14,13.81,12.82,-5.59,-5.60,-5.59
79.74,-19.58,-13.95,-19.58,-13.94,13.94,13.68,12.56,-5.64,-5.64,-5.63
80.54,-19.43,-13.75,-19.42,-13.75,13.74,13.54,12.31,-5.69,-5.68,-5.68
81.35,-19.27,-13.55,-19.27,-13.55,13.55,13.41,12.07,-5.72,-5.72,-5.72
82.16,-19.11,-13.34,-19.11,-13.34,13.35,13.27,11.84,-5.76,-5.76,-5.77
82.98,-18.96,-13.15,-18.96,-13.14,13.15,13.14,11.61,-5.81,-5.81,-5.81
83.81,-18.81,-12.94,-18.81,-12.95,12.95,13.00,11.39,-5.85,-5.86,-5.87
84.65,-18.67,-12.76,-18.66,-12.76,12.76,12.86,11.17,-5.91,-5.91,-5.91
85.50,-18.52,-12.57,-18.52,-12.57,12.56,12.72,10.96,-5.96,-5.96,-5.95
86.35,-18.37,-12.37,-18.37,-12.37,12.37,12.58,10.76,-6.00,-6.01,-6.00
87.22,-18.23,-12.18,-18.22,-12.17,12.17,12.44,10.57,-6.06,-6.05,-6.05
88.09,-18.07,-11.96,-18.08,-11.97,11.97,12.30,10.38,-6.10,-6.10,-6.11
88.97,-17.93,-11.78,-17.93,-11.78,11.78,12.16,10.20,-6.15,-6.15,-6.15
89.86,-17.79,-11.59,-17.78,-11.58,11.58,12.01,10.02,-6.21,-6.20,-6.20
90.76,-17.64,-11.38,-17.64,-11.39,11.39,11.87,9.85,-6.25,-6.26,-6.26
91.66,-17.50,-11.19,-17.50,-11.19,11.19,11.72,9.69,-6.31,-6.31,-6.31
92.58,-17.36,-10.99,-17.36,-10.99,11.00,11.57,9.53,-6.36,-6.36,-6.37
93.51,-17.22,-10.81,-17.22,-10.80,10.80,11.42,9.38,-6.42,-6.42,-6.41
94.44,-17.07,-10.61,-17.07,-10.61,10.60,11.27,9.24,-6.47,-6.47,-6.46
95.39,-16.93,-10.41,-16.93,-10.41,10.41,11.12,9.09,-6.52,-6.52,-6.52
96.34,-16.79,-10.20,-16.79,-10.21,10.21,10.97,8.96,-6.58,-6.58,-6.59
97.30,-16.66,-10.02,-16.66,-10.01,10.01,10.82,8.83,-6.65,-6.64,-6.64
98.28,-16.52,-9.82,-16.52,-9.81,9.82,10.66,8.70,-6.70,-6.70,-6.70
99.26,-16.38,-9.61,-16.38,-9.62,9.62,10.51,8.58,-6.76,-6.76,-6.77
100.25,-16.24,-9.42,-16.24,-9.42,9.42,10.35,8.46,-6.82,-6.82,-6.82
101.25,-16.11,-9.23,-16.11,-9.22,9.22,10.20,8.35,-6.89,-6.88,-6.88
102.27,-15.98,-9.03,-15.97,-9.03,9.03,10.04,8.24,-6.95,-6.95,-6.95
103.29,-15.84,-8.82,-15.84,-8.83,8.83,9.88,8.14,-7.01,-7.01,-7.02
104.32,-15.71,-8.64,-15.71,-8.64,8.64,9.72,8.04,-7.07,-7.07,-7.07
105.37,-15.58,-8.45,-15.58,-8.45,8.45,9.56,7.94,-7.13,-7.14,-7.13
106.42,-15.46,-8.26,-15.46,-8.26,8.25,9.40,7.84,-7.21,-7.20,-7.20
107.48,-15.33,-8.06,-15.33,-8.06,8.06,9.23,7.75,-7.27,-7.27,-7.27
108.56,-15.21,-7.87,-15.21,-7.87,7.87,9.07,7.65,-7.34,-7.33,-7.34
109.64,-15.08,-7.68,-15.08,-7.68,7.68,8.90,7.56,-7.40,-7.40,-7.40
110.74,-14.96,-7.50,-14.96,-7.50,7.49,8.73,7.48,-7.47,-7.47,-7.46
111.85,-14.84,-7.31,-14.84,-7.31,7.31,8.56,7.39,-7.53,-7.54,-7.53
112.97,-14.73,-7.12,-14.73,-7.12,7.12,8.39,7.30,-7.61,-7.61,-7.61
114.10,-14.61,-6.94,-14.61,-6.94,6.93,8.22,7.21,-7.68,-7.67,-7.67
115.24,-14.49,-6.75,-14.49,-6.75,6.75,8.04,7.13,-7.74,-7.74,-7.74
116.39,-14.38,-6.57,-14.38,-6.57,6.57,7.87,7.04,-7.81,-7.80,-7.81
117.55,-14.27,-6.39,-14.27,-6.39,6.40,7.69,6.96,-7.87,-7.87,-7.88
118.73,-14.16,-6.22,-14.16,-6.22,6.22,7.51,6.87,-7.94,-7.94,-7.94
119.92,-14.06,-6.06,-14.06,-6.05,6.05,7.33,6.78,-8.01,-8.00,-8.00
121.12,-13.95,-5.89,-13.95,-5.89,5.89,7.14,6.69,-8.06,-8.06,-8.06
122.33,-13.85,-5.72,-13.85,-5.73,5.73,6.96,6.60,-8.12,-8.12,-8.13
123.55,-13.75,-5.57,-13.75,-5.57,5.57,6.77,6.51,-8.18,-8.18,-8.18
124.79,-13.65,-5.41,-13.65,-5.41,5.41,6.58,6.41,-8.24,-8.24,-8.24
126.03,-13.55,-5.26,-13.55,-5.26,5.25,6.38,6.32,-8.30,-8.30,-8.29
127.29,-13.46,-5.11,-13.46,-5.10,5.10,6.19,6.22,-8.36,-8.36,-8.35
128.57,-13.36,-4.94,-13.36,-4.95,4.95,5.99,6.12,-8.41,-8.41,-8.42
129.85,-13.27,-4.80,-13.27,-4.80,4.80,5.80,6.02,-8.47,-8.47,-8.47
131.15,-13.18,-4.66,-13.18,-4.65,4.66,5.60,5.92,-8.52,-8.52,-8.52
132.46,-13.09,-4.51,-13.09,-4.51,4.52,5.40,5.81,-8.57,-8.57,-8.58
133.79,-13.00,-4.38,-13.00,-4.38,4.38,5.20,5.71,-8.62,-8.62,-8.62
135.12,-12.92,-4.24,-12.92,-4.25,4.25,5.01,5.60,-8.67,-8.67,-8.68
136.48,-12.84,-4.13,-12.84,-4.13,4.12,4.82,5.49,-8.72,-8.72,-8.71
137.84,-12.76,-4.01,-12.76,-4.00,4.00,4.63,5.38,-8.76,-8.76,-8.75
139.22,-12.68,-3.88,-12.68,-3.88,3.88,4.45,5.27,-8.80,-8.80,-8.80
140.61,-12.60,-3.76,-12.60,-3.77,3.77,4.28,5.16,-8.83,-8.83,-8.84
142.02,-12.52,-3.66,-12.52,-3.66,3.66,4.10,5.05,-8.86,-8.86,-8.86
143.44,-12.45,-3.56,-12.45,-3.55,3.55,3.95,4.94,-8.90,-8.90,-8.89
144.87,-12.38,-3.45,-12.38,-3.45,3.45,3.80,4.83,-8.93,-8.93,-8.93
146.32,-12.30,-3.34,-12.30,-3.35,3.35,3.67,4.72,-8.95,-8.96,-8.96
147.78,-12.24,-3.26,-12.24,-3.25,3.25,3.54,4.61,-8.99,-8.98,-8.98
149.26,-12.17,-3.16,-12.17,-3.16,3.16,3.43,4.49,-9.01,-9.01,-9.01
150.75,-12.11,-3.06,-12.11,-3.07,3.07,3.33,4.38,-9.04,-9.04,-9.05
152.26,-12.05,-2.98,-12.05,-2.97,2.98,3.24,4.27,-9.07,-9.07,-9.07
153.78,-11.99,-2.89,-11.99,-2.89,2.89,3.16,4.17,-9.10,-9.10,-9.10
155.32,-11.93,-2.81,-11.93,-2.81,2.81,3.09,4.06,-9.12,-9.12,-9.12
156.88,-11.88,-2.73,-11.88,-2.73,2.73,3.03,3.95,-9.15,-9.15,-9.15
158.44,-11.83,-2.65,-11.83,-2.65,2.65,2.98,3.85,-9.18,-9.18,-9.18
160.03,-11.78,-2.57,-11.78,-2.57,2.57,2.93,3.74,-9.21,-9.21,-9.21
161.63,-11.74,-2.50,-11.73,-2.49,2.50,2.89,3.64,-9.24,-9.24,-9.24
163.24,-11.69,-2.42,-11.69,-2.42,2.42,2.85,3.54,-9.27,-9.26,-9.27
164.88,-11.64,-2.35,-11.64,-2.35,2.35,2.81,3.44,-9.29,-9.29,-9.29
166.53,-11.60,-2.29,-11.60,-2.28,2.28,2.77,3.34,-9.32,-9.32,-9.31
168.19,-11.56,-2.21,-11.56,-2.21,2.21,2.74,3.25,-9.34,-9.35,-9.35
169.87,-11.53,-2.15,-11.53,-2.15,2.15,2.70,3.15,-9.38,-9.38,-9.38
171.57,-11.49,-2.08,-11.49,-2.08,2.08,2.67,3.06,-9.41,-9.41,-9.41
173.29,-11.46,-2.03,-11.46,-2.02,2.02,2.63,2.97,-9.44,-9.44,-9.43
175.02,-11.42,-1.95,-11.43,-1.95,1.95,2.60,2.88,-9.47,-9.47,-9.47
176.77,-11.40,-1.89,-11.40,-1.89,1.89,2.56,2.79,-9.51,-9.51,-9.51
178.54,-11.37,-1.82,-11.37,-1.82,1.82,2.52,2.70,-9.54,-9.54,-9.55
180.32,-11.34,-1.76,-11.34,-1.76,1.76,2.48,2.62,-9.58,-9.58,-9.58
182.13,-11.32,-1.71,-11.32,-1.71,1.70,2.44,2.53,-9.61,-9.62,-9.61
183.95,-11.31,-1.66,-11.30,-1.65,1.65,2.40,2.45,-9.66,-9.65,-9.65
185.79,-11.28,-1.59,-11.28,-1.59,1.60,2.36,2.37,-9.68,-9.69,-9.69
187.65,-11.26,-1.53,-11.27,-1.54,1.55,2.32,2.29,-9.71,-9.72,-9.73
189.52,-11.26,-1.50,-11.25,-1.49,1.50,2.28,2.21,-9.76,-9.75,-9.76
191.42,-11.24,-1.46,-11.24,-1.46,1.46,2.24,2.14,-9.78,-9.78,-9.78
193.33,-11.22,-1.42,-11.22,-1.42,1.41,2.19,2.06,-9.81,-9.81,-9.80
195.27,-11.21,-1.38,-11.21,-1.38,1.38,2.15,1.99,-9.83,-9.84,-9.83
197.22,-11.21,-1.35,-11.20,-1.34,1.34,2.11,1.92,-9.87,-9.86,-9.86
199.19,-11.20,-1.29,-11.20,-1.30,1.31,2.07,1.85,-9.89,-9.89,-9.91
201.18,-11.19,-1.27,-11.19,-1.27,1.28,2.02,1.78,-9.91,-9.92,-9.92
203.19,-11.19,-1.25,-11.19,-1.24,1.25,1.98,1.71,-9.94,-9.94,-9.94
205.23,-11.18,-1.22,-11.18,-1.22,1.22,1.94,1.65,-9.96,-9.96,-9.96
207.28,-11.17,-1.20,-11.17,-1.20,1.19,1.90,1.58,-9.98,-9.98,-9.97
209.35,-11.17,-1.17,-11.17,-1.17,1.17,1.86,1.52,-10.00,-10.00,-10.00
211.44,-11.16,-1.14,-11.16,-1.14,1.15,1.82,1.46,-10.01,-10.02,-10.02
213.56,-11.16,-1.12,-11.16,-1.12,1.12,1.79,1.40,-10.04,-10.03,-10.04
215.69,-11.15,-1.11,-11.15,-1.11,1.10,1.75,1.34,-10.05,-10.05,-10.04
217.85,-11.15,-1.10,-11.15,-1.09,1.09,1.71,1.29,-10.06,-10.06,-10.05
220.03,-11.14,-1.06,-11.14,-1.07,1.07,1.68,1.24,-10.07,-10.07,-10.08
222.23,-11.14,-1.05,-11.14,-1.05,1.06,1.65,1.19,-10.08,-10.08,-10.09
224.45,-11.13,-1.05,-11.13,-1.04,1.05,1.61,1.14,-10.08,-10.08,-10.08
226.70,-11.13,-1.04,-11.13,-1.04,1.04,1.58,1.09,-10.09,-10.09,-10.09
228.96,-11.12,-1.03,-11.12,-1.04,1.03,1.55,1.05,-10.09,-10.09,-10.09
231.25,-11.12,-1.04,-11.12,-1.04,1.03,1.53,1.01,-10.09,-10.09,-10.08
233.57,-11.11,-1.04,-11.11,-1.03,1.03,1.50,0.97,-10.08,-10.08,-10.07
235.90,-11.10,-1.03,-11.10,-1.03,1.03,1.48,0.93,-10.07,-10.07,-10.07
238.26,-11.09,-1.02,-11.09,-1.03,1.03,1.45,0.90,-10.06,-10.06,-10.07
240.64,-11.09,-1.04,-11.08,-1.03,1.04,1.43,0.87,-10.05,-10.05,-10.05
243.05,-11.07,-1.04,-11.08,-1.04,1.04,1.41,0.84,-10.03,-10.03,-10.03
245.48,-11.07,-1.06,-11.06,-1.05,1.05,1.40,0.82,-10.02,-10.02,-10.01
247.93,-11.05,-1.05,-11.05,-1.05,1.05,1.38,0.80,-9.99,-10.00,-10.00
250.41,-11.04,-1.05,-11.04,-1.06,1.06,1.37,0.78,-9.98,-9.98,-9.99
252.92,-11.03,-1.08,-11.03,-1.07,1.07,1.35,0.76,-9.96,-9.96,-9.95
255.45,-11.02,-1.09,-11.02,-1.08,1.08,1.35,0.75,-9.94,-9.94,-9.93
258.00,-11.00,-1.09,-11.00,-1.10,1.09,1.34,0.74,-9.91,-9.91,-9.91
260.58,-10.99,-1.10,-10.99,-1.10,1.10,1.33,0.73,-9.89,-9.89,-9.89
263.19,-10.98,-1.11,-10.98,-1.11,1.11,1.33,0.72,-9.87,-9.87,-9.87
265.82,-10.96,-1.11,-10.96,-1.12,1.12,1.33,0.72,-9.84,-9.84,-9.85
268.48,-10.95,-1.13,-10.95,-1.13,1.13,1.33,0.72,-9.82,-9.82,-9.82
271.16,-10.93,-1.14,-10.93,-1.14,1.14,1.33,0.73,-9.79,-9.79,-9.79
273.87,-10.92,-1.15,-10.92,-1.15,1.15,1.33,0.73,-9.77,-9.77,-9.77
276.61,-10.91,-1.17,-10.90,-1.16,1.16,1.34,0.74,-9.75,-9.74,-9.74
279.38,-10.89,-1.17,-10.89,-1.17,1.17,1.35,0.75,-9.72,-9.72,-9.72
282.17,-10.88,-1.18,-10.88,-1.18,1.18,1.36,0.76,-9.69,-9.70,-9.70
284.99,-10.87,-1.20,-10.87,-1.20,1.20,1.38,0.78,-9.67,-9.67,-9.67
287.84,-10.86,-1.21,-10.86,-1.21,1.21,1.39,0.79,-9.65,-9.65,-9.65
290.72,-10.84,-1.23,-10.84,-1.22,1.22,1.41,0.81,-9.62,-9.62,-9.61
293.63,-10.82,-1.23,-10.82,-1.24,1.24,1.43,0.83,-9.58,-9.59,-9.59
296.57,-10.81,-1.25,-10.81,-1.25,1.25,1.45,0.85,-9.56,-9.56,-9.56
299.53,-10.80,-1.27,-10.80,-1.27,1.27,1.47,0.88,-9.53,-9.53,-9.53
302.53,-10.79,-1.28,-10.79,-1.29,1.29,1.50,0.90,-9.50,-9.50,-9.51
305.55,-10.78,-1.32,-10.78,-1.31,1.31,1.52,0.93,-9.47,-9.47,-9.46
308.61,-10.76,-1.33,-10.76,-1.33,1.33,1.55,0.96,-9.43,-9.43,-9.43
311.69,-10.75,-1.36,-10.75,-1.36,1.35,1.58,0.99,-9.40,-9.40,-9.39
314.81,-10.74,-1.38,-10.74,-1.38,1.38,1.60,1.02,-9.36,-9.36,-9.36
317.96,-10.73,-1.40,-10.73,-1.40,1.40,1.63,1.05,-9.33,-9.33,-9.33
321.14,-10.72,-1.42,-10.72,-1.42,1.42,1.65,1.08,-9.30,-9.30,-9.30
324.35,-10.72,-1.44,-10.72,-1.44,1.44,1.68,1.12,-9.28,-9.27,-9.28
327.59,-10.71,-1.47,-10.71,-1.47,1.46,1.70,1.16,-9.24,-9.24,-9.24
330.87,-10.70,-1.49,-10.70,-1.49,1.49,1.73,1.19,-9.21,-9.22,-9.21
334.18,-10.70,-1.51,-10.70,-1.51,1.51,1.75,1.23,-9.19,-9.19,-9.19
337.52,-10.69,-1.52,-10.69,-1.52,1.53,1.77,1.27,-9.16,-9.16,-9.17
340.90,-10.68,-1.54,-10.68,-1.54,1.54,1.78,1.31,-9.14,-9.14,-9.14
344.30,-10.68,-1.56,-10.68,-1.56,1.56,1.80,1.36,-9.12,-9.12,-9.12
347.75,-10.68,-1.59,-10.68,-1.58,1.58,1.81,1.40,-9.10,-9.09,-9.09
351.23,-10.67,-1.60,-10.67,-1.60,1.60,1.82,1.45,-9.07,-9.07,-9.07
354.74,-10.67,-1.61,-10.67,-1.61,1.62,1.83,1.49,-9.05,-9.05,-9.06
