frequency,raw,error,smoothed,error_smoothed,equalization,parametric_eq,fixed_band_eq,equalized_raw,equalized_smoothed,target
20.00,-13.88,-13.62,-13.88,-13.64,13.64,13.20,4.89,-0.24,-0.24,-0.26
20.20,-13.74,-13.57,-13.74,-13.58,13.58,13.12,5.01,-0.16,-0.16,-0.17
20.40,-13.59,-13.50,-13.59,-13.50,13.50,13.04,5.14,-0.08,-0.09,-0.09
20.61,-13.45,-13.43,-13.45,-13.43,13.43,12.95,5.27,-0.02,-0.02,-0.03
20.81,-13.30,-13.36,-13.30,-13.35,13.35,12.86,5.41,0.06,0.05,0.07
21.02,-13.16,-13.30,-13.16,-13.28,13.28,12.76,5.55,0.12,0.12,0.15
21.23,-13.01,-13.21,-13.01,-13.19,13.19,12.66,5.69,0.19,0.18,0.20
21.44,-12.87,-13.13,-12.87,-13.11,13.11,12.56,5.84,0.24,0.24,0.26
21.66,-12.73,-13.04,-12.73,-13.02,13.02,12.46,5.99,0.29,0.30,0.31
21.87,-12.58,-12.94,-12.58,-12.94,12.94,12.35,6.15,0.36,0.35,0.36
22.09,-12.44,-12.85,-12.44,-12.85,12.85,12.24,6.31,0.41,0.41,0.41
22.31,-12.30,-12.76,-12.29,-12.75,12.75,12.14,6.47,0.46,0.46,0.46
22.54,-12.15,-12.65,-12.15,-12.65,12.65,12.03,6.64,0.50,0.50,0.50
22.76,-12.01,-12.55,-12.01,-12.55,12.55,11.92,6.81,0.54,0.54,0.54
22.99,-11.87,-12.44,-11.86,-12.45,12.45,11.81,6.99,0.58,0.58,0.57
23.22,-11.72,-12.33,-11.72,-12.34,12.34,11.69,7.17,0.62,0.62,0.61
23.45,-11.58,-12.23,-11.58,-12.24,12.24,11.58,7.36,0.66,0.66,0.65
23.69,-11.44,-12.13,-11.44,-12.13,12.13,11.47,7.55,0.69,0.69,0.69
23.92,-11.30,-12.02,-11.29,-12.02,12.02,11.37,7.74,0.73,0.73,0.73
24.16,-11.15,-11.92,-11.15,-11.92,11.92,11.26,7.95,0.77,0.76,0.78
24.40,-11.01,-11.81,-11.01,-11.81,11.81,11.15,8.15,0.80,0.80,0.81
24.65,-10.87,-11.70,-10.87,-11.70,11.70,11.05,8.36,0.83,0.83,0.83
24.89,-10.73,-11.59,-10.73,-11.59,11.59,10.94,8.57,0.87,0.87,0.86
25.14,-10.59,-11.49,-10.59,-11.49,11.49,10.84,8.79,0.90,0.90,0.90
25.39,-10.45,-11.38,-10.45,-11.38,11.38,10.74,9.01,0.93,0.93,0.93
25.65,-10.31,-11.28,-10.31,-11.27,11.27,10.64,9.24,0.96,0.96,0.97
25.91,-10.17,-11.16,-10.17,-11.17,11.17,10.54,9.46,1.00,1.00,0.99
26.16,-10.03,-11.05,-10.04,-11.06,11.06,10.44,9.69,1.03,1.03,1.02
26.43,-9.90,-10.96,-9.90,-10.95,10.95,10.34,9.92,1.05,1.06,1.06
26.69,-9.77,-10.85,-9.76,-10.85,10.85,10.25,10.15,1.08,1.08,1.08
26.96,-9.63,-10.74,-9.63,-10.75,10.75,10.16,10.39,1.12,1.11,1.11
27.23,-9.50,-10.65,-9.50,-10.64,10.64,10.07,10.62,1.14,1.14,1.15
27.50,-9.37,-10.55,-9.37,-10.54,10.54,9.98,10.84,1.17,1.17,1.18
27.77,-9.24,-10.44,-9.24,-10.44,10.44,9.89,11.07,1.20,1.20,1.20
28.05,-9.11,-10.35,-9.11,-10.34,10.34,9.81,11.29,1.23,1.23,1.24
28.33,-8.98,-10.23,-8.98,-10.24,10.24,9.73,11.50,1.27,1.26,1.26
28.62,-8.86,-10.15,-8.85,-10.15,10.15,9.64,11.70,1.29,1.29,1.28
28.90,-8.73,-10.05,-8.73,-10.05,10.05,9.56,11.88,1.33,1.32,1.32
29.19,-8.61,-9.95,-8.61,-9.96,9.96,9.49,12.06,1.35,1.35,1.34
29.48,-8.49,-9.88,-8.49,-9.87,9.87,9.41,12.21,1.38,1.38,1.39
29.78,-8.37,-9.78,-8.38,-9.78,9.78,9.33,12.35,1.41,1.41,1.41
30.08,-8.25,-9.69,-8.26,-9.69,9.69,9.26,12.47,1.44,1.43,1.43
30.38,-8.15,-9.61,-8.15,-9.61,9.61,9.19,12.56,1.46,1.46,1.46
30.68,-8.04,-9.53,-8.04,-9.53,9.53,9.11,12.63,1.49,1.49,1.49
30.99,-7.93,-9.44,-7.93,-9.45,9.45,9.04,12.67,1.52,1.51,1.51
31.30,-7.83,-9.37,-7.83,-9.37,9.37,8.97,12.69,1.54,1.54,1.54
31.61,-7.73,-9.29,-7.73,-9.29,9.29,8.91,12.68,1.56,1.56,1.56
31.93,-7.63,-9.21,-7.63,-9.21,9.21,8.84,12.64,1.58,1.59,1.58
32.24,-7.54,-9.14,-7.53,-9.14,9.14,8.77,12.57,1.60,1.61,1.60
32.57,-7.44,-9.07,-7.43,-9.06,9.06,8.71,12.49,1.62,1.63,1.63
32.89,-7.34,-8.99,-7.34,-8.99,8.99,8.64,12.38,1.65,1.65,1.65
33.22,-7.25,-8.92,-7.25,-8.92,8.92,8.58,12.25,1.67,1.67,1.67
33.55,-7.16,-8.84,-7.16,-8.84,8.84,8.51,12.10,1.68,1.68,1.69
33.89,-7.07,-8.76,-7.07,-8.77,8.77,8.45,11.93,1.70,1.70,1.69
34.23,-6.98,-8.70,-6.98,-8.70,8.70,8.39,11.76,1.72,1.71,1.72
34.57,-6.90,-8.63,-6.90,-8.62,8.62,8.33,11.57,1.72,1.72,1.73
34.92,-6.81,-8.54,-6.82,-8.55,8.55,8.26,11.37,1.74,1.73,1.73
35.27,-6.73,-8.48,-6.73,-8.48,8.48,8.20,11.17,1.75,1.74,1.75
35.62,-6.65,-8.39,-6.65,-8.40,8.40,8.14,10.96,1.75,1.75,1.74
35.97,-6.58,-8.33,-6.57,-8.33,8.33,8.08,10.74,1.75,1.76,1.75
36.33,-6.50,-8.26,-6.49,-8.25,8.25,8.01,10.53,1.75,1.76,1.77
36.70,-6.42,-8.18,-6.42,-8.18,8.18,7.95,10.31,1.76,1.76,1.76
37.06,-6.34,-8.10,-6.34,-8.10,8.10,7.89,10.10,1.76,1.76,1.76
37.43,-6.26,-8.02,-6.26,-8.02,8.02,7.83,9.89,1.76,1.76,1.76
37.81,-6.19,-7.95,-6.19,-7.94,7.94,7.76,9.68,1.76,1.76,1.76
38.19,-6.11,-7.86,-6.11,-7.87,7.87,7.70,9.47,1.76,1.76,1.75
38.57,-6.04,-7.80,-6.03,-7.79,7.79,7.63,9.26,1.75,1.75,1.76
38.95,-5.96,-7.71,-5.96,-7.71,7.71,7.57,9.06,1.75,1.75,1.75
39.34,-5.88,-7.61,-5.88,-7.62,7.62,7.50,8.87,1.75,1.74,1.74
39.74,-5.81,-7.54,-5.81,-7.54,7.54,7.44,8.67,1.73,1.74,1.73
40.14,-5.74,-7.46,-5.73,-7.46,7.46,7.37,8.49,1.72,1.73,1.72
40.54,-5.66,-7.38,-5.66,-7.38,7.38,7.30,8.30,1.72,1.72,1.72
40.94,-5.59,-7.30,-5.58,-7.30,7.30,7.24,8.13,1.71,1.71,1.71
41.35,-5.51,-7.21,-5.51,-7.21,7.21,7.17,7.95,1.71,1.70,1.70
41.76,-5.43,-7.12,-5.44,-7.13,7.13,7.10,7.79,1.70,1.69,1.70
42.18,-5.36,-7.05,-5.36,-7.05,7.05,7.03,7.62,1.69,1.68,1.69
42.60,-5.29,-6.96,-5.29,-6.96,6.96,6.95,7.47,1.67,1.67,1.67
43.03,-5.22,-6.89,-5.22,-6.88,6.88,6.88,7.31,1.66,1.66,1.67
43.46,-5.15,-6.80,-5.15,-6.79,6.79,6.81,7.17,1.65,1.65,1.65
43.90,-5.08,-6.72,-5.08,-6.71,6.71,6.74,7.02,1.63,1.64,1.64
44.33,-5.01,-6.63,-5.01,-6.63,6.63,6.66,6.89,1.62,1.62,1.62
44.78,-4.94,-6.55,-4.94,-6.55,6.55,6.59,6.75,1.61,1.61,1.61
45.23,-4.87,-6.46,-4.87,-6.47,6.47,6.51,6.63,1.60,1.60,1.59
45.68,-4.80,-6.38,-4.80,-6.39,6.39,6.44,6.50,1.59,1.59,1.58
46.13,-4.73,-6.30,-4.74,-6.31,6.31,6.36,6.38,1.58,1.57,1.57
46.60,-4.67,-6.24,-4.67,-6.23,6.23,6.28,6.27,1.56,1.56,1.57
47.06,-4.61,-6.16,-4.60,-6.15,6.15,6.20,6.16,1.54,1.55,1.56
47.53,-4.54,-6.08,-4.54,-6.08,6.08,6.13,6.05,1.54,1.54,1.54
48.01,-4.47,-6.01,-4.47,-6.00,6.00,6.05,5.95,1.53,1.53,1.54
48.49,-4.41,-5.94,-4.41,-5.93,5.93,5.97,5.85,1.52,1.52,1.53
48.97,-4.34,-5.85,-4.34,-5.86,5.86,5.89,5.76,1.52,1.51,1.52
49.46,-4.28,-5.77,-4.28,-5.79,5.79,5.81,5.67,1.51,1.51,1.49
49.96,-4.22,-5.70,-4.22,-5.72,5.72,5.73,5.58,1.50,1.50,1.48
50.46,-4.15,-5.63,-4.16,-5.65,5.65,5.65,5.50,1.50,1.49,1.48
50.96,-4.09,-5.58,-4.10,-5.58,5.58,5.57,5.42,1.49,1.49,1.49
51.47,-4.04,-5.51,-4.03,-5.51,5.51,5.49,5.34,1.47,1.48,1.47
51.99,-3.98,-5.45,-3.97,-5.45,5.45,5.41,5.26,1.47,1.47,1.47
52.51,-3.92,-5.39,-3.92,-5.38,5.38,5.33,5.19,1.46,1.46,1.47
53.03,-3.86,-5.32,-3.86,-5.31,5.31,5.25,5.12,1.45,1.46,1.46
53.56,-3.80,-5.26,-3.80,-5.25,5.25,5.17,5.05,1.45,1.45,1.46
54.10,-3.74,-5.19,-3.74,-5.18,5.18,5.09,4.99,1.44,1.44,1.45
54.64,-3.69,-5.12,-3.69,-5.12,5.12,5.01,4.92,1.43,1.43,1.43
55.18,-3.63,-5.05,-3.63,-5.05,5.05,4.93,4.86,1.42,1.42,1.42
55.74,-3.58,-4.98,-3.58,-4.98,4.98,4.86,4.80,1.41,1.41,1.40
56.29,-3.53,-4.92,-3.53,-4.91,4.91,4.78,4.74,1.39,1.39,1.39
56.86,-3.47,-4.84,-3.47,-4.84,4.84,4.70,4.68,1.37,1.37,1.37
57.42,-3.42,-4.76,-3.42,-4.77,4.77,4.62,4.62,1.35,1.35,1.35
58.00,-3.37,-4.70,-3.36,-4.69,4.69,4.55,4.57,1.32,1.33,1.33
58.58,-3.32,-4.63,-3.31,-4.62,4.62,4.47,4.51,1.30,1.31,1.31
59.16,-3.27,-4.56,-3.26,-4.54,4.54,4.40,4.45,1.27,1.28,1.29
59.76,-3.21,-4.48,-3.21,-4.47,4.47,4.32,4.39,1.26,1.25,1.27
60.35,-3.17,-4.40,-3.17,-4.39,4.39,4.25,4.33,1.22,1.23,1.23
60.96,-3.12,-4.34,-3.12,-4.32,4.32,4.18,4.28,1.20,1.20,1.22
61.57,-3.07,-4.24,-3.08,-4.25,4.25,4.10,4.22,1.18,1.17,1.17
62.18,-3.02,-4.15,-3.04,-4.18,4.18,4.03,4.16,1.16,1.14,1.13
62.80,-2.98,-4.09,-3.00,-4.11,4.11,3.96,4.10,1.13,1.11,1.11
63.43,-2.95,-4.02,-2.96,-4.05,4.05,3.89,4.04,1.10,1.09,1.07
64.07,-2.93,-3.98,-2.92,-3.98,3.98,3.82,3.98,1.05,1.06,1.05
64.71,-2.89,-3.92,-2.88,-3.92,3.92,3.75,3.92,1.03,1.04,1.03
65.35,-2.86,-3.87,-2.85,-3.87,3.87,3.69,3.85,1.01,1.02,1.01
66.01,-2.83,-3.82,-2.82,-3.81,3.81,3.62,3.79,0.98,1.00,0.99
66.67,-2.80,-3.78,-2.78,-3.76,3.76,3.55,3.73,0.96,0.98,0.98
67.33,-2.76,-3.72,-2.75,-3.71,3.71,3.49,3.66,0.95,0.96,0.96
68.01,-2.72,-3.67,-2.71,-3.66,3.66,3.42,3.60,0.94,0.95,0.95
68.69,-2.68,-3.61,-2.68,-3.61,3.61,3.36,3.54,0.93,0.93,0.93
69.37,-2.64,-3.56,-2.65,-3.57,3.57,3.30,3.47,0.93,0.92,0.92
70.07,-2.62,-3.52,-2.62,-3.52,3.52,3.24,3.41,0.90,0.90,0.90
70.77,-2.59,-3.49,-2.59,-3.48,3.48,3.18,3.34,0.89,0.89,0.90
71.48,-2.56,-3.44,-2.57,-3.44,3.44,3.12,3.28,0.88,0.87,0.88
72.19,-2.53,-3.39,-2.54,-3.40,3.40,3.06,3.21,0.87,0.86,0.86
72.91,-2.50,-3.34,-2.52,-3.36,3.36,3.00,3.15,0.86,0.84,0.84
73.64,-2.48,-3.30,-2.50,-3.31,3.31,2.94,3.08,0.83,0.82,0.82
74.38,-2.47,-3.27,-2.47,-3.27,3.27,2.89,3.02,0.80,0.80,0.80
75.12,-2.46,-3.24,-2.45,-3.23,3.23,2.83,2.96,0.77,0.78,0.78
75.87,-2.45,-3.21,-2.44,-3.20,3.20,2.78,2.90,0.75,0.76,0.76
76.63,-2.44,-3.18,-2.42,-3.16,3.16,2.72,2.84,0.72,0.74,0.74
77.40,-2.42,-3.13,-2.40,-3.12,3.12,2.67,2.78,0.70,0.72,0.71
78.17,-2.39,-3.07,-2.38,-3.08,3.08,2.62,2.72,0.69,0.70,0.68
78.95,-2.36,-3.04,-2.36,-3.04,3.04,2.57,2.66,0.68,0.68,0.68
79.74,-2.34,-3.00,-2.34,-3.01,3.01,2.52,2.60,0.67,0.66,0.66
80.54,-2.31,-2.95,-2.32,-2.97,2.97,2.47,2.55,0.66,0.65,0.64
81.35,-2.29,-2.91,-2.30,-2.93,2.93,2.42,2.49,0.64,0.63,0.62
82.16,-2.28,-2.89,-2.28,-2.89,2.89,2.37,2.44,0.62,0.62,0.61
82.98,-2.26,-2.86,-2.25,-2.86,2.86,2.32,2.39,0.60,0.61,0.60
83.81,-2.24,-2.83,-2.22,-2.82,2.82,2.28,2.34,0.58,0.59,0.59
84.65,-2.21,-2.78,-2.19,-2.78,2.78,2.23,2.29,0.57,0.58,0.57
85.50,-2.18,-2.75,-2.17,-2.74,2.74,2.19,2.24,0.56,0.57,0.57
86.35,-2.15,-2.71,-2.14,-2.70,2.70,2.14,2.20,0.55,0.56,0.56
87.22,-2.12,-2.66,-2.12,-2.67,2.67,2.10,2.15,0.55,0.55,0.54
88.09,-2.10,-2.63,-2.10,-2.63,2.63,2.06,2.11,0.53,0.53,0.53
88.97,-2.07,-2.59,-2.08,-2.60,2.60,2.01,2.07,0.53,0.51,0.52
89.86,-2.05,-2.55,-2.07,-2.56,2.56,1.97,2.03,0.51,0.49,0.50
90.76,-2.03,-2.50,-2.05,-2.52,2.52,1.93,1.99,0.49,0.47,0.47
91.66,-2.02,-2.46,-2.04,-2.48,2.48,1.89,1.95,0.46,0.44,0.44
92.58,-2.02,-2.42,-2.04,-2.44,2.44,1.85,1.91,0.42,0.40,0.40
93.51,-2.03,-2.41,-2.03,-2.40,2.40,1.82,1.88,0.37,0.37,0.38
94.44,-2.03,-2.36,-2.03,-2.35,2.35,1.78,1.84,0.32,0.32,0.33
95.39,-2.04,-2.33,-2.03,-2.31,2.31,1.74,1.81,0.27,0.27,0.29
96.34,-2.05,-2.28,-2.03,-2.26,2.26,1.70,1.78,0.21,0.22,0.23
97.30,-2.05,-2.21,-2.04,-2.20,2.20,1.67,1.75,0.15,0.17,0.16
98.28,-2.05,-2.16,-2.04,-2.14,2.14,1.63,1.71,0.09,0.11,0.11
99.26,-2.05,-2.09,-2.04,-2.08,2.08,1.60,1.69,0.03,0.04,0.04
100.25,-2.05,-2.02,-2.04,-2.01,2.01,1.56,1.66,-0.04,-0.02,-0.03
101.25,-2.05,-1.96,-2.04,-1.95,1.95,1.53,1.63,-0.10,-0.09,-0.09
102.27,-2.05,-1.89,-2.03,-1.87,1.87,1.50,1.60,-0.17,-0.16,-0.16
103.29,-2.04,-1.80,-2.03,-1.80,1.80,1.46,1.58,-0.24,-0.23,-0.24
104.32,-2.04,-1.74,-2.03,-1.73,1.73,1.43,1.55,-0.31,-0.30,-0.30
105.37,-2.03,-1.66,-2.03,-1.67,1.67,1.40,1.53,-0.36,-0.37,-0.37
106.42,-2.02,-1.58,-2.04,-1.60,1.60,1.37,1.50,-0.42,-0.44,-0.44
107.48,-2.02,-1.51,-2.04,-1.54,1.54,1.34,1.48,-0.48,-0.51,-0.51
108.56,-2.04,-1.46,-2.06,-1.48,1.48,1.31,1.46,-0.56,-0.57,-0.58
109.64,-2.05,-1.40,-2.07,-1.43,1.43,1.28,1.43,-0.62,-0.64,-0.64
110.74,-2.07,-1.37,-2.09,-1.39,1.39,1.25,1.41,-0.68,-0.71,-0.70
111.85,-2.11,-1.35,-2.11,-1.35,1.35,1.22,1.39,-0.76,-0.77,-0.76
112.97,-2.14,-1.30,-2.14,-1.31,1.31,1.19,1.37,-0.83,-0.83,-0.84
114.10,-2.17,-1.29,-2.17,-1.28,1.28,1.16,1.34,-0.88,-0.89,-0.88
115.24,-2.21,-1.26,-2.20,-1.26,1.26,1.13,1.32,-0.95,-0.94,-0.95
116.39,-2.23,-1.22,-2.23,-1.24,1.24,1.11,1.30,-0.99,-0.99,-1.00
117.55,-2.26,-1.21,-2.26,-1.22,1.22,1.08,1.28,-1.04,-1.04,-1.05
118.73,-2.30,-1.19,-2.29,-1.20,1.20,1.05,1.25,-1.10,-1.09,-1.10
119.92,-2.34,-1.20,-2.32,-1.18,1.18,1.02,1.23,-1.16,-1.14,-1.14
121.12,-2.36,-1.18,-2.34,-1.15,1.15,1.00,1.21,-1.20,-1.18,-1.18
122.33,-2.37,-1.14,-2.35,-1.13,1.13,0.97,1.18,-1.24,-1.22,-1.23
123.55,-2.39,-1.13,-2.37,-1.10,1.10,0.94,1.16,-1.29,-1.27,-1.26
124.79,-2.40,-1.10,-2.38,-1.07,1.07,0.92,1.13,-1.33,-1.30,-1.30
126.03,-2.39,-1.06,-2.38,-1.04,1.04,0.89,1.11,-1.35,-1.34,-1.33
127.29,-2.38,-1.01,-2.38,-1.01,1.01,0.86,1.08,-1.37,-1.38,-1.37
128.57,-2.37,-0.95,-2.39,-0.97,0.97,0.84,1.06,-1.40,-1.42,-1.42
129.85,-2.37,-0.92,-2.39,-0.93,0.93,0.81,1.03,-1.44,-1.46,-1.45
131.15,-2.37,-0.88,-2.38,-0.89,0.89,0.79,1.00,-1.48,-1.49,-1.49
132.46,-2.37,-0.83,-2.38,-0.85,0.85,0.76,0.97,-1.52,-1.53,-1.54
133.79,-2.37,-0.80,-2.37,-0.80,0.80,0.73,0.95,-1.57,-1.57,-1.56
135.12,-2.37,-0.76,-2.37,-0.76,0.76,0.71,0.92,-1.61,-1.61,-1.61
136.48,-2.37,-0.72,-2.37,-0.72,0.72,0.68,0.89,-1.65,-1.65,-1.65
137.84,-2.37,-0.68,-2.37,-0.67,0.67,0.65,0.86,-1.69,-1.69,-1.69
139.22,-2.37,-0.63,-2.37,-0.63,0.63,0.63,0.83,-1.74,-1.73,-1.74
140.61,-2.37,-0.58,-2.37,-0.59,0.59,0.60,0.80,-1.78,-1.78,-1.78
142.02,-2.37,-0.55,-2.37,-0.55,0.55,0.57,0.76,-1.82,-1.82,-1.82
143.44,-2.37,-0.51,-2.37,-0.51,0.51,0.54,0.73,-1.86,-1.86,-1.86
144.87,-2.37,-0.46,-2.37,-0.46,0.46,0.51,0.70,-1.91,-1.91,-1.91
146.32,-2.37,-0.42,-2.37,-0.42,0.42,0.49,0.67,-1.95,-1.95,-1.95
147.78,-2.37,-0.38,-2.37,-0.37,0.37,0.46,0.64,-2.00,-2.00,-1.99
149.26,-2.37,-0.33,-2.37,-0.33,0.33,0.42,0.60,-2.04,-2.04,-2.04
150.75,-2.37,-0.28,-2.37,-0.28,0.28,0.39,0.57,-2.09,-2.09,-2.09
152.26,-2.37,-0.23,-2.37,-0.23,0.23,0.36,0.54,-2.14,-2.14,-2.14
153.78,-2.37,-0.19,-2.37,-0.18,0.18,0.33,0.50,-2.19,-2.19,-2.18
155.32,-2.37,-0.14,-2.37,-0.13,0.13,0.29,0.47,-2.24,-2.24,-2.23
156.88,-2.37,-0.09,-2.37,-0.08,0.08,0.26,0.43,-2.29,-2.29,-2.27
158.44,-2.37,-0.03,-2.37,-0.03,0.03,0.22,0.40,-2.34,-2.34,-2.34
160.03,-2.37,0.02,-2.37,0.02,-0.02,0.18,0.37,-2.39,-2.39,-2.38
161.63,-2.37,0.07,-2.37,0.07,-0.07,0.14,0.33,-2.43,-2.44,-2.44
163.24,-2.37,0.12,-2.37,0.11,-0.11,0.10,0.30,-2.48,-2.49,-2.49
164.88,-2.37,0.17,-2.37,0.16,-0.16,0.05,0.26,-2.53,-2.53,-2.54
166.53,-2.37,0.21,-2.37,0.21,-0.21,0.01,0.23,-2.58,-2.58,-2.58
168.19,-2.37,0.26,-2.37,0.26,-0.26,-0.04,0.19,-2.63,-2.63,-2.63
169.87,-2.37,0.30,-2.37,0.31,-0.31,-0.09,0.16,-2.68,-2.67,-2.67
171.57,-2.37,0.35,-2.36,0.35,-0.35,-0.14,0.12,-2.72,-2.72,-2.71
173.29,-2.37,0.39,-2.36,0.40,-0.40,-0.19,0.09,-2.77,-2.76,-2.76
175.02,-2.37,0.43,-2.36,0.44,-0.44,-0.25,0.05,-2.81,-2.80,-2.80
176.77,-2.37,0.47,-2.36,0.48,-0.48,-0.30,0.01,-2.85,-2.83,-2.84
178.54,-2.36,0.52,-2.35,0.51,-0.51,-0.36,-0.02,-2.87,-2.87,-2.88
180.32,-2.36,0.55,-2.36,0.54,-0.54,-0.42,-0.06,-2.90,-2.90,-2.91
182.13,-2.35,0.58,-2.36,0.57,-0.57,-0.47,-0.10,-2.92,-2.93,-2.93
183.95,-2.35,0.61,-2.37,0.59,-0.59,-0.53,-0.13,-2.94,-2.96,-2.96
185.79,-2.36,0.63,-2.38,0.61,-0.61,-0.58,-0.17,-2.97,-2.98,-2.99
187.65,-2.37,0.64,-2.39,0.62,-0.62,-0.63,-0.21,-2.99,-3.01,-3.01
189.52,-2.39,0.64,-2.41,0.62,-0.62,-0.67,-0.24,-3.01,-3.03,-3.03
191.42,-2.41,0.64,-2.42,0.63,-0.63,-0.71,-0.28,-3.03,-3.05,-3.05
193.33,-2.44,0.62,-2.45,0.62,-0.62,-0.74,-0.32,-3.06,-3.07,-3.06
195.27,-2.47,0.61,-2.47,0.61,-0.61,-0.77,-0.35,-3.08,-3.09,-3.08
197.22,-2.50,0.60,-2.50,0.60,-0.60,-0.78,-0.39,-3.10,-3.10,-3.10
199.19,-2.53,0.60,-2.53,0.59,-0.59,-0.79,-0.42,-3.12,-3.12,-3.13
201.18,-2.57,0.57,-2.56,0.58,-0.58,-0.79,-0.46,-3.15,-3.14,-3.14
203.19,-2.60,0.55,-2.58,0.57,-0.57,-0.78,-0.49,-3.17,-3.15,-3.15
205.23,-2.63,0.54,-2.61,0.56,-0.56,-0.76,-0.53,-3.19,-3.17,-3.17
207.28,-2.65,0.53,-2.63,0.55,-0.55,-0.74,-0.56,-3.20,-3.18,-3.18
209.35,-2.67,0.53,-2.65,0.55,-0.55,-0.71,-0.59,-3.22,-3.20,-3.19
211.44,-2.68,0.54,-2.67,0.54,-0.54,-0.67,-0.63,-3.22,-3.21,-3.22
213.56,-2.70,0.53,-2.69,0.54,-0.54,-0.63,-0.66,-3.24,-3.23,-3.23
215.69,-2.71,0.53,-2.71,0.53,-0.53,-0.59,-0.69,-3.24,-3.24,-3.23
217.85,-2.72,0.54,-2.73,0.53,-0.53,-0.55,-0.71,-3.25,-3.26,-3.26
220.03,-2.73,0.55,-2.75,0.52,-0.52,-0.51,-0.74,-3.25,-3.27,-3.28
222.23,-2.74,0.56,-2.78,0.51,-0.51,-0.47,-0.76,-3.25,-3.29,-3.30
224.45,-2.77,0.53,-2.80,0.51,-0.51,-0.42,-0.78,-3.28,-3.31,-3.30
226.70,-2.81,0.51,-2.82,0.50,-0.50,-0.38,-0.80,-3.31,-3.32,-3.32
228.96,-2.85,0.48,-2.85,0.49,-0.49,-0.34,-0.82,-3.34,-3.34,-3.33
231.25,-2.87,0.47,-2.87,0.49,-0.49,-0.30,-0.83,-3.36,-3.36,-3.34
233.57,-2.91,0.46,-2.90,0.48,-0.48,-0.27,-0.84,-3.39,-3.37,-3.37
235.90,-2.95,0.44,-2.92,0.47,-0.47,-0.23,-0.85,-3.42,-3.39,-3.39
238.26,-2.97,0.44,-2.94,0.47,-0.47,-0.20,-0.86,-3.43,-3.41,-3.41
240.64,-2.99,0.44,-2.96,0.46,-0.46,-0.17,-0.86,-3.45,-3.42,-3.43
243.05,-3.00,0.44,-2.99,0.45,-0.45,-0.14,-0.85,-3.45,-3.43,-3.44
245.48,-3.01,0.44,-3.01,0.44,-0.44,-0.11,-0.85,-3.45,-3.45,-3.45
247.93,-3.03,0.43,-3.03,0.43,-0.43,-0.09,-0.84,-3.45,-3.45,-3.46
250.41,-3.04,0.44,-3.05,0.41,-0.41,-0.06,-0.82,-3.45,-3.46,-3.48
252.92,-3.05,0.42,-3.07,0.40,-0.40,-0.04,-0.81,-3.44,-3.47,-3.47
255.45,-3.07,0.40,-3.09,0.37,-0.37,-0.02,-0.78,-3.44,-3.47,-3.47
258.00,-3.08,0.39,-3.11,0.35,-0.35,0.00,-0.76,-3.43,-3.46,-3.47
260.58,-3.12,0.34,-3.13,0.32,-0.32,0.02,-0.73,-3.44,-3.46,-3.46
263.19,-3.15,0.30,-3.16,0.29,-0.29,0.04,-0.70,-3.44,-3.45,-3.45
265.82,-3.20,0.25,-3.18,0.26,-0.26,0.06,-0.66,-3.46,-3.44,-3.45
268.48,-3.22,0.21,-3.21,0.22,-0.22,0.08,-0.62,-3.44,-3.43,-3.43
271.16,-3.25,0.16,-3.23,0.18,-0.18,0.09,-0.57,-3.43,-3.42,-3.41
273.87,-3.28,0.12,-3.26,0.14,-0.14,0.11,-0.53,-3.42,-3.40,-3.40
276.61,-3.30,0.08,-3.29,0.10,-0.10,0.12,-0.48,-3.40,-3.39,-3.38
279.38,-3.32,0.05,-3.31,0.06,-0.06,0.14,-0.42,-3.38,-3.38,-3.37
282.17,-3.33,0.03,-3.34,0.02,-0.02,0.15,-0.37,-3.35,-3.36,-3.36
284.99,-3.35,-0.00,-3.36,-0.02,0.02,0.17,-0.31,-3.33,-3.35,-3.34
287.84,-3.39,-0.06,-3.39,-0.06,0.06,0.18,-0.25,-3.33,-3.33,-3.33
290.72,-3.40,-0.09,-3.41,-0.10,0.10,0.20,-0.18,-3.30,-3.31,-3.31
293.63,-3.43,-0.13,-3.43,-0.14,0.14,0.21,-0.12,-3.29,-3.29,-3.30
296.57,-3.45,-0.17,-3.45,-0.18,0.18,0.22,-0.05,-3.27,-3.28,-3.28
299.53,-3.48,-0.22,-3.48,-0.22,0.22,0.24,0.02,-3.26,-3.26,-3.26
302.53,-3.51,-0.25,-3.51,-0.27,0.27,0.25,0.09,-3.24,-3.24,-3.26
305.55,-3.53,-0.31,-3.54,-0.32,0.32,0.27,0.16,-3.21,-3.22,-3.22
308.61,-3.56,-0.35,-3.56,-0.36,0.36,0.28,0.24,-3.20,-3.20,-3.20
311.69,-3.59,-0.41,-3.59,-0.41,0.41,0.30,0.31,-3.18,-3.18,-3.18
314.81,-3.62,-0.48,-3.62,-0.46,0.46,0.31,0.39,-3.16,-3.16,-3.14
317.96,-3.66,-0.53,-3.65,-0.51,0.51,0.33,0.47,-3.15,-3.14,-3.13
321.14,-3.69,-0.58,-3.68,-0.56,0.56,0.35,0.55,-3.12,-3.11,-3.11
324.35,-3.73,-0.64,-3.71,-0.62,0.62,0.36,0.63,-3.11,-3.09,-3.09
327.59,-3.76,-0.69,-3.74,-0.67,0.67,0.38,0.71,-3.08,-3.07,-3.07
330.87,-3.77,-0.72,-3.78,-0.73,0.73,0.40,0.79,-3.04,-3.05,-3.05
334.18,-3.79,-0.77,-3.81,-0.79,0.79,0.42,0.88,-3.00,-3.02,-3.02
337.52,-3.83,-0.82,-3.85,-0.85,0.85,0.44,0.96,-2.98,-3.00,-3.01
340.90,-3.87,-0.89,-3.89,-0.91,0.91,0.46,1.05,-2.95,-2.98,-2.98
344.30,-3.93,-0.98,-3.93,-0.98,0.98,0.49,1.13,-2.95,-2.95,-2.95
347.75,-3.97,-1.03,-3.97,-1.04,1.04,0.51,1.22,-2.93,-2.93,-2.93
351.23,-4.03,-1.12,-4.02,-1.11,1.11,0.53,1.31,-2.92,-2.91,-2.91
354.74,-4.07,-1.19,-4.06,-1.18,1.18,0.56,1.40,-2.89,-2.88,-2.88
358.28,-4.11,-1.25,-4.11,-1.25,1.25,0.59,1.49,-2.86,-2.86,-2.86
361.87,-4.16,-1.32,-4.15,-1.32,1.32,0.62,1.59,-2.84,-2.84,-2.83
365.49,-4.21,-1.40,-4.20,-1.39,1.39,0.65,1.68,-2.82,-2.81,-2.81
369.14,-4.25,-1.45,-4.25,-1.46,1.46,0.68,1.78,-2.79,-2.79,-2.80
372.83,-4.30,-1.53,-4.30,-1.53,1.53,0.72,1.87,-2.77,-2.77,-2.77
376.56,-4.34,-1.59,-4.34,-1.59,1.59,0.76,1.97,-2.75,-2.75,-2.75
380.33,-4.38,-1.66,-4.38,-1.66,1.66,0.80,2.07,-2.72,-2.73,-2.72
384.13,-4.43,-1.72,-4.43,-1.72,1.72,0.84,2.16,-2.71,-2.71,-2.71
387.97,-4.48,-1.79,-4.47,-1.78,1.78,0.89,2.26,-2.70,-2.69,-2.69
391.85,-4.53,-1.85,-4.52,-1.84,1.84,0.94,2.36,-2.69,-2.68,-2.68
395.77,-4.57,-1.92,-4.56,-1.90,1.90,0.99,2.46,-2.67,-2.66,-2.65
399.73,-4.60,-1.96,-4.61,-1.95,1.95,1.05,2.56,-2.65,-2.65,-2.64
403.72,-4.64,-1.99,-4.65,-2.00,2.00,1.11,2.66,-2.63,-2.64,-2.65
407.76,-4.68,-2.04,-4.69,-2.06,2.06,1.18,2.76,-2.62,-2.64,-2.64
411.84,-4.74,-2.11,-4.74,-2.11,2.11,1.25,2.85,-2.63,-2.63,-2.63
415.96,-4.80,-2.17,-4.79,-2.16,2.16,1.32,2.95,-2.64,-2.63,-2.63
420.12,-4.86,-2.23,-4.84,-2.21,2.21,1.40,3.05,-2.65,-2.63,-2.63
424.32,-4.90,-2.27,-4.89,-2.26,2.26,1.49,3.14,-2.64,-2.63,-2.63
428.56,-4.94,-2.31,-4.95,-2.31,2.31,1.58,3.23,-2.63,-2.64,-2.63
432.85,-4.99,-2.35,-5.00,-2.36,2.36,1.68,3.32,-2.63,-2.64,-2.64
437.18,-5.06,-2.41,-5.06,-2.42,2.42,1.78,3.41,-2.64,-2.64,-2.65
441.55,-5.11,-2.46,-5.13,-2.48,2.48,1.89,3.49,-2.63,-2.65,-2.65
445.96,-5.18,-2.52,-5.19,-2.54,2.54,2.01,3.57,-2.64,-2.65,-2.66
450.42,-5.27,-2.61,-5.26,-2.61,2.61,2.14,3.64,-2.66,-2.65,-2.66
454.93,-5.34,-2.68,-5.33,-2.67,2.67,2.28,3.71,-2.67,-2.66,-2.66
459.48,-5.40,-2.73,-5.40,-2.74,2.74,2.42,3.77,-2.66,-2.66,-2.67
