frequency,raw,error,smoothed,error_smoothed,equalization,parametric_eq,fixed_band_eq,equalized_raw,equalized_smoothed,target
20.00,-13.86,-19.53,-13.87,-19.56,19.56,20.31,8.20,5.70,5.69,5.67
20.20,-13.75,-19.46,-13.76,-19.48,19.48,20.17,8.37,5.73,5.72,5.71
20.40,-13.65,-19.40,-13.65,-19.41,19.41,20.04,8.55,5.75,5.76,5.75
20.61,-13.55,-19.33,-13.54,-19.33,19.33,19.90,8.73,5.78,5.78,5.78
20.81,-13.44,-19.26,-13.44,-19.25,19.25,19.77,8.92,5.81,5.81,5.82
21.02,-13.33,-19.19,-13.33,-19.17,19.17,19.65,9.11,5.83,5.84,5.86
21.23,-13.22,-19.10,-13.22,-19.08,19.08,19.52,9.31,5.86,5.86,5.88
21.44,-13.11,-19.01,-13.11,-19.00,19.00,19.40,9.51,5.89,5.88,5.90
21.66,-13.00,-18.93,-13.00,-18.91,18.91,19.28,9.72,5.91,5.91,5.92
21.87,-12.89,-18.82,-12.90,-18.82,18.82,19.16,9.93,5.93,5.93,5.93
22.09,-12.78,-18.73,-12.79,-18.73,18.73,19.04,10.15,5.95,5.94,5.95
22.31,-12.68,-18.64,-12.68,-18.64,18.64,18.92,10.37,5.96,5.96,5.96
22.54,-12.57,-18.55,-12.57,-18.54,18.54,18.81,10.61,5.97,5.97,5.97
22.76,-12.46,-18.44,-12.46,-18.45,18.45,18.70,10.84,5.98,5.98,5.98
22.99,-12.35,-18.33,-12.35,-18.35,18.35,18.59,11.09,5.99,5.99,5.98
23.22,-12.25,-18.24,-12.25,-18.25,18.25,18.48,11.34,5.99,6.00,5.99
23.45,-12.14,-18.14,-12.14,-18.15,18.15,18.38,11.60,6.00,6.01,6.00
23.69,-12.03,-18.05,-12.03,-18.05,18.05,18.27,11.86,6.01,6.02,6.01
23.92,-11.92,-17.94,-11.92,-17.95,17.95,18.17,12.13,6.03,6.03,6.02
24.16,-11.81,-17.85,-11.81,-17.85,17.85,18.07,12.42,6.04,6.04,6.04
24.40,-11.70,-17.76,-11.71,-17.75,17.75,17.97,12.71,6.05,6.04,6.06
24.65,-11.59,-17.65,-11.60,-17.65,17.65,17.87,13.01,6.06,6.05,6.05
24.89,-11.49,-17.55,-11.49,-17.55,17.55,17.77,13.31,6.06,6.06,6.06
25.14,-11.38,-17.45,-11.38,-17.46,17.46,17.67,13.63,6.08,6.07,6.07
25.39,-11.27,-17.35,-11.27,-17.36,17.36,17.58,13.96,6.09,6.09,6.08
25.65,-11.17,-17.27,-11.17,-17.26,17.26,17.48,14.29,6.09,6.10,6.10
25.91,-11.07,-17.17,-11.06,-17.16,17.16,17.39,14.64,6.10,6.11,6.10
26.16,-10.95,-17.06,-10.95,-17.07,17.07,17.30,14.99,6.12,6.12,6.11
26.43,-10.84,-16.97,-10.85,-16.97,16.97,17.21,15.36,6.12,6.12,6.12
26.69,-10.74,-16.87,-10.74,-16.87,16.87,17.12,15.74,6.13,6.13,6.13
26.96,-10.63,-16.79,-10.63,-16.77,16.77,17.03,16.12,6.14,6.14,6.15
27.23,-10.52,-16.69,-10.53,-16.68,16.68,16.94,16.52,6.15,6.15,6.16
27.50,-10.42,-16.58,-10.42,-16.58,16.58,16.85,16.92,6.16,6.16,6.16
27.77,-10.31,-16.47,-10.32,-16.49,16.49,16.76,17.33,6.17,6.17,6.16
28.05,-10.21,-16.39,-10.21,-16.39,16.39,16.68,17.74,6.18,6.18,6.18
28.33,-10.11,-16.29,-10.11,-16.30,16.30,16.59,18.15,6.18,6.19,6.18
28.62,-10.01,-16.21,-10.01,-16.20,16.20,16.50,18.56,6.19,6.19,6.19
28.90,-9.90,-16.10,-9.91,-16.11,16.11,16.42,18.97,6.21,6.20,6.20
29.19,-9.81,-16.01,-9.81,-16.02,16.02,16.33,19.36,6.21,6.21,6.20
29.48,-9.71,-15.94,-9.72,-15.93,15.93,16.25,19.73,6.22,6.22,6.23
29.78,-9.61,-15.84,-9.62,-15.84,15.84,16.17,20.08,6.23,6.22,6.22
30.08,-9.52,-15.76,-9.53,-15.75,15.75,16.08,20.39,6.23,6.23,6.23
30.38,-9.43,-15.67,-9.43,-15.67,15.67,16.00,20.65,6.23,6.24,6.23
30.68,-9.34,-15.59,-9.34,-15.59,15.59,15.92,20.85,6.24,6.24,6.25
30.99,-9.25,-15.51,-9.25,-15.50,15.50,15.84,20.99,6.25,6.25,6.25
31.30,-9.16,-15.42,-9.16,-15.42,15.42,15.76,21.06,6.26,6.26,6.25
31.61,-9.07,-15.33,-9.07,-15.34,15.34,15.67,21.06,6.27,6.27,6.26
31.93,-8.98,-15.26,-8.99,-15.26,15.26,15.59,20.99,6.27,6.27,6.27
32.24,-8.90,-15.17,-8.90,-15.18,15.18,15.51,20.85,6.28,6.28,6.27
32.57,-8.81,-15.10,-8.81,-15.10,15.10,15.43,20.66,6.29,6.29,6.29
32.89,-8.73,-15.02,-8.73,-15.02,15.02,15.35,20.42,6.29,6.29,6.29
33.22,-8.64,-14.94,-8.65,-14.95,14.95,15.27,20.13,6.30,6.30,6.30
33.55,-8.56,-14.87,-8.56,-14.87,14.87,15.19,19.82,6.31,6.31,6.31
33.89,-8.48,-14.80,-8.48,-14.80,14.80,15.11,19.49,6.31,6.32,6.32
34.23,-8.39,-14.71,-8.40,-14.72,14.72,15.03,19.15,6.33,6.32,6.32
34.57,-8.31,-14.64,-8.32,-14.65,14.65,14.95,18.79,6.33,6.33,6.33
34.92,-8.23,-14.56,-8.24,-14.57,14.57,14.87,18.44,6.34,6.33,6.33
35.27,-8.15,-14.50,-8.16,-14.50,14.50,14.79,18.09,6.34,6.34,6.34
35.62,-8.08,-14.42,-8.08,-14.42,14.42,14.71,17.74,6.34,6.34,6.34
35.97,-8.01,-14.35,-8.00,-14.34,14.34,14.63,17.40,6.33,6.34,6.34
36.33,-7.92,-14.27,-7.92,-14.27,14.27,14.55,17.06,6.34,6.35,6.35
36.70,-7.84,-14.18,-7.84,-14.19,14.19,14.47,16.74,6.34,6.35,6.34
37.06,-7.76,-14.11,-7.76,-14.11,14.11,14.39,16.43,6.35,6.35,6.35
37.43,-7.68,-14.03,-7.68,-14.03,14.03,14.31,16.12,6.35,6.35,6.35
37.81,-7.60,-13.95,-7.61,-13.95,13.95,14.23,15.83,6.35,6.35,6.35
38.19,-7.52,-13.87,-7.53,-13.87,13.87,14.15,15.55,6.35,6.34,6.35
38.57,-7.45,-13.79,-7.45,-13.79,13.79,14.07,15.28,6.34,6.34,6.34
38.95,-7.38,-13.72,-7.38,-13.72,13.72,13.99,15.02,6.33,6.34,6.34
39.34,-7.30,-13.63,-7.30,-13.64,13.64,13.91,14.78,6.34,6.34,6.33
39.74,-7.22,-13.55,-7.23,-13.56,13.56,13.83,14.54,6.34,6.34,6.33
40.14,-7.15,-13.48,-7.15,-13.49,13.49,13.74,14.31,6.33,6.33,6.33
40.54,-7.08,-13.41,-7.08,-13.41,13.41,13.66,14.10,6.33,6.33,6.33
40.94,-7.01,-13.33,-7.01,-13.34,13.34,13.58,13.89,6.33,6.33,6.32
41.35,-6.94,-13.26,-6.94,-13.27,13.27,13.50,13.69,6.33,6.32,6.32
41.76,-6.87,-13.19,-6.88,-13.20,13.20,13.42,13.51,6.33,6.32,6.32
42.18,-6.80,-13.12,-6.81,-13.13,13.13,13.34,13.33,6.33,6.32,6.32
42.60,-6.74,-13.06,-6.75,-13.06,13.06,13.26,13.16,6.32,6.32,6.32
43.03,-6.68,-13.00,-6.69,-13.00,13.00,13.18,13.00,6.32,6.31,6.32
43.46,-6.62,-12.94,-6.62,-12.93,12.93,13.10,12.85,6.31,6.31,6.32
43.90,-6.56,-12.86,-6.57,-12.87,12.87,13.01,12.71,6.31,6.31,6.30
44.33,-6.51,-12.81,-6.51,-12.81,12.81,12.93,12.57,6.30,6.31,6.30
44.78,-6.45,-12.74,-6.45,-12.75,12.75,12.85,12.44,6.30,6.30,6.29
45.23,-6.39,-12.68,-6.39,-12.69,12.69,12.77,12.32,6.30,6.30,6.29
45.68,-6.34,-12.63,-6.34,-12.63,12.63,12.69,12.21,6.29,6.29,6.29
46.13,-6.28,-12.56,-6.28,-12.57,12.57,12.60,12.11,6.29,6.29,6.28
46.60,-6.22,-12.51,-6.23,-12.51,12.51,12.52,12.01,6.29,6.28,6.29
47.06,-6.16,-12.44,-6.17,-12.45,12.45,12.44,11.92,6.29,6.28,6.28
47.53,-6.11,-12.38,-6.12,-12.39,12.39,12.36,11.83,6.27,6.27,6.27
48.01,-6.05,-12.33,-6.06,-12.32,12.32,12.27,11.75,6.27,6.26,6.28
48.49,-6.00,-12.26,-6.01,-12.26,12.26,12.19,11.68,6.26,6.25,6.26
48.97,-5.95,-12.19,-5.95,-12.19,12.19,12.11,11.61,6.24,6.24,6.24
49.46,-5.89,-12.12,-5.89,-12.12,12.12,12.03,11.55,6.23,6.23,6.23
49.96,-5.84,-12.05,-5.84,-12.06,12.06,11.94,11.49,6.21,6.22,6.21
50.46,-5.78,-11.99,-5.78,-11.98,11.98,11.86,11.44,6.20,6.20,6.21
50.96,-5.72,-11.91,-5.72,-11.91,11.91,11.78,11.40,6.18,6.19,6.19
51.47,-5.66,-11.82,-5.66,-11.83,11.83,11.70,11.35,6.17,6.17,6.16
51.99,-5.59,-11.74,-5.59,-11.75,11.75,11.61,11.31,6.16,6.16,6.15
52.51,-5.52,-11.66,-5.53,-11.67,11.67,11.53,11.27,6.14,6.14,6.14
53.03,-5.46,-11.58,-5.46,-11.58,11.58,11.45,11.24,6.12,6.12,6.12
53.56,-5.39,-11.50,-5.39,-11.49,11.49,11.36,11.21,6.10,6.10,6.11
54.10,-5.32,-11.40,-5.32,-11.40,11.40,11.28,11.17,6.08,6.08,6.08
54.64,-5.25,-11.32,-5.25,-11.31,11.31,11.20,11.14,6.06,6.06,6.07
55.18,-5.18,-11.22,-5.18,-11.22,11.22,11.11,11.11,6.04,6.05,6.04
55.74,-5.10,-11.11,-5.10,-11.13,11.13,11.03,11.08,6.03,6.03,6.01
56.29,-5.03,-11.04,-5.03,-11.03,11.03,10.95,11.05,6.00,6.00,6.01
56.86,-4.95,-10.93,-4.96,-10.94,10.94,10.86,11.02,5.99,5.98,5.98
57.42,-4.87,-10.82,-4.88,-10.84,10.84,10.78,10.98,5.97,5.96,5.95
58.00,-4.80,-10.73,-4.81,-10.75,10.75,10.70,10.94,5.94,5.94,5.93
58.58,-4.73,-10.64,-4.73,-10.65,10.65,10.62,10.90,5.91,5.91,5.91
59.16,-4.66,-10.55,-4.66,-10.55,10.55,10.53,10.86,5.88,5.88,5.89
59.76,-4.59,-10.46,-4.59,-10.44,10.44,10.45,10.81,5.85,5.86,5.87
60.35,-4.52,-10.36,-4.52,-10.34,10.34,10.37,10.75,5.82,5.83,5.84
60.96,-4.45,-10.26,-4.45,-10.24,10.24,10.28,10.69,5.79,5.80,5.81
61.57,-4.38,-10.14,-4.38,-10.14,10.14,10.20,10.62,5.76,5.76,5.76
62.18,-4.31,-10.03,-4.31,-10.04,10.04,10.12,10.55,5.73,5.73,5.72
62.80,-4.24,-9.94,-4.25,-9.95,9.95,10.04,10.47,5.70,5.69,5.70
63.43,-4.18,-9.83,-4.19,-9.85,9.85,9.95,10.39,5.67,5.66,5.65
64.07,-4.12,-9.73,-4.13,-9.76,9.76,9.87,10.30,5.63,5.62,5.61
64.71,-4.07,-9.65,-4.08,-9.66,9.66,9.79,10.20,5.59,5.58,5.58
65.35,-4.02,-9.56,-4.03,-9.57,9.57,9.71,10.10,5.55,5.54,5.54
66.01,-3.97,-9.47,-3.98,-9.49,9.49,9.63,9.99,5.51,5.50,5.50
66.67,-3.93,-9.40,-3.94,-9.40,9.40,9.54,9.88,5.47,5.47,5.47
67.33,-3.89,-9.32,-3.89,-9.32,9.32,9.46,9.76,5.43,5.43,5.43
68.01,-3.85,-9.24,-3.86,-9.24,9.24,9.38,9.64,5.39,5.39,5.39
68.69,-3.82,-9.17,-3.82,-9.17,9.17,9.30,9.52,5.35,5.35,5.35
69.37,-3.79,-9.10,-3.78,-9.09,9.09,9.22,9.39,5.30,5.31,5.31
70.07,-3.75,-9.02,-3.75,-9.02,9.02,9.14,9.26,5.27,5.27,5.27
70.77,-3.71,-8.94,-3.72,-8.95,8.95,9.06,9.13,5.24,5.23,5.23
71.48,-3.68,-8.88,-3.68,-8.88,8.88,8.97,9.00,5.20,5.20,5.20
72.19,-3.65,-8.80,-3.65,-8.81,8.81,8.89,8.87,5.15,5.16,5.15
72.91,-3.61,-8.73,-3.62,-8.74,8.74,8.81,8.73,5.12,5.12,5.12
73.64,-3.58,-8.66,-3.58,-8.67,8.67,8.73,8.60,5.08,5.08,5.08
74.38,-3.55,-8.60,-3.55,-8.59,8.59,8.65,8.47,5.04,5.05,5.05
75.12,-3.52,-8.53,-3.51,-8.53,8.53,8.57,8.34,5.00,5.02,5.01
75.87,-3.48,-8.46,-3.47,-8.46,8.46,8.49,8.21,4.97,4.98,4.98
76.63,-3.43,-8.38,-3.44,-8.39,8.39,8.42,8.08,4.96,4.95,4.95
77.40,-3.39,-8.31,-3.40,-8.32,8.32,8.34,7.96,4.93,4.92,4.92
78.17,-3.35,-8.24,-3.36,-8.25,8.25,8.26,7.84,4.90,4.89,4.89
78.95,-3.31,-8.17,-3.32,-8.18,8.18,8.18,7.72,4.87,4.87,4.86
79.74,-3.28,-8.12,-3.28,-8.12,8.12,8.10,7.60,4.84,4.84,4.84
80.54,-3.24,-8.06,-3.24,-8.05,8.05,8.02,7.49,4.81,4.81,4.82
81.35,-3.20,-7.99,-3.20,-7.99,7.99,7.94,7.38,4.78,4.79,4.79
82.16,-3.16,-7.92,-3.16,-7.92,7.92,7.87,7.28,4.76,4.77,4.76
82.98,-3.11,-7.86,-3.11,-7.86,7.86,7.79,7.18,4.74,4.74,4.75
83.81,-3.07,-7.79,-3.07,-7.79,7.79,7.71,7.08,4.72,4.72,4.72
84.65,-3.03,-7.72,-3.03,-7.73,7.73,7.64,6.99,4.70,4.70,4.69
85.50,-2.99,-7.67,-3.00,-7.68,7.68,7.56,6.90,4.68,4.68,4.68
86.35,-2.96,-7.62,-2.96,-7.62,7.62,7.48,6.82,4.66,4.66,4.66
87.22,-2.92,-7.56,-2.93,-7.57,7.57,7.41,6.73,4.64,4.64,4.64
88.09,-2.88,-7.50,-2.89,-7.52,7.52,7.33,6.66,4.63,4.62,4.62
88.97,-2.84,-7.44,-2.86,-7.46,7.46,7.26,6.59,4.62,4.60,4.60
89.86,-2.81,-7.40,-2.83,-7.41,7.41,7.18,6.52,4.60,4.58,4.59
90.76,-2.78,-7.34,-2.80,-7.37,7.37,7.11,6.45,4.58,4.57,4.56
91.66,-2.77,-7.31,-2.77,-7.32,7.32,7.03,6.39,4.55,4.55,4.54
92.58,-2.76,-7.28,-2.75,-7.27,7.27,6.96,6.34,4.51,4.53,4.52
93.51,-2.73,-7.24,-2.72,-7.22,7.22,6.88,6.29,4.49,4.51,4.51
94.44,-2.71,-7.20,-2.69,-7.18,7.18,6.81,6.24,4.46,4.48,4.49
95.39,-2.68,-7.15,-2.67,-7.13,7.13,6.74,6.19,4.45,4.46,4.47
96.34,-2.65,-7.09,-2.65,-7.08,7.08,6.67,6.15,4.43,4.44,4.44
97.30,-2.61,-7.02,-2.62,-7.04,7.04,6.59,6.12,4.43,4.41,4.41
98.28,-2.58,-6.96,-2.60,-6.99,6.99,6.52,6.08,4.41,4.39,4.38
99.26,-2.56,-6.92,-2.58,-6.94,6.94,6.45,6.05,4.38,4.36,4.36
100.25,-2.54,-6.87,-2.56,-6.89,6.89,6.38,6.02,4.34,4.33,4.33
101.25,-2.51,-6.81,-2.53,-6.83,6.83,6.31,6.00,4.32,4.30,4.30
102.27,-2.50,-6.76,-2.50,-6.77,6.77,6.24,5.97,4.27,4.27,4.26
103.29,-2.49,-6.72,-2.47,-6.71,6.71,6.16,5.95,4.21,4.23,4.23
104.32,-2.47,-6.67,-2.45,-6.64,6.64,6.09,5.93,4.17,4.19,4.20
105.37,-2.44,-6.60,-2.42,-6.57,6.57,6.02,5.91,4.13,4.15,4.16
106.42,-2.40,-6.51,-2.39,-6.50,6.50,5.96,5.90,4.10,4.11,4.11
107.48,-2.36,-6.44,-2.37,-6.43,6.43,5.89,5.88,4.07,4.07,4.08
108.56,-2.32,-6.34,-2.34,-6.36,6.36,5.82,5.86,4.03,4.02,4.02
109.64,-2.27,-6.24,-2.31,-6.27,6.27,5.75,5.85,4.00,3.97,3.97
110.74,-2.25,-6.17,-2.27,-6.19,6.19,5.68,5.83,3.93,3.92,3.92
111.85,-2.23,-6.10,-2.23,-6.09,6.09,5.61,5.82,3.86,3.86,3.87
112.97,-2.20,-6.00,-2.20,-6.00,6.00,5.55,5.80,3.80,3.80,3.80
114.10,-2.17,-5.92,-2.16,-5.90,5.90,5.48,5.78,3.73,3.75,3.75
115.24,-2.11,-5.80,-2.12,-5.80,5.80,5.41,5.76,3.69,3.69,3.69
116.39,-2.09,-5.71,-2.07,-5.70,5.70,5.34,5.74,3.61,3.63,3.62
117.55,-2.05,-5.61,-2.03,-5.60,5.60,5.28,5.71,3.55,3.57,3.56
118.73,-1.99,-5.49,-1.99,-5.50,5.50,5.21,5.68,3.50,3.51,3.50
119.92,-1.93,-5.38,-1.94,-5.39,5.39,5.15,5.65,3.46,3.45,3.45
121.12,-1.87,-5.26,-1.89,-5.28,5.28,5.08,5.62,3.41,3.40,3.39
122.33,-1.84,-5.18,-1.83,-5.18,5.18,5.02,5.58,3.33,3.34,3.34
123.55,-1.79,-5.08,-1.78,-5.07,5.07,4.95,5.54,3.27,3.29,3.29
124.79,-1.73,-4.97,-1.73,-4.96,4.96,4.89,5.49,3.23,3.24,3.24
126.03,-1.67,-4.86,-1.67,-4.86,4.86,4.82,5.44,3.19,3.19,3.19
127.29,-1.63,-4.77,-1.62,-4.76,4.76,4.76,5.39,3.12,3.14,3.14
128.57,-1.58,-4.66,-1.57,-4.66,4.66,4.70,5.33,3.08,3.09,3.08
129.85,-1.51,-4.55,-1.53,-4.57,4.57,4.63,5.27,3.06,3.04,3.04
131.15,-1.46,-4.45,-1.49,-4.49,4.49,4.57,5.20,3.03,3.00,2.99
132.46,-1.44,-4.39,-1.46,-4.42,4.42,4.51,5.13,2.97,2.95,2.95
133.79,-1.41,-4.32,-1.44,-4.35,4.35,4.44,5.06,2.93,2.91,2.91
135.12,-1.39,-4.26,-1.42,-4.28,4.28,4.38,4.98,2.89,2.87,2.87
136.48,-1.38,-4.21,-1.40,-4.23,4.23,4.32,4.90,2.84,2.83,2.83
137.84,-1.36,-4.15,-1.39,-4.18,4.18,4.26,4.82,2.81,2.79,2.79
139.22,-1.36,-4.10,-1.38,-4.13,4.13,4.20,4.74,2.77,2.75,2.74
140.61,-1.37,-4.07,-1.38,-4.09,4.09,4.13,4.65,2.72,2.71,2.70
142.02,-1.38,-4.06,-1.37,-4.05,4.05,4.07,4.56,2.66,2.68,2.68
143.44,-1.39,-4.03,-1.37,-4.01,4.01,4.01,4.47,2.62,2.64,2.64
144.87,-1.39,-3.99,-1.37,-3.97,3.97,3.95,4.38,2.58,2.60,2.60
146.32,-1.38,-3.94,-1.36,-3.93,3.93,3.89,4.29,2.54,2.56,2.56
147.78,-1.37,-3.90,-1.35,-3.88,3.88,3.83,4.20,2.50,2.52,2.53
149.26,-1.35,-3.85,-1.34,-3.82,3.82,3.76,4.11,2.47,2.48,2.50
150.75,-1.32,-3.76,-1.32,-3.77,3.77,3.70,4.02,2.44,2.44,2.44
152.26,-1.30,-3.70,-1.30,-3.70,3.70,3.64,3.93,2.40,2.40,2.40
153.78,-1.27,-3.64,-1.27,-3.64,3.64,3.58,3.84,2.36,2.36,2.37
155.32,-1.25,-3.56,-1.24,-3.56,3.56,3.52,3.75,2.31,2.32,2.31
156.88,-1.21,-3.49,-1.20,-3.48,3.48,3.45,3.66,2.27,2.28,2.28
158.44,-1.18,-3.41,-1.17,-3.40,3.40,3.39,3.57,2.21,2.23,2.23
160.03,-1.12,-3.30,-1.12,-3.31,3.31,3.33,3.49,2.19,2.19,2.18
161.63,-1.08,-3.21,-1.08,-3.22,3.22,3.26,3.40,2.14,2.14,2.13
163.24,-1.05,-3.14,-1.04,-3.14,3.14,3.20,3.32,2.08,2.09,2.09
164.88,-0.99,-3.04,-1.00,-3.05,3.05,3.13,3.24,2.05,2.05,2.05
166.53,-0.94,-2.94,-0.96,-2.96,2.96,3.07,3.16,2.01,2.00,2.00
168.19,-0.91,-2.86,-0.92,-2.87,2.87,3.00,3.08,1.96,1.95,1.95
169.87,-0.86,-2.76,-0.88,-2.78,2.78,2.93,3.00,1.92,1.90,1.90
171.57,-0.84,-2.70,-0.85,-2.70,2.70,2.87,2.93,1.85,1.85,1.86
173.29,-0.82,-2.62,-0.81,-2.61,2.61,2.80,2.85,1.79,1.80,1.80
175.02,-0.78,-2.53,-0.79,-2.53,2.53,2.73,2.78,1.75,1.75,1.75
176.77,-0.76,-2.45,-0.77,-2.46,2.46,2.65,2.71,1.70,1.69,1.69
178.54,-0.74,-2.38,-0.75,-2.39,2.39,2.58,2.64,1.65,1.64,1.64
180.32,-0.72,-2.30,-0.74,-2.32,2.32,2.51,2.58,1.60,1.58,1.58
182.13,-0.71,-2.24,-0.73,-2.26,2.26,2.43,2.51,1.54,1.53,1.53
183.95,-0.70,-2.17,-0.72,-2.19,2.19,2.36,2.45,1.49,1.47,1.47
185.79,-0.71,-2.13,-0.72,-2.13,2.13,2.28,2.39,1.42,1.42,1.42
187.65,-0.72,-2.07,-0.72,-2.08,2.08,2.20,2.33,1.35,1.36,1.35
189.52,-0.73,-2.03,-0.72,-2.02,2.02,2.12,2.27,1.29,1.31,1.30
191.42,-0.73,-1.98,-0.72,-1.97,1.97,2.04,2.21,1.24,1.25,1.25
193.33,-0.73,-1.93,-0.72,-1.92,1.92,1.96,2.16,1.19,1.20,1.20
195.27,-0.73,-1.88,-0.73,-1.87,1.87,1.88,2.11,1.14,1.15,1.15
197.22,-0.73,-1.82,-0.73,-1.82,1.82,1.81,2.06,1.09,1.10,1.09
199.19,-0.73,-1.77,-0.73,-1.78,1.78,1.73,2.01,1.04,1.05,1.04
201.18,-0.73,-1.72,-0.73,-1.73,1.73,1.66,1.96,1.00,1.00,0.99
203.19,-0.73,-1.69,-0.73,-1.69,1.69,1.59,1.91,0.95,0.95,0.96
205.23,-0.73,-1.63,-0.74,-1.64,1.64,1.53,1.87,0.91,0.91,0.90
207.28,-0.73,-1.61,-0.73,-1.60,1.60,1.47,1.82,0.86,0.86,0.88
209.35,-0.73,-1.55,-0.73,-1.55,1.55,1.42,1.78,0.82,0.82,0.82
211.44,-0.73,-1.50,-0.73,-1.51,1.51,1.38,1.74,0.78,0.78,0.77
213.56,-0.73,-1.46,-0.73,-1.47,1.47,1.34,1.70,0.74,0.74,0.73
215.69,-0.73,-1.44,-0.73,-1.44,1.44,1.31,1.66,0.70,0.70,0.71
217.85,-0.73,-1.40,-0.73,-1.40,1.40,1.29,1.63,0.67,0.67,0.67
220.03,-0.73,-1.36,-0.73,-1.37,1.37,1.28,1.59,0.64,0.64,0.63
222.23,-0.73,-1.33,-0.73,-1.34,1.34,1.27,1.56,0.61,0.61,0.60
224.45,-0.73,-1.31,-0.73,-1.31,1.31,1.26,1.52,0.58,0.58,0.58
226.70,-0.73,-1.28,-0.73,-1.29,1.29,1.27,1.49,0.55,0.55,0.55
228.96,-0.73,-1.25,-0.73,-1.26,1.26,1.27,1.46,0.53,0.53,0.52
231.25,-0.73,-1.24,-0.73,-1.24,1.24,1.28,1.43,0.51,0.51,0.51
233.57,-0.73,-1.22,-0.73,-1.23,1.23,1.29,1.40,0.49,0.49,0.49
235.90,-0.73,-1.21,-0.73,-1.21,1.21,1.30,1.38,0.48,0.48,0.48
238.26,-0.73,-1.20,-0.73,-1.20,1.20,1.31,1.35,0.47,0.47,0.47
240.64,-0.73,-1.19,-0.73,-1.20,1.20,1.32,1.33,0.46,0.46,0.46
243.05,-0.73,-1.19,-0.73,-1.19,1.19,1.33,1.30,0.46,0.46,0.46
245.48,-0.73,-1.18,-0.73,-1.19,1.19,1.34,1.28,0.45,0.45,0.45
247.93,-0.73,-1.18,-0.73,-1.19,1.19,1.35,1.26,0.45,0.45,0.45
250.41,-0.73,-1.18,-0.73,-1.19,1.19,1.36,1.24,0.46,0.46,0.45
252.92,-0.73,-1.19,-0.73,-1.19,1.19,1.37,1.22,0.46,0.46,0.46
255.45,-0.73,-1.20,-0.73,-1.20,1.20,1.37,1.20,0.47,0.47,0.47
258.00,-0.73,-1.21,-0.73,-1.21,1.21,1.38,1.19,0.48,0.48,0.48
260.58,-0.73,-1.21,-0.73,-1.22,1.22,1.38,1.17,0.48,0.48,0.48
263.19,-0.73,-1.22,-0.73,-1.23,1.23,1.39,1.16,0.50,0.50,0.49
265.82,-0.73,-1.23,-0.73,-1.24,1.24,1.39,1.14,0.51,0.51,0.50
268.48,-0.73,-1.25,-0.73,-1.25,1.25,1.39,1.13,0.52,0.52,0.52
271.16,-0.73,-1.27,-0.73,-1.27,1.27,1.39,1.12,0.53,0.53,0.54
273.87,-0.73,-1.27,-0.73,-1.28,1.28,1.39,1.11,0.55,0.55,0.54
276.61,-0.73,-1.30,-0.73,-1.29,1.29,1.38,1.10,0.56,0.56,0.57
279.38,-0.73,-1.30,-0.73,-1.31,1.31,1.38,1.09,0.57,0.57,0.57
282.17,-0.73,-1.32,-0.73,-1.32,1.32,1.38,1.08,0.59,0.59,0.59
284.99,-0.73,-1.33,-0.73,-1.33,1.33,1.37,1.08,0.60,0.60,0.60
287.84,-0.73,-1.34,-0.73,-1.35,1.35,1.37,1.07,0.61,0.61,0.61
290.72,-0.73,-1.35,-0.73,-1.36,1.36,1.36,1.07,0.63,0.63,0.62
293.63,-0.73,-1.37,-0.73,-1.37,1.37,1.36,1.06,0.64,0.64,0.64
296.57,-0.73,-1.39,-0.73,-1.39,1.39,1.35,1.06,0.65,0.65,0.66
299.53,-0.73,-1.39,-0.73,-1.40,1.40,1.35,1.06,0.67,0.67,0.66
302.53,-0.73,-1.40,-0.73,-1.41,1.41,1.34,1.05,0.68,0.68,0.67
305.55,-0.73,-1.42,-0.73,-1.42,1.42,1.34,1.05,0.69,0.69,0.69
308.61,-0.73,-1.43,-0.73,-1.43,1.43,1.33,1.05,0.70,0.70,0.70
311.69,-0.73,-1.44,-0.73,-1.45,1.45,1.33,1.05,0.71,0.71,0.71
314.81,-0.73,-1.47,-0.73,-1.45,1.45,1.32,1.06,0.72,0.72,0.74
317.96,-0.73,-1.46,-0.73,-1.46,1.46,1.31,1.06,0.73,0.73,0.73
321.14,-0.73,-1.47,-0.73,-1.47,1.47,1.31,1.06,0.74,0.74,0.74
324.35,-0.73,-1.47,-0.73,-1.48,1.48,1.30,1.07,0.75,0.75,0.74
327.59,-0.73,-1.48,-0.73,-1.48,1.48,1.30,1.07,0.75,0.75,0.75
330.87,-0.73,-1.48,-0.73,-1.49,1.49,1.29,1.08,0.76,0.75,0.75
334.18,-0.73,-1.48,-0.73,-1.49,1.49,1.29,1.08,0.76,0.76,0.75
337.52,-0.73,-1.49,-0.73,-1.49,1.49,1.28,1.09,0.76,0.76,0.76
340.90,-0.73,-1.49,-0.73,-1.49,1.49,1.28,1.10,0.76,0.76,0.76
344.30,-0.73,-1.49,-0.73,-1.49,1.49,1.28,1.11,0.76,0.76,0.76
347.75,-0.73,-1.49,-0.73,-1.49,1.49,1.27,1.12,0.75,0.76,0.76
351.23,-0.73,-1.49,-0.72,-1.48,1.48,1.27,1.13,0.75,0.76,0.76
354.74,-0.73,-1.49,-0.72,-1.47,1.47,1.27,1.14,0.74,0.75,0.76
358.28,-0.73,-1.47,-0.72,-1.47,1.47,1.26,1.15,0.73,0.75,0.74
361.87,-0.72,-1.46,-0.72,-1.46,1.46,1.26,1.17,0.74,0.74,0.74
365.49,-0.72,-1.46,-0.71,-1.45,1.45,1.26,1.18,0.73,0.74,0.74
369.14,-0.71,-1.44,-0.72,-1.45,1.45,1.26,1.19,0.74,0.73,0.73
372.83,-0.71,-1.44,-0.72,-1.45,1.45,1.26,1.21,0.74,0.73,0.73
376.56,-0.71,-1.43,-0.73,-1.45,1.45,1.26,1.22,0.74,0.72,0.72
380.33,-0.72,-1.43,-0.75,-1.46,1.46,1.26,1.24,0.74,0.71,0.71
384.13,-0.74,-1.44,-0.77,-1.47,1.47,1.26,1.26,0.73,0.70,0.70
387.97,-0.75,-1.44,-0.79,-1.49,1.49,1.26,1.28,0.73,0.70,0.69
391.85,-0.78,-1.46,-0.81,-1.50,1.50,1.26,1.29,0.72,0.69,0.68
395.77,-0.82,-1.51,-0.84,-1.52,1.52,1.26,1.31,0.70,0.68,0.69
399.73,-0.86,-1.54,-0.86,-1.54,1.54,1.26,1.33,0.68,0.68,0.68
403.72,-0.90,-1.57,-0.89,-1.56,1.56,1.27,1.35,0.66,0.67,0.67
407.76,-0.93,-1.59,-0.91,-1.58,1.58,1.27,1.37,0.64,0.67,0.66
411.84,-0.95,-1.62,-0.93,-1.59,1.59,1.28,1.39,0.64,0.66,0.67
415.96,-0.97,-1.62,-0.94,-1.60,1.60,1.28,1.41,0.63,0.66,0.65
420.12,-0.98,-1.63,-0.95,-1.60,1.60,1.29,1.43,0.62,0.65,0.65
424.32,-0.97,-1.62,-0.95,-1.60,1.60,1.29,1.45,0.62,0.65,0.65
428.56,-0.96,-1.60,-0.94,-1.59,1.59,1.30,1.47,0.62,0.65,0.64
432.85,-0.95,-1.59,-0.92,-1.57,1.57,1.31,1.49,0.62,0.65,0.64
437.18,-0.92,-1.56,-0.90,-1.55,1.55,1.31,1.51,0.62,0.65,0.64
441.55,-0.88,-1.53,-0.88,-1.52,1.52,1.32,1.53,0.64,0.64,0.65
445.96,-0.84,-1.49,-0.85,-1.50,1.50,1.33,1.55,0.65,0.65,0.65
450.42,-0.80,-1.44,-0.82,-1.47,1.47,1.34,1.57,0.67,0.65,0.64
454.93,-0.77,-1.42,-0.80,-1.45,1.45,1.35,1.58,0.68,0.65,0.65
459.48,-0.74,-1.39,-0.78,-1.43,1.43,1.36,1.60,0.69,0.65,0.65
464.07,-0.72,-1.38,-0.76,-1.41,1.41,1.37,1.61,0.69,0.66,0.66
