frequency,raw,error,smoothed,error_smoothed,equalization,parametric_eq,fixed_band_eq,equalized_raw,equalized_smoothed,target
20.00,0.29,-7.16,0.29,-7.16,7.16,6.65,0.62,7.45,7.45,7.45
20.20,0.45,-7.04,0.45,-7.04,7.04,6.62,0.64,7.49,7.49,7.49
20.40,0.61,-6.92,0.61,-6.92,6.92,6.57,0.67,7.53,7.53,7.53
20.61,0.77,-6.79,0.77,-6.79,6.79,6.52,0.69,7.56,7.56,7.56
20.81,0.93,-6.67,0.93,-6.67,6.66,6.45,0.72,7.59,7.60,7.60
21.02,1.10,-6.54,1.10,-6.53,6.53,6.37,0.74,7.63,7.63,7.64
21.23,1.26,-6.40,1.26,-6.40,6.39,6.28,0.77,7.66,7.65,7.66
21.44,1.42,-6.26,1.42,-6.26,6.26,6.18,0.80,7.68,7.68,7.68
21.66,1.58,-6.12,1.58,-6.11,6.11,6.07,0.82,7.69,7.69,7.70
21.87,1.75,-5.96,1.75,-5.96,5.96,5.95,0.85,7.72,7.71,7.71
22.09,1.91,-5.82,1.91,-5.81,5.81,5.82,0.88,7.72,7.73,7.73
22.31,2.08,-5.66,2.08,-5.66,5.66,5.68,0.91,7.74,7.74,7.74
22.54,2.24,-5.51,2.24,-5.51,5.50,5.54,0.95,7.74,7.75,7.75
22.76,2.41,-5.35,2.41,-5.35,5.35,5.39,0.98,7.76,7.75,7.76
22.99,2.57,-5.19,2.57,-5.19,5.19,5.24,1.01,7.76,7.76,7.76
23.22,2.74,-5.03,2.74,-5.03,5.04,5.08,1.04,7.77,7.77,7.77
23.45,2.90,-4.88,2.90,-4.87,4.88,4.91,1.08,7.78,7.78,7.78
23.69,3.07,-4.72,3.07,-4.72,4.72,4.75,1.11,7.79,7.79,7.79
23.92,3.24,-4.56,3.24,-4.57,4.56,4.57,1.15,7.81,7.80,7.80
24.16,3.40,-4.42,3.40,-4.41,4.41,4.40,1.19,7.81,7.81,7.82
24.40,3.57,-4.26,3.57,-4.26,4.25,4.22,1.22,7.82,7.82,7.84
24.65,3.74,-4.09,3.74,-4.09,4.09,4.05,1.26,7.83,7.83,7.83
24.89,3.91,-3.92,3.91,-3.93,3.93,3.87,1.29,7.85,7.84,7.84
25.14,4.08,-3.77,4.08,-3.77,3.77,3.69,1.33,7.86,7.85,7.85
25.39,4.24,-3.61,4.24,-3.62,3.62,3.51,1.37,7.86,7.86,7.86
25.65,4.41,-3.47,4.41,-3.46,3.46,3.33,1.40,7.87,7.87,7.88
25.91,4.58,-3.30,4.58,-3.30,3.30,3.15,1.44,7.88,7.88,7.88
26.16,4.75,-3.14,4.75,-3.14,3.15,2.98,1.47,7.90,7.89,7.89
26.43,4.91,-2.99,4.91,-2.98,2.99,2.80,1.50,7.90,7.90,7.90
26.69,5.08,-2.83,5.08,-2.84,2.83,2.62,1.53,7.91,7.91,7.91
26.96,5.24,-2.69,5.24,-2.68,2.68,2.45,1.56,7.91,7.92,7.93
27.23,5.41,-2.53,5.41,-2.52,2.52,2.27,1.59,7.92,7.93,7.94
27.50,5.58,-2.36,5.58,-2.36,2.36,2.10,1.62,7.94,7.94,7.94
27.77,5.75,-2.19,5.75,-2.19,2.20,1.93,1.64,7.95,7.95,7.94
28.05,5.92,-2.04,5.92,-2.03,2.04,1.76,1.66,7.96,7.96,7.96
28.33,6.08,-1.88,6.08,-1.88,1.88,1.59,1.67,7.96,7.96,7.96
28.62,6.25,-1.72,6.25,-1.72,1.72,1.43,1.69,7.97,7.97,7.97
28.90,6.41,-1.57,6.41,-1.56,1.56,1.27,1.69,7.97,7.98,7.98
29.19,6.58,-1.40,6.58,-1.41,1.41,1.10,1.70,7.99,7.98,7.98
29.48,6.74,-1.27,6.74,-1.25,1.25,0.94,1.69,7.99,7.99,8.01
29.78,6.91,-1.09,6.91,-1.10,1.09,0.79,1.69,8.00,8.00,8.00
30.08,7.07,-0.94,7.07,-0.94,0.93,0.63,1.68,8.00,8.00,8.01
30.38,7.24,-0.77,7.24,-0.77,0.77,0.48,1.66,8.01,8.01,8.01
30.68,7.41,-0.62,7.40,-0.62,0.61,0.33,1.64,8.02,8.02,8.03
30.99,7.57,-0.46,7.57,-0.45,0.46,0.18,1.61,8.02,8.03,8.03
31.30,7.74,-0.29,7.74,-0.30,0.30,0.03,1.57,8.04,8.03,8.03
31.61,7.90,-0.14,7.90,-0.14,0.14,-0.11,1.53,8.04,8.04,8.04
31.93,8.06,0.01,8.06,0.01,-0.01,-0.26,1.48,8.05,8.05,8.05
32.24,8.22,0.17,8.22,0.16,-0.16,-0.40,1.43,8.06,8.05,8.05
32.57,8.37,0.30,8.37,0.31,-0.31,-0.54,1.37,8.06,8.06,8.07
32.89,8.53,0.46,8.53,0.46,-0.46,-0.68,1.31,8.07,8.07,8.07
33.22,8.68,0.60,8.68,0.60,-0.61,-0.81,1.24,8.07,8.08,8.08
33.55,8.84,0.75,8.84,0.75,-0.75,-0.94,1.16,8.09,8.09,8.09
33.89,8.99,0.89,8.99,0.90,-0.90,-1.08,1.08,8.09,8.09,8.10
34.23,9.14,1.04,9.14,1.04,-1.04,-1.21,0.99,8.10,8.10,8.10
34.57,9.29,1.18,9.29,1.18,-1.18,-1.33,0.90,8.11,8.10,8.11
34.92,9.43,1.32,9.43,1.32,-1.32,-1.46,0.81,8.11,8.11,8.11
35.27,9.58,1.46,9.58,1.46,-1.46,-1.58,0.71,8.12,8.11,8.12
35.62,9.72,1.60,9.72,1.60,-1.60,-1.70,0.60,8.12,8.12,8.12
35.97,9.86,1.74,9.86,1.74,-1.74,-1.83,0.49,8.13,8.12,8.12
36.33,9.99,1.86,9.99,1.87,-1.87,-1.94,0.38,8.12,8.12,8.13
36.70,10.13,2.01,10.13,2.00,-2.00,-2.06,0.27,8.13,8.13,8.12
37.06,10.26,2.13,10.26,2.14,-2.14,-2.18,0.15,8.13,8.13,8.13
37.43,10.39,2.26,10.39,2.26,-2.27,-2.29,0.03,8.12,8.12,8.13
37.81,10.52,2.39,10.52,2.39,-2.40,-2.40,-0.09,8.12,8.12,8.13
38.19,10.64,2.51,10.64,2.52,-2.52,-2.51,-0.21,8.12,8.12,8.13
38.57,10.77,2.65,10.77,2.65,-2.65,-2.62,-0.34,8.12,8.12,8.12
38.95,10.90,2.78,10.89,2.78,-2.77,-2.73,-0.47,8.13,8.12,8.12
39.34,11.01,2.90,11.01,2.90,-2.90,-2.83,-0.60,8.12,8.12,8.11
39.74,11.12,3.01,11.13,3.02,-3.02,-2.94,-0.73,8.10,8.11,8.11
40.14,11.24,3.13,11.24,3.13,-3.13,-3.04,-0.87,8.11,8.10,8.11
40.54,11.35,3.24,11.35,3.24,-3.25,-3.14,-1.00,8.10,8.10,8.11
40.94,11.45,3.35,11.46,3.35,-3.36,-3.24,-1.14,8.09,8.10,8.10
41.35,11.56,3.46,11.56,3.46,-3.46,-3.34,-1.28,8.10,8.10,8.10
41.76,11.67,3.57,11.67,3.57,-3.57,-3.43,-1.42,8.10,8.10,8.10
42.18,11.77,3.67,11.77,3.67,-3.67,-3.53,-1.57,8.10,8.10,8.10
42.60,11.86,3.76,11.87,3.77,-3.76,-3.62,-1.71,8.10,8.10,8.10
43.03,11.96,3.86,11.95,3.85,-3.86,-3.71,-1.86,8.10,8.09,8.10
43.46,12.03,3.93,12.03,3.94,-3.95,-3.80,-2.00,8.08,8.09,8.10
43.90,12.11,4.03,12.11,4.03,-4.03,-3.89,-2.15,8.08,8.08,8.08
44.33,12.19,4.11,12.19,4.11,-4.11,-3.97,-2.30,8.08,8.07,8.08
44.78,12.27,4.20,12.27,4.20,-4.19,-4.06,-2.45,8.08,8.07,8.07
45.23,12.34,4.27,12.34,4.27,-4.27,-4.14,-2.61,8.07,8.07,8.07
45.68,12.41,4.34,12.41,4.35,-4.34,-4.22,-2.76,8.07,8.07,8.07
46.13,12.48,4.42,12.48,4.41,-4.41,-4.31,-2.92,8.07,8.07,8.06
46.60,12.54,4.47,12.54,4.48,-4.48,-4.38,-3.08,8.06,8.06,8.07
47.06,12.60,4.54,12.60,4.54,-4.55,-4.46,-3.24,8.05,8.05,8.06
47.53,12.66,4.61,12.66,4.61,-4.62,-4.54,-3.40,8.04,8.04,8.05
48.01,12.73,4.67,12.73,4.68,-4.69,-4.61,-3.56,8.04,8.04,8.06
48.49,12.79,4.75,12.79,4.75,-4.75,-4.68,-3.72,8.03,8.04,8.04
48.97,12.85,4.83,12.85,4.83,-4.82,-4.76,-3.89,8.03,8.03,8.02
49.46,12.90,4.89,12.90,4.90,-4.89,-4.83,-4.05,8.01,8.01,8.01
49.96,12.95,4.96,12.95,4.95,-4.95,-4.89,-4.22,8.00,8.00,7.99
50.46,12.99,5.00,12.99,5.01,-5.01,-4.96,-4.38,7.98,7.98,7.99
50.96,13.03,5.06,13.03,5.07,-5.06,-5.02,-4.55,7.97,7.97,7.97
51.47,13.06,5.12,13.06,5.11,-5.11,-5.09,-4.72,7.95,7.95,7.94
51.99,13.09,5.16,13.09,5.16,-5.16,-5.15,-4.88,7.93,7.93,7.93
52.51,13.12,5.20,13.12,5.21,-5.21,-5.21,-5.05,7.91,7.91,7.92
53.03,13.15,5.25,13.15,5.25,-5.26,-5.27,-5.21,7.89,7.89,7.90
53.56,13.18,5.29,13.18,5.30,-5.30,-5.32,-5.37,7.88,7.88,7.89
54.10,13.21,5.35,13.21,5.35,-5.35,-5.38,-5.53,7.86,7.86,7.86
54.64,13.24,5.39,13.24,5.40,-5.39,-5.43,-5.68,7.85,7.84,7.85
55.18,13.26,5.44,13.26,5.44,-5.44,-5.48,-5.84,7.82,7.82,7.82
55.74,13.28,5.49,13.28,5.48,-5.48,-5.54,-5.98,7.80,7.80,7.79
56.29,13.30,5.51,13.30,5.52,-5.52,-5.58,-6.12,7.78,7.78,7.79
56.86,13.31,5.55,13.31,5.56,-5.56,-5.63,-6.26,7.75,7.75,7.76
57.42,13.32,5.59,13.33,5.59,-5.59,-5.68,-6.39,7.73,7.74,7.73
58.00,13.34,5.63,13.34,5.63,-5.62,-5.72,-6.51,7.72,7.71,7.71
58.58,13.35,5.66,13.35,5.66,-5.65,-5.76,-6.62,7.70,7.69,7.69
59.16,13.35,5.68,13.35,5.69,-5.69,-5.80,-6.73,7.66,7.67,7.67
59.76,13.36,5.71,13.36,5.71,-5.72,-5.84,-6.82,7.64,7.63,7.65
60.35,13.36,5.74,13.36,5.75,-5.76,-5.88,-6.90,7.60,7.60,7.62
60.96,13.37,5.78,13.37,5.79,-5.80,-5.91,-6.98,7.57,7.58,7.59
61.57,13.38,5.84,13.38,5.83,-5.83,-5.95,-7.04,7.55,7.55,7.54
62.18,13.38,5.88,13.38,5.88,-5.87,-5.98,-7.09,7.51,7.51,7.50
62.80,13.38,5.90,13.38,5.91,-5.90,-6.01,-7.13,7.48,7.48,7.48
63.43,13.37,5.94,13.37,5.94,-5.94,-6.04,-7.15,7.43,7.43,7.43
64.07,13.36,5.97,13.36,5.97,-5.97,-6.06,-7.17,7.39,7.39,7.39
64.71,13.35,5.99,13.35,5.99,-5.99,-6.09,-7.18,7.36,7.35,7.36
65.35,13.33,6.01,13.33,6.02,-6.02,-6.11,-7.17,7.31,7.32,7.32
66.01,13.32,6.04,13.32,6.04,-6.04,-6.13,-7.16,7.28,7.28,7.28
66.67,13.31,6.06,13.31,6.06,-6.06,-6.16,-7.13,7.25,7.24,7.25
67.33,13.29,6.08,13.29,6.08,-6.08,-6.17,-7.10,7.21,7.21,7.21
68.01,13.27,6.10,13.27,6.10,-6.11,-6.19,-7.06,7.16,7.16,7.17
68.69,13.25,6.12,13.25,6.12,-6.13,-6.21,-7.01,7.12,7.12,7.13
69.37,13.23,6.14,13.23,6.15,-6.15,-6.22,-6.96,7.08,7.08,7.09
70.07,13.22,6.17,13.22,6.17,-6.17,-6.24,-6.90,7.05,7.05,7.05
70.77,13.20,6.19,13.20,6.19,-6.18,-6.25,-6.83,7.02,7.02,7.01
71.48,13.18,6.20,13.18,6.21,-6.20,-6.26,-6.77,6.98,6.98,6.98
72.19,13.15,6.22,13.15,6.21,-6.21,-6.27,-6.70,6.94,6.94,6.93
72.91,13.11,6.21,13.12,6.22,-6.22,-6.27,-6.63,6.89,6.90,6.90
73.64,13.08,6.22,13.08,6.22,-6.22,-6.28,-6.56,6.86,6.86,6.86
74.38,13.05,6.22,13.05,6.22,-6.22,-6.28,-6.48,6.83,6.82,6.83
75.12,13.01,6.22,13.01,6.22,-6.23,-6.29,-6.41,6.78,6.79,6.79
75.87,12.98,6.22,12.98,6.22,-6.22,-6.29,-6.34,6.75,6.76,6.76
76.63,12.95,6.22,12.95,6.22,-6.23,-6.29,-6.27,6.72,6.72,6.73
77.40,12.92,6.22,12.92,6.22,-6.23,-6.29,-6.20,6.69,6.69,6.70
78.17,12.89,6.22,12.89,6.22,-6.22,-6.29,-6.13,6.67,6.67,6.67
78.95,12.86,6.22,12.86,6.22,-6.22,-6.28,-6.06,6.64,6.64,6.64
79.74,12.84,6.22,12.84,6.22,-6.22,-6.28,-6.00,6.62,6.62,6.62
80.54,12.81,6.21,12.81,6.22,-6.21,-6.28,-5.94,6.60,6.60,6.60
81.35,12.78,6.21,12.78,6.21,-6.21,-6.27,-5.88,6.57,6.57,6.57
82.16,12.74,6.20,12.74,6.20,-6.20,-6.26,-5.83,6.54,6.54,6.54
82.98,12.70,6.17,12.70,6.18,-6.18,-6.25,-5.78,6.52,6.52,6.53
83.81,12.66,6.16,12.66,6.16,-6.16,-6.25,-5.73,6.50,6.50,6.50
84.65,12.62,6.15,12.62,6.14,-6.14,-6.24,-5.69,6.48,6.48,6.47
85.50,12.58,6.12,12.58,6.12,-6.12,-6.23,-5.65,6.46,6.46,6.46
86.35,12.53,6.09,12.53,6.09,-6.09,-6.21,-5.62,6.44,6.44,6.44
87.22,12.48,6.06,12.48,6.06,-6.07,-6.20,-5.59,6.41,6.41,6.42
88.09,12.44,6.04,12.44,6.04,-6.04,-6.19,-5.56,6.40,6.39,6.40
88.97,12.39,6.01,12.40,6.01,-6.02,-6.18,-5.54,6.37,6.38,6.38
89.86,12.36,5.99,12.35,5.99,-5.99,-6.16,-5.53,6.37,6.36,6.37
90.76,12.31,5.97,12.31,5.97,-5.97,-6.15,-5.51,6.34,6.34,6.34
91.66,12.27,5.95,12.27,5.95,-5.95,-6.13,-5.50,6.32,6.33,6.32
92.58,12.23,5.93,12.23,5.93,-5.93,-6.12,-5.50,6.30,6.30,6.30
93.51,12.19,5.90,12.19,5.90,-5.91,-6.10,-5.50,6.28,6.28,6.29
94.44,12.15,5.88,12.15,5.88,-5.89,-6.08,-5.50,6.26,6.26,6.27
95.39,12.11,5.86,12.11,5.87,-5.88,-6.07,-5.51,6.23,6.24,6.25
96.34,12.08,5.86,12.08,5.86,-5.86,-6.05,-5.52,6.22,6.22,6.22
97.30,12.05,5.86,12.05,5.86,-5.84,-6.03,-5.53,6.21,6.20,6.19
98.28,12.01,5.85,12.01,5.85,-5.83,-6.01,-5.55,6.18,6.18,6.16
99.26,11.96,5.82,11.96,5.82,-5.82,-6.00,-5.57,6.14,6.14,6.14
100.25,11.90,5.79,11.90,5.79,-5.80,-5.98,-5.59,6.10,6.10,6.11
101.25,11.85,5.77,11.85,5.78,-5.79,-5.96,-5.62,6.06,6.06,6.08
102.27,11.80,5.76,11.81,5.77,-5.78,-5.94,-5.65,6.02,6.03,6.04
103.29,11.78,5.77,11.77,5.77,-5.77,-5.92,-5.68,6.01,6.01,6.01
104.32,11.74,5.76,11.74,5.77,-5.76,-5.91,-5.71,5.98,5.98,5.98
105.37,11.70,5.76,11.70,5.76,-5.74,-5.89,-5.75,5.96,5.95,5.94
106.42,11.64,5.75,11.64,5.75,-5.73,-5.87,-5.78,5.91,5.91,5.89
107.48,11.58,5.72,11.58,5.73,-5.73,-5.85,-5.82,5.85,5.86,5.86
108.56,11.52,5.72,11.51,5.71,-5.72,-5.83,-5.86,5.80,5.80,5.80
109.64,11.45,5.70,11.45,5.70,-5.71,-5.82,-5.89,5.74,5.74,5.75
110.74,11.39,5.69,11.40,5.70,-5.71,-5.80,-5.93,5.68,5.68,5.70
111.85,11.35,5.70,11.35,5.71,-5.72,-5.78,-5.97,5.63,5.63,5.65
112.97,11.31,5.73,11.31,5.72,-5.73,-5.77,-6.00,5.58,5.58,5.58
114.10,11.27,5.74,11.27,5.74,-5.74,-5.75,-6.04,5.53,5.52,5.53
115.24,11.22,5.75,11.23,5.76,-5.76,-5.73,-6.07,5.46,5.47,5.47
116.39,11.19,5.79,11.19,5.79,-5.78,-5.72,-6.10,5.41,5.41,5.40
117.55,11.15,5.81,11.14,5.81,-5.80,-5.71,-6.12,5.35,5.34,5.34
118.73,11.10,5.82,11.10,5.82,-5.82,-5.69,-6.15,5.28,5.29,5.28
119.92,11.05,5.82,11.05,5.83,-5.83,-5.68,-6.17,5.22,5.23,5.23
121.12,11.01,5.84,11.01,5.84,-5.84,-5.67,-6.18,5.17,5.17,5.17
122.33,10.97,5.85,10.97,5.85,-5.84,-5.65,-6.20,5.13,5.12,5.12
123.55,10.92,5.85,10.91,5.85,-5.85,-5.64,-6.20,5.07,5.06,5.07
124.79,10.86,5.84,10.86,5.84,-5.85,-5.63,-6.21,5.01,5.01,5.02
126.03,10.80,5.83,10.81,5.85,-5.86,-5.62,-6.21,4.94,4.96,4.97
127.29,10.77,5.85,10.77,5.86,-5.86,-5.62,-6.20,4.91,4.92,4.92
128.57,10.74,5.88,10.73,5.86,-5.85,-5.61,-6.20,4.89,4.87,4.86
129.85,10.68,5.86,10.68,5.86,-5.85,-5.60,-6.18,4.83,4.83,4.82
131.15,10.61,5.84,10.62,5.85,-5.85,-5.60,-6.17,4.76,4.77,4.77
132.46,10.57,5.84,10.56,5.83,-5.84,-5.59,-6.15,4.73,4.72,4.73
133.79,10.51,5.82,10.51,5.83,-5.84,-5.59,-6.12,4.67,4.67,4.69
135.12,10.46,5.81,10.47,5.82,-5.83,-5.59,-6.10,4.63,4.64,4.65
136.48,10.43,5.82,10.42,5.82,-5.82,-5.59,-6.07,4.61,4.61,4.61
137.84,10.38,5.81,10.38,5.82,-5.80,-5.59,-6.04,4.58,4.58,4.57
139.22,10.33,5.81,10.33,5.80,-5.79,-5.59,-6.01,4.54,4.54,4.52
140.61,10.27,5.79,10.26,5.78,-5.77,-5.59,-5.97,4.50,4.49,4.48
142.02,10.18,5.72,10.20,5.75,-5.75,-5.60,-5.94,4.43,4.45,4.46
143.44,10.14,5.72,10.14,5.72,-5.73,-5.61,-5.90,4.41,4.41,4.42
144.87,10.08,5.70,10.08,5.70,-5.71,-5.61,-5.87,4.37,4.37,4.38
146.32,10.04,5.70,10.04,5.69,-5.69,-5.62,-5.83,4.35,4.35,4.34
147.78,9.98,5.67,9.98,5.68,-5.68,-5.63,-5.80,4.30,4.31,4.31
149.26,9.94,5.66,9.93,5.67,-5.67,-5.65,-5.77,4.27,4.27,4.28
150.75,9.88,5.66,9.89,5.66,-5.67,-5.66,-5.74,4.21,4.22,4.22
152.26,9.85,5.67,9.85,5.67,-5.67,-5.67,-5.71,4.18,4.18,4.18
153.78,9.82,5.67,9.82,5.68,-5.68,-5.69,-5.68,4.14,4.14,4.15
155.32,9.80,5.71,9.80,5.70,-5.70,-5.71,-5.65,4.10,4.10,4.09
156.88,9.77,5.71,9.77,5.72,-5.72,-5.73,-5.63,4.04,4.05,4.06
158.44,9.76,5.75,9.76,5.75,-5.76,-5.75,-5.61,4.00,4.00,4.01
160.03,9.75,5.79,9.75,5.79,-5.80,-5.78,-5.60,3.95,3.95,3.96
161.63,9.75,5.84,9.75,5.84,-5.84,-5.80,-5.59,3.91,3.91,3.91
163.24,9.75,5.88,9.75,5.89,-5.88,-5.83,-5.58,3.87,3.87,3.87
164.88,9.76,5.93,9.76,5.94,-5.93,-5.86,-5.57,3.83,3.83,3.83
166.53,9.77,5.99,9.77,5.99,-5.98,-5.89,-5.57,3.79,3.78,3.78
168.19,9.77,6.04,9.77,6.04,-6.04,-5.93,-5.57,3.73,3.74,3.73
169.87,9.77,6.09,9.77,6.09,-6.09,-5.96,-5.58,3.68,3.68,3.68
171.57,9.77,6.13,9.77,6.14,-6.14,-6.00,-5.59,3.63,3.63,3.64
173.29,9.77,6.19,9.77,6.19,-6.19,-6.04,-5.61,3.58,3.58,3.58
175.02,9.77,6.24,9.77,6.24,-6.25,-6.08,-5.63,3.52,3.52,3.53
176.77,9.77,6.30,9.77,6.30,-6.30,-6.12,-5.65,3.47,3.47,3.47
178.54,9.77,6.35,9.77,6.35,-6.35,-6.16,-5.68,3.42,3.42,3.42
180.32,9.77,6.41,9.77,6.41,-6.41,-6.21,-5.71,3.36,3.36,3.36
182.13,9.77,6.46,9.77,6.46,-6.46,-6.25,-5.74,3.31,3.31,3.31
183.95,9.77,6.52,9.77,6.52,-6.52,-6.30,-5.79,3.25,3.25,3.25
185.79,9.77,6.57,9.77,6.58,-6.58,-6.35,-5.83,3.19,3.19,3.20
187.65,9.77,6.64,9.77,6.64,-6.64,-6.40,-5.88,3.13,3.13,3.13
189.52,9.77,6.69,9.77,6.69,-6.69,-6.45,-5.93,3.08,3.08,3.08
191.42,9.77,6.74,9.77,6.75,-6.75,-6.50,-5.99,3.02,3.02,3.03
193.33,9.78,6.80,9.78,6.80,-6.81,-6.55,-6.05,2.97,2.97,2.98
195.27,9.79,6.86,9.79,6.86,-6.86,-6.61,-6.11,2.93,2.92,2.93
197.22,9.79,6.92,9.79,6.92,-6.92,-6.66,-6.18,2.87,2.87,2.87
199.19,9.79,6.97,9.79,6.97,-6.96,-6.71,-6.25,2.83,2.82,2.82
201.18,9.78,7.01,9.78,7.01,-7.01,-6.76,-6.32,2.77,2.77,2.77
203.19,9.77,7.03,9.77,7.04,-7.04,-6.82,-6.39,2.73,2.73,2.74
205.23,9.76,7.08,9.76,7.07,-7.07,-6.87,-6.47,2.69,2.69,2.68
207.28,9.74,7.08,9.74,7.09,-7.09,-6.92,-6.55,2.65,2.65,2.66
209.35,9.70,7.10,9.70,7.11,-7.10,-6.97,-6.63,2.60,2.60,2.60
211.44,9.66,7.11,9.66,7.11,-7.10,-7.01,-6.70,2.56,2.56,2.55
213.56,9.61,7.10,9.61,7.10,-7.10,-7.06,-6.78,2.51,2.51,2.51
215.69,9.57,7.08,9.56,7.08,-7.08,-7.10,-6.86,2.49,2.48,2.49
217.85,9.50,7.05,9.51,7.06,-7.06,-7.14,-6.94,2.44,2.45,2.45
220.03,9.45,7.04,9.45,7.04,-7.03,-7.17,-7.01,2.42,2.42,2.41
222.23,9.39,7.01,9.38,7.00,-6.99,-7.20,-7.09,2.40,2.39,2.38
224.45,9.30,6.94,9.30,6.95,-6.95,-7.23,-7.16,2.35,2.35,2.36
226.70,9.22,6.89,9.22,6.90,-6.91,-7.25,-7.22,2.31,2.31,2.33
228.96,9.15,6.85,9.16,6.85,-6.86,-7.27,-7.28,2.28,2.29,2.30
231.25,9.10,6.81,9.10,6.81,-6.82,-7.29,-7.33,2.28,2.28,2.29
233.57,9.05,6.78,9.04,6.77,-6.77,-7.29,-7.38,2.28,2.27,2.27
235.90,8.98,6.72,8.99,6.73,-6.72,-7.30,-7.42,2.26,2.27,2.26
238.26,8.93,6.68,8.93,6.68,-6.67,-7.29,-7.45,2.26,2.25,2.25
240.64,8.86,6.62,8.86,6.62,-6.62,-7.28,-7.47,2.24,2.24,2.24
243.05,8.81,6.57,8.81,6.57,-6.58,-7.27,-7.48,2.23,2.23,2.24
245.48,8.75,6.52,8.75,6.52,-6.53,-7.25,-7.49,2.22,2.22,2.23
247.93,8.70,6.47,8.70,6.48,-6.48,-7.22,-7.48,2.22,2.22,2.23
250.41,8.67,6.44,8.66,6.43,-6.44,-7.18,-7.46,2.23,2.23,2.23
252.92,8.62,6.38,8.63,6.39,-6.39,-7.15,-7.43,2.23,2.23,2.24
255.45,8.60,6.35,8.60,6.35,-6.35,-7.10,-7.39,2.25,2.25,2.25
258.00,8.56,6.30,8.56,6.31,-6.30,-7.05,-7.35,2.26,2.26,2.26
260.58,8.53,6.27,8.53,6.27,-6.26,-6.99,-7.29,2.27,2.27,2.26
263.19,8.49,6.22,8.49,6.22,-6.21,-6.93,-7.22,2.28,2.28,2.27
265.82,8.44,6.16,8.45,6.17,-6.16,-6.87,-7.14,2.28,2.28,2.28
268.48,8.41,6.11,8.41,6.11,-6.12,-6.80,-7.06,2.29,2.29,2.30
271.16,8.37,6.05,8.37,6.06,-6.07,-6.72,-6.96,2.30,2.30,2.32
273.87,8.33,6.01,8.34,6.01,-6.03,-6.64,-6.87,2.30,2.31,2.32
276.61,8.31,5.96,8.31,5.97,-5.98,-6.56,-6.76,2.33,2.33,2.35
279.38,8.29,5.94,8.29,5.94,-5.93,-6.48,-6.65,2.36,2.36,2.35
282.17,8.27,5.90,8.26,5.90,-5.88,-6.39,-6.53,2.39,2.39,2.37
284.99,8.23,5.85,8.22,5.85,-5.83,-6.30,-6.41,2.40,2.39,2.38
287.84,8.16,5.77,8.17,5.78,-5.78,-6.21,-6.29,2.38,2.39,2.39
290.72,8.11,5.71,8.12,5.71,-5.72,-6.12,-6.17,2.39,2.39,2.40
293.63,8.07,5.65,8.07,5.65,-5.67,-6.03,-6.04,2.40,2.40,2.42
296.57,8.04,5.60,8.04,5.61,-5.62,-5.94,-5.91,2.42,2.41,2.44
299.53,8.00,5.56,8.01,5.56,-5.57,-5.84,-5.78,2.43,2.44,2.44
302.53,7.98,5.53,7.98,5.53,-5.52,-5.75,-5.66,2.46,2.46,2.45
305.55,7.95,5.48,7.95,5.49,-5.47,-5.66,-5.53,2.48,2.48,2.47
308.61,7.92,5.44,7.91,5.43,-5.42,-5.57,-5.40,2.50,2.49,2.48
311.69,7.87,5.38,7.87,5.38,-5.38,-5.48,-5.28,2.49,2.49,2.49
314.81,7.83,5.31,7.83,5.33,-5.33,-5.39,-5.15,2.50,2.50,2.52
317.96,7.79,5.28,7.79,5.28,-5.29,-5.30,-5.03,2.50,2.50,2.51
321.14,7.75,5.23,7.75,5.24,-5.24,-5.22,-4.91,2.51,2.51,2.52
324.35,7.72,5.20,7.72,5.20,-5.20,-5.13,-4.79,2.52,2.52,2.52
327.59,7.68,5.15,7.68,5.16,-5.15,-5.05,-4.68,2.53,2.53,2.53
330.87,7.64,5.11,7.64,5.11,-5.11,-4.97,-4.56,2.53,2.53,2.53
334.18,7.60,5.07,7.60,5.07,-5.07,-4.90,-4.45,2.53,2.53,2.53
337.52,7.56,5.02,7.56,5.03,-5.02,-4.82,-4.34,2.54,2.54,2.54
340.90,7.52,4.98,7.52,4.98,-4.98,-4.75,-4.24,2.54,2.54,2.54
344.30,7.47,4.93,7.47,4.93,-4.93,-4.68,-4.14,2.54,2.54,2.54
347.75,7.42,4.88,7.42,4.88,-4.88,-4.62,-4.04,2.54,2.53,2.54
351.23,7.36,4.82,7.36,4.83,-4.84,-4.56,-3.94,2.52,2.53,2.54
354.74,7.31,4.77,7.31,4.78,-4.79,-4.50,-3.85,2.52,2.52,2.54
358.28,7.26,4.74,7.26,4.74,-4.74,-4.45,-3.76,2.52,2.52,2.52
361.87,7.22,4.70,7.21,4.70,-4.69,-4.40,-3.67,2.53,2.53,2.52
365.49,7.16,4.64,7.16,4.65,-4.64,-4.35,-3.59,2.52,2.52,2.52
369.14,7.10,4.59,7.10,4.59,-4.58,-4.31,-3.50,2.52,2.52,2.51
372.83,7.04,4.53,7.04,4.53,-4.53,-4.27,-3.43,2.51,2.50,2.51
376.56,6.97,4.47,6.97,4.47,-4.48,-4.23,-3.35,2.49,2.49,2.50
380.33,6.90,4.41,6.90,4.42,-4.43,-4.19,-3.27,2.47,2.48,2.49
384.13,6.84,4.36,6.84,4.37,-4.37,-4.16,-3.20,2.47,2.47,2.48
387.97,6.79,4.32,6.79,4.32,-4.31,-4.13,-3.13,2.48,2.47,2.47
391.85,6.73,4.27,6.73,4.27,-4.26,-4.10,-3.07,2.47,2.47,2.46
395.77,6.67,4.20,6.67,4.21,-4.20,-4.08,-3.00,2.47,2.47,2.47
399.73,6.60,4.14,6.60,4.14,-4.14,-4.05,-2.94,2.46,2.46,2.46
403.72,6.53,4.08,6.53,4.08,-4.08,-4.02,-2.88,2.45,2.45,2.45
407.76,6.45,4.01,6.46,4.01,-4.02,-4.00,-2.82,2.43,2.44,2.44
411.84,6.39,3.94,6.39,3.95,-3.95,-3.97,-2.77,2.44,2.43,2.45
415.96,6.32,3.89,6.32,3.88,-3.89,-3.94,-2.71,2.43,2.43,2.43
420.12,6.25,3.82,6.25,3.82,-3.82,-3.91,-2.66,2.43,2.43,2.43
424.32,6.17,3.74,6.18,3.76,-3.75,-3.87,-2.61,2.42,2.42,2.43
428.56,6.11,3.69,6.11,3.69,-3.68,-3.83,-2.55,2.43,2.42,2.42
432.85,6.04,3.62,6.04,3.62,-3.61,-3.78,-2.50,2.43,2.43,2.42
437.18,5.96,3.54,5.96,3.54,-3.54,-3.72,-2.46,2.42,2.43,2.42
441.55,5.88,3.45,5.88,3.46,-3.46,-3.66,-2.41,2.42,2.42,2.43
445.96,5.80,3.37,5.80,3.37,-3.38,-3.59,-2.36,2.42,2.42,2.43
450.42,5.71,3.29,5.72,3.29,-3.30,-3.51,-2.31,2.41,2.42,2.42
454.93,5.64,3.21,5.64,3.21,-3.21,-3.43,-2.26,2.43,2.42,2.43
459.48,5.56,3.13,5.56,3.13,-3.13,-3.33,-2.22,2.43,2.43,2.43
464.07,5.48,3.04,5.48,3.05,-3.05,-3.23,-2.17,2.43,2.44,2.44
468.71,5.41,2.96,5.40,2.96,-2.96,-3.13,-2.12,2.45,2.44,2.45
473.40,5.31,2.87,5.32,2.87,-2.87,-3.02,-2.07,2.44,2.44,2.44
478.13,5.23,2.78,5.23,2.78,-2.78,-2.90,-2.02,2.45,2.45,2.45
482.91,5.14,2.69,5.14,2.69,-2.69,-2.78,-1.97,2.45,2.45,2.45
487.74,5.05,2.59,5.05,2.59,-2.59,-2.65,-1.92,2.46,2.46,2.46
492.62,4.95,2.48,4.96,2.49,-2.49,-2.52,-1.87,2.46,2.47,2.47
497.55,4.86,2.39,4.86,2.39,-2.39,-2.39,-1.82,2.47,2.47,2.47
502.52,4.76,2.28,4.75,2.28,-2.28,-2.26,-1.77,2.48,2.48,2.48
507.55,4.64,2.16,4.65,2.17,-2.17,-2.12,-1.71,2.47,2.48,2.48
512.62,4.54,2.06,4.54,2.06,-2.06,-1.99,-1.66,2.48,2.48,2.48
517.75,4.43,1.94,4.42,1.94,-1.94,-1.85,-1.60,2.49,2.48,2.49
522.93,4.31,1.82,4.31,1.82,-1.83,-1.71,-1.54,2.48,2.48,2.49
528.16,4.19,1.70,4.20,1.71,-1.71,-1.58,-1.48,2.48,2.49,2.49
