frequency,raw,error,smoothed,error_smoothed,equalization,parametric_eq,fixed_band_eq,equalized_raw,equalized_smoothed,target
20.00,-7.33,-12.82,-7.30,-12.80,12.80,12.09,4.93,5.47,5.51,5.48
20.20,-7.24,-12.77,-7.22,-12.76,12.76,12.18,5.06,5.51,5.53,5.52
20.40,-7.15,-12.71,-7.15,-12.71,12.71,12.26,5.19,5.56,5.56,5.55
20.61,-7.05,-12.64,-7.07,-12.66,12.66,12.33,5.32,5.61,5.59,5.58
20.81,-6.96,-12.59,-7.00,-12.61,12.61,12.39,5.46,5.65,5.61,5.62
21.02,-6.87,-12.54,-6.92,-12.56,12.56,12.44,5.60,5.69,5.64,5.66
21.23,-6.82,-12.50,-6.85,-12.51,12.51,12.48,5.75,5.68,5.66,5.67
21.44,-6.77,-12.47,-6.77,-12.45,12.45,12.51,5.90,5.68,5.68,5.69
21.66,-6.71,-12.43,-6.70,-12.39,12.39,12.53,6.05,5.68,5.70,5.71
21.87,-6.66,-12.39,-6.62,-12.34,12.34,12.54,6.21,5.67,5.71,5.72
22.09,-6.59,-12.33,-6.55,-12.28,12.28,12.54,6.38,5.68,5.73,5.73
22.31,-6.49,-12.22,-6.47,-12.21,12.21,12.53,6.54,5.72,5.74,5.73
22.54,-6.39,-12.14,-6.40,-12.15,12.15,12.51,6.71,5.76,5.75,5.74
22.76,-6.29,-12.05,-6.33,-12.09,12.09,12.48,6.89,5.80,5.76,5.75
22.99,-6.19,-11.95,-6.26,-12.02,12.02,12.44,7.07,5.83,5.77,5.75
23.22,-6.14,-11.91,-6.18,-11.95,11.95,12.39,7.26,5.81,5.77,5.76
23.45,-6.09,-11.87,-6.10,-11.88,11.88,12.34,7.45,5.79,5.78,5.77
23.69,-6.04,-11.83,-6.02,-11.80,11.80,12.27,7.64,5.76,5.79,5.78
23.92,-5.99,-11.79,-5.93,-11.72,11.72,12.20,7.84,5.73,5.79,5.79
24.16,-5.90,-11.71,-5.85,-11.65,11.65,12.13,8.05,5.74,5.79,5.80
24.40,-5.80,-11.61,-5.77,-11.57,11.57,12.05,8.26,5.77,5.80,5.81
24.65,-5.70,-11.51,-5.69,-11.49,11.49,11.96,8.47,5.79,5.80,5.80
24.89,-5.59,-11.39,-5.62,-11.42,11.42,11.88,8.69,5.83,5.80,5.80
25.14,-5.51,-11.32,-5.55,-11.35,11.35,11.78,8.92,5.84,5.80,5.80
25.39,-5.44,-11.25,-5.47,-11.28,11.28,11.69,9.14,5.84,5.80,5.80
25.65,-5.37,-11.18,-5.40,-11.20,11.20,11.59,9.37,5.83,5.80,5.80
25.91,-5.31,-11.10,-5.32,-11.13,11.13,11.49,9.61,5.81,5.80,5.78
26.16,-5.24,-11.04,-5.25,-11.05,11.05,11.39,9.85,5.81,5.80,5.79
26.43,-5.18,-10.98,-5.19,-10.99,10.99,11.28,10.09,5.80,5.80,5.79
26.69,-5.12,-10.92,-5.13,-10.92,10.92,11.18,10.33,5.80,5.79,5.79
26.96,-5.06,-10.86,-5.07,-10.86,10.86,11.08,10.57,5.80,5.79,5.79
27.23,-5.00,-10.80,-5.01,-10.80,10.80,10.97,10.81,5.79,5.79,5.79
27.50,-4.94,-10.74,-4.94,-10.73,10.73,10.87,11.05,5.79,5.79,5.79
27.77,-4.88,-10.67,-4.87,-10.66,10.66,10.77,11.28,5.78,5.78,5.78
28.05,-4.82,-10.61,-4.80,-10.58,10.58,10.67,11.51,5.76,5.78,5.78
28.33,-4.75,-10.52,-4.72,-10.50,10.50,10.57,11.73,5.75,5.78,5.76
28.62,-4.69,-10.47,-4.64,-10.42,10.42,10.47,11.94,5.72,5.78,5.77
28.90,-4.62,-10.40,-4.55,-10.33,10.33,10.37,12.15,5.71,5.78,5.77
29.19,-4.51,-10.28,-4.47,-10.24,10.24,10.27,12.33,5.73,5.77,5.76
29.48,-4.38,-10.16,-4.38,-10.15,10.15,10.18,12.50,5.77,5.77,5.77
29.78,-4.24,-10.02,-4.29,-10.05,10.05,10.09,12.65,5.81,5.76,5.77
30.08,-4.12,-9.90,-4.20,-9.96,9.96,10.00,12.78,5.84,5.76,5.77
30.38,-4.06,-9.82,-4.11,-9.87,9.87,9.91,12.88,5.81,5.76,5.75
30.68,-3.99,-9.75,-4.03,-9.78,9.78,9.83,12.96,5.78,5.75,5.75
30.99,-3.92,-9.67,-3.94,-9.68,9.68,9.74,13.01,5.76,5.75,5.74
31.30,-3.85,-9.60,-3.85,-9.60,9.60,9.66,13.03,5.74,5.74,5.74
31.61,-3.78,-9.53,-3.77,-9.51,9.51,9.58,13.03,5.72,5.74,5.74
31.93,-3.71,-9.44,-3.69,-9.42,9.42,9.51,12.99,5.71,5.73,5.72
32.24,-3.64,-9.36,-3.61,-9.34,9.34,9.43,12.93,5.70,5.73,5.71
32.57,-3.57,-9.29,-3.54,-9.26,9.26,9.36,12.84,5.69,5.72,5.71
32.89,-3.50,-9.22,-3.48,-9.20,9.20,9.29,12.73,5.69,5.71,5.71
33.22,-3.42,-9.14,-3.42,-9.13,9.13,9.22,12.60,5.71,5.71,5.71
33.55,-3.34,-9.05,-3.36,-9.07,9.07,9.15,12.45,5.72,5.71,5.70
33.89,-3.26,-8.97,-3.30,-9.00,9.00,9.09,12.28,5.74,5.70,5.70
34.23,-3.19,-8.90,-3.24,-8.94,8.94,9.03,12.09,5.74,5.70,5.70
34.57,-3.14,-8.84,-3.18,-8.87,8.87,8.96,11.90,5.73,5.69,5.69
34.92,-3.08,-8.77,-3.12,-8.81,8.81,8.90,11.70,5.73,5.69,5.68
35.27,-3.05,-8.74,-3.06,-8.74,8.74,8.84,11.49,5.69,5.68,5.68
35.62,-3.03,-8.71,-3.00,-8.67,8.67,8.79,11.27,5.64,5.68,5.67
35.97,-3.00,-8.67,-2.93,-8.60,8.60,8.73,11.05,5.60,5.67,5.66
36.33,-2.93,-8.60,-2.87,-8.53,8.53,8.67,10.83,5.60,5.66,5.66
36.70,-2.85,-8.52,-2.80,-8.46,8.46,8.62,10.61,5.61,5.66,5.66
37.06,-2.77,-8.42,-2.74,-8.39,8.39,8.56,10.39,5.62,5.65,5.64
37.43,-2.68,-8.33,-2.68,-8.33,8.33,8.51,10.18,5.65,5.64,5.64
37.81,-2.59,-8.23,-2.62,-8.26,8.26,8.45,9.96,5.66,5.64,5.63
38.19,-2.51,-8.14,-2.55,-8.18,8.18,8.40,9.75,5.67,5.63,5.62
38.57,-2.42,-8.05,-2.48,-8.10,8.10,8.34,9.54,5.68,5.62,5.62
38.95,-2.33,-7.95,-2.40,-8.02,8.02,8.29,9.34,5.69,5.62,5.61
39.34,-2.31,-7.92,-2.33,-7.95,7.95,8.23,9.14,5.63,5.61,5.60
39.74,-2.30,-7.89,-2.27,-7.87,7.87,8.17,8.94,5.57,5.60,5.58
40.14,-2.26,-7.86,-2.20,-7.79,7.79,8.11,8.75,5.53,5.59,5.59
40.54,-2.18,-7.77,-2.13,-7.72,7.72,8.05,8.57,5.53,5.58,5.58
40.94,-2.10,-7.69,-2.08,-7.65,7.65,7.99,8.39,5.55,5.57,5.58
41.35,-2.01,-7.58,-2.03,-7.58,7.58,7.92,8.22,5.57,5.56,5.56
41.76,-1.91,-7.46,-1.97,-7.51,7.51,7.86,8.05,5.60,5.54,5.54
42.18,-1.86,-7.40,-1.91,-7.43,7.43,7.79,7.88,5.57,5.52,5.53
42.60,-1.86,-7.37,-1.86,-7.36,7.36,7.72,7.73,5.50,5.49,5.50
43.03,-1.85,-7.35,-1.81,-7.28,7.28,7.65,7.57,5.43,5.47,5.49
43.46,-1.76,-7.23,-1.76,-7.21,7.21,7.57,7.43,5.45,5.44,5.46
43.90,-1.66,-7.08,-1.71,-7.13,7.13,7.50,7.29,5.46,5.42,5.41
44.33,-1.64,-7.03,-1.65,-7.05,7.05,7.42,7.15,5.40,5.39,5.38
44.78,-1.64,-7.00,-1.60,-6.97,6.97,7.34,7.02,5.32,5.36,5.35
45.23,-1.59,-6.92,-1.55,-6.89,6.89,7.26,6.89,5.30,5.34,5.32
45.68,-1.48,-6.78,-1.51,-6.82,6.82,7.17,6.77,5.34,5.31,5.29
46.13,-1.41,-6.69,-1.45,-6.74,6.74,7.08,6.65,5.33,5.29,5.27
46.60,-1.41,-6.68,-1.39,-6.66,6.66,6.99,6.54,5.25,5.27,5.26
47.06,-1.40,-6.65,-1.33,-6.58,6.58,6.90,6.43,5.18,5.26,5.24
47.53,-1.29,-6.54,-1.26,-6.51,6.51,6.81,6.33,5.22,5.24,5.24
48.01,-1.18,-6.43,-1.20,-6.43,6.43,6.71,6.23,5.25,5.24,5.24
48.49,-1.12,-6.35,-1.13,-6.36,6.36,6.62,6.13,5.24,5.23,5.22
48.97,-1.05,-6.27,-1.06,-6.29,6.29,6.52,6.04,5.24,5.23,5.21
49.46,-1.00,-6.21,-0.99,-6.21,6.21,6.42,5.95,5.21,5.22,5.20
49.96,-0.95,-6.16,-0.92,-6.14,6.14,6.32,5.87,5.19,5.22,5.20
50.46,-0.84,-6.06,-0.86,-6.08,6.08,6.22,5.79,5.24,5.22,5.21
50.96,-0.73,-5.96,-0.80,-6.01,6.01,6.12,5.71,5.28,5.21,5.22
51.47,-0.72,-5.94,-0.74,-5.94,5.94,6.02,5.64,5.22,5.20,5.21
51.99,-0.72,-5.92,-0.69,-5.87,5.87,5.91,5.56,5.15,5.18,5.19
52.51,-0.61,-5.80,-0.63,-5.80,5.80,5.81,5.49,5.18,5.16,5.18
53.03,-0.50,-5.66,-0.58,-5.72,5.72,5.71,5.43,5.22,5.14,5.15
53.56,-0.50,-5.63,-0.53,-5.63,5.63,5.60,5.36,5.13,5.11,5.12
54.10,-0.50,-5.59,-0.48,-5.55,5.55,5.50,5.30,5.05,5.07,5.08
54.64,-0.50,-5.54,-0.43,-5.46,5.46,5.39,5.24,4.96,5.03,5.03
55.18,-0.46,-5.45,-0.38,-5.37,5.37,5.29,5.17,4.91,4.99,4.98
55.74,-0.33,-5.27,-0.33,-5.27,5.27,5.19,5.12,4.93,4.94,4.93
56.29,-0.27,-5.16,-0.28,-5.16,5.16,5.09,5.06,4.89,4.88,4.88
56.86,-0.27,-5.10,-0.23,-5.05,5.05,4.99,5.00,4.78,4.82,4.82
57.42,-0.17,-4.92,-0.18,-4.94,4.94,4.89,4.94,4.77,4.76,4.75
58.00,-0.04,-4.74,-0.13,-4.83,4.83,4.79,4.88,4.79,4.70,4.69
58.58,-0.04,-4.68,-0.09,-4.73,4.73,4.69,4.82,4.69,4.64,4.63
59.16,-0.04,-4.63,-0.04,-4.62,4.62,4.59,4.77,4.57,4.58,4.58
59.76,-0.04,-4.57,0.02,-4.50,4.50,4.49,4.71,4.46,4.52,4.52
60.35,0.04,-4.42,0.08,-4.38,4.38,4.40,4.65,4.42,4.45,4.45
60.96,0.18,-4.23,0.14,-4.26,4.26,4.30,4.59,4.44,4.39,4.40
61.57,0.19,-4.15,0.18,-4.15,4.15,4.21,4.52,4.34,4.34,4.33
62.18,0.19,-4.08,0.22,-4.06,4.06,4.12,4.46,4.25,4.28,4.26
62.80,0.19,-4.04,0.25,-3.97,3.97,4.03,4.40,4.16,4.23,4.22
63.43,0.23,-3.94,0.28,-3.90,3.90,3.94,4.33,4.12,4.17,4.16
64.07,0.29,-3.84,0.29,-3.84,3.84,3.85,4.26,4.13,4.13,4.12
64.71,0.38,-3.70,0.29,-3.79,3.79,3.77,4.20,4.17,4.08,4.07
65.35,0.42,-3.61,0.30,-3.74,3.74,3.68,4.13,4.16,4.04,4.02
66.01,0.42,-3.58,0.31,-3.69,3.69,3.60,4.06,4.11,4.00,3.99
66.67,0.42,-3.54,0.32,-3.64,3.64,3.52,3.98,4.06,3.96,3.95
67.33,0.34,-3.59,0.32,-3.61,3.61,3.44,3.91,3.94,3.92,3.92
68.01,0.19,-3.71,0.31,-3.58,3.58,3.36,3.84,3.77,3.89,3.89
68.69,0.19,-3.68,0.31,-3.55,3.55,3.28,3.76,3.74,3.86,3.86
69.37,0.19,-3.64,0.30,-3.53,3.53,3.21,3.69,3.71,3.83,3.82
70.07,0.19,-3.61,0.30,-3.50,3.50,3.13,3.61,3.69,3.80,3.79
70.77,0.19,-3.60,0.29,-3.48,3.48,3.06,3.54,3.67,3.77,3.78
71.48,0.30,-3.45,0.29,-3.45,3.45,2.99,3.46,3.75,3.74,3.74
72.19,0.42,-3.31,0.28,-3.43,3.43,2.91,3.38,3.85,3.71,3.72
72.91,0.42,-3.27,0.26,-3.42,3.42,2.85,3.31,3.84,3.68,3.68
73.64,0.27,-3.39,0.24,-3.41,3.41,2.78,3.23,3.67,3.65,3.65
74.38,0.19,-3.44,0.22,-3.40,3.40,2.71,3.16,3.59,3.62,3.62
75.12,0.19,-3.41,0.18,-3.41,3.41,2.65,3.08,3.60,3.59,3.59
75.87,0.19,-3.38,0.12,-3.44,3.44,2.58,3.01,3.63,3.56,3.56
76.63,0.19,-3.35,0.07,-3.47,3.47,2.52,2.93,3.66,3.54,3.53
77.40,0.16,-3.35,0.01,-3.50,3.50,2.46,2.86,3.65,3.51,3.50
78.17,0.09,-3.39,-0.03,-3.52,3.52,2.40,2.79,3.60,3.49,3.47
78.95,-0.03,-3.50,-0.07,-3.54,3.54,2.34,2.72,3.50,3.46,3.46
79.74,-0.21,-3.66,-0.10,-3.54,3.54,2.28,2.65,3.33,3.45,3.44
80.54,-0.27,-3.70,-0.09,-3.52,3.52,2.22,2.58,3.25,3.43,3.42
81.35,-0.27,-3.68,-0.06,-3.48,3.48,2.16,2.51,3.20,3.42,3.40
82.16,-0.25,-3.66,-0.00,-3.41,3.41,2.11,2.45,3.16,3.41,3.40
82.98,-0.17,-3.58,0.07,-3.33,3.33,2.06,2.38,3.16,3.40,3.40
83.81,0.09,-3.31,0.16,-3.24,3.24,2.00,2.32,3.33,3.40,3.39
84.65,0.33,-3.06,0.26,-3.14,3.14,1.95,2.26,3.46,3.40,3.38
85.50,0.48,-2.92,0.38,-3.01,3.01,1.90,2.19,3.49,3.40,3.39
86.35,0.58,-2.82,0.51,-2.88,2.88,1.85,2.13,3.46,3.40,3.39
87.22,0.70,-2.70,0.65,-2.75,2.75,1.80,2.08,3.45,3.40,3.39
88.09,0.94,-2.46,0.79,-2.61,2.61,1.75,2.02,3.55,3.40,3.39
88.97,1.09,-2.33,0.92,-2.48,2.48,1.70,1.96,3.57,3.40,3.41
89.86,1.10,-2.32,1.04,-2.36,2.36,1.65,1.91,3.46,3.40,3.41
90.76,1.12,-2.28,1.14,-2.26,2.26,1.61,1.86,3.38,3.40,3.39
91.66,1.26,-2.15,1.22,-2.17,2.17,1.56,1.80,3.42,3.39,3.40
92.58,1.33,-2.05,1.29,-2.09,2.09,1.52,1.75,3.42,3.38,3.37
93.51,1.33,-2.06,1.34,-2.04,2.04,1.47,1.70,3.36,3.37,3.38
94.44,1.33,-2.04,1.38,-1.98,1.98,1.43,1.65,3.31,3.36,3.36
95.39,1.33,-2.03,1.42,-1.93,1.93,1.39,1.61,3.25,3.34,3.35
96.34,1.36,-1.96,1.45,-1.88,1.88,1.34,1.56,3.23,3.32,3.31
97.30,1.47,-1.83,1.47,-1.83,1.83,1.30,1.51,3.30,3.30,3.29
98.28,1.55,-1.73,1.49,-1.79,1.79,1.26,1.47,3.33,3.28,3.27
99.26,1.55,-1.70,1.53,-1.72,1.72,1.22,1.43,3.27,3.25,3.24
100.25,1.55,-1.67,1.57,-1.65,1.65,1.18,1.38,3.20,3.22,3.21
101.25,1.55,-1.64,1.59,-1.59,1.59,1.14,1.34,3.14,3.18,3.18
102.27,1.55,-1.60,1.60,-1.54,1.54,1.10,1.30,3.09,3.14,3.14
103.29,1.55,-1.55,1.59,-1.51,1.51,1.06,1.26,3.05,3.09,3.09
104.32,1.55,-1.51,1.55,-1.49,1.49,1.03,1.22,3.04,3.04,3.05
105.37,1.55,-1.46,1.50,-1.49,1.49,0.99,1.18,3.04,2.99,3.00
106.42,1.55,-1.41,1.42,-1.51,1.51,0.95,1.14,3.06,2.93,2.95
107.48,1.55,-1.34,1.34,-1.53,1.53,0.91,1.11,3.08,2.87,2.88
108.56,1.55,-1.26,1.26,-1.54,1.54,0.88,1.07,3.09,2.81,2.80
109.64,1.41,-1.33,1.19,-1.55,1.55,0.84,1.03,2.95,2.74,2.73
110.74,1.15,-1.53,1.13,-1.54,1.54,0.80,1.00,2.68,2.66,2.67
111.85,0.90,-1.71,1.08,-1.51,1.51,0.77,0.96,2.41,2.59,2.60
112.97,0.85,-1.67,1.05,-1.47,1.47,0.73,0.93,2.32,2.52,2.51
114.10,0.64,-1.82,1.03,-1.41,1.41,0.70,0.89,2.05,2.45,2.45
115.24,0.67,-1.71,1.03,-1.35,1.35,0.66,0.86,2.02,2.38,2.37
116.39,0.82,-1.48,1.04,-1.27,1.27,0.63,0.83,2.09,2.31,2.29
117.55,1.02,-1.22,1.07,-1.18,1.18,0.59,0.79,2.20,2.25,2.23
118.73,1.27,-0.90,1.11,-1.08,1.08,0.56,0.76,2.35,2.19,2.16
119.92,1.33,-0.80,1.16,-0.98,0.98,0.52,0.73,2.30,2.14,2.12
121.12,1.34,-0.73,1.23,-0.86,0.86,0.49,0.69,2.20,2.09,2.06
122.33,1.48,-0.55,1.30,-0.74,0.74,0.45,0.66,2.22,2.04,2.02
123.55,1.55,-0.46,1.38,-0.62,0.62,0.42,0.63,2.16,2.00,2.00
124.79,1.55,-0.42,1.45,-0.51,0.51,0.38,0.59,2.05,1.96,1.96
126.03,1.55,-0.38,1.51,-0.41,0.41,0.35,0.56,1.96,1.92,1.92
127.29,1.55,-0.35,1.56,-0.33,0.33,0.31,0.53,1.87,1.89,1.89
128.57,1.55,-0.31,1.59,-0.26,0.26,0.28,0.50,1.81,1.85,1.85
129.85,1.55,-0.28,1.60,-0.22,0.22,0.24,0.46,1.77,1.82,1.82
131.15,1.55,-0.25,1.61,-0.18,0.18,0.21,0.43,1.73,1.79,1.79
132.46,1.55,-0.22,1.61,-0.15,0.15,0.17,0.40,1.70,1.76,1.76
133.79,1.55,-0.19,1.62,-0.10,0.10,0.13,0.36,1.65,1.72,1.73
135.12,1.56,-0.13,1.64,-0.05,0.05,0.10,0.33,1.61,1.69,1.68
136.48,1.72,0.06,1.66,0.01,-0.01,0.06,0.29,1.71,1.66,1.65
137.84,1.78,0.15,1.69,0.07,-0.07,0.03,0.26,1.71,1.62,1.62
139.22,1.78,0.20,1.73,0.14,-0.14,-0.01,0.23,1.64,1.59,1.57
140.61,1.78,0.25,1.77,0.22,-0.22,-0.05,0.19,1.56,1.55,1.52
142.02,1.78,0.27,1.81,0.31,-0.31,-0.09,0.16,1.47,1.51,1.50
143.44,1.78,0.31,1.86,0.40,-0.40,-0.12,0.12,1.38,1.46,1.46
144.87,1.78,0.35,1.89,0.48,-0.48,-0.16,0.09,1.29,1.41,1.42
146.32,1.93,0.55,1.93,0.58,-0.58,-0.20,0.05,1.35,1.35,1.37
147.78,2.01,0.67,1.96,0.66,-0.66,-0.24,0.01,1.34,1.30,1.33
149.26,2.01,0.74,1.97,0.74,-0.74,-0.28,-0.02,1.27,1.23,1.26
150.75,2.01,0.82,1.96,0.79,-0.79,-0.32,-0.06,1.21,1.17,1.18
152.26,2.01,0.89,1.94,0.84,-0.84,-0.36,-0.10,1.17,1.10,1.11
153.78,2.01,0.96,1.92,0.89,-0.89,-0.40,-0.14,1.11,1.02,1.04
155.32,2.01,1.06,1.90,0.95,-0.95,-0.44,-0.17,1.06,0.95,0.94
156.88,1.99,1.11,1.88,1.00,-1.00,-0.48,-0.21,0.99,0.88,0.87
158.44,1.84,1.03,1.85,1.03,-1.03,-0.53,-0.25,0.80,0.81,0.80
160.03,1.78,1.05,1.81,1.06,-1.06,-0.57,-0.29,0.71,0.75,0.72
161.63,1.78,1.11,1.78,1.09,-1.09,-0.61,-0.33,0.69,0.69,0.66
163.24,1.64,1.02,1.75,1.11,-1.11,-0.66,-0.37,0.52,0.64,0.61
164.88,1.55,0.97,1.73,1.14,-1.14,-0.70,-0.41,0.41,0.59,0.57
166.53,1.59,1.05,1.73,1.17,-1.17,-0.75,-0.46,0.41,0.56,0.53
168.19,1.71,1.20,1.73,1.20,-1.20,-0.80,-0.50,0.50,0.53,0.50
169.87,1.78,1.28,1.75,1.23,-1.23,-0.84,-0.54,0.54,0.51,0.49
171.57,1.78,1.29,1.77,1.27,-1.27,-0.89,-0.59,0.51,0.50,0.48
173.29,1.78,1.29,1.79,1.30,-1.30,-0.94,-0.63,0.48,0.50,0.48
175.02,1.78,1.27,1.83,1.34,-1.34,-0.99,-0.68,0.44,0.49,0.50
176.77,1.97,1.47,1.87,1.38,-1.38,-1.03,-0.73,0.59,0.49,0.49
178.54,2.01,1.50,1.91,1.42,-1.42,-1.08,-0.77,0.59,0.49,0.50
180.32,2.01,1.49,1.94,1.45,-1.45,-1.13,-0.82,0.56,0.49,0.51
182.13,2.01,1.49,1.98,1.49,-1.49,-1.18,-0.87,0.52,0.49,0.51
183.95,2.01,1.49,2.00,1.51,-1.51,-1.23,-0.92,0.50,0.49,0.51
185.79,2.01,1.50,2.01,1.53,-1.53,-1.28,-0.97,0.48,0.48,0.50
187.65,2.01,1.52,2.01,1.54,-1.54,-1.33,-1.02,0.47,0.48,0.48
189.52,2.01,1.54,2.02,1.56,-1.56,-1.38,-1.07,0.45,0.47,0.46
191.42,2.01,1.56,2.03,1.57,-1.57,-1.42,-1.12,0.43,0.45,0.44
193.33,2.01,1.58,2.03,1.59,-1.59,-1.47,-1.17,0.42,0.43,0.42
195.27,2.01,1.58,2.02,1.60,-1.60,-1.52,-1.23,0.40,0.42,0.42
197.22,2.01,1.60,2.01,1.61,-1.61,-1.56,-1.28,0.40,0.40,0.40
199.19,2.01,1.64,2.01,1.63,-1.63,-1.61,-1.33,0.38,0.38,0.36
201.18,2.01,1.64,2.01,1.65,-1.65,-1.65,-1.38,0.36,0.36,0.36
203.19,2.01,1.66,2.01,1.67,-1.67,-1.69,-1.44,0.34,0.34,0.34
205.23,2.01,1.69,2.01,1.68,-1.68,-1.73,-1.49,0.32,0.32,0.31
207.28,2.01,1.69,2.01,1.70,-1.70,-1.77,-1.54,0.31,0.31,0.31
209.35,2.01,1.71,2.01,1.72,-1.72,-1.81,-1.59,0.29,0.29,0.29
211.44,2.01,1.74,2.01,1.73,-1.73,-1.84,-1.65,0.28,0.28,0.26
213.56,2.01,1.74,2.01,1.74,-1.74,-1.87,-1.70,0.26,0.26,0.26
215.69,2.01,1.74,2.01,1.76,-1.76,-1.90,-1.74,0.25,0.25,0.26
217.85,2.01,1.77,2.01,1.77,-1.77,-1.93,-1.79,0.24,0.24,0.23
220.03,2.01,1.78,2.01,1.78,-1.78,-1.95,-1.84,0.22,0.22,0.22
222.23,2.01,1.80,2.01,1.79,-1.79,-1.97,-1.88,0.21,0.21,0.20
224.45,2.01,1.80,2.01,1.80,-1.80,-1.99,-1.92,0.21,0.21,0.20
226.70,2.01,1.80,2.01,1.81,-1.81,-2.00,-1.96,0.20,0.20,0.20
228.96,2.01,1.81,2.01,1.82,-1.82,-2.01,-2.00,0.19,0.19,0.19
231.25,2.01,1.81,2.01,1.82,-1.82,-2.02,-2.03,0.19,0.19,0.19
233.57,2.01,1.82,2.01,1.82,-1.82,-2.02,-2.06,0.18,0.18,0.18
235.90,2.01,1.83,2.01,1.83,-1.83,-2.02,-2.09,0.18,0.18,0.17
238.26,2.01,1.83,2.01,1.83,-1.83,-2.02,-2.11,0.18,0.18,0.17
240.64,2.01,1.83,2.01,1.83,-1.83,-2.01,-2.13,0.18,0.18,0.17
243.05,2.01,1.82,2.01,1.82,-1.82,-2.00,-2.14,0.19,0.19,0.18
245.48,2.01,1.81,2.01,1.82,-1.82,-1.98,-2.15,0.19,0.19,0.19
247.93,2.01,1.80,2.01,1.82,-1.82,-1.96,-2.16,0.19,0.19,0.20
250.41,2.01,1.81,2.02,1.82,-1.82,-1.94,-2.16,0.19,0.20,0.19
252.92,2.01,1.80,2.03,1.82,-1.82,-1.92,-2.16,0.19,0.21,0.20
255.45,2.01,1.77,2.02,1.81,-1.81,-1.89,-2.15,0.20,0.22,0.23
258.00,2.01,1.77,2.02,1.79,-1.79,-1.86,-2.14,0.22,0.23,0.23
260.58,2.01,1.77,2.01,1.77,-1.77,-1.83,-2.13,0.24,0.24,0.23
263.19,2.01,1.75,1.99,1.74,-1.74,-1.80,-2.11,0.27,0.25,0.25
265.82,2.01,1.75,1.98,1.71,-1.71,-1.76,-2.09,0.30,0.27,0.25
268.48,2.01,1.72,1.96,1.68,-1.68,-1.72,-2.06,0.33,0.28,0.28
271.16,2.01,1.71,1.94,1.64,-1.64,-1.69,-2.03,0.37,0.30,0.29
273.87,2.01,1.70,1.92,1.60,-1.60,-1.65,-2.00,0.41,0.32,0.30
276.61,1.88,1.53,1.89,1.55,-1.55,-1.60,-1.96,0.32,0.34,0.34
279.38,1.80,1.44,1.87,1.51,-1.51,-1.56,-1.92,0.29,0.36,0.35
282.17,1.78,1.39,1.85,1.46,-1.46,-1.52,-1.88,0.32,0.39,0.38
284.99,1.78,1.36,1.83,1.42,-1.42,-1.48,-1.84,0.36,0.41,0.41
287.84,1.78,1.34,1.81,1.37,-1.37,-1.43,-1.80,0.41,0.44,0.43
290.72,1.78,1.30,1.80,1.33,-1.33,-1.39,-1.75,0.45,0.47,0.47
293.63,1.78,1.28,1.80,1.30,-1.30,-1.34,-1.70,0.48,0.50,0.49
296.57,1.78,1.25,1.79,1.26,-1.26,-1.30,-1.65,0.51,0.52,0.52
299.53,1.78,1.22,1.78,1.23,-1.23,-1.25,-1.60,0.55,0.55,0.55
302.53,1.78,1.21,1.77,1.20,-1.20,-1.21,-1.55,0.58,0.57,0.56
305.55,1.78,1.17,1.76,1.17,-1.17,-1.17,-1.50,0.61,0.59,0.60
308.61,1.78,1.15,1.75,1.14,-1.14,-1.12,-1.45,0.63,0.61,0.62
311.69,1.78,1.14,1.74,1.12,-1.12,-1.08,-1.39,0.66,0.62,0.63
314.81,1.78,1.11,1.72,1.08,-1.08,-1.04,-1.34,0.69,0.64,0.66
317.96,1.78,1.11,1.70,1.05,-1.05,-0.99,-1.29,0.73,0.65,0.66
321.14,1.77,1.11,1.68,1.02,-1.02,-0.95,-1.24,0.75,0.66,0.65
324.35,1.60,0.93,1.66,0.99,-0.99,-0.91,-1.19,0.61,0.67,0.66
327.59,1.55,0.87,1.63,0.95,-0.95,-0.87,-1.14,0.59,0.68,0.67
330.87,1.55,0.86,1.61,0.92,-0.92,-0.83,-1.08,0.63,0.69,0.68
334.18,1.55,0.86,1.59,0.89,-0.89,-0.79,-1.03,0.66,0.70,0.68
337.52,1.55,0.85,1.57,0.86,-0.86,-0.75,-0.98,0.69,0.71,0.69
340.90,1.55,0.82,1.56,0.83,-0.83,-0.71,-0.94,0.71,0.72,0.72
344.30,1.55,0.81,1.54,0.81,-0.81,-0.67,-0.89,0.74,0.74,0.73
347.75,1.55,0.80,1.54,0.78,-0.78,-0.64,-0.84,0.77,0.76,0.74
351.23,1.55,0.77,1.53,0.75,-0.75,-0.60,-0.79,0.79,0.78,0.77
354.74,1.55,0.75,1.53,0.73,-0.73,-0.57,-0.74,0.82,0.80,0.79
358.28,1.55,0.72,1.53,0.71,-0.71,-0.53,-0.70,0.83,0.82,0.82
361.87,1.55,0.70,1.55,0.70,-0.70,-0.50,-0.65,0.85,0.84,0.84
365.49,1.55,0.68,1.55,0.68,-0.68,-0.46,-0.61,0.87,0.87,0.86
369.14,1.55,0.66,1.55,0.66,-0.66,-0.43,-0.56,0.89,0.89,0.88
372.83,1.55,0.63,1.55,0.64,-0.64,-0.40,-0.52,0.91,0.91,0.91
376.56,1.55,0.61,1.55,0.62,-0.62,-0.37,-0.48,0.93,0.93,0.93
380.33,1.55,0.58,1.55,0.60,-0.60,-0.33,-0.44,0.95,0.95,0.96
384.13,1.55,0.56,1.56,0.59,-0.59,-0.30,-0.39,0.96,0.97,0.98
387.97,1.55,0.55,1.56,0.58,-0.58,-0.27,-0.35,0.97,0.98,0.99
391.85,1.55,0.55,1.57,0.57,-0.57,-0.24,-0.31,0.97,1.00,0.99
395.77,1.55,0.54,1.58,0.57,-0.57,-0.21,-0.27,0.98,1.01,1.00
399.73,1.55,0.53,1.57,0.55,-0.55,-0.18,-0.23,1.00,1.02,1.01
403.72,1.55,0.52,1.56,0.53,-0.53,-0.16,-0.20,1.02,1.03,1.02
407.76,1.55,0.51,1.54,0.51,-0.51,-0.13,-0.16,1.04,1.03,1.03
411.84,1.55,0.50,1.51,0.47,-0.47,-0.10,-0.12,1.07,1.04,1.04
415.96,1.55,0.49,1.48,0.44,-0.44,-0.07,-0.08,1.11,1.04,1.05
420.12,1.55,0.49,1.44,0.40,-0.40,-0.05,-0.05,1.15,1.04,1.05
424.32,1.53,0.47,1.41,0.36,-0.36,-0.02,-0.01,1.17,1.05,1.05
428.56,1.39,0.33,1.36,0.31,-0.31,0.01,0.02,1.08,1.05,1.05
432.85,1.33,0.28,1.32,0.27,-0.27,0.03,0.06,1.06,1.05,1.04
437.18,1.22,0.16,1.28,0.22,-0.22,0.06,0.09,1.00,1.06,1.05
441.55,1.13,0.06,1.24,0.17,-0.17,0.09,0.13,0.96,1.06,1.06
445.96,1.10,0.03,1.20,0.13,-0.13,0.11,0.16,0.97,1.07,1.06
450.42,1.10,0.02,1.16,0.08,-0.08,0.14,0.19,1.02,1.08,1.07
454.93,1.10,0.01,1.13,0.04,-0.04,0.16,0.22,1.06,1.09,1.08
459.48,1.10,0.00,1.10,0.00,-0.00,0.19,0.25,1.10,1.10,1.09
464.07,1.10,-0.02,1.08,-0.03,0.03,0.21,0.28,1.13,1.12,1.11
468.71,1.10,-0.04,1.07,-0.06,0.06,0.24,0.31,1.16,1.13,1.13
473.40,1.10,-0.05,1.07,-0.08,0.08,0.26,0.34,1.18,1.15,1.14
478.13,1.10,-0.08,1.08,-0.09,0.09,0.28,0.37,1.19,1.18,1.17
482.91,1.10,-0.10,1.10,-0.10,0.10,0.31,0.39,1.20,1.20,1.19
487.74,1.10,-0.13,1.12,-0.11,0.11,0.33,0.42,1.20,1.22,1.22
492.62,1.10,-0.16,1.13,-0.12,0.12,0.36,0.45,1.21,1.25,1.25
497.55,1.10,-0.18,1.14,-0.13,0.13,0.38,0.47,1.23,1.27,1.27
502.52,1.10,-0.21,1.14,-0.15,0.15,0.41,0.49,1.25,1.30,1.30
507.55,1.10,-0.22,1.14,-0.18,0.18,0.43,0.52,1.28,1.32,1.31
512.62,1.10,-0.25,1.11,-0.23,0.23,0.45,0.54,1.33,1.34,1.34
517.75,1.10,-0.27,1.07,-0.30,0.30,0.48,0.56,1.39,1.37,1.36
522.93,1.10,-0.30,1.01,-0.38,0.38,0.50,0.58,1.48,1.39,1.39
528.16,1.10,-0.31,0.92,-0.48,0.48,0.53,0.60,1.58,1.40,1.40
