frequency,raw,error,smoothed,error_smoothed,equalization,parametric_eq,fixed_band_eq,equalized_raw,equalized_smoothed,target
20.00,-12.60,-18.97,-12.60,-18.99,18.99,19.14,7.81,6.40,6.39,6.37
20.20,-12.49,-18.90,-12.48,-18.91,18.91,19.02,7.98,6.42,6.43,6.41
20.40,-12.37,-18.82,-12.37,-18.83,18.83,18.90,8.15,6.46,6.46,6.45
20.61,-12.26,-18.74,-12.25,-18.74,18.74,18.78,8.32,6.48,6.48,6.48
20.81,-12.14,-18.66,-12.14,-18.65,18.65,18.67,8.50,6.52,6.51,6.52
21.02,-12.03,-18.59,-12.02,-18.56,18.56,18.55,8.69,6.53,6.54,6.56
21.23,-11.91,-18.49,-11.91,-18.47,18.47,18.44,8.87,6.56,6.56,6.58
21.44,-11.78,-18.39,-11.79,-18.37,18.37,18.32,9.07,6.59,6.59,6.60
21.66,-11.68,-18.30,-11.67,-18.28,18.28,18.21,9.27,6.60,6.61,6.62
21.87,-11.55,-18.19,-11.55,-18.18,18.18,18.09,9.47,6.62,6.63,6.63
22.09,-11.43,-18.09,-11.43,-18.08,18.08,17.98,9.68,6.64,6.64,6.65
22.31,-11.31,-17.98,-11.31,-17.98,17.98,17.86,9.90,6.66,6.66,6.66
22.54,-11.20,-17.87,-11.19,-17.87,17.87,17.75,10.12,6.67,6.67,6.67
22.76,-11.08,-17.76,-11.07,-17.76,17.76,17.64,10.34,6.68,6.68,6.68
22.99,-10.96,-17.64,-10.95,-17.65,17.65,17.52,10.58,6.69,6.69,6.68
23.22,-10.83,-17.52,-10.83,-17.53,17.53,17.41,10.82,6.71,6.70,6.69
23.45,-10.71,-17.41,-10.71,-17.42,17.42,17.30,11.06,6.71,6.71,6.70
23.69,-10.59,-17.30,-10.59,-17.31,17.31,17.19,11.32,6.72,6.72,6.71
23.92,-10.46,-17.19,-10.47,-17.19,17.19,17.07,11.58,6.73,6.73,6.72
24.16,-10.35,-17.09,-10.34,-17.08,17.08,16.96,11.85,6.73,6.74,6.74
24.40,-10.22,-16.99,-10.22,-16.97,16.97,16.85,12.13,6.74,6.75,6.76
24.65,-10.10,-16.85,-10.10,-16.85,16.85,16.74,12.41,6.76,6.75,6.75
24.89,-9.97,-16.74,-9.98,-16.74,16.74,16.63,12.70,6.77,6.77,6.76
25.14,-9.85,-16.63,-9.85,-16.63,16.63,16.51,13.01,6.77,6.78,6.77
25.39,-9.72,-16.51,-9.73,-16.52,16.52,16.40,13.32,6.79,6.79,6.78
25.65,-9.61,-16.41,-9.61,-16.40,16.40,16.29,13.63,6.80,6.80,6.80
25.91,-9.49,-16.29,-9.48,-16.29,16.29,16.18,13.96,6.80,6.81,6.80
26.16,-9.35,-16.17,-9.36,-16.18,16.18,16.07,14.30,6.82,6.82,6.81
26.43,-9.24,-16.06,-9.24,-16.06,16.06,15.96,14.64,6.82,6.82,6.82
26.69,-9.11,-15.94,-9.11,-15.95,15.95,15.85,14.99,6.84,6.83,6.83
26.96,-8.99,-15.84,-8.99,-15.83,15.83,15.74,15.35,6.84,6.84,6.85
27.23,-8.87,-15.73,-8.86,-15.72,15.72,15.62,15.72,6.85,6.85,6.86
27.50,-8.74,-15.60,-8.74,-15.60,15.60,15.51,16.09,6.86,6.86,6.86
27.77,-8.61,-15.48,-8.62,-15.49,15.49,15.40,16.46,6.87,6.87,6.86
28.05,-8.50,-15.38,-8.49,-15.37,15.37,15.29,16.84,6.87,6.88,6.88
28.33,-8.37,-15.25,-8.37,-15.25,15.25,15.18,17.21,6.89,6.89,6.88
28.62,-8.25,-15.14,-8.24,-15.14,15.14,15.07,17.57,6.89,6.89,6.89
28.90,-8.12,-15.02,-8.12,-15.02,15.02,14.95,17.93,6.90,6.90,6.90
29.19,-8.00,-14.90,-7.99,-14.90,14.90,14.84,18.26,6.90,6.91,6.90
29.48,-7.87,-14.80,-7.87,-14.78,14.78,14.73,18.58,6.92,6.92,6.93
29.78,-7.74,-14.66,-7.74,-14.66,14.66,14.62,18.86,6.93,6.92,6.92
30.08,-7.62,-14.55,-7.62,-14.55,14.55,14.51,19.10,6.93,6.93,6.93
30.38,-7.49,-14.42,-7.49,-14.43,14.43,14.39,19.29,6.94,6.94,6.93
30.68,-7.37,-14.32,-7.37,-14.31,14.31,14.28,19.43,6.95,6.94,6.95
30.99,-7.25,-14.20,-7.24,-14.20,14.20,14.17,19.51,6.95,6.95,6.95
31.30,-7.12,-14.07,-7.12,-14.08,14.08,14.06,19.53,6.96,6.96,6.95
31.61,-7.00,-13.96,-7.00,-13.97,13.97,13.95,19.49,6.97,6.97,6.96
31.93,-6.88,-13.85,-6.88,-13.85,13.85,13.83,19.38,6.98,6.97,6.97
32.24,-6.75,-13.73,-6.76,-13.74,13.74,13.72,19.22,6.99,6.98,6.97
32.57,-6.64,-13.63,-6.64,-13.63,13.63,13.61,19.01,6.99,6.99,6.99
32.89,-6.53,-13.52,-6.52,-13.52,13.52,13.49,18.76,6.99,6.99,6.99
33.22,-6.41,-13.41,-6.40,-13.41,13.41,13.38,18.47,7.00,7.00,7.00
33.55,-6.28,-13.30,-6.28,-13.29,13.29,13.27,18.16,7.01,7.01,7.01
33.89,-6.18,-13.20,-6.17,-13.18,13.18,13.16,17.83,7.01,7.02,7.02
34.23,-6.06,-13.08,-6.05,-13.07,13.07,13.04,17.49,7.01,7.02,7.02
34.57,-5.94,-12.97,-5.93,-12.96,12.96,12.93,17.13,7.02,7.03,7.03
34.92,-5.82,-12.85,-5.82,-12.85,12.85,12.82,16.78,7.03,7.03,7.03
35.27,-5.70,-12.74,-5.70,-12.74,12.74,12.71,16.43,7.04,7.04,7.04
35.62,-5.58,-12.62,-5.58,-12.63,12.63,12.59,16.08,7.05,7.04,7.04
35.97,-5.45,-12.50,-5.47,-12.51,12.51,12.48,15.73,7.06,7.05,7.04
36.33,-5.35,-12.40,-5.35,-12.40,12.40,12.37,15.39,7.05,7.05,7.05
36.70,-5.24,-12.28,-5.24,-12.28,12.28,12.25,15.06,7.05,7.05,7.04
37.06,-5.12,-12.18,-5.12,-12.17,12.17,12.14,14.73,7.04,7.05,7.05
37.43,-5.00,-12.06,-5.01,-12.06,12.06,12.03,14.42,7.05,7.05,7.05
37.81,-4.90,-11.95,-4.89,-11.94,11.94,11.92,14.11,7.04,7.05,7.05
38.19,-4.79,-11.84,-4.78,-11.83,11.83,11.81,13.81,7.04,7.05,7.05
38.57,-4.67,-11.71,-4.67,-11.71,11.71,11.69,13.52,7.04,7.04,7.04
38.95,-4.55,-11.60,-4.55,-11.60,11.60,11.58,13.24,7.04,7.04,7.04
39.34,-4.44,-11.48,-4.44,-11.48,11.48,11.47,12.97,7.04,7.04,7.03
39.74,-4.34,-11.37,-4.33,-11.37,11.37,11.36,12.71,7.03,7.04,7.03
40.14,-4.22,-11.25,-4.22,-11.26,11.26,11.25,12.45,7.04,7.03,7.03
40.54,-4.11,-11.14,-4.11,-11.14,11.14,11.14,12.21,7.04,7.03,7.03
40.94,-4.01,-11.03,-4.00,-11.03,11.03,11.03,11.97,7.02,7.03,7.02
41.35,-3.89,-10.91,-3.89,-10.92,10.92,10.92,11.74,7.03,7.03,7.02
41.76,-3.78,-10.80,-3.78,-10.80,10.80,10.81,11.52,7.03,7.02,7.02
42.18,-3.68,-10.70,-3.67,-10.69,10.69,10.70,11.30,7.02,7.02,7.02
42.60,-3.57,-10.59,-3.56,-10.58,10.58,10.59,11.09,7.02,7.02,7.02
43.03,-3.47,-10.49,-3.46,-10.47,10.47,10.48,10.89,7.00,7.01,7.02
43.46,-3.36,-10.38,-3.35,-10.36,10.36,10.37,10.70,7.00,7.01,7.02
43.90,-3.25,-10.25,-3.24,-10.25,10.25,10.26,10.52,7.00,7.01,7.00
44.33,-3.14,-10.14,-3.14,-10.14,10.14,10.15,10.34,7.01,7.01,7.00
44.78,-3.03,-10.02,-3.03,-10.03,10.03,10.04,10.16,7.01,7.00,6.99
45.23,-2.93,-9.92,-2.93,-9.93,9.93,9.94,9.99,7.00,7.00,6.99
45.68,-2.83,-9.82,-2.82,-9.82,9.82,9.83,9.83,6.99,7.00,6.99
46.13,-2.73,-9.71,-2.72,-9.71,9.71,9.72,9.67,6.99,6.99,6.98
46.60,-2.63,-9.62,-2.62,-9.61,9.61,9.62,9.52,6.98,6.99,6.99
47.06,-2.53,-9.51,-2.53,-9.50,9.50,9.51,9.38,6.98,6.98,6.98
47.53,-2.43,-9.40,-2.43,-9.40,9.40,9.41,9.24,6.98,6.97,6.97
48.01,-2.34,-9.32,-2.34,-9.30,9.30,9.30,9.10,6.96,6.96,6.98
48.49,-2.25,-9.21,-2.25,-9.20,9.20,9.20,8.97,6.96,6.95,6.96
48.97,-2.16,-9.10,-2.16,-9.11,9.11,9.09,8.84,6.95,6.94,6.94
49.46,-2.08,-9.01,-2.08,-9.01,9.01,8.99,8.72,6.94,6.93,6.93
49.96,-2.00,-8.91,-2.00,-8.92,8.92,8.89,8.60,6.92,6.92,6.91
50.46,-1.92,-8.83,-1.92,-8.83,8.83,8.79,8.49,6.91,6.91,6.91
50.96,-1.85,-8.74,-1.85,-8.74,8.74,8.69,8.38,6.89,6.89,6.89
51.47,-1.78,-8.64,-1.77,-8.65,8.65,8.58,8.27,6.87,6.87,6.86
51.99,-1.71,-8.56,-1.70,-8.56,8.56,8.48,8.17,6.85,6.86,6.85
52.51,-1.64,-8.48,-1.64,-8.48,8.48,8.38,8.07,6.84,6.84,6.84
53.03,-1.57,-8.39,-1.57,-8.39,8.39,8.28,7.97,6.82,6.82,6.82
53.56,-1.51,-8.32,-1.50,-8.31,8.31,8.19,7.87,6.80,6.80,6.81
54.10,-1.45,-8.23,-1.44,-8.22,8.22,8.09,7.78,6.78,6.78,6.78
54.64,-1.38,-8.15,-1.38,-8.14,8.14,7.99,7.69,6.77,6.76,6.77
55.18,-1.32,-8.06,-1.32,-8.06,8.06,7.89,7.60,6.75,6.75,6.74
55.74,-1.25,-7.96,-1.25,-7.98,7.98,7.80,7.51,6.73,6.73,6.71
56.29,-1.19,-7.90,-1.19,-7.90,7.90,7.70,7.43,6.71,6.71,6.71
56.86,-1.13,-7.81,-1.13,-7.81,7.81,7.61,7.34,6.69,6.68,6.68
57.42,-1.07,-7.72,-1.07,-7.73,7.73,7.51,7.26,6.66,6.66,6.65
58.00,-1.01,-7.64,-1.00,-7.64,7.64,7.42,7.17,6.63,6.64,6.63
58.58,-0.95,-7.56,-0.93,-7.55,7.55,7.33,7.09,6.60,6.61,6.61
59.16,-0.88,-7.47,-0.86,-7.45,7.45,7.24,7.01,6.57,6.59,6.59
59.76,-0.81,-7.38,-0.79,-7.35,7.35,7.15,6.92,6.55,6.56,6.57
60.35,-0.73,-7.27,-0.72,-7.25,7.25,7.06,6.84,6.53,6.53,6.54
60.96,-0.66,-7.17,-0.65,-7.15,7.15,6.97,6.76,6.49,6.50,6.51
61.57,-0.58,-7.04,-0.57,-7.04,7.04,6.88,6.67,6.46,6.46,6.46
62.18,-0.50,-6.92,-0.50,-6.93,6.93,6.79,6.59,6.43,6.43,6.42
62.80,-0.42,-6.82,-0.42,-6.81,6.81,6.70,6.50,6.40,6.40,6.40
63.43,-0.34,-6.69,-0.34,-6.70,6.70,6.61,6.42,6.36,6.36,6.35
64.07,-0.26,-6.57,-0.26,-6.58,6.58,6.53,6.33,6.32,6.32,6.31
64.71,-0.18,-6.46,-0.18,-6.46,6.46,6.44,6.24,6.28,6.28,6.28
65.35,-0.11,-6.35,-0.10,-6.34,6.34,6.36,6.16,6.24,6.24,6.24
66.01,-0.03,-6.23,-0.02,-6.23,6.23,6.27,6.07,6.20,6.21,6.20
66.67,0.06,-6.11,0.06,-6.11,6.11,6.19,5.98,6.17,6.17,6.17
67.33,0.14,-5.99,0.13,-6.00,6.00,6.11,5.89,6.14,6.13,6.13
68.01,0.21,-5.88,0.20,-5.89,5.89,6.03,5.80,6.10,6.09,6.09
68.69,0.27,-5.78,0.27,-5.78,5.78,5.95,5.72,6.05,6.05,6.05
69.37,0.33,-5.68,0.33,-5.68,5.68,5.87,5.63,6.01,6.01,6.01
70.07,0.40,-5.57,0.40,-5.58,5.58,5.79,5.54,5.98,5.97,5.97
70.77,0.45,-5.48,0.46,-5.48,5.48,5.71,5.45,5.93,5.93,5.93
71.48,0.51,-5.39,0.51,-5.38,5.38,5.63,5.36,5.90,5.90,5.90
72.19,0.56,-5.29,0.56,-5.29,5.29,5.56,5.28,5.86,5.86,5.85
72.91,0.61,-5.21,0.62,-5.21,5.21,5.48,5.19,5.82,5.82,5.82
73.64,0.66,-5.12,0.66,-5.12,5.12,5.41,5.10,5.79,5.79,5.78
74.38,0.70,-5.05,0.71,-5.04,5.04,5.33,5.02,5.75,5.75,5.75
75.12,0.75,-4.96,0.75,-4.97,4.97,5.26,4.94,5.72,5.72,5.71
75.87,0.78,-4.90,0.79,-4.89,4.89,5.18,4.86,5.68,5.68,5.68
76.63,0.82,-4.83,0.83,-4.82,4.82,5.11,4.78,5.65,5.65,5.65
77.40,0.86,-4.76,0.86,-4.76,4.76,5.04,4.70,5.62,5.62,5.62
78.17,0.90,-4.69,0.89,-4.70,4.70,4.97,4.62,5.60,5.59,5.59
78.95,0.92,-4.64,0.92,-4.64,4.64,4.90,4.55,5.57,5.57,5.56
79.74,0.96,-4.58,0.95,-4.59,4.59,4.83,4.47,5.55,5.54,5.54
80.54,0.99,-4.53,0.98,-4.54,4.54,4.77,4.40,5.53,5.51,5.52
81.35,1.01,-4.48,1.00,-4.49,4.49,4.70,4.33,5.50,5.49,5.49
82.16,1.02,-4.44,1.03,-4.44,4.44,4.63,4.26,5.47,5.47,5.46
82.98,1.03,-4.42,1.05,-4.40,4.40,4.57,4.20,5.43,5.45,5.45
83.81,1.05,-4.37,1.07,-4.35,4.35,4.50,4.14,5.41,5.42,5.42
84.65,1.08,-4.31,1.09,-4.31,4.31,4.44,4.08,5.39,5.40,5.39
85.50,1.10,-4.28,1.11,-4.27,4.27,4.38,4.02,5.37,5.38,5.38
86.35,1.13,-4.23,1.13,-4.23,4.23,4.31,3.96,5.36,5.36,5.36
87.22,1.16,-4.18,1.16,-4.18,4.18,4.25,3.90,5.35,5.34,5.34
88.09,1.18,-4.14,1.18,-4.14,4.14,4.19,3.85,5.32,5.32,5.32
88.97,1.20,-4.10,1.21,-4.10,4.10,4.13,3.80,5.30,5.30,5.30
89.86,1.22,-4.07,1.24,-4.05,4.05,4.07,3.75,5.27,5.29,5.29
90.76,1.24,-4.02,1.26,-4.00,4.00,4.02,3.71,5.25,5.27,5.26
91.66,1.28,-3.96,1.29,-3.96,3.96,3.96,3.66,5.24,5.25,5.24
92.58,1.31,-3.91,1.32,-3.91,3.91,3.90,3.62,5.22,5.23,5.22
93.51,1.34,-3.87,1.34,-3.87,3.87,3.85,3.58,5.21,5.21,5.21
94.44,1.36,-3.83,1.36,-3.82,3.82,3.79,3.54,5.19,5.19,5.19
95.39,1.39,-3.78,1.38,-3.78,3.78,3.74,3.50,5.18,5.16,5.17
96.34,1.41,-3.73,1.40,-3.74,3.74,3.68,3.47,5.16,5.14,5.14
97.30,1.42,-3.69,1.41,-3.71,3.71,3.63,3.44,5.13,5.11,5.11
98.28,1.43,-3.65,1.42,-3.67,3.67,3.58,3.40,5.10,5.09,5.08
99.26,1.44,-3.62,1.43,-3.64,3.64,3.53,3.37,5.08,5.06,5.06
100.25,1.43,-3.60,1.43,-3.60,3.60,3.48,3.35,5.04,5.03,5.03
101.25,1.43,-3.57,1.43,-3.57,3.57,3.43,3.32,5.00,5.00,5.00
102.27,1.42,-3.54,1.43,-3.54,3.54,3.38,3.29,4.96,4.97,4.96
103.29,1.41,-3.52,1.43,-3.50,3.50,3.33,3.27,4.92,4.93,4.93
104.32,1.41,-3.49,1.42,-3.47,3.47,3.28,3.24,4.88,4.90,4.90
105.37,1.41,-3.45,1.42,-3.43,3.43,3.23,3.22,4.85,4.86,4.86
106.42,1.41,-3.40,1.42,-3.39,3.39,3.19,3.20,4.81,4.81,4.81
107.48,1.41,-3.37,1.42,-3.35,3.35,3.14,3.18,4.76,4.77,4.78
108.56,1.41,-3.31,1.42,-3.30,3.30,3.10,3.16,4.71,4.72,4.72
109.64,1.41,-3.26,1.42,-3.25,3.25,3.06,3.14,4.66,4.67,4.67
110.74,1.41,-3.21,1.42,-3.19,3.19,3.01,3.12,4.61,4.62,4.62
111.85,1.41,-3.16,1.43,-3.13,3.13,2.97,3.10,4.55,4.56,4.57
112.97,1.42,-3.08,1.43,-3.07,3.07,2.93,3.08,4.50,4.50,4.50
114.10,1.42,-3.03,1.43,-3.02,3.02,2.89,3.06,4.44,4.45,4.45
115.24,1.43,-2.96,1.43,-2.96,2.96,2.85,3.04,4.39,4.39,4.39
116.39,1.44,-2.88,1.43,-2.90,2.90,2.81,3.02,4.35,4.33,4.32
117.55,1.43,-2.83,1.42,-2.85,2.85,2.77,3.00,4.29,4.27,4.26
118.73,1.42,-2.78,1.41,-2.81,2.81,2.73,2.98,4.23,4.21,4.20
119.92,1.41,-2.74,1.39,-2.76,2.76,2.69,2.95,4.17,4.16,4.15
121.12,1.38,-2.71,1.38,-2.72,2.72,2.66,2.93,4.11,4.10,4.09
122.33,1.37,-2.67,1.35,-2.69,2.69,2.62,2.91,4.06,4.04,4.04
123.55,1.34,-2.65,1.33,-2.66,2.66,2.58,2.88,4.01,3.99,3.99
124.79,1.30,-2.64,1.30,-2.64,2.64,2.55,2.85,3.94,3.94,3.94
126.03,1.26,-2.63,1.27,-2.62,2.62,2.52,2.83,3.88,3.89,3.89
127.29,1.24,-2.60,1.24,-2.60,2.60,2.48,2.80,3.84,3.84,3.84
128.57,1.21,-2.57,1.21,-2.58,2.58,2.45,2.77,3.79,3.79,3.78
129.85,1.16,-2.58,1.19,-2.56,2.56,2.42,2.74,3.72,3.74,3.74
131.15,1.13,-2.56,1.16,-2.53,2.53,2.38,2.70,3.67,3.70,3.69
132.46,1.12,-2.53,1.15,-2.51,2.51,2.35,2.67,3.63,3.65,3.65
133.79,1.09,-2.52,1.13,-2.48,2.48,2.32,2.64,3.57,3.61,3.61
135.12,1.08,-2.49,1.12,-2.45,2.45,2.29,2.60,3.54,3.57,3.57
136.48,1.08,-2.45,1.11,-2.42,2.42,2.26,2.57,3.51,3.53,3.53
137.84,1.09,-2.40,1.10,-2.39,2.39,2.24,2.53,3.48,3.49,3.49
139.22,1.10,-2.34,1.09,-2.36,2.36,2.21,2.49,3.47,3.45,3.44
140.61,1.10,-2.30,1.08,-2.33,2.33,2.18,2.46,3.44,3.41,3.40
142.02,1.10,-2.28,1.07,-2.31,2.31,2.15,2.42,3.41,3.38,3.38
143.44,1.09,-2.25,1.06,-2.28,2.28,2.13,2.38,3.38,3.34,3.34
144.87,1.06,-2.24,1.04,-2.26,2.26,2.10,2.34,3.32,3.30,3.30
146.32,1.04,-2.22,1.02,-2.24,2.24,2.08,2.31,3.28,3.26,3.26
147.78,1.01,-2.22,1.00,-2.23,2.23,2.05,2.27,3.24,3.22,3.23
149.26,0.98,-2.22,0.97,-2.21,2.21,2.03,2.23,3.20,3.18,3.20
150.75,0.94,-2.20,0.94,-2.20,2.20,2.00,2.19,3.14,3.14,3.14
152.26,0.91,-2.19,0.91,-2.19,2.19,1.98,2.16,3.11,3.10,3.10
153.78,0.87,-2.20,0.88,-2.18,2.18,1.96,2.12,3.05,3.06,3.07
155.32,0.84,-2.17,0.85,-2.17,2.17,1.94,2.09,3.01,3.02,3.01
156.88,0.80,-2.18,0.83,-2.15,2.15,1.92,2.05,2.95,2.98,2.98
158.44,0.79,-2.14,0.80,-2.13,2.13,1.90,2.02,2.92,2.93,2.93
160.03,0.76,-2.12,0.79,-2.10,2.10,1.88,1.99,2.86,2.89,2.88
161.63,0.75,-2.08,0.78,-2.07,2.07,1.86,1.96,2.82,2.84,2.83
163.24,0.74,-2.05,0.77,-2.03,2.03,1.84,1.93,2.77,2.80,2.79
164.88,0.75,-2.00,0.76,-1.98,1.98,1.82,1.90,2.74,2.75,2.75
166.53,0.75,-1.95,0.76,-1.94,1.94,1.80,1.87,2.69,2.70,2.70
168.19,0.76,-1.89,0.77,-1.89,1.89,1.78,1.84,2.65,2.65,2.65
169.87,0.77,-1.83,0.77,-1.83,1.83,1.76,1.81,2.61,2.60,2.60
171.57,0.77,-1.79,0.77,-1.78,1.78,1.75,1.79,2.55,2.55,2.56
173.29,0.78,-1.72,0.78,-1.72,1.72,1.73,1.76,2.51,2.50,2.50
175.02,0.79,-1.66,0.78,-1.67,1.67,1.72,1.74,2.46,2.45,2.45
176.77,0.79,-1.60,0.78,-1.62,1.62,1.70,1.72,2.41,2.39,2.39
178.54,0.78,-1.56,0.77,-1.57,1.57,1.69,1.70,2.35,2.34,2.34
180.32,0.77,-1.51,0.76,-1.52,1.52,1.67,1.68,2.30,2.28,2.28
182.13,0.75,-1.48,0.75,-1.48,1.48,1.66,1.66,2.24,2.23,2.23
183.95,0.72,-1.45,0.73,-1.45,1.45,1.64,1.64,2.17,2.17,2.17
185.79,0.70,-1.42,0.70,-1.41,1.41,1.63,1.62,2.12,2.12,2.12
187.65,0.68,-1.37,0.67,-1.39,1.39,1.62,1.60,2.07,2.06,2.05
189.52,0.65,-1.35,0.64,-1.37,1.37,1.61,1.59,2.02,2.01,2.00
191.42,0.60,-1.35,0.60,-1.35,1.35,1.59,1.58,1.96,1.95,1.95
193.33,0.56,-1.34,0.56,-1.34,1.34,1.58,1.56,1.91,1.90,1.90
195.27,0.51,-1.34,0.52,-1.33,1.33,1.57,1.55,1.85,1.85,1.85
197.22,0.46,-1.33,0.47,-1.33,1.33,1.56,1.54,1.79,1.80,1.79
199.19,0.41,-1.33,0.43,-1.32,1.32,1.55,1.53,1.73,1.75,1.74
201.18,0.37,-1.32,0.38,-1.32,1.32,1.54,1.52,1.69,1.70,1.69
203.19,0.32,-1.34,0.33,-1.32,1.32,1.53,1.51,1.64,1.65,1.66
205.23,0.27,-1.33,0.28,-1.32,1.32,1.52,1.50,1.60,1.61,1.60
207.28,0.22,-1.36,0.23,-1.33,1.33,1.51,1.49,1.55,1.56,1.58
209.35,0.18,-1.34,0.19,-1.34,1.34,1.50,1.49,1.52,1.52,1.52
211.44,0.14,-1.33,0.14,-1.34,1.34,1.50,1.48,1.49,1.48,1.47
213.56,0.10,-1.33,0.09,-1.35,1.35,1.49,1.48,1.45,1.44,1.43
215.69,0.05,-1.36,0.04,-1.36,1.36,1.48,1.47,1.41,1.40,1.41
217.85,-0.02,-1.39,-0.01,-1.38,1.38,1.47,1.46,1.36,1.37,1.37
220.03,-0.06,-1.39,-0.06,-1.39,1.39,1.47,1.46,1.34,1.34,1.33
222.23,-0.11,-1.41,-0.11,-1.42,1.42,1.46,1.46,1.31,1.31,1.30
224.45,-0.17,-1.45,-0.16,-1.44,1.44,1.45,1.45,1.28,1.28,1.28
226.70,-0.21,-1.46,-0.22,-1.47,1.47,1.45,1.45,1.26,1.25,1.25
228.96,-0.27,-1.49,-0.27,-1.50,1.50,1.44,1.44,1.24,1.23,1.22
231.25,-0.31,-1.52,-0.33,-1.54,1.54,1.44,1.44,1.23,1.21,1.21
233.57,-0.37,-1.56,-0.39,-1.58,1.58,1.43,1.43,1.22,1.20,1.19
235.90,-0.44,-1.62,-0.44,-1.62,1.62,1.43,1.43,1.19,1.18,1.18
238.26,-0.49,-1.66,-0.49,-1.66,1.66,1.42,1.42,1.18,1.17,1.17
240.64,-0.55,-1.71,-0.54,-1.70,1.70,1.42,1.42,1.16,1.16,1.16
243.05,-0.59,-1.75,-0.58,-1.74,1.74,1.42,1.41,1.16,1.16,1.16
245.48,-0.62,-1.77,-0.62,-1.78,1.78,1.41,1.41,1.16,1.16,1.15
247.93,-0.67,-1.82,-0.65,-1.81,1.81,1.41,1.40,1.14,1.15,1.15
250.41,-0.69,-1.84,-0.68,-1.83,1.83,1.41,1.39,1.15,1.16,1.15
252.92,-0.72,-1.88,-0.69,-1.85,1.85,1.40,1.39,1.13,1.16,1.16
255.45,-0.71,-1.88,-0.69,-1.86,1.86,1.40,1.38,1.15,1.17,1.17
258.00,-0.70,-1.88,-0.68,-1.85,1.85,1.40,1.37,1.16,1.18,1.18
260.58,-0.68,-1.86,-0.66,-1.84,1.84,1.40,1.36,1.16,1.19,1.18
263.19,-0.66,-1.85,-0.62,-1.82,1.82,1.39,1.36,1.16,1.20,1.19
265.82,-0.60,-1.80,-0.58,-1.79,1.79,1.39,1.35,1.19,1.21,1.20
268.48,-0.54,-1.76,-0.53,-1.75,1.75,1.39,1.34,1.21,1.22,1.22
271.16,-0.49,-1.73,-0.47,-1.70,1.70,1.39,1.33,1.21,1.23,1.24
273.87,-0.40,-1.64,-0.40,-1.65,1.65,1.39,1.32,1.25,1.25,1.24
276.61,-0.31,-1.58,-0.33,-1.59,1.59,1.39,1.31,1.28,1.26,1.27
279.38,-0.23,-1.50,-0.25,-1.52,1.52,1.39,1.30,1.30,1.27,1.27
282.17,-0.15,-1.44,-0.17,-1.45,1.45,1.39,1.29,1.31,1.29,1.29
284.99,-0.08,-1.38,-0.08,-1.38,1.38,1.39,1.28,1.31,1.30,1.30
287.84,0.00,-1.31,0.00,-1.31,1.31,1.39,1.28,1.32,1.31,1.31
290.72,0.07,-1.25,0.09,-1.24,1.24,1.39,1.27,1.32,1.33,1.32
293.63,0.15,-1.19,0.17,-1.17,1.17,1.39,1.26,1.33,1.34,1.34
296.57,0.23,-1.13,0.24,-1.11,1.11,1.39,1.25,1.34,1.36,1.36
299.53,0.31,-1.05,0.32,-1.05,1.05,1.39,1.24,1.36,1.37,1.36
302.53,0.38,-0.99,0.39,-0.99,0.99,1.39,1.24,1.38,1.38,1.37
305.55,0.45,-0.94,0.45,-0.94,0.94,1.39,1.23,1.40,1.39,1.39
308.61,0.52,-0.88,0.50,-0.90,0.90,1.39,1.22,1.42,1.40,1.40
311.69,0.57,-0.84,0.55,-0.86,0.86,1.39,1.22,1.44,1.41,1.41
314.81,0.60,-0.84,0.59,-0.83,0.83,1.39,1.21,1.43,1.42,1.44
317.96,0.63,-0.80,0.62,-0.81,0.81,1.39,1.21,1.44,1.43,1.43
321.14,0.65,-0.79,0.64,-0.80,0.80,1.40,1.20,1.45,1.44,1.44
324.35,0.66,-0.78,0.65,-0.79,0.79,1.40,1.20,1.46,1.45,1.44
327.59,0.66,-0.79,0.65,-0.80,0.80,1.40,1.20,1.47,1.45,1.45
330.87,0.65,-0.80,0.64,-0.82,0.82,1.40,1.20,1.47,1.46,1.45
334.18,0.63,-0.82,0.62,-0.84,0.84,1.40,1.20,1.48,1.46,1.45
337.52,0.60,-0.86,0.59,-0.87,0.87,1.40,1.20,1.48,1.46,1.46
340.90,0.57,-0.89,0.56,-0.91,0.91,1.41,1.20,1.48,1.46,1.46
344.30,0.52,-0.94,0.52,-0.94,0.94,1.41,1.20,1.47,1.46,1.46
347.75,0.47,-0.99,0.48,-0.98,0.98,1.41,1.21,1.46,1.46,1.46
351.23,0.41,-1.05,0.43,-1.02,1.02,1.41,1.21,1.44,1.46,1.46
354.74,0.36,-1.10,0.39,-1.07,1.07,1.41,1.21,1.43,1.45,1.46
358.28,0.31,-1.13,0.34,-1.11,1.11,1.42,1.22,1.42,1.45,1.44
361.87,0.28,-1.16,0.30,-1.15,1.15,1.42,1.23,1.43,1.44,1.44
365.49,0.25,-1.19,0.26,-1.18,1.18,1.42,1.23,1.43,1.44,1.44
369.14,0.22,-1.21,0.23,-1.20,1.20,1.42,1.24,1.43,1.43,1.43
372.83,0.20,-1.23,0.20,-1.23,1.23,1.43,1.25,1.43,1.43,1.43
376.56,0.16,-1.26,0.18,-1.24,1.24,1.43,1.26,1.40,1.42,1.42
380.33,0.14,-1.27,0.16,-1.25,1.25,1.43,1.27,1.39,1.41,1.41
384.13,0.12,-1.28,0.15,-1.26,1.26,1.43,1.28,1.38,1.41,1.40
387.97,0.11,-1.28,0.14,-1.26,1.26,1.44,1.30,1.37,1.40,1.39
391.85,0.11,-1.27,0.13,-1.26,1.26,1.44,1.31,1.37,1.39,1.38
395.77,0.12,-1.27,0.13,-1.26,1.26,1.44,1.32,1.38,1.38,1.39
399.73,0.13,-1.25,0.12,-1.26,1.26,1.45,1.34,1.40,1.38,1.38
403.72,0.13,-1.24,0.11,-1.27,1.27,1.45,1.35,1.40,1.37,1.37
407.76,0.12,-1.24,0.09,-1.27,1.27,1.45,1.37,1.40,1.37,1.36
411.84,0.11,-1.26,0.08,-1.28,1.28,1.45,1.38,1.40,1.36,1.37
415.96,0.08,-1.27,0.06,-1.30,1.30,1.46,1.40,1.38,1.36,1.35
420.12,0.05,-1.30,0.04,-1.31,1.31,1.46,1.41,1.37,1.35,1.35
424.32,0.02,-1.33,0.01,-1.34,1.34,1.46,1.43,1.36,1.35,1.35
428.56,-0.01,-1.35,-0.01,-1.36,1.36,1.46,1.45,1.36,1.35,1.34
432.85,-0.05,-1.39,-0.04,-1.39,1.39,1.47,1.46,1.35,1.35,1.34
437.18,-0.08,-1.42,-0.07,-1.42,1.42,1.47,1.48,1.35,1.35,1.34
441.55,-0.12,-1.47,-0.10,-1.45,1.45,1.47,1.49,1.33,1.35,1.35
445.96,-0.15,-1.50,-0.13,-1.48,1.48,1.47,1.51,1.33,1.35,1.35
450.42,-0.18,-1.52,-0.16,-1.50,1.50,1.48,1.52,1.33,1.35,1.34
454.93,-0.20,-1.55,-0.18,-1.53,1.53,1.48,1.54,1.33,1.35,1.35
459.48,-0.22,-1.57,-0.19,-1.55,1.55,1.48,1.55,1.33,1.35,1.35
464.07,-0.23,-1.59,-0.20,-1.56,1.56,1.48,1.56,1.34,1.36,1.36
468.71,-0.23,-1.60,-0.21,-1.58,1.58,1.48,1.57,1.35,1.36,1.37
473.40,-0.22,-1.58,-0.22,-1.59,1.59,1.49,1.58,1.37,1.37,1.36
478.13,-0.21,-1.58,-0.22,-1.59,1.59,1.49,1.59,1.39,1.37,1.37
482.91,-0.21,-1.58,-0.22,-1.60,1.60,1.49,1.60,1.39,1.38,1.37
487.74,-0.21,-1.59,-0.22,-1.60,1.60,1.49,1.61,1.40,1.38,1.38
492.62,-0.21,-1.60,-0.22,-1.60,1.60,1.49,1.61,1.40,1.39,1.39
497.55,-0.21,-1.60,-0.21,-1.61,1.61,1.50,1.62,1.40,1.39,1.39
502.52,-0.21,-1.61,-0.21,-1.61,1.61,1.50,1.62,1.40,1.40,1.40
507.55,-0.21,-1.61,-0.21,-1.61,1.61,1.50,1.62,1.40,1.40,1.40
