frequency,raw,error,smoothed,error_smoothed,equalization,parametric_eq,fixed_band_eq,equalized_raw,equalized_smoothed,target
20.00,-18.54,-23.34,-18.54,-23.35,23.35,20.78,12.83,4.81,4.81,4.79
20.20,-18.59,-23.43,-18.59,-23.44,23.44,20.99,13.03,4.84,4.85,4.83
20.40,-18.64,-23.52,-18.64,-23.52,23.52,21.19,13.23,4.88,4.88,4.87
20.61,-18.69,-23.59,-18.69,-23.60,23.60,21.40,13.44,4.90,4.90,4.90
20.81,-18.74,-23.68,-18.74,-23.67,23.67,21.61,13.66,4.93,4.93,4.94
21.02,-18.78,-23.76,-18.79,-23.74,23.74,21.82,13.88,4.96,4.95,4.98
21.23,-18.82,-23.82,-18.83,-23.81,23.81,22.04,14.11,4.98,4.98,5.00
21.44,-18.86,-23.88,-18.87,-23.87,23.87,22.25,14.34,5.01,5.00,5.02
21.66,-18.90,-23.94,-18.91,-23.93,23.93,22.46,14.57,5.02,5.02,5.04
21.87,-18.94,-23.99,-18.94,-23.98,23.98,22.67,14.82,5.04,5.04,5.05
22.09,-18.97,-24.04,-18.97,-24.03,24.03,22.88,15.07,5.06,5.06,5.07
22.31,-19.00,-24.08,-19.00,-24.08,24.08,23.09,15.32,5.07,5.07,5.08
22.54,-19.03,-24.12,-19.03,-24.12,24.12,23.30,15.59,5.09,5.09,5.09
22.76,-19.05,-24.15,-19.06,-24.16,24.16,23.51,15.86,5.10,5.10,5.09
22.99,-19.08,-24.18,-19.08,-24.19,24.19,23.71,16.14,5.10,5.10,5.09
23.22,-19.10,-24.21,-19.10,-24.22,24.22,23.91,16.42,5.11,5.11,5.10
23.45,-19.12,-24.24,-19.12,-24.24,24.24,24.10,16.72,5.12,5.12,5.11
23.69,-19.14,-24.26,-19.14,-24.27,24.27,24.28,17.02,5.13,5.13,5.12
23.92,-19.15,-24.29,-19.15,-24.29,24.29,24.46,17.34,5.14,5.14,5.13
24.16,-19.16,-24.31,-19.16,-24.31,24.31,24.62,17.66,5.15,5.15,5.15
24.40,-19.16,-24.33,-19.17,-24.33,24.33,24.78,18.00,5.16,5.16,5.17
24.65,-19.17,-24.34,-19.17,-24.34,24.34,24.92,18.35,5.17,5.17,5.17
24.89,-19.17,-24.35,-19.17,-24.35,24.35,25.06,18.71,5.18,5.18,5.18
25.14,-19.17,-24.36,-19.17,-24.36,24.36,25.17,19.08,5.18,5.19,5.19
25.39,-19.16,-24.36,-19.16,-24.36,24.36,25.27,19.47,5.20,5.20,5.20
25.65,-19.15,-24.37,-19.15,-24.36,24.36,25.36,19.87,5.21,5.21,5.21
25.91,-19.14,-24.36,-19.14,-24.36,24.36,25.42,20.29,5.21,5.22,5.21
26.16,-19.12,-24.35,-19.12,-24.35,24.35,25.47,20.72,5.23,5.23,5.22
26.43,-19.10,-24.33,-19.10,-24.34,24.34,25.50,21.18,5.23,5.24,5.23
26.69,-19.07,-24.31,-19.08,-24.32,24.32,25.51,21.65,5.25,5.24,5.24
26.96,-19.04,-24.30,-19.05,-24.30,24.30,25.50,22.15,5.26,5.25,5.26
27.23,-19.01,-24.28,-19.02,-24.28,24.28,25.46,22.67,5.26,5.26,5.27
27.50,-18.97,-24.25,-18.98,-24.25,24.25,25.42,23.21,5.28,5.27,5.27
27.77,-18.93,-24.21,-18.94,-24.22,24.22,25.35,23.77,5.29,5.28,5.27
28.05,-18.89,-24.19,-18.90,-24.18,24.18,25.26,24.36,5.29,5.29,5.29
28.33,-18.83,-24.12,-18.85,-24.14,24.14,25.16,24.98,5.31,5.29,5.29
28.62,-18.78,-24.08,-18.79,-24.09,24.09,25.05,25.62,5.31,5.30,5.30
28.90,-18.72,-24.03,-18.73,-24.04,24.04,24.92,26.28,5.31,5.31,5.31
29.19,-18.65,-23.96,-18.65,-23.97,23.97,24.78,26.95,5.32,5.32,5.31
29.48,-18.57,-23.91,-18.57,-23.89,23.89,24.63,27.63,5.32,5.32,5.33
29.78,-18.50,-23.84,-18.48,-23.81,23.81,24.46,28.30,5.31,5.33,5.33
30.08,-18.42,-23.75,-18.38,-23.71,23.71,24.29,28.93,5.30,5.33,5.34
30.38,-18.29,-23.62,-18.27,-23.61,23.61,24.12,29.49,5.32,5.34,5.34
30.68,-18.15,-23.51,-18.14,-23.49,23.49,23.94,29.94,5.34,5.35,5.35
30.99,-18.03,-23.38,-18.01,-23.36,23.36,23.75,30.24,5.34,5.36,5.35
31.30,-17.87,-23.23,-17.86,-23.22,23.22,23.56,30.35,5.36,5.36,5.36
31.61,-17.70,-23.07,-17.71,-23.07,23.07,23.37,30.27,5.37,5.37,5.37
31.93,-17.56,-22.93,-17.54,-22.91,22.91,23.17,30.01,5.36,5.38,5.37
32.24,-17.37,-22.74,-17.36,-22.74,22.74,22.98,29.61,5.37,5.38,5.37
32.57,-17.19,-22.58,-17.18,-22.57,22.57,22.78,29.10,5.38,5.39,5.39
32.89,-17.00,-22.40,-16.98,-22.38,22.38,22.59,28.52,5.38,5.40,5.40
33.22,-16.80,-22.21,-16.79,-22.19,22.19,22.40,27.92,5.39,5.40,5.40
33.55,-16.60,-22.01,-16.60,-22.01,22.01,22.20,27.30,5.40,5.41,5.41
33.89,-16.40,-21.82,-16.41,-21.82,21.82,22.01,26.69,5.42,5.41,5.42
34.23,-16.20,-21.63,-16.22,-21.64,21.64,21.83,26.10,5.43,5.42,5.42
34.57,-16.00,-21.43,-16.03,-21.45,21.45,21.64,25.53,5.45,5.43,5.43
34.92,-15.82,-21.24,-15.85,-21.28,21.28,21.46,24.98,5.46,5.43,5.43
35.27,-15.65,-21.08,-15.68,-21.11,21.11,21.28,24.46,5.46,5.43,5.43
35.62,-15.48,-20.92,-15.51,-20.95,20.95,21.11,23.97,5.46,5.44,5.44
35.97,-15.32,-20.76,-15.35,-20.79,20.79,20.94,23.50,5.47,5.44,5.44
36.33,-15.19,-20.63,-15.20,-20.64,20.64,20.78,23.05,5.45,5.44,5.44
36.70,-15.06,-20.50,-15.06,-20.50,20.50,20.62,22.63,5.44,5.44,5.44
37.06,-14.93,-20.37,-14.93,-20.37,20.37,20.46,22.23,5.44,5.44,5.44
37.43,-14.81,-20.26,-14.81,-20.25,20.25,20.32,21.85,5.44,5.44,5.45
37.81,-14.70,-20.15,-14.70,-20.14,20.14,20.17,21.49,5.43,5.44,5.44
38.19,-14.59,-20.03,-14.59,-20.03,20.03,20.04,21.15,5.43,5.43,5.44
38.57,-14.49,-19.93,-14.49,-19.92,19.92,19.91,20.82,5.43,5.43,5.43
38.95,-14.39,-19.82,-14.39,-19.82,19.82,19.78,20.51,5.43,5.43,5.43
39.34,-14.30,-19.72,-14.30,-19.72,19.72,19.67,20.22,5.42,5.42,5.42
39.74,-14.22,-19.64,-14.21,-19.63,19.63,19.56,19.94,5.40,5.42,5.41
40.14,-14.14,-19.55,-14.12,-19.54,19.54,19.46,19.68,5.40,5.42,5.42
40.54,-14.05,-19.47,-14.04,-19.45,19.45,19.37,19.43,5.40,5.41,5.41
40.94,-13.97,-19.38,-13.97,-19.38,19.38,19.29,19.19,5.40,5.41,5.40
41.35,-13.90,-19.30,-13.90,-19.30,19.30,19.22,18.96,5.40,5.41,5.40
41.76,-13.82,-19.22,-13.84,-19.24,19.24,19.16,18.75,5.42,5.40,5.40
42.18,-13.75,-19.16,-13.78,-19.18,19.18,19.10,18.55,5.43,5.40,5.40
42.60,-13.69,-19.09,-13.74,-19.13,19.13,19.06,18.35,5.43,5.39,5.40
43.03,-13.64,-19.04,-13.69,-19.08,19.08,19.03,18.17,5.43,5.39,5.40
43.46,-13.61,-19.00,-13.65,-19.03,19.03,19.00,18.00,5.42,5.38,5.39
43.90,-13.59,-18.96,-13.61,-18.99,18.99,18.98,17.83,5.39,5.38,5.37
44.33,-13.56,-18.93,-13.57,-18.95,18.95,18.97,17.68,5.38,5.37,5.37
44.78,-13.54,-18.91,-13.53,-18.90,18.90,18.96,17.53,5.36,5.37,5.36
45.23,-13.51,-18.87,-13.49,-18.86,18.86,18.95,17.40,5.34,5.36,5.35
45.68,-13.47,-18.83,-13.45,-18.80,18.80,18.94,17.27,5.33,5.36,5.35
46.13,-13.42,-18.76,-13.39,-18.75,18.75,18.91,17.14,5.32,5.35,5.34
46.60,-13.35,-18.70,-13.33,-18.68,18.68,18.88,17.03,5.32,5.34,5.35
47.06,-13.28,-18.62,-13.26,-18.60,18.60,18.82,16.92,5.32,5.33,5.34
47.53,-13.18,-18.51,-13.18,-18.51,18.51,18.75,16.82,5.32,5.32,5.33
48.01,-13.09,-18.43,-13.09,-18.40,18.40,18.64,16.73,5.31,5.31,5.34
48.49,-12.97,-18.29,-12.98,-18.28,18.28,18.51,16.64,5.31,5.30,5.31
48.97,-12.85,-18.14,-12.85,-18.14,18.14,18.34,16.56,5.29,5.29,5.29
49.46,-12.71,-17.99,-12.71,-17.99,17.99,18.14,16.48,5.27,5.28,5.28
49.96,-12.56,-17.82,-12.55,-17.81,17.81,17.92,16.41,5.25,5.26,5.25
50.46,-12.40,-17.64,-12.38,-17.62,17.62,17.67,16.35,5.23,5.25,5.25
50.96,-12.22,-17.46,-12.19,-17.42,17.42,17.40,16.28,5.19,5.23,5.23
51.47,-12.02,-17.22,-11.99,-17.20,17.20,17.12,16.22,5.17,5.21,5.20
51.99,-11.83,-17.01,-11.78,-16.97,16.97,16.83,16.17,5.14,5.19,5.18
52.51,-11.59,-16.76,-11.55,-16.72,16.72,16.54,16.12,5.13,5.17,5.18
53.03,-11.33,-16.48,-11.32,-16.47,16.47,16.24,16.07,5.13,5.15,5.15
53.56,-11.07,-16.20,-11.08,-16.21,16.21,15.95,16.02,5.13,5.12,5.13
54.10,-10.82,-15.92,-10.84,-15.94,15.94,15.66,15.97,5.13,5.10,5.10
54.64,-10.57,-15.65,-10.59,-15.67,15.67,15.38,15.92,5.11,5.08,5.08
55.18,-10.31,-15.37,-10.35,-15.41,15.41,15.11,15.87,5.09,5.06,5.05
55.74,-10.08,-15.10,-10.10,-15.14,15.14,14.85,15.82,5.06,5.04,5.02
56.29,-9.83,-14.85,-9.86,-14.87,14.87,14.59,15.77,5.04,5.01,5.01
56.86,-9.62,-14.60,-9.62,-14.61,14.61,14.35,15.71,4.99,4.99,4.98
57.42,-9.38,-14.33,-9.39,-14.35,14.35,14.11,15.65,4.97,4.96,4.95
58.00,-9.16,-14.09,-9.16,-14.10,14.10,13.88,15.59,4.93,4.93,4.93
58.58,-8.95,-13.86,-8.95,-13.85,13.85,13.66,15.52,4.90,4.90,4.90
59.16,-8.74,-13.62,-8.74,-13.61,13.61,13.44,15.44,4.87,4.87,4.88
59.76,-8.55,-13.40,-8.54,-13.38,13.38,13.23,15.36,4.83,4.84,4.85
60.35,-8.35,-13.17,-8.35,-13.15,13.15,13.03,15.26,4.80,4.80,4.82
60.96,-8.16,-12.95,-8.17,-12.94,12.94,12.83,15.17,4.77,4.77,4.78
61.57,-7.98,-12.72,-7.99,-12.73,12.73,12.64,15.06,4.74,4.73,4.73
62.18,-7.80,-12.49,-7.83,-12.52,12.52,12.46,14.94,4.72,4.69,4.68
62.80,-7.65,-12.31,-7.67,-12.33,12.33,12.28,14.82,4.67,4.65,4.66
63.43,-7.50,-12.11,-7.52,-12.14,12.14,12.10,14.68,4.63,4.61,4.61
64.07,-7.37,-11.94,-7.38,-11.95,11.95,11.93,14.54,4.58,4.57,4.56
64.71,-7.24,-11.77,-7.25,-11.78,11.78,11.76,14.39,4.53,4.53,4.52
65.35,-7.12,-11.60,-7.13,-11.61,11.61,11.60,14.23,4.49,4.48,4.48
66.01,-7.00,-11.44,-7.01,-11.45,11.45,11.43,14.06,4.44,4.44,4.44
66.67,-6.89,-11.30,-6.90,-11.29,11.29,11.28,13.88,4.39,4.39,4.40
67.33,-6.79,-11.15,-6.79,-11.14,11.14,11.12,13.70,4.34,4.35,4.36
68.01,-6.68,-10.99,-6.68,-10.99,10.99,10.96,13.51,4.30,4.30,4.31
68.69,-6.58,-10.85,-6.58,-10.84,10.84,10.81,13.31,4.25,4.26,4.26
69.37,-6.48,-10.70,-6.48,-10.69,10.69,10.66,13.12,4.21,4.22,4.21
70.07,-6.38,-10.55,-6.37,-10.54,10.54,10.51,12.91,4.16,4.17,4.17
70.77,-6.28,-10.41,-6.27,-10.40,10.40,10.37,12.71,4.11,4.13,4.12
71.48,-6.17,-10.26,-6.16,-10.24,10.24,10.22,12.50,4.07,4.08,4.08
72.19,-6.06,-10.10,-6.06,-10.09,10.09,10.08,12.28,4.03,4.04,4.03
72.91,-5.95,-9.94,-5.95,-9.94,9.94,9.94,12.07,3.99,3.99,3.99
73.64,-5.84,-9.79,-5.84,-9.79,9.79,9.80,11.86,3.95,3.95,3.94
74.38,-5.73,-9.64,-5.73,-9.63,9.63,9.66,11.64,3.90,3.91,3.91
75.12,-5.62,-9.49,-5.61,-9.48,9.48,9.52,11.43,3.86,3.87,3.86
75.87,-5.50,-9.33,-5.50,-9.32,9.32,9.38,11.22,3.82,3.83,3.83
76.63,-5.38,-9.17,-5.38,-9.17,9.17,9.25,11.00,3.78,3.79,3.79
77.40,-5.27,-9.02,-5.26,-9.01,9.01,9.11,10.79,3.74,3.75,3.75
78.17,-5.14,-8.85,-5.15,-8.86,8.86,8.98,10.58,3.72,3.71,3.71
78.95,-5.02,-8.70,-5.03,-8.71,8.71,8.84,10.38,3.68,3.68,3.68
79.74,-4.91,-8.56,-4.91,-8.56,8.56,8.71,10.17,3.64,3.64,3.65
80.54,-4.79,-8.41,-4.80,-8.41,8.41,8.58,9.97,3.61,3.61,3.61
81.35,-4.68,-8.26,-4.69,-8.26,8.26,8.45,9.77,3.58,3.58,3.58
82.16,-4.57,-8.12,-4.58,-8.12,8.12,8.32,9.57,3.55,3.55,3.54
82.98,-4.46,-7.98,-4.47,-7.99,7.99,8.19,9.38,3.52,3.51,3.52
83.81,-4.36,-7.85,-4.37,-7.86,7.86,8.06,9.19,3.49,3.48,3.48
84.65,-4.27,-7.72,-4.27,-7.73,7.73,7.93,9.00,3.45,3.45,3.44
85.50,-4.17,-7.60,-4.18,-7.61,7.61,7.80,8.82,3.43,3.43,3.43
86.35,-4.07,-7.47,-4.09,-7.49,7.49,7.68,8.64,3.41,3.40,3.40
87.22,-3.99,-7.36,-4.00,-7.37,7.37,7.55,8.46,3.38,3.37,3.37
88.09,-3.91,-7.25,-3.92,-7.26,7.26,7.43,8.29,3.35,3.34,3.34
88.97,-3.83,-7.15,-3.84,-7.15,7.15,7.30,8.11,3.32,3.31,3.32
89.86,-3.77,-7.07,-3.76,-7.05,7.05,7.18,7.95,3.27,3.29,3.29
90.76,-3.70,-6.96,-3.68,-6.94,6.94,7.06,7.78,3.24,3.26,3.25
91.66,-3.62,-6.85,-3.61,-6.84,6.84,6.94,7.62,3.22,3.23,3.23
92.58,-3.54,-6.74,-3.54,-6.74,6.74,6.82,7.46,3.20,3.20,3.20
93.51,-3.47,-6.65,-3.47,-6.64,6.64,6.70,7.31,3.17,3.17,3.18
94.44,-3.40,-6.55,-3.40,-6.55,6.55,6.59,7.15,3.14,3.14,3.15
95.39,-3.33,-6.45,-3.34,-6.45,6.45,6.47,7.01,3.12,3.11,3.12
96.34,-3.27,-6.35,-3.29,-6.36,6.36,6.36,6.86,3.09,3.08,3.08
97.30,-3.21,-6.25,-3.23,-6.27,6.27,6.24,6.72,3.06,3.04,3.04
98.28,-3.16,-6.17,-3.18,-6.18,6.18,6.13,6.58,3.02,3.01,3.00
99.26,-3.11,-6.08,-3.13,-6.09,6.09,6.03,6.44,2.98,2.97,2.97
100.25,-3.08,-6.01,-3.08,-6.01,6.01,5.92,6.30,2.93,2.93,2.93
101.25,-3.03,-5.93,-3.04,-5.93,5.93,5.81,6.17,2.89,2.89,2.89
102.27,-2.98,-5.83,-3.00,-5.84,5.84,5.71,6.04,2.86,2.85,2.84
103.29,-2.96,-5.76,-2.96,-5.76,5.76,5.61,5.92,2.79,2.80,2.80
104.32,-2.94,-5.70,-2.92,-5.67,5.67,5.51,5.79,2.73,2.75,2.76
105.37,-2.90,-5.61,-2.88,-5.59,5.59,5.41,5.67,2.68,2.70,2.71
106.42,-2.85,-5.51,-2.85,-5.50,5.50,5.32,5.55,2.64,2.65,2.65
107.48,-2.82,-5.43,-2.82,-5.41,5.41,5.23,5.44,2.59,2.60,2.61
108.56,-2.78,-5.32,-2.78,-5.32,5.32,5.14,5.32,2.54,2.54,2.54
109.64,-2.76,-5.24,-2.76,-5.23,5.23,5.05,5.21,2.47,2.48,2.48
110.74,-2.73,-5.16,-2.73,-5.14,5.14,4.96,5.10,2.41,2.41,2.42
111.85,-2.69,-5.05,-2.71,-5.06,5.06,4.88,5.00,2.36,2.35,2.36
112.97,-2.67,-4.95,-2.69,-4.97,4.97,4.80,4.90,2.30,2.28,2.28
114.10,-2.65,-4.88,-2.67,-4.89,4.89,4.72,4.80,2.24,2.21,2.22
115.24,-2.64,-4.79,-2.66,-4.81,4.81,4.65,4.70,2.16,2.15,2.15
116.39,-2.63,-4.70,-2.65,-4.73,4.73,4.58,4.60,2.10,2.08,2.07
117.55,-2.64,-4.65,-2.65,-4.66,4.66,4.51,4.51,2.01,2.01,2.00
118.73,-2.64,-4.57,-2.64,-4.58,4.58,4.44,4.42,1.94,1.94,1.93
119.92,-2.65,-4.53,-2.64,-4.52,4.52,4.37,4.33,1.86,1.87,1.87
121.12,-2.65,-4.46,-2.64,-4.45,4.45,4.31,4.24,1.80,1.81,1.80
122.33,-2.65,-4.39,-2.64,-4.39,4.39,4.25,4.16,1.73,1.74,1.74
123.55,-2.65,-4.34,-2.65,-4.32,4.32,4.19,4.08,1.67,1.68,1.69
124.79,-2.65,-4.28,-2.65,-4.27,4.27,4.14,4.00,1.61,1.62,1.62
126.03,-2.65,-4.22,-2.65,-4.21,4.21,4.08,3.93,1.56,1.56,1.56
127.29,-2.65,-4.15,-2.65,-4.15,4.15,4.03,3.85,1.50,1.50,1.50
128.57,-2.65,-4.09,-2.65,-4.10,4.10,3.98,3.78,1.44,1.44,1.43
129.85,-2.65,-4.04,-2.66,-4.04,4.04,3.93,3.71,1.39,1.38,1.38
131.15,-2.65,-3.98,-2.65,-3.99,3.99,3.88,3.64,1.33,1.33,1.32
132.46,-2.65,-3.93,-2.65,-3.93,3.93,3.84,3.58,1.28,1.28,1.28
133.79,-2.65,-3.88,-2.65,-3.88,3.88,3.79,3.52,1.22,1.22,1.23
135.12,-2.65,-3.83,-2.65,-3.83,3.83,3.75,3.46,1.17,1.17,1.17
136.48,-2.65,-3.78,-2.65,-3.78,3.78,3.71,3.40,1.13,1.13,1.13
137.84,-2.65,-3.73,-2.65,-3.73,3.73,3.67,3.34,1.08,1.08,1.07
139.22,-2.65,-3.68,-2.65,-3.68,3.68,3.63,3.28,1.03,1.03,1.02
140.61,-2.65,-3.62,-2.65,-3.64,3.64,3.59,3.23,0.98,0.98,0.97
142.02,-2.65,-3.59,-2.65,-3.59,3.59,3.56,3.18,0.94,0.94,0.94
143.44,-2.65,-3.55,-2.65,-3.55,3.55,3.52,3.13,0.89,0.89,0.90
144.87,-2.65,-3.50,-2.65,-3.50,3.50,3.49,3.08,0.85,0.85,0.85
146.32,-2.65,-3.45,-2.65,-3.45,3.45,3.45,3.03,0.80,0.80,0.80
147.78,-2.65,-3.42,-2.65,-3.41,3.41,3.42,2.99,0.75,0.75,0.76
149.26,-2.65,-3.37,-2.65,-3.36,3.36,3.38,2.94,0.70,0.70,0.72
150.75,-2.65,-3.31,-2.65,-3.31,3.31,3.35,2.90,0.66,0.66,0.65
152.26,-2.65,-3.26,-2.65,-3.26,3.26,3.32,2.86,0.61,0.61,0.61
153.78,-2.65,-3.22,-2.65,-3.21,3.21,3.28,2.82,0.56,0.56,0.56
155.32,-2.65,-3.15,-2.65,-3.16,3.16,3.25,2.78,0.51,0.51,0.50
156.88,-2.65,-3.11,-2.65,-3.11,3.11,3.22,2.74,0.46,0.46,0.46
158.44,-2.65,-3.06,-2.65,-3.06,3.06,3.19,2.71,0.41,0.41,0.41
160.03,-2.65,-3.00,-2.66,-3.01,3.01,3.16,2.67,0.35,0.35,0.35
161.63,-2.65,-2.94,-2.66,-2.96,2.96,3.13,2.64,0.30,0.30,0.29
163.24,-2.65,-2.90,-2.66,-2.90,2.90,3.10,2.60,0.25,0.25,0.24
164.88,-2.65,-2.85,-2.65,-2.85,2.85,3.07,2.57,0.19,0.19,0.20
166.53,-2.65,-2.79,-2.65,-2.79,2.79,3.04,2.54,0.14,0.14,0.14
168.19,-2.65,-2.74,-2.65,-2.74,2.74,3.00,2.51,0.08,0.09,0.09
169.87,-2.65,-2.69,-2.65,-2.68,2.68,2.97,2.48,0.02,0.03,0.03
171.57,-2.65,-2.63,-2.64,-2.62,2.62,2.94,2.45,-0.04,-0.03,-0.02
173.29,-2.65,-2.57,-2.64,-2.56,2.56,2.91,2.43,-0.10,-0.09,-0.08
175.02,-2.65,-2.52,-2.64,-2.49,2.49,2.88,2.40,-0.16,-0.14,-0.13
176.77,-2.64,-2.44,-2.64,-2.44,2.44,2.85,2.37,-0.21,-0.20,-0.20
178.54,-2.63,-2.37,-2.64,-2.38,2.38,2.82,2.35,-0.26,-0.26,-0.26
180.32,-2.63,-2.31,-2.65,-2.32,2.32,2.79,2.32,-0.31,-0.32,-0.32
182.13,-2.63,-2.25,-2.65,-2.27,2.27,2.76,2.30,-0.36,-0.38,-0.38
183.95,-2.64,-2.20,-2.67,-2.22,2.22,2.73,2.28,-0.42,-0.45,-0.45
185.79,-2.66,-2.16,-2.68,-2.17,2.17,2.70,2.26,-0.49,-0.51,-0.50
187.65,-2.68,-2.11,-2.70,-2.13,2.13,2.67,2.24,-0.55,-0.57,-0.58
189.52,-2.71,-2.08,-2.72,-2.09,2.09,2.64,2.22,-0.62,-0.63,-0.63
191.42,-2.73,-2.05,-2.75,-2.06,2.06,2.61,2.20,-0.67,-0.68,-0.69
193.33,-2.77,-2.03,-2.78,-2.03,2.03,2.58,2.18,-0.74,-0.74,-0.74
195.27,-2.80,-2.01,-2.81,-2.01,2.01,2.55,2.17,-0.80,-0.80,-0.79
197.22,-2.83,-1.98,-2.84,-1.98,1.98,2.52,2.15,-0.85,-0.85,-0.85
199.19,-2.87,-1.96,-2.87,-1.96,1.96,2.49,2.13,-0.91,-0.91,-0.92
201.18,-2.90,-1.94,-2.89,-1.93,1.93,2.46,2.12,-0.97,-0.96,-0.97
203.19,-2.93,-1.93,-2.91,-1.90,1.90,2.43,2.10,-1.03,-1.01,-1.01
205.23,-2.95,-1.89,-2.93,-1.87,1.87,2.40,2.09,-1.08,-1.06,-1.06
207.28,-2.97,-1.88,-2.95,-1.84,1.84,2.37,2.08,-1.13,-1.11,-1.09
209.35,-2.99,-1.84,-2.96,-1.81,1.81,2.34,2.06,-1.19,-1.15,-1.15
211.44,-3.00,-1.80,-2.97,-1.77,1.77,2.31,2.05,-1.23,-1.20,-1.21
213.56,-2.99,-1.75,-2.98,-1.73,1.73,2.28,2.04,-1.26,-1.24,-1.24
215.69,-2.97,-1.70,-2.98,-1.70,1.70,2.25,2.03,-1.27,-1.28,-1.27
217.85,-2.96,-1.65,-2.99,-1.67,1.67,2.22,2.01,-1.29,-1.32,-1.32
220.03,-2.96,-1.60,-3.00,-1.64,1.64,2.19,2.00,-1.32,-1.35,-1.36
222.23,-2.97,-1.58,-3.00,-1.62,1.62,2.16,1.99,-1.36,-1.39,-1.40
224.45,-2.98,-1.56,-3.02,-1.60,1.60,2.13,1.98,-1.38,-1.42,-1.42
226.70,-3.01,-1.57,-3.03,-1.59,1.59,2.10,1.97,-1.43,-1.45,-1.44
228.96,-3.04,-1.57,-3.05,-1.58,1.58,2.07,1.96,-1.46,-1.47,-1.48
231.25,-3.06,-1.58,-3.08,-1.58,1.58,2.04,1.95,-1.48,-1.49,-1.49
233.57,-3.09,-1.58,-3.10,-1.59,1.59,2.02,1.94,-1.50,-1.51,-1.51
235.90,-3.14,-1.61,-3.13,-1.61,1.61,1.99,1.93,-1.54,-1.53,-1.53
238.26,-3.16,-1.62,-3.17,-1.62,1.62,1.96,1.91,-1.54,-1.54,-1.54
240.64,-3.19,-1.64,-3.20,-1.64,1.64,1.93,1.90,-1.55,-1.55,-1.55
243.05,-3.23,-1.68,-3.22,-1.67,1.67,1.90,1.89,-1.57,-1.56,-1.56
245.48,-3.25,-1.69,-3.25,-1.69,1.69,1.87,1.88,-1.57,-1.56,-1.57
247.93,-3.29,-1.73,-3.27,-1.70,1.70,1.85,1.87,-1.59,-1.57,-1.57
250.41,-3.31,-1.74,-3.29,-1.72,1.72,1.82,1.85,-1.59,-1.57,-1.57
252.92,-3.32,-1.76,-3.30,-1.74,1.74,1.79,1.84,-1.59,-1.56,-1.56
255.45,-3.33,-1.78,-3.31,-1.75,1.75,1.76,1.83,-1.58,-1.56,-1.55
258.00,-3.32,-1.77,-3.32,-1.76,1.76,1.74,1.81,-1.56,-1.55,-1.55
260.58,-3.31,-1.76,-3.32,-1.77,1.77,1.71,1.80,-1.54,-1.55,-1.55
263.19,-3.30,-1.77,-3.32,-1.78,1.78,1.68,1.79,-1.52,-1.54,-1.54
265.82,-3.30,-1.77,-3.32,-1.79,1.79,1.66,1.77,-1.51,-1.53,-1.53
268.48,-3.30,-1.79,-3.32,-1.80,1.80,1.63,1.76,-1.50,-1.52,-1.51
271.16,-3.30,-1.80,-3.31,-1.81,1.81,1.60,1.74,-1.50,-1.50,-1.50
273.87,-3.30,-1.81,-3.31,-1.82,1.82,1.58,1.73,-1.49,-1.49,-1.50
276.61,-3.30,-1.83,-3.30,-1.82,1.82,1.55,1.71,-1.48,-1.48,-1.47
279.38,-3.30,-1.84,-3.30,-1.83,1.83,1.53,1.70,-1.47,-1.47,-1.47
282.17,-3.30,-1.85,-3.30,-1.84,1.84,1.50,1.69,-1.46,-1.46,-1.45
284.99,-3.30,-1.86,-3.30,-1.86,1.86,1.47,1.67,-1.45,-1.44,-1.44
287.84,-3.30,-1.87,-3.30,-1.87,1.87,1.45,1.66,-1.43,-1.43,-1.44
290.72,-3.30,-1.88,-3.31,-1.89,1.89,1.42,1.64,-1.41,-1.42,-1.42
293.63,-3.30,-1.90,-3.31,-1.91,1.91,1.40,1.63,-1.40,-1.41,-1.41
296.57,-3.30,-1.91,-3.32,-1.92,1.92,1.38,1.62,-1.38,-1.39,-1.39
299.53,-3.30,-1.92,-3.32,-1.94,1.94,1.35,1.61,-1.37,-1.38,-1.39
302.53,-3.30,-1.92,-3.32,-1.95,1.95,1.33,1.60,-1.36,-1.37,-1.38
305.55,-3.31,-1.96,-3.32,-1.96,1.96,1.30,1.59,-1.35,-1.36,-1.36
308.61,-3.32,-1.97,-3.32,-1.97,1.97,1.28,1.58,-1.36,-1.35,-1.35
311.69,-3.33,-1.99,-3.31,-1.97,1.97,1.26,1.57,-1.36,-1.34,-1.34
314.81,-3.32,-2.01,-3.31,-1.97,1.97,1.23,1.56,-1.35,-1.33,-1.32
317.96,-3.31,-1.99,-3.30,-1.97,1.97,1.21,1.55,-1.34,-1.33,-1.32
321.14,-3.30,-1.99,-3.28,-1.96,1.96,1.19,1.55,-1.34,-1.32,-1.32
324.35,-3.27,-1.95,-3.26,-1.95,1.95,1.17,1.54,-1.32,-1.31,-1.32
327.59,-3.24,-1.94,-3.24,-1.93,1.93,1.14,1.54,-1.31,-1.31,-1.30
330.87,-3.22,-1.92,-3.21,-1.91,1.91,1.12,1.53,-1.31,-1.30,-1.31
334.18,-3.19,-1.88,-3.19,-1.88,1.88,1.10,1.53,-1.31,-1.30,-1.31
337.52,-3.15,-1.85,-3.15,-1.85,1.85,1.08,1.53,-1.30,-1.30,-1.30
340.90,-3.12,-1.83,-3.12,-1.82,1.82,1.06,1.53,-1.30,-1.30,-1.30
344.30,-3.09,-1.80,-3.09,-1.79,1.79,1.03,1.53,-1.30,-1.30,-1.30
347.75,-3.05,-1.75,-3.07,-1.76,1.76,1.01,1.53,-1.29,-1.30,-1.30
351.23,-3.03,-1.73,-3.04,-1.73,1.73,0.99,1.53,-1.30,-1.31,-1.30
354.74,-3.00,-1.70,-3.02,-1.71,1.71,0.97,1.54,-1.29,-1.31,-1.31
358.28,-2.97,-1.66,-3.00,-1.69,1.69,0.95,1.54,-1.29,-1.31,-1.32
361.87,-2.96,-1.64,-2.99,-1.67,1.67,0.93,1.55,-1.29,-1.32,-1.32
365.49,-2.95,-1.63,-2.98,-1.65,1.65,0.91,1.55,-1.30,-1.33,-1.32
369.14,-2.96,-1.63,-2.97,-1.64,1.64,0.89,1.56,-1.32,-1.33,-1.33
372.83,-2.97,-1.64,-2.97,-1.63,1.63,0.87,1.57,-1.35,-1.34,-1.34
376.56,-2.97,-1.63,-2.97,-1.62,1.62,0.85,1.58,-1.35,-1.35,-1.35
380.33,-2.98,-1.63,-2.97,-1.61,1.61,0.83,1.59,-1.37,-1.36,-1.35
384.13,-2.98,-1.62,-2.97,-1.61,1.61,0.81,1.60,-1.38,-1.36,-1.36
387.97,-2.98,-1.61,-2.97,-1.60,1.60,0.79,1.61,-1.38,-1.37,-1.37
391.85,-2.98,-1.60,-2.98,-1.60,1.60,0.77,1.63,-1.39,-1.38,-1.39
395.77,-2.98,-1.61,-2.98,-1.59,1.59,0.75,1.64,-1.39,-1.39,-1.38
399.73,-2.98,-1.59,-2.98,-1.59,1.59,0.73,1.65,-1.39,-1.39,-1.39
403.72,-2.98,-1.58,-2.99,-1.59,1.59,0.72,1.67,-1.40,-1.40,-1.40
407.76,-2.98,-1.57,-2.99,-1.58,1.58,0.70,1.68,-1.40,-1.40,-1.41
411.84,-2.98,-1.58,-2.99,-1.58,1.58,0.68,1.70,-1.40,-1.41,-1.40
415.96,-2.98,-1.57,-2.99,-1.58,1.58,0.66,1.71,-1.41,-1.41,-1.41
420.12,-2.98,-1.57,-2.99,-1.58,1.58,0.64,1.73,-1.41,-1.42,-1.42
424.32,-2.98,-1.57,-3.00,-1.57,1.57,0.62,1.74,-1.41,-1.42,-1.42
428.56,-2.98,-1.56,-3.00,-1.57,1.57,0.61,1.75,-1.41,-1.42,-1.43
