frequency,raw,error,smoothed,error_smoothed,equalization,parametric_eq,fixed_band_eq,equalized_raw,equalized_smoothed,target
20.00,10.65,-4.30,10.64,-4.31,4.31,4.17,1.81,14.97,14.96,14.95
20.20,10.63,-4.31,10.63,-4.32,4.32,4.17,1.86,14.95,14.94,14.94
20.40,10.61,-4.32,10.61,-4.32,4.32,4.17,1.92,14.93,14.93,14.93
20.61,10.60,-4.32,10.60,-4.32,4.32,4.17,1.97,14.92,14.92,14.92
20.81,10.59,-4.31,10.59,-4.32,4.32,4.17,2.03,14.91,14.91,14.90
21.02,10.58,-4.31,10.59,-4.31,4.31,4.17,2.09,14.90,14.90,14.89
21.23,10.57,-4.31,10.58,-4.31,4.31,4.17,2.15,14.88,14.89,14.88
21.44,10.57,-4.32,10.58,-4.30,4.30,4.17,2.21,14.87,14.88,14.89
21.66,10.58,-4.29,10.59,-4.28,4.28,4.17,2.27,14.87,14.87,14.87
21.87,10.58,-4.29,10.59,-4.27,4.27,4.17,2.34,14.85,14.86,14.87
22.09,10.59,-4.26,10.60,-4.25,4.25,4.17,2.40,14.85,14.85,14.85
22.31,10.60,-4.24,10.61,-4.23,4.23,4.16,2.47,14.84,14.85,14.84
22.54,10.62,-4.21,10.63,-4.21,4.21,4.16,2.54,14.83,14.84,14.83
22.76,10.64,-4.19,10.65,-4.18,4.18,4.16,2.62,14.82,14.83,14.83
22.99,10.67,-4.15,10.68,-4.15,4.15,4.15,2.69,14.82,14.83,14.82
23.22,10.70,-4.11,10.70,-4.12,4.12,4.15,2.77,14.82,14.82,14.81
23.45,10.73,-4.09,10.73,-4.09,4.09,4.14,2.84,14.82,14.82,14.82
23.69,10.76,-4.05,10.76,-4.05,4.05,4.13,2.92,14.81,14.81,14.81
23.92,10.79,-4.01,10.79,-4.02,4.02,4.13,3.00,14.81,14.81,14.80
24.16,10.82,-3.99,10.82,-3.99,3.99,4.12,3.09,14.81,14.81,14.81
24.40,10.85,-3.96,10.85,-3.96,3.96,4.11,3.17,14.81,14.80,14.81
24.65,10.88,-3.92,10.87,-3.93,3.93,4.11,3.25,14.81,14.80,14.80
24.89,10.90,-3.90,10.89,-3.91,3.91,4.10,3.34,14.81,14.80,14.80
25.14,10.92,-3.87,10.91,-3.89,3.89,4.09,3.43,14.81,14.80,14.79
25.39,10.94,-3.85,10.92,-3.87,3.87,4.08,3.51,14.82,14.80,14.79
25.65,10.95,-3.84,10.94,-3.86,3.86,4.07,3.60,14.81,14.80,14.79
25.91,10.96,-3.83,10.94,-3.85,3.85,4.06,3.68,14.82,14.80,14.79
26.16,10.95,-3.85,10.95,-3.85,3.85,4.05,3.77,14.80,14.79,14.80
26.43,10.94,-3.85,10.95,-3.84,3.84,4.04,3.86,14.79,14.80,14.79
26.69,10.94,-3.85,10.95,-3.85,3.85,4.03,3.94,14.79,14.80,14.79
26.96,10.93,-3.86,10.95,-3.85,3.85,4.02,4.02,14.78,14.80,14.79
27.23,10.93,-3.86,10.94,-3.86,3.86,4.00,4.10,14.79,14.80,14.79
27.50,10.93,-3.86,10.94,-3.86,3.86,3.99,4.18,14.80,14.80,14.79
27.77,10.93,-3.87,10.93,-3.87,3.87,3.98,4.25,14.80,14.80,14.80
28.05,10.93,-3.86,10.92,-3.88,3.88,3.96,4.33,14.81,14.80,14.79
28.33,10.93,-3.87,10.92,-3.88,3.88,3.95,4.39,14.82,14.80,14.80
28.62,10.93,-3.87,10.92,-3.89,3.89,3.93,4.46,14.82,14.80,14.80
28.90,10.92,-3.89,10.92,-3.89,3.89,3.92,4.51,14.81,14.80,14.81
29.19,10.91,-3.90,10.92,-3.89,3.89,3.90,4.57,14.80,14.80,14.81
29.48,10.91,-3.89,10.92,-3.88,3.88,3.89,4.61,14.79,14.80,14.80
29.78,10.91,-3.89,10.93,-3.87,3.87,3.87,4.65,14.78,14.80,14.80
30.08,10.92,-3.88,10.94,-3.85,3.85,3.85,4.69,14.78,14.80,14.80
30.38,10.94,-3.84,10.96,-3.84,3.84,3.83,4.71,14.78,14.79,14.78
30.68,10.96,-3.82,10.98,-3.81,3.81,3.82,4.73,14.78,14.79,14.78
30.99,10.99,-3.79,11.00,-3.79,3.79,3.80,4.74,14.78,14.78,14.78
31.30,11.01,-3.77,11.02,-3.76,3.76,3.78,4.75,14.77,14.78,14.78
31.61,11.04,-3.73,11.05,-3.72,3.72,3.76,4.74,14.77,14.77,14.77
31.93,11.07,-3.68,11.08,-3.69,3.69,3.74,4.73,14.76,14.76,14.75
32.24,11.11,-3.65,11.11,-3.65,3.65,3.72,4.72,14.76,14.76,14.76
32.57,11.14,-3.60,11.14,-3.61,3.61,3.70,4.69,14.76,14.75,14.74
32.89,11.17,-3.57,11.17,-3.58,3.58,3.68,4.66,14.75,14.74,14.74
33.22,11.20,-3.53,11.19,-3.55,3.55,3.66,4.62,14.75,14.74,14.73
33.55,11.22,-3.51,11.21,-3.52,3.52,3.63,4.58,14.74,14.73,14.73
33.89,11.24,-3.48,11.23,-3.49,3.49,3.61,4.53,14.74,14.72,14.72
34.23,11.26,-3.44,11.25,-3.47,3.47,3.59,4.47,14.73,14.72,14.70
34.57,11.27,-3.43,11.26,-3.45,3.45,3.56,4.41,14.72,14.71,14.70
34.92,11.28,-3.40,11.27,-3.43,3.43,3.54,4.35,14.71,14.70,14.68
35.27,11.28,-3.42,11.27,-3.41,3.41,3.52,4.29,14.70,14.69,14.70
35.62,11.27,-3.40,11.28,-3.40,3.40,3.49,4.22,14.67,14.68,14.67
35.97,11.26,-3.41,11.28,-3.39,3.39,3.47,4.14,14.65,14.66,14.67
36.33,11.26,-3.39,11.27,-3.37,3.37,3.44,4.07,14.64,14.65,14.65
36.70,11.26,-3.37,11.27,-3.36,3.36,3.42,4.00,14.62,14.63,14.63
37.06,11.26,-3.35,11.27,-3.35,3.35,3.39,3.92,14.61,14.62,14.61
37.43,11.26,-3.33,11.27,-3.33,3.33,3.36,3.84,14.59,14.60,14.59
37.81,11.26,-3.32,11.27,-3.31,3.31,3.33,3.76,14.58,14.58,14.58
38.19,11.26,-3.29,11.26,-3.30,3.30,3.31,3.69,14.56,14.56,14.55
38.57,11.26,-3.27,11.26,-3.28,3.28,3.28,3.61,14.54,14.54,14.53
38.95,11.26,-3.26,11.26,-3.26,3.26,3.25,3.53,14.52,14.52,14.52
39.34,11.26,-3.23,11.26,-3.23,3.23,3.22,3.46,14.49,14.49,14.49
39.74,11.26,-3.20,11.26,-3.21,3.21,3.19,3.39,14.47,14.47,14.46
40.14,11.26,-3.18,11.26,-3.19,3.19,3.16,3.31,14.45,14.45,14.44
40.54,11.26,-3.16,11.26,-3.16,3.16,3.13,3.24,14.43,14.43,14.42
40.94,11.26,-3.13,11.26,-3.14,3.14,3.10,3.17,14.40,14.40,14.39
41.35,11.26,-3.12,11.26,-3.12,3.12,3.07,3.10,14.38,14.38,14.38
41.76,11.26,-3.09,11.26,-3.10,3.10,3.04,3.04,14.36,14.36,14.35
42.18,11.26,-3.08,11.26,-3.07,3.07,3.01,2.98,14.34,14.34,14.34
42.60,11.26,-3.05,11.26,-3.05,3.05,2.98,2.91,14.31,14.31,14.31
43.03,11.26,-3.03,11.26,-3.03,3.03,2.95,2.85,14.29,14.29,14.29
43.46,11.26,-2.99,11.26,-3.00,3.00,2.92,2.80,14.26,14.26,14.25
43.90,11.26,-2.97,11.26,-2.97,2.97,2.88,2.74,14.24,14.24,14.23
44.33,11.26,-2.94,11.26,-2.95,2.95,2.85,2.69,14.21,14.21,14.20
44.78,11.26,-2.92,11.26,-2.92,2.92,2.82,2.64,14.18,14.18,14.18
45.23,11.26,-2.90,11.26,-2.89,2.89,2.78,2.59,14.15,14.15,14.16
45.68,11.26,-2.85,11.26,-2.85,2.85,2.75,2.54,14.12,14.12,14.11
46.13,11.26,-2.82,11.26,-2.82,2.82,2.71,2.50,14.08,14.08,14.08
46.60,11.26,-2.78,11.26,-2.78,2.78,2.68,2.46,14.04,14.04,14.04
47.06,11.26,-2.75,11.26,-2.74,2.74,2.64,2.42,14.01,14.01,14.01
47.53,11.26,-2.71,11.26,-2.70,2.70,2.61,2.38,13.97,13.97,13.97
48.01,11.26,-2.66,11.26,-2.66,2.66,2.57,2.34,13.93,13.93,13.92
48.49,11.26,-2.62,11.26,-2.62,2.62,2.54,2.31,13.89,13.89,13.88
48.97,11.26,-2.57,11.26,-2.58,2.58,2.50,2.28,13.84,13.84,13.83
49.46,11.26,-2.54,11.26,-2.54,2.54,2.46,2.24,13.80,13.80,13.80
49.96,11.26,-2.48,11.26,-2.50,2.50,2.43,2.22,13.76,13.76,13.74
50.46,11.26,-2.45,11.26,-2.45,2.45,2.39,2.19,13.72,13.72,13.71
50.96,11.26,-2.41,11.26,-2.41,2.41,2.35,2.16,13.68,13.68,13.67
51.47,11.26,-2.37,11.26,-2.37,2.37,2.31,2.13,13.63,13.63,13.63
51.99,11.26,-2.32,11.26,-2.33,2.33,2.28,2.11,13.59,13.59,13.58
52.51,11.26,-2.29,11.26,-2.29,2.29,2.24,2.09,13.55,13.55,13.55
53.03,11.26,-2.26,11.26,-2.25,2.25,2.20,2.06,13.51,13.51,13.52
53.56,11.26,-2.21,11.26,-2.21,2.21,2.16,2.04,13.47,13.47,13.47
54.10,11.26,-2.16,11.26,-2.17,2.17,2.12,2.02,13.43,13.43,13.42
54.64,11.26,-2.12,11.26,-2.13,2.13,2.08,2.00,13.39,13.39,13.38
55.18,11.26,-2.08,11.26,-2.09,2.09,2.04,1.97,13.35,13.35,13.34
55.74,11.26,-2.03,11.26,-2.05,2.05,2.00,1.95,13.31,13.31,13.29
56.29,11.26,-2.01,11.26,-2.01,2.01,1.96,1.93,13.27,13.27,13.27
56.86,11.26,-1.97,11.26,-1.97,1.97,1.92,1.91,13.23,13.23,13.23
57.42,11.26,-1.92,11.26,-1.93,1.93,1.88,1.88,13.19,13.19,13.18
58.00,11.26,-1.88,11.26,-1.89,1.89,1.84,1.86,13.15,13.15,13.14
58.58,11.26,-1.85,11.26,-1.84,1.84,1.79,1.83,13.11,13.11,13.11
59.16,11.26,-1.82,11.26,-1.80,1.80,1.75,1.81,13.06,13.06,13.08
59.76,11.26,-1.77,11.26,-1.75,1.75,1.71,1.78,13.01,13.01,13.03
60.35,11.26,-1.72,11.26,-1.70,1.70,1.67,1.75,12.97,12.97,12.98
60.96,11.26,-1.66,11.26,-1.65,1.65,1.62,1.72,12.92,12.92,12.92
61.57,11.26,-1.60,11.26,-1.60,1.60,1.58,1.69,12.87,12.87,12.86
62.18,11.26,-1.54,11.26,-1.55,1.55,1.54,1.65,12.81,12.81,12.80
62.80,11.26,-1.48,11.26,-1.50,1.50,1.50,1.62,12.76,12.76,12.74
63.43,11.26,-1.43,11.26,-1.44,1.44,1.45,1.58,12.71,12.71,12.69
64.07,11.26,-1.38,11.26,-1.39,1.39,1.41,1.54,12.65,12.65,12.64
64.71,11.26,-1.33,11.26,-1.33,1.33,1.36,1.50,12.60,12.60,12.59
65.35,11.26,-1.27,11.26,-1.28,1.28,1.32,1.45,12.54,12.54,12.53
66.01,11.26,-1.22,11.26,-1.22,1.22,1.27,1.41,12.49,12.49,12.48
66.67,11.26,-1.18,11.26,-1.17,1.17,1.23,1.36,12.43,12.43,12.44
67.33,11.26,-1.11,11.26,-1.11,1.11,1.18,1.31,12.38,12.38,12.37
68.01,11.26,-1.06,11.26,-1.06,1.06,1.14,1.26,12.32,12.32,12.32
68.69,11.26,-1.01,11.26,-1.00,1.00,1.09,1.21,12.27,12.27,12.27
69.37,11.26,-0.96,11.26,-0.95,0.95,1.05,1.16,12.21,12.21,12.22
70.07,11.26,-0.90,11.26,-0.89,0.89,1.00,1.10,12.16,12.16,12.16
70.77,11.26,-0.83,11.26,-0.84,0.84,0.95,1.05,12.10,12.10,12.09
71.48,11.26,-0.78,11.26,-0.78,0.78,0.91,0.99,12.04,12.04,12.04
72.19,11.26,-0.72,11.26,-0.72,0.72,0.86,0.94,11.98,11.98,11.98
72.91,11.26,-0.65,11.26,-0.67,0.67,0.81,0.88,11.93,11.93,11.91
73.64,11.26,-0.60,11.26,-0.61,0.61,0.77,0.82,11.87,11.87,11.86
74.38,11.26,-0.54,11.26,-0.55,0.55,0.72,0.76,11.81,11.81,11.80
75.12,11.26,-0.49,11.27,-0.49,0.49,0.67,0.70,11.75,11.76,11.75
75.87,11.26,-0.44,11.27,-0.43,0.43,0.62,0.64,11.70,11.71,11.70
76.63,11.26,-0.38,11.27,-0.38,0.38,0.57,0.57,11.64,11.65,11.64
77.40,11.26,-0.34,11.28,-0.33,0.33,0.53,0.51,11.59,11.60,11.60
78.17,11.26,-0.28,11.28,-0.27,0.27,0.48,0.45,11.54,11.55,11.54
78.95,11.27,-0.23,11.28,-0.22,0.22,0.43,0.39,11.50,11.50,11.50
79.74,11.28,-0.17,11.27,-0.18,0.18,0.38,0.32,11.46,11.45,11.45
80.54,11.28,-0.12,11.27,-0.13,0.13,0.33,0.26,11.41,11.40,11.40
81.35,11.28,-0.06,11.26,-0.09,0.09,0.28,0.19,11.37,11.35,11.34
82.16,11.26,-0.05,11.25,-0.05,0.05,0.23,0.13,11.31,11.30,11.31
82.98,11.25,-0.00,11.24,-0.01,0.01,0.18,0.07,11.27,11.25,11.25
83.81,11.23,0.03,11.22,0.02,-0.02,0.13,0.00,11.21,11.20,11.20
84.65,11.20,0.06,11.20,0.05,-0.05,0.08,-0.06,11.15,11.14,11.14
85.50,11.18,0.10,11.17,0.08,-0.08,0.03,-0.13,11.10,11.09,11.08
86.35,11.15,0.12,11.15,0.11,-0.11,-0.02,-0.20,11.04,11.04,11.03
87.22,11.11,0.13,11.12,0.14,-0.14,-0.08,-0.26,10.98,10.98,10.98
88.09,11.08,0.16,11.09,0.16,-0.16,-0.13,-0.33,10.92,10.93,10.92
88.97,11.05,0.19,11.06,0.19,-0.19,-0.18,-0.39,10.87,10.87,10.86
89.86,11.02,0.21,11.03,0.21,-0.21,-0.23,-0.46,10.81,10.81,10.81
90.76,10.99,0.24,11.00,0.24,-0.24,-0.28,-0.53,10.75,10.75,10.75
91.66,10.97,0.29,10.97,0.28,-0.28,-0.34,-0.59,10.69,10.69,10.68
92.58,10.95,0.32,10.95,0.32,-0.32,-0.39,-0.66,10.63,10.63,10.63
93.51,10.93,0.35,10.93,0.36,-0.36,-0.44,-0.73,10.57,10.57,10.58
94.44,10.91,0.39,10.92,0.41,-0.41,-0.50,-0.80,10.50,10.51,10.52
95.39,10.89,0.44,10.91,0.46,-0.46,-0.55,-0.87,10.43,10.45,10.45
96.34,10.89,0.51,10.91,0.52,-0.52,-0.60,-0.94,10.37,10.39,10.38
97.30,10.89,0.57,10.91,0.59,-0.59,-0.66,-1.00,10.31,10.33,10.32
98.28,10.91,0.66,10.92,0.66,-0.66,-0.71,-1.07,10.26,10.26,10.25
99.26,10.93,0.74,10.93,0.73,-0.73,-0.76,-1.14,10.21,10.20,10.19
100.25,10.94,0.81,10.95,0.80,-0.80,-0.82,-1.21,10.14,10.14,10.13
101.25,10.97,0.89,10.97,0.88,-0.88,-0.87,-1.28,10.09,10.09,10.08
102.27,10.99,0.97,11.00,0.97,-0.97,-0.93,-1.35,10.02,10.03,10.02
103.29,11.02,1.06,11.02,1.05,-1.05,-0.98,-1.42,9.97,9.97,9.96
104.32,11.05,1.14,11.05,1.14,-1.14,-1.04,-1.48,9.91,9.91,9.91
105.37,11.08,1.23,11.08,1.23,-1.23,-1.09,-1.55,9.86,9.86,9.85
106.42,11.11,1.31,11.11,1.31,-1.31,-1.15,-1.62,9.80,9.80,9.80
107.48,11.14,1.40,11.14,1.40,-1.40,-1.20,-1.68,9.74,9.74,9.74
108.56,11.17,1.48,11.17,1.48,-1.48,-1.26,-1.75,9.69,9.69,9.69
109.64,11.20,1.57,11.19,1.57,-1.57,-1.31,-1.81,9.64,9.63,9.63
110.74,11.23,1.66,11.22,1.65,-1.65,-1.37,-1.87,9.59,9.57,9.57
111.85,11.25,1.74,11.24,1.73,-1.73,-1.42,-1.93,9.53,9.51,9.51
112.97,11.26,1.80,11.26,1.80,-1.80,-1.48,-1.99,9.46,9.45,9.46
114.10,11.27,1.87,11.27,1.88,-1.88,-1.54,-2.05,9.40,9.39,9.40
115.24,11.28,1.96,11.28,1.94,-1.94,-1.59,-2.10,9.34,9.34,9.32
116.39,11.28,2.02,11.29,2.01,-2.01,-1.65,-2.15,9.27,9.28,9.26
117.55,11.28,2.08,11.29,2.07,-2.07,-1.70,-2.20,9.21,9.22,9.20
118.73,11.28,2.14,11.29,2.13,-2.13,-1.76,-2.25,9.16,9.16,9.14
119.92,11.28,2.18,11.29,2.18,-2.18,-1.81,-2.29,9.10,9.11,9.10
121.12,11.28,2.23,11.28,2.23,-2.23,-1.87,-2.33,9.06,9.05,9.05
122.33,11.27,2.28,11.26,2.27,-2.27,-1.92,-2.37,9.00,8.99,8.99
123.55,11.26,2.32,11.25,2.31,-2.31,-1.98,-2.41,8.95,8.94,8.94
124.79,11.24,2.35,11.23,2.35,-2.35,-2.03,-2.44,8.90,8.88,8.89
126.03,11.21,2.38,11.21,2.38,-2.38,-2.09,-2.47,8.83,8.83,8.83
127.29,11.19,2.41,11.18,2.41,-2.41,-2.14,-2.49,8.78,8.77,8.78
128.57,11.16,2.45,11.16,2.44,-2.44,-2.20,-2.52,8.73,8.72,8.71
129.85,11.13,2.47,11.13,2.46,-2.46,-2.25,-2.54,8.67,8.66,8.66
131.15,11.10,2.50,11.10,2.49,-2.49,-2.30,-2.55,8.61,8.61,8.60
132.46,11.06,2.51,11.07,2.52,-2.52,-2.36,-2.57,8.55,8.55,8.55
133.79,11.03,2.54,11.05,2.55,-2.55,-2.41,-2.58,8.49,8.50,8.49
135.12,11.01,2.57,11.02,2.58,-2.58,-2.46,-2.59,8.44,8.45,8.44
136.48,10.98,2.59,11.00,2.61,-2.61,-2.51,-2.60,8.37,8.39,8.39
137.84,10.96,2.62,10.98,2.64,-2.64,-2.56,-2.60,8.32,8.34,8.34
139.22,10.94,2.66,10.97,2.68,-2.68,-2.61,-2.61,8.26,8.29,8.28
140.61,10.93,2.69,10.96,2.72,-2.72,-2.66,-2.61,8.22,8.24,8.24
142.02,10.93,2.75,10.95,2.75,-2.75,-2.71,-2.62,8.18,8.19,8.18
143.44,10.93,2.79,10.93,2.79,-2.79,-2.76,-2.62,8.15,8.15,8.14
144.87,10.93,2.83,10.92,2.82,-2.82,-2.81,-2.62,8.11,8.10,8.10
146.32,10.93,2.88,10.91,2.86,-2.86,-2.86,-2.62,8.08,8.06,8.05
147.78,10.93,2.92,10.90,2.89,-2.89,-2.90,-2.62,8.04,8.01,8.01
149.26,10.91,2.95,10.89,2.92,-2.92,-2.95,-2.63,8.00,7.97,7.96
150.75,10.89,2.97,10.87,2.94,-2.94,-2.99,-2.63,7.95,7.93,7.92
152.26,10.86,2.98,10.85,2.97,-2.97,-3.03,-2.63,7.90,7.88,7.88
153.78,10.83,2.99,10.83,2.99,-2.99,-3.08,-2.64,7.85,7.84,7.84
155.32,10.80,3.00,10.80,3.00,-3.00,-3.12,-2.64,7.80,7.80,7.80
156.88,10.77,3.02,10.77,3.02,-3.02,-3.16,-2.65,7.75,7.75,7.75
158.44,10.74,3.04,10.75,3.04,-3.04,-3.20,-2.66,7.70,7.71,7.70
160.03,10.71,3.05,10.72,3.06,-3.06,-3.23,-2.67,7.65,7.66,7.66
161.63,10.68,3.06,10.70,3.08,-3.08,-3.27,-2.68,7.60,7.62,7.62
163.24,10.66,3.09,10.68,3.11,-3.11,-3.30,-2.69,7.56,7.57,7.57
164.88,10.63,3.11,10.66,3.13,-3.13,-3.34,-2.71,7.50,7.53,7.52
166.53,10.62,3.15,10.65,3.17,-3.17,-3.37,-2.72,7.46,7.48,7.47
168.19,10.61,3.17,10.63,3.20,-3.20,-3.40,-2.74,7.41,7.43,7.44
169.87,10.61,3.23,10.62,3.24,-3.24,-3.43,-2.77,7.38,7.39,7.38
171.57,10.61,3.28,10.61,3.27,-3.27,-3.46,-2.79,7.34,7.34,7.33
173.29,10.61,3.32,10.60,3.31,-3.31,-3.48,-2.82,7.30,7.29,7.29
175.02,10.61,3.37,10.59,3.35,-3.35,-3.51,-2.84,7.27,7.24,7.24
176.77,10.60,3.41,10.58,3.38,-3.38,-3.53,-2.88,7.22,7.20,7.19
178.54,10.59,3.44,10.57,3.42,-3.42,-3.55,-2.91,7.18,7.15,7.15
180.32,10.57,3.48,10.55,3.45,-3.45,-3.57,-2.94,7.13,7.11,7.09
182.13,10.54,3.48,10.53,3.48,-3.48,-3.59,-2.98,7.07,7.06,7.06
183.95,10.51,3.50,10.52,3.50,-3.50,-3.60,-3.02,7.01,7.01,7.01
185.79,10.48,3.52,10.49,3.53,-3.53,-3.62,-3.06,6.96,6.97,6.96
187.65,10.45,3.53,10.47,3.54,-3.54,-3.63,-3.11,6.91,6.92,6.92
189.52,10.43,3.55,10.44,3.56,-3.56,-3.64,-3.16,6.88,6.88,6.88
191.42,10.40,3.56,10.41,3.57,-3.57,-3.65,-3.20,6.83,6.84,6.84
193.33,10.38,3.58,10.38,3.58,-3.58,-3.65,-3.25,6.80,6.80,6.80
195.27,10.35,3.60,10.35,3.59,-3.59,-3.66,-3.31,6.76,6.76,6.75
197.22,10.32,3.62,10.32,3.60,-3.60,-3.66,-3.36,6.72,6.72,6.70
199.19,10.29,3.62,10.29,3.61,-3.61,-3.66,-3.42,6.68,6.68,6.67
201.18,10.26,3.63,10.27,3.62,-3.62,-3.66,-3.47,6.64,6.65,6.63
203.19,10.23,3.63,10.24,3.63,-3.63,-3.66,-3.53,6.60,6.61,6.60
205.23,10.20,3.62,10.22,3.64,-3.64,-3.65,-3.59,6.56,6.58,6.58
207.28,10.17,3.62,10.19,3.65,-3.65,-3.64,-3.64,6.53,6.54,6.55
209.35,10.16,3.65,10.17,3.65,-3.65,-3.64,-3.70,6.51,6.51,6.51
211.44,10.14,3.66,10.14,3.65,-3.65,-3.63,-3.76,6.49,6.48,6.48
213.56,10.12,3.66,10.11,3.65,-3.65,-3.61,-3.82,6.47,6.46,6.46
215.69,10.10,3.67,10.08,3.65,-3.65,-3.60,-3.87,6.45,6.43,6.43
217.85,10.07,3.67,10.05,3.65,-3.65,-3.58,-3.93,6.43,6.40,6.40
220.03,10.03,3.66,10.02,3.64,-3.64,-3.57,-3.98,6.39,6.38,6.37
222.23,9.99,3.65,9.99,3.63,-3.63,-3.55,-4.03,6.36,6.36,6.34
224.45,9.95,3.62,9.96,3.63,-3.63,-3.53,-4.07,6.33,6.33,6.33
226.70,9.92,3.62,9.93,3.62,-3.62,-3.50,-4.11,6.30,6.31,6.30
228.96,9.88,3.59,9.90,3.61,-3.61,-3.48,-4.15,6.27,6.29,6.29
231.25,9.85,3.58,9.87,3.60,-3.60,-3.46,-4.19,6.26,6.27,6.27
233.57,9.82,3.57,9.84,3.58,-3.58,-3.43,-4.22,6.24,6.26,6.25
235.90,9.79,3.55,9.81,3.57,-3.57,-3.40,-4.24,6.23,6.24,6.24
238.26,9.77,3.56,9.78,3.55,-3.55,-3.37,-4.26,6.22,6.23,6.21
240.64,9.75,3.53,9.75,3.53,-3.53,-3.34,-4.27,6.22,6.22,6.22
243.05,9.73,3.53,9.72,3.52,-3.52,-3.31,-4.27,6.22,6.21,6.20
245.48,9.71,3.52,9.70,3.50,-3.50,-3.28,-4.27,6.21,6.20,6.19
247.93,9.68,3.50,9.68,3.49,-3.49,-3.24,-4.26,6.20,6.19,6.18
250.41,9.66,3.47,9.66,3.47,-3.47,-3.21,-4.24,6.19,6.19,6.19
252.92,9.63,3.45,9.63,3.45,-3.45,-3.17,-4.22,6.18,6.18,6.18
255.45,9.60,3.43,9.61,3.43,-3.43,-3.13,-4.19,6.17,6.18,6.17
258.00,9.57,3.40,9.59,3.42,-3.42,-3.09,-4.15,6.16,6.17,6.17
260.58,9.55,3.38,9.57,3.40,-3.40,-3.05,-4.10,6.16,6.17,6.17
263.19,9.53,3.36,9.54,3.37,-3.37,-3.01,-4.05,6.16,6.17,6.17
265.82,9.51,3.35,9.51,3.35,-3.35,-2.97,-3.99,6.17,6.16,6.16
268.48,9.50,3.34,9.48,3.32,-3.32,-2.93,-3.93,6.18,6.16,6.16
271.16,9.47,3.31,9.45,3.29,-3.29,-2.89,-3.86,6.18,6.16,6.16
273.87,9.44,3.28,9.42,3.26,-3.26,-2.84,-3.79,6.18,6.16,6.16
276.61,9.40,3.24,9.39,3.24,-3.24,-2.80,-3.71,6.17,6.16,6.16
279.38,9.37,3.23,9.36,3.21,-3.21,-2.76,-3.62,6.17,6.16,6.14
282.17,9.32,3.18,9.33,3.17,-3.17,-2.71,-3.53,6.15,6.16,6.14
284.99,9.28,3.13,9.30,3.14,-3.14,-2.66,-3.44,6.14,6.16,6.15
287.84,9.24,3.08,9.27,3.11,-3.11,-2.62,-3.35,6.13,6.16,6.16
290.72,9.21,3.06,9.23,3.07,-3.07,-2.57,-3.25,6.14,6.16,6.15
293.63,9.19,3.03,9.20,3.03,-3.03,-2.52,-3.15,6.16,6.17,6.16
296.57,9.16,2.99,9.16,2.99,-2.99,-2.47,-3.05,6.17,6.17,6.17
299.53,9.14,2.97,9.13,2.95,-2.95,-2.43,-2.95,6.19,6.18,6.17
302.53,9.11,2.92,9.09,2.91,-2.91,-2.38,-2.84,6.20,6.18,6.19
305.55,9.06,2.88,9.06,2.87,-2.87,-2.33,-2.74,6.19,6.19,6.18
308.61,9.02,2.83,9.02,2.83,-2.83,-2.28,-2.64,6.19,6.19,6.19
311.69,8.99,2.79,8.99,2.79,-2.79,-2.23,-2.53,6.21,6.20,6.20
314.81,8.95,2.75,8.95,2.74,-2.74,-2.18,-2.43,6.21,6.21,6.20
317.96,8.90,2.69,8.91,2.70,-2.70,-2.13,-2.32,6.21,6.22,6.21
321.14,8.86,2.64,8.87,2.65,-2.65,-2.08,-2.22,6.22,6.22,6.22
324.35,8.81,2.59,8.83,2.59,-2.59,-2.03,-2.11,6.22,6.23,6.22
327.59,8.77,2.52,8.78,2.54,-2.54,-1.97,-2.01,6.23,6.24,6.25
330.87,8.74,2.50,8.73,2.48,-2.48,-1.92,-1.91,6.26,6.25,6.24
334.18,8.70,2.45,8.68,2.43,-2.43,-1.87,-1.81,6.28,6.25,6.25
337.52,8.64,2.39,8.63,2.37,-2.37,-1.82,-1.71,6.28,6.26,6.25
340.90,8.58,2.31,8.58,2.31,-2.31,-1.77,-1.61,6.28,6.27,6.27
344.30,8.51,2.23,8.52,2.24,-2.24,-1.71,-1.51,6.27,6.28,6.28
347.75,8.46,2.18,8.46,2.18,-2.18,-1.66,-1.41,6.28,6.29,6.28
351.23,8.40,2.12,8.41,2.11,-2.11,-1.61,-1.32,6.29,6.29,6.28
354.74,8.34,2.03,8.35,2.05,-2.05,-1.56,-1.22,6.30,6.30,6.31
358.28,8.28,1.98,8.29,1.98,-1.98,-1.50,-1.13,6.30,6.31,6.30
361.87,8.22,1.91,8.23,1.91,-1.91,-1.45,-1.04,6.31,6.32,6.31
365.49,8.17,1.85,8.17,1.84,-1.84,-1.40,-0.95,6.33,6.32,6.32
369.14,8.11,1.77,8.10,1.77,-1.77,-1.34,-0.85,6.34,6.33,6.34
372.83,8.04,1.70,8.04,1.70,-1.70,-1.29,-0.76,6.34,6.34,6.34
376.56,7.97,1.63,7.98,1.63,-1.63,-1.23,-0.68,6.34,6.35,6.34
380.33,7.91,1.56,7.92,1.56,-1.56,-1.18,-0.59,6.35,6.36,6.35
384.13,7.86,1.49,7.86,1.49,-1.49,-1.12,-0.50,6.37,6.37,6.37
387.97,7.81,1.44,7.80,1.42,-1.42,-1.07,-0.41,6.39,6.38,6.37
391.85,7.74,1.36,7.74,1.35,-1.35,-1.01,-0.33,6.39,6.39,6.38
395.77,7.67,1.28,7.68,1.28,-1.28,-0.96,-0.24,6.39,6.40,6.39
399.73,7.61,1.21,7.62,1.21,-1.21,-0.90,-0.16,6.40,6.41,6.40
403.72,7.55,1.12,7.56,1.14,-1.14,-0.84,-0.08,6.42,6.42,6.43
407.76,7.50,1.08,7.49,1.06,-1.06,-0.79,0.00,6.44,6.43,6.42
411.84,7.43,1.00,7.43,0.99,-0.99,-0.73,0.08,6.44,6.44,6.43
415.96,7.37,0.92,7.36,0.92,-0.92,-0.67,0.16,6.46,6.45,6.45
420.12,7.30,0.85,7.30,0.84,-0.84,-0.61,0.24,6.46,6.46,6.45
424.32,7.23,0.77,7.23,0.77,-0.77,-0.55,0.32,6.46,6.47,6.46
428.56,7.17,0.69,7.17,0.69,-0.69,-0.49,0.40,6.48,6.47,6.48
432.85,7.09,0.60,7.10,0.62,-0.62,-0.43,0.47,6.48,6.48,6.49
437.18,7.02,0.54,7.03,0.54,-0.54,-0.37,0.55,6.48,6.49,6.48
441.55,6.95,0.46,6.97,0.47,-0.47,-0.31,0.62,6.49,6.50,6.49
445.96,6.88,0.38,6.90,0.39,-0.39,-0.25,0.69,6.50,6.51,6.50
450.42,6.82,0.31,6.82,0.31,-0.31,-0.19,0.77,6.52,6.52,6.51
454.93,6.76,0.24,6.75,0.22,-0.22,-0.12,0.84,6.54,6.53,6.52
459.48,6.68,0.15,6.68,0.14,-0.14,-0.06,0.91,6.54,6.54,6.53
464.07,6.60,0.05,6.60,0.05,-0.05,0.01,0.97,6.55,6.54,6.55
468.71,6.53,-0.03,6.52,-0.03,0.03,0.08,1.04,6.57,6.55,6.56
473.40,6.45,-0.11,6.44,-0.13,0.13,0.15,1.10,6.58,6.56,6.56
478.13,6.36,-0.21,6.36,-0.22,0.22,0.21,1.17,6.58,6.57,6.57
