frequency,raw,error,smoothed,error_smoothed,equalization,parametric_eq,fixed_band_eq,equalized_raw,equalized_smoothed,target
20.00,-1.85,-5.79,-1.85,-5.79,5.80,5.26,1.75,3.96,3.96,3.94
20.20,-1.79,-5.78,-1.79,-5.78,5.79,5.23,1.81,4.00,4.00,3.99
20.40,-1.73,-5.77,-1.73,-5.77,5.77,5.21,1.86,4.04,4.04,4.04
20.61,-1.67,-5.74,-1.67,-5.75,5.74,5.19,1.92,4.07,4.08,4.07
20.81,-1.61,-5.73,-1.60,-5.73,5.72,5.16,1.98,4.11,4.11,4.12
21.02,-1.54,-5.70,-1.54,-5.70,5.69,5.13,2.03,4.15,4.15,4.16
21.23,-1.48,-5.66,-1.48,-5.66,5.66,5.11,2.10,4.18,4.18,4.18
21.44,-1.42,-5.62,-1.41,-5.62,5.62,5.08,2.16,4.20,4.21,4.20
21.66,-1.35,-5.57,-1.35,-5.57,5.58,5.06,2.22,4.23,4.23,4.22
21.87,-1.29,-5.52,-1.29,-5.53,5.54,5.03,2.29,4.25,4.25,4.23
22.09,-1.23,-5.48,-1.23,-5.48,5.49,5.00,2.36,4.26,4.26,4.25
22.31,-1.18,-5.44,-1.18,-5.44,5.44,4.97,2.43,4.27,4.26,4.26
22.54,-1.14,-5.40,-1.14,-5.40,5.39,4.95,2.50,4.25,4.26,4.26
22.76,-1.09,-5.35,-1.09,-5.35,5.34,4.92,2.58,4.25,4.25,4.26
22.99,-1.04,-5.29,-1.03,-5.29,5.28,4.89,2.65,4.24,4.25,4.25
23.22,-0.97,-5.22,-0.97,-5.22,5.22,4.86,2.73,4.25,4.25,4.25
23.45,-0.90,-5.15,-0.90,-5.15,5.16,4.83,2.81,4.26,4.26,4.25
23.69,-0.83,-5.09,-0.83,-5.09,5.10,4.80,2.89,4.27,4.27,4.26
23.92,-0.76,-5.02,-0.76,-5.03,5.03,4.77,2.97,4.28,4.27,4.26
24.16,-0.71,-4.97,-0.70,-4.97,4.97,4.74,3.06,4.27,4.27,4.26
24.40,-0.65,-4.92,-0.65,-4.92,4.92,4.71,3.14,4.27,4.27,4.27
24.65,-0.60,-4.86,-0.60,-4.86,4.87,4.68,3.23,4.27,4.27,4.26
24.89,-0.55,-4.81,-0.55,-4.81,4.82,4.65,3.32,4.27,4.27,4.26
25.14,-0.50,-4.76,-0.50,-4.77,4.77,4.61,3.41,4.27,4.27,4.26
25.39,-0.45,-4.72,-0.45,-4.72,4.72,4.58,3.49,4.27,4.27,4.27
25.65,-0.41,-4.68,-0.41,-4.68,4.67,4.55,3.58,4.26,4.26,4.27
25.91,-0.36,-4.62,-0.36,-4.63,4.62,4.52,3.67,4.26,4.26,4.26
26.16,-0.31,-4.57,-0.31,-4.57,4.57,4.48,3.76,4.26,4.26,4.26
26.43,-0.25,-4.51,-0.25,-4.52,4.52,4.45,3.85,4.27,4.27,4.26
26.69,-0.20,-4.46,-0.20,-4.46,4.46,4.42,3.93,4.27,4.27,4.26
26.96,-0.15,-4.41,-0.14,-4.41,4.41,4.38,4.02,4.26,4.26,4.26
27.23,-0.09,-4.35,-0.09,-4.35,4.35,4.35,4.10,4.26,4.26,4.26
27.50,-0.04,-4.30,-0.04,-4.30,4.29,4.31,4.18,4.26,4.26,4.26
27.77,0.02,-4.23,0.02,-4.24,4.24,4.28,4.26,4.26,4.26,4.25
28.05,0.07,-4.18,0.07,-4.18,4.18,4.25,4.33,4.25,4.25,4.25
28.33,0.13,-4.11,0.13,-4.12,4.12,4.21,4.40,4.25,4.25,4.24
28.62,0.18,-4.06,0.18,-4.06,4.06,4.17,4.47,4.24,4.24,4.24
28.90,0.24,-4.01,0.24,-4.01,4.00,4.14,4.53,4.24,4.24,4.25
29.19,0.30,-3.94,0.30,-3.95,3.95,4.10,4.58,4.25,4.25,4.24
29.48,0.36,-3.89,0.36,-3.89,3.89,4.07,4.63,4.25,4.26,4.25
29.78,0.42,-3.82,0.42,-3.83,3.84,4.03,4.67,4.26,4.26,4.24
30.08,0.47,-3.78,0.47,-3.78,3.79,3.99,4.71,4.26,4.26,4.25
30.38,0.51,-3.73,0.51,-3.74,3.74,3.96,4.74,4.25,4.25,4.24
30.68,0.55,-3.69,0.55,-3.69,3.69,3.92,4.76,4.24,4.24,4.24
30.99,0.59,-3.65,0.59,-3.65,3.63,3.88,4.77,4.23,4.23,4.24
31.30,0.64,-3.59,0.64,-3.59,3.58,3.84,4.78,4.22,4.22,4.23
31.61,0.70,-3.53,0.70,-3.53,3.52,3.80,4.78,4.22,4.22,4.23
31.93,0.76,-3.47,0.76,-3.47,3.46,3.77,4.77,4.22,4.22,4.23
32.24,0.82,-3.40,0.83,-3.40,3.41,3.73,4.76,4.23,4.24,4.22
32.57,0.88,-3.34,0.89,-3.33,3.36,3.69,4.73,4.24,4.25,4.22
32.89,0.95,-3.27,0.94,-3.28,3.32,3.65,4.70,4.27,4.26,4.22
33.22,0.97,-3.24,0.96,-3.25,3.27,3.61,4.67,4.24,4.23,4.21
33.55,0.97,-3.24,0.97,-3.24,3.23,3.57,4.63,4.20,4.20,4.21
33.89,0.97,-3.23,0.99,-3.22,3.19,3.53,4.58,4.16,4.18,4.20
34.23,1.02,-3.18,1.02,-3.18,3.15,3.49,4.53,4.17,4.17,4.20
34.57,1.08,-3.11,1.08,-3.11,3.11,3.45,4.47,4.19,4.19,4.19
34.92,1.15,-3.04,1.14,-3.05,3.06,3.41,4.41,4.21,4.20,4.19
35.27,1.20,-2.98,1.19,-2.99,3.00,3.37,4.34,4.20,4.19,4.18
35.62,1.23,-2.95,1.24,-2.95,2.94,3.33,4.28,4.17,4.18,4.18
35.97,1.27,-2.91,1.28,-2.90,2.88,3.29,4.21,4.15,4.16,4.18
36.33,1.34,-2.84,1.35,-2.83,2.83,3.25,4.13,4.17,4.18,4.18
36.70,1.41,-2.76,1.41,-2.77,2.79,3.21,4.06,4.20,4.20,4.17
37.06,1.47,-2.70,1.46,-2.72,2.76,3.17,3.99,4.23,4.22,4.17
37.43,1.47,-2.71,1.48,-2.70,2.74,3.13,3.91,4.21,4.22,4.18
37.81,1.47,-2.71,1.48,-2.70,2.72,3.09,3.83,4.19,4.20,4.18
38.19,1.47,-2.70,1.47,-2.72,2.70,3.05,3.76,4.17,4.17,4.17
38.57,1.47,-2.71,1.47,-2.71,2.68,3.01,3.68,4.15,4.15,4.18
38.95,1.47,-2.72,1.49,-2.70,2.65,2.96,3.61,4.13,4.14,4.19
39.34,1.53,-2.65,1.53,-2.66,2.62,2.92,3.54,4.16,4.15,4.18
39.74,1.59,-2.59,1.59,-2.60,2.59,2.88,3.46,4.18,4.18,4.18
40.14,1.65,-2.53,1.66,-2.53,2.55,2.84,3.39,4.20,4.20,4.18
40.54,1.71,-2.47,1.71,-2.47,2.50,2.80,3.32,4.21,4.21,4.18
40.94,1.76,-2.41,1.75,-2.43,2.46,2.75,3.26,4.22,4.21,4.17
41.35,1.77,-2.40,1.77,-2.40,2.41,2.71,3.19,4.19,4.18,4.17
41.76,1.77,-2.39,1.78,-2.39,2.38,2.67,3.13,4.15,4.16,4.16
42.18,1.79,-2.37,1.80,-2.36,2.35,2.63,3.06,4.14,4.15,4.16
42.60,1.83,-2.32,1.83,-2.32,2.32,2.58,3.00,4.15,4.15,4.15
43.03,1.87,-2.27,1.86,-2.29,2.29,2.54,2.95,4.16,4.15,4.14
43.46,1.87,-2.26,1.87,-2.26,2.26,2.50,2.89,4.13,4.13,4.13
43.90,1.87,-2.24,1.88,-2.23,2.22,2.46,2.84,4.09,4.10,4.11
44.33,1.90,-2.19,1.90,-2.19,2.17,2.41,2.79,4.07,4.07,4.09
44.78,1.93,-2.14,1.94,-2.14,2.13,2.37,2.74,4.06,4.06,4.07
45.23,1.98,-2.08,1.99,-2.08,2.08,2.33,2.69,4.06,4.07,4.06
45.68,2.03,-2.02,2.03,-2.02,2.04,2.28,2.65,4.07,4.07,4.05
46.13,2.07,-1.96,2.06,-1.98,2.01,2.24,2.61,4.08,4.07,4.03
46.60,2.07,-1.96,2.08,-1.95,1.98,2.19,2.57,4.05,4.05,4.03
47.06,2.07,-1.94,2.08,-1.94,1.95,2.15,2.53,4.02,4.03,4.01
47.53,2.07,-1.93,2.07,-1.94,1.93,2.11,2.49,4.01,4.01,4.00
48.01,2.07,-1.93,2.07,-1.92,1.92,2.06,2.46,3.99,3.99,4.00
48.49,2.07,-1.91,2.07,-1.91,1.90,2.02,2.43,3.97,3.97,3.98
48.97,2.07,-1.89,2.07,-1.90,1.88,1.97,2.40,3.95,3.95,3.96
49.46,2.07,-1.87,2.07,-1.87,1.85,1.93,2.37,3.93,3.92,3.94
49.96,2.07,-1.85,2.09,-1.84,1.82,1.89,2.34,3.90,3.92,3.92
50.46,2.12,-1.79,2.12,-1.79,1.79,1.84,2.31,3.92,3.92,3.91
50.96,2.17,-1.73,2.15,-1.75,1.77,1.80,2.29,3.94,3.92,3.90
51.47,2.17,-1.71,2.17,-1.71,1.74,1.75,2.26,3.91,3.91,3.88
51.99,2.17,-1.70,2.18,-1.70,1.71,1.71,2.24,3.89,3.89,3.87
52.51,2.17,-1.69,2.17,-1.69,1.69,1.66,2.22,3.87,3.87,3.86
53.03,2.17,-1.69,2.17,-1.69,1.68,1.62,2.19,3.85,3.85,3.86
53.56,2.17,-1.67,2.17,-1.67,1.67,1.57,2.17,3.84,3.84,3.84
54.10,2.17,-1.66,2.17,-1.66,1.66,1.53,2.15,3.83,3.83,3.83
54.64,2.17,-1.64,2.17,-1.65,1.65,1.48,2.13,3.82,3.82,3.81
55.18,2.17,-1.64,2.17,-1.64,1.63,1.44,2.10,3.81,3.81,3.81
55.74,2.17,-1.62,2.17,-1.63,1.62,1.39,2.08,3.79,3.79,3.79
56.29,2.17,-1.61,2.17,-1.61,1.61,1.34,2.06,3.78,3.78,3.78
56.86,2.17,-1.60,2.17,-1.59,1.60,1.30,2.03,3.77,3.77,3.77
57.42,2.17,-1.57,2.17,-1.58,1.59,1.25,2.00,3.76,3.76,3.74
58.00,2.17,-1.56,2.17,-1.57,1.58,1.21,1.97,3.76,3.75,3.73
58.58,2.15,-1.57,2.15,-1.57,1.58,1.16,1.94,3.73,3.73,3.72
59.16,2.13,-1.57,2.13,-1.58,1.57,1.11,1.91,3.70,3.70,3.70
59.76,2.09,-1.59,2.10,-1.58,1.56,1.07,1.88,3.66,3.67,3.68
60.35,2.07,-1.57,2.08,-1.56,1.56,1.02,1.84,3.63,3.64,3.64
60.96,2.07,-1.53,2.06,-1.55,1.55,0.97,1.80,3.62,3.61,3.60
61.57,2.04,-1.52,2.04,-1.52,1.53,0.93,1.76,3.57,3.57,3.56
62.18,2.01,-1.51,2.01,-1.51,1.51,0.88,1.71,3.52,3.52,3.52
62.80,1.98,-1.49,1.99,-1.49,1.48,0.83,1.66,3.46,3.47,3.47
63.43,1.97,-1.46,1.97,-1.46,1.44,0.78,1.61,3.42,3.42,3.43
64.07,1.97,-1.41,1.97,-1.42,1.41,0.74,1.56,3.38,3.38,3.38
64.71,1.97,-1.37,1.97,-1.37,1.37,0.69,1.50,3.34,3.34,3.34
65.35,1.97,-1.33,1.98,-1.33,1.34,0.64,1.44,3.31,3.31,3.30
66.01,1.97,-1.28,1.98,-1.28,1.30,0.59,1.38,3.27,3.28,3.25
66.67,1.97,-1.23,1.96,-1.25,1.26,0.54,1.31,3.24,3.22,3.20
67.33,1.94,-1.21,1.93,-1.23,1.23,0.49,1.24,3.17,3.16,3.15
68.01,1.87,-1.24,1.90,-1.21,1.20,0.44,1.17,3.08,3.10,3.11
68.69,1.87,-1.19,1.88,-1.19,1.18,0.39,1.10,3.05,3.05,3.06
69.37,1.87,-1.14,1.87,-1.15,1.15,0.34,1.02,3.02,3.02,3.01
70.07,1.87,-1.09,1.86,-1.11,1.12,0.29,0.95,2.99,2.97,2.96
70.77,1.82,-1.09,1.82,-1.09,1.08,0.24,0.87,2.91,2.91,2.91
71.48,1.78,-1.08,1.79,-1.07,1.05,0.19,0.78,2.83,2.84,2.86
72.19,1.76,-1.03,1.78,-1.02,1.02,0.14,0.70,2.78,2.79,2.79
72.91,1.78,-0.95,1.78,-0.96,0.98,0.09,0.61,2.76,2.76,2.73
73.64,1.79,-0.89,1.77,-0.91,0.94,0.04,0.53,2.74,2.71,2.68
74.38,1.74,-0.88,1.74,-0.89,0.90,-0.01,0.44,2.64,2.64,2.62
75.12,1.67,-0.89,1.70,-0.87,0.85,-0.07,0.35,2.52,2.55,2.56
75.87,1.67,-0.83,1.67,-0.84,0.80,-0.12,0.25,2.47,2.46,2.50
76.63,1.67,-0.78,1.68,-0.77,0.74,-0.17,0.16,2.41,2.42,2.45
77.40,1.71,-0.69,1.72,-0.68,0.69,-0.22,0.06,2.40,2.41,2.40
78.17,1.77,-0.57,1.75,-0.60,0.63,-0.28,-0.03,2.40,2.38,2.34
78.95,1.77,-0.53,1.77,-0.53,0.57,-0.33,-0.13,2.34,2.34,2.30
79.74,1.77,-0.48,1.78,-0.48,0.50,-0.39,-0.23,2.27,2.27,2.25
80.54,1.77,-0.43,1.77,-0.44,0.42,-0.44,-0.33,2.19,2.19,2.20
81.35,1.77,-0.38,1.78,-0.38,0.34,-0.50,-0.43,2.12,2.12,2.15
82.16,1.79,-0.31,1.81,-0.30,0.27,-0.55,-0.53,2.06,2.08,2.10
82.98,1.87,-0.19,1.87,-0.19,0.19,-0.61,-0.63,2.06,2.06,2.06
83.81,1.95,-0.06,1.93,-0.08,0.10,-0.66,-0.73,2.06,2.04,2.01
84.65,1.99,0.03,1.99,0.03,0.01,-0.72,-0.84,2.00,2.00,1.96
85.50,2.03,0.11,2.04,0.12,-0.11,-0.78,-0.94,1.93,1.93,1.92
86.35,2.09,0.22,2.09,0.21,-0.23,-0.84,-1.05,1.86,1.86,1.87
87.22,2.14,0.32,2.15,0.32,-0.36,-0.89,-1.16,1.78,1.79,1.82
88.09,2.24,0.47,2.23,0.46,-0.49,-0.95,-1.26,1.75,1.73,1.77
88.97,2.31,0.60,2.34,0.62,-0.63,-1.01,-1.37,1.68,1.71,1.71
89.86,2.45,0.79,2.46,0.80,-0.77,-1.07,-1.48,1.68,1.69,1.66
90.76,2.60,0.99,2.57,0.96,-0.92,-1.13,-1.60,1.68,1.65,1.61
91.66,2.67,1.11,2.66,1.10,-1.07,-1.19,-1.71,1.60,1.59,1.56
92.58,2.70,1.20,2.73,1.22,-1.22,-1.25,-1.82,1.48,1.51,1.50
93.51,2.79,1.34,2.80,1.34,-1.36,-1.31,-1.94,1.43,1.44,1.45
94.44,2.90,1.49,2.89,1.48,-1.50,-1.38,-2.05,1.40,1.39,1.41
95.39,3.00,1.64,3.00,1.64,-1.64,-1.44,-2.17,1.37,1.37,1.36
96.34,3.10,1.79,3.10,1.78,-1.77,-1.50,-2.29,1.33,1.32,1.31
97.30,3.18,1.92,3.17,1.91,-1.91,-1.57,-2.40,1.27,1.26,1.26
98.28,3.23,2.02,3.25,2.03,-2.05,-1.63,-2.52,1.19,1.21,1.21
99.26,3.32,2.15,3.32,2.15,-2.18,-1.69,-2.64,1.15,1.15,1.17
100.25,3.42,2.30,3.41,2.29,-2.29,-1.76,-2.76,1.13,1.12,1.12
101.25,3.47,2.40,3.50,2.42,-2.40,-1.82,-2.88,1.08,1.10,1.07
102.27,3.58,2.56,3.56,2.53,-2.49,-1.89,-3.00,1.09,1.07,1.02
103.29,3.59,2.62,3.58,2.61,-2.58,-1.95,-3.11,1.02,1.01,0.97
104.32,3.58,2.65,3.58,2.65,-2.65,-2.02,-3.23,0.93,0.93,0.93
105.37,3.55,2.67,3.57,2.69,-2.71,-2.09,-3.34,0.84,0.86,0.88
106.42,3.56,2.73,3.57,2.74,-2.77,-2.15,-3.46,0.79,0.80,0.83
107.48,3.59,2.82,3.58,2.80,-2.81,-2.22,-3.57,0.78,0.76,0.77
108.56,3.58,2.86,3.58,2.86,-2.85,-2.29,-3.67,0.73,0.73,0.72
109.64,3.56,2.89,3.57,2.89,-2.89,-2.36,-3.78,0.68,0.68,0.67
110.74,3.54,2.93,3.55,2.93,-2.91,-2.43,-3.88,0.63,0.63,0.61
111.85,3.52,2.95,3.53,2.96,-2.94,-2.49,-3.97,0.59,0.59,0.57
112.97,3.51,3.00,3.50,2.98,-2.95,-2.56,-4.06,0.56,0.55,0.51
114.10,3.46,3.00,3.45,2.99,-2.97,-2.63,-4.15,0.50,0.49,0.46
115.24,3.39,2.98,3.39,2.98,-2.99,-2.70,-4.23,0.41,0.40,0.41
116.39,3.33,2.97,3.35,2.98,-3.02,-2.77,-4.30,0.31,0.33,0.36
117.55,3.31,2.99,3.34,3.02,-3.06,-2.84,-4.36,0.25,0.28,0.32
118.73,3.39,3.11,3.36,3.07,-3.12,-2.91,-4.42,0.27,0.24,0.28
119.92,3.42,3.17,3.41,3.16,-3.19,-2.97,-4.47,0.23,0.22,0.25
121.12,3.44,3.23,3.49,3.27,-3.26,-3.04,-4.51,0.18,0.22,0.21
122.33,3.57,3.39,3.56,3.37,-3.34,-3.11,-4.54,0.23,0.21,0.18
123.55,3.65,3.50,3.62,3.47,-3.42,-3.18,-4.56,0.23,0.20,0.15
124.79,3.65,3.53,3.66,3.54,-3.49,-3.25,-4.57,0.16,0.17,0.12
126.03,3.66,3.57,3.67,3.57,-3.55,-3.31,-4.57,0.11,0.12,0.09
127.29,3.67,3.60,3.67,3.60,-3.60,-3.38,-4.56,0.07,0.06,0.07
128.57,3.67,3.64,3.68,3.64,-3.65,-3.44,-4.55,0.02,0.02,0.03
129.85,3.68,3.68,3.68,3.67,-3.69,-3.51,-4.52,-0.01,-0.02,0.00
131.15,3.68,3.71,3.68,3.70,-3.74,-3.57,-4.48,-0.06,-0.06,-0.03
132.46,3.69,3.75,3.71,3.76,-3.78,-3.63,-4.44,-0.09,-0.08,-0.06
133.79,3.72,3.81,3.75,3.83,-3.83,-3.69,-4.39,-0.11,-0.08,-0.09
135.12,3.82,3.94,3.78,3.90,-3.88,-3.75,-4.33,-0.06,-0.09,-0.12
136.48,3.81,3.95,3.81,3.95,-3.92,-3.81,-4.26,-0.11,-0.12,-0.14
137.84,3.80,3.98,3.82,3.99,-3.97,-3.87,-4.19,-0.17,-0.15,-0.18
139.22,3.80,4.01,3.81,4.01,-4.01,-3.92,-4.11,-0.21,-0.21,-0.21
140.61,3.81,4.05,3.81,4.04,-4.05,-3.97,-4.03,-0.24,-0.24,-0.24
142.02,3.81,4.07,3.81,4.07,-4.09,-4.02,-3.94,-0.28,-0.28,-0.26
143.44,3.81,4.10,3.81,4.10,-4.12,-4.07,-3.85,-0.31,-0.31,-0.29
144.87,3.81,4.14,3.82,4.14,-4.14,-4.12,-3.75,-0.33,-0.33,-0.33
146.32,3.81,4.18,3.82,4.18,-4.17,-4.16,-3.65,-0.36,-0.35,-0.37
147.78,3.82,4.22,3.81,4.21,-4.19,-4.20,-3.55,-0.37,-0.38,-0.40
149.26,3.78,4.23,3.78,4.23,-4.22,-4.24,-3.45,-0.43,-0.44,-0.45
150.75,3.72,4.23,3.72,4.22,-4.24,-4.28,-3.34,-0.51,-0.52,-0.51
152.26,3.63,4.21,3.64,4.22,-4.25,-4.31,-3.24,-0.62,-0.60,-0.58
153.78,3.56,4.21,3.58,4.22,-4.24,-4.34,-3.13,-0.68,-0.66,-0.65
155.32,3.52,4.24,3.51,4.23,-4.22,-4.36,-3.02,-0.69,-0.71,-0.72
156.88,3.43,4.23,3.42,4.22,-4.16,-4.38,-2.92,-0.73,-0.74,-0.80
158.44,3.29,4.17,3.30,4.18,-4.09,-4.40,-2.81,-0.80,-0.79,-0.88
160.03,3.15,4.11,3.15,4.10,-4.01,-4.42,-2.70,-0.86,-0.87,-0.96
161.63,2.96,3.99,2.95,3.98,-3.94,-4.43,-2.60,-0.98,-0.99,-1.03
163.24,2.79,3.88,2.76,3.84,-3.89,-4.44,-2.49,-1.09,-1.13,-1.09
164.88,2.55,3.69,2.60,3.74,-3.86,-4.44,-2.39,-1.30,-1.25,-1.14
166.53,2.51,3.70,2.54,3.72,-3.86,-4.44,-2.28,-1.35,-1.32,-1.19
168.19,2.58,3.81,2.56,3.78,-3.90,-4.43,-2.18,-1.32,-1.34,-1.23
169.87,2.66,3.93,2.67,3.93,-3.97,-4.42,-2.08,-1.30,-1.30,-1.27
171.57,2.78,4.07,2.80,4.08,-4.05,-4.41,-1.98,-1.27,-1.25,-1.29
173.29,2.94,4.24,2.92,4.22,-4.15,-4.39,-1.88,-1.21,-1.23,-1.30
175.02,3.03,4.34,3.02,4.33,-4.23,-4.36,-1.79,-1.20,-1.21,-1.31
176.77,3.06,4.38,3.07,4.38,-4.30,-4.34,-1.69,-1.23,-1.23,-1.32
178.54,3.06,4.39,3.05,4.37,-4.32,-4.30,-1.60,-1.26,-1.27,-1.33
180.32,2.99,4.31,3.00,4.32,-4.31,-4.27,-1.50,-1.32,-1.31,-1.32
182.13,2.93,4.24,2.95,4.26,-4.27,-4.23,-1.41,-1.34,-1.33,-1.31
183.95,2.88,4.20,2.89,4.20,-4.22,-4.18,-1.32,-1.34,-1.33,-1.32
185.79,2.83,4.15,2.80,4.12,-4.16,-4.13,-1.23,-1.33,-1.36,-1.32
187.65,2.73,4.07,2.72,4.05,-4.10,-4.08,-1.14,-1.37,-1.38,-1.34
189.52,2.60,3.95,2.67,4.01,-4.04,-4.02,-1.06,-1.44,-1.38,-1.35
191.42,2.62,3.99,2.61,3.98,-3.99,-3.95,-0.97,-1.37,-1.38,-1.37
193.33,2.61,4.00,2.56,3.94,-3.93,-3.88,-0.89,-1.32,-1.37,-1.39
195.27,2.47,3.88,2.51,3.91,-3.86,-3.81,-0.80,-1.39,-1.36,-1.41
197.22,2.39,3.82,2.42,3.85,-3.80,-3.73,-0.72,-1.40,-1.38,-1.43
199.19,2.34,3.79,2.30,3.74,-3.73,-3.65,-0.64,-1.38,-1.43,-1.45
201.18,2.19,3.66,2.17,3.64,-3.65,-3.56,-0.56,-1.46,-1.48,-1.47
203.19,1.99,3.48,2.04,3.53,-3.57,-3.47,-0.49,-1.58,-1.53,-1.49
205.23,1.91,3.42,1.93,3.43,-3.49,-3.37,-0.41,-1.57,-1.56,-1.51
207.28,1.87,3.39,1.84,3.36,-3.39,-3.27,-0.34,-1.52,-1.55,-1.52
209.35,1.77,3.31,1.78,3.32,-3.29,-3.17,-0.27,-1.52,-1.52,-1.54
211.44,1.67,3.24,1.68,3.23,-3.19,-3.06,-0.20,-1.52,-1.51,-1.57
213.56,1.55,3.13,1.55,3.12,-3.08,-2.94,-0.13,-1.53,-1.53,-1.58
215.69,1.40,2.99,1.40,2.98,-2.96,-2.82,-0.06,-1.56,-1.56,-1.59
217.85,1.23,2.83,1.22,2.82,-2.83,-2.69,0.00,-1.60,-1.61,-1.60
220.03,1.03,2.64,1.04,2.66,-2.69,-2.56,0.07,-1.66,-1.65,-1.61
222.23,0.85,2.49,0.88,2.50,-2.54,-2.42,0.13,-1.68,-1.66,-1.64
224.45,0.74,2.37,0.72,2.35,-2.37,-2.28,0.18,-1.62,-1.64,-1.63
226.70,0.57,2.20,0.58,2.20,-2.18,-2.13,0.24,-1.61,-1.61,-1.63
228.96,0.41,2.03,0.41,2.03,-1.99,-1.98,0.29,-1.58,-1.58,-1.62
231.25,0.22,1.83,0.22,1.82,-1.79,-1.81,0.34,-1.57,-1.58,-1.61
233.57,0.00,1.60,0.01,1.60,-1.58,-1.64,0.39,-1.58,-1.58,-1.60
235.90,-0.23,1.36,-0.23,1.36,-1.36,-1.47,0.44,-1.59,-1.59,-1.59
238.26,-0.47,1.11,-0.47,1.09,-1.12,-1.28,0.48,-1.59,-1.60,-1.58
240.64,-0.72,0.83,-0.70,0.85,-0.88,-1.09,0.52,-1.60,-1.58,-1.55
243.05,-0.92,0.60,-0.89,0.63,-0.63,-0.89,0.55,-1.55,-1.52,-1.52
245.48,-1.09,0.41,-1.10,0.39,-0.38,-0.68,0.58,-1.46,-1.48,-1.50
247.93,-1.28,0.19,-1.33,0.13,-0.12,-0.46,0.61,-1.40,-1.46,-1.47
250.41,-1.63,-0.18,-1.57,-0.12,0.13,-0.23,0.64,-1.50,-1.44,-1.45
252.92,-1.85,-0.43,-1.83,-0.41,0.38,0.01,0.66,-1.47,-1.45,-1.42
255.45,-2.04,-0.64,-2.11,-0.71,0.64,0.27,0.68,-1.40,-1.47,-1.40
258.00,-2.41,-1.03,-2.38,-1.00,0.89,0.53,0.70,-1.51,-1.48,-1.38
260.58,-2.70,-1.34,-2.68,-1.32,1.15,0.80,0.71,-1.54,-1.52,-1.36
263.19,-2.97,-1.64,-3.00,-1.67,1.41,1.09,0.72,-1.55,-1.58,-1.33
265.82,-3.29,-1.98,-3.28,-1.97,1.67,1.38,0.73,-1.61,-1.61,-1.31
268.48,-3.61,-2.32,-3.58,-2.30,1.93,1.69,0.73,-1.68,-1.65,-1.29
271.16,-3.86,-2.60,-3.91,-2.65,2.19,2.00,0.74,-1.67,-1.72,-1.26
273.87,-4.23,-2.99,-4.22,-2.99,2.45,2.32,0.74,-1.78,-1.77,-1.24
276.61,-4.57,-3.36,-4.53,-3.32,2.71,2.65,0.73,-1.86,-1.82,-1.21
279.38,-4.80,-3.62,-4.83,-3.65,2.97,2.98,0.73,-1.83,-1.86,-1.18
282.17,-5.10,-3.94,-5.10,-3.95,3.22,3.31,0.72,-1.87,-1.88,-1.16
284.99,-5.36,-4.24,-5.34,-4.22,3.49,3.63,0.72,-1.87,-1.85,-1.12
287.84,-5.62,-4.52,-5.62,-4.52,3.77,3.94,0.71,-1.84,-1.84,-1.10
290.72,-5.80,-4.73,-5.86,-4.79,4.05,4.22,0.70,-1.75,-1.80,-1.07
293.63,-6.11,-5.07,-6.05,-5.01,4.32,4.48,0.69,-1.79,-1.73,-1.04
296.57,-6.18,-5.17,-6.16,-5.16,4.55,4.70,0.67,-1.62,-1.61,-1.01
299.53,-6.19,-5.21,-6.20,-5.22,4.75,4.88,0.66,-1.43,-1.44,-0.98
302.53,-6.13,-5.17,-6.13,-5.18,4.91,5.01,0.65,-1.22,-1.22,-0.96
305.55,-6.07,-5.15,-6.06,-5.14,5.01,5.08,0.63,-1.06,-1.05,-0.92
308.61,-5.96,-5.06,-5.99,-5.10,5.06,5.10,0.62,-0.90,-0.94,-0.90
311.69,-5.93,-5.06,-5.91,-5.04,5.04,5.07,0.60,-0.89,-0.87,-0.87
314.81,-5.82,-4.97,-5.80,-4.95,4.97,4.98,0.59,-0.85,-0.83,-0.85
317.96,-5.65,-4.82,-5.67,-4.84,4.85,4.85,0.57,-0.80,-0.82,-0.83
321.14,-5.49,-4.67,-5.48,-4.67,4.70,4.68,0.56,-0.79,-0.79,-0.82
324.35,-5.31,-4.51,-5.29,-4.50,4.52,4.49,0.54,-0.79,-0.78,-0.80
327.59,-5.08,-4.29,-5.10,-4.32,4.33,4.27,0.53,-0.74,-0.77,-0.79
330.87,-4.91,-4.13,-4.90,-4.12,4.14,4.04,0.51,-0.76,-0.75,-0.78
334.18,-4.70,-3.94,-4.70,-3.94,3.94,3.80,0.50,-0.76,-0.76,-0.76
337.52,-4.49,-3.74,-4.50,-3.76,3.74,3.56,0.48,-0.75,-0.77,-0.75
340.90,-4.31,-3.57,-4.29,-3.55,3.53,3.32,0.47,-0.78,-0.76,-0.74
344.30,-4.08,-3.35,-4.07,-3.34,3.33,3.09,0.46,-0.74,-0.73,-0.73
347.75,-3.84,-3.11,-3.85,-3.13,3.14,2.87,0.44,-0.69,-0.70,-0.73
351.23,-3.63,-2.91,-3.63,-2.91,2.96,2.65,0.43,-0.67,-0.68,-0.72
354.74,-3.46,-2.73,-3.45,-2.73,2.77,2.44,0.42,-0.68,-0.68,-0.73
358.28,-3.30,-2.58,-3.31,-2.59,2.59,2.25,0.40,-0.71,-0.72,-0.72
361.87,-3.18,-2.46,-3.18,-2.46,2.41,2.06,0.39,-0.77,-0.77,-0.72
365.49,-3.05,-2.34,-3.02,-2.31,2.24,1.88,0.38,-0.80,-0.77,-0.71
369.14,-2.86,-2.14,-2.85,-2.14,2.10,1.72,0.37,-0.76,-0.75,-0.72
372.83,-2.65,-1.93,-2.67,-1.95,1.98,1.57,0.36,-0.66,-0.69,-0.72
376.56,-2.54,-1.81,-2.53,-1.81,1.90,1.42,0.35,-0.64,-0.63,-0.73
380.33,-2.42,-1.70,-2.44,-1.72,1.84,1.29,0.34,-0.58,-0.60,-0.72
384.13,-2.42,-1.70,-2.42,-1.70,1.79,1.16,0.33,-0.63,-0.63,-0.72
387.97,-2.43,-1.70,-2.44,-1.72,1.75,1.04,0.32,-0.68,-0.69,-0.73
391.85,-2.49,-1.75,-2.48,-1.75,1.70,0.93,0.31,-0.79,-0.78,-0.74
395.77,-2.50,-1.77,-2.48,-1.75,1.63,0.83,0.30,-0.86,-0.85,-0.73
399.73,-2.43,-1.69,-2.42,-1.68,1.54,0.73,0.29,-0.89,-0.88,-0.74
403.72,-2.26,-1.52,-2.26,-1.52,1.41,0.64,0.28,-0.85,-0.85,-0.74
407.76,-2.05,-1.29,-2.03,-1.28,1.24,0.56,0.28,-0.81,-0.80,-0.76
411.84,-1.76,-1.00,-1.78,-1.02,1.05,0.48,0.27,-0.71,-0.73,-0.76
415.96,-1.53,-0.77,-1.53,-0.77,0.84,0.40,0.26,-0.69,-0.68,-0.76
420.12,-1.30,-0.54,-1.30,-0.55,0.64,0.34,0.25,-0.66,-0.66,-0.76
424.32,-1.13,-0.37,-1.13,-0.38,0.45,0.27,0.25,-0.67,-0.68,-0.76
428.56,-1.00,-0.25,-1.00,-0.25,0.29,0.21,0.24,-0.70,-0.71,-0.75
432.85,-0.90,-0.16,-0.91,-0.17,0.17,0.15,0.24,-0.73,-0.74,-0.74
437.18,-0.84,-0.11,-0.82,-0.10,0.06,0.10,0.23,-0.77,-0.75,-0.73
441.55,-0.71,-0.02,-0.70,-0.01,-0.02,0.04,0.22,-0.73,-0.72,-0.69
445.96,-0.59,0.07,-0.58,0.08,-0.09,-0.01,0.22,-0.68,-0.67,-0.66
450.42,-0.44,0.19,-0.46,0.16,-0.16,-0.05,0.21,-0.60,-0.62,-0.63
454.93,-0.36,0.22,-0.36,0.22,-0.22,-0.10,0.21,-0.58,-0.58,-0.58
459.48,-0.27,0.27,-0.25,0.28,-0.28,-0.14,0.20,-0.55,-0.53,-0.54
464.07,-0.15,0.34,-0.14,0.34,-0.34,-0.18,0.20,-0.48,-0.48,-0.49
468.71,-0.02,0.41,-0.03,0.40,-0.39,-0.22,0.19,-0.41,-0.42,-0.43
473.40,0.08,0.47,0.06,0.44,-0.44,-0.26,0.19,-0.35,-0.37,-0.39
478.13,0.13,0.46,0.14,0.47,-0.48,-0.30,0.18,-0.34,-0.34,-0.33
482.91,0.19,0.48,0.21,0.50,-0.51,-0.34,0.18,-0.32,-0.30,-0.29
487.74,0.30,0.55,0.30,0.54,-0.55,-0.38,0.17,-0.25,-0.25,-0.25
492.62,0.40,0.60,0.39,0.60,-0.59,-0.41,0.17,-0.18,-0.19,-0.20
497.55,0.47,0.65,0.46,0.63,-0.62,-0.45,0.16,-0.15,-0.16,-0.18
502.52,0.51,0.66,0.51,0.66,-0.67,-0.49,0.15,-0.15,-0.16,-0.15
507.55,0.53,0.67,0.55,0.69,-0.71,-0.52,0.15,-0.18,-0.16,-0.14
512.62,0.61,0.74,0.61,0.74,-0.76,-0.56,0.14,-0.15,-0.14,-0.13
