frequency,raw,error,smoothed,error_smoothed,equalization,parametric_eq,fixed_band_eq,equalized_raw,equalized_smoothed,target
20.00,-7.46,-15.70,-7.43,-15.70,15.70,15.05,5.34,8.23,8.26,8.24
20.20,-7.36,-15.60,-7.35,-15.60,15.60,14.98,5.47,8.24,8.25,8.24
20.40,-7.27,-15.51,-7.25,-15.50,15.50,14.90,5.60,8.23,8.24,8.24
20.61,-7.15,-15.39,-7.16,-15.39,15.39,14.82,5.74,8.24,8.23,8.24
20.81,-7.03,-15.27,-7.06,-15.28,15.28,14.74,5.88,8.25,8.22,8.24
21.02,-6.92,-15.16,-6.95,-15.17,15.17,14.65,6.03,8.25,8.21,8.24
21.23,-6.80,-15.02,-6.85,-15.05,15.05,14.56,6.18,8.25,8.20,8.22
21.44,-6.70,-14.91,-6.74,-14.92,14.92,14.46,6.33,8.22,8.19,8.20
21.66,-6.60,-14.79,-6.62,-14.80,14.80,14.36,6.48,8.19,8.17,8.18
21.87,-6.50,-14.66,-6.51,-14.66,14.66,14.26,6.65,8.16,8.16,8.16
22.09,-6.40,-14.55,-6.38,-14.53,14.53,14.15,6.81,8.13,8.14,8.15
22.31,-6.30,-14.42,-6.26,-14.38,14.38,14.04,6.98,8.08,8.12,8.12
22.54,-6.19,-14.30,-6.13,-14.23,14.23,13.93,7.16,8.04,8.10,8.10
22.76,-6.05,-14.13,-5.99,-14.07,14.07,13.81,7.34,8.02,8.08,8.08
22.99,-5.91,-13.96,-5.85,-13.91,13.91,13.69,7.52,8.00,8.06,8.05
23.22,-5.75,-13.77,-5.71,-13.75,13.75,13.57,7.71,7.99,8.03,8.02
23.45,-5.57,-13.57,-5.57,-13.58,13.58,13.45,7.90,8.01,8.01,8.00
23.69,-5.40,-13.39,-5.43,-13.42,13.42,13.32,8.10,8.02,7.99,7.99
23.92,-5.23,-13.20,-5.29,-13.26,13.26,13.19,8.31,8.03,7.97,7.97
24.16,-5.07,-13.03,-5.15,-13.10,13.10,13.06,8.52,8.03,7.95,7.96
24.40,-4.95,-12.89,-5.01,-12.94,12.94,12.93,8.73,7.99,7.93,7.94
24.65,-4.82,-12.74,-4.87,-12.78,12.78,12.79,8.95,7.96,7.91,7.92
24.89,-4.71,-12.60,-4.74,-12.63,12.63,12.66,9.17,7.92,7.90,7.89
25.14,-4.61,-12.49,-4.61,-12.49,12.49,12.52,9.40,7.88,7.88,7.88
25.39,-4.51,-12.37,-4.49,-12.35,12.35,12.38,9.63,7.84,7.86,7.86
25.65,-4.41,-12.26,-4.37,-12.21,12.21,12.24,9.87,7.80,7.85,7.85
25.91,-4.30,-12.12,-4.25,-12.08,12.08,12.10,10.11,7.78,7.83,7.82
26.16,-4.17,-11.98,-4.14,-11.95,11.95,11.96,10.36,7.78,7.81,7.81
26.43,-4.04,-11.84,-4.03,-11.82,11.82,11.82,10.60,7.78,7.80,7.80
26.69,-3.91,-11.69,-3.91,-11.69,11.69,11.67,10.85,7.78,7.78,7.78
26.96,-3.78,-11.55,-3.80,-11.56,11.56,11.53,11.10,7.78,7.76,7.76
27.23,-3.65,-11.41,-3.68,-11.43,11.43,11.39,11.35,7.78,7.75,7.75
27.50,-3.54,-11.28,-3.57,-11.30,11.30,11.24,11.60,7.76,7.74,7.74
27.77,-3.43,-11.15,-3.45,-11.17,11.17,11.09,11.84,7.74,7.72,7.72
28.05,-3.32,-11.03,-3.33,-11.04,11.04,10.95,12.08,7.72,7.71,7.71
28.33,-3.22,-10.91,-3.21,-10.91,10.91,10.80,12.31,7.68,7.69,7.69
28.62,-3.10,-10.78,-3.09,-10.77,10.77,10.65,12.53,7.67,7.68,7.68
28.90,-3.00,-10.66,-2.98,-10.64,10.64,10.50,12.74,7.64,7.67,7.66
29.19,-2.88,-10.52,-2.86,-10.51,10.51,10.36,12.93,7.63,7.65,7.64
29.48,-2.76,-10.40,-2.74,-10.38,10.38,10.21,13.10,7.62,7.64,7.64
29.78,-2.63,-10.26,-2.62,-10.25,10.25,10.06,13.25,7.62,7.62,7.63
30.08,-2.50,-10.12,-2.51,-10.11,10.11,9.91,13.37,7.61,7.61,7.62
30.38,-2.38,-9.98,-2.38,-9.98,9.98,9.76,13.46,7.60,7.59,7.59
30.68,-2.25,-9.83,-2.26,-9.84,9.84,9.61,13.52,7.59,7.58,7.58
30.99,-2.13,-9.69,-2.14,-9.70,9.70,9.47,13.54,7.57,7.56,7.56
31.30,-2.01,-9.56,-2.02,-9.56,9.56,9.32,13.53,7.55,7.55,7.55
31.61,-1.89,-9.43,-1.90,-9.43,9.43,9.17,13.48,7.53,7.53,7.53
31.93,-1.78,-9.30,-1.78,-9.29,9.29,9.02,13.40,7.51,7.51,7.51
32.24,-1.66,-9.14,-1.66,-9.15,9.15,8.87,13.29,7.49,7.49,7.48
32.57,-1.54,-9.01,-1.55,-9.01,9.01,8.72,13.14,7.47,7.47,7.47
32.89,-1.43,-8.88,-1.43,-8.88,8.88,8.57,12.97,7.45,7.45,7.45
33.22,-1.31,-8.73,-1.32,-8.75,8.75,8.42,12.77,7.44,7.43,7.42
33.55,-1.21,-8.62,-1.21,-8.61,8.61,8.27,12.55,7.40,7.40,7.41
33.89,-1.10,-8.49,-1.10,-8.48,8.48,8.13,12.31,7.38,7.38,7.38
34.23,-0.99,-8.35,-0.99,-8.35,8.35,7.98,12.05,7.36,7.36,7.36
34.57,-0.88,-8.22,-0.88,-8.22,8.22,7.83,11.78,7.34,7.34,7.34
34.92,-0.77,-8.09,-0.77,-8.09,8.09,7.68,11.50,7.32,7.32,7.31
35.27,-0.66,-7.96,-0.67,-7.96,7.96,7.53,11.22,7.30,7.30,7.30
35.62,-0.55,-7.83,-0.56,-7.83,7.83,7.39,10.93,7.28,7.28,7.28
35.97,-0.45,-7.70,-0.45,-7.70,7.70,7.24,10.63,7.25,7.26,7.25
36.33,-0.34,-7.58,-0.34,-7.57,7.57,7.09,10.34,7.23,7.23,7.24
36.70,-0.23,-7.45,-0.23,-7.44,7.44,6.94,10.04,7.21,7.21,7.21
37.06,-0.12,-7.31,-0.11,-7.30,7.30,6.80,9.74,7.18,7.19,7.19
37.43,0.00,-7.17,0.00,-7.17,7.17,6.65,9.45,7.17,7.17,7.17
37.81,0.11,-7.04,0.12,-7.03,7.03,6.50,9.15,7.14,7.15,7.15
38.19,0.24,-6.89,0.24,-6.89,6.89,6.36,8.86,7.13,7.13,7.12
38.57,0.35,-6.76,0.36,-6.75,6.75,6.21,8.58,7.10,7.10,7.11
38.95,0.48,-6.60,0.48,-6.60,6.60,6.06,8.29,7.08,7.08,7.08
39.34,0.61,-6.45,0.60,-6.46,6.46,5.92,8.01,7.07,7.06,7.06
39.74,0.73,-6.30,0.73,-6.32,6.32,5.77,7.74,7.04,7.04,7.03
40.14,0.86,-6.17,0.85,-6.17,6.17,5.63,7.47,7.03,7.02,7.02
40.54,0.98,-6.02,0.98,-6.02,6.02,5.48,7.20,7.00,7.00,7.00
40.94,1.12,-5.86,1.11,-5.87,5.87,5.34,6.93,6.99,6.98,6.98
41.35,1.24,-5.72,1.24,-5.72,5.72,5.19,6.67,6.96,6.96,6.95
41.76,1.38,-5.57,1.37,-5.57,5.57,5.05,6.42,6.95,6.94,6.95
42.18,1.50,-5.43,1.51,-5.41,5.41,4.90,6.16,6.91,6.92,6.93
42.60,1.64,-5.26,1.64,-5.26,5.26,4.76,5.91,6.90,6.90,6.90
43.03,1.77,-5.13,1.78,-5.11,5.11,4.62,5.67,6.87,6.88,6.89
43.46,1.91,-4.96,1.91,-4.95,4.95,4.47,5.43,6.86,6.86,6.87
43.90,2.05,-4.79,2.05,-4.80,4.80,4.33,5.19,6.84,6.84,6.84
44.33,2.19,-4.63,2.18,-4.64,4.64,4.19,4.95,6.83,6.82,6.82
44.78,2.32,-4.48,2.32,-4.48,4.48,4.05,4.72,6.80,6.80,6.80
45.23,2.46,-4.31,2.45,-4.33,4.33,3.90,4.49,6.78,6.78,6.77
45.68,2.59,-4.16,2.59,-4.17,4.17,3.76,4.26,6.75,6.76,6.75
46.13,2.73,-4.00,2.73,-4.01,4.01,3.62,4.04,6.74,6.74,6.73
46.60,2.87,-3.85,2.87,-3.85,3.85,3.48,3.82,6.71,6.71,6.72
47.06,3.01,-3.69,3.00,-3.69,3.69,3.34,3.60,6.69,6.69,6.70
47.53,3.14,-3.54,3.14,-3.52,3.52,3.20,3.38,6.66,6.67,6.67
48.01,3.28,-3.38,3.28,-3.36,3.36,3.06,3.17,6.64,6.64,6.66
48.49,3.42,-3.21,3.42,-3.20,3.20,2.92,2.96,6.62,6.62,6.63
48.97,3.55,-3.05,3.56,-3.04,3.04,2.78,2.75,6.59,6.60,6.60
49.46,3.69,-2.87,3.69,-2.88,2.88,2.64,2.54,6.57,6.57,6.56
49.96,3.83,-2.70,3.83,-2.72,2.72,2.50,2.34,6.55,6.55,6.53
50.46,3.97,-2.56,3.97,-2.56,2.56,2.36,2.14,6.52,6.52,6.53
50.96,4.11,-2.39,4.10,-2.39,2.39,2.22,1.94,6.50,6.50,6.50
51.47,4.24,-2.23,4.24,-2.23,2.23,2.08,1.74,6.47,6.47,6.47
51.99,4.38,-2.06,4.37,-2.07,2.07,1.95,1.55,6.45,6.44,6.44
52.51,4.51,-1.92,4.51,-1.91,1.91,1.81,1.36,6.42,6.42,6.42
53.03,4.64,-1.76,4.64,-1.75,1.75,1.67,1.17,6.39,6.39,6.40
53.56,4.78,-1.59,4.77,-1.59,1.59,1.54,0.98,6.37,6.36,6.37
54.10,4.91,-1.43,4.91,-1.43,1.43,1.40,0.80,6.34,6.34,6.34
54.64,5.03,-1.28,5.04,-1.27,1.27,1.26,0.62,6.30,6.31,6.31
55.18,5.16,-1.12,5.16,-1.12,1.12,1.13,0.45,6.28,6.28,6.28
55.74,5.29,-0.96,5.29,-0.97,0.97,0.99,0.28,6.25,6.26,6.25
56.29,5.42,-0.81,5.42,-0.81,0.81,0.86,0.11,6.23,6.23,6.23
56.86,5.54,-0.66,5.54,-0.66,0.66,0.73,-0.05,6.20,6.20,6.20
57.42,5.67,-0.50,5.66,-0.51,0.51,0.59,-0.20,6.18,6.17,6.17
58.00,5.79,-0.36,5.78,-0.36,0.36,0.46,-0.36,6.15,6.14,6.14
58.58,5.90,-0.21,5.90,-0.21,0.21,0.33,-0.50,6.11,6.11,6.11
59.16,6.02,-0.07,6.01,-0.07,0.07,0.20,-0.65,6.09,6.08,6.09
59.76,6.13,0.07,6.13,0.07,-0.07,0.07,-0.78,6.05,6.05,6.06
60.35,6.24,0.21,6.24,0.22,-0.22,-0.07,-0.91,6.02,6.02,6.02
60.96,6.34,0.33,6.35,0.36,-0.36,-0.20,-1.04,5.98,5.99,6.01
61.57,6.45,0.49,6.45,0.49,-0.49,-0.32,-1.16,5.96,5.96,5.96
62.18,6.56,0.64,6.56,0.63,-0.63,-0.45,-1.27,5.93,5.93,5.92
62.80,6.66,0.77,6.66,0.76,-0.76,-0.58,-1.38,5.90,5.90,5.89
63.43,6.76,0.91,6.76,0.89,-0.89,-0.71,-1.48,5.87,5.86,5.85
64.07,6.85,1.03,6.85,1.02,-1.02,-0.84,-1.58,5.83,5.83,5.82
64.71,6.95,1.15,6.95,1.15,-1.15,-0.96,-1.67,5.80,5.80,5.80
65.35,7.04,1.27,7.04,1.27,-1.27,-1.09,-1.76,5.77,5.77,5.77
66.01,7.13,1.38,7.13,1.39,-1.39,-1.21,-1.84,5.73,5.74,5.74
66.67,7.23,1.52,7.22,1.52,-1.52,-1.34,-1.91,5.71,5.71,5.71
67.33,7.32,1.64,7.31,1.63,-1.63,-1.46,-1.99,5.69,5.68,5.68
68.01,7.40,1.75,7.40,1.75,-1.75,-1.58,-2.06,5.65,5.65,5.65
68.69,7.48,1.86,7.48,1.86,-1.86,-1.70,-2.12,5.62,5.62,5.62
69.37,7.56,1.98,7.56,1.97,-1.97,-1.82,-2.19,5.58,5.58,5.58
70.07,7.64,2.09,7.64,2.09,-2.09,-1.94,-2.25,5.55,5.55,5.55
70.77,7.71,2.19,7.71,2.20,-2.20,-2.06,-2.30,5.51,5.52,5.52
71.48,7.79,2.31,7.79,2.31,-2.31,-2.18,-2.36,5.48,5.48,5.48
72.19,7.85,2.40,7.86,2.41,-2.41,-2.30,-2.41,5.43,5.44,5.45
72.91,7.93,2.52,7.92,2.52,-2.52,-2.41,-2.47,5.41,5.40,5.41
73.64,7.99,2.63,7.99,2.63,-2.63,-2.53,-2.52,5.36,5.36,5.36
74.38,8.05,2.72,8.05,2.73,-2.73,-2.64,-2.57,5.32,5.32,5.33
75.12,8.12,2.85,8.11,2.83,-2.83,-2.76,-2.62,5.29,5.28,5.27
75.87,8.17,2.94,8.17,2.93,-2.93,-2.87,-2.68,5.23,5.24,5.23
76.63,8.23,3.03,8.23,3.04,-3.04,-2.98,-2.73,5.19,5.19,5.19
77.40,8.28,3.13,8.28,3.14,-3.14,-3.09,-2.79,5.14,5.14,5.15
78.17,8.33,3.24,8.33,3.23,-3.23,-3.20,-2.84,5.09,5.10,5.09
78.95,8.38,3.32,8.38,3.33,-3.33,-3.31,-2.90,5.05,5.05,5.05
79.74,8.42,3.42,8.43,3.43,-3.43,-3.41,-2.96,4.99,5.00,5.00
80.54,8.47,3.52,8.47,3.52,-3.52,-3.52,-3.02,4.94,4.95,4.95
81.35,8.52,3.62,8.51,3.62,-3.62,-3.62,-3.08,4.90,4.90,4.90
82.16,8.56,3.72,8.55,3.71,-3.71,-3.73,-3.15,4.85,4.84,4.84
82.98,8.59,3.79,8.59,3.80,-3.80,-3.83,-3.22,4.79,4.79,4.80
83.81,8.63,3.90,8.62,3.89,-3.89,-3.93,-3.29,4.74,4.73,4.73
84.65,8.65,3.98,8.66,3.98,-3.98,-4.03,-3.36,4.67,4.68,4.67
85.50,8.69,4.06,8.69,4.06,-4.06,-4.13,-3.44,4.62,4.62,4.62
86.35,8.72,4.15,8.71,4.15,-4.15,-4.22,-3.52,4.57,4.56,4.56
87.22,8.74,4.23,8.74,4.23,-4.23,-4.32,-3.60,4.51,4.51,4.51
88.09,8.77,4.32,8.76,4.31,-4.31,-4.41,-3.69,4.45,4.45,4.44
88.97,8.78,4.39,8.78,4.39,-4.39,-4.50,-3.78,4.39,4.39,4.39
89.86,8.80,4.47,8.80,4.47,-4.47,-4.59,-3.87,4.33,4.33,4.33
90.76,8.81,4.55,8.81,4.55,-4.55,-4.68,-3.96,4.26,4.27,4.26
91.66,8.83,4.62,8.83,4.62,-4.62,-4.77,-4.06,4.21,4.21,4.21
92.58,8.84,4.71,8.84,4.70,-4.70,-4.85,-4.16,4.14,4.14,4.13
93.51,8.85,4.76,8.85,4.77,-4.77,-4.94,-4.27,4.08,4.08,4.09
94.44,8.86,4.84,8.86,4.84,-4.84,-5.02,-4.38,4.02,4.02,4.02
95.39,8.87,4.91,8.86,4.91,-4.91,-5.10,-4.49,3.95,3.95,3.96
96.34,8.87,4.99,8.87,4.98,-4.98,-5.18,-4.60,3.88,3.88,3.88
97.30,8.87,5.05,8.87,5.05,-5.05,-5.26,-4.72,3.82,3.82,3.82
98.28,8.87,5.12,8.87,5.12,-5.12,-5.33,-4.84,3.75,3.75,3.75
99.26,8.87,5.20,8.87,5.19,-5.19,-5.40,-4.96,3.68,3.68,3.67
100.25,8.86,5.25,8.86,5.26,-5.26,-5.48,-5.08,3.60,3.61,3.61
101.25,8.86,5.32,8.86,5.32,-5.32,-5.55,-5.21,3.54,3.54,3.54
102.27,8.85,5.39,8.85,5.38,-5.38,-5.61,-5.34,3.47,3.46,3.46
103.29,8.84,5.46,8.84,5.45,-5.45,-5.68,-5.46,3.39,3.39,3.38
104.32,8.83,5.51,8.82,5.51,-5.51,-5.74,-5.59,3.32,3.32,3.32
105.37,8.81,5.56,8.81,5.57,-5.57,-5.81,-5.72,3.24,3.24,3.25
106.42,8.79,5.62,8.79,5.63,-5.63,-5.87,-5.85,3.16,3.17,3.17
107.48,8.78,5.69,8.78,5.69,-5.69,-5.93,-5.98,3.09,3.09,3.09
108.56,8.76,5.74,8.76,5.75,-5.75,-5.98,-6.10,3.01,3.01,3.01
109.64,8.74,5.80,8.74,5.80,-5.80,-6.04,-6.23,2.93,2.94,2.94
110.74,8.72,5.85,8.72,5.86,-5.86,-6.09,-6.35,2.86,2.86,2.87
111.85,8.70,5.91,8.70,5.92,-5.92,-6.14,-6.47,2.78,2.78,2.79
112.97,8.68,5.98,8.68,5.97,-5.97,-6.19,-6.58,2.70,2.70,2.70
114.10,8.65,6.02,8.65,6.03,-6.03,-6.23,-6.69,2.62,2.63,2.63
115.24,8.64,6.09,8.63,6.08,-6.08,-6.28,-6.79,2.56,2.55,2.55
116.39,8.61,6.14,8.60,6.13,-6.13,-6.32,-6.88,2.48,2.47,2.47
117.55,8.58,6.19,8.58,6.18,-6.18,-6.36,-6.97,2.40,2.40,2.39
118.73,8.55,6.23,8.55,6.22,-6.22,-6.40,-7.05,2.33,2.32,2.32
119.92,8.52,6.27,8.52,6.27,-6.27,-6.44,-7.12,2.25,2.25,2.25
121.12,8.49,6.31,8.49,6.31,-6.31,-6.47,-7.18,2.18,2.18,2.18
122.33,8.46,6.35,8.46,6.35,-6.35,-6.50,-7.23,2.11,2.11,2.10
123.55,8.42,6.38,8.42,6.39,-6.39,-6.54,-7.27,2.03,2.03,2.04
124.79,8.39,6.42,8.39,6.42,-6.42,-6.56,-7.30,1.97,1.97,1.97
126.03,8.35,6.44,8.35,6.45,-6.45,-6.59,-7.32,1.89,1.90,1.91
127.29,8.32,6.48,8.32,6.49,-6.49,-6.62,-7.33,1.83,1.83,1.84
128.57,8.28,6.52,8.28,6.52,-6.52,-6.64,-7.33,1.76,1.77,1.76
129.85,8.25,6.55,8.25,6.54,-6.54,-6.66,-7.32,1.71,1.70,1.70
131.15,8.21,6.57,8.21,6.57,-6.57,-6.68,-7.30,1.64,1.64,1.64
132.46,8.18,6.61,8.17,6.59,-6.59,-6.70,-7.27,1.59,1.58,1.57
133.79,8.14,6.61,8.14,6.61,-6.61,-6.71,-7.23,1.53,1.52,1.53
135.12,8.10,6.64,8.10,6.63,-6.63,-6.73,-7.18,1.47,1.47,1.46
136.48,8.06,6.64,8.06,6.65,-6.65,-6.74,-7.13,1.41,1.42,1.42
137.84,8.03,6.66,8.03,6.66,-6.66,-6.75,-7.07,1.37,1.37,1.37
139.22,7.99,6.68,7.99,6.67,-6.67,-6.76,-7.01,1.32,1.32,1.31
140.61,7.95,6.69,7.95,6.68,-6.68,-6.76,-6.94,1.27,1.27,1.26
142.02,7.92,6.68,7.92,6.69,-6.69,-6.77,-6.86,1.23,1.23,1.24
143.44,7.88,6.68,7.88,6.69,-6.69,-6.77,-6.79,1.19,1.19,1.20
144.87,7.84,6.69,7.84,6.69,-6.69,-6.77,-6.71,1.15,1.15,1.15
146.32,7.81,6.70,7.81,6.70,-6.70,-6.77,-6.63,1.11,1.11,1.11
147.78,7.77,6.69,7.77,6.70,-6.70,-6.77,-6.55,1.07,1.07,1.08
149.26,7.74,6.69,7.73,6.70,-6.70,-6.77,-6.48,1.04,1.04,1.04
150.75,7.69,6.69,7.69,6.69,-6.69,-6.76,-6.40,1.00,1.00,1.00
152.26,7.66,6.69,7.66,6.69,-6.69,-6.76,-6.32,0.97,0.96,0.96
153.78,7.62,6.69,7.62,6.69,-6.69,-6.75,-6.24,0.93,0.93,0.93
155.32,7.58,6.68,7.58,6.68,-6.68,-6.74,-6.17,0.90,0.90,0.90
156.88,7.54,6.67,7.54,6.68,-6.68,-6.73,-6.09,0.86,0.86,0.87
158.44,7.50,6.67,7.50,6.67,-6.67,-6.72,-6.03,0.82,0.83,0.83
160.03,7.46,6.67,7.46,6.67,-6.67,-6.71,-5.96,0.79,0.79,0.79
161.63,7.42,6.67,7.42,6.66,-6.66,-6.70,-5.89,0.76,0.76,0.75
163.24,7.38,6.66,7.38,6.66,-6.66,-6.68,-5.83,0.72,0.72,0.72
164.88,7.34,6.65,7.34,6.65,-6.65,-6.66,-5.78,0.69,0.69,0.69
166.53,7.30,6.64,7.30,6.65,-6.65,-6.65,-5.73,0.65,0.65,0.66
168.19,7.26,6.65,7.26,6.64,-6.64,-6.63,-5.68,0.62,0.62,0.61
169.87,7.22,6.64,7.22,6.64,-6.64,-6.61,-5.63,0.58,0.58,0.58
171.57,7.18,6.63,7.18,6.64,-6.64,-6.59,-5.59,0.54,0.54,0.55
173.29,7.14,6.62,7.14,6.63,-6.63,-6.57,-5.55,0.51,0.50,0.51
175.02,7.10,6.63,7.09,6.63,-6.63,-6.55,-5.52,0.47,0.46,0.47
176.77,7.05,6.63,7.05,6.63,-6.63,-6.52,-5.49,0.42,0.42,0.42
178.54,7.01,6.63,7.01,6.63,-6.63,-6.50,-5.47,0.38,0.39,0.38
180.32,6.97,6.62,6.97,6.62,-6.62,-6.48,-5.45,0.34,0.35,0.34
182.13,6.93,6.62,6.93,6.62,-6.62,-6.45,-5.43,0.31,0.30,0.31
183.95,6.88,6.62,6.89,6.62,-6.62,-6.42,-5.42,0.26,0.26,0.26
185.79,6.85,6.62,6.84,6.62,-6.62,-6.40,-5.41,0.23,0.23,0.22
187.65,6.80,6.62,6.80,6.61,-6.61,-6.37,-5.41,0.19,0.19,0.18
189.52,6.75,6.60,6.75,6.60,-6.60,-6.34,-5.41,0.14,0.15,0.14
191.42,6.72,6.61,6.71,6.60,-6.60,-6.31,-5.41,0.12,0.11,0.11
193.33,6.67,6.58,6.66,6.59,-6.59,-6.29,-5.42,0.08,0.08,0.09
195.27,6.62,6.56,6.62,6.57,-6.57,-6.26,-5.43,0.05,0.05,0.05
197.22,6.57,6.55,6.57,6.56,-6.56,-6.23,-5.45,0.01,0.02,0.02
199.19,6.53,6.56,6.53,6.54,-6.54,-6.20,-5.47,-0.01,-0.01,-0.03
201.18,6.49,6.54,6.48,6.52,-6.52,-6.17,-5.49,-0.03,-0.04,-0.05
203.19,6.43,6.50,6.43,6.50,-6.50,-6.14,-5.51,-0.07,-0.07,-0.07
205.23,6.38,6.48,6.38,6.48,-6.48,-6.10,-5.54,-0.10,-0.10,-0.10
207.28,6.34,6.44,6.33,6.45,-6.45,-6.07,-5.56,-0.12,-0.12,-0.11
209.35,6.28,6.42,6.29,6.43,-6.43,-6.04,-5.59,-0.15,-0.14,-0.14
211.44,6.24,6.41,6.24,6.40,-6.40,-6.01,-5.63,-0.16,-0.16,-0.17
213.56,6.19,6.38,6.19,6.37,-6.37,-5.98,-5.66,-0.18,-0.18,-0.19
215.69,6.14,6.33,6.14,6.34,-6.34,-5.95,-5.69,-0.20,-0.20,-0.19
217.85,6.08,6.29,6.09,6.30,-6.30,-5.91,-5.73,-0.22,-0.22,-0.21
220.03,6.04,6.27,6.04,6.26,-6.26,-5.88,-5.76,-0.23,-0.23,-0.23
222.23,5.99,6.24,5.99,6.22,-6.22,-5.85,-5.79,-0.23,-0.24,-0.25
224.45,5.94,6.18,5.94,6.18,-6.18,-5.82,-5.83,-0.24,-0.24,-0.24
226.70,5.89,6.14,5.89,6.14,-6.14,-5.79,-5.86,-0.25,-0.25,-0.26
228.96,5.84,6.10,5.84,6.09,-6.09,-5.76,-5.89,-0.25,-0.25,-0.26
231.25,5.78,6.03,5.78,6.04,-6.04,-5.73,-5.91,-0.26,-0.25,-0.25
233.57,5.73,5.97,5.73,5.98,-5.98,-5.69,-5.94,-0.25,-0.25,-0.24
235.90,5.68,5.92,5.68,5.93,-5.93,-5.66,-5.96,-0.25,-0.24,-0.25
238.26,5.63,5.88,5.63,5.87,-5.87,-5.63,-5.98,-0.24,-0.24,-0.25
240.64,5.58,5.81,5.58,5.81,-5.81,-5.60,-5.99,-0.23,-0.23,-0.23
243.05,5.53,5.75,5.53,5.74,-5.74,-5.58,-6.00,-0.21,-0.22,-0.22
245.48,5.47,5.67,5.47,5.68,-5.68,-5.55,-6.01,-0.21,-0.20,-0.20
247.93,5.42,5.61,5.42,5.61,-5.61,-5.52,-6.01,-0.19,-0.19,-0.19
250.41,5.37,5.55,5.37,5.54,-5.54,-5.49,-6.01,-0.17,-0.17,-0.18
252.92,5.32,5.47,5.31,5.46,-5.46,-5.46,-6.01,-0.14,-0.15,-0.15
255.45,5.25,5.37,5.26,5.39,-5.39,-5.44,-6.00,-0.14,-0.13,-0.13
258.00,5.20,5.30,5.20,5.31,-5.31,-5.41,-5.98,-0.11,-0.11,-0.10
260.58,5.15,5.24,5.13,5.22,-5.22,-5.39,-5.97,-0.08,-0.09,-0.09
263.19,5.08,5.15,5.07,5.14,-5.14,-5.36,-5.94,-0.06,-0.07,-0.07
265.82,5.02,5.07,5.00,5.04,-5.04,-5.34,-5.92,-0.02,-0.05,-0.05
268.48,4.95,4.97,4.92,4.95,-4.95,-5.32,-5.89,0.00,-0.02,-0.03
271.16,4.89,4.88,4.85,4.85,-4.85,-5.29,-5.86,0.04,-0.00,0.01
273.87,4.81,4.79,4.77,4.75,-4.75,-5.27,-5.82,0.06,0.02,0.02
276.61,4.74,4.68,4.70,4.66,-4.66,-5.25,-5.79,0.08,0.05,0.05
279.38,4.67,4.60,4.63,4.56,-4.56,-5.24,-5.75,0.10,0.07,0.07
282.17,4.59,4.50,4.57,4.48,-4.48,-5.22,-5.71,0.11,0.09,0.09
284.99,4.52,4.40,4.53,4.41,-4.41,-5.20,-5.67,0.11,0.12,0.12
287.84,4.47,4.33,4.50,4.35,-4.35,-5.19,-5.63,0.11,0.14,0.14
290.72,4.44,4.26,4.49,4.32,-4.32,-5.18,-5.59,0.12,0.17,0.18
293.63,4.42,4.23,4.50,4.30,-4.30,-5.17,-5.55,0.12,0.20,0.19
296.57,4.44,4.21,4.53,4.30,-4.30,-5.16,-5.52,0.14,0.23,0.23
299.53,4.50,4.25,4.58,4.32,-4.32,-5.15,-5.48,0.18,0.26,0.25
302.53,4.57,4.29,4.65,4.36,-4.36,-5.14,-5.44,0.20,0.29,0.28
305.55,4.68,4.36,4.74,4.42,-4.42,-5.14,-5.41,0.25,0.32,0.32
308.61,4.83,4.48,4.85,4.50,-4.50,-5.14,-5.38,0.33,0.35,0.35
311.69,4.97,4.59,4.97,4.59,-4.59,-5.14,-5.35,0.38,0.38,0.38
314.81,5.13,4.71,5.10,4.69,-4.69,-5.14,-5.32,0.44,0.41,0.42
317.96,5.28,4.83,5.23,4.79,-4.79,-5.14,-5.30,0.49,0.44,0.44
321.14,5.43,4.96,5.36,4.89,-4.89,-5.15,-5.28,0.54,0.47,0.47
324.35,5.56,5.06,5.50,5.00,-5.00,-5.16,-5.26,0.56,0.50,0.50
327.59,5.68,5.14,5.62,5.09,-5.09,-5.17,-5.25,0.58,0.53,0.53
330.87,5.78,5.22,5.74,5.19,-5.19,-5.18,-5.24,0.59,0.56,0.56
334.18,5.88,5.30,5.85,5.27,-5.27,-5.20,-5.23,0.61,0.58,0.58
337.52,5.97,5.36,5.95,5.34,-5.34,-5.21,-5.23,0.63,0.61,0.60
340.90,6.04,5.41,6.04,5.41,-5.41,-5.24,-5.23,0.63,0.63,0.63
344.30,6.11,5.46,6.12,5.47,-5.47,-5.26,-5.23,0.64,0.65,0.65
347.75,6.18,5.50,6.19,5.52,-5.52,-5.29,-5.24,0.66,0.67,0.68
351.23,6.26,5.56,6.26,5.57,-5.57,-5.32,-5.25,0.69,0.69,0.69
354.74,6.33,5.62,6.32,5.61,-5.61,-5.35,-5.27,0.72,0.71,0.71
358.28,6.38,5.65,6.39,5.66,-5.66,-5.39,-5.29,0.72,0.73,0.73
361.87,6.44,5.69,6.45,5.70,-5.70,-5.43,-5.32,0.74,0.75,0.75
365.49,6.50,5.72,6.51,5.74,-5.74,-5.47,-5.35,0.75,0.77,0.77
369.14,6.57,5.79,6.58,5.79,-5.79,-5.52,-5.38,0.78,0.79,0.78
372.83,6.63,5.83,6.64,5.84,-5.84,-5.57,-5.42,0.79,0.81,0.80
376.56,6.71,5.89,6.71,5.89,-5.89,-5.62,-5.46,0.82,0.82,0.82
380.33,6.77,5.92,6.78,5.94,-5.94,-5.68,-5.50,0.83,0.84,0.85
384.13,6.85,5.98,6.85,5.99,-5.99,-5.74,-5.55,0.86,0.86,0.86
387.97,6.92,6.04,6.93,6.04,-6.04,-5.80,-5.60,0.88,0.88,0.88
391.85,7.00,6.10,7.00,6.10,-6.10,-5.87,-5.65,0.90,0.90,0.90
395.77,7.07,6.14,7.07,6.15,-6.15,-5.94,-5.71,0.92,0.92,0.93
399.73,7.16,6.21,7.15,6.21,-6.21,-6.01,-5.77,0.95,0.95,0.95
403.72,7.23,6.26,7.23,6.26,-6.26,-6.08,-5.83,0.97,0.97,0.97
407.76,7.30,6.31,7.30,6.31,-6.31,-6.16,-5.90,0.98,0.99,0.98
411.84,7.37,6.36,7.37,6.36,-6.36,-6.23,-5.96,1.00,1.01,1.01
415.96,7.46,6.43,7.45,6.41,-6.41,-6.31,-6.03,1.04,1.03,1.03
420.12,7.53,6.48,7.52,6.46,-6.46,-6.39,-6.09,1.07,1.05,1.05
424.32,7.59,6.51,7.59,6.51,-6.51,-6.47,-6.16,1.08,1.08,1.08
428.56,7.66,6.56,7.65,6.55,-6.55,-6.54,-6.23,1.10,1.10,1.10
432.85,7.72,6.60,7.72,6.60,-6.60,-6.61,-6.29,1.12,1.12,1.12
437.18,7.78,6.63,7.78,6.64,-6.64,-6.68,-6.35,1.14,1.15,1.15
441.55,7.83,6.65,7.85,6.67,-6.67,-6.75,-6.41,1.15,1.17,1.18
445.96,7.88,6.68,7.90,6.71,-6.71,-6.81,-6.47,1.17,1.20,1.19
450.42,7.95,6.74,7.96,6.74,-6.74,-6.86,-6.52,1.21,1.22,1.21
454.93,8.00,6.75,8.01,6.76,-6.76,-6.91,-6.57,1.23,1.25,1.25
459.48,8.06,6.79,8.06,6.79,-6.79,-6.94,-6.61,1.27,1.28,1.27
464.07,8.11,6.81,8.10,6.80,-6.80,-6.97,-6.64,1.31,1.30,1.30
468.71,8.14,6.80,8.14,6.81,-6.81,-6.98,-6.66,1.33,1.33,1.34
473.40,8.18,6.82,8.17,6.81,-6.81,-6.98,-6.68,1.37,1.36,1.36
478.13,8.20,6.81,8.19,6.80,-6.80,-6.97,-6.69,1.39,1.39,1.39
482.91,8.20,6.78,8.20,6.79,-6.79,-6.95,-6.69,1.41,1.42,1.42
487.74,8.21,6.76,8.21,6.76,-6.76,-6.91,-6.67,1.45,1.44,1.45
492.62,8.20,6.72,8.19,6.72,-6.72,-6.85,-6.65,1.48,1.47,1.48
497.55,8.18,6.68,8.17,6.67,-6.67,-6.78,-6.62,1.51,1.50,1.50
502.52,8.14,6.60,8.12,6.59,-6.59,-6.70,-6.57,1.54,1.53,1.53
507.55,8.09,6.53,8.06,6.51,-6.51,-6.60,-6.51,1.58,1.56,1.55
512.62,8.02,6.44,7.99,6.40,-6.40,-6.49,-6.45,1.61,1.58,1.58
517.75,7.95,6.34,7.90,6.29,-6.29,-6.37,-6.37,1.66,1.61,1.61
