frequency,raw,error,smoothed,error_smoothed,equalization,parametric_eq,fixed_band_eq,equalized_raw,equalized_smoothed,target
20.00,1.78,-1.97,1.78,-1.99,1.99,3.14,0.12,3.77,3.77,3.75
20.20,1.81,-1.94,1.81,-1.95,1.95,3.11,0.13,3.76,3.76,3.75
20.40,1.83,-1.92,1.84,-1.92,1.92,3.06,0.14,3.75,3.76,3.75
20.61,1.86,-1.89,1.87,-1.88,1.88,2.99,0.14,3.74,3.75,3.75
20.81,1.90,-1.85,1.90,-1.84,1.84,2.92,0.15,3.74,3.74,3.75
21.02,1.92,-1.83,1.92,-1.80,1.80,2.83,0.16,3.72,3.72,3.75
21.23,1.96,-1.76,1.95,-1.76,1.76,2.73,0.17,3.72,3.71,3.73
21.44,1.99,-1.72,1.98,-1.72,1.72,2.63,0.18,3.71,3.70,3.72
21.66,2.01,-1.68,2.01,-1.67,1.67,2.53,0.18,3.68,3.68,3.70
21.87,2.04,-1.63,2.04,-1.63,1.63,2.42,0.19,3.67,3.67,3.68
22.09,2.07,-1.59,2.07,-1.58,1.58,2.31,0.20,3.66,3.65,3.66
22.31,2.10,-1.53,2.10,-1.54,1.54,2.20,0.21,3.64,3.64,3.63
22.54,2.12,-1.49,2.13,-1.49,1.49,2.09,0.22,3.61,3.61,3.61
22.76,2.16,-1.43,2.16,-1.43,1.43,1.98,0.23,3.60,3.59,3.59
22.99,2.18,-1.38,2.19,-1.38,1.38,1.88,0.24,3.56,3.57,3.56
23.22,2.21,-1.32,2.22,-1.33,1.33,1.77,0.25,3.54,3.55,3.53
23.45,2.24,-1.27,2.25,-1.28,1.28,1.67,0.26,3.52,3.52,3.51
23.69,2.27,-1.23,2.28,-1.23,1.23,1.58,0.27,3.50,3.50,3.50
23.92,2.31,-1.17,2.31,-1.17,1.17,1.49,0.28,3.49,3.48,3.48
24.16,2.34,-1.13,2.34,-1.12,1.12,1.40,0.29,3.46,3.46,3.47
24.40,2.37,-1.07,2.37,-1.07,1.07,1.32,0.30,3.44,3.44,3.45
24.65,2.40,-1.02,2.41,-1.02,1.02,1.24,0.31,3.42,3.42,3.43
24.89,2.44,-0.96,2.44,-0.96,0.96,1.16,0.32,3.41,3.41,3.41
25.14,2.47,-0.92,2.48,-0.91,0.91,1.09,0.33,3.38,3.39,3.39
25.39,2.51,-0.86,2.51,-0.86,0.86,1.02,0.34,3.37,3.37,3.37
25.65,2.55,-0.81,2.55,-0.81,0.81,0.95,0.35,3.36,3.36,3.36
25.91,2.58,-0.75,2.59,-0.76,0.76,0.89,0.36,3.34,3.34,3.33
26.16,2.62,-0.70,2.62,-0.70,0.70,0.83,0.37,3.33,3.32,3.32
26.43,2.66,-0.65,2.66,-0.65,0.65,0.77,0.38,3.31,3.31,3.31
26.69,2.69,-0.60,2.69,-0.60,0.60,0.71,0.39,3.29,3.29,3.29
26.96,2.73,-0.54,2.73,-0.55,0.55,0.66,0.40,3.28,3.28,3.28
27.23,2.77,-0.49,2.77,-0.50,0.50,0.61,0.41,3.27,3.26,3.26
27.50,2.80,-0.45,2.80,-0.44,0.44,0.56,0.41,3.25,3.25,3.25
27.77,2.83,-0.40,2.84,-0.40,0.40,0.52,0.42,3.23,3.23,3.23
28.05,2.87,-0.35,2.87,-0.35,0.35,0.47,0.42,3.22,3.22,3.22
28.33,2.90,-0.30,2.91,-0.30,0.30,0.43,0.43,3.20,3.20,3.20
28.62,2.94,-0.25,2.94,-0.25,0.25,0.39,0.43,3.19,3.19,3.19
28.90,2.97,-0.20,2.97,-0.20,0.20,0.35,0.43,3.18,3.18,3.18
29.19,3.00,-0.15,3.01,-0.16,0.16,0.31,0.43,3.16,3.16,3.15
29.48,3.03,-0.12,3.04,-0.11,0.11,0.27,0.43,3.14,3.15,3.15
29.78,3.07,-0.07,3.07,-0.06,0.06,0.24,0.42,3.14,3.14,3.14
30.08,3.10,-0.03,3.10,-0.02,0.02,0.20,0.42,3.12,3.12,3.13
30.38,3.13,0.03,3.13,0.03,-0.03,0.17,0.41,3.10,3.10,3.11
30.68,3.16,0.07,3.16,0.07,-0.07,0.14,0.40,3.09,3.09,3.09
30.99,3.20,0.13,3.19,0.11,-0.11,0.11,0.39,3.09,3.07,3.07
31.30,3.22,0.16,3.21,0.16,-0.16,0.08,0.38,3.06,3.06,3.06
31.61,3.24,0.20,3.24,0.20,-0.20,0.05,0.36,3.04,3.04,3.05
31.93,3.26,0.24,3.26,0.24,-0.24,0.02,0.35,3.02,3.02,3.02
32.24,3.28,0.29,3.28,0.28,-0.28,-0.01,0.33,3.00,3.00,2.99
32.57,3.30,0.32,3.30,0.32,-0.32,-0.04,0.31,2.98,2.98,2.98
32.89,3.31,0.35,3.32,0.36,-0.36,-0.07,0.28,2.95,2.96,2.96
33.22,3.33,0.40,3.33,0.39,-0.39,-0.09,0.26,2.94,2.94,2.93
33.55,3.34,0.42,3.35,0.43,-0.43,-0.12,0.23,2.91,2.92,2.92
33.89,3.36,0.47,3.36,0.47,-0.47,-0.15,0.21,2.90,2.90,2.90
34.23,3.37,0.50,3.37,0.50,-0.50,-0.17,0.18,2.87,2.87,2.87
34.57,3.39,0.54,3.39,0.54,-0.54,-0.20,0.14,2.86,2.85,2.85
34.92,3.40,0.58,3.40,0.57,-0.57,-0.22,0.11,2.83,2.83,2.83
35.27,3.41,0.60,3.41,0.60,-0.60,-0.25,0.08,2.81,2.81,2.81
35.62,3.42,0.63,3.43,0.64,-0.64,-0.27,0.04,2.79,2.79,2.79
35.97,3.43,0.67,3.44,0.67,-0.67,-0.30,0.00,2.76,2.77,2.76
36.33,3.45,0.70,3.45,0.71,-0.71,-0.32,-0.03,2.75,2.74,2.75
36.70,3.46,0.74,3.46,0.74,-0.74,-0.35,-0.07,2.72,2.72,2.72
37.06,3.48,0.78,3.48,0.78,-0.78,-0.37,-0.11,2.71,2.70,2.70
37.43,3.49,0.81,3.49,0.81,-0.81,-0.39,-0.16,2.68,2.68,2.69
37.81,3.50,0.84,3.51,0.85,-0.85,-0.42,-0.20,2.65,2.66,2.66
38.19,3.52,0.89,3.52,0.88,-0.88,-0.44,-0.24,2.64,2.64,2.64
38.57,3.53,0.91,3.54,0.92,-0.92,-0.47,-0.29,2.61,2.62,2.62
38.95,3.55,0.96,3.55,0.96,-0.96,-0.49,-0.33,2.59,2.59,2.59
39.34,3.57,1.00,3.57,1.00,-1.00,-0.52,-0.38,2.58,2.57,2.57
39.74,3.59,1.05,3.59,1.03,-1.03,-0.54,-0.42,2.56,2.55,2.54
40.14,3.60,1.07,3.61,1.07,-1.07,-0.57,-0.47,2.53,2.53,2.54
40.54,3.62,1.11,3.62,1.11,-1.11,-0.59,-0.52,2.51,2.51,2.51
40.94,3.64,1.15,3.64,1.15,-1.15,-0.61,-0.57,2.49,2.49,2.49
41.35,3.66,1.20,3.66,1.19,-1.19,-0.64,-0.62,2.47,2.47,2.47
41.76,3.68,1.22,3.68,1.23,-1.23,-0.67,-0.67,2.45,2.45,2.46
42.18,3.70,1.26,3.70,1.27,-1.27,-0.69,-0.72,2.43,2.43,2.44
42.60,3.72,1.31,3.72,1.31,-1.31,-0.72,-0.77,2.41,2.41,2.41
43.03,3.74,1.34,3.74,1.35,-1.35,-0.74,-0.83,2.39,2.39,2.41
43.46,3.76,1.39,3.76,1.39,-1.39,-0.77,-0.88,2.37,2.37,2.38
43.90,3.78,1.43,3.78,1.43,-1.43,-0.80,-0.93,2.36,2.35,2.35
44.33,3.80,1.47,3.80,1.46,-1.46,-0.82,-0.99,2.34,2.33,2.33
44.78,3.81,1.50,3.82,1.50,-1.50,-0.85,-1.04,2.31,2.31,2.31
45.23,3.83,1.55,3.83,1.54,-1.54,-0.88,-1.10,2.29,2.29,2.28
45.68,3.84,1.58,3.85,1.58,-1.58,-0.90,-1.15,2.26,2.27,2.26
46.13,3.87,1.63,3.87,1.62,-1.62,-0.93,-1.21,2.25,2.25,2.24
46.60,3.88,1.65,3.88,1.66,-1.66,-0.96,-1.27,2.23,2.22,2.23
47.06,3.90,1.69,3.90,1.69,-1.69,-0.99,-1.33,2.21,2.20,2.21
47.53,3.91,1.73,3.91,1.73,-1.73,-1.02,-1.39,2.18,2.18,2.19
48.01,3.92,1.75,3.92,1.77,-1.77,-1.05,-1.45,2.15,2.16,2.17
48.49,3.93,1.79,3.94,1.80,-1.80,-1.08,-1.51,2.13,2.13,2.14
48.97,3.95,1.84,3.95,1.84,-1.84,-1.11,-1.57,2.11,2.11,2.11
49.46,3.96,1.89,3.96,1.88,-1.88,-1.14,-1.63,2.09,2.08,2.07
49.96,3.97,1.93,3.97,1.91,-1.91,-1.18,-1.69,2.06,2.06,2.04
50.46,3.98,1.95,3.98,1.95,-1.95,-1.21,-1.75,2.03,2.03,2.04
50.96,3.99,1.98,3.99,1.99,-1.99,-1.24,-1.81,2.01,2.01,2.01
51.47,4.00,2.03,4.00,2.02,-2.02,-1.28,-1.88,1.98,1.98,1.98
51.99,4.01,2.06,4.01,2.06,-2.06,-1.31,-1.94,1.95,1.96,1.95
52.51,4.02,2.09,4.02,2.09,-2.09,-1.35,-2.00,1.93,1.93,1.93
53.03,4.03,2.13,4.03,2.13,-2.13,-1.38,-2.06,1.90,1.90,1.91
53.56,4.04,2.16,4.04,2.17,-2.17,-1.42,-2.13,1.88,1.87,1.88
54.10,4.05,2.20,4.05,2.20,-2.20,-1.46,-2.19,1.85,1.85,1.85
54.64,4.05,2.23,4.06,2.23,-2.23,-1.50,-2.25,1.82,1.82,1.82
55.18,4.06,2.27,4.06,2.27,-2.27,-1.53,-2.31,1.79,1.80,1.79
55.74,4.07,2.31,4.07,2.30,-2.30,-1.57,-2.37,1.77,1.77,1.76
56.29,4.07,2.33,4.08,2.34,-2.34,-1.61,-2.42,1.74,1.74,1.74
56.86,4.08,2.37,4.08,2.37,-2.37,-1.66,-2.48,1.71,1.71,1.71
57.42,4.09,2.41,4.09,2.40,-2.40,-1.70,-2.54,1.69,1.68,1.68
58.00,4.09,2.44,4.09,2.44,-2.44,-1.74,-2.59,1.65,1.65,1.65
58.58,4.10,2.48,4.10,2.48,-2.48,-1.78,-2.64,1.63,1.62,1.62
59.16,4.11,2.52,4.11,2.51,-2.51,-1.83,-2.69,1.60,1.59,1.60
59.76,4.11,2.54,4.11,2.55,-2.55,-1.87,-2.74,1.56,1.56,1.57
60.35,4.11,2.58,4.12,2.58,-2.58,-1.92,-2.79,1.53,1.53,1.54
60.96,4.11,2.59,4.12,2.62,-2.62,-1.97,-2.83,1.49,1.50,1.52
61.57,4.12,2.65,4.13,2.66,-2.66,-2.02,-2.87,1.46,1.47,1.47
62.18,4.13,2.70,4.13,2.69,-2.69,-2.07,-2.91,1.44,1.44,1.43
62.80,4.14,2.74,4.14,2.73,-2.73,-2.12,-2.95,1.41,1.41,1.40
63.43,4.15,2.79,4.15,2.77,-2.77,-2.17,-2.99,1.38,1.38,1.36
64.07,4.15,2.82,4.15,2.81,-2.81,-2.22,-3.02,1.35,1.35,1.33
64.71,4.16,2.85,4.16,2.84,-2.84,-2.27,-3.05,1.32,1.31,1.31
65.35,4.16,2.88,4.16,2.88,-2.88,-2.33,-3.08,1.28,1.28,1.28
66.01,4.16,2.91,4.17,2.92,-2.92,-2.39,-3.11,1.25,1.25,1.25
66.67,4.17,2.95,4.17,2.95,-2.95,-2.44,-3.14,1.22,1.22,1.22
67.33,4.18,2.99,4.18,2.99,-2.99,-2.50,-3.16,1.19,1.19,1.19
68.01,4.18,3.02,4.18,3.03,-3.03,-2.56,-3.19,1.16,1.16,1.16
68.69,4.19,3.06,4.19,3.06,-3.06,-2.62,-3.21,1.13,1.13,1.13
69.37,4.19,3.10,4.19,3.10,-3.10,-2.68,-3.23,1.10,1.10,1.09
70.07,4.19,3.13,4.19,3.13,-3.13,-2.74,-3.25,1.06,1.06,1.06
70.77,4.20,3.17,4.20,3.17,-3.17,-2.81,-3.28,1.03,1.03,1.03
71.48,4.20,3.21,4.20,3.21,-3.21,-2.87,-3.30,0.99,0.99,0.99
72.19,4.20,3.24,4.20,3.25,-3.25,-2.94,-3.32,0.95,0.95,0.96
72.91,4.21,3.30,4.21,3.29,-3.29,-3.00,-3.34,0.92,0.91,0.92
73.64,4.20,3.33,4.21,3.33,-3.33,-3.07,-3.37,0.87,0.87,0.87
74.38,4.20,3.36,4.21,3.38,-3.38,-3.14,-3.39,0.83,0.83,0.84
75.12,4.21,3.43,4.21,3.42,-3.42,-3.21,-3.42,0.79,0.79,0.78
75.87,4.21,3.47,4.21,3.47,-3.47,-3.28,-3.45,0.75,0.75,0.74
76.63,4.21,3.51,4.22,3.51,-3.51,-3.35,-3.48,0.70,0.70,0.71
77.40,4.21,3.56,4.22,3.56,-3.56,-3.43,-3.51,0.65,0.66,0.66
78.17,4.22,3.63,4.22,3.61,-3.61,-3.50,-3.54,0.61,0.61,0.60
78.95,4.22,3.66,4.22,3.66,-3.66,-3.58,-3.57,0.56,0.56,0.57
79.74,4.22,3.71,4.22,3.71,-3.71,-3.65,-3.61,0.51,0.51,0.51
80.54,4.22,3.76,4.23,3.77,-3.77,-3.73,-3.65,0.45,0.46,0.46
81.35,4.23,3.82,4.23,3.82,-3.82,-3.81,-3.69,0.41,0.41,0.41
82.16,4.23,3.88,4.23,3.87,-3.87,-3.88,-3.74,0.36,0.35,0.35
82.98,4.23,3.93,4.23,3.93,-3.93,-3.96,-3.79,0.31,0.30,0.31
83.81,4.23,3.99,4.23,3.98,-3.98,-4.04,-3.84,0.25,0.25,0.24
84.65,4.22,4.04,4.23,4.04,-4.04,-4.12,-3.89,0.19,0.19,0.18
85.50,4.22,4.09,4.22,4.09,-4.09,-4.20,-3.95,0.13,0.13,0.14
86.35,4.22,4.15,4.22,4.15,-4.15,-4.28,-4.01,0.08,0.08,0.08
87.22,4.21,4.20,4.22,4.20,-4.20,-4.36,-4.07,0.01,0.02,0.02
88.09,4.21,4.26,4.21,4.25,-4.25,-4.44,-4.13,-0.04,-0.04,-0.04
88.97,4.21,4.31,4.21,4.31,-4.31,-4.52,-4.20,-0.10,-0.10,-0.10
89.86,4.20,4.36,4.20,4.36,-4.36,-4.60,-4.28,-0.16,-0.16,-0.16
90.76,4.20,4.43,4.20,4.42,-4.42,-4.68,-4.35,-0.22,-0.22,-0.23
91.66,4.19,4.47,4.19,4.47,-4.47,-4.76,-4.43,-0.28,-0.28,-0.28
92.58,4.18,4.54,4.19,4.53,-4.53,-4.84,-4.51,-0.35,-0.34,-0.36
93.51,4.17,4.57,4.18,4.59,-4.59,-4.91,-4.60,-0.41,-0.41,-0.40
94.44,4.17,4.64,4.17,4.64,-4.64,-4.99,-4.68,-0.47,-0.47,-0.47
95.39,4.16,4.69,4.16,4.70,-4.70,-5.06,-4.77,-0.54,-0.54,-0.53
96.34,4.15,4.76,4.15,4.76,-4.76,-5.13,-4.87,-0.61,-0.61,-0.61
97.30,4.14,4.81,4.14,4.81,-4.81,-5.20,-4.96,-0.67,-0.67,-0.67
98.28,4.13,4.87,4.13,4.87,-4.87,-5.27,-5.06,-0.74,-0.74,-0.74
99.26,4.12,4.94,4.12,4.93,-4.93,-5.34,-5.16,-0.81,-0.81,-0.82
100.25,4.10,4.99,4.10,4.99,-4.99,-5.40,-5.26,-0.88,-0.88,-0.88
101.25,4.09,5.04,4.09,5.04,-5.04,-5.46,-5.37,-0.95,-0.95,-0.95
102.27,4.08,5.11,4.08,5.10,-5.10,-5.52,-5.47,-1.02,-1.02,-1.03
103.29,4.06,5.17,4.06,5.16,-5.16,-5.58,-5.58,-1.10,-1.10,-1.11
104.32,4.04,5.22,4.05,5.22,-5.22,-5.63,-5.69,-1.18,-1.17,-1.17
105.37,4.03,5.27,4.03,5.28,-5.28,-5.68,-5.80,-1.24,-1.25,-1.24
106.42,4.00,5.32,4.01,5.33,-5.33,-5.72,-5.90,-1.33,-1.32,-1.32
107.48,3.99,5.39,3.99,5.39,-5.39,-5.77,-6.01,-1.40,-1.40,-1.40
108.56,3.97,5.45,3.97,5.45,-5.45,-5.80,-6.11,-1.48,-1.47,-1.47
109.64,3.95,5.50,3.96,5.51,-5.51,-5.84,-6.22,-1.56,-1.55,-1.55
110.74,3.94,5.56,3.94,5.57,-5.57,-5.87,-6.32,-1.62,-1.63,-1.62
111.85,3.92,5.62,3.92,5.62,-5.62,-5.90,-6.41,-1.70,-1.71,-1.70
112.97,3.89,5.69,3.90,5.68,-5.68,-5.92,-6.50,-1.79,-1.78,-1.79
114.10,3.87,5.73,3.87,5.74,-5.74,-5.94,-6.59,-1.86,-1.86,-1.86
115.24,3.85,5.79,3.85,5.79,-5.79,-5.96,-6.67,-1.94,-1.94,-1.94
116.39,3.83,5.85,3.83,5.84,-5.84,-5.97,-6.75,-2.01,-2.01,-2.02
117.55,3.80,5.90,3.81,5.89,-5.89,-5.98,-6.82,-2.09,-2.09,-2.10
118.73,3.78,5.95,3.78,5.94,-5.94,-5.99,-6.88,-2.16,-2.16,-2.17
119.92,3.75,5.99,3.75,5.99,-5.99,-5.99,-6.93,-2.24,-2.24,-2.24
121.12,3.73,6.04,3.73,6.04,-6.04,-5.99,-6.97,-2.31,-2.31,-2.31
122.33,3.70,6.09,3.70,6.08,-6.08,-5.99,-7.00,-2.38,-2.38,-2.38
123.55,3.67,6.12,3.67,6.13,-6.13,-5.98,-7.03,-2.45,-2.45,-2.45
124.79,3.64,6.16,3.64,6.17,-6.17,-5.98,-7.04,-2.52,-2.52,-2.52
126.03,3.61,6.19,3.61,6.20,-6.20,-5.97,-7.05,-2.59,-2.59,-2.58
127.29,3.58,6.23,3.58,6.24,-6.24,-5.96,-7.04,-2.66,-2.66,-2.65
128.57,3.54,6.27,3.55,6.27,-6.27,-5.94,-7.03,-2.73,-2.72,-2.73
129.85,3.52,6.31,3.52,6.30,-6.30,-5.93,-7.00,-2.78,-2.79,-2.79
131.15,3.48,6.33,3.48,6.33,-6.33,-5.92,-6.97,-2.85,-2.85,-2.85
132.46,3.45,6.37,3.45,6.36,-6.36,-5.90,-6.93,-2.90,-2.91,-2.92
133.79,3.42,6.38,3.42,6.38,-6.38,-5.89,-6.88,-2.96,-2.97,-2.96
135.12,3.38,6.41,3.38,6.40,-6.40,-5.88,-6.83,-3.02,-3.02,-3.03
136.48,3.34,6.42,3.35,6.42,-6.42,-5.86,-6.76,-3.08,-3.07,-3.07
137.84,3.31,6.43,3.32,6.44,-6.44,-5.85,-6.69,-3.13,-3.12,-3.12
139.22,3.28,6.46,3.28,6.45,-6.45,-5.84,-6.62,-3.17,-3.17,-3.18
140.61,3.24,6.47,3.25,6.46,-6.46,-5.83,-6.54,-3.22,-3.22,-3.23
142.02,3.21,6.47,3.21,6.47,-6.47,-5.82,-6.46,-3.26,-3.26,-3.25
143.44,3.18,6.48,3.18,6.48,-6.48,-5.82,-6.38,-3.30,-3.30,-3.29
144.87,3.14,6.49,3.15,6.49,-6.49,-5.82,-6.29,-3.34,-3.34,-3.34
146.32,3.12,6.50,3.12,6.49,-6.49,-5.82,-6.20,-3.37,-3.38,-3.38
147.78,3.08,6.49,3.08,6.50,-6.50,-5.82,-6.11,-3.42,-3.42,-3.41
149.26,3.05,6.50,3.05,6.50,-6.50,-5.83,-6.02,-3.45,-3.45,-3.45
150.75,3.01,6.50,3.02,6.51,-6.51,-5.84,-5.93,-3.49,-3.49,-3.49
152.26,2.98,6.51,2.98,6.51,-6.51,-5.86,-5.85,-3.53,-3.52,-3.52
153.78,2.95,6.51,2.95,6.51,-6.51,-5.88,-5.76,-3.56,-3.56,-3.56
155.32,2.91,6.50,2.92,6.51,-6.51,-5.90,-5.67,-3.60,-3.59,-3.59
156.88,2.88,6.50,2.88,6.51,-6.51,-5.93,-5.59,-3.63,-3.63,-3.62
158.44,2.84,6.50,2.85,6.51,-6.51,-5.96,-5.51,-3.67,-3.66,-3.66
160.03,2.81,6.51,2.81,6.51,-6.51,-6.00,-5.43,-3.69,-3.70,-3.70
161.63,2.77,6.51,2.77,6.50,-6.50,-6.04,-5.36,-3.73,-3.73,-3.74
163.24,2.73,6.50,2.73,6.50,-6.50,-6.09,-5.28,-3.77,-3.77,-3.77
164.88,2.69,6.49,2.69,6.49,-6.49,-6.13,-5.21,-3.80,-3.80,-3.80
166.53,2.65,6.48,2.65,6.49,-6.49,-6.19,-5.15,-3.83,-3.84,-3.83
168.19,2.61,6.49,2.61,6.48,-6.48,-6.24,-5.08,-3.87,-3.87,-3.88
169.87,2.56,6.47,2.56,6.47,-6.47,-6.30,-5.03,-3.91,-3.91,-3.91
171.57,2.51,6.45,2.51,6.46,-6.46,-6.36,-4.97,-3.95,-3.95,-3.94
173.29,2.46,6.44,2.47,6.45,-6.45,-6.42,-4.92,-3.99,-3.99,-3.97
175.02,2.42,6.44,2.42,6.44,-6.44,-6.47,-4.87,-4.02,-4.03,-4.02
176.77,2.36,6.43,2.36,6.43,-6.43,-6.53,-4.83,-4.07,-4.07,-4.07
178.54,2.31,6.42,2.31,6.41,-6.41,-6.58,-4.78,-4.10,-4.10,-4.11
180.32,2.25,6.40,2.25,6.40,-6.40,-6.62,-4.75,-4.14,-4.14,-4.14
182.13,2.19,6.37,2.20,6.38,-6.38,-6.66,-4.71,-4.19,-4.18,-4.18
183.95,2.13,6.36,2.14,6.36,-6.36,-6.69,-4.68,-4.23,-4.22,-4.23
185.79,2.08,6.35,2.08,6.34,-6.34,-6.70,-4.66,-4.26,-4.26,-4.26
187.65,2.02,6.33,2.01,6.31,-6.31,-6.71,-4.64,-4.29,-4.30,-4.31
189.52,1.94,6.29,1.95,6.29,-6.29,-6.70,-4.62,-4.34,-4.34,-4.34
191.42,1.88,6.26,1.88,6.26,-6.26,-6.67,-4.60,-4.37,-4.37,-4.38
193.33,1.82,6.22,1.81,6.22,-6.22,-6.63,-4.59,-4.40,-4.41,-4.40
195.27,1.74,6.18,1.74,6.19,-6.19,-6.57,-4.58,-4.44,-4.44,-4.43
197.22,1.67,6.14,1.67,6.15,-6.15,-6.50,-4.57,-4.47,-4.47,-4.47
199.19,1.60,6.12,1.60,6.10,-6.10,-6.41,-4.56,-4.50,-4.50,-4.52
201.18,1.53,6.07,1.53,6.06,-6.06,-6.30,-4.56,-4.52,-4.53,-4.54
203.19,1.44,6.00,1.45,6.01,-6.01,-6.18,-4.56,-4.57,-4.56,-4.56
205.23,1.37,5.96,1.37,5.96,-5.96,-6.05,-4.56,-4.58,-4.58,-4.59
207.28,1.29,5.89,1.29,5.90,-5.90,-5.91,-4.56,-4.61,-4.61,-4.59
209.35,1.21,5.84,1.22,5.85,-5.85,-5.76,-4.57,-4.64,-4.63,-4.63
211.44,1.14,5.80,1.14,5.79,-5.79,-5.61,-4.57,-4.65,-4.65,-4.66
213.56,1.05,5.73,1.06,5.73,-5.73,-5.44,-4.57,-4.67,-4.67,-4.68
215.69,0.97,5.65,0.97,5.66,-5.66,-5.28,-4.58,-4.69,-4.69,-4.68
217.85,0.89,5.59,0.89,5.60,-5.60,-5.11,-4.58,-4.70,-4.70,-4.70
220.03,0.81,5.53,0.81,5.53,-5.53,-4.94,-4.59,-4.72,-4.72,-4.72
222.23,0.73,5.47,0.73,5.45,-5.45,-4.77,-4.59,-4.72,-4.73,-4.74
224.45,0.65,5.38,0.65,5.38,-5.38,-4.60,-4.59,-4.73,-4.73,-4.73
226.70,0.56,5.31,0.57,5.31,-5.31,-4.44,-4.59,-4.74,-4.74,-4.74
228.96,0.48,5.23,0.49,5.23,-5.23,-4.28,-4.58,-4.75,-4.74,-4.75
231.25,0.39,5.13,0.41,5.15,-5.15,-4.12,-4.57,-4.76,-4.74,-4.74
233.57,0.31,5.04,0.33,5.07,-5.07,-3.96,-4.56,-4.76,-4.74,-4.73
235.90,0.23,4.97,0.25,4.99,-4.99,-3.81,-4.55,-4.76,-4.73,-4.73
238.26,0.16,4.90,0.18,4.90,-4.90,-3.67,-4.53,-4.74,-4.73,-4.74
240.64,0.07,4.79,0.10,4.82,-4.82,-3.52,-4.51,-4.74,-4.72,-4.72
243.05,-0.01,4.70,0.02,4.72,-4.72,-3.39,-4.48,-4.73,-4.70,-4.71
245.48,-0.10,4.59,-0.07,4.62,-4.62,-3.25,-4.44,-4.72,-4.69,-4.69
247.93,-0.18,4.50,-0.17,4.51,-4.51,-3.13,-4.41,-4.68,-4.68,-4.68
250.41,-0.27,4.40,-0.28,4.38,-4.38,-3.00,-4.36,-4.65,-4.66,-4.67
252.92,-0.37,4.27,-0.41,4.23,-4.23,-2.88,-4.31,-4.60,-4.64,-4.64
255.45,-0.50,4.12,-0.55,4.07,-4.07,-2.77,-4.26,-4.57,-4.62,-4.61
258.00,-0.63,3.96,-0.71,3.89,-3.89,-2.65,-4.20,-4.52,-4.60,-4.59
260.58,-0.79,3.79,-0.89,3.69,-3.69,-2.55,-4.13,-4.48,-4.58,-4.58
263.19,-0.99,3.57,-1.08,3.47,-3.47,-2.44,-4.06,-4.46,-4.56,-4.56
265.82,-1.20,3.34,-1.29,3.25,-3.25,-2.34,-3.98,-4.44,-4.53,-4.54
268.48,-1.43,3.09,-1.50,3.01,-3.01,-2.24,-3.90,-4.44,-4.51,-4.51
271.16,-1.68,2.80,-1.71,2.78,-2.78,-2.15,-3.82,-4.45,-4.49,-4.48
273.87,-1.94,2.53,-1.92,2.54,-2.54,-2.06,-3.73,-4.48,-4.47,-4.47
276.61,-2.19,2.25,-2.12,2.32,-2.32,-1.97,-3.64,-4.51,-4.44,-4.43
279.38,-2.41,2.01,-2.31,2.11,-2.11,-1.88,-3.54,-4.52,-4.42,-4.42
282.17,-2.60,1.80,-2.47,1.92,-1.92,-1.80,-3.44,-4.52,-4.40,-4.40
284.99,-2.76,1.61,-2.62,1.75,-1.75,-1.72,-3.34,-4.51,-4.37,-4.37
287.84,-2.87,1.48,-2.74,1.61,-1.61,-1.64,-3.24,-4.48,-4.34,-4.35
290.72,-2.93,1.39,-2.83,1.49,-1.49,-1.56,-3.13,-4.41,-4.32,-4.31
293.63,-2.97,1.33,-2.90,1.39,-1.39,-1.49,-3.02,-4.36,-4.29,-4.30
296.57,-2.98,1.29,-2.95,1.31,-1.31,-1.41,-2.91,-4.29,-4.26,-4.26
299.53,-2.97,1.27,-2.98,1.25,-1.25,-1.34,-2.80,-4.22,-4.23,-4.24
302.53,-2.96,1.26,-3.00,1.20,-1.20,-1.27,-2.69,-4.16,-4.20,-4.21
305.55,-2.96,1.21,-3.02,1.16,-1.16,-1.20,-2.57,-4.11,-4.17,-4.17
308.61,-2.95,1.19,-3.03,1.11,-1.11,-1.13,-2.46,-4.06,-4.14,-4.14
311.69,-2.97,1.14,-3.04,1.07,-1.07,-1.06,-2.35,-4.04,-4.11,-4.11
314.81,-2.99,1.08,-3.06,1.02,-1.02,-0.99,-2.23,-4.01,-4.08,-4.07
317.96,-3.04,1.01,-3.08,0.96,-0.96,-0.93,-2.12,-4.00,-4.05,-4.04
321.14,-3.09,0.93,-3.12,0.90,-0.90,-0.86,-2.01,-3.99,-4.02,-4.02
324.35,-3.16,0.83,-3.16,0.82,-0.82,-0.80,-1.89,-3.98,-3.99,-3.99
327.59,-3.23,0.73,-3.22,0.74,-0.74,-0.73,-1.78,-3.97,-3.96,-3.95
330.87,-3.30,0.63,-3.28,0.65,-0.65,-0.67,-1.67,-3.95,-3.93,-3.93
334.18,-3.38,0.53,-3.35,0.55,-0.55,-0.60,-1.56,-3.93,-3.91,-3.91
337.52,-3.45,0.44,-3.43,0.45,-0.45,-0.54,-1.45,-3.90,-3.88,-3.88
340.90,-3.53,0.33,-3.51,0.35,-0.35,-0.48,-1.33,-3.88,-3.86,-3.86
344.30,-3.61,0.23,-3.60,0.24,-0.24,-0.41,-1.22,-3.85,-3.84,-3.84
347.75,-3.68,0.13,-3.69,0.13,-0.13,-0.35,-1.11,-3.81,-3.82,-3.81
351.23,-3.75,0.05,-3.78,0.02,-0.02,-0.28,-1.01,-3.77,-3.80,-3.79
354.74,-3.83,-0.05,-3.87,-0.09,0.09,-0.22,-0.90,-3.74,-3.78,-3.78
358.28,-3.94,-0.18,-3.96,-0.20,0.20,-0.15,-0.79,-3.73,-3.76,-3.76
361.87,-4.04,-0.30,-4.05,-0.32,0.32,-0.09,-0.68,-3.72,-3.74,-3.74
365.49,-4.14,-0.42,-4.15,-0.43,0.43,-0.02,-0.57,-3.71,-3.72,-3.71
369.14,-4.24,-0.53,-4.23,-0.53,0.53,0.05,-0.47,-3.71,-3.70,-3.71
372.83,-4.33,-0.64,-4.32,-0.63,0.63,0.12,-0.36,-3.69,-3.68,-3.69
376.56,-4.40,-0.73,-4.39,-0.73,0.73,0.18,-0.26,-3.67,-3.66,-3.67
380.33,-4.49,-0.85,-4.46,-0.82,0.82,0.25,-0.15,-3.67,-3.64,-3.64
384.13,-4.54,-0.91,-4.52,-0.89,0.89,0.32,-0.05,-3.64,-3.63,-3.62
387.97,-4.60,-0.99,-4.57,-0.96,0.96,0.39,0.05,-3.64,-3.61,-3.61
391.85,-4.64,-1.05,-4.60,-1.01,1.01,0.46,0.15,-3.63,-3.58,-3.59
395.77,-4.66,-1.10,-4.62,-1.05,1.05,0.53,0.25,-3.61,-3.56,-3.56
399.73,-4.65,-1.11,-4.62,-1.08,1.08,0.60,0.35,-3.57,-3.54,-3.54
403.72,-4.65,-1.13,-4.61,-1.09,1.09,0.67,0.45,-3.56,-3.52,-3.52
407.76,-4.62,-1.11,-4.59,-1.09,1.09,0.73,0.55,-3.52,-3.50,-3.50
411.84,-4.58,-1.10,-4.57,-1.09,1.09,0.80,0.64,-3.49,-3.48,-3.48
415.96,-4.53,-1.07,-4.54,-1.08,1.08,0.87,0.74,-3.45,-3.46,-3.46
420.12,-4.48,-1.04,-4.50,-1.06,1.06,0.93,0.83,-3.41,-3.44,-3.44
424.32,-4.44,-1.03,-4.46,-1.05,1.05,0.99,0.92,-3.39,-3.41,-3.41
428.56,-4.39,-1.00,-4.42,-1.03,1.03,1.05,1.01,-3.36,-3.39,-3.39
432.85,-4.35,-0.98,-4.38,-1.01,1.01,1.10,1.09,-3.33,-3.37,-3.37
437.18,-4.32,-0.98,-4.34,-1.00,1.00,1.15,1.17,-3.32,-3.34,-3.34
441.55,-4.29,-0.97,-4.31,-0.99,0.99,1.20,1.25,-3.30,-3.32,-3.31
445.96,-4.27,-0.97,-4.28,-0.99,0.99,1.24,1.33,-3.28,-3.29,-3.29
450.42,-4.25,-0.97,-4.25,-0.99,0.99,1.28,1.40,-3.26,-3.27,-3.28
454.93,-4.23,-0.99,-4.23,-0.99,0.99,1.31,1.46,-3.23,-3.24,-3.24
459.48,-4.22,-1.00,-4.22,-1.00,1.00,1.33,1.53,-3.22,-3.21,-3.22
464.07,-4.21,-1.02,-4.20,-1.01,1.01,1.35,1.58,-3.19,-3.19,-3.19
468.71,-4.19,-1.04,-4.18,-1.03,1.03,1.37,1.64,-3.16,-3.16,-3.15
473.40,-4.18,-1.05,-4.17,-1.04,1.04,1.37,1.68,-3.14,-3.13,-3.13
478.13,-4.16,-1.06,-4.16,-1.06,1.06,1.38,1.73,-3.10,-3.10,-3.10
482.91,-4.15,-1.08,-4.14,-1.07,1.07,1.37,1.76,-3.08,-3.07,-3.07
487.74,-4.13,-1.09,-4.13,-1.08,1.08,1.36,1.79,-3.05,-3.04,-3.04
492.62,-4.11,-1.09,-4.11,-1.09,1.09,1.35,1.82,-3.02,-3.02,-3.01
497.55,-4.09,-1.09,-4.09,-1.10,1.10,1.32,1.84,-2.99,-2.99,-2.99
