frequency,raw,error,smoothed,error_smoothed,equalization,parametric_eq,fixed_band_eq,equalized_raw,equalized_smoothed,target
20.00,-7.83,-7.82,-7.84,-7.85,7.85,5.94,0.97,0.01,0.01,-0.02
20.20,-7.63,-7.71,-7.63,-7.72,7.72,6.03,1.00,0.08,0.09,0.07
20.40,-7.42,-7.57,-7.42,-7.58,7.58,6.11,1.03,0.16,0.16,0.15
20.61,-7.23,-7.45,-7.22,-7.45,7.45,6.18,1.06,0.22,0.23,0.22
20.81,-7.01,-7.32,-7.01,-7.31,7.31,6.23,1.09,0.30,0.30,0.31
21.02,-6.81,-7.20,-6.81,-7.17,7.17,6.26,1.13,0.36,0.36,0.39
21.23,-6.60,-7.05,-6.60,-7.03,7.03,6.28,1.16,0.43,0.43,0.45
21.44,-6.40,-6.91,-6.40,-6.89,6.89,6.27,1.20,0.49,0.49,0.51
21.66,-6.19,-6.75,-6.19,-6.74,6.74,6.25,1.24,0.54,0.55,0.56
21.87,-5.99,-6.60,-5.99,-6.59,6.59,6.21,1.27,0.60,0.60,0.61
22.09,-5.78,-6.44,-5.78,-6.44,6.44,6.15,1.31,0.66,0.65,0.66
22.31,-5.58,-6.29,-5.58,-6.28,6.28,6.08,1.35,0.70,0.70,0.71
22.54,-5.38,-6.12,-5.37,-6.12,6.12,5.99,1.40,0.75,0.75,0.75
22.76,-5.17,-5.96,-5.17,-5.96,5.96,5.88,1.44,0.79,0.79,0.79
22.99,-4.96,-5.78,-4.96,-5.79,5.79,5.76,1.48,0.83,0.83,0.82
23.22,-4.76,-5.62,-4.76,-5.63,5.63,5.62,1.53,0.86,0.87,0.85
23.45,-4.55,-5.45,-4.55,-5.46,5.46,5.48,1.57,0.91,0.90,0.89
23.69,-4.36,-5.29,-4.35,-5.29,5.29,5.32,1.62,0.94,0.94,0.93
23.92,-4.15,-5.12,-4.15,-5.12,5.12,5.16,1.66,0.97,0.98,0.97
24.16,-3.94,-4.96,-3.94,-4.96,4.96,4.98,1.71,1.02,1.01,1.02
24.40,-3.74,-4.79,-3.74,-4.79,4.79,4.81,1.76,1.05,1.04,1.05
24.65,-3.54,-4.62,-3.54,-4.62,4.62,4.62,1.81,1.08,1.08,1.08
24.89,-3.34,-4.45,-3.34,-4.45,4.45,4.44,1.86,1.11,1.11,1.11
25.14,-3.14,-4.29,-3.14,-4.28,4.28,4.25,1.90,1.15,1.15,1.15
25.39,-2.94,-4.12,-2.94,-4.12,4.12,4.06,1.95,1.18,1.18,1.18
25.65,-2.74,-3.96,-2.74,-3.95,3.95,3.87,2.00,1.21,1.21,1.22
25.91,-2.55,-3.78,-2.54,-3.79,3.79,3.68,2.05,1.24,1.24,1.23
26.16,-2.35,-3.61,-2.35,-3.62,3.62,3.49,2.10,1.27,1.27,1.26
26.43,-2.16,-3.46,-2.15,-3.45,3.45,3.31,2.14,1.30,1.30,1.30
26.69,-1.96,-3.29,-1.96,-3.29,3.29,3.12,2.19,1.33,1.33,1.33
26.96,-1.76,-3.12,-1.77,-3.13,3.13,2.94,2.23,1.36,1.36,1.36
27.23,-1.57,-2.97,-1.57,-2.96,2.96,2.75,2.27,1.39,1.39,1.40
27.50,-1.38,-2.81,-1.38,-2.80,2.80,2.58,2.31,1.42,1.42,1.43
27.77,-1.19,-2.64,-1.19,-2.64,2.64,2.40,2.34,1.45,1.45,1.45
28.05,-1.01,-2.50,-1.01,-2.49,2.49,2.23,2.37,1.47,1.48,1.48
28.33,-0.82,-2.32,-0.82,-2.33,2.33,2.06,2.40,1.51,1.51,1.50
28.62,-0.65,-2.18,-0.64,-2.17,2.17,1.89,2.43,1.53,1.54,1.53
28.90,-0.45,-2.02,-0.46,-2.02,2.02,1.73,2.45,1.57,1.57,1.57
29.19,-0.27,-1.86,-0.28,-1.87,1.87,1.57,2.46,1.60,1.60,1.59
29.48,-0.10,-1.74,-0.10,-1.73,1.73,1.42,2.47,1.63,1.62,1.64
29.78,0.08,-1.58,0.07,-1.58,1.58,1.27,2.48,1.66,1.65,1.65
30.08,0.24,-1.44,0.24,-1.44,1.44,1.12,2.48,1.69,1.68,1.68
30.38,0.41,-1.30,0.40,-1.30,1.30,0.98,2.48,1.71,1.71,1.71
30.68,0.57,-1.17,0.56,-1.17,1.17,0.84,2.47,1.74,1.73,1.74
30.99,0.73,-1.03,0.72,-1.04,1.04,0.70,2.45,1.76,1.76,1.75
31.30,0.88,-0.91,0.88,-0.91,0.91,0.57,2.43,1.78,1.78,1.78
31.61,1.03,-0.78,1.03,-0.78,0.78,0.44,2.40,1.81,1.81,1.81
31.93,1.18,-0.65,1.18,-0.65,0.65,0.31,2.36,1.83,1.83,1.83
32.24,1.33,-0.52,1.33,-0.53,0.53,0.19,2.32,1.86,1.85,1.84
32.57,1.47,-0.40,1.47,-0.40,0.40,0.07,2.28,1.87,1.87,1.87
32.89,1.61,-0.29,1.62,-0.28,0.28,-0.05,2.22,1.89,1.89,1.90
33.22,1.75,-0.17,1.76,-0.16,0.16,-0.16,2.17,1.90,1.91,1.92
33.55,1.89,-0.04,1.89,-0.03,0.03,-0.27,2.10,1.92,1.93,1.93
33.89,2.03,0.09,2.03,0.09,-0.09,-0.38,2.04,1.94,1.94,1.94
34.23,2.17,0.20,2.16,0.21,-0.21,-0.49,1.96,1.96,1.96,1.97
34.57,2.30,0.33,2.30,0.33,-0.33,-0.59,1.89,1.97,1.97,1.97
34.92,2.44,0.46,2.43,0.45,-0.45,-0.69,1.81,1.99,1.98,1.98
35.27,2.56,0.56,2.55,0.56,-0.56,-0.78,1.72,1.99,1.99,1.99
35.62,2.68,0.69,2.68,0.68,-0.68,-0.88,1.63,2.00,2.00,1.99
35.97,2.80,0.80,2.80,0.80,-0.80,-0.97,1.54,2.00,2.00,2.00
36.33,2.92,0.91,2.92,0.91,-0.91,-1.06,1.45,2.01,2.00,2.01
36.70,3.03,1.02,3.03,1.03,-1.03,-1.14,1.35,2.00,2.01,2.01
37.06,3.15,1.15,3.15,1.14,-1.14,-1.23,1.25,2.01,2.01,2.00
37.43,3.26,1.25,3.26,1.25,-1.25,-1.31,1.15,2.01,2.01,2.01
37.81,3.37,1.36,3.36,1.36,-1.36,-1.39,1.05,2.01,2.00,2.00
38.19,3.47,1.47,3.47,1.47,-1.47,-1.46,0.95,2.00,2.00,2.00
38.57,3.57,1.56,3.57,1.57,-1.57,-1.54,0.84,1.99,2.00,2.00
38.95,3.67,1.67,3.67,1.68,-1.68,-1.61,0.74,1.99,1.99,2.00
39.34,3.77,1.79,3.77,1.78,-1.78,-1.68,0.63,1.99,1.99,1.98
39.74,3.87,1.89,3.87,1.89,-1.89,-1.75,0.52,1.98,1.98,1.98
40.14,3.96,1.99,3.96,1.99,-1.99,-1.82,0.41,1.97,1.97,1.97
40.54,4.05,2.08,4.06,2.09,-2.09,-1.89,0.30,1.96,1.97,1.96
40.94,4.15,2.19,4.15,2.19,-2.19,-1.95,0.19,1.96,1.96,1.96
41.35,4.23,2.28,4.24,2.29,-2.29,-2.01,0.08,1.94,1.95,1.95
41.76,4.32,2.38,4.32,2.38,-2.38,-2.07,-0.03,1.94,1.94,1.94
42.18,4.41,2.47,4.40,2.48,-2.48,-2.13,-0.14,1.93,1.93,1.93
42.60,4.49,2.57,4.48,2.57,-2.57,-2.19,-0.26,1.92,1.92,1.92
43.03,4.57,2.65,4.56,2.66,-2.66,-2.25,-0.37,1.91,1.90,1.92
43.46,4.64,2.74,4.64,2.74,-2.74,-2.30,-0.48,1.90,1.89,1.90
43.90,4.71,2.83,4.71,2.82,-2.82,-2.36,-0.60,1.88,1.88,1.88
44.33,4.78,2.92,4.77,2.90,-2.90,-2.41,-0.71,1.88,1.87,1.86
44.78,4.84,2.98,4.84,2.98,-2.98,-2.46,-0.83,1.86,1.86,1.85
45.23,4.90,3.06,4.90,3.05,-3.05,-2.51,-0.94,1.85,1.85,1.83
45.68,4.95,3.12,4.95,3.12,-3.12,-2.56,-1.06,1.83,1.83,1.82
46.13,5.00,3.18,5.01,3.19,-3.19,-2.60,-1.17,1.81,1.82,1.81
46.60,5.05,3.24,5.05,3.24,-3.24,-2.65,-1.29,1.80,1.81,1.81
47.06,5.10,3.30,5.10,3.30,-3.30,-2.70,-1.41,1.80,1.80,1.80
47.53,5.14,3.35,5.14,3.35,-3.35,-2.74,-1.52,1.79,1.79,1.79
48.01,5.18,3.39,5.17,3.40,-3.40,-2.78,-1.64,1.78,1.78,1.79
48.49,5.21,3.43,5.21,3.44,-3.44,-2.82,-1.76,1.77,1.77,1.77
48.97,5.24,3.48,5.23,3.48,-3.48,-2.87,-1.87,1.76,1.76,1.76
49.46,5.26,3.52,5.26,3.51,-3.51,-2.91,-1.99,1.75,1.75,1.74
49.96,5.28,3.55,5.28,3.53,-3.53,-2.94,-2.11,1.75,1.75,1.72
50.46,5.29,3.56,5.29,3.55,-3.55,-2.98,-2.23,1.74,1.74,1.73
50.96,5.30,3.56,5.30,3.57,-3.57,-3.02,-2.34,1.73,1.73,1.74
51.47,5.30,3.58,5.30,3.58,-3.58,-3.06,-2.46,1.72,1.73,1.72
51.99,5.31,3.59,5.30,3.58,-3.58,-3.09,-2.58,1.73,1.72,1.71
52.51,5.29,3.57,5.29,3.58,-3.58,-3.13,-2.69,1.71,1.71,1.72
53.03,5.28,3.57,5.27,3.57,-3.57,-3.16,-2.80,1.71,1.70,1.71
53.56,5.26,3.55,5.25,3.56,-3.56,-3.19,-2.91,1.70,1.69,1.70
54.10,5.23,3.53,5.22,3.54,-3.54,-3.23,-3.02,1.69,1.69,1.69
54.64,5.20,3.52,5.19,3.51,-3.51,-3.26,-3.13,1.69,1.67,1.68
55.18,5.16,3.49,5.15,3.48,-3.48,-3.29,-3.24,1.68,1.66,1.67
55.74,5.11,3.46,5.10,3.45,-3.45,-3.32,-3.34,1.66,1.65,1.65
56.29,5.06,3.42,5.05,3.41,-3.41,-3.35,-3.44,1.64,1.64,1.64
56.86,5.00,3.38,5.00,3.38,-3.38,-3.38,-3.53,1.62,1.62,1.61
57.42,4.94,3.35,4.94,3.34,-3.34,-3.41,-3.63,1.60,1.60,1.59
58.00,4.88,3.30,4.88,3.30,-3.30,-3.44,-3.71,1.58,1.58,1.58
58.58,4.82,3.26,4.82,3.26,-3.26,-3.47,-3.80,1.55,1.55,1.55
59.16,4.76,3.22,4.76,3.23,-3.23,-3.49,-3.87,1.53,1.53,1.54
59.76,4.70,3.18,4.70,3.20,-3.20,-3.52,-3.95,1.50,1.50,1.52
60.35,4.64,3.16,4.64,3.17,-3.17,-3.55,-4.02,1.47,1.47,1.48
60.96,4.58,3.12,4.59,3.14,-3.14,-3.57,-4.08,1.43,1.44,1.46
61.57,4.53,3.11,4.54,3.12,-3.12,-3.60,-4.13,1.41,1.42,1.42
62.18,4.49,3.11,4.49,3.11,-3.11,-3.62,-4.19,1.38,1.39,1.38
62.80,4.45,3.09,4.46,3.10,-3.10,-3.65,-4.23,1.35,1.36,1.36
63.43,4.42,3.10,4.42,3.09,-3.09,-3.67,-4.27,1.33,1.33,1.32
64.07,4.40,3.10,4.40,3.09,-3.09,-3.70,-4.30,1.31,1.31,1.30
64.71,4.38,3.10,4.38,3.10,-3.10,-3.72,-4.33,1.28,1.28,1.27
65.35,4.37,3.12,4.37,3.11,-3.11,-3.74,-4.36,1.26,1.26,1.25
66.01,4.36,3.12,4.37,3.13,-3.13,-3.77,-4.37,1.23,1.24,1.24
66.67,4.37,3.14,4.37,3.15,-3.15,-3.79,-4.39,1.22,1.22,1.22
67.33,4.38,3.17,4.39,3.18,-3.18,-3.81,-4.40,1.20,1.21,1.21
68.01,4.39,3.20,4.41,3.22,-3.22,-3.83,-4.40,1.17,1.19,1.19
68.69,4.42,3.24,4.44,3.26,-3.26,-3.86,-4.41,1.16,1.18,1.17
69.37,4.46,3.29,4.47,3.31,-3.31,-3.88,-4.41,1.15,1.16,1.17
70.07,4.50,3.35,4.51,3.36,-3.36,-3.90,-4.40,1.14,1.15,1.15
70.77,4.55,3.40,4.55,3.42,-3.42,-3.92,-4.40,1.13,1.13,1.15
71.48,4.60,3.47,4.60,3.48,-3.48,-3.94,-4.39,1.12,1.12,1.13
72.19,4.65,3.54,4.65,3.54,-3.54,-3.96,-4.38,1.10,1.10,1.10
72.91,4.69,3.60,4.69,3.61,-3.61,-3.98,-4.37,1.08,1.08,1.09
73.64,4.75,3.68,4.74,3.67,-3.67,-4.00,-4.36,1.08,1.06,1.07
74.38,4.79,3.74,4.78,3.73,-3.73,-4.02,-4.36,1.05,1.05,1.05
75.12,4.84,3.81,4.82,3.79,-3.79,-4.04,-4.35,1.04,1.03,1.02
75.87,4.87,3.86,4.85,3.85,-3.85,-4.06,-4.34,1.02,1.01,1.01
76.63,4.90,3.91,4.88,3.89,-3.89,-4.08,-4.33,1.00,0.98,0.99
77.40,4.92,3.96,4.90,3.94,-3.94,-4.10,-4.33,0.98,0.96,0.96
78.17,4.93,4.00,4.91,3.97,-3.97,-4.12,-4.32,0.96,0.94,0.93
78.95,4.93,4.00,4.92,3.99,-3.99,-4.14,-4.32,0.94,0.93,0.93
79.74,4.92,4.01,4.92,4.01,-4.01,-4.16,-4.32,0.91,0.91,0.91
80.54,4.91,4.02,4.91,4.01,-4.01,-4.18,-4.32,0.89,0.89,0.88
81.35,4.90,4.03,4.89,4.01,-4.01,-4.20,-4.33,0.88,0.88,0.87
82.16,4.89,4.03,4.87,4.01,-4.01,-4.22,-4.34,0.88,0.86,0.86
82.98,4.86,4.01,4.85,3.99,-3.99,-4.24,-4.35,0.86,0.85,0.85
83.81,4.83,3.99,4.82,3.98,-3.98,-4.26,-4.36,0.85,0.84,0.83
84.65,4.79,3.97,4.79,3.96,-3.96,-4.28,-4.38,0.83,0.83,0.82
85.50,4.76,3.94,4.76,3.94,-3.94,-4.30,-4.40,0.82,0.82,0.82
86.35,4.72,3.91,4.73,3.93,-3.93,-4.32,-4.42,0.79,0.81,0.81
87.22,4.69,3.90,4.71,3.91,-3.91,-4.34,-4.45,0.77,0.79,0.79
88.09,4.67,3.89,4.68,3.91,-3.91,-4.36,-4.48,0.76,0.78,0.78
88.97,4.65,3.88,4.66,3.90,-3.90,-4.38,-4.52,0.74,0.76,0.77
89.86,4.63,3.88,4.65,3.91,-3.91,-4.40,-4.55,0.72,0.74,0.75
90.76,4.62,3.90,4.63,3.92,-3.92,-4.42,-4.59,0.70,0.71,0.71
91.66,4.61,3.92,4.62,3.94,-3.94,-4.44,-4.64,0.67,0.68,0.69
92.58,4.61,3.96,4.62,3.97,-3.97,-4.46,-4.69,0.64,0.65,0.65
93.51,4.62,3.99,4.62,4.01,-4.01,-4.48,-4.74,0.61,0.61,0.62
94.44,4.63,4.05,4.62,4.05,-4.05,-4.50,-4.79,0.58,0.57,0.58
95.39,4.63,4.10,4.62,4.10,-4.10,-4.52,-4.85,0.53,0.52,0.53
96.34,4.64,4.16,4.62,4.16,-4.16,-4.54,-4.91,0.48,0.47,0.48
97.30,4.64,4.23,4.63,4.22,-4.22,-4.56,-4.97,0.42,0.41,0.41
98.28,4.64,4.28,4.63,4.28,-4.28,-4.59,-5.04,0.36,0.35,0.35
99.26,4.64,4.35,4.63,4.35,-4.35,-4.61,-5.11,0.29,0.29,0.29
100.25,4.64,4.42,4.64,4.41,-4.41,-4.63,-5.18,0.22,0.22,0.22
101.25,4.64,4.48,4.64,4.48,-4.48,-4.66,-5.25,0.16,0.16,0.15
102.27,4.64,4.55,4.64,4.55,-4.55,-4.68,-5.32,0.08,0.09,0.09
103.29,4.64,4.63,4.64,4.62,-4.62,-4.70,-5.40,0.02,0.02,0.01
104.32,4.64,4.69,4.64,4.69,-4.69,-4.73,-5.48,-0.05,-0.05,-0.05
105.37,4.64,4.77,4.64,4.76,-4.76,-4.75,-5.55,-0.12,-0.12,-0.13
106.42,4.64,4.83,4.64,4.83,-4.83,-4.78,-5.63,-0.19,-0.19,-0.20
107.48,4.64,4.90,4.64,4.90,-4.90,-4.80,-5.71,-0.26,-0.26,-0.26
108.56,4.64,4.97,4.64,4.96,-4.96,-4.83,-5.78,-0.33,-0.33,-0.33
109.64,4.64,5.04,4.64,5.03,-5.03,-4.86,-5.86,-0.39,-0.39,-0.40
110.74,4.64,5.09,4.64,5.10,-5.10,-4.88,-5.93,-0.46,-0.46,-0.46
111.85,4.64,5.15,4.64,5.16,-5.16,-4.91,-6.00,-0.52,-0.52,-0.51
112.97,4.64,5.23,4.64,5.23,-5.23,-4.94,-6.06,-0.59,-0.58,-0.59
114.10,4.64,5.27,4.65,5.29,-5.29,-4.97,-6.12,-0.65,-0.64,-0.64
115.24,4.64,5.34,4.65,5.34,-5.34,-5.00,-6.18,-0.71,-0.69,-0.70
116.39,4.64,5.40,4.65,5.40,-5.40,-5.03,-6.23,-0.76,-0.75,-0.76
117.55,4.64,5.44,4.65,5.45,-5.45,-5.06,-6.27,-0.81,-0.80,-0.80
118.73,4.65,5.51,4.65,5.50,-5.50,-5.09,-6.31,-0.85,-0.85,-0.86
119.92,4.66,5.55,4.65,5.54,-5.54,-5.13,-6.35,-0.88,-0.89,-0.89
121.12,4.66,5.59,4.64,5.58,-5.58,-5.16,-6.37,-0.92,-0.94,-0.94
122.33,4.66,5.64,4.63,5.61,-5.61,-5.19,-6.39,-0.95,-0.98,-0.98
123.55,4.65,5.66,4.62,5.64,-5.64,-5.23,-6.40,-0.99,-1.02,-1.01
124.79,4.62,5.67,4.60,5.66,-5.66,-5.26,-6.40,-1.04,-1.06,-1.06
126.03,4.60,5.68,4.58,5.68,-5.68,-5.30,-6.39,-1.08,-1.09,-1.09
127.29,4.58,5.70,4.56,5.70,-5.70,-5.34,-6.37,-1.12,-1.13,-1.13
128.57,4.55,5.72,4.54,5.71,-5.71,-5.38,-6.35,-1.16,-1.17,-1.18
129.85,4.51,5.71,4.51,5.72,-5.72,-5.41,-6.32,-1.21,-1.21,-1.21
131.15,4.47,5.71,4.48,5.73,-5.73,-5.45,-6.28,-1.26,-1.25,-1.24
132.46,4.45,5.74,4.45,5.74,-5.74,-5.49,-6.23,-1.29,-1.29,-1.29
133.79,4.41,5.73,4.43,5.75,-5.75,-5.53,-6.18,-1.35,-1.33,-1.32
135.12,4.38,5.74,4.40,5.77,-5.77,-5.57,-6.12,-1.39,-1.37,-1.36
136.48,4.36,5.76,4.38,5.78,-5.78,-5.61,-6.05,-1.43,-1.41,-1.40
137.84,4.34,5.78,4.36,5.80,-5.80,-5.65,-5.98,-1.46,-1.45,-1.44
139.22,4.33,5.82,4.33,5.82,-5.82,-5.70,-5.90,-1.49,-1.49,-1.50
140.61,4.32,5.86,4.32,5.85,-5.85,-5.74,-5.83,-1.53,-1.53,-1.54
142.02,4.30,5.87,4.30,5.87,-5.87,-5.78,-5.74,-1.57,-1.57,-1.57
143.44,4.29,5.90,4.28,5.89,-5.89,-5.82,-5.66,-1.61,-1.62,-1.61
144.87,4.27,5.93,4.26,5.92,-5.92,-5.86,-5.57,-1.65,-1.66,-1.66
146.32,4.26,5.97,4.24,5.94,-5.94,-5.91,-5.48,-1.69,-1.70,-1.71
147.78,4.23,5.97,4.22,5.97,-5.97,-5.95,-5.39,-1.74,-1.75,-1.75
149.26,4.20,5.99,4.19,5.99,-5.99,-5.99,-5.31,-1.79,-1.80,-1.79
150.75,4.17,6.01,4.17,6.01,-6.01,-6.03,-5.22,-1.84,-1.84,-1.85
152.26,4.15,6.04,4.14,6.03,-6.03,-6.06,-5.13,-1.88,-1.89,-1.89
153.78,4.12,6.05,4.11,6.05,-6.05,-6.10,-5.04,-1.93,-1.94,-1.93
155.32,4.09,6.07,4.08,6.07,-6.07,-6.14,-4.95,-1.98,-1.99,-1.99
156.88,4.04,6.07,4.04,6.08,-6.08,-6.17,-4.87,-2.05,-2.04,-2.03
158.44,4.01,6.10,4.01,6.10,-6.10,-6.20,-4.78,-2.09,-2.09,-2.09
160.03,3.96,6.10,3.98,6.12,-6.12,-6.23,-4.70,-2.16,-2.14,-2.14
161.63,3.93,6.13,3.94,6.13,-6.13,-6.26,-4.62,-2.21,-2.19,-2.20
163.24,3.90,6.14,3.91,6.15,-6.15,-6.28,-4.54,-2.25,-2.24,-2.24
164.88,3.86,6.15,3.88,6.17,-6.17,-6.30,-4.47,-2.31,-2.29,-2.29
166.53,3.84,6.18,3.84,6.18,-6.18,-6.32,-4.40,-2.34,-2.34,-2.34
168.19,3.83,6.21,3.81,6.19,-6.19,-6.33,-4.33,-2.36,-2.38,-2.38
169.87,3.79,6.21,3.77,6.20,-6.20,-6.34,-4.26,-2.41,-2.43,-2.43
171.57,3.75,6.22,3.74,6.21,-6.21,-6.35,-4.20,-2.46,-2.47,-2.47
173.29,3.71,6.22,3.70,6.21,-6.21,-6.35,-4.14,-2.51,-2.51,-2.51
175.02,3.67,6.22,3.66,6.22,-6.22,-6.34,-4.08,-2.55,-2.55,-2.55
176.77,3.63,6.22,3.62,6.21,-6.21,-6.33,-4.03,-2.59,-2.59,-2.59
178.54,3.58,6.21,3.58,6.20,-6.20,-6.32,-3.98,-2.63,-2.62,-2.63
180.32,3.54,6.20,3.54,6.19,-6.19,-6.30,-3.93,-2.65,-2.65,-2.66
182.13,3.49,6.18,3.49,6.17,-6.17,-6.28,-3.88,-2.69,-2.68,-2.69
183.95,3.43,6.14,3.44,6.15,-6.15,-6.25,-3.84,-2.72,-2.71,-2.72
185.79,3.39,6.13,3.39,6.12,-6.12,-6.22,-3.80,-2.74,-2.74,-2.74
187.65,3.34,6.10,3.33,6.09,-6.09,-6.18,-3.77,-2.76,-2.76,-2.77
189.52,3.28,6.06,3.28,6.06,-6.06,-6.14,-3.73,-2.78,-2.78,-2.78
191.42,3.23,6.03,3.22,6.03,-6.03,-6.09,-3.70,-2.80,-2.80,-2.80
193.33,3.16,5.98,3.16,5.99,-5.99,-6.04,-3.68,-2.83,-2.82,-2.82
195.27,3.10,5.93,3.10,5.95,-5.95,-5.98,-3.65,-2.85,-2.84,-2.83
197.22,3.03,5.88,3.04,5.90,-5.90,-5.92,-3.63,-2.87,-2.86,-2.85
199.19,2.97,5.85,2.98,5.85,-5.85,-5.85,-3.61,-2.88,-2.87,-2.88
201.18,2.91,5.80,2.91,5.80,-5.80,-5.78,-3.59,-2.89,-2.89,-2.89
203.19,2.84,5.74,2.84,5.74,-5.74,-5.71,-3.57,-2.90,-2.91,-2.90
205.23,2.77,5.69,2.76,5.69,-5.69,-5.63,-3.56,-2.92,-2.92,-2.92
207.28,2.69,5.62,2.69,5.62,-5.62,-5.55,-3.54,-2.94,-2.94,-2.93
209.35,2.61,5.56,2.60,5.56,-5.56,-5.46,-3.53,-2.95,-2.95,-2.95
211.44,2.53,5.50,2.52,5.49,-5.49,-5.38,-3.52,-2.96,-2.97,-2.98
213.56,2.44,5.42,2.43,5.41,-5.41,-5.29,-3.51,-2.98,-2.98,-2.98
215.69,2.34,5.33,2.34,5.33,-5.33,-5.19,-3.51,-3.00,-3.00,-2.99
217.85,2.21,5.22,2.23,5.25,-5.25,-5.09,-3.50,-3.04,-3.01,-3.01
220.03,2.13,5.16,2.13,5.15,-5.15,-4.99,-3.49,-3.03,-3.03,-3.03
222.23,2.03,5.08,2.02,5.06,-5.06,-4.89,-3.49,-3.03,-3.04,-3.05
224.45,1.92,4.98,1.90,4.96,-4.96,-4.78,-3.48,-3.04,-3.06,-3.06
226.70,1.79,4.86,1.77,4.85,-4.85,-4.67,-3.47,-3.06,-3.08,-3.07
228.96,1.63,4.71,1.64,4.74,-4.74,-4.56,-3.46,-3.11,-3.09,-3.08
231.25,1.52,4.61,1.50,4.61,-4.61,-4.45,-3.46,-3.10,-3.11,-3.10
233.57,1.37,4.49,1.36,4.49,-4.49,-4.33,-3.45,-3.12,-3.13,-3.12
235.90,1.19,4.33,1.21,4.35,-4.35,-4.21,-3.44,-3.16,-3.14,-3.14
238.26,1.06,4.22,1.05,4.21,-4.21,-4.08,-3.43,-3.15,-3.16,-3.16
240.64,0.89,4.07,0.89,4.07,-4.07,-3.95,-3.42,-3.18,-3.18,-3.18
243.05,0.75,3.94,0.72,3.91,-3.91,-3.82,-3.40,-3.16,-3.19,-3.19
245.48,0.57,3.77,0.55,3.75,-3.75,-3.68,-3.39,-3.18,-3.20,-3.20
247.93,0.37,3.58,0.37,3.58,-3.58,-3.55,-3.37,-3.21,-3.21,-3.21
250.41,0.20,3.43,0.19,3.41,-3.41,-3.40,-3.35,-3.21,-3.22,-3.23
252.92,-0.02,3.20,0.01,3.23,-3.23,-3.25,-3.33,-3.25,-3.22,-3.22
255.45,-0.18,3.04,-0.18,3.04,-3.04,-3.10,-3.31,-3.22,-3.22,-3.22
258.00,-0.33,2.89,-0.36,2.85,-2.85,-2.94,-3.28,-3.19,-3.22,-3.22
260.58,-0.54,2.68,-0.55,2.66,-2.66,-2.78,-3.26,-3.20,-3.21,-3.22
263.19,-0.72,2.48,-0.74,2.47,-2.47,-2.62,-3.23,-3.19,-3.20,-3.21
265.82,-0.94,2.26,-0.93,2.27,-2.27,-2.45,-3.20,-3.21,-3.20,-3.20
268.48,-1.11,2.07,-1.11,2.07,-2.07,-2.28,-3.17,-3.18,-3.18,-3.18
271.16,-1.27,1.89,-1.30,1.88,-1.88,-2.10,-3.14,-3.15,-3.17,-3.17
273.87,-1.48,1.67,-1.47,1.69,-1.69,-1.92,-3.11,-3.17,-3.16,-3.15
276.61,-1.64,1.49,-1.64,1.51,-1.51,-1.74,-3.07,-3.15,-3.14,-3.13
279.38,-1.80,1.32,-1.80,1.33,-1.33,-1.55,-3.04,-3.13,-3.13,-3.13
282.17,-1.96,1.15,-1.96,1.16,-1.16,-1.37,-3.00,-3.12,-3.12,-3.11
284.99,-2.09,1.01,-2.10,1.00,-1.00,-1.19,-2.97,-3.09,-3.10,-3.10
287.84,-2.26,0.82,-2.24,0.84,-0.84,-1.00,-2.93,-3.11,-3.08,-3.08
290.72,-2.38,0.68,-2.36,0.71,-0.71,-0.83,-2.90,-3.09,-3.07,-3.06
293.63,-2.48,0.57,-2.47,0.58,-0.58,-0.66,-2.86,-3.06,-3.05,-3.06
296.57,-2.57,0.46,-2.56,0.47,-0.47,-0.49,-2.82,-3.04,-3.03,-3.03
299.53,-2.65,0.36,-2.65,0.36,-0.36,-0.34,-2.79,-3.02,-3.01,-3.01
302.53,-2.72,0.29,-2.72,0.27,-0.27,-0.20,-2.76,-3.00,-2.99,-3.01
305.55,-2.79,0.18,-2.77,0.20,-0.20,-0.08,-2.72,-2.99,-2.97,-2.97
308.61,-2.83,0.13,-2.81,0.14,-0.14,0.02,-2.69,-2.97,-2.95,-2.96
311.69,-2.84,0.09,-2.84,0.09,-0.09,0.11,-2.66,-2.93,-2.93,-2.93
314.81,-2.85,0.04,-2.86,0.05,-0.05,0.17,-2.63,-2.90,-2.91,-2.90
317.96,-2.86,0.02,-2.86,0.03,-0.03,0.21,-2.60,-2.89,-2.89,-2.88
321.14,-2.85,0.01,-2.85,0.01,-0.01,0.23,-2.57,-2.87,-2.87,-2.86
324.35,-2.83,0.02,-2.84,0.01,-0.01,0.22,-2.55,-2.84,-2.85,-2.85
327.59,-2.80,0.02,-2.81,0.02,-0.02,0.20,-2.52,-2.82,-2.82,-2.82
330.87,-2.76,0.04,-2.77,0.03,-0.03,0.15,-2.50,-2.79,-2.80,-2.80
334.18,-2.70,0.08,-2.71,0.06,-0.06,0.08,-2.48,-2.76,-2.78,-2.78
337.52,-2.64,0.12,-2.65,0.10,-0.10,-0.00,-2.46,-2.74,-2.75,-2.76
340.90,-2.59,0.14,-2.58,0.15,-0.15,-0.10,-2.44,-2.74,-2.73,-2.73
344.30,-2.52,0.18,-2.50,0.21,-0.21,-0.20,-2.42,-2.73,-2.71,-2.71
347.75,-2.43,0.26,-2.41,0.27,-0.27,-0.32,-2.41,-2.70,-2.69,-2.69
351.23,-2.33,0.33,-2.31,0.35,-0.35,-0.44,-2.40,-2.68,-2.66,-2.66
354.74,-2.22,0.41,-2.21,0.43,-0.43,-0.57,-2.39,-2.65,-2.64,-2.63
358.28,-2.10,0.51,-2.10,0.52,-0.52,-0.69,-2.38,-2.62,-2.61,-2.62
361.87,-1.98,0.61,-1.98,0.61,-0.61,-0.82,-2.37,-2.59,-2.59,-2.59
365.49,-1.84,0.72,-1.85,0.71,-0.71,-0.95,-2.36,-2.55,-2.57,-2.56
369.14,-1.72,0.83,-1.73,0.82,-0.82,-1.07,-2.36,-2.54,-2.54,-2.55
372.83,-1.60,0.92,-1.60,0.92,-0.92,-1.20,-2.36,-2.53,-2.52,-2.53
376.56,-1.45,1.05,-1.47,1.03,-1.03,-1.32,-2.36,-2.49,-2.50,-2.51
380.33,-1.31,1.16,-1.33,1.15,-1.15,-1.43,-2.36,-2.46,-2.48,-2.47
384.13,-1.19,1.27,-1.20,1.26,-1.26,-1.54,-2.36,-2.45,-2.46,-2.46
387.97,-1.07,1.37,-1.07,1.37,-1.37,-1.64,-2.37,-2.45,-2.44,-2.44
391.85,-0.94,1.49,-0.94,1.49,-1.49,-1.74,-2.37,-2.43,-2.43,-2.43
395.77,-0.81,1.59,-0.82,1.60,-1.60,-1.84,-2.38,-2.41,-2.42,-2.41
399.73,-0.69,1.71,-0.70,1.71,-1.71,-1.93,-2.39,-2.40,-2.41,-2.40
403.72,-0.58,1.82,-0.58,1.82,-1.82,-2.02,-2.40,-2.40,-2.40,-2.40
407.76,-0.47,1.92,-0.47,1.92,-1.92,-2.10,-2.41,-2.39,-2.39,-2.39
411.84,-0.36,2.02,-0.36,2.02,-2.02,-2.17,-2.42,-2.39,-2.39,-2.38
415.96,-0.26,2.12,-0.26,2.12,-2.12,-2.24,-2.43,-2.39,-2.39,-2.38
420.12,-0.15,2.23,-0.16,2.22,-2.22,-2.31,-2.44,-2.37,-2.39,-2.38
424.32,-0.05,2.33,-0.07,2.32,-2.32,-2.37,-2.46,-2.37,-2.39,-2.39
428.56,0.02,2.40,0.02,2.41,-2.41,-2.43,-2.47,-2.39,-2.39,-2.39
432.85,0.10,2.50,0.10,2.49,-2.49,-2.49,-2.48,-2.40,-2.39,-2.40
437.18,0.18,2.58,0.18,2.57,-2.57,-2.54,-2.50,-2.40,-2.40,-2.40
441.55,0.24,2.64,0.25,2.65,-2.65,-2.58,-2.51,-2.41,-2.40,-2.40
445.96,0.31,2.72,0.31,2.72,-2.72,-2.63,-2.53,-2.41,-2.40,-2.41
450.42,0.38,2.79,0.37,2.78,-2.78,-2.67,-2.54,-2.40,-2.41,-2.41
454.93,0.43,2.84,0.42,2.83,-2.83,-2.71,-2.55,-2.41,-2.41,-2.41
459.48,0.49,2.91,0.47,2.89,-2.89,-2.74,-2.57,-2.40,-2.41,-2.42
464.07,0.54,2.95,0.52,2.93,-2.93,-2.78,-2.58,-2.39,-2.42,-2.41
468.71,0.57,2.98,0.56,2.97,-2.97,-2.81,-2.59,-2.41,-2.42,-2.42
473.40,0.61,3.02,0.60,3.01,-3.01,-2.84,-2.60,-2.41,-2.42,-2.42
478.13,0.63,3.03,0.64,3.05,-3.05,-2.86,-2.61,-2.42,-2.41,-2.41
482.91,0.66,3.08,0.67,3.09,-3.09,-2.89,-2.61,-2.43,-2.41,-2.42
487.74,0.68,3.09,0.71,3.12,-3.12,-2.91,-2.62,-2.44,-2.41,-2.41
492.62,0.72,3.12,0.74,3.15,-3.15,-2.93,-2.62,-2.43,-2.41,-2.40
497.55,0.76,3.17,0.77,3.17,-3.17,-2.95,-2.63,-2.42,-2.41,-2.41
