frequency,raw,error,smoothed,error_smoothed,equalization,parametric_eq,fixed_band_eq,equalized_raw,equalized_smoothed,target
20.00,-2.61,-11.93,-2.61,-11.94,11.94,10.91,4.97,9.32,9.32,9.32
20.20,-2.57,-11.88,-2.58,-11.89,11.89,10.99,5.10,9.31,9.31,9.31
20.40,-2.54,-11.84,-2.54,-11.84,11.84,11.07,5.23,9.29,9.30,9.30
20.61,-2.50,-11.79,-2.50,-11.79,11.79,11.15,5.36,9.28,9.28,9.29
20.81,-2.46,-11.73,-2.47,-11.74,11.74,11.22,5.50,9.28,9.27,9.27
21.02,-2.43,-11.69,-2.43,-11.69,11.69,11.28,5.65,9.26,9.26,9.26
21.23,-2.39,-11.64,-2.39,-11.64,11.64,11.34,5.79,9.25,9.25,9.24
21.44,-2.35,-11.61,-2.36,-11.60,11.60,11.39,5.94,9.24,9.24,9.25
21.66,-2.32,-11.56,-2.32,-11.55,11.55,11.44,6.10,9.23,9.23,9.23
21.87,-2.28,-11.51,-2.28,-11.51,11.51,11.48,6.26,9.22,9.22,9.23
22.09,-2.24,-11.45,-2.25,-11.46,11.46,11.51,6.42,9.22,9.22,9.21
22.31,-2.21,-11.42,-2.21,-11.42,11.42,11.54,6.59,9.20,9.21,9.21
22.54,-2.17,-11.37,-2.17,-11.37,11.37,11.56,6.76,9.20,9.20,9.20
22.76,-2.13,-11.33,-2.14,-11.33,11.33,11.57,6.93,9.20,9.19,9.20
22.99,-2.09,-11.28,-2.10,-11.29,11.29,11.58,7.11,9.20,9.19,9.19
23.22,-2.06,-11.24,-2.06,-11.25,11.25,11.58,7.30,9.18,9.18,9.18
23.45,-2.02,-11.21,-2.03,-11.20,11.20,11.58,7.49,9.18,9.18,9.18
23.69,-1.99,-11.17,-1.99,-11.16,11.16,11.57,7.68,9.17,9.17,9.17
23.92,-1.95,-11.11,-1.95,-11.12,11.12,11.55,7.88,9.17,9.17,9.16
24.16,-1.92,-11.09,-1.92,-11.08,11.08,11.53,8.09,9.16,9.17,9.17
24.40,-1.88,-11.05,-1.88,-11.04,11.04,11.50,8.30,9.16,9.16,9.17
24.65,-1.84,-11.01,-1.84,-11.01,11.01,11.47,8.51,9.16,9.16,9.17
24.89,-1.81,-10.98,-1.81,-10.97,10.97,11.43,8.72,9.15,9.16,9.16
25.14,-1.77,-10.93,-1.77,-10.93,10.93,11.39,8.95,9.16,9.16,9.15
25.39,-1.73,-10.88,-1.74,-10.89,10.89,11.35,9.17,9.16,9.15,9.15
25.65,-1.70,-10.85,-1.70,-10.86,10.86,11.30,9.40,9.15,9.15,9.15
25.91,-1.66,-10.81,-1.67,-10.82,10.82,11.24,9.63,9.15,9.15,9.15
26.16,-1.63,-10.79,-1.63,-10.78,10.78,11.19,9.86,9.15,9.15,9.16
26.43,-1.59,-10.75,-1.60,-10.75,10.75,11.13,10.09,9.15,9.15,9.15
26.69,-1.56,-10.71,-1.56,-10.71,10.71,11.07,10.33,9.15,9.15,9.15
26.96,-1.53,-10.68,-1.53,-10.68,10.68,11.01,10.56,9.14,9.15,9.15
27.23,-1.49,-10.64,-1.50,-10.65,10.65,10.94,10.79,9.15,9.15,9.15
27.50,-1.46,-10.61,-1.46,-10.61,10.61,10.88,11.02,9.15,9.15,9.14
27.77,-1.43,-10.58,-1.43,-10.58,10.58,10.81,11.25,9.15,9.15,9.15
28.05,-1.39,-10.54,-1.40,-10.55,10.55,10.74,11.46,9.16,9.15,9.15
28.33,-1.36,-10.52,-1.36,-10.52,10.52,10.67,11.68,9.16,9.15,9.16
28.62,-1.33,-10.49,-1.33,-10.49,10.49,10.60,11.88,9.15,9.15,9.15
28.90,-1.30,-10.46,-1.30,-10.45,10.45,10.53,12.07,9.15,9.15,9.16
29.19,-1.27,-10.43,-1.27,-10.42,10.42,10.47,12.24,9.15,9.15,9.16
29.48,-1.24,-10.40,-1.24,-10.39,10.39,10.40,12.40,9.15,9.15,9.15
29.78,-1.21,-10.36,-1.21,-10.36,10.36,10.33,12.55,9.14,9.15,9.15
30.08,-1.18,-10.33,-1.18,-10.32,10.32,10.26,12.67,9.14,9.14,9.15
30.38,-1.15,-10.29,-1.16,-10.29,10.29,10.20,12.77,9.14,9.14,9.13
30.68,-1.12,-10.25,-1.13,-10.26,10.26,10.13,12.84,9.14,9.13,9.13
30.99,-1.09,-10.22,-1.10,-10.23,10.23,10.07,12.90,9.14,9.13,9.13
31.30,-1.07,-10.20,-1.08,-10.20,10.20,10.00,12.92,9.13,9.12,9.12
31.61,-1.05,-10.17,-1.06,-10.17,10.17,9.94,12.92,9.11,9.11,9.12
31.93,-1.03,-10.13,-1.03,-10.14,10.14,9.88,12.90,9.10,9.10,9.09
32.24,-1.01,-10.11,-1.01,-10.11,10.11,9.83,12.86,9.10,9.10,9.10
32.57,-0.99,-10.08,-0.99,-10.08,10.08,9.77,12.79,9.09,9.09,9.08
32.89,-0.97,-10.05,-0.97,-10.05,10.05,9.72,12.70,9.08,9.08,9.08
33.22,-0.95,-10.03,-0.95,-10.02,10.02,9.67,12.59,9.07,9.07,9.07
33.55,-0.93,-10.00,-0.93,-10.00,10.00,9.62,12.47,9.06,9.06,9.07
33.89,-0.91,-9.97,-0.91,-9.97,9.97,9.57,12.33,9.05,9.06,9.05
34.23,-0.89,-9.93,-0.89,-9.94,9.94,9.52,12.18,9.04,9.05,9.04
34.57,-0.87,-9.90,-0.87,-9.91,9.91,9.48,12.02,9.03,9.04,9.03
34.92,-0.85,-9.87,-0.85,-9.88,9.88,9.44,11.86,9.02,9.02,9.02
35.27,-0.83,-9.86,-0.83,-9.84,9.84,9.40,11.68,9.01,9.01,9.03
35.62,-0.81,-9.82,-0.81,-9.81,9.81,9.37,11.51,9.00,9.00,9.00
35.97,-0.78,-9.78,-0.79,-9.77,9.77,9.33,11.33,8.99,8.99,9.00
36.33,-0.76,-9.74,-0.77,-9.74,9.74,9.30,11.15,8.97,8.97,8.98
36.70,-0.74,-9.69,-0.75,-9.70,9.70,9.27,10.96,8.96,8.95,8.95
37.06,-0.72,-9.66,-0.73,-9.66,9.66,9.24,10.78,8.94,8.93,8.93
37.43,-0.70,-9.62,-0.70,-9.62,9.62,9.22,10.61,8.92,8.91,8.91
37.81,-0.69,-9.59,-0.68,-9.58,9.58,9.20,10.43,8.89,8.89,8.90
38.19,-0.67,-9.54,-0.66,-9.54,9.54,9.17,10.26,8.86,8.87,8.87
38.57,-0.65,-9.50,-0.64,-9.49,9.49,9.16,10.09,8.84,8.85,8.85
38.95,-0.62,-9.45,-0.63,-9.45,9.45,9.14,9.93,8.83,8.83,8.83
39.34,-0.60,-9.40,-0.61,-9.41,9.41,9.12,9.77,8.80,8.80,8.80
39.74,-0.58,-9.35,-0.59,-9.37,9.37,9.11,9.62,8.78,8.78,8.77
40.14,-0.56,-9.31,-0.57,-9.32,9.32,9.10,9.47,8.76,8.75,8.75
40.54,-0.55,-9.28,-0.56,-9.28,9.28,9.09,9.33,8.73,8.73,8.73
40.94,-0.53,-9.23,-0.54,-9.24,9.24,9.08,9.20,8.71,8.70,8.70
41.35,-0.52,-9.20,-0.52,-9.20,9.20,9.07,9.07,8.68,8.68,8.68
41.76,-0.51,-9.16,-0.51,-9.16,9.16,9.06,8.95,8.65,8.65,8.64
42.18,-0.49,-9.12,-0.49,-9.12,9.12,9.05,8.83,8.63,8.63,8.63
42.60,-0.48,-9.08,-0.48,-9.08,9.08,9.05,8.72,8.59,8.60,8.60
43.03,-0.46,-9.04,-0.47,-9.04,9.04,9.04,8.61,8.57,8.57,8.57
43.46,-0.45,-8.99,-0.45,-9.00,9.00,9.03,8.51,8.54,8.54,8.54
43.90,-0.43,-8.95,-0.44,-8.95,8.95,9.02,8.42,8.52,8.51,8.52
44.33,-0.42,-8.90,-0.42,-8.91,8.91,9.01,8.33,8.49,8.48,8.48
44.78,-0.41,-8.87,-0.41,-8.86,8.86,9.01,8.25,8.45,8.45,8.45
45.23,-0.39,-8.82,-0.39,-8.81,8.81,8.99,8.18,8.42,8.42,8.43
45.68,-0.38,-8.77,-0.38,-8.76,8.76,8.98,8.11,8.37,8.38,8.38
46.13,-0.36,-8.71,-0.36,-8.70,8.70,8.97,8.04,8.34,8.34,8.34
46.60,-0.34,-8.65,-0.34,-8.64,8.64,8.95,7.98,8.30,8.30,8.31
47.06,-0.32,-8.59,-0.32,-8.58,8.58,8.93,7.93,8.26,8.26,8.27
47.53,-0.30,-8.53,-0.30,-8.52,8.52,8.91,7.88,8.21,8.22,8.23
48.01,-0.28,-8.45,-0.28,-8.45,8.45,8.89,7.84,8.17,8.17,8.17
48.49,-0.26,-8.39,-0.26,-8.39,8.39,8.86,7.80,8.12,8.13,8.13
48.97,-0.23,-8.31,-0.24,-8.32,8.32,8.82,7.77,8.09,8.08,8.08
49.46,-0.21,-8.25,-0.22,-8.26,8.26,8.79,7.74,8.04,8.04,8.03
49.96,-0.19,-8.17,-0.20,-8.19,8.19,8.75,7.71,8.00,7.99,7.97
50.46,-0.17,-8.11,-0.18,-8.12,8.12,8.70,7.69,7.95,7.94,7.94
50.96,-0.15,-8.05,-0.17,-8.06,8.06,8.66,7.67,7.91,7.89,7.89
51.47,-0.14,-7.99,-0.15,-8.00,8.00,8.60,7.65,7.85,7.85,7.85
51.99,-0.13,-7.93,-0.13,-7.93,7.93,8.54,7.64,7.80,7.80,7.79
52.51,-0.12,-7.88,-0.12,-7.87,7.87,8.48,7.63,7.75,7.75,7.76
53.03,-0.11,-7.83,-0.10,-7.81,7.81,8.41,7.62,7.69,7.71,7.72
53.56,-0.09,-7.76,-0.09,-7.75,7.75,8.34,7.61,7.65,7.66,7.67
54.10,-0.08,-7.69,-0.07,-7.69,7.69,8.27,7.61,7.60,7.61,7.61
54.64,-0.06,-7.63,-0.06,-7.63,7.63,8.19,7.60,7.56,7.57,7.57
55.18,-0.04,-7.56,-0.04,-7.57,7.57,8.10,7.59,7.52,7.53,7.52
55.74,-0.03,-7.50,-0.03,-7.51,7.51,8.01,7.58,7.48,7.48,7.47
56.29,-0.01,-7.45,-0.02,-7.45,7.45,7.92,7.57,7.44,7.44,7.43
56.86,-0.00,-7.39,-0.01,-7.40,7.40,7.82,7.56,7.39,7.39,7.39
57.42,0.01,-7.33,-0.00,-7.34,7.34,7.72,7.55,7.35,7.34,7.33
58.00,0.02,-7.27,0.00,-7.29,7.29,7.62,7.53,7.30,7.29,7.29
58.58,0.03,-7.22,0.01,-7.23,7.23,7.51,7.51,7.26,7.24,7.25
59.16,0.03,-7.18,0.01,-7.18,7.18,7.40,7.48,7.21,7.19,7.21
59.76,0.03,-7.13,0.01,-7.13,7.13,7.29,7.45,7.16,7.13,7.16
60.35,0.02,-7.08,0.00,-7.08,7.08,7.18,7.42,7.09,7.08,7.10
60.96,-0.00,-7.04,0.00,-7.02,7.02,7.06,7.38,7.02,7.02,7.04
61.57,-0.01,-6.98,-0.00,-6.97,6.97,6.95,7.33,6.95,6.96,6.96
62.18,-0.02,-6.92,-0.00,-6.91,6.91,6.83,7.28,6.89,6.90,6.90
62.80,-0.02,-6.86,-0.01,-6.85,6.85,6.71,7.22,6.82,6.84,6.83
63.43,-0.02,-6.79,-0.00,-6.78,6.78,6.59,7.16,6.76,6.78,6.77
64.07,-0.01,-6.72,-0.00,-6.72,6.72,6.47,7.09,6.71,6.72,6.71
64.71,-0.00,-6.65,0.01,-6.65,6.65,6.35,7.01,6.65,6.65,6.65
65.35,0.02,-6.57,0.02,-6.58,6.58,6.23,6.93,6.59,6.59,6.59
66.01,0.03,-6.50,0.03,-6.50,6.50,6.11,6.84,6.52,6.53,6.52
66.67,0.05,-6.42,0.05,-6.42,6.42,5.98,6.75,6.46,6.46,6.47
67.33,0.07,-6.33,0.07,-6.33,6.33,5.86,6.65,6.40,6.40,6.40
68.01,0.09,-6.25,0.09,-6.25,6.25,5.75,6.55,6.33,6.33,6.34
68.69,0.11,-6.17,0.11,-6.16,6.16,5.63,6.44,6.27,6.27,6.27
69.37,0.14,-6.08,0.13,-6.07,6.07,5.51,6.33,6.21,6.20,6.22
70.07,0.16,-5.99,0.16,-5.98,5.98,5.39,6.22,6.14,6.14,6.15
70.77,0.18,-5.90,0.18,-5.89,5.89,5.28,6.10,6.07,6.07,6.07
71.48,0.21,-5.81,0.21,-5.80,5.80,5.16,5.99,6.00,6.01,6.01
72.19,0.24,-5.70,0.23,-5.71,5.71,5.05,5.87,5.94,5.94,5.94
72.91,0.26,-5.61,0.25,-5.62,5.62,4.94,5.75,5.87,5.87,5.86
73.64,0.28,-5.52,0.27,-5.53,5.53,4.83,5.63,5.81,5.80,5.80
74.38,0.30,-5.43,0.29,-5.45,5.45,4.72,5.51,5.74,5.74,5.73
75.12,0.31,-5.36,0.31,-5.37,5.37,4.61,5.39,5.68,5.67,5.67
75.87,0.33,-5.28,0.32,-5.29,5.29,4.51,5.27,5.62,5.61,5.61
76.63,0.34,-5.20,0.33,-5.22,5.22,4.40,5.15,5.56,5.55,5.54
77.40,0.35,-5.14,0.33,-5.15,5.15,4.30,5.04,5.50,5.48,5.49
78.17,0.36,-5.06,0.34,-5.08,5.08,4.20,4.92,5.44,5.42,5.41
78.95,0.35,-5.02,0.34,-5.02,5.02,4.10,4.81,5.37,5.36,5.37
79.74,0.34,-4.96,0.34,-4.96,4.96,4.01,4.69,5.30,5.30,5.30
80.54,0.33,-4.92,0.34,-4.90,4.90,3.91,4.58,5.22,5.24,5.24
81.35,0.33,-4.85,0.34,-4.84,4.84,3.82,4.48,5.16,5.18,5.17
82.16,0.33,-4.80,0.34,-4.78,4.78,3.73,4.37,5.11,5.11,5.12
82.98,0.33,-4.73,0.33,-4.72,4.72,3.64,4.27,5.04,5.05,5.05
83.81,0.33,-4.67,0.33,-4.66,4.66,3.55,4.17,4.98,4.99,4.99
84.65,0.33,-4.59,0.33,-4.59,4.59,3.46,4.07,4.92,4.92,4.92
85.50,0.33,-4.53,0.33,-4.53,4.53,3.38,3.97,4.86,4.86,4.85
86.35,0.33,-4.46,0.33,-4.47,4.47,3.29,3.88,4.79,4.79,4.79
87.22,0.33,-4.40,0.32,-4.40,4.40,3.21,3.79,4.73,4.73,4.72
88.09,0.33,-4.33,0.33,-4.33,4.33,3.13,3.70,4.66,4.66,4.66
88.97,0.33,-4.26,0.33,-4.26,4.26,3.05,3.62,4.59,4.59,4.59
89.86,0.33,-4.19,0.33,-4.19,4.19,2.97,3.53,4.52,4.52,4.52
90.76,0.33,-4.13,0.33,-4.12,4.12,2.90,3.45,4.45,4.45,4.45
91.66,0.33,-4.05,0.33,-4.05,4.05,2.82,3.38,4.38,4.38,4.37
92.58,0.33,-3.98,0.33,-3.98,3.98,2.75,3.30,4.30,4.30,4.31
93.51,0.33,-3.91,0.33,-3.90,3.90,2.68,3.23,4.23,4.23,4.24
94.44,0.33,-3.84,0.33,-3.83,3.83,2.61,3.16,4.16,4.16,4.17
95.39,0.33,-3.76,0.33,-3.76,3.76,2.54,3.09,4.09,4.08,4.09
96.34,0.33,-3.69,0.32,-3.69,3.69,2.47,3.02,4.01,4.01,4.01
97.30,0.33,-3.61,0.32,-3.62,3.62,2.40,2.96,3.94,3.94,3.94
98.28,0.33,-3.53,0.32,-3.55,3.55,2.34,2.90,3.87,3.86,3.85
99.26,0.33,-3.45,0.31,-3.48,3.48,2.27,2.84,3.81,3.79,3.78
100.25,0.33,-3.38,0.31,-3.41,3.41,2.21,2.78,3.74,3.72,3.71
101.25,0.32,-3.32,0.31,-3.34,3.34,2.15,2.73,3.65,3.65,3.64
102.27,0.31,-3.27,0.31,-3.27,3.27,2.09,2.67,3.57,3.58,3.58
103.29,0.31,-3.19,0.31,-3.19,3.19,2.03,2.62,3.50,3.51,3.50
104.32,0.31,-3.13,0.32,-3.11,3.11,1.97,2.57,3.42,3.44,3.44
105.37,0.31,-3.06,0.34,-3.03,3.03,1.91,2.52,3.34,3.37,3.37
106.42,0.33,-2.98,0.35,-2.95,2.95,1.85,2.47,3.27,3.30,3.30
107.48,0.35,-2.88,0.37,-2.86,2.86,1.80,2.42,3.21,3.23,3.23
108.56,0.38,-2.79,0.39,-2.77,2.77,1.74,2.37,3.14,3.16,3.16
109.64,0.41,-2.69,0.42,-2.67,2.67,1.69,2.33,3.08,3.09,3.10
110.74,0.45,-2.58,0.45,-2.57,2.57,1.64,2.28,3.02,3.02,3.02
111.85,0.49,-2.46,0.48,-2.47,2.47,1.58,2.24,2.95,2.95,2.95
112.97,0.52,-2.37,0.51,-2.36,2.36,1.53,2.19,2.88,2.87,2.88
114.10,0.56,-2.25,0.54,-2.26,2.26,1.48,2.15,2.82,2.80,2.81
115.24,0.59,-2.14,0.57,-2.16,2.16,1.43,2.10,2.75,2.73,2.73
116.39,0.61,-2.05,0.60,-2.07,2.07,1.38,2.06,2.67,2.66,2.65
117.55,0.63,-1.95,0.62,-1.98,1.98,1.33,2.01,2.60,2.59,2.58
118.73,0.65,-1.86,0.63,-1.89,1.89,1.28,1.97,2.54,2.52,2.51
119.92,0.67,-1.78,0.65,-1.81,1.81,1.24,1.92,2.47,2.45,2.45
121.12,0.68,-1.71,0.66,-1.73,1.73,1.19,1.88,2.41,2.38,2.39
122.33,0.67,-1.65,0.66,-1.65,1.65,1.14,1.83,2.32,2.31,2.32
123.55,0.67,-1.59,0.66,-1.58,1.58,1.10,1.78,2.25,2.25,2.26
124.79,0.66,-1.53,0.66,-1.52,1.52,1.05,1.73,2.17,2.18,2.19
126.03,0.65,-1.47,0.66,-1.45,1.45,1.01,1.68,2.10,2.11,2.12
127.29,0.65,-1.41,0.66,-1.38,1.38,0.96,1.63,2.03,2.04,2.05
128.57,0.65,-1.33,0.66,-1.32,1.32,0.92,1.58,1.97,1.98,1.98
129.85,0.65,-1.26,0.65,-1.26,1.26,0.87,1.53,1.90,1.91,1.91
131.15,0.65,-1.19,0.65,-1.19,1.19,0.83,1.47,1.84,1.84,1.84
132.46,0.65,-1.13,0.65,-1.13,1.13,0.79,1.42,1.77,1.78,1.77
133.79,0.65,-1.05,0.65,-1.06,1.06,0.74,1.36,1.71,1.71,1.70
135.12,0.65,-0.99,0.64,-1.00,1.00,0.70,1.31,1.64,1.64,1.64
136.48,0.65,-0.93,0.65,-0.93,0.93,0.66,1.25,1.58,1.58,1.58
137.84,0.65,-0.86,0.65,-0.87,0.87,0.62,1.19,1.51,1.51,1.51
139.22,0.65,-0.80,0.65,-0.80,0.80,0.58,1.13,1.45,1.45,1.44
140.61,0.65,-0.74,0.65,-0.74,0.74,0.53,1.07,1.39,1.39,1.39
142.02,0.65,-0.67,0.65,-0.68,0.68,0.49,1.01,1.33,1.33,1.32
143.44,0.65,-0.62,0.65,-0.62,0.62,0.45,0.95,1.27,1.27,1.27
144.87,0.65,-0.57,0.65,-0.57,0.57,0.41,0.89,1.21,1.21,1.21
146.32,0.65,-0.51,0.64,-0.51,0.51,0.37,0.83,1.16,1.16,1.15
147.78,0.65,-0.46,0.64,-0.46,0.46,0.33,0.76,1.11,1.10,1.10
149.26,0.65,-0.40,0.64,-0.41,0.41,0.29,0.70,1.05,1.05,1.04
150.75,0.65,-0.34,0.64,-0.35,0.35,0.25,0.64,1.00,0.99,0.99
152.26,0.65,-0.29,0.63,-0.30,0.30,0.21,0.57,0.95,0.93,0.94
153.78,0.65,-0.24,0.63,-0.25,0.25,0.16,0.51,0.90,0.88,0.88
155.32,0.64,-0.19,0.63,-0.19,0.19,0.12,0.44,0.83,0.83,0.83
156.88,0.63,-0.15,0.64,-0.13,0.13,0.08,0.38,0.76,0.77,0.78
158.44,0.63,-0.09,0.64,-0.07,0.07,0.04,0.31,0.70,0.72,0.71
160.03,0.64,-0.03,0.65,-0.01,0.01,0.00,0.24,0.64,0.66,0.66
161.63,0.65,0.04,0.67,0.06,-0.06,-0.04,0.18,0.58,0.60,0.61
163.24,0.66,0.11,0.69,0.14,-0.14,-0.08,0.11,0.52,0.55,0.55
164.88,0.70,0.20,0.71,0.22,-0.22,-0.13,0.04,0.48,0.49,0.49
166.53,0.72,0.29,0.73,0.30,-0.30,-0.17,-0.03,0.42,0.44,0.43
168.19,0.75,0.36,0.76,0.38,-0.38,-0.21,-0.10,0.37,0.38,0.38
169.87,0.79,0.47,0.79,0.47,-0.47,-0.25,-0.16,0.32,0.32,0.32
171.57,0.82,0.56,0.81,0.55,-0.55,-0.30,-0.23,0.27,0.26,0.26
173.29,0.85,0.64,0.84,0.64,-0.64,-0.34,-0.30,0.21,0.21,0.21
175.02,0.90,0.75,0.87,0.72,-0.72,-0.38,-0.37,0.18,0.15,0.15
176.77,0.93,0.83,0.89,0.80,-0.80,-0.43,-0.45,0.13,0.09,0.09
178.54,0.95,0.91,0.91,0.88,-0.88,-0.47,-0.52,0.07,0.04,0.04
180.32,0.96,0.98,0.94,0.95,-0.95,-0.52,-0.59,0.00,-0.02,-0.03
182.13,0.97,1.04,0.96,1.03,-1.03,-0.56,-0.66,-0.06,-0.07,-0.07
183.95,0.98,1.10,0.98,1.10,-1.10,-0.61,-0.73,-0.13,-0.13,-0.12
185.79,0.99,1.17,1.00,1.18,-1.18,-0.65,-0.81,-0.19,-0.18,-0.18
187.65,1.00,1.23,1.02,1.26,-1.26,-0.70,-0.88,-0.26,-0.23,-0.23
189.52,1.00,1.28,1.04,1.33,-1.33,-0.75,-0.96,-0.33,-0.29,-0.28
191.42,1.02,1.35,1.06,1.40,-1.40,-0.79,-1.03,-0.38,-0.34,-0.33
193.33,1.06,1.44,1.09,1.47,-1.47,-0.84,-1.11,-0.41,-0.38,-0.38
195.27,1.10,1.53,1.11,1.54,-1.54,-0.89,-1.18,-0.44,-0.43,-0.43
197.22,1.13,1.62,1.13,1.60,-1.60,-0.94,-1.26,-0.48,-0.48,-0.49
199.19,1.17,1.69,1.15,1.67,-1.67,-0.99,-1.33,-0.50,-0.52,-0.52
201.18,1.19,1.76,1.16,1.73,-1.73,-1.04,-1.41,-0.54,-0.56,-0.58
203.19,1.21,1.81,1.18,1.78,-1.78,-1.09,-1.48,-0.57,-0.60,-0.61
205.23,1.22,1.85,1.18,1.83,-1.83,-1.14,-1.56,-0.61,-0.64,-0.64
207.28,1.21,1.88,1.18,1.86,-1.86,-1.19,-1.63,-0.66,-0.68,-0.68
209.35,1.20,1.91,1.17,1.89,-1.89,-1.24,-1.70,-0.70,-0.72,-0.72
211.44,1.19,1.94,1.16,1.92,-1.92,-1.29,-1.77,-0.73,-0.76,-0.75
213.56,1.17,1.95,1.14,1.93,-1.93,-1.34,-1.85,-0.77,-0.79,-0.78
215.69,1.13,1.94,1.12,1.94,-1.94,-1.39,-1.92,-0.82,-0.82,-0.82
217.85,1.09,1.94,1.10,1.95,-1.95,-1.45,-1.98,-0.86,-0.85,-0.85
220.03,1.06,1.94,1.07,1.96,-1.96,-1.50,-2.05,-0.90,-0.88,-0.89
222.23,1.03,1.95,1.05,1.96,-1.96,-1.55,-2.11,-0.93,-0.91,-0.92
224.45,1.00,1.94,1.02,1.97,-1.97,-1.60,-2.18,-0.97,-0.94,-0.94
226.70,0.97,1.94,1.01,1.98,-1.98,-1.66,-2.23,-1.01,-0.97,-0.98
228.96,0.96,1.95,0.99,1.98,-1.98,-1.71,-2.29,-1.03,-1.00,-0.99
231.25,0.96,1.98,0.98,1.99,-1.99,-1.76,-2.34,-1.04,-1.02,-1.02
233.57,0.96,2.00,0.97,2.01,-2.01,-1.81,-2.39,-1.05,-1.04,-1.04
235.90,0.97,2.03,0.96,2.02,-2.02,-1.86,-2.44,-1.05,-1.06,-1.06
238.26,0.98,2.06,0.96,2.04,-2.04,-1.91,-2.48,-1.06,-1.08,-1.09
240.64,0.98,2.06,0.96,2.05,-2.05,-1.96,-2.52,-1.07,-1.09,-1.09
243.05,0.98,2.08,0.96,2.07,-2.07,-2.01,-2.55,-1.09,-1.10,-1.10
245.48,0.98,2.10,0.97,2.08,-2.08,-2.06,-2.58,-1.11,-1.12,-1.12
247.93,0.98,2.11,0.97,2.10,-2.10,-2.11,-2.60,-1.12,-1.13,-1.14
250.41,0.98,2.11,0.98,2.11,-2.11,-2.15,-2.62,-1.13,-1.13,-1.13
252.92,0.98,2.11,0.98,2.12,-2.12,-2.20,-2.63,-1.14,-1.14,-1.14
255.45,0.98,2.13,0.98,2.13,-2.13,-2.24,-2.64,-1.15,-1.15,-1.15
258.00,0.98,2.13,0.98,2.13,-2.13,-2.28,-2.65,-1.16,-1.16,-1.16
260.58,0.98,2.14,0.97,2.14,-2.14,-2.32,-2.65,-1.16,-1.16,-1.16
263.19,0.98,2.14,0.97,2.14,-2.14,-2.35,-2.65,-1.16,-1.17,-1.16
265.82,0.98,2.15,0.96,2.14,-2.14,-2.39,-2.64,-1.16,-1.18,-1.18
268.48,0.98,2.15,0.96,2.14,-2.14,-2.42,-2.63,-1.17,-1.18,-1.18
271.16,0.97,2.15,0.96,2.15,-2.15,-2.45,-2.62,-1.18,-1.19,-1.18
273.87,0.97,2.16,0.96,2.15,-2.15,-2.48,-2.60,-1.19,-1.19,-1.19
276.61,0.96,2.15,0.96,2.16,-2.16,-2.50,-2.58,-1.20,-1.20,-1.19
279.38,0.96,2.17,0.97,2.17,-2.17,-2.52,-2.56,-1.21,-1.20,-1.21
282.17,0.96,2.17,0.98,2.18,-2.18,-2.54,-2.53,-1.23,-1.20,-1.21
284.99,0.97,2.17,0.99,2.20,-2.20,-2.56,-2.51,-1.23,-1.20,-1.20
287.84,1.00,2.20,1.01,2.21,-2.21,-2.57,-2.48,-1.22,-1.20,-1.20
290.72,1.02,2.23,1.03,2.24,-2.24,-2.58,-2.45,-1.22,-1.20,-1.21
293.63,1.05,2.25,1.06,2.26,-2.26,-2.59,-2.42,-1.21,-1.20,-1.20
296.57,1.08,2.27,1.08,2.28,-2.28,-2.59,-2.39,-1.21,-1.20,-1.20
299.53,1.12,2.31,1.11,2.31,-2.31,-2.59,-2.35,-1.19,-1.20,-1.20
302.53,1.15,2.33,1.15,2.34,-2.34,-2.59,-2.32,-1.19,-1.19,-1.18
305.55,1.18,2.37,1.18,2.36,-2.36,-2.59,-2.29,-1.19,-1.19,-1.19
308.61,1.22,2.40,1.21,2.39,-2.39,-2.58,-2.26,-1.17,-1.18,-1.18
311.69,1.25,2.42,1.23,2.41,-2.41,-2.58,-2.23,-1.16,-1.18,-1.18
314.81,1.27,2.44,1.25,2.42,-2.42,-2.57,-2.19,-1.16,-1.17,-1.17
317.96,1.29,2.46,1.27,2.44,-2.44,-2.55,-2.16,-1.15,-1.17,-1.17
321.14,1.31,2.46,1.29,2.45,-2.45,-2.54,-2.13,-1.14,-1.16,-1.16
324.35,1.32,2.48,1.30,2.45,-2.45,-2.53,-2.11,-1.14,-1.15,-1.16
327.59,1.33,2.46,1.31,2.45,-2.45,-2.51,-2.08,-1.13,-1.15,-1.14
330.87,1.32,2.46,1.31,2.45,-2.45,-2.49,-2.05,-1.14,-1.14,-1.14
334.18,1.31,2.44,1.31,2.45,-2.45,-2.47,-2.03,-1.14,-1.14,-1.14
337.52,1.30,2.43,1.31,2.44,-2.44,-2.45,-2.00,-1.15,-1.13,-1.13
340.90,1.30,2.42,1.31,2.43,-2.43,-2.42,-1.98,-1.14,-1.12,-1.12
344.30,1.30,2.41,1.31,2.42,-2.42,-2.40,-1.96,-1.13,-1.12,-1.11
347.75,1.30,2.40,1.30,2.41,-2.41,-2.38,-1.94,-1.12,-1.11,-1.11
351.23,1.30,2.41,1.30,2.40,-2.40,-2.35,-1.93,-1.11,-1.10,-1.11
354.74,1.30,2.38,1.30,2.39,-2.39,-2.33,-1.91,-1.10,-1.10,-1.09
358.28,1.30,2.39,1.30,2.39,-2.39,-2.30,-1.90,-1.09,-1.09,-1.09
361.87,1.30,2.38,1.30,2.38,-2.38,-2.28,-1.88,-1.08,-1.08,-1.08
365.49,1.30,2.37,1.30,2.38,-2.38,-2.25,-1.87,-1.08,-1.08,-1.08
369.14,1.30,2.36,1.30,2.37,-2.37,-2.22,-1.86,-1.07,-1.07,-1.06
372.83,1.30,2.35,1.31,2.37,-2.37,-2.20,-1.86,-1.07,-1.06,-1.06
376.56,1.30,2.36,1.31,2.36,-2.36,-2.17,-1.85,-1.07,-1.05,-1.06
380.33,1.30,2.35,1.31,2.36,-2.36,-2.15,-1.84,-1.06,-1.04,-1.05
384.13,1.31,2.34,1.31,2.35,-2.35,-2.12,-1.84,-1.04,-1.04,-1.03
387.97,1.32,2.34,1.31,2.34,-2.34,-2.10,-1.84,-1.02,-1.03,-1.03
391.85,1.33,2.35,1.31,2.33,-2.33,-2.07,-1.84,-1.00,-1.02,-1.02
395.77,1.32,2.33,1.30,2.31,-2.31,-2.05,-1.84,-0.99,-1.01,-1.01
399.73,1.31,2.31,1.29,2.29,-2.29,-2.02,-1.84,-0.98,-1.00,-1.01
403.72,1.30,2.28,1.28,2.27,-2.27,-2.00,-1.84,-0.97,-0.99,-0.98
407.76,1.28,2.26,1.26,2.24,-2.24,-1.98,-1.84,-0.96,-0.98,-0.98
411.84,1.26,2.23,1.24,2.21,-2.21,-1.95,-1.85,-0.95,-0.97,-0.97
415.96,1.22,2.17,1.21,2.18,-2.18,-1.93,-1.85,-0.96,-0.96,-0.96
420.12,1.19,2.15,1.18,2.14,-2.14,-1.91,-1.86,-0.95,-0.96,-0.96
424.32,1.16,2.11,1.15,2.10,-2.10,-1.89,-1.86,-0.94,-0.95,-0.95
428.56,1.12,2.05,1.12,2.06,-2.06,-1.87,-1.87,-0.94,-0.94,-0.93
432.85,1.09,2.01,1.09,2.02,-2.02,-1.85,-1.88,-0.93,-0.93,-0.92
437.18,1.06,1.98,1.06,1.99,-1.99,-1.83,-1.88,-0.93,-0.92,-0.93
441.55,1.03,1.94,1.04,1.95,-1.95,-1.81,-1.89,-0.93,-0.91,-0.92
445.96,1.00,1.91,1.02,1.92,-1.92,-1.79,-1.89,-0.93,-0.91,-0.91
450.42,0.98,1.88,1.00,1.90,-1.90,-1.77,-1.90,-0.92,-0.90,-0.90
454.93,0.96,1.85,0.98,1.87,-1.87,-1.75,-1.90,-0.92,-0.89,-0.89
459.48,0.96,1.84,0.97,1.85,-1.85,-1.73,-1.91,-0.90,-0.88,-0.88
464.07,0.96,1.82,0.97,1.84,-1.84,-1.72,-1.91,-0.88,-0.87,-0.87
468.71,0.97,1.82,0.96,1.83,-1.83,-1.70,-1.91,-0.86,-0.86,-0.86
473.40,0.98,1.83,0.96,1.81,-1.81,-1.68,-1.91,-0.84,-0.85,-0.85
478.13,0.98,1.82,0.96,1.81,-1.81,-1.67,-1.91,-0.83,-0.84,-0.84
482.91,0.98,1.81,0.96,1.80,-1.80,-1.65,-1.90,-0.82,-0.83,-0.83
487.74,0.98,1.80,0.97,1.79,-1.79,-1.64,-1.90,-0.81,-0.82,-0.82
492.62,0.98,1.79,0.97,1.78,-1.78,-1.62,-1.89,-0.80,-0.81,-0.81
497.55,0.98,1.78,0.97,1.77,-1.77,-1.61,-1.88,-0.80,-0.80,-0.80
