frequency,raw,error,smoothed,error_smoothed,equalization,parametric_eq,fixed_band_eq,equalized_raw,equalized_smoothed,target
20.00,-3.64,-8.03,-3.62,-8.01,8.01,7.19,3.50,4.37,4.39,4.39
20.20,-3.64,-8.02,-3.63,-8.01,8.01,7.29,3.60,4.38,4.38,4.38
20.40,-3.64,-8.02,-3.64,-8.02,8.02,7.38,3.70,4.38,4.38,4.38
20.61,-3.64,-8.02,-3.65,-8.02,8.02,7.47,3.80,4.38,4.38,4.38
20.81,-3.64,-8.00,-3.65,-8.02,8.02,7.56,3.90,4.39,4.37,4.36
21.02,-3.64,-8.00,-3.65,-8.02,8.02,7.65,4.01,4.39,4.37,4.36
21.23,-3.64,-8.00,-3.65,-8.02,8.02,7.73,4.12,4.38,4.37,4.36
21.44,-3.64,-8.01,-3.65,-8.02,8.02,7.81,4.24,4.38,4.37,4.37
21.66,-3.64,-8.00,-3.65,-8.01,8.01,7.88,4.35,4.38,4.36,4.36
21.87,-3.64,-8.01,-3.64,-8.01,8.01,7.95,4.48,4.37,4.36,4.37
22.09,-3.64,-8.00,-3.64,-8.00,8.00,8.01,4.60,4.36,4.36,4.36
22.31,-3.64,-8.01,-3.63,-7.99,7.99,8.07,4.73,4.35,4.36,4.37
22.54,-3.64,-8.00,-3.61,-7.98,7.98,8.12,4.86,4.34,4.37,4.36
22.76,-3.64,-8.00,-3.59,-7.96,7.96,8.17,4.99,4.32,4.37,4.36
22.99,-3.64,-8.00,-3.57,-7.94,7.94,8.21,5.13,4.30,4.37,4.36
23.22,-3.59,-7.95,-3.55,-7.93,7.93,8.25,5.27,4.34,4.37,4.36
23.45,-3.54,-7.91,-3.53,-7.91,7.91,8.28,5.42,4.37,4.37,4.37
23.69,-3.49,-7.86,-3.51,-7.89,7.89,8.30,5.56,4.40,4.38,4.37
23.92,-3.44,-7.81,-3.49,-7.87,7.87,8.31,5.71,4.43,4.38,4.37
24.16,-3.42,-7.80,-3.47,-7.85,7.85,8.33,5.87,4.43,4.38,4.38
24.40,-3.42,-7.81,-3.46,-7.84,7.84,8.33,6.02,4.42,4.38,4.39
24.65,-3.42,-7.81,-3.44,-7.83,7.83,8.33,6.18,4.41,4.39,4.39
24.89,-3.42,-7.81,-3.44,-7.82,7.82,8.32,6.34,4.40,4.39,4.39
25.14,-3.42,-7.80,-3.43,-7.82,7.82,8.31,6.51,4.40,4.39,4.38
25.39,-3.42,-7.81,-3.42,-7.81,7.81,8.29,6.67,4.39,4.39,4.39
25.65,-3.42,-7.81,-3.41,-7.80,7.80,8.26,6.84,4.39,4.39,4.39
25.91,-3.42,-7.80,-3.40,-7.80,7.80,8.24,7.00,4.38,4.39,4.38
26.16,-3.42,-7.81,-3.40,-7.78,7.78,8.20,7.17,4.37,4.39,4.39
26.43,-3.42,-7.81,-3.38,-7.77,7.77,8.16,7.34,4.35,4.39,4.39
26.69,-3.42,-7.81,-3.37,-7.75,7.75,8.12,7.51,4.34,4.39,4.39
26.96,-3.42,-7.79,-3.35,-7.73,7.73,8.08,7.67,4.31,4.38,4.37
27.23,-3.37,-7.74,-3.33,-7.71,7.71,8.03,7.83,4.34,4.38,4.37
27.50,-3.31,-7.68,-3.31,-7.68,7.68,7.98,7.99,4.38,4.38,4.37
27.77,-3.25,-7.63,-3.28,-7.66,7.66,7.92,8.15,4.41,4.37,4.38
28.05,-3.20,-7.57,-3.26,-7.63,7.63,7.87,8.30,4.43,4.37,4.37
28.33,-3.20,-7.56,-3.24,-7.61,7.61,7.81,8.44,4.41,4.37,4.36
28.62,-3.19,-7.54,-3.22,-7.58,7.58,7.75,8.57,4.40,4.36,4.35
28.90,-3.19,-7.55,-3.21,-7.56,7.56,7.69,8.70,4.37,4.35,4.36
29.19,-3.19,-7.54,-3.19,-7.54,7.54,7.62,8.81,4.35,4.35,4.35
29.48,-3.19,-7.52,-3.18,-7.52,7.52,7.56,8.92,4.33,4.34,4.33
29.78,-3.19,-7.52,-3.17,-7.51,7.51,7.50,9.01,4.32,4.33,4.33
30.08,-3.19,-7.52,-3.17,-7.49,7.49,7.44,9.09,4.31,4.32,4.33
30.38,-3.19,-7.50,-3.18,-7.49,7.49,7.38,9.15,4.30,4.31,4.31
30.68,-3.19,-7.49,-3.18,-7.48,7.48,7.31,9.20,4.30,4.30,4.30
30.99,-3.19,-7.48,-3.19,-7.48,7.48,7.25,9.23,4.29,4.29,4.29
31.30,-3.19,-7.47,-3.20,-7.48,7.48,7.19,9.25,4.29,4.28,4.28
31.61,-3.19,-7.46,-3.20,-7.47,7.47,7.14,9.26,4.29,4.27,4.27
31.93,-3.19,-7.44,-3.20,-7.47,7.47,7.08,9.25,4.28,4.27,4.25
32.24,-3.19,-7.45,-3.20,-7.46,7.46,7.03,9.22,4.27,4.26,4.26
32.57,-3.19,-7.43,-3.19,-7.44,7.44,6.97,9.18,4.26,4.25,4.24
32.89,-3.19,-7.43,-3.18,-7.43,7.43,6.92,9.12,4.24,4.25,4.24
33.22,-3.19,-7.43,-3.16,-7.41,7.41,6.87,9.06,4.22,4.24,4.24
33.55,-3.19,-7.42,-3.15,-7.39,7.39,6.83,8.98,4.20,4.24,4.23
33.89,-3.19,-7.43,-3.13,-7.37,7.37,6.79,8.89,4.18,4.24,4.24
34.23,-3.15,-7.37,-3.11,-7.34,7.34,6.74,8.79,4.19,4.23,4.22
34.57,-3.10,-7.33,-3.09,-7.31,7.31,6.71,8.69,4.22,4.23,4.23
34.92,-3.04,-7.26,-3.06,-7.29,7.29,6.67,8.58,4.25,4.22,4.22
35.27,-3.01,-7.24,-3.04,-7.26,7.26,6.64,8.46,4.25,4.22,4.23
35.62,-2.99,-7.19,-3.02,-7.23,7.23,6.61,8.34,4.24,4.21,4.20
35.97,-2.96,-7.16,-3.00,-7.20,7.20,6.58,8.22,4.24,4.20,4.20
36.33,-2.96,-7.15,-2.99,-7.17,7.17,6.56,8.09,4.21,4.19,4.19
36.70,-2.96,-7.13,-2.97,-7.14,7.14,6.54,7.96,4.18,4.17,4.17
37.06,-2.96,-7.11,-2.96,-7.11,7.11,6.52,7.83,4.15,4.15,4.15
37.43,-2.96,-7.10,-2.95,-7.08,7.08,6.51,7.70,4.13,4.13,4.14
37.81,-2.96,-7.07,-2.95,-7.06,7.06,6.50,7.58,4.10,4.11,4.11
38.19,-2.96,-7.05,-2.95,-7.03,7.03,6.49,7.45,4.07,4.09,4.09
38.57,-2.96,-7.03,-2.95,-7.01,7.01,6.48,7.33,4.05,4.06,4.07
38.95,-2.96,-7.00,-2.95,-6.98,6.98,6.48,7.20,4.03,4.03,4.04
39.34,-2.96,-6.95,-2.95,-6.96,6.96,6.48,7.09,4.00,4.00,3.99
39.74,-2.96,-6.92,-2.96,-6.94,6.94,6.48,6.97,3.98,3.97,3.96
40.14,-2.96,-6.89,-2.97,-6.91,6.91,6.48,6.86,3.96,3.95,3.93
40.54,-2.96,-6.87,-2.97,-6.89,6.89,6.49,6.75,3.93,3.91,3.91
40.94,-2.96,-6.83,-2.97,-6.86,6.86,6.49,6.64,3.90,3.89,3.87
41.35,-2.96,-6.81,-2.97,-6.83,6.83,6.50,6.54,3.87,3.86,3.85
41.76,-2.96,-6.78,-2.96,-6.79,6.79,6.51,6.45,3.83,3.83,3.82
42.18,-2.96,-6.76,-2.95,-6.75,6.75,6.52,6.36,3.79,3.80,3.80
42.60,-2.96,-6.73,-2.93,-6.70,6.70,6.53,6.27,3.74,3.77,3.77
43.03,-2.96,-6.70,-2.91,-6.66,6.66,6.54,6.19,3.70,3.74,3.74
43.46,-2.96,-6.67,-2.89,-6.61,6.61,6.55,6.11,3.65,3.72,3.71
43.90,-2.96,-6.65,-2.87,-6.56,6.56,6.55,6.03,3.60,3.69,3.69
44.33,-2.88,-6.53,-2.85,-6.51,6.51,6.56,5.97,3.63,3.66,3.65
44.78,-2.78,-6.40,-2.83,-6.46,6.46,6.56,5.90,3.68,3.63,3.62
45.23,-2.73,-6.34,-2.81,-6.40,6.40,6.56,5.84,3.68,3.60,3.61
45.68,-2.73,-6.29,-2.79,-6.35,6.35,6.56,5.78,3.62,3.56,3.56
46.13,-2.73,-6.25,-2.77,-6.29,6.29,6.55,5.73,3.57,3.53,3.52
46.60,-2.73,-6.22,-2.75,-6.24,6.24,6.54,5.69,3.51,3.49,3.49
47.06,-2.73,-6.19,-2.73,-6.19,6.19,6.52,5.64,3.46,3.45,3.46
47.53,-2.73,-6.16,-2.72,-6.14,6.14,6.50,5.60,3.41,3.41,3.43
48.01,-2.73,-6.10,-2.71,-6.09,6.09,6.48,5.57,3.36,3.38,3.37
48.49,-2.73,-6.06,-2.71,-6.05,6.05,6.44,5.54,3.32,3.34,3.33
48.97,-2.73,-6.02,-2.71,-6.01,6.01,6.40,5.51,3.28,3.29,3.29
49.46,-2.73,-5.98,-2.72,-5.97,5.97,6.36,5.48,3.24,3.25,3.25
49.96,-2.73,-5.92,-2.73,-5.94,5.94,6.31,5.46,3.21,3.21,3.19
50.46,-2.73,-5.88,-2.73,-5.89,5.89,6.25,5.44,3.17,3.17,3.15
50.96,-2.73,-5.85,-2.73,-5.85,5.85,6.18,5.42,3.12,3.12,3.12
51.47,-2.73,-5.81,-2.73,-5.80,5.80,6.11,5.41,3.08,3.08,3.08
51.99,-2.73,-5.76,-2.73,-5.76,5.76,6.03,5.40,3.03,3.03,3.03
52.51,-2.73,-5.72,-2.73,-5.72,5.72,5.95,5.39,2.99,2.98,2.99
53.03,-2.73,-5.69,-2.74,-5.68,5.68,5.86,5.38,2.95,2.94,2.96
53.56,-2.73,-5.62,-2.75,-5.64,5.64,5.77,5.37,2.91,2.89,2.89
54.10,-2.73,-5.57,-2.74,-5.59,5.59,5.67,5.36,2.86,2.85,2.84
54.64,-2.73,-5.53,-2.74,-5.54,5.54,5.57,5.35,2.81,2.80,2.80
55.18,-2.73,-5.47,-2.73,-5.48,5.48,5.46,5.35,2.76,2.76,2.74
55.74,-2.73,-5.42,-2.71,-5.43,5.43,5.35,5.34,2.70,2.72,2.69
56.29,-2.73,-5.38,-2.70,-5.37,5.37,5.24,5.33,2.64,2.67,2.65
56.86,-2.73,-5.35,-2.68,-5.30,5.30,5.13,5.32,2.57,2.62,2.62
57.42,-2.73,-5.29,-2.66,-5.24,5.24,5.01,5.30,2.51,2.58,2.56
58.00,-2.73,-5.25,-2.64,-5.17,5.17,4.90,5.29,2.44,2.53,2.52
58.58,-2.60,-5.09,-2.62,-5.10,5.10,4.78,5.27,2.50,2.48,2.49
59.16,-2.51,-4.97,-2.59,-5.03,5.03,4.66,5.25,2.52,2.43,2.46
59.76,-2.51,-4.92,-2.57,-4.96,4.96,4.54,5.22,2.45,2.38,2.41
60.35,-2.51,-4.85,-2.55,-4.89,4.89,4.43,5.19,2.38,2.33,2.34
60.96,-2.51,-4.80,-2.54,-4.82,4.82,4.31,5.16,2.31,2.28,2.29
61.57,-2.51,-4.73,-2.52,-4.75,4.75,4.19,5.12,2.24,2.23,2.22
62.18,-2.51,-4.66,-2.51,-4.68,4.68,4.08,5.08,2.17,2.17,2.15
62.80,-2.51,-4.61,-2.50,-4.61,4.61,3.96,5.03,2.10,2.11,2.10
63.43,-2.51,-4.55,-2.49,-4.55,4.55,3.85,4.98,2.04,2.06,2.04
64.07,-2.51,-4.50,-2.49,-4.49,4.49,3.74,4.92,1.98,2.00,1.99
64.71,-2.51,-4.45,-2.49,-4.43,4.43,3.63,4.86,1.92,1.94,1.94
65.35,-2.51,-4.38,-2.50,-4.38,4.38,3.52,4.79,1.87,1.88,1.87
66.01,-2.51,-4.32,-2.51,-4.32,4.32,3.42,4.72,1.82,1.82,1.81
66.67,-2.51,-4.27,-2.51,-4.26,4.26,3.32,4.65,1.76,1.76,1.76
67.33,-2.51,-4.20,-2.51,-4.20,4.20,3.21,4.57,1.70,1.70,1.69
68.01,-2.51,-4.15,-2.51,-4.14,4.14,3.12,4.49,1.63,1.63,1.64
68.69,-2.51,-4.08,-2.51,-4.08,4.08,3.02,4.41,1.57,1.57,1.57
69.37,-2.51,-4.03,-2.51,-4.02,4.02,2.92,4.32,1.51,1.51,1.52
70.07,-2.51,-3.96,-2.51,-3.95,3.95,2.83,4.23,1.44,1.44,1.45
70.77,-2.51,-3.90,-2.51,-3.89,3.89,2.74,4.14,1.38,1.38,1.39
71.48,-2.51,-3.82,-2.51,-3.82,3.82,2.65,4.04,1.32,1.32,1.31
72.19,-2.51,-3.76,-2.51,-3.77,3.77,2.57,3.95,1.26,1.25,1.25
72.91,-2.51,-3.70,-2.52,-3.71,3.71,2.48,3.85,1.20,1.19,1.19
73.64,-2.51,-3.62,-2.52,-3.65,3.65,2.40,3.75,1.15,1.13,1.11
74.38,-2.51,-3.56,-2.52,-3.59,3.59,2.32,3.65,1.09,1.07,1.05
75.12,-2.51,-3.50,-2.52,-3.53,3.53,2.24,3.56,1.02,1.01,0.99
75.87,-2.51,-3.47,-2.51,-3.47,3.47,2.16,3.46,0.96,0.96,0.96
76.63,-2.51,-3.40,-2.50,-3.40,3.40,2.09,3.36,0.89,0.90,0.89
77.40,-2.51,-3.35,-2.48,-3.33,3.33,2.02,3.26,0.82,0.85,0.84
78.17,-2.51,-3.30,-2.46,-3.26,3.26,1.95,3.17,0.75,0.80,0.79
78.95,-2.51,-3.26,-2.44,-3.19,3.19,1.88,3.07,0.68,0.74,0.75
79.74,-2.51,-3.20,-2.42,-3.12,3.12,1.81,2.97,0.61,0.69,0.69
80.54,-2.43,-3.07,-2.40,-3.04,3.04,1.74,2.88,0.62,0.64,0.64
81.35,-2.33,-2.92,-2.38,-2.97,2.97,1.68,2.79,0.64,0.59,0.59
82.16,-2.28,-2.83,-2.36,-2.89,2.89,1.61,2.69,0.62,0.54,0.55
82.98,-2.28,-2.77,-2.34,-2.82,2.82,1.55,2.60,0.54,0.48,0.49
83.81,-2.28,-2.71,-2.32,-2.74,2.74,1.49,2.51,0.46,0.42,0.43
84.65,-2.28,-2.65,-2.30,-2.66,2.66,1.43,2.43,0.39,0.36,0.37
85.50,-2.28,-2.58,-2.28,-2.59,2.59,1.37,2.34,0.31,0.31,0.30
86.35,-2.28,-2.52,-2.27,-2.52,2.52,1.32,2.26,0.24,0.25,0.24
87.22,-2.28,-2.46,-2.26,-2.45,2.45,1.26,2.17,0.17,0.18,0.18
88.09,-2.28,-2.39,-2.26,-2.38,2.38,1.21,2.09,0.10,0.12,0.11
88.97,-2.28,-2.33,-2.26,-2.32,2.32,1.16,2.01,0.04,0.06,0.05
89.86,-2.28,-2.26,-2.27,-2.26,2.26,1.10,1.93,-0.02,-0.01,-0.02
90.76,-2.28,-2.19,-2.28,-2.20,2.20,1.05,1.86,-0.08,-0.08,-0.09
91.66,-2.28,-2.13,-2.28,-2.13,2.13,1.00,1.78,-0.15,-0.15,-0.15
92.58,-2.28,-2.07,-2.28,-2.06,2.06,0.95,1.71,-0.22,-0.22,-0.21
93.51,-2.28,-2.00,-2.28,-1.99,1.99,0.90,1.63,-0.29,-0.29,-0.28
94.44,-2.28,-1.94,-2.28,-1.92,1.92,0.86,1.56,-0.36,-0.36,-0.34
95.39,-2.28,-1.86,-2.28,-1.85,1.85,0.81,1.49,-0.43,-0.43,-0.42
96.34,-2.28,-1.78,-2.28,-1.78,1.78,0.76,1.42,-0.49,-0.49,-0.50
97.30,-2.28,-1.72,-2.28,-1.71,1.71,0.72,1.36,-0.56,-0.56,-0.56
98.28,-2.28,-1.63,-2.28,-1.64,1.64,0.67,1.29,-0.63,-0.63,-0.65
99.26,-2.28,-1.56,-2.28,-1.58,1.58,0.63,1.22,-0.70,-0.70,-0.72
100.25,-2.28,-1.50,-2.28,-1.51,1.51,0.59,1.16,-0.77,-0.77,-0.78
101.25,-2.28,-1.44,-2.28,-1.44,1.44,0.55,1.10,-0.83,-0.83,-0.84
102.27,-2.28,-1.37,-2.28,-1.38,1.38,0.50,1.04,-0.90,-0.90,-0.91
103.29,-2.28,-1.31,-2.28,-1.32,1.32,0.46,0.97,-0.96,-0.96,-0.97
104.32,-2.28,-1.26,-2.28,-1.26,1.26,0.42,0.92,-1.02,-1.02,-1.02
105.37,-2.28,-1.20,-2.28,-1.20,1.20,0.38,0.86,-1.08,-1.08,-1.08
106.42,-2.28,-1.14,-2.28,-1.14,1.14,0.34,0.80,-1.14,-1.14,-1.14
107.48,-2.28,-1.07,-2.28,-1.08,1.08,0.30,0.74,-1.19,-1.20,-1.21
108.56,-2.28,-1.03,-2.29,-1.04,1.04,0.26,0.69,-1.24,-1.25,-1.25
109.64,-2.28,-0.97,-2.30,-0.99,0.99,0.22,0.63,-1.29,-1.31,-1.31
110.74,-2.28,-0.91,-2.30,-0.93,0.93,0.18,0.58,-1.35,-1.37,-1.37
111.85,-2.28,-0.85,-2.29,-0.86,0.86,0.15,0.53,-1.41,-1.43,-1.43
112.97,-2.28,-0.80,-2.28,-0.79,0.79,0.11,0.47,-1.48,-1.49,-1.48
114.10,-2.28,-0.74,-2.27,-0.72,0.72,0.07,0.42,-1.56,-1.55,-1.54
115.24,-2.28,-0.67,-2.26,-0.64,0.64,0.03,0.37,-1.63,-1.61,-1.61
116.39,-2.28,-0.60,-2.24,-0.56,0.56,-0.00,0.32,-1.71,-1.67,-1.68
117.55,-2.28,-0.54,-2.22,-0.48,0.48,-0.04,0.27,-1.80,-1.74,-1.74
118.73,-2.28,-0.47,-2.20,-0.39,0.39,-0.08,0.23,-1.88,-1.80,-1.81
119.92,-2.27,-0.39,-2.17,-0.31,0.31,-0.11,0.18,-1.96,-1.87,-1.88
121.12,-2.05,-0.12,-2.15,-0.22,0.22,-0.15,0.13,-1.83,-1.93,-1.93
122.33,-2.05,-0.04,-2.13,-0.13,0.13,-0.19,0.09,-1.92,-2.00,-2.01
123.55,-2.05,0.01,-2.11,-0.04,0.04,-0.22,0.04,-2.01,-2.07,-2.06
124.79,-2.05,0.08,-2.09,0.05,-0.05,-0.26,-0.00,-2.10,-2.13,-2.13
126.03,-2.05,0.15,-2.07,0.13,-0.13,-0.29,-0.05,-2.18,-2.20,-2.20
127.29,-2.05,0.22,-2.05,0.21,-0.21,-0.33,-0.09,-2.26,-2.27,-2.27
128.57,-2.05,0.28,-2.04,0.29,-0.29,-0.36,-0.13,-2.34,-2.33,-2.33
129.85,-2.05,0.36,-2.03,0.37,-0.37,-0.40,-0.18,-2.41,-2.40,-2.41
131.15,-2.05,0.42,-2.03,0.44,-0.44,-0.44,-0.22,-2.48,-2.47,-2.47
132.46,-2.05,0.49,-2.03,0.50,-0.50,-0.47,-0.26,-2.55,-2.53,-2.54
133.79,-2.05,0.55,-2.04,0.56,-0.56,-0.51,-0.30,-2.60,-2.59,-2.60
135.12,-2.05,0.62,-2.05,0.61,-0.61,-0.54,-0.34,-2.65,-2.65,-2.67
136.48,-2.05,0.66,-2.05,0.67,-0.67,-0.58,-0.38,-2.71,-2.71,-2.71
137.84,-2.05,0.72,-2.05,0.73,-0.73,-0.61,-0.43,-2.77,-2.77,-2.77
139.22,-2.05,0.79,-2.05,0.78,-0.78,-0.65,-0.47,-2.83,-2.83,-2.84
140.61,-2.05,0.84,-2.05,0.84,-0.84,-0.68,-0.51,-2.88,-2.88,-2.89
142.02,-2.05,0.89,-2.05,0.89,-0.89,-0.72,-0.55,-2.94,-2.94,-2.94
143.44,-2.05,0.95,-2.05,0.94,-0.94,-0.76,-0.59,-2.99,-2.99,-3.00
144.87,-2.05,0.99,-2.05,0.99,-0.99,-0.79,-0.63,-3.04,-3.04,-3.04
146.32,-2.05,1.04,-2.05,1.04,-1.04,-0.83,-0.68,-3.09,-3.09,-3.09
147.78,-2.05,1.10,-2.05,1.09,-1.09,-0.86,-0.72,-3.14,-3.14,-3.15
149.26,-2.05,1.14,-2.05,1.14,-1.14,-0.90,-0.76,-3.19,-3.19,-3.19
150.75,-2.05,1.20,-2.05,1.19,-1.19,-0.94,-0.81,-3.24,-3.24,-3.25
152.26,-2.05,1.23,-2.05,1.24,-1.24,-0.97,-0.85,-3.29,-3.29,-3.28
153.78,-2.05,1.29,-2.05,1.29,-1.29,-1.01,-0.90,-3.34,-3.34,-3.34
155.32,-2.05,1.33,-2.05,1.34,-1.34,-1.05,-0.94,-3.38,-3.38,-3.38
156.88,-2.05,1.38,-2.05,1.38,-1.38,-1.08,-0.99,-3.43,-3.43,-3.43
158.44,-2.05,1.43,-2.05,1.43,-1.43,-1.12,-1.04,-3.48,-3.48,-3.48
160.03,-2.05,1.48,-2.05,1.48,-1.48,-1.16,-1.09,-3.53,-3.53,-3.53
161.63,-2.05,1.53,-2.05,1.53,-1.53,-1.20,-1.14,-3.58,-3.58,-3.58
163.24,-2.05,1.59,-2.05,1.58,-1.58,-1.23,-1.19,-3.63,-3.63,-3.64
164.88,-2.05,1.63,-2.05,1.63,-1.63,-1.27,-1.24,-3.68,-3.68,-3.68
166.53,-2.05,1.69,-2.05,1.68,-1.68,-1.31,-1.29,-3.73,-3.73,-3.74
168.19,-2.05,1.72,-2.05,1.73,-1.73,-1.35,-1.35,-3.78,-3.78,-3.77
169.87,-2.05,1.77,-2.05,1.78,-1.78,-1.39,-1.40,-3.83,-3.83,-3.82
171.57,-2.05,1.83,-2.05,1.83,-1.83,-1.43,-1.46,-3.88,-3.88,-3.88
173.29,-2.05,1.88,-2.05,1.88,-1.88,-1.47,-1.52,-3.93,-3.93,-3.93
175.02,-2.05,1.93,-2.05,1.93,-1.93,-1.50,-1.58,-3.98,-3.98,-3.98
176.77,-2.05,1.98,-2.05,1.98,-1.98,-1.54,-1.64,-4.03,-4.03,-4.03
178.54,-2.05,2.03,-2.05,2.04,-2.04,-1.58,-1.70,-4.08,-4.08,-4.08
180.32,-2.05,2.09,-2.05,2.09,-2.09,-1.62,-1.77,-4.13,-4.13,-4.14
182.13,-2.05,2.14,-2.05,2.14,-2.14,-1.66,-1.83,-4.19,-4.19,-4.19
183.95,-2.05,2.19,-2.05,2.19,-2.19,-1.70,-1.90,-4.24,-4.24,-4.24
185.79,-2.05,2.25,-2.05,2.24,-2.24,-1.74,-1.96,-4.29,-4.29,-4.30
187.65,-2.05,2.29,-2.05,2.29,-2.29,-1.79,-2.03,-4.34,-4.34,-4.34
189.52,-2.05,2.34,-2.05,2.34,-2.34,-1.83,-2.10,-4.39,-4.39,-4.39
191.42,-2.05,2.38,-2.05,2.39,-2.39,-1.87,-2.17,-4.43,-4.43,-4.43
193.33,-2.05,2.43,-2.05,2.43,-2.43,-1.91,-2.25,-4.48,-4.48,-4.48
195.27,-2.05,2.48,-2.05,2.48,-2.48,-1.95,-2.32,-4.52,-4.52,-4.53
197.22,-2.05,2.53,-2.05,2.52,-2.52,-1.99,-2.39,-4.57,-4.57,-4.58
199.19,-2.05,2.56,-2.05,2.56,-2.56,-2.03,-2.47,-4.61,-4.61,-4.61
201.18,-2.05,2.61,-2.05,2.60,-2.60,-2.08,-2.54,-4.65,-4.65,-4.66
203.19,-2.05,2.64,-2.05,2.64,-2.64,-2.12,-2.62,-4.68,-4.68,-4.69
205.23,-2.05,2.67,-2.05,2.67,-2.67,-2.16,-2.69,-4.72,-4.72,-4.72
207.28,-2.05,2.70,-2.05,2.71,-2.71,-2.20,-2.77,-4.76,-4.76,-4.75
209.35,-2.05,2.74,-2.05,2.74,-2.74,-2.25,-2.84,-4.79,-4.79,-4.79
211.44,-2.05,2.78,-2.05,2.78,-2.78,-2.29,-2.92,-4.83,-4.83,-4.83
213.56,-2.05,2.81,-2.05,2.81,-2.81,-2.33,-2.99,-4.86,-4.86,-4.86
215.69,-2.05,2.84,-2.05,2.84,-2.84,-2.38,-3.07,-4.89,-4.89,-4.89
217.85,-2.05,2.87,-2.06,2.87,-2.87,-2.42,-3.14,-4.92,-4.92,-4.92
220.03,-2.05,2.91,-2.06,2.89,-2.89,-2.46,-3.21,-4.94,-4.95,-4.96
222.23,-2.05,2.94,-2.07,2.92,-2.92,-2.50,-3.28,-4.97,-4.99,-4.99
224.45,-2.05,2.97,-2.06,2.95,-2.95,-2.55,-3.34,-5.00,-5.02,-5.02
226.70,-2.05,3.00,-2.06,2.99,-2.99,-2.59,-3.40,-5.04,-5.05,-5.05
228.96,-2.05,3.03,-2.04,3.03,-3.03,-2.63,-3.46,-5.08,-5.07,-5.08
231.25,-2.05,3.05,-2.03,3.07,-3.07,-2.67,-3.52,-5.12,-5.10,-5.10
233.57,-2.05,3.08,-2.01,3.11,-3.11,-2.72,-3.57,-5.16,-5.12,-5.13
235.90,-2.05,3.10,-1.99,3.15,-3.15,-2.76,-3.62,-5.20,-5.15,-5.15
238.26,-2.05,3.14,-1.97,3.20,-3.20,-2.80,-3.66,-5.25,-5.17,-5.19
240.64,-2.05,3.14,-1.95,3.24,-3.24,-2.84,-3.70,-5.29,-5.19,-5.19
243.05,-1.89,3.32,-1.93,3.29,-3.29,-2.88,-3.73,-5.17,-5.22,-5.21
245.48,-1.82,3.42,-1.91,3.33,-3.33,-2.93,-3.76,-5.15,-5.23,-5.24
247.93,-1.82,3.44,-1.88,3.37,-3.37,-2.97,-3.78,-5.19,-5.25,-5.26
250.41,-1.82,3.44,-1.86,3.40,-3.40,-3.01,-3.80,-5.22,-5.27,-5.26
252.92,-1.82,3.46,-1.85,3.44,-3.44,-3.05,-3.81,-5.25,-5.28,-5.28
255.45,-1.82,3.48,-1.83,3.47,-3.47,-3.09,-3.82,-5.29,-5.30,-5.30
258.00,-1.82,3.50,-1.82,3.49,-3.49,-3.13,-3.82,-5.31,-5.31,-5.32
260.58,-1.82,3.51,-1.81,3.52,-3.52,-3.16,-3.82,-5.33,-5.32,-5.33
263.19,-1.82,3.52,-1.80,3.53,-3.53,-3.20,-3.81,-5.35,-5.33,-5.34
265.82,-1.82,3.53,-1.80,3.54,-3.54,-3.24,-3.80,-5.36,-5.34,-5.35
268.48,-1.82,3.53,-1.80,3.55,-3.55,-3.28,-3.79,-5.37,-5.35,-5.35
271.16,-1.82,3.53,-1.81,3.54,-3.54,-3.31,-3.77,-5.36,-5.36,-5.35
273.87,-1.82,3.54,-1.82,3.55,-3.55,-3.35,-3.74,-5.36,-5.36,-5.36
276.61,-1.82,3.55,-1.82,3.55,-3.55,-3.38,-3.72,-5.37,-5.37,-5.37
279.38,-1.82,3.57,-1.82,3.56,-3.56,-3.42,-3.69,-5.37,-5.37,-5.39
282.17,-1.82,3.57,-1.82,3.56,-3.56,-3.45,-3.66,-5.38,-5.38,-5.39
284.99,-1.82,3.56,-1.82,3.56,-3.56,-3.48,-3.62,-5.38,-5.38,-5.38
287.84,-1.82,3.56,-1.82,3.56,-3.56,-3.51,-3.59,-5.38,-5.38,-5.38
290.72,-1.82,3.57,-1.82,3.56,-3.56,-3.54,-3.55,-5.38,-5.38,-5.39
293.63,-1.82,3.56,-1.82,3.56,-3.56,-3.57,-3.51,-5.38,-5.38,-5.38
296.57,-1.82,3.56,-1.82,3.56,-3.56,-3.60,-3.48,-5.38,-5.38,-5.38
299.53,-1.82,3.57,-1.82,3.56,-3.56,-3.62,-3.44,-5.38,-5.38,-5.39
302.53,-1.82,3.55,-1.82,3.56,-3.56,-3.65,-3.40,-5.38,-5.38,-5.37
305.55,-1.82,3.56,-1.82,3.56,-3.56,-3.67,-3.36,-5.38,-5.38,-5.38
308.61,-1.82,3.55,-1.82,3.56,-3.56,-3.69,-3.33,-5.38,-5.38,-5.37
311.69,-1.82,3.56,-1.82,3.56,-3.56,-3.71,-3.29,-5.37,-5.37,-5.38
314.81,-1.82,3.55,-1.82,3.55,-3.55,-3.73,-3.26,-5.37,-5.37,-5.37
317.96,-1.82,3.56,-1.82,3.55,-3.55,-3.75,-3.22,-5.37,-5.37,-5.38
321.14,-1.82,3.55,-1.82,3.55,-3.55,-3.77,-3.19,-5.37,-5.37,-5.37
324.35,-1.82,3.56,-1.82,3.55,-3.55,-3.78,-3.16,-5.36,-5.36,-5.38
327.59,-1.82,3.53,-1.82,3.54,-3.54,-3.80,-3.13,-5.36,-5.36,-5.35
330.87,-1.82,3.54,-1.82,3.54,-3.54,-3.81,-3.10,-5.35,-5.35,-5.36
334.18,-1.82,3.54,-1.82,3.53,-3.53,-3.82,-3.08,-5.35,-5.35,-5.36
337.52,-1.82,3.53,-1.82,3.53,-3.53,-3.83,-3.06,-5.34,-5.34,-5.35
340.90,-1.82,3.52,-1.82,3.52,-3.52,-3.84,-3.04,-5.34,-5.34,-5.34
344.30,-1.82,3.51,-1.82,3.51,-3.51,-3.84,-3.02,-5.33,-5.33,-5.33
347.75,-1.82,3.50,-1.82,3.50,-3.50,-3.85,-3.00,-5.32,-5.32,-5.32
351.23,-1.82,3.51,-1.82,3.50,-3.50,-3.85,-2.99,-5.32,-5.32,-5.33
354.74,-1.82,3.48,-1.82,3.49,-3.49,-3.85,-2.98,-5.31,-5.31,-5.30
358.28,-1.82,3.48,-1.82,3.48,-3.48,-3.86,-2.97,-5.30,-5.30,-5.30
361.87,-1.82,3.48,-1.82,3.48,-3.48,-3.85,-2.96,-5.29,-5.29,-5.30
365.49,-1.82,3.47,-1.82,3.47,-3.47,-3.85,-2.96,-5.29,-5.29,-5.29
369.14,-1.82,3.46,-1.82,3.46,-3.46,-3.85,-2.96,-5.28,-5.28,-5.28
372.83,-1.82,3.45,-1.82,3.46,-3.46,-3.84,-2.96,-5.28,-5.28,-5.27
376.56,-1.82,3.46,-1.82,3.46,-3.46,-3.83,-2.96,-5.27,-5.27,-5.28
380.33,-1.82,3.45,-1.82,3.45,-3.45,-3.83,-2.97,-5.27,-5.27,-5.27
384.13,-1.82,3.44,-1.82,3.45,-3.45,-3.82,-2.97,-5.27,-5.27,-5.26
387.97,-1.82,3.44,-1.82,3.44,-3.44,-3.81,-2.98,-5.26,-5.26,-5.26
391.85,-1.82,3.44,-1.82,3.44,-3.44,-3.79,-2.99,-5.26,-5.26,-5.26
395.77,-1.82,3.45,-1.82,3.43,-3.43,-3.78,-3.00,-5.25,-5.25,-5.27
399.73,-1.82,3.44,-1.82,3.43,-3.43,-3.76,-3.02,-5.25,-5.25,-5.26
403.72,-1.82,3.42,-1.82,3.42,-3.42,-3.75,-3.03,-5.24,-5.24,-5.24
407.76,-1.82,3.42,-1.82,3.42,-3.42,-3.73,-3.05,-5.23,-5.23,-5.24
411.84,-1.82,3.41,-1.82,3.41,-3.41,-3.71,-3.07,-5.23,-5.23,-5.23
415.96,-1.82,3.40,-1.82,3.40,-3.40,-3.69,-3.09,-5.22,-5.22,-5.22
420.12,-1.82,3.40,-1.82,3.39,-3.39,-3.67,-3.11,-5.21,-5.21,-5.22
424.32,-1.82,3.38,-1.82,3.38,-3.38,-3.65,-3.13,-5.20,-5.20,-5.20
428.56,-1.82,3.36,-1.82,3.37,-3.37,-3.63,-3.15,-5.19,-5.19,-5.18
432.85,-1.82,3.35,-1.82,3.36,-3.36,-3.60,-3.17,-5.17,-5.17,-5.17
437.18,-1.82,3.34,-1.82,3.34,-3.34,-3.58,-3.19,-5.16,-5.16,-5.16
441.55,-1.82,3.34,-1.82,3.33,-3.33,-3.55,-3.21,-5.15,-5.15,-5.16
445.96,-1.82,3.32,-1.82,3.32,-3.32,-3.53,-3.23,-5.13,-5.13,-5.14
450.42,-1.82,3.31,-1.82,3.30,-3.30,-3.50,-3.25,-5.12,-5.12,-5.13
454.93,-1.82,3.29,-1.82,3.29,-3.29,-3.48,-3.27,-5.11,-5.11,-5.11
459.48,-1.82,3.28,-1.82,3.28,-3.28,-3.45,-3.29,-5.09,-5.09,-5.10
464.07,-1.82,3.26,-1.82,3.26,-3.26,-3.42,-3.30,-5.08,-5.08,-5.08
