frequency,raw,error,smoothed,error_smoothed,equalization,parametric_eq,fixed_band_eq,equalized_raw,equalized_smoothed,target
20.00,2.56,-2.50,2.54,-2.55,2.55,2.12,0.34,5.11,5.09,5.06
20.20,2.63,-2.48,2.62,-2.51,2.51,2.08,0.35,5.14,5.12,5.11
20.40,2.70,-2.46,2.70,-2.46,2.46,2.03,0.36,5.16,5.16,5.16
20.61,2.77,-2.42,2.77,-2.42,2.42,1.99,0.37,5.18,5.19,5.18
20.81,2.84,-2.39,2.85,-2.37,2.37,1.95,0.39,5.21,5.22,5.23
21.02,2.91,-2.36,2.93,-2.32,2.32,1.91,0.40,5.22,5.25,5.27
21.23,2.99,-2.30,3.01,-2.26,2.26,1.86,0.41,5.25,5.27,5.29
21.44,3.07,-2.24,3.09,-2.21,2.21,1.82,0.43,5.28,5.29,5.31
21.66,3.16,-2.17,3.16,-2.15,2.15,1.78,0.44,5.31,5.31,5.33
21.87,3.24,-2.10,3.24,-2.09,2.09,1.74,0.45,5.34,5.33,5.34
22.09,3.32,-2.04,3.31,-2.03,2.03,1.70,0.47,5.35,5.35,5.36
22.31,3.39,-1.98,3.39,-1.97,1.97,1.66,0.48,5.36,5.36,5.37
22.54,3.46,-1.91,3.47,-1.90,1.90,1.62,0.50,5.36,5.37,5.37
22.76,3.53,-1.84,3.54,-1.83,1.83,1.58,0.52,5.36,5.37,5.37
22.99,3.60,-1.76,3.62,-1.75,1.75,1.54,0.53,5.35,5.37,5.36
23.22,3.68,-1.68,3.69,-1.68,1.68,1.51,0.55,5.36,5.37,5.36
23.45,3.76,-1.60,3.76,-1.61,1.61,1.47,0.57,5.37,5.37,5.36
23.69,3.85,-1.52,3.83,-1.54,1.54,1.44,0.58,5.39,5.37,5.37
23.92,3.93,-1.44,3.90,-1.48,1.48,1.40,0.60,5.41,5.37,5.37
24.16,3.99,-1.38,3.96,-1.41,1.41,1.37,0.62,5.40,5.37,5.37
24.40,4.04,-1.34,4.02,-1.35,1.35,1.33,0.64,5.39,5.37,5.38
24.65,4.08,-1.29,4.09,-1.28,1.28,1.30,0.66,5.36,5.37,5.37
24.89,4.13,-1.24,4.15,-1.22,1.22,1.26,0.68,5.35,5.37,5.37
25.14,4.18,-1.19,4.21,-1.17,1.17,1.23,0.70,5.35,5.37,5.37
25.39,4.24,-1.14,4.26,-1.11,1.11,1.20,0.71,5.35,5.37,5.38
25.65,4.30,-1.08,4.31,-1.06,1.06,1.17,0.73,5.36,5.37,5.38
25.91,4.36,-1.01,4.36,-1.01,1.01,1.14,0.75,5.37,5.37,5.37
26.16,4.41,-0.96,4.40,-0.97,0.97,1.11,0.77,5.38,5.37,5.37
26.43,4.46,-0.91,4.45,-0.92,0.92,1.08,0.79,5.38,5.37,5.36
26.69,4.51,-0.85,4.48,-0.88,0.88,1.05,0.81,5.39,5.37,5.36
26.96,4.56,-0.81,4.52,-0.84,0.84,1.03,0.83,5.40,5.36,5.37
27.23,4.58,-0.79,4.56,-0.80,0.80,1.00,0.85,5.38,5.36,5.37
27.50,4.60,-0.77,4.60,-0.76,0.76,0.97,0.87,5.36,5.36,5.37
27.77,4.62,-0.74,4.63,-0.73,0.73,0.94,0.88,5.35,5.36,5.36
28.05,4.64,-0.72,4.66,-0.70,0.70,0.92,0.90,5.34,5.36,5.36
28.33,4.66,-0.69,4.69,-0.67,0.67,0.89,0.91,5.33,5.35,5.34
28.62,4.69,-0.65,4.71,-0.65,0.65,0.87,0.93,5.34,5.35,5.34
28.90,4.72,-0.63,4.73,-0.63,0.63,0.85,0.94,5.34,5.35,5.35
29.19,4.75,-0.59,4.75,-0.60,0.60,0.82,0.96,5.35,5.35,5.34
29.48,4.78,-0.58,4.77,-0.58,0.58,0.80,0.97,5.36,5.35,5.36
29.78,4.82,-0.53,4.79,-0.56,0.56,0.78,0.98,5.37,5.35,5.35
30.08,4.84,-0.51,4.81,-0.53,0.53,0.75,0.98,5.37,5.34,5.35
30.38,4.83,-0.51,4.83,-0.51,0.51,0.73,0.99,5.34,5.34,5.34
30.68,4.83,-0.51,4.85,-0.49,0.49,0.71,1.00,5.32,5.34,5.34
30.99,4.82,-0.52,4.87,-0.47,0.47,0.69,1.00,5.29,5.34,5.34
31.30,4.86,-0.48,4.88,-0.46,0.46,0.67,1.00,5.31,5.34,5.33
31.61,4.89,-0.44,4.89,-0.44,0.44,0.65,1.00,5.33,5.33,5.33
31.93,4.93,-0.40,4.90,-0.43,0.43,0.63,1.00,5.36,5.33,5.33
32.24,4.94,-0.38,4.91,-0.42,0.42,0.61,1.00,5.36,5.32,5.32
32.57,4.93,-0.39,4.91,-0.41,0.41,0.59,1.00,5.34,5.32,5.32
32.89,4.92,-0.40,4.92,-0.40,0.40,0.57,0.99,5.32,5.31,5.32
33.22,4.92,-0.39,4.92,-0.39,0.39,0.56,0.99,5.31,5.31,5.31
33.55,4.92,-0.39,4.92,-0.38,0.38,0.54,0.98,5.30,5.30,5.30
33.89,4.92,-0.37,4.93,-0.37,0.37,0.52,0.97,5.29,5.30,5.29
34.23,4.92,-0.38,4.93,-0.36,0.36,0.50,0.96,5.28,5.29,5.30
34.57,4.92,-0.37,4.93,-0.36,0.36,0.49,0.95,5.28,5.29,5.28
34.92,4.92,-0.36,4.92,-0.36,0.36,0.47,0.93,5.28,5.28,5.28
35.27,4.92,-0.36,4.92,-0.36,0.36,0.45,0.92,5.28,5.28,5.28
35.62,4.92,-0.35,4.92,-0.36,0.36,0.44,0.91,5.28,5.28,5.27
35.97,4.92,-0.35,4.92,-0.35,0.35,0.42,0.89,5.27,5.27,5.27
36.33,4.92,-0.36,4.92,-0.35,0.35,0.41,0.88,5.27,5.27,5.27
36.70,4.92,-0.34,4.92,-0.35,0.35,0.39,0.86,5.27,5.27,5.26
37.06,4.92,-0.34,4.92,-0.35,0.35,0.38,0.84,5.27,5.27,5.26
37.43,4.92,-0.35,4.92,-0.34,0.34,0.36,0.83,5.26,5.27,5.27
37.81,4.92,-0.35,4.93,-0.34,0.34,0.35,0.81,5.26,5.27,5.27
38.19,4.92,-0.34,4.93,-0.34,0.34,0.33,0.79,5.26,5.26,5.26
38.57,4.92,-0.35,4.92,-0.34,0.34,0.32,0.78,5.26,5.26,5.27
38.95,4.92,-0.35,4.92,-0.34,0.34,0.31,0.76,5.26,5.26,5.27
39.34,4.92,-0.35,4.91,-0.35,0.35,0.29,0.74,5.27,5.26,5.26
39.74,4.92,-0.34,4.91,-0.35,0.35,0.28,0.73,5.27,5.26,5.26
40.14,4.92,-0.34,4.90,-0.36,0.36,0.26,0.71,5.28,5.26,5.26
40.54,4.92,-0.34,4.89,-0.37,0.37,0.25,0.69,5.28,5.26,5.26
40.94,4.92,-0.33,4.88,-0.37,0.37,0.24,0.68,5.29,5.25,5.25
41.35,4.88,-0.36,4.87,-0.37,0.37,0.23,0.66,5.25,5.24,5.24
41.76,4.84,-0.40,4.86,-0.37,0.37,0.21,0.65,5.21,5.24,5.23
42.18,4.81,-0.43,4.85,-0.37,0.37,0.20,0.63,5.18,5.23,5.24
42.60,4.82,-0.40,4.84,-0.37,0.37,0.19,0.62,5.19,5.21,5.22
43.03,4.82,-0.39,4.84,-0.36,0.36,0.17,0.61,5.18,5.20,5.21
43.46,4.82,-0.38,4.84,-0.35,0.35,0.16,0.59,5.17,5.19,5.20
43.90,4.82,-0.36,4.83,-0.34,0.34,0.15,0.58,5.16,5.18,5.17
44.33,4.82,-0.34,4.83,-0.33,0.33,0.14,0.57,5.15,5.16,5.16
44.78,4.82,-0.32,4.82,-0.33,0.33,0.13,0.56,5.15,5.15,5.14
45.23,4.82,-0.31,4.81,-0.32,0.32,0.11,0.54,5.14,5.13,5.13
45.68,4.82,-0.29,4.80,-0.31,0.31,0.10,0.53,5.13,5.12,5.11
46.13,4.82,-0.27,4.79,-0.31,0.31,0.09,0.52,5.13,5.10,5.09
46.60,4.82,-0.27,4.77,-0.31,0.31,0.08,0.51,5.13,5.08,5.08
47.06,4.82,-0.24,4.77,-0.30,0.30,0.07,0.50,5.12,5.07,5.06
47.53,4.78,-0.27,4.76,-0.29,0.29,0.06,0.49,5.06,5.05,5.05
48.01,4.74,-0.31,4.75,-0.28,0.28,0.04,0.49,5.02,5.03,5.05
48.49,4.69,-0.34,4.73,-0.29,0.29,0.03,0.48,4.97,5.02,5.03
48.97,4.63,-0.38,4.71,-0.29,0.29,0.02,0.47,4.92,5.00,5.00
49.46,4.63,-0.35,4.68,-0.30,0.30,0.01,0.46,4.93,4.99,4.98
49.96,4.63,-0.33,4.66,-0.31,0.31,-0.00,0.45,4.94,4.97,4.96
50.46,4.63,-0.32,4.64,-0.32,0.32,-0.01,0.45,4.94,4.95,4.95
50.96,4.63,-0.31,4.62,-0.32,0.32,-0.03,0.44,4.95,4.94,4.94
51.47,4.68,-0.23,4.59,-0.33,0.33,-0.04,0.43,5.01,4.92,4.91
51.99,4.73,-0.17,4.56,-0.35,0.35,-0.05,0.42,5.07,4.91,4.90
52.51,4.54,-0.35,4.53,-0.37,0.37,-0.06,0.42,4.91,4.89,4.89
53.03,4.36,-0.52,4.49,-0.38,0.38,-0.07,0.41,4.74,4.88,4.88
53.56,4.41,-0.46,4.47,-0.39,0.39,-0.08,0.40,4.80,4.86,4.87
54.10,4.44,-0.41,4.44,-0.41,0.41,-0.10,0.39,4.85,4.85,4.85
54.64,4.42,-0.41,4.40,-0.44,0.44,-0.11,0.38,4.86,4.83,4.83
55.18,4.39,-0.43,4.35,-0.47,0.47,-0.12,0.37,4.86,4.82,4.82
55.74,4.33,-0.47,4.30,-0.50,0.50,-0.13,0.37,4.83,4.80,4.80
56.29,4.25,-0.54,4.25,-0.53,0.53,-0.14,0.36,4.78,4.79,4.79
56.86,4.15,-0.62,4.21,-0.56,0.56,-0.16,0.34,4.71,4.77,4.77
57.42,4.12,-0.61,4.17,-0.58,0.58,-0.17,0.33,4.70,4.75,4.73
58.00,4.12,-0.60,4.13,-0.60,0.60,-0.18,0.32,4.72,4.72,4.72
58.58,4.18,-0.53,4.10,-0.60,0.60,-0.19,0.31,4.78,4.70,4.71
59.16,4.16,-0.53,4.06,-0.61,0.61,-0.20,0.30,4.77,4.67,4.68
59.76,3.93,-0.73,4.01,-0.63,0.63,-0.22,0.28,4.56,4.64,4.66
60.35,3.88,-0.73,3.97,-0.63,0.63,-0.23,0.26,4.51,4.60,4.61
60.96,3.95,-0.63,3.94,-0.63,0.63,-0.24,0.25,4.57,4.56,4.58
61.57,3.94,-0.59,3.90,-0.62,0.62,-0.25,0.23,4.56,4.52,4.53
62.18,3.91,-0.57,3.87,-0.61,0.61,-0.27,0.21,4.52,4.48,4.48
62.80,3.86,-0.57,3.84,-0.60,0.60,-0.28,0.19,4.46,4.44,4.43
63.43,3.81,-0.57,3.81,-0.57,0.57,-0.29,0.17,4.38,4.39,4.38
64.07,3.76,-0.57,3.79,-0.55,0.55,-0.31,0.15,4.31,4.34,4.33
64.71,3.76,-0.52,3.77,-0.52,0.52,-0.32,0.12,4.27,4.29,4.28
65.35,3.76,-0.48,3.76,-0.47,0.47,-0.33,0.10,4.23,4.23,4.23
66.01,3.76,-0.42,3.76,-0.42,0.42,-0.35,0.07,4.18,4.18,4.18
66.67,3.76,-0.37,3.77,-0.36,0.36,-0.36,0.04,4.12,4.13,4.13
67.33,3.72,-0.35,3.77,-0.30,0.30,-0.38,0.01,4.02,4.08,4.07
68.01,3.65,-0.37,3.77,-0.25,0.25,-0.39,-0.02,3.90,4.02,4.02
68.69,3.79,-0.18,3.78,-0.18,0.18,-0.41,-0.05,3.97,3.96,3.97
69.37,3.86,-0.05,3.79,-0.11,0.11,-0.42,-0.08,3.97,3.91,3.91
70.07,3.86,0.01,3.81,-0.04,0.04,-0.44,-0.11,3.90,3.85,3.85
70.77,3.86,0.06,3.82,0.03,-0.03,-0.45,-0.15,3.83,3.79,3.80
71.48,3.86,0.12,3.83,0.11,-0.11,-0.47,-0.18,3.75,3.73,3.74
72.19,3.86,0.19,3.84,0.18,-0.18,-0.48,-0.22,3.68,3.66,3.67
72.91,3.86,0.26,3.85,0.25,-0.25,-0.50,-0.25,3.61,3.60,3.60
73.64,3.86,0.32,3.86,0.32,-0.32,-0.52,-0.29,3.54,3.54,3.54
74.38,3.86,0.39,3.87,0.39,-0.39,-0.53,-0.33,3.47,3.48,3.47
75.12,3.86,0.45,3.87,0.46,-0.46,-0.55,-0.37,3.40,3.41,3.41
75.87,3.86,0.52,3.87,0.52,-0.52,-0.57,-0.41,3.34,3.35,3.34
76.63,3.86,0.58,3.86,0.58,-0.58,-0.58,-0.45,3.28,3.29,3.28
77.40,3.86,0.64,3.86,0.63,-0.63,-0.60,-0.49,3.23,3.23,3.22
78.17,3.86,0.71,3.86,0.69,-0.69,-0.62,-0.54,3.17,3.17,3.15
78.95,3.86,0.75,3.86,0.75,-0.75,-0.64,-0.58,3.11,3.11,3.11
79.74,3.86,0.81,3.85,0.80,-0.80,-0.66,-0.62,3.06,3.05,3.05
80.54,3.86,0.86,3.85,0.86,-0.86,-0.68,-0.67,3.00,2.99,3.00
81.35,3.86,0.93,3.86,0.92,-0.92,-0.70,-0.72,2.94,2.94,2.93
82.16,3.86,0.98,3.87,0.99,-0.99,-0.72,-0.76,2.87,2.88,2.88
82.98,3.86,1.03,3.88,1.06,-1.06,-0.74,-0.81,2.80,2.82,2.83
83.81,3.86,1.09,3.89,1.12,-1.12,-0.76,-0.86,2.74,2.77,2.77
84.65,3.86,1.15,3.88,1.17,-1.17,-0.78,-0.91,2.69,2.71,2.71
85.50,3.86,1.20,3.88,1.22,-1.22,-0.80,-0.96,2.64,2.65,2.66
86.35,3.86,1.26,3.86,1.27,-1.27,-0.82,-1.01,2.59,2.60,2.60
87.22,3.86,1.32,3.85,1.31,-1.31,-0.85,-1.06,2.55,2.54,2.54
88.09,3.87,1.39,3.85,1.37,-1.37,-0.87,-1.11,2.50,2.48,2.48
88.97,3.96,1.54,3.84,1.42,-1.42,-0.89,-1.17,2.54,2.42,2.42
89.86,3.96,1.60,3.83,1.47,-1.47,-0.92,-1.22,2.49,2.36,2.36
90.76,3.82,1.52,3.81,1.51,-1.51,-0.94,-1.28,2.31,2.30,2.30
91.66,3.71,1.47,3.79,1.55,-1.55,-0.97,-1.33,2.16,2.24,2.24
92.58,3.62,1.45,3.76,1.58,-1.58,-0.99,-1.39,2.04,2.18,2.17
93.51,3.62,1.50,3.72,1.60,-1.60,-1.02,-1.45,2.02,2.12,2.12
94.44,3.66,1.60,3.69,1.63,-1.63,-1.05,-1.50,2.03,2.06,2.06
95.39,3.70,1.69,3.65,1.64,-1.64,-1.07,-1.56,2.05,2.00,2.01
96.34,3.76,1.82,3.61,1.66,-1.66,-1.10,-1.62,2.09,1.94,1.94
97.30,3.70,1.82,3.58,1.69,-1.69,-1.13,-1.68,2.01,1.89,1.88
98.28,3.55,1.72,3.54,1.71,-1.71,-1.16,-1.74,1.84,1.83,1.83
99.26,3.47,1.70,3.51,1.74,-1.74,-1.19,-1.81,1.73,1.77,1.77
100.25,3.35,1.64,3.48,1.77,-1.77,-1.22,-1.87,1.58,1.71,1.71
101.25,3.37,1.71,3.46,1.80,-1.80,-1.25,-1.93,1.57,1.65,1.66
102.27,3.40,1.80,3.43,1.83,-1.83,-1.28,-1.99,1.57,1.60,1.60
103.29,3.39,1.86,3.39,1.85,-1.85,-1.31,-2.05,1.53,1.54,1.53
104.32,3.37,1.89,3.35,1.87,-1.87,-1.35,-2.11,1.50,1.48,1.48
105.37,3.36,1.93,3.30,1.89,-1.89,-1.38,-2.17,1.47,1.42,1.42
106.42,3.39,2.02,3.27,1.91,-1.91,-1.42,-2.23,1.48,1.36,1.37
107.48,3.33,2.03,3.24,1.95,-1.95,-1.45,-2.29,1.38,1.29,1.30
108.56,3.20,1.97,3.23,1.99,-1.99,-1.49,-2.35,1.21,1.23,1.23
109.64,3.15,1.97,3.21,2.04,-2.04,-1.53,-2.41,1.11,1.17,1.17
110.74,3.13,2.02,3.20,2.09,-2.09,-1.56,-2.47,1.04,1.11,1.11
111.85,3.11,2.05,3.18,2.14,-2.14,-1.60,-2.52,0.97,1.05,1.06
112.97,3.11,2.13,3.15,2.17,-2.17,-1.64,-2.57,0.94,0.99,0.98
114.10,3.10,2.17,3.12,2.20,-2.20,-1.68,-2.62,0.90,0.93,0.93
115.24,3.11,2.24,3.10,2.23,-2.23,-1.72,-2.67,0.88,0.87,0.87
116.39,3.13,2.33,3.08,2.27,-2.27,-1.76,-2.71,0.86,0.82,0.80
117.55,3.17,2.41,3.07,2.30,-2.30,-1.80,-2.75,0.87,0.77,0.76
118.73,3.12,2.42,3.05,2.33,-2.33,-1.85,-2.79,0.78,0.72,0.70
119.92,3.03,2.36,3.04,2.37,-2.37,-1.89,-2.83,0.66,0.67,0.67
121.12,3.03,2.41,3.03,2.41,-2.41,-1.94,-2.86,0.62,0.62,0.62
122.33,3.02,2.45,3.01,2.44,-2.44,-1.98,-2.89,0.58,0.58,0.57
123.55,2.95,2.41,2.99,2.46,-2.46,-2.03,-2.91,0.49,0.53,0.54
124.79,2.88,2.38,2.97,2.48,-2.48,-2.07,-2.93,0.40,0.49,0.50
126.03,2.97,2.51,2.96,2.50,-2.50,-2.12,-2.95,0.47,0.45,0.46
127.29,3.00,2.57,2.95,2.54,-2.54,-2.17,-2.96,0.46,0.41,0.43
128.57,2.94,2.56,2.94,2.57,-2.57,-2.22,-2.97,0.37,0.37,0.38
129.85,2.88,2.54,2.93,2.59,-2.59,-2.27,-2.98,0.29,0.34,0.34
131.15,2.89,2.59,2.91,2.62,-2.62,-2.32,-2.98,0.27,0.30,0.30
132.46,2.89,2.63,2.91,2.64,-2.64,-2.37,-2.98,0.24,0.26,0.26
133.79,2.90,2.68,2.90,2.67,-2.67,-2.42,-2.97,0.23,0.22,0.22
135.12,2.90,2.72,2.88,2.69,-2.69,-2.47,-2.97,0.21,0.19,0.18
136.48,2.90,2.75,2.87,2.71,-2.71,-2.52,-2.96,0.19,0.15,0.15
137.84,2.91,2.80,2.85,2.73,-2.73,-2.57,-2.95,0.17,0.12,0.11
139.22,2.94,2.87,2.84,2.76,-2.76,-2.62,-2.93,0.18,0.08,0.07
140.61,2.90,2.88,2.83,2.79,-2.79,-2.68,-2.92,0.11,0.04,0.02
142.02,2.70,2.70,2.82,2.82,-2.82,-2.73,-2.90,-0.12,-0.00,0.00
143.44,2.71,2.75,2.80,2.85,-2.85,-2.78,-2.88,-0.14,-0.04,-0.04
144.87,2.72,2.81,2.79,2.88,-2.88,-2.83,-2.87,-0.16,-0.09,-0.09
146.32,2.72,2.85,2.76,2.91,-2.91,-2.88,-2.85,-0.19,-0.14,-0.14
147.78,2.72,2.89,2.73,2.93,-2.93,-2.94,-2.83,-0.21,-0.20,-0.17
149.26,2.72,2.95,2.70,2.96,-2.96,-2.99,-2.81,-0.25,-0.26,-0.23
150.75,2.72,3.02,2.67,3.00,-3.00,-3.04,-2.79,-0.28,-0.33,-0.30
152.26,2.75,3.13,2.63,3.03,-3.03,-3.09,-2.77,-0.28,-0.40,-0.38
153.78,2.75,3.20,2.59,3.06,-3.06,-3.14,-2.75,-0.31,-0.47,-0.45
155.32,2.58,3.11,2.56,3.11,-3.11,-3.19,-2.74,-0.53,-0.55,-0.53
156.88,2.47,3.09,2.54,3.16,-3.16,-3.23,-2.72,-0.69,-0.63,-0.62
158.44,2.48,3.19,2.51,3.22,-3.22,-3.28,-2.71,-0.74,-0.70,-0.71
160.03,2.43,3.23,2.48,3.26,-3.26,-3.32,-2.69,-0.83,-0.78,-0.80
161.63,2.34,3.21,2.44,3.29,-3.29,-3.37,-2.68,-0.95,-0.85,-0.87
163.24,2.36,3.30,2.40,3.32,-3.32,-3.41,-2.67,-0.96,-0.92,-0.94
164.88,2.38,3.38,2.37,3.35,-3.35,-3.45,-2.66,-0.97,-0.98,-1.00
166.53,2.27,3.32,2.34,3.37,-3.37,-3.49,-2.66,-1.10,-1.04,-1.05
168.19,2.32,3.42,2.31,3.39,-3.39,-3.52,-2.65,-1.07,-1.08,-1.10
169.87,2.36,3.50,2.29,3.41,-3.41,-3.55,-2.65,-1.05,-1.12,-1.14
171.57,2.35,3.52,2.27,3.43,-3.43,-3.59,-2.65,-1.08,-1.15,-1.17
173.29,2.32,3.51,2.26,3.44,-3.44,-3.61,-2.65,-1.12,-1.18,-1.19
175.02,2.21,3.41,2.25,3.45,-3.45,-3.64,-2.65,-1.24,-1.20,-1.20
176.77,2.19,3.41,2.23,3.44,-3.44,-3.66,-2.66,-1.25,-1.21,-1.22
178.54,2.19,3.42,2.21,3.43,-3.43,-3.68,-2.67,-1.24,-1.23,-1.23
180.32,2.19,3.42,2.19,3.43,-3.43,-3.70,-2.68,-1.24,-1.24,-1.23
182.13,2.20,3.42,2.17,3.42,-3.42,-3.71,-2.69,-1.22,-1.25,-1.23
183.95,2.21,3.45,2.16,3.42,-3.42,-3.72,-2.70,-1.21,-1.26,-1.24
185.79,2.14,3.39,2.15,3.43,-3.43,-3.73,-2.72,-1.29,-1.27,-1.25
187.65,2.10,3.37,2.14,3.43,-3.43,-3.73,-2.74,-1.33,-1.29,-1.27
189.52,2.07,3.36,2.13,3.43,-3.43,-3.73,-2.76,-1.36,-1.30,-1.29
191.42,2.07,3.38,2.11,3.43,-3.43,-3.73,-2.78,-1.36,-1.32,-1.31
193.33,2.08,3.41,2.10,3.44,-3.44,-3.73,-2.80,-1.36,-1.34,-1.34
195.27,2.10,3.46,2.09,3.45,-3.45,-3.72,-2.83,-1.35,-1.36,-1.36
197.22,2.11,3.49,2.08,3.46,-3.46,-3.70,-2.85,-1.35,-1.38,-1.38
199.19,2.14,3.55,2.07,3.48,-3.48,-3.69,-2.88,-1.34,-1.40,-1.41
201.18,2.16,3.59,2.06,3.49,-3.49,-3.67,-2.91,-1.33,-1.43,-1.43
203.19,2.09,3.54,2.05,3.50,-3.50,-3.65,-2.94,-1.41,-1.45,-1.45
205.23,2.01,3.49,2.04,3.51,-3.51,-3.63,-2.97,-1.50,-1.48,-1.48
207.28,1.94,3.43,2.02,3.52,-3.52,-3.60,-3.00,-1.58,-1.50,-1.49
209.35,1.92,3.44,2.00,3.52,-3.52,-3.57,-3.03,-1.60,-1.52,-1.52
211.44,1.93,3.48,1.97,3.52,-3.52,-3.54,-3.07,-1.59,-1.54,-1.55
213.56,1.96,3.52,1.94,3.50,-3.50,-3.50,-3.10,-1.54,-1.56,-1.56
215.69,1.97,3.55,1.90,3.48,-3.48,-3.47,-3.13,-1.51,-1.58,-1.58
217.85,1.96,3.55,1.86,3.45,-3.45,-3.43,-3.16,-1.49,-1.59,-1.59
220.03,1.87,3.48,1.81,3.42,-3.42,-3.39,-3.19,-1.55,-1.60,-1.61
222.23,1.79,3.42,1.77,3.38,-3.38,-3.35,-3.21,-1.59,-1.61,-1.63
224.45,1.74,3.36,1.74,3.36,-3.36,-3.30,-3.24,-1.62,-1.62,-1.63
226.70,1.67,3.30,1.71,3.33,-3.33,-3.26,-3.26,-1.67,-1.62,-1.63
228.96,1.64,3.26,1.68,3.30,-3.30,-3.21,-3.28,-1.66,-1.62,-1.62
231.25,1.62,3.23,1.65,3.26,-3.26,-3.16,-3.30,-1.64,-1.62,-1.61
233.57,1.57,3.18,1.61,3.21,-3.21,-3.12,-3.32,-1.65,-1.61,-1.61
235.90,1.54,3.14,1.57,3.17,-3.17,-3.07,-3.33,-1.63,-1.59,-1.60
238.26,1.50,3.09,1.55,3.13,-3.13,-3.02,-3.33,-1.63,-1.58,-1.59
240.64,1.51,3.08,1.53,3.09,-3.09,-2.97,-3.34,-1.58,-1.56,-1.57
243.05,1.52,3.06,1.51,3.05,-3.05,-2.91,-3.34,-1.54,-1.54,-1.54
245.48,1.56,3.08,1.50,3.02,-3.02,-2.86,-3.33,-1.46,-1.52,-1.52
247.93,1.59,3.08,1.48,2.98,-2.98,-2.81,-3.32,-1.40,-1.50,-1.49
250.41,1.42,2.90,1.46,2.95,-2.95,-2.76,-3.31,-1.53,-1.48,-1.48
252.92,1.39,2.84,1.45,2.91,-2.91,-2.71,-3.29,-1.52,-1.46,-1.45
255.45,1.42,2.85,1.44,2.88,-2.88,-2.66,-3.27,-1.46,-1.44,-1.43
258.00,1.44,2.85,1.42,2.83,-2.83,-2.61,-3.24,-1.39,-1.41,-1.41
260.58,1.46,2.85,1.40,2.79,-2.79,-2.55,-3.21,-1.33,-1.39,-1.40
263.19,1.41,2.77,1.37,2.74,-2.74,-2.50,-3.17,-1.33,-1.37,-1.36
265.82,1.34,2.69,1.34,2.68,-2.68,-2.45,-3.13,-1.34,-1.34,-1.35
268.48,1.28,2.61,1.30,2.62,-2.62,-2.40,-3.09,-1.34,-1.32,-1.33
271.16,1.23,2.52,1.27,2.56,-2.56,-2.35,-3.04,-1.33,-1.30,-1.29
273.87,1.22,2.50,1.23,2.50,-2.50,-2.30,-2.99,-1.28,-1.27,-1.28
276.61,1.25,2.50,1.19,2.44,-2.44,-2.26,-2.94,-1.20,-1.25,-1.25
279.38,1.25,2.47,1.16,2.39,-2.39,-2.21,-2.88,-1.14,-1.22,-1.22
282.17,1.09,2.29,1.12,2.32,-2.32,-2.16,-2.82,-1.23,-1.20,-1.20
284.99,1.03,2.20,1.08,2.25,-2.25,-2.11,-2.76,-1.22,-1.17,-1.17
287.84,1.05,2.20,1.04,2.18,-2.18,-2.07,-2.70,-1.13,-1.14,-1.15
290.72,0.94,2.06,1.00,2.11,-2.11,-2.02,-2.63,-1.18,-1.11,-1.12
293.63,0.96,2.05,0.98,2.07,-2.07,-1.98,-2.56,-1.11,-1.09,-1.09
296.57,0.99,2.05,0.96,2.02,-2.02,-1.93,-2.50,-1.03,-1.06,-1.06
299.53,0.94,1.97,0.94,1.98,-1.98,-1.89,-2.43,-1.04,-1.03,-1.03
302.53,0.90,1.92,0.92,1.93,-1.93,-1.85,-2.36,-1.03,-1.01,-1.02
305.55,0.85,1.82,0.89,1.88,-1.88,-1.81,-2.29,-1.03,-0.98,-0.97
308.61,0.85,1.81,0.87,1.83,-1.83,-1.77,-2.22,-0.98,-0.96,-0.96
311.69,0.85,1.78,0.85,1.79,-1.79,-1.73,-2.15,-0.94,-0.94,-0.93
314.81,0.86,1.76,0.84,1.76,-1.76,-1.69,-2.09,-0.90,-0.92,-0.90
317.96,0.86,1.75,0.82,1.72,-1.72,-1.65,-2.02,-0.86,-0.90,-0.89
321.14,0.87,1.75,0.80,1.68,-1.68,-1.61,-1.95,-0.81,-0.88,-0.88
324.35,0.90,1.76,0.79,1.65,-1.65,-1.57,-1.88,-0.75,-0.86,-0.87
327.59,0.73,1.58,0.76,1.61,-1.61,-1.54,-1.82,-0.88,-0.85,-0.85
330.87,0.65,1.49,0.73,1.57,-1.57,-1.50,-1.75,-0.92,-0.84,-0.84
334.18,0.65,1.47,0.71,1.53,-1.53,-1.47,-1.68,-0.88,-0.82,-0.82
337.52,0.66,1.48,0.68,1.50,-1.50,-1.44,-1.62,-0.84,-0.81,-0.82
340.90,0.66,1.46,0.66,1.47,-1.47,-1.40,-1.56,-0.81,-0.81,-0.80
344.30,0.66,1.45,0.62,1.42,-1.42,-1.37,-1.50,-0.76,-0.80,-0.79
347.75,0.61,1.41,0.58,1.37,-1.37,-1.34,-1.43,-0.77,-0.80,-0.80
351.23,0.57,1.36,0.54,1.33,-1.33,-1.31,-1.37,-0.76,-0.79,-0.79
354.74,0.50,1.29,0.50,1.29,-1.29,-1.28,-1.32,-0.79,-0.79,-0.79
358.28,0.47,1.25,0.47,1.25,-1.25,-1.25,-1.26,-0.78,-0.79,-0.78
361.87,0.44,1.23,0.44,1.22,-1.22,-1.22,-1.20,-0.78,-0.78,-0.79
365.49,0.36,1.14,0.42,1.20,-1.20,-1.19,-1.14,-0.84,-0.78,-0.78
369.14,0.40,1.19,0.38,1.17,-1.17,-1.16,-1.09,-0.77,-0.79,-0.79
372.83,0.39,1.18,0.34,1.13,-1.13,-1.14,-1.03,-0.74,-0.79,-0.79
376.56,0.23,1.02,0.30,1.09,-1.09,-1.11,-0.98,-0.87,-0.79,-0.79
380.33,0.18,0.97,0.26,1.06,-1.06,-1.08,-0.93,-0.88,-0.79,-0.79
384.13,0.22,1.01,0.22,1.02,-1.02,-1.06,-0.88,-0.80,-0.80,-0.79
387.97,0.24,1.04,0.18,0.98,-0.98,-1.04,-0.83,-0.74,-0.80,-0.80
391.85,0.20,1.01,0.14,0.94,-0.94,-1.01,-0.78,-0.74,-0.81,-0.81
395.77,0.16,0.96,0.10,0.91,-0.91,-0.99,-0.73,-0.75,-0.81,-0.80
399.73,0.09,0.90,0.05,0.87,-0.87,-0.97,-0.69,-0.78,-0.82,-0.82
403.72,0.01,0.83,0.00,0.83,-0.83,-0.94,-0.64,-0.82,-0.83,-0.82
407.76,-0.09,0.74,-0.04,0.79,-0.79,-0.92,-0.59,-0.88,-0.83,-0.83
411.84,-0.06,0.77,-0.09,0.75,-0.75,-0.90,-0.55,-0.81,-0.83,-0.83
415.96,-0.12,0.71,-0.12,0.72,-0.72,-0.88,-0.51,-0.84,-0.83,-0.83
420.12,-0.24,0.59,-0.15,0.69,-0.69,-0.86,-0.47,-0.93,-0.83,-0.83
424.32,-0.24,0.59,-0.19,0.64,-0.64,-0.84,-0.43,-0.88,-0.83,-0.83
428.56,-0.23,0.59,-0.23,0.59,-0.59,-0.82,-0.39,-0.82,-0.82,-0.82
432.85,-0.22,0.59,-0.26,0.54,-0.54,-0.80,-0.35,-0.77,-0.80,-0.82
437.18,-0.27,0.54,-0.27,0.51,-0.51,-0.78,-0.31,-0.78,-0.78,-0.81
441.55,-0.32,0.45,-0.28,0.48,-0.48,-0.76,-0.28,-0.80,-0.76,-0.77
445.96,-0.23,0.51,-0.27,0.45,-0.45,-0.75,-0.24,-0.68,-0.72,-0.74
450.42,-0.23,0.48,-0.26,0.43,-0.43,-0.73,-0.21,-0.66,-0.69,-0.71
454.93,-0.30,0.36,-0.25,0.40,-0.40,-0.71,-0.18,-0.70,-0.65,-0.66
459.48,-0.23,0.38,-0.25,0.35,-0.35,-0.70,-0.15,-0.58,-0.60,-0.61
464.07,-0.34,0.22,-0.24,0.32,-0.32,-0.68,-0.12,-0.66,-0.56,-0.56
468.71,-0.30,0.20,-0.21,0.30,-0.30,-0.66,-0.10,-0.60,-0.51,-0.50
473.40,-0.16,0.30,-0.20,0.27,-0.27,-0.65,-0.07,-0.43,-0.46,-0.46
478.13,-0.12,0.28,-0.19,0.23,-0.23,-0.63,-0.05,-0.35,-0.41,-0.40
482.91,-0.13,0.23,-0.18,0.18,-0.18,-0.62,-0.03,-0.32,-0.37,-0.37
487.74,-0.12,0.21,-0.19,0.14,-0.14,-0.61,-0.01,-0.26,-0.33,-0.33
492.62,-0.14,0.14,-0.19,0.10,-0.10,-0.59,0.01,-0.24,-0.29,-0.28
497.55,-0.21,0.05,-0.19,0.07,-0.07,-0.58,0.03,-0.28,-0.26,-0.26
502.52,-0.30,-0.07,-0.19,0.05,-0.05,-0.56,0.04,-0.35,-0.24,-0.23
507.55,-0.22,-0.00,-0.20,0.02,-0.02,-0.55,0.05,-0.25,-0.23,-0.22
512.62,-0.07,0.14,-0.21,0.01,-0.01,-0.54,0.06,-0.08,-0.22,-0.21
517.75,-0.14,0.06,-0.22,-0.00,0.00,-0.53,0.07,-0.14,-0.22,-0.20
