frequency,raw,error,smoothed,error_smoothed,equalization,parametric_eq,fixed_band_eq,equalized_raw,equalized_smoothed,target
20.00,-4.10,-6.08,-4.14,-6.15,6.15,5.99,1.73,2.05,2.01,1.98
20.20,-4.01,-6.03,-4.03,-6.07,6.07,5.92,1.78,2.06,2.03,2.02
20.40,-3.92,-5.97,-3.93,-5.99,5.99,5.85,1.84,2.07,2.06,2.05
20.61,-3.82,-5.91,-3.82,-5.91,5.91,5.78,1.89,2.09,2.09,2.08
20.81,-3.73,-5.85,-3.71,-5.83,5.83,5.70,1.95,2.10,2.11,2.12
21.02,-3.64,-5.80,-3.61,-5.75,5.75,5.63,2.01,2.11,2.14,2.16
21.23,-3.54,-5.71,-3.51,-5.66,5.66,5.55,2.07,2.12,2.16,2.17
21.44,-3.43,-5.62,-3.40,-5.58,5.58,5.47,2.13,2.15,2.18,2.19
21.66,-3.33,-5.55,-3.30,-5.50,5.50,5.39,2.19,2.17,2.20,2.21
21.87,-3.23,-5.45,-3.20,-5.42,5.42,5.32,2.26,2.19,2.21,2.22
22.09,-3.12,-5.35,-3.10,-5.33,5.33,5.24,2.32,2.21,2.23,2.23
22.31,-3.02,-5.25,-3.01,-5.25,5.25,5.16,2.39,2.23,2.24,2.23
22.54,-2.91,-5.16,-2.90,-5.16,5.16,5.08,2.46,2.24,2.25,2.24
22.76,-2.80,-5.05,-2.80,-5.06,5.06,5.01,2.54,2.26,2.26,2.25
22.99,-2.69,-4.94,-2.70,-4.97,4.97,4.93,2.61,2.28,2.27,2.25
23.22,-2.60,-4.86,-2.61,-4.89,4.89,4.85,2.69,2.29,2.28,2.26
23.45,-2.50,-4.77,-2.52,-4.80,4.80,4.78,2.76,2.30,2.28,2.27
23.69,-2.41,-4.70,-2.43,-4.72,4.72,4.70,2.84,2.30,2.29,2.28
23.92,-2.31,-4.60,-2.34,-4.63,4.63,4.63,2.92,2.32,2.29,2.29
24.16,-2.24,-4.54,-2.26,-4.55,4.55,4.56,3.01,2.31,2.29,2.30
24.40,-2.19,-4.50,-2.18,-4.48,4.48,4.49,3.09,2.29,2.30,2.31
24.65,-2.13,-4.44,-2.11,-4.41,4.41,4.42,3.17,2.28,2.30,2.30
24.89,-2.07,-4.37,-2.04,-4.35,4.35,4.35,3.26,2.28,2.30,2.30
25.14,-2.00,-4.30,-1.98,-4.28,4.28,4.28,3.35,2.28,2.30,2.30
25.39,-1.93,-4.23,-1.92,-4.22,4.22,4.22,3.43,2.29,2.30,2.30
25.65,-1.85,-4.15,-1.85,-4.16,4.16,4.15,3.52,2.31,2.30,2.30
25.91,-1.77,-4.06,-1.79,-4.09,4.09,4.09,3.61,2.32,2.30,2.28
26.16,-1.72,-4.01,-1.73,-4.03,4.03,4.03,3.70,2.31,2.30,2.29
26.43,-1.68,-3.98,-1.68,-3.98,3.98,3.97,3.78,2.30,2.30,2.29
26.69,-1.64,-3.93,-1.64,-3.93,3.93,3.91,3.87,2.29,2.29,2.29
26.96,-1.61,-3.90,-1.59,-3.88,3.88,3.85,3.95,2.27,2.29,2.29
27.23,-1.55,-3.85,-1.55,-3.83,3.83,3.80,4.04,2.28,2.29,2.29
27.50,-1.48,-3.77,-1.51,-3.79,3.79,3.74,4.12,2.31,2.29,2.29
27.77,-1.42,-3.70,-1.47,-3.75,3.75,3.69,4.19,2.33,2.29,2.28
28.05,-1.37,-3.65,-1.43,-3.71,3.71,3.64,4.27,2.34,2.28,2.28
28.33,-1.37,-3.63,-1.38,-3.67,3.67,3.59,4.34,2.30,2.28,2.26
28.62,-1.37,-3.64,-1.34,-3.62,3.62,3.54,4.41,2.25,2.28,2.27
28.90,-1.37,-3.64,-1.29,-3.57,3.57,3.50,4.47,2.20,2.28,2.27
29.19,-1.33,-3.59,-1.25,-3.52,3.52,3.45,4.53,2.19,2.27,2.26
29.48,-1.26,-3.53,-1.20,-3.47,3.47,3.41,4.58,2.21,2.27,2.27
29.78,-1.19,-3.47,-1.16,-3.42,3.42,3.37,4.62,2.23,2.26,2.27
30.08,-1.12,-3.40,-1.12,-3.38,3.38,3.33,4.66,2.26,2.26,2.27
30.38,-1.05,-3.31,-1.09,-3.34,3.34,3.29,4.69,2.29,2.26,2.25
30.68,-0.98,-3.23,-1.05,-3.30,3.30,3.25,4.72,2.32,2.25,2.25
30.99,-0.91,-3.16,-1.01,-3.26,3.26,3.22,4.74,2.35,2.25,2.24
31.30,-0.91,-3.15,-0.97,-3.22,3.22,3.19,4.75,2.31,2.24,2.24
31.61,-0.91,-3.15,-0.93,-3.17,3.17,3.16,4.76,2.26,2.24,2.24
31.93,-0.91,-3.13,-0.89,-3.12,3.12,3.13,4.76,2.21,2.23,2.22
32.24,-0.91,-3.12,-0.85,-3.08,3.08,3.10,4.75,2.17,2.23,2.21
32.57,-0.91,-3.12,-0.83,-3.05,3.05,3.07,4.73,2.14,2.22,2.21
32.89,-0.91,-3.12,-0.81,-3.03,3.03,3.05,4.71,2.12,2.22,2.21
33.22,-0.86,-3.07,-0.80,-3.01,3.01,3.02,4.68,2.15,2.21,2.21
33.55,-0.78,-2.98,-0.79,-3.00,3.00,3.00,4.65,2.22,2.21,2.20
33.89,-0.71,-2.91,-0.78,-2.98,2.98,2.98,4.61,2.27,2.20,2.20
34.23,-0.70,-2.90,-0.78,-2.98,2.98,2.96,4.57,2.28,2.20,2.20
34.57,-0.72,-2.91,-0.78,-2.97,2.97,2.94,4.52,2.25,2.19,2.19
34.92,-0.74,-2.92,-0.78,-2.97,2.97,2.93,4.47,2.23,2.19,2.18
35.27,-0.79,-2.97,-0.80,-2.98,2.98,2.91,4.41,2.19,2.18,2.18
35.62,-0.85,-3.02,-0.82,-3.00,3.00,2.90,4.36,2.15,2.18,2.17
35.97,-0.91,-3.07,-0.86,-3.03,3.03,2.89,4.30,2.12,2.17,2.16
36.33,-0.91,-3.07,-0.91,-3.07,3.07,2.88,4.23,2.16,2.16,2.16
36.70,-0.91,-3.07,-0.96,-3.12,3.12,2.87,4.17,2.21,2.16,2.16
37.06,-0.93,-3.08,-1.02,-3.17,3.17,2.86,4.11,2.24,2.15,2.14
37.43,-1.03,-3.18,-1.08,-3.23,3.23,2.86,4.04,2.19,2.14,2.14
37.81,-1.14,-3.27,-1.14,-3.28,3.28,2.85,3.98,2.14,2.14,2.13
38.19,-1.22,-3.34,-1.19,-3.32,3.32,2.85,3.92,2.10,2.13,2.12
38.57,-1.29,-3.41,-1.24,-3.36,3.36,2.85,3.85,2.07,2.12,2.12
38.95,-1.36,-3.47,-1.28,-3.40,3.40,2.85,3.79,2.04,2.12,2.11
39.34,-1.38,-3.48,-1.32,-3.43,3.43,2.85,3.73,2.05,2.11,2.10
39.74,-1.39,-3.47,-1.36,-3.46,3.46,2.85,3.67,2.07,2.10,2.08
40.14,-1.40,-3.49,-1.38,-3.47,3.47,2.85,3.61,2.07,2.09,2.09
40.54,-1.38,-3.46,-1.39,-3.48,3.48,2.86,3.55,2.10,2.08,2.08
40.94,-1.37,-3.45,-1.40,-3.47,3.47,2.86,3.50,2.10,2.07,2.08
41.35,-1.37,-3.43,-1.39,-3.44,3.44,2.86,3.44,2.07,2.06,2.06
41.76,-1.37,-3.41,-1.37,-3.41,3.41,2.87,3.39,2.04,2.04,2.04
42.18,-1.37,-3.40,-1.34,-3.36,3.36,2.88,3.34,1.99,2.02,2.03
42.60,-1.37,-3.37,-1.31,-3.31,3.31,2.88,3.30,1.94,2.00,2.00
43.03,-1.36,-3.35,-1.29,-3.26,3.26,2.89,3.25,1.90,1.97,1.99
43.46,-1.26,-3.22,-1.26,-3.20,3.20,2.90,3.21,1.94,1.94,1.96
43.90,-1.16,-3.08,-1.23,-3.15,3.15,2.91,3.17,1.99,1.92,1.92
44.33,-1.14,-3.02,-1.21,-3.10,3.10,2.92,3.14,1.96,1.89,1.88
44.78,-1.14,-2.99,-1.19,-3.05,3.05,2.93,3.10,1.91,1.87,1.85
45.23,-1.14,-2.96,-1.17,-3.01,3.01,2.94,3.07,1.87,1.84,1.82
45.68,-1.14,-2.93,-1.16,-2.97,2.97,2.94,3.04,1.83,1.81,1.79
46.13,-1.14,-2.91,-1.14,-2.93,2.93,2.95,3.01,1.79,1.79,1.77
46.60,-1.14,-2.90,-1.13,-2.90,2.90,2.96,2.99,1.76,1.77,1.76
47.06,-1.14,-2.88,-1.12,-2.88,2.88,2.97,2.96,1.74,1.76,1.74
47.53,-1.14,-2.88,-1.12,-2.87,2.87,2.98,2.94,1.73,1.75,1.74
48.01,-1.14,-2.88,-1.13,-2.86,2.86,2.98,2.93,1.72,1.74,1.74
48.49,-1.14,-2.86,-1.13,-2.86,2.86,2.99,2.91,1.72,1.73,1.72
48.97,-1.14,-2.85,-1.14,-2.87,2.87,2.99,2.90,1.73,1.73,1.71
49.46,-1.14,-2.84,-1.14,-2.87,2.87,2.99,2.88,1.73,1.73,1.70
49.96,-1.14,-2.84,-1.14,-2.86,2.86,2.99,2.87,1.72,1.72,1.70
50.46,-1.14,-2.85,-1.14,-2.86,2.86,2.99,2.86,1.72,1.72,1.71
50.96,-1.14,-2.86,-1.14,-2.85,2.85,2.99,2.86,1.71,1.71,1.72
51.47,-1.14,-2.85,-1.13,-2.83,2.83,2.99,2.85,1.69,1.70,1.71
51.99,-1.14,-2.83,-1.13,-2.81,2.81,2.99,2.84,1.67,1.68,1.69
52.51,-1.14,-2.82,-1.11,-2.78,2.78,2.98,2.84,1.64,1.66,1.68
53.03,-1.14,-2.79,-1.11,-2.74,2.74,2.97,2.84,1.60,1.64,1.65
53.56,-1.14,-2.76,-1.10,-2.71,2.71,2.96,2.83,1.57,1.61,1.62
54.10,-1.14,-2.72,-1.10,-2.68,2.68,2.95,2.83,1.54,1.57,1.58
54.64,-1.14,-2.67,-1.11,-2.65,2.65,2.93,2.83,1.51,1.53,1.53
55.18,-1.14,-2.62,-1.14,-2.63,2.63,2.92,2.83,1.49,1.49,1.48
55.74,-1.14,-2.57,-1.18,-2.62,2.62,2.90,2.82,1.48,1.44,1.43
56.29,-1.14,-2.52,-1.24,-2.62,2.62,2.88,2.82,1.48,1.38,1.38
56.86,-1.14,-2.46,-1.30,-2.63,2.63,2.86,2.81,1.49,1.32,1.32
57.42,-1.24,-2.50,-1.37,-2.64,2.64,2.83,2.81,1.40,1.26,1.25
58.00,-1.37,-2.56,-1.45,-2.66,2.66,2.80,2.80,1.29,1.20,1.19
58.58,-1.50,-2.63,-1.54,-2.68,2.68,2.78,2.80,1.18,1.14,1.13
59.16,-1.64,-2.73,-1.62,-2.70,2.70,2.75,2.79,1.06,1.08,1.08
59.76,-1.77,-2.79,-1.71,-2.73,2.73,2.72,2.77,0.96,1.02,1.02
60.35,-1.90,-2.86,-1.80,-2.76,2.76,2.68,2.76,0.86,0.96,0.95
60.96,-2.04,-2.94,-1.88,-2.78,2.78,2.65,2.75,0.74,0.90,0.90
61.57,-2.05,-2.88,-1.95,-2.78,2.78,2.61,2.73,0.73,0.84,0.83
62.18,-2.05,-2.81,-2.00,-2.78,2.78,2.57,2.71,0.73,0.78,0.76
62.80,-2.05,-2.77,-2.03,-2.76,2.76,2.54,2.69,0.71,0.73,0.72
63.43,-2.05,-2.71,-2.05,-2.73,2.73,2.50,2.66,0.68,0.68,0.66
64.07,-2.05,-2.67,-2.05,-2.68,2.68,2.46,2.64,0.63,0.63,0.62
64.71,-2.05,-2.62,-2.04,-2.62,2.62,2.41,2.61,0.57,0.58,0.57
65.35,-2.05,-2.57,-2.01,-2.55,2.55,2.37,2.58,0.50,0.54,0.52
66.01,-2.05,-2.54,-1.98,-2.48,2.48,2.33,2.54,0.43,0.50,0.49
66.67,-1.90,-2.36,-1.95,-2.41,2.41,2.29,2.51,0.51,0.46,0.45
67.33,-1.82,-2.24,-1.92,-2.34,2.34,2.24,2.47,0.52,0.42,0.42
68.01,-1.82,-2.21,-1.89,-2.28,2.28,2.20,2.43,0.46,0.39,0.39
68.69,-1.82,-2.18,-1.87,-2.23,2.23,2.16,2.39,0.41,0.36,0.36
69.37,-1.82,-2.14,-1.85,-2.18,2.18,2.11,2.35,0.36,0.33,0.32
70.07,-1.82,-2.11,-1.83,-2.13,2.13,2.07,2.31,0.31,0.30,0.29
70.77,-1.82,-2.10,-1.82,-2.09,2.09,2.03,2.26,0.27,0.27,0.28
71.48,-1.82,-2.06,-1.81,-2.05,2.05,1.98,2.22,0.23,0.24,0.24
72.19,-1.82,-2.04,-1.80,-2.01,2.01,1.94,2.17,0.19,0.21,0.22
72.91,-1.82,-2.00,-1.80,-1.98,1.98,1.90,2.13,0.16,0.18,0.18
73.64,-1.82,-1.97,-1.81,-1.96,1.96,1.85,2.08,0.14,0.15,0.15
74.38,-1.82,-1.94,-1.82,-1.94,1.94,1.81,2.03,0.12,0.12,0.12
75.12,-1.82,-1.91,-1.82,-1.91,1.91,1.77,1.98,0.09,0.09,0.09
75.87,-1.82,-1.88,-1.82,-1.88,1.88,1.73,1.94,0.06,0.06,0.06
76.63,-1.82,-1.85,-1.82,-1.86,1.86,1.69,1.89,0.04,0.04,0.03
77.40,-1.82,-1.82,-1.82,-1.83,1.83,1.65,1.84,0.01,0.01,0.00
78.17,-1.82,-1.79,-1.82,-1.81,1.81,1.61,1.80,-0.01,-0.01,-0.03
78.95,-1.82,-1.78,-1.82,-1.78,1.78,1.57,1.75,-0.04,-0.04,-0.04
79.74,-1.82,-1.76,-1.82,-1.77,1.77,1.53,1.71,-0.05,-0.05,-0.06
80.54,-1.82,-1.74,-1.82,-1.75,1.75,1.49,1.66,-0.07,-0.07,-0.08
81.35,-1.82,-1.72,-1.82,-1.74,1.74,1.46,1.62,-0.08,-0.08,-0.10
82.16,-1.82,-1.72,-1.82,-1.73,1.73,1.42,1.58,-0.09,-0.09,-0.10
82.98,-1.82,-1.72,-1.82,-1.72,1.72,1.38,1.53,-0.10,-0.10,-0.10
83.81,-1.82,-1.71,-1.82,-1.72,1.72,1.35,1.49,-0.10,-0.10,-0.11
84.65,-1.82,-1.70,-1.82,-1.72,1.72,1.31,1.45,-0.10,-0.10,-0.12
85.50,-1.82,-1.71,-1.82,-1.72,1.72,1.28,1.41,-0.10,-0.10,-0.11
86.35,-1.82,-1.71,-1.82,-1.72,1.72,1.25,1.38,-0.10,-0.10,-0.11
87.22,-1.82,-1.71,-1.82,-1.72,1.72,1.21,1.34,-0.10,-0.10,-0.11
88.09,-1.82,-1.71,-1.82,-1.72,1.72,1.18,1.30,-0.10,-0.10,-0.11
88.97,-1.82,-1.73,-1.82,-1.72,1.72,1.15,1.27,-0.10,-0.10,-0.09
89.86,-1.82,-1.73,-1.82,-1.72,1.72,1.12,1.23,-0.10,-0.10,-0.09
90.76,-1.82,-1.71,-1.82,-1.72,1.72,1.09,1.20,-0.10,-0.10,-0.11
91.66,-1.82,-1.72,-1.82,-1.71,1.71,1.06,1.17,-0.11,-0.11,-0.10
92.58,-1.82,-1.69,-1.82,-1.70,1.70,1.03,1.14,-0.12,-0.12,-0.13
93.51,-1.82,-1.70,-1.82,-1.69,1.69,1.00,1.10,-0.13,-0.13,-0.12
94.44,-1.82,-1.68,-1.82,-1.68,1.68,0.98,1.08,-0.14,-0.14,-0.14
95.39,-1.82,-1.67,-1.82,-1.66,1.66,0.95,1.05,-0.16,-0.16,-0.15
96.34,-1.82,-1.63,-1.82,-1.65,1.65,0.92,1.02,-0.17,-0.17,-0.19
97.30,-1.82,-1.61,-1.82,-1.62,1.62,0.90,0.99,-0.20,-0.20,-0.21
98.28,-1.82,-1.59,-1.82,-1.60,1.60,0.87,0.96,-0.22,-0.22,-0.23
99.26,-1.82,-1.56,-1.82,-1.57,1.57,0.85,0.94,-0.25,-0.25,-0.26
100.25,-1.82,-1.53,-1.82,-1.54,1.54,0.82,0.91,-0.28,-0.28,-0.29
101.25,-1.82,-1.50,-1.82,-1.50,1.50,0.80,0.89,-0.32,-0.32,-0.32
102.27,-1.82,-1.46,-1.82,-1.46,1.46,0.77,0.87,-0.36,-0.36,-0.36
103.29,-1.82,-1.41,-1.82,-1.41,1.41,0.75,0.84,-0.41,-0.41,-0.41
104.32,-1.82,-1.37,-1.82,-1.36,1.36,0.73,0.82,-0.46,-0.46,-0.45
105.37,-1.82,-1.32,-1.82,-1.31,1.31,0.71,0.80,-0.51,-0.51,-0.50
106.42,-1.82,-1.27,-1.82,-1.25,1.25,0.68,0.78,-0.57,-0.57,-0.55
107.48,-1.82,-1.20,-1.82,-1.19,1.19,0.66,0.76,-0.63,-0.63,-0.62
108.56,-1.82,-1.12,-1.82,-1.13,1.13,0.64,0.74,-0.69,-0.69,-0.70
109.64,-1.82,-1.05,-1.81,-1.05,1.05,0.62,0.72,-0.77,-0.76,-0.77
110.74,-1.82,-0.99,-1.80,-0.97,0.97,0.60,0.70,-0.85,-0.83,-0.83
111.85,-1.82,-0.92,-1.80,-0.89,0.89,0.58,0.68,-0.93,-0.91,-0.90
112.97,-1.82,-0.83,-1.80,-0.82,0.82,0.56,0.66,-1.00,-0.98,-0.99
114.10,-1.82,-0.77,-1.81,-0.76,0.76,0.54,0.64,-1.06,-1.05,-1.05
115.24,-1.82,-0.69,-1.82,-0.70,0.70,0.52,0.63,-1.12,-1.12,-1.13
116.39,-1.82,-0.61,-1.84,-0.65,0.65,0.50,0.61,-1.17,-1.19,-1.21
117.55,-1.82,-0.55,-1.85,-0.60,0.60,0.48,0.59,-1.22,-1.25,-1.27
118.73,-1.82,-0.48,-1.87,-0.56,0.56,0.46,0.57,-1.26,-1.31,-1.34
119.92,-1.82,-0.44,-1.89,-0.53,0.53,0.44,0.56,-1.29,-1.36,-1.38
121.12,-1.83,-0.39,-1.92,-0.50,0.50,0.42,0.54,-1.33,-1.41,-1.44
122.33,-1.97,-0.49,-1.94,-0.48,0.48,0.40,0.52,-1.49,-1.46,-1.48
123.55,-2.05,-0.55,-1.96,-0.46,0.46,0.38,0.50,-1.59,-1.50,-1.50
124.79,-2.05,-0.51,-1.98,-0.44,0.44,0.37,0.49,-1.61,-1.54,-1.54
126.03,-2.05,-0.47,-2.00,-0.43,0.43,0.35,0.47,-1.62,-1.58,-1.58
127.29,-2.05,-0.44,-2.02,-0.41,0.41,0.33,0.45,-1.64,-1.61,-1.61
128.57,-2.05,-0.40,-2.04,-0.39,0.39,0.31,0.44,-1.66,-1.65,-1.65
129.85,-2.05,-0.37,-2.05,-0.37,0.37,0.29,0.42,-1.68,-1.68,-1.68
131.15,-2.05,-0.34,-2.06,-0.35,0.35,0.27,0.40,-1.70,-1.71,-1.71
132.46,-2.05,-0.31,-2.07,-0.32,0.32,0.25,0.39,-1.73,-1.74,-1.74
133.79,-2.05,-0.28,-2.07,-0.29,0.29,0.23,0.37,-1.76,-1.78,-1.77
135.12,-2.05,-0.23,-2.06,-0.26,0.26,0.22,0.35,-1.79,-1.81,-1.82
136.48,-2.05,-0.20,-2.05,-0.21,0.21,0.20,0.33,-1.84,-1.84,-1.85
137.84,-2.05,-0.17,-2.05,-0.17,0.17,0.18,0.32,-1.88,-1.88,-1.88
139.22,-2.05,-0.12,-2.05,-0.14,0.14,0.16,0.30,-1.91,-1.91,-1.93
140.61,-2.05,-0.07,-2.04,-0.09,0.09,0.14,0.28,-1.96,-1.95,-1.98
142.02,-2.05,-0.05,-2.03,-0.04,0.04,0.12,0.27,-2.01,-1.99,-2.00
143.44,-2.05,-0.01,-2.03,0.01,-0.01,0.09,0.25,-2.06,-2.04,-2.04
144.87,-2.05,0.03,-2.04,0.05,-0.05,0.07,0.23,-2.10,-2.09,-2.08
146.32,-2.05,0.08,-2.04,0.11,-0.11,0.05,0.21,-2.16,-2.14,-2.13
147.78,-2.05,0.12,-2.04,0.16,-0.16,0.03,0.20,-2.21,-2.20,-2.17
149.26,-2.05,0.19,-2.06,0.21,-0.21,0.01,0.18,-2.26,-2.27,-2.24
150.75,-2.05,0.27,-2.08,0.26,-0.26,-0.02,0.16,-2.31,-2.33,-2.32
152.26,-2.05,0.34,-2.11,0.30,-0.30,-0.04,0.14,-2.35,-2.40,-2.39
153.78,-2.05,0.41,-2.15,0.33,-0.33,-0.07,0.12,-2.38,-2.47,-2.46
155.32,-2.10,0.46,-2.19,0.36,-0.36,-0.09,0.11,-2.46,-2.55,-2.56
156.88,-2.26,0.37,-2.23,0.39,-0.39,-0.12,0.09,-2.65,-2.62,-2.63
158.44,-2.28,0.42,-2.27,0.42,-0.42,-0.15,0.07,-2.70,-2.69,-2.70
160.03,-2.28,0.50,-2.30,0.45,-0.45,-0.17,0.05,-2.73,-2.75,-2.78
161.63,-2.28,0.56,-2.33,0.48,-0.48,-0.20,0.03,-2.76,-2.81,-2.84
163.24,-2.42,0.47,-2.35,0.51,-0.51,-0.23,0.02,-2.93,-2.86,-2.89
164.88,-2.51,0.42,-2.37,0.53,-0.53,-0.26,-0.00,-3.04,-2.91,-2.93
166.53,-2.51,0.46,-2.39,0.55,-0.55,-0.30,-0.02,-3.06,-2.94,-2.97
168.19,-2.51,0.49,-2.39,0.57,-0.57,-0.33,-0.04,-3.08,-2.97,-3.00
169.87,-2.46,0.55,-2.39,0.59,-0.59,-0.36,-0.06,-3.05,-2.99,-3.01
171.57,-2.32,0.70,-2.39,0.61,-0.61,-0.40,-0.08,-2.93,-3.00,-3.02
173.29,-2.28,0.74,-2.37,0.63,-0.63,-0.43,-0.10,-2.91,-3.00,-3.02
175.02,-2.28,0.72,-2.35,0.66,-0.66,-0.47,-0.12,-2.94,-3.01,-3.00
176.77,-2.28,0.73,-2.32,0.69,-0.69,-0.50,-0.14,-2.97,-3.01,-3.01
178.54,-2.28,0.72,-2.30,0.71,-0.71,-0.54,-0.16,-2.99,-3.01,-3.00
180.32,-2.28,0.71,-2.28,0.72,-0.72,-0.58,-0.17,-3.00,-3.01,-2.99
182.13,-2.28,0.71,-2.27,0.74,-0.74,-0.61,-0.19,-3.02,-3.01,-2.99
183.95,-2.28,0.71,-2.26,0.75,-0.75,-0.65,-0.21,-3.03,-3.01,-2.99
185.79,-2.28,0.72,-2.27,0.74,-0.74,-0.69,-0.23,-3.02,-3.02,-3.00
187.65,-2.28,0.74,-2.29,0.73,-0.73,-0.72,-0.25,-3.01,-3.02,-3.02
189.52,-2.28,0.76,-2.32,0.72,-0.72,-0.75,-0.28,-3.00,-3.03,-3.04
191.42,-2.28,0.78,-2.34,0.70,-0.70,-0.78,-0.30,-2.98,-3.05,-3.06
193.33,-2.28,0.80,-2.37,0.70,-0.70,-0.81,-0.32,-2.98,-3.06,-3.08
195.27,-2.38,0.70,-2.39,0.69,-0.69,-0.84,-0.34,-3.07,-3.08,-3.08
197.22,-2.48,0.62,-2.41,0.69,-0.69,-0.86,-0.36,-3.17,-3.10,-3.10
199.19,-2.51,0.63,-2.43,0.68,-0.68,-0.88,-0.38,-3.19,-3.12,-3.14
201.18,-2.51,0.63,-2.46,0.68,-0.68,-0.89,-0.40,-3.19,-3.14,-3.14
203.19,-2.51,0.65,-2.48,0.68,-0.68,-0.90,-0.42,-3.19,-3.16,-3.16
205.23,-2.51,0.68,-2.49,0.68,-0.68,-0.91,-0.44,-3.19,-3.18,-3.19
207.28,-2.51,0.68,-2.51,0.69,-0.69,-0.91,-0.46,-3.20,-3.19,-3.19
209.35,-2.51,0.70,-2.52,0.69,-0.69,-0.90,-0.48,-3.20,-3.21,-3.21
211.44,-2.51,0.73,-2.53,0.70,-0.70,-0.90,-0.50,-3.21,-3.22,-3.24
213.56,-2.51,0.73,-2.53,0.71,-0.71,-0.89,-0.52,-3.22,-3.24,-3.24
215.69,-2.51,0.73,-2.53,0.72,-0.72,-0.87,-0.54,-3.23,-3.25,-3.24
217.85,-2.51,0.76,-2.52,0.75,-0.75,-0.85,-0.56,-3.26,-3.26,-3.27
220.03,-2.51,0.77,-2.51,0.76,-0.76,-0.83,-0.58,-3.27,-3.27,-3.28
222.23,-2.51,0.79,-2.51,0.77,-0.77,-0.81,-0.59,-3.28,-3.28,-3.30
224.45,-2.51,0.79,-2.51,0.78,-0.78,-0.79,-0.61,-3.29,-3.29,-3.30
226.70,-2.51,0.79,-2.51,0.79,-0.79,-0.76,-0.63,-3.30,-3.30,-3.30
228.96,-2.51,0.80,-2.51,0.80,-0.80,-0.74,-0.64,-3.31,-3.31,-3.31
231.25,-2.51,0.80,-2.51,0.80,-0.80,-0.71,-0.65,-3.31,-3.31,-3.31
233.57,-2.51,0.81,-2.51,0.81,-0.81,-0.68,-0.67,-3.32,-3.32,-3.32
235.90,-2.51,0.82,-2.51,0.81,-0.81,-0.66,-0.68,-3.32,-3.32,-3.33
238.26,-2.51,0.82,-2.51,0.81,-0.81,-0.63,-0.69,-3.32,-3.32,-3.33
240.64,-2.51,0.82,-2.51,0.81,-0.81,-0.61,-0.70,-3.32,-3.32,-3.33
243.05,-2.51,0.81,-2.50,0.81,-0.81,-0.58,-0.71,-3.32,-3.31,-3.32
245.48,-2.51,0.80,-2.49,0.82,-0.82,-0.56,-0.72,-3.33,-3.31,-3.31
247.93,-2.51,0.79,-2.49,0.81,-0.81,-0.54,-0.72,-3.32,-3.31,-3.30
250.41,-2.51,0.80,-2.50,0.80,-0.80,-0.52,-0.73,-3.31,-3.30,-3.31
252.92,-2.51,0.79,-2.51,0.79,-0.79,-0.49,-0.73,-3.30,-3.29,-3.30
255.45,-2.51,0.76,-2.52,0.77,-0.77,-0.47,-0.73,-3.28,-3.28,-3.27
258.00,-2.51,0.76,-2.53,0.74,-0.74,-0.46,-0.74,-3.25,-3.27,-3.27
260.58,-2.51,0.76,-2.55,0.71,-0.71,-0.44,-0.74,-3.22,-3.26,-3.27
263.19,-2.51,0.74,-2.57,0.68,-0.68,-0.42,-0.74,-3.19,-3.25,-3.25
265.82,-2.51,0.74,-2.59,0.64,-0.64,-0.41,-0.73,-3.15,-3.23,-3.25
268.48,-2.56,0.66,-2.61,0.60,-0.60,-0.39,-0.73,-3.16,-3.22,-3.22
271.16,-2.69,0.52,-2.64,0.56,-0.56,-0.38,-0.73,-3.25,-3.20,-3.21
273.87,-2.74,0.46,-2.66,0.52,-0.52,-0.37,-0.72,-3.26,-3.18,-3.20
276.61,-2.74,0.42,-2.68,0.48,-0.48,-0.36,-0.71,-3.22,-3.16,-3.16
279.38,-2.74,0.41,-2.70,0.44,-0.44,-0.34,-0.71,-3.18,-3.14,-3.15
282.17,-2.74,0.38,-2.72,0.39,-0.39,-0.34,-0.70,-3.13,-3.11,-3.12
284.99,-2.74,0.35,-2.73,0.35,-0.35,-0.33,-0.69,-3.09,-3.09,-3.09
287.84,-2.74,0.33,-2.75,0.31,-0.31,-0.32,-0.68,-3.05,-3.06,-3.07
290.72,-2.74,0.29,-2.76,0.27,-0.27,-0.31,-0.68,-3.01,-3.03,-3.03
293.63,-2.74,0.27,-2.77,0.23,-0.23,-0.30,-0.67,-2.97,-3.00,-3.01
296.57,-2.74,0.24,-2.78,0.20,-0.20,-0.30,-0.66,-2.94,-2.98,-2.98
299.53,-2.74,0.21,-2.77,0.19,-0.19,-0.29,-0.65,-2.93,-2.95,-2.95
302.53,-2.74,0.20,-2.75,0.18,-0.18,-0.29,-0.64,-2.92,-2.93,-2.94
305.55,-2.74,0.16,-2.74,0.17,-0.17,-0.28,-0.63,-2.91,-2.91,-2.90
308.61,-2.74,0.14,-2.72,0.17,-0.17,-0.28,-0.62,-2.91,-2.89,-2.88
311.69,-2.74,0.13,-2.70,0.17,-0.17,-0.27,-0.61,-2.91,-2.87,-2.87
314.81,-2.74,0.10,-2.68,0.18,-0.18,-0.27,-0.60,-2.92,-2.86,-2.84
317.96,-2.74,0.10,-2.66,0.19,-0.19,-0.27,-0.59,-2.93,-2.85,-2.84
321.14,-2.73,0.12,-2.64,0.20,-0.20,-0.27,-0.58,-2.93,-2.84,-2.85
324.35,-2.56,0.28,-2.62,0.21,-0.21,-0.27,-0.57,-2.77,-2.83,-2.84
327.59,-2.51,0.32,-2.60,0.22,-0.22,-0.26,-0.56,-2.73,-2.82,-2.83
330.87,-2.51,0.31,-2.57,0.24,-0.24,-0.26,-0.55,-2.75,-2.81,-2.82
334.18,-2.51,0.31,-2.55,0.25,-0.25,-0.26,-0.55,-2.76,-2.80,-2.82
337.52,-2.51,0.30,-2.54,0.25,-0.25,-0.26,-0.54,-2.76,-2.79,-2.81
340.90,-2.51,0.27,-2.52,0.26,-0.26,-0.26,-0.53,-2.77,-2.78,-2.78
344.30,-2.51,0.26,-2.51,0.25,-0.25,-0.26,-0.52,-2.76,-2.76,-2.77
347.75,-2.51,0.25,-2.50,0.25,-0.25,-0.27,-0.52,-2.76,-2.74,-2.76
351.23,-2.51,0.22,-2.49,0.23,-0.23,-0.27,-0.51,-2.74,-2.72,-2.73
354.74,-2.51,0.20,-2.49,0.21,-0.21,-0.27,-0.50,-2.72,-2.70,-2.71
358.28,-2.51,0.17,-2.50,0.18,-0.18,-0.27,-0.50,-2.69,-2.68,-2.68
361.87,-2.51,0.15,-2.51,0.15,-0.15,-0.27,-0.49,-2.66,-2.66,-2.66
365.49,-2.51,0.13,-2.51,0.12,-0.12,-0.28,-0.49,-2.63,-2.63,-2.64
369.14,-2.51,0.11,-2.52,0.09,-0.09,-0.28,-0.49,-2.60,-2.61,-2.62
372.83,-2.51,0.08,-2.53,0.06,-0.06,-0.28,-0.48,-2.57,-2.59,-2.59
376.56,-2.51,0.06,-2.53,0.04,-0.04,-0.29,-0.48,-2.55,-2.57,-2.57
380.33,-2.51,0.03,-2.53,0.02,-0.02,-0.29,-0.48,-2.53,-2.55,-2.54
384.13,-2.51,0.01,-2.52,0.01,-0.01,-0.30,-0.47,-2.52,-2.53,-2.52
387.97,-2.51,-0.00,-2.51,0.01,-0.01,-0.30,-0.47,-2.52,-2.52,-2.51
391.85,-2.51,-0.00,-2.49,0.01,-0.01,-0.31,-0.47,-2.52,-2.50,-2.51
395.77,-2.51,-0.01,-2.48,0.01,-0.01,-0.31,-0.47,-2.52,-2.49,-2.50
399.73,-2.51,-0.02,-2.46,0.02,-0.02,-0.32,-0.47,-2.53,-2.48,-2.49
403.72,-2.51,-0.03,-2.44,0.03,-0.03,-0.32,-0.47,-2.54,-2.47,-2.48
407.76,-2.51,-0.04,-2.42,0.05,-0.05,-0.33,-0.47,-2.56,-2.47,-2.47
411.84,-2.37,0.09,-2.39,0.07,-0.07,-0.34,-0.47,-2.44,-2.46,-2.46
415.96,-2.29,0.16,-2.37,0.09,-0.09,-0.35,-0.47,-2.38,-2.46,-2.45
420.12,-2.28,0.17,-2.35,0.11,-0.11,-0.35,-0.47,-2.39,-2.45,-2.45
424.32,-2.28,0.17,-2.33,0.12,-0.12,-0.36,-0.47,-2.40,-2.45,-2.45
428.56,-2.28,0.17,-2.31,0.14,-0.14,-0.37,-0.47,-2.42,-2.45,-2.45
432.85,-2.28,0.18,-2.30,0.14,-0.14,-0.38,-0.47,-2.42,-2.44,-2.46
437.18,-2.28,0.17,-2.30,0.14,-0.14,-0.39,-0.47,-2.42,-2.44,-2.45
441.55,-2.28,0.16,-2.29,0.15,-0.15,-0.40,-0.48,-2.43,-2.44,-2.44
445.96,-2.28,0.16,-2.28,0.15,-0.15,-0.41,-0.48,-2.43,-2.43,-2.44
450.42,-2.28,0.15,-2.28,0.14,-0.14,-0.42,-0.48,-2.42,-2.42,-2.43
454.93,-2.28,0.14,-2.28,0.13,-0.13,-0.43,-0.48,-2.41,-2.41,-2.42
459.48,-2.28,0.13,-2.27,0.12,-0.12,-0.44,-0.49,-2.40,-2.40,-2.41
464.07,-2.28,0.11,-2.26,0.12,-0.12,-0.45,-0.49,-2.40,-2.38,-2.39
