frequency,raw,error,smoothed,error_smoothed,equalization,parametric_eq,fixed_band_eq,equalized_raw,equalized_smoothed,target
20.00,-2.09,-4.23,-2.10,-4.27,4.27,3.38,2.05,2.18,2.17,2.14
20.20,-2.08,-4.27,-2.09,-4.30,4.30,3.43,2.10,2.21,2.21,2.19
20.40,-2.07,-4.31,-2.07,-4.32,4.32,3.48,2.17,2.25,2.24,2.24
20.61,-2.06,-4.33,-2.06,-4.34,4.34,3.53,2.23,2.28,2.28,2.27
20.81,-2.05,-4.37,-2.05,-4.35,4.35,3.58,2.29,2.30,2.31,2.32
21.02,-2.04,-4.40,-2.03,-4.37,4.37,3.63,2.36,2.33,2.34,2.36
21.23,-2.03,-4.41,-2.02,-4.38,4.38,3.68,2.43,2.35,2.36,2.38
21.44,-2.02,-4.42,-2.01,-4.39,4.39,3.73,2.50,2.37,2.38,2.40
21.66,-2.00,-4.42,-2.00,-4.40,4.40,3.78,2.57,2.40,2.41,2.42
21.87,-1.99,-4.42,-1.99,-4.41,4.41,3.83,2.65,2.42,2.42,2.43
22.09,-1.98,-4.43,-1.98,-4.42,4.42,3.88,2.72,2.43,2.44,2.45
22.31,-1.97,-4.43,-1.97,-4.42,4.42,3.93,2.80,2.45,2.45,2.46
22.54,-1.95,-4.41,-1.95,-4.41,4.41,3.98,2.88,2.46,2.46,2.46
22.76,-1.94,-4.40,-1.94,-4.41,4.41,4.02,2.97,2.47,2.46,2.46
22.99,-1.93,-4.38,-1.94,-4.40,4.40,4.07,3.05,2.47,2.46,2.45
23.22,-1.92,-4.37,-1.93,-4.39,4.39,4.12,3.14,2.47,2.46,2.45
23.45,-1.92,-4.37,-1.92,-4.39,4.39,4.16,3.23,2.46,2.46,2.45
23.69,-1.91,-4.37,-1.91,-4.38,4.38,4.21,3.32,2.47,2.47,2.46
23.92,-1.90,-4.36,-1.91,-4.37,4.37,4.25,3.41,2.47,2.47,2.46
24.16,-1.90,-4.36,-1.91,-4.37,4.37,4.29,3.50,2.47,2.46,2.46
24.40,-1.90,-4.37,-1.90,-4.37,4.37,4.34,3.60,2.47,2.46,2.47
24.65,-1.90,-4.36,-1.90,-4.36,4.36,4.38,3.70,2.46,2.46,2.46
24.89,-1.90,-4.36,-1.90,-4.36,4.36,4.42,3.80,2.46,2.46,2.46
25.14,-1.90,-4.36,-1.89,-4.36,4.36,4.45,3.89,2.46,2.46,2.46
25.39,-1.89,-4.36,-1.89,-4.35,4.35,4.49,3.99,2.46,2.47,2.47
25.65,-1.89,-4.36,-1.88,-4.35,4.35,4.53,4.10,2.46,2.47,2.47
25.91,-1.89,-4.35,-1.88,-4.34,4.34,4.56,4.20,2.45,2.47,2.46
26.16,-1.88,-4.34,-1.87,-4.34,4.34,4.59,4.30,2.46,2.46,2.46
26.43,-1.87,-4.33,-1.87,-4.33,4.33,4.62,4.40,2.46,2.46,2.46
26.69,-1.86,-4.32,-1.86,-4.33,4.33,4.65,4.49,2.46,2.46,2.46
26.96,-1.85,-4.31,-1.86,-4.32,4.32,4.68,4.59,2.47,2.46,2.46
27.23,-1.84,-4.30,-1.85,-4.31,4.31,4.70,4.69,2.47,2.46,2.46
27.50,-1.84,-4.30,-1.85,-4.30,4.30,4.72,4.78,2.46,2.46,2.46
27.77,-1.84,-4.29,-1.84,-4.30,4.30,4.74,4.87,2.46,2.45,2.45
28.05,-1.84,-4.29,-1.84,-4.29,4.29,4.76,4.95,2.45,2.45,2.45
28.33,-1.84,-4.28,-1.84,-4.29,4.29,4.78,5.03,2.45,2.45,2.44
28.62,-1.84,-4.28,-1.83,-4.28,4.28,4.79,5.11,2.44,2.45,2.44
28.90,-1.83,-4.28,-1.83,-4.28,4.28,4.80,5.18,2.45,2.45,2.45
29.19,-1.83,-4.27,-1.83,-4.28,4.28,4.81,5.25,2.45,2.45,2.44
29.48,-1.83,-4.28,-1.84,-4.28,4.28,4.82,5.31,2.45,2.45,2.45
29.78,-1.83,-4.27,-1.84,-4.28,4.28,4.82,5.36,2.45,2.44,2.44
30.08,-1.84,-4.29,-1.84,-4.28,4.28,4.83,5.40,2.44,2.44,2.45
30.38,-1.84,-4.28,-1.85,-4.29,4.29,4.83,5.44,2.45,2.44,2.44
30.68,-1.85,-4.29,-1.85,-4.29,4.29,4.82,5.47,2.44,2.44,2.44
30.99,-1.86,-4.30,-1.85,-4.29,4.29,4.82,5.49,2.43,2.44,2.44
31.30,-1.86,-4.29,-1.86,-4.30,4.30,4.81,5.50,2.44,2.44,2.43
31.61,-1.87,-4.30,-1.87,-4.30,4.30,4.80,5.51,2.43,2.43,2.43
31.93,-1.87,-4.30,-1.87,-4.30,4.30,4.79,5.50,2.43,2.43,2.43
32.24,-1.88,-4.30,-1.88,-4.30,4.30,4.78,5.49,2.42,2.43,2.42
32.57,-1.88,-4.30,-1.88,-4.30,4.30,4.76,5.47,2.42,2.42,2.42
32.89,-1.88,-4.30,-1.89,-4.30,4.30,4.74,5.45,2.42,2.42,2.42
33.22,-1.89,-4.30,-1.89,-4.30,4.30,4.72,5.41,2.41,2.41,2.41
33.55,-1.90,-4.31,-1.89,-4.30,4.30,4.70,5.37,2.40,2.41,2.41
33.89,-1.91,-4.31,-1.90,-4.30,4.30,4.67,5.32,2.39,2.40,2.40
34.23,-1.91,-4.31,-1.90,-4.30,4.30,4.65,5.27,2.39,2.40,2.40
34.57,-1.90,-4.29,-1.90,-4.30,4.30,4.62,5.21,2.40,2.39,2.39
34.92,-1.89,-4.28,-1.91,-4.30,4.30,4.59,5.15,2.41,2.39,2.39
35.27,-1.89,-4.27,-1.91,-4.30,4.30,4.55,5.09,2.41,2.39,2.38
35.62,-1.90,-4.28,-1.92,-4.30,4.30,4.52,5.02,2.40,2.38,2.38
35.97,-1.91,-4.29,-1.92,-4.30,4.30,4.48,4.95,2.39,2.38,2.38
36.33,-1.92,-4.30,-1.92,-4.30,4.30,4.45,4.88,2.38,2.38,2.38
36.70,-1.93,-4.30,-1.92,-4.30,4.30,4.41,4.80,2.37,2.38,2.37
37.06,-1.94,-4.31,-1.92,-4.30,4.30,4.37,4.73,2.36,2.38,2.37
37.43,-1.93,-4.31,-1.92,-4.30,4.30,4.33,4.65,2.37,2.38,2.38
37.81,-1.92,-4.30,-1.92,-4.30,4.30,4.28,4.57,2.38,2.38,2.38
38.19,-1.92,-4.29,-1.91,-4.29,4.29,4.24,4.50,2.37,2.38,2.37
38.57,-1.91,-4.29,-1.91,-4.29,4.29,4.19,4.43,2.38,2.38,2.38
38.95,-1.90,-4.29,-1.90,-4.28,4.28,4.15,4.35,2.38,2.38,2.39
39.34,-1.89,-4.27,-1.89,-4.27,4.27,4.10,4.28,2.38,2.38,2.38
39.74,-1.88,-4.26,-1.88,-4.26,4.26,4.05,4.21,2.38,2.38,2.38
40.14,-1.86,-4.24,-1.87,-4.25,4.25,4.01,4.14,2.39,2.38,2.38
40.54,-1.84,-4.22,-1.85,-4.23,4.23,3.96,4.07,2.39,2.38,2.38
40.94,-1.81,-4.18,-1.83,-4.21,4.21,3.91,4.01,2.40,2.38,2.37
41.35,-1.80,-4.17,-1.81,-4.18,4.18,3.86,3.95,2.38,2.37,2.37
41.76,-1.79,-4.15,-1.79,-4.15,4.15,3.81,3.89,2.36,2.36,2.36
42.18,-1.78,-4.14,-1.76,-4.12,4.12,3.75,3.83,2.34,2.35,2.36
42.60,-1.77,-4.12,-1.74,-4.09,4.09,3.70,3.78,2.32,2.35,2.35
43.03,-1.76,-4.10,-1.72,-4.05,4.05,3.65,3.73,2.29,2.33,2.34
43.46,-1.71,-4.04,-1.70,-4.02,4.02,3.60,3.68,2.31,2.32,2.33
43.90,-1.67,-3.98,-1.68,-3.99,3.99,3.55,3.64,2.31,2.31,2.31
44.33,-1.63,-3.92,-1.65,-3.95,3.95,3.49,3.59,2.32,2.30,2.29
44.78,-1.59,-3.86,-1.63,-3.92,3.92,3.44,3.55,2.33,2.28,2.27
45.23,-1.58,-3.84,-1.62,-3.89,3.89,3.39,3.52,2.31,2.27,2.26
45.68,-1.59,-3.84,-1.60,-3.85,3.85,3.34,3.48,2.26,2.26,2.25
46.13,-1.59,-3.82,-1.58,-3.82,3.82,3.28,3.45,2.23,2.24,2.23
46.60,-1.58,-3.81,-1.57,-3.79,3.79,3.23,3.42,2.21,2.23,2.23
47.06,-1.57,-3.78,-1.56,-3.77,3.77,3.18,3.40,2.20,2.21,2.21
47.53,-1.55,-3.75,-1.55,-3.75,3.75,3.13,3.38,2.20,2.20,2.20
48.01,-1.53,-3.73,-1.55,-3.73,3.73,3.08,3.36,2.20,2.18,2.20
48.49,-1.53,-3.71,-1.55,-3.72,3.72,3.03,3.34,2.19,2.17,2.18
48.97,-1.53,-3.69,-1.54,-3.70,3.70,2.97,3.32,2.17,2.16,2.16
49.46,-1.53,-3.67,-1.54,-3.69,3.69,2.92,3.31,2.15,2.14,2.14
49.96,-1.53,-3.65,-1.54,-3.67,3.67,2.87,3.30,2.14,2.13,2.12
50.46,-1.53,-3.64,-1.53,-3.65,3.65,2.82,3.29,2.12,2.12,2.11
50.96,-1.54,-3.64,-1.52,-3.62,3.62,2.77,3.28,2.08,2.10,2.10
51.47,-1.54,-3.62,-1.51,-3.60,3.60,2.72,3.27,2.06,2.09,2.08
51.99,-1.54,-3.61,-1.50,-3.58,3.58,2.67,3.26,2.03,2.08,2.07
52.51,-1.51,-3.57,-1.49,-3.56,3.56,2.62,3.26,2.04,2.07,2.06
53.03,-1.48,-3.54,-1.48,-3.54,3.54,2.58,3.26,2.06,2.05,2.06
53.56,-1.44,-3.48,-1.48,-3.52,3.52,2.53,3.25,2.08,2.04,2.04
54.10,-1.42,-3.45,-1.46,-3.49,3.49,2.48,3.25,2.07,2.03,2.03
54.64,-1.43,-3.44,-1.45,-3.47,3.47,2.43,3.24,2.04,2.02,2.01
55.18,-1.42,-3.43,-1.44,-3.45,3.45,2.39,3.24,2.02,2.01,2.01
55.74,-1.39,-3.38,-1.42,-3.41,3.41,2.34,3.24,2.02,2.00,1.99
56.29,-1.39,-3.37,-1.39,-3.38,3.38,2.29,3.23,1.99,1.99,1.98
56.86,-1.41,-3.38,-1.37,-3.34,3.34,2.25,3.23,1.93,1.97,1.97
57.42,-1.40,-3.34,-1.35,-3.30,3.30,2.20,3.22,1.90,1.95,1.94
58.00,-1.39,-3.32,-1.33,-3.27,3.27,2.16,3.21,1.88,1.93,1.93
58.58,-1.34,-3.26,-1.32,-3.23,3.23,2.12,3.20,1.89,1.91,1.92
59.16,-1.29,-3.19,-1.30,-3.19,3.19,2.07,3.18,1.90,1.89,1.90
59.76,-1.24,-3.12,-1.28,-3.14,3.14,2.03,3.17,1.90,1.86,1.88
60.35,-1.21,-3.05,-1.26,-3.09,3.09,1.99,3.15,1.88,1.83,1.84
60.96,-1.18,-2.98,-1.23,-3.03,3.03,1.95,3.13,1.85,1.80,1.80
61.57,-1.17,-2.93,-1.20,-2.96,2.96,1.91,3.10,1.79,1.76,1.76
62.18,-1.17,-2.89,-1.17,-2.90,2.90,1.87,3.08,1.73,1.72,1.72
62.80,-1.19,-2.86,-1.14,-2.83,2.83,1.83,3.05,1.63,1.68,1.67
63.43,-1.18,-2.81,-1.12,-2.75,2.75,1.79,3.01,1.57,1.64,1.63
64.07,-1.16,-2.74,-1.09,-2.69,2.69,1.75,2.98,1.53,1.59,1.58
64.71,-1.08,-2.62,-1.07,-2.62,2.62,1.71,2.94,1.54,1.55,1.54
65.35,-1.03,-2.53,-1.06,-2.56,2.56,1.67,2.89,1.53,1.50,1.50
66.01,-1.02,-2.47,-1.04,-2.50,2.50,1.63,2.85,1.48,1.45,1.45
66.67,-0.99,-2.39,-1.03,-2.44,2.44,1.59,2.80,1.45,1.41,1.40
67.33,-0.98,-2.33,-1.02,-2.38,2.38,1.56,2.75,1.40,1.36,1.35
68.01,-0.98,-2.29,-1.01,-2.32,2.32,1.52,2.70,1.34,1.31,1.31
68.69,-0.98,-2.24,-1.00,-2.26,2.26,1.49,2.64,1.28,1.26,1.26
69.37,-0.99,-2.20,-0.99,-2.20,2.20,1.45,2.58,1.20,1.21,1.21
70.07,-1.00,-2.16,-0.98,-2.14,2.14,1.41,2.52,1.14,1.16,1.16
70.77,-1.00,-2.11,-0.98,-2.08,2.08,1.38,2.46,1.08,1.10,1.11
71.48,-1.00,-2.06,-0.98,-2.02,2.02,1.35,2.40,1.02,1.05,1.06
72.19,-1.00,-1.99,-0.98,-1.97,1.97,1.31,2.34,0.97,0.99,0.99
72.91,-1.00,-1.93,-0.99,-1.93,1.93,1.28,2.27,0.92,0.94,0.93
73.64,-1.00,-1.88,-1.00,-1.88,1.88,1.25,2.21,0.88,0.88,0.88
74.38,-1.00,-1.82,-1.01,-1.83,1.83,1.21,2.14,0.83,0.82,0.82
75.12,-1.00,-1.76,-1.02,-1.78,1.78,1.18,2.07,0.78,0.77,0.76
75.87,-1.00,-1.70,-1.03,-1.74,1.74,1.15,2.01,0.74,0.71,0.70
76.63,-1.00,-1.65,-1.04,-1.69,1.69,1.12,1.94,0.69,0.66,0.65
77.40,-1.01,-1.61,-1.05,-1.65,1.65,1.09,1.87,0.64,0.60,0.60
78.17,-1.04,-1.58,-1.06,-1.61,1.61,1.05,1.81,0.57,0.55,0.54
78.95,-1.09,-1.59,-1.07,-1.57,1.57,1.02,1.74,0.48,0.50,0.50
79.74,-1.11,-1.56,-1.08,-1.53,1.53,0.99,1.67,0.42,0.45,0.45
80.54,-1.12,-1.52,-1.09,-1.49,1.49,0.96,1.61,0.37,0.40,0.40
81.35,-1.13,-1.48,-1.10,-1.45,1.45,0.93,1.54,0.32,0.35,0.35
82.16,-1.11,-1.41,-1.10,-1.41,1.41,0.90,1.48,0.30,0.31,0.30
82.98,-1.11,-1.37,-1.11,-1.37,1.37,0.87,1.42,0.26,0.26,0.26
83.81,-1.11,-1.32,-1.12,-1.33,1.33,0.85,1.35,0.22,0.21,0.21
84.65,-1.11,-1.27,-1.12,-1.28,1.28,0.82,1.29,0.17,0.16,0.16
85.50,-1.11,-1.23,-1.12,-1.23,1.23,0.79,1.23,0.12,0.11,0.12
86.35,-1.11,-1.18,-1.12,-1.18,1.18,0.76,1.17,0.07,0.06,0.07
87.22,-1.11,-1.13,-1.12,-1.13,1.13,0.73,1.11,0.02,0.02,0.02
88.09,-1.10,-1.07,-1.11,-1.08,1.08,0.70,1.05,-0.02,-0.04,-0.03
88.97,-1.11,-1.02,-1.11,-1.03,1.03,0.68,0.99,-0.09,-0.09,-0.09
89.86,-1.12,-0.98,-1.11,-0.98,0.98,0.65,0.93,-0.15,-0.14,-0.14
90.76,-1.12,-0.93,-1.11,-0.93,0.93,0.62,0.88,-0.19,-0.19,-0.19
91.66,-1.12,-0.88,-1.12,-0.88,0.88,0.60,0.82,-0.24,-0.24,-0.24
92.58,-1.12,-0.82,-1.12,-0.83,0.83,0.57,0.77,-0.29,-0.29,-0.30
93.51,-1.12,-0.77,-1.12,-0.78,0.78,0.54,0.71,-0.34,-0.34,-0.35
94.44,-1.12,-0.73,-1.13,-0.74,0.74,0.51,0.66,-0.38,-0.39,-0.39
95.39,-1.12,-0.68,-1.13,-0.69,0.69,0.49,0.60,-0.43,-0.44,-0.44
96.34,-1.13,-0.64,-1.14,-0.65,0.65,0.46,0.55,-0.48,-0.49,-0.49
97.30,-1.16,-0.62,-1.15,-0.61,0.61,0.44,0.50,-0.55,-0.54,-0.54
98.28,-1.16,-0.57,-1.16,-0.57,0.57,0.41,0.45,-0.59,-0.58,-0.59
99.26,-1.16,-0.53,-1.17,-0.53,0.53,0.38,0.40,-0.63,-0.63,-0.63
100.25,-1.17,-0.49,-1.18,-0.50,0.50,0.36,0.35,-0.67,-0.68,-0.68
101.25,-1.19,-0.46,-1.19,-0.46,0.46,0.33,0.30,-0.73,-0.73,-0.73
102.27,-1.20,-0.42,-1.21,-0.43,0.43,0.30,0.25,-0.77,-0.78,-0.78
103.29,-1.21,-0.38,-1.23,-0.40,0.40,0.28,0.21,-0.81,-0.83,-0.83
104.32,-1.23,-0.36,-1.24,-0.37,0.37,0.25,0.16,-0.86,-0.87,-0.87
105.37,-1.26,-0.34,-1.26,-0.34,0.34,0.23,0.11,-0.92,-0.93,-0.92
106.42,-1.28,-0.31,-1.28,-0.30,0.30,0.20,0.07,-0.98,-0.98,-0.97
107.48,-1.30,-0.27,-1.30,-0.27,0.27,0.17,0.02,-1.03,-1.03,-1.03
108.56,-1.31,-0.23,-1.31,-0.23,0.23,0.15,-0.02,-1.08,-1.08,-1.08
109.64,-1.33,-0.20,-1.33,-0.19,0.19,0.12,-0.06,-1.14,-1.13,-1.13
110.74,-1.35,-0.16,-1.34,-0.15,0.15,0.09,-0.10,-1.20,-1.19,-1.19
111.85,-1.37,-0.14,-1.35,-0.11,0.11,0.07,-0.14,-1.26,-1.24,-1.23
112.97,-1.38,-0.09,-1.35,-0.07,0.07,0.04,-0.18,-1.31,-1.29,-1.29
114.10,-1.35,-0.01,-1.36,-0.02,0.02,0.01,-0.22,-1.33,-1.33,-1.34
115.24,-1.36,0.03,-1.36,0.02,-0.02,-0.01,-0.26,-1.38,-1.38,-1.39
116.39,-1.36,0.08,-1.36,0.07,-0.07,-0.04,-0.30,-1.43,-1.43,-1.44
117.55,-1.35,0.13,-1.35,0.12,-0.12,-0.07,-0.33,-1.47,-1.47,-1.48
118.73,-1.35,0.17,-1.35,0.16,-0.16,-0.10,-0.37,-1.51,-1.51,-1.52
119.92,-1.34,0.21,-1.34,0.20,-0.20,-0.12,-0.40,-1.54,-1.55,-1.55
121.12,-1.33,0.26,-1.34,0.25,-0.25,-0.15,-0.43,-1.58,-1.58,-1.59
122.33,-1.32,0.30,-1.33,0.29,-0.29,-0.18,-0.46,-1.61,-1.62,-1.62
123.55,-1.32,0.33,-1.33,0.32,-0.32,-0.21,-0.49,-1.65,-1.65,-1.65
124.79,-1.31,0.37,-1.32,0.36,-0.36,-0.24,-0.52,-1.67,-1.68,-1.68
126.03,-1.30,0.41,-1.32,0.39,-0.39,-0.27,-0.55,-1.69,-1.71,-1.71
127.29,-1.32,0.41,-1.32,0.42,-0.42,-0.30,-0.58,-1.74,-1.74,-1.73
128.57,-1.32,0.45,-1.32,0.45,-0.45,-0.33,-0.60,-1.77,-1.77,-1.77
129.85,-1.31,0.49,-1.32,0.48,-0.48,-0.36,-0.63,-1.79,-1.80,-1.80
131.15,-1.31,0.52,-1.32,0.51,-0.51,-0.39,-0.65,-1.82,-1.83,-1.83
132.46,-1.32,0.54,-1.32,0.54,-0.54,-0.42,-0.67,-1.86,-1.86,-1.86
133.79,-1.32,0.57,-1.31,0.57,-0.57,-0.45,-0.69,-1.89,-1.88,-1.89
135.12,-1.32,0.60,-1.31,0.60,-0.60,-0.48,-0.71,-1.92,-1.91,-1.92
136.48,-1.32,0.62,-1.31,0.63,-0.63,-0.51,-0.73,-1.95,-1.94,-1.94
137.84,-1.31,0.67,-1.31,0.66,-0.66,-0.55,-0.75,-1.97,-1.97,-1.98
139.22,-1.31,0.70,-1.30,0.69,-0.69,-0.58,-0.77,-2.00,-2.00,-2.01
140.61,-1.31,0.73,-1.30,0.73,-0.73,-0.61,-0.79,-2.04,-2.03,-2.04
142.02,-1.29,0.77,-1.29,0.77,-0.77,-0.65,-0.81,-2.06,-2.06,-2.06
143.44,-1.28,0.81,-1.29,0.81,-0.81,-0.68,-0.83,-2.09,-2.09,-2.09
144.87,-1.28,0.85,-1.28,0.85,-0.85,-0.72,-0.85,-2.13,-2.13,-2.13
146.32,-1.28,0.89,-1.28,0.90,-0.90,-0.75,-0.87,-2.18,-2.18,-2.17
147.78,-1.26,0.94,-1.27,0.95,-0.95,-0.79,-0.88,-2.21,-2.22,-2.20
149.26,-1.26,0.99,-1.27,1.01,-1.01,-0.82,-0.90,-2.27,-2.28,-2.25
150.75,-1.26,1.05,-1.27,1.07,-1.07,-0.86,-0.92,-2.33,-2.34,-2.31
152.26,-1.26,1.12,-1.27,1.13,-1.13,-0.90,-0.94,-2.39,-2.40,-2.38
153.78,-1.26,1.19,-1.27,1.19,-1.19,-0.94,-0.96,-2.45,-2.46,-2.45
155.32,-1.27,1.25,-1.27,1.26,-1.26,-0.98,-0.98,-2.53,-2.53,-2.52
156.88,-1.28,1.32,-1.27,1.33,-1.33,-1.02,-1.00,-2.61,-2.60,-2.60
158.44,-1.28,1.40,-1.27,1.40,-1.40,-1.06,-1.03,-2.68,-2.67,-2.68
160.03,-1.28,1.48,-1.28,1.46,-1.46,-1.10,-1.05,-2.74,-2.74,-2.76
161.63,-1.28,1.55,-1.28,1.52,-1.52,-1.14,-1.07,-2.80,-2.81,-2.83
163.24,-1.30,1.59,-1.29,1.58,-1.58,-1.18,-1.09,-2.88,-2.87,-2.89
164.88,-1.31,1.63,-1.30,1.63,-1.63,-1.22,-1.12,-2.94,-2.92,-2.94
166.53,-1.30,1.69,-1.30,1.67,-1.67,-1.26,-1.15,-2.97,-2.97,-2.99
168.19,-1.28,1.75,-1.30,1.71,-1.71,-1.31,-1.17,-2.99,-3.01,-3.03
169.87,-1.28,1.79,-1.31,1.74,-1.74,-1.35,-1.20,-3.02,-3.04,-3.07
171.57,-1.30,1.79,-1.31,1.76,-1.76,-1.40,-1.23,-3.06,-3.07,-3.09
173.29,-1.31,1.79,-1.31,1.78,-1.78,-1.44,-1.26,-3.09,-3.09,-3.10
175.02,-1.33,1.78,-1.31,1.80,-1.80,-1.48,-1.29,-3.13,-3.10,-3.11
176.77,-1.33,1.79,-1.31,1.81,-1.81,-1.53,-1.32,-3.14,-3.11,-3.12
178.54,-1.31,1.82,-1.30,1.82,-1.82,-1.58,-1.35,-3.13,-3.12,-3.13
180.32,-1.29,1.83,-1.30,1.83,-1.83,-1.62,-1.39,-3.12,-3.13,-3.12
182.13,-1.27,1.84,-1.29,1.85,-1.85,-1.67,-1.42,-3.12,-3.13,-3.11
183.95,-1.27,1.85,-1.27,1.86,-1.86,-1.71,-1.46,-3.13,-3.14,-3.12
185.79,-1.27,1.85,-1.26,1.88,-1.88,-1.76,-1.50,-3.15,-3.14,-3.12
187.65,-1.26,1.88,-1.25,1.90,-1.90,-1.80,-1.54,-3.16,-3.15,-3.14
189.52,-1.24,1.91,-1.23,1.93,-1.93,-1.85,-1.58,-3.17,-3.16,-3.15
191.42,-1.23,1.94,-1.21,1.96,-1.96,-1.89,-1.62,-3.19,-3.17,-3.17
193.33,-1.20,1.99,-1.19,2.00,-2.00,-1.94,-1.66,-3.20,-3.19,-3.19
195.27,-1.17,2.04,-1.17,2.03,-2.03,-1.98,-1.70,-3.20,-3.21,-3.21
197.22,-1.14,2.09,-1.15,2.07,-2.07,-2.03,-1.74,-3.21,-3.22,-3.23
199.19,-1.12,2.13,-1.14,2.10,-2.10,-2.07,-1.78,-3.22,-3.24,-3.25
201.18,-1.11,2.16,-1.12,2.14,-2.14,-2.11,-1.83,-3.25,-3.26,-3.27
203.19,-1.11,2.18,-1.11,2.17,-2.17,-2.15,-1.87,-3.29,-3.29,-3.29
205.23,-1.10,2.21,-1.10,2.21,-2.21,-2.19,-1.92,-3.31,-3.31,-3.31
207.28,-1.08,2.24,-1.09,2.24,-2.24,-2.23,-1.96,-3.32,-3.33,-3.32
209.35,-1.07,2.27,-1.08,2.26,-2.26,-2.27,-2.00,-3.33,-3.35,-3.34
211.44,-1.06,2.31,-1.08,2.28,-2.28,-2.30,-2.05,-3.34,-3.36,-3.37
213.56,-1.06,2.32,-1.08,2.30,-2.30,-2.34,-2.09,-3.36,-3.38,-3.38
215.69,-1.07,2.32,-1.07,2.32,-2.32,-2.37,-2.14,-3.39,-3.39,-3.39
217.85,-1.07,2.33,-1.07,2.33,-2.33,-2.40,-2.18,-3.40,-3.40,-3.40
220.03,-1.08,2.33,-1.06,2.35,-2.35,-2.43,-2.22,-3.43,-3.41,-3.41
222.23,-1.08,2.36,-1.06,2.36,-2.36,-2.45,-2.26,-3.44,-3.42,-3.44
224.45,-1.06,2.37,-1.05,2.37,-2.37,-2.47,-2.30,-3.43,-3.42,-3.43
226.70,-1.06,2.37,-1.04,2.38,-2.38,-2.49,-2.33,-3.45,-3.42,-3.43
228.96,-1.03,2.39,-1.02,2.39,-2.39,-2.51,-2.37,-3.42,-3.42,-3.42
231.25,-1.02,2.39,-1.01,2.40,-2.40,-2.53,-2.40,-3.42,-3.41,-3.41
233.57,-0.99,2.41,-0.99,2.41,-2.41,-2.54,-2.43,-3.40,-3.40,-3.40
235.90,-0.94,2.45,-0.96,2.42,-2.42,-2.55,-2.46,-3.36,-3.38,-3.39
238.26,-0.93,2.45,-0.94,2.43,-2.43,-2.56,-2.48,-3.36,-3.36,-3.38
240.64,-0.91,2.44,-0.91,2.43,-2.43,-2.56,-2.50,-3.34,-3.35,-3.35
243.05,-0.90,2.42,-0.88,2.44,-2.44,-2.57,-2.52,-3.34,-3.32,-3.32
245.48,-0.87,2.43,-0.86,2.44,-2.44,-2.57,-2.54,-3.31,-3.30,-3.30
247.93,-0.83,2.44,-0.83,2.44,-2.44,-2.56,-2.55,-3.27,-3.28,-3.27
250.41,-0.81,2.44,-0.81,2.44,-2.44,-2.56,-2.56,-3.25,-3.25,-3.25
252.92,-0.79,2.43,-0.80,2.43,-2.43,-2.55,-2.56,-3.22,-3.23,-3.22
255.45,-0.76,2.44,-0.78,2.43,-2.43,-2.54,-2.57,-3.19,-3.21,-3.20
258.00,-0.74,2.44,-0.77,2.41,-2.41,-2.53,-2.56,-3.16,-3.18,-3.18
260.58,-0.74,2.42,-0.76,2.40,-2.40,-2.51,-2.56,-3.14,-3.16,-3.16
263.19,-0.74,2.39,-0.75,2.38,-2.38,-2.50,-2.55,-3.12,-3.13,-3.13
265.82,-0.74,2.37,-0.74,2.36,-2.36,-2.48,-2.54,-3.10,-3.11,-3.11
268.48,-0.74,2.35,-0.74,2.34,-2.34,-2.46,-2.53,-3.08,-3.08,-3.09
271.16,-0.75,2.31,-0.74,2.32,-2.32,-2.44,-2.52,-3.07,-3.06,-3.06
273.87,-0.75,2.29,-0.74,2.29,-2.29,-2.42,-2.50,-3.04,-3.03,-3.04
276.61,-0.75,2.26,-0.74,2.27,-2.27,-2.39,-2.48,-3.02,-3.01,-3.01
279.38,-0.73,2.25,-0.74,2.24,-2.24,-2.37,-2.46,-2.97,-2.98,-2.98
282.17,-0.73,2.23,-0.74,2.21,-2.21,-2.34,-2.44,-2.94,-2.95,-2.96
284.99,-0.75,2.17,-0.74,2.18,-2.18,-2.31,-2.41,-2.93,-2.92,-2.92
287.84,-0.76,2.14,-0.74,2.16,-2.16,-2.29,-2.39,-2.92,-2.89,-2.90
290.72,-0.73,2.14,-0.74,2.13,-2.13,-2.26,-2.36,-2.86,-2.86,-2.87
293.63,-0.73,2.11,-0.73,2.10,-2.10,-2.23,-2.34,-2.83,-2.84,-2.84
296.57,-0.72,2.09,-0.73,2.08,-2.08,-2.20,-2.31,-2.80,-2.81,-2.81
299.53,-0.72,2.06,-0.72,2.06,-2.06,-2.17,-2.28,-2.78,-2.78,-2.78
302.53,-0.71,2.05,-0.71,2.04,-2.04,-2.14,-2.26,-2.75,-2.75,-2.76
305.55,-0.70,2.02,-0.70,2.03,-2.03,-2.11,-2.23,-2.73,-2.73,-2.72
308.61,-0.70,2.00,-0.69,2.01,-2.01,-2.08,-2.21,-2.71,-2.70,-2.70
311.69,-0.70,1.97,-0.68,1.99,-1.99,-2.05,-2.18,-2.69,-2.68,-2.67
314.81,-0.68,1.97,-0.68,1.98,-1.98,-2.03,-2.16,-2.66,-2.66,-2.65
317.96,-0.67,1.96,-0.67,1.97,-1.97,-2.00,-2.13,-2.64,-2.63,-2.63
321.14,-0.65,1.97,-0.66,1.96,-1.96,-1.97,-2.11,-2.61,-2.62,-2.62
324.35,-0.63,1.97,-0.65,1.95,-1.95,-1.94,-2.09,-2.58,-2.60,-2.60
327.59,-0.62,1.97,-0.65,1.94,-1.94,-1.92,-2.07,-2.56,-2.58,-2.59
330.87,-0.62,1.96,-0.64,1.93,-1.93,-1.89,-2.05,-2.55,-2.57,-2.58
334.18,-0.63,1.93,-0.64,1.92,-1.92,-1.87,-2.03,-2.55,-2.56,-2.56
337.52,-0.65,1.90,-0.63,1.92,-1.92,-1.84,-2.01,-2.57,-2.55,-2.55
340.90,-0.67,1.87,-0.63,1.91,-1.91,-1.82,-2.00,-2.58,-2.54,-2.54
344.30,-0.65,1.88,-0.63,1.90,-1.90,-1.80,-1.99,-2.55,-2.53,-2.53
347.75,-0.62,1.91,-0.63,1.89,-1.89,-1.77,-1.97,-2.51,-2.53,-2.53
351.23,-0.62,1.90,-0.64,1.88,-1.88,-1.75,-1.96,-2.50,-2.52,-2.52
354.74,-0.64,1.89,-0.65,1.87,-1.87,-1.73,-1.95,-2.51,-2.52,-2.53
358.28,-0.65,1.87,-0.66,1.86,-1.86,-1.71,-1.95,-2.51,-2.52,-2.52
361.87,-0.64,1.88,-0.66,1.86,-1.86,-1.70,-1.94,-2.50,-2.52,-2.52
365.49,-0.63,1.88,-0.66,1.86,-1.86,-1.68,-1.94,-2.49,-2.51,-2.51
369.14,-0.66,1.86,-0.66,1.86,-1.86,-1.66,-1.93,-2.52,-2.52,-2.52
372.83,-0.69,1.83,-0.66,1.86,-1.86,-1.65,-1.93,-2.55,-2.52,-2.52
376.56,-0.70,1.83,-0.66,1.86,-1.86,-1.64,-1.93,-2.56,-2.52,-2.53
380.33,-0.70,1.82,-0.66,1.86,-1.86,-1.62,-1.93,-2.56,-2.52,-2.52
384.13,-0.69,1.83,-0.67,1.86,-1.86,-1.61,-1.94,-2.55,-2.53,-2.52
387.97,-0.68,1.85,-0.67,1.86,-1.86,-1.60,-1.94,-2.54,-2.53,-2.53
391.85,-0.64,1.90,-0.68,1.86,-1.86,-1.59,-1.95,-2.50,-2.53,-2.54
395.77,-0.63,1.90,-0.69,1.85,-1.85,-1.58,-1.95,-2.48,-2.54,-2.53
399.73,-0.64,1.90,-0.70,1.85,-1.85,-1.58,-1.96,-2.49,-2.55,-2.54
403.72,-0.67,1.87,-0.71,1.85,-1.85,-1.57,-1.97,-2.52,-2.55,-2.54
407.76,-0.69,1.87,-0.71,1.84,-1.84,-1.56,-1.98,-2.53,-2.56,-2.56
411.84,-0.71,1.85,-0.71,1.84,-1.84,-1.56,-1.99,-2.55,-2.56,-2.56
415.96,-0.73,1.83,-0.71,1.84,-1.84,-1.56,-2.00,-2.58,-2.56,-2.56
420.12,-0.74,1.82,-0.71,1.85,-1.85,-1.56,-2.01,-2.59,-2.56,-2.56
424.32,-0.73,1.83,-0.71,1.85,-1.85,-1.56,-2.02,-2.58,-2.55,-2.56
428.56,-0.74,1.81,-0.69,1.85,-1.85,-1.56,-2.04,-2.59,-2.54,-2.55
432.85,-0.73,1.81,-0.68,1.85,-1.85,-1.56,-2.05,-2.58,-2.52,-2.54
437.18,-0.69,1.84,-0.65,1.85,-1.85,-1.56,-2.06,-2.54,-2.50,-2.53
441.55,-0.65,1.84,-0.62,1.86,-1.86,-1.56,-2.08,-2.51,-2.48,-2.49
445.96,-0.60,1.86,-0.58,1.86,-1.86,-1.57,-2.09,-2.47,-2.45,-2.46
450.42,-0.53,1.90,-0.54,1.87,-1.87,-1.57,-2.10,-2.40,-2.41,-2.43
454.93,-0.47,1.91,-0.49,1.88,-1.88,-1.58,-2.11,-2.35,-2.37,-2.38
459.48,-0.43,1.91,-0.45,1.88,-1.88,-1.59,-2.12,-2.31,-2.33,-2.34
464.07,-0.39,1.90,-0.40,1.88,-1.88,-1.60,-2.13,-2.27,-2.28,-2.29
