frequency,raw,error,smoothed,error_smoothed,equalization,parametric_eq,fixed_band_eq,equalized_raw,equalized_smoothed,target
20.00,-2.09,-5.37,-2.10,-5.41,5.41,4.36,2.50,3.32,3.31,3.28
20.20,-2.08,-5.41,-2.09,-5.43,5.43,4.42,2.57,3.35,3.34,3.33
20.40,-2.07,-5.45,-2.07,-5.45,5.45,4.48,2.65,3.38,3.38,3.38
20.61,-2.06,-5.47,-2.06,-5.47,5.47,4.54,2.72,3.41,3.41,3.41
20.81,-2.05,-5.51,-2.05,-5.49,5.49,4.59,2.80,3.44,3.44,3.46
21.02,-2.04,-5.54,-2.03,-5.50,5.50,4.65,2.89,3.46,3.47,3.50
21.23,-2.03,-5.55,-2.02,-5.51,5.51,4.71,2.97,3.48,3.49,3.52
21.44,-2.02,-5.56,-2.01,-5.52,5.52,4.77,3.06,3.50,3.52,3.53
21.66,-2.00,-5.55,-2.00,-5.53,5.53,4.82,3.14,3.53,3.54,3.55
21.87,-1.99,-5.55,-1.99,-5.54,5.54,4.88,3.23,3.55,3.55,3.56
22.09,-1.98,-5.56,-1.98,-5.55,5.55,4.94,3.33,3.56,3.57,3.58
22.31,-1.97,-5.56,-1.97,-5.55,5.55,4.99,3.42,3.58,3.58,3.59
22.54,-1.95,-5.54,-1.95,-5.54,5.54,5.05,3.52,3.59,3.59,3.59
22.76,-1.94,-5.53,-1.94,-5.54,5.54,5.10,3.62,3.60,3.59,3.59
22.99,-1.93,-5.51,-1.94,-5.53,5.53,5.15,3.73,3.60,3.59,3.58
23.22,-1.92,-5.50,-1.93,-5.52,5.52,5.21,3.83,3.60,3.59,3.58
23.45,-1.92,-5.50,-1.92,-5.51,5.51,5.26,3.94,3.59,3.59,3.58
23.69,-1.91,-5.50,-1.91,-5.51,5.51,5.31,4.05,3.60,3.59,3.59
23.92,-1.90,-5.49,-1.91,-5.50,5.50,5.36,4.17,3.60,3.59,3.59
24.16,-1.90,-5.50,-1.91,-5.50,5.50,5.41,4.28,3.60,3.59,3.60
24.40,-1.90,-5.51,-1.90,-5.50,5.50,5.45,4.40,3.60,3.59,3.61
24.65,-1.90,-5.50,-1.90,-5.49,5.49,5.50,4.51,3.59,3.59,3.59
24.89,-1.90,-5.49,-1.90,-5.49,5.49,5.55,4.63,3.59,3.59,3.59
25.14,-1.90,-5.49,-1.89,-5.49,5.49,5.59,4.76,3.59,3.59,3.59
25.39,-1.89,-5.49,-1.89,-5.48,5.48,5.63,4.88,3.59,3.60,3.60
25.65,-1.89,-5.49,-1.88,-5.48,5.48,5.67,5.00,3.59,3.60,3.60
25.91,-1.89,-5.48,-1.88,-5.47,5.47,5.71,5.12,3.58,3.60,3.59
26.16,-1.88,-5.47,-1.87,-5.47,5.47,5.75,5.25,3.59,3.59,3.59
26.43,-1.87,-5.46,-1.87,-5.46,5.46,5.78,5.37,3.59,3.59,3.59
26.69,-1.86,-5.45,-1.86,-5.45,5.45,5.82,5.49,3.59,3.59,3.59
26.96,-1.85,-5.44,-1.86,-5.44,5.44,5.85,5.61,3.59,3.59,3.59
27.23,-1.84,-5.43,-1.85,-5.44,5.44,5.88,5.72,3.60,3.58,3.59
27.50,-1.84,-5.43,-1.85,-5.43,5.43,5.91,5.84,3.59,3.58,3.59
27.77,-1.84,-5.42,-1.84,-5.42,5.42,5.93,5.95,3.58,3.58,3.58
28.05,-1.84,-5.42,-1.84,-5.42,5.42,5.96,6.05,3.58,3.58,3.58
28.33,-1.84,-5.41,-1.84,-5.41,5.41,5.98,6.15,3.57,3.58,3.57
28.62,-1.84,-5.41,-1.83,-5.41,5.41,6.00,6.25,3.57,3.58,3.56
28.90,-1.83,-5.40,-1.83,-5.41,5.41,6.01,6.34,3.58,3.57,3.57
29.19,-1.83,-5.39,-1.83,-5.41,5.41,6.03,6.42,3.58,3.57,3.56
29.48,-1.83,-5.41,-1.84,-5.41,5.41,6.04,6.49,3.58,3.57,3.58
29.78,-1.83,-5.40,-1.84,-5.41,5.41,6.05,6.56,3.58,3.57,3.57
30.08,-1.84,-5.42,-1.84,-5.41,5.41,6.05,6.61,3.57,3.56,3.58
30.38,-1.84,-5.40,-1.85,-5.41,5.41,6.06,6.66,3.57,3.56,3.56
30.68,-1.85,-5.41,-1.85,-5.41,5.41,6.06,6.70,3.56,3.56,3.56
30.99,-1.86,-5.42,-1.85,-5.41,5.41,6.06,6.72,3.55,3.56,3.56
31.30,-1.86,-5.42,-1.86,-5.42,5.42,6.06,6.74,3.56,3.56,3.56
31.61,-1.87,-5.42,-1.87,-5.42,5.42,6.05,6.75,3.55,3.55,3.55
31.93,-1.87,-5.42,-1.87,-5.42,5.42,6.04,6.74,3.55,3.55,3.55
32.24,-1.88,-5.42,-1.88,-5.42,5.42,6.03,6.73,3.54,3.55,3.54
32.57,-1.88,-5.43,-1.88,-5.42,5.42,6.02,6.71,3.54,3.54,3.55
32.89,-1.88,-5.42,-1.89,-5.42,5.42,6.00,6.68,3.54,3.54,3.54
33.22,-1.89,-5.42,-1.89,-5.42,5.42,5.98,6.64,3.53,3.53,3.53
33.55,-1.90,-5.43,-1.89,-5.42,5.42,5.96,6.59,3.52,3.52,3.53
33.89,-1.91,-5.42,-1.90,-5.42,5.42,5.94,6.53,3.51,3.52,3.51
34.23,-1.91,-5.43,-1.90,-5.42,5.42,5.92,6.47,3.50,3.51,3.52
34.57,-1.90,-5.41,-1.90,-5.41,5.41,5.89,6.40,3.51,3.51,3.51
34.92,-1.89,-5.39,-1.91,-5.41,5.41,5.86,6.33,3.52,3.50,3.50
35.27,-1.89,-5.39,-1.91,-5.41,5.41,5.83,6.25,3.52,3.50,3.50
35.62,-1.90,-5.40,-1.92,-5.41,5.41,5.80,6.17,3.51,3.50,3.50
35.97,-1.91,-5.40,-1.92,-5.41,5.41,5.76,6.09,3.50,3.49,3.49
36.33,-1.92,-5.42,-1.92,-5.41,5.41,5.73,6.00,3.49,3.49,3.50
36.70,-1.93,-5.41,-1.92,-5.41,5.41,5.69,5.92,3.48,3.49,3.48
37.06,-1.94,-5.42,-1.92,-5.41,5.41,5.65,5.83,3.47,3.49,3.48
37.43,-1.93,-5.42,-1.92,-5.41,5.41,5.60,5.74,3.48,3.49,3.49
37.81,-1.92,-5.41,-1.92,-5.40,5.40,5.56,5.66,3.48,3.49,3.49
38.19,-1.92,-5.40,-1.91,-5.40,5.40,5.52,5.57,3.48,3.49,3.48
38.57,-1.91,-5.40,-1.91,-5.39,5.39,5.47,5.48,3.48,3.49,3.49
38.95,-1.90,-5.39,-1.90,-5.38,5.38,5.42,5.40,3.48,3.49,3.49
39.34,-1.89,-5.38,-1.89,-5.37,5.37,5.37,5.32,3.48,3.48,3.49
39.74,-1.88,-5.36,-1.88,-5.36,5.36,5.32,5.24,3.48,3.48,3.48
40.14,-1.86,-5.35,-1.87,-5.35,5.35,5.27,5.16,3.49,3.48,3.48
40.54,-1.84,-5.32,-1.85,-5.33,5.33,5.22,5.09,3.49,3.48,3.48
40.94,-1.81,-5.28,-1.83,-5.30,5.30,5.17,5.01,3.49,3.47,3.47
41.35,-1.80,-5.26,-1.81,-5.28,5.28,5.11,4.95,3.47,3.47,3.46
41.76,-1.79,-5.25,-1.79,-5.24,5.24,5.06,4.88,3.45,3.46,3.46
42.18,-1.78,-5.24,-1.76,-5.21,5.21,5.00,4.82,3.43,3.45,3.46
42.60,-1.77,-5.21,-1.74,-5.18,5.18,4.94,4.76,3.41,3.44,3.44
43.03,-1.76,-5.19,-1.72,-5.14,5.14,4.89,4.70,3.38,3.42,3.43
43.46,-1.71,-5.14,-1.70,-5.11,5.11,4.83,4.65,3.40,3.41,3.42
43.90,-1.67,-5.07,-1.68,-5.07,5.07,4.77,4.60,3.40,3.40,3.40
44.33,-1.63,-5.01,-1.65,-5.04,5.04,4.71,4.56,3.41,3.38,3.38
44.78,-1.59,-4.95,-1.63,-5.00,5.00,4.65,4.51,3.41,3.37,3.36
45.23,-1.58,-4.93,-1.62,-4.97,4.97,4.59,4.48,3.39,3.35,3.35
45.68,-1.59,-4.92,-1.60,-4.93,4.93,4.53,4.44,3.34,3.34,3.33
46.13,-1.59,-4.90,-1.58,-4.90,4.90,4.48,4.41,3.31,3.32,3.31
46.60,-1.58,-4.89,-1.57,-4.87,4.87,4.42,4.38,3.29,3.30,3.31
47.06,-1.57,-4.86,-1.56,-4.84,4.84,4.36,4.36,3.27,3.29,3.29
47.53,-1.55,-4.82,-1.55,-4.82,4.82,4.30,4.33,3.27,3.27,3.27
48.01,-1.53,-4.80,-1.55,-4.80,4.80,4.24,4.32,3.27,3.25,3.27
48.49,-1.53,-4.78,-1.55,-4.78,4.78,4.18,4.30,3.25,3.24,3.25
48.97,-1.53,-4.76,-1.54,-4.77,4.77,4.12,4.29,3.24,3.22,3.23
49.46,-1.53,-4.73,-1.54,-4.75,4.75,4.06,4.28,3.22,3.21,3.20
49.96,-1.53,-4.71,-1.54,-4.73,4.73,4.00,4.27,3.20,3.19,3.18
50.46,-1.53,-4.71,-1.53,-4.70,4.70,3.94,4.26,3.17,3.18,3.17
50.96,-1.54,-4.70,-1.52,-4.68,4.68,3.88,4.26,3.14,3.16,3.16
51.47,-1.54,-4.68,-1.51,-4.65,4.65,3.82,4.26,3.11,3.14,3.13
51.99,-1.54,-4.66,-1.50,-4.63,4.63,3.76,4.25,3.09,3.13,3.12
52.51,-1.51,-4.62,-1.49,-4.60,4.60,3.70,4.25,3.09,3.11,3.11
53.03,-1.48,-4.59,-1.48,-4.58,4.58,3.64,4.26,3.10,3.10,3.10
53.56,-1.44,-4.53,-1.48,-4.56,4.56,3.59,4.26,3.12,3.08,3.09
54.10,-1.42,-4.49,-1.46,-4.53,4.53,3.53,4.26,3.11,3.07,3.07
54.64,-1.43,-4.48,-1.45,-4.51,4.51,3.47,4.26,3.08,3.05,3.05
55.18,-1.42,-4.46,-1.44,-4.48,4.48,3.41,4.26,3.06,3.04,3.04
55.74,-1.39,-4.41,-1.42,-4.44,4.44,3.36,4.26,3.05,3.03,3.02
56.29,-1.39,-4.40,-1.39,-4.40,4.40,3.30,4.26,3.01,3.01,3.01
56.86,-1.41,-4.40,-1.37,-4.36,4.36,3.25,4.26,2.95,2.99,2.99
57.42,-1.40,-4.36,-1.35,-4.32,4.32,3.19,4.25,2.92,2.97,2.96
58.00,-1.39,-4.33,-1.33,-4.28,4.28,3.14,4.25,2.89,2.95,2.94
58.58,-1.34,-4.27,-1.32,-4.24,4.24,3.08,4.24,2.90,2.92,2.93
59.16,-1.29,-4.20,-1.30,-4.19,4.19,3.03,4.23,2.90,2.89,2.90
59.76,-1.24,-4.12,-1.28,-4.14,4.14,2.98,4.21,2.90,2.86,2.88
60.35,-1.21,-4.04,-1.26,-4.08,4.08,2.92,4.19,2.87,2.82,2.83
60.96,-1.18,-3.98,-1.23,-4.02,4.02,2.87,4.17,2.84,2.79,2.80
61.57,-1.17,-3.92,-1.20,-3.95,3.95,2.82,4.14,2.78,2.75,2.75
62.18,-1.17,-3.87,-1.17,-3.88,3.88,2.77,4.11,2.71,2.70,2.70
62.80,-1.19,-3.84,-1.14,-3.80,3.80,2.72,4.07,2.61,2.66,2.65
63.43,-1.18,-3.78,-1.12,-3.73,3.73,2.67,4.04,2.55,2.61,2.60
64.07,-1.16,-3.71,-1.09,-3.65,3.65,2.62,3.99,2.49,2.56,2.55
64.71,-1.08,-3.58,-1.07,-3.58,3.58,2.57,3.94,2.50,2.51,2.50
65.35,-1.03,-3.49,-1.06,-3.51,3.51,2.52,3.89,2.48,2.46,2.46
66.01,-1.02,-3.42,-1.04,-3.45,3.45,2.47,3.84,2.43,2.40,2.40
66.67,-0.99,-3.34,-1.03,-3.38,3.38,2.42,3.78,2.39,2.35,2.35
67.33,-0.98,-3.27,-1.02,-3.32,3.32,2.38,3.72,2.33,2.30,2.29
68.01,-0.98,-3.23,-1.01,-3.25,3.25,2.33,3.65,2.27,2.24,2.25
68.69,-0.98,-3.17,-1.00,-3.18,3.18,2.28,3.58,2.20,2.19,2.19
69.37,-0.99,-3.12,-0.99,-3.12,3.12,2.24,3.51,2.13,2.13,2.13
70.07,-1.00,-3.07,-0.98,-3.05,3.05,2.19,3.44,2.05,2.07,2.07
70.77,-1.00,-3.02,-0.98,-2.99,2.99,2.15,3.36,1.99,2.01,2.02
71.48,-1.00,-2.96,-0.98,-2.93,2.93,2.10,3.29,1.93,1.95,1.96
72.19,-1.00,-2.89,-0.98,-2.87,2.87,2.06,3.21,1.87,1.89,1.89
72.91,-1.00,-2.83,-0.99,-2.81,2.81,2.01,3.13,1.81,1.82,1.82
73.64,-1.00,-2.76,-1.00,-2.76,2.76,1.97,3.05,1.76,1.76,1.76
74.38,-1.00,-2.70,-1.01,-2.70,2.70,1.93,2.97,1.70,1.70,1.70
75.12,-1.00,-2.63,-1.02,-2.65,2.65,1.89,2.88,1.65,1.63,1.63
75.87,-1.00,-2.56,-1.03,-2.60,2.60,1.84,2.80,1.60,1.57,1.56
76.63,-1.00,-2.50,-1.04,-2.55,2.55,1.80,2.72,1.54,1.51,1.50
77.40,-1.01,-2.46,-1.05,-2.49,2.49,1.76,2.64,1.48,1.45,1.44
78.17,-1.04,-2.42,-1.06,-2.44,2.44,1.72,2.56,1.40,1.39,1.37
78.95,-1.09,-2.42,-1.07,-2.40,2.40,1.68,2.48,1.31,1.33,1.33
79.74,-1.11,-2.38,-1.08,-2.35,2.35,1.64,2.40,1.24,1.27,1.27
80.54,-1.12,-2.34,-1.09,-2.30,2.30,1.60,2.32,1.18,1.22,1.22
81.35,-1.13,-2.29,-1.10,-2.25,2.25,1.57,2.24,1.12,1.16,1.16
82.16,-1.11,-2.21,-1.10,-2.21,2.21,1.53,2.16,1.10,1.10,1.10
82.98,-1.11,-2.17,-1.11,-2.16,2.16,1.49,2.09,1.05,1.05,1.05
83.81,-1.11,-2.10,-1.12,-2.11,2.11,1.45,2.01,1.00,0.99,0.99
84.65,-1.11,-2.04,-1.12,-2.05,2.05,1.41,1.94,0.94,0.93,0.93
85.50,-1.11,-1.99,-1.12,-2.00,2.00,1.38,1.86,0.89,0.88,0.88
86.35,-1.11,-1.93,-1.12,-1.94,1.94,1.34,1.79,0.83,0.82,0.82
87.22,-1.11,-1.88,-1.12,-1.88,1.88,1.30,1.72,0.76,0.76,0.76
88.09,-1.10,-1.80,-1.11,-1.81,1.81,1.27,1.65,0.71,0.70,0.70
88.97,-1.11,-1.75,-1.11,-1.75,1.75,1.23,1.58,0.64,0.64,0.64
89.86,-1.12,-1.70,-1.11,-1.69,1.69,1.20,1.52,0.57,0.58,0.58
90.76,-1.12,-1.64,-1.11,-1.63,1.63,1.16,1.45,0.51,0.52,0.52
91.66,-1.12,-1.59,-1.12,-1.58,1.58,1.13,1.39,0.46,0.46,0.47
92.58,-1.12,-1.51,-1.12,-1.52,1.52,1.09,1.32,0.40,0.40,0.39
93.51,-1.12,-1.46,-1.12,-1.47,1.47,1.06,1.26,0.34,0.34,0.34
94.44,-1.12,-1.40,-1.13,-1.41,1.41,1.02,1.20,0.29,0.28,0.28
95.39,-1.12,-1.35,-1.13,-1.35,1.35,0.99,1.14,0.23,0.22,0.23
96.34,-1.13,-1.29,-1.14,-1.30,1.30,0.96,1.08,0.17,0.16,0.16
97.30,-1.16,-1.27,-1.15,-1.25,1.25,0.92,1.03,0.09,0.11,0.11
98.28,-1.16,-1.21,-1.16,-1.21,1.21,0.89,0.97,0.04,0.05,0.05
99.26,-1.16,-1.15,-1.17,-1.16,1.16,0.86,0.91,-0.00,-0.01,-0.01
100.25,-1.17,-1.11,-1.18,-1.11,1.11,0.82,0.86,-0.06,-0.07,-0.07
101.25,-1.19,-1.07,-1.19,-1.07,1.07,0.79,0.81,-0.12,-0.12,-0.12
102.27,-1.20,-1.02,-1.21,-1.03,1.03,0.76,0.75,-0.17,-0.18,-0.18
103.29,-1.21,-0.96,-1.23,-0.99,0.99,0.72,0.70,-0.23,-0.24,-0.25
104.32,-1.23,-0.94,-1.24,-0.94,0.94,0.69,0.65,-0.29,-0.30,-0.30
105.37,-1.26,-0.91,-1.26,-0.90,0.90,0.66,0.60,-0.36,-0.36,-0.35
106.42,-1.28,-0.87,-1.28,-0.86,0.86,0.63,0.55,-0.42,-0.42,-0.41
107.48,-1.30,-0.82,-1.30,-0.81,0.81,0.59,0.50,-0.49,-0.48,-0.48
108.56,-1.31,-0.76,-1.31,-0.77,0.77,0.56,0.46,-0.54,-0.55,-0.55
109.64,-1.33,-0.73,-1.33,-0.72,0.72,0.53,0.41,-0.61,-0.61,-0.60
110.74,-1.35,-0.68,-1.34,-0.67,0.67,0.50,0.37,-0.68,-0.67,-0.67
111.85,-1.37,-0.65,-1.35,-0.62,0.62,0.46,0.32,-0.75,-0.73,-0.72
112.97,-1.38,-0.59,-1.35,-0.56,0.56,0.43,0.28,-0.82,-0.79,-0.80
114.10,-1.35,-0.50,-1.36,-0.51,0.51,0.40,0.24,-0.84,-0.85,-0.85
115.24,-1.36,-0.45,-1.36,-0.45,0.45,0.37,0.19,-0.91,-0.90,-0.91
116.39,-1.36,-0.39,-1.36,-0.40,0.40,0.33,0.15,-0.96,-0.96,-0.97
117.55,-1.35,-0.33,-1.35,-0.34,0.34,0.30,0.11,-1.01,-1.01,-1.02
118.73,-1.35,-0.28,-1.35,-0.29,0.29,0.27,0.08,-1.07,-1.06,-1.07
119.92,-1.34,-0.23,-1.34,-0.23,0.23,0.24,0.04,-1.11,-1.11,-1.11
121.12,-1.33,-0.17,-1.34,-0.18,0.18,0.20,0.00,-1.15,-1.16,-1.16
122.33,-1.32,-0.11,-1.33,-0.13,0.13,0.17,-0.03,-1.19,-1.20,-1.21
123.55,-1.32,-0.08,-1.33,-0.08,0.08,0.14,-0.07,-1.24,-1.24,-1.24
124.79,-1.31,-0.03,-1.32,-0.04,0.04,0.10,-0.10,-1.27,-1.29,-1.28
126.03,-1.30,0.02,-1.32,0.01,-0.01,0.07,-0.14,-1.31,-1.32,-1.32
127.29,-1.32,0.03,-1.32,0.05,-0.05,0.03,-0.17,-1.37,-1.36,-1.35
128.57,-1.32,0.08,-1.32,0.09,-0.09,-0.00,-0.20,-1.41,-1.40,-1.40
129.85,-1.31,0.13,-1.32,0.12,-0.12,-0.04,-0.23,-1.44,-1.44,-1.44
131.15,-1.31,0.17,-1.32,0.16,-0.16,-0.07,-0.26,-1.47,-1.48,-1.48
132.46,-1.32,0.20,-1.32,0.20,-0.20,-0.11,-0.29,-1.52,-1.52,-1.52
133.79,-1.32,0.23,-1.31,0.24,-0.24,-0.14,-0.32,-1.56,-1.55,-1.55
135.12,-1.32,0.28,-1.31,0.28,-0.28,-0.18,-0.35,-1.60,-1.59,-1.60
136.48,-1.32,0.30,-1.31,0.31,-0.31,-0.21,-0.37,-1.63,-1.63,-1.62
137.84,-1.31,0.36,-1.31,0.35,-0.35,-0.25,-0.40,-1.66,-1.66,-1.67
139.22,-1.31,0.40,-1.30,0.40,-0.40,-0.29,-0.43,-1.71,-1.70,-1.71
140.61,-1.31,0.44,-1.30,0.44,-0.44,-0.33,-0.46,-1.75,-1.74,-1.75
142.02,-1.29,0.48,-1.29,0.49,-0.49,-0.36,-0.48,-1.78,-1.78,-1.78
143.44,-1.28,0.53,-1.29,0.53,-0.53,-0.40,-0.51,-1.81,-1.82,-1.82
144.87,-1.28,0.58,-1.28,0.59,-0.59,-0.44,-0.54,-1.87,-1.87,-1.86
146.32,-1.28,0.63,-1.28,0.64,-0.64,-0.48,-0.56,-1.92,-1.92,-1.91
147.78,-1.26,0.69,-1.27,0.71,-0.71,-0.52,-0.59,-1.97,-1.98,-1.95
149.26,-1.26,0.75,-1.27,0.77,-0.77,-0.56,-0.62,-2.03,-2.04,-2.01
150.75,-1.26,0.82,-1.27,0.84,-0.84,-0.60,-0.65,-2.10,-2.10,-2.08
152.26,-1.26,0.90,-1.27,0.91,-0.91,-0.65,-0.67,-2.17,-2.18,-2.16
153.78,-1.26,0.97,-1.27,0.98,-0.98,-0.69,-0.70,-2.24,-2.25,-2.23
155.32,-1.27,1.04,-1.27,1.05,-1.05,-0.73,-0.73,-2.33,-2.33,-2.31
156.88,-1.28,1.11,-1.27,1.13,-1.13,-0.78,-0.76,-2.41,-2.40,-2.39
158.44,-1.28,1.20,-1.27,1.21,-1.21,-0.82,-0.79,-2.49,-2.48,-2.48
160.03,-1.28,1.29,-1.28,1.28,-1.28,-0.87,-0.82,-2.56,-2.56,-2.57
161.63,-1.28,1.37,-1.28,1.34,-1.34,-0.91,-0.85,-2.62,-2.63,-2.65
163.24,-1.30,1.42,-1.29,1.41,-1.41,-0.96,-0.89,-2.71,-2.70,-2.72
164.88,-1.31,1.47,-1.30,1.46,-1.46,-1.00,-0.92,-2.77,-2.76,-2.78
166.53,-1.30,1.53,-1.30,1.51,-1.51,-1.05,-0.95,-2.81,-2.81,-2.83
168.19,-1.28,1.60,-1.30,1.56,-1.56,-1.10,-0.99,-2.84,-2.86,-2.88
169.87,-1.28,1.64,-1.31,1.59,-1.59,-1.15,-1.02,-2.87,-2.90,-2.92
171.57,-1.30,1.64,-1.31,1.62,-1.62,-1.20,-1.06,-2.92,-2.93,-2.94
173.29,-1.31,1.66,-1.31,1.65,-1.65,-1.25,-1.10,-2.96,-2.96,-2.97
175.02,-1.33,1.65,-1.31,1.67,-1.67,-1.30,-1.13,-3.00,-2.98,-2.98
176.77,-1.33,1.67,-1.31,1.69,-1.69,-1.35,-1.17,-3.02,-2.99,-3.00
178.54,-1.31,1.70,-1.30,1.70,-1.70,-1.40,-1.21,-3.01,-3.00,-3.01
180.32,-1.29,1.72,-1.30,1.72,-1.72,-1.45,-1.26,-3.01,-3.02,-3.01
182.13,-1.27,1.73,-1.29,1.74,-1.74,-1.51,-1.30,-3.01,-3.03,-3.00
183.95,-1.27,1.75,-1.27,1.76,-1.76,-1.56,-1.34,-3.03,-3.04,-3.02
185.79,-1.27,1.76,-1.26,1.79,-1.79,-1.61,-1.38,-3.06,-3.05,-3.03
187.65,-1.26,1.79,-1.25,1.81,-1.81,-1.66,-1.43,-3.07,-3.06,-3.05
189.52,-1.24,1.83,-1.23,1.85,-1.85,-1.71,-1.48,-3.09,-3.08,-3.07
191.42,-1.23,1.86,-1.21,1.88,-1.88,-1.77,-1.52,-3.11,-3.09,-3.09
193.33,-1.20,1.91,-1.19,1.92,-1.92,-1.82,-1.57,-3.12,-3.11,-3.11
195.27,-1.17,1.97,-1.17,1.96,-1.96,-1.87,-1.62,-3.13,-3.14,-3.14
197.22,-1.14,2.02,-1.15,2.00,-2.00,-1.92,-1.67,-3.14,-3.16,-3.16
199.19,-1.12,2.07,-1.14,2.04,-2.04,-1.97,-1.72,-3.16,-3.18,-3.19
201.18,-1.11,2.10,-1.12,2.08,-2.08,-2.02,-1.77,-3.19,-3.21,-3.21
203.19,-1.11,2.12,-1.11,2.12,-2.12,-2.07,-1.82,-3.23,-3.23,-3.23
205.23,-1.10,2.16,-1.10,2.16,-2.16,-2.12,-1.87,-3.26,-3.26,-3.26
207.28,-1.08,2.19,-1.09,2.19,-2.19,-2.16,-1.92,-3.27,-3.28,-3.27
209.35,-1.07,2.22,-1.08,2.22,-2.22,-2.21,-1.97,-3.29,-3.30,-3.29
211.44,-1.06,2.27,-1.08,2.24,-2.24,-2.25,-2.02,-3.30,-3.32,-3.33
213.56,-1.06,2.28,-1.08,2.26,-2.26,-2.29,-2.06,-3.32,-3.34,-3.34
215.69,-1.07,2.28,-1.07,2.28,-2.28,-2.33,-2.11,-3.35,-3.36,-3.35
217.85,-1.07,2.30,-1.07,2.30,-2.30,-2.37,-2.16,-3.37,-3.37,-3.37
220.03,-1.08,2.30,-1.06,2.32,-2.32,-2.40,-2.21,-3.40,-3.38,-3.38
222.23,-1.08,2.33,-1.06,2.33,-2.33,-2.44,-2.25,-3.42,-3.39,-3.41
224.45,-1.06,2.34,-1.05,2.35,-2.35,-2.46,-2.29,-3.41,-3.40,-3.40
226.70,-1.06,2.35,-1.04,2.36,-2.36,-2.49,-2.33,-3.42,-3.40,-3.41
228.96,-1.03,2.37,-1.02,2.38,-2.38,-2.52,-2.37,-3.41,-3.40,-3.40
231.25,-1.02,2.37,-1.01,2.39,-2.39,-2.54,-2.41,-3.41,-3.39,-3.39
233.57,-0.99,2.39,-0.99,2.40,-2.40,-2.55,-2.44,-3.39,-3.38,-3.38
235.90,-0.94,2.44,-0.96,2.41,-2.41,-2.57,-2.47,-3.35,-3.37,-3.38
238.26,-0.93,2.44,-0.94,2.42,-2.42,-2.58,-2.50,-3.35,-3.36,-3.37
240.64,-0.91,2.44,-0.91,2.43,-2.43,-2.59,-2.53,-3.34,-3.34,-3.35
243.05,-0.90,2.42,-0.88,2.44,-2.44,-2.59,-2.55,-3.34,-3.32,-3.32
245.48,-0.87,2.43,-0.86,2.44,-2.44,-2.60,-2.57,-3.31,-3.30,-3.30
247.93,-0.83,2.44,-0.83,2.45,-2.45,-2.60,-2.58,-3.28,-3.28,-3.27
250.41,-0.81,2.45,-0.81,2.44,-2.44,-2.59,-2.59,-3.26,-3.26,-3.26
252.92,-0.79,2.44,-0.80,2.44,-2.44,-2.58,-2.60,-3.23,-3.24,-3.23
255.45,-0.76,2.45,-0.78,2.43,-2.43,-2.58,-2.61,-3.20,-3.22,-3.21
258.00,-0.74,2.44,-0.77,2.43,-2.43,-2.56,-2.61,-3.17,-3.19,-3.18
260.58,-0.74,2.43,-0.76,2.41,-2.41,-2.55,-2.60,-3.15,-3.17,-3.17
263.19,-0.74,2.40,-0.75,2.40,-2.40,-2.53,-2.60,-3.14,-3.15,-3.14
265.82,-0.74,2.39,-0.74,2.38,-2.38,-2.51,-2.59,-3.12,-3.12,-3.13
268.48,-0.74,2.37,-0.74,2.36,-2.36,-2.49,-2.58,-3.10,-3.10,-3.11
271.16,-0.75,2.32,-0.74,2.34,-2.34,-2.47,-2.56,-3.09,-3.08,-3.07
273.87,-0.75,2.31,-0.74,2.31,-2.31,-2.44,-2.55,-3.07,-3.05,-3.06
276.61,-0.75,2.28,-0.74,2.29,-2.29,-2.42,-2.53,-3.04,-3.03,-3.03
279.38,-0.73,2.27,-0.74,2.26,-2.26,-2.39,-2.51,-2.99,-3.00,-3.00
282.17,-0.73,2.25,-0.74,2.24,-2.24,-2.36,-2.49,-2.97,-2.98,-2.98
284.99,-0.75,2.19,-0.74,2.21,-2.21,-2.33,-2.46,-2.96,-2.95,-2.94
287.84,-0.76,2.17,-0.74,2.18,-2.18,-2.30,-2.44,-2.94,-2.92,-2.93
290.72,-0.73,2.16,-0.74,2.16,-2.16,-2.27,-2.41,-2.89,-2.89,-2.90
293.63,-0.73,2.14,-0.73,2.13,-2.13,-2.24,-2.39,-2.86,-2.87,-2.87
296.57,-0.72,2.11,-0.73,2.11,-2.11,-2.21,-2.36,-2.83,-2.84,-2.84
299.53,-0.72,2.09,-0.72,2.09,-2.09,-2.18,-2.33,-2.81,-2.81,-2.81
302.53,-0.71,2.08,-0.71,2.08,-2.08,-2.15,-2.30,-2.79,-2.79,-2.80
305.55,-0.70,2.05,-0.70,2.06,-2.06,-2.12,-2.28,-2.76,-2.76,-2.75
308.61,-0.70,2.03,-0.69,2.05,-2.05,-2.09,-2.25,-2.75,-2.74,-2.73
311.69,-0.70,2.01,-0.68,2.03,-2.03,-2.06,-2.23,-2.73,-2.71,-2.71
314.81,-0.68,2.00,-0.68,2.02,-2.02,-2.03,-2.20,-2.70,-2.69,-2.68
317.96,-0.67,2.00,-0.67,2.01,-2.01,-2.00,-2.18,-2.68,-2.67,-2.67
321.14,-0.65,2.01,-0.66,2.00,-2.00,-1.97,-2.15,-2.65,-2.66,-2.66
324.35,-0.63,2.01,-0.65,1.99,-1.99,-1.95,-2.13,-2.62,-2.64,-2.64
327.59,-0.62,2.01,-0.65,1.98,-1.98,-1.92,-2.11,-2.60,-2.63,-2.63
330.87,-0.62,2.00,-0.64,1.97,-1.97,-1.89,-2.09,-2.59,-2.61,-2.62
334.18,-0.63,1.97,-0.64,1.97,-1.97,-1.87,-2.07,-2.60,-2.60,-2.60
337.52,-0.65,1.95,-0.63,1.96,-1.96,-1.84,-2.06,-2.61,-2.59,-2.60
340.90,-0.67,1.91,-0.63,1.96,-1.96,-1.82,-2.04,-2.63,-2.59,-2.58
344.30,-0.65,1.92,-0.63,1.95,-1.95,-1.80,-2.03,-2.60,-2.58,-2.57
347.75,-0.62,1.95,-0.63,1.94,-1.94,-1.78,-2.02,-2.56,-2.57,-2.57
351.23,-0.62,1.95,-0.64,1.93,-1.93,-1.76,-2.01,-2.55,-2.57,-2.57
354.74,-0.64,1.93,-0.65,1.92,-1.92,-1.74,-2.00,-2.56,-2.57,-2.57
358.28,-0.65,1.91,-0.66,1.91,-1.91,-1.72,-1.99,-2.56,-2.56,-2.56
361.87,-0.64,1.92,-0.66,1.90,-1.90,-1.70,-1.98,-2.54,-2.56,-2.56
365.49,-0.63,1.93,-0.66,1.90,-1.90,-1.69,-1.98,-2.53,-2.56,-2.56
369.14,-0.66,1.91,-0.66,1.90,-1.90,-1.67,-1.98,-2.56,-2.56,-2.57
372.83,-0.69,1.88,-0.66,1.91,-1.91,-1.66,-1.97,-2.60,-2.57,-2.57
376.56,-0.70,1.87,-0.66,1.91,-1.91,-1.65,-1.97,-2.61,-2.57,-2.57
380.33,-0.70,1.86,-0.66,1.91,-1.91,-1.64,-1.98,-2.61,-2.57,-2.56
384.13,-0.69,1.88,-0.67,1.91,-1.91,-1.63,-1.98,-2.60,-2.58,-2.57
387.97,-0.68,1.90,-0.67,1.91,-1.91,-1.62,-1.98,-2.59,-2.58,-2.58
391.85,-0.64,1.95,-0.68,1.91,-1.91,-1.61,-1.99,-2.55,-2.59,-2.59
395.77,-0.63,1.95,-0.69,1.90,-1.90,-1.60,-2.00,-2.54,-2.59,-2.58
399.73,-0.64,1.95,-0.70,1.90,-1.90,-1.60,-2.01,-2.54,-2.60,-2.59
403.72,-0.67,1.92,-0.71,1.90,-1.90,-1.60,-2.01,-2.57,-2.60,-2.59
407.76,-0.69,1.92,-0.71,1.90,-1.90,-1.59,-2.02,-2.59,-2.61,-2.61
411.84,-0.71,1.90,-0.71,1.90,-1.90,-1.59,-2.04,-2.61,-2.61,-2.61
415.96,-0.73,1.88,-0.71,1.90,-1.90,-1.59,-2.05,-2.63,-2.61,-2.61
420.12,-0.74,1.87,-0.71,1.90,-1.90,-1.59,-2.06,-2.64,-2.61,-2.61
424.32,-0.73,1.88,-0.71,1.90,-1.90,-1.59,-2.07,-2.63,-2.61,-2.61
428.56,-0.74,1.86,-0.69,1.90,-1.90,-1.60,-2.09,-2.64,-2.60,-2.60
432.85,-0.73,1.86,-0.68,1.90,-1.90,-1.60,-2.10,-2.63,-2.58,-2.59
437.18,-0.69,1.89,-0.65,1.91,-1.91,-1.60,-2.11,-2.60,-2.56,-2.58
441.55,-0.65,1.89,-0.62,1.91,-1.91,-1.61,-2.13,-2.56,-2.53,-2.55
445.96,-0.60,1.92,-0.58,1.92,-1.92,-1.62,-2.14,-2.52,-2.50,-2.52
450.42,-0.53,1.96,-0.54,1.93,-1.93,-1.63,-2.15,-2.46,-2.47,-2.49
454.93,-0.47,1.97,-0.49,1.93,-1.93,-1.64,-2.16,-2.40,-2.43,-2.44
459.48,-0.43,1.96,-0.45,1.94,-1.94,-1.65,-2.17,-2.37,-2.38,-2.39
464.07,-0.39,1.95,-0.40,1.93,-1.93,-1.66,-2.18,-2.32,-2.34,-2.34
468.71,-0.35,1.93,-0.36,1.92,-1.92,-1.67,-2.19,-2.28,-2.29,-2.28
