frequency,raw,error,smoothed,error_smoothed,equalization,parametric_eq,fixed_band_eq,equalized_raw,equalized_smoothed,target
20.00,0.30,-6.11,0.29,-6.13,6.13,6.27,1.33,6.43,6.43,6.41
20.20,0.39,-6.06,0.38,-6.08,6.08,6.23,1.37,6.47,6.46,6.44
20.40,0.47,-6.02,0.47,-6.02,6.02,6.17,1.41,6.49,6.49,6.48
20.61,0.56,-5.96,0.56,-5.96,5.96,6.12,1.45,6.52,6.52,6.51
20.81,0.64,-5.92,0.65,-5.90,5.90,6.05,1.49,6.54,6.54,6.55
21.02,0.73,-5.87,0.73,-5.83,5.83,5.99,1.54,6.56,6.57,6.59
21.23,0.82,-5.79,0.82,-5.77,5.77,5.92,1.58,6.59,6.59,6.61
21.44,0.91,-5.72,0.91,-5.70,5.70,5.85,1.63,6.61,6.61,6.63
21.66,1.00,-5.65,1.00,-5.64,5.64,5.77,1.68,6.63,6.63,6.65
21.87,1.09,-5.57,1.09,-5.57,5.57,5.69,1.73,6.66,6.65,6.66
22.09,1.18,-5.50,1.18,-5.50,5.50,5.61,1.78,6.67,6.67,6.68
22.31,1.27,-5.42,1.26,-5.42,5.42,5.53,1.83,6.69,6.69,6.69
22.54,1.36,-5.34,1.35,-5.35,5.35,5.44,1.89,6.70,6.70,6.70
22.76,1.45,-5.26,1.44,-5.27,5.27,5.35,1.94,6.71,6.71,6.71
22.99,1.54,-5.17,1.53,-5.18,5.18,5.27,2.00,6.72,6.72,6.71
23.22,1.62,-5.10,1.62,-5.10,5.10,5.17,2.06,6.72,6.73,6.72
23.45,1.71,-5.02,1.71,-5.02,5.02,5.08,2.12,6.73,6.73,6.73
23.69,1.80,-4.94,1.80,-4.94,4.94,4.99,2.18,6.74,6.74,6.73
23.92,1.89,-4.86,1.89,-4.86,4.86,4.90,2.24,6.75,6.75,6.74
24.16,1.98,-4.79,1.98,-4.78,4.78,4.81,2.30,6.76,6.76,6.76
24.40,2.07,-4.71,2.07,-4.70,4.70,4.71,2.37,6.77,6.77,6.78
24.65,2.16,-4.62,2.16,-4.62,4.62,4.62,2.43,6.78,6.78,6.78
24.89,2.25,-4.54,2.25,-4.54,4.54,4.52,2.50,6.79,6.79,6.79
25.14,2.34,-4.46,2.34,-4.46,4.46,4.43,2.56,6.80,6.80,6.80
25.39,2.43,-4.38,2.43,-4.38,4.38,4.34,2.63,6.81,6.81,6.81
25.65,2.52,-4.31,2.52,-4.30,4.30,4.25,2.70,6.82,6.82,6.83
25.91,2.61,-4.22,2.61,-4.22,4.22,4.15,2.76,6.83,6.83,6.83
26.16,2.70,-4.14,2.70,-4.14,4.14,4.06,2.83,6.84,6.84,6.84
26.43,2.79,-4.06,2.79,-4.06,4.06,3.97,2.89,6.85,6.85,6.84
26.69,2.88,-3.98,2.87,-3.98,3.98,3.88,2.96,6.86,6.86,6.85
26.96,2.97,-3.90,2.96,-3.90,3.90,3.79,3.02,6.87,6.87,6.87
27.23,3.05,-3.83,3.05,-3.82,3.82,3.70,3.08,6.87,6.87,6.88
27.50,3.14,-3.75,3.14,-3.74,3.74,3.62,3.14,6.88,6.88,6.89
27.77,3.23,-3.66,3.23,-3.66,3.66,3.53,3.20,6.89,6.89,6.89
28.05,3.32,-3.59,3.31,-3.59,3.59,3.45,3.25,6.90,6.90,6.91
28.33,3.40,-3.51,3.40,-3.51,3.51,3.36,3.30,6.90,6.91,6.90
28.62,3.49,-3.43,3.49,-3.43,3.43,3.28,3.35,6.91,6.91,6.91
28.90,3.58,-3.34,3.58,-3.35,3.35,3.20,3.39,6.92,6.92,6.92
29.19,3.67,-3.25,3.66,-3.27,3.27,3.12,3.43,6.93,6.93,6.92
29.48,3.75,-3.20,3.75,-3.18,3.18,3.04,3.47,6.93,6.94,6.95
29.78,3.84,-3.11,3.84,-3.10,3.10,2.96,3.50,6.94,6.94,6.94
30.08,3.92,-3.04,3.93,-3.02,3.02,2.88,3.52,6.94,6.95,6.95
30.38,4.01,-2.94,4.01,-2.94,2.94,2.81,3.54,6.95,6.96,6.95
30.68,4.10,-2.87,4.10,-2.87,2.87,2.73,3.55,6.96,6.96,6.97
30.99,4.19,-2.78,4.18,-2.79,2.79,2.66,3.56,6.97,6.97,6.97
31.30,4.27,-2.71,4.26,-2.71,2.71,2.59,3.56,6.98,6.98,6.97
31.61,4.36,-2.62,4.35,-2.64,2.64,2.52,3.56,6.99,6.98,6.98
31.93,4.44,-2.55,4.43,-2.56,2.56,2.45,3.55,7.00,6.99,6.99
32.24,4.52,-2.47,4.51,-2.49,2.49,2.38,3.53,7.01,7.00,6.99
32.57,4.59,-2.42,4.59,-2.41,2.41,2.32,3.51,7.00,7.00,7.00
32.89,4.67,-2.34,4.67,-2.34,2.34,2.25,3.49,7.01,7.01,7.01
33.22,4.74,-2.28,4.75,-2.27,2.27,2.19,3.45,7.01,7.02,7.02
33.55,4.82,-2.21,4.83,-2.20,2.20,2.12,3.42,7.01,7.02,7.02
33.89,4.90,-2.13,4.90,-2.13,2.13,2.06,3.38,7.02,7.03,7.03
34.23,4.98,-2.06,4.98,-2.06,2.06,2.00,3.33,7.03,7.03,7.04
34.57,5.06,-1.99,5.05,-1.99,1.99,1.94,3.28,7.04,7.04,7.04
34.92,5.13,-1.91,5.13,-1.92,1.92,1.88,3.23,7.04,7.04,7.04
35.27,5.21,-1.84,5.20,-1.85,1.85,1.82,3.17,7.05,7.05,7.05
35.62,5.28,-1.78,5.28,-1.78,1.78,1.77,3.12,7.05,7.05,7.05
35.97,5.35,-1.70,5.35,-1.70,1.70,1.71,3.05,7.05,7.05,7.05
36.33,5.42,-1.64,5.42,-1.63,1.63,1.66,2.99,7.05,7.05,7.05
36.70,5.49,-1.56,5.49,-1.56,1.56,1.60,2.93,7.05,7.05,7.05
37.06,5.56,-1.50,5.56,-1.49,1.49,1.55,2.86,7.05,7.05,7.06
37.43,5.63,-1.43,5.63,-1.43,1.43,1.50,2.80,7.05,7.05,7.06
37.81,5.70,-1.36,5.69,-1.36,1.36,1.45,2.73,7.06,7.05,7.06
38.19,5.76,-1.29,5.76,-1.29,1.29,1.40,2.66,7.05,7.05,7.05
38.57,5.82,-1.23,5.82,-1.22,1.22,1.35,2.60,7.04,7.04,7.05
38.95,5.88,-1.16,5.88,-1.16,1.16,1.30,2.53,7.04,7.04,7.04
39.34,5.94,-1.10,5.94,-1.10,1.10,1.26,2.46,7.04,7.04,7.03
39.74,6.00,-1.03,6.00,-1.03,1.03,1.21,2.40,7.03,7.03,7.03
40.14,6.06,-0.97,6.06,-0.97,0.97,1.17,2.33,7.03,7.03,7.03
40.54,6.11,-0.92,6.11,-0.92,0.92,1.12,2.27,7.02,7.03,7.02
40.94,6.16,-0.86,6.16,-0.86,0.86,1.08,2.21,7.02,7.02,7.02
41.35,6.21,-0.80,6.21,-0.81,0.81,1.04,2.15,7.01,7.02,7.01
41.76,6.26,-0.76,6.26,-0.75,0.75,1.00,2.09,7.01,7.01,7.01
42.18,6.31,-0.71,6.30,-0.71,0.71,0.96,2.03,7.01,7.01,7.02
42.60,6.35,-0.66,6.34,-0.66,0.66,0.92,1.97,7.01,7.00,7.01
43.03,6.39,-0.62,6.38,-0.62,0.62,0.88,1.91,7.01,7.00,7.01
43.46,6.42,-0.58,6.41,-0.58,0.58,0.84,1.86,7.00,7.00,7.00
43.90,6.45,-0.54,6.44,-0.55,0.55,0.80,1.81,7.00,6.99,6.98
44.33,6.47,-0.52,6.47,-0.52,0.52,0.76,1.76,6.99,6.99,6.98
44.78,6.49,-0.49,6.49,-0.50,0.50,0.73,1.71,6.98,6.98,6.98
45.23,6.51,-0.46,6.50,-0.47,0.47,0.69,1.66,6.98,6.98,6.97
45.68,6.52,-0.45,6.52,-0.46,0.46,0.66,1.61,6.97,6.97,6.97
46.13,6.53,-0.43,6.52,-0.44,0.44,0.62,1.56,6.97,6.96,6.96
46.60,6.53,-0.44,6.53,-0.43,0.43,0.59,1.52,6.96,6.96,6.96
47.06,6.53,-0.43,6.53,-0.42,0.42,0.56,1.48,6.95,6.95,6.95
47.53,6.52,-0.42,6.52,-0.42,0.42,0.53,1.43,6.93,6.94,6.94
48.01,6.52,-0.43,6.51,-0.41,0.41,0.50,1.39,6.93,6.93,6.95
48.49,6.51,-0.42,6.50,-0.41,0.41,0.47,1.36,6.92,6.92,6.93
48.97,6.50,-0.41,6.49,-0.41,0.41,0.44,1.32,6.91,6.91,6.90
49.46,6.48,-0.41,6.47,-0.42,0.42,0.41,1.28,6.89,6.89,6.89
49.96,6.46,-0.41,6.46,-0.42,0.42,0.38,1.24,6.88,6.88,6.87
50.46,6.44,-0.42,6.44,-0.42,0.42,0.35,1.21,6.86,6.86,6.86
50.96,6.42,-0.43,6.42,-0.43,0.43,0.32,1.17,6.84,6.84,6.85
51.47,6.40,-0.41,6.40,-0.43,0.43,0.30,1.14,6.83,6.82,6.81
51.99,6.38,-0.42,6.38,-0.43,0.43,0.27,1.11,6.80,6.80,6.80
52.51,6.35,-0.44,6.36,-0.43,0.43,0.25,1.08,6.77,6.78,6.79
53.03,6.33,-0.43,6.34,-0.42,0.42,0.22,1.04,6.75,6.76,6.76
53.56,6.31,-0.44,6.32,-0.42,0.42,0.20,1.01,6.73,6.74,6.74
54.10,6.29,-0.43,6.30,-0.41,0.41,0.18,0.98,6.70,6.72,6.72
54.64,6.28,-0.42,6.29,-0.41,0.41,0.16,0.95,6.68,6.69,6.70
55.18,6.28,-0.39,6.27,-0.40,0.40,0.14,0.92,6.67,6.67,6.67
55.74,6.27,-0.37,6.26,-0.39,0.39,0.12,0.88,6.65,6.65,6.64
56.29,6.26,-0.37,6.25,-0.37,0.37,0.10,0.85,6.63,6.62,6.63
56.86,6.25,-0.35,6.25,-0.35,0.35,0.08,0.82,6.60,6.60,6.60
57.42,6.24,-0.33,6.24,-0.33,0.33,0.07,0.79,6.57,6.57,6.56
58.00,6.23,-0.31,6.23,-0.31,0.31,0.05,0.75,6.54,6.55,6.54
58.58,6.22,-0.30,6.23,-0.29,0.29,0.04,0.72,6.50,6.52,6.52
59.16,6.22,-0.27,6.22,-0.26,0.26,0.02,0.68,6.48,6.48,6.49
59.76,6.21,-0.26,6.22,-0.24,0.24,0.01,0.64,6.44,6.45,6.47
60.35,6.21,-0.22,6.21,-0.21,0.21,0.00,0.60,6.42,6.42,6.43
60.96,6.20,-0.20,6.19,-0.19,0.19,-0.01,0.56,6.38,6.38,6.39
61.57,6.19,-0.16,6.18,-0.17,0.17,-0.01,0.52,6.35,6.35,6.35
62.18,6.17,-0.13,6.16,-0.14,0.14,-0.02,0.48,6.31,6.31,6.30
62.80,6.16,-0.11,6.14,-0.12,0.12,-0.02,0.44,6.28,6.27,6.27
63.43,6.13,-0.09,6.12,-0.11,0.11,-0.02,0.39,6.23,6.23,6.22
64.07,6.11,-0.07,6.09,-0.09,0.09,-0.02,0.34,6.20,6.18,6.18
64.71,6.06,-0.08,6.06,-0.08,0.08,-0.02,0.29,6.14,6.14,6.14
65.35,6.02,-0.08,6.02,-0.07,0.07,-0.01,0.24,6.09,6.10,6.09
66.01,5.99,-0.06,5.98,-0.07,0.07,-0.00,0.19,6.06,6.05,6.05
66.67,5.94,-0.08,5.93,-0.07,0.07,0.01,0.14,6.01,6.01,6.02
67.33,5.88,-0.09,5.88,-0.08,0.08,0.03,0.08,5.96,5.96,5.97
68.01,5.83,-0.10,5.82,-0.10,0.10,0.05,0.03,5.92,5.92,5.92
68.69,5.77,-0.11,5.76,-0.11,0.11,0.07,-0.03,5.88,5.87,5.88
69.37,5.71,-0.12,5.69,-0.13,0.13,0.10,-0.09,5.84,5.83,5.83
70.07,5.64,-0.14,5.62,-0.16,0.16,0.14,-0.15,5.80,5.78,5.78
70.77,5.57,-0.17,5.55,-0.19,0.19,0.17,-0.22,5.75,5.74,5.74
71.48,5.48,-0.22,5.48,-0.22,0.22,0.21,-0.28,5.69,5.69,5.70
72.19,5.40,-0.25,5.40,-0.25,0.25,0.26,-0.35,5.65,5.65,5.64
72.91,5.32,-0.28,5.32,-0.28,0.28,0.31,-0.41,5.60,5.61,5.60
73.64,5.24,-0.32,5.24,-0.32,0.32,0.36,-0.48,5.56,5.56,5.56
74.38,5.16,-0.36,5.16,-0.35,0.35,0.42,-0.55,5.51,5.52,5.52
75.12,5.09,-0.39,5.09,-0.39,0.39,0.47,-0.62,5.48,5.48,5.48
75.87,5.02,-0.42,5.01,-0.43,0.43,0.53,-0.70,5.45,5.44,5.44
76.63,4.95,-0.45,4.94,-0.47,0.47,0.58,-0.77,5.41,5.40,5.40
77.40,4.88,-0.48,4.86,-0.50,0.50,0.63,-0.85,5.38,5.36,5.36
78.17,4.81,-0.51,4.80,-0.53,0.53,0.67,-0.92,5.33,5.33,5.32
78.95,4.74,-0.55,4.74,-0.55,0.55,0.70,-1.00,5.29,5.29,5.29
79.74,4.70,-0.56,4.69,-0.56,0.56,0.72,-1.08,5.26,5.26,5.26
80.54,4.65,-0.58,4.65,-0.57,0.57,0.72,-1.16,5.22,5.22,5.23
81.35,4.61,-0.58,4.62,-0.57,0.57,0.70,-1.25,5.18,5.19,5.19
82.16,4.58,-0.58,4.59,-0.56,0.56,0.66,-1.33,5.14,5.16,5.16
82.98,4.57,-0.56,4.58,-0.55,0.55,0.60,-1.41,5.11,5.13,5.13
83.81,4.56,-0.54,4.58,-0.51,0.51,0.52,-1.50,5.07,5.10,5.10
84.65,4.58,-0.48,4.60,-0.47,0.47,0.42,-1.59,5.05,5.07,5.06
85.50,4.61,-0.43,4.62,-0.42,0.42,0.31,-1.68,5.02,5.04,5.04
86.35,4.66,-0.35,4.66,-0.35,0.35,0.18,-1.77,5.01,5.01,5.01
87.22,4.71,-0.27,4.71,-0.27,0.27,0.05,-1.86,4.98,4.98,4.98
88.09,4.77,-0.18,4.77,-0.18,0.18,-0.09,-1.96,4.95,4.96,4.95
88.97,4.85,-0.08,4.85,-0.08,0.08,-0.24,-2.05,4.93,4.93,4.93
89.86,4.94,0.03,4.93,0.03,-0.03,-0.38,-2.15,4.90,4.90,4.91
90.76,5.03,0.16,5.03,0.16,-0.16,-0.53,-2.25,4.87,4.87,4.87
91.66,5.14,0.30,5.14,0.29,-0.29,-0.68,-2.35,4.85,4.84,4.84
92.58,5.25,0.44,5.26,0.44,-0.44,-0.82,-2.45,4.81,4.82,4.81
93.51,5.37,0.57,5.38,0.60,-0.60,-0.96,-2.56,4.77,4.79,4.79
94.44,5.49,0.73,5.51,0.76,-0.76,-1.10,-2.66,4.73,4.76,4.76
95.39,5.63,0.89,5.64,0.92,-0.92,-1.24,-2.77,4.71,4.72,4.73
96.34,5.78,1.09,5.78,1.09,-1.09,-1.37,-2.87,4.69,4.69,4.69
97.30,5.93,1.28,5.92,1.26,-1.26,-1.50,-2.98,4.67,4.66,4.65
98.28,6.07,1.45,6.06,1.44,-1.44,-1.63,-3.09,4.63,4.62,4.62
99.26,6.22,1.64,6.20,1.61,-1.61,-1.75,-3.20,4.60,4.58,4.58
100.25,6.38,1.84,6.34,1.79,-1.79,-1.88,-3.31,4.58,4.54,4.54
101.25,6.53,2.02,6.48,1.98,-1.98,-2.00,-3.42,4.55,4.50,4.50
102.27,6.66,2.20,6.62,2.16,-2.16,-2.12,-3.54,4.50,4.46,4.46
103.29,6.74,2.33,6.76,2.34,-2.34,-2.24,-3.65,4.39,4.41,4.41
104.32,6.85,2.48,6.90,2.53,-2.53,-2.36,-3.76,4.32,4.37,4.37
105.37,6.99,2.66,7.03,2.72,-2.72,-2.48,-3.87,4.27,4.32,4.32
106.42,7.14,2.87,7.16,2.90,-2.90,-2.60,-3.97,4.24,4.26,4.27
107.48,7.28,3.06,7.29,3.08,-3.08,-2.72,-4.08,4.20,4.21,4.22
108.56,7.41,3.26,7.41,3.26,-3.26,-2.83,-4.18,4.15,4.15,4.15
109.64,7.54,3.44,7.52,3.43,-3.43,-2.95,-4.29,4.10,4.09,4.09
110.74,7.66,3.62,7.64,3.61,-3.61,-3.07,-4.38,4.05,4.03,4.04
111.85,7.77,3.80,7.74,3.78,-3.78,-3.20,-4.48,3.99,3.96,3.97
112.97,7.88,3.99,7.85,3.95,-3.95,-3.32,-4.57,3.93,3.90,3.89
114.10,7.97,4.13,7.94,4.12,-4.12,-3.44,-4.65,3.85,3.83,3.84
115.24,8.05,4.29,8.04,4.27,-4.27,-3.57,-4.73,3.77,3.76,3.76
116.39,8.10,4.41,8.12,4.43,-4.43,-3.69,-4.81,3.67,3.69,3.68
117.55,8.16,4.54,8.19,4.57,-4.57,-3.82,-4.87,3.59,3.62,3.62
118.73,8.25,4.70,8.25,4.70,-4.70,-3.95,-4.93,3.55,3.56,3.54
119.92,8.32,4.83,8.31,4.82,-4.82,-4.08,-4.99,3.49,3.49,3.49
121.12,8.38,4.96,8.36,4.94,-4.94,-4.21,-5.03,3.44,3.42,3.41
122.33,8.40,5.05,8.41,5.05,-5.05,-4.34,-5.07,3.35,3.36,3.35
123.55,8.43,5.13,8.44,5.15,-5.15,-4.47,-5.09,3.28,3.29,3.30
124.79,8.47,5.23,8.47,5.24,-5.24,-4.60,-5.11,3.23,3.23,3.24
126.03,8.51,5.33,8.49,5.32,-5.32,-4.73,-5.12,3.19,3.17,3.18
127.29,8.52,5.40,8.51,5.39,-5.39,-4.87,-5.13,3.12,3.11,3.11
128.57,8.53,5.48,8.51,5.46,-5.46,-5.00,-5.12,3.07,3.05,3.04
129.85,8.53,5.53,8.52,5.52,-5.52,-5.13,-5.11,3.01,3.00,3.00
131.15,8.51,5.57,8.51,5.57,-5.57,-5.25,-5.08,2.94,2.94,2.94
132.46,8.50,5.61,8.49,5.60,-5.60,-5.38,-5.05,2.89,2.89,2.89
133.79,8.47,5.62,8.47,5.64,-5.64,-5.50,-5.02,2.83,2.84,2.84
135.12,8.44,5.65,8.45,5.66,-5.66,-5.61,-4.97,2.78,2.79,2.79
136.48,8.42,5.68,8.42,5.68,-5.68,-5.73,-4.92,2.74,2.74,2.74
137.84,8.38,5.69,8.39,5.70,-5.70,-5.83,-4.87,2.68,2.69,2.69
139.22,8.35,5.71,8.34,5.70,-5.70,-5.93,-4.81,2.65,2.64,2.64
140.61,8.31,5.72,8.30,5.71,-5.71,-6.02,-4.74,2.60,2.60,2.58
142.02,8.24,5.69,8.26,5.70,-5.70,-6.11,-4.67,2.53,2.55,2.55
143.44,8.20,5.69,8.21,5.70,-5.70,-6.18,-4.60,2.50,2.51,2.51
144.87,8.14,5.68,8.15,5.69,-5.69,-6.24,-4.53,2.45,2.46,2.46
146.32,8.09,5.67,8.09,5.68,-5.68,-6.30,-4.45,2.41,2.41,2.41
147.78,8.02,5.64,8.02,5.66,-5.66,-6.34,-4.38,2.36,2.37,2.38
149.26,7.96,5.63,7.95,5.63,-5.63,-6.37,-4.30,2.32,2.32,2.33
150.75,7.88,5.61,7.87,5.60,-5.60,-6.38,-4.22,2.27,2.27,2.26
152.26,7.82,5.60,7.79,5.57,-5.57,-6.39,-4.14,2.25,2.22,2.22
153.78,7.73,5.55,7.70,5.53,-5.53,-6.38,-4.07,2.20,2.17,2.18
155.32,7.64,5.52,7.61,5.49,-5.49,-6.36,-3.99,2.15,2.12,2.11
156.88,7.51,5.44,7.51,5.44,-5.44,-6.32,-3.91,2.07,2.07,2.07
158.44,7.42,5.39,7.41,5.39,-5.39,-6.28,-3.84,2.03,2.02,2.02
160.03,7.27,5.30,7.30,5.34,-5.34,-6.22,-3.76,1.93,1.97,1.96
161.63,7.18,5.27,7.19,5.28,-5.28,-6.15,-3.69,1.90,1.91,1.90
163.24,7.10,5.24,7.08,5.22,-5.22,-6.07,-3.62,1.88,1.86,1.86
164.88,6.96,5.15,6.97,5.16,-5.16,-5.98,-3.55,1.79,1.81,1.81
166.53,6.85,5.09,6.86,5.11,-5.11,-5.89,-3.48,1.74,1.75,1.75
168.19,6.75,5.05,6.75,5.05,-5.05,-5.78,-3.42,1.70,1.70,1.70
169.87,6.61,4.96,6.63,4.99,-4.99,-5.67,-3.36,1.62,1.64,1.65
171.57,6.51,4.91,6.52,4.93,-4.93,-5.56,-3.30,1.57,1.59,1.59
173.29,6.42,4.89,6.41,4.88,-4.88,-5.44,-3.24,1.54,1.53,1.53
175.02,6.28,4.80,6.30,4.83,-4.83,-5.31,-3.19,1.45,1.47,1.48
176.77,6.18,4.77,6.18,4.77,-4.77,-5.18,-3.14,1.40,1.41,1.41
178.54,6.08,4.73,6.07,4.72,-4.72,-5.05,-3.09,1.36,1.35,1.35
180.32,5.98,4.69,5.95,4.66,-4.66,-4.92,-3.04,1.32,1.29,1.29
182.13,5.87,4.63,5.83,4.60,-4.60,-4.79,-2.99,1.27,1.23,1.23
183.95,5.70,4.53,5.71,4.54,-4.54,-4.66,-2.95,1.15,1.17,1.17
185.79,5.58,4.47,5.59,4.48,-4.48,-4.52,-2.91,1.10,1.11,1.11
187.65,5.46,4.42,5.46,4.41,-4.41,-4.39,-2.87,1.04,1.05,1.04
189.52,5.33,4.35,5.33,4.34,-4.34,-4.26,-2.84,0.99,0.99,0.98
191.42,5.21,4.28,5.19,4.27,-4.27,-4.13,-2.81,0.94,0.93,0.93
193.33,5.07,4.19,5.06,4.19,-4.19,-4.00,-2.78,0.88,0.87,0.87
195.27,4.92,4.10,4.92,4.10,-4.10,-3.87,-2.75,0.81,0.81,0.82
197.22,4.78,4.02,4.77,4.01,-4.01,-3.75,-2.72,0.76,0.76,0.76
199.19,4.64,3.94,4.63,3.92,-3.92,-3.62,-2.69,0.72,0.71,0.70
201.18,4.49,3.84,4.48,3.83,-3.83,-3.50,-2.67,0.66,0.65,0.65
203.19,4.34,3.73,4.34,3.73,-3.73,-3.38,-2.65,0.60,0.60,0.61
205.23,4.19,3.64,4.20,3.64,-3.64,-3.26,-2.63,0.55,0.55,0.55
207.28,4.04,3.52,4.05,3.54,-3.54,-3.15,-2.61,0.50,0.51,0.52
209.35,3.90,3.43,3.90,3.44,-3.44,-3.03,-2.59,0.46,0.46,0.46
211.44,3.76,3.35,3.76,3.34,-3.34,-2.92,-2.57,0.42,0.42,0.41
213.56,3.61,3.24,3.61,3.24,-3.24,-2.82,-2.55,0.37,0.37,0.37
215.69,3.46,3.11,3.47,3.14,-3.14,-2.71,-2.53,0.32,0.33,0.34
217.85,3.32,3.02,3.33,3.04,-3.04,-2.61,-2.51,0.28,0.29,0.30
220.03,3.22,2.96,3.20,2.94,-2.94,-2.51,-2.50,0.28,0.26,0.25
222.23,3.09,2.87,3.07,2.84,-2.84,-2.41,-2.48,0.25,0.23,0.22
224.45,2.94,2.74,2.94,2.74,-2.74,-2.31,-2.46,0.20,0.20,0.19
226.70,2.80,2.63,2.81,2.65,-2.65,-2.22,-2.44,0.15,0.17,0.17
228.96,2.66,2.52,2.69,2.55,-2.55,-2.12,-2.42,0.11,0.14,0.14
231.25,2.58,2.45,2.57,2.45,-2.45,-2.03,-2.39,0.13,0.12,0.12
233.57,2.46,2.36,2.46,2.35,-2.35,-1.94,-2.37,0.10,0.10,0.10
235.90,2.33,2.25,2.34,2.26,-2.26,-1.86,-2.34,0.07,0.09,0.08
238.26,2.24,2.17,2.23,2.16,-2.16,-1.77,-2.32,0.08,0.07,0.07
240.64,2.13,2.07,2.13,2.07,-2.07,-1.69,-2.28,0.06,0.06,0.06
243.05,2.04,1.98,2.02,1.97,-1.97,-1.61,-2.25,0.07,0.05,0.06
245.48,1.94,1.89,1.92,1.87,-1.87,-1.53,-2.22,0.07,0.05,0.05
247.93,1.81,1.76,1.83,1.78,-1.78,-1.45,-2.18,0.03,0.05,0.05
250.41,1.74,1.70,1.73,1.68,-1.68,-1.37,-2.14,0.05,0.05,0.04
252.92,1.62,1.57,1.64,1.59,-1.59,-1.30,-2.09,0.03,0.05,0.05
255.45,1.55,1.49,1.54,1.49,-1.49,-1.22,-2.05,0.06,0.05,0.06
258.00,1.46,1.40,1.45,1.39,-1.39,-1.15,-2.00,0.07,0.06,0.06
260.58,1.37,1.30,1.36,1.29,-1.29,-1.08,-1.95,0.07,0.07,0.06
263.19,1.28,1.20,1.27,1.20,-1.20,-1.00,-1.89,0.08,0.08,0.08
265.82,1.18,1.10,1.18,1.10,-1.10,-0.93,-1.84,0.08,0.09,0.08
268.48,1.10,1.00,1.09,1.00,-1.00,-0.86,-1.78,0.10,0.10,0.10
271.16,1.02,0.90,1.01,0.90,-0.90,-0.80,-1.71,0.12,0.11,0.11
273.87,0.91,0.79,0.92,0.80,-0.80,-0.73,-1.65,0.11,0.12,0.12
276.61,0.82,0.68,0.83,0.70,-0.70,-0.66,-1.58,0.12,0.13,0.14
279.38,0.75,0.60,0.74,0.60,-0.60,-0.59,-1.51,0.15,0.14,0.14
282.17,0.67,0.51,0.66,0.50,-0.50,-0.53,-1.44,0.17,0.16,0.16
284.99,0.59,0.41,0.57,0.40,-0.40,-0.46,-1.37,0.19,0.17,0.17
287.84,0.48,0.30,0.48,0.30,-0.30,-0.40,-1.30,0.18,0.18,0.18
290.72,0.39,0.20,0.39,0.20,-0.20,-0.33,-1.22,0.19,0.20,0.19
293.63,0.31,0.10,0.31,0.10,-0.10,-0.27,-1.14,0.21,0.21,0.21
296.57,0.23,0.01,0.22,0.00,-0.00,-0.20,-1.07,0.22,0.22,0.22
299.53,0.14,-0.09,0.14,-0.09,0.09,-0.14,-0.99,0.23,0.23,0.23
302.53,0.05,-0.18,0.06,-0.18,0.18,-0.08,-0.91,0.23,0.24,0.23
305.55,-0.02,-0.28,-0.02,-0.28,0.28,-0.01,-0.83,0.25,0.25,0.26
308.61,-0.11,-0.38,-0.10,-0.37,0.37,0.05,-0.75,0.25,0.26,0.26
311.69,-0.19,-0.46,-0.19,-0.46,0.46,0.11,-0.66,0.27,0.27,0.27
314.81,-0.26,-0.56,-0.26,-0.55,0.55,0.18,-0.58,0.28,0.28,0.30
317.96,-0.33,-0.62,-0.34,-0.63,0.63,0.24,-0.50,0.30,0.29,0.29
321.14,-0.41,-0.71,-0.42,-0.71,0.71,0.30,-0.41,0.30,0.30,0.30
324.35,-0.48,-0.78,-0.49,-0.79,0.79,0.37,-0.33,0.31,0.30,0.29
327.59,-0.55,-0.86,-0.56,-0.87,0.87,0.43,-0.24,0.31,0.31,0.31
330.87,-0.62,-0.93,-0.63,-0.94,0.94,0.50,-0.16,0.32,0.31,0.31
334.18,-0.70,-1.01,-0.70,-1.01,1.01,0.56,-0.07,0.31,0.31,0.30
337.52,-0.78,-1.09,-0.76,-1.07,1.07,0.62,0.01,0.29,0.31,0.31
340.90,-0.83,-1.15,-0.83,-1.14,1.14,0.69,0.10,0.31,0.31,0.32
344.30,-0.90,-1.22,-0.89,-1.20,1.20,0.75,0.19,0.30,0.31,0.32
347.75,-0.94,-1.26,-0.95,-1.26,1.26,0.82,0.27,0.32,0.31,0.31
351.23,-1.00,-1.31,-1.01,-1.32,1.32,0.88,0.36,0.32,0.31,0.31
354.74,-1.05,-1.36,-1.07,-1.37,1.37,0.95,0.45,0.32,0.30,0.31
358.28,-1.11,-1.41,-1.13,-1.42,1.42,1.02,0.54,0.31,0.30,0.30
361.87,-1.16,-1.46,-1.18,-1.47,1.47,1.08,0.63,0.31,0.29,0.29
365.49,-1.23,-1.52,-1.23,-1.52,1.52,1.15,0.72,0.29,0.29,0.29
369.14,-1.28,-1.56,-1.28,-1.56,1.56,1.21,0.80,0.28,0.28,0.28
372.83,-1.32,-1.60,-1.33,-1.60,1.60,1.28,0.89,0.28,0.27,0.28
376.56,-1.37,-1.64,-1.37,-1.64,1.64,1.35,0.98,0.26,0.27,0.26
380.33,-1.42,-1.69,-1.41,-1.67,1.67,1.41,1.07,0.25,0.26,0.26
384.13,-1.46,-1.71,-1.45,-1.70,1.70,1.48,1.16,0.24,0.25,0.25
387.97,-1.49,-1.73,-1.48,-1.73,1.73,1.54,1.26,0.23,0.24,0.24
391.85,-1.51,-1.74,-1.51,-1.75,1.75,1.61,1.35,0.23,0.24,0.23
395.77,-1.53,-1.77,-1.53,-1.76,1.76,1.67,1.44,0.23,0.23,0.24
399.73,-1.55,-1.78,-1.55,-1.77,1.77,1.74,1.53,0.22,0.22,0.22
403.72,-1.57,-1.79,-1.56,-1.78,1.78,1.80,1.62,0.20,0.22,0.21
407.76,-1.58,-1.78,-1.57,-1.78,1.78,1.86,1.70,0.19,0.21,0.20
411.84,-1.58,-1.79,-1.57,-1.77,1.77,1.92,1.79,0.19,0.20,0.21
415.96,-1.58,-1.78,-1.57,-1.77,1.77,1.98,1.88,0.19,0.20,0.20
420.12,-1.57,-1.77,-1.57,-1.76,1.76,2.04,1.97,0.19,0.19,0.20
424.32,-1.56,-1.76,-1.56,-1.75,1.75,2.09,2.05,0.19,0.19,0.20
428.56,-1.56,-1.75,-1.56,-1.75,1.75,2.14,2.13,0.19,0.19,0.18
432.85,-1.55,-1.74,-1.56,-1.75,1.75,2.19,2.21,0.19,0.19,0.18
437.18,-1.54,-1.73,-1.56,-1.75,1.75,2.24,2.29,0.20,0.19,0.18
441.55,-1.54,-1.73,-1.56,-1.75,1.75,2.29,2.37,0.20,0.19,0.19
445.96,-1.54,-1.73,-1.57,-1.75,1.75,2.33,2.44,0.21,0.19,0.19
450.42,-1.56,-1.74,-1.58,-1.77,1.77,2.37,2.51,0.20,0.19,0.18
454.93,-1.58,-1.77,-1.59,-1.78,1.78,2.41,2.57,0.20,0.19,0.19
459.48,-1.60,-1.79,-1.61,-1.81,1.81,2.44,2.63,0.20,0.19,0.19
464.07,-1.62,-1.82,-1.64,-1.83,1.83,2.47,2.68,0.21,0.20,0.20
468.71,-1.65,-1.86,-1.66,-1.86,1.86,2.49,2.73,0.21,0.20,0.21
473.40,-1.69,-1.90,-1.69,-1.90,1.90,2.52,2.78,0.21,0.21,0.21
478.13,-1.72,-1.94,-1.72,-1.94,1.94,2.53,2.82,0.21,0.21,0.21
482.91,-1.75,-1.97,-1.75,-1.97,1.97,2.55,2.85,0.22,0.22,0.21
487.74,-1.79,-2.02,-1.78,-2.01,2.01,2.56,2.88,0.21,0.22,0.22
492.62,-1.82,-2.05,-1.81,-2.04,2.04,2.56,2.90,0.21,0.23,0.23
497.55,-1.84,-2.07,-1.83,-2.07,2.07,2.56,2.91,0.22,0.23,0.23
502.52,-1.87,-2.11,-1.85,-2.09,2.09,2.56,2.92,0.22,0.24,0.24
507.55,-1.89,-2.13,-1.87,-2.11,2.11,2.56,2.92,0.22,0.24,0.24
512.62,-1.90,-2.14,-1.88,-2.12,2.12,2.55,2.92,0.22,0.24,0.24
517.75,-1.91,-2.16,-1.89,-2.14,2.14,2.53,2.91,0.22,0.25,0.25
522.93,-1.90,-2.15,-1.89,-2.14,2.14,2.52,2.89,0.24,0.25,0.25
528.16,-1.89,-2.14,-1.90,-2.14,2.14,2.50,2.87,0.25,0.25,0.25
533.44,-1.89,-2.14,-1.90,-2.15,2.15,2.48,2.84,0.25,0.25,0.25
538.77,-1.88,-2.13,-1.90,-2.14,2.14,2.45,2.81,0.26,0.25,0.25
544.16,-1.88,-2.13,-1.90,-2.14,2.14,2.42,2.77,0.26,0.24,0.25
549.60,-1.88,-2.13,-1.90,-2.14,2.14,2.39,2.73,0.26,0.24,0.25
