frequency,raw,error,smoothed,error_smoothed,equalization,parametric_eq,fixed_band_eq,equalized_raw,equalized_smoothed,target
20.00,2.65,-3.67,2.60,-3.73,3.73,3.00,1.44,6.38,6.33,6.33
20.20,2.64,-3.67,2.62,-3.71,3.71,3.04,1.48,6.35,6.32,6.32
20.40,2.63,-3.67,2.63,-3.68,3.68,3.08,1.53,6.32,6.31,6.31
20.61,2.63,-3.67,2.64,-3.66,3.66,3.11,1.58,6.30,6.30,6.31
20.81,2.62,-3.66,2.65,-3.64,3.64,3.15,1.62,6.26,6.29,6.29
21.02,2.61,-3.67,2.67,-3.62,3.62,3.18,1.67,6.23,6.29,6.29
21.23,2.64,-3.63,2.68,-3.60,3.60,3.21,1.73,6.24,6.28,6.28
21.44,2.66,-3.62,2.70,-3.58,3.58,3.25,1.78,6.24,6.27,6.29
21.66,2.69,-3.58,2.71,-3.56,3.56,3.28,1.83,6.25,6.27,6.28
21.87,2.72,-3.54,2.72,-3.54,3.54,3.31,1.89,6.26,6.26,6.27
22.09,2.74,-3.51,2.74,-3.51,3.51,3.34,1.95,6.26,6.25,6.26
22.31,2.76,-3.49,2.75,-3.49,3.49,3.37,2.01,6.26,6.25,6.26
22.54,2.78,-3.46,2.78,-3.47,3.47,3.40,2.07,6.25,6.24,6.25
22.76,2.81,-3.42,2.80,-3.44,3.44,3.42,2.13,6.26,6.24,6.24
22.99,2.83,-3.39,2.82,-3.42,3.42,3.45,2.19,6.25,6.24,6.23
23.22,2.84,-3.37,2.84,-3.40,3.40,3.47,2.26,6.24,6.23,6.22
23.45,2.85,-3.37,2.85,-3.38,3.38,3.49,2.32,6.23,6.23,6.23
23.69,2.86,-3.35,2.86,-3.36,3.36,3.51,2.39,6.23,6.23,6.22
23.92,2.87,-3.34,2.88,-3.35,3.35,3.53,2.46,6.22,6.23,6.22
24.16,2.88,-3.34,2.88,-3.34,3.34,3.55,2.53,6.23,6.23,6.23
24.40,2.89,-3.34,2.89,-3.34,3.34,3.56,2.60,6.23,6.23,6.24
24.65,2.90,-3.33,2.90,-3.33,3.33,3.58,2.67,6.23,6.23,6.24
24.89,2.91,-3.32,2.91,-3.32,3.32,3.59,2.75,6.24,6.23,6.24
25.14,2.92,-3.30,2.92,-3.32,3.32,3.60,2.82,6.24,6.23,6.23
25.39,2.92,-3.30,2.93,-3.31,3.31,3.60,2.89,6.23,6.24,6.23
25.65,2.92,-3.30,2.94,-3.30,3.30,3.61,2.97,6.23,6.24,6.23
25.91,2.92,-3.31,2.95,-3.29,3.29,3.61,3.04,6.22,6.24,6.24
26.16,2.94,-3.30,2.96,-3.28,3.28,3.61,3.11,6.22,6.24,6.25
26.43,2.96,-3.28,2.98,-3.27,3.27,3.61,3.19,6.23,6.24,6.25
26.69,2.98,-3.26,2.99,-3.25,3.25,3.61,3.26,6.23,6.24,6.25
26.96,3.01,-3.22,3.01,-3.23,3.23,3.61,3.33,6.25,6.24,6.24
27.23,3.02,-3.21,3.02,-3.22,3.22,3.60,3.40,6.24,6.24,6.24
27.50,3.04,-3.19,3.04,-3.20,3.20,3.59,3.46,6.25,6.24,6.24
27.77,3.06,-3.18,3.05,-3.19,3.19,3.58,3.52,6.25,6.24,6.25
28.05,3.07,-3.17,3.07,-3.18,3.18,3.57,3.58,6.25,6.24,6.25
28.33,3.08,-3.14,3.08,-3.16,3.16,3.56,3.64,6.24,6.24,6.23
28.62,3.09,-3.13,3.09,-3.15,3.15,3.54,3.69,6.24,6.24,6.23
28.90,3.11,-3.12,3.10,-3.14,3.14,3.52,3.74,6.25,6.24,6.24
29.19,3.11,-3.12,3.10,-3.13,3.13,3.50,3.78,6.24,6.23,6.24
29.48,3.11,-3.11,3.11,-3.13,3.13,3.48,3.82,6.24,6.23,6.23
29.78,3.11,-3.11,3.11,-3.12,3.12,3.46,3.85,6.23,6.23,6.23
30.08,3.11,-3.12,3.11,-3.12,3.12,3.43,3.88,6.23,6.22,6.24
30.38,3.11,-3.11,3.11,-3.11,3.11,3.40,3.90,6.22,6.22,6.23
30.68,3.11,-3.09,3.11,-3.10,3.10,3.38,3.91,6.21,6.21,6.21
30.99,3.11,-3.09,3.12,-3.08,3.08,3.35,3.92,6.20,6.20,6.21
31.30,3.11,-3.08,3.13,-3.07,3.07,3.31,3.92,6.18,6.20,6.20
31.61,3.11,-3.07,3.14,-3.05,3.05,3.28,3.92,6.16,6.19,6.19
31.93,3.11,-3.06,3.15,-3.03,3.03,3.25,3.90,6.14,6.18,6.18
32.24,3.13,-3.04,3.17,-3.01,3.01,3.21,3.89,6.14,6.18,6.18
32.57,3.17,-2.98,3.19,-2.98,2.98,3.17,3.86,6.16,6.17,6.16
32.89,3.20,-2.95,3.20,-2.96,2.96,3.14,3.83,6.16,6.17,6.16
33.22,3.23,-2.92,3.22,-2.94,2.94,3.10,3.80,6.17,6.16,6.16
33.55,3.26,-2.88,3.24,-2.91,2.91,3.06,3.76,6.18,6.15,6.15
33.89,3.29,-2.86,3.26,-2.89,2.89,3.01,3.71,6.19,6.15,6.16
34.23,3.30,-2.83,3.27,-2.87,2.87,2.97,3.66,6.18,6.15,6.14
34.57,3.30,-2.83,3.29,-2.85,2.85,2.93,3.61,6.16,6.14,6.14
34.92,3.30,-2.82,3.30,-2.84,2.84,2.89,3.55,6.14,6.13,6.13
35.27,3.30,-2.83,3.31,-2.82,2.82,2.84,3.49,6.13,6.13,6.14
35.62,3.30,-2.81,3.31,-2.81,2.81,2.80,3.42,6.11,6.12,6.12
35.97,3.30,-2.81,3.31,-2.80,2.80,2.75,3.36,6.10,6.11,6.12
36.33,3.30,-2.79,3.31,-2.78,2.78,2.70,3.29,6.09,6.10,6.10
36.70,3.30,-2.78,3.31,-2.77,2.77,2.66,3.22,6.07,6.08,6.09
37.06,3.30,-2.76,3.31,-2.76,2.76,2.61,3.15,6.06,6.06,6.07
37.43,3.30,-2.74,3.30,-2.74,2.74,2.56,3.07,6.05,6.04,6.05
37.81,3.30,-2.72,3.30,-2.72,2.72,2.51,3.00,6.03,6.02,6.03
38.19,3.30,-2.69,3.30,-2.70,2.70,2.46,2.93,6.01,6.00,6.00
38.57,3.30,-2.67,3.30,-2.68,2.68,2.42,2.85,5.98,5.97,5.98
38.95,3.30,-2.64,3.30,-2.65,2.65,2.37,2.78,5.95,5.95,5.95
39.34,3.30,-2.60,3.30,-2.62,2.62,2.32,2.71,5.92,5.92,5.91
39.74,3.30,-2.58,3.31,-2.58,2.58,2.27,2.64,5.89,5.89,5.89
40.14,3.30,-2.55,3.32,-2.55,2.55,2.22,2.57,5.85,5.87,5.86
40.54,3.30,-2.53,3.33,-2.51,2.51,2.17,2.50,5.81,5.84,5.84
40.94,3.30,-2.50,3.35,-2.46,2.46,2.12,2.43,5.77,5.81,5.81
41.35,3.34,-2.44,3.36,-2.42,2.42,2.07,2.36,5.77,5.78,5.79
41.76,3.38,-2.36,3.38,-2.38,2.38,2.02,2.29,5.76,5.76,5.75
42.18,3.41,-2.31,3.40,-2.33,2.33,1.98,2.23,5.75,5.73,5.73
42.60,3.42,-2.28,3.42,-2.29,2.29,1.93,2.16,5.71,5.70,5.71
43.03,3.43,-2.24,3.43,-2.25,2.25,1.88,2.10,5.68,5.68,5.68
43.46,3.46,-2.18,3.45,-2.20,2.20,1.83,2.04,5.67,5.65,5.65
43.90,3.49,-2.13,3.46,-2.16,2.16,1.78,1.98,5.65,5.62,5.63
44.33,3.50,-2.08,3.48,-2.12,2.12,1.73,1.93,5.62,5.59,5.59
44.78,3.49,-2.06,3.49,-2.08,2.08,1.68,1.87,5.57,5.56,5.56
45.23,3.49,-2.05,3.49,-2.04,2.04,1.64,1.82,5.53,5.53,5.55
45.68,3.49,-2.00,3.50,-2.00,2.00,1.59,1.76,5.49,5.50,5.50
46.13,3.49,-1.96,3.50,-1.96,1.96,1.54,1.71,5.45,5.46,5.46
46.60,3.49,-1.93,3.50,-1.92,1.92,1.49,1.66,5.42,5.42,5.43
47.06,3.49,-1.89,3.50,-1.88,1.88,1.45,1.62,5.38,5.38,5.39
47.53,3.49,-1.86,3.50,-1.84,1.84,1.40,1.57,5.33,5.34,5.36
48.01,3.49,-1.80,3.50,-1.80,1.80,1.36,1.52,5.29,5.30,5.30
48.49,3.49,-1.75,3.50,-1.76,1.76,1.31,1.48,5.25,5.25,5.25
48.97,3.49,-1.71,3.49,-1.71,1.71,1.26,1.44,5.21,5.21,5.21
49.46,3.49,-1.67,3.49,-1.67,1.67,1.22,1.40,5.16,5.16,5.17
49.96,3.49,-1.60,3.49,-1.62,1.62,1.17,1.36,5.12,5.12,5.10
50.46,3.49,-1.56,3.49,-1.58,1.58,1.13,1.32,5.07,5.07,5.06
50.96,3.49,-1.52,3.49,-1.53,1.53,1.08,1.28,5.02,5.02,5.02
51.47,3.49,-1.48,3.49,-1.48,1.48,1.04,1.24,4.98,4.98,4.98
51.99,3.49,-1.43,3.49,-1.44,1.44,0.99,1.20,4.93,4.93,4.93
52.51,3.49,-1.39,3.49,-1.39,1.39,0.95,1.17,4.88,4.88,4.89
53.03,3.49,-1.36,3.49,-1.34,1.34,0.91,1.13,4.84,4.84,4.86
53.56,3.49,-1.30,3.49,-1.30,1.30,0.86,1.10,4.80,4.79,4.80
54.10,3.49,-1.25,3.49,-1.26,1.26,0.82,1.06,4.76,4.75,4.75
54.64,3.49,-1.21,3.49,-1.22,1.22,0.78,1.03,4.71,4.70,4.71
55.18,3.49,-1.15,3.49,-1.17,1.17,0.73,0.99,4.67,4.66,4.65
55.74,3.49,-1.10,3.49,-1.13,1.13,0.69,0.96,4.62,4.62,4.60
56.29,3.49,-1.07,3.50,-1.08,1.08,0.65,0.92,4.57,4.58,4.57
56.86,3.49,-1.03,3.50,-1.03,1.03,0.61,0.89,4.52,4.53,4.53
57.42,3.49,-0.97,3.51,-0.98,0.98,0.57,0.86,4.47,4.49,4.47
58.00,3.49,-0.94,3.52,-0.92,0.92,0.52,0.82,4.42,4.44,4.44
58.58,3.49,-0.91,3.53,-0.86,0.86,0.48,0.78,4.36,4.39,4.41
59.16,3.51,-0.85,3.54,-0.81,0.81,0.44,0.75,4.32,4.35,4.37
59.76,3.57,-0.75,3.55,-0.75,0.75,0.40,0.71,4.32,4.30,4.33
60.35,3.59,-0.66,3.56,-0.69,0.69,0.36,0.67,4.28,4.24,4.26
60.96,3.59,-0.61,3.57,-0.62,0.62,0.32,0.64,4.22,4.19,4.21
61.57,3.59,-0.54,3.58,-0.56,0.56,0.28,0.60,4.16,4.14,4.14
62.18,3.59,-0.47,3.58,-0.50,0.50,0.24,0.56,4.09,4.08,4.07
62.80,3.59,-0.41,3.59,-0.43,0.43,0.20,0.51,4.03,4.02,4.01
63.43,3.59,-0.35,3.60,-0.37,0.37,0.16,0.47,3.96,3.96,3.95
64.07,3.59,-0.30,3.60,-0.31,0.31,0.12,0.43,3.90,3.91,3.90
64.71,3.59,-0.24,3.60,-0.24,0.24,0.08,0.38,3.84,3.84,3.84
65.35,3.59,-0.18,3.60,-0.18,0.18,0.04,0.34,3.78,3.78,3.78
66.01,3.59,-0.12,3.60,-0.12,0.12,-0.00,0.29,3.72,3.72,3.72
66.67,3.59,-0.08,3.59,-0.07,0.07,-0.04,0.24,3.66,3.66,3.68
67.33,3.59,-0.00,3.59,-0.01,0.01,-0.08,0.19,3.60,3.60,3.60
68.01,3.59,0.05,3.59,0.05,-0.05,-0.12,0.14,3.54,3.54,3.55
68.69,3.59,0.12,3.59,0.11,-0.11,-0.16,0.09,3.48,3.48,3.48
69.37,3.59,0.17,3.59,0.18,-0.18,-0.20,0.04,3.42,3.42,3.43
70.07,3.59,0.24,3.59,0.24,-0.24,-0.24,-0.02,3.35,3.35,3.36
70.77,3.59,0.30,3.59,0.30,-0.30,-0.28,-0.07,3.29,3.29,3.30
71.48,3.59,0.37,3.59,0.37,-0.37,-0.32,-0.13,3.23,3.23,3.23
72.19,3.59,0.44,3.59,0.43,-0.43,-0.36,-0.19,3.16,3.16,3.16
72.91,3.59,0.50,3.59,0.49,-0.49,-0.40,-0.24,3.10,3.10,3.10
73.64,3.59,0.57,3.59,0.56,-0.56,-0.44,-0.30,3.04,3.04,3.03
74.38,3.59,0.63,3.59,0.62,-0.62,-0.48,-0.36,2.97,2.97,2.97
75.12,3.59,0.70,3.59,0.68,-0.68,-0.51,-0.42,2.91,2.91,2.90
75.87,3.59,0.74,3.59,0.74,-0.74,-0.55,-0.49,2.86,2.86,2.86
76.63,3.59,0.81,3.59,0.80,-0.80,-0.59,-0.55,2.80,2.80,2.79
77.40,3.59,0.86,3.59,0.85,-0.85,-0.63,-0.61,2.74,2.74,2.74
78.17,3.59,0.92,3.59,0.91,-0.91,-0.67,-0.68,2.68,2.68,2.68
78.95,3.59,0.96,3.59,0.96,-0.96,-0.71,-0.74,2.63,2.63,2.64
79.74,3.59,1.02,3.59,1.02,-1.02,-0.75,-0.81,2.57,2.57,2.58
80.54,3.59,1.08,3.59,1.07,-1.07,-0.79,-0.88,2.52,2.52,2.52
81.35,3.59,1.13,3.59,1.13,-1.13,-0.83,-0.95,2.46,2.46,2.47
82.16,3.59,1.18,3.59,1.18,-1.18,-0.87,-1.02,2.41,2.41,2.42
82.98,3.59,1.24,3.59,1.24,-1.24,-0.91,-1.09,2.35,2.35,2.36
83.81,3.59,1.30,3.59,1.30,-1.30,-0.95,-1.16,2.30,2.29,2.30
84.65,3.59,1.36,3.59,1.36,-1.36,-0.99,-1.23,2.24,2.24,2.24
85.50,3.59,1.43,3.59,1.42,-1.42,-1.04,-1.30,2.18,2.18,2.17
86.35,3.59,1.49,3.60,1.48,-1.48,-1.08,-1.38,2.12,2.12,2.11
87.22,3.59,1.54,3.60,1.54,-1.54,-1.12,-1.46,2.05,2.06,2.06
88.09,3.59,1.61,3.60,1.60,-1.60,-1.16,-1.53,1.99,1.99,1.99
88.97,3.59,1.66,3.60,1.67,-1.67,-1.20,-1.61,1.93,1.93,1.94
89.86,3.59,1.74,3.60,1.73,-1.73,-1.24,-1.69,1.86,1.87,1.86
90.76,3.60,1.81,3.60,1.80,-1.80,-1.28,-1.77,1.80,1.80,1.80
91.66,3.60,1.88,3.60,1.87,-1.87,-1.33,-1.85,1.73,1.73,1.73
92.58,3.60,1.94,3.60,1.94,-1.94,-1.37,-1.94,1.66,1.66,1.67
93.51,3.60,2.01,3.60,2.01,-2.01,-1.41,-2.02,1.59,1.59,1.60
94.44,3.60,2.08,3.60,2.09,-2.09,-1.45,-2.11,1.52,1.51,1.53
95.39,3.60,2.16,3.60,2.16,-2.16,-1.50,-2.19,1.45,1.44,1.45
96.34,3.59,2.23,3.59,2.23,-2.23,-1.54,-2.28,1.36,1.36,1.37
97.30,3.59,2.31,3.59,2.30,-2.30,-1.58,-2.37,1.29,1.28,1.29
98.28,3.58,2.39,3.58,2.37,-2.37,-1.63,-2.46,1.21,1.20,1.20
99.26,3.56,2.46,3.57,2.44,-2.44,-1.67,-2.55,1.12,1.12,1.11
100.25,3.55,2.53,3.55,2.51,-2.51,-1.72,-2.64,1.04,1.04,1.03
101.25,3.53,2.58,3.54,2.58,-2.58,-1.76,-2.73,0.95,0.96,0.96
102.27,3.52,2.66,3.52,2.64,-2.64,-1.81,-2.82,0.88,0.87,0.87
103.29,3.50,2.72,3.50,2.71,-2.71,-1.85,-2.91,0.80,0.79,0.79
104.32,3.48,2.77,3.48,2.77,-2.77,-1.90,-3.00,0.71,0.71,0.72
105.37,3.46,2.83,3.46,2.83,-2.83,-1.94,-3.09,0.64,0.63,0.64
106.42,3.44,2.90,3.44,2.89,-2.89,-1.99,-3.18,0.56,0.55,0.55
107.48,3.41,2.96,3.41,2.95,-2.95,-2.04,-3.27,0.47,0.47,0.46
108.56,3.39,3.00,3.39,3.00,-3.00,-2.08,-3.36,0.39,0.39,0.40
109.64,3.37,3.07,3.38,3.06,-3.06,-2.13,-3.44,0.31,0.31,0.31
110.74,3.35,3.13,3.36,3.13,-3.13,-2.18,-3.53,0.23,0.23,0.23
111.85,3.33,3.18,3.35,3.19,-3.19,-2.22,-3.61,0.14,0.16,0.16
112.97,3.32,3.24,3.34,3.25,-3.25,-2.27,-3.69,0.07,0.08,0.09
114.10,3.31,3.30,3.33,3.32,-3.32,-2.32,-3.77,-0.00,0.01,0.02
115.24,3.31,3.38,3.32,3.38,-3.38,-2.37,-3.85,-0.07,-0.06,-0.06
116.39,3.31,3.46,3.32,3.45,-3.45,-2.42,-3.92,-0.14,-0.13,-0.14
117.55,3.32,3.53,3.32,3.52,-3.52,-2.47,-3.99,-0.20,-0.20,-0.20
118.73,3.32,3.61,3.33,3.59,-3.59,-2.52,-4.05,-0.27,-0.27,-0.28
119.92,3.33,3.68,3.33,3.66,-3.66,-2.57,-4.11,-0.33,-0.33,-0.34
121.12,3.34,3.74,3.34,3.74,-3.74,-2.62,-4.17,-0.40,-0.40,-0.39
122.33,3.34,3.81,3.35,3.81,-3.81,-2.67,-4.22,-0.47,-0.46,-0.46
123.55,3.35,3.87,3.36,3.89,-3.89,-2.72,-4.27,-0.53,-0.52,-0.51
124.79,3.36,3.94,3.37,3.95,-3.95,-2.77,-4.31,-0.59,-0.59,-0.57
126.03,3.37,4.02,3.37,4.02,-4.02,-2.82,-4.35,-0.64,-0.65,-0.64
127.29,3.37,4.08,3.37,4.08,-4.08,-2.88,-4.38,-0.70,-0.71,-0.70
128.57,3.38,4.15,3.36,4.13,-4.13,-2.93,-4.41,-0.75,-0.77,-0.76
129.85,3.39,4.23,3.36,4.18,-4.18,-2.98,-4.44,-0.79,-0.83,-0.83
131.15,3.39,4.29,3.35,4.23,-4.23,-3.03,-4.46,-0.84,-0.89,-0.89
132.46,3.38,4.34,3.33,4.28,-4.28,-3.09,-4.48,-0.90,-0.95,-0.95
133.79,3.32,4.34,3.32,4.33,-4.33,-3.14,-4.50,-1.00,-1.01,-1.01
135.12,3.30,4.38,3.30,4.37,-4.37,-3.20,-4.51,-1.07,-1.07,-1.07
136.48,3.25,4.37,3.29,4.41,-4.41,-3.25,-4.52,-1.16,-1.12,-1.11
137.84,3.22,4.40,3.27,4.46,-4.46,-3.31,-4.53,-1.23,-1.18,-1.17
139.22,3.22,4.48,3.26,4.50,-4.50,-3.36,-4.53,-1.28,-1.24,-1.25
140.61,3.22,4.52,3.25,4.54,-4.54,-3.42,-4.53,-1.32,-1.30,-1.29
142.02,3.22,4.58,3.23,4.59,-4.59,-3.47,-4.54,-1.37,-1.36,-1.35
143.44,3.22,4.65,3.22,4.64,-4.64,-3.53,-4.54,-1.41,-1.41,-1.42
144.87,3.22,4.70,3.22,4.68,-4.68,-3.59,-4.54,-1.46,-1.47,-1.47
146.32,3.22,4.75,3.21,4.74,-4.74,-3.64,-4.54,-1.51,-1.52,-1.52
147.78,3.22,4.81,3.21,4.79,-4.79,-3.70,-4.54,-1.57,-1.58,-1.58
149.26,3.22,4.86,3.22,4.85,-4.85,-3.76,-4.55,-1.63,-1.63,-1.63
150.75,3.22,4.93,3.22,4.91,-4.91,-3.81,-4.55,-1.69,-1.69,-1.70
152.26,3.22,4.97,3.22,4.97,-4.97,-3.87,-4.55,-1.75,-1.75,-1.74
153.78,3.22,5.03,3.23,5.03,-5.03,-3.93,-4.56,-1.81,-1.80,-1.80
155.32,3.22,5.08,3.23,5.09,-5.09,-3.99,-4.57,-1.87,-1.86,-1.85
156.88,3.22,5.14,3.24,5.16,-5.16,-4.05,-4.58,-1.93,-1.92,-1.91
158.44,3.22,5.20,3.24,5.22,-5.22,-4.10,-4.59,-1.99,-1.98,-1.97
160.03,3.22,5.26,3.23,5.27,-5.27,-4.16,-4.61,-2.05,-2.04,-2.03
161.63,3.22,5.32,3.23,5.32,-5.32,-4.22,-4.63,-2.10,-2.10,-2.09
163.24,3.22,5.39,3.21,5.37,-5.37,-4.28,-4.65,-2.15,-2.16,-2.16
164.88,3.22,5.44,3.20,5.42,-5.42,-4.34,-4.67,-2.19,-2.22,-2.21
166.53,3.21,5.50,3.18,5.46,-5.46,-4.40,-4.70,-2.24,-2.28,-2.28
168.19,3.21,5.55,3.16,5.50,-5.50,-4.46,-4.73,-2.28,-2.34,-2.33
169.87,3.20,5.60,3.14,5.54,-5.54,-4.52,-4.77,-2.33,-2.40,-2.39
171.57,3.14,5.61,3.12,5.57,-5.57,-4.58,-4.81,-2.43,-2.46,-2.46
173.29,3.09,5.62,3.10,5.61,-5.61,-4.64,-4.85,-2.52,-2.51,-2.52
175.02,3.02,5.60,3.07,5.65,-5.65,-4.70,-4.89,-2.62,-2.57,-2.57
176.77,2.99,5.62,3.06,5.68,-5.68,-4.76,-4.94,-2.69,-2.62,-2.62
178.54,2.99,5.68,3.04,5.72,-5.72,-4.82,-5.00,-2.73,-2.68,-2.68
180.32,2.99,5.74,3.03,5.76,-5.76,-4.87,-5.05,-2.77,-2.73,-2.74
182.13,2.99,5.78,3.03,5.81,-5.81,-4.93,-5.12,-2.81,-2.78,-2.78
183.95,3.00,5.84,3.02,5.85,-5.85,-4.99,-5.18,-2.85,-2.83,-2.83
185.79,3.02,5.91,3.02,5.90,-5.90,-5.05,-5.25,-2.88,-2.88,-2.88
187.65,3.03,5.96,3.03,5.95,-5.95,-5.11,-5.32,-2.92,-2.93,-2.92
189.52,3.05,6.03,3.04,6.01,-6.01,-5.17,-5.40,-2.95,-2.97,-2.97
191.42,3.06,6.07,3.05,6.06,-6.06,-5.23,-5.48,-3.00,-3.01,-3.00
193.33,3.07,6.13,3.06,6.12,-6.12,-5.28,-5.56,-3.04,-3.06,-3.05
195.27,3.09,6.20,3.07,6.17,-6.17,-5.34,-5.64,-3.07,-3.10,-3.10
197.22,3.10,6.26,3.07,6.21,-6.21,-5.40,-5.73,-3.10,-3.14,-3.15
199.19,3.09,6.28,3.06,6.24,-6.24,-5.46,-5.82,-3.15,-3.18,-3.18
201.18,3.05,6.29,3.05,6.28,-6.28,-5.51,-5.92,-3.22,-3.22,-3.23
203.19,3.03,6.30,3.05,6.31,-6.31,-5.57,-6.01,-3.28,-3.26,-3.26
205.23,3.03,6.34,3.04,6.34,-6.34,-5.62,-6.11,-3.31,-3.30,-3.30
207.28,3.03,6.37,3.02,6.36,-6.36,-5.68,-6.21,-3.33,-3.34,-3.33
209.35,3.01,6.39,3.00,6.38,-6.38,-5.73,-6.31,-3.37,-3.38,-3.37
211.44,2.95,6.38,2.98,6.40,-6.40,-5.79,-6.41,-3.45,-3.42,-3.42
213.56,2.93,6.39,2.96,6.42,-6.42,-5.84,-6.51,-3.48,-3.46,-3.45
215.69,2.92,6.42,2.94,6.43,-6.43,-5.89,-6.61,-3.51,-3.49,-3.49
217.85,2.92,6.45,2.92,6.45,-6.45,-5.94,-6.70,-3.53,-3.53,-3.52
220.03,2.92,6.50,2.91,6.47,-6.47,-5.99,-6.80,-3.54,-3.56,-3.57
222.23,2.91,6.51,2.89,6.48,-6.48,-6.04,-6.89,-3.57,-3.59,-3.59
224.45,2.90,6.53,2.88,6.50,-6.50,-6.09,-6.98,-3.59,-3.62,-3.62
226.70,2.83,6.49,2.87,6.51,-6.51,-6.14,-7.07,-3.68,-3.64,-3.65
228.96,2.82,6.50,2.86,6.52,-6.52,-6.18,-7.15,-3.70,-3.67,-3.67
231.25,2.83,6.52,2.85,6.53,-6.53,-6.23,-7.22,-3.70,-3.69,-3.68
233.57,2.84,6.56,2.84,6.54,-6.54,-6.27,-7.29,-3.70,-3.70,-3.71
235.90,2.85,6.58,2.84,6.55,-6.55,-6.31,-7.35,-3.70,-3.72,-3.72
238.26,2.85,6.60,2.83,6.56,-6.56,-6.36,-7.40,-3.70,-3.73,-3.74
240.64,2.81,6.55,2.83,6.57,-6.57,-6.40,-7.44,-3.75,-3.74,-3.73
243.05,2.81,6.56,2.83,6.58,-6.58,-6.43,-7.48,-3.76,-3.75,-3.74
245.48,2.82,6.59,2.83,6.59,-6.59,-6.47,-7.50,-3.76,-3.76,-3.76
247.93,2.85,6.63,2.83,6.59,-6.59,-6.51,-7.52,-3.74,-3.76,-3.77
250.41,2.79,6.56,2.83,6.60,-6.60,-6.54,-7.52,-3.80,-3.77,-3.76
252.92,2.79,6.56,2.82,6.60,-6.60,-6.57,-7.52,-3.81,-3.78,-3.76
255.45,2.80,6.59,2.81,6.60,-6.60,-6.61,-7.51,-3.79,-3.79,-3.78
258.00,2.81,6.61,2.79,6.59,-6.59,-6.63,-7.48,-3.78,-3.80,-3.79
260.58,2.82,6.63,2.78,6.59,-6.59,-6.66,-7.45,-3.76,-3.81,-3.80
263.19,2.82,6.64,2.76,6.58,-6.58,-6.69,-7.41,-3.76,-3.82,-3.81
265.82,2.82,6.66,2.75,6.58,-6.58,-6.71,-7.36,-3.75,-3.83,-3.83
268.48,2.74,6.58,2.73,6.58,-6.58,-6.74,-7.30,-3.83,-3.84,-3.83
271.16,2.68,6.54,2.71,6.57,-6.57,-6.76,-7.24,-3.88,-3.86,-3.85
273.87,2.61,6.48,2.69,6.56,-6.56,-6.77,-7.16,-3.94,-3.87,-3.86
276.61,2.61,6.50,2.67,6.55,-6.55,-6.79,-7.09,-3.93,-3.88,-3.88
279.38,2.61,6.53,2.65,6.54,-6.54,-6.81,-7.01,-3.92,-3.89,-3.91
282.17,2.61,6.53,2.63,6.53,-6.53,-6.82,-6.92,-3.91,-3.90,-3.91
284.99,2.62,6.54,2.61,6.51,-6.51,-6.83,-6.83,-3.89,-3.91,-3.91
287.84,2.63,6.55,2.59,6.50,-6.50,-6.84,-6.74,-3.87,-3.91,-3.91
290.72,2.58,6.52,2.57,6.49,-6.49,-6.85,-6.65,-3.91,-3.92,-3.93
293.63,2.56,6.49,2.56,6.48,-6.48,-6.85,-6.55,-3.92,-3.92,-3.92
296.57,2.56,6.49,2.55,6.48,-6.48,-6.85,-6.46,-3.92,-3.93,-3.92
299.53,2.50,6.44,2.55,6.48,-6.48,-6.85,-6.36,-3.97,-3.93,-3.93
302.53,2.50,6.43,2.54,6.47,-6.47,-6.85,-6.27,-3.97,-3.93,-3.92
305.55,2.51,6.45,2.53,6.46,-6.46,-6.85,-6.18,-3.95,-3.93,-3.93
308.61,2.52,6.45,2.51,6.44,-6.44,-6.84,-6.09,-3.92,-3.94,-3.92
311.69,2.52,6.47,2.48,6.42,-6.42,-6.84,-6.00,-3.90,-3.94,-3.94
314.81,2.46,6.40,2.45,6.39,-6.39,-6.83,-5.91,-3.93,-3.94,-3.93
317.96,2.43,6.39,2.42,6.37,-6.37,-6.82,-5.83,-3.93,-3.94,-3.95
321.14,2.43,6.38,2.40,6.34,-6.34,-6.80,-5.74,-3.91,-3.95,-3.94
324.35,2.41,6.37,2.37,6.32,-6.32,-6.79,-5.67,-3.90,-3.95,-3.95
327.59,2.35,6.30,2.34,6.29,-6.29,-6.77,-5.59,-3.94,-3.95,-3.94
330.87,2.28,6.24,2.31,6.27,-6.27,-6.75,-5.52,-3.98,-3.95,-3.95
334.18,2.25,6.22,2.28,6.24,-6.24,-6.73,-5.45,-3.98,-3.95,-3.96
337.52,2.23,6.19,2.24,6.20,-6.20,-6.71,-5.39,-3.96,-3.95,-3.95
340.90,2.16,6.13,2.21,6.16,-6.16,-6.68,-5.33,-4.00,-3.95,-3.96
344.30,2.14,6.10,2.18,6.13,-6.13,-6.65,-5.27,-3.99,-3.95,-3.95
347.75,2.14,6.09,2.15,6.10,-6.10,-6.63,-5.22,-3.96,-3.95,-3.94
351.23,2.14,6.11,2.12,6.07,-6.07,-6.60,-5.17,-3.93,-3.95,-3.96
354.74,2.13,6.08,2.10,6.04,-6.04,-6.56,-5.12,-3.91,-3.94,-3.94
358.28,2.08,6.03,2.07,6.01,-6.01,-6.53,-5.08,-3.93,-3.94,-3.94
361.87,2.05,6.00,2.05,5.98,-5.98,-6.50,-5.04,-3.93,-3.94,-3.94
365.49,1.98,5.92,2.02,5.95,-5.95,-6.46,-5.01,-3.97,-3.93,-3.93
369.14,1.97,5.90,2.00,5.92,-5.92,-6.42,-4.98,-3.95,-3.93,-3.92
372.83,1.98,5.90,1.97,5.90,-5.90,-6.38,-4.96,-3.91,-3.92,-3.91
376.56,1.99,5.92,1.95,5.87,-5.87,-6.34,-4.93,-3.88,-3.92,-3.92
380.33,1.93,5.86,1.92,5.84,-5.84,-6.30,-4.92,-3.91,-3.92,-3.92
384.13,1.89,5.81,1.89,5.81,-5.81,-6.25,-4.90,-3.92,-3.92,-3.91
387.97,1.83,5.75,1.86,5.78,-5.78,-6.21,-4.89,-3.95,-3.93,-3.91
391.85,1.82,5.75,1.82,5.75,-5.75,-6.16,-4.88,-3.92,-3.93,-3.92
395.77,1.78,5.72,1.78,5.72,-5.72,-6.12,-4.87,-3.93,-3.93,-3.93
399.73,1.73,5.67,1.75,5.69,-5.69,-6.07,-4.87,-3.95,-3.94,-3.93
403.72,1.72,5.65,1.71,5.65,-5.65,-6.02,-4.87,-3.93,-3.94,-3.92
407.76,1.72,5.67,1.68,5.63,-5.63,-5.97,-4.87,-3.90,-3.95,-3.94
411.84,1.67,5.63,1.64,5.59,-5.59,-5.92,-4.88,-3.92,-3.95,-3.95
415.96,1.62,5.58,1.61,5.56,-5.56,-5.87,-4.88,-3.93,-3.95,-3.95
420.12,1.55,5.52,1.58,5.53,-5.53,-5.81,-4.89,-3.97,-3.95,-3.96
424.32,1.53,5.49,1.56,5.50,-5.50,-5.76,-4.90,-3.96,-3.94,-3.95
428.56,1.48,5.42,1.54,5.46,-5.46,-5.71,-4.91,-3.98,-3.93,-3.93
432.85,1.46,5.38,1.52,5.43,-5.43,-5.65,-4.92,-3.96,-3.91,-3.91
437.18,1.49,5.40,1.51,5.39,-5.39,-5.59,-4.93,-3.90,-3.88,-3.90
441.55,1.51,5.39,1.50,5.35,-5.35,-5.54,-4.94,-3.84,-3.85,-3.87
445.96,1.49,5.33,1.50,5.31,-5.31,-5.48,-4.95,-3.82,-3.81,-3.83
450.42,1.51,5.31,1.50,5.27,-5.27,-5.42,-4.96,-3.76,-3.77,-3.79
454.93,1.49,5.24,1.51,5.23,-5.23,-5.37,-4.96,-3.74,-3.72,-3.74
459.48,1.54,5.23,1.51,5.18,-5.18,-5.31,-4.97,-3.64,-3.67,-3.68
464.07,1.53,5.15,1.53,5.15,-5.15,-5.25,-4.97,-3.61,-3.62,-3.61
468.71,1.49,5.06,1.54,5.11,-5.11,-5.19,-4.97,-3.61,-3.57,-3.56
473.40,1.53,5.04,1.55,5.06,-5.06,-5.13,-4.97,-3.53,-3.51,-3.50
478.13,1.58,5.03,1.55,5.01,-5.01,-5.07,-4.96,-3.43,-3.46,-3.44
482.91,1.57,4.97,1.55,4.96,-4.96,-5.01,-4.95,-3.39,-3.41,-3.39
487.74,1.57,4.94,1.55,4.91,-4.91,-4.95,-4.94,-3.34,-3.36,-3.36
492.62,1.53,4.86,1.54,4.87,-4.87,-4.89,-4.92,-3.33,-3.32,-3.32
497.55,1.51,4.80,1.53,4.82,-4.82,-4.83,-4.90,-3.31,-3.29,-3.28
502.52,1.47,4.74,1.51,4.77,-4.77,-4.77,-4.87,-3.30,-3.26,-3.26
507.55,1.49,4.73,1.48,4.72,-4.72,-4.71,-4.84,-3.23,-3.24,-3.23
512.62,1.52,4.75,1.44,4.68,-4.68,-4.64,-4.81,-3.15,-3.23,-3.22
517.75,1.39,4.61,1.39,4.62,-4.62,-4.58,-4.77,-3.23,-3.23,-3.21
