frequency,raw,error,smoothed,error_smoothed,equalization,parametric_eq,fixed_band_eq,equalized_raw,equalized_smoothed,target
20.00,-7.88,-9.41,-7.89,-9.42,9.44,9.42,3.59,1.56,1.55,1.53
20.20,-7.88,-9.44,-7.86,-9.42,9.43,9.39,3.68,1.55,1.57,1.56
20.40,-7.84,-9.43,-7.83,-9.42,9.41,9.37,3.79,1.57,1.58,1.59
20.61,-7.77,-9.38,-7.78,-9.40,9.39,9.35,3.89,1.62,1.61,1.61
20.81,-7.74,-9.38,-7.73,-9.38,9.37,9.32,4.00,1.63,1.64,1.64
21.02,-7.68,-9.35,-7.68,-9.34,9.34,9.29,4.11,1.66,1.66,1.67
21.23,-7.63,-9.31,-7.63,-9.31,9.31,9.26,4.22,1.68,1.68,1.68
21.44,-7.57,-9.26,-7.57,-9.27,9.27,9.23,4.34,1.71,1.70,1.69
21.66,-7.53,-9.23,-7.52,-9.23,9.23,9.19,4.46,1.70,1.71,1.70
21.87,-7.48,-9.18,-7.48,-9.18,9.18,9.16,4.58,1.71,1.71,1.70
22.09,-7.43,-9.14,-7.43,-9.14,9.14,9.12,4.70,1.71,1.71,1.71
22.31,-7.38,-9.09,-7.37,-9.09,9.09,9.09,4.83,1.71,1.72,1.71
22.54,-7.32,-9.03,-7.32,-9.04,9.04,9.05,4.97,1.72,1.71,1.71
22.76,-7.27,-8.98,-7.27,-8.98,8.98,9.00,5.10,1.72,1.71,1.71
22.99,-7.24,-8.94,-7.22,-8.93,8.93,8.96,5.25,1.70,1.71,1.70
23.22,-7.17,-8.87,-7.18,-8.88,8.88,8.92,5.39,1.71,1.70,1.70
23.45,-7.13,-8.83,-7.12,-8.83,8.83,8.87,5.54,1.70,1.70,1.70
23.69,-7.07,-8.77,-7.07,-8.77,8.77,8.83,5.69,1.71,1.71,1.70
23.92,-7.02,-8.72,-7.02,-8.72,8.72,8.78,5.84,1.71,1.70,1.70
24.16,-6.97,-8.67,-6.97,-8.67,8.67,8.73,6.00,1.71,1.71,1.70
24.40,-6.92,-8.62,-6.92,-8.62,8.62,8.68,6.16,1.71,1.70,1.70
24.65,-6.88,-8.57,-6.87,-8.57,8.57,8.63,6.32,1.69,1.70,1.69
24.89,-6.83,-8.52,-6.83,-8.52,8.52,8.58,6.48,1.70,1.69,1.69
25.14,-6.79,-8.48,-6.78,-8.48,8.47,8.52,6.65,1.69,1.69,1.69
25.39,-6.74,-8.43,-6.74,-8.43,8.43,8.47,6.82,1.69,1.69,1.69
25.65,-6.69,-8.38,-6.69,-8.38,8.38,8.41,6.99,1.69,1.69,1.69
25.91,-6.64,-8.32,-6.64,-8.33,8.33,8.36,7.16,1.69,1.69,1.68
26.16,-6.60,-8.28,-6.59,-8.28,8.28,8.30,7.33,1.69,1.69,1.68
26.43,-6.55,-8.23,-6.55,-8.23,8.23,8.24,7.51,1.69,1.69,1.68
26.69,-6.50,-8.18,-6.50,-8.18,8.18,8.18,7.68,1.69,1.68,1.68
26.96,-6.46,-8.14,-6.45,-8.14,8.13,8.12,7.85,1.68,1.68,1.68
27.23,-6.41,-8.08,-6.41,-8.08,8.08,8.06,8.01,1.67,1.67,1.67
27.50,-6.36,-8.03,-6.36,-8.03,8.03,7.99,8.17,1.67,1.67,1.67
27.77,-6.31,-7.97,-6.31,-7.97,7.97,7.93,8.33,1.67,1.67,1.66
28.05,-6.26,-7.92,-6.25,-7.91,7.91,7.87,8.48,1.66,1.66,1.66
28.33,-6.20,-7.85,-6.20,-7.86,7.85,7.80,8.62,1.66,1.65,1.65
28.62,-6.14,-7.79,-6.14,-7.79,7.79,7.73,8.76,1.65,1.65,1.65
28.90,-6.08,-7.73,-6.07,-7.72,7.73,7.67,8.88,1.65,1.65,1.65
29.19,-6.01,-7.65,-6.01,-7.66,7.66,7.60,8.99,1.65,1.65,1.64
29.48,-5.95,-7.59,-5.95,-7.59,7.59,7.53,9.09,1.65,1.64,1.64
29.78,-5.89,-7.52,-5.89,-7.52,7.53,7.46,9.18,1.64,1.64,1.63
30.08,-5.84,-7.47,-5.83,-7.46,7.46,7.40,9.25,1.62,1.63,1.63
30.38,-5.76,-7.38,-5.77,-7.39,7.39,7.33,9.30,1.63,1.62,1.62
30.68,-5.71,-7.33,-5.70,-7.32,7.32,7.25,9.33,1.62,1.62,1.62
30.99,-5.64,-7.25,-5.64,-7.25,7.25,7.18,9.35,1.62,1.62,1.61
31.30,-5.58,-7.18,-5.58,-7.19,7.19,7.11,9.35,1.61,1.61,1.60
31.61,-5.52,-7.12,-5.52,-7.12,7.12,7.04,9.33,1.60,1.60,1.60
31.93,-5.46,-7.05,-5.45,-7.05,7.05,6.97,9.30,1.59,1.60,1.59
32.24,-5.39,-6.97,-5.39,-6.98,6.98,6.90,9.24,1.59,1.59,1.58
32.57,-5.33,-6.91,-5.33,-6.91,6.91,6.82,9.18,1.58,1.58,1.58
32.89,-5.28,-6.85,-5.27,-6.84,6.84,6.75,9.09,1.56,1.57,1.57
33.22,-5.20,-6.76,-5.21,-6.78,6.77,6.67,8.99,1.57,1.56,1.56
33.55,-5.15,-6.71,-5.14,-6.70,6.70,6.60,8.88,1.55,1.56,1.56
33.89,-5.07,-6.62,-5.07,-6.62,6.62,6.52,8.75,1.55,1.55,1.55
34.23,-4.99,-6.53,-5.00,-6.54,6.54,6.45,8.62,1.55,1.54,1.54
34.57,-4.94,-6.47,-4.93,-6.46,6.46,6.37,8.48,1.52,1.53,1.53
34.92,-4.86,-6.38,-4.85,-6.38,6.38,6.30,8.33,1.52,1.52,1.52
35.27,-4.78,-6.29,-4.78,-6.29,6.29,6.22,8.17,1.52,1.51,1.51
35.62,-4.70,-6.20,-4.70,-6.21,6.21,6.15,8.01,1.51,1.51,1.50
35.97,-4.64,-6.13,-4.63,-6.13,6.13,6.07,7.84,1.49,1.50,1.49
36.33,-4.57,-6.05,-4.56,-6.05,6.05,5.99,7.67,1.48,1.49,1.48
36.70,-4.49,-5.96,-4.50,-5.97,5.97,5.92,7.50,1.48,1.47,1.47
37.06,-4.43,-5.89,-4.42,-5.88,5.89,5.84,7.33,1.46,1.47,1.46
37.43,-4.36,-5.81,-4.35,-5.81,5.81,5.76,7.16,1.45,1.46,1.45
37.81,-4.28,-5.72,-4.29,-5.73,5.73,5.68,6.99,1.45,1.44,1.44
38.19,-4.23,-5.66,-4.22,-5.66,5.65,5.61,6.82,1.42,1.43,1.43
38.57,-4.17,-5.59,-4.16,-5.58,5.57,5.53,6.65,1.41,1.41,1.42
38.95,-4.09,-5.50,-4.09,-5.50,5.49,5.45,6.48,1.41,1.41,1.41
39.34,-4.02,-5.41,-4.01,-5.41,5.42,5.37,6.32,1.40,1.40,1.39
39.74,-3.94,-5.32,-3.95,-5.33,5.34,5.30,6.15,1.40,1.39,1.38
40.14,-3.89,-5.26,-3.89,-5.26,5.27,5.22,5.99,1.38,1.38,1.37
40.54,-3.84,-5.20,-3.83,-5.19,5.19,5.14,5.84,1.36,1.37,1.36
40.94,-3.78,-5.13,-3.77,-5.12,5.12,5.06,5.68,1.35,1.35,1.35
41.35,-3.70,-5.04,-3.71,-5.06,5.06,4.98,5.53,1.36,1.34,1.34
41.76,-3.66,-4.99,-3.65,-4.99,4.99,4.90,5.39,1.33,1.33,1.33
42.18,-3.61,-4.93,-3.60,-4.92,4.92,4.83,5.25,1.31,1.32,1.32
42.60,-3.55,-4.86,-3.55,-4.86,4.85,4.75,5.11,1.31,1.30,1.31
43.03,-3.49,-4.79,-3.49,-4.79,4.78,4.67,4.97,1.30,1.30,1.30
43.46,-3.43,-4.71,-3.43,-4.71,4.71,4.59,4.84,1.29,1.29,1.28
43.90,-3.38,-4.64,-3.38,-4.64,4.65,4.51,4.71,1.27,1.27,1.26
44.33,-3.33,-4.57,-3.33,-4.57,4.58,4.44,4.58,1.25,1.25,1.24
44.78,-3.29,-4.51,-3.28,-4.51,4.51,4.36,4.46,1.23,1.23,1.22
45.23,-3.24,-4.44,-3.24,-4.45,4.45,4.28,4.34,1.21,1.21,1.20
45.68,-3.20,-4.39,-3.20,-4.39,4.39,4.20,4.23,1.19,1.19,1.19
46.13,-3.15,-4.32,-3.15,-4.33,4.32,4.12,4.11,1.18,1.17,1.17
46.60,-3.11,-4.27,-3.10,-4.26,4.26,4.05,4.01,1.16,1.16,1.16
47.06,-3.06,-4.20,-3.06,-4.20,4.20,3.97,3.90,1.14,1.14,1.14
47.53,-3.01,-4.13,-3.01,-4.14,4.13,3.89,3.80,1.13,1.12,1.12
48.01,-2.97,-4.08,-2.96,-4.07,4.06,3.81,3.70,1.10,1.10,1.11
48.49,-2.92,-4.00,-2.92,-4.00,4.00,3.74,3.60,1.08,1.08,1.08
48.97,-2.87,-3.92,-2.87,-3.92,3.93,3.66,3.51,1.06,1.06,1.05
49.46,-2.83,-3.85,-2.83,-3.85,3.86,3.58,3.42,1.03,1.03,1.02
49.96,-2.78,-3.77,-2.78,-3.78,3.79,3.51,3.33,1.01,1.01,0.99
50.46,-2.75,-3.72,-2.74,-3.71,3.72,3.43,3.24,0.97,0.98,0.97
50.96,-2.69,-3.64,-2.70,-3.64,3.65,3.35,3.16,0.96,0.95,0.95
51.47,-2.66,-3.58,-2.66,-3.58,3.58,3.28,3.07,0.92,0.92,0.92
51.99,-2.61,-3.51,-2.61,-3.51,3.51,3.20,3.00,0.90,0.90,0.90
52.51,-2.57,-3.45,-2.56,-3.44,3.44,3.13,2.92,0.87,0.88,0.88
53.03,-2.50,-3.36,-2.50,-3.36,3.36,3.05,2.84,0.87,0.86,0.86
53.56,-2.45,-3.28,-2.45,-3.29,3.29,2.97,2.77,0.84,0.84,0.83
54.10,-2.40,-3.21,-2.40,-3.21,3.21,2.90,2.70,0.81,0.82,0.81
54.64,-2.35,-3.13,-2.35,-3.13,3.13,2.82,2.63,0.78,0.78,0.78
55.18,-2.30,-3.06,-2.30,-3.06,3.05,2.75,2.56,0.76,0.76,0.76
55.74,-2.25,-2.98,-2.24,-2.98,2.97,2.68,2.49,0.73,0.73,0.73
56.29,-2.18,-2.89,-2.18,-2.89,2.90,2.60,2.42,0.72,0.72,0.71
56.86,-2.12,-2.81,-2.12,-2.81,2.82,2.53,2.36,0.70,0.70,0.69
57.42,-2.07,-2.73,-2.07,-2.73,2.74,2.45,2.30,0.68,0.68,0.66
58.00,-2.02,-2.66,-2.02,-2.66,2.67,2.38,2.23,0.65,0.65,0.64
58.58,-1.98,-2.60,-1.97,-2.60,2.59,2.31,2.17,0.61,0.62,0.62
59.16,-1.92,-2.52,-1.92,-2.52,2.51,2.23,2.11,0.59,0.59,0.60
59.76,-1.86,-2.44,-1.85,-2.44,2.43,2.16,2.05,0.57,0.57,0.58
60.35,-1.79,-2.34,-1.79,-2.35,2.35,2.09,1.99,0.56,0.55,0.55
60.96,-1.74,-2.26,-1.74,-2.26,2.27,2.02,1.93,0.53,0.53,0.52
61.57,-1.70,-2.18,-1.69,-2.18,2.19,1.95,1.87,0.49,0.49,0.48
62.18,-1.65,-2.10,-1.64,-2.10,2.10,1.88,1.82,0.46,0.46,0.45
62.80,-1.60,-2.02,-1.60,-2.02,2.02,1.81,1.76,0.42,0.42,0.42
63.43,-1.54,-1.93,-1.55,-1.94,1.94,1.74,1.70,0.40,0.39,0.39
64.07,-1.51,-1.87,-1.50,-1.86,1.86,1.67,1.64,0.35,0.36,0.36
64.71,-1.45,-1.79,-1.45,-1.79,1.78,1.60,1.59,0.34,0.33,0.34
65.35,-1.40,-1.71,-1.40,-1.71,1.71,1.53,1.53,0.31,0.31,0.31
66.01,-1.35,-1.63,-1.34,-1.63,1.63,1.46,1.48,0.28,0.29,0.28
66.67,-1.29,-1.54,-1.30,-1.55,1.56,1.39,1.42,0.27,0.26,0.25
67.33,-1.26,-1.48,-1.25,-1.47,1.48,1.32,1.36,0.22,0.23,0.22
68.01,-1.21,-1.40,-1.21,-1.41,1.41,1.25,1.31,0.20,0.20,0.19
68.69,-1.18,-1.34,-1.18,-1.34,1.33,1.19,1.25,0.16,0.16,0.16
69.37,-1.14,-1.27,-1.13,-1.26,1.26,1.12,1.20,0.13,0.13,0.13
70.07,-1.09,-1.19,-1.09,-1.19,1.19,1.05,1.14,0.10,0.10,0.10
70.77,-1.04,-1.11,-1.05,-1.12,1.12,0.99,1.08,0.08,0.07,0.07
71.48,-1.01,-1.05,-1.00,-1.04,1.04,0.92,1.03,0.03,0.04,0.04
72.19,-0.97,-0.97,-0.96,-0.97,0.97,0.86,0.97,-0.00,0.00,0.00
72.91,-0.92,-0.89,-0.92,-0.89,0.89,0.79,0.92,-0.03,-0.03,-0.03
73.64,-0.89,-0.82,-0.88,-0.81,0.82,0.73,0.86,-0.07,-0.06,-0.07
74.38,-0.83,-0.73,-0.84,-0.74,0.74,0.67,0.81,-0.08,-0.09,-0.10
75.12,-0.80,-0.66,-0.80,-0.66,0.67,0.60,0.75,-0.12,-0.13,-0.14
75.87,-0.77,-0.60,-0.77,-0.60,0.60,0.54,0.70,-0.17,-0.17,-0.17
76.63,-0.74,-0.54,-0.74,-0.54,0.53,0.48,0.64,-0.21,-0.21,-0.20
77.40,-0.71,-0.48,-0.70,-0.47,0.46,0.42,0.59,-0.24,-0.24,-0.23
78.17,-0.66,-0.39,-0.66,-0.40,0.40,0.36,0.54,-0.26,-0.26,-0.27
78.95,-0.62,-0.32,-0.62,-0.33,0.33,0.30,0.48,-0.29,-0.29,-0.30
79.74,-0.60,-0.27,-0.59,-0.26,0.27,0.24,0.43,-0.33,-0.32,-0.33
80.54,-0.56,-0.19,-0.56,-0.20,0.20,0.18,0.37,-0.36,-0.36,-0.37
81.35,-0.55,-0.15,-0.54,-0.14,0.14,0.12,0.32,-0.41,-0.40,-0.40
82.16,-0.51,-0.07,-0.51,-0.08,0.07,0.06,0.26,-0.43,-0.44,-0.44
82.98,-0.49,-0.02,-0.49,-0.02,0.01,0.00,0.21,-0.47,-0.47,-0.47
83.81,-0.46,0.05,-0.45,0.05,-0.05,-0.05,0.15,-0.50,-0.50,-0.51
84.65,-0.43,0.12,-0.43,0.11,-0.10,-0.11,0.10,-0.53,-0.54,-0.55
85.50,-0.41,0.17,-0.41,0.17,-0.16,-0.17,0.04,-0.57,-0.58,-0.58
86.35,-0.41,0.21,-0.40,0.22,-0.23,-0.22,-0.02,-0.63,-0.62,-0.62
87.22,-0.37,0.29,-0.38,0.28,-0.29,-0.28,-0.07,-0.65,-0.66,-0.66
88.09,-0.37,0.33,-0.35,0.34,-0.35,-0.33,-0.13,-0.72,-0.70,-0.70
88.97,-0.32,0.42,-0.33,0.40,-0.41,-0.38,-0.18,-0.73,-0.74,-0.74
89.86,-0.32,0.46,-0.31,0.47,-0.47,-0.44,-0.24,-0.78,-0.78,-0.78
90.76,-0.30,0.53,-0.29,0.53,-0.52,-0.49,-0.30,-0.82,-0.81,-0.83
91.66,-0.27,0.60,-0.28,0.59,-0.58,-0.54,-0.35,-0.85,-0.86,-0.87
92.58,-0.27,0.65,-0.27,0.65,-0.64,-0.59,-0.41,-0.90,-0.90,-0.92
93.51,-0.27,0.69,-0.26,0.69,-0.69,-0.64,-0.47,-0.96,-0.95,-0.96
94.44,-0.27,0.73,-0.27,0.73,-0.74,-0.69,-0.53,-1.01,-1.01,-1.00
95.39,-0.27,0.78,-0.27,0.78,-0.80,-0.74,-0.59,-1.06,-1.06,-1.05
96.34,-0.27,0.83,-0.25,0.84,-0.85,-0.79,-0.64,-1.12,-1.10,-1.10
97.30,-0.23,0.92,-0.24,0.91,-0.90,-0.84,-0.70,-1.13,-1.14,-1.15
98.28,-0.23,0.97,-0.23,0.96,-0.96,-0.88,-0.76,-1.19,-1.19,-1.20
99.26,-0.23,1.01,-0.22,1.02,-1.01,-0.93,-0.82,-1.24,-1.24,-1.24
100.25,-0.23,1.06,-0.22,1.07,-1.07,-0.97,-0.88,-1.29,-1.29,-1.29
101.25,-0.22,1.12,-0.22,1.12,-1.12,-1.02,-0.94,-1.33,-1.33,-1.34
102.27,-0.20,1.19,-0.21,1.17,-1.16,-1.06,-0.99,-1.36,-1.37,-1.39
103.29,-0.23,1.21,-0.22,1.22,-1.20,-1.11,-1.05,-1.43,-1.42,-1.44
104.32,-0.23,1.25,-0.23,1.25,-1.25,-1.15,-1.11,-1.47,-1.48,-1.48
105.37,-0.26,1.27,-0.25,1.27,-1.29,-1.19,-1.17,-1.54,-1.54,-1.53
106.42,-0.27,1.31,-0.26,1.31,-1.33,-1.23,-1.22,-1.59,-1.59,-1.58
107.48,-0.27,1.36,-0.27,1.36,-1.37,-1.28,-1.28,-1.64,-1.64,-1.63
108.56,-0.27,1.41,-0.26,1.41,-1.41,-1.32,-1.33,-1.67,-1.67,-1.68
109.64,-0.27,1.46,-0.27,1.46,-1.45,-1.35,-1.39,-1.72,-1.72,-1.73
110.74,-0.27,1.51,-0.28,1.50,-1.49,-1.39,-1.44,-1.76,-1.77,-1.78
111.85,-0.31,1.52,-0.29,1.54,-1.53,-1.43,-1.49,-1.84,-1.83,-1.83
112.97,-0.32,1.57,-0.31,1.57,-1.57,-1.47,-1.54,-1.89,-1.89,-1.89
114.10,-0.32,1.62,-0.33,1.61,-1.61,-1.51,-1.58,-1.93,-1.94,-1.94
115.24,-0.36,1.64,-0.35,1.65,-1.65,-1.54,-1.63,-2.00,-2.00,-2.00
116.39,-0.37,1.68,-0.37,1.68,-1.68,-1.58,-1.67,-2.05,-2.05,-2.05
117.55,-0.40,1.71,-0.40,1.71,-1.71,-1.61,-1.71,-2.11,-2.10,-2.11
118.73,-0.41,1.75,-0.42,1.74,-1.74,-1.64,-1.75,-2.14,-2.15,-2.16
119.92,-0.46,1.75,-0.44,1.76,-1.76,-1.68,-1.78,-2.22,-2.20,-2.21
121.12,-0.47,1.79,-0.47,1.78,-1.78,-1.71,-1.82,-2.25,-2.25,-2.26
122.33,-0.51,1.80,-0.51,1.80,-1.80,-1.74,-1.85,-2.30,-2.31,-2.31
123.55,-0.55,1.81,-0.54,1.81,-1.81,-1.77,-1.87,-2.36,-2.36,-2.36
124.79,-0.59,1.82,-0.59,1.82,-1.83,-1.80,-1.90,-2.41,-2.41,-2.41
126.03,-0.62,1.84,-0.62,1.84,-1.84,-1.83,-1.92,-2.46,-2.46,-2.46
127.29,-0.67,1.84,-0.66,1.85,-1.85,-1.86,-1.94,-2.52,-2.51,-2.51
128.57,-0.70,1.87,-0.70,1.86,-1.86,-1.89,-1.96,-2.55,-2.56,-2.57
129.85,-0.76,1.86,-0.75,1.87,-1.86,-1.91,-1.97,-2.62,-2.61,-2.62
131.15,-0.79,1.88,-0.79,1.88,-1.87,-1.94,-1.98,-2.65,-2.66,-2.67
132.46,-0.84,1.88,-0.84,1.87,-1.87,-1.96,-1.99,-2.71,-2.71,-2.72
133.79,-0.89,1.87,-0.89,1.87,-1.87,-1.99,-1.99,-2.76,-2.76,-2.76
135.12,-0.95,1.86,-0.94,1.87,-1.88,-2.01,-2.00,-2.82,-2.81,-2.81
136.48,-0.98,1.87,-0.98,1.87,-1.88,-2.04,-2.00,-2.85,-2.86,-2.85
137.84,-1.02,1.88,-1.02,1.88,-1.88,-2.06,-2.00,-2.89,-2.90,-2.90
139.22,-1.07,1.88,-1.06,1.88,-1.88,-2.08,-2.00,-2.94,-2.94,-2.95
140.61,-1.10,1.89,-1.10,1.88,-1.88,-2.10,-2.00,-2.97,-2.98,-2.99
142.02,-1.15,1.87,-1.15,1.88,-1.87,-2.12,-1.99,-3.02,-3.02,-3.02
143.44,-1.19,1.87,-1.19,1.87,-1.87,-2.14,-1.99,-3.05,-3.06,-3.06
144.87,-1.24,1.86,-1.23,1.86,-1.86,-2.16,-1.99,-3.10,-3.09,-3.10
146.32,-1.28,1.86,-1.28,1.85,-1.85,-2.18,-1.98,-3.12,-3.13,-3.14
147.78,-1.33,1.84,-1.33,1.84,-1.83,-2.19,-1.98,-3.16,-3.16,-3.17
149.26,-1.39,1.82,-1.39,1.82,-1.82,-2.21,-1.97,-3.21,-3.21,-3.21
150.75,-1.45,1.80,-1.44,1.80,-1.81,-2.23,-1.96,-3.25,-3.25,-3.25
152.26,-1.51,1.78,-1.50,1.79,-1.79,-2.24,-1.96,-3.30,-3.29,-3.29
153.78,-1.54,1.79,-1.55,1.78,-1.78,-2.26,-1.96,-3.32,-3.33,-3.33
155.32,-1.60,1.77,-1.59,1.78,-1.78,-2.27,-1.95,-3.37,-3.37,-3.37
156.88,-1.63,1.78,-1.63,1.77,-1.77,-2.28,-1.95,-3.40,-3.41,-3.41
158.44,-1.68,1.77,-1.68,1.77,-1.77,-2.30,-1.95,-3.45,-3.45,-3.45
160.03,-1.72,1.77,-1.71,1.78,-1.78,-2.31,-1.95,-3.49,-3.49,-3.49
161.63,-1.75,1.78,-1.75,1.78,-1.78,-2.32,-1.95,-3.53,-3.53,-3.53
163.24,-1.77,1.80,-1.78,1.79,-1.78,-2.33,-1.95,-3.55,-3.56,-3.57
164.88,-1.81,1.79,-1.80,1.80,-1.79,-2.34,-1.95,-3.60,-3.59,-3.60
166.53,-1.84,1.80,-1.83,1.80,-1.80,-2.35,-1.95,-3.63,-3.63,-3.64
168.19,-1.86,1.82,-1.87,1.81,-1.81,-2.36,-1.96,-3.66,-3.67,-3.68
169.87,-1.90,1.82,-1.90,1.82,-1.82,-2.36,-1.97,-3.72,-3.72,-3.72
171.57,-1.93,1.83,-1.92,1.83,-1.84,-2.37,-1.98,-3.77,-3.76,-3.76
173.29,-1.95,1.84,-1.94,1.85,-1.86,-2.38,-1.99,-3.81,-3.80,-3.79
175.02,-1.95,1.88,-1.95,1.88,-1.89,-2.38,-2.00,-3.83,-3.84,-3.83
176.77,-1.95,1.92,-1.95,1.92,-1.92,-2.39,-2.01,-3.87,-3.87,-3.87
178.54,-1.95,1.96,-1.95,1.96,-1.95,-2.39,-2.03,-3.90,-3.90,-3.91
180.32,-1.95,2.00,-1.95,2.00,-1.99,-2.40,-2.04,-3.94,-3.94,-3.95
182.13,-1.95,2.03,-1.95,2.03,-2.03,-2.40,-2.06,-3.97,-3.97,-3.98
183.95,-1.95,2.07,-1.95,2.07,-2.07,-2.40,-2.08,-4.01,-4.01,-4.02
185.79,-1.95,2.10,-1.95,2.10,-2.10,-2.40,-2.10,-4.05,-4.05,-4.05
187.65,-1.95,2.14,-1.95,2.14,-2.13,-2.40,-2.13,-4.08,-4.08,-4.09
189.52,-1.95,2.17,-1.95,2.17,-2.17,-2.41,-2.15,-4.11,-4.11,-4.12
191.42,-1.95,2.20,-1.95,2.20,-2.20,-2.41,-2.18,-4.15,-4.15,-4.15
193.33,-1.95,2.23,-1.95,2.23,-2.23,-2.41,-2.21,-4.18,-4.18,-4.18
195.27,-1.95,2.26,-1.95,2.26,-2.26,-2.40,-2.23,-4.21,-4.21,-4.21
197.22,-1.95,2.29,-1.95,2.29,-2.30,-2.40,-2.26,-4.24,-4.24,-4.24
199.19,-1.95,2.32,-1.93,2.33,-2.33,-2.40,-2.29,-4.28,-4.26,-4.27
201.18,-1.91,2.38,-1.93,2.36,-2.36,-2.40,-2.33,-4.27,-4.29,-4.29
203.19,-1.91,2.40,-1.91,2.40,-2.40,-2.40,-2.36,-4.31,-4.31,-4.31
205.23,-1.91,2.42,-1.89,2.44,-2.43,-2.39,-2.39,-4.34,-4.32,-4.33
207.28,-1.86,2.48,-1.88,2.46,-2.47,-2.39,-2.42,-4.32,-4.34,-4.34
209.35,-1.86,2.50,-1.86,2.50,-2.50,-2.38,-2.46,-4.36,-4.36,-4.36
211.44,-1.86,2.52,-1.84,2.53,-2.53,-2.38,-2.49,-4.39,-4.37,-4.38
213.56,-1.82,2.57,-1.83,2.55,-2.56,-2.37,-2.52,-4.37,-4.39,-4.39
215.69,-1.81,2.58,-1.81,2.58,-2.58,-2.37,-2.56,-4.39,-4.40,-4.39
217.85,-1.81,2.59,-1.80,2.60,-2.61,-2.36,-2.59,-4.41,-4.40,-4.40
220.03,-1.79,2.62,-1.79,2.62,-2.62,-2.35,-2.62,-4.41,-4.41,-4.41
222.23,-1.77,2.65,-1.77,2.64,-2.64,-2.35,-2.65,-4.40,-4.41,-4.42
224.45,-1.77,2.65,-1.77,2.65,-2.64,-2.34,-2.67,-4.41,-4.41,-4.42
226.70,-1.77,2.65,-1.76,2.65,-2.64,-2.33,-2.70,-4.41,-4.41,-4.42
228.96,-1.77,2.65,-1.77,2.64,-2.64,-2.32,-2.72,-4.41,-4.41,-4.42
231.25,-1.78,2.63,-1.78,2.63,-2.63,-2.31,-2.75,-4.40,-4.41,-4.41
233.57,-1.81,2.60,-1.80,2.61,-2.61,-2.30,-2.76,-4.42,-4.41,-4.41
235.90,-1.81,2.60,-1.82,2.58,-2.59,-2.29,-2.78,-4.39,-4.41,-4.41
238.26,-1.86,2.54,-1.84,2.56,-2.56,-2.28,-2.79,-4.42,-4.40,-4.40
240.64,-1.86,2.53,-1.86,2.53,-2.53,-2.27,-2.80,-4.39,-4.39,-4.39
243.05,-1.86,2.52,-1.87,2.50,-2.50,-2.26,-2.81,-4.36,-4.38,-4.38
245.48,-1.91,2.46,-1.89,2.47,-2.47,-2.25,-2.81,-4.38,-4.37,-4.37
247.93,-1.91,2.45,-1.92,2.44,-2.44,-2.24,-2.81,-4.35,-4.36,-4.36
250.41,-1.95,2.40,-1.93,2.41,-2.41,-2.23,-2.80,-4.36,-4.34,-4.35
252.92,-1.95,2.38,-1.95,2.38,-2.37,-2.22,-2.79,-4.32,-4.32,-4.33
255.45,-1.95,2.36,-1.96,2.35,-2.34,-2.20,-2.78,-4.28,-4.30,-4.31
258.00,-2.00,2.30,-1.98,2.31,-2.30,-2.19,-2.76,-4.30,-4.28,-4.30
260.58,-2.00,2.28,-2.01,2.26,-2.27,-2.18,-2.74,-4.26,-4.28,-4.28
263.19,-2.05,2.21,-2.04,2.22,-2.23,-2.16,-2.72,-4.28,-4.27,-4.26
265.82,-2.05,2.19,-2.04,2.19,-2.20,-2.15,-2.69,-4.25,-4.25,-4.24
268.48,-2.05,2.17,-2.05,2.16,-2.17,-2.14,-2.66,-4.22,-4.23,-4.22
271.16,-2.05,2.15,-2.05,2.15,-2.15,-2.12,-2.62,-4.19,-4.19,-4.20
273.87,-2.05,2.13,-2.05,2.13,-2.12,-2.11,-2.59,-4.17,-4.17,-4.18
276.61,-2.05,2.11,-2.05,2.11,-2.10,-2.09,-2.55,-4.15,-4.15,-4.16
279.38,-2.05,2.09,-2.05,2.09,-2.08,-2.08,-2.51,-4.13,-4.13,-4.14
282.17,-2.05,2.07,-2.05,2.07,-2.07,-2.06,-2.46,-4.11,-4.11,-4.12
284.99,-2.05,2.05,-2.05,2.04,-2.05,-2.05,-2.42,-4.10,-4.10,-4.10
287.84,-2.05,2.03,-2.04,2.03,-2.04,-2.03,-2.37,-4.09,-4.08,-4.08
290.72,-2.05,2.01,-2.04,2.02,-2.03,-2.02,-2.33,-4.08,-4.07,-4.06
293.63,-2.00,2.04,-2.01,2.03,-2.03,-2.00,-2.28,-4.02,-4.04,-4.04
296.57,-2.00,2.02,-1.99,2.03,-2.03,-1.99,-2.23,-4.02,-4.01,-4.02
299.53,-1.95,2.05,-1.96,2.03,-2.03,-1.97,-2.18,-3.98,-3.99,-4.00
302.53,-1.95,2.03,-1.94,2.04,-2.04,-1.96,-2.13,-3.98,-3.97,-3.98
305.55,-1.91,2.04,-1.90,2.05,-2.05,-1.94,-2.08,-3.95,-3.95,-3.95
308.61,-1.86,2.07,-1.87,2.05,-2.06,-1.92,-2.02,-3.92,-3.93,-3.93
311.69,-1.83,2.07,-1.82,2.07,-2.07,-1.91,-1.97,-3.90,-3.90,-3.90
314.81,-1.79,2.08,-1.78,2.09,-2.09,-1.89,-1.92,-3.88,-3.87,-3.87
317.96,-1.74,2.11,-1.74,2.10,-2.10,-1.87,-1.87,-3.84,-3.85,-3.85
321.14,-1.71,2.12,-1.70,2.12,-2.12,-1.86,-1.82,-3.83,-3.82,-3.83
324.35,-1.67,2.14,-1.67,2.14,-2.13,-1.84,-1.77,-3.80,-3.80,-3.81
327.59,-1.63,2.16,-1.64,2.15,-2.15,-1.82,-1.73,-3.77,-3.78,-3.79
330.87,-1.62,2.15,-1.61,2.16,-2.16,-1.81,-1.68,-3.78,-3.77,-3.77
334.18,-1.58,2.17,-1.58,2.17,-2.17,-1.79,-1.63,-3.74,-3.75,-3.75
337.52,-1.56,2.17,-1.56,2.17,-2.17,-1.77,-1.59,-3.73,-3.73,-3.73
340.90,-1.53,2.18,-1.53,2.17,-2.17,-1.76,-1.54,-3.70,-3.71,-3.71
344.30,-1.53,2.16,-1.51,2.17,-2.17,-1.74,-1.50,-3.70,-3.68,-3.69
347.75,-1.49,2.18,-1.50,2.17,-2.16,-1.72,-1.46,-3.65,-3.66,-3.67
351.23,-1.49,2.16,-1.49,2.16,-2.15,-1.70,-1.41,-3.64,-3.64,-3.65
354.74,-1.49,2.14,-1.48,2.15,-2.14,-1.69,-1.37,-3.63,-3.63,-3.63
358.28,-1.49,2.13,-1.49,2.13,-2.13,-1.67,-1.33,-3.61,-3.61,-3.62
361.87,-1.49,2.11,-1.49,2.11,-2.11,-1.65,-1.30,-3.60,-3.60,-3.60
365.49,-1.49,2.09,-1.49,2.09,-2.10,-1.63,-1.26,-3.58,-3.58,-3.58
369.14,-1.49,2.08,-1.49,2.08,-2.08,-1.62,-1.22,-3.57,-3.57,-3.57
372.83,-1.49,2.06,-1.49,2.06,-2.06,-1.60,-1.19,-3.55,-3.55,-3.55
376.56,-1.49,2.05,-1.49,2.05,-2.05,-1.58,-1.15,-3.53,-3.53,-3.54
380.33,-1.49,2.03,-1.49,2.03,-2.03,-1.56,-1.12,-3.52,-3.52,-3.52
384.13,-1.49,2.02,-1.49,2.02,-2.02,-1.55,-1.09,-3.50,-3.50,-3.51
387.97,-1.49,2.01,-1.49,2.01,-2.00,-1.53,-1.06,-3.49,-3.49,-3.50
391.85,-1.49,2.00,-1.49,2.00,-1.99,-1.51,-1.03,-3.48,-3.48,-3.49
395.77,-1.49,1.98,-1.49,1.98,-1.98,-1.50,-1.00,-3.47,-3.48,-3.47
399.73,-1.49,1.97,-1.48,1.97,-1.98,-1.48,-0.97,-3.47,-3.47,-3.46
403.72,-1.49,1.96,-1.48,1.97,-1.98,-1.46,-0.94,-3.47,-3.46,-3.45
407.76,-1.44,2.00,-1.45,1.99,-1.99,-1.44,-0.92,-3.43,-3.44,-3.44
411.84,-1.44,1.99,-1.43,2.00,-2.00,-1.43,-0.89,-3.44,-3.43,-3.43
415.96,-1.39,2.03,-1.40,2.02,-2.02,-1.41,-0.87,-3.40,-3.42,-3.42
420.12,-1.39,2.02,-1.38,2.03,-2.03,-1.39,-0.85,-3.42,-3.41,-3.41
424.32,-1.35,2.05,-1.35,2.05,-2.05,-1.37,-0.83,-3.40,-3.40,-3.40
428.56,-1.32,2.07,-1.32,2.07,-2.06,-1.36,-0.81,-3.38,-3.38,-3.39
432.85,-1.30,2.08,-1.30,2.08,-2.07,-1.34,-0.79,-3.37,-3.36,-3.38
437.18,-1.28,2.09,-1.29,2.07,-2.07,-1.32,-0.77,-3.35,-3.36,-3.37
441.55,-1.30,2.05,-1.29,2.06,-2.06,-1.30,-0.76,-3.36,-3.35,-3.35
445.96,-1.30,2.04,-1.29,2.05,-2.05,-1.28,-0.74,-3.35,-3.34,-3.34
450.42,-1.30,2.03,-1.30,2.02,-2.03,-1.27,-0.73,-3.32,-3.32,-3.33
454.93,-1.30,2.01,-1.31,2.00,-1.99,-1.25,-0.72,-3.29,-3.31,-3.31
459.48,-1.35,1.95,-1.34,1.96,-1.95,-1.23,-0.71,-3.30,-3.29,-3.30
