frequency,raw,error,smoothed,error_smoothed,equalization,parametric_eq,fixed_band_eq,equalized_raw,equalized_smoothed,target
20.00,0.19,-8.25,0.19,-8.27,8.27,8.14,2.74,8.46,8.46,8.44
20.20,0.26,-8.22,0.26,-8.23,8.23,8.10,2.82,8.49,8.49,8.48
20.40,0.34,-8.18,0.34,-8.19,8.19,8.06,2.91,8.53,8.52,8.52
20.61,0.41,-8.14,0.41,-8.14,8.14,8.01,2.99,8.55,8.55,8.55
20.81,0.48,-8.11,0.48,-8.10,8.10,7.97,3.08,8.58,8.58,8.59
21.02,0.56,-8.07,0.55,-8.05,8.05,7.93,3.17,8.61,8.60,8.63
21.23,0.63,-8.02,0.63,-8.00,8.00,7.88,3.26,8.63,8.63,8.65
21.44,0.70,-7.97,0.70,-7.95,7.95,7.84,3.36,8.65,8.65,8.67
21.66,0.78,-7.91,0.77,-7.89,7.89,7.79,3.46,8.67,8.67,8.69
21.87,0.85,-7.85,0.85,-7.84,7.84,7.74,3.56,8.69,8.69,8.70
22.09,0.92,-7.80,0.92,-7.78,7.78,7.70,3.67,8.70,8.71,8.72
22.31,0.99,-7.73,1.00,-7.73,7.73,7.65,3.77,8.72,8.72,8.72
22.54,1.07,-7.67,1.07,-7.66,7.66,7.60,3.88,8.73,8.73,8.73
22.76,1.14,-7.60,1.14,-7.60,7.60,7.55,4.00,8.74,8.74,8.74
22.99,1.22,-7.52,1.22,-7.54,7.54,7.50,4.11,8.75,8.75,8.74
23.22,1.29,-7.46,1.29,-7.47,7.47,7.45,4.23,8.76,8.76,8.75
23.45,1.37,-7.39,1.36,-7.40,7.40,7.40,4.35,8.77,8.77,8.76
23.69,1.44,-7.33,1.44,-7.34,7.34,7.35,4.48,8.78,8.78,8.77
23.92,1.52,-7.26,1.51,-7.27,7.27,7.30,4.60,8.79,8.79,8.78
24.16,1.59,-7.21,1.59,-7.21,7.21,7.25,4.73,8.80,8.80,8.80
24.40,1.66,-7.16,1.66,-7.14,7.14,7.20,4.86,8.80,8.81,8.82
24.65,1.74,-7.08,1.74,-7.08,7.08,7.14,5.00,8.82,8.81,8.82
24.89,1.81,-7.02,1.81,-7.01,7.01,7.09,5.13,8.82,8.82,8.83
25.14,1.88,-6.95,1.89,-6.95,6.95,7.04,5.27,8.83,8.83,8.83
25.39,1.96,-6.88,1.96,-6.88,6.88,6.99,5.41,8.85,8.85,8.84
25.65,2.04,-6.82,2.04,-6.82,6.82,6.93,5.55,8.86,8.86,8.86
25.91,2.11,-6.75,2.11,-6.76,6.76,6.88,5.69,8.86,8.87,8.86
26.16,2.19,-6.68,2.18,-6.69,6.69,6.82,5.82,8.88,8.88,8.87
26.43,2.26,-6.62,2.26,-6.63,6.63,6.77,5.96,8.88,8.88,8.88
26.69,2.33,-6.56,2.33,-6.56,6.56,6.71,6.10,8.89,8.89,8.89
26.96,2.41,-6.50,2.41,-6.49,6.49,6.66,6.24,8.90,8.90,8.91
27.23,2.48,-6.44,2.48,-6.43,6.43,6.60,6.37,8.91,8.91,8.91
27.50,2.56,-6.36,2.56,-6.36,6.36,6.55,6.50,8.92,8.92,8.92
27.77,2.63,-6.29,2.63,-6.30,6.30,6.49,6.63,8.93,8.93,8.92
28.05,2.70,-6.24,2.70,-6.23,6.23,6.43,6.75,8.93,8.93,8.94
28.33,2.78,-6.16,2.78,-6.17,6.17,6.38,6.86,8.95,8.94,8.94
28.62,2.85,-6.10,2.85,-6.10,6.10,6.32,6.97,8.95,8.95,8.95
28.90,2.92,-6.04,2.92,-6.03,6.03,6.26,7.06,8.95,8.96,8.96
29.19,3.00,-5.95,3.00,-5.97,5.97,6.21,7.15,8.97,8.96,8.95
29.48,3.07,-5.91,3.07,-5.90,5.90,6.15,7.23,8.97,8.97,8.98
29.78,3.14,-5.84,3.14,-5.84,5.84,6.09,7.30,8.98,8.98,8.98
30.08,3.21,-5.78,3.21,-5.77,5.77,6.03,7.36,8.98,8.98,8.99
30.38,3.28,-5.71,3.28,-5.71,5.71,5.97,7.41,8.99,8.99,8.99
30.68,3.35,-5.65,3.35,-5.65,5.65,5.92,7.44,9.00,9.00,9.00
30.99,3.43,-5.57,3.42,-5.59,5.59,5.86,7.46,9.02,9.00,9.00
31.30,3.49,-5.52,3.48,-5.53,5.53,5.80,7.47,9.02,9.01,9.01
31.61,3.55,-5.47,3.55,-5.47,5.47,5.74,7.46,9.02,9.02,9.02
31.93,3.62,-5.41,3.62,-5.41,5.41,5.68,7.44,9.03,9.02,9.02
32.24,3.68,-5.34,3.68,-5.35,5.35,5.62,7.41,9.03,9.03,9.02
32.57,3.74,-5.30,3.75,-5.29,5.29,5.57,7.36,9.03,9.04,9.04
32.89,3.81,-5.24,3.81,-5.23,5.23,5.51,7.30,9.04,9.04,9.05
33.22,3.87,-5.18,3.87,-5.18,5.18,5.45,7.24,9.05,9.05,9.05
33.55,3.94,-5.12,3.94,-5.12,5.12,5.39,7.16,9.06,9.06,9.06
33.89,4.00,-5.07,4.00,-5.06,5.06,5.33,7.07,9.06,9.06,9.07
34.23,4.06,-5.01,4.06,-5.01,5.01,5.27,6.98,9.07,9.07,9.07
34.57,4.12,-4.96,4.12,-4.95,4.95,5.21,6.87,9.07,9.07,9.08
34.92,4.19,-4.89,4.19,-4.89,4.89,5.16,6.76,9.08,9.08,9.08
35.27,4.25,-4.83,4.25,-4.84,4.84,5.10,6.65,9.08,9.08,9.08
35.62,4.31,-4.78,4.31,-4.78,4.78,5.04,6.53,9.09,9.09,9.09
35.97,4.38,-4.70,4.37,-4.72,4.72,4.98,6.41,9.10,9.09,9.08
36.33,4.43,-4.66,4.43,-4.66,4.66,4.92,6.28,9.09,9.09,9.09
36.70,4.49,-4.60,4.49,-4.60,4.60,4.86,6.16,9.09,9.09,9.08
37.06,4.55,-4.54,4.55,-4.54,4.54,4.80,6.03,9.09,9.09,9.09
37.43,4.61,-4.49,4.61,-4.48,4.48,4.74,5.90,9.09,9.09,9.10
37.81,4.66,-4.43,4.67,-4.42,4.42,4.68,5.77,9.08,9.08,9.09
38.19,4.72,-4.37,4.73,-4.35,4.35,4.63,5.64,9.07,9.08,9.09
38.57,4.78,-4.30,4.79,-4.29,4.29,4.57,5.51,9.07,9.08,9.08
38.95,4.84,-4.23,4.85,-4.23,4.23,4.51,5.38,9.07,9.08,9.07
39.34,4.91,-4.16,4.91,-4.17,4.17,4.45,5.26,9.08,9.07,9.07
39.74,4.97,-4.09,4.97,-4.10,4.10,4.39,5.14,9.07,9.07,9.06
40.14,5.03,-4.04,5.03,-4.04,4.04,4.33,5.01,9.07,9.07,9.07
40.54,5.09,-3.97,5.08,-3.98,3.98,4.28,4.90,9.07,9.06,9.06
40.94,5.14,-3.91,5.14,-3.92,3.92,4.22,4.78,9.06,9.06,9.05
41.35,5.20,-3.85,5.20,-3.86,3.86,4.16,4.67,9.06,9.05,9.05
41.76,5.26,-3.79,5.25,-3.80,3.80,4.10,4.56,9.06,9.05,9.05
42.18,5.31,-3.74,5.31,-3.74,3.74,4.04,4.45,9.05,9.04,9.05
42.60,5.36,-3.68,5.36,-3.68,3.68,3.98,4.35,9.04,9.04,9.04
43.03,5.41,-3.64,5.41,-3.63,3.63,3.93,4.24,9.04,9.03,9.05
43.46,5.46,-3.58,5.46,-3.57,3.57,3.87,4.15,9.03,9.03,9.04
43.90,5.50,-3.52,5.50,-3.52,3.52,3.81,4.05,9.02,9.03,9.02
44.33,5.55,-3.47,5.55,-3.47,3.47,3.75,3.96,9.02,9.02,9.02
44.78,5.60,-3.41,5.60,-3.42,3.42,3.70,3.87,9.02,9.02,9.01
45.23,5.64,-3.36,5.64,-3.37,3.37,3.64,3.79,9.01,9.01,9.00
45.68,5.68,-3.32,5.68,-3.32,3.32,3.58,3.70,9.00,9.01,9.00
46.13,5.72,-3.27,5.73,-3.27,3.27,3.53,3.62,8.99,9.00,8.99
46.60,5.77,-3.23,5.77,-3.22,3.22,3.47,3.55,8.99,8.99,9.00
47.06,5.81,-3.18,5.81,-3.17,3.17,3.41,3.47,8.98,8.98,8.99
47.53,5.85,-3.13,5.85,-3.12,3.12,3.36,3.40,8.97,8.97,8.98
48.01,5.89,-3.09,5.89,-3.07,3.07,3.30,3.33,8.96,8.96,8.98
48.49,5.93,-3.03,5.93,-3.02,3.02,3.24,3.27,8.95,8.95,8.96
48.97,5.97,-2.97,5.97,-2.97,2.97,3.19,3.20,8.94,8.94,8.94
49.46,6.00,-2.93,6.00,-2.92,2.92,3.13,3.14,8.92,8.93,8.93
49.96,6.04,-2.86,6.04,-2.88,2.88,3.07,3.08,8.92,8.91,8.90
50.46,6.07,-2.83,6.07,-2.83,2.83,3.02,3.03,8.90,8.90,8.90
50.96,6.11,-2.77,6.10,-2.78,2.78,2.96,2.97,8.89,8.88,8.88
51.47,6.13,-2.72,6.13,-2.73,2.73,2.91,2.92,8.86,8.86,8.85
51.99,6.15,-2.68,6.16,-2.68,2.68,2.85,2.87,8.83,8.84,8.83
52.51,6.18,-2.65,6.18,-2.64,2.64,2.80,2.82,8.82,8.82,8.82
53.03,6.21,-2.59,6.20,-2.59,2.59,2.74,2.77,8.80,8.80,8.80
53.56,6.23,-2.55,6.22,-2.55,2.55,2.69,2.72,8.78,8.77,8.78
54.10,6.24,-2.51,6.24,-2.51,2.51,2.63,2.68,8.75,8.75,8.75
54.64,6.26,-2.47,6.26,-2.47,2.47,2.58,2.63,8.73,8.73,8.73
55.18,6.28,-2.42,6.28,-2.43,2.43,2.52,2.59,8.71,8.71,8.70
55.74,6.29,-2.38,6.29,-2.39,2.39,2.47,2.55,8.68,8.68,8.67
56.29,6.31,-2.35,6.30,-2.36,2.36,2.41,2.50,8.66,8.66,8.66
56.86,6.32,-2.31,6.32,-2.32,2.32,2.36,2.46,8.64,8.63,8.63
57.42,6.32,-2.28,6.33,-2.28,2.28,2.30,2.42,8.60,8.61,8.60
58.00,6.33,-2.25,6.33,-2.25,2.25,2.25,2.37,8.58,8.58,8.58
58.58,6.34,-2.21,6.34,-2.21,2.21,2.20,2.33,8.55,8.55,8.55
59.16,6.34,-2.19,6.34,-2.18,2.18,2.14,2.28,8.52,8.52,8.53
59.76,6.35,-2.15,6.35,-2.14,2.14,2.09,2.24,8.49,8.49,8.50
60.35,6.35,-2.12,6.35,-2.11,2.11,2.03,2.19,8.46,8.45,8.47
60.96,6.36,-2.07,6.35,-2.07,2.07,1.98,2.15,8.43,8.42,8.43
61.57,6.35,-2.03,6.35,-2.03,2.03,1.93,2.10,8.38,8.38,8.38
62.18,6.35,-1.98,6.34,-2.00,2.00,1.87,2.05,8.35,8.34,8.33
62.80,6.34,-1.96,6.34,-1.96,1.96,1.82,2.00,8.30,8.30,8.30
63.43,6.34,-1.91,6.34,-1.92,1.92,1.77,1.95,8.26,8.26,8.25
64.07,6.33,-1.88,6.34,-1.88,1.88,1.71,1.90,8.21,8.22,8.21
64.71,6.33,-1.84,6.34,-1.84,1.84,1.66,1.85,8.17,8.18,8.17
65.35,6.33,-1.80,6.34,-1.80,1.80,1.61,1.79,8.13,8.13,8.13
66.01,6.33,-1.76,6.33,-1.75,1.75,1.56,1.74,8.08,8.09,8.09
66.67,6.33,-1.72,6.33,-1.71,1.71,1.50,1.68,8.04,8.04,8.05
67.33,6.33,-1.68,6.33,-1.67,1.67,1.45,1.62,8.00,8.00,8.01
68.01,6.33,-1.63,6.33,-1.63,1.63,1.40,1.57,7.95,7.95,7.96
68.69,6.33,-1.58,6.33,-1.58,1.58,1.34,1.51,7.91,7.91,7.91
69.37,6.33,-1.53,6.32,-1.54,1.54,1.29,1.45,7.87,7.86,7.86
70.07,6.33,-1.48,6.32,-1.50,1.50,1.24,1.38,7.83,7.82,7.81
70.77,6.33,-1.44,6.32,-1.45,1.45,1.19,1.32,7.78,7.77,7.77
71.48,6.33,-1.40,6.32,-1.41,1.41,1.13,1.26,7.74,7.73,7.73
72.19,6.33,-1.35,6.32,-1.37,1.37,1.08,1.19,7.70,7.68,7.68
72.91,6.31,-1.33,6.32,-1.32,1.32,1.03,1.13,7.63,7.64,7.64
73.64,6.31,-1.28,6.32,-1.28,1.28,0.98,1.07,7.59,7.60,7.59
74.38,6.31,-1.25,6.32,-1.24,1.24,0.93,1.00,7.55,7.55,7.56
75.12,6.31,-1.20,6.32,-1.20,1.20,0.87,0.93,7.51,7.51,7.51
75.87,6.32,-1.16,6.32,-1.15,1.15,0.82,0.87,7.47,7.48,7.47
76.63,6.33,-1.11,6.33,-1.11,1.11,0.77,0.80,7.44,7.44,7.44
77.40,6.35,-1.05,6.34,-1.06,1.06,0.72,0.74,7.41,7.40,7.40
78.17,6.36,-1.00,6.35,-1.01,1.01,0.66,0.67,7.37,7.36,7.36
78.95,6.37,-0.96,6.37,-0.96,0.96,0.61,0.60,7.32,7.33,7.33
79.74,6.38,-0.91,6.39,-0.90,0.90,0.56,0.53,7.28,7.29,7.29
80.54,6.41,-0.85,6.42,-0.84,0.84,0.51,0.47,7.25,7.26,7.26
81.35,6.44,-0.79,6.45,-0.78,0.78,0.45,0.40,7.22,7.23,7.23
82.16,6.48,-0.71,6.48,-0.71,0.71,0.40,0.33,7.19,7.19,7.19
82.98,6.52,-0.65,6.52,-0.64,0.64,0.35,0.26,7.16,7.16,7.17
83.81,6.56,-0.57,6.56,-0.57,0.57,0.30,0.20,7.13,7.13,7.13
84.65,6.60,-0.49,6.60,-0.50,0.50,0.24,0.13,7.10,7.10,7.09
85.50,6.64,-0.44,6.65,-0.42,0.42,0.19,0.06,7.06,7.07,7.08
86.35,6.69,-0.36,6.70,-0.35,0.35,0.14,-0.01,7.04,7.05,7.05
87.22,6.75,-0.27,6.75,-0.27,0.27,0.08,-0.08,7.02,7.02,7.02
88.09,6.81,-0.18,6.80,-0.19,0.19,0.03,-0.15,7.00,6.99,6.99
88.97,6.86,-0.11,6.86,-0.11,0.11,-0.02,-0.21,6.96,6.96,6.97
89.86,6.91,-0.03,6.91,-0.02,0.02,-0.08,-0.28,6.93,6.94,6.94
90.76,6.97,0.07,6.96,0.06,-0.06,-0.13,-0.35,6.91,6.91,6.90
91.66,7.01,0.13,7.01,0.13,-0.13,-0.18,-0.42,6.88,6.88,6.88
92.58,7.06,0.22,7.06,0.21,-0.21,-0.24,-0.49,6.85,6.85,6.84
93.51,7.11,0.28,7.11,0.28,-0.28,-0.29,-0.56,6.82,6.82,6.83
94.44,7.15,0.35,7.15,0.36,-0.36,-0.34,-0.63,6.79,6.79,6.79
95.39,7.20,0.43,7.18,0.42,-0.42,-0.40,-0.70,6.78,6.76,6.77
96.34,7.23,0.51,7.21,0.49,-0.49,-0.45,-0.77,6.74,6.72,6.72
97.30,7.26,0.57,7.24,0.54,-0.54,-0.51,-0.84,6.71,6.69,6.69
98.28,7.27,0.62,7.26,0.60,-0.60,-0.56,-0.91,6.67,6.66,6.65
99.26,7.29,0.67,7.27,0.65,-0.65,-0.62,-0.98,6.63,6.62,6.61
100.25,7.30,0.72,7.29,0.71,-0.71,-0.67,-1.06,6.59,6.58,6.58
101.25,7.31,0.77,7.30,0.76,-0.76,-0.73,-1.13,6.55,6.54,6.54
102.27,7.31,0.82,7.31,0.81,-0.81,-0.78,-1.20,6.50,6.49,6.49
103.29,7.31,0.86,7.32,0.87,-0.87,-0.84,-1.27,6.44,6.45,6.44
104.32,7.31,0.90,7.33,0.93,-0.93,-0.89,-1.34,6.38,6.40,6.41
105.37,7.31,0.95,7.34,0.99,-0.99,-0.95,-1.40,6.32,6.35,6.36
106.42,7.33,1.03,7.36,1.06,-1.06,-1.00,-1.47,6.27,6.30,6.30
107.48,7.35,1.10,7.38,1.13,-1.13,-1.06,-1.54,6.22,6.24,6.25
108.56,7.38,1.19,7.40,1.21,-1.21,-1.12,-1.61,6.17,6.19,6.19
109.64,7.41,1.28,7.43,1.30,-1.30,-1.17,-1.67,6.11,6.13,6.13
110.74,7.45,1.38,7.45,1.39,-1.39,-1.23,-1.73,6.06,6.06,6.07
111.85,7.49,1.49,7.48,1.48,-1.48,-1.28,-1.80,6.01,6.00,6.00
112.97,7.52,1.59,7.51,1.58,-1.58,-1.34,-1.86,5.94,5.93,5.93
114.10,7.55,1.68,7.54,1.67,-1.67,-1.40,-1.91,5.88,5.86,5.87
115.24,7.58,1.78,7.56,1.77,-1.77,-1.45,-1.97,5.81,5.80,5.79
116.39,7.60,1.88,7.59,1.86,-1.86,-1.51,-2.02,5.74,5.73,5.72
117.55,7.62,1.97,7.61,1.95,-1.95,-1.57,-2.08,5.66,5.66,5.65
118.73,7.64,2.06,7.63,2.04,-2.04,-1.63,-2.12,5.60,5.59,5.58
119.92,7.65,2.13,7.64,2.12,-2.12,-1.68,-2.17,5.53,5.52,5.52
121.12,7.65,2.20,7.65,2.20,-2.20,-1.74,-2.21,5.45,5.46,5.45
122.33,7.65,2.26,7.66,2.27,-2.27,-1.80,-2.25,5.38,5.39,5.39
123.55,7.66,2.33,7.66,2.33,-2.33,-1.86,-2.29,5.33,5.33,5.33
124.79,7.65,2.38,7.65,2.38,-2.38,-1.91,-2.33,5.27,5.27,5.27
126.03,7.65,2.44,7.64,2.43,-2.43,-1.97,-2.36,5.22,5.21,5.21
127.29,7.64,2.49,7.62,2.48,-2.48,-2.03,-2.39,5.16,5.15,5.15
128.57,7.62,2.54,7.60,2.52,-2.52,-2.09,-2.41,5.10,5.09,5.08
129.85,7.59,2.56,7.58,2.55,-2.55,-2.15,-2.43,5.04,5.03,5.03
131.15,7.56,2.59,7.56,2.58,-2.58,-2.20,-2.46,4.98,4.98,4.97
132.46,7.54,2.61,7.53,2.60,-2.60,-2.26,-2.47,4.94,4.93,4.92
133.79,7.50,2.62,7.50,2.62,-2.62,-2.32,-2.49,4.88,4.87,4.88
135.12,7.46,2.64,7.46,2.64,-2.64,-2.38,-2.50,4.82,4.82,4.82
136.48,7.44,2.66,7.43,2.66,-2.66,-2.43,-2.51,4.78,4.77,4.78
137.84,7.40,2.68,7.40,2.68,-2.68,-2.49,-2.53,4.72,4.73,4.72
139.22,7.37,2.70,7.38,2.70,-2.70,-2.55,-2.53,4.67,4.68,4.67
140.61,7.34,2.72,7.35,2.72,-2.72,-2.60,-2.54,4.62,4.63,4.62
142.02,7.31,2.72,7.33,2.75,-2.75,-2.66,-2.55,4.56,4.59,4.59
143.44,7.30,2.75,7.32,2.78,-2.78,-2.72,-2.56,4.52,4.54,4.55
144.87,7.28,2.78,7.30,2.81,-2.81,-2.77,-2.56,4.47,4.49,4.50
146.32,7.28,2.83,7.29,2.85,-2.85,-2.83,-2.57,4.43,4.45,4.45
147.78,7.29,2.88,7.29,2.89,-2.89,-2.88,-2.57,4.40,4.40,4.41
149.26,7.29,2.92,7.29,2.94,-2.94,-2.94,-2.58,4.35,4.35,4.37
150.75,7.30,3.00,7.29,2.99,-2.99,-2.99,-2.59,4.31,4.30,4.30
152.26,7.30,3.04,7.30,3.04,-3.04,-3.05,-2.59,4.26,4.26,4.26
153.78,7.30,3.09,7.30,3.10,-3.10,-3.10,-2.60,4.20,4.21,4.21
155.32,7.30,3.15,7.31,3.15,-3.15,-3.15,-2.61,4.15,4.16,4.15
156.88,7.31,3.20,7.31,3.21,-3.21,-3.20,-2.62,4.10,4.11,4.11
158.44,7.32,3.26,7.32,3.26,-3.26,-3.26,-2.64,4.06,4.05,4.06
160.03,7.32,3.32,7.31,3.31,-3.31,-3.31,-2.65,4.01,4.00,4.00
161.63,7.33,3.39,7.31,3.36,-3.36,-3.36,-2.67,3.97,3.95,3.94
163.24,7.32,3.43,7.30,3.40,-3.40,-3.40,-2.68,3.92,3.90,3.89
164.88,7.31,3.46,7.29,3.45,-3.45,-3.45,-2.70,3.86,3.84,3.85
166.53,7.29,3.50,7.27,3.49,-3.49,-3.50,-2.72,3.80,3.79,3.79
168.19,7.27,3.53,7.26,3.52,-3.52,-3.54,-2.75,3.75,3.73,3.73
169.87,7.23,3.55,7.24,3.56,-3.56,-3.59,-2.77,3.67,3.68,3.68
171.57,7.21,3.58,7.21,3.59,-3.59,-3.63,-2.80,3.62,3.62,3.63
173.29,7.18,3.61,7.18,3.62,-3.62,-3.67,-2.83,3.56,3.56,3.57
175.02,7.14,3.62,7.15,3.65,-3.65,-3.71,-2.86,3.49,3.50,3.51
176.77,7.11,3.66,7.12,3.68,-3.68,-3.75,-2.90,3.43,3.45,3.44
178.54,7.09,3.70,7.09,3.71,-3.71,-3.79,-2.94,3.38,3.39,3.39
180.32,7.07,3.74,7.06,3.74,-3.74,-3.83,-2.98,3.33,3.33,3.33
182.13,7.04,3.77,7.03,3.77,-3.77,-3.86,-3.02,3.27,3.26,3.27
183.95,7.00,3.80,7.00,3.80,-3.80,-3.90,-3.06,3.20,3.20,3.20
185.79,6.96,3.81,6.97,3.83,-3.83,-3.93,-3.11,3.13,3.14,3.15
187.65,6.94,3.87,6.94,3.86,-3.86,-3.96,-3.16,3.08,3.08,3.07
189.52,6.91,3.89,6.91,3.89,-3.89,-3.99,-3.21,3.02,3.02,3.02
191.42,6.88,3.92,6.89,3.92,-3.92,-4.02,-3.26,2.96,2.96,2.96
193.33,6.86,3.95,6.86,3.95,-3.95,-4.04,-3.31,2.91,2.91,2.91
195.27,6.83,3.97,6.83,3.98,-3.98,-4.06,-3.37,2.85,2.85,2.86
197.22,6.80,4.00,6.80,4.01,-4.01,-4.09,-3.43,2.79,2.80,2.79
199.19,6.78,4.05,6.77,4.03,-4.03,-4.10,-3.49,2.75,2.74,2.73
201.18,6.75,4.07,6.74,4.05,-4.05,-4.12,-3.55,2.69,2.69,2.68
203.19,6.73,4.09,6.72,4.08,-4.08,-4.14,-3.61,2.65,2.64,2.64
205.23,6.70,4.11,6.69,4.10,-4.10,-4.15,-3.67,2.60,2.59,2.58
207.28,6.66,4.10,6.67,4.12,-4.12,-4.16,-3.73,2.53,2.54,2.56
209.35,6.63,4.13,6.64,4.14,-4.14,-4.17,-3.80,2.49,2.50,2.50
211.44,6.60,4.16,6.61,4.16,-4.16,-4.18,-3.86,2.44,2.45,2.44
213.56,6.57,4.16,6.58,4.17,-4.17,-4.19,-3.92,2.39,2.41,2.40
215.69,6.54,4.16,6.55,4.18,-4.18,-4.19,-3.98,2.35,2.37,2.38
217.85,6.52,4.19,6.52,4.19,-4.19,-4.19,-4.04,2.33,2.33,2.33
220.03,6.51,4.22,6.49,4.20,-4.20,-4.19,-4.10,2.31,2.29,2.29
222.23,6.48,4.23,6.46,4.20,-4.20,-4.19,-4.16,2.28,2.26,2.25
224.45,6.45,4.22,6.43,4.20,-4.20,-4.18,-4.21,2.25,2.23,2.23
226.70,6.41,4.20,6.39,4.19,-4.19,-4.18,-4.26,2.22,2.20,2.21
228.96,6.36,4.19,6.36,4.18,-4.18,-4.17,-4.30,2.18,2.18,2.17
231.25,6.33,4.17,6.33,4.17,-4.17,-4.16,-4.35,2.16,2.15,2.16
233.57,6.29,4.15,6.29,4.16,-4.16,-4.15,-4.38,2.13,2.14,2.14
235.90,6.24,4.12,6.26,4.14,-4.14,-4.13,-4.42,2.10,2.12,2.12
238.26,6.22,4.11,6.23,4.12,-4.12,-4.12,-4.44,2.10,2.11,2.10
240.64,6.19,4.10,6.20,4.10,-4.10,-4.10,-4.47,2.09,2.10,2.09
243.05,6.17,4.08,6.17,4.08,-4.08,-4.08,-4.48,2.09,2.09,2.09
245.48,6.14,4.06,6.14,4.05,-4.05,-4.06,-4.49,2.09,2.09,2.08
247.93,6.10,4.02,6.11,4.03,-4.03,-4.04,-4.49,2.07,2.08,2.08
250.41,6.08,4.01,6.09,4.00,-4.00,-4.01,-4.49,2.08,2.08,2.07
252.92,6.06,3.97,6.06,3.98,-3.98,-3.98,-4.48,2.08,2.08,2.08
255.45,6.04,3.94,6.04,3.95,-3.95,-3.96,-4.47,2.09,2.09,2.10
258.00,6.03,3.93,6.02,3.93,-3.93,-3.93,-4.44,2.10,2.10,2.10
260.58,6.00,3.90,6.00,3.90,-3.90,-3.90,-4.42,2.10,2.10,2.10
263.19,5.98,3.87,5.98,3.87,-3.87,-3.87,-4.38,2.11,2.11,2.11
265.82,5.95,3.84,5.96,3.84,-3.84,-3.84,-4.34,2.11,2.12,2.11
268.48,5.93,3.79,5.93,3.80,-3.80,-3.80,-4.30,2.13,2.13,2.14
271.16,5.92,3.77,5.91,3.76,-3.76,-3.77,-4.25,2.16,2.14,2.15
273.87,5.89,3.74,5.88,3.72,-3.72,-3.73,-4.19,2.17,2.16,2.15
276.61,5.87,3.69,5.85,3.68,-3.68,-3.69,-4.13,2.19,2.17,2.18
279.38,5.84,3.66,5.81,3.63,-3.63,-3.66,-4.07,2.21,2.18,2.18
282.17,5.80,3.61,5.78,3.59,-3.59,-3.62,-4.01,2.21,2.19,2.19
284.99,5.76,3.55,5.74,3.54,-3.54,-3.58,-3.94,2.22,2.20,2.21
287.84,5.70,3.49,5.71,3.49,-3.49,-3.54,-3.87,2.21,2.22,2.21
290.72,5.65,3.42,5.67,3.44,-3.44,-3.50,-3.80,2.21,2.23,2.23
293.63,5.61,3.37,5.63,3.39,-3.39,-3.45,-3.72,2.22,2.24,2.24
296.57,5.57,3.31,5.59,3.34,-3.34,-3.41,-3.65,2.23,2.25,2.26
299.53,5.54,3.28,5.55,3.29,-3.29,-3.37,-3.57,2.25,2.27,2.26
302.53,5.51,3.24,5.51,3.24,-3.24,-3.32,-3.50,2.27,2.28,2.27
305.55,5.48,3.19,5.48,3.19,-3.19,-3.28,-3.42,2.29,2.29,2.29
308.61,5.45,3.15,5.44,3.14,-3.14,-3.24,-3.35,2.31,2.30,2.30
311.69,5.41,3.10,5.40,3.09,-3.09,-3.19,-3.27,2.32,2.31,2.30
314.81,5.37,3.04,5.36,3.05,-3.05,-3.15,-3.20,2.32,2.32,2.33
317.96,5.33,3.00,5.33,3.00,-3.00,-3.10,-3.13,2.33,2.32,2.33
321.14,5.29,2.96,5.29,2.96,-2.96,-3.06,-3.06,2.33,2.33,2.33
324.35,5.25,2.92,5.25,2.92,-2.92,-3.01,-2.99,2.33,2.34,2.33
327.59,5.21,2.86,5.21,2.87,-2.87,-2.96,-2.92,2.34,2.34,2.35
330.87,5.18,2.84,5.17,2.83,-2.83,-2.92,-2.85,2.35,2.34,2.34
334.18,5.13,2.79,5.13,2.78,-2.78,-2.87,-2.78,2.35,2.35,2.34
337.52,5.09,2.74,5.08,2.74,-2.74,-2.83,-2.72,2.35,2.35,2.35
340.90,5.04,2.69,5.04,2.69,-2.69,-2.78,-2.66,2.35,2.35,2.35
344.30,4.99,2.64,4.99,2.64,-2.64,-2.73,-2.60,2.34,2.35,2.35
347.75,4.95,2.60,4.94,2.60,-2.60,-2.69,-2.54,2.35,2.35,2.35
351.23,4.90,2.55,4.90,2.56,-2.56,-2.64,-2.48,2.34,2.34,2.35
354.74,4.86,2.52,4.85,2.51,-2.51,-2.59,-2.43,2.35,2.34,2.34
358.28,4.81,2.48,4.81,2.47,-2.47,-2.55,-2.38,2.34,2.33,2.33
361.87,4.76,2.43,4.76,2.43,-2.43,-2.50,-2.33,2.33,2.33,2.33
365.49,4.72,2.39,4.72,2.39,-2.39,-2.46,-2.28,2.33,2.32,2.33
369.14,4.67,2.36,4.67,2.36,-2.36,-2.41,-2.23,2.31,2.32,2.31
372.83,4.62,2.31,4.63,2.32,-2.32,-2.37,-2.19,2.29,2.31,2.31
376.56,4.57,2.27,4.59,2.29,-2.29,-2.32,-2.15,2.28,2.30,2.30
380.33,4.54,2.24,4.56,2.26,-2.26,-2.27,-2.11,2.28,2.29,2.30
384.13,4.52,2.23,4.52,2.23,-2.23,-2.23,-2.07,2.29,2.29,2.29
387.97,4.49,2.22,4.48,2.20,-2.20,-2.18,-2.03,2.29,2.28,2.27
391.85,4.45,2.19,4.45,2.18,-2.18,-2.14,-1.99,2.27,2.27,2.26
395.77,4.41,2.14,4.41,2.15,-2.15,-2.10,-1.96,2.26,2.26,2.27
399.73,4.38,2.12,4.38,2.12,-2.12,-2.05,-1.92,2.26,2.26,2.26
403.72,4.35,2.10,4.34,2.09,-2.09,-2.01,-1.89,2.26,2.25,2.25
407.76,4.31,2.07,4.30,2.06,-2.06,-1.96,-1.86,2.25,2.24,2.24
411.84,4.26,2.01,4.26,2.02,-2.02,-1.92,-1.83,2.24,2.24,2.25
415.96,4.22,1.99,4.21,1.98,-1.98,-1.88,-1.80,2.24,2.23,2.23
420.12,4.18,1.95,4.17,1.94,-1.94,-1.84,-1.78,2.24,2.23,2.23
424.32,4.13,1.90,4.12,1.89,-1.89,-1.79,-1.75,2.24,2.23,2.23
428.56,4.08,1.86,4.07,1.85,-1.85,-1.75,-1.72,2.23,2.22,2.22
432.85,4.03,1.81,4.02,1.80,-1.80,-1.71,-1.70,2.23,2.22,2.22
437.18,3.97,1.75,3.97,1.75,-1.75,-1.67,-1.67,2.22,2.22,2.22
441.55,3.91,1.68,3.91,1.69,-1.69,-1.62,-1.65,2.21,2.22,2.23
445.96,3.85,1.62,3.86,1.64,-1.64,-1.58,-1.62,2.21,2.22,2.23
450.42,3.78,1.56,3.81,1.58,-1.58,-1.54,-1.60,2.20,2.22,2.21
454.93,3.74,1.52,3.75,1.53,-1.53,-1.50,-1.57,2.21,2.23,2.22
459.48,3.70,1.48,3.70,1.47,-1.47,-1.46,-1.54,2.23,2.23,2.22
464.07,3.66,1.43,3.64,1.41,-1.41,-1.42,-1.52,2.25,2.23,2.23
468.71,3.61,1.37,3.59,1.35,-1.35,-1.38,-1.49,2.26,2.24,2.24
473.40,3.54,1.30,3.53,1.29,-1.29,-1.34,-1.46,2.25,2.24,2.24
478.13,3.49,1.24,3.48,1.23,-1.23,-1.30,-1.43,2.26,2.25,2.25
482.91,3.44,1.19,3.43,1.18,-1.18,-1.26,-1.40,2.26,2.25,2.25
487.74,3.39,1.13,3.38,1.13,-1.13,-1.22,-1.37,2.26,2.26,2.26
492.62,3.34,1.07,3.34,1.08,-1.08,-1.18,-1.34,2.26,2.26,2.27
497.55,3.29,1.02,3.30,1.03,-1.03,-1.15,-1.31,2.26,2.27,2.27
502.52,3.24,0.96,3.26,0.99,-0.99,-1.11,-1.28,2.25,2.27,2.28
507.55,3.20,0.92,3.22,0.95,-0.95,-1.07,-1.24,2.25,2.27,2.28
512.62,3.16,0.88,3.19,0.91,-0.91,-1.03,-1.20,2.25,2.28,2.27
517.75,3.14,0.85,3.16,0.88,-0.88,-0.99,-1.17,2.26,2.28,2.28
522.93,3.13,0.85,3.13,0.85,-0.85,-0.95,-1.13,2.28,2.28,2.28
528.16,3.12,0.84,3.11,0.83,-0.83,-0.92,-1.09,2.29,2.28,2.28
533.44,3.11,0.83,3.09,0.81,-0.81,-0.88,-1.05,2.30,2.28,2.28
538.77,3.08,0.80,3.08,0.79,-0.79,-0.84,-1.00,2.29,2.28,2.28
544.16,3.06,0.78,3.06,0.78,-0.78,-0.80,-0.96,2.28,2.28,2.28
549.60,3.04,0.76,3.04,0.76,-0.76,-0.77,-0.91,2.28,2.28,2.28
555.10,3.03,0.76,3.02,0.75,-0.75,-0.73,-0.87,2.28,2.27,2.27
560.65,3.01,0.74,3.00,0.73,-0.73,-0.69,-0.82,2.28,2.27,2.27
