frequency,raw,error,smoothed,error_smoothed,equalization,parametric_eq,fixed_band_eq,equalized_raw,equalized_smoothed,target
20.00,1.79,-6.91,1.79,-6.91,6.91,6.22,2.87,8.70,8.70,8.70
20.20,1.81,-6.87,1.81,-6.87,6.87,6.26,2.95,8.68,8.68,8.69
20.40,1.83,-6.84,1.83,-6.84,6.84,6.30,3.03,8.67,8.67,8.67
20.61,1.85,-6.81,1.85,-6.81,6.81,6.34,3.12,8.66,8.66,8.66
20.81,1.87,-6.77,1.87,-6.78,6.78,6.37,3.20,8.65,8.65,8.64
21.02,1.89,-6.74,1.89,-6.75,6.75,6.40,3.30,8.64,8.64,8.63
21.23,1.91,-6.71,1.91,-6.72,6.72,6.43,3.39,8.63,8.63,8.62
21.44,1.93,-6.70,1.93,-6.69,6.69,6.46,3.49,8.62,8.62,8.63
21.66,1.94,-6.67,1.94,-6.66,6.66,6.48,3.58,8.60,8.61,8.61
21.87,1.96,-6.65,1.96,-6.64,6.64,6.50,3.69,8.60,8.60,8.61
22.09,1.98,-6.61,1.98,-6.61,6.61,6.51,3.79,8.59,8.59,8.59
22.31,2.00,-6.59,2.00,-6.59,6.59,6.53,3.90,8.59,8.58,8.59
22.54,2.01,-6.56,2.01,-6.56,6.56,6.54,4.01,8.57,8.58,8.58
22.76,2.03,-6.54,2.03,-6.54,6.54,6.54,4.12,8.57,8.57,8.57
22.99,2.05,-6.51,2.05,-6.52,6.52,6.55,4.24,8.57,8.57,8.56
23.22,2.07,-6.48,2.07,-6.49,6.49,6.55,4.35,8.57,8.56,8.55
23.45,2.08,-6.48,2.08,-6.47,6.47,6.55,4.48,8.55,8.56,8.56
23.69,2.10,-6.45,2.10,-6.45,6.45,6.54,4.60,8.55,8.55,8.55
23.92,2.11,-6.43,2.12,-6.43,6.43,6.54,4.73,8.54,8.55,8.54
24.16,2.13,-6.42,2.13,-6.41,6.41,6.53,4.85,8.54,8.54,8.55
24.40,2.15,-6.39,2.15,-6.39,6.39,6.51,4.98,8.54,8.54,8.54
24.65,2.17,-6.37,2.17,-6.37,6.37,6.50,5.12,8.54,8.54,8.54
24.89,2.18,-6.36,2.18,-6.35,6.35,6.48,5.25,8.53,8.53,8.54
25.14,2.20,-6.33,2.20,-6.34,6.34,6.46,5.39,8.54,8.53,8.53
25.39,2.21,-6.32,2.21,-6.32,6.32,6.44,5.52,8.53,8.53,8.53
25.65,2.23,-6.30,2.23,-6.30,6.30,6.42,5.66,8.53,8.53,8.53
25.91,2.24,-6.28,2.24,-6.29,6.29,6.39,5.80,8.53,8.53,8.52
26.16,2.26,-6.27,2.26,-6.27,6.27,6.36,5.94,8.53,8.53,8.53
26.43,2.27,-6.26,2.27,-6.25,6.25,6.33,6.08,8.52,8.53,8.53
26.69,2.28,-6.25,2.29,-6.24,6.24,6.30,6.21,8.52,8.53,8.53
26.96,2.30,-6.22,2.30,-6.23,6.23,6.27,6.35,8.53,8.53,8.53
27.23,2.31,-6.21,2.31,-6.21,6.21,6.24,6.48,8.52,8.53,8.52
27.50,2.33,-6.19,2.33,-6.20,6.20,6.21,6.61,8.53,8.53,8.52
27.77,2.34,-6.19,2.34,-6.19,6.19,6.17,6.74,8.53,8.53,8.53
28.05,2.35,-6.17,2.35,-6.18,6.18,6.14,6.86,8.53,8.53,8.53
28.33,2.36,-6.17,2.36,-6.17,6.17,6.10,6.97,8.53,8.53,8.53
28.62,2.37,-6.16,2.37,-6.16,6.16,6.06,7.08,8.53,8.53,8.53
28.90,2.39,-6.15,2.39,-6.14,6.14,6.03,7.18,8.53,8.53,8.54
29.19,2.40,-6.13,2.40,-6.13,6.13,5.99,7.27,8.53,8.53,8.53
29.48,2.40,-6.13,2.41,-6.12,6.12,5.95,7.35,8.52,8.53,8.53
29.78,2.41,-6.12,2.42,-6.11,6.11,5.92,7.43,8.52,8.52,8.53
30.08,2.42,-6.10,2.42,-6.10,6.10,5.88,7.49,8.52,8.52,8.52
30.38,2.43,-6.08,2.43,-6.08,6.08,5.85,7.54,8.51,8.51,8.51
30.68,2.44,-6.07,2.44,-6.07,6.07,5.81,7.58,8.51,8.51,8.51
30.99,2.45,-6.05,2.44,-6.06,6.06,5.77,7.61,8.51,8.50,8.50
31.30,2.45,-6.05,2.45,-6.05,6.05,5.74,7.63,8.50,8.50,8.50
31.61,2.46,-6.03,2.46,-6.03,6.03,5.71,7.63,8.49,8.49,8.49
31.93,2.46,-6.01,2.46,-6.02,6.02,5.67,7.63,8.48,8.48,8.47
32.24,2.46,-6.01,2.47,-6.01,6.01,5.64,7.61,8.47,8.47,8.48
32.57,2.47,-5.99,2.47,-5.99,5.99,5.61,7.58,8.47,8.46,8.46
32.89,2.47,-5.98,2.47,-5.98,5.98,5.58,7.54,8.45,8.46,8.46
33.22,2.47,-5.98,2.48,-5.97,5.97,5.55,7.49,8.44,8.45,8.45
33.55,2.48,-5.96,2.48,-5.96,5.96,5.52,7.43,8.44,8.44,8.44
33.89,2.48,-5.95,2.48,-5.95,5.95,5.50,7.36,8.43,8.43,8.43
34.23,2.48,-5.93,2.48,-5.94,5.94,5.47,7.29,8.42,8.42,8.41
34.57,2.48,-5.93,2.48,-5.93,5.93,5.45,7.20,8.41,8.41,8.41
34.92,2.48,-5.91,2.48,-5.92,5.92,5.43,7.12,8.40,8.40,8.39
35.27,2.48,-5.92,2.48,-5.91,5.91,5.40,7.03,8.39,8.39,8.41
35.62,2.48,-5.90,2.48,-5.90,5.90,5.39,6.93,8.38,8.38,8.38
35.97,2.48,-5.89,2.47,-5.89,5.89,5.37,6.83,8.37,8.36,8.37
36.33,2.47,-5.88,2.47,-5.87,5.87,5.35,6.73,8.34,8.35,8.35
36.70,2.47,-5.86,2.47,-5.86,5.86,5.34,6.63,8.33,8.33,8.33
37.06,2.46,-5.85,2.47,-5.84,5.84,5.32,6.52,8.30,8.31,8.31
37.43,2.46,-5.83,2.47,-5.83,5.83,5.31,6.42,8.29,8.29,8.29
37.81,2.46,-5.81,2.46,-5.81,5.81,5.30,6.32,8.27,8.27,8.27
38.19,2.46,-5.78,2.46,-5.79,5.79,5.29,6.22,8.25,8.25,8.24
38.57,2.46,-5.76,2.46,-5.76,5.76,5.28,6.12,8.22,8.23,8.23
38.95,2.46,-5.74,2.46,-5.74,5.74,5.27,6.02,8.20,8.20,8.21
39.34,2.46,-5.72,2.46,-5.72,5.72,5.27,5.92,8.18,8.18,8.18
39.74,2.46,-5.69,2.46,-5.69,5.69,5.26,5.83,8.15,8.15,8.15
40.14,2.46,-5.66,2.46,-5.67,5.67,5.26,5.73,8.13,8.13,8.13
40.54,2.46,-5.64,2.46,-5.64,5.64,5.26,5.65,8.10,8.10,8.10
40.94,2.46,-5.61,2.46,-5.62,5.62,5.26,5.56,8.08,8.08,8.07
41.35,2.46,-5.59,2.46,-5.59,5.59,5.26,5.48,8.05,8.05,8.05
41.76,2.46,-5.56,2.46,-5.57,5.57,5.25,5.40,8.03,8.03,8.02
42.18,2.46,-5.55,2.46,-5.54,5.54,5.25,5.33,8.00,8.00,8.01
42.60,2.46,-5.51,2.46,-5.51,5.51,5.25,5.25,7.97,7.97,7.97
43.03,2.46,-5.49,2.46,-5.49,5.49,5.25,5.19,7.95,7.95,7.95
43.46,2.46,-5.46,2.46,-5.46,5.46,5.25,5.12,7.92,7.92,7.92
43.90,2.46,-5.43,2.46,-5.43,5.43,5.25,5.06,7.89,7.89,7.89
44.33,2.46,-5.40,2.46,-5.40,5.40,5.25,5.01,7.86,7.86,7.86
44.78,2.46,-5.37,2.46,-5.37,5.37,5.25,4.96,7.83,7.83,7.83
45.23,2.46,-5.34,2.46,-5.33,5.33,5.25,4.91,7.79,7.79,7.81
45.68,2.46,-5.30,2.46,-5.30,5.30,5.24,4.86,7.76,7.76,7.76
46.13,2.46,-5.26,2.46,-5.26,5.26,5.24,4.82,7.72,7.72,7.72
46.60,2.46,-5.22,2.46,-5.22,5.22,5.23,4.79,7.68,7.68,7.68
47.06,2.46,-5.18,2.46,-5.18,5.18,5.22,4.75,7.64,7.64,7.64
47.53,2.46,-5.14,2.46,-5.13,5.13,5.21,4.72,7.59,7.59,7.60
48.01,2.46,-5.08,2.46,-5.09,5.09,5.20,4.70,7.55,7.55,7.55
48.49,2.46,-5.04,2.46,-5.04,5.04,5.18,4.67,7.50,7.50,7.50
48.97,2.46,-4.99,2.46,-4.99,4.99,5.16,4.65,7.46,7.46,7.45
49.46,2.46,-4.95,2.47,-4.95,4.95,5.14,4.63,7.41,7.41,7.41
49.96,2.46,-4.89,2.47,-4.90,4.90,5.12,4.62,7.36,7.37,7.35
50.46,2.46,-4.85,2.47,-4.85,4.85,5.09,4.60,7.31,7.32,7.31
50.96,2.47,-4.80,2.47,-4.80,4.80,5.06,4.59,7.27,7.27,7.27
51.47,2.47,-4.75,2.47,-4.75,4.75,5.02,4.59,7.22,7.22,7.23
51.99,2.48,-4.69,2.47,-4.70,4.70,4.99,4.58,7.18,7.18,7.17
52.51,2.48,-4.65,2.47,-4.66,4.66,4.95,4.57,7.14,7.13,7.13
53.03,2.48,-4.61,2.47,-4.61,4.61,4.90,4.57,7.09,7.08,7.09
53.56,2.47,-4.58,2.47,-4.57,4.57,4.85,4.56,7.04,7.04,7.05
54.10,2.47,-4.52,2.47,-4.52,4.52,4.80,4.56,6.99,6.99,6.99
54.64,2.46,-4.49,2.46,-4.48,4.48,4.75,4.56,6.95,6.95,6.95
55.18,2.46,-4.43,2.45,-4.45,4.45,4.69,4.55,6.91,6.90,6.89
55.74,2.45,-4.39,2.45,-4.41,4.41,4.64,4.55,6.86,6.86,6.84
56.29,2.43,-4.38,2.43,-4.38,4.38,4.57,4.54,6.81,6.81,6.81
56.86,2.42,-4.34,2.42,-4.35,4.35,4.51,4.54,6.77,6.77,6.76
57.42,2.41,-4.30,2.40,-4.31,4.31,4.44,4.53,6.72,6.72,6.71
58.00,2.39,-4.27,2.39,-4.28,4.28,4.38,4.52,6.67,6.67,6.66
58.58,2.37,-4.25,2.37,-4.25,4.25,4.31,4.51,6.62,6.62,6.62
59.16,2.35,-4.23,2.35,-4.22,4.22,4.23,4.49,6.57,6.57,6.59
59.76,2.33,-4.20,2.33,-4.18,4.18,4.16,4.47,6.51,6.51,6.54
60.35,2.31,-4.16,2.31,-4.14,4.14,4.09,4.45,6.46,6.46,6.47
60.96,2.29,-4.12,2.29,-4.11,4.11,4.01,4.42,6.40,6.40,6.41
61.57,2.27,-4.07,2.27,-4.07,4.07,3.94,4.39,6.34,6.34,6.34
62.18,2.25,-4.02,2.26,-4.02,4.02,3.86,4.36,6.28,6.28,6.27
62.80,2.23,-3.98,2.24,-3.98,3.98,3.78,4.32,6.21,6.22,6.21
63.43,2.21,-3.93,2.22,-3.94,3.94,3.71,4.28,6.15,6.16,6.14
64.07,2.20,-3.88,2.21,-3.89,3.89,3.63,4.23,6.09,6.09,6.08
64.71,2.19,-3.83,2.19,-3.84,3.84,3.55,4.18,6.03,6.03,6.02
65.35,2.18,-3.78,2.18,-3.79,3.79,3.47,4.13,5.97,5.97,5.96
66.01,2.17,-3.73,2.16,-3.74,3.74,3.40,4.07,5.91,5.90,5.90
66.67,2.15,-3.70,2.15,-3.69,3.69,3.32,4.01,5.84,5.84,5.85
67.33,2.13,-3.64,2.13,-3.64,3.64,3.25,3.95,5.77,5.77,5.77
68.01,2.12,-3.60,2.12,-3.59,3.59,3.17,3.88,5.71,5.71,5.72
68.69,2.11,-3.54,2.11,-3.54,3.54,3.10,3.82,5.65,5.65,5.65
69.37,2.09,-3.50,2.10,-3.48,3.48,3.03,3.74,5.57,5.58,5.59
70.07,2.08,-3.44,2.08,-3.43,3.43,2.95,3.67,5.51,5.52,5.52
70.77,2.06,-3.39,2.07,-3.38,3.38,2.88,3.59,5.44,5.45,5.45
71.48,2.05,-3.34,2.05,-3.33,3.33,2.81,3.52,5.38,5.38,5.39
72.19,2.03,-3.28,2.03,-3.28,3.28,2.74,3.44,5.31,5.31,5.31
72.91,2.01,-3.23,2.01,-3.23,3.23,2.68,3.36,5.25,5.25,5.24
73.64,2.00,-3.17,1.99,-3.19,3.19,2.61,3.28,5.19,5.18,5.17
74.38,1.98,-3.12,1.97,-3.15,3.15,2.54,3.20,5.13,5.12,5.11
75.12,1.96,-3.09,1.94,-3.11,3.11,2.48,3.12,5.07,5.05,5.05
75.87,1.93,-3.06,1.91,-3.07,3.07,2.42,3.04,5.00,4.99,4.99
76.63,1.89,-3.02,1.88,-3.04,3.04,2.36,2.96,4.93,4.92,4.91
77.40,1.85,-3.01,1.85,-3.01,3.01,2.30,2.88,4.86,4.86,4.86
78.17,1.82,-2.97,1.82,-2.98,2.98,2.24,2.80,4.80,4.80,4.79
78.95,1.78,-2.96,1.79,-2.95,2.95,2.18,2.72,4.73,4.74,4.74
79.74,1.74,-2.94,1.75,-2.92,2.92,2.12,2.64,4.66,4.68,4.68
80.54,1.71,-2.91,1.72,-2.89,2.89,2.07,2.57,4.60,4.61,4.62
81.35,1.68,-2.87,1.69,-2.86,2.86,2.01,2.49,4.55,4.55,4.55
82.16,1.65,-2.85,1.66,-2.84,2.84,1.96,2.42,4.49,4.49,4.50
82.98,1.62,-2.81,1.62,-2.80,2.80,1.91,2.35,4.42,4.43,4.43
83.81,1.60,-2.77,1.60,-2.77,2.77,1.85,2.27,4.37,4.36,4.37
84.65,1.58,-2.71,1.57,-2.73,2.73,1.80,2.20,4.31,4.30,4.30
85.50,1.56,-2.67,1.55,-2.69,2.69,1.76,2.14,4.25,4.23,4.23
86.35,1.53,-2.64,1.53,-2.64,2.64,1.71,2.07,4.17,4.17,4.17
87.22,1.51,-2.59,1.51,-2.59,2.59,1.66,2.00,4.10,4.10,4.10
88.09,1.49,-2.54,1.50,-2.53,2.53,1.61,1.94,4.02,4.03,4.03
88.97,1.47,-2.50,1.49,-2.48,2.48,1.57,1.87,3.95,3.97,3.97
89.86,1.46,-2.44,1.48,-2.42,2.42,1.53,1.81,3.88,3.90,3.90
90.76,1.46,-2.37,1.47,-2.35,2.35,1.48,1.75,3.81,3.83,3.83
91.66,1.46,-2.29,1.47,-2.28,2.28,1.44,1.69,3.74,3.75,3.75
92.58,1.47,-2.22,1.47,-2.21,2.21,1.40,1.64,3.68,3.68,3.69
93.51,1.48,-2.14,1.47,-2.14,2.14,1.36,1.58,3.62,3.61,3.62
94.44,1.48,-2.06,1.47,-2.07,2.07,1.32,1.53,3.55,3.53,3.54
95.39,1.48,-1.98,1.47,-1.99,1.99,1.28,1.47,3.47,3.46,3.46
96.34,1.48,-1.91,1.47,-1.92,1.92,1.24,1.42,3.40,3.39,3.39
97.30,1.48,-1.83,1.48,-1.84,1.84,1.20,1.37,3.32,3.31,3.32
98.28,1.48,-1.75,1.48,-1.76,1.76,1.17,1.32,3.24,3.24,3.23
99.26,1.48,-1.68,1.49,-1.68,1.68,1.13,1.27,3.16,3.17,3.16
100.25,1.48,-1.60,1.49,-1.60,1.60,1.09,1.22,3.08,3.09,3.08
101.25,1.48,-1.54,1.50,-1.53,1.53,1.06,1.18,3.01,3.02,3.02
102.27,1.48,-1.47,1.50,-1.45,1.45,1.02,1.13,2.93,2.95,2.95
103.29,1.49,-1.39,1.50,-1.38,1.38,0.99,1.09,2.87,2.88,2.88
104.32,1.49,-1.32,1.50,-1.31,1.31,0.96,1.04,2.80,2.81,2.81
105.37,1.50,-1.25,1.50,-1.25,1.25,0.92,1.00,2.75,2.74,2.75
106.42,1.51,-1.17,1.49,-1.18,1.18,0.89,0.96,2.69,2.67,2.68
107.48,1.51,-1.09,1.49,-1.12,1.12,0.86,0.92,2.63,2.61,2.61
108.56,1.49,-1.05,1.47,-1.06,1.06,0.83,0.88,2.55,2.53,2.54
109.64,1.48,-0.99,1.46,-1.01,1.01,0.80,0.84,2.49,2.47,2.47
110.74,1.46,-0.94,1.44,-0.96,0.96,0.77,0.80,2.42,2.39,2.40
111.85,1.42,-0.90,1.41,-0.91,0.91,0.74,0.77,2.33,2.32,2.32
112.97,1.39,-0.87,1.39,-0.86,0.86,0.70,0.73,2.25,2.25,2.26
114.10,1.36,-0.83,1.36,-0.82,0.82,0.67,0.69,2.18,2.18,2.19
115.24,1.32,-0.78,1.33,-0.78,0.78,0.65,0.66,2.10,2.11,2.10
116.39,1.30,-0.73,1.30,-0.74,0.74,0.62,0.62,2.04,2.04,2.03
117.55,1.27,-0.69,1.27,-0.69,0.69,0.59,0.59,1.97,1.97,1.96
118.73,1.23,-0.65,1.25,-0.65,0.65,0.56,0.56,1.88,1.90,1.88
119.92,1.19,-0.63,1.23,-0.60,0.60,0.53,0.52,1.79,1.83,1.82
121.12,1.17,-0.59,1.21,-0.55,0.55,0.50,0.49,1.72,1.76,1.76
122.33,1.16,-0.53,1.19,-0.50,0.50,0.47,0.46,1.66,1.69,1.69
123.55,1.16,-0.47,1.17,-0.45,0.45,0.44,0.43,1.61,1.62,1.63
124.79,1.16,-0.40,1.16,-0.40,0.40,0.41,0.40,1.56,1.56,1.56
126.03,1.16,-0.34,1.14,-0.34,0.34,0.38,0.37,1.50,1.49,1.50
127.29,1.15,-0.28,1.13,-0.29,0.29,0.36,0.34,1.44,1.42,1.43
128.57,1.14,-0.21,1.11,-0.24,0.24,0.33,0.31,1.38,1.35,1.35
129.85,1.12,-0.17,1.09,-0.19,0.19,0.30,0.28,1.31,1.29,1.29
131.15,1.09,-0.12,1.07,-0.15,0.15,0.27,0.25,1.24,1.22,1.21
132.46,1.07,-0.08,1.05,-0.10,0.10,0.24,0.23,1.17,1.15,1.15
133.79,1.04,-0.04,1.02,-0.06,0.06,0.21,0.20,1.10,1.08,1.08
135.12,0.99,-0.03,1.00,-0.02,0.02,0.18,0.17,1.01,1.02,1.02
136.48,0.97,0.01,0.97,0.01,-0.01,0.15,0.14,0.96,0.95,0.96
137.84,0.93,0.04,0.94,0.05,-0.05,0.12,0.12,0.88,0.89,0.89
139.22,0.90,0.08,0.91,0.08,-0.08,0.09,0.09,0.82,0.83,0.82
140.61,0.88,0.12,0.89,0.12,-0.12,0.06,0.06,0.76,0.76,0.76
142.02,0.84,0.14,0.87,0.16,-0.16,0.03,0.03,0.68,0.70,0.70
143.44,0.83,0.19,0.86,0.21,-0.21,-0.01,0.01,0.62,0.65,0.64
144.87,0.81,0.22,0.85,0.26,-0.26,-0.04,-0.02,0.55,0.59,0.59
146.32,0.81,0.28,0.84,0.31,-0.31,-0.07,-0.05,0.50,0.53,0.53
147.78,0.82,0.34,0.84,0.36,-0.36,-0.10,-0.07,0.46,0.48,0.48
149.26,0.83,0.41,0.84,0.42,-0.42,-0.14,-0.10,0.42,0.42,0.42
150.75,0.84,0.48,0.84,0.47,-0.47,-0.17,-0.13,0.37,0.37,0.36
152.26,0.85,0.54,0.84,0.53,-0.53,-0.21,-0.16,0.33,0.31,0.31
153.78,0.86,0.60,0.83,0.58,-0.58,-0.24,-0.19,0.28,0.26,0.26
155.32,0.86,0.66,0.83,0.63,-0.63,-0.28,-0.21,0.23,0.20,0.21
156.88,0.85,0.70,0.82,0.68,-0.68,-0.32,-0.24,0.17,0.15,0.15
158.44,0.84,0.75,0.81,0.72,-0.72,-0.36,-0.27,0.12,0.09,0.09
160.03,0.81,0.77,0.80,0.76,-0.76,-0.40,-0.30,0.05,0.04,0.04
161.63,0.79,0.81,0.78,0.80,-0.80,-0.44,-0.33,-0.01,-0.02,-0.02
163.24,0.76,0.84,0.76,0.84,-0.84,-0.48,-0.36,-0.07,-0.08,-0.08
164.88,0.72,0.85,0.73,0.87,-0.87,-0.52,-0.39,-0.15,-0.13,-0.13
166.53,0.69,0.89,0.71,0.89,-0.89,-0.56,-0.43,-0.20,-0.19,-0.20
168.19,0.66,0.90,0.67,0.92,-0.92,-0.61,-0.46,-0.26,-0.25,-0.24
169.87,0.63,0.93,0.64,0.95,-0.95,-0.65,-0.49,-0.32,-0.30,-0.30
171.57,0.61,0.97,0.61,0.97,-0.97,-0.70,-0.52,-0.36,-0.36,-0.36
173.29,0.59,1.00,0.58,1.00,-1.00,-0.74,-0.56,-0.41,-0.42,-0.41
175.02,0.55,1.02,0.55,1.02,-1.02,-0.79,-0.59,-0.47,-0.47,-0.47
176.77,0.52,1.05,0.52,1.05,-1.05,-0.84,-0.63,-0.53,-0.53,-0.53
178.54,0.49,1.08,0.49,1.08,-1.08,-0.89,-0.66,-0.59,-0.59,-0.59
180.32,0.46,1.11,0.46,1.10,-1.10,-0.94,-0.70,-0.64,-0.64,-0.65
182.13,0.43,1.12,0.43,1.13,-1.13,-0.99,-0.73,-0.70,-0.70,-0.69
183.95,0.40,1.15,0.40,1.15,-1.15,-1.04,-0.77,-0.75,-0.75,-0.75
185.79,0.38,1.19,0.37,1.18,-1.18,-1.08,-0.81,-0.80,-0.80,-0.81
187.65,0.36,1.22,0.35,1.20,-1.20,-1.13,-0.85,-0.84,-0.86,-0.86
189.52,0.32,1.23,0.32,1.23,-1.23,-1.18,-0.88,-0.91,-0.91,-0.91
191.42,0.29,1.25,0.30,1.26,-1.26,-1.23,-0.92,-0.97,-0.96,-0.95
193.33,0.26,1.26,0.28,1.28,-1.28,-1.28,-0.96,-1.02,-1.01,-1.00
195.27,0.24,1.30,0.26,1.31,-1.31,-1.33,-1.00,-1.07,-1.05,-1.06
197.22,0.22,1.33,0.24,1.34,-1.34,-1.37,-1.04,-1.12,-1.10,-1.11
199.19,0.20,1.35,0.22,1.36,-1.36,-1.42,-1.08,-1.16,-1.14,-1.15
201.18,0.19,1.39,0.20,1.38,-1.38,-1.46,-1.12,-1.19,-1.19,-1.20
203.19,0.18,1.41,0.18,1.41,-1.41,-1.50,-1.16,-1.23,-1.23,-1.23
205.23,0.17,1.43,0.16,1.43,-1.43,-1.54,-1.20,-1.26,-1.27,-1.26
207.28,0.16,1.46,0.14,1.44,-1.44,-1.57,-1.24,-1.28,-1.31,-1.30
209.35,0.14,1.48,0.12,1.46,-1.46,-1.60,-1.28,-1.32,-1.34,-1.34
211.44,0.12,1.50,0.10,1.48,-1.48,-1.62,-1.32,-1.36,-1.38,-1.38
213.56,0.08,1.49,0.07,1.49,-1.49,-1.65,-1.36,-1.41,-1.41,-1.41
215.69,0.04,1.48,0.05,1.50,-1.50,-1.66,-1.39,-1.46,-1.45,-1.44
217.85,0.01,1.49,0.02,1.50,-1.50,-1.68,-1.43,-1.49,-1.48,-1.48
220.03,-0.01,1.50,-0.00,1.50,-1.50,-1.69,-1.46,-1.51,-1.51,-1.51
222.23,-0.04,1.51,-0.03,1.51,-1.51,-1.69,-1.50,-1.55,-1.54,-1.55
224.45,-0.06,1.51,-0.06,1.51,-1.51,-1.69,-1.53,-1.57,-1.57,-1.57
226.70,-0.10,1.50,-0.09,1.51,-1.51,-1.68,-1.56,-1.61,-1.59,-1.60
228.96,-0.12,1.49,-0.12,1.50,-1.50,-1.67,-1.59,-1.62,-1.62,-1.61
231.25,-0.14,1.50,-0.15,1.49,-1.49,-1.66,-1.61,-1.63,-1.64,-1.64
233.57,-0.17,1.49,-0.18,1.49,-1.49,-1.64,-1.63,-1.66,-1.66,-1.66
235.90,-0.21,1.47,-0.20,1.48,-1.48,-1.62,-1.65,-1.69,-1.68,-1.68
238.26,-0.23,1.48,-0.23,1.47,-1.47,-1.60,-1.67,-1.70,-1.70,-1.71
240.64,-0.25,1.46,-0.26,1.46,-1.46,-1.57,-1.68,-1.71,-1.71,-1.71
243.05,-0.27,1.46,-0.28,1.44,-1.44,-1.54,-1.69,-1.71,-1.73,-1.73
245.48,-0.30,1.44,-0.31,1.43,-1.43,-1.51,-1.70,-1.73,-1.74,-1.74
247.93,-0.35,1.41,-0.33,1.42,-1.42,-1.47,-1.70,-1.76,-1.75,-1.76
250.41,-0.37,1.39,-0.36,1.40,-1.40,-1.44,-1.71,-1.77,-1.76,-1.76
252.92,-0.40,1.36,-0.38,1.39,-1.39,-1.40,-1.70,-1.79,-1.77,-1.76
255.45,-0.42,1.36,-0.40,1.37,-1.37,-1.36,-1.70,-1.79,-1.77,-1.78
258.00,-0.43,1.35,-0.42,1.36,-1.36,-1.33,-1.69,-1.79,-1.78,-1.78
260.58,-0.45,1.33,-0.44,1.34,-1.34,-1.29,-1.68,-1.79,-1.79,-1.78
263.19,-0.46,1.33,-0.46,1.33,-1.33,-1.25,-1.66,-1.79,-1.79,-1.79
265.82,-0.48,1.32,-0.49,1.31,-1.31,-1.21,-1.64,-1.79,-1.80,-1.80
268.48,-0.50,1.30,-0.51,1.29,-1.29,-1.17,-1.62,-1.79,-1.81,-1.80
271.16,-0.51,1.29,-0.54,1.27,-1.27,-1.13,-1.60,-1.78,-1.81,-1.80
273.87,-0.55,1.27,-0.56,1.25,-1.25,-1.10,-1.57,-1.80,-1.81,-1.81
276.61,-0.58,1.24,-0.59,1.23,-1.23,-1.06,-1.54,-1.81,-1.82,-1.82
279.38,-0.60,1.24,-0.62,1.20,-1.20,-1.02,-1.51,-1.80,-1.82,-1.84
282.17,-0.64,1.20,-0.64,1.18,-1.18,-0.99,-1.48,-1.82,-1.82,-1.84
284.99,-0.67,1.16,-0.67,1.16,-1.16,-0.95,-1.44,-1.83,-1.83,-1.83
287.84,-0.71,1.12,-0.69,1.13,-1.13,-0.92,-1.41,-1.84,-1.83,-1.83
290.72,-0.74,1.10,-0.71,1.11,-1.11,-0.89,-1.37,-1.85,-1.83,-1.83
293.63,-0.77,1.05,-0.73,1.09,-1.09,-0.86,-1.33,-1.86,-1.83,-1.82
296.57,-0.78,1.04,-0.75,1.08,-1.08,-0.83,-1.29,-1.85,-1.82,-1.82
299.53,-0.79,1.03,-0.76,1.06,-1.06,-0.80,-1.25,-1.85,-1.82,-1.82
302.53,-0.79,1.02,-0.78,1.04,-1.04,-0.77,-1.21,-1.83,-1.82,-1.81
305.55,-0.79,1.03,-0.79,1.02,-1.02,-0.75,-1.17,-1.81,-1.81,-1.82
308.61,-0.78,1.02,-0.80,1.01,-1.01,-0.72,-1.12,-1.79,-1.81,-1.80
311.69,-0.79,1.01,-0.81,0.99,-0.99,-0.70,-1.08,-1.78,-1.80,-1.80
314.81,-0.80,1.00,-0.83,0.97,-0.97,-0.67,-1.04,-1.77,-1.79,-1.80
317.96,-0.81,0.98,-0.85,0.94,-0.94,-0.65,-1.00,-1.75,-1.79,-1.79
321.14,-0.84,0.94,-0.86,0.92,-0.92,-0.63,-0.95,-1.76,-1.78,-1.78
324.35,-0.87,0.92,-0.89,0.89,-0.89,-0.61,-0.91,-1.76,-1.78,-1.79
327.59,-0.91,0.85,-0.91,0.86,-0.86,-0.59,-0.87,-1.77,-1.77,-1.76
330.87,-0.94,0.83,-0.94,0.82,-0.82,-0.57,-0.83,-1.76,-1.77,-1.77
334.18,-0.97,0.79,-0.97,0.79,-0.79,-0.55,-0.79,-1.76,-1.76,-1.76
337.52,-1.01,0.75,-1.00,0.75,-0.75,-0.54,-0.75,-1.76,-1.75,-1.76
340.90,-1.04,0.70,-1.03,0.72,-0.72,-0.52,-0.70,-1.76,-1.75,-1.74
344.30,-1.07,0.67,-1.05,0.69,-0.69,-0.50,-0.66,-1.76,-1.74,-1.74
347.75,-1.09,0.64,-1.07,0.66,-0.66,-0.49,-0.62,-1.75,-1.73,-1.73
351.23,-1.11,0.63,-1.09,0.63,-0.63,-0.47,-0.58,-1.74,-1.73,-1.74
354.74,-1.13,0.58,-1.11,0.61,-0.61,-0.46,-0.54,-1.74,-1.72,-1.71
358.28,-1.13,0.58,-1.12,0.60,-0.60,-0.45,-0.51,-1.73,-1.71,-1.71
361.87,-1.13,0.58,-1.12,0.59,-0.59,-0.44,-0.47,-1.71,-1.71,-1.71
365.49,-1.12,0.58,-1.12,0.58,-0.58,-0.42,-0.43,-1.70,-1.70,-1.70
369.14,-1.12,0.57,-1.12,0.57,-0.57,-0.41,-0.39,-1.69,-1.69,-1.69
372.83,-1.11,0.57,-1.12,0.57,-0.57,-0.40,-0.36,-1.68,-1.68,-1.68
376.56,-1.11,0.57,-1.11,0.56,-0.56,-0.39,-0.32,-1.67,-1.68,-1.68
380.33,-1.11,0.57,-1.11,0.56,-0.56,-0.38,-0.28,-1.67,-1.67,-1.68
384.13,-1.11,0.55,-1.10,0.56,-0.56,-0.37,-0.25,-1.67,-1.66,-1.66
387.97,-1.10,0.55,-1.10,0.55,-0.55,-0.37,-0.21,-1.65,-1.65,-1.65
391.85,-1.10,0.55,-1.10,0.55,-0.55,-0.36,-0.18,-1.65,-1.64,-1.64
395.77,-1.09,0.55,-1.10,0.54,-0.54,-0.35,-0.14,-1.63,-1.63,-1.64
399.73,-1.09,0.54,-1.10,0.52,-0.52,-0.34,-0.11,-1.61,-1.62,-1.63
403.72,-1.10,0.50,-1.11,0.50,-0.50,-0.34,-0.08,-1.60,-1.61,-1.60
407.76,-1.11,0.50,-1.13,0.48,-0.48,-0.33,-0.05,-1.59,-1.61,-1.61
411.84,-1.12,0.48,-1.14,0.45,-0.45,-0.32,-0.02,-1.57,-1.60,-1.60
415.96,-1.15,0.43,-1.16,0.42,-0.42,-0.32,0.01,-1.57,-1.59,-1.58
420.12,-1.18,0.40,-1.19,0.39,-0.39,-0.31,0.04,-1.57,-1.58,-1.58
424.32,-1.21,0.36,-1.22,0.36,-0.36,-0.31,0.07,-1.56,-1.57,-1.57
428.56,-1.24,0.32,-1.25,0.32,-0.32,-0.30,0.10,-1.56,-1.56,-1.56
432.85,-1.28,0.27,-1.28,0.28,-0.28,-0.30,0.13,-1.56,-1.55,-1.55
437.18,-1.31,0.24,-1.31,0.24,-0.24,-0.29,0.15,-1.55,-1.55,-1.55
441.55,-1.34,0.20,-1.34,0.20,-0.20,-0.29,0.18,-1.54,-1.54,-1.54
445.96,-1.37,0.16,-1.36,0.17,-0.17,-0.29,0.20,-1.53,-1.53,-1.53
450.42,-1.41,0.12,-1.39,0.13,-0.13,-0.28,0.22,-1.54,-1.52,-1.53
454.93,-1.43,0.09,-1.41,0.11,-0.11,-0.28,0.24,-1.53,-1.51,-1.52
459.48,-1.45,0.06,-1.42,0.08,-0.08,-0.28,0.26,-1.53,-1.50,-1.51
464.07,-1.46,0.03,-1.43,0.06,-0.06,-0.27,0.28,-1.52,-1.50,-1.49
468.71,-1.46,0.02,-1.44,0.04,-0.04,-0.27,0.29,-1.50,-1.49,-1.48
473.40,-1.45,0.02,-1.45,0.03,-0.03,-0.27,0.30,-1.48,-1.48,-1.47
478.13,-1.44,0.02,-1.45,0.02,-0.02,-0.27,0.31,-1.46,-1.47,-1.46
482.91,-1.44,0.02,-1.45,0.01,-0.01,-0.27,0.32,-1.45,-1.46,-1.46
487.74,-1.43,0.02,-1.45,-0.00,0.00,-0.26,0.33,-1.43,-1.45,-1.45
492.62,-1.43,0.01,-1.44,-0.01,0.01,-0.26,0.34,-1.42,-1.43,-1.44
497.55,-1.43,-0.00,-1.44,-0.02,0.02,-0.26,0.34,-1.41,-1.42,-1.43
502.52,-1.43,-0.01,-1.43,-0.02,0.02,-0.26,0.34,-1.41,-1.41,-1.42
507.55,-1.43,-0.03,-1.43,-0.03,0.03,-0.26,0.34,-1.40,-1.40,-1.40
512.62,-1.43,-0.04,-1.43,-0.04,0.04,-0.26,0.34,-1.39,-1.39,-1.39
517.75,-1.43,-0.06,-1.43,-0.05,0.05,-0.26,0.33,-1.38,-1.38,-1.37
