frequency,raw,error,smoothed,error_smoothed,equalization,parametric_eq,fixed_band_eq,equalized_raw,equalized_smoothed,target
20.00,-5.25,-11.07,-5.26,-11.07,11.07,10.62,3.48,5.82,5.82,5.81
20.20,-5.15,-10.96,-5.16,-10.96,10.96,10.56,3.58,5.81,5.81,5.80
20.40,-5.05,-10.85,-5.05,-10.85,10.85,10.49,3.68,5.79,5.79,5.79
20.61,-4.96,-10.74,-4.95,-10.74,10.74,10.42,3.78,5.78,5.78,5.78
20.81,-4.85,-10.62,-4.85,-10.62,10.62,10.36,3.89,5.77,5.77,5.76
21.02,-4.75,-10.51,-4.75,-10.51,10.51,10.29,4.00,5.76,5.76,5.75
21.23,-4.65,-10.40,-4.65,-10.40,10.40,10.21,4.11,5.75,5.75,5.74
21.44,-4.55,-10.31,-4.55,-10.29,10.29,10.14,4.23,5.74,5.74,5.75
21.66,-4.46,-10.19,-4.45,-10.18,10.18,10.06,4.35,5.73,5.73,5.73
21.87,-4.35,-10.09,-4.35,-10.08,10.08,9.99,4.47,5.72,5.72,5.73
22.09,-4.25,-9.97,-4.25,-9.97,9.97,9.91,4.60,5.71,5.71,5.71
22.31,-4.15,-9.86,-4.15,-9.86,9.86,9.83,4.73,5.71,5.71,5.70
22.54,-4.06,-9.75,-4.05,-9.76,9.76,9.75,4.86,5.70,5.70,5.69
22.76,-3.95,-9.65,-3.95,-9.65,9.65,9.66,5.00,5.69,5.70,5.69
22.99,-3.85,-9.54,-3.85,-9.54,9.54,9.58,5.14,5.69,5.69,5.68
23.22,-3.75,-9.43,-3.75,-9.44,9.44,9.50,5.29,5.68,5.68,5.67
23.45,-3.65,-9.34,-3.65,-9.33,9.33,9.41,5.43,5.68,5.68,5.68
23.69,-3.56,-9.23,-3.56,-9.23,9.23,9.32,5.59,5.67,5.67,5.67
23.92,-3.45,-9.12,-3.46,-9.13,9.13,9.24,5.74,5.67,5.67,5.66
24.16,-3.35,-9.03,-3.36,-9.03,9.03,9.15,5.90,5.67,5.67,5.67
24.40,-3.26,-8.94,-3.26,-8.93,8.93,9.06,6.06,5.66,5.67,5.67
24.65,-3.17,-8.83,-3.16,-8.83,8.83,8.97,6.22,5.66,5.66,5.66
24.89,-3.06,-8.73,-3.07,-8.73,8.73,8.88,6.39,5.66,5.66,5.66
25.14,-2.96,-8.62,-2.97,-8.63,8.63,8.79,6.56,5.67,5.66,5.65
25.39,-2.87,-8.53,-2.87,-8.53,8.53,8.70,6.73,5.66,5.66,5.65
25.65,-2.78,-8.43,-2.78,-8.43,8.43,8.61,6.90,5.66,5.66,5.65
25.91,-2.69,-8.34,-2.68,-8.34,8.34,8.52,7.08,5.65,5.66,5.65
26.16,-2.58,-8.25,-2.59,-8.24,8.24,8.43,7.25,5.66,5.66,5.66
26.43,-2.50,-8.15,-2.49,-8.15,8.15,8.33,7.43,5.65,5.66,5.65
26.69,-2.39,-8.05,-2.40,-8.05,8.05,8.24,7.60,5.66,5.66,5.65
26.96,-2.31,-7.96,-2.30,-7.96,7.96,8.15,7.77,5.65,5.66,5.65
27.23,-2.21,-7.86,-2.21,-7.86,7.86,8.06,7.94,5.66,5.66,5.65
27.50,-2.12,-7.77,-2.11,-7.77,7.77,7.96,8.11,5.66,5.66,5.65
27.77,-2.02,-7.69,-2.02,-7.68,7.68,7.87,8.27,5.66,5.66,5.66
28.05,-1.92,-7.58,-1.93,-7.59,7.59,7.78,8.42,5.67,5.66,5.65
28.33,-1.83,-7.50,-1.83,-7.50,7.50,7.69,8.57,5.66,5.66,5.66
28.62,-1.75,-7.41,-1.74,-7.41,7.41,7.59,8.70,5.66,5.67,5.66
28.90,-1.64,-7.32,-1.65,-7.31,7.31,7.50,8.83,5.67,5.66,5.67
29.19,-1.55,-7.23,-1.56,-7.22,7.22,7.41,8.95,5.67,5.66,5.67
29.48,-1.47,-7.14,-1.47,-7.13,7.13,7.31,9.05,5.66,5.66,5.66
29.78,-1.39,-7.05,-1.38,-7.04,7.04,7.22,9.14,5.66,5.66,5.66
30.08,-1.31,-6.97,-1.30,-6.96,6.96,7.13,9.21,5.65,5.66,5.66
30.38,-1.22,-6.86,-1.21,-6.87,6.87,7.04,9.26,5.65,5.65,5.64
30.68,-1.12,-6.77,-1.13,-6.78,6.78,6.94,9.30,5.66,5.65,5.64
30.99,-1.04,-6.68,-1.05,-6.70,6.70,6.85,9.32,5.66,5.64,5.64
31.30,-0.97,-6.61,-0.97,-6.61,6.61,6.76,9.31,5.65,5.64,5.64
31.61,-0.89,-6.53,-0.90,-6.53,6.53,6.67,9.29,5.63,5.63,5.63
31.93,-0.83,-6.44,-0.82,-6.45,6.45,6.58,9.25,5.62,5.63,5.61
32.24,-0.75,-6.38,-0.75,-6.37,6.37,6.49,9.20,5.61,5.62,5.62
32.57,-0.68,-6.28,-0.68,-6.29,6.29,6.40,9.12,5.61,5.61,5.60
32.89,-0.60,-6.21,-0.61,-6.21,6.21,6.31,9.03,5.61,5.60,5.60
33.22,-0.54,-6.14,-0.54,-6.14,6.14,6.21,8.92,5.59,5.60,5.59
33.55,-0.47,-6.07,-0.47,-6.06,6.06,6.12,8.80,5.59,5.59,5.59
33.89,-0.40,-5.99,-0.41,-5.99,5.99,6.03,8.67,5.58,5.58,5.58
34.23,-0.34,-5.91,-0.34,-5.92,5.92,5.95,8.53,5.57,5.58,5.56
34.57,-0.27,-5.84,-0.28,-5.84,5.84,5.86,8.37,5.57,5.57,5.56
34.92,-0.22,-5.76,-0.21,-5.77,5.77,5.77,8.21,5.55,5.56,5.54
35.27,-0.15,-5.71,-0.15,-5.69,5.69,5.68,8.04,5.55,5.55,5.56
35.62,-0.08,-5.62,-0.08,-5.62,5.62,5.59,7.87,5.53,5.54,5.53
35.97,-0.01,-5.55,-0.02,-5.54,5.54,5.50,7.69,5.53,5.52,5.53
36.33,0.05,-5.47,0.04,-5.47,5.47,5.42,7.51,5.51,5.51,5.51
36.70,0.10,-5.39,0.11,-5.39,5.39,5.33,7.33,5.49,5.49,5.49
37.06,0.17,-5.31,0.17,-5.31,5.31,5.24,7.14,5.48,5.48,5.47
37.43,0.23,-5.23,0.23,-5.23,5.23,5.15,6.96,5.46,5.46,5.45
37.81,0.29,-5.16,0.29,-5.15,5.15,5.07,6.77,5.44,5.44,5.44
38.19,0.34,-5.07,0.34,-5.07,5.07,4.98,6.59,5.42,5.42,5.41
38.57,0.41,-4.99,0.40,-4.99,4.99,4.90,6.41,5.40,5.40,5.39
38.95,0.47,-4.92,0.46,-4.91,4.91,4.81,6.23,5.38,5.38,5.38
39.34,0.53,-4.83,0.52,-4.83,4.83,4.73,6.05,5.36,5.35,5.35
39.74,0.58,-4.75,0.58,-4.75,4.75,4.64,5.87,5.33,5.33,5.32
40.14,0.62,-4.68,0.64,-4.67,4.67,4.56,5.70,5.30,5.31,5.30
40.54,0.68,-4.60,0.69,-4.59,4.59,4.47,5.53,5.28,5.29,5.28
40.94,0.75,-4.51,0.75,-4.52,4.52,4.39,5.36,5.26,5.27,5.25
41.35,0.81,-4.44,0.81,-4.44,4.44,4.31,5.20,5.24,5.24,5.24
41.76,0.88,-4.34,0.86,-4.36,4.36,4.22,5.04,5.23,5.22,5.21
42.18,0.93,-4.28,0.92,-4.27,4.27,4.14,4.88,5.20,5.20,5.20
42.60,0.99,-4.19,0.98,-4.19,4.19,4.06,4.72,5.18,5.17,5.17
43.03,1.04,-4.12,1.04,-4.11,4.11,3.98,4.57,5.15,5.15,5.15
43.46,1.10,-4.02,1.10,-4.03,4.03,3.90,4.42,5.12,5.12,5.11
43.90,1.14,-3.95,1.15,-3.94,3.94,3.82,4.28,5.09,5.10,5.09
44.33,1.21,-3.86,1.21,-3.86,3.86,3.74,4.14,5.06,5.07,5.06
44.78,1.27,-3.78,1.27,-3.77,3.77,3.66,4.00,5.04,5.04,5.04
45.23,1.32,-3.70,1.33,-3.68,3.68,3.58,3.86,5.01,5.01,5.02
45.68,1.39,-3.59,1.38,-3.59,3.59,3.50,3.73,4.98,4.98,4.97
46.13,1.45,-3.50,1.44,-3.50,3.50,3.42,3.60,4.95,4.94,4.94
46.60,1.49,-3.41,1.49,-3.41,3.41,3.34,3.47,4.91,4.90,4.91
47.06,1.56,-3.32,1.55,-3.32,3.32,3.26,3.35,4.87,4.87,4.87
47.53,1.61,-3.23,1.60,-3.22,3.22,3.18,3.23,4.83,4.83,4.83
48.01,1.66,-3.13,1.66,-3.13,3.13,3.10,3.11,4.78,4.79,4.78
48.49,1.71,-3.04,1.71,-3.04,3.04,3.03,3.00,4.74,4.75,4.74
48.97,1.76,-2.94,1.76,-2.95,2.95,2.95,2.88,4.70,4.70,4.69
49.46,1.81,-2.86,1.81,-2.85,2.85,2.87,2.77,4.66,4.66,4.66
49.96,1.86,-2.75,1.86,-2.76,2.76,2.79,2.67,4.62,4.62,4.61
50.46,1.91,-2.67,1.90,-2.68,2.68,2.72,2.56,4.58,4.58,4.57
50.96,1.96,-2.58,1.95,-2.59,2.59,2.64,2.46,4.54,4.54,4.53
51.47,2.00,-2.50,1.99,-2.50,2.50,2.57,2.36,4.50,4.49,4.49
51.99,2.04,-2.41,2.04,-2.42,2.42,2.49,2.26,4.45,4.45,4.45
52.51,2.07,-2.34,2.08,-2.33,2.33,2.42,2.16,4.41,4.41,4.41
53.03,2.12,-2.27,2.12,-2.25,2.25,2.34,2.07,4.36,4.37,4.38
53.56,2.16,-2.18,2.16,-2.17,2.17,2.27,1.98,4.32,4.33,4.33
54.10,2.20,-2.09,2.20,-2.09,2.09,2.19,1.89,4.29,4.29,4.29
54.64,2.24,-2.01,2.23,-2.02,2.02,2.12,1.80,4.25,4.25,4.24
55.18,2.28,-1.93,2.27,-1.94,1.94,2.04,1.71,4.22,4.21,4.20
55.74,2.31,-1.85,2.30,-1.88,1.88,1.97,1.63,4.18,4.17,4.16
56.29,2.34,-1.80,2.33,-1.81,1.81,1.90,1.54,4.14,4.14,4.13
56.86,2.37,-1.73,2.36,-1.74,1.74,1.83,1.46,4.10,4.10,4.09
57.42,2.40,-1.65,2.39,-1.67,1.67,1.75,1.39,4.06,4.05,4.04
58.00,2.42,-1.59,2.41,-1.60,1.60,1.68,1.31,4.01,4.01,4.00
58.58,2.44,-1.54,2.44,-1.53,1.53,1.61,1.23,3.96,3.97,3.97
59.16,2.47,-1.48,2.47,-1.46,1.46,1.54,1.16,3.92,3.92,3.94
59.76,2.49,-1.41,2.49,-1.38,1.38,1.47,1.09,3.87,3.87,3.90
60.35,2.51,-1.34,2.51,-1.31,1.31,1.39,1.02,3.82,3.83,3.84
60.96,2.54,-1.25,2.54,-1.24,1.24,1.32,0.95,3.77,3.78,3.78
61.57,2.56,-1.17,2.56,-1.16,1.16,1.25,0.88,3.72,3.73,3.73
62.18,2.59,-1.08,2.59,-1.09,1.09,1.18,0.81,3.67,3.67,3.66
62.80,2.61,-1.00,2.61,-1.01,1.01,1.11,0.75,3.61,3.62,3.60
63.43,2.64,-0.92,2.63,-0.93,0.93,1.04,0.68,3.57,3.57,3.55
64.07,2.66,-0.85,2.66,-0.86,0.86,0.97,0.62,3.51,3.51,3.50
64.71,2.69,-0.77,2.68,-0.78,0.78,0.90,0.56,3.46,3.46,3.45
65.35,2.71,-0.69,2.70,-0.70,0.70,0.83,0.50,3.40,3.40,3.39
66.01,2.74,-0.61,2.73,-0.62,0.62,0.77,0.44,3.36,3.35,3.34
66.67,2.76,-0.55,2.75,-0.54,0.54,0.70,0.38,3.30,3.29,3.30
67.33,2.78,-0.46,2.77,-0.47,0.47,0.63,0.33,3.24,3.24,3.23
68.01,2.79,-0.40,2.79,-0.39,0.39,0.56,0.27,3.17,3.18,3.18
68.69,2.81,-0.33,2.81,-0.31,0.31,0.49,0.21,3.12,3.13,3.13
69.37,2.83,-0.26,2.83,-0.24,0.24,0.42,0.16,3.06,3.07,3.08
70.07,2.85,-0.18,2.85,-0.16,0.16,0.36,0.10,3.01,3.02,3.02
70.77,2.87,-0.09,2.87,-0.09,0.09,0.29,0.05,2.96,2.96,2.95
71.48,2.89,-0.02,2.88,-0.02,0.02,0.22,-0.00,2.90,2.90,2.90
72.19,2.90,0.05,2.89,0.05,-0.05,0.16,-0.06,2.85,2.84,2.84
72.91,2.92,0.14,2.90,0.11,-0.11,0.09,-0.11,2.80,2.79,2.77
73.64,2.93,0.20,2.91,0.18,-0.18,0.02,-0.17,2.75,2.73,2.72
74.38,2.93,0.26,2.91,0.24,-0.24,-0.04,-0.22,2.68,2.67,2.66
75.12,2.93,0.31,2.92,0.30,-0.30,-0.11,-0.27,2.63,2.62,2.61
75.87,2.93,0.36,2.92,0.35,-0.35,-0.17,-0.33,2.57,2.57,2.56
76.63,2.92,0.41,2.92,0.41,-0.41,-0.24,-0.38,2.51,2.51,2.50
77.40,2.92,0.45,2.92,0.46,-0.46,-0.30,-0.44,2.46,2.46,2.46
78.17,2.91,0.50,2.92,0.51,-0.51,-0.37,-0.49,2.40,2.41,2.40
78.95,2.91,0.54,2.92,0.55,-0.55,-0.43,-0.55,2.35,2.36,2.36
79.74,2.91,0.59,2.91,0.60,-0.60,-0.50,-0.60,2.30,2.31,2.31
80.54,2.91,0.64,2.91,0.65,-0.65,-0.56,-0.66,2.26,2.26,2.26
81.35,2.91,0.70,2.90,0.69,-0.69,-0.63,-0.72,2.22,2.21,2.20
82.16,2.91,0.73,2.90,0.74,-0.74,-0.69,-0.78,2.17,2.16,2.17
82.98,2.91,0.79,2.89,0.78,-0.78,-0.75,-0.84,2.12,2.11,2.11
83.81,2.91,0.84,2.89,0.83,-0.83,-0.82,-0.90,2.07,2.06,2.06
84.65,2.90,0.89,2.89,0.88,-0.88,-0.88,-0.96,2.01,2.00,2.00
85.50,2.90,0.95,2.89,0.93,-0.93,-0.94,-1.02,1.96,1.95,1.94
86.35,2.89,0.99,2.89,0.99,-0.99,-1.01,-1.08,1.90,1.90,1.89
87.22,2.89,1.04,2.89,1.05,-1.05,-1.07,-1.15,1.84,1.84,1.84
88.09,2.88,1.09,2.90,1.11,-1.11,-1.13,-1.21,1.77,1.79,1.78
88.97,2.89,1.16,2.91,1.18,-1.18,-1.19,-1.28,1.71,1.73,1.72
89.86,2.91,1.23,2.92,1.25,-1.25,-1.25,-1.35,1.66,1.67,1.67
90.76,2.93,1.31,2.94,1.33,-1.33,-1.31,-1.41,1.60,1.61,1.61
91.66,2.94,1.39,2.96,1.41,-1.41,-1.38,-1.48,1.53,1.55,1.54
92.58,2.97,1.47,2.99,1.49,-1.49,-1.44,-1.55,1.47,1.49,1.49
93.51,3.00,1.55,3.01,1.58,-1.58,-1.50,-1.63,1.41,1.43,1.44
94.44,3.04,1.65,3.04,1.67,-1.67,-1.56,-1.70,1.36,1.37,1.38
95.39,3.08,1.76,3.07,1.76,-1.76,-1.62,-1.77,1.31,1.31,1.31
96.34,3.11,1.86,3.10,1.85,-1.85,-1.68,-1.85,1.25,1.25,1.24
97.30,3.15,1.96,3.12,1.94,-1.94,-1.74,-1.92,1.21,1.19,1.18
98.28,3.17,2.05,3.14,2.02,-2.02,-1.79,-2.00,1.15,1.13,1.11
99.26,3.18,2.12,3.15,2.09,-2.09,-1.85,-2.08,1.09,1.06,1.05
100.25,3.19,2.19,3.16,2.15,-2.15,-1.91,-2.15,1.03,1.01,0.99
101.25,3.18,2.23,3.16,2.21,-2.21,-1.97,-2.23,0.96,0.95,0.94
102.27,3.17,2.28,3.15,2.26,-2.26,-2.03,-2.31,0.90,0.89,0.88
103.29,3.16,2.33,3.13,2.30,-2.30,-2.08,-2.39,0.85,0.83,0.82
104.32,3.14,2.36,3.11,2.34,-2.34,-2.14,-2.47,0.80,0.77,0.77
105.37,3.11,2.39,3.08,2.37,-2.37,-2.20,-2.54,0.74,0.72,0.71
106.42,3.06,2.39,3.06,2.39,-2.39,-2.25,-2.62,0.66,0.66,0.66
107.48,3.02,2.41,3.03,2.42,-2.42,-2.31,-2.70,0.59,0.60,0.60
108.56,2.98,2.42,3.00,2.45,-2.45,-2.37,-2.77,0.52,0.55,0.55
109.64,2.95,2.45,2.97,2.48,-2.48,-2.42,-2.85,0.46,0.49,0.49
110.74,2.93,2.49,2.95,2.52,-2.52,-2.48,-2.92,0.41,0.43,0.43
111.85,2.90,2.52,2.93,2.56,-2.56,-2.53,-2.99,0.34,0.37,0.37
112.97,2.89,2.56,2.91,2.60,-2.60,-2.58,-3.06,0.28,0.31,0.32
114.10,2.88,2.61,2.90,2.65,-2.65,-2.64,-3.12,0.23,0.25,0.26
115.24,2.89,2.70,2.89,2.70,-2.70,-2.69,-3.18,0.19,0.20,0.18
116.39,2.90,2.77,2.89,2.75,-2.75,-2.74,-3.24,0.15,0.14,0.12
117.55,2.91,2.84,2.89,2.81,-2.81,-2.79,-3.30,0.10,0.08,0.06
118.73,2.91,2.90,2.89,2.87,-2.87,-2.85,-3.35,0.04,0.02,0.00
119.92,2.91,2.94,2.89,2.92,-2.92,-2.90,-3.40,-0.02,-0.03,-0.04
121.12,2.91,2.99,2.89,2.98,-2.98,-2.95,-3.45,-0.08,-0.09,-0.09
122.33,2.91,3.05,2.90,3.04,-3.04,-3.00,-3.49,-0.14,-0.15,-0.15
123.55,2.91,3.10,2.90,3.10,-3.10,-3.05,-3.52,-0.20,-0.20,-0.20
124.79,2.91,3.15,2.91,3.16,-3.16,-3.10,-3.56,-0.26,-0.26,-0.25
126.03,2.91,3.21,2.91,3.22,-3.22,-3.14,-3.58,-0.32,-0.31,-0.31
127.29,2.91,3.26,2.91,3.28,-3.28,-3.19,-3.61,-0.38,-0.37,-0.36
128.57,2.91,3.33,2.92,3.34,-3.34,-3.24,-3.63,-0.43,-0.42,-0.43
129.85,2.91,3.38,2.92,3.39,-3.39,-3.29,-3.64,-0.49,-0.48,-0.48
131.15,2.91,3.44,2.92,3.45,-3.45,-3.33,-3.65,-0.54,-0.53,-0.54
132.46,2.92,3.50,2.92,3.51,-3.51,-3.38,-3.66,-0.59,-0.59,-0.59
133.79,2.92,3.56,2.92,3.56,-3.56,-3.42,-3.67,-0.64,-0.64,-0.65
135.12,2.93,3.62,2.91,3.61,-3.61,-3.47,-3.67,-0.68,-0.69,-0.70
136.48,2.93,3.67,2.91,3.65,-3.65,-3.51,-3.67,-0.73,-0.75,-0.75
137.84,2.92,3.71,2.90,3.69,-3.69,-3.55,-3.66,-0.78,-0.80,-0.80
139.22,2.91,3.76,2.88,3.73,-3.73,-3.59,-3.66,-0.83,-0.85,-0.86
140.61,2.89,3.78,2.86,3.76,-3.76,-3.63,-3.65,-0.88,-0.90,-0.90
142.02,2.86,3.81,2.84,3.79,-3.79,-3.68,-3.64,-0.93,-0.95,-0.96
143.44,2.83,3.82,2.82,3.81,-3.81,-3.72,-3.63,-0.98,-0.99,-1.00
144.87,2.79,3.82,2.79,3.83,-3.83,-3.75,-3.62,-1.04,-1.04,-1.04
146.32,2.77,3.85,2.76,3.84,-3.84,-3.79,-3.61,-1.08,-1.08,-1.09
147.78,2.73,3.85,2.73,3.86,-3.86,-3.83,-3.60,-1.13,-1.13,-1.13
149.26,2.70,3.87,2.71,3.88,-3.88,-3.87,-3.58,-1.18,-1.17,-1.18
150.75,2.67,3.88,2.68,3.89,-3.89,-3.90,-3.57,-1.23,-1.21,-1.22
152.26,2.64,3.89,2.66,3.91,-3.91,-3.94,-3.56,-1.28,-1.26,-1.26
153.78,2.61,3.90,2.64,3.94,-3.94,-3.97,-3.56,-1.33,-1.30,-1.30
155.32,2.59,3.92,2.62,3.96,-3.96,-4.00,-3.55,-1.38,-1.34,-1.34
156.88,2.59,3.97,2.60,3.99,-3.99,-4.04,-3.54,-1.40,-1.39,-1.39
158.44,2.58,4.01,2.59,4.02,-4.02,-4.07,-3.54,-1.44,-1.43,-1.44
160.03,2.58,4.05,2.57,4.05,-4.05,-4.10,-3.54,-1.47,-1.48,-1.48
161.63,2.58,4.09,2.55,4.08,-4.08,-4.13,-3.54,-1.50,-1.52,-1.52
163.24,2.57,4.13,2.54,4.10,-4.10,-4.16,-3.54,-1.54,-1.57,-1.57
164.88,2.55,4.16,2.52,4.13,-4.13,-4.19,-3.54,-1.59,-1.61,-1.62
166.53,2.53,4.19,2.50,4.16,-4.16,-4.21,-3.55,-1.63,-1.66,-1.67
168.19,2.51,4.20,2.48,4.19,-4.19,-4.24,-3.56,-1.68,-1.71,-1.70
169.87,2.47,4.22,2.46,4.21,-4.21,-4.26,-3.57,-1.75,-1.75,-1.76
171.57,2.44,4.24,2.43,4.23,-4.23,-4.29,-3.59,-1.80,-1.80,-1.81
173.29,2.41,4.25,2.41,4.26,-4.26,-4.31,-3.61,-1.85,-1.85,-1.85
175.02,2.36,4.25,2.38,4.28,-4.28,-4.33,-3.63,-1.92,-1.90,-1.90
176.77,2.33,4.27,2.36,4.30,-4.30,-4.35,-3.65,-1.97,-1.94,-1.95
178.54,2.31,4.29,2.33,4.32,-4.32,-4.37,-3.68,-2.01,-1.99,-1.99
180.32,2.30,4.34,2.31,4.34,-4.34,-4.39,-3.71,-2.05,-2.03,-2.05
182.13,2.28,4.35,2.29,4.37,-4.37,-4.41,-3.74,-2.09,-2.08,-2.08
183.95,2.26,4.38,2.27,4.39,-4.39,-4.43,-3.77,-2.14,-2.13,-2.13
185.79,2.25,4.42,2.24,4.42,-4.42,-4.44,-3.81,-2.17,-2.17,-2.18
187.65,2.24,4.45,2.22,4.44,-4.44,-4.46,-3.85,-2.21,-2.22,-2.22
189.52,2.22,4.47,2.20,4.46,-4.46,-4.47,-3.90,-2.25,-2.26,-2.26
191.42,2.21,4.50,2.18,4.48,-4.48,-4.48,-3.94,-2.28,-2.30,-2.30
193.33,2.19,4.52,2.16,4.50,-4.50,-4.50,-3.99,-2.32,-2.34,-2.34
195.27,2.16,4.54,2.14,4.52,-4.52,-4.51,-4.04,-2.37,-2.38,-2.39
197.22,2.13,4.56,2.11,4.53,-4.53,-4.52,-4.09,-2.41,-2.42,-2.44
199.19,2.09,4.55,2.09,4.55,-4.55,-4.53,-4.15,-2.46,-2.46,-2.47
201.18,2.06,4.56,2.06,4.56,-4.56,-4.53,-4.20,-2.50,-2.49,-2.51
203.19,2.03,4.56,2.04,4.57,-4.57,-4.54,-4.26,-2.55,-2.53,-2.54
205.23,2.00,4.55,2.02,4.58,-4.58,-4.55,-4.32,-2.59,-2.56,-2.56
207.28,1.98,4.56,2.00,4.59,-4.59,-4.55,-4.38,-2.62,-2.59,-2.59
209.35,1.96,4.58,1.97,4.60,-4.60,-4.55,-4.44,-2.64,-2.63,-2.63
211.44,1.95,4.60,1.95,4.61,-4.61,-4.56,-4.50,-2.66,-2.66,-2.66
213.56,1.93,4.60,1.93,4.61,-4.61,-4.56,-4.56,-2.69,-2.68,-2.68
215.69,1.91,4.61,1.90,4.62,-4.62,-4.56,-4.62,-2.71,-2.71,-2.71
217.85,1.90,4.63,1.88,4.62,-4.62,-4.56,-4.68,-2.72,-2.74,-2.74
220.03,1.89,4.65,1.86,4.62,-4.62,-4.56,-4.74,-2.73,-2.76,-2.77
222.23,1.87,4.66,1.84,4.62,-4.62,-4.55,-4.79,-2.76,-2.78,-2.80
224.45,1.84,4.64,1.81,4.62,-4.62,-4.55,-4.84,-2.79,-2.81,-2.81
226.70,1.80,4.63,1.79,4.62,-4.62,-4.54,-4.89,-2.82,-2.83,-2.84
228.96,1.76,4.60,1.76,4.61,-4.61,-4.54,-4.94,-2.86,-2.85,-2.85
231.25,1.73,4.59,1.74,4.61,-4.61,-4.53,-4.98,-2.88,-2.87,-2.87
233.57,1.70,4.58,1.71,4.60,-4.60,-4.52,-5.02,-2.90,-2.88,-2.89
235.90,1.67,4.56,1.69,4.59,-4.59,-4.52,-5.05,-2.92,-2.90,-2.90
238.26,1.65,4.57,1.67,4.58,-4.58,-4.51,-5.08,-2.93,-2.91,-2.93
240.64,1.64,4.55,1.64,4.56,-4.56,-4.50,-5.10,-2.93,-2.92,-2.92
243.05,1.63,4.56,1.62,4.55,-4.55,-4.49,-5.11,-2.92,-2.93,-2.94
245.48,1.60,4.54,1.59,4.53,-4.53,-4.47,-5.12,-2.94,-2.94,-2.95
247.93,1.58,4.53,1.57,4.52,-4.52,-4.46,-5.13,-2.94,-2.95,-2.96
250.41,1.56,4.50,1.54,4.50,-4.50,-4.45,-5.12,-2.94,-2.95,-2.95
252.92,1.54,4.49,1.52,4.48,-4.48,-4.43,-5.11,-2.94,-2.96,-2.96
255.45,1.52,4.48,1.50,4.46,-4.46,-4.42,-5.10,-2.94,-2.96,-2.97
258.00,1.49,4.45,1.47,4.44,-4.44,-4.40,-5.07,-2.96,-2.97,-2.97
260.58,1.46,4.42,1.45,4.42,-4.42,-4.38,-5.04,-2.96,-2.97,-2.97
263.19,1.43,4.39,1.43,4.40,-4.40,-4.37,-5.01,-2.97,-2.97,-2.97
265.82,1.38,4.35,1.40,4.38,-4.38,-4.35,-4.97,-3.00,-2.98,-2.98
268.48,1.36,4.33,1.38,4.35,-4.35,-4.33,-4.92,-3.00,-2.98,-2.98
271.16,1.35,4.32,1.35,4.33,-4.33,-4.31,-4.87,-2.99,-2.98,-2.98
273.87,1.32,4.29,1.33,4.31,-4.31,-4.29,-4.81,-2.99,-2.98,-2.98
276.61,1.30,4.27,1.30,4.29,-4.29,-4.27,-4.75,-2.99,-2.98,-2.98
279.38,1.28,4.27,1.28,4.26,-4.26,-4.25,-4.69,-2.99,-2.98,-3.00
282.17,1.27,4.26,1.25,4.24,-4.24,-4.22,-4.63,-2.97,-2.98,-3.00
284.99,1.25,4.23,1.23,4.21,-4.21,-4.20,-4.56,-2.96,-2.98,-2.99
287.84,1.22,4.19,1.20,4.18,-4.18,-4.18,-4.49,-2.97,-2.98,-2.98
290.72,1.20,4.18,1.18,4.15,-4.15,-4.15,-4.41,-2.96,-2.98,-2.99
293.63,1.17,4.14,1.15,4.12,-4.12,-4.13,-4.34,-2.96,-2.97,-2.98
296.57,1.14,4.10,1.13,4.09,-4.09,-4.10,-4.27,-2.96,-2.97,-2.97
299.53,1.10,4.06,1.10,4.06,-4.06,-4.08,-4.19,-2.97,-2.96,-2.97
302.53,1.07,4.01,1.08,4.03,-4.03,-4.05,-4.12,-2.97,-2.96,-2.95
305.55,1.03,3.98,1.05,4.01,-4.01,-4.02,-4.04,-2.98,-2.95,-2.96
308.61,1.01,3.95,1.03,3.98,-3.98,-4.00,-3.97,-2.97,-2.95,-2.95
311.69,0.99,3.92,1.01,3.95,-3.95,-3.97,-3.90,-2.96,-2.94,-2.94
314.81,0.98,3.91,0.99,3.92,-3.92,-3.94,-3.83,-2.94,-2.93,-2.94
317.96,0.97,3.89,0.97,3.89,-3.89,-3.91,-3.76,-2.93,-2.92,-2.93
321.14,0.96,3.87,0.95,3.86,-3.86,-3.88,-3.69,-2.91,-2.92,-2.92
324.35,0.94,3.85,0.93,3.83,-3.83,-3.85,-3.62,-2.90,-2.91,-2.92
327.59,0.93,3.81,0.91,3.81,-3.81,-3.82,-3.55,-2.88,-2.90,-2.89
330.87,0.92,3.81,0.89,3.78,-3.78,-3.80,-3.49,-2.86,-2.89,-2.90
334.18,0.89,3.77,0.86,3.75,-3.75,-3.76,-3.43,-2.86,-2.89,-2.89
337.52,0.85,3.73,0.84,3.72,-3.72,-3.73,-3.37,-2.87,-2.88,-2.89
340.90,0.83,3.69,0.82,3.69,-3.69,-3.70,-3.31,-2.86,-2.87,-2.87
344.30,0.79,3.64,0.79,3.66,-3.66,-3.67,-3.26,-2.87,-2.86,-2.86
347.75,0.76,3.61,0.77,3.62,-3.62,-3.64,-3.21,-2.87,-2.85,-2.86
351.23,0.73,3.58,0.74,3.59,-3.59,-3.61,-3.16,-2.86,-2.85,-2.86
354.74,0.71,3.53,0.72,3.55,-3.55,-3.58,-3.11,-2.85,-2.84,-2.83
358.28,0.68,3.51,0.69,3.52,-3.52,-3.55,-3.07,-2.84,-2.83,-2.84
361.87,0.67,3.49,0.66,3.49,-3.49,-3.51,-3.03,-2.82,-2.82,-2.83
365.49,0.64,3.45,0.64,3.45,-3.45,-3.48,-2.99,-2.82,-2.82,-2.82
369.14,0.62,3.41,0.61,3.42,-3.42,-3.45,-2.95,-2.80,-2.81,-2.80
372.83,0.60,3.39,0.59,3.38,-3.38,-3.42,-2.91,-2.79,-2.80,-2.80
376.56,0.57,3.36,0.56,3.35,-3.35,-3.39,-2.88,-2.78,-2.79,-2.80
380.33,0.55,3.33,0.53,3.31,-3.31,-3.35,-2.85,-2.77,-2.78,-2.79
384.13,0.53,3.29,0.51,3.28,-3.28,-3.32,-2.82,-2.75,-2.77,-2.77
387.97,0.50,3.26,0.48,3.24,-3.24,-3.29,-2.79,-2.75,-2.76,-2.77
391.85,0.47,3.22,0.45,3.20,-3.20,-3.26,-2.77,-2.74,-2.75,-2.76
395.77,0.43,3.17,0.43,3.17,-3.17,-3.22,-2.75,-2.75,-2.74,-2.75
399.73,0.40,3.13,0.41,3.14,-3.14,-3.19,-2.73,-2.74,-2.73,-2.74
403.72,0.37,3.07,0.39,3.11,-3.11,-3.16,-2.71,-2.74,-2.72,-2.71
407.76,0.35,3.06,0.37,3.08,-3.08,-3.13,-2.69,-2.74,-2.71,-2.72
411.84,0.33,3.03,0.35,3.05,-3.05,-3.09,-2.67,-2.73,-2.70,-2.71
415.96,0.31,2.99,0.34,3.03,-3.03,-3.06,-2.66,-2.72,-2.69,-2.69
420.12,0.31,2.99,0.32,3.00,-3.00,-3.03,-2.65,-2.70,-2.68,-2.69
424.32,0.31,2.98,0.30,2.98,-2.98,-3.00,-2.64,-2.67,-2.67,-2.68
428.56,0.31,2.96,0.29,2.95,-2.95,-2.96,-2.63,-2.65,-2.67,-2.66
432.85,0.31,2.95,0.27,2.93,-2.93,-2.93,-2.62,-2.62,-2.66,-2.65
437.18,0.29,2.94,0.26,2.90,-2.90,-2.90,-2.61,-2.62,-2.65,-2.66
441.55,0.27,2.91,0.24,2.87,-2.87,-2.87,-2.60,-2.61,-2.64,-2.65
445.96,0.24,2.87,0.21,2.84,-2.84,-2.83,-2.59,-2.61,-2.63,-2.64
450.42,0.20,2.82,0.19,2.81,-2.81,-2.80,-2.58,-2.62,-2.62,-2.63
454.93,0.18,2.79,0.16,2.78,-2.78,-2.77,-2.57,-2.60,-2.61,-2.62
459.48,0.14,2.74,0.13,2.74,-2.74,-2.74,-2.57,-2.60,-2.60,-2.61
464.07,0.11,2.69,0.11,2.70,-2.70,-2.71,-2.56,-2.60,-2.59,-2.59
468.71,0.08,2.65,0.08,2.66,-2.66,-2.68,-2.55,-2.59,-2.59,-2.58
473.40,0.04,2.61,0.05,2.63,-2.63,-2.65,-2.54,-2.59,-2.58,-2.58
478.13,0.02,2.58,0.03,2.60,-2.60,-2.62,-2.53,-2.58,-2.57,-2.57
482.91,-0.01,2.54,0.01,2.57,-2.57,-2.59,-2.52,-2.58,-2.55,-2.56
487.74,-0.02,2.52,0.00,2.54,-2.54,-2.56,-2.51,-2.57,-2.54,-2.55
492.62,-0.03,2.50,-0.01,2.52,-2.52,-2.53,-2.50,-2.56,-2.53,-2.54
497.55,-0.03,2.49,-0.01,2.51,-2.51,-2.50,-2.49,-2.54,-2.52,-2.53
502.52,-0.03,2.48,-0.01,2.49,-2.49,-2.47,-2.48,-2.53,-2.51,-2.52
507.55,-0.02,2.47,-0.02,2.48,-2.48,-2.44,-2.46,-2.51,-2.50,-2.50
