frequency,raw,error,smoothed,error_smoothed,equalization,parametric_eq,fixed_band_eq,equalized_raw,equalized_smoothed,target
20.00,11.02,2.55,11.02,2.55,-2.56,-1.44,-0.73,8.46,8.46,8.47
20.20,10.98,2.51,10.98,2.52,-2.52,-1.44,-0.75,8.46,8.47,8.47
20.40,10.95,2.48,10.95,2.48,-2.48,-1.44,-0.78,8.47,8.47,8.47
20.61,10.91,2.44,10.91,2.45,-2.44,-1.44,-0.80,8.47,8.47,8.47
20.81,10.87,2.41,10.87,2.41,-2.41,-1.44,-0.82,8.46,8.47,8.46
21.02,10.84,2.38,10.83,2.37,-2.37,-1.44,-0.85,8.47,8.46,8.46
21.23,10.79,2.33,10.80,2.34,-2.34,-1.44,-0.87,8.45,8.46,8.46
21.44,10.76,2.29,10.76,2.30,-2.30,-1.44,-0.90,8.46,8.46,8.47
21.66,10.73,2.27,10.73,2.27,-2.27,-1.44,-0.92,8.46,8.45,8.46
21.87,10.69,2.23,10.69,2.24,-2.24,-1.45,-0.95,8.45,8.45,8.46
22.09,10.66,2.21,10.66,2.21,-2.21,-1.45,-0.98,8.45,8.45,8.45
22.31,10.63,2.18,10.63,2.18,-2.18,-1.45,-1.00,8.45,8.45,8.45
22.54,10.60,2.16,10.60,2.16,-2.16,-1.45,-1.03,8.45,8.44,8.44
22.76,10.56,2.12,10.56,2.13,-2.13,-1.45,-1.06,8.43,8.43,8.44
22.99,10.53,2.10,10.53,2.10,-2.11,-1.45,-1.09,8.42,8.42,8.43
23.22,10.50,2.08,10.50,2.08,-2.09,-1.45,-1.13,8.42,8.42,8.42
23.45,10.48,2.06,10.48,2.06,-2.06,-1.45,-1.16,8.42,8.42,8.42
23.69,10.45,2.04,10.45,2.05,-2.04,-1.46,-1.19,8.42,8.42,8.41
23.92,10.42,2.02,10.42,2.02,-2.01,-1.46,-1.22,8.41,8.41,8.40
24.16,10.39,1.99,10.39,1.99,-1.99,-1.46,-1.26,8.40,8.40,8.40
24.40,10.35,1.95,10.36,1.96,-1.96,-1.46,-1.29,8.39,8.39,8.40
24.65,10.33,1.93,10.33,1.93,-1.94,-1.46,-1.33,8.39,8.39,8.40
24.89,10.30,1.90,10.30,1.91,-1.91,-1.46,-1.36,8.39,8.39,8.40
25.14,10.27,1.88,10.27,1.89,-1.89,-1.46,-1.40,8.38,8.39,8.39
25.39,10.25,1.87,10.25,1.87,-1.86,-1.46,-1.43,8.39,8.39,8.38
25.65,10.22,1.84,10.22,1.85,-1.84,-1.46,-1.47,8.38,8.38,8.38
25.91,10.20,1.82,10.20,1.82,-1.82,-1.46,-1.50,8.39,8.38,8.38
26.16,10.17,1.78,10.17,1.79,-1.79,-1.46,-1.54,8.38,8.38,8.39
26.43,10.15,1.76,10.15,1.76,-1.77,-1.46,-1.57,8.39,8.38,8.39
26.69,10.12,1.73,10.12,1.74,-1.74,-1.47,-1.61,8.38,8.38,8.39
26.96,10.10,1.72,10.10,1.72,-1.71,-1.47,-1.64,8.39,8.38,8.38
27.23,10.07,1.69,10.07,1.69,-1.69,-1.47,-1.68,8.38,8.38,8.38
27.50,10.04,1.66,10.05,1.67,-1.67,-1.47,-1.71,8.37,8.38,8.38
27.77,10.02,1.63,10.02,1.64,-1.64,-1.47,-1.74,8.38,8.38,8.39
28.05,10.00,1.62,10.00,1.62,-1.62,-1.47,-1.77,8.38,8.37,8.38
28.33,9.97,1.60,9.97,1.60,-1.60,-1.47,-1.80,8.37,8.37,8.37
28.62,9.95,1.59,9.95,1.59,-1.58,-1.47,-1.83,8.37,8.37,8.36
28.90,9.92,1.55,9.92,1.56,-1.56,-1.47,-1.86,8.36,8.36,8.37
29.19,9.90,1.54,9.90,1.54,-1.54,-1.47,-1.88,8.36,8.35,8.36
29.48,9.87,1.52,9.87,1.52,-1.53,-1.46,-1.90,8.34,8.35,8.35
29.78,9.85,1.51,9.85,1.51,-1.51,-1.46,-1.92,8.34,8.34,8.34
30.08,9.82,1.48,9.82,1.49,-1.49,-1.46,-1.94,8.33,8.33,8.34
30.38,9.80,1.47,9.80,1.47,-1.47,-1.46,-1.96,8.33,8.33,8.33
30.68,9.77,1.45,9.77,1.45,-1.45,-1.46,-1.97,8.32,8.32,8.32
30.99,9.75,1.43,9.75,1.43,-1.43,-1.46,-1.98,8.32,8.32,8.32
31.30,9.72,1.40,9.72,1.41,-1.41,-1.46,-1.99,8.31,8.32,8.32
31.61,9.70,1.38,9.70,1.38,-1.38,-1.46,-2.00,8.32,8.31,8.32
31.93,9.67,1.36,9.67,1.36,-1.36,-1.45,-2.00,8.31,8.31,8.31
32.24,9.65,1.33,9.65,1.34,-1.34,-1.45,-2.01,8.31,8.31,8.32
32.57,9.63,1.32,9.63,1.32,-1.32,-1.45,-2.00,8.32,8.31,8.31
32.89,9.60,1.29,9.60,1.29,-1.30,-1.45,-2.00,8.31,8.31,8.31
33.22,9.58,1.27,9.58,1.27,-1.28,-1.44,-2.00,8.30,8.30,8.31
33.55,9.55,1.25,9.55,1.26,-1.26,-1.44,-1.99,8.29,8.29,8.30
33.89,9.53,1.24,9.53,1.25,-1.25,-1.44,-1.98,8.29,8.29,8.29
34.23,9.51,1.24,9.51,1.24,-1.23,-1.43,-1.97,8.28,8.28,8.27
34.57,9.49,1.22,9.49,1.22,-1.22,-1.43,-1.96,8.27,8.27,8.27
34.92,9.46,1.21,9.47,1.22,-1.22,-1.42,-1.95,8.25,8.25,8.25
35.27,9.44,1.20,9.44,1.21,-1.21,-1.42,-1.93,8.23,8.23,8.24
35.62,9.42,1.21,9.42,1.21,-1.21,-1.41,-1.92,8.21,8.21,8.21
35.97,9.39,1.20,9.39,1.21,-1.21,-1.41,-1.91,8.18,8.19,8.19
36.33,9.37,1.21,9.37,1.21,-1.21,-1.40,-1.89,8.16,8.16,8.16
36.70,9.34,1.21,9.34,1.22,-1.22,-1.40,-1.87,8.12,8.13,8.13
37.06,9.32,1.22,9.32,1.22,-1.22,-1.39,-1.86,8.10,8.10,8.10
37.43,9.30,1.23,9.30,1.23,-1.23,-1.39,-1.84,8.07,8.07,8.07
37.81,9.28,1.24,9.28,1.25,-1.25,-1.38,-1.82,8.04,8.04,8.04
38.19,9.26,1.26,9.26,1.26,-1.26,-1.38,-1.81,8.01,8.01,8.00
38.57,9.24,1.26,9.24,1.27,-1.27,-1.37,-1.79,7.97,7.97,7.98
38.95,9.22,1.27,9.22,1.28,-1.28,-1.37,-1.78,7.94,7.94,7.95
39.34,9.20,1.29,9.20,1.29,-1.29,-1.36,-1.76,7.91,7.92,7.91
39.74,9.18,1.30,9.18,1.30,-1.29,-1.36,-1.75,7.89,7.89,7.88
40.14,9.16,1.30,9.16,1.30,-1.30,-1.35,-1.73,7.86,7.86,7.86
40.54,9.13,1.29,9.14,1.30,-1.31,-1.35,-1.72,7.82,7.83,7.84
40.94,9.12,1.31,9.12,1.31,-1.31,-1.35,-1.71,7.81,7.80,7.81
41.35,9.10,1.32,9.10,1.32,-1.32,-1.35,-1.70,7.78,7.78,7.78
41.76,9.08,1.33,9.08,1.33,-1.32,-1.35,-1.69,7.76,7.76,7.75
42.18,9.06,1.32,9.06,1.33,-1.33,-1.35,-1.68,7.73,7.73,7.74
42.60,9.03,1.32,9.04,1.33,-1.33,-1.35,-1.67,7.70,7.71,7.71
43.03,9.02,1.34,9.02,1.33,-1.33,-1.36,-1.67,7.69,7.68,7.68
43.46,8.99,1.33,8.99,1.34,-1.34,-1.36,-1.66,7.66,7.66,7.66
43.90,8.97,1.33,8.97,1.34,-1.34,-1.37,-1.66,7.63,7.63,7.64
44.33,8.95,1.35,8.95,1.34,-1.34,-1.38,-1.66,7.61,7.61,7.60
44.78,8.93,1.35,8.93,1.35,-1.35,-1.39,-1.66,7.58,7.58,7.58
45.23,8.91,1.34,8.91,1.36,-1.36,-1.41,-1.66,7.55,7.55,7.57
45.68,8.89,1.36,8.89,1.37,-1.37,-1.42,-1.66,7.52,7.52,7.53
46.13,8.88,1.40,8.88,1.39,-1.39,-1.44,-1.66,7.50,7.49,7.48
46.60,8.85,1.39,8.86,1.40,-1.40,-1.46,-1.67,7.45,7.46,7.46
47.06,8.84,1.42,8.84,1.42,-1.42,-1.48,-1.67,7.42,7.42,7.42
47.53,8.82,1.43,8.82,1.44,-1.44,-1.50,-1.68,7.38,7.38,7.39
48.01,8.80,1.47,8.80,1.46,-1.47,-1.52,-1.69,7.34,7.34,7.33
48.49,8.78,1.48,8.78,1.49,-1.49,-1.54,-1.69,7.29,7.29,7.30
48.97,8.76,1.51,8.77,1.52,-1.52,-1.57,-1.70,7.24,7.24,7.25
49.46,8.75,1.54,8.75,1.55,-1.55,-1.59,-1.72,7.20,7.20,7.21
49.96,8.73,1.59,8.73,1.58,-1.58,-1.62,-1.73,7.15,7.15,7.14
50.46,8.70,1.60,8.71,1.61,-1.61,-1.65,-1.74,7.09,7.10,7.10
50.96,8.69,1.64,8.69,1.64,-1.63,-1.68,-1.75,7.06,7.05,7.05
51.47,8.67,1.66,8.67,1.67,-1.66,-1.71,-1.77,7.01,7.01,7.01
51.99,8.65,1.69,8.65,1.69,-1.68,-1.73,-1.78,6.97,6.97,6.96
52.51,8.63,1.71,8.63,1.70,-1.71,-1.76,-1.80,6.92,6.92,6.92
53.03,8.60,1.71,8.61,1.73,-1.73,-1.79,-1.81,6.87,6.87,6.89
53.56,8.58,1.74,8.58,1.75,-1.75,-1.82,-1.83,6.83,6.83,6.84
54.10,8.56,1.78,8.56,1.77,-1.78,-1.85,-1.85,6.78,6.78,6.78
54.64,8.53,1.79,8.53,1.80,-1.80,-1.88,-1.86,6.73,6.73,6.74
55.18,8.51,1.83,8.51,1.83,-1.82,-1.91,-1.88,6.69,6.69,6.68
55.74,8.49,1.85,8.49,1.85,-1.85,-1.94,-1.90,6.64,6.64,6.64
56.29,8.47,1.87,8.47,1.87,-1.87,-1.97,-1.91,6.60,6.60,6.60
56.86,8.44,1.88,8.44,1.89,-1.89,-2.00,-1.93,6.55,6.55,6.56
57.42,8.42,1.92,8.42,1.92,-1.91,-2.03,-1.95,6.51,6.51,6.50
58.00,8.40,1.94,8.40,1.94,-1.93,-2.05,-1.96,6.47,6.47,6.46
58.58,8.38,1.95,8.38,1.95,-1.95,-2.08,-1.98,6.43,6.43,6.43
59.16,8.35,1.96,8.35,1.97,-1.98,-2.11,-1.99,6.37,6.38,6.39
59.76,8.33,1.98,8.33,1.99,-2.01,-2.14,-2.01,6.33,6.33,6.35
60.35,8.31,2.03,8.31,2.03,-2.04,-2.17,-2.02,6.27,6.27,6.28
60.96,8.29,2.06,8.29,2.07,-2.07,-2.19,-2.03,6.22,6.22,6.23
61.57,8.26,2.11,8.27,2.11,-2.11,-2.22,-2.04,6.15,6.16,6.15
62.18,8.24,2.15,8.24,2.15,-2.15,-2.25,-2.05,6.09,6.09,6.09
62.80,8.22,2.19,8.22,2.20,-2.19,-2.27,-2.06,6.03,6.03,6.03
63.43,8.19,2.23,8.20,2.23,-2.22,-2.30,-2.07,5.97,5.97,5.96
64.07,8.17,2.26,8.17,2.26,-2.26,-2.32,-2.08,5.91,5.91,5.91
64.71,8.15,2.29,8.14,2.29,-2.29,-2.35,-2.09,5.86,5.86,5.86
65.35,8.11,2.30,8.12,2.31,-2.32,-2.37,-2.09,5.80,5.80,5.81
66.01,8.09,2.34,8.09,2.34,-2.34,-2.39,-2.10,5.75,5.75,5.75
66.67,8.06,2.35,8.06,2.36,-2.37,-2.42,-2.10,5.70,5.69,5.71
67.33,8.03,2.39,8.03,2.39,-2.39,-2.44,-2.11,5.64,5.64,5.64
68.01,8.00,2.41,8.00,2.42,-2.41,-2.46,-2.11,5.59,5.59,5.59
68.69,7.97,2.44,7.97,2.44,-2.44,-2.49,-2.11,5.53,5.53,5.53
69.37,7.94,2.46,7.94,2.46,-2.46,-2.51,-2.12,5.48,5.48,5.48
70.07,7.91,2.48,7.91,2.49,-2.49,-2.53,-2.12,5.42,5.42,5.43
70.77,7.88,2.51,7.88,2.51,-2.52,-2.55,-2.12,5.36,5.36,5.37
71.48,7.85,2.54,7.85,2.54,-2.55,-2.57,-2.13,5.31,5.30,5.31
72.19,7.81,2.57,7.82,2.57,-2.57,-2.59,-2.13,5.24,5.25,5.24
72.91,7.79,2.60,7.78,2.60,-2.60,-2.61,-2.14,5.19,5.19,5.19
73.64,7.75,2.63,7.75,2.63,-2.63,-2.63,-2.14,5.13,5.12,5.12
74.38,7.71,2.65,7.72,2.65,-2.65,-2.65,-2.15,5.06,5.07,5.06
75.12,7.68,2.67,7.68,2.67,-2.67,-2.66,-2.15,5.01,5.01,5.01
75.87,7.65,2.68,7.65,2.69,-2.69,-2.68,-2.16,4.96,4.96,4.97
76.63,7.62,2.71,7.62,2.72,-2.71,-2.70,-2.17,4.91,4.91,4.91
77.40,7.58,2.73,7.58,2.73,-2.73,-2.72,-2.18,4.85,4.85,4.85
78.17,7.55,2.76,7.55,2.75,-2.75,-2.73,-2.19,4.81,4.80,4.79
78.95,7.50,2.74,7.51,2.76,-2.76,-2.75,-2.20,4.74,4.75,4.76
79.74,7.47,2.77,7.47,2.77,-2.78,-2.76,-2.22,4.70,4.69,4.70
80.54,7.43,2.79,7.43,2.79,-2.79,-2.78,-2.23,4.64,4.64,4.64
81.35,7.40,2.80,7.40,2.80,-2.80,-2.79,-2.25,4.60,4.59,4.60
82.16,7.36,2.81,7.36,2.81,-2.82,-2.81,-2.27,4.54,4.54,4.55
82.98,7.31,2.82,7.32,2.83,-2.83,-2.82,-2.29,4.48,4.49,4.49
83.81,7.28,2.84,7.28,2.84,-2.84,-2.84,-2.31,4.44,4.44,4.44
84.65,7.24,2.86,7.24,2.86,-2.85,-2.85,-2.33,4.39,4.38,4.38
85.50,7.19,2.86,7.20,2.87,-2.87,-2.86,-2.36,4.32,4.33,4.33
86.35,7.16,2.88,7.16,2.88,-2.88,-2.88,-2.38,4.28,4.28,4.28
87.22,7.11,2.88,7.11,2.89,-2.89,-2.89,-2.41,4.22,4.22,4.23
88.09,7.07,2.90,7.07,2.90,-2.90,-2.90,-2.44,4.17,4.17,4.17
88.97,7.02,2.90,7.03,2.91,-2.91,-2.92,-2.48,4.11,4.11,4.12
89.86,6.99,2.93,6.98,2.93,-2.92,-2.93,-2.51,4.07,4.06,4.06
90.76,6.94,2.94,6.94,2.94,-2.94,-2.94,-2.55,4.01,4.01,4.00
91.66,6.89,2.94,6.90,2.95,-2.95,-2.96,-2.59,3.94,3.95,3.95
92.58,6.85,2.96,6.85,2.96,-2.96,-2.97,-2.63,3.89,3.89,3.89
93.51,6.80,2.97,6.80,2.97,-2.98,-2.98,-2.67,3.82,3.82,3.83
94.44,6.76,2.99,6.76,3.00,-3.00,-3.00,-2.71,3.76,3.76,3.77
95.39,6.71,3.01,6.71,3.01,-3.02,-3.01,-2.76,3.69,3.69,3.70
96.34,6.67,3.04,6.67,3.04,-3.04,-3.02,-2.80,3.63,3.63,3.63
97.30,6.62,3.05,6.62,3.07,-3.07,-3.04,-2.85,3.56,3.56,3.57
98.28,6.58,3.10,6.58,3.09,-3.09,-3.05,-2.90,3.49,3.49,3.48
99.26,6.52,3.11,6.53,3.12,-3.11,-3.06,-2.95,3.41,3.42,3.41
100.25,6.49,3.14,6.48,3.14,-3.13,-3.08,-3.01,3.36,3.35,3.35
101.25,6.43,3.14,6.43,3.15,-3.15,-3.09,-3.06,3.28,3.29,3.29
102.27,6.38,3.15,6.39,3.16,-3.16,-3.10,-3.11,3.22,3.22,3.23
103.29,6.34,3.18,6.34,3.17,-3.18,-3.12,-3.17,3.16,3.16,3.16
104.32,6.29,3.18,6.29,3.19,-3.19,-3.13,-3.22,3.10,3.10,3.11
105.37,6.25,3.20,6.25,3.20,-3.20,-3.14,-3.27,3.05,3.05,3.05
106.42,6.20,3.21,6.20,3.22,-3.21,-3.16,-3.33,2.99,2.99,2.99
107.48,6.15,3.23,6.15,3.23,-3.23,-3.17,-3.38,2.93,2.93,2.92
108.56,6.10,3.23,6.10,3.24,-3.24,-3.19,-3.43,2.87,2.87,2.87
109.64,6.06,3.24,6.06,3.25,-3.25,-3.20,-3.49,2.81,2.81,2.82
110.74,6.01,3.26,6.01,3.26,-3.26,-3.22,-3.54,2.75,2.75,2.75
111.85,5.96,3.27,5.96,3.27,-3.27,-3.23,-3.59,2.69,2.69,2.69
112.97,5.91,3.28,5.91,3.28,-3.29,-3.25,-3.63,2.62,2.62,2.63
114.10,5.86,3.29,5.86,3.30,-3.30,-3.26,-3.68,2.56,2.56,2.57
115.24,5.81,3.31,5.81,3.32,-3.32,-3.28,-3.72,2.49,2.49,2.50
116.39,5.76,3.34,5.76,3.34,-3.34,-3.29,-3.76,2.42,2.42,2.42
117.55,5.71,3.35,5.71,3.36,-3.36,-3.31,-3.79,2.36,2.36,2.36
118.73,5.66,3.38,5.66,3.38,-3.37,-3.32,-3.82,2.29,2.28,2.28
119.92,5.60,3.39,5.60,3.39,-3.39,-3.34,-3.85,2.21,2.21,2.21
121.12,5.55,3.40,5.55,3.41,-3.41,-3.35,-3.87,2.14,2.15,2.15
122.33,5.50,3.43,5.50,3.43,-3.43,-3.37,-3.89,2.08,2.08,2.07
123.55,5.45,3.44,5.45,3.44,-3.44,-3.38,-3.91,2.01,2.00,2.01
124.79,5.39,3.45,5.39,3.46,-3.46,-3.40,-3.91,1.93,1.93,1.94
126.03,5.33,3.46,5.34,3.47,-3.48,-3.41,-3.92,1.85,1.85,1.87
127.29,5.28,3.50,5.28,3.50,-3.50,-3.43,-3.92,1.78,1.78,1.78
128.57,5.23,3.52,5.23,3.52,-3.52,-3.44,-3.92,1.71,1.71,1.71
129.85,5.17,3.54,5.17,3.55,-3.54,-3.45,-3.91,1.63,1.63,1.63
131.15,5.12,3.56,5.12,3.56,-3.56,-3.47,-3.90,1.57,1.56,1.56
132.46,5.06,3.57,5.06,3.58,-3.57,-3.48,-3.89,1.49,1.49,1.49
133.79,5.01,3.58,5.01,3.58,-3.58,-3.50,-3.87,1.43,1.43,1.43
135.12,4.95,3.59,4.95,3.59,-3.59,-3.51,-3.84,1.36,1.37,1.36
136.48,4.90,3.58,4.90,3.59,-3.59,-3.52,-3.82,1.31,1.31,1.32
137.84,4.84,3.58,4.84,3.59,-3.59,-3.54,-3.79,1.25,1.25,1.26
139.22,4.79,3.60,4.79,3.59,-3.59,-3.55,-3.76,1.20,1.20,1.19
140.61,4.72,3.57,4.73,3.59,-3.58,-3.56,-3.73,1.14,1.15,1.15
142.02,4.67,3.57,4.67,3.58,-3.58,-3.57,-3.70,1.09,1.09,1.10
143.44,4.62,3.58,4.61,3.57,-3.57,-3.58,-3.66,1.05,1.04,1.04
144.87,4.55,3.55,4.56,3.56,-3.56,-3.60,-3.62,0.99,1.00,1.00
146.32,4.50,3.55,4.50,3.55,-3.55,-3.61,-3.59,0.95,0.95,0.95
147.78,4.44,3.54,4.44,3.54,-3.54,-3.62,-3.55,0.90,0.90,0.90
149.26,4.39,3.53,4.39,3.53,-3.53,-3.63,-3.51,0.86,0.85,0.86
150.75,4.32,3.52,4.33,3.52,-3.52,-3.64,-3.48,0.80,0.81,0.80
152.26,4.27,3.50,4.27,3.51,-3.51,-3.64,-3.44,0.76,0.76,0.77
153.78,4.21,3.50,4.21,3.50,-3.50,-3.65,-3.40,0.71,0.71,0.71
155.32,4.16,3.49,4.16,3.49,-3.49,-3.66,-3.37,0.67,0.67,0.67
156.88,4.09,3.47,4.10,3.48,-3.48,-3.67,-3.34,0.61,0.62,0.62
158.44,4.04,3.47,4.04,3.47,-3.47,-3.67,-3.30,0.57,0.57,0.57
160.03,3.98,3.46,3.98,3.46,-3.47,-3.68,-3.27,0.51,0.51,0.52
161.63,3.92,3.45,3.92,3.46,-3.46,-3.68,-3.25,0.46,0.46,0.47
163.24,3.86,3.46,3.86,3.46,-3.45,-3.68,-3.22,0.41,0.41,0.40
164.88,3.81,3.45,3.81,3.46,-3.45,-3.69,-3.19,0.36,0.36,0.36
166.53,3.75,3.45,3.75,3.45,-3.44,-3.69,-3.17,0.31,0.31,0.30
168.19,3.69,3.43,3.69,3.44,-3.44,-3.69,-3.15,0.25,0.25,0.26
169.87,3.63,3.42,3.63,3.43,-3.44,-3.69,-3.13,0.20,0.20,0.21
171.57,3.57,3.43,3.57,3.43,-3.43,-3.69,-3.12,0.14,0.14,0.14
173.29,3.52,3.43,3.52,3.43,-3.42,-3.69,-3.10,0.10,0.09,0.09
175.02,3.46,3.41,3.46,3.42,-3.42,-3.68,-3.09,0.04,0.05,0.05
176.77,3.41,3.41,3.41,3.41,-3.41,-3.68,-3.08,-0.00,-0.00,-0.00
178.54,3.35,3.40,3.35,3.41,-3.41,-3.68,-3.08,-0.06,-0.05,-0.05
180.32,3.30,3.41,3.30,3.40,-3.40,-3.67,-3.07,-0.10,-0.10,-0.11
182.13,3.24,3.39,3.24,3.40,-3.40,-3.66,-3.07,-0.15,-0.15,-0.15
183.95,3.19,3.38,3.19,3.39,-3.39,-3.66,-3.07,-0.20,-0.20,-0.19
185.79,3.14,3.39,3.14,3.38,-3.39,-3.65,-3.08,-0.25,-0.25,-0.25
187.65,3.09,3.38,3.09,3.39,-3.39,-3.64,-3.08,-0.30,-0.30,-0.29
189.52,3.04,3.38,3.04,3.39,-3.39,-3.63,-3.09,-0.35,-0.35,-0.34
191.42,3.00,3.39,3.00,3.39,-3.40,-3.62,-3.10,-0.40,-0.40,-0.39
193.33,2.96,3.40,2.96,3.40,-3.40,-3.61,-3.11,-0.44,-0.44,-0.44
195.27,2.92,3.41,2.92,3.41,-3.41,-3.59,-3.12,-0.49,-0.49,-0.49
197.22,2.88,3.42,2.88,3.42,-3.41,-3.58,-3.14,-0.53,-0.53,-0.54
199.19,2.84,3.41,2.84,3.42,-3.42,-3.56,-3.16,-0.58,-0.58,-0.57
201.18,2.80,3.42,2.80,3.42,-3.42,-3.55,-3.17,-0.62,-0.62,-0.62
203.19,2.77,3.42,2.77,3.42,-3.42,-3.53,-3.19,-0.65,-0.66,-0.65
205.23,2.73,3.42,2.73,3.42,-3.43,-3.51,-3.21,-0.69,-0.69,-0.69
207.28,2.70,3.42,2.70,3.42,-3.43,-3.49,-3.23,-0.72,-0.73,-0.72
209.35,2.66,3.42,2.66,3.42,-3.42,-3.47,-3.26,-0.76,-0.76,-0.76
211.44,2.62,3.42,2.62,3.42,-3.42,-3.45,-3.28,-0.80,-0.80,-0.80
213.56,2.58,3.42,2.58,3.42,-3.42,-3.43,-3.30,-0.84,-0.84,-0.84
215.69,2.54,3.41,2.54,3.42,-3.41,-3.41,-3.32,-0.87,-0.87,-0.87
217.85,2.50,3.40,2.50,3.41,-3.41,-3.38,-3.34,-0.91,-0.91,-0.90
220.03,2.46,3.40,2.46,3.40,-3.40,-3.36,-3.36,-0.93,-0.93,-0.94
222.23,2.42,3.38,2.42,3.39,-3.38,-3.33,-3.38,-0.96,-0.96,-0.96
224.45,2.38,3.37,2.38,3.37,-3.37,-3.31,-3.40,-0.99,-0.99,-0.99
226.70,2.33,3.35,2.34,3.35,-3.36,-3.28,-3.41,-1.02,-1.02,-1.02
228.96,2.29,3.33,2.29,3.33,-3.34,-3.25,-3.43,-1.05,-1.05,-1.04
231.25,2.25,3.31,2.25,3.31,-3.32,-3.22,-3.44,-1.07,-1.07,-1.06
233.57,2.20,3.29,2.21,3.30,-3.30,-3.19,-3.44,-1.10,-1.09,-1.09
235.90,2.16,3.28,2.16,3.28,-3.28,-3.16,-3.45,-1.11,-1.12,-1.12
238.26,2.11,3.26,2.11,3.25,-3.25,-3.13,-3.45,-1.14,-1.14,-1.15
240.64,2.06,3.21,2.07,3.23,-3.22,-3.10,-3.45,-1.16,-1.16,-1.15
243.05,2.02,3.19,2.01,3.19,-3.19,-3.07,-3.44,-1.17,-1.18,-1.17
245.48,1.96,3.16,1.96,3.16,-3.16,-3.03,-3.43,-1.20,-1.20,-1.20
247.93,1.91,3.13,1.91,3.13,-3.12,-3.00,-3.41,-1.21,-1.21,-1.22
250.41,1.86,3.08,1.86,3.09,-3.09,-2.96,-3.39,-1.22,-1.23,-1.22
252.92,1.81,3.04,1.81,3.05,-3.05,-2.93,-3.37,-1.24,-1.24,-1.23
255.45,1.75,3.00,1.75,3.00,-3.01,-2.89,-3.34,-1.26,-1.25,-1.25
258.00,1.70,2.96,1.70,2.97,-2.97,-2.86,-3.31,-1.27,-1.26,-1.26
260.58,1.65,2.92,1.65,2.93,-2.93,-2.82,-3.27,-1.28,-1.28,-1.27
263.19,1.60,2.89,1.60,2.89,-2.89,-2.78,-3.23,-1.28,-1.29,-1.29
265.82,1.54,2.84,1.55,2.85,-2.85,-2.75,-3.19,-1.30,-1.30,-1.30
268.48,1.49,2.80,1.49,2.81,-2.81,-2.71,-3.14,-1.31,-1.32,-1.31
271.16,1.44,2.77,1.43,2.76,-2.77,-2.67,-3.09,-1.32,-1.33,-1.33
273.87,1.37,2.71,1.38,2.72,-2.72,-2.63,-3.03,-1.35,-1.35,-1.34
276.61,1.32,2.68,1.32,2.69,-2.68,-2.59,-2.97,-1.36,-1.36,-1.36
279.38,1.26,2.64,1.27,2.64,-2.64,-2.55,-2.91,-1.38,-1.37,-1.38
282.17,1.22,2.61,1.21,2.60,-2.60,-2.51,-2.85,-1.38,-1.38,-1.39
284.99,1.16,2.54,1.16,2.55,-2.55,-2.47,-2.78,-1.39,-1.39,-1.38
287.84,1.10,2.49,1.11,2.51,-2.51,-2.43,-2.72,-1.41,-1.40,-1.39
290.72,1.06,2.48,1.06,2.46,-2.46,-2.39,-2.65,-1.40,-1.41,-1.42
293.63,1.00,2.41,1.00,2.42,-2.42,-2.35,-2.58,-1.42,-1.42,-1.41
296.57,0.95,2.37,0.95,2.37,-2.37,-2.31,-2.51,-1.42,-1.42,-1.42
299.53,0.89,2.32,0.89,2.32,-2.32,-2.27,-2.44,-1.43,-1.43,-1.43
302.53,0.84,2.27,0.84,2.28,-2.28,-2.23,-2.37,-1.44,-1.44,-1.43
305.55,0.79,2.23,0.79,2.23,-2.23,-2.18,-2.30,-1.44,-1.44,-1.44
308.61,0.73,2.17,0.73,2.18,-2.18,-2.14,-2.22,-1.45,-1.45,-1.44
311.69,0.68,2.13,0.68,2.13,-2.13,-2.10,-2.15,-1.45,-1.45,-1.45
314.81,0.63,2.08,0.63,2.08,-2.08,-2.06,-2.08,-1.45,-1.45,-1.45
317.96,0.58,2.04,0.58,2.04,-2.04,-2.01,-2.01,-1.45,-1.45,-1.46
321.14,0.53,1.98,0.53,1.99,-1.99,-1.97,-1.94,-1.46,-1.46,-1.45
324.35,0.47,1.94,0.47,1.93,-1.94,-1.93,-1.87,-1.47,-1.46,-1.47
327.59,0.42,1.87,0.42,1.88,-1.89,-1.88,-1.80,-1.47,-1.47,-1.45
330.87,0.37,1.83,0.37,1.83,-1.84,-1.84,-1.73,-1.46,-1.47,-1.46
334.18,0.32,1.79,0.32,1.79,-1.78,-1.79,-1.66,-1.46,-1.46,-1.47
337.52,0.27,1.73,0.27,1.74,-1.73,-1.75,-1.60,-1.46,-1.46,-1.46
340.90,0.22,1.69,0.22,1.68,-1.68,-1.71,-1.53,-1.46,-1.46,-1.47
344.30,0.16,1.62,0.17,1.63,-1.63,-1.66,-1.46,-1.47,-1.47,-1.46
347.75,0.11,1.56,0.12,1.58,-1.58,-1.62,-1.40,-1.47,-1.46,-1.45
351.23,0.07,1.54,0.07,1.52,-1.53,-1.57,-1.34,-1.46,-1.46,-1.47
354.74,0.02,1.47,0.02,1.48,-1.48,-1.53,-1.28,-1.46,-1.46,-1.45
358.28,-0.04,1.42,-0.03,1.43,-1.43,-1.48,-1.21,-1.47,-1.46,-1.46
361.87,-0.08,1.38,-0.08,1.38,-1.38,-1.44,-1.15,-1.46,-1.46,-1.46
365.49,-0.13,1.33,-0.13,1.33,-1.33,-1.39,-1.09,-1.46,-1.46,-1.46
369.14,-0.18,1.27,-0.18,1.28,-1.28,-1.35,-1.04,-1.46,-1.46,-1.45
372.83,-0.22,1.23,-0.22,1.23,-1.23,-1.30,-0.98,-1.45,-1.46,-1.45
376.56,-0.28,1.18,-0.27,1.19,-1.19,-1.26,-0.92,-1.46,-1.46,-1.46
380.33,-0.32,1.14,-0.32,1.14,-1.14,-1.21,-0.87,-1.46,-1.46,-1.46
384.13,-0.37,1.09,-0.37,1.09,-1.09,-1.17,-0.81,-1.46,-1.46,-1.46
387.97,-0.42,1.03,-0.42,1.04,-1.04,-1.12,-0.76,-1.46,-1.46,-1.45
391.85,-0.47,0.99,-0.47,0.99,-0.99,-1.07,-0.71,-1.46,-1.46,-1.46
395.77,-0.52,0.94,-0.52,0.95,-0.94,-1.03,-0.65,-1.46,-1.46,-1.46
399.73,-0.56,0.90,-0.56,0.90,-0.90,-0.98,-0.60,-1.45,-1.46,-1.46
403.72,-0.61,0.84,-0.61,0.85,-0.85,-0.94,-0.55,-1.46,-1.46,-1.45
407.76,-0.66,0.79,-0.65,0.80,-0.80,-0.89,-0.51,-1.46,-1.45,-1.45
411.84,-0.70,0.75,-0.70,0.75,-0.75,-0.84,-0.46,-1.45,-1.46,-1.45
415.96,-0.75,0.70,-0.75,0.71,-0.71,-0.80,-0.41,-1.45,-1.45,-1.45
420.12,-0.80,0.66,-0.80,0.66,-0.66,-0.75,-0.36,-1.46,-1.46,-1.46
424.32,-0.84,0.62,-0.84,0.62,-0.62,-0.70,-0.32,-1.45,-1.46,-1.46
428.56,-0.89,0.56,-0.89,0.57,-0.57,-0.66,-0.27,-1.46,-1.46,-1.45
432.85,-0.93,0.52,-0.93,0.52,-0.53,-0.61,-0.23,-1.46,-1.46,-1.45
437.18,-0.98,0.48,-0.98,0.48,-0.49,-0.56,-0.19,-1.46,-1.46,-1.46
441.55,-1.02,0.44,-1.02,0.44,-0.44,-0.51,-0.15,-1.46,-1.46,-1.46
445.96,-1.07,0.40,-1.07,0.40,-0.40,-0.47,-0.11,-1.47,-1.47,-1.47
450.42,-1.12,0.35,-1.11,0.36,-0.35,-0.42,-0.07,-1.47,-1.47,-1.47
454.93,-1.16,0.31,-1.16,0.31,-0.31,-0.37,-0.03,-1.46,-1.47,-1.47
459.48,-1.21,0.26,-1.21,0.26,-0.26,-0.32,0.01,-1.47,-1.47,-1.47
464.07,-1.26,0.20,-1.25,0.21,-0.21,-0.28,0.04,-1.47,-1.47,-1.46
468.71,-1.30,0.16,-1.30,0.16,-0.17,-0.23,0.07,-1.47,-1.47,-1.46
473.40,-1.34,0.12,-1.34,0.12,-0.12,-0.18,0.11,-1.46,-1.47,-1.46
478.13,-1.39,0.07,-1.38,0.08,-0.08,-0.13,0.14,-1.47,-1.46,-1.46
482.91,-1.42,0.04,-1.42,0.04,-0.04,-0.08,0.17,-1.46,-1.46,-1.46
487.74,-1.47,-0.01,-1.47,-0.00,0.01,-0.04,0.20,-1.46,-1.46,-1.46
492.62,-1.51,-0.05,-1.51,-0.04,0.05,0.01,0.23,-1.46,-1.46,-1.46
497.55,-1.55,-0.09,-1.55,-0.09,0.09,0.06,0.25,-1.45,-1.46,-1.46
502.52,-1.60,-0.14,-1.60,-0.13,0.14,0.11,0.28,-1.46,-1.46,-1.46
507.55,-1.64,-0.19,-1.64,-0.18,0.18,0.16,0.30,-1.46,-1.45,-1.45
