frequency,raw,error,smoothed,error_smoothed,equalization,parametric_eq,fixed_band_eq,equalized_raw,equalized_smoothed,target
20.00,-43.02,-35.40,-43.36,-35.77,35.77,35.50,19.72,-7.24,-7.59,-7.62
20.20,-43.21,-35.64,-43.45,-35.90,35.90,35.53,19.97,-7.31,-7.55,-7.57
20.40,-43.40,-35.88,-43.52,-36.00,36.00,35.56,20.22,-7.40,-7.52,-7.52
20.61,-43.57,-36.08,-43.58,-36.09,36.09,35.58,20.49,-7.48,-7.48,-7.49
20.81,-43.77,-36.33,-43.62,-36.17,36.17,35.61,20.75,-7.60,-7.45,-7.44
21.02,-43.94,-36.54,-43.65,-36.22,36.22,35.63,21.03,-7.71,-7.43,-7.40
21.23,-43.93,-36.55,-43.67,-36.27,36.27,35.66,21.31,-7.66,-7.40,-7.38
21.44,-43.92,-36.56,-43.67,-36.29,36.29,35.68,21.59,-7.62,-7.38,-7.36
21.66,-43.91,-36.57,-43.66,-36.30,36.30,35.70,21.89,-7.60,-7.36,-7.34
21.87,-43.89,-36.57,-43.64,-36.30,36.30,35.71,22.19,-7.60,-7.34,-7.33
22.09,-43.82,-36.51,-43.60,-36.28,36.28,35.73,22.49,-7.55,-7.32,-7.31
22.31,-43.65,-36.35,-43.55,-36.24,36.24,35.75,22.81,-7.41,-7.31,-7.30
22.54,-43.50,-36.20,-43.40,-36.10,36.10,35.76,23.13,-7.40,-7.30,-7.30
22.76,-43.32,-36.02,-43.25,-35.95,35.95,35.77,23.47,-7.37,-7.30,-7.30
22.99,-43.17,-35.86,-43.11,-35.81,35.81,35.78,23.81,-7.36,-7.30,-7.31
23.22,-42.95,-35.64,-42.97,-35.67,35.67,35.79,24.16,-7.27,-7.30,-7.31
23.45,-42.73,-35.42,-42.86,-35.57,35.57,35.79,24.52,-7.17,-7.30,-7.31
23.69,-42.52,-35.22,-42.79,-35.49,35.49,35.80,24.89,-7.03,-7.30,-7.30
23.92,-42.31,-35.01,-42.74,-35.44,35.44,35.80,25.28,-6.87,-7.30,-7.30
24.16,-42.35,-35.05,-42.71,-35.41,35.41,35.80,25.67,-6.94,-7.30,-7.30
24.40,-42.51,-35.22,-42.69,-35.39,35.39,35.80,26.08,-7.12,-7.30,-7.29
24.65,-42.65,-35.35,-42.69,-35.39,35.39,35.79,26.51,-7.27,-7.30,-7.30
24.89,-42.82,-35.52,-42.70,-35.40,35.40,35.79,26.95,-7.42,-7.30,-7.30
25.14,-42.93,-35.63,-42.73,-35.43,35.43,35.78,27.41,-7.50,-7.30,-7.30
25.39,-43.01,-35.72,-42.79,-35.50,35.50,35.77,27.88,-7.51,-7.30,-7.29
25.65,-43.09,-35.80,-42.88,-35.58,35.58,35.76,28.38,-7.50,-7.30,-7.29
25.91,-43.15,-35.85,-42.97,-35.68,35.68,35.75,28.89,-7.48,-7.30,-7.30
26.16,-43.11,-35.81,-43.05,-35.75,35.75,35.74,29.43,-7.36,-7.30,-7.30
26.43,-43.02,-35.72,-43.10,-35.80,35.80,35.72,30.00,-7.21,-7.30,-7.30
26.69,-42.91,-35.61,-43.12,-35.82,35.82,35.70,30.59,-7.09,-7.30,-7.30
26.96,-42.81,-35.51,-43.10,-35.80,35.80,35.68,31.22,-7.01,-7.30,-7.30
27.23,-42.91,-35.61,-43.05,-35.74,35.74,35.66,31.88,-7.17,-7.30,-7.30
27.50,-43.08,-35.78,-42.98,-35.68,35.68,35.64,32.57,-7.40,-7.31,-7.30
27.77,-43.23,-35.92,-42.91,-35.60,35.60,35.62,33.31,-7.63,-7.31,-7.31
28.05,-43.29,-35.98,-42.82,-35.51,35.51,35.59,34.10,-7.78,-7.31,-7.31
28.33,-42.98,-35.66,-42.73,-35.42,35.42,35.56,34.95,-7.56,-7.31,-7.32
28.62,-42.68,-35.36,-42.64,-35.32,35.32,35.53,35.85,-7.36,-7.31,-7.32
28.90,-42.36,-35.05,-42.55,-35.24,35.24,35.50,36.82,-7.12,-7.31,-7.31
29.19,-42.23,-34.91,-42.48,-35.16,35.16,35.47,37.87,-7.06,-7.31,-7.32
29.48,-42.19,-34.88,-42.41,-35.09,35.09,35.43,38.99,-7.10,-7.32,-7.31
29.78,-42.16,-34.84,-42.33,-35.01,35.01,35.39,40.18,-7.14,-7.32,-7.32
30.08,-42.12,-34.81,-42.24,-34.93,34.93,35.35,41.42,-7.19,-7.32,-7.31
30.38,-42.09,-34.77,-42.15,-34.83,34.83,35.31,42.64,-7.26,-7.32,-7.32
30.68,-42.05,-34.73,-42.05,-34.73,34.73,35.27,43.71,-7.31,-7.32,-7.32
30.99,-42.02,-34.70,-41.97,-34.64,34.64,35.23,44.43,-7.37,-7.32,-7.32
31.30,-42.03,-34.70,-41.90,-34.58,34.58,35.18,44.61,-7.45,-7.33,-7.33
31.61,-42.04,-34.71,-41.87,-34.55,34.55,35.14,44.22,-7.49,-7.33,-7.33
31.93,-42.06,-34.73,-41.86,-34.53,34.53,35.09,43.43,-7.53,-7.33,-7.33
32.24,-41.94,-34.60,-41.85,-34.51,34.51,35.04,42.45,-7.43,-7.34,-7.34
32.57,-41.80,-34.46,-41.82,-34.48,34.48,34.99,41.43,-7.31,-7.34,-7.34
32.89,-41.66,-34.32,-41.79,-34.44,34.44,34.93,40.44,-7.21,-7.34,-7.34
33.22,-41.58,-34.23,-41.75,-34.40,34.40,34.88,39.52,-7.18,-7.35,-7.35
33.55,-41.53,-34.18,-41.70,-34.34,34.34,34.82,38.67,-7.18,-7.35,-7.35
33.89,-41.48,-34.12,-41.63,-34.28,34.28,34.77,37.90,-7.20,-7.36,-7.36
34.23,-41.54,-34.18,-41.57,-34.21,34.21,34.71,37.20,-7.33,-7.36,-7.36
34.57,-41.67,-34.30,-41.50,-34.14,34.14,34.65,36.56,-7.53,-7.37,-7.37
34.92,-41.78,-34.41,-41.44,-34.07,34.07,34.58,35.98,-7.71,-7.37,-7.37
35.27,-41.66,-34.28,-41.39,-34.02,34.02,34.52,35.46,-7.64,-7.37,-7.38
35.62,-41.46,-34.08,-41.36,-33.98,33.98,34.46,34.97,-7.47,-7.38,-7.38
35.97,-41.24,-33.86,-41.34,-33.96,33.96,34.39,34.53,-7.28,-7.38,-7.38
36.33,-41.15,-33.77,-41.33,-33.95,33.95,34.32,34.13,-7.21,-7.38,-7.38
36.70,-41.08,-33.69,-41.31,-33.93,33.93,34.26,33.76,-7.15,-7.38,-7.39
37.06,-41.02,-33.63,-41.29,-33.90,33.90,34.19,33.42,-7.11,-7.38,-7.39
37.43,-41.10,-33.72,-41.25,-33.86,33.86,34.12,33.10,-7.23,-7.38,-7.38
37.81,-41.18,-33.80,-41.19,-33.81,33.81,34.04,32.82,-7.37,-7.38,-7.38
38.19,-41.23,-33.84,-41.11,-33.73,33.73,33.97,32.55,-7.49,-7.38,-7.39
38.57,-41.26,-33.88,-41.04,-33.66,33.66,33.90,32.31,-7.60,-7.38,-7.38
38.95,-41.28,-33.91,-40.99,-33.61,33.61,33.82,32.10,-7.67,-7.38,-7.37
39.34,-41.17,-33.79,-40.98,-33.60,33.60,33.74,31.90,-7.58,-7.38,-7.38
39.74,-41.06,-33.68,-40.97,-33.59,33.59,33.67,31.72,-7.47,-7.38,-7.38
40.14,-40.93,-33.55,-40.95,-33.57,33.57,33.59,31.55,-7.36,-7.38,-7.38
40.54,-40.77,-33.39,-40.92,-33.53,33.53,33.51,31.41,-7.23,-7.38,-7.38
40.94,-40.61,-33.22,-40.87,-33.48,33.48,33.43,31.28,-7.12,-7.39,-7.39
41.35,-40.55,-33.16,-40.80,-33.41,33.41,33.34,31.16,-7.14,-7.39,-7.39
41.76,-40.51,-33.11,-40.73,-33.33,33.33,33.26,31.06,-7.18,-7.40,-7.40
42.18,-40.58,-33.18,-40.65,-33.24,33.24,33.18,30.98,-7.33,-7.41,-7.40
42.60,-40.79,-33.38,-40.57,-33.16,33.16,33.09,30.91,-7.63,-7.42,-7.41
43.03,-40.96,-33.54,-40.50,-33.07,33.07,33.01,30.85,-7.89,-7.43,-7.42
43.46,-40.71,-33.28,-40.44,-33.00,33.00,32.92,30.80,-7.70,-7.44,-7.43
43.90,-40.45,-33.00,-40.40,-32.95,32.95,32.83,30.77,-7.50,-7.45,-7.45
44.33,-40.28,-32.81,-40.37,-32.91,32.91,32.74,30.75,-7.38,-7.46,-7.47
44.78,-40.15,-32.66,-40.34,-32.86,32.86,32.65,30.75,-7.29,-7.48,-7.49
45.23,-40.09,-32.59,-40.30,-32.80,32.80,32.56,30.76,-7.28,-7.49,-7.50
45.68,-40.11,-32.60,-40.24,-32.74,32.74,32.47,30.78,-7.37,-7.50,-7.51
46.13,-40.11,-32.58,-40.17,-32.65,32.65,32.38,30.81,-7.45,-7.52,-7.53
46.60,-40.05,-32.52,-40.09,-32.55,32.55,32.28,30.86,-7.49,-7.53,-7.53
47.06,-40.01,-32.46,-40.01,-32.46,32.46,32.19,30.91,-7.54,-7.55,-7.55
47.53,-40.07,-32.51,-39.94,-32.38,32.38,32.10,30.99,-7.69,-7.56,-7.56
48.01,-40.14,-32.58,-39.88,-32.30,32.30,32.00,31.07,-7.83,-7.58,-7.56
48.49,-39.97,-32.39,-39.83,-32.24,32.24,31.90,31.17,-7.73,-7.59,-7.58
48.97,-39.80,-32.20,-39.78,-32.18,32.18,31.81,31.28,-7.62,-7.60,-7.60
49.46,-39.66,-32.04,-39.72,-32.10,32.10,31.71,31.40,-7.55,-7.62,-7.62
49.96,-39.53,-31.89,-39.65,-32.02,32.02,31.61,31.54,-7.50,-7.63,-7.64
50.46,-39.48,-31.83,-39.58,-31.94,31.94,31.51,31.69,-7.54,-7.64,-7.65
50.96,-39.44,-31.78,-39.50,-31.84,31.84,31.41,31.85,-7.59,-7.66,-7.66
51.47,-39.45,-31.77,-39.41,-31.74,31.74,31.31,32.03,-7.71,-7.67,-7.68
51.99,-39.46,-31.77,-39.31,-31.63,31.63,31.21,32.23,-7.83,-7.68,-7.69
52.51,-39.24,-31.54,-39.22,-31.53,31.53,31.10,32.43,-7.71,-7.70,-7.70
53.03,-39.02,-31.32,-39.14,-31.43,31.43,31.00,32.65,-7.59,-7.71,-7.70
53.56,-39.04,-31.32,-39.06,-31.34,31.34,30.90,32.89,-7.70,-7.72,-7.72
54.10,-39.05,-31.32,-38.99,-31.26,31.26,30.79,33.13,-7.79,-7.73,-7.73
54.64,-38.98,-31.23,-38.93,-31.18,31.18,30.69,33.39,-7.79,-7.74,-7.75
55.18,-38.87,-31.12,-38.85,-31.10,31.10,30.58,33.67,-7.78,-7.75,-7.75
55.74,-38.72,-30.95,-38.76,-31.00,31.00,30.47,33.95,-7.72,-7.76,-7.77
56.29,-38.60,-30.82,-38.68,-30.90,30.90,30.37,34.23,-7.70,-7.78,-7.78
56.86,-38.50,-30.71,-38.59,-30.79,30.79,30.26,34.52,-7.70,-7.79,-7.79
57.42,-38.52,-30.70,-38.49,-30.69,30.69,30.15,34.82,-7.83,-7.81,-7.82
58.00,-38.58,-30.75,-38.41,-30.58,30.58,30.04,35.10,-7.99,-7.83,-7.83
58.58,-38.39,-30.55,-38.33,-30.48,30.48,29.93,35.37,-7.91,-7.85,-7.84
59.16,-38.23,-30.37,-38.24,-30.37,30.37,29.82,35.62,-7.86,-7.87,-7.86
59.76,-38.15,-30.27,-38.15,-30.24,30.24,29.71,35.84,-7.90,-7.90,-7.88
60.35,-38.02,-30.10,-38.05,-30.12,30.12,29.60,36.02,-7.91,-7.93,-7.92
60.96,-37.87,-29.91,-37.95,-29.99,29.99,29.49,36.14,-7.88,-7.97,-7.96
61.57,-37.86,-29.86,-37.86,-29.86,29.86,29.37,36.20,-8.00,-8.00,-8.00
62.18,-37.82,-29.78,-37.77,-29.73,29.73,29.26,36.19,-8.09,-8.04,-8.04
62.80,-37.67,-29.58,-37.67,-29.59,29.59,29.15,36.10,-8.07,-8.08,-8.09
63.43,-37.58,-29.45,-37.58,-29.45,29.45,29.03,35.94,-8.12,-8.12,-8.13
64.07,-37.52,-29.34,-37.48,-29.31,29.31,28.92,35.71,-8.21,-8.17,-8.18
64.71,-37.38,-29.16,-37.38,-29.17,29.17,28.80,35.42,-8.21,-8.21,-8.22
65.35,-37.28,-29.02,-37.31,-29.05,29.05,28.68,35.07,-8.23,-8.26,-8.26
66.01,-37.22,-28.91,-37.22,-28.92,28.92,28.57,34.68,-8.30,-8.31,-8.31
66.67,-37.09,-28.73,-37.14,-28.78,28.78,28.45,34.25,-8.31,-8.36,-8.36
67.33,-37.01,-28.60,-37.05,-28.65,28.65,28.33,33.80,-8.36,-8.40,-8.41
68.01,-36.97,-28.52,-36.97,-28.51,28.51,28.21,33.34,-8.45,-8.45,-8.45
68.69,-36.95,-28.45,-36.87,-28.37,28.37,28.09,32.87,-8.57,-8.50,-8.50
69.37,-36.84,-28.29,-36.79,-28.23,28.23,27.97,32.41,-8.61,-8.55,-8.55
70.07,-36.69,-28.09,-36.71,-28.10,28.10,27.85,31.94,-8.58,-8.61,-8.60
70.77,-36.64,-27.99,-36.62,-27.96,27.96,27.73,31.48,-8.67,-8.66,-8.65
71.48,-36.55,-27.85,-36.53,-27.82,27.82,27.61,31.03,-8.73,-8.71,-8.70
72.19,-36.45,-27.68,-36.45,-27.68,27.68,27.49,30.59,-8.77,-8.77,-8.77
72.91,-36.32,-27.49,-36.35,-27.53,27.53,27.37,30.16,-8.79,-8.83,-8.83
73.64,-36.25,-27.37,-36.26,-27.38,27.38,27.24,29.75,-8.87,-8.88,-8.88
74.38,-36.19,-27.25,-36.17,-27.23,27.23,27.12,29.35,-8.95,-8.94,-8.94
75.12,-36.12,-27.12,-36.08,-27.09,27.09,27.00,28.96,-9.03,-8.99,-9.00
75.87,-35.98,-26.92,-35.99,-26.94,26.94,26.87,28.59,-9.03,-9.05,-9.06
76.63,-35.92,-26.81,-35.91,-26.80,26.80,26.75,28.23,-9.11,-9.10,-9.11
77.40,-35.82,-26.66,-35.82,-26.66,26.66,26.62,27.88,-9.15,-9.16,-9.16
78.17,-35.69,-26.47,-35.74,-26.53,26.53,26.49,27.54,-9.16,-9.21,-9.22
78.95,-35.61,-26.35,-35.64,-26.38,26.38,26.37,27.22,-9.22,-9.26,-9.26
79.74,-35.54,-26.23,-35.56,-26.25,26.25,26.24,26.92,-9.29,-9.31,-9.31
80.54,-35.48,-26.12,-35.47,-26.11,26.11,26.11,26.62,-9.36,-9.36,-9.36
81.35,-35.43,-26.02,-35.38,-25.98,25.98,25.98,26.34,-9.45,-9.41,-9.41
82.16,-35.36,-25.90,-35.29,-25.83,25.83,25.85,26.07,-9.52,-9.46,-9.46
82.98,-35.27,-25.77,-35.19,-25.69,25.69,25.72,25.81,-9.58,-9.50,-9.50
83.81,-35.12,-25.57,-35.10,-25.55,25.55,25.59,25.56,-9.57,-9.55,-9.55
84.65,-34.95,-25.35,-35.00,-25.40,25.40,25.46,25.32,-9.54,-9.60,-9.60
85.50,-34.85,-25.21,-34.90,-25.25,25.25,25.33,25.10,-9.59,-9.65,-9.64
86.35,-34.80,-25.11,-34.80,-25.10,25.10,25.20,24.88,-9.69,-9.70,-9.69
87.22,-34.73,-24.99,-34.70,-24.96,24.96,25.07,24.68,-9.77,-9.75,-9.74
88.09,-34.63,-24.84,-34.60,-24.81,24.81,24.94,24.49,-9.82,-9.80,-9.79
88.97,-34.52,-24.67,-34.51,-24.66,24.66,24.80,24.30,-9.86,-9.85,-9.85
89.86,-34.35,-24.45,-34.40,-24.51,24.51,24.67,24.13,-9.84,-9.90,-9.90
90.76,-34.27,-24.32,-34.30,-24.35,24.35,24.54,23.97,-9.91,-9.95,-9.95
91.66,-34.21,-24.21,-34.20,-24.20,24.20,24.40,23.81,-10.00,-10.00,-10.00
92.58,-34.11,-24.05,-34.11,-24.06,24.06,24.27,23.67,-10.05,-10.05,-10.06
93.51,-34.01,-23.90,-34.01,-23.91,23.91,24.13,23.53,-10.09,-10.10,-10.11
94.44,-33.94,-23.79,-33.92,-23.76,23.76,24.00,23.40,-10.17,-10.15,-10.15
95.39,-33.87,-23.67,-33.81,-23.61,23.61,23.86,23.28,-10.25,-10.20,-10.20
96.34,-33.77,-23.52,-33.71,-23.46,23.46,23.72,23.17,-10.30,-10.25,-10.25
97.30,-33.65,-23.35,-33.62,-23.32,23.32,23.59,23.07,-10.33,-10.30,-10.30
98.28,-33.52,-23.17,-33.53,-23.18,23.18,23.45,22.98,-10.34,-10.35,-10.35
99.26,-33.39,-23.00,-33.44,-23.04,23.04,23.31,22.89,-10.34,-10.39,-10.39
100.25,-33.32,-22.88,-33.35,-22.91,22.91,23.17,22.81,-10.41,-10.44,-10.44
101.25,-33.23,-22.74,-33.26,-22.77,22.77,23.03,22.73,-10.46,-10.49,-10.49
102.27,-33.16,-22.62,-33.17,-22.63,22.63,22.89,22.67,-10.53,-10.54,-10.54
103.29,-33.06,-22.47,-33.08,-22.49,22.49,22.75,22.60,-10.56,-10.59,-10.59
104.32,-32.98,-22.35,-33.00,-22.36,22.36,22.61,22.55,-10.61,-10.64,-10.63
105.37,-32.95,-22.27,-32.93,-22.24,22.24,22.47,22.49,-10.71,-10.69,-10.68
106.42,-32.88,-22.15,-32.86,-22.12,22.12,22.33,22.44,-10.76,-10.74,-10.73
107.48,-32.79,-22.00,-32.79,-22.00,22.00,22.19,22.39,-10.79,-10.79,-10.79
108.56,-32.70,-21.86,-32.71,-21.87,21.87,22.05,22.35,-10.83,-10.84,-10.84
109.64,-32.61,-21.72,-32.63,-21.74,21.74,21.90,22.30,-10.87,-10.89,-10.89
110.74,-32.54,-21.59,-32.55,-21.60,21.60,21.76,22.26,-10.94,-10.95,-10.95
111.85,-32.49,-21.50,-32.46,-21.46,21.46,21.62,22.21,-11.03,-11.00,-10.99
112.97,-32.33,-21.28,-32.36,-21.31,21.31,21.47,22.16,-11.01,-11.05,-11.05
114.10,-32.34,-21.24,-32.26,-21.16,21.16,21.33,22.10,-11.18,-11.10,-11.10
115.24,-32.30,-21.15,-32.15,-21.00,21.00,21.18,22.04,-11.29,-11.14,-11.15
116.39,-32.10,-20.90,-32.03,-20.85,20.85,21.04,21.97,-11.25,-11.19,-11.20
117.55,-31.86,-20.62,-31.90,-20.67,20.67,20.89,21.90,-11.18,-11.23,-11.24
118.73,-31.69,-20.41,-31.77,-20.50,20.50,20.75,21.81,-11.19,-11.27,-11.28
119.92,-31.61,-20.30,-31.63,-20.32,20.32,20.60,21.72,-11.29,-11.31,-11.31
121.12,-31.52,-20.17,-31.49,-20.14,20.14,20.45,21.61,-11.37,-11.34,-11.35
122.33,-31.38,-20.00,-31.35,-19.97,19.97,20.31,21.49,-11.40,-11.38,-11.38
123.55,-31.23,-19.82,-31.22,-19.80,19.80,20.16,21.36,-11.42,-11.41,-11.41
124.79,-31.08,-19.64,-31.08,-19.64,19.64,20.01,21.21,-11.44,-11.44,-11.44
126.03,-30.93,-19.46,-30.95,-19.48,19.48,19.86,21.05,-11.45,-11.47,-11.47
127.29,-30.81,-19.32,-30.81,-19.31,19.31,19.71,20.88,-11.50,-11.50,-11.49
128.57,-30.65,-19.12,-30.69,-19.16,19.16,19.56,20.69,-11.49,-11.53,-11.53
129.85,-30.45,-18.89,-30.59,-19.03,19.03,19.41,20.49,-11.41,-11.56,-11.56
131.15,-30.44,-18.85,-30.49,-18.90,18.90,19.26,20.28,-11.53,-11.59,-11.59
132.46,-30.43,-18.81,-30.39,-18.77,18.77,19.11,20.05,-11.65,-11.62,-11.62
133.79,-30.38,-18.73,-30.29,-18.64,18.64,18.96,19.82,-11.73,-11.65,-11.65
135.12,-30.21,-18.53,-30.19,-18.52,18.52,18.81,19.58,-11.69,-11.67,-11.68
136.48,-30.07,-18.37,-30.09,-18.39,18.39,18.66,19.33,-11.68,-11.70,-11.70
137.84,-29.98,-18.24,-29.98,-18.26,18.26,18.50,19.07,-11.72,-11.73,-11.74
139.22,-29.87,-18.10,-29.88,-18.13,18.13,18.35,18.81,-11.74,-11.76,-11.77
140.61,-29.81,-18.01,-29.78,-18.00,18.00,18.20,18.54,-11.81,-11.79,-11.80
142.02,-29.82,-18.00,-29.68,-17.86,17.86,18.05,18.27,-11.96,-11.82,-11.82
143.44,-29.62,-17.77,-29.56,-17.71,17.71,17.89,18.00,-11.91,-11.85,-11.85
144.87,-29.44,-17.55,-29.45,-17.55,17.55,17.74,17.73,-11.88,-11.89,-11.89
146.32,-29.32,-17.39,-29.32,-17.38,17.38,17.58,17.46,-11.93,-11.94,-11.93
147.78,-29.19,-17.23,-29.20,-17.21,17.21,17.43,17.19,-11.98,-11.99,-11.96
149.26,-29.02,-17.01,-29.08,-17.04,17.04,17.27,16.92,-11.98,-12.04,-12.01
150.75,-28.87,-16.80,-28.96,-16.86,16.86,17.12,16.66,-12.00,-12.10,-12.07
152.26,-28.84,-16.70,-28.84,-16.68,16.68,16.96,16.40,-12.15,-12.16,-12.14
153.78,-28.77,-16.56,-28.71,-16.49,16.49,16.81,16.14,-12.28,-12.22,-12.21
155.32,-28.58,-16.30,-28.59,-16.29,16.29,16.65,15.89,-12.28,-12.29,-12.28
156.88,-28.42,-16.06,-28.46,-16.09,16.09,16.49,15.64,-12.32,-12.36,-12.36
158.44,-28.34,-15.90,-28.33,-15.90,15.90,16.33,15.40,-12.44,-12.43,-12.44
160.03,-28.28,-15.76,-28.22,-15.72,15.72,16.18,15.16,-12.56,-12.50,-12.52
161.63,-28.17,-15.58,-28.11,-15.54,15.54,16.02,14.93,-12.63,-12.57,-12.59
163.24,-28.02,-15.37,-27.99,-15.36,15.36,15.86,14.71,-12.65,-12.63,-12.65
164.88,-27.87,-15.17,-27.88,-15.20,15.20,15.70,14.49,-12.67,-12.69,-12.70
166.53,-27.75,-15.00,-27.78,-15.04,15.04,15.54,14.28,-12.70,-12.73,-12.75
168.19,-27.58,-14.79,-27.66,-14.89,14.89,15.38,14.07,-12.69,-12.77,-12.79
169.87,-27.49,-14.66,-27.54,-14.73,14.73,15.22,13.87,-12.75,-12.81,-12.83
171.57,-27.41,-14.56,-27.42,-14.59,14.59,15.06,13.68,-12.82,-12.83,-12.85
173.29,-27.31,-14.45,-27.30,-14.45,14.45,14.90,13.49,-12.86,-12.85,-12.86
175.02,-27.20,-14.33,-27.17,-14.31,14.31,14.74,13.31,-12.89,-12.86,-12.87
176.77,-27.06,-14.18,-27.04,-14.16,14.16,14.58,13.14,-12.89,-12.87,-12.88
178.54,-26.98,-14.09,-26.90,-14.02,14.02,14.42,12.97,-12.96,-12.88,-12.89
180.32,-26.85,-13.97,-26.77,-13.88,13.88,14.26,12.81,-12.97,-12.89,-12.88
182.13,-26.70,-13.83,-26.63,-13.74,13.74,14.09,12.65,-12.96,-12.89,-12.87
183.95,-26.48,-13.60,-26.49,-13.59,13.59,13.93,12.50,-12.88,-12.90,-12.88
185.79,-26.30,-13.42,-26.35,-13.44,13.44,13.77,12.36,-12.85,-12.91,-12.88
187.65,-26.15,-13.25,-26.20,-13.29,13.29,13.60,12.23,-12.86,-12.91,-12.90
189.52,-26.01,-13.10,-26.04,-13.12,13.12,13.44,12.09,-12.89,-12.92,-12.91
191.42,-25.87,-12.94,-25.88,-12.95,12.95,13.28,11.97,-12.92,-12.94,-12.93
193.33,-25.72,-12.77,-25.72,-12.77,12.77,13.11,11.85,-12.94,-12.95,-12.95
195.27,-25.57,-12.60,-25.57,-12.60,12.60,12.95,11.73,-12.97,-12.97,-12.97
197.22,-25.44,-12.45,-25.41,-12.42,12.42,12.78,11.62,-13.01,-12.99,-12.99
199.19,-25.29,-12.28,-25.25,-12.25,12.25,12.62,11.52,-13.04,-13.00,-13.01
201.18,-25.11,-12.08,-25.10,-12.07,12.07,12.45,11.41,-13.03,-13.03,-13.03
203.19,-24.96,-11.91,-24.95,-11.90,11.90,12.29,11.32,-13.05,-13.05,-13.05
205.23,-24.81,-11.74,-24.81,-11.74,11.74,12.12,11.22,-13.06,-13.07,-13.07
207.28,-24.63,-11.55,-24.66,-11.57,11.57,11.95,11.13,-13.05,-13.09,-13.08
209.35,-24.47,-11.37,-24.52,-11.41,11.41,11.78,11.04,-13.06,-13.11,-13.10
211.44,-24.37,-11.24,-24.37,-11.24,11.24,11.62,10.95,-13.12,-13.12,-13.13
213.56,-24.25,-11.11,-24.22,-11.08,11.08,11.45,10.87,-13.17,-13.14,-13.14
215.69,-24.06,-10.91,-24.07,-10.92,10.92,11.28,10.78,-13.14,-13.15,-13.15
217.85,-23.90,-10.74,-23.92,-10.76,10.76,11.11,10.70,-13.14,-13.16,-13.16
220.03,-23.77,-10.60,-23.77,-10.59,10.59,10.94,10.61,-13.17,-13.17,-13.17
222.23,-23.65,-10.45,-23.62,-10.44,10.44,10.78,10.53,-13.21,-13.18,-13.20
224.45,-23.51,-10.32,-23.46,-10.28,10.28,10.61,10.44,-13.23,-13.18,-13.19
226.70,-23.33,-10.14,-23.30,-10.11,10.11,10.44,10.35,-13.21,-13.18,-13.19
228.96,-23.13,-9.95,-23.13,-9.95,9.95,10.27,10.26,-13.17,-13.18,-13.18
231.25,-22.99,-9.82,-22.96,-9.79,9.79,10.10,10.16,-13.19,-13.17,-13.17
233.57,-22.78,-9.62,-22.79,-9.64,9.64,9.92,10.06,-13.14,-13.16,-13.16
235.90,-22.63,-9.48,-22.61,-9.47,9.47,9.75,9.95,-13.15,-13.14,-13.15
238.26,-22.45,-9.31,-22.43,-9.30,9.30,9.58,9.84,-13.14,-13.13,-13.14
240.64,-22.23,-9.12,-22.25,-9.14,9.14,9.41,9.73,-13.08,-13.11,-13.11
243.05,-22.06,-8.98,-22.07,-8.98,8.98,9.24,9.60,-13.08,-13.09,-13.08
245.48,-21.88,-8.82,-21.88,-8.82,8.82,9.06,9.47,-13.06,-13.06,-13.06
247.93,-21.66,-8.63,-21.69,-8.65,8.65,8.89,9.33,-13.01,-13.04,-13.03
250.41,-21.51,-8.50,-21.50,-8.49,8.49,8.72,9.19,-13.02,-13.02,-13.01
252.92,-21.37,-8.39,-21.33,-8.33,8.33,8.54,9.03,-13.03,-12.99,-12.98
255.45,-21.20,-8.24,-21.15,-8.18,8.18,8.37,8.87,-13.01,-12.97,-12.96
258.00,-20.93,-7.99,-20.98,-8.03,8.03,8.19,8.70,-12.89,-12.94,-12.94
260.58,-20.73,-7.81,-20.81,-7.89,7.89,8.02,8.52,-12.84,-12.92,-12.92
263.19,-20.59,-7.70,-20.64,-7.74,7.74,7.84,8.34,-12.84,-12.89,-12.89
265.82,-20.47,-7.60,-20.46,-7.59,7.59,7.67,8.15,-12.87,-12.87,-12.87
268.48,-20.29,-7.44,-20.28,-7.44,7.44,7.49,7.95,-12.85,-12.84,-12.85
271.16,-20.08,-7.26,-20.10,-7.28,7.28,7.32,7.75,-12.79,-12.82,-12.82
273.87,-19.93,-7.13,-19.92,-7.12,7.12,7.14,7.54,-12.80,-12.79,-12.80
276.61,-19.81,-7.04,-19.73,-6.96,6.96,6.96,7.33,-12.84,-12.77,-12.77
279.38,-19.64,-6.90,-19.53,-6.79,6.79,6.78,7.11,-12.84,-12.74,-12.74
282.17,-19.40,-6.68,-19.34,-6.62,6.62,6.60,6.89,-12.77,-12.71,-12.72
284.99,-19.20,-6.52,-19.14,-6.46,6.46,6.43,6.66,-12.74,-12.69,-12.68
287.84,-18.95,-6.29,-18.95,-6.29,6.29,6.25,6.43,-12.66,-12.66,-12.66
290.72,-18.68,-6.05,-18.74,-6.11,6.11,6.07,6.20,-12.56,-12.63,-12.63
293.63,-18.47,-5.87,-18.52,-5.93,5.93,5.89,5.97,-12.54,-12.60,-12.60
296.57,-18.28,-5.71,-18.32,-5.75,5.75,5.71,5.73,-12.53,-12.57,-12.57
299.53,-18.11,-5.57,-18.11,-5.57,5.57,5.52,5.49,-12.53,-12.54,-12.54
302.53,-17.93,-5.41,-17.91,-5.40,5.40,5.34,5.25,-12.53,-12.51,-12.52
305.55,-17.66,-5.18,-17.71,-5.22,5.22,5.16,5.02,-12.43,-12.49,-12.48
308.61,-17.48,-5.02,-17.51,-5.05,5.05,4.98,4.78,-12.43,-12.46,-12.46
311.69,-17.35,-4.92,-17.32,-4.88,4.88,4.79,4.54,-12.47,-12.44,-12.43
314.81,-17.14,-4.73,-17.13,-4.71,4.71,4.61,4.30,-12.42,-12.42,-12.41
317.96,-16.91,-4.52,-16.95,-4.55,4.55,4.43,4.06,-12.36,-12.40,-12.39
