frequency,raw,error,smoothed,error_smoothed,equalization,parametric_eq,fixed_band_eq,equalized_raw,equalized_smoothed,target
20.00,2.95,-6.42,2.94,-6.43,6.43,6.05,2.18,9.38,9.37,9.37
20.20,2.99,-6.37,2.99,-6.37,6.37,6.02,2.24,9.36,9.36,9.36
20.40,3.03,-6.32,3.03,-6.32,6.32,6.00,2.31,9.35,9.35,9.35
20.61,3.07,-6.27,3.07,-6.26,6.26,5.97,2.37,9.33,9.34,9.34
20.81,3.11,-6.21,3.12,-6.21,6.21,5.95,2.44,9.32,9.32,9.32
21.02,3.15,-6.16,3.16,-6.16,6.16,5.92,2.51,9.31,9.31,9.31
21.23,3.20,-6.10,3.20,-6.10,6.10,5.89,2.59,9.30,9.30,9.30
21.44,3.24,-6.06,3.24,-6.05,6.05,5.86,2.66,9.29,9.29,9.31
21.66,3.28,-6.01,3.28,-6.00,6.00,5.83,2.74,9.28,9.28,9.28
21.87,3.33,-5.95,3.33,-5.95,5.95,5.81,2.82,9.28,9.27,9.28
22.09,3.37,-5.89,3.37,-5.90,5.90,5.78,2.91,9.27,9.27,9.26
22.31,3.41,-5.85,3.41,-5.85,5.85,5.75,2.99,9.26,9.26,9.26
22.54,3.45,-5.80,3.45,-5.80,5.80,5.72,3.08,9.25,9.25,9.25
22.76,3.50,-5.75,3.50,-5.75,5.75,5.68,3.17,9.25,9.25,9.25
22.99,3.54,-5.70,3.54,-5.70,5.70,5.65,3.26,9.24,9.24,9.24
23.22,3.58,-5.65,3.58,-5.66,5.66,5.62,3.35,9.24,9.24,9.23
23.45,3.62,-5.62,3.62,-5.61,5.61,5.59,3.45,9.23,9.23,9.24
23.69,3.66,-5.56,3.66,-5.56,5.56,5.56,3.55,9.22,9.23,9.22
23.92,3.70,-5.51,3.70,-5.52,5.52,5.52,3.65,9.22,9.22,9.21
24.16,3.74,-5.48,3.74,-5.48,5.48,5.49,3.75,9.22,9.22,9.22
24.40,3.78,-5.44,3.78,-5.43,5.43,5.46,3.85,9.21,9.21,9.22
24.65,3.82,-5.40,3.82,-5.39,5.39,5.42,3.95,9.21,9.21,9.22
24.89,3.86,-5.36,3.86,-5.35,5.35,5.39,4.06,9.21,9.21,9.22
25.14,3.90,-5.30,3.90,-5.31,5.31,5.35,4.17,9.21,9.21,9.20
25.39,3.94,-5.26,3.94,-5.27,5.27,5.31,4.27,9.21,9.21,9.20
25.65,3.98,-5.22,3.98,-5.23,5.23,5.28,4.38,9.21,9.20,9.20
25.91,4.02,-5.18,4.02,-5.19,5.19,5.24,4.49,9.20,9.20,9.20
26.16,4.06,-5.15,4.06,-5.14,5.14,5.20,4.60,9.20,9.20,9.21
26.43,4.09,-5.12,4.10,-5.11,5.11,5.17,4.70,9.20,9.20,9.20
26.69,4.13,-5.07,4.13,-5.07,5.07,5.13,4.81,9.20,9.20,9.20
26.96,4.17,-5.03,4.17,-5.03,5.03,5.09,4.91,9.20,9.20,9.20
27.23,4.21,-4.99,4.21,-4.99,4.99,5.05,5.01,9.20,9.20,9.20
27.50,4.25,-4.95,4.25,-4.95,4.95,5.01,5.11,9.20,9.20,9.20
27.77,4.29,-4.91,4.29,-4.92,4.92,4.97,5.21,9.21,9.20,9.20
28.05,4.33,-4.87,4.32,-4.88,4.88,4.93,5.30,9.21,9.21,9.20
28.33,4.36,-4.85,4.36,-4.85,4.85,4.89,5.38,9.21,9.21,9.21
28.62,4.39,-4.82,4.40,-4.81,4.81,4.85,5.46,9.20,9.21,9.20
28.90,4.43,-4.78,4.43,-4.77,4.77,4.81,5.54,9.20,9.20,9.21
29.19,4.46,-4.75,4.46,-4.74,4.74,4.77,5.61,9.20,9.20,9.21
29.48,4.50,-4.71,4.50,-4.70,4.70,4.73,5.67,9.20,9.20,9.21
29.78,4.53,-4.67,4.53,-4.67,4.67,4.68,5.72,9.20,9.20,9.20
30.08,4.57,-4.63,4.56,-4.63,4.63,4.64,5.76,9.20,9.19,9.20
30.38,4.59,-4.60,4.59,-4.60,4.60,4.60,5.79,9.19,9.19,9.19
30.68,4.62,-4.56,4.62,-4.57,4.57,4.56,5.82,9.19,9.19,9.18
30.99,4.65,-4.53,4.65,-4.53,4.53,4.51,5.83,9.18,9.18,9.18
31.30,4.67,-4.50,4.67,-4.50,4.50,4.47,5.84,9.17,9.17,9.17
31.61,4.70,-4.47,4.70,-4.46,4.46,4.42,5.83,9.16,9.16,9.17
31.93,4.72,-4.43,4.73,-4.43,4.43,4.38,5.82,9.15,9.16,9.15
32.24,4.75,-4.40,4.75,-4.40,4.40,4.34,5.79,9.15,9.15,9.15
32.57,4.78,-4.36,4.78,-4.36,4.36,4.29,5.76,9.14,9.14,9.14
32.89,4.80,-4.33,4.80,-4.33,4.33,4.24,5.72,9.13,9.13,9.13
33.22,4.83,-4.30,4.83,-4.30,4.30,4.20,5.66,9.13,9.12,9.13
33.55,4.85,-4.27,4.85,-4.27,4.27,4.15,5.60,9.12,9.12,9.12
33.89,4.87,-4.23,4.88,-4.23,4.23,4.11,5.54,9.10,9.11,9.10
34.23,4.90,-4.19,4.90,-4.20,4.20,4.06,5.46,9.10,9.10,9.09
34.57,4.93,-4.15,4.93,-4.16,4.16,4.01,5.38,9.09,9.09,9.08
34.92,4.95,-4.12,4.95,-4.12,4.12,3.97,5.30,9.07,9.08,9.07
35.27,4.98,-4.10,4.98,-4.09,4.09,3.92,5.21,9.07,9.06,9.08
35.62,5.00,-4.05,5.00,-4.05,4.05,3.87,5.11,9.05,9.05,9.05
35.97,5.03,-4.02,5.03,-4.01,4.01,3.82,5.01,9.04,9.04,9.05
36.33,5.05,-3.98,5.05,-3.97,3.97,3.78,4.91,9.02,9.02,9.03
36.70,5.08,-3.92,5.08,-3.93,3.93,3.73,4.81,9.01,9.00,9.00
37.06,5.10,-3.88,5.10,-3.88,3.88,3.68,4.71,8.98,8.99,8.98
37.43,5.13,-3.84,5.13,-3.84,3.84,3.63,4.60,8.97,8.97,8.97
37.81,5.16,-3.79,5.15,-3.79,3.79,3.58,4.49,8.95,8.95,8.95
38.19,5.18,-3.74,5.18,-3.75,3.75,3.53,4.39,8.93,8.92,8.92
38.57,5.20,-3.70,5.20,-3.70,3.70,3.48,4.28,8.90,8.90,8.90
38.95,5.22,-3.66,5.22,-3.65,3.65,3.43,4.17,8.87,8.88,8.88
39.34,5.24,-3.61,5.25,-3.61,3.61,3.38,4.07,8.85,8.85,8.85
39.74,5.26,-3.56,5.27,-3.56,3.56,3.33,3.96,8.82,8.83,8.82
40.14,5.29,-3.51,5.29,-3.51,3.51,3.28,3.86,8.80,8.80,8.80
40.54,5.31,-3.47,5.31,-3.47,3.47,3.23,3.76,8.78,8.78,8.78
40.94,5.34,-3.41,5.33,-3.42,3.42,3.18,3.66,8.76,8.75,8.75
41.35,5.35,-3.38,5.35,-3.38,3.38,3.13,3.56,8.73,8.73,8.73
41.76,5.36,-3.33,5.37,-3.33,3.33,3.08,3.47,8.69,8.70,8.69
42.18,5.38,-3.30,5.38,-3.29,3.29,3.03,3.37,8.67,8.68,8.68
42.60,5.40,-3.25,5.40,-3.25,3.25,2.98,3.28,8.65,8.65,8.65
43.03,5.42,-3.21,5.41,-3.21,3.21,2.93,3.19,8.63,8.62,8.63
43.46,5.43,-3.16,5.43,-3.17,3.17,2.88,3.10,8.60,8.60,8.59
43.90,5.45,-3.12,5.44,-3.13,3.13,2.83,3.02,8.58,8.57,8.57
44.33,5.46,-3.07,5.45,-3.09,3.09,2.77,2.94,8.55,8.54,8.53
44.78,5.47,-3.04,5.46,-3.05,3.05,2.72,2.86,8.52,8.50,8.51
45.23,5.47,-3.01,5.47,-3.00,3.00,2.67,2.78,8.47,8.47,8.48
45.68,5.47,-2.96,5.47,-2.96,2.96,2.62,2.70,8.43,8.43,8.43
46.13,5.47,-2.93,5.48,-2.91,2.91,2.57,2.63,8.38,8.39,8.40
46.60,5.48,-2.88,5.49,-2.86,2.86,2.51,2.56,8.34,8.35,8.36
47.06,5.49,-2.83,5.50,-2.81,2.81,2.46,2.49,8.30,8.31,8.32
47.53,5.50,-2.78,5.51,-2.76,2.76,2.41,2.42,8.26,8.27,8.28
48.01,5.51,-2.71,5.51,-2.71,2.71,2.35,2.36,8.22,8.22,8.22
48.49,5.52,-2.66,5.52,-2.66,2.66,2.30,2.29,8.18,8.18,8.18
48.97,5.53,-2.60,5.53,-2.60,2.60,2.25,2.23,8.14,8.13,8.13
49.46,5.54,-2.55,5.54,-2.55,2.55,2.19,2.17,8.09,8.09,8.09
49.96,5.56,-2.46,5.55,-2.49,2.49,2.14,2.12,8.05,8.04,8.02
50.46,5.57,-2.42,5.56,-2.43,2.43,2.09,2.06,8.00,7.99,7.99
50.96,5.58,-2.37,5.57,-2.37,2.37,2.03,2.01,7.95,7.95,7.95
51.47,5.58,-2.32,5.59,-2.31,2.31,1.98,1.95,7.89,7.90,7.90
51.99,5.59,-2.25,5.60,-2.25,2.25,1.93,1.90,7.84,7.85,7.84
52.51,5.61,-2.20,5.61,-2.19,2.19,1.87,1.85,7.80,7.80,7.81
53.03,5.62,-2.15,5.63,-2.13,2.13,1.82,1.80,7.75,7.76,7.77
53.56,5.64,-2.08,5.64,-2.07,2.07,1.77,1.75,7.71,7.71,7.72
54.10,5.65,-2.01,5.66,-2.01,2.01,1.71,1.71,7.66,7.67,7.66
54.64,5.68,-1.94,5.68,-1.95,1.95,1.66,1.66,7.63,7.62,7.62
55.18,5.70,-1.87,5.69,-1.88,1.88,1.60,1.61,7.58,7.58,7.57
55.74,5.71,-1.81,5.71,-1.82,1.82,1.55,1.57,7.53,7.53,7.52
56.29,5.73,-1.75,5.73,-1.76,1.76,1.49,1.53,7.49,7.49,7.48
56.86,5.75,-1.69,5.75,-1.69,1.69,1.44,1.48,7.44,7.44,7.44
57.42,5.76,-1.62,5.77,-1.63,1.63,1.38,1.44,7.39,7.39,7.38
58.00,5.78,-1.56,5.78,-1.56,1.56,1.33,1.39,7.34,7.34,7.34
58.58,5.80,-1.50,5.80,-1.49,1.49,1.28,1.35,7.29,7.29,7.30
59.16,5.81,-1.45,5.81,-1.43,1.43,1.22,1.31,7.24,7.24,7.26
59.76,5.83,-1.38,5.82,-1.36,1.36,1.17,1.26,7.19,7.19,7.21
60.35,5.84,-1.31,5.83,-1.30,1.30,1.11,1.22,7.14,7.13,7.15
60.96,5.85,-1.24,5.84,-1.23,1.23,1.06,1.17,7.08,7.07,7.09
61.57,5.86,-1.15,5.85,-1.17,1.17,1.00,1.13,7.03,7.02,7.01
62.18,5.86,-1.09,5.85,-1.10,1.10,0.95,1.08,6.96,6.96,6.95
62.80,5.86,-1.02,5.85,-1.04,1.04,0.89,1.04,6.90,6.89,6.88
63.43,5.86,-0.96,5.86,-0.98,0.98,0.83,0.99,6.84,6.83,6.82
64.07,5.86,-0.90,5.86,-0.91,0.91,0.78,0.95,6.77,6.77,6.76
64.71,5.85,-0.85,5.86,-0.85,0.85,0.72,0.90,6.70,6.71,6.70
65.35,5.84,-0.80,5.86,-0.78,0.78,0.67,0.85,6.62,6.64,6.64
66.01,5.84,-0.74,5.86,-0.72,0.72,0.61,0.80,6.56,6.58,6.58
66.67,5.85,-0.67,5.86,-0.65,0.65,0.56,0.75,6.50,6.51,6.52
67.33,5.85,-0.60,5.86,-0.59,0.59,0.50,0.70,6.44,6.45,6.45
68.01,5.86,-0.53,5.86,-0.53,0.53,0.45,0.65,6.39,6.39,6.39
68.69,5.86,-0.47,5.86,-0.47,0.47,0.39,0.60,6.33,6.32,6.33
69.37,5.86,-0.41,5.85,-0.40,0.40,0.33,0.55,6.26,6.26,6.27
70.07,5.86,-0.34,5.85,-0.34,0.34,0.28,0.49,6.20,6.19,6.20
70.77,5.85,-0.28,5.84,-0.28,0.28,0.22,0.44,6.13,6.12,6.13
71.48,5.84,-0.22,5.83,-0.22,0.22,0.17,0.38,6.07,6.06,6.06
72.19,5.83,-0.16,5.82,-0.17,0.17,0.11,0.33,6.00,5.99,5.99
72.91,5.81,-0.10,5.81,-0.12,0.12,0.05,0.27,5.93,5.92,5.91
73.64,5.79,-0.06,5.79,-0.07,0.07,-0.00,0.22,5.86,5.86,5.85
74.38,5.77,-0.01,5.77,-0.02,0.02,-0.06,0.16,5.79,5.79,5.78
75.12,5.75,0.03,5.74,0.02,-0.02,-0.11,0.10,5.73,5.73,5.72
75.87,5.72,0.06,5.72,0.06,-0.06,-0.17,0.05,5.66,5.66,5.66
76.63,5.69,0.10,5.69,0.09,-0.09,-0.23,-0.01,5.60,5.60,5.59
77.40,5.67,0.13,5.67,0.13,-0.13,-0.28,-0.07,5.54,5.54,5.54
78.17,5.64,0.18,5.64,0.17,-0.17,-0.34,-0.13,5.47,5.47,5.46
78.95,5.61,0.19,5.61,0.20,-0.20,-0.40,-0.19,5.41,5.41,5.42
79.74,5.59,0.24,5.59,0.24,-0.24,-0.45,-0.25,5.35,5.35,5.35
80.54,5.56,0.27,5.57,0.28,-0.28,-0.51,-0.31,5.28,5.29,5.29
81.35,5.54,0.31,5.55,0.32,-0.32,-0.57,-0.37,5.22,5.23,5.23
82.16,5.53,0.35,5.53,0.37,-0.37,-0.62,-0.43,5.16,5.17,5.18
82.98,5.51,0.40,5.52,0.42,-0.42,-0.68,-0.50,5.09,5.10,5.11
83.81,5.50,0.46,5.51,0.47,-0.47,-0.73,-0.56,5.03,5.04,5.04
84.65,5.49,0.52,5.50,0.53,-0.53,-0.79,-0.62,4.96,4.97,4.97
85.50,5.49,0.58,5.50,0.59,-0.59,-0.85,-0.69,4.90,4.91,4.91
86.35,5.49,0.65,5.50,0.65,-0.65,-0.90,-0.75,4.84,4.84,4.84
87.22,5.50,0.72,5.50,0.72,-0.72,-0.96,-0.82,4.78,4.78,4.78
88.09,5.51,0.80,5.50,0.79,-0.79,-1.02,-0.89,4.72,4.71,4.71
88.97,5.51,0.87,5.51,0.86,-0.86,-1.07,-0.96,4.65,4.64,4.64
89.86,5.51,0.94,5.51,0.94,-0.94,-1.13,-1.02,4.57,4.57,4.57
90.76,5.51,1.01,5.52,1.02,-1.02,-1.19,-1.09,4.49,4.50,4.50
91.66,5.51,1.09,5.52,1.10,-1.10,-1.24,-1.16,4.41,4.43,4.42
92.58,5.52,1.16,5.53,1.17,-1.17,-1.30,-1.23,4.35,4.36,4.36
93.51,5.53,1.24,5.53,1.24,-1.24,-1.35,-1.31,4.29,4.28,4.29
94.44,5.53,1.31,5.53,1.32,-1.32,-1.41,-1.38,4.21,4.21,4.22
95.39,5.54,1.40,5.52,1.39,-1.39,-1.47,-1.45,4.15,4.14,4.14
96.34,5.54,1.48,5.51,1.45,-1.45,-1.52,-1.52,4.09,4.06,4.06
97.30,5.52,1.53,5.50,1.51,-1.51,-1.58,-1.60,4.01,3.99,3.99
98.28,5.50,1.59,5.49,1.57,-1.57,-1.63,-1.67,3.93,3.91,3.91
99.26,5.48,1.65,5.47,1.63,-1.63,-1.69,-1.75,3.85,3.84,3.83
100.25,5.45,1.69,5.45,1.68,-1.68,-1.74,-1.82,3.77,3.77,3.76
101.25,5.42,1.73,5.43,1.73,-1.73,-1.80,-1.90,3.69,3.70,3.69
102.27,5.39,1.76,5.40,1.77,-1.77,-1.85,-1.97,3.62,3.63,3.63
103.29,5.37,1.82,5.37,1.81,-1.81,-1.91,-2.05,3.56,3.56,3.55
104.32,5.35,1.86,5.34,1.85,-1.85,-1.96,-2.12,3.50,3.49,3.49
105.37,5.32,1.90,5.31,1.89,-1.89,-2.02,-2.19,3.43,3.42,3.42
106.42,5.28,1.92,5.28,1.93,-1.93,-2.07,-2.27,3.35,3.35,3.36
107.48,5.25,1.97,5.26,1.98,-1.98,-2.13,-2.34,3.27,3.28,3.28
108.56,5.22,2.01,5.24,2.03,-2.03,-2.18,-2.41,3.19,3.21,3.21
109.64,5.20,2.05,5.23,2.09,-2.09,-2.24,-2.48,3.11,3.14,3.15
110.74,5.18,2.11,5.22,2.15,-2.15,-2.29,-2.55,3.03,3.07,3.07
111.85,5.17,2.17,5.21,2.21,-2.21,-2.34,-2.62,2.96,3.00,3.00
112.97,5.17,2.23,5.20,2.27,-2.27,-2.40,-2.68,2.90,2.93,2.94
114.10,5.19,2.33,5.19,2.34,-2.34,-2.45,-2.74,2.85,2.86,2.86
115.24,5.21,2.43,5.19,2.40,-2.40,-2.50,-2.80,2.81,2.78,2.78
116.39,5.21,2.51,5.18,2.46,-2.46,-2.55,-2.86,2.75,2.71,2.70
117.55,5.20,2.57,5.17,2.53,-2.53,-2.61,-2.91,2.67,2.64,2.63
118.73,5.19,2.63,5.16,2.58,-2.58,-2.66,-2.96,2.61,2.57,2.56
119.92,5.17,2.67,5.14,2.64,-2.64,-2.71,-3.01,2.53,2.51,2.50
121.12,5.14,2.70,5.13,2.69,-2.69,-2.76,-3.05,2.45,2.44,2.44
122.33,5.12,2.75,5.11,2.74,-2.74,-2.81,-3.09,2.38,2.37,2.37
123.55,5.09,2.78,5.08,2.79,-2.79,-2.86,-3.13,2.30,2.30,2.31
124.79,5.06,2.82,5.06,2.83,-2.83,-2.91,-3.16,2.23,2.23,2.24
126.03,5.01,2.84,5.03,2.87,-2.87,-2.96,-3.19,2.14,2.16,2.17
127.29,4.99,2.89,5.00,2.90,-2.90,-3.01,-3.21,2.09,2.10,2.10
128.57,4.96,2.93,4.97,2.94,-2.94,-3.05,-3.23,2.02,2.03,2.03
129.85,4.92,2.96,4.95,2.99,-2.99,-3.10,-3.25,1.93,1.96,1.96
131.15,4.90,3.01,4.93,3.03,-3.03,-3.15,-3.26,1.87,1.89,1.89
132.46,4.89,3.06,4.90,3.08,-3.08,-3.20,-3.27,1.81,1.83,1.83
133.79,4.88,3.13,4.88,3.12,-3.12,-3.24,-3.28,1.76,1.76,1.75
135.12,4.86,3.17,4.86,3.17,-3.17,-3.29,-3.29,1.69,1.69,1.69
136.48,4.85,3.22,4.84,3.21,-3.21,-3.33,-3.29,1.64,1.63,1.63
137.84,4.83,3.27,4.82,3.26,-3.26,-3.37,-3.29,1.57,1.56,1.56
139.22,4.82,3.32,4.80,3.30,-3.30,-3.42,-3.29,1.52,1.50,1.50
140.61,4.81,3.37,4.78,3.34,-3.34,-3.46,-3.28,1.47,1.44,1.44
142.02,4.77,3.40,4.76,3.38,-3.38,-3.50,-3.28,1.39,1.38,1.37
143.44,4.74,3.42,4.74,3.42,-3.42,-3.54,-3.27,1.32,1.32,1.32
144.87,4.70,3.43,4.71,3.45,-3.45,-3.58,-3.26,1.25,1.26,1.27
146.32,4.68,3.48,4.69,3.48,-3.48,-3.62,-3.26,1.20,1.21,1.20
147.78,4.65,3.50,4.66,3.51,-3.51,-3.66,-3.25,1.14,1.15,1.15
149.26,4.63,3.54,4.63,3.53,-3.53,-3.70,-3.24,1.10,1.10,1.09
150.75,4.60,3.56,4.60,3.56,-3.56,-3.73,-3.24,1.04,1.04,1.04
152.26,4.57,3.58,4.57,3.58,-3.58,-3.77,-3.23,0.99,0.99,0.99
153.78,4.54,3.61,4.54,3.61,-3.61,-3.81,-3.23,0.93,0.93,0.93
155.32,4.51,3.63,4.51,3.63,-3.63,-3.84,-3.22,0.88,0.88,0.88
156.88,4.47,3.64,4.48,3.66,-3.66,-3.87,-3.22,0.81,0.82,0.83
158.44,4.45,3.68,4.46,3.69,-3.69,-3.90,-3.22,0.76,0.77,0.77
160.03,4.42,3.70,4.43,3.72,-3.72,-3.94,-3.22,0.70,0.71,0.72
161.63,4.40,3.74,4.40,3.74,-3.74,-3.97,-3.23,0.66,0.66,0.66
163.24,4.37,3.77,4.37,3.77,-3.77,-3.99,-3.23,0.60,0.60,0.60
164.88,4.34,3.80,4.34,3.80,-3.80,-4.02,-3.24,0.54,0.54,0.54
166.53,4.32,3.84,4.31,3.83,-3.83,-4.05,-3.25,0.49,0.49,0.48
168.19,4.30,3.86,4.28,3.85,-3.85,-4.07,-3.26,0.45,0.43,0.44
169.87,4.26,3.89,4.26,3.88,-3.88,-4.10,-3.28,0.38,0.37,0.37
171.57,4.23,3.92,4.23,3.91,-3.91,-4.12,-3.30,0.32,0.31,0.31
173.29,4.20,3.94,4.20,3.94,-3.94,-4.14,-3.32,0.26,0.26,0.26
175.02,4.16,3.96,4.17,3.97,-3.97,-4.17,-3.34,0.19,0.20,0.20
176.77,4.13,3.98,4.14,4.00,-4.00,-4.19,-3.37,0.13,0.15,0.15
178.54,4.11,4.02,4.12,4.03,-4.03,-4.20,-3.39,0.08,0.09,0.09
180.32,4.09,4.06,4.09,4.05,-4.05,-4.22,-3.42,0.04,0.03,0.03
182.13,4.06,4.08,4.06,4.08,-4.08,-4.24,-3.46,-0.02,-0.02,-0.02
183.95,4.03,4.10,4.03,4.11,-4.11,-4.25,-3.49,-0.08,-0.08,-0.07
185.79,4.00,4.13,4.00,4.13,-4.13,-4.27,-3.53,-0.13,-0.13,-0.13
187.65,3.98,4.16,3.97,4.16,-4.16,-4.28,-3.57,-0.18,-0.18,-0.18
189.52,3.96,4.19,3.95,4.18,-4.18,-4.29,-3.62,-0.22,-0.23,-0.23
191.42,3.93,4.21,3.92,4.21,-4.21,-4.30,-3.66,-0.28,-0.28,-0.28
193.33,3.89,4.22,3.90,4.23,-4.23,-4.31,-3.71,-0.34,-0.33,-0.33
195.27,3.86,4.24,3.87,4.25,-4.25,-4.32,-3.76,-0.39,-0.38,-0.38
197.22,3.83,4.27,3.84,4.27,-4.27,-4.32,-3.81,-0.44,-0.42,-0.44
199.19,3.80,4.27,3.81,4.28,-4.28,-4.33,-3.87,-0.48,-0.47,-0.47
201.18,3.78,4.30,3.78,4.29,-4.29,-4.33,-3.92,-0.51,-0.51,-0.52
203.19,3.76,4.32,3.75,4.31,-4.31,-4.33,-3.98,-0.55,-0.55,-0.56
205.23,3.73,4.32,3.72,4.32,-4.32,-4.34,-4.04,-0.59,-0.59,-0.59
207.28,3.71,4.34,3.69,4.32,-4.32,-4.34,-4.09,-0.61,-0.63,-0.63
209.35,3.68,4.34,3.66,4.33,-4.33,-4.34,-4.15,-0.65,-0.67,-0.66
211.44,3.64,4.34,3.63,4.33,-4.33,-4.33,-4.21,-0.69,-0.70,-0.70
213.56,3.60,4.33,3.59,4.33,-4.33,-4.33,-4.27,-0.73,-0.74,-0.73
215.69,3.56,4.33,3.56,4.33,-4.33,-4.32,-4.33,-0.77,-0.77,-0.77
217.85,3.51,4.31,3.53,4.33,-4.33,-4.32,-4.38,-0.82,-0.80,-0.80
220.03,3.48,4.32,3.50,4.33,-4.33,-4.31,-4.44,-0.85,-0.83,-0.84
222.23,3.45,4.32,3.47,4.33,-4.33,-4.30,-4.49,-0.88,-0.86,-0.87
224.45,3.43,4.32,3.43,4.33,-4.33,-4.29,-4.54,-0.90,-0.89,-0.89
226.70,3.39,4.32,3.40,4.32,-4.32,-4.28,-4.59,-0.93,-0.92,-0.93
228.96,3.37,4.31,3.37,4.32,-4.32,-4.27,-4.63,-0.95,-0.94,-0.94
231.25,3.35,4.32,3.34,4.31,-4.31,-4.26,-4.67,-0.96,-0.97,-0.97
233.57,3.33,4.32,3.31,4.30,-4.30,-4.25,-4.70,-0.97,-0.99,-0.99
235.90,3.29,4.30,3.29,4.29,-4.29,-4.23,-4.73,-1.00,-1.01,-1.01
238.26,3.27,4.31,3.26,4.29,-4.29,-4.22,-4.76,-1.02,-1.02,-1.04
240.64,3.24,4.27,3.24,4.28,-4.28,-4.20,-4.78,-1.04,-1.04,-1.03
243.05,3.21,4.26,3.21,4.27,-4.27,-4.18,-4.79,-1.06,-1.05,-1.05
245.48,3.18,4.25,3.19,4.25,-4.25,-4.16,-4.80,-1.07,-1.06,-1.07
247.93,3.14,4.22,3.16,4.23,-4.23,-4.14,-4.80,-1.09,-1.07,-1.08
250.41,3.12,4.20,3.13,4.21,-4.21,-4.12,-4.79,-1.09,-1.08,-1.08
252.92,3.10,4.19,3.10,4.19,-4.19,-4.10,-4.78,-1.09,-1.09,-1.09
255.45,3.08,4.18,3.07,4.16,-4.16,-4.08,-4.76,-1.08,-1.10,-1.10
258.00,3.06,4.16,3.03,4.14,-4.14,-4.06,-4.74,-1.08,-1.11,-1.10
260.58,3.02,4.13,3.00,4.11,-4.11,-4.03,-4.71,-1.09,-1.11,-1.11
263.19,2.99,4.10,2.97,4.09,-4.09,-4.01,-4.67,-1.10,-1.12,-1.11
265.82,2.93,4.05,2.94,4.06,-4.06,-3.98,-4.63,-1.13,-1.12,-1.12
268.48,2.90,4.03,2.91,4.04,-4.04,-3.96,-4.58,-1.14,-1.13,-1.13
271.16,2.86,3.99,2.87,4.01,-4.01,-3.93,-4.53,-1.15,-1.14,-1.13
273.87,2.81,3.95,2.84,3.98,-3.98,-3.90,-4.47,-1.17,-1.14,-1.14
276.61,2.78,3.92,2.81,3.95,-3.95,-3.88,-4.41,-1.17,-1.14,-1.14
279.38,2.76,3.92,2.77,3.92,-3.92,-3.85,-4.35,-1.16,-1.15,-1.16
282.17,2.75,3.91,2.74,3.89,-3.89,-3.82,-4.28,-1.14,-1.15,-1.16
284.99,2.73,3.88,2.70,3.85,-3.85,-3.79,-4.21,-1.12,-1.15,-1.15
287.84,2.69,3.84,2.67,3.82,-3.82,-3.76,-4.14,-1.13,-1.15,-1.15
290.72,2.65,3.81,2.64,3.79,-3.79,-3.73,-4.06,-1.14,-1.15,-1.16
293.63,2.61,3.76,2.61,3.76,-3.76,-3.70,-3.99,-1.15,-1.15,-1.15
296.57,2.58,3.73,2.58,3.72,-3.72,-3.66,-3.91,-1.14,-1.15,-1.15
299.53,2.54,3.68,2.55,3.69,-3.69,-3.63,-3.83,-1.15,-1.14,-1.14
302.53,2.50,3.63,2.52,3.66,-3.66,-3.60,-3.75,-1.16,-1.14,-1.13
305.55,2.46,3.60,2.49,3.62,-3.62,-3.57,-3.68,-1.16,-1.14,-1.14
308.61,2.44,3.57,2.45,3.59,-3.59,-3.53,-3.60,-1.15,-1.13,-1.13
311.69,2.41,3.53,2.42,3.55,-3.55,-3.50,-3.52,-1.14,-1.12,-1.12
314.81,2.40,3.52,2.39,3.51,-3.51,-3.47,-3.45,-1.11,-1.12,-1.12
317.96,2.38,3.50,2.36,3.48,-3.48,-3.43,-3.38,-1.10,-1.11,-1.12
321.14,2.35,3.45,2.33,3.44,-3.44,-3.40,-3.30,-1.09,-1.11,-1.10
324.35,2.32,3.43,2.31,3.41,-3.41,-3.36,-3.23,-1.09,-1.10,-1.11
327.59,2.28,3.37,2.28,3.38,-3.38,-3.33,-3.16,-1.10,-1.10,-1.09
330.87,2.25,3.34,2.25,3.34,-3.34,-3.30,-3.09,-1.09,-1.09,-1.09
334.18,2.22,3.31,2.23,3.31,-3.31,-3.26,-3.03,-1.09,-1.08,-1.09
337.52,2.18,3.26,2.20,3.28,-3.28,-3.22,-2.96,-1.10,-1.08,-1.08
340.90,2.17,3.24,2.17,3.24,-3.24,-3.19,-2.90,-1.07,-1.07,-1.07
344.30,2.14,3.20,2.14,3.21,-3.21,-3.15,-2.84,-1.07,-1.06,-1.06
347.75,2.12,3.18,2.11,3.17,-3.17,-3.12,-2.78,-1.05,-1.06,-1.06
351.23,2.09,3.15,2.08,3.14,-3.14,-3.08,-2.73,-1.05,-1.05,-1.06
354.74,2.06,3.09,2.06,3.10,-3.10,-3.05,-2.67,-1.04,-1.04,-1.03
358.28,2.03,3.07,2.03,3.06,-3.06,-3.01,-2.62,-1.03,-1.04,-1.04
361.87,2.01,3.04,2.00,3.03,-3.03,-2.98,-2.57,-1.02,-1.03,-1.03
365.49,1.98,3.01,1.97,3.00,-3.00,-2.94,-2.52,-1.02,-1.02,-1.03
369.14,1.95,2.96,1.95,2.96,-2.96,-2.90,-2.48,-1.01,-1.02,-1.01
372.83,1.91,2.91,1.92,2.93,-2.93,-2.87,-2.43,-1.02,-1.01,-1.00
376.56,1.87,2.88,1.89,2.89,-2.89,-2.83,-2.39,-1.02,-1.00,-1.01
380.33,1.85,2.85,1.86,2.85,-2.85,-2.80,-2.35,-1.00,-0.99,-1.00
384.13,1.83,2.81,1.83,2.82,-2.82,-2.76,-2.31,-0.99,-0.98,-0.98
387.97,1.81,2.79,1.80,2.78,-2.78,-2.73,-2.28,-0.97,-0.98,-0.98
391.85,1.78,2.75,1.78,2.74,-2.74,-2.69,-2.24,-0.96,-0.97,-0.97
395.77,1.75,2.71,1.75,2.71,-2.71,-2.66,-2.21,-0.96,-0.96,-0.96
399.73,1.73,2.68,1.72,2.67,-2.67,-2.62,-2.18,-0.94,-0.95,-0.95
403.72,1.70,2.63,1.69,2.63,-2.63,-2.59,-2.15,-0.93,-0.94,-0.93
407.76,1.67,2.60,1.66,2.59,-2.59,-2.55,-2.12,-0.92,-0.93,-0.93
411.84,1.64,2.56,1.64,2.56,-2.56,-2.52,-2.09,-0.92,-0.92,-0.92
415.96,1.61,2.51,1.61,2.52,-2.52,-2.48,-2.07,-0.91,-0.91,-0.90
420.12,1.57,2.48,1.58,2.49,-2.49,-2.45,-2.05,-0.92,-0.90,-0.91
424.32,1.54,2.44,1.56,2.45,-2.45,-2.41,-2.02,-0.91,-0.90,-0.90
428.56,1.52,2.40,1.53,2.41,-2.41,-2.38,-2.00,-0.89,-0.89,-0.88
432.85,1.50,2.37,1.50,2.38,-2.38,-2.34,-1.98,-0.88,-0.88,-0.87
437.18,1.47,2.34,1.47,2.34,-2.34,-2.31,-1.96,-0.87,-0.87,-0.87
441.55,1.44,2.31,1.44,2.30,-2.30,-2.28,-1.94,-0.86,-0.86,-0.87
445.96,1.42,2.28,1.41,2.27,-2.27,-2.24,-1.92,-0.85,-0.85,-0.86
450.42,1.39,2.24,1.38,2.23,-2.23,-2.21,-1.90,-0.84,-0.85,-0.85
454.93,1.37,2.21,1.36,2.19,-2.19,-2.18,-1.89,-0.82,-0.84,-0.84
459.48,1.33,2.16,1.33,2.16,-2.16,-2.14,-1.87,-0.83,-0.83,-0.83
464.07,1.30,2.11,1.30,2.12,-2.12,-2.11,-1.85,-0.82,-0.82,-0.81
468.71,1.27,2.08,1.27,2.08,-2.08,-2.08,-1.83,-0.81,-0.81,-0.81
473.40,1.23,2.03,1.24,2.04,-2.04,-2.05,-1.82,-0.81,-0.80,-0.80
478.13,1.21,2.00,1.21,2.00,-2.00,-2.02,-1.80,-0.79,-0.79,-0.79
482.91,1.18,1.96,1.18,1.96,-1.96,-1.99,-1.78,-0.78,-0.78,-0.78
487.74,1.16,1.93,1.15,1.92,-1.92,-1.95,-1.76,-0.76,-0.77,-0.77
492.62,1.13,1.89,1.12,1.88,-1.88,-1.92,-1.75,-0.75,-0.76,-0.76
497.55,1.10,1.85,1.09,1.84,-1.84,-1.89,-1.73,-0.74,-0.75,-0.75
502.52,1.06,1.80,1.07,1.81,-1.81,-1.86,-1.71,-0.75,-0.74,-0.74
507.55,1.04,1.77,1.05,1.78,-1.78,-1.83,-1.69,-0.74,-0.73,-0.73
512.62,1.01,1.73,1.03,1.75,-1.75,-1.80,-1.67,-0.74,-0.71,-0.72
517.75,0.99,1.69,1.01,1.72,-1.72,-1.77,-1.65,-0.73,-0.70,-0.70
522.93,0.98,1.67,1.00,1.69,-1.69,-1.74,-1.63,-0.71,-0.69,-0.69
528.16,0.97,1.65,0.98,1.66,-1.66,-1.71,-1.61,-0.69,-0.68,-0.68
