frequency,raw,error,smoothed,error_smoothed,equalization,parametric_eq,fixed_band_eq,equalized_raw,equalized_smoothed,target
20.00,-1.94,-3.82,-1.93,-3.84,3.84,3.74,1.58,1.90,1.91,1.88
20.20,-1.92,-3.85,-1.92,-3.87,3.87,3.75,1.62,1.95,1.95,1.93
20.40,-1.90,-3.88,-1.91,-3.90,3.90,3.76,1.67,2.00,1.98,1.98
20.61,-1.88,-3.89,-1.90,-3.92,3.92,3.77,1.72,2.04,2.02,2.01
20.81,-1.87,-3.93,-1.89,-3.94,3.94,3.78,1.78,2.07,2.05,2.06
21.02,-1.85,-3.95,-1.88,-3.95,3.95,3.79,1.83,2.10,2.07,2.10
21.23,-1.86,-3.98,-1.87,-3.97,3.97,3.79,1.89,2.11,2.10,2.12
21.44,-1.88,-4.02,-1.86,-3.98,3.98,3.80,1.95,2.09,2.12,2.14
21.66,-1.89,-4.05,-1.84,-3.98,3.98,3.81,2.01,2.09,2.14,2.16
21.87,-1.90,-4.07,-1.83,-3.99,3.99,3.81,2.07,2.09,2.16,2.17
22.09,-1.88,-4.07,-1.81,-3.99,3.99,3.81,2.13,2.11,2.17,2.19
22.31,-1.82,-4.02,-1.80,-3.99,3.99,3.82,2.19,2.16,2.19,2.20
22.54,-1.76,-3.96,-1.79,-3.98,3.98,3.82,2.26,2.22,2.19,2.20
22.76,-1.70,-3.90,-1.77,-3.97,3.97,3.82,2.33,2.27,2.20,2.20
22.99,-1.64,-3.83,-1.76,-3.96,3.96,3.82,2.40,2.31,2.20,2.19
23.22,-1.66,-3.85,-1.74,-3.94,3.94,3.82,2.47,2.28,2.20,2.18
23.45,-1.69,-3.88,-1.72,-3.92,3.92,3.82,2.54,2.22,2.20,2.18
23.69,-1.71,-3.90,-1.69,-3.89,3.89,3.82,2.62,2.18,2.20,2.19
23.92,-1.73,-3.92,-1.66,-3.86,3.86,3.82,2.69,2.13,2.20,2.19
24.16,-1.71,-3.91,-1.63,-3.83,3.83,3.82,2.77,2.11,2.20,2.20
24.40,-1.66,-3.87,-1.60,-3.79,3.79,3.82,2.85,2.13,2.20,2.21
24.65,-1.61,-3.81,-1.57,-3.76,3.76,3.81,2.93,2.15,2.20,2.20
24.89,-1.56,-3.76,-1.54,-3.74,3.74,3.81,3.01,2.18,2.20,2.20
25.14,-1.51,-3.71,-1.51,-3.71,3.71,3.80,3.09,2.20,2.20,2.20
25.39,-1.46,-3.67,-1.49,-3.69,3.69,3.80,3.18,2.23,2.20,2.21
25.65,-1.42,-3.63,-1.46,-3.67,3.67,3.79,3.26,2.24,2.20,2.21
25.91,-1.37,-3.57,-1.44,-3.64,3.64,3.78,3.34,2.27,2.20,2.19
26.16,-1.35,-3.54,-1.41,-3.61,3.61,3.77,3.42,2.26,2.20,2.19
26.43,-1.35,-3.54,-1.39,-3.59,3.59,3.76,3.50,2.24,2.20,2.19
26.69,-1.34,-3.53,-1.37,-3.57,3.57,3.75,3.58,2.23,2.19,2.19
26.96,-1.34,-3.54,-1.36,-3.55,3.55,3.74,3.66,2.21,2.19,2.20
27.23,-1.36,-3.56,-1.35,-3.54,3.54,3.73,3.74,2.18,2.19,2.20
27.50,-1.38,-3.58,-1.34,-3.52,3.52,3.72,3.82,2.14,2.19,2.20
27.77,-1.40,-3.59,-1.33,-3.51,3.51,3.71,3.89,2.11,2.19,2.19
28.05,-1.41,-3.59,-1.32,-3.51,3.51,3.69,3.96,2.09,2.18,2.18
28.33,-1.36,-3.53,-1.32,-3.50,3.50,3.68,4.02,2.14,2.18,2.17
28.62,-1.31,-3.48,-1.32,-3.50,3.50,3.66,4.09,2.19,2.18,2.17
28.90,-1.26,-3.44,-1.31,-3.49,3.49,3.65,4.14,2.23,2.18,2.18
29.19,-1.23,-3.40,-1.30,-3.48,3.48,3.63,4.20,2.25,2.18,2.17
29.48,-1.23,-3.42,-1.28,-3.46,3.46,3.62,4.24,2.23,2.17,2.18
29.78,-1.22,-3.39,-1.26,-3.43,3.43,3.60,4.29,2.21,2.17,2.17
30.08,-1.22,-3.40,-1.24,-3.41,3.41,3.58,4.32,2.18,2.17,2.18
30.38,-1.24,-3.41,-1.21,-3.38,3.38,3.56,4.35,2.14,2.17,2.17
30.68,-1.26,-3.43,-1.18,-3.35,3.35,3.54,4.37,2.09,2.17,2.17
30.99,-1.28,-3.45,-1.17,-3.33,3.33,3.52,4.39,2.05,2.17,2.16
31.30,-1.21,-3.37,-1.16,-3.32,3.32,3.50,4.40,2.11,2.16,2.16
31.61,-1.13,-3.29,-1.15,-3.31,3.31,3.48,4.40,2.18,2.16,2.16
31.93,-1.06,-3.22,-1.14,-3.30,3.30,3.46,4.39,2.24,2.16,2.16
32.24,-1.04,-3.19,-1.13,-3.28,3.28,3.44,4.38,2.24,2.15,2.14
32.57,-1.04,-3.19,-1.11,-3.26,3.26,3.41,4.36,2.22,2.15,2.15
32.89,-1.04,-3.19,-1.09,-3.23,3.23,3.39,4.34,2.19,2.14,2.15
33.22,-1.07,-3.21,-1.07,-3.21,3.21,3.37,4.31,2.14,2.14,2.14
33.55,-1.11,-3.24,-1.06,-3.19,3.19,3.34,4.27,2.07,2.13,2.13
33.89,-1.15,-3.27,-1.04,-3.16,3.16,3.32,4.23,2.01,2.13,2.12
34.23,-1.11,-3.24,-1.02,-3.15,3.15,3.29,4.18,2.03,2.12,2.13
34.57,-1.03,-3.14,-1.02,-3.13,3.13,3.27,4.13,2.10,2.12,2.11
34.92,-0.96,-3.07,-1.01,-3.12,3.12,3.24,4.08,2.16,2.11,2.11
35.27,-0.94,-3.05,-1.00,-3.11,3.11,3.21,4.02,2.17,2.11,2.10
35.62,-0.94,-3.04,-0.99,-3.09,3.09,3.19,3.96,2.15,2.10,2.10
35.97,-0.94,-3.04,-0.97,-3.07,3.07,3.16,3.89,2.13,2.10,2.10
36.33,-0.94,-3.04,-0.94,-3.04,3.04,3.13,3.83,2.10,2.10,2.10
36.70,-0.94,-3.03,-0.92,-3.01,3.01,3.10,3.76,2.07,2.10,2.09
37.06,-0.93,-3.01,-0.89,-2.98,2.98,3.07,3.69,2.05,2.09,2.08
37.43,-0.90,-3.00,-0.86,-2.96,2.96,3.04,3.62,2.05,2.09,2.10
37.81,-0.88,-2.98,-0.84,-2.93,2.93,3.02,3.55,2.05,2.09,2.09
38.19,-0.84,-2.93,-0.82,-2.91,2.91,2.99,3.48,2.07,2.09,2.09
38.57,-0.79,-2.88,-0.81,-2.90,2.90,2.96,3.41,2.11,2.09,2.09
38.95,-0.75,-2.85,-0.80,-2.89,2.89,2.93,3.34,2.14,2.09,2.10
39.34,-0.74,-2.83,-0.79,-2.88,2.88,2.89,3.27,2.14,2.09,2.09
39.74,-0.74,-2.83,-0.78,-2.87,2.87,2.86,3.21,2.13,2.09,2.09
40.14,-0.74,-2.83,-0.77,-2.86,2.86,2.83,3.14,2.12,2.09,2.09
40.54,-0.74,-2.82,-0.76,-2.84,2.84,2.80,3.07,2.10,2.08,2.08
40.94,-0.74,-2.82,-0.75,-2.83,2.83,2.77,3.01,2.09,2.08,2.08
41.35,-0.74,-2.81,-0.74,-2.82,2.82,2.74,2.95,2.07,2.07,2.07
41.76,-0.74,-2.80,-0.74,-2.80,2.80,2.70,2.89,2.06,2.06,2.06
42.18,-0.76,-2.83,-0.73,-2.78,2.78,2.67,2.83,2.02,2.05,2.06
42.60,-0.80,-2.85,-0.72,-2.77,2.77,2.64,2.77,1.97,2.04,2.05
43.03,-0.83,-2.87,-0.72,-2.75,2.75,2.61,2.72,1.92,2.03,2.04
43.46,-0.74,-2.77,-0.71,-2.72,2.72,2.57,2.66,1.98,2.02,2.03
43.90,-0.65,-2.65,-0.69,-2.70,2.70,2.54,2.61,2.04,2.00,2.00
44.33,-0.63,-2.61,-0.68,-2.67,2.67,2.51,2.57,2.04,1.99,1.98
44.78,-0.63,-2.59,-0.68,-2.65,2.65,2.47,2.52,2.02,1.97,1.96
45.23,-0.63,-2.59,-0.67,-2.63,2.63,2.44,2.47,2.00,1.96,1.95
45.68,-0.63,-2.56,-0.66,-2.61,2.61,2.41,2.43,1.98,1.94,1.93
46.13,-0.63,-2.54,-0.66,-2.58,2.58,2.37,2.39,1.95,1.93,1.91
46.60,-0.63,-2.54,-0.65,-2.56,2.56,2.34,2.35,1.93,1.91,1.91
47.06,-0.63,-2.52,-0.64,-2.53,2.53,2.30,2.31,1.90,1.89,1.89
47.53,-0.63,-2.51,-0.63,-2.51,2.51,2.27,2.28,1.88,1.88,1.88
48.01,-0.63,-2.51,-0.62,-2.48,2.48,2.23,2.24,1.85,1.86,1.88
48.49,-0.67,-2.53,-0.62,-2.46,2.46,2.20,2.21,1.79,1.84,1.85
48.97,-0.72,-2.55,-0.60,-2.43,2.43,2.16,2.18,1.71,1.83,1.83
49.46,-0.64,-2.45,-0.59,-2.40,2.40,2.13,2.15,1.76,1.81,1.81
49.96,-0.55,-2.34,-0.57,-2.36,2.36,2.09,2.13,1.81,1.80,1.78
50.46,-0.54,-2.32,-0.55,-2.33,2.33,2.06,2.10,1.78,1.78,1.78
50.96,-0.53,-2.30,-0.52,-2.29,2.29,2.02,2.08,1.76,1.77,1.77
51.47,-0.49,-2.23,-0.50,-2.25,2.25,1.99,2.05,1.76,1.75,1.74
51.99,-0.45,-2.18,-0.48,-2.21,2.21,1.95,2.03,1.76,1.73,1.72
52.51,-0.40,-2.12,-0.46,-2.18,2.18,1.92,2.01,1.78,1.72,1.72
53.03,-0.36,-2.07,-0.45,-2.15,2.15,1.88,1.98,1.79,1.70,1.71
53.56,-0.40,-2.09,-0.44,-2.13,2.13,1.85,1.96,1.73,1.69,1.69
54.10,-0.43,-2.11,-0.43,-2.10,2.10,1.81,1.94,1.67,1.67,1.67
54.64,-0.43,-2.09,-0.42,-2.08,2.08,1.78,1.92,1.65,1.66,1.66
55.18,-0.43,-2.08,-0.42,-2.07,2.07,1.74,1.90,1.64,1.65,1.65
55.74,-0.43,-2.06,-0.42,-2.05,2.05,1.71,1.88,1.62,1.63,1.63
56.29,-0.43,-2.05,-0.42,-2.03,2.03,1.67,1.86,1.60,1.61,1.61
56.86,-0.43,-2.02,-0.41,-2.01,2.01,1.63,1.84,1.58,1.60,1.59
57.42,-0.46,-2.02,-0.41,-1.98,1.98,1.60,1.82,1.52,1.58,1.56
58.00,-0.51,-2.06,-0.40,-1.96,1.96,1.56,1.79,1.44,1.55,1.55
58.58,-0.41,-1.95,-0.40,-1.92,1.92,1.53,1.77,1.51,1.52,1.53
59.16,-0.33,-1.84,-0.39,-1.88,1.88,1.49,1.74,1.55,1.50,1.51
59.76,-0.33,-1.82,-0.38,-1.84,1.84,1.45,1.72,1.51,1.46,1.48
60.35,-0.33,-1.77,-0.36,-1.79,1.79,1.42,1.69,1.46,1.43,1.44
60.96,-0.33,-1.73,-0.35,-1.74,1.74,1.38,1.66,1.41,1.39,1.40
61.57,-0.33,-1.69,-0.34,-1.69,1.69,1.35,1.63,1.36,1.35,1.35
62.18,-0.33,-1.64,-0.34,-1.65,1.65,1.31,1.60,1.31,1.31,1.31
62.80,-0.33,-1.59,-0.34,-1.60,1.60,1.27,1.56,1.27,1.26,1.26
63.43,-0.33,-1.54,-0.33,-1.55,1.55,1.24,1.52,1.22,1.22,1.21
64.07,-0.33,-1.49,-0.33,-1.50,1.50,1.20,1.49,1.16,1.17,1.16
64.71,-0.33,-1.44,-0.33,-1.44,1.44,1.17,1.45,1.11,1.11,1.10
65.35,-0.33,-1.39,-0.33,-1.40,1.40,1.13,1.41,1.06,1.06,1.06
66.01,-0.33,-1.34,-0.33,-1.34,1.34,1.09,1.36,1.01,1.01,1.01
66.67,-0.33,-1.29,-0.33,-1.28,1.28,1.06,1.32,0.95,0.96,0.95
67.33,-0.34,-1.24,-0.32,-1.22,1.22,1.02,1.27,0.88,0.90,0.90
68.01,-0.36,-1.21,-0.31,-1.16,1.16,0.98,1.22,0.79,0.85,0.85
68.69,-0.35,-1.15,-0.30,-1.09,1.09,0.95,1.17,0.74,0.79,0.79
69.37,-0.30,-1.04,-0.29,-1.02,1.02,0.91,1.12,0.72,0.73,0.74
70.07,-0.23,-0.91,-0.28,-0.95,0.95,0.87,1.07,0.72,0.68,0.68
70.77,-0.23,-0.86,-0.27,-0.88,0.88,0.84,1.02,0.65,0.62,0.63
71.48,-0.23,-0.80,-0.26,-0.81,0.81,0.80,0.96,0.58,0.55,0.57
72.19,-0.23,-0.72,-0.25,-0.74,0.74,0.76,0.91,0.51,0.49,0.49
72.91,-0.23,-0.66,-0.24,-0.67,0.67,0.72,0.85,0.44,0.43,0.43
73.64,-0.23,-0.60,-0.23,-0.60,0.60,0.69,0.79,0.37,0.37,0.37
74.38,-0.23,-0.53,-0.23,-0.53,0.53,0.65,0.74,0.30,0.30,0.30
75.12,-0.23,-0.47,-0.22,-0.46,0.46,0.61,0.68,0.23,0.24,0.23
75.87,-0.23,-0.40,-0.22,-0.40,0.40,0.57,0.62,0.17,0.18,0.17
76.63,-0.23,-0.34,-0.23,-0.34,0.34,0.54,0.56,0.11,0.12,0.11
77.40,-0.23,-0.28,-0.24,-0.29,0.29,0.50,0.50,0.06,0.05,0.05
78.17,-0.23,-0.21,-0.24,-0.23,0.23,0.46,0.44,0.00,-0.01,-0.02
78.95,-0.23,-0.17,-0.24,-0.17,0.17,0.42,0.38,-0.06,-0.07,-0.06
79.74,-0.23,-0.11,-0.24,-0.11,0.11,0.38,0.32,-0.12,-0.12,-0.12
80.54,-0.23,-0.06,-0.23,-0.05,0.05,0.34,0.26,-0.18,-0.18,-0.18
81.35,-0.23,0.01,-0.23,0.01,-0.01,0.30,0.20,-0.24,-0.24,-0.24
82.16,-0.23,0.06,-0.22,0.07,-0.07,0.27,0.14,-0.30,-0.29,-0.29
82.98,-0.23,0.11,-0.21,0.14,-0.14,0.23,0.07,-0.37,-0.35,-0.34
83.81,-0.26,0.14,-0.20,0.20,-0.20,0.19,0.01,-0.46,-0.40,-0.41
84.65,-0.22,0.24,-0.19,0.27,-0.27,0.15,-0.05,-0.49,-0.46,-0.46
85.50,-0.17,0.34,-0.18,0.34,-0.34,0.11,-0.11,-0.51,-0.52,-0.51
86.35,-0.13,0.44,-0.17,0.40,-0.40,0.07,-0.17,-0.54,-0.58,-0.57
87.22,-0.13,0.50,-0.16,0.47,-0.47,0.02,-0.24,-0.60,-0.63,-0.63
88.09,-0.13,0.56,-0.15,0.54,-0.54,-0.02,-0.30,-0.67,-0.69,-0.69
88.97,-0.13,0.62,-0.14,0.61,-0.61,-0.06,-0.36,-0.74,-0.75,-0.75
89.86,-0.13,0.68,-0.13,0.68,-0.68,-0.10,-0.43,-0.81,-0.81,-0.81
90.76,-0.13,0.74,-0.12,0.75,-0.75,-0.14,-0.49,-0.88,-0.87,-0.88
91.66,-0.13,0.80,-0.12,0.81,-0.81,-0.18,-0.56,-0.95,-0.93,-0.93
92.58,-0.12,0.88,-0.12,0.88,-0.88,-0.23,-0.62,-1.00,-0.99,-1.00
93.51,-0.12,0.94,-0.12,0.94,-0.94,-0.27,-0.68,-1.06,-1.05,-1.06
94.44,-0.12,0.99,-0.12,0.99,-0.99,-0.31,-0.75,-1.11,-1.11,-1.11
95.39,-0.13,1.04,-0.12,1.05,-1.05,-0.36,-0.81,-1.18,-1.17,-1.17
96.34,-0.13,1.10,-0.13,1.10,-1.10,-0.40,-0.88,-1.23,-1.23,-1.23
97.30,-0.13,1.16,-0.14,1.15,-1.15,-0.45,-0.94,-1.28,-1.29,-1.29
98.28,-0.14,1.20,-0.15,1.19,-1.19,-0.49,-1.01,-1.34,-1.35,-1.35
99.26,-0.16,1.24,-0.16,1.24,-1.24,-0.54,-1.08,-1.40,-1.40,-1.40
100.25,-0.18,1.28,-0.18,1.28,-1.28,-0.59,-1.14,-1.46,-1.46,-1.46
101.25,-0.20,1.32,-0.20,1.32,-1.32,-0.63,-1.21,-1.52,-1.52,-1.52
102.27,-0.21,1.36,-0.23,1.35,-1.35,-0.68,-1.27,-1.56,-1.58,-1.57
103.29,-0.22,1.42,-0.26,1.38,-1.38,-0.73,-1.34,-1.60,-1.64,-1.64
104.32,-0.24,1.45,-0.29,1.40,-1.40,-0.78,-1.40,-1.64,-1.69,-1.69
105.37,-0.31,1.44,-0.32,1.43,-1.43,-0.82,-1.46,-1.74,-1.76,-1.75
106.42,-0.42,1.38,-0.36,1.46,-1.46,-0.87,-1.53,-1.88,-1.82,-1.81
107.48,-0.44,1.43,-0.40,1.48,-1.48,-0.92,-1.59,-1.92,-1.88,-1.87
108.56,-0.42,1.52,-0.44,1.50,-1.50,-0.97,-1.65,-1.92,-1.94,-1.94
109.64,-0.43,1.57,-0.48,1.53,-1.53,-1.03,-1.71,-1.96,-2.00,-2.00
110.74,-0.52,1.54,-0.51,1.56,-1.56,-1.08,-1.77,-2.08,-2.06,-2.07
111.85,-0.58,1.53,-0.54,1.59,-1.59,-1.13,-1.83,-2.17,-2.12,-2.11
112.97,-0.60,1.59,-0.57,1.61,-1.61,-1.18,-1.88,-2.21,-2.18,-2.19
114.10,-0.61,1.64,-0.60,1.64,-1.64,-1.24,-1.94,-2.25,-2.24,-2.25
115.24,-0.62,1.68,-0.63,1.67,-1.67,-1.29,-1.99,-2.29,-2.30,-2.30
116.39,-0.64,1.73,-0.65,1.70,-1.70,-1.35,-2.04,-2.34,-2.35,-2.37
117.55,-0.71,1.70,-0.68,1.73,-1.73,-1.40,-2.09,-2.44,-2.41,-2.41
118.73,-0.74,1.73,-0.70,1.75,-1.75,-1.46,-2.13,-2.50,-2.46,-2.47
119.92,-0.67,1.83,-0.73,1.77,-1.77,-1.52,-2.17,-2.45,-2.51,-2.50
121.12,-0.66,1.90,-0.76,1.79,-1.79,-1.57,-2.21,-2.46,-2.55,-2.56
122.33,-0.75,1.85,-0.78,1.82,-1.82,-1.63,-2.25,-2.57,-2.60,-2.60
123.55,-0.86,1.77,-0.80,1.84,-1.84,-1.69,-2.28,-2.70,-2.64,-2.63
124.79,-0.88,1.79,-0.83,1.85,-1.85,-1.75,-2.31,-2.73,-2.68,-2.68
126.03,-0.82,1.89,-0.86,1.86,-1.86,-1.81,-2.34,-2.68,-2.72,-2.72
127.29,-0.90,1.85,-0.90,1.86,-1.86,-1.87,-2.37,-2.76,-2.76,-2.75
128.57,-0.95,1.85,-0.93,1.87,-1.87,-1.93,-2.39,-2.82,-2.80,-2.80
129.85,-0.94,1.89,-0.96,1.87,-1.87,-1.99,-2.41,-2.81,-2.84,-2.84
131.15,-0.94,1.93,-0.99,1.88,-1.88,-2.06,-2.43,-2.82,-2.87,-2.87
132.46,-0.98,1.93,-1.02,1.89,-1.89,-2.12,-2.44,-2.87,-2.91,-2.91
133.79,-1.02,1.93,-1.05,1.90,-1.90,-2.18,-2.46,-2.92,-2.95,-2.95
135.12,-1.07,1.92,-1.07,1.92,-1.92,-2.25,-2.47,-2.99,-2.98,-2.99
136.48,-1.11,1.91,-1.07,1.95,-1.95,-2.31,-2.48,-3.06,-3.02,-3.02
137.84,-1.12,1.94,-1.08,1.98,-1.98,-2.38,-2.48,-3.10,-3.06,-3.06
139.22,-1.12,1.99,-1.08,2.01,-2.01,-2.44,-2.49,-3.14,-3.09,-3.11
140.61,-1.11,2.04,-1.07,2.06,-2.06,-2.51,-2.50,-3.17,-3.13,-3.15
142.02,-1.04,2.13,-1.04,2.13,-2.13,-2.57,-2.50,-3.17,-3.17,-3.17
143.44,-1.02,2.19,-1.01,2.21,-2.21,-2.64,-2.50,-3.23,-3.22,-3.21
144.87,-0.95,2.31,-0.96,2.30,-2.30,-2.70,-2.51,-3.25,-3.26,-3.26
146.32,-0.93,2.38,-0.91,2.41,-2.41,-2.77,-2.51,-3.34,-3.31,-3.31
147.78,-0.93,2.41,-0.84,2.53,-2.53,-2.83,-2.51,-3.46,-3.37,-3.35
149.26,-0.82,2.58,-0.78,2.66,-2.66,-2.90,-2.52,-3.48,-3.43,-3.40
150.75,-0.72,2.76,-0.70,2.80,-2.80,-2.96,-2.52,-3.52,-3.50,-3.48
152.26,-0.68,2.87,-0.63,2.94,-2.94,-3.03,-2.53,-3.62,-3.57,-3.55
153.78,-0.57,3.05,-0.56,3.08,-3.08,-3.09,-2.53,-3.65,-3.64,-3.63
155.32,-0.45,3.26,-0.51,3.21,-3.21,-3.16,-2.54,-3.66,-3.72,-3.71
156.88,-0.41,3.38,-0.48,3.31,-3.31,-3.22,-2.55,-3.73,-3.80,-3.79
158.44,-0.41,3.47,-0.48,3.40,-3.40,-3.28,-2.56,-3.81,-3.88,-3.88
160.03,-0.41,3.56,-0.49,3.46,-3.46,-3.34,-2.57,-3.87,-3.95,-3.97
161.63,-0.41,3.64,-0.52,3.50,-3.50,-3.40,-2.58,-3.92,-4.02,-4.05
163.24,-0.44,3.67,-0.56,3.53,-3.53,-3.46,-2.59,-3.97,-4.09,-4.12
164.88,-0.49,3.68,-0.62,3.54,-3.54,-3.51,-2.61,-4.03,-4.15,-4.17
166.53,-0.57,3.66,-0.69,3.52,-3.52,-3.57,-2.63,-4.09,-4.21,-4.23
168.19,-0.70,3.57,-0.76,3.49,-3.49,-3.62,-2.65,-4.20,-4.25,-4.27
169.87,-0.88,3.43,-0.83,3.46,-3.46,-3.67,-2.67,-4.34,-4.29,-4.32
171.57,-1.07,3.27,-0.90,3.43,-3.43,-3.72,-2.70,-4.50,-4.33,-4.34
173.29,-1.15,3.21,-0.95,3.40,-3.40,-3.77,-2.72,-4.55,-4.35,-4.36
175.02,-1.17,3.20,-0.99,3.38,-3.38,-3.82,-2.75,-4.55,-4.37,-4.37
176.77,-1.13,3.26,-1.02,3.37,-3.37,-3.86,-2.78,-4.50,-4.39,-4.39
178.54,-1.08,3.32,-1.03,3.37,-3.37,-3.90,-2.81,-4.45,-4.40,-4.40
180.32,-1.05,3.35,-1.02,3.39,-3.39,-3.93,-2.85,-4.44,-4.41,-4.40
182.13,-0.99,3.41,-0.99,3.43,-3.43,-3.97,-2.89,-4.42,-4.42,-4.40
183.95,-0.91,3.50,-0.95,3.48,-3.48,-4.00,-2.93,-4.39,-4.43,-4.42
185.79,-0.84,3.58,-0.90,3.55,-3.55,-4.03,-2.97,-4.39,-4.44,-4.42
187.65,-0.78,3.67,-0.83,3.62,-3.62,-4.05,-3.01,-4.41,-4.46,-4.45
189.52,-0.71,3.75,-0.77,3.71,-3.71,-4.07,-3.06,-4.42,-4.47,-4.46
191.42,-0.68,3.80,-0.70,3.79,-3.79,-4.09,-3.10,-4.47,-4.49,-4.49
193.33,-0.64,3.87,-0.65,3.86,-3.86,-4.11,-3.15,-4.50,-4.51,-4.51
195.27,-0.58,3.95,-0.61,3.92,-3.92,-4.12,-3.20,-4.50,-4.53,-4.53
197.22,-0.54,4.01,-0.58,3.97,-3.97,-4.13,-3.26,-4.52,-4.55,-4.55
199.19,-0.53,4.05,-0.55,4.02,-4.02,-4.13,-3.31,-4.56,-4.58,-4.58
201.18,-0.52,4.08,-0.53,4.07,-4.07,-4.13,-3.36,-4.59,-4.60,-4.60
203.19,-0.52,4.10,-0.52,4.11,-4.11,-4.13,-3.42,-4.63,-4.63,-4.62
205.23,-0.51,4.14,-0.50,4.14,-4.14,-4.13,-3.48,-4.66,-4.65,-4.65
207.28,-0.51,4.15,-0.50,4.17,-4.17,-4.12,-3.53,-4.68,-4.67,-4.66
209.35,-0.51,4.18,-0.50,4.19,-4.19,-4.11,-3.59,-4.70,-4.70,-4.69
211.44,-0.52,4.20,-0.51,4.21,-4.21,-4.09,-3.65,-4.73,-4.72,-4.73
213.56,-0.52,4.21,-0.52,4.22,-4.22,-4.07,-3.70,-4.74,-4.73,-4.73
215.69,-0.52,4.23,-0.53,4.23,-4.23,-4.05,-3.76,-4.75,-4.75,-4.75
217.85,-0.53,4.23,-0.54,4.23,-4.23,-4.03,-3.81,-4.76,-4.77,-4.76
220.03,-0.53,4.25,-0.54,4.24,-4.24,-4.01,-3.86,-4.77,-4.78,-4.78
222.23,-0.53,4.27,-0.55,4.24,-4.24,-3.98,-3.91,-4.77,-4.79,-4.80
224.45,-0.54,4.26,-0.56,4.23,-4.23,-3.95,-3.96,-4.77,-4.79,-4.80
226.70,-0.60,4.20,-0.57,4.22,-4.22,-3.92,-4.01,-4.82,-4.79,-4.80
228.96,-0.63,4.16,-0.59,4.21,-4.21,-3.88,-4.05,-4.84,-4.79,-4.79
231.25,-0.62,4.17,-0.60,4.19,-4.19,-3.85,-4.09,-4.81,-4.79,-4.79
233.57,-0.61,4.17,-0.61,4.17,-4.17,-3.81,-4.12,-4.78,-4.78,-4.78
235.90,-0.60,4.17,-0.62,4.15,-4.15,-3.77,-4.15,-4.75,-4.77,-4.77
238.26,-0.59,4.17,-0.62,4.13,-4.13,-3.73,-4.17,-4.72,-4.75,-4.76
240.64,-0.61,4.13,-0.63,4.10,-4.10,-3.69,-4.19,-4.72,-4.74,-4.74
243.05,-0.64,4.07,-0.64,4.08,-4.08,-3.64,-4.20,-4.72,-4.72,-4.71
245.48,-0.70,3.99,-0.65,4.04,-4.04,-3.60,-4.21,-4.74,-4.70,-4.69
247.93,-0.71,3.95,-0.67,4.01,-4.01,-3.56,-4.21,-4.72,-4.68,-4.66
250.41,-0.69,3.96,-0.69,3.97,-3.97,-3.51,-4.20,-4.66,-4.65,-4.65
252.92,-0.67,3.95,-0.70,3.93,-3.93,-3.46,-4.19,-4.60,-4.63,-4.62
255.45,-0.68,3.92,-0.72,3.89,-3.89,-3.42,-4.18,-4.57,-4.61,-4.60
258.00,-0.73,3.85,-0.76,3.83,-3.83,-3.37,-4.15,-4.56,-4.59,-4.58
260.58,-0.75,3.82,-0.79,3.77,-3.77,-3.33,-4.12,-4.52,-4.56,-4.57
263.19,-0.79,3.74,-0.82,3.72,-3.72,-3.28,-4.09,-4.51,-4.54,-4.54
265.82,-0.85,3.67,-0.86,3.66,-3.66,-3.23,-4.05,-4.51,-4.52,-4.52
268.48,-0.93,3.57,-0.89,3.61,-3.61,-3.19,-4.01,-4.54,-4.49,-4.50
271.16,-0.96,3.51,-0.93,3.54,-3.54,-3.14,-3.96,-4.51,-4.47,-4.47
273.87,-0.96,3.49,-0.96,3.48,-3.48,-3.09,-3.90,-4.44,-4.45,-4.45
276.61,-0.99,3.43,-1.01,3.42,-3.42,-3.05,-3.85,-4.41,-4.42,-4.42
279.38,-1.05,3.35,-1.05,3.35,-3.35,-3.00,-3.78,-4.40,-4.40,-4.40
282.17,-1.12,3.25,-1.08,3.29,-3.29,-2.96,-3.72,-4.41,-4.37,-4.37
284.99,-1.15,3.19,-1.11,3.23,-3.23,-2.92,-3.65,-4.38,-4.34,-4.34
287.84,-1.14,3.18,-1.14,3.17,-3.17,-2.87,-3.58,-4.32,-4.32,-4.32
290.72,-1.13,3.16,-1.17,3.11,-3.11,-2.83,-3.51,-4.24,-4.29,-4.29
293.63,-1.21,3.05,-1.20,3.06,-3.06,-2.79,-3.44,-4.27,-4.26,-4.27
296.57,-1.25,2.98,-1.23,3.00,-3.00,-2.75,-3.37,-4.25,-4.23,-4.23
299.53,-1.29,2.91,-1.26,2.95,-2.95,-2.71,-3.29,-4.24,-4.21,-4.21
302.53,-1.28,2.91,-1.29,2.89,-2.89,-2.67,-3.22,-4.17,-4.18,-4.19
305.55,-1.28,2.86,-1.33,2.83,-2.83,-2.63,-3.14,-4.11,-4.15,-4.14
308.61,-1.33,2.80,-1.36,2.77,-2.77,-2.59,-3.07,-4.10,-4.13,-4.13
311.69,-1.38,2.72,-1.40,2.71,-2.71,-2.55,-3.00,-4.09,-4.11,-4.10
314.81,-1.44,2.64,-1.44,2.65,-2.65,-2.52,-2.92,-4.09,-4.09,-4.08
317.96,-1.51,2.55,-1.48,2.58,-2.58,-2.48,-2.85,-4.09,-4.07,-4.06
321.14,-1.55,2.50,-1.53,2.52,-2.52,-2.45,-2.78,-4.07,-4.05,-4.05
324.35,-1.56,2.48,-1.59,2.45,-2.45,-2.41,-2.70,-4.01,-4.03,-4.04
327.59,-1.64,2.38,-1.64,2.38,-2.38,-2.38,-2.63,-4.02,-4.02,-4.02
330.87,-1.70,2.31,-1.70,2.31,-2.31,-2.35,-2.57,-4.01,-4.01,-4.01
334.18,-1.75,2.25,-1.76,2.23,-2.23,-2.32,-2.50,-3.99,-4.00,-4.00
337.52,-1.82,2.17,-1.83,2.16,-2.16,-2.29,-2.43,-3.98,-3.99,-3.99
340.90,-1.86,2.11,-1.89,2.09,-2.09,-2.26,-2.37,-3.95,-3.98,-3.97
344.30,-1.91,2.05,-1.95,2.02,-2.02,-2.23,-2.30,-3.94,-3.97,-3.97
347.75,-2.02,1.95,-2.01,1.96,-1.96,-2.20,-2.24,-3.98,-3.97,-3.97
351.23,-2.08,1.88,-2.06,1.90,-1.90,-2.18,-2.18,-3.98,-3.96,-3.96
354.74,-2.14,1.82,-2.12,1.84,-1.84,-2.15,-2.12,-3.98,-3.96,-3.96
358.28,-2.21,1.74,-2.18,1.78,-1.78,-2.13,-2.07,-3.99,-3.96,-3.96
361.87,-2.26,1.70,-2.23,1.72,-1.72,-2.11,-2.01,-3.98,-3.96,-3.96
365.49,-2.33,1.62,-2.28,1.68,-1.68,-2.08,-1.96,-4.01,-3.96,-3.95
369.14,-2.34,1.62,-2.33,1.63,-1.63,-2.06,-1.91,-3.97,-3.96,-3.96
372.83,-2.33,1.63,-2.38,1.58,-1.58,-2.04,-1.85,-3.91,-3.96,-3.97
376.56,-2.39,1.58,-2.43,1.54,-1.54,-2.02,-1.81,-3.93,-3.96,-3.97
380.33,-2.44,1.52,-2.47,1.49,-1.49,-2.00,-1.76,-3.94,-3.97,-3.96
384.13,-2.50,1.46,-2.51,1.46,-1.46,-1.98,-1.71,-3.96,-3.97,-3.96
387.97,-2.57,1.40,-2.55,1.42,-1.42,-1.97,-1.67,-3.99,-3.97,-3.97
391.85,-2.60,1.38,-2.60,1.38,-1.38,-1.95,-1.63,-3.98,-3.98,-3.98
395.77,-2.61,1.36,-2.64,1.35,-1.35,-1.94,-1.59,-3.96,-3.99,-3.98
399.73,-2.65,1.34,-2.68,1.31,-1.31,-1.92,-1.55,-3.96,-3.99,-3.99
403.72,-2.70,1.29,-2.73,1.27,-1.27,-1.91,-1.51,-3.97,-4.00,-3.99
407.76,-2.78,1.22,-2.77,1.23,-1.23,-1.89,-1.47,-4.01,-4.00,-4.00
411.84,-2.82,1.18,-2.81,1.20,-1.20,-1.88,-1.44,-4.02,-4.01,-4.00
415.96,-2.82,1.18,-2.83,1.18,-1.18,-1.87,-1.40,-4.00,-4.01,-4.00
420.12,-2.82,1.18,-2.84,1.16,-1.16,-1.86,-1.37,-3.99,-4.01,-4.00
424.32,-2.87,1.13,-2.84,1.16,-1.16,-1.85,-1.34,-4.03,-4.00,-4.01
428.56,-2.89,1.11,-2.83,1.16,-1.16,-1.84,-1.31,-4.05,-3.99,-4.00
432.85,-2.89,1.10,-2.81,1.16,-1.16,-1.83,-1.29,-4.05,-3.97,-3.99
437.18,-2.86,1.12,-2.79,1.16,-1.16,-1.82,-1.26,-4.02,-3.95,-3.98
441.55,-2.82,1.12,-2.76,1.17,-1.17,-1.82,-1.24,-3.99,-3.93,-3.94
445.96,-2.74,1.17,-2.72,1.18,-1.18,-1.81,-1.21,-3.92,-3.90,-3.91
450.42,-2.63,1.25,-2.68,1.19,-1.19,-1.81,-1.19,-3.82,-3.86,-3.88
454.93,-2.57,1.26,-2.62,1.20,-1.20,-1.80,-1.17,-3.77,-3.82,-3.83
459.48,-2.51,1.27,-2.57,1.20,-1.20,-1.80,-1.16,-3.72,-3.78,-3.78
