frequency,raw,error,smoothed,error_smoothed,equalization,parametric_eq,fixed_band_eq,equalized_raw,equalized_smoothed,target
20.00,7.07,-1.07,7.07,-1.07,1.07,1.14,0.12,8.15,8.14,8.14
20.20,7.09,-1.04,7.09,-1.04,1.04,1.14,0.12,8.13,8.13,8.13
20.40,7.11,-1.01,7.11,-1.01,1.01,1.14,0.13,8.12,8.12,8.12
20.61,7.13,-0.98,7.14,-0.97,0.97,1.13,0.13,8.11,8.11,8.11
20.81,7.15,-0.94,7.16,-0.94,0.94,1.13,0.13,8.09,8.10,8.09
21.02,7.17,-0.91,7.18,-0.91,0.91,1.11,0.14,8.08,8.09,8.08
21.23,7.20,-0.87,7.20,-0.88,0.88,1.10,0.14,8.08,8.08,8.07
21.44,7.22,-0.86,7.22,-0.84,0.84,1.08,0.15,8.07,8.07,8.08
21.66,7.24,-0.82,7.24,-0.81,0.81,1.07,0.15,8.06,8.06,8.06
21.87,7.27,-0.79,7.27,-0.78,0.78,1.04,0.16,8.06,8.05,8.06
22.09,7.29,-0.75,7.29,-0.75,0.75,1.02,0.16,8.05,8.04,8.04
22.31,7.31,-0.72,7.31,-0.72,0.72,1.00,0.17,8.04,8.03,8.03
22.54,7.33,-0.69,7.33,-0.70,0.70,0.97,0.17,8.03,8.03,8.02
22.76,7.35,-0.67,7.35,-0.67,0.67,0.94,0.18,8.02,8.02,8.02
22.99,7.37,-0.64,7.38,-0.64,0.64,0.91,0.19,8.01,8.02,8.01
23.22,7.39,-0.61,7.40,-0.61,0.61,0.88,0.19,8.01,8.01,8.00
23.45,7.42,-0.59,7.42,-0.58,0.58,0.85,0.20,8.01,8.01,8.01
23.69,7.44,-0.56,7.44,-0.56,0.56,0.81,0.20,8.00,8.00,8.00
23.92,7.46,-0.53,7.46,-0.53,0.53,0.78,0.21,8.00,8.00,7.99
24.16,7.48,-0.52,7.49,-0.51,0.51,0.74,0.21,7.99,7.99,8.00
24.40,7.51,-0.49,7.51,-0.48,0.48,0.71,0.22,8.00,7.99,8.00
24.65,7.53,-0.46,7.53,-0.46,0.46,0.67,0.23,7.99,7.99,7.99
24.89,7.55,-0.44,7.55,-0.43,0.43,0.64,0.23,7.99,7.99,7.99
25.14,7.57,-0.41,7.58,-0.41,0.41,0.60,0.24,7.98,7.99,7.98
25.39,7.60,-0.38,7.60,-0.39,0.39,0.57,0.24,7.99,7.99,7.98
25.65,7.62,-0.36,7.62,-0.36,0.36,0.53,0.25,7.99,7.98,7.98
25.91,7.64,-0.34,7.64,-0.34,0.34,0.50,0.25,7.98,7.98,7.98
26.16,7.66,-0.33,7.67,-0.32,0.32,0.46,0.26,7.98,7.98,7.99
26.43,7.68,-0.30,7.69,-0.29,0.29,0.43,0.26,7.98,7.98,7.98
26.69,7.71,-0.27,7.71,-0.27,0.27,0.40,0.27,7.99,7.98,7.98
26.96,7.73,-0.25,7.73,-0.25,0.25,0.36,0.27,7.99,7.98,7.98
27.23,7.75,-0.23,7.75,-0.24,0.24,0.33,0.27,7.99,7.99,7.98
27.50,7.77,-0.21,7.77,-0.22,0.22,0.30,0.27,7.99,7.99,7.98
27.77,7.79,-0.20,7.79,-0.20,0.20,0.27,0.28,7.99,7.99,7.99
28.05,7.81,-0.17,7.81,-0.18,0.18,0.24,0.28,7.99,7.99,7.98
28.33,7.83,-0.16,7.83,-0.16,0.16,0.21,0.28,7.99,7.99,7.99
28.62,7.85,-0.14,7.85,-0.14,0.14,0.18,0.27,7.99,7.99,7.99
28.90,7.87,-0.13,7.88,-0.12,0.12,0.15,0.27,7.99,7.99,8.00
29.19,7.89,-0.11,7.90,-0.09,0.09,0.12,0.27,7.99,7.99,8.00
29.48,7.91,-0.08,7.92,-0.07,0.07,0.09,0.26,7.98,7.99,7.99
29.78,7.93,-0.06,7.94,-0.05,0.05,0.06,0.26,7.98,7.99,7.99
30.08,7.96,-0.03,7.96,-0.02,0.02,0.03,0.25,7.99,7.98,7.99
30.38,7.98,0.01,7.98,0.00,-0.00,0.00,0.24,7.98,7.98,7.97
30.68,8.00,0.03,8.00,0.03,-0.03,-0.02,0.23,7.98,7.98,7.97
30.99,8.03,0.06,8.02,0.05,-0.05,-0.05,0.22,7.98,7.97,7.97
31.30,8.05,0.08,8.05,0.08,-0.08,-0.08,0.21,7.97,7.97,7.97
31.61,8.07,0.11,8.07,0.11,-0.11,-0.10,0.19,7.96,7.96,7.96
31.93,8.09,0.15,8.09,0.14,-0.14,-0.13,0.18,7.96,7.95,7.94
32.24,8.10,0.15,8.11,0.16,-0.16,-0.15,0.16,7.94,7.94,7.95
32.57,8.12,0.19,8.13,0.19,-0.19,-0.18,0.14,7.93,7.94,7.93
32.89,8.14,0.21,8.15,0.22,-0.22,-0.20,0.12,7.93,7.93,7.93
33.22,8.16,0.24,8.17,0.24,-0.24,-0.23,0.10,7.92,7.92,7.92
33.55,8.18,0.26,8.19,0.27,-0.27,-0.25,0.08,7.91,7.92,7.92
33.89,8.20,0.29,8.21,0.30,-0.30,-0.27,0.06,7.91,7.91,7.91
34.23,8.22,0.33,8.23,0.32,-0.32,-0.30,0.03,7.90,7.90,7.89
34.57,8.24,0.35,8.24,0.35,-0.35,-0.32,0.01,7.89,7.89,7.89
34.92,8.26,0.39,8.26,0.38,-0.38,-0.34,-0.02,7.88,7.88,7.87
35.27,8.28,0.39,8.28,0.41,-0.41,-0.37,-0.05,7.87,7.87,7.89
35.62,8.30,0.44,8.30,0.44,-0.44,-0.39,-0.08,7.86,7.86,7.86
35.97,8.32,0.46,8.32,0.47,-0.47,-0.41,-0.11,7.85,7.85,7.86
36.33,8.33,0.49,8.33,0.50,-0.50,-0.43,-0.14,7.83,7.84,7.84
36.70,8.35,0.53,8.35,0.53,-0.53,-0.46,-0.17,7.82,7.82,7.82
37.06,8.36,0.56,8.36,0.56,-0.56,-0.48,-0.20,7.80,7.80,7.80
37.43,8.37,0.59,8.37,0.59,-0.59,-0.50,-0.23,7.78,7.78,7.78
37.81,8.38,0.61,8.38,0.62,-0.62,-0.52,-0.27,7.76,7.77,7.77
38.19,8.39,0.65,8.39,0.65,-0.65,-0.55,-0.30,7.75,7.75,7.74
38.57,8.40,0.68,8.40,0.67,-0.67,-0.57,-0.34,7.73,7.72,7.72
38.95,8.40,0.69,8.40,0.70,-0.70,-0.59,-0.37,7.71,7.70,7.71
39.34,8.40,0.72,8.40,0.72,-0.72,-0.61,-0.41,7.68,7.68,7.68
39.74,8.40,0.75,8.40,0.74,-0.74,-0.64,-0.45,7.66,7.66,7.65
40.14,8.40,0.77,8.40,0.76,-0.76,-0.66,-0.48,7.64,7.64,7.63
40.54,8.39,0.78,8.40,0.78,-0.78,-0.68,-0.52,7.61,7.61,7.61
40.94,8.39,0.81,8.39,0.80,-0.80,-0.70,-0.56,7.59,7.59,7.58
41.35,8.38,0.81,8.38,0.81,-0.81,-0.73,-0.60,7.57,7.57,7.57
41.76,8.37,0.83,8.37,0.83,-0.83,-0.75,-0.64,7.55,7.55,7.54
42.18,8.36,0.83,8.36,0.84,-0.84,-0.77,-0.68,7.52,7.52,7.53
42.60,8.35,0.85,8.35,0.85,-0.85,-0.79,-0.72,7.50,7.50,7.50
43.03,8.34,0.86,8.33,0.86,-0.86,-0.82,-0.76,7.48,7.48,7.48
43.46,8.32,0.88,8.32,0.87,-0.87,-0.84,-0.81,7.46,7.45,7.44
43.90,8.30,0.88,8.30,0.87,-0.87,-0.86,-0.85,7.43,7.42,7.42
44.33,8.28,0.89,8.28,0.88,-0.88,-0.89,-0.89,7.40,7.40,7.39
44.78,8.26,0.89,8.26,0.89,-0.89,-0.91,-0.94,7.37,7.37,7.37
45.23,8.24,0.89,8.24,0.91,-0.91,-0.93,-0.98,7.34,7.34,7.35
45.68,8.22,0.92,8.22,0.92,-0.92,-0.96,-1.03,7.30,7.30,7.30
46.13,8.20,0.93,8.21,0.94,-0.94,-0.98,-1.07,7.26,7.27,7.27
46.60,8.18,0.95,8.19,0.96,-0.96,-1.00,-1.12,7.22,7.23,7.23
47.06,8.17,0.97,8.17,0.98,-0.98,-1.03,-1.17,7.19,7.19,7.20
47.53,8.15,0.99,8.16,1.01,-1.01,-1.05,-1.21,7.14,7.15,7.16
48.01,8.14,1.03,8.15,1.04,-1.04,-1.08,-1.26,7.11,7.11,7.11
48.49,8.14,1.07,8.14,1.07,-1.07,-1.10,-1.31,7.08,7.07,7.07
48.97,8.13,1.11,8.13,1.10,-1.10,-1.13,-1.36,7.03,7.03,7.02
49.46,8.13,1.14,8.13,1.14,-1.14,-1.15,-1.41,6.99,6.99,6.99
49.96,8.13,1.20,8.13,1.18,-1.18,-1.18,-1.46,6.95,6.95,6.93
50.46,8.13,1.23,8.13,1.23,-1.23,-1.20,-1.51,6.90,6.90,6.90
50.96,8.13,1.27,8.14,1.28,-1.28,-1.23,-1.56,6.86,6.86,6.86
51.47,8.14,1.32,8.15,1.33,-1.33,-1.25,-1.61,6.82,6.82,6.82
51.99,8.15,1.38,8.16,1.38,-1.38,-1.28,-1.66,6.77,6.78,6.77
52.51,8.17,1.43,8.18,1.44,-1.44,-1.30,-1.71,6.73,6.74,6.74
53.03,8.18,1.47,8.20,1.50,-1.50,-1.33,-1.76,6.68,6.70,6.71
53.56,8.20,1.54,8.22,1.56,-1.56,-1.36,-1.81,6.64,6.66,6.66
54.10,8.22,1.61,8.24,1.62,-1.62,-1.38,-1.86,6.60,6.62,6.61
54.64,8.25,1.68,8.26,1.68,-1.68,-1.41,-1.91,6.57,6.58,6.57
55.18,8.28,1.75,8.28,1.75,-1.75,-1.44,-1.95,6.54,6.54,6.53
55.74,8.31,1.83,8.31,1.81,-1.81,-1.47,-2.00,6.51,6.50,6.48
56.29,8.34,1.88,8.33,1.87,-1.87,-1.49,-2.05,6.48,6.46,6.46
56.86,8.36,1.94,8.35,1.93,-1.93,-1.52,-2.09,6.44,6.42,6.42
57.42,8.37,2.00,8.37,1.99,-1.99,-1.55,-2.13,6.39,6.38,6.37
58.00,8.39,2.06,8.38,2.04,-2.04,-1.58,-2.17,6.35,6.34,6.33
58.58,8.40,2.10,8.39,2.10,-2.10,-1.61,-2.21,6.30,6.29,6.30
59.16,8.40,2.13,8.40,2.15,-2.15,-1.64,-2.25,6.25,6.25,6.27
59.76,8.40,2.18,8.40,2.20,-2.20,-1.67,-2.29,6.20,6.20,6.22
60.35,8.40,2.23,8.40,2.25,-2.25,-1.70,-2.32,6.16,6.15,6.17
60.96,8.39,2.28,8.39,2.29,-2.29,-1.73,-2.35,6.11,6.10,6.11
61.57,8.38,2.33,8.38,2.33,-2.33,-1.76,-2.38,6.05,6.05,6.05
62.18,8.36,2.37,8.37,2.37,-2.37,-1.79,-2.41,6.00,6.00,5.99
62.80,8.35,2.42,8.35,2.41,-2.41,-1.82,-2.43,5.95,5.95,5.93
63.43,8.33,2.45,8.33,2.44,-2.44,-1.85,-2.46,5.89,5.89,5.88
64.07,8.31,2.48,8.31,2.47,-2.47,-1.88,-2.48,5.84,5.84,5.83
64.71,8.28,2.50,8.29,2.50,-2.50,-1.91,-2.49,5.78,5.78,5.78
65.35,8.26,2.54,8.26,2.53,-2.53,-1.94,-2.51,5.73,5.73,5.72
66.01,8.23,2.56,8.23,2.56,-2.56,-1.97,-2.53,5.68,5.67,5.67
66.67,8.20,2.57,8.20,2.58,-2.58,-2.01,-2.54,5.62,5.62,5.63
67.33,8.17,2.61,8.17,2.61,-2.61,-2.04,-2.55,5.57,5.56,5.56
68.01,8.14,2.63,8.14,2.63,-2.63,-2.07,-2.56,5.51,5.51,5.51
68.69,8.11,2.65,8.11,2.66,-2.66,-2.10,-2.57,5.46,5.45,5.46
69.37,8.07,2.66,8.08,2.68,-2.68,-2.14,-2.58,5.39,5.40,5.41
70.07,8.04,2.69,8.05,2.71,-2.71,-2.17,-2.58,5.33,5.34,5.35
70.77,8.01,2.73,8.02,2.74,-2.74,-2.21,-2.59,5.27,5.28,5.28
71.48,7.98,2.75,7.99,2.77,-2.77,-2.24,-2.60,5.22,5.23,5.23
72.19,7.95,2.78,7.97,2.80,-2.80,-2.27,-2.60,5.16,5.17,5.17
72.91,7.93,2.83,7.94,2.82,-2.82,-2.31,-2.61,5.11,5.11,5.10
73.64,7.91,2.86,7.91,2.85,-2.85,-2.34,-2.62,5.06,5.06,5.05
74.38,7.88,2.89,7.88,2.88,-2.88,-2.38,-2.62,5.00,5.00,4.99
75.12,7.86,2.92,7.85,2.90,-2.90,-2.41,-2.63,4.96,4.95,4.94
75.87,7.83,2.94,7.82,2.93,-2.93,-2.45,-2.64,4.91,4.89,4.89
76.63,7.79,2.96,7.79,2.95,-2.95,-2.48,-2.65,4.84,4.84,4.83
77.40,7.75,2.96,7.76,2.97,-2.97,-2.52,-2.66,4.78,4.79,4.79
78.17,7.72,2.99,7.73,2.99,-2.99,-2.56,-2.67,4.73,4.74,4.73
78.95,7.69,3.00,7.69,3.00,-3.00,-2.59,-2.68,4.69,4.69,4.69
79.74,7.65,3.01,7.66,3.02,-3.02,-2.63,-2.70,4.64,4.64,4.64
80.54,7.61,3.02,7.62,3.03,-3.03,-2.67,-2.72,4.58,4.59,4.59
81.35,7.58,3.05,7.58,3.04,-3.04,-2.70,-2.73,4.54,4.54,4.53
82.16,7.54,3.04,7.54,3.05,-3.05,-2.74,-2.75,4.50,4.49,4.50
82.98,7.50,3.06,7.50,3.06,-3.06,-2.78,-2.78,4.44,4.44,4.44
83.81,7.47,3.08,7.46,3.07,-3.07,-2.81,-2.80,4.40,4.38,4.39
84.65,7.42,3.09,7.42,3.09,-3.09,-2.85,-2.83,4.34,4.33,4.33
85.50,7.38,3.11,7.38,3.10,-3.10,-2.89,-2.86,4.28,4.28,4.27
86.35,7.33,3.11,7.35,3.12,-3.12,-2.93,-2.89,4.21,4.22,4.22
87.22,7.28,3.11,7.31,3.14,-3.14,-2.97,-2.92,4.14,4.17,4.17
88.09,7.25,3.14,7.27,3.16,-3.16,-3.00,-2.95,4.09,4.11,4.11
88.97,7.22,3.17,7.24,3.18,-3.18,-3.04,-2.99,4.04,4.06,4.05
89.86,7.20,3.20,7.21,3.21,-3.21,-3.08,-3.03,3.99,4.00,4.00
90.76,7.18,3.24,7.18,3.24,-3.24,-3.12,-3.07,3.95,3.94,3.94
91.66,7.16,3.29,7.15,3.27,-3.27,-3.16,-3.12,3.90,3.88,3.87
92.58,7.13,3.31,7.12,3.30,-3.30,-3.20,-3.16,3.84,3.82,3.82
93.51,7.10,3.33,7.09,3.33,-3.33,-3.23,-3.21,3.78,3.76,3.77
94.44,7.06,3.35,7.06,3.36,-3.36,-3.27,-3.26,3.70,3.70,3.71
95.39,7.03,3.39,7.03,3.39,-3.39,-3.31,-3.31,3.64,3.64,3.64
96.34,7.00,3.43,7.00,3.43,-3.43,-3.35,-3.37,3.57,3.57,3.57
97.30,6.97,3.46,6.98,3.47,-3.47,-3.39,-3.43,3.51,3.51,3.51
98.28,6.95,3.51,6.95,3.50,-3.50,-3.43,-3.48,3.45,3.45,3.44
99.26,6.92,3.54,6.93,3.53,-3.53,-3.47,-3.54,3.39,3.39,3.38
100.25,6.89,3.57,6.90,3.57,-3.57,-3.50,-3.60,3.32,3.33,3.32
101.25,6.85,3.58,6.88,3.61,-3.61,-3.54,-3.67,3.25,3.27,3.27
102.27,6.84,3.63,6.86,3.65,-3.65,-3.58,-3.73,3.20,3.21,3.21
103.29,6.83,3.68,6.84,3.68,-3.68,-3.62,-3.79,3.15,3.16,3.15
104.32,6.82,3.72,6.82,3.72,-3.72,-3.66,-3.86,3.10,3.10,3.10
105.37,6.80,3.76,6.80,3.76,-3.76,-3.70,-3.92,3.04,3.04,3.04
106.42,6.79,3.80,6.78,3.80,-3.80,-3.73,-3.99,3.00,2.99,2.99
107.48,6.77,3.84,6.77,3.83,-3.83,-3.77,-4.05,2.94,2.93,2.93
108.56,6.75,3.87,6.75,3.87,-3.87,-3.81,-4.12,2.88,2.87,2.88
109.64,6.74,3.92,6.73,3.91,-3.91,-3.85,-4.18,2.83,2.81,2.82
110.74,6.72,3.96,6.70,3.95,-3.95,-3.88,-4.24,2.78,2.76,2.76
111.85,6.68,3.98,6.68,3.98,-3.98,-3.92,-4.30,2.70,2.70,2.70
112.97,6.65,4.00,6.66,4.02,-4.02,-3.96,-4.35,2.63,2.64,2.65
114.10,6.62,4.03,6.63,4.05,-4.05,-3.99,-4.41,2.57,2.58,2.59
115.24,6.59,4.08,6.60,4.08,-4.08,-4.03,-4.46,2.52,2.52,2.51
116.39,6.57,4.12,6.57,4.11,-4.11,-4.06,-4.51,2.46,2.46,2.45
117.55,6.55,4.16,6.55,4.14,-4.14,-4.10,-4.55,2.41,2.41,2.39
118.73,6.52,4.19,6.52,4.17,-4.17,-4.13,-4.59,2.35,2.35,2.33
119.92,6.48,4.19,6.50,4.20,-4.20,-4.17,-4.63,2.28,2.29,2.29
121.12,6.45,4.21,6.47,4.24,-4.24,-4.20,-4.66,2.22,2.24,2.24
122.33,6.43,4.25,6.44,4.26,-4.26,-4.24,-4.69,2.17,2.18,2.18
123.55,6.40,4.27,6.42,4.29,-4.29,-4.27,-4.71,2.11,2.12,2.13
124.79,6.38,4.30,6.39,4.32,-4.32,-4.30,-4.72,2.06,2.07,2.08
126.03,6.36,4.34,6.36,4.34,-4.34,-4.33,-4.74,2.02,2.01,2.02
127.29,6.35,4.38,6.33,4.37,-4.37,-4.36,-4.74,1.99,1.96,1.97
128.57,6.33,4.43,6.29,4.39,-4.39,-4.40,-4.74,1.95,1.91,1.90
129.85,6.28,4.43,6.26,4.41,-4.41,-4.43,-4.74,1.87,1.85,1.85
131.15,6.22,4.43,6.22,4.43,-4.43,-4.46,-4.73,1.80,1.80,1.79
132.46,6.18,4.44,6.19,4.45,-4.45,-4.49,-4.72,1.74,1.74,1.74
133.79,6.13,4.45,6.15,4.46,-4.46,-4.51,-4.71,1.67,1.69,1.68
135.12,6.08,4.45,6.11,4.47,-4.47,-4.54,-4.69,1.61,1.63,1.63
136.48,6.05,4.47,6.06,4.48,-4.48,-4.57,-4.66,1.57,1.58,1.58
137.84,6.01,4.48,6.01,4.48,-4.48,-4.59,-4.64,1.53,1.53,1.53
139.22,5.98,4.51,5.96,4.49,-4.49,-4.62,-4.61,1.50,1.48,1.47
140.61,5.93,4.50,5.92,4.49,-4.49,-4.65,-4.58,1.44,1.43,1.43
142.02,5.87,4.50,5.87,4.49,-4.49,-4.67,-4.55,1.38,1.38,1.37
143.44,5.83,4.50,5.83,4.49,-4.49,-4.69,-4.52,1.34,1.34,1.33
144.87,5.78,4.49,5.79,4.50,-4.50,-4.72,-4.48,1.29,1.29,1.29
146.32,5.73,4.49,5.74,4.50,-4.50,-4.74,-4.45,1.23,1.24,1.24
147.78,5.68,4.48,5.70,4.50,-4.50,-4.76,-4.42,1.18,1.20,1.20
149.26,5.64,4.49,5.67,4.51,-4.51,-4.78,-4.38,1.13,1.16,1.15
150.75,5.61,4.50,5.63,4.51,-4.51,-4.80,-4.35,1.10,1.11,1.11
152.26,5.59,4.52,5.59,4.52,-4.52,-4.81,-4.32,1.07,1.07,1.07
153.78,5.56,4.53,5.56,4.53,-4.53,-4.83,-4.29,1.03,1.03,1.03
155.32,5.54,4.55,5.52,4.54,-4.54,-4.85,-4.26,1.00,0.98,0.99
156.88,5.49,4.55,5.50,4.56,-4.56,-4.86,-4.23,0.94,0.94,0.94
158.44,5.47,4.58,5.47,4.57,-4.57,-4.88,-4.20,0.90,0.90,0.89
160.03,5.42,4.57,5.44,4.59,-4.59,-4.89,-4.18,0.83,0.85,0.85
161.63,5.40,4.59,5.41,4.61,-4.61,-4.90,-4.16,0.80,0.81,0.81
163.24,5.38,4.62,5.38,4.62,-4.62,-4.91,-4.14,0.76,0.76,0.76
164.88,5.35,4.64,5.35,4.64,-4.64,-4.92,-4.12,0.71,0.71,0.71
166.53,5.33,4.67,5.32,4.65,-4.65,-4.93,-4.11,0.68,0.67,0.66
168.19,5.31,4.68,5.29,4.66,-4.66,-4.94,-4.10,0.65,0.62,0.63
169.87,5.27,4.70,5.25,4.68,-4.68,-4.95,-4.09,0.59,0.57,0.57
171.57,5.23,4.71,5.22,4.69,-4.69,-4.95,-4.09,0.54,0.52,0.52
173.29,5.19,4.71,5.19,4.71,-4.71,-4.96,-4.09,0.48,0.48,0.48
175.02,5.13,4.70,5.15,4.72,-4.72,-4.96,-4.09,0.41,0.43,0.43
176.77,5.09,4.71,5.12,4.73,-4.73,-4.97,-4.09,0.36,0.39,0.38
178.54,5.06,4.72,5.09,4.75,-4.75,-4.97,-4.10,0.32,0.34,0.34
180.32,5.03,4.75,5.05,4.76,-4.76,-4.97,-4.11,0.28,0.29,0.28
182.13,5.01,4.76,5.01,4.77,-4.77,-4.97,-4.13,0.25,0.25,0.25
183.95,4.98,4.78,4.98,4.78,-4.78,-4.96,-4.15,0.20,0.20,0.20
185.79,4.96,4.81,4.94,4.79,-4.79,-4.96,-4.17,0.17,0.15,0.15
187.65,4.93,4.82,4.91,4.80,-4.80,-4.96,-4.19,0.13,0.11,0.11
189.52,4.89,4.82,4.88,4.82,-4.82,-4.95,-4.22,0.08,0.07,0.07
191.42,4.85,4.82,4.85,4.83,-4.83,-4.95,-4.25,0.02,0.02,0.03
193.33,4.81,4.82,4.83,4.84,-4.84,-4.94,-4.28,-0.03,-0.02,-0.01
195.27,4.77,4.83,4.80,4.85,-4.85,-4.93,-4.31,-0.08,-0.06,-0.06
197.22,4.74,4.85,4.76,4.86,-4.86,-4.92,-4.35,-0.11,-0.09,-0.11
199.19,4.72,4.86,4.73,4.86,-4.86,-4.91,-4.39,-0.13,-0.13,-0.14
201.18,4.70,4.88,4.69,4.86,-4.86,-4.90,-4.43,-0.15,-0.17,-0.18
203.19,4.67,4.88,4.65,4.86,-4.86,-4.89,-4.47,-0.18,-0.20,-0.21
205.23,4.64,4.87,4.62,4.85,-4.85,-4.87,-4.52,-0.21,-0.24,-0.23
207.28,4.60,4.86,4.58,4.85,-4.85,-4.86,-4.56,-0.25,-0.27,-0.26
209.35,4.55,4.85,4.55,4.85,-4.85,-4.85,-4.61,-0.29,-0.30,-0.30
211.44,4.50,4.83,4.51,4.84,-4.84,-4.83,-4.65,-0.34,-0.33,-0.33
213.56,4.45,4.80,4.48,4.83,-4.83,-4.81,-4.70,-0.38,-0.36,-0.35
215.69,4.41,4.79,4.44,4.82,-4.82,-4.79,-4.75,-0.41,-0.38,-0.38
217.85,4.37,4.78,4.40,4.81,-4.81,-4.77,-4.79,-0.43,-0.41,-0.41
220.03,4.36,4.80,4.36,4.79,-4.79,-4.75,-4.83,-0.43,-0.43,-0.44
222.23,4.33,4.80,4.32,4.77,-4.77,-4.73,-4.88,-0.44,-0.46,-0.47
224.45,4.30,4.78,4.27,4.76,-4.76,-4.71,-4.92,-0.45,-0.48,-0.48
226.70,4.26,4.77,4.24,4.74,-4.74,-4.69,-4.95,-0.48,-0.50,-0.51
228.96,4.20,4.72,4.20,4.72,-4.72,-4.66,-4.99,-0.52,-0.52,-0.52
231.25,4.16,4.70,4.16,4.71,-4.71,-4.64,-5.02,-0.54,-0.54,-0.54
233.57,4.11,4.67,4.13,4.69,-4.69,-4.62,-5.04,-0.57,-0.56,-0.56
235.90,4.06,4.63,4.09,4.67,-4.67,-4.59,-5.07,-0.60,-0.57,-0.57
238.26,4.04,4.64,4.06,4.65,-4.65,-4.56,-5.08,-0.60,-0.59,-0.60
240.64,4.01,4.60,4.02,4.62,-4.62,-4.54,-5.10,-0.61,-0.60,-0.59
243.05,3.99,4.60,3.99,4.59,-4.59,-4.51,-5.10,-0.60,-0.61,-0.61
245.48,3.97,4.59,3.96,4.57,-4.57,-4.48,-5.10,-0.60,-0.61,-0.62
247.93,3.93,4.56,3.92,4.55,-4.55,-4.45,-5.10,-0.61,-0.62,-0.63
250.41,3.91,4.53,3.90,4.52,-4.52,-4.42,-5.09,-0.61,-0.63,-0.62
252.92,3.86,4.49,3.87,4.50,-4.50,-4.39,-5.07,-0.64,-0.63,-0.63
255.45,3.83,4.47,3.84,4.48,-4.48,-4.36,-5.05,-0.64,-0.64,-0.64
258.00,3.80,4.44,3.82,4.46,-4.46,-4.33,-5.02,-0.65,-0.64,-0.64
260.58,3.77,4.41,3.79,4.43,-4.43,-4.29,-4.98,-0.66,-0.64,-0.64
263.19,3.75,4.39,3.76,4.40,-4.40,-4.26,-4.94,-0.65,-0.65,-0.64
265.82,3.72,4.37,3.72,4.37,-4.37,-4.23,-4.90,-0.65,-0.65,-0.65
268.48,3.70,4.35,3.69,4.34,-4.34,-4.19,-4.84,-0.64,-0.65,-0.65
271.16,3.68,4.33,3.65,4.31,-4.31,-4.16,-4.79,-0.62,-0.65,-0.65
273.87,3.63,4.28,3.62,4.27,-4.27,-4.13,-4.73,-0.64,-0.65,-0.65
276.61,3.60,4.25,3.59,4.24,-4.24,-4.09,-4.67,-0.64,-0.66,-0.65
279.38,3.56,4.23,3.56,4.21,-4.21,-4.05,-4.60,-0.65,-0.66,-0.67
282.17,3.51,4.18,3.52,4.18,-4.18,-4.02,-4.53,-0.67,-0.66,-0.67
284.99,3.47,4.13,3.49,4.14,-4.14,-3.98,-4.46,-0.67,-0.65,-0.66
287.84,3.42,4.07,3.45,4.11,-4.11,-3.95,-4.39,-0.68,-0.65,-0.65
290.72,3.39,4.05,3.42,4.07,-4.07,-3.91,-4.31,-0.68,-0.65,-0.66
293.63,3.37,4.02,3.38,4.03,-4.03,-3.87,-4.24,-0.66,-0.65,-0.65
296.57,3.35,3.99,3.35,3.99,-3.99,-3.84,-4.16,-0.64,-0.64,-0.64
299.53,3.33,3.97,3.31,3.95,-3.95,-3.80,-4.08,-0.62,-0.64,-0.64
302.53,3.30,3.92,3.28,3.91,-3.91,-3.76,-4.01,-0.61,-0.63,-0.62
305.55,3.26,3.89,3.25,3.87,-3.87,-3.72,-3.93,-0.61,-0.63,-0.63
308.61,3.22,3.84,3.21,3.83,-3.83,-3.68,-3.85,-0.61,-0.62,-0.62
311.69,3.17,3.78,3.18,3.79,-3.79,-3.65,-3.78,-0.62,-0.61,-0.61
314.81,3.14,3.75,3.15,3.76,-3.76,-3.61,-3.70,-0.61,-0.60,-0.61
317.96,3.10,3.70,3.12,3.72,-3.72,-3.57,-3.63,-0.62,-0.60,-0.60
321.14,3.08,3.67,3.10,3.68,-3.68,-3.53,-3.56,-0.60,-0.59,-0.59
324.35,3.05,3.64,3.06,3.64,-3.64,-3.49,-3.49,-0.59,-0.58,-0.59
327.59,3.02,3.58,3.03,3.61,-3.61,-3.45,-3.42,-0.58,-0.57,-0.56
330.87,3.01,3.58,3.00,3.57,-3.57,-3.41,-3.36,-0.56,-0.57,-0.57
334.18,2.99,3.55,2.97,3.53,-3.53,-3.38,-3.29,-0.54,-0.56,-0.56
337.52,2.95,3.51,2.95,3.50,-3.50,-3.34,-3.23,-0.54,-0.55,-0.56
340.90,2.92,3.46,2.92,3.46,-3.46,-3.30,-3.17,-0.54,-0.54,-0.54
344.30,2.89,3.42,2.89,3.43,-3.43,-3.26,-3.12,-0.53,-0.53,-0.53
347.75,2.86,3.39,2.86,3.39,-3.39,-3.22,-3.06,-0.53,-0.53,-0.53
351.23,2.83,3.36,2.83,3.35,-3.35,-3.18,-3.01,-0.52,-0.52,-0.53
354.74,2.80,3.30,2.80,3.31,-3.31,-3.14,-2.96,-0.51,-0.51,-0.50
358.28,2.77,3.28,2.77,3.28,-3.28,-3.10,-2.91,-0.50,-0.50,-0.51
361.87,2.75,3.25,2.74,3.24,-3.24,-3.06,-2.87,-0.49,-0.50,-0.50
365.49,2.72,3.21,2.72,3.20,-3.20,-3.03,-2.82,-0.48,-0.49,-0.49
369.14,2.69,3.16,2.69,3.17,-3.17,-2.99,-2.78,-0.48,-0.48,-0.47
372.83,2.65,3.12,2.67,3.14,-3.14,-2.95,-2.74,-0.48,-0.47,-0.47
376.56,2.62,3.09,2.65,3.11,-3.11,-2.91,-2.71,-0.48,-0.46,-0.47
380.33,2.60,3.06,2.63,3.08,-3.08,-2.87,-2.67,-0.48,-0.45,-0.46
384.13,2.59,3.03,2.61,3.05,-3.05,-2.83,-2.64,-0.46,-0.44,-0.44
387.97,2.58,3.02,2.59,3.02,-3.02,-2.80,-2.61,-0.44,-0.43,-0.44
391.85,2.57,3.00,2.57,2.99,-2.99,-2.76,-2.58,-0.42,-0.42,-0.43
395.77,2.55,2.97,2.55,2.97,-2.97,-2.72,-2.55,-0.41,-0.41,-0.42
399.73,2.54,2.95,2.53,2.94,-2.94,-2.68,-2.53,-0.40,-0.40,-0.41
403.72,2.53,2.91,2.52,2.91,-2.91,-2.65,-2.50,-0.38,-0.39,-0.38
407.76,2.51,2.90,2.50,2.88,-2.88,-2.61,-2.48,-0.37,-0.38,-0.39
411.84,2.48,2.86,2.47,2.85,-2.85,-2.57,-2.46,-0.37,-0.38,-0.38
415.96,2.45,2.81,2.45,2.82,-2.82,-2.54,-2.44,-0.36,-0.37,-0.36
420.12,2.42,2.78,2.42,2.78,-2.78,-2.50,-2.42,-0.36,-0.36,-0.36
424.32,2.39,2.74,2.39,2.74,-2.74,-2.46,-2.40,-0.35,-0.35,-0.35
428.56,2.37,2.70,2.36,2.70,-2.70,-2.43,-2.39,-0.32,-0.34,-0.33
432.85,2.33,2.65,2.32,2.65,-2.65,-2.39,-2.37,-0.32,-0.33,-0.32
437.18,2.29,2.62,2.29,2.61,-2.61,-2.36,-2.35,-0.32,-0.32,-0.33
441.55,2.25,2.57,2.25,2.57,-2.57,-2.32,-2.34,-0.31,-0.31,-0.32
445.96,2.21,2.52,2.22,2.52,-2.52,-2.28,-2.32,-0.31,-0.30,-0.31
450.42,2.17,2.47,2.18,2.48,-2.48,-2.25,-2.31,-0.31,-0.29,-0.30
454.93,2.13,2.42,2.15,2.44,-2.44,-2.22,-2.29,-0.30,-0.29,-0.29
459.48,2.10,2.38,2.12,2.40,-2.40,-2.18,-2.27,-0.29,-0.28,-0.28
464.07,2.08,2.34,2.09,2.36,-2.36,-2.15,-2.26,-0.27,-0.27,-0.26
468.71,2.06,2.31,2.06,2.32,-2.32,-2.11,-2.24,-0.25,-0.26,-0.25
473.40,2.02,2.27,2.03,2.28,-2.28,-2.08,-2.22,-0.26,-0.25,-0.25
478.13,2.00,2.24,2.00,2.24,-2.24,-2.05,-2.20,-0.24,-0.24,-0.24
482.91,1.98,2.21,1.98,2.20,-2.20,-2.01,-2.18,-0.22,-0.23,-0.23
487.74,1.96,2.18,1.95,2.17,-2.17,-1.98,-2.16,-0.21,-0.22,-0.22
492.62,1.93,2.14,1.93,2.13,-2.13,-1.95,-2.14,-0.20,-0.20,-0.21
497.55,1.90,2.10,1.91,2.10,-2.10,-1.91,-2.11,-0.20,-0.19,-0.20
502.52,1.87,2.06,1.89,2.07,-2.07,-1.88,-2.09,-0.19,-0.18,-0.19
507.55,1.85,2.02,1.86,2.03,-2.03,-1.85,-2.06,-0.18,-0.17,-0.17
512.62,1.83,1.99,1.83,1.99,-1.99,-1.82,-2.03,-0.16,-0.16,-0.16
517.75,1.80,1.94,1.80,1.95,-1.95,-1.79,-2.00,-0.15,-0.15,-0.14
522.93,1.78,1.91,1.77,1.91,-1.91,-1.76,-1.97,-0.12,-0.13,-0.13
