frequency,raw,error,smoothed,error_smoothed,equalization,parametric_eq,fixed_band_eq,equalized_raw,equalized_smoothed,target
20.00,-15.30,-20.68,-15.16,-20.57,20.57,18.85,7.84,5.27,5.41,5.38
20.20,-15.09,-20.52,-15.01,-20.45,20.45,18.99,8.00,5.36,5.45,5.43
20.40,-14.87,-20.35,-14.85,-20.33,20.33,19.10,8.17,5.46,5.48,5.48
20.61,-14.67,-20.18,-14.69,-20.21,20.21,19.17,8.35,5.54,5.52,5.51
20.81,-14.44,-20.00,-14.54,-20.08,20.08,19.21,8.53,5.64,5.55,5.56
21.02,-14.24,-19.84,-14.38,-19.96,19.96,19.21,8.71,5.71,5.57,5.60
21.23,-14.11,-19.73,-14.23,-19.83,19.83,19.18,8.90,5.72,5.60,5.62
21.44,-13.99,-19.63,-14.08,-19.70,19.70,19.13,9.09,5.71,5.62,5.64
21.66,-13.86,-19.52,-13.92,-19.57,19.57,19.04,9.29,5.70,5.64,5.66
21.87,-13.73,-19.40,-13.77,-19.44,19.44,18.93,9.49,5.70,5.66,5.67
22.09,-13.61,-19.30,-13.62,-19.30,19.30,18.80,9.70,5.69,5.68,5.69
22.31,-13.51,-19.21,-13.47,-19.17,19.17,18.65,9.92,5.65,5.69,5.70
22.54,-13.40,-19.10,-13.34,-19.04,19.04,18.48,10.14,5.63,5.70,5.70
22.76,-13.29,-18.99,-13.21,-18.91,18.91,18.30,10.37,5.62,5.70,5.70
22.99,-13.18,-18.87,-13.08,-18.79,18.79,18.12,10.60,5.60,5.70,5.69
23.22,-12.99,-18.68,-12.95,-18.65,18.65,17.93,10.84,5.66,5.70,5.69
23.45,-12.80,-18.49,-12.81,-18.51,18.51,17.73,11.09,5.71,5.70,5.69
23.69,-12.61,-18.31,-12.64,-18.35,18.35,17.53,11.35,5.74,5.70,5.70
23.92,-12.40,-18.10,-12.47,-18.18,18.18,17.33,11.61,5.78,5.70,5.70
24.16,-12.25,-17.95,-12.30,-18.00,18.00,17.14,11.88,5.75,5.70,5.70
24.40,-12.13,-17.84,-12.12,-17.82,17.82,16.94,12.17,5.69,5.70,5.71
24.65,-12.00,-17.70,-11.94,-17.64,17.64,16.75,12.46,5.64,5.70,5.70
24.89,-11.87,-17.57,-11.76,-17.46,17.46,16.56,12.75,5.59,5.70,5.70
25.14,-11.68,-17.38,-11.58,-17.29,17.29,16.38,13.06,5.61,5.70,5.70
25.39,-11.44,-17.15,-11.43,-17.13,17.13,16.20,13.38,5.69,5.70,5.71
25.65,-11.21,-16.92,-11.28,-16.99,16.99,16.03,13.71,5.77,5.70,5.71
25.91,-10.98,-16.68,-11.15,-16.85,16.85,15.87,14.05,5.88,5.70,5.70
26.16,-10.83,-16.53,-11.01,-16.72,16.72,15.71,14.40,5.88,5.70,5.70
26.43,-10.75,-16.45,-10.87,-16.57,16.57,15.55,14.76,5.82,5.70,5.70
26.69,-10.66,-16.36,-10.72,-16.42,16.42,15.40,15.13,5.76,5.70,5.70
26.96,-10.58,-16.28,-10.56,-16.26,16.26,15.26,15.51,5.68,5.70,5.70
27.23,-10.49,-16.19,-10.40,-16.10,16.10,15.13,15.90,5.61,5.70,5.70
27.50,-10.40,-16.10,-10.25,-15.94,15.94,15.00,16.30,5.54,5.69,5.70
27.77,-10.31,-16.00,-10.10,-15.79,15.79,14.87,16.71,5.48,5.69,5.69
28.05,-10.18,-15.87,-9.96,-15.65,15.65,14.75,17.13,5.47,5.69,5.69
28.33,-9.90,-15.58,-9.82,-15.51,15.51,14.64,17.55,5.61,5.69,5.68
28.62,-9.63,-15.31,-9.69,-15.38,15.38,14.53,17.96,5.75,5.69,5.68
28.90,-9.34,-15.03,-9.55,-15.24,15.24,14.42,18.37,5.90,5.69,5.69
29.19,-9.18,-14.86,-9.40,-15.09,15.09,14.32,18.77,5.91,5.69,5.68
29.48,-9.09,-14.78,-9.25,-14.93,14.93,14.22,19.15,5.84,5.68,5.69
29.78,-9.01,-14.69,-9.09,-14.77,14.77,14.12,19.49,5.76,5.68,5.68
30.08,-8.92,-14.61,-8.94,-14.62,14.62,14.03,19.80,5.69,5.68,5.69
30.38,-8.84,-14.52,-8.79,-14.47,14.47,13.94,20.05,5.62,5.68,5.68
30.68,-8.76,-14.44,-8.64,-14.32,14.32,13.85,20.24,5.56,5.68,5.68
30.99,-8.67,-14.35,-8.50,-14.18,14.18,13.76,20.35,5.50,5.68,5.68
31.30,-8.47,-14.15,-8.36,-14.04,14.04,13.66,20.38,5.56,5.67,5.67
31.61,-8.26,-13.93,-8.24,-13.91,13.91,13.57,20.33,5.65,5.67,5.67
31.93,-8.06,-13.73,-8.11,-13.78,13.78,13.48,20.20,5.73,5.67,5.67
32.24,-7.90,-13.56,-7.98,-13.65,13.65,13.39,19.99,5.75,5.66,5.66
32.57,-7.78,-13.44,-7.84,-13.50,13.50,13.29,19.72,5.71,5.66,5.66
32.89,-7.65,-13.31,-7.68,-13.33,13.33,13.19,19.40,5.68,5.66,5.66
33.22,-7.50,-13.15,-7.52,-13.17,13.17,13.09,19.04,5.67,5.65,5.65
33.55,-7.35,-13.00,-7.35,-13.00,13.00,12.98,18.65,5.65,5.65,5.65
33.89,-7.19,-12.83,-7.19,-12.83,12.83,12.87,18.24,5.64,5.64,5.64
34.23,-7.05,-12.69,-7.03,-12.67,12.67,12.76,17.82,5.62,5.64,5.64
34.57,-6.93,-12.56,-6.88,-12.51,12.51,12.64,17.39,5.58,5.63,5.63
34.92,-6.80,-12.43,-6.73,-12.36,12.36,12.51,16.96,5.55,5.63,5.63
35.27,-6.62,-12.24,-6.58,-12.21,12.21,12.38,16.54,5.58,5.63,5.62
35.62,-6.42,-12.04,-6.44,-12.06,12.06,12.24,16.12,5.64,5.62,5.62
35.97,-6.21,-11.83,-6.29,-11.91,11.91,12.10,15.71,5.70,5.62,5.62
36.33,-6.09,-11.71,-6.15,-11.76,11.76,11.96,15.31,5.67,5.62,5.62
36.70,-5.96,-11.57,-6.01,-11.63,11.63,11.80,14.91,5.66,5.62,5.61
37.06,-5.84,-11.45,-5.87,-11.49,11.49,11.65,14.53,5.65,5.62,5.61
37.43,-5.71,-11.33,-5.73,-11.35,11.35,11.49,14.16,5.64,5.62,5.62
37.81,-5.58,-11.20,-5.60,-11.21,11.21,11.32,13.80,5.63,5.62,5.62
38.19,-5.46,-11.07,-5.46,-11.07,11.07,11.15,13.45,5.61,5.62,5.61
38.57,-5.34,-10.96,-5.31,-10.93,10.93,10.98,13.11,5.59,5.62,5.62
38.95,-5.21,-10.84,-5.17,-10.79,10.79,10.80,12.78,5.58,5.62,5.63
39.34,-5.09,-10.71,-5.02,-10.64,10.64,10.62,12.46,5.55,5.62,5.62
39.74,-4.96,-10.58,-4.88,-10.50,10.50,10.44,12.15,5.54,5.62,5.62
40.14,-4.81,-10.43,-4.75,-10.37,10.37,10.25,11.85,5.55,5.62,5.62
40.54,-4.62,-10.24,-4.61,-10.22,10.22,10.07,11.55,5.60,5.62,5.62
40.94,-4.42,-10.03,-4.47,-10.08,10.08,9.88,11.27,5.66,5.61,5.61
41.35,-4.26,-9.87,-4.33,-9.94,9.94,9.69,10.99,5.68,5.61,5.61
41.76,-4.11,-9.71,-4.19,-9.79,9.79,9.51,10.72,5.68,5.60,5.60
42.18,-3.96,-9.56,-4.05,-9.64,9.64,9.32,10.46,5.68,5.59,5.60
42.60,-3.84,-9.43,-3.92,-9.50,9.50,9.13,10.20,5.66,5.58,5.59
43.03,-3.72,-9.30,-3.78,-9.35,9.35,8.95,9.95,5.63,5.57,5.58
43.46,-3.69,-9.26,-3.65,-9.21,9.21,8.76,9.71,5.52,5.56,5.57
43.90,-3.67,-9.22,-3.52,-9.07,9.07,8.58,9.47,5.40,5.55,5.55
44.33,-3.50,-9.03,-3.40,-8.93,8.93,8.40,9.24,5.43,5.54,5.53
44.78,-3.29,-8.80,-3.28,-8.80,8.80,8.22,9.01,5.51,5.52,5.51
45.23,-3.13,-8.63,-3.16,-8.66,8.66,8.04,8.79,5.53,5.51,5.50
45.68,-3.01,-8.50,-3.02,-8.52,8.52,7.87,8.58,5.51,5.50,5.49
46.13,-2.89,-8.36,-2.90,-8.38,8.38,7.69,8.36,5.49,5.48,5.47
46.60,-2.77,-8.24,-2.79,-8.25,8.25,7.52,8.16,5.48,5.47,5.47
47.06,-2.65,-8.10,-2.65,-8.10,8.10,7.35,7.96,5.45,5.45,5.45
47.53,-2.50,-7.94,-2.50,-7.94,7.94,7.19,7.76,5.43,5.44,5.44
48.01,-2.36,-7.80,-2.35,-7.78,7.78,7.03,7.57,5.41,5.42,5.44
48.49,-2.24,-7.66,-2.21,-7.62,7.62,6.87,7.38,5.38,5.41,5.42
48.97,-2.13,-7.53,-2.09,-7.49,7.49,6.71,7.19,5.36,5.40,5.40
49.46,-1.96,-7.34,-1.99,-7.37,7.37,6.56,7.01,5.41,5.38,5.38
49.96,-1.79,-7.15,-1.89,-7.26,7.26,6.41,6.83,5.47,5.37,5.36
50.46,-1.79,-7.14,-1.79,-7.15,7.15,6.26,6.66,5.35,5.36,5.35
50.96,-1.80,-7.14,-1.69,-7.03,7.03,6.11,6.49,5.23,5.34,5.34
51.47,-1.51,-6.83,-1.59,-6.92,6.92,5.97,6.32,5.41,5.33,5.32
51.99,-1.20,-6.51,-1.50,-6.82,6.82,5.83,6.16,5.63,5.32,5.31
52.51,-1.33,-6.63,-1.43,-6.73,6.73,5.70,5.99,5.40,5.30,5.30
53.03,-1.48,-6.78,-1.35,-6.64,6.64,5.56,5.84,5.16,5.29,5.30
53.56,-1.40,-6.68,-1.27,-6.55,6.55,5.43,5.68,5.14,5.28,5.28
54.10,-1.30,-6.57,-1.18,-6.45,6.45,5.30,5.53,5.14,5.27,5.27
54.64,-1.14,-6.39,-1.08,-6.34,6.34,5.18,5.38,5.20,5.26,5.25
55.18,-0.98,-6.23,-0.99,-6.23,6.23,5.05,5.24,5.25,5.25,5.25
55.74,-0.82,-6.05,-0.88,-6.12,6.12,4.93,5.10,5.29,5.24,5.23
56.29,-0.75,-5.97,-0.77,-5.99,5.99,4.82,4.96,5.24,5.22,5.22
56.86,-0.77,-5.98,-0.66,-5.87,5.87,4.70,4.83,5.10,5.21,5.21
57.42,-0.63,-5.81,-0.56,-5.75,5.75,4.59,4.70,5.12,5.19,5.18
58.00,-0.43,-5.60,-0.43,-5.61,5.61,4.48,4.57,5.17,5.17,5.17
58.58,-0.23,-5.39,-0.29,-5.44,5.44,4.37,4.44,5.20,5.15,5.16
59.16,-0.05,-5.19,-0.15,-5.27,5.27,4.26,4.32,5.22,5.12,5.14
59.76,0.07,-5.05,-0.01,-5.11,5.11,4.16,4.20,5.17,5.10,5.12
60.35,0.15,-4.93,0.13,-4.94,4.94,4.05,4.09,5.09,5.07,5.08
60.96,0.20,-4.84,0.25,-4.78,4.78,3.95,3.98,4.98,5.03,5.04
61.57,0.30,-4.70,0.37,-4.63,4.63,3.85,3.87,4.93,5.00,5.00
62.18,0.42,-4.54,0.48,-4.48,4.48,3.76,3.76,4.90,4.96,4.96
62.80,0.60,-4.31,0.59,-4.33,4.33,3.66,3.66,4.93,4.92,4.91
63.43,0.74,-4.13,0.71,-4.17,4.17,3.57,3.56,4.91,4.88,4.87
64.07,0.86,-3.96,0.81,-4.03,4.03,3.48,3.46,4.88,4.83,4.82
64.71,0.96,-3.82,0.89,-3.89,3.89,3.39,3.37,4.85,4.79,4.78
65.35,1.07,-3.67,0.98,-3.76,3.76,3.30,3.28,4.83,4.74,4.74
66.01,1.21,-3.48,1.08,-3.61,3.61,3.21,3.19,4.82,4.69,4.69
66.67,1.08,-3.56,1.18,-3.47,3.47,3.12,3.11,4.55,4.64,4.64
67.33,1.09,-3.50,1.27,-3.33,3.33,3.04,3.02,4.42,4.60,4.59
68.01,1.24,-3.31,1.35,-3.19,3.19,2.96,2.94,4.43,4.55,4.55
68.69,1.40,-3.10,1.42,-3.08,3.08,2.87,2.86,4.47,4.50,4.50
69.37,1.55,-2.90,1.48,-2.96,2.96,2.79,2.79,4.51,4.45,4.45
70.07,1.68,-2.72,1.56,-2.84,2.84,2.71,2.71,4.52,4.39,4.40
70.77,1.57,-2.78,1.62,-2.72,2.72,2.63,2.64,4.28,4.34,4.35
71.48,1.71,-2.59,1.69,-2.59,2.59,2.55,2.57,4.30,4.29,4.30
72.19,1.89,-2.34,1.76,-2.47,2.47,2.48,2.50,4.35,4.23,4.23
72.91,1.86,-2.31,1.83,-2.35,2.35,2.40,2.43,4.20,4.17,4.17
73.64,1.83,-2.29,1.89,-2.23,2.23,2.32,2.37,4.06,4.12,4.12
74.38,1.87,-2.19,1.95,-2.11,2.11,2.25,2.30,3.98,4.06,4.06
75.12,1.98,-2.02,2.00,-2.01,2.01,2.17,2.24,3.98,4.01,4.00
75.87,1.95,-1.99,2.05,-1.90,1.90,2.10,2.17,3.85,3.95,3.94
76.63,2.21,-1.68,2.10,-1.80,1.80,2.03,2.11,4.01,3.90,3.89
77.40,2.27,-1.57,2.15,-1.70,1.70,1.95,2.05,3.96,3.84,3.84
78.17,2.15,-1.63,2.19,-1.60,1.60,1.88,1.99,3.74,3.79,3.78
78.95,2.24,-1.50,2.25,-1.49,1.49,1.81,1.93,3.73,3.74,3.74
79.74,2.25,-1.44,2.29,-1.40,1.40,1.73,1.87,3.65,3.69,3.69
80.54,2.25,-1.39,2.33,-1.31,1.31,1.66,1.81,3.55,3.64,3.64
81.35,2.32,-1.27,2.39,-1.21,1.21,1.59,1.75,3.52,3.59,3.59
82.16,2.47,-1.07,2.43,-1.11,1.11,1.51,1.69,3.58,3.54,3.54
82.98,2.55,-0.95,2.48,-1.02,1.02,1.44,1.63,3.57,3.50,3.50
83.81,2.62,-0.83,2.51,-0.94,0.94,1.37,1.57,3.56,3.45,3.45
84.65,2.53,-0.87,2.54,-0.86,0.86,1.29,1.51,3.39,3.40,3.40
85.50,2.49,-0.87,2.55,-0.80,0.80,1.22,1.46,3.28,3.35,3.36
86.35,2.57,-0.74,2.58,-0.72,0.72,1.15,1.40,3.29,3.30,3.31
87.22,2.65,-0.61,2.61,-0.64,0.64,1.07,1.34,3.29,3.25,3.26
88.09,2.65,-0.56,2.63,-0.58,0.58,1.00,1.28,3.22,3.20,3.21
88.97,2.65,-0.50,2.64,-0.51,0.51,0.93,1.22,3.16,3.15,3.15
89.86,2.65,-0.45,2.65,-0.45,0.45,0.85,1.16,3.10,3.10,3.10
90.76,2.67,-0.38,2.65,-0.40,0.40,0.78,1.10,3.07,3.05,3.05
91.66,2.67,-0.33,2.65,-0.36,0.36,0.71,1.05,3.02,3.00,3.00
92.58,2.58,-0.36,2.65,-0.30,0.30,0.64,0.99,2.87,2.95,2.94
93.51,2.59,-0.30,2.66,-0.24,0.24,0.56,0.93,2.82,2.90,2.89
94.44,2.66,-0.19,2.67,-0.18,0.18,0.49,0.87,2.84,2.85,2.85
95.39,2.66,-0.14,2.66,-0.14,0.14,0.42,0.81,2.79,2.80,2.80
96.34,2.65,-0.10,2.65,-0.10,0.10,0.35,0.75,2.75,2.75,2.75
97.30,2.65,-0.05,2.62,-0.08,0.08,0.29,0.69,2.73,2.70,2.70
98.28,2.64,-0.01,2.61,-0.05,0.05,0.22,0.63,2.68,2.65,2.65
99.26,2.62,0.01,2.59,-0.02,0.02,0.16,0.58,2.64,2.61,2.61
100.25,2.61,0.05,2.56,0.00,-0.00,0.10,0.52,2.60,2.56,2.56
101.25,2.60,0.09,2.53,0.02,-0.02,0.04,0.46,2.57,2.51,2.51
102.27,2.56,0.10,2.50,0.04,-0.04,-0.01,0.40,2.52,2.46,2.46
103.29,2.42,0.01,2.47,0.06,-0.06,-0.06,0.35,2.36,2.41,2.41
104.32,2.33,-0.04,2.42,0.06,-0.06,-0.11,0.29,2.27,2.36,2.37
105.37,2.32,-0.00,2.36,0.05,-0.05,-0.15,0.23,2.27,2.31,2.32
106.42,2.29,0.02,2.31,0.05,-0.05,-0.19,0.18,2.24,2.26,2.27
107.48,2.28,0.07,2.26,0.05,-0.05,-0.22,0.13,2.22,2.21,2.21
108.56,2.28,0.12,2.21,0.05,-0.05,-0.25,0.07,2.22,2.16,2.16
109.64,2.18,0.07,2.16,0.05,-0.05,-0.27,0.02,2.12,2.11,2.11
110.74,2.11,0.06,2.10,0.05,-0.05,-0.29,-0.02,2.06,2.05,2.05
111.85,2.07,0.06,2.05,0.05,-0.05,-0.30,-0.07,2.02,2.00,2.01
112.97,1.98,0.03,2.01,0.06,-0.06,-0.31,-0.12,1.92,1.95,1.95
114.10,1.93,0.03,1.97,0.07,-0.07,-0.31,-0.16,1.86,1.90,1.90
115.24,1.87,0.02,1.93,0.07,-0.07,-0.31,-0.20,1.80,1.86,1.85
116.39,1.88,0.08,1.88,0.07,-0.07,-0.31,-0.24,1.81,1.81,1.80
117.55,1.89,0.13,1.84,0.07,-0.07,-0.30,-0.27,1.82,1.77,1.76
118.73,1.86,0.14,1.80,0.07,-0.07,-0.29,-0.31,1.79,1.73,1.72
119.92,1.71,0.02,1.76,0.06,-0.06,-0.27,-0.34,1.64,1.69,1.69
121.12,1.67,0.02,1.72,0.06,-0.06,-0.25,-0.36,1.60,1.66,1.65
122.33,1.69,0.07,1.69,0.07,-0.07,-0.23,-0.39,1.62,1.62,1.62
123.55,1.72,0.13,1.66,0.07,-0.07,-0.21,-0.41,1.64,1.59,1.59
124.79,1.66,0.10,1.63,0.07,-0.07,-0.19,-0.43,1.59,1.56,1.56
126.03,1.51,-0.02,1.59,0.06,-0.06,-0.16,-0.44,1.45,1.53,1.53
127.29,1.52,0.01,1.55,0.06,-0.06,-0.14,-0.45,1.46,1.50,1.51
128.57,1.54,0.07,1.52,0.05,-0.05,-0.11,-0.46,1.49,1.47,1.47
129.85,1.56,0.12,1.47,0.03,-0.03,-0.09,-0.46,1.52,1.44,1.44
131.15,1.46,0.05,1.43,0.02,-0.02,-0.06,-0.47,1.44,1.41,1.41
132.46,1.38,-0.00,1.39,0.01,-0.01,-0.03,-0.46,1.37,1.38,1.38
133.79,1.37,0.02,1.35,0.00,-0.00,-0.01,-0.46,1.37,1.35,1.35
135.12,1.31,-0.01,1.31,-0.02,0.02,0.02,-0.45,1.33,1.33,1.32
136.48,1.24,-0.06,1.25,-0.05,0.05,0.04,-0.44,1.28,1.30,1.30
137.84,1.15,-0.11,1.20,-0.07,0.07,0.07,-0.43,1.22,1.27,1.26
139.22,1.16,-0.07,1.16,-0.08,0.08,0.09,-0.42,1.24,1.24,1.23
140.61,1.18,-0.02,1.12,-0.09,0.09,0.12,-0.40,1.27,1.21,1.20
142.02,1.06,-0.12,1.06,-0.12,0.12,0.14,-0.39,1.17,1.18,1.18
143.44,0.97,-0.18,1.01,-0.14,0.14,0.16,-0.37,1.10,1.15,1.15
144.87,0.96,-0.15,0.96,-0.15,0.15,0.18,-0.35,1.10,1.11,1.11
146.32,0.96,-0.11,0.92,-0.14,0.14,0.20,-0.32,1.10,1.06,1.07
147.78,0.87,-0.17,0.87,-0.14,0.14,0.22,-0.30,1.01,1.01,1.04
149.26,0.79,-0.20,0.83,-0.13,0.13,0.24,-0.28,0.92,0.96,0.99
150.75,0.76,-0.17,0.78,-0.12,0.12,0.26,-0.25,0.88,0.90,0.93
152.26,0.77,-0.09,0.74,-0.10,0.10,0.28,-0.22,0.87,0.84,0.86
153.78,0.77,-0.02,0.69,-0.08,0.08,0.30,-0.20,0.85,0.78,0.79
155.32,0.63,-0.09,0.64,-0.06,0.06,0.32,-0.17,0.69,0.71,0.72
156.88,0.54,-0.10,0.60,-0.04,0.04,0.33,-0.14,0.58,0.64,0.64
158.44,0.55,-0.01,0.55,-0.02,0.02,0.35,-0.11,0.56,0.57,0.56
160.03,0.54,0.06,0.50,0.00,-0.00,0.36,-0.09,0.54,0.50,0.48
161.63,0.47,0.06,0.45,0.02,-0.02,0.38,-0.06,0.45,0.43,0.41
163.24,0.40,0.05,0.40,0.03,-0.03,0.39,-0.03,0.36,0.37,0.35
164.88,0.36,0.06,0.36,0.05,-0.05,0.41,0.00,0.31,0.31,0.30
166.53,0.35,0.10,0.32,0.05,-0.05,0.42,0.03,0.29,0.27,0.25
168.19,0.28,0.07,0.28,0.05,-0.05,0.43,0.06,0.23,0.23,0.21
169.87,0.24,0.07,0.24,0.05,-0.05,0.45,0.09,0.19,0.19,0.17
171.57,0.15,-0.00,0.21,0.04,-0.04,0.46,0.12,0.11,0.17,0.15
173.29,0.12,-0.02,0.18,0.03,-0.03,0.47,0.14,0.09,0.15,0.14
175.02,0.12,-0.01,0.14,0.00,-0.00,0.48,0.17,0.11,0.14,0.13
176.77,0.12,-0.00,0.10,-0.02,0.02,0.49,0.20,0.14,0.13,0.12
178.54,0.13,0.02,0.08,-0.04,0.04,0.51,0.23,0.17,0.12,0.11
180.32,0.09,-0.03,0.06,-0.06,0.06,0.52,0.26,0.14,0.11,0.12
182.13,0.04,-0.09,0.03,-0.08,0.08,0.53,0.29,0.11,0.11,0.13
183.95,0.03,-0.09,0.01,-0.09,0.09,0.54,0.31,0.12,0.10,0.12
185.79,-0.01,-0.13,-0.01,-0.11,0.11,0.55,0.34,0.09,0.09,0.12
187.65,-0.05,-0.15,-0.03,-0.12,0.12,0.56,0.37,0.06,0.09,0.10
189.52,-0.11,-0.20,-0.05,-0.13,0.13,0.57,0.40,0.02,0.08,0.09
191.42,-0.12,-0.19,-0.08,-0.14,0.14,0.59,0.42,0.02,0.06,0.07
193.33,-0.10,-0.15,-0.11,-0.16,0.16,0.60,0.45,0.06,0.05,0.05
195.27,-0.08,-0.11,-0.14,-0.17,0.17,0.61,0.48,0.09,0.03,0.03
197.22,-0.10,-0.11,-0.17,-0.19,0.19,0.62,0.50,0.08,0.01,0.01
199.19,-0.20,-0.19,-0.20,-0.20,0.20,0.63,0.53,-0.00,-0.00,-0.01
201.18,-0.25,-0.22,-0.24,-0.21,0.21,0.64,0.56,-0.04,-0.03,-0.03
203.19,-0.24,-0.19,-0.27,-0.22,0.22,0.65,0.58,-0.02,-0.05,-0.05
205.23,-0.27,-0.20,-0.30,-0.23,0.23,0.66,0.61,-0.04,-0.07,-0.07
207.28,-0.38,-0.30,-0.33,-0.24,0.24,0.68,0.64,-0.14,-0.09,-0.08
209.35,-0.44,-0.34,-0.37,-0.26,0.26,0.69,0.66,-0.18,-0.11,-0.10
211.44,-0.45,-0.32,-0.41,-0.29,0.29,0.70,0.69,-0.16,-0.12,-0.13
213.56,-0.45,-0.31,-0.46,-0.32,0.32,0.71,0.71,-0.13,-0.14,-0.14
215.69,-0.46,-0.31,-0.51,-0.36,0.36,0.72,0.74,-0.10,-0.15,-0.15
217.85,-0.54,-0.38,-0.57,-0.40,0.40,0.73,0.76,-0.14,-0.16,-0.16
220.03,-0.60,-0.43,-0.62,-0.45,0.45,0.75,0.78,-0.16,-0.17,-0.17
222.23,-0.65,-0.45,-0.67,-0.49,0.49,0.76,0.81,-0.16,-0.18,-0.20
224.45,-0.67,-0.48,-0.73,-0.55,0.55,0.77,0.83,-0.12,-0.18,-0.19
226.70,-0.73,-0.54,-0.79,-0.61,0.61,0.79,0.85,-0.12,-0.18,-0.19
228.96,-0.82,-0.64,-0.85,-0.67,0.67,0.80,0.87,-0.15,-0.18,-0.18
231.25,-0.94,-0.77,-0.89,-0.72,0.72,0.81,0.89,-0.22,-0.17,-0.17
233.57,-0.97,-0.81,-0.94,-0.78,0.78,0.83,0.92,-0.19,-0.16,-0.16
235.90,-0.98,-0.83,-0.97,-0.83,0.83,0.84,0.93,-0.15,-0.14,-0.15
238.26,-1.03,-0.89,-0.99,-0.87,0.87,0.85,0.95,-0.16,-0.13,-0.14
240.64,-1.09,-0.98,-1.01,-0.90,0.90,0.87,0.97,-0.19,-0.11,-0.11
243.05,-1.09,-1.01,-1.01,-0.92,0.92,0.88,0.99,-0.17,-0.09,-0.08
245.48,-1.08,-1.02,-1.01,-0.94,0.94,0.90,1.01,-0.14,-0.06,-0.06
247.93,-1.06,-1.03,-1.00,-0.96,0.96,0.91,1.02,-0.10,-0.04,-0.03
250.41,-0.96,-0.95,-0.98,-0.97,0.97,0.93,1.04,0.01,-0.02,-0.01
252.92,-0.91,-0.93,-0.97,-0.97,0.97,0.94,1.05,0.06,0.01,0.02
255.45,-0.90,-0.94,-0.94,-0.97,0.97,0.96,1.06,0.07,0.03,0.04
258.00,-0.83,-0.89,-0.92,-0.97,0.97,0.97,1.08,0.14,0.06,0.06
260.58,-0.78,-0.86,-0.90,-0.98,0.98,0.99,1.09,0.20,0.08,0.08
263.19,-0.83,-0.94,-0.88,-0.99,0.99,1.01,1.10,0.16,0.11,0.11
265.82,-0.88,-1.01,-0.87,-1.00,1.00,1.02,1.11,0.12,0.13,0.13
268.48,-0.89,-1.04,-0.86,-1.02,1.02,1.04,1.12,0.12,0.16,0.15
271.16,-0.89,-1.07,-0.86,-1.04,1.04,1.06,1.13,0.15,0.18,0.18
273.87,-0.89,-1.09,-0.87,-1.08,1.08,1.08,1.14,0.18,0.21,0.20
276.61,-0.90,-1.13,-0.88,-1.12,1.12,1.09,1.15,0.21,0.23,0.23
279.38,-0.89,-1.15,-0.90,-1.16,1.16,1.11,1.16,0.27,0.26,0.26
282.17,-0.89,-1.17,-0.92,-1.21,1.21,1.13,1.17,0.32,0.29,0.28
284.99,-0.91,-1.23,-0.94,-1.25,1.25,1.15,1.17,0.34,0.31,0.32
287.84,-0.98,-1.32,-0.95,-1.30,1.30,1.17,1.18,0.31,0.34,0.34
290.72,-0.97,-1.34,-0.96,-1.33,1.33,1.19,1.19,0.36,0.37,0.37
293.63,-0.96,-1.36,-0.96,-1.36,1.36,1.21,1.20,0.40,0.40,0.40
296.57,-0.99,-1.42,-0.97,-1.40,1.40,1.23,1.21,0.40,0.43,0.43
299.53,-1.02,-1.48,-0.98,-1.44,1.44,1.25,1.22,0.41,0.46,0.46
302.53,-1.02,-1.50,-0.99,-1.48,1.48,1.27,1.23,0.46,0.49,0.48
305.55,-1.01,-1.53,-1.01,-1.52,1.52,1.29,1.24,0.51,0.51,0.52
308.61,-1.00,-1.54,-1.02,-1.56,1.56,1.32,1.26,0.56,0.54,0.54
311.69,-0.99,-1.56,-1.04,-1.60,1.60,1.34,1.27,0.61,0.56,0.57
314.81,-0.99,-1.58,-1.05,-1.64,1.64,1.36,1.28,0.64,0.58,0.59
317.96,-0.99,-1.60,-1.07,-1.67,1.67,1.38,1.30,0.68,0.60,0.61
321.14,-1.05,-1.67,-1.09,-1.71,1.71,1.41,1.31,0.66,0.62,0.62
324.35,-1.16,-1.80,-1.11,-1.75,1.75,1.43,1.33,0.59,0.64,0.64
327.59,-1.19,-1.84,-1.13,-1.79,1.79,1.45,1.34,0.59,0.65,0.65
330.87,-1.19,-1.85,-1.15,-1.82,1.82,1.48,1.36,0.63,0.67,0.66
334.18,-1.19,-1.87,-1.18,-1.86,1.86,1.50,1.38,0.66,0.68,0.68
337.52,-1.20,-1.89,-1.20,-1.89,1.89,1.53,1.40,0.69,0.69,0.69
340.90,-1.20,-1.90,-1.22,-1.92,1.92,1.55,1.42,0.72,0.70,0.70
344.30,-1.20,-1.91,-1.24,-1.94,1.94,1.57,1.44,0.74,0.70,0.71
347.75,-1.26,-1.97,-1.25,-1.96,1.96,1.60,1.47,0.70,0.71,0.71
351.23,-1.30,-2.02,-1.26,-1.98,1.98,1.62,1.49,0.67,0.71,0.72
354.74,-1.29,-2.00,-1.26,-1.98,1.98,1.65,1.52,0.69,0.72,0.71
358.28,-1.29,-2.01,-1.27,-1.99,1.99,1.68,1.54,0.69,0.72,0.72
361.87,-1.28,-2.00,-1.27,-1.99,1.99,1.70,1.57,0.71,0.72,0.72
365.49,-1.28,-2.01,-1.28,-2.00,2.00,1.73,1.60,0.72,0.72,0.73
369.14,-1.27,-1.99,-1.29,-2.01,2.01,1.75,1.63,0.74,0.72,0.72
372.83,-1.26,-1.98,-1.30,-2.02,2.02,1.78,1.66,0.76,0.72,0.72
376.56,-1.26,-1.97,-1.31,-2.03,2.03,1.81,1.69,0.77,0.72,0.71
380.33,-1.28,-2.00,-1.32,-2.04,2.04,1.83,1.73,0.76,0.72,0.72
384.13,-1.33,-2.05,-1.34,-2.05,2.05,1.86,1.76,0.72,0.71,0.72
387.97,-1.34,-2.05,-1.35,-2.06,2.06,1.88,1.79,0.72,0.71,0.71
391.85,-1.39,-2.09,-1.37,-2.08,2.08,1.91,1.83,0.68,0.70,0.70
395.77,-1.42,-2.13,-1.40,-2.10,2.10,1.94,1.87,0.67,0.70,0.71
399.73,-1.43,-2.13,-1.42,-2.12,2.12,1.96,1.90,0.68,0.69,0.70
403.72,-1.44,-2.14,-1.45,-2.14,2.14,1.99,1.94,0.69,0.69,0.70
407.76,-1.44,-2.12,-1.47,-2.15,2.15,2.01,1.98,0.71,0.68,0.68
411.84,-1.44,-2.12,-1.49,-2.17,2.17,2.04,2.02,0.72,0.68,0.68
415.96,-1.51,-2.19,-1.50,-2.18,2.18,2.06,2.06,0.67,0.68,0.68
420.12,-1.55,-2.23,-1.51,-2.19,2.19,2.09,2.10,0.64,0.68,0.68
424.32,-1.54,-2.22,-1.51,-2.20,2.20,2.11,2.13,0.65,0.69,0.68
428.56,-1.53,-2.22,-1.50,-2.20,2.20,2.14,2.17,0.67,0.70,0.69
432.85,-1.52,-2.22,-1.49,-2.21,2.21,2.16,2.21,0.68,0.71,0.70
437.18,-1.49,-2.20,-1.47,-2.21,2.21,2.18,2.25,0.72,0.73,0.71
441.55,-1.45,-2.20,-1.45,-2.21,2.21,2.21,2.28,0.75,0.76,0.75
445.96,-1.41,-2.19,-1.42,-2.21,2.21,2.23,2.32,0.79,0.79,0.78
450.42,-1.35,-2.16,-1.38,-2.21,2.21,2.25,2.35,0.86,0.83,0.81
454.93,-1.34,-2.20,-1.35,-2.21,2.21,2.27,2.38,0.87,0.87,0.86
459.48,-1.35,-2.25,-1.31,-2.22,2.22,2.29,2.41,0.87,0.91,0.90
464.07,-1.28,-2.23,-1.26,-2.22,2.22,2.31,2.44,0.94,0.96,0.95
468.71,-1.22,-2.23,-1.22,-2.23,2.23,2.33,2.46,1.00,1.01,1.01
473.40,-1.16,-2.21,-1.18,-2.24,2.24,2.35,2.48,1.08,1.05,1.05
478.13,-1.10,-2.21,-1.15,-2.25,2.25,2.36,2.50,1.15,1.10,1.11
482.91,-1.06,-2.21,-1.11,-2.26,2.26,2.38,2.52,1.20,1.15,1.15
487.74,-1.04,-2.23,-1.08,-2.27,2.27,2.40,2.54,1.23,1.19,1.19
492.62,-1.09,-2.33,-1.06,-2.28,2.28,2.41,2.55,1.19,1.22,1.24
