frequency,raw,error,smoothed,error_smoothed,equalization,parametric_eq,fixed_band_eq,equalized_raw,equalized_smoothed,target
20.00,-3.86,-3.46,-3.86,-3.46,3.46,3.32,1.34,-0.40,-0.40,-0.40
20.20,-3.77,-3.46,-3.78,-3.46,3.46,3.31,1.38,-0.31,-0.32,-0.31
20.40,-3.69,-3.46,-3.69,-3.45,3.46,3.31,1.42,-0.23,-0.23,-0.23
20.61,-3.60,-3.44,-3.60,-3.45,3.45,3.30,1.46,-0.15,-0.15,-0.17
20.81,-3.52,-3.45,-3.52,-3.44,3.44,3.28,1.50,-0.08,-0.08,-0.07
21.02,-3.43,-3.44,-3.44,-3.44,3.43,3.27,1.55,-0.00,-0.01,0.01
21.23,-3.35,-3.42,-3.35,-3.42,3.41,3.26,1.59,0.06,0.06,0.07
21.44,-3.27,-3.40,-3.27,-3.39,3.39,3.24,1.64,0.12,0.12,0.13
21.66,-3.18,-3.36,-3.19,-3.36,3.36,3.22,1.68,0.18,0.18,0.18
21.87,-3.10,-3.33,-3.10,-3.33,3.33,3.21,1.73,0.23,0.23,0.23
22.09,-3.02,-3.30,-3.02,-3.30,3.30,3.19,1.78,0.28,0.28,0.28
22.31,-2.94,-3.27,-2.94,-3.26,3.26,3.17,1.83,0.32,0.32,0.33
22.54,-2.85,-3.22,-2.85,-3.22,3.22,3.14,1.88,0.37,0.36,0.37
22.76,-2.77,-3.18,-2.77,-3.18,3.18,3.12,1.94,0.41,0.41,0.41
22.99,-2.69,-3.13,-2.69,-3.13,3.14,3.10,1.99,0.45,0.45,0.44
23.22,-2.62,-3.10,-2.62,-3.10,3.10,3.07,2.05,0.48,0.48,0.48
23.45,-2.54,-3.06,-2.54,-3.06,3.06,3.05,2.11,0.52,0.52,0.52
23.69,-2.46,-3.02,-2.46,-3.02,3.02,3.02,2.16,0.56,0.56,0.56
23.92,-2.38,-2.98,-2.39,-2.99,2.98,2.99,2.22,0.60,0.60,0.60
24.16,-2.31,-2.96,-2.31,-2.95,2.94,2.96,2.28,0.63,0.63,0.65
24.40,-2.24,-2.92,-2.24,-2.91,2.90,2.94,2.34,0.66,0.67,0.68
24.65,-2.16,-2.86,-2.17,-2.87,2.87,2.91,2.41,0.70,0.70,0.70
24.89,-2.09,-2.82,-2.09,-2.82,2.83,2.88,2.47,0.74,0.73,0.73
25.14,-2.02,-2.79,-2.02,-2.78,2.79,2.85,2.53,0.77,0.77,0.77
25.39,-1.95,-2.75,-1.95,-2.75,2.75,2.82,2.60,0.80,0.80,0.80
25.65,-1.88,-2.72,-1.88,-2.71,2.71,2.79,2.66,0.83,0.83,0.84
25.91,-1.82,-2.68,-1.82,-2.68,2.68,2.76,2.72,0.86,0.86,0.86
26.16,-1.75,-2.64,-1.76,-2.65,2.65,2.73,2.79,0.90,0.89,0.89
26.43,-1.69,-2.62,-1.69,-2.61,2.62,2.70,2.85,0.92,0.92,0.93
26.69,-1.63,-2.59,-1.63,-2.59,2.59,2.67,2.91,0.95,0.96,0.96
26.96,-1.57,-2.56,-1.57,-2.56,2.56,2.64,2.97,0.98,0.98,0.99
27.23,-1.51,-2.53,-1.51,-2.53,2.53,2.61,3.03,1.02,1.01,1.02
27.50,-1.46,-2.51,-1.46,-2.50,2.50,2.58,3.09,1.04,1.04,1.05
27.77,-1.40,-2.47,-1.40,-2.48,2.48,2.56,3.14,1.08,1.07,1.07
28.05,-1.35,-2.46,-1.35,-2.45,2.45,2.53,3.20,1.10,1.10,1.11
28.33,-1.30,-2.43,-1.30,-2.43,2.43,2.50,3.25,1.13,1.13,1.13
28.62,-1.25,-2.41,-1.25,-2.41,2.41,2.47,3.30,1.16,1.16,1.16
28.90,-1.20,-2.40,-1.20,-2.39,2.39,2.45,3.34,1.19,1.19,1.20
29.19,-1.15,-2.37,-1.15,-2.38,2.38,2.42,3.38,1.23,1.22,1.22
29.48,-1.11,-2.38,-1.11,-2.36,2.37,2.40,3.42,1.26,1.26,1.27
29.78,-1.07,-2.35,-1.07,-2.35,2.36,2.37,3.45,1.29,1.29,1.28
30.08,-1.04,-2.35,-1.04,-2.35,2.36,2.35,3.48,1.32,1.31,1.31
30.38,-1.02,-2.36,-1.02,-2.35,2.36,2.33,3.50,1.34,1.34,1.34
30.68,-1.00,-2.37,-1.00,-2.36,2.36,2.30,3.52,1.36,1.36,1.37
30.99,-0.98,-2.37,-0.99,-2.37,2.37,2.28,3.53,1.38,1.38,1.39
31.30,-0.97,-2.38,-0.97,-2.38,2.37,2.27,3.54,1.40,1.41,1.41
31.61,-0.95,-2.39,-0.95,-2.38,2.38,2.25,3.54,1.43,1.43,1.44
31.93,-0.93,-2.39,-0.94,-2.39,2.39,2.23,3.54,1.46,1.46,1.46
32.24,-0.92,-2.40,-0.92,-2.40,2.41,2.22,3.54,1.48,1.48,1.48
32.57,-0.91,-2.42,-0.91,-2.41,2.42,2.20,3.52,1.50,1.50,1.51
32.89,-0.90,-2.43,-0.91,-2.43,2.43,2.19,3.51,1.53,1.52,1.53
33.22,-0.90,-2.45,-0.90,-2.44,2.44,2.18,3.49,1.54,1.54,1.55
33.55,-0.89,-2.46,-0.89,-2.45,2.45,2.17,3.47,1.56,1.56,1.57
33.89,-0.88,-2.46,-0.89,-2.47,2.47,2.16,3.44,1.59,1.58,1.58
34.23,-0.88,-2.48,-0.88,-2.48,2.48,2.16,3.41,1.60,1.60,1.60
34.57,-0.89,-2.50,-0.89,-2.50,2.50,2.15,3.38,1.60,1.61,1.61
34.92,-0.89,-2.51,-0.89,-2.51,2.51,2.15,3.34,1.62,1.62,1.62
35.27,-0.90,-2.54,-0.90,-2.52,2.52,2.15,3.30,1.62,1.62,1.64
35.62,-0.90,-2.53,-0.90,-2.54,2.54,2.16,3.27,1.63,1.63,1.63
35.97,-0.91,-2.55,-0.91,-2.55,2.55,2.16,3.22,1.64,1.64,1.64
36.33,-0.92,-2.58,-0.92,-2.56,2.57,2.17,3.18,1.64,1.65,1.66
36.70,-0.93,-2.58,-0.93,-2.58,2.58,2.18,3.14,1.65,1.65,1.65
37.06,-0.94,-2.59,-0.95,-2.60,2.60,2.19,3.10,1.66,1.65,1.65
37.43,-0.97,-2.62,-0.97,-2.61,2.62,2.21,3.05,1.65,1.65,1.65
37.81,-0.99,-2.64,-0.99,-2.64,2.64,2.23,3.01,1.65,1.65,1.65
38.19,-1.01,-2.66,-1.02,-2.66,2.66,2.26,2.97,1.65,1.64,1.65
38.57,-1.04,-2.69,-1.04,-2.69,2.68,2.28,2.92,1.64,1.64,1.65
38.95,-1.07,-2.72,-1.07,-2.71,2.71,2.31,2.88,1.64,1.64,1.65
39.34,-1.10,-2.73,-1.10,-2.74,2.74,2.35,2.84,1.63,1.63,1.63
39.74,-1.14,-2.77,-1.14,-2.76,2.76,2.39,2.80,1.62,1.63,1.63
40.14,-1.17,-2.79,-1.17,-2.79,2.80,2.43,2.77,1.62,1.62,1.62
40.54,-1.21,-2.83,-1.21,-2.83,2.83,2.48,2.73,1.62,1.62,1.62
40.94,-1.25,-2.86,-1.25,-2.86,2.87,2.53,2.69,1.61,1.61,1.61
41.35,-1.30,-2.91,-1.30,-2.91,2.90,2.59,2.66,1.60,1.60,1.61
41.76,-1.35,-2.95,-1.35,-2.95,2.95,2.65,2.63,1.59,1.59,1.60
42.18,-1.40,-2.99,-1.40,-2.99,2.99,2.72,2.60,1.59,1.59,1.59
42.60,-1.45,-3.03,-1.45,-3.03,3.03,2.79,2.57,1.58,1.58,1.58
43.03,-1.50,-3.08,-1.51,-3.08,3.08,2.86,2.55,1.58,1.57,1.58
43.46,-1.56,-3.13,-1.57,-3.13,3.12,2.95,2.52,1.56,1.56,1.57
43.90,-1.63,-3.18,-1.63,-3.18,3.17,3.03,2.50,1.54,1.54,1.55
44.33,-1.69,-3.22,-1.69,-3.22,3.22,3.12,2.48,1.53,1.53,1.53
44.78,-1.75,-3.27,-1.75,-3.27,3.27,3.21,2.47,1.52,1.52,1.52
45.23,-1.81,-3.32,-1.82,-3.32,3.33,3.31,2.45,1.52,1.51,1.51
45.68,-1.88,-3.38,-1.88,-3.38,3.38,3.40,2.44,1.50,1.50,1.50
46.13,-1.95,-3.44,-1.95,-3.44,3.44,3.49,2.43,1.49,1.49,1.49
46.60,-2.01,-3.50,-2.02,-3.50,3.49,3.59,2.42,1.48,1.48,1.49
47.06,-2.08,-3.56,-2.08,-3.55,3.55,3.68,2.41,1.47,1.47,1.48
47.53,-2.13,-3.60,-2.13,-3.61,3.60,3.76,2.40,1.47,1.47,1.47
48.01,-2.19,-3.66,-2.19,-3.66,3.66,3.83,2.40,1.46,1.46,1.47
48.49,-2.25,-3.71,-2.25,-3.71,3.71,3.90,2.40,1.46,1.46,1.46
48.97,-2.31,-3.76,-2.31,-3.75,3.76,3.95,2.40,1.44,1.44,1.45
49.46,-2.36,-3.79,-2.36,-3.79,3.80,3.99,2.40,1.44,1.44,1.43
49.96,-2.41,-3.83,-2.41,-3.84,3.84,4.01,2.40,1.43,1.43,1.42
50.46,-2.45,-3.88,-2.45,-3.87,3.88,4.01,2.40,1.42,1.42,1.43
50.96,-2.49,-3.92,-2.49,-3.91,3.91,4.00,2.41,1.42,1.42,1.43
51.47,-2.51,-3.93,-2.52,-3.94,3.93,3.96,2.41,1.42,1.41,1.42
51.99,-2.54,-3.96,-2.53,-3.95,3.95,3.91,2.42,1.40,1.41,1.42
52.51,-2.53,-3.95,-2.54,-3.95,3.95,3.85,2.42,1.42,1.42,1.42
53.03,-2.53,-3.95,-2.53,-3.95,3.95,3.76,2.43,1.42,1.41,1.42
53.56,-2.52,-3.94,-2.52,-3.93,3.93,3.67,2.44,1.41,1.41,1.42
54.10,-2.50,-3.91,-2.50,-3.91,3.90,3.56,2.44,1.40,1.40,1.41
54.64,-2.47,-3.87,-2.47,-3.87,3.87,3.44,2.45,1.39,1.39,1.40
55.18,-2.43,-3.82,-2.43,-3.82,3.82,3.32,2.46,1.38,1.38,1.39
55.74,-2.38,-3.75,-2.38,-3.76,3.76,3.19,2.46,1.37,1.37,1.37
56.29,-2.32,-3.69,-2.32,-3.68,3.68,3.06,2.46,1.36,1.36,1.37
56.86,-2.26,-3.61,-2.26,-3.60,3.60,2.92,2.47,1.34,1.35,1.35
57.42,-2.18,-3.51,-2.18,-3.52,3.52,2.79,2.47,1.33,1.33,1.33
58.00,-2.10,-3.42,-2.10,-3.41,3.42,2.66,2.47,1.31,1.32,1.32
58.58,-2.01,-3.31,-2.01,-3.31,3.31,2.53,2.46,1.30,1.30,1.30
59.16,-1.91,-3.20,-1.91,-3.20,3.20,2.40,2.46,1.28,1.28,1.29
59.76,-1.81,-3.08,-1.81,-3.08,3.07,2.28,2.45,1.26,1.26,1.27
60.35,-1.71,-2.95,-1.71,-2.95,2.94,2.16,2.44,1.23,1.24,1.24
60.96,-1.60,-2.83,-1.60,-2.81,2.81,2.05,2.43,1.21,1.21,1.23
61.57,-1.48,-2.66,-1.49,-2.67,2.67,1.94,2.41,1.19,1.18,1.18
62.18,-1.37,-2.52,-1.37,-2.52,2.52,1.83,2.40,1.15,1.15,1.15
62.80,-1.25,-2.39,-1.25,-2.38,2.38,1.73,2.37,1.13,1.13,1.14
63.43,-1.13,-2.23,-1.13,-2.23,2.23,1.63,2.35,1.10,1.10,1.10
64.07,-1.01,-2.09,-1.01,-2.09,2.09,1.54,2.32,1.08,1.09,1.08
64.71,-0.88,-1.95,-0.89,-1.95,1.96,1.45,2.29,1.07,1.07,1.07
65.35,-0.76,-1.81,-0.77,-1.82,1.83,1.37,2.26,1.06,1.06,1.05
66.01,-0.66,-1.70,-0.66,-1.69,1.70,1.29,2.22,1.04,1.04,1.04
66.67,-0.55,-1.58,-0.55,-1.58,1.58,1.21,2.19,1.02,1.02,1.03
67.33,-0.45,-1.47,-0.45,-1.47,1.46,1.14,2.14,1.01,1.01,1.02
68.01,-0.34,-1.35,-0.34,-1.35,1.34,1.07,2.10,1.00,1.00,1.01
68.69,-0.24,-1.24,-0.24,-1.24,1.24,1.00,2.06,0.99,1.00,1.00
69.37,-0.13,-1.13,-0.13,-1.13,1.13,0.94,2.01,1.00,1.00,1.00
70.07,-0.03,-1.02,-0.03,-1.02,1.03,0.87,1.96,1.00,1.00,0.99
70.77,0.06,-0.93,0.06,-0.93,0.93,0.81,1.91,0.99,0.99,0.99
71.48,0.14,-0.84,0.14,-0.84,0.84,0.76,1.86,0.98,0.98,0.98
72.19,0.21,-0.75,0.21,-0.75,0.75,0.70,1.80,0.96,0.96,0.96
72.91,0.29,-0.67,0.28,-0.67,0.66,0.65,1.75,0.95,0.95,0.96
73.64,0.35,-0.59,0.35,-0.58,0.58,0.60,1.69,0.93,0.94,0.94
74.38,0.42,-0.51,0.42,-0.50,0.50,0.55,1.64,0.92,0.92,0.93
75.12,0.49,-0.42,0.48,-0.43,0.43,0.50,1.58,0.92,0.91,0.91
75.87,0.54,-0.36,0.54,-0.35,0.35,0.46,1.52,0.89,0.90,0.90
76.63,0.60,-0.29,0.60,-0.28,0.28,0.41,1.47,0.88,0.88,0.89
77.40,0.65,-0.22,0.65,-0.22,0.21,0.37,1.41,0.86,0.86,0.87
78.17,0.70,-0.15,0.70,-0.15,0.15,0.33,1.35,0.85,0.85,0.85
78.95,0.76,-0.09,0.75,-0.09,0.09,0.29,1.30,0.85,0.85,0.85
79.74,0.80,-0.04,0.80,-0.04,0.04,0.25,1.24,0.84,0.84,0.84
80.54,0.84,0.01,0.84,0.01,-0.01,0.21,1.18,0.83,0.83,0.83
81.35,0.87,0.05,0.87,0.05,-0.05,0.17,1.13,0.82,0.82,0.82
82.16,0.90,0.09,0.90,0.09,-0.09,0.13,1.07,0.81,0.81,0.81
82.98,0.93,0.11,0.93,0.12,-0.12,0.10,1.01,0.81,0.81,0.82
83.81,0.95,0.14,0.95,0.15,-0.14,0.06,0.96,0.80,0.81,0.81
84.65,0.98,0.18,0.97,0.17,-0.17,0.03,0.90,0.81,0.81,0.80
85.50,0.99,0.18,0.99,0.19,-0.19,-0.01,0.85,0.80,0.80,0.81
86.35,1.01,0.20,1.01,0.20,-0.21,-0.04,0.80,0.80,0.80,0.81
87.22,1.02,0.22,1.02,0.22,-0.22,-0.07,0.74,0.80,0.80,0.80
88.09,1.03,0.23,1.03,0.24,-0.24,-0.10,0.69,0.79,0.79,0.80
88.97,1.04,0.25,1.04,0.25,-0.25,-0.13,0.64,0.79,0.79,0.79
89.86,1.05,0.27,1.04,0.27,-0.26,-0.17,0.59,0.79,0.78,0.78
90.76,1.04,0.28,1.04,0.28,-0.28,-0.20,0.54,0.76,0.76,0.76
91.66,1.03,0.29,1.03,0.29,-0.29,-0.23,0.49,0.73,0.74,0.74
92.58,1.02,0.31,1.02,0.31,-0.31,-0.26,0.44,0.70,0.71,0.71
93.51,1.02,0.33,1.02,0.33,-0.34,-0.29,0.39,0.68,0.68,0.69
94.44,1.02,0.36,1.02,0.36,-0.37,-0.32,0.34,0.65,0.65,0.66
95.39,1.02,0.40,1.02,0.40,-0.41,-0.34,0.29,0.61,0.61,0.62
96.34,1.02,0.44,1.02,0.45,-0.45,-0.37,0.24,0.57,0.57,0.58
97.30,1.02,0.50,1.02,0.50,-0.50,-0.40,0.19,0.52,0.52,0.52
98.28,1.02,0.55,1.02,0.55,-0.55,-0.43,0.15,0.47,0.47,0.47
99.26,1.02,0.60,1.02,0.61,-0.60,-0.46,0.10,0.42,0.42,0.42
100.25,1.02,0.66,1.02,0.66,-0.66,-0.49,0.06,0.36,0.36,0.36
101.25,1.02,0.72,1.02,0.72,-0.72,-0.51,0.01,0.30,0.30,0.30
102.27,1.02,0.78,1.02,0.78,-0.78,-0.54,-0.03,0.24,0.23,0.24
103.29,1.02,0.84,1.02,0.84,-0.85,-0.57,-0.08,0.17,0.17,0.18
104.32,1.02,0.89,1.02,0.90,-0.91,-0.59,-0.12,0.11,0.11,0.13
105.37,1.03,0.97,1.03,0.97,-0.97,-0.62,-0.16,0.05,0.05,0.06
106.42,1.04,1.04,1.03,1.03,-1.03,-0.65,-0.21,0.00,0.00,-0.00
107.48,1.04,1.09,1.04,1.10,-1.09,-0.67,-0.25,-0.05,-0.05,-0.05
108.56,1.04,1.15,1.04,1.15,-1.14,-0.70,-0.29,-0.10,-0.10,-0.11
109.64,1.03,1.20,1.03,1.19,-1.18,-0.72,-0.33,-0.16,-0.16,-0.17
110.74,1.01,1.23,1.01,1.23,-1.22,-0.75,-0.37,-0.22,-0.22,-0.22
111.85,0.98,1.24,0.98,1.25,-1.26,-0.77,-0.41,-0.28,-0.28,-0.26
112.97,0.95,1.28,0.95,1.27,-1.29,-0.80,-0.44,-0.34,-0.34,-0.33
114.10,0.92,1.29,0.92,1.29,-1.31,-0.82,-0.48,-0.39,-0.39,-0.37
115.24,0.89,1.31,0.90,1.32,-1.32,-0.85,-0.51,-0.44,-0.43,-0.42
116.39,0.88,1.35,0.87,1.34,-1.33,-0.87,-0.55,-0.46,-0.46,-0.47
117.55,0.85,1.36,0.84,1.36,-1.34,-0.89,-0.58,-0.49,-0.50,-0.51
118.73,0.81,1.36,0.81,1.36,-1.34,-0.91,-0.61,-0.54,-0.54,-0.55
119.92,0.76,1.34,0.76,1.34,-1.34,-0.93,-0.64,-0.59,-0.59,-0.58
121.12,0.71,1.32,0.71,1.33,-1.34,-0.95,-0.67,-0.63,-0.63,-0.61
122.33,0.68,1.32,0.68,1.32,-1.33,-0.97,-0.70,-0.66,-0.65,-0.64
123.55,0.65,1.32,0.64,1.32,-1.32,-0.99,-0.73,-0.68,-0.68,-0.67
124.79,0.62,1.32,0.61,1.31,-1.32,-1.01,-0.75,-0.70,-0.71,-0.70
126.03,0.57,1.29,0.58,1.30,-1.31,-1.03,-0.78,-0.74,-0.73,-0.72
127.29,0.54,1.29,0.54,1.30,-1.30,-1.04,-0.80,-0.76,-0.76,-0.75
128.57,0.51,1.30,0.50,1.29,-1.29,-1.06,-0.82,-0.78,-0.78,-0.79
129.85,0.47,1.28,0.46,1.28,-1.27,-1.07,-0.85,-0.80,-0.81,-0.81
131.15,0.41,1.25,0.42,1.26,-1.25,-1.08,-0.87,-0.85,-0.84,-0.84
132.46,0.37,1.25,0.36,1.23,-1.23,-1.09,-0.88,-0.87,-0.88,-0.88
133.79,0.30,1.20,0.30,1.21,-1.21,-1.10,-0.90,-0.91,-0.91,-0.90
135.12,0.23,1.16,0.24,1.17,-1.18,-1.11,-0.92,-0.96,-0.95,-0.93
136.48,0.19,1.15,0.18,1.14,-1.16,-1.11,-0.94,-0.97,-0.98,-0.96
137.84,0.12,1.11,0.13,1.13,-1.12,-1.11,-0.95,-1.01,-1.00,-0.99
139.22,0.07,1.11,0.06,1.10,-1.09,-1.11,-0.97,-1.02,-1.03,-1.04
140.61,0.01,1.08,-0.01,1.06,-1.06,-1.10,-0.98,-1.05,-1.06,-1.07
142.02,-0.10,0.99,-0.08,1.02,-1.02,-1.10,-1.00,-1.12,-1.10,-1.09
143.44,-0.15,0.98,-0.16,0.97,-0.98,-1.08,-1.01,-1.13,-1.14,-1.13
144.87,-0.25,0.92,-0.25,0.92,-0.93,-1.07,-1.03,-1.18,-1.18,-1.17
146.32,-0.32,0.89,-0.33,0.88,-0.88,-1.05,-1.04,-1.20,-1.21,-1.21
147.78,-0.43,0.81,-0.42,0.82,-0.82,-1.03,-1.06,-1.25,-1.24,-1.24
149.26,-0.51,0.76,-0.52,0.76,-0.75,-1.00,-1.07,-1.27,-1.27,-1.27
150.75,-0.63,0.69,-0.63,0.69,-0.68,-0.97,-1.09,-1.32,-1.31,-1.32
152.26,-0.74,0.62,-0.75,0.62,-0.61,-0.93,-1.10,-1.35,-1.35,-1.36
153.78,-0.88,0.51,-0.88,0.52,-0.53,-0.88,-1.12,-1.41,-1.40,-1.39
155.32,-0.99,0.45,-1.00,0.44,-0.44,-0.83,-1.14,-1.43,-1.44,-1.44
156.88,-1.14,0.33,-1.14,0.35,-0.35,-0.77,-1.15,-1.50,-1.49,-1.47
158.44,-1.25,0.28,-1.27,0.26,-0.26,-0.71,-1.17,-1.52,-1.54,-1.53
160.03,-1.43,0.14,-1.41,0.17,-0.17,-0.64,-1.19,-1.61,-1.58,-1.57
161.63,-1.54,0.08,-1.54,0.08,-0.08,-0.56,-1.21,-1.62,-1.62,-1.62
163.24,-1.65,0.01,-1.68,-0.01,0.01,-0.47,-1.23,-1.64,-1.66,-1.66
164.88,-1.81,-0.11,-1.79,-0.09,0.11,-0.38,-1.25,-1.71,-1.69,-1.70
166.53,-1.94,-0.20,-1.94,-0.19,0.20,-0.27,-1.27,-1.74,-1.74,-1.74
168.19,-2.05,-0.27,-2.08,-0.30,0.30,-0.16,-1.29,-1.76,-1.79,-1.78
169.87,-2.24,-0.42,-2.21,-0.39,0.39,-0.04,-1.32,-1.85,-1.82,-1.82
171.57,-2.35,-0.50,-2.35,-0.49,0.49,0.09,-1.34,-1.87,-1.86,-1.85
173.29,-2.46,-0.57,-2.49,-0.59,0.58,0.22,-1.37,-1.88,-1.91,-1.89
175.02,-2.62,-0.69,-2.61,-0.68,0.67,0.37,-1.39,-1.95,-1.93,-1.93
176.77,-2.73,-0.77,-2.73,-0.76,0.77,0.51,-1.42,-1.97,-1.96,-1.96
178.54,-2.83,-0.84,-2.84,-0.84,0.85,0.67,-1.45,-1.98,-1.99,-1.99
180.32,-2.94,-0.92,-2.94,-0.92,0.94,0.82,-1.48,-2.01,-2.01,-2.02
182.13,-3.04,-1.00,-3.05,-1.01,1.01,0.97,-1.51,-2.03,-2.04,-2.04
183.95,-3.17,-1.11,-3.16,-1.09,1.09,1.12,-1.54,-2.08,-2.07,-2.06
185.79,-3.25,-1.17,-3.25,-1.17,1.16,1.27,-1.57,-2.09,-2.09,-2.08
187.65,-3.32,-1.22,-3.33,-1.22,1.22,1.40,-1.61,-2.10,-2.11,-2.10
189.52,-3.38,-1.27,-3.39,-1.27,1.27,1.51,-1.64,-2.11,-2.12,-2.11
191.42,-3.44,-1.31,-3.44,-1.31,1.31,1.61,-1.68,-2.13,-2.13,-2.13
193.33,-3.49,-1.35,-3.49,-1.34,1.34,1.68,-1.72,-2.15,-2.15,-2.14
195.27,-3.51,-1.36,-3.52,-1.36,1.36,1.72,-1.75,-2.15,-2.16,-2.15
197.22,-3.53,-1.36,-3.53,-1.36,1.37,1.73,-1.79,-2.17,-2.17,-2.17
199.19,-3.54,-1.35,-3.54,-1.35,1.36,1.71,-1.83,-2.18,-2.18,-2.19
201.18,-3.53,-1.33,-3.54,-1.34,1.34,1.66,-1.87,-2.19,-2.20,-2.20
203.19,-3.52,-1.32,-3.52,-1.31,1.31,1.57,-1.91,-2.22,-2.21,-2.20
205.23,-3.49,-1.27,-3.49,-1.27,1.26,1.45,-1.96,-2.24,-2.23,-2.22
207.28,-3.43,-1.21,-3.43,-1.20,1.19,1.30,-2.00,-2.24,-2.24,-2.22
209.35,-3.36,-1.12,-3.36,-1.11,1.11,1.12,-2.04,-2.25,-2.25,-2.24
211.44,-3.26,-1.00,-3.27,-1.01,1.01,0.93,-2.08,-2.25,-2.25,-2.26
213.56,-3.16,-0.89,-3.16,-0.89,0.90,0.72,-2.13,-2.26,-2.26,-2.27
215.69,-3.04,-0.77,-3.04,-0.76,0.77,0.50,-2.17,-2.27,-2.27,-2.27
217.85,-2.89,-0.60,-2.91,-0.62,0.62,0.26,-2.21,-2.27,-2.30,-2.29
220.03,-2.78,-0.48,-2.77,-0.47,0.45,0.03,-2.26,-2.33,-2.32,-2.30
222.23,-2.62,-0.30,-2.61,-0.29,0.27,-0.21,-2.30,-2.35,-2.34,-2.32
224.45,-2.41,-0.09,-2.41,-0.08,0.07,-0.44,-2.34,-2.34,-2.34,-2.32
226.70,-2.19,0.15,-2.19,0.15,-0.14,-0.67,-2.38,-2.33,-2.33,-2.34
228.96,-1.95,0.40,-1.98,0.37,-0.37,-0.90,-2.42,-2.32,-2.35,-2.35
231.25,-1.78,0.58,-1.76,0.61,-0.60,-1.12,-2.46,-2.39,-2.36,-2.36
233.57,-1.54,0.84,-1.53,0.85,-0.86,-1.34,-2.50,-2.40,-2.38,-2.38
235.90,-1.25,1.14,-1.28,1.11,-1.12,-1.55,-2.54,-2.37,-2.40,-2.39
238.26,-1.04,1.37,-1.03,1.39,-1.39,-1.75,-2.58,-2.43,-2.42,-2.41
240.64,-0.77,1.66,-0.78,1.65,-1.66,-1.94,-2.61,-2.43,-2.44,-2.43
243.05,-0.54,1.90,-0.52,1.92,-1.93,-2.13,-2.65,-2.47,-2.46,-2.44
245.48,-0.26,2.19,-0.25,2.21,-2.20,-2.31,-2.68,-2.47,-2.46,-2.45
247.93,0.06,2.52,0.03,2.49,-2.48,-2.48,-2.71,-2.42,-2.45,-2.46
250.41,0.28,2.75,0.30,2.77,-2.74,-2.65,-2.74,-2.47,-2.44,-2.47
252.92,0.57,3.03,0.55,3.01,-3.00,-2.81,-2.77,-2.44,-2.46,-2.46
255.45,0.79,3.25,0.79,3.25,-3.26,-2.96,-2.80,-2.47,-2.47,-2.46
258.00,1.01,3.46,1.03,3.49,-3.50,-3.11,-2.83,-2.49,-2.47,-2.45
260.58,1.30,3.75,1.27,3.73,-3.74,-3.26,-2.85,-2.44,-2.46,-2.45
263.19,1.51,3.95,1.52,3.97,-3.96,-3.40,-2.87,-2.45,-2.44,-2.44
265.82,1.77,4.20,1.75,4.18,-4.17,-3.53,-2.90,-2.41,-2.42,-2.43
268.48,1.97,4.38,1.97,4.38,-4.38,-3.67,-2.92,-2.41,-2.41,-2.41
271.16,2.16,4.55,2.19,4.58,-4.58,-3.80,-2.94,-2.42,-2.39,-2.39
273.87,2.41,4.79,2.38,4.76,-4.76,-3.92,-2.96,-2.35,-2.38,-2.38
276.61,2.58,4.93,2.58,4.94,-4.94,-4.05,-2.98,-2.36,-2.36,-2.35
279.38,2.75,5.10,2.75,5.10,-5.10,-4.17,-3.00,-2.36,-2.35,-2.35
282.17,2.91,5.24,2.91,5.24,-5.26,-4.29,-3.02,-2.35,-2.35,-2.33
284.99,3.06,5.38,3.08,5.40,-5.40,-4.41,-3.05,-2.34,-2.33,-2.32
287.84,3.25,5.55,3.23,5.54,-5.53,-4.53,-3.07,-2.29,-2.30,-2.30
290.72,3.39,5.67,3.38,5.67,-5.66,-4.65,-3.09,-2.27,-2.27,-2.28
293.63,3.51,5.78,3.51,5.78,-5.77,-4.76,-3.11,-2.26,-2.26,-2.27
296.57,3.62,5.86,3.62,5.87,-5.87,-4.88,-3.14,-2.25,-2.25,-2.24
299.53,3.72,5.95,3.72,5.95,-5.96,-5.00,-3.16,-2.24,-2.24,-2.23
302.53,3.81,6.03,3.81,6.03,-6.03,-5.11,-3.19,-2.23,-2.22,-2.22
305.55,3.91,6.10,3.90,6.10,-6.10,-5.23,-3.22,-2.19,-2.20,-2.19
308.61,3.99,6.16,3.99,6.16,-6.16,-5.34,-3.25,-2.17,-2.17,-2.17
311.69,4.08,6.22,4.07,6.21,-6.21,-5.46,-3.28,-2.13,-2.14,-2.14
314.81,4.15,6.25,4.14,6.26,-6.26,-5.57,-3.31,-2.11,-2.12,-2.10
317.96,4.21,6.30,4.21,6.30,-6.31,-5.69,-3.35,-2.10,-2.10,-2.09
321.14,4.27,6.34,4.27,6.34,-6.35,-5.81,-3.39,-2.08,-2.08,-2.07
324.35,4.33,6.38,4.33,6.39,-6.39,-5.92,-3.43,-2.06,-2.06,-2.05
327.59,4.41,6.44,4.40,6.43,-6.43,-6.04,-3.48,-2.02,-2.03,-2.03
330.87,4.46,6.47,4.46,6.47,-6.47,-6.15,-3.52,-2.01,-2.01,-2.01
334.18,4.52,6.50,4.52,6.51,-6.50,-6.27,-3.57,-1.99,-1.98,-1.98
337.52,4.58,6.54,4.57,6.54,-6.54,-6.39,-3.62,-1.96,-1.96,-1.96
340.90,4.63,6.57,4.63,6.57,-6.58,-6.50,-3.68,-1.95,-1.94,-1.94
344.30,4.70,6.61,4.69,6.61,-6.61,-6.61,-3.74,-1.92,-1.92,-1.91
347.75,4.75,6.64,4.75,6.64,-6.65,-6.73,-3.80,-1.90,-1.90,-1.89
351.23,4.82,6.68,4.82,6.68,-6.69,-6.84,-3.86,-1.87,-1.87,-1.86
354.74,4.88,6.71,4.88,6.72,-6.72,-6.94,-3.93,-1.85,-1.84,-1.83
358.28,4.95,6.77,4.95,6.76,-6.76,-7.05,-4.00,-1.81,-1.81,-1.82
361.87,5.01,6.80,5.00,6.80,-6.80,-7.15,-4.07,-1.79,-1.79,-1.79
365.49,5.06,6.82,5.06,6.83,-6.83,-7.24,-4.15,-1.77,-1.77,-1.76
369.14,5.11,6.86,5.11,6.86,-6.86,-7.34,-4.22,-1.75,-1.75,-1.75
372.83,5.16,6.88,5.16,6.88,-6.88,-7.42,-4.31,-1.72,-1.73,-1.72
376.56,5.20,6.90,5.20,6.90,-6.90,-7.50,-4.39,-1.70,-1.70,-1.70
380.33,5.23,6.90,5.23,6.91,-6.91,-7.57,-4.48,-1.68,-1.68,-1.67
384.13,5.26,6.92,5.25,6.91,-6.91,-7.63,-4.57,-1.65,-1.66,-1.66
387.97,5.26,6.90,5.26,6.90,-6.90,-7.68,-4.66,-1.64,-1.64,-1.64
391.85,5.26,6.89,5.26,6.89,-6.88,-7.72,-4.75,-1.63,-1.62,-1.63
395.77,5.25,6.85,5.25,6.86,-6.86,-7.74,-4.85,-1.61,-1.61,-1.60
399.73,5.24,6.83,5.23,6.83,-6.83,-7.76,-4.95,-1.59,-1.60,-1.59
403.72,5.20,6.79,5.20,6.79,-6.79,-7.75,-5.05,-1.59,-1.59,-1.59
407.76,5.16,6.74,5.16,6.74,-6.74,-7.73,-5.15,-1.59,-1.59,-1.58
411.84,5.11,6.68,5.11,6.69,-6.69,-7.69,-5.25,-1.59,-1.58,-1.57
415.96,5.06,6.64,5.06,6.64,-6.64,-7.64,-5.35,-1.58,-1.58,-1.58
420.12,5.00,6.58,5.00,6.58,-6.58,-7.57,-5.46,-1.58,-1.58,-1.58
424.32,4.93,6.51,4.93,6.52,-6.51,-7.48,-5.56,-1.59,-1.58,-1.58
428.56,4.87,6.45,4.86,6.45,-6.44,-7.37,-5.66,-1.58,-1.58,-1.58
432.85,4.79,6.38,4.79,6.37,-6.37,-7.24,-5.76,-1.58,-1.59,-1.59
437.18,4.70,6.29,4.70,6.30,-6.29,-7.11,-5.86,-1.60,-1.59,-1.59
441.55,4.62,6.21,4.61,6.21,-6.22,-6.95,-5.95,-1.60,-1.60,-1.59
445.96,4.53,6.13,4.53,6.13,-6.13,-6.80,-6.04,-1.60,-1.60,-1.60
450.42,4.44,6.04,4.44,6.05,-6.05,-6.63,-6.13,-1.61,-1.61,-1.60
454.93,4.36,5.96,4.35,5.96,-5.96,-6.46,-6.21,-1.60,-1.61,-1.60
459.48,4.27,5.88,4.27,5.88,-5.88,-6.30,-6.29,-1.61,-1.60,-1.61
464.07,4.19,5.79,4.19,5.80,-5.79,-6.14,-6.35,-1.61,-1.61,-1.60
468.71,4.11,5.71,4.10,5.71,-5.71,-5.98,-6.42,-1.60,-1.61,-1.60
473.40,4.01,5.62,4.02,5.62,-5.63,-5.84,-6.47,-1.62,-1.61,-1.61
478.13,3.93,5.53,3.94,5.55,-5.55,-5.72,-6.51,-1.62,-1.61,-1.60
482.91,3.87,5.48,3.86,5.47,-5.47,-5.61,-6.55,-1.60,-1.61,-1.61
487.74,3.79,5.39,3.79,5.39,-5.39,-5.51,-6.58,-1.60,-1.60,-1.60
