frequency,raw,error,smoothed,error_smoothed,equalization,parametric_eq,fixed_band_eq,equalized_raw,equalized_smoothed,target
20.00,8.65,-2.05,8.65,-2.05,2.07,2.04,0.46,10.72,10.72,10.70
20.20,8.68,-2.03,8.67,-2.04,2.04,2.01,0.47,10.72,10.71,10.71
20.40,8.69,-2.03,8.70,-2.02,2.01,1.99,0.49,10.70,10.71,10.72
20.61,8.74,-1.99,8.74,-1.99,1.98,1.97,0.50,10.72,10.72,10.73
20.81,8.78,-1.95,8.78,-1.96,1.95,1.94,0.52,10.73,10.72,10.73
21.02,8.83,-1.91,8.82,-1.92,1.92,1.92,0.54,10.74,10.74,10.74
21.23,8.86,-1.89,8.87,-1.88,1.88,1.90,0.56,10.74,10.75,10.75
21.44,8.92,-1.84,8.91,-1.85,1.85,1.87,0.57,10.77,10.76,10.76
21.66,8.95,-1.81,8.95,-1.81,1.81,1.85,0.59,10.76,10.77,10.76
21.87,9.00,-1.77,8.99,-1.78,1.78,1.82,0.61,10.78,10.77,10.77
22.09,9.03,-1.74,9.03,-1.74,1.74,1.80,0.63,10.77,10.77,10.77
22.31,9.06,-1.72,9.07,-1.71,1.71,1.77,0.65,10.77,10.78,10.78
22.54,9.12,-1.66,9.11,-1.68,1.68,1.75,0.67,10.79,10.78,10.78
22.76,9.15,-1.64,9.15,-1.64,1.64,1.72,0.69,10.79,10.79,10.79
22.99,9.18,-1.61,9.18,-1.61,1.61,1.70,0.72,10.79,10.79,10.79
23.22,9.22,-1.57,9.21,-1.58,1.58,1.67,0.74,10.79,10.79,10.79
23.45,9.24,-1.56,9.25,-1.55,1.54,1.64,0.76,10.78,10.79,10.80
23.69,9.29,-1.51,9.29,-1.51,1.51,1.62,0.79,10.80,10.80,10.80
23.92,9.33,-1.47,9.32,-1.48,1.48,1.59,0.81,10.81,10.80,10.80
24.16,9.36,-1.44,9.36,-1.44,1.45,1.56,0.83,10.81,10.81,10.80
24.40,9.39,-1.42,9.39,-1.42,1.42,1.54,0.86,10.81,10.81,10.81
24.65,9.43,-1.38,9.42,-1.39,1.39,1.51,0.88,10.82,10.81,10.81
24.89,9.45,-1.36,9.45,-1.36,1.36,1.48,0.91,10.80,10.81,10.81
25.14,9.48,-1.33,9.48,-1.33,1.33,1.45,0.93,10.80,10.81,10.81
25.39,9.52,-1.29,9.51,-1.30,1.30,1.43,0.96,10.81,10.81,10.81
25.65,9.54,-1.27,9.54,-1.27,1.27,1.40,0.98,10.80,10.81,10.81
25.91,9.58,-1.23,9.58,-1.23,1.24,1.37,1.00,10.81,10.81,10.81
26.16,9.61,-1.20,9.60,-1.21,1.21,1.34,1.03,10.81,10.81,10.81
26.43,9.64,-1.17,9.64,-1.17,1.18,1.31,1.05,10.81,10.81,10.81
26.69,9.66,-1.15,9.66,-1.15,1.15,1.28,1.07,10.81,10.81,10.81
26.96,9.70,-1.11,9.69,-1.12,1.12,1.25,1.09,10.82,10.81,10.81
27.23,9.71,-1.10,9.72,-1.09,1.09,1.22,1.12,10.80,10.81,10.81
27.50,9.75,-1.06,9.74,-1.07,1.07,1.19,1.13,10.81,10.81,10.81
27.77,9.77,-1.04,9.77,-1.04,1.04,1.16,1.15,10.81,10.81,10.81
28.05,9.80,-1.01,9.80,-1.01,1.01,1.13,1.17,10.81,10.81,10.81
28.33,9.83,-0.98,9.82,-0.99,0.99,1.10,1.18,10.82,10.81,10.81
28.62,9.85,-0.96,9.85,-0.96,0.97,1.07,1.20,10.81,10.81,10.81
28.90,9.87,-0.94,9.87,-0.94,0.94,1.04,1.21,10.81,10.81,10.81
29.19,9.89,-0.92,9.89,-0.92,0.92,1.01,1.22,10.80,10.81,10.81
29.48,9.93,-0.88,9.92,-0.89,0.89,0.97,1.22,10.82,10.81,10.81
29.78,9.94,-0.87,9.94,-0.87,0.87,0.94,1.23,10.80,10.81,10.81
30.08,9.97,-0.84,9.97,-0.84,0.84,0.91,1.23,10.81,10.81,10.81
30.38,9.99,-0.81,9.99,-0.81,0.81,0.88,1.23,10.80,10.80,10.80
30.68,10.03,-0.77,10.02,-0.78,0.78,0.85,1.23,10.81,10.80,10.80
30.99,10.04,-0.76,10.04,-0.75,0.75,0.81,1.22,10.79,10.80,10.80
31.30,10.08,-0.71,10.07,-0.72,0.72,0.78,1.21,10.80,10.79,10.79
31.61,10.08,-0.71,10.09,-0.70,0.70,0.75,1.20,10.77,10.79,10.79
31.93,10.13,-0.65,10.12,-0.66,0.67,0.72,1.18,10.79,10.79,10.78
32.24,10.14,-0.64,10.14,-0.64,0.64,0.68,1.16,10.78,10.78,10.78
32.57,10.17,-0.60,10.17,-0.61,0.61,0.65,1.14,10.78,10.78,10.77
32.89,10.18,-0.59,10.18,-0.58,0.58,0.62,1.12,10.76,10.77,10.77
33.22,10.22,-0.54,10.21,-0.55,0.55,0.58,1.09,10.77,10.76,10.76
33.55,10.22,-0.54,10.23,-0.53,0.53,0.55,1.06,10.74,10.75,10.76
33.89,10.26,-0.49,10.25,-0.50,0.50,0.51,1.03,10.76,10.75,10.75
34.23,10.26,-0.48,10.27,-0.47,0.47,0.48,1.00,10.73,10.74,10.74
34.57,10.31,-0.42,10.29,-0.44,0.44,0.45,0.96,10.75,10.73,10.73
34.92,10.31,-0.41,10.31,-0.42,0.42,0.41,0.92,10.72,10.72,10.72
35.27,10.31,-0.41,10.33,-0.38,0.39,0.38,0.88,10.70,10.72,10.72
35.62,10.36,-0.34,10.34,-0.37,0.36,0.34,0.84,10.72,10.70,10.70
35.97,10.36,-0.33,10.36,-0.33,0.33,0.31,0.80,10.69,10.69,10.69
36.33,10.36,-0.32,10.38,-0.30,0.31,0.27,0.76,10.66,10.68,10.68
36.70,10.40,-0.26,10.38,-0.28,0.28,0.24,0.71,10.68,10.66,10.66
37.06,10.40,-0.25,10.39,-0.25,0.25,0.20,0.66,10.65,10.64,10.65
37.43,10.40,-0.23,10.41,-0.22,0.22,0.17,0.61,10.62,10.63,10.63
37.81,10.41,-0.20,10.42,-0.20,0.20,0.13,0.57,10.60,10.61,10.61
38.19,10.45,-0.15,10.43,-0.16,0.17,0.10,0.52,10.62,10.60,10.60
38.57,10.45,-0.13,10.45,-0.13,0.14,0.06,0.47,10.59,10.59,10.58
38.95,10.45,-0.11,10.45,-0.11,0.11,0.03,0.42,10.56,10.56,10.56
39.34,10.45,-0.09,10.45,-0.09,0.08,-0.01,0.36,10.53,10.53,10.54
39.74,10.45,-0.07,10.46,-0.06,0.05,-0.04,0.31,10.50,10.51,10.52
40.14,10.50,-0.00,10.48,-0.02,0.02,-0.08,0.26,10.52,10.50,10.50
40.54,10.50,0.02,10.50,0.02,-0.01,-0.11,0.21,10.49,10.49,10.48
40.94,10.50,0.05,10.50,0.05,-0.04,-0.15,0.16,10.46,10.46,10.45
41.35,10.50,0.07,10.50,0.07,-0.07,-0.19,0.10,10.43,10.43,10.43
41.76,10.50,0.10,10.50,0.10,-0.10,-0.22,0.05,10.40,10.40,10.40
42.18,10.50,0.12,10.50,0.13,-0.13,-0.26,-0.00,10.36,10.37,10.38
42.60,10.52,0.17,10.51,0.16,-0.17,-0.29,-0.06,10.35,10.34,10.35
43.03,10.52,0.20,10.52,0.20,-0.20,-0.33,-0.11,10.32,10.32,10.32
43.46,10.52,0.23,10.53,0.24,-0.23,-0.36,-0.16,10.29,10.30,10.29
43.90,10.54,0.28,10.53,0.27,-0.27,-0.40,-0.22,10.27,10.27,10.26
44.33,10.54,0.31,10.54,0.31,-0.30,-0.44,-0.27,10.24,10.23,10.23
44.78,10.54,0.34,10.54,0.34,-0.34,-0.47,-0.33,10.20,10.20,10.20
45.23,10.54,0.37,10.54,0.37,-0.37,-0.51,-0.38,10.16,10.16,10.17
45.68,10.54,0.41,10.54,0.41,-0.41,-0.54,-0.44,10.13,10.13,10.13
46.13,10.54,0.45,10.54,0.45,-0.45,-0.58,-0.49,10.09,10.09,10.09
46.60,10.54,0.49,10.54,0.48,-0.48,-0.62,-0.54,10.05,10.05,10.05
47.06,10.54,0.52,10.54,0.52,-0.52,-0.65,-0.60,10.01,10.01,10.02
47.53,10.54,0.56,10.54,0.56,-0.56,-0.69,-0.65,9.97,9.97,9.98
48.01,10.54,0.61,10.54,0.60,-0.61,-0.72,-0.71,9.93,9.93,9.93
48.49,10.54,0.65,10.54,0.65,-0.65,-0.76,-0.76,9.89,9.89,9.89
48.97,10.54,0.70,10.54,0.70,-0.70,-0.80,-0.82,9.84,9.84,9.84
49.46,10.54,0.74,10.54,0.74,-0.74,-0.83,-0.87,9.80,9.80,9.80
49.96,10.54,0.79,10.54,0.78,-0.78,-0.87,-0.93,9.76,9.76,9.75
50.46,10.54,0.83,10.54,0.83,-0.82,-0.90,-0.98,9.72,9.72,9.71
50.96,10.54,0.87,10.54,0.87,-0.86,-0.94,-1.04,9.68,9.68,9.67
51.47,10.54,0.91,10.53,0.91,-0.90,-0.98,-1.09,9.64,9.63,9.63
51.99,10.52,0.94,10.52,0.94,-0.94,-1.01,-1.15,9.58,9.59,9.58
52.51,10.52,0.98,10.51,0.97,-0.98,-1.05,-1.20,9.54,9.54,9.54
53.03,10.50,1.00,10.50,1.01,-1.02,-1.08,-1.25,9.48,9.49,9.50
53.56,10.50,1.05,10.50,1.05,-1.06,-1.12,-1.31,9.44,9.44,9.45
54.10,10.50,1.10,10.50,1.09,-1.10,-1.15,-1.36,9.39,9.39,9.40
54.64,10.50,1.15,10.50,1.15,-1.15,-1.19,-1.41,9.35,9.35,9.35
55.18,10.50,1.20,10.50,1.20,-1.19,-1.23,-1.46,9.31,9.31,9.30
55.74,10.50,1.25,10.50,1.25,-1.23,-1.26,-1.51,9.26,9.27,9.25
56.29,10.50,1.29,10.50,1.29,-1.27,-1.30,-1.56,9.22,9.22,9.21
56.86,10.50,1.33,10.48,1.31,-1.31,-1.33,-1.60,9.19,9.17,9.17
57.42,10.45,1.33,10.46,1.34,-1.34,-1.37,-1.65,9.11,9.12,9.12
58.00,10.45,1.37,10.45,1.37,-1.37,-1.40,-1.69,9.08,9.08,9.08
58.58,10.45,1.41,10.44,1.40,-1.40,-1.44,-1.73,9.05,9.04,9.04
59.16,10.45,1.45,10.43,1.43,-1.44,-1.48,-1.77,9.01,9.00,9.00
59.76,10.40,1.44,10.42,1.46,-1.47,-1.51,-1.81,8.93,8.94,8.96
60.35,10.40,1.50,10.40,1.50,-1.51,-1.55,-1.84,8.89,8.89,8.90
60.96,10.40,1.56,10.39,1.54,-1.56,-1.58,-1.88,8.84,8.83,8.84
61.57,10.38,1.60,10.38,1.60,-1.60,-1.62,-1.91,8.78,8.78,8.78
62.18,10.36,1.65,10.37,1.66,-1.65,-1.65,-1.94,8.71,8.72,8.71
62.80,10.36,1.71,10.35,1.70,-1.69,-1.69,-1.97,8.66,8.66,8.65
63.43,10.36,1.77,10.34,1.75,-1.74,-1.72,-1.99,8.62,8.60,8.59
64.07,10.31,1.77,10.32,1.78,-1.78,-1.76,-2.01,8.53,8.54,8.54
64.71,10.31,1.82,10.31,1.83,-1.82,-1.79,-2.04,8.48,8.49,8.49
65.35,10.31,1.87,10.30,1.86,-1.86,-1.83,-2.06,8.44,8.44,8.44
66.01,10.31,1.92,10.29,1.90,-1.90,-1.87,-2.07,8.40,8.39,8.39
66.67,10.26,1.92,10.28,1.94,-1.94,-1.90,-2.09,8.32,8.34,8.34
67.33,10.26,1.98,10.26,1.98,-1.98,-1.94,-2.10,8.28,8.28,8.28
68.01,10.26,2.04,10.24,2.02,-2.02,-1.97,-2.12,8.23,8.22,8.22
68.69,10.22,2.06,10.24,2.07,-2.07,-2.01,-2.13,8.15,8.17,8.16
69.37,10.22,2.11,10.22,2.11,-2.11,-2.04,-2.14,8.11,8.11,8.11
70.07,10.22,2.17,10.20,2.15,-2.15,-2.08,-2.15,8.06,8.04,8.05
70.77,10.17,2.18,10.19,2.20,-2.20,-2.11,-2.16,7.97,7.99,7.99
71.48,10.17,2.24,10.17,2.24,-2.24,-2.15,-2.17,7.93,7.93,7.93
72.19,10.17,2.30,10.15,2.28,-2.28,-2.18,-2.18,7.88,7.87,7.87
72.91,10.13,2.33,10.13,2.33,-2.32,-2.22,-2.19,7.80,7.81,7.80
73.64,10.11,2.37,10.11,2.37,-2.36,-2.26,-2.20,7.74,7.75,7.74
74.38,10.08,2.40,10.08,2.40,-2.40,-2.29,-2.21,7.68,7.68,7.68
75.12,10.07,2.45,10.06,2.44,-2.44,-2.33,-2.22,7.63,7.62,7.62
75.87,10.03,2.46,10.03,2.47,-2.47,-2.36,-2.23,7.56,7.56,7.57
76.63,10.01,2.50,10.01,2.50,-2.50,-2.40,-2.25,7.51,7.51,7.51
77.40,9.99,2.53,9.99,2.53,-2.53,-2.43,-2.26,7.46,7.46,7.46
78.17,9.97,2.57,9.96,2.56,-2.56,-2.47,-2.27,7.41,7.41,7.40
78.95,9.94,2.59,9.94,2.59,-2.59,-2.50,-2.29,7.35,7.35,7.35
79.74,9.91,2.61,9.91,2.61,-2.62,-2.54,-2.31,7.29,7.29,7.30
80.54,9.89,2.65,9.88,2.64,-2.65,-2.57,-2.33,7.24,7.23,7.24
81.35,9.85,2.67,9.86,2.67,-2.68,-2.61,-2.34,7.17,7.18,7.18
82.16,9.85,2.72,9.84,2.71,-2.71,-2.64,-2.37,7.14,7.13,7.13
82.98,9.81,2.74,9.81,2.74,-2.74,-2.68,-2.39,7.07,7.07,7.07
83.81,9.80,2.79,9.79,2.78,-2.77,-2.71,-2.42,7.02,7.02,7.01
84.65,9.75,2.80,9.76,2.81,-2.80,-2.75,-2.44,6.94,6.96,6.95
85.50,9.74,2.85,9.73,2.84,-2.83,-2.78,-2.47,6.90,6.90,6.89
86.35,9.71,2.87,9.70,2.86,-2.86,-2.82,-2.50,6.84,6.84,6.84
87.22,9.66,2.88,9.67,2.89,-2.89,-2.85,-2.53,6.77,6.78,6.78
88.09,9.64,2.92,9.64,2.91,-2.92,-2.89,-2.57,6.72,6.72,6.72
88.97,9.61,2.95,9.61,2.94,-2.95,-2.92,-2.61,6.66,6.66,6.66
89.86,9.58,2.98,9.58,2.98,-2.98,-2.96,-2.64,6.60,6.60,6.60
90.76,9.55,3.01,9.54,3.01,-3.01,-2.99,-2.69,6.54,6.54,6.54
91.66,9.52,3.05,9.51,3.04,-3.04,-3.02,-2.73,6.48,6.47,6.47
92.58,9.47,3.06,9.48,3.07,-3.07,-3.06,-2.77,6.40,6.41,6.41
93.51,9.46,3.11,9.45,3.10,-3.10,-3.09,-2.82,6.35,6.35,6.35
94.44,9.43,3.14,9.42,3.14,-3.14,-3.13,-2.87,6.29,6.29,6.29
95.39,9.40,3.18,9.40,3.18,-3.17,-3.16,-2.92,6.22,6.22,6.22
96.34,9.36,3.21,9.36,3.20,-3.21,-3.19,-2.97,6.15,6.15,6.15
97.30,9.33,3.24,9.33,3.24,-3.25,-3.22,-3.02,6.08,6.08,6.09
98.28,9.30,3.28,9.30,3.28,-3.28,-3.26,-3.08,6.01,6.02,6.02
99.26,9.29,3.34,9.27,3.32,-3.32,-3.29,-3.14,5.97,5.95,5.95
100.25,9.24,3.36,9.24,3.36,-3.35,-3.32,-3.19,5.89,5.89,5.88
101.25,9.21,3.38,9.21,3.39,-3.38,-3.35,-3.25,5.82,5.83,5.83
102.27,9.19,3.42,9.18,3.41,-3.41,-3.38,-3.31,5.78,5.77,5.77
103.29,9.15,3.44,9.15,3.44,-3.44,-3.41,-3.37,5.71,5.71,5.71
104.32,9.12,3.47,9.12,3.46,-3.47,-3.44,-3.43,5.65,5.65,5.65
105.37,9.08,3.49,9.08,3.49,-3.49,-3.47,-3.49,5.59,5.59,5.59
106.42,9.05,3.51,9.04,3.51,-3.51,-3.50,-3.55,5.54,5.53,5.54
107.48,9.01,3.54,9.01,3.54,-3.53,-3.53,-3.61,5.47,5.48,5.47
108.56,8.97,3.56,8.97,3.56,-3.55,-3.55,-3.67,5.41,5.42,5.41
109.64,8.94,3.59,8.93,3.58,-3.58,-3.58,-3.73,5.36,5.35,5.35
110.74,8.88,3.59,8.89,3.60,-3.60,-3.61,-3.78,5.28,5.29,5.29
111.85,8.85,3.62,8.84,3.62,-3.62,-3.64,-3.84,5.23,5.22,5.23
112.97,8.80,3.64,8.80,3.64,-3.65,-3.66,-3.89,5.15,5.16,5.16
114.10,8.77,3.67,8.76,3.67,-3.67,-3.69,-3.94,5.10,5.09,5.10
115.24,8.73,3.70,8.72,3.69,-3.69,-3.71,-3.99,5.03,5.03,5.03
116.39,8.68,3.72,8.69,3.72,-3.72,-3.73,-4.03,4.96,4.97,4.96
117.55,8.65,3.75,8.64,3.75,-3.74,-3.76,-4.07,4.90,4.90,4.90
118.73,8.61,3.78,8.60,3.77,-3.77,-3.78,-4.10,4.84,4.84,4.83
119.92,8.56,3.79,8.56,3.79,-3.79,-3.80,-4.13,4.77,4.78,4.77
121.12,8.53,3.81,8.52,3.81,-3.81,-3.82,-4.16,4.72,4.72,4.72
122.33,8.48,3.82,8.48,3.82,-3.82,-3.84,-4.18,4.65,4.66,4.66
123.55,8.45,3.85,8.44,3.84,-3.84,-3.86,-4.20,4.61,4.60,4.60
124.79,8.39,3.85,8.39,3.85,-3.86,-3.88,-4.21,4.53,4.54,4.54
126.03,8.36,3.88,8.36,3.88,-3.88,-3.90,-4.22,4.48,4.48,4.48
127.29,8.31,3.89,8.31,3.89,-3.90,-3.92,-4.23,4.41,4.41,4.42
128.57,8.28,3.93,8.27,3.92,-3.91,-3.93,-4.23,4.36,4.36,4.35
129.85,8.22,3.93,8.23,3.94,-3.93,-3.95,-4.22,4.28,4.29,4.29
131.15,8.19,3.96,8.18,3.95,-3.95,-3.96,-4.21,4.24,4.23,4.23
132.46,8.14,3.97,8.14,3.97,-3.97,-3.98,-4.19,4.17,4.17,4.17
133.79,8.10,3.99,8.10,3.99,-3.99,-3.99,-4.18,4.11,4.11,4.11
135.12,8.05,4.00,8.05,4.00,-4.00,-4.00,-4.15,4.05,4.05,4.05
136.48,8.01,4.01,8.01,4.01,-4.01,-4.01,-4.13,4.00,4.00,4.00
137.84,7.97,4.03,7.96,4.02,-4.02,-4.03,-4.10,3.95,3.94,3.94
139.22,7.91,4.03,7.91,4.03,-4.03,-4.04,-4.07,3.88,3.89,3.88
140.61,7.87,4.04,7.87,4.04,-4.03,-4.04,-4.04,3.83,3.83,3.83
142.02,7.82,4.04,7.82,4.04,-4.04,-4.05,-4.00,3.78,3.78,3.78
143.44,7.77,4.04,7.77,4.04,-4.04,-4.06,-3.97,3.73,3.73,3.73
144.87,7.72,4.03,7.72,4.04,-4.04,-4.07,-3.93,3.68,3.68,3.69
146.32,7.68,4.04,7.67,4.03,-4.03,-4.07,-3.89,3.64,3.64,3.64
147.78,7.63,4.04,7.62,4.03,-4.03,-4.08,-3.85,3.60,3.59,3.59
149.26,7.57,4.03,7.57,4.03,-4.03,-4.08,-3.82,3.54,3.55,3.54
150.75,7.52,4.03,7.52,4.02,-4.02,-4.09,-3.78,3.49,3.49,3.49
152.26,7.47,4.02,7.46,4.01,-4.02,-4.09,-3.74,3.45,3.44,3.45
153.78,7.41,4.01,7.41,4.01,-4.02,-4.09,-3.71,3.39,3.39,3.40
155.32,7.36,4.01,7.36,4.01,-4.02,-4.10,-3.67,3.34,3.35,3.35
156.88,7.33,4.03,7.32,4.02,-4.02,-4.10,-3.64,3.31,3.30,3.30
158.44,7.27,4.02,7.27,4.02,-4.02,-4.10,-3.61,3.25,3.25,3.25
160.03,7.22,4.02,7.22,4.02,-4.02,-4.10,-3.58,3.20,3.20,3.20
161.63,7.17,4.02,7.17,4.02,-4.02,-4.09,-3.55,3.14,3.15,3.15
163.24,7.13,4.03,7.12,4.02,-4.03,-4.09,-3.52,3.10,3.10,3.10
164.88,7.08,4.03,7.08,4.03,-4.03,-4.09,-3.50,3.05,3.05,3.05
166.53,7.03,4.03,7.03,4.03,-4.03,-4.09,-3.48,3.00,3.00,3.00
168.19,6.98,4.03,6.98,4.03,-4.03,-4.08,-3.46,2.95,2.96,2.95
169.87,6.94,4.04,6.93,4.03,-4.02,-4.08,-3.44,2.91,2.91,2.90
171.57,6.88,4.03,6.87,4.02,-4.02,-4.07,-3.43,2.86,2.85,2.85
173.29,6.80,4.00,6.81,4.01,-4.01,-4.07,-3.42,2.79,2.80,2.80
175.02,6.75,4.00,6.75,4.00,-4.00,-4.06,-3.41,2.75,2.75,2.75
176.77,6.70,4.00,6.68,3.98,-3.99,-4.05,-3.41,2.71,2.70,2.70
178.54,6.62,3.97,6.63,3.98,-3.97,-4.04,-3.40,2.65,2.65,2.65
180.32,6.56,3.96,6.56,3.96,-3.96,-4.03,-3.40,2.60,2.60,2.60
182.13,6.51,3.96,6.50,3.94,-3.94,-4.02,-3.41,2.56,2.55,2.55
183.95,6.44,3.93,6.44,3.93,-3.93,-4.01,-3.41,2.50,2.51,2.51
185.79,6.38,3.92,6.38,3.92,-3.93,-4.00,-3.42,2.45,2.45,2.46
187.65,6.33,3.92,6.32,3.91,-3.92,-3.99,-3.43,2.40,2.40,2.41
189.52,6.28,3.92,6.28,3.92,-3.92,-3.98,-3.44,2.35,2.36,2.36
191.42,6.24,3.92,6.24,3.92,-3.93,-3.97,-3.46,2.31,2.31,2.32
193.33,6.21,3.94,6.20,3.93,-3.94,-3.95,-3.47,2.27,2.27,2.27
195.27,6.17,3.94,6.18,3.95,-3.95,-3.94,-3.49,2.22,2.23,2.23
197.22,6.15,3.97,6.14,3.96,-3.96,-3.92,-3.51,2.19,2.19,2.18
199.19,6.12,3.98,6.11,3.97,-3.97,-3.91,-3.54,2.15,2.15,2.14
201.18,6.07,3.97,6.08,3.98,-3.97,-3.89,-3.56,2.09,2.10,2.10
203.19,6.05,3.99,6.04,3.98,-3.98,-3.87,-3.58,2.07,2.06,2.06
205.23,6.00,3.97,6.00,3.98,-3.98,-3.85,-3.61,2.02,2.03,2.03
207.28,5.97,3.98,5.96,3.97,-3.97,-3.84,-3.64,2.00,1.99,1.99
209.35,5.92,3.97,5.92,3.96,-3.96,-3.82,-3.67,1.96,1.96,1.95
211.44,5.87,3.95,5.87,3.95,-3.95,-3.80,-3.69,1.92,1.92,1.92
213.56,5.82,3.93,5.82,3.93,-3.93,-3.78,-3.72,1.89,1.89,1.89
215.69,5.77,3.91,5.77,3.91,-3.91,-3.75,-3.75,1.86,1.86,1.86
217.85,5.72,3.89,5.71,3.88,-3.89,-3.73,-3.78,1.83,1.82,1.83
220.03,5.65,3.86,5.65,3.86,-3.86,-3.71,-3.80,1.79,1.79,1.79
222.23,5.59,3.83,5.59,3.83,-3.83,-3.68,-3.82,1.76,1.77,1.76
224.45,5.54,3.81,5.54,3.80,-3.80,-3.66,-3.85,1.74,1.74,1.73
226.70,5.49,3.78,5.48,3.77,-3.77,-3.64,-3.87,1.72,1.71,1.71
228.96,5.41,3.72,5.41,3.73,-3.74,-3.61,-3.88,1.67,1.68,1.69
231.25,5.35,3.69,5.36,3.69,-3.70,-3.58,-3.90,1.65,1.65,1.66
233.57,5.31,3.67,5.30,3.67,-3.67,-3.55,-3.91,1.64,1.64,1.64
235.90,5.26,3.65,5.25,3.64,-3.63,-3.53,-3.91,1.63,1.62,1.61
238.26,5.20,3.61,5.20,3.60,-3.60,-3.50,-3.91,1.60,1.60,1.59
240.64,5.14,3.56,5.14,3.56,-3.56,-3.47,-3.91,1.57,1.57,1.58
243.05,5.08,3.52,5.08,3.52,-3.53,-3.43,-3.90,1.55,1.55,1.56
245.48,5.03,3.49,5.03,3.49,-3.49,-3.40,-3.89,1.54,1.54,1.54
247.93,4.98,3.46,4.98,3.45,-3.45,-3.37,-3.87,1.52,1.52,1.52
250.41,4.93,3.42,4.93,3.42,-3.41,-3.34,-3.85,1.51,1.52,1.51
252.92,4.88,3.38,4.87,3.38,-3.37,-3.30,-3.82,1.51,1.50,1.50
255.45,4.82,3.34,4.81,3.33,-3.33,-3.27,-3.78,1.49,1.48,1.48
258.00,4.75,3.28,4.75,3.28,-3.29,-3.23,-3.75,1.46,1.47,1.47
260.58,4.70,3.24,4.70,3.24,-3.24,-3.19,-3.70,1.45,1.46,1.46
263.19,4.65,3.20,4.65,3.20,-3.20,-3.15,-3.65,1.45,1.45,1.45
265.82,4.61,3.17,4.59,3.15,-3.15,-3.11,-3.60,1.46,1.44,1.44
268.48,4.53,3.10,4.53,3.10,-3.10,-3.07,-3.54,1.42,1.43,1.43
271.16,4.47,3.05,4.47,3.05,-3.06,-3.03,-3.48,1.41,1.42,1.42
273.87,4.42,3.01,4.41,3.00,-3.00,-2.99,-3.41,1.41,1.41,1.41
276.61,4.36,2.96,4.36,2.96,-2.95,-2.95,-3.34,1.41,1.40,1.40
279.38,4.30,2.91,4.30,2.91,-2.90,-2.90,-3.27,1.40,1.40,1.39
282.17,4.24,2.85,4.24,2.85,-2.84,-2.86,-3.19,1.39,1.39,1.39
284.99,4.18,2.79,4.18,2.79,-2.79,-2.81,-3.11,1.39,1.39,1.39
287.84,4.12,2.73,4.11,2.73,-2.74,-2.77,-3.03,1.38,1.38,1.39
290.72,4.05,2.67,4.05,2.67,-2.68,-2.72,-2.95,1.37,1.38,1.38
293.63,4.00,2.62,4.00,2.62,-2.62,-2.67,-2.86,1.38,1.38,1.38
296.57,3.96,2.58,3.95,2.57,-2.56,-2.62,-2.78,1.39,1.39,1.38
299.53,3.91,2.53,3.89,2.51,-2.51,-2.57,-2.69,1.40,1.39,1.38
302.53,3.82,2.44,3.83,2.45,-2.45,-2.52,-2.61,1.37,1.38,1.38
305.55,3.77,2.39,3.77,2.39,-2.39,-2.47,-2.52,1.37,1.38,1.38
308.61,3.72,2.34,3.71,2.33,-2.34,-2.41,-2.43,1.38,1.37,1.38
311.69,3.66,2.28,3.66,2.28,-2.28,-2.36,-2.34,1.38,1.38,1.38
314.81,3.60,2.22,3.60,2.22,-2.21,-2.31,-2.26,1.38,1.38,1.38
317.96,3.54,2.16,3.54,2.16,-2.15,-2.25,-2.17,1.38,1.39,1.38
321.14,3.48,2.10,3.48,2.10,-2.09,-2.19,-2.08,1.38,1.38,1.38
324.35,3.42,2.04,3.41,2.03,-2.04,-2.14,-2.00,1.38,1.38,1.38
327.59,3.35,1.96,3.35,1.97,-1.98,-2.08,-1.91,1.37,1.38,1.39
330.87,3.30,1.91,3.30,1.91,-1.92,-2.02,-1.83,1.38,1.38,1.39
334.18,3.26,1.87,3.25,1.86,-1.86,-1.96,-1.74,1.40,1.40,1.39
337.52,3.21,1.82,3.20,1.81,-1.80,-1.90,-1.66,1.41,1.40,1.39
340.90,3.15,1.75,3.14,1.75,-1.74,-1.84,-1.58,1.41,1.41,1.40
344.30,3.07,1.67,3.08,1.68,-1.68,-1.78,-1.49,1.39,1.41,1.40
347.75,3.03,1.62,3.02,1.61,-1.62,-1.72,-1.41,1.41,1.41,1.41
351.23,2.97,1.56,2.96,1.55,-1.55,-1.66,-1.34,1.42,1.41,1.41
354.74,2.90,1.48,2.90,1.48,-1.49,-1.60,-1.26,1.41,1.41,1.42
358.28,2.84,1.42,2.84,1.42,-1.42,-1.54,-1.18,1.41,1.42,1.42
361.87,2.79,1.36,2.79,1.36,-1.36,-1.47,-1.10,1.43,1.43,1.43
365.49,2.75,1.31,2.74,1.30,-1.30,-1.41,-1.03,1.45,1.44,1.44
369.14,2.68,1.24,2.68,1.24,-1.24,-1.34,-0.95,1.44,1.45,1.44
372.83,2.62,1.17,2.62,1.17,-1.18,-1.28,-0.88,1.44,1.45,1.45
376.56,2.57,1.12,2.56,1.11,-1.12,-1.22,-0.81,1.45,1.44,1.45
380.33,2.51,1.05,2.51,1.05,-1.06,-1.15,-0.74,1.45,1.45,1.46
384.13,2.46,1.00,2.46,1.00,-1.00,-1.08,-0.67,1.46,1.47,1.46
387.97,2.42,0.95,2.41,0.94,-0.94,-1.02,-0.60,1.48,1.48,1.47
391.85,2.37,0.89,2.36,0.88,-0.88,-0.95,-0.53,1.49,1.48,1.48
395.77,2.30,0.82,2.30,0.82,-0.82,-0.89,-0.46,1.48,1.49,1.48
399.73,2.24,0.75,2.24,0.75,-0.75,-0.82,-0.39,1.48,1.49,1.49
403.72,2.19,0.69,2.18,0.69,-0.69,-0.75,-0.33,1.50,1.49,1.50
407.76,2.13,0.63,2.13,0.63,-0.63,-0.69,-0.26,1.50,1.50,1.50
411.84,2.08,0.57,2.07,0.56,-0.57,-0.62,-0.20,1.51,1.51,1.51
415.96,2.02,0.50,2.02,0.51,-0.50,-0.55,-0.14,1.51,1.52,1.52
420.12,1.97,0.45,1.97,0.44,-0.44,-0.48,-0.07,1.52,1.52,1.52
424.32,1.92,0.39,1.91,0.38,-0.39,-0.42,-0.01,1.53,1.53,1.53
428.56,1.86,0.32,1.86,0.32,-0.33,-0.35,0.05,1.53,1.54,1.54
432.85,1.81,0.26,1.81,0.27,-0.27,-0.28,0.11,1.54,1.55,1.55
437.18,1.77,0.22,1.76,0.21,-0.21,-0.21,0.16,1.56,1.56,1.55
441.55,1.72,0.16,1.71,0.15,-0.14,-0.15,0.22,1.57,1.57,1.56
445.96,1.66,0.09,1.66,0.09,-0.08,-0.08,0.28,1.58,1.58,1.57
450.42,1.60,0.02,1.60,0.02,-0.02,-0.01,0.33,1.58,1.58,1.58
454.93,1.54,-0.05,1.54,-0.05,0.04,0.06,0.38,1.58,1.58,1.59
459.48,1.49,-0.11,1.49,-0.11,0.10,0.12,0.43,1.59,1.59,1.60
464.07,1.45,-0.16,1.44,-0.17,0.16,0.19,0.48,1.61,1.61,1.61
468.71,1.40,-0.22,1.40,-0.22,0.22,0.26,0.53,1.62,1.62,1.62
473.40,1.35,-0.28,1.35,-0.28,0.28,0.33,0.58,1.63,1.64,1.63
478.13,1.30,-0.34,1.30,-0.34,0.34,0.39,0.62,1.64,1.64,1.64
482.91,1.26,-0.39,1.25,-0.40,0.40,0.46,0.67,1.66,1.65,1.65
487.74,1.19,-0.47,1.20,-0.46,0.46,0.52,0.71,1.65,1.66,1.66
492.62,1.15,-0.52,1.14,-0.52,0.53,0.59,0.75,1.67,1.67,1.67
497.55,1.09,-0.59,1.09,-0.59,0.59,0.66,0.79,1.68,1.68,1.68
502.52,1.05,-0.64,1.04,-0.65,0.65,0.72,0.83,1.70,1.69,1.69
507.55,0.99,-0.72,0.99,-0.71,0.71,0.79,0.86,1.70,1.71,1.71
512.62,0.95,-0.77,0.95,-0.77,0.77,0.85,0.89,1.72,1.72,1.72
517.75,0.90,-0.83,0.89,-0.84,0.83,0.92,0.93,1.73,1.73,1.73
