frequency,raw,error,smoothed,error_smoothed,equalization,parametric_eq,fixed_band_eq,equalized_raw,equalized_smoothed,target
20.00,-1.57,-7.95,-1.58,-7.95,7.96,7.51,2.84,6.39,6.39,6.38
20.20,-1.48,-7.91,-1.48,-7.90,7.91,7.49,2.92,6.43,6.43,6.43
20.40,-1.38,-7.86,-1.38,-7.85,7.85,7.47,3.00,6.47,6.47,6.48
20.61,-1.29,-7.80,-1.29,-7.80,7.80,7.44,3.08,6.50,6.51,6.50
20.81,-1.19,-7.75,-1.20,-7.75,7.74,7.42,3.17,6.55,6.54,6.56
21.02,-1.10,-7.70,-1.10,-7.69,7.68,7.39,3.26,6.58,6.58,6.60
21.23,-1.02,-7.64,-1.02,-7.64,7.63,7.37,3.35,6.60,6.61,6.62
21.44,-0.93,-7.57,-0.93,-7.57,7.57,7.34,3.44,6.64,6.63,6.64
21.66,-0.85,-7.51,-0.85,-7.50,7.51,7.31,3.54,6.65,6.66,6.66
21.87,-0.76,-7.43,-0.77,-7.44,7.45,7.29,3.64,6.68,6.68,6.67
22.09,-0.69,-7.38,-0.69,-7.38,7.39,7.26,3.74,6.69,6.69,6.69
22.31,-0.63,-7.33,-0.63,-7.33,7.33,7.23,3.84,6.70,6.69,6.70
22.54,-0.58,-7.28,-0.58,-7.28,7.27,7.19,3.95,6.69,6.69,6.70
22.76,-0.53,-7.23,-0.53,-7.22,7.22,7.16,4.06,6.69,6.69,6.70
22.99,-0.47,-7.16,-0.48,-7.16,7.17,7.13,4.17,6.70,6.70,6.69
23.22,-0.42,-7.11,-0.42,-7.11,7.12,7.10,4.29,6.70,6.70,6.69
23.45,-0.37,-7.06,-0.38,-7.06,7.06,7.06,4.40,6.69,6.69,6.69
23.69,-0.32,-7.02,-0.32,-7.02,7.00,7.03,4.52,6.68,6.67,6.70
23.92,-0.27,-6.97,-0.26,-6.96,6.93,6.99,4.65,6.66,6.67,6.70
24.16,-0.18,-6.88,-0.18,-6.88,6.85,6.95,4.77,6.67,6.67,6.70
24.40,-0.09,-6.80,-0.09,-6.79,6.78,6.92,4.90,6.69,6.69,6.71
24.65,0.01,-6.69,0.01,-6.69,6.71,6.88,5.02,6.71,6.72,6.70
24.89,0.11,-6.59,0.10,-6.60,6.63,6.84,5.15,6.74,6.73,6.70
25.14,0.17,-6.53,0.17,-6.53,6.56,6.80,5.28,6.73,6.73,6.70
25.39,0.22,-6.49,0.22,-6.48,6.50,6.76,5.41,6.71,6.71,6.71
25.65,0.26,-6.45,0.26,-6.44,6.44,6.72,5.55,6.69,6.70,6.71
25.91,0.30,-6.40,0.30,-6.40,6.38,6.67,5.68,6.68,6.69,6.70
26.16,0.35,-6.35,0.35,-6.35,6.34,6.63,5.81,6.69,6.69,6.70
26.43,0.41,-6.29,0.40,-6.29,6.29,6.59,5.94,6.70,6.69,6.70
26.69,0.46,-6.24,0.46,-6.24,6.24,6.54,6.07,6.69,6.69,6.70
26.96,0.51,-6.19,0.51,-6.19,6.18,6.50,6.20,6.69,6.69,6.70
27.23,0.57,-6.13,0.57,-6.13,6.12,6.45,6.32,6.69,6.69,6.70
27.50,0.63,-6.07,0.63,-6.07,6.06,6.41,6.44,6.69,6.69,6.70
27.77,0.69,-6.00,0.69,-6.00,6.00,6.36,6.56,6.69,6.69,6.69
28.05,0.75,-5.94,0.75,-5.93,5.94,6.31,6.67,6.69,6.69,6.69
28.33,0.81,-5.87,0.81,-5.87,5.88,6.27,6.77,6.69,6.69,6.68
28.62,0.86,-5.82,0.86,-5.82,5.83,6.22,6.87,6.69,6.69,6.68
28.90,0.92,-5.77,0.91,-5.77,5.78,6.17,6.96,6.70,6.69,6.69
29.19,0.96,-5.72,0.96,-5.72,5.73,6.12,7.04,6.68,6.68,6.68
29.48,1.00,-5.69,0.99,-5.69,5.68,6.07,7.11,6.67,6.67,6.69
29.78,1.03,-5.65,1.03,-5.65,5.63,6.02,7.17,6.66,6.66,6.68
30.08,1.07,-5.62,1.07,-5.61,5.59,5.97,7.22,6.65,6.66,6.69
30.38,1.13,-5.55,1.13,-5.55,5.55,5.92,7.25,6.68,6.68,6.68
30.68,1.19,-5.49,1.19,-5.49,5.51,5.87,7.28,6.70,6.70,6.68
30.99,1.25,-5.43,1.23,-5.44,5.48,5.82,7.29,6.72,6.71,6.68
31.30,1.25,-5.42,1.25,-5.42,5.44,5.76,7.29,6.69,6.68,6.67
31.61,1.25,-5.42,1.25,-5.42,5.40,5.71,7.28,6.65,6.65,6.67
31.93,1.25,-5.42,1.26,-5.40,5.36,5.66,7.26,6.61,6.62,6.67
32.24,1.30,-5.36,1.30,-5.36,5.32,5.60,7.22,6.62,6.63,6.66
32.57,1.36,-5.30,1.36,-5.30,5.29,5.55,7.17,6.65,6.65,6.66
32.89,1.43,-5.23,1.41,-5.24,5.26,5.49,7.11,6.69,6.68,6.66
33.22,1.45,-5.20,1.44,-5.20,5.24,5.44,7.04,6.68,6.68,6.65
33.55,1.45,-5.20,1.45,-5.19,5.21,5.38,6.96,6.66,6.66,6.65
33.89,1.45,-5.19,1.45,-5.19,5.19,5.33,6.87,6.64,6.64,6.64
34.23,1.45,-5.19,1.45,-5.19,5.18,5.27,6.77,6.62,6.62,6.64
34.57,1.45,-5.18,1.45,-5.18,5.17,5.21,6.67,6.62,6.62,6.63
34.92,1.45,-5.18,1.45,-5.17,5.17,5.16,6.56,6.62,6.62,6.63
35.27,1.45,-5.17,1.45,-5.17,5.18,5.10,6.44,6.62,6.62,6.62
35.62,1.45,-5.17,1.45,-5.17,5.18,5.04,6.32,6.62,6.62,6.62
35.97,1.45,-5.17,1.45,-5.17,5.17,4.98,6.19,6.62,6.62,6.62
36.33,1.45,-5.17,1.44,-5.17,5.16,4.93,6.06,6.61,6.61,6.62
36.70,1.45,-5.16,1.45,-5.16,5.15,4.87,5.93,6.60,6.60,6.61
37.06,1.46,-5.15,1.47,-5.14,5.13,4.81,5.80,6.59,6.60,6.61
37.43,1.50,-5.12,1.50,-5.11,5.11,4.75,5.67,6.60,6.60,6.62
37.81,1.54,-5.08,1.53,-5.08,5.08,4.69,5.53,6.62,6.61,6.62
38.19,1.58,-5.03,1.58,-5.04,5.05,4.63,5.40,6.62,6.63,6.61
38.57,1.62,-5.00,1.62,-4.99,5.01,4.57,5.26,6.63,6.63,6.62
38.95,1.67,-4.96,1.66,-4.96,4.97,4.51,5.13,6.64,6.63,6.63
39.34,1.70,-4.92,1.70,-4.92,4.93,4.45,5.00,6.62,6.62,6.62
39.74,1.74,-4.88,1.74,-4.88,4.87,4.39,4.87,6.61,6.61,6.62
40.14,1.78,-4.84,1.78,-4.83,4.81,4.33,4.74,6.59,6.60,6.62
40.54,1.85,-4.77,1.84,-4.77,4.74,4.27,4.61,6.59,6.59,6.62
40.94,1.92,-4.69,1.92,-4.69,4.67,4.21,4.49,6.58,6.59,6.61
41.35,2.01,-4.60,2.01,-4.59,4.58,4.15,4.36,6.59,6.59,6.61
41.76,2.11,-4.49,2.10,-4.49,4.50,4.09,4.24,6.61,6.60,6.60
42.18,2.20,-4.40,2.20,-4.39,4.41,4.02,4.13,6.61,6.62,6.60
42.60,2.29,-4.30,2.29,-4.30,4.33,3.96,4.01,6.62,6.62,6.59
43.03,2.37,-4.21,2.35,-4.23,4.26,3.90,3.90,6.63,6.61,6.58
43.46,2.39,-4.18,2.39,-4.17,4.19,3.84,3.79,6.58,6.58,6.57
43.90,2.41,-4.14,2.42,-4.12,4.12,3.77,3.68,6.53,6.54,6.55
44.33,2.46,-4.07,2.46,-4.07,4.05,3.71,3.57,6.51,6.50,6.53
44.78,2.51,-4.00,2.51,-4.00,3.97,3.65,3.47,6.48,6.48,6.51
45.23,2.58,-3.92,2.57,-3.92,3.89,3.59,3.37,6.47,6.47,6.50
45.68,2.65,-3.84,2.65,-3.83,3.81,3.52,3.28,6.46,6.46,6.49
46.13,2.74,-3.73,2.75,-3.72,3.72,3.46,3.18,6.46,6.48,6.47
46.60,2.86,-3.61,2.85,-3.60,3.64,3.40,3.09,6.49,6.49,6.47
47.06,2.97,-3.48,2.94,-3.50,3.54,3.33,3.00,6.51,6.49,6.45
47.53,3.01,-3.43,3.01,-3.43,3.45,3.27,2.91,6.46,6.47,6.44
48.01,3.06,-3.38,3.06,-3.37,3.36,3.20,2.83,6.42,6.42,6.44
48.49,3.11,-3.31,3.10,-3.31,3.27,3.14,2.74,6.38,6.38,6.42
48.97,3.16,-3.24,3.18,-3.21,3.19,3.08,2.66,6.35,6.37,6.40
49.46,3.27,-3.11,3.27,-3.10,3.10,3.01,2.59,6.37,6.38,6.38
49.96,3.39,-2.97,3.35,-3.01,3.02,2.95,2.51,6.41,6.37,6.36
50.46,3.43,-2.92,3.42,-2.92,2.94,2.88,2.44,6.36,6.36,6.35
50.96,3.46,-2.88,3.49,-2.84,2.85,2.82,2.36,6.31,6.34,6.34
51.47,3.55,-2.77,3.56,-2.76,2.77,2.75,2.29,6.32,6.32,6.32
51.99,3.66,-2.65,3.63,-2.68,2.68,2.69,2.22,6.34,6.31,6.31
52.51,3.70,-2.60,3.69,-2.60,2.61,2.62,2.15,6.30,6.30,6.30
53.03,3.73,-2.57,3.74,-2.55,2.53,2.56,2.09,6.26,6.27,6.30
53.56,3.80,-2.48,3.80,-2.48,2.45,2.49,2.02,6.25,6.25,6.28
54.10,3.88,-2.39,3.89,-2.37,2.37,2.42,1.96,6.25,6.26,6.27
54.64,3.99,-2.26,3.97,-2.28,2.30,2.36,1.90,6.28,6.27,6.25
55.18,4.06,-2.19,4.03,-2.21,2.22,2.29,1.84,6.28,6.25,6.25
55.74,4.06,-2.17,4.09,-2.14,2.15,2.23,1.77,6.21,6.24,6.23
56.29,4.12,-2.10,4.14,-2.07,2.08,2.16,1.72,6.20,6.22,6.22
56.86,4.23,-1.98,4.19,-2.01,2.01,2.09,1.66,6.23,6.20,6.21
57.42,4.26,-1.92,4.25,-1.94,1.94,2.03,1.60,6.20,6.19,6.18
58.00,4.26,-1.91,4.30,-1.87,1.87,1.96,1.54,6.13,6.17,6.17
58.58,4.35,-1.81,4.34,-1.81,1.80,1.89,1.48,6.15,6.14,6.16
59.16,4.42,-1.72,4.40,-1.74,1.73,1.83,1.42,6.14,6.12,6.14
59.76,4.45,-1.67,4.46,-1.65,1.65,1.76,1.37,6.10,6.11,6.12
60.35,4.50,-1.58,4.51,-1.57,1.57,1.69,1.31,6.07,6.07,6.08
60.96,4.56,-1.48,4.56,-1.48,1.49,1.62,1.25,6.04,6.05,6.04
61.57,4.62,-1.38,4.61,-1.39,1.40,1.56,1.20,6.02,6.01,6.00
62.18,4.66,-1.30,4.64,-1.31,1.31,1.49,1.14,5.97,5.95,5.96
62.80,4.66,-1.25,4.68,-1.23,1.22,1.42,1.08,5.88,5.90,5.91
63.43,4.71,-1.16,4.72,-1.14,1.13,1.35,1.02,5.84,5.85,5.87
64.07,4.78,-1.04,4.77,-1.05,1.05,1.28,0.96,5.83,5.82,5.82
64.71,4.84,-0.94,4.82,-0.95,0.96,1.21,0.91,5.80,5.79,5.78
65.35,4.87,-0.87,4.86,-0.87,0.88,1.15,0.85,5.75,5.74,5.74
66.01,4.87,-0.82,4.89,-0.79,0.80,1.08,0.79,5.67,5.69,5.69
66.67,4.93,-0.71,4.91,-0.72,0.72,1.01,0.73,5.64,5.63,5.64
67.33,4.96,-0.63,4.95,-0.64,0.63,0.94,0.67,5.59,5.58,5.59
68.01,4.97,-0.58,4.99,-0.55,0.55,0.87,0.61,5.52,5.54,5.55
68.69,5.04,-0.46,5.02,-0.47,0.47,0.80,0.55,5.51,5.49,5.50
69.37,5.07,-0.38,5.06,-0.39,0.38,0.73,0.49,5.45,5.44,5.45
70.07,5.08,-0.32,5.10,-0.30,0.30,0.66,0.43,5.37,5.40,5.40
70.77,5.15,-0.20,5.13,-0.22,0.21,0.59,0.36,5.36,5.34,5.35
71.48,5.17,-0.13,5.17,-0.12,0.12,0.52,0.30,5.28,5.28,5.30
72.19,5.19,-0.04,5.21,-0.02,0.03,0.45,0.24,5.21,5.24,5.23
72.91,5.26,0.09,5.24,0.07,-0.06,0.38,0.17,5.19,5.17,5.17
73.64,5.27,0.15,5.26,0.15,-0.15,0.31,0.11,5.12,5.11,5.12
74.38,5.28,0.22,5.29,0.24,-0.24,0.24,0.04,5.04,5.06,5.06
75.12,5.31,0.31,5.32,0.32,-0.32,0.16,-0.02,4.99,5.00,5.00
75.87,5.36,0.42,5.34,0.40,-0.40,0.09,-0.09,4.96,4.95,4.94
76.63,5.37,0.48,5.36,0.48,-0.47,0.02,-0.16,4.90,4.89,4.89
77.40,5.37,0.53,5.38,0.54,-0.55,-0.05,-0.22,4.82,4.83,4.84
78.17,5.38,0.60,5.40,0.61,-0.62,-0.12,-0.29,4.75,4.77,4.78
78.95,5.44,0.70,5.42,0.69,-0.70,-0.20,-0.36,4.74,4.72,4.74
79.74,5.46,0.77,5.45,0.76,-0.78,-0.27,-0.43,4.68,4.67,4.69
80.54,5.47,0.83,5.48,0.85,-0.85,-0.34,-0.50,4.62,4.63,4.64
81.35,5.50,0.91,5.51,0.93,-0.92,-0.41,-0.57,4.58,4.59,4.59
82.16,5.57,1.03,5.54,1.01,-0.98,-0.49,-0.64,4.58,4.56,4.54
82.98,5.57,1.07,5.57,1.08,-1.04,-0.56,-0.72,4.52,4.52,4.50
83.81,5.57,1.12,5.57,1.13,-1.11,-0.63,-0.79,4.46,4.47,4.45
84.65,5.57,1.17,5.57,1.17,-1.17,-0.70,-0.86,4.40,4.39,4.40
85.50,5.57,1.21,5.56,1.21,-1.24,-0.78,-0.94,4.33,4.32,4.36
86.35,5.57,1.26,5.57,1.27,-1.31,-0.85,-1.02,4.25,4.26,4.31
87.22,5.59,1.33,5.61,1.35,-1.39,-0.92,-1.09,4.20,4.22,4.26
88.09,5.68,1.47,5.67,1.46,-1.47,-1.00,-1.17,4.21,4.20,4.21
88.97,5.74,1.59,5.73,1.58,-1.55,-1.07,-1.25,4.19,4.18,4.15
89.86,5.77,1.67,5.77,1.67,-1.63,-1.15,-1.33,4.14,4.14,4.10
90.76,5.78,1.73,5.78,1.73,-1.71,-1.22,-1.41,4.07,4.07,4.05
91.66,5.78,1.78,5.78,1.79,-1.78,-1.29,-1.50,4.00,4.00,4.00
92.58,5.78,1.84,5.78,1.84,-1.84,-1.37,-1.58,3.93,3.93,3.94
93.51,5.78,1.89,5.78,1.89,-1.89,-1.44,-1.66,3.88,3.88,3.89
94.44,5.78,1.93,5.78,1.94,-1.94,-1.51,-1.75,3.84,3.84,3.85
95.39,5.78,1.98,5.78,1.98,-1.98,-1.59,-1.84,3.80,3.80,3.80
96.34,5.77,2.02,5.77,2.03,-2.02,-1.66,-1.92,3.75,3.75,3.75
97.30,5.77,2.07,5.76,2.07,-2.07,-1.73,-2.01,3.70,3.69,3.70
98.28,5.76,2.11,5.75,2.10,-2.13,-1.81,-2.10,3.63,3.62,3.65
99.26,5.75,2.14,5.76,2.16,-2.19,-1.88,-2.19,3.56,3.57,3.61
100.25,5.78,2.22,5.78,2.23,-2.25,-1.95,-2.28,3.52,3.53,3.56
101.25,5.83,2.32,5.82,2.32,-2.31,-2.02,-2.37,3.51,3.51,3.51
102.27,5.87,2.41,5.86,2.40,-2.37,-2.10,-2.46,3.49,3.49,3.46
103.29,5.88,2.47,5.87,2.47,-2.43,-2.17,-2.55,3.45,3.44,3.41
104.32,5.87,2.50,5.87,2.50,-2.48,-2.24,-2.63,3.39,3.39,3.37
105.37,5.84,2.52,5.84,2.53,-2.53,-2.31,-2.72,3.31,3.32,3.32
106.42,5.82,2.55,5.82,2.55,-2.56,-2.38,-2.81,3.26,3.25,3.27
107.48,5.79,2.58,5.79,2.58,-2.59,-2.45,-2.90,3.20,3.20,3.21
108.56,5.77,2.61,5.77,2.61,-2.62,-2.52,-2.98,3.15,3.15,3.16
109.64,5.75,2.64,5.75,2.64,-2.65,-2.59,-3.06,3.10,3.10,3.11
110.74,5.73,2.68,5.73,2.67,-2.68,-2.66,-3.14,3.05,3.05,3.05
111.85,5.71,2.70,5.71,2.71,-2.72,-2.72,-3.22,2.99,2.99,3.01
112.97,5.70,2.75,5.70,2.75,-2.76,-2.79,-3.29,2.94,2.94,2.95
114.10,5.70,2.80,5.69,2.80,-2.80,-2.85,-3.37,2.90,2.89,2.90
115.24,5.69,2.84,5.69,2.85,-2.85,-2.92,-3.43,2.84,2.85,2.85
116.39,5.70,2.90,5.69,2.90,-2.89,-2.98,-3.50,2.81,2.80,2.80
117.55,5.70,2.94,5.70,2.94,-2.94,-3.04,-3.55,2.76,2.76,2.76
118.73,5.70,2.98,5.70,2.98,-2.98,-3.11,-3.61,2.72,2.72,2.72
119.92,5.71,3.02,5.71,3.03,-3.03,-3.17,-3.66,2.68,2.68,2.69
121.12,5.72,3.07,5.72,3.07,-3.07,-3.22,-3.70,2.65,2.65,2.65
122.33,5.73,3.11,5.72,3.11,-3.11,-3.28,-3.74,2.62,2.62,2.62
123.55,5.73,3.14,5.73,3.15,-3.15,-3.34,-3.77,2.58,2.58,2.59
124.79,5.74,3.18,5.74,3.18,-3.19,-3.39,-3.80,2.54,2.54,2.56
126.03,5.75,3.22,5.75,3.22,-3.23,-3.44,-3.82,2.51,2.51,2.53
127.29,5.76,3.25,5.76,3.26,-3.26,-3.50,-3.84,2.49,2.49,2.51
128.57,5.76,3.29,5.77,3.30,-3.28,-3.55,-3.85,2.47,2.48,2.47
129.85,5.77,3.33,5.77,3.34,-3.30,-3.59,-3.85,2.47,2.48,2.44
131.15,5.77,3.36,5.75,3.35,-3.31,-3.64,-3.85,2.46,2.45,2.41
132.46,5.73,3.35,5.70,3.33,-3.31,-3.68,-3.85,2.42,2.39,2.38
133.79,5.62,3.27,5.64,3.30,-3.32,-3.73,-3.84,2.30,2.33,2.35
135.12,5.58,3.26,5.60,3.28,-3.32,-3.77,-3.82,2.26,2.28,2.32
136.48,5.59,3.29,5.58,3.29,-3.32,-3.80,-3.81,2.26,2.25,2.30
137.84,5.59,3.33,5.58,3.33,-3.33,-3.84,-3.78,2.25,2.25,2.26
139.22,5.59,3.36,5.59,3.36,-3.35,-3.87,-3.76,2.24,2.24,2.23
140.61,5.59,3.39,5.59,3.39,-3.37,-3.91,-3.73,2.22,2.22,2.20
142.02,5.59,3.41,5.59,3.42,-3.40,-3.94,-3.70,2.18,2.18,2.18
143.44,5.59,3.44,5.59,3.45,-3.44,-3.96,-3.67,2.15,2.15,2.15
144.87,5.59,3.48,5.59,3.48,-3.48,-3.99,-3.64,2.10,2.10,2.11
146.32,5.59,3.52,5.59,3.52,-3.53,-4.01,-3.61,2.06,2.06,2.07
147.78,5.59,3.55,5.59,3.56,-3.57,-4.03,-3.57,2.01,2.01,2.04
149.26,5.59,3.60,5.59,3.60,-3.62,-4.05,-3.54,1.96,1.96,1.99
150.75,5.59,3.66,5.59,3.67,-3.67,-4.06,-3.51,1.91,1.92,1.93
152.26,5.59,3.73,5.59,3.73,-3.72,-4.08,-3.47,1.86,1.87,1.86
153.78,5.59,3.80,5.58,3.79,-3.77,-4.09,-3.44,1.82,1.81,1.79
155.32,5.54,3.82,5.54,3.83,-3.81,-4.10,-3.41,1.73,1.73,1.72
156.88,5.49,3.85,5.49,3.85,-3.84,-4.10,-3.38,1.65,1.65,1.64
158.44,5.42,3.86,5.43,3.87,-3.86,-4.10,-3.35,1.56,1.57,1.56
160.03,5.37,3.89,5.36,3.88,-3.88,-4.11,-3.32,1.49,1.48,1.48
161.63,5.30,3.89,5.29,3.89,-3.90,-4.10,-3.29,1.40,1.40,1.41
163.24,5.23,3.88,5.24,3.89,-3.91,-4.10,-3.27,1.32,1.33,1.35
164.88,5.19,3.89,5.20,3.90,-3.93,-4.10,-3.25,1.26,1.27,1.30
166.53,5.18,3.93,5.18,3.93,-3.94,-4.09,-3.23,1.23,1.23,1.25
168.19,5.18,3.97,5.17,3.97,-3.96,-4.08,-3.21,1.22,1.21,1.21
169.87,5.17,4.00,5.17,4.00,-3.98,-4.06,-3.19,1.19,1.19,1.17
171.57,5.16,4.01,5.16,4.01,-4.00,-4.05,-3.18,1.16,1.16,1.15
173.29,5.16,4.02,5.15,4.02,-4.01,-4.03,-3.17,1.14,1.14,1.14
175.02,5.15,4.02,5.15,4.03,-4.03,-4.02,-3.16,1.12,1.12,1.13
176.77,5.15,4.03,5.15,4.03,-4.04,-4.00,-3.16,1.11,1.11,1.12
178.54,5.15,4.04,5.15,4.03,-4.05,-3.97,-3.15,1.10,1.10,1.11
180.32,5.15,4.03,5.15,4.04,-4.05,-3.95,-3.15,1.10,1.10,1.12
182.13,5.16,4.03,5.16,4.04,-4.04,-3.92,-3.16,1.12,1.12,1.13
183.95,5.17,4.05,5.18,4.06,-4.04,-3.90,-3.16,1.13,1.14,1.12
185.79,5.18,4.06,5.17,4.06,-4.03,-3.87,-3.17,1.15,1.14,1.12
187.65,5.17,4.07,5.14,4.04,-4.03,-3.84,-3.18,1.14,1.11,1.10
189.52,5.07,3.98,5.09,4.00,-4.02,-3.81,-3.19,1.05,1.07,1.09
191.42,5.03,3.96,5.05,3.98,-4.02,-3.77,-3.20,1.01,1.03,1.07
193.33,5.03,3.98,5.03,3.98,-4.01,-3.74,-3.22,1.02,1.02,1.05
195.27,5.05,4.02,5.03,4.01,-4.00,-3.70,-3.24,1.05,1.03,1.03
197.22,5.04,4.03,5.03,4.02,-4.00,-3.67,-3.26,1.04,1.03,1.01
199.19,4.99,4.00,5.00,4.02,-4.00,-3.63,-3.28,0.99,1.00,0.99
201.18,4.97,4.00,4.96,3.99,-4.00,-3.59,-3.30,0.97,0.96,0.97
203.19,4.92,3.97,4.92,3.97,-4.00,-3.55,-3.33,0.92,0.92,0.95
205.23,4.89,3.96,4.90,3.97,-3.99,-3.51,-3.35,0.90,0.91,0.93
207.28,4.89,3.97,4.89,3.98,-3.97,-3.47,-3.38,0.91,0.92,0.92
209.35,4.89,3.99,4.88,3.99,-3.95,-3.43,-3.40,0.93,0.92,0.90
211.44,4.87,4.00,4.83,3.96,-3.94,-3.39,-3.43,0.93,0.90,0.87
213.56,4.75,3.89,4.76,3.91,-3.91,-3.35,-3.46,0.83,0.85,0.86
215.69,4.68,3.83,4.71,3.86,-3.89,-3.30,-3.48,0.79,0.82,0.85
217.85,4.67,3.83,4.67,3.83,-3.86,-3.26,-3.51,0.81,0.81,0.84
220.03,4.67,3.84,4.65,3.83,-3.83,-3.21,-3.53,0.84,0.83,0.83
222.23,4.63,3.83,4.62,3.81,-3.79,-3.17,-3.56,0.84,0.83,0.80
224.45,4.57,3.76,4.56,3.76,-3.75,-3.12,-3.58,0.82,0.81,0.81
226.70,4.50,3.69,4.51,3.71,-3.71,-3.08,-3.60,0.78,0.80,0.81
228.96,4.47,3.65,4.48,3.67,-3.67,-3.03,-3.61,0.79,0.81,0.82
231.25,4.47,3.64,4.46,3.64,-3.63,-2.99,-3.63,0.84,0.83,0.83
233.57,4.47,3.63,4.43,3.59,-3.59,-2.94,-3.64,0.88,0.84,0.84
235.90,4.37,3.52,4.38,3.54,-3.54,-2.90,-3.65,0.83,0.84,0.85
238.26,4.32,3.46,4.35,3.48,-3.50,-2.85,-3.65,0.82,0.85,0.86
240.64,4.33,3.44,4.32,3.44,-3.45,-2.81,-3.65,0.87,0.87,0.89
243.05,4.34,3.42,4.32,3.41,-3.41,-2.76,-3.64,0.93,0.91,0.92
245.48,4.30,3.36,4.31,3.37,-3.36,-2.71,-3.63,0.94,0.96,0.94
247.93,4.29,3.32,4.29,3.33,-3.31,-2.67,-3.62,0.98,0.98,0.97
250.41,4.27,3.28,4.25,3.27,-3.26,-2.62,-3.60,1.01,0.99,0.99
252.92,4.22,3.20,4.22,3.20,-3.22,-2.58,-3.57,1.00,1.00,1.02
255.45,4.17,3.13,4.18,3.15,-3.17,-2.53,-3.54,1.00,1.01,1.04
258.00,4.15,3.09,4.16,3.10,-3.12,-2.49,-3.51,1.03,1.04,1.06
260.58,4.15,3.07,4.14,3.06,-3.06,-2.44,-3.47,1.09,1.08,1.08
263.19,4.14,3.03,4.12,3.02,-3.00,-2.40,-3.43,1.14,1.12,1.11
265.82,4.07,2.94,4.07,2.95,-2.93,-2.35,-3.38,1.14,1.14,1.13
268.48,4.01,2.86,4.02,2.87,-2.86,-2.31,-3.33,1.15,1.16,1.15
271.16,3.96,2.78,3.97,2.79,-2.79,-2.26,-3.27,1.17,1.18,1.18
273.87,3.94,2.74,3.91,2.71,-2.71,-2.22,-3.21,1.23,1.20,1.20
276.61,3.84,2.61,3.84,2.61,-2.63,-2.18,-3.15,1.21,1.21,1.23
279.38,3.76,2.50,3.78,2.53,-2.56,-2.13,-3.09,1.20,1.23,1.26
282.17,3.74,2.46,3.74,2.46,-2.48,-2.09,-3.02,1.26,1.26,1.28
284.99,3.74,2.42,3.72,2.41,-2.41,-2.05,-2.95,1.33,1.31,1.32
287.84,3.70,2.36,3.69,2.35,-2.34,-2.01,-2.88,1.36,1.35,1.34
290.72,3.66,2.29,3.65,2.29,-2.27,-1.96,-2.80,1.39,1.38,1.37
293.63,3.58,2.18,3.61,2.21,-2.21,-1.92,-2.73,1.37,1.40,1.40
296.57,3.59,2.16,3.56,2.14,-2.14,-1.88,-2.65,1.45,1.42,1.43
299.53,3.52,2.06,3.52,2.06,-2.08,-1.84,-2.57,1.44,1.44,1.46
302.53,3.48,2.00,3.48,2.00,-2.01,-1.80,-2.50,1.47,1.48,1.48
305.55,3.43,1.91,3.44,1.93,-1.93,-1.76,-2.42,1.49,1.51,1.52
308.61,3.43,1.89,3.41,1.87,-1.86,-1.72,-2.34,1.57,1.55,1.54
311.69,3.38,1.81,3.37,1.81,-1.79,-1.68,-2.26,1.59,1.58,1.57
314.81,3.32,1.73,3.32,1.74,-1.73,-1.64,-2.19,1.59,1.59,1.59
317.96,3.26,1.65,3.25,1.65,-1.66,-1.60,-2.11,1.59,1.59,1.61
321.14,3.19,1.57,3.20,1.58,-1.60,-1.56,-2.03,1.58,1.59,1.62
324.35,3.15,1.51,3.16,1.53,-1.54,-1.52,-1.96,1.60,1.62,1.64
327.59,3.14,1.49,3.13,1.49,-1.49,-1.48,-1.88,1.65,1.65,1.65
330.87,3.13,1.47,3.11,1.45,-1.43,-1.44,-1.81,1.70,1.68,1.66
334.18,3.06,1.38,3.06,1.39,-1.38,-1.40,-1.73,1.68,1.69,1.68
337.52,3.01,1.32,3.01,1.33,-1.32,-1.37,-1.66,1.69,1.69,1.69
340.90,2.95,1.25,2.96,1.26,-1.27,-1.33,-1.59,1.68,1.69,1.70
344.30,2.93,1.22,2.92,1.21,-1.21,-1.29,-1.52,1.72,1.71,1.71
347.75,2.87,1.16,2.87,1.16,-1.15,-1.25,-1.45,1.72,1.72,1.71
351.23,2.82,1.10,2.82,1.11,-1.10,-1.22,-1.38,1.72,1.72,1.72
354.74,2.76,1.05,2.75,1.04,-1.05,-1.18,-1.32,1.70,1.70,1.71
358.28,2.69,0.97,2.69,0.98,-1.01,-1.14,-1.25,1.68,1.68,1.72
361.87,2.65,0.93,2.66,0.95,-0.97,-1.11,-1.18,1.68,1.70,1.72
365.49,2.65,0.92,2.65,0.93,-0.93,-1.07,-1.12,1.72,1.73,1.73
369.14,2.66,0.94,2.63,0.92,-0.89,-1.03,-1.06,1.77,1.75,1.72
372.83,2.62,0.90,2.59,0.88,-0.85,-1.00,-1.00,1.77,1.74,1.72
376.56,2.51,0.80,2.54,0.83,-0.82,-0.96,-0.94,1.69,1.72,1.71
380.33,2.48,0.76,2.48,0.77,-0.79,-0.92,-0.88,1.69,1.69,1.72
384.13,2.46,0.74,2.44,0.73,-0.76,-0.89,-0.82,1.70,1.68,1.72
387.97,2.41,0.70,2.42,0.71,-0.73,-0.85,-0.76,1.68,1.69,1.71
391.85,2.39,0.69,2.40,0.70,-0.69,-0.82,-0.70,1.70,1.71,1.70
395.77,2.39,0.68,2.38,0.68,-0.66,-0.78,-0.65,1.73,1.72,1.71
399.73,2.35,0.65,2.34,0.65,-0.63,-0.74,-0.59,1.72,1.71,1.70
403.72,2.30,0.60,2.29,0.60,-0.60,-0.71,-0.54,1.70,1.69,1.70
407.76,2.22,0.54,2.23,0.55,-0.56,-0.67,-0.48,1.65,1.67,1.68
411.84,2.18,0.50,2.20,0.52,-0.52,-0.63,-0.43,1.66,1.68,1.68
415.96,2.18,0.50,2.15,0.48,-0.47,-0.59,-0.38,1.71,1.68,1.68
420.12,2.13,0.45,2.11,0.43,-0.42,-0.56,-0.33,1.71,1.69,1.68
424.32,2.03,0.35,2.06,0.38,-0.36,-0.52,-0.28,1.66,1.70,1.68
428.56,2.00,0.31,2.00,0.32,-0.32,-0.48,-0.23,1.68,1.69,1.69
432.85,1.99,0.29,1.95,0.25,-0.27,-0.44,-0.18,1.72,1.68,1.70
437.18,1.90,0.19,1.92,0.20,-0.23,-0.40,-0.13,1.67,1.69,1.71
441.55,1.88,0.13,1.90,0.16,-0.19,-0.36,-0.08,1.69,1.71,1.75
445.96,1.92,0.14,1.91,0.14,-0.15,-0.32,-0.04,1.76,1.76,1.78
450.42,1.97,0.16,1.96,0.14,-0.13,-0.28,0.01,1.84,1.83,1.81
454.93,1.99,0.13,1.98,0.13,-0.11,-0.24,0.05,1.88,1.88,1.86
459.48,2.00,0.10,1.99,0.09,-0.09,-0.19,0.09,1.91,1.90,1.90
464.07,1.98,0.03,2.00,0.05,-0.06,-0.15,0.14,1.91,1.93,1.95
468.71,2.01,0.00,2.02,0.02,-0.03,-0.10,0.18,1.97,1.99,2.01
473.40,2.07,0.02,2.06,0.00,0.00,-0.06,0.22,2.07,2.06,2.05
478.13,2.10,-0.01,2.09,-0.01,0.05,-0.01,0.26,2.15,2.14,2.11
482.91,2.08,-0.07,2.08,-0.07,0.10,0.04,0.30,2.18,2.18,2.15
487.74,2.05,-0.14,2.03,-0.16,0.16,0.09,0.34,2.20,2.19,2.19
492.62,1.97,-0.27,2.00,-0.23,0.21,0.14,0.37,2.18,2.21,2.24
497.55,1.96,-0.30,1.97,-0.28,0.27,0.19,0.41,2.23,2.24,2.26
502.52,1.99,-0.30,1.94,-0.34,0.32,0.25,0.44,2.31,2.27,2.29
507.55,1.91,-0.39,1.91,-0.38,0.38,0.30,0.48,2.29,2.29,2.30
512.62,1.84,-0.47,1.87,-0.44,0.43,0.36,0.51,2.27,2.30,2.31
517.75,1.84,-0.48,1.82,-0.49,0.48,0.42,0.55,2.32,2.30,2.32
522.93,1.78,-0.53,1.77,-0.53,0.53,0.48,0.58,2.31,2.31,2.31
528.16,1.71,-0.57,1.71,-0.57,0.59,0.55,0.61,2.30,2.30,2.28
533.44,1.63,-0.62,1.63,-0.62,0.65,0.61,0.64,2.28,2.28,2.25
538.77,1.52,-0.70,1.51,-0.70,0.72,0.67,0.68,2.24,2.23,2.22
544.16,1.40,-0.77,1.38,-0.78,0.79,0.74,0.71,2.19,2.17,2.17
549.60,1.23,-0.89,1.24,-0.87,0.86,0.81,0.74,2.09,2.10,2.12
555.10,1.11,-0.95,1.11,-0.95,0.93,0.87,0.77,2.04,2.04,2.06
