frequency,raw,error,smoothed,error_smoothed,equalization,parametric_eq,fixed_band_eq,equalized_raw,equalized_smoothed,target
20.00,6.93,3.69,6.93,3.66,-3.66,-3.49,-1.90,3.26,3.26,3.24
20.20,6.97,3.69,6.97,3.67,-3.67,-3.51,-1.95,3.29,3.29,3.28
20.40,7.01,3.69,7.01,3.68,-3.68,-3.53,-2.01,3.33,3.32,3.32
20.61,7.05,3.70,7.05,3.69,-3.69,-3.55,-2.06,3.35,3.35,3.35
20.81,7.08,3.69,7.08,3.70,-3.70,-3.58,-2.12,3.37,3.38,3.39
21.02,7.12,3.69,7.12,3.72,-3.72,-3.60,-2.18,3.40,3.41,3.43
21.23,7.16,3.71,7.16,3.73,-3.73,-3.62,-2.24,3.43,3.43,3.45
21.44,7.20,3.73,7.20,3.75,-3.75,-3.64,-2.31,3.45,3.45,3.47
21.66,7.24,3.75,7.24,3.76,-3.76,-3.67,-2.37,3.47,3.47,3.49
21.87,7.28,3.78,7.27,3.78,-3.78,-3.69,-2.44,3.50,3.49,3.50
22.09,7.32,3.80,7.31,3.80,-3.80,-3.71,-2.51,3.52,3.51,3.52
22.31,7.35,3.82,7.35,3.82,-3.82,-3.73,-2.58,3.53,3.53,3.53
22.54,7.39,3.85,7.38,3.84,-3.84,-3.75,-2.65,3.54,3.54,3.54
22.76,7.42,3.87,7.42,3.87,-3.87,-3.77,-2.72,3.55,3.55,3.55
22.99,7.46,3.91,7.46,3.90,-3.90,-3.79,-2.80,3.56,3.56,3.55
23.22,7.49,3.93,7.49,3.92,-3.92,-3.82,-2.88,3.57,3.57,3.56
23.45,7.52,3.95,7.52,3.95,-3.95,-3.84,-2.95,3.57,3.58,3.57
23.69,7.56,3.98,7.56,3.97,-3.97,-3.86,-3.04,3.59,3.59,3.58
23.92,7.59,4.00,7.59,4.00,-4.00,-3.88,-3.12,3.59,3.59,3.59
24.16,7.62,4.01,7.62,4.02,-4.02,-3.90,-3.20,3.60,3.60,3.61
24.40,7.66,4.03,7.66,4.04,-4.04,-3.92,-3.29,3.62,3.61,3.63
24.65,7.69,4.07,7.69,4.07,-4.07,-3.94,-3.37,3.62,3.62,3.62
24.89,7.73,4.10,7.72,4.09,-4.09,-3.96,-3.46,3.64,3.63,3.63
25.14,7.76,4.12,7.75,4.11,-4.11,-3.98,-3.55,3.65,3.64,3.64
25.39,7.78,4.13,7.78,4.13,-4.13,-4.00,-3.64,3.65,3.65,3.65
25.65,7.81,4.14,7.81,4.15,-4.15,-4.02,-3.72,3.66,3.66,3.67
25.91,7.84,4.17,7.84,4.17,-4.17,-4.03,-3.81,3.67,3.67,3.67
26.16,7.87,4.19,7.87,4.19,-4.19,-4.05,-3.90,3.68,3.68,3.68
26.43,7.90,4.21,7.90,4.21,-4.21,-4.07,-3.99,3.69,3.69,3.69
26.69,7.93,4.23,7.93,4.22,-4.22,-4.09,-4.08,3.70,3.70,3.70
26.96,7.96,4.24,7.95,4.24,-4.24,-4.11,-4.16,3.71,3.71,3.72
27.23,7.98,4.25,7.98,4.26,-4.26,-4.13,-4.25,3.72,3.72,3.73
27.50,8.01,4.28,8.00,4.27,-4.27,-4.15,-4.33,3.73,3.73,3.73
27.77,8.03,4.30,8.03,4.29,-4.29,-4.16,-4.41,3.74,3.74,3.73
28.05,8.05,4.30,8.05,4.30,-4.30,-4.18,-4.49,3.74,3.75,3.75
28.33,8.07,4.32,8.07,4.32,-4.32,-4.20,-4.56,3.75,3.75,3.75
28.62,8.09,4.33,8.09,4.33,-4.33,-4.22,-4.63,3.76,3.76,3.76
28.90,8.11,4.34,8.11,4.34,-4.34,-4.24,-4.70,3.77,3.77,3.77
29.19,8.13,4.36,8.13,4.35,-4.35,-4.25,-4.76,3.78,3.78,3.77
29.48,8.15,4.35,8.14,4.36,-4.36,-4.27,-4.82,3.79,3.78,3.80
29.78,8.17,4.38,8.16,4.37,-4.37,-4.29,-4.87,3.80,3.79,3.79
30.08,8.18,4.38,8.17,4.38,-4.38,-4.30,-4.91,3.80,3.80,3.80
30.38,8.19,4.39,8.19,4.38,-4.38,-4.32,-4.95,3.81,3.80,3.80
30.68,8.20,4.38,8.20,4.38,-4.38,-4.34,-4.99,3.81,3.81,3.82
30.99,8.21,4.39,8.21,4.39,-4.39,-4.35,-5.02,3.82,3.82,3.82
31.30,8.21,4.39,8.21,4.39,-4.39,-4.37,-5.04,3.82,3.83,3.82
31.61,8.22,4.39,8.22,4.39,-4.39,-4.39,-5.06,3.83,3.83,3.83
31.93,8.22,4.38,8.22,4.38,-4.38,-4.40,-5.07,3.84,3.84,3.84
32.24,8.22,4.38,8.23,4.38,-4.38,-4.42,-5.07,3.84,3.85,3.84
32.57,8.23,4.37,8.23,4.37,-4.37,-4.43,-5.07,3.86,3.86,3.86
32.89,8.24,4.38,8.23,4.36,-4.36,-4.45,-5.06,3.87,3.86,3.86
33.22,8.24,4.37,8.23,4.36,-4.36,-4.46,-5.05,3.88,3.87,3.87
33.55,8.23,4.35,8.22,4.35,-4.35,-4.48,-5.03,3.88,3.88,3.88
33.89,8.22,4.33,8.22,4.34,-4.34,-4.50,-5.01,3.88,3.88,3.89
34.23,8.22,4.33,8.22,4.33,-4.33,-4.51,-4.99,3.89,3.89,3.89
34.57,8.21,4.31,8.21,4.32,-4.32,-4.53,-4.96,3.89,3.90,3.90
34.92,8.21,4.31,8.21,4.31,-4.31,-4.54,-4.93,3.90,3.90,3.90
35.27,8.20,4.29,8.20,4.30,-4.30,-4.56,-4.90,3.90,3.91,3.91
35.62,8.20,4.29,8.20,4.29,-4.29,-4.57,-4.86,3.91,3.91,3.91
35.97,8.19,4.28,8.19,4.28,-4.28,-4.58,-4.83,3.91,3.91,3.91
36.33,8.19,4.27,8.18,4.27,-4.27,-4.60,-4.79,3.92,3.91,3.92
36.70,8.18,4.27,8.18,4.26,-4.26,-4.61,-4.75,3.92,3.92,3.91
37.06,8.18,4.26,8.17,4.26,-4.26,-4.63,-4.72,3.92,3.92,3.92
37.43,8.17,4.25,8.17,4.25,-4.25,-4.64,-4.68,3.91,3.92,3.92
37.81,8.16,4.24,8.17,4.25,-4.25,-4.66,-4.64,3.91,3.91,3.92
38.19,8.16,4.24,8.16,4.25,-4.25,-4.67,-4.61,3.91,3.91,3.92
38.57,8.16,4.25,8.16,4.25,-4.25,-4.68,-4.57,3.91,3.91,3.91
38.95,8.16,4.25,8.16,4.25,-4.25,-4.70,-4.54,3.91,3.91,3.91
39.34,8.17,4.27,8.16,4.25,-4.25,-4.71,-4.51,3.91,3.91,3.90
39.74,8.17,4.27,8.16,4.26,-4.26,-4.73,-4.48,3.91,3.90,3.90
40.14,8.18,4.28,8.17,4.27,-4.27,-4.74,-4.45,3.91,3.90,3.90
40.54,8.19,4.29,8.18,4.28,-4.28,-4.75,-4.43,3.91,3.90,3.90
40.94,8.19,4.30,8.19,4.29,-4.29,-4.77,-4.40,3.90,3.90,3.89
41.35,8.20,4.31,8.20,4.31,-4.31,-4.78,-4.38,3.89,3.89,3.89
41.76,8.21,4.32,8.22,4.33,-4.33,-4.79,-4.37,3.87,3.89,3.89
42.18,8.23,4.34,8.25,4.36,-4.36,-4.81,-4.35,3.87,3.89,3.89
42.60,8.26,4.37,8.27,4.39,-4.39,-4.82,-4.34,3.87,3.88,3.89
43.03,8.29,4.40,8.30,4.42,-4.42,-4.84,-4.34,3.86,3.88,3.89
43.46,8.33,4.44,8.34,4.46,-4.46,-4.85,-4.33,3.87,3.88,3.89
43.90,8.37,4.50,8.37,4.50,-4.50,-4.86,-4.33,3.87,3.88,3.87
44.33,8.42,4.55,8.41,4.54,-4.54,-4.88,-4.33,3.88,3.87,3.87
44.78,8.47,4.61,8.45,4.58,-4.58,-4.89,-4.34,3.88,3.87,3.86
45.23,8.51,4.65,8.50,4.63,-4.63,-4.90,-4.35,3.88,3.87,3.86
45.68,8.55,4.69,8.54,4.68,-4.68,-4.92,-4.36,3.87,3.86,3.86
46.13,8.59,4.74,8.59,4.73,-4.73,-4.93,-4.37,3.86,3.86,3.85
46.60,8.63,4.77,8.63,4.78,-4.78,-4.94,-4.39,3.85,3.85,3.86
47.06,8.67,4.82,8.67,4.83,-4.83,-4.96,-4.41,3.84,3.85,3.85
47.53,8.71,4.87,8.71,4.87,-4.87,-4.97,-4.44,3.83,3.84,3.84
48.01,8.75,4.90,8.75,4.92,-4.92,-4.98,-4.47,3.83,3.83,3.85
48.49,8.78,4.95,8.78,4.96,-4.96,-5.00,-4.50,3.82,3.82,3.83
48.97,8.82,5.01,8.81,5.00,-5.00,-5.01,-4.53,3.82,3.81,3.81
49.46,8.84,5.04,8.84,5.04,-5.04,-5.03,-4.57,3.80,3.80,3.80
49.96,8.87,5.09,8.86,5.07,-5.07,-5.04,-4.60,3.80,3.79,3.78
50.46,8.88,5.10,8.87,5.10,-5.10,-5.05,-4.64,3.78,3.77,3.78
50.96,8.90,5.14,8.88,5.13,-5.13,-5.07,-4.69,3.77,3.76,3.76
51.47,8.90,5.17,8.89,5.15,-5.15,-5.08,-4.73,3.75,3.74,3.73
51.99,8.91,5.19,8.89,5.16,-5.16,-5.10,-4.78,3.75,3.73,3.72
52.51,8.89,5.18,8.88,5.17,-5.17,-5.11,-4.82,3.71,3.71,3.71
53.03,8.88,5.19,8.87,5.18,-5.18,-5.12,-4.87,3.70,3.69,3.69
53.56,8.86,5.18,8.86,5.19,-5.19,-5.14,-4.92,3.67,3.67,3.68
54.10,8.84,5.19,8.84,5.19,-5.19,-5.15,-4.97,3.65,3.65,3.65
54.64,8.81,5.17,8.81,5.18,-5.18,-5.17,-5.02,3.63,3.63,3.64
55.18,8.78,5.17,8.79,5.18,-5.18,-5.18,-5.07,3.60,3.61,3.61
55.74,8.75,5.17,8.76,5.17,-5.17,-5.20,-5.12,3.58,3.59,3.58
56.29,8.73,5.15,8.73,5.16,-5.16,-5.21,-5.17,3.57,3.57,3.58
56.86,8.70,5.15,8.70,5.14,-5.14,-5.23,-5.22,3.55,3.55,3.55
57.42,8.67,5.15,8.66,5.13,-5.13,-5.25,-5.26,3.54,3.53,3.52
58.00,8.64,5.14,8.63,5.12,-5.12,-5.26,-5.31,3.51,3.51,3.50
58.58,8.61,5.13,8.60,5.12,-5.12,-5.28,-5.35,3.49,3.48,3.48
59.16,8.58,5.12,8.57,5.11,-5.11,-5.29,-5.39,3.46,3.45,3.46
59.76,8.54,5.10,8.54,5.11,-5.11,-5.31,-5.43,3.42,3.42,3.44
60.35,8.51,5.10,8.51,5.12,-5.12,-5.33,-5.46,3.39,3.40,3.41
60.96,8.47,5.09,8.49,5.12,-5.12,-5.35,-5.50,3.34,3.36,3.38
61.57,8.45,5.12,8.47,5.13,-5.13,-5.36,-5.52,3.31,3.33,3.33
62.18,8.43,5.14,8.45,5.15,-5.15,-5.38,-5.55,3.28,3.30,3.29
62.80,8.42,5.15,8.43,5.17,-5.17,-5.40,-5.57,3.25,3.26,3.27
63.43,8.42,5.20,8.41,5.19,-5.19,-5.42,-5.59,3.23,3.23,3.22
64.07,8.41,5.23,8.40,5.21,-5.21,-5.44,-5.61,3.19,3.19,3.18
64.71,8.41,5.26,8.39,5.24,-5.24,-5.45,-5.62,3.16,3.15,3.15
65.35,8.40,5.29,8.39,5.28,-5.28,-5.47,-5.64,3.12,3.11,3.11
66.01,8.39,5.32,8.39,5.31,-5.31,-5.49,-5.64,3.07,3.07,3.07
66.67,8.39,5.35,8.39,5.36,-5.36,-5.51,-5.65,3.03,3.03,3.04
67.33,8.39,5.39,8.39,5.40,-5.40,-5.54,-5.66,2.99,2.99,3.00
68.01,8.40,5.44,8.40,5.44,-5.44,-5.56,-5.66,2.96,2.96,2.96
68.69,8.41,5.49,8.40,5.49,-5.49,-5.58,-5.66,2.92,2.92,2.92
69.37,8.41,5.53,8.41,5.53,-5.53,-5.60,-5.66,2.87,2.88,2.88
70.07,8.42,5.58,8.42,5.58,-5.58,-5.62,-5.66,2.83,2.84,2.84
70.77,8.44,5.64,8.44,5.63,-5.63,-5.64,-5.66,2.80,2.80,2.80
71.48,8.45,5.68,8.45,5.69,-5.69,-5.67,-5.66,2.76,2.76,2.77
72.19,8.47,5.75,8.47,5.74,-5.74,-5.69,-5.66,2.72,2.73,2.72
72.91,8.49,5.80,8.49,5.80,-5.80,-5.72,-5.66,2.69,2.69,2.69
73.64,8.51,5.86,8.51,5.86,-5.86,-5.74,-5.66,2.65,2.65,2.65
74.38,8.53,5.91,8.53,5.91,-5.91,-5.77,-5.67,2.61,2.62,2.62
75.12,8.55,5.97,8.55,5.97,-5.97,-5.79,-5.67,2.58,2.58,2.58
75.87,8.58,6.03,8.57,6.02,-6.02,-5.82,-5.68,2.56,2.55,2.55
76.63,8.61,6.09,8.60,6.08,-6.08,-5.85,-5.69,2.53,2.52,2.52
77.40,8.63,6.14,8.62,6.13,-6.13,-5.87,-5.70,2.50,2.49,2.49
78.17,8.65,6.19,8.64,6.18,-6.18,-5.90,-5.72,2.47,2.46,2.46
78.95,8.67,6.24,8.67,6.23,-6.23,-5.93,-5.73,2.44,2.43,2.43
79.74,8.69,6.28,8.69,6.28,-6.28,-5.96,-5.76,2.41,2.41,2.41
80.54,8.71,6.32,8.71,6.33,-6.33,-5.99,-5.78,2.38,2.38,2.39
81.35,8.73,6.37,8.73,6.37,-6.37,-6.02,-5.81,2.36,2.36,2.36
82.16,8.75,6.42,8.75,6.41,-6.41,-6.06,-5.84,2.33,2.33,2.33
82.98,8.78,6.46,8.77,6.46,-6.46,-6.09,-5.88,2.32,2.31,2.32
83.81,8.80,6.51,8.79,6.50,-6.50,-6.12,-5.92,2.30,2.29,2.29
84.65,8.82,6.56,8.81,6.55,-6.55,-6.16,-5.97,2.27,2.27,2.26
85.50,8.83,6.58,8.84,6.59,-6.59,-6.19,-6.02,2.24,2.25,2.25
86.35,8.85,6.62,8.86,6.63,-6.63,-6.23,-6.07,2.21,2.23,2.23
87.22,8.88,6.67,8.89,6.68,-6.68,-6.27,-6.13,2.20,2.21,2.21
88.09,8.90,6.71,8.91,6.72,-6.72,-6.31,-6.19,2.18,2.19,2.19
88.97,8.93,6.76,8.94,6.77,-6.77,-6.34,-6.26,2.16,2.17,2.17
89.86,8.96,6.80,8.96,6.81,-6.81,-6.38,-6.34,2.15,2.15,2.16
90.76,8.99,6.86,8.99,6.85,-6.85,-6.43,-6.41,2.13,2.13,2.13
91.66,9.02,6.91,9.01,6.90,-6.90,-6.47,-6.49,2.12,2.12,2.11
92.58,9.04,6.95,9.03,6.93,-6.93,-6.51,-6.58,2.10,2.09,2.09
93.51,9.06,6.98,9.05,6.97,-6.97,-6.55,-6.67,2.09,2.07,2.08
94.44,9.08,7.02,9.06,7.01,-7.01,-6.60,-6.77,2.07,2.05,2.06
95.39,9.09,7.05,9.07,7.04,-7.04,-6.64,-6.87,2.05,2.03,2.04
96.34,9.10,7.09,9.07,7.07,-7.07,-6.69,-6.97,2.03,2.01,2.01
97.30,9.10,7.12,9.07,7.09,-7.09,-6.74,-7.08,2.01,1.98,1.98
98.28,9.09,7.14,9.07,7.12,-7.12,-6.79,-7.19,1.97,1.96,1.95
99.26,9.08,7.15,9.07,7.15,-7.15,-6.84,-7.30,1.93,1.93,1.93
100.25,9.07,7.17,9.08,7.18,-7.18,-6.89,-7.42,1.89,1.90,1.90
101.25,9.06,7.19,9.08,7.21,-7.21,-6.94,-7.54,1.85,1.87,1.87
102.27,9.06,7.23,9.08,7.25,-7.25,-6.99,-7.67,1.81,1.84,1.83
103.29,9.06,7.26,9.09,7.29,-7.29,-7.05,-7.79,1.77,1.80,1.80
104.32,9.06,7.29,9.10,7.34,-7.34,-7.10,-7.92,1.72,1.76,1.77
105.37,9.08,7.35,9.11,7.39,-7.39,-7.16,-8.05,1.69,1.72,1.73
106.42,9.11,7.43,9.13,7.44,-7.44,-7.22,-8.18,1.66,1.68,1.68
107.48,9.14,7.49,9.14,7.51,-7.51,-7.28,-8.30,1.63,1.64,1.65
108.56,9.17,7.58,9.16,7.57,-7.57,-7.34,-8.43,1.59,1.59,1.59
109.64,9.20,7.66,9.18,7.64,-7.64,-7.40,-8.56,1.56,1.54,1.54
110.74,9.22,7.73,9.19,7.71,-7.71,-7.46,-8.68,1.51,1.48,1.49
111.85,9.23,7.79,9.21,7.78,-7.78,-7.52,-8.80,1.45,1.43,1.44
112.97,9.24,7.87,9.22,7.84,-7.84,-7.59,-8.91,1.39,1.37,1.37
114.10,9.24,7.92,9.22,7.90,-7.90,-7.65,-9.02,1.33,1.31,1.32
115.24,9.23,7.97,9.22,7.96,-7.96,-7.72,-9.12,1.27,1.26,1.26
116.39,9.23,8.04,9.21,8.01,-8.01,-7.78,-9.22,1.22,1.20,1.19
117.55,9.22,8.09,9.19,8.05,-8.05,-7.85,-9.30,1.16,1.14,1.13
118.73,9.20,8.13,9.18,8.10,-8.10,-7.92,-9.38,1.10,1.08,1.07
119.92,9.16,8.14,9.16,8.14,-8.14,-7.98,-9.44,1.02,1.02,1.02
121.12,9.13,8.17,9.14,8.18,-8.18,-8.05,-9.50,0.95,0.97,0.96
122.33,9.12,8.21,9.13,8.22,-8.22,-8.12,-9.54,0.90,0.91,0.91
123.55,9.09,8.23,9.11,8.26,-8.26,-8.19,-9.57,0.83,0.86,0.86
124.79,9.06,8.25,9.10,8.30,-8.30,-8.26,-9.58,0.76,0.81,0.81
126.03,9.05,8.29,9.09,8.34,-8.34,-8.33,-9.59,0.71,0.76,0.76
127.29,9.05,8.34,9.09,8.38,-8.38,-8.40,-9.58,0.66,0.70,0.71
128.57,9.06,8.41,9.08,8.43,-8.43,-8.47,-9.55,0.63,0.66,0.65
129.85,9.09,8.48,9.08,8.47,-8.47,-8.54,-9.52,0.62,0.61,0.61
131.15,9.10,8.54,9.07,8.50,-8.50,-8.61,-9.47,0.59,0.57,0.56
132.46,9.10,8.58,9.06,8.54,-8.54,-8.68,-9.42,0.55,0.52,0.52
133.79,9.09,8.61,9.06,8.58,-8.58,-8.74,-9.35,0.51,0.48,0.48
135.12,9.08,8.64,9.05,8.61,-8.61,-8.81,-9.27,0.47,0.44,0.44
136.48,9.07,8.67,9.04,8.64,-8.64,-8.87,-9.19,0.43,0.40,0.40
137.84,9.03,8.67,9.02,8.66,-8.66,-8.94,-9.10,0.36,0.36,0.36
139.22,9.01,8.70,9.00,8.68,-8.68,-9.00,-9.00,0.32,0.32,0.31
140.61,8.98,8.71,8.98,8.70,-8.70,-9.06,-8.90,0.28,0.28,0.27
142.02,8.93,8.68,8.95,8.71,-8.71,-9.12,-8.79,0.22,0.24,0.25
143.44,8.91,8.70,8.92,8.71,-8.71,-9.17,-8.68,0.19,0.21,0.21
144.87,8.87,8.70,8.89,8.72,-8.72,-9.22,-8.57,0.15,0.17,0.17
146.32,8.86,8.73,8.86,8.73,-8.73,-9.27,-8.46,0.13,0.13,0.13
147.78,8.83,8.73,8.83,8.74,-8.74,-9.32,-8.35,0.09,0.09,0.10
149.26,8.81,8.74,8.81,8.75,-8.75,-9.36,-8.23,0.05,0.05,0.07
150.75,8.77,8.76,8.78,8.77,-8.77,-9.39,-8.12,0.00,0.01,0.01
152.26,8.74,8.77,8.75,8.78,-8.78,-9.43,-8.01,-0.04,-0.03,-0.03
153.78,8.71,8.77,8.73,8.80,-8.80,-9.46,-7.91,-0.09,-0.07,-0.06
155.32,8.69,8.81,8.70,8.81,-8.81,-9.48,-7.80,-0.12,-0.11,-0.12
156.88,8.67,8.82,8.67,8.82,-8.82,-9.50,-7.70,-0.16,-0.16,-0.15
158.44,8.66,8.86,8.63,8.83,-8.83,-9.52,-7.61,-0.18,-0.20,-0.20
160.03,8.61,8.86,8.60,8.84,-8.84,-9.53,-7.51,-0.23,-0.25,-0.25
161.63,8.58,8.88,8.56,8.85,-8.85,-9.53,-7.42,-0.27,-0.29,-0.30
163.24,8.54,8.88,8.51,8.85,-8.85,-9.53,-7.34,-0.31,-0.34,-0.34
164.88,8.48,8.86,8.47,8.85,-8.85,-9.52,-7.26,-0.37,-0.38,-0.38
166.53,8.43,8.86,8.42,8.85,-8.85,-9.51,-7.18,-0.42,-0.43,-0.43
168.19,8.38,8.86,8.37,8.85,-8.85,-9.49,-7.11,-0.47,-0.48,-0.48
169.87,8.29,8.82,8.31,8.84,-8.84,-9.47,-7.04,-0.55,-0.53,-0.53
171.57,8.24,8.81,8.25,8.83,-8.83,-9.44,-6.98,-0.60,-0.58,-0.57
173.29,8.19,8.82,8.19,8.82,-8.82,-9.41,-6.93,-0.64,-0.63,-0.63
175.02,8.11,8.79,8.13,8.82,-8.82,-9.37,-6.88,-0.71,-0.69,-0.68
176.77,8.06,8.80,8.07,8.80,-8.80,-9.32,-6.83,-0.75,-0.74,-0.74
178.54,8.01,8.80,8.00,8.80,-8.80,-9.27,-6.79,-0.79,-0.79,-0.79
180.32,7.95,8.80,7.94,8.79,-8.79,-9.22,-6.75,-0.84,-0.85,-0.85
182.13,7.89,8.79,7.87,8.78,-8.78,-9.16,-6.72,-0.89,-0.90,-0.90
183.95,7.79,8.75,7.81,8.77,-8.77,-9.10,-6.70,-0.98,-0.96,-0.96
185.79,7.73,8.74,7.74,8.76,-8.76,-9.03,-6.68,-1.03,-1.02,-1.01
187.65,7.67,8.75,7.67,8.75,-8.75,-8.96,-6.66,-1.08,-1.07,-1.08
189.52,7.61,8.74,7.60,8.73,-8.73,-8.89,-6.65,-1.12,-1.13,-1.13
191.42,7.54,8.72,7.53,8.71,-8.71,-8.82,-6.64,-1.17,-1.18,-1.18
193.33,7.47,8.70,7.46,8.69,-8.69,-8.74,-6.64,-1.22,-1.23,-1.23
195.27,7.38,8.66,7.38,8.66,-8.66,-8.66,-6.64,-1.29,-1.28,-1.28
197.22,7.30,8.64,7.29,8.63,-8.63,-8.58,-6.64,-1.33,-1.34,-1.34
199.19,7.22,8.61,7.21,8.59,-8.59,-8.51,-6.65,-1.38,-1.38,-1.39
201.18,7.14,8.58,7.12,8.56,-8.56,-8.43,-6.67,-1.42,-1.43,-1.44
203.19,7.04,8.51,7.03,8.51,-8.51,-8.35,-6.68,-1.48,-1.48,-1.47
205.23,6.94,8.47,6.94,8.47,-8.47,-8.27,-6.70,-1.53,-1.53,-1.53
207.28,6.85,8.40,6.85,8.42,-8.42,-8.20,-6.72,-1.57,-1.57,-1.55
209.35,6.75,8.36,6.75,8.36,-8.36,-8.13,-6.74,-1.61,-1.61,-1.61
211.44,6.65,8.31,6.65,8.30,-8.30,-8.06,-6.76,-1.65,-1.65,-1.66
213.56,6.53,8.23,6.55,8.24,-8.24,-8.00,-6.78,-1.71,-1.69,-1.70
215.69,6.43,8.15,6.44,8.17,-8.17,-7.94,-6.81,-1.75,-1.73,-1.72
217.85,6.33,8.09,6.34,8.10,-8.10,-7.89,-6.83,-1.78,-1.76,-1.76
220.03,6.25,8.05,6.23,8.03,-8.03,-7.84,-6.86,-1.78,-1.80,-1.80
222.23,6.14,7.97,6.13,7.95,-7.95,-7.79,-6.88,-1.82,-1.83,-1.83
224.45,6.03,7.88,6.02,7.87,-7.87,-7.75,-6.90,-1.85,-1.85,-1.85
226.70,5.91,7.79,5.91,7.79,-7.79,-7.71,-6.91,-1.88,-1.88,-1.88
228.96,5.78,7.69,5.80,7.70,-7.70,-7.67,-6.93,-1.93,-1.90,-1.91
231.25,5.70,7.62,5.69,7.61,-7.61,-7.62,-6.94,-1.91,-1.92,-1.92
233.57,5.58,7.52,5.57,7.51,-7.51,-7.56,-6.94,-1.93,-1.94,-1.94
235.90,5.45,7.40,5.46,7.41,-7.41,-7.49,-6.94,-1.96,-1.95,-1.95
238.26,5.34,7.30,5.34,7.30,-7.30,-7.39,-6.94,-1.96,-1.96,-1.96
240.64,5.21,7.18,5.22,7.18,-7.18,-7.27,-6.93,-1.98,-1.97,-1.97
243.05,5.11,7.08,5.09,7.06,-7.06,-7.13,-6.91,-1.95,-1.97,-1.97
245.48,4.97,6.95,4.96,6.93,-6.93,-6.97,-6.89,-1.96,-1.98,-1.98
247.93,4.81,6.79,4.82,6.80,-6.80,-6.80,-6.86,-1.99,-1.98,-1.98
250.41,4.70,6.68,4.68,6.66,-6.66,-6.61,-6.82,-1.96,-1.98,-1.98
252.92,4.53,6.50,4.54,6.51,-6.51,-6.43,-6.77,-1.98,-1.97,-1.97
255.45,4.41,6.37,4.39,6.35,-6.35,-6.24,-6.72,-1.94,-1.96,-1.96
258.00,4.28,6.23,4.24,6.20,-6.20,-6.06,-6.66,-1.92,-1.96,-1.95
260.58,4.10,6.05,4.09,6.04,-6.04,-5.88,-6.59,-1.94,-1.95,-1.95
263.19,3.95,5.89,3.94,5.87,-5.87,-5.71,-6.52,-1.92,-1.94,-1.94
265.82,3.76,5.69,3.78,5.71,-5.71,-5.55,-6.44,-1.95,-1.93,-1.93
268.48,3.61,5.52,3.62,5.54,-5.54,-5.39,-6.36,-1.93,-1.91,-1.91
271.16,3.46,5.35,3.47,5.37,-5.37,-5.23,-6.26,-1.91,-1.90,-1.89
273.87,3.29,5.18,3.32,5.20,-5.20,-5.08,-6.17,-1.91,-1.89,-1.89
276.61,3.15,5.01,3.16,5.04,-5.04,-4.94,-6.07,-1.89,-1.87,-1.86
279.38,3.01,4.87,3.01,4.87,-4.87,-4.80,-5.97,-1.86,-1.86,-1.86
282.17,2.88,4.72,2.86,4.71,-4.71,-4.67,-5.86,-1.83,-1.85,-1.84
284.99,2.75,4.58,2.71,4.55,-4.55,-4.53,-5.75,-1.80,-1.83,-1.83
287.84,2.56,4.38,2.57,4.39,-4.39,-4.40,-5.64,-1.83,-1.82,-1.82
290.72,2.42,4.23,2.43,4.24,-4.24,-4.28,-5.52,-1.82,-1.80,-1.81
293.63,2.30,4.09,2.30,4.09,-4.09,-4.15,-5.41,-1.79,-1.79,-1.79
296.57,2.16,3.93,2.16,3.94,-3.94,-4.03,-5.29,-1.78,-1.78,-1.77
299.53,2.04,3.81,2.03,3.79,-3.79,-3.90,-5.18,-1.75,-1.76,-1.77
302.53,1.90,3.66,1.90,3.65,-3.65,-3.78,-5.06,-1.75,-1.75,-1.76
305.55,1.76,3.50,1.77,3.51,-3.51,-3.65,-4.95,-1.75,-1.74,-1.74
308.61,1.64,3.37,1.64,3.37,-3.37,-3.53,-4.83,-1.73,-1.73,-1.73
311.69,1.51,3.23,1.51,3.23,-3.23,-3.40,-4.72,-1.72,-1.72,-1.72
314.81,1.41,3.10,1.39,3.10,-3.10,-3.28,-4.61,-1.69,-1.71,-1.69
317.96,1.28,2.98,1.27,2.97,-2.97,-3.15,-4.50,-1.69,-1.70,-1.70
321.14,1.15,2.84,1.15,2.84,-2.84,-3.02,-4.39,-1.70,-1.69,-1.69
324.35,1.03,2.72,1.03,2.72,-2.72,-2.89,-4.28,-1.69,-1.69,-1.69
327.59,0.90,2.58,0.92,2.60,-2.60,-2.75,-4.18,-1.70,-1.68,-1.68
330.87,0.81,2.49,0.81,2.48,-2.48,-2.62,-4.08,-1.68,-1.68,-1.68
334.18,0.71,2.39,0.70,2.37,-2.37,-2.48,-3.98,-1.66,-1.67,-1.68
337.52,0.60,2.27,0.59,2.27,-2.27,-2.34,-3.88,-1.67,-1.67,-1.67
340.90,0.50,2.17,0.49,2.16,-2.16,-2.20,-3.78,-1.67,-1.67,-1.67
344.30,0.39,2.06,0.39,2.07,-2.07,-2.07,-3.69,-1.68,-1.67,-1.67
347.75,0.30,1.97,0.30,1.97,-1.97,-1.93,-3.60,-1.67,-1.67,-1.67
351.23,0.20,1.87,0.20,1.88,-1.88,-1.80,-3.51,-1.68,-1.68,-1.67
354.74,0.12,1.79,0.12,1.79,-1.79,-1.68,-3.43,-1.68,-1.68,-1.67
358.28,0.03,1.72,0.03,1.71,-1.71,-1.57,-3.34,-1.69,-1.68,-1.69
361.87,-0.04,1.65,-0.05,1.63,-1.63,-1.47,-3.26,-1.68,-1.69,-1.69
365.49,-0.12,1.57,-0.13,1.56,-1.56,-1.38,-3.18,-1.68,-1.69,-1.69
369.14,-0.19,1.51,-0.21,1.49,-1.49,-1.31,-3.11,-1.68,-1.70,-1.70
372.83,-0.26,1.44,-0.28,1.43,-1.43,-1.26,-3.04,-1.69,-1.71,-1.70
376.56,-0.33,1.38,-0.34,1.37,-1.37,-1.22,-2.96,-1.71,-1.71,-1.71
380.33,-0.40,1.32,-0.40,1.33,-1.33,-1.21,-2.90,-1.73,-1.72,-1.72
384.13,-0.46,1.27,-0.44,1.28,-1.28,-1.20,-2.83,-1.75,-1.73,-1.73
387.97,-0.51,1.23,-0.49,1.25,-1.25,-1.21,-2.77,-1.76,-1.73,-1.74
391.85,-0.54,1.21,-0.52,1.22,-1.22,-1.24,-2.70,-1.76,-1.74,-1.75
395.77,-0.56,1.18,-0.55,1.20,-1.20,-1.27,-2.64,-1.76,-1.75,-1.74
399.73,-0.58,1.17,-0.56,1.19,-1.19,-1.31,-2.59,-1.77,-1.75,-1.75
403.72,-0.57,1.19,-0.57,1.19,-1.19,-1.35,-2.53,-1.76,-1.76,-1.76
407.76,-0.56,1.21,-0.57,1.20,-1.20,-1.39,-2.48,-1.76,-1.77,-1.77
411.84,-0.55,1.21,-0.56,1.21,-1.21,-1.43,-2.43,-1.76,-1.77,-1.76
415.96,-0.54,1.24,-0.54,1.23,-1.23,-1.48,-2.38,-1.78,-1.78,-1.78
420.12,-0.53,1.25,-0.52,1.26,-1.26,-1.52,-2.33,-1.79,-1.78,-1.78
424.32,-0.51,1.27,-0.49,1.29,-1.29,-1.55,-2.29,-1.80,-1.78,-1.78
428.56,-0.46,1.33,-0.46,1.33,-1.33,-1.59,-2.24,-1.79,-1.78,-1.79
432.85,-0.41,1.38,-0.42,1.36,-1.36,-1.62,-2.20,-1.77,-1.78,-1.79
437.18,-0.36,1.43,-0.39,1.40,-1.40,-1.65,-2.16,-1.76,-1.79,-1.79
441.55,-0.33,1.45,-0.35,1.44,-1.44,-1.68,-2.12,-1.77,-1.79,-1.78
445.96,-0.29,1.49,-0.31,1.48,-1.48,-1.71,-2.08,-1.77,-1.79,-1.78
450.42,-0.25,1.54,-0.27,1.52,-1.52,-1.73,-2.05,-1.77,-1.78,-1.79
454.93,-0.21,1.57,-0.22,1.56,-1.56,-1.75,-2.01,-1.77,-1.78,-1.78
459.48,-0.17,1.61,-0.17,1.61,-1.61,-1.77,-1.98,-1.78,-1.78,-1.78
464.07,-0.13,1.64,-0.12,1.65,-1.65,-1.78,-1.95,-1.78,-1.77,-1.77
468.71,-0.09,1.67,-0.07,1.70,-1.70,-1.80,-1.92,-1.79,-1.77,-1.76
473.40,-0.04,1.73,-0.02,1.74,-1.74,-1.81,-1.89,-1.78,-1.76,-1.77
478.13,0.02,1.78,0.03,1.79,-1.79,-1.83,-1.86,-1.77,-1.76,-1.76
482.91,0.08,1.84,0.08,1.84,-1.84,-1.84,-1.84,-1.76,-1.75,-1.76
487.74,0.14,1.89,0.14,1.89,-1.89,-1.85,-1.81,-1.75,-1.75,-1.75
492.62,0.21,1.95,0.20,1.94,-1.94,-1.86,-1.79,-1.73,-1.75,-1.74
497.55,0.27,2.01,0.25,1.99,-1.99,-1.87,-1.77,-1.73,-1.74,-1.74
502.52,0.32,2.05,0.31,2.05,-2.05,-1.88,-1.74,-1.73,-1.73,-1.73
507.55,0.37,2.10,0.37,2.10,-2.10,-1.89,-1.72,-1.74,-1.73,-1.73
