frequency,raw,error,smoothed,error_smoothed,equalization,parametric_eq,fixed_band_eq,equalized_raw,equalized_smoothed,target
20.00,-5.06,-10.85,-5.08,-10.89,10.89,9.71,2.87,5.83,5.81,5.78
20.20,-4.98,-10.77,-4.99,-10.79,10.79,9.83,2.95,5.80,5.80,5.78
20.40,-4.89,-10.68,-4.89,-10.68,10.68,9.93,3.04,5.79,5.79,5.78
20.61,-4.81,-10.59,-4.79,-10.57,10.57,10.02,3.12,5.77,5.78,5.78
20.81,-4.69,-10.48,-4.69,-10.46,10.46,10.08,3.21,5.77,5.77,5.78
21.02,-4.60,-10.39,-4.59,-10.35,10.35,10.12,3.31,5.75,5.76,5.78
21.23,-4.49,-10.25,-4.49,-10.24,10.24,10.15,3.40,5.74,5.75,5.76
21.44,-4.39,-10.14,-4.39,-10.12,10.12,10.15,3.50,5.73,5.73,5.75
21.66,-4.30,-10.03,-4.29,-10.01,10.01,10.13,3.60,5.71,5.72,5.73
21.87,-4.18,-9.89,-4.18,-9.89,9.89,10.09,3.70,5.71,5.70,5.71
22.09,-4.07,-9.77,-4.08,-9.77,9.77,10.04,3.81,5.69,5.69,5.70
22.31,-3.97,-9.64,-3.98,-9.64,9.64,9.96,3.92,5.67,5.67,5.67
22.54,-3.88,-9.52,-3.87,-9.52,9.52,9.87,4.03,5.64,5.65,5.65
22.76,-3.75,-9.38,-3.76,-9.38,9.38,9.77,4.15,5.63,5.63,5.63
22.99,-3.65,-9.25,-3.65,-9.25,9.25,9.65,4.26,5.60,5.60,5.60
23.22,-3.54,-9.11,-3.54,-9.12,9.12,9.52,4.38,5.58,5.58,5.57
23.45,-3.43,-8.98,-3.43,-8.99,8.99,9.39,4.51,5.56,5.56,5.54
23.69,-3.33,-8.86,-3.32,-8.86,8.86,9.24,4.63,5.54,5.54,5.53
23.92,-3.21,-8.73,-3.21,-8.73,8.73,9.09,4.76,5.52,5.52,5.51
24.16,-3.10,-8.61,-3.10,-8.60,8.60,8.94,4.89,5.50,5.50,5.50
24.40,-2.99,-8.47,-3.00,-8.47,8.47,8.78,5.02,5.48,5.48,5.48
24.65,-2.88,-8.35,-2.88,-8.34,8.34,8.63,5.16,5.46,5.46,5.46
24.89,-2.77,-8.21,-2.77,-8.21,8.21,8.47,5.29,5.44,5.44,5.44
25.14,-2.66,-8.09,-2.66,-8.09,8.09,8.31,5.43,5.42,5.42,5.43
25.39,-2.55,-7.96,-2.55,-7.96,7.96,8.16,5.57,5.41,5.41,5.41
25.65,-2.44,-7.84,-2.44,-7.83,7.83,8.01,5.71,5.39,5.39,5.40
25.91,-2.34,-7.70,-2.33,-7.71,7.71,7.86,5.85,5.37,5.38,5.37
26.16,-2.21,-7.57,-2.22,-7.58,7.58,7.71,5.99,5.37,5.36,5.35
26.43,-2.11,-7.45,-2.11,-7.45,7.45,7.57,6.12,5.34,5.34,5.34
26.69,-1.99,-7.32,-1.99,-7.32,7.32,7.43,6.26,5.33,5.33,5.32
26.96,-1.89,-7.20,-1.88,-7.19,7.19,7.30,6.39,5.31,5.31,5.31
27.23,-1.77,-7.06,-1.77,-7.06,7.06,7.16,6.53,5.30,5.30,5.30
27.50,-1.66,-6.95,-1.65,-6.94,6.94,7.04,6.65,5.27,5.28,5.29
27.77,-1.54,-6.81,-1.54,-6.81,6.81,6.91,6.78,5.26,5.27,5.27
28.05,-1.42,-6.68,-1.42,-6.68,6.68,6.79,6.89,5.25,5.25,5.25
28.33,-1.31,-6.55,-1.31,-6.55,6.55,6.67,7.00,5.23,5.24,5.23
28.62,-1.20,-6.42,-1.19,-6.42,6.42,6.56,7.11,5.22,5.22,5.22
28.90,-1.08,-6.29,-1.08,-6.29,6.29,6.45,7.20,5.21,5.21,5.21
29.19,-0.97,-6.16,-0.96,-6.16,6.16,6.33,7.29,5.19,5.20,5.19
29.48,-0.84,-6.03,-0.85,-6.03,6.03,6.22,7.36,5.19,5.18,5.19
29.78,-0.73,-5.91,-0.74,-5.91,5.91,6.11,7.42,5.17,5.17,5.17
30.08,-0.62,-5.78,-0.62,-5.78,5.78,6.00,7.47,5.16,5.15,5.16
30.38,-0.52,-5.66,-0.51,-5.65,5.65,5.89,7.51,5.14,5.14,5.14
30.68,-0.39,-5.52,-0.41,-5.53,5.53,5.78,7.53,5.13,5.12,5.13
30.99,-0.29,-5.39,-0.30,-5.41,5.41,5.66,7.54,5.12,5.11,5.11
31.30,-0.19,-5.29,-0.20,-5.29,5.29,5.55,7.53,5.09,5.09,5.09
31.61,-0.08,-5.16,-0.09,-5.17,5.17,5.43,7.51,5.08,5.07,5.08
31.93,0.00,-5.05,0.01,-5.05,5.05,5.31,7.47,5.05,5.05,5.06
32.24,0.10,-4.93,0.10,-4.93,4.93,5.18,7.42,5.03,5.03,5.02
32.57,0.20,-4.82,0.20,-4.81,4.81,5.06,7.36,5.01,5.01,5.01
32.89,0.29,-4.71,0.29,-4.70,4.70,4.93,7.28,4.99,4.99,5.00
33.22,0.39,-4.58,0.39,-4.59,4.59,4.81,7.19,4.97,4.97,4.97
33.55,0.48,-4.48,0.48,-4.47,4.47,4.68,7.09,4.95,4.95,4.95
33.89,0.57,-4.36,0.57,-4.36,4.36,4.55,6.98,4.93,4.93,4.93
34.23,0.66,-4.25,0.65,-4.25,4.25,4.42,6.86,4.91,4.91,4.91
34.57,0.75,-4.14,0.74,-4.14,4.14,4.29,6.73,4.89,4.89,4.88
34.92,0.84,-4.02,0.83,-4.03,4.03,4.16,6.59,4.87,4.86,4.86
35.27,0.92,-3.93,0.92,-3.92,3.92,4.03,6.45,4.84,4.84,4.85
35.62,1.01,-3.82,1.01,-3.82,3.82,3.90,6.30,4.82,4.82,4.82
35.97,1.09,-3.71,1.09,-3.71,3.71,3.78,6.15,4.79,4.80,4.80
36.33,1.18,-3.61,1.18,-3.60,3.60,3.65,5.99,4.78,4.78,4.78
36.70,1.26,-3.50,1.26,-3.49,3.49,3.53,5.83,4.75,4.76,4.76
37.06,1.35,-3.39,1.35,-3.39,3.39,3.42,5.66,4.74,4.74,4.73
37.43,1.44,-3.28,1.43,-3.28,3.28,3.30,5.50,4.72,4.71,4.72
37.81,1.52,-3.18,1.51,-3.18,3.18,3.19,5.33,4.70,4.69,4.69
38.19,1.60,-3.07,1.59,-3.08,3.08,3.08,5.16,4.67,4.67,4.67
38.57,1.68,-2.98,1.67,-2.98,2.98,2.97,4.99,4.65,4.65,4.65
38.95,1.76,-2.87,1.75,-2.88,2.88,2.87,4.83,4.63,4.63,4.63
39.34,1.84,-2.77,1.83,-2.78,2.78,2.77,4.66,4.61,4.61,4.60
39.74,1.91,-2.67,1.91,-2.68,2.68,2.67,4.50,4.59,4.59,4.58
40.14,1.98,-2.60,1.98,-2.59,2.59,2.57,4.33,4.56,4.57,4.57
40.54,2.05,-2.50,2.06,-2.49,2.49,2.48,4.17,4.54,4.55,4.54
40.94,2.13,-2.40,2.13,-2.40,2.40,2.39,4.01,4.53,4.53,4.53
41.35,2.20,-2.30,2.20,-2.31,2.31,2.31,3.85,4.51,4.51,4.50
41.76,2.28,-2.22,2.27,-2.22,2.22,2.22,3.69,4.50,4.49,4.49
42.18,2.34,-2.14,2.34,-2.13,2.13,2.14,3.53,4.47,4.47,4.48
42.60,2.41,-2.04,2.40,-2.05,2.05,2.06,3.38,4.45,4.45,4.45
43.03,2.47,-1.97,2.47,-1.96,1.96,1.99,3.22,4.43,4.43,4.44
43.46,2.53,-1.88,2.53,-1.88,1.88,1.91,3.07,4.40,4.41,4.41
43.90,2.60,-1.79,2.59,-1.80,1.80,1.84,2.92,4.39,4.39,4.38
44.33,2.66,-1.71,2.65,-1.71,1.71,1.77,2.78,4.37,4.37,4.36
44.78,2.71,-1.64,2.71,-1.64,1.64,1.70,2.63,4.34,4.35,4.34
45.23,2.77,-1.55,2.77,-1.56,1.56,1.64,2.49,4.32,4.33,4.31
45.68,2.82,-1.48,2.82,-1.48,1.48,1.57,2.35,4.30,4.30,4.29
46.13,2.88,-1.40,2.87,-1.41,1.41,1.51,2.21,4.28,4.28,4.27
46.60,2.93,-1.34,2.92,-1.33,1.33,1.45,2.07,4.26,4.26,4.26
47.06,2.98,-1.27,2.97,-1.26,1.26,1.39,1.93,4.24,4.24,4.24
47.53,3.03,-1.19,3.02,-1.19,1.19,1.33,1.80,4.22,4.21,4.22
48.01,3.07,-1.14,3.07,-1.12,1.12,1.27,1.67,4.19,4.19,4.21
48.49,3.12,-1.06,3.11,-1.05,1.05,1.22,1.54,4.17,4.17,4.18
48.97,3.16,-0.99,3.16,-0.99,0.99,1.16,1.41,4.14,4.14,4.14
49.46,3.20,-0.91,3.20,-0.92,0.92,1.11,1.28,4.12,4.12,4.11
49.96,3.24,-0.84,3.24,-0.86,0.86,1.06,1.16,4.09,4.09,4.08
50.46,3.28,-0.79,3.28,-0.79,0.79,1.01,1.04,4.07,4.07,4.07
50.96,3.32,-0.73,3.31,-0.73,0.73,0.96,0.92,4.04,4.04,4.05
51.47,3.35,-0.66,3.35,-0.67,0.67,0.91,0.80,4.01,4.02,4.01
51.99,3.39,-0.60,3.38,-0.61,0.61,0.86,0.68,3.99,3.99,3.98
52.51,3.42,-0.55,3.41,-0.55,0.55,0.81,0.57,3.96,3.96,3.97
53.03,3.45,-0.49,3.44,-0.49,0.49,0.77,0.46,3.94,3.94,3.94
53.56,3.48,-0.44,3.47,-0.43,0.43,0.72,0.35,3.91,3.91,3.91
54.10,3.51,-0.38,3.50,-0.38,0.38,0.67,0.24,3.89,3.88,3.89
54.64,3.53,-0.33,3.53,-0.33,0.33,0.63,0.14,3.86,3.86,3.86
55.18,3.55,-0.28,3.55,-0.28,0.28,0.58,0.04,3.83,3.83,3.83
55.74,3.58,-0.22,3.57,-0.23,0.23,0.54,-0.06,3.81,3.80,3.80
56.29,3.59,-0.19,3.59,-0.18,0.18,0.50,-0.15,3.77,3.77,3.78
56.86,3.62,-0.13,3.61,-0.13,0.13,0.45,-0.24,3.75,3.75,3.74
57.42,3.64,-0.08,3.63,-0.09,0.09,0.41,-0.33,3.72,3.72,3.71
58.00,3.65,-0.04,3.65,-0.04,0.04,0.37,-0.41,3.68,3.69,3.69
58.58,3.67,0.01,3.67,0.01,-0.01,0.33,-0.49,3.65,3.66,3.66
59.16,3.69,0.06,3.69,0.06,-0.06,0.28,-0.57,3.63,3.63,3.63
59.76,3.70,0.09,3.70,0.11,-0.11,0.24,-0.64,3.59,3.60,3.61
60.35,3.72,0.15,3.72,0.15,-0.15,0.20,-0.70,3.56,3.57,3.57
60.96,3.73,0.17,3.73,0.20,-0.20,0.16,-0.77,3.53,3.54,3.55
61.57,3.75,0.24,3.75,0.24,-0.24,0.12,-0.82,3.50,3.50,3.51
62.18,3.77,0.30,3.76,0.29,-0.29,0.08,-0.88,3.48,3.47,3.47
62.80,3.78,0.34,3.77,0.33,-0.33,0.04,-0.93,3.45,3.44,3.44
63.43,3.79,0.39,3.78,0.37,-0.37,-0.01,-0.97,3.42,3.41,3.40
64.07,3.79,0.42,3.79,0.41,-0.41,-0.05,-1.01,3.38,3.38,3.37
64.71,3.80,0.45,3.80,0.45,-0.45,-0.09,-1.05,3.35,3.35,3.35
65.35,3.80,0.48,3.80,0.48,-0.48,-0.13,-1.08,3.31,3.32,3.31
66.01,3.80,0.51,3.80,0.52,-0.52,-0.17,-1.11,3.28,3.29,3.29
66.67,3.81,0.55,3.81,0.55,-0.55,-0.21,-1.14,3.25,3.25,3.25
67.33,3.82,0.59,3.81,0.58,-0.58,-0.26,-1.16,3.23,3.22,3.23
68.01,3.81,0.61,3.81,0.61,-0.61,-0.30,-1.18,3.19,3.19,3.19
68.69,3.81,0.64,3.80,0.64,-0.64,-0.34,-1.19,3.16,3.16,3.17
69.37,3.80,0.67,3.80,0.67,-0.67,-0.38,-1.20,3.13,3.13,3.13
70.07,3.80,0.70,3.80,0.70,-0.70,-0.43,-1.22,3.10,3.10,3.10
70.77,3.79,0.72,3.79,0.73,-0.73,-0.47,-1.22,3.06,3.06,3.07
71.48,3.79,0.76,3.78,0.76,-0.76,-0.51,-1.23,3.03,3.03,3.03
72.19,3.77,0.77,3.77,0.78,-0.78,-0.56,-1.23,2.98,2.99,2.99
72.91,3.77,0.82,3.76,0.81,-0.81,-0.60,-1.24,2.96,2.95,2.95
73.64,3.75,0.84,3.74,0.84,-0.84,-0.64,-1.24,2.91,2.91,2.91
74.38,3.73,0.85,3.73,0.86,-0.86,-0.69,-1.24,2.86,2.87,2.87
75.12,3.72,0.90,3.71,0.89,-0.89,-0.73,-1.24,2.83,2.82,2.82
75.87,3.70,0.92,3.69,0.91,-0.91,-0.78,-1.24,2.78,2.78,2.78
76.63,3.68,0.94,3.68,0.94,-0.94,-0.82,-1.24,2.74,2.74,2.74
77.40,3.66,0.97,3.66,0.97,-0.97,-0.87,-1.24,2.69,2.69,2.69
78.17,3.63,1.00,3.63,0.99,-0.99,-0.91,-1.24,2.63,2.64,2.63
78.95,3.61,1.01,3.61,1.02,-1.02,-0.96,-1.24,2.59,2.59,2.60
79.74,3.58,1.03,3.58,1.04,-1.04,-1.00,-1.24,2.53,2.54,2.55
80.54,3.56,1.06,3.56,1.07,-1.07,-1.04,-1.24,2.49,2.49,2.50
81.35,3.54,1.09,3.53,1.09,-1.09,-1.09,-1.25,2.45,2.44,2.44
82.16,3.51,1.12,3.50,1.11,-1.11,-1.13,-1.25,2.39,2.39,2.39
82.98,3.48,1.13,3.47,1.14,-1.14,-1.18,-1.25,2.34,2.34,2.34
83.81,3.45,1.17,3.44,1.16,-1.16,-1.22,-1.25,2.29,2.28,2.27
84.65,3.41,1.19,3.41,1.18,-1.18,-1.26,-1.26,2.22,2.22,2.22
85.50,3.38,1.21,3.37,1.21,-1.21,-1.30,-1.27,2.17,2.17,2.17
86.35,3.34,1.23,3.34,1.23,-1.23,-1.34,-1.27,2.11,2.11,2.11
87.22,3.30,1.25,3.30,1.25,-1.25,-1.38,-1.28,2.05,2.05,2.05
88.09,3.27,1.28,3.26,1.27,-1.27,-1.42,-1.29,2.00,1.99,1.99
88.97,3.22,1.28,3.22,1.29,-1.29,-1.46,-1.30,1.93,1.93,1.94
89.86,3.18,1.30,3.18,1.30,-1.30,-1.49,-1.31,1.87,1.87,1.88
90.76,3.14,1.33,3.13,1.32,-1.32,-1.53,-1.32,1.82,1.81,1.80
91.66,3.09,1.33,3.09,1.34,-1.34,-1.56,-1.34,1.75,1.75,1.75
92.58,3.05,1.37,3.05,1.36,-1.36,-1.59,-1.35,1.69,1.69,1.68
93.51,3.00,1.36,3.00,1.37,-1.37,-1.62,-1.37,1.62,1.63,1.63
94.44,2.96,1.39,2.95,1.39,-1.39,-1.65,-1.39,1.56,1.56,1.57
95.39,2.91,1.40,2.91,1.41,-1.41,-1.67,-1.41,1.49,1.50,1.50
96.34,2.86,1.43,2.86,1.43,-1.43,-1.69,-1.42,1.43,1.43,1.43
97.30,2.81,1.44,2.81,1.45,-1.45,-1.71,-1.44,1.36,1.36,1.36
98.28,2.76,1.46,2.76,1.46,-1.46,-1.73,-1.47,1.29,1.29,1.30
99.26,2.71,1.49,2.71,1.48,-1.48,-1.74,-1.49,1.22,1.22,1.22
100.25,2.66,1.50,2.65,1.50,-1.50,-1.76,-1.51,1.15,1.15,1.15
101.25,2.61,1.52,2.60,1.52,-1.52,-1.77,-1.53,1.09,1.08,1.08
102.27,2.55,1.54,2.55,1.54,-1.54,-1.77,-1.55,1.01,1.01,1.01
103.29,2.49,1.56,2.49,1.55,-1.55,-1.78,-1.58,0.93,0.94,0.93
104.32,2.44,1.58,2.43,1.57,-1.57,-1.78,-1.60,0.87,0.86,0.86
105.37,2.38,1.58,2.37,1.59,-1.59,-1.78,-1.63,0.79,0.79,0.79
106.42,2.31,1.59,2.32,1.60,-1.60,-1.78,-1.65,0.70,0.71,0.72
107.48,2.26,1.62,2.26,1.62,-1.62,-1.77,-1.67,0.64,0.64,0.64
108.56,2.20,1.64,2.20,1.64,-1.64,-1.76,-1.69,0.56,0.56,0.56
109.64,2.14,1.65,2.13,1.65,-1.65,-1.75,-1.71,0.48,0.48,0.48
110.74,2.08,1.66,2.07,1.67,-1.67,-1.74,-1.73,0.41,0.41,0.42
111.85,2.01,1.67,2.01,1.68,-1.68,-1.73,-1.75,0.32,0.33,0.34
112.97,1.95,1.71,1.95,1.70,-1.70,-1.71,-1.77,0.25,0.25,0.24
114.10,1.88,1.70,1.88,1.71,-1.71,-1.69,-1.79,0.17,0.17,0.17
115.24,1.82,1.72,1.82,1.72,-1.72,-1.67,-1.80,0.10,0.10,0.10
116.39,1.76,1.74,1.75,1.73,-1.73,-1.65,-1.81,0.02,0.02,0.01
117.55,1.69,1.75,1.69,1.74,-1.74,-1.63,-1.82,-0.06,-0.06,-0.06
118.73,1.62,1.75,1.62,1.75,-1.75,-1.61,-1.83,-0.13,-0.13,-0.14
119.92,1.56,1.76,1.55,1.76,-1.76,-1.58,-1.84,-0.20,-0.20,-0.20
121.12,1.49,1.76,1.48,1.76,-1.76,-1.56,-1.84,-0.27,-0.28,-0.28
122.33,1.42,1.77,1.42,1.77,-1.77,-1.53,-1.84,-0.35,-0.35,-0.35
123.55,1.35,1.76,1.35,1.77,-1.77,-1.50,-1.83,-0.42,-0.42,-0.41
124.79,1.28,1.76,1.28,1.77,-1.77,-1.47,-1.83,-0.49,-0.49,-0.48
126.03,1.21,1.75,1.21,1.76,-1.76,-1.44,-1.82,-0.56,-0.56,-0.55
127.29,1.14,1.75,1.13,1.76,-1.76,-1.42,-1.81,-0.62,-0.62,-0.62
128.57,1.06,1.75,1.06,1.75,-1.75,-1.39,-1.79,-0.69,-0.69,-0.70
129.85,1.00,1.75,0.99,1.74,-1.74,-1.36,-1.77,-0.74,-0.75,-0.76
131.15,0.92,1.73,0.91,1.73,-1.73,-1.33,-1.75,-0.81,-0.81,-0.81
132.46,0.85,1.73,0.84,1.71,-1.71,-1.30,-1.73,-0.87,-0.87,-0.88
133.79,0.77,1.69,0.76,1.69,-1.69,-1.27,-1.70,-0.93,-0.93,-0.93
135.12,0.69,1.68,0.69,1.67,-1.67,-1.24,-1.67,-0.99,-0.99,-0.99
136.48,0.61,1.65,0.61,1.65,-1.65,-1.22,-1.64,-1.04,-1.04,-1.04
137.84,0.53,1.61,0.54,1.62,-1.62,-1.19,-1.61,-1.10,-1.09,-1.08
139.22,0.46,1.60,0.46,1.59,-1.59,-1.16,-1.57,-1.14,-1.14,-1.15
140.61,0.38,1.57,0.38,1.56,-1.56,-1.13,-1.53,-1.19,-1.18,-1.20
142.02,0.31,1.53,0.30,1.53,-1.53,-1.11,-1.50,-1.22,-1.22,-1.22
143.44,0.23,1.49,0.22,1.49,-1.49,-1.08,-1.45,-1.26,-1.27,-1.26
144.87,0.15,1.45,0.15,1.45,-1.45,-1.05,-1.41,-1.30,-1.31,-1.31
146.32,0.08,1.42,0.07,1.41,-1.41,-1.03,-1.37,-1.33,-1.34,-1.35
147.78,-0.01,1.36,-0.01,1.37,-1.37,-1.00,-1.33,-1.38,-1.38,-1.37
149.26,-0.08,1.33,-0.09,1.33,-1.33,-0.98,-1.28,-1.41,-1.42,-1.41
150.75,-0.17,1.28,-0.17,1.28,-1.28,-0.96,-1.24,-1.46,-1.45,-1.46
152.26,-0.25,1.24,-0.25,1.24,-1.24,-0.93,-1.19,-1.49,-1.49,-1.49
153.78,-0.33,1.19,-0.33,1.19,-1.19,-0.91,-1.15,-1.53,-1.52,-1.52
155.32,-0.41,1.14,-0.41,1.15,-1.15,-0.89,-1.10,-1.56,-1.56,-1.56
156.88,-0.49,1.09,-0.49,1.10,-1.10,-0.87,-1.05,-1.59,-1.59,-1.59
158.44,-0.57,1.05,-0.57,1.06,-1.06,-0.85,-1.01,-1.63,-1.63,-1.63
160.03,-0.65,1.01,-0.65,1.01,-1.01,-0.83,-0.96,-1.66,-1.66,-1.67
161.63,-0.73,0.97,-0.73,0.97,-0.97,-0.81,-0.91,-1.70,-1.70,-1.71
163.24,-0.81,0.92,-0.81,0.92,-0.92,-0.79,-0.87,-1.74,-1.73,-1.73
164.88,-0.88,0.88,-0.89,0.88,-0.88,-0.77,-0.82,-1.77,-1.77,-1.76
166.53,-0.96,0.83,-0.96,0.84,-0.84,-0.76,-0.78,-1.80,-1.80,-1.80
168.19,-1.03,0.81,-1.04,0.80,-0.80,-0.74,-0.73,-1.83,-1.84,-1.84
169.87,-1.11,0.76,-1.11,0.76,-0.76,-0.72,-0.69,-1.88,-1.88,-1.88
171.57,-1.18,0.72,-1.19,0.73,-0.73,-0.71,-0.64,-1.91,-1.91,-1.91
173.29,-1.26,0.68,-1.26,0.69,-0.69,-0.69,-0.60,-1.96,-1.95,-1.94
175.02,-1.32,0.66,-1.33,0.66,-0.66,-0.68,-0.55,-1.98,-1.99,-1.98
176.77,-1.40,0.63,-1.40,0.63,-0.63,-0.67,-0.51,-2.03,-2.03,-2.03
178.54,-1.47,0.60,-1.47,0.60,-0.60,-0.65,-0.46,-2.07,-2.07,-2.07
180.32,-1.54,0.57,-1.54,0.57,-0.57,-0.64,-0.42,-2.11,-2.11,-2.11
182.13,-1.61,0.53,-1.61,0.54,-0.54,-0.63,-0.38,-2.15,-2.15,-2.15
183.95,-1.68,0.51,-1.68,0.51,-0.51,-0.62,-0.34,-2.19,-2.19,-2.19
185.79,-1.74,0.49,-1.75,0.48,-0.48,-0.60,-0.30,-2.23,-2.23,-2.23
187.65,-1.81,0.46,-1.81,0.45,-0.45,-0.59,-0.25,-2.27,-2.27,-2.28
189.52,-1.88,0.43,-1.88,0.43,-0.43,-0.58,-0.21,-2.31,-2.30,-2.31
191.42,-1.93,0.41,-1.94,0.40,-0.40,-0.57,-0.17,-2.33,-2.34,-2.34
193.33,-2.00,0.36,-2.01,0.37,-0.37,-0.56,-0.13,-2.37,-2.37,-2.37
195.27,-2.06,0.34,-2.07,0.34,-0.34,-0.55,-0.10,-2.40,-2.41,-2.40
197.22,-2.13,0.30,-2.13,0.31,-0.31,-0.55,-0.06,-2.44,-2.44,-2.43
199.19,-2.18,0.30,-2.19,0.28,-0.28,-0.54,-0.02,-2.46,-2.47,-2.48
201.18,-2.24,0.26,-2.25,0.25,-0.25,-0.53,0.02,-2.49,-2.50,-2.50
203.19,-2.31,0.21,-2.31,0.22,-0.22,-0.52,0.05,-2.53,-2.52,-2.52
205.23,-2.36,0.19,-2.36,0.19,-0.19,-0.52,0.09,-2.55,-2.55,-2.55
207.28,-2.41,0.15,-2.42,0.16,-0.16,-0.51,0.12,-2.57,-2.57,-2.56
209.35,-2.47,0.12,-2.47,0.13,-0.13,-0.51,0.16,-2.60,-2.60,-2.60
211.44,-2.52,0.10,-2.52,0.10,-0.10,-0.50,0.19,-2.62,-2.62,-2.62
213.56,-2.57,0.07,-2.57,0.07,-0.07,-0.49,0.22,-2.64,-2.64,-2.64
215.69,-2.62,0.02,-2.62,0.04,-0.04,-0.49,0.25,-2.66,-2.66,-2.65
217.85,-2.66,-0.00,-2.66,0.01,-0.01,-0.49,0.28,-2.67,-2.67,-2.66
220.03,-2.70,-0.02,-2.71,-0.03,0.03,-0.48,0.31,-2.68,-2.68,-2.69
222.23,-2.74,-0.04,-2.75,-0.06,0.06,-0.48,0.33,-2.69,-2.69,-2.70
224.45,-2.78,-0.09,-2.79,-0.09,0.09,-0.48,0.36,-2.70,-2.70,-2.70
226.70,-2.82,-0.11,-2.82,-0.12,0.12,-0.47,0.38,-2.71,-2.71,-2.71
228.96,-2.85,-0.14,-2.86,-0.15,0.15,-0.47,0.40,-2.71,-2.71,-2.71
231.25,-2.89,-0.19,-2.89,-0.18,0.18,-0.47,0.42,-2.71,-2.71,-2.71
233.57,-2.92,-0.23,-2.92,-0.21,0.21,-0.47,0.43,-2.71,-2.70,-2.70
235.90,-2.94,-0.24,-2.94,-0.24,0.24,-0.47,0.45,-2.70,-2.70,-2.70
238.26,-2.96,-0.26,-2.97,-0.28,0.28,-0.47,0.46,-2.69,-2.69,-2.70
240.64,-2.99,-0.31,-2.99,-0.31,0.31,-0.47,0.47,-2.69,-2.68,-2.68
243.05,-3.00,-0.33,-3.01,-0.34,0.34,-0.47,0.47,-2.67,-2.67,-2.67
245.48,-3.02,-0.37,-3.02,-0.37,0.37,-0.47,0.48,-2.66,-2.66,-2.65
247.93,-3.03,-0.39,-3.04,-0.40,0.40,-0.47,0.48,-2.64,-2.64,-2.64
250.41,-3.04,-0.41,-3.05,-0.42,0.42,-0.47,0.47,-2.62,-2.62,-2.63
252.92,-3.05,-0.45,-3.05,-0.45,0.45,-0.48,0.47,-2.61,-2.61,-2.60
255.45,-3.06,-0.48,-3.06,-0.47,0.47,-0.48,0.46,-2.59,-2.59,-2.58
258.00,-3.06,-0.51,-3.06,-0.49,0.49,-0.48,0.45,-2.57,-2.57,-2.56
260.58,-3.05,-0.51,-3.06,-0.51,0.51,-0.49,0.44,-2.54,-2.55,-2.55
263.19,-3.05,-0.53,-3.05,-0.53,0.53,-0.49,0.42,-2.52,-2.52,-2.52
265.82,-3.04,-0.54,-3.05,-0.55,0.55,-0.50,0.40,-2.50,-2.50,-2.50
268.48,-3.03,-0.55,-3.03,-0.56,0.56,-0.50,0.38,-2.48,-2.48,-2.48
271.16,-3.01,-0.57,-3.02,-0.56,0.56,-0.51,0.36,-2.45,-2.46,-2.45
273.87,-3.00,-0.57,-3.00,-0.56,0.56,-0.52,0.33,-2.44,-2.43,-2.43
276.61,-2.98,-0.58,-2.97,-0.57,0.57,-0.52,0.31,-2.42,-2.41,-2.40
279.38,-2.95,-0.57,-2.95,-0.56,0.56,-0.53,0.28,-2.39,-2.39,-2.39
282.17,-2.92,-0.56,-2.92,-0.56,0.56,-0.54,0.25,-2.37,-2.36,-2.36
284.99,-2.89,-0.56,-2.88,-0.55,0.55,-0.55,0.21,-2.35,-2.34,-2.34
287.84,-2.85,-0.54,-2.85,-0.54,0.54,-0.56,0.18,-2.31,-2.31,-2.31
290.72,-2.80,-0.52,-2.81,-0.53,0.53,-0.57,0.14,-2.27,-2.28,-2.28
293.63,-2.76,-0.50,-2.77,-0.52,0.52,-0.58,0.10,-2.25,-2.26,-2.26
296.57,-2.72,-0.49,-2.73,-0.51,0.51,-0.60,0.06,-2.22,-2.23,-2.23
299.53,-2.67,-0.47,-2.69,-0.49,0.49,-0.61,0.02,-2.18,-2.20,-2.20
302.53,-2.63,-0.45,-2.64,-0.48,0.48,-0.63,-0.02,-2.16,-2.17,-2.18
305.55,-2.59,-0.46,-2.60,-0.46,0.46,-0.64,-0.06,-2.13,-2.14,-2.13
308.61,-2.54,-0.44,-2.55,-0.44,0.44,-0.66,-0.10,-2.10,-2.11,-2.11
311.69,-2.49,-0.42,-2.49,-0.42,0.42,-0.68,-0.15,-2.07,-2.07,-2.07
314.81,-2.44,-0.41,-2.44,-0.40,0.40,-0.70,-0.20,-2.05,-2.04,-2.04
317.96,-2.39,-0.38,-2.38,-0.37,0.37,-0.72,-0.24,-2.03,-2.01,-2.01
321.14,-2.32,-0.34,-2.33,-0.34,0.34,-0.74,-0.29,-1.98,-1.98,-1.98
324.35,-2.26,-0.31,-2.27,-0.31,0.31,-0.76,-0.34,-1.95,-1.95,-1.96
327.59,-2.19,-0.27,-2.20,-0.28,0.28,-0.79,-0.39,-1.92,-1.93,-1.92
330.87,-2.11,-0.22,-2.13,-0.23,0.23,-0.81,-0.44,-1.88,-1.90,-1.89
334.18,-2.03,-0.16,-2.05,-0.18,0.18,-0.84,-0.49,-1.85,-1.87,-1.88
337.52,-1.94,-0.09,-1.97,-0.12,0.12,-0.87,-0.54,-1.83,-1.85,-1.85
340.90,-1.85,-0.03,-1.86,-0.04,0.04,-0.90,-0.59,-1.82,-1.83,-1.82
344.30,-1.76,0.04,-1.75,0.05,-0.05,-0.94,-0.64,-1.81,-1.80,-1.81
347.75,-1.67,0.10,-1.63,0.15,-0.15,-0.97,-0.69,-1.83,-1.78,-1.78
351.23,-1.57,0.19,-1.50,0.27,-0.27,-1.01,-0.75,-1.84,-1.76,-1.76
354.74,-1.45,0.29,-1.35,0.39,-0.39,-1.05,-0.80,-1.85,-1.74,-1.74
358.28,-1.25,0.47,-1.20,0.53,-0.53,-1.09,-0.86,-1.78,-1.72,-1.73
361.87,-1.05,0.65,-1.04,0.67,-0.67,-1.14,-0.91,-1.72,-1.71,-1.71
365.49,-0.85,0.83,-0.87,0.82,-0.82,-1.18,-0.97,-1.67,-1.69,-1.68
369.14,-0.66,1.01,-0.69,0.98,-0.98,-1.23,-1.02,-1.64,-1.67,-1.67
372.83,-0.48,1.17,-0.51,1.14,-1.14,-1.29,-1.08,-1.62,-1.65,-1.65
376.56,-0.29,1.34,-0.33,1.30,-1.30,-1.34,-1.14,-1.59,-1.63,-1.64
380.33,-0.12,1.48,-0.16,1.46,-1.46,-1.40,-1.20,-1.58,-1.61,-1.61
384.13,0.05,1.64,0.02,1.61,-1.61,-1.46,-1.26,-1.57,-1.59,-1.59
387.97,0.21,1.78,0.19,1.76,-1.76,-1.53,-1.31,-1.56,-1.57,-1.57
391.85,0.37,1.92,0.36,1.91,-1.91,-1.59,-1.37,-1.54,-1.55,-1.55
395.77,0.51,2.03,0.51,2.04,-2.04,-1.66,-1.43,-1.53,-1.53,-1.53
399.73,0.66,2.16,0.65,2.16,-2.16,-1.74,-1.49,-1.50,-1.51,-1.51
403.72,0.78,2.26,0.78,2.27,-2.27,-1.81,-1.55,-1.49,-1.49,-1.49
407.76,0.90,2.37,0.91,2.37,-2.37,-1.89,-1.61,-1.48,-1.47,-1.47
411.84,1.02,2.46,1.03,2.47,-2.47,-1.97,-1.67,-1.45,-1.44,-1.44
415.96,1.13,2.55,1.13,2.56,-2.56,-2.05,-1.72,-1.43,-1.42,-1.42
420.12,1.23,2.63,1.23,2.63,-2.63,-2.14,-1.78,-1.41,-1.40,-1.40
424.32,1.32,2.69,1.32,2.70,-2.70,-2.22,-1.84,-1.38,-1.38,-1.37
428.56,1.40,2.75,1.39,2.75,-2.75,-2.30,-1.89,-1.35,-1.36,-1.36
432.85,1.47,2.80,1.46,2.79,-2.79,-2.39,-1.94,-1.32,-1.33,-1.34
437.18,1.53,2.83,1.51,2.82,-2.82,-2.47,-2.00,-1.29,-1.31,-1.31
441.55,1.59,2.87,1.55,2.83,-2.83,-2.54,-2.04,-1.25,-1.28,-1.28
445.96,1.64,2.90,1.58,2.84,-2.84,-2.62,-2.09,-1.20,-1.26,-1.26
450.42,1.63,2.87,1.60,2.83,-2.83,-2.68,-2.14,-1.20,-1.23,-1.24
454.93,1.62,2.82,1.61,2.81,-2.81,-2.74,-2.18,-1.20,-1.21,-1.20
459.48,1.61,2.79,1.61,2.79,-2.79,-2.79,-2.22,-1.18,-1.18,-1.18
464.07,1.59,2.74,1.60,2.75,-2.75,-2.83,-2.25,-1.17,-1.15,-1.15
468.71,1.57,2.68,1.59,2.71,-2.71,-2.86,-2.28,-1.14,-1.12,-1.11
473.40,1.55,2.64,1.57,2.66,-2.66,-2.88,-2.31,-1.12,-1.10,-1.10
478.13,1.53,2.59,1.54,2.61,-2.61,-2.89,-2.33,-1.08,-1.07,-1.07
482.91,1.50,2.53,1.52,2.56,-2.56,-2.88,-2.35,-1.06,-1.04,-1.04
487.74,1.49,2.49,1.49,2.50,-2.50,-2.86,-2.37,-1.01,-1.01,-1.01
492.62,1.46,2.43,1.46,2.44,-2.44,-2.83,-2.38,-0.99,-0.98,-0.98
