frequency,raw,error,smoothed,error_smoothed,equalization,parametric_eq,fixed_band_eq,equalized_raw,equalized_smoothed,target
20.00,-23.97,-26.09,-23.92,-26.07,26.07,21.96,12.27,2.10,2.15,2.12
20.20,-23.80,-25.97,-23.79,-25.97,25.97,22.33,12.46,2.17,2.19,2.17
20.40,-23.64,-25.86,-23.65,-25.87,25.87,22.69,12.65,2.23,2.22,2.22
20.61,-23.48,-25.72,-23.51,-25.76,25.76,23.02,12.85,2.29,2.25,2.25
20.81,-23.31,-25.61,-23.37,-25.65,25.65,23.31,13.05,2.34,2.28,2.30
21.02,-23.15,-25.49,-23.22,-25.53,25.53,23.57,13.25,2.38,2.31,2.34
21.23,-23.04,-25.40,-23.08,-25.41,25.41,23.78,13.46,2.37,2.34,2.36
21.44,-22.93,-25.31,-22.93,-25.29,25.29,23.94,13.68,2.36,2.36,2.38
21.66,-22.82,-25.22,-22.78,-25.16,25.16,24.05,13.90,2.34,2.38,2.40
21.87,-22.70,-25.11,-22.63,-25.03,25.03,24.11,14.12,2.33,2.40,2.41
22.09,-22.56,-24.99,-22.48,-24.89,24.89,24.12,14.35,2.33,2.41,2.43
22.31,-22.37,-24.80,-22.33,-24.75,24.75,24.08,14.59,2.38,2.42,2.43
22.54,-22.18,-24.61,-22.17,-24.61,24.61,24.00,14.83,2.43,2.43,2.43
22.76,-21.98,-24.41,-22.02,-24.45,24.45,23.88,15.08,2.47,2.43,2.43
22.99,-21.79,-24.22,-21.86,-24.29,24.29,23.73,15.33,2.50,2.44,2.42
23.22,-21.65,-24.08,-21.69,-24.13,24.13,23.56,15.60,2.48,2.44,2.42
23.45,-21.51,-23.93,-21.53,-23.96,23.96,23.36,15.87,2.45,2.44,2.42
23.69,-21.37,-23.81,-21.36,-23.80,23.80,23.16,16.15,2.42,2.44,2.43
23.92,-21.23,-23.66,-21.19,-23.63,23.63,22.95,16.43,2.40,2.44,2.43
24.16,-21.07,-23.51,-21.03,-23.47,23.47,22.74,16.73,2.39,2.44,2.44
24.40,-20.88,-23.33,-20.87,-23.31,23.31,22.52,17.03,2.43,2.44,2.45
24.65,-20.70,-23.14,-20.72,-23.16,23.16,22.31,17.35,2.45,2.44,2.44
24.89,-20.52,-22.96,-20.58,-23.01,23.01,22.10,17.67,2.49,2.44,2.44
25.14,-20.37,-22.81,-20.43,-22.87,22.87,21.89,18.01,2.50,2.44,2.44
25.39,-20.24,-22.68,-20.29,-22.72,22.72,21.70,18.36,2.48,2.44,2.44
25.65,-20.12,-22.57,-20.13,-22.57,22.57,21.51,18.72,2.45,2.44,2.44
25.91,-20.00,-22.44,-19.98,-22.42,22.42,21.33,19.09,2.41,2.44,2.43
26.16,-19.85,-22.28,-19.82,-22.26,22.26,21.16,19.47,2.41,2.44,2.43
26.43,-19.70,-22.13,-19.67,-22.10,22.10,21.00,19.87,2.39,2.43,2.43
26.69,-19.55,-21.98,-19.51,-21.94,21.94,20.85,20.29,2.39,2.43,2.43
26.96,-19.40,-21.84,-19.35,-21.78,21.78,20.71,20.71,2.37,2.43,2.44
27.23,-19.22,-21.66,-19.19,-21.62,21.62,20.57,21.15,2.39,2.43,2.44
27.50,-19.03,-21.47,-19.02,-21.45,21.45,20.45,21.61,2.42,2.43,2.43
27.77,-18.84,-21.26,-18.85,-21.28,21.28,20.33,22.08,2.44,2.42,2.42
28.05,-18.65,-21.07,-18.69,-21.11,21.11,20.23,22.55,2.46,2.42,2.42
28.33,-18.49,-20.90,-18.52,-20.94,20.94,20.13,23.04,2.45,2.42,2.41
28.62,-18.34,-20.74,-18.36,-20.78,20.78,20.04,23.54,2.44,2.42,2.41
28.90,-18.17,-20.59,-18.20,-20.61,20.61,19.95,24.03,2.44,2.42,2.42
29.19,-18.00,-20.41,-18.03,-20.44,20.44,19.87,24.51,2.44,2.41,2.40
29.48,-17.84,-20.26,-17.86,-20.28,20.28,19.80,24.98,2.43,2.41,2.42
29.78,-17.68,-20.09,-17.70,-20.11,20.11,19.73,25.41,2.43,2.41,2.41
30.08,-17.54,-19.95,-17.54,-19.95,19.95,19.66,25.79,2.42,2.41,2.42
30.38,-17.41,-19.82,-17.39,-19.80,19.80,19.60,26.10,2.38,2.41,2.41
30.68,-17.29,-19.70,-17.24,-19.65,19.65,19.54,26.32,2.35,2.40,2.40
30.99,-17.18,-19.59,-17.09,-19.49,19.49,19.48,26.44,2.31,2.40,2.40
31.30,-16.97,-19.36,-16.94,-19.34,19.34,19.42,26.44,2.37,2.40,2.40
31.61,-16.74,-19.14,-16.78,-19.18,19.18,19.36,26.33,2.43,2.40,2.40
31.93,-16.53,-18.92,-16.62,-19.02,19.02,19.29,26.12,2.49,2.39,2.39
32.24,-16.40,-18.78,-16.46,-18.85,18.85,19.23,25.81,2.45,2.39,2.38
32.57,-16.30,-18.69,-16.30,-18.69,18.69,19.15,25.42,2.38,2.38,2.39
32.89,-16.20,-18.59,-16.14,-18.52,18.52,19.07,24.98,2.31,2.38,2.39
33.22,-16.03,-18.40,-15.97,-18.34,18.34,18.99,24.51,2.31,2.37,2.37
33.55,-15.83,-18.20,-15.80,-18.17,18.17,18.90,24.01,2.34,2.37,2.37
33.89,-15.63,-17.99,-15.64,-18.00,18.00,18.79,23.49,2.37,2.36,2.36
34.23,-15.45,-17.82,-15.47,-17.83,17.83,18.68,22.98,2.38,2.36,2.36
34.57,-15.30,-17.65,-15.31,-17.66,17.66,18.56,22.47,2.36,2.35,2.35
34.92,-15.14,-17.49,-15.15,-17.50,17.50,18.42,21.97,2.35,2.35,2.35
35.27,-14.97,-17.32,-14.99,-17.33,17.33,18.27,21.48,2.36,2.34,2.34
35.62,-14.80,-17.14,-14.83,-17.17,17.17,18.12,21.00,2.36,2.34,2.34
35.97,-14.62,-16.96,-14.66,-16.99,16.99,17.95,20.53,2.37,2.34,2.33
36.33,-14.48,-16.82,-14.48,-16.82,16.82,17.76,20.08,2.34,2.33,2.34
36.70,-14.34,-16.67,-14.31,-16.65,16.65,17.57,19.64,2.30,2.33,2.33
37.06,-14.19,-16.51,-14.15,-16.48,16.48,17.37,19.22,2.29,2.33,2.32
37.43,-14.01,-16.35,-13.99,-16.32,16.32,17.15,18.80,2.31,2.33,2.34
37.81,-13.83,-16.16,-13.83,-16.16,16.16,16.93,18.41,2.33,2.33,2.33
38.19,-13.66,-15.99,-13.67,-16.00,16.00,16.69,18.02,2.34,2.33,2.33
38.57,-13.49,-15.82,-13.51,-15.84,15.84,16.45,17.65,2.35,2.33,2.33
38.95,-13.33,-15.67,-13.35,-15.67,15.67,16.20,17.28,2.34,2.33,2.34
39.34,-13.16,-15.49,-13.18,-15.51,15.51,15.95,16.93,2.35,2.33,2.33
39.74,-12.98,-15.31,-13.01,-15.34,15.34,15.69,16.59,2.35,2.33,2.32
40.14,-12.82,-15.15,-12.84,-15.16,15.16,15.43,16.25,2.34,2.32,2.33
40.54,-12.69,-15.01,-12.67,-14.99,14.99,15.16,15.93,2.29,2.32,2.32
40.94,-12.56,-14.88,-12.50,-14.81,14.81,14.90,15.61,2.25,2.32,2.31
41.35,-12.38,-14.69,-12.33,-14.64,14.64,14.63,15.31,2.26,2.31,2.31
41.76,-12.19,-14.49,-12.17,-14.47,14.47,14.36,15.01,2.28,2.30,2.30
42.18,-12.00,-14.30,-12.01,-14.30,14.30,14.09,14.71,2.30,2.29,2.30
42.60,-11.80,-14.09,-11.84,-14.12,14.12,13.82,14.43,2.32,2.28,2.28
43.03,-11.61,-13.89,-11.68,-13.94,13.94,13.55,14.14,2.33,2.27,2.28
43.46,-11.46,-13.73,-11.52,-13.77,13.77,13.28,13.87,2.31,2.25,2.27
43.90,-11.32,-13.56,-11.36,-13.60,13.60,13.02,13.60,2.27,2.24,2.24
44.33,-11.19,-13.41,-11.20,-13.43,13.43,12.76,13.34,2.23,2.23,2.22
44.78,-11.07,-13.27,-11.04,-13.25,13.25,12.50,13.08,2.18,2.21,2.20
45.23,-10.93,-13.13,-10.88,-13.08,13.08,12.24,12.83,2.15,2.20,2.19
45.68,-10.76,-12.93,-10.73,-12.91,12.91,11.99,12.58,2.15,2.18,2.17
46.13,-10.59,-12.74,-10.58,-12.74,12.74,11.74,12.33,2.15,2.16,2.15
46.60,-10.41,-12.56,-10.43,-12.58,12.58,11.49,12.09,2.16,2.15,2.15
47.06,-10.23,-12.36,-10.28,-12.41,12.41,11.25,11.86,2.17,2.13,2.13
47.53,-10.11,-12.23,-10.12,-12.23,12.23,11.01,11.62,2.12,2.11,2.12
48.01,-9.99,-12.11,-9.96,-12.05,12.05,10.77,11.39,2.06,2.10,2.11
48.49,-9.81,-11.91,-9.79,-11.87,11.87,10.54,11.17,2.06,2.08,2.09
48.97,-9.63,-11.70,-9.62,-11.69,11.69,10.32,10.95,2.06,2.07,2.07
49.46,-9.47,-11.52,-9.46,-11.51,11.51,10.09,10.73,2.04,2.05,2.05
49.96,-9.30,-11.33,-9.29,-11.32,11.32,9.88,10.51,2.02,2.03,2.02
50.46,-9.13,-11.15,-9.12,-11.14,11.14,9.66,10.30,2.01,2.02,2.02
50.96,-8.96,-10.96,-8.97,-10.97,10.97,9.45,10.09,2.01,2.00,2.00
51.47,-8.78,-10.76,-8.81,-10.80,10.80,9.24,9.88,2.01,1.99,1.98
51.99,-8.60,-10.57,-8.65,-10.62,10.62,9.04,9.68,2.02,1.97,1.96
52.51,-8.45,-10.41,-8.49,-10.45,10.45,8.84,9.48,2.00,1.96,1.95
53.03,-8.31,-10.26,-8.33,-10.27,10.27,8.65,9.28,1.96,1.94,1.95
53.56,-8.17,-10.10,-8.17,-10.10,10.10,8.46,9.09,1.93,1.92,1.93
54.10,-8.03,-9.95,-8.02,-9.93,9.93,8.27,8.89,1.89,1.91,1.91
54.64,-7.86,-9.76,-7.86,-9.75,9.75,8.08,8.71,1.89,1.90,1.89
55.18,-7.71,-9.60,-7.70,-9.58,9.58,7.90,8.52,1.87,1.88,1.88
55.74,-7.60,-9.47,-7.54,-9.41,9.41,7.73,8.34,1.81,1.87,1.86
56.29,-7.44,-9.29,-7.39,-9.24,9.24,7.56,8.16,1.80,1.85,1.85
56.86,-7.26,-9.09,-7.23,-9.07,9.07,7.39,7.98,1.80,1.83,1.83
57.42,-7.07,-8.87,-7.08,-8.89,8.89,7.22,7.81,1.82,1.81,1.80
58.00,-6.88,-8.67,-6.92,-8.71,8.71,7.06,7.64,1.83,1.79,1.79
58.58,-6.71,-8.49,-6.76,-8.52,8.52,6.90,7.47,1.81,1.76,1.77
59.16,-6.55,-8.30,-6.60,-8.34,8.34,6.74,7.31,1.78,1.73,1.75
59.76,-6.43,-8.16,-6.45,-8.15,8.15,6.59,7.15,1.71,1.70,1.72
60.35,-6.30,-7.98,-6.29,-7.96,7.96,6.44,6.99,1.66,1.67,1.68
60.96,-6.17,-7.81,-6.14,-7.77,7.77,6.29,6.84,1.60,1.63,1.64
61.57,-6.01,-7.61,-6.00,-7.58,7.58,6.14,6.69,1.57,1.59,1.59
62.18,-5.85,-7.40,-5.85,-7.40,7.40,6.00,6.54,1.54,1.55,1.54
62.80,-5.69,-7.19,-5.71,-7.21,7.21,5.86,6.40,1.52,1.50,1.49
63.43,-5.56,-7.01,-5.57,-7.03,7.03,5.73,6.26,1.47,1.45,1.44
64.07,-5.44,-6.84,-5.44,-6.84,6.84,5.59,6.12,1.40,1.40,1.39
64.71,-5.30,-6.65,-5.31,-6.66,6.66,5.46,5.99,1.36,1.35,1.34
65.35,-5.17,-6.47,-5.18,-6.48,6.48,5.33,5.86,1.30,1.30,1.30
66.01,-5.05,-6.30,-5.04,-6.29,6.29,5.20,5.73,1.24,1.25,1.25
66.67,-4.92,-6.11,-4.91,-6.10,6.10,5.08,5.61,1.18,1.19,1.19
67.33,-4.80,-5.94,-4.78,-5.92,5.92,4.96,5.49,1.12,1.14,1.14
68.01,-4.67,-5.76,-4.65,-5.74,5.74,4.83,5.37,1.06,1.09,1.09
68.69,-4.51,-5.55,-4.53,-5.56,5.56,4.72,5.25,1.04,1.03,1.03
69.37,-4.38,-5.36,-4.41,-5.38,5.38,4.60,5.13,1.00,0.97,0.97
70.07,-4.27,-5.19,-4.28,-5.20,5.20,4.49,5.02,0.92,0.91,0.91
70.77,-4.18,-5.05,-4.16,-5.02,5.02,4.37,4.90,0.83,0.85,0.86
71.48,-4.06,-4.87,-4.05,-4.84,4.84,4.26,4.79,0.78,0.79,0.80
72.19,-3.93,-4.66,-3.94,-4.67,4.67,4.15,4.68,0.73,0.73,0.73
72.91,-3.82,-4.49,-3.83,-4.50,4.50,4.05,4.57,0.67,0.67,0.67
73.64,-3.71,-4.32,-3.73,-4.33,4.33,3.94,4.46,0.62,0.60,0.60
74.38,-3.61,-4.15,-3.63,-4.17,4.17,3.84,4.36,0.56,0.54,0.54
75.12,-3.54,-4.01,-3.54,-4.02,4.02,3.73,4.25,0.48,0.48,0.47
75.87,-3.45,-3.86,-3.46,-3.87,3.87,3.63,4.14,0.42,0.41,0.40
76.63,-3.33,-3.68,-3.38,-3.73,3.73,3.53,4.03,0.40,0.35,0.35
77.40,-3.26,-3.55,-3.29,-3.58,3.58,3.43,3.93,0.32,0.29,0.29
78.17,-3.22,-3.44,-3.21,-3.44,3.44,3.34,3.82,0.22,0.23,0.22
78.95,-3.15,-3.33,-3.13,-3.30,3.30,3.24,3.71,0.15,0.17,0.18
79.74,-3.07,-3.19,-3.05,-3.17,3.17,3.14,3.60,0.10,0.11,0.11
80.54,-3.00,-3.06,-2.97,-3.03,3.03,3.05,3.49,0.03,0.06,0.06
81.35,-2.93,-2.93,-2.90,-2.90,2.90,2.96,3.38,-0.03,0.00,-0.00
82.16,-2.84,-2.79,-2.82,-2.76,2.76,2.87,3.27,-0.08,-0.05,-0.06
82.98,-2.75,-2.65,-2.73,-2.62,2.62,2.77,3.16,-0.13,-0.11,-0.10
83.81,-2.65,-2.48,-2.65,-2.48,2.48,2.68,3.05,-0.17,-0.17,-0.17
84.65,-2.53,-2.31,-2.57,-2.35,2.35,2.59,2.94,-0.19,-0.22,-0.23
85.50,-2.46,-2.19,-2.49,-2.20,2.20,2.51,2.82,-0.26,-0.28,-0.27
86.35,-2.42,-2.09,-2.40,-2.06,2.06,2.42,2.71,-0.36,-0.34,-0.33
87.22,-2.34,-1.95,-2.31,-1.92,1.92,2.33,2.59,-0.43,-0.40,-0.39
88.09,-2.18,-1.73,-2.23,-1.78,1.78,2.24,2.47,-0.41,-0.46,-0.45
88.97,-2.14,-1.63,-2.15,-1.64,1.64,2.16,2.35,-0.50,-0.52,-0.51
89.86,-2.11,-1.54,-2.07,-1.50,1.50,2.07,2.23,-0.61,-0.58,-0.58
90.76,-1.97,-1.33,-2.00,-1.37,1.37,1.98,2.11,-0.61,-0.64,-0.64
91.66,-1.93,-1.24,-1.94,-1.24,1.24,1.90,1.99,-0.69,-0.70,-0.69
92.58,-1.91,-1.15,-1.88,-1.12,1.12,1.81,1.86,-0.79,-0.75,-0.77
93.51,-1.81,-0.99,-1.82,-1.01,1.01,1.73,1.74,-0.81,-0.81,-0.82
94.44,-1.73,-0.86,-1.77,-0.89,0.89,1.64,1.61,-0.84,-0.87,-0.87
95.39,-1.71,-0.78,-1.71,-0.78,0.78,1.56,1.49,-0.93,-0.93,-0.93
96.34,-1.67,-0.68,-1.66,-0.67,0.67,1.47,1.36,-1.00,-0.99,-1.00
97.30,-1.62,-0.57,-1.62,-0.57,0.57,1.39,1.23,-1.05,-1.05,-1.05
98.28,-1.56,-0.45,-1.59,-0.48,0.48,1.30,1.10,-1.08,-1.11,-1.11
99.26,-1.56,-0.40,-1.56,-0.39,0.39,1.22,0.97,-1.17,-1.16,-1.17
100.25,-1.58,-0.36,-1.53,-0.31,0.31,1.13,0.84,-1.27,-1.22,-1.22
101.25,-1.55,-0.27,-1.52,-0.24,0.24,1.05,0.71,-1.32,-1.28,-1.28
102.27,-1.44,-0.11,-1.50,-0.16,0.16,0.96,0.58,-1.28,-1.34,-1.34
103.29,-1.43,-0.03,-1.49,-0.09,0.09,0.87,0.45,-1.34,-1.40,-1.40
104.32,-1.44,0.01,-1.49,-0.03,0.03,0.79,0.32,-1.41,-1.46,-1.45
105.37,-1.46,0.05,-1.48,0.03,-0.03,0.70,0.19,-1.50,-1.52,-1.51
106.42,-1.49,0.08,-1.48,0.10,-0.10,0.61,0.07,-1.59,-1.58,-1.57
107.48,-1.51,0.12,-1.49,0.15,-0.15,0.52,-0.06,-1.67,-1.64,-1.64
108.56,-1.54,0.16,-1.49,0.21,-0.21,0.44,-0.18,-1.75,-1.70,-1.70
109.64,-1.54,0.22,-1.49,0.27,-0.27,0.35,-0.30,-1.81,-1.76,-1.76
110.74,-1.49,0.34,-1.49,0.33,-0.33,0.26,-0.42,-1.82,-1.83,-1.83
111.85,-1.49,0.38,-1.49,0.39,-0.39,0.17,-0.54,-1.89,-1.89,-1.88
112.97,-1.50,0.45,-1.50,0.45,-0.45,0.08,-0.65,-1.95,-1.95,-1.95
114.10,-1.51,0.50,-1.51,0.50,-0.50,-0.01,-0.75,-2.01,-2.01,-2.01
115.24,-1.51,0.55,-1.51,0.55,-0.55,-0.10,-0.86,-2.06,-2.06,-2.07
116.39,-1.51,0.62,-1.51,0.61,-0.61,-0.19,-0.95,-2.12,-2.12,-2.13
117.55,-1.51,0.66,-1.51,0.66,-0.66,-0.28,-1.04,-2.18,-2.17,-2.18
118.73,-1.50,0.73,-1.50,0.72,-0.72,-0.36,-1.13,-2.22,-2.22,-2.23
119.92,-1.49,0.77,-1.50,0.76,-0.76,-0.45,-1.21,-2.26,-2.27,-2.27
121.12,-1.49,0.83,-1.51,0.81,-0.81,-0.54,-1.28,-2.30,-2.31,-2.32
122.33,-1.49,0.87,-1.52,0.84,-0.84,-0.63,-1.35,-2.33,-2.36,-2.36
123.55,-1.54,0.85,-1.53,0.87,-0.87,-0.71,-1.41,-2.41,-2.40,-2.40
124.79,-1.58,0.86,-1.55,0.89,-0.89,-0.80,-1.46,-2.47,-2.44,-2.44
126.03,-1.56,0.92,-1.57,0.91,-0.91,-0.88,-1.50,-2.48,-2.48,-2.48
127.29,-1.54,0.97,-1.58,0.94,-0.94,-0.96,-1.54,-2.48,-2.52,-2.51
128.57,-1.54,1.02,-1.60,0.96,-0.96,-1.04,-1.57,-2.50,-2.56,-2.56
129.85,-1.62,0.98,-1.62,0.98,-0.98,-1.11,-1.60,-2.61,-2.60,-2.60
131.15,-1.64,0.99,-1.63,1.00,-1.00,-1.19,-1.61,-2.65,-2.64,-2.64
132.46,-1.68,0.99,-1.65,1.03,-1.03,-1.26,-1.63,-2.71,-2.67,-2.67
133.79,-1.74,0.97,-1.67,1.05,-1.05,-1.32,-1.63,-2.79,-2.71,-2.71
135.12,-1.74,1.01,-1.69,1.06,-1.06,-1.38,-1.63,-2.80,-2.75,-2.76
136.48,-1.73,1.05,-1.72,1.07,-1.07,-1.44,-1.63,-2.80,-2.78,-2.78
137.84,-1.72,1.10,-1.74,1.08,-1.08,-1.49,-1.62,-2.80,-2.82,-2.83
139.22,-1.71,1.16,-1.76,1.09,-1.09,-1.54,-1.60,-2.81,-2.86,-2.87
140.61,-1.71,1.20,-1.79,1.11,-1.11,-1.59,-1.58,-2.82,-2.89,-2.91
142.02,-1.78,1.15,-1.81,1.12,-1.12,-1.62,-1.56,-2.90,-2.94,-2.93
143.44,-1.80,1.17,-1.84,1.13,-1.13,-1.65,-1.54,-2.94,-2.98,-2.97
144.87,-1.87,1.15,-1.87,1.15,-1.15,-1.68,-1.51,-3.03,-3.03,-3.02
146.32,-1.92,1.15,-1.90,1.17,-1.17,-1.70,-1.49,-3.10,-3.08,-3.07
147.78,-2.01,1.10,-1.93,1.20,-1.20,-1.72,-1.46,-3.21,-3.13,-3.11
149.26,-2.04,1.12,-1.97,1.23,-1.23,-1.72,-1.42,-3.27,-3.20,-3.16
150.75,-2.02,1.22,-2.01,1.26,-1.26,-1.73,-1.39,-3.28,-3.26,-3.24
152.26,-1.99,1.32,-2.05,1.29,-1.29,-1.72,-1.36,-3.28,-3.33,-3.31
153.78,-1.99,1.39,-2.09,1.32,-1.32,-1.72,-1.33,-3.31,-3.41,-3.39
155.32,-2.15,1.32,-2.13,1.35,-1.35,-1.70,-1.30,-3.51,-3.48,-3.47
156.88,-2.25,1.30,-2.16,1.40,-1.40,-1.69,-1.26,-3.65,-3.56,-3.55
158.44,-2.22,1.42,-2.20,1.44,-1.44,-1.66,-1.23,-3.66,-3.64,-3.64
160.03,-2.21,1.52,-2.25,1.46,-1.46,-1.64,-1.20,-3.68,-3.71,-3.73
161.63,-2.25,1.56,-2.29,1.49,-1.49,-1.61,-1.17,-3.75,-3.79,-3.81
163.24,-2.30,1.57,-2.33,1.52,-1.52,-1.58,-1.14,-3.82,-3.85,-3.88
164.88,-2.38,1.55,-2.38,1.53,-1.53,-1.54,-1.12,-3.92,-3.92,-3.93
166.53,-2.42,1.57,-2.44,1.53,-1.53,-1.50,-1.09,-3.95,-3.97,-3.99
168.19,-2.51,1.52,-2.51,1.51,-1.51,-1.46,-1.07,-4.02,-4.02,-4.03
169.87,-2.54,1.54,-2.56,1.49,-1.49,-1.42,-1.04,-4.04,-4.06,-4.08
171.57,-2.58,1.52,-2.61,1.47,-1.47,-1.37,-1.02,-4.06,-4.09,-4.10
173.29,-2.66,1.46,-2.66,1.46,-1.46,-1.32,-1.00,-4.12,-4.11,-4.12
175.02,-2.79,1.34,-2.71,1.43,-1.43,-1.28,-0.99,-4.22,-4.13,-4.13
176.77,-2.80,1.35,-2.76,1.39,-1.39,-1.23,-0.97,-4.19,-4.15,-4.16
178.54,-2.72,1.44,-2.81,1.36,-1.36,-1.18,-0.96,-4.08,-4.16,-4.16
180.32,-2.87,1.29,-2.85,1.33,-1.33,-1.13,-0.94,-4.20,-4.17,-4.16
182.13,-2.97,1.19,-2.88,1.31,-1.31,-1.08,-0.93,-4.28,-4.18,-4.16
183.95,-2.95,1.23,-2.90,1.29,-1.29,-1.03,-0.92,-4.24,-4.19,-4.18
185.79,-2.93,1.25,-2.94,1.27,-1.27,-0.98,-0.91,-4.20,-4.21,-4.18
187.65,-2.92,1.29,-2.96,1.26,-1.26,-0.94,-0.91,-4.18,-4.22,-4.21
189.52,-2.96,1.26,-2.99,1.24,-1.24,-0.89,-0.90,-4.21,-4.23,-4.22
191.42,-3.00,1.25,-3.01,1.24,-1.24,-0.84,-0.90,-4.24,-4.25,-4.25
193.33,-3.05,1.22,-3.04,1.23,-1.23,-0.79,-0.90,-4.28,-4.27,-4.27
195.27,-3.06,1.23,-3.08,1.21,-1.21,-0.75,-0.90,-4.28,-4.29,-4.29
197.22,-3.07,1.24,-3.12,1.19,-1.19,-0.70,-0.90,-4.27,-4.31,-4.31
199.19,-3.12,1.22,-3.16,1.18,-1.18,-0.66,-0.90,-4.30,-4.34,-4.35
201.18,-3.14,1.22,-3.19,1.17,-1.17,-0.61,-0.90,-4.32,-4.36,-4.37
203.19,-3.25,1.13,-3.23,1.16,-1.16,-0.57,-0.90,-4.41,-4.39,-4.39
205.23,-3.34,1.07,-3.29,1.13,-1.13,-0.53,-0.90,-4.47,-4.41,-4.41
207.28,-3.30,1.12,-3.34,1.10,-1.10,-0.49,-0.91,-4.40,-4.44,-4.42
209.35,-3.35,1.10,-3.38,1.08,-1.08,-0.45,-0.91,-4.43,-4.46,-4.45
211.44,-3.45,1.04,-3.42,1.05,-1.05,-0.41,-0.91,-4.51,-4.48,-4.49
213.56,-3.58,0.91,-3.47,1.02,-1.02,-0.37,-0.91,-4.61,-4.50,-4.50
215.69,-3.59,0.92,-3.52,1.00,-1.00,-0.33,-0.92,-4.59,-4.51,-4.51
217.85,-3.48,1.04,-3.56,0.97,-0.97,-0.30,-0.92,-4.45,-4.53,-4.53
220.03,-3.54,1.00,-3.61,0.93,-0.93,-0.26,-0.92,-4.47,-4.54,-4.54
222.23,-3.62,0.94,-3.66,0.89,-0.89,-0.22,-0.92,-4.51,-4.55,-4.57
224.45,-3.77,0.79,-3.71,0.85,-0.85,-0.19,-0.91,-4.62,-4.55,-4.56
226.70,-3.76,0.80,-3.74,0.81,-0.81,-0.16,-0.91,-4.58,-4.56,-4.56
228.96,-3.68,0.87,-3.78,0.77,-0.77,-0.12,-0.90,-4.46,-4.55,-4.56
231.25,-3.80,0.75,-3.83,0.72,-0.72,-0.09,-0.89,-4.53,-4.55,-4.55
233.57,-3.87,0.67,-3.87,0.67,-0.67,-0.06,-0.88,-4.54,-4.54,-4.54
235.90,-3.95,0.58,-3.90,0.62,-0.62,-0.02,-0.86,-4.58,-4.53,-4.53
238.26,-3.91,0.61,-3.93,0.59,-0.59,0.01,-0.84,-4.50,-4.51,-4.52
240.64,-4.03,0.47,-3.97,0.53,-0.53,0.04,-0.82,-4.56,-4.50,-4.51
243.05,-4.11,0.36,-4.01,0.47,-0.47,0.07,-0.79,-4.58,-4.48,-4.48
245.48,-4.07,0.38,-4.04,0.42,-0.42,0.10,-0.76,-4.50,-4.46,-4.46
247.93,-4.00,0.42,-4.06,0.38,-0.38,0.13,-0.73,-4.38,-4.44,-4.43
250.41,-3.99,0.42,-4.09,0.33,-0.33,0.16,-0.69,-4.32,-4.42,-4.42
252.92,-4.18,0.20,-4.12,0.27,-0.27,0.18,-0.65,-4.45,-4.39,-4.38
255.45,-4.20,0.16,-4.16,0.21,-0.21,0.21,-0.61,-4.41,-4.37,-4.36
258.00,-4.15,0.19,-4.19,0.16,-0.16,0.24,-0.56,-4.31,-4.35,-4.34
260.58,-4.09,0.24,-4.23,0.10,-0.10,0.27,-0.51,-4.19,-4.33,-4.33
263.19,-4.19,0.11,-4.27,0.03,-0.03,0.30,-0.45,-4.23,-4.30,-4.30
265.82,-4.41,-0.13,-4.31,-0.03,0.03,0.33,-0.39,-4.38,-4.28,-4.29
268.48,-4.36,-0.10,-4.36,-0.10,0.10,0.35,-0.32,-4.26,-4.26,-4.26
271.16,-4.37,-0.14,-4.40,-0.17,0.17,0.38,-0.26,-4.21,-4.23,-4.23
273.87,-4.46,-0.25,-4.45,-0.24,0.24,0.41,-0.18,-4.22,-4.21,-4.22
276.61,-4.54,-0.36,-4.50,-0.31,0.31,0.44,-0.11,-4.23,-4.18,-4.18
279.38,-4.60,-0.44,-4.55,-0.39,0.39,0.47,-0.03,-4.21,-4.16,-4.16
282.17,-4.65,-0.52,-4.59,-0.46,0.46,0.49,0.05,-4.20,-4.13,-4.14
284.99,-4.64,-0.54,-4.64,-0.54,0.54,0.52,0.13,-4.11,-4.11,-4.10
287.84,-4.68,-0.60,-4.69,-0.61,0.61,0.55,0.22,-4.07,-4.08,-4.09
290.72,-4.73,-0.68,-4.72,-0.67,0.67,0.58,0.31,-4.06,-4.05,-4.05
293.63,-4.77,-0.74,-4.75,-0.73,0.73,0.61,0.40,-4.04,-4.02,-4.03
296.57,-4.81,-0.82,-4.81,-0.82,0.82,0.64,0.50,-4.00,-3.99,-3.99
299.53,-4.85,-0.89,-4.90,-0.94,0.94,0.67,0.59,-3.92,-3.97,-3.97
302.53,-4.95,-1.00,-5.00,-1.06,1.06,0.70,0.69,-3.89,-3.94,-3.95
305.55,-5.04,-1.14,-5.10,-1.19,1.19,0.73,0.79,-3.86,-3.92,-3.91
308.61,-5.15,-1.26,-5.21,-1.32,1.32,0.76,0.90,-3.84,-3.89,-3.89
311.69,-5.14,-1.28,-5.31,-1.43,1.43,0.79,1.00,-3.71,-3.87,-3.87
314.81,-5.23,-1.39,-5.40,-1.55,1.55,0.82,1.11,-3.68,-3.85,-3.84
317.96,-5.36,-1.54,-5.49,-1.66,1.66,0.85,1.21,-3.70,-3.83,-3.82
321.14,-5.56,-1.75,-5.58,-1.77,1.77,0.88,1.32,-3.79,-3.81,-3.82
324.35,-5.98,-2.18,-5.66,-1.86,1.86,0.92,1.43,-4.12,-3.80,-3.80
327.59,-6.19,-2.41,-5.73,-1.95,1.95,0.95,1.55,-4.24,-3.78,-3.78
330.87,-6.04,-2.27,-5.80,-2.03,2.03,0.99,1.66,-4.02,-3.77,-3.78
334.18,-5.90,-2.14,-5.85,-2.09,2.09,1.02,1.78,-3.81,-3.76,-3.76
337.52,-5.88,-2.13,-5.90,-2.15,2.15,1.06,1.90,-3.73,-3.75,-3.75
340.90,-5.74,-2.01,-5.94,-2.20,2.20,1.09,2.01,-3.54,-3.74,-3.74
344.30,-5.74,-2.01,-5.97,-2.24,2.24,1.13,2.14,-3.51,-3.74,-3.73
347.75,-5.92,-2.19,-6.01,-2.28,2.28,1.17,2.26,-3.65,-3.73,-3.73
351.23,-5.98,-2.26,-6.02,-2.30,2.30,1.21,2.38,-3.69,-3.73,-3.72
354.74,-5.98,-2.26,-6.03,-2.30,2.30,1.25,2.51,-3.68,-3.72,-3.73
358.28,-6.03,-2.31,-6.03,-2.31,2.31,1.29,2.64,-3.72,-3.72,-3.72
361.87,-6.08,-2.36,-6.04,-2.32,2.32,1.33,2.77,-3.76,-3.72,-3.72
365.49,-6.15,-2.44,-6.09,-2.37,2.37,1.37,2.90,-3.78,-3.72,-3.71
369.14,-6.20,-2.48,-6.15,-2.43,2.43,1.42,3.03,-3.77,-3.72,-3.73
372.83,-6.24,-2.51,-6.21,-2.49,2.49,1.46,3.17,-3.76,-3.72,-3.73
376.56,-6.27,-2.54,-6.27,-2.55,2.55,1.51,3.30,-3.73,-3.73,-3.73
380.33,-6.27,-2.55,-6.33,-2.60,2.60,1.56,3.44,-3.67,-3.73,-3.72
384.13,-6.42,-2.70,-6.39,-2.66,2.66,1.61,3.58,-3.77,-3.73,-3.72
387.97,-6.37,-2.64,-6.46,-2.72,2.72,1.66,3.72,-3.65,-3.74,-3.74
391.85,-6.49,-2.75,-6.52,-2.78,2.78,1.71,3.86,-3.71,-3.74,-3.75
395.77,-6.61,-2.87,-6.59,-2.84,2.84,1.76,4.01,-3.77,-3.75,-3.74
399.73,-6.69,-2.94,-6.66,-2.91,2.91,1.82,4.15,-3.78,-3.76,-3.75
403.72,-6.70,-2.95,-6.74,-2.98,2.98,1.87,4.29,-3.72,-3.76,-3.75
407.76,-6.69,-2.93,-6.83,-3.07,3.07,1.93,4.44,-3.63,-3.77,-3.76
411.84,-6.94,-3.18,-6.91,-3.14,3.14,1.99,4.58,-3.80,-3.77,-3.76
415.96,-7.05,-3.29,-6.99,-3.22,3.22,2.05,4.72,-3.83,-3.77,-3.77
420.12,-7.02,-3.26,-7.07,-3.30,3.30,2.12,4.86,-3.72,-3.77,-3.77
424.32,-7.28,-3.51,-7.14,-3.38,3.38,2.18,5.00,-3.91,-3.76,-3.77
