frequency,raw,error,smoothed,error_smoothed,equalization,parametric_eq,fixed_band_eq,equalized_raw,equalized_smoothed,target
20.00,-10.02,-10.88,-10.01,-10.89,10.89,10.45,4.55,0.87,0.88,0.86
20.20,-10.00,-10.89,-9.96,-10.86,10.86,10.48,4.67,0.86,0.90,0.89
20.40,-9.93,-10.85,-9.91,-10.83,10.83,10.51,4.79,0.90,0.92,0.92
20.61,-9.86,-10.80,-9.85,-10.79,10.79,10.53,4.92,0.93,0.94,0.94
20.81,-9.77,-10.74,-9.80,-10.76,10.76,10.55,5.05,0.99,0.96,0.97
21.02,-9.72,-10.72,-9.75,-10.72,10.72,10.57,5.18,1.00,0.97,1.00
21.23,-9.68,-10.69,-9.70,-10.69,10.69,10.58,5.32,1.01,0.99,1.01
21.44,-9.63,-10.65,-9.65,-10.65,10.65,10.58,5.46,1.02,1.00,1.02
21.66,-9.58,-10.61,-9.60,-10.61,10.61,10.58,5.60,1.03,1.01,1.02
21.87,-9.55,-10.57,-9.56,-10.58,10.58,10.58,5.75,1.03,1.02,1.02
22.09,-9.51,-10.54,-9.51,-10.54,10.54,10.58,5.90,1.03,1.03,1.03
22.31,-9.46,-10.49,-9.47,-10.50,10.50,10.57,6.05,1.04,1.03,1.03
22.54,-9.43,-10.46,-9.42,-10.46,10.46,10.56,6.21,1.03,1.03,1.03
22.76,-9.38,-10.41,-9.39,-10.42,10.42,10.54,6.38,1.04,1.03,1.03
22.99,-9.34,-10.36,-9.35,-10.38,10.38,10.52,6.54,1.04,1.03,1.02
23.22,-9.31,-10.33,-9.31,-10.34,10.34,10.50,6.72,1.03,1.03,1.02
23.45,-9.28,-10.30,-9.27,-10.30,10.30,10.47,6.89,1.02,1.03,1.02
23.69,-9.25,-10.27,-9.22,-10.25,10.25,10.44,7.07,1.00,1.03,1.02
23.92,-9.19,-10.21,-9.18,-10.20,10.20,10.41,7.26,1.01,1.02,1.02
24.16,-9.16,-10.19,-9.14,-10.16,10.16,10.38,7.44,1.00,1.02,1.03
24.40,-9.10,-10.13,-9.09,-10.11,10.11,10.34,7.63,1.01,1.02,1.03
24.65,-9.04,-10.06,-9.04,-10.06,10.06,10.30,7.83,1.02,1.02,1.02
24.89,-8.98,-9.99,-9.00,-10.01,10.01,10.26,8.03,1.03,1.01,1.01
25.14,-8.95,-9.96,-8.95,-9.96,9.96,10.22,8.23,1.01,1.01,1.01
25.39,-8.89,-9.90,-8.90,-9.91,9.91,10.17,8.44,1.02,1.01,1.01
25.65,-8.84,-9.85,-8.86,-9.87,9.87,10.12,8.64,1.03,1.01,1.01
25.91,-8.79,-9.79,-8.81,-9.82,9.82,10.08,8.85,1.02,1.01,1.00
26.16,-8.75,-9.75,-8.76,-9.77,9.77,10.03,9.06,1.02,1.00,1.00
26.43,-8.72,-9.72,-8.72,-9.72,9.72,9.98,9.27,0.99,1.00,1.00
26.69,-8.68,-9.68,-8.67,-9.66,9.66,9.92,9.49,0.98,1.00,1.00
26.96,-8.63,-9.63,-8.62,-9.61,9.61,9.87,9.70,0.98,0.99,1.00
27.23,-8.60,-9.59,-8.58,-9.57,9.57,9.82,9.90,0.97,0.99,0.99
27.50,-8.56,-9.55,-8.54,-9.52,9.52,9.76,10.11,0.96,0.99,0.99
27.77,-8.51,-9.49,-8.50,-9.48,9.48,9.71,10.31,0.97,0.98,0.98
28.05,-8.46,-9.44,-8.46,-9.44,9.44,9.65,10.51,0.98,0.98,0.98
28.33,-8.41,-9.38,-8.42,-9.39,9.39,9.60,10.69,0.98,0.97,0.97
28.62,-8.35,-9.32,-8.38,-9.35,9.35,9.54,10.87,1.00,0.97,0.97
28.90,-8.32,-9.28,-8.34,-9.31,9.31,9.49,11.04,0.99,0.96,0.96
29.19,-8.29,-9.24,-8.31,-9.27,9.27,9.43,11.20,0.98,0.96,0.95
29.48,-8.26,-9.22,-8.27,-9.23,9.23,9.38,11.34,0.97,0.95,0.96
29.78,-8.26,-9.21,-8.24,-9.19,9.19,9.32,11.46,0.93,0.95,0.95
30.08,-8.24,-9.19,-8.21,-9.16,9.16,9.27,11.57,0.92,0.94,0.95
30.38,-8.21,-9.15,-8.19,-9.12,9.12,9.22,11.66,0.91,0.94,0.93
30.68,-8.16,-9.09,-8.16,-9.09,9.09,9.17,11.72,0.93,0.93,0.93
30.99,-8.13,-9.05,-8.14,-9.07,9.07,9.11,11.77,0.93,0.92,0.92
31.30,-8.12,-9.04,-8.12,-9.04,9.04,9.06,11.80,0.92,0.92,0.92
31.61,-8.07,-8.99,-8.09,-9.00,9.00,9.01,11.80,0.93,0.91,0.92
31.93,-8.07,-8.97,-8.07,-8.97,8.97,8.96,11.78,0.90,0.90,0.90
32.24,-8.07,-8.96,-8.04,-8.94,8.94,8.91,11.75,0.87,0.90,0.89
32.57,-8.02,-8.91,-8.02,-8.91,8.91,8.87,11.69,0.89,0.89,0.89
32.89,-8.02,-8.90,-8.00,-8.88,8.88,8.82,11.61,0.86,0.88,0.88
33.22,-7.98,-8.85,-7.98,-8.85,8.85,8.77,11.52,0.87,0.87,0.87
33.55,-7.97,-8.84,-7.96,-8.83,8.83,8.73,11.41,0.86,0.86,0.87
33.89,-7.93,-8.78,-7.95,-8.80,8.80,8.68,11.29,0.87,0.86,0.85
34.23,-7.89,-8.74,-7.94,-8.78,8.78,8.64,11.16,0.89,0.85,0.85
34.57,-7.88,-8.72,-7.92,-8.76,8.76,8.60,11.01,0.88,0.84,0.84
34.92,-7.88,-8.70,-7.90,-8.73,8.73,8.56,10.86,0.85,0.83,0.82
35.27,-7.88,-8.70,-7.89,-8.70,8.70,8.52,10.71,0.82,0.82,0.82
35.62,-7.91,-8.72,-7.87,-8.68,8.68,8.48,10.55,0.77,0.81,0.81
35.97,-7.89,-8.68,-7.85,-8.65,8.65,8.45,10.38,0.76,0.80,0.79
36.33,-7.88,-8.67,-7.84,-8.62,8.62,8.41,10.21,0.74,0.79,0.79
36.70,-7.86,-8.63,-7.82,-8.60,8.60,8.38,10.05,0.74,0.77,0.77
37.06,-7.82,-8.58,-7.81,-8.57,8.57,8.34,9.88,0.75,0.76,0.76
37.43,-7.77,-8.52,-7.79,-8.54,8.54,8.31,9.71,0.77,0.75,0.75
37.81,-7.74,-8.48,-7.78,-8.52,8.52,8.28,9.55,0.78,0.74,0.74
38.19,-7.72,-8.44,-7.76,-8.48,8.48,8.25,9.38,0.76,0.73,0.72
38.57,-7.70,-8.42,-7.73,-8.45,8.45,8.22,9.22,0.75,0.71,0.72
38.95,-7.70,-8.40,-7.70,-8.41,8.41,8.19,9.07,0.71,0.70,0.70
39.34,-7.70,-8.39,-7.67,-8.36,8.36,8.16,8.91,0.66,0.69,0.69
39.74,-7.65,-8.32,-7.64,-8.32,8.32,8.13,8.77,0.67,0.68,0.67
40.14,-7.65,-8.32,-7.62,-8.29,8.29,8.10,8.62,0.64,0.67,0.67
40.54,-7.64,-8.29,-7.59,-8.25,8.25,8.08,8.48,0.61,0.66,0.65
40.94,-7.58,-8.22,-7.56,-8.21,8.21,8.05,8.35,0.63,0.64,0.64
41.35,-7.53,-8.15,-7.54,-8.17,8.17,8.02,8.22,0.64,0.63,0.63
41.76,-7.47,-8.09,-7.51,-8.12,8.12,8.00,8.10,0.65,0.62,0.62
42.18,-7.44,-8.05,-7.48,-8.08,8.08,7.97,7.98,0.64,0.60,0.61
42.60,-7.42,-8.01,-7.44,-8.03,8.03,7.94,7.87,0.61,0.59,0.59
43.03,-7.40,-7.98,-7.40,-7.98,7.98,7.92,7.76,0.58,0.57,0.58
43.46,-7.37,-7.94,-7.37,-7.92,7.92,7.89,7.66,0.55,0.56,0.57
43.90,-7.37,-7.91,-7.33,-7.87,7.87,7.86,7.56,0.50,0.54,0.54
44.33,-7.31,-7.83,-7.29,-7.82,7.82,7.84,7.47,0.51,0.52,0.52
44.78,-7.26,-7.76,-7.26,-7.76,7.76,7.81,7.38,0.50,0.51,0.50
45.23,-7.22,-7.70,-7.22,-7.71,7.71,7.78,7.30,0.49,0.49,0.48
45.68,-7.18,-7.64,-7.18,-7.65,7.65,7.75,7.22,0.47,0.47,0.46
46.13,-7.14,-7.58,-7.14,-7.59,7.59,7.72,7.15,0.45,0.45,0.44
46.60,-7.11,-7.54,-7.10,-7.53,7.53,7.69,7.09,0.42,0.42,0.43
47.06,-7.05,-7.46,-7.06,-7.46,7.46,7.65,7.03,0.42,0.40,0.41
47.53,-7.02,-7.40,-7.02,-7.40,7.40,7.62,6.97,0.38,0.38,0.39
48.01,-7.00,-7.37,-6.99,-7.34,7.34,7.58,6.92,0.34,0.35,0.37
48.49,-6.96,-7.30,-6.95,-7.28,7.28,7.55,6.87,0.32,0.33,0.34
48.97,-6.93,-7.24,-6.93,-7.23,7.23,7.51,6.82,0.30,0.31,0.31
49.46,-6.87,-7.14,-6.90,-7.18,7.18,7.47,6.78,0.31,0.28,0.27
49.96,-6.82,-7.06,-6.88,-7.13,7.13,7.42,6.75,0.31,0.26,0.24
50.46,-6.81,-7.04,-6.85,-7.08,7.08,7.38,6.71,0.27,0.23,0.23
50.96,-6.80,-7.00,-6.82,-7.02,7.02,7.33,6.68,0.22,0.20,0.20
51.47,-6.78,-6.95,-6.78,-6.96,6.96,7.28,6.66,0.18,0.17,0.17
51.99,-6.79,-6.93,-6.75,-6.90,6.90,7.23,6.63,0.11,0.15,0.14
52.51,-6.76,-6.88,-6.71,-6.83,6.83,7.18,6.61,0.07,0.12,0.12
53.03,-6.76,-6.86,-6.67,-6.76,6.76,7.13,6.59,0.00,0.09,0.10
53.56,-6.70,-6.77,-6.63,-6.70,6.70,7.07,6.57,-0.00,0.06,0.07
54.10,-6.64,-6.68,-6.59,-6.63,6.63,7.01,6.55,-0.01,0.04,0.04
54.64,-6.55,-6.56,-6.55,-6.56,6.56,6.95,6.53,0.01,0.01,0.01
55.18,-6.46,-6.44,-6.52,-6.50,6.50,6.88,6.52,0.04,-0.02,-0.02
55.74,-6.44,-6.39,-6.48,-6.44,6.44,6.82,6.50,-0.00,-0.04,-0.05
56.29,-6.40,-6.33,-6.44,-6.37,6.37,6.75,6.48,-0.03,-0.07,-0.07
56.86,-6.39,-6.29,-6.41,-6.32,6.32,6.68,6.46,-0.07,-0.10,-0.10
57.42,-6.34,-6.21,-6.39,-6.27,6.27,6.61,6.44,-0.07,-0.12,-0.13
58.00,-6.34,-6.18,-6.37,-6.22,6.22,6.54,6.41,-0.12,-0.15,-0.16
58.58,-6.34,-6.16,-6.36,-6.18,6.18,6.47,6.39,-0.16,-0.18,-0.18
59.16,-6.34,-6.14,-6.36,-6.15,6.15,6.39,6.36,-0.19,-0.21,-0.20
59.76,-6.34,-6.11,-6.37,-6.13,6.13,6.31,6.33,-0.21,-0.24,-0.23
60.35,-6.39,-6.12,-6.38,-6.11,6.11,6.23,6.29,-0.28,-0.27,-0.27
60.96,-6.39,-6.10,-6.39,-6.09,6.09,6.15,6.25,-0.30,-0.30,-0.29
61.57,-6.39,-6.05,-6.40,-6.06,6.06,6.07,6.21,-0.33,-0.34,-0.34
62.18,-6.43,-6.05,-6.40,-6.03,6.03,5.99,6.16,-0.40,-0.37,-0.38
62.80,-6.44,-6.03,-6.39,-5.99,5.99,5.91,6.11,-0.45,-0.40,-0.41
63.43,-6.39,-5.94,-6.38,-5.94,5.94,5.82,6.05,-0.45,-0.44,-0.45
64.07,-6.39,-5.91,-6.35,-5.88,5.88,5.74,5.99,-0.51,-0.47,-0.48
64.71,-6.36,-5.85,-6.32,-5.81,5.81,5.65,5.92,-0.55,-0.51,-0.51
65.35,-6.32,-5.78,-6.27,-5.73,5.73,5.57,5.85,-0.59,-0.54,-0.54
66.01,-6.27,-5.69,-6.22,-5.64,5.64,5.48,5.78,-0.63,-0.58,-0.58
66.67,-6.19,-5.58,-6.15,-5.54,5.54,5.40,5.70,-0.65,-0.61,-0.61
67.33,-6.10,-5.45,-6.09,-5.44,5.44,5.31,5.62,-0.66,-0.65,-0.65
68.01,-6.02,-5.34,-6.02,-5.34,5.34,5.22,5.54,-0.68,-0.68,-0.68
68.69,-5.91,-5.19,-5.95,-5.23,5.23,5.14,5.45,-0.68,-0.72,-0.72
69.37,-5.85,-5.09,-5.89,-5.13,5.13,5.05,5.37,-0.72,-0.76,-0.76
70.07,-5.76,-4.96,-5.83,-5.03,5.03,4.96,5.28,-0.73,-0.80,-0.80
70.77,-5.71,-4.88,-5.78,-4.94,4.94,4.88,5.18,-0.77,-0.83,-0.83
71.48,-5.69,-4.82,-5.73,-4.85,4.85,4.79,5.09,-0.84,-0.87,-0.87
72.19,-5.64,-4.73,-5.68,-4.77,4.77,4.71,5.00,-0.87,-0.91,-0.91
72.91,-5.64,-4.69,-5.64,-4.69,4.69,4.62,4.90,-0.95,-0.95,-0.95
73.64,-5.60,-4.60,-5.61,-4.61,4.61,4.54,4.81,-0.99,-0.99,-1.00
74.38,-5.60,-4.57,-5.58,-4.54,4.54,4.46,4.71,-1.06,-1.03,-1.03
75.12,-5.60,-4.52,-5.55,-4.48,4.48,4.37,4.62,-1.12,-1.07,-1.08
75.87,-5.58,-4.46,-5.53,-4.41,4.41,4.29,4.52,-1.17,-1.11,-1.12
76.63,-5.55,-4.39,-5.51,-4.35,4.35,4.21,4.43,-1.20,-1.15,-1.15
77.40,-5.52,-4.33,-5.49,-4.29,4.29,4.13,4.34,-1.23,-1.20,-1.19
78.17,-5.47,-4.23,-5.47,-4.23,4.23,4.05,4.25,-1.24,-1.24,-1.24
78.95,-5.43,-4.15,-5.44,-4.17,4.17,3.97,4.16,-1.26,-1.28,-1.28
79.74,-5.40,-4.08,-5.42,-4.10,4.10,3.90,4.07,-1.30,-1.32,-1.32
80.54,-5.36,-4.00,-5.39,-4.03,4.03,3.82,3.98,-1.33,-1.36,-1.36
81.35,-5.36,-3.96,-5.37,-3.97,3.97,3.75,3.90,-1.39,-1.40,-1.40
82.16,-5.36,-3.91,-5.36,-3.92,3.92,3.67,3.82,-1.44,-1.45,-1.45
82.98,-5.36,-3.88,-5.36,-3.86,3.86,3.60,3.74,-1.50,-1.49,-1.48
83.81,-5.36,-3.82,-5.36,-3.82,3.82,3.53,3.66,-1.54,-1.54,-1.54
84.65,-5.36,-3.77,-5.36,-3.78,3.78,3.45,3.59,-1.58,-1.58,-1.59
85.50,-5.36,-3.73,-5.37,-3.74,3.74,3.38,3.51,-1.62,-1.63,-1.63
86.35,-5.32,-3.65,-5.39,-3.71,3.71,3.31,3.44,-1.61,-1.68,-1.67
87.22,-5.35,-3.63,-5.41,-3.68,3.68,3.25,3.37,-1.67,-1.72,-1.72
88.09,-5.40,-3.62,-5.43,-3.66,3.66,3.18,3.31,-1.74,-1.77,-1.77
88.97,-5.48,-3.66,-5.45,-3.63,3.63,3.11,3.24,-1.85,-1.82,-1.82
89.86,-5.53,-3.66,-5.47,-3.60,3.60,3.05,3.18,-1.93,-1.87,-1.87
90.76,-5.55,-3.62,-5.49,-3.56,3.56,2.98,3.13,-1.99,-1.93,-1.93
91.66,-5.53,-3.56,-5.50,-3.53,3.53,2.92,3.07,-2.00,-1.98,-1.97
92.58,-5.53,-3.49,-5.52,-3.49,3.49,2.86,3.01,-2.04,-2.03,-2.04
93.51,-5.54,-3.46,-5.53,-3.45,3.45,2.80,2.96,-2.09,-2.09,-2.08
94.44,-5.55,-3.41,-5.55,-3.41,3.41,2.74,2.91,-2.14,-2.14,-2.14
95.39,-5.55,-3.36,-5.55,-3.36,3.36,2.68,2.86,-2.19,-2.20,-2.19
96.34,-5.55,-3.29,-5.56,-3.30,3.30,2.62,2.82,-2.25,-2.25,-2.26
97.30,-5.55,-3.24,-5.55,-3.24,3.24,2.56,2.78,-2.31,-2.31,-2.31
98.28,-5.55,-3.18,-5.55,-3.18,3.18,2.51,2.73,-2.37,-2.37,-2.37
99.26,-5.55,-3.12,-5.54,-3.11,3.11,2.45,2.69,-2.44,-2.43,-2.43
100.25,-5.55,-3.07,-5.54,-3.05,3.05,2.40,2.65,-2.50,-2.48,-2.48
101.25,-5.55,-3.01,-5.55,-3.01,3.01,2.34,2.62,-2.54,-2.54,-2.54
102.27,-5.55,-2.95,-5.56,-2.96,2.96,2.29,2.58,-2.59,-2.60,-2.60
103.29,-5.55,-2.88,-5.57,-2.91,2.91,2.24,2.55,-2.64,-2.66,-2.67
104.32,-5.55,-2.84,-5.58,-2.87,2.87,2.19,2.51,-2.68,-2.72,-2.71
105.37,-5.55,-2.78,-5.60,-2.83,2.83,2.14,2.48,-2.72,-2.77,-2.77
106.42,-5.57,-2.74,-5.62,-2.78,2.78,2.09,2.45,-2.79,-2.83,-2.83
107.48,-5.62,-2.73,-5.64,-2.74,2.74,2.04,2.42,-2.88,-2.89,-2.89
108.56,-5.66,-2.70,-5.66,-2.70,2.70,1.99,2.39,-2.96,-2.95,-2.96
109.64,-5.71,-2.70,-5.68,-2.66,2.66,1.95,2.36,-3.05,-3.01,-3.01
110.74,-5.76,-2.69,-5.70,-2.62,2.62,1.90,2.33,-3.14,-3.08,-3.07
111.85,-5.78,-2.65,-5.72,-2.58,2.58,1.86,2.31,-3.20,-3.14,-3.13
112.97,-5.74,-2.54,-5.73,-2.53,2.53,1.81,2.28,-3.21,-3.20,-3.20
114.10,-5.74,-2.48,-5.75,-2.49,2.49,1.77,2.25,-3.25,-3.26,-3.26
115.24,-5.74,-2.41,-5.76,-2.44,2.44,1.73,2.22,-3.30,-3.33,-3.33
116.39,-5.78,-2.39,-5.77,-2.38,2.38,1.68,2.19,-3.40,-3.39,-3.39
117.55,-5.78,-2.32,-5.78,-2.33,2.33,1.64,2.16,-3.45,-3.45,-3.46
118.73,-5.78,-2.26,-5.78,-2.26,2.26,1.60,2.13,-3.52,-3.51,-3.52
119.92,-5.78,-2.20,-5.78,-2.20,2.20,1.56,2.10,-3.58,-3.58,-3.58
121.12,-5.77,-2.13,-5.78,-2.14,2.14,1.52,2.07,-3.63,-3.64,-3.64
122.33,-5.76,-2.06,-5.78,-2.07,2.07,1.48,2.04,-3.69,-3.70,-3.70
123.55,-5.76,-2.00,-5.77,-2.01,2.01,1.44,2.01,-3.75,-3.77,-3.76
124.79,-5.76,-1.94,-5.77,-1.94,1.94,1.40,1.97,-3.82,-3.83,-3.82
126.03,-5.78,-1.90,-5.77,-1.89,1.89,1.37,1.94,-3.89,-3.89,-3.88
127.29,-5.78,-1.84,-5.77,-1.82,1.82,1.33,1.90,-3.96,-3.95,-3.94
128.57,-5.78,-1.77,-5.77,-1.76,1.76,1.29,1.86,-4.02,-4.01,-4.01
129.85,-5.78,-1.71,-5.77,-1.70,1.70,1.26,1.83,-4.08,-4.07,-4.07
131.15,-5.78,-1.65,-5.77,-1.64,1.64,1.22,1.79,-4.14,-4.12,-4.13
132.46,-5.76,-1.57,-5.77,-1.59,1.59,1.18,1.75,-4.17,-4.18,-4.19
133.79,-5.74,-1.51,-5.77,-1.53,1.53,1.15,1.71,-4.21,-4.24,-4.23
135.12,-5.74,-1.44,-5.77,-1.47,1.47,1.12,1.66,-4.27,-4.29,-4.30
136.48,-5.75,-1.41,-5.76,-1.42,1.42,1.08,1.62,-4.33,-4.35,-4.34
137.84,-5.78,-1.38,-5.76,-1.36,1.36,1.05,1.58,-4.42,-4.40,-4.40
139.22,-5.78,-1.32,-5.76,-1.31,1.31,1.01,1.53,-4.47,-4.45,-4.46
140.61,-5.78,-1.27,-5.76,-1.26,1.26,0.98,1.49,-4.52,-4.50,-4.51
142.02,-5.78,-1.24,-5.76,-1.22,1.22,0.95,1.44,-4.56,-4.55,-4.54
143.44,-5.78,-1.19,-5.76,-1.17,1.17,0.91,1.39,-4.61,-4.60,-4.59
144.87,-5.74,-1.10,-5.76,-1.12,1.12,0.88,1.35,-4.62,-4.64,-4.64
146.32,-5.74,-1.05,-5.77,-1.08,1.08,0.85,1.30,-4.66,-4.69,-4.69
147.78,-5.74,-1.01,-5.77,-1.03,1.03,0.82,1.25,-4.71,-4.74,-4.73
149.26,-5.78,-1.00,-5.77,-0.99,0.99,0.79,1.20,-4.79,-4.78,-4.78
150.75,-5.78,-0.95,-5.77,-0.94,0.94,0.75,1.16,-4.84,-4.83,-4.83
152.26,-5.78,-0.90,-5.77,-0.89,0.89,0.72,1.11,-4.89,-4.88,-4.88
153.78,-5.77,-0.85,-5.76,-0.84,0.84,0.69,1.06,-4.93,-4.92,-4.92
155.32,-5.74,-0.77,-5.76,-0.79,0.79,0.66,1.01,-4.95,-4.97,-4.97
156.88,-5.74,-0.73,-5.75,-0.73,0.73,0.63,0.96,-5.01,-5.02,-5.01
158.44,-5.74,-0.68,-5.73,-0.67,0.67,0.60,0.92,-5.07,-5.06,-5.06
160.03,-5.76,-0.65,-5.72,-0.61,0.61,0.57,0.87,-5.15,-5.11,-5.11
161.63,-5.74,-0.58,-5.70,-0.55,0.55,0.53,0.82,-5.19,-5.16,-5.16
163.24,-5.73,-0.52,-5.68,-0.48,0.48,0.50,0.77,-5.25,-5.20,-5.21
164.88,-5.67,-0.42,-5.66,-0.41,0.41,0.47,0.73,-5.26,-5.25,-5.25
166.53,-5.62,-0.33,-5.64,-0.34,0.34,0.44,0.68,-5.28,-5.29,-5.29
168.19,-5.59,-0.25,-5.62,-0.28,0.28,0.41,0.63,-5.31,-5.34,-5.34
169.87,-5.55,-0.17,-5.60,-0.22,0.22,0.38,0.59,-5.33,-5.38,-5.38
171.57,-5.55,-0.13,-5.59,-0.16,0.16,0.34,0.54,-5.39,-5.43,-5.42
173.29,-5.55,-0.08,-5.57,-0.10,0.10,0.31,0.50,-5.45,-5.47,-5.47
175.02,-5.55,-0.04,-5.56,-0.04,0.04,0.28,0.45,-5.51,-5.51,-5.51
176.77,-5.55,0.01,-5.55,0.01,-0.01,0.25,0.40,-5.56,-5.56,-5.56
178.54,-5.55,0.06,-5.54,0.06,-0.06,0.22,0.36,-5.61,-5.60,-5.61
180.32,-5.55,0.09,-5.54,0.10,-0.10,0.18,0.31,-5.65,-5.64,-5.64
182.13,-5.55,0.13,-5.54,0.15,-0.15,0.15,0.27,-5.70,-5.69,-5.68
183.95,-5.55,0.18,-5.54,0.18,-0.18,0.12,0.22,-5.73,-5.73,-5.73
185.79,-5.55,0.22,-5.55,0.22,-0.22,0.08,0.18,-5.77,-5.77,-5.77
187.65,-5.55,0.26,-5.55,0.26,-0.26,0.05,0.14,-5.81,-5.81,-5.81
189.52,-5.55,0.30,-5.55,0.29,-0.29,0.02,0.09,-5.84,-5.84,-5.85
191.42,-5.55,0.33,-5.55,0.33,-0.33,-0.02,0.05,-5.88,-5.88,-5.88
193.33,-5.55,0.36,-5.55,0.37,-0.37,-0.05,0.00,-5.92,-5.92,-5.91
195.27,-5.55,0.39,-5.55,0.40,-0.40,-0.09,-0.04,-5.95,-5.95,-5.94
197.22,-5.55,0.43,-5.55,0.43,-0.43,-0.12,-0.08,-5.98,-5.98,-5.98
199.19,-5.55,0.47,-5.55,0.46,-0.46,-0.15,-0.12,-6.01,-6.01,-6.02
201.18,-5.55,0.49,-5.55,0.48,-0.48,-0.19,-0.17,-6.03,-6.03,-6.04
203.19,-5.55,0.51,-5.55,0.51,-0.51,-0.22,-0.21,-6.06,-6.06,-6.06
205.23,-5.55,0.54,-5.55,0.53,-0.53,-0.26,-0.25,-6.08,-6.08,-6.09
207.28,-5.55,0.55,-5.55,0.55,-0.55,-0.29,-0.29,-6.10,-6.10,-6.10
209.35,-5.55,0.57,-5.55,0.57,-0.57,-0.33,-0.33,-6.12,-6.12,-6.12
211.44,-5.55,0.60,-5.55,0.59,-0.59,-0.36,-0.37,-6.14,-6.14,-6.15
213.56,-5.55,0.61,-5.55,0.61,-0.61,-0.40,-0.41,-6.16,-6.16,-6.16
215.69,-5.55,0.61,-5.55,0.62,-0.62,-0.43,-0.45,-6.17,-6.17,-6.16
217.85,-5.55,0.63,-5.55,0.63,-0.63,-0.46,-0.48,-6.18,-6.18,-6.18
220.03,-5.55,0.64,-5.55,0.64,-0.64,-0.49,-0.52,-6.19,-6.19,-6.19
222.23,-5.55,0.66,-5.55,0.65,-0.65,-0.52,-0.55,-6.20,-6.20,-6.21
224.45,-5.55,0.65,-5.55,0.65,-0.65,-0.55,-0.59,-6.20,-6.20,-6.20
226.70,-5.53,0.68,-5.55,0.66,-0.66,-0.58,-0.62,-6.19,-6.21,-6.21
228.96,-5.53,0.68,-5.55,0.65,-0.65,-0.61,-0.65,-6.18,-6.21,-6.21
231.25,-5.55,0.65,-5.56,0.65,-0.65,-0.64,-0.68,-6.20,-6.21,-6.20
233.57,-5.55,0.65,-5.56,0.65,-0.65,-0.66,-0.71,-6.20,-6.21,-6.20
235.90,-5.55,0.66,-5.55,0.65,-0.65,-0.69,-0.74,-6.20,-6.21,-6.21
238.26,-5.55,0.66,-5.55,0.65,-0.65,-0.71,-0.76,-6.20,-6.20,-6.21
240.64,-5.55,0.65,-5.54,0.66,-0.66,-0.73,-0.78,-6.21,-6.20,-6.20
243.05,-5.55,0.64,-5.53,0.66,-0.66,-0.75,-0.80,-6.21,-6.19,-6.19
245.48,-5.55,0.63,-5.51,0.67,-0.67,-0.76,-0.82,-6.22,-6.18,-6.18
247.93,-5.55,0.62,-5.50,0.67,-0.67,-0.78,-0.84,-6.22,-6.17,-6.17
250.41,-5.50,0.67,-5.48,0.68,-0.68,-0.79,-0.86,-6.18,-6.16,-6.17
252.92,-5.48,0.67,-5.47,0.68,-0.68,-0.80,-0.87,-6.16,-6.14,-6.15
255.45,-5.43,0.70,-5.45,0.68,-0.68,-0.81,-0.88,-6.11,-6.13,-6.13
258.00,-5.39,0.72,-5.44,0.68,-0.68,-0.82,-0.89,-6.07,-6.12,-6.11
260.58,-5.36,0.74,-5.42,0.68,-0.68,-0.82,-0.90,-6.04,-6.10,-6.10
263.19,-5.36,0.72,-5.40,0.68,-0.68,-0.82,-0.90,-6.04,-6.08,-6.08
265.82,-5.36,0.71,-5.38,0.68,-0.68,-0.82,-0.91,-6.04,-6.06,-6.07
268.48,-5.36,0.68,-5.36,0.69,-0.69,-0.82,-0.91,-6.05,-6.05,-6.04
271.16,-5.36,0.66,-5.34,0.69,-0.69,-0.82,-0.91,-6.05,-6.03,-6.02
273.87,-5.36,0.65,-5.32,0.69,-0.69,-0.82,-0.91,-6.05,-6.01,-6.01
276.61,-5.36,0.63,-5.30,0.69,-0.69,-0.81,-0.91,-6.05,-5.99,-5.99
279.38,-5.34,0.63,-5.29,0.68,-0.68,-0.81,-0.91,-6.02,-5.97,-5.97
282.17,-5.29,0.67,-5.27,0.68,-0.68,-0.80,-0.91,-5.97,-5.96,-5.96
284.99,-5.24,0.69,-5.26,0.67,-0.67,-0.79,-0.90,-5.91,-5.94,-5.93
287.84,-5.19,0.73,-5.25,0.67,-0.67,-0.78,-0.90,-5.86,-5.92,-5.92
290.72,-5.18,0.71,-5.23,0.67,-0.67,-0.77,-0.89,-5.85,-5.90,-5.89
293.63,-5.18,0.70,-5.21,0.67,-0.67,-0.76,-0.88,-5.85,-5.88,-5.88
296.57,-5.18,0.67,-5.19,0.66,-0.66,-0.76,-0.88,-5.84,-5.85,-5.85
299.53,-5.18,0.66,-5.17,0.66,-0.66,-0.75,-0.87,-5.84,-5.83,-5.84
302.53,-5.18,0.64,-5.16,0.65,-0.65,-0.74,-0.86,-5.83,-5.81,-5.82
305.55,-5.18,0.61,-5.15,0.64,-0.64,-0.73,-0.86,-5.82,-5.79,-5.79
308.61,-5.13,0.64,-5.13,0.64,-0.64,-0.72,-0.85,-5.77,-5.77,-5.77
311.69,-5.13,0.62,-5.12,0.62,-0.62,-0.71,-0.84,-5.75,-5.75,-5.75
314.81,-5.10,0.61,-5.11,0.61,-0.61,-0.70,-0.84,-5.71,-5.72,-5.71
317.96,-5.08,0.61,-5.10,0.60,-0.60,-0.69,-0.83,-5.68,-5.70,-5.69
321.14,-5.08,0.60,-5.08,0.60,-0.60,-0.68,-0.82,-5.68,-5.68,-5.68
324.35,-5.08,0.58,-5.06,0.60,-0.60,-0.68,-0.82,-5.68,-5.66,-5.66
327.59,-5.08,0.56,-5.04,0.59,-0.59,-0.67,-0.81,-5.67,-5.64,-5.64
330.87,-5.04,0.58,-5.03,0.59,-0.59,-0.66,-0.81,-5.63,-5.62,-5.62
334.18,-5.01,0.59,-5.01,0.59,-0.59,-0.66,-0.80,-5.60,-5.60,-5.60
337.52,-4.97,0.61,-4.99,0.58,-0.58,-0.65,-0.80,-5.55,-5.58,-5.58
340.90,-4.94,0.62,-4.97,0.59,-0.59,-0.64,-0.79,-5.53,-5.56,-5.56
344.30,-4.94,0.60,-4.96,0.58,-0.58,-0.64,-0.79,-5.52,-5.54,-5.54
347.75,-4.92,0.60,-4.94,0.59,-0.59,-0.64,-0.79,-5.51,-5.52,-5.52
351.23,-4.90,0.61,-4.92,0.59,-0.59,-0.63,-0.78,-5.49,-5.51,-5.51
354.74,-4.90,0.59,-4.90,0.59,-0.59,-0.63,-0.78,-5.49,-5.49,-5.49
358.28,-4.90,0.57,-4.87,0.60,-0.60,-0.63,-0.78,-5.50,-5.47,-5.47
361.87,-4.90,0.55,-4.84,0.61,-0.61,-0.63,-0.78,-5.51,-5.45,-5.45
365.49,-4.84,0.60,-4.81,0.63,-0.63,-0.63,-0.78,-5.47,-5.44,-5.44
369.14,-4.78,0.65,-4.78,0.65,-0.65,-0.63,-0.78,-5.43,-5.42,-5.43
372.83,-4.73,0.68,-4.75,0.66,-0.66,-0.63,-0.79,-5.39,-5.41,-5.41
376.56,-4.71,0.69,-4.72,0.68,-0.68,-0.63,-0.79,-5.39,-5.40,-5.40
380.33,-4.71,0.66,-4.69,0.70,-0.70,-0.63,-0.79,-5.41,-5.38,-5.37
384.13,-4.66,0.71,-4.65,0.72,-0.72,-0.63,-0.79,-5.38,-5.37,-5.37
387.97,-4.61,0.75,-4.62,0.74,-0.74,-0.64,-0.80,-5.35,-5.36,-5.36
391.85,-4.55,0.80,-4.58,0.76,-0.76,-0.64,-0.80,-5.31,-5.34,-5.35
395.77,-4.49,0.84,-4.55,0.78,-0.78,-0.64,-0.81,-5.27,-5.33,-5.33
399.73,-4.48,0.84,-4.51,0.81,-0.81,-0.65,-0.82,-5.29,-5.32,-5.32
403.72,-4.48,0.83,-4.48,0.83,-0.83,-0.65,-0.82,-5.31,-5.31,-5.31
407.76,-4.48,0.82,-4.46,0.84,-0.84,-0.66,-0.83,-5.32,-5.30,-5.30
411.84,-4.48,0.81,-4.43,0.86,-0.86,-0.67,-0.84,-5.34,-5.29,-5.29
415.96,-4.43,0.85,-4.40,0.88,-0.88,-0.67,-0.85,-5.31,-5.28,-5.28
420.12,-4.38,0.89,-4.37,0.90,-0.90,-0.68,-0.86,-5.28,-5.27,-5.27
424.32,-4.33,0.93,-4.34,0.92,-0.92,-0.69,-0.87,-5.25,-5.26,-5.26
428.56,-4.29,0.96,-4.31,0.94,-0.94,-0.70,-0.88,-5.23,-5.25,-5.25
432.85,-4.28,0.96,-4.28,0.96,-0.96,-0.71,-0.89,-5.24,-5.24,-5.24
437.18,-4.24,0.99,-4.25,0.98,-0.98,-0.72,-0.90,-5.22,-5.23,-5.23
441.55,-4.22,0.99,-4.22,1.00,-1.00,-0.73,-0.91,-5.22,-5.22,-5.21
445.96,-4.19,1.02,-4.18,1.03,-1.03,-0.74,-0.93,-5.22,-5.20,-5.21
450.42,-4.15,1.05,-4.13,1.06,-1.06,-0.75,-0.94,-5.21,-5.19,-5.20
