frequency,raw,error,smoothed,error_smoothed,equalization,parametric_eq,fixed_band_eq,equalized_raw,equalized_smoothed,target
20.00,4.48,-1.44,4.48,-1.44,1.44,0.96,0.70,5.93,5.93,5.92
20.20,4.48,-1.44,4.48,-1.44,1.44,0.99,0.72,5.93,5.93,5.92
20.40,4.47,-1.45,4.48,-1.44,1.44,1.02,0.74,5.92,5.92,5.92
20.61,4.48,-1.44,4.48,-1.44,1.44,1.05,0.76,5.92,5.92,5.92
20.81,4.48,-1.44,4.48,-1.44,1.44,1.08,0.79,5.92,5.92,5.92
21.02,4.47,-1.45,4.48,-1.44,1.44,1.11,0.81,5.91,5.92,5.92
21.23,4.47,-1.43,4.47,-1.44,1.43,1.15,0.83,5.91,5.91,5.90
21.44,4.46,-1.43,4.46,-1.43,1.43,1.18,0.86,5.90,5.89,5.89
21.66,4.44,-1.43,4.45,-1.43,1.43,1.21,0.89,5.87,5.88,5.87
21.87,4.43,-1.42,4.44,-1.42,1.42,1.25,0.91,5.86,5.86,5.85
22.09,4.42,-1.42,4.42,-1.42,1.42,1.28,0.94,5.84,5.84,5.84
22.31,4.40,-1.41,4.40,-1.41,1.41,1.32,0.97,5.82,5.82,5.81
22.54,4.37,-1.42,4.38,-1.41,1.41,1.35,1.00,5.78,5.79,5.79
22.76,4.36,-1.41,4.36,-1.41,1.41,1.39,1.03,5.77,5.76,5.77
22.99,4.33,-1.41,4.34,-1.41,1.40,1.42,1.06,5.74,5.74,5.74
23.22,4.31,-1.40,4.32,-1.40,1.40,1.46,1.09,5.72,5.72,5.71
23.45,4.29,-1.39,4.29,-1.40,1.41,1.49,1.12,5.70,5.70,5.68
23.69,4.26,-1.41,4.27,-1.40,1.41,1.52,1.16,5.68,5.68,5.67
23.92,4.23,-1.42,4.24,-1.42,1.42,1.56,1.19,5.65,5.66,5.65
24.16,4.21,-1.43,4.21,-1.43,1.43,1.59,1.22,5.64,5.64,5.64
24.40,4.17,-1.45,4.18,-1.45,1.44,1.62,1.26,5.61,5.62,5.62
24.65,4.14,-1.46,4.15,-1.46,1.45,1.65,1.29,5.60,5.60,5.60
24.89,4.11,-1.47,4.12,-1.47,1.47,1.67,1.33,5.58,5.58,5.58
25.14,4.09,-1.48,4.09,-1.48,1.48,1.70,1.36,5.58,5.57,5.57
25.39,4.06,-1.49,4.06,-1.49,1.50,1.72,1.40,5.56,5.56,5.55
25.65,4.03,-1.51,4.03,-1.51,1.51,1.74,1.43,5.54,5.54,5.54
25.91,3.99,-1.52,4.00,-1.52,1.52,1.76,1.47,5.52,5.52,5.51
26.16,3.96,-1.54,3.96,-1.54,1.53,1.78,1.50,5.50,5.50,5.50
26.43,3.93,-1.56,3.94,-1.55,1.55,1.79,1.53,5.48,5.49,5.49
26.69,3.91,-1.55,3.91,-1.56,1.56,1.80,1.57,5.48,5.47,5.46
26.96,3.88,-1.57,3.88,-1.57,1.58,1.81,1.60,5.46,5.46,5.45
27.23,3.85,-1.59,3.85,-1.59,1.59,1.81,1.63,5.44,5.44,5.44
27.50,3.82,-1.61,3.83,-1.60,1.60,1.81,1.66,5.42,5.43,5.43
27.77,3.80,-1.61,3.80,-1.61,1.61,1.81,1.69,5.41,5.41,5.41
28.05,3.78,-1.62,3.78,-1.62,1.62,1.80,1.72,5.40,5.40,5.40
28.33,3.75,-1.63,3.76,-1.63,1.63,1.79,1.75,5.38,5.39,5.38
28.62,3.74,-1.63,3.74,-1.63,1.64,1.78,1.77,5.38,5.37,5.37
28.90,3.71,-1.64,3.72,-1.64,1.64,1.76,1.79,5.36,5.36,5.35
29.19,3.69,-1.64,3.70,-1.64,1.65,1.75,1.81,5.34,5.35,5.33
29.48,3.68,-1.65,3.68,-1.65,1.65,1.73,1.83,5.34,5.33,5.33
29.78,3.66,-1.66,3.66,-1.66,1.66,1.70,1.84,5.32,5.32,5.32
30.08,3.64,-1.67,3.64,-1.67,1.66,1.68,1.86,5.30,5.30,5.31
30.38,3.62,-1.67,3.63,-1.66,1.66,1.65,1.86,5.28,5.29,5.29
30.68,3.62,-1.66,3.62,-1.66,1.66,1.62,1.87,5.28,5.28,5.28
30.99,3.61,-1.64,3.61,-1.65,1.66,1.59,1.87,5.27,5.27,5.25
31.30,3.59,-1.65,3.60,-1.65,1.65,1.56,1.87,5.25,5.25,5.24
31.61,3.58,-1.65,3.58,-1.65,1.65,1.53,1.87,5.23,5.23,5.23
31.93,3.56,-1.65,3.57,-1.64,1.64,1.49,1.86,5.20,5.21,5.21
32.24,3.55,-1.63,3.56,-1.63,1.63,1.46,1.85,5.18,5.19,5.18
32.57,3.55,-1.61,3.55,-1.62,1.62,1.42,1.84,5.17,5.17,5.16
32.89,3.54,-1.61,3.55,-1.60,1.60,1.38,1.82,5.15,5.15,5.15
33.22,3.54,-1.58,3.54,-1.59,1.58,1.35,1.80,5.13,5.13,5.12
33.55,3.54,-1.57,3.54,-1.57,1.56,1.31,1.78,5.11,5.11,5.11
33.89,3.54,-1.54,3.55,-1.54,1.54,1.27,1.76,5.08,5.09,5.08
34.23,3.55,-1.51,3.55,-1.51,1.51,1.23,1.73,5.07,5.07,5.06
34.57,3.56,-1.48,3.56,-1.48,1.49,1.20,1.70,5.05,5.04,5.04
34.92,3.56,-1.46,3.57,-1.46,1.46,1.16,1.67,5.02,5.02,5.02
35.27,3.57,-1.43,3.58,-1.43,1.43,1.12,1.64,5.00,5.00,5.00
35.62,3.59,-1.39,3.59,-1.39,1.39,1.09,1.60,4.99,4.98,4.98
35.97,3.60,-1.36,3.60,-1.36,1.36,1.05,1.57,4.96,4.96,4.96
36.33,3.62,-1.32,3.62,-1.32,1.32,1.02,1.53,4.95,4.94,4.94
36.70,3.63,-1.29,3.64,-1.28,1.28,0.98,1.49,4.92,4.92,4.92
37.06,3.66,-1.24,3.66,-1.24,1.24,0.95,1.46,4.91,4.90,4.90
37.43,3.68,-1.20,3.68,-1.20,1.20,0.92,1.42,4.88,4.88,4.88
37.81,3.70,-1.16,3.71,-1.15,1.15,0.88,1.38,4.86,4.86,4.86
38.19,3.73,-1.10,3.73,-1.11,1.11,0.85,1.34,4.84,4.84,4.83
38.57,3.75,-1.07,3.76,-1.06,1.06,0.82,1.30,4.82,4.82,4.82
38.95,3.78,-1.01,3.78,-1.01,1.02,0.79,1.26,4.80,4.80,4.79
39.34,3.80,-0.97,3.81,-0.97,0.97,0.76,1.22,4.78,4.78,4.77
39.74,3.83,-0.92,3.83,-0.93,0.93,0.73,1.18,4.76,4.76,4.75
40.14,3.85,-0.89,3.85,-0.89,0.88,0.71,1.14,4.74,4.74,4.74
40.54,3.87,-0.85,3.88,-0.84,0.84,0.68,1.10,4.71,4.72,4.72
40.94,3.90,-0.80,3.90,-0.80,0.80,0.65,1.06,4.70,4.70,4.70
41.35,3.92,-0.75,3.93,-0.76,0.76,0.63,1.02,4.68,4.68,4.67
41.76,3.95,-0.72,3.95,-0.71,0.72,0.60,0.98,4.67,4.67,4.67
42.18,3.98,-0.67,3.98,-0.67,0.67,0.58,0.94,4.66,4.65,4.65
42.60,4.00,-0.63,4.00,-0.63,0.63,0.55,0.91,4.64,4.63,4.63
43.03,4.02,-0.60,4.03,-0.59,0.59,0.53,0.87,4.61,4.61,4.62
43.46,4.04,-0.55,4.05,-0.55,0.55,0.51,0.83,4.59,4.59,4.59
43.90,4.07,-0.50,4.07,-0.51,0.50,0.49,0.80,4.58,4.57,4.57
44.33,4.09,-0.46,4.09,-0.46,0.46,0.47,0.76,4.56,4.55,4.55
44.78,4.10,-0.43,4.11,-0.42,0.42,0.45,0.73,4.53,4.53,4.53
45.23,4.12,-0.38,4.13,-0.38,0.39,0.42,0.70,4.51,4.51,4.50
45.68,4.14,-0.34,4.14,-0.34,0.35,0.41,0.66,4.49,4.49,4.48
46.13,4.16,-0.31,4.16,-0.31,0.32,0.39,0.63,4.48,4.48,4.47
46.60,4.17,-0.29,4.17,-0.28,0.29,0.37,0.60,4.46,4.46,4.46
47.06,4.18,-0.26,4.18,-0.26,0.26,0.35,0.57,4.44,4.44,4.44
47.53,4.19,-0.23,4.19,-0.23,0.23,0.33,0.54,4.42,4.42,4.42
48.01,4.20,-0.21,4.20,-0.20,0.20,0.31,0.51,4.40,4.40,4.41
48.49,4.21,-0.17,4.21,-0.17,0.17,0.30,0.48,4.38,4.38,4.38
48.97,4.21,-0.14,4.21,-0.14,0.14,0.28,0.45,4.35,4.35,4.35
49.46,4.21,-0.11,4.22,-0.11,0.11,0.26,0.42,4.33,4.33,4.32
49.96,4.21,-0.08,4.22,-0.08,0.09,0.25,0.39,4.30,4.30,4.29
50.46,4.22,-0.06,4.22,-0.06,0.06,0.23,0.37,4.28,4.28,4.28
50.96,4.22,-0.04,4.22,-0.04,0.04,0.21,0.34,4.26,4.26,4.26
51.47,4.22,-0.01,4.22,-0.02,0.02,0.20,0.31,4.24,4.24,4.23
51.99,4.21,0.00,4.22,0.00,-0.01,0.18,0.29,4.21,4.21,4.21
52.51,4.21,0.02,4.22,0.02,-0.03,0.17,0.26,4.19,4.19,4.19
53.03,4.21,0.04,4.21,0.04,-0.04,0.16,0.24,4.17,4.17,4.17
53.56,4.21,0.07,4.21,0.06,-0.06,0.14,0.21,4.15,4.15,4.14
54.10,4.20,0.08,4.20,0.08,-0.08,0.13,0.19,4.12,4.12,4.12
54.64,4.19,0.10,4.20,0.10,-0.10,0.11,0.16,4.09,4.10,4.09
55.18,4.18,0.11,4.19,0.11,-0.12,0.10,0.14,4.07,4.07,4.07
55.74,4.18,0.14,4.18,0.13,-0.13,0.09,0.11,4.05,4.04,4.04
56.29,4.16,0.14,4.17,0.15,-0.15,0.07,0.09,4.02,4.02,4.02
56.86,4.16,0.17,4.16,0.16,-0.16,0.06,0.07,4.00,4.00,3.99
57.42,4.15,0.18,4.15,0.18,-0.17,0.04,0.04,3.98,3.97,3.97
58.00,4.13,0.18,4.14,0.19,-0.19,0.03,0.02,3.95,3.95,3.95
58.58,4.12,0.20,4.12,0.20,-0.20,0.02,-0.00,3.93,3.93,3.92
59.16,4.11,0.21,4.11,0.21,-0.21,0.01,-0.03,3.91,3.90,3.90
59.76,4.09,0.21,4.10,0.22,-0.22,-0.01,-0.05,3.88,3.88,3.88
60.35,4.08,0.23,4.08,0.22,-0.23,-0.02,-0.07,3.85,3.85,3.85
60.96,4.06,0.23,4.06,0.24,-0.24,-0.03,-0.09,3.82,3.82,3.83
61.57,4.04,0.25,4.05,0.25,-0.25,-0.05,-0.12,3.79,3.79,3.79
62.18,4.03,0.27,4.03,0.27,-0.26,-0.06,-0.14,3.77,3.77,3.76
62.80,4.01,0.28,4.01,0.28,-0.28,-0.07,-0.16,3.74,3.74,3.73
63.43,3.99,0.29,3.99,0.29,-0.28,-0.08,-0.18,3.71,3.71,3.70
64.07,3.97,0.30,3.97,0.30,-0.29,-0.10,-0.21,3.68,3.68,3.67
64.71,3.95,0.30,3.95,0.30,-0.30,-0.11,-0.23,3.65,3.65,3.65
65.35,3.93,0.30,3.93,0.30,-0.31,-0.12,-0.25,3.63,3.63,3.63
66.01,3.91,0.30,3.92,0.31,-0.31,-0.14,-0.28,3.60,3.61,3.61
66.67,3.90,0.32,3.90,0.31,-0.31,-0.15,-0.30,3.59,3.58,3.58
67.33,3.88,0.32,3.88,0.32,-0.32,-0.16,-0.32,3.57,3.56,3.56
68.01,3.85,0.32,3.86,0.32,-0.32,-0.18,-0.34,3.53,3.54,3.53
68.69,3.84,0.33,3.84,0.33,-0.33,-0.19,-0.37,3.51,3.51,3.51
69.37,3.81,0.33,3.82,0.34,-0.34,-0.20,-0.39,3.48,3.48,3.48
70.07,3.80,0.35,3.80,0.35,-0.34,-0.22,-0.42,3.46,3.46,3.45
70.77,3.78,0.35,3.78,0.35,-0.35,-0.23,-0.44,3.43,3.43,3.43
71.48,3.76,0.36,3.76,0.36,-0.36,-0.24,-0.47,3.40,3.40,3.40
72.19,3.73,0.36,3.74,0.37,-0.37,-0.26,-0.49,3.36,3.37,3.37
72.91,3.72,0.39,3.72,0.38,-0.38,-0.27,-0.52,3.34,3.33,3.33
73.64,3.69,0.39,3.70,0.39,-0.40,-0.29,-0.54,3.30,3.30,3.30
74.38,3.67,0.40,3.68,0.41,-0.41,-0.30,-0.57,3.26,3.27,3.27
75.12,3.66,0.44,3.66,0.43,-0.42,-0.32,-0.60,3.24,3.23,3.22
75.87,3.63,0.44,3.64,0.44,-0.44,-0.33,-0.62,3.19,3.20,3.19
76.63,3.61,0.45,3.62,0.46,-0.46,-0.35,-0.65,3.16,3.16,3.16
77.40,3.59,0.47,3.59,0.47,-0.48,-0.36,-0.68,3.12,3.12,3.12
78.17,3.57,0.51,3.57,0.50,-0.50,-0.38,-0.71,3.08,3.08,3.06
78.95,3.55,0.51,3.55,0.52,-0.52,-0.40,-0.74,3.04,3.04,3.04
79.74,3.53,0.53,3.53,0.54,-0.54,-0.41,-0.77,2.99,2.99,3.00
80.54,3.51,0.56,3.52,0.56,-0.56,-0.43,-0.80,2.95,2.95,2.95
81.35,3.50,0.59,3.50,0.59,-0.59,-0.45,-0.83,2.91,2.91,2.91
82.16,3.48,0.62,3.48,0.62,-0.61,-0.46,-0.87,2.87,2.87,2.86
82.98,3.46,0.64,3.46,0.65,-0.64,-0.48,-0.90,2.82,2.82,2.82
83.81,3.44,0.68,3.44,0.67,-0.67,-0.50,-0.93,2.77,2.77,2.76
84.65,3.42,0.70,3.42,0.70,-0.70,-0.52,-0.97,2.73,2.73,2.72
85.50,3.40,0.72,3.40,0.72,-0.73,-0.54,-1.01,2.68,2.68,2.68
86.35,3.38,0.75,3.38,0.75,-0.76,-0.56,-1.04,2.63,2.63,2.63
87.22,3.36,0.78,3.37,0.79,-0.79,-0.58,-1.08,2.58,2.58,2.58
88.09,3.35,0.83,3.35,0.82,-0.82,-0.60,-1.12,2.54,2.53,2.52
88.97,3.33,0.85,3.33,0.85,-0.85,-0.62,-1.16,2.48,2.48,2.48
89.86,3.31,0.88,3.31,0.89,-0.88,-0.64,-1.20,2.43,2.43,2.43
90.76,3.29,0.92,3.29,0.92,-0.92,-0.67,-1.24,2.38,2.38,2.37
91.66,3.27,0.95,3.27,0.95,-0.95,-0.69,-1.28,2.32,2.32,2.32
92.58,3.25,0.99,3.25,0.98,-0.98,-0.71,-1.33,2.27,2.27,2.26
93.51,3.23,1.01,3.24,1.02,-1.02,-0.74,-1.37,2.21,2.22,2.22
94.44,3.22,1.05,3.22,1.05,-1.06,-0.76,-1.42,2.17,2.17,2.17
95.39,3.20,1.09,3.20,1.09,-1.09,-0.79,-1.46,2.11,2.11,2.11
96.34,3.18,1.14,3.19,1.13,-1.13,-0.81,-1.51,2.05,2.05,2.04
97.30,3.16,1.17,3.17,1.18,-1.18,-0.84,-1.55,1.99,1.99,1.99
98.28,3.15,1.22,3.15,1.22,-1.22,-0.87,-1.60,1.93,1.93,1.93
99.26,3.13,1.27,3.14,1.26,-1.27,-0.90,-1.65,1.87,1.87,1.86
100.25,3.12,1.31,3.12,1.31,-1.31,-0.92,-1.70,1.81,1.81,1.81
101.25,3.10,1.35,3.11,1.36,-1.36,-0.95,-1.75,1.75,1.75,1.75
102.27,3.09,1.41,3.09,1.41,-1.40,-0.99,-1.80,1.69,1.69,1.68
103.29,3.07,1.46,3.07,1.45,-1.45,-1.02,-1.85,1.62,1.63,1.61
104.32,3.05,1.49,3.06,1.50,-1.50,-1.05,-1.89,1.56,1.56,1.56
105.37,3.04,1.54,3.04,1.54,-1.54,-1.08,-1.94,1.50,1.49,1.50
106.42,3.01,1.58,3.02,1.59,-1.59,-1.12,-1.99,1.42,1.43,1.43
107.48,3.00,1.64,3.00,1.64,-1.64,-1.15,-2.04,1.36,1.36,1.36
108.56,2.99,1.70,2.99,1.69,-1.69,-1.19,-2.09,1.30,1.30,1.29
109.64,2.97,1.74,2.98,1.74,-1.74,-1.23,-2.13,1.23,1.24,1.23
110.74,2.96,1.79,2.96,1.79,-1.79,-1.27,-2.18,1.17,1.17,1.17
111.85,2.94,1.84,2.94,1.84,-1.84,-1.31,-2.22,1.10,1.10,1.10
112.97,2.92,1.90,2.93,1.89,-1.90,-1.35,-2.26,1.03,1.03,1.02
114.10,2.90,1.94,2.91,1.95,-1.95,-1.39,-2.30,0.96,0.96,0.96
115.24,2.89,2.00,2.89,2.00,-2.00,-1.43,-2.34,0.90,0.89,0.89
116.39,2.87,2.05,2.87,2.05,-2.05,-1.48,-2.37,0.83,0.82,0.82
117.55,2.85,2.10,2.86,2.10,-2.10,-1.52,-2.41,0.76,0.76,0.75
118.73,2.83,2.14,2.84,2.14,-2.14,-1.57,-2.44,0.69,0.69,0.69
119.92,2.82,2.19,2.82,2.19,-2.19,-1.62,-2.46,0.64,0.63,0.63
121.12,2.80,2.23,2.80,2.23,-2.23,-1.66,-2.49,0.57,0.57,0.57
122.33,2.78,2.28,2.78,2.28,-2.27,-1.71,-2.51,0.51,0.51,0.50
123.55,2.76,2.31,2.76,2.31,-2.31,-1.77,-2.53,0.45,0.45,0.45
124.79,2.74,2.35,2.74,2.35,-2.35,-1.82,-2.54,0.39,0.39,0.39
126.03,2.72,2.38,2.73,2.39,-2.39,-1.87,-2.55,0.33,0.33,0.34
127.29,2.71,2.43,2.71,2.43,-2.44,-1.92,-2.56,0.28,0.28,0.28
128.57,2.69,2.48,2.70,2.47,-2.47,-1.98,-2.57,0.22,0.22,0.21
129.85,2.68,2.52,2.68,2.52,-2.51,-2.04,-2.57,0.17,0.17,0.16
131.15,2.65,2.54,2.66,2.55,-2.55,-2.09,-2.57,0.11,0.11,0.11
132.46,2.64,2.59,2.64,2.59,-2.58,-2.15,-2.56,0.06,0.06,0.05
133.79,2.62,2.61,2.62,2.61,-2.61,-2.21,-2.56,0.01,0.01,0.01
135.12,2.60,2.65,2.60,2.64,-2.64,-2.27,-2.55,-0.04,-0.04,-0.05
136.48,2.57,2.65,2.58,2.66,-2.66,-2.32,-2.54,-0.09,-0.08,-0.08
137.84,2.55,2.67,2.56,2.68,-2.68,-2.38,-2.53,-0.13,-0.13,-0.12
139.22,2.54,2.71,2.54,2.70,-2.70,-2.44,-2.51,-0.16,-0.16,-0.17
140.61,2.52,2.73,2.52,2.72,-2.72,-2.50,-2.50,-0.19,-0.20,-0.21
142.02,2.50,2.73,2.50,2.74,-2.73,-2.56,-2.48,-0.23,-0.23,-0.23
143.44,2.48,2.74,2.48,2.75,-2.75,-2.62,-2.46,-0.26,-0.26,-0.26
144.87,2.46,2.76,2.46,2.76,-2.76,-2.67,-2.44,-0.29,-0.29,-0.30
146.32,2.44,2.77,2.44,2.77,-2.77,-2.73,-2.42,-0.33,-0.33,-0.33
147.78,2.42,2.77,2.42,2.78,-2.78,-2.79,-2.40,-0.35,-0.35,-0.35
149.26,2.40,2.78,2.40,2.78,-2.79,-2.84,-2.39,-0.38,-0.38,-0.38
150.75,2.38,2.80,2.38,2.79,-2.79,-2.89,-2.37,-0.41,-0.41,-0.42
152.26,2.36,2.80,2.36,2.80,-2.80,-2.94,-2.35,-0.44,-0.43,-0.44
153.78,2.34,2.81,2.34,2.81,-2.81,-2.98,-2.33,-0.46,-0.46,-0.47
155.32,2.32,2.81,2.32,2.81,-2.81,-3.03,-2.31,-0.49,-0.49,-0.49
156.88,2.29,2.81,2.30,2.82,-2.82,-3.07,-2.29,-0.52,-0.52,-0.52
158.44,2.27,2.82,2.27,2.82,-2.82,-3.10,-2.28,-0.55,-0.55,-0.55
160.03,2.25,2.83,2.25,2.83,-2.83,-3.14,-2.26,-0.57,-0.58,-0.58
161.63,2.22,2.83,2.23,2.83,-2.83,-3.17,-2.25,-0.61,-0.60,-0.61
163.24,2.20,2.84,2.21,2.84,-2.84,-3.19,-2.24,-0.63,-0.63,-0.64
164.88,2.18,2.84,2.18,2.84,-2.84,-3.21,-2.23,-0.66,-0.66,-0.66
166.53,2.16,2.84,2.16,2.84,-2.84,-3.23,-2.22,-0.68,-0.68,-0.68
168.19,2.13,2.85,2.13,2.85,-2.85,-3.24,-2.21,-0.71,-0.71,-0.72
169.87,2.10,2.85,2.11,2.85,-2.85,-3.24,-2.21,-0.75,-0.75,-0.75
171.57,2.08,2.86,2.08,2.85,-2.86,-3.25,-2.20,-0.78,-0.78,-0.78
173.29,2.05,2.85,2.06,2.86,-2.87,-3.24,-2.20,-0.81,-0.81,-0.80
175.02,2.03,2.87,2.03,2.87,-2.87,-3.23,-2.20,-0.84,-0.84,-0.84
176.77,2.00,2.88,2.01,2.88,-2.88,-3.22,-2.20,-0.88,-0.87,-0.88
178.54,1.98,2.90,1.98,2.89,-2.89,-3.20,-2.20,-0.90,-0.91,-0.92
180.32,1.95,2.90,1.95,2.90,-2.89,-3.18,-2.21,-0.94,-0.95,-0.95
182.13,1.91,2.89,1.92,2.90,-2.90,-3.15,-2.22,-0.99,-0.98,-0.98
183.95,1.87,2.89,1.88,2.90,-2.90,-3.12,-2.22,-1.03,-1.02,-1.02
185.79,1.85,2.91,1.85,2.90,-2.90,-3.09,-2.23,-1.05,-1.06,-1.06
187.65,1.81,2.91,1.81,2.91,-2.90,-3.05,-2.24,-1.09,-1.09,-1.10
189.52,1.77,2.90,1.78,2.90,-2.90,-3.01,-2.26,-1.12,-1.12,-1.13
191.42,1.74,2.89,1.74,2.89,-2.89,-2.96,-2.27,-1.15,-1.15,-1.15
193.33,1.71,2.88,1.71,2.88,-2.89,-2.91,-2.29,-1.17,-1.18,-1.17
195.27,1.67,2.87,1.67,2.87,-2.88,-2.86,-2.31,-1.21,-1.21,-1.20
197.22,1.63,2.86,1.64,2.87,-2.87,-2.81,-2.32,-1.24,-1.23,-1.23
199.19,1.60,2.88,1.60,2.87,-2.86,-2.76,-2.34,-1.26,-1.26,-1.28
201.18,1.57,2.86,1.57,2.86,-2.85,-2.70,-2.36,-1.28,-1.28,-1.29
203.19,1.53,2.84,1.53,2.84,-2.84,-2.64,-2.38,-1.31,-1.30,-1.31
205.23,1.49,2.82,1.50,2.82,-2.83,-2.58,-2.41,-1.33,-1.33,-1.33
207.28,1.46,2.80,1.46,2.80,-2.81,-2.52,-2.43,-1.35,-1.35,-1.34
209.35,1.42,2.79,1.43,2.79,-2.79,-2.46,-2.45,-1.37,-1.36,-1.37
211.44,1.39,2.78,1.39,2.78,-2.77,-2.40,-2.47,-1.38,-1.38,-1.39
213.56,1.35,2.76,1.35,2.75,-2.75,-2.34,-2.49,-1.40,-1.40,-1.41
215.69,1.31,2.72,1.31,2.72,-2.73,-2.28,-2.52,-1.41,-1.42,-1.41
217.85,1.26,2.68,1.27,2.70,-2.70,-2.22,-2.54,-1.44,-1.43,-1.42
220.03,1.23,2.68,1.23,2.67,-2.67,-2.16,-2.56,-1.44,-1.44,-1.45
222.23,1.20,2.66,1.20,2.65,-2.64,-2.11,-2.58,-1.44,-1.45,-1.46
224.45,1.16,2.61,1.16,2.62,-2.61,-2.05,-2.59,-1.45,-1.45,-1.45
226.70,1.12,2.58,1.13,2.58,-2.58,-1.99,-2.61,-1.46,-1.45,-1.46
228.96,1.09,2.55,1.09,2.54,-2.55,-1.93,-2.62,-1.45,-1.46,-1.46
231.25,1.06,2.51,1.06,2.51,-2.52,-1.88,-2.63,-1.45,-1.45,-1.45
233.57,1.03,2.47,1.03,2.48,-2.48,-1.82,-2.64,-1.45,-1.45,-1.44
235.90,1.00,2.44,1.01,2.44,-2.45,-1.77,-2.64,-1.44,-1.44,-1.44
238.26,0.98,2.42,0.98,2.41,-2.41,-1.71,-2.64,-1.43,-1.43,-1.44
240.64,0.96,2.38,0.96,2.38,-2.37,-1.66,-2.64,-1.41,-1.41,-1.42
243.05,0.94,2.34,0.94,2.34,-2.34,-1.61,-2.64,-1.39,-1.40,-1.40
245.48,0.91,2.29,0.92,2.30,-2.30,-1.56,-2.63,-1.39,-1.38,-1.38
247.93,0.89,2.26,0.90,2.26,-2.26,-1.51,-2.61,-1.37,-1.36,-1.37
250.41,0.88,2.24,0.88,2.22,-2.22,-1.46,-2.60,-1.34,-1.35,-1.36
252.92,0.86,2.18,0.86,2.18,-2.18,-1.42,-2.58,-1.32,-1.32,-1.32
255.45,0.83,2.13,0.84,2.14,-2.14,-1.37,-2.55,-1.31,-1.30,-1.30
258.00,0.82,2.10,0.82,2.10,-2.10,-1.33,-2.52,-1.28,-1.28,-1.28
260.58,0.80,2.06,0.80,2.06,-2.06,-1.28,-2.49,-1.26,-1.26,-1.26
263.19,0.78,2.02,0.78,2.02,-2.02,-1.24,-2.45,-1.23,-1.23,-1.24
265.82,0.76,1.98,0.77,1.98,-1.97,-1.20,-2.41,-1.21,-1.21,-1.22
268.48,0.74,1.93,0.75,1.93,-1.93,-1.16,-2.37,-1.19,-1.18,-1.19
271.16,0.73,1.89,0.73,1.89,-1.89,-1.12,-2.32,-1.15,-1.16,-1.16
273.87,0.70,1.84,0.71,1.84,-1.84,-1.08,-2.28,-1.14,-1.14,-1.14
276.61,0.68,1.79,0.69,1.80,-1.80,-1.04,-2.22,-1.11,-1.11,-1.11
279.38,0.66,1.75,0.66,1.75,-1.75,-1.01,-2.17,-1.09,-1.09,-1.09
282.17,0.64,1.71,0.64,1.71,-1.71,-0.97,-2.11,-1.06,-1.06,-1.07
284.99,0.62,1.66,0.62,1.66,-1.66,-0.94,-2.05,-1.04,-1.04,-1.04
287.84,0.60,1.62,0.60,1.62,-1.61,-0.90,-1.99,-1.01,-1.01,-1.02
290.72,0.58,1.56,0.58,1.57,-1.57,-0.87,-1.93,-0.98,-0.98,-0.98
293.63,0.56,1.52,0.56,1.51,-1.52,-0.84,-1.87,-0.95,-0.96,-0.96
296.57,0.53,1.46,0.54,1.47,-1.46,-0.81,-1.80,-0.93,-0.93,-0.93
299.53,0.51,1.41,0.51,1.41,-1.41,-0.78,-1.74,-0.90,-0.90,-0.90
302.53,0.49,1.37,0.49,1.36,-1.35,-0.75,-1.67,-0.86,-0.86,-0.88
305.55,0.46,1.29,0.47,1.30,-1.30,-0.72,-1.61,-0.83,-0.83,-0.83
308.61,0.44,1.24,0.44,1.24,-1.24,-0.69,-1.54,-0.79,-0.79,-0.80
311.69,0.41,1.17,0.42,1.17,-1.18,-0.66,-1.47,-0.76,-0.76,-0.76
314.81,0.39,1.12,0.39,1.11,-1.12,-0.63,-1.40,-0.72,-0.73,-0.73
317.96,0.35,1.05,0.36,1.06,-1.06,-0.61,-1.34,-0.70,-0.70,-0.70
321.14,0.33,1.00,0.33,1.00,-1.00,-0.58,-1.27,-0.67,-0.67,-0.67
324.35,0.30,0.95,0.30,0.94,-0.94,-0.55,-1.20,-0.64,-0.64,-0.65
327.59,0.27,0.88,0.27,0.88,-0.88,-0.53,-1.14,-0.61,-0.61,-0.61
330.87,0.24,0.82,0.24,0.83,-0.83,-0.50,-1.07,-0.58,-0.58,-0.58
334.18,0.21,0.77,0.22,0.77,-0.77,-0.48,-1.00,-0.56,-0.55,-0.56
337.52,0.19,0.73,0.19,0.72,-0.72,-0.46,-0.94,-0.52,-0.53,-0.54
340.90,0.16,0.67,0.16,0.67,-0.67,-0.43,-0.87,-0.50,-0.51,-0.51
344.30,0.12,0.61,0.13,0.61,-0.61,-0.41,-0.81,-0.49,-0.48,-0.49
347.75,0.09,0.55,0.10,0.56,-0.56,-0.39,-0.74,-0.47,-0.46,-0.46
351.23,0.07,0.51,0.07,0.51,-0.51,-0.36,-0.68,-0.44,-0.44,-0.44
354.74,0.04,0.47,0.04,0.47,-0.46,-0.34,-0.61,-0.42,-0.42,-0.43
358.28,0.01,0.42,0.02,0.42,-0.42,-0.32,-0.55,-0.41,-0.40,-0.41
361.87,-0.01,0.38,-0.01,0.37,-0.38,-0.30,-0.49,-0.38,-0.39,-0.39
365.49,-0.04,0.32,-0.03,0.33,-0.33,-0.28,-0.43,-0.37,-0.37,-0.36
369.14,-0.06,0.29,-0.06,0.29,-0.29,-0.25,-0.36,-0.35,-0.35,-0.35
372.83,-0.08,0.26,-0.07,0.26,-0.26,-0.23,-0.30,-0.33,-0.33,-0.34
376.56,-0.09,0.23,-0.09,0.22,-0.22,-0.21,-0.24,-0.31,-0.31,-0.32
380.33,-0.11,0.18,-0.11,0.19,-0.18,-0.19,-0.18,-0.29,-0.29,-0.29
384.13,-0.12,0.15,-0.12,0.15,-0.15,-0.17,-0.12,-0.26,-0.27,-0.27
387.97,-0.14,0.11,-0.13,0.11,-0.12,-0.15,-0.06,-0.25,-0.25,-0.25
391.85,-0.14,0.09,-0.14,0.08,-0.09,-0.13,-0.00,-0.22,-0.22,-0.23
395.77,-0.15,0.05,-0.15,0.05,-0.05,-0.11,0.05,-0.20,-0.20,-0.20
399.73,-0.16,0.02,-0.15,0.03,-0.03,-0.09,0.11,-0.18,-0.18,-0.18
403.72,-0.17,0.00,-0.16,-0.00,0.00,-0.07,0.17,-0.16,-0.16,-0.17
407.76,-0.17,-0.02,-0.17,-0.03,0.03,-0.05,0.22,-0.14,-0.14,-0.15
411.84,-0.18,-0.06,-0.17,-0.05,0.05,-0.03,0.28,-0.12,-0.12,-0.12
415.96,-0.17,-0.07,-0.17,-0.08,0.08,-0.01,0.33,-0.09,-0.10,-0.10
420.12,-0.18,-0.10,-0.17,-0.10,0.10,0.01,0.39,-0.08,-0.08,-0.08
424.32,-0.18,-0.13,-0.17,-0.12,0.12,0.04,0.44,-0.06,-0.05,-0.05
428.56,-0.17,-0.14,-0.17,-0.14,0.14,0.06,0.49,-0.03,-0.03,-0.03
432.85,-0.17,-0.16,-0.16,-0.16,0.16,0.08,0.54,-0.01,-0.00,-0.01
437.18,-0.16,-0.18,-0.16,-0.18,0.18,0.10,0.59,0.03,0.02,0.02
441.55,-0.16,-0.21,-0.16,-0.20,0.20,0.12,0.64,0.05,0.05,0.05
445.96,-0.16,-0.23,-0.16,-0.23,0.23,0.14,0.68,0.07,0.07,0.07
450.42,-0.16,-0.24,-0.16,-0.25,0.26,0.16,0.73,0.10,0.10,0.08
454.93,-0.17,-0.29,-0.16,-0.28,0.29,0.19,0.77,0.12,0.12,0.12
459.48,-0.17,-0.31,-0.17,-0.31,0.32,0.21,0.81,0.15,0.15,0.14
464.07,-0.18,-0.35,-0.18,-0.36,0.35,0.23,0.85,0.18,0.18,0.17
468.71,-0.19,-0.40,-0.18,-0.39,0.39,0.25,0.88,0.20,0.20,0.21
473.40,-0.20,-0.43,-0.19,-0.43,0.42,0.28,0.92,0.23,0.23,0.23
478.13,-0.20,-0.46,-0.20,-0.46,0.46,0.30,0.95,0.26,0.26,0.26
482.91,-0.21,-0.50,-0.20,-0.50,0.50,0.32,0.98,0.29,0.29,0.29
487.74,-0.21,-0.53,-0.21,-0.53,0.53,0.35,1.00,0.33,0.32,0.32
492.62,-0.22,-0.57,-0.21,-0.56,0.57,0.37,1.03,0.35,0.35,0.35
497.55,-0.22,-0.59,-0.22,-0.60,0.60,0.40,1.05,0.38,0.38,0.37
502.52,-0.23,-0.64,-0.23,-0.63,0.63,0.43,1.07,0.41,0.41,0.41
507.55,-0.24,-0.67,-0.23,-0.67,0.67,0.45,1.09,0.43,0.44,0.43
512.62,-0.24,-0.70,-0.24,-0.70,0.70,0.48,1.10,0.47,0.47,0.46
517.75,-0.24,-0.73,-0.24,-0.74,0.74,0.51,1.11,0.50,0.49,0.49
522.93,-0.26,-0.78,-0.25,-0.77,0.78,0.53,1.12,0.52,0.52,0.52
