frequency,raw,error,smoothed,error_smoothed,equalization,parametric_eq,fixed_band_eq,equalized_raw,equalized_smoothed,target
20.00,4.48,-2.57,4.48,-2.60,2.60,2.13,1.20,7.08,7.08,7.06
20.20,4.48,-2.57,4.49,-2.59,2.59,2.17,1.24,7.07,7.07,7.06
20.40,4.47,-2.58,4.49,-2.58,2.58,2.21,1.27,7.05,7.06,7.06
20.61,4.48,-2.57,4.48,-2.57,2.57,2.24,1.31,7.06,7.06,7.06
20.81,4.48,-2.57,4.48,-2.57,2.57,2.28,1.35,7.05,7.04,7.06
21.02,4.47,-2.58,4.47,-2.56,2.56,2.31,1.39,7.03,7.03,7.06
21.23,4.47,-2.56,4.47,-2.56,2.56,2.35,1.43,7.03,7.02,7.04
21.44,4.46,-2.56,4.46,-2.55,2.55,2.38,1.47,7.01,7.01,7.03
21.66,4.44,-2.56,4.44,-2.55,2.55,2.42,1.51,6.99,6.99,7.01
21.87,4.43,-2.55,4.43,-2.55,2.55,2.45,1.56,6.98,6.98,6.98
22.09,4.42,-2.55,4.42,-2.54,2.54,2.49,1.60,6.97,6.96,6.97
22.31,4.40,-2.54,4.40,-2.54,2.54,2.52,1.65,6.95,6.94,6.94
22.54,4.37,-2.55,4.38,-2.54,2.54,2.55,1.70,6.91,6.92,6.92
22.76,4.36,-2.54,4.36,-2.54,2.54,2.58,1.75,6.90,6.90,6.90
22.99,4.33,-2.54,4.34,-2.54,2.54,2.62,1.80,6.87,6.88,6.87
23.22,4.31,-2.53,4.31,-2.54,2.54,2.64,1.85,6.86,6.86,6.84
23.45,4.29,-2.53,4.29,-2.54,2.54,2.67,1.91,6.84,6.83,6.82
23.69,4.26,-2.54,4.26,-2.55,2.55,2.70,1.96,6.81,6.81,6.81
23.92,4.23,-2.55,4.24,-2.56,2.56,2.73,2.01,6.79,6.79,6.79
24.16,4.21,-2.56,4.21,-2.56,2.56,2.75,2.07,6.78,6.77,6.78
24.40,4.17,-2.58,4.18,-2.57,2.57,2.77,2.13,6.75,6.75,6.76
24.65,4.14,-2.59,4.15,-2.58,2.58,2.79,2.18,6.73,6.73,6.74
24.89,4.11,-2.60,4.12,-2.60,2.60,2.81,2.24,6.71,6.72,6.71
25.14,4.09,-2.61,4.09,-2.61,2.61,2.83,2.30,6.70,6.70,6.70
25.39,4.06,-2.62,4.06,-2.62,2.62,2.85,2.36,6.69,6.68,6.68
25.65,4.03,-2.64,4.03,-2.64,2.64,2.86,2.42,6.67,6.67,6.67
25.91,3.99,-2.65,4.00,-2.65,2.65,2.88,2.48,6.65,6.65,6.64
26.16,3.96,-2.67,3.97,-2.67,2.67,2.89,2.53,6.63,6.63,6.63
26.43,3.93,-2.68,3.94,-2.68,2.68,2.89,2.59,6.61,6.62,6.62
26.69,3.91,-2.68,3.91,-2.69,2.69,2.90,2.65,6.60,6.60,6.60
26.96,3.88,-2.70,3.88,-2.70,2.70,2.90,2.70,6.59,6.58,6.59
27.23,3.85,-2.72,3.86,-2.71,2.71,2.91,2.76,6.57,6.57,6.57
27.50,3.82,-2.74,3.83,-2.73,2.73,2.91,2.81,6.55,6.56,6.56
27.77,3.80,-2.74,3.80,-2.74,2.74,2.90,2.86,6.54,6.54,6.54
28.05,3.78,-2.75,3.78,-2.75,2.75,2.90,2.91,6.53,6.53,6.53
28.33,3.75,-2.75,3.76,-2.76,2.76,2.89,2.95,6.51,6.51,6.51
28.62,3.74,-2.75,3.74,-2.76,2.76,2.89,3.00,6.51,6.50,6.50
28.90,3.71,-2.77,3.72,-2.77,2.77,2.88,3.03,6.48,6.49,6.48
29.19,3.69,-2.77,3.70,-2.77,2.77,2.86,3.07,6.47,6.47,6.46
29.48,3.68,-2.78,3.68,-2.78,2.78,2.85,3.10,6.46,6.46,6.46
29.78,3.66,-2.78,3.66,-2.78,2.78,2.83,3.13,6.45,6.44,6.45
30.08,3.64,-2.79,3.65,-2.78,2.78,2.81,3.15,6.43,6.43,6.44
30.38,3.62,-2.79,3.63,-2.78,2.78,2.79,3.17,6.41,6.41,6.41
30.68,3.62,-2.78,3.62,-2.78,2.78,2.77,3.18,6.41,6.40,6.40
30.99,3.61,-2.77,3.60,-2.78,2.78,2.75,3.19,6.39,6.38,6.38
31.30,3.59,-2.77,3.59,-2.78,2.78,2.72,3.19,6.37,6.37,6.37
31.61,3.58,-2.77,3.58,-2.77,2.77,2.70,3.19,6.35,6.35,6.35
31.93,3.56,-2.77,3.57,-2.76,2.76,2.67,3.18,6.32,6.33,6.33
32.24,3.55,-2.75,3.56,-2.75,2.75,2.64,3.17,6.30,6.31,6.30
32.57,3.55,-2.73,3.55,-2.73,2.73,2.61,3.15,6.29,6.29,6.29
32.89,3.54,-2.73,3.55,-2.72,2.72,2.58,3.13,6.26,6.27,6.27
33.22,3.54,-2.70,3.55,-2.70,2.70,2.54,3.10,6.24,6.25,6.24
33.55,3.54,-2.68,3.55,-2.68,2.68,2.51,3.07,6.22,6.23,6.23
33.89,3.54,-2.66,3.55,-2.66,2.66,2.47,3.04,6.20,6.20,6.20
34.23,3.55,-2.63,3.55,-2.63,2.63,2.44,3.00,6.19,6.18,6.18
34.57,3.56,-2.59,3.56,-2.60,2.60,2.40,2.96,6.17,6.16,6.16
34.92,3.56,-2.57,3.57,-2.57,2.57,2.37,2.92,6.14,6.14,6.13
35.27,3.57,-2.55,3.58,-2.54,2.54,2.33,2.87,6.11,6.12,6.12
35.62,3.59,-2.50,3.59,-2.51,2.51,2.29,2.83,6.10,6.10,6.10
35.97,3.60,-2.47,3.61,-2.47,2.47,2.25,2.78,6.07,6.08,6.07
36.33,3.62,-2.43,3.62,-2.43,2.43,2.21,2.72,6.05,6.05,6.06
36.70,3.63,-2.40,3.64,-2.39,2.39,2.18,2.67,6.02,6.03,6.03
37.06,3.66,-2.34,3.66,-2.35,2.35,2.14,2.62,6.01,6.01,6.01
37.43,3.68,-2.31,3.68,-2.30,2.30,2.10,2.56,5.99,5.99,5.99
37.81,3.70,-2.27,3.71,-2.26,2.26,2.06,2.51,5.96,5.97,5.97
38.19,3.73,-2.21,3.73,-2.22,2.22,2.02,2.45,5.95,5.95,5.94
38.57,3.75,-2.17,3.75,-2.17,2.17,1.98,2.40,5.92,5.92,5.93
38.95,3.78,-2.12,3.78,-2.12,2.12,1.94,2.35,5.91,5.90,5.90
39.34,3.80,-2.07,3.80,-2.08,2.08,1.90,2.29,5.88,5.88,5.88
39.74,3.83,-2.02,3.83,-2.03,2.03,1.87,2.24,5.87,5.86,5.85
40.14,3.85,-1.99,3.85,-1.99,1.99,1.83,2.19,5.84,5.84,5.85
40.54,3.87,-1.95,3.88,-1.94,1.94,1.79,2.14,5.82,5.82,5.82
40.94,3.90,-1.90,3.91,-1.90,1.90,1.75,2.09,5.80,5.80,5.80
41.35,3.92,-1.85,3.93,-1.85,1.85,1.71,2.04,5.78,5.78,5.77
41.76,3.95,-1.81,3.95,-1.81,1.81,1.68,1.99,5.76,5.76,5.77
42.18,3.98,-1.77,3.98,-1.76,1.76,1.64,1.94,5.75,5.74,5.75
42.60,4.00,-1.72,4.00,-1.72,1.72,1.61,1.90,5.72,5.72,5.72
43.03,4.02,-1.69,4.03,-1.68,1.68,1.57,1.85,5.70,5.70,5.71
43.46,4.04,-1.64,4.05,-1.63,1.63,1.53,1.81,5.68,5.68,5.69
43.90,4.07,-1.58,4.07,-1.59,1.59,1.50,1.77,5.67,5.66,5.66
44.33,4.09,-1.54,4.09,-1.55,1.55,1.47,1.73,5.65,5.64,5.64
44.78,4.10,-1.52,4.11,-1.51,1.51,1.43,1.69,5.62,5.62,5.62
45.23,4.12,-1.47,4.13,-1.47,1.47,1.40,1.65,5.60,5.60,5.59
45.68,4.14,-1.43,4.14,-1.44,1.44,1.37,1.62,5.58,5.58,5.57
46.13,4.16,-1.38,4.16,-1.40,1.40,1.33,1.58,5.56,5.56,5.55
46.60,4.17,-1.36,4.17,-1.36,1.36,1.30,1.55,5.54,5.53,5.54
47.06,4.18,-1.33,4.18,-1.33,1.33,1.27,1.52,5.51,5.51,5.52
47.53,4.19,-1.30,4.19,-1.29,1.29,1.24,1.49,5.49,5.49,5.49
48.01,4.20,-1.28,4.20,-1.26,1.26,1.21,1.46,5.47,5.46,5.48
48.49,4.21,-1.24,4.21,-1.23,1.23,1.18,1.43,5.45,5.44,5.45
48.97,4.21,-1.20,4.21,-1.20,1.20,1.15,1.41,5.42,5.42,5.42
49.46,4.21,-1.17,4.22,-1.18,1.18,1.12,1.38,5.39,5.39,5.38
49.96,4.21,-1.14,4.22,-1.15,1.15,1.09,1.36,5.36,5.37,5.35
50.46,4.22,-1.12,4.22,-1.12,1.12,1.06,1.33,5.34,5.34,5.35
50.96,4.22,-1.10,4.22,-1.10,1.10,1.04,1.31,5.32,5.32,5.32
51.47,4.22,-1.06,4.22,-1.07,1.07,1.01,1.29,5.29,5.29,5.29
51.99,4.21,-1.05,4.22,-1.04,1.04,0.98,1.27,5.26,5.26,5.26
52.51,4.21,-1.03,4.22,-1.02,1.02,0.96,1.25,5.23,5.24,5.24
53.03,4.21,-1.00,4.21,-1.00,1.00,0.93,1.23,5.21,5.21,5.22
53.56,4.21,-0.97,4.21,-0.98,0.98,0.90,1.21,5.19,5.18,5.19
54.10,4.20,-0.96,4.20,-0.96,0.96,0.88,1.19,5.16,5.16,5.16
54.64,4.19,-0.94,4.20,-0.93,0.93,0.85,1.17,5.13,5.13,5.13
55.18,4.18,-0.92,4.19,-0.92,0.92,0.83,1.15,5.10,5.10,5.10
55.74,4.18,-0.89,4.18,-0.90,0.90,0.81,1.13,5.08,5.08,5.07
56.29,4.16,-0.89,4.17,-0.88,0.88,0.78,1.11,5.04,5.05,5.05
56.86,4.16,-0.86,4.16,-0.86,0.86,0.76,1.09,5.02,5.02,5.02
57.42,4.15,-0.83,4.15,-0.84,0.84,0.74,1.07,5.00,4.99,4.99
58.00,4.13,-0.83,4.14,-0.83,0.83,0.72,1.05,4.96,4.96,4.96
58.58,4.12,-0.81,4.12,-0.81,0.81,0.69,1.03,4.93,4.93,4.93
59.16,4.11,-0.79,4.11,-0.79,0.79,0.67,1.01,4.91,4.90,4.91
59.76,4.09,-0.79,4.10,-0.78,0.78,0.65,0.99,4.87,4.87,4.88
60.35,4.08,-0.76,4.08,-0.76,0.76,0.63,0.97,4.84,4.84,4.84
60.96,4.06,-0.76,4.06,-0.75,0.75,0.61,0.94,4.81,4.81,4.83
61.57,4.04,-0.74,4.05,-0.73,0.73,0.59,0.92,4.78,4.78,4.78
62.18,4.03,-0.71,4.03,-0.72,0.72,0.57,0.89,4.75,4.75,4.74
62.80,4.01,-0.70,4.01,-0.70,0.70,0.55,0.87,4.72,4.72,4.71
63.43,3.99,-0.68,3.99,-0.69,0.69,0.53,0.84,4.69,4.68,4.67
64.07,3.97,-0.67,3.97,-0.68,0.68,0.51,0.81,4.65,4.65,4.64
64.71,3.95,-0.67,3.96,-0.67,0.67,0.49,0.78,4.62,4.62,4.62
65.35,3.93,-0.65,3.94,-0.65,0.65,0.47,0.75,4.59,4.59,4.59
66.01,3.91,-0.65,3.92,-0.64,0.64,0.45,0.72,4.56,4.56,4.56
66.67,3.90,-0.63,3.90,-0.63,0.63,0.43,0.68,4.53,4.53,4.53
67.33,3.88,-0.62,3.88,-0.62,0.62,0.41,0.65,4.50,4.50,4.50
68.01,3.85,-0.61,3.86,-0.61,0.61,0.40,0.62,4.46,4.47,4.47
68.69,3.84,-0.60,3.84,-0.60,0.60,0.38,0.58,4.44,4.44,4.44
69.37,3.81,-0.59,3.82,-0.58,0.58,0.36,0.54,4.40,4.40,4.40
70.07,3.80,-0.57,3.80,-0.57,0.57,0.34,0.51,4.38,4.37,4.37
70.77,3.78,-0.56,3.78,-0.56,0.56,0.33,0.47,4.34,4.34,4.34
71.48,3.76,-0.54,3.76,-0.54,0.54,0.31,0.43,4.30,4.30,4.30
72.19,3.73,-0.53,3.74,-0.52,0.52,0.29,0.39,4.26,4.26,4.27
72.91,3.72,-0.50,3.72,-0.51,0.51,0.27,0.35,4.23,4.22,4.23
73.64,3.69,-0.49,3.70,-0.49,0.49,0.26,0.31,4.18,4.18,4.18
74.38,3.67,-0.47,3.68,-0.47,0.47,0.24,0.27,4.14,4.14,4.15
75.12,3.66,-0.43,3.66,-0.44,0.44,0.22,0.22,4.11,4.10,4.09
75.87,3.63,-0.42,3.64,-0.42,0.42,0.20,0.18,4.05,4.06,4.05
76.63,3.61,-0.40,3.62,-0.40,0.40,0.19,0.14,4.01,4.01,4.01
77.40,3.59,-0.37,3.60,-0.37,0.37,0.17,0.09,3.96,3.96,3.97
78.17,3.57,-0.33,3.58,-0.34,0.34,0.15,0.05,3.91,3.92,3.91
78.95,3.55,-0.32,3.56,-0.31,0.31,0.14,0.01,3.87,3.87,3.87
79.74,3.53,-0.29,3.54,-0.28,0.28,0.12,-0.04,3.82,3.82,3.82
80.54,3.51,-0.26,3.52,-0.25,0.25,0.10,-0.08,3.76,3.77,3.77
81.35,3.50,-0.21,3.50,-0.22,0.22,0.08,-0.13,3.72,3.72,3.72
82.16,3.48,-0.18,3.48,-0.18,0.18,0.07,-0.18,3.67,3.66,3.66
82.98,3.46,-0.15,3.46,-0.15,0.15,0.05,-0.22,3.61,3.61,3.62
83.81,3.44,-0.11,3.44,-0.11,0.11,0.03,-0.27,3.56,3.55,3.55
84.65,3.42,-0.07,3.42,-0.07,0.07,0.01,-0.32,3.50,3.50,3.49
85.50,3.40,-0.04,3.41,-0.04,0.04,-0.00,-0.36,3.44,3.44,3.44
86.35,3.38,-0.00,3.39,0.00,-0.00,-0.02,-0.41,3.38,3.38,3.39
87.22,3.36,0.04,3.37,0.04,-0.04,-0.04,-0.46,3.32,3.33,3.33
88.09,3.35,0.09,3.35,0.08,-0.08,-0.06,-0.51,3.27,3.27,3.26
88.97,3.33,0.12,3.33,0.12,-0.12,-0.08,-0.56,3.21,3.21,3.21
89.86,3.31,0.16,3.31,0.16,-0.16,-0.10,-0.61,3.15,3.15,3.15
90.76,3.29,0.21,3.29,0.20,-0.20,-0.11,-0.66,3.09,3.09,3.08
91.66,3.27,0.25,3.27,0.25,-0.25,-0.13,-0.71,3.03,3.03,3.03
92.58,3.25,0.30,3.26,0.29,-0.29,-0.15,-0.76,2.96,2.96,2.95
93.51,3.23,0.33,3.24,0.34,-0.34,-0.17,-0.81,2.90,2.90,2.91
94.44,3.22,0.38,3.22,0.39,-0.39,-0.19,-0.86,2.84,2.84,2.84
95.39,3.20,0.43,3.20,0.43,-0.43,-0.21,-0.92,2.77,2.77,2.78
96.34,3.18,0.48,3.19,0.48,-0.48,-0.23,-0.97,2.70,2.70,2.70
97.30,3.16,0.53,3.17,0.53,-0.53,-0.26,-1.02,2.63,2.64,2.64
98.28,3.15,0.58,3.15,0.59,-0.59,-0.28,-1.07,2.57,2.57,2.57
99.26,3.13,0.64,3.14,0.64,-0.64,-0.30,-1.13,2.50,2.50,2.49
100.25,3.12,0.70,3.12,0.69,-0.69,-0.32,-1.18,2.43,2.43,2.43
101.25,3.10,0.75,3.10,0.75,-0.75,-0.34,-1.23,2.36,2.36,2.36
102.27,3.09,0.81,3.09,0.80,-0.80,-0.37,-1.29,2.29,2.28,2.28
103.29,3.07,0.87,3.07,0.86,-0.86,-0.39,-1.34,2.21,2.21,2.20
104.32,3.05,0.92,3.06,0.92,-0.92,-0.42,-1.39,2.13,2.14,2.14
105.37,3.04,0.98,3.04,0.98,-0.98,-0.44,-1.44,2.07,2.06,2.07
106.42,3.01,1.02,3.02,1.04,-1.04,-0.47,-1.50,1.98,1.99,1.99
107.48,3.00,1.09,3.01,1.10,-1.10,-0.50,-1.55,1.91,1.91,1.91
108.56,2.99,1.16,2.99,1.16,-1.16,-0.52,-1.60,1.84,1.83,1.83
109.64,2.97,1.22,2.97,1.22,-1.22,-0.55,-1.65,1.76,1.76,1.76
110.74,2.96,1.27,2.96,1.28,-1.28,-0.58,-1.69,1.69,1.68,1.69
111.85,2.94,1.33,2.94,1.34,-1.34,-0.61,-1.74,1.60,1.60,1.61
112.97,2.92,1.41,2.92,1.40,-1.40,-0.64,-1.78,1.52,1.52,1.52
114.10,2.90,1.45,2.91,1.46,-1.46,-0.67,-1.83,1.44,1.45,1.45
115.24,2.89,1.52,2.89,1.52,-1.52,-0.71,-1.87,1.38,1.37,1.37
116.39,2.87,1.59,2.87,1.58,-1.58,-0.74,-1.90,1.30,1.30,1.29
117.55,2.85,1.64,2.86,1.64,-1.64,-0.77,-1.94,1.22,1.22,1.21
118.73,2.83,1.70,2.84,1.69,-1.69,-0.81,-1.97,1.14,1.15,1.14
119.92,2.82,1.75,2.82,1.75,-1.75,-0.85,-2.00,1.08,1.07,1.07
121.12,2.80,1.81,2.80,1.80,-1.80,-0.89,-2.03,1.00,1.00,1.00
122.33,2.78,1.86,2.78,1.86,-1.86,-0.93,-2.06,0.93,0.93,0.93
123.55,2.76,1.90,2.77,1.91,-1.91,-0.97,-2.08,0.85,0.85,0.86
124.79,2.74,1.95,2.75,1.96,-1.96,-1.01,-2.10,0.78,0.79,0.79
126.03,2.72,1.99,2.73,2.01,-2.01,-1.05,-2.12,0.71,0.72,0.73
127.29,2.71,2.06,2.71,2.06,-2.06,-1.10,-2.13,0.65,0.65,0.66
128.57,2.69,2.12,2.69,2.11,-2.11,-1.14,-2.14,0.59,0.59,0.58
129.85,2.68,2.16,2.68,2.15,-2.15,-1.19,-2.15,0.53,0.52,0.52
131.15,2.65,2.19,2.66,2.19,-2.19,-1.24,-2.16,0.46,0.46,0.46
132.46,2.64,2.25,2.64,2.24,-2.24,-1.29,-2.16,0.41,0.40,0.39
133.79,2.62,2.28,2.62,2.28,-2.28,-1.35,-2.16,0.35,0.34,0.35
135.12,2.60,2.32,2.60,2.31,-2.31,-1.40,-2.16,0.29,0.29,0.28
136.48,2.57,2.34,2.58,2.34,-2.34,-1.46,-2.16,0.23,0.24,0.24
137.84,2.55,2.36,2.56,2.38,-2.38,-1.52,-2.15,0.18,0.19,0.19
139.22,2.54,2.41,2.54,2.40,-2.40,-1.57,-2.15,0.14,0.14,0.13
140.61,2.52,2.45,2.52,2.43,-2.43,-1.64,-2.14,0.09,0.09,0.08
142.02,2.50,2.45,2.50,2.45,-2.45,-1.70,-2.13,0.05,0.05,0.06
143.44,2.48,2.47,2.48,2.47,-2.47,-1.76,-2.12,0.01,0.01,0.02
144.87,2.46,2.50,2.46,2.49,-2.49,-1.83,-2.11,-0.03,-0.03,-0.03
146.32,2.44,2.52,2.44,2.51,-2.51,-1.90,-2.10,-0.07,-0.07,-0.07
147.78,2.42,2.52,2.42,2.53,-2.53,-1.97,-2.09,-0.11,-0.11,-0.10
149.26,2.40,2.54,2.40,2.55,-2.55,-2.04,-2.08,-0.14,-0.14,-0.14
150.75,2.38,2.57,2.38,2.56,-2.56,-2.11,-2.07,-0.18,-0.18,-0.18
152.26,2.36,2.58,2.36,2.58,-2.58,-2.18,-2.06,-0.21,-0.22,-0.22
153.78,2.34,2.59,2.34,2.59,-2.59,-2.25,-2.05,-0.25,-0.25,-0.25
155.32,2.32,2.61,2.32,2.60,-2.60,-2.32,-2.04,-0.28,-0.28,-0.28
156.88,2.29,2.61,2.30,2.62,-2.62,-2.40,-2.03,-0.32,-0.32,-0.31
158.44,2.27,2.63,2.28,2.63,-2.63,-2.47,-2.03,-0.36,-0.35,-0.35
160.03,2.25,2.65,2.25,2.64,-2.64,-2.54,-2.02,-0.39,-0.39,-0.39
161.63,2.22,2.66,2.23,2.65,-2.65,-2.61,-2.02,-0.43,-0.42,-0.43
163.24,2.20,2.66,2.21,2.66,-2.66,-2.68,-2.01,-0.46,-0.46,-0.46
164.88,2.18,2.67,2.18,2.68,-2.68,-2.74,-2.01,-0.49,-0.49,-0.49
166.53,2.16,2.69,2.16,2.69,-2.69,-2.80,-2.01,-0.52,-0.53,-0.52
168.19,2.13,2.70,2.13,2.70,-2.70,-2.86,-2.01,-0.56,-0.56,-0.57
169.87,2.10,2.70,2.11,2.71,-2.71,-2.92,-2.01,-0.61,-0.60,-0.60
171.57,2.08,2.72,2.08,2.72,-2.72,-2.97,-2.02,-0.64,-0.64,-0.63
173.29,2.05,2.72,2.06,2.74,-2.74,-3.02,-2.02,-0.68,-0.68,-0.67
175.02,2.03,2.74,2.03,2.75,-2.75,-3.06,-2.03,-0.71,-0.72,-0.71
176.77,2.00,2.76,2.00,2.76,-2.76,-3.09,-2.04,-0.76,-0.76,-0.76
178.54,1.98,2.78,1.97,2.77,-2.77,-3.12,-2.05,-0.78,-0.79,-0.80
180.32,1.95,2.79,1.94,2.78,-2.78,-3.14,-2.06,-0.82,-0.83,-0.84
182.13,1.91,2.79,1.91,2.79,-2.79,-3.16,-2.08,-0.87,-0.88,-0.87
183.95,1.87,2.79,1.88,2.80,-2.80,-3.17,-2.09,-0.92,-0.91,-0.92
185.79,1.85,2.81,1.85,2.80,-2.80,-3.17,-2.11,-0.95,-0.95,-0.96
187.65,1.81,2.82,1.81,2.81,-2.81,-3.16,-2.13,-0.99,-0.99,-1.00
189.52,1.77,2.81,1.78,2.81,-2.81,-3.15,-2.15,-1.04,-1.03,-1.04
191.42,1.74,2.81,1.75,2.81,-2.81,-3.13,-2.17,-1.07,-1.06,-1.07
193.33,1.71,2.81,1.71,2.81,-2.81,-3.10,-2.19,-1.10,-1.10,-1.09
195.27,1.67,2.80,1.68,2.81,-2.81,-3.06,-2.21,-1.14,-1.13,-1.13
197.22,1.63,2.79,1.64,2.80,-2.80,-3.03,-2.24,-1.17,-1.16,-1.16
199.19,1.60,2.81,1.60,2.80,-2.80,-2.98,-2.26,-1.19,-1.19,-1.21
201.18,1.57,2.80,1.57,2.79,-2.79,-2.93,-2.29,-1.22,-1.22,-1.23
203.19,1.53,2.78,1.53,2.78,-2.78,-2.88,-2.32,-1.25,-1.25,-1.25
205.23,1.49,2.77,1.50,2.77,-2.77,-2.82,-2.35,-1.28,-1.28,-1.28
207.28,1.46,2.75,1.46,2.76,-2.76,-2.76,-2.37,-1.30,-1.30,-1.29
209.35,1.42,2.75,1.42,2.75,-2.75,-2.69,-2.40,-1.32,-1.32,-1.32
211.44,1.39,2.74,1.39,2.73,-2.73,-2.63,-2.43,-1.34,-1.34,-1.35
213.56,1.35,2.72,1.35,2.71,-2.71,-2.56,-2.46,-1.36,-1.36,-1.37
215.69,1.31,2.69,1.31,2.69,-2.69,-2.49,-2.49,-1.38,-1.38,-1.37
217.85,1.26,2.65,1.27,2.67,-2.67,-2.42,-2.51,-1.40,-1.39,-1.39
220.03,1.23,2.65,1.24,2.64,-2.64,-2.35,-2.54,-1.41,-1.41,-1.41
222.23,1.20,2.63,1.20,2.62,-2.62,-2.28,-2.56,-1.41,-1.42,-1.43
224.45,1.16,2.59,1.16,2.59,-2.59,-2.21,-2.58,-1.42,-1.42,-1.42
226.70,1.12,2.56,1.13,2.56,-2.56,-2.14,-2.60,-1.44,-1.43,-1.44
228.96,1.09,2.53,1.10,2.53,-2.53,-2.07,-2.62,-1.44,-1.43,-1.44
231.25,1.06,2.50,1.07,2.50,-2.50,-2.00,-2.63,-1.44,-1.43,-1.43
233.57,1.03,2.46,1.04,2.47,-2.47,-1.94,-2.64,-1.43,-1.43,-1.42
235.90,1.00,2.43,1.01,2.44,-2.44,-1.87,-2.65,-1.43,-1.42,-1.43
238.26,0.98,2.41,0.99,2.40,-2.40,-1.81,-2.66,-1.42,-1.42,-1.43
240.64,0.96,2.37,0.96,2.37,-2.37,-1.75,-2.66,-1.41,-1.41,-1.41
243.05,0.94,2.34,0.94,2.34,-2.34,-1.69,-2.66,-1.39,-1.40,-1.40
245.48,0.91,2.29,0.92,2.30,-2.30,-1.63,-2.65,-1.39,-1.38,-1.38
247.93,0.89,2.26,0.90,2.26,-2.26,-1.57,-2.64,-1.37,-1.37,-1.37
250.41,0.88,2.24,0.88,2.23,-2.23,-1.52,-2.63,-1.34,-1.35,-1.36
252.92,0.86,2.19,0.86,2.19,-2.19,-1.46,-2.61,-1.33,-1.33,-1.33
255.45,0.83,2.14,0.84,2.15,-2.15,-1.41,-2.59,-1.32,-1.31,-1.31
258.00,0.82,2.11,0.82,2.11,-2.11,-1.36,-2.56,-1.29,-1.29,-1.28
260.58,0.80,2.08,0.80,2.07,-2.07,-1.31,-2.53,-1.27,-1.27,-1.27
263.19,0.78,2.03,0.78,2.03,-2.03,-1.26,-2.49,-1.25,-1.25,-1.25
265.82,0.76,1.99,0.76,1.99,-1.99,-1.22,-2.46,-1.23,-1.23,-1.23
268.48,0.74,1.95,0.74,1.95,-1.95,-1.17,-2.41,-1.20,-1.20,-1.20
271.16,0.73,1.91,0.73,1.91,-1.91,-1.13,-2.37,-1.17,-1.18,-1.17
273.87,0.70,1.86,0.71,1.86,-1.86,-1.09,-2.32,-1.16,-1.16,-1.16
276.61,0.68,1.81,0.69,1.82,-1.82,-1.05,-2.27,-1.14,-1.13,-1.13
279.38,0.66,1.78,0.67,1.78,-1.78,-1.01,-2.22,-1.11,-1.11,-1.11
282.17,0.64,1.73,0.65,1.73,-1.73,-0.98,-2.16,-1.09,-1.09,-1.09
284.99,0.62,1.69,0.63,1.69,-1.69,-0.94,-2.10,-1.06,-1.06,-1.06
287.84,0.60,1.64,0.60,1.64,-1.64,-0.91,-2.04,-1.04,-1.04,-1.04
290.72,0.58,1.59,0.58,1.59,-1.59,-0.87,-1.98,-1.01,-1.01,-1.00
293.63,0.56,1.55,0.56,1.54,-1.54,-0.84,-1.92,-0.98,-0.98,-0.99
296.57,0.53,1.49,0.54,1.49,-1.49,-0.81,-1.85,-0.96,-0.95,-0.95
299.53,0.51,1.44,0.51,1.44,-1.44,-0.78,-1.79,-0.92,-0.92,-0.93
302.53,0.49,1.40,0.49,1.38,-1.38,-0.75,-1.72,-0.89,-0.89,-0.90
305.55,0.46,1.32,0.46,1.33,-1.33,-0.72,-1.65,-0.86,-0.86,-0.86
308.61,0.44,1.28,0.44,1.27,-1.27,-0.70,-1.59,-0.83,-0.83,-0.83
311.69,0.41,1.21,0.41,1.21,-1.21,-0.67,-1.52,-0.80,-0.80,-0.80
314.81,0.39,1.15,0.39,1.16,-1.16,-0.64,-1.45,-0.76,-0.77,-0.76
317.96,0.35,1.09,0.36,1.10,-1.10,-0.62,-1.38,-0.74,-0.74,-0.73
321.14,0.33,1.04,0.33,1.04,-1.04,-0.60,-1.32,-0.71,-0.71,-0.71
324.35,0.30,0.99,0.30,0.98,-0.98,-0.57,-1.25,-0.68,-0.68,-0.68
327.59,0.27,0.92,0.27,0.93,-0.93,-0.55,-1.18,-0.65,-0.65,-0.65
330.87,0.24,0.86,0.25,0.87,-0.87,-0.53,-1.12,-0.63,-0.62,-0.62
334.18,0.21,0.82,0.22,0.81,-0.81,-0.51,-1.05,-0.60,-0.60,-0.60
337.52,0.19,0.77,0.19,0.76,-0.76,-0.49,-0.98,-0.57,-0.57,-0.58
340.90,0.16,0.71,0.16,0.71,-0.71,-0.47,-0.92,-0.54,-0.55,-0.55
344.30,0.12,0.65,0.13,0.66,-0.66,-0.45,-0.85,-0.53,-0.53,-0.53
347.75,0.09,0.60,0.10,0.61,-0.61,-0.43,-0.79,-0.51,-0.51,-0.50
351.23,0.07,0.56,0.07,0.56,-0.56,-0.41,-0.73,-0.48,-0.49,-0.49
354.74,0.04,0.51,0.04,0.51,-0.51,-0.39,-0.66,-0.47,-0.47,-0.47
358.28,0.01,0.46,0.02,0.47,-0.47,-0.37,-0.60,-0.45,-0.45,-0.45
361.87,-0.01,0.43,-0.01,0.42,-0.42,-0.35,-0.54,-0.43,-0.43,-0.43
365.49,-0.04,0.37,-0.03,0.38,-0.38,-0.34,-0.48,-0.42,-0.41,-0.41
369.14,-0.06,0.34,-0.05,0.34,-0.34,-0.32,-0.41,-0.40,-0.39,-0.40
372.83,-0.08,0.30,-0.07,0.30,-0.30,-0.30,-0.35,-0.38,-0.37,-0.38
376.56,-0.09,0.28,-0.09,0.27,-0.27,-0.29,-0.29,-0.35,-0.35,-0.36
380.33,-0.11,0.23,-0.10,0.23,-0.23,-0.27,-0.23,-0.34,-0.34,-0.33
384.13,-0.12,0.20,-0.12,0.20,-0.20,-0.25,-0.18,-0.31,-0.32,-0.32
387.97,-0.14,0.16,-0.13,0.17,-0.17,-0.24,-0.12,-0.30,-0.30,-0.30
391.85,-0.14,0.14,-0.14,0.13,-0.13,-0.22,-0.06,-0.27,-0.28,-0.28
395.77,-0.15,0.10,-0.15,0.11,-0.11,-0.21,-0.00,-0.25,-0.26,-0.25
399.73,-0.16,0.08,-0.16,0.08,-0.08,-0.19,0.05,-0.23,-0.23,-0.23
403.72,-0.17,0.05,-0.16,0.05,-0.05,-0.18,0.11,-0.22,-0.21,-0.21
407.76,-0.17,0.03,-0.16,0.03,-0.03,-0.16,0.17,-0.19,-0.19,-0.20
411.84,-0.18,-0.01,-0.17,0.00,-0.00,-0.15,0.22,-0.18,-0.17,-0.17
415.96,-0.17,-0.02,-0.17,-0.02,0.02,-0.13,0.27,-0.15,-0.15,-0.15
420.12,-0.18,-0.05,-0.17,-0.04,0.04,-0.11,0.33,-0.14,-0.13,-0.13
424.32,-0.18,-0.08,-0.17,-0.06,0.06,-0.10,0.38,-0.11,-0.10,-0.10
428.56,-0.17,-0.08,-0.17,-0.08,0.08,-0.08,0.43,-0.08,-0.08,-0.08
432.85,-0.17,-0.10,-0.17,-0.11,0.11,-0.07,0.48,-0.06,-0.06,-0.06
437.18,-0.16,-0.12,-0.17,-0.13,0.13,-0.05,0.52,-0.02,-0.03,-0.03
441.55,-0.16,-0.15,-0.17,-0.16,0.16,-0.04,0.57,-0.00,-0.01,-0.00
445.96,-0.16,-0.17,-0.17,-0.18,0.18,-0.02,0.62,0.03,0.02,0.01
450.42,-0.16,-0.19,-0.17,-0.21,0.21,-0.00,0.66,0.05,0.04,0.03
454.93,-0.17,-0.24,-0.17,-0.24,0.24,0.01,0.70,0.07,0.07,0.07
459.48,-0.17,-0.26,-0.17,-0.27,0.27,0.03,0.74,0.10,0.10,0.09
464.07,-0.18,-0.30,-0.18,-0.30,0.30,0.05,0.78,0.12,0.12,0.12
468.71,-0.19,-0.35,-0.18,-0.33,0.33,0.07,0.81,0.15,0.15,0.16
473.40,-0.20,-0.38,-0.19,-0.37,0.37,0.08,0.85,0.17,0.18,0.18
478.13,-0.20,-0.40,-0.19,-0.40,0.40,0.10,0.88,0.21,0.21,0.21
482.91,-0.21,-0.44,-0.20,-0.44,0.44,0.12,0.91,0.23,0.24,0.24
487.74,-0.21,-0.47,-0.21,-0.47,0.47,0.14,0.93,0.26,0.26,0.27
492.62,-0.22,-0.51,-0.21,-0.51,0.51,0.16,0.96,0.29,0.29,0.30
497.55,-0.22,-0.53,-0.22,-0.54,0.54,0.18,0.98,0.33,0.32,0.32
502.52,-0.23,-0.58,-0.23,-0.58,0.58,0.20,1.00,0.35,0.35,0.35
507.55,-0.24,-0.61,-0.24,-0.61,0.61,0.23,1.01,0.38,0.38,0.37
512.62,-0.24,-0.64,-0.24,-0.65,0.65,0.25,1.03,0.41,0.40,0.40
517.75,-0.24,-0.67,-0.25,-0.68,0.68,0.27,1.04,0.45,0.43,0.43
522.93,-0.26,-0.72,-0.26,-0.72,0.72,0.30,1.05,0.46,0.46,0.46
