frequency,raw,error,smoothed,error_smoothed,equalization,parametric_eq,fixed_band_eq,equalized_raw,equalized_smoothed,target
20.00,-10.48,-12.66,-10.48,-12.70,12.70,12.13,4.65,2.22,2.21,2.19
20.20,-10.39,-12.62,-10.39,-12.64,12.64,12.18,4.77,2.25,2.25,2.24
20.40,-10.29,-12.57,-10.29,-12.58,12.58,12.22,4.90,2.30,2.29,2.29
20.61,-10.20,-12.51,-10.20,-12.52,12.52,12.25,5.03,2.32,2.32,2.32
20.81,-10.10,-12.46,-10.11,-12.46,12.46,12.27,5.16,2.36,2.35,2.37
21.02,-10.01,-12.41,-10.01,-12.39,12.39,12.28,5.29,2.39,2.38,2.41
21.23,-9.93,-12.35,-9.92,-12.32,12.32,12.28,5.43,2.40,2.41,2.43
21.44,-9.84,-12.28,-9.83,-12.25,12.25,12.27,5.57,2.42,2.43,2.45
21.66,-9.76,-12.22,-9.73,-12.18,12.18,12.24,5.72,2.42,2.45,2.47
21.87,-9.66,-12.14,-9.64,-12.11,12.11,12.21,5.87,2.44,2.47,2.48
22.09,-9.57,-12.07,-9.55,-12.03,12.03,12.17,6.03,2.46,2.48,2.50
22.31,-9.46,-11.97,-9.45,-11.95,11.95,12.12,6.18,2.49,2.50,2.51
22.54,-9.37,-11.87,-9.36,-11.86,11.86,12.06,6.35,2.49,2.50,2.51
22.76,-9.27,-11.77,-9.27,-11.77,11.77,11.99,6.51,2.51,2.51,2.51
22.99,-9.16,-11.65,-9.17,-11.68,11.68,11.92,6.69,2.52,2.51,2.50
23.22,-9.07,-11.56,-9.08,-11.59,11.59,11.83,6.86,2.52,2.51,2.50
23.45,-8.98,-11.47,-8.99,-11.49,11.49,11.75,7.04,2.52,2.51,2.50
23.69,-8.88,-11.38,-8.89,-11.40,11.40,11.65,7.23,2.52,2.51,2.51
23.92,-8.79,-11.29,-8.80,-11.31,11.31,11.55,7.42,2.53,2.51,2.51
24.16,-8.71,-11.21,-8.71,-11.22,11.22,11.45,7.61,2.52,2.51,2.51
24.40,-8.63,-11.14,-8.63,-11.13,11.13,11.34,7.80,2.51,2.51,2.52
24.65,-8.56,-11.06,-8.54,-11.05,11.05,11.23,8.01,2.49,2.51,2.51
24.89,-8.47,-10.98,-8.46,-10.97,10.97,11.12,8.21,2.50,2.51,2.51
25.14,-8.40,-10.90,-8.38,-10.89,10.89,11.00,8.42,2.50,2.51,2.51
25.39,-8.30,-10.82,-8.31,-10.82,10.82,10.88,8.63,2.51,2.51,2.52
25.65,-8.23,-10.74,-8.23,-10.74,10.74,10.76,8.84,2.52,2.51,2.52
25.91,-8.14,-10.64,-8.16,-10.67,10.67,10.64,9.06,2.53,2.51,2.51
26.16,-8.07,-10.57,-8.08,-10.59,10.59,10.52,9.28,2.53,2.51,2.51
26.43,-8.00,-10.50,-8.00,-10.51,10.51,10.40,9.50,2.51,2.51,2.51
26.69,-7.93,-10.43,-7.92,-10.43,10.43,10.28,9.72,2.50,2.50,2.51
26.96,-7.86,-10.36,-7.84,-10.34,10.34,10.16,9.94,2.48,2.50,2.51
27.23,-7.78,-10.28,-7.75,-10.25,10.25,10.04,10.16,2.48,2.50,2.51
27.50,-7.70,-10.20,-7.67,-10.17,10.17,9.92,10.37,2.47,2.50,2.51
27.77,-7.61,-10.11,-7.58,-10.08,10.08,9.81,10.58,2.46,2.50,2.50
28.05,-7.53,-10.02,-7.50,-9.99,9.99,9.69,10.78,2.47,2.50,2.50
28.33,-7.42,-9.90,-7.41,-9.91,9.91,9.58,10.98,2.49,2.49,2.49
28.62,-7.31,-9.79,-7.33,-9.82,9.82,9.46,11.17,2.51,2.49,2.49
28.90,-7.20,-9.69,-7.24,-9.74,9.74,9.35,11.34,2.54,2.49,2.50
29.19,-7.12,-9.60,-7.16,-9.65,9.65,9.24,11.51,2.54,2.49,2.49
29.48,-7.06,-9.55,-7.08,-9.57,9.57,9.14,11.65,2.51,2.49,2.50
29.78,-7.00,-9.48,-7.00,-9.49,9.49,9.03,11.78,2.49,2.49,2.49
30.08,-6.93,-9.42,-6.93,-9.41,9.41,8.93,11.89,2.49,2.49,2.50
30.38,-6.86,-9.34,-6.86,-9.34,9.34,8.83,11.98,2.48,2.49,2.49
30.68,-6.79,-9.27,-6.79,-9.27,9.27,8.74,12.05,2.49,2.48,2.49
30.99,-6.72,-9.20,-6.72,-9.20,9.20,8.64,12.09,2.49,2.48,2.49
31.30,-6.66,-9.13,-6.65,-9.13,9.13,8.55,12.11,2.48,2.48,2.48
31.61,-6.60,-9.07,-6.59,-9.06,9.06,8.46,12.10,2.47,2.48,2.48
31.93,-6.53,-9.00,-6.52,-8.99,8.99,8.38,12.07,2.47,2.47,2.48
32.24,-6.47,-8.93,-6.45,-8.92,8.92,8.30,12.02,2.45,2.47,2.47
32.57,-6.41,-8.87,-6.37,-8.84,8.84,8.22,11.95,2.43,2.47,2.47
32.89,-6.34,-8.80,-6.30,-8.76,8.76,8.14,11.86,2.43,2.46,2.47
33.22,-6.26,-8.71,-6.23,-8.69,8.69,8.07,11.74,2.43,2.46,2.46
33.55,-6.16,-8.61,-6.16,-8.61,8.61,8.00,11.61,2.46,2.45,2.46
33.89,-6.07,-8.51,-6.09,-8.54,8.54,7.93,11.47,2.47,2.45,2.45
34.23,-5.99,-8.43,-6.02,-8.46,8.46,7.86,11.31,2.48,2.44,2.45
34.57,-5.92,-8.35,-5.95,-8.39,8.39,7.80,11.15,2.47,2.44,2.44
34.92,-5.85,-8.28,-5.88,-8.31,8.31,7.74,10.97,2.46,2.43,2.44
35.27,-5.80,-8.22,-5.81,-8.24,8.24,7.68,10.79,2.44,2.43,2.43
35.62,-5.76,-8.18,-5.75,-8.17,8.17,7.63,10.61,2.42,2.43,2.43
35.97,-5.72,-8.14,-5.69,-8.11,8.11,7.58,10.42,2.40,2.43,2.43
36.33,-5.66,-8.08,-5.63,-8.06,8.06,7.53,10.22,2.40,2.42,2.43
36.70,-5.59,-8.00,-5.58,-8.00,8.00,7.48,10.03,2.41,2.42,2.42
37.06,-5.53,-7.94,-5.53,-7.95,7.95,7.44,9.84,2.42,2.42,2.42
37.43,-5.45,-7.87,-5.48,-7.90,7.90,7.40,9.65,2.45,2.42,2.43
37.81,-5.38,-7.80,-5.42,-7.85,7.85,7.36,9.46,2.47,2.42,2.43
38.19,-5.34,-7.75,-5.37,-7.79,7.79,7.32,9.27,2.46,2.42,2.42
38.57,-5.33,-7.75,-5.31,-7.74,7.74,7.29,9.09,2.41,2.42,2.43
38.95,-5.32,-7.75,-5.25,-7.68,7.68,7.26,8.90,2.36,2.43,2.44
39.34,-5.25,-7.67,-5.19,-7.62,7.62,7.23,8.73,2.37,2.43,2.43
39.74,-5.16,-7.58,-5.13,-7.56,7.56,7.20,8.56,2.40,2.43,2.43
40.14,-5.09,-7.51,-5.07,-7.50,7.50,7.17,8.39,2.41,2.43,2.43
40.54,-5.01,-7.43,-5.01,-7.43,7.43,7.14,8.22,2.43,2.42,2.43
40.94,-4.94,-7.35,-4.95,-7.37,7.37,7.12,8.07,2.43,2.42,2.42
41.35,-4.88,-7.29,-4.89,-7.30,7.30,7.09,7.91,2.43,2.41,2.42
41.76,-4.83,-7.23,-4.84,-7.24,7.24,7.07,7.76,2.42,2.41,2.41
42.18,-4.77,-7.17,-4.78,-7.18,7.18,7.05,7.62,2.41,2.40,2.41
42.60,-4.70,-7.09,-4.72,-7.11,7.11,7.02,7.48,2.42,2.39,2.40
43.03,-4.63,-7.01,-4.67,-7.04,7.04,7.00,7.35,2.42,2.38,2.39
43.46,-4.61,-6.98,-4.61,-6.98,6.98,6.97,7.22,2.37,2.36,2.38
43.90,-4.59,-6.94,-4.57,-6.92,6.92,6.95,7.10,2.34,2.35,2.36
44.33,-4.54,-6.87,-4.53,-6.87,6.87,6.92,6.98,2.33,2.34,2.34
44.78,-4.48,-6.79,-4.49,-6.82,6.82,6.90,6.87,2.34,2.33,2.32
45.23,-4.45,-6.75,-4.45,-6.76,6.76,6.87,6.76,2.32,2.31,2.31
45.68,-4.44,-6.73,-4.40,-6.71,6.71,6.84,6.65,2.27,2.30,2.30
46.13,-4.41,-6.68,-4.36,-6.65,6.65,6.80,6.56,2.25,2.29,2.28
46.60,-4.33,-6.60,-4.33,-6.60,6.60,6.77,6.46,2.27,2.27,2.28
47.06,-4.27,-6.52,-4.29,-6.55,6.55,6.73,6.37,2.28,2.26,2.26
47.53,-4.25,-6.49,-4.25,-6.50,6.50,6.69,6.29,2.25,2.24,2.25
48.01,-4.23,-6.47,-4.22,-6.44,6.44,6.64,6.20,2.22,2.23,2.25
48.49,-4.18,-6.40,-4.17,-6.39,6.39,6.60,6.13,2.21,2.21,2.23
48.97,-4.13,-6.33,-4.13,-6.33,6.33,6.54,6.05,2.21,2.20,2.21
49.46,-4.08,-6.26,-4.09,-6.28,6.28,6.49,5.98,2.20,2.19,2.19
49.96,-4.03,-6.19,-4.05,-6.22,6.22,6.43,5.91,2.20,2.18,2.17
50.46,-4.03,-6.18,-4.01,-6.17,6.17,6.37,5.85,2.14,2.16,2.16
50.96,-4.03,-6.17,-3.97,-6.12,6.12,6.31,5.79,2.09,2.15,2.15
51.47,-3.96,-6.08,-3.93,-6.07,6.07,6.24,5.73,2.11,2.14,2.13
51.99,-3.88,-5.99,-3.90,-6.03,6.03,6.16,5.68,2.15,2.12,2.12
52.51,-3.85,-5.95,-3.87,-5.98,5.98,6.09,5.62,2.14,2.11,2.11
53.03,-3.83,-5.93,-3.84,-5.94,5.94,6.01,5.57,2.11,2.10,2.11
53.56,-3.78,-5.86,-3.81,-5.89,5.89,5.93,5.52,2.12,2.08,2.09
54.10,-3.74,-5.81,-3.78,-5.85,5.85,5.85,5.48,2.12,2.07,2.08
54.64,-3.73,-5.78,-3.75,-5.81,5.81,5.76,5.43,2.08,2.06,2.06
55.18,-3.73,-5.78,-3.71,-5.77,5.77,5.67,5.38,2.04,2.05,2.06
55.74,-3.73,-5.76,-3.68,-5.72,5.72,5.58,5.34,1.99,2.04,2.04
56.29,-3.70,-5.72,-3.64,-5.67,5.67,5.49,5.29,1.98,2.03,2.03
56.86,-3.64,-5.65,-3.60,-5.62,5.62,5.39,5.25,1.98,2.01,2.02
57.42,-3.59,-5.57,-3.57,-5.57,5.57,5.29,5.20,1.98,2.00,1.99
58.00,-3.53,-5.50,-3.53,-5.51,5.51,5.20,5.15,1.98,1.98,1.98
58.58,-3.49,-5.45,-3.49,-5.45,5.45,5.10,5.11,1.96,1.96,1.97
59.16,-3.44,-5.38,-3.45,-5.38,5.38,5.00,5.06,1.94,1.93,1.95
59.76,-3.36,-5.28,-3.40,-5.30,5.30,4.90,5.01,1.95,1.90,1.93
60.35,-3.33,-5.21,-3.35,-5.22,5.22,4.80,4.95,1.90,1.87,1.89
60.96,-3.33,-5.17,-3.30,-5.14,5.14,4.70,4.90,1.81,1.84,1.85
61.57,-3.27,-5.07,-3.25,-5.05,5.05,4.61,4.84,1.79,1.80,1.81
62.18,-3.20,-4.96,-3.20,-4.96,4.96,4.51,4.79,1.77,1.77,1.77
62.80,-3.14,-4.85,-3.15,-4.87,4.87,4.41,4.73,1.74,1.72,1.72
63.43,-3.12,-4.79,-3.10,-4.79,4.79,4.31,4.66,1.67,1.68,1.68
64.07,-3.11,-4.73,-3.06,-4.70,4.70,4.22,4.60,1.59,1.64,1.63
64.71,-2.98,-4.56,-3.01,-4.60,4.60,4.12,4.53,1.63,1.59,1.59
65.35,-2.92,-4.46,-2.97,-4.51,4.51,4.03,4.46,1.59,1.54,1.55
66.01,-2.92,-4.41,-2.92,-4.42,4.42,3.94,4.39,1.50,1.50,1.50
66.67,-2.92,-4.36,-2.88,-4.33,4.33,3.85,4.31,1.41,1.45,1.45
67.33,-2.88,-4.27,-2.84,-4.24,4.24,3.76,4.24,1.36,1.40,1.40
68.01,-2.79,-4.14,-2.80,-4.15,4.15,3.67,4.16,1.37,1.35,1.36
68.69,-2.74,-4.04,-2.77,-4.07,4.07,3.58,4.08,1.34,1.30,1.31
69.37,-2.72,-3.97,-2.74,-3.99,3.99,3.49,4.00,1.27,1.25,1.26
70.07,-2.71,-3.91,-2.70,-3.90,3.90,3.41,3.92,1.20,1.20,1.21
70.77,-2.64,-3.79,-2.67,-3.82,3.82,3.33,3.84,1.18,1.15,1.16
71.48,-2.62,-3.72,-2.64,-3.73,3.73,3.25,3.75,1.12,1.09,1.11
72.19,-2.62,-3.65,-2.62,-3.65,3.65,3.17,3.67,1.04,1.04,1.04
72.91,-2.62,-3.59,-2.59,-3.57,3.57,3.09,3.59,0.95,0.98,0.98
73.64,-2.62,-3.54,-2.56,-3.48,3.48,3.01,3.50,0.87,0.92,0.93
74.38,-2.59,-3.45,-2.53,-3.40,3.40,2.94,3.42,0.81,0.87,0.87
75.12,-2.53,-3.33,-2.50,-3.31,3.31,2.87,3.33,0.79,0.81,0.81
75.87,-2.44,-3.18,-2.48,-3.24,3.24,2.79,3.25,0.80,0.76,0.75
76.63,-2.42,-3.11,-2.46,-3.16,3.16,2.73,3.17,0.75,0.70,0.70
77.40,-2.42,-3.06,-2.44,-3.08,3.08,2.66,3.08,0.67,0.65,0.65
78.17,-2.42,-3.00,-2.41,-3.01,3.01,2.59,3.00,0.59,0.59,0.59
78.95,-2.42,-2.96,-2.40,-2.94,2.94,2.52,2.92,0.52,0.54,0.55
79.74,-2.35,-2.84,-2.37,-2.87,2.87,2.46,2.84,0.52,0.49,0.50
80.54,-2.32,-2.76,-2.35,-2.80,2.80,2.40,2.76,0.48,0.45,0.45
81.35,-2.32,-2.71,-2.33,-2.72,2.72,2.34,2.69,0.41,0.40,0.40
82.16,-2.32,-2.66,-2.31,-2.66,2.66,2.28,2.61,0.34,0.35,0.35
82.98,-2.32,-2.62,-2.29,-2.59,2.59,2.22,2.54,0.28,0.30,0.31
83.81,-2.32,-2.57,-2.27,-2.53,2.53,2.16,2.46,0.21,0.26,0.26
84.65,-2.26,-2.46,-2.25,-2.46,2.46,2.10,2.39,0.20,0.21,0.21
85.50,-2.23,-2.39,-2.23,-2.38,2.38,2.05,2.32,0.16,0.16,0.17
86.35,-2.23,-2.34,-2.20,-2.31,2.31,2.00,2.25,0.08,0.11,0.12
87.22,-2.21,-2.27,-2.17,-2.23,2.23,1.94,2.18,0.02,0.06,0.07
88.09,-2.12,-2.13,-2.14,-2.15,2.15,1.89,2.12,0.04,0.01,0.02
88.97,-2.12,-2.07,-2.11,-2.07,2.07,1.84,2.05,-0.04,-0.04,-0.04
89.86,-2.11,-2.01,-2.09,-1.99,1.99,1.79,1.99,-0.11,-0.09,-0.09
90.76,-2.11,-1.96,-2.06,-1.92,1.92,1.75,1.93,-0.18,-0.14,-0.14
91.66,-2.03,-1.83,-2.05,-1.85,1.85,1.70,1.86,-0.17,-0.19,-0.19
92.58,-1.99,-1.73,-2.04,-1.79,1.79,1.65,1.80,-0.19,-0.24,-0.25
93.51,-2.00,-1.69,-2.03,-1.74,1.74,1.61,1.75,-0.26,-0.30,-0.30
94.44,-2.01,-1.66,-2.03,-1.69,1.69,1.56,1.69,-0.32,-0.35,-0.34
95.39,-2.01,-1.61,-2.04,-1.64,1.64,1.52,1.63,-0.36,-0.40,-0.39
96.34,-2.02,-1.57,-2.06,-1.61,1.61,1.48,1.58,-0.41,-0.44,-0.44
97.30,-2.02,-1.52,-2.07,-1.58,1.58,1.43,1.52,-0.44,-0.49,-0.49
98.28,-2.07,-1.52,-2.09,-1.55,1.55,1.39,1.47,-0.52,-0.54,-0.54
99.26,-2.19,-1.60,-2.11,-1.52,1.52,1.35,1.42,-0.67,-0.59,-0.58
100.25,-2.19,-1.55,-2.12,-1.49,1.49,1.31,1.37,-0.70,-0.64,-0.63
101.25,-2.18,-1.49,-2.14,-1.46,1.46,1.28,1.32,-0.72,-0.68,-0.68
102.27,-2.19,-1.45,-2.17,-1.43,1.43,1.24,1.27,-0.75,-0.73,-0.73
103.29,-2.21,-1.42,-2.18,-1.40,1.40,1.20,1.22,-0.80,-0.78,-0.78
104.32,-2.23,-1.40,-2.20,-1.37,1.37,1.16,1.18,-0.86,-0.83,-0.82
105.37,-2.25,-1.37,-2.21,-1.33,1.33,1.13,1.13,-0.92,-0.88,-0.87
106.42,-2.22,-1.29,-2.23,-1.30,1.30,1.09,1.09,-0.92,-0.93,-0.92
107.48,-2.16,-1.17,-2.25,-1.26,1.26,1.05,1.05,-0.89,-0.99,-0.98
108.56,-2.20,-1.16,-2.26,-1.22,1.22,1.02,1.00,-0.98,-1.04,-1.03
109.64,-2.24,-1.15,-2.26,-1.17,1.17,0.99,0.96,-1.06,-1.09,-1.08
110.74,-2.26,-1.11,-2.26,-1.12,1.12,0.95,0.92,-1.13,-1.14,-1.14
111.85,-2.28,-1.09,-2.26,-1.07,1.07,0.92,0.88,-1.20,-1.19,-1.18
112.97,-2.29,-1.04,-2.26,-1.02,1.02,0.89,0.84,-1.27,-1.24,-1.24
114.10,-2.29,-0.99,-2.26,-0.97,0.97,0.85,0.81,-1.32,-1.29,-1.29
115.24,-2.31,-0.96,-2.26,-0.92,0.92,0.82,0.77,-1.39,-1.34,-1.34
116.39,-2.34,-0.94,-2.26,-0.87,0.87,0.79,0.73,-1.46,-1.38,-1.39
117.55,-2.35,-0.91,-2.26,-0.83,0.83,0.76,0.70,-1.52,-1.42,-1.43
118.73,-2.24,-0.76,-2.26,-0.79,0.79,0.73,0.67,-1.45,-1.46,-1.47
119.92,-2.18,-0.67,-2.25,-0.75,0.75,0.70,0.63,-1.43,-1.50,-1.50
121.12,-2.17,-0.62,-2.24,-0.70,0.70,0.66,0.60,-1.46,-1.54,-1.54
122.33,-2.16,-0.58,-2.24,-0.66,0.66,0.63,0.57,-1.49,-1.57,-1.57
123.55,-2.16,-0.55,-2.23,-0.62,0.62,0.60,0.54,-1.53,-1.61,-1.60
124.79,-2.23,-0.59,-2.22,-0.58,0.58,0.57,0.51,-1.64,-1.64,-1.63
126.03,-2.30,-0.63,-2.21,-0.55,0.55,0.54,0.48,-1.75,-1.67,-1.66
127.29,-2.26,-0.57,-2.21,-0.51,0.51,0.51,0.45,-1.74,-1.70,-1.68
128.57,-2.23,-0.50,-2.21,-0.48,0.48,0.48,0.42,-1.75,-1.73,-1.72
129.85,-2.22,-0.46,-2.20,-0.45,0.45,0.45,0.40,-1.77,-1.76,-1.75
131.15,-2.22,-0.43,-2.21,-0.42,0.42,0.42,0.37,-1.79,-1.78,-1.78
132.46,-2.21,-0.39,-2.21,-0.40,0.40,0.40,0.34,-1.81,-1.81,-1.81
133.79,-2.21,-0.36,-2.21,-0.37,0.37,0.37,0.32,-1.84,-1.84,-1.84
135.12,-2.21,-0.33,-2.21,-0.34,0.34,0.34,0.29,-1.87,-1.87,-1.87
136.48,-2.20,-0.30,-2.21,-0.31,0.31,0.31,0.27,-1.89,-1.90,-1.89
137.84,-2.20,-0.26,-2.20,-0.28,0.28,0.28,0.25,-1.91,-1.92,-1.93
139.22,-2.20,-0.23,-2.20,-0.25,0.25,0.25,0.22,-1.94,-1.95,-1.96
140.61,-2.20,-0.20,-2.21,-0.23,0.23,0.22,0.20,-1.97,-1.98,-1.99
142.02,-2.20,-0.18,-2.22,-0.20,0.20,0.19,0.18,-1.99,-2.01,-2.01
143.44,-2.20,-0.15,-2.23,-0.18,0.18,0.16,0.16,-2.02,-2.05,-2.04
144.87,-2.20,-0.11,-2.24,-0.15,0.15,0.13,0.13,-2.05,-2.09,-2.08
146.32,-2.22,-0.09,-2.25,-0.12,0.12,0.10,0.11,-2.10,-2.13,-2.12
147.78,-2.32,-0.16,-2.26,-0.08,0.08,0.07,0.09,-2.24,-2.18,-2.15
149.26,-2.34,-0.13,-2.27,-0.03,0.03,0.04,0.07,-2.30,-2.23,-2.20
150.75,-2.31,-0.04,-2.28,0.02,-0.02,0.01,0.05,-2.32,-2.29,-2.26
152.26,-2.30,0.04,-2.28,0.07,-0.07,-0.02,0.02,-2.37,-2.35,-2.33
153.78,-2.30,0.11,-2.29,0.13,-0.13,-0.05,0.00,-2.43,-2.42,-2.40
155.32,-2.30,0.18,-2.30,0.19,-0.19,-0.09,-0.02,-2.49,-2.49,-2.47
156.88,-2.29,0.27,-2.30,0.26,-0.26,-0.12,-0.04,-2.55,-2.56,-2.55
158.44,-2.29,0.35,-2.30,0.33,-0.33,-0.15,-0.06,-2.61,-2.63,-2.63
160.03,-2.29,0.43,-2.30,0.39,-0.39,-0.18,-0.09,-2.68,-2.70,-2.71
161.63,-2.30,0.49,-2.31,0.46,-0.46,-0.21,-0.11,-2.75,-2.76,-2.78
163.24,-2.30,0.55,-2.30,0.52,-0.52,-0.24,-0.13,-2.82,-2.82,-2.84
164.88,-2.30,0.60,-2.30,0.58,-0.58,-0.28,-0.16,-2.87,-2.88,-2.89
166.53,-2.31,0.64,-2.31,0.62,-0.62,-0.31,-0.18,-2.93,-2.93,-2.94
168.19,-2.31,0.68,-2.31,0.65,-0.65,-0.34,-0.20,-2.96,-2.97,-2.98
169.87,-2.32,0.71,-2.32,0.68,-0.68,-0.37,-0.23,-3.00,-3.00,-3.02
171.57,-2.33,0.72,-2.32,0.70,-0.70,-0.41,-0.25,-3.03,-3.03,-3.04
173.29,-2.33,0.73,-2.33,0.72,-0.72,-0.44,-0.27,-3.04,-3.05,-3.05
175.02,-2.34,0.73,-2.32,0.73,-0.73,-0.47,-0.30,-3.07,-3.06,-3.06
176.77,-2.34,0.74,-2.32,0.75,-0.75,-0.51,-0.32,-3.09,-3.07,-3.07
178.54,-2.34,0.75,-2.32,0.76,-0.76,-0.54,-0.35,-3.09,-3.08,-3.08
180.32,-2.34,0.74,-2.32,0.76,-0.76,-0.57,-0.38,-3.10,-3.08,-3.07
182.13,-2.33,0.74,-2.32,0.77,-0.77,-0.60,-0.40,-3.10,-3.09,-3.06
183.95,-2.32,0.76,-2.31,0.78,-0.78,-0.63,-0.43,-3.10,-3.09,-3.07
185.79,-2.31,0.77,-2.30,0.80,-0.80,-0.67,-0.46,-3.10,-3.10,-3.07
187.65,-2.30,0.80,-2.30,0.81,-0.81,-0.70,-0.48,-3.11,-3.11,-3.09
189.52,-2.28,0.83,-2.30,0.82,-0.82,-0.73,-0.51,-3.10,-3.12,-3.10
191.42,-2.27,0.86,-2.29,0.84,-0.84,-0.76,-0.54,-3.10,-3.13,-3.12
193.33,-2.25,0.90,-2.30,0.85,-0.85,-0.78,-0.57,-3.10,-3.15,-3.14
195.27,-2.33,0.84,-2.30,0.86,-0.86,-0.81,-0.60,-3.19,-3.16,-3.16
197.22,-2.38,0.81,-2.31,0.87,-0.87,-0.84,-0.63,-3.25,-3.18,-3.18
199.19,-2.28,0.93,-2.31,0.88,-0.88,-0.86,-0.65,-3.16,-3.20,-3.20
201.18,-2.22,1.01,-2.32,0.90,-0.90,-0.89,-0.68,-3.11,-3.22,-3.22
203.19,-2.33,0.92,-2.34,0.91,-0.91,-0.91,-0.71,-3.23,-3.24,-3.24
205.23,-2.40,0.87,-2.35,0.91,-0.91,-0.93,-0.74,-3.31,-3.26,-3.26
207.28,-2.40,0.88,-2.36,0.92,-0.92,-0.95,-0.77,-3.32,-3.28,-3.27
209.35,-2.40,0.90,-2.37,0.93,-0.93,-0.97,-0.80,-3.32,-3.30,-3.29
211.44,-2.40,0.93,-2.38,0.94,-0.94,-0.98,-0.83,-3.34,-3.32,-3.32
213.56,-2.41,0.93,-2.38,0.95,-0.95,-1.00,-0.85,-3.36,-3.33,-3.33
215.69,-2.41,0.94,-2.40,0.95,-0.95,-1.01,-0.88,-3.36,-3.35,-3.34
217.85,-2.41,0.95,-2.41,0.95,-0.95,-1.02,-0.91,-3.36,-3.36,-3.35
220.03,-2.42,0.95,-2.42,0.95,-0.95,-1.03,-0.93,-3.36,-3.37,-3.36
222.23,-2.42,0.98,-2.44,0.93,-0.93,-1.03,-0.95,-3.35,-3.37,-3.39
224.45,-2.42,0.97,-2.45,0.93,-0.93,-1.04,-0.98,-3.34,-3.38,-3.38
226.70,-2.42,0.97,-2.45,0.93,-0.93,-1.04,-1.00,-3.34,-3.38,-3.38
228.96,-2.42,0.96,-2.45,0.92,-0.92,-1.04,-1.02,-3.34,-3.37,-3.37
231.25,-2.41,0.96,-2.45,0.91,-0.91,-1.04,-1.04,-3.32,-3.36,-3.36
233.57,-2.44,0.92,-2.45,0.90,-0.90,-1.04,-1.06,-3.33,-3.35,-3.35
235.90,-2.58,0.77,-2.46,0.88,-0.88,-1.03,-1.07,-3.45,-3.34,-3.34
238.26,-2.55,0.79,-2.45,0.87,-0.87,-1.02,-1.09,-3.42,-3.32,-3.33
240.64,-2.47,0.84,-2.44,0.87,-0.87,-1.02,-1.10,-3.33,-3.30,-3.30
243.05,-2.44,0.84,-2.43,0.86,-0.86,-1.01,-1.11,-3.29,-3.28,-3.27
245.48,-2.42,0.84,-2.41,0.84,-0.84,-1.00,-1.12,-3.26,-3.26,-3.25
247.93,-2.39,0.84,-2.40,0.83,-0.83,-0.98,-1.12,-3.22,-3.23,-3.22
250.41,-2.37,0.84,-2.40,0.81,-0.81,-0.97,-1.12,-3.18,-3.21,-3.20
252.92,-2.36,0.82,-2.39,0.79,-0.79,-0.96,-1.13,-3.15,-3.19,-3.17
255.45,-2.35,0.81,-2.38,0.79,-0.79,-0.94,-1.13,-3.13,-3.16,-3.15
258.00,-2.34,0.80,-2.36,0.78,-0.78,-0.93,-1.12,-3.12,-3.14,-3.13
260.58,-2.32,0.80,-2.34,0.78,-0.78,-0.91,-1.12,-3.09,-3.11,-3.11
263.19,-2.19,0.90,-2.32,0.77,-0.77,-0.89,-1.11,-2.96,-3.09,-3.08
265.82,-2.34,0.73,-2.31,0.75,-0.75,-0.87,-1.10,-3.08,-3.06,-3.06
268.48,-2.41,0.64,-2.31,0.73,-0.73,-0.86,-1.09,-3.14,-3.04,-3.04
271.16,-2.36,0.66,-2.30,0.72,-0.72,-0.84,-1.08,-3.07,-3.01,-3.01
273.87,-2.34,0.66,-2.28,0.71,-0.71,-0.82,-1.06,-3.04,-2.99,-2.99
276.61,-2.34,0.63,-2.26,0.70,-0.70,-0.80,-1.05,-3.04,-2.96,-2.96
279.38,-2.17,0.77,-2.24,0.70,-0.70,-0.79,-1.03,-2.86,-2.94,-2.93
282.17,-2.12,0.80,-2.21,0.70,-0.70,-0.77,-1.02,-2.82,-2.91,-2.91
284.99,-2.20,0.68,-2.17,0.71,-0.71,-0.75,-1.00,-2.90,-2.88,-2.87
287.84,-2.23,0.63,-2.15,0.70,-0.70,-0.73,-0.98,-2.93,-2.85,-2.85
290.72,-2.18,0.65,-2.13,0.69,-0.69,-0.71,-0.96,-2.87,-2.82,-2.82
293.63,-2.11,0.69,-2.11,0.69,-0.69,-0.70,-0.93,-2.79,-2.79,-2.79
296.57,-2.01,0.76,-2.07,0.69,-0.69,-0.68,-0.91,-2.70,-2.76,-2.76
299.53,-1.98,0.76,-2.04,0.70,-0.70,-0.66,-0.89,-2.67,-2.73,-2.73
302.53,-1.97,0.75,-2.02,0.68,-0.68,-0.65,-0.87,-2.65,-2.71,-2.71
305.55,-1.96,0.72,-2.01,0.67,-0.67,-0.63,-0.84,-2.63,-2.68,-2.67
308.61,-1.95,0.71,-1.99,0.67,-0.67,-0.62,-0.82,-2.62,-2.66,-2.65
311.69,-1.94,0.69,-1.96,0.67,-0.67,-0.60,-0.80,-2.61,-2.63,-2.62
314.81,-2.05,0.56,-1.93,0.68,-0.68,-0.59,-0.77,-2.72,-2.61,-2.60
317.96,-2.09,0.50,-1.90,0.69,-0.69,-0.58,-0.75,-2.78,-2.59,-2.58
321.14,-1.90,0.68,-1.87,0.70,-0.70,-0.56,-0.73,-2.59,-2.57,-2.57
324.35,-1.83,0.73,-1.85,0.70,-0.70,-0.55,-0.70,-2.53,-2.55,-2.55
327.59,-1.83,0.72,-1.83,0.71,-0.71,-0.54,-0.68,-2.53,-2.54,-2.54
330.87,-1.84,0.70,-1.81,0.72,-0.72,-0.52,-0.66,-2.55,-2.53,-2.53
334.18,-1.84,0.68,-1.80,0.72,-0.72,-0.51,-0.64,-2.56,-2.52,-2.51
337.52,-1.66,0.85,-1.78,0.72,-0.72,-0.50,-0.62,-2.38,-2.50,-2.50
340.90,-1.63,0.87,-1.77,0.73,-0.73,-0.49,-0.59,-2.36,-2.50,-2.49
344.30,-1.72,0.77,-1.76,0.73,-0.73,-0.48,-0.57,-2.45,-2.49,-2.48
347.75,-1.74,0.75,-1.75,0.74,-0.74,-0.47,-0.55,-2.47,-2.49,-2.48
351.23,-1.74,0.74,-1.73,0.75,-0.75,-0.46,-0.53,-2.49,-2.48,-2.47
354.74,-1.74,0.75,-1.72,0.76,-0.76,-0.45,-0.51,-2.49,-2.48,-2.48
358.28,-1.73,0.75,-1.72,0.75,-0.75,-0.45,-0.49,-2.48,-2.47,-2.47
361.87,-1.73,0.75,-1.71,0.76,-0.76,-0.44,-0.47,-2.49,-2.47,-2.47
365.49,-1.79,0.68,-1.69,0.78,-0.78,-0.43,-0.46,-2.57,-2.47,-2.46
369.14,-1.86,0.62,-1.67,0.80,-0.80,-0.42,-0.44,-2.65,-2.47,-2.47
372.83,-1.69,0.79,-1.65,0.82,-0.82,-0.42,-0.42,-2.51,-2.47,-2.47
376.56,-1.64,0.85,-1.63,0.84,-0.84,-0.41,-0.40,-2.48,-2.48,-2.48
380.33,-1.68,0.80,-1.61,0.87,-0.87,-0.40,-0.39,-2.55,-2.48,-2.47
384.13,-1.48,1.00,-1.58,0.90,-0.90,-0.40,-0.37,-2.37,-2.48,-2.47
387.97,-1.49,1.00,-1.57,0.92,-0.92,-0.39,-0.35,-2.40,-2.49,-2.48
391.85,-1.56,0.94,-1.57,0.92,-0.92,-0.39,-0.34,-2.48,-2.49,-2.49
395.77,-1.56,0.93,-1.59,0.91,-0.91,-0.38,-0.32,-2.47,-2.50,-2.48
399.73,-1.50,1.00,-1.61,0.89,-0.89,-0.38,-0.31,-2.39,-2.50,-2.49
403.72,-1.52,0.98,-1.63,0.87,-0.87,-0.38,-0.30,-2.39,-2.51,-2.49
407.76,-1.59,0.93,-1.66,0.85,-0.85,-0.37,-0.28,-2.44,-2.51,-2.51
411.84,-1.64,0.88,-1.70,0.82,-0.82,-0.37,-0.27,-2.45,-2.51,-2.51
415.96,-1.75,0.77,-1.75,0.77,-0.77,-0.37,-0.26,-2.52,-2.52,-2.51
420.12,-1.87,0.65,-1.78,0.73,-0.73,-0.37,-0.25,-2.60,-2.51,-2.51
424.32,-1.94,0.58,-1.82,0.69,-0.69,-0.36,-0.24,-2.62,-2.51,-2.51
428.56,-1.99,0.52,-1.86,0.64,-0.64,-0.36,-0.23,-2.63,-2.50,-2.50
432.85,-2.04,0.46,-1.87,0.61,-0.61,-0.36,-0.22,-2.65,-2.48,-2.49
437.18,-2.00,0.49,-1.87,0.59,-0.59,-0.36,-0.21,-2.58,-2.46,-2.48
441.55,-1.87,0.58,-1.87,0.56,-0.56,-0.36,-0.20,-2.43,-2.44,-2.44
445.96,-1.80,0.62,-1.88,0.53,-0.53,-0.36,-0.19,-2.32,-2.40,-2.41
450.42,-1.86,0.53,-1.88,0.49,-0.49,-0.36,-0.19,-2.35,-2.37,-2.38
454.93,-1.90,0.44,-1.88,0.45,-0.45,-0.36,-0.18,-2.34,-2.33,-2.33
