frequency,raw,error,smoothed,error_smoothed,equalization,parametric_eq,fixed_band_eq,equalized_raw,equalized_smoothed,target
20.00,-8.42,-11.70,-8.42,-11.69,11.69,11.51,3.70,3.27,3.27,3.27
20.20,-8.33,-11.61,-8.34,-11.61,11.61,11.44,3.80,3.28,3.28,3.27
20.40,-8.26,-11.53,-8.26,-11.54,11.54,11.37,3.90,3.28,3.28,3.27
20.61,-8.18,-11.46,-8.18,-11.46,11.46,11.29,4.01,3.28,3.28,3.27
20.81,-8.10,-11.37,-8.10,-11.38,11.38,11.21,4.12,3.28,3.27,3.27
21.02,-8.02,-11.30,-8.02,-11.29,11.29,11.12,4.24,3.27,3.27,3.27
21.23,-7.94,-11.20,-7.94,-11.20,11.20,11.04,4.35,3.26,3.26,3.25
21.44,-7.87,-11.11,-7.87,-11.11,11.11,10.95,4.47,3.24,3.24,3.24
21.66,-7.79,-11.02,-7.79,-11.02,11.01,10.86,4.60,3.22,3.22,3.22
21.87,-7.71,-10.91,-7.71,-10.92,10.91,10.77,4.72,3.20,3.20,3.20
22.09,-7.62,-10.81,-7.62,-10.81,10.81,10.68,4.85,3.19,3.19,3.19
22.31,-7.53,-10.69,-7.53,-10.70,10.70,10.59,4.99,3.17,3.17,3.16
22.54,-7.45,-10.60,-7.45,-10.59,10.59,10.49,5.12,3.14,3.15,3.14
22.76,-7.36,-10.48,-7.37,-10.49,10.48,10.39,5.26,3.12,3.12,3.12
22.99,-7.28,-10.38,-7.28,-10.37,10.38,10.30,5.41,3.09,3.09,3.09
23.22,-7.20,-10.27,-7.20,-10.26,10.27,10.20,5.56,3.07,3.07,3.06
23.45,-7.11,-10.14,-7.12,-10.15,10.16,10.10,5.71,3.05,3.04,3.03
23.69,-7.03,-10.06,-7.03,-10.05,10.05,10.00,5.86,3.02,3.03,3.02
23.92,-6.94,-9.94,-6.94,-9.95,9.95,9.90,6.02,3.01,3.01,3.00
24.16,-6.85,-9.84,-6.86,-9.85,9.84,9.80,6.18,2.99,2.99,2.99
24.40,-6.77,-9.74,-6.77,-9.74,9.74,9.70,6.34,2.97,2.97,2.97
24.65,-6.68,-9.64,-6.68,-9.64,9.63,9.59,6.51,2.95,2.95,2.95
24.89,-6.59,-9.52,-6.59,-9.52,9.52,9.49,6.68,2.93,2.93,2.93
25.14,-6.49,-9.41,-6.49,-9.42,9.42,9.39,6.85,2.93,2.92,2.92
25.39,-6.40,-9.30,-6.40,-9.31,9.31,9.29,7.02,2.91,2.91,2.90
25.65,-6.31,-9.21,-6.31,-9.20,9.20,9.19,7.20,2.89,2.89,2.89
25.91,-6.22,-9.09,-6.22,-9.10,9.10,9.08,7.37,2.87,2.87,2.86
26.16,-6.14,-8.99,-6.14,-8.99,8.99,8.98,7.55,2.85,2.86,2.85
26.43,-6.05,-8.90,-6.06,-8.89,8.89,8.88,7.72,2.84,2.84,2.84
26.69,-5.97,-8.79,-5.97,-8.79,8.79,8.78,7.90,2.82,2.82,2.81
26.96,-5.89,-8.70,-5.89,-8.70,8.70,8.67,8.07,2.80,2.81,2.80
27.23,-5.80,-8.60,-5.81,-8.60,8.60,8.57,8.24,2.80,2.79,2.79
27.50,-5.73,-8.52,-5.73,-8.51,8.50,8.47,8.41,2.77,2.78,2.78
27.77,-5.64,-8.40,-5.64,-8.41,8.40,8.37,8.57,2.76,2.76,2.76
28.05,-5.55,-8.30,-5.56,-8.31,8.30,8.27,8.73,2.75,2.75,2.75
28.33,-5.47,-8.20,-5.47,-8.20,8.21,8.17,8.88,2.73,2.74,2.73
28.62,-5.38,-8.11,-5.39,-8.11,8.11,8.07,9.02,2.72,2.72,2.72
28.90,-5.30,-8.00,-5.30,-8.00,8.01,7.97,9.15,2.71,2.71,2.70
29.19,-5.22,-7.91,-5.21,-7.91,7.91,7.87,9.27,2.69,2.69,2.68
29.48,-5.12,-7.80,-5.13,-7.81,7.81,7.77,9.37,2.69,2.68,2.68
29.78,-5.04,-7.72,-5.04,-7.71,7.71,7.67,9.47,2.67,2.67,2.67
30.08,-4.95,-7.62,-4.95,-7.62,7.61,7.57,9.54,2.66,2.66,2.66
30.38,-4.87,-7.52,-4.87,-7.52,7.52,7.48,9.60,2.64,2.64,2.64
30.68,-4.79,-7.43,-4.79,-7.42,7.42,7.38,9.64,2.63,2.63,2.63
30.99,-4.70,-7.31,-4.71,-7.32,7.32,7.28,9.67,2.62,2.61,2.60
31.30,-4.62,-7.22,-4.62,-7.22,7.22,7.19,9.68,2.60,2.60,2.59
31.61,-4.54,-7.13,-4.54,-7.12,7.12,7.10,9.66,2.58,2.58,2.58
31.93,-4.46,-7.03,-4.46,-7.02,7.02,7.00,9.63,2.56,2.56,2.56
32.24,-4.38,-6.91,-4.38,-6.92,6.92,6.91,9.59,2.54,2.54,2.53
32.57,-4.30,-6.82,-4.30,-6.82,6.82,6.81,9.52,2.51,2.52,2.51
32.89,-4.22,-6.72,-4.22,-6.71,6.72,6.72,9.44,2.50,2.50,2.50
33.22,-4.13,-6.60,-4.13,-6.61,6.62,6.63,9.34,2.48,2.48,2.47
33.55,-4.05,-6.51,-4.05,-6.51,6.51,6.54,9.24,2.46,2.46,2.46
33.89,-3.98,-6.42,-3.98,-6.41,6.41,6.45,9.11,2.43,2.44,2.43
34.23,-3.90,-6.32,-3.90,-6.32,6.31,6.36,8.98,2.41,2.41,2.41
34.57,-3.82,-6.22,-3.82,-6.22,6.22,6.27,8.84,2.39,2.39,2.39
34.92,-3.74,-6.12,-3.74,-6.12,6.12,6.18,8.69,2.38,2.37,2.37
35.27,-3.67,-6.03,-3.67,-6.02,6.02,6.10,8.53,2.35,2.35,2.35
35.62,-3.59,-5.93,-3.59,-5.93,5.93,6.01,8.37,2.34,2.34,2.33
35.97,-3.52,-5.83,-3.52,-5.83,5.83,5.92,8.20,2.31,2.31,2.31
36.33,-3.44,-5.73,-3.45,-5.74,5.74,5.84,8.03,2.30,2.29,2.29
36.70,-3.38,-5.66,-3.37,-5.65,5.65,5.75,7.86,2.27,2.27,2.27
37.06,-3.30,-5.55,-3.30,-5.56,5.56,5.67,7.68,2.25,2.25,2.25
37.43,-3.23,-5.46,-3.23,-5.46,5.46,5.59,7.51,2.23,2.23,2.23
37.81,-3.16,-5.38,-3.16,-5.37,5.37,5.50,7.34,2.21,2.21,2.21
38.19,-3.09,-5.28,-3.09,-5.28,5.28,5.42,7.16,2.19,2.19,2.18
38.57,-3.03,-5.21,-3.03,-5.20,5.20,5.34,6.99,2.17,2.17,2.17
38.95,-2.96,-5.10,-2.96,-5.11,5.11,5.26,6.82,2.15,2.15,2.14
39.34,-2.90,-5.02,-2.90,-5.02,5.02,5.18,6.65,2.12,2.13,2.12
39.74,-2.83,-4.94,-2.83,-4.94,4.94,5.10,6.48,2.11,2.11,2.10
40.14,-2.77,-4.87,-2.77,-4.86,4.86,5.02,6.32,2.09,2.09,2.09
40.54,-2.71,-4.79,-2.71,-4.78,4.78,4.95,6.16,2.07,2.07,2.07
40.94,-2.64,-4.69,-2.64,-4.70,4.70,4.87,6.00,2.06,2.05,2.05
41.35,-2.58,-4.61,-2.58,-4.61,4.62,4.79,5.85,2.04,2.04,2.02
41.76,-2.52,-4.54,-2.52,-4.54,4.54,4.72,5.70,2.02,2.02,2.02
42.18,-2.46,-4.46,-2.46,-4.47,4.47,4.64,5.55,2.01,2.00,2.00
42.60,-2.41,-4.39,-2.41,-4.40,4.39,4.57,5.40,1.98,1.98,1.98
43.03,-2.35,-4.33,-2.35,-4.32,4.32,4.49,5.26,1.96,1.96,1.97
43.46,-2.30,-4.25,-2.30,-4.24,4.24,4.42,5.13,1.94,1.94,1.94
43.90,-2.24,-4.17,-2.24,-4.17,4.17,4.35,4.99,1.92,1.92,1.92
44.33,-2.18,-4.08,-2.19,-4.09,4.09,4.27,4.86,1.91,1.90,1.90
44.78,-2.14,-4.03,-2.13,-4.01,4.02,4.20,4.74,1.88,1.88,1.88
45.23,-2.08,-3.94,-2.08,-3.94,3.94,4.13,4.61,1.86,1.86,1.85
45.68,-2.03,-3.87,-2.03,-3.87,3.87,4.06,4.49,1.84,1.84,1.83
46.13,-1.98,-3.80,-1.98,-3.80,3.81,3.99,4.38,1.83,1.83,1.82
46.60,-1.93,-3.75,-1.93,-3.74,3.74,3.92,4.26,1.81,1.81,1.81
47.06,-1.88,-3.68,-1.88,-3.68,3.68,3.85,4.15,1.80,1.79,1.79
47.53,-1.84,-3.62,-1.84,-3.62,3.62,3.79,4.04,1.77,1.78,1.77
48.01,-1.80,-3.57,-1.80,-3.56,3.55,3.72,3.94,1.75,1.75,1.76
48.49,-1.76,-3.50,-1.76,-3.50,3.49,3.65,3.84,1.73,1.73,1.73
48.97,-1.73,-3.44,-1.73,-3.44,3.44,3.59,3.74,1.70,1.70,1.70
49.46,-1.70,-3.38,-1.70,-3.37,3.38,3.52,3.64,1.68,1.68,1.67
49.96,-1.67,-3.32,-1.67,-3.32,3.32,3.46,3.55,1.65,1.65,1.64
50.46,-1.63,-3.27,-1.63,-3.26,3.27,3.39,3.46,1.63,1.63,1.63
50.96,-1.60,-3.22,-1.60,-3.21,3.21,3.33,3.37,1.61,1.61,1.61
51.47,-1.57,-3.16,-1.57,-3.16,3.16,3.27,3.29,1.59,1.59,1.58
51.99,-1.54,-3.11,-1.54,-3.11,3.11,3.20,3.20,1.57,1.56,1.56
52.51,-1.52,-3.07,-1.52,-3.06,3.06,3.14,3.12,1.54,1.54,1.54
53.03,-1.49,-3.02,-1.49,-3.01,3.01,3.08,3.04,1.52,1.52,1.52
53.56,-1.46,-2.96,-1.46,-2.96,2.96,3.02,2.97,1.50,1.50,1.49
54.10,-1.43,-2.91,-1.44,-2.91,2.91,2.96,2.89,1.48,1.47,1.47
54.64,-1.42,-2.87,-1.42,-2.86,2.86,2.90,2.82,1.44,1.45,1.44
55.18,-1.40,-2.83,-1.40,-2.82,2.82,2.84,2.75,1.42,1.42,1.42
55.74,-1.37,-2.77,-1.38,-2.77,2.77,2.78,2.68,1.40,1.39,1.39
56.29,-1.36,-2.74,-1.35,-2.73,2.73,2.72,2.61,1.36,1.37,1.37
56.86,-1.33,-2.68,-1.33,-2.68,2.68,2.66,2.54,1.35,1.35,1.34
57.42,-1.31,-2.64,-1.32,-2.64,2.64,2.61,2.48,1.33,1.33,1.32
58.00,-1.30,-2.61,-1.30,-2.60,2.61,2.55,2.42,1.31,1.31,1.30
58.58,-1.29,-2.57,-1.29,-2.57,2.57,2.49,2.35,1.28,1.28,1.27
59.16,-1.27,-2.53,-1.28,-2.53,2.53,2.44,2.29,1.26,1.26,1.25
59.76,-1.27,-2.51,-1.27,-2.50,2.50,2.38,2.23,1.23,1.23,1.23
60.35,-1.26,-2.47,-1.26,-2.47,2.46,2.33,2.17,1.20,1.20,1.20
60.96,-1.25,-2.44,-1.25,-2.43,2.42,2.27,2.11,1.17,1.17,1.18
61.57,-1.24,-2.39,-1.24,-2.39,2.38,2.22,2.05,1.14,1.14,1.14
62.18,-1.22,-2.34,-1.22,-2.34,2.34,2.16,2.00,1.11,1.11,1.11
62.80,-1.20,-2.29,-1.20,-2.29,2.29,2.11,1.94,1.09,1.09,1.08
63.43,-1.18,-2.24,-1.18,-2.24,2.25,2.06,1.88,1.06,1.06,1.05
64.07,-1.17,-2.20,-1.17,-2.19,2.20,2.00,1.83,1.03,1.03,1.02
64.71,-1.14,-2.15,-1.15,-2.15,2.15,1.95,1.78,1.01,1.00,1.00
65.35,-1.13,-2.12,-1.13,-2.11,2.11,1.90,1.72,0.98,0.98,0.98
66.01,-1.11,-2.08,-1.11,-2.07,2.06,1.85,1.67,0.95,0.96,0.96
66.67,-1.08,-2.02,-1.09,-2.02,2.02,1.80,1.61,0.94,0.93,0.93
67.33,-1.06,-1.98,-1.06,-1.97,1.97,1.75,1.56,0.91,0.91,0.91
68.01,-1.04,-1.93,-1.04,-1.93,1.93,1.70,1.51,0.89,0.89,0.88
68.69,-1.02,-1.89,-1.02,-1.88,1.88,1.65,1.46,0.86,0.86,0.86
69.37,-1.00,-1.84,-1.00,-1.84,1.84,1.60,1.41,0.84,0.84,0.83
70.07,-0.98,-1.79,-0.98,-1.79,1.79,1.55,1.36,0.81,0.81,0.80
70.77,-0.96,-1.75,-0.96,-1.74,1.74,1.50,1.31,0.78,0.78,0.78
71.48,-0.94,-1.70,-0.94,-1.70,1.70,1.45,1.26,0.75,0.75,0.75
72.19,-0.93,-1.66,-0.93,-1.65,1.65,1.40,1.21,0.72,0.72,0.72
72.91,-0.91,-1.60,-0.91,-1.60,1.60,1.35,1.16,0.69,0.69,0.68
73.64,-0.90,-1.56,-0.90,-1.55,1.55,1.31,1.11,0.65,0.65,0.65
74.38,-0.89,-1.52,-0.89,-1.50,1.51,1.26,1.06,0.61,0.62,0.62
75.12,-0.87,-1.45,-0.87,-1.46,1.46,1.21,1.01,0.59,0.58,0.57
75.87,-0.86,-1.41,-0.86,-1.41,1.41,1.16,0.96,0.55,0.55,0.54
76.63,-0.85,-1.37,-0.85,-1.36,1.36,1.12,0.92,0.51,0.51,0.51
77.40,-0.85,-1.33,-0.85,-1.32,1.32,1.07,0.87,0.47,0.47,0.47
78.17,-0.84,-1.26,-0.84,-1.27,1.27,1.03,0.82,0.43,0.43,0.41
78.95,-0.83,-1.23,-0.84,-1.22,1.22,0.98,0.77,0.39,0.38,0.39
79.74,-0.83,-1.19,-0.83,-1.18,1.17,0.93,0.73,0.34,0.34,0.35
80.54,-0.83,-1.14,-0.82,-1.13,1.13,0.89,0.68,0.29,0.30,0.30
81.35,-0.81,-1.08,-0.82,-1.08,1.08,0.84,0.64,0.27,0.26,0.26
82.16,-0.81,-1.03,-0.81,-1.03,1.03,0.80,0.59,0.22,0.22,0.21
82.98,-0.81,-0.99,-0.81,-0.98,0.99,0.76,0.54,0.17,0.18,0.17
83.81,-0.81,-0.93,-0.81,-0.93,0.94,0.71,0.50,0.13,0.13,0.11
84.65,-0.82,-0.90,-0.82,-0.89,0.90,0.67,0.45,0.07,0.08,0.07
85.50,-0.82,-0.86,-0.82,-0.85,0.85,0.62,0.41,0.03,0.03,0.03
86.35,-0.83,-0.82,-0.83,-0.82,0.81,0.58,0.36,-0.02,-0.02,-0.02
87.22,-0.84,-0.78,-0.84,-0.77,0.76,0.54,0.32,-0.08,-0.07,-0.07
88.09,-0.84,-0.72,-0.84,-0.72,0.72,0.49,0.27,-0.12,-0.12,-0.13
88.97,-0.84,-0.68,-0.85,-0.68,0.68,0.45,0.23,-0.16,-0.17,-0.17
89.86,-0.85,-0.64,-0.85,-0.63,0.64,0.41,0.18,-0.22,-0.22,-0.22
90.76,-0.86,-0.59,-0.86,-0.59,0.59,0.36,0.14,-0.27,-0.27,-0.28
91.66,-0.87,-0.55,-0.87,-0.54,0.55,0.32,0.09,-0.33,-0.33,-0.33
92.58,-0.88,-0.50,-0.88,-0.50,0.50,0.28,0.05,-0.38,-0.38,-0.39
93.51,-0.89,-0.47,-0.89,-0.46,0.46,0.24,0.00,-0.44,-0.43,-0.43
94.44,-0.89,-0.42,-0.89,-0.41,0.41,0.20,-0.04,-0.48,-0.49,-0.48
95.39,-0.90,-0.37,-0.90,-0.36,0.36,0.15,-0.08,-0.54,-0.54,-0.54
96.34,-0.91,-0.31,-0.91,-0.31,0.31,0.11,-0.13,-0.60,-0.60,-0.61
97.30,-0.92,-0.27,-0.92,-0.26,0.26,0.07,-0.17,-0.66,-0.66,-0.66
98.28,-0.93,-0.22,-0.93,-0.21,0.21,0.03,-0.22,-0.72,-0.72,-0.72
99.26,-0.94,-0.16,-0.94,-0.16,0.16,-0.01,-0.26,-0.78,-0.78,-0.79
100.25,-0.94,-0.11,-0.94,-0.11,0.11,-0.05,-0.31,-0.84,-0.84,-0.84
101.25,-0.95,-0.06,-0.95,-0.05,0.05,-0.09,-0.35,-0.90,-0.90,-0.90
102.27,-0.96,0.00,-0.96,0.00,-0.00,-0.13,-0.40,-0.96,-0.96,-0.97
103.29,-0.97,0.06,-0.97,0.06,-0.06,-0.18,-0.44,-1.03,-1.03,-1.04
104.32,-0.97,0.11,-0.97,0.11,-0.11,-0.22,-0.48,-1.09,-1.09,-1.09
105.37,-0.98,0.16,-0.98,0.17,-0.17,-0.26,-0.53,-1.15,-1.15,-1.15
106.42,-0.99,0.22,-0.99,0.23,-0.23,-0.30,-0.57,-1.22,-1.22,-1.22
107.48,-1.00,0.28,-1.00,0.29,-0.29,-0.34,-0.61,-1.29,-1.29,-1.29
108.56,-1.00,0.35,-1.00,0.35,-0.35,-0.38,-0.66,-1.35,-1.35,-1.36
109.64,-1.01,0.40,-1.01,0.41,-0.41,-0.42,-0.70,-1.42,-1.41,-1.42
110.74,-1.01,0.46,-1.01,0.47,-0.47,-0.46,-0.74,-1.48,-1.48,-1.48
111.85,-1.02,0.52,-1.02,0.53,-0.53,-0.50,-0.78,-1.55,-1.55,-1.55
112.97,-1.03,0.59,-1.03,0.59,-0.59,-0.54,-0.82,-1.62,-1.62,-1.63
114.10,-1.04,0.64,-1.04,0.65,-0.65,-0.58,-0.85,-1.69,-1.69,-1.69
115.24,-1.04,0.71,-1.04,0.71,-0.71,-0.62,-0.89,-1.75,-1.76,-1.76
116.39,-1.05,0.77,-1.05,0.77,-0.77,-0.66,-0.93,-1.82,-1.82,-1.83
117.55,-1.06,0.83,-1.06,0.83,-0.83,-0.70,-0.96,-1.89,-1.89,-1.90
118.73,-1.07,0.88,-1.07,0.88,-0.89,-0.74,-0.99,-1.96,-1.96,-1.96
119.92,-1.08,0.93,-1.08,0.94,-0.94,-0.77,-1.03,-2.02,-2.02,-2.02
121.12,-1.08,0.99,-1.08,0.99,-0.99,-0.81,-1.06,-2.07,-2.08,-2.08
122.33,-1.09,1.05,-1.09,1.05,-1.04,-0.85,-1.08,-2.14,-2.14,-2.15
123.55,-1.10,1.09,-1.10,1.10,-1.10,-0.89,-1.11,-2.20,-2.20,-2.20
124.79,-1.11,1.14,-1.11,1.14,-1.15,-0.93,-1.14,-2.26,-2.26,-2.26
126.03,-1.12,1.18,-1.12,1.19,-1.20,-0.97,-1.16,-2.32,-2.32,-2.31
127.29,-1.13,1.23,-1.13,1.24,-1.25,-1.01,-1.19,-2.38,-2.37,-2.37
128.57,-1.13,1.30,-1.13,1.30,-1.30,-1.05,-1.21,-2.43,-2.43,-2.44
129.85,-1.13,1.35,-1.14,1.35,-1.34,-1.08,-1.23,-2.48,-2.48,-2.49
131.15,-1.15,1.38,-1.14,1.40,-1.39,-1.12,-1.25,-2.54,-2.54,-2.54
132.46,-1.15,1.44,-1.15,1.44,-1.44,-1.16,-1.27,-2.59,-2.59,-2.60
133.79,-1.15,1.48,-1.16,1.49,-1.49,-1.20,-1.29,-2.64,-2.64,-2.64
135.12,-1.16,1.53,-1.16,1.53,-1.53,-1.24,-1.30,-2.69,-2.69,-2.70
136.48,-1.16,1.56,-1.16,1.57,-1.57,-1.27,-1.32,-2.73,-2.73,-2.73
137.84,-1.16,1.60,-1.16,1.61,-1.61,-1.31,-1.33,-2.77,-2.77,-2.77
139.22,-1.16,1.65,-1.16,1.65,-1.65,-1.35,-1.35,-2.81,-2.81,-2.82
140.61,-1.16,1.69,-1.16,1.69,-1.68,-1.39,-1.36,-2.85,-2.85,-2.86
142.02,-1.16,1.71,-1.16,1.72,-1.72,-1.42,-1.38,-2.88,-2.88,-2.88
143.44,-1.16,1.74,-1.16,1.75,-1.75,-1.46,-1.39,-2.91,-2.91,-2.91
144.87,-1.16,1.78,-1.16,1.78,-1.78,-1.50,-1.40,-2.94,-2.95,-2.95
146.32,-1.16,1.81,-1.16,1.81,-1.81,-1.53,-1.42,-2.98,-2.97,-2.98
147.78,-1.16,1.83,-1.16,1.84,-1.84,-1.57,-1.43,-3.00,-3.00,-3.00
149.26,-1.15,1.87,-1.16,1.87,-1.87,-1.61,-1.45,-3.02,-3.03,-3.03
150.75,-1.16,1.90,-1.16,1.90,-1.90,-1.64,-1.46,-3.06,-3.06,-3.07
152.26,-1.16,1.92,-1.16,1.93,-1.93,-1.68,-1.48,-3.09,-3.09,-3.09
153.78,-1.16,1.95,-1.16,1.95,-1.95,-1.71,-1.49,-3.11,-3.11,-3.12
155.32,-1.16,1.97,-1.16,1.98,-1.98,-1.75,-1.51,-3.14,-3.14,-3.14
156.88,-1.16,2.00,-1.16,2.00,-2.00,-1.78,-1.53,-3.16,-3.17,-3.17
158.44,-1.17,2.02,-1.17,2.03,-2.03,-1.82,-1.55,-3.20,-3.20,-3.20
160.03,-1.17,2.05,-1.17,2.05,-2.05,-1.85,-1.57,-3.22,-3.23,-3.23
161.63,-1.18,2.07,-1.18,2.08,-2.08,-1.88,-1.59,-3.26,-3.26,-3.26
163.24,-1.18,2.10,-1.18,2.10,-2.10,-1.92,-1.61,-3.28,-3.28,-3.29
164.88,-1.18,2.12,-1.18,2.12,-2.12,-1.95,-1.63,-3.31,-3.31,-3.31
166.53,-1.18,2.14,-1.18,2.15,-2.15,-1.98,-1.66,-3.33,-3.33,-3.33
168.19,-1.19,2.17,-1.19,2.18,-2.18,-2.02,-1.69,-3.37,-3.36,-3.37
169.87,-1.19,2.20,-1.19,2.20,-2.20,-2.05,-1.71,-3.39,-3.39,-3.40
171.57,-1.19,2.23,-1.19,2.23,-2.23,-2.08,-1.74,-3.42,-3.42,-3.43
173.29,-1.20,2.24,-1.20,2.25,-2.26,-2.11,-1.77,-3.46,-3.45,-3.45
175.02,-1.20,2.28,-1.20,2.28,-2.29,-2.14,-1.80,-3.49,-3.49,-3.49
176.77,-1.21,2.31,-1.21,2.32,-2.32,-2.17,-1.84,-3.53,-3.53,-3.53
178.54,-1.21,2.35,-1.21,2.35,-2.35,-2.20,-1.87,-3.56,-3.56,-3.57
180.32,-1.22,2.37,-1.22,2.38,-2.38,-2.23,-1.91,-3.60,-3.60,-3.60
182.13,-1.22,2.40,-1.22,2.41,-2.41,-2.26,-1.95,-3.63,-3.63,-3.63
183.95,-1.23,2.43,-1.23,2.44,-2.44,-2.29,-1.99,-3.67,-3.67,-3.67
185.79,-1.23,2.47,-1.23,2.47,-2.47,-2.32,-2.03,-3.70,-3.70,-3.71
187.65,-1.23,2.51,-1.24,2.51,-2.50,-2.35,-2.07,-3.73,-3.73,-3.75
189.52,-1.25,2.52,-1.24,2.53,-2.52,-2.37,-2.11,-3.78,-3.77,-3.78
191.42,-1.24,2.55,-1.25,2.55,-2.55,-2.40,-2.16,-3.79,-3.80,-3.80
193.33,-1.25,2.56,-1.25,2.57,-2.58,-2.43,-2.21,-3.83,-3.83,-3.82
195.27,-1.26,2.58,-1.26,2.59,-2.60,-2.45,-2.25,-3.86,-3.86,-3.85
197.22,-1.26,2.61,-1.26,2.62,-2.62,-2.48,-2.30,-3.88,-3.88,-3.88
199.19,-1.27,2.65,-1.27,2.64,-2.64,-2.50,-2.35,-3.91,-3.91,-3.93
201.18,-1.27,2.66,-1.27,2.67,-2.66,-2.52,-2.40,-3.93,-3.93,-3.94
203.19,-1.28,2.67,-1.28,2.68,-2.67,-2.55,-2.45,-3.95,-3.95,-3.96
205.23,-1.29,2.68,-1.29,2.68,-2.69,-2.57,-2.50,-3.98,-3.98,-3.98
207.28,-1.29,2.69,-1.30,2.70,-2.70,-2.59,-2.55,-4.00,-4.00,-3.99
209.35,-1.30,2.71,-1.30,2.72,-2.72,-2.61,-2.60,-4.02,-4.02,-4.02
211.44,-1.30,2.73,-1.30,2.73,-2.73,-2.63,-2.65,-4.03,-4.03,-4.04
213.56,-1.30,2.75,-1.31,2.74,-2.74,-2.65,-2.71,-4.04,-4.05,-4.06
215.69,-1.31,2.74,-1.31,2.75,-2.76,-2.67,-2.75,-4.07,-4.06,-4.06
217.85,-1.31,2.75,-1.31,2.77,-2.77,-2.69,-2.80,-4.08,-4.08,-4.07
220.03,-1.31,2.78,-1.31,2.78,-2.78,-2.70,-2.85,-4.09,-4.09,-4.10
222.23,-1.31,2.79,-1.31,2.79,-2.78,-2.72,-2.90,-4.10,-4.10,-4.11
224.45,-1.31,2.78,-1.31,2.80,-2.79,-2.74,-2.94,-4.10,-4.10,-4.10
226.70,-1.31,2.79,-1.31,2.80,-2.79,-2.75,-2.98,-4.11,-4.10,-4.11
228.96,-1.30,2.80,-1.31,2.80,-2.80,-2.76,-3.02,-4.10,-4.10,-4.11
231.25,-1.30,2.79,-1.30,2.79,-2.80,-2.78,-3.06,-4.10,-4.10,-4.10
233.57,-1.30,2.78,-1.30,2.79,-2.80,-2.79,-3.09,-4.10,-4.10,-4.09
235.90,-1.29,2.79,-1.29,2.79,-2.80,-2.80,-3.12,-4.09,-4.09,-4.09
238.26,-1.28,2.80,-1.28,2.80,-2.79,-2.81,-3.14,-4.08,-4.08,-4.09
240.64,-1.27,2.79,-1.27,2.79,-2.79,-2.82,-3.16,-4.06,-4.06,-4.07
243.05,-1.26,2.78,-1.26,2.79,-2.79,-2.83,-3.18,-4.05,-4.05,-4.05
245.48,-1.25,2.77,-1.25,2.78,-2.78,-2.84,-3.20,-4.03,-4.03,-4.03
247.93,-1.24,2.77,-1.24,2.78,-2.77,-2.84,-3.21,-4.02,-4.01,-4.02
250.41,-1.22,2.78,-1.23,2.77,-2.77,-2.85,-3.21,-3.99,-3.99,-4.01
252.92,-1.21,2.75,-1.22,2.76,-2.76,-2.86,-3.21,-3.97,-3.97,-3.97
255.45,-1.21,2.73,-1.20,2.74,-2.75,-2.86,-3.21,-3.96,-3.95,-3.95
258.00,-1.19,2.73,-1.19,2.73,-2.74,-2.86,-3.20,-3.93,-3.93,-3.93
260.58,-1.17,2.73,-1.18,2.73,-2.73,-2.87,-3.19,-3.90,-3.91,-3.91
263.19,-1.16,2.72,-1.16,2.73,-2.72,-2.87,-3.17,-3.88,-3.88,-3.89
265.82,-1.14,2.72,-1.14,2.72,-2.71,-2.87,-3.15,-3.85,-3.86,-3.87
268.48,-1.13,2.70,-1.13,2.71,-2.70,-2.87,-3.13,-3.84,-3.83,-3.84
271.16,-1.11,2.69,-1.11,2.70,-2.70,-2.87,-3.10,-3.81,-3.81,-3.81
273.87,-1.10,2.68,-1.10,2.68,-2.69,-2.87,-3.07,-3.79,-3.79,-3.79
276.61,-1.08,2.67,-1.08,2.68,-2.68,-2.87,-3.04,-3.76,-3.76,-3.76
279.38,-1.06,2.67,-1.06,2.67,-2.67,-2.86,-3.01,-3.74,-3.74,-3.74
282.17,-1.04,2.67,-1.05,2.67,-2.67,-2.86,-2.97,-3.71,-3.71,-3.72
284.99,-1.03,2.65,-1.03,2.66,-2.66,-2.85,-2.93,-3.69,-3.69,-3.69
287.84,-1.01,2.65,-1.01,2.65,-2.65,-2.85,-2.89,-3.66,-3.66,-3.67
290.72,-0.98,2.64,-0.99,2.64,-2.64,-2.84,-2.85,-3.63,-3.63,-3.63
293.63,-0.97,2.63,-0.97,2.63,-2.64,-2.84,-2.81,-3.61,-3.60,-3.61
296.57,-0.95,2.62,-0.95,2.63,-2.63,-2.83,-2.76,-3.58,-3.58,-3.58
299.53,-0.93,2.61,-0.93,2.62,-2.61,-2.82,-2.72,-3.55,-3.55,-3.55
302.53,-0.91,2.61,-0.91,2.61,-2.60,-2.81,-2.68,-3.51,-3.51,-3.53
305.55,-0.89,2.58,-0.89,2.59,-2.59,-2.80,-2.64,-3.48,-3.48,-3.48
308.61,-0.86,2.58,-0.86,2.58,-2.58,-2.79,-2.59,-3.44,-3.45,-3.45
311.69,-0.84,2.56,-0.84,2.57,-2.57,-2.78,-2.55,-3.41,-3.41,-3.41
314.81,-0.82,2.55,-0.82,2.56,-2.56,-2.77,-2.51,-3.38,-3.38,-3.38
317.96,-0.80,2.54,-0.80,2.55,-2.55,-2.75,-2.47,-3.35,-3.35,-3.35
321.14,-0.78,2.53,-0.78,2.54,-2.54,-2.74,-2.43,-3.32,-3.32,-3.32
324.35,-0.76,2.53,-0.76,2.53,-2.52,-2.73,-2.39,-3.29,-3.29,-3.30
327.59,-0.74,2.51,-0.74,2.51,-2.51,-2.71,-2.35,-3.26,-3.26,-3.26
330.87,-0.73,2.49,-0.73,2.50,-2.50,-2.70,-2.32,-3.24,-3.23,-3.23
334.18,-0.71,2.49,-0.71,2.49,-2.49,-2.68,-2.28,-3.21,-3.21,-3.21
337.52,-0.69,2.49,-0.70,2.49,-2.49,-2.66,-2.25,-3.18,-3.18,-3.19
340.90,-0.68,2.47,-0.68,2.48,-2.48,-2.65,-2.22,-3.16,-3.16,-3.16
344.30,-0.67,2.46,-0.67,2.47,-2.47,-2.63,-2.19,-3.14,-3.14,-3.14
347.75,-0.65,2.45,-0.65,2.46,-2.46,-2.61,-2.16,-3.11,-3.11,-3.11
351.23,-0.63,2.45,-0.64,2.45,-2.45,-2.59,-2.14,-3.08,-3.09,-3.09
354.74,-0.62,2.45,-0.62,2.45,-2.45,-2.57,-2.11,-3.07,-3.07,-3.08
358.28,-0.62,2.43,-0.61,2.44,-2.44,-2.55,-2.09,-3.06,-3.05,-3.06
361.87,-0.60,2.43,-0.60,2.43,-2.43,-2.53,-2.07,-3.03,-3.03,-3.04
365.49,-0.59,2.41,-0.59,2.42,-2.42,-2.51,-2.05,-3.01,-3.02,-3.01
369.14,-0.58,2.41,-0.58,2.42,-2.41,-2.49,-2.03,-3.00,-3.00,-3.00
372.83,-0.58,2.40,-0.58,2.41,-2.40,-2.47,-2.02,-2.98,-2.98,-2.99
376.56,-0.56,2.40,-0.57,2.40,-2.39,-2.45,-2.00,-2.95,-2.96,-2.97
380.33,-0.56,2.37,-0.56,2.38,-2.38,-2.43,-1.99,-2.94,-2.94,-2.94
384.13,-0.55,2.36,-0.55,2.36,-2.36,-2.41,-1.98,-2.92,-2.92,-2.92
387.97,-0.55,2.34,-0.55,2.35,-2.35,-2.39,-1.97,-2.90,-2.90,-2.90
391.85,-0.54,2.33,-0.54,2.33,-2.34,-2.36,-1.96,-2.88,-2.88,-2.88
395.77,-0.53,2.31,-0.53,2.32,-2.32,-2.34,-1.95,-2.85,-2.85,-2.85
399.73,-0.52,2.30,-0.52,2.31,-2.31,-2.32,-1.94,-2.83,-2.83,-2.83
403.72,-0.52,2.29,-0.52,2.29,-2.29,-2.29,-1.94,-2.81,-2.81,-2.82
407.76,-0.51,2.28,-0.51,2.28,-2.28,-2.27,-1.94,-2.79,-2.79,-2.80
411.84,-0.51,2.25,-0.51,2.27,-2.26,-2.25,-1.93,-2.77,-2.77,-2.77
415.96,-0.49,2.25,-0.50,2.25,-2.25,-2.22,-1.93,-2.74,-2.75,-2.75
420.12,-0.49,2.23,-0.49,2.23,-2.23,-2.20,-1.93,-2.73,-2.72,-2.73
424.32,-0.48,2.21,-0.48,2.22,-2.22,-2.17,-1.93,-2.70,-2.70,-2.70
428.56,-0.47,2.20,-0.47,2.21,-2.21,-2.15,-1.93,-2.68,-2.68,-2.68
432.85,-0.45,2.20,-0.45,2.20,-2.20,-2.13,-1.93,-2.66,-2.66,-2.66
437.18,-0.43,2.19,-0.43,2.19,-2.20,-2.10,-1.93,-2.63,-2.63,-2.63
441.55,-0.41,2.18,-0.41,2.19,-2.19,-2.08,-1.93,-2.60,-2.60,-2.60
445.96,-0.39,2.18,-0.39,2.19,-2.18,-2.05,-1.92,-2.58,-2.58,-2.58
450.42,-0.37,2.19,-0.37,2.18,-2.18,-2.03,-1.92,-2.55,-2.55,-2.57
454.93,-0.36,2.16,-0.36,2.18,-2.17,-2.00,-1.92,-2.53,-2.53,-2.53
459.48,-0.34,2.16,-0.34,2.16,-2.16,-1.98,-1.92,-2.50,-2.50,-2.51
