frequency,raw,error,smoothed,error_smoothed,equalization,parametric_eq,fixed_band_eq,equalized_raw,equalized_smoothed,target
20.00,-5.56,-8.87,-5.47,-8.81,8.81,8.91,3.80,3.26,3.34,3.31
20.20,-5.48,-8.84,-5.42,-8.80,8.80,8.89,3.90,3.33,3.38,3.36
20.40,-5.39,-8.80,-5.38,-8.79,8.79,8.86,4.01,3.41,3.41,3.41
20.61,-5.31,-8.75,-5.33,-8.78,8.78,8.84,4.12,3.47,3.45,3.44
20.81,-5.23,-8.72,-5.29,-8.77,8.77,8.82,4.23,3.54,3.48,3.49
21.02,-5.15,-8.68,-5.25,-8.75,8.75,8.79,4.34,3.60,3.50,3.53
21.23,-5.14,-8.69,-5.21,-8.74,8.74,8.76,4.46,3.60,3.53,3.55
21.44,-5.13,-8.70,-5.17,-8.72,8.72,8.74,4.58,3.59,3.55,3.57
21.66,-5.12,-8.71,-5.13,-8.70,8.70,8.71,4.71,3.59,3.57,3.59
21.87,-5.11,-8.71,-5.10,-8.69,8.69,8.68,4.84,3.58,3.59,3.60
22.09,-5.10,-8.71,-5.06,-8.67,8.67,8.66,4.97,3.57,3.60,3.62
22.31,-5.07,-8.69,-5.03,-8.65,8.65,8.63,5.11,3.58,3.62,3.63
22.54,-5.04,-8.66,-5.01,-8.63,8.63,8.60,5.25,3.60,3.62,3.63
22.76,-5.01,-8.63,-4.99,-8.62,8.62,8.57,5.39,3.61,3.63,3.63
22.99,-4.98,-8.59,-4.97,-8.60,8.60,8.54,5.54,3.62,3.63,3.62
23.22,-4.95,-8.56,-4.95,-8.58,8.58,8.52,5.69,3.63,3.63,3.61
23.45,-4.92,-8.53,-4.92,-8.55,8.55,8.49,5.84,3.64,3.63,3.61
23.69,-4.89,-8.51,-4.89,-8.52,8.52,8.46,6.00,3.64,3.63,3.62
23.92,-4.86,-8.48,-4.87,-8.50,8.50,8.43,6.16,3.64,3.63,3.62
24.16,-4.83,-8.46,-4.84,-8.47,8.47,8.40,6.33,3.64,3.63,3.63
24.40,-4.81,-8.45,-4.81,-8.44,8.44,8.37,6.49,3.63,3.63,3.64
24.65,-4.78,-8.41,-4.78,-8.41,8.41,8.35,6.66,3.63,3.63,3.63
24.89,-4.76,-8.38,-4.75,-8.38,8.38,8.32,6.84,3.62,3.63,3.63
25.14,-4.74,-8.36,-4.72,-8.35,8.35,8.29,7.01,3.62,3.63,3.63
25.39,-4.71,-8.34,-4.70,-8.33,8.33,8.27,7.19,3.62,3.63,3.64
25.65,-4.68,-8.31,-4.67,-8.31,8.31,8.24,7.37,3.63,3.63,3.64
25.91,-4.66,-8.28,-4.65,-8.28,8.28,8.21,7.55,3.63,3.63,3.62
26.16,-4.63,-8.25,-4.63,-8.26,8.26,8.19,7.73,3.64,3.63,3.62
26.43,-4.61,-8.23,-4.62,-8.24,8.24,8.17,7.92,3.64,3.63,3.62
26.69,-4.58,-8.20,-4.60,-8.22,8.22,8.14,8.10,3.65,3.62,3.62
26.96,-4.55,-8.18,-4.58,-8.20,8.20,8.12,8.28,3.66,3.62,3.63
27.23,-4.55,-8.17,-4.56,-8.18,8.18,8.09,8.45,3.64,3.62,3.63
27.50,-4.55,-8.17,-4.55,-8.16,8.16,8.07,8.63,3.62,3.62,3.63
27.77,-4.55,-8.16,-4.53,-8.14,8.14,8.05,8.80,3.60,3.62,3.62
28.05,-4.54,-8.15,-4.51,-8.12,8.12,8.03,8.96,3.59,3.61,3.61
28.33,-4.52,-8.12,-4.49,-8.10,8.10,8.01,9.12,3.58,3.61,3.60
28.62,-4.49,-8.09,-4.46,-8.07,8.07,7.99,9.27,3.59,3.61,3.60
28.90,-4.46,-8.06,-4.44,-8.05,8.05,7.97,9.41,3.59,3.61,3.61
29.19,-4.43,-8.02,-4.42,-8.02,8.02,7.95,9.54,3.60,3.61,3.60
29.48,-4.40,-8.01,-4.39,-8.00,8.00,7.93,9.66,3.60,3.60,3.61
29.78,-4.37,-7.97,-4.37,-7.97,7.97,7.91,9.76,3.61,3.60,3.60
30.08,-4.34,-7.95,-4.35,-7.95,7.95,7.90,9.85,3.61,3.60,3.61
30.38,-4.31,-7.91,-4.33,-7.92,7.92,7.88,9.93,3.62,3.60,3.60
30.68,-4.28,-7.87,-4.30,-7.90,7.90,7.86,9.99,3.62,3.60,3.60
30.99,-4.25,-7.84,-4.28,-7.88,7.88,7.85,10.03,3.63,3.60,3.59
31.30,-4.25,-7.84,-4.26,-7.85,7.85,7.83,10.06,3.61,3.59,3.59
31.61,-4.25,-7.84,-4.25,-7.84,7.84,7.82,10.07,3.59,3.59,3.59
31.93,-4.25,-7.83,-4.23,-7.82,7.82,7.81,10.06,3.57,3.59,3.59
32.24,-4.24,-7.81,-4.22,-7.81,7.81,7.79,10.04,3.57,3.58,3.57
32.57,-4.23,-7.81,-4.21,-7.79,7.79,7.78,10.00,3.56,3.58,3.58
32.89,-4.22,-7.79,-4.20,-7.77,7.77,7.77,9.95,3.56,3.57,3.58
33.22,-4.20,-7.76,-4.19,-7.75,7.75,7.76,9.89,3.56,3.57,3.57
33.55,-4.18,-7.74,-4.17,-7.73,7.73,7.74,9.81,3.56,3.56,3.56
33.89,-4.16,-7.71,-4.16,-7.72,7.72,7.73,9.73,3.56,3.56,3.55
34.23,-4.15,-7.70,-4.15,-7.70,7.70,7.72,9.63,3.55,3.55,3.56
34.57,-4.15,-7.69,-4.13,-7.68,7.68,7.71,9.53,3.53,3.55,3.54
34.92,-4.15,-7.68,-4.11,-7.65,7.65,7.70,9.42,3.51,3.54,3.54
35.27,-4.12,-7.65,-4.10,-7.64,7.64,7.69,9.30,3.52,3.54,3.53
35.62,-4.08,-7.61,-4.09,-7.62,7.62,7.69,9.18,3.54,3.53,3.53
35.97,-4.03,-7.55,-4.07,-7.60,7.60,7.68,9.06,3.58,3.53,3.53
36.33,-4.04,-7.57,-4.06,-7.59,7.59,7.67,8.93,3.55,3.53,3.53
36.70,-4.04,-7.55,-4.06,-7.58,7.58,7.66,8.81,3.54,3.53,3.52
37.06,-4.05,-7.56,-4.05,-7.58,7.58,7.65,8.68,3.53,3.53,3.51
37.43,-4.05,-7.57,-4.05,-7.58,7.58,7.64,8.56,3.53,3.52,3.53
37.81,-4.05,-7.57,-4.05,-7.57,7.57,7.63,8.43,3.53,3.52,3.52
38.19,-4.05,-7.56,-4.05,-7.57,7.57,7.63,8.31,3.52,3.52,3.52
38.57,-4.05,-7.57,-4.04,-7.56,7.56,7.62,8.20,3.52,3.52,3.52
38.95,-4.05,-7.57,-4.04,-7.56,7.56,7.61,8.08,3.51,3.52,3.53
39.34,-4.05,-7.57,-4.03,-7.55,7.55,7.60,7.97,3.51,3.52,3.52
39.74,-4.05,-7.56,-4.03,-7.55,7.55,7.59,7.86,3.50,3.52,3.52
40.14,-4.05,-7.57,-4.02,-7.54,7.54,7.58,7.76,3.49,3.52,3.52
40.54,-4.05,-7.56,-4.01,-7.52,7.52,7.57,7.66,3.48,3.51,3.51
40.94,-4.05,-7.55,-4.00,-7.51,7.51,7.56,7.57,3.46,3.51,3.51
41.35,-4.00,-7.50,-3.99,-7.49,7.49,7.55,7.48,3.50,3.50,3.50
41.76,-3.94,-7.43,-3.98,-7.47,7.47,7.54,7.39,3.54,3.49,3.49
42.18,-3.92,-7.41,-3.97,-7.45,7.45,7.53,7.31,3.54,3.48,3.49
42.60,-3.93,-7.40,-3.96,-7.43,7.43,7.52,7.24,3.51,3.47,3.48
43.03,-3.95,-7.42,-3.95,-7.41,7.41,7.51,7.17,3.47,3.46,3.47
43.46,-3.95,-7.41,-3.95,-7.39,7.39,7.50,7.11,3.45,3.45,3.46
43.90,-3.95,-7.38,-3.94,-7.37,7.37,7.48,7.05,3.43,3.43,3.43
44.33,-3.95,-7.36,-3.94,-7.36,7.36,7.47,7.00,3.41,3.42,3.41
44.78,-3.95,-7.34,-3.94,-7.34,7.34,7.45,6.95,3.39,3.40,3.39
45.23,-3.95,-7.33,-3.94,-7.32,7.32,7.44,6.91,3.38,3.39,3.38
45.68,-3.95,-7.31,-3.94,-7.31,7.31,7.42,6.87,3.36,3.37,3.36
46.13,-3.95,-7.29,-3.94,-7.30,7.30,7.40,6.84,3.35,3.36,3.34
46.60,-3.95,-7.29,-3.94,-7.28,7.28,7.39,6.81,3.33,3.34,3.34
47.06,-3.95,-7.27,-3.94,-7.26,7.26,7.37,6.79,3.32,3.32,3.32
47.53,-3.95,-7.26,-3.94,-7.25,7.25,7.35,6.77,3.30,3.31,3.31
48.01,-3.95,-7.25,-3.94,-7.23,7.23,7.33,6.76,3.29,3.29,3.31
48.49,-3.95,-7.23,-3.95,-7.22,7.22,7.31,6.75,3.27,3.27,3.28
48.97,-3.95,-7.21,-3.95,-7.21,7.21,7.28,6.74,3.27,3.26,3.26
49.46,-3.95,-7.18,-3.96,-7.20,7.20,7.26,6.74,3.26,3.24,3.24
49.96,-3.95,-7.16,-3.97,-7.20,7.20,7.23,6.74,3.26,3.23,3.21
50.46,-3.95,-7.16,-3.99,-7.20,7.20,7.21,6.75,3.25,3.21,3.21
50.96,-3.96,-7.15,-4.00,-7.19,7.19,7.18,6.76,3.24,3.20,3.20
51.47,-4.00,-7.17,-4.01,-7.19,7.19,7.15,6.77,3.19,3.18,3.17
51.99,-4.05,-7.20,-4.02,-7.18,7.18,7.12,6.78,3.14,3.16,3.15
52.51,-4.05,-7.19,-4.02,-7.17,7.17,7.09,6.80,3.12,3.15,3.15
53.03,-4.05,-7.19,-4.02,-7.15,7.15,7.06,6.81,3.11,3.13,3.14
53.56,-4.05,-7.17,-4.01,-7.13,7.13,7.02,6.83,3.08,3.12,3.12
54.10,-4.05,-7.15,-4.00,-7.11,7.11,6.99,6.85,3.06,3.10,3.10
54.64,-4.05,-7.13,-3.99,-7.08,7.08,6.95,6.87,3.04,3.09,3.09
55.18,-4.02,-7.09,-3.98,-7.05,7.05,6.92,6.88,3.04,3.08,3.08
55.74,-3.95,-7.00,-3.96,-7.02,7.02,6.88,6.90,3.07,3.06,3.06
56.29,-3.92,-6.96,-3.94,-6.99,6.99,6.84,6.92,3.07,3.04,3.05
56.86,-3.94,-6.96,-3.93,-6.95,6.95,6.80,6.93,3.02,3.03,3.02
57.42,-3.88,-6.87,-3.91,-6.91,6.91,6.76,6.94,3.04,3.01,2.99
58.00,-3.78,-6.75,-3.89,-6.87,6.87,6.72,6.94,3.09,2.98,2.98
58.58,-3.82,-6.78,-3.87,-6.83,6.83,6.67,6.94,3.01,2.96,2.96
59.16,-3.85,-6.79,-3.85,-6.78,6.78,6.63,6.94,2.93,2.93,2.94
59.76,-3.85,-6.76,-3.84,-6.73,6.73,6.58,6.93,2.89,2.89,2.92
60.35,-3.85,-6.72,-3.83,-6.69,6.69,6.54,6.92,2.84,2.86,2.87
60.96,-3.85,-6.68,-3.82,-6.64,6.64,6.49,6.90,2.80,2.82,2.83
61.57,-3.88,-6.66,-3.82,-6.60,6.60,6.44,6.87,2.72,2.78,2.79
62.18,-3.88,-6.61,-3.81,-6.55,6.55,6.39,6.84,2.67,2.74,2.74
62.80,-3.77,-6.45,-3.80,-6.49,6.49,6.34,6.80,2.72,2.69,2.69
63.43,-3.74,-6.37,-3.78,-6.42,6.42,6.29,6.76,2.69,2.65,2.64
64.07,-3.74,-6.32,-3.76,-6.36,6.36,6.24,6.71,2.62,2.60,2.59
64.71,-3.74,-6.27,-3.74,-6.29,6.29,6.18,6.65,2.55,2.54,2.53
65.35,-3.75,-6.24,-3.71,-6.20,6.20,6.13,6.59,2.46,2.49,2.49
66.01,-3.78,-6.21,-3.68,-6.12,6.12,6.07,6.52,2.35,2.44,2.44
66.67,-3.69,-6.07,-3.66,-6.04,6.04,6.02,6.45,2.36,2.39,2.38
67.33,-3.63,-5.95,-3.63,-5.96,5.96,5.96,6.37,2.34,2.33,2.33
68.01,-3.59,-5.87,-3.61,-5.89,5.89,5.91,6.28,2.30,2.28,2.28
68.69,-3.53,-5.75,-3.59,-5.81,5.81,5.85,6.19,2.28,2.22,2.22
69.37,-3.52,-5.68,-3.57,-5.74,5.74,5.79,6.10,2.22,2.16,2.17
70.07,-3.54,-5.64,-3.56,-5.67,5.67,5.73,6.01,2.13,2.11,2.11
70.77,-3.54,-5.59,-3.55,-5.59,5.59,5.68,5.91,2.06,2.05,2.06
71.48,-3.54,-5.53,-3.54,-5.52,5.52,5.62,5.81,1.98,1.98,2.00
72.19,-3.54,-5.46,-3.53,-5.45,5.45,5.56,5.71,1.91,1.92,1.92
72.91,-3.54,-5.40,-3.52,-5.38,5.38,5.50,5.61,1.84,1.86,1.86
73.64,-3.54,-5.33,-3.51,-5.31,5.31,5.44,5.51,1.77,1.80,1.80
74.38,-3.54,-5.27,-3.51,-5.25,5.25,5.38,5.40,1.71,1.73,1.73
75.12,-3.54,-5.20,-3.52,-5.19,5.19,5.32,5.30,1.65,1.67,1.66
75.87,-3.54,-5.13,-3.53,-5.13,5.13,5.26,5.20,1.60,1.61,1.60
76.63,-3.54,-5.08,-3.54,-5.08,5.08,5.20,5.10,1.55,1.55,1.54
77.40,-3.54,-5.02,-3.54,-5.03,5.03,5.14,5.00,1.49,1.48,1.48
78.17,-3.54,-4.95,-3.55,-4.97,4.97,5.07,4.90,1.44,1.42,1.41
78.95,-3.54,-4.91,-3.56,-4.92,4.92,5.01,4.80,1.39,1.36,1.37
79.74,-3.54,-4.84,-3.57,-4.88,4.88,4.95,4.71,1.34,1.31,1.31
80.54,-3.54,-4.79,-3.58,-4.83,4.83,4.89,4.61,1.29,1.25,1.25
81.35,-3.56,-4.75,-3.59,-4.78,4.78,4.83,4.52,1.23,1.19,1.19
82.16,-3.62,-4.75,-3.60,-4.74,4.74,4.77,4.43,1.12,1.14,1.14
82.98,-3.71,-4.80,-3.61,-4.69,4.69,4.71,4.35,0.98,1.08,1.09
83.81,-3.65,-4.67,-3.62,-4.64,4.64,4.65,4.27,1.00,1.03,1.02
84.65,-3.64,-4.60,-3.63,-4.60,4.60,4.59,4.19,0.96,0.97,0.97
85.50,-3.64,-4.55,-3.63,-4.54,4.54,4.53,4.11,0.91,0.91,0.92
86.35,-3.64,-4.50,-3.64,-4.49,4.49,4.47,4.03,0.86,0.85,0.86
87.22,-3.64,-4.44,-3.64,-4.44,4.44,4.41,3.96,0.80,0.80,0.80
88.09,-3.64,-4.38,-3.65,-4.38,4.38,4.35,3.89,0.74,0.74,0.74
88.97,-3.64,-4.31,-3.64,-4.32,4.32,4.29,3.83,0.69,0.68,0.68
89.86,-3.64,-4.25,-3.64,-4.26,4.26,4.23,3.76,0.62,0.62,0.62
90.76,-3.64,-4.19,-3.64,-4.19,4.19,4.17,3.70,0.56,0.56,0.55
91.66,-3.64,-4.14,-3.63,-4.13,4.13,4.11,3.64,0.49,0.50,0.50
92.58,-3.64,-4.06,-3.63,-4.07,4.07,4.06,3.59,0.43,0.44,0.43
93.51,-3.64,-4.01,-3.64,-4.02,4.02,4.00,3.54,0.38,0.38,0.37
94.44,-3.64,-3.95,-3.65,-3.97,3.97,3.94,3.49,0.33,0.32,0.32
95.39,-3.64,-3.90,-3.65,-3.91,3.91,3.89,3.44,0.28,0.26,0.26
96.34,-3.64,-3.83,-3.66,-3.86,3.86,3.83,3.39,0.23,0.20,0.20
97.30,-3.65,-3.79,-3.67,-3.81,3.81,3.77,3.35,0.16,0.14,0.14
98.28,-3.66,-3.74,-3.67,-3.75,3.75,3.72,3.31,0.10,0.09,0.08
99.26,-3.67,-3.69,-3.67,-3.69,3.69,3.66,3.27,0.03,0.03,0.03
100.25,-3.69,-3.66,-3.67,-3.64,3.64,3.61,3.24,-0.05,-0.03,-0.03
101.25,-3.72,-3.63,-3.67,-3.58,3.58,3.55,3.20,-0.14,-0.09,-0.09
102.27,-3.76,-3.61,-3.67,-3.52,3.52,3.50,3.17,-0.24,-0.15,-0.14
103.29,-3.69,-3.47,-3.67,-3.46,3.46,3.45,3.14,-0.23,-0.21,-0.21
104.32,-3.65,-3.39,-3.67,-3.40,3.40,3.40,3.11,-0.24,-0.26,-0.26
105.37,-3.67,-3.35,-3.67,-3.34,3.34,3.34,3.08,-0.32,-0.33,-0.32
106.42,-3.65,-3.27,-3.67,-3.28,3.28,3.29,3.05,-0.36,-0.39,-0.38
107.48,-3.59,-3.14,-3.67,-3.22,3.22,3.24,3.03,-0.36,-0.45,-0.44
108.56,-3.62,-3.11,-3.68,-3.17,3.17,3.19,3.00,-0.45,-0.51,-0.51
109.64,-3.67,-3.10,-3.68,-3.10,3.10,3.14,2.98,-0.56,-0.57,-0.57
110.74,-3.69,-3.05,-3.67,-3.04,3.04,3.09,2.96,-0.65,-0.63,-0.64
111.85,-3.70,-3.01,-3.67,-2.98,2.98,3.04,2.93,-0.72,-0.69,-0.68
112.97,-3.71,-2.95,-3.67,-2.92,2.92,2.99,2.91,-0.79,-0.75,-0.76
114.10,-3.72,-2.90,-3.68,-2.87,2.87,2.95,2.89,-0.85,-0.81,-0.82
115.24,-3.72,-2.84,-3.69,-2.82,2.82,2.90,2.86,-0.89,-0.87,-0.87
116.39,-3.72,-2.78,-3.70,-2.78,2.78,2.85,2.84,-0.94,-0.92,-0.94
117.55,-3.72,-2.73,-3.71,-2.73,2.73,2.81,2.81,-0.98,-0.98,-0.98
118.73,-3.71,-2.67,-3.72,-2.69,2.69,2.76,2.79,-1.02,-1.03,-1.04
119.92,-3.70,-2.62,-3.73,-2.65,2.65,2.71,2.76,-1.05,-1.07,-1.07
121.12,-3.66,-2.53,-3.73,-2.61,2.61,2.67,2.74,-1.05,-1.12,-1.13
122.33,-3.70,-2.53,-3.73,-2.56,2.56,2.63,2.71,-1.13,-1.17,-1.17
123.55,-3.75,-2.54,-3.73,-2.52,2.52,2.58,2.68,-1.23,-1.21,-1.20
124.79,-3.77,-2.52,-3.73,-2.48,2.48,2.54,2.65,-1.29,-1.25,-1.25
126.03,-3.77,-2.48,-3.73,-2.44,2.44,2.50,2.61,-1.33,-1.29,-1.29
127.29,-3.76,-2.44,-3.73,-2.40,2.40,2.46,2.58,-1.36,-1.33,-1.32
128.57,-3.75,-2.38,-3.73,-2.36,2.36,2.41,2.55,-1.38,-1.37,-1.37
129.85,-3.75,-2.34,-3.74,-2.33,2.33,2.37,2.51,-1.42,-1.41,-1.41
131.15,-3.74,-2.29,-3.74,-2.30,2.30,2.33,2.47,-1.44,-1.44,-1.44
132.46,-3.74,-2.25,-3.74,-2.26,2.26,2.29,2.44,-1.47,-1.48,-1.48
133.79,-3.73,-2.21,-3.75,-2.23,2.23,2.25,2.40,-1.50,-1.52,-1.52
135.12,-3.73,-2.16,-3.75,-2.20,2.20,2.22,2.36,-1.53,-1.55,-1.56
136.48,-3.70,-2.11,-3.76,-2.17,2.17,2.18,2.31,-1.53,-1.59,-1.59
137.84,-3.76,-2.12,-3.77,-2.14,2.14,2.14,2.27,-1.62,-1.63,-1.63
139.22,-3.80,-2.12,-3.78,-2.11,2.11,2.10,2.23,-1.68,-1.66,-1.68
140.61,-3.82,-2.10,-3.79,-2.09,2.09,2.07,2.19,-1.73,-1.70,-1.72
142.02,-3.82,-2.08,-3.81,-2.07,2.07,2.03,2.14,-1.75,-1.74,-1.74
143.44,-3.82,-2.04,-3.83,-2.05,2.05,2.00,2.10,-1.77,-1.79,-1.78
144.87,-3.82,-1.99,-3.85,-2.02,2.02,1.96,2.05,-1.80,-1.83,-1.83
146.32,-3.83,-1.95,-3.87,-1.98,1.98,1.93,2.01,-1.84,-1.88,-1.88
147.78,-3.92,-2.00,-3.88,-1.93,1.93,1.89,1.96,-1.98,-1.94,-1.92
149.26,-3.95,-1.97,-3.88,-1.88,1.88,1.86,1.92,-2.07,-2.00,-1.97
150.75,-3.93,-1.88,-3.89,-1.82,1.82,1.83,1.88,-2.11,-2.07,-2.05
152.26,-3.92,-1.79,-3.90,-1.76,1.76,1.79,1.83,-2.16,-2.14,-2.12
153.78,-3.92,-1.72,-3.90,-1.69,1.69,1.76,1.79,-2.23,-2.21,-2.19
155.32,-3.94,-1.66,-3.91,-1.62,1.62,1.73,1.74,-2.32,-2.29,-2.28
156.88,-3.96,-1.60,-3.92,-1.55,1.55,1.70,1.70,-2.41,-2.37,-2.36
158.44,-3.92,-1.47,-3.93,-1.49,1.49,1.67,1.66,-2.43,-2.45,-2.45
160.03,-3.82,-1.28,-3.95,-1.43,1.43,1.64,1.62,-2.39,-2.52,-2.54
161.63,-3.86,-1.24,-3.96,-1.37,1.37,1.61,1.58,-2.49,-2.59,-2.62
163.24,-3.91,-1.22,-3.97,-1.31,1.31,1.58,1.54,-2.60,-2.66,-2.68
164.88,-3.99,-1.24,-3.98,-1.25,1.25,1.55,1.50,-2.73,-2.72,-2.74
166.53,-4.02,-1.22,-3.98,-1.20,1.20,1.52,1.46,-2.81,-2.78,-2.80
168.19,-4.04,-1.19,-3.98,-1.16,1.16,1.49,1.42,-2.88,-2.82,-2.84
169.87,-4.05,-1.16,-3.98,-1.12,1.12,1.47,1.38,-2.93,-2.86,-2.89
171.57,-4.05,-1.14,-3.98,-1.09,1.09,1.44,1.35,-2.96,-2.90,-2.91
173.29,-4.06,-1.13,-3.98,-1.06,1.06,1.41,1.31,-2.99,-2.92,-2.93
175.02,-4.06,-1.11,-3.98,-1.04,1.04,1.39,1.28,-3.01,-2.94,-2.94
176.77,-3.98,-1.01,-3.98,-1.03,1.03,1.36,1.24,-2.95,-2.96,-2.96
178.54,-3.93,-0.95,-3.98,-1.01,1.01,1.33,1.21,-2.92,-2.97,-2.97
180.32,-3.88,-0.91,-3.96,-0.98,0.98,1.31,1.18,-2.89,-2.98,-2.97
182.13,-3.86,-0.89,-3.94,-0.95,0.95,1.29,1.15,-2.91,-2.99,-2.97
183.95,-3.85,-0.86,-3.91,-0.91,0.91,1.26,1.12,-2.93,-3.00,-2.99
185.79,-3.92,-0.92,-3.90,-0.88,0.88,1.24,1.09,-3.04,-3.01,-2.99
187.65,-3.95,-0.93,-3.88,-0.85,0.85,1.21,1.06,-3.09,-3.03,-3.02
189.52,-3.92,-0.89,-3.87,-0.83,0.83,1.19,1.03,-3.09,-3.04,-3.03
191.42,-3.90,-0.84,-3.86,-0.80,0.80,1.17,1.01,-3.09,-3.06,-3.06
193.33,-3.88,-0.80,-3.86,-0.78,0.78,1.15,0.98,-3.09,-3.08,-3.08
195.27,-3.86,-0.76,-3.86,-0.76,0.76,1.12,0.96,-3.09,-3.10,-3.10
197.22,-3.85,-0.72,-3.87,-0.75,0.75,1.10,0.93,-3.10,-3.12,-3.12
199.19,-3.82,-0.66,-3.88,-0.73,0.73,1.08,0.91,-3.09,-3.15,-3.15
201.18,-3.81,-0.63,-3.88,-0.71,0.71,1.06,0.88,-3.09,-3.17,-3.17
203.19,-3.88,-0.68,-3.89,-0.70,0.70,1.04,0.86,-3.18,-3.20,-3.19
205.23,-3.93,-0.70,-3.90,-0.68,0.68,1.02,0.84,-3.25,-3.22,-3.22
207.28,-3.93,-0.70,-3.90,-0.66,0.66,1.00,0.82,-3.27,-3.24,-3.23
209.35,-3.93,-0.67,-3.91,-0.64,0.64,0.98,0.80,-3.28,-3.27,-3.26
211.44,-3.93,-0.63,-3.92,-0.63,0.63,0.96,0.78,-3.30,-3.29,-3.30
213.56,-3.93,-0.62,-3.92,-0.62,0.62,0.94,0.76,-3.31,-3.30,-3.30
215.69,-3.94,-0.62,-3.92,-0.60,0.60,0.92,0.74,-3.33,-3.32,-3.32
217.85,-3.94,-0.60,-3.92,-0.59,0.59,0.90,0.73,-3.35,-3.34,-3.33
220.03,-3.95,-0.60,-3.92,-0.57,0.57,0.88,0.71,-3.37,-3.35,-3.35
222.23,-3.96,-0.58,-3.91,-0.56,0.56,0.87,0.69,-3.40,-3.36,-3.37
224.45,-3.93,-0.56,-3.90,-0.54,0.54,0.85,0.68,-3.38,-3.36,-3.37
226.70,-3.86,-0.49,-3.89,-0.52,0.52,0.83,0.67,-3.33,-3.36,-3.37
228.96,-3.84,-0.47,-3.87,-0.51,0.51,0.81,0.65,-3.33,-3.36,-3.36
231.25,-3.83,-0.47,-3.85,-0.49,0.49,0.80,0.64,-3.33,-3.36,-3.36
233.57,-3.83,-0.48,-3.83,-0.48,0.48,0.78,0.63,-3.34,-3.35,-3.35
235.90,-3.81,-0.47,-3.81,-0.48,0.48,0.77,0.62,-3.33,-3.34,-3.34
238.26,-3.80,-0.46,-3.79,-0.47,0.47,0.75,0.61,-3.33,-3.32,-3.33
240.64,-3.78,-0.46,-3.77,-0.46,0.46,0.73,0.60,-3.31,-3.31,-3.31
243.05,-3.77,-0.48,-3.75,-0.46,0.46,0.72,0.59,-3.30,-3.29,-3.28
245.48,-3.75,-0.48,-3.73,-0.46,0.46,0.70,0.58,-3.28,-3.27,-3.26
247.93,-3.72,-0.48,-3.71,-0.47,0.47,0.69,0.57,-3.25,-3.25,-3.23
250.41,-3.70,-0.47,-3.70,-0.48,0.48,0.67,0.56,-3.22,-3.22,-3.22
252.92,-3.68,-0.48,-3.69,-0.49,0.49,0.66,0.56,-3.18,-3.20,-3.19
255.45,-3.67,-0.50,-3.68,-0.50,0.50,0.64,0.55,-3.16,-3.18,-3.17
258.00,-3.66,-0.51,-3.67,-0.52,0.52,0.63,0.55,-3.14,-3.16,-3.15
260.58,-3.66,-0.52,-3.67,-0.53,0.53,0.62,0.54,-3.12,-3.13,-3.14
263.19,-3.66,-0.55,-3.66,-0.55,0.55,0.60,0.54,-3.10,-3.11,-3.11
265.82,-3.66,-0.56,-3.66,-0.57,0.57,0.59,0.54,-3.08,-3.09,-3.09
268.48,-3.66,-0.59,-3.66,-0.59,0.59,0.58,0.54,-3.06,-3.06,-3.07
271.16,-3.66,-0.62,-3.66,-0.62,0.62,0.56,0.53,-3.04,-3.04,-3.04
273.87,-3.67,-0.64,-3.66,-0.64,0.64,0.55,0.53,-3.03,-3.02,-3.02
276.61,-3.67,-0.68,-3.66,-0.66,0.66,0.54,0.53,-3.00,-2.99,-2.99
279.38,-3.67,-0.70,-3.65,-0.69,0.69,0.52,0.53,-2.98,-2.97,-2.97
282.17,-3.67,-0.72,-3.65,-0.71,0.71,0.51,0.54,-2.96,-2.94,-2.94
284.99,-3.66,-0.75,-3.65,-0.73,0.73,0.50,0.54,-2.92,-2.91,-2.91
287.84,-3.65,-0.75,-3.64,-0.75,0.75,0.49,0.54,-2.89,-2.89,-2.89
290.72,-3.64,-0.78,-3.63,-0.77,0.77,0.48,0.54,-2.86,-2.86,-2.86
293.63,-3.63,-0.79,-3.62,-0.79,0.79,0.46,0.55,-2.84,-2.83,-2.84
296.57,-3.62,-0.82,-3.61,-0.81,0.81,0.45,0.55,-2.81,-2.80,-2.80
299.53,-3.60,-0.82,-3.60,-0.82,0.82,0.44,0.56,-2.77,-2.78,-2.77
302.53,-3.59,-0.83,-3.59,-0.84,0.84,0.43,0.56,-2.74,-2.75,-2.76
305.55,-3.58,-0.86,-3.59,-0.86,0.86,0.42,0.57,-2.71,-2.72,-2.71
308.61,-3.57,-0.87,-3.58,-0.88,0.88,0.41,0.58,-2.69,-2.70,-2.70
311.69,-3.57,-0.89,-3.57,-0.90,0.90,0.40,0.59,-2.67,-2.68,-2.67
314.81,-3.56,-0.91,-3.57,-0.91,0.91,0.39,0.59,-2.64,-2.66,-2.65
317.96,-3.56,-0.93,-3.57,-0.93,0.93,0.38,0.60,-2.63,-2.64,-2.63
321.14,-3.56,-0.93,-3.57,-0.95,0.95,0.37,0.61,-2.61,-2.62,-2.62
324.35,-3.56,-0.95,-3.57,-0.97,0.97,0.36,0.62,-2.59,-2.60,-2.61
327.59,-3.60,-1.01,-3.58,-0.99,0.99,0.34,0.63,-2.61,-2.59,-2.59
330.87,-3.65,-1.06,-3.59,-1.01,1.01,0.33,0.64,-2.63,-2.58,-2.58
334.18,-3.63,-1.06,-3.60,-1.03,1.03,0.32,0.65,-2.59,-2.57,-2.57
337.52,-3.58,-1.02,-3.61,-1.05,1.05,0.32,0.67,-2.53,-2.56,-2.56
340.90,-3.57,-1.02,-3.62,-1.07,1.07,0.31,0.68,-2.50,-2.55,-2.54
344.30,-3.59,-1.05,-3.62,-1.08,1.08,0.30,0.69,-2.51,-2.54,-2.54
347.75,-3.65,-1.11,-3.63,-1.09,1.09,0.29,0.71,-2.55,-2.54,-2.54
351.23,-3.67,-1.13,-3.64,-1.10,1.10,0.28,0.72,-2.56,-2.53,-2.53
354.74,-3.67,-1.13,-3.64,-1.11,1.11,0.27,0.74,-2.56,-2.53,-2.53
358.28,-3.66,-1.13,-3.64,-1.11,1.11,0.26,0.75,-2.54,-2.53,-2.53
361.87,-3.66,-1.13,-3.64,-1.11,1.11,0.25,0.77,-2.54,-2.53,-2.53
365.49,-3.65,-1.13,-3.64,-1.11,1.11,0.24,0.79,-2.54,-2.53,-2.52
369.14,-3.64,-1.10,-3.63,-1.10,1.10,0.23,0.80,-2.53,-2.53,-2.53
372.83,-3.63,-1.09,-3.63,-1.10,1.10,0.22,0.82,-2.52,-2.53,-2.54
376.56,-3.63,-1.09,-3.63,-1.10,1.10,0.21,0.84,-2.53,-2.53,-2.54
380.33,-3.62,-1.09,-3.63,-1.09,1.09,0.20,0.86,-2.53,-2.54,-2.53
384.13,-3.61,-1.08,-3.62,-1.08,1.08,0.20,0.88,-2.53,-2.54,-2.53
387.97,-3.61,-1.06,-3.62,-1.07,1.07,0.19,0.90,-2.54,-2.54,-2.54
391.85,-3.60,-1.04,-3.62,-1.07,1.07,0.18,0.92,-2.53,-2.55,-2.55
395.77,-3.60,-1.05,-3.62,-1.06,1.06,0.17,0.93,-2.53,-2.56,-2.55
399.73,-3.60,-1.04,-3.62,-1.06,1.06,0.16,0.95,-2.54,-2.56,-2.56
403.72,-3.61,-1.05,-3.62,-1.05,1.05,0.15,0.97,-2.56,-2.57,-2.56
407.76,-3.61,-1.04,-3.61,-1.04,1.04,0.14,0.99,-2.57,-2.57,-2.57
411.84,-3.61,-1.03,-3.61,-1.03,1.03,0.14,1.01,-2.57,-2.58,-2.57
415.96,-3.61,-1.03,-3.60,-1.02,1.02,0.13,1.03,-2.59,-2.58,-2.57
420.12,-3.61,-1.03,-3.59,-1.01,1.01,0.12,1.05,-2.60,-2.58,-2.57
424.32,-3.61,-1.03,-3.57,-1.00,1.00,0.11,1.07,-2.61,-2.57,-2.58
428.56,-3.60,-1.03,-3.54,-0.99,0.99,0.10,1.09,-2.61,-2.56,-2.57
432.85,-3.53,-0.97,-3.51,-0.97,0.97,0.09,1.10,-2.56,-2.54,-2.56
437.18,-3.46,-0.91,-3.47,-0.95,0.95,0.09,1.12,-2.51,-2.52,-2.55
441.55,-3.42,-0.91,-3.43,-0.93,0.93,0.08,1.13,-2.49,-2.50,-2.51
445.96,-3.38,-0.90,-3.37,-0.90,0.90,0.07,1.14,-2.47,-2.47,-2.48
450.42,-3.32,-0.86,-3.31,-0.88,0.88,0.06,1.15,-2.44,-2.43,-2.45
454.93,-3.27,-0.86,-3.24,-0.85,0.85,0.05,1.16,-2.42,-2.39,-2.40
459.48,-3.20,-0.84,-3.16,-0.82,0.82,0.04,1.17,-2.38,-2.35,-2.35
464.07,-3.14,-0.83,-3.09,-0.79,0.79,0.04,1.18,-2.35,-2.30,-2.30
468.71,-3.01,-0.76,-3.02,-0.76,0.76,0.03,1.18,-2.24,-2.25,-2.25
473.40,-2.92,-0.71,-2.95,-0.74,0.74,0.02,1.18,-2.17,-2.20,-2.21
478.13,-2.87,-0.72,-2.88,-0.72,0.72,0.01,1.18,-2.15,-2.16,-2.15
