frequency,raw,error,smoothed,error_smoothed,equalization,parametric_eq,fixed_band_eq,equalized_raw,equalized_smoothed,target
20.00,9.56,6.37,9.59,6.38,-6.38,-6.82,-1.91,3.19,3.21,3.19
20.20,9.54,6.32,9.56,6.33,-6.33,-6.77,-1.96,3.22,3.23,3.22
20.40,9.53,6.28,9.53,6.27,-6.27,-6.70,-2.02,3.26,3.25,3.25
20.61,9.50,6.24,9.49,6.22,-6.22,-6.62,-2.08,3.28,3.27,3.27
20.81,9.47,6.17,9.46,6.17,-6.17,-6.53,-2.14,3.31,3.29,3.30
21.02,9.42,6.10,9.42,6.11,-6.11,-6.42,-2.20,3.31,3.30,3.33
21.23,9.39,6.06,9.38,6.06,-6.06,-6.31,-2.26,3.34,3.32,3.34
21.44,9.34,6.00,9.33,6.00,-6.00,-6.20,-2.33,3.34,3.33,3.35
21.66,9.30,5.95,9.29,5.95,-5.95,-6.08,-2.40,3.36,3.34,3.36
21.87,9.25,5.90,9.24,5.89,-5.89,-5.97,-2.46,3.36,3.35,3.36
22.09,9.19,5.83,9.19,5.83,-5.83,-5.85,-2.54,3.36,3.36,3.37
22.31,9.13,5.77,9.14,5.78,-5.78,-5.73,-2.61,3.36,3.36,3.37
22.54,9.09,5.73,9.08,5.72,-5.72,-5.62,-2.68,3.37,3.37,3.36
22.76,9.01,5.65,9.03,5.66,-5.66,-5.51,-2.76,3.35,3.36,3.36
22.99,8.96,5.61,8.97,5.60,-5.60,-5.41,-2.84,3.36,3.36,3.35
23.22,8.90,5.55,8.90,5.54,-5.54,-5.31,-2.92,3.36,3.36,3.35
23.45,8.83,5.48,8.84,5.48,-5.48,-5.21,-3.00,3.35,3.36,3.35
23.69,8.78,5.43,8.78,5.42,-5.42,-5.12,-3.08,3.36,3.36,3.35
23.92,8.71,5.36,8.71,5.36,-5.36,-5.04,-3.17,3.35,3.35,3.35
24.16,8.65,5.29,8.65,5.30,-5.30,-4.95,-3.26,3.36,3.35,3.36
24.40,8.58,5.22,8.59,5.24,-5.24,-4.88,-3.34,3.35,3.35,3.36
24.65,8.53,5.19,8.52,5.17,-5.17,-4.80,-3.43,3.36,3.35,3.35
24.89,8.45,5.11,8.45,5.11,-5.11,-4.73,-3.52,3.35,3.35,3.35
25.14,8.38,5.04,8.39,5.04,-5.04,-4.67,-3.61,3.34,3.34,3.35
25.39,8.31,4.97,8.32,4.98,-4.98,-4.61,-3.70,3.33,3.34,3.34
25.65,8.25,4.91,8.25,4.91,-4.91,-4.55,-3.79,3.34,3.34,3.34
25.91,8.18,4.85,8.19,4.85,-4.85,-4.50,-3.89,3.34,3.34,3.33
26.16,8.11,4.78,8.12,4.79,-4.79,-4.45,-3.98,3.33,3.34,3.33
26.43,8.06,4.73,8.05,4.72,-4.72,-4.40,-4.06,3.34,3.33,3.33
26.69,7.99,4.67,7.99,4.66,-4.66,-4.35,-4.15,3.33,3.33,3.33
26.96,7.91,4.59,7.92,4.60,-4.60,-4.31,-4.24,3.32,3.32,3.33
27.23,7.85,4.53,7.86,4.54,-4.54,-4.27,-4.32,3.32,3.32,3.33
27.50,7.79,4.47,7.79,4.47,-4.47,-4.23,-4.40,3.32,3.32,3.32
27.77,7.73,4.42,7.73,4.41,-4.41,-4.20,-4.48,3.32,3.31,3.31
28.05,7.66,4.35,7.66,4.35,-4.35,-4.16,-4.56,3.31,3.31,3.31
28.33,7.59,4.29,7.60,4.29,-4.29,-4.13,-4.63,3.30,3.31,3.30
28.62,7.54,4.25,7.53,4.23,-4.23,-4.10,-4.69,3.31,3.30,3.30
28.90,7.46,4.17,7.47,4.17,-4.17,-4.07,-4.75,3.29,3.30,3.30
29.19,7.40,4.12,7.41,4.12,-4.12,-4.04,-4.81,3.29,3.29,3.28
29.48,7.34,4.05,7.34,4.06,-4.06,-4.01,-4.86,3.29,3.29,3.29
29.78,7.27,3.99,7.28,4.00,-4.00,-3.99,-4.90,3.27,3.28,3.28
30.08,7.22,3.95,7.22,3.94,-3.94,-3.97,-4.93,3.28,3.27,3.28
30.38,7.15,3.89,7.16,3.89,-3.89,-3.94,-4.96,3.27,3.27,3.27
30.68,7.09,3.83,7.09,3.83,-3.83,-3.92,-4.98,3.26,3.26,3.26
30.99,7.03,3.78,7.03,3.78,-3.78,-3.90,-4.99,3.26,3.26,3.25
31.30,6.97,3.72,6.97,3.72,-3.72,-3.88,-4.99,3.25,3.25,3.25
31.61,6.91,3.67,6.91,3.67,-3.67,-3.86,-4.98,3.24,3.24,3.25
31.93,6.85,3.62,6.85,3.62,-3.62,-3.84,-4.97,3.24,3.24,3.23
32.24,6.79,3.57,6.79,3.57,-3.57,-3.83,-4.95,3.23,3.23,3.22
32.57,6.73,3.52,6.74,3.52,-3.52,-3.81,-4.92,3.22,3.22,3.22
32.89,6.67,3.46,6.68,3.47,-3.47,-3.79,-4.89,3.21,3.21,3.22
33.22,6.62,3.42,6.62,3.42,-3.42,-3.78,-4.85,3.21,3.20,3.20
33.55,6.57,3.37,6.56,3.37,-3.37,-3.76,-4.80,3.20,3.20,3.20
33.89,6.49,3.31,6.51,3.32,-3.32,-3.75,-4.75,3.17,3.19,3.19
34.23,6.44,3.26,6.45,3.27,-3.27,-3.74,-4.69,3.17,3.18,3.18
34.57,6.40,3.23,6.40,3.23,-3.23,-3.72,-4.62,3.18,3.17,3.17
34.92,6.35,3.20,6.34,3.18,-3.18,-3.71,-4.55,3.17,3.16,3.16
35.27,6.29,3.14,6.29,3.14,-3.14,-3.70,-4.48,3.16,3.15,3.15
35.62,6.23,3.10,6.23,3.09,-3.09,-3.69,-4.41,3.14,3.14,3.14
35.97,6.18,3.06,6.18,3.05,-3.05,-3.68,-4.33,3.13,3.13,3.12
36.33,6.11,2.99,6.13,3.01,-3.01,-3.66,-4.25,3.10,3.12,3.12
36.70,6.05,2.95,6.07,2.97,-2.97,-3.65,-4.17,3.09,3.11,3.11
37.06,6.01,2.92,6.02,2.92,-2.92,-3.64,-4.08,3.09,3.09,3.09
37.43,5.97,2.89,5.97,2.88,-2.88,-3.63,-4.00,3.09,3.08,3.09
37.81,5.92,2.85,5.91,2.84,-2.84,-3.62,-3.92,3.08,3.07,3.07
38.19,5.86,2.81,5.86,2.80,-2.80,-3.61,-3.83,3.06,3.06,3.06
38.57,5.80,2.75,5.80,2.76,-2.76,-3.60,-3.75,3.04,3.05,3.05
38.95,5.75,2.72,5.75,2.72,-2.72,-3.59,-3.66,3.04,3.03,3.03
39.34,5.71,2.69,5.70,2.68,-2.68,-3.58,-3.58,3.04,3.02,3.02
39.74,5.64,2.64,5.65,2.64,-2.64,-3.58,-3.50,3.01,3.01,3.00
40.14,5.59,2.60,5.60,2.60,-2.60,-3.57,-3.42,3.00,3.00,3.00
40.54,5.54,2.56,5.55,2.56,-2.56,-3.56,-3.34,2.99,2.99,2.98
40.94,5.49,2.52,5.49,2.52,-2.52,-3.55,-3.26,2.97,2.98,2.97
41.35,5.44,2.49,5.44,2.48,-2.48,-3.54,-3.19,2.96,2.96,2.96
41.76,5.38,2.43,5.39,2.45,-2.45,-3.53,-3.11,2.94,2.95,2.95
42.18,5.33,2.39,5.35,2.41,-2.41,-3.53,-3.04,2.92,2.93,2.94
42.60,5.30,2.38,5.30,2.38,-2.38,-3.52,-2.97,2.92,2.92,2.92
43.03,5.25,2.34,5.26,2.35,-2.35,-3.51,-2.90,2.90,2.90,2.92
43.46,5.22,2.33,5.21,2.32,-2.32,-3.50,-2.84,2.90,2.89,2.90
43.90,5.17,2.30,5.17,2.30,-2.30,-3.50,-2.77,2.88,2.87,2.87
44.33,5.12,2.27,5.13,2.27,-2.27,-3.49,-2.71,2.85,2.86,2.85
44.78,5.09,2.26,5.09,2.25,-2.25,-3.48,-2.65,2.84,2.84,2.83
45.23,5.04,2.23,5.05,2.23,-2.23,-3.47,-2.59,2.81,2.82,2.81
45.68,5.01,2.22,5.02,2.22,-2.22,-3.47,-2.54,2.80,2.80,2.79
46.13,4.98,2.21,4.98,2.20,-2.20,-3.46,-2.48,2.78,2.78,2.77
46.60,4.95,2.19,4.95,2.19,-2.19,-3.45,-2.43,2.76,2.76,2.76
47.06,4.90,2.17,4.91,2.18,-2.18,-3.45,-2.38,2.73,2.73,2.74
47.53,4.87,2.16,4.88,2.17,-2.17,-3.44,-2.33,2.71,2.71,2.72
48.01,4.84,2.14,4.84,2.16,-2.16,-3.43,-2.29,2.69,2.69,2.70
48.49,4.81,2.14,4.81,2.15,-2.15,-3.42,-2.24,2.67,2.66,2.67
48.97,4.77,2.13,4.78,2.14,-2.14,-3.42,-2.20,2.63,2.64,2.64
49.46,4.75,2.15,4.75,2.13,-2.13,-3.41,-2.16,2.62,2.61,2.61
49.96,4.72,2.15,4.71,2.13,-2.13,-3.40,-2.12,2.60,2.59,2.57
50.46,4.69,2.14,4.68,2.12,-2.12,-3.40,-2.09,2.57,2.56,2.56
50.96,4.64,2.11,4.65,2.12,-2.12,-3.39,-2.05,2.52,2.53,2.53
51.47,4.60,2.11,4.63,2.12,-2.12,-3.38,-2.02,2.48,2.51,2.50
51.99,4.60,2.13,4.60,2.12,-2.12,-3.38,-1.99,2.48,2.48,2.47
52.51,4.56,2.11,4.57,2.12,-2.12,-3.37,-1.96,2.44,2.45,2.45
53.03,4.54,2.12,4.55,2.12,-2.12,-3.36,-1.93,2.42,2.42,2.43
53.56,4.52,2.12,4.52,2.13,-2.13,-3.36,-1.90,2.40,2.39,2.40
54.10,4.48,2.11,4.50,2.13,-2.13,-3.35,-1.88,2.36,2.37,2.37
54.64,4.47,2.13,4.47,2.13,-2.13,-3.34,-1.85,2.34,2.34,2.34
55.18,4.43,2.12,4.45,2.13,-2.13,-3.33,-1.83,2.30,2.32,2.31
55.74,4.43,2.15,4.42,2.13,-2.13,-3.33,-1.81,2.30,2.29,2.28
56.29,4.39,2.13,4.40,2.14,-2.14,-3.32,-1.79,2.26,2.26,2.26
56.86,4.37,2.14,4.37,2.14,-2.14,-3.31,-1.77,2.24,2.24,2.23
57.42,4.34,2.14,4.34,2.14,-2.14,-3.31,-1.75,2.21,2.21,2.20
58.00,4.31,2.14,4.31,2.13,-2.13,-3.30,-1.74,2.18,2.18,2.18
58.58,4.28,2.13,4.28,2.13,-2.13,-3.29,-1.72,2.16,2.15,2.15
59.16,4.25,2.13,4.24,2.12,-2.12,-3.28,-1.71,2.13,2.12,2.13
59.76,4.20,2.10,4.20,2.11,-2.11,-3.28,-1.69,2.09,2.09,2.10
60.35,4.17,2.11,4.16,2.10,-2.10,-3.27,-1.68,2.08,2.06,2.07
60.96,4.12,2.08,4.11,2.08,-2.08,-3.26,-1.67,2.04,2.03,2.04
61.57,4.07,2.08,4.06,2.06,-2.06,-3.25,-1.66,2.01,1.99,1.99
62.18,4.01,2.06,4.01,2.04,-2.04,-3.25,-1.65,1.97,1.96,1.95
62.80,3.95,2.03,3.95,2.02,-2.02,-3.24,-1.64,1.93,1.93,1.92
63.43,3.89,2.01,3.90,2.01,-2.01,-3.23,-1.63,1.89,1.89,1.88
64.07,3.84,1.99,3.85,1.99,-1.99,-3.22,-1.62,1.86,1.86,1.85
64.71,3.77,1.95,3.80,1.97,-1.97,-3.22,-1.62,1.80,1.82,1.82
65.35,3.74,1.95,3.75,1.96,-1.96,-3.21,-1.61,1.79,1.79,1.79
66.01,3.68,1.93,3.70,1.95,-1.95,-3.20,-1.61,1.74,1.75,1.76
66.67,3.63,1.91,3.66,1.94,-1.94,-3.19,-1.61,1.70,1.72,1.72
67.33,3.60,1.92,3.62,1.93,-1.93,-3.18,-1.60,1.67,1.68,1.69
68.01,3.56,1.91,3.58,1.93,-1.93,-3.17,-1.60,1.63,1.65,1.65
68.69,3.52,1.91,3.54,1.93,-1.93,-3.16,-1.60,1.59,1.61,1.61
69.37,3.51,1.94,3.51,1.93,-1.93,-3.16,-1.60,1.58,1.57,1.57
70.07,3.48,1.95,3.48,1.94,-1.94,-3.15,-1.60,1.54,1.54,1.53
70.77,3.43,1.93,3.44,1.95,-1.95,-3.14,-1.61,1.49,1.50,1.50
71.48,3.42,1.96,3.41,1.95,-1.95,-3.13,-1.61,1.47,1.46,1.46
72.19,3.39,1.97,3.37,1.96,-1.96,-3.12,-1.61,1.44,1.42,1.42
72.91,3.34,1.97,3.34,1.96,-1.96,-3.11,-1.62,1.39,1.38,1.38
73.64,3.30,1.97,3.29,1.95,-1.95,-3.10,-1.63,1.35,1.34,1.33
74.38,3.26,1.97,3.25,1.95,-1.95,-3.09,-1.64,1.31,1.30,1.30
75.12,3.19,1.94,3.20,1.94,-1.94,-3.08,-1.65,1.25,1.26,1.25
75.87,3.15,1.94,3.14,1.92,-1.92,-3.07,-1.66,1.23,1.22,1.21
76.63,3.10,1.93,3.08,1.91,-1.91,-3.06,-1.67,1.20,1.18,1.18
77.40,3.03,1.90,3.02,1.88,-1.88,-3.05,-1.68,1.15,1.14,1.14
78.17,2.96,1.88,2.95,1.86,-1.86,-3.04,-1.70,1.10,1.09,1.09
78.95,2.89,1.84,2.89,1.83,-1.83,-3.03,-1.71,1.06,1.05,1.06
79.74,2.82,1.81,2.82,1.80,-1.80,-3.02,-1.73,1.02,1.01,1.01
80.54,2.74,1.77,2.75,1.78,-1.78,-3.01,-1.75,0.96,0.97,0.97
81.35,2.68,1.76,2.68,1.76,-1.76,-3.00,-1.77,0.93,0.93,0.93
82.16,2.61,1.73,2.62,1.74,-1.74,-2.99,-1.80,0.88,0.88,0.88
82.98,2.54,1.70,2.56,1.72,-1.72,-2.97,-1.82,0.83,0.84,0.85
83.81,2.48,1.69,2.50,1.71,-1.71,-2.96,-1.84,0.78,0.80,0.79
84.65,2.44,1.70,2.45,1.70,-1.70,-2.95,-1.87,0.74,0.75,0.74
85.50,2.39,1.69,2.41,1.70,-1.70,-2.94,-1.90,0.69,0.70,0.71
86.35,2.36,1.71,2.37,1.71,-1.71,-2.93,-1.93,0.65,0.66,0.66
87.22,2.33,1.73,2.34,1.73,-1.73,-2.91,-1.96,0.60,0.61,0.61
88.09,2.31,1.76,2.32,1.76,-1.76,-2.90,-1.99,0.55,0.56,0.56
88.97,2.31,1.80,2.30,1.79,-1.79,-2.89,-2.03,0.52,0.51,0.52
89.86,2.26,1.80,2.29,1.84,-1.84,-2.88,-2.07,0.43,0.46,0.46
90.76,2.26,1.86,2.29,1.89,-1.89,-2.86,-2.10,0.38,0.41,0.40
91.66,2.26,1.91,2.29,1.94,-1.94,-2.85,-2.14,0.32,0.35,0.36
92.58,2.31,2.02,2.30,2.00,-2.00,-2.84,-2.18,0.31,0.30,0.29
93.51,2.31,2.06,2.31,2.06,-2.06,-2.82,-2.23,0.25,0.25,0.25
94.44,2.31,2.12,2.32,2.13,-2.13,-2.81,-2.27,0.19,0.19,0.20
95.39,2.32,2.18,2.33,2.19,-2.19,-2.79,-2.31,0.13,0.13,0.14
96.34,2.35,2.28,2.33,2.26,-2.26,-2.78,-2.36,0.10,0.08,0.07
97.30,2.35,2.34,2.34,2.32,-2.32,-2.76,-2.41,0.04,0.02,0.02
98.28,2.35,2.39,2.34,2.37,-2.37,-2.75,-2.45,-0.02,-0.04,-0.04
99.26,2.35,2.45,2.33,2.43,-2.43,-2.73,-2.50,-0.07,-0.09,-0.10
100.25,2.35,2.51,2.33,2.48,-2.48,-2.72,-2.55,-0.13,-0.15,-0.15
101.25,2.32,2.53,2.31,2.52,-2.52,-2.70,-2.60,-0.20,-0.21,-0.21
102.27,2.31,2.58,2.29,2.56,-2.56,-2.68,-2.65,-0.24,-0.27,-0.27
103.29,2.27,2.61,2.27,2.59,-2.59,-2.67,-2.70,-0.32,-0.32,-0.33
104.32,2.24,2.63,2.24,2.62,-2.62,-2.65,-2.75,-0.38,-0.38,-0.38
105.37,2.20,2.64,2.21,2.65,-2.65,-2.63,-2.80,-0.45,-0.44,-0.44
106.42,2.16,2.66,2.18,2.68,-2.68,-2.62,-2.85,-0.51,-0.50,-0.50
107.48,2.13,2.69,2.14,2.70,-2.70,-2.60,-2.90,-0.57,-0.56,-0.56
108.56,2.08,2.71,2.11,2.73,-2.73,-2.58,-2.94,-0.64,-0.62,-0.62
109.64,2.05,2.73,2.07,2.75,-2.75,-2.56,-2.99,-0.70,-0.68,-0.68
110.74,2.02,2.76,2.03,2.78,-2.78,-2.54,-3.03,-0.75,-0.74,-0.74
111.85,1.98,2.78,2.00,2.80,-2.80,-2.52,-3.07,-0.82,-0.81,-0.80
112.97,1.96,2.84,1.96,2.83,-2.83,-2.51,-3.11,-0.87,-0.87,-0.87
114.10,1.92,2.85,1.92,2.86,-2.86,-2.49,-3.14,-0.93,-0.93,-0.93
115.24,1.88,2.88,1.89,2.88,-2.88,-2.47,-3.17,-1.00,-0.99,-1.00
116.39,1.85,2.91,1.85,2.91,-2.91,-2.45,-3.20,-1.06,-1.06,-1.06
117.55,1.82,2.95,1.81,2.93,-2.93,-2.42,-3.22,-1.11,-1.12,-1.13
118.73,1.77,2.97,1.77,2.95,-2.95,-2.40,-3.24,-1.18,-1.18,-1.19
119.92,1.72,2.97,1.73,2.97,-2.97,-2.38,-3.25,-1.25,-1.25,-1.25
121.12,1.68,2.99,1.68,2.99,-2.99,-2.36,-3.26,-1.30,-1.31,-1.31
122.33,1.63,3.01,1.63,3.00,-3.00,-2.34,-3.27,-1.37,-1.37,-1.37
123.55,1.58,3.01,1.57,3.01,-3.01,-2.32,-3.27,-1.42,-1.43,-1.43
124.79,1.52,3.01,1.51,3.01,-3.01,-2.29,-3.26,-1.48,-1.49,-1.49
126.03,1.46,3.01,1.45,3.01,-3.01,-2.27,-3.25,-1.54,-1.55,-1.55
127.29,1.39,3.00,1.39,3.01,-3.01,-2.25,-3.23,-1.61,-1.62,-1.61
128.57,1.31,2.99,1.32,3.00,-3.00,-2.22,-3.21,-1.68,-1.68,-1.68
129.85,1.24,2.98,1.25,2.99,-2.99,-2.20,-3.18,-1.74,-1.73,-1.74
131.15,1.17,2.97,1.18,2.97,-2.97,-2.17,-3.15,-1.80,-1.79,-1.80
132.46,1.09,2.95,1.10,2.95,-2.95,-2.15,-3.11,-1.86,-1.85,-1.85
133.79,1.02,2.93,1.03,2.93,-2.93,-2.12,-3.07,-1.91,-1.91,-1.90
135.12,0.93,2.90,0.94,2.90,-2.90,-2.10,-3.02,-1.97,-1.96,-1.97
136.48,0.87,2.89,0.86,2.87,-2.87,-2.07,-2.97,-2.00,-2.02,-2.01
137.84,0.77,2.84,0.77,2.84,-2.84,-2.04,-2.91,-2.07,-2.07,-2.07
139.22,0.70,2.83,0.68,2.80,-2.80,-2.01,-2.86,-2.10,-2.12,-2.13
140.61,0.60,2.78,0.59,2.76,-2.76,-1.99,-2.79,-2.16,-2.17,-2.18
142.02,0.50,2.72,0.50,2.72,-2.72,-1.96,-2.73,-2.22,-2.22,-2.21
143.44,0.42,2.69,0.41,2.67,-2.67,-1.93,-2.67,-2.25,-2.26,-2.26
144.87,0.32,2.64,0.32,2.63,-2.63,-1.90,-2.60,-2.31,-2.31,-2.31
146.32,0.21,2.57,0.23,2.59,-2.59,-1.87,-2.53,-2.37,-2.36,-2.36
147.78,0.11,2.51,0.13,2.54,-2.54,-1.84,-2.46,-2.43,-2.41,-2.40
149.26,0.02,2.47,0.04,2.50,-2.50,-1.81,-2.38,-2.47,-2.45,-2.44
150.75,-0.07,2.43,-0.05,2.45,-2.45,-1.78,-2.31,-2.52,-2.50,-2.50
152.26,-0.16,2.39,-0.14,2.40,-2.40,-1.75,-2.24,-2.56,-2.55,-2.54
153.78,-0.24,2.35,-0.23,2.36,-2.36,-1.71,-2.16,-2.60,-2.59,-2.59
155.32,-0.34,2.30,-0.32,2.31,-2.31,-1.68,-2.09,-2.65,-2.64,-2.64
156.88,-0.40,2.29,-0.42,2.27,-2.27,-1.65,-2.02,-2.66,-2.69,-2.68
158.44,-0.50,2.24,-0.51,2.22,-2.22,-1.61,-1.94,-2.72,-2.73,-2.73
160.03,-0.58,2.21,-0.61,2.17,-2.17,-1.58,-1.87,-2.75,-2.78,-2.78
161.63,-0.69,2.14,-0.70,2.12,-2.12,-1.55,-1.79,-2.81,-2.82,-2.83
163.24,-0.79,2.09,-0.80,2.07,-2.07,-1.51,-1.72,-2.86,-2.87,-2.88
164.88,-0.89,2.03,-0.90,2.02,-2.02,-1.47,-1.65,-2.91,-2.92,-2.91
166.53,-1.00,1.96,-0.99,1.97,-1.97,-1.44,-1.58,-2.96,-2.96,-2.96
168.19,-1.10,1.91,-1.09,1.91,-1.91,-1.40,-1.51,-3.01,-3.01,-3.00
169.87,-1.20,1.85,-1.19,1.86,-1.86,-1.36,-1.44,-3.05,-3.05,-3.05
171.57,-1.31,1.79,-1.29,1.80,-1.80,-1.32,-1.37,-3.11,-3.09,-3.09
173.29,-1.41,1.73,-1.39,1.75,-1.75,-1.29,-1.30,-3.16,-3.14,-3.13
175.02,-1.50,1.68,-1.48,1.70,-1.70,-1.25,-1.24,-3.20,-3.18,-3.17
176.77,-1.59,1.64,-1.58,1.65,-1.65,-1.21,-1.17,-3.24,-3.23,-3.23
178.54,-1.69,1.59,-1.67,1.60,-1.60,-1.17,-1.11,-3.28,-3.27,-3.27
180.32,-1.76,1.56,-1.76,1.55,-1.55,-1.12,-1.04,-3.31,-3.31,-3.31
182.13,-1.86,1.49,-1.85,1.50,-1.50,-1.08,-0.98,-3.36,-3.35,-3.35
183.95,-1.92,1.48,-1.94,1.45,-1.45,-1.04,-0.92,-3.37,-3.39,-3.40
185.79,-2.02,1.42,-2.03,1.41,-1.41,-1.00,-0.86,-3.42,-3.44,-3.43
187.65,-2.10,1.38,-2.12,1.36,-1.36,-0.95,-0.80,-3.46,-3.47,-3.48
189.52,-2.19,1.33,-2.20,1.31,-1.31,-0.91,-0.74,-3.50,-3.51,-3.51
191.42,-2.29,1.26,-2.28,1.27,-1.27,-0.86,-0.68,-3.55,-3.55,-3.55
193.33,-2.39,1.19,-2.36,1.22,-1.22,-0.82,-0.62,-3.60,-3.58,-3.58
195.27,-2.46,1.16,-2.45,1.17,-1.17,-0.77,-0.56,-3.63,-3.62,-3.61
197.22,-2.55,1.10,-2.53,1.12,-1.12,-0.73,-0.51,-3.67,-3.65,-3.64
199.19,-2.62,1.07,-2.61,1.07,-1.07,-0.68,-0.45,-3.69,-3.67,-3.69
201.18,-2.70,1.01,-2.69,1.02,-1.02,-0.63,-0.40,-3.71,-3.70,-3.71
203.19,-2.76,0.97,-2.76,0.97,-0.97,-0.58,-0.34,-3.72,-3.73,-3.73
205.23,-2.84,0.92,-2.84,0.91,-0.91,-0.53,-0.29,-3.75,-3.75,-3.75
207.28,-2.90,0.87,-2.91,0.86,-0.86,-0.48,-0.24,-3.76,-3.77,-3.76
209.35,-2.99,0.80,-2.99,0.80,-0.80,-0.43,-0.18,-3.79,-3.79,-3.79
211.44,-3.06,0.76,-3.06,0.75,-0.75,-0.38,-0.13,-3.80,-3.81,-3.82
213.56,-3.14,0.69,-3.13,0.69,-0.69,-0.33,-0.08,-3.83,-3.82,-3.82
215.69,-3.21,0.62,-3.21,0.63,-0.63,-0.28,-0.03,-3.84,-3.84,-3.83
217.85,-3.28,0.57,-3.28,0.57,-0.57,-0.23,0.02,-3.84,-3.85,-3.85
220.03,-3.36,0.51,-3.36,0.50,-0.50,-0.17,0.07,-3.86,-3.86,-3.86
222.23,-3.45,0.43,-3.43,0.43,-0.43,-0.12,0.12,-3.88,-3.86,-3.88
224.45,-3.51,0.36,-3.51,0.36,-0.36,-0.06,0.16,-3.87,-3.87,-3.87
226.70,-3.60,0.28,-3.59,0.28,-0.28,-0.01,0.21,-3.88,-3.87,-3.87
228.96,-3.67,0.21,-3.67,0.21,-0.21,0.05,0.26,-3.88,-3.88,-3.88
231.25,-3.74,0.13,-3.75,0.13,-0.13,0.10,0.30,-3.87,-3.88,-3.87
233.57,-3.83,0.05,-3.83,0.05,-0.05,0.16,0.35,-3.87,-3.88,-3.87
235.90,-3.89,-0.01,-3.91,-0.04,0.04,0.22,0.39,-3.85,-3.87,-3.87
238.26,-3.99,-0.11,-3.99,-0.12,0.12,0.28,0.44,-3.87,-3.87,-3.87
240.64,-4.10,-0.23,-4.07,-0.21,0.21,0.34,0.48,-3.89,-3.86,-3.87
243.05,-4.16,-0.30,-4.15,-0.30,0.30,0.40,0.53,-3.86,-3.86,-3.86
245.48,-4.26,-0.41,-4.24,-0.39,0.39,0.46,0.57,-3.87,-3.85,-3.85
247.93,-4.32,-0.48,-4.32,-0.49,0.49,0.52,0.61,-3.83,-3.84,-3.84
250.41,-4.42,-0.58,-4.41,-0.58,0.58,0.58,0.65,-3.83,-3.83,-3.84
252.92,-4.49,-0.67,-4.50,-0.69,0.69,0.64,0.70,-3.80,-3.81,-3.81
255.45,-4.58,-0.78,-4.59,-0.79,0.79,0.70,0.74,-3.79,-3.80,-3.79
258.00,-4.65,-0.86,-4.68,-0.89,0.89,0.77,0.78,-3.75,-3.78,-3.78
260.58,-4.75,-0.98,-4.76,-0.99,0.99,0.83,0.82,-3.75,-3.77,-3.77
263.19,-4.83,-1.08,-4.85,-1.10,1.10,0.89,0.86,-3.73,-3.75,-3.75
265.82,-4.93,-1.19,-4.93,-1.19,1.19,0.96,0.90,-3.73,-3.73,-3.74
268.48,-5.04,-1.32,-5.01,-1.29,1.29,1.02,0.95,-3.74,-3.71,-3.71
271.16,-5.15,-1.46,-5.09,-1.39,1.39,1.09,0.99,-3.75,-3.70,-3.69
273.87,-5.21,-1.53,-5.17,-1.49,1.49,1.15,1.03,-3.71,-3.68,-3.68
276.61,-5.26,-1.60,-5.25,-1.59,1.59,1.22,1.07,-3.66,-3.66,-3.65
279.38,-5.33,-1.69,-5.33,-1.69,1.69,1.28,1.11,-3.63,-3.64,-3.64
282.17,-5.39,-1.76,-5.41,-1.79,1.79,1.35,1.16,-3.60,-3.62,-3.63
284.99,-5.46,-1.86,-5.49,-1.88,1.88,1.42,1.20,-3.57,-3.60,-3.60
287.84,-5.53,-1.94,-5.56,-1.97,1.97,1.48,1.24,-3.55,-3.58,-3.59
290.72,-5.62,-2.05,-5.63,-2.06,2.06,1.55,1.29,-3.55,-3.56,-3.56
293.63,-5.70,-2.15,-5.70,-2.15,2.15,1.62,1.33,-3.54,-3.54,-3.55
296.57,-5.77,-2.24,-5.76,-2.24,2.24,1.68,1.38,-3.53,-3.52,-3.52
299.53,-5.84,-2.33,-5.82,-2.32,2.32,1.75,1.43,-3.52,-3.50,-3.51
302.53,-5.91,-2.41,-5.88,-2.40,2.40,1.82,1.48,-3.50,-3.48,-3.49
305.55,-5.95,-2.49,-5.94,-2.48,2.48,1.88,1.53,-3.46,-3.46,-3.46
308.61,-6.00,-2.56,-6.00,-2.56,2.56,1.95,1.58,-3.44,-3.44,-3.44
311.69,-6.05,-2.63,-6.05,-2.63,2.63,2.02,1.63,-3.42,-3.41,-3.42
314.81,-6.10,-2.72,-6.09,-2.70,2.70,2.09,1.69,-3.40,-3.39,-3.38
317.96,-6.13,-2.76,-6.13,-2.76,2.76,2.15,1.74,-3.37,-3.37,-3.36
321.14,-6.18,-2.83,-6.16,-2.81,2.81,2.22,1.80,-3.36,-3.35,-3.35
324.35,-6.19,-2.86,-6.19,-2.86,2.86,2.29,1.86,-3.33,-3.33,-3.33
327.59,-6.23,-2.92,-6.21,-2.90,2.90,2.35,1.92,-3.32,-3.31,-3.30
330.87,-6.23,-2.94,-6.22,-2.94,2.94,2.42,1.98,-3.29,-3.29,-3.29
334.18,-6.23,-2.96,-6.24,-2.97,2.97,2.48,2.04,-3.26,-3.27,-3.27
337.52,-6.23,-2.97,-6.25,-3.00,3.00,2.55,2.11,-3.23,-3.25,-3.25
340.90,-6.27,-3.04,-6.25,-3.02,3.02,2.61,2.17,-3.24,-3.23,-3.23
344.30,-6.27,-3.06,-6.25,-3.04,3.04,2.68,2.24,-3.22,-3.21,-3.21
347.75,-6.27,-3.07,-6.26,-3.06,3.06,2.74,2.31,-3.20,-3.19,-3.19
351.23,-6.27,-3.09,-6.25,-3.08,3.08,2.80,2.39,-3.19,-3.17,-3.17
354.74,-6.23,-3.07,-6.25,-3.09,3.09,2.86,2.46,-3.13,-3.16,-3.16
358.28,-6.23,-3.09,-6.24,-3.10,3.10,2.92,2.54,-3.12,-3.14,-3.14
361.87,-6.23,-3.11,-6.24,-3.12,3.12,2.98,2.62,-3.11,-3.12,-3.12
365.49,-6.23,-3.12,-6.24,-3.13,3.13,3.04,2.70,-3.10,-3.11,-3.10
369.14,-6.23,-3.13,-6.23,-3.14,3.14,3.10,2.78,-3.09,-3.09,-3.10
372.83,-6.23,-3.15,-6.22,-3.15,3.15,3.15,2.87,-3.08,-3.08,-3.08
376.56,-6.23,-3.16,-6.22,-3.15,3.15,3.21,2.95,-3.07,-3.06,-3.07
380.33,-6.23,-3.18,-6.20,-3.15,3.15,3.26,3.04,-3.07,-3.05,-3.04
384.13,-6.20,-3.16,-6.19,-3.16,3.16,3.31,3.13,-3.04,-3.04,-3.03
387.97,-6.19,-3.16,-6.18,-3.16,3.16,3.36,3.22,-3.03,-3.02,-3.03
391.85,-6.19,-3.17,-6.18,-3.16,3.16,3.41,3.31,-3.02,-3.01,-3.02
395.77,-6.19,-3.19,-6.17,-3.17,3.17,3.46,3.41,-3.02,-3.00,-3.00
399.73,-6.19,-3.20,-6.16,-3.17,3.17,3.51,3.50,-3.02,-2.99,-2.99
403.72,-6.14,-3.15,-6.15,-3.17,3.17,3.55,3.59,-2.97,-2.98,-2.98
407.76,-6.14,-3.16,-6.14,-3.17,3.17,3.59,3.69,-2.96,-2.97,-2.97
411.84,-6.14,-3.18,-6.14,-3.18,3.18,3.63,3.78,-2.95,-2.96,-2.95
415.96,-6.14,-3.19,-6.14,-3.19,3.19,3.67,3.88,-2.94,-2.95,-2.95
420.12,-6.14,-3.20,-6.15,-3.21,3.21,3.71,3.97,-2.93,-2.94,-2.94
424.32,-6.15,-3.22,-6.16,-3.23,3.23,3.74,4.06,-2.91,-2.93,-2.93
428.56,-6.19,-3.27,-6.18,-3.27,3.27,3.77,4.16,-2.92,-2.92,-2.92
432.85,-6.21,-3.30,-6.21,-3.31,3.31,3.80,4.24,-2.90,-2.91,-2.91
437.18,-6.24,-3.33,-6.25,-3.36,3.36,3.83,4.33,-2.88,-2.90,-2.90
441.55,-6.29,-3.40,-6.31,-3.42,3.42,3.85,4.41,-2.86,-2.88,-2.88
445.96,-6.35,-3.47,-6.38,-3.50,3.50,3.87,4.49,-2.84,-2.87,-2.87
450.42,-6.41,-3.54,-6.46,-3.60,3.60,3.89,4.56,-2.81,-2.86,-2.86
454.93,-6.47,-3.62,-6.54,-3.69,3.69,3.91,4.63,-2.77,-2.85,-2.85
459.48,-6.55,-3.71,-6.63,-3.79,3.79,3.93,4.69,-2.75,-2.83,-2.84
464.07,-6.64,-3.82,-6.70,-3.89,3.89,3.94,4.75,-2.75,-2.82,-2.82
468.71,-6.74,-3.94,-6.77,-3.97,3.97,3.95,4.80,-2.77,-2.80,-2.80
473.40,-6.84,-4.05,-6.83,-4.04,4.04,3.96,4.84,-2.80,-2.79,-2.79
478.13,-6.94,-4.17,-6.87,-4.09,4.09,3.96,4.87,-2.84,-2.77,-2.77
482.91,-7.03,-4.27,-6.89,-4.13,4.13,3.96,4.89,-2.90,-2.76,-2.76
487.74,-7.09,-4.35,-6.89,-4.14,4.14,3.96,4.90,-2.94,-2.74,-2.74
492.62,-7.05,-4.32,-6.87,-4.14,4.14,3.96,4.91,-2.90,-2.73,-2.72
