frequency,raw,error,smoothed,error_smoothed,equalization,parametric_eq,fixed_band_eq,equalized_raw,equalized_smoothed,target
20.00,-11.85,-16.81,-11.83,-16.83,16.83,15.71,6.40,4.98,5.00,4.97
20.20,-11.71,-16.72,-11.71,-16.74,16.74,15.85,6.54,5.03,5.03,5.02
20.40,-11.56,-16.63,-11.58,-16.65,16.65,15.97,6.70,5.08,5.07,5.07
20.61,-11.43,-16.52,-11.46,-16.56,16.56,16.07,6.85,5.13,5.10,5.09
20.81,-11.28,-16.43,-11.33,-16.46,16.46,16.15,7.01,5.18,5.13,5.14
21.02,-11.15,-16.33,-11.21,-16.36,16.36,16.21,7.18,5.22,5.16,5.18
21.23,-11.08,-16.28,-11.08,-16.26,16.26,16.24,7.35,5.19,5.18,5.20
21.44,-10.99,-16.22,-10.96,-16.16,16.16,16.24,7.52,5.17,5.20,5.22
21.66,-10.92,-16.16,-10.84,-16.06,16.06,16.23,7.70,5.14,5.22,5.24
21.87,-10.83,-16.09,-10.71,-15.96,15.96,16.19,7.88,5.12,5.24,5.25
22.09,-10.71,-15.98,-10.59,-15.85,15.85,16.13,8.07,5.14,5.26,5.27
22.31,-10.53,-15.81,-10.47,-15.74,15.74,16.05,8.26,5.21,5.27,5.28
22.54,-10.35,-15.63,-10.35,-15.63,15.63,15.96,8.46,5.28,5.28,5.28
22.76,-10.15,-15.43,-10.23,-15.51,15.51,15.85,8.67,5.36,5.28,5.28
22.99,-9.98,-15.24,-10.11,-15.40,15.40,15.73,8.87,5.42,5.28,5.27
23.22,-9.90,-15.16,-9.99,-15.28,15.28,15.60,9.09,5.38,5.28,5.27
23.45,-9.81,-15.08,-9.87,-15.15,15.15,15.46,9.31,5.34,5.28,5.27
23.69,-9.75,-15.02,-9.75,-15.03,15.03,15.32,9.54,5.28,5.28,5.28
23.92,-9.66,-14.94,-9.63,-14.91,14.91,15.17,9.77,5.25,5.28,5.28
24.16,-9.56,-14.85,-9.51,-14.79,14.79,15.02,10.01,5.23,5.28,5.28
24.40,-9.44,-14.74,-9.39,-14.67,14.67,14.86,10.25,5.23,5.28,5.29
24.65,-9.32,-14.60,-9.27,-14.56,14.56,14.71,10.50,5.24,5.28,5.28
24.89,-9.19,-14.47,-9.16,-14.44,14.44,14.55,10.76,5.25,5.28,5.28
25.14,-9.07,-14.35,-9.05,-14.33,14.33,14.39,11.02,5.26,5.28,5.28
25.39,-8.94,-14.23,-8.95,-14.23,14.23,14.24,11.29,5.29,5.28,5.29
25.65,-8.83,-14.11,-8.84,-14.12,14.12,14.09,11.57,5.30,5.28,5.29
25.91,-8.71,-13.99,-8.73,-14.01,14.01,13.94,11.85,5.30,5.28,5.28
26.16,-8.57,-13.85,-8.62,-13.90,13.90,13.80,12.13,5.33,5.28,5.28
26.43,-8.46,-13.73,-8.50,-13.78,13.78,13.66,12.42,5.33,5.28,5.27
26.69,-8.33,-13.60,-8.39,-13.67,13.67,13.52,12.72,5.34,5.28,5.27
26.96,-8.21,-13.49,-8.27,-13.55,13.55,13.39,13.01,5.34,5.27,5.28
27.23,-8.14,-13.42,-8.15,-13.43,13.43,13.26,13.31,5.29,5.27,5.28
27.50,-8.08,-13.36,-8.03,-13.30,13.30,13.14,13.61,5.23,5.27,5.28
27.77,-8.02,-13.29,-7.91,-13.18,13.18,13.02,13.91,5.15,5.27,5.27
28.05,-7.93,-13.20,-7.78,-13.05,13.05,12.91,14.20,5.11,5.27,5.27
28.33,-7.74,-13.00,-7.66,-12.92,12.92,12.80,14.48,5.18,5.26,5.25
28.62,-7.56,-12.81,-7.53,-12.79,12.79,12.69,14.76,5.23,5.26,5.25
28.90,-7.36,-12.63,-7.41,-12.67,12.67,12.59,15.02,5.30,5.26,5.26
29.19,-7.22,-12.46,-7.29,-12.55,12.55,12.49,15.27,5.33,5.26,5.25
29.48,-7.08,-12.35,-7.16,-12.42,12.42,12.39,15.49,5.34,5.26,5.27
29.78,-6.95,-12.20,-7.04,-12.30,12.30,12.30,15.68,5.35,5.26,5.26
30.08,-6.83,-12.09,-6.92,-12.17,12.17,12.20,15.85,5.34,5.25,5.26
30.38,-6.76,-12.01,-6.79,-12.05,12.05,12.12,15.98,5.29,5.25,5.25
30.68,-6.68,-11.92,-6.67,-11.92,11.92,12.03,16.07,5.24,5.25,5.25
30.99,-6.60,-11.84,-6.54,-11.79,11.79,11.94,16.12,5.19,5.25,5.25
31.30,-6.50,-11.74,-6.42,-11.67,11.67,11.86,16.12,5.17,5.25,5.24
31.61,-6.39,-11.63,-6.32,-11.56,11.56,11.77,16.08,5.18,5.24,5.24
31.93,-6.29,-11.53,-6.23,-11.47,11.47,11.69,16.00,5.18,5.24,5.24
32.24,-6.14,-11.37,-6.14,-11.38,11.38,11.60,15.88,5.23,5.23,5.23
32.57,-6.01,-11.24,-6.04,-11.27,11.27,11.51,15.73,5.26,5.23,5.23
32.89,-5.87,-11.11,-5.92,-11.14,11.14,11.43,15.54,5.27,5.22,5.23
33.22,-5.74,-10.96,-5.79,-11.01,11.01,11.34,15.32,5.27,5.22,5.22
33.55,-5.61,-10.83,-5.66,-10.88,10.88,11.24,15.08,5.26,5.21,5.22
33.89,-5.50,-10.70,-5.53,-10.74,10.74,11.15,14.83,5.24,5.21,5.20
34.23,-5.43,-10.63,-5.40,-10.60,10.60,11.05,14.55,5.17,5.20,5.21
34.57,-5.40,-10.59,-5.26,-10.46,10.46,10.95,14.27,5.06,5.20,5.20
34.92,-5.36,-10.55,-5.12,-10.32,10.32,10.84,13.98,4.96,5.19,5.19
35.27,-5.12,-10.31,-5.00,-10.19,10.19,10.74,13.68,5.07,5.19,5.19
35.62,-4.82,-10.00,-4.89,-10.07,10.07,10.62,13.38,5.25,5.19,5.18
35.97,-4.52,-9.69,-4.78,-9.96,9.96,10.51,13.08,5.45,5.18,5.18
36.33,-4.50,-9.68,-4.68,-9.86,9.86,10.38,12.78,5.36,5.18,5.19
36.70,-4.49,-9.66,-4.57,-9.75,9.75,10.26,12.48,5.27,5.18,5.17
37.06,-4.46,-9.63,-4.46,-9.64,9.64,10.13,12.19,5.18,5.18,5.17
37.43,-4.33,-9.52,-4.35,-9.52,9.52,9.99,11.90,5.19,5.18,5.18
37.81,-4.21,-9.38,-4.22,-9.40,9.40,9.86,11.62,5.19,5.18,5.18
38.19,-4.14,-9.31,-4.10,-9.27,9.27,9.72,11.34,5.14,5.18,5.17
38.57,-4.12,-9.29,-3.98,-9.15,9.15,9.57,11.07,5.04,5.17,5.18
38.95,-4.09,-9.27,-3.87,-9.05,9.05,9.42,10.80,4.95,5.17,5.18
39.34,-3.92,-9.10,-3.78,-8.95,8.95,9.27,10.54,5.03,5.17,5.17
39.74,-3.73,-8.90,-3.69,-8.86,8.86,9.12,10.29,5.14,5.17,5.17
40.14,-3.53,-8.70,-3.59,-8.76,8.76,8.96,10.04,5.23,5.17,5.17
40.54,-3.34,-8.50,-3.47,-8.63,8.63,8.81,9.80,5.30,5.17,5.17
40.94,-3.15,-8.30,-3.34,-8.50,8.50,8.65,9.56,5.36,5.16,5.16
41.35,-3.09,-8.24,-3.21,-8.37,8.37,8.49,9.33,5.28,5.15,5.15
41.76,-3.04,-8.19,-3.08,-8.23,8.23,8.33,9.11,5.18,5.15,5.15
42.18,-3.00,-8.15,-2.95,-8.09,8.09,8.17,8.89,5.08,5.14,5.15
42.60,-2.94,-8.07,-2.84,-7.96,7.96,8.01,8.68,5.02,5.13,5.13
43.03,-2.89,-8.01,-2.74,-7.85,7.85,7.85,8.47,4.96,5.11,5.12
43.46,-2.72,-7.83,-2.64,-7.74,7.74,7.69,8.27,5.02,5.10,5.11
43.90,-2.55,-7.63,-2.54,-7.63,7.63,7.53,8.07,5.08,5.09,5.08
44.33,-2.38,-7.45,-2.45,-7.52,7.52,7.37,7.88,5.14,5.07,5.07
44.78,-2.22,-7.26,-2.35,-7.40,7.40,7.21,7.69,5.19,5.06,5.05
45.23,-2.12,-7.15,-2.25,-7.29,7.29,7.06,7.51,5.18,5.04,5.04
45.68,-2.09,-7.10,-2.16,-7.18,7.18,6.90,7.33,5.10,5.03,5.02
46.13,-2.07,-7.06,-2.04,-7.05,7.05,6.75,7.16,4.98,5.01,5.00
46.60,-2.08,-7.07,-1.90,-6.90,6.90,6.60,6.99,4.82,4.99,4.99
47.06,-2.05,-7.03,-1.79,-6.77,6.77,6.45,6.83,4.72,4.98,4.97
47.53,-1.75,-6.72,-1.70,-6.66,6.66,6.31,6.67,4.90,4.96,4.96
48.01,-1.47,-6.43,-1.61,-6.55,6.55,6.16,6.51,5.08,4.94,4.96
48.49,-1.41,-6.34,-1.52,-6.44,6.44,6.02,6.36,5.04,4.93,4.94
48.97,-1.34,-6.25,-1.42,-6.33,6.33,5.88,6.21,5.00,4.91,4.91
49.46,-1.32,-6.21,-1.32,-6.22,6.22,5.75,6.07,4.90,4.90,4.89
49.96,-1.30,-6.16,-1.22,-6.10,6.10,5.62,5.92,4.80,4.88,4.87
50.46,-1.08,-5.94,-1.11,-5.97,5.97,5.48,5.79,4.90,4.86,4.86
50.96,-0.83,-5.67,-1.01,-5.85,5.85,5.36,5.65,5.03,4.85,4.85
51.47,-0.96,-5.78,-0.91,-5.74,5.74,5.23,5.52,4.79,4.83,4.82
51.99,-1.11,-5.92,-0.82,-5.64,5.64,5.11,5.39,4.52,4.82,4.81
52.51,-0.84,-5.64,-0.74,-5.54,5.54,4.99,5.26,4.71,4.80,4.80
53.03,-0.56,-5.35,-0.68,-5.46,5.46,4.87,5.14,4.91,4.79,4.79
53.56,-0.49,-5.26,-0.61,-5.38,5.38,4.75,5.02,4.89,4.77,4.78
54.10,-0.42,-5.17,-0.52,-5.28,5.28,4.64,4.90,4.86,4.76,4.76
54.64,-0.37,-5.10,-0.43,-5.18,5.18,4.53,4.79,4.81,4.74,4.74
55.18,-0.35,-5.07,-0.35,-5.08,5.08,4.42,4.68,4.73,4.73,4.73
55.74,-0.36,-5.06,-0.26,-4.98,4.98,4.32,4.57,4.62,4.71,4.71
56.29,-0.28,-4.98,-0.18,-4.88,4.88,4.21,4.46,4.60,4.70,4.70
56.86,-0.14,-4.81,-0.09,-4.77,4.77,4.11,4.35,4.64,4.68,4.68
57.42,-0.02,-4.67,0.01,-4.65,4.65,4.01,4.25,4.62,4.66,4.64
58.00,0.07,-4.56,0.10,-4.53,4.53,3.92,4.15,4.61,4.63,4.63
58.58,0.18,-4.43,0.17,-4.43,4.43,3.82,4.05,4.62,4.61,4.62
59.16,0.29,-4.31,0.25,-4.32,4.32,3.73,3.95,4.61,4.58,4.59
59.76,0.36,-4.20,0.35,-4.20,4.20,3.64,3.86,4.56,4.55,4.57
60.35,0.46,-4.07,0.44,-4.07,4.07,3.55,3.76,4.53,4.51,4.52
60.96,0.55,-3.93,0.54,-3.94,3.94,3.47,3.67,4.49,4.47,4.49
61.57,0.65,-3.78,0.62,-3.81,3.81,3.38,3.58,4.46,4.43,4.44
62.18,0.73,-3.65,0.71,-3.68,3.68,3.30,3.50,4.42,4.39,4.39
62.80,0.80,-3.54,0.79,-3.55,3.55,3.22,3.41,4.35,4.35,4.34
63.43,0.85,-3.44,0.87,-3.43,3.43,3.14,3.32,4.28,4.30,4.29
64.07,0.92,-3.31,0.95,-3.30,3.30,3.07,3.24,4.23,4.25,4.24
64.71,0.98,-3.20,1.01,-3.18,3.18,2.99,3.16,4.17,4.20,4.19
65.35,1.06,-3.09,1.07,-3.07,3.07,2.92,3.08,4.13,4.15,4.14
66.01,1.11,-2.98,1.13,-2.97,2.97,2.85,3.00,4.08,4.09,4.09
66.67,1.18,-2.85,1.17,-2.87,2.87,2.78,2.92,4.05,4.04,4.04
67.33,1.21,-2.77,1.21,-2.77,2.77,2.71,2.85,3.99,3.99,3.98
68.01,1.21,-2.72,1.25,-2.68,2.68,2.64,2.77,3.90,3.93,3.93
68.69,1.43,-2.44,1.28,-2.59,2.59,2.58,2.70,4.03,3.87,3.88
69.37,1.45,-2.37,1.32,-2.50,2.50,2.51,2.63,3.96,3.82,3.82
70.07,1.31,-2.44,1.35,-2.41,2.41,2.45,2.56,3.73,3.76,3.76
70.77,1.31,-2.39,1.38,-2.32,2.32,2.39,2.49,3.63,3.70,3.71
71.48,1.31,-2.33,1.41,-2.22,2.22,2.33,2.42,3.54,3.64,3.65
72.19,1.33,-2.24,1.44,-2.13,2.13,2.27,2.35,3.46,3.57,3.58
72.91,1.40,-2.11,1.46,-2.05,2.05,2.21,2.28,3.46,3.51,3.51
73.64,1.41,-2.03,1.46,-1.99,1.99,2.15,2.21,3.40,3.45,3.45
74.38,1.45,-1.93,1.46,-1.93,1.93,2.10,2.15,3.38,3.39,3.38
75.12,1.51,-1.80,1.45,-1.87,1.87,2.04,2.08,3.39,3.32,3.32
75.87,1.51,-1.74,1.45,-1.81,1.81,1.99,2.02,3.33,3.26,3.25
76.63,1.51,-1.68,1.43,-1.77,1.77,1.94,1.96,3.28,3.20,3.19
77.40,1.51,-1.62,1.42,-1.72,1.72,1.88,1.89,3.23,3.14,3.13
78.17,1.48,-1.58,1.40,-1.68,1.68,1.83,1.83,3.16,3.08,3.06
78.95,1.34,-1.68,1.35,-1.67,1.67,1.78,1.77,3.01,3.02,3.02
79.74,1.21,-1.75,1.29,-1.67,1.67,1.73,1.71,2.89,2.96,2.96
80.54,1.07,-1.83,1.23,-1.67,1.67,1.69,1.65,2.74,2.90,2.91
81.35,1.06,-1.78,1.16,-1.68,1.68,1.64,1.59,2.75,2.85,2.84
82.16,1.17,-1.61,1.10,-1.69,1.69,1.59,1.53,2.87,2.79,2.79
82.98,1.12,-1.62,1.02,-1.71,1.71,1.54,1.47,2.84,2.74,2.74
83.81,0.97,-1.70,0.93,-1.75,1.75,1.50,1.42,2.72,2.68,2.68
84.65,0.80,-1.81,0.84,-1.78,1.78,1.45,1.36,2.58,2.62,2.62
85.50,0.68,-1.90,0.75,-1.81,1.81,1.41,1.30,2.49,2.56,2.57
86.35,0.56,-1.95,0.65,-1.86,1.86,1.36,1.24,2.42,2.51,2.51
87.22,0.50,-1.96,0.54,-1.91,1.91,1.32,1.19,2.40,2.45,2.45
88.09,0.57,-1.82,0.42,-1.97,1.97,1.28,1.13,2.54,2.39,2.39
88.97,0.52,-1.81,0.30,-2.03,2.03,1.23,1.08,2.55,2.33,2.33
89.86,0.19,-2.08,0.17,-2.10,2.10,1.19,1.02,2.28,2.27,2.27
90.76,0.16,-2.04,0.04,-2.17,2.17,1.15,0.96,2.33,2.21,2.21
91.66,-0.08,-2.23,-0.09,-2.24,2.24,1.10,0.91,2.16,2.15,2.15
92.58,-0.26,-2.34,-0.20,-2.29,2.29,1.06,0.85,2.03,2.09,2.08
93.51,-0.32,-2.34,-0.30,-2.33,2.33,1.02,0.80,2.01,2.03,2.03
94.44,-0.43,-2.40,-0.38,-2.35,2.35,0.97,0.75,1.93,1.97,1.97
95.39,-0.59,-2.51,-0.45,-2.36,2.36,0.93,0.69,1.77,1.91,1.92
96.34,-0.66,-2.51,-0.50,-2.36,2.36,0.89,0.64,1.70,1.85,1.85
97.30,-0.59,-2.39,-0.54,-2.33,2.33,0.84,0.58,1.74,1.80,1.79
98.28,-0.47,-2.20,-0.55,-2.28,2.28,0.80,0.53,1.82,1.74,1.74
99.26,-0.54,-2.22,-0.50,-2.18,2.18,0.75,0.48,1.65,1.68,1.68
100.25,-0.48,-2.10,-0.43,-2.05,2.05,0.70,0.43,1.57,1.62,1.62
101.25,-0.37,-1.94,-0.34,-1.90,1.90,0.65,0.37,1.53,1.56,1.57
102.27,-0.29,-1.79,-0.20,-1.71,1.71,0.61,0.32,1.42,1.51,1.51
103.29,-0.12,-1.56,-0.05,-1.50,1.50,0.55,0.27,1.38,1.45,1.44
104.32,0.07,-1.33,0.11,-1.28,1.28,0.50,0.22,1.34,1.39,1.39
105.37,0.25,-1.08,0.28,-1.05,1.05,0.45,0.17,1.30,1.33,1.34
106.42,0.43,-0.84,0.45,-0.81,0.81,0.39,0.12,1.25,1.27,1.28
107.48,0.61,-0.60,0.62,-0.59,0.59,0.33,0.08,1.20,1.20,1.21
108.56,0.86,-0.28,0.76,-0.39,0.39,0.27,0.03,1.25,1.14,1.14
109.64,1.08,0.00,0.91,-0.17,0.17,0.21,-0.02,1.26,1.08,1.08
110.74,1.12,0.11,1.06,0.04,-0.04,0.14,-0.06,1.08,1.02,1.02
111.85,1.29,0.32,1.19,0.23,-0.23,0.07,-0.11,1.06,0.96,0.97
112.97,1.52,0.63,1.32,0.42,-0.42,-0.01,-0.15,1.11,0.90,0.89
114.10,1.41,0.57,1.42,0.58,-0.58,-0.09,-0.19,0.82,0.84,0.84
115.24,1.36,0.58,1.51,0.73,-0.73,-0.17,-0.23,0.64,0.78,0.78
116.39,1.47,0.76,1.59,0.87,-0.87,-0.26,-0.26,0.61,0.73,0.71
117.55,1.62,0.96,1.66,0.98,-0.98,-0.35,-0.30,0.64,0.68,0.67
118.73,1.52,0.91,1.70,1.07,-1.07,-0.45,-0.33,0.45,0.63,0.61
119.92,1.65,1.07,1.72,1.14,-1.14,-0.55,-0.36,0.52,0.58,0.58
121.12,1.93,1.41,1.72,1.19,-1.19,-0.66,-0.39,0.74,0.53,0.53
122.33,1.79,1.30,1.73,1.24,-1.24,-0.77,-0.42,0.54,0.49,0.48
123.55,1.77,1.33,1.74,1.29,-1.29,-0.87,-0.44,0.48,0.44,0.45
124.79,1.83,1.43,1.73,1.32,-1.32,-0.98,-0.47,0.51,0.40,0.41
126.03,1.70,1.34,1.70,1.34,-1.34,-1.08,-0.49,0.37,0.36,0.37
127.29,1.74,1.41,1.67,1.35,-1.35,-1.17,-0.51,0.40,0.32,0.34
128.57,1.64,1.36,1.63,1.34,-1.34,-1.25,-0.52,0.30,0.29,0.29
129.85,1.45,1.21,1.56,1.31,-1.31,-1.31,-0.54,0.15,0.25,0.25
131.15,1.35,1.15,1.48,1.27,-1.27,-1.36,-0.55,0.08,0.21,0.21
132.46,1.39,1.22,1.42,1.24,-1.24,-1.38,-0.56,0.15,0.17,0.17
133.79,1.45,1.32,1.34,1.20,-1.20,-1.38,-0.57,0.25,0.13,0.13
135.12,1.34,1.26,1.25,1.15,-1.15,-1.36,-0.57,0.20,0.10,0.09
136.48,1.19,1.12,1.18,1.12,-1.12,-1.33,-0.58,0.07,0.06,0.06
137.84,0.99,0.98,1.11,1.08,-1.08,-1.28,-0.58,-0.09,0.03,0.02
139.22,0.91,0.94,1.04,1.05,-1.05,-1.22,-0.59,-0.14,-0.01,-0.02
140.61,0.88,0.95,0.99,1.04,-1.04,-1.16,-0.59,-0.16,-0.05,-0.07
142.02,0.94,1.03,0.94,1.03,-1.03,-1.09,-0.59,-0.09,-0.09,-0.09
143.44,0.81,0.94,0.90,1.03,-1.03,-1.02,-0.59,-0.22,-0.13,-0.13
144.87,0.90,1.08,0.86,1.04,-1.04,-0.95,-0.59,-0.13,-0.18,-0.18
146.32,0.83,1.06,0.79,1.02,-1.02,-0.88,-0.58,-0.19,-0.23,-0.23
147.78,0.62,0.89,0.70,0.99,-0.99,-0.82,-0.58,-0.37,-0.29,-0.26
149.26,0.56,0.88,0.61,0.96,-0.96,-0.76,-0.58,-0.39,-0.35,-0.32
150.75,0.64,1.04,0.51,0.92,-0.92,-0.71,-0.57,-0.28,-0.42,-0.39
152.26,0.49,0.96,0.38,0.86,-0.86,-0.66,-0.57,-0.37,-0.49,-0.47
153.78,0.43,0.98,0.23,0.79,-0.79,-0.61,-0.57,-0.35,-0.56,-0.54
155.32,0.33,0.96,0.05,0.69,-0.69,-0.58,-0.56,-0.36,-0.64,-0.62
156.88,0.01,0.71,-0.12,0.60,-0.60,-0.54,-0.56,-0.59,-0.72,-0.71
158.44,-0.21,0.59,-0.29,0.50,-0.50,-0.51,-0.56,-0.71,-0.79,-0.80
160.03,-0.45,0.44,-0.45,0.42,-0.42,-0.48,-0.55,-0.87,-0.87,-0.89
161.63,-0.77,0.20,-0.60,0.34,-0.34,-0.46,-0.55,-1.10,-0.94,-0.96
163.24,-0.93,0.11,-0.74,0.27,-0.27,-0.44,-0.55,-1.20,-1.01,-1.03
164.88,-1.04,0.05,-0.85,0.22,-0.22,-0.43,-0.55,-1.26,-1.07,-1.09
166.53,-1.19,-0.04,-0.94,0.18,-0.18,-0.41,-0.54,-1.37,-1.13,-1.14
168.19,-1.28,-0.09,-1.01,0.16,-0.16,-0.40,-0.54,-1.43,-1.17,-1.19
169.87,-1.13,0.11,-1.05,0.16,-0.16,-0.39,-0.54,-1.29,-1.21,-1.23
171.57,-1.04,0.22,-1.05,0.20,-0.20,-0.38,-0.54,-1.23,-1.24,-1.26
173.29,-0.85,0.43,-1.00,0.26,-0.26,-0.38,-0.54,-1.11,-1.27,-1.28
175.02,-0.86,0.43,-0.92,0.37,-0.37,-0.37,-0.54,-1.22,-1.29,-1.29
176.77,-0.86,0.45,-0.83,0.47,-0.47,-0.37,-0.54,-1.33,-1.30,-1.31
178.54,-0.80,0.52,-0.74,0.58,-0.58,-0.37,-0.55,-1.38,-1.32,-1.32
180.32,-0.64,0.67,-0.64,0.69,-0.69,-0.36,-0.55,-1.33,-1.33,-1.32
182.13,-0.49,0.83,-0.54,0.80,-0.80,-0.37,-0.55,-1.28,-1.34,-1.32
183.95,-0.40,0.94,-0.45,0.90,-0.90,-0.37,-0.55,-1.29,-1.35,-1.33
185.79,-0.39,0.95,-0.38,0.99,-0.99,-0.37,-0.56,-1.37,-1.36,-1.34
187.65,-0.26,1.11,-0.32,1.05,-1.05,-0.37,-0.56,-1.31,-1.37,-1.36
189.52,-0.15,1.23,-0.30,1.09,-1.09,-0.37,-0.57,-1.24,-1.39,-1.38
191.42,-0.13,1.28,-0.28,1.13,-1.13,-0.38,-0.58,-1.25,-1.41,-1.40
193.33,-0.22,1.21,-0.29,1.14,-1.14,-0.38,-0.58,-1.35,-1.43,-1.43
195.27,-0.41,1.03,-0.30,1.14,-1.14,-0.39,-0.59,-1.56,-1.45,-1.45
197.22,-0.42,1.05,-0.33,1.14,-1.14,-0.40,-0.60,-1.55,-1.47,-1.47
199.19,-0.29,1.22,-0.37,1.13,-1.13,-0.40,-0.60,-1.41,-1.49,-1.50
201.18,-0.32,1.21,-0.41,1.10,-1.10,-0.41,-0.61,-1.42,-1.52,-1.52
203.19,-0.46,1.08,-0.47,1.07,-1.07,-0.42,-0.62,-1.52,-1.54,-1.54
205.23,-0.59,0.98,-0.53,1.03,-1.03,-0.42,-0.63,-1.62,-1.57,-1.57
207.28,-0.70,0.88,-0.59,1.00,-1.00,-0.43,-0.64,-1.70,-1.59,-1.58
209.35,-0.73,0.88,-0.65,0.97,-0.97,-0.44,-0.65,-1.69,-1.61,-1.61
211.44,-0.77,0.88,-0.70,0.93,-0.93,-0.45,-0.66,-1.70,-1.63,-1.64
213.56,-0.87,0.78,-0.75,0.90,-0.90,-0.45,-0.67,-1.77,-1.65,-1.65
215.69,-0.76,0.91,-0.78,0.89,-0.89,-0.46,-0.68,-1.64,-1.67,-1.67
217.85,-0.69,1.00,-0.81,0.87,-0.87,-0.47,-0.69,-1.56,-1.68,-1.68
220.03,-0.75,0.95,-0.85,0.85,-0.85,-0.48,-0.70,-1.59,-1.69,-1.70
222.23,-0.90,0.83,-0.88,0.82,-0.82,-0.49,-0.70,-1.72,-1.70,-1.72
224.45,-0.99,0.73,-0.90,0.81,-0.81,-0.50,-0.71,-1.79,-1.71,-1.71
226.70,-0.89,0.83,-0.90,0.81,-0.81,-0.51,-0.72,-1.69,-1.71,-1.72
228.96,-0.87,0.85,-0.91,0.80,-0.80,-0.52,-0.73,-1.66,-1.71,-1.71
231.25,-0.96,0.75,-0.92,0.78,-0.78,-0.53,-0.74,-1.74,-1.70,-1.70
233.57,-0.99,0.71,-0.93,0.77,-0.77,-0.54,-0.75,-1.75,-1.70,-1.70
235.90,-0.97,0.72,-0.93,0.75,-0.75,-0.55,-0.75,-1.72,-1.68,-1.69
238.26,-0.90,0.78,-0.93,0.74,-0.74,-0.56,-0.76,-1.63,-1.67,-1.68
240.64,-0.92,0.74,-0.93,0.72,-0.72,-0.57,-0.77,-1.63,-1.65,-1.66
243.05,-0.93,0.71,-0.92,0.71,-0.71,-0.58,-0.77,-1.64,-1.63,-1.63
245.48,-0.97,0.65,-0.91,0.70,-0.70,-0.59,-0.77,-1.67,-1.61,-1.61
247.93,-0.87,0.72,-0.89,0.70,-0.70,-0.60,-0.78,-1.56,-1.59,-1.58
250.41,-0.89,0.68,-0.89,0.69,-0.69,-0.61,-0.78,-1.57,-1.57,-1.57
252.92,-0.93,0.61,-0.88,0.67,-0.67,-0.62,-0.78,-1.59,-1.55,-1.54
255.45,-0.85,0.67,-0.87,0.65,-0.65,-0.63,-0.78,-1.50,-1.53,-1.52
258.00,-0.82,0.68,-0.86,0.64,-0.64,-0.64,-0.78,-1.46,-1.50,-1.50
260.58,-0.81,0.68,-0.85,0.63,-0.63,-0.65,-0.78,-1.43,-1.48,-1.48
263.19,-0.81,0.65,-0.85,0.61,-0.61,-0.66,-0.78,-1.42,-1.46,-1.45
265.82,-0.81,0.63,-0.84,0.60,-0.60,-0.66,-0.78,-1.40,-1.43,-1.44
268.48,-0.89,0.53,-0.83,0.58,-0.58,-0.67,-0.78,-1.47,-1.41,-1.42
271.16,-0.92,0.47,-0.83,0.56,-0.56,-0.68,-0.78,-1.48,-1.39,-1.38
273.87,-0.87,0.51,-0.83,0.54,-0.54,-0.69,-0.77,-1.40,-1.36,-1.37
276.61,-0.82,0.52,-0.83,0.51,-0.51,-0.70,-0.77,-1.32,-1.34,-1.34
279.38,-0.82,0.50,-0.83,0.48,-0.48,-0.71,-0.77,-1.30,-1.31,-1.31
282.17,-0.82,0.47,-0.83,0.45,-0.45,-0.72,-0.76,-1.27,-1.29,-1.29
284.99,-0.82,0.44,-0.84,0.42,-0.42,-0.73,-0.76,-1.24,-1.26,-1.26
287.84,-0.81,0.44,-0.84,0.39,-0.39,-0.74,-0.75,-1.20,-1.23,-1.24
290.72,-0.80,0.41,-0.84,0.36,-0.36,-0.75,-0.75,-1.16,-1.20,-1.21
293.63,-0.84,0.35,-0.84,0.33,-0.33,-0.75,-0.74,-1.17,-1.18,-1.18
296.57,-0.90,0.25,-0.84,0.31,-0.31,-0.76,-0.74,-1.20,-1.15,-1.15
299.53,-0.88,0.25,-0.84,0.29,-0.29,-0.77,-0.74,-1.16,-1.12,-1.12
302.53,-0.85,0.26,-0.84,0.26,-0.26,-0.78,-0.73,-1.11,-1.10,-1.11
305.55,-0.84,0.23,-0.84,0.23,-0.23,-0.79,-0.73,-1.07,-1.07,-1.06
308.61,-0.83,0.22,-0.84,0.21,-0.21,-0.79,-0.72,-1.03,-1.05,-1.05
311.69,-0.82,0.20,-0.85,0.18,-0.18,-0.80,-0.72,-0.99,-1.03,-1.02
314.81,-0.82,0.18,-0.86,0.15,-0.15,-0.81,-0.72,-0.96,-1.00,-0.99
317.96,-0.83,0.15,-0.86,0.13,-0.13,-0.81,-0.71,-0.95,-0.99,-0.98
321.14,-0.85,0.13,-0.85,0.12,-0.12,-0.82,-0.71,-0.96,-0.97,-0.97
324.35,-0.80,0.16,-0.82,0.13,-0.13,-0.83,-0.71,-0.93,-0.95,-0.95
327.59,-0.73,0.21,-0.77,0.17,-0.17,-0.83,-0.71,-0.89,-0.94,-0.94
330.87,-0.72,0.22,-0.71,0.22,-0.22,-0.84,-0.71,-0.93,-0.92,-0.93
334.18,-0.72,0.20,-0.64,0.28,-0.28,-0.85,-0.71,-0.99,-0.91,-0.91
337.52,-0.72,0.19,-0.56,0.34,-0.34,-0.85,-0.71,-1.06,-0.90,-0.91
340.90,-0.63,0.27,-0.47,0.43,-0.43,-0.86,-0.71,-1.05,-0.90,-0.89
344.30,-0.54,0.35,-0.37,0.53,-0.53,-0.86,-0.71,-1.06,-0.89,-0.88
347.75,-0.38,0.51,-0.25,0.63,-0.63,-0.87,-0.71,-1.01,-0.89,-0.89
351.23,-0.08,0.80,-0.13,0.75,-0.75,-0.87,-0.71,-0.82,-0.88,-0.88
354.74,0.14,1.03,-0.01,0.87,-0.87,-0.87,-0.72,-0.72,-0.88,-0.88
358.28,0.25,1.13,0.11,0.98,-0.98,-0.88,-0.72,-0.73,-0.88,-0.87
361.87,0.34,1.22,0.22,1.09,-1.09,-0.88,-0.73,-0.75,-0.87,-0.88
365.49,0.35,1.22,0.32,1.20,-1.20,-0.88,-0.73,-0.84,-0.87,-0.87
369.14,0.37,1.26,0.42,1.29,-1.29,-0.89,-0.74,-0.92,-0.87,-0.88
372.83,0.47,1.36,0.49,1.37,-1.37,-0.89,-0.74,-0.89,-0.88,-0.88
376.56,0.57,1.46,0.54,1.42,-1.42,-0.89,-0.75,-0.84,-0.88,-0.88
380.33,0.62,1.50,0.56,1.45,-1.45,-0.89,-0.76,-0.82,-0.88,-0.88
384.13,0.61,1.49,0.57,1.46,-1.46,-0.89,-0.76,-0.84,-0.89,-0.88
387.97,0.57,1.46,0.55,1.44,-1.44,-0.90,-0.77,-0.86,-0.89,-0.89
391.85,0.54,1.45,0.50,1.40,-1.40,-0.90,-0.78,-0.86,-0.90,-0.90
395.77,0.50,1.40,0.46,1.36,-1.36,-0.90,-0.79,-0.86,-0.90,-0.89
399.73,0.44,1.35,0.42,1.33,-1.33,-0.90,-0.80,-0.88,-0.91,-0.90
403.72,0.36,1.27,0.37,1.29,-1.29,-0.90,-0.81,-0.92,-0.91,-0.91
407.76,0.27,1.19,0.32,1.24,-1.24,-0.90,-0.82,-0.97,-0.92,-0.92
411.84,0.20,1.12,0.27,1.19,-1.19,-0.90,-0.83,-0.99,-0.92,-0.92
415.96,0.19,1.12,0.22,1.14,-1.14,-0.90,-0.84,-0.95,-0.92,-0.92
420.12,0.16,1.09,0.18,1.10,-1.10,-0.89,-0.85,-0.93,-0.92,-0.92
424.32,0.06,0.99,0.14,1.06,-1.06,-0.89,-0.86,-0.99,-0.92,-0.92
428.56,0.05,0.97,0.12,1.03,-1.03,-0.89,-0.87,-0.97,-0.91,-0.91
432.85,0.06,0.97,0.10,1.00,-1.00,-0.89,-0.88,-0.93,-0.89,-0.91
437.18,0.12,1.02,0.10,0.97,-0.97,-0.89,-0.89,-0.85,-0.87,-0.90
441.55,0.14,1.00,0.11,0.95,-0.95,-0.88,-0.90,-0.81,-0.85,-0.86
445.96,0.10,0.93,0.13,0.94,-0.94,-0.88,-0.90,-0.84,-0.81,-0.83
450.42,0.12,0.92,0.16,0.94,-0.94,-0.88,-0.91,-0.81,-0.78,-0.80
454.93,0.19,0.95,0.19,0.93,-0.93,-0.87,-0.92,-0.73,-0.74,-0.75
459.48,0.26,0.97,0.22,0.92,-0.92,-0.87,-0.93,-0.65,-0.69,-0.70
464.07,0.24,0.90,0.26,0.91,-0.91,-0.87,-0.93,-0.66,-0.65,-0.65
468.71,0.26,0.86,0.30,0.90,-0.90,-0.86,-0.94,-0.64,-0.60,-0.59
