frequency,raw,error,smoothed,error_smoothed,equalization,parametric_eq,fixed_band_eq,equalized_raw,equalized_smoothed,target
20.00,-4.25,-7.57,-4.25,-7.60,7.60,7.41,2.22,3.34,3.34,3.32
20.20,-4.13,-7.54,-4.13,-7.55,7.55,7.40,2.29,3.41,3.42,3.41
20.40,-4.00,-7.49,-4.00,-7.50,7.50,7.38,2.36,3.49,3.49,3.49
20.61,-3.88,-7.44,-3.88,-7.44,7.44,7.36,2.42,3.56,3.56,3.55
20.81,-3.75,-7.40,-3.75,-7.39,7.39,7.33,2.50,3.63,3.63,3.65
21.02,-3.63,-7.36,-3.63,-7.33,7.33,7.30,2.57,3.70,3.70,3.72
21.23,-3.50,-7.29,-3.51,-7.27,7.27,7.27,2.65,3.76,3.76,3.78
21.44,-3.38,-7.22,-3.38,-7.20,7.20,7.23,2.72,3.82,3.82,3.84
21.66,-3.26,-7.16,-3.26,-7.14,7.14,7.19,2.80,3.87,3.88,3.89
21.87,-3.13,-7.07,-3.14,-7.07,7.07,7.15,2.89,3.94,3.93,3.94
22.09,-3.01,-7.00,-3.01,-7.00,7.00,7.10,2.97,3.99,3.99,3.99
22.31,-2.89,-6.93,-2.89,-6.93,6.93,7.05,3.06,4.04,4.04,4.04
22.54,-2.77,-6.85,-2.77,-6.85,6.85,6.99,3.15,4.08,4.08,4.08
22.76,-2.65,-6.77,-2.65,-6.77,6.77,6.93,3.24,4.12,4.12,4.12
22.99,-2.53,-6.68,-2.53,-6.69,6.69,6.87,3.33,4.15,4.16,4.15
23.22,-2.40,-6.59,-2.40,-6.60,6.60,6.81,3.43,4.20,4.20,4.19
23.45,-2.28,-6.51,-2.28,-6.52,6.52,6.75,3.53,4.24,4.24,4.23
23.69,-2.16,-6.43,-2.16,-6.43,6.43,6.68,3.63,4.27,4.27,4.27
23.92,-2.04,-6.35,-2.04,-6.35,6.35,6.61,3.73,4.31,4.31,4.31
24.16,-1.92,-6.28,-1.92,-6.26,6.26,6.54,3.84,4.34,4.34,4.36
24.40,-1.80,-6.18,-1.80,-6.18,6.18,6.47,3.94,4.38,4.38,4.38
24.65,-1.68,-6.10,-1.68,-6.09,6.09,6.39,4.05,4.41,4.41,4.41
24.89,-1.56,-6.00,-1.56,-6.01,6.01,6.32,4.16,4.45,4.45,4.44
25.14,-1.44,-5.92,-1.45,-5.92,5.92,6.24,4.27,4.48,4.48,4.48
25.39,-1.33,-5.84,-1.33,-5.84,5.84,6.16,4.38,4.51,4.51,4.51
25.65,-1.21,-5.76,-1.21,-5.76,5.76,6.08,4.49,4.54,4.54,4.55
25.91,-1.09,-5.66,-1.10,-5.67,5.67,6.00,4.60,4.58,4.57,4.57
26.16,-0.98,-5.58,-0.98,-5.59,5.59,5.92,4.71,4.61,4.61,4.60
26.43,-0.87,-5.51,-0.87,-5.51,5.51,5.84,4.82,4.63,4.63,4.63
26.69,-0.76,-5.43,-0.76,-5.42,5.42,5.76,4.93,4.66,4.66,4.66
26.96,-0.65,-5.35,-0.65,-5.34,5.34,5.68,5.04,4.69,4.69,4.69
27.23,-0.54,-5.27,-0.54,-5.26,5.26,5.60,5.14,4.72,4.72,4.73
27.50,-0.43,-5.19,-0.43,-5.18,5.18,5.51,5.24,4.75,4.75,4.76
27.77,-0.32,-5.10,-0.32,-5.10,5.10,5.43,5.34,4.78,4.78,4.78
28.05,-0.21,-5.03,-0.21,-5.03,5.03,5.35,5.44,4.82,4.81,4.82
28.33,-0.11,-4.95,-0.11,-4.95,4.95,5.27,5.53,4.84,4.84,4.84
28.62,-0.01,-4.88,-0.00,-4.88,4.88,5.19,5.61,4.86,4.87,4.86
28.90,0.10,-4.80,0.10,-4.81,4.81,5.10,5.69,4.90,4.90,4.90
29.19,0.20,-4.72,0.20,-4.73,4.73,5.02,5.76,4.93,4.93,4.92
29.48,0.30,-4.67,0.29,-4.67,4.67,4.94,5.82,4.96,4.96,4.97
29.78,0.40,-4.59,0.38,-4.60,4.60,4.86,5.87,5.00,4.98,4.99
30.08,0.49,-4.53,0.48,-4.54,4.54,4.78,5.92,5.02,5.01,5.01
30.38,0.57,-4.48,0.56,-4.48,4.48,4.70,5.95,5.04,5.04,5.04
30.68,0.65,-4.42,0.65,-4.42,4.42,4.62,5.98,5.07,5.07,5.07
30.99,0.74,-4.35,0.73,-4.36,4.36,4.55,5.99,5.10,5.09,5.09
31.30,0.81,-4.31,0.81,-4.31,4.31,4.47,6.00,5.11,5.12,5.11
31.61,0.89,-4.26,0.89,-4.25,4.25,4.39,5.99,5.14,5.14,5.14
31.93,0.96,-4.20,0.96,-4.20,4.20,4.32,5.98,5.16,5.16,5.16
32.24,1.03,-4.15,1.04,-4.15,4.15,4.24,5.96,5.18,5.19,5.18
32.57,1.11,-4.10,1.11,-4.10,4.10,4.17,5.92,5.20,5.21,5.20
32.89,1.18,-4.05,1.18,-4.05,4.05,4.10,5.88,5.22,5.23,5.23
33.22,1.25,-4.00,1.25,-4.00,4.00,4.02,5.83,5.24,5.24,5.25
33.55,1.32,-3.95,1.32,-3.94,3.94,3.95,5.77,5.26,5.26,5.27
33.89,1.39,-3.88,1.38,-3.89,3.89,3.88,5.70,5.28,5.28,5.27
34.23,1.45,-3.85,1.45,-3.84,3.84,3.81,5.63,5.29,5.29,5.30
34.57,1.52,-3.79,1.51,-3.79,3.79,3.74,5.55,5.31,5.30,5.31
34.92,1.58,-3.73,1.58,-3.74,3.74,3.67,5.46,5.31,5.31,5.31
35.27,1.64,-3.69,1.64,-3.69,3.69,3.61,5.37,5.32,5.32,5.33
35.62,1.70,-3.63,1.70,-3.63,3.63,3.54,5.28,5.33,5.33,5.32
35.97,1.76,-3.57,1.75,-3.58,3.58,3.47,5.18,5.34,5.34,5.33
36.33,1.81,-3.54,1.81,-3.53,3.53,3.41,5.08,5.34,5.34,5.35
36.70,1.87,-3.47,1.86,-3.47,3.47,3.35,4.98,5.34,5.34,5.34
37.06,1.92,-3.42,1.92,-3.42,3.42,3.28,4.87,5.34,5.34,5.34
37.43,1.97,-3.37,1.97,-3.37,3.37,3.22,4.77,5.34,5.34,5.34
37.81,2.02,-3.32,2.02,-3.31,3.31,3.16,4.66,5.33,5.34,5.34
38.19,2.07,-3.26,2.08,-3.26,3.26,3.10,4.56,5.33,5.33,5.33
38.57,2.12,-3.22,2.13,-3.20,3.20,3.04,4.45,5.32,5.33,5.34
38.95,2.17,-3.16,2.17,-3.15,3.15,2.98,4.35,5.32,5.33,5.33
39.34,2.23,-3.09,2.22,-3.10,3.10,2.93,4.25,5.33,5.32,5.32
39.74,2.28,-3.03,2.26,-3.05,3.05,2.87,4.14,5.33,5.32,5.31
40.14,2.32,-2.99,2.31,-3.00,3.00,2.81,4.04,5.32,5.31,5.30
40.54,2.36,-2.94,2.35,-2.95,2.95,2.76,3.95,5.31,5.30,5.30
40.94,2.40,-2.89,2.39,-2.90,2.90,2.71,3.85,5.30,5.29,5.29
41.35,2.44,-2.84,2.43,-2.85,2.85,2.65,3.75,5.29,5.28,5.28
41.76,2.47,-2.81,2.47,-2.80,2.80,2.60,3.66,5.27,5.27,5.28
42.18,2.51,-2.76,2.51,-2.75,2.75,2.55,3.57,5.26,5.26,5.27
42.60,2.54,-2.71,2.55,-2.70,2.70,2.50,3.48,5.24,5.25,5.25
43.03,2.58,-2.67,2.58,-2.65,2.65,2.45,3.40,5.23,5.24,5.25
43.46,2.62,-2.62,2.62,-2.61,2.61,2.40,3.31,5.22,5.23,5.23
43.90,2.66,-2.56,2.65,-2.56,2.56,2.35,3.23,5.22,5.21,5.22
44.33,2.69,-2.51,2.69,-2.51,2.51,2.30,3.15,5.20,5.20,5.20
44.78,2.72,-2.47,2.73,-2.47,2.47,2.26,3.08,5.18,5.19,5.19
45.23,2.76,-2.41,2.76,-2.42,2.42,2.21,3.00,5.18,5.18,5.17
45.68,2.80,-2.36,2.80,-2.37,2.37,2.17,2.93,5.17,5.17,5.16
46.13,2.84,-2.31,2.83,-2.32,2.32,2.12,2.86,5.16,5.15,5.15
46.60,2.87,-2.28,2.86,-2.28,2.28,2.08,2.80,5.15,5.14,5.15
47.06,2.89,-2.25,2.90,-2.23,2.23,2.03,2.73,5.12,5.13,5.13
47.53,2.93,-2.19,2.93,-2.19,2.19,1.99,2.67,5.12,5.12,5.12
48.01,2.96,-2.16,2.96,-2.15,2.15,1.95,2.61,5.11,5.11,5.12
48.49,2.99,-2.12,2.99,-2.11,2.11,1.91,2.55,5.10,5.10,5.11
48.97,3.02,-2.08,3.01,-2.08,2.08,1.87,2.50,5.10,5.09,5.10
49.46,3.04,-2.03,3.04,-2.04,2.04,1.83,2.44,5.08,5.09,5.07
49.96,3.07,-1.99,3.07,-2.01,2.01,1.79,2.39,5.08,5.08,5.06
50.46,3.09,-1.98,3.09,-1.98,1.98,1.75,2.34,5.07,5.07,5.06
50.96,3.12,-1.95,3.12,-1.95,1.95,1.71,2.29,5.07,5.07,5.07
51.47,3.14,-1.92,3.14,-1.92,1.92,1.68,2.25,5.06,5.06,5.05
51.99,3.16,-1.89,3.16,-1.89,1.89,1.64,2.20,5.05,5.05,5.05
52.51,3.18,-1.87,3.18,-1.87,1.87,1.60,2.16,5.04,5.04,5.05
53.03,3.20,-1.85,3.19,-1.84,1.84,1.57,2.11,5.04,5.04,5.04
53.56,3.22,-1.82,3.21,-1.82,1.82,1.53,2.07,5.03,5.03,5.04
54.10,3.23,-1.80,3.22,-1.79,1.79,1.50,2.03,5.02,5.02,5.03
54.64,3.24,-1.77,3.24,-1.77,1.77,1.46,1.99,5.01,5.01,5.01
55.18,3.25,-1.75,3.25,-1.75,1.75,1.43,1.95,4.99,5.00,5.00
55.74,3.26,-1.72,3.26,-1.72,1.72,1.39,1.91,4.98,4.98,4.98
56.29,3.27,-1.70,3.27,-1.70,1.70,1.36,1.87,4.97,4.97,4.97
56.86,3.28,-1.67,3.28,-1.67,1.67,1.33,1.84,4.95,4.95,4.95
57.42,3.28,-1.65,3.28,-1.65,1.65,1.30,1.80,4.93,4.93,4.92
58.00,3.29,-1.62,3.29,-1.62,1.62,1.27,1.76,4.91,4.91,4.91
58.58,3.30,-1.59,3.29,-1.60,1.60,1.23,1.72,4.90,4.89,4.89
59.16,3.30,-1.58,3.29,-1.57,1.57,1.20,1.69,4.87,4.86,4.87
59.76,3.30,-1.55,3.29,-1.54,1.54,1.17,1.65,4.84,4.83,4.85
60.35,3.30,-1.51,3.29,-1.52,1.52,1.14,1.61,4.81,4.81,4.81
60.96,3.29,-1.51,3.29,-1.49,1.49,1.11,1.57,4.78,4.78,4.80
61.57,3.28,-1.47,3.29,-1.46,1.46,1.08,1.53,4.74,4.75,4.75
62.18,3.28,-1.43,3.29,-1.44,1.44,1.06,1.49,4.71,4.72,4.71
62.80,3.28,-1.41,3.28,-1.41,1.41,1.03,1.45,4.69,4.69,4.69
63.43,3.28,-1.37,3.28,-1.39,1.39,1.00,1.41,4.66,4.67,4.65
64.07,3.28,-1.35,3.28,-1.36,1.36,0.97,1.37,4.64,4.64,4.63
64.71,3.28,-1.33,3.28,-1.34,1.34,0.94,1.33,4.62,4.62,4.61
65.35,3.28,-1.31,3.28,-1.32,1.32,0.92,1.29,4.60,4.60,4.59
66.01,3.28,-1.29,3.28,-1.30,1.30,0.89,1.25,4.58,4.57,4.57
66.67,3.28,-1.28,3.28,-1.28,1.28,0.86,1.20,4.56,4.56,4.56
67.33,3.28,-1.26,3.28,-1.26,1.26,0.83,1.16,4.54,4.54,4.54
68.01,3.28,-1.25,3.28,-1.25,1.25,0.81,1.11,4.52,4.52,4.53
68.69,3.28,-1.23,3.28,-1.23,1.23,0.78,1.07,4.51,4.51,4.51
69.37,3.28,-1.22,3.28,-1.22,1.22,0.75,1.02,4.49,4.50,4.50
70.07,3.28,-1.20,3.28,-1.20,1.20,0.73,0.98,4.48,4.48,4.48
70.77,3.28,-1.20,3.28,-1.19,1.19,0.70,0.93,4.47,4.47,4.48
71.48,3.28,-1.18,3.27,-1.18,1.18,0.68,0.88,4.46,4.45,4.46
72.19,3.28,-1.16,3.27,-1.17,1.17,0.65,0.84,4.44,4.43,4.44
72.91,3.28,-1.15,3.26,-1.15,1.15,0.62,0.79,4.43,4.42,4.42
73.64,3.28,-1.12,3.26,-1.14,1.14,0.60,0.74,4.41,4.40,4.40
74.38,3.27,-1.12,3.26,-1.12,1.12,0.57,0.69,4.39,4.38,4.38
75.12,3.26,-1.10,3.26,-1.10,1.10,0.55,0.65,4.36,4.36,4.36
75.87,3.25,-1.09,3.26,-1.08,1.08,0.52,0.60,4.33,4.34,4.34
76.63,3.25,-1.07,3.26,-1.06,1.06,0.49,0.55,4.31,4.32,4.32
77.40,3.25,-1.05,3.26,-1.03,1.03,0.47,0.50,4.28,4.30,4.29
78.17,3.26,-1.01,3.27,-1.01,1.01,0.44,0.45,4.27,4.28,4.26
78.95,3.27,-0.99,3.28,-0.98,0.98,0.42,0.40,4.25,4.26,4.26
79.74,3.28,-0.96,3.29,-0.95,0.95,0.39,0.35,4.23,4.24,4.24
80.54,3.31,-0.91,3.31,-0.92,0.92,0.36,0.31,4.22,4.23,4.22
81.35,3.33,-0.88,3.33,-0.88,0.88,0.33,0.26,4.21,4.21,4.20
82.16,3.35,-0.84,3.35,-0.85,0.85,0.31,0.21,4.20,4.20,4.19
82.98,3.38,-0.81,3.37,-0.81,0.81,0.28,0.16,4.19,4.19,4.18
83.81,3.40,-0.77,3.40,-0.78,0.78,0.25,0.11,4.17,4.17,4.17
84.65,3.44,-0.71,3.42,-0.74,0.74,0.22,0.06,4.18,4.16,4.15
85.50,3.46,-0.69,3.45,-0.70,0.70,0.20,0.01,4.16,4.15,4.15
86.35,3.49,-0.66,3.48,-0.66,0.66,0.17,-0.04,4.15,4.14,4.14
87.22,3.51,-0.62,3.50,-0.62,0.62,0.14,-0.09,4.13,4.13,4.12
88.09,3.53,-0.58,3.53,-0.58,0.58,0.11,-0.14,4.11,4.11,4.11
88.97,3.55,-0.55,3.55,-0.54,0.54,0.08,-0.19,4.09,4.09,4.10
89.86,3.58,-0.50,3.57,-0.50,0.50,0.04,-0.24,4.08,4.07,4.08
90.76,3.60,-0.45,3.59,-0.45,0.45,0.01,-0.29,4.05,4.05,4.05
91.66,3.62,-0.41,3.62,-0.40,0.40,-0.02,-0.34,4.02,4.02,4.02
92.58,3.65,-0.33,3.64,-0.34,0.34,-0.05,-0.39,3.99,3.98,3.98
93.51,3.67,-0.29,3.66,-0.28,0.28,-0.09,-0.45,3.95,3.94,3.96
94.44,3.69,-0.22,3.69,-0.22,0.22,-0.12,-0.50,3.90,3.90,3.91
95.39,3.71,-0.16,3.71,-0.14,0.14,-0.16,-0.55,3.85,3.85,3.87
96.34,3.73,-0.08,3.74,-0.06,0.06,-0.20,-0.60,3.79,3.80,3.81
97.30,3.75,0.00,3.77,0.02,-0.02,-0.24,-0.65,3.73,3.74,3.74
98.28,3.78,0.09,3.80,0.11,-0.11,-0.28,-0.70,3.67,3.68,3.69
99.26,3.82,0.20,3.83,0.21,-0.21,-0.32,-0.75,3.61,3.62,3.62
100.25,3.86,0.30,3.86,0.31,-0.31,-0.36,-0.80,3.55,3.56,3.55
101.25,3.90,0.41,3.89,0.41,-0.41,-0.40,-0.86,3.49,3.49,3.49
102.27,3.95,0.53,3.93,0.51,-0.51,-0.45,-0.91,3.44,3.42,3.42
103.29,3.97,0.63,3.97,0.62,-0.62,-0.50,-0.96,3.35,3.35,3.34
104.32,4.00,0.71,4.00,0.72,-0.72,-0.55,-1.00,3.27,3.28,3.28
105.37,4.04,0.83,4.04,0.83,-0.83,-0.60,-1.05,3.21,3.21,3.21
106.42,4.08,0.94,4.08,0.94,-0.94,-0.65,-1.10,3.14,3.14,3.14
107.48,4.11,1.04,4.11,1.04,-1.04,-0.70,-1.15,3.07,3.07,3.07
108.56,4.14,1.14,4.14,1.14,-1.14,-0.76,-1.19,3.00,3.00,3.00
109.64,4.17,1.23,4.17,1.23,-1.23,-0.82,-1.24,2.94,2.94,2.93
110.74,4.19,1.31,4.19,1.32,-1.32,-0.88,-1.28,2.87,2.87,2.88
111.85,4.23,1.41,4.21,1.40,-1.40,-0.95,-1.32,2.83,2.81,2.82
112.97,4.25,1.50,4.22,1.47,-1.47,-1.01,-1.36,2.77,2.75,2.74
114.10,4.26,1.56,4.24,1.54,-1.54,-1.08,-1.40,2.71,2.69,2.70
115.24,4.27,1.64,4.25,1.61,-1.61,-1.15,-1.43,2.66,2.64,2.63
116.39,4.27,1.69,4.26,1.67,-1.67,-1.23,-1.46,2.60,2.59,2.57
117.55,4.26,1.73,4.26,1.73,-1.73,-1.30,-1.49,2.53,2.54,2.53
118.73,4.25,1.77,4.27,1.78,-1.78,-1.38,-1.52,2.47,2.49,2.47
119.92,4.25,1.81,4.27,1.83,-1.83,-1.46,-1.55,2.42,2.44,2.44
121.12,4.25,1.85,4.27,1.88,-1.88,-1.54,-1.57,2.37,2.40,2.40
122.33,4.25,1.89,4.27,1.92,-1.92,-1.62,-1.59,2.33,2.36,2.35
123.55,4.26,1.94,4.27,1.95,-1.95,-1.70,-1.60,2.30,2.31,2.32
124.79,4.27,1.99,4.26,1.99,-1.99,-1.78,-1.61,2.28,2.28,2.28
126.03,4.27,2.02,4.26,2.02,-2.02,-1.86,-1.62,2.25,2.24,2.25
127.29,4.27,2.06,4.25,2.05,-2.05,-1.95,-1.63,2.22,2.20,2.21
128.57,4.26,2.10,4.24,2.08,-2.08,-2.02,-1.63,2.18,2.16,2.16
129.85,4.24,2.11,4.23,2.10,-2.10,-2.10,-1.63,2.13,2.12,2.13
131.15,4.22,2.13,4.21,2.13,-2.13,-2.17,-1.63,2.09,2.09,2.09
132.46,4.20,2.16,4.20,2.15,-2.15,-2.24,-1.62,2.05,2.05,2.04
133.79,4.17,2.15,4.17,2.17,-2.17,-2.30,-1.61,2.00,2.01,2.01
135.12,4.14,2.17,4.15,2.18,-2.18,-2.35,-1.60,1.96,1.97,1.97
136.48,4.13,2.19,4.12,2.19,-2.19,-2.40,-1.59,1.94,1.93,1.93
137.84,4.09,2.20,4.09,2.20,-2.20,-2.43,-1.57,1.89,1.89,1.89
139.22,4.06,2.22,4.05,2.21,-2.21,-2.46,-1.56,1.85,1.85,1.84
140.61,4.02,2.22,4.02,2.22,-2.22,-2.48,-1.54,1.80,1.80,1.79
142.02,3.96,2.19,3.98,2.22,-2.22,-2.48,-1.52,1.73,1.76,1.76
143.44,3.93,2.20,3.95,2.23,-2.23,-2.48,-1.49,1.70,1.72,1.72
144.87,3.89,2.21,3.91,2.23,-2.23,-2.46,-1.47,1.66,1.67,1.67
146.32,3.85,2.22,3.86,2.23,-2.23,-2.44,-1.45,1.62,1.63,1.63
147.78,3.81,2.22,3.81,2.23,-2.23,-2.41,-1.42,1.58,1.58,1.59
149.26,3.77,2.23,3.76,2.22,-2.22,-2.36,-1.39,1.55,1.54,1.54
150.75,3.72,2.23,3.70,2.21,-2.21,-2.31,-1.37,1.51,1.49,1.49
152.26,3.67,2.23,3.64,2.20,-2.20,-2.25,-1.34,1.47,1.44,1.44
153.78,3.59,2.19,3.57,2.18,-2.18,-2.19,-1.31,1.41,1.39,1.40
155.32,3.52,2.17,3.50,2.15,-2.15,-2.12,-1.29,1.36,1.34,1.35
156.88,3.42,2.11,3.42,2.13,-2.13,-2.05,-1.26,1.29,1.29,1.30
158.44,3.33,2.08,3.34,2.09,-2.09,-1.97,-1.23,1.23,1.24,1.24
160.03,3.21,2.01,3.24,2.05,-2.05,-1.90,-1.21,1.16,1.19,1.19
161.63,3.13,1.99,3.15,2.00,-2.00,-1.82,-1.18,1.13,1.14,1.14
163.24,3.05,1.96,3.04,1.95,-1.95,-1.74,-1.15,1.10,1.09,1.09
164.88,2.94,1.90,2.93,1.89,-1.89,-1.65,-1.13,1.05,1.04,1.04
166.53,2.83,1.83,2.81,1.82,-1.82,-1.57,-1.10,1.01,1.00,1.00
168.19,2.72,1.77,2.69,1.74,-1.74,-1.49,-1.08,0.98,0.95,0.95
169.87,2.55,1.64,2.56,1.66,-1.66,-1.41,-1.05,0.89,0.91,0.91
171.57,2.43,1.56,2.43,1.57,-1.57,-1.33,-1.03,0.86,0.86,0.86
173.29,2.32,1.50,2.29,1.47,-1.47,-1.25,-1.01,0.85,0.82,0.82
175.02,2.13,1.35,2.15,1.37,-1.37,-1.17,-0.99,0.76,0.78,0.78
176.77,1.99,1.25,1.99,1.25,-1.25,-1.09,-0.97,0.74,0.74,0.74
178.54,1.85,1.15,1.84,1.13,-1.13,-1.01,-0.94,0.72,0.71,0.70
180.32,1.70,1.02,1.67,1.00,-1.00,-0.92,-0.93,0.70,0.68,0.67
182.13,1.54,0.89,1.51,0.86,-0.86,-0.84,-0.91,0.68,0.65,0.65
183.95,1.32,0.70,1.34,0.72,-0.72,-0.76,-0.89,0.60,0.62,0.62
185.79,1.15,0.56,1.17,0.57,-0.57,-0.67,-0.87,0.58,0.59,0.59
187.65,0.98,0.41,0.99,0.42,-0.42,-0.58,-0.85,0.56,0.57,0.57
189.52,0.81,0.26,0.81,0.26,-0.26,-0.48,-0.84,0.55,0.55,0.55
191.42,0.64,0.11,0.63,0.10,-0.10,-0.39,-0.82,0.54,0.53,0.53
193.33,0.45,-0.07,0.45,-0.06,0.06,-0.28,-0.81,0.51,0.51,0.52
195.27,0.27,-0.23,0.26,-0.23,0.23,-0.17,-0.80,0.50,0.49,0.50
197.22,0.09,-0.39,0.08,-0.40,0.40,-0.05,-0.78,0.49,0.48,0.48
199.19,-0.09,-0.54,-0.11,-0.57,0.57,0.09,-0.77,0.48,0.46,0.45
201.18,-0.27,-0.71,-0.30,-0.74,0.74,0.23,-0.76,0.47,0.44,0.44
203.19,-0.47,-0.90,-0.48,-0.91,0.91,0.39,-0.75,0.43,0.43,0.43
205.23,-0.66,-1.07,-0.66,-1.07,1.07,0.56,-0.74,0.41,0.41,0.41
207.28,-0.83,-1.23,-0.84,-1.23,1.23,0.75,-0.74,0.40,0.40,0.40
209.35,-0.99,-1.38,-1.01,-1.39,1.39,0.95,-0.73,0.40,0.38,0.38
211.44,-1.16,-1.52,-1.18,-1.54,1.54,1.18,-0.72,0.38,0.37,0.36
213.56,-1.32,-1.67,-1.33,-1.68,1.68,1.41,-0.72,0.36,0.35,0.35
215.69,-1.49,-1.84,-1.48,-1.82,1.82,1.66,-0.71,0.33,0.34,0.34
217.85,-1.65,-1.97,-1.62,-1.94,1.94,1.92,-0.71,0.29,0.32,0.32
220.03,-1.74,-2.05,-1.74,-2.05,2.05,2.17,-0.71,0.31,0.31,0.30
222.23,-1.85,-2.13,-1.86,-2.15,2.15,2.39,-0.71,0.29,0.29,0.28
224.45,-1.95,-2.23,-1.95,-2.22,2.22,2.57,-0.71,0.27,0.27,0.28
226.70,-2.02,-2.28,-2.03,-2.28,2.28,2.70,-0.71,0.26,0.26,0.26
228.96,-2.07,-2.32,-2.08,-2.32,2.32,2.74,-0.72,0.25,0.24,0.25
231.25,-2.09,-2.33,-2.11,-2.33,2.33,2.70,-0.72,0.24,0.22,0.24
233.57,-2.12,-2.34,-2.12,-2.32,2.32,2.58,-0.73,0.20,0.20,0.21
235.90,-2.13,-2.32,-2.10,-2.29,2.29,2.40,-0.74,0.15,0.19,0.19
238.26,-2.09,-2.26,-2.05,-2.23,2.23,2.16,-0.75,0.13,0.17,0.17
240.64,-2.01,-2.16,-1.98,-2.14,2.14,1.89,-0.76,0.13,0.16,0.15
243.05,-1.93,-2.07,-1.88,-2.03,2.03,1.60,-0.77,0.10,0.14,0.14
245.48,-1.80,-1.93,-1.76,-1.90,1.90,1.32,-0.79,0.09,0.13,0.13
247.93,-1.61,-1.73,-1.61,-1.73,1.73,1.04,-0.81,0.12,0.12,0.12
250.41,-1.44,-1.54,-1.43,-1.54,1.54,0.77,-0.82,0.10,0.12,0.10
252.92,-1.19,-1.30,-1.22,-1.33,1.33,0.53,-0.84,0.14,0.11,0.11
255.45,-0.99,-1.10,-0.98,-1.10,1.10,0.29,-0.87,0.11,0.11,0.11
258.00,-0.78,-0.90,-0.73,-0.85,0.85,0.08,-0.89,0.07,0.12,0.11
260.58,-0.48,-0.60,-0.46,-0.58,0.58,-0.12,-0.92,0.10,0.12,0.12
263.19,-0.21,-0.34,-0.17,-0.30,0.30,-0.31,-0.94,0.09,0.13,0.13
265.82,0.16,0.03,0.13,-0.01,0.01,-0.48,-0.97,0.16,0.14,0.13
268.48,0.45,0.29,0.45,0.30,-0.30,-0.65,-1.00,0.15,0.15,0.15
271.16,0.75,0.58,0.77,0.61,-0.61,-0.81,-1.04,0.14,0.16,0.17
273.87,1.16,0.98,1.10,0.93,-0.93,-0.96,-1.07,0.23,0.17,0.18
276.61,1.48,1.28,1.43,1.24,-1.24,-1.11,-1.11,0.24,0.19,0.20
279.38,1.78,1.57,1.76,1.56,-1.56,-1.25,-1.15,0.22,0.20,0.21
282.17,2.08,1.86,2.09,1.88,-1.88,-1.39,-1.19,0.20,0.22,0.22
284.99,2.38,2.14,2.42,2.19,-2.19,-1.53,-1.23,0.19,0.23,0.23
287.84,2.79,2.54,2.74,2.49,-2.49,-1.68,-1.27,0.29,0.25,0.25
290.72,3.09,2.81,3.06,2.79,-2.79,-1.82,-1.32,0.30,0.27,0.27
293.63,3.39,3.11,3.36,3.07,-3.07,-1.96,-1.37,0.31,0.28,0.28
296.57,3.68,3.37,3.65,3.35,-3.35,-2.11,-1.41,0.33,0.30,0.30
299.53,3.95,3.63,3.94,3.62,-3.62,-2.26,-1.46,0.33,0.32,0.32
302.53,4.23,3.90,4.22,3.88,-3.88,-2.42,-1.52,0.35,0.34,0.32
305.55,4.48,4.12,4.48,4.12,-4.12,-2.58,-1.57,0.35,0.36,0.36
308.61,4.75,4.37,4.74,4.36,-4.36,-2.74,-1.63,0.38,0.38,0.37
311.69,5.01,4.61,5.00,4.60,-4.60,-2.92,-1.68,0.41,0.40,0.40
314.81,5.21,4.77,5.24,4.82,-4.82,-3.10,-1.74,0.39,0.42,0.44
317.96,5.44,4.98,5.47,5.03,-5.03,-3.29,-1.80,0.41,0.44,0.45
321.14,5.68,5.21,5.69,5.22,-5.22,-3.48,-1.87,0.46,0.47,0.47
324.35,5.91,5.42,5.90,5.41,-5.41,-3.69,-1.93,0.49,0.49,0.49
327.59,6.13,5.62,6.10,5.59,-5.59,-3.91,-2.00,0.53,0.51,0.51
330.87,6.30,5.77,6.30,5.76,-5.76,-4.13,-2.07,0.53,0.53,0.53
334.18,6.48,5.92,6.48,5.92,-5.92,-4.37,-2.14,0.55,0.56,0.56
337.52,6.67,6.09,6.65,6.07,-6.07,-4.61,-2.21,0.60,0.58,0.57
340.90,6.82,6.22,6.81,6.21,-6.21,-4.87,-2.28,0.61,0.60,0.60
344.30,6.99,6.36,6.96,6.33,-6.33,-5.13,-2.36,0.65,0.63,0.63
347.75,7.11,6.46,7.10,6.45,-6.45,-5.41,-2.44,0.66,0.65,0.64
351.23,7.24,6.57,7.23,6.56,-6.56,-5.68,-2.52,0.68,0.67,0.67
354.74,7.35,6.65,7.35,6.65,-6.65,-5.97,-2.60,0.69,0.70,0.70
358.28,7.46,6.74,7.46,6.74,-6.74,-6.25,-2.69,0.72,0.72,0.72
361.87,7.54,6.79,7.56,6.81,-6.81,-6.53,-2.77,0.72,0.74,0.74
365.49,7.64,6.87,7.65,6.88,-6.88,-6.80,-2.86,0.76,0.77,0.77
369.14,7.71,6.93,7.74,6.95,-6.95,-7.06,-2.95,0.76,0.79,0.78
372.83,7.79,6.98,7.81,7.00,-7.00,-7.30,-3.04,0.79,0.81,0.81
376.56,7.88,7.05,7.88,7.05,-7.05,-7.51,-3.13,0.83,0.83,0.83
380.33,7.95,7.08,7.95,7.09,-7.09,-7.69,-3.23,0.85,0.85,0.86
384.13,8.00,7.13,8.00,7.13,-7.13,-7.83,-3.33,0.87,0.87,0.87
387.97,8.04,7.15,8.05,7.16,-7.16,-7.92,-3.43,0.88,0.89,0.89
391.85,8.07,7.17,8.08,7.18,-7.18,-7.95,-3.52,0.89,0.90,0.90
395.77,8.10,7.17,8.11,7.19,-7.19,-7.94,-3.63,0.91,0.92,0.93
399.73,8.12,7.18,8.11,7.19,-7.19,-7.87,-3.73,0.93,0.93,0.94
403.72,8.13,7.19,8.11,7.17,-7.17,-7.75,-3.83,0.95,0.94,0.93
407.76,8.12,7.17,8.09,7.15,-7.15,-7.59,-3.93,0.97,0.94,0.94
411.84,8.09,7.14,8.05,7.11,-7.11,-7.39,-4.03,0.98,0.95,0.95
415.96,8.04,7.09,8.00,7.05,-7.05,-7.16,-4.14,0.99,0.95,0.95
420.12,7.95,7.00,7.93,6.98,-6.98,-6.91,-4.24,0.97,0.95,0.95
424.32,7.85,6.90,7.85,6.90,-6.90,-6.65,-4.34,0.95,0.95,0.95
428.56,7.74,6.79,7.75,6.80,-6.80,-6.37,-4.43,0.93,0.94,0.95
432.85,7.62,6.68,7.63,6.69,-6.69,-6.09,-4.53,0.93,0.94,0.94
437.18,7.48,6.54,7.50,6.56,-6.56,-5.81,-4.62,0.91,0.94,0.93
441.55,7.35,6.41,7.35,6.42,-6.42,-5.54,-4.71,0.93,0.93,0.93
445.96,7.20,6.28,7.19,6.26,-6.26,-5.27,-4.80,0.93,0.93,0.92
450.42,7.02,6.10,7.02,6.10,-6.10,-5.00,-4.88,0.92,0.93,0.92
454.93,6.86,5.94,6.84,5.92,-5.92,-4.75,-4.95,0.94,0.92,0.92
459.48,6.65,5.74,6.64,5.72,-5.72,-4.51,-5.02,0.92,0.92,0.91
464.07,6.46,5.54,6.44,5.52,-5.52,-4.27,-5.08,0.94,0.92,0.92
468.71,6.25,5.33,6.22,5.31,-5.31,-4.05,-5.14,0.94,0.92,0.92
473.40,5.99,5.07,5.99,5.08,-5.08,-3.84,-5.18,0.91,0.92,0.92
478.13,5.75,4.82,5.75,4.83,-4.83,-3.64,-5.22,0.91,0.92,0.93
482.91,5.53,4.61,5.50,4.58,-4.58,-3.45,-5.25,0.94,0.92,0.92
487.74,5.29,4.36,5.25,4.33,-4.33,-3.27,-5.27,0.96,0.92,0.92
492.62,5.04,4.10,4.99,4.07,-4.07,-3.10,-5.28,0.97,0.92,0.93
497.55,4.78,3.85,4.73,3.80,-3.80,-2.94,-5.28,0.97,0.93,0.92
502.52,4.50,3.57,4.48,3.55,-3.55,-2.79,-5.26,0.95,0.93,0.93
507.55,4.22,3.29,4.23,3.29,-3.29,-2.64,-5.24,0.93,0.94,0.93
512.62,3.96,3.02,3.99,3.05,-3.05,-2.50,-5.21,0.91,0.94,0.94
517.75,3.71,2.76,3.76,2.81,-2.81,-2.38,-5.17,0.90,0.95,0.95
522.93,3.48,2.52,3.55,2.59,-2.59,-2.25,-5.12,0.89,0.96,0.96
528.16,3.29,2.33,3.35,2.39,-2.39,-2.14,-5.06,0.90,0.97,0.96
533.44,3.14,2.17,3.17,2.20,-2.20,-2.03,-4.99,0.94,0.98,0.97
538.77,2.99,2.00,3.02,2.03,-2.03,-1.93,-4.91,0.96,0.99,0.99
544.16,2.86,1.86,2.88,1.88,-1.88,-1.83,-4.82,0.98,1.00,1.00
549.60,2.76,1.74,2.76,1.75,-1.75,-1.73,-4.73,1.01,1.01,1.02
