frequency,raw,error,smoothed,error_smoothed,equalization,parametric_eq,fixed_band_eq,equalized_raw,equalized_smoothed,target
20.00,-2.58,-1.45,-2.64,-1.54,1.54,1.18,-0.04,-1.05,-1.11,-1.14
20.20,-2.54,-1.46,-2.56,-1.49,1.49,1.15,-0.03,-1.05,-1.07,-1.09
20.40,-2.49,-1.46,-2.48,-1.45,1.45,1.12,-0.03,-1.05,-1.03,-1.04
20.61,-2.45,-1.45,-2.40,-1.40,1.40,1.08,-0.03,-1.05,-1.00,-1.01
20.81,-2.40,-1.45,-2.33,-1.36,1.36,1.04,-0.03,-1.05,-0.97,-0.96
21.02,-2.35,-1.44,-2.26,-1.31,1.31,1.00,-0.02,-1.04,-0.94,-0.92
21.23,-2.23,-1.34,-2.19,-1.27,1.27,0.96,-0.02,-0.96,-0.92,-0.90
21.44,-2.11,-1.24,-2.12,-1.22,1.22,0.92,-0.02,-0.89,-0.89,-0.88
21.66,-2.00,-1.15,-2.05,-1.18,1.18,0.87,-0.01,-0.82,-0.87,-0.86
21.87,-1.88,-1.04,-1.99,-1.14,1.14,0.82,-0.01,-0.75,-0.85,-0.85
22.09,-1.81,-0.99,-1.93,-1.09,1.09,0.78,-0.01,-0.72,-0.84,-0.83
22.31,-1.79,-0.98,-1.87,-1.05,1.05,0.73,-0.00,-0.75,-0.83,-0.82
22.54,-1.78,-0.97,-1.82,-1.00,1.00,0.69,-0.00,-0.78,-0.82,-0.82
22.76,-1.77,-0.96,-1.77,-0.95,0.95,0.64,0.00,-0.82,-0.82,-0.82
22.99,-1.76,-0.94,-1.72,-0.90,0.90,0.60,0.01,-0.86,-0.81,-0.83
23.22,-1.72,-0.90,-1.67,-0.86,0.86,0.55,0.01,-0.87,-0.81,-0.83
23.45,-1.68,-0.86,-1.63,-0.82,0.82,0.51,0.02,-0.87,-0.81,-0.83
23.69,-1.64,-0.83,-1.60,-0.78,0.78,0.47,0.02,-0.86,-0.81,-0.82
23.92,-1.59,-0.78,-1.56,-0.75,0.75,0.43,0.03,-0.84,-0.81,-0.82
24.16,-1.54,-0.73,-1.53,-0.72,0.72,0.39,0.03,-0.83,-0.81,-0.82
24.40,-1.47,-0.67,-1.49,-0.67,0.67,0.35,0.03,-0.80,-0.81,-0.81
24.65,-1.41,-0.60,-1.44,-0.62,0.62,0.31,0.04,-0.79,-0.82,-0.82
24.89,-1.35,-0.54,-1.38,-0.56,0.56,0.27,0.04,-0.79,-0.81,-0.82
25.14,-1.30,-0.49,-1.32,-0.51,0.51,0.24,0.05,-0.80,-0.81,-0.82
25.39,-1.27,-0.47,-1.26,-0.45,0.45,0.20,0.05,-0.82,-0.81,-0.81
25.65,-1.24,-0.44,-1.21,-0.40,0.40,0.17,0.06,-0.84,-0.81,-0.81
25.91,-1.20,-0.39,-1.17,-0.36,0.36,0.13,0.06,-0.85,-0.81,-0.82
26.16,-1.14,-0.33,-1.12,-0.31,0.31,0.10,0.06,-0.83,-0.81,-0.82
26.43,-1.07,-0.26,-1.08,-0.27,0.27,0.07,0.07,-0.81,-0.82,-0.82
26.69,-1.00,-0.19,-1.05,-0.23,0.23,0.04,0.07,-0.77,-0.82,-0.82
26.96,-0.92,-0.11,-1.01,-0.19,0.19,0.01,0.07,-0.73,-0.82,-0.82
27.23,-0.92,-0.11,-0.98,-0.16,0.16,-0.02,0.08,-0.77,-0.82,-0.82
27.50,-0.93,-0.12,-0.94,-0.12,0.12,-0.04,0.08,-0.81,-0.82,-0.82
27.77,-0.94,-0.12,-0.91,-0.08,0.08,-0.07,0.08,-0.86,-0.82,-0.83
28.05,-0.94,-0.12,-0.87,-0.05,0.05,-0.10,0.08,-0.89,-0.83,-0.83
28.33,-0.89,-0.06,-0.85,-0.02,0.02,-0.12,0.08,-0.87,-0.83,-0.84
28.62,-0.84,-0.01,-0.82,0.01,-0.01,-0.15,0.08,-0.85,-0.83,-0.84
28.90,-0.79,0.03,-0.79,0.03,-0.03,-0.17,0.08,-0.83,-0.83,-0.83
29.19,-0.75,0.08,-0.77,0.06,-0.06,-0.20,0.08,-0.82,-0.83,-0.84
29.48,-0.71,0.11,-0.74,0.09,-0.09,-0.22,0.07,-0.81,-0.83,-0.83
29.78,-0.68,0.15,-0.71,0.12,-0.12,-0.25,0.07,-0.81,-0.83,-0.84
30.08,-0.65,0.17,-0.68,0.15,-0.15,-0.27,0.07,-0.81,-0.84,-0.83
30.38,-0.64,0.19,-0.65,0.19,-0.19,-0.29,0.06,-0.83,-0.84,-0.84
30.68,-0.64,0.19,-0.61,0.22,-0.22,-0.31,0.05,-0.87,-0.84,-0.84
30.99,-0.63,0.20,-0.58,0.26,-0.26,-0.34,0.04,-0.89,-0.84,-0.84
31.30,-0.57,0.27,-0.55,0.29,-0.29,-0.36,0.03,-0.87,-0.84,-0.85
31.61,-0.50,0.34,-0.52,0.32,-0.32,-0.38,0.02,-0.83,-0.84,-0.85
31.93,-0.44,0.40,-0.49,0.36,-0.36,-0.40,0.01,-0.80,-0.85,-0.85
32.24,-0.42,0.43,-0.46,0.39,-0.39,-0.42,-0.00,-0.81,-0.85,-0.86
32.57,-0.43,0.42,-0.43,0.43,-0.43,-0.44,-0.02,-0.86,-0.86,-0.86
32.89,-0.43,0.42,-0.39,0.47,-0.47,-0.46,-0.04,-0.90,-0.86,-0.86
33.22,-0.39,0.47,-0.35,0.51,-0.51,-0.48,-0.05,-0.90,-0.87,-0.87
33.55,-0.34,0.52,-0.32,0.55,-0.55,-0.50,-0.07,-0.90,-0.87,-0.87
33.89,-0.29,0.58,-0.28,0.60,-0.60,-0.52,-0.09,-0.89,-0.88,-0.88
34.23,-0.24,0.63,-0.25,0.63,-0.63,-0.55,-0.11,-0.88,-0.88,-0.88
34.57,-0.21,0.67,-0.22,0.67,-0.67,-0.57,-0.13,-0.88,-0.88,-0.89
34.92,-0.17,0.71,-0.19,0.70,-0.70,-0.59,-0.16,-0.87,-0.89,-0.89
35.27,-0.14,0.75,-0.17,0.72,-0.72,-0.61,-0.18,-0.87,-0.89,-0.90
35.62,-0.10,0.79,-0.14,0.75,-0.75,-0.63,-0.21,-0.85,-0.89,-0.90
35.97,-0.07,0.82,-0.12,0.78,-0.78,-0.64,-0.23,-0.85,-0.90,-0.90
36.33,-0.07,0.82,-0.09,0.81,-0.81,-0.66,-0.26,-0.88,-0.90,-0.90
36.70,-0.07,0.83,-0.07,0.83,-0.83,-0.68,-0.29,-0.90,-0.90,-0.91
37.06,-0.07,0.83,-0.05,0.85,-0.85,-0.70,-0.32,-0.93,-0.90,-0.91
37.43,-0.06,0.83,-0.02,0.87,-0.87,-0.72,-0.35,-0.94,-0.90,-0.90
37.81,-0.05,0.84,-0.01,0.89,-0.89,-0.74,-0.38,-0.95,-0.90,-0.90
38.19,-0.03,0.87,0.01,0.91,-0.91,-0.76,-0.41,-0.94,-0.90,-0.91
38.57,0.01,0.90,0.02,0.92,-0.92,-0.78,-0.44,-0.91,-0.90,-0.90
38.95,0.06,0.94,0.03,0.93,-0.93,-0.80,-0.48,-0.87,-0.90,-0.89
39.34,0.08,0.97,0.05,0.95,-0.95,-0.82,-0.51,-0.87,-0.90,-0.90
39.74,0.11,1.00,0.07,0.96,-0.96,-0.84,-0.55,-0.86,-0.90,-0.90
40.14,0.13,1.02,0.09,0.98,-0.98,-0.86,-0.58,-0.86,-0.90,-0.90
40.54,0.13,1.02,0.11,1.00,-1.00,-0.88,-0.62,-0.88,-0.90,-0.90
40.94,0.13,1.03,0.12,1.02,-1.02,-0.90,-0.65,-0.90,-0.90,-0.91
41.35,0.12,1.02,0.13,1.04,-1.04,-0.93,-0.69,-0.93,-0.91,-0.91
41.76,0.10,1.01,0.15,1.07,-1.07,-0.95,-0.73,-0.97,-0.92,-0.92
42.18,0.12,1.03,0.17,1.09,-1.09,-0.97,-0.77,-0.98,-0.92,-0.92
42.60,0.18,1.10,0.18,1.11,-1.11,-0.99,-0.81,-0.94,-0.93,-0.93
43.03,0.23,1.16,0.19,1.14,-1.14,-1.01,-0.85,-0.91,-0.95,-0.94
43.46,0.23,1.17,0.20,1.16,-1.16,-1.03,-0.89,-0.93,-0.96,-0.95
43.90,0.23,1.19,0.22,1.19,-1.19,-1.05,-0.93,-0.96,-0.97,-0.97
44.33,0.23,1.21,0.24,1.22,-1.22,-1.07,-0.97,-0.99,-0.98,-0.99
44.78,0.23,1.23,0.26,1.25,-1.25,-1.09,-1.02,-1.02,-0.99,-1.01
45.23,0.26,1.27,0.28,1.29,-1.29,-1.11,-1.06,-1.03,-1.01,-1.02
45.68,0.33,1.35,0.30,1.32,-1.32,-1.13,-1.11,-1.00,-1.02,-1.03
46.13,0.36,1.40,0.32,1.36,-1.36,-1.16,-1.15,-1.00,-1.04,-1.05
46.60,0.32,1.36,0.34,1.39,-1.39,-1.18,-1.20,-1.07,-1.05,-1.05
47.06,0.30,1.36,0.36,1.42,-1.42,-1.20,-1.24,-1.12,-1.06,-1.07
47.53,0.36,1.43,0.37,1.45,-1.45,-1.22,-1.29,-1.09,-1.08,-1.08
48.01,0.43,1.50,0.38,1.48,-1.48,-1.24,-1.34,-1.05,-1.09,-1.08
48.49,0.43,1.52,0.40,1.50,-1.50,-1.27,-1.39,-1.08,-1.11,-1.10
48.97,0.43,1.54,0.41,1.53,-1.53,-1.29,-1.44,-1.10,-1.12,-1.12
49.46,0.43,1.56,0.42,1.55,-1.55,-1.31,-1.48,-1.13,-1.13,-1.14
49.96,0.43,1.58,0.43,1.57,-1.57,-1.33,-1.53,-1.15,-1.15,-1.16
50.46,0.43,1.59,0.43,1.59,-1.59,-1.36,-1.58,-1.16,-1.16,-1.17
50.96,0.43,1.60,0.43,1.60,-1.60,-1.38,-1.63,-1.18,-1.17,-1.18
51.47,0.43,1.62,0.43,1.62,-1.62,-1.40,-1.68,-1.19,-1.19,-1.20
51.99,0.43,1.63,0.44,1.64,-1.64,-1.43,-1.73,-1.21,-1.20,-1.21
52.51,0.43,1.64,0.44,1.65,-1.65,-1.45,-1.78,-1.22,-1.21,-1.22
53.03,0.43,1.64,0.43,1.66,-1.66,-1.48,-1.83,-1.23,-1.23,-1.22
53.56,0.43,1.66,0.43,1.67,-1.67,-1.50,-1.88,-1.24,-1.24,-1.24
54.10,0.43,1.67,0.43,1.68,-1.68,-1.52,-1.93,-1.25,-1.25,-1.25
54.64,0.43,1.69,0.43,1.69,-1.69,-1.55,-1.98,-1.26,-1.26,-1.27
55.18,0.43,1.69,0.43,1.70,-1.70,-1.57,-2.03,-1.27,-1.27,-1.27
55.74,0.43,1.71,0.43,1.71,-1.71,-1.60,-2.07,-1.28,-1.28,-1.29
56.29,0.43,1.72,0.43,1.72,-1.72,-1.62,-2.12,-1.29,-1.29,-1.30
56.86,0.43,1.73,0.43,1.73,-1.73,-1.65,-2.16,-1.31,-1.31,-1.31
57.42,0.43,1.76,0.43,1.75,-1.75,-1.67,-2.20,-1.32,-1.32,-1.34
58.00,0.43,1.77,0.43,1.77,-1.77,-1.70,-2.24,-1.34,-1.34,-1.35
58.58,0.43,1.78,0.43,1.79,-1.79,-1.72,-2.28,-1.37,-1.37,-1.36
59.16,0.43,1.80,0.43,1.82,-1.82,-1.75,-2.31,-1.39,-1.39,-1.38
59.76,0.43,1.82,0.43,1.85,-1.85,-1.77,-2.35,-1.42,-1.42,-1.40
60.35,0.43,1.86,0.43,1.88,-1.88,-1.80,-2.38,-1.45,-1.45,-1.44
60.96,0.43,1.90,0.43,1.91,-1.91,-1.82,-2.41,-1.48,-1.48,-1.48
61.57,0.43,1.94,0.43,1.95,-1.95,-1.85,-2.43,-1.52,-1.52,-1.52
62.18,0.43,1.98,0.43,1.98,-1.98,-1.88,-2.46,-1.56,-1.56,-1.56
62.80,0.43,2.03,0.43,2.03,-2.03,-1.90,-2.48,-1.60,-1.60,-1.61
63.43,0.43,2.07,0.43,2.07,-2.07,-1.93,-2.50,-1.64,-1.64,-1.65
64.07,0.43,2.12,0.43,2.12,-2.12,-1.96,-2.52,-1.69,-1.69,-1.70
64.71,0.43,2.16,0.44,2.17,-2.17,-1.98,-2.53,-1.74,-1.73,-1.74
65.35,0.43,2.20,0.43,2.21,-2.21,-2.01,-2.54,-1.78,-1.78,-1.78
66.01,0.43,2.25,0.43,2.26,-2.26,-2.04,-2.55,-1.83,-1.82,-1.83
66.67,0.43,2.30,0.43,2.30,-2.30,-2.06,-2.56,-1.87,-1.87,-1.88
67.33,0.43,2.35,0.42,2.34,-2.34,-2.09,-2.57,-1.91,-1.92,-1.93
68.01,0.43,2.39,0.41,2.38,-2.38,-2.12,-2.57,-1.95,-1.97,-1.97
68.69,0.43,2.44,0.40,2.42,-2.42,-2.15,-2.57,-2.00,-2.02,-2.02
69.37,0.43,2.49,0.39,2.47,-2.47,-2.18,-2.58,-2.04,-2.07,-2.07
70.07,0.43,2.54,0.39,2.51,-2.51,-2.20,-2.58,-2.08,-2.12,-2.12
70.77,0.38,2.54,0.38,2.55,-2.55,-2.23,-2.58,-2.17,-2.18,-2.17
71.48,0.33,2.54,0.37,2.60,-2.60,-2.26,-2.58,-2.28,-2.23,-2.22
72.19,0.31,2.59,0.37,2.65,-2.65,-2.29,-2.58,-2.35,-2.29,-2.29
72.91,0.33,2.67,0.36,2.70,-2.70,-2.32,-2.57,-2.37,-2.34,-2.35
73.64,0.33,2.72,0.35,2.74,-2.74,-2.34,-2.57,-2.42,-2.40,-2.40
74.38,0.33,2.78,0.33,2.79,-2.79,-2.37,-2.57,-2.46,-2.45,-2.46
75.12,0.33,2.84,0.33,2.84,-2.84,-2.40,-2.57,-2.51,-2.51,-2.52
75.87,0.33,2.90,0.32,2.88,-2.88,-2.43,-2.57,-2.56,-2.57,-2.58
76.63,0.33,2.95,0.31,2.93,-2.93,-2.46,-2.58,-2.60,-2.62,-2.63
77.40,0.33,3.00,0.30,2.97,-2.97,-2.49,-2.58,-2.65,-2.67,-2.68
78.17,0.33,3.06,0.29,3.02,-3.02,-2.52,-2.58,-2.69,-2.73,-2.74
78.95,0.33,3.10,0.29,3.07,-3.07,-2.55,-2.59,-2.74,-2.78,-2.78
79.74,0.22,3.04,0.27,3.10,-3.10,-2.58,-2.59,-2.88,-2.83,-2.83
80.54,0.19,3.06,0.25,3.13,-3.13,-2.60,-2.60,-2.94,-2.88,-2.88
81.35,0.21,3.13,0.23,3.15,-3.15,-2.63,-2.61,-2.95,-2.92,-2.93
82.16,0.23,3.20,0.21,3.18,-3.18,-2.66,-2.62,-2.95,-2.97,-2.98
82.98,0.23,3.24,0.18,3.19,-3.19,-2.69,-2.63,-2.97,-3.02,-3.02
83.81,0.14,3.20,0.14,3.21,-3.21,-2.72,-2.65,-3.07,-3.07,-3.07
84.65,0.09,3.20,0.10,3.21,-3.21,-2.75,-2.67,-3.13,-3.12,-3.12
85.50,0.10,3.25,0.05,3.21,-3.21,-2.78,-2.68,-3.12,-3.16,-3.16
86.35,0.06,3.26,-0.01,3.21,-3.21,-2.81,-2.70,-3.15,-3.21,-3.21
87.22,-0.08,3.17,-0.06,3.20,-3.20,-2.84,-2.73,-3.28,-3.26,-3.26
88.09,-0.12,3.18,-0.11,3.21,-3.21,-2.87,-2.75,-3.33,-3.31,-3.31
88.97,-0.05,3.31,-0.15,3.22,-3.22,-2.90,-2.78,-3.27,-3.36,-3.37
89.86,-0.17,3.24,-0.20,3.21,-3.21,-2.93,-2.81,-3.39,-3.41,-3.42
90.76,-0.30,3.16,-0.26,3.21,-3.21,-2.96,-2.84,-3.51,-3.47,-3.47
91.66,-0.36,3.15,-0.31,3.21,-3.21,-2.99,-2.87,-3.57,-3.52,-3.52
92.58,-0.38,3.19,-0.34,3.22,-3.22,-3.02,-2.91,-3.61,-3.57,-3.58
93.51,-0.42,3.20,-0.37,3.25,-3.25,-3.05,-2.94,-3.67,-3.62,-3.63
94.44,-0.45,3.21,-0.38,3.29,-3.29,-3.08,-2.98,-3.74,-3.67,-3.67
95.39,-0.43,3.28,-0.39,3.33,-3.33,-3.11,-3.02,-3.76,-3.72,-3.72
96.34,-0.32,3.44,-0.38,3.39,-3.39,-3.14,-3.07,-3.71,-3.77,-3.77
97.30,-0.29,3.52,-0.37,3.45,-3.45,-3.17,-3.11,-3.74,-3.81,-3.82
98.28,-0.45,3.41,-0.35,3.51,-3.51,-3.20,-3.16,-3.96,-3.86,-3.87
99.26,-0.48,3.42,-0.33,3.58,-3.58,-3.23,-3.20,-4.06,-3.91,-3.91
100.25,-0.30,3.65,-0.30,3.66,-3.66,-3.26,-3.25,-3.97,-3.96,-3.96
101.25,-0.21,3.79,-0.27,3.73,-3.73,-3.29,-3.30,-3.95,-4.01,-4.01
102.27,-0.17,3.88,-0.26,3.79,-3.79,-3.32,-3.35,-3.97,-4.05,-4.06
103.29,-0.17,3.93,-0.25,3.86,-3.86,-3.35,-3.41,-4.03,-4.10,-4.11
104.32,-0.18,3.96,-0.24,3.91,-3.91,-3.38,-3.46,-4.10,-4.15,-4.15
105.37,-0.20,3.99,-0.24,3.96,-3.96,-3.41,-3.51,-4.17,-4.20,-4.20
106.42,-0.22,4.02,-0.24,4.02,-4.02,-3.44,-3.57,-4.24,-4.26,-4.25
107.48,-0.25,4.05,-0.24,4.06,-4.06,-3.47,-3.62,-4.32,-4.31,-4.31
108.56,-0.27,4.08,-0.26,4.10,-4.10,-3.50,-3.67,-4.38,-4.36,-4.36
109.64,-0.29,4.11,-0.27,4.14,-4.14,-3.52,-3.72,-4.43,-4.41,-4.41
110.74,-0.37,4.09,-0.31,4.16,-4.16,-3.55,-3.78,-4.53,-4.46,-4.47
111.85,-0.53,3.97,-0.37,4.15,-4.15,-3.58,-3.83,-4.68,-4.51,-4.51
112.97,-0.39,4.17,-0.42,4.14,-4.14,-3.61,-3.87,-4.53,-4.56,-4.57
114.10,-0.40,4.21,-0.49,4.12,-4.12,-3.64,-3.92,-4.53,-4.61,-4.62
115.24,-0.54,4.12,-0.56,4.10,-4.10,-3.67,-3.97,-4.64,-4.66,-4.67
116.39,-0.52,4.19,-0.64,4.06,-4.06,-3.70,-4.01,-4.59,-4.70,-4.72
117.55,-0.59,4.16,-0.74,4.01,-4.01,-3.73,-4.05,-4.60,-4.75,-4.76
118.73,-0.84,3.95,-0.85,3.94,-3.94,-3.76,-4.09,-4.78,-4.79,-4.80
119.92,-0.96,3.86,-0.97,3.86,-3.86,-3.79,-4.12,-4.82,-4.82,-4.83
121.12,-1.04,3.82,-1.09,3.77,-3.77,-3.82,-4.15,-4.81,-4.86,-4.87
122.33,-1.19,3.70,-1.21,3.69,-3.69,-3.84,-4.18,-4.88,-4.90,-4.90
123.55,-1.32,3.60,-1.31,3.62,-3.62,-3.87,-4.20,-4.94,-4.93,-4.93
124.79,-1.43,3.52,-1.40,3.56,-3.56,-3.90,-4.22,-4.99,-4.96,-4.96
126.03,-1.54,3.44,-1.50,3.49,-3.49,-3.93,-4.24,-5.04,-4.99,-4.99
127.29,-1.66,3.34,-1.58,3.43,-3.43,-3.96,-4.25,-5.10,-5.02,-5.01
128.57,-1.77,3.27,-1.65,3.40,-3.40,-3.99,-4.26,-5.17,-5.05,-5.05
129.85,-1.89,3.18,-1.70,3.38,-3.38,-4.01,-4.27,-5.27,-5.08,-5.08
131.15,-1.82,3.28,-1.71,3.39,-3.39,-4.04,-4.27,-5.22,-5.11,-5.11
132.46,-1.76,3.37,-1.71,3.43,-3.43,-4.07,-4.27,-5.19,-5.13,-5.14
133.79,-1.66,3.50,-1.70,3.46,-3.46,-4.10,-4.27,-5.12,-5.16,-5.17
135.12,-1.56,3.63,-1.69,3.50,-3.50,-4.13,-4.27,-5.06,-5.19,-5.20
136.48,-1.56,3.65,-1.67,3.55,-3.55,-4.15,-4.26,-5.11,-5.22,-5.22
137.84,-1.59,3.66,-1.66,3.58,-3.58,-4.18,-4.25,-5.18,-5.25,-5.26
139.22,-1.76,3.52,-1.66,3.61,-3.61,-4.21,-4.24,-5.37,-5.27,-5.29
140.61,-1.70,3.61,-1.67,3.64,-3.64,-4.24,-4.23,-5.34,-5.30,-5.32
142.02,-1.45,3.88,-1.66,3.67,-3.67,-4.26,-4.21,-5.13,-5.34,-5.34
143.44,-1.45,3.91,-1.66,3.71,-3.71,-4.29,-4.20,-5.16,-5.37,-5.37
144.87,-1.45,3.95,-1.65,3.76,-3.76,-4.32,-4.19,-5.22,-5.41,-5.41
146.32,-1.72,3.72,-1.64,3.82,-3.82,-4.34,-4.17,-5.54,-5.45,-5.45
147.78,-1.80,3.67,-1.63,3.87,-3.87,-4.37,-4.16,-5.67,-5.50,-5.48
149.26,-1.76,3.76,-1.63,3.92,-3.92,-4.40,-4.15,-5.68,-5.56,-5.53
150.75,-1.83,3.75,-1.64,3.98,-3.98,-4.42,-4.14,-5.81,-5.61,-5.59
152.26,-1.87,3.78,-1.62,4.06,-4.06,-4.45,-4.13,-5.93,-5.68,-5.66
153.78,-1.74,3.98,-1.58,4.16,-4.16,-4.47,-4.12,-5.90,-5.74,-5.73
155.32,-1.47,4.32,-1.55,4.26,-4.26,-4.50,-4.11,-5.73,-5.81,-5.80
156.88,-1.35,4.52,-1.55,4.33,-4.33,-4.53,-4.10,-5.69,-5.88,-5.88
158.44,-1.35,4.60,-1.56,4.39,-4.39,-4.55,-4.10,-5.74,-5.95,-5.96
160.03,-1.35,4.68,-1.57,4.45,-4.45,-4.58,-4.10,-5.80,-6.02,-6.04
161.63,-1.50,4.60,-1.58,4.51,-4.51,-4.60,-4.10,-6.01,-6.08,-6.11
163.24,-1.65,4.51,-1.58,4.57,-4.57,-4.63,-4.10,-6.22,-6.15,-6.17
164.88,-1.61,4.60,-1.58,4.62,-4.62,-4.65,-4.11,-6.23,-6.20,-6.22
166.53,-1.53,4.73,-1.59,4.66,-4.66,-4.68,-4.12,-6.19,-6.25,-6.27
168.19,-1.44,4.86,-1.61,4.68,-4.68,-4.71,-4.13,-6.12,-6.29,-6.31
169.87,-1.59,4.75,-1.65,4.67,-4.67,-4.73,-4.15,-6.26,-6.32,-6.35
171.57,-1.90,4.46,-1.72,4.63,-4.63,-4.75,-4.17,-6.53,-6.35,-6.37
173.29,-2.01,4.36,-1.76,4.61,-4.61,-4.78,-4.19,-6.62,-6.37,-6.38
175.02,-2.05,4.33,-1.78,4.60,-4.60,-4.80,-4.21,-6.65,-6.38,-6.39
176.77,-1.84,4.55,-1.79,4.60,-4.60,-4.83,-4.24,-6.44,-6.39,-6.40
178.54,-1.65,4.75,-1.78,4.62,-4.62,-4.85,-4.27,-6.27,-6.40,-6.41
180.32,-1.60,4.79,-1.77,4.64,-4.64,-4.88,-4.30,-6.24,-6.40,-6.40
182.13,-1.62,4.76,-1.77,4.64,-4.64,-4.90,-4.34,-6.27,-6.41,-6.39
183.95,-1.80,4.59,-1.78,4.64,-4.64,-4.93,-4.38,-6.44,-6.42,-6.40
185.79,-1.86,4.53,-1.78,4.64,-4.64,-4.95,-4.42,-6.51,-6.42,-6.40
187.65,-1.84,4.57,-1.76,4.67,-4.67,-4.97,-4.47,-6.51,-6.43,-6.42
189.52,-1.69,4.73,-1.73,4.71,-4.71,-5.00,-4.52,-6.40,-6.44,-6.43
191.42,-1.44,5.00,-1.69,4.77,-4.77,-5.02,-4.57,-6.21,-6.45,-6.45
193.33,-1.60,4.86,-1.65,4.82,-4.82,-5.05,-4.63,-6.42,-6.47,-6.47
195.27,-1.68,4.80,-1.63,4.86,-4.86,-5.07,-4.68,-6.54,-6.48,-6.49
197.22,-1.62,4.88,-1.60,4.90,-4.90,-5.09,-4.74,-6.52,-6.50,-6.51
199.19,-1.73,4.79,-1.57,4.96,-4.96,-5.12,-4.81,-6.69,-6.52,-6.53
201.18,-1.72,4.82,-1.51,5.03,-5.03,-5.14,-4.87,-6.75,-6.54,-6.55
203.19,-1.53,5.03,-1.45,5.11,-5.11,-5.16,-4.94,-6.65,-6.56,-6.57
205.23,-1.35,5.23,-1.38,5.20,-5.20,-5.19,-5.01,-6.56,-6.59,-6.59
207.28,-1.27,5.32,-1.32,5.28,-5.28,-5.21,-5.07,-6.56,-6.61,-6.60
209.35,-1.15,5.46,-1.27,5.35,-5.35,-5.23,-5.15,-6.51,-6.62,-6.62
211.44,-1.08,5.56,-1.22,5.42,-5.42,-5.25,-5.22,-6.51,-6.64,-6.65
213.56,-1.11,5.54,-1.16,5.50,-5.50,-5.28,-5.29,-6.61,-6.66,-6.66
215.69,-1.08,5.58,-1.08,5.59,-5.59,-5.30,-5.36,-6.67,-6.67,-6.67
217.85,-0.98,5.69,-1.00,5.68,-5.68,-5.32,-5.43,-6.66,-6.68,-6.68
220.03,-0.97,5.71,-0.94,5.75,-5.75,-5.35,-5.50,-6.72,-6.69,-6.69
222.23,-0.94,5.77,-0.88,5.81,-5.81,-5.37,-5.57,-6.76,-6.70,-6.72
224.45,-0.88,5.82,-0.84,5.86,-5.86,-5.39,-5.64,-6.74,-6.70,-6.71
226.70,-0.83,5.87,-0.82,5.88,-5.88,-5.41,-5.70,-6.71,-6.70,-6.71
228.96,-0.77,5.92,-0.79,5.90,-5.90,-5.44,-5.76,-6.68,-6.69,-6.70
231.25,-0.74,5.94,-0.76,5.92,-5.92,-5.46,-5.82,-6.67,-6.69,-6.69
233.57,-0.67,6.00,-0.73,5.94,-5.94,-5.48,-5.88,-6.62,-6.67,-6.68
235.90,-0.64,6.02,-0.69,5.97,-5.97,-5.51,-5.93,-6.61,-6.66,-6.67
238.26,-0.62,6.03,-0.65,5.99,-5.99,-5.53,-5.98,-6.62,-6.64,-6.66
240.64,-0.60,6.02,-0.60,6.02,-6.02,-5.55,-6.02,-6.62,-6.62,-6.63
243.05,-0.63,5.96,-0.56,6.04,-6.04,-5.57,-6.06,-6.67,-6.60,-6.60
245.48,-0.63,5.94,-0.53,6.05,-6.05,-5.60,-6.10,-6.69,-6.58,-6.58
247.93,-0.57,5.97,-0.50,6.06,-6.06,-5.62,-6.12,-6.63,-6.56,-6.55
250.41,-0.51,6.01,-0.47,6.06,-6.06,-5.64,-6.15,-6.57,-6.53,-6.53
252.92,-0.41,6.08,-0.44,6.06,-6.06,-5.66,-6.17,-6.48,-6.51,-6.50
255.45,-0.39,6.08,-0.42,6.07,-6.07,-5.69,-6.18,-6.46,-6.48,-6.48
258.00,-0.31,6.14,-0.39,6.07,-6.07,-5.71,-6.19,-6.38,-6.46,-6.46
260.58,-0.26,6.17,-0.37,6.06,-6.06,-5.73,-6.19,-6.33,-6.43,-6.44
263.19,-0.27,6.13,-0.35,6.06,-6.06,-5.75,-6.19,-6.33,-6.41,-6.41
265.82,-0.28,6.10,-0.33,6.05,-6.05,-5.78,-6.19,-6.34,-6.38,-6.39
268.48,-0.40,5.96,-0.31,6.05,-6.05,-5.80,-6.18,-6.45,-6.36,-6.37
271.16,-0.42,5.91,-0.30,6.04,-6.04,-5.82,-6.16,-6.46,-6.34,-6.34
273.87,-0.33,5.98,-0.29,6.02,-6.02,-5.84,-6.15,-6.35,-6.31,-6.32
276.61,-0.24,6.04,-0.29,6.00,-6.00,-5.87,-6.13,-6.24,-6.28,-6.29
279.38,-0.26,5.99,-0.28,5.97,-5.97,-5.89,-6.11,-6.24,-6.26,-6.26
282.17,-0.28,5.95,-0.29,5.94,-5.94,-5.91,-6.09,-6.23,-6.23,-6.24
284.99,-0.29,5.90,-0.29,5.91,-5.91,-5.94,-6.07,-6.21,-6.20,-6.20
287.84,-0.28,5.89,-0.29,5.88,-5.88,-5.96,-6.04,-6.16,-6.17,-6.18
290.72,-0.27,5.87,-0.29,5.86,-5.86,-5.98,-6.02,-6.13,-6.14,-6.15
293.63,-0.25,5.86,-0.27,5.85,-5.85,-6.01,-6.00,-6.10,-6.11,-6.12
296.57,-0.24,5.84,-0.25,5.83,-5.83,-6.03,-5.97,-6.08,-6.08,-6.09
299.53,-0.23,5.82,-0.23,5.83,-5.83,-6.05,-5.95,-6.06,-6.06,-6.06
302.53,-0.22,5.81,-0.21,5.82,-5.82,-6.08,-5.93,-6.04,-6.03,-6.04
305.55,-0.21,5.78,-0.20,5.81,-5.81,-6.10,-5.92,-6.02,-6.00,-6.00
308.61,-0.22,5.75,-0.18,5.80,-5.80,-6.12,-5.90,-6.02,-5.98,-5.98
311.69,-0.25,5.69,-0.15,5.80,-5.80,-6.15,-5.89,-6.06,-5.96,-5.95
314.81,-0.15,5.77,-0.12,5.81,-5.81,-6.17,-5.88,-5.96,-5.93,-5.93
317.96,-0.06,5.84,-0.09,5.82,-5.82,-6.19,-5.87,-5.88,-5.91,-5.91
321.14,0.05,5.94,-0.07,5.82,-5.82,-6.22,-5.87,-5.78,-5.89,-5.90
324.35,0.01,5.88,-0.04,5.84,-5.84,-6.24,-5.87,-5.83,-5.88,-5.88
327.59,-0.04,5.82,-0.00,5.86,-5.86,-6.27,-5.87,-5.90,-5.86,-5.87
330.87,0.06,5.91,0.03,5.88,-5.88,-6.29,-5.88,-5.83,-5.85,-5.86
334.18,0.11,5.94,0.07,5.91,-5.91,-6.31,-5.89,-5.80,-5.84,-5.84
337.52,0.08,5.90,0.11,5.94,-5.94,-6.34,-5.91,-5.86,-5.83,-5.83
340.90,0.11,5.92,0.15,5.97,-5.97,-6.36,-5.93,-5.86,-5.82,-5.82
344.30,0.19,5.99,0.19,6.00,-6.00,-6.39,-5.95,-5.81,-5.81,-5.81
347.75,0.20,6.00,0.22,6.03,-6.03,-6.41,-5.98,-5.83,-5.81,-5.81
351.23,0.19,5.98,0.25,6.05,-6.05,-6.44,-6.02,-5.87,-5.80,-5.80
354.74,0.30,6.10,0.28,6.08,-6.08,-6.46,-6.05,-5.79,-5.80,-5.81
358.28,0.42,6.21,0.32,6.12,-6.12,-6.49,-6.10,-5.70,-5.80,-5.80
361.87,0.43,6.22,0.37,6.17,-6.17,-6.51,-6.14,-5.74,-5.79,-5.80
365.49,0.41,6.19,0.42,6.21,-6.21,-6.54,-6.20,-5.80,-5.79,-5.79
369.14,0.42,6.21,0.46,6.25,-6.25,-6.56,-6.25,-5.84,-5.79,-5.80
372.83,0.51,6.30,0.51,6.30,-6.30,-6.59,-6.31,-5.80,-5.80,-5.80
376.56,0.55,6.35,0.56,6.36,-6.36,-6.61,-6.38,-5.81,-5.80,-5.81
380.33,0.56,6.35,0.61,6.41,-6.41,-6.64,-6.45,-5.85,-5.80,-5.80
384.13,0.62,6.41,0.65,6.46,-6.46,-6.66,-6.52,-5.84,-5.80,-5.80
387.97,0.68,6.48,0.70,6.50,-6.50,-6.69,-6.60,-5.83,-5.81,-5.81
391.85,0.76,6.57,0.74,6.55,-6.55,-6.72,-6.68,-5.79,-5.81,-5.82
395.77,0.83,6.63,0.77,6.59,-6.59,-6.74,-6.76,-5.76,-5.82,-5.81
399.73,0.87,6.68,0.80,6.63,-6.63,-6.77,-6.85,-5.76,-5.83,-5.82
403.72,0.87,6.68,0.84,6.67,-6.67,-6.79,-6.94,-5.80,-5.83,-5.82
407.76,0.91,6.74,0.88,6.72,-6.72,-6.82,-7.04,-5.81,-5.84,-5.84
411.84,0.96,6.79,0.92,6.75,-6.75,-6.84,-7.13,-5.80,-5.84,-5.84
415.96,0.97,6.80,0.95,6.79,-6.79,-6.87,-7.23,-5.82,-5.84,-5.84
420.12,0.97,6.80,1.00,6.83,-6.83,-6.90,-7.33,-5.86,-5.84,-5.84
424.32,0.99,6.82,1.04,6.87,-6.87,-6.92,-7.43,-5.88,-5.83,-5.84
428.56,1.06,6.88,1.09,6.91,-6.91,-6.95,-7.53,-5.85,-5.82,-5.83
432.85,1.10,6.91,1.15,6.95,-6.95,-6.97,-7.62,-5.85,-5.80,-5.82
437.18,1.15,6.95,1.20,6.99,-6.99,-7.00,-7.72,-5.84,-5.78,-5.81
441.55,1.24,7.00,1.27,7.03,-7.03,-7.03,-7.82,-5.79,-5.76,-5.77
