frequency,raw,error,smoothed,error_smoothed,equalization,parametric_eq,fixed_band_eq,equalized_raw,equalized_smoothed,target
20.00,-2.96,-8.84,-2.98,-8.88,8.88,8.17,3.52,5.92,5.90,5.88
20.20,-2.92,-8.84,-2.93,-8.86,8.86,8.24,3.62,5.94,5.93,5.92
20.40,-2.87,-8.82,-2.88,-8.83,8.83,8.30,3.72,5.96,5.95,5.95
20.61,-2.83,-8.81,-2.83,-8.81,8.81,8.36,3.82,5.98,5.98,5.98
20.81,-2.78,-8.80,-2.78,-8.78,8.78,8.42,3.92,6.00,6.01,6.02
21.02,-2.74,-8.80,-2.72,-8.75,8.75,8.47,4.03,6.01,6.03,6.06
21.23,-2.69,-8.76,-2.67,-8.72,8.72,8.52,4.15,6.03,6.05,6.07
21.44,-2.64,-8.72,-2.62,-8.69,8.69,8.56,4.26,6.05,6.07,6.08
21.66,-2.59,-8.69,-2.57,-8.66,8.66,8.59,4.38,6.07,6.09,6.10
21.87,-2.54,-8.65,-2.52,-8.63,8.63,8.62,4.50,6.09,6.11,6.11
22.09,-2.48,-8.61,-2.47,-8.59,8.59,8.64,4.63,6.11,6.12,6.13
22.31,-2.42,-8.55,-2.42,-8.56,8.56,8.66,4.75,6.14,6.14,6.13
22.54,-2.36,-8.50,-2.36,-8.51,8.51,8.67,4.89,6.15,6.15,6.14
22.76,-2.30,-8.45,-2.31,-8.47,8.47,8.67,5.02,6.17,6.16,6.15
22.99,-2.23,-8.38,-2.26,-8.42,8.42,8.67,5.16,6.19,6.16,6.15
23.22,-2.19,-8.35,-2.20,-8.37,8.37,8.67,5.30,6.18,6.17,6.16
23.45,-2.15,-8.32,-2.15,-8.33,8.33,8.66,5.45,6.18,6.17,6.17
23.69,-2.11,-8.29,-2.10,-8.28,8.28,8.64,5.60,6.17,6.18,6.18
23.92,-2.06,-8.25,-2.06,-8.24,8.24,8.61,5.75,6.18,6.18,6.19
24.16,-2.02,-8.22,-2.01,-8.20,8.20,8.59,5.90,6.18,6.19,6.20
24.40,-1.97,-8.17,-1.97,-8.16,8.16,8.55,6.06,6.19,6.19,6.21
24.65,-1.93,-8.12,-1.93,-8.12,8.12,8.51,6.22,6.19,6.19,6.19
24.89,-1.88,-8.07,-1.90,-8.09,8.09,8.47,6.38,6.21,6.19,6.19
25.14,-1.84,-8.03,-1.86,-8.05,8.05,8.42,6.55,6.21,6.19,6.19
25.39,-1.81,-8.00,-1.82,-8.02,8.02,8.37,6.72,6.21,6.19,6.19
25.65,-1.78,-7.97,-1.78,-7.97,7.97,8.31,6.88,6.19,6.19,6.19
25.91,-1.75,-7.93,-1.74,-7.93,7.93,8.25,7.05,6.18,6.19,6.18
26.16,-1.72,-7.91,-1.69,-7.88,7.88,8.19,7.22,6.16,6.19,6.19
26.43,-1.68,-7.87,-1.66,-7.84,7.84,8.12,7.39,6.16,6.19,6.19
26.69,-1.64,-7.83,-1.62,-7.80,7.80,8.05,7.56,6.16,6.18,6.19
26.96,-1.61,-7.79,-1.58,-7.76,7.76,7.98,7.73,6.15,6.18,6.18
27.23,-1.55,-7.73,-1.55,-7.73,7.73,7.91,7.89,6.18,6.18,6.18
27.50,-1.48,-7.66,-1.51,-7.69,7.69,7.83,8.05,6.21,6.18,6.18
27.77,-1.42,-7.59,-1.48,-7.65,7.65,7.75,8.20,6.23,6.17,6.17
28.05,-1.37,-7.54,-1.44,-7.61,7.61,7.68,8.35,6.24,6.17,6.17
28.33,-1.37,-7.53,-1.39,-7.56,7.56,7.59,8.50,6.19,6.17,6.16
28.62,-1.37,-7.53,-1.35,-7.51,7.51,7.51,8.63,6.14,6.17,6.16
28.90,-1.37,-7.53,-1.31,-7.47,7.47,7.43,8.76,6.10,6.16,6.16
29.19,-1.33,-7.48,-1.27,-7.43,7.43,7.35,8.87,6.10,6.16,6.15
29.48,-1.26,-7.42,-1.23,-7.38,7.38,7.27,8.97,6.13,6.16,6.16
29.78,-1.19,-7.35,-1.19,-7.34,7.34,7.18,9.06,6.15,6.15,6.16
30.08,-1.13,-7.29,-1.15,-7.29,7.29,7.10,9.14,6.16,6.15,6.16
30.38,-1.08,-7.22,-1.10,-7.24,7.24,7.02,9.20,6.16,6.14,6.14
30.68,-1.03,-7.17,-1.06,-7.19,7.19,6.94,9.24,6.16,6.14,6.14
30.99,-0.98,-7.11,-1.01,-7.14,7.14,6.86,9.27,6.16,6.13,6.13
31.30,-0.96,-7.09,-0.97,-7.09,7.09,6.78,9.29,6.13,6.13,6.13
31.61,-0.94,-7.06,-0.92,-7.04,7.04,6.70,9.29,6.10,6.12,6.12
31.93,-0.92,-7.03,-0.87,-6.99,6.99,6.62,9.27,6.07,6.11,6.11
32.24,-0.85,-6.95,-0.83,-6.94,6.94,6.55,9.23,6.09,6.11,6.10
32.57,-0.78,-6.88,-0.79,-6.89,6.89,6.47,9.19,6.11,6.10,6.10
32.89,-0.70,-6.79,-0.75,-6.85,6.85,6.40,9.12,6.15,6.10,6.09
33.22,-0.68,-6.77,-0.71,-6.80,6.80,6.33,9.05,6.12,6.09,6.09
33.55,-0.68,-6.77,-0.68,-6.76,6.76,6.26,8.96,6.08,6.08,6.09
33.89,-0.68,-6.76,-0.65,-6.73,6.73,6.19,8.87,6.05,6.08,6.08
34.23,-0.64,-6.72,-0.62,-6.70,6.70,6.12,8.76,6.06,6.07,6.08
34.57,-0.59,-6.66,-0.59,-6.66,6.66,6.06,8.65,6.07,6.07,6.07
34.92,-0.53,-6.59,-0.56,-6.62,6.62,5.99,8.53,6.09,6.06,6.06
35.27,-0.50,-6.56,-0.52,-6.58,6.58,5.93,8.40,6.08,6.06,6.06
35.62,-0.48,-6.53,-0.49,-6.54,6.54,5.88,8.27,6.06,6.05,6.05
35.97,-0.46,-6.50,-0.46,-6.51,6.51,5.82,8.14,6.05,6.04,6.04
36.33,-0.46,-6.50,-0.44,-6.47,6.47,5.77,8.00,6.01,6.04,6.04
36.70,-0.46,-6.49,-0.42,-6.44,6.44,5.71,7.86,5.98,6.03,6.03
37.06,-0.45,-6.47,-0.39,-6.41,6.41,5.67,7.73,5.96,6.02,6.02
37.43,-0.36,-6.37,-0.36,-6.37,6.37,5.62,7.59,6.01,6.01,6.01
37.81,-0.27,-6.28,-0.32,-6.33,6.33,5.58,7.45,6.06,6.01,6.01
38.19,-0.23,-6.22,-0.29,-6.29,6.29,5.54,7.32,6.06,6.00,5.99
38.57,-0.23,-6.22,-0.26,-6.25,6.25,5.50,7.19,6.02,5.99,5.99
38.95,-0.23,-6.21,-0.23,-6.21,6.21,5.46,7.06,5.98,5.98,5.98
39.34,-0.23,-6.20,-0.19,-6.17,6.17,5.43,6.93,5.94,5.98,5.97
39.74,-0.23,-6.18,-0.16,-6.13,6.13,5.40,6.81,5.90,5.97,5.95
40.14,-0.20,-6.15,-0.14,-6.10,6.10,5.37,6.69,5.90,5.96,5.95
40.54,-0.11,-6.06,-0.11,-6.06,6.06,5.35,6.57,5.95,5.95,5.95
40.94,-0.01,-5.95,-0.09,-6.02,6.02,5.32,6.46,6.01,5.93,5.94
41.35,0.00,-5.92,-0.07,-5.98,5.98,5.31,6.35,5.98,5.92,5.92
41.76,0.00,-5.91,-0.04,-5.94,5.94,5.29,6.24,5.94,5.90,5.91
42.18,0.00,-5.89,-0.02,-5.89,5.89,5.27,6.14,5.89,5.87,5.89
42.60,0.00,-5.86,0.01,-5.84,5.84,5.26,6.05,5.84,5.85,5.86
43.03,0.00,-5.84,0.04,-5.78,5.78,5.25,5.96,5.78,5.82,5.84
43.46,0.00,-5.82,0.07,-5.73,5.73,5.25,5.87,5.73,5.80,5.82
43.90,0.00,-5.77,0.09,-5.68,5.68,5.24,5.79,5.68,5.77,5.77
44.33,0.08,-5.66,0.11,-5.63,5.63,5.24,5.71,5.71,5.74,5.74
44.78,0.18,-5.52,0.13,-5.58,5.58,5.24,5.64,5.76,5.71,5.70
45.23,0.23,-5.44,0.15,-5.53,5.53,5.24,5.57,5.76,5.68,5.67
45.68,0.23,-5.41,0.18,-5.48,5.48,5.24,5.50,5.71,5.66,5.64
46.13,0.23,-5.39,0.21,-5.42,5.42,5.24,5.44,5.65,5.63,5.62
46.60,0.23,-5.38,0.25,-5.37,5.37,5.24,5.38,5.60,5.61,5.61
47.06,0.23,-5.36,0.28,-5.31,5.31,5.25,5.33,5.54,5.59,5.59
47.53,0.25,-5.32,0.31,-5.27,5.27,5.25,5.28,5.52,5.58,5.57
48.01,0.27,-5.30,0.34,-5.23,5.23,5.26,5.24,5.50,5.57,5.57
48.49,0.36,-5.20,0.37,-5.19,5.19,5.26,5.20,5.55,5.56,5.56
48.97,0.45,-5.10,0.39,-5.17,5.17,5.26,5.16,5.62,5.56,5.55
49.46,0.46,-5.07,0.40,-5.15,5.15,5.26,5.12,5.61,5.55,5.53
49.96,0.46,-5.07,0.42,-5.13,5.13,5.26,5.09,5.59,5.55,5.53
50.46,0.46,-5.07,0.43,-5.10,5.10,5.25,5.06,5.56,5.54,5.53
50.96,0.46,-5.08,0.45,-5.08,5.08,5.25,5.03,5.54,5.53,5.54
51.47,0.46,-5.06,0.46,-5.05,5.05,5.24,5.01,5.51,5.51,5.52
51.99,0.46,-5.05,0.47,-5.02,5.02,5.22,4.99,5.48,5.49,5.51
52.51,0.46,-5.03,0.48,-5.00,5.00,5.20,4.97,5.46,5.47,5.49
53.03,0.46,-5.00,0.48,-4.97,4.97,5.18,4.95,5.43,5.44,5.46
53.56,0.46,-4.97,0.47,-4.94,4.94,5.15,4.93,5.40,5.41,5.43
54.10,0.46,-4.92,0.47,-4.91,4.91,5.12,4.91,5.37,5.37,5.38
54.64,0.46,-4.87,0.46,-4.87,4.87,5.08,4.90,5.33,5.33,5.33
55.18,0.46,-4.82,0.46,-4.82,4.82,5.03,4.88,5.28,5.28,5.28
55.74,0.46,-4.76,0.46,-4.76,4.76,4.99,4.86,5.22,5.23,5.22
56.29,0.46,-4.71,0.47,-4.70,4.70,4.93,4.84,5.16,5.17,5.17
56.86,0.46,-4.65,0.48,-4.62,4.62,4.87,4.83,5.08,5.11,5.11
57.42,0.46,-4.58,0.50,-4.55,4.55,4.81,4.81,5.01,5.04,5.04
58.00,0.46,-4.51,0.51,-4.47,4.47,4.74,4.78,4.93,4.98,4.97
58.58,0.46,-4.45,0.50,-4.41,4.41,4.66,4.76,4.87,4.91,4.91
59.16,0.46,-4.39,0.49,-4.35,4.35,4.58,4.73,4.81,4.85,4.85
59.76,0.46,-4.33,0.47,-4.31,4.31,4.50,4.70,4.77,4.78,4.79
60.35,0.46,-4.25,0.43,-4.28,4.28,4.42,4.67,4.74,4.72,4.71
60.96,0.46,-4.20,0.38,-4.28,4.28,4.33,4.63,4.74,4.65,4.66
61.57,0.46,-4.12,0.30,-4.29,4.29,4.24,4.59,4.75,4.59,4.58
62.18,0.42,-4.09,0.21,-4.32,4.32,4.15,4.55,4.74,4.53,4.51
62.80,0.27,-4.19,0.10,-4.36,4.36,4.05,4.50,4.63,4.47,4.46
63.43,0.09,-4.31,-0.00,-4.41,4.41,3.96,4.45,4.50,4.41,4.40
64.07,-0.11,-4.46,-0.11,-4.46,4.46,3.86,4.40,4.35,4.36,4.35
64.71,-0.23,-4.53,-0.20,-4.51,4.51,3.77,4.34,4.28,4.30,4.30
65.35,-0.34,-4.59,-0.29,-4.54,4.54,3.67,4.28,4.20,4.25,4.25
66.01,-0.46,-4.66,-0.35,-4.56,4.56,3.58,4.21,4.10,4.21,4.20
66.67,-0.61,-4.77,-0.39,-4.56,4.56,3.48,4.15,3.95,4.16,4.16
67.33,-0.65,-4.77,-0.41,-4.54,4.54,3.39,4.07,3.89,4.12,4.12
68.01,-0.59,-4.68,-0.40,-4.49,4.49,3.29,4.00,3.90,4.09,4.09
68.69,-0.48,-4.53,-0.36,-4.41,4.41,3.20,3.92,3.93,4.05,4.05
69.37,-0.35,-4.36,-0.29,-4.30,4.30,3.11,3.84,3.95,4.01,4.01
70.07,-0.21,-4.18,-0.20,-4.17,4.17,3.02,3.76,3.96,3.97,3.97
70.77,-0.05,-4.00,-0.08,-4.02,4.02,2.93,3.68,3.97,3.94,3.95
71.48,0.11,-3.80,0.03,-3.87,3.87,2.85,3.59,3.98,3.90,3.91
72.19,0.28,-3.60,0.14,-3.73,3.73,2.76,3.51,4.01,3.87,3.88
72.91,0.44,-3.39,0.24,-3.59,3.59,2.68,3.42,4.03,3.83,3.83
73.64,0.46,-3.34,0.35,-3.44,3.44,2.60,3.33,3.90,3.79,3.80
74.38,0.52,-3.25,0.46,-3.30,3.30,2.52,3.25,3.82,3.76,3.77
75.12,0.64,-3.08,0.55,-3.17,3.17,2.44,3.16,3.81,3.72,3.72
75.87,0.67,-3.01,0.64,-3.05,3.05,2.36,3.07,3.72,3.68,3.68
76.63,0.68,-2.96,0.70,-2.95,2.95,2.29,2.98,3.63,3.65,3.64
77.40,0.68,-2.93,0.76,-2.86,2.86,2.22,2.90,3.54,3.62,3.61
78.17,0.68,-2.89,0.81,-2.78,2.78,2.15,2.81,3.46,3.59,3.57
78.95,0.68,-2.87,0.85,-2.70,2.70,2.08,2.72,3.38,3.56,3.55
79.74,0.85,-2.68,0.90,-2.63,2.63,2.01,2.64,3.48,3.53,3.53
80.54,0.99,-2.51,0.95,-2.56,2.56,1.95,2.55,3.55,3.51,3.50
81.35,1.09,-2.39,1.00,-2.49,2.49,1.88,2.47,3.58,3.49,3.48
82.16,1.14,-2.32,1.05,-2.41,2.41,1.82,2.39,3.55,3.47,3.46
82.98,1.14,-2.32,1.11,-2.35,2.35,1.76,2.31,3.49,3.45,3.46
83.81,1.14,-2.30,1.15,-2.29,2.29,1.70,2.23,3.43,3.44,3.44
84.65,1.14,-2.28,1.20,-2.23,2.23,1.64,2.15,3.37,3.43,3.42
85.50,1.20,-2.22,1.25,-2.17,2.17,1.59,2.07,3.37,3.42,3.42
86.35,1.31,-2.10,1.29,-2.13,2.13,1.53,1.99,3.44,3.42,3.41
87.22,1.37,-2.03,1.32,-2.09,2.09,1.48,1.92,3.46,3.41,3.40
88.09,1.37,-2.02,1.34,-2.06,2.06,1.43,1.85,3.43,3.40,3.39
88.97,1.37,-2.03,1.35,-2.04,2.04,1.38,1.77,3.41,3.39,3.40
89.86,1.37,-2.02,1.36,-2.02,2.02,1.33,1.70,3.39,3.38,3.39
90.76,1.37,-2.00,1.37,-2.00,2.00,1.28,1.63,3.37,3.37,3.37
91.66,1.37,-2.00,1.37,-1.98,1.98,1.23,1.56,3.35,3.35,3.37
92.58,1.37,-1.96,1.37,-1.96,1.96,1.18,1.50,3.33,3.34,3.33
93.51,1.37,-1.96,1.37,-1.95,1.95,1.14,1.43,3.32,3.32,3.33
94.44,1.37,-1.93,1.37,-1.93,1.93,1.09,1.37,3.30,3.30,3.30
95.39,1.37,-1.91,1.37,-1.90,1.90,1.05,1.30,3.27,3.27,3.28
96.34,1.37,-1.86,1.37,-1.88,1.88,1.00,1.24,3.25,3.24,3.23
97.30,1.37,-1.84,1.37,-1.84,1.84,0.96,1.18,3.21,3.21,3.21
98.28,1.37,-1.80,1.39,-1.79,1.79,0.92,1.12,3.16,3.18,3.17
99.26,1.37,-1.76,1.41,-1.73,1.73,0.88,1.06,3.10,3.14,3.13
100.25,1.37,-1.73,1.43,-1.67,1.67,0.84,1.00,3.04,3.09,3.10
101.25,1.37,-1.68,1.45,-1.60,1.60,0.80,0.95,2.97,3.05,3.05
102.27,1.40,-1.60,1.47,-1.53,1.53,0.76,0.89,2.93,3.00,3.00
103.29,1.52,-1.42,1.49,-1.45,1.45,0.72,0.84,2.97,2.94,2.94
104.32,1.60,-1.29,1.51,-1.37,1.37,0.68,0.78,2.97,2.88,2.89
105.37,1.60,-1.24,1.54,-1.28,1.28,0.64,0.73,2.88,2.82,2.84
106.42,1.60,-1.17,1.56,-1.20,1.20,0.61,0.68,2.80,2.75,2.77
107.48,1.60,-1.09,1.57,-1.11,1.11,0.57,0.63,2.71,2.68,2.69
108.56,1.60,-1.00,1.59,-1.01,1.01,0.53,0.58,2.61,2.60,2.60
109.64,1.60,-0.93,1.60,-0.92,0.92,0.50,0.53,2.52,2.53,2.53
110.74,1.60,-0.85,1.61,-0.83,0.83,0.46,0.48,2.43,2.44,2.45
111.85,1.60,-0.77,1.62,-0.74,0.74,0.43,0.43,2.34,2.36,2.37
112.97,1.60,-0.67,1.62,-0.66,0.66,0.39,0.39,2.26,2.28,2.27
114.10,1.60,-0.60,1.61,-0.58,0.58,0.36,0.34,2.18,2.20,2.20
115.24,1.60,-0.51,1.60,-0.51,0.51,0.32,0.30,2.11,2.12,2.11
116.39,1.60,-0.43,1.60,-0.44,0.44,0.29,0.26,2.04,2.04,2.03
117.55,1.60,-0.35,1.60,-0.37,0.37,0.25,0.22,1.97,1.97,1.95
118.73,1.60,-0.28,1.60,-0.30,0.30,0.22,0.18,1.90,1.90,1.88
119.92,1.60,-0.22,1.60,-0.24,0.24,0.18,0.14,1.84,1.84,1.82
121.12,1.60,-0.16,1.60,-0.18,0.18,0.15,0.10,1.78,1.78,1.76
122.33,1.60,-0.10,1.60,-0.12,0.12,0.12,0.06,1.72,1.72,1.70
123.55,1.60,-0.07,1.60,-0.07,0.07,0.08,0.02,1.67,1.67,1.67
124.79,1.60,-0.02,1.59,-0.02,0.02,0.05,-0.01,1.62,1.62,1.62
126.03,1.60,0.02,1.59,0.01,-0.01,0.01,-0.05,1.59,1.57,1.58
127.29,1.60,0.06,1.58,0.05,-0.05,-0.02,-0.08,1.55,1.53,1.54
128.57,1.60,0.11,1.58,0.10,-0.10,-0.06,-0.11,1.50,1.49,1.49
129.85,1.60,0.15,1.59,0.15,-0.15,-0.09,-0.15,1.45,1.44,1.45
131.15,1.60,0.19,1.60,0.20,-0.20,-0.13,-0.18,1.40,1.40,1.41
132.46,1.60,0.24,1.61,0.25,-0.25,-0.16,-0.21,1.35,1.36,1.36
133.79,1.60,0.27,1.63,0.31,-0.31,-0.20,-0.24,1.29,1.32,1.33
135.12,1.60,0.33,1.65,0.37,-0.37,-0.23,-0.27,1.23,1.28,1.27
136.48,1.60,0.36,1.67,0.43,-0.43,-0.27,-0.30,1.17,1.23,1.24
137.84,1.60,0.41,1.69,0.50,-0.50,-0.30,-0.33,1.10,1.19,1.19
139.22,1.72,0.59,1.71,0.57,-0.57,-0.34,-0.36,1.15,1.14,1.13
140.61,1.81,0.73,1.73,0.64,-0.64,-0.37,-0.38,1.17,1.10,1.08
142.02,1.82,0.78,1.76,0.72,-0.72,-0.41,-0.41,1.10,1.05,1.04
143.44,1.82,0.83,1.79,0.80,-0.80,-0.45,-0.44,1.02,0.99,0.99
144.87,1.82,0.87,1.81,0.87,-0.87,-0.49,-0.47,0.95,0.93,0.95
146.32,1.82,0.93,1.82,0.95,-0.95,-0.52,-0.50,0.87,0.87,0.89
147.78,1.82,0.98,1.83,1.02,-1.02,-0.56,-0.53,0.80,0.80,0.84
149.26,1.82,1.06,1.82,1.09,-1.09,-0.60,-0.55,0.73,0.73,0.76
150.75,1.82,1.14,1.82,1.16,-1.16,-0.64,-0.58,0.66,0.66,0.68
152.26,1.82,1.22,1.80,1.22,-1.22,-0.68,-0.61,0.60,0.58,0.60
153.78,1.82,1.30,1.78,1.28,-1.28,-0.72,-0.64,0.54,0.50,0.52
155.32,1.82,1.40,1.75,1.33,-1.33,-0.76,-0.67,0.49,0.42,0.42
156.88,1.80,1.46,1.73,1.38,-1.38,-0.80,-0.70,0.42,0.34,0.34
158.44,1.66,1.40,1.70,1.44,-1.44,-0.84,-0.73,0.22,0.27,0.26
160.03,1.60,1.42,1.68,1.49,-1.49,-0.89,-0.77,0.11,0.20,0.18
161.63,1.60,1.49,1.66,1.53,-1.53,-0.93,-0.80,0.07,0.13,0.11
163.24,1.60,1.55,1.64,1.57,-1.57,-0.97,-0.83,0.03,0.07,0.05
164.88,1.60,1.60,1.62,1.60,-1.60,-1.02,-0.87,-0.00,0.02,0.00
166.53,1.60,1.64,1.61,1.63,-1.63,-1.06,-0.90,-0.03,-0.02,-0.04
168.19,1.60,1.68,1.60,1.65,-1.65,-1.11,-0.94,-0.05,-0.05,-0.08
169.87,1.60,1.70,1.59,1.67,-1.67,-1.15,-0.97,-0.07,-0.08,-0.10
171.57,1.60,1.71,1.58,1.68,-1.68,-1.20,-1.01,-0.08,-0.10,-0.11
173.29,1.60,1.72,1.58,1.69,-1.69,-1.24,-1.05,-0.09,-0.11,-0.12
175.02,1.60,1.71,1.59,1.71,-1.71,-1.29,-1.09,-0.11,-0.12,-0.11
176.77,1.60,1.72,1.60,1.72,-1.72,-1.34,-1.13,-0.12,-0.12,-0.12
178.54,1.60,1.72,1.60,1.73,-1.73,-1.38,-1.17,-0.13,-0.13,-0.12
180.32,1.60,1.72,1.60,1.73,-1.73,-1.43,-1.22,-0.13,-0.13,-0.12
182.13,1.60,1.71,1.60,1.74,-1.74,-1.48,-1.26,-0.14,-0.14,-0.11
183.95,1.60,1.72,1.60,1.75,-1.75,-1.52,-1.31,-0.15,-0.15,-0.12
185.79,1.60,1.74,1.60,1.76,-1.76,-1.57,-1.35,-0.16,-0.16,-0.14
187.65,1.60,1.76,1.60,1.77,-1.77,-1.62,-1.40,-0.17,-0.17,-0.16
189.52,1.60,1.79,1.60,1.79,-1.79,-1.67,-1.44,-0.19,-0.19,-0.19
191.42,1.60,1.81,1.60,1.80,-1.80,-1.71,-1.49,-0.20,-0.20,-0.21
193.33,1.60,1.83,1.60,1.83,-1.83,-1.76,-1.54,-0.23,-0.23,-0.23
195.27,1.60,1.85,1.60,1.85,-1.85,-1.81,-1.59,-0.25,-0.25,-0.25
197.22,1.60,1.87,1.60,1.87,-1.87,-1.85,-1.64,-0.27,-0.27,-0.27
199.19,1.60,1.91,1.60,1.89,-1.89,-1.90,-1.69,-0.29,-0.29,-0.31
201.18,1.60,1.92,1.60,1.92,-1.92,-1.94,-1.74,-0.32,-0.32,-0.32
203.19,1.60,1.94,1.60,1.94,-1.94,-1.99,-1.79,-0.34,-0.34,-0.34
205.23,1.60,1.97,1.60,1.96,-1.96,-2.03,-1.85,-0.36,-0.36,-0.37
207.28,1.60,1.98,1.59,1.97,-1.97,-2.07,-1.90,-0.37,-0.38,-0.38
209.35,1.60,2.00,1.58,1.99,-1.99,-2.11,-1.95,-0.39,-0.40,-0.40
211.44,1.60,2.03,1.58,2.00,-2.00,-2.15,-2.00,-0.40,-0.42,-0.43
213.56,1.60,2.04,1.59,2.02,-2.02,-2.18,-2.05,-0.42,-0.44,-0.44
215.69,1.60,2.04,1.59,2.05,-2.05,-2.22,-2.10,-0.45,-0.45,-0.44
217.85,1.60,2.07,1.60,2.07,-2.07,-2.25,-2.14,-0.47,-0.47,-0.47
220.03,1.60,2.08,1.62,2.10,-2.10,-2.28,-2.19,-0.50,-0.49,-0.48
222.23,1.60,2.11,1.63,2.13,-2.13,-2.31,-2.23,-0.53,-0.50,-0.51
224.45,1.60,2.11,1.65,2.16,-2.16,-2.33,-2.27,-0.56,-0.51,-0.51
226.70,1.60,2.12,1.68,2.20,-2.20,-2.36,-2.31,-0.60,-0.52,-0.52
228.96,1.60,2.13,1.71,2.24,-2.24,-2.38,-2.35,-0.64,-0.53,-0.53
231.25,1.77,2.30,1.73,2.27,-2.27,-2.39,-2.39,-0.50,-0.54,-0.53
233.57,1.82,2.36,1.75,2.30,-2.30,-2.41,-2.42,-0.48,-0.54,-0.54
235.90,1.82,2.38,1.77,2.32,-2.32,-2.42,-2.44,-0.50,-0.55,-0.56
238.26,1.82,2.38,1.78,2.33,-2.33,-2.43,-2.47,-0.51,-0.55,-0.56
240.64,1.82,2.38,1.79,2.34,-2.34,-2.43,-2.49,-0.52,-0.55,-0.56
243.05,1.82,2.37,1.79,2.34,-2.34,-2.43,-2.51,-0.52,-0.55,-0.55
245.48,1.82,2.37,1.78,2.33,-2.33,-2.43,-2.52,-0.51,-0.55,-0.55
247.93,1.82,2.36,1.77,2.32,-2.32,-2.43,-2.53,-0.50,-0.55,-0.54
250.41,1.82,2.37,1.76,2.30,-2.30,-2.42,-2.53,-0.48,-0.54,-0.55
252.92,1.78,2.32,1.74,2.27,-2.27,-2.41,-2.53,-0.49,-0.54,-0.54
255.45,1.63,2.15,1.71,2.24,-2.24,-2.40,-2.53,-0.61,-0.53,-0.52
258.00,1.60,2.11,1.68,2.20,-2.20,-2.38,-2.52,-0.60,-0.52,-0.51
260.58,1.60,2.11,1.66,2.17,-2.17,-2.37,-2.51,-0.57,-0.51,-0.51
263.19,1.60,2.10,1.64,2.14,-2.14,-2.35,-2.49,-0.54,-0.50,-0.50
265.82,1.60,2.10,1.62,2.11,-2.11,-2.32,-2.48,-0.51,-0.49,-0.50
268.48,1.60,2.08,1.61,2.08,-2.08,-2.30,-2.45,-0.48,-0.47,-0.48
271.16,1.60,2.06,1.59,2.05,-2.05,-2.27,-2.43,-0.45,-0.46,-0.46
273.87,1.60,2.05,1.59,2.03,-2.03,-2.24,-2.40,-0.43,-0.44,-0.45
276.61,1.60,2.02,1.58,2.00,-2.00,-2.21,-2.37,-0.40,-0.42,-0.42
279.38,1.60,2.00,1.58,1.98,-1.98,-2.18,-2.33,-0.38,-0.40,-0.40
282.17,1.60,1.98,1.59,1.97,-1.97,-2.14,-2.30,-0.37,-0.38,-0.38
284.99,1.60,1.95,1.60,1.95,-1.95,-2.11,-2.26,-0.35,-0.35,-0.35
287.84,1.60,1.93,1.60,1.92,-1.92,-2.07,-2.22,-0.32,-0.32,-0.33
290.72,1.60,1.90,1.60,1.90,-1.90,-2.03,-2.18,-0.30,-0.30,-0.30
293.63,1.60,1.87,1.60,1.87,-1.87,-2.00,-2.14,-0.27,-0.27,-0.27
296.57,1.60,1.85,1.60,1.85,-1.85,-1.96,-2.10,-0.25,-0.25,-0.25
299.53,1.60,1.82,1.60,1.82,-1.82,-1.92,-2.05,-0.22,-0.22,-0.22
302.53,1.60,1.81,1.60,1.80,-1.80,-1.88,-2.01,-0.20,-0.20,-0.21
305.55,1.60,1.77,1.60,1.78,-1.78,-1.84,-1.96,-0.18,-0.18,-0.17
308.61,1.60,1.75,1.60,1.77,-1.77,-1.80,-1.92,-0.17,-0.17,-0.15
311.69,1.60,1.74,1.60,1.75,-1.75,-1.76,-1.88,-0.15,-0.15,-0.14
314.81,1.60,1.71,1.60,1.74,-1.74,-1.72,-1.83,-0.14,-0.14,-0.11
317.96,1.60,1.72,1.60,1.73,-1.73,-1.68,-1.79,-0.13,-0.13,-0.12
321.14,1.60,1.72,1.60,1.72,-1.72,-1.64,-1.75,-0.12,-0.12,-0.12
324.35,1.60,1.71,1.60,1.71,-1.71,-1.60,-1.71,-0.11,-0.11,-0.11
327.59,1.60,1.71,1.61,1.71,-1.71,-1.56,-1.67,-0.11,-0.10,-0.11
330.87,1.60,1.70,1.62,1.71,-1.71,-1.52,-1.63,-0.11,-0.09,-0.10
334.18,1.60,1.69,1.62,1.70,-1.70,-1.48,-1.59,-0.10,-0.08,-0.09
337.52,1.60,1.69,1.62,1.68,-1.68,-1.44,-1.55,-0.08,-0.07,-0.09
340.90,1.60,1.66,1.61,1.67,-1.67,-1.40,-1.51,-0.07,-0.06,-0.06
344.30,1.60,1.65,1.60,1.64,-1.64,-1.37,-1.48,-0.04,-0.04,-0.05
347.75,1.60,1.63,1.58,1.61,-1.61,-1.33,-1.44,-0.01,-0.03,-0.03
351.23,1.60,1.61,1.57,1.57,-1.57,-1.30,-1.41,0.03,-0.01,-0.01
354.74,1.60,1.59,1.55,1.53,-1.53,-1.26,-1.38,0.07,0.01,0.01
358.28,1.60,1.56,1.53,1.49,-1.49,-1.23,-1.35,0.11,0.04,0.04
361.87,1.60,1.54,1.50,1.44,-1.44,-1.19,-1.32,0.16,0.06,0.06
365.49,1.43,1.35,1.48,1.40,-1.40,-1.16,-1.29,0.03,0.08,0.08
369.14,1.38,1.28,1.46,1.35,-1.35,-1.13,-1.26,0.03,0.10,0.10
372.83,1.37,1.24,1.44,1.31,-1.31,-1.09,-1.23,0.06,0.12,0.13
376.56,1.37,1.22,1.42,1.27,-1.27,-1.06,-1.21,0.10,0.14,0.15
380.33,1.37,1.19,1.40,1.23,-1.23,-1.03,-1.18,0.14,0.16,0.18
384.13,1.37,1.18,1.38,1.20,-1.20,-1.00,-1.16,0.17,0.18,0.19
387.97,1.37,1.17,1.37,1.17,-1.17,-0.97,-1.14,0.20,0.20,0.20
391.85,1.37,1.16,1.36,1.15,-1.15,-0.94,-1.12,0.22,0.21,0.21
395.77,1.37,1.15,1.35,1.13,-1.13,-0.92,-1.09,0.24,0.22,0.22
399.73,1.37,1.14,1.35,1.12,-1.12,-0.89,-1.07,0.25,0.23,0.23
403.72,1.37,1.13,1.36,1.12,-1.12,-0.86,-1.06,0.25,0.24,0.24
407.76,1.37,1.13,1.38,1.13,-1.13,-0.84,-1.04,0.24,0.24,0.24
411.84,1.37,1.12,1.39,1.14,-1.14,-0.81,-1.02,0.23,0.25,0.25
415.96,1.37,1.11,1.39,1.14,-1.14,-0.79,-1.00,0.23,0.25,0.26
420.12,1.37,1.11,1.39,1.13,-1.13,-0.76,-0.98,0.24,0.25,0.26
424.32,1.37,1.11,1.38,1.12,-1.12,-0.74,-0.97,0.25,0.26,0.26
428.56,1.37,1.11,1.37,1.11,-1.11,-0.71,-0.95,0.26,0.26,0.26
432.85,1.37,1.11,1.35,1.09,-1.09,-0.69,-0.94,0.28,0.26,0.26
437.18,1.37,1.10,1.33,1.07,-1.07,-0.67,-0.92,0.30,0.27,0.27
441.55,1.37,1.10,1.31,1.04,-1.04,-0.65,-0.90,0.33,0.27,0.27
445.96,1.37,1.10,1.29,1.01,-1.01,-0.63,-0.89,0.36,0.28,0.27
450.42,1.37,1.09,1.28,0.99,-0.99,-0.61,-0.87,0.38,0.29,0.28
454.93,1.19,0.90,1.26,0.97,-0.97,-0.58,-0.86,0.22,0.30,0.29
459.48,1.14,0.84,1.24,0.94,-0.94,-0.56,-0.84,0.20,0.31,0.30
464.07,1.14,0.82,1.22,0.90,-0.90,-0.55,-0.82,0.24,0.32,0.32
468.71,1.14,0.80,1.20,0.86,-0.86,-0.53,-0.80,0.28,0.34,0.34
473.40,1.14,0.79,1.18,0.82,-0.82,-0.51,-0.79,0.32,0.36,0.35
478.13,1.14,0.76,1.15,0.77,-0.77,-0.49,-0.77,0.37,0.38,0.38
482.91,1.14,0.74,1.12,0.72,-0.72,-0.47,-0.75,0.42,0.40,0.40
487.74,1.14,0.71,1.09,0.66,-0.66,-0.45,-0.73,0.48,0.43,0.43
492.62,1.14,0.68,1.05,0.61,-0.61,-0.44,-0.71,0.53,0.45,0.46
497.55,1.14,0.67,1.02,0.54,-0.54,-0.42,-0.69,0.60,0.48,0.47
502.52,1.01,0.51,0.98,0.48,-0.48,-0.40,-0.66,0.53,0.50,0.50
507.55,0.92,0.40,0.94,0.41,-0.41,-0.39,-0.64,0.51,0.52,0.52
512.62,0.91,0.36,0.90,0.35,-0.35,-0.37,-0.61,0.56,0.55,0.55
517.75,0.91,0.34,0.86,0.29,-0.29,-0.35,-0.59,0.62,0.57,0.57
522.93,0.85,0.25,0.83,0.24,-0.24,-0.34,-0.56,0.61,0.59,0.60
528.16,0.71,0.10,0.80,0.19,-0.19,-0.32,-0.53,0.52,0.61,0.61
