frequency,raw,error,smoothed,error_smoothed,equalization,parametric_eq,fixed_band_eq,equalized_raw,equalized_smoothed,target
20.00,1.09,-4.33,1.11,-4.33,4.33,3.62,1.66,5.42,5.44,5.42
20.20,1.13,-4.33,1.15,-4.32,4.32,3.67,1.71,5.45,5.47,5.46
20.40,1.18,-4.31,1.19,-4.31,4.31,3.71,1.76,5.49,5.50,5.49
20.61,1.22,-4.30,1.23,-4.29,4.29,3.76,1.81,5.51,5.52,5.52
20.81,1.27,-4.29,1.27,-4.28,4.28,3.81,1.86,5.55,5.55,5.56
21.02,1.31,-4.29,1.31,-4.26,4.26,3.85,1.91,5.57,5.57,5.60
21.23,1.36,-4.25,1.35,-4.25,4.25,3.89,1.97,5.60,5.59,5.61
21.44,1.41,-4.22,1.39,-4.23,4.23,3.93,2.02,5.64,5.61,5.63
21.66,1.46,-4.19,1.42,-4.21,4.21,3.97,2.08,5.67,5.63,5.65
21.87,1.51,-4.15,1.46,-4.19,4.19,4.01,2.14,5.70,5.65,5.66
22.09,1.54,-4.13,1.50,-4.17,4.17,4.04,2.20,5.71,5.66,5.67
22.31,1.56,-4.11,1.53,-4.14,4.14,4.07,2.26,5.70,5.68,5.67
22.54,1.57,-4.11,1.57,-4.12,4.12,4.10,2.33,5.69,5.69,5.68
22.76,1.58,-4.11,1.60,-4.10,4.10,4.12,2.39,5.68,5.70,5.69
22.99,1.59,-4.10,1.63,-4.07,4.07,4.15,2.46,5.66,5.70,5.69
23.22,1.63,-4.07,1.67,-4.04,4.04,4.17,2.53,5.67,5.71,5.70
23.45,1.67,-4.04,1.70,-4.01,4.01,4.18,2.60,5.68,5.72,5.71
23.69,1.71,-4.01,1.73,-3.99,3.99,4.20,2.67,5.70,5.72,5.72
23.92,1.76,-3.97,1.76,-3.96,3.96,4.21,2.74,5.72,5.73,5.73
24.16,1.80,-3.94,1.79,-3.93,3.93,4.21,2.82,5.73,5.73,5.74
24.40,1.85,-3.90,1.83,-3.90,3.90,4.22,2.89,5.75,5.73,5.75
24.65,1.89,-3.85,1.86,-3.87,3.87,4.22,2.97,5.76,5.73,5.74
24.89,1.94,-3.80,1.90,-3.84,3.84,4.21,3.05,5.78,5.74,5.74
25.14,1.97,-3.77,1.94,-3.80,3.80,4.21,3.12,5.77,5.74,5.74
25.39,1.98,-3.76,1.97,-3.77,3.77,4.20,3.20,5.75,5.74,5.74
25.65,1.99,-3.75,2.01,-3.73,3.73,4.18,3.28,5.72,5.74,5.74
25.91,2.00,-3.72,2.04,-3.70,3.70,4.17,3.35,5.70,5.74,5.72
26.16,2.03,-3.70,2.07,-3.67,3.67,4.15,3.43,5.70,5.73,5.73
26.43,2.07,-3.66,2.09,-3.64,3.64,4.13,3.51,5.71,5.73,5.73
26.69,2.12,-3.61,2.11,-3.62,3.62,4.10,3.58,5.74,5.73,5.73
26.96,2.16,-3.57,2.13,-3.60,3.60,4.07,3.65,5.76,5.72,5.73
27.23,2.18,-3.55,2.15,-3.58,3.58,4.04,3.72,5.75,5.72,5.73
27.50,2.20,-3.53,2.17,-3.55,3.55,4.01,3.79,5.75,5.72,5.73
27.77,2.22,-3.50,2.20,-3.52,3.52,3.97,3.86,5.74,5.72,5.72
28.05,2.23,-3.49,2.22,-3.49,3.49,3.93,3.92,5.72,5.72,5.72
28.33,2.23,-3.47,2.25,-3.46,3.46,3.89,3.98,5.69,5.71,5.70
28.62,2.23,-3.48,2.28,-3.43,3.43,3.85,4.03,5.66,5.71,5.71
28.90,2.23,-3.48,2.30,-3.41,3.41,3.81,4.08,5.64,5.71,5.71
29.19,2.27,-3.43,2.33,-3.38,3.38,3.76,4.12,5.65,5.71,5.70
29.48,2.34,-3.37,2.35,-3.36,3.36,3.71,4.16,5.70,5.70,5.71
29.78,2.40,-3.31,2.36,-3.34,3.34,3.66,4.20,5.73,5.70,5.71
30.08,2.45,-3.26,2.38,-3.32,3.32,3.61,4.22,5.77,5.70,5.71
30.38,2.45,-3.24,2.39,-3.30,3.30,3.56,4.24,5.75,5.69,5.69
30.68,2.45,-3.24,2.40,-3.28,3.28,3.51,4.26,5.73,5.69,5.69
30.99,2.45,-3.23,2.42,-3.26,3.26,3.45,4.27,5.71,5.68,5.68
31.30,2.45,-3.23,2.44,-3.24,3.24,3.40,4.27,5.69,5.68,5.68
31.61,2.45,-3.23,2.46,-3.21,3.21,3.34,4.26,5.66,5.67,5.68
31.93,2.45,-3.21,2.48,-3.19,3.19,3.29,4.25,5.64,5.67,5.66
32.24,2.45,-3.20,2.50,-3.16,3.16,3.23,4.23,5.61,5.66,5.65
32.57,2.45,-3.20,2.52,-3.14,3.14,3.18,4.20,5.59,5.66,5.65
32.89,2.45,-3.20,2.53,-3.12,3.12,3.12,4.17,5.57,5.65,5.65
33.22,2.50,-3.15,2.55,-3.10,3.10,3.06,4.14,5.60,5.65,5.65
33.55,2.58,-3.06,2.56,-3.08,3.08,3.01,4.09,5.66,5.64,5.64
33.89,2.65,-2.99,2.58,-3.06,3.06,2.95,4.05,5.71,5.64,5.64
34.23,2.68,-2.96,2.59,-3.04,3.04,2.89,4.00,5.72,5.63,5.64
34.57,2.68,-2.95,2.62,-3.01,3.01,2.84,3.94,5.69,5.63,5.63
34.92,2.68,-2.94,2.64,-2.98,2.98,2.78,3.88,5.66,5.62,5.62
35.27,2.68,-2.94,2.67,-2.95,2.95,2.72,3.82,5.63,5.62,5.62
35.62,2.68,-2.93,2.69,-2.92,2.92,2.67,3.75,5.60,5.61,5.61
35.97,2.68,-2.92,2.72,-2.89,2.89,2.61,3.68,5.57,5.61,5.60
36.33,2.68,-2.92,2.74,-2.86,2.86,2.56,3.62,5.54,5.60,5.60
36.70,2.68,-2.92,2.76,-2.83,2.83,2.51,3.54,5.51,5.59,5.60
37.06,2.69,-2.89,2.78,-2.80,2.80,2.45,3.47,5.49,5.58,5.58
37.43,2.78,-2.80,2.80,-2.78,2.78,2.40,3.40,5.56,5.58,5.58
37.81,2.87,-2.70,2.81,-2.76,2.76,2.35,3.33,5.63,5.57,5.57
38.19,2.91,-2.65,2.83,-2.73,2.73,2.29,3.25,5.64,5.56,5.56
38.57,2.91,-2.65,2.86,-2.70,2.70,2.24,3.18,5.61,5.56,5.56
38.95,2.91,-2.64,2.87,-2.68,2.68,2.19,3.11,5.59,5.55,5.55
39.34,2.91,-2.63,2.89,-2.65,2.65,2.14,3.04,5.56,5.55,5.54
39.74,2.91,-2.61,2.90,-2.64,2.64,2.10,2.96,5.55,5.54,5.52
40.14,2.91,-2.62,2.91,-2.62,2.62,2.05,2.89,5.53,5.53,5.53
40.54,2.91,-2.61,2.91,-2.61,2.61,2.00,2.83,5.52,5.52,5.52
40.94,2.91,-2.61,2.91,-2.60,2.60,1.95,2.76,5.51,5.51,5.52
41.35,2.91,-2.59,2.91,-2.58,2.58,1.91,2.69,5.49,5.49,5.50
41.76,2.91,-2.57,2.91,-2.56,2.56,1.86,2.63,5.47,5.47,5.48
42.18,2.91,-2.56,2.92,-2.53,2.53,1.82,2.57,5.44,5.45,5.47
42.60,2.91,-2.53,2.93,-2.50,2.50,1.77,2.50,5.40,5.43,5.44
43.03,2.91,-2.52,2.95,-2.45,2.45,1.73,2.45,5.36,5.40,5.43
43.46,2.91,-2.49,2.97,-2.41,2.41,1.69,2.39,5.32,5.38,5.40
43.90,2.91,-2.44,2.99,-2.36,2.36,1.65,2.33,5.27,5.35,5.35
44.33,2.99,-2.33,3.02,-2.31,2.31,1.60,2.28,5.30,5.33,5.32
44.78,3.09,-2.20,3.04,-2.26,2.26,1.56,2.23,5.35,5.30,5.29
45.23,3.14,-2.12,3.06,-2.21,2.21,1.53,2.18,5.35,5.27,5.26
45.68,3.14,-2.09,3.08,-2.17,2.17,1.49,2.13,5.31,5.25,5.23
46.13,3.14,-2.07,3.10,-2.12,2.12,1.45,2.08,5.26,5.23,5.21
46.60,3.14,-2.06,3.12,-2.09,2.09,1.41,2.04,5.23,5.21,5.20
47.06,3.14,-2.04,3.13,-2.06,2.06,1.37,1.99,5.20,5.19,5.18
47.53,3.14,-2.04,3.15,-2.03,2.03,1.34,1.95,5.17,5.18,5.18
48.01,3.14,-2.04,3.15,-2.02,2.02,1.30,1.91,5.16,5.17,5.18
48.49,3.14,-2.02,3.16,-2.01,2.01,1.27,1.87,5.15,5.17,5.16
48.97,3.14,-2.01,3.16,-2.01,2.01,1.23,1.84,5.15,5.16,5.15
49.46,3.14,-2.00,3.15,-2.01,2.01,1.20,1.80,5.15,5.16,5.14
49.96,3.14,-2.00,3.14,-2.01,2.01,1.17,1.77,5.15,5.16,5.14
50.46,3.14,-2.01,3.14,-2.01,2.01,1.13,1.73,5.15,5.15,5.15
50.96,3.14,-2.02,3.14,-2.00,2.00,1.10,1.70,5.14,5.14,5.16
51.47,3.14,-2.01,3.14,-1.99,1.99,1.07,1.67,5.13,5.13,5.15
51.99,3.14,-1.99,3.14,-1.98,1.98,1.04,1.64,5.12,5.12,5.13
52.51,3.14,-1.98,3.14,-1.96,1.96,1.01,1.61,5.10,5.10,5.12
53.03,3.14,-1.95,3.14,-1.93,1.93,0.98,1.59,5.07,5.07,5.09
53.56,3.14,-1.92,3.14,-1.90,1.90,0.95,1.56,5.04,5.04,5.06
54.10,3.14,-1.88,3.14,-1.87,1.87,0.92,1.53,5.01,5.01,5.02
54.64,3.14,-1.83,3.13,-1.84,1.84,0.89,1.51,4.98,4.97,4.97
55.18,3.14,-1.78,3.12,-1.80,1.80,0.86,1.48,4.94,4.92,4.92
55.74,3.14,-1.73,3.12,-1.75,1.75,0.84,1.46,4.89,4.87,4.87
56.29,3.14,-1.68,3.13,-1.69,1.69,0.81,1.43,4.83,4.82,4.82
56.86,3.14,-1.62,3.14,-1.62,1.62,0.78,1.41,4.76,4.76,4.76
57.42,3.14,-1.55,3.15,-1.55,1.55,0.75,1.38,4.69,4.70,4.69
58.00,3.14,-1.49,3.17,-1.47,1.47,0.73,1.36,4.61,4.64,4.63
58.58,3.14,-1.43,3.19,-1.39,1.39,0.70,1.33,4.53,4.58,4.57
59.16,3.14,-1.38,3.21,-1.31,1.31,0.68,1.31,4.45,4.51,4.52
59.76,3.14,-1.32,3.23,-1.22,1.22,0.65,1.28,4.36,4.45,4.46
60.35,3.22,-1.17,3.25,-1.14,1.14,0.63,1.25,4.36,4.39,4.39
60.96,3.36,-0.98,3.27,-1.06,1.06,0.60,1.23,4.42,4.33,4.34
61.57,3.37,-0.90,3.29,-0.98,0.98,0.58,1.20,4.35,4.27,4.27
62.18,3.37,-0.83,3.32,-0.90,0.90,0.56,1.17,4.27,4.22,4.20
62.80,3.37,-0.79,3.33,-0.83,0.83,0.53,1.14,4.20,4.16,4.16
63.43,3.37,-0.73,3.35,-0.76,0.76,0.51,1.11,4.13,4.11,4.10
64.07,3.37,-0.69,3.37,-0.69,0.69,0.49,1.08,4.06,4.06,4.06
64.71,3.37,-0.64,3.39,-0.62,0.62,0.46,1.05,3.99,4.01,4.01
65.35,3.37,-0.59,3.40,-0.57,0.57,0.44,1.01,3.94,3.97,3.96
66.01,3.37,-0.56,3.40,-0.53,0.53,0.42,0.98,3.90,3.93,3.93
66.67,3.37,-0.52,3.40,-0.50,0.50,0.40,0.95,3.87,3.89,3.89
67.33,3.37,-0.49,3.38,-0.48,0.48,0.37,0.91,3.85,3.86,3.86
68.01,3.37,-0.46,3.36,-0.47,0.47,0.35,0.88,3.84,3.83,3.83
68.69,3.37,-0.43,3.34,-0.46,0.46,0.33,0.84,3.83,3.79,3.80
69.37,3.37,-0.39,3.32,-0.44,0.44,0.31,0.80,3.81,3.76,3.76
70.07,3.37,-0.36,3.30,-0.43,0.43,0.29,0.77,3.80,3.73,3.73
70.77,3.37,-0.35,3.28,-0.43,0.43,0.27,0.73,3.80,3.70,3.72
71.48,3.26,-0.42,3.25,-0.42,0.42,0.24,0.69,3.68,3.67,3.68
72.19,3.14,-0.52,3.23,-0.41,0.41,0.22,0.65,3.55,3.64,3.66
72.91,3.14,-0.48,3.21,-0.40,0.40,0.20,0.61,3.54,3.62,3.62
73.64,3.14,-0.45,3.19,-0.39,0.39,0.18,0.57,3.53,3.58,3.59
74.38,3.14,-0.42,3.17,-0.38,0.38,0.16,0.53,3.52,3.55,3.56
75.12,3.14,-0.39,3.15,-0.37,0.37,0.14,0.49,3.51,3.53,3.53
75.87,3.14,-0.36,3.14,-0.36,0.36,0.12,0.45,3.50,3.50,3.50
76.63,3.14,-0.33,3.13,-0.34,0.34,0.10,0.41,3.48,3.47,3.47
77.40,3.14,-0.30,3.12,-0.32,0.32,0.08,0.37,3.46,3.45,3.44
78.17,3.14,-0.27,3.12,-0.30,0.30,0.06,0.33,3.44,3.42,3.41
78.95,3.14,-0.26,3.12,-0.28,0.28,0.04,0.29,3.41,3.40,3.40
79.74,3.14,-0.24,3.13,-0.25,0.25,0.02,0.25,3.39,3.38,3.38
80.54,3.14,-0.22,3.14,-0.22,0.22,-0.00,0.21,3.36,3.36,3.36
81.35,3.14,-0.20,3.14,-0.21,0.21,-0.02,0.17,3.35,3.35,3.34
82.16,3.14,-0.20,3.14,-0.20,0.20,-0.04,0.12,3.34,3.34,3.34
82.98,3.14,-0.20,3.14,-0.20,0.20,-0.06,0.08,3.34,3.34,3.34
83.81,3.14,-0.19,3.14,-0.19,0.19,-0.09,0.04,3.33,3.33,3.33
84.65,3.14,-0.18,3.14,-0.19,0.19,-0.11,-0.00,3.33,3.33,3.32
85.50,3.14,-0.19,3.14,-0.19,0.19,-0.13,-0.04,3.33,3.33,3.33
86.35,3.14,-0.19,3.14,-0.19,0.19,-0.15,-0.09,3.33,3.33,3.33
87.22,3.14,-0.19,3.14,-0.19,0.19,-0.17,-0.13,3.33,3.33,3.33
88.09,3.14,-0.19,3.14,-0.19,0.19,-0.19,-0.17,3.33,3.33,3.33
88.97,3.14,-0.21,3.14,-0.20,0.20,-0.21,-0.21,3.33,3.33,3.35
89.86,3.14,-0.21,3.14,-0.19,0.19,-0.23,-0.26,3.33,3.33,3.35
90.76,3.14,-0.19,3.14,-0.19,0.19,-0.25,-0.30,3.33,3.33,3.33
91.66,3.14,-0.20,3.14,-0.19,0.19,-0.28,-0.34,3.33,3.33,3.34
92.58,3.14,-0.17,3.14,-0.18,0.18,-0.30,-0.39,3.32,3.32,3.31
93.51,3.14,-0.18,3.14,-0.17,0.17,-0.32,-0.43,3.31,3.31,3.32
94.44,3.14,-0.16,3.14,-0.16,0.16,-0.34,-0.47,3.30,3.30,3.30
95.39,3.14,-0.15,3.13,-0.15,0.15,-0.37,-0.52,3.29,3.28,3.29
96.34,3.14,-0.11,3.12,-0.14,0.14,-0.39,-0.56,3.28,3.26,3.25
97.30,3.14,-0.09,3.12,-0.12,0.12,-0.41,-0.60,3.26,3.24,3.23
98.28,3.14,-0.07,3.13,-0.09,0.09,-0.44,-0.65,3.23,3.21,3.21
99.26,3.14,-0.04,3.14,-0.05,0.05,-0.46,-0.69,3.19,3.18,3.18
100.25,3.14,-0.01,3.15,-0.00,0.00,-0.48,-0.74,3.14,3.15,3.15
101.25,3.14,0.02,3.16,0.05,-0.05,-0.51,-0.78,3.09,3.11,3.12
102.27,3.14,0.06,3.18,0.11,-0.11,-0.53,-0.82,3.03,3.07,3.08
103.29,3.14,0.11,3.20,0.17,-0.17,-0.56,-0.87,2.97,3.03,3.03
104.32,3.14,0.15,3.22,0.24,-0.24,-0.58,-0.91,2.90,2.98,2.99
105.37,3.20,0.26,3.24,0.32,-0.32,-0.61,-0.95,2.88,2.93,2.94
106.42,3.33,0.44,3.27,0.40,-0.40,-0.63,-1.00,2.93,2.87,2.89
107.48,3.37,0.55,3.29,0.48,-0.48,-0.66,-1.04,2.89,2.81,2.82
108.56,3.37,0.63,3.31,0.57,-0.57,-0.69,-1.08,2.80,2.74,2.74
109.64,3.37,0.70,3.33,0.66,-0.66,-0.71,-1.12,2.71,2.67,2.67
110.74,3.37,0.76,3.35,0.75,-0.75,-0.74,-1.16,2.62,2.60,2.61
111.85,3.37,0.83,3.36,0.84,-0.84,-0.77,-1.20,2.53,2.53,2.54
112.97,3.37,0.92,3.38,0.92,-0.92,-0.80,-1.24,2.45,2.45,2.45
114.10,3.37,0.98,3.38,1.00,-1.00,-0.83,-1.28,2.37,2.38,2.39
115.24,3.37,1.06,3.39,1.07,-1.07,-0.86,-1.31,2.30,2.31,2.31
116.39,3.37,1.14,3.39,1.14,-1.14,-0.89,-1.35,2.23,2.25,2.23
117.55,3.37,1.20,3.38,1.19,-1.19,-0.92,-1.38,2.17,2.18,2.17
118.73,3.37,1.27,3.37,1.25,-1.25,-0.95,-1.41,2.12,2.13,2.10
119.92,3.37,1.31,3.37,1.30,-1.30,-0.98,-1.44,2.07,2.07,2.06
121.12,3.37,1.37,3.37,1.35,-1.35,-1.01,-1.47,2.02,2.02,2.00
122.33,3.37,1.41,3.37,1.39,-1.39,-1.04,-1.49,1.97,1.97,1.96
123.55,3.37,1.43,3.37,1.44,-1.44,-1.07,-1.52,1.93,1.93,1.94
124.79,3.37,1.47,3.37,1.48,-1.48,-1.11,-1.54,1.89,1.89,1.90
126.03,3.37,1.51,3.37,1.51,-1.51,-1.14,-1.56,1.86,1.86,1.86
127.29,3.37,1.54,3.37,1.55,-1.55,-1.18,-1.58,1.82,1.82,1.83
128.57,3.37,1.58,3.37,1.58,-1.58,-1.21,-1.60,1.79,1.79,1.79
129.85,3.37,1.61,3.37,1.61,-1.61,-1.25,-1.62,1.76,1.76,1.76
131.15,3.37,1.64,3.37,1.65,-1.65,-1.29,-1.63,1.72,1.72,1.73
132.46,3.37,1.67,3.37,1.68,-1.68,-1.32,-1.64,1.69,1.69,1.70
133.79,3.37,1.70,3.37,1.71,-1.71,-1.36,-1.66,1.66,1.66,1.67
135.12,3.37,1.75,3.37,1.74,-1.74,-1.40,-1.67,1.63,1.63,1.62
136.48,3.37,1.78,3.37,1.78,-1.78,-1.44,-1.68,1.59,1.59,1.59
137.84,3.37,1.81,3.37,1.81,-1.81,-1.48,-1.69,1.56,1.56,1.56
139.22,3.37,1.86,3.37,1.85,-1.85,-1.52,-1.69,1.52,1.52,1.51
140.61,3.37,1.91,3.37,1.89,-1.89,-1.56,-1.70,1.48,1.48,1.46
142.02,3.37,1.93,3.37,1.93,-1.93,-1.60,-1.71,1.44,1.44,1.44
143.44,3.37,1.97,3.37,1.97,-1.97,-1.64,-1.72,1.40,1.40,1.40
144.87,3.37,2.01,3.37,2.02,-2.02,-1.68,-1.72,1.34,1.34,1.36
146.32,3.37,2.06,3.38,2.09,-2.09,-1.73,-1.73,1.28,1.29,1.31
147.78,3.37,2.10,3.38,2.15,-2.15,-1.77,-1.74,1.21,1.23,1.27
149.26,3.37,2.17,3.39,2.22,-2.22,-1.82,-1.74,1.15,1.17,1.20
150.75,3.37,2.25,3.39,2.28,-2.28,-1.86,-1.75,1.09,1.10,1.12
152.26,3.37,2.32,3.38,2.35,-2.35,-1.91,-1.76,1.02,1.03,1.05
153.78,3.37,2.39,3.37,2.41,-2.41,-1.95,-1.77,0.96,0.96,0.98
155.32,3.37,2.49,3.35,2.46,-2.46,-2.00,-1.78,0.90,0.89,0.88
156.88,3.37,2.56,3.34,2.52,-2.52,-2.04,-1.79,0.85,0.82,0.81
158.44,3.37,2.63,3.32,2.57,-2.57,-2.09,-1.80,0.80,0.75,0.74
160.03,3.37,2.71,3.30,2.61,-2.61,-2.14,-1.82,0.76,0.68,0.66
161.63,3.37,2.77,3.27,2.65,-2.65,-2.18,-1.83,0.72,0.62,0.60
163.24,3.23,2.68,3.25,2.68,-2.68,-2.23,-1.85,0.55,0.57,0.55
164.88,3.14,2.63,3.23,2.70,-2.70,-2.28,-1.86,0.44,0.53,0.51
166.53,3.14,2.67,3.21,2.71,-2.71,-2.33,-1.88,0.42,0.49,0.47
168.19,3.14,2.70,3.19,2.72,-2.72,-2.37,-1.90,0.42,0.47,0.44
169.87,3.14,2.71,3.17,2.72,-2.72,-2.42,-1.92,0.42,0.45,0.43
171.57,3.14,2.72,3.15,2.72,-2.72,-2.47,-1.95,0.42,0.44,0.42
173.29,3.14,2.72,3.14,2.71,-2.71,-2.51,-1.97,0.43,0.43,0.42
175.02,3.14,2.70,3.13,2.70,-2.70,-2.56,-2.00,0.44,0.43,0.44
176.77,3.14,2.71,3.12,2.70,-2.70,-2.60,-2.03,0.44,0.42,0.43
178.54,3.14,2.70,3.12,2.69,-2.69,-2.65,-2.06,0.44,0.43,0.44
180.32,3.14,2.69,3.12,2.70,-2.70,-2.69,-2.09,0.44,0.43,0.45
182.13,3.14,2.69,3.13,2.71,-2.71,-2.73,-2.12,0.43,0.42,0.45
183.95,3.14,2.69,3.14,2.72,-2.72,-2.77,-2.15,0.42,0.42,0.45
185.79,3.14,2.70,3.14,2.72,-2.72,-2.82,-2.19,0.42,0.42,0.44
187.65,3.14,2.72,3.14,2.73,-2.73,-2.85,-2.23,0.41,0.41,0.42
189.52,3.14,2.74,3.14,2.74,-2.74,-2.89,-2.27,0.40,0.40,0.40
191.42,3.14,2.76,3.14,2.75,-2.75,-2.93,-2.31,0.39,0.39,0.38
193.33,3.14,2.78,3.14,2.77,-2.77,-2.96,-2.35,0.37,0.37,0.36
195.27,3.14,2.78,3.14,2.79,-2.79,-2.99,-2.39,0.35,0.35,0.36
197.22,3.14,2.80,3.14,2.80,-2.80,-3.02,-2.44,0.33,0.33,0.34
199.19,3.14,2.84,3.14,2.82,-2.82,-3.05,-2.48,0.32,0.32,0.30
201.18,3.14,2.84,3.14,2.84,-2.84,-3.08,-2.53,0.30,0.30,0.30
203.19,3.14,2.86,3.14,2.86,-2.86,-3.10,-2.57,0.28,0.28,0.28
205.23,3.14,2.89,3.14,2.88,-2.88,-3.12,-2.62,0.26,0.26,0.25
207.28,3.14,2.89,3.14,2.90,-2.90,-3.14,-2.67,0.24,0.24,0.25
209.35,3.14,2.91,3.14,2.91,-2.91,-3.16,-2.71,0.23,0.23,0.23
211.44,3.14,2.94,3.14,2.93,-2.93,-3.17,-2.76,0.21,0.21,0.20
213.56,3.14,2.94,3.15,2.95,-2.95,-3.18,-2.81,0.19,0.20,0.20
215.69,3.14,2.94,3.15,2.97,-2.97,-3.19,-2.85,0.17,0.18,0.20
217.85,3.14,2.97,3.16,2.99,-2.99,-3.19,-2.90,0.15,0.17,0.17
220.03,3.14,2.98,3.16,3.00,-3.00,-3.20,-2.94,0.14,0.16,0.16
222.23,3.14,3.00,3.15,3.00,-3.00,-3.19,-2.98,0.14,0.15,0.14
224.45,3.14,3.00,3.14,3.00,-3.00,-3.19,-3.02,0.14,0.14,0.14
226.70,3.14,3.00,3.13,2.99,-2.99,-3.18,-3.05,0.15,0.13,0.14
228.96,3.14,3.01,3.11,2.98,-2.98,-3.17,-3.09,0.16,0.13,0.13
231.25,3.14,3.01,3.09,2.97,-2.97,-3.16,-3.12,0.17,0.12,0.13
233.57,3.14,3.02,3.07,2.95,-2.95,-3.15,-3.15,0.19,0.12,0.12
235.90,3.14,3.03,3.05,2.93,-2.93,-3.13,-3.17,0.21,0.12,0.11
238.26,3.03,2.92,3.03,2.91,-2.91,-3.11,-3.19,0.12,0.12,0.11
240.64,2.93,2.82,3.00,2.89,-2.89,-3.09,-3.21,0.04,0.12,0.11
243.05,2.91,2.79,2.98,2.86,-2.86,-3.06,-3.22,0.05,0.12,0.12
245.48,2.91,2.78,2.96,2.84,-2.84,-3.04,-3.22,0.07,0.13,0.13
247.93,2.91,2.77,2.94,2.81,-2.81,-3.01,-3.23,0.10,0.13,0.14
250.41,2.91,2.78,2.93,2.79,-2.79,-2.97,-3.23,0.12,0.14,0.13
252.92,2.91,2.77,2.91,2.77,-2.77,-2.94,-3.22,0.14,0.14,0.14
255.45,2.91,2.74,2.90,2.75,-2.75,-2.91,-3.21,0.16,0.15,0.17
258.00,2.91,2.74,2.91,2.75,-2.75,-2.87,-3.19,0.16,0.16,0.17
260.58,2.91,2.74,2.91,2.74,-2.74,-2.83,-3.17,0.17,0.17,0.17
263.19,2.91,2.72,2.91,2.73,-2.73,-2.79,-3.15,0.18,0.19,0.19
265.82,2.91,2.72,2.92,2.71,-2.71,-2.75,-3.12,0.20,0.20,0.19
268.48,2.91,2.69,2.91,2.70,-2.70,-2.71,-3.09,0.21,0.22,0.22
271.16,2.91,2.68,2.90,2.67,-2.67,-2.67,-3.05,0.24,0.23,0.23
273.87,2.91,2.67,2.88,2.63,-2.63,-2.63,-3.01,0.28,0.25,0.24
276.61,2.91,2.63,2.87,2.59,-2.59,-2.58,-2.97,0.32,0.27,0.28
279.38,2.91,2.62,2.85,2.55,-2.55,-2.54,-2.92,0.36,0.30,0.29
282.17,2.91,2.59,2.82,2.50,-2.50,-2.49,-2.88,0.41,0.32,0.32
284.99,2.86,2.51,2.80,2.45,-2.45,-2.45,-2.83,0.41,0.35,0.35
287.84,2.69,2.32,2.78,2.40,-2.40,-2.40,-2.77,0.29,0.38,0.37
290.72,2.68,2.27,2.76,2.35,-2.35,-2.35,-2.72,0.33,0.40,0.41
293.63,2.68,2.25,2.74,2.30,-2.30,-2.31,-2.67,0.38,0.43,0.43
296.57,2.68,2.22,2.72,2.26,-2.26,-2.26,-2.61,0.42,0.46,0.46
299.53,2.68,2.19,2.70,2.22,-2.22,-2.22,-2.56,0.46,0.48,0.49
302.53,2.68,2.18,2.68,2.18,-2.18,-2.17,-2.50,0.50,0.51,0.50
305.55,2.68,2.14,2.67,2.15,-2.15,-2.12,-2.45,0.53,0.53,0.54
308.61,2.68,2.12,2.67,2.13,-2.13,-2.08,-2.39,0.55,0.54,0.56
311.69,2.68,2.11,2.68,2.12,-2.12,-2.03,-2.34,0.56,0.56,0.57
314.81,2.68,2.08,2.68,2.11,-2.11,-1.99,-2.28,0.57,0.57,0.60
317.96,2.68,2.08,2.68,2.10,-2.10,-1.94,-2.23,0.58,0.58,0.60
321.14,2.68,2.09,2.69,2.09,-2.09,-1.90,-2.17,0.59,0.60,0.59
324.35,2.68,2.08,2.68,2.07,-2.07,-1.86,-2.12,0.61,0.60,0.60
327.59,2.68,2.07,2.66,2.05,-2.05,-1.81,-2.07,0.63,0.61,0.61
330.87,2.68,2.06,2.64,2.02,-2.02,-1.77,-2.02,0.66,0.62,0.62
334.18,2.68,2.06,2.62,1.99,-1.99,-1.73,-1.97,0.69,0.63,0.62
337.52,2.68,2.05,2.60,1.96,-1.96,-1.69,-1.92,0.72,0.65,0.63
340.90,2.68,2.02,2.58,1.92,-1.92,-1.65,-1.88,0.76,0.66,0.66
344.30,2.50,1.83,2.56,1.88,-1.88,-1.61,-1.83,0.61,0.67,0.67
347.75,2.45,1.77,2.54,1.84,-1.84,-1.57,-1.79,0.60,0.69,0.68
351.23,2.45,1.74,2.51,1.80,-1.80,-1.53,-1.75,0.65,0.71,0.71
354.74,2.45,1.72,2.49,1.76,-1.76,-1.49,-1.70,0.69,0.73,0.73
358.28,2.45,1.69,2.48,1.72,-1.72,-1.45,-1.67,0.73,0.76,0.76
361.87,2.45,1.67,2.46,1.68,-1.68,-1.41,-1.63,0.76,0.78,0.78
365.49,2.45,1.65,2.46,1.66,-1.66,-1.38,-1.59,0.79,0.80,0.80
369.14,2.45,1.63,2.45,1.63,-1.63,-1.34,-1.55,0.82,0.82,0.82
372.83,2.45,1.60,2.45,1.60,-1.60,-1.31,-1.52,0.85,0.85,0.85
376.56,2.45,1.58,2.44,1.58,-1.58,-1.27,-1.49,0.87,0.87,0.87
380.33,2.45,1.55,2.44,1.55,-1.55,-1.24,-1.46,0.90,0.88,0.90
384.13,2.45,1.53,2.44,1.53,-1.53,-1.20,-1.42,0.92,0.90,0.92
387.97,2.45,1.52,2.42,1.50,-1.50,-1.17,-1.40,0.94,0.92,0.93
391.85,2.45,1.52,2.41,1.47,-1.47,-1.14,-1.37,0.98,0.93,0.93
395.77,2.45,1.51,2.39,1.44,-1.44,-1.11,-1.34,1.01,0.94,0.94
399.73,2.45,1.50,2.37,1.41,-1.41,-1.08,-1.31,1.04,0.95,0.95
403.72,2.37,1.41,2.35,1.38,-1.38,-1.04,-1.29,0.99,0.96,0.96
407.76,2.26,1.29,2.32,1.35,-1.35,-1.01,-1.26,0.90,0.97,0.97
411.84,2.23,1.25,2.31,1.33,-1.33,-0.99,-1.24,0.90,0.97,0.98
415.96,2.23,1.24,2.29,1.32,-1.32,-0.96,-1.22,0.91,0.98,0.99
420.12,2.23,1.24,2.28,1.30,-1.30,-0.93,-1.20,0.93,0.98,0.99
424.32,2.23,1.24,2.26,1.28,-1.28,-0.90,-1.17,0.95,0.98,0.99
428.56,2.23,1.24,2.25,1.26,-1.26,-0.87,-1.15,0.97,0.99,0.99
432.85,2.23,1.25,2.23,1.24,-1.24,-0.85,-1.13,0.99,0.99,0.98
437.18,2.23,1.24,2.21,1.21,-1.21,-0.82,-1.11,1.02,0.99,0.99
441.55,2.23,1.23,2.19,1.19,-1.19,-0.79,-1.09,1.04,1.00,1.00
445.96,2.23,1.23,2.17,1.17,-1.17,-0.77,-1.07,1.06,1.01,1.00
450.42,2.23,1.22,2.16,1.15,-1.15,-0.74,-1.05,1.08,1.01,1.01
454.93,2.23,1.21,2.14,1.12,-1.12,-0.72,-1.03,1.11,1.02,1.02
459.48,2.18,1.15,2.13,1.10,-1.10,-0.69,-1.00,1.08,1.04,1.03
464.07,2.03,0.98,2.12,1.07,-1.07,-0.67,-0.98,0.96,1.05,1.05
468.71,2.00,0.93,2.10,1.03,-1.03,-0.65,-0.96,0.97,1.07,1.07
473.40,2.00,0.92,2.07,0.98,-0.98,-0.62,-0.94,1.02,1.09,1.08
478.13,2.00,0.89,2.05,0.93,-0.93,-0.60,-0.92,1.06,1.11,1.11
482.91,2.00,0.87,2.02,0.88,-0.88,-0.58,-0.89,1.12,1.13,1.13
487.74,2.00,0.84,1.99,0.83,-0.83,-0.55,-0.87,1.17,1.16,1.16
492.62,2.00,0.81,1.96,0.78,-0.78,-0.53,-0.84,1.22,1.18,1.19
497.55,2.00,0.79,1.93,0.72,-0.72,-0.51,-0.81,1.28,1.21,1.21
502.52,2.00,0.76,1.91,0.67,-0.67,-0.49,-0.79,1.32,1.23,1.24
507.55,2.00,0.75,1.88,0.63,-0.63,-0.47,-0.76,1.37,1.25,1.25
512.62,1.83,0.55,1.87,0.59,-0.59,-0.45,-0.73,1.24,1.28,1.28
517.75,1.77,0.47,1.85,0.55,-0.55,-0.43,-0.70,1.21,1.30,1.30
522.93,1.77,0.44,1.83,0.51,-0.51,-0.41,-0.67,1.25,1.32,1.33
528.16,1.77,0.43,1.82,0.48,-0.48,-0.39,-0.63,1.29,1.34,1.34
533.44,1.77,0.41,1.81,0.46,-0.46,-0.37,-0.60,1.31,1.36,1.36
538.77,1.77,0.39,1.80,0.43,-0.43,-0.35,-0.57,1.34,1.37,1.38
544.16,1.77,0.38,1.78,0.40,-0.40,-0.33,-0.53,1.37,1.38,1.39
549.60,1.77,0.36,1.77,0.37,-0.37,-0.31,-0.50,1.40,1.40,1.41
555.10,1.77,0.36,1.75,0.34,-0.34,-0.29,-0.46,1.43,1.41,1.41
