frequency,raw,error,smoothed,error_smoothed,equalization,parametric_eq,fixed_band_eq,equalized_raw,equalized_smoothed,target
20.00,-0.67,0.23,-0.67,0.20,-0.20,0.10,0.59,-0.87,-0.87,-0.90
20.20,-0.65,0.16,-0.65,0.15,-0.15,0.11,0.60,-0.80,-0.80,-0.81
20.40,-0.63,0.10,-0.63,0.09,-0.09,0.11,0.62,-0.72,-0.72,-0.73
20.61,-0.61,0.05,-0.61,0.04,-0.04,0.12,0.64,-0.65,-0.65,-0.66
20.81,-0.59,-0.02,-0.59,-0.01,0.01,0.12,0.66,-0.58,-0.58,-0.57
21.02,-0.57,-0.08,-0.57,-0.06,0.06,0.13,0.68,-0.51,-0.51,-0.49
21.23,-0.55,-0.12,-0.55,-0.10,0.10,0.13,0.70,-0.45,-0.45,-0.43
21.44,-0.53,-0.16,-0.53,-0.14,0.14,0.14,0.72,-0.39,-0.39,-0.37
21.66,-0.52,-0.20,-0.52,-0.18,0.18,0.15,0.74,-0.34,-0.33,-0.32
21.87,-0.50,-0.23,-0.50,-0.22,0.22,0.15,0.76,-0.28,-0.28,-0.27
22.09,-0.48,-0.26,-0.48,-0.26,0.26,0.16,0.78,-0.22,-0.22,-0.22
22.31,-0.46,-0.29,-0.46,-0.29,0.29,0.17,0.80,-0.17,-0.17,-0.17
22.54,-0.45,-0.32,-0.45,-0.32,0.32,0.18,0.82,-0.13,-0.13,-0.13
22.76,-0.43,-0.34,-0.43,-0.34,0.34,0.19,0.85,-0.09,-0.08,-0.09
22.99,-0.41,-0.35,-0.41,-0.37,0.37,0.19,0.87,-0.04,-0.04,-0.06
23.22,-0.39,-0.37,-0.40,-0.39,0.39,0.20,0.90,-0.00,-0.01,-0.02
23.45,-0.38,-0.40,-0.38,-0.41,0.41,0.21,0.92,0.03,0.03,0.02
23.69,-0.36,-0.42,-0.36,-0.43,0.43,0.22,0.95,0.07,0.07,0.06
23.92,-0.35,-0.45,-0.35,-0.45,0.45,0.23,0.97,0.10,0.10,0.10
24.16,-0.33,-0.48,-0.33,-0.47,0.47,0.25,1.00,0.14,0.14,0.15
24.40,-0.32,-0.50,-0.32,-0.49,0.49,0.26,1.02,0.17,0.17,0.18
24.65,-0.30,-0.50,-0.30,-0.51,0.51,0.27,1.05,0.21,0.21,0.20
24.89,-0.29,-0.52,-0.29,-0.53,0.53,0.29,1.08,0.23,0.24,0.23
25.14,-0.27,-0.54,-0.27,-0.54,0.54,0.30,1.10,0.27,0.27,0.27
25.39,-0.26,-0.56,-0.26,-0.56,0.56,0.31,1.13,0.30,0.31,0.30
25.65,-0.24,-0.58,-0.24,-0.58,0.58,0.33,1.16,0.34,0.34,0.34
25.91,-0.23,-0.59,-0.23,-0.60,0.60,0.35,1.18,0.37,0.37,0.36
26.16,-0.21,-0.60,-0.22,-0.61,0.61,0.36,1.21,0.40,0.40,0.39
26.43,-0.20,-0.63,-0.20,-0.63,0.63,0.38,1.24,0.43,0.43,0.43
26.69,-0.19,-0.65,-0.19,-0.65,0.65,0.40,1.26,0.46,0.46,0.46
26.96,-0.18,-0.67,-0.18,-0.67,0.67,0.42,1.28,0.49,0.49,0.49
27.23,-0.17,-0.69,-0.17,-0.69,0.69,0.45,1.31,0.52,0.52,0.52
27.50,-0.16,-0.71,-0.16,-0.71,0.71,0.47,1.33,0.55,0.55,0.55
27.77,-0.15,-0.72,-0.15,-0.73,0.73,0.49,1.35,0.57,0.58,0.57
28.05,-0.14,-0.75,-0.14,-0.75,0.75,0.52,1.37,0.61,0.61,0.61
28.33,-0.13,-0.76,-0.13,-0.77,0.77,0.54,1.39,0.64,0.64,0.63
28.62,-0.13,-0.79,-0.12,-0.79,0.79,0.57,1.40,0.66,0.67,0.66
28.90,-0.12,-0.82,-0.12,-0.82,0.82,0.60,1.42,0.70,0.70,0.70
29.19,-0.12,-0.84,-0.12,-0.85,0.85,0.63,1.43,0.73,0.73,0.72
29.48,-0.11,-0.88,-0.12,-0.88,0.88,0.66,1.44,0.77,0.76,0.77
29.78,-0.10,-0.88,-0.13,-0.91,0.91,0.70,1.44,0.81,0.78,0.78
30.08,-0.11,-0.92,-0.13,-0.95,0.95,0.73,1.45,0.83,0.81,0.81
30.38,-0.13,-0.97,-0.14,-0.98,0.98,0.77,1.45,0.85,0.84,0.84
30.68,-0.15,-1.02,-0.15,-1.02,1.02,0.81,1.45,0.87,0.87,0.87
30.99,-0.17,-1.06,-0.16,-1.05,1.05,0.84,1.45,0.88,0.89,0.89
31.30,-0.18,-1.09,-0.17,-1.09,1.09,0.88,1.44,0.91,0.92,0.91
31.61,-0.19,-1.13,-0.18,-1.12,1.12,0.93,1.43,0.93,0.94,0.94
31.93,-0.21,-1.17,-0.19,-1.16,1.16,0.97,1.42,0.95,0.97,0.96
32.24,-0.21,-1.19,-0.20,-1.19,1.19,1.01,1.41,0.98,0.99,0.98
32.57,-0.22,-1.23,-0.21,-1.22,1.22,1.05,1.39,1.00,1.01,1.01
32.89,-0.22,-1.25,-0.22,-1.25,1.25,1.09,1.37,1.03,1.03,1.03
33.22,-0.22,-1.27,-0.23,-1.28,1.28,1.14,1.35,1.06,1.05,1.05
33.55,-0.23,-1.30,-0.24,-1.31,1.31,1.18,1.32,1.07,1.07,1.07
33.89,-0.24,-1.32,-0.24,-1.33,1.33,1.22,1.30,1.09,1.08,1.08
34.23,-0.24,-1.34,-0.25,-1.35,1.35,1.26,1.27,1.11,1.10,1.10
34.57,-0.25,-1.36,-0.25,-1.36,1.36,1.29,1.24,1.11,1.11,1.11
34.92,-0.25,-1.37,-0.25,-1.38,1.38,1.33,1.21,1.13,1.12,1.12
35.27,-0.25,-1.39,-0.25,-1.39,1.39,1.36,1.18,1.14,1.13,1.14
35.62,-0.26,-1.39,-0.25,-1.39,1.39,1.39,1.14,1.13,1.14,1.13
35.97,-0.26,-1.40,-0.25,-1.40,1.40,1.41,1.11,1.14,1.15,1.14
36.33,-0.26,-1.42,-0.25,-1.40,1.40,1.43,1.07,1.14,1.15,1.16
36.70,-0.25,-1.40,-0.25,-1.40,1.40,1.44,1.03,1.15,1.15,1.15
37.06,-0.25,-1.40,-0.24,-1.40,1.40,1.45,0.99,1.14,1.15,1.15
37.43,-0.23,-1.38,-0.23,-1.39,1.39,1.45,0.96,1.16,1.15,1.15
37.81,-0.22,-1.37,-0.22,-1.38,1.38,1.44,0.92,1.16,1.15,1.15
38.19,-0.20,-1.35,-0.21,-1.36,1.36,1.43,0.88,1.16,1.15,1.15
38.57,-0.19,-1.34,-0.20,-1.35,1.35,1.42,0.84,1.16,1.15,1.15
38.95,-0.18,-1.33,-0.18,-1.33,1.33,1.39,0.80,1.15,1.14,1.15
39.34,-0.17,-1.30,-0.17,-1.31,1.31,1.36,0.76,1.13,1.14,1.13
39.74,-0.15,-1.28,-0.15,-1.28,1.28,1.33,0.72,1.13,1.14,1.13
40.14,-0.13,-1.25,-0.13,-1.26,1.26,1.29,0.68,1.13,1.13,1.12
40.54,-0.11,-1.23,-0.11,-1.23,1.23,1.24,0.64,1.12,1.12,1.12
40.94,-0.08,-1.19,-0.08,-1.20,1.20,1.20,0.60,1.12,1.12,1.11
41.35,-0.06,-1.17,-0.06,-1.17,1.17,1.15,0.56,1.11,1.11,1.11
41.76,-0.03,-1.13,-0.03,-1.13,1.13,1.09,0.52,1.10,1.10,1.10
42.18,-0.00,-1.09,-0.01,-1.10,1.10,1.04,0.49,1.10,1.09,1.09
42.60,0.03,-1.05,0.02,-1.06,1.06,0.98,0.45,1.09,1.08,1.08
43.03,0.05,-1.03,0.05,-1.02,1.02,0.92,0.41,1.07,1.07,1.08
43.46,0.09,-0.98,0.09,-0.97,0.97,0.86,0.37,1.06,1.06,1.07
43.90,0.12,-0.93,0.12,-0.93,0.93,0.80,0.34,1.05,1.05,1.05
44.33,0.16,-0.87,0.16,-0.88,0.88,0.74,0.30,1.04,1.04,1.03
44.78,0.19,-0.83,0.19,-0.84,0.84,0.68,0.26,1.03,1.03,1.02
45.23,0.23,-0.78,0.23,-0.79,0.79,0.62,0.23,1.02,1.02,1.01
45.68,0.26,-0.74,0.27,-0.74,0.74,0.56,0.19,1.00,1.01,1.00
46.13,0.30,-0.69,0.31,-0.69,0.69,0.50,0.16,0.99,1.00,0.99
46.60,0.35,-0.64,0.35,-0.64,0.64,0.44,0.12,0.99,0.99,0.99
47.06,0.40,-0.58,0.39,-0.59,0.59,0.39,0.09,0.99,0.98,0.98
47.53,0.44,-0.53,0.43,-0.54,0.54,0.33,0.06,0.98,0.97,0.97
48.01,0.48,-0.49,0.48,-0.49,0.49,0.28,0.02,0.96,0.96,0.97
48.49,0.52,-0.44,0.52,-0.44,0.44,0.22,-0.01,0.95,0.95,0.96
48.97,0.56,-0.39,0.57,-0.38,0.38,0.17,-0.04,0.94,0.95,0.95
49.46,0.61,-0.32,0.61,-0.33,0.33,0.12,-0.08,0.94,0.94,0.93
49.96,0.66,-0.26,0.66,-0.28,0.28,0.07,-0.11,0.94,0.94,0.92
50.46,0.71,-0.22,0.71,-0.23,0.23,0.02,-0.14,0.94,0.94,0.93
50.96,0.76,-0.17,0.76,-0.17,0.17,-0.03,-0.18,0.93,0.93,0.93
51.47,0.81,-0.11,0.81,-0.12,0.12,-0.07,-0.21,0.93,0.93,0.92
51.99,0.86,-0.06,0.86,-0.06,0.06,-0.12,-0.24,0.92,0.92,0.92
52.51,0.92,-0.00,0.92,-0.00,0.00,-0.16,-0.27,0.92,0.92,0.92
53.03,0.97,0.05,0.97,0.06,-0.06,-0.20,-0.30,0.91,0.92,0.92
53.56,1.03,0.11,1.03,0.12,-0.12,-0.25,-0.34,0.91,0.91,0.92
54.10,1.09,0.18,1.09,0.18,-0.18,-0.29,-0.37,0.91,0.90,0.91
54.64,1.14,0.24,1.14,0.25,-0.25,-0.33,-0.40,0.89,0.90,0.90
55.18,1.20,0.31,1.20,0.31,-0.31,-0.37,-0.43,0.89,0.89,0.89
55.74,1.26,0.39,1.26,0.38,-0.38,-0.41,-0.47,0.88,0.88,0.87
56.29,1.32,0.45,1.32,0.45,-0.45,-0.45,-0.50,0.87,0.87,0.87
56.86,1.38,0.53,1.37,0.52,-0.52,-0.49,-0.53,0.86,0.85,0.85
57.42,1.44,0.61,1.43,0.59,-0.59,-0.53,-0.56,0.85,0.84,0.83
58.00,1.49,0.67,1.48,0.66,-0.66,-0.56,-0.60,0.83,0.82,0.82
58.58,1.53,0.73,1.54,0.74,-0.74,-0.60,-0.63,0.79,0.80,0.80
59.16,1.58,0.79,1.59,0.81,-0.81,-0.64,-0.66,0.77,0.78,0.79
59.76,1.64,0.87,1.64,0.88,-0.88,-0.68,-0.70,0.76,0.76,0.77
60.35,1.69,0.95,1.69,0.96,-0.96,-0.71,-0.73,0.73,0.73,0.74
60.96,1.74,1.01,1.74,1.03,-1.03,-0.75,-0.76,0.71,0.71,0.73
61.57,1.79,1.11,1.78,1.10,-1.10,-0.79,-0.80,0.69,0.69,0.68
62.18,1.83,1.18,1.83,1.17,-1.17,-0.82,-0.83,0.66,0.66,0.65
62.80,1.88,1.24,1.87,1.23,-1.23,-0.86,-0.87,0.65,0.64,0.64
63.43,1.93,1.33,1.92,1.30,-1.30,-0.90,-0.90,0.63,0.62,0.60
64.07,1.96,1.38,1.96,1.36,-1.36,-0.93,-0.94,0.60,0.60,0.58
64.71,2.00,1.43,2.00,1.42,-1.42,-0.97,-0.97,0.58,0.58,0.57
65.35,2.03,1.48,2.04,1.48,-1.48,-1.01,-1.01,0.55,0.56,0.55
66.01,2.07,1.53,2.08,1.53,-1.53,-1.04,-1.05,0.54,0.55,0.54
66.67,2.11,1.58,2.11,1.58,-1.58,-1.08,-1.09,0.53,0.53,0.53
67.33,2.15,1.63,2.15,1.62,-1.62,-1.12,-1.12,0.53,0.52,0.52
68.01,2.19,1.68,2.18,1.67,-1.67,-1.15,-1.16,0.52,0.51,0.51
68.69,2.22,1.72,2.21,1.71,-1.71,-1.19,-1.20,0.51,0.51,0.50
69.37,2.25,1.75,2.25,1.75,-1.75,-1.23,-1.25,0.50,0.50,0.50
70.07,2.29,1.80,2.28,1.79,-1.79,-1.27,-1.29,0.49,0.49,0.49
70.77,2.32,1.83,2.32,1.84,-1.84,-1.31,-1.33,0.48,0.48,0.49
71.48,2.35,1.87,2.36,1.88,-1.88,-1.35,-1.37,0.46,0.47,0.48
72.19,2.38,1.92,2.39,1.93,-1.93,-1.38,-1.42,0.45,0.46,0.46
72.91,2.42,1.96,2.43,1.98,-1.98,-1.42,-1.46,0.44,0.45,0.46
73.64,2.46,2.02,2.47,2.03,-2.03,-1.46,-1.51,0.43,0.44,0.44
74.38,2.50,2.07,2.51,2.08,-2.08,-1.50,-1.56,0.42,0.43,0.43
75.12,2.55,2.14,2.55,2.13,-2.13,-1.55,-1.61,0.42,0.41,0.41
75.87,2.59,2.19,2.59,2.18,-2.18,-1.59,-1.66,0.41,0.40,0.40
76.63,2.63,2.24,2.62,2.24,-2.24,-1.63,-1.71,0.39,0.39,0.39
77.40,2.67,2.30,2.66,2.29,-2.29,-1.67,-1.77,0.38,0.38,0.37
78.17,2.70,2.35,2.70,2.33,-2.33,-1.72,-1.82,0.37,0.36,0.35
78.95,2.74,2.39,2.73,2.38,-2.38,-1.76,-1.88,0.36,0.35,0.35
79.74,2.78,2.44,2.77,2.42,-2.42,-1.80,-1.94,0.36,0.34,0.34
80.54,2.81,2.48,2.80,2.46,-2.46,-1.85,-2.00,0.35,0.34,0.33
81.35,2.84,2.52,2.83,2.50,-2.50,-1.89,-2.06,0.34,0.33,0.32
82.16,2.86,2.55,2.86,2.54,-2.54,-1.94,-2.12,0.32,0.32,0.31
82.98,2.89,2.57,2.89,2.57,-2.57,-1.99,-2.19,0.32,0.32,0.32
83.81,2.91,2.60,2.92,2.61,-2.61,-2.03,-2.26,0.30,0.32,0.31
84.65,2.94,2.64,2.95,2.64,-2.64,-2.08,-2.33,0.30,0.31,0.30
85.50,2.97,2.66,2.98,2.67,-2.67,-2.13,-2.40,0.30,0.31,0.31
86.35,3.01,2.70,3.01,2.70,-2.70,-2.18,-2.47,0.31,0.31,0.31
87.22,3.05,2.75,3.04,2.74,-2.74,-2.23,-2.55,0.31,0.30,0.30
88.09,3.07,2.77,3.07,2.77,-2.77,-2.28,-2.62,0.30,0.30,0.30
88.97,3.11,2.82,3.10,2.81,-2.81,-2.34,-2.70,0.30,0.29,0.29
89.86,3.13,2.85,3.13,2.85,-2.85,-2.39,-2.78,0.28,0.27,0.28
90.76,3.15,2.89,3.16,2.90,-2.90,-2.44,-2.87,0.25,0.26,0.26
91.66,3.17,2.93,3.18,2.94,-2.94,-2.50,-2.95,0.22,0.24,0.24
92.58,3.20,2.99,3.21,2.99,-2.99,-2.55,-3.04,0.20,0.21,0.21
93.51,3.23,3.04,3.23,3.05,-3.05,-2.61,-3.13,0.18,0.18,0.19
94.44,3.25,3.09,3.25,3.10,-3.10,-2.66,-3.22,0.15,0.15,0.16
95.39,3.28,3.16,3.26,3.15,-3.15,-2.72,-3.31,0.13,0.11,0.12
96.34,3.29,3.21,3.28,3.21,-3.21,-2.78,-3.41,0.08,0.07,0.08
97.30,3.30,3.28,3.29,3.26,-3.26,-2.84,-3.50,0.03,0.02,0.02
98.28,3.31,3.34,3.29,3.32,-3.32,-2.90,-3.60,-0.01,-0.03,-0.03
99.26,3.31,3.39,3.30,3.38,-3.38,-2.96,-3.70,-0.07,-0.08,-0.08
100.25,3.30,3.44,3.30,3.44,-3.44,-3.02,-3.80,-0.14,-0.14,-0.14
101.25,3.30,3.50,3.30,3.49,-3.49,-3.08,-3.90,-0.19,-0.19,-0.20
102.27,3.29,3.55,3.29,3.55,-3.55,-3.14,-4.00,-0.26,-0.25,-0.26
103.29,3.29,3.61,3.29,3.60,-3.60,-3.21,-4.10,-0.31,-0.31,-0.32
104.32,3.29,3.66,3.28,3.66,-3.66,-3.27,-4.21,-0.37,-0.37,-0.37
105.37,3.29,3.73,3.28,3.71,-3.71,-3.34,-4.31,-0.42,-0.43,-0.44
106.42,3.28,3.78,3.28,3.77,-3.77,-3.40,-4.41,-0.49,-0.49,-0.50
107.48,3.27,3.82,3.28,3.83,-3.83,-3.47,-4.51,-0.56,-0.55,-0.55
108.56,3.27,3.88,3.29,3.90,-3.90,-3.53,-4.60,-0.63,-0.61,-0.61
109.64,3.28,3.95,3.30,3.96,-3.96,-3.60,-4.70,-0.68,-0.66,-0.67
110.74,3.29,4.01,3.32,4.03,-4.03,-3.67,-4.79,-0.74,-0.72,-0.72
111.85,3.32,4.08,3.33,4.11,-4.11,-3.74,-4.88,-0.79,-0.77,-0.76
112.97,3.35,4.18,3.36,4.18,-4.18,-3.80,-4.96,-0.83,-0.82,-0.83
114.10,3.38,4.25,3.38,4.25,-4.25,-3.87,-5.05,-0.87,-0.87,-0.87
115.24,3.41,4.33,3.41,4.33,-4.33,-3.94,-5.12,-0.92,-0.91,-0.92
116.39,3.44,4.41,3.44,4.40,-4.40,-4.01,-5.19,-0.96,-0.96,-0.97
117.55,3.47,4.48,3.47,4.47,-4.47,-4.08,-5.26,-1.00,-1.00,-1.01
118.73,3.50,4.55,3.50,4.54,-4.54,-4.15,-5.31,-1.04,-1.04,-1.05
119.92,3.55,4.63,3.53,4.60,-4.60,-4.22,-5.37,-1.05,-1.07,-1.08
121.12,3.58,4.69,3.56,4.66,-4.66,-4.29,-5.41,-1.08,-1.11,-1.11
122.33,3.59,4.73,3.58,4.72,-4.72,-4.36,-5.45,-1.13,-1.14,-1.14
123.55,3.61,4.78,3.60,4.77,-4.77,-4.43,-5.48,-1.16,-1.17,-1.17
124.79,3.63,4.83,3.62,4.82,-4.82,-4.49,-5.50,-1.19,-1.20,-1.20
126.03,3.64,4.86,3.63,4.86,-4.86,-4.56,-5.51,-1.22,-1.23,-1.22
127.29,3.64,4.89,3.64,4.90,-4.90,-4.63,-5.52,-1.26,-1.26,-1.25
128.57,3.63,4.92,3.65,4.93,-4.93,-4.70,-5.51,-1.30,-1.28,-1.29
129.85,3.63,4.94,3.65,4.96,-4.96,-4.76,-5.51,-1.33,-1.31,-1.31
131.15,3.64,4.98,3.64,4.98,-4.98,-4.83,-5.49,-1.34,-1.34,-1.34
132.46,3.64,5.02,3.63,5.00,-5.00,-4.89,-5.47,-1.36,-1.37,-1.38
133.79,3.63,5.03,3.62,5.02,-5.02,-4.95,-5.44,-1.39,-1.40,-1.40
135.12,3.62,5.05,3.60,5.03,-5.03,-5.01,-5.40,-1.42,-1.43,-1.43
136.48,3.60,5.06,3.58,5.05,-5.05,-5.07,-5.36,-1.45,-1.46,-1.46
137.84,3.57,5.06,3.56,5.06,-5.06,-5.13,-5.31,-1.49,-1.50,-1.49
139.22,3.55,5.09,3.53,5.06,-5.06,-5.18,-5.26,-1.51,-1.53,-1.54
140.61,3.52,5.09,3.50,5.07,-5.07,-5.23,-5.21,-1.55,-1.56,-1.57
142.02,3.47,5.06,3.48,5.07,-5.07,-5.29,-5.15,-1.60,-1.60,-1.59
143.44,3.45,5.08,3.45,5.08,-5.08,-5.33,-5.09,-1.63,-1.63,-1.63
144.87,3.41,5.08,3.42,5.08,-5.08,-5.38,-5.03,-1.67,-1.66,-1.67
146.32,3.38,5.09,3.39,5.09,-5.09,-5.42,-4.97,-1.71,-1.70,-1.71
147.78,3.35,5.09,3.37,5.11,-5.11,-5.46,-4.91,-1.76,-1.74,-1.74
149.26,3.33,5.10,3.35,5.13,-5.13,-5.50,-4.84,-1.80,-1.78,-1.77
150.75,3.30,5.12,3.33,5.15,-5.15,-5.53,-4.78,-1.85,-1.82,-1.82
152.26,3.28,5.14,3.32,5.17,-5.17,-5.57,-4.72,-1.89,-1.86,-1.86
153.78,3.28,5.17,3.31,5.20,-5.20,-5.59,-4.65,-1.93,-1.90,-1.89
155.32,3.29,5.23,3.30,5.24,-5.24,-5.62,-4.59,-1.95,-1.94,-1.94
156.88,3.30,5.27,3.29,5.27,-5.27,-5.64,-4.53,-1.97,-1.98,-1.97
158.44,3.30,5.33,3.28,5.31,-5.31,-5.66,-4.47,-2.01,-2.03,-2.03
160.03,3.29,5.36,3.27,5.34,-5.34,-5.67,-4.42,-2.05,-2.07,-2.07
161.63,3.27,5.39,3.26,5.37,-5.37,-5.68,-4.36,-2.10,-2.11,-2.12
163.24,3.26,5.42,3.24,5.40,-5.40,-5.68,-4.31,-2.14,-2.15,-2.16
164.88,3.24,5.44,3.23,5.42,-5.42,-5.69,-4.26,-2.18,-2.20,-2.20
166.53,3.22,5.46,3.20,5.44,-5.44,-5.68,-4.22,-2.22,-2.24,-2.24
168.19,3.19,5.47,3.17,5.45,-5.45,-5.68,-4.17,-2.26,-2.28,-2.28
169.87,3.14,5.46,3.13,5.45,-5.45,-5.67,-4.13,-2.31,-2.32,-2.32
171.57,3.10,5.45,3.09,5.45,-5.45,-5.66,-4.10,-2.35,-2.36,-2.35
173.29,3.06,5.45,3.04,5.43,-5.43,-5.64,-4.06,-2.37,-2.39,-2.39
175.02,2.98,5.41,2.99,5.42,-5.42,-5.62,-4.03,-2.44,-2.42,-2.43
176.77,2.94,5.40,2.94,5.39,-5.39,-5.60,-4.00,-2.46,-2.45,-2.46
178.54,2.88,5.37,2.89,5.37,-5.37,-5.57,-3.98,-2.49,-2.48,-2.49
180.32,2.83,5.35,2.83,5.34,-5.34,-5.54,-3.96,-2.51,-2.51,-2.52
182.13,2.78,5.32,2.77,5.30,-5.30,-5.51,-3.94,-2.52,-2.53,-2.54
183.95,2.69,5.25,2.71,5.27,-5.27,-5.47,-3.92,-2.58,-2.56,-2.56
185.79,2.64,5.22,2.66,5.23,-5.23,-5.43,-3.91,-2.59,-2.58,-2.58
187.65,2.60,5.20,2.60,5.20,-5.20,-5.39,-3.90,-2.60,-2.60,-2.60
189.52,2.55,5.16,2.55,5.16,-5.16,-5.34,-3.89,-2.61,-2.61,-2.61
191.42,2.50,5.13,2.49,5.12,-5.12,-5.29,-3.89,-2.62,-2.63,-2.63
193.33,2.44,5.08,2.44,5.09,-5.09,-5.24,-3.89,-2.65,-2.64,-2.64
195.27,2.38,5.03,2.39,5.05,-5.05,-5.19,-3.89,-2.67,-2.66,-2.65
197.22,2.33,5.00,2.34,5.01,-5.01,-5.14,-3.89,-2.68,-2.67,-2.67
199.19,2.29,4.98,2.30,4.98,-4.98,-5.08,-3.90,-2.69,-2.68,-2.69
201.18,2.26,4.96,2.25,4.94,-4.94,-5.02,-3.90,-2.68,-2.69,-2.70
203.19,2.21,4.91,2.20,4.91,-4.91,-4.96,-3.91,-2.70,-2.70,-2.70
205.23,2.15,4.87,2.16,4.87,-4.87,-4.90,-3.92,-2.72,-2.72,-2.72
207.28,2.10,4.82,2.11,4.83,-4.83,-4.84,-3.93,-2.73,-2.73,-2.72
209.35,2.06,4.80,2.05,4.79,-4.79,-4.78,-3.95,-2.74,-2.74,-2.74
211.44,2.01,4.77,2.00,4.76,-4.76,-4.71,-3.96,-2.75,-2.75,-2.76
213.56,1.95,4.72,1.95,4.71,-4.71,-4.65,-3.97,-2.76,-2.76,-2.77
215.69,1.90,4.67,1.89,4.67,-4.67,-4.58,-3.99,-2.77,-2.77,-2.77
217.85,1.83,4.62,1.83,4.62,-4.62,-4.51,-4.00,-2.79,-2.79,-2.79
220.03,1.79,4.59,1.77,4.57,-4.57,-4.45,-4.01,-2.78,-2.80,-2.80
222.23,1.73,4.55,1.71,4.52,-4.52,-4.38,-4.03,-2.79,-2.81,-2.82
224.45,1.64,4.46,1.64,4.46,-4.46,-4.31,-4.04,-2.82,-2.82,-2.82
226.70,1.57,4.41,1.57,4.41,-4.41,-4.24,-4.05,-2.84,-2.84,-2.84
228.96,1.49,4.34,1.50,4.35,-4.35,-4.17,-4.05,-2.86,-2.85,-2.85
231.25,1.43,4.29,1.42,4.29,-4.29,-4.10,-4.06,-2.86,-2.87,-2.86
233.57,1.35,4.23,1.34,4.23,-4.23,-4.03,-4.06,-2.88,-2.88,-2.88
235.90,1.25,4.14,1.27,4.16,-4.16,-3.96,-4.06,-2.91,-2.90,-2.89
238.26,1.19,4.10,1.19,4.10,-4.10,-3.89,-4.06,-2.91,-2.91,-2.91
240.64,1.10,4.03,1.11,4.03,-4.03,-3.83,-4.05,-2.93,-2.92,-2.93
243.05,1.04,3.98,1.03,3.96,-3.96,-3.76,-4.04,-2.92,-2.93,-2.94
245.48,0.95,3.90,0.94,3.89,-3.89,-3.69,-4.02,-2.94,-2.94,-2.95
247.93,0.85,3.81,0.86,3.81,-3.81,-3.62,-4.00,-2.96,-2.95,-2.96
250.41,0.78,3.75,0.78,3.73,-3.73,-3.55,-3.98,-2.95,-2.95,-2.97
252.92,0.69,3.65,0.70,3.65,-3.65,-3.48,-3.95,-2.96,-2.96,-2.96
255.45,0.62,3.58,0.62,3.57,-3.57,-3.41,-3.92,-2.95,-2.95,-2.96
258.00,0.55,3.50,0.53,3.48,-3.48,-3.34,-3.88,-2.93,-2.95,-2.95
260.58,0.46,3.41,0.45,3.40,-3.40,-3.27,-3.84,-2.94,-2.94,-2.95
263.19,0.38,3.32,0.38,3.31,-3.31,-3.21,-3.80,-2.93,-2.93,-2.94
265.82,0.29,3.22,0.30,3.22,-3.22,-3.14,-3.75,-2.93,-2.92,-2.93
268.48,0.21,3.12,0.22,3.13,-3.13,-3.07,-3.69,-2.92,-2.91,-2.91
271.16,0.14,3.03,0.14,3.04,-3.04,-3.01,-3.64,-2.90,-2.90,-2.89
273.87,0.06,2.94,0.07,2.95,-2.95,-2.94,-3.58,-2.89,-2.88,-2.88
276.61,0.01,2.86,0.00,2.87,-2.87,-2.87,-3.52,-2.86,-2.86,-2.85
279.38,-0.06,2.79,-0.06,2.78,-2.78,-2.81,-3.46,-2.85,-2.85,-2.85
282.17,-0.13,2.70,-0.13,2.70,-2.70,-2.74,-3.39,-2.83,-2.83,-2.83
284.99,-0.19,2.63,-0.20,2.62,-2.62,-2.67,-3.32,-2.81,-2.82,-2.82
287.84,-0.27,2.53,-0.26,2.54,-2.54,-2.61,-3.25,-2.81,-2.80,-2.80
290.72,-0.32,2.46,-0.31,2.47,-2.47,-2.54,-3.18,-2.79,-2.78,-2.78
293.63,-0.37,2.40,-0.37,2.39,-2.39,-2.47,-3.11,-2.77,-2.76,-2.77
296.57,-0.41,2.33,-0.42,2.32,-2.32,-2.41,-3.04,-2.73,-2.74,-2.74
299.53,-0.46,2.27,-0.47,2.25,-2.25,-2.34,-2.96,-2.71,-2.72,-2.73
302.53,-0.52,2.20,-0.52,2.19,-2.19,-2.28,-2.89,-2.71,-2.70,-2.72
305.55,-0.57,2.12,-0.56,2.12,-2.12,-2.21,-2.82,-2.69,-2.68,-2.69
308.61,-0.62,2.05,-0.61,2.05,-2.05,-2.14,-2.75,-2.67,-2.66,-2.67
311.69,-0.67,1.97,-0.66,1.98,-1.98,-2.08,-2.67,-2.65,-2.64,-2.64
314.81,-0.69,1.91,-0.70,1.92,-1.92,-2.01,-2.60,-2.61,-2.62,-2.60
317.96,-0.73,1.86,-0.75,1.85,-1.85,-1.94,-2.53,-2.58,-2.60,-2.59
321.14,-0.78,1.79,-0.79,1.79,-1.79,-1.88,-2.46,-2.57,-2.57,-2.57
324.35,-0.82,1.73,-0.83,1.72,-1.72,-1.81,-2.39,-2.54,-2.55,-2.55
327.59,-0.86,1.67,-0.87,1.66,-1.66,-1.74,-2.32,-2.52,-2.53,-2.53
330.87,-0.91,1.60,-0.91,1.59,-1.59,-1.67,-2.25,-2.50,-2.50,-2.51
334.18,-0.95,1.53,-0.95,1.53,-1.53,-1.61,-2.19,-2.48,-2.48,-2.48
337.52,-1.01,1.45,-0.99,1.47,-1.47,-1.54,-2.12,-2.48,-2.45,-2.46
340.90,-1.04,1.40,-1.03,1.40,-1.40,-1.47,-2.06,-2.45,-2.43,-2.44
344.30,-1.07,1.34,-1.07,1.34,-1.34,-1.40,-2.00,-2.41,-2.41,-2.41
347.75,-1.10,1.29,-1.10,1.28,-1.28,-1.33,-1.94,-2.38,-2.38,-2.39
351.23,-1.13,1.23,-1.14,1.22,-1.22,-1.26,-1.88,-2.35,-2.36,-2.36
354.74,-1.17,1.16,-1.18,1.16,-1.16,-1.19,-1.82,-2.33,-2.34,-2.33
358.28,-1.21,1.11,-1.22,1.10,-1.10,-1.12,-1.76,-2.31,-2.31,-2.32
361.87,-1.26,1.03,-1.25,1.03,-1.03,-1.05,-1.70,-2.30,-2.29,-2.29
365.49,-1.30,0.96,-1.29,0.97,-0.97,-0.98,-1.65,-2.27,-2.26,-2.26
369.14,-1.33,0.92,-1.33,0.91,-0.91,-0.92,-1.60,-2.24,-2.24,-2.25
372.83,-1.37,0.85,-1.37,0.85,-0.85,-0.85,-1.55,-2.22,-2.22,-2.22
376.56,-1.41,0.79,-1.41,0.78,-0.78,-0.78,-1.49,-2.19,-2.19,-2.20
380.33,-1.44,0.73,-1.46,0.71,-0.71,-0.72,-1.45,-2.16,-2.17,-2.17
384.13,-1.48,0.68,-1.51,0.65,-0.65,-0.65,-1.40,-2.13,-2.16,-2.16
387.97,-1.53,0.61,-1.55,0.59,-0.59,-0.59,-1.35,-2.12,-2.14,-2.14
391.85,-1.58,0.55,-1.60,0.53,-0.53,-0.53,-1.31,-2.11,-2.12,-2.13
395.77,-1.64,0.46,-1.64,0.47,-0.47,-0.47,-1.26,-2.11,-2.11,-2.10
399.73,-1.69,0.40,-1.68,0.42,-0.42,-0.42,-1.22,-2.11,-2.10,-2.09
403.72,-1.74,0.35,-1.72,0.37,-0.37,-0.37,-1.18,-2.11,-2.09,-2.09
407.76,-1.78,0.30,-1.76,0.32,-0.32,-0.32,-1.14,-2.10,-2.08,-2.08
411.84,-1.82,0.25,-1.80,0.28,-0.28,-0.28,-1.10,-2.10,-2.08,-2.07
415.96,-1.84,0.24,-1.83,0.24,-0.24,-0.24,-1.06,-2.08,-2.08,-2.08
420.12,-1.86,0.22,-1.86,0.21,-0.21,-0.21,-1.03,-2.08,-2.08,-2.08
424.32,-1.88,0.20,-1.89,0.19,-0.19,-0.18,-0.99,-2.07,-2.08,-2.08
428.56,-1.90,0.18,-1.90,0.17,-0.17,-0.16,-0.96,-2.07,-2.08,-2.08
432.85,-1.92,0.17,-1.92,0.16,-0.16,-0.14,-0.93,-2.08,-2.08,-2.09
437.18,-1.93,0.16,-1.93,0.16,-0.16,-0.13,-0.90,-2.09,-2.09,-2.09
441.55,-1.94,0.15,-1.93,0.16,-0.16,-0.12,-0.87,-2.10,-2.09,-2.09
445.96,-1.93,0.17,-1.93,0.16,-0.16,-0.13,-0.84,-2.09,-2.09,-2.10
450.42,-1.92,0.18,-1.93,0.17,-0.17,-0.13,-0.82,-2.09,-2.10,-2.10
454.93,-1.91,0.19,-1.92,0.18,-0.18,-0.15,-0.79,-2.09,-2.10,-2.10
459.48,-1.89,0.22,-1.90,0.20,-0.20,-0.17,-0.77,-2.09,-2.10,-2.11
464.07,-1.88,0.22,-1.89,0.22,-0.22,-0.19,-0.75,-2.10,-2.10,-2.10
468.71,-1.87,0.23,-1.86,0.24,-0.24,-0.22,-0.73,-2.11,-2.10,-2.10
473.40,-1.83,0.28,-1.83,0.27,-0.27,-0.26,-0.71,-2.10,-2.10,-2.11
478.13,-1.81,0.29,-1.80,0.30,-0.30,-0.30,-0.70,-2.11,-2.10,-2.10
482.91,-1.77,0.34,-1.76,0.34,-0.34,-0.34,-0.68,-2.11,-2.10,-2.11
487.74,-1.72,0.38,-1.71,0.39,-0.39,-0.39,-0.67,-2.11,-2.10,-2.10
