frequency,raw,error,smoothed,error_smoothed,equalization,parametric_eq,fixed_band_eq,equalized_raw,equalized_smoothed,target
20.00,-2.16,-12.85,-2.17,-12.85,12.85,12.42,4.83,10.69,10.68,10.68
20.20,-2.09,-12.77,-2.10,-12.77,12.77,12.38,4.95,10.68,10.67,10.67
20.40,-2.03,-12.69,-2.03,-12.69,12.69,12.33,5.08,10.66,10.66,10.66
20.61,-1.97,-12.62,-1.96,-12.61,12.61,12.29,5.21,10.64,10.65,10.65
20.81,-1.89,-12.52,-1.89,-12.53,12.53,12.24,5.34,10.63,10.63,10.63
21.02,-1.82,-12.44,-1.82,-12.45,12.45,12.19,5.48,10.62,10.62,10.62
21.23,-1.75,-12.36,-1.75,-12.37,12.37,12.14,5.62,10.61,10.61,10.61
21.44,-1.68,-12.30,-1.68,-12.29,12.29,12.09,5.77,10.60,10.60,10.62
21.66,-1.62,-12.21,-1.61,-12.21,12.21,12.04,5.92,10.59,10.59,10.60
21.87,-1.54,-12.14,-1.54,-12.13,12.13,11.99,6.07,10.59,10.59,10.59
22.09,-1.47,-12.05,-1.47,-12.05,12.05,11.94,6.23,10.58,10.58,10.57
22.31,-1.40,-11.98,-1.40,-11.97,11.97,11.88,6.39,10.57,10.57,10.57
22.54,-1.34,-11.90,-1.33,-11.89,11.89,11.82,6.56,10.56,10.56,10.56
22.76,-1.25,-11.81,-1.26,-11.82,11.82,11.77,6.73,10.56,10.56,10.56
22.99,-1.18,-11.73,-1.19,-11.74,11.74,11.71,6.91,10.55,10.55,10.55
23.22,-1.11,-11.65,-1.11,-11.66,11.66,11.65,7.09,10.55,10.55,10.54
23.45,-1.04,-11.59,-1.04,-11.58,11.58,11.58,7.27,10.54,10.54,10.55
23.69,-0.98,-11.51,-0.97,-11.51,11.51,11.52,7.46,10.53,10.54,10.54
23.92,-0.89,-11.42,-0.90,-11.43,11.43,11.46,7.66,10.54,10.53,10.52
24.16,-0.82,-11.36,-0.82,-11.35,11.35,11.39,7.85,10.53,10.53,10.53
24.40,-0.75,-11.28,-0.75,-11.28,11.28,11.33,8.06,10.53,10.53,10.53
24.65,-0.68,-11.20,-0.68,-11.20,11.20,11.26,8.26,10.53,10.52,10.53
24.89,-0.60,-11.13,-0.61,-11.13,11.13,11.20,8.48,10.53,10.52,10.53
25.14,-0.53,-11.05,-0.54,-11.06,11.06,11.13,8.69,10.52,10.52,10.52
25.39,-0.46,-10.98,-0.46,-10.98,10.98,11.06,8.91,10.52,10.52,10.51
25.65,-0.39,-10.91,-0.39,-10.91,10.91,10.99,9.13,10.51,10.52,10.51
25.91,-0.33,-10.84,-0.32,-10.83,10.83,10.92,9.36,10.51,10.51,10.51
26.16,-0.24,-10.76,-0.25,-10.76,10.76,10.85,9.58,10.52,10.51,10.52
26.43,-0.18,-10.69,-0.17,-10.69,10.69,10.77,9.81,10.51,10.51,10.52
26.69,-0.10,-10.62,-0.10,-10.61,10.61,10.70,10.04,10.51,10.51,10.51
26.96,-0.03,-10.54,-0.03,-10.54,10.54,10.63,10.27,10.51,10.51,10.51
27.23,0.04,-10.46,0.05,-10.47,10.47,10.55,10.50,10.51,10.51,10.51
27.50,0.13,-10.38,0.12,-10.39,10.39,10.48,10.72,10.52,10.51,10.51
27.77,0.20,-10.32,0.19,-10.32,10.32,10.40,10.94,10.52,10.52,10.51
28.05,0.27,-10.25,0.27,-10.25,10.25,10.32,11.15,10.51,10.52,10.51
28.33,0.35,-10.17,0.34,-10.17,10.17,10.25,11.36,10.52,10.52,10.52
28.62,0.41,-10.10,0.42,-10.10,10.10,10.17,11.56,10.51,10.52,10.52
28.90,0.49,-10.04,0.49,-10.02,10.02,10.09,11.74,10.51,10.52,10.52
29.19,0.57,-9.95,0.57,-9.95,9.95,10.01,11.91,10.51,10.51,10.52
29.48,0.64,-9.88,0.64,-9.87,9.87,9.93,12.07,10.51,10.51,10.52
29.78,0.71,-9.80,0.71,-9.80,9.80,9.85,12.20,10.51,10.51,10.51
30.08,0.78,-9.73,0.79,-9.72,9.72,9.77,12.31,10.50,10.51,10.51
30.38,0.85,-9.64,0.86,-9.64,9.64,9.69,12.40,10.50,10.50,10.50
30.68,0.94,-9.56,0.93,-9.57,9.57,9.61,12.47,10.50,10.50,10.49
30.99,1.01,-9.47,1.00,-9.49,9.49,9.52,12.50,10.50,10.49,10.49
31.30,1.07,-9.41,1.07,-9.41,9.41,9.44,12.51,10.48,10.48,10.48
31.61,1.15,-9.34,1.14,-9.33,9.33,9.36,12.50,10.48,10.47,10.48
31.93,1.20,-9.25,1.21,-9.25,9.25,9.27,12.46,10.46,10.47,10.46
32.24,1.28,-9.18,1.28,-9.18,9.18,9.19,12.39,10.45,10.46,10.46
32.57,1.35,-9.09,1.35,-9.10,9.10,9.10,12.29,10.46,10.45,10.45
32.89,1.43,-9.02,1.42,-9.03,9.03,9.02,12.18,10.45,10.44,10.44
33.22,1.49,-8.95,1.49,-8.95,8.95,8.93,12.04,10.44,10.44,10.44
33.55,1.56,-8.88,1.55,-8.87,8.87,8.85,11.89,10.43,10.43,10.43
33.89,1.62,-8.80,1.62,-8.80,8.80,8.76,11.72,10.41,10.42,10.42
34.23,1.69,-8.72,1.69,-8.72,8.72,8.68,11.54,10.41,10.41,10.40
34.57,1.75,-8.65,1.75,-8.65,8.65,8.59,11.34,10.39,10.40,10.39
34.92,1.81,-8.56,1.82,-8.57,8.57,8.50,11.14,10.38,10.39,10.38
35.27,1.88,-8.51,1.89,-8.49,8.49,8.41,10.93,10.37,10.38,10.39
35.62,1.96,-8.41,1.95,-8.41,8.41,8.33,10.71,10.36,10.36,10.37
35.97,2.03,-8.33,2.02,-8.33,8.33,8.24,10.49,10.35,10.35,10.36
36.33,2.09,-8.25,2.09,-8.25,8.25,8.15,10.27,10.33,10.33,10.34
36.70,2.15,-8.16,2.15,-8.16,8.16,8.06,10.05,10.32,10.32,10.31
37.06,2.22,-8.08,2.22,-8.08,8.08,7.97,9.83,10.29,10.30,10.30
37.43,2.29,-7.99,2.28,-7.99,7.99,7.88,9.61,10.28,10.28,10.28
37.81,2.36,-7.90,2.35,-7.91,7.91,7.79,9.39,10.26,10.26,10.26
38.19,2.42,-7.82,2.42,-7.82,7.82,7.70,9.17,10.23,10.23,10.23
38.57,2.49,-7.73,2.48,-7.73,7.73,7.61,8.96,10.22,10.21,10.21
38.95,2.55,-7.65,2.54,-7.64,7.64,7.52,8.75,10.19,10.19,10.19
39.34,2.61,-7.56,2.61,-7.56,7.56,7.43,8.55,10.16,10.16,10.16
39.74,2.67,-7.47,2.67,-7.47,7.47,7.34,8.35,10.13,10.14,10.13
40.14,2.72,-7.39,2.73,-7.38,7.38,7.25,8.15,10.11,10.11,10.11
40.54,2.79,-7.30,2.79,-7.30,7.30,7.16,7.96,10.09,10.09,10.09
40.94,2.86,-7.20,2.85,-7.21,7.21,7.06,7.77,10.07,10.06,10.06
41.35,2.92,-7.12,2.92,-7.12,7.12,6.97,7.59,10.04,10.04,10.04
41.76,2.99,-7.02,2.98,-7.04,7.04,6.88,7.41,10.03,10.01,10.01
42.18,3.04,-6.96,3.03,-6.95,6.95,6.79,7.24,9.99,9.99,9.99
42.60,3.10,-6.86,3.09,-6.87,6.87,6.70,7.07,9.96,9.96,9.96
43.03,3.15,-6.79,3.15,-6.78,6.78,6.60,6.91,9.93,9.93,9.94
43.46,3.21,-6.70,3.21,-6.69,6.69,6.51,6.75,9.90,9.91,9.90
43.90,3.27,-6.60,3.27,-6.61,6.61,6.42,6.60,9.88,9.88,9.88
44.33,3.33,-6.52,3.33,-6.52,6.52,6.32,6.45,9.84,9.85,9.84
44.78,3.39,-6.43,3.39,-6.43,6.43,6.23,6.30,9.81,9.81,9.82
45.23,3.44,-6.35,3.44,-6.34,6.34,6.14,6.16,9.78,9.78,9.79
45.68,3.50,-6.25,3.50,-6.24,6.24,6.04,6.03,9.74,9.74,9.74
46.13,3.56,-6.15,3.56,-6.15,6.15,5.95,5.89,9.70,9.70,9.71
46.60,3.61,-6.05,3.62,-6.05,6.05,5.85,5.77,9.66,9.67,9.67
47.06,3.68,-5.95,3.67,-5.95,5.95,5.76,5.64,9.62,9.62,9.63
47.53,3.73,-5.87,3.73,-5.85,5.85,5.67,5.52,9.57,9.58,9.59
48.01,3.79,-5.75,3.79,-5.75,5.75,5.57,5.41,9.53,9.54,9.53
48.49,3.85,-5.65,3.85,-5.65,5.65,5.48,5.29,9.49,9.49,9.49
48.97,3.91,-5.53,3.90,-5.54,5.54,5.38,5.18,9.45,9.44,9.44
49.46,3.96,-5.44,3.96,-5.44,5.44,5.29,5.08,9.40,9.40,9.40
49.96,4.02,-5.32,4.01,-5.34,5.34,5.19,4.97,9.36,9.35,9.33
50.46,4.07,-5.24,4.06,-5.24,5.24,5.10,4.87,9.31,9.30,9.30
50.96,4.13,-5.13,4.11,-5.14,5.14,5.00,4.78,9.27,9.26,9.26
51.47,4.17,-5.05,4.17,-5.04,5.04,4.91,4.68,9.21,9.21,9.21
51.99,4.22,-4.94,4.22,-4.95,4.95,4.81,4.59,9.16,9.16,9.16
52.51,4.27,-4.85,4.27,-4.85,4.85,4.72,4.50,9.11,9.12,9.12
53.03,4.32,-4.77,4.32,-4.75,4.75,4.62,4.41,9.07,9.07,9.08
53.56,4.37,-4.67,4.37,-4.66,4.66,4.53,4.33,9.02,9.02,9.03
54.10,4.41,-4.57,4.41,-4.56,4.56,4.43,4.24,8.97,8.98,8.97
54.64,4.46,-4.48,4.46,-4.47,4.47,4.33,4.16,8.93,8.93,8.93
55.18,4.51,-4.37,4.51,-4.38,4.38,4.24,4.08,8.89,8.89,8.88
55.74,4.56,-4.27,4.56,-4.29,4.29,4.14,3.99,8.84,8.84,8.83
56.29,4.61,-4.19,4.60,-4.19,4.19,4.05,3.91,8.80,8.80,8.79
56.86,4.66,-4.10,4.65,-4.10,4.10,3.95,3.83,8.76,8.75,8.75
57.42,4.71,-3.99,4.70,-4.01,4.01,3.85,3.76,8.71,8.70,8.69
58.00,4.76,-3.89,4.75,-3.91,3.91,3.76,3.68,8.66,8.66,8.65
58.58,4.80,-3.82,4.80,-3.81,3.81,3.66,3.60,8.60,8.60,8.61
59.16,4.84,-3.74,4.84,-3.71,3.71,3.56,3.52,8.54,8.55,8.57
59.76,4.89,-3.64,4.89,-3.61,3.61,3.47,3.44,8.49,8.50,8.52
60.35,4.94,-3.52,4.94,-3.50,3.50,3.37,3.36,8.44,8.44,8.46
60.96,4.99,-3.41,4.99,-3.40,3.40,3.28,3.27,8.38,8.39,8.40
61.57,5.03,-3.30,5.03,-3.29,3.29,3.18,3.19,8.32,8.33,8.33
62.18,5.08,-3.18,5.08,-3.19,3.19,3.08,3.11,8.26,8.27,8.26
62.80,5.13,-3.07,5.12,-3.08,3.08,2.99,3.03,8.21,8.21,8.19
63.43,5.18,-2.95,5.17,-2.97,2.97,2.89,2.94,8.15,8.14,8.13
64.07,5.23,-2.84,5.21,-2.87,2.87,2.79,2.85,8.09,8.08,8.07
64.71,5.27,-2.74,5.26,-2.76,2.76,2.70,2.77,8.02,8.02,8.01
65.35,5.31,-2.64,5.30,-2.65,2.65,2.60,2.68,7.96,7.95,7.95
66.01,5.34,-2.55,5.35,-2.54,2.54,2.50,2.59,7.88,7.89,7.89
66.67,5.39,-2.45,5.39,-2.44,2.44,2.41,2.50,7.82,7.82,7.83
67.33,5.43,-2.33,5.43,-2.33,2.33,2.31,2.40,7.76,7.76,7.76
68.01,5.47,-2.24,5.47,-2.23,2.23,2.21,2.31,7.69,7.70,7.70
68.69,5.51,-2.13,5.51,-2.12,2.12,2.12,2.21,7.63,7.63,7.64
69.37,5.55,-2.03,5.55,-2.02,2.02,2.02,2.12,7.57,7.57,7.58
70.07,5.59,-1.92,5.58,-1.92,1.92,1.93,2.02,7.50,7.50,7.51
70.77,5.63,-1.81,5.62,-1.82,1.82,1.83,1.93,7.44,7.44,7.44
71.48,5.67,-1.71,5.65,-1.71,1.71,1.73,1.83,7.38,7.37,7.37
72.19,5.71,-1.60,5.69,-1.61,1.61,1.64,1.73,7.32,7.30,7.30
72.91,5.73,-1.50,5.72,-1.51,1.51,1.54,1.63,7.24,7.23,7.23
73.64,5.76,-1.40,5.75,-1.41,1.41,1.44,1.53,7.17,7.17,7.16
74.38,5.79,-1.31,5.78,-1.32,1.32,1.35,1.43,7.10,7.10,7.09
75.12,5.81,-1.23,5.82,-1.22,1.22,1.25,1.33,7.03,7.04,7.03
75.87,5.84,-1.14,5.85,-1.12,1.12,1.16,1.23,6.96,6.97,6.97
76.63,5.88,-1.03,5.88,-1.03,1.03,1.06,1.13,6.90,6.91,6.90
77.40,5.91,-0.94,5.92,-0.93,0.93,0.97,1.02,6.84,6.85,6.85
78.17,5.94,-0.84,5.95,-0.84,0.84,0.87,0.92,6.77,6.78,6.77
78.95,5.97,-0.76,5.98,-0.75,0.75,0.78,0.82,6.71,6.72,6.73
79.74,6.01,-0.66,6.01,-0.66,0.66,0.68,0.72,6.66,6.66,6.66
80.54,6.05,-0.56,6.04,-0.56,0.56,0.59,0.61,6.61,6.60,6.61
81.35,6.08,-0.46,6.06,-0.47,0.47,0.49,0.51,6.55,6.54,6.54
82.16,6.12,-0.37,6.09,-0.38,0.38,0.40,0.40,6.50,6.48,6.49
82.98,6.15,-0.27,6.12,-0.29,0.29,0.30,0.30,6.44,6.41,6.42
83.81,6.17,-0.19,6.15,-0.20,0.20,0.21,0.20,6.37,6.35,6.35
84.65,6.18,-0.11,6.18,-0.11,0.11,0.11,0.09,6.29,6.29,6.28
85.50,6.19,-0.03,6.20,-0.02,0.02,0.02,-0.02,6.21,6.22,6.22
86.35,6.21,0.05,6.23,0.07,-0.07,-0.08,-0.12,6.13,6.15,6.15
87.22,6.24,0.15,6.25,0.16,-0.16,-0.17,-0.23,6.07,6.09,6.09
88.09,6.27,0.25,6.28,0.26,-0.26,-0.26,-0.33,6.01,6.02,6.02
88.97,6.30,0.34,6.30,0.35,-0.35,-0.36,-0.44,5.95,5.95,5.95
89.86,6.33,0.44,6.33,0.45,-0.45,-0.45,-0.55,5.88,5.88,5.88
90.76,6.37,0.55,6.36,0.54,-0.54,-0.54,-0.66,5.82,5.81,5.81
91.66,6.40,0.66,6.39,0.65,-0.65,-0.63,-0.77,5.75,5.74,5.73
92.58,6.42,0.74,6.42,0.75,-0.75,-0.73,-0.88,5.67,5.67,5.67
93.51,6.45,0.84,6.45,0.85,-0.85,-0.82,-0.99,5.59,5.59,5.60
94.44,6.47,0.94,6.48,0.96,-0.96,-0.91,-1.10,5.51,5.52,5.53
95.39,6.50,1.05,6.51,1.06,-1.06,-1.00,-1.21,5.43,5.45,5.45
96.34,6.53,1.15,6.53,1.16,-1.16,-1.09,-1.32,5.37,5.37,5.37
97.30,6.56,1.25,6.55,1.25,-1.25,-1.18,-1.43,5.30,5.30,5.30
98.28,6.59,1.37,6.57,1.34,-1.34,-1.27,-1.54,5.24,5.23,5.22
99.26,6.62,1.47,6.58,1.43,-1.43,-1.36,-1.65,5.19,5.15,5.14
100.25,6.63,1.56,6.59,1.51,-1.51,-1.45,-1.76,5.11,5.08,5.07
101.25,6.64,1.63,6.60,1.59,-1.59,-1.54,-1.88,5.04,5.01,5.00
102.27,6.64,1.70,6.61,1.67,-1.67,-1.63,-1.99,4.96,4.94,4.94
103.29,6.63,1.76,6.62,1.75,-1.75,-1.72,-2.10,4.87,4.87,4.86
104.32,6.63,1.83,6.63,1.83,-1.83,-1.81,-2.21,4.79,4.80,4.80
105.37,6.62,1.88,6.64,1.91,-1.91,-1.90,-2.32,4.70,4.73,4.73
106.42,6.62,1.95,6.65,1.99,-1.99,-1.99,-2.43,4.62,4.66,4.67
107.48,6.63,2.03,6.67,2.08,-2.08,-2.07,-2.54,4.55,4.59,4.59
108.56,6.66,2.13,6.68,2.16,-2.16,-2.16,-2.64,4.49,4.52,4.53
109.64,6.69,2.22,6.70,2.25,-2.25,-2.25,-2.75,4.43,4.45,4.46
110.74,6.72,2.33,6.73,2.35,-2.35,-2.33,-2.85,4.37,4.38,4.39
111.85,6.76,2.44,6.75,2.44,-2.44,-2.42,-2.95,4.31,4.31,4.31
112.97,6.79,2.54,6.78,2.55,-2.55,-2.50,-3.04,4.24,4.24,4.25
114.10,6.83,2.65,6.81,2.65,-2.65,-2.59,-3.14,4.18,4.17,4.17
115.24,6.86,2.77,6.84,2.75,-2.75,-2.67,-3.23,4.11,4.10,4.09
116.39,6.88,2.86,6.87,2.84,-2.84,-2.75,-3.31,4.03,4.03,4.02
117.55,6.91,2.96,6.89,2.94,-2.94,-2.84,-3.39,3.97,3.96,3.94
118.73,6.93,3.05,6.92,3.03,-3.03,-2.92,-3.47,3.90,3.89,3.87
119.92,6.96,3.15,6.93,3.12,-3.12,-3.00,-3.55,3.84,3.82,3.81
121.12,6.97,3.22,6.94,3.20,-3.20,-3.08,-3.61,3.77,3.75,3.75
122.33,6.97,3.29,6.95,3.27,-3.27,-3.16,-3.68,3.69,3.68,3.68
123.55,6.97,3.35,6.96,3.35,-3.35,-3.24,-3.74,3.62,3.61,3.62
124.79,6.96,3.41,6.96,3.42,-3.42,-3.32,-3.79,3.54,3.54,3.55
126.03,6.96,3.47,6.96,3.49,-3.49,-3.40,-3.84,3.47,3.47,3.48
127.29,6.95,3.53,6.96,3.55,-3.55,-3.48,-3.89,3.39,3.41,3.42
128.57,6.95,3.61,6.96,3.62,-3.62,-3.55,-3.93,3.33,3.34,3.34
129.85,6.95,3.67,6.96,3.68,-3.68,-3.63,-3.96,3.26,3.27,3.27
131.15,6.95,3.75,6.95,3.75,-3.75,-3.71,-3.99,3.20,3.21,3.20
132.46,6.95,3.81,6.95,3.81,-3.81,-3.78,-4.02,3.13,3.14,3.14
133.79,6.95,3.88,6.95,3.88,-3.88,-3.86,-4.04,3.07,3.07,3.06
135.12,6.95,3.94,6.94,3.94,-3.94,-3.93,-4.06,3.01,3.00,3.00
136.48,6.95,4.00,6.94,4.00,-4.00,-4.00,-4.08,2.94,2.94,2.94
137.84,6.95,4.07,6.94,4.07,-4.07,-4.07,-4.09,2.88,2.87,2.87
139.22,6.95,4.14,6.94,4.13,-4.13,-4.14,-4.10,2.81,2.81,2.81
140.61,6.95,4.20,6.94,4.19,-4.19,-4.22,-4.11,2.75,2.75,2.75
142.02,6.95,4.26,6.95,4.25,-4.25,-4.28,-4.12,2.69,2.69,2.68
143.44,6.95,4.32,6.95,4.31,-4.31,-4.35,-4.12,2.63,2.63,2.63
144.87,6.95,4.37,6.95,4.37,-4.37,-4.42,-4.13,2.58,2.58,2.58
146.32,6.95,4.43,6.95,4.43,-4.43,-4.49,-4.14,2.52,2.52,2.52
147.78,6.95,4.48,6.95,4.48,-4.48,-4.55,-4.14,2.46,2.46,2.46
149.26,6.95,4.54,6.94,4.54,-4.54,-4.62,-4.15,2.41,2.41,2.41
150.75,6.95,4.60,6.94,4.59,-4.59,-4.68,-4.16,2.35,2.35,2.35
152.26,6.95,4.64,6.94,4.65,-4.65,-4.74,-4.16,2.30,2.30,2.30
153.78,6.95,4.70,6.94,4.70,-4.70,-4.81,-4.17,2.24,2.24,2.25
155.32,6.95,4.75,6.94,4.76,-4.76,-4.87,-4.18,2.19,2.19,2.19
156.88,6.95,4.81,6.95,4.81,-4.81,-4.93,-4.20,2.13,2.13,2.14
158.44,6.95,4.87,6.95,4.87,-4.87,-4.99,-4.21,2.08,2.08,2.08
160.03,6.95,4.92,6.95,4.93,-4.93,-5.04,-4.23,2.02,2.02,2.03
161.63,6.95,4.98,6.95,4.99,-4.99,-5.10,-4.25,1.96,1.97,1.97
163.24,6.95,5.03,6.96,5.05,-5.05,-5.15,-4.27,1.90,1.91,1.91
164.88,6.95,5.09,6.96,5.11,-5.11,-5.21,-4.30,1.84,1.85,1.85
166.53,6.96,5.17,6.96,5.16,-5.16,-5.26,-4.33,1.79,1.80,1.79
168.19,6.96,5.21,6.96,5.22,-5.22,-5.31,-4.36,1.74,1.74,1.75
169.87,6.97,5.28,6.96,5.27,-5.27,-5.36,-4.40,1.69,1.68,1.68
171.57,6.97,5.34,6.95,5.32,-5.32,-5.41,-4.44,1.64,1.63,1.62
173.29,6.96,5.38,6.94,5.37,-5.37,-5.46,-4.48,1.59,1.57,1.57
175.02,6.95,5.43,6.93,5.41,-5.41,-5.51,-4.52,1.53,1.51,1.51
176.77,6.93,5.47,6.91,5.45,-5.45,-5.55,-4.57,1.47,1.46,1.46
178.54,6.91,5.50,6.89,5.49,-5.49,-5.60,-4.63,1.42,1.40,1.40
180.32,6.88,5.54,6.86,5.52,-5.52,-5.64,-4.68,1.36,1.35,1.34
182.13,6.85,5.55,6.84,5.55,-5.55,-5.68,-4.75,1.30,1.29,1.29
183.95,6.81,5.57,6.81,5.57,-5.57,-5.72,-4.81,1.23,1.24,1.24
185.79,6.77,5.59,6.78,5.60,-5.60,-5.76,-4.88,1.17,1.18,1.18
187.65,6.75,5.62,6.75,5.62,-5.62,-5.80,-4.95,1.13,1.13,1.13
189.52,6.72,5.64,6.72,5.64,-5.64,-5.84,-5.02,1.07,1.08,1.08
191.42,6.69,5.65,6.69,5.67,-5.67,-5.87,-5.10,1.02,1.03,1.03
193.33,6.66,5.67,6.67,5.69,-5.69,-5.91,-5.18,0.96,0.98,0.98
195.27,6.64,5.71,6.65,5.72,-5.72,-5.94,-5.26,0.92,0.93,0.93
197.22,6.62,5.74,6.64,5.75,-5.75,-5.97,-5.35,0.87,0.89,0.87
199.19,6.61,5.77,6.62,5.78,-5.78,-6.00,-5.44,0.82,0.84,0.84
201.18,6.60,5.81,6.62,5.82,-5.82,-6.03,-5.53,0.78,0.80,0.79
203.19,6.61,5.85,6.61,5.85,-5.85,-6.05,-5.62,0.75,0.76,0.76
205.23,6.62,5.89,6.61,5.89,-5.89,-6.08,-5.72,0.72,0.72,0.72
207.28,6.63,5.94,6.61,5.93,-5.93,-6.10,-5.81,0.70,0.68,0.69
209.35,6.63,5.98,6.61,5.97,-5.97,-6.12,-5.91,0.66,0.64,0.65
211.44,6.63,6.02,6.61,6.01,-6.01,-6.14,-6.01,0.62,0.61,0.61
213.56,6.63,6.04,6.62,6.04,-6.04,-6.16,-6.10,0.58,0.57,0.58
215.69,6.63,6.08,6.62,6.08,-6.08,-6.18,-6.20,0.55,0.54,0.54
217.85,6.63,6.12,6.62,6.12,-6.12,-6.20,-6.29,0.51,0.51,0.51
220.03,6.63,6.15,6.63,6.15,-6.15,-6.21,-6.39,0.48,0.48,0.47
222.23,6.63,6.18,6.63,6.18,-6.18,-6.23,-6.48,0.44,0.45,0.44
224.45,6.63,6.21,6.63,6.21,-6.21,-6.24,-6.56,0.41,0.42,0.42
226.70,6.63,6.24,6.64,6.24,-6.24,-6.25,-6.64,0.38,0.39,0.39
228.96,6.63,6.25,6.64,6.27,-6.27,-6.26,-6.72,0.35,0.37,0.37
231.25,6.63,6.28,6.64,6.29,-6.29,-6.26,-6.79,0.33,0.34,0.34
233.57,6.64,6.31,6.64,6.31,-6.31,-6.27,-6.86,0.32,0.32,0.32
235.90,6.64,6.33,6.64,6.33,-6.33,-6.27,-6.92,0.30,0.30,0.30
238.26,6.65,6.37,6.63,6.34,-6.34,-6.28,-6.97,0.30,0.29,0.28
240.64,6.64,6.36,6.63,6.35,-6.35,-6.28,-7.01,0.28,0.27,0.28
243.05,6.64,6.38,6.62,6.36,-6.36,-6.28,-7.04,0.28,0.26,0.26
245.48,6.63,6.38,6.61,6.36,-6.36,-6.28,-7.07,0.27,0.25,0.24
247.93,6.60,6.37,6.59,6.35,-6.35,-6.28,-7.08,0.24,0.24,0.23
250.41,6.58,6.34,6.57,6.34,-6.34,-6.27,-7.09,0.23,0.23,0.23
252.92,6.54,6.31,6.55,6.33,-6.33,-6.27,-7.08,0.21,0.22,0.23
255.45,6.52,6.30,6.52,6.31,-6.31,-6.26,-7.07,0.21,0.21,0.21
258.00,6.50,6.29,6.49,6.29,-6.29,-6.25,-7.05,0.21,0.20,0.21
260.58,6.47,6.26,6.46,6.26,-6.26,-6.24,-7.02,0.21,0.20,0.20
263.19,6.44,6.24,6.42,6.23,-6.23,-6.23,-6.98,0.21,0.19,0.20
265.82,6.39,6.20,6.38,6.20,-6.20,-6.22,-6.93,0.19,0.19,0.19
268.48,6.36,6.17,6.35,6.17,-6.17,-6.20,-6.87,0.19,0.18,0.19
271.16,6.32,6.13,6.31,6.13,-6.13,-6.19,-6.81,0.18,0.18,0.18
273.87,6.26,6.08,6.27,6.10,-6.10,-6.17,-6.74,0.16,0.17,0.17
276.61,6.23,6.05,6.23,6.06,-6.06,-6.16,-6.67,0.16,0.17,0.17
279.38,6.19,6.04,6.19,6.03,-6.03,-6.14,-6.59,0.16,0.16,0.15
282.17,6.16,6.01,6.16,5.99,-5.99,-6.12,-6.51,0.16,0.16,0.15
284.99,6.13,5.97,6.12,5.96,-5.96,-6.10,-6.42,0.16,0.16,0.16
287.84,6.09,5.92,6.09,5.93,-5.93,-6.07,-6.33,0.15,0.16,0.16
290.72,6.06,5.90,6.07,5.91,-5.91,-6.05,-6.24,0.15,0.16,0.15
293.63,6.04,5.87,6.05,5.89,-5.89,-6.03,-6.15,0.15,0.16,0.16
296.57,6.01,5.84,6.03,5.86,-5.86,-6.00,-6.06,0.14,0.16,0.16
299.53,5.99,5.82,6.01,5.84,-5.84,-5.97,-5.97,0.14,0.17,0.17
302.53,5.98,5.80,6.00,5.83,-5.83,-5.95,-5.88,0.15,0.17,0.18
305.55,5.98,5.80,5.98,5.81,-5.81,-5.92,-5.79,0.17,0.18,0.17
308.61,5.98,5.79,5.97,5.79,-5.79,-5.89,-5.70,0.19,0.18,0.18
311.69,5.98,5.79,5.96,5.77,-5.77,-5.86,-5.61,0.21,0.19,0.19
314.81,5.97,5.78,5.94,5.75,-5.75,-5.82,-5.53,0.22,0.19,0.19
317.96,5.96,5.76,5.92,5.73,-5.73,-5.79,-5.44,0.23,0.20,0.19
321.14,5.94,5.73,5.90,5.70,-5.70,-5.76,-5.36,0.23,0.20,0.21
324.35,5.91,5.70,5.88,5.68,-5.68,-5.72,-5.29,0.23,0.21,0.20
327.59,5.87,5.64,5.86,5.65,-5.65,-5.69,-5.21,0.22,0.21,0.23
330.87,5.85,5.63,5.84,5.62,-5.62,-5.65,-5.14,0.23,0.22,0.22
334.18,5.81,5.58,5.81,5.59,-5.59,-5.61,-5.08,0.22,0.23,0.22
337.52,5.77,5.54,5.79,5.55,-5.55,-5.57,-5.01,0.21,0.23,0.23
340.90,5.75,5.50,5.76,5.52,-5.52,-5.53,-4.95,0.23,0.24,0.24
344.30,5.72,5.47,5.74,5.49,-5.49,-5.49,-4.89,0.23,0.25,0.25
347.75,5.70,5.44,5.71,5.46,-5.46,-5.45,-4.84,0.24,0.25,0.26
351.23,5.68,5.42,5.69,5.43,-5.43,-5.41,-4.79,0.24,0.26,0.25
354.74,5.67,5.39,5.67,5.40,-5.40,-5.37,-4.75,0.26,0.27,0.28
358.28,5.65,5.37,5.65,5.38,-5.38,-5.33,-4.71,0.27,0.27,0.27
361.87,5.64,5.36,5.64,5.36,-5.36,-5.28,-4.67,0.28,0.28,0.28
365.49,5.63,5.34,5.62,5.33,-5.33,-5.24,-4.63,0.29,0.29,0.28
369.14,5.61,5.30,5.60,5.31,-5.31,-5.19,-4.60,0.30,0.29,0.30
372.83,5.60,5.29,5.58,5.28,-5.28,-5.15,-4.57,0.32,0.30,0.31
376.56,5.57,5.26,5.56,5.25,-5.25,-5.10,-4.55,0.32,0.31,0.30
380.33,5.55,5.23,5.53,5.21,-5.21,-5.05,-4.53,0.33,0.32,0.31
384.13,5.52,5.19,5.50,5.18,-5.18,-5.01,-4.51,0.34,0.33,0.33
387.97,5.49,5.15,5.47,5.14,-5.14,-4.96,-4.50,0.35,0.33,0.33
391.85,5.45,5.10,5.44,5.09,-5.09,-4.91,-4.49,0.35,0.34,0.34
395.77,5.41,5.06,5.40,5.05,-5.05,-4.86,-4.48,0.35,0.35,0.35
399.73,5.37,5.01,5.37,5.00,-5.00,-4.81,-4.47,0.36,0.36,0.36
403.72,5.32,4.93,5.33,4.96,-4.96,-4.76,-4.47,0.36,0.37,0.38
407.76,5.27,4.88,5.29,4.91,-4.91,-4.71,-4.46,0.36,0.38,0.38
411.84,5.24,4.85,5.25,4.86,-4.86,-4.66,-4.46,0.38,0.39,0.39
415.96,5.20,4.79,5.21,4.81,-4.81,-4.61,-4.46,0.39,0.40,0.41
420.12,5.17,4.76,5.16,4.76,-4.76,-4.55,-4.46,0.41,0.41,0.40
424.32,5.13,4.71,5.12,4.70,-4.70,-4.50,-4.47,0.42,0.42,0.41
428.56,5.09,4.66,5.07,4.65,-4.65,-4.45,-4.47,0.43,0.42,0.43
432.85,5.04,4.60,5.03,4.60,-4.60,-4.39,-4.47,0.44,0.43,0.44
437.18,5.00,4.56,4.99,4.55,-4.55,-4.34,-4.47,0.45,0.44,0.44
441.55,4.95,4.50,4.94,4.49,-4.49,-4.29,-4.48,0.45,0.45,0.44
445.96,4.90,4.44,4.89,4.44,-4.44,-4.23,-4.48,0.46,0.46,0.45
450.42,4.85,4.38,4.85,4.38,-4.38,-4.18,-4.47,0.46,0.46,0.46
454.93,4.79,4.32,4.80,4.33,-4.33,-4.12,-4.47,0.46,0.47,0.47
459.48,4.75,4.27,4.75,4.27,-4.27,-4.07,-4.47,0.48,0.48,0.48
464.07,4.70,4.20,4.70,4.21,-4.21,-4.01,-4.46,0.48,0.49,0.50
468.71,4.66,4.15,4.65,4.15,-4.15,-3.95,-4.44,0.50,0.50,0.51
473.40,4.62,4.10,4.61,4.10,-4.10,-3.90,-4.43,0.52,0.51,0.51
478.13,4.56,4.03,4.56,4.04,-4.04,-3.84,-4.41,0.52,0.52,0.52
482.91,4.51,3.97,4.51,3.98,-3.98,-3.78,-4.38,0.52,0.53,0.53
487.74,4.46,3.92,4.46,3.92,-3.92,-3.73,-4.36,0.53,0.54,0.54
492.62,4.41,3.86,4.42,3.87,-3.87,-3.67,-4.32,0.54,0.55,0.55
497.55,4.38,3.82,4.37,3.81,-3.81,-3.61,-4.28,0.57,0.56,0.56
502.52,4.34,3.77,4.32,3.75,-3.75,-3.55,-4.24,0.59,0.57,0.57
507.55,4.29,3.70,4.27,3.69,-3.69,-3.49,-4.19,0.60,0.58,0.59
512.62,4.24,3.64,4.22,3.63,-3.63,-3.43,-4.14,0.61,0.60,0.59
517.75,4.17,3.55,4.17,3.57,-3.57,-3.38,-4.08,0.60,0.61,0.61
