frequency,raw,error,smoothed,error_smoothed,equalization,parametric_eq,fixed_band_eq,equalized_raw,equalized_smoothed,target
20.00,1.00,-3.05,0.95,-3.13,3.13,2.15,1.40,4.13,4.08,4.05
20.20,1.01,-3.09,0.99,-3.12,3.12,2.20,1.44,4.13,4.11,4.10
20.40,1.03,-3.12,1.03,-3.12,3.12,2.24,1.48,4.15,4.15,4.15
20.61,1.04,-3.14,1.06,-3.12,3.12,2.28,1.52,4.16,4.18,4.17
20.81,1.05,-3.18,1.09,-3.11,3.11,2.33,1.57,4.16,4.21,4.22
21.02,1.07,-3.19,1.13,-3.11,3.11,2.37,1.61,4.18,4.24,4.26
21.23,1.12,-3.16,1.15,-3.11,3.11,2.41,1.66,4.23,4.26,4.28
21.44,1.17,-3.13,1.18,-3.10,3.10,2.46,1.70,4.27,4.28,4.30
21.66,1.22,-3.10,1.20,-3.10,3.10,2.50,1.75,4.32,4.30,4.32
21.87,1.27,-3.06,1.23,-3.10,3.10,2.55,1.80,4.37,4.32,4.33
22.09,1.30,-3.05,1.25,-3.09,3.09,2.59,1.85,4.39,4.34,4.35
22.31,1.29,-3.07,1.26,-3.09,3.09,2.64,1.90,4.38,4.35,4.36
22.54,1.28,-3.08,1.28,-3.07,3.07,2.68,1.96,4.35,4.36,4.36
22.76,1.27,-3.09,1.30,-3.06,3.06,2.72,2.01,4.33,4.36,4.36
22.99,1.26,-3.09,1.31,-3.05,3.05,2.77,2.07,4.31,4.36,4.35
23.22,1.29,-3.06,1.32,-3.04,3.04,2.81,2.12,4.33,4.36,4.35
23.45,1.32,-3.03,1.32,-3.04,3.04,2.85,2.18,4.36,4.36,4.35
23.69,1.35,-3.01,1.32,-3.04,3.04,2.90,2.24,4.39,4.36,4.36
23.92,1.37,-2.99,1.32,-3.05,3.05,2.94,2.30,4.42,4.36,4.36
24.16,1.36,-3.01,1.31,-3.05,3.05,2.98,2.36,4.41,4.36,4.36
24.40,1.33,-3.04,1.31,-3.05,3.05,3.02,2.43,4.38,4.36,4.37
24.65,1.30,-3.06,1.31,-3.05,3.05,3.06,2.49,4.35,4.36,4.36
24.89,1.27,-3.09,1.32,-3.05,3.05,3.10,2.55,4.32,4.36,4.36
25.14,1.27,-3.09,1.32,-3.05,3.05,3.13,2.62,4.31,4.36,4.36
25.39,1.28,-3.09,1.31,-3.05,3.05,3.17,2.68,4.33,4.36,4.37
25.65,1.29,-3.08,1.31,-3.06,3.06,3.20,2.75,4.35,4.36,4.37
25.91,1.30,-3.06,1.29,-3.07,3.07,3.24,2.82,4.37,4.36,4.36
26.16,1.30,-3.06,1.28,-3.08,3.08,3.27,2.88,4.38,4.36,4.36
26.43,1.31,-3.05,1.27,-3.09,3.09,3.30,2.95,4.40,4.36,4.36
26.69,1.31,-3.04,1.26,-3.09,3.09,3.32,3.01,4.40,4.36,4.35
26.96,1.31,-3.05,1.26,-3.10,3.10,3.35,3.07,4.40,4.35,4.36
27.23,1.28,-3.08,1.26,-3.09,3.09,3.37,3.13,4.37,4.35,4.36
27.50,1.25,-3.11,1.26,-3.09,3.09,3.40,3.20,4.34,4.35,4.36
27.77,1.21,-3.14,1.27,-3.08,3.08,3.42,3.25,4.29,4.35,4.35
28.05,1.19,-3.16,1.27,-3.08,3.08,3.43,3.31,4.27,4.35,4.35
28.33,1.21,-3.13,1.27,-3.08,3.08,3.45,3.37,4.29,4.35,4.34
28.62,1.24,-3.09,1.26,-3.08,3.08,3.46,3.42,4.32,4.34,4.33
28.90,1.26,-3.08,1.27,-3.08,3.08,3.48,3.47,4.34,4.34,4.34
29.19,1.29,-3.04,1.27,-3.07,3.07,3.48,3.51,4.36,4.34,4.33
29.48,1.30,-3.05,1.27,-3.07,3.07,3.49,3.56,4.37,4.34,4.35
29.78,1.32,-3.02,1.27,-3.07,3.07,3.49,3.60,4.38,4.34,4.34
30.08,1.33,-3.01,1.27,-3.06,3.06,3.50,3.63,4.39,4.33,4.34
30.38,1.29,-3.04,1.27,-3.06,3.06,3.50,3.66,4.35,4.33,4.33
30.68,1.26,-3.07,1.26,-3.06,3.06,3.49,3.69,4.32,4.33,4.33
30.99,1.23,-3.10,1.26,-3.07,3.07,3.49,3.71,4.30,4.33,4.33
31.30,1.23,-3.10,1.24,-3.09,3.09,3.48,3.73,4.31,4.33,4.32
31.61,1.22,-3.10,1.22,-3.10,3.10,3.47,3.75,4.32,4.32,4.32
31.93,1.22,-3.10,1.20,-3.12,3.12,3.46,3.76,4.34,4.32,4.32
32.24,1.19,-3.12,1.18,-3.14,3.14,3.45,3.77,4.33,4.31,4.31
32.57,1.15,-3.16,1.15,-3.16,3.16,3.43,3.77,4.31,4.31,4.31
32.89,1.11,-3.20,1.12,-3.18,3.18,3.42,3.77,4.29,4.30,4.31
33.22,1.09,-3.21,1.10,-3.20,3.20,3.40,3.77,4.29,4.30,4.30
33.55,1.07,-3.23,1.08,-3.22,3.22,3.38,3.76,4.29,4.29,4.30
33.89,1.06,-3.22,1.06,-3.23,3.23,3.36,3.75,4.29,4.29,4.28
34.23,1.04,-3.25,1.04,-3.25,3.25,3.33,3.74,4.29,4.28,4.29
34.57,1.03,-3.25,1.02,-3.26,3.26,3.31,3.73,4.29,4.28,4.28
34.92,1.02,-3.25,1.01,-3.27,3.27,3.28,3.71,4.28,4.27,4.27
35.27,1.00,-3.27,1.00,-3.27,3.27,3.25,3.69,4.27,4.27,4.27
35.62,0.98,-3.28,1.00,-3.27,3.27,3.23,3.68,4.25,4.27,4.26
35.97,0.95,-3.31,1.00,-3.26,3.26,3.20,3.66,4.21,4.26,4.26
36.33,0.97,-3.30,1.01,-3.25,3.25,3.17,3.64,4.22,4.26,4.27
36.70,0.98,-3.27,1.02,-3.24,3.24,3.14,3.62,4.22,4.26,4.25
37.06,1.00,-3.25,1.02,-3.23,3.23,3.11,3.60,4.23,4.26,4.25
37.43,1.02,-3.24,1.03,-3.23,3.23,3.08,3.58,4.25,4.26,4.26
37.81,1.04,-3.22,1.03,-3.23,3.23,3.05,3.56,4.27,4.26,4.26
38.19,1.06,-3.19,1.02,-3.23,3.23,3.02,3.55,4.29,4.26,4.25
38.57,1.06,-3.20,1.01,-3.24,3.24,2.99,3.53,4.30,4.25,4.26
38.95,1.06,-3.20,0.99,-3.26,3.26,2.96,3.52,4.32,4.25,4.26
39.34,1.03,-3.23,0.96,-3.29,3.29,2.93,3.50,4.32,4.25,4.25
39.74,1.00,-3.25,0.94,-3.32,3.32,2.90,3.49,4.32,4.25,4.25
40.14,0.95,-3.30,0.91,-3.34,3.34,2.87,3.48,4.29,4.25,4.25
40.54,0.87,-3.38,0.87,-3.37,3.37,2.84,3.48,4.24,4.25,4.25
40.94,0.80,-3.44,0.84,-3.40,3.40,2.81,3.47,4.20,4.24,4.24
41.35,0.75,-3.48,0.80,-3.44,3.44,2.78,3.47,4.19,4.24,4.23
41.76,0.71,-3.52,0.76,-3.47,3.47,2.76,3.47,4.17,4.23,4.23
42.18,0.67,-3.56,0.72,-3.49,3.49,2.73,3.47,4.16,4.22,4.23
42.60,0.63,-3.58,0.69,-3.52,3.52,2.71,3.48,4.14,4.21,4.21
43.03,0.60,-3.60,0.66,-3.53,3.53,2.69,3.49,4.13,4.19,4.20
43.46,0.65,-3.54,0.64,-3.54,3.54,2.67,3.50,4.19,4.18,4.19
43.90,0.71,-3.46,0.63,-3.54,3.54,2.65,3.51,4.25,4.17,4.16
44.33,0.68,-3.47,0.62,-3.53,3.53,2.63,3.53,4.21,4.15,4.15
44.78,0.62,-3.51,0.62,-3.51,3.51,2.62,3.55,4.13,4.14,4.13
45.23,0.59,-3.53,0.62,-3.50,3.50,2.61,3.57,4.09,4.12,4.12
45.68,0.60,-3.50,0.62,-3.48,3.48,2.59,3.60,4.08,4.11,4.10
46.13,0.60,-3.48,0.62,-3.47,3.47,2.59,3.62,4.07,4.09,4.08
46.60,0.61,-3.47,0.62,-3.45,3.45,2.58,3.65,4.06,4.07,4.08
47.06,0.61,-3.44,0.61,-3.45,3.45,2.58,3.69,4.06,4.06,4.05
47.53,0.62,-3.42,0.60,-3.44,3.44,2.58,3.72,4.06,4.04,4.04
48.01,0.62,-3.42,0.58,-3.45,3.45,2.58,3.76,4.06,4.02,4.04
48.49,0.60,-3.42,0.55,-3.45,3.45,2.59,3.80,4.05,4.01,4.02
48.97,0.58,-3.42,0.53,-3.46,3.46,2.60,3.84,4.04,3.99,3.99
49.46,0.52,-3.45,0.51,-3.47,3.47,2.61,3.88,3.98,3.98,3.97
49.96,0.45,-3.50,0.49,-3.47,3.47,2.63,3.93,3.92,3.96,3.95
50.46,0.44,-3.50,0.46,-3.48,3.48,2.65,3.97,3.92,3.94,3.94
50.96,0.44,-3.49,0.43,-3.49,3.49,2.68,4.02,3.93,3.93,3.93
51.47,0.38,-3.52,0.40,-3.51,3.51,2.71,4.07,3.89,3.91,3.90
51.99,0.31,-3.58,0.37,-3.53,3.53,2.75,4.12,3.84,3.90,3.89
52.51,0.31,-3.57,0.34,-3.55,3.55,2.79,4.16,3.85,3.88,3.88
53.03,0.31,-3.56,0.30,-3.56,3.56,2.84,4.21,3.87,3.87,3.87
53.56,0.28,-3.58,0.27,-3.58,3.58,2.89,4.26,3.86,3.85,3.86
54.10,0.26,-3.58,0.23,-3.60,3.60,2.95,4.31,3.86,3.84,3.84
54.64,0.21,-3.61,0.19,-3.63,3.63,3.01,4.35,3.84,3.82,3.82
55.18,0.17,-3.64,0.15,-3.66,3.66,3.09,4.39,3.83,3.81,3.81
55.74,0.12,-3.67,0.10,-3.69,3.69,3.17,4.43,3.81,3.79,3.79
56.29,0.07,-3.71,0.06,-3.72,3.72,3.25,4.47,3.79,3.78,3.78
56.86,0.02,-3.74,0.01,-3.75,3.75,3.34,4.50,3.77,3.76,3.76
57.42,-0.02,-3.75,-0.04,-3.78,3.78,3.44,4.53,3.76,3.74,3.72
58.00,-0.06,-3.77,-0.09,-3.81,3.81,3.54,4.55,3.75,3.72,3.71
58.58,-0.18,-3.88,-0.16,-3.85,3.85,3.65,4.57,3.66,3.69,3.70
59.16,-0.28,-3.95,-0.22,-3.88,3.88,3.76,4.58,3.60,3.66,3.67
59.76,-0.34,-3.99,-0.28,-3.91,3.91,3.87,4.58,3.57,3.63,3.65
60.35,-0.37,-3.97,-0.34,-3.93,3.93,3.97,4.58,3.56,3.59,3.60
60.96,-0.37,-3.94,-0.40,-3.95,3.95,4.08,4.58,3.58,3.55,3.57
61.57,-0.41,-3.93,-0.46,-3.97,3.97,4.18,4.56,3.56,3.51,3.52
62.18,-0.47,-3.94,-0.52,-3.99,3.99,4.27,4.54,3.52,3.47,3.47
62.80,-0.58,-4.00,-0.58,-4.01,4.01,4.34,4.51,3.43,3.43,3.42
63.43,-0.67,-4.04,-0.64,-4.02,4.02,4.40,4.47,3.35,3.38,3.37
64.07,-0.74,-4.06,-0.70,-4.03,4.03,4.44,4.42,3.29,3.33,3.32
64.71,-0.77,-4.04,-0.76,-4.04,4.04,4.46,4.37,3.27,3.28,3.27
65.35,-0.80,-4.03,-0.82,-4.04,4.04,4.46,4.31,3.24,3.23,3.22
66.01,-0.84,-4.01,-0.88,-4.05,4.05,4.43,4.24,3.21,3.17,3.17
66.67,-0.93,-4.05,-0.94,-4.06,4.06,4.37,4.17,3.13,3.12,3.12
67.33,-1.02,-4.08,-1.01,-4.07,4.07,4.30,4.09,3.05,3.07,3.06
68.01,-1.10,-4.12,-1.07,-4.08,4.08,4.20,4.00,2.98,3.01,3.01
68.69,-1.13,-4.09,-1.13,-4.09,4.09,4.08,3.91,2.96,2.95,2.96
69.37,-1.17,-4.07,-1.20,-4.09,4.09,3.95,3.81,2.92,2.90,2.90
70.07,-1.21,-4.05,-1.26,-4.09,4.09,3.81,3.71,2.88,2.84,2.84
70.77,-1.28,-4.07,-1.31,-4.09,4.09,3.66,3.61,2.81,2.78,2.79
71.48,-1.34,-4.07,-1.36,-4.08,4.08,3.50,3.50,2.74,2.72,2.73
72.19,-1.40,-4.06,-1.41,-4.07,4.07,3.34,3.39,2.67,2.65,2.66
72.91,-1.46,-4.05,-1.45,-4.04,4.04,3.18,3.27,2.58,2.59,2.59
73.64,-1.52,-4.05,-1.48,-4.01,4.01,3.03,3.15,2.49,2.53,2.53
74.38,-1.55,-4.01,-1.50,-3.97,3.97,2.87,3.03,2.42,2.47,2.46
75.12,-1.55,-3.95,-1.51,-3.92,3.92,2.72,2.91,2.36,2.40,2.40
75.87,-1.57,-3.90,-1.51,-3.85,3.85,2.57,2.79,2.28,2.34,2.33
76.63,-1.54,-3.81,-1.51,-3.78,3.78,2.43,2.67,2.24,2.28,2.27
77.40,-1.48,-3.69,-1.49,-3.70,3.70,2.29,2.55,2.22,2.22,2.21
78.17,-1.42,-3.56,-1.46,-3.62,3.62,2.16,2.42,2.20,2.16,2.14
78.95,-1.38,-3.48,-1.42,-3.51,3.51,2.04,2.30,2.13,2.10,2.10
79.74,-1.36,-3.40,-1.36,-3.40,3.40,1.92,2.17,2.04,2.04,2.04
80.54,-1.31,-3.30,-1.30,-3.28,3.28,1.80,2.05,1.97,1.98,1.99
81.35,-1.23,-3.15,-1.23,-3.15,3.15,1.69,1.93,1.92,1.93,1.92
82.16,-1.14,-3.01,-1.15,-3.02,3.02,1.59,1.80,1.88,1.87,1.87
82.98,-1.05,-2.87,-1.07,-2.88,2.88,1.49,1.68,1.83,1.82,1.82
83.81,-0.98,-2.74,-0.98,-2.74,2.74,1.39,1.56,1.76,1.76,1.76
84.65,-0.90,-2.60,-0.88,-2.58,2.58,1.30,1.44,1.68,1.70,1.70
85.50,-0.82,-2.47,-0.78,-2.43,2.43,1.21,1.32,1.61,1.64,1.65
86.35,-0.69,-2.28,-0.68,-2.27,2.27,1.13,1.19,1.58,1.59,1.59
87.22,-0.54,-2.07,-0.58,-2.11,2.11,1.04,1.07,1.57,1.53,1.53
88.09,-0.44,-1.91,-0.46,-1.93,1.93,0.96,0.96,1.49,1.47,1.47
88.97,-0.35,-1.76,-0.34,-1.75,1.75,0.89,0.84,1.40,1.41,1.41
89.86,-0.25,-1.60,-0.22,-1.57,1.57,0.81,0.72,1.32,1.35,1.35
90.76,-0.10,-1.39,-0.10,-1.39,1.39,0.73,0.60,1.29,1.29,1.29
91.66,0.03,-1.20,0.02,-1.21,1.21,0.66,0.48,1.24,1.23,1.23
92.58,0.15,-1.01,0.14,-1.03,1.03,0.59,0.37,1.18,1.17,1.16
93.51,0.27,-0.84,0.27,-0.84,0.84,0.51,0.25,1.11,1.11,1.11
94.44,0.38,-0.67,0.40,-0.65,0.65,0.44,0.14,1.03,1.05,1.05
95.39,0.50,-0.50,0.53,-0.46,0.46,0.37,0.02,0.96,0.99,1.00
96.34,0.66,-0.27,0.65,-0.28,0.28,0.29,-0.09,0.94,0.93,0.93
97.30,0.81,-0.06,0.77,-0.11,0.11,0.22,-0.20,0.92,0.88,0.87
98.28,0.88,0.06,0.89,0.07,-0.07,0.14,-0.31,0.81,0.82,0.82
99.26,0.98,0.22,1.00,0.24,-0.24,0.06,-0.42,0.74,0.76,0.76
100.25,1.09,0.39,1.11,0.41,-0.41,-0.02,-0.53,0.68,0.70,0.70
101.25,1.18,0.53,1.21,0.57,-0.57,-0.10,-0.64,0.61,0.64,0.65
102.27,1.34,0.75,1.30,0.71,-0.71,-0.18,-0.75,0.63,0.59,0.59
103.29,1.43,0.91,1.37,0.85,-0.85,-0.27,-0.85,0.58,0.53,0.52
104.32,1.49,1.02,1.44,0.97,-0.97,-0.36,-0.95,0.52,0.47,0.47
105.37,1.51,1.09,1.49,1.08,-1.08,-0.46,-1.06,0.42,0.41,0.42
106.42,1.56,1.20,1.54,1.19,-1.19,-0.56,-1.16,0.37,0.35,0.36
107.48,1.61,1.32,1.57,1.29,-1.29,-0.67,-1.25,0.32,0.28,0.29
108.56,1.66,1.44,1.61,1.39,-1.39,-0.78,-1.35,0.27,0.22,0.22
109.64,1.70,1.53,1.65,1.49,-1.49,-0.90,-1.44,0.21,0.16,0.16
110.74,1.66,1.56,1.68,1.58,-1.58,-1.02,-1.53,0.08,0.10,0.10
111.85,1.63,1.58,1.71,1.67,-1.67,-1.15,-1.61,-0.04,0.04,0.05
112.97,1.60,1.63,1.74,1.76,-1.76,-1.29,-1.70,-0.16,-0.02,-0.03
114.10,1.67,1.75,1.76,1.84,-1.84,-1.43,-1.77,-0.17,-0.08,-0.08
115.24,1.75,1.89,1.78,1.92,-1.92,-1.58,-1.85,-0.17,-0.14,-0.14
116.39,1.80,2.00,1.81,2.00,-2.00,-1.73,-1.92,-0.20,-0.19,-0.21
117.55,1.86,2.11,1.84,2.08,-2.08,-1.89,-1.98,-0.22,-0.24,-0.25
118.73,1.92,2.23,1.86,2.16,-2.16,-2.04,-2.04,-0.24,-0.29,-0.31
119.92,1.95,2.29,1.88,2.23,-2.23,-2.20,-2.10,-0.28,-0.34,-0.34
121.12,1.95,2.34,1.90,2.29,-2.29,-2.35,-2.15,-0.34,-0.39,-0.39
122.33,1.95,2.39,1.92,2.35,-2.35,-2.49,-2.19,-0.41,-0.43,-0.44
123.55,1.96,2.43,1.94,2.41,-2.41,-2.62,-2.23,-0.45,-0.48,-0.47
124.79,1.92,2.43,1.95,2.46,-2.46,-2.73,-2.26,-0.54,-0.52,-0.51
126.03,1.88,2.43,1.94,2.50,-2.50,-2.82,-2.29,-0.62,-0.56,-0.55
127.29,1.93,2.51,1.93,2.52,-2.52,-2.89,-2.31,-0.59,-0.60,-0.58
128.57,1.93,2.56,1.90,2.54,-2.54,-2.93,-2.33,-0.61,-0.63,-0.63
129.85,1.87,2.54,1.88,2.55,-2.55,-2.94,-2.34,-0.68,-0.67,-0.67
131.15,1.83,2.54,1.84,2.55,-2.55,-2.92,-2.35,-0.72,-0.71,-0.71
132.46,1.81,2.56,1.81,2.55,-2.55,-2.87,-2.35,-0.74,-0.75,-0.75
133.79,1.79,2.58,1.77,2.55,-2.55,-2.81,-2.35,-0.76,-0.79,-0.79
135.12,1.73,2.56,1.72,2.54,-2.54,-2.73,-2.34,-0.81,-0.82,-0.83
136.48,1.67,2.53,1.67,2.53,-2.53,-2.63,-2.33,-0.86,-0.86,-0.86
137.84,1.61,2.51,1.62,2.51,-2.51,-2.53,-2.31,-0.90,-0.89,-0.90
139.22,1.53,2.47,1.56,2.49,-2.49,-2.42,-2.29,-0.97,-0.93,-0.94
140.61,1.49,2.47,1.50,2.47,-2.47,-2.31,-2.27,-0.98,-0.97,-0.99
142.02,1.44,2.45,1.43,2.44,-2.44,-2.21,-2.25,-1.00,-1.01,-1.01
143.44,1.34,2.39,1.36,2.41,-2.41,-2.10,-2.22,-1.07,-1.05,-1.05
144.87,1.26,2.36,1.28,2.38,-2.38,-2.01,-2.19,-1.12,-1.10,-1.10
146.32,1.17,2.31,1.19,2.34,-2.34,-1.92,-2.17,-1.18,-1.15,-1.14
147.78,1.09,2.27,1.09,2.30,-2.30,-1.84,-2.13,-1.21,-1.21,-1.18
149.26,0.99,2.23,0.96,2.23,-2.23,-1.77,-2.10,-1.25,-1.27,-1.24
150.75,0.87,2.18,0.82,2.16,-2.16,-1.71,-2.07,-1.29,-1.34,-1.31
152.26,0.78,2.17,0.65,2.06,-2.06,-1.66,-2.04,-1.28,-1.41,-1.39
153.78,0.64,2.10,0.47,1.96,-1.96,-1.62,-2.00,-1.32,-1.48,-1.46
155.32,0.45,1.99,0.29,1.85,-1.85,-1.58,-1.97,-1.40,-1.56,-1.54
156.88,0.23,1.86,0.12,1.75,-1.75,-1.56,-1.93,-1.52,-1.63,-1.63
158.44,0.06,1.78,-0.05,1.67,-1.67,-1.54,-1.90,-1.61,-1.71,-1.72
160.03,-0.14,1.67,-0.19,1.60,-1.60,-1.54,-1.87,-1.74,-1.79,-1.81
161.63,-0.42,1.46,-0.30,1.56,-1.56,-1.54,-1.84,-1.98,-1.86,-1.88
163.24,-0.61,1.34,-0.39,1.54,-1.54,-1.55,-1.81,-2.15,-1.93,-1.95
164.88,-0.78,1.23,-0.44,1.55,-1.55,-1.57,-1.78,-2.33,-1.99,-2.01
166.53,-0.82,1.24,-0.46,1.58,-1.58,-1.60,-1.75,-2.40,-2.05,-2.06
168.19,-0.74,1.37,-0.46,1.63,-1.63,-1.63,-1.72,-2.37,-2.09,-2.11
169.87,-0.59,1.56,-0.43,1.70,-1.70,-1.68,-1.69,-2.29,-2.13,-2.15
171.57,-0.35,1.83,-0.37,1.79,-1.79,-1.73,-1.67,-2.14,-2.16,-2.18
173.29,-0.17,2.03,-0.30,1.89,-1.89,-1.79,-1.64,-2.06,-2.19,-2.20
175.02,-0.05,2.16,-0.21,2.00,-2.00,-1.86,-1.62,-2.05,-2.21,-2.21
176.77,0.10,2.33,-0.11,2.11,-2.11,-1.94,-1.60,-2.01,-2.22,-2.23
178.54,0.21,2.45,-0.02,2.22,-2.22,-2.02,-1.58,-2.01,-2.24,-2.24
180.32,0.24,2.48,0.07,2.32,-2.32,-2.11,-1.56,-2.08,-2.25,-2.24
182.13,0.23,2.46,0.14,2.40,-2.40,-2.20,-1.54,-2.17,-2.26,-2.24
183.95,0.21,2.46,0.19,2.45,-2.45,-2.29,-1.53,-2.25,-2.27,-2.25
185.79,0.18,2.44,0.21,2.49,-2.49,-2.37,-1.51,-2.31,-2.28,-2.26
187.65,0.14,2.42,0.20,2.49,-2.49,-2.46,-1.50,-2.36,-2.29,-2.28
189.52,0.15,2.45,0.17,2.48,-2.48,-2.53,-1.49,-2.33,-2.31,-2.30
191.42,0.11,2.43,0.13,2.46,-2.46,-2.59,-1.48,-2.35,-2.33,-2.32
193.33,0.05,2.39,0.08,2.43,-2.43,-2.63,-1.47,-2.38,-2.35,-2.35
195.27,-0.02,2.35,0.04,2.40,-2.40,-2.66,-1.46,-2.42,-2.37,-2.37
197.22,-0.05,2.34,-0.02,2.37,-2.37,-2.66,-1.45,-2.42,-2.39,-2.39
199.19,-0.06,2.36,-0.07,2.34,-2.34,-2.64,-1.44,-2.40,-2.41,-2.42
201.18,-0.08,2.36,-0.12,2.32,-2.32,-2.60,-1.44,-2.40,-2.44,-2.44
203.19,-0.16,2.30,-0.17,2.29,-2.29,-2.54,-1.43,-2.45,-2.46,-2.46
205.23,-0.22,2.27,-0.22,2.26,-2.26,-2.46,-1.43,-2.49,-2.49,-2.49
207.28,-0.29,2.21,-0.28,2.23,-2.23,-2.36,-1.42,-2.52,-2.51,-2.50
209.35,-0.36,2.16,-0.34,2.20,-2.20,-2.26,-1.42,-2.56,-2.53,-2.53
211.44,-0.41,2.15,-0.40,2.15,-2.15,-2.15,-1.41,-2.57,-2.55,-2.56
213.56,-0.43,2.14,-0.46,2.11,-2.11,-2.04,-1.41,-2.54,-2.57,-2.57
215.69,-0.47,2.11,-0.52,2.07,-2.07,-1.92,-1.41,-2.54,-2.59,-2.59
217.85,-0.62,1.98,-0.59,2.02,-2.02,-1.81,-1.40,-2.64,-2.60,-2.60
220.03,-0.65,1.97,-0.65,1.96,-1.96,-1.70,-1.40,-2.61,-2.61,-2.62
222.23,-0.70,1.94,-0.72,1.90,-1.90,-1.59,-1.40,-2.60,-2.62,-2.64
224.45,-0.78,1.85,-0.79,1.84,-1.84,-1.49,-1.39,-2.62,-2.63,-2.63
226.70,-0.86,1.78,-0.85,1.78,-1.78,-1.39,-1.39,-2.64,-2.63,-2.64
228.96,-0.93,1.70,-0.92,1.71,-1.71,-1.30,-1.38,-2.64,-2.63,-2.63
231.25,-1.01,1.61,-0.98,1.65,-1.65,-1.22,-1.37,-2.66,-2.62,-2.62
233.57,-1.04,1.58,-1.03,1.58,-1.58,-1.14,-1.36,-2.62,-2.61,-2.62
235.90,-1.09,1.52,-1.09,1.52,-1.52,-1.07,-1.35,-2.61,-2.60,-2.61
238.26,-1.15,1.45,-1.14,1.45,-1.45,-1.00,-1.34,-2.60,-2.59,-2.60
240.64,-1.22,1.36,-1.19,1.38,-1.38,-0.94,-1.32,-2.60,-2.57,-2.58
243.05,-1.26,1.29,-1.23,1.32,-1.32,-0.88,-1.31,-2.58,-2.55,-2.55
245.48,-1.29,1.24,-1.28,1.25,-1.25,-0.83,-1.29,-2.54,-2.53,-2.53
247.93,-1.31,1.19,-1.33,1.18,-1.18,-0.78,-1.27,-2.49,-2.51,-2.50
250.41,-1.33,1.16,-1.38,1.11,-1.11,-0.73,-1.25,-2.44,-2.49,-2.49
252.92,-1.42,1.04,-1.43,1.04,-1.04,-0.69,-1.23,-2.46,-2.47,-2.46
255.45,-1.45,0.99,-1.48,0.96,-0.96,-0.65,-1.20,-2.42,-2.45,-2.44
258.00,-1.49,0.93,-1.53,0.89,-0.89,-0.61,-1.18,-2.38,-2.42,-2.42
260.58,-1.58,0.82,-1.59,0.81,-0.81,-0.58,-1.15,-2.39,-2.40,-2.40
263.19,-1.66,0.71,-1.64,0.74,-0.74,-0.55,-1.12,-2.40,-2.38,-2.37
265.82,-1.71,0.65,-1.70,0.66,-0.66,-0.52,-1.08,-2.37,-2.35,-2.36
268.48,-1.76,0.58,-1.75,0.58,-0.58,-0.49,-1.05,-2.34,-2.33,-2.34
271.16,-1.81,0.49,-1.81,0.50,-0.50,-0.46,-1.01,-2.31,-2.31,-2.30
273.87,-1.91,0.38,-1.86,0.42,-0.42,-0.44,-0.97,-2.33,-2.28,-2.29
276.61,-1.93,0.33,-1.92,0.34,-0.34,-0.42,-0.93,-2.27,-2.26,-2.26
279.38,-1.94,0.29,-1.97,0.26,-0.26,-0.40,-0.89,-2.20,-2.23,-2.23
282.17,-2.00,0.21,-2.02,0.19,-0.19,-0.38,-0.85,-2.19,-2.21,-2.21
284.99,-2.05,0.12,-2.06,0.12,-0.12,-0.36,-0.81,-2.17,-2.18,-2.18
287.84,-2.13,0.03,-2.10,0.05,-0.05,-0.34,-0.76,-2.18,-2.15,-2.16
290.72,-2.15,-0.02,-2.14,-0.01,0.01,-0.33,-0.72,-2.14,-2.12,-2.13
293.63,-2.18,-0.08,-2.17,-0.08,0.08,-0.31,-0.67,-2.10,-2.10,-2.10
296.57,-2.20,-0.13,-2.21,-0.14,0.14,-0.30,-0.62,-2.06,-2.07,-2.07
299.53,-2.21,-0.17,-2.24,-0.20,0.20,-0.28,-0.57,-2.01,-2.04,-2.04
302.53,-2.29,-0.26,-2.27,-0.25,0.25,-0.27,-0.52,-2.04,-2.02,-2.03
305.55,-2.34,-0.36,-2.29,-0.30,0.30,-0.26,-0.47,-2.04,-1.99,-1.98
308.61,-2.34,-0.38,-2.32,-0.36,0.36,-0.25,-0.42,-1.98,-1.97,-1.97
311.69,-2.33,-0.39,-2.35,-0.41,0.41,-0.24,-0.37,-1.92,-1.95,-1.94
314.81,-2.34,-0.43,-2.38,-0.46,0.46,-0.23,-0.32,-1.88,-1.92,-1.91
317.96,-2.39,-0.49,-2.41,-0.50,0.50,-0.22,-0.27,-1.89,-1.91,-1.90
321.14,-2.42,-0.53,-2.43,-0.54,0.54,-0.21,-0.22,-1.88,-1.89,-1.89
324.35,-2.46,-0.59,-2.46,-0.59,0.59,-0.20,-0.17,-1.87,-1.87,-1.87
327.59,-2.49,-0.63,-2.49,-0.63,0.63,-0.19,-0.11,-1.86,-1.86,-1.86
330.87,-2.52,-0.67,-2.52,-0.67,0.67,-0.18,-0.06,-1.85,-1.84,-1.85
334.18,-2.53,-0.70,-2.55,-0.71,0.71,-0.17,-0.01,-1.82,-1.83,-1.83
337.52,-2.57,-0.74,-2.57,-0.75,0.75,-0.17,0.05,-1.82,-1.82,-1.83
340.90,-2.62,-0.81,-2.60,-0.79,0.79,-0.16,0.10,-1.84,-1.82,-1.81
344.30,-2.64,-0.84,-2.63,-0.82,0.82,-0.15,0.16,-1.82,-1.81,-1.80
347.75,-2.64,-0.83,-2.66,-0.85,0.85,-0.14,0.21,-1.79,-1.81,-1.81
351.23,-2.67,-0.87,-2.68,-0.88,0.88,-0.14,0.27,-1.79,-1.80,-1.80
354.74,-2.72,-0.92,-2.70,-0.90,0.90,-0.13,0.32,-1.82,-1.80,-1.80
358.28,-2.73,-0.94,-2.72,-0.92,0.92,-0.12,0.38,-1.81,-1.79,-1.79
361.87,-2.73,-0.94,-2.73,-0.94,0.94,-0.12,0.43,-1.79,-1.79,-1.80
365.49,-2.76,-0.97,-2.74,-0.95,0.95,-0.11,0.49,-1.81,-1.79,-1.79
369.14,-2.76,-0.96,-2.75,-0.96,0.96,-0.11,0.54,-1.81,-1.79,-1.80
372.83,-2.75,-0.95,-2.75,-0.96,0.96,-0.10,0.60,-1.79,-1.80,-1.80
376.56,-2.74,-0.94,-2.75,-0.95,0.95,-0.09,0.66,-1.79,-1.80,-1.80
380.33,-2.75,-0.95,-2.75,-0.95,0.95,-0.09,0.71,-1.80,-1.80,-1.80
384.13,-2.77,-0.97,-2.76,-0.95,0.95,-0.08,0.77,-1.82,-1.81,-1.80
387.97,-2.77,-0.96,-2.76,-0.95,0.95,-0.07,0.83,-1.83,-1.81,-1.81
391.85,-2.77,-0.95,-2.76,-0.94,0.94,-0.07,0.88,-1.83,-1.82,-1.82
395.77,-2.74,-0.93,-2.76,-0.93,0.93,-0.06,0.94,-1.81,-1.82,-1.81
399.73,-2.72,-0.90,-2.76,-0.93,0.93,-0.05,1.00,-1.79,-1.83,-1.82
403.72,-2.72,-0.89,-2.76,-0.93,0.93,-0.05,1.05,-1.79,-1.83,-1.83
407.76,-2.73,-0.89,-2.77,-0.93,0.93,-0.04,1.11,-1.80,-1.84,-1.84
411.84,-2.75,-0.91,-2.77,-0.93,0.93,-0.03,1.16,-1.82,-1.84,-1.84
415.96,-2.77,-0.93,-2.77,-0.93,0.93,-0.03,1.22,-1.84,-1.84,-1.84
420.12,-2.78,-0.94,-2.77,-0.93,0.93,-0.02,1.27,-1.86,-1.84,-1.84
424.32,-2.77,-0.93,-2.76,-0.92,0.92,-0.01,1.32,-1.85,-1.84,-1.84
428.56,-2.76,-0.93,-2.74,-0.91,0.91,-0.00,1.37,-1.85,-1.83,-1.83
432.85,-2.75,-0.93,-2.72,-0.90,0.90,0.01,1.42,-1.85,-1.81,-1.83
437.18,-2.72,-0.90,-2.69,-0.90,0.90,0.02,1.47,-1.83,-1.79,-1.82
441.55,-2.69,-0.91,-2.65,-0.88,0.88,0.03,1.52,-1.81,-1.77,-1.78
445.96,-2.64,-0.89,-2.61,-0.87,0.87,0.04,1.56,-1.77,-1.73,-1.75
450.42,-2.59,-0.87,-2.55,-0.85,0.85,0.05,1.60,-1.74,-1.70,-1.72
454.93,-2.49,-0.82,-2.49,-0.83,0.83,0.06,1.64,-1.66,-1.66,-1.67
459.48,-2.42,-0.80,-2.42,-0.81,0.81,0.07,1.68,-1.61,-1.61,-1.62
464.07,-2.32,-0.75,-2.35,-0.78,0.78,0.09,1.71,-1.54,-1.57,-1.57
468.71,-2.26,-0.75,-2.28,-0.76,0.76,0.10,1.74,-1.50,-1.52,-1.51
473.40,-2.19,-0.72,-2.21,-0.74,0.74,0.12,1.77,-1.46,-1.47,-1.47
478.13,-2.14,-0.73,-2.14,-0.72,0.72,0.14,1.79,-1.43,-1.42,-1.41
482.91,-2.08,-0.71,-2.07,-0.70,0.70,0.16,1.81,-1.38,-1.38,-1.38
487.74,-2.01,-0.68,-2.01,-0.68,0.68,0.18,1.82,-1.33,-1.34,-1.34
492.62,-1.94,-0.65,-1.96,-0.66,0.66,0.20,1.83,-1.28,-1.30,-1.29
497.55,-1.89,-0.62,-1.91,-0.64,0.64,0.23,1.84,-1.25,-1.27,-1.27
