frequency,raw,error,smoothed,error_smoothed,equalization,parametric_eq,fixed_band_eq,equalized_raw,equalized_smoothed,target
20.00,-6.84,-8.69,-6.84,-8.69,8.71,8.71,2.43,1.87,1.87,1.85
20.20,-6.73,-8.63,-6.73,-8.64,8.64,8.64,2.50,1.91,1.91,1.90
20.40,-6.62,-8.57,-6.62,-8.57,8.57,8.57,2.57,1.95,1.94,1.95
20.61,-6.51,-8.50,-6.51,-8.50,8.49,8.50,2.65,1.98,1.98,1.98
20.81,-6.40,-8.43,-6.40,-8.43,8.42,8.42,2.72,2.02,2.02,2.03
21.02,-6.29,-8.36,-6.29,-8.36,8.34,8.35,2.80,2.05,2.05,2.07
21.23,-6.17,-8.26,-6.17,-8.27,8.26,8.27,2.88,2.09,2.08,2.09
21.44,-6.06,-8.17,-6.06,-8.17,8.17,8.19,2.96,2.11,2.11,2.11
21.66,-5.94,-8.08,-5.94,-8.07,8.09,8.11,3.05,2.14,2.14,2.13
21.87,-5.83,-7.97,-5.83,-7.98,8.00,8.03,3.14,2.17,2.16,2.14
22.09,-5.72,-7.88,-5.73,-7.89,7.91,7.95,3.23,2.18,2.18,2.16
22.31,-5.64,-7.81,-5.64,-7.81,7.81,7.86,3.32,2.17,2.17,2.17
22.54,-5.55,-7.73,-5.55,-7.73,7.72,7.78,3.41,2.16,2.16,2.17
22.76,-5.46,-7.63,-5.46,-7.64,7.62,7.69,3.51,2.15,2.15,2.17
22.99,-5.37,-7.54,-5.36,-7.53,7.51,7.60,3.61,2.14,2.15,2.16
23.22,-5.25,-7.42,-5.25,-7.42,7.41,7.52,3.71,2.15,2.15,2.16
23.45,-5.13,-7.29,-5.13,-7.30,7.30,7.43,3.82,2.17,2.17,2.16
23.69,-5.00,-7.18,-5.00,-7.17,7.19,7.34,3.92,2.18,2.18,2.17
23.92,-4.88,-7.05,-4.89,-7.06,7.07,7.24,4.03,2.19,2.19,2.17
24.16,-4.77,-6.94,-4.78,-6.95,6.96,7.15,4.14,2.19,2.19,2.17
24.40,-4.68,-6.86,-4.68,-6.85,6.86,7.06,4.25,2.18,2.18,2.18
24.65,-4.58,-6.76,-4.58,-6.75,6.75,6.96,4.36,2.17,2.17,2.17
24.89,-4.48,-6.65,-4.48,-6.66,6.65,6.87,4.48,2.17,2.17,2.17
25.14,-4.38,-6.55,-4.38,-6.56,6.55,6.77,4.59,2.17,2.17,2.17
25.39,-4.28,-6.46,-4.28,-6.46,6.45,6.68,4.71,2.17,2.17,2.18
25.65,-4.17,-6.36,-4.17,-6.35,6.35,6.58,4.82,2.18,2.18,2.18
25.91,-4.07,-6.25,-4.07,-6.25,6.25,6.48,4.94,2.18,2.18,2.17
26.16,-3.97,-6.14,-3.98,-6.15,6.16,6.39,5.05,2.19,2.18,2.17
26.43,-3.88,-6.06,-3.88,-6.05,6.06,6.29,5.17,2.18,2.18,2.17
26.69,-3.79,-5.96,-3.79,-5.96,5.97,6.19,5.28,2.17,2.18,2.17
26.96,-3.69,-5.87,-3.70,-5.87,5.87,6.09,5.39,2.18,2.17,2.17
27.23,-3.60,-5.78,-3.60,-5.77,5.77,5.99,5.49,2.16,2.17,2.17
27.50,-3.50,-5.68,-3.51,-5.68,5.66,5.89,5.59,2.16,2.16,2.17
27.77,-3.41,-5.57,-3.41,-5.58,5.56,5.79,5.69,2.15,2.15,2.16
28.05,-3.31,-5.47,-3.30,-5.46,5.45,5.69,5.78,2.14,2.14,2.16
28.33,-3.19,-5.34,-3.19,-5.34,5.35,5.59,5.87,2.15,2.16,2.15
28.62,-3.06,-5.22,-3.06,-5.22,5.24,5.49,5.95,2.18,2.18,2.15
28.90,-2.94,-5.10,-2.95,-5.11,5.14,5.38,6.02,2.20,2.19,2.16
29.19,-2.85,-5.00,-2.86,-5.01,5.04,5.28,6.08,2.19,2.18,2.15
29.48,-2.78,-4.94,-2.78,-4.94,4.93,5.18,6.13,2.15,2.15,2.16
29.78,-2.70,-4.86,-2.70,-4.86,4.83,5.08,6.17,2.13,2.12,2.15
30.08,-2.62,-4.79,-2.61,-4.77,4.73,4.98,6.20,2.10,2.12,2.16
30.38,-2.49,-4.65,-2.49,-4.65,4.63,4.88,6.22,2.14,2.14,2.15
30.68,-2.36,-4.52,-2.37,-4.52,4.53,4.77,6.23,2.17,2.17,2.15
30.99,-2.23,-4.39,-2.25,-4.40,4.44,4.67,6.22,2.20,2.19,2.15
31.30,-2.16,-4.31,-2.16,-4.31,4.34,4.57,6.21,2.17,2.17,2.14
31.61,-2.09,-4.24,-2.09,-4.23,4.24,4.47,6.18,2.14,2.15,2.14
31.93,-2.03,-4.18,-2.02,-4.16,4.14,4.36,6.14,2.11,2.12,2.14
32.24,-1.93,-4.06,-1.93,-4.07,4.05,4.26,6.08,2.12,2.12,2.13
32.57,-1.83,-3.97,-1.83,-3.97,3.96,4.16,6.01,2.13,2.13,2.13
32.89,-1.73,-3.86,-1.73,-3.86,3.87,4.06,5.94,2.14,2.14,2.13
33.22,-1.64,-3.76,-1.65,-3.77,3.78,3.96,5.85,2.14,2.13,2.12
33.55,-1.56,-3.68,-1.56,-3.68,3.68,3.85,5.75,2.12,2.12,2.12
33.89,-1.48,-3.60,-1.47,-3.59,3.57,3.75,5.65,2.09,2.10,2.11
34.23,-1.37,-3.49,-1.37,-3.48,3.46,3.65,5.53,2.09,2.09,2.11
34.57,-1.26,-3.36,-1.27,-3.37,3.36,3.55,5.41,2.09,2.09,2.10
34.92,-1.15,-3.26,-1.15,-3.25,3.25,3.45,5.28,2.10,2.10,2.10
35.27,-1.04,-3.14,-1.04,-3.13,3.15,3.35,5.15,2.11,2.11,2.09
35.62,-0.93,-3.03,-0.93,-3.02,3.05,3.24,5.01,2.12,2.12,2.09
35.97,-0.82,-2.91,-0.84,-2.93,2.95,3.14,4.86,2.13,2.11,2.09
36.33,-0.76,-2.85,-0.76,-2.85,2.85,3.04,4.71,2.09,2.09,2.09
36.70,-0.70,-2.79,-0.70,-2.78,2.77,2.94,4.56,2.06,2.07,2.08
37.06,-0.63,-2.71,-0.62,-2.71,2.68,2.84,4.41,2.05,2.07,2.08
37.43,-0.52,-2.61,-0.52,-2.61,2.61,2.74,4.26,2.09,2.09,2.09
37.81,-0.41,-2.51,-0.42,-2.51,2.53,2.64,4.10,2.12,2.11,2.09
38.19,-0.33,-2.42,-0.34,-2.44,2.46,2.54,3.94,2.12,2.11,2.08
38.57,-0.28,-2.37,-0.28,-2.37,2.37,2.45,3.78,2.09,2.09,2.09
38.95,-0.23,-2.33,-0.21,-2.31,2.29,2.35,3.63,2.06,2.07,2.10
39.34,-0.13,-2.22,-0.13,-2.23,2.20,2.25,3.47,2.07,2.07,2.09
39.74,-0.02,-2.12,-0.03,-2.13,2.11,2.15,3.31,2.09,2.08,2.09
40.14,0.08,-2.02,0.08,-2.01,2.02,2.05,3.16,2.10,2.10,2.09
40.54,0.18,-1.92,0.18,-1.91,1.93,1.96,3.00,2.10,2.10,2.09
40.94,0.28,-1.80,0.27,-1.82,1.82,1.86,2.85,2.10,2.09,2.08
41.35,0.36,-1.72,0.36,-1.72,1.72,1.76,2.69,2.08,2.08,2.08
41.76,0.44,-1.63,0.45,-1.63,1.62,1.67,2.54,2.06,2.06,2.07
42.18,0.54,-1.53,0.54,-1.53,1.52,1.57,2.39,2.06,2.06,2.07
42.60,0.64,-1.42,0.64,-1.42,1.43,1.47,2.24,2.07,2.07,2.06
43.03,0.74,-1.31,0.73,-1.33,1.34,1.38,2.09,2.08,2.07,2.05
43.46,0.80,-1.24,0.80,-1.24,1.26,1.28,1.94,2.06,2.06,2.04
43.90,0.86,-1.17,0.86,-1.16,1.18,1.19,1.80,2.03,2.03,2.02
44.33,0.91,-1.09,0.91,-1.09,1.09,1.10,1.65,2.00,2.00,2.00
44.78,0.97,-1.02,0.97,-1.02,1.01,1.00,1.51,1.97,1.97,1.98
45.23,1.03,-0.95,1.03,-0.95,0.92,0.91,1.37,1.95,1.94,1.97
45.68,1.10,-0.87,1.10,-0.86,0.83,0.82,1.22,1.93,1.93,1.96
46.13,1.18,-0.76,1.19,-0.75,0.75,0.73,1.09,1.93,1.94,1.94
46.60,1.30,-0.65,1.29,-0.64,0.66,0.64,0.95,1.96,1.96,1.94
47.06,1.41,-0.51,1.38,-0.54,0.58,0.54,0.81,1.99,1.96,1.92
47.53,1.45,-0.46,1.45,-0.46,0.49,0.45,0.67,1.94,1.94,1.91
48.01,1.50,-0.42,1.50,-0.41,0.40,0.36,0.54,1.90,1.90,1.91
48.49,1.55,-0.35,1.54,-0.35,0.32,0.28,0.41,1.86,1.86,1.89
48.97,1.60,-0.27,1.61,-0.26,0.23,0.19,0.28,1.83,1.85,1.87
49.46,1.69,-0.16,1.69,-0.16,0.16,0.10,0.14,1.84,1.85,1.85
49.96,1.79,-0.05,1.77,-0.06,0.08,0.01,0.02,1.87,1.85,1.83
50.46,1.85,0.02,1.85,0.02,-0.00,-0.08,-0.11,1.85,1.84,1.82
50.96,1.90,0.09,1.90,0.10,-0.08,-0.16,-0.24,1.81,1.82,1.81
51.47,1.96,0.17,1.96,0.16,-0.17,-0.25,-0.36,1.79,1.79,1.79
51.99,2.02,0.23,2.02,0.23,-0.25,-0.33,-0.49,1.77,1.77,1.78
52.51,2.09,0.31,2.09,0.31,-0.33,-0.42,-0.61,1.76,1.76,1.77
53.03,2.16,0.39,2.16,0.39,-0.40,-0.50,-0.73,1.76,1.76,1.77
53.56,2.23,0.48,2.23,0.48,-0.47,-0.59,-0.85,1.76,1.76,1.75
54.10,2.30,0.55,2.30,0.56,-0.53,-0.67,-0.96,1.77,1.77,1.74
54.64,2.36,0.63,2.35,0.62,-0.59,-0.75,-1.07,1.76,1.76,1.72
55.18,2.40,0.68,2.38,0.67,-0.65,-0.84,-1.18,1.74,1.73,1.72
55.74,2.40,0.69,2.41,0.70,-0.71,-0.92,-1.29,1.69,1.70,1.70
56.29,2.43,0.74,2.44,0.75,-0.77,-1.00,-1.40,1.66,1.67,1.69
56.86,2.49,0.80,2.48,0.81,-0.83,-1.08,-1.50,1.66,1.65,1.68
57.42,2.54,0.89,2.54,0.88,-0.89,-1.16,-1.59,1.65,1.65,1.65
58.00,2.60,0.95,2.60,0.95,-0.96,-1.24,-1.69,1.64,1.64,1.64
58.58,2.66,1.02,2.66,1.03,-1.03,-1.31,-1.78,1.62,1.63,1.63
59.16,2.73,1.12,2.72,1.11,-1.11,-1.39,-1.87,1.62,1.61,1.61
59.76,2.79,1.19,2.79,1.21,-1.19,-1.47,-1.95,1.59,1.60,1.59
60.35,2.85,1.30,2.85,1.30,-1.28,-1.54,-2.03,1.57,1.57,1.55
60.96,2.91,1.39,2.89,1.37,-1.36,-1.62,-2.10,1.54,1.52,1.51
61.57,2.91,1.43,2.91,1.44,-1.45,-1.69,-2.17,1.46,1.47,1.47
62.18,2.93,1.50,2.94,1.51,-1.53,-1.77,-2.24,1.40,1.41,1.43
62.80,2.99,1.61,2.99,1.60,-1.62,-1.84,-2.30,1.37,1.37,1.38
63.43,3.05,1.71,3.04,1.70,-1.70,-1.91,-2.36,1.35,1.34,1.34
64.07,3.11,1.81,3.09,1.79,-1.78,-1.99,-2.41,1.33,1.31,1.29
64.71,3.11,1.85,3.13,1.87,-1.86,-2.06,-2.46,1.25,1.27,1.25
65.35,3.15,1.94,3.16,1.95,-1.94,-2.13,-2.51,1.20,1.21,1.21
66.01,3.21,2.04,3.18,2.02,-2.03,-2.20,-2.55,1.18,1.15,1.16
66.67,3.21,2.09,3.22,2.11,-2.11,-2.27,-2.59,1.10,1.11,1.11
67.33,3.24,2.18,3.25,2.18,-2.19,-2.34,-2.63,1.05,1.06,1.06
68.01,3.30,2.27,3.28,2.26,-2.27,-2.40,-2.66,1.03,1.01,1.02
68.69,3.31,2.33,3.32,2.35,-2.34,-2.47,-2.69,0.96,0.98,0.97
69.37,3.35,2.43,3.36,2.44,-2.42,-2.54,-2.72,0.92,0.94,0.92
70.07,3.41,2.53,3.39,2.51,-2.50,-2.60,-2.75,0.90,0.88,0.87
70.77,3.41,2.59,3.40,2.58,-2.58,-2.67,-2.77,0.83,0.82,0.82
71.48,3.41,2.63,3.42,2.65,-2.66,-2.73,-2.79,0.75,0.76,0.77
72.19,3.42,2.72,3.43,2.72,-2.74,-2.80,-2.82,0.68,0.70,0.70
72.91,3.47,2.83,3.46,2.81,-2.81,-2.86,-2.84,0.65,0.65,0.64
73.64,3.50,2.91,3.49,2.90,-2.89,-2.92,-2.86,0.61,0.60,0.59
74.38,3.51,2.98,3.50,2.97,-2.97,-2.98,-2.89,0.54,0.54,0.53
75.12,3.51,3.04,3.51,3.04,-3.04,-3.04,-2.91,0.46,0.47,0.47
75.87,3.51,3.10,3.53,3.11,-3.12,-3.10,-2.93,0.39,0.41,0.41
76.63,3.57,3.21,3.56,3.20,-3.20,-3.16,-2.96,0.37,0.36,0.36
77.40,3.61,3.30,3.59,3.28,-3.28,-3.22,-2.98,0.33,0.31,0.31
78.17,3.61,3.36,3.61,3.35,-3.35,-3.28,-3.01,0.26,0.26,0.25
78.95,3.61,3.40,3.63,3.42,-3.42,-3.33,-3.03,0.18,0.20,0.21
79.74,3.65,3.49,3.65,3.49,-3.50,-3.39,-3.06,0.15,0.15,0.16
80.54,3.69,3.58,3.68,3.57,-3.56,-3.45,-3.10,0.13,0.12,0.11
81.35,3.71,3.64,3.70,3.64,-3.62,-3.50,-3.13,0.08,0.08,0.06
82.16,3.71,3.70,3.71,3.69,-3.68,-3.55,-3.16,0.03,0.03,0.01
82.98,3.71,3.74,3.71,3.74,-3.74,-3.61,-3.20,-0.03,-0.03,-0.03
83.81,3.71,3.79,3.71,3.79,-3.79,-3.66,-3.24,-0.08,-0.08,-0.08
84.65,3.71,3.84,3.71,3.83,-3.84,-3.71,-3.29,-0.13,-0.13,-0.13
85.50,3.71,3.87,3.71,3.88,-3.88,-3.76,-3.33,-0.18,-0.18,-0.17
86.35,3.71,3.93,3.71,3.92,-3.93,-3.81,-3.38,-0.22,-0.22,-0.22
87.22,3.71,3.97,3.71,3.97,-3.98,-3.86,-3.43,-0.27,-0.27,-0.27
88.09,3.71,4.03,3.71,4.03,-4.03,-3.91,-3.48,-0.32,-0.32,-0.32
88.97,3.71,4.09,3.71,4.08,-4.09,-3.96,-3.54,-0.38,-0.37,-0.38
89.86,3.72,4.15,3.71,4.14,-4.14,-4.00,-3.60,-0.42,-0.43,-0.43
90.76,3.72,4.19,3.72,4.20,-4.19,-4.05,-3.66,-0.48,-0.48,-0.48
91.66,3.72,4.25,3.72,4.25,-4.25,-4.10,-3.72,-0.53,-0.53,-0.53
92.58,3.72,4.31,3.72,4.30,-4.30,-4.14,-3.79,-0.58,-0.58,-0.59
93.51,3.72,4.35,3.72,4.35,-4.35,-4.19,-3.86,-0.64,-0.63,-0.64
94.44,3.72,4.40,3.72,4.40,-4.40,-4.23,-3.93,-0.69,-0.69,-0.68
95.39,3.72,4.44,3.72,4.44,-4.45,-4.27,-4.01,-0.73,-0.74,-0.73
96.34,3.71,4.49,3.71,4.49,-4.50,-4.31,-4.08,-0.79,-0.78,-0.78
97.30,3.71,4.54,3.71,4.53,-4.53,-4.35,-4.16,-0.83,-0.83,-0.83
98.28,3.70,4.58,3.70,4.57,-4.56,-4.39,-4.24,-0.86,-0.87,-0.88
99.26,3.68,4.60,3.68,4.60,-4.58,-4.43,-4.33,-0.91,-0.90,-0.92
100.25,3.66,4.63,3.65,4.62,-4.60,-4.47,-4.41,-0.94,-0.95,-0.97
101.25,3.61,4.63,3.60,4.62,-4.60,-4.51,-4.50,-1.00,-1.00,-1.02
102.27,3.53,4.60,3.54,4.61,-4.61,-4.55,-4.59,-1.08,-1.06,-1.07
103.29,3.49,4.61,3.48,4.60,-4.61,-4.59,-4.68,-1.12,-1.13,-1.12
104.32,3.44,4.60,3.43,4.59,-4.61,-4.62,-4.77,-1.17,-1.18,-1.16
105.37,3.38,4.59,3.39,4.60,-4.62,-4.66,-4.86,-1.24,-1.23,-1.21
106.42,3.36,4.62,3.35,4.61,-4.63,-4.69,-4.95,-1.27,-1.27,-1.26
107.48,3.33,4.65,3.33,4.64,-4.64,-4.72,-5.03,-1.32,-1.32,-1.32
108.56,3.31,4.68,3.31,4.68,-4.67,-4.76,-5.12,-1.36,-1.36,-1.37
109.64,3.29,4.71,3.29,4.71,-4.70,-4.79,-5.21,-1.41,-1.41,-1.42
110.74,3.27,4.75,3.27,4.74,-4.74,-4.82,-5.29,-1.47,-1.47,-1.48
111.85,3.25,4.77,3.25,4.77,-4.78,-4.85,-5.37,-1.53,-1.53,-1.52
112.97,3.24,4.81,3.24,4.81,-4.82,-4.88,-5.45,-1.58,-1.58,-1.58
114.10,3.23,4.86,3.23,4.86,-4.86,-4.91,-5.53,-1.64,-1.64,-1.63
115.24,3.23,4.91,3.23,4.91,-4.91,-4.94,-5.60,-1.68,-1.68,-1.68
116.39,3.23,4.96,3.23,4.95,-4.96,-4.97,-5.66,-1.73,-1.73,-1.73
117.55,3.24,5.01,3.23,5.00,-5.00,-5.00,-5.72,-1.77,-1.77,-1.77
118.73,3.24,5.05,3.24,5.05,-5.05,-5.02,-5.77,-1.81,-1.80,-1.81
119.92,3.25,5.09,3.25,5.09,-5.09,-5.05,-5.82,-1.84,-1.83,-1.84
121.12,3.26,5.13,3.25,5.13,-5.12,-5.07,-5.86,-1.86,-1.86,-1.88
122.33,3.25,5.16,3.24,5.14,-5.14,-5.10,-5.89,-1.89,-1.90,-1.91
123.55,3.21,5.15,3.22,5.16,-5.14,-5.12,-5.92,-1.94,-1.93,-1.94
124.79,3.18,5.15,3.20,5.16,-5.15,-5.14,-5.94,-1.97,-1.95,-1.97
126.03,3.19,5.19,3.16,5.16,-5.14,-5.17,-5.95,-1.96,-1.98,-2.00
127.29,3.13,5.15,3.12,5.14,-5.14,-5.19,-5.96,-2.01,-2.02,-2.02
128.57,3.06,5.12,3.07,5.12,-5.14,-5.21,-5.95,-2.08,-2.07,-2.06
129.85,3.00,5.09,3.02,5.10,-5.14,-5.23,-5.94,-2.14,-2.12,-2.09
131.15,3.01,5.13,3.00,5.12,-5.15,-5.25,-5.93,-2.14,-2.15,-2.12
132.46,3.01,5.16,3.00,5.15,-5.16,-5.27,-5.91,-2.16,-2.16,-2.15
133.79,3.02,5.20,3.01,5.19,-5.19,-5.29,-5.88,-2.17,-2.18,-2.18
135.12,3.02,5.23,3.02,5.22,-5.22,-5.30,-5.84,-2.20,-2.20,-2.21
136.48,3.02,5.25,3.02,5.26,-5.25,-5.32,-5.80,-2.23,-2.23,-2.23
137.84,3.03,5.30,3.03,5.29,-5.28,-5.34,-5.76,-2.25,-2.25,-2.27
139.22,3.03,5.33,3.03,5.33,-5.30,-5.35,-5.71,-2.27,-2.27,-2.30
140.61,3.03,5.36,3.02,5.34,-5.32,-5.37,-5.66,-2.29,-2.30,-2.33
142.02,3.00,5.35,2.99,5.34,-5.34,-5.38,-5.61,-2.34,-2.35,-2.35
143.44,2.95,5.33,2.96,5.34,-5.36,-5.39,-5.56,-2.41,-2.40,-2.38
144.87,2.93,5.35,2.93,5.35,-5.38,-5.41,-5.50,-2.45,-2.45,-2.42
146.32,2.93,5.39,2.92,5.38,-5.40,-5.42,-5.44,-2.47,-2.48,-2.46
147.78,2.93,5.42,2.93,5.42,-5.42,-5.43,-5.39,-2.50,-2.49,-2.49
149.26,2.93,5.47,2.93,5.47,-5.45,-5.44,-5.33,-2.52,-2.52,-2.54
150.75,2.93,5.53,2.91,5.51,-5.48,-5.45,-5.27,-2.55,-2.57,-2.60
152.26,2.87,5.54,2.87,5.54,-5.52,-5.46,-5.21,-2.65,-2.65,-2.67
153.78,2.82,5.56,2.82,5.55,-5.56,-5.47,-5.16,-2.74,-2.75,-2.74
155.32,2.76,5.57,2.76,5.57,-5.62,-5.48,-5.11,-2.86,-2.85,-2.81
156.88,2.73,5.61,2.74,5.62,-5.67,-5.49,-5.05,-2.94,-2.94,-2.89
158.44,2.73,5.70,2.72,5.69,-5.73,-5.49,-5.01,-3.00,-3.00,-2.97
160.03,2.73,5.78,2.73,5.77,-5.77,-5.50,-4.96,-3.05,-3.05,-3.05
161.63,2.73,5.85,2.73,5.85,-5.81,-5.51,-4.91,-3.09,-3.08,-3.12
163.24,2.73,5.91,2.73,5.90,-5.85,-5.51,-4.87,-3.12,-3.12,-3.18
164.88,2.70,5.93,2.69,5.92,-5.86,-5.51,-4.83,-3.17,-3.17,-3.23
166.53,2.64,5.92,2.62,5.89,-5.87,-5.52,-4.80,-3.23,-3.25,-3.28
168.19,2.52,5.84,2.52,5.84,-5.86,-5.52,-4.77,-3.34,-3.33,-3.32
169.87,2.42,5.78,2.45,5.80,-5.83,-5.52,-4.74,-3.42,-3.39,-3.36
171.57,2.40,5.78,2.40,5.77,-5.80,-5.53,-4.71,-3.41,-3.40,-3.38
173.29,2.39,5.78,2.37,5.76,-5.77,-5.53,-4.69,-3.38,-3.40,-3.39
175.02,2.35,5.75,2.34,5.74,-5.74,-5.53,-4.67,-3.39,-3.40,-3.40
176.77,2.29,5.70,2.31,5.72,-5.71,-5.53,-4.66,-3.42,-3.40,-3.41
178.54,2.28,5.70,2.29,5.70,-5.69,-5.53,-4.65,-3.41,-3.40,-3.42
180.32,2.29,5.70,2.28,5.69,-5.67,-5.53,-4.64,-3.38,-3.39,-3.41
182.13,2.28,5.68,2.26,5.67,-5.66,-5.52,-4.64,-3.38,-3.40,-3.40
183.95,2.24,5.65,2.24,5.65,-5.66,-5.52,-4.64,-3.42,-3.42,-3.41
185.79,2.21,5.62,2.22,5.64,-5.67,-5.52,-4.64,-3.46,-3.44,-3.41
187.65,2.23,5.66,2.22,5.64,-5.68,-5.51,-4.65,-3.45,-3.46,-3.43
189.52,2.24,5.68,2.23,5.67,-5.69,-5.51,-4.66,-3.45,-3.46,-3.44
191.42,2.25,5.71,2.25,5.71,-5.70,-5.50,-4.67,-3.45,-3.45,-3.46
193.33,2.27,5.75,2.27,5.75,-5.71,-5.50,-4.69,-3.44,-3.44,-3.48
195.27,2.28,5.78,2.27,5.77,-5.72,-5.49,-4.71,-3.44,-3.45,-3.50
197.22,2.27,5.79,2.24,5.75,-5.73,-5.49,-4.73,-3.46,-3.49,-3.52
199.19,2.17,5.71,2.19,5.72,-5.74,-5.48,-4.75,-3.57,-3.55,-3.54
201.18,2.12,5.68,2.14,5.70,-5.74,-5.47,-4.78,-3.62,-3.60,-3.56
203.19,2.12,5.70,2.11,5.69,-5.73,-5.46,-4.81,-3.61,-3.62,-3.58
205.23,2.12,5.72,2.12,5.71,-5.71,-5.45,-4.84,-3.59,-3.59,-3.60
207.28,2.12,5.73,2.11,5.73,-5.70,-5.44,-4.87,-3.58,-3.58,-3.61
209.35,2.10,5.73,2.09,5.72,-5.68,-5.43,-4.91,-3.58,-3.59,-3.63
211.44,2.04,5.70,2.03,5.68,-5.67,-5.42,-4.94,-3.63,-3.64,-3.66
213.56,1.97,5.64,1.98,5.64,-5.66,-5.40,-4.97,-3.69,-3.68,-3.67
215.69,1.92,5.60,1.93,5.61,-5.64,-5.39,-5.01,-3.73,-3.72,-3.68
217.85,1.91,5.60,1.91,5.60,-5.62,-5.38,-5.04,-3.72,-3.71,-3.69
220.03,1.90,5.60,1.90,5.60,-5.60,-5.36,-5.08,-3.70,-3.70,-3.70
222.23,1.90,5.63,1.87,5.59,-5.57,-5.34,-5.11,-3.67,-3.70,-3.73
224.45,1.83,5.55,1.85,5.57,-5.54,-5.33,-5.14,-3.71,-3.69,-3.72
226.70,1.80,5.52,1.81,5.53,-5.51,-5.31,-5.17,-3.71,-3.70,-3.72
228.96,1.80,5.51,1.77,5.48,-5.48,-5.29,-5.19,-3.68,-3.71,-3.71
231.25,1.73,5.43,1.73,5.43,-5.44,-5.27,-5.22,-3.71,-3.71,-3.70
233.57,1.69,5.38,1.69,5.38,-5.39,-5.25,-5.24,-3.71,-3.71,-3.69
235.90,1.63,5.31,1.65,5.33,-5.34,-5.23,-5.25,-3.72,-3.69,-3.68
238.26,1.65,5.32,1.64,5.30,-5.29,-5.21,-5.26,-3.65,-3.66,-3.67
240.64,1.63,5.27,1.61,5.25,-5.24,-5.19,-5.27,-3.62,-3.63,-3.64
243.05,1.59,5.20,1.59,5.20,-5.19,-5.16,-5.27,-3.60,-3.61,-3.61
245.48,1.53,5.12,1.55,5.14,-5.14,-5.14,-5.27,-3.61,-3.59,-3.59
247.93,1.53,5.09,1.52,5.08,-5.08,-5.11,-5.26,-3.55,-3.56,-3.56
250.41,1.51,5.05,1.49,5.03,-5.03,-5.08,-5.25,-3.52,-3.53,-3.54
252.92,1.46,4.97,1.46,4.97,-4.97,-5.05,-5.23,-3.51,-3.50,-3.51
255.45,1.41,4.90,1.41,4.90,-4.90,-5.02,-5.21,-3.49,-3.49,-3.49
258.00,1.37,4.84,1.35,4.82,-4.83,-4.99,-5.18,-3.46,-3.48,-3.47
260.58,1.29,4.74,1.32,4.76,-4.76,-4.95,-5.14,-3.47,-3.44,-3.45
263.19,1.28,4.70,1.29,4.71,-4.69,-4.92,-5.10,-3.41,-3.40,-3.42
265.82,1.28,4.68,1.25,4.64,-4.62,-4.88,-5.06,-3.34,-3.37,-3.40
268.48,1.20,4.58,1.18,4.55,-4.55,-4.84,-5.01,-3.35,-3.38,-3.38
271.16,1.09,4.44,1.10,4.46,-4.49,-4.80,-4.96,-3.40,-3.38,-3.35
273.87,1.01,4.34,1.06,4.38,-4.42,-4.75,-4.91,-3.42,-3.37,-3.33
276.61,1.08,4.38,1.06,4.36,-4.37,-4.70,-4.85,-3.29,-3.31,-3.30
279.38,1.09,4.36,1.07,4.34,-4.31,-4.65,-4.79,-3.22,-3.24,-3.27
282.17,1.08,4.33,1.06,4.30,-4.27,-4.60,-4.72,-3.19,-3.21,-3.25
284.99,1.00,4.20,0.99,4.21,-4.23,-4.54,-4.66,-3.23,-3.23,-3.21
287.84,0.93,4.12,0.96,4.15,-4.19,-4.47,-4.59,-3.26,-3.23,-3.19
290.72,0.94,4.10,0.98,4.13,-4.15,-4.41,-4.52,-3.21,-3.17,-3.16
293.63,1.04,4.17,0.98,4.11,-4.10,-4.33,-4.45,-3.06,-3.12,-3.13
296.57,1.02,4.12,0.97,4.07,-4.04,-4.26,-4.38,-3.02,-3.07,-3.10
299.53,0.85,3.92,0.93,4.00,-3.97,-4.17,-4.31,-3.12,-3.03,-3.07
302.53,0.88,3.93,0.87,3.91,-3.89,-4.08,-4.25,-3.02,-3.03,-3.05
305.55,0.84,3.85,0.79,3.81,-3.81,-3.98,-4.18,-2.97,-3.02,-3.01
308.61,0.72,3.71,0.73,3.72,-3.71,-3.87,-4.11,-2.99,-2.98,-2.99
311.69,0.61,3.57,0.64,3.59,-3.60,-3.76,-4.04,-2.99,-2.96,-2.96
314.81,0.56,3.50,0.54,3.48,-3.49,-3.63,-3.98,-2.93,-2.95,-2.94
317.96,0.48,3.40,0.47,3.39,-3.38,-3.50,-3.92,-2.91,-2.91,-2.92
321.14,0.37,3.28,0.37,3.27,-3.28,-3.35,-3.86,-2.92,-2.92,-2.91
324.35,0.28,3.17,0.24,3.13,-3.18,-3.19,-3.80,-2.91,-2.94,-2.89
327.59,0.11,2.99,0.16,3.04,-3.08,-3.02,-3.74,-2.97,-2.91,-2.88
330.87,0.08,2.95,0.11,2.98,-2.96,-2.84,-3.68,-2.88,-2.85,-2.87
334.18,0.12,2.97,0.05,2.90,-2.84,-2.66,-3.63,-2.72,-2.79,-2.85
337.52,-0.02,2.82,-0.06,2.78,-2.71,-2.47,-3.58,-2.74,-2.77,-2.84
340.90,-0.24,2.59,-0.21,2.62,-2.58,-2.28,-3.53,-2.83,-2.79,-2.83
344.30,-0.43,2.39,-0.38,2.44,-2.46,-2.10,-3.49,-2.89,-2.84,-2.82
347.75,-0.49,2.33,-0.54,2.27,-2.34,-1.94,-3.45,-2.83,-2.88,-2.82
351.23,-0.65,2.16,-0.67,2.15,-2.21,-1.81,-3.41,-2.86,-2.88,-2.81
354.74,-0.82,2.00,-0.77,2.04,-2.07,-1.71,-3.37,-2.90,-2.84,-2.82
358.28,-0.86,1.95,-0.87,1.94,-1.91,-1.64,-3.33,-2.77,-2.78,-2.81
361.87,-0.92,1.89,-0.94,1.86,-1.75,-1.62,-3.30,-2.67,-2.69,-2.81
365.49,-1.04,1.76,-1.04,1.76,-1.61,-1.65,-3.27,-2.65,-2.65,-2.80
369.14,-1.18,1.63,-1.20,1.61,-1.50,-1.71,-3.24,-2.68,-2.70,-2.81
372.83,-1.40,1.41,-1.41,1.40,-1.42,-1.81,-3.22,-2.83,-2.83,-2.81
376.56,-1.57,1.25,-1.60,1.21,-1.39,-1.92,-3.20,-2.97,-2.99,-2.82
380.33,-1.76,1.05,-1.69,1.12,-1.42,-2.05,-3.18,-3.18,-3.11,-2.81
384.13,-1.65,1.16,-1.65,1.16,-1.50,-2.19,-3.16,-3.16,-3.15,-2.81
387.97,-1.43,1.39,-1.43,1.39,-1.64,-2.33,-3.14,-3.08,-3.07,-2.82
391.85,-1.17,1.66,-1.10,1.72,-1.84,-2.46,-3.13,-3.02,-2.95,-2.83
395.77,-0.75,2.07,-0.86,1.96,-2.09,-2.59,-3.12,-2.85,-2.96,-2.82
399.73,-0.70,2.13,-0.81,2.02,-2.38,-2.71,-3.11,-3.08,-3.19,-2.83
403.72,-0.83,2.00,-0.81,2.02,-2.69,-2.81,-3.10,-3.52,-3.50,-2.83
407.76,-0.95,1.90,-0.78,2.06,-3.00,-2.91,-3.09,-3.95,-3.78,-2.85
411.84,-0.46,2.39,-0.51,2.33,-3.27,-2.99,-3.09,-3.74,-3.79,-2.85
415.96,-0.03,2.81,0.03,2.88,-3.53,-3.07,-3.08,-3.57,-3.50,-2.85
420.12,0.66,3.50,0.66,3.51,-3.76,-3.13,-3.08,-3.10,-3.10,-2.85
424.32,1.25,4.09,1.12,3.96,-3.93,-3.19,-3.08,-2.69,-2.82,-2.85
428.56,1.42,4.26,1.41,4.25,-4.06,-3.24,-3.08,-2.64,-2.66,-2.84
432.85,1.43,4.26,1.47,4.30,-4.14,-3.28,-3.08,-2.71,-2.67,-2.83
437.18,1.40,4.22,1.40,4.21,-4.17,-3.31,-3.08,-2.77,-2.76,-2.82
441.55,1.35,4.13,1.33,4.12,-4.15,-3.34,-3.08,-2.80,-2.82,-2.78
445.96,1.25,4.00,1.28,4.03,-4.10,-3.37,-3.08,-2.86,-2.83,-2.75
450.42,1.23,3.95,1.23,3.94,-4.03,-3.39,-3.08,-2.80,-2.80,-2.72
454.93,1.23,3.90,1.20,3.88,-3.94,-3.40,-3.08,-2.71,-2.74,-2.67
459.48,1.20,3.83,1.21,3.84,-3.85,-3.41,-3.08,-2.65,-2.64,-2.63
464.07,1.20,3.78,1.22,3.80,-3.78,-3.42,-3.08,-2.58,-2.56,-2.58
468.71,1.26,3.78,1.23,3.75,-3.72,-3.42,-3.08,-2.47,-2.50,-2.52
473.40,1.24,3.72,1.23,3.70,-3.67,-3.43,-3.07,-2.44,-2.45,-2.48
478.13,1.19,3.61,1.19,3.61,-3.62,-3.43,-3.07,-2.43,-2.43,-2.42
482.91,1.16,3.54,1.16,3.54,-3.57,-3.42,-3.06,-2.41,-2.41,-2.38
487.74,1.12,3.46,1.17,3.50,-3.51,-3.42,-3.05,-2.39,-2.34,-2.34
492.62,1.20,3.49,1.16,3.46,-3.45,-3.41,-3.04,-2.25,-2.28,-2.29
