frequency,raw,error,smoothed,error_smoothed,equalization,parametric_eq,fixed_band_eq,equalized_raw,equalized_smoothed,target
20.00,-6.84,-9.83,-6.83,-9.85,9.85,9.68,2.91,3.01,3.02,2.99
20.20,-6.73,-9.77,-6.72,-9.78,9.78,9.60,2.99,3.05,3.06,3.04
20.40,-6.62,-9.71,-6.62,-9.71,9.71,9.52,3.08,3.09,3.09,3.09
20.61,-6.51,-9.63,-6.51,-9.63,9.63,9.44,3.17,3.12,3.12,3.12
20.81,-6.40,-9.57,-6.40,-9.55,9.55,9.36,3.26,3.15,3.15,3.17
21.02,-6.29,-9.50,-6.29,-9.47,9.47,9.27,3.35,3.18,3.18,3.21
21.23,-6.17,-9.40,-6.18,-9.39,9.39,9.19,3.45,3.22,3.20,3.23
21.44,-6.06,-9.31,-6.08,-9.30,9.30,9.10,3.54,3.24,3.23,3.25
21.66,-5.94,-9.21,-5.97,-9.21,9.21,9.01,3.65,3.27,3.25,3.26
21.87,-5.83,-9.10,-5.86,-9.12,9.12,8.92,3.75,3.29,3.26,3.27
22.09,-5.72,-9.01,-5.75,-9.03,9.03,8.83,3.86,3.31,3.28,3.29
22.31,-5.64,-8.94,-5.65,-8.94,8.94,8.74,3.97,3.30,3.29,3.30
22.54,-5.55,-8.86,-5.54,-8.84,8.84,8.65,4.08,3.28,3.30,3.30
22.76,-5.46,-8.76,-5.43,-8.73,8.73,8.56,4.20,3.27,3.30,3.30
22.99,-5.37,-8.66,-5.33,-8.63,8.63,8.47,4.32,3.26,3.30,3.29
23.22,-5.25,-8.54,-5.22,-8.53,8.53,8.38,4.44,3.27,3.30,3.29
23.45,-5.13,-8.42,-5.12,-8.42,8.42,8.28,4.56,3.29,3.31,3.29
23.69,-5.00,-8.30,-5.01,-8.32,8.32,8.19,4.69,3.31,3.31,3.30
23.92,-4.88,-8.18,-4.91,-8.21,8.21,8.09,4.82,3.33,3.31,3.30
24.16,-4.77,-8.08,-4.80,-8.10,8.10,8.00,4.95,3.33,3.30,3.31
24.40,-4.68,-8.00,-4.69,-8.00,8.00,7.90,5.08,3.32,3.30,3.32
24.65,-4.58,-7.89,-4.59,-7.89,7.89,7.81,5.22,3.31,3.30,3.31
24.89,-4.48,-7.78,-4.48,-7.78,7.78,7.71,5.36,3.30,3.30,3.30
25.14,-4.38,-7.68,-4.38,-7.68,7.68,7.61,5.50,3.30,3.30,3.30
25.39,-4.28,-7.59,-4.27,-7.58,7.58,7.52,5.64,3.30,3.31,3.31
25.65,-4.17,-7.48,-4.18,-7.48,7.48,7.42,5.78,3.31,3.31,3.31
25.91,-4.07,-7.37,-4.08,-7.39,7.39,7.32,5.92,3.31,3.31,3.30
26.16,-3.97,-7.27,-3.99,-7.29,7.29,7.22,6.06,3.32,3.30,3.30
26.43,-3.88,-7.18,-3.89,-7.19,7.19,7.12,6.20,3.31,3.30,3.30
26.69,-3.79,-7.09,-3.79,-7.09,7.09,7.02,6.34,3.30,3.30,3.30
26.96,-3.69,-7.00,-3.69,-6.98,6.98,6.93,6.48,3.29,3.30,3.30
27.23,-3.60,-6.91,-3.59,-6.88,6.88,6.83,6.61,3.28,3.29,3.30
27.50,-3.50,-6.80,-3.49,-6.78,6.78,6.73,6.74,3.28,3.29,3.30
27.77,-3.41,-6.70,-3.39,-6.68,6.68,6.63,6.87,3.27,3.29,3.29
28.05,-3.31,-6.60,-3.29,-6.58,6.58,6.53,6.98,3.27,3.29,3.29
28.33,-3.19,-6.47,-3.19,-6.48,6.48,6.43,7.10,3.29,3.29,3.28
28.62,-3.06,-6.34,-3.09,-6.37,6.37,6.33,7.20,3.31,3.29,3.28
28.90,-2.94,-6.23,-2.98,-6.27,6.27,6.23,7.29,3.32,3.28,3.28
29.19,-2.85,-6.12,-2.88,-6.16,6.16,6.13,7.38,3.31,3.28,3.27
29.48,-2.78,-6.07,-2.78,-6.06,6.06,6.03,7.45,3.28,3.28,3.29
29.78,-2.70,-5.98,-2.68,-5.95,5.95,5.92,7.51,3.25,3.28,3.28
30.08,-2.62,-5.91,-2.58,-5.85,5.85,5.82,7.56,3.23,3.28,3.29
30.38,-2.49,-5.77,-2.48,-5.75,5.75,5.72,7.59,3.26,3.27,3.27
30.68,-2.36,-5.63,-2.38,-5.65,5.65,5.62,7.61,3.29,3.27,3.27
30.99,-2.23,-5.50,-2.29,-5.56,5.56,5.52,7.62,3.32,3.27,3.27
31.30,-2.16,-5.43,-2.20,-5.46,5.46,5.42,7.61,3.30,3.27,3.27
31.61,-2.09,-5.36,-2.11,-5.37,5.37,5.32,7.58,3.28,3.26,3.26
31.93,-2.03,-5.30,-2.02,-5.28,5.28,5.22,7.55,3.24,3.26,3.26
32.24,-1.93,-5.18,-1.92,-5.18,5.18,5.12,7.49,3.25,3.26,3.25
32.57,-1.83,-5.09,-1.83,-5.08,5.08,5.02,7.42,3.25,3.25,3.26
32.89,-1.73,-4.99,-1.73,-4.98,4.98,4.92,7.34,3.24,3.25,3.25
33.22,-1.64,-4.88,-1.63,-4.87,4.87,4.82,7.25,3.23,3.24,3.24
33.55,-1.56,-4.80,-1.54,-4.77,4.77,4.72,7.14,3.21,3.24,3.24
33.89,-1.48,-4.71,-1.45,-4.68,4.68,4.62,7.02,3.19,3.23,3.22
34.23,-1.37,-4.60,-1.35,-4.58,4.58,4.52,6.90,3.21,3.23,3.23
34.57,-1.26,-4.48,-1.26,-4.48,4.48,4.42,6.76,3.22,3.22,3.22
34.92,-1.15,-4.37,-1.16,-4.37,4.37,4.32,6.62,3.22,3.22,3.21
35.27,-1.04,-4.25,-1.06,-4.27,4.27,4.22,6.47,3.23,3.21,3.21
35.62,-0.93,-4.14,-0.96,-4.17,4.17,4.12,6.31,3.24,3.21,3.21
35.97,-0.82,-4.02,-0.87,-4.08,4.08,4.02,6.16,3.26,3.21,3.20
36.33,-0.76,-3.97,-0.78,-3.99,3.99,3.92,5.99,3.22,3.20,3.21
36.70,-0.70,-3.90,-0.70,-3.90,3.90,3.82,5.83,3.19,3.20,3.19
37.06,-0.63,-3.82,-0.61,-3.81,3.81,3.72,5.66,3.18,3.20,3.19
37.43,-0.52,-3.72,-0.52,-3.72,3.72,3.62,5.49,3.20,3.20,3.20
37.81,-0.41,-3.61,-0.43,-3.63,3.63,3.52,5.32,3.22,3.20,3.20
38.19,-0.33,-3.53,-0.35,-3.55,3.55,3.42,5.15,3.22,3.20,3.19
38.57,-0.28,-3.48,-0.27,-3.47,3.47,3.32,4.98,3.18,3.20,3.20
38.95,-0.23,-3.43,-0.18,-3.38,3.38,3.22,4.81,3.15,3.20,3.20
39.34,-0.13,-3.33,-0.10,-3.29,3.29,3.13,4.64,3.16,3.20,3.20
39.74,-0.02,-3.21,-0.01,-3.20,3.20,3.03,4.47,3.18,3.19,3.19
40.14,0.08,-3.12,0.08,-3.11,3.11,2.93,4.30,3.18,3.19,3.19
40.54,0.18,-3.01,0.18,-3.01,3.01,2.83,4.13,3.19,3.19,3.19
40.94,0.28,-2.90,0.27,-2.91,2.91,2.74,3.97,3.19,3.18,3.18
41.35,0.36,-2.82,0.36,-2.82,2.82,2.64,3.81,3.18,3.18,3.17
41.76,0.44,-2.73,0.44,-2.73,2.73,2.54,3.65,3.17,3.17,3.17
42.18,0.54,-2.63,0.52,-2.64,2.64,2.45,3.49,3.18,3.16,3.17
42.60,0.64,-2.51,0.61,-2.54,2.54,2.35,3.33,3.18,3.15,3.15
43.03,0.74,-2.41,0.69,-2.44,2.44,2.26,3.18,3.18,3.13,3.14
43.46,0.80,-2.34,0.77,-2.35,2.35,2.16,3.02,3.15,3.12,3.14
43.90,0.86,-2.25,0.85,-2.26,2.26,2.07,2.87,3.11,3.11,3.11
44.33,0.91,-2.18,0.93,-2.17,2.17,1.97,2.73,3.08,3.09,3.09
44.78,0.97,-2.10,1.00,-2.08,2.08,1.88,2.58,3.05,3.08,3.07
45.23,1.03,-2.03,1.07,-2.00,2.00,1.79,2.44,3.02,3.06,3.06
45.68,1.10,-1.94,1.14,-1.91,1.91,1.69,2.29,3.01,3.05,3.04
46.13,1.18,-1.84,1.21,-1.82,1.82,1.60,2.15,3.00,3.03,3.02
46.60,1.30,-1.72,1.28,-1.73,1.73,1.51,2.01,3.03,3.02,3.02
47.06,1.41,-1.59,1.35,-1.65,1.65,1.41,1.88,3.06,3.00,3.00
47.53,1.45,-1.54,1.42,-1.56,1.56,1.32,1.74,3.01,2.98,2.98
48.01,1.50,-1.49,1.49,-1.48,1.48,1.23,1.61,2.97,2.96,2.98
48.49,1.55,-1.41,1.56,-1.39,1.39,1.14,1.48,2.94,2.95,2.96
48.97,1.60,-1.34,1.63,-1.30,1.30,1.05,1.35,2.90,2.93,2.94
49.46,1.69,-1.23,1.70,-1.22,1.22,0.96,1.22,2.91,2.92,2.91
49.96,1.79,-1.10,1.77,-1.13,1.13,0.87,1.10,2.92,2.90,2.89
50.46,1.85,-1.04,1.84,-1.04,1.04,0.78,0.97,2.89,2.89,2.89
50.96,1.90,-0.97,1.91,-0.96,0.96,0.69,0.85,2.86,2.87,2.87
51.47,1.96,-0.89,1.97,-0.88,0.88,0.60,0.73,2.84,2.86,2.85
51.99,2.02,-0.81,2.03,-0.81,0.81,0.51,0.61,2.83,2.84,2.83
52.51,2.09,-0.74,2.09,-0.73,0.73,0.43,0.49,2.82,2.82,2.82
53.03,2.16,-0.66,2.15,-0.66,0.66,0.34,0.38,2.82,2.81,2.82
53.56,2.23,-0.57,2.21,-0.59,0.59,0.25,0.27,2.81,2.79,2.80
54.10,2.30,-0.48,2.26,-0.52,0.52,0.17,0.16,2.82,2.78,2.78
54.64,2.36,-0.40,2.31,-0.45,0.45,0.08,0.05,2.81,2.77,2.76
55.18,2.40,-0.35,2.37,-0.39,0.39,-0.00,-0.06,2.78,2.75,2.75
55.74,2.40,-0.33,2.42,-0.32,0.32,-0.09,-0.16,2.71,2.74,2.73
56.29,2.43,-0.29,2.47,-0.25,0.25,-0.17,-0.26,2.68,2.72,2.72
56.86,2.49,-0.21,2.52,-0.18,0.18,-0.26,-0.36,2.67,2.70,2.70
57.42,2.54,-0.13,2.57,-0.11,0.11,-0.34,-0.45,2.65,2.68,2.67
58.00,2.60,-0.06,2.62,-0.04,0.04,-0.42,-0.55,2.63,2.66,2.65
58.58,2.66,0.02,2.67,0.04,-0.04,-0.50,-0.64,2.62,2.63,2.64
59.16,2.73,0.11,2.72,0.12,-0.12,-0.58,-0.72,2.61,2.60,2.62
59.76,2.79,0.20,2.77,0.20,-0.20,-0.66,-0.81,2.59,2.57,2.59
60.35,2.85,0.30,2.81,0.28,-0.28,-0.74,-0.89,2.57,2.54,2.54
60.96,2.91,0.40,2.86,0.37,-0.37,-0.82,-0.96,2.54,2.50,2.51
61.57,2.91,0.45,2.91,0.46,-0.46,-0.90,-1.04,2.45,2.46,2.46
62.18,2.93,0.52,2.96,0.55,-0.55,-0.98,-1.11,2.38,2.41,2.41
62.80,2.99,0.63,3.00,0.63,-0.63,-1.06,-1.18,2.35,2.37,2.36
63.43,3.05,0.74,3.04,0.72,-0.72,-1.14,-1.24,2.32,2.32,2.31
64.07,3.11,0.85,3.08,0.81,-0.81,-1.21,-1.30,2.29,2.27,2.26
64.71,3.11,0.90,3.12,0.90,-0.90,-1.29,-1.36,2.21,2.22,2.21
65.35,3.15,0.98,3.16,0.99,-0.99,-1.36,-1.42,2.16,2.17,2.17
66.01,3.21,1.09,3.19,1.07,-1.07,-1.44,-1.47,2.13,2.11,2.11
66.67,3.21,1.15,3.22,1.16,-1.16,-1.51,-1.52,2.05,2.06,2.06
67.33,3.24,1.23,3.25,1.25,-1.25,-1.59,-1.57,1.99,2.01,2.00
68.01,3.30,1.34,3.29,1.34,-1.34,-1.66,-1.62,1.96,1.95,1.96
68.69,3.31,1.41,3.32,1.42,-1.42,-1.73,-1.66,1.89,1.90,1.90
69.37,3.35,1.51,3.34,1.51,-1.51,-1.80,-1.71,1.84,1.84,1.84
70.07,3.41,1.63,3.37,1.59,-1.59,-1.87,-1.75,1.82,1.78,1.78
70.77,3.41,1.68,3.39,1.67,-1.67,-1.94,-1.79,1.73,1.72,1.73
71.48,3.41,1.74,3.42,1.76,-1.76,-2.01,-1.83,1.65,1.66,1.67
72.19,3.42,1.82,3.44,1.84,-1.84,-2.08,-1.87,1.57,1.60,1.60
72.91,3.47,1.93,3.46,1.93,-1.93,-2.15,-1.91,1.54,1.53,1.54
73.64,3.50,2.03,3.48,2.01,-2.01,-2.22,-1.95,1.49,1.47,1.47
74.38,3.51,2.10,3.51,2.10,-2.10,-2.28,-1.99,1.41,1.41,1.41
75.12,3.51,2.17,3.53,2.18,-2.18,-2.35,-2.03,1.32,1.35,1.34
75.87,3.51,2.24,3.55,2.27,-2.27,-2.42,-2.07,1.24,1.28,1.27
76.63,3.57,2.35,3.57,2.35,-2.35,-2.48,-2.11,1.22,1.22,1.21
77.40,3.61,2.45,3.59,2.43,-2.43,-2.54,-2.15,1.18,1.16,1.16
78.17,3.61,2.52,3.61,2.51,-2.51,-2.61,-2.19,1.10,1.10,1.09
78.95,3.61,2.56,3.63,2.59,-2.59,-2.67,-2.23,1.02,1.04,1.04
79.74,3.65,2.67,3.65,2.67,-2.67,-2.73,-2.28,0.98,0.98,0.98
80.54,3.69,2.76,3.66,2.74,-2.74,-2.79,-2.33,0.95,0.93,0.93
81.35,3.71,2.84,3.68,2.81,-2.81,-2.85,-2.38,0.90,0.87,0.87
82.16,3.71,2.90,3.69,2.87,-2.87,-2.91,-2.43,0.83,0.81,0.81
82.98,3.71,2.94,3.70,2.94,-2.94,-2.97,-2.48,0.77,0.76,0.77
83.81,3.71,3.01,3.71,3.01,-3.01,-3.03,-2.53,0.70,0.70,0.70
84.65,3.71,3.07,3.71,3.07,-3.07,-3.09,-2.59,0.64,0.64,0.64
85.50,3.71,3.11,3.71,3.13,-3.13,-3.14,-2.65,0.58,0.59,0.59
86.35,3.71,3.17,3.72,3.19,-3.19,-3.20,-2.71,0.52,0.53,0.53
87.22,3.71,3.23,3.72,3.25,-3.25,-3.26,-2.77,0.46,0.47,0.48
88.09,3.71,3.29,3.72,3.31,-3.31,-3.31,-2.83,0.40,0.41,0.41
88.97,3.71,3.35,3.72,3.37,-3.37,-3.36,-2.90,0.34,0.35,0.35
89.86,3.72,3.43,3.72,3.43,-3.43,-3.42,-2.97,0.29,0.29,0.29
90.76,3.72,3.49,3.72,3.49,-3.49,-3.47,-3.04,0.23,0.23,0.23
91.66,3.72,3.54,3.73,3.55,-3.55,-3.52,-3.11,0.16,0.17,0.18
92.58,3.72,3.62,3.73,3.62,-3.62,-3.57,-3.19,0.10,0.11,0.10
93.51,3.72,3.67,3.73,3.67,-3.67,-3.62,-3.27,0.04,0.05,0.05
94.44,3.72,3.72,3.73,3.73,-3.73,-3.67,-3.35,-0.01,-0.01,-0.01
95.39,3.72,3.78,3.72,3.78,-3.78,-3.72,-3.43,-0.07,-0.07,-0.06
96.34,3.71,3.84,3.71,3.83,-3.83,-3.77,-3.52,-0.12,-0.12,-0.13
97.30,3.71,3.89,3.69,3.87,-3.87,-3.81,-3.60,-0.16,-0.18,-0.18
98.28,3.70,3.94,3.67,3.90,-3.90,-3.86,-3.69,-0.21,-0.24,-0.24
99.26,3.68,3.98,3.64,3.94,-3.94,-3.91,-3.78,-0.26,-0.30,-0.30
100.25,3.66,4.01,3.61,3.96,-3.96,-3.95,-3.87,-0.30,-0.36,-0.35
101.25,3.61,4.02,3.57,3.99,-3.99,-3.99,-3.96,-0.38,-0.41,-0.41
102.27,3.53,4.00,3.54,4.01,-4.01,-4.04,-4.06,-0.48,-0.47,-0.47
103.29,3.49,4.02,3.50,4.03,-4.03,-4.08,-4.15,-0.54,-0.53,-0.54
104.32,3.44,4.02,3.46,4.05,-4.05,-4.12,-4.24,-0.61,-0.59,-0.58
105.37,3.38,4.02,3.42,4.07,-4.07,-4.16,-4.34,-0.69,-0.65,-0.64
106.42,3.36,4.06,3.38,4.09,-4.09,-4.20,-4.43,-0.74,-0.71,-0.70
107.48,3.33,4.10,3.35,4.12,-4.12,-4.24,-4.52,-0.79,-0.77,-0.77
108.56,3.31,4.14,3.31,4.15,-4.15,-4.28,-4.61,-0.84,-0.83,-0.84
109.64,3.29,4.18,3.29,4.18,-4.18,-4.32,-4.70,-0.90,-0.90,-0.89
110.74,3.27,4.23,3.27,4.23,-4.23,-4.35,-4.79,-0.96,-0.96,-0.96
111.85,3.25,4.26,3.26,4.28,-4.28,-4.39,-4.87,-1.03,-1.02,-1.01
112.97,3.24,4.32,3.25,4.33,-4.33,-4.43,-4.96,-1.09,-1.08,-1.08
114.10,3.23,4.37,3.25,4.38,-4.38,-4.46,-5.03,-1.16,-1.14,-1.14
115.24,3.23,4.43,3.24,4.44,-4.44,-4.50,-5.11,-1.21,-1.19,-1.20
116.39,3.23,4.49,3.25,4.50,-4.50,-4.53,-5.17,-1.27,-1.25,-1.26
117.55,3.24,4.55,3.24,4.54,-4.54,-4.56,-5.24,-1.31,-1.30,-1.31
118.73,3.24,4.60,3.23,4.59,-4.59,-4.59,-5.29,-1.35,-1.35,-1.36
119.92,3.25,4.65,3.22,4.62,-4.62,-4.62,-5.35,-1.38,-1.40,-1.40
121.12,3.26,4.71,3.21,4.66,-4.66,-4.65,-5.39,-1.40,-1.45,-1.45
122.33,3.25,4.74,3.20,4.69,-4.69,-4.68,-5.43,-1.44,-1.49,-1.50
123.55,3.21,4.74,3.18,4.71,-4.71,-4.71,-5.46,-1.50,-1.53,-1.53
124.79,3.18,4.75,3.16,4.73,-4.73,-4.74,-5.49,-1.56,-1.57,-1.57
126.03,3.19,4.80,3.14,4.75,-4.75,-4.77,-5.50,-1.56,-1.61,-1.61
127.29,3.13,4.77,3.12,4.77,-4.77,-4.80,-5.51,-1.65,-1.65,-1.64
128.57,3.06,4.75,3.10,4.79,-4.79,-4.82,-5.52,-1.74,-1.69,-1.69
129.85,3.00,4.73,3.08,4.81,-4.81,-4.85,-5.51,-1.82,-1.73,-1.73
131.15,3.01,4.78,3.07,4.83,-4.83,-4.87,-5.51,-1.82,-1.77,-1.77
132.46,3.01,4.81,3.05,4.85,-4.85,-4.89,-5.49,-1.84,-1.81,-1.81
133.79,3.02,4.86,3.03,4.87,-4.87,-4.92,-5.47,-1.85,-1.84,-1.84
135.12,3.02,4.91,3.01,4.89,-4.89,-4.94,-5.44,-1.87,-1.88,-1.89
136.48,3.02,4.93,3.00,4.92,-4.92,-4.96,-5.41,-1.90,-1.91,-1.91
137.84,3.03,4.99,3.00,4.95,-4.95,-4.98,-5.38,-1.92,-1.95,-1.96
139.22,3.03,5.03,2.99,4.98,-4.98,-5.00,-5.34,-1.96,-1.99,-2.00
140.61,3.03,5.07,2.99,5.02,-5.02,-5.02,-5.30,-1.99,-2.03,-2.04
142.02,3.00,5.06,2.98,5.05,-5.05,-5.04,-5.25,-2.05,-2.07,-2.06
143.44,2.95,5.05,2.97,5.09,-5.09,-5.06,-5.21,-2.14,-2.11,-2.10
144.87,2.93,5.08,2.96,5.12,-5.12,-5.07,-5.16,-2.19,-2.16,-2.15
146.32,2.93,5.13,2.94,5.15,-5.15,-5.09,-5.11,-2.22,-2.21,-2.20
147.78,2.93,5.17,2.92,5.18,-5.18,-5.11,-5.06,-2.25,-2.27,-2.24
149.26,2.93,5.22,2.90,5.22,-5.22,-5.12,-5.02,-2.30,-2.33,-2.30
150.75,2.93,5.30,2.88,5.27,-5.27,-5.14,-4.97,-2.35,-2.39,-2.37
152.26,2.87,5.31,2.86,5.33,-5.33,-5.15,-4.92,-2.46,-2.46,-2.45
153.78,2.82,5.34,2.84,5.38,-5.38,-5.16,-4.87,-2.56,-2.54,-2.52
155.32,2.76,5.36,2.82,5.43,-5.43,-5.17,-4.83,-2.67,-2.61,-2.60
156.88,2.73,5.41,2.79,5.48,-5.48,-5.19,-4.79,-2.75,-2.69,-2.68
158.44,2.73,5.50,2.76,5.53,-5.53,-5.20,-4.75,-2.80,-2.77,-2.77
160.03,2.73,5.59,2.73,5.57,-5.57,-5.21,-4.71,-2.85,-2.85,-2.86
161.63,2.73,5.67,2.69,5.61,-5.61,-5.22,-4.67,-2.88,-2.92,-2.94
163.24,2.73,5.74,2.65,5.63,-5.63,-5.23,-4.64,-2.91,-2.99,-3.01
164.88,2.70,5.76,2.61,5.65,-5.65,-5.23,-4.61,-2.96,-3.05,-3.07
166.53,2.64,5.76,2.57,5.67,-5.67,-5.24,-4.58,-3.03,-3.10,-3.12
168.19,2.52,5.68,2.52,5.67,-5.67,-5.25,-4.56,-3.16,-3.15,-3.17
169.87,2.42,5.63,2.49,5.67,-5.67,-5.25,-4.54,-3.26,-3.19,-3.21
171.57,2.40,5.63,2.45,5.67,-5.67,-5.26,-4.52,-3.27,-3.22,-3.23
173.29,2.39,5.64,2.41,5.65,-5.65,-5.26,-4.51,-3.26,-3.25,-3.26
175.02,2.35,5.61,2.37,5.63,-5.63,-5.27,-4.49,-3.28,-3.27,-3.27
176.77,2.29,5.57,2.33,5.61,-5.61,-5.27,-4.49,-3.32,-3.28,-3.29
178.54,2.28,5.57,2.30,5.60,-5.60,-5.27,-4.48,-3.32,-3.29,-3.30
180.32,2.29,5.58,2.28,5.59,-5.59,-5.28,-4.48,-3.30,-3.30,-3.30
182.13,2.28,5.57,2.27,5.58,-5.58,-5.28,-4.49,-3.30,-3.32,-3.29
183.95,2.24,5.55,2.25,5.58,-5.58,-5.28,-4.49,-3.34,-3.33,-3.31
185.79,2.21,5.52,2.25,5.59,-5.59,-5.28,-4.51,-3.38,-3.34,-3.32
187.65,2.23,5.57,2.24,5.60,-5.60,-5.28,-4.52,-3.37,-3.35,-3.34
189.52,2.24,5.59,2.24,5.61,-5.61,-5.27,-4.54,-3.37,-3.37,-3.36
191.42,2.25,5.63,2.23,5.62,-5.62,-5.27,-4.56,-3.37,-3.38,-3.38
193.33,2.27,5.67,2.23,5.63,-5.63,-5.27,-4.58,-3.36,-3.40,-3.40
195.27,2.28,5.70,2.22,5.64,-5.64,-5.27,-4.60,-3.36,-3.42,-3.43
197.22,2.27,5.71,2.20,5.65,-5.65,-5.26,-4.63,-3.38,-3.45,-3.45
199.19,2.17,5.65,2.18,5.65,-5.65,-5.26,-4.66,-3.49,-3.47,-3.48
201.18,2.12,5.62,2.16,5.66,-5.66,-5.25,-4.69,-3.54,-3.50,-3.50
203.19,2.12,5.64,2.14,5.66,-5.66,-5.25,-4.73,-3.55,-3.52,-3.52
205.23,2.12,5.66,2.12,5.66,-5.66,-5.24,-4.77,-3.55,-3.54,-3.55
207.28,2.12,5.67,2.09,5.66,-5.66,-5.23,-4.80,-3.54,-3.57,-3.56
209.35,2.10,5.68,2.06,5.65,-5.65,-5.22,-4.84,-3.55,-3.59,-3.58
211.44,2.04,5.66,2.03,5.64,-5.64,-5.21,-4.88,-3.60,-3.61,-3.62
213.56,1.97,5.59,1.99,5.62,-5.62,-5.20,-4.92,-3.66,-3.63,-3.63
215.69,1.92,5.56,1.96,5.60,-5.60,-5.19,-4.96,-3.69,-3.65,-3.64
217.85,1.91,5.57,1.92,5.59,-5.59,-5.18,-5.00,-3.68,-3.66,-3.66
220.03,1.90,5.57,1.90,5.57,-5.57,-5.17,-5.04,-3.67,-3.67,-3.67
222.23,1.90,5.60,1.87,5.55,-5.55,-5.16,-5.08,-3.65,-3.68,-3.70
224.45,1.83,5.52,1.83,5.52,-5.52,-5.14,-5.11,-3.69,-3.69,-3.69
226.70,1.80,5.49,1.80,5.49,-5.49,-5.13,-5.15,-3.69,-3.69,-3.70
228.96,1.80,5.49,1.76,5.45,-5.45,-5.11,-5.18,-3.65,-3.69,-3.69
231.25,1.73,5.41,1.73,5.42,-5.42,-5.10,-5.20,-3.69,-3.68,-3.68
233.57,1.69,5.36,1.71,5.38,-5.38,-5.08,-5.23,-3.69,-3.67,-3.67
235.90,1.63,5.29,1.68,5.34,-5.34,-5.06,-5.25,-3.71,-3.66,-3.67
238.26,1.65,5.30,1.65,5.29,-5.29,-5.05,-5.26,-3.65,-3.65,-3.66
240.64,1.63,5.27,1.61,5.24,-5.24,-5.03,-5.27,-3.62,-3.63,-3.64
243.05,1.59,5.20,1.58,5.20,-5.20,-5.01,-5.28,-3.61,-3.61,-3.61
245.48,1.53,5.12,1.55,5.14,-5.14,-4.98,-5.28,-3.62,-3.59,-3.59
247.93,1.53,5.09,1.51,5.08,-5.08,-4.96,-5.27,-3.56,-3.57,-3.56
250.41,1.51,5.06,1.47,5.02,-5.02,-4.94,-5.26,-3.51,-3.55,-3.55
252.92,1.46,4.97,1.43,4.96,-4.96,-4.91,-5.24,-3.50,-3.53,-3.52
255.45,1.41,4.90,1.39,4.90,-4.90,-4.89,-5.22,-3.49,-3.50,-3.50
258.00,1.37,4.84,1.36,4.84,-4.84,-4.86,-5.19,-3.47,-3.48,-3.47
260.58,1.29,4.75,1.32,4.77,-4.77,-4.83,-5.16,-3.49,-3.46,-3.46
263.19,1.28,4.71,1.27,4.70,-4.70,-4.80,-5.12,-3.43,-3.43,-3.43
265.82,1.28,4.70,1.22,4.63,-4.63,-4.77,-5.08,-3.36,-3.41,-3.42
268.48,1.20,4.59,1.19,4.58,-4.58,-4.73,-5.03,-3.38,-3.39,-3.40
271.16,1.09,4.45,1.15,4.52,-4.52,-4.70,-4.98,-3.43,-3.37,-3.36
273.87,1.01,4.36,1.12,4.46,-4.46,-4.66,-4.93,-3.46,-3.34,-3.35
276.61,1.08,4.39,1.09,4.41,-4.41,-4.62,-4.87,-3.33,-3.32,-3.32
279.38,1.09,4.38,1.07,4.36,-4.36,-4.58,-4.81,-3.28,-3.29,-3.29
282.17,1.08,4.35,1.05,4.32,-4.32,-4.53,-4.74,-3.24,-3.27,-3.27
284.99,1.00,4.23,1.03,4.27,-4.27,-4.48,-4.68,-3.27,-3.24,-3.23
287.84,0.93,4.15,1.00,4.21,-4.21,-4.43,-4.61,-3.29,-3.21,-3.22
290.72,0.94,4.12,0.98,4.16,-4.16,-4.38,-4.54,-3.22,-3.18,-3.18
293.63,1.04,4.20,0.95,4.11,-4.11,-4.32,-4.47,-3.07,-3.15,-3.16
296.57,1.02,4.14,0.92,4.04,-4.04,-4.26,-4.40,-3.02,-3.13,-3.12
299.53,0.85,3.95,0.87,3.97,-3.97,-4.19,-4.33,-3.12,-3.10,-3.10
302.53,0.88,3.96,0.82,3.90,-3.90,-4.11,-4.26,-3.02,-3.07,-3.08
305.55,0.84,3.88,0.77,3.82,-3.82,-4.03,-4.19,-2.98,-3.05,-3.04
308.61,0.72,3.74,0.71,3.74,-3.74,-3.95,-4.13,-3.02,-3.03,-3.02
311.69,0.61,3.60,0.64,3.65,-3.65,-3.85,-4.06,-3.04,-3.00,-3.00
314.81,0.56,3.53,0.57,3.55,-3.55,-3.75,-3.99,-3.00,-2.98,-2.97
317.96,0.48,3.43,0.50,3.46,-3.46,-3.63,-3.93,-2.98,-2.96,-2.96
321.14,0.37,3.32,0.40,3.35,-3.35,-3.51,-3.87,-2.98,-2.94,-2.95
324.35,0.28,3.21,0.30,3.22,-3.22,-3.38,-3.81,-2.95,-2.93,-2.93
327.59,0.11,3.02,0.18,3.10,-3.10,-3.23,-3.75,-2.99,-2.91,-2.92
330.87,0.08,2.99,0.08,2.98,-2.98,-3.07,-3.69,-2.90,-2.90,-2.91
334.18,0.12,3.01,-0.02,2.87,-2.87,-2.90,-3.64,-2.75,-2.89,-2.89
337.52,-0.02,2.86,-0.13,2.75,-2.75,-2.72,-3.59,-2.77,-2.88,-2.89
340.90,-0.24,2.63,-0.24,2.64,-2.64,-2.53,-3.54,-2.88,-2.87,-2.87
344.30,-0.43,2.43,-0.36,2.51,-2.51,-2.34,-3.50,-2.94,-2.87,-2.86
347.75,-0.49,2.37,-0.50,2.36,-2.36,-2.15,-3.45,-2.85,-2.86,-2.86
351.23,-0.65,2.20,-0.66,2.20,-2.20,-1.97,-3.41,-2.85,-2.86,-2.86
354.74,-0.82,2.04,-0.83,2.03,-2.03,-1.81,-3.37,-2.85,-2.86,-2.86
358.28,-0.86,1.99,-0.97,1.88,-1.88,-1.68,-3.34,-2.75,-2.85,-2.85
361.87,-0.92,1.93,-1.08,1.77,-1.77,-1.58,-3.30,-2.70,-2.85,-2.85
365.49,-1.04,1.80,-1.16,1.69,-1.69,-1.54,-3.27,-2.73,-2.85,-2.85
369.14,-1.18,1.68,-1.25,1.60,-1.60,-1.54,-3.24,-2.78,-2.85,-2.86
372.83,-1.40,1.46,-1.33,1.52,-1.52,-1.59,-3.22,-2.92,-2.85,-2.86
376.56,-1.57,1.29,-1.40,1.46,-1.46,-1.67,-3.20,-3.03,-2.86,-2.86
380.33,-1.76,1.09,-1.44,1.42,-1.42,-1.79,-3.17,-3.19,-2.86,-2.85
384.13,-1.65,1.20,-1.42,1.44,-1.44,-1.92,-3.16,-3.09,-2.87,-2.86
387.97,-1.43,1.44,-1.35,1.52,-1.52,-2.07,-3.14,-2.95,-2.87,-2.87
391.85,-1.17,1.71,-1.22,1.65,-1.65,-2.21,-3.13,-2.82,-2.87,-2.88
395.77,-0.75,2.12,-1.05,1.83,-1.83,-2.35,-3.11,-2.59,-2.88,-2.87
399.73,-0.70,2.18,-0.84,2.05,-2.05,-2.49,-3.10,-2.75,-2.89,-2.88
403.72,-0.83,2.05,-0.59,2.30,-2.30,-2.61,-3.09,-3.13,-2.89,-2.88
407.76,-0.95,1.94,-0.33,2.57,-2.57,-2.72,-3.09,-3.52,-2.90,-2.90
411.84,-0.46,2.43,-0.06,2.84,-2.84,-2.82,-3.08,-3.30,-2.90,-2.90
415.96,-0.03,2.87,0.21,3.11,-3.11,-2.90,-3.08,-3.14,-2.90,-2.90
420.12,0.66,3.56,0.46,3.36,-3.36,-2.98,-3.07,-2.70,-2.90,-2.90
424.32,1.25,4.15,0.68,3.57,-3.57,-3.04,-3.07,-2.33,-2.89,-2.90
428.56,1.42,4.31,0.86,3.75,-3.75,-3.10,-3.07,-2.33,-2.88,-2.89
432.85,1.43,4.31,1.02,3.88,-3.88,-3.15,-3.07,-2.46,-2.87,-2.88
437.18,1.40,4.27,1.14,3.99,-3.99,-3.19,-3.07,-2.59,-2.85,-2.87
441.55,1.35,4.18,1.25,4.07,-4.07,-3.22,-3.07,-2.72,-2.82,-2.83
445.96,1.25,4.05,1.34,4.13,-4.13,-3.25,-3.07,-2.88,-2.79,-2.81
450.42,1.23,4.00,1.41,4.17,-4.17,-3.28,-3.07,-2.94,-2.76,-2.78
454.93,1.23,3.96,1.43,4.15,-4.15,-3.30,-3.07,-2.92,-2.72,-2.73
459.48,1.20,3.88,1.39,4.06,-4.06,-3.31,-3.07,-2.87,-2.67,-2.68
464.07,1.20,3.83,1.33,3.96,-3.96,-3.32,-3.07,-2.76,-2.63,-2.63
468.71,1.26,3.83,1.27,3.84,-3.84,-3.33,-3.06,-2.59,-2.58,-2.57
473.40,1.24,3.77,1.22,3.75,-3.75,-3.33,-3.06,-2.51,-2.53,-2.53
478.13,1.19,3.66,1.19,3.67,-3.67,-3.33,-3.06,-2.48,-2.48,-2.47
482.91,1.16,3.59,1.17,3.60,-3.60,-3.33,-3.05,-2.45,-2.44,-2.43
487.74,1.12,3.51,1.15,3.54,-3.54,-3.33,-3.04,-2.42,-2.39,-2.39
492.62,1.20,3.54,1.12,3.48,-3.48,-3.33,-3.03,-2.29,-2.36,-2.34
497.55,1.19,3.51,1.10,3.43,-3.43,-3.32,-3.02,-2.24,-2.33,-2.32
