frequency,raw,error,smoothed,error_smoothed,equalization,parametric_eq,fixed_band_eq,equalized_raw,equalized_smoothed,target
20.00,-17.64,-18.63,-17.63,-18.64,18.64,18.88,7.92,1.00,1.01,0.99
20.20,-17.55,-18.54,-17.55,-18.56,18.56,18.74,8.09,1.01,1.01,0.99
20.40,-17.47,-18.46,-17.47,-18.47,18.47,18.61,8.26,1.00,1.00,0.99
20.61,-17.39,-18.38,-17.39,-18.38,18.38,18.48,8.43,0.99,0.99,0.99
20.81,-17.30,-18.29,-17.31,-18.29,18.29,18.35,8.62,0.99,0.98,0.99
21.02,-17.23,-18.22,-17.23,-18.20,18.20,18.23,8.80,0.97,0.97,0.99
21.23,-17.14,-18.11,-17.15,-18.11,18.11,18.11,8.99,0.97,0.96,0.97
21.44,-17.06,-18.02,-17.07,-18.01,18.01,17.99,9.19,0.96,0.94,0.96
21.66,-16.99,-17.93,-16.99,-17.92,17.92,17.87,9.39,0.93,0.93,0.94
21.87,-16.92,-17.84,-16.91,-17.82,17.82,17.76,9.60,0.90,0.92,0.92
22.09,-16.83,-17.74,-16.83,-17.72,17.72,17.64,9.81,0.90,0.90,0.91
22.31,-16.76,-17.64,-16.74,-17.63,17.63,17.53,10.03,0.87,0.88,0.88
22.54,-16.68,-17.54,-16.66,-17.52,17.52,17.42,10.25,0.84,0.86,0.86
22.76,-16.59,-17.43,-16.57,-17.41,17.41,17.31,10.48,0.82,0.84,0.84
22.99,-16.51,-17.32,-16.49,-17.30,17.30,17.21,10.72,0.80,0.81,0.81
23.22,-16.42,-17.20,-16.41,-17.20,17.20,17.10,10.97,0.78,0.79,0.78
23.45,-16.32,-17.07,-16.32,-17.09,17.09,17.00,11.22,0.77,0.77,0.75
23.69,-16.23,-16.97,-16.24,-16.99,16.99,16.90,11.47,0.76,0.75,0.74
23.92,-16.14,-16.86,-16.16,-16.89,16.89,16.80,11.74,0.75,0.73,0.72
24.16,-16.05,-16.76,-16.08,-16.79,16.79,16.70,12.01,0.74,0.71,0.71
24.40,-15.99,-16.68,-16.00,-16.69,16.69,16.60,12.29,0.70,0.69,0.69
24.65,-15.91,-16.58,-15.93,-16.60,16.60,16.51,12.58,0.69,0.67,0.67
24.89,-15.85,-16.50,-15.85,-16.51,16.51,16.41,12.88,0.66,0.65,0.65
25.14,-15.78,-16.42,-15.78,-16.42,16.42,16.32,13.19,0.64,0.64,0.64
25.39,-15.72,-16.34,-15.71,-16.33,16.33,16.23,13.50,0.62,0.62,0.62
25.65,-15.65,-16.26,-15.65,-16.25,16.25,16.14,13.82,0.60,0.60,0.61
25.91,-15.59,-16.17,-15.58,-16.17,16.17,16.05,14.16,0.58,0.59,0.58
26.16,-15.52,-16.09,-15.51,-16.08,16.08,15.96,14.50,0.56,0.57,0.57
26.43,-15.45,-16.01,-15.44,-15.99,15.99,15.87,14.85,0.54,0.56,0.56
26.69,-15.38,-15.91,-15.36,-15.90,15.90,15.78,15.20,0.52,0.54,0.53
26.96,-15.30,-15.82,-15.29,-15.81,15.81,15.69,15.57,0.51,0.53,0.52
27.23,-15.22,-15.73,-15.21,-15.72,15.72,15.61,15.94,0.50,0.51,0.51
27.50,-15.14,-15.64,-15.13,-15.63,15.63,15.52,16.32,0.49,0.50,0.50
27.77,-15.05,-15.53,-15.05,-15.53,15.53,15.43,16.70,0.48,0.48,0.48
28.05,-14.96,-15.43,-14.97,-15.44,15.44,15.35,17.08,0.48,0.47,0.47
28.33,-14.88,-15.33,-14.88,-15.34,15.34,15.26,17.45,0.46,0.45,0.45
28.62,-14.79,-15.23,-14.80,-15.24,15.24,15.18,17.83,0.45,0.44,0.44
28.90,-14.71,-15.13,-14.72,-15.15,15.15,15.09,18.19,0.44,0.43,0.42
29.19,-14.64,-15.04,-14.64,-15.05,15.05,15.01,18.53,0.42,0.42,0.40
29.48,-14.56,-14.96,-14.56,-14.96,14.96,14.93,18.85,0.40,0.40,0.40
29.78,-14.48,-14.87,-14.48,-14.87,14.87,14.84,19.14,0.39,0.39,0.39
30.08,-14.40,-14.78,-14.41,-14.78,14.78,14.76,19.39,0.38,0.37,0.38
30.38,-14.33,-14.69,-14.33,-14.69,14.69,14.67,19.59,0.36,0.36,0.36
30.68,-14.25,-14.60,-14.25,-14.60,14.60,14.59,19.74,0.35,0.34,0.35
30.99,-14.18,-14.50,-14.18,-14.51,14.51,14.51,19.83,0.33,0.33,0.32
31.30,-14.11,-14.42,-14.10,-14.41,14.41,14.42,19.86,0.30,0.31,0.31
31.61,-14.04,-14.34,-14.03,-14.32,14.32,14.34,19.82,0.28,0.29,0.30
31.93,-13.97,-14.25,-13.95,-14.23,14.23,14.25,19.73,0.26,0.28,0.28
32.24,-13.90,-14.15,-13.88,-14.14,14.14,14.17,19.57,0.24,0.26,0.25
32.57,-13.82,-14.05,-13.81,-14.05,14.05,14.08,19.37,0.23,0.24,0.23
32.89,-13.74,-13.96,-13.74,-13.96,13.96,14.00,19.13,0.22,0.22,0.22
33.22,-13.65,-13.84,-13.67,-13.87,13.87,13.91,18.86,0.22,0.20,0.19
33.55,-13.58,-13.76,-13.60,-13.78,13.78,13.83,18.56,0.20,0.18,0.18
33.89,-13.51,-13.66,-13.54,-13.69,13.69,13.74,18.24,0.19,0.16,0.15
34.23,-13.45,-13.58,-13.48,-13.61,13.61,13.66,17.91,0.16,0.13,0.13
34.57,-13.40,-13.51,-13.41,-13.53,13.53,13.57,17.57,0.13,0.11,0.11
34.92,-13.35,-13.44,-13.35,-13.44,13.44,13.48,17.23,0.09,0.09,0.09
35.27,-13.30,-13.37,-13.29,-13.36,13.36,13.39,16.89,0.06,0.07,0.07
35.62,-13.24,-13.29,-13.22,-13.27,13.27,13.31,16.55,0.03,0.05,0.05
35.97,-13.18,-13.21,-13.15,-13.19,13.19,13.22,16.22,0.01,0.03,0.03
36.33,-13.10,-13.11,-13.09,-13.10,13.10,13.13,15.89,-0.00,0.01,0.01
36.70,-13.04,-13.03,-13.02,-13.00,13.00,13.04,15.58,-0.03,-0.01,-0.01
37.06,-12.96,-12.93,-12.94,-12.91,12.91,12.95,15.27,-0.05,-0.03,-0.03
37.43,-12.87,-12.82,-12.86,-12.81,12.81,12.86,14.97,-0.06,-0.05,-0.05
37.81,-12.79,-12.72,-12.77,-12.70,12.70,12.77,14.68,-0.09,-0.07,-0.07
38.19,-12.69,-12.59,-12.69,-12.59,12.59,12.68,14.39,-0.10,-0.09,-0.10
38.57,-12.61,-12.50,-12.60,-12.48,12.48,12.59,14.12,-0.13,-0.11,-0.11
38.95,-12.51,-12.37,-12.51,-12.37,12.37,12.50,13.86,-0.13,-0.13,-0.14
39.34,-12.41,-12.25,-12.42,-12.26,12.26,12.41,13.61,-0.14,-0.15,-0.16
39.74,-12.32,-12.14,-12.33,-12.16,12.16,12.31,13.37,-0.16,-0.17,-0.18
40.14,-12.23,-12.04,-12.24,-12.05,12.05,12.22,13.13,-0.18,-0.19,-0.19
40.54,-12.14,-11.93,-12.16,-11.95,11.95,12.13,12.91,-0.19,-0.21,-0.21
40.94,-12.05,-11.82,-12.08,-11.85,11.85,12.03,12.69,-0.20,-0.23,-0.23
41.35,-11.98,-11.72,-12.00,-11.76,11.76,11.94,12.48,-0.22,-0.25,-0.26
41.76,-11.91,-11.65,-11.93,-11.66,11.66,11.84,12.29,-0.24,-0.27,-0.26
42.18,-11.86,-11.58,-11.86,-11.57,11.57,11.75,12.10,-0.29,-0.28,-0.28
42.60,-11.80,-11.50,-11.79,-11.48,11.48,11.65,11.91,-0.31,-0.30,-0.30
43.03,-11.74,-11.43,-11.72,-11.40,11.40,11.56,11.74,-0.34,-0.32,-0.31
43.46,-11.67,-11.33,-11.65,-11.31,11.31,11.46,11.57,-0.35,-0.34,-0.34
43.90,-11.61,-11.25,-11.59,-11.23,11.23,11.37,11.41,-0.38,-0.36,-0.36
44.33,-11.54,-11.16,-11.53,-11.16,11.16,11.27,11.26,-0.38,-0.38,-0.38
44.78,-11.49,-11.09,-11.47,-11.08,11.08,11.17,11.11,-0.41,-0.39,-0.40
45.23,-11.41,-10.98,-11.41,-11.00,11.00,11.08,10.97,-0.41,-0.41,-0.43
45.68,-11.34,-10.89,-11.35,-10.92,10.92,10.98,10.84,-0.42,-0.43,-0.45
46.13,-11.27,-10.81,-11.29,-10.83,10.83,10.88,10.72,-0.44,-0.45,-0.46
46.60,-11.21,-10.74,-11.22,-10.75,10.75,10.78,10.60,-0.46,-0.47,-0.47
47.06,-11.16,-10.67,-11.16,-10.67,10.67,10.69,10.48,-0.49,-0.49,-0.49
47.53,-11.12,-10.61,-11.11,-10.59,10.59,10.59,10.37,-0.52,-0.52,-0.51
48.01,-11.08,-10.56,-11.06,-10.52,10.52,10.49,10.27,-0.56,-0.54,-0.52
48.49,-11.02,-10.47,-11.00,-10.44,10.44,10.39,10.17,-0.58,-0.56,-0.55
48.97,-10.94,-10.36,-10.93,-10.35,10.35,10.29,10.08,-0.58,-0.58,-0.58
49.46,-10.86,-10.25,-10.88,-10.28,10.28,10.20,9.99,-0.58,-0.60,-0.61
49.96,-10.80,-10.16,-10.83,-10.21,10.21,10.10,9.91,-0.59,-0.62,-0.64
50.46,-10.76,-10.11,-10.78,-10.14,10.14,10.00,9.83,-0.62,-0.64,-0.65
50.96,-10.75,-10.08,-10.74,-10.07,10.07,9.90,9.75,-0.67,-0.67,-0.67
51.47,-10.73,-10.03,-10.71,-10.02,10.02,9.80,9.68,-0.71,-0.69,-0.70
51.99,-10.67,-9.95,-10.69,-9.98,9.98,9.70,9.61,-0.69,-0.72,-0.72
52.51,-10.57,-9.83,-10.67,-9.93,9.93,9.61,9.54,-0.64,-0.74,-0.74
53.03,-10.47,-9.71,-10.61,-9.84,9.84,9.51,9.48,-0.63,-0.77,-0.76
53.56,-10.43,-9.64,-10.50,-9.71,9.71,9.41,9.41,-0.72,-0.79,-0.79
54.10,-10.47,-9.66,-10.38,-9.57,9.57,9.31,9.35,-0.90,-0.81,-0.81
54.64,-10.52,-9.68,-10.27,-9.44,9.44,9.21,9.29,-1.08,-0.84,-0.84
55.18,-10.44,-9.58,-10.18,-9.32,9.32,9.12,9.23,-1.11,-0.86,-0.86
55.74,-10.29,-9.40,-10.09,-9.21,9.21,9.02,9.17,-1.08,-0.88,-0.89
56.29,-10.20,-9.29,-10.00,-9.10,9.10,8.92,9.11,-1.10,-0.91,-0.91
56.86,-10.10,-9.16,-9.92,-8.99,8.99,8.83,9.05,-1.11,-0.93,-0.94
57.42,-9.78,-8.83,-9.84,-8.88,8.88,8.73,8.99,-0.90,-0.95,-0.96
58.00,-9.27,-8.29,-9.76,-8.78,8.78,8.63,8.93,-0.49,-0.98,-0.98
58.58,-8.92,-7.91,-9.69,-8.69,8.69,8.54,8.86,-0.23,-1.01,-1.01
59.16,-9.16,-8.13,-9.63,-8.60,8.60,8.44,8.79,-0.57,-1.03,-1.03
59.76,-9.70,-8.66,-9.56,-8.50,8.50,8.34,8.72,-1.20,-1.06,-1.05
60.35,-9.94,-8.86,-9.50,-8.42,8.42,8.25,8.64,-1.52,-1.09,-1.08
60.96,-9.76,-8.66,-9.45,-8.34,8.34,8.15,8.56,-1.42,-1.11,-1.10
61.57,-9.55,-8.41,-9.42,-8.28,8.28,8.06,8.48,-1.27,-1.14,-1.14
62.18,-9.47,-8.30,-9.40,-8.23,8.23,7.96,8.39,-1.23,-1.16,-1.17
62.80,-9.43,-8.23,-9.38,-8.19,8.19,7.87,8.30,-1.24,-1.19,-1.20
63.43,-9.37,-8.14,-9.36,-8.15,8.15,7.78,8.21,-1.22,-1.22,-1.23
64.07,-9.31,-8.05,-9.35,-8.11,8.11,7.68,8.11,-1.20,-1.24,-1.26
64.71,-9.26,-7.98,-9.32,-8.05,8.05,7.59,8.00,-1.21,-1.27,-1.28
65.35,-9.19,-7.89,-9.25,-7.95,7.95,7.50,7.90,-1.23,-1.30,-1.30
66.01,-9.12,-7.80,-9.14,-7.82,7.82,7.41,7.79,-1.30,-1.32,-1.32
66.67,-9.05,-7.70,-9.03,-7.68,7.68,7.31,7.67,-1.37,-1.35,-1.35
67.33,-8.98,-7.61,-8.94,-7.57,7.57,7.22,7.55,-1.41,-1.37,-1.37
68.01,-8.91,-7.51,-8.88,-7.48,7.48,7.13,7.43,-1.43,-1.40,-1.40
68.69,-8.82,-7.40,-8.81,-7.39,7.39,7.04,7.31,-1.43,-1.42,-1.42
69.37,-8.73,-7.28,-8.73,-7.29,7.29,6.95,7.18,-1.44,-1.45,-1.45
70.07,-8.63,-7.15,-8.66,-7.18,7.18,6.86,7.06,-1.45,-1.47,-1.48
70.77,-8.55,-7.05,-8.58,-7.07,7.07,6.77,6.93,-1.47,-1.50,-1.50
71.48,-8.47,-6.94,-8.50,-6.97,6.97,6.69,6.80,-1.50,-1.53,-1.53
72.19,-8.42,-6.86,-8.42,-6.86,6.86,6.60,6.66,-1.56,-1.56,-1.56
72.91,-8.36,-6.76,-8.35,-6.75,6.75,6.51,6.53,-1.61,-1.60,-1.60
73.64,-8.30,-6.67,-8.28,-6.65,6.65,6.43,6.40,-1.65,-1.63,-1.63
74.38,-8.22,-6.56,-8.20,-6.54,6.54,6.34,6.27,-1.68,-1.66,-1.66
75.12,-8.13,-6.42,-8.13,-6.44,6.44,6.25,6.14,-1.69,-1.70,-1.71
75.87,-8.06,-6.32,-8.07,-6.33,6.33,6.17,6.01,-1.73,-1.74,-1.74
76.63,-8.00,-6.23,-8.00,-6.23,6.23,6.08,5.88,-1.77,-1.77,-1.77
77.40,-7.94,-6.13,-7.94,-6.13,6.13,6.00,5.75,-1.81,-1.81,-1.81
78.17,-7.88,-6.01,-7.88,-6.02,6.02,5.92,5.62,-1.85,-1.85,-1.87
78.95,-7.82,-5.93,-7.82,-5.92,5.92,5.83,5.50,-1.90,-1.89,-1.89
79.74,-7.77,-5.84,-7.75,-5.82,5.82,5.75,5.37,-1.95,-1.94,-1.93
80.54,-7.71,-5.73,-7.70,-5.72,5.72,5.67,5.25,-1.99,-1.98,-1.98
81.35,-7.63,-5.61,-7.64,-5.62,5.62,5.59,5.13,-2.01,-2.02,-2.02
82.16,-7.58,-5.51,-7.59,-5.52,5.52,5.51,5.01,-2.06,-2.07,-2.07
82.98,-7.54,-5.43,-7.54,-5.43,5.43,5.43,4.90,-2.11,-2.11,-2.11
83.81,-7.49,-5.32,-7.49,-5.33,5.33,5.35,4.79,-2.15,-2.16,-2.17
84.65,-7.45,-5.24,-7.45,-5.24,5.24,5.27,4.67,-2.20,-2.21,-2.21
85.50,-7.40,-5.15,-7.41,-5.15,5.15,5.19,4.57,-2.24,-2.25,-2.25
86.35,-7.36,-5.06,-7.37,-5.07,5.07,5.12,4.46,-2.29,-2.30,-2.30
87.22,-7.33,-4.98,-7.34,-4.99,4.99,5.04,4.36,-2.34,-2.35,-2.35
88.09,-7.30,-4.89,-7.31,-4.90,4.90,4.96,4.26,-2.39,-2.40,-2.41
88.97,-7.28,-4.83,-7.28,-4.83,4.83,4.89,4.16,-2.45,-2.45,-2.45
89.86,-7.25,-4.75,-7.25,-4.75,4.75,4.81,4.06,-2.50,-2.50,-2.50
90.76,-7.23,-4.67,-7.23,-4.68,4.68,4.74,3.97,-2.55,-2.55,-2.56
91.66,-7.21,-4.60,-7.21,-4.60,4.60,4.66,3.87,-2.61,-2.61,-2.61
92.58,-7.19,-4.52,-7.19,-4.53,4.53,4.59,3.79,-2.66,-2.66,-2.67
93.51,-7.17,-4.46,-7.17,-4.45,4.45,4.52,3.70,-2.72,-2.71,-2.71
94.44,-7.14,-4.38,-7.14,-4.37,4.37,4.44,3.61,-2.77,-2.77,-2.76
95.39,-7.12,-4.30,-7.12,-4.29,4.29,4.37,3.53,-2.83,-2.83,-2.82
96.34,-7.10,-4.21,-7.09,-4.21,4.21,4.30,3.45,-2.89,-2.88,-2.89
97.30,-7.08,-4.14,-7.07,-4.13,4.13,4.23,3.37,-2.95,-2.94,-2.94
98.28,-7.05,-4.05,-7.04,-4.04,4.04,4.16,3.30,-3.01,-3.00,-3.00
99.26,-7.02,-3.95,-7.00,-3.94,3.94,4.09,3.22,-3.08,-3.06,-3.07
100.25,-6.98,-3.86,-6.97,-3.84,3.84,4.02,3.15,-3.13,-3.12,-3.12
101.25,-6.93,-3.75,-6.93,-3.75,3.75,3.96,3.08,-3.18,-3.18,-3.18
102.27,-6.89,-3.64,-6.89,-3.64,3.64,3.89,3.01,-3.25,-3.24,-3.25
103.29,-6.84,-3.52,-6.84,-3.54,3.54,3.82,2.94,-3.30,-3.31,-3.32
104.32,-6.80,-3.43,-6.80,-3.43,3.43,3.76,2.88,-3.37,-3.37,-3.37
105.37,-6.75,-3.32,-6.75,-3.32,3.32,3.69,2.82,-3.43,-3.44,-3.43
106.42,-6.71,-3.21,-6.71,-3.20,3.20,3.63,2.75,-3.50,-3.50,-3.50
107.48,-6.66,-3.09,-6.66,-3.09,3.09,3.56,2.70,-3.57,-3.57,-3.57
108.56,-6.61,-2.97,-6.61,-2.98,2.98,3.50,2.64,-3.63,-3.63,-3.64
109.64,-6.56,-2.86,-6.56,-2.86,2.86,3.43,2.58,-3.70,-3.70,-3.70
110.74,-6.52,-2.76,-6.52,-2.75,2.75,3.37,2.53,-3.77,-3.77,-3.76
111.85,-6.48,-2.65,-6.48,-2.64,2.64,3.31,2.47,-3.84,-3.84,-3.83
112.97,-6.44,-2.53,-6.44,-2.53,2.53,3.25,2.42,-3.90,-3.90,-3.91
114.10,-6.41,-2.44,-6.40,-2.43,2.43,3.19,2.37,-3.98,-3.97,-3.97
115.24,-6.36,-2.32,-6.37,-2.33,2.33,3.13,2.33,-4.03,-4.04,-4.04
116.39,-6.33,-2.22,-6.34,-2.24,2.24,3.07,2.28,-4.09,-4.10,-4.11
117.55,-6.30,-2.12,-6.32,-2.15,2.15,3.01,2.23,-4.15,-4.17,-4.18
118.73,-6.28,-2.04,-6.29,-2.06,2.06,2.95,2.19,-4.22,-4.23,-4.24
119.92,-6.27,-1.97,-6.28,-1.98,1.98,2.89,2.15,-4.29,-4.30,-4.30
121.12,-6.26,-1.90,-6.26,-1.90,1.90,2.83,2.11,-4.35,-4.36,-4.36
122.33,-6.26,-1.83,-6.25,-1.83,1.83,2.78,2.07,-4.43,-4.42,-4.43
123.55,-6.25,-1.77,-6.25,-1.76,1.76,2.72,2.03,-4.49,-4.48,-4.48
124.79,-6.25,-1.71,-6.24,-1.70,1.70,2.66,1.99,-4.55,-4.54,-4.54
126.03,-6.25,-1.66,-6.24,-1.64,1.64,2.61,1.95,-4.61,-4.60,-4.59
127.29,-6.25,-1.60,-6.24,-1.59,1.59,2.55,1.92,-4.66,-4.66,-4.65
128.57,-6.26,-1.54,-6.25,-1.54,1.54,2.50,1.88,-4.72,-4.71,-4.72
129.85,-6.25,-1.48,-6.25,-1.49,1.49,2.45,1.85,-4.76,-4.77,-4.77
131.15,-6.26,-1.44,-6.26,-1.44,1.44,2.39,1.82,-4.82,-4.82,-4.82
132.46,-6.27,-1.39,-6.27,-1.40,1.40,2.34,1.79,-4.87,-4.87,-4.88
133.79,-6.28,-1.36,-6.28,-1.36,1.36,2.29,1.76,-4.92,-4.92,-4.92
135.12,-6.29,-1.31,-6.28,-1.32,1.32,2.24,1.73,-4.97,-4.96,-4.98
136.48,-6.31,-1.30,-6.30,-1.29,1.29,2.19,1.71,-5.02,-5.01,-5.01
137.84,-6.32,-1.27,-6.31,-1.26,1.26,2.13,1.68,-5.06,-5.05,-5.05
139.22,-6.33,-1.23,-6.33,-1.24,1.24,2.08,1.66,-5.09,-5.09,-5.10
140.61,-6.35,-1.21,-6.35,-1.22,1.22,2.03,1.63,-5.13,-5.13,-5.14
142.02,-6.36,-1.20,-6.37,-1.21,1.21,1.99,1.61,-5.15,-5.16,-5.16
143.44,-6.38,-1.19,-6.39,-1.20,1.20,1.94,1.59,-5.18,-5.19,-5.19
144.87,-6.41,-1.18,-6.42,-1.19,1.19,1.89,1.57,-5.21,-5.23,-5.23
146.32,-6.44,-1.18,-6.45,-1.20,1.20,1.84,1.55,-5.24,-5.26,-5.26
147.78,-6.49,-1.21,-6.48,-1.20,1.20,1.79,1.53,-5.29,-5.29,-5.28
149.26,-6.52,-1.21,-6.52,-1.21,1.21,1.75,1.51,-5.31,-5.31,-5.31
150.75,-6.57,-1.22,-6.56,-1.22,1.22,1.70,1.50,-5.35,-5.34,-5.35
152.26,-6.60,-1.23,-6.60,-1.23,1.23,1.66,1.48,-5.37,-5.37,-5.37
153.78,-6.65,-1.25,-6.65,-1.25,1.25,1.61,1.47,-5.40,-5.40,-5.40
155.32,-6.69,-1.27,-6.70,-1.27,1.27,1.57,1.45,-5.42,-5.42,-5.42
156.88,-6.74,-1.29,-6.75,-1.30,1.30,1.52,1.44,-5.44,-5.45,-5.45
158.44,-6.80,-1.32,-6.80,-1.32,1.32,1.48,1.43,-5.48,-5.48,-5.48
160.03,-6.84,-1.33,-6.85,-1.35,1.35,1.44,1.42,-5.49,-5.51,-5.51
161.63,-6.90,-1.36,-6.90,-1.37,1.37,1.40,1.41,-5.53,-5.53,-5.54
163.24,-6.94,-1.37,-6.95,-1.39,1.39,1.35,1.40,-5.55,-5.56,-5.57
164.88,-7.00,-1.41,-7.00,-1.41,1.41,1.31,1.39,-5.59,-5.59,-5.59
166.53,-7.05,-1.44,-7.05,-1.43,1.43,1.27,1.39,-5.62,-5.62,-5.61
168.19,-7.10,-1.45,-7.09,-1.44,1.44,1.23,1.38,-5.66,-5.65,-5.65
169.87,-7.14,-1.46,-7.12,-1.45,1.45,1.19,1.37,-5.69,-5.68,-5.68
171.57,-7.17,-1.46,-7.15,-1.44,1.44,1.16,1.37,-5.72,-5.71,-5.71
173.29,-7.20,-1.47,-7.18,-1.44,1.44,1.12,1.37,-5.76,-5.74,-5.73
175.02,-7.21,-1.44,-7.20,-1.42,1.42,1.08,1.36,-5.79,-5.78,-5.77
176.77,-7.22,-1.41,-7.21,-1.40,1.40,1.04,1.36,-5.82,-5.81,-5.81
178.54,-7.23,-1.38,-7.22,-1.37,1.37,1.01,1.36,-5.86,-5.84,-5.85
180.32,-7.22,-1.34,-7.21,-1.34,1.34,0.97,1.36,-5.88,-5.88,-5.88
182.13,-7.21,-1.30,-7.21,-1.29,1.29,0.94,1.36,-5.91,-5.91,-5.91
183.95,-7.19,-1.24,-7.19,-1.25,1.25,0.91,1.37,-5.94,-5.95,-5.95
185.79,-7.17,-1.18,-7.18,-1.19,1.19,0.87,1.37,-5.98,-5.98,-5.99
187.65,-7.15,-1.12,-7.15,-1.14,1.14,0.84,1.37,-6.01,-6.02,-6.03
189.52,-7.13,-1.07,-7.13,-1.08,1.08,0.81,1.38,-6.05,-6.05,-6.06
191.42,-7.10,-1.02,-7.10,-1.02,1.02,0.78,1.38,-6.08,-6.08,-6.08
193.33,-7.07,-0.97,-7.07,-0.96,0.96,0.75,1.39,-6.11,-6.11,-6.10
195.27,-7.04,-0.91,-7.03,-0.89,0.89,0.72,1.39,-6.15,-6.14,-6.13
197.22,-7.00,-0.84,-6.99,-0.83,0.83,0.70,1.40,-6.17,-6.16,-6.16
199.19,-6.96,-0.75,-6.96,-0.77,0.77,0.67,1.40,-6.19,-6.19,-6.21
201.18,-6.92,-0.70,-6.92,-0.70,0.70,0.65,1.41,-6.21,-6.21,-6.22
203.19,-6.89,-0.65,-6.88,-0.64,0.64,0.62,1.42,-6.25,-6.24,-6.24
205.23,-6.85,-0.59,-6.84,-0.58,0.58,0.60,1.42,-6.26,-6.26,-6.26
207.28,-6.81,-0.54,-6.81,-0.53,0.53,0.58,1.43,-6.28,-6.28,-6.27
209.35,-6.78,-0.48,-6.78,-0.48,0.48,0.57,1.44,-6.30,-6.30,-6.30
211.44,-6.74,-0.42,-6.75,-0.43,0.43,0.55,1.44,-6.31,-6.32,-6.32
213.56,-6.72,-0.38,-6.72,-0.39,0.39,0.54,1.45,-6.33,-6.33,-6.34
215.69,-6.69,-0.35,-6.70,-0.36,0.36,0.53,1.45,-6.33,-6.35,-6.34
217.85,-6.68,-0.33,-6.69,-0.33,0.33,0.52,1.46,-6.35,-6.36,-6.35
220.03,-6.67,-0.29,-6.68,-0.31,0.31,0.52,1.46,-6.36,-6.37,-6.38
222.23,-6.66,-0.27,-6.67,-0.30,0.30,0.51,1.46,-6.36,-6.37,-6.39
224.45,-6.67,-0.29,-6.67,-0.29,0.29,0.51,1.46,-6.37,-6.38,-6.38
226.70,-6.69,-0.30,-6.68,-0.30,0.30,0.52,1.46,-6.39,-6.38,-6.39
228.96,-6.71,-0.32,-6.69,-0.31,0.31,0.53,1.46,-6.40,-6.38,-6.39
231.25,-6.74,-0.36,-6.71,-0.33,0.33,0.55,1.45,-6.41,-6.38,-6.38
233.57,-6.77,-0.40,-6.74,-0.37,0.37,0.57,1.45,-6.40,-6.38,-6.37
235.90,-6.80,-0.43,-6.78,-0.41,0.41,0.59,1.44,-6.39,-6.37,-6.37
238.26,-6.83,-0.46,-6.83,-0.47,0.47,0.62,1.42,-6.35,-6.36,-6.37
240.64,-6.88,-0.53,-6.89,-0.55,0.55,0.66,1.41,-6.33,-6.34,-6.35
243.05,-6.93,-0.60,-6.97,-0.64,0.64,0.71,1.39,-6.29,-6.33,-6.33
245.48,-7.01,-0.70,-7.06,-0.75,0.75,0.77,1.37,-6.26,-6.31,-6.31
247.93,-7.10,-0.80,-7.16,-0.87,0.87,0.83,1.35,-6.23,-6.30,-6.30
250.41,-7.20,-0.91,-7.28,-1.00,1.00,0.91,1.33,-6.20,-6.28,-6.29
252.92,-7.33,-1.08,-7.40,-1.15,1.15,1.00,1.30,-6.18,-6.26,-6.25
255.45,-7.49,-1.26,-7.54,-1.30,1.30,1.10,1.27,-6.19,-6.23,-6.23
258.00,-7.64,-1.43,-7.68,-1.46,1.46,1.21,1.23,-6.18,-6.21,-6.21
260.58,-7.79,-1.60,-7.81,-1.62,1.62,1.33,1.19,-6.16,-6.19,-6.19
263.19,-7.95,-1.78,-7.95,-1.78,1.78,1.46,1.15,-6.17,-6.17,-6.17
265.82,-8.09,-1.94,-8.07,-1.92,1.92,1.60,1.11,-6.17,-6.14,-6.15
268.48,-8.21,-2.09,-8.17,-2.05,2.05,1.75,1.07,-6.16,-6.12,-6.12
271.16,-8.31,-2.22,-8.24,-2.15,2.15,1.89,1.02,-6.16,-6.09,-6.09
273.87,-8.38,-2.31,-8.29,-2.22,2.22,2.03,0.97,-6.16,-6.07,-6.07
276.61,-8.41,-2.37,-8.31,-2.27,2.27,2.16,0.92,-6.14,-6.05,-6.04
279.38,-8.39,-2.37,-8.30,-2.27,2.27,2.26,0.86,-6.11,-6.02,-6.02
282.17,-8.34,-2.34,-8.25,-2.25,2.25,2.33,0.81,-6.09,-6.00,-6.00
284.99,-8.24,-2.27,-8.16,-2.19,2.19,2.36,0.75,-6.05,-5.97,-5.97
287.84,-8.10,-2.15,-8.05,-2.11,2.11,2.34,0.69,-5.99,-5.94,-5.95
290.72,-7.93,-2.02,-7.90,-1.99,1.99,2.28,0.63,-5.94,-5.91,-5.91
293.63,-7.74,-1.85,-7.74,-1.85,1.85,2.17,0.56,-5.89,-5.88,-5.89
296.57,-7.54,-1.68,-7.55,-1.70,1.70,2.02,0.50,-5.84,-5.85,-5.86
299.53,-7.33,-1.50,-7.35,-1.53,1.53,1.84,0.43,-5.80,-5.82,-5.83
302.53,-7.12,-1.31,-7.15,-1.35,1.35,1.64,0.36,-5.76,-5.79,-5.81
305.55,-6.91,-1.15,-6.94,-1.18,1.18,1.42,0.30,-5.72,-5.76,-5.76
308.61,-6.69,-0.96,-6.75,-1.02,1.02,1.20,0.23,-5.67,-5.73,-5.73
311.69,-6.49,-0.80,-6.55,-0.86,0.86,0.99,0.16,-5.63,-5.70,-5.69
314.81,-6.30,-0.64,-6.37,-0.70,0.70,0.78,0.08,-5.59,-5.66,-5.66
317.96,-6.13,-0.50,-6.19,-0.56,0.56,0.57,0.01,-5.57,-5.63,-5.63
321.14,-5.96,-0.36,-6.02,-0.42,0.42,0.38,-0.06,-5.54,-5.60,-5.60
324.35,-5.83,-0.25,-5.86,-0.29,0.29,0.20,-0.13,-5.54,-5.57,-5.58
327.59,-5.72,-0.18,-5.71,-0.17,0.17,0.03,-0.21,-5.55,-5.54,-5.54
330.87,-5.62,-0.11,-5.57,-0.05,0.05,-0.12,-0.28,-5.56,-5.52,-5.51
334.18,-5.52,-0.03,-5.43,0.05,-0.05,-0.27,-0.36,-5.57,-5.49,-5.49
337.52,-5.38,0.09,-5.31,0.15,-0.15,-0.41,-0.43,-5.53,-5.46,-5.47
340.90,-5.22,0.22,-5.19,0.25,-0.25,-0.53,-0.51,-5.47,-5.44,-5.44
344.30,-5.07,0.35,-5.08,0.33,-0.33,-0.65,-0.59,-5.40,-5.42,-5.42
347.75,-4.93,0.46,-4.98,0.42,-0.42,-0.76,-0.67,-5.35,-5.40,-5.39
351.23,-4.80,0.57,-4.87,0.50,-0.50,-0.87,-0.75,-5.30,-5.38,-5.37
354.74,-4.70,0.66,-4.76,0.59,-0.59,-0.96,-0.82,-5.29,-5.36,-5.36
358.28,-4.62,0.72,-4.65,0.68,-0.68,-1.06,-0.90,-5.30,-5.34,-5.34
361.87,-4.54,0.78,-4.54,0.77,-0.77,-1.14,-0.99,-5.31,-5.32,-5.32
365.49,-4.47,0.82,-4.43,0.87,-0.87,-1.22,-1.07,-5.33,-5.30,-5.29
369.14,-4.39,0.89,-4.32,0.96,-0.96,-1.30,-1.15,-5.35,-5.28,-5.28
372.83,-4.30,0.97,-4.21,1.05,-1.05,-1.38,-1.23,-5.34,-5.26,-5.27
376.56,-4.17,1.08,-4.11,1.13,-1.13,-1.45,-1.31,-5.30,-5.24,-5.25
380.33,-4.04,1.18,-4.01,1.21,-1.21,-1.51,-1.40,-5.25,-5.22,-5.22
384.13,-3.89,1.31,-3.90,1.30,-1.30,-1.58,-1.48,-5.18,-5.20,-5.20
387.97,-3.76,1.42,-3.80,1.38,-1.38,-1.64,-1.57,-5.14,-5.18,-5.18
391.85,-3.65,1.51,-3.70,1.46,-1.46,-1.70,-1.65,-5.11,-5.16,-5.16
395.77,-3.54,1.59,-3.59,1.55,-1.55,-1.76,-1.74,-5.09,-5.14,-5.13
399.73,-3.44,1.67,-3.48,1.63,-1.63,-1.81,-1.82,-5.07,-5.12,-5.11
403.72,-3.35,1.75,-3.38,1.72,-1.72,-1.87,-1.91,-5.07,-5.09,-5.10
407.76,-3.28,1.80,-3.27,1.80,-1.80,-1.92,-1.99,-5.08,-5.07,-5.08
