frequency,raw,error,smoothed,error_smoothed,equalization,parametric_eq,fixed_band_eq,equalized_raw,equalized_smoothed,target
20.00,23.71,7.18,23.71,7.18,-7.18,-6.49,-2.86,16.53,16.53,16.53
20.20,23.69,7.17,23.69,7.17,-7.17,-6.47,-2.94,16.52,16.52,16.52
20.40,23.67,7.16,23.67,7.16,-7.16,-6.46,-3.02,16.51,16.51,16.51
20.61,23.65,7.15,23.65,7.15,-7.15,-6.44,-3.10,16.50,16.49,16.50
20.81,23.63,7.15,23.63,7.14,-7.14,-6.43,-3.19,16.49,16.48,16.48
21.02,23.61,7.14,23.60,7.13,-7.13,-6.41,-3.28,16.48,16.47,16.47
21.23,23.58,7.12,23.58,7.12,-7.12,-6.39,-3.37,16.46,16.46,16.46
21.44,23.56,7.09,23.56,7.11,-7.11,-6.36,-3.47,16.45,16.45,16.46
21.66,23.54,7.09,23.54,7.09,-7.09,-6.34,-3.56,16.44,16.44,16.44
21.87,23.51,7.07,23.51,7.08,-7.08,-6.32,-3.66,16.43,16.43,16.44
22.09,23.49,7.07,23.49,7.07,-7.07,-6.30,-3.77,16.42,16.43,16.42
22.31,23.47,7.05,23.47,7.05,-7.05,-6.27,-3.87,16.42,16.42,16.42
22.54,23.45,7.04,23.44,7.03,-7.03,-6.25,-3.98,16.42,16.41,16.41
22.76,23.42,7.01,23.42,7.01,-7.01,-6.23,-4.09,16.40,16.41,16.41
22.99,23.40,7.00,23.40,7.00,-7.00,-6.21,-4.20,16.40,16.40,16.40
23.22,23.38,6.99,23.37,6.98,-6.98,-6.19,-4.32,16.40,16.40,16.39
23.45,23.35,6.95,23.35,6.96,-6.96,-6.17,-4.44,16.39,16.39,16.39
23.69,23.32,6.94,23.32,6.94,-6.94,-6.15,-4.56,16.38,16.38,16.38
23.92,23.30,6.93,23.30,6.92,-6.92,-6.13,-4.68,16.38,16.38,16.37
24.16,23.27,6.89,23.27,6.90,-6.90,-6.11,-4.81,16.37,16.38,16.38
24.40,23.25,6.87,23.25,6.87,-6.87,-6.10,-4.94,16.37,16.37,16.38
24.65,23.22,6.84,23.22,6.85,-6.85,-6.08,-5.07,16.37,16.37,16.38
24.89,23.20,6.82,23.20,6.83,-6.83,-6.07,-5.20,16.37,16.37,16.38
25.14,23.17,6.80,23.17,6.80,-6.80,-6.05,-5.33,16.37,16.37,16.36
25.39,23.15,6.79,23.14,6.78,-6.78,-6.04,-5.47,16.37,16.37,16.36
25.65,23.12,6.76,23.11,6.75,-6.75,-6.03,-5.60,16.37,16.36,16.36
25.91,23.09,6.73,23.09,6.72,-6.72,-6.02,-5.74,16.37,16.36,16.36
26.16,23.06,6.69,23.06,6.70,-6.70,-6.01,-5.87,16.36,16.36,16.37
26.43,23.03,6.66,23.03,6.67,-6.67,-6.00,-6.00,16.36,16.36,16.36
26.69,23.00,6.64,23.00,6.64,-6.64,-5.99,-6.14,16.36,16.36,16.36
26.96,22.97,6.61,22.97,6.61,-6.61,-5.98,-6.27,16.36,16.36,16.36
27.23,22.94,6.58,22.94,6.58,-6.58,-5.97,-6.40,16.36,16.36,16.36
27.50,22.91,6.55,22.91,6.55,-6.55,-5.96,-6.53,16.36,16.36,16.36
27.77,22.88,6.52,22.88,6.52,-6.52,-5.96,-6.65,16.36,16.36,16.36
28.05,22.85,6.49,22.85,6.49,-6.49,-5.95,-6.77,16.36,16.36,16.36
28.33,22.82,6.45,22.82,6.45,-6.45,-5.94,-6.88,16.36,16.36,16.37
28.62,22.79,6.42,22.79,6.42,-6.42,-5.94,-6.99,16.37,16.36,16.36
28.90,22.76,6.39,22.76,6.39,-6.39,-5.93,-7.09,16.37,16.36,16.37
29.19,22.73,6.36,22.72,6.36,-6.36,-5.93,-7.18,16.37,16.36,16.37
29.48,22.70,6.33,22.69,6.33,-6.33,-5.92,-7.26,16.37,16.36,16.36
29.78,22.66,6.30,22.66,6.30,-6.30,-5.92,-7.33,16.36,16.36,16.36
30.08,22.63,6.27,22.63,6.27,-6.27,-5.91,-7.40,16.36,16.35,16.36
30.38,22.59,6.24,22.59,6.24,-6.24,-5.91,-7.45,16.35,16.35,16.34
30.68,22.56,6.22,22.56,6.21,-6.21,-5.90,-7.50,16.34,16.34,16.34
30.99,22.52,6.18,22.52,6.19,-6.19,-5.90,-7.53,16.33,16.34,16.34
31.30,22.49,6.16,22.49,6.16,-6.16,-5.90,-7.55,16.33,16.33,16.33
31.61,22.45,6.12,22.45,6.13,-6.13,-5.89,-7.56,16.32,16.32,16.33
31.93,22.42,6.11,22.42,6.10,-6.10,-5.89,-7.56,16.32,16.32,16.30
32.24,22.38,6.07,22.38,6.07,-6.07,-5.89,-7.55,16.31,16.31,16.31
32.57,22.35,6.05,22.34,6.04,-6.04,-5.88,-7.53,16.31,16.30,16.30
32.89,22.31,6.02,22.30,6.01,-6.01,-5.88,-7.49,16.30,16.29,16.29
33.22,22.27,5.98,22.27,5.98,-5.98,-5.88,-7.45,16.29,16.28,16.28
33.55,22.23,5.95,22.23,5.95,-5.95,-5.87,-7.40,16.27,16.28,16.28
33.89,22.19,5.92,22.19,5.92,-5.92,-5.87,-7.35,16.26,16.27,16.26
34.23,22.15,5.90,22.15,5.89,-5.89,-5.87,-7.28,16.26,16.26,16.25
34.57,22.11,5.87,22.11,5.86,-5.86,-5.87,-7.21,16.24,16.25,16.24
34.92,22.07,5.84,22.07,5.84,-5.84,-5.86,-7.13,16.23,16.24,16.23
35.27,22.03,5.79,22.03,5.81,-5.81,-5.86,-7.05,16.22,16.22,16.24
35.62,21.99,5.78,21.99,5.78,-5.78,-5.86,-6.97,16.21,16.21,16.21
35.97,21.95,5.74,21.95,5.75,-5.75,-5.86,-6.88,16.20,16.20,16.21
36.33,21.91,5.72,21.90,5.72,-5.72,-5.85,-6.79,16.18,16.18,16.19
36.70,21.87,5.71,21.86,5.70,-5.70,-5.85,-6.70,16.17,16.16,16.16
37.06,21.82,5.67,21.82,5.67,-5.67,-5.85,-6.61,16.14,16.14,16.14
37.43,21.78,5.65,21.78,5.65,-5.65,-5.85,-6.52,16.13,16.13,16.13
37.81,21.73,5.62,21.73,5.63,-5.63,-5.85,-6.43,16.10,16.10,16.11
38.19,21.69,5.61,21.69,5.61,-5.61,-5.84,-6.34,16.08,16.08,16.08
38.57,21.65,5.59,21.65,5.59,-5.59,-5.84,-6.25,16.06,16.06,16.06
38.95,21.60,5.56,21.60,5.57,-5.57,-5.84,-6.17,16.03,16.04,16.04
39.34,21.56,5.55,21.56,5.55,-5.55,-5.84,-6.08,16.01,16.01,16.01
39.74,21.52,5.54,21.51,5.53,-5.53,-5.83,-6.00,15.99,15.99,15.98
40.14,21.47,5.51,21.47,5.51,-5.51,-5.83,-5.92,15.96,15.96,15.96
40.54,21.43,5.49,21.43,5.49,-5.49,-5.83,-5.85,15.94,15.94,15.94
40.94,21.39,5.48,21.38,5.47,-5.47,-5.83,-5.77,15.92,15.91,15.91
41.35,21.34,5.45,21.34,5.45,-5.45,-5.83,-5.71,15.89,15.89,15.89
41.76,21.30,5.44,21.30,5.43,-5.43,-5.82,-5.64,15.86,15.86,15.85
42.18,21.25,5.41,21.25,5.42,-5.42,-5.82,-5.58,15.83,15.84,15.84
42.60,21.21,5.40,21.21,5.40,-5.40,-5.82,-5.52,15.81,15.81,15.81
43.03,21.17,5.38,21.17,5.39,-5.39,-5.82,-5.47,15.78,15.78,15.78
43.46,21.12,5.37,21.12,5.37,-5.37,-5.82,-5.42,15.75,15.75,15.75
43.90,21.08,5.35,21.08,5.35,-5.35,-5.81,-5.37,15.72,15.73,15.73
44.33,21.04,5.35,21.04,5.34,-5.34,-5.81,-5.33,15.70,15.69,15.69
44.78,20.99,5.32,20.99,5.33,-5.33,-5.81,-5.29,15.66,15.66,15.67
45.23,20.95,5.31,20.95,5.32,-5.32,-5.81,-5.26,15.63,15.63,15.64
45.68,20.91,5.32,20.90,5.31,-5.31,-5.81,-5.23,15.60,15.59,15.59
46.13,20.87,5.31,20.86,5.30,-5.30,-5.80,-5.20,15.56,15.55,15.56
46.60,20.81,5.29,20.81,5.30,-5.30,-5.80,-5.18,15.51,15.51,15.52
47.06,20.76,5.28,20.76,5.29,-5.29,-5.80,-5.16,15.47,15.47,15.48
47.53,20.71,5.27,20.71,5.28,-5.28,-5.80,-5.14,15.42,15.43,15.44
48.01,20.66,5.28,20.66,5.28,-5.28,-5.79,-5.13,15.38,15.38,15.38
48.49,20.62,5.28,20.61,5.28,-5.28,-5.79,-5.12,15.34,15.34,15.34
48.97,20.57,5.28,20.56,5.27,-5.27,-5.79,-5.12,15.30,15.29,15.29
49.46,20.52,5.27,20.51,5.27,-5.27,-5.79,-5.12,15.25,15.25,15.25
49.96,20.46,5.28,20.46,5.26,-5.26,-5.78,-5.12,15.20,15.20,15.18
50.46,20.41,5.26,20.41,5.26,-5.26,-5.78,-5.12,15.15,15.15,15.15
50.96,20.35,5.24,20.36,5.25,-5.25,-5.78,-5.13,15.10,15.11,15.10
51.47,20.30,5.24,20.30,5.24,-5.24,-5.78,-5.14,15.05,15.06,15.06
51.99,20.25,5.24,20.25,5.24,-5.24,-5.77,-5.15,15.01,15.01,15.00
52.51,20.20,5.23,20.20,5.23,-5.23,-5.77,-5.16,14.96,14.96,14.97
53.03,20.16,5.23,20.15,5.23,-5.23,-5.77,-5.18,14.93,14.92,14.93
53.56,20.09,5.21,20.09,5.22,-5.22,-5.77,-5.19,14.87,14.87,14.88
54.10,20.03,5.21,20.04,5.21,-5.21,-5.76,-5.21,14.82,14.83,14.82
54.64,19.98,5.20,19.98,5.20,-5.20,-5.76,-5.22,14.78,14.78,14.78
55.18,19.93,5.20,19.93,5.19,-5.19,-5.76,-5.24,14.74,14.74,14.73
55.74,19.88,5.20,19.88,5.18,-5.18,-5.75,-5.26,14.70,14.69,14.68
56.29,19.83,5.19,19.82,5.17,-5.17,-5.75,-5.27,14.66,14.65,14.64
56.86,19.77,5.17,19.76,5.16,-5.16,-5.75,-5.29,14.61,14.60,14.60
57.42,19.71,5.17,19.71,5.16,-5.16,-5.74,-5.30,14.55,14.55,14.54
58.00,19.65,5.15,19.65,5.15,-5.15,-5.74,-5.31,14.50,14.50,14.50
58.58,19.60,5.14,19.59,5.14,-5.14,-5.74,-5.32,14.46,14.45,14.46
59.16,19.54,5.12,19.54,5.14,-5.14,-5.73,-5.33,14.40,14.40,14.42
59.76,19.48,5.11,19.48,5.14,-5.14,-5.73,-5.34,14.34,14.35,14.37
60.35,19.42,5.11,19.42,5.13,-5.13,-5.73,-5.34,14.28,14.29,14.31
60.96,19.36,5.11,19.37,5.13,-5.13,-5.72,-5.34,14.23,14.23,14.25
61.57,19.31,5.14,19.31,5.13,-5.13,-5.72,-5.34,14.17,14.18,14.17
62.18,19.25,5.14,19.25,5.14,-5.14,-5.72,-5.33,14.11,14.12,14.11
62.80,19.20,5.16,19.19,5.14,-5.14,-5.71,-5.32,14.06,14.05,14.04
63.43,19.14,5.16,19.14,5.14,-5.14,-5.71,-5.30,13.99,13.99,13.98
64.07,19.07,5.15,19.08,5.15,-5.15,-5.70,-5.29,13.92,13.93,13.92
64.71,19.02,5.16,19.01,5.15,-5.15,-5.70,-5.27,13.87,13.87,13.86
65.35,18.96,5.16,18.95,5.15,-5.15,-5.70,-5.24,13.81,13.80,13.80
66.01,18.90,5.16,18.89,5.15,-5.15,-5.69,-5.22,13.75,13.74,13.74
66.67,18.83,5.15,18.83,5.15,-5.15,-5.69,-5.19,13.68,13.67,13.68
67.33,18.77,5.16,18.76,5.15,-5.15,-5.68,-5.16,13.62,13.61,13.61
68.01,18.70,5.15,18.70,5.15,-5.15,-5.68,-5.12,13.55,13.55,13.55
68.69,18.63,5.14,18.63,5.15,-5.15,-5.68,-5.09,13.48,13.48,13.48
69.37,18.56,5.13,18.56,5.15,-5.15,-5.67,-5.05,13.41,13.42,13.43
70.07,18.49,5.13,18.49,5.14,-5.14,-5.67,-5.01,13.35,13.35,13.36
70.77,18.42,5.13,18.43,5.14,-5.14,-5.66,-4.97,13.28,13.28,13.29
71.48,18.36,5.14,18.36,5.14,-5.14,-5.66,-4.93,13.22,13.22,13.22
72.19,18.29,5.14,18.29,5.14,-5.14,-5.65,-4.89,13.15,13.15,13.15
72.91,18.22,5.14,18.22,5.14,-5.14,-5.65,-4.86,13.08,13.08,13.07
73.64,18.15,5.14,18.15,5.14,-5.14,-5.64,-4.82,13.01,13.02,13.01
74.38,18.09,5.15,18.08,5.13,-5.13,-5.64,-4.78,12.95,12.95,12.94
75.12,18.02,5.14,18.02,5.13,-5.13,-5.63,-4.74,12.89,12.88,12.88
75.87,17.95,5.13,17.95,5.13,-5.13,-5.62,-4.71,12.82,12.82,12.82
76.63,17.88,5.13,17.88,5.13,-5.13,-5.62,-4.67,12.75,12.76,12.75
77.40,17.81,5.11,17.82,5.12,-5.12,-5.61,-4.64,12.68,12.69,12.70
78.17,17.76,5.14,17.75,5.12,-5.12,-5.61,-4.61,12.64,12.63,12.62
78.95,17.69,5.11,17.69,5.12,-5.12,-5.60,-4.58,12.57,12.57,12.58
79.74,17.62,5.11,17.62,5.11,-5.11,-5.60,-4.56,12.51,12.51,12.51
80.54,17.56,5.10,17.56,5.11,-5.11,-5.59,-4.54,12.45,12.45,12.45
81.35,17.49,5.10,17.49,5.10,-5.10,-5.58,-4.52,12.39,12.39,12.39
82.16,17.43,5.09,17.42,5.10,-5.10,-5.58,-4.50,12.33,12.33,12.34
82.98,17.36,5.09,17.36,5.09,-5.09,-5.57,-4.49,12.26,12.26,12.26
83.81,17.29,5.09,17.29,5.09,-5.09,-5.56,-4.48,12.20,12.20,12.20
84.65,17.22,5.09,17.22,5.09,-5.09,-5.56,-4.47,12.13,12.13,12.13
85.50,17.16,5.09,17.15,5.08,-5.08,-5.55,-4.46,12.08,12.07,12.07
86.35,17.09,5.09,17.08,5.08,-5.08,-5.54,-4.46,12.01,12.00,12.00
87.22,17.01,5.07,17.01,5.07,-5.07,-5.54,-4.47,11.94,11.94,11.93
88.09,16.93,5.06,16.94,5.07,-5.07,-5.53,-4.47,11.86,11.87,11.87
88.97,16.86,5.06,16.87,5.06,-5.06,-5.52,-4.48,11.79,11.80,11.80
89.86,16.80,5.07,16.79,5.06,-5.06,-5.51,-4.49,11.74,11.73,11.73
90.76,16.72,5.06,16.72,5.06,-5.06,-5.51,-4.51,11.66,11.66,11.66
91.66,16.65,5.07,16.64,5.06,-5.06,-5.50,-4.53,11.59,11.59,11.58
92.58,16.57,5.05,16.57,5.05,-5.05,-5.49,-4.55,11.52,11.52,11.52
93.51,16.50,5.05,16.49,5.05,-5.05,-5.48,-4.58,11.45,11.44,11.45
94.44,16.42,5.04,16.42,5.05,-5.05,-5.47,-4.61,11.37,11.37,11.38
95.39,16.35,5.05,16.34,5.05,-5.05,-5.46,-4.64,11.30,11.30,11.30
96.34,16.27,5.05,16.27,5.05,-5.05,-5.46,-4.67,11.22,11.22,11.22
97.30,16.20,5.05,16.20,5.05,-5.05,-5.45,-4.71,11.14,11.15,11.15
98.28,16.13,5.06,16.13,5.06,-5.06,-5.44,-4.75,11.07,11.07,11.07
99.26,16.05,5.06,16.07,5.06,-5.06,-5.43,-4.79,10.98,11.00,10.99
100.25,15.99,5.07,16.00,5.07,-5.07,-5.42,-4.84,10.92,10.93,10.92
101.25,15.92,5.07,15.94,5.08,-5.08,-5.41,-4.88,10.84,10.86,10.85
102.27,15.85,5.06,15.87,5.09,-5.09,-5.40,-4.93,10.76,10.79,10.79
103.29,15.81,5.10,15.81,5.09,-5.09,-5.39,-4.98,10.72,10.72,10.71
104.32,15.76,5.11,15.74,5.09,-5.09,-5.38,-5.03,10.66,10.65,10.65
105.37,15.70,5.12,15.68,5.10,-5.10,-5.37,-5.08,10.60,10.58,10.58
106.42,15.63,5.11,15.61,5.10,-5.10,-5.36,-5.13,10.53,10.51,10.51
107.48,15.56,5.12,15.55,5.11,-5.11,-5.35,-5.19,10.45,10.44,10.44
108.56,15.49,5.11,15.48,5.11,-5.11,-5.34,-5.24,10.38,10.37,10.37
109.64,15.42,5.11,15.41,5.11,-5.11,-5.33,-5.29,10.30,10.30,10.31
110.74,15.36,5.12,15.34,5.12,-5.12,-5.31,-5.34,10.24,10.23,10.23
111.85,15.27,5.11,15.28,5.12,-5.12,-5.30,-5.38,10.15,10.16,10.16
112.97,15.19,5.09,15.21,5.12,-5.12,-5.29,-5.43,10.07,10.09,10.09
114.10,15.11,5.09,15.14,5.12,-5.12,-5.28,-5.47,9.99,10.01,10.02
115.24,15.05,5.11,15.06,5.12,-5.12,-5.27,-5.51,9.93,9.94,9.94
116.39,15.00,5.13,14.99,5.12,-5.12,-5.25,-5.54,9.88,9.87,9.86
117.55,14.94,5.15,14.93,5.12,-5.12,-5.24,-5.57,9.82,9.80,9.79
118.73,14.85,5.13,14.85,5.12,-5.12,-5.23,-5.60,9.73,9.73,9.72
119.92,14.78,5.12,14.78,5.12,-5.12,-5.21,-5.62,9.66,9.66,9.66
121.12,14.70,5.10,14.71,5.12,-5.12,-5.20,-5.63,9.58,9.59,9.60
122.33,14.65,5.12,14.64,5.11,-5.11,-5.19,-5.64,9.54,9.53,9.53
123.55,14.59,5.12,14.56,5.10,-5.10,-5.17,-5.64,9.48,9.46,9.47
124.79,14.48,5.08,14.48,5.09,-5.09,-5.16,-5.64,9.39,9.39,9.40
126.03,14.39,5.06,14.40,5.08,-5.08,-5.14,-5.63,9.31,9.32,9.33
127.29,14.34,5.07,14.32,5.06,-5.06,-5.13,-5.62,9.27,9.26,9.26
128.57,14.26,5.07,14.23,5.04,-5.04,-5.11,-5.60,9.22,9.19,9.19
129.85,14.14,5.02,14.14,5.02,-5.02,-5.10,-5.57,9.12,9.12,9.12
131.15,14.04,4.99,14.05,4.99,-4.99,-5.08,-5.54,9.05,9.05,9.05
132.46,13.98,4.99,13.95,4.97,-4.97,-5.07,-5.50,9.01,8.99,8.98
133.79,13.87,4.96,13.86,4.94,-4.94,-5.05,-5.46,8.93,8.92,8.91
135.12,13.73,4.88,13.76,4.91,-4.91,-5.03,-5.42,8.82,8.85,8.85
136.48,13.67,4.88,13.67,4.88,-4.88,-5.02,-5.37,8.79,8.79,8.79
137.84,13.56,4.84,13.57,4.85,-4.85,-5.00,-5.31,8.71,8.72,8.72
139.22,13.49,4.83,13.48,4.82,-4.82,-4.98,-5.26,8.67,8.66,8.65
140.61,13.39,4.79,13.38,4.78,-4.78,-4.96,-5.20,8.60,8.60,8.60
142.02,13.26,4.73,13.29,4.75,-4.75,-4.95,-5.13,8.51,8.54,8.53
143.44,13.20,4.72,13.20,4.72,-4.72,-4.93,-5.07,8.48,8.48,8.48
144.87,13.11,4.68,13.11,4.69,-4.69,-4.91,-5.01,8.42,8.42,8.43
146.32,13.05,4.68,13.03,4.66,-4.66,-4.89,-4.94,8.38,8.37,8.36
147.78,12.96,4.65,12.95,4.64,-4.64,-4.87,-4.88,8.32,8.31,8.31
149.26,12.89,4.63,12.88,4.62,-4.62,-4.85,-4.81,8.27,8.26,8.25
150.75,12.80,4.60,12.81,4.61,-4.61,-4.83,-4.75,8.19,8.20,8.20
152.26,12.73,4.58,12.74,4.59,-4.59,-4.81,-4.68,8.14,8.15,8.15
153.78,12.65,4.55,12.68,4.58,-4.58,-4.79,-4.62,8.06,8.09,8.09
155.32,12.61,4.57,12.62,4.58,-4.58,-4.76,-4.56,8.03,8.04,8.04
156.88,12.55,4.56,12.56,4.58,-4.58,-4.74,-4.50,7.97,7.98,7.99
158.44,12.52,4.59,12.51,4.59,-4.59,-4.72,-4.44,7.93,7.93,7.93
160.03,12.46,4.58,12.46,4.59,-4.59,-4.70,-4.38,7.87,7.87,7.88
161.63,12.42,4.60,12.42,4.60,-4.60,-4.67,-4.33,7.82,7.82,7.82
163.24,12.39,4.63,12.38,4.62,-4.62,-4.65,-4.28,7.77,7.76,7.76
164.88,12.33,4.63,12.34,4.64,-4.64,-4.63,-4.23,7.69,7.70,7.70
166.53,12.30,4.66,12.30,4.66,-4.66,-4.60,-4.19,7.64,7.65,7.64
168.19,12.27,4.67,12.27,4.68,-4.68,-4.58,-4.14,7.59,7.59,7.59
169.87,12.23,4.70,12.23,4.70,-4.70,-4.55,-4.10,7.53,7.53,7.53
171.57,12.20,4.73,12.19,4.72,-4.72,-4.52,-4.07,7.48,7.47,7.47
173.29,12.16,4.74,12.15,4.74,-4.74,-4.50,-4.03,7.42,7.42,7.42
175.02,12.12,4.76,12.12,4.76,-4.76,-4.47,-4.00,7.36,7.36,7.36
176.77,12.08,4.77,12.07,4.77,-4.77,-4.44,-3.97,7.31,7.30,7.31
178.54,12.05,4.80,12.03,4.78,-4.78,-4.42,-3.95,7.26,7.25,7.25
180.32,12.00,4.81,11.99,4.79,-4.79,-4.39,-3.93,7.21,7.19,7.18
182.13,11.95,4.81,11.94,4.80,-4.80,-4.36,-3.91,7.15,7.14,7.14
183.95,11.87,4.78,11.89,4.80,-4.80,-4.33,-3.90,7.07,7.08,7.09
185.79,11.82,4.79,11.83,4.80,-4.80,-4.30,-3.88,7.02,7.03,7.03
187.65,11.76,4.78,11.77,4.79,-4.79,-4.27,-3.87,6.97,6.98,6.98
189.52,11.71,4.78,11.70,4.78,-4.78,-4.24,-3.87,6.93,6.93,6.93
191.42,11.66,4.78,11.64,4.76,-4.76,-4.21,-3.86,6.90,6.88,6.88
193.33,11.59,4.76,11.56,4.74,-4.74,-4.17,-3.86,6.85,6.83,6.83
195.27,11.50,4.72,11.49,4.71,-4.71,-4.14,-3.86,6.79,6.78,6.78
197.22,11.41,4.69,11.41,4.68,-4.68,-4.11,-3.86,6.73,6.73,6.72
199.19,11.33,4.64,11.33,4.64,-4.64,-4.07,-3.87,6.69,6.69,6.69
201.18,11.25,4.61,11.25,4.60,-4.60,-4.04,-3.88,6.65,6.65,6.64
203.19,11.16,4.55,11.17,4.56,-4.56,-4.00,-3.88,6.60,6.61,6.60
205.23,11.08,4.51,11.08,4.52,-4.52,-3.97,-3.89,6.56,6.57,6.57
207.28,11.00,4.47,11.00,4.47,-4.47,-3.93,-3.90,6.53,6.53,6.53
209.35,10.90,4.40,10.91,4.42,-4.42,-3.89,-3.91,6.48,6.49,6.49
211.44,10.81,4.35,10.82,4.37,-4.37,-3.86,-3.93,6.44,6.46,6.46
213.56,10.73,4.30,10.74,4.31,-4.31,-3.82,-3.94,6.41,6.42,6.43
215.69,10.65,4.26,10.65,4.26,-4.26,-3.78,-3.95,6.39,6.39,6.39
217.85,10.56,4.20,10.56,4.21,-4.21,-3.74,-3.96,6.35,6.36,6.36
220.03,10.49,4.17,10.48,4.15,-4.15,-3.70,-3.97,6.34,6.33,6.32
222.23,10.41,4.12,10.40,4.10,-4.10,-3.66,-3.97,6.31,6.30,6.29
224.45,10.32,4.05,10.31,4.04,-4.04,-3.62,-3.98,6.28,6.27,6.27
226.70,10.22,3.98,10.23,3.99,-3.99,-3.58,-3.98,6.23,6.24,6.23
228.96,10.13,3.91,10.14,3.93,-3.93,-3.53,-3.98,6.20,6.22,6.22
231.25,10.07,3.88,10.06,3.86,-3.86,-3.49,-3.98,6.20,6.19,6.19
233.57,9.98,3.81,9.97,3.80,-3.80,-3.44,-3.97,6.18,6.17,6.17
235.90,9.87,3.72,9.89,3.73,-3.73,-3.40,-3.96,6.13,6.15,6.15
238.26,9.80,3.67,9.80,3.67,-3.67,-3.35,-3.95,6.13,6.14,6.12
240.64,9.72,3.59,9.72,3.60,-3.60,-3.31,-3.93,6.12,6.12,6.13
243.05,9.66,3.55,9.63,3.52,-3.52,-3.26,-3.91,6.14,6.11,6.11
245.48,9.56,3.47,9.55,3.45,-3.45,-3.21,-3.88,6.11,6.10,6.09
247.93,9.44,3.36,9.46,3.38,-3.38,-3.16,-3.84,6.06,6.09,6.07
250.41,9.38,3.30,9.38,3.30,-3.30,-3.11,-3.80,6.08,6.08,6.08
252.92,9.28,3.20,9.30,3.23,-3.23,-3.06,-3.75,6.05,6.07,6.07
255.45,9.21,3.15,9.21,3.15,-3.15,-3.01,-3.70,6.06,6.06,6.06
258.00,9.14,3.08,9.13,3.08,-3.08,-2.96,-3.64,6.06,6.05,6.06
260.58,9.05,3.00,9.05,3.00,-3.00,-2.91,-3.58,6.05,6.05,6.05
263.19,8.97,2.92,8.97,2.93,-2.93,-2.85,-3.51,6.04,6.04,6.05
265.82,8.87,2.83,8.88,2.85,-2.85,-2.80,-3.44,6.02,6.03,6.04
268.48,8.80,2.77,8.80,2.77,-2.77,-2.74,-3.36,6.03,6.03,6.03
271.16,8.74,2.71,8.72,2.70,-2.70,-2.69,-3.28,6.04,6.02,6.03
273.87,8.64,2.62,8.64,2.62,-2.62,-2.63,-3.20,6.02,6.02,6.02
276.61,8.55,2.53,8.56,2.54,-2.54,-2.57,-3.11,6.01,6.02,6.02
279.38,8.48,2.48,8.48,2.46,-2.46,-2.51,-3.01,6.01,6.01,6.00
282.17,8.40,2.40,8.39,2.38,-2.38,-2.45,-2.92,6.02,6.01,6.00
284.99,8.33,2.32,8.31,2.30,-2.30,-2.39,-2.82,6.03,6.01,6.01
287.84,8.22,2.21,8.22,2.21,-2.21,-2.33,-2.71,6.00,6.01,6.01
290.72,8.14,2.14,8.14,2.13,-2.13,-2.27,-2.61,6.01,6.01,6.00
293.63,8.06,2.05,8.05,2.05,-2.05,-2.20,-2.50,6.01,6.01,6.01
296.57,7.97,1.96,7.97,1.96,-1.96,-2.14,-2.40,6.01,6.01,6.01
299.53,7.88,1.86,7.88,1.87,-1.87,-2.08,-2.29,6.01,6.01,6.01
302.53,7.80,1.77,7.80,1.78,-1.78,-2.01,-2.18,6.02,6.02,6.03
305.55,7.72,1.70,7.72,1.69,-1.69,-1.94,-2.06,6.02,6.02,6.02
308.61,7.63,1.60,7.64,1.61,-1.61,-1.87,-1.95,6.02,6.03,6.03
311.69,7.54,1.50,7.55,1.52,-1.52,-1.81,-1.84,6.02,6.03,6.03
314.81,7.47,1.43,7.47,1.43,-1.43,-1.74,-1.73,6.04,6.04,6.04
317.96,7.39,1.35,7.39,1.35,-1.35,-1.67,-1.61,6.04,6.04,6.04
321.14,7.32,1.26,7.31,1.26,-1.26,-1.59,-1.50,6.06,6.05,6.06
324.35,7.24,1.19,7.23,1.18,-1.18,-1.52,-1.39,6.06,6.06,6.05
327.59,7.16,1.08,7.16,1.09,-1.09,-1.45,-1.28,6.07,6.06,6.07
330.87,7.09,1.02,7.08,1.01,-1.01,-1.37,-1.16,6.08,6.07,6.07
334.18,7.01,0.94,7.00,0.93,-0.93,-1.30,-1.05,6.08,6.07,6.07
337.52,6.92,0.84,6.93,0.85,-0.85,-1.22,-0.94,6.07,6.08,6.08
340.90,6.86,0.77,6.85,0.77,-0.77,-1.15,-0.83,6.09,6.09,6.09
344.30,6.77,0.67,6.78,0.68,-0.68,-1.07,-0.72,6.08,6.10,6.10
347.75,6.70,0.60,6.70,0.60,-0.60,-0.99,-0.61,6.10,6.10,6.10
351.23,6.63,0.53,6.63,0.52,-0.52,-0.91,-0.49,6.11,6.11,6.10
354.74,6.56,0.43,6.56,0.44,-0.44,-0.83,-0.38,6.12,6.12,6.12
358.28,6.49,0.37,6.48,0.36,-0.36,-0.75,-0.27,6.13,6.12,6.12
361.87,6.42,0.29,6.41,0.28,-0.28,-0.67,-0.17,6.14,6.13,6.13
365.49,6.34,0.21,6.34,0.20,-0.20,-0.58,-0.06,6.14,6.13,6.13
369.14,6.27,0.12,6.26,0.12,-0.12,-0.50,0.05,6.15,6.14,6.15
372.83,6.19,0.03,6.19,0.04,-0.04,-0.41,0.16,6.14,6.15,6.16
376.56,6.11,-0.04,6.12,-0.04,0.04,-0.33,0.27,6.14,6.16,6.15
380.33,6.04,-0.12,6.05,-0.12,0.12,-0.24,0.38,6.15,6.17,6.16
384.13,5.98,-0.20,5.98,-0.20,0.20,-0.15,0.48,6.17,6.17,6.18
387.97,5.91,-0.27,5.91,-0.28,0.28,-0.07,0.59,6.19,6.18,6.18
391.85,5.83,-0.36,5.83,-0.36,0.36,0.02,0.70,6.19,6.19,6.19
395.77,5.77,-0.43,5.76,-0.44,0.44,0.11,0.80,6.21,6.20,6.20
399.73,5.70,-0.51,5.68,-0.53,0.53,0.20,0.91,6.22,6.21,6.20
403.72,5.63,-0.60,5.61,-0.61,0.61,0.29,1.01,6.24,6.22,6.23
407.76,5.54,-0.69,5.54,-0.69,0.69,0.38,1.12,6.23,6.23,6.23
411.84,5.46,-0.78,5.46,-0.77,0.77,0.48,1.22,6.23,6.24,6.24
415.96,5.39,-0.87,5.39,-0.86,0.86,0.57,1.32,6.24,6.25,6.25
420.12,5.31,-0.94,5.32,-0.94,0.94,0.66,1.43,6.25,6.26,6.25
424.32,5.23,-1.03,5.24,-1.02,1.02,0.76,1.53,6.25,6.26,6.26
428.56,5.16,-1.12,5.16,-1.11,1.11,0.85,1.63,6.26,6.27,6.28
432.85,5.09,-1.20,5.09,-1.19,1.19,0.95,1.72,6.28,6.28,6.29
437.18,5.01,-1.28,5.01,-1.28,1.28,1.04,1.82,6.28,6.29,6.28
441.55,4.95,-1.34,4.94,-1.36,1.36,1.14,1.91,6.31,6.30,6.29
445.96,4.87,-1.43,4.86,-1.44,1.44,1.23,2.01,6.31,6.31,6.30
450.42,4.79,-1.52,4.78,-1.53,1.53,1.33,2.10,6.32,6.31,6.31
454.93,4.72,-1.60,4.71,-1.61,1.61,1.43,2.18,6.33,6.32,6.32
459.48,4.64,-1.69,4.64,-1.69,1.69,1.52,2.27,6.33,6.33,6.33
464.07,4.56,-1.79,4.56,-1.78,1.78,1.62,2.35,6.34,6.34,6.34
