frequency,raw,error,smoothed,error_smoothed,equalization,parametric_eq,fixed_band_eq,equalized_raw,equalized_smoothed,target
20.00,5.41,-4.99,5.41,-4.99,4.99,4.66,2.08,10.40,10.40,10.40
20.20,5.43,-4.96,5.43,-4.96,4.96,4.70,2.14,10.39,10.39,10.39
20.40,5.45,-4.93,5.45,-4.93,4.93,4.74,2.20,10.38,10.38,10.38
20.61,5.47,-4.90,5.47,-4.90,4.90,4.77,2.26,10.37,10.36,10.37
20.81,5.48,-4.87,5.48,-4.87,4.87,4.79,2.33,10.35,10.35,10.35
21.02,5.50,-4.84,5.50,-4.84,4.84,4.82,2.39,10.34,10.34,10.34
21.23,5.52,-4.81,5.52,-4.81,4.81,4.84,2.46,10.33,10.33,10.33
21.44,5.54,-4.79,5.54,-4.78,4.78,4.85,2.53,10.32,10.32,10.33
21.66,5.55,-4.76,5.55,-4.76,4.76,4.86,2.61,10.31,10.31,10.31
21.87,5.57,-4.74,5.57,-4.73,4.73,4.87,2.68,10.30,10.30,10.31
22.09,5.59,-4.70,5.59,-4.71,4.71,4.87,2.76,10.30,10.30,10.29
22.31,5.61,-4.68,5.61,-4.68,4.68,4.87,2.84,10.29,10.29,10.29
22.54,5.62,-4.66,5.62,-4.66,4.66,4.87,2.92,10.28,10.28,10.28
22.76,5.64,-4.64,5.64,-4.63,4.63,4.86,3.00,10.27,10.28,10.28
22.99,5.66,-4.61,5.66,-4.61,4.61,4.85,3.09,10.27,10.27,10.27
23.22,5.68,-4.58,5.67,-4.59,4.59,4.83,3.17,10.27,10.26,10.26
23.45,5.69,-4.57,5.69,-4.57,4.57,4.81,3.26,10.26,10.26,10.26
23.69,5.71,-4.54,5.71,-4.55,4.55,4.79,3.35,10.26,10.25,10.25
23.92,5.72,-4.52,5.72,-4.53,4.53,4.77,3.45,10.25,10.25,10.24
24.16,5.74,-4.51,5.74,-4.51,4.51,4.74,3.54,10.25,10.25,10.25
24.40,5.75,-4.50,5.75,-4.49,4.49,4.71,3.64,10.24,10.24,10.25
24.65,5.77,-4.48,5.77,-4.47,4.47,4.68,3.73,10.24,10.24,10.25
24.89,5.78,-4.47,5.78,-4.46,4.46,4.64,3.83,10.24,10.24,10.25
25.14,5.80,-4.43,5.80,-4.44,4.44,4.61,3.93,10.24,10.24,10.23
25.39,5.81,-4.42,5.81,-4.42,4.42,4.57,4.03,10.23,10.23,10.23
25.65,5.83,-4.40,5.83,-4.41,4.41,4.54,4.13,10.24,10.23,10.23
25.91,5.84,-4.39,5.84,-4.39,4.39,4.50,4.23,10.23,10.23,10.23
26.16,5.86,-4.38,5.86,-4.38,4.38,4.46,4.33,10.23,10.23,10.24
26.43,5.87,-4.36,5.87,-4.36,4.36,4.42,4.43,10.23,10.23,10.23
26.69,5.88,-4.35,5.88,-4.35,4.35,4.38,4.52,10.23,10.23,10.23
26.96,5.90,-4.33,5.90,-4.33,4.33,4.34,4.62,10.23,10.23,10.23
27.23,5.91,-4.32,5.91,-4.32,4.32,4.30,4.71,10.23,10.23,10.23
27.50,5.93,-4.30,5.92,-4.31,4.31,4.26,4.80,10.24,10.23,10.22
27.77,5.94,-4.29,5.94,-4.30,4.30,4.22,4.89,10.24,10.23,10.23
28.05,5.95,-4.28,5.95,-4.28,4.28,4.18,4.97,10.23,10.23,10.23
28.33,5.96,-4.28,5.96,-4.27,4.27,4.15,5.05,10.23,10.23,10.24
28.62,5.97,-4.26,5.97,-4.26,4.26,4.11,5.12,10.23,10.23,10.23
28.90,5.99,-4.25,5.99,-4.25,4.25,4.08,5.19,10.24,10.23,10.24
29.19,6.00,-4.24,6.00,-4.23,4.23,4.04,5.25,10.23,10.23,10.24
29.48,6.01,-4.23,6.01,-4.22,4.22,4.01,5.30,10.23,10.23,10.23
29.78,6.02,-4.21,6.02,-4.21,4.21,3.98,5.35,10.23,10.23,10.23
30.08,6.03,-4.20,6.03,-4.19,4.19,3.95,5.39,10.22,10.22,10.23
30.38,6.04,-4.18,6.04,-4.18,4.18,3.93,5.42,10.22,10.22,10.21
30.68,6.05,-4.16,6.05,-4.17,4.17,3.90,5.44,10.22,10.21,10.21
30.99,6.06,-4.15,6.06,-4.15,4.15,3.88,5.45,10.21,10.21,10.21
31.30,6.07,-4.13,6.06,-4.14,4.14,3.86,5.45,10.21,10.20,10.20
31.61,6.07,-4.13,6.07,-4.12,4.12,3.85,5.45,10.19,10.19,10.20
31.93,6.08,-4.09,6.08,-4.11,4.11,3.83,5.44,10.19,10.18,10.17
32.24,6.08,-4.10,6.08,-4.09,4.09,3.82,5.41,10.17,10.18,10.18
32.57,6.09,-4.08,6.09,-4.08,4.08,3.81,5.38,10.17,10.17,10.16
32.89,6.09,-4.07,6.09,-4.07,4.07,3.80,5.35,10.16,10.16,10.16
33.22,6.09,-4.07,6.10,-4.06,4.06,3.79,5.30,10.15,10.15,10.15
33.55,6.10,-4.05,6.10,-4.04,4.04,3.79,5.25,10.14,10.15,10.15
33.89,6.10,-4.03,6.10,-4.03,4.03,3.78,5.19,10.13,10.14,10.13
34.23,6.10,-4.02,6.11,-4.02,4.02,3.78,5.12,10.12,10.13,10.12
34.57,6.11,-4.00,6.11,-4.01,4.01,3.78,5.05,10.12,10.12,10.11
34.92,6.12,-3.98,6.11,-4.00,4.00,3.79,4.98,10.12,10.11,10.10
35.27,6.12,-3.99,6.11,-3.99,3.99,3.79,4.90,10.11,10.09,10.11
35.62,6.11,-3.97,6.11,-3.97,3.97,3.79,4.82,10.08,10.08,10.08
35.97,6.11,-3.97,6.11,-3.96,3.96,3.80,4.73,10.07,10.07,10.08
36.33,6.11,-3.95,6.10,-3.95,3.95,3.81,4.64,10.05,10.05,10.06
36.70,6.10,-3.93,6.10,-3.93,3.93,3.81,4.55,10.03,10.03,10.03
37.06,6.10,-3.91,6.10,-3.91,3.91,3.82,4.46,10.01,10.01,10.01
37.43,6.10,-3.90,6.10,-3.89,3.89,3.83,4.37,9.99,10.00,10.00
37.81,6.09,-3.89,6.10,-3.87,3.87,3.84,4.28,9.96,9.97,9.98
38.19,6.09,-3.86,6.10,-3.85,3.85,3.84,4.19,9.94,9.95,9.95
38.57,6.10,-3.83,6.10,-3.83,3.83,3.85,4.10,9.93,9.93,9.93
38.95,6.10,-3.81,6.10,-3.81,3.81,3.85,4.01,9.91,9.91,9.91
39.34,6.10,-3.78,6.10,-3.78,3.78,3.85,3.92,9.88,9.88,9.88
39.74,6.11,-3.74,6.10,-3.76,3.76,3.85,3.83,9.86,9.86,9.85
40.14,6.11,-3.72,6.10,-3.73,3.73,3.84,3.74,9.84,9.83,9.83
40.54,6.11,-3.70,6.10,-3.70,3.70,3.83,3.66,9.81,9.81,9.81
40.94,6.11,-3.67,6.11,-3.68,3.68,3.82,3.58,9.79,9.78,9.78
41.35,6.11,-3.65,6.11,-3.65,3.65,3.80,3.50,9.76,9.76,9.76
41.76,6.11,-3.61,6.11,-3.62,3.62,3.78,3.42,9.73,9.73,9.72
42.18,6.11,-3.60,6.11,-3.59,3.59,3.75,3.34,9.70,9.71,9.71
42.60,6.12,-3.56,6.12,-3.56,3.56,3.72,3.27,9.68,9.68,9.68
43.03,6.12,-3.54,6.12,-3.53,3.53,3.69,3.20,9.65,9.65,9.65
43.46,6.12,-3.50,6.12,-3.50,3.50,3.65,3.13,9.62,9.62,9.62
43.90,6.13,-3.47,6.13,-3.47,3.47,3.60,3.06,9.60,9.60,9.60
44.33,6.13,-3.43,6.13,-3.43,3.43,3.56,3.00,9.56,9.56,9.56
44.78,6.14,-3.40,6.14,-3.39,3.39,3.50,2.93,9.53,9.53,9.54
45.23,6.15,-3.36,6.15,-3.35,3.35,3.44,2.87,9.50,9.50,9.51
45.68,6.16,-3.30,6.16,-3.30,3.30,3.38,2.82,9.46,9.46,9.46
46.13,6.17,-3.26,6.17,-3.25,3.25,3.32,2.76,9.42,9.42,9.42
46.60,6.18,-3.21,6.18,-3.20,3.20,3.25,2.71,9.38,9.38,9.39
47.06,6.19,-3.16,6.19,-3.15,3.15,3.18,2.66,9.34,9.34,9.35
47.53,6.21,-3.10,6.21,-3.09,3.09,3.11,2.61,9.30,9.30,9.31
48.01,6.22,-3.03,6.22,-3.03,3.03,3.03,2.57,9.25,9.25,9.25
48.49,6.23,-2.98,6.23,-2.97,2.97,2.95,2.52,9.20,9.21,9.21
48.97,6.25,-2.91,6.25,-2.91,2.91,2.87,2.48,9.16,9.16,9.16
49.46,6.26,-2.86,6.26,-2.85,2.85,2.80,2.44,9.11,9.12,9.12
49.96,6.28,-2.77,6.28,-2.79,2.79,2.71,2.40,9.07,9.07,9.05
50.46,6.29,-2.73,6.29,-2.73,2.73,2.63,2.36,9.02,9.02,9.02
50.96,6.31,-2.67,6.30,-2.67,2.67,2.55,2.33,8.98,8.97,8.97
51.47,6.32,-2.61,6.32,-2.61,2.61,2.47,2.29,8.93,8.93,8.93
51.99,6.33,-2.54,6.33,-2.55,2.55,2.39,2.26,8.88,8.88,8.87
52.51,6.35,-2.49,6.34,-2.49,2.49,2.31,2.23,8.84,8.83,8.84
53.03,6.36,-2.44,6.35,-2.43,2.43,2.23,2.20,8.79,8.79,8.80
53.56,6.37,-2.38,6.36,-2.38,2.38,2.16,2.17,8.75,8.74,8.75
54.10,6.37,-2.32,6.37,-2.32,2.32,2.08,2.14,8.69,8.70,8.69
54.64,6.38,-2.27,6.38,-2.27,2.27,2.01,2.11,8.64,8.65,8.65
55.18,6.39,-2.21,6.40,-2.21,2.21,1.93,2.08,8.60,8.61,8.60
55.74,6.40,-2.15,6.40,-2.16,2.16,1.86,2.05,8.56,8.56,8.55
56.29,6.40,-2.11,6.41,-2.10,2.10,1.79,2.02,8.50,8.52,8.51
56.86,6.41,-2.06,6.42,-2.05,2.05,1.72,1.99,8.46,8.47,8.47
57.42,6.42,-1.99,6.42,-2.00,2.00,1.65,1.96,8.42,8.42,8.41
58.00,6.44,-1.93,6.43,-1.95,1.95,1.58,1.93,8.39,8.37,8.37
58.58,6.45,-1.88,6.43,-1.89,1.89,1.52,1.89,8.34,8.32,8.33
59.16,6.45,-1.84,6.43,-1.84,1.84,1.45,1.86,8.29,8.27,8.29
59.76,6.44,-1.80,6.43,-1.78,1.78,1.39,1.83,8.22,8.22,8.24
60.35,6.44,-1.74,6.43,-1.73,1.73,1.33,1.79,8.17,8.16,8.18
60.96,6.43,-1.69,6.43,-1.67,1.67,1.27,1.75,8.10,8.10,8.12
61.57,6.42,-1.62,6.43,-1.61,1.61,1.21,1.71,8.03,8.05,8.04
62.18,6.42,-1.56,6.43,-1.56,1.56,1.15,1.67,7.97,7.98,7.98
62.80,6.42,-1.49,6.43,-1.50,1.50,1.10,1.63,7.91,7.92,7.91
63.43,6.42,-1.43,6.42,-1.44,1.44,1.04,1.59,7.86,7.86,7.85
64.07,6.42,-1.37,6.42,-1.38,1.38,0.99,1.54,7.80,7.80,7.79
64.71,6.42,-1.31,6.42,-1.32,1.32,0.94,1.50,7.74,7.73,7.73
65.35,6.42,-1.25,6.42,-1.25,1.25,0.89,1.45,7.67,7.67,7.67
66.01,6.42,-1.19,6.42,-1.19,1.19,0.84,1.40,7.61,7.61,7.60
66.67,6.42,-1.13,6.42,-1.13,1.13,0.79,1.34,7.54,7.54,7.55
67.33,6.42,-1.06,6.42,-1.06,1.06,0.74,1.29,7.48,7.48,7.48
68.01,6.42,-1.00,6.42,-1.00,1.00,0.69,1.23,7.42,7.41,7.42
68.69,6.42,-0.93,6.42,-0.93,0.93,0.65,1.18,7.35,7.35,7.35
69.37,6.42,-0.88,6.42,-0.87,0.87,0.60,1.12,7.29,7.29,7.30
70.07,6.42,-0.81,6.42,-0.80,0.80,0.56,1.06,7.22,7.22,7.23
70.77,6.42,-0.74,6.42,-0.73,0.73,0.52,1.00,7.15,7.15,7.15
71.48,6.42,-0.67,6.42,-0.67,0.67,0.47,0.94,7.09,7.09,7.09
72.19,6.42,-0.60,6.42,-0.60,0.60,0.43,0.87,7.02,7.02,7.02
72.91,6.42,-0.52,6.42,-0.53,0.53,0.39,0.81,6.95,6.95,6.94
73.64,6.42,-0.46,6.42,-0.46,0.46,0.35,0.75,6.88,6.88,6.88
74.38,6.42,-0.39,6.42,-0.40,0.40,0.31,0.68,6.82,6.82,6.81
75.12,6.42,-0.33,6.43,-0.33,0.33,0.27,0.61,6.75,6.75,6.75
75.87,6.42,-0.27,6.43,-0.26,0.26,0.23,0.55,6.68,6.69,6.69
76.63,6.42,-0.20,6.43,-0.20,0.20,0.19,0.48,6.62,6.63,6.62
77.40,6.42,-0.15,6.43,-0.13,0.13,0.16,0.41,6.55,6.56,6.57
78.17,6.43,-0.06,6.43,-0.07,0.07,0.12,0.35,6.50,6.50,6.49
78.95,6.44,-0.01,6.43,-0.01,0.01,0.08,0.28,6.45,6.44,6.45
79.74,6.44,0.06,6.43,0.05,-0.05,0.04,0.21,6.39,6.38,6.38
80.54,6.44,0.12,6.42,0.11,-0.11,0.01,0.14,6.33,6.32,6.32
81.35,6.43,0.17,6.42,0.16,-0.16,-0.03,0.07,6.27,6.26,6.25
82.16,6.42,0.21,6.41,0.21,-0.21,-0.06,-0.00,6.21,6.19,6.21
82.98,6.40,0.26,6.39,0.26,-0.26,-0.10,-0.07,6.14,6.13,6.13
83.81,6.38,0.31,6.38,0.31,-0.31,-0.13,-0.14,6.07,6.07,6.07
84.65,6.36,0.36,6.35,0.35,-0.35,-0.17,-0.21,6.01,6.00,6.00
85.50,6.34,0.40,6.33,0.39,-0.39,-0.21,-0.28,5.95,5.94,5.94
86.35,6.31,0.44,6.30,0.43,-0.43,-0.24,-0.36,5.88,5.87,5.87
87.22,6.28,0.47,6.28,0.47,-0.47,-0.28,-0.43,5.81,5.81,5.80
88.09,6.25,0.51,6.25,0.51,-0.51,-0.31,-0.50,5.74,5.74,5.74
88.97,6.22,0.55,6.22,0.55,-0.55,-0.34,-0.57,5.67,5.67,5.67
89.86,6.19,0.59,6.19,0.59,-0.59,-0.38,-0.65,5.60,5.60,5.60
90.76,6.16,0.63,6.17,0.64,-0.64,-0.41,-0.72,5.52,5.53,5.53
91.66,6.14,0.69,6.15,0.69,-0.69,-0.45,-0.79,5.45,5.46,5.45
92.58,6.11,0.72,6.13,0.74,-0.74,-0.48,-0.87,5.37,5.39,5.39
93.51,6.09,0.77,6.11,0.80,-0.80,-0.52,-0.94,5.29,5.31,5.32
94.44,6.09,0.84,6.10,0.86,-0.86,-0.55,-1.02,5.23,5.24,5.25
95.39,6.08,0.91,6.09,0.93,-0.93,-0.59,-1.09,5.15,5.16,5.17
96.34,6.07,0.98,6.09,1.00,-1.00,-0.62,-1.17,5.07,5.09,5.09
97.30,6.08,1.06,6.08,1.07,-1.07,-0.66,-1.25,5.01,5.02,5.02
98.28,6.09,1.15,6.08,1.14,-1.14,-0.70,-1.32,4.95,4.94,4.94
99.26,6.10,1.24,6.08,1.21,-1.21,-0.73,-1.40,4.89,4.87,4.86
100.25,6.10,1.31,6.08,1.29,-1.29,-0.77,-1.47,4.81,4.80,4.79
101.25,6.10,1.38,6.09,1.36,-1.36,-0.80,-1.55,4.74,4.73,4.72
102.27,6.10,1.44,6.09,1.44,-1.44,-0.84,-1.63,4.66,4.66,4.66
103.29,6.10,1.52,6.10,1.51,-1.51,-0.88,-1.70,4.59,4.59,4.58
104.32,6.10,1.58,6.10,1.59,-1.59,-0.91,-1.78,4.51,4.52,4.52
105.37,6.10,1.65,6.11,1.66,-1.66,-0.95,-1.86,4.44,4.45,4.45
106.42,6.10,1.71,6.11,1.73,-1.73,-0.99,-1.93,4.37,4.38,4.38
107.48,6.10,1.79,6.11,1.81,-1.81,-1.03,-2.00,4.29,4.31,4.31
108.56,6.10,1.86,6.11,1.88,-1.88,-1.06,-2.08,4.22,4.24,4.24
109.64,6.11,1.93,6.11,1.94,-1.94,-1.10,-2.15,4.17,4.17,4.18
110.74,6.12,2.02,6.11,2.01,-2.01,-1.14,-2.22,4.11,4.10,4.10
111.85,6.12,2.09,6.10,2.07,-2.07,-1.18,-2.29,4.05,4.03,4.03
112.97,6.11,2.14,6.09,2.13,-2.13,-1.22,-2.36,3.98,3.96,3.96
114.10,6.09,2.20,6.07,2.19,-2.19,-1.26,-2.42,3.90,3.88,3.89
115.24,6.07,2.26,6.06,2.24,-2.24,-1.30,-2.48,3.83,3.81,3.81
116.39,6.05,2.32,6.03,2.29,-2.29,-1.35,-2.55,3.76,3.74,3.73
117.55,6.02,2.36,6.01,2.33,-2.33,-1.39,-2.60,3.68,3.67,3.66
118.73,5.99,2.40,5.98,2.38,-2.38,-1.43,-2.66,3.61,3.60,3.59
119.92,5.95,2.42,5.95,2.42,-2.42,-1.47,-2.71,3.53,3.53,3.53
121.12,5.91,2.44,5.92,2.46,-2.46,-1.52,-2.76,3.45,3.46,3.47
122.33,5.89,2.49,5.89,2.50,-2.50,-1.56,-2.81,3.39,3.40,3.40
123.55,5.86,2.52,5.87,2.54,-2.54,-1.61,-2.86,3.32,3.33,3.34
124.79,5.83,2.56,5.84,2.59,-2.59,-1.65,-2.90,3.24,3.26,3.27
126.03,5.79,2.59,5.83,2.63,-2.63,-1.70,-2.94,3.16,3.19,3.20
127.29,5.78,2.65,5.81,2.69,-2.69,-1.74,-2.97,3.09,3.12,3.13
128.57,5.76,2.70,5.80,2.74,-2.74,-1.79,-3.01,3.02,3.06,3.06
129.85,5.77,2.78,5.79,2.79,-2.79,-1.84,-3.04,2.97,2.99,2.99
131.15,5.77,2.85,5.77,2.85,-2.85,-1.89,-3.06,2.92,2.92,2.92
132.46,5.78,2.92,5.76,2.91,-2.91,-1.94,-3.09,2.87,2.86,2.85
133.79,5.78,3.00,5.75,2.96,-2.96,-1.99,-3.11,2.81,2.79,2.78
135.12,5.77,3.05,5.74,3.02,-3.02,-2.04,-3.14,2.75,2.72,2.72
136.48,5.76,3.10,5.73,3.07,-3.07,-2.09,-3.15,2.69,2.66,2.66
137.84,5.73,3.14,5.71,3.12,-3.12,-2.14,-3.17,2.61,2.59,2.59
139.22,5.71,3.19,5.69,3.16,-3.16,-2.20,-3.19,2.55,2.53,2.52
140.61,5.68,3.21,5.66,3.20,-3.20,-2.25,-3.21,2.48,2.47,2.47
142.02,5.63,3.23,5.64,3.23,-3.23,-2.31,-3.22,2.40,2.41,2.40
143.44,5.61,3.26,5.60,3.25,-3.25,-2.36,-3.24,2.36,2.35,2.35
144.87,5.57,3.27,5.57,3.28,-3.28,-2.42,-3.25,2.29,2.29,2.29
146.32,5.54,3.31,5.54,3.30,-3.30,-2.48,-3.27,2.24,2.24,2.23
147.78,5.51,3.33,5.51,3.33,-3.33,-2.54,-3.28,2.18,2.18,2.18
149.26,5.48,3.36,5.48,3.36,-3.36,-2.60,-3.30,2.12,2.13,2.12
150.75,5.45,3.38,5.46,3.39,-3.39,-2.66,-3.32,2.06,2.07,2.07
152.26,5.43,3.41,5.45,3.43,-3.43,-2.72,-3.34,2.00,2.02,2.02
153.78,5.41,3.45,5.44,3.48,-3.48,-2.78,-3.36,1.93,1.96,1.96
155.32,5.40,3.49,5.43,3.53,-3.53,-2.84,-3.38,1.87,1.91,1.91
156.88,5.42,3.56,5.43,3.58,-3.58,-2.91,-3.40,1.84,1.85,1.86
158.44,5.43,3.63,5.44,3.64,-3.64,-2.97,-3.43,1.78,1.80,1.80
160.03,5.46,3.71,5.45,3.71,-3.71,-3.03,-3.45,1.75,1.74,1.75
161.63,5.48,3.79,5.47,3.79,-3.79,-3.10,-3.48,1.69,1.69,1.69
163.24,5.50,3.87,5.49,3.86,-3.86,-3.17,-3.52,1.64,1.63,1.63
164.88,5.54,3.97,5.52,3.95,-3.95,-3.24,-3.55,1.59,1.57,1.57
166.53,5.56,4.05,5.55,4.03,-4.03,-3.30,-3.59,1.53,1.52,1.51
168.19,5.58,4.12,5.58,4.13,-4.13,-3.37,-3.63,1.45,1.46,1.46
169.87,5.62,4.22,5.62,4.22,-4.22,-3.44,-3.67,1.40,1.40,1.40
171.57,5.64,4.30,5.66,4.31,-4.31,-3.51,-3.72,1.33,1.34,1.34
173.29,5.68,4.39,5.69,4.41,-4.41,-3.59,-3.76,1.27,1.29,1.29
175.02,5.73,4.50,5.73,4.50,-4.50,-3.66,-3.82,1.23,1.23,1.23
176.77,5.77,4.59,5.77,4.59,-4.59,-3.73,-3.87,1.17,1.17,1.17
178.54,5.81,4.69,5.81,4.69,-4.69,-3.81,-3.93,1.12,1.12,1.12
180.32,5.85,4.80,5.84,4.78,-4.78,-3.88,-3.99,1.07,1.06,1.05
182.13,5.89,4.88,5.88,4.87,-4.87,-3.95,-4.05,1.02,1.01,1.01
183.95,5.93,4.97,5.92,4.96,-4.96,-4.03,-4.12,0.97,0.95,0.96
185.79,5.96,5.06,5.95,5.05,-5.05,-4.10,-4.19,0.91,0.90,0.90
187.65,5.98,5.13,5.98,5.14,-5.14,-4.18,-4.26,0.84,0.85,0.85
189.52,6.01,5.21,6.01,5.22,-5.22,-4.26,-4.34,0.79,0.80,0.80
191.42,6.04,5.29,6.04,5.30,-5.30,-4.33,-4.41,0.74,0.75,0.75
193.33,6.06,5.36,6.07,5.37,-5.37,-4.41,-4.49,0.69,0.70,0.70
195.27,6.08,5.43,6.08,5.44,-5.44,-4.48,-4.58,0.64,0.65,0.65
197.22,6.10,5.51,6.10,5.50,-5.50,-4.56,-4.66,0.60,0.60,0.59
199.19,6.12,5.56,6.11,5.55,-5.55,-4.63,-4.75,0.57,0.56,0.56
201.18,6.13,5.62,6.12,5.60,-5.60,-4.71,-4.84,0.53,0.52,0.51
203.19,6.13,5.66,6.12,5.64,-5.64,-4.78,-4.93,0.49,0.48,0.47
205.23,6.13,5.69,6.12,5.68,-5.68,-4.86,-5.02,0.45,0.44,0.44
207.28,6.12,5.72,6.11,5.72,-5.72,-4.93,-5.11,0.40,0.40,0.40
209.35,6.11,5.75,6.11,5.74,-5.74,-5.00,-5.20,0.36,0.36,0.36
211.44,6.09,5.76,6.09,5.77,-5.77,-5.07,-5.30,0.32,0.32,0.33
213.56,6.07,5.77,6.07,5.78,-5.78,-5.14,-5.39,0.29,0.29,0.30
215.69,6.04,5.78,6.05,5.79,-5.79,-5.21,-5.48,0.25,0.26,0.26
217.85,6.01,5.78,6.02,5.80,-5.80,-5.28,-5.57,0.21,0.23,0.23
220.03,6.00,5.81,5.99,5.79,-5.79,-5.35,-5.65,0.20,0.20,0.19
222.23,5.97,5.81,5.96,5.79,-5.79,-5.41,-5.74,0.18,0.17,0.16
224.45,5.94,5.80,5.92,5.78,-5.78,-5.47,-5.82,0.16,0.14,0.14
226.70,5.90,5.80,5.88,5.77,-5.77,-5.53,-5.90,0.13,0.11,0.10
228.96,5.84,5.75,5.84,5.76,-5.76,-5.59,-5.97,0.08,0.09,0.09
231.25,5.81,5.75,5.80,5.74,-5.74,-5.64,-6.04,0.07,0.06,0.06
233.57,5.76,5.72,5.76,5.72,-5.72,-5.69,-6.10,0.04,0.04,0.04
235.90,5.70,5.68,5.73,5.70,-5.70,-5.74,-6.15,-0.00,0.02,0.02
238.26,5.67,5.68,5.69,5.68,-5.68,-5.78,-6.20,-0.01,0.01,-0.01
240.64,5.63,5.63,5.65,5.66,-5.66,-5.83,-6.24,-0.03,-0.01,-0.00
243.05,5.60,5.62,5.62,5.64,-5.64,-5.86,-6.27,-0.04,-0.02,-0.02
245.48,5.58,5.62,5.58,5.62,-5.62,-5.90,-6.29,-0.04,-0.03,-0.04
247.93,5.55,5.60,5.55,5.60,-5.60,-5.93,-6.30,-0.05,-0.05,-0.06
250.41,5.53,5.58,5.52,5.58,-5.58,-5.96,-6.31,-0.05,-0.05,-0.05
252.92,5.50,5.56,5.49,5.56,-5.56,-5.98,-6.31,-0.06,-0.06,-0.06
255.45,5.48,5.55,5.47,5.54,-5.54,-6.00,-6.29,-0.06,-0.07,-0.07
258.00,5.45,5.52,5.45,5.52,-5.52,-6.01,-6.27,-0.07,-0.08,-0.08
260.58,5.42,5.50,5.42,5.51,-5.51,-6.02,-6.24,-0.09,-0.08,-0.08
263.19,5.39,5.47,5.40,5.49,-5.49,-6.03,-6.21,-0.10,-0.09,-0.08
265.82,5.35,5.44,5.37,5.47,-5.47,-6.03,-6.16,-0.12,-0.10,-0.09
268.48,5.34,5.44,5.34,5.44,-5.44,-6.03,-6.11,-0.10,-0.10,-0.10
271.16,5.33,5.43,5.31,5.41,-5.41,-6.02,-6.05,-0.08,-0.11,-0.10
273.87,5.29,5.40,5.27,5.38,-5.38,-6.01,-5.99,-0.09,-0.11,-0.11
276.61,5.26,5.37,5.23,5.35,-5.35,-5.99,-5.92,-0.09,-0.11,-0.11
279.38,5.22,5.35,5.20,5.32,-5.32,-5.97,-5.85,-0.10,-0.12,-0.13
282.17,5.18,5.31,5.16,5.28,-5.28,-5.95,-5.77,-0.10,-0.12,-0.13
284.99,5.14,5.26,5.12,5.25,-5.25,-5.92,-5.69,-0.11,-0.12,-0.12
287.84,5.07,5.19,5.09,5.21,-5.21,-5.89,-5.61,-0.14,-0.12,-0.12
290.72,5.02,5.15,5.05,5.17,-5.17,-5.85,-5.52,-0.15,-0.12,-0.13
293.63,4.98,5.10,5.01,5.14,-5.14,-5.81,-5.44,-0.16,-0.12,-0.12
296.57,4.95,5.07,4.98,5.10,-5.10,-5.77,-5.35,-0.15,-0.12,-0.12
299.53,4.93,5.05,4.94,5.06,-5.06,-5.73,-5.26,-0.13,-0.12,-0.12
302.53,4.91,5.01,4.91,5.02,-5.02,-5.68,-5.17,-0.11,-0.11,-0.10
305.55,4.89,5.00,4.88,4.98,-4.98,-5.63,-5.09,-0.10,-0.11,-0.11
308.61,4.86,4.96,4.85,4.95,-4.95,-5.57,-5.00,-0.09,-0.10,-0.10
311.69,4.83,4.92,4.82,4.91,-4.91,-5.51,-4.92,-0.09,-0.10,-0.10
314.81,4.81,4.90,4.79,4.88,-4.88,-5.45,-4.84,-0.07,-0.09,-0.09
317.96,4.77,4.86,4.76,4.85,-4.85,-5.39,-4.76,-0.08,-0.09,-0.09
321.14,4.74,4.81,4.74,4.82,-4.82,-5.33,-4.68,-0.08,-0.08,-0.07
324.35,4.71,4.79,4.71,4.78,-4.78,-5.26,-4.60,-0.07,-0.07,-0.08
327.59,4.68,4.74,4.68,4.75,-4.75,-5.20,-4.53,-0.07,-0.07,-0.06
330.87,4.66,4.72,4.65,4.71,-4.71,-5.13,-4.46,-0.06,-0.06,-0.06
334.18,4.63,4.69,4.62,4.68,-4.68,-5.06,-4.39,-0.05,-0.06,-0.06
337.52,4.59,4.64,4.60,4.65,-4.65,-4.99,-4.33,-0.06,-0.05,-0.05
340.90,4.57,4.61,4.58,4.62,-4.62,-4.91,-4.26,-0.05,-0.04,-0.04
344.30,4.54,4.57,4.55,4.59,-4.59,-4.84,-4.21,-0.05,-0.04,-0.03
347.75,4.52,4.55,4.53,4.56,-4.56,-4.77,-4.15,-0.04,-0.03,-0.03
351.23,4.50,4.53,4.51,4.53,-4.53,-4.69,-4.10,-0.04,-0.02,-0.03
354.74,4.49,4.50,4.49,4.51,-4.51,-4.62,-4.05,-0.02,-0.02,-0.01
358.28,4.47,4.48,4.47,4.48,-4.48,-4.54,-4.00,-0.01,-0.01,-0.01
361.87,4.46,4.46,4.46,4.46,-4.46,-4.47,-3.96,0.00,-0.00,-0.00
365.49,4.45,4.45,4.44,4.43,-4.43,-4.39,-3.92,0.02,0.00,0.00
369.14,4.43,4.41,4.42,4.40,-4.40,-4.32,-3.88,0.02,0.01,0.02
372.83,4.42,4.39,4.40,4.38,-4.38,-4.24,-3.85,0.04,0.02,0.03
376.56,4.38,4.36,4.38,4.35,-4.35,-4.17,-3.82,0.03,0.03,0.02
380.33,4.36,4.33,4.35,4.32,-4.32,-4.09,-3.79,0.04,0.04,0.03
384.13,4.33,4.28,4.33,4.28,-4.28,-4.02,-3.77,0.04,0.04,0.05
387.97,4.30,4.25,4.30,4.25,-4.25,-3.94,-3.74,0.05,0.05,0.05
391.85,4.27,4.21,4.27,4.21,-4.21,-3.87,-3.72,0.06,0.06,0.06
395.77,4.25,4.18,4.25,4.18,-4.18,-3.80,-3.70,0.07,0.07,0.07
399.73,4.22,4.15,4.22,4.14,-4.14,-3.72,-3.69,0.08,0.08,0.07
403.72,4.19,4.09,4.19,4.10,-4.10,-3.65,-3.68,0.09,0.09,0.10
407.76,4.16,4.06,4.16,4.06,-4.06,-3.58,-3.66,0.09,0.10,0.10
411.84,4.12,4.01,4.14,4.03,-4.03,-3.51,-3.65,0.09,0.11,0.11
415.96,4.09,3.96,4.11,3.99,-3.99,-3.44,-3.64,0.10,0.12,0.12
420.12,4.06,3.94,4.08,3.95,-3.95,-3.37,-3.64,0.11,0.12,0.12
424.32,4.04,3.91,4.04,3.91,-3.91,-3.30,-3.63,0.13,0.13,0.13
428.56,4.03,3.88,4.01,3.87,-3.87,-3.23,-3.62,0.16,0.14,0.15
432.85,4.01,3.85,3.98,3.83,-3.83,-3.17,-3.62,0.18,0.15,0.16
437.18,3.97,3.82,3.95,3.79,-3.79,-3.10,-3.61,0.18,0.16,0.15
441.55,3.93,3.77,3.91,3.75,-3.75,-3.04,-3.60,0.18,0.17,0.16
445.96,3.88,3.71,3.88,3.70,-3.70,-2.97,-3.60,0.18,0.17,0.17
450.42,3.83,3.65,3.84,3.66,-3.66,-2.91,-3.59,0.17,0.18,0.18
454.93,3.79,3.60,3.81,3.62,-3.62,-2.85,-3.58,0.17,0.19,0.19
459.48,3.75,3.55,3.77,3.57,-3.57,-2.78,-3.57,0.18,0.20,0.20
464.07,3.72,3.50,3.73,3.52,-3.52,-2.72,-3.55,0.20,0.21,0.21
468.71,3.69,3.47,3.69,3.47,-3.47,-2.66,-3.54,0.22,0.22,0.22
473.40,3.65,3.42,3.65,3.42,-3.42,-2.60,-3.52,0.23,0.23,0.23
478.13,3.62,3.38,3.61,3.37,-3.37,-2.55,-3.50,0.25,0.24,0.24
482.91,3.58,3.33,3.56,3.32,-3.32,-2.49,-3.48,0.26,0.25,0.25
487.74,3.53,3.27,3.52,3.26,-3.26,-2.43,-3.45,0.26,0.26,0.26
492.62,3.48,3.21,3.48,3.21,-3.21,-2.38,-3.42,0.27,0.27,0.27
497.55,3.44,3.16,3.44,3.16,-3.16,-2.32,-3.39,0.28,0.28,0.28
502.52,3.40,3.11,3.40,3.11,-3.11,-2.27,-3.35,0.29,0.29,0.28
507.55,3.35,3.05,3.35,3.05,-3.05,-2.22,-3.31,0.30,0.30,0.30
512.62,3.30,2.99,3.30,2.99,-2.99,-2.16,-3.27,0.31,0.31,0.31
517.75,3.26,2.93,3.26,2.93,-2.93,-2.11,-3.22,0.33,0.33,0.33
522.93,3.21,2.87,3.21,2.87,-2.87,-2.06,-3.17,0.34,0.34,0.34
528.16,3.17,2.82,3.16,2.81,-2.81,-2.01,-3.12,0.36,0.35,0.35
533.44,3.12,2.76,3.12,2.75,-2.75,-1.96,-3.06,0.36,0.36,0.36
