frequency,raw,error,smoothed,error_smoothed,equalization,parametric_eq,fixed_band_eq,equalized_raw,equalized_smoothed,target
20.00,4.56,0.61,4.60,0.63,-0.63,-0.60,-0.61,3.93,3.97,3.95
20.20,4.61,0.62,4.62,0.62,-0.62,-0.61,-0.62,3.99,4.00,3.99
20.40,4.65,0.63,4.65,0.62,-0.62,-0.62,-0.64,4.03,4.03,4.02
20.61,4.70,0.65,4.67,0.62,-0.62,-0.63,-0.66,4.08,4.05,4.05
20.81,4.75,0.66,4.70,0.62,-0.62,-0.65,-0.68,4.13,4.08,4.09
21.02,4.79,0.66,4.73,0.63,-0.63,-0.66,-0.70,4.16,4.10,4.13
21.23,4.79,0.65,4.76,0.63,-0.63,-0.68,-0.71,4.16,4.12,4.14
21.44,4.79,0.63,4.79,0.64,-0.64,-0.69,-0.73,4.15,4.14,4.16
21.66,4.79,0.61,4.82,0.65,-0.65,-0.70,-0.75,4.14,4.16,4.18
21.87,4.79,0.60,4.85,0.67,-0.67,-0.72,-0.78,4.12,4.18,4.19
22.09,4.81,0.61,4.88,0.68,-0.68,-0.73,-0.80,4.13,4.20,4.20
22.31,4.86,0.66,4.91,0.70,-0.70,-0.75,-0.82,4.16,4.21,4.20
22.54,4.91,0.70,4.94,0.73,-0.73,-0.76,-0.84,4.18,4.22,4.21
22.76,4.96,0.74,4.98,0.75,-0.75,-0.78,-0.86,4.21,4.23,4.22
22.99,5.01,0.79,5.01,0.77,-0.77,-0.80,-0.89,4.24,4.24,4.22
23.22,5.06,0.83,5.04,0.80,-0.80,-0.81,-0.91,4.26,4.24,4.23
23.45,5.12,0.88,5.08,0.83,-0.83,-0.83,-0.94,4.29,4.25,4.24
23.69,5.17,0.92,5.12,0.87,-0.87,-0.85,-0.96,4.30,4.25,4.25
23.92,5.22,0.96,5.16,0.91,-0.91,-0.86,-0.99,4.31,4.25,4.26
24.16,5.24,0.97,5.20,0.95,-0.95,-0.88,-1.01,4.29,4.26,4.27
24.40,5.24,0.96,5.24,0.98,-0.98,-0.90,-1.04,4.26,4.26,4.28
24.65,5.24,0.97,5.28,1.01,-1.01,-0.92,-1.07,4.23,4.26,4.27
24.89,5.24,0.98,5.31,1.04,-1.04,-0.94,-1.10,4.20,4.26,4.27
25.14,5.27,1.01,5.34,1.07,-1.07,-0.96,-1.12,4.20,4.27,4.26
25.39,5.33,1.07,5.36,1.09,-1.09,-0.98,-1.15,4.24,4.27,4.26
25.65,5.39,1.13,5.37,1.11,-1.11,-1.00,-1.18,4.28,4.27,4.26
25.91,5.45,1.20,5.39,1.12,-1.12,-1.02,-1.21,4.32,4.26,4.25
26.16,5.47,1.21,5.40,1.14,-1.14,-1.04,-1.24,4.33,4.26,4.26
26.43,5.47,1.21,5.42,1.16,-1.16,-1.06,-1.27,4.31,4.26,4.26
26.69,5.47,1.21,5.43,1.18,-1.18,-1.08,-1.30,4.29,4.25,4.26
26.96,5.47,1.21,5.46,1.20,-1.20,-1.10,-1.33,4.27,4.25,4.26
27.23,5.47,1.22,5.48,1.23,-1.23,-1.13,-1.36,4.24,4.25,4.25
27.50,5.47,1.22,5.51,1.27,-1.27,-1.15,-1.39,4.20,4.25,4.25
27.77,5.47,1.23,5.54,1.30,-1.30,-1.17,-1.42,4.17,4.25,4.24
28.05,5.48,1.24,5.58,1.33,-1.33,-1.20,-1.45,4.15,4.24,4.24
28.33,5.55,1.32,5.61,1.37,-1.37,-1.22,-1.48,4.18,4.24,4.23
28.62,5.61,1.37,5.64,1.40,-1.40,-1.25,-1.51,4.20,4.24,4.24
28.90,5.68,1.45,5.68,1.44,-1.44,-1.27,-1.54,4.24,4.24,4.23
29.19,5.74,1.52,5.71,1.48,-1.48,-1.30,-1.57,4.26,4.23,4.22
29.48,5.80,1.57,5.75,1.52,-1.52,-1.33,-1.60,4.28,4.23,4.23
29.78,5.86,1.63,5.79,1.56,-1.56,-1.35,-1.63,4.30,4.22,4.23
30.08,5.90,1.67,5.83,1.61,-1.61,-1.38,-1.66,4.29,4.22,4.23
30.38,5.91,1.69,5.87,1.65,-1.65,-1.41,-1.68,4.26,4.21,4.22
30.68,5.92,1.71,5.90,1.69,-1.69,-1.44,-1.71,4.23,4.21,4.21
30.99,5.93,1.73,5.93,1.73,-1.73,-1.47,-1.74,4.20,4.20,4.20
31.30,5.93,1.73,5.96,1.76,-1.76,-1.50,-1.76,4.17,4.20,4.20
31.61,5.93,1.73,5.98,1.79,-1.79,-1.53,-1.79,4.14,4.19,4.20
31.93,5.93,1.75,6.00,1.82,-1.82,-1.56,-1.81,4.11,4.19,4.18
32.24,5.98,1.81,6.03,1.85,-1.85,-1.59,-1.84,4.13,4.18,4.17
32.57,6.06,1.89,6.06,1.88,-1.88,-1.63,-1.86,4.18,4.17,4.17
32.89,6.13,1.97,6.08,1.92,-1.92,-1.66,-1.88,4.21,4.17,4.16
33.22,6.15,1.99,6.12,1.95,-1.95,-1.69,-1.91,4.20,4.16,4.16
33.55,6.15,1.99,6.15,1.99,-1.99,-1.73,-1.93,4.16,4.16,4.16
33.89,6.15,1.99,6.17,2.02,-2.02,-1.77,-1.95,4.13,4.15,4.16
34.23,6.19,2.04,6.21,2.06,-2.06,-1.80,-1.98,4.13,4.15,4.15
34.57,6.25,2.11,6.24,2.10,-2.10,-1.84,-2.00,4.15,4.14,4.14
34.92,6.31,2.17,6.28,2.14,-2.14,-1.88,-2.02,4.17,4.13,4.13
35.27,6.34,2.21,6.31,2.18,-2.18,-1.91,-2.05,4.15,4.13,4.13
35.62,6.36,2.24,6.35,2.22,-2.22,-1.95,-2.07,4.14,4.12,4.12
35.97,6.38,2.27,6.38,2.26,-2.26,-1.99,-2.10,4.12,4.12,4.11
36.33,6.38,2.27,6.40,2.29,-2.29,-2.03,-2.12,4.09,4.11,4.11
36.70,6.38,2.28,6.42,2.32,-2.32,-2.08,-2.15,4.06,4.10,4.10
37.06,6.39,2.30,6.45,2.36,-2.36,-2.12,-2.18,4.03,4.09,4.09
37.43,6.48,2.40,6.49,2.40,-2.40,-2.16,-2.20,4.08,4.08,4.08
37.81,6.57,2.49,6.52,2.44,-2.44,-2.20,-2.23,4.13,4.08,4.08
38.19,6.61,2.54,6.55,2.48,-2.48,-2.25,-2.26,4.13,4.07,4.06
38.57,6.61,2.55,6.58,2.52,-2.52,-2.29,-2.30,4.09,4.06,4.06
38.95,6.61,2.56,6.61,2.56,-2.56,-2.34,-2.33,4.05,4.05,4.05
39.34,6.61,2.57,6.65,2.60,-2.60,-2.39,-2.36,4.01,4.05,4.04
39.74,6.61,2.59,6.68,2.64,-2.64,-2.44,-2.40,3.97,4.04,4.02
40.14,6.64,2.61,6.71,2.68,-2.68,-2.48,-2.44,3.96,4.03,4.03
40.54,6.73,2.71,6.74,2.72,-2.72,-2.53,-2.48,4.01,4.02,4.02
40.94,6.82,2.81,6.76,2.75,-2.75,-2.58,-2.52,4.07,4.00,4.01
41.35,6.83,2.83,6.77,2.78,-2.78,-2.64,-2.56,4.05,3.99,4.00
41.76,6.84,2.86,6.78,2.81,-2.81,-2.69,-2.60,4.03,3.97,3.98
42.18,6.84,2.88,6.80,2.85,-2.85,-2.74,-2.65,3.99,3.95,3.96
42.60,6.84,2.91,6.82,2.90,-2.90,-2.79,-2.70,3.94,3.92,3.93
43.03,6.84,2.92,6.84,2.95,-2.95,-2.85,-2.75,3.89,3.90,3.92
43.46,6.84,2.95,6.87,3.00,-3.00,-2.90,-2.80,3.84,3.87,3.89
43.90,6.84,3.00,6.89,3.05,-3.05,-2.96,-2.86,3.79,3.84,3.84
44.33,6.84,3.03,6.92,3.10,-3.10,-3.02,-2.91,3.74,3.81,3.81
44.78,6.84,3.07,6.93,3.15,-3.15,-3.08,-2.97,3.69,3.78,3.77
45.23,6.89,3.15,6.95,3.19,-3.19,-3.14,-3.03,3.70,3.76,3.74
45.68,7.00,3.29,6.97,3.24,-3.24,-3.19,-3.10,3.76,3.73,3.71
46.13,7.07,3.38,6.99,3.28,-3.28,-3.26,-3.16,3.79,3.70,3.69
46.60,7.07,3.39,7.01,3.32,-3.32,-3.32,-3.23,3.75,3.68,3.68
47.06,7.07,3.41,7.03,3.36,-3.36,-3.38,-3.30,3.71,3.67,3.66
47.53,7.07,3.42,7.05,3.39,-3.39,-3.44,-3.37,3.68,3.65,3.65
48.01,7.07,3.43,7.05,3.41,-3.41,-3.51,-3.44,3.66,3.64,3.64
48.49,7.07,3.44,7.06,3.43,-3.43,-3.57,-3.51,3.64,3.63,3.63
48.97,7.07,3.45,7.07,3.44,-3.44,-3.63,-3.59,3.63,3.63,3.62
49.46,7.07,3.47,7.07,3.45,-3.45,-3.70,-3.67,3.62,3.62,3.60
49.96,7.07,3.47,7.08,3.46,-3.46,-3.77,-3.75,3.61,3.62,3.60
50.46,7.07,3.46,7.08,3.47,-3.47,-3.83,-3.83,3.60,3.61,3.61
50.96,7.07,3.46,7.08,3.48,-3.48,-3.90,-3.91,3.59,3.60,3.61
51.47,7.07,3.47,7.08,3.50,-3.50,-3.97,-3.99,3.57,3.58,3.60
51.99,7.07,3.49,7.10,3.54,-3.54,-4.04,-4.08,3.53,3.57,3.58
52.51,7.07,3.51,7.13,3.58,-3.58,-4.11,-4.16,3.49,3.54,3.56
53.03,7.08,3.54,7.16,3.64,-3.64,-4.17,-4.24,3.44,3.51,3.54
53.56,7.19,3.69,7.19,3.71,-3.71,-4.24,-4.33,3.48,3.48,3.50
54.10,7.29,3.84,7.22,3.78,-3.78,-4.31,-4.41,3.51,3.44,3.45
54.64,7.29,3.89,7.25,3.85,-3.85,-4.38,-4.49,3.44,3.40,3.40
55.18,7.29,3.94,7.29,3.94,-3.94,-4.45,-4.57,3.35,3.35,3.35
55.74,7.29,4.00,7.33,4.03,-4.03,-4.52,-4.65,3.26,3.30,3.29
56.29,7.36,4.12,7.37,4.13,-4.13,-4.59,-4.73,3.23,3.24,3.24
56.86,7.49,4.31,7.41,4.23,-4.23,-4.66,-4.81,3.25,3.18,3.18
57.42,7.52,4.41,7.45,4.33,-4.33,-4.73,-4.88,3.19,3.12,3.11
58.00,7.52,4.48,7.49,4.44,-4.44,-4.80,-4.95,3.08,3.05,3.04
58.58,7.52,4.54,7.53,4.54,-4.54,-4.87,-5.02,2.98,2.98,2.98
59.16,7.52,4.59,7.57,4.65,-4.65,-4.94,-5.09,2.87,2.92,2.93
59.76,7.52,4.66,7.61,4.76,-4.76,-5.00,-5.15,2.76,2.85,2.86
60.35,7.60,4.82,7.65,4.86,-4.86,-5.07,-5.20,2.74,2.79,2.79
60.96,7.74,5.01,7.70,4.98,-4.98,-5.14,-5.26,2.76,2.72,2.73
61.57,7.75,5.10,7.74,5.08,-5.08,-5.20,-5.30,2.67,2.66,2.65
62.18,7.75,5.17,7.78,5.18,-5.18,-5.27,-5.35,2.57,2.60,2.58
62.80,7.75,5.22,7.80,5.26,-5.26,-5.33,-5.39,2.49,2.54,2.53
63.43,7.85,5.38,7.83,5.35,-5.35,-5.39,-5.42,2.50,2.48,2.47
64.07,7.98,5.56,7.87,5.44,-5.44,-5.45,-5.45,2.54,2.43,2.42
64.71,7.98,5.61,7.91,5.53,-5.53,-5.51,-5.48,2.45,2.37,2.37
65.35,7.98,5.66,7.94,5.62,-5.62,-5.57,-5.51,2.36,2.33,2.32
66.01,7.98,5.71,7.98,5.70,-5.70,-5.62,-5.52,2.28,2.28,2.27
66.67,7.98,5.75,8.01,5.78,-5.78,-5.68,-5.54,2.20,2.24,2.23
67.33,7.98,5.79,8.04,5.84,-5.84,-5.73,-5.55,2.14,2.20,2.19
68.01,7.98,5.82,8.06,5.90,-5.90,-5.78,-5.57,2.08,2.16,2.16
68.69,7.99,5.87,8.09,5.97,-5.97,-5.82,-5.57,2.02,2.12,2.12
69.37,8.08,6.00,8.11,6.03,-6.03,-5.87,-5.58,2.05,2.08,2.08
70.07,8.21,6.17,8.13,6.09,-6.09,-5.91,-5.59,2.12,2.05,2.04
70.77,8.21,6.19,8.15,6.14,-6.14,-5.95,-5.59,2.07,2.01,2.02
71.48,8.21,6.23,8.16,6.19,-6.19,-5.99,-5.60,2.02,1.97,1.98
72.19,8.21,6.26,8.18,6.24,-6.24,-6.03,-5.60,1.97,1.94,1.95
72.91,8.21,6.30,8.20,6.29,-6.29,-6.06,-5.60,1.92,1.90,1.91
73.64,8.21,6.34,8.21,6.34,-6.34,-6.10,-5.61,1.87,1.86,1.87
74.38,8.21,6.37,8.22,6.39,-6.39,-6.12,-5.61,1.82,1.83,1.84
75.12,8.21,6.42,8.23,6.43,-6.43,-6.15,-5.62,1.78,1.79,1.79
75.87,8.21,6.46,8.24,6.48,-6.48,-6.18,-5.63,1.73,1.76,1.75
76.63,8.21,6.49,8.24,6.52,-6.52,-6.20,-5.64,1.69,1.72,1.72
77.40,8.21,6.52,8.24,6.55,-6.55,-6.22,-5.65,1.66,1.69,1.69
78.17,8.21,6.56,8.23,6.57,-6.57,-6.24,-5.67,1.64,1.66,1.65
78.95,8.21,6.58,8.22,6.59,-6.59,-6.25,-5.69,1.62,1.63,1.63
79.74,8.21,6.61,8.21,6.61,-6.61,-6.27,-5.71,1.60,1.60,1.60
80.54,8.21,6.64,8.19,6.62,-6.62,-6.28,-5.74,1.59,1.58,1.57
81.35,8.21,6.66,8.18,6.62,-6.62,-6.29,-5.77,1.59,1.56,1.55
82.16,8.21,6.68,8.17,6.63,-6.63,-6.30,-5.80,1.58,1.54,1.53
82.98,8.21,6.68,8.15,6.63,-6.63,-6.31,-5.84,1.58,1.53,1.53
83.81,8.21,6.70,8.14,6.62,-6.62,-6.31,-5.88,1.59,1.51,1.51
84.65,8.06,6.57,8.12,6.62,-6.62,-6.32,-5.92,1.44,1.50,1.49
85.50,7.98,6.49,8.09,6.60,-6.60,-6.32,-5.97,1.38,1.49,1.49
86.35,7.98,6.49,8.06,6.57,-6.57,-6.33,-6.03,1.41,1.49,1.49
87.22,7.98,6.50,8.02,6.54,-6.54,-6.33,-6.09,1.44,1.48,1.48
88.09,7.98,6.51,7.98,6.50,-6.50,-6.33,-6.15,1.48,1.47,1.47
88.97,7.98,6.51,7.94,6.47,-6.47,-6.33,-6.22,1.51,1.46,1.47
89.86,7.98,6.52,7.89,6.44,-6.44,-6.33,-6.29,1.54,1.45,1.46
90.76,7.96,6.52,7.84,6.40,-6.40,-6.34,-6.36,1.56,1.44,1.44
91.66,7.82,6.38,7.80,6.37,-6.37,-6.34,-6.45,1.44,1.43,1.44
92.58,7.75,6.35,7.75,6.34,-6.34,-6.34,-6.53,1.41,1.41,1.40
93.51,7.65,6.25,7.70,6.31,-6.31,-6.35,-6.62,1.34,1.39,1.40
94.44,7.54,6.17,7.65,6.29,-6.29,-6.35,-6.72,1.25,1.37,1.37
95.39,7.52,6.17,7.60,6.25,-6.25,-6.36,-6.82,1.27,1.34,1.35
96.34,7.52,6.22,7.53,6.21,-6.21,-6.37,-6.92,1.31,1.31,1.30
97.30,7.52,6.24,7.45,6.17,-6.17,-6.38,-7.03,1.35,1.28,1.28
98.28,7.47,6.23,7.39,6.14,-6.14,-6.39,-7.14,1.33,1.25,1.24
99.26,7.33,6.13,7.32,6.11,-6.11,-6.41,-7.25,1.22,1.21,1.20
100.25,7.28,6.11,7.24,6.08,-6.08,-6.42,-7.37,1.20,1.17,1.17
101.25,7.21,6.09,7.16,6.05,-6.05,-6.44,-7.49,1.16,1.12,1.12
102.27,7.07,6.00,7.08,6.01,-6.01,-6.47,-7.61,1.06,1.07,1.07
103.29,7.07,6.06,7.00,5.99,-5.99,-6.50,-7.74,1.08,1.01,1.01
104.32,7.02,6.05,6.95,6.00,-6.00,-6.53,-7.87,1.02,0.95,0.97
105.37,6.90,5.99,6.92,6.03,-6.03,-6.56,-7.99,0.87,0.89,0.91
106.42,6.84,6.00,6.90,6.08,-6.08,-6.60,-8.12,0.76,0.82,0.84
107.48,6.84,6.08,6.89,6.14,-6.14,-6.64,-8.25,0.70,0.75,0.76
108.56,6.84,6.16,6.88,6.20,-6.20,-6.69,-8.38,0.64,0.68,0.68
109.64,6.69,6.09,6.88,6.28,-6.28,-6.75,-8.51,0.40,0.60,0.60
110.74,6.62,6.10,6.90,6.38,-6.38,-6.80,-8.63,0.24,0.51,0.52
111.85,6.82,6.38,6.92,6.49,-6.49,-6.87,-8.75,0.33,0.43,0.44
112.97,6.98,6.63,6.97,6.62,-6.62,-6.94,-8.86,0.36,0.35,0.35
114.10,7.34,7.07,7.02,6.75,-6.75,-7.01,-8.97,0.58,0.27,0.27
115.24,7.49,7.31,7.09,6.90,-6.90,-7.10,-9.08,0.59,0.19,0.18
116.39,7.36,7.26,7.18,7.07,-7.07,-7.19,-9.17,0.29,0.11,0.10
117.55,7.28,7.26,7.28,7.24,-7.24,-7.28,-9.26,0.03,0.04,0.02
118.73,7.12,7.17,7.40,7.43,-7.43,-7.38,-9.34,-0.31,-0.03,-0.05
119.92,7.18,7.29,7.51,7.60,-7.60,-7.49,-9.40,-0.42,-0.09,-0.11
121.12,7.53,7.70,7.62,7.77,-7.77,-7.60,-9.46,-0.24,-0.15,-0.17
122.33,7.67,7.89,7.73,7.94,-7.94,-7.72,-9.50,-0.27,-0.21,-0.22
123.55,7.85,8.11,7.83,8.09,-8.09,-7.85,-9.53,-0.24,-0.26,-0.26
124.79,7.97,8.28,7.92,8.23,-8.23,-7.98,-9.55,-0.26,-0.31,-0.31
126.03,8.13,8.48,8.02,8.38,-8.38,-8.12,-9.56,-0.25,-0.36,-0.35
127.29,8.25,8.64,8.12,8.52,-8.52,-8.26,-9.56,-0.27,-0.40,-0.39
128.57,8.38,8.82,8.24,8.68,-8.68,-8.40,-9.54,-0.30,-0.44,-0.44
129.85,8.43,8.91,8.37,8.85,-8.85,-8.55,-9.51,-0.42,-0.48,-0.48
131.15,8.43,8.95,8.49,9.01,-9.01,-8.69,-9.47,-0.58,-0.53,-0.52
132.46,8.43,9.00,8.59,9.16,-9.16,-8.84,-9.42,-0.73,-0.57,-0.57
133.79,8.57,9.17,8.67,9.27,-9.27,-8.99,-9.36,-0.71,-0.61,-0.60
135.12,8.67,9.33,8.72,9.37,-9.37,-9.13,-9.29,-0.70,-0.65,-0.66
136.48,8.83,9.52,8.77,9.47,-9.47,-9.26,-9.21,-0.64,-0.69,-0.69
137.84,8.89,9.63,8.82,9.55,-9.55,-9.39,-9.13,-0.66,-0.74,-0.74
139.22,8.89,9.69,8.85,9.63,-9.63,-9.51,-9.04,-0.74,-0.78,-0.80
140.61,8.89,9.74,8.87,9.70,-9.70,-9.62,-8.94,-0.81,-0.83,-0.85
142.02,8.89,9.77,8.88,9.76,-9.76,-9.71,-8.85,-0.87,-0.88,-0.88
143.44,8.89,9.82,8.88,9.82,-9.82,-9.79,-8.75,-0.93,-0.94,-0.93
144.87,8.89,9.87,8.88,9.87,-9.87,-9.86,-8.64,-0.98,-1.00,-0.98
146.32,8.89,9.93,8.86,9.92,-9.92,-9.91,-8.54,-1.03,-1.06,-1.04
147.78,8.84,9.93,8.82,9.95,-9.95,-9.94,-8.44,-1.11,-1.13,-1.09
149.26,8.72,9.89,8.77,9.97,-9.97,-9.96,-8.33,-1.25,-1.20,-1.17
150.75,8.66,9.91,8.70,9.97,-9.97,-9.97,-8.23,-1.31,-1.27,-1.25
152.26,8.65,9.98,8.61,9.96,-9.96,-9.96,-8.13,-1.31,-1.35,-1.33
153.78,8.51,9.92,8.52,9.94,-9.94,-9.94,-8.04,-1.43,-1.43,-1.41
155.32,8.44,9.95,8.42,9.92,-9.92,-9.91,-7.94,-1.48,-1.50,-1.51
156.88,8.41,10.00,8.31,9.89,-9.89,-9.87,-7.85,-1.48,-1.58,-1.59
158.44,8.27,9.94,8.20,9.86,-9.86,-9.83,-7.77,-1.59,-1.66,-1.67
160.03,8.14,9.89,8.09,9.82,-9.82,-9.78,-7.68,-1.68,-1.73,-1.75
161.63,8.01,9.83,7.99,9.78,-9.78,-9.73,-7.60,-1.77,-1.80,-1.82
163.24,7.84,9.72,7.89,9.74,-9.74,-9.69,-7.53,-1.90,-1.86,-1.88
164.88,7.75,9.68,7.80,9.71,-9.71,-9.64,-7.46,-1.96,-1.91,-1.93
166.53,7.57,9.54,7.72,9.67,-9.67,-9.59,-7.40,-2.10,-1.95,-1.97
168.19,7.52,9.53,7.66,9.64,-9.64,-9.55,-7.34,-2.12,-1.98,-2.01
169.87,7.52,9.55,7.61,9.61,-9.61,-9.51,-7.28,-2.09,-2.01,-2.03
171.57,7.52,9.56,7.57,9.59,-9.59,-9.48,-7.23,-2.07,-2.02,-2.04
173.29,7.52,9.56,7.54,9.58,-9.58,-9.45,-7.19,-2.06,-2.04,-2.04
175.02,7.52,9.56,7.51,9.56,-9.56,-9.43,-7.15,-2.04,-2.05,-2.04
176.77,7.52,9.57,7.49,9.55,-9.55,-9.40,-7.12,-2.03,-2.05,-2.05
178.54,7.52,9.57,7.48,9.54,-9.54,-9.39,-7.09,-2.02,-2.06,-2.05
180.32,7.52,9.56,7.48,9.54,-9.54,-9.37,-7.07,-2.02,-2.06,-2.04
182.13,7.52,9.56,7.47,9.54,-9.54,-9.36,-7.05,-2.02,-2.07,-2.04
183.95,7.52,9.57,7.46,9.53,-9.53,-9.35,-7.04,-2.01,-2.08,-2.05
185.79,7.52,9.59,7.42,9.51,-9.51,-9.34,-7.03,-1.99,-2.09,-2.07
187.65,7.36,9.45,7.37,9.47,-9.47,-9.33,-7.03,-2.11,-2.10,-2.09
189.52,7.30,9.41,7.30,9.42,-9.42,-9.32,-7.03,-2.12,-2.11,-2.11
191.42,7.24,9.38,7.24,9.37,-9.37,-9.31,-7.04,-2.13,-2.13,-2.14
193.33,7.12,9.28,7.16,9.31,-9.31,-9.29,-7.05,-2.19,-2.15,-2.16
195.27,7.07,9.24,7.07,9.25,-9.25,-9.27,-7.07,-2.18,-2.18,-2.17
197.22,7.07,9.27,6.98,9.18,-9.18,-9.24,-7.09,-2.11,-2.20,-2.20
199.19,6.93,9.17,6.87,9.10,-9.10,-9.20,-7.11,-2.17,-2.22,-2.24
201.18,6.70,8.95,6.76,9.01,-9.01,-9.15,-7.14,-2.31,-2.25,-2.25
203.19,6.56,8.83,6.65,8.91,-8.91,-9.10,-7.17,-2.35,-2.27,-2.27
205.23,6.44,8.74,6.53,8.82,-8.82,-9.03,-7.20,-2.38,-2.29,-2.30
207.28,6.38,8.68,6.41,8.72,-8.72,-8.95,-7.24,-2.34,-2.31,-2.30
209.35,6.38,8.71,6.29,8.63,-8.63,-8.86,-7.28,-2.25,-2.33,-2.33
211.44,6.25,8.61,6.17,8.52,-8.52,-8.77,-7.31,-2.27,-2.35,-2.36
213.56,6.01,8.38,6.04,8.41,-8.41,-8.66,-7.35,-2.39,-2.37,-2.37
215.69,5.93,8.30,5.90,8.29,-8.29,-8.54,-7.39,-2.36,-2.38,-2.37
217.85,5.72,8.12,5.76,8.16,-8.16,-8.41,-7.43,-2.44,-2.40,-2.40
220.03,5.61,8.02,5.63,8.04,-8.04,-8.27,-7.46,-2.43,-2.41,-2.41
222.23,5.51,7.95,5.50,7.92,-7.92,-8.12,-7.50,-2.41,-2.43,-2.44
224.45,5.36,7.80,5.36,7.80,-7.80,-7.97,-7.53,-2.44,-2.44,-2.44
226.70,5.25,7.70,5.21,7.66,-7.66,-7.81,-7.56,-2.41,-2.45,-2.44
228.96,5.09,7.55,5.06,7.52,-7.52,-7.64,-7.58,-2.43,-2.46,-2.46
231.25,4.86,7.32,4.90,7.37,-7.37,-7.47,-7.60,-2.51,-2.47,-2.46
233.57,4.76,7.23,4.75,7.23,-7.23,-7.30,-7.61,-2.47,-2.47,-2.47
235.90,4.57,7.05,4.61,7.08,-7.08,-7.12,-7.61,-2.51,-2.48,-2.48
238.26,4.45,6.94,4.47,6.95,-6.95,-6.95,-7.61,-2.50,-2.48,-2.49
240.64,4.35,6.84,4.31,6.79,-6.79,-6.77,-7.60,-2.44,-2.48,-2.49
243.05,4.17,6.65,4.16,6.64,-6.64,-6.59,-7.58,-2.47,-2.48,-2.48
245.48,3.94,6.42,4.00,6.48,-6.48,-6.42,-7.55,-2.54,-2.48,-2.48
247.93,3.87,6.34,3.84,6.32,-6.32,-6.24,-7.51,-2.45,-2.48,-2.47
250.41,3.69,6.17,3.69,6.16,-6.16,-6.07,-7.46,-2.47,-2.47,-2.48
252.92,3.60,6.07,3.53,6.00,-6.00,-5.90,-7.40,-2.40,-2.47,-2.47
255.45,3.45,5.89,3.38,5.84,-5.84,-5.73,-7.34,-2.39,-2.46,-2.44
258.00,3.28,5.72,3.23,5.68,-5.68,-5.56,-7.26,-2.40,-2.45,-2.44
260.58,3.05,5.49,3.08,5.52,-5.52,-5.40,-7.17,-2.47,-2.44,-2.44
263.19,2.96,5.39,2.95,5.38,-5.38,-5.24,-7.08,-2.42,-2.43,-2.43
265.82,2.76,5.19,2.83,5.25,-5.25,-5.09,-6.97,-2.49,-2.42,-2.43
268.48,2.68,5.08,2.73,5.13,-5.13,-4.94,-6.86,-2.45,-2.40,-2.40
271.16,2.55,4.94,2.63,5.02,-5.02,-4.79,-6.74,-2.47,-2.39,-2.39
273.87,2.51,4.89,2.55,4.92,-4.92,-4.65,-6.61,-2.41,-2.37,-2.38
276.61,2.38,4.72,2.47,4.81,-4.81,-4.51,-6.48,-2.43,-2.35,-2.34
279.38,2.30,4.63,2.39,4.71,-4.71,-4.37,-6.34,-2.41,-2.33,-2.33
282.17,2.28,4.59,2.30,4.61,-4.61,-4.24,-6.20,-2.33,-2.30,-2.31
284.99,2.28,4.56,2.23,4.51,-4.51,-4.12,-6.06,-2.23,-2.28,-2.28
287.84,2.28,4.54,2.16,4.41,-4.41,-3.99,-5.91,-2.13,-2.25,-2.26
290.72,2.28,4.50,2.10,4.33,-4.33,-3.87,-5.75,-2.05,-2.23,-2.22
293.63,2.17,4.37,2.04,4.24,-4.24,-3.76,-5.60,-2.07,-2.20,-2.20
296.57,2.06,4.23,1.99,4.17,-4.17,-3.65,-5.44,-2.11,-2.17,-2.17
299.53,1.88,4.03,1.93,4.08,-4.08,-3.54,-5.29,-2.20,-2.15,-2.15
302.53,1.82,3.95,1.87,4.00,-4.00,-3.43,-5.13,-2.18,-2.13,-2.13
305.55,1.63,3.73,1.79,3.91,-3.91,-3.33,-4.97,-2.28,-2.11,-2.10
308.61,1.60,3.68,1.72,3.82,-3.82,-3.23,-4.82,-2.22,-2.09,-2.08
311.69,1.60,3.67,1.65,3.73,-3.73,-3.14,-4.66,-2.13,-2.08,-2.07
314.81,1.60,3.64,1.58,3.64,-3.64,-3.04,-4.50,-2.04,-2.07,-2.04
317.96,1.60,3.64,1.51,3.57,-3.57,-2.96,-4.35,-1.97,-2.06,-2.04
321.14,1.59,3.64,1.46,3.50,-3.50,-2.87,-4.20,-1.91,-2.05,-2.05
324.35,1.42,3.46,1.40,3.44,-3.44,-2.79,-4.04,-2.02,-2.04,-2.04
327.59,1.33,3.36,1.35,3.38,-3.38,-2.70,-3.89,-2.05,-2.03,-2.03
330.87,1.19,3.22,1.30,3.31,-3.31,-2.63,-3.74,-2.12,-2.02,-2.03
334.18,1.14,3.16,1.24,3.25,-3.25,-2.55,-3.60,-2.11,-2.01,-2.02
337.52,1.14,3.15,1.18,3.17,-3.17,-2.48,-3.45,-2.03,-2.00,-2.01
340.90,1.14,3.13,1.11,3.09,-3.09,-2.41,-3.31,-1.95,-1.99,-1.99
344.30,1.14,3.12,1.03,3.00,-3.00,-2.34,-3.17,-1.86,-1.97,-1.98
347.75,1.08,3.04,0.95,2.90,-2.90,-2.27,-3.03,-1.82,-1.95,-1.96
351.23,0.95,2.89,0.86,2.80,-2.80,-2.21,-2.89,-1.85,-1.94,-1.94
354.74,0.81,2.73,0.77,2.68,-2.68,-2.15,-2.76,-1.87,-1.91,-1.92
358.28,0.59,2.48,0.68,2.57,-2.57,-2.09,-2.62,-1.98,-1.89,-1.89
361.87,0.48,2.35,0.60,2.47,-2.47,-2.03,-2.49,-1.99,-1.87,-1.87
365.49,0.46,2.30,0.52,2.36,-2.36,-1.97,-2.36,-1.90,-1.85,-1.84
369.14,0.44,2.27,0.42,2.24,-2.24,-1.92,-2.24,-1.80,-1.82,-1.83
372.83,0.29,2.09,0.31,2.11,-2.11,-1.86,-2.11,-1.82,-1.80,-1.80
376.56,0.23,2.01,0.20,1.99,-1.99,-1.81,-1.99,-1.76,-1.78,-1.78
380.33,0.14,1.89,0.10,1.86,-1.86,-1.76,-1.86,-1.72,-1.77,-1.75
384.13,0.03,1.76,-0.00,1.75,-1.75,-1.71,-1.74,-1.72,-1.75,-1.73
387.97,-0.15,1.58,-0.09,1.64,-1.64,-1.67,-1.63,-1.79,-1.73,-1.73
391.85,-0.22,1.50,-0.18,1.54,-1.54,-1.62,-1.51,-1.76,-1.72,-1.72
395.77,-0.23,1.48,-0.27,1.44,-1.44,-1.58,-1.40,-1.67,-1.71,-1.71
399.73,-0.29,1.41,-0.37,1.33,-1.33,-1.54,-1.28,-1.62,-1.70,-1.70
403.72,-0.50,1.19,-0.47,1.22,-1.22,-1.49,-1.17,-1.72,-1.69,-1.69
407.76,-0.65,1.03,-0.57,1.11,-1.11,-1.45,-1.07,-1.76,-1.68,-1.68
411.84,-0.68,1.00,-0.67,1.01,-1.01,-1.41,-0.96,-1.69,-1.68,-1.68
415.96,-0.68,0.99,-0.76,0.91,-0.91,-1.38,-0.86,-1.59,-1.68,-1.67
420.12,-0.86,0.81,-0.86,0.82,-0.82,-1.34,-0.76,-1.68,-1.67,-1.67
424.32,-0.93,0.74,-0.95,0.72,-0.72,-1.30,-0.66,-1.65,-1.67,-1.67
428.56,-1.08,0.59,-1.04,0.63,-0.63,-1.27,-0.56,-1.71,-1.67,-1.67
432.85,-1.14,0.53,-1.13,0.53,-0.53,-1.23,-0.47,-1.67,-1.66,-1.67
437.18,-1.25,0.41,-1.23,0.43,-0.43,-1.20,-0.38,-1.68,-1.66,-1.66
441.55,-1.34,0.31,-1.32,0.34,-0.34,-1.17,-0.29,-1.68,-1.66,-1.65
445.96,-1.37,0.28,-1.40,0.25,-0.25,-1.14,-0.21,-1.62,-1.65,-1.65
450.42,-1.37,0.28,-1.47,0.17,-0.17,-1.11,-0.13,-1.54,-1.64,-1.65
454.93,-1.55,0.09,-1.54,0.09,-0.09,-1.08,-0.05,-1.64,-1.63,-1.64
459.48,-1.60,0.03,-1.61,0.01,-0.01,-1.05,0.02,-1.61,-1.62,-1.63
464.07,-1.69,-0.08,-1.67,-0.06,0.06,-1.02,0.09,-1.63,-1.61,-1.61
468.71,-1.79,-0.20,-1.71,-0.12,0.12,-0.99,0.16,-1.67,-1.59,-1.59
473.40,-1.82,-0.24,-1.75,-0.18,0.18,-0.97,0.22,-1.64,-1.57,-1.58
478.13,-1.82,-0.27,-1.78,-0.23,0.23,-0.94,0.28,-1.59,-1.55,-1.55
482.91,-1.82,-0.29,-1.80,-0.28,0.28,-0.92,0.33,-1.54,-1.53,-1.53
487.74,-1.82,-0.32,-1.82,-0.32,0.32,-0.89,0.38,-1.50,-1.50,-1.50
492.62,-1.82,-0.35,-1.84,-0.36,0.36,-0.87,0.42,-1.46,-1.48,-1.47
497.55,-1.82,-0.37,-1.85,-0.39,0.39,-0.84,0.46,-1.43,-1.45,-1.45
502.52,-1.82,-0.40,-1.85,-0.42,0.42,-0.82,0.49,-1.40,-1.43,-1.42
