frequency,raw,error,smoothed,error_smoothed,equalization,parametric_eq,fixed_band_eq,equalized_raw,equalized_smoothed,target
20.00,-22.43,-17.62,-22.44,-17.65,17.65,16.54,7.38,-4.78,-4.79,-4.81
20.20,-22.31,-17.59,-22.31,-17.60,17.60,16.62,7.54,-4.71,-4.71,-4.72
20.40,-22.18,-17.54,-22.19,-17.55,17.55,16.68,7.71,-4.63,-4.63,-4.64
20.61,-22.07,-17.49,-22.06,-17.50,17.50,16.75,7.88,-4.57,-4.56,-4.57
20.81,-21.93,-17.45,-21.94,-17.44,17.44,16.80,8.05,-4.49,-4.49,-4.48
21.02,-21.81,-17.41,-21.81,-17.38,17.38,16.85,8.23,-4.43,-4.43,-4.40
21.23,-21.68,-17.34,-21.68,-17.32,17.32,16.90,8.42,-4.36,-4.36,-4.34
21.44,-21.56,-17.28,-21.56,-17.26,17.26,16.93,8.61,-4.31,-4.30,-4.28
21.66,-21.44,-17.20,-21.43,-17.19,17.19,16.96,8.80,-4.25,-4.24,-4.23
21.87,-21.30,-17.12,-21.31,-17.12,17.12,16.99,9.00,-4.18,-4.19,-4.18
22.09,-21.18,-17.05,-21.18,-17.05,17.05,17.00,9.21,-4.14,-4.13,-4.13
22.31,-21.05,-16.97,-21.05,-16.97,16.97,17.01,9.42,-4.08,-4.08,-4.08
22.54,-20.93,-16.89,-20.93,-16.89,16.89,17.01,9.63,-4.04,-4.04,-4.04
22.76,-20.79,-16.79,-20.80,-16.80,16.80,17.01,9.85,-3.99,-4.00,-4.00
22.99,-20.67,-16.70,-20.67,-16.71,16.71,16.99,10.08,-3.96,-3.96,-3.97
23.22,-20.54,-16.61,-20.54,-16.62,16.62,16.97,10.32,-3.92,-3.92,-3.93
23.45,-20.41,-16.52,-20.42,-16.53,16.53,16.94,10.56,-3.88,-3.88,-3.89
23.69,-20.30,-16.45,-20.29,-16.44,16.44,16.91,10.81,-3.85,-3.85,-3.85
23.92,-20.16,-16.35,-20.16,-16.35,16.35,16.87,11.06,-3.81,-3.81,-3.81
24.16,-20.03,-16.27,-20.03,-16.26,16.26,16.82,11.33,-3.77,-3.77,-3.76
24.40,-19.90,-16.17,-19.91,-16.16,16.16,16.77,11.60,-3.74,-3.74,-3.73
24.65,-19.78,-16.06,-19.78,-16.07,16.07,16.71,11.87,-3.70,-3.71,-3.71
24.89,-19.65,-15.97,-19.65,-15.98,15.98,16.64,12.16,-3.67,-3.67,-3.68
25.14,-19.52,-15.88,-19.52,-15.88,15.88,16.57,12.45,-3.64,-3.64,-3.64
25.39,-19.39,-15.78,-19.40,-15.79,15.79,16.49,12.75,-3.60,-3.61,-3.61
25.65,-19.26,-15.69,-19.27,-15.69,15.69,16.41,13.06,-3.57,-3.57,-3.57
25.91,-19.15,-15.60,-19.14,-15.60,15.60,16.32,13.38,-3.55,-3.54,-3.55
26.16,-19.01,-15.49,-19.01,-15.50,15.50,16.23,13.70,-3.51,-3.51,-3.52
26.43,-18.89,-15.41,-18.89,-15.40,15.40,16.13,14.04,-3.48,-3.48,-3.48
26.69,-18.76,-15.31,-18.76,-15.31,15.31,16.03,14.38,-3.46,-3.45,-3.45
26.96,-18.64,-15.21,-18.63,-15.21,15.21,15.93,14.72,-3.43,-3.42,-3.42
27.23,-18.51,-15.12,-18.51,-15.11,15.11,15.82,15.07,-3.39,-3.39,-3.39
27.50,-18.38,-15.02,-18.38,-15.02,15.02,15.71,15.43,-3.36,-3.36,-3.36
27.77,-18.25,-14.91,-18.26,-14.92,14.92,15.59,15.78,-3.33,-3.33,-3.34
28.05,-18.13,-14.83,-18.13,-14.83,14.83,15.48,16.14,-3.31,-3.30,-3.30
28.33,-18.00,-14.72,-18.00,-14.73,14.73,15.36,16.49,-3.27,-3.27,-3.28
28.62,-17.89,-14.64,-17.88,-14.64,14.64,15.24,16.84,-3.25,-3.24,-3.25
28.90,-17.75,-14.54,-17.75,-14.54,14.54,15.12,17.17,-3.21,-3.21,-3.21
29.19,-17.63,-14.44,-17.63,-14.45,14.45,15.00,17.49,-3.19,-3.18,-3.19
29.48,-17.51,-14.37,-17.51,-14.35,14.35,14.87,17.79,-3.16,-3.16,-3.14
29.78,-17.39,-14.25,-17.39,-14.26,14.26,14.74,18.05,-3.12,-3.13,-3.13
30.08,-17.27,-14.17,-17.27,-14.17,14.17,14.62,18.28,-3.10,-3.10,-3.10
30.38,-17.15,-14.07,-17.15,-14.08,14.08,14.49,18.47,-3.07,-3.07,-3.07
30.68,-17.02,-13.98,-17.04,-13.99,13.99,14.36,18.61,-3.03,-3.05,-3.04
30.99,-16.92,-13.89,-16.92,-13.90,13.90,14.23,18.70,-3.01,-3.02,-3.02
31.30,-16.81,-13.80,-16.81,-13.81,13.81,14.10,18.73,-2.99,-2.99,-3.00
31.61,-16.69,-13.72,-16.69,-13.72,13.72,13.97,18.70,-2.97,-2.97,-2.97
31.93,-16.59,-13.64,-16.58,-13.63,13.63,13.84,18.62,-2.95,-2.95,-2.95
32.24,-16.47,-13.54,-16.47,-13.55,13.55,13.71,18.49,-2.93,-2.92,-2.93
32.57,-16.36,-13.46,-16.36,-13.46,13.46,13.58,18.31,-2.91,-2.90,-2.90
32.89,-16.25,-13.37,-16.25,-13.37,13.37,13.45,18.09,-2.89,-2.88,-2.88
33.22,-16.14,-13.28,-16.14,-13.28,13.28,13.32,17.84,-2.86,-2.86,-2.86
33.55,-16.03,-13.19,-16.03,-13.19,13.19,13.19,17.56,-2.84,-2.84,-2.84
33.89,-15.92,-13.09,-15.93,-13.10,13.10,13.06,17.27,-2.82,-2.83,-2.83
34.23,-15.81,-13.00,-15.82,-13.01,13.01,12.93,16.96,-2.81,-2.81,-2.81
34.57,-15.71,-12.91,-15.71,-12.91,12.91,12.80,16.64,-2.80,-2.80,-2.80
34.92,-15.61,-12.81,-15.61,-12.82,12.82,12.67,16.31,-2.79,-2.79,-2.79
35.27,-15.51,-12.73,-15.50,-12.72,12.72,12.54,15.98,-2.78,-2.78,-2.77
35.62,-15.40,-12.62,-15.40,-12.63,12.63,12.41,15.66,-2.78,-2.77,-2.78
35.97,-15.30,-12.53,-15.30,-12.53,12.53,12.29,15.33,-2.77,-2.77,-2.77
36.33,-15.19,-12.44,-15.19,-12.43,12.43,12.16,15.02,-2.76,-2.76,-2.75
36.70,-15.09,-12.33,-15.09,-12.33,12.33,12.04,14.71,-2.76,-2.76,-2.76
37.06,-14.98,-12.22,-14.99,-12.23,12.23,11.91,14.40,-2.75,-2.76,-2.76
37.43,-14.88,-12.12,-14.89,-12.13,12.13,11.79,14.10,-2.75,-2.76,-2.76
37.81,-14.78,-12.02,-14.78,-12.02,12.02,11.66,13.82,-2.76,-2.76,-2.76
38.19,-14.68,-11.92,-14.68,-11.92,11.92,11.54,13.54,-2.77,-2.76,-2.76
38.57,-14.58,-11.82,-14.58,-11.81,11.81,11.42,13.27,-2.77,-2.76,-2.76
38.95,-14.47,-11.71,-14.47,-11.71,11.71,11.30,13.00,-2.77,-2.77,-2.76
39.34,-14.37,-11.59,-14.37,-11.60,11.60,11.18,12.75,-2.77,-2.77,-2.78
39.74,-14.27,-11.49,-14.27,-11.49,11.49,11.06,12.50,-2.78,-2.78,-2.78
40.14,-14.17,-11.38,-14.17,-11.38,11.38,10.94,12.27,-2.78,-2.78,-2.79
40.54,-14.06,-11.27,-14.06,-11.28,11.28,10.82,12.04,-2.79,-2.79,-2.79
40.94,-13.95,-11.15,-13.96,-11.17,11.17,10.70,11.82,-2.79,-2.80,-2.80
41.35,-13.86,-11.06,-13.86,-11.06,11.06,10.59,11.61,-2.80,-2.80,-2.80
41.76,-13.76,-10.95,-13.76,-10.95,10.95,10.47,11.40,-2.81,-2.81,-2.81
42.18,-13.66,-10.84,-13.66,-10.84,10.84,10.35,11.20,-2.82,-2.82,-2.82
42.60,-13.56,-10.73,-13.57,-10.73,10.73,10.24,11.02,-2.83,-2.83,-2.83
43.03,-13.46,-10.63,-13.47,-10.63,10.63,10.13,10.83,-2.84,-2.84,-2.83
43.46,-13.37,-10.53,-13.37,-10.52,10.52,10.01,10.66,-2.85,-2.85,-2.84
43.90,-13.27,-10.41,-13.28,-10.42,10.42,9.90,10.49,-2.86,-2.86,-2.86
44.33,-13.18,-10.30,-13.18,-10.31,10.31,9.79,10.33,-2.87,-2.87,-2.88
44.78,-13.09,-10.20,-13.09,-10.21,10.21,9.68,10.18,-2.89,-2.88,-2.89
45.23,-12.99,-10.09,-13.00,-10.11,10.11,9.57,10.03,-2.89,-2.89,-2.90
45.68,-12.90,-9.99,-12.91,-10.00,10.00,9.46,9.89,-2.90,-2.90,-2.91
46.13,-12.81,-9.89,-12.81,-9.90,9.90,9.36,9.75,-2.91,-2.91,-2.92
46.60,-12.72,-9.80,-12.72,-9.80,9.80,9.25,9.62,-2.93,-2.92,-2.92
47.06,-12.63,-9.70,-12.63,-9.70,9.70,9.14,9.49,-2.94,-2.93,-2.93
47.53,-12.54,-9.60,-12.54,-9.60,9.60,9.04,9.37,-2.94,-2.94,-2.94
48.01,-12.45,-9.51,-12.45,-9.50,9.50,8.93,9.26,-2.95,-2.95,-2.94
48.49,-12.36,-9.41,-12.36,-9.41,9.41,8.83,9.15,-2.96,-2.96,-2.95
48.97,-12.27,-9.31,-12.27,-9.31,9.31,8.72,9.05,-2.96,-2.96,-2.96
49.46,-12.18,-9.20,-12.18,-9.22,9.22,8.62,8.95,-2.97,-2.97,-2.98
49.96,-12.09,-9.10,-12.10,-9.12,9.12,8.52,8.85,-2.97,-2.97,-2.99
50.46,-12.00,-9.02,-12.01,-9.03,9.03,8.42,8.76,-2.97,-2.98,-2.98
50.96,-11.92,-8.94,-11.92,-8.94,8.94,8.32,8.67,-2.98,-2.98,-2.98
51.47,-11.83,-8.84,-11.83,-8.85,8.85,8.22,8.58,-2.98,-2.98,-2.99
51.99,-11.74,-8.75,-11.75,-8.76,8.76,8.12,8.50,-2.99,-2.99,-2.99
52.51,-11.66,-8.67,-11.66,-8.67,8.67,8.02,8.42,-3.00,-2.99,-2.99
53.03,-11.57,-8.58,-11.58,-8.58,8.58,7.92,8.35,-3.00,-3.00,-2.99
53.56,-11.48,-8.49,-11.49,-8.49,8.49,7.83,8.27,-3.00,-3.00,-2.99
54.10,-11.40,-8.40,-11.41,-8.40,8.40,7.73,8.20,-3.01,-3.01,-3.00
54.64,-11.32,-8.31,-11.32,-8.31,8.31,7.63,8.13,-3.02,-3.02,-3.01
55.18,-11.24,-8.22,-11.24,-8.22,8.22,7.54,8.06,-3.03,-3.02,-3.02
55.74,-11.16,-8.12,-11.16,-8.12,8.12,7.45,7.99,-3.04,-3.03,-3.04
56.29,-11.07,-8.03,-11.07,-8.03,8.03,7.35,7.92,-3.05,-3.04,-3.04
56.86,-10.98,-7.92,-10.99,-7.93,7.93,7.26,7.85,-3.05,-3.06,-3.06
57.42,-10.90,-7.82,-10.91,-7.83,7.83,7.17,7.78,-3.07,-3.07,-3.08
58.00,-10.82,-7.73,-10.82,-7.73,7.73,7.08,7.71,-3.09,-3.09,-3.09
58.58,-10.74,-7.63,-10.74,-7.63,7.63,6.98,7.63,-3.11,-3.11,-3.11
59.16,-10.66,-7.54,-10.66,-7.53,7.53,6.89,7.56,-3.14,-3.13,-3.12
59.76,-10.57,-7.43,-10.58,-7.42,7.42,6.80,7.48,-3.15,-3.15,-3.14
60.35,-10.49,-7.32,-10.50,-7.32,7.32,6.71,7.41,-3.18,-3.18,-3.17
60.96,-10.41,-7.23,-10.42,-7.21,7.21,6.63,7.33,-3.20,-3.20,-3.18
61.57,-10.33,-7.10,-10.34,-7.11,7.11,6.54,7.24,-3.22,-3.22,-3.23
62.18,-10.26,-7.00,-10.26,-7.01,7.01,6.45,7.16,-3.25,-3.25,-3.26
62.80,-10.18,-6.91,-10.19,-6.91,6.91,6.36,7.07,-3.27,-3.27,-3.27
63.43,-10.11,-6.80,-10.11,-6.82,6.82,6.28,6.98,-3.30,-3.29,-3.31
64.07,-10.03,-6.70,-10.04,-6.72,6.72,6.19,6.89,-3.31,-3.31,-3.33
64.71,-9.95,-6.61,-9.97,-6.63,6.63,6.11,6.79,-3.32,-3.33,-3.34
65.35,-9.89,-6.53,-9.90,-6.55,6.55,6.02,6.69,-3.35,-3.35,-3.36
66.01,-9.83,-6.46,-9.83,-6.46,6.46,5.94,6.59,-3.37,-3.37,-3.37
66.67,-9.76,-6.38,-9.76,-6.38,6.38,5.86,6.49,-3.38,-3.38,-3.38
67.33,-9.69,-6.30,-9.69,-6.31,6.31,5.77,6.38,-3.39,-3.39,-3.39
68.01,-9.63,-6.23,-9.63,-6.23,6.23,5.69,6.27,-3.40,-3.40,-3.40
68.69,-9.56,-6.15,-9.56,-6.16,6.16,5.61,6.16,-3.41,-3.41,-3.41
69.37,-9.50,-6.09,-9.50,-6.09,6.09,5.53,6.05,-3.42,-3.41,-3.41
70.07,-9.43,-6.01,-9.44,-6.02,6.02,5.45,5.94,-3.42,-3.42,-3.42
70.77,-9.37,-5.95,-9.37,-5.94,5.94,5.37,5.83,-3.43,-3.43,-3.42
71.48,-9.31,-5.88,-9.31,-5.87,5.87,5.29,5.71,-3.44,-3.44,-3.43
72.19,-9.24,-5.79,-9.25,-5.80,5.80,5.21,5.60,-3.44,-3.45,-3.45
72.91,-9.18,-5.73,-9.19,-5.73,5.73,5.13,5.48,-3.46,-3.46,-3.45
73.64,-9.12,-5.65,-9.12,-5.65,5.65,5.05,5.37,-3.47,-3.47,-3.47
74.38,-9.06,-5.58,-9.06,-5.58,5.58,4.97,5.25,-3.49,-3.49,-3.48
75.12,-9.00,-5.50,-9.00,-5.50,5.50,4.89,5.14,-3.50,-3.50,-3.50
75.87,-8.94,-5.43,-8.94,-5.42,5.42,4.82,5.03,-3.52,-3.51,-3.51
76.63,-8.87,-5.35,-8.87,-5.35,5.35,4.74,4.92,-3.53,-3.52,-3.52
77.40,-8.80,-5.26,-8.81,-5.27,5.27,4.66,4.81,-3.53,-3.54,-3.54
78.17,-8.74,-5.18,-8.75,-5.20,5.20,4.59,4.70,-3.55,-3.55,-3.56
78.95,-8.68,-5.12,-8.68,-5.12,5.12,4.51,4.59,-3.56,-3.56,-3.56
79.74,-8.62,-5.05,-8.62,-5.05,5.05,4.44,4.48,-3.57,-3.57,-3.57
80.54,-8.55,-4.97,-8.56,-4.98,4.98,4.36,4.38,-3.57,-3.58,-3.58
81.35,-8.49,-4.90,-8.49,-4.91,4.91,4.29,4.28,-3.58,-3.58,-3.59
82.16,-8.43,-4.83,-8.43,-4.84,4.84,4.22,4.18,-3.59,-3.59,-3.60
82.98,-8.36,-4.77,-8.37,-4.78,4.78,4.14,4.08,-3.59,-3.59,-3.59
83.81,-8.30,-4.70,-8.30,-4.71,4.71,4.07,3.98,-3.59,-3.59,-3.60
84.65,-8.24,-4.63,-8.24,-4.65,4.65,4.00,3.88,-3.60,-3.60,-3.61
85.50,-8.19,-4.59,-8.18,-4.58,4.58,3.93,3.79,-3.61,-3.60,-3.60
86.35,-8.12,-4.52,-8.12,-4.52,4.52,3.86,3.70,-3.61,-3.60,-3.60
87.22,-8.05,-4.44,-8.06,-4.45,4.45,3.78,3.61,-3.60,-3.61,-3.61
88.09,-7.98,-4.37,-8.00,-4.38,4.38,3.71,3.53,-3.60,-3.62,-3.61
88.97,-7.93,-4.31,-7.94,-4.32,4.32,3.64,3.44,-3.62,-3.63,-3.62
89.86,-7.89,-4.26,-7.88,-4.25,4.25,3.57,3.36,-3.65,-3.64,-3.63
90.76,-7.83,-4.18,-7.83,-4.17,4.17,3.50,3.28,-3.66,-3.65,-3.65
91.66,-7.77,-4.10,-7.77,-4.09,4.09,3.43,3.20,-3.68,-3.67,-3.67
92.58,-7.71,-4.01,-7.71,-4.01,4.01,3.36,3.12,-3.70,-3.70,-3.70
93.51,-7.65,-3.93,-7.65,-3.92,3.92,3.29,3.05,-3.73,-3.73,-3.72
94.44,-7.59,-3.84,-7.60,-3.84,3.84,3.23,2.97,-3.76,-3.76,-3.75
95.39,-7.54,-3.75,-7.54,-3.74,3.74,3.16,2.90,-3.80,-3.80,-3.79
96.34,-7.48,-3.65,-7.49,-3.65,3.65,3.09,2.83,-3.83,-3.84,-3.83
97.30,-7.44,-3.55,-7.44,-3.55,3.55,3.02,2.76,-3.89,-3.89,-3.89
98.28,-7.40,-3.46,-7.40,-3.45,3.45,2.95,2.70,-3.95,-3.94,-3.94
99.26,-7.34,-3.35,-7.35,-3.35,3.35,2.88,2.63,-3.99,-3.99,-3.99
100.25,-7.28,-3.23,-7.30,-3.25,3.25,2.82,2.57,-4.04,-4.05,-4.05
101.25,-7.23,-3.12,-7.25,-3.15,3.15,2.75,2.51,-4.09,-4.11,-4.11
102.27,-7.18,-3.01,-7.21,-3.04,3.04,2.68,2.44,-4.14,-4.16,-4.17
103.29,-7.16,-2.93,-7.16,-2.94,2.94,2.62,2.38,-4.22,-4.22,-4.23
104.32,-7.14,-2.86,-7.12,-2.83,2.83,2.55,2.33,-4.31,-4.28,-4.28
105.37,-7.09,-2.74,-7.07,-2.73,2.73,2.48,2.27,-4.37,-4.34,-4.35
106.42,-7.03,-2.62,-7.02,-2.62,2.62,2.42,2.21,-4.41,-4.40,-4.41
107.48,-6.98,-2.52,-6.98,-2.52,2.52,2.35,2.16,-4.47,-4.46,-4.46
108.56,-6.93,-2.41,-6.93,-2.41,2.41,2.28,2.10,-4.52,-4.52,-4.52
109.64,-6.88,-2.30,-6.88,-2.31,2.31,2.22,2.05,-4.58,-4.58,-4.58
110.74,-6.84,-2.21,-6.83,-2.20,2.20,2.15,1.99,-4.64,-4.63,-4.63
111.85,-6.79,-2.12,-6.79,-2.10,2.10,2.09,1.94,-4.69,-4.68,-4.67
112.97,-6.72,-1.98,-6.73,-2.00,2.00,2.02,1.89,-4.72,-4.73,-4.74
114.10,-6.65,-1.87,-6.68,-1.90,1.90,1.95,1.83,-4.76,-4.78,-4.78
115.24,-6.60,-1.77,-6.62,-1.80,1.80,1.89,1.78,-4.81,-4.83,-4.83
116.39,-6.57,-1.69,-6.57,-1.70,1.70,1.82,1.73,-4.87,-4.87,-4.88
117.55,-6.54,-1.62,-6.52,-1.61,1.61,1.75,1.67,-4.93,-4.91,-4.92
118.73,-6.48,-1.52,-6.47,-1.52,1.52,1.69,1.62,-4.96,-4.95,-4.96
119.92,-6.42,-1.43,-6.42,-1.43,1.43,1.62,1.57,-4.99,-4.98,-4.99
121.12,-6.35,-1.33,-6.37,-1.35,1.35,1.56,1.52,-5.01,-5.02,-5.02
122.33,-6.31,-1.26,-6.32,-1.27,1.27,1.49,1.46,-5.05,-5.05,-5.05
123.55,-6.26,-1.18,-6.27,-1.19,1.19,1.42,1.41,-5.08,-5.08,-5.08
124.79,-6.20,-1.09,-6.22,-1.11,1.11,1.36,1.35,-5.10,-5.11,-5.11
126.03,-6.15,-1.02,-6.17,-1.03,1.03,1.29,1.30,-5.12,-5.14,-5.13
127.29,-6.13,-0.97,-6.13,-0.96,0.96,1.22,1.24,-5.18,-5.17,-5.16
128.57,-6.09,-0.89,-6.08,-0.88,0.88,1.15,1.19,-5.21,-5.20,-5.20
129.85,-6.04,-0.82,-6.03,-0.81,0.81,1.09,1.13,-5.24,-5.22,-5.22
131.15,-5.98,-0.73,-5.98,-0.73,0.73,1.02,1.07,-5.25,-5.25,-5.25
132.46,-5.95,-0.66,-5.94,-0.66,0.66,0.95,1.02,-5.29,-5.28,-5.29
133.79,-5.90,-0.59,-5.90,-0.59,0.59,0.88,0.96,-5.31,-5.31,-5.31
135.12,-5.85,-0.51,-5.86,-0.52,0.52,0.81,0.90,-5.33,-5.34,-5.34
136.48,-5.81,-0.44,-5.82,-0.45,0.45,0.74,0.84,-5.37,-5.38,-5.37
137.84,-5.76,-0.36,-5.78,-0.37,0.37,0.67,0.78,-5.39,-5.41,-5.40
139.22,-5.73,-0.28,-5.74,-0.30,0.30,0.60,0.72,-5.43,-5.44,-5.45
140.61,-5.70,-0.22,-5.70,-0.23,0.23,0.53,0.66,-5.47,-5.47,-5.48
142.02,-5.67,-0.17,-5.67,-0.16,0.16,0.46,0.59,-5.51,-5.51,-5.50
143.44,-5.64,-0.10,-5.63,-0.09,0.09,0.39,0.53,-5.55,-5.54,-5.54
144.87,-5.60,-0.02,-5.60,-0.02,0.02,0.32,0.47,-5.58,-5.58,-5.58
146.32,-5.57,0.05,-5.57,0.05,-0.05,0.24,0.40,-5.62,-5.61,-5.62
147.78,-5.52,0.13,-5.53,0.12,-0.12,0.17,0.34,-5.64,-5.65,-5.65
149.26,-5.48,0.20,-5.50,0.19,-0.19,0.10,0.27,-5.67,-5.69,-5.68
150.75,-5.45,0.28,-5.46,0.26,-0.26,0.02,0.21,-5.72,-5.73,-5.73
152.26,-5.43,0.34,-5.43,0.34,-0.34,-0.05,0.14,-5.77,-5.77,-5.77
153.78,-5.40,0.40,-5.39,0.42,-0.42,-0.13,0.07,-5.82,-5.81,-5.80
155.32,-5.38,0.47,-5.36,0.49,-0.49,-0.20,0.01,-5.88,-5.85,-5.85
156.88,-5.33,0.55,-5.32,0.57,-0.57,-0.28,-0.06,-5.91,-5.89,-5.88
158.44,-5.29,0.65,-5.29,0.65,-0.65,-0.36,-0.13,-5.94,-5.94,-5.94
160.03,-5.24,0.74,-5.25,0.73,-0.73,-0.43,-0.20,-5.97,-5.98,-5.98
161.63,-5.20,0.83,-5.22,0.81,-0.81,-0.51,-0.27,-6.01,-6.02,-6.03
163.24,-5.16,0.91,-5.18,0.89,-0.89,-0.59,-0.34,-6.05,-6.07,-6.07
164.88,-5.11,1.00,-5.14,0.97,-0.97,-0.67,-0.42,-6.08,-6.11,-6.11
166.53,-5.09,1.06,-5.10,1.05,-1.05,-0.75,-0.49,-6.14,-6.15,-6.15
168.19,-5.07,1.12,-5.06,1.13,-1.13,-0.83,-0.56,-6.21,-6.19,-6.19
169.87,-5.03,1.20,-5.02,1.21,-1.21,-0.91,-0.64,-6.25,-6.23,-6.23
171.57,-5.00,1.26,-4.98,1.29,-1.29,-0.99,-0.71,-6.30,-6.27,-6.26
173.29,-4.96,1.34,-4.93,1.37,-1.37,-1.07,-0.79,-6.33,-6.30,-6.30
175.02,-4.89,1.45,-4.90,1.44,-1.44,-1.15,-0.87,-6.33,-6.34,-6.34
176.77,-4.85,1.52,-4.86,1.51,-1.51,-1.23,-0.95,-6.36,-6.37,-6.37
178.54,-4.81,1.59,-4.83,1.57,-1.57,-1.31,-1.03,-6.38,-6.39,-6.40
180.32,-4.77,1.66,-4.79,1.63,-1.63,-1.40,-1.11,-6.40,-6.42,-6.43
182.13,-4.74,1.71,-4.76,1.69,-1.69,-1.48,-1.19,-6.43,-6.45,-6.45
183.95,-4.70,1.77,-4.73,1.74,-1.74,-1.56,-1.27,-6.44,-6.47,-6.47
185.79,-4.68,1.81,-4.70,1.79,-1.79,-1.64,-1.35,-6.48,-6.49,-6.49
187.65,-4.66,1.85,-4.67,1.84,-1.84,-1.72,-1.43,-6.50,-6.51,-6.51
189.52,-4.64,1.88,-4.65,1.88,-1.88,-1.79,-1.52,-6.52,-6.52,-6.52
191.42,-4.63,1.91,-4.62,1.92,-1.92,-1.87,-1.60,-6.55,-6.54,-6.54
193.33,-4.61,1.94,-4.60,1.95,-1.95,-1.95,-1.69,-6.57,-6.55,-6.55
195.27,-4.59,1.97,-4.58,1.98,-1.98,-2.02,-1.78,-6.58,-6.57,-6.56
197.22,-4.56,2.02,-4.56,2.02,-2.02,-2.09,-1.86,-6.58,-6.58,-6.58
199.19,-4.54,2.06,-4.54,2.05,-2.05,-2.17,-1.95,-6.59,-6.59,-6.60
201.18,-4.52,2.09,-4.52,2.08,-2.08,-2.24,-2.04,-6.61,-6.60,-6.61
203.19,-4.50,2.11,-4.50,2.12,-2.12,-2.30,-2.12,-6.62,-6.62,-6.61
205.23,-4.47,2.16,-4.47,2.16,-2.16,-2.37,-2.21,-6.63,-6.63,-6.63
207.28,-4.44,2.19,-4.44,2.20,-2.20,-2.43,-2.30,-6.64,-6.64,-6.63
209.35,-4.42,2.23,-4.41,2.24,-2.24,-2.49,-2.38,-6.66,-6.65,-6.65
211.44,-4.39,2.28,-4.38,2.28,-2.28,-2.55,-2.47,-6.68,-6.66,-6.67
213.56,-4.36,2.32,-4.35,2.33,-2.33,-2.60,-2.55,-6.69,-6.68,-6.68
215.69,-4.32,2.36,-4.32,2.37,-2.37,-2.65,-2.64,-6.70,-6.69,-6.68
217.85,-4.27,2.43,-4.28,2.42,-2.42,-2.70,-2.72,-6.69,-6.70,-6.70
220.03,-4.24,2.47,-4.25,2.46,-2.46,-2.74,-2.79,-6.71,-6.71,-6.71
222.23,-4.21,2.52,-4.21,2.51,-2.51,-2.79,-2.87,-6.72,-6.72,-6.73
224.45,-4.16,2.57,-4.18,2.56,-2.56,-2.82,-2.94,-6.72,-6.74,-6.73
226.70,-4.13,2.62,-4.15,2.60,-2.60,-2.86,-3.01,-6.74,-6.75,-6.75
228.96,-4.10,2.66,-4.12,2.65,-2.65,-2.89,-3.08,-6.75,-6.77,-6.76
231.25,-4.08,2.69,-4.09,2.69,-2.69,-2.92,-3.14,-6.78,-6.78,-6.77
233.57,-4.06,2.73,-4.06,2.74,-2.74,-2.94,-3.20,-6.80,-6.80,-6.79
235.90,-4.02,2.78,-4.03,2.78,-2.78,-2.96,-3.26,-6.80,-6.81,-6.80
238.26,-4.00,2.82,-4.00,2.82,-2.82,-2.98,-3.31,-6.82,-6.82,-6.82
240.64,-3.98,2.86,-3.98,2.86,-2.86,-2.99,-3.35,-6.84,-6.84,-6.84
243.05,-3.96,2.89,-3.95,2.89,-2.89,-3.01,-3.39,-6.86,-6.85,-6.85
245.48,-3.93,2.93,-3.93,2.93,-2.93,-3.02,-3.42,-6.86,-6.85,-6.86
247.93,-3.89,2.98,-3.90,2.96,-2.96,-3.02,-3.45,-6.86,-6.86,-6.87
250.41,-3.87,3.01,-3.87,2.99,-2.99,-3.03,-3.48,-6.87,-6.87,-6.88
252.92,-3.84,3.03,-3.84,3.02,-3.02,-3.03,-3.49,-6.87,-6.87,-6.87
255.45,-3.82,3.05,-3.81,3.05,-3.05,-3.03,-3.50,-6.87,-6.87,-6.87
258.00,-3.80,3.06,-3.79,3.07,-3.07,-3.03,-3.51,-6.88,-6.86,-6.86
260.58,-3.77,3.09,-3.76,3.09,-3.09,-3.03,-3.51,-6.87,-6.85,-6.86
263.19,-3.73,3.12,-3.74,3.11,-3.11,-3.03,-3.51,-6.84,-6.85,-6.85
265.82,-3.69,3.15,-3.72,3.12,-3.12,-3.03,-3.50,-6.81,-6.83,-6.84
268.48,-3.67,3.15,-3.70,3.13,-3.13,-3.02,-3.49,-6.80,-6.82,-6.82
271.16,-3.65,3.15,-3.68,3.13,-3.13,-3.02,-3.47,-6.78,-6.81,-6.80
273.87,-3.63,3.16,-3.66,3.13,-3.13,-3.01,-3.45,-6.77,-6.79,-6.79
276.61,-3.63,3.13,-3.64,3.13,-3.13,-3.01,-3.42,-6.77,-6.78,-6.76
279.38,-3.62,3.14,-3.63,3.14,-3.14,-3.00,-3.39,-6.76,-6.76,-6.76
282.17,-3.61,3.13,-3.61,3.14,-3.14,-2.99,-3.36,-6.75,-6.75,-6.74
284.99,-3.60,3.13,-3.59,3.14,-3.14,-2.99,-3.33,-6.75,-6.73,-6.73
287.84,-3.59,3.12,-3.57,3.14,-3.14,-2.98,-3.30,-6.74,-6.71,-6.71
290.72,-3.57,3.12,-3.55,3.15,-3.15,-2.97,-3.26,-6.72,-6.69,-6.69
293.63,-3.54,3.14,-3.53,3.15,-3.15,-2.97,-3.22,-6.69,-6.67,-6.68
296.57,-3.51,3.14,-3.50,3.15,-3.15,-2.96,-3.18,-6.67,-6.65,-6.65
299.53,-3.48,3.16,-3.47,3.16,-3.16,-2.96,-3.15,-6.65,-6.64,-6.64
302.53,-3.45,3.18,-3.45,3.17,-3.17,-2.95,-3.11,-6.62,-6.62,-6.63
305.55,-3.41,3.19,-3.42,3.18,-3.18,-2.95,-3.07,-6.59,-6.59,-6.60
308.61,-3.38,3.20,-3.39,3.18,-3.18,-2.95,-3.03,-6.57,-6.57,-6.58
311.69,-3.34,3.21,-3.37,3.19,-3.19,-2.94,-2.99,-6.53,-6.55,-6.55
314.81,-3.33,3.18,-3.35,3.18,-3.18,-2.94,-2.95,-6.52,-6.53,-6.51
317.96,-3.31,3.19,-3.33,3.18,-3.18,-2.94,-2.92,-6.49,-6.51,-6.50
321.14,-3.29,3.19,-3.31,3.17,-3.17,-2.94,-2.88,-6.46,-6.48,-6.48
324.35,-3.27,3.19,-3.31,3.16,-3.16,-2.94,-2.85,-6.43,-6.46,-6.46
327.59,-3.27,3.17,-3.30,3.14,-3.14,-2.94,-2.81,-6.41,-6.44,-6.44
330.87,-3.28,3.14,-3.30,3.12,-3.12,-2.94,-2.78,-6.40,-6.41,-6.42
334.18,-3.29,3.10,-3.30,3.09,-3.09,-2.94,-2.75,-6.39,-6.39,-6.39
337.52,-3.30,3.07,-3.30,3.07,-3.07,-2.94,-2.73,-6.37,-6.37,-6.37
340.90,-3.31,3.04,-3.30,3.05,-3.05,-2.95,-2.70,-6.36,-6.34,-6.35
344.30,-3.31,3.01,-3.29,3.03,-3.03,-2.95,-2.68,-6.34,-6.32,-6.32
347.75,-3.31,2.99,-3.29,3.01,-3.01,-2.95,-2.66,-6.32,-6.30,-6.30
351.23,-3.30,2.97,-3.28,2.99,-2.99,-2.96,-2.64,-6.30,-6.27,-6.27
354.74,-3.29,2.95,-3.27,2.98,-2.98,-2.96,-2.62,-6.27,-6.25,-6.24
358.28,-3.26,2.97,-3.25,2.97,-2.97,-2.97,-2.60,-6.23,-6.22,-6.23
361.87,-3.24,2.96,-3.23,2.97,-2.97,-2.98,-2.59,-6.21,-6.20,-6.20
365.49,-3.21,2.96,-3.21,2.97,-2.97,-2.98,-2.57,-6.18,-6.17,-6.17
369.14,-3.18,2.98,-3.18,2.97,-2.97,-2.99,-2.56,-6.16,-6.15,-6.16
372.83,-3.15,2.98,-3.15,2.98,-2.98,-3.00,-2.56,-6.13,-6.13,-6.13
376.56,-3.11,3.00,-3.12,2.99,-2.99,-3.01,-2.55,-6.10,-6.11,-6.11
380.33,-3.08,3.00,-3.09,3.00,-3.00,-3.02,-2.55,-6.08,-6.09,-6.08
384.13,-3.05,3.02,-3.06,3.01,-3.01,-3.02,-2.54,-6.06,-6.07,-6.07
387.97,-3.02,3.03,-3.03,3.02,-3.02,-3.03,-2.54,-6.04,-6.05,-6.05
391.85,-2.99,3.05,-3.01,3.02,-3.02,-3.04,-2.55,-6.02,-6.04,-6.04
395.77,-2.97,3.04,-2.99,3.03,-3.03,-3.05,-2.55,-6.00,-6.02,-6.01
