frequency,raw,error,smoothed,error_smoothed,equalization,parametric_eq,fixed_band_eq,equalized_raw,equalized_smoothed,target
20.00,-22.43,-17.62,-22.43,-17.63,17.63,16.85,7.35,-4.81,-4.81,-4.81
20.20,-22.31,-17.59,-22.31,-17.59,17.59,16.93,7.51,-4.72,-4.72,-4.72
20.40,-22.18,-17.54,-22.19,-17.55,17.55,16.99,7.68,-4.63,-4.64,-4.64
20.61,-22.07,-17.49,-22.06,-17.50,17.50,17.03,7.85,-4.56,-4.56,-4.57
20.81,-21.93,-17.45,-21.94,-17.45,17.45,17.07,8.02,-4.48,-4.48,-4.48
21.02,-21.81,-17.41,-21.81,-17.41,17.40,17.09,8.20,-4.41,-4.41,-4.40
21.23,-21.68,-17.34,-21.69,-17.35,17.34,17.10,8.38,-4.34,-4.35,-4.34
21.44,-21.56,-17.28,-21.56,-17.28,17.28,17.10,8.57,-4.29,-4.28,-4.28
21.66,-21.44,-17.20,-21.43,-17.20,17.21,17.08,8.76,-4.23,-4.23,-4.23
21.87,-21.30,-17.12,-21.31,-17.13,17.13,17.05,8.96,-4.17,-4.18,-4.18
22.09,-21.18,-17.05,-21.18,-17.05,17.05,17.02,9.16,-4.13,-4.13,-4.13
22.31,-21.05,-16.97,-21.05,-16.97,16.97,16.97,9.37,-4.08,-4.08,-4.08
22.54,-20.93,-16.89,-20.93,-16.89,16.88,16.91,9.58,-4.04,-4.04,-4.04
22.76,-20.79,-16.79,-20.80,-16.79,16.80,16.84,9.80,-4.00,-4.00,-4.00
22.99,-20.67,-16.70,-20.67,-16.70,16.71,16.77,10.02,-3.97,-3.96,-3.97
23.22,-20.54,-16.61,-20.54,-16.61,16.62,16.68,10.25,-3.92,-3.92,-3.93
23.45,-20.41,-16.52,-20.42,-16.53,16.53,16.59,10.49,-3.88,-3.89,-3.89
23.69,-20.30,-16.45,-20.29,-16.44,16.44,16.50,10.73,-3.85,-3.85,-3.85
23.92,-20.16,-16.35,-20.16,-16.36,16.35,16.40,10.98,-3.81,-3.81,-3.81
24.16,-20.03,-16.27,-20.03,-16.27,16.26,16.29,11.24,-3.77,-3.77,-3.76
24.40,-19.90,-16.17,-19.90,-16.17,16.17,16.18,11.50,-3.74,-3.74,-3.73
24.65,-19.78,-16.06,-19.78,-16.07,16.07,16.07,11.77,-3.70,-3.70,-3.71
24.89,-19.65,-15.97,-19.65,-15.97,15.98,15.96,12.05,-3.67,-3.67,-3.68
25.14,-19.52,-15.88,-19.52,-15.88,15.88,15.84,12.33,-3.64,-3.64,-3.64
25.39,-19.39,-15.78,-19.39,-15.79,15.79,15.73,12.62,-3.61,-3.61,-3.61
25.65,-19.26,-15.69,-19.27,-15.69,15.69,15.61,12.91,-3.57,-3.58,-3.57
25.91,-19.15,-15.60,-19.14,-15.59,15.59,15.49,13.21,-3.55,-3.55,-3.55
26.16,-19.01,-15.49,-19.01,-15.50,15.50,15.37,13.52,-3.51,-3.52,-3.52
26.43,-18.89,-15.41,-18.89,-15.40,15.40,15.25,13.84,-3.48,-3.48,-3.48
26.69,-18.76,-15.31,-18.76,-15.31,15.31,15.14,14.15,-3.46,-3.45,-3.45
26.96,-18.64,-15.21,-18.64,-15.22,15.21,15.02,14.48,-3.42,-3.42,-3.42
27.23,-18.51,-15.12,-18.51,-15.12,15.12,14.90,14.80,-3.39,-3.39,-3.39
27.50,-18.38,-15.02,-18.38,-15.02,15.02,14.79,15.12,-3.37,-3.36,-3.36
27.77,-18.25,-14.91,-18.26,-14.92,14.92,14.68,15.45,-3.33,-3.33,-3.34
28.05,-18.13,-14.83,-18.13,-14.82,14.83,14.57,15.77,-3.31,-3.30,-3.30
28.33,-18.00,-14.72,-18.01,-14.73,14.73,14.46,16.08,-3.27,-3.27,-3.28
28.62,-17.89,-14.64,-17.88,-14.63,14.64,14.35,16.39,-3.25,-3.25,-3.25
28.90,-17.75,-14.54,-17.76,-14.54,14.54,14.24,16.68,-3.21,-3.22,-3.21
29.19,-17.63,-14.44,-17.63,-14.45,14.45,14.14,16.95,-3.19,-3.19,-3.19
29.48,-17.51,-14.37,-17.51,-14.36,14.35,14.04,17.20,-3.16,-3.16,-3.14
29.78,-17.39,-14.25,-17.39,-14.26,14.26,13.94,17.42,-3.12,-3.13,-3.13
30.08,-17.27,-14.17,-17.26,-14.17,14.17,13.84,17.60,-3.10,-3.10,-3.10
30.38,-17.15,-14.07,-17.14,-14.07,14.08,13.75,17.75,-3.07,-3.07,-3.07
30.68,-17.02,-13.98,-17.03,-13.98,13.99,13.65,17.86,-3.04,-3.04,-3.04
30.99,-16.92,-13.89,-16.91,-13.89,13.90,13.56,17.92,-3.02,-3.02,-3.02
31.30,-16.81,-13.80,-16.80,-13.81,13.81,13.47,17.94,-3.00,-3.00,-3.00
31.61,-16.69,-13.72,-16.69,-13.72,13.72,13.39,17.91,-2.97,-2.97,-2.97
31.93,-16.59,-13.64,-16.58,-13.63,13.63,13.30,17.83,-2.95,-2.95,-2.95
32.24,-16.47,-13.54,-16.47,-13.55,13.55,13.22,17.72,-2.93,-2.93,-2.93
32.57,-16.36,-13.46,-16.36,-13.46,13.46,13.13,17.56,-2.91,-2.90,-2.90
32.89,-16.25,-13.37,-16.25,-13.37,13.37,13.05,17.37,-2.88,-2.88,-2.88
33.22,-16.14,-13.28,-16.14,-13.28,13.28,12.98,17.16,-2.86,-2.86,-2.86
33.55,-16.03,-13.19,-16.03,-13.19,13.19,12.90,16.92,-2.84,-2.84,-2.84
33.89,-15.92,-13.09,-15.92,-13.10,13.10,12.82,16.66,-2.83,-2.83,-2.83
34.23,-15.81,-13.00,-15.82,-13.00,13.01,12.75,16.39,-2.81,-2.81,-2.81
34.57,-15.71,-12.91,-15.71,-12.91,12.91,12.68,16.11,-2.80,-2.80,-2.80
34.92,-15.61,-12.81,-15.61,-12.82,12.82,12.60,15.83,-2.78,-2.79,-2.79
35.27,-15.51,-12.73,-15.51,-12.72,12.73,12.53,15.54,-2.78,-2.78,-2.77
35.62,-15.40,-12.62,-15.40,-12.63,12.63,12.46,15.25,-2.78,-2.77,-2.78
35.97,-15.30,-12.53,-15.30,-12.54,12.53,12.39,14.96,-2.77,-2.77,-2.77
36.33,-15.19,-12.44,-15.20,-12.43,12.43,12.32,14.68,-2.76,-2.76,-2.75
36.70,-15.09,-12.33,-15.09,-12.33,12.33,12.26,14.40,-2.76,-2.76,-2.76
37.06,-14.98,-12.22,-14.99,-12.23,12.23,12.19,14.12,-2.75,-2.75,-2.76
37.43,-14.88,-12.12,-14.88,-12.12,12.13,12.12,13.86,-2.75,-2.75,-2.76
37.81,-14.78,-12.02,-14.78,-12.02,12.03,12.05,13.59,-2.76,-2.76,-2.76
38.19,-14.68,-11.92,-14.68,-11.93,11.92,11.98,13.34,-2.76,-2.76,-2.76
38.57,-14.58,-11.82,-14.58,-11.82,11.81,11.91,13.09,-2.77,-2.77,-2.76
38.95,-14.47,-11.71,-14.48,-11.71,11.71,11.84,12.85,-2.77,-2.77,-2.76
39.34,-14.37,-11.59,-14.37,-11.60,11.60,11.77,12.62,-2.77,-2.77,-2.78
39.74,-14.27,-11.49,-14.27,-11.49,11.49,11.70,12.39,-2.78,-2.78,-2.78
40.14,-14.17,-11.38,-14.17,-11.38,11.38,11.63,12.18,-2.78,-2.78,-2.79
40.54,-14.06,-11.27,-14.06,-11.27,11.27,11.56,11.97,-2.79,-2.79,-2.79
40.94,-13.95,-11.15,-13.96,-11.16,11.16,11.49,11.77,-2.79,-2.80,-2.80
41.35,-13.86,-11.06,-13.86,-11.06,11.06,11.42,11.57,-2.81,-2.80,-2.80
41.76,-13.76,-10.95,-13.76,-10.95,10.95,11.34,11.38,-2.81,-2.81,-2.81
42.18,-13.66,-10.84,-13.66,-10.84,10.84,11.26,11.20,-2.82,-2.82,-2.82
42.60,-13.56,-10.73,-13.56,-10.74,10.74,11.19,11.03,-2.83,-2.83,-2.83
43.03,-13.46,-10.63,-13.47,-10.63,10.63,11.11,10.86,-2.83,-2.84,-2.83
43.46,-13.37,-10.53,-13.37,-10.53,10.52,11.03,10.71,-2.85,-2.85,-2.84
43.90,-13.27,-10.41,-13.28,-10.42,10.42,10.94,10.55,-2.86,-2.86,-2.86
44.33,-13.18,-10.30,-13.18,-10.31,10.31,10.86,10.41,-2.87,-2.88,-2.88
44.78,-13.09,-10.20,-13.09,-10.20,10.20,10.77,10.27,-2.89,-2.89,-2.89
45.23,-12.99,-10.09,-13.00,-10.10,10.10,10.69,10.13,-2.89,-2.90,-2.90
45.68,-12.90,-9.99,-12.90,-10.00,10.00,10.60,10.01,-2.91,-2.91,-2.91
46.13,-12.81,-9.89,-12.81,-9.90,9.90,10.51,9.89,-2.91,-2.91,-2.92
46.60,-12.72,-9.80,-12.72,-9.80,9.80,10.41,9.77,-2.92,-2.92,-2.92
47.06,-12.63,-9.70,-12.63,-9.70,9.70,10.32,9.66,-2.93,-2.93,-2.93
47.53,-12.54,-9.60,-12.54,-9.61,9.60,10.22,9.55,-2.94,-2.94,-2.94
48.01,-12.45,-9.51,-12.45,-9.51,9.50,10.12,9.45,-2.95,-2.95,-2.94
48.49,-12.36,-9.41,-12.36,-9.41,9.41,10.03,9.36,-2.96,-2.96,-2.95
48.97,-12.27,-9.31,-12.27,-9.31,9.31,9.92,9.27,-2.96,-2.96,-2.96
49.46,-12.18,-9.20,-12.18,-9.21,9.21,9.82,9.18,-2.97,-2.97,-2.98
49.96,-12.09,-9.10,-12.09,-9.11,9.12,9.72,9.10,-2.98,-2.98,-2.99
50.46,-12.00,-9.02,-12.01,-9.02,9.03,9.61,9.02,-2.98,-2.98,-2.98
50.96,-11.92,-8.94,-11.92,-8.93,8.93,9.51,8.95,-2.99,-2.99,-2.98
51.47,-11.83,-8.84,-11.83,-8.85,8.85,9.40,8.88,-2.99,-2.99,-2.99
51.99,-11.74,-8.75,-11.75,-8.76,8.76,9.29,8.81,-2.99,-2.99,-2.99
52.51,-11.66,-8.67,-11.66,-8.67,8.67,9.18,8.74,-2.99,-2.99,-2.99
53.03,-11.57,-8.58,-11.57,-8.58,8.58,9.07,8.68,-2.99,-2.99,-2.99
53.56,-11.48,-8.49,-11.49,-8.49,8.49,8.96,8.62,-2.99,-2.99,-2.99
54.10,-11.40,-8.40,-11.40,-8.40,8.40,8.85,8.56,-3.00,-3.00,-3.00
54.64,-11.32,-8.31,-11.32,-8.31,8.31,8.74,8.50,-3.01,-3.01,-3.01
55.18,-11.24,-8.22,-11.24,-8.22,8.22,8.62,8.44,-3.03,-3.03,-3.02
55.74,-11.16,-8.12,-11.16,-8.13,8.12,8.51,8.38,-3.04,-3.04,-3.04
56.29,-11.07,-8.03,-11.07,-8.03,8.03,8.40,8.32,-3.05,-3.05,-3.04
56.86,-10.98,-7.92,-10.99,-7.93,7.93,8.28,8.26,-3.05,-3.06,-3.06
57.42,-10.90,-7.82,-10.90,-7.83,7.83,8.17,8.20,-3.07,-3.07,-3.08
58.00,-10.82,-7.73,-10.82,-7.73,7.73,8.05,8.14,-3.09,-3.09,-3.09
58.58,-10.74,-7.63,-10.74,-7.64,7.63,7.94,8.07,-3.11,-3.11,-3.11
59.16,-10.66,-7.54,-10.66,-7.54,7.53,7.83,8.01,-3.13,-3.13,-3.12
59.76,-10.57,-7.43,-10.58,-7.44,7.43,7.71,7.94,-3.15,-3.15,-3.14
60.35,-10.49,-7.32,-10.49,-7.33,7.33,7.60,7.86,-3.17,-3.17,-3.17
60.96,-10.41,-7.23,-10.41,-7.22,7.22,7.48,7.79,-3.19,-3.19,-3.18
61.57,-10.33,-7.10,-10.34,-7.11,7.11,7.37,7.71,-3.22,-3.22,-3.23
62.18,-10.26,-7.00,-10.26,-7.01,7.01,7.26,7.62,-3.25,-3.25,-3.26
62.80,-10.18,-6.91,-10.19,-6.90,6.91,7.15,7.54,-3.28,-3.28,-3.27
63.43,-10.11,-6.80,-10.11,-6.80,6.81,7.04,7.45,-3.31,-3.30,-3.31
64.07,-10.03,-6.70,-10.03,-6.71,6.71,6.92,7.35,-3.32,-3.32,-3.33
64.71,-9.95,-6.61,-9.96,-6.62,6.62,6.81,7.25,-3.33,-3.34,-3.34
65.35,-9.89,-6.53,-9.89,-6.54,6.54,6.71,7.15,-3.36,-3.36,-3.36
66.01,-9.83,-6.46,-9.83,-6.46,6.46,6.60,7.04,-3.38,-3.37,-3.37
66.67,-9.76,-6.38,-9.76,-6.38,6.38,6.49,6.93,-3.39,-3.39,-3.38
67.33,-9.69,-6.30,-9.70,-6.31,6.30,6.38,6.82,-3.39,-3.39,-3.39
68.01,-9.63,-6.23,-9.63,-6.23,6.23,6.28,6.71,-3.40,-3.40,-3.40
68.69,-9.56,-6.15,-9.57,-6.16,6.16,6.17,6.59,-3.40,-3.40,-3.41
69.37,-9.50,-6.09,-9.50,-6.09,6.09,6.07,6.47,-3.41,-3.41,-3.41
70.07,-9.43,-6.01,-9.44,-6.02,6.02,5.96,6.35,-3.42,-3.42,-3.42
70.77,-9.37,-5.95,-9.37,-5.95,5.95,5.86,6.22,-3.43,-3.43,-3.42
71.48,-9.31,-5.88,-9.31,-5.88,5.88,5.76,6.10,-3.44,-3.43,-3.43
72.19,-9.24,-5.79,-9.25,-5.80,5.80,5.66,5.97,-3.44,-3.44,-3.45
72.91,-9.18,-5.73,-9.18,-5.73,5.73,5.56,5.85,-3.45,-3.45,-3.45
73.64,-9.12,-5.65,-9.12,-5.65,5.66,5.46,5.72,-3.47,-3.47,-3.47
74.38,-9.06,-5.58,-9.06,-5.58,5.58,5.36,5.60,-3.48,-3.49,-3.48
75.12,-9.00,-5.50,-9.00,-5.51,5.50,5.26,5.47,-3.50,-3.50,-3.50
75.87,-8.94,-5.43,-8.94,-5.43,5.43,5.17,5.35,-3.52,-3.51,-3.51
76.63,-8.87,-5.35,-8.87,-5.35,5.35,5.07,5.22,-3.52,-3.53,-3.52
77.40,-8.80,-5.26,-8.81,-5.27,5.27,4.98,5.10,-3.53,-3.54,-3.54
78.17,-8.74,-5.18,-8.74,-5.19,5.20,4.89,4.98,-3.55,-3.55,-3.56
78.95,-8.68,-5.12,-8.68,-5.12,5.12,4.79,4.86,-3.56,-3.56,-3.56
79.74,-8.62,-5.05,-8.62,-5.05,5.05,4.70,4.74,-3.58,-3.57,-3.57
80.54,-8.55,-4.97,-8.56,-4.98,4.97,4.61,4.63,-3.58,-3.58,-3.58
81.35,-8.49,-4.90,-8.49,-4.90,4.91,4.52,4.51,-3.59,-3.59,-3.59
82.16,-8.43,-4.83,-8.43,-4.84,4.84,4.43,4.40,-3.59,-3.59,-3.60
82.98,-8.36,-4.77,-8.37,-4.77,4.77,4.35,4.29,-3.59,-3.59,-3.59
83.81,-8.30,-4.70,-8.31,-4.70,4.71,4.26,4.18,-3.60,-3.60,-3.60
84.65,-8.24,-4.63,-8.25,-4.65,4.64,4.17,4.07,-3.60,-3.60,-3.61
85.50,-8.19,-4.59,-8.19,-4.58,4.58,4.09,3.97,-3.62,-3.61,-3.60
86.35,-8.12,-4.52,-8.12,-4.52,4.52,4.00,3.87,-3.61,-3.61,-3.60
87.22,-8.05,-4.44,-8.05,-4.45,4.45,3.92,3.77,-3.60,-3.60,-3.61
88.09,-7.98,-4.37,-7.99,-4.38,4.39,3.84,3.67,-3.60,-3.60,-3.61
88.97,-7.93,-4.31,-7.94,-4.32,4.32,3.76,3.57,-3.61,-3.62,-3.62
89.86,-7.89,-4.26,-7.89,-4.25,4.25,3.67,3.48,-3.64,-3.64,-3.63
90.76,-7.83,-4.18,-7.83,-4.18,4.18,3.59,3.39,-3.66,-3.66,-3.65
91.66,-7.77,-4.10,-7.78,-4.10,4.10,3.51,3.30,-3.68,-3.68,-3.67
92.58,-7.71,-4.01,-7.71,-4.02,4.02,3.43,3.21,-3.70,-3.69,-3.70
93.51,-7.65,-3.93,-7.65,-3.93,3.93,3.36,3.13,-3.72,-3.72,-3.72
94.44,-7.59,-3.84,-7.60,-3.84,3.85,3.28,3.04,-3.75,-3.75,-3.75
95.39,-7.54,-3.75,-7.54,-3.75,3.75,3.20,2.96,-3.79,-3.79,-3.79
96.34,-7.48,-3.65,-7.49,-3.66,3.65,3.12,2.88,-3.83,-3.84,-3.83
97.30,-7.44,-3.55,-7.44,-3.56,3.55,3.05,2.80,-3.89,-3.89,-3.89
98.28,-7.40,-3.46,-7.40,-3.46,3.45,2.97,2.73,-3.96,-3.95,-3.94
99.26,-7.34,-3.35,-7.34,-3.35,3.35,2.89,2.65,-4.00,-4.00,-3.99
100.25,-7.28,-3.23,-7.29,-3.24,3.24,2.82,2.58,-4.04,-4.04,-4.05
101.25,-7.23,-3.12,-7.23,-3.12,3.14,2.74,2.51,-4.09,-4.09,-4.11
102.27,-7.18,-3.01,-7.19,-3.03,3.04,2.67,2.44,-4.15,-4.16,-4.17
103.29,-7.16,-2.93,-7.16,-2.94,2.93,2.60,2.37,-4.23,-4.23,-4.23
104.32,-7.14,-2.86,-7.13,-2.84,2.83,2.52,2.30,-4.31,-4.30,-4.28
105.37,-7.09,-2.74,-7.09,-2.75,2.73,2.45,2.23,-4.36,-4.36,-4.35
106.42,-7.03,-2.62,-7.04,-2.63,2.63,2.38,2.17,-4.40,-4.41,-4.41
107.48,-6.98,-2.52,-6.98,-2.52,2.53,2.30,2.11,-4.46,-4.46,-4.46
108.56,-6.93,-2.41,-6.93,-2.41,2.42,2.23,2.04,-4.51,-4.51,-4.52
109.64,-6.88,-2.30,-6.89,-2.32,2.31,2.16,1.98,-4.57,-4.58,-4.58
110.74,-6.84,-2.21,-6.84,-2.21,2.20,2.09,1.92,-4.64,-4.64,-4.63
111.85,-6.79,-2.12,-6.79,-2.11,2.10,2.01,1.86,-4.70,-4.69,-4.67
112.97,-6.72,-1.98,-6.72,-1.99,1.99,1.94,1.80,-4.73,-4.73,-4.74
114.10,-6.65,-1.87,-6.66,-1.88,1.89,1.87,1.74,-4.76,-4.77,-4.78
115.24,-6.60,-1.77,-6.61,-1.78,1.80,1.80,1.68,-4.81,-4.82,-4.83
116.39,-6.57,-1.69,-6.57,-1.70,1.70,1.73,1.62,-4.88,-4.87,-4.88
117.55,-6.54,-1.62,-6.53,-1.61,1.60,1.66,1.57,-4.94,-4.93,-4.92
118.73,-6.48,-1.52,-6.48,-1.52,1.51,1.59,1.51,-4.97,-4.97,-4.96
119.92,-6.42,-1.43,-6.42,-1.43,1.43,1.51,1.45,-5.00,-5.00,-4.99
121.12,-6.35,-1.33,-6.36,-1.34,1.34,1.44,1.39,-5.01,-5.02,-5.02
122.33,-6.31,-1.26,-6.31,-1.26,1.26,1.37,1.34,-5.05,-5.05,-5.05
123.55,-6.26,-1.18,-6.26,-1.18,1.19,1.30,1.28,-5.08,-5.07,-5.08
124.79,-6.20,-1.09,-6.21,-1.10,1.11,1.23,1.22,-5.10,-5.10,-5.11
126.03,-6.15,-1.02,-6.16,-1.03,1.03,1.16,1.17,-5.12,-5.13,-5.13
127.29,-6.13,-0.97,-6.13,-0.96,0.96,1.09,1.11,-5.18,-5.17,-5.16
128.57,-6.09,-0.89,-6.09,-0.90,0.89,1.02,1.05,-5.21,-5.20,-5.20
129.85,-6.04,-0.82,-6.04,-0.82,0.81,0.94,1.00,-5.23,-5.23,-5.22
131.15,-5.98,-0.73,-5.99,-0.74,0.74,0.87,0.94,-5.24,-5.26,-5.25
132.46,-5.95,-0.66,-5.95,-0.66,0.66,0.80,0.88,-5.29,-5.28,-5.29
133.79,-5.90,-0.59,-5.90,-0.59,0.59,0.73,0.82,-5.31,-5.31,-5.31
135.12,-5.85,-0.51,-5.86,-0.52,0.51,0.66,0.76,-5.34,-5.34,-5.34
136.48,-5.81,-0.44,-5.81,-0.44,0.44,0.59,0.71,-5.37,-5.37,-5.37
137.84,-5.76,-0.36,-5.77,-0.36,0.37,0.51,0.65,-5.39,-5.40,-5.40
139.22,-5.73,-0.28,-5.73,-0.29,0.30,0.44,0.59,-5.43,-5.43,-5.45
140.61,-5.70,-0.22,-5.70,-0.23,0.23,0.37,0.53,-5.47,-5.47,-5.48
142.02,-5.67,-0.17,-5.67,-0.17,0.16,0.30,0.47,-5.51,-5.51,-5.50
143.44,-5.64,-0.10,-5.64,-0.10,0.09,0.23,0.41,-5.55,-5.55,-5.54
144.87,-5.60,-0.02,-5.61,-0.03,0.02,0.15,0.35,-5.58,-5.59,-5.58
146.32,-5.57,0.05,-5.57,0.05,-0.05,0.08,0.28,-5.62,-5.62,-5.62
147.78,-5.52,0.13,-5.53,0.13,-0.12,0.01,0.22,-5.64,-5.64,-5.65
149.26,-5.48,0.20,-5.49,0.20,-0.19,-0.06,0.16,-5.67,-5.68,-5.68
150.75,-5.45,0.28,-5.45,0.27,-0.26,-0.14,0.10,-5.71,-5.71,-5.73
152.26,-5.43,0.34,-5.43,0.33,-0.33,-0.21,0.03,-5.77,-5.76,-5.77
153.78,-5.40,0.40,-5.41,0.40,-0.41,-0.28,-0.03,-5.81,-5.82,-5.80
155.32,-5.38,0.47,-5.38,0.47,-0.49,-0.36,-0.10,-5.87,-5.86,-5.85
156.88,-5.33,0.55,-5.34,0.55,-0.57,-0.43,-0.16,-5.90,-5.90,-5.88
158.44,-5.29,0.65,-5.29,0.64,-0.65,-0.50,-0.23,-5.94,-5.94,-5.94
160.03,-5.24,0.74,-5.25,0.73,-0.73,-0.57,-0.29,-5.98,-5.98,-5.98
161.63,-5.20,0.83,-5.20,0.83,-0.81,-0.65,-0.36,-6.02,-6.02,-6.03
163.24,-5.16,0.91,-5.16,0.91,-0.89,-0.72,-0.43,-6.06,-6.05,-6.07
164.88,-5.11,1.00,-5.12,0.99,-0.97,-0.79,-0.50,-6.09,-6.10,-6.11
166.53,-5.09,1.06,-5.09,1.06,-1.05,-0.86,-0.57,-6.15,-6.15,-6.15
168.19,-5.07,1.12,-5.07,1.12,-1.13,-0.94,-0.64,-6.20,-6.19,-6.19
169.87,-5.03,1.20,-5.04,1.19,-1.20,-1.01,-0.71,-6.24,-6.25,-6.23
171.57,-5.00,1.26,-5.00,1.26,-1.28,-1.08,-0.78,-6.28,-6.28,-6.26
173.29,-4.96,1.34,-4.95,1.35,-1.36,-1.15,-0.86,-6.32,-6.31,-6.30
175.02,-4.89,1.45,-4.90,1.43,-1.43,-1.22,-0.93,-6.33,-6.34,-6.34
176.77,-4.85,1.52,-4.85,1.52,-1.51,-1.29,-1.01,-6.36,-6.36,-6.37
178.54,-4.81,1.59,-4.81,1.59,-1.58,-1.36,-1.08,-6.39,-6.39,-6.40
180.32,-4.77,1.66,-4.78,1.65,-1.65,-1.43,-1.16,-6.42,-6.42,-6.43
182.13,-4.74,1.71,-4.74,1.71,-1.71,-1.50,-1.24,-6.45,-6.45,-6.45
183.95,-4.70,1.77,-4.71,1.76,-1.76,-1.57,-1.32,-6.46,-6.47,-6.47
185.79,-4.68,1.81,-4.68,1.81,-1.80,-1.63,-1.40,-6.49,-6.49,-6.49
187.65,-4.66,1.85,-4.66,1.85,-1.84,-1.70,-1.48,-6.51,-6.50,-6.51
189.52,-4.64,1.88,-4.65,1.88,-1.88,-1.77,-1.56,-6.52,-6.53,-6.52
191.42,-4.63,1.91,-4.63,1.91,-1.91,-1.83,-1.64,-6.55,-6.54,-6.54
193.33,-4.61,1.94,-4.61,1.94,-1.95,-1.89,-1.73,-6.56,-6.56,-6.55
195.27,-4.59,1.97,-4.59,1.97,-1.98,-1.96,-1.81,-6.57,-6.57,-6.56
197.22,-4.56,2.02,-4.57,2.01,-2.01,-2.02,-1.90,-6.58,-6.58,-6.58
199.19,-4.54,2.06,-4.55,2.05,-2.04,-2.08,-1.98,-6.59,-6.59,-6.60
201.18,-4.52,2.09,-4.52,2.09,-2.08,-2.14,-2.07,-6.60,-6.60,-6.61
203.19,-4.50,2.11,-4.50,2.12,-2.12,-2.20,-2.15,-6.62,-6.62,-6.61
205.23,-4.47,2.16,-4.47,2.15,-2.15,-2.25,-2.24,-6.63,-6.63,-6.63
207.28,-4.44,2.19,-4.45,2.19,-2.19,-2.31,-2.32,-6.64,-6.64,-6.63
209.35,-4.42,2.23,-4.42,2.23,-2.23,-2.36,-2.40,-6.66,-6.65,-6.65
211.44,-4.39,2.28,-4.39,2.27,-2.27,-2.42,-2.49,-6.67,-6.67,-6.67
213.56,-4.36,2.32,-4.36,2.32,-2.32,-2.47,-2.57,-6.68,-6.68,-6.68
215.69,-4.32,2.36,-4.32,2.37,-2.37,-2.52,-2.65,-6.69,-6.69,-6.68
217.85,-4.27,2.43,-4.28,2.42,-2.42,-2.56,-2.73,-6.69,-6.70,-6.70
220.03,-4.24,2.47,-4.24,2.47,-2.47,-2.61,-2.81,-6.71,-6.71,-6.71
222.23,-4.21,2.52,-4.21,2.52,-2.51,-2.65,-2.88,-6.73,-6.72,-6.73
224.45,-4.16,2.57,-4.17,2.57,-2.56,-2.70,-2.95,-6.73,-6.73,-6.73
226.70,-4.13,2.62,-4.13,2.61,-2.61,-2.74,-3.02,-6.74,-6.74,-6.75
228.96,-4.10,2.66,-4.11,2.65,-2.65,-2.78,-3.09,-6.76,-6.76,-6.76
231.25,-4.08,2.69,-4.08,2.69,-2.69,-2.81,-3.15,-6.78,-6.78,-6.77
233.57,-4.06,2.73,-4.06,2.73,-2.73,-2.85,-3.21,-6.80,-6.79,-6.79
235.90,-4.02,2.78,-4.03,2.77,-2.78,-2.88,-3.26,-6.80,-6.81,-6.80
238.26,-4.00,2.82,-4.01,2.82,-2.82,-2.91,-3.31,-6.82,-6.82,-6.82
240.64,-3.98,2.86,-3.98,2.85,-2.86,-2.94,-3.35,-6.84,-6.84,-6.84
243.05,-3.96,2.89,-3.96,2.89,-2.89,-2.97,-3.39,-6.86,-6.85,-6.85
245.48,-3.93,2.93,-3.93,2.93,-2.93,-3.00,-3.42,-6.86,-6.86,-6.86
247.93,-3.89,2.98,-3.90,2.97,-2.96,-3.02,-3.45,-6.86,-6.86,-6.87
250.41,-3.87,3.01,-3.87,3.00,-2.99,-3.04,-3.47,-6.87,-6.86,-6.88
252.92,-3.84,3.03,-3.85,3.03,-3.02,-3.06,-3.49,-6.87,-6.87,-6.87
255.45,-3.82,3.05,-3.83,3.04,-3.05,-3.08,-3.50,-6.88,-6.88,-6.87
258.00,-3.80,3.06,-3.80,3.06,-3.08,-3.10,-3.51,-6.88,-6.88,-6.86
260.58,-3.77,3.09,-3.77,3.09,-3.10,-3.11,-3.51,-6.87,-6.87,-6.86
263.19,-3.73,3.12,-3.73,3.12,-3.11,-3.13,-3.50,-6.85,-6.85,-6.85
265.82,-3.69,3.15,-3.70,3.14,-3.13,-3.14,-3.49,-6.82,-6.83,-6.84
268.48,-3.67,3.15,-3.67,3.15,-3.14,-3.15,-3.48,-6.81,-6.81,-6.82
271.16,-3.65,3.15,-3.65,3.15,-3.14,-3.16,-3.46,-6.80,-6.79,-6.80
273.87,-3.63,3.16,-3.64,3.14,-3.14,-3.16,-3.44,-6.78,-6.78,-6.79
276.61,-3.63,3.13,-3.63,3.14,-3.14,-3.17,-3.42,-6.77,-6.77,-6.76
279.38,-3.62,3.14,-3.62,3.13,-3.14,-3.17,-3.39,-6.76,-6.76,-6.76
282.17,-3.61,3.13,-3.62,3.13,-3.13,-3.18,-3.36,-6.74,-6.75,-6.74
284.99,-3.60,3.13,-3.61,3.12,-3.13,-3.18,-3.33,-6.73,-6.73,-6.73
287.84,-3.59,3.12,-3.59,3.12,-3.12,-3.18,-3.29,-6.72,-6.72,-6.71
290.72,-3.57,3.12,-3.57,3.12,-3.13,-3.18,-3.26,-6.70,-6.70,-6.69
293.63,-3.54,3.14,-3.55,3.13,-3.14,-3.18,-3.22,-6.68,-6.68,-6.68
296.57,-3.51,3.14,-3.52,3.14,-3.15,-3.17,-3.18,-6.66,-6.66,-6.65
299.53,-3.48,3.16,-3.48,3.16,-3.16,-3.17,-3.14,-6.64,-6.64,-6.64
302.53,-3.45,3.18,-3.45,3.17,-3.17,-3.17,-3.11,-6.62,-6.62,-6.63
305.55,-3.41,3.19,-3.41,3.19,-3.18,-3.16,-3.07,-6.59,-6.59,-6.60
308.61,-3.38,3.20,-3.38,3.20,-3.19,-3.16,-3.03,-6.57,-6.57,-6.58
311.69,-3.34,3.21,-3.35,3.19,-3.20,-3.15,-2.99,-6.54,-6.55,-6.55
314.81,-3.33,3.18,-3.33,3.19,-3.20,-3.14,-2.95,-6.53,-6.53,-6.51
317.96,-3.31,3.19,-3.31,3.19,-3.19,-3.14,-2.92,-6.51,-6.50,-6.50
321.14,-3.29,3.19,-3.29,3.18,-3.18,-3.13,-2.88,-6.48,-6.48,-6.48
324.35,-3.27,3.19,-3.28,3.18,-3.17,-3.12,-2.85,-6.44,-6.45,-6.46
327.59,-3.27,3.17,-3.28,3.16,-3.15,-3.11,-2.82,-6.42,-6.43,-6.44
330.87,-3.28,3.14,-3.28,3.14,-3.13,-3.11,-2.79,-6.41,-6.41,-6.42
334.18,-3.29,3.10,-3.29,3.10,-3.10,-3.10,-2.76,-6.39,-6.39,-6.39
337.52,-3.30,3.07,-3.30,3.07,-3.07,-3.09,-2.73,-6.37,-6.37,-6.37
340.90,-3.31,3.04,-3.31,3.03,-3.04,-3.08,-2.71,-6.35,-6.35,-6.35
344.30,-3.31,3.01,-3.31,3.01,-3.01,-3.07,-2.68,-6.33,-6.33,-6.32
347.75,-3.31,2.99,-3.31,2.98,-2.99,-3.06,-2.66,-6.30,-6.30,-6.30
351.23,-3.30,2.97,-3.30,2.97,-2.97,-3.06,-2.64,-6.28,-6.28,-6.27
354.74,-3.29,2.95,-3.29,2.96,-2.96,-3.05,-2.63,-6.26,-6.25,-6.24
358.28,-3.26,2.97,-3.27,2.95,-2.96,-3.04,-2.61,-6.22,-6.23,-6.23
361.87,-3.24,2.96,-3.24,2.96,-2.96,-3.03,-2.60,-6.20,-6.20,-6.20
365.49,-3.21,2.96,-3.21,2.96,-2.96,-3.03,-2.59,-6.18,-6.18,-6.17
369.14,-3.18,2.98,-3.18,2.97,-2.97,-3.02,-2.58,-6.15,-6.15,-6.16
372.83,-3.15,2.98,-3.15,2.98,-2.98,-3.01,-2.57,-6.13,-6.13,-6.13
376.56,-3.11,3.00,-3.12,2.99,-2.99,-3.01,-2.57,-6.11,-6.11,-6.11
380.33,-3.08,3.00,-3.08,3.00,-3.00,-3.00,-2.56,-6.09,-6.09,-6.08
384.13,-3.05,3.02,-3.05,3.02,-3.02,-3.00,-2.56,-6.07,-6.07,-6.07
387.97,-3.02,3.03,-3.02,3.03,-3.03,-2.99,-2.56,-6.05,-6.05,-6.05
391.85,-2.99,3.05,-3.00,3.04,-3.03,-2.99,-2.57,-6.03,-6.03,-6.04
395.77,-2.97,3.04,-2.97,3.05,-3.04,-2.99,-2.57,-6.01,-6.01,-6.01
