frequency,raw,error,smoothed,error_smoothed,equalization,parametric_eq,fixed_band_eq,equalized_raw,equalized_smoothed,target
20.00,-0.68,-3.51,-0.62,-3.47,3.47,3.14,1.40,2.79,2.85,2.83
20.20,-0.64,-3.51,-0.60,-3.48,3.48,3.17,1.45,2.84,2.88,2.87
20.40,-0.59,-3.49,-0.59,-3.49,3.49,3.20,1.49,2.90,2.91,2.90
20.61,-0.55,-3.48,-0.57,-3.50,3.50,3.22,1.53,2.95,2.93,2.93
20.81,-0.50,-3.47,-0.55,-3.50,3.50,3.25,1.58,3.00,2.96,2.97
21.02,-0.46,-3.47,-0.53,-3.51,3.51,3.27,1.63,3.05,2.98,3.01
21.23,-0.46,-3.48,-0.51,-3.51,3.51,3.29,1.68,3.05,3.00,3.02
21.44,-0.46,-3.50,-0.49,-3.51,3.51,3.32,1.73,3.05,3.02,3.04
21.66,-0.46,-3.52,-0.47,-3.51,3.51,3.34,1.78,3.05,3.04,3.06
21.87,-0.46,-3.53,-0.45,-3.51,3.51,3.35,1.83,3.05,3.06,3.07
22.09,-0.46,-3.54,-0.43,-3.51,3.51,3.37,1.88,3.05,3.07,3.08
22.31,-0.44,-3.52,-0.41,-3.50,3.50,3.39,1.94,3.06,3.09,3.08
22.54,-0.43,-3.52,-0.40,-3.50,3.50,3.40,2.00,3.06,3.10,3.09
22.76,-0.42,-3.52,-0.39,-3.49,3.49,3.42,2.06,3.07,3.10,3.10
22.99,-0.41,-3.51,-0.37,-3.48,3.48,3.43,2.12,3.07,3.11,3.10
23.22,-0.37,-3.48,-0.35,-3.47,3.47,3.44,2.18,3.10,3.12,3.11
23.45,-0.33,-3.45,-0.34,-3.46,3.46,3.45,2.24,3.13,3.12,3.12
23.69,-0.29,-3.42,-0.32,-3.45,3.45,3.46,2.31,3.16,3.13,3.13
23.92,-0.24,-3.38,-0.30,-3.43,3.43,3.46,2.37,3.19,3.13,3.14
24.16,-0.23,-3.38,-0.28,-3.41,3.41,3.47,2.44,3.18,3.14,3.15
24.40,-0.23,-3.39,-0.25,-3.39,3.39,3.47,2.50,3.16,3.14,3.16
24.65,-0.23,-3.38,-0.23,-3.37,3.37,3.47,2.57,3.14,3.14,3.15
24.89,-0.23,-3.38,-0.21,-3.35,3.35,3.47,2.64,3.12,3.15,3.15
25.14,-0.22,-3.37,-0.18,-3.33,3.33,3.47,2.71,3.11,3.15,3.15
25.39,-0.19,-3.34,-0.16,-3.31,3.31,3.46,2.78,3.12,3.15,3.15
25.65,-0.17,-3.32,-0.14,-3.29,3.29,3.46,2.85,3.12,3.15,3.15
25.91,-0.15,-3.28,-0.12,-3.27,3.27,3.45,2.92,3.12,3.15,3.13
26.16,-0.12,-3.26,-0.11,-3.25,3.25,3.44,2.99,3.13,3.14,3.14
26.43,-0.08,-3.22,-0.09,-3.23,3.23,3.43,3.06,3.15,3.14,3.14
26.69,-0.04,-3.18,-0.08,-3.22,3.22,3.42,3.12,3.18,3.14,3.14
26.96,-0.01,-3.15,-0.07,-3.20,3.20,3.40,3.19,3.19,3.13,3.14
27.23,-0.00,-3.14,-0.05,-3.18,3.18,3.39,3.25,3.18,3.13,3.14
27.50,0.00,-3.14,-0.03,-3.16,3.16,3.37,3.32,3.16,3.13,3.14
27.77,0.00,-3.13,-0.01,-3.13,3.13,3.35,3.38,3.13,3.13,3.13
28.05,0.00,-3.13,0.02,-3.11,3.11,3.34,3.44,3.11,3.13,3.13
28.33,0.00,-3.11,0.04,-3.09,3.09,3.31,3.49,3.09,3.12,3.11
28.62,0.00,-3.12,0.06,-3.06,3.06,3.29,3.54,3.06,3.12,3.12
28.90,0.00,-3.12,0.08,-3.04,3.04,3.27,3.59,3.04,3.12,3.12
29.19,0.04,-3.07,0.10,-3.02,3.02,3.25,3.63,3.06,3.12,3.11
29.48,0.11,-3.01,0.12,-2.99,2.99,3.22,3.67,3.10,3.11,3.12
29.78,0.18,-2.94,0.14,-2.97,2.97,3.19,3.70,3.15,3.11,3.12
30.08,0.23,-2.89,0.16,-2.95,2.95,3.17,3.73,3.17,3.10,3.12
30.38,0.23,-2.87,0.18,-2.92,2.92,3.14,3.75,3.15,3.10,3.10
30.68,0.23,-2.87,0.20,-2.90,2.90,3.11,3.77,3.13,3.09,3.10
30.99,0.23,-2.86,0.21,-2.88,2.88,3.08,3.78,3.11,3.09,3.09
31.30,0.23,-2.86,0.23,-2.86,2.86,3.05,3.79,3.09,3.09,3.09
31.61,0.23,-2.86,0.24,-2.84,2.84,3.01,3.79,3.07,3.08,3.09
31.93,0.23,-2.84,0.24,-2.83,2.83,2.98,3.79,3.06,3.08,3.07
32.24,0.23,-2.83,0.25,-2.82,2.82,2.95,3.78,3.05,3.07,3.06
32.57,0.23,-2.83,0.24,-2.83,2.83,2.91,3.76,3.06,3.06,3.06
32.89,0.23,-2.83,0.23,-2.83,2.83,2.88,3.74,3.06,3.06,3.06
33.22,0.23,-2.83,0.22,-2.84,2.84,2.85,3.71,3.07,3.05,3.06
33.55,0.23,-2.82,0.21,-2.84,2.84,2.81,3.68,3.07,3.05,3.05
33.89,0.23,-2.82,0.22,-2.83,2.83,2.77,3.65,3.06,3.04,3.05
34.23,0.23,-2.82,0.23,-2.81,2.81,2.74,3.61,3.04,3.04,3.05
34.57,0.23,-2.81,0.24,-2.80,2.80,2.70,3.56,3.03,3.03,3.04
34.92,0.23,-2.80,0.25,-2.78,2.78,2.66,3.52,3.01,3.03,3.03
35.27,0.23,-2.80,0.27,-2.75,2.75,2.63,3.47,2.98,3.02,3.03
35.62,0.23,-2.79,0.29,-2.73,2.73,2.59,3.42,2.96,3.02,3.02
35.97,0.23,-2.78,0.31,-2.70,2.70,2.55,3.36,2.93,3.01,3.01
36.33,0.31,-2.70,0.33,-2.67,2.67,2.52,3.31,2.98,3.01,3.01
36.70,0.39,-2.62,0.36,-2.64,2.64,2.48,3.25,3.03,3.00,3.01
37.06,0.46,-2.53,0.38,-2.61,2.61,2.44,3.19,3.07,2.99,2.99
37.43,0.46,-2.53,0.40,-2.59,2.59,2.40,3.13,3.05,2.99,2.99
37.81,0.46,-2.52,0.42,-2.56,2.56,2.37,3.08,3.02,2.98,2.98
38.19,0.46,-2.51,0.44,-2.53,2.53,2.33,3.02,2.99,2.97,2.97
38.57,0.46,-2.51,0.45,-2.51,2.51,2.29,2.96,2.97,2.97,2.97
38.95,0.46,-2.50,0.46,-2.49,2.49,2.26,2.90,2.95,2.96,2.96
39.34,0.46,-2.49,0.47,-2.48,2.48,2.22,2.84,2.94,2.95,2.95
39.74,0.46,-2.47,0.48,-2.47,2.47,2.18,2.78,2.93,2.95,2.93
40.14,0.46,-2.48,0.48,-2.46,2.46,2.15,2.73,2.92,2.94,2.94
40.54,0.46,-2.47,0.47,-2.46,2.46,2.11,2.67,2.92,2.93,2.93
40.94,0.46,-2.47,0.46,-2.45,2.45,2.07,2.62,2.91,2.91,2.93
41.35,0.46,-2.45,0.46,-2.44,2.44,2.04,2.56,2.90,2.90,2.91
41.76,0.46,-2.43,0.46,-2.42,2.42,2.00,2.51,2.88,2.88,2.89
42.18,0.46,-2.42,0.46,-2.40,2.40,1.97,2.46,2.86,2.86,2.88
42.60,0.46,-2.39,0.46,-2.38,2.38,1.93,2.41,2.84,2.84,2.85
43.03,0.46,-2.38,0.46,-2.35,2.35,1.90,2.37,2.81,2.81,2.84
43.46,0.46,-2.35,0.46,-2.33,2.33,1.87,2.32,2.79,2.79,2.81
43.90,0.46,-2.30,0.46,-2.30,2.30,1.83,2.28,2.76,2.76,2.76
44.33,0.46,-2.27,0.46,-2.28,2.28,1.80,2.24,2.74,2.74,2.73
44.78,0.46,-2.24,0.46,-2.25,2.25,1.77,2.20,2.71,2.71,2.70
45.23,0.46,-2.21,0.46,-2.22,2.22,1.73,2.16,2.68,2.68,2.67
45.68,0.46,-2.18,0.46,-2.20,2.20,1.70,2.12,2.66,2.66,2.64
46.13,0.46,-2.16,0.46,-2.17,2.17,1.67,2.09,2.63,2.63,2.62
46.60,0.46,-2.15,0.46,-2.16,2.16,1.64,2.05,2.62,2.62,2.61
47.06,0.46,-2.13,0.46,-2.14,2.14,1.61,2.02,2.60,2.60,2.59
47.53,0.46,-2.13,0.46,-2.13,2.13,1.57,1.99,2.59,2.59,2.59
48.01,0.46,-2.13,0.46,-2.12,2.12,1.54,1.96,2.58,2.58,2.59
48.49,0.46,-2.11,0.46,-2.11,2.11,1.51,1.93,2.57,2.57,2.57
48.97,0.46,-2.10,0.46,-2.11,2.11,1.48,1.91,2.57,2.57,2.56
49.46,0.46,-2.09,0.46,-2.11,2.11,1.45,1.88,2.57,2.57,2.55
49.96,0.46,-2.09,0.46,-2.10,2.10,1.43,1.86,2.56,2.56,2.55
50.46,0.46,-2.10,0.46,-2.10,2.10,1.40,1.84,2.56,2.56,2.56
50.96,0.46,-2.11,0.46,-2.09,2.09,1.37,1.82,2.55,2.55,2.57
51.47,0.46,-2.10,0.46,-2.08,2.08,1.34,1.80,2.54,2.54,2.56
51.99,0.46,-2.08,0.46,-2.06,2.06,1.31,1.78,2.52,2.52,2.54
52.51,0.46,-2.07,0.46,-2.05,2.05,1.29,1.76,2.51,2.51,2.53
53.03,0.46,-2.04,0.46,-2.02,2.02,1.26,1.74,2.48,2.48,2.50
53.56,0.46,-2.01,0.46,-1.99,1.99,1.23,1.72,2.45,2.45,2.47
54.10,0.46,-1.97,0.46,-1.96,1.96,1.21,1.71,2.42,2.42,2.43
54.64,0.46,-1.92,0.46,-1.91,1.91,1.18,1.69,2.37,2.37,2.38
55.18,0.46,-1.87,0.46,-1.87,1.87,1.16,1.67,2.33,2.33,2.33
55.74,0.46,-1.82,0.46,-1.82,1.82,1.13,1.66,2.28,2.28,2.28
56.29,0.46,-1.77,0.46,-1.76,1.76,1.11,1.64,2.22,2.22,2.23
56.86,0.46,-1.71,0.46,-1.71,1.71,1.08,1.62,2.17,2.17,2.17
57.42,0.46,-1.64,0.46,-1.65,1.65,1.06,1.61,2.11,2.11,2.10
58.00,0.46,-1.58,0.46,-1.59,1.59,1.04,1.59,2.05,2.05,2.04
58.58,0.46,-1.52,0.46,-1.52,1.52,1.01,1.57,1.98,1.98,1.98
59.16,0.46,-1.47,0.46,-1.46,1.46,0.99,1.55,1.92,1.92,1.93
59.76,0.46,-1.41,0.46,-1.40,1.40,0.97,1.53,1.86,1.86,1.87
60.35,0.46,-1.34,0.46,-1.34,1.34,0.95,1.51,1.80,1.80,1.80
60.96,0.46,-1.29,0.46,-1.28,1.28,0.93,1.49,1.74,1.74,1.75
61.57,0.46,-1.22,0.46,-1.22,1.22,0.90,1.47,1.68,1.68,1.68
62.18,0.46,-1.15,0.46,-1.16,1.16,0.88,1.45,1.62,1.62,1.61
62.80,0.46,-1.11,0.46,-1.11,1.11,0.86,1.42,1.57,1.57,1.57
63.43,0.46,-1.05,0.46,-1.06,1.06,0.84,1.40,1.52,1.52,1.51
64.07,0.46,-1.01,0.46,-1.01,1.01,0.82,1.37,1.47,1.47,1.47
64.71,0.46,-0.96,0.46,-0.96,0.96,0.80,1.35,1.42,1.42,1.42
65.35,0.46,-0.91,0.46,-0.92,0.92,0.78,1.32,1.38,1.38,1.37
66.01,0.46,-0.88,0.47,-0.87,0.87,0.76,1.29,1.33,1.34,1.34
66.67,0.46,-0.84,0.48,-0.83,0.83,0.74,1.26,1.29,1.30,1.30
67.33,0.46,-0.81,0.48,-0.79,0.79,0.72,1.23,1.25,1.27,1.27
68.01,0.46,-0.78,0.48,-0.76,0.76,0.70,1.19,1.22,1.23,1.24
68.69,0.46,-0.75,0.47,-0.73,0.73,0.69,1.16,1.19,1.20,1.21
69.37,0.46,-0.71,0.46,-0.71,0.71,0.67,1.13,1.17,1.17,1.17
70.07,0.46,-0.68,0.44,-0.70,0.70,0.65,1.09,1.16,1.14,1.14
70.77,0.46,-0.67,0.43,-0.69,0.69,0.63,1.06,1.15,1.11,1.13
71.48,0.46,-0.63,0.41,-0.68,0.68,0.61,1.02,1.14,1.08,1.09
72.19,0.46,-0.61,0.39,-0.67,0.67,0.60,0.99,1.13,1.05,1.07
72.91,0.46,-0.57,0.36,-0.66,0.66,0.58,0.95,1.12,1.02,1.03
73.64,0.31,-0.69,0.34,-0.65,0.65,0.56,0.91,0.96,0.99,1.00
74.38,0.23,-0.74,0.32,-0.64,0.64,0.54,0.88,0.87,0.96,0.97
75.12,0.23,-0.71,0.30,-0.64,0.64,0.53,0.84,0.87,0.93,0.94
75.87,0.23,-0.68,0.28,-0.63,0.63,0.51,0.80,0.86,0.91,0.91
76.63,0.23,-0.65,0.26,-0.62,0.62,0.49,0.76,0.85,0.88,0.88
77.40,0.23,-0.62,0.24,-0.61,0.61,0.48,0.73,0.84,0.85,0.85
78.17,0.23,-0.59,0.23,-0.60,0.60,0.46,0.69,0.83,0.83,0.82
78.95,0.23,-0.58,0.22,-0.59,0.59,0.44,0.65,0.82,0.81,0.81
79.74,0.23,-0.56,0.21,-0.58,0.58,0.43,0.62,0.81,0.79,0.79
80.54,0.23,-0.54,0.21,-0.56,0.56,0.41,0.58,0.79,0.77,0.77
81.35,0.23,-0.52,0.22,-0.54,0.54,0.39,0.54,0.77,0.76,0.75
82.16,0.23,-0.52,0.23,-0.52,0.52,0.38,0.50,0.75,0.75,0.75
82.98,0.23,-0.52,0.25,-0.50,0.50,0.36,0.47,0.73,0.75,0.75
83.81,0.23,-0.51,0.25,-0.49,0.49,0.35,0.43,0.72,0.74,0.74
84.65,0.23,-0.50,0.24,-0.49,0.49,0.33,0.39,0.72,0.74,0.73
85.50,0.23,-0.51,0.24,-0.50,0.50,0.31,0.36,0.73,0.74,0.74
86.35,0.23,-0.51,0.23,-0.51,0.51,0.30,0.32,0.74,0.74,0.74
87.22,0.23,-0.51,0.21,-0.53,0.53,0.28,0.29,0.76,0.74,0.74
88.09,0.23,-0.51,0.19,-0.55,0.55,0.27,0.25,0.78,0.74,0.74
88.97,0.23,-0.53,0.17,-0.57,0.57,0.25,0.21,0.80,0.74,0.76
89.86,0.23,-0.53,0.15,-0.59,0.59,0.23,0.18,0.82,0.74,0.76
90.76,0.21,-0.53,0.14,-0.60,0.60,0.22,0.14,0.81,0.74,0.74
91.66,0.07,-0.68,0.12,-0.61,0.61,0.20,0.11,0.68,0.73,0.75
92.58,0.00,-0.72,0.10,-0.62,0.62,0.18,0.07,0.62,0.73,0.72
93.51,0.00,-0.73,0.08,-0.63,0.63,0.17,0.04,0.63,0.72,0.73
94.44,0.00,-0.71,0.06,-0.65,0.65,0.15,0.00,0.65,0.70,0.71
95.39,0.00,-0.70,0.03,-0.66,0.66,0.13,-0.03,0.66,0.69,0.70
96.34,0.00,-0.66,-0.00,-0.67,0.67,0.12,-0.06,0.67,0.67,0.66
97.30,0.00,-0.64,-0.03,-0.68,0.68,0.10,-0.10,0.68,0.65,0.64
98.28,0.00,-0.62,-0.06,-0.68,0.68,0.08,-0.13,0.68,0.62,0.62
99.26,0.00,-0.59,-0.09,-0.68,0.68,0.06,-0.17,0.68,0.59,0.59
100.25,-0.01,-0.57,-0.11,-0.67,0.67,0.05,-0.20,0.66,0.56,0.56
101.25,-0.08,-0.61,-0.13,-0.65,0.65,0.03,-0.23,0.57,0.52,0.53
102.27,-0.23,-0.72,-0.14,-0.62,0.62,0.01,-0.27,0.39,0.48,0.49
103.29,-0.23,-0.67,-0.14,-0.58,0.58,-0.01,-0.30,0.35,0.44,0.44
104.32,-0.23,-0.63,-0.16,-0.55,0.55,-0.03,-0.33,0.32,0.39,0.40
105.37,-0.23,-0.58,-0.18,-0.51,0.51,-0.05,-0.36,0.28,0.33,0.35
106.42,-0.23,-0.53,-0.20,-0.48,0.48,-0.07,-0.39,0.25,0.28,0.30
107.48,-0.23,-0.46,-0.22,-0.44,0.44,-0.09,-0.42,0.21,0.22,0.23
108.56,-0.23,-0.38,-0.25,-0.40,0.40,-0.11,-0.45,0.17,0.15,0.15
109.64,-0.23,-0.31,-0.28,-0.36,0.36,-0.13,-0.48,0.13,0.08,0.08
110.74,-0.23,-0.25,-0.31,-0.32,0.32,-0.15,-0.51,0.09,0.01,0.02
111.85,-0.23,-0.18,-0.33,-0.26,0.26,-0.18,-0.54,0.03,-0.06,-0.05
112.97,-0.23,-0.09,-0.34,-0.20,0.20,-0.20,-0.56,-0.03,-0.14,-0.14
114.10,-0.27,-0.07,-0.35,-0.14,0.14,-0.22,-0.59,-0.13,-0.21,-0.20
115.24,-0.46,-0.18,-0.36,-0.08,0.08,-0.25,-0.61,-0.38,-0.28,-0.28
116.39,-0.46,-0.10,-0.38,-0.03,0.03,-0.27,-0.64,-0.43,-0.34,-0.36
117.55,-0.46,-0.04,-0.39,0.02,-0.02,-0.30,-0.66,-0.48,-0.41,-0.42
118.73,-0.46,0.03,-0.39,0.08,-0.08,-0.33,-0.68,-0.54,-0.47,-0.49
119.92,-0.46,0.07,-0.39,0.14,-0.14,-0.35,-0.70,-0.60,-0.52,-0.53
121.12,-0.45,0.14,-0.38,0.19,-0.19,-0.38,-0.72,-0.64,-0.57,-0.59
122.33,-0.31,0.32,-0.36,0.26,-0.26,-0.41,-0.73,-0.57,-0.62,-0.63
123.55,-0.23,0.42,-0.32,0.34,-0.34,-0.44,-0.75,-0.57,-0.66,-0.65
124.79,-0.23,0.46,-0.29,0.41,-0.41,-0.47,-0.76,-0.64,-0.70,-0.69
126.03,-0.23,0.50,-0.24,0.49,-0.49,-0.51,-0.78,-0.72,-0.74,-0.73
127.29,-0.23,0.53,-0.18,0.59,-0.59,-0.54,-0.79,-0.82,-0.77,-0.76
128.57,-0.18,0.62,-0.12,0.69,-0.69,-0.57,-0.80,-0.87,-0.80,-0.80
129.85,-0.02,0.81,-0.06,0.78,-0.78,-0.61,-0.81,-0.80,-0.84,-0.83
131.15,0.00,0.86,0.01,0.87,-0.87,-0.65,-0.81,-0.87,-0.87,-0.86
132.46,0.00,0.89,0.07,0.97,-0.97,-0.69,-0.82,-0.97,-0.90,-0.89
133.79,0.14,1.06,0.13,1.06,-1.06,-0.73,-0.82,-0.92,-0.93,-0.92
135.12,0.23,1.20,0.18,1.15,-1.15,-0.77,-0.83,-0.92,-0.96,-0.97
136.48,0.23,1.23,0.23,1.23,-1.23,-0.81,-0.83,-1.00,-1.00,-1.00
137.84,0.23,1.26,0.28,1.31,-1.31,-0.85,-0.83,-1.08,-1.03,-1.03
139.22,0.35,1.43,0.33,1.40,-1.40,-0.90,-0.83,-1.05,-1.07,-1.08
140.61,0.44,1.57,0.38,1.49,-1.49,-0.94,-0.83,-1.05,-1.11,-1.13
142.02,0.46,1.61,0.43,1.58,-1.58,-0.99,-0.83,-1.12,-1.15,-1.15
143.44,0.46,1.65,0.47,1.66,-1.66,-1.04,-0.83,-1.20,-1.20,-1.19
144.87,0.46,1.69,0.49,1.74,-1.74,-1.09,-0.83,-1.28,-1.25,-1.23
146.32,0.46,1.74,0.51,1.81,-1.81,-1.14,-0.83,-1.35,-1.30,-1.28
147.78,0.46,1.78,0.51,1.87,-1.87,-1.19,-0.83,-1.41,-1.36,-1.32
149.26,0.46,1.85,0.50,1.93,-1.93,-1.24,-0.83,-1.47,-1.42,-1.39
150.75,0.46,1.93,0.48,1.97,-1.97,-1.29,-0.82,-1.51,-1.49,-1.47
152.26,0.46,2.00,0.43,1.99,-1.99,-1.34,-0.82,-1.53,-1.56,-1.54
153.78,0.46,2.07,0.35,1.98,-1.98,-1.39,-0.82,-1.52,-1.63,-1.61
155.32,0.41,2.12,0.24,1.94,-1.94,-1.43,-0.82,-1.53,-1.70,-1.71
156.88,0.23,2.01,0.12,1.90,-1.90,-1.48,-0.82,-1.67,-1.78,-1.78
158.44,0.06,1.91,-0.01,1.84,-1.84,-1.53,-0.82,-1.78,-1.84,-1.85
160.03,-0.06,1.87,-0.16,1.75,-1.75,-1.57,-0.82,-1.81,-1.91,-1.93
161.63,-0.20,1.79,-0.31,1.66,-1.66,-1.61,-0.82,-1.86,-1.97,-1.99
163.24,-0.39,1.65,-0.46,1.56,-1.56,-1.65,-0.82,-1.95,-2.02,-2.04
164.88,-0.62,1.46,-0.61,1.46,-1.46,-1.68,-0.82,-2.08,-2.06,-2.08
166.53,-0.88,1.24,-0.73,1.37,-1.37,-1.71,-0.82,-2.24,-2.10,-2.12
168.19,-1.07,1.08,-0.85,1.27,-1.27,-1.73,-0.83,-2.34,-2.12,-2.15
169.87,-1.14,1.02,-0.94,1.20,-1.20,-1.75,-0.83,-2.34,-2.14,-2.16
171.57,-1.14,1.03,-1.00,1.15,-1.15,-1.77,-0.83,-2.29,-2.16,-2.17
173.29,-1.14,1.03,-1.03,1.13,-1.13,-1.78,-0.84,-2.27,-2.16,-2.17
175.02,-1.14,1.01,-1.02,1.14,-1.14,-1.78,-0.84,-2.28,-2.17,-2.15
176.77,-1.14,1.02,-1.00,1.17,-1.17,-1.78,-0.85,-2.31,-2.17,-2.16
178.54,-0.96,1.19,-0.96,1.20,-1.20,-1.77,-0.86,-2.16,-2.17,-2.15
180.32,-0.83,1.31,-0.91,1.26,-1.26,-1.76,-0.86,-2.09,-2.17,-2.14
182.13,-0.73,1.41,-0.84,1.33,-1.33,-1.75,-0.87,-2.06,-2.17,-2.14
183.95,-0.68,1.46,-0.77,1.40,-1.40,-1.72,-0.88,-2.08,-2.17,-2.14
185.79,-0.68,1.47,-0.71,1.47,-1.47,-1.70,-0.89,-2.15,-2.17,-2.15
187.65,-0.52,1.65,-0.67,1.52,-1.52,-1.67,-0.90,-2.04,-2.18,-2.17
189.52,-0.46,1.73,-0.64,1.55,-1.55,-1.64,-0.91,-2.01,-2.19,-2.19
191.42,-0.51,1.70,-0.62,1.58,-1.58,-1.60,-0.92,-2.09,-2.21,-2.21
193.33,-0.63,1.60,-0.62,1.60,-1.60,-1.56,-0.94,-2.23,-2.22,-2.23
195.27,-0.68,1.55,-0.63,1.61,-1.61,-1.52,-0.95,-2.29,-2.24,-2.23
197.22,-0.68,1.57,-0.66,1.60,-1.60,-1.48,-0.96,-2.28,-2.26,-2.25
199.19,-0.69,1.60,-0.71,1.57,-1.57,-1.44,-0.97,-2.26,-2.28,-2.29
201.18,-0.82,1.47,-0.76,1.54,-1.54,-1.40,-0.99,-2.36,-2.30,-2.29
203.19,-0.91,1.40,-0.81,1.50,-1.50,-1.35,-1.00,-2.41,-2.31,-2.31
205.23,-0.91,1.43,-0.86,1.48,-1.48,-1.31,-1.02,-2.39,-2.33,-2.34
207.28,-0.91,1.43,-0.90,1.45,-1.45,-1.27,-1.03,-2.36,-2.35,-2.34
209.35,-0.91,1.45,-0.95,1.41,-1.41,-1.22,-1.05,-2.32,-2.37,-2.36
211.44,-0.91,1.48,-1.00,1.38,-1.38,-1.18,-1.06,-2.29,-2.38,-2.39
213.56,-1.07,1.32,-1.03,1.37,-1.37,-1.14,-1.07,-2.44,-2.39,-2.39
215.69,-1.14,1.25,-1.05,1.35,-1.35,-1.10,-1.09,-2.49,-2.41,-2.39
217.85,-1.14,1.28,-1.09,1.33,-1.33,-1.06,-1.10,-2.47,-2.42,-2.42
220.03,-1.14,1.29,-1.13,1.30,-1.30,-1.02,-1.11,-2.44,-2.43,-2.43
222.23,-1.14,1.31,-1.17,1.27,-1.27,-0.98,-1.13,-2.41,-2.44,-2.45
224.45,-1.14,1.31,-1.21,1.25,-1.25,-0.95,-1.14,-2.39,-2.45,-2.45
226.70,-1.14,1.31,-1.25,1.21,-1.21,-0.91,-1.15,-2.35,-2.46,-2.45
228.96,-1.30,1.16,-1.29,1.18,-1.18,-0.88,-1.16,-2.48,-2.47,-2.46
231.25,-1.35,1.11,-1.33,1.14,-1.14,-0.85,-1.17,-2.49,-2.47,-2.46
233.57,-1.37,1.10,-1.37,1.10,-1.10,-0.82,-1.18,-2.47,-2.47,-2.47
235.90,-1.37,1.11,-1.41,1.06,-1.06,-0.79,-1.18,-2.43,-2.47,-2.48
238.26,-1.48,1.00,-1.45,1.02,-1.02,-0.76,-1.19,-2.50,-2.48,-2.48
240.64,-1.58,0.90,-1.50,0.98,-0.98,-0.74,-1.19,-2.56,-2.47,-2.48
243.05,-1.60,0.87,-1.55,0.92,-0.92,-0.71,-1.19,-2.52,-2.47,-2.47
245.48,-1.60,0.86,-1.60,0.87,-0.87,-0.69,-1.20,-2.47,-2.47,-2.46
247.93,-1.60,0.85,-1.64,0.82,-0.82,-0.67,-1.19,-2.42,-2.46,-2.45
250.41,-1.60,0.86,-1.68,0.78,-0.78,-0.65,-1.19,-2.38,-2.46,-2.46
252.92,-1.64,0.81,-1.71,0.74,-0.74,-0.63,-1.19,-2.38,-2.45,-2.45
255.45,-1.79,0.63,-1.73,0.71,-0.71,-0.61,-1.18,-2.50,-2.44,-2.42
258.00,-1.82,0.60,-1.76,0.67,-0.67,-0.59,-1.17,-2.49,-2.43,-2.42
260.58,-1.82,0.60,-1.78,0.64,-0.64,-0.57,-1.17,-2.46,-2.42,-2.42
263.19,-1.82,0.58,-1.80,0.61,-0.61,-0.56,-1.16,-2.43,-2.41,-2.40
265.82,-1.82,0.58,-1.81,0.58,-0.58,-0.54,-1.14,-2.40,-2.39,-2.40
268.48,-1.82,0.55,-1.81,0.56,-0.56,-0.53,-1.13,-2.38,-2.38,-2.37
271.16,-1.82,0.54,-1.83,0.53,-0.53,-0.52,-1.12,-2.35,-2.36,-2.36
273.87,-1.82,0.53,-1.83,0.50,-0.50,-0.51,-1.10,-2.32,-2.34,-2.35
276.61,-1.82,0.49,-1.84,0.48,-0.48,-0.49,-1.08,-2.30,-2.32,-2.31
279.38,-1.82,0.48,-1.84,0.46,-0.46,-0.48,-1.06,-2.28,-2.29,-2.30
282.17,-1.82,0.45,-1.84,0.43,-0.43,-0.47,-1.05,-2.25,-2.27,-2.27
284.99,-1.82,0.42,-1.84,0.41,-0.41,-0.47,-1.03,-2.23,-2.24,-2.24
287.84,-1.82,0.40,-1.84,0.38,-0.38,-0.46,-1.01,-2.20,-2.22,-2.22
290.72,-1.82,0.36,-1.84,0.35,-0.35,-0.45,-0.99,-2.17,-2.19,-2.18
293.63,-1.82,0.34,-1.83,0.33,-0.33,-0.45,-0.96,-2.15,-2.16,-2.16
296.57,-1.82,0.31,-1.82,0.32,-0.32,-0.44,-0.94,-2.14,-2.13,-2.13
299.53,-1.82,0.28,-1.80,0.30,-0.30,-0.44,-0.92,-2.12,-2.11,-2.10
302.53,-1.82,0.27,-1.80,0.29,-0.29,-0.43,-0.90,-2.11,-2.09,-2.09
305.55,-1.82,0.23,-1.78,0.28,-0.28,-0.43,-0.88,-2.10,-2.07,-2.05
308.61,-1.82,0.21,-1.77,0.28,-0.28,-0.43,-0.85,-2.10,-2.05,-2.03
311.69,-1.82,0.20,-1.75,0.29,-0.29,-0.43,-0.83,-2.11,-2.03,-2.02
314.81,-1.68,0.31,-1.72,0.30,-0.30,-0.43,-0.81,-1.98,-2.02,-1.99
317.96,-1.61,0.38,-1.69,0.32,-0.32,-0.43,-0.79,-1.93,-2.01,-1.99
321.14,-1.60,0.40,-1.65,0.35,-0.35,-0.43,-0.77,-1.95,-2.00,-2.00
324.35,-1.60,0.39,-1.62,0.37,-0.37,-0.43,-0.74,-1.97,-1.99,-1.99
327.59,-1.60,0.38,-1.59,0.39,-0.39,-0.44,-0.72,-1.99,-1.98,-1.98
330.87,-1.60,0.37,-1.56,0.41,-0.41,-0.44,-0.70,-2.01,-1.97,-1.97
334.18,-1.60,0.37,-1.53,0.43,-0.43,-0.45,-0.68,-2.03,-1.96,-1.97
337.52,-1.47,0.49,-1.49,0.45,-0.45,-0.45,-0.66,-1.92,-1.95,-1.96
340.90,-1.39,0.54,-1.46,0.48,-0.48,-0.46,-0.64,-1.87,-1.93,-1.93
344.30,-1.37,0.55,-1.42,0.50,-0.50,-0.47,-0.62,-1.87,-1.92,-1.92
347.75,-1.37,0.54,-1.40,0.50,-0.50,-0.48,-0.60,-1.87,-1.90,-1.91
351.23,-1.37,0.51,-1.38,0.50,-0.50,-0.50,-0.59,-1.87,-1.88,-1.88
354.74,-1.37,0.49,-1.35,0.51,-0.51,-0.51,-0.57,-1.88,-1.86,-1.86
358.28,-1.37,0.46,-1.31,0.52,-0.52,-0.52,-0.55,-1.89,-1.84,-1.83
361.87,-1.37,0.44,-1.27,0.54,-0.54,-0.54,-0.53,-1.91,-1.81,-1.81
365.49,-1.20,0.59,-1.23,0.56,-0.56,-0.56,-0.52,-1.76,-1.79,-1.79
369.14,-1.15,0.62,-1.20,0.57,-0.57,-0.58,-0.50,-1.72,-1.77,-1.77
372.83,-1.14,0.60,-1.17,0.57,-0.57,-0.61,-0.49,-1.71,-1.75,-1.74
376.56,-1.14,0.58,-1.15,0.58,-0.58,-0.63,-0.47,-1.72,-1.73,-1.72
380.33,-1.14,0.55,-1.11,0.60,-0.60,-0.66,-0.46,-1.74,-1.71,-1.69
384.13,-1.14,0.53,-1.07,0.62,-0.62,-0.69,-0.44,-1.76,-1.69,-1.67
387.97,-0.99,0.67,-1.02,0.65,-0.65,-0.72,-0.43,-1.64,-1.67,-1.66
391.85,-0.92,0.74,-0.97,0.69,-0.69,-0.75,-0.41,-1.61,-1.66,-1.66
395.77,-0.91,0.74,-0.93,0.72,-0.72,-0.79,-0.40,-1.63,-1.65,-1.65
399.73,-0.91,0.73,-0.90,0.74,-0.74,-0.83,-0.39,-1.65,-1.64,-1.64
403.72,-0.91,0.72,-0.87,0.76,-0.76,-0.87,-0.38,-1.67,-1.63,-1.63
407.76,-0.91,0.71,-0.84,0.78,-0.78,-0.91,-0.36,-1.69,-1.62,-1.62
411.84,-0.78,0.83,-0.81,0.81,-0.81,-0.95,-0.35,-1.59,-1.62,-1.61
415.96,-0.69,0.91,-0.77,0.85,-0.85,-0.99,-0.34,-1.54,-1.61,-1.60
420.12,-0.68,0.92,-0.73,0.88,-0.88,-1.03,-0.33,-1.56,-1.61,-1.60
424.32,-0.68,0.92,-0.69,0.91,-0.91,-1.06,-0.32,-1.59,-1.61,-1.60
428.56,-0.68,0.92,-0.66,0.94,-0.94,-1.10,-0.31,-1.62,-1.61,-1.60
432.85,-0.68,0.93,-0.63,0.97,-0.97,-1.12,-0.30,-1.65,-1.60,-1.61
437.18,-0.68,0.92,-0.59,1.01,-1.01,-1.14,-0.30,-1.69,-1.60,-1.60
441.55,-0.68,0.91,-0.56,1.03,-1.03,-1.15,-0.29,-1.71,-1.59,-1.59
445.96,-0.52,1.07,-0.53,1.05,-1.05,-1.15,-0.28,-1.57,-1.59,-1.59
450.42,-0.46,1.12,-0.51,1.07,-1.07,-1.14,-0.27,-1.53,-1.58,-1.58
454.93,-0.46,1.11,-0.50,1.07,-1.07,-1.12,-0.27,-1.53,-1.57,-1.57
459.48,-0.46,1.10,-0.49,1.07,-1.07,-1.09,-0.26,-1.53,-1.55,-1.56
464.07,-0.46,1.08,-0.49,1.05,-1.05,-1.04,-0.26,-1.51,-1.54,-1.54
468.71,-0.46,1.06,-0.48,1.04,-1.04,-0.99,-0.25,-1.50,-1.52,-1.52
473.40,-0.46,1.05,-0.49,1.01,-1.01,-0.92,-0.25,-1.47,-1.50,-1.51
478.13,-0.46,1.02,-0.51,0.97,-0.97,-0.85,-0.24,-1.43,-1.48,-1.48
482.91,-0.63,0.83,-0.56,0.90,-0.90,-0.76,-0.24,-1.53,-1.46,-1.46
487.74,-0.68,0.75,-0.63,0.80,-0.80,-0.68,-0.24,-1.48,-1.43,-1.43
