frequency,raw,error,smoothed,error_smoothed,equalization,parametric_eq,fixed_band_eq,equalized_raw,equalized_smoothed,target
20.00,1.46,-2.98,1.46,-3.00,3.00,3.00,0.59,4.45,4.46,4.44
20.20,1.52,-2.96,1.52,-2.97,2.97,3.08,0.61,4.49,4.49,4.47
20.40,1.57,-2.94,1.57,-2.95,2.95,3.15,0.63,4.52,4.52,4.51
20.61,1.63,-2.92,1.63,-2.92,2.92,3.20,0.65,4.55,4.55,4.54
20.81,1.68,-2.90,1.68,-2.89,2.89,3.23,0.67,4.57,4.57,4.58
21.02,1.74,-2.88,1.73,-2.86,2.86,3.24,0.69,4.60,4.60,4.62
21.23,1.79,-2.85,1.79,-2.83,2.83,3.23,0.71,4.62,4.62,4.64
21.44,1.84,-2.82,1.84,-2.80,2.80,3.21,0.74,4.64,4.64,4.66
21.66,1.90,-2.78,1.90,-2.77,2.77,3.16,0.76,4.67,4.66,4.68
21.87,1.95,-2.74,1.95,-2.73,2.73,3.10,0.78,4.68,4.68,4.69
22.09,2.00,-2.71,2.01,-2.70,2.70,3.02,0.81,4.70,4.70,4.71
22.31,2.06,-2.66,2.06,-2.66,2.66,2.92,0.83,4.72,4.72,4.72
22.54,2.12,-2.61,2.12,-2.61,2.61,2.82,0.86,4.73,4.73,4.73
22.76,2.17,-2.57,2.17,-2.57,2.57,2.71,0.89,4.74,4.74,4.74
22.99,2.23,-2.51,2.22,-2.52,2.52,2.60,0.91,4.75,4.75,4.74
23.22,2.28,-2.47,2.28,-2.48,2.48,2.48,0.94,4.76,4.76,4.75
23.45,2.34,-2.42,2.33,-2.43,2.43,2.36,0.97,4.77,4.76,4.76
23.69,2.39,-2.38,2.39,-2.38,2.38,2.24,1.00,4.77,4.77,4.77
23.92,2.44,-2.33,2.44,-2.34,2.34,2.12,1.03,4.78,4.78,4.77
24.16,2.50,-2.29,2.50,-2.29,2.29,2.00,1.06,4.79,4.79,4.79
24.40,2.55,-2.26,2.56,-2.25,2.25,1.89,1.09,4.80,4.80,4.81
24.65,2.61,-2.20,2.61,-2.20,2.20,1.78,1.12,4.81,4.81,4.81
24.89,2.67,-2.15,2.67,-2.15,2.15,1.68,1.15,4.82,4.82,4.82
25.14,2.72,-2.11,2.72,-2.11,2.11,1.58,1.18,4.83,4.83,4.83
25.39,2.78,-2.06,2.78,-2.06,2.06,1.49,1.21,4.84,4.84,4.84
25.65,2.83,-2.03,2.83,-2.02,2.02,1.40,1.24,4.85,4.85,4.86
25.91,2.89,-1.97,2.89,-1.97,1.97,1.32,1.27,4.86,4.86,4.86
26.16,2.95,-1.92,2.94,-1.93,1.93,1.24,1.30,4.88,4.87,4.87
26.43,3.00,-1.88,3.00,-1.88,1.88,1.16,1.33,4.88,4.88,4.87
26.69,3.06,-1.82,3.06,-1.83,1.83,1.09,1.36,4.89,4.89,4.88
26.96,3.11,-1.79,3.11,-1.78,1.78,1.02,1.39,4.89,4.90,4.90
27.23,3.17,-1.74,3.17,-1.74,1.74,0.96,1.42,4.91,4.90,4.91
27.50,3.22,-1.70,3.22,-1.69,1.69,0.90,1.44,4.91,4.91,4.92
27.77,3.28,-1.64,3.27,-1.65,1.65,0.84,1.46,4.93,4.92,4.92
28.05,3.33,-1.61,3.33,-1.60,1.60,0.79,1.49,4.93,4.93,4.94
28.33,3.38,-1.55,3.38,-1.55,1.55,0.74,1.51,4.93,4.94,4.93
28.62,3.44,-1.50,3.44,-1.51,1.51,0.69,1.53,4.94,4.94,4.94
28.90,3.49,-1.46,3.49,-1.46,1.46,0.65,1.54,4.95,4.95,4.95
29.19,3.55,-1.40,3.55,-1.41,1.41,0.60,1.56,4.96,4.96,4.95
29.48,3.60,-1.38,3.60,-1.36,1.36,0.56,1.57,4.96,4.97,4.98
29.78,3.66,-1.32,3.66,-1.32,1.32,0.53,1.57,4.97,4.97,4.97
30.08,3.71,-1.27,3.71,-1.27,1.27,0.49,1.58,4.97,4.98,4.98
30.38,3.77,-1.21,3.77,-1.22,1.22,0.46,1.58,4.99,4.99,4.98
30.68,3.82,-1.18,3.82,-1.17,1.17,0.42,1.58,4.99,4.99,5.00
30.99,3.88,-1.12,3.87,-1.13,1.13,0.39,1.58,5.00,5.00,5.00
31.30,3.93,-1.08,3.93,-1.08,1.08,0.36,1.57,5.01,5.01,5.00
31.61,3.98,-1.03,3.98,-1.03,1.03,0.33,1.56,5.01,5.01,5.01
31.93,4.04,-0.98,4.03,-0.99,0.99,0.31,1.55,5.02,5.02,5.02
32.24,4.09,-0.93,4.09,-0.94,0.94,0.28,1.53,5.03,5.03,5.02
32.57,4.14,-0.89,4.14,-0.89,0.89,0.25,1.51,5.03,5.03,5.03
32.89,4.19,-0.85,4.19,-0.85,0.85,0.23,1.49,5.04,5.04,5.04
33.22,4.24,-0.81,4.24,-0.80,0.80,0.21,1.46,5.04,5.05,5.05
33.55,4.29,-0.76,4.29,-0.76,0.76,0.18,1.43,5.05,5.05,5.05
33.89,4.34,-0.72,4.34,-0.71,0.71,0.16,1.40,5.05,5.06,5.06
34.23,4.39,-0.68,4.40,-0.67,0.67,0.14,1.37,5.06,5.06,5.07
34.57,4.45,-0.62,4.45,-0.62,0.62,0.12,1.33,5.07,5.07,5.07
34.92,4.50,-0.57,4.50,-0.58,0.58,0.10,1.29,5.08,5.07,5.07
35.27,4.54,-0.54,4.54,-0.53,0.53,0.08,1.25,5.07,5.08,5.08
35.62,4.59,-0.49,4.59,-0.49,0.49,0.07,1.21,5.08,5.08,5.08
35.97,4.64,-0.44,4.63,-0.45,0.45,0.05,1.17,5.09,5.08,5.08
36.33,4.68,-0.40,4.68,-0.41,0.41,0.03,1.12,5.09,5.08,5.08
36.70,4.72,-0.36,4.72,-0.36,0.36,0.01,1.08,5.08,5.08,5.08
37.06,4.77,-0.32,4.76,-0.33,0.33,-0.00,1.03,5.09,5.08,5.09
37.43,4.80,-0.29,4.80,-0.29,0.29,-0.02,0.98,5.09,5.08,5.09
37.81,4.84,-0.25,4.83,-0.25,0.25,-0.04,0.94,5.09,5.08,5.09
38.19,4.87,-0.21,4.86,-0.21,0.21,-0.05,0.89,5.08,5.08,5.08
38.57,4.89,-0.19,4.89,-0.18,0.18,-0.07,0.84,5.07,5.07,5.08
38.95,4.92,-0.15,4.92,-0.15,0.15,-0.08,0.79,5.07,5.07,5.07
39.34,4.94,-0.12,4.95,-0.12,0.12,-0.10,0.74,5.06,5.07,5.06
39.74,4.97,-0.09,4.97,-0.09,0.09,-0.11,0.69,5.06,5.06,5.06
40.14,5.00,-0.06,5.00,-0.07,0.07,-0.13,0.63,5.07,5.06,5.06
40.54,5.02,-0.04,5.02,-0.04,0.04,-0.14,0.58,5.06,5.06,5.06
40.94,5.04,-0.01,5.04,-0.01,0.01,-0.16,0.53,5.05,5.05,5.05
41.35,5.06,0.02,5.06,0.01,-0.01,-0.17,0.48,5.05,5.05,5.04
41.76,5.08,0.04,5.08,0.04,-0.04,-0.18,0.43,5.04,5.04,5.04
42.18,5.10,0.05,5.10,0.06,-0.06,-0.20,0.38,5.04,5.04,5.05
42.60,5.12,0.08,5.12,0.09,-0.09,-0.21,0.33,5.03,5.03,5.04
43.03,5.14,0.10,5.14,0.11,-0.11,-0.22,0.28,5.03,5.03,5.04
43.46,5.16,0.13,5.16,0.14,-0.14,-0.24,0.23,5.02,5.03,5.03
43.90,5.18,0.17,5.18,0.16,-0.16,-0.25,0.18,5.02,5.02,5.01
44.33,5.20,0.18,5.20,0.18,-0.18,-0.27,0.13,5.02,5.02,5.01
44.78,5.22,0.21,5.22,0.20,-0.20,-0.28,0.08,5.01,5.01,5.01
45.23,5.24,0.24,5.24,0.23,-0.23,-0.29,0.03,5.01,5.01,5.00
45.68,5.26,0.26,5.25,0.25,-0.25,-0.31,-0.02,5.01,5.00,5.00
46.13,5.27,0.28,5.27,0.28,-0.28,-0.32,-0.07,4.99,4.99,4.99
46.60,5.29,0.30,5.29,0.30,-0.30,-0.33,-0.12,4.99,4.99,4.99
47.06,5.30,0.32,5.30,0.33,-0.33,-0.35,-0.17,4.97,4.98,4.98
47.53,5.32,0.35,5.32,0.35,-0.35,-0.36,-0.22,4.97,4.97,4.97
48.01,5.34,0.36,5.33,0.38,-0.38,-0.38,-0.27,4.96,4.96,4.98
48.49,5.35,0.39,5.35,0.40,-0.40,-0.39,-0.31,4.95,4.95,4.96
48.97,5.37,0.44,5.36,0.43,-0.43,-0.40,-0.36,4.94,4.94,4.93
49.46,5.38,0.46,5.38,0.46,-0.46,-0.42,-0.41,4.92,4.92,4.92
49.96,5.39,0.49,5.40,0.49,-0.49,-0.43,-0.46,4.90,4.91,4.90
50.46,5.40,0.51,5.41,0.52,-0.52,-0.45,-0.51,4.88,4.89,4.89
50.96,5.42,0.54,5.43,0.56,-0.56,-0.46,-0.55,4.86,4.87,4.88
51.47,5.43,0.59,5.44,0.59,-0.59,-0.48,-0.60,4.84,4.85,4.84
51.99,5.45,0.62,5.46,0.63,-0.63,-0.49,-0.65,4.82,4.83,4.83
52.51,5.47,0.65,5.47,0.66,-0.66,-0.51,-0.69,4.81,4.81,4.82
53.03,5.49,0.70,5.48,0.69,-0.69,-0.52,-0.74,4.80,4.79,4.79
53.56,5.50,0.72,5.49,0.72,-0.72,-0.54,-0.78,4.78,4.77,4.77
54.10,5.51,0.76,5.50,0.75,-0.75,-0.55,-0.82,4.76,4.75,4.75
54.64,5.51,0.78,5.50,0.77,-0.77,-0.57,-0.87,4.74,4.72,4.73
55.18,5.51,0.81,5.50,0.80,-0.80,-0.59,-0.91,4.71,4.70,4.70
55.74,5.51,0.84,5.49,0.81,-0.81,-0.60,-0.95,4.69,4.68,4.67
56.29,5.50,0.84,5.49,0.83,-0.83,-0.62,-0.99,4.67,4.65,4.66
56.86,5.48,0.85,5.48,0.85,-0.85,-0.63,-1.03,4.63,4.63,4.63
57.42,5.46,0.87,5.46,0.86,-0.86,-0.65,-1.06,4.60,4.60,4.59
58.00,5.44,0.87,5.44,0.87,-0.87,-0.67,-1.10,4.57,4.58,4.57
58.58,5.42,0.87,5.43,0.88,-0.88,-0.69,-1.13,4.54,4.55,4.55
59.16,5.40,0.88,5.41,0.89,-0.89,-0.70,-1.17,4.51,4.51,4.52
59.76,5.38,0.88,5.38,0.90,-0.90,-0.72,-1.20,4.48,4.48,4.50
60.35,5.36,0.90,5.36,0.92,-0.92,-0.74,-1.23,4.44,4.45,4.46
60.96,5.34,0.91,5.34,0.93,-0.93,-0.76,-1.25,4.41,4.41,4.42
61.57,5.32,0.94,5.32,0.94,-0.94,-0.78,-1.28,4.38,4.38,4.38
62.18,5.30,0.97,5.30,0.96,-0.96,-0.79,-1.30,4.34,4.34,4.33
62.80,5.28,0.98,5.28,0.98,-0.98,-0.81,-1.33,4.30,4.30,4.30
63.43,5.26,1.01,5.25,1.00,-1.00,-0.83,-1.35,4.26,4.26,4.25
64.07,5.24,1.03,5.23,1.02,-1.02,-0.85,-1.36,4.22,4.21,4.21
64.71,5.22,1.05,5.21,1.04,-1.04,-0.87,-1.38,4.18,4.17,4.17
65.35,5.20,1.08,5.20,1.07,-1.07,-0.89,-1.40,4.13,4.13,4.12
66.01,5.18,1.10,5.18,1.10,-1.10,-0.91,-1.41,4.08,4.08,4.08
66.67,5.17,1.12,5.17,1.13,-1.13,-0.93,-1.42,4.04,4.04,4.05
67.33,5.15,1.15,5.16,1.17,-1.17,-0.96,-1.44,3.98,3.99,4.00
68.01,5.14,1.19,5.16,1.21,-1.21,-0.98,-1.45,3.93,3.95,3.95
68.69,5.13,1.22,5.15,1.25,-1.25,-1.00,-1.45,3.88,3.90,3.91
69.37,5.13,1.27,5.15,1.29,-1.29,-1.02,-1.46,3.84,3.86,3.86
70.07,5.13,1.32,5.15,1.34,-1.34,-1.04,-1.47,3.79,3.81,3.81
70.77,5.15,1.38,5.15,1.38,-1.38,-1.07,-1.48,3.77,3.77,3.77
71.48,5.16,1.43,5.15,1.43,-1.43,-1.09,-1.49,3.73,3.72,3.73
72.19,5.17,1.49,5.15,1.47,-1.47,-1.11,-1.49,3.70,3.68,3.68
72.91,5.18,1.55,5.15,1.52,-1.52,-1.14,-1.50,3.66,3.64,3.63
73.64,5.17,1.58,5.15,1.56,-1.56,-1.16,-1.50,3.61,3.59,3.59
74.38,5.16,1.61,5.15,1.60,-1.60,-1.18,-1.51,3.56,3.55,3.55
75.12,5.15,1.64,5.14,1.63,-1.63,-1.21,-1.52,3.52,3.51,3.51
75.87,5.13,1.66,5.13,1.66,-1.66,-1.23,-1.53,3.47,3.47,3.47
76.63,5.12,1.69,5.12,1.69,-1.69,-1.26,-1.53,3.43,3.43,3.43
77.40,5.10,1.71,5.10,1.71,-1.71,-1.29,-1.54,3.39,3.39,3.39
78.17,5.07,1.72,5.08,1.73,-1.73,-1.31,-1.55,3.34,3.36,3.35
78.95,5.05,1.73,5.06,1.74,-1.74,-1.34,-1.56,3.31,3.32,3.32
79.74,5.04,1.75,5.03,1.75,-1.75,-1.37,-1.57,3.29,3.29,3.29
80.54,5.01,1.75,5.00,1.75,-1.75,-1.39,-1.58,3.26,3.25,3.26
81.35,4.99,1.77,4.97,1.75,-1.75,-1.42,-1.60,3.24,3.22,3.22
82.16,4.95,1.76,4.94,1.75,-1.75,-1.45,-1.61,3.20,3.19,3.19
82.98,4.92,1.76,4.90,1.75,-1.75,-1.48,-1.63,3.17,3.16,3.16
83.81,4.88,1.75,4.87,1.74,-1.74,-1.50,-1.64,3.14,3.13,3.13
84.65,4.84,1.75,4.83,1.73,-1.73,-1.53,-1.66,3.10,3.10,3.09
85.50,4.80,1.73,4.80,1.73,-1.73,-1.56,-1.68,3.07,3.07,3.07
86.35,4.75,1.71,4.76,1.72,-1.72,-1.59,-1.70,3.03,3.04,3.04
87.22,4.71,1.70,4.73,1.72,-1.72,-1.62,-1.72,2.99,3.01,3.01
88.09,4.68,1.70,4.70,1.71,-1.71,-1.65,-1.75,2.97,2.99,2.98
88.97,4.65,1.69,4.67,1.71,-1.71,-1.68,-1.77,2.94,2.96,2.96
89.86,4.62,1.68,4.64,1.71,-1.71,-1.71,-1.80,2.91,2.93,2.94
90.76,4.60,1.70,4.61,1.71,-1.71,-1.74,-1.83,2.89,2.90,2.90
91.66,4.59,1.72,4.58,1.71,-1.71,-1.77,-1.86,2.88,2.87,2.87
92.58,4.57,1.73,4.56,1.71,-1.71,-1.80,-1.89,2.86,2.85,2.84
93.51,4.55,1.72,4.53,1.72,-1.72,-1.83,-1.92,2.83,2.82,2.82
94.44,4.53,1.74,4.51,1.73,-1.73,-1.86,-1.95,2.80,2.79,2.79
95.39,4.50,1.73,4.49,1.74,-1.74,-1.89,-1.99,2.76,2.75,2.76
96.34,4.47,1.75,4.47,1.75,-1.75,-1.92,-2.02,2.72,2.72,2.72
97.30,4.44,1.76,4.45,1.76,-1.76,-1.95,-2.06,2.68,2.69,2.68
98.28,4.42,1.77,4.42,1.77,-1.77,-1.98,-2.10,2.65,2.65,2.65
99.26,4.40,1.79,4.40,1.79,-1.79,-2.01,-2.13,2.61,2.61,2.61
100.25,4.38,1.81,4.38,1.80,-1.80,-2.04,-2.17,2.58,2.57,2.57
101.25,4.34,1.80,4.35,1.82,-1.82,-2.07,-2.21,2.52,2.53,2.54
102.27,4.32,1.83,4.33,1.84,-1.84,-2.10,-2.25,2.48,2.49,2.49
103.29,4.30,1.86,4.30,1.86,-1.86,-2.13,-2.29,2.44,2.44,2.44
104.32,4.28,1.88,4.28,1.88,-1.88,-2.16,-2.33,2.40,2.40,2.40
105.37,4.26,1.91,4.25,1.91,-1.91,-2.19,-2.37,2.35,2.35,2.35
106.42,4.24,1.94,4.23,1.94,-1.94,-2.22,-2.41,2.30,2.29,2.30
107.48,4.21,1.96,4.21,1.97,-1.97,-2.24,-2.45,2.24,2.24,2.25
108.56,4.18,2.00,4.18,2.00,-2.00,-2.27,-2.49,2.18,2.18,2.18
109.64,4.16,2.04,4.16,2.04,-2.04,-2.30,-2.52,2.12,2.12,2.12
110.74,4.13,2.06,4.13,2.07,-2.07,-2.32,-2.56,2.05,2.06,2.07
111.85,4.10,2.10,4.11,2.11,-2.11,-2.35,-2.59,1.99,1.99,2.00
112.97,4.08,2.16,4.08,2.15,-2.15,-2.37,-2.62,1.93,1.93,1.92
114.10,4.05,2.18,4.05,2.19,-2.19,-2.40,-2.65,1.86,1.86,1.87
115.24,4.02,2.23,4.02,2.23,-2.23,-2.42,-2.68,1.79,1.79,1.79
116.39,4.00,2.29,3.99,2.27,-2.27,-2.44,-2.70,1.73,1.72,1.71
117.55,3.98,2.33,3.97,2.31,-2.31,-2.46,-2.72,1.66,1.65,1.65
118.73,3.95,2.38,3.94,2.36,-2.36,-2.48,-2.74,1.59,1.59,1.57
119.92,3.91,2.39,3.92,2.40,-2.40,-2.50,-2.75,1.51,1.52,1.52
121.12,3.88,2.43,3.89,2.44,-2.44,-2.51,-2.76,1.44,1.45,1.44
122.33,3.85,2.47,3.86,2.48,-2.48,-2.53,-2.77,1.37,1.39,1.38
123.55,3.82,2.49,3.84,2.51,-2.51,-2.54,-2.77,1.31,1.32,1.33
124.79,3.79,2.52,3.81,2.55,-2.55,-2.56,-2.77,1.24,1.26,1.27
126.03,3.77,2.56,3.78,2.58,-2.58,-2.57,-2.76,1.19,1.20,1.21
127.29,3.76,2.61,3.75,2.60,-2.60,-2.58,-2.75,1.16,1.14,1.14
128.57,3.74,2.66,3.71,2.63,-2.63,-2.58,-2.74,1.11,1.08,1.07
129.85,3.70,2.67,3.68,2.65,-2.65,-2.59,-2.72,1.05,1.03,1.03
131.15,3.64,2.67,3.64,2.66,-2.66,-2.60,-2.70,0.98,0.97,0.97
132.46,3.61,2.69,3.60,2.68,-2.68,-2.60,-2.67,0.93,0.92,0.92
133.79,3.56,2.69,3.55,2.69,-2.69,-2.60,-2.64,0.87,0.87,0.87
135.12,3.50,2.68,3.51,2.69,-2.69,-2.60,-2.61,0.81,0.82,0.82
136.48,3.46,2.69,3.46,2.69,-2.69,-2.59,-2.57,0.77,0.77,0.77
137.84,3.39,2.67,3.41,2.69,-2.69,-2.59,-2.53,0.70,0.72,0.72
139.22,3.35,2.68,3.35,2.68,-2.68,-2.58,-2.49,0.67,0.67,0.67
140.61,3.30,2.69,3.30,2.67,-2.67,-2.57,-2.45,0.63,0.63,0.61
142.02,3.22,2.64,3.24,2.66,-2.66,-2.56,-2.40,0.56,0.58,0.58
143.44,3.18,2.64,3.18,2.64,-2.64,-2.55,-2.36,0.54,0.54,0.54
144.87,3.11,2.62,3.12,2.63,-2.63,-2.54,-2.31,0.48,0.49,0.49
146.32,3.06,2.62,3.05,2.61,-2.61,-2.52,-2.26,0.45,0.44,0.44
147.78,2.99,2.58,2.98,2.59,-2.59,-2.50,-2.21,0.40,0.40,0.41
149.26,2.93,2.57,2.91,2.57,-2.57,-2.48,-2.15,0.36,0.35,0.36
150.75,2.84,2.54,2.84,2.54,-2.54,-2.46,-2.10,0.30,0.30,0.29
152.26,2.78,2.53,2.76,2.51,-2.51,-2.43,-2.05,0.27,0.25,0.25
153.78,2.69,2.48,2.69,2.48,-2.48,-2.41,-2.00,0.21,0.20,0.21
155.32,2.62,2.47,2.60,2.45,-2.45,-2.38,-1.95,0.17,0.15,0.14
156.88,2.50,2.40,2.51,2.41,-2.41,-2.35,-1.89,0.09,0.10,0.10
158.44,2.42,2.37,2.42,2.38,-2.38,-2.32,-1.84,0.04,0.05,0.05
160.03,2.31,2.32,2.33,2.33,-2.33,-2.29,-1.79,-0.02,-0.00,-0.01
161.63,2.24,2.30,2.23,2.29,-2.29,-2.25,-1.74,-0.05,-0.06,-0.07
163.24,2.16,2.27,2.13,2.24,-2.24,-2.21,-1.69,-0.08,-0.11,-0.11
164.88,2.03,2.19,2.03,2.19,-2.19,-2.18,-1.64,-0.16,-0.16,-0.16
166.53,1.93,2.14,1.93,2.15,-2.15,-2.14,-1.59,-0.22,-0.22,-0.22
168.19,1.84,2.11,1.83,2.10,-2.10,-2.10,-1.55,-0.26,-0.27,-0.27
169.87,1.71,2.03,1.73,2.05,-2.05,-2.05,-1.50,-0.35,-0.33,-0.32
171.57,1.61,1.99,1.62,2.01,-2.01,-2.01,-1.45,-0.40,-0.38,-0.38
173.29,1.53,1.97,1.52,1.96,-1.96,-1.96,-1.41,-0.43,-0.44,-0.44
175.02,1.39,1.88,1.42,1.92,-1.92,-1.92,-1.37,-0.53,-0.50,-0.49
176.77,1.30,1.86,1.31,1.87,-1.87,-1.87,-1.33,-0.57,-0.56,-0.56
178.54,1.21,1.83,1.21,1.83,-1.83,-1.82,-1.29,-0.62,-0.62,-0.62
180.32,1.13,1.81,1.10,1.78,-1.78,-1.77,-1.25,-0.65,-0.68,-0.68
182.13,1.04,1.78,1.00,1.74,-1.74,-1.72,-1.21,-0.70,-0.74,-0.74
183.95,0.89,1.69,0.90,1.70,-1.70,-1.67,-1.17,-0.81,-0.80,-0.80
185.79,0.78,1.64,0.80,1.66,-1.66,-1.62,-1.13,-0.88,-0.86,-0.86
187.65,0.68,1.61,0.69,1.61,-1.61,-1.57,-1.10,-0.94,-0.92,-0.93
189.52,0.58,1.57,0.59,1.57,-1.57,-1.52,-1.06,-0.99,-0.98,-0.99
191.42,0.48,1.52,0.48,1.52,-1.52,-1.46,-1.03,-1.04,-1.04,-1.04
193.33,0.38,1.48,0.37,1.47,-1.47,-1.41,-0.99,-1.09,-1.10,-1.10
195.27,0.27,1.42,0.27,1.42,-1.42,-1.35,-0.96,-1.15,-1.16,-1.15
197.22,0.16,1.37,0.15,1.36,-1.36,-1.30,-0.93,-1.21,-1.21,-1.21
199.19,0.05,1.32,0.04,1.30,-1.30,-1.24,-0.90,-1.26,-1.26,-1.27
201.18,-0.06,1.26,-0.07,1.24,-1.24,-1.19,-0.87,-1.30,-1.32,-1.32
203.19,-0.17,1.19,-0.18,1.18,-1.18,-1.13,-0.84,-1.35,-1.37,-1.36
205.23,-0.29,1.13,-0.29,1.12,-1.12,-1.08,-0.81,-1.41,-1.42,-1.42
207.28,-0.40,1.05,-0.41,1.05,-1.05,-1.02,-0.79,-1.45,-1.46,-1.45
209.35,-0.52,0.99,-0.53,0.98,-0.98,-0.97,-0.76,-1.50,-1.51,-1.51
211.44,-0.65,0.91,-0.64,0.91,-0.91,-0.91,-0.73,-1.56,-1.55,-1.56
213.56,-0.77,0.83,-0.76,0.84,-0.84,-0.86,-0.70,-1.61,-1.60,-1.60
215.69,-0.88,0.75,-0.88,0.76,-0.76,-0.80,-0.68,-1.64,-1.64,-1.63
217.85,-1.00,0.67,-0.99,0.69,-0.69,-0.75,-0.65,-1.69,-1.68,-1.67
220.03,-1.08,0.64,-1.10,0.61,-0.61,-0.70,-0.63,-1.69,-1.71,-1.72
222.23,-1.19,0.56,-1.20,0.54,-0.54,-0.64,-0.60,-1.73,-1.74,-1.75
224.45,-1.30,0.47,-1.30,0.47,-0.47,-0.59,-0.57,-1.77,-1.77,-1.78
226.70,-1.42,0.38,-1.40,0.40,-0.40,-0.54,-0.55,-1.82,-1.80,-1.80
228.96,-1.53,0.30,-1.50,0.33,-0.33,-0.48,-0.52,-1.86,-1.83,-1.83
231.25,-1.59,0.25,-1.58,0.27,-0.27,-0.43,-0.49,-1.86,-1.85,-1.84
233.57,-1.66,0.21,-1.67,0.20,-0.20,-0.38,-0.47,-1.86,-1.87,-1.87
235.90,-1.76,0.13,-1.75,0.13,-0.13,-0.33,-0.44,-1.90,-1.88,-1.89
238.26,-1.81,0.09,-1.83,0.07,-0.07,-0.28,-0.41,-1.88,-1.90,-1.90
240.64,-1.88,0.03,-1.90,0.01,-0.01,-0.23,-0.39,-1.89,-1.91,-1.91
243.05,-1.93,-0.02,-1.96,-0.04,0.04,-0.18,-0.36,-1.89,-1.92,-1.91
245.48,-1.99,-0.07,-2.02,-0.10,0.10,-0.13,-0.33,-1.89,-1.92,-1.92
247.93,-2.08,-0.16,-2.07,-0.15,0.15,-0.08,-0.30,-1.93,-1.92,-1.92
250.41,-2.12,-0.19,-2.11,-0.19,0.19,-0.04,-0.27,-1.93,-1.92,-1.93
252.92,-2.17,-0.25,-2.15,-0.23,0.23,0.01,-0.24,-1.94,-1.92,-1.92
255.45,-2.19,-0.28,-2.18,-0.26,0.26,0.05,-0.20,-1.93,-1.92,-1.91
258.00,-2.22,-0.31,-2.20,-0.29,0.29,0.10,-0.17,-1.93,-1.91,-1.91
260.58,-2.23,-0.33,-2.21,-0.31,0.31,0.14,-0.14,-1.92,-1.90,-1.91
263.19,-2.22,-0.33,-2.21,-0.31,0.31,0.19,-0.10,-1.91,-1.89,-1.89
265.82,-2.21,-0.32,-2.20,-0.32,0.32,0.23,-0.07,-1.89,-1.88,-1.89
268.48,-2.20,-0.33,-2.18,-0.31,0.31,0.27,-0.03,-1.89,-1.87,-1.87
271.16,-2.19,-0.34,-2.16,-0.30,0.30,0.31,0.00,-1.89,-1.86,-1.86
273.87,-2.15,-0.30,-2.13,-0.28,0.28,0.35,0.04,-1.87,-1.85,-1.85
276.61,-2.12,-0.29,-2.10,-0.27,0.27,0.39,0.08,-1.86,-1.84,-1.83
279.38,-2.08,-0.26,-2.08,-0.25,0.25,0.43,0.12,-1.83,-1.82,-1.83
282.17,-2.03,-0.22,-2.05,-0.24,0.24,0.47,0.16,-1.79,-1.81,-1.81
284.99,-1.99,-0.19,-2.03,-0.23,0.23,0.51,0.20,-1.76,-1.80,-1.80
287.84,-1.96,-0.17,-2.01,-0.22,0.22,0.54,0.24,-1.74,-1.79,-1.79
290.72,-1.95,-0.17,-2.00,-0.23,0.23,0.58,0.28,-1.72,-1.77,-1.78
293.63,-1.96,-0.20,-2.00,-0.23,0.23,0.62,0.33,-1.73,-1.76,-1.76
296.57,-1.98,-0.23,-2.00,-0.25,0.25,0.65,0.37,-1.73,-1.75,-1.75
299.53,-2.01,-0.27,-2.01,-0.27,0.27,0.69,0.42,-1.74,-1.74,-1.74
302.53,-2.04,-0.30,-2.02,-0.30,0.30,0.72,0.46,-1.74,-1.73,-1.74
305.55,-2.07,-0.36,-2.05,-0.33,0.33,0.76,0.51,-1.74,-1.72,-1.71
308.61,-2.10,-0.39,-2.08,-0.37,0.37,0.79,0.56,-1.73,-1.71,-1.71
311.69,-2.14,-0.44,-2.12,-0.42,0.42,0.83,0.60,-1.72,-1.70,-1.70
314.81,-2.16,-0.49,-2.17,-0.48,0.48,0.86,0.65,-1.68,-1.69,-1.67
317.96,-2.20,-0.52,-2.22,-0.53,0.53,0.90,0.70,-1.67,-1.68,-1.68
321.14,-2.26,-0.59,-2.27,-0.59,0.59,0.93,0.76,-1.67,-1.67,-1.67
324.35,-2.32,-0.65,-2.32,-0.65,0.65,0.96,0.81,-1.67,-1.67,-1.68
327.59,-2.39,-0.73,-2.38,-0.72,0.72,1.00,0.86,-1.67,-1.66,-1.66
330.87,-2.44,-0.78,-2.44,-0.78,0.78,1.03,0.92,-1.66,-1.66,-1.66
334.18,-2.51,-0.85,-2.51,-0.85,0.85,1.07,0.97,-1.66,-1.66,-1.67
337.52,-2.59,-0.93,-2.59,-0.93,0.93,1.10,1.03,-1.66,-1.66,-1.66
340.90,-2.66,-1.01,-2.66,-1.01,1.01,1.14,1.09,-1.65,-1.66,-1.65
344.30,-2.74,-1.09,-2.75,-1.09,1.09,1.18,1.14,-1.65,-1.66,-1.65
347.75,-2.82,-1.16,-2.84,-1.18,1.18,1.21,1.20,-1.64,-1.66,-1.66
351.23,-2.91,-1.25,-2.93,-1.27,1.27,1.25,1.27,-1.64,-1.66,-1.66
354.74,-3.01,-1.35,-3.02,-1.36,1.36,1.29,1.33,-1.65,-1.67,-1.66
358.28,-3.12,-1.45,-3.12,-1.45,1.45,1.33,1.39,-1.67,-1.67,-1.67
361.87,-3.22,-1.54,-3.22,-1.54,1.54,1.37,1.46,-1.68,-1.68,-1.68
365.49,-3.33,-1.65,-3.32,-1.64,1.64,1.41,1.52,-1.69,-1.68,-1.68
369.14,-3.44,-1.75,-3.43,-1.74,1.74,1.45,1.59,-1.70,-1.69,-1.69
372.83,-3.52,-1.83,-3.53,-1.83,1.83,1.50,1.65,-1.69,-1.70,-1.69
376.56,-3.64,-1.94,-3.64,-1.93,1.93,1.54,1.72,-1.71,-1.70,-1.71
380.33,-3.73,-2.02,-3.74,-2.03,2.03,1.59,1.79,-1.70,-1.71,-1.71
384.13,-3.83,-2.11,-3.84,-2.12,2.12,1.64,1.86,-1.71,-1.72,-1.72
387.97,-3.93,-2.20,-3.94,-2.21,2.21,1.68,1.93,-1.72,-1.73,-1.73
391.85,-4.03,-2.29,-4.03,-2.30,2.30,1.73,2.00,-1.73,-1.73,-1.74
395.77,-4.12,-2.39,-4.12,-2.38,2.38,1.78,2.08,-1.74,-1.74,-1.73
399.73,-4.21,-2.47,-4.20,-2.45,2.45,1.84,2.15,-1.76,-1.75,-1.75
403.72,-4.29,-2.53,-4.28,-2.52,2.52,1.89,2.22,-1.77,-1.75,-1.76
407.76,-4.36,-2.59,-4.35,-2.59,2.59,1.95,2.29,-1.78,-1.76,-1.77
411.84,-4.42,-2.66,-4.41,-2.64,2.64,2.00,2.36,-1.78,-1.77,-1.76
415.96,-4.48,-2.71,-4.46,-2.69,2.69,2.06,2.43,-1.79,-1.77,-1.77
420.12,-4.52,-2.75,-4.50,-2.72,2.72,2.12,2.50,-1.80,-1.77,-1.77
424.32,-4.55,-2.78,-4.53,-2.76,2.76,2.18,2.57,-1.79,-1.78,-1.77
428.56,-4.57,-2.79,-4.56,-2.78,2.78,2.24,2.64,-1.79,-1.78,-1.79
432.85,-4.59,-2.80,-4.58,-2.80,2.80,2.30,2.70,-1.79,-1.78,-1.79
437.18,-4.59,-2.80,-4.60,-2.81,2.81,2.36,2.77,-1.78,-1.78,-1.79
441.55,-4.60,-2.82,-4.61,-2.82,2.82,2.43,2.83,-1.78,-1.78,-1.78
445.96,-4.60,-2.82,-4.61,-2.83,2.83,2.49,2.88,-1.77,-1.78,-1.78
450.42,-4.59,-2.80,-4.61,-2.83,2.83,2.55,2.94,-1.76,-1.78,-1.79
454.93,-4.59,-2.81,-4.61,-2.83,2.83,2.62,2.99,-1.76,-1.78,-1.78
459.48,-4.59,-2.81,-4.61,-2.83,2.83,2.68,3.03,-1.76,-1.78,-1.78
464.07,-4.60,-2.83,-4.60,-2.83,2.83,2.74,3.07,-1.77,-1.77,-1.77
468.71,-4.60,-2.84,-4.60,-2.83,2.83,2.80,3.11,-1.77,-1.77,-1.76
473.40,-4.59,-2.83,-4.59,-2.82,2.82,2.85,3.13,-1.77,-1.76,-1.76
478.13,-4.57,-2.82,-4.57,-2.81,2.81,2.91,3.16,-1.76,-1.76,-1.76
482.91,-4.55,-2.79,-4.55,-2.80,2.80,2.96,3.17,-1.75,-1.75,-1.76
487.74,-4.54,-2.79,-4.53,-2.78,2.78,3.01,3.19,-1.76,-1.75,-1.75
492.62,-4.52,-2.78,-4.51,-2.76,2.76,3.05,3.19,-1.76,-1.74,-1.74
497.55,-4.50,-2.76,-4.48,-2.74,2.74,3.09,3.19,-1.76,-1.74,-1.74
502.52,-4.46,-2.73,-4.44,-2.71,2.71,3.12,3.18,-1.75,-1.73,-1.73
507.55,-4.42,-2.69,-4.41,-2.68,2.68,3.15,3.16,-1.74,-1.73,-1.73
512.62,-4.37,-2.64,-4.37,-2.64,2.64,3.17,3.14,-1.73,-1.73,-1.73
