frequency,raw,error,smoothed,error_smoothed,equalization,parametric_eq,fixed_band_eq,equalized_raw,equalized_smoothed,target
20.00,1.46,-1.84,1.46,-1.84,1.84,1.53,0.09,3.29,3.30,3.30
20.20,1.52,-1.82,1.52,-1.82,1.82,1.55,0.10,3.34,3.34,3.34
20.40,1.57,-1.81,1.57,-1.81,1.81,1.56,0.11,3.38,3.38,3.38
20.61,1.63,-1.78,1.63,-1.79,1.79,1.56,0.11,3.42,3.42,3.41
20.81,1.68,-1.77,1.68,-1.77,1.77,1.56,0.12,3.45,3.45,3.45
21.02,1.74,-1.75,1.74,-1.75,1.74,1.55,0.13,3.48,3.48,3.49
21.23,1.79,-1.72,1.79,-1.72,1.72,1.53,0.13,3.51,3.51,3.51
21.44,1.84,-1.69,1.84,-1.69,1.69,1.50,0.14,3.53,3.53,3.53
21.66,1.90,-1.65,1.90,-1.65,1.65,1.46,0.15,3.55,3.55,3.55
21.87,1.95,-1.61,1.95,-1.61,1.61,1.42,0.16,3.56,3.56,3.56
22.09,2.00,-1.58,2.00,-1.57,1.57,1.38,0.17,3.57,3.58,3.58
22.31,2.06,-1.53,2.06,-1.53,1.53,1.32,0.17,3.59,3.59,3.59
22.54,2.12,-1.48,2.12,-1.48,1.48,1.27,0.18,3.60,3.60,3.60
22.76,2.17,-1.44,2.17,-1.43,1.43,1.21,0.19,3.60,3.61,3.61
22.99,2.23,-1.38,2.23,-1.38,1.39,1.16,0.20,3.62,3.62,3.61
23.22,2.28,-1.34,2.28,-1.34,1.34,1.10,0.21,3.62,3.63,3.62
23.45,2.34,-1.29,2.34,-1.29,1.30,1.04,0.22,3.64,3.63,3.63
23.69,2.39,-1.25,2.39,-1.25,1.25,0.98,0.23,3.64,3.64,3.64
23.92,2.44,-1.21,2.44,-1.21,1.21,0.92,0.24,3.65,3.65,3.65
24.16,2.50,-1.17,2.50,-1.17,1.16,0.86,0.25,3.66,3.66,3.67
24.40,2.55,-1.14,2.55,-1.13,1.12,0.80,0.26,3.67,3.67,3.69
24.65,2.61,-1.07,2.61,-1.08,1.07,0.75,0.27,3.68,3.68,3.68
24.89,2.67,-1.02,2.67,-1.02,1.03,0.70,0.28,3.70,3.69,3.69
25.14,2.72,-0.98,2.72,-0.98,0.98,0.65,0.29,3.70,3.70,3.70
25.39,2.78,-0.93,2.78,-0.93,0.93,0.60,0.30,3.71,3.71,3.71
25.65,2.83,-0.90,2.83,-0.89,0.89,0.55,0.31,3.72,3.72,3.73
25.91,2.89,-0.84,2.89,-0.84,0.84,0.50,0.32,3.73,3.73,3.73
26.16,2.95,-0.79,2.95,-0.79,0.80,0.46,0.33,3.75,3.74,3.74
26.43,3.00,-0.75,3.00,-0.75,0.75,0.41,0.34,3.75,3.75,3.75
26.69,3.06,-0.70,3.06,-0.71,0.71,0.37,0.35,3.76,3.76,3.76
26.96,3.11,-0.67,3.11,-0.67,0.66,0.33,0.36,3.77,3.77,3.78
27.23,3.17,-0.62,3.17,-0.62,0.61,0.30,0.37,3.78,3.78,3.79
27.50,3.22,-0.57,3.22,-0.57,0.57,0.26,0.38,3.79,3.79,3.79
27.77,3.28,-0.51,3.28,-0.52,0.52,0.23,0.38,3.80,3.80,3.79
28.05,3.33,-0.48,3.33,-0.47,0.48,0.19,0.39,3.80,3.81,3.81
28.33,3.38,-0.43,3.38,-0.43,0.43,0.16,0.39,3.81,3.81,3.81
28.62,3.44,-0.38,3.44,-0.38,0.38,0.13,0.40,3.82,3.82,3.82
28.90,3.49,-0.34,3.49,-0.34,0.34,0.10,0.40,3.82,3.83,3.83
29.19,3.55,-0.28,3.55,-0.29,0.29,0.07,0.40,3.84,3.84,3.83
29.48,3.60,-0.26,3.60,-0.25,0.24,0.04,0.40,3.84,3.84,3.86
29.78,3.66,-0.19,3.66,-0.19,0.19,0.01,0.40,3.85,3.85,3.85
30.08,3.71,-0.15,3.71,-0.15,0.15,-0.01,0.40,3.86,3.86,3.86
30.38,3.77,-0.09,3.77,-0.10,0.10,-0.04,0.39,3.87,3.86,3.86
30.68,3.82,-0.06,3.82,-0.05,0.05,-0.06,0.39,3.87,3.87,3.88
30.99,3.88,0.00,3.88,-0.00,0.00,-0.09,0.38,3.88,3.88,3.88
31.30,3.93,0.05,3.93,0.04,-0.05,-0.11,0.37,3.88,3.88,3.88
31.61,3.98,0.09,3.98,0.10,-0.09,-0.13,0.36,3.89,3.89,3.89
31.93,4.04,0.14,4.04,0.14,-0.14,-0.16,0.35,3.90,3.90,3.90
32.24,4.09,0.19,4.09,0.18,-0.18,-0.18,0.33,3.91,3.91,3.90
32.57,4.14,0.22,4.14,0.23,-0.23,-0.20,0.31,3.91,3.91,3.92
32.89,4.19,0.27,4.19,0.27,-0.27,-0.22,0.30,3.92,3.92,3.92
33.22,4.24,0.31,4.24,0.31,-0.31,-0.24,0.28,3.93,3.93,3.93
33.55,4.29,0.35,4.29,0.35,-0.36,-0.26,0.26,3.93,3.93,3.94
33.89,4.34,0.39,4.34,0.39,-0.40,-0.28,0.23,3.94,3.94,3.95
34.23,4.39,0.44,4.39,0.44,-0.44,-0.30,0.21,3.95,3.95,3.95
34.57,4.45,0.49,4.45,0.49,-0.49,-0.32,0.18,3.96,3.96,3.96
34.92,4.50,0.54,4.49,0.53,-0.53,-0.34,0.16,3.97,3.96,3.96
35.27,4.54,0.57,4.54,0.58,-0.58,-0.36,0.13,3.96,3.97,3.97
35.62,4.59,0.62,4.59,0.62,-0.62,-0.38,0.10,3.97,3.97,3.97
35.97,4.64,0.67,4.63,0.66,-0.67,-0.40,0.07,3.97,3.97,3.97
36.33,4.68,0.70,4.68,0.71,-0.71,-0.42,0.03,3.97,3.97,3.98
36.70,4.72,0.75,4.72,0.75,-0.75,-0.44,0.00,3.97,3.98,3.97
37.06,4.77,0.79,4.76,0.79,-0.79,-0.46,-0.03,3.98,3.98,3.98
37.43,4.80,0.82,4.80,0.83,-0.82,-0.48,-0.07,3.98,3.98,3.98
37.81,4.84,0.86,4.84,0.86,-0.86,-0.49,-0.10,3.98,3.98,3.98
38.19,4.87,0.89,4.87,0.89,-0.89,-0.51,-0.14,3.98,3.98,3.98
38.57,4.89,0.92,4.89,0.92,-0.92,-0.53,-0.18,3.97,3.97,3.97
38.95,4.92,0.95,4.92,0.95,-0.95,-0.55,-0.22,3.97,3.96,3.97
39.34,4.94,0.98,4.94,0.98,-0.98,-0.57,-0.26,3.96,3.96,3.96
39.74,4.97,1.01,4.97,1.01,-1.01,-0.59,-0.30,3.96,3.96,3.96
40.14,5.00,1.04,5.00,1.04,-1.04,-0.61,-0.34,3.96,3.96,3.96
40.54,5.02,1.06,5.02,1.06,-1.06,-0.63,-0.38,3.96,3.96,3.96
40.94,5.04,1.09,5.04,1.09,-1.09,-0.65,-0.42,3.95,3.95,3.95
41.35,5.06,1.11,5.06,1.11,-1.11,-0.67,-0.46,3.95,3.95,3.95
41.76,5.08,1.13,5.08,1.13,-1.13,-0.68,-0.51,3.95,3.95,3.95
42.18,5.10,1.15,5.10,1.15,-1.15,-0.70,-0.55,3.95,3.95,3.95
42.60,5.12,1.17,5.12,1.17,-1.17,-0.72,-0.59,3.94,3.94,3.95
43.03,5.14,1.19,5.14,1.19,-1.20,-0.74,-0.64,3.94,3.94,3.95
43.46,5.16,1.21,5.16,1.22,-1.22,-0.76,-0.68,3.94,3.94,3.95
43.90,5.18,1.25,5.18,1.24,-1.25,-0.78,-0.73,3.93,3.93,3.93
44.33,5.20,1.27,5.20,1.27,-1.27,-0.80,-0.78,3.93,3.93,3.93
44.78,5.22,1.30,5.22,1.30,-1.29,-0.82,-0.82,3.93,3.93,3.92
45.23,5.24,1.32,5.24,1.32,-1.31,-0.84,-0.87,3.92,3.92,3.92
45.68,5.26,1.34,5.26,1.34,-1.34,-0.86,-0.92,3.92,3.92,3.92
46.13,5.27,1.36,5.27,1.36,-1.36,-0.88,-0.97,3.91,3.92,3.91
46.60,5.29,1.37,5.29,1.38,-1.38,-0.90,-1.02,3.91,3.91,3.92
47.06,5.30,1.39,5.30,1.39,-1.40,-0.93,-1.07,3.90,3.90,3.91
47.53,5.32,1.42,5.32,1.41,-1.42,-0.95,-1.12,3.90,3.90,3.90
48.01,5.34,1.43,5.34,1.44,-1.44,-0.97,-1.17,3.90,3.90,3.91
48.49,5.35,1.46,5.35,1.46,-1.46,-0.99,-1.22,3.89,3.89,3.89
48.97,5.37,1.50,5.37,1.49,-1.49,-1.01,-1.28,3.88,3.88,3.87
49.46,5.38,1.52,5.38,1.52,-1.52,-1.03,-1.33,3.86,3.86,3.86
49.96,5.39,1.55,5.39,1.55,-1.55,-1.06,-1.38,3.84,3.85,3.84
50.46,5.40,1.56,5.40,1.57,-1.58,-1.08,-1.43,3.82,3.83,3.84
50.96,5.42,1.60,5.42,1.60,-1.61,-1.10,-1.49,3.81,3.81,3.82
51.47,5.43,1.64,5.43,1.63,-1.64,-1.12,-1.54,3.79,3.79,3.79
51.99,5.45,1.67,5.45,1.67,-1.67,-1.15,-1.59,3.78,3.78,3.78
52.51,5.47,1.70,5.47,1.70,-1.70,-1.17,-1.64,3.77,3.77,3.77
53.03,5.49,1.74,5.49,1.74,-1.73,-1.19,-1.69,3.75,3.75,3.75
53.56,5.50,1.76,5.50,1.77,-1.77,-1.22,-1.74,3.73,3.73,3.74
54.10,5.51,1.80,5.51,1.79,-1.79,-1.24,-1.79,3.72,3.71,3.71
54.64,5.51,1.81,5.51,1.82,-1.82,-1.27,-1.84,3.69,3.69,3.70
55.18,5.51,1.84,5.51,1.84,-1.84,-1.29,-1.89,3.67,3.67,3.67
55.74,5.51,1.87,5.51,1.86,-1.85,-1.32,-1.94,3.66,3.65,3.64
56.29,5.50,1.86,5.50,1.87,-1.86,-1.34,-1.98,3.63,3.63,3.64
56.86,5.48,1.87,5.48,1.87,-1.87,-1.37,-2.03,3.61,3.61,3.61
57.42,5.46,1.88,5.46,1.88,-1.88,-1.39,-2.07,3.58,3.58,3.58
58.00,5.44,1.88,5.44,1.88,-1.88,-1.42,-2.11,3.56,3.56,3.56
58.58,5.42,1.88,5.42,1.88,-1.88,-1.45,-2.14,3.54,3.54,3.54
59.16,5.40,1.88,5.40,1.88,-1.88,-1.47,-2.18,3.51,3.51,3.52
59.76,5.38,1.88,5.38,1.88,-1.89,-1.50,-2.21,3.49,3.49,3.50
60.35,5.36,1.89,5.36,1.89,-1.90,-1.52,-2.24,3.46,3.46,3.47
60.96,5.34,1.90,5.34,1.91,-1.91,-1.55,-2.27,3.43,3.43,3.44
61.57,5.32,1.93,5.32,1.92,-1.92,-1.58,-2.29,3.39,3.39,3.39
62.18,5.30,1.95,5.30,1.94,-1.94,-1.61,-2.31,3.36,3.36,3.35
62.80,5.28,1.95,5.28,1.96,-1.96,-1.63,-2.33,3.32,3.32,3.33
63.43,5.26,1.98,5.26,1.98,-1.98,-1.66,-2.35,3.28,3.28,3.28
64.07,5.24,2.00,5.24,2.00,-1.99,-1.69,-2.36,3.25,3.25,3.24
64.71,5.22,2.01,5.22,2.01,-2.01,-1.72,-2.37,3.21,3.21,3.21
65.35,5.20,2.03,5.20,2.03,-2.03,-1.75,-2.38,3.17,3.17,3.17
66.01,5.18,2.05,5.18,2.05,-2.05,-1.78,-2.38,3.13,3.13,3.13
66.67,5.17,2.07,5.17,2.07,-2.07,-1.80,-2.38,3.10,3.10,3.10
67.33,5.15,2.09,5.15,2.09,-2.09,-1.83,-2.38,3.05,3.06,3.06
68.01,5.14,2.12,5.14,2.12,-2.13,-1.86,-2.38,3.01,3.01,3.02
68.69,5.13,2.15,5.13,2.15,-2.16,-1.89,-2.38,2.97,2.97,2.98
69.37,5.13,2.19,5.13,2.19,-2.20,-1.92,-2.38,2.93,2.93,2.94
70.07,5.13,2.23,5.13,2.23,-2.24,-1.95,-2.37,2.89,2.89,2.90
70.77,5.15,2.29,5.15,2.28,-2.29,-1.98,-2.36,2.86,2.86,2.86
71.48,5.16,2.33,5.16,2.34,-2.33,-2.01,-2.36,2.83,2.83,2.83
72.19,5.17,2.39,5.17,2.39,-2.38,-2.04,-2.35,2.79,2.79,2.78
72.91,5.18,2.43,5.17,2.43,-2.42,-2.07,-2.34,2.76,2.76,2.75
73.64,5.17,2.46,5.17,2.46,-2.45,-2.10,-2.33,2.72,2.72,2.71
74.38,5.16,2.48,5.16,2.49,-2.48,-2.13,-2.32,2.68,2.68,2.68
75.12,5.15,2.51,5.15,2.51,-2.51,-2.16,-2.31,2.64,2.64,2.64
75.87,5.13,2.52,5.13,2.53,-2.53,-2.19,-2.31,2.60,2.61,2.61
76.63,5.12,2.54,5.12,2.54,-2.54,-2.21,-2.30,2.58,2.58,2.58
77.40,5.10,2.55,5.09,2.55,-2.55,-2.24,-2.29,2.55,2.54,2.55
78.17,5.07,2.55,5.07,2.56,-2.56,-2.27,-2.29,2.51,2.52,2.52
78.95,5.05,2.56,5.05,2.56,-2.56,-2.30,-2.28,2.49,2.49,2.49
79.74,5.04,2.57,5.03,2.57,-2.57,-2.33,-2.28,2.47,2.47,2.47
80.54,5.01,2.56,5.01,2.57,-2.57,-2.36,-2.28,2.44,2.45,2.45
81.35,4.99,2.57,4.99,2.57,-2.56,-2.39,-2.28,2.43,2.42,2.42
82.16,4.95,2.56,4.95,2.56,-2.55,-2.41,-2.28,2.39,2.40,2.39
82.98,4.92,2.54,4.92,2.55,-2.54,-2.44,-2.28,2.38,2.38,2.38
83.81,4.88,2.53,4.88,2.53,-2.53,-2.47,-2.28,2.35,2.35,2.35
84.65,4.84,2.52,4.84,2.51,-2.51,-2.50,-2.29,2.33,2.33,2.32
85.50,4.80,2.49,4.79,2.49,-2.49,-2.52,-2.30,2.31,2.31,2.31
86.35,4.75,2.46,4.75,2.47,-2.47,-2.55,-2.31,2.28,2.28,2.29
87.22,4.71,2.44,4.71,2.44,-2.45,-2.57,-2.32,2.26,2.26,2.27
88.09,4.68,2.43,4.68,2.43,-2.44,-2.60,-2.33,2.24,2.24,2.25
88.97,4.65,2.42,4.65,2.42,-2.43,-2.62,-2.35,2.22,2.22,2.23
89.86,4.62,2.40,4.62,2.41,-2.42,-2.65,-2.37,2.20,2.21,2.22
90.76,4.60,2.41,4.60,2.41,-2.41,-2.67,-2.38,2.19,2.19,2.19
91.66,4.59,2.42,4.58,2.41,-2.41,-2.69,-2.40,2.18,2.18,2.17
92.58,4.57,2.42,4.57,2.42,-2.41,-2.72,-2.43,2.16,2.16,2.15
93.51,4.55,2.41,4.55,2.41,-2.41,-2.74,-2.45,2.14,2.14,2.14
94.44,4.53,2.41,4.53,2.41,-2.41,-2.76,-2.48,2.12,2.12,2.12
95.39,4.50,2.40,4.50,2.40,-2.41,-2.78,-2.50,2.09,2.09,2.10
96.34,4.47,2.40,4.47,2.40,-2.41,-2.80,-2.53,2.06,2.06,2.07
97.30,4.44,2.40,4.44,2.40,-2.41,-2.82,-2.56,2.03,2.04,2.04
98.28,4.42,2.41,4.42,2.41,-2.41,-2.83,-2.60,2.01,2.01,2.01
99.26,4.40,2.41,4.40,2.41,-2.41,-2.85,-2.63,1.99,1.99,1.99
100.25,4.38,2.42,4.37,2.42,-2.41,-2.86,-2.66,1.97,1.96,1.96
101.25,4.34,2.41,4.35,2.42,-2.42,-2.88,-2.70,1.92,1.92,1.93
102.27,4.32,2.43,4.32,2.43,-2.43,-2.89,-2.73,1.89,1.89,1.89
103.29,4.30,2.44,4.30,2.44,-2.44,-2.90,-2.77,1.86,1.86,1.86
104.32,4.28,2.45,4.28,2.46,-2.46,-2.92,-2.81,1.82,1.83,1.83
105.37,4.26,2.47,4.26,2.47,-2.47,-2.93,-2.84,1.79,1.79,1.79
106.42,4.24,2.50,4.24,2.49,-2.49,-2.93,-2.88,1.75,1.75,1.74
107.48,4.21,2.50,4.21,2.51,-2.51,-2.94,-2.91,1.70,1.70,1.71
108.56,4.18,2.53,4.18,2.53,-2.53,-2.95,-2.95,1.65,1.65,1.65
109.64,4.16,2.56,4.15,2.55,-2.56,-2.95,-2.98,1.60,1.60,1.60
110.74,4.13,2.58,4.13,2.58,-2.58,-2.96,-3.02,1.55,1.55,1.55
111.85,4.10,2.60,4.10,2.61,-2.61,-2.96,-3.05,1.49,1.49,1.50
112.97,4.08,2.65,4.07,2.64,-2.64,-2.96,-3.07,1.43,1.43,1.43
114.10,4.05,2.67,4.05,2.67,-2.68,-2.96,-3.10,1.37,1.37,1.38
115.24,4.02,2.70,4.02,2.71,-2.71,-2.96,-3.12,1.31,1.31,1.32
116.39,4.00,2.75,4.00,2.75,-2.74,-2.96,-3.15,1.25,1.26,1.25
117.55,3.98,2.79,3.97,2.79,-2.78,-2.96,-3.16,1.20,1.20,1.19
118.73,3.95,2.82,3.95,2.82,-2.80,-2.95,-3.18,1.14,1.14,1.13
119.92,3.91,2.83,3.91,2.84,-2.83,-2.95,-3.19,1.08,1.08,1.08
121.12,3.88,2.86,3.88,2.86,-2.86,-2.94,-3.19,1.02,1.02,1.02
122.33,3.85,2.88,3.85,2.88,-2.89,-2.93,-3.19,0.96,0.96,0.97
123.55,3.82,2.90,3.82,2.90,-2.91,-2.92,-3.19,0.91,0.90,0.92
124.79,3.79,2.92,3.79,2.92,-2.94,-2.91,-3.18,0.85,0.85,0.87
126.03,3.77,2.95,3.77,2.96,-2.96,-2.90,-3.17,0.81,0.81,0.82
127.29,3.76,2.99,3.76,2.99,-2.98,-2.88,-3.16,0.77,0.77,0.77
128.57,3.74,3.03,3.73,3.02,-3.00,-2.87,-3.14,0.74,0.73,0.71
129.85,3.70,3.03,3.70,3.03,-3.02,-2.85,-3.11,0.68,0.68,0.67
131.15,3.64,3.02,3.65,3.03,-3.02,-2.83,-3.08,0.62,0.63,0.62
132.46,3.61,3.03,3.60,3.02,-3.03,-2.82,-3.05,0.58,0.58,0.58
133.79,3.56,3.02,3.56,3.02,-3.02,-2.80,-3.02,0.54,0.53,0.54
135.12,3.50,3.00,3.51,3.01,-3.01,-2.77,-2.98,0.49,0.49,0.50
136.48,3.46,3.00,3.45,2.99,-3.00,-2.75,-2.93,0.46,0.45,0.46
137.84,3.39,2.97,3.40,2.99,-2.99,-2.73,-2.89,0.40,0.42,0.42
139.22,3.35,2.98,3.35,2.97,-2.97,-2.70,-2.84,0.38,0.38,0.37
140.61,3.30,2.97,3.29,2.95,-2.95,-2.68,-2.79,0.35,0.34,0.33
142.02,3.22,2.91,3.23,2.93,-2.93,-2.65,-2.73,0.29,0.30,0.31
143.44,3.18,2.91,3.17,2.91,-2.91,-2.63,-2.68,0.27,0.26,0.27
144.87,3.11,2.88,3.11,2.88,-2.89,-2.60,-2.62,0.22,0.23,0.23
146.32,3.06,2.87,3.06,2.86,-2.86,-2.57,-2.56,0.20,0.19,0.19
147.78,2.99,2.83,2.99,2.83,-2.84,-2.54,-2.51,0.15,0.15,0.16
149.26,2.93,2.80,2.92,2.81,-2.80,-2.51,-2.45,0.12,0.12,0.13
150.75,2.84,2.77,2.85,2.77,-2.77,-2.47,-2.39,0.07,0.08,0.07
152.26,2.78,2.75,2.78,2.74,-2.74,-2.44,-2.33,0.04,0.04,0.03
153.78,2.69,2.69,2.69,2.70,-2.70,-2.41,-2.27,-0.01,-0.00,-0.00
155.32,2.62,2.68,2.61,2.66,-2.66,-2.37,-2.21,-0.04,-0.05,-0.06
156.88,2.50,2.59,2.51,2.60,-2.61,-2.34,-2.15,-0.11,-0.10,-0.09
158.44,2.42,2.56,2.41,2.56,-2.57,-2.30,-2.09,-0.15,-0.15,-0.14
160.03,2.31,2.50,2.32,2.51,-2.52,-2.26,-2.03,-0.21,-0.19,-0.19
161.63,2.24,2.48,2.24,2.47,-2.47,-2.23,-1.97,-0.23,-0.23,-0.24
163.24,2.16,2.44,2.14,2.42,-2.41,-2.19,-1.91,-0.26,-0.27,-0.28
164.88,2.03,2.35,2.04,2.37,-2.36,-2.15,-1.86,-0.33,-0.31,-0.32
166.53,1.93,2.30,1.93,2.31,-2.30,-2.11,-1.80,-0.37,-0.37,-0.37
168.19,1.84,2.26,1.82,2.24,-2.25,-2.07,-1.75,-0.41,-0.43,-0.42
169.87,1.71,2.18,1.72,2.19,-2.19,-2.03,-1.70,-0.48,-0.47,-0.47
171.57,1.61,2.12,1.62,2.13,-2.14,-1.99,-1.64,-0.53,-0.52,-0.51
173.29,1.53,2.10,1.51,2.08,-2.09,-1.95,-1.59,-0.56,-0.58,-0.57
175.02,1.39,2.01,1.40,2.03,-2.04,-1.91,-1.54,-0.65,-0.63,-0.62
176.77,1.30,1.98,1.30,1.98,-1.99,-1.87,-1.50,-0.69,-0.69,-0.68
178.54,1.21,1.94,1.21,1.95,-1.94,-1.83,-1.45,-0.73,-0.73,-0.73
180.32,1.13,1.92,1.12,1.91,-1.90,-1.78,-1.40,-0.77,-0.77,-0.79
182.13,1.04,1.88,1.02,1.86,-1.85,-1.74,-1.36,-0.81,-0.83,-0.84
183.95,0.89,1.79,0.90,1.80,-1.80,-1.70,-1.32,-0.91,-0.90,-0.90
185.79,0.78,1.73,0.79,1.74,-1.75,-1.65,-1.27,-0.97,-0.97,-0.95
187.65,0.68,1.70,0.67,1.69,-1.70,-1.61,-1.23,-1.02,-1.03,-1.02
189.52,0.58,1.65,0.58,1.65,-1.65,-1.57,-1.19,-1.07,-1.07,-1.07
191.42,0.48,1.60,0.48,1.60,-1.60,-1.52,-1.15,-1.12,-1.12,-1.12
193.33,0.38,1.55,0.38,1.55,-1.55,-1.48,-1.11,-1.17,-1.17,-1.17
195.27,0.27,1.49,0.27,1.49,-1.49,-1.43,-1.08,-1.22,-1.22,-1.22
197.22,0.16,1.44,0.16,1.44,-1.44,-1.39,-1.04,-1.28,-1.28,-1.28
199.19,0.05,1.38,0.05,1.38,-1.38,-1.34,-1.00,-1.33,-1.33,-1.33
201.18,-0.06,1.32,-0.06,1.32,-1.31,-1.30,-0.97,-1.37,-1.37,-1.38
203.19,-0.17,1.24,-0.17,1.25,-1.24,-1.25,-0.94,-1.42,-1.42,-1.41
205.23,-0.29,1.18,-0.29,1.17,-1.17,-1.20,-0.90,-1.46,-1.46,-1.47
207.28,-0.40,1.09,-0.40,1.10,-1.10,-1.16,-0.87,-1.50,-1.50,-1.49
209.35,-0.52,1.03,-0.53,1.03,-1.02,-1.11,-0.84,-1.55,-1.55,-1.55
211.44,-0.65,0.95,-0.65,0.95,-0.95,-1.06,-0.81,-1.60,-1.60,-1.60
213.56,-0.77,0.87,-0.77,0.87,-0.87,-1.02,-0.78,-1.64,-1.64,-1.64
215.69,-0.88,0.78,-0.88,0.79,-0.79,-0.97,-0.75,-1.68,-1.68,-1.66
217.85,-1.00,0.70,-0.99,0.72,-0.72,-0.92,-0.71,-1.72,-1.70,-1.70
220.03,-1.08,0.66,-1.09,0.65,-0.64,-0.88,-0.68,-1.72,-1.73,-1.74
222.23,-1.19,0.58,-1.19,0.58,-0.56,-0.83,-0.66,-1.75,-1.76,-1.77
224.45,-1.30,0.49,-1.31,0.49,-0.49,-0.78,-0.63,-1.79,-1.79,-1.79
226.70,-1.42,0.40,-1.42,0.40,-0.41,-0.73,-0.60,-1.83,-1.83,-1.82
228.96,-1.53,0.32,-1.51,0.33,-0.34,-0.69,-0.57,-1.87,-1.86,-1.85
231.25,-1.59,0.27,-1.60,0.27,-0.28,-0.64,-0.54,-1.87,-1.88,-1.86
233.57,-1.66,0.22,-1.67,0.21,-0.21,-0.59,-0.51,-1.87,-1.88,-1.88
235.90,-1.76,0.13,-1.75,0.15,-0.15,-0.54,-0.48,-1.91,-1.89,-1.89
238.26,-1.81,0.09,-1.82,0.09,-0.08,-0.49,-0.45,-1.89,-1.90,-1.90
240.64,-1.88,0.03,-1.88,0.03,-0.02,-0.45,-0.41,-1.91,-1.90,-1.91
243.05,-1.93,-0.02,-1.94,-0.02,0.03,-0.40,-0.38,-1.90,-1.90,-1.91
245.48,-1.99,-0.07,-2.00,-0.08,0.09,-0.35,-0.35,-1.90,-1.91,-1.92
247.93,-2.08,-0.16,-2.07,-0.15,0.15,-0.30,-0.32,-1.93,-1.92,-1.92
250.41,-2.12,-0.20,-2.12,-0.20,0.20,-0.25,-0.29,-1.92,-1.92,-1.92
252.92,-2.17,-0.26,-2.17,-0.26,0.24,-0.20,-0.25,-1.93,-1.92,-1.91
255.45,-2.19,-0.29,-2.20,-0.29,0.28,-0.15,-0.22,-1.91,-1.92,-1.90
258.00,-2.22,-0.33,-2.22,-0.32,0.31,-0.10,-0.19,-1.91,-1.91,-1.89
260.58,-2.23,-0.34,-2.23,-0.34,0.34,-0.05,-0.15,-1.89,-1.89,-1.89
263.19,-2.22,-0.34,-2.22,-0.34,0.35,0.00,-0.11,-1.87,-1.87,-1.88
265.82,-2.21,-0.34,-2.22,-0.35,0.35,0.05,-0.08,-1.86,-1.86,-1.87
268.48,-2.20,-0.35,-2.20,-0.35,0.35,0.10,-0.04,-1.85,-1.85,-1.85
271.16,-2.19,-0.36,-2.18,-0.35,0.34,0.15,-0.00,-1.85,-1.85,-1.83
273.87,-2.15,-0.32,-2.16,-0.33,0.32,0.21,0.04,-1.83,-1.84,-1.83
276.61,-2.12,-0.32,-2.12,-0.31,0.29,0.26,0.08,-1.83,-1.83,-1.80
279.38,-2.08,-0.28,-2.08,-0.28,0.27,0.31,0.12,-1.81,-1.80,-1.80
282.17,-2.03,-0.25,-2.03,-0.25,0.25,0.36,0.16,-1.78,-1.78,-1.78
284.99,-1.99,-0.22,-1.99,-0.22,0.23,0.41,0.20,-1.76,-1.76,-1.77
287.84,-1.96,-0.20,-1.96,-0.20,0.23,0.47,0.24,-1.73,-1.74,-1.76
290.72,-1.95,-0.20,-1.95,-0.21,0.23,0.52,0.28,-1.72,-1.73,-1.75
293.63,-1.96,-0.23,-1.96,-0.23,0.24,0.57,0.33,-1.72,-1.72,-1.73
296.57,-1.98,-0.27,-1.98,-0.26,0.26,0.62,0.37,-1.72,-1.72,-1.71
299.53,-2.01,-0.30,-2.01,-0.30,0.29,0.68,0.42,-1.72,-1.72,-1.71
302.53,-2.04,-0.34,-2.04,-0.34,0.33,0.73,0.47,-1.71,-1.71,-1.70
305.55,-2.07,-0.39,-2.07,-0.38,0.38,0.79,0.51,-1.69,-1.70,-1.68
308.61,-2.10,-0.43,-2.10,-0.43,0.42,0.84,0.56,-1.68,-1.68,-1.67
311.69,-2.14,-0.48,-2.13,-0.48,0.47,0.89,0.61,-1.67,-1.66,-1.66
314.81,-2.16,-0.53,-2.17,-0.52,0.52,0.95,0.66,-1.64,-1.64,-1.63
317.96,-2.20,-0.56,-2.21,-0.57,0.58,1.00,0.71,-1.62,-1.63,-1.64
321.14,-2.26,-0.63,-2.26,-0.63,0.63,1.06,0.76,-1.63,-1.63,-1.63
324.35,-2.32,-0.69,-2.32,-0.69,0.69,1.11,0.82,-1.63,-1.63,-1.63
327.59,-2.39,-0.77,-2.38,-0.76,0.76,1.17,0.87,-1.63,-1.63,-1.62
330.87,-2.44,-0.82,-2.45,-0.83,0.82,1.22,0.93,-1.62,-1.62,-1.62
334.18,-2.51,-0.89,-2.51,-0.90,0.89,1.28,0.98,-1.62,-1.62,-1.62
337.52,-2.59,-0.98,-2.59,-0.97,0.97,1.33,1.04,-1.62,-1.62,-1.61
340.90,-2.66,-1.05,-2.66,-1.05,1.05,1.39,1.10,-1.61,-1.61,-1.61
344.30,-2.74,-1.13,-2.74,-1.13,1.13,1.45,1.16,-1.61,-1.61,-1.61
347.75,-2.82,-1.21,-2.82,-1.21,1.22,1.50,1.22,-1.60,-1.61,-1.61
351.23,-2.91,-1.30,-2.91,-1.30,1.31,1.56,1.28,-1.60,-1.61,-1.61
354.74,-3.01,-1.40,-3.01,-1.39,1.40,1.61,1.34,-1.61,-1.61,-1.61
358.28,-3.12,-1.49,-3.12,-1.49,1.50,1.67,1.41,-1.63,-1.62,-1.63
361.87,-3.22,-1.59,-3.23,-1.59,1.59,1.72,1.47,-1.63,-1.63,-1.63
365.49,-3.33,-1.70,-3.33,-1.69,1.69,1.77,1.54,-1.64,-1.64,-1.63
369.14,-3.44,-1.80,-3.43,-1.79,1.79,1.83,1.60,-1.65,-1.65,-1.64
372.83,-3.52,-1.88,-3.53,-1.89,1.88,1.88,1.67,-1.64,-1.65,-1.64
376.56,-3.64,-1.99,-3.63,-1.98,1.98,1.93,1.74,-1.66,-1.65,-1.65
380.33,-3.73,-2.07,-3.73,-2.07,2.08,1.99,1.81,-1.66,-1.66,-1.66
384.13,-3.83,-2.16,-3.83,-2.16,2.17,2.04,1.88,-1.66,-1.67,-1.67
387.97,-3.93,-2.25,-3.93,-2.25,2.26,2.09,1.95,-1.67,-1.67,-1.68
391.85,-4.03,-2.34,-4.03,-2.34,2.35,2.14,2.03,-1.68,-1.68,-1.69
395.77,-4.12,-2.44,-4.12,-2.43,2.43,2.19,2.10,-1.69,-1.69,-1.68
399.73,-4.21,-2.52,-4.21,-2.52,2.51,2.23,2.17,-1.70,-1.70,-1.69
403.72,-4.29,-2.59,-4.29,-2.59,2.59,2.28,2.24,-1.70,-1.70,-1.70
407.76,-4.36,-2.65,-4.36,-2.65,2.65,2.33,2.32,-1.71,-1.71,-1.71
411.84,-4.42,-2.72,-4.42,-2.71,2.71,2.37,2.39,-1.71,-1.72,-1.70
415.96,-4.48,-2.76,-4.48,-2.76,2.76,2.41,2.46,-1.72,-1.72,-1.72
420.12,-4.52,-2.80,-4.52,-2.80,2.79,2.45,2.53,-1.73,-1.73,-1.72
424.32,-4.55,-2.83,-4.55,-2.83,2.82,2.49,2.60,-1.73,-1.73,-1.72
428.56,-4.57,-2.84,-4.57,-2.84,2.84,2.53,2.67,-1.73,-1.73,-1.73
432.85,-4.59,-2.86,-4.59,-2.86,2.86,2.57,2.73,-1.73,-1.73,-1.73
437.18,-4.59,-2.86,-4.60,-2.87,2.87,2.60,2.80,-1.73,-1.73,-1.73
441.55,-4.60,-2.88,-4.60,-2.87,2.87,2.63,2.86,-1.73,-1.73,-1.72
445.96,-4.60,-2.88,-4.60,-2.87,2.88,2.66,2.92,-1.73,-1.72,-1.72
450.42,-4.59,-2.86,-4.59,-2.87,2.88,2.69,2.97,-1.71,-1.72,-1.73
454.93,-4.59,-2.87,-4.59,-2.87,2.88,2.71,3.02,-1.71,-1.71,-1.72
459.48,-4.59,-2.87,-4.59,-2.88,2.88,2.73,3.07,-1.71,-1.71,-1.72
464.07,-4.60,-2.89,-4.60,-2.89,2.88,2.75,3.11,-1.72,-1.72,-1.71
468.71,-4.60,-2.90,-4.60,-2.89,2.88,2.77,3.14,-1.72,-1.72,-1.70
473.40,-4.59,-2.88,-4.59,-2.88,2.88,2.78,3.17,-1.71,-1.71,-1.71
478.13,-4.57,-2.87,-4.57,-2.87,2.87,2.79,3.20,-1.70,-1.70,-1.70
482.91,-4.55,-2.85,-4.56,-2.86,2.87,2.80,3.22,-1.68,-1.69,-1.70
487.74,-4.54,-2.85,-4.54,-2.85,2.85,2.80,3.23,-1.69,-1.69,-1.69
492.62,-4.52,-2.84,-4.52,-2.84,2.83,2.81,3.23,-1.69,-1.69,-1.68
497.55,-4.50,-2.82,-4.50,-2.82,2.81,2.80,3.23,-1.69,-1.69,-1.68
502.52,-4.46,-2.79,-4.46,-2.79,2.78,2.80,3.22,-1.68,-1.69,-1.67
507.55,-4.42,-2.75,-4.42,-2.75,2.74,2.79,3.20,-1.68,-1.68,-1.67
