frequency,raw,error,smoothed,error_smoothed,equalization,parametric_eq,fixed_band_eq,equalized_raw,equalized_smoothed,target
20.00,-3.45,-1.29,-3.45,-1.29,1.28,1.26,0.69,-2.17,-2.17,-2.17
20.20,-3.43,-1.32,-3.43,-1.31,1.31,1.27,0.71,-2.12,-2.12,-2.12
20.40,-3.41,-1.35,-3.41,-1.34,1.34,1.28,0.73,-2.07,-2.07,-2.07
20.61,-3.39,-1.36,-3.39,-1.36,1.37,1.29,0.75,-2.03,-2.02,-2.04
20.81,-3.37,-1.39,-3.37,-1.38,1.39,1.30,0.77,-1.98,-1.98,-1.98
21.02,-3.35,-1.41,-3.36,-1.40,1.41,1.31,0.79,-1.94,-1.95,-1.95
21.23,-3.35,-1.43,-3.35,-1.43,1.43,1.32,0.81,-1.92,-1.92,-1.93
21.44,-3.35,-1.45,-3.35,-1.45,1.45,1.33,0.84,-1.90,-1.90,-1.91
21.66,-3.35,-1.47,-3.35,-1.46,1.47,1.34,0.86,-1.89,-1.89,-1.89
21.87,-3.35,-1.48,-3.35,-1.48,1.48,1.35,0.89,-1.87,-1.87,-1.87
22.09,-3.35,-1.50,-3.35,-1.49,1.49,1.36,0.91,-1.86,-1.86,-1.86
22.31,-3.35,-1.51,-3.35,-1.50,1.50,1.36,0.94,-1.86,-1.86,-1.85
22.54,-3.35,-1.51,-3.35,-1.51,1.50,1.37,0.97,-1.85,-1.85,-1.85
22.76,-3.35,-1.51,-3.35,-1.50,1.50,1.38,0.99,-1.85,-1.85,-1.85
22.99,-3.35,-1.50,-3.35,-1.50,1.50,1.39,1.02,-1.85,-1.85,-1.86
23.22,-3.35,-1.50,-3.35,-1.50,1.50,1.40,1.05,-1.85,-1.85,-1.86
23.45,-3.35,-1.50,-3.35,-1.50,1.50,1.41,1.08,-1.85,-1.85,-1.86
23.69,-3.35,-1.51,-3.35,-1.50,1.50,1.41,1.11,-1.85,-1.85,-1.85
23.92,-3.35,-1.51,-3.35,-1.51,1.50,1.42,1.14,-1.85,-1.85,-1.85
24.16,-3.35,-1.51,-3.35,-1.51,1.51,1.43,1.17,-1.85,-1.85,-1.85
24.40,-3.35,-1.52,-3.35,-1.51,1.51,1.44,1.21,-1.84,-1.84,-1.84
24.65,-3.35,-1.51,-3.35,-1.51,1.51,1.44,1.24,-1.84,-1.84,-1.85
24.89,-3.35,-1.51,-3.35,-1.51,1.51,1.45,1.27,-1.84,-1.84,-1.85
25.14,-3.35,-1.51,-3.35,-1.51,1.51,1.46,1.30,-1.84,-1.84,-1.85
25.39,-3.35,-1.52,-3.35,-1.51,1.51,1.47,1.34,-1.84,-1.84,-1.84
25.65,-3.35,-1.52,-3.35,-1.51,1.51,1.47,1.37,-1.84,-1.84,-1.84
25.91,-3.35,-1.51,-3.35,-1.51,1.51,1.48,1.40,-1.84,-1.84,-1.85
26.16,-3.35,-1.51,-3.35,-1.51,1.51,1.48,1.43,-1.84,-1.84,-1.85
26.43,-3.35,-1.51,-3.35,-1.51,1.51,1.49,1.47,-1.84,-1.84,-1.85
26.69,-3.35,-1.51,-3.35,-1.51,1.51,1.50,1.50,-1.84,-1.84,-1.85
26.96,-3.35,-1.51,-3.35,-1.51,1.51,1.50,1.53,-1.84,-1.84,-1.85
27.23,-3.35,-1.51,-3.35,-1.51,1.50,1.51,1.56,-1.85,-1.85,-1.85
27.50,-3.35,-1.51,-3.35,-1.51,1.49,1.51,1.59,-1.86,-1.86,-1.85
27.77,-3.35,-1.50,-3.35,-1.50,1.47,1.52,1.62,-1.88,-1.88,-1.86
28.05,-3.34,-1.49,-3.33,-1.47,1.45,1.52,1.65,-1.89,-1.88,-1.86
28.33,-3.30,-1.44,-3.30,-1.44,1.43,1.53,1.67,-1.87,-1.87,-1.87
28.62,-3.25,-1.39,-3.25,-1.39,1.41,1.53,1.70,-1.84,-1.84,-1.87
28.90,-3.21,-1.36,-3.22,-1.36,1.39,1.54,1.72,-1.82,-1.83,-1.86
29.19,-3.20,-1.34,-3.21,-1.35,1.38,1.54,1.74,-1.82,-1.83,-1.87
29.48,-3.22,-1.37,-3.22,-1.36,1.37,1.55,1.76,-1.85,-1.85,-1.86
29.78,-3.24,-1.38,-3.24,-1.38,1.36,1.55,1.78,-1.88,-1.87,-1.87
30.08,-3.25,-1.40,-3.25,-1.39,1.37,1.56,1.79,-1.88,-1.88,-1.86
30.38,-3.25,-1.39,-3.25,-1.39,1.38,1.56,1.81,-1.88,-1.88,-1.87
30.68,-3.25,-1.39,-3.25,-1.39,1.39,1.56,1.82,-1.86,-1.86,-1.87
30.99,-3.25,-1.39,-3.26,-1.39,1.40,1.57,1.82,-1.85,-1.86,-1.87
31.30,-3.27,-1.40,-3.27,-1.40,1.41,1.57,1.83,-1.86,-1.86,-1.88
31.61,-3.29,-1.42,-3.29,-1.41,1.42,1.57,1.83,-1.87,-1.87,-1.88
31.93,-3.31,-1.44,-3.31,-1.43,1.43,1.58,1.83,-1.88,-1.88,-1.88
32.24,-3.32,-1.44,-3.32,-1.44,1.44,1.58,1.83,-1.89,-1.89,-1.89
32.57,-3.33,-1.45,-3.34,-1.45,1.44,1.58,1.83,-1.89,-1.89,-1.89
32.89,-3.35,-1.47,-3.35,-1.46,1.45,1.58,1.82,-1.90,-1.89,-1.89
33.22,-3.35,-1.46,-3.35,-1.46,1.45,1.58,1.82,-1.90,-1.90,-1.90
33.55,-3.35,-1.46,-3.35,-1.46,1.45,1.59,1.81,-1.90,-1.90,-1.90
33.89,-3.35,-1.45,-3.35,-1.45,1.45,1.59,1.80,-1.90,-1.90,-1.91
34.23,-3.35,-1.45,-3.35,-1.44,1.45,1.59,1.78,-1.91,-1.91,-1.91
34.57,-3.35,-1.44,-3.35,-1.44,1.44,1.59,1.77,-1.91,-1.91,-1.92
34.92,-3.35,-1.44,-3.35,-1.43,1.43,1.59,1.75,-1.92,-1.92,-1.92
35.27,-3.35,-1.43,-3.35,-1.43,1.42,1.59,1.74,-1.93,-1.93,-1.93
35.62,-3.35,-1.43,-3.35,-1.43,1.42,1.59,1.72,-1.93,-1.93,-1.93
35.97,-3.35,-1.43,-3.35,-1.42,1.43,1.59,1.70,-1.93,-1.92,-1.93
36.33,-3.35,-1.43,-3.35,-1.42,1.44,1.59,1.69,-1.91,-1.91,-1.93
36.70,-3.35,-1.42,-3.35,-1.42,1.46,1.59,1.67,-1.89,-1.89,-1.94
37.06,-3.36,-1.43,-3.38,-1.45,1.48,1.59,1.65,-1.89,-1.90,-1.94
37.43,-3.42,-1.50,-3.43,-1.50,1.49,1.59,1.63,-1.93,-1.93,-1.93
37.81,-3.49,-1.57,-3.47,-1.55,1.51,1.59,1.61,-1.98,-1.96,-1.93
38.19,-3.51,-1.58,-3.50,-1.57,1.53,1.59,1.59,-1.98,-1.97,-1.94
38.57,-3.48,-1.56,-3.49,-1.56,1.54,1.59,1.57,-1.94,-1.95,-1.93
38.95,-3.45,-1.54,-3.46,-1.54,1.55,1.58,1.56,-1.90,-1.92,-1.92
39.34,-3.45,-1.53,-3.45,-1.53,1.55,1.58,1.54,-1.90,-1.90,-1.93
39.74,-3.45,-1.53,-3.45,-1.53,1.55,1.58,1.52,-1.91,-1.90,-1.93
40.14,-3.45,-1.53,-3.45,-1.52,1.53,1.58,1.51,-1.92,-1.92,-1.93
40.54,-3.45,-1.53,-3.45,-1.52,1.52,1.58,1.49,-1.93,-1.93,-1.93
40.94,-3.45,-1.52,-3.45,-1.52,1.51,1.57,1.48,-1.95,-1.95,-1.94
41.35,-3.45,-1.52,-3.45,-1.52,1.50,1.57,1.47,-1.95,-1.96,-1.94
41.76,-3.45,-1.51,-3.45,-1.51,1.49,1.57,1.46,-1.96,-1.96,-1.95
42.18,-3.44,-1.50,-3.43,-1.48,1.49,1.56,1.44,-1.95,-1.94,-1.95
42.60,-3.41,-1.46,-3.41,-1.46,1.49,1.56,1.44,-1.92,-1.92,-1.96
43.03,-3.39,-1.43,-3.42,-1.46,1.49,1.56,1.43,-1.90,-1.94,-1.97
43.46,-3.46,-1.49,-3.46,-1.48,1.49,1.55,1.42,-1.98,-1.97,-1.98
43.90,-3.53,-1.54,-3.51,-1.51,1.49,1.55,1.41,-2.04,-2.02,-2.00
44.33,-3.55,-1.54,-3.55,-1.53,1.50,1.54,1.41,-2.06,-2.05,-2.02
44.78,-3.55,-1.52,-3.56,-1.52,1.51,1.54,1.40,-2.04,-2.04,-2.04
45.23,-3.55,-1.51,-3.55,-1.50,1.53,1.53,1.40,-2.02,-2.01,-2.05
45.68,-3.55,-1.50,-3.56,-1.50,1.55,1.53,1.40,-2.00,-2.01,-2.06
46.13,-3.57,-1.50,-3.60,-1.53,1.55,1.52,1.40,-2.02,-2.05,-2.08
46.60,-3.66,-1.59,-3.66,-1.57,1.55,1.52,1.40,-2.11,-2.11,-2.08
47.06,-3.73,-1.64,-3.69,-1.60,1.54,1.51,1.40,-2.19,-2.15,-2.10
47.53,-3.69,-1.59,-3.70,-1.60,1.54,1.51,1.41,-2.16,-2.16,-2.11
48.01,-3.65,-1.55,-3.65,-1.54,1.54,1.50,1.41,-2.12,-2.11,-2.11
48.49,-3.61,-1.49,-3.61,-1.48,1.53,1.49,1.42,-2.08,-2.07,-2.13
48.97,-3.57,-1.43,-3.61,-1.47,1.52,1.49,1.42,-2.05,-2.09,-2.15
49.46,-3.65,-1.49,-3.65,-1.49,1.51,1.48,1.43,-2.14,-2.14,-2.17
49.96,-3.74,-1.56,-3.71,-1.53,1.51,1.47,1.44,-2.23,-2.20,-2.19
50.46,-3.75,-1.56,-3.75,-1.56,1.52,1.47,1.44,-2.23,-2.23,-2.20
50.96,-3.75,-1.55,-3.75,-1.54,1.54,1.46,1.45,-2.22,-2.21,-2.21
51.47,-3.75,-1.53,-3.75,-1.53,1.56,1.45,1.46,-2.20,-2.19,-2.23
51.99,-3.75,-1.52,-3.79,-1.56,1.57,1.44,1.47,-2.18,-2.22,-2.24
52.51,-3.84,-1.60,-3.84,-1.60,1.58,1.43,1.48,-2.26,-2.26,-2.25
53.03,-3.93,-1.69,-3.87,-1.62,1.59,1.43,1.49,-2.34,-2.28,-2.25
53.56,-3.87,-1.61,-3.88,-1.62,1.59,1.42,1.50,-2.28,-2.29,-2.27
54.10,-3.83,-1.56,-3.86,-1.59,1.60,1.41,1.51,-2.23,-2.26,-2.28
54.64,-3.86,-1.57,-3.86,-1.57,1.61,1.40,1.52,-2.25,-2.25,-2.30
55.18,-3.89,-1.60,-3.89,-1.59,1.61,1.39,1.53,-2.28,-2.28,-2.30
55.74,-3.93,-1.62,-3.93,-1.61,1.60,1.38,1.54,-2.33,-2.33,-2.32
56.29,-3.95,-1.63,-3.95,-1.62,1.59,1.37,1.54,-2.36,-2.35,-2.33
56.86,-3.95,-1.62,-3.95,-1.61,1.59,1.36,1.55,-2.36,-2.37,-2.34
57.42,-3.95,-1.59,-3.95,-1.59,1.59,1.35,1.56,-2.36,-2.36,-2.37
58.00,-3.95,-1.58,-3.95,-1.57,1.60,1.34,1.56,-2.35,-2.35,-2.38
58.58,-3.95,-1.57,-3.96,-1.57,1.61,1.33,1.56,-2.35,-2.35,-2.39
59.16,-3.97,-1.57,-3.98,-1.58,1.61,1.32,1.57,-2.36,-2.37,-2.41
59.76,-4.03,-1.61,-4.03,-1.60,1.61,1.31,1.57,-2.42,-2.43,-2.43
60.35,-4.09,-1.63,-4.09,-1.63,1.60,1.30,1.57,-2.49,-2.49,-2.47
60.96,-4.15,-1.65,-4.13,-1.63,1.59,1.29,1.56,-2.56,-2.55,-2.51
61.57,-4.15,-1.61,-4.16,-1.61,1.57,1.28,1.56,-2.58,-2.59,-2.55
62.18,-4.15,-1.57,-4.16,-1.57,1.55,1.27,1.55,-2.60,-2.61,-2.59
62.80,-4.15,-1.52,-4.14,-1.51,1.52,1.26,1.54,-2.63,-2.62,-2.64
63.43,-4.13,-1.46,-4.13,-1.46,1.49,1.25,1.53,-2.64,-2.65,-2.68
64.07,-4.12,-1.40,-4.14,-1.42,1.46,1.23,1.52,-2.67,-2.68,-2.73
64.71,-4.17,-1.41,-4.17,-1.40,1.43,1.22,1.50,-2.74,-2.74,-2.77
65.35,-4.21,-1.41,-4.21,-1.40,1.40,1.21,1.49,-2.81,-2.80,-2.81
66.01,-4.26,-1.41,-4.24,-1.38,1.38,1.20,1.47,-2.88,-2.86,-2.86
66.67,-4.26,-1.36,-4.29,-1.39,1.37,1.19,1.45,-2.89,-2.93,-2.91
67.33,-4.31,-1.36,-4.33,-1.38,1.35,1.17,1.43,-2.96,-2.98,-2.96
68.01,-4.42,-1.43,-4.35,-1.35,1.34,1.16,1.40,-3.08,-3.01,-3.00
68.69,-4.34,-1.30,-4.37,-1.32,1.32,1.15,1.38,-3.02,-3.05,-3.05
69.37,-4.34,-1.25,-4.38,-1.28,1.30,1.14,1.35,-3.05,-3.08,-3.10
70.07,-4.40,-1.26,-4.39,-1.24,1.27,1.12,1.33,-3.13,-3.12,-3.15
70.77,-4.45,-1.26,-4.43,-1.23,1.24,1.11,1.30,-3.21,-3.18,-3.20
71.48,-4.46,-1.22,-4.48,-1.23,1.22,1.10,1.27,-3.25,-3.27,-3.25
72.19,-4.49,-1.18,-4.51,-1.20,1.19,1.08,1.24,-3.30,-3.33,-3.32
72.91,-4.59,-1.22,-4.53,-1.16,1.16,1.07,1.21,-3.43,-3.37,-3.38
73.64,-4.54,-1.12,-4.57,-1.14,1.13,1.06,1.18,-3.41,-3.43,-3.43
74.38,-4.56,-1.08,-4.60,-1.11,1.10,1.04,1.15,-3.46,-3.50,-3.49
75.12,-4.66,-1.12,-4.62,-1.08,1.08,1.03,1.12,-3.58,-3.54,-3.55
75.87,-4.66,-1.06,-4.66,-1.05,1.05,1.01,1.09,-3.61,-3.61,-3.61
76.63,-4.66,-1.01,-4.67,-1.02,1.03,1.00,1.06,-3.63,-3.65,-3.66
77.40,-4.68,-0.98,-4.69,-0.98,1.01,0.98,1.02,-3.67,-3.68,-3.71
78.17,-4.72,-0.96,-4.73,-0.97,0.99,0.97,0.99,-3.73,-3.74,-3.77
78.95,-4.78,-0.98,-4.78,-0.97,0.97,0.96,0.96,-3.81,-3.81,-3.81
79.74,-4.84,-0.99,-4.83,-0.97,0.94,0.94,0.93,-3.90,-3.89,-3.86
80.54,-4.86,-0.96,-4.86,-0.95,0.92,0.93,0.90,-3.95,-3.94,-3.91
81.35,-4.86,-0.91,-4.87,-0.91,0.88,0.91,0.87,-3.98,-3.98,-3.96
82.16,-4.86,-0.86,-4.86,-0.86,0.86,0.90,0.84,-4.01,-4.01,-4.01
82.98,-4.86,-0.82,-4.85,-0.80,0.83,0.88,0.81,-4.04,-4.02,-4.05
83.81,-4.84,-0.75,-4.85,-0.75,0.79,0.86,0.78,-4.05,-4.05,-4.10
84.65,-4.84,-0.70,-4.87,-0.72,0.75,0.85,0.75,-4.09,-4.11,-4.15
85.50,-4.90,-0.72,-4.90,-0.71,0.71,0.83,0.72,-4.19,-4.19,-4.19
86.35,-4.96,-0.73,-4.94,-0.70,0.67,0.82,0.70,-4.29,-4.27,-4.24
87.22,-4.96,-0.68,-4.96,-0.68,0.63,0.80,0.67,-4.33,-4.33,-4.29
88.09,-4.96,-0.63,-4.97,-0.63,0.60,0.79,0.64,-4.36,-4.37,-4.34
88.97,-4.96,-0.57,-4.96,-0.57,0.57,0.77,0.62,-4.39,-4.39,-4.40
89.86,-4.96,-0.52,-4.94,-0.50,0.54,0.75,0.59,-4.42,-4.40,-4.45
90.76,-4.94,-0.45,-4.95,-0.46,0.51,0.74,0.57,-4.43,-4.44,-4.50
91.66,-4.96,-0.42,-5.00,-0.45,0.49,0.72,0.54,-4.48,-4.51,-4.55
92.58,-5.08,-0.48,-5.07,-0.46,0.46,0.70,0.52,-4.63,-4.61,-4.61
93.51,-5.16,-0.51,-5.13,-0.48,0.43,0.69,0.49,-4.73,-4.70,-4.66
94.44,-5.16,-0.47,-5.17,-0.47,0.41,0.67,0.47,-4.75,-4.76,-4.70
95.39,-5.15,-0.41,-5.16,-0.42,0.40,0.65,0.45,-4.75,-4.77,-4.75
96.34,-5.16,-0.37,-5.15,-0.35,0.38,0.64,0.43,-4.78,-4.76,-4.80
97.30,-5.15,-0.31,-5.16,-0.32,0.36,0.62,0.40,-4.79,-4.80,-4.85
98.28,-5.18,-0.29,-5.20,-0.31,0.33,0.60,0.38,-4.85,-4.87,-4.90
99.26,-5.27,-0.34,-5.25,-0.31,0.30,0.58,0.36,-4.97,-4.95,-4.94
100.25,-5.31,-0.33,-5.30,-0.32,0.28,0.57,0.34,-5.03,-5.02,-4.99
101.25,-5.33,-0.30,-5.33,-0.30,0.26,0.55,0.32,-5.07,-5.07,-5.04
102.27,-5.34,-0.26,-5.34,-0.25,0.26,0.53,0.30,-5.08,-5.08,-5.09
103.29,-5.35,-0.22,-5.35,-0.22,0.26,0.51,0.28,-5.10,-5.09,-5.14
104.32,-5.37,-0.20,-5.39,-0.21,0.25,0.50,0.26,-5.12,-5.13,-5.18
105.37,-5.44,-0.22,-5.46,-0.24,0.25,0.48,0.24,-5.19,-5.21,-5.23
106.42,-5.57,-0.30,-5.55,-0.27,0.26,0.46,0.22,-5.32,-5.29,-5.28
107.48,-5.64,-0.31,-5.62,-0.29,0.26,0.44,0.21,-5.38,-5.36,-5.34
108.56,-5.66,-0.28,-5.67,-0.29,0.26,0.42,0.19,-5.40,-5.41,-5.39
109.64,-5.69,-0.26,-5.72,-0.28,0.27,0.40,0.17,-5.43,-5.45,-5.44
110.74,-5.77,-0.28,-5.76,-0.27,0.27,0.38,0.15,-5.50,-5.49,-5.50
111.85,-5.82,-0.29,-5.80,-0.26,0.27,0.36,0.13,-5.55,-5.53,-5.54
112.97,-5.83,-0.24,-5.84,-0.24,0.26,0.34,0.12,-5.57,-5.58,-5.60
114.10,-5.85,-0.21,-5.87,-0.23,0.24,0.32,0.10,-5.61,-5.63,-5.65
115.24,-5.92,-0.23,-5.92,-0.23,0.23,0.30,0.08,-5.69,-5.69,-5.70
116.39,-5.99,-0.25,-5.98,-0.24,0.22,0.28,0.06,-5.77,-5.76,-5.75
117.55,-6.03,-0.25,-6.02,-0.24,0.21,0.26,0.04,-5.83,-5.82,-5.79
118.73,-6.03,-0.21,-6.03,-0.21,0.20,0.24,0.03,-5.83,-5.83,-5.83
119.92,-6.03,-0.18,-6.03,-0.17,0.19,0.22,0.01,-5.84,-5.84,-5.86
121.12,-6.03,-0.14,-6.05,-0.16,0.19,0.20,-0.01,-5.84,-5.86,-5.90
122.33,-6.09,-0.17,-6.10,-0.17,0.19,0.18,-0.03,-5.90,-5.90,-5.93
123.55,-6.16,-0.21,-6.14,-0.19,0.19,0.16,-0.04,-5.97,-5.95,-5.96
124.79,-6.20,-0.22,-6.19,-0.20,0.19,0.13,-0.06,-6.01,-6.00,-5.99
126.03,-6.19,-0.18,-6.22,-0.21,0.19,0.11,-0.08,-6.00,-6.03,-6.02
127.29,-6.25,-0.22,-6.25,-0.20,0.18,0.09,-0.10,-6.07,-6.06,-6.04
128.57,-6.28,-0.21,-6.27,-0.19,0.17,0.07,-0.12,-6.11,-6.09,-6.08
129.85,-6.27,-0.17,-6.28,-0.17,0.16,0.04,-0.14,-6.11,-6.12,-6.11
131.15,-6.27,-0.14,-6.27,-0.13,0.15,0.02,-0.15,-6.12,-6.12,-6.14
132.46,-6.26,-0.10,-6.26,-0.10,0.13,-0.01,-0.17,-6.13,-6.13,-6.17
133.79,-6.26,-0.07,-6.28,-0.08,0.11,-0.03,-0.19,-6.15,-6.16,-6.20
135.12,-6.30,-0.08,-6.30,-0.08,0.09,-0.06,-0.21,-6.21,-6.21,-6.23
136.48,-6.34,-0.10,-6.33,-0.08,0.07,-0.08,-0.23,-6.27,-6.26,-6.25
137.84,-6.35,-0.07,-6.36,-0.07,0.04,-0.11,-0.25,-6.31,-6.31,-6.29
139.22,-6.35,-0.04,-6.35,-0.04,0.01,-0.14,-0.27,-6.34,-6.34,-6.32
140.61,-6.34,0.00,-6.32,0.02,-0.03,-0.16,-0.29,-6.37,-6.35,-6.35
142.02,-6.27,0.09,-6.29,0.07,-0.08,-0.19,-0.31,-6.35,-6.37,-6.37
143.44,-6.25,0.14,-6.26,0.14,-0.14,-0.22,-0.34,-6.39,-6.40,-6.40
144.87,-6.24,0.19,-6.22,0.21,-0.21,-0.25,-0.36,-6.46,-6.43,-6.44
146.32,-6.17,0.30,-6.18,0.29,-0.30,-0.28,-0.38,-6.47,-6.48,-6.48
147.78,-6.14,0.36,-6.13,0.38,-0.38,-0.31,-0.40,-6.53,-6.52,-6.51
149.26,-6.08,0.47,-6.08,0.47,-0.48,-0.35,-0.43,-6.56,-6.56,-6.56
150.75,-6.04,0.57,-6.05,0.56,-0.57,-0.38,-0.45,-6.61,-6.62,-6.62
152.26,-6.04,0.64,-6.04,0.65,-0.65,-0.41,-0.47,-6.69,-6.69,-6.69
153.78,-6.04,0.71,-6.03,0.72,-0.73,-0.45,-0.50,-6.77,-6.76,-6.76
155.32,-6.04,0.78,-6.03,0.79,-0.78,-0.49,-0.52,-6.82,-6.82,-6.83
156.88,-6.04,0.86,-6.05,0.85,-0.81,-0.52,-0.55,-6.86,-6.87,-6.91
158.44,-6.09,0.89,-6.10,0.89,-0.82,-0.56,-0.57,-6.91,-6.92,-6.99
160.03,-6.19,0.87,-6.19,0.87,-0.81,-0.60,-0.60,-7.01,-7.01,-7.07
161.63,-6.30,0.83,-6.31,0.83,-0.80,-0.64,-0.63,-7.10,-7.11,-7.14
163.24,-6.44,0.75,-6.43,0.76,-0.78,-0.69,-0.65,-7.22,-7.21,-7.20
164.88,-6.52,0.72,-6.53,0.72,-0.78,-0.73,-0.68,-7.30,-7.31,-7.25
166.53,-6.61,0.68,-6.60,0.70,-0.78,-0.78,-0.71,-7.39,-7.38,-7.30
168.19,-6.59,0.74,-6.59,0.75,-0.81,-0.83,-0.74,-7.40,-7.40,-7.34
169.87,-6.56,0.81,-6.54,0.83,-0.85,-0.88,-0.77,-7.42,-7.40,-7.38
171.57,-6.43,0.96,-6.46,0.93,-0.92,-0.93,-0.80,-7.36,-7.38,-7.40
173.29,-6.37,1.03,-6.38,1.03,-1.01,-0.98,-0.83,-7.38,-7.39,-7.41
175.02,-6.30,1.11,-6.28,1.13,-1.10,-1.04,-0.86,-7.40,-7.39,-7.42
176.77,-6.21,1.21,-6.21,1.21,-1.19,-1.09,-0.89,-7.40,-7.41,-7.43
178.54,-6.12,1.31,-6.14,1.29,-1.27,-1.15,-0.93,-7.39,-7.41,-7.44
180.32,-6.08,1.34,-6.07,1.36,-1.34,-1.21,-0.96,-7.42,-7.41,-7.43
182.13,-6.02,1.39,-6.02,1.40,-1.39,-1.28,-1.00,-7.41,-7.41,-7.42
183.95,-5.97,1.45,-5.98,1.44,-1.43,-1.34,-1.03,-7.40,-7.42,-7.43
185.79,-5.96,1.46,-5.95,1.47,-1.47,-1.40,-1.07,-7.44,-7.43,-7.43
187.65,-5.94,1.50,-5.94,1.50,-1.51,-1.47,-1.10,-7.46,-7.45,-7.45
189.52,-5.92,1.53,-5.93,1.53,-1.56,-1.54,-1.14,-7.48,-7.49,-7.46
191.42,-5.91,1.56,-5.90,1.57,-1.60,-1.60,-1.18,-7.51,-7.50,-7.48
193.33,-5.87,1.62,-5.86,1.63,-1.64,-1.67,-1.22,-7.52,-7.51,-7.50
195.27,-5.81,1.70,-5.82,1.70,-1.69,-1.73,-1.25,-7.50,-7.51,-7.52
197.22,-5.77,1.76,-5.78,1.76,-1.73,-1.79,-1.29,-7.50,-7.51,-7.54
199.19,-5.76,1.79,-5.76,1.80,-1.77,-1.85,-1.33,-7.53,-7.53,-7.56
201.18,-5.75,1.82,-5.75,1.83,-1.81,-1.90,-1.37,-7.56,-7.56,-7.58
203.19,-5.75,1.84,-5.75,1.85,-1.85,-1.95,-1.41,-7.60,-7.60,-7.60
205.23,-5.74,1.87,-5.75,1.86,-1.88,-2.00,-1.45,-7.62,-7.63,-7.62
207.28,-5.74,1.88,-5.74,1.89,-1.91,-2.04,-1.49,-7.65,-7.66,-7.63
209.35,-5.74,1.90,-5.73,1.92,-1.94,-2.07,-1.53,-7.68,-7.67,-7.65
211.44,-5.70,1.97,-5.70,1.97,-1.97,-2.10,-1.57,-7.67,-7.67,-7.68
213.56,-5.66,2.02,-5.67,2.01,-2.00,-2.12,-1.61,-7.66,-7.67,-7.69
215.69,-5.65,2.04,-5.66,2.04,-2.02,-2.13,-1.65,-7.67,-7.68,-7.70
217.85,-5.66,2.04,-5.65,2.05,-2.04,-2.13,-1.69,-7.71,-7.70,-7.71
220.03,-5.66,2.05,-5.66,2.06,-2.06,-2.13,-1.73,-7.72,-7.72,-7.72
222.23,-5.66,2.08,-5.66,2.07,-2.07,-2.13,-1.76,-7.73,-7.73,-7.75
224.45,-5.66,2.07,-5.66,2.08,-2.07,-2.12,-1.80,-7.73,-7.73,-7.74
226.70,-5.66,2.07,-5.66,2.07,-2.07,-2.10,-1.83,-7.73,-7.73,-7.74
228.96,-5.66,2.06,-5.66,2.07,-2.07,-2.08,-1.87,-7.73,-7.73,-7.73
231.25,-5.65,2.06,-5.66,2.06,-2.08,-2.06,-1.90,-7.73,-7.73,-7.72
233.57,-5.64,2.06,-5.64,2.06,-2.09,-2.04,-1.93,-7.73,-7.73,-7.71
235.90,-5.63,2.06,-5.61,2.08,-2.10,-2.02,-1.96,-7.73,-7.71,-7.70
238.26,-5.57,2.11,-5.57,2.11,-2.11,-2.00,-1.99,-7.68,-7.68,-7.69
240.64,-5.51,2.14,-5.53,2.13,-2.12,-1.97,-2.01,-7.63,-7.64,-7.66
243.05,-5.49,2.13,-5.48,2.14,-2.13,-1.95,-2.03,-7.62,-7.61,-7.63
245.48,-5.46,2.14,-5.46,2.14,-2.13,-1.93,-2.05,-7.60,-7.59,-7.61
247.93,-5.43,2.14,-5.44,2.14,-2.14,-1.91,-2.07,-7.57,-7.58,-7.58
250.41,-5.42,2.13,-5.42,2.14,-2.14,-1.89,-2.09,-7.56,-7.56,-7.56
252.92,-5.40,2.12,-5.40,2.12,-2.13,-1.88,-2.10,-7.53,-7.53,-7.53
255.45,-5.39,2.11,-5.39,2.12,-2.12,-1.86,-2.11,-7.51,-7.51,-7.51
258.00,-5.38,2.10,-5.38,2.10,-2.10,-1.85,-2.12,-7.48,-7.48,-7.49
260.58,-5.37,2.09,-5.37,2.09,-2.08,-1.84,-2.13,-7.45,-7.46,-7.47
263.19,-5.37,2.06,-5.37,2.07,-2.06,-1.83,-2.14,-7.43,-7.43,-7.44
265.82,-5.37,2.04,-5.37,2.04,-2.04,-1.82,-2.14,-7.41,-7.41,-7.42
268.48,-5.38,2.01,-5.38,2.01,-2.01,-1.82,-2.14,-7.39,-7.39,-7.40
271.16,-5.38,1.98,-5.39,1.98,-1.98,-1.81,-2.14,-7.36,-7.37,-7.37
273.87,-5.41,1.93,-5.40,1.95,-1.95,-1.81,-2.14,-7.36,-7.34,-7.35
276.61,-5.39,1.92,-5.40,1.92,-1.92,-1.81,-2.14,-7.31,-7.32,-7.32
279.38,-5.39,1.89,-5.39,1.90,-1.90,-1.82,-2.14,-7.29,-7.29,-7.29
282.17,-5.38,1.88,-5.39,1.87,-1.88,-1.82,-2.13,-7.27,-7.27,-7.27
284.99,-5.38,1.84,-5.38,1.85,-1.87,-1.82,-2.13,-7.26,-7.26,-7.23
287.84,-5.37,1.83,-5.35,1.85,-1.87,-1.83,-2.12,-7.24,-7.22,-7.21
290.72,-5.31,1.86,-5.31,1.86,-1.87,-1.84,-2.12,-7.18,-7.18,-7.18
293.63,-5.24,1.90,-5.26,1.88,-1.86,-1.85,-2.11,-7.11,-7.13,-7.15
296.57,-5.23,1.88,-5.23,1.89,-1.86,-1.86,-2.11,-7.09,-7.09,-7.12
299.53,-5.22,1.86,-5.22,1.87,-1.86,-1.87,-2.10,-7.08,-7.07,-7.09
302.53,-5.21,1.85,-5.21,1.85,-1.85,-1.88,-2.10,-7.06,-7.06,-7.07
305.55,-5.20,1.82,-5.20,1.83,-1.83,-1.90,-2.10,-7.04,-7.04,-7.03
308.61,-5.19,1.81,-5.19,1.81,-1.82,-1.91,-2.09,-7.01,-7.01,-7.01
311.69,-5.18,1.79,-5.18,1.79,-1.80,-1.93,-2.09,-6.98,-6.98,-6.98
314.81,-5.18,1.77,-5.18,1.78,-1.78,-1.94,-2.09,-6.96,-6.96,-6.96
317.96,-5.18,1.75,-5.18,1.76,-1.76,-1.96,-2.09,-6.94,-6.94,-6.94
321.14,-5.18,1.74,-5.18,1.74,-1.74,-1.98,-2.09,-6.92,-6.92,-6.93
324.35,-5.18,1.72,-5.18,1.73,-1.73,-2.00,-2.09,-6.91,-6.91,-6.91
327.59,-5.18,1.71,-5.18,1.71,-1.71,-2.02,-2.09,-6.89,-6.89,-6.90
330.87,-5.18,1.70,-5.18,1.70,-1.70,-2.04,-2.10,-6.88,-6.88,-6.89
334.18,-5.18,1.68,-5.18,1.69,-1.68,-2.06,-2.10,-6.86,-6.86,-6.87
337.52,-5.18,1.67,-5.18,1.67,-1.67,-2.08,-2.11,-6.85,-6.85,-6.86
340.90,-5.19,1.65,-5.19,1.66,-1.65,-2.10,-2.12,-6.85,-6.84,-6.85
344.30,-5.19,1.64,-5.19,1.65,-1.65,-2.13,-2.13,-6.84,-6.84,-6.84
347.75,-5.19,1.64,-5.19,1.64,-1.65,-2.15,-2.14,-6.84,-6.84,-6.84
351.23,-5.18,1.64,-5.20,1.63,-1.65,-2.18,-2.15,-6.83,-6.85,-6.83
354.74,-5.19,1.64,-5.19,1.64,-1.66,-2.20,-2.17,-6.86,-6.85,-6.84
358.28,-5.19,1.63,-5.16,1.67,-1.68,-2.23,-2.18,-6.87,-6.84,-6.83
361.87,-5.10,1.72,-5.12,1.70,-1.70,-2.25,-2.20,-6.80,-6.82,-6.83
365.49,-5.07,1.74,-5.08,1.74,-1.72,-2.28,-2.22,-6.79,-6.80,-6.82
369.14,-5.06,1.76,-5.05,1.77,-1.74,-2.31,-2.24,-6.80,-6.79,-6.83
372.83,-5.05,1.77,-5.05,1.78,-1.76,-2.33,-2.26,-6.81,-6.81,-6.83
376.56,-5.04,1.79,-5.05,1.78,-1.78,-2.36,-2.29,-6.82,-6.82,-6.84
380.33,-5.04,1.78,-5.04,1.78,-1.80,-2.39,-2.31,-6.84,-6.84,-6.83
384.13,-5.03,1.79,-5.02,1.81,-1.82,-2.42,-2.34,-6.85,-6.84,-6.83
387.97,-5.00,1.83,-4.99,1.84,-1.85,-2.45,-2.37,-6.85,-6.84,-6.84
391.85,-4.93,1.91,-4.97,1.87,-1.89,-2.48,-2.40,-6.83,-6.86,-6.85
395.77,-4.92,1.91,-4.92,1.92,-1.95,-2.51,-2.43,-6.87,-6.87,-6.84
399.73,-4.92,1.92,-4.87,1.97,-2.00,-2.54,-2.46,-6.92,-6.87,-6.85
403.72,-4.77,2.07,-4.80,2.05,-2.05,-2.57,-2.50,-6.83,-6.85,-6.85
407.76,-4.71,2.15,-4.71,2.15,-2.10,-2.60,-2.53,-6.82,-6.81,-6.87
411.84,-4.62,2.24,-4.63,2.24,-2.15,-2.63,-2.57,-6.78,-6.78,-6.87
415.96,-4.59,2.27,-4.61,2.25,-2.21,-2.66,-2.60,-6.80,-6.83,-6.87
420.12,-4.61,2.25,-4.62,2.25,-2.28,-2.70,-2.64,-6.89,-6.89,-6.87
424.32,-4.63,2.23,-4.61,2.25,-2.34,-2.73,-2.68,-6.97,-6.95,-6.87
428.56,-4.56,2.29,-4.53,2.33,-2.40,-2.76,-2.72,-6.96,-6.93,-6.86
432.85,-4.41,2.43,-4.41,2.43,-2.45,-2.80,-2.76,-6.86,-6.86,-6.85
