frequency,raw,error,smoothed,error_smoothed,equalization,parametric_eq,fixed_band_eq,equalized_raw,equalized_smoothed,target
20.00,2.71,-6.28,2.71,-6.30,6.30,5.87,2.06,9.01,9.01,8.99
20.20,2.78,-6.25,2.78,-6.26,6.26,5.85,2.12,9.04,9.04,9.03
20.40,2.84,-6.23,2.84,-6.23,6.23,5.82,2.18,9.07,9.07,9.06
20.61,2.91,-6.19,2.91,-6.19,6.19,5.79,2.24,9.09,9.10,9.09
20.81,2.98,-6.15,2.98,-6.15,6.15,5.76,2.31,9.13,9.12,9.13
21.02,3.05,-6.12,3.05,-6.10,6.10,5.73,2.38,9.15,9.15,9.17
21.23,3.11,-6.08,3.11,-6.06,6.06,5.71,2.44,9.17,9.17,9.19
21.44,3.18,-6.03,3.18,-6.02,6.02,5.68,2.52,9.20,9.19,9.21
21.66,3.25,-5.98,3.25,-5.97,5.97,5.65,2.59,9.22,9.22,9.23
21.87,3.31,-5.93,3.31,-5.92,5.92,5.62,2.66,9.23,9.23,9.24
22.09,3.38,-5.88,3.38,-5.87,5.87,5.59,2.74,9.25,9.25,9.26
22.31,3.45,-5.82,3.45,-5.82,5.82,5.56,2.82,9.27,9.27,9.27
22.54,3.51,-5.77,3.51,-5.77,5.77,5.53,2.90,9.28,9.28,9.28
22.76,3.58,-5.71,3.58,-5.71,5.71,5.50,2.99,9.29,9.29,9.29
22.99,3.65,-5.64,3.65,-5.65,5.65,5.47,3.07,9.30,9.30,9.29
23.22,3.71,-5.59,3.71,-5.60,5.60,5.44,3.16,9.30,9.31,9.30
23.45,3.78,-5.53,3.78,-5.54,5.54,5.40,3.25,9.32,9.31,9.31
23.69,3.84,-5.48,3.84,-5.48,5.48,5.37,3.34,9.32,9.32,9.32
23.92,3.91,-5.42,3.91,-5.42,5.42,5.34,3.43,9.33,9.33,9.32
24.16,3.97,-5.37,3.97,-5.37,5.37,5.31,3.53,9.34,9.34,9.34
24.40,4.04,-5.32,4.04,-5.31,5.31,5.28,3.62,9.35,9.35,9.36
24.65,4.11,-5.25,4.11,-5.25,5.25,5.24,3.72,9.36,9.36,9.36
24.89,4.17,-5.20,4.17,-5.20,5.20,5.21,3.82,9.37,9.37,9.37
25.14,4.24,-5.14,4.24,-5.15,5.15,5.18,3.92,9.39,9.38,9.38
25.39,4.30,-5.09,4.30,-5.09,5.09,5.14,4.02,9.39,9.39,9.39
25.65,4.36,-5.05,4.36,-5.04,5.04,5.11,4.12,9.40,9.40,9.41
25.91,4.43,-4.98,4.43,-4.98,4.98,5.07,4.22,9.41,9.41,9.41
26.16,4.49,-4.93,4.49,-4.93,4.93,5.04,4.32,9.42,9.42,9.42
26.43,4.55,-4.88,4.55,-4.88,4.88,5.00,4.42,9.42,9.43,9.42
26.69,4.62,-4.81,4.62,-4.82,4.82,4.97,4.52,9.44,9.44,9.43
26.96,4.68,-4.77,4.68,-4.77,4.77,4.93,4.61,9.45,9.45,9.45
27.23,4.74,-4.72,4.74,-4.72,4.72,4.90,4.71,9.45,9.45,9.46
27.50,4.80,-4.67,4.80,-4.66,4.66,4.86,4.80,9.46,9.46,9.47
27.77,4.86,-4.61,4.86,-4.61,4.61,4.83,4.88,9.47,9.47,9.47
28.05,4.92,-4.57,4.92,-4.56,4.56,4.79,4.97,9.48,9.48,9.49
28.33,4.98,-4.50,4.98,-4.51,4.51,4.75,5.05,9.49,9.49,9.48
28.62,5.04,-4.45,5.04,-4.45,4.45,4.72,5.12,9.49,9.50,9.49
28.90,5.10,-4.40,5.10,-4.40,4.40,4.68,5.19,9.50,9.50,9.50
29.19,5.16,-4.34,5.16,-4.35,4.35,4.65,5.25,9.51,9.51,9.50
29.48,5.21,-4.32,5.21,-4.30,4.30,4.61,5.30,9.51,9.52,9.53
29.78,5.27,-4.26,5.27,-4.25,4.25,4.57,5.35,9.52,9.52,9.53
30.08,5.32,-4.21,5.32,-4.21,4.21,4.53,5.39,9.52,9.53,9.53
30.38,5.38,-4.15,5.38,-4.16,4.16,4.50,5.42,9.54,9.54,9.53
30.68,5.43,-4.12,5.43,-4.11,4.11,4.46,5.45,9.54,9.54,9.55
30.99,5.49,-4.06,5.48,-4.07,4.07,4.42,5.46,9.56,9.55,9.55
31.30,5.53,-4.03,5.53,-4.03,4.03,4.38,5.47,9.56,9.56,9.55
31.61,5.58,-3.98,5.58,-3.99,3.99,4.34,5.46,9.57,9.56,9.56
31.93,5.62,-3.95,5.62,-3.95,3.95,4.31,5.45,9.57,9.57,9.57
32.24,5.66,-3.91,5.66,-3.91,3.91,4.27,5.43,9.57,9.58,9.57
32.57,5.71,-3.87,5.71,-3.88,3.88,4.23,5.40,9.59,9.58,9.58
32.89,5.76,-3.83,5.75,-3.84,3.84,4.19,5.36,9.60,9.59,9.59
33.22,5.79,-3.81,5.79,-3.81,3.81,4.15,5.32,9.60,9.60,9.60
33.55,5.83,-3.78,5.82,-3.78,3.78,4.11,5.27,9.61,9.60,9.60
33.89,5.87,-3.74,5.86,-3.75,3.75,4.07,5.21,9.62,9.61,9.61
34.23,5.90,-3.72,5.90,-3.72,3.72,4.03,5.15,9.62,9.61,9.62
34.57,5.93,-3.70,5.93,-3.69,3.69,4.00,5.08,9.62,9.62,9.62
34.92,5.96,-3.66,5.97,-3.66,3.66,3.96,5.01,9.61,9.62,9.62
35.27,6.00,-3.63,6.00,-3.62,3.62,3.92,4.93,9.62,9.63,9.63
35.62,6.04,-3.59,6.04,-3.59,3.59,3.88,4.85,9.63,9.63,9.63
35.97,6.08,-3.55,6.08,-3.56,3.56,3.84,4.76,9.64,9.63,9.63
36.33,6.11,-3.53,6.11,-3.52,3.52,3.80,4.68,9.63,9.63,9.63
36.70,6.15,-3.48,6.15,-3.48,3.48,3.76,4.59,9.63,9.63,9.63
37.06,6.19,-3.45,6.19,-3.44,3.44,3.72,4.50,9.63,9.63,9.64
37.43,6.23,-3.41,6.23,-3.40,3.40,3.68,4.41,9.63,9.63,9.64
37.81,6.27,-3.37,6.28,-3.35,3.35,3.64,4.32,9.62,9.63,9.64
38.19,6.31,-3.32,6.32,-3.31,3.31,3.60,4.23,9.62,9.63,9.63
38.57,6.36,-3.27,6.37,-3.26,3.26,3.56,4.14,9.62,9.62,9.63
38.95,6.41,-3.21,6.41,-3.21,3.21,3.52,4.06,9.62,9.62,9.62
39.34,6.46,-3.15,6.45,-3.16,3.16,3.48,3.97,9.62,9.62,9.61
39.74,6.50,-3.11,6.50,-3.12,3.12,3.44,3.88,9.62,9.62,9.61
40.14,6.55,-3.06,6.54,-3.07,3.07,3.40,3.80,9.62,9.61,9.61
40.54,6.59,-3.02,6.59,-3.02,3.02,3.36,3.72,9.61,9.61,9.61
40.94,6.63,-2.97,6.63,-2.98,2.98,3.32,3.64,9.61,9.60,9.60
41.35,6.68,-2.91,6.67,-2.93,2.93,3.28,3.56,9.61,9.60,9.59
41.76,6.72,-2.88,6.71,-2.89,2.89,3.24,3.48,9.61,9.59,9.59
42.18,6.75,-2.85,6.75,-2.84,2.84,3.20,3.41,9.59,9.59,9.60
42.60,6.78,-2.81,6.78,-2.80,2.80,3.16,3.34,9.58,9.59,9.59
43.03,6.81,-2.78,6.82,-2.76,2.76,3.12,3.27,9.57,9.58,9.59
43.46,6.85,-2.73,6.85,-2.73,2.73,3.08,3.20,9.58,9.58,9.58
43.90,6.88,-2.69,6.88,-2.69,2.69,3.04,3.14,9.57,9.57,9.56
44.33,6.91,-2.66,6.91,-2.66,2.66,3.00,3.07,9.56,9.57,9.56
44.78,6.94,-2.62,6.94,-2.62,2.62,2.96,3.01,9.56,9.56,9.56
45.23,6.97,-2.58,6.97,-2.59,2.59,2.92,2.96,9.56,9.56,9.55
45.68,7.00,-2.55,7.00,-2.55,2.55,2.88,2.90,9.55,9.55,9.55
46.13,7.03,-2.51,7.03,-2.52,2.52,2.84,2.85,9.55,9.55,9.54
46.60,7.06,-2.49,7.05,-2.48,2.48,2.80,2.80,9.54,9.54,9.54
47.06,7.08,-2.45,7.08,-2.45,2.45,2.76,2.75,9.53,9.53,9.53
47.53,7.11,-2.41,7.11,-2.41,2.41,2.72,2.71,9.52,9.52,9.52
48.01,7.13,-2.40,7.13,-2.38,2.38,2.68,2.67,9.51,9.51,9.53
48.49,7.15,-2.36,7.15,-2.34,2.34,2.64,2.62,9.49,9.50,9.51
48.97,7.18,-2.30,7.18,-2.31,2.31,2.60,2.58,9.49,9.49,9.48
49.46,7.20,-2.27,7.20,-2.27,2.27,2.57,2.55,9.47,9.47,9.47
49.96,7.22,-2.23,7.22,-2.24,2.24,2.53,2.51,9.46,9.46,9.45
50.46,7.24,-2.20,7.24,-2.21,2.21,2.49,2.48,9.44,9.44,9.44
50.96,7.26,-2.17,7.25,-2.17,2.17,2.45,2.45,9.43,9.42,9.43
51.47,7.27,-2.12,7.27,-2.13,2.13,2.41,2.41,9.40,9.40,9.39
51.99,7.29,-2.09,7.29,-2.10,2.10,2.37,2.38,9.39,9.38,9.38
52.51,7.31,-2.06,7.30,-2.06,2.06,2.33,2.36,9.37,9.36,9.37
53.03,7.32,-2.02,7.32,-2.02,2.02,2.29,2.33,9.34,9.34,9.34
53.56,7.33,-2.00,7.34,-1.98,1.98,2.26,2.30,9.31,9.32,9.32
54.10,7.34,-1.96,7.36,-1.94,1.94,2.22,2.27,9.28,9.30,9.30
54.64,7.36,-1.92,7.37,-1.90,1.90,2.18,2.25,9.26,9.27,9.28
55.18,7.38,-1.87,7.39,-1.86,1.86,2.14,2.22,9.24,9.25,9.25
55.74,7.40,-1.82,7.41,-1.82,1.82,2.10,2.20,9.22,9.23,9.22
56.29,7.42,-1.79,7.42,-1.79,1.79,2.06,2.17,9.21,9.20,9.21
56.86,7.44,-1.74,7.43,-1.75,1.75,2.03,2.14,9.19,9.18,9.18
57.42,7.45,-1.69,7.44,-1.72,1.72,1.99,2.12,9.17,9.15,9.14
58.00,7.46,-1.66,7.44,-1.68,1.68,1.95,2.09,9.14,9.13,9.12
58.58,7.46,-1.64,7.44,-1.65,1.65,1.91,2.06,9.11,9.10,9.10
59.16,7.46,-1.61,7.44,-1.62,1.62,1.88,2.03,9.08,9.06,9.07
59.76,7.45,-1.60,7.44,-1.59,1.59,1.84,2.00,9.04,9.03,9.05
60.35,7.44,-1.57,7.43,-1.56,1.56,1.80,1.97,9.00,9.00,9.01
60.96,7.42,-1.56,7.42,-1.54,1.54,1.77,1.94,8.96,8.96,8.97
61.57,7.40,-1.53,7.41,-1.52,1.52,1.73,1.90,8.92,8.93,8.93
62.18,7.38,-1.50,7.39,-1.50,1.50,1.70,1.86,8.88,8.89,8.88
62.80,7.36,-1.49,7.37,-1.48,1.48,1.66,1.83,8.84,8.85,8.85
63.43,7.34,-1.46,7.35,-1.46,1.46,1.62,1.79,8.80,8.81,8.80
64.07,7.33,-1.43,7.32,-1.44,1.44,1.59,1.75,8.77,8.77,8.76
64.71,7.30,-1.42,7.30,-1.42,1.42,1.55,1.70,8.72,8.72,8.72
65.35,7.28,-1.40,7.27,-1.41,1.41,1.52,1.66,8.69,8.68,8.67
66.01,7.25,-1.38,7.24,-1.39,1.39,1.48,1.61,8.64,8.63,8.63
66.67,7.22,-1.38,7.21,-1.37,1.37,1.45,1.56,8.59,8.59,8.60
67.33,7.19,-1.36,7.18,-1.36,1.36,1.42,1.52,8.55,8.54,8.55
68.01,7.16,-1.34,7.15,-1.34,1.34,1.38,1.46,8.50,8.50,8.50
68.69,7.12,-1.34,7.12,-1.33,1.33,1.35,1.41,8.45,8.45,8.46
69.37,7.08,-1.33,7.09,-1.32,1.32,1.32,1.36,8.39,8.41,8.41
70.07,7.06,-1.30,7.06,-1.30,1.30,1.29,1.31,8.36,8.36,8.36
70.77,7.02,-1.30,7.03,-1.29,1.29,1.26,1.25,8.31,8.32,8.32
71.48,7.00,-1.28,7.00,-1.27,1.27,1.23,1.19,8.27,8.27,8.28
72.19,6.97,-1.26,6.97,-1.26,1.26,1.20,1.14,8.23,8.23,8.23
72.91,6.94,-1.24,6.94,-1.24,1.24,1.17,1.08,8.18,8.19,8.18
73.64,6.91,-1.23,6.91,-1.23,1.23,1.14,1.02,8.14,8.14,8.14
74.38,6.88,-1.22,6.88,-1.22,1.22,1.12,0.96,8.10,8.10,8.10
75.12,6.86,-1.20,6.85,-1.21,1.21,1.09,0.90,8.07,8.06,8.06
75.87,6.83,-1.19,6.82,-1.20,1.20,1.07,0.84,8.03,8.02,8.02
76.63,6.80,-1.18,6.79,-1.19,1.19,1.05,0.78,7.99,7.98,7.98
77.40,6.77,-1.17,6.75,-1.19,1.19,1.04,0.72,7.96,7.94,7.94
78.17,6.73,-1.17,6.72,-1.19,1.19,1.02,0.66,7.92,7.91,7.90
78.95,6.68,-1.19,6.68,-1.19,1.19,1.01,0.60,7.87,7.87,7.87
79.74,6.64,-1.20,6.64,-1.20,1.20,1.00,0.54,7.84,7.84,7.84
80.54,6.60,-1.21,6.60,-1.21,1.21,1.00,0.48,7.81,7.80,7.81
81.35,6.55,-1.22,6.55,-1.22,1.22,1.01,0.41,7.77,7.77,7.77
82.16,6.51,-1.23,6.51,-1.23,1.23,1.02,0.35,7.74,7.74,7.74
82.98,6.47,-1.24,6.46,-1.25,1.25,1.03,0.29,7.72,7.71,7.71
83.81,6.42,-1.26,6.41,-1.27,1.27,1.06,0.23,7.69,7.68,7.68
84.65,6.37,-1.27,6.36,-1.29,1.29,1.10,0.17,7.66,7.65,7.64
85.50,6.33,-1.29,6.31,-1.31,1.31,1.14,0.11,7.63,7.62,7.62
86.35,6.28,-1.31,6.27,-1.32,1.32,1.20,0.04,7.60,7.59,7.59
87.22,6.24,-1.32,6.23,-1.34,1.34,1.26,-0.02,7.58,7.56,7.56
88.09,6.19,-1.34,6.19,-1.35,1.35,1.34,-0.08,7.54,7.54,7.53
88.97,6.15,-1.36,6.16,-1.35,1.35,1.41,-0.14,7.50,7.51,7.51
89.86,6.13,-1.36,6.13,-1.35,1.35,1.47,-0.21,7.48,7.48,7.49
90.76,6.11,-1.34,6.12,-1.34,1.34,1.51,-0.27,7.44,7.45,7.45
91.66,6.10,-1.32,6.11,-1.31,1.31,1.52,-0.33,7.41,7.42,7.42
92.58,6.10,-1.29,6.12,-1.28,1.28,1.49,-0.39,7.37,7.40,7.39
93.51,6.11,-1.27,6.14,-1.23,1.23,1.41,-0.46,7.34,7.37,7.37
94.44,6.13,-1.21,6.17,-1.17,1.17,1.29,-0.52,7.30,7.34,7.34
95.39,6.18,-1.14,6.21,-1.10,1.10,1.15,-0.58,7.28,7.30,7.31
96.34,6.24,-1.03,6.26,-1.02,1.02,0.99,-0.64,7.25,7.27,7.27
97.30,6.31,-0.92,6.31,-0.92,0.92,0.82,-0.71,7.23,7.24,7.23
98.28,6.38,-0.82,6.38,-0.82,0.82,0.66,-0.77,7.20,7.20,7.20
99.26,6.47,-0.69,6.46,-0.70,0.70,0.50,-0.83,7.17,7.16,7.16
100.25,6.57,-0.55,6.55,-0.58,0.58,0.36,-0.90,7.15,7.12,7.12
101.25,6.67,-0.42,6.64,-0.45,0.45,0.23,-0.96,7.12,7.08,7.09
102.27,6.75,-0.29,6.73,-0.31,0.31,0.11,-1.02,7.06,7.04,7.04
103.29,6.81,-0.18,6.83,-0.17,0.17,-0.01,-1.08,6.98,6.99,6.99
104.32,6.89,-0.06,6.93,-0.02,0.02,-0.11,-1.15,6.91,6.95,6.95
105.37,7.01,0.10,7.02,0.13,-0.13,-0.21,-1.21,6.88,6.90,6.90
106.42,7.13,0.28,7.12,0.28,-0.28,-0.30,-1.27,6.85,6.84,6.85
107.48,7.23,0.43,7.22,0.43,-0.43,-0.39,-1.33,6.80,6.79,6.80
108.56,7.32,0.59,7.31,0.58,-0.58,-0.47,-1.39,6.74,6.73,6.73
109.64,7.40,0.73,7.40,0.73,-0.73,-0.55,-1.45,6.67,6.67,6.67
110.74,7.49,0.87,7.48,0.87,-0.87,-0.63,-1.50,6.61,6.61,6.62
111.85,7.57,1.02,7.56,1.02,-1.02,-0.70,-1.56,6.55,6.54,6.55
112.97,7.66,1.19,7.64,1.16,-1.16,-0.78,-1.61,6.49,6.48,6.47
114.10,7.73,1.31,7.71,1.30,-1.30,-0.85,-1.67,6.42,6.41,6.42
115.24,7.80,1.46,7.78,1.44,-1.44,-0.92,-1.72,6.36,6.34,6.34
116.39,7.83,1.57,7.84,1.57,-1.57,-0.99,-1.77,6.26,6.27,6.26
117.55,7.88,1.68,7.89,1.69,-1.69,-1.06,-1.81,6.19,6.20,6.20
118.73,7.93,1.81,7.93,1.80,-1.80,-1.12,-1.86,6.13,6.14,6.12
119.92,7.98,1.91,7.97,1.91,-1.91,-1.19,-1.90,6.07,6.07,6.07
121.12,8.02,2.02,8.01,2.00,-2.00,-1.26,-1.94,6.01,6.00,6.00
122.33,8.04,2.11,8.03,2.10,-2.10,-1.33,-1.98,5.94,5.94,5.93
123.55,8.06,2.18,8.05,2.18,-2.18,-1.40,-2.02,5.88,5.87,5.88
124.79,8.08,2.26,8.07,2.26,-2.26,-1.47,-2.05,5.82,5.81,5.82
126.03,8.09,2.33,8.08,2.33,-2.33,-1.54,-2.08,5.76,5.75,5.76
127.29,8.10,2.40,8.09,2.40,-2.40,-1.61,-2.11,5.70,5.69,5.70
128.57,8.10,2.47,8.09,2.46,-2.46,-1.68,-2.14,5.64,5.63,5.63
129.85,8.10,2.52,8.10,2.52,-2.52,-1.75,-2.16,5.58,5.58,5.58
131.15,8.09,2.57,8.10,2.57,-2.57,-1.82,-2.19,5.52,5.52,5.52
132.46,8.08,2.61,8.10,2.62,-2.62,-1.89,-2.21,5.45,5.47,5.47
133.79,8.08,2.66,8.09,2.67,-2.67,-1.96,-2.23,5.41,5.42,5.42
135.12,8.08,2.71,8.09,2.72,-2.72,-2.03,-2.24,5.36,5.37,5.37
136.48,8.08,2.76,8.09,2.77,-2.77,-2.11,-2.26,5.31,5.32,5.32
137.84,8.08,2.81,8.08,2.81,-2.81,-2.18,-2.28,5.27,5.27,5.27
139.22,8.08,2.86,8.08,2.86,-2.86,-2.26,-2.29,5.22,5.22,5.22
140.61,8.08,2.92,8.08,2.90,-2.90,-2.33,-2.30,5.18,5.18,5.16
142.02,8.08,2.95,8.08,2.95,-2.95,-2.41,-2.32,5.13,5.13,5.13
143.44,8.08,2.99,8.08,2.99,-2.99,-2.49,-2.33,5.09,5.09,5.09
144.87,8.08,3.04,8.08,3.04,-3.04,-2.56,-2.34,5.04,5.04,5.04
146.32,8.08,3.08,8.08,3.08,-3.08,-2.64,-2.36,4.99,4.99,4.99
147.78,8.08,3.12,8.08,3.13,-3.13,-2.72,-2.37,4.95,4.95,4.96
149.26,8.08,3.17,8.08,3.18,-3.18,-2.80,-2.38,4.90,4.90,4.91
150.75,8.08,3.23,8.08,3.23,-3.23,-2.88,-2.40,4.85,4.85,4.85
152.26,8.08,3.28,8.08,3.28,-3.28,-2.96,-2.41,4.80,4.80,4.80
153.78,8.08,3.32,8.08,3.33,-3.33,-3.04,-2.43,4.75,4.75,4.76
155.32,8.08,3.38,8.08,3.38,-3.38,-3.12,-2.45,4.70,4.70,4.69
156.88,8.08,3.43,8.08,3.43,-3.43,-3.20,-2.47,4.65,4.65,4.65
158.44,8.08,3.48,8.09,3.49,-3.49,-3.28,-2.49,4.59,4.60,4.60
160.03,8.08,3.54,8.09,3.54,-3.54,-3.35,-2.51,4.54,4.55,4.54
161.63,8.08,3.59,8.09,3.60,-3.60,-3.43,-2.54,4.48,4.49,4.48
163.24,8.09,3.65,8.10,3.65,-3.65,-3.51,-2.56,4.44,4.44,4.44
164.88,8.09,3.70,8.10,3.71,-3.71,-3.59,-2.59,4.38,4.39,4.39
166.53,8.10,3.76,8.09,3.76,-3.76,-3.67,-2.62,4.34,4.33,4.33
168.19,8.10,3.82,8.09,3.81,-3.81,-3.74,-2.65,4.29,4.28,4.28
169.87,8.10,3.87,8.08,3.86,-3.86,-3.82,-2.69,4.24,4.22,4.23
171.57,8.09,3.92,8.07,3.90,-3.90,-3.89,-2.72,4.19,4.17,4.17
173.29,8.08,3.97,8.05,3.94,-3.94,-3.97,-2.76,4.14,4.11,4.11
175.02,8.04,3.98,8.03,3.98,-3.98,-4.04,-2.80,4.06,4.05,4.06
176.77,8.02,4.03,8.01,4.02,-4.02,-4.10,-2.85,4.00,3.99,3.99
178.54,8.00,4.07,7.98,4.05,-4.05,-4.17,-2.89,3.95,3.93,3.93
180.32,7.96,4.09,7.96,4.09,-4.09,-4.23,-2.94,3.87,3.87,3.87
182.13,7.93,4.12,7.93,4.12,-4.12,-4.29,-2.99,3.81,3.81,3.81
183.95,7.88,4.13,7.90,4.15,-4.15,-4.35,-3.04,3.73,3.75,3.75
185.79,7.85,4.16,7.87,4.19,-4.19,-4.40,-3.10,3.66,3.69,3.69
187.65,7.83,4.21,7.85,4.22,-4.22,-4.46,-3.15,3.61,3.63,3.62
189.52,7.80,4.24,7.83,4.26,-4.26,-4.50,-3.21,3.54,3.57,3.56
191.42,7.79,4.28,7.81,4.30,-4.30,-4.55,-3.27,3.49,3.51,3.51
193.33,7.77,4.32,7.79,4.34,-4.34,-4.58,-3.33,3.43,3.45,3.45
195.27,7.76,4.36,7.77,4.38,-4.38,-4.62,-3.40,3.38,3.39,3.40
197.22,7.75,4.41,7.76,4.42,-4.42,-4.65,-3.46,3.33,3.34,3.34
199.19,7.74,4.46,7.74,4.45,-4.45,-4.67,-3.53,3.29,3.29,3.28
201.18,7.73,4.50,7.72,4.49,-4.49,-4.69,-3.60,3.24,3.23,3.23
203.19,7.72,4.53,7.70,4.52,-4.52,-4.71,-3.67,3.20,3.18,3.19
205.23,7.71,4.58,7.67,4.54,-4.54,-4.72,-3.74,3.17,3.13,3.13
207.28,7.67,4.57,7.64,4.56,-4.56,-4.72,-3.80,3.11,3.09,3.10
209.35,7.63,4.59,7.61,4.57,-4.57,-4.72,-3.87,3.06,3.04,3.04
211.44,7.58,4.59,7.57,4.57,-4.57,-4.72,-3.94,3.01,3.00,2.99
213.56,7.53,4.58,7.52,4.57,-4.57,-4.71,-4.01,2.96,2.95,2.95
215.69,7.48,4.56,7.48,4.56,-4.56,-4.69,-4.07,2.91,2.91,2.92
217.85,7.41,4.53,7.43,4.55,-4.55,-4.67,-4.14,2.86,2.88,2.88
220.03,7.37,4.54,7.37,4.53,-4.53,-4.64,-4.20,2.84,2.84,2.83
222.23,7.31,4.51,7.32,4.51,-4.51,-4.61,-4.25,2.80,2.81,2.80
224.45,7.24,4.46,7.26,4.48,-4.48,-4.57,-4.31,2.76,2.78,2.77
226.70,7.18,4.43,7.20,4.45,-4.45,-4.53,-4.36,2.73,2.75,2.75
228.96,7.12,4.40,7.14,4.42,-4.42,-4.49,-4.40,2.70,2.72,2.72
231.25,7.08,4.37,7.08,4.38,-4.38,-4.44,-4.44,2.70,2.70,2.71
233.57,7.03,4.35,7.01,4.33,-4.33,-4.38,-4.47,2.70,2.68,2.68
235.90,6.96,4.30,6.95,4.28,-4.28,-4.33,-4.50,2.68,2.67,2.66
238.26,6.91,4.26,6.88,4.23,-4.23,-4.27,-4.52,2.68,2.65,2.65
240.64,6.83,4.19,6.82,4.18,-4.18,-4.20,-4.53,2.65,2.64,2.64
243.05,6.77,4.13,6.75,4.12,-4.12,-4.13,-4.53,2.65,2.64,2.64
245.48,6.69,4.06,6.68,4.05,-4.05,-4.06,-4.53,2.64,2.63,2.63
247.93,6.60,3.97,6.62,3.99,-3.99,-3.99,-4.52,2.61,2.63,2.63
250.41,6.54,3.92,6.55,3.92,-3.92,-3.91,-4.49,2.62,2.63,2.62
252.92,6.46,3.83,6.48,3.85,-3.85,-3.84,-4.46,2.61,2.63,2.63
255.45,6.40,3.76,6.41,3.78,-3.78,-3.76,-4.43,2.62,2.63,2.64
258.00,6.34,3.70,6.34,3.70,-3.70,-3.67,-4.38,2.64,2.64,2.64
260.58,6.27,3.62,6.28,3.63,-3.63,-3.59,-4.32,2.64,2.65,2.64
263.19,6.22,3.56,6.22,3.56,-3.56,-3.50,-4.26,2.66,2.66,2.66
265.82,6.15,3.49,6.16,3.49,-3.49,-3.42,-4.19,2.66,2.67,2.66
268.48,6.08,3.40,6.10,3.42,-3.42,-3.33,-4.11,2.66,2.68,2.68
271.16,6.03,3.33,6.04,3.35,-3.35,-3.24,-4.03,2.68,2.69,2.69
273.87,5.96,3.26,5.98,3.27,-3.27,-3.15,-3.94,2.68,2.70,2.70
276.61,5.91,3.19,5.91,3.20,-3.20,-3.06,-3.84,2.71,2.71,2.72
279.38,5.85,3.12,5.85,3.12,-3.12,-2.97,-3.74,2.73,2.73,2.73
282.17,5.80,3.06,5.78,3.04,-3.04,-2.87,-3.63,2.76,2.74,2.74
284.99,5.74,2.99,5.71,2.96,-2.96,-2.78,-3.52,2.78,2.75,2.75
287.84,5.66,2.90,5.63,2.87,-2.87,-2.68,-3.40,2.79,2.76,2.76
290.72,5.57,2.80,5.56,2.78,-2.78,-2.59,-3.29,2.79,2.78,2.77
293.63,5.48,2.69,5.48,2.69,-2.69,-2.49,-3.17,2.79,2.79,2.79
296.57,5.38,2.58,5.39,2.59,-2.59,-2.40,-3.04,2.79,2.80,2.80
299.53,5.29,2.48,5.30,2.49,-2.49,-2.30,-2.92,2.80,2.81,2.81
302.53,5.20,2.39,5.21,2.39,-2.39,-2.20,-2.79,2.81,2.82,2.81
305.55,5.10,2.26,5.11,2.27,-2.27,-2.10,-2.66,2.82,2.83,2.84
308.61,5.00,2.16,5.00,2.16,-2.16,-2.01,-2.53,2.84,2.84,2.84
311.69,4.90,2.05,4.89,2.04,-2.04,-1.91,-2.40,2.86,2.85,2.85
314.81,4.81,1.93,4.78,1.92,-1.92,-1.81,-2.27,2.89,2.86,2.88
317.96,4.70,1.83,4.67,1.80,-1.80,-1.71,-2.14,2.90,2.87,2.87
321.14,4.57,1.69,4.56,1.68,-1.68,-1.60,-2.01,2.89,2.88,2.88
324.35,4.42,1.54,4.44,1.56,-1.56,-1.50,-1.88,2.86,2.88,2.87
327.59,4.28,1.39,4.32,1.43,-1.43,-1.40,-1.75,2.85,2.89,2.89
330.87,4.18,1.29,4.19,1.30,-1.30,-1.29,-1.62,2.88,2.89,2.89
334.18,4.06,1.17,4.06,1.17,-1.17,-1.19,-1.49,2.89,2.89,2.88
337.52,3.92,1.03,3.93,1.03,-1.03,-1.08,-1.36,2.89,2.89,2.89
340.90,3.81,0.91,3.79,0.90,-0.90,-0.97,-1.24,2.91,2.89,2.90
344.30,3.66,0.76,3.65,0.76,-0.76,-0.86,-1.11,2.90,2.89,2.90
347.75,3.53,0.64,3.51,0.62,-0.62,-0.75,-0.98,2.91,2.89,2.89
351.23,3.38,0.49,3.36,0.48,-0.48,-0.63,-0.85,2.90,2.89,2.89
354.74,3.23,0.34,3.22,0.33,-0.33,-0.52,-0.73,2.90,2.88,2.89
358.28,3.07,0.19,3.07,0.19,-0.19,-0.40,-0.60,2.88,2.88,2.88
361.87,2.92,0.05,2.92,0.05,-0.05,-0.28,-0.48,2.87,2.87,2.87
365.49,2.76,-0.11,2.77,-0.10,0.10,-0.16,-0.35,2.85,2.87,2.87
369.14,2.61,-0.25,2.62,-0.24,0.24,-0.03,-0.23,2.85,2.86,2.86
372.83,2.49,-0.37,2.47,-0.38,0.38,0.09,-0.10,2.87,2.85,2.86
376.56,2.32,-0.53,2.32,-0.52,0.52,0.22,0.02,2.84,2.85,2.85
380.33,2.18,-0.66,2.18,-0.66,0.66,0.35,0.14,2.84,2.84,2.84
384.13,2.02,-0.81,2.03,-0.80,0.80,0.49,0.26,2.82,2.83,2.83
387.97,1.89,-0.93,1.89,-0.93,0.93,0.62,0.38,2.82,2.82,2.82
391.85,1.75,-1.06,1.75,-1.06,1.06,0.76,0.50,2.81,2.82,2.81
395.77,1.61,-1.21,1.62,-1.19,1.19,0.90,0.62,2.80,2.81,2.82
399.73,1.49,-1.32,1.49,-1.31,1.31,1.04,0.74,2.80,2.80,2.80
403.72,1.37,-1.42,1.37,-1.43,1.43,1.18,0.86,2.80,2.80,2.79
407.76,1.26,-1.52,1.25,-1.54,1.54,1.32,0.97,2.80,2.79,2.78
411.84,1.15,-1.64,1.13,-1.65,1.65,1.46,1.08,2.80,2.78,2.79
415.96,1.03,-1.75,1.03,-1.75,1.75,1.59,1.20,2.78,2.78,2.78
420.12,0.91,-1.87,0.93,-1.85,1.85,1.73,1.31,2.76,2.78,2.78
424.32,0.81,-1.97,0.83,-1.94,1.94,1.86,1.42,2.75,2.77,2.78
428.56,0.73,-2.04,0.75,-2.02,2.02,1.99,1.52,2.75,2.77,2.77
432.85,0.64,-2.12,0.66,-2.10,2.10,2.11,1.63,2.74,2.77,2.76
437.18,0.57,-2.19,0.59,-2.18,2.18,2.23,1.73,2.75,2.77,2.76
441.55,0.52,-2.25,0.51,-2.25,2.25,2.34,1.83,2.77,2.77,2.77
445.96,0.46,-2.31,0.44,-2.32,2.32,2.44,1.92,2.78,2.77,2.77
450.42,0.40,-2.36,0.38,-2.39,2.39,2.52,2.01,2.79,2.77,2.76
454.93,0.35,-2.42,0.32,-2.45,2.45,2.60,2.10,2.80,2.77,2.77
459.48,0.29,-2.48,0.27,-2.50,2.50,2.66,2.19,2.79,2.77,2.77
464.07,0.24,-2.54,0.22,-2.56,2.56,2.71,2.26,2.79,2.78,2.78
468.71,0.19,-2.60,0.18,-2.60,2.60,2.75,2.34,2.79,2.78,2.79
473.40,0.14,-2.65,0.14,-2.65,2.65,2.77,2.41,2.79,2.79,2.79
478.13,0.09,-2.71,0.10,-2.69,2.69,2.78,2.47,2.78,2.79,2.79
482.91,0.06,-2.74,0.07,-2.72,2.72,2.78,2.53,2.78,2.80,2.79
487.74,0.04,-2.76,0.05,-2.75,2.75,2.76,2.58,2.79,2.80,2.80
492.62,0.03,-2.78,0.04,-2.77,2.77,2.73,2.63,2.80,2.81,2.81
497.55,0.03,-2.78,0.03,-2.78,2.78,2.69,2.67,2.81,2.81,2.81
502.52,0.03,-2.79,0.03,-2.78,2.78,2.64,2.70,2.81,2.82,2.82
507.55,0.03,-2.79,0.04,-2.78,2.78,2.59,2.73,2.81,2.82,2.82
512.62,0.04,-2.78,0.06,-2.76,2.76,2.52,2.76,2.80,2.82,2.82
517.75,0.07,-2.76,0.09,-2.74,2.74,2.45,2.77,2.81,2.83,2.83
522.93,0.11,-2.72,0.12,-2.70,2.70,2.37,2.79,2.81,2.83,2.83
528.16,0.17,-2.66,0.16,-2.67,2.67,2.30,2.79,2.83,2.83,2.83
533.44,0.22,-2.61,0.20,-2.62,2.62,2.22,2.80,2.84,2.83,2.83
538.77,0.26,-2.57,0.25,-2.58,2.58,2.13,2.79,2.83,2.83,2.83
544.16,0.32,-2.51,0.30,-2.52,2.52,2.05,2.79,2.84,2.82,2.83
549.60,0.38,-2.45,0.36,-2.47,2.47,1.97,2.78,2.84,2.82,2.83
555.10,0.43,-2.39,0.41,-2.41,2.41,1.89,2.76,2.83,2.82,2.82
560.65,0.48,-2.34,0.47,-2.34,2.34,1.81,2.75,2.82,2.82,2.82
566.25,0.53,-2.30,0.54,-2.28,2.28,1.74,2.73,2.81,2.82,2.83
