frequency,raw,error,smoothed,error_smoothed,equalization,parametric_eq,fixed_band_eq,equalized_raw,equalized_smoothed,target
20.00,2.47,-3.12,2.47,-3.13,3.13,2.05,1.23,5.60,5.60,5.60
20.20,2.48,-3.10,2.48,-3.10,3.10,2.03,1.26,5.59,5.59,5.59
20.40,2.49,-3.08,2.50,-3.08,3.08,2.01,1.30,5.57,5.57,5.58
20.61,2.51,-3.05,2.51,-3.05,3.05,1.99,1.34,5.57,5.56,5.57
20.81,2.52,-3.02,2.52,-3.03,3.03,1.97,1.38,5.55,5.55,5.55
21.02,2.53,-3.00,2.53,-3.01,3.01,1.96,1.42,5.54,5.54,5.54
21.23,2.54,-2.98,2.54,-2.99,2.99,1.94,1.47,5.53,5.53,5.53
21.44,2.55,-2.98,2.55,-2.97,2.97,1.92,1.51,5.52,5.52,5.54
21.66,2.56,-2.95,2.57,-2.95,2.95,1.90,1.56,5.51,5.51,5.52
21.87,2.57,-2.94,2.58,-2.93,2.93,1.88,1.60,5.50,5.50,5.52
22.09,2.58,-2.91,2.59,-2.91,2.91,1.86,1.65,5.49,5.50,5.50
22.31,2.60,-2.88,2.60,-2.89,2.89,1.84,1.70,5.49,5.49,5.49
22.54,2.61,-2.86,2.61,-2.87,2.87,1.82,1.75,5.49,5.48,5.48
22.76,2.62,-2.85,2.62,-2.86,2.86,1.80,1.81,5.48,5.48,5.48
22.99,2.63,-2.83,2.63,-2.84,2.84,1.77,1.86,5.47,5.47,5.47
23.22,2.64,-2.81,2.64,-2.82,2.82,1.75,1.92,5.47,5.47,5.46
23.45,2.65,-2.81,2.65,-2.81,2.81,1.73,1.97,5.46,5.46,5.47
23.69,2.66,-2.79,2.66,-2.79,2.79,1.71,2.03,5.45,5.46,5.46
23.92,2.67,-2.77,2.67,-2.78,2.78,1.69,2.09,5.45,5.45,5.45
24.16,2.68,-2.77,2.68,-2.76,2.76,1.66,2.15,5.45,5.45,5.46
24.40,2.69,-2.76,2.69,-2.75,2.75,1.64,2.21,5.45,5.45,5.46
24.65,2.70,-2.74,2.70,-2.74,2.74,1.62,2.27,5.44,5.45,5.45
24.89,2.71,-2.73,2.71,-2.73,2.73,1.59,2.33,5.44,5.44,5.45
25.14,2.72,-2.71,2.72,-2.72,2.72,1.57,2.39,5.44,5.44,5.44
25.39,2.73,-2.70,2.73,-2.71,2.71,1.54,2.45,5.44,5.44,5.44
25.65,2.74,-2.69,2.74,-2.70,2.70,1.52,2.52,5.44,5.44,5.44
25.91,2.75,-2.68,2.75,-2.69,2.69,1.49,2.58,5.44,5.44,5.44
26.16,2.76,-2.68,2.76,-2.68,2.68,1.47,2.64,5.44,5.44,5.45
26.43,2.76,-2.67,2.77,-2.67,2.67,1.44,2.70,5.43,5.44,5.44
26.69,2.77,-2.66,2.78,-2.66,2.66,1.41,2.76,5.43,5.44,5.44
26.96,2.78,-2.65,2.78,-2.65,2.65,1.39,2.82,5.44,5.44,5.44
27.23,2.79,-2.64,2.79,-2.65,2.65,1.36,2.88,5.44,5.44,5.44
27.50,2.80,-2.63,2.80,-2.64,2.64,1.33,2.93,5.45,5.44,5.44
27.77,2.80,-2.64,2.81,-2.64,2.64,1.31,2.98,5.44,5.44,5.45
28.05,2.81,-2.62,2.81,-2.63,2.63,1.28,3.03,5.45,5.44,5.44
28.33,2.82,-2.62,2.82,-2.63,2.63,1.25,3.08,5.45,5.45,5.45
28.62,2.82,-2.62,2.83,-2.62,2.62,1.22,3.13,5.44,5.45,5.45
28.90,2.83,-2.62,2.83,-2.61,2.61,1.19,3.17,5.45,5.45,5.46
29.19,2.83,-2.62,2.84,-2.61,2.61,1.16,3.20,5.44,5.45,5.46
29.48,2.84,-2.60,2.85,-2.60,2.60,1.13,3.23,5.44,5.44,5.45
29.78,2.85,-2.59,2.85,-2.59,2.59,1.10,3.26,5.44,5.44,5.45
30.08,2.85,-2.59,2.86,-2.58,2.58,1.07,3.28,5.44,5.44,5.45
30.38,2.86,-2.56,2.86,-2.57,2.57,1.04,3.30,5.44,5.44,5.43
30.68,2.86,-2.56,2.87,-2.56,2.56,1.01,3.31,5.43,5.43,5.43
30.99,2.87,-2.55,2.87,-2.55,2.55,0.98,3.32,5.43,5.43,5.43
31.30,2.87,-2.55,2.88,-2.55,2.55,0.95,3.32,5.42,5.42,5.43
31.61,2.88,-2.53,2.88,-2.53,2.53,0.92,3.31,5.42,5.41,5.42
31.93,2.88,-2.51,2.88,-2.53,2.53,0.89,3.30,5.41,5.41,5.40
32.24,2.88,-2.52,2.88,-2.52,2.52,0.85,3.28,5.40,5.40,5.41
32.57,2.88,-2.50,2.88,-2.51,2.51,0.82,3.26,5.40,5.39,5.39
32.89,2.88,-2.50,2.88,-2.51,2.51,0.79,3.23,5.39,5.39,5.39
33.22,2.88,-2.49,2.87,-2.50,2.50,0.75,3.20,5.39,5.38,5.38
33.55,2.87,-2.50,2.87,-2.50,2.50,0.72,3.17,5.37,5.37,5.38
33.89,2.87,-2.49,2.87,-2.50,2.50,0.69,3.13,5.37,5.37,5.37
34.23,2.86,-2.48,2.86,-2.50,2.50,0.65,3.08,5.36,5.36,5.35
34.57,2.85,-2.49,2.86,-2.49,2.49,0.62,3.03,5.35,5.35,5.35
34.92,2.84,-2.48,2.85,-2.49,2.49,0.58,2.98,5.33,5.34,5.33
35.27,2.84,-2.50,2.84,-2.48,2.48,0.55,2.93,5.33,5.33,5.35
35.62,2.83,-2.48,2.84,-2.48,2.48,0.51,2.87,5.31,5.32,5.32
35.97,2.83,-2.48,2.84,-2.47,2.47,0.48,2.81,5.30,5.30,5.32
36.33,2.83,-2.46,2.84,-2.45,2.45,0.44,2.75,5.29,5.29,5.30
36.70,2.83,-2.44,2.83,-2.44,2.44,0.40,2.69,5.27,5.27,5.28
37.06,2.83,-2.42,2.83,-2.42,2.42,0.37,2.62,5.26,5.26,5.26
37.43,2.83,-2.40,2.84,-2.40,2.40,0.33,2.56,5.24,5.24,5.24
37.81,2.84,-2.38,2.84,-2.38,2.38,0.29,2.49,5.22,5.22,5.23
38.19,2.84,-2.35,2.85,-2.35,2.35,0.25,2.43,5.20,5.20,5.20
38.57,2.85,-2.32,2.85,-2.33,2.33,0.21,2.36,5.18,5.18,5.18
38.95,2.86,-2.30,2.86,-2.30,2.30,0.18,2.30,5.16,5.16,5.17
39.34,2.87,-2.26,2.87,-2.27,2.27,0.14,2.23,5.14,5.14,5.14
39.74,2.87,-2.23,2.88,-2.24,2.24,0.10,2.17,5.11,5.11,5.11
40.14,2.88,-2.20,2.89,-2.20,2.20,0.06,2.10,5.09,5.09,5.09
40.54,2.90,-2.16,2.90,-2.17,2.17,0.02,2.04,5.07,5.07,5.07
40.94,2.91,-2.12,2.91,-2.14,2.14,-0.02,1.98,5.05,5.05,5.04
41.35,2.92,-2.10,2.92,-2.10,2.10,-0.06,1.92,5.03,5.02,5.03
41.76,2.93,-2.06,2.93,-2.07,2.07,-0.11,1.85,5.00,5.00,5.00
42.18,2.95,-2.03,2.95,-2.03,2.03,-0.15,1.80,4.98,4.98,4.99
42.60,2.96,-1.99,2.96,-1.99,1.99,-0.19,1.74,4.96,4.95,4.96
43.03,2.97,-1.96,2.98,-1.95,1.95,-0.23,1.68,4.93,4.93,4.94
43.46,2.98,-1.91,2.99,-1.91,1.91,-0.27,1.63,4.90,4.90,4.90
43.90,3.00,-1.87,3.00,-1.87,1.87,-0.32,1.57,4.88,4.88,4.88
44.33,3.01,-1.83,3.02,-1.83,1.83,-0.36,1.52,4.85,4.85,4.85
44.78,3.03,-1.79,3.03,-1.79,1.79,-0.40,1.47,4.82,4.82,4.83
45.23,3.05,-1.75,3.05,-1.74,1.74,-0.45,1.42,4.79,4.79,4.81
45.68,3.06,-1.69,3.06,-1.69,1.69,-0.49,1.37,4.76,4.76,4.76
46.13,3.08,-1.64,3.08,-1.64,1.64,-0.53,1.32,4.73,4.72,4.73
46.60,3.09,-1.59,3.09,-1.59,1.59,-0.58,1.27,4.68,4.69,4.69
47.06,3.11,-1.54,3.11,-1.54,1.54,-0.62,1.23,4.65,4.65,4.66
47.53,3.12,-1.49,3.12,-1.48,1.48,-0.67,1.18,4.61,4.61,4.62
48.01,3.13,-1.43,3.14,-1.43,1.43,-0.71,1.14,4.56,4.57,4.57
48.49,3.14,-1.38,3.15,-1.38,1.38,-0.76,1.10,4.52,4.53,4.53
48.97,3.16,-1.31,3.16,-1.32,1.32,-0.81,1.06,4.49,4.49,4.48
49.46,3.17,-1.27,3.17,-1.27,1.27,-0.85,1.01,4.44,4.44,4.45
49.96,3.18,-1.20,3.18,-1.22,1.22,-0.90,0.98,4.40,4.40,4.39
50.46,3.19,-1.16,3.19,-1.17,1.17,-0.95,0.94,4.36,4.36,4.36
50.96,3.20,-1.11,3.19,-1.12,1.12,-1.00,0.90,4.33,4.32,4.32
51.47,3.20,-1.07,3.20,-1.08,1.08,-1.05,0.86,4.28,4.28,4.28
51.99,3.20,-1.02,3.20,-1.04,1.04,-1.09,0.83,4.24,4.23,4.23
52.51,3.20,-0.99,3.20,-0.99,0.99,-1.14,0.79,4.20,4.19,4.20
53.03,3.20,-0.96,3.20,-0.95,0.95,-1.19,0.76,4.15,4.15,4.17
53.56,3.19,-0.92,3.20,-0.91,0.91,-1.24,0.72,4.11,4.11,4.12
54.10,3.19,-0.87,3.20,-0.87,0.87,-1.29,0.69,4.07,4.07,4.07
54.64,3.18,-0.84,3.19,-0.84,0.84,-1.34,0.66,4.02,4.03,4.03
55.18,3.18,-0.80,3.19,-0.80,0.80,-1.39,0.62,3.99,3.99,3.99
55.74,3.18,-0.75,3.19,-0.77,0.77,-1.44,0.59,3.95,3.96,3.94
56.29,3.18,-0.73,3.19,-0.73,0.73,-1.49,0.56,3.91,3.92,3.92
56.86,3.18,-0.69,3.18,-0.69,0.69,-1.55,0.52,3.88,3.88,3.88
57.42,3.18,-0.64,3.18,-0.65,0.65,-1.60,0.49,3.84,3.83,3.83
58.00,3.18,-0.60,3.18,-0.61,0.61,-1.65,0.46,3.79,3.79,3.79
58.58,3.18,-0.57,3.18,-0.57,0.57,-1.70,0.43,3.75,3.75,3.76
59.16,3.18,-0.54,3.18,-0.52,0.52,-1.76,0.40,3.70,3.70,3.73
59.76,3.18,-0.49,3.18,-0.47,0.47,-1.81,0.36,3.66,3.66,3.68
60.35,3.18,-0.44,3.18,-0.43,0.43,-1.86,0.33,3.61,3.61,3.63
60.96,3.18,-0.38,3.18,-0.38,0.38,-1.92,0.30,3.56,3.56,3.57
61.57,3.18,-0.32,3.18,-0.32,0.32,-1.97,0.26,3.51,3.51,3.51
62.18,3.18,-0.26,3.18,-0.27,0.27,-2.02,0.23,3.46,3.46,3.45
62.80,3.18,-0.20,3.18,-0.22,0.22,-2.08,0.20,3.40,3.40,3.39
63.43,3.18,-0.15,3.18,-0.17,0.17,-2.13,0.16,3.35,3.35,3.34
64.07,3.18,-0.10,3.18,-0.11,0.11,-2.19,0.13,3.29,3.29,3.29
64.71,3.18,-0.05,3.18,-0.06,0.06,-2.25,0.09,3.24,3.24,3.24
65.35,3.18,0.01,3.18,-0.00,0.00,-2.30,0.06,3.18,3.18,3.18
66.01,3.18,0.06,3.18,0.05,-0.05,-2.36,0.02,3.13,3.13,3.13
66.67,3.18,0.10,3.18,0.11,-0.11,-2.41,-0.02,3.07,3.07,3.09
67.33,3.18,0.17,3.18,0.16,-0.16,-2.47,-0.05,3.02,3.02,3.02
68.01,3.18,0.22,3.18,0.22,-0.22,-2.53,-0.09,2.96,2.96,2.97
68.69,3.18,0.27,3.18,0.27,-0.27,-2.59,-0.13,2.91,2.91,2.92
69.37,3.18,0.32,3.18,0.33,-0.33,-2.64,-0.17,2.85,2.85,2.87
70.07,3.18,0.38,3.18,0.39,-0.39,-2.70,-0.21,2.80,2.80,2.81
70.77,3.18,0.45,3.18,0.44,-0.44,-2.76,-0.25,2.74,2.74,2.74
71.48,3.18,0.50,3.18,0.50,-0.50,-2.82,-0.29,2.68,2.68,2.69
72.19,3.18,0.56,3.18,0.56,-0.56,-2.88,-0.33,2.62,2.62,2.63
72.91,3.18,0.63,3.18,0.62,-0.62,-2.94,-0.37,2.57,2.57,2.56
73.64,3.18,0.68,3.18,0.67,-0.67,-3.00,-0.41,2.51,2.51,2.51
74.38,3.18,0.74,3.18,0.73,-0.73,-3.06,-0.46,2.45,2.45,2.45
75.12,3.18,0.79,3.18,0.78,-0.78,-3.12,-0.50,2.40,2.40,2.40
75.87,3.18,0.84,3.18,0.84,-0.84,-3.18,-0.55,2.35,2.35,2.35
76.63,3.18,0.90,3.18,0.89,-0.89,-3.24,-0.59,2.29,2.29,2.29
77.40,3.18,0.94,3.18,0.94,-0.94,-3.30,-0.64,2.24,2.24,2.25
78.17,3.18,1.00,3.18,0.99,-0.99,-3.36,-0.68,2.19,2.19,2.19
78.95,3.18,1.04,3.18,1.04,-1.04,-3.42,-0.73,2.14,2.14,2.15
79.74,3.18,1.09,3.18,1.09,-1.09,-3.48,-0.78,2.09,2.09,2.10
80.54,3.18,1.14,3.18,1.14,-1.14,-3.54,-0.83,2.04,2.04,2.05
81.35,3.18,1.20,3.18,1.19,-1.19,-3.60,-0.87,1.99,1.99,1.99
82.16,3.18,1.23,3.19,1.24,-1.24,-3.66,-0.92,1.94,1.94,1.96
82.98,3.18,1.29,3.19,1.30,-1.30,-3.73,-0.98,1.89,1.89,1.90
83.81,3.18,1.34,3.19,1.35,-1.35,-3.79,-1.03,1.83,1.84,1.85
84.65,3.18,1.40,3.19,1.41,-1.41,-3.85,-1.08,1.77,1.79,1.79
85.50,3.18,1.46,3.20,1.46,-1.46,-3.91,-1.13,1.72,1.73,1.73
86.35,3.19,1.52,3.20,1.52,-1.52,-3.98,-1.19,1.67,1.68,1.68
87.22,3.19,1.57,3.20,1.57,-1.57,-4.04,-1.24,1.62,1.62,1.63
88.09,3.20,1.64,3.19,1.62,-1.62,-4.10,-1.30,1.58,1.57,1.57
88.97,3.20,1.70,3.19,1.67,-1.67,-4.16,-1.36,1.53,1.51,1.51
89.86,3.19,1.74,3.18,1.72,-1.72,-4.23,-1.42,1.47,1.45,1.46
90.76,3.17,1.78,3.16,1.77,-1.77,-4.29,-1.47,1.40,1.39,1.40
91.66,3.16,1.84,3.15,1.81,-1.81,-4.35,-1.53,1.35,1.33,1.33
92.58,3.14,1.87,3.13,1.85,-1.85,-4.42,-1.60,1.29,1.27,1.28
93.51,3.11,1.89,3.10,1.89,-1.89,-4.48,-1.66,1.22,1.21,1.23
94.44,3.08,1.92,3.08,1.93,-1.93,-4.54,-1.72,1.16,1.15,1.17
95.39,3.05,1.96,3.05,1.96,-1.96,-4.61,-1.78,1.09,1.09,1.10
96.34,3.02,2.00,3.02,1.99,-1.99,-4.67,-1.85,1.03,1.03,1.03
97.30,2.99,2.03,2.99,2.02,-2.02,-4.74,-1.91,0.97,0.97,0.97
98.28,2.95,2.06,2.96,2.05,-2.05,-4.80,-1.98,0.90,0.91,0.90
99.26,2.92,2.09,2.94,2.09,-2.09,-4.86,-2.05,0.83,0.85,0.84
100.25,2.89,2.12,2.91,2.13,-2.13,-4.93,-2.12,0.77,0.79,0.78
101.25,2.87,2.15,2.89,2.17,-2.17,-4.99,-2.18,0.71,0.73,0.73
102.27,2.86,2.20,2.88,2.21,-2.21,-5.05,-2.25,0.66,0.67,0.67
103.29,2.85,2.25,2.86,2.25,-2.25,-5.12,-2.32,0.60,0.61,0.61
104.32,2.84,2.29,2.85,2.30,-2.30,-5.18,-2.39,0.54,0.55,0.56
105.37,2.84,2.35,2.85,2.35,-2.35,-5.25,-2.46,0.49,0.50,0.50
106.42,2.84,2.40,2.85,2.40,-2.40,-5.31,-2.53,0.44,0.44,0.45
107.48,2.84,2.46,2.84,2.46,-2.46,-5.37,-2.60,0.38,0.39,0.39
108.56,2.85,2.52,2.85,2.52,-2.52,-5.44,-2.66,0.34,0.33,0.34
109.64,2.86,2.59,2.85,2.58,-2.58,-5.50,-2.73,0.28,0.27,0.28
110.74,2.86,2.65,2.85,2.64,-2.64,-5.56,-2.80,0.22,0.21,0.22
111.85,2.86,2.71,2.86,2.70,-2.70,-5.63,-2.86,0.16,0.15,0.16
112.97,2.86,2.76,2.86,2.77,-2.77,-5.69,-2.93,0.10,0.09,0.11
114.10,2.86,2.82,2.87,2.83,-2.83,-5.75,-2.99,0.03,0.03,0.05
115.24,2.86,2.90,2.87,2.89,-2.89,-5.81,-3.05,-0.03,-0.02,-0.03
116.39,2.86,2.96,2.87,2.95,-2.95,-5.88,-3.11,-0.09,-0.08,-0.09
117.55,2.86,3.02,2.88,3.01,-3.01,-5.94,-3.16,-0.15,-0.14,-0.15
118.73,2.86,3.08,2.88,3.07,-3.07,-6.00,-3.22,-0.21,-0.20,-0.21
119.92,2.87,3.13,2.87,3.13,-3.13,-6.06,-3.27,-0.25,-0.25,-0.25
121.12,2.87,3.18,2.87,3.18,-3.18,-6.13,-3.32,-0.31,-0.31,-0.30
122.33,2.87,3.24,2.86,3.23,-3.23,-6.19,-3.36,-0.35,-0.37,-0.36
123.55,2.87,3.29,2.85,3.27,-3.27,-6.25,-3.41,-0.40,-0.42,-0.41
124.79,2.85,3.32,2.84,3.31,-3.31,-6.31,-3.45,-0.46,-0.48,-0.46
126.03,2.83,3.36,2.82,3.35,-3.35,-6.37,-3.49,-0.52,-0.53,-0.52
127.29,2.82,3.40,2.80,3.39,-3.39,-6.43,-3.52,-0.56,-0.59,-0.57
128.57,2.79,3.44,2.78,3.42,-3.42,-6.49,-3.56,-0.62,-0.64,-0.64
129.85,2.75,3.45,2.75,3.45,-3.45,-6.55,-3.59,-0.69,-0.69,-0.69
131.15,2.72,3.48,2.73,3.47,-3.47,-6.61,-3.62,-0.75,-0.75,-0.75
132.46,2.69,3.50,2.70,3.50,-3.50,-6.67,-3.64,-0.81,-0.80,-0.80
133.79,2.66,3.53,2.67,3.53,-3.53,-6.73,-3.67,-0.87,-0.86,-0.86
135.12,2.62,3.54,2.65,3.56,-3.56,-6.79,-3.69,-0.94,-0.91,-0.91
136.48,2.60,3.57,2.62,3.59,-3.59,-6.85,-3.71,-0.98,-0.97,-0.96
137.84,2.57,3.59,2.60,3.62,-3.62,-6.90,-3.73,-1.05,-1.02,-1.01
139.22,2.56,3.64,2.58,3.65,-3.65,-6.96,-3.75,-1.09,-1.07,-1.07
140.61,2.54,3.66,2.56,3.68,-3.68,-7.02,-3.77,-1.14,-1.12,-1.11
142.02,2.54,3.72,2.54,3.71,-3.71,-7.08,-3.79,-1.17,-1.16,-1.17
143.44,2.53,3.75,2.53,3.74,-3.74,-7.13,-3.81,-1.20,-1.21,-1.21
144.87,2.52,3.78,2.51,3.76,-3.76,-7.19,-3.83,-1.24,-1.26,-1.25
146.32,2.51,3.82,2.49,3.79,-3.79,-7.24,-3.85,-1.27,-1.30,-1.30
147.78,2.48,3.83,2.46,3.81,-3.81,-7.30,-3.87,-1.32,-1.35,-1.34
149.26,2.46,3.86,2.43,3.82,-3.82,-7.35,-3.89,-1.36,-1.39,-1.39
150.75,2.43,3.87,2.41,3.84,-3.84,-7.41,-3.92,-1.41,-1.43,-1.43
152.26,2.40,3.88,2.37,3.85,-3.85,-7.46,-3.94,-1.45,-1.48,-1.47
153.78,2.36,3.88,2.34,3.86,-3.86,-7.52,-3.97,-1.50,-1.52,-1.51
155.32,2.32,3.88,2.31,3.87,-3.87,-7.57,-3.99,-1.55,-1.56,-1.55
156.88,2.27,3.88,2.28,3.89,-3.89,-7.62,-4.02,-1.61,-1.61,-1.60
158.44,2.24,3.90,2.25,3.90,-3.90,-7.67,-4.06,-1.66,-1.65,-1.65
160.03,2.21,3.91,2.23,3.93,-3.93,-7.72,-4.09,-1.72,-1.69,-1.69
161.63,2.19,3.93,2.22,3.96,-3.96,-7.77,-4.13,-1.77,-1.74,-1.73
163.24,2.18,3.97,2.22,4.00,-4.00,-7.82,-4.17,-1.82,-1.79,-1.78
164.88,2.19,4.03,2.22,4.05,-4.05,-7.87,-4.21,-1.86,-1.83,-1.83
166.53,2.21,4.10,2.24,4.11,-4.11,-7.92,-4.26,-1.90,-1.88,-1.88
168.19,2.24,4.16,2.26,4.19,-4.19,-7.97,-4.31,-1.94,-1.93,-1.91
169.87,2.29,4.27,2.30,4.27,-4.27,-8.02,-4.36,-1.98,-1.97,-1.97
171.57,2.35,4.38,2.35,4.37,-4.37,-8.06,-4.42,-2.02,-2.02,-2.02
173.29,2.40,4.47,2.41,4.48,-4.48,-8.11,-4.48,-2.07,-2.07,-2.06
175.02,2.48,4.60,2.48,4.59,-4.59,-8.15,-4.54,-2.11,-2.11,-2.11
176.77,2.54,4.71,2.55,4.71,-4.71,-8.20,-4.61,-2.17,-2.16,-2.16
178.54,2.62,4.83,2.63,4.84,-4.84,-8.24,-4.68,-2.21,-2.21,-2.20
180.32,2.70,4.97,2.71,4.97,-4.97,-8.28,-4.76,-2.26,-2.25,-2.26
182.13,2.78,5.08,2.80,5.10,-5.10,-8.33,-4.83,-2.31,-2.30,-2.29
183.95,2.91,5.26,2.89,5.23,-5.23,-8.37,-4.91,-2.32,-2.35,-2.34
185.79,3.00,5.40,2.97,5.37,-5.37,-8.41,-5.00,-2.36,-2.39,-2.39
187.65,3.08,5.52,3.06,5.50,-5.50,-8.45,-5.09,-2.42,-2.44,-2.43
189.52,3.16,5.64,3.15,5.63,-5.63,-8.49,-5.18,-2.47,-2.48,-2.47
191.42,3.24,5.76,3.24,5.76,-5.76,-8.53,-5.27,-2.52,-2.52,-2.51
193.33,3.32,5.88,3.33,5.89,-5.89,-8.57,-5.37,-2.57,-2.56,-2.55
195.27,3.41,6.02,3.42,6.02,-6.02,-8.60,-5.47,-2.61,-2.60,-2.60
197.22,3.49,6.15,3.50,6.14,-6.14,-8.64,-5.57,-2.65,-2.64,-2.65
199.19,3.57,6.26,3.59,6.27,-6.27,-8.67,-5.68,-2.69,-2.68,-2.68
201.18,3.66,6.39,3.67,6.38,-6.38,-8.71,-5.78,-2.72,-2.71,-2.72
203.19,3.74,6.50,3.75,6.50,-6.50,-8.74,-5.89,-2.75,-2.75,-2.75
205.23,3.81,6.59,3.82,6.60,-6.60,-8.78,-6.00,-2.79,-2.78,-2.77
207.28,3.88,6.69,3.89,6.70,-6.70,-8.81,-6.12,-2.82,-2.81,-2.80
209.35,3.95,6.80,3.95,6.80,-6.80,-8.84,-6.23,-2.84,-2.84,-2.84
211.44,4.01,6.89,4.01,6.88,-6.88,-8.87,-6.34,-2.87,-2.87,-2.87
213.56,4.06,6.96,4.05,6.96,-6.96,-8.90,-6.45,-2.89,-2.90,-2.89
215.69,4.11,7.04,4.09,7.02,-7.02,-8.93,-6.56,-2.91,-2.93,-2.92
217.85,4.15,7.11,4.12,7.07,-7.07,-8.96,-6.67,-2.92,-2.95,-2.95
220.03,4.16,7.15,4.13,7.11,-7.11,-8.98,-6.78,-2.95,-2.98,-2.98
222.23,4.17,7.19,4.14,7.15,-7.15,-9.01,-6.88,-2.97,-3.00,-3.01
224.45,4.16,7.19,4.14,7.17,-7.17,-9.03,-6.99,-3.01,-3.03,-3.02
226.70,4.14,7.20,4.14,7.18,-7.18,-9.06,-7.08,-3.04,-3.05,-3.05
228.96,4.11,7.18,4.12,7.19,-7.19,-9.08,-7.17,-3.07,-3.07,-3.06
231.25,4.08,7.17,4.10,7.18,-7.18,-9.10,-7.26,-3.10,-3.09,-3.08
233.57,4.05,7.16,4.07,7.17,-7.17,-9.12,-7.33,-3.12,-3.10,-3.10
235.90,4.00,7.12,4.03,7.15,-7.15,-9.14,-7.40,-3.15,-3.12,-3.11
238.26,3.98,7.13,3.99,7.12,-7.12,-9.16,-7.47,-3.14,-3.13,-3.14
240.64,3.96,7.10,3.96,7.10,-7.10,-9.18,-7.52,-3.13,-3.14,-3.13
243.05,3.92,7.08,3.92,7.07,-7.07,-9.20,-7.56,-3.14,-3.15,-3.15
245.48,3.88,7.05,3.88,7.04,-7.04,-9.21,-7.59,-3.15,-3.16,-3.16
247.93,3.83,7.01,3.84,7.01,-7.01,-9.23,-7.62,-3.17,-3.17,-3.17
250.41,3.80,6.97,3.81,6.98,-6.98,-9.24,-7.63,-3.17,-3.17,-3.16
252.92,3.75,6.93,3.77,6.95,-6.95,-9.26,-7.63,-3.19,-3.18,-3.17
255.45,3.72,6.91,3.74,6.92,-6.92,-9.27,-7.63,-3.20,-3.18,-3.18
258.00,3.69,6.88,3.71,6.89,-6.89,-9.28,-7.61,-3.20,-3.19,-3.18
260.58,3.66,6.85,3.68,6.86,-6.86,-9.29,-7.58,-3.20,-3.19,-3.18
263.19,3.65,6.84,3.65,6.84,-6.84,-9.30,-7.54,-3.18,-3.19,-3.18
265.82,3.61,6.81,3.62,6.81,-6.81,-9.31,-7.50,-3.20,-3.19,-3.19
268.48,3.59,6.79,3.59,6.78,-6.78,-9.32,-7.44,-3.19,-3.20,-3.19
271.16,3.57,6.77,3.56,6.76,-6.76,-9.33,-7.38,-3.18,-3.20,-3.19
273.87,3.53,6.73,3.53,6.73,-6.73,-9.33,-7.32,-3.20,-3.20,-3.19
276.61,3.50,6.70,3.50,6.70,-6.70,-9.34,-7.24,-3.20,-3.20,-3.19
279.38,3.48,6.70,3.48,6.68,-6.68,-9.34,-7.16,-3.19,-3.20,-3.21
282.17,3.45,6.67,3.45,6.65,-6.65,-9.34,-7.08,-3.20,-3.20,-3.21
284.99,3.42,6.63,3.42,6.62,-6.62,-9.34,-7.00,-3.20,-3.20,-3.20
287.84,3.39,6.59,3.39,6.59,-6.59,-9.35,-6.91,-3.20,-3.20,-3.19
290.72,3.36,6.57,3.36,6.56,-6.56,-9.34,-6.82,-3.19,-3.20,-3.20
293.63,3.33,6.53,3.34,6.53,-6.53,-9.34,-6.73,-3.20,-3.19,-3.19
296.57,3.30,6.49,3.31,6.50,-6.50,-9.34,-6.64,-3.20,-3.19,-3.18
299.53,3.27,6.46,3.29,6.47,-6.47,-9.34,-6.55,-3.20,-3.18,-3.18
302.53,3.25,6.42,3.26,6.44,-6.44,-9.34,-6.46,-3.19,-3.18,-3.16
305.55,3.22,6.40,3.24,6.41,-6.41,-9.33,-6.37,-3.19,-3.17,-3.17
308.61,3.21,6.38,3.22,6.38,-6.38,-9.32,-6.28,-3.17,-3.16,-3.16
311.69,3.19,6.35,3.20,6.35,-6.35,-9.32,-6.19,-3.16,-3.16,-3.15
314.81,3.18,6.34,3.17,6.32,-6.32,-9.31,-6.11,-3.14,-3.15,-3.15
317.96,3.16,6.31,3.15,6.29,-6.29,-9.30,-6.03,-3.13,-3.14,-3.14
321.14,3.14,6.28,3.13,6.26,-6.26,-9.29,-5.95,-3.12,-3.13,-3.13
324.35,3.12,6.26,3.11,6.23,-6.23,-9.28,-5.88,-3.11,-3.13,-3.13
327.59,3.09,6.20,3.08,6.20,-6.20,-9.27,-5.81,-3.11,-3.12,-3.10
330.87,3.07,6.19,3.06,6.17,-6.17,-9.26,-5.74,-3.10,-3.11,-3.11
334.18,3.04,6.15,3.03,6.14,-6.14,-9.25,-5.68,-3.10,-3.10,-3.10
337.52,3.00,6.11,3.01,6.11,-6.11,-9.23,-5.62,-3.10,-3.10,-3.10
340.90,2.97,6.06,2.99,6.07,-6.07,-9.22,-5.56,-3.10,-3.09,-3.08
344.30,2.94,6.02,2.96,6.04,-6.04,-9.20,-5.51,-3.10,-3.08,-3.07
347.75,2.92,6.00,2.94,6.01,-6.01,-9.19,-5.46,-3.09,-3.07,-3.07
351.23,2.90,5.98,2.92,5.98,-5.98,-9.17,-5.42,-3.08,-3.06,-3.07
354.74,2.89,5.94,2.89,5.95,-5.95,-9.15,-5.38,-3.06,-3.06,-3.04
358.28,2.86,5.92,2.87,5.92,-5.92,-9.13,-5.34,-3.06,-3.05,-3.05
361.87,2.85,5.90,2.85,5.89,-5.89,-9.11,-5.31,-3.04,-3.04,-3.04
365.49,2.83,5.87,2.82,5.86,-5.86,-9.09,-5.28,-3.03,-3.03,-3.03
369.14,2.81,5.83,2.80,5.83,-5.83,-9.07,-5.26,-3.01,-3.02,-3.01
372.83,2.80,5.82,2.78,5.79,-5.79,-9.05,-5.24,-2.99,-3.02,-3.01
376.56,2.76,5.78,2.75,5.76,-5.76,-9.03,-5.23,-3.00,-3.01,-3.01
380.33,2.74,5.75,2.73,5.73,-5.73,-9.00,-5.21,-2.98,-3.00,-3.00
384.13,2.71,5.70,2.70,5.69,-5.69,-8.98,-5.20,-2.98,-2.99,-2.98
387.97,2.67,5.66,2.68,5.66,-5.66,-8.95,-5.20,-2.99,-2.98,-2.98
391.85,2.64,5.62,2.66,5.63,-5.63,-8.93,-5.20,-2.98,-2.97,-2.97
395.77,2.61,5.58,2.63,5.59,-5.59,-8.90,-5.20,-2.98,-2.96,-2.96
399.73,2.59,5.55,2.61,5.56,-5.56,-8.87,-5.20,-2.97,-2.95,-2.95
403.72,2.57,5.50,2.59,5.53,-5.53,-8.85,-5.21,-2.96,-2.94,-2.92
407.76,2.55,5.49,2.57,5.50,-5.50,-8.82,-5.22,-2.95,-2.93,-2.93
411.84,2.54,5.47,2.55,5.47,-5.47,-8.79,-5.23,-2.93,-2.92,-2.92
415.96,2.53,5.44,2.53,5.44,-5.44,-8.76,-5.24,-2.91,-2.91,-2.90
420.12,2.51,5.42,2.51,5.41,-5.41,-8.73,-5.26,-2.90,-2.90,-2.90
424.32,2.50,5.40,2.49,5.38,-5.38,-8.70,-5.27,-2.88,-2.89,-2.89
428.56,2.49,5.37,2.46,5.35,-5.35,-8.67,-5.29,-2.85,-2.88,-2.87
432.85,2.46,5.33,2.44,5.32,-5.32,-8.64,-5.30,-2.85,-2.87,-2.86
437.18,2.43,5.31,2.42,5.28,-5.28,-8.60,-5.32,-2.85,-2.87,-2.87
441.55,2.40,5.27,2.39,5.25,-5.25,-8.57,-5.34,-2.85,-2.86,-2.86
445.96,2.36,5.22,2.37,5.22,-5.22,-8.54,-5.35,-2.85,-2.85,-2.85
450.42,2.32,5.17,2.34,5.18,-5.18,-8.50,-5.36,-2.86,-2.84,-2.84
454.93,2.30,5.14,2.32,5.15,-5.15,-8.47,-5.37,-2.85,-2.83,-2.83
459.48,2.27,5.10,2.29,5.11,-5.11,-8.43,-5.38,-2.84,-2.82,-2.82
464.07,2.25,5.06,2.27,5.08,-5.08,-8.40,-5.39,-2.83,-2.81,-2.80
468.71,2.24,5.04,2.24,5.04,-5.04,-8.36,-5.39,-2.80,-2.80,-2.79
473.40,2.21,5.01,2.21,5.01,-5.01,-8.32,-5.39,-2.80,-2.79,-2.79
478.13,2.19,4.98,2.19,4.97,-4.97,-8.29,-5.38,-2.78,-2.78,-2.78
482.91,2.16,4.94,2.17,4.94,-4.94,-8.25,-5.37,-2.78,-2.77,-2.77
487.74,2.15,4.92,2.14,4.90,-4.90,-8.21,-5.36,-2.75,-2.76,-2.76
492.62,2.13,4.89,2.12,4.87,-4.87,-8.17,-5.34,-2.74,-2.75,-2.75
497.55,2.10,4.85,2.10,4.83,-4.83,-8.13,-5.31,-2.73,-2.74,-2.74
502.52,2.07,4.81,2.07,4.80,-4.80,-8.09,-5.28,-2.72,-2.73,-2.73
507.55,2.04,4.76,2.04,4.76,-4.76,-8.06,-5.25,-2.72,-2.72,-2.71
512.62,2.01,4.72,2.02,4.72,-4.72,-8.02,-5.21,-2.71,-2.70,-2.70
