frequency,raw,error,smoothed,error_smoothed,equalization,parametric_eq,fixed_band_eq,equalized_raw,equalized_smoothed,target
20.00,2.99,-3.86,2.99,-3.87,3.87,3.80,1.55,6.86,6.86,6.85
20.20,2.97,-3.87,2.96,-3.88,3.88,3.80,1.59,6.85,6.84,6.84
20.40,2.95,-3.88,2.95,-3.88,3.88,3.80,1.64,6.83,6.83,6.83
20.61,2.93,-3.89,2.93,-3.89,3.89,3.79,1.69,6.82,6.82,6.82
20.81,2.92,-3.88,2.92,-3.89,3.89,3.79,1.74,6.81,6.81,6.80
21.02,2.91,-3.88,2.91,-3.89,3.89,3.79,1.80,6.80,6.80,6.79
21.23,2.90,-3.88,2.91,-3.88,3.88,3.78,1.85,6.78,6.79,6.78
21.44,2.90,-3.89,2.90,-3.87,3.87,3.78,1.90,6.77,6.78,6.79
21.66,2.90,-3.87,2.90,-3.87,3.87,3.77,1.96,6.77,6.77,6.77
21.87,2.90,-3.87,2.91,-3.85,3.85,3.77,2.02,6.75,6.76,6.77
22.09,2.91,-3.84,2.91,-3.84,3.84,3.76,2.08,6.75,6.75,6.75
22.31,2.92,-3.82,2.92,-3.82,3.82,3.76,2.14,6.74,6.75,6.74
22.54,2.93,-3.80,2.94,-3.80,3.80,3.75,2.21,6.73,6.74,6.73
22.76,2.95,-3.78,2.95,-3.78,3.78,3.75,2.27,6.73,6.73,6.73
22.99,2.97,-3.75,2.98,-3.75,3.75,3.74,2.34,6.72,6.73,6.72
23.22,2.99,-3.72,3.00,-3.72,3.72,3.73,2.41,6.71,6.72,6.71
23.45,3.02,-3.70,3.02,-3.69,3.69,3.73,2.48,6.71,6.72,6.72
23.69,3.05,-3.66,3.05,-3.66,3.66,3.72,2.55,6.71,6.71,6.71
23.92,3.08,-3.62,3.08,-3.63,3.63,3.71,2.62,6.71,6.71,6.70
24.16,3.11,-3.60,3.11,-3.59,3.59,3.70,2.69,6.70,6.71,6.71
24.40,3.14,-3.57,3.14,-3.56,3.56,3.69,2.77,6.70,6.70,6.71
24.65,3.17,-3.53,3.17,-3.53,3.53,3.69,2.84,6.70,6.70,6.70
24.89,3.20,-3.50,3.19,-3.51,3.51,3.68,2.92,6.71,6.70,6.70
25.14,3.22,-3.47,3.22,-3.48,3.48,3.67,3.00,6.70,6.70,6.69
25.39,3.25,-3.44,3.23,-3.46,3.46,3.66,3.07,6.71,6.70,6.69
25.65,3.27,-3.42,3.25,-3.45,3.45,3.65,3.15,6.72,6.70,6.69
25.91,3.28,-3.41,3.26,-3.43,3.43,3.64,3.23,6.71,6.69,6.69
26.16,3.29,-3.41,3.27,-3.42,3.42,3.63,3.30,6.71,6.69,6.70
26.43,3.29,-3.40,3.28,-3.42,3.42,3.62,3.38,6.71,6.69,6.69
26.69,3.28,-3.41,3.28,-3.42,3.42,3.60,3.45,6.70,6.69,6.69
26.96,3.27,-3.42,3.28,-3.42,3.42,3.59,3.53,6.69,6.69,6.69
27.23,3.26,-3.43,3.28,-3.42,3.42,3.58,3.60,6.68,6.70,6.69
27.50,3.26,-3.43,3.27,-3.42,3.42,3.57,3.66,6.68,6.70,6.69
27.77,3.26,-3.44,3.27,-3.43,3.43,3.56,3.73,6.69,6.70,6.70
28.05,3.26,-3.43,3.27,-3.43,3.43,3.54,3.79,6.69,6.70,6.69
28.33,3.26,-3.44,3.26,-3.44,3.44,3.53,3.85,6.70,6.70,6.70
28.62,3.26,-3.44,3.26,-3.44,3.44,3.52,3.91,6.70,6.70,6.70
28.90,3.26,-3.45,3.26,-3.44,3.44,3.50,3.96,6.70,6.70,6.71
29.19,3.26,-3.45,3.26,-3.44,3.44,3.49,4.00,6.70,6.70,6.71
29.48,3.26,-3.44,3.26,-3.44,3.44,3.47,4.04,6.70,6.70,6.70
29.78,3.26,-3.44,3.26,-3.44,3.44,3.46,4.08,6.70,6.70,6.70
30.08,3.26,-3.44,3.26,-3.44,3.44,3.44,4.11,6.70,6.70,6.70
30.38,3.26,-3.42,3.26,-3.43,3.43,3.43,4.13,6.69,6.69,6.68
30.68,3.26,-3.42,3.26,-3.43,3.43,3.41,4.15,6.69,6.69,6.68
30.99,3.26,-3.42,3.26,-3.42,3.42,3.39,4.16,6.68,6.68,6.68
31.30,3.26,-3.42,3.26,-3.42,3.42,3.38,4.16,6.68,6.68,6.68
31.61,3.26,-3.41,3.26,-3.41,3.41,3.36,4.16,6.67,6.67,6.67
31.93,3.26,-3.39,3.26,-3.40,3.40,3.34,4.15,6.66,6.66,6.65
32.24,3.26,-3.40,3.26,-3.39,3.39,3.32,4.13,6.65,6.66,6.66
32.57,3.26,-3.38,3.26,-3.39,3.39,3.31,4.11,6.65,6.65,6.64
32.89,3.26,-3.38,3.26,-3.38,3.38,3.29,4.09,6.64,6.64,6.64
33.22,3.26,-3.37,3.26,-3.38,3.38,3.27,4.05,6.64,6.64,6.63
33.55,3.26,-3.37,3.26,-3.37,3.37,3.25,4.01,6.63,6.63,6.63
33.89,3.26,-3.36,3.25,-3.37,3.37,3.23,3.97,6.63,6.62,6.62
34.23,3.26,-3.34,3.25,-3.36,3.36,3.21,3.92,6.62,6.61,6.60
34.57,3.26,-3.34,3.25,-3.36,3.36,3.19,3.87,6.62,6.60,6.60
34.92,3.26,-3.32,3.25,-3.35,3.35,3.16,3.81,6.61,6.59,6.58
35.27,3.25,-3.35,3.25,-3.34,3.34,3.14,3.75,6.59,6.58,6.60
35.62,3.24,-3.33,3.25,-3.33,3.33,3.12,3.69,6.57,6.57,6.57
35.97,3.24,-3.33,3.25,-3.31,3.31,3.10,3.63,6.55,6.56,6.57
36.33,3.24,-3.31,3.26,-3.29,3.29,3.08,3.56,6.53,6.55,6.55
36.70,3.25,-3.28,3.27,-3.26,3.26,3.05,3.49,6.51,6.53,6.53
37.06,3.27,-3.24,3.28,-3.23,3.23,3.03,3.42,6.50,6.51,6.51
37.43,3.29,-3.20,3.30,-3.20,3.20,3.00,3.35,6.49,6.50,6.49
37.81,3.31,-3.17,3.32,-3.16,3.16,2.98,3.28,6.47,6.48,6.48
38.19,3.34,-3.11,3.34,-3.11,3.11,2.95,3.21,6.45,6.46,6.45
38.57,3.37,-3.06,3.37,-3.06,3.06,2.93,3.14,6.43,6.44,6.43
38.95,3.40,-3.02,3.40,-3.01,3.01,2.90,3.07,6.41,6.41,6.42
39.34,3.43,-2.96,3.43,-2.96,2.96,2.88,3.00,6.39,6.39,6.39
39.74,3.46,-2.90,3.46,-2.91,2.91,2.85,2.93,6.37,6.37,6.36
40.14,3.49,-2.85,3.49,-2.86,2.86,2.82,2.87,6.35,6.35,6.34
40.54,3.52,-2.80,3.51,-2.81,2.81,2.79,2.80,6.33,6.32,6.32
40.94,3.55,-2.74,3.54,-2.77,2.77,2.77,2.73,6.32,6.30,6.29
41.35,3.57,-2.71,3.56,-2.72,2.72,2.74,2.67,6.30,6.28,6.28
41.76,3.59,-2.66,3.57,-2.69,2.69,2.71,2.61,6.28,6.26,6.25
42.18,3.60,-2.64,3.58,-2.65,2.65,2.68,2.55,6.25,6.23,6.24
42.60,3.61,-2.60,3.59,-2.62,2.62,2.65,2.49,6.23,6.21,6.21
43.03,3.61,-2.58,3.60,-2.59,2.59,2.62,2.43,6.20,6.19,6.19
43.46,3.60,-2.55,3.60,-2.56,2.56,2.59,2.37,6.16,6.16,6.15
43.90,3.60,-2.53,3.60,-2.53,2.53,2.56,2.32,6.13,6.14,6.13
44.33,3.59,-2.51,3.60,-2.50,2.50,2.52,2.27,6.09,6.11,6.10
44.78,3.59,-2.49,3.60,-2.48,2.48,2.49,2.21,6.07,6.08,6.08
45.23,3.59,-2.47,3.60,-2.45,2.45,2.46,2.17,6.04,6.05,6.06
45.68,3.59,-2.42,3.60,-2.42,2.42,2.43,2.12,6.01,6.01,6.01
46.13,3.59,-2.39,3.59,-2.38,2.38,2.39,2.07,5.97,5.98,5.98
46.60,3.59,-2.35,3.59,-2.35,2.35,2.36,2.03,5.94,5.94,5.94
47.06,3.59,-2.32,3.59,-2.31,2.31,2.32,1.99,5.90,5.90,5.91
47.53,3.59,-2.28,3.59,-2.28,2.28,2.29,1.95,5.87,5.86,5.87
48.01,3.59,-2.23,3.59,-2.24,2.24,2.25,1.91,5.83,5.82,5.82
48.49,3.59,-2.19,3.59,-2.20,2.20,2.22,1.87,5.79,5.78,5.78
48.97,3.59,-2.14,3.59,-2.15,2.15,2.18,1.83,5.74,5.74,5.73
49.46,3.59,-2.11,3.59,-2.11,2.11,2.14,1.80,5.70,5.70,5.70
49.96,3.59,-2.05,3.59,-2.07,2.07,2.11,1.77,5.66,5.66,5.64
50.46,3.59,-2.02,3.59,-2.03,2.03,2.07,1.73,5.62,5.62,5.61
50.96,3.59,-1.98,3.59,-1.98,1.98,2.03,1.70,5.57,5.57,5.57
51.47,3.59,-1.94,3.59,-1.94,1.94,1.99,1.67,5.53,5.53,5.53
51.99,3.59,-1.89,3.59,-1.90,1.90,1.95,1.64,5.49,5.49,5.48
52.51,3.59,-1.86,3.59,-1.86,1.86,1.91,1.61,5.45,5.45,5.45
53.03,3.59,-1.83,3.59,-1.82,1.82,1.87,1.59,5.41,5.41,5.42
53.56,3.59,-1.78,3.59,-1.78,1.78,1.83,1.56,5.37,5.37,5.37
54.10,3.59,-1.73,3.59,-1.74,1.74,1.79,1.53,5.33,5.33,5.32
54.64,3.59,-1.69,3.59,-1.70,1.70,1.75,1.51,5.29,5.29,5.28
55.18,3.59,-1.65,3.59,-1.66,1.66,1.71,1.48,5.25,5.25,5.24
55.74,3.59,-1.60,3.59,-1.62,1.62,1.66,1.45,5.21,5.21,5.19
56.29,3.59,-1.58,3.59,-1.58,1.58,1.62,1.43,5.17,5.17,5.17
56.86,3.59,-1.54,3.59,-1.54,1.54,1.58,1.40,5.13,5.13,5.13
57.42,3.59,-1.49,3.59,-1.50,1.50,1.53,1.37,5.09,5.09,5.08
58.00,3.59,-1.45,3.59,-1.46,1.46,1.49,1.34,5.05,5.05,5.04
58.58,3.59,-1.42,3.59,-1.41,1.41,1.44,1.31,5.00,5.00,5.01
59.16,3.59,-1.39,3.59,-1.37,1.37,1.40,1.28,4.96,4.96,4.98
59.76,3.59,-1.34,3.59,-1.32,1.32,1.35,1.25,4.91,4.91,4.93
60.35,3.59,-1.29,3.59,-1.27,1.27,1.31,1.22,4.86,4.86,4.88
60.96,3.59,-1.23,3.59,-1.23,1.23,1.26,1.19,4.82,4.82,4.82
61.57,3.59,-1.17,3.59,-1.17,1.17,1.21,1.16,4.76,4.76,4.76
62.18,3.59,-1.11,3.59,-1.12,1.12,1.17,1.12,4.71,4.71,4.70
62.80,3.59,-1.05,3.59,-1.07,1.07,1.12,1.09,4.66,4.66,4.64
63.43,3.59,-1.00,3.59,-1.01,1.01,1.07,1.05,4.60,4.60,4.59
64.07,3.59,-0.95,3.59,-0.96,0.96,1.02,1.01,4.55,4.55,4.54
64.71,3.59,-0.90,3.59,-0.91,0.91,0.97,0.97,4.50,4.50,4.49
65.35,3.59,-0.84,3.59,-0.85,0.85,0.92,0.93,4.44,4.44,4.43
66.01,3.59,-0.79,3.59,-0.79,0.79,0.87,0.89,4.38,4.38,4.38
66.67,3.59,-0.75,3.59,-0.74,0.74,0.82,0.84,4.33,4.33,4.34
67.33,3.59,-0.68,3.59,-0.69,0.69,0.77,0.80,4.28,4.28,4.27
68.01,3.59,-0.63,3.59,-0.63,0.63,0.72,0.75,4.22,4.22,4.22
68.69,3.59,-0.58,3.59,-0.58,0.58,0.67,0.70,4.17,4.17,4.17
69.37,3.59,-0.53,3.59,-0.52,0.52,0.62,0.66,4.11,4.11,4.12
70.07,3.59,-0.47,3.59,-0.46,0.46,0.57,0.61,4.05,4.05,4.06
70.77,3.59,-0.40,3.59,-0.41,0.41,0.51,0.56,4.00,4.00,3.99
71.48,3.59,-0.35,3.59,-0.35,0.35,0.46,0.50,3.94,3.94,3.94
72.19,3.59,-0.29,3.59,-0.29,0.29,0.41,0.45,3.88,3.88,3.88
72.91,3.59,-0.22,3.59,-0.23,0.23,0.35,0.40,3.82,3.82,3.81
73.64,3.59,-0.17,3.59,-0.18,0.18,0.30,0.35,3.77,3.77,3.76
74.38,3.59,-0.11,3.59,-0.12,0.12,0.25,0.29,3.71,3.71,3.70
75.12,3.59,-0.06,3.59,-0.07,0.07,0.19,0.24,3.66,3.66,3.65
75.87,3.59,-0.01,3.59,-0.01,0.01,0.14,0.18,3.60,3.60,3.60
76.63,3.59,0.05,3.59,0.04,-0.04,0.08,0.12,3.55,3.55,3.54
77.40,3.59,0.09,3.59,0.09,-0.09,0.03,0.07,3.50,3.50,3.50
78.17,3.59,0.15,3.59,0.14,-0.14,-0.03,0.01,3.45,3.45,3.44
78.95,3.59,0.19,3.59,0.19,-0.19,-0.09,-0.05,3.40,3.40,3.40
79.74,3.59,0.24,3.59,0.24,-0.24,-0.14,-0.11,3.35,3.35,3.35
80.54,3.59,0.29,3.59,0.29,-0.29,-0.20,-0.17,3.30,3.30,3.30
81.35,3.59,0.35,3.59,0.34,-0.34,-0.26,-0.22,3.25,3.25,3.24
82.16,3.59,0.38,3.59,0.39,-0.39,-0.31,-0.28,3.20,3.20,3.21
82.98,3.59,0.44,3.59,0.44,-0.44,-0.37,-0.34,3.15,3.15,3.15
83.81,3.59,0.49,3.59,0.49,-0.49,-0.43,-0.41,3.10,3.10,3.10
84.65,3.59,0.55,3.59,0.55,-0.55,-0.49,-0.47,3.04,3.04,3.04
85.50,3.59,0.61,3.59,0.60,-0.60,-0.54,-0.53,2.99,2.99,2.98
86.35,3.59,0.66,3.59,0.66,-0.66,-0.60,-0.59,2.93,2.93,2.93
87.22,3.59,0.71,3.59,0.71,-0.71,-0.66,-0.65,2.88,2.88,2.88
88.09,3.59,0.77,3.59,0.77,-0.77,-0.72,-0.72,2.82,2.82,2.82
88.97,3.59,0.83,3.59,0.82,-0.82,-0.78,-0.78,2.77,2.77,2.76
89.86,3.59,0.88,3.59,0.88,-0.88,-0.83,-0.84,2.71,2.71,2.71
90.76,3.59,0.94,3.59,0.94,-0.94,-0.89,-0.91,2.65,2.65,2.65
91.66,3.59,1.01,3.59,1.00,-1.00,-0.95,-0.97,2.59,2.59,2.58
92.58,3.59,1.06,3.59,1.06,-1.06,-1.01,-1.04,2.53,2.53,2.53
93.51,3.59,1.11,3.59,1.12,-1.12,-1.07,-1.11,2.47,2.47,2.48
94.44,3.59,1.17,3.59,1.18,-1.18,-1.13,-1.17,2.41,2.41,2.42
95.39,3.59,1.24,3.59,1.24,-1.24,-1.19,-1.24,2.35,2.35,2.35
96.34,3.59,1.31,3.59,1.31,-1.31,-1.25,-1.31,2.28,2.29,2.28
97.30,3.59,1.37,3.59,1.37,-1.37,-1.31,-1.38,2.22,2.22,2.22
98.28,3.59,1.44,3.60,1.44,-1.44,-1.36,-1.45,2.15,2.16,2.15
99.26,3.59,1.50,3.60,1.50,-1.50,-1.42,-1.51,2.09,2.10,2.09
100.25,3.59,1.56,3.60,1.56,-1.56,-1.48,-1.58,2.03,2.04,2.03
101.25,3.59,1.61,3.60,1.62,-1.62,-1.54,-1.65,1.97,1.98,1.98
102.27,3.60,1.68,3.60,1.68,-1.68,-1.60,-1.72,1.92,1.93,1.92
103.29,3.61,1.75,3.60,1.73,-1.73,-1.66,-1.79,1.88,1.87,1.86
104.32,3.61,1.80,3.60,1.79,-1.79,-1.72,-1.86,1.82,1.81,1.81
105.37,3.61,1.86,3.59,1.84,-1.84,-1.78,-1.93,1.77,1.75,1.75
106.42,3.60,1.90,3.58,1.88,-1.88,-1.84,-2.00,1.72,1.70,1.70
107.48,3.58,1.94,3.56,1.92,-1.92,-1.90,-2.07,1.66,1.64,1.64
108.56,3.56,1.97,3.55,1.96,-1.96,-1.95,-2.13,1.60,1.58,1.59
109.64,3.53,2.00,3.53,2.00,-2.00,-2.01,-2.20,1.53,1.53,1.53
110.74,3.51,2.04,3.50,2.03,-2.03,-2.07,-2.26,1.48,1.47,1.47
111.85,3.48,2.07,3.47,2.06,-2.06,-2.13,-2.33,1.42,1.41,1.41
112.97,3.44,2.08,3.44,2.09,-2.09,-2.19,-2.39,1.35,1.35,1.36
114.10,3.41,2.11,3.41,2.12,-2.12,-2.24,-2.45,1.29,1.29,1.30
115.24,3.38,2.16,3.38,2.15,-2.15,-2.30,-2.51,1.23,1.23,1.22
116.39,3.35,2.19,3.36,2.18,-2.18,-2.36,-2.56,1.17,1.18,1.16
117.55,3.32,2.22,3.34,2.22,-2.22,-2.42,-2.61,1.10,1.12,1.10
118.73,3.30,2.26,3.32,2.26,-2.26,-2.47,-2.67,1.04,1.06,1.04
119.92,3.28,2.28,3.30,2.30,-2.30,-2.53,-2.71,0.98,1.00,1.00
121.12,3.26,2.31,3.29,2.34,-2.34,-2.58,-2.76,0.92,0.95,0.95
122.33,3.25,2.36,3.28,2.39,-2.39,-2.64,-2.80,0.86,0.89,0.89
123.55,3.25,2.41,3.27,2.43,-2.43,-2.70,-2.85,0.82,0.84,0.84
124.79,3.26,2.47,3.26,2.48,-2.48,-2.75,-2.88,0.78,0.78,0.79
126.03,3.27,2.54,3.26,2.53,-2.53,-2.80,-2.92,0.74,0.73,0.73
127.29,3.27,2.59,3.25,2.58,-2.58,-2.86,-2.95,0.69,0.67,0.68
128.57,3.27,2.66,3.24,2.62,-2.62,-2.91,-2.98,0.65,0.62,0.61
129.85,3.25,2.69,3.22,2.66,-2.66,-2.97,-3.01,0.59,0.56,0.56
131.15,3.23,2.73,3.21,2.70,-2.70,-3.02,-3.03,0.53,0.51,0.50
132.46,3.20,2.75,3.19,2.73,-2.73,-3.07,-3.06,0.46,0.45,0.45
133.79,3.18,2.79,3.16,2.77,-2.77,-3.12,-3.08,0.41,0.40,0.39
135.12,3.15,2.81,3.14,2.79,-2.79,-3.18,-3.10,0.36,0.34,0.34
136.48,3.11,2.82,3.10,2.81,-2.81,-3.23,-3.11,0.30,0.29,0.29
137.84,3.08,2.84,3.07,2.83,-2.83,-3.28,-3.13,0.25,0.24,0.24
139.22,3.05,2.87,3.04,2.85,-2.85,-3.33,-3.14,0.20,0.19,0.18
140.61,3.01,2.87,3.01,2.87,-2.87,-3.38,-3.16,0.14,0.14,0.14
142.02,2.97,2.89,2.98,2.89,-2.89,-3.43,-3.17,0.08,0.09,0.08
143.44,2.95,2.91,2.96,2.92,-2.92,-3.48,-3.18,0.03,0.05,0.04
144.87,2.93,2.93,2.95,2.95,-2.95,-3.52,-3.20,-0.02,-0.00,0.00
146.32,2.92,2.97,2.94,2.99,-2.99,-3.57,-3.21,-0.07,-0.04,-0.05
147.78,2.92,3.01,2.94,3.03,-3.03,-3.62,-3.23,-0.11,-0.09,-0.09
149.26,2.93,3.07,2.95,3.09,-3.09,-3.66,-3.24,-0.16,-0.13,-0.14
150.75,2.95,3.13,2.97,3.15,-3.15,-3.71,-3.26,-0.20,-0.18,-0.18
152.26,2.99,3.21,3.00,3.22,-3.22,-3.76,-3.27,-0.23,-0.22,-0.22
153.78,3.04,3.30,3.03,3.29,-3.29,-3.80,-3.29,-0.25,-0.26,-0.26
155.32,3.08,3.38,3.07,3.38,-3.38,-3.84,-3.31,-0.30,-0.31,-0.30
156.88,3.12,3.47,3.12,3.47,-3.47,-3.89,-3.33,-0.35,-0.35,-0.35
158.44,3.17,3.57,3.18,3.57,-3.57,-3.93,-3.36,-0.40,-0.39,-0.40
160.03,3.22,3.66,3.24,3.68,-3.68,-3.97,-3.38,-0.46,-0.44,-0.44
161.63,3.29,3.77,3.30,3.78,-3.78,-4.01,-3.41,-0.49,-0.48,-0.48
163.24,3.36,3.89,3.36,3.89,-3.89,-4.05,-3.44,-0.53,-0.53,-0.53
164.88,3.43,4.01,3.43,4.01,-4.01,-4.09,-3.47,-0.58,-0.58,-0.58
166.53,3.50,4.13,3.49,4.12,-4.12,-4.13,-3.51,-0.62,-0.62,-0.63
168.19,3.57,4.23,3.56,4.23,-4.23,-4.17,-3.55,-0.66,-0.67,-0.66
169.87,3.63,4.35,3.62,4.33,-4.33,-4.20,-3.59,-0.70,-0.72,-0.72
171.57,3.69,4.46,3.67,4.44,-4.44,-4.24,-3.63,-0.75,-0.76,-0.77
173.29,3.73,4.54,3.73,4.54,-4.54,-4.28,-3.68,-0.81,-0.81,-0.81
175.02,3.78,4.64,3.77,4.63,-4.63,-4.31,-3.73,-0.85,-0.86,-0.86
176.77,3.82,4.73,3.81,4.72,-4.72,-4.34,-3.78,-0.90,-0.90,-0.91
178.54,3.86,4.81,3.85,4.80,-4.80,-4.38,-3.83,-0.94,-0.95,-0.95
180.32,3.89,4.90,3.87,4.87,-4.87,-4.41,-3.89,-0.98,-1.00,-1.01
182.13,3.91,4.95,3.89,4.94,-4.94,-4.44,-3.95,-1.03,-1.04,-1.04
183.95,3.92,5.01,3.91,5.00,-5.00,-4.47,-4.02,-1.08,-1.09,-1.09
185.79,3.93,5.07,3.92,5.06,-5.06,-4.50,-4.08,-1.13,-1.13,-1.14
187.65,3.93,5.11,3.93,5.11,-5.11,-4.53,-4.15,-1.18,-1.18,-1.18
189.52,3.94,5.16,3.94,5.16,-5.16,-4.56,-4.22,-1.22,-1.22,-1.22
191.42,3.93,5.19,3.94,5.21,-5.21,-4.59,-4.30,-1.28,-1.26,-1.26
193.33,3.92,5.22,3.94,5.25,-5.25,-4.61,-4.37,-1.33,-1.31,-1.30
195.27,3.91,5.26,3.94,5.29,-5.29,-4.64,-4.45,-1.38,-1.34,-1.35
197.22,3.92,5.32,3.94,5.32,-5.32,-4.66,-4.54,-1.40,-1.38,-1.40
199.19,3.93,5.36,3.93,5.35,-5.35,-4.69,-4.62,-1.42,-1.42,-1.43
201.18,3.94,5.41,3.93,5.38,-5.38,-4.71,-4.70,-1.44,-1.46,-1.47
203.19,3.93,5.43,3.92,5.41,-5.41,-4.73,-4.79,-1.48,-1.49,-1.50
205.23,3.92,5.44,3.90,5.43,-5.43,-4.75,-4.88,-1.51,-1.52,-1.52
207.28,3.91,5.46,3.89,5.45,-5.45,-4.77,-4.97,-1.54,-1.56,-1.55
209.35,3.89,5.48,3.88,5.46,-5.46,-4.79,-5.06,-1.57,-1.59,-1.59
211.44,3.87,5.49,3.86,5.48,-5.48,-4.81,-5.14,-1.61,-1.62,-1.62
213.56,3.84,5.48,3.84,5.48,-5.48,-4.83,-5.23,-1.64,-1.65,-1.64
215.69,3.81,5.48,3.82,5.49,-5.49,-4.84,-5.32,-1.68,-1.67,-1.67
217.85,3.78,5.48,3.79,5.49,-5.49,-4.86,-5.40,-1.71,-1.70,-1.70
220.03,3.75,5.48,3.76,5.49,-5.49,-4.87,-5.49,-1.74,-1.72,-1.73
222.23,3.72,5.48,3.74,5.48,-5.48,-4.89,-5.57,-1.76,-1.75,-1.76
224.45,3.70,5.47,3.71,5.48,-5.48,-4.90,-5.65,-1.78,-1.77,-1.77
226.70,3.68,5.48,3.68,5.47,-5.47,-4.91,-5.72,-1.79,-1.79,-1.80
228.96,3.66,5.47,3.65,5.46,-5.46,-4.92,-5.79,-1.81,-1.81,-1.81
231.25,3.63,5.46,3.63,5.46,-5.46,-4.93,-5.85,-1.83,-1.83,-1.83
233.57,3.60,5.45,3.60,5.45,-5.45,-4.94,-5.91,-1.85,-1.85,-1.85
235.90,3.57,5.43,3.57,5.43,-5.43,-4.95,-5.96,-1.86,-1.86,-1.86
238.26,3.55,5.44,3.55,5.42,-5.42,-4.95,-6.01,-1.87,-1.87,-1.89
240.64,3.52,5.40,3.53,5.41,-5.41,-4.96,-6.05,-1.89,-1.88,-1.88
243.05,3.50,5.40,3.50,5.40,-5.40,-4.97,-6.08,-1.90,-1.89,-1.90
245.48,3.48,5.39,3.48,5.38,-5.38,-4.97,-6.10,-1.90,-1.90,-1.91
247.93,3.45,5.37,3.45,5.36,-5.36,-4.97,-6.12,-1.91,-1.91,-1.92
250.41,3.43,5.34,3.43,5.34,-5.34,-4.98,-6.12,-1.91,-1.92,-1.91
252.92,3.40,5.32,3.40,5.32,-5.32,-4.98,-6.12,-1.92,-1.92,-1.92
255.45,3.37,5.30,3.38,5.30,-5.30,-4.98,-6.11,-1.93,-1.92,-1.93
258.00,3.35,5.28,3.35,5.28,-5.28,-4.98,-6.09,-1.93,-1.93,-1.93
260.58,3.33,5.26,3.33,5.26,-5.26,-4.98,-6.06,-1.93,-1.93,-1.93
263.19,3.31,5.24,3.30,5.24,-5.24,-4.98,-6.03,-1.93,-1.93,-1.93
265.82,3.28,5.22,3.28,5.21,-5.21,-4.97,-5.99,-1.93,-1.94,-1.94
268.48,3.25,5.19,3.25,5.19,-5.19,-4.97,-5.94,-1.94,-1.94,-1.94
271.16,3.22,5.16,3.22,5.17,-5.17,-4.96,-5.89,-1.95,-1.94,-1.94
273.87,3.19,5.13,3.20,5.14,-5.14,-4.96,-5.83,-1.95,-1.94,-1.94
276.61,3.17,5.11,3.17,5.12,-5.12,-4.95,-5.77,-1.95,-1.94,-1.94
279.38,3.15,5.11,3.14,5.09,-5.09,-4.95,-5.70,-1.94,-1.95,-1.96
282.17,3.13,5.09,3.11,5.06,-5.06,-4.94,-5.63,-1.93,-1.94,-1.96
284.99,3.10,5.05,3.09,5.03,-5.03,-4.93,-5.55,-1.93,-1.94,-1.95
287.84,3.07,5.01,3.06,5.00,-5.00,-4.92,-5.48,-1.93,-1.94,-1.94
290.72,3.04,4.99,3.03,4.97,-4.97,-4.91,-5.40,-1.93,-1.94,-1.95
293.63,3.01,4.95,3.01,4.95,-4.95,-4.90,-5.32,-1.94,-1.94,-1.94
296.57,2.98,4.91,2.99,4.92,-4.92,-4.89,-5.24,-1.94,-1.93,-1.93
299.53,2.96,4.89,2.97,4.90,-4.90,-4.87,-5.16,-1.94,-1.93,-1.93
302.53,2.94,4.85,2.96,4.88,-4.88,-4.86,-5.08,-1.94,-1.92,-1.91
305.55,2.93,4.85,2.95,4.86,-4.86,-4.85,-5.00,-1.93,-1.91,-1.92
308.61,2.92,4.83,2.94,4.84,-4.84,-4.83,-4.92,-1.92,-1.91,-1.91
311.69,2.92,4.82,2.93,4.83,-4.83,-4.82,-4.84,-1.91,-1.90,-1.90
314.81,2.92,4.82,2.93,4.82,-4.82,-4.80,-4.76,-1.90,-1.89,-1.90
317.96,2.93,4.82,2.93,4.82,-4.82,-4.78,-4.69,-1.89,-1.89,-1.89
321.14,2.94,4.82,2.94,4.81,-4.81,-4.76,-4.62,-1.87,-1.88,-1.88
324.35,2.94,4.82,2.94,4.81,-4.81,-4.75,-4.55,-1.87,-1.87,-1.88
327.59,2.94,4.79,2.94,4.81,-4.81,-4.73,-4.48,-1.87,-1.86,-1.85
330.87,2.95,4.81,2.95,4.80,-4.80,-4.71,-4.42,-1.85,-1.86,-1.86
334.18,2.96,4.81,2.95,4.80,-4.80,-4.69,-4.35,-1.84,-1.85,-1.85
337.52,2.96,4.81,2.95,4.79,-4.79,-4.66,-4.30,-1.83,-1.84,-1.85
340.90,2.96,4.79,2.94,4.77,-4.77,-4.64,-4.24,-1.81,-1.83,-1.83
344.30,2.95,4.77,2.93,4.76,-4.76,-4.62,-4.19,-1.81,-1.82,-1.82
347.75,2.94,4.76,2.92,4.74,-4.74,-4.60,-4.14,-1.80,-1.82,-1.82
351.23,2.92,4.74,2.91,4.72,-4.72,-4.57,-4.09,-1.80,-1.81,-1.82
354.74,2.89,4.68,2.89,4.69,-4.69,-4.55,-4.05,-1.80,-1.80,-1.79
358.28,2.87,4.67,2.87,4.66,-4.66,-4.52,-4.01,-1.79,-1.79,-1.80
361.87,2.84,4.63,2.85,4.63,-4.63,-4.50,-3.97,-1.79,-1.79,-1.79
365.49,2.81,4.59,2.82,4.60,-4.60,-4.47,-3.94,-1.79,-1.78,-1.78
369.14,2.78,4.54,2.79,4.56,-4.56,-4.44,-3.90,-1.78,-1.77,-1.76
372.83,2.76,4.52,2.76,4.52,-4.52,-4.42,-3.88,-1.76,-1.76,-1.76
376.56,2.74,4.50,2.73,4.48,-4.48,-4.39,-3.85,-1.74,-1.75,-1.76
380.33,2.71,4.46,2.70,4.44,-4.44,-4.36,-3.83,-1.73,-1.74,-1.75
384.13,2.68,4.41,2.67,4.40,-4.40,-4.33,-3.81,-1.72,-1.73,-1.73
387.97,2.64,4.37,2.64,4.37,-4.37,-4.30,-3.79,-1.73,-1.72,-1.73
391.85,2.61,4.33,2.61,4.33,-4.33,-4.27,-3.78,-1.72,-1.71,-1.72
395.77,2.57,4.28,2.59,4.29,-4.29,-4.24,-3.77,-1.72,-1.70,-1.71
399.73,2.54,4.24,2.56,4.25,-4.25,-4.21,-3.76,-1.71,-1.69,-1.70
403.72,2.51,4.18,2.53,4.21,-4.21,-4.18,-3.75,-1.70,-1.68,-1.67
407.76,2.49,4.17,2.50,4.17,-4.17,-4.15,-3.74,-1.68,-1.67,-1.68
411.84,2.47,4.14,2.47,4.13,-4.13,-4.12,-3.74,-1.66,-1.66,-1.67
415.96,2.46,4.11,2.44,4.09,-4.09,-4.08,-3.73,-1.63,-1.65,-1.65
420.12,2.43,4.08,2.40,4.05,-4.05,-4.05,-3.73,-1.62,-1.65,-1.65
424.32,2.40,4.04,2.37,4.01,-4.01,-4.02,-3.73,-1.61,-1.64,-1.64
428.56,2.36,3.98,2.34,3.97,-3.97,-3.98,-3.73,-1.61,-1.63,-1.62
432.85,2.31,3.92,2.31,3.92,-3.92,-3.95,-3.73,-1.61,-1.62,-1.61
437.18,2.27,3.89,2.28,3.88,-3.88,-3.92,-3.73,-1.61,-1.61,-1.62
441.55,2.23,3.84,2.24,3.85,-3.85,-3.88,-3.73,-1.62,-1.60,-1.61
445.96,2.19,3.79,2.21,3.81,-3.81,-3.85,-3.73,-1.62,-1.59,-1.60
450.42,2.15,3.74,2.18,3.76,-3.76,-3.81,-3.73,-1.61,-1.58,-1.59
454.93,2.13,3.71,2.15,3.72,-3.72,-3.77,-3.73,-1.59,-1.57,-1.58
459.48,2.11,3.68,2.12,3.68,-3.68,-3.74,-3.72,-1.57,-1.57,-1.57
464.07,2.09,3.64,2.08,3.64,-3.64,-3.70,-3.72,-1.55,-1.56,-1.55
468.71,2.07,3.61,2.06,3.60,-3.60,-3.67,-3.71,-1.53,-1.55,-1.54
473.40,2.05,3.59,2.03,3.57,-3.57,-3.63,-3.70,-1.52,-1.54,-1.54
478.13,2.02,3.55,2.01,3.53,-3.53,-3.59,-3.69,-1.51,-1.53,-1.53
482.91,1.99,3.51,1.98,3.50,-3.50,-3.56,-3.67,-1.51,-1.52,-1.52
487.74,1.96,3.47,1.96,3.47,-3.47,-3.52,-3.66,-1.51,-1.50,-1.51
492.62,1.92,3.42,1.94,3.43,-3.43,-3.48,-3.64,-1.51,-1.49,-1.50
497.55,1.89,3.38,1.91,3.40,-3.40,-3.44,-3.61,-1.51,-1.48,-1.49
502.52,1.87,3.35,1.89,3.36,-3.36,-3.40,-3.59,-1.49,-1.47,-1.48
507.55,1.85,3.31,1.86,3.32,-3.32,-3.37,-3.56,-1.47,-1.46,-1.46
512.62,1.84,3.29,1.83,3.27,-3.27,-3.33,-3.53,-1.43,-1.45,-1.45
517.75,1.82,3.25,1.79,3.23,-3.23,-3.29,-3.49,-1.41,-1.43,-1.43
522.93,1.79,3.21,1.76,3.18,-3.18,-3.25,-3.45,-1.39,-1.42,-1.42
