frequency,raw,error,smoothed,error_smoothed,equalization,parametric_eq,fixed_band_eq,equalized_raw,equalized_smoothed,target
20.00,-16.11,-16.86,-16.11,-16.86,16.85,16.44,6.35,0.74,0.74,0.75
20.20,-15.97,-16.77,-15.97,-16.77,16.76,16.40,6.50,0.79,0.80,0.80
20.40,-15.83,-16.68,-15.83,-16.67,16.67,16.35,6.65,0.84,0.85,0.85
20.61,-15.69,-16.57,-15.69,-16.57,16.58,16.29,6.80,0.89,0.89,0.88
20.81,-15.55,-16.48,-15.55,-16.48,16.48,16.23,6.96,0.94,0.93,0.93
21.02,-15.41,-16.38,-15.41,-16.37,16.38,16.17,7.13,0.98,0.97,0.97
21.23,-15.29,-16.28,-15.29,-16.28,16.28,16.09,7.29,1.00,1.00,0.99
21.44,-15.17,-16.18,-15.17,-16.18,16.18,16.02,7.47,1.02,1.01,1.01
21.66,-15.06,-16.09,-15.05,-16.08,16.08,15.94,7.64,1.02,1.03,1.03
21.87,-14.94,-15.98,-14.94,-15.98,15.98,15.85,7.83,1.04,1.04,1.04
22.09,-14.82,-15.88,-14.82,-15.88,15.87,15.76,8.01,1.05,1.05,1.06
22.31,-14.70,-15.77,-14.70,-15.76,15.76,15.67,8.20,1.06,1.06,1.07
22.54,-14.58,-15.65,-14.58,-15.65,15.65,15.57,8.40,1.07,1.07,1.07
22.76,-14.46,-15.53,-14.46,-15.53,15.53,15.47,8.60,1.07,1.07,1.07
22.99,-14.35,-15.41,-14.34,-15.40,15.41,15.36,8.81,1.06,1.07,1.06
23.22,-14.22,-15.28,-14.22,-15.28,15.29,15.25,9.03,1.07,1.07,1.06
23.45,-14.09,-15.15,-14.10,-15.16,15.16,15.14,9.25,1.07,1.06,1.06
23.69,-13.97,-15.04,-13.97,-15.03,15.02,15.03,9.47,1.05,1.05,1.07
23.92,-13.84,-14.91,-13.83,-14.90,14.88,14.91,9.70,1.04,1.05,1.07
24.16,-13.70,-14.77,-13.70,-14.77,14.74,14.79,9.94,1.05,1.05,1.07
24.40,-13.55,-14.63,-13.54,-14.62,14.61,14.67,10.19,1.07,1.07,1.08
24.65,-13.40,-14.47,-13.39,-14.46,14.49,14.55,10.44,1.09,1.10,1.07
24.89,-13.25,-14.32,-13.26,-14.33,14.38,14.42,10.70,1.13,1.12,1.07
25.14,-13.15,-14.22,-13.15,-14.23,14.27,14.29,10.96,1.12,1.11,1.07
25.39,-13.08,-14.16,-13.08,-14.15,14.16,14.16,11.23,1.09,1.09,1.08
25.65,-13.01,-14.09,-13.01,-14.08,14.06,14.03,11.51,1.06,1.06,1.08
25.91,-12.94,-14.01,-12.93,-14.00,13.97,13.90,11.79,1.03,1.04,1.07
26.16,-12.83,-13.90,-12.83,-13.89,13.87,13.77,12.08,1.04,1.04,1.07
26.43,-12.70,-13.77,-12.71,-13.77,13.76,13.63,12.37,1.06,1.06,1.07
26.69,-12.58,-13.65,-12.58,-13.65,13.65,13.50,12.67,1.07,1.07,1.07
26.96,-12.45,-13.52,-12.45,-13.52,13.52,13.36,12.97,1.07,1.07,1.07
27.23,-12.32,-13.39,-12.32,-13.39,13.39,13.22,13.27,1.07,1.07,1.07
27.50,-12.18,-13.25,-12.18,-13.24,13.25,13.08,13.58,1.07,1.07,1.07
27.77,-12.04,-13.10,-12.04,-13.10,13.11,12.95,13.88,1.07,1.07,1.06
28.05,-11.90,-12.96,-11.90,-12.96,12.97,12.81,14.18,1.07,1.07,1.06
28.33,-11.77,-12.82,-11.77,-12.82,12.82,12.67,14.47,1.05,1.05,1.05
28.62,-11.63,-12.68,-11.63,-12.68,12.67,12.53,14.75,1.04,1.04,1.05
28.90,-11.50,-12.56,-11.49,-12.54,12.52,12.39,15.01,1.02,1.03,1.06
29.19,-11.34,-12.39,-11.34,-12.39,12.37,12.24,15.26,1.04,1.04,1.05
29.48,-11.18,-12.24,-11.17,-12.23,12.23,12.10,15.49,1.06,1.06,1.06
29.78,-11.01,-12.06,-11.01,-12.07,12.10,11.96,15.68,1.09,1.08,1.05
30.08,-10.86,-11.92,-10.87,-11.93,11.96,11.82,15.84,1.10,1.09,1.06
30.38,-10.76,-11.81,-10.76,-11.81,11.83,11.68,15.96,1.07,1.07,1.05
30.68,-10.66,-11.71,-10.66,-11.71,11.70,11.54,16.04,1.04,1.05,1.05
30.99,-10.56,-11.61,-10.55,-11.60,11.58,11.40,16.08,1.02,1.03,1.05
31.30,-10.44,-11.48,-10.44,-11.48,11.46,11.25,16.07,1.02,1.02,1.04
31.61,-10.31,-11.35,-10.31,-11.35,11.34,11.11,16.01,1.03,1.03,1.04
31.93,-10.18,-11.22,-10.18,-11.22,11.22,10.97,15.90,1.04,1.04,1.04
32.24,-10.05,-11.08,-10.05,-11.09,11.09,10.83,15.75,1.05,1.04,1.03
32.57,-9.93,-10.96,-9.92,-10.95,10.96,10.69,15.56,1.03,1.04,1.03
32.89,-9.80,-10.83,-9.80,-10.82,10.83,10.54,15.34,1.03,1.03,1.03
33.22,-9.67,-10.69,-9.67,-10.69,10.69,10.40,15.09,1.03,1.02,1.02
33.55,-9.55,-10.57,-9.55,-10.56,10.56,10.26,14.82,1.01,1.01,1.02
33.89,-9.42,-10.43,-9.42,-10.43,10.41,10.12,14.53,1.00,1.00,1.01
34.23,-9.28,-10.29,-9.28,-10.28,10.27,9.98,14.22,0.99,0.99,1.01
34.57,-9.13,-10.13,-9.13,-10.13,10.13,9.84,13.90,1.00,1.00,1.00
34.92,-8.98,-9.98,-8.98,-9.98,9.98,9.70,13.58,1.00,1.00,1.00
35.27,-8.83,-9.82,-8.83,-9.82,9.83,9.55,13.25,1.00,1.00,0.99
35.62,-8.69,-9.68,-8.69,-9.68,9.69,9.41,12.92,1.00,1.00,0.99
35.97,-8.55,-9.54,-8.55,-9.54,9.55,9.27,12.59,1.00,1.00,0.99
36.33,-8.43,-9.42,-8.42,-9.41,9.41,9.13,12.26,0.99,0.99,0.99
36.70,-8.30,-9.28,-8.30,-9.28,9.28,8.99,11.94,0.98,0.98,0.98
37.06,-8.18,-9.16,-8.17,-9.16,9.15,8.85,11.62,0.98,0.98,0.98
37.43,-8.05,-9.04,-8.05,-9.03,9.03,8.71,11.30,0.99,0.99,0.99
37.81,-7.92,-8.91,-7.92,-8.91,8.91,8.57,10.99,0.99,0.99,0.99
38.19,-7.80,-8.78,-7.80,-8.79,8.79,8.43,10.68,0.99,0.99,0.98
38.57,-7.68,-8.67,-7.67,-8.66,8.67,8.29,10.38,0.99,0.99,0.99
38.95,-7.55,-8.55,-7.55,-8.54,8.54,8.15,10.09,0.99,0.99,1.00
39.34,-7.43,-8.42,-7.43,-8.42,8.41,8.01,9.80,0.98,0.98,0.99
39.74,-7.30,-8.29,-7.30,-8.29,8.27,7.87,9.52,0.97,0.97,0.99
40.14,-7.16,-8.15,-7.15,-8.14,8.13,7.73,9.24,0.97,0.98,0.99
40.54,-7.00,-7.99,-7.00,-7.99,7.99,7.59,8.97,0.99,0.99,0.99
40.94,-6.84,-7.82,-6.85,-7.83,7.85,7.45,8.70,1.01,1.00,0.98
41.35,-6.71,-7.69,-6.71,-7.68,7.70,7.31,8.44,0.99,1.00,0.98
41.76,-6.58,-7.55,-6.57,-7.55,7.56,7.17,8.19,0.98,0.98,0.97
42.18,-6.45,-7.42,-6.45,-7.42,7.42,7.03,7.94,0.97,0.97,0.97
42.60,-6.33,-7.29,-6.32,-7.28,7.27,6.90,7.69,0.95,0.95,0.96
43.03,-6.20,-7.15,-6.20,-7.15,7.13,6.76,7.45,0.93,0.93,0.95
43.46,-6.07,-7.01,-6.07,-7.01,6.99,6.62,7.22,0.92,0.92,0.94
43.90,-5.94,-6.86,-5.94,-6.86,6.85,6.48,6.99,0.91,0.91,0.92
44.33,-5.81,-6.71,-5.81,-6.71,6.71,6.34,6.76,0.91,0.90,0.90
44.78,-5.68,-6.56,-5.68,-6.56,6.58,6.20,6.54,0.90,0.90,0.88
45.23,-5.56,-6.43,-5.55,-6.42,6.45,6.06,6.32,0.89,0.89,0.87
45.68,-5.44,-6.30,-5.44,-6.30,6.32,5.92,6.11,0.88,0.88,0.86
46.13,-5.33,-6.17,-5.34,-6.19,6.20,5.78,5.90,0.87,0.85,0.84
46.60,-5.25,-6.09,-5.25,-6.08,6.07,5.64,5.69,0.82,0.83,0.84
47.06,-5.17,-5.99,-5.14,-5.97,5.95,5.50,5.49,0.78,0.81,0.82
47.53,-5.02,-5.83,-5.02,-5.84,5.82,5.36,5.29,0.80,0.79,0.81
48.01,-4.88,-5.69,-4.90,-5.70,5.68,5.22,5.09,0.80,0.78,0.81
48.49,-4.76,-5.55,-4.76,-5.55,5.54,5.09,4.90,0.78,0.77,0.79
48.97,-4.65,-5.42,-4.62,-5.39,5.39,4.95,4.71,0.74,0.76,0.77
49.46,-4.48,-5.23,-4.47,-5.22,5.23,4.81,4.52,0.75,0.76,0.75
49.96,-4.30,-5.03,-4.32,-5.06,5.07,4.67,4.34,0.77,0.75,0.73
50.46,-4.18,-4.90,-4.18,-4.90,4.92,4.53,4.16,0.74,0.74,0.72
50.96,-4.06,-4.77,-4.05,-4.75,4.76,4.39,3.98,0.71,0.71,0.71
51.47,-3.93,-4.62,-3.93,-4.62,4.61,4.25,3.80,0.69,0.69,0.69
51.99,-3.79,-4.47,-3.79,-4.47,4.47,4.11,3.63,0.68,0.68,0.68
52.51,-3.66,-4.33,-3.66,-4.33,4.33,3.97,3.46,0.67,0.67,0.67
53.03,-3.52,-4.19,-3.53,-4.19,4.19,3.83,3.29,0.67,0.66,0.67
53.56,-3.41,-4.06,-3.41,-4.06,4.05,3.69,3.13,0.65,0.65,0.65
54.10,-3.29,-3.93,-3.28,-3.92,3.92,3.55,2.97,0.63,0.64,0.64
54.64,-3.15,-3.77,-3.16,-3.78,3.78,3.41,2.81,0.63,0.62,0.62
55.18,-3.02,-3.64,-3.02,-3.64,3.63,3.27,2.65,0.62,0.61,0.62
55.74,-2.90,-3.50,-2.89,-3.49,3.49,3.13,2.50,0.59,0.60,0.60
56.29,-2.76,-3.35,-2.75,-3.34,3.35,2.99,2.35,0.59,0.59,0.59
56.86,-2.61,-3.19,-2.62,-3.20,3.20,2.85,2.21,0.59,0.57,0.58
57.42,-2.49,-3.04,-2.49,-3.05,3.04,2.71,2.06,0.56,0.55,0.55
58.00,-2.38,-2.92,-2.35,-2.89,2.89,2.57,1.93,0.51,0.53,0.54
58.58,-2.21,-2.74,-2.21,-2.74,2.73,2.43,1.79,0.52,0.52,0.53
59.16,-2.05,-2.56,-2.07,-2.58,2.57,2.29,1.66,0.52,0.51,0.51
59.76,-1.93,-2.42,-1.92,-2.40,2.41,2.15,1.53,0.49,0.49,0.49
60.35,-1.80,-2.25,-1.79,-2.24,2.26,2.00,1.41,0.46,0.46,0.45
60.96,-1.67,-2.08,-1.68,-2.09,2.10,1.86,1.29,0.43,0.42,0.41
61.57,-1.57,-1.94,-1.57,-1.94,1.94,1.72,1.17,0.37,0.38,0.37
62.18,-1.47,-1.80,-1.47,-1.79,1.79,1.58,1.05,0.32,0.32,0.33
62.80,-1.37,-1.65,-1.37,-1.65,1.63,1.44,0.94,0.26,0.26,0.28
63.43,-1.26,-1.50,-1.25,-1.49,1.48,1.30,0.84,0.22,0.22,0.24
64.07,-1.14,-1.33,-1.13,-1.32,1.32,1.16,0.73,0.18,0.19,0.19
64.71,-1.00,-1.15,-1.01,-1.16,1.17,1.02,0.63,0.17,0.16,0.15
65.35,-0.89,-1.00,-0.90,-1.00,1.02,0.88,0.53,0.13,0.12,0.11
66.01,-0.80,-0.86,-0.79,-0.85,0.87,0.74,0.44,0.07,0.07,0.06
66.67,-0.70,-0.71,-0.70,-0.71,0.71,0.60,0.35,0.01,0.01,0.01
67.33,-0.60,-0.56,-0.61,-0.57,0.55,0.46,0.26,-0.05,-0.06,-0.04
68.01,-0.51,-0.43,-0.50,-0.42,0.39,0.32,0.17,-0.12,-0.11,-0.08
68.69,-0.39,-0.26,-0.38,-0.25,0.23,0.18,0.09,-0.16,-0.15,-0.13
69.37,-0.25,-0.07,-0.25,-0.07,0.07,0.04,0.00,-0.17,-0.17,-0.18
70.07,-0.10,0.13,-0.12,0.11,-0.08,-0.09,-0.08,-0.18,-0.20,-0.23
70.77,-0.02,0.26,-0.01,0.27,-0.23,-0.23,-0.16,-0.25,-0.25,-0.28
71.48,0.06,0.39,0.06,0.40,-0.38,-0.37,-0.24,-0.32,-0.32,-0.33
72.19,0.13,0.53,0.13,0.52,-0.54,-0.51,-0.32,-0.40,-0.41,-0.40
72.91,0.19,0.65,0.21,0.67,-0.69,-0.65,-0.40,-0.49,-0.48,-0.46
73.64,0.30,0.81,0.29,0.81,-0.84,-0.78,-0.48,-0.53,-0.54,-0.51
74.38,0.40,0.97,0.39,0.96,-0.99,-0.92,-0.55,-0.58,-0.59,-0.57
75.12,0.48,1.11,0.50,1.13,-1.13,-1.05,-0.63,-0.65,-0.64,-0.63
75.87,0.60,1.29,0.60,1.29,-1.28,-1.19,-0.71,-0.68,-0.68,-0.69
76.63,0.70,1.44,0.70,1.44,-1.42,-1.32,-0.79,-0.72,-0.72,-0.74
77.40,0.80,1.59,0.80,1.60,-1.56,-1.45,-0.87,-0.76,-0.76,-0.79
78.17,0.88,1.73,0.88,1.72,-1.69,-1.59,-0.95,-0.81,-0.81,-0.85
78.95,0.95,1.84,0.93,1.82,-1.82,-1.72,-1.03,-0.87,-0.89,-0.89
79.74,0.96,1.90,0.97,1.91,-1.94,-1.85,-1.11,-0.98,-0.97,-0.94
80.54,1.01,2.00,1.04,2.03,-2.06,-1.98,-1.20,-1.05,-1.02,-0.99
81.35,1.12,2.16,1.12,2.16,-2.18,-2.11,-1.28,-1.06,-1.06,-1.04
82.16,1.25,2.34,1.21,2.30,-2.30,-2.23,-1.37,-1.05,-1.09,-1.09
82.98,1.27,2.40,1.29,2.43,-2.42,-2.36,-1.46,-1.15,-1.13,-1.13
83.81,1.36,2.54,1.37,2.55,-2.55,-2.48,-1.55,-1.19,-1.18,-1.18
84.65,1.44,2.67,1.44,2.67,-2.68,-2.61,-1.64,-1.23,-1.23,-1.23
85.50,1.53,2.80,1.54,2.81,-2.80,-2.73,-1.73,-1.27,-1.26,-1.27
86.35,1.62,2.94,1.61,2.93,-2.92,-2.85,-1.83,-1.29,-1.30,-1.32
87.22,1.68,3.05,1.67,3.04,-3.03,-2.96,-1.92,-1.35,-1.36,-1.37
88.09,1.69,3.11,1.71,3.13,-3.13,-3.08,-2.02,-1.44,-1.43,-1.42
88.97,1.74,3.22,1.75,3.22,-3.24,-3.19,-2.13,-1.50,-1.49,-1.48
89.86,1.79,3.32,1.80,3.33,-3.34,-3.31,-2.23,-1.54,-1.54,-1.53
90.76,1.86,3.44,1.85,3.43,-3.43,-3.42,-2.34,-1.57,-1.58,-1.58
91.66,1.89,3.52,1.88,3.52,-3.51,-3.52,-2.44,-1.62,-1.63,-1.63
92.58,1.89,3.58,1.92,3.60,-3.59,-3.63,-2.56,-1.70,-1.67,-1.69
93.51,1.94,3.68,1.95,3.68,-3.67,-3.73,-2.67,-1.73,-1.72,-1.74
94.44,1.99,3.77,1.97,3.76,-3.75,-3.83,-2.78,-1.76,-1.78,-1.78
95.39,1.99,3.82,1.98,3.81,-3.83,-3.93,-2.90,-1.84,-1.85,-1.83
96.34,1.98,3.86,1.99,3.88,-3.91,-4.03,-3.02,-1.93,-1.92,-1.88
97.30,2.00,3.93,2.03,3.96,-3.99,-4.12,-3.14,-1.98,-1.96,-1.93
98.28,2.09,4.07,2.08,4.06,-4.06,-4.21,-3.26,-1.97,-1.97,-1.98
99.26,2.16,4.18,2.13,4.15,-4.12,-4.29,-3.38,-1.96,-2.00,-2.02
100.25,2.14,4.21,2.15,4.22,-4.18,-4.38,-3.51,-2.04,-2.04,-2.07
101.25,2.12,4.24,2.13,4.26,-4.24,-4.46,-3.63,-2.12,-2.10,-2.12
102.27,2.11,4.28,2.11,4.28,-4.29,-4.54,-3.76,-2.17,-2.17,-2.17
103.29,2.10,4.32,2.10,4.31,-4.33,-4.61,-3.88,-2.22,-2.23,-2.22
104.32,2.08,4.34,2.08,4.34,-4.36,-4.68,-4.01,-2.28,-2.28,-2.26
105.37,2.05,4.36,2.06,4.37,-4.38,-4.75,-4.14,-2.33,-2.32,-2.31
106.42,2.03,4.39,2.03,4.39,-4.40,-4.81,-4.26,-2.37,-2.37,-2.36
107.48,2.00,4.42,2.01,4.43,-4.41,-4.87,-4.38,-2.41,-2.40,-2.42
108.56,1.98,4.45,1.98,4.45,-4.43,-4.93,-4.50,-2.45,-2.45,-2.47
109.64,1.96,4.48,1.94,4.46,-4.45,-4.98,-4.62,-2.49,-2.51,-2.52
110.74,1.88,4.46,1.89,4.46,-4.47,-5.03,-4.74,-2.59,-2.58,-2.58
111.85,1.82,4.44,1.84,4.47,-4.49,-5.07,-4.85,-2.67,-2.65,-2.62
112.97,1.81,4.49,1.81,4.49,-4.52,-5.12,-4.96,-2.71,-2.71,-2.68
114.10,1.81,4.54,1.80,4.53,-4.56,-5.15,-5.06,-2.75,-2.76,-2.73
115.24,1.80,4.58,1.80,4.59,-4.59,-5.19,-5.15,-2.79,-2.79,-2.78
116.39,1.80,4.63,1.80,4.63,-4.63,-5.22,-5.24,-2.83,-2.82,-2.83
117.55,1.81,4.68,1.81,4.68,-4.66,-5.25,-5.33,-2.85,-2.84,-2.87
118.73,1.81,4.72,1.82,4.73,-4.68,-5.27,-5.40,-2.87,-2.87,-2.91
119.92,1.82,4.76,1.80,4.74,-4.71,-5.29,-5.47,-2.88,-2.91,-2.94
121.12,1.76,4.74,1.75,4.73,-4.72,-5.31,-5.53,-2.96,-2.97,-2.98
122.33,1.68,4.69,1.70,4.71,-4.74,-5.32,-5.57,-3.05,-3.04,-3.01
123.55,1.64,4.68,1.66,4.70,-4.74,-5.33,-5.61,-3.10,-3.09,-3.04
124.79,1.65,4.72,1.65,4.72,-4.75,-5.34,-5.65,-3.10,-3.10,-3.07
126.03,1.66,4.76,1.66,4.76,-4.76,-5.35,-5.67,-3.09,-3.10,-3.10
127.29,1.66,4.78,1.66,4.78,-4.76,-5.35,-5.68,-3.10,-3.11,-3.12
128.57,1.65,4.81,1.64,4.80,-4.77,-5.34,-5.68,-3.12,-3.13,-3.16
129.85,1.59,4.78,1.61,4.80,-4.79,-5.34,-5.68,-3.20,-3.18,-3.19
131.15,1.58,4.80,1.57,4.79,-4.80,-5.33,-5.66,-3.22,-3.23,-3.22
132.46,1.54,4.79,1.54,4.79,-4.81,-5.32,-5.64,-3.26,-3.27,-3.25
133.79,1.50,4.78,1.52,4.80,-4.81,-5.31,-5.61,-3.30,-3.29,-3.28
135.12,1.49,4.80,1.50,4.80,-4.80,-5.29,-5.57,-3.31,-3.30,-3.31
136.48,1.49,4.82,1.47,4.81,-4.80,-5.28,-5.53,-3.31,-3.32,-3.33
137.84,1.44,4.81,1.44,4.81,-4.79,-5.26,-5.48,-3.35,-3.36,-3.37
139.22,1.38,4.78,1.38,4.78,-4.79,-5.23,-5.42,-3.41,-3.40,-3.40
140.61,1.32,4.75,1.34,4.76,-4.78,-5.21,-5.36,-3.45,-3.44,-3.43
142.02,1.30,4.75,1.32,4.77,-4.76,-5.18,-5.30,-3.46,-3.45,-3.45
143.44,1.30,4.78,1.29,4.77,-4.75,-5.15,-5.24,-3.45,-3.47,-3.48
144.87,1.27,4.79,1.24,4.75,-4.74,-5.12,-5.17,-3.47,-3.51,-3.52
146.32,1.15,4.71,1.17,4.73,-4.74,-5.09,-5.10,-3.59,-3.57,-3.56
147.78,1.09,4.68,1.12,4.72,-4.74,-5.06,-5.03,-3.65,-3.62,-3.59
149.26,1.09,4.73,1.08,4.73,-4.75,-5.02,-4.96,-3.66,-3.66,-3.64
150.75,1.09,4.79,1.07,4.77,-4.77,-4.99,-4.89,-3.68,-3.70,-3.70
152.26,1.03,4.80,1.03,4.80,-4.79,-4.95,-4.81,-3.76,-3.76,-3.77
153.78,0.98,4.82,0.98,4.82,-4.83,-4.91,-4.74,-3.85,-3.85,-3.84
155.32,0.92,4.83,0.93,4.84,-4.87,-4.87,-4.68,-3.95,-3.94,-3.91
156.88,0.89,4.88,0.91,4.90,-4.91,-4.83,-4.61,-4.02,-4.01,-3.99
158.44,0.89,4.96,0.88,4.96,-4.95,-4.79,-4.54,-4.06,-4.06,-4.07
160.03,0.87,5.02,0.86,5.00,-4.98,-4.74,-4.48,-4.10,-4.12,-4.15
161.63,0.80,5.02,0.80,5.02,-5.00,-4.70,-4.42,-4.19,-4.19,-4.22
163.24,0.73,5.01,0.74,5.02,-5.01,-4.66,-4.36,-4.27,-4.27,-4.28
164.88,0.66,4.99,0.66,5.00,-5.00,-4.61,-4.30,-4.34,-4.34,-4.33
166.53,0.60,4.98,0.60,4.99,-4.99,-4.56,-4.25,-4.38,-4.38,-4.38
168.19,0.54,4.96,0.54,4.96,-4.96,-4.52,-4.20,-4.41,-4.42,-4.42
169.87,0.48,4.94,0.47,4.93,-4.92,-4.47,-4.15,-4.44,-4.45,-4.46
171.57,0.38,4.86,0.40,4.88,-4.87,-4.42,-4.11,-4.49,-4.48,-4.48
173.29,0.33,4.82,0.33,4.82,-4.83,-4.38,-4.07,-4.50,-4.50,-4.49
175.02,0.26,4.76,0.26,4.76,-4.78,-4.33,-4.03,-4.52,-4.52,-4.50
176.77,0.21,4.72,0.21,4.72,-4.73,-4.28,-3.99,-4.51,-4.52,-4.51
178.54,0.15,4.67,0.17,4.69,-4.68,-4.23,-3.96,-4.52,-4.50,-4.52
180.32,0.14,4.65,0.13,4.64,-4.63,-4.18,-3.94,-4.49,-4.50,-4.51
182.13,0.11,4.61,0.07,4.58,-4.59,-4.13,-3.91,-4.48,-4.52,-4.50
183.95,-0.01,4.50,0.03,4.54,-4.55,-4.09,-3.89,-4.56,-4.52,-4.51
185.79,-0.03,4.48,-0.01,4.50,-4.52,-4.04,-3.87,-4.55,-4.54,-4.51
187.65,-0.02,4.51,-0.04,4.48,-4.50,-3.99,-3.86,-4.51,-4.54,-4.53
189.52,-0.06,4.48,-0.06,4.48,-4.47,-3.94,-3.84,-4.53,-4.53,-4.54
191.42,-0.10,4.46,-0.10,4.46,-4.45,-3.89,-3.83,-4.55,-4.55,-4.56
193.33,-0.15,4.43,-0.15,4.43,-4.43,-3.84,-3.83,-4.58,-4.58,-4.58
195.27,-0.21,4.39,-0.20,4.40,-4.41,-3.79,-3.82,-4.62,-4.60,-4.60
197.22,-0.24,4.38,-0.24,4.38,-4.38,-3.74,-3.82,-4.62,-4.62,-4.62
199.19,-0.28,4.36,-0.28,4.36,-4.36,-3.69,-3.82,-4.63,-4.64,-4.64
201.18,-0.33,4.33,-0.33,4.33,-4.32,-3.65,-3.82,-4.65,-4.65,-4.66
203.19,-0.40,4.28,-0.39,4.29,-4.28,-3.60,-3.82,-4.68,-4.67,-4.68
205.23,-0.45,4.25,-0.45,4.25,-4.24,-3.55,-3.83,-4.68,-4.69,-4.70
207.28,-0.51,4.20,-0.51,4.20,-4.20,-3.50,-3.84,-4.71,-4.71,-4.71
209.35,-0.58,4.15,-0.58,4.15,-4.16,-3.45,-3.84,-4.74,-4.74,-4.73
211.44,-0.65,4.11,-0.66,4.09,-4.12,-3.41,-3.85,-4.77,-4.78,-4.76
213.56,-0.74,4.03,-0.71,4.06,-4.09,-3.36,-3.86,-4.83,-4.80,-4.77
215.69,-0.76,4.02,-0.74,4.04,-4.06,-3.31,-3.87,-4.82,-4.80,-4.78
217.85,-0.73,4.06,-0.76,4.04,-4.03,-3.26,-3.87,-4.76,-4.78,-4.79
220.03,-0.78,4.02,-0.78,4.02,-4.00,-3.22,-3.88,-4.77,-4.78,-4.80
222.23,-0.83,4.00,-0.84,3.98,-3.96,-3.17,-3.88,-4.79,-4.80,-4.83
224.45,-0.93,3.89,-0.89,3.93,-3.92,-3.12,-3.89,-4.85,-4.81,-4.82
226.70,-0.95,3.87,-0.94,3.88,-3.87,-3.08,-3.89,-4.82,-4.81,-4.82
228.96,-0.94,3.87,-1.00,3.81,-3.81,-3.03,-3.89,-4.75,-4.81,-4.81
231.25,-1.09,3.71,-1.06,3.74,-3.75,-2.99,-3.88,-4.83,-4.80,-4.80
233.57,-1.15,3.64,-1.12,3.67,-3.67,-2.94,-3.88,-4.82,-4.80,-4.79
235.90,-1.17,3.61,-1.18,3.60,-3.60,-2.90,-3.87,-4.77,-4.79,-4.78
238.26,-1.21,3.56,-1.22,3.55,-3.54,-2.85,-3.85,-4.75,-4.76,-4.77
240.64,-1.27,3.47,-1.27,3.47,-3.48,-2.81,-3.83,-4.75,-4.75,-4.74
243.05,-1.33,3.38,-1.32,3.39,-3.42,-2.77,-3.81,-4.75,-4.74,-4.71
245.48,-1.38,3.31,-1.35,3.34,-3.36,-2.72,-3.78,-4.74,-4.71,-4.69
247.93,-1.35,3.31,-1.36,3.30,-3.30,-2.68,-3.75,-4.65,-4.66,-4.66
250.41,-1.35,3.29,-1.37,3.27,-3.25,-2.64,-3.71,-4.60,-4.62,-4.64
252.92,-1.40,3.21,-1.39,3.22,-3.20,-2.59,-3.67,-4.60,-4.59,-4.61
255.45,-1.45,3.14,-1.46,3.14,-3.14,-2.55,-3.62,-4.59,-4.60,-4.59
258.00,-1.51,3.06,-1.53,3.04,-3.08,-2.51,-3.57,-4.58,-4.61,-4.57
260.58,-1.61,2.94,-1.55,3.00,-3.00,-2.46,-3.51,-4.61,-4.56,-4.55
263.19,-1.59,2.93,-1.57,2.96,-2.93,-2.42,-3.45,-4.52,-4.50,-4.52
265.82,-1.53,2.97,-1.62,2.88,-2.84,-2.38,-3.38,-4.37,-4.46,-4.50
268.48,-1.71,2.77,-1.72,2.76,-2.75,-2.34,-3.31,-4.46,-4.47,-4.48
271.16,-1.87,2.58,-1.82,2.63,-2.65,-2.30,-3.23,-4.52,-4.48,-4.45
273.87,-1.97,2.46,-1.90,2.53,-2.56,-2.26,-3.15,-4.53,-4.46,-4.43
276.61,-1.88,2.52,-1.93,2.47,-2.47,-2.21,-3.07,-4.34,-4.40,-4.40
279.38,-1.94,2.43,-2.00,2.38,-2.38,-2.17,-2.98,-4.31,-4.37,-4.37
282.17,-2.11,2.24,-2.09,2.26,-2.28,-2.13,-2.89,-4.39,-4.37,-4.35
284.99,-2.24,2.07,-2.17,2.15,-2.18,-2.09,-2.80,-4.42,-4.35,-4.31
287.84,-2.22,2.07,-2.21,2.08,-2.08,-2.05,-2.70,-4.30,-4.29,-4.29
290.72,-2.15,2.11,-2.23,2.03,-1.97,-2.01,-2.61,-4.12,-4.20,-4.26
293.63,-2.32,1.91,-2.29,1.94,-1.85,-1.97,-2.51,-4.17,-4.14,-4.23
296.57,-2.42,1.78,-2.43,1.77,-1.73,-1.93,-2.41,-4.15,-4.16,-4.20
299.53,-2.57,1.60,-2.60,1.58,-1.62,-1.89,-2.31,-4.18,-4.21,-4.17
302.53,-2.75,1.40,-2.68,1.47,-1.51,-1.84,-2.20,-4.26,-4.18,-4.15
305.55,-2.75,1.36,-2.73,1.39,-1.42,-1.80,-2.10,-4.17,-4.15,-4.11
308.61,-2.67,1.42,-2.75,1.33,-1.35,-1.76,-2.00,-4.02,-4.11,-4.09
311.69,-2.78,1.28,-2.78,1.28,-1.32,-1.72,-1.89,-4.10,-4.10,-4.06
314.81,-2.83,1.21,-2.79,1.25,-1.32,-1.68,-1.79,-4.15,-4.11,-4.04
317.96,-2.80,1.22,-2.75,1.28,-1.34,-1.64,-1.68,-4.14,-4.09,-4.02
321.14,-2.60,1.41,-2.64,1.37,-1.38,-1.60,-1.58,-3.98,-4.02,-4.01
324.35,-2.50,1.49,-2.54,1.46,-1.41,-1.55,-1.47,-3.90,-3.94,-3.99
327.59,-2.49,1.49,-2.47,1.51,-1.42,-1.51,-1.37,-3.91,-3.89,-3.98
330.87,-2.49,1.48,-2.47,1.50,-1.43,-1.47,-1.26,-3.91,-3.90,-3.97
334.18,-2.48,1.47,-2.51,1.45,-1.41,-1.42,-1.16,-3.89,-3.91,-3.95
337.52,-2.57,1.37,-2.58,1.36,-1.36,-1.38,-1.05,-3.93,-3.94,-3.94
340.90,-2.68,1.25,-2.66,1.27,-1.29,-1.34,-0.95,-3.97,-3.95,-3.93
344.30,-2.77,1.15,-2.74,1.19,-1.20,-1.29,-0.85,-3.97,-3.94,-3.92
347.75,-2.79,1.13,-2.81,1.11,-1.11,-1.25,-0.74,-3.90,-3.92,-3.92
351.23,-2.87,1.04,-2.92,1.00,-1.02,-1.20,-0.64,-3.89,-3.93,-3.91
354.74,-3.04,0.88,-3.01,0.90,-0.93,-1.16,-0.54,-3.97,-3.95,-3.92
358.28,-3.15,0.76,-3.08,0.83,-0.85,-1.11,-0.44,-4.00,-3.93,-3.91
361.87,-3.10,0.81,-3.13,0.78,-0.78,-1.06,-0.33,-3.88,-3.91,-3.91
365.49,-3.10,0.80,-3.17,0.73,-0.72,-1.01,-0.23,-3.81,-3.89,-3.90
369.14,-3.28,0.63,-3.23,0.68,-0.66,-0.97,-0.13,-3.94,-3.89,-3.91
372.83,-3.34,0.57,-3.32,0.59,-0.60,-0.92,-0.03,-3.94,-3.92,-3.91
376.56,-3.37,0.55,-3.39,0.52,-0.55,-0.87,0.07,-3.92,-3.94,-3.92
380.33,-3.43,0.48,-3.42,0.49,-0.50,-0.81,0.17,-3.93,-3.93,-3.91
384.13,-3.47,0.44,-3.47,0.45,-0.45,-0.76,0.27,-3.91,-3.91,-3.91
387.97,-3.52,0.40,-3.51,0.41,-0.38,-0.71,0.37,-3.90,-3.89,-3.92
391.85,-3.57,0.36,-3.57,0.35,-0.32,-0.66,0.46,-3.88,-3.89,-3.93
395.77,-3.63,0.29,-3.67,0.26,-0.25,-0.60,0.56,-3.87,-3.91,-3.92
399.73,-3.79,0.14,-3.75,0.18,-0.18,-0.55,0.66,-3.97,-3.93,-3.93
403.72,-3.87,0.06,-3.83,0.10,-0.11,-0.49,0.75,-3.98,-3.94,-3.93
407.76,-3.87,0.08,-3.93,0.02,-0.04,-0.43,0.84,-3.90,-3.96,-3.95
411.84,-3.99,-0.04,-4.01,-0.06,0.04,-0.37,0.94,-3.95,-3.97,-3.95
415.96,-4.14,-0.19,-4.07,-0.11,0.11,-0.31,1.03,-4.03,-3.96,-3.95
420.12,-4.14,-0.19,-4.11,-0.16,0.16,-0.25,1.12,-3.98,-3.95,-3.95
424.32,-4.06,-0.11,-4.14,-0.19,0.20,-0.19,1.20,-3.86,-3.94,-3.95
428.56,-4.18,-0.24,-4.19,-0.25,0.25,-0.12,1.29,-3.93,-3.95,-3.94
432.85,-4.29,-0.36,-4.26,-0.32,0.30,-0.06,1.37,-3.99,-3.96,-3.93
437.18,-4.34,-0.42,-4.26,-0.35,0.34,0.01,1.44,-4.00,-3.92,-3.92
441.55,-4.20,-0.32,-4.23,-0.34,0.39,0.08,1.52,-3.81,-3.84,-3.88
445.96,-4.12,-0.27,-4.22,-0.37,0.43,0.15,1.59,-3.69,-3.79,-3.85
