frequency,raw,error,smoothed,error_smoothed,equalization,parametric_eq,fixed_band_eq,equalized_raw,equalized_smoothed,target
20.00,-16.11,-17.99,-16.06,-17.98,17.98,17.73,6.92,1.87,1.91,1.88
20.20,-15.97,-17.90,-15.94,-17.89,17.89,17.69,7.07,1.93,1.95,1.93
20.40,-15.83,-17.81,-15.82,-17.81,17.81,17.65,7.23,1.98,1.99,1.98
20.61,-15.69,-17.70,-15.70,-17.71,17.71,17.60,7.39,2.02,2.02,2.01
20.81,-15.55,-17.61,-15.57,-17.62,17.62,17.54,7.55,2.07,2.05,2.06
21.02,-15.41,-17.51,-15.45,-17.52,17.52,17.48,7.72,2.12,2.08,2.10
21.23,-15.29,-17.41,-15.32,-17.42,17.42,17.41,7.90,2.14,2.10,2.12
21.44,-15.17,-17.31,-15.20,-17.32,17.32,17.34,8.08,2.16,2.12,2.14
21.66,-15.06,-17.22,-15.07,-17.22,17.22,17.26,8.26,2.16,2.14,2.16
21.87,-14.94,-17.11,-14.95,-17.11,17.11,17.17,8.45,2.17,2.16,2.17
22.09,-14.82,-17.01,-14.82,-17.00,17.00,17.08,8.65,2.18,2.18,2.19
22.31,-14.70,-16.90,-14.70,-16.89,16.89,16.99,8.84,2.19,2.19,2.20
22.54,-14.58,-16.78,-14.58,-16.77,16.77,16.89,9.05,2.19,2.19,2.20
22.76,-14.46,-16.66,-14.45,-16.65,16.65,16.79,9.26,2.19,2.20,2.20
22.99,-14.35,-16.54,-14.32,-16.52,16.52,16.69,9.48,2.17,2.20,2.19
23.22,-14.22,-16.41,-14.19,-16.39,16.39,16.58,9.70,2.18,2.20,2.19
23.45,-14.09,-16.27,-14.06,-16.27,16.27,16.46,9.93,2.18,2.20,2.19
23.69,-13.97,-16.17,-13.94,-16.14,16.14,16.35,10.16,2.17,2.20,2.19
23.92,-13.84,-16.03,-13.81,-16.01,16.01,16.23,10.41,2.18,2.20,2.19
24.16,-13.70,-15.90,-13.69,-15.89,15.89,16.11,10.66,2.19,2.20,2.20
24.40,-13.55,-15.76,-13.57,-15.77,15.77,15.99,10.91,2.22,2.20,2.21
24.65,-13.40,-15.60,-13.45,-15.65,15.65,15.86,11.18,2.25,2.20,2.20
24.89,-13.25,-15.45,-13.34,-15.54,15.54,15.73,11.45,2.29,2.20,2.20
25.14,-13.15,-15.35,-13.22,-15.42,15.42,15.60,11.73,2.28,2.20,2.20
25.39,-13.08,-15.29,-13.11,-15.31,15.31,15.47,12.01,2.24,2.20,2.21
25.65,-13.01,-15.22,-13.00,-15.20,15.20,15.34,12.31,2.19,2.20,2.21
25.91,-12.94,-15.14,-12.88,-15.09,15.09,15.20,12.61,2.15,2.20,2.20
26.16,-12.83,-15.02,-12.77,-14.97,14.97,15.06,12.92,2.15,2.20,2.20
26.43,-12.70,-14.89,-12.66,-14.86,14.86,14.93,13.23,2.16,2.20,2.19
26.69,-12.58,-14.77,-12.55,-14.74,14.74,14.79,13.56,2.17,2.20,2.19
26.96,-12.45,-14.65,-12.43,-14.63,14.63,14.65,13.89,2.18,2.19,2.20
27.23,-12.32,-14.52,-12.31,-14.50,14.50,14.51,14.22,2.18,2.19,2.20
27.50,-12.18,-14.38,-12.18,-14.37,14.37,14.36,14.56,2.19,2.19,2.20
27.77,-12.04,-14.22,-12.05,-14.23,14.23,14.22,14.90,2.20,2.19,2.19
28.05,-11.90,-14.08,-11.90,-14.09,14.09,14.08,15.24,2.19,2.19,2.19
28.33,-11.77,-13.94,-11.76,-13.94,13.94,13.94,15.58,2.17,2.18,2.17
28.62,-11.63,-13.80,-11.61,-13.80,13.80,13.79,15.91,2.17,2.18,2.17
28.90,-11.50,-13.68,-11.47,-13.65,13.65,13.65,16.23,2.16,2.18,2.18
29.19,-11.34,-13.51,-11.33,-13.51,13.51,13.50,16.54,2.17,2.18,2.17
29.48,-11.18,-13.36,-11.19,-13.37,13.37,13.36,16.82,2.19,2.18,2.19
29.78,-11.01,-13.18,-11.06,-13.23,13.23,13.21,17.08,2.22,2.17,2.17
30.08,-10.86,-13.04,-10.93,-13.10,13.10,13.07,17.30,2.24,2.17,2.18
30.38,-10.76,-12.93,-10.79,-12.97,12.97,12.92,17.48,2.21,2.17,2.17
30.68,-10.66,-12.83,-10.67,-12.83,12.83,12.78,17.62,2.18,2.17,2.17
30.99,-10.56,-12.73,-10.54,-12.71,12.71,12.63,17.70,2.15,2.17,2.17
31.30,-10.44,-12.60,-10.42,-12.58,12.58,12.49,17.72,2.14,2.16,2.16
31.61,-10.31,-12.47,-10.29,-12.45,12.45,12.34,17.69,2.14,2.16,2.16
31.93,-10.18,-12.34,-10.17,-12.33,12.33,12.19,17.60,2.15,2.16,2.16
32.24,-10.05,-12.19,-10.05,-12.20,12.20,12.05,17.45,2.15,2.15,2.15
32.57,-9.93,-12.08,-9.92,-12.07,12.07,11.90,17.26,2.14,2.15,2.15
32.89,-9.80,-11.95,-9.80,-11.94,11.94,11.76,17.03,2.14,2.14,2.15
33.22,-9.67,-11.81,-9.67,-11.81,11.81,11.61,16.75,2.14,2.14,2.14
33.55,-9.55,-11.68,-9.53,-11.67,11.67,11.47,16.45,2.12,2.13,2.13
33.89,-9.42,-11.54,-9.40,-11.52,11.52,11.32,16.13,2.10,2.13,2.12
34.23,-9.28,-11.41,-9.26,-11.38,11.38,11.18,15.79,2.10,2.12,2.13
34.57,-9.13,-11.24,-9.12,-11.24,11.24,11.03,15.44,2.11,2.12,2.11
34.92,-8.98,-11.09,-8.98,-11.09,11.09,10.89,15.08,2.11,2.11,2.11
35.27,-8.83,-10.94,-8.85,-10.95,10.95,10.74,14.72,2.12,2.11,2.11
35.62,-8.69,-10.79,-8.71,-10.81,10.81,10.60,14.36,2.13,2.10,2.10
35.97,-8.55,-10.65,-8.58,-10.68,10.68,10.45,14.00,2.13,2.10,2.10
36.33,-8.43,-10.53,-8.44,-10.54,10.54,10.31,13.64,2.11,2.10,2.10
36.70,-8.30,-10.39,-8.31,-10.41,10.41,10.17,13.29,2.11,2.10,2.09
37.06,-8.18,-10.26,-8.18,-10.28,10.28,10.02,12.94,2.10,2.10,2.09
37.43,-8.05,-10.15,-8.05,-10.15,10.15,9.88,12.60,2.10,2.10,2.10
37.81,-7.92,-10.01,-7.92,-10.02,10.02,9.74,12.27,2.10,2.09,2.10
38.19,-7.80,-9.89,-7.79,-9.89,9.89,9.59,11.94,2.09,2.09,2.09
38.57,-7.68,-9.77,-7.66,-9.76,9.76,9.45,11.62,2.08,2.09,2.09
38.95,-7.55,-9.65,-7.53,-9.63,9.63,9.31,11.31,2.08,2.09,2.10
39.34,-7.43,-9.52,-7.40,-9.49,9.49,9.16,11.01,2.07,2.09,2.09
39.74,-7.30,-9.39,-7.27,-9.36,9.36,9.02,10.71,2.06,2.09,2.09
40.14,-7.16,-9.25,-7.14,-9.23,9.23,8.88,10.42,2.07,2.09,2.09
40.54,-7.00,-9.08,-7.00,-9.09,9.09,8.73,10.14,2.09,2.08,2.08
40.94,-6.84,-8.92,-6.87,-8.95,8.95,8.59,9.86,2.11,2.08,2.08
41.35,-6.71,-8.78,-6.73,-8.80,8.80,8.45,9.59,2.10,2.07,2.07
41.76,-6.58,-8.64,-6.59,-8.66,8.66,8.30,9.33,2.08,2.06,2.06
42.18,-6.45,-8.51,-6.45,-8.51,8.51,8.16,9.07,2.06,2.06,2.07
42.60,-6.33,-8.38,-6.32,-8.36,8.36,8.02,8.82,2.04,2.04,2.05
43.03,-6.20,-8.24,-6.19,-8.22,8.22,7.88,8.57,2.02,2.03,2.04
43.46,-6.07,-8.10,-6.06,-8.08,8.08,7.73,8.33,2.01,2.02,2.03
43.90,-5.94,-7.94,-5.94,-7.94,7.94,7.59,8.09,2.00,2.00,2.00
44.33,-5.81,-7.79,-5.82,-7.81,7.81,7.45,7.86,2.00,1.99,1.98
44.78,-5.68,-7.64,-5.70,-7.68,7.68,7.31,7.63,2.00,1.98,1.97
45.23,-5.56,-7.51,-5.59,-7.55,7.55,7.16,7.41,1.99,1.96,1.96
45.68,-5.44,-7.37,-5.47,-7.42,7.42,7.02,7.20,1.98,1.94,1.94
46.13,-5.33,-7.24,-5.35,-7.28,7.28,6.88,6.98,1.95,1.93,1.91
46.60,-5.25,-7.16,-5.23,-7.14,7.14,6.74,6.77,1.89,1.91,1.91
47.06,-5.17,-7.06,-5.11,-7.00,7.00,6.59,6.57,1.84,1.89,1.89
47.53,-5.02,-6.90,-4.99,-6.86,6.86,6.45,6.37,1.85,1.88,1.88
48.01,-4.88,-6.76,-4.86,-6.72,6.72,6.31,6.17,1.84,1.86,1.88
48.49,-4.76,-6.62,-4.73,-6.58,6.58,6.17,5.98,1.82,1.84,1.86
48.97,-4.65,-6.48,-4.60,-6.43,6.43,6.02,5.79,1.79,1.83,1.83
49.46,-4.48,-6.29,-4.47,-6.29,6.29,5.88,5.60,1.81,1.81,1.81
49.96,-4.30,-6.09,-4.34,-6.14,6.14,5.74,5.41,1.84,1.80,1.79
50.46,-4.18,-5.96,-4.21,-5.99,5.99,5.59,5.23,1.81,1.78,1.78
50.96,-4.06,-5.83,-4.07,-5.84,5.84,5.45,5.05,1.78,1.77,1.77
51.47,-3.93,-5.67,-3.94,-5.69,5.69,5.31,4.88,1.76,1.75,1.74
51.99,-3.79,-5.52,-3.80,-5.53,5.53,5.16,4.71,1.75,1.74,1.73
52.51,-3.66,-5.38,-3.67,-5.39,5.39,5.02,4.54,1.73,1.72,1.72
53.03,-3.52,-5.23,-3.54,-5.24,5.24,4.88,4.37,1.72,1.70,1.71
53.56,-3.41,-5.10,-3.41,-5.09,5.09,4.73,4.21,1.69,1.69,1.69
54.10,-3.29,-4.97,-3.27,-4.95,4.95,4.59,4.05,1.66,1.68,1.68
54.64,-3.15,-4.81,-3.14,-4.81,4.81,4.45,3.89,1.66,1.66,1.66
55.18,-3.02,-4.67,-3.01,-4.66,4.66,4.30,3.74,1.64,1.65,1.65
55.74,-2.90,-4.53,-2.88,-4.51,4.51,4.16,3.58,1.61,1.63,1.63
56.29,-2.76,-4.37,-2.74,-4.36,4.36,4.02,3.44,1.60,1.62,1.62
56.86,-2.61,-4.20,-2.61,-4.21,4.21,3.87,3.29,1.60,1.60,1.60
57.42,-2.49,-4.05,-2.47,-4.05,4.05,3.73,3.15,1.56,1.58,1.56
58.00,-2.38,-3.93,-2.34,-3.90,3.90,3.58,3.01,1.52,1.55,1.55
58.58,-2.21,-3.75,-2.21,-3.74,3.74,3.44,2.87,1.53,1.53,1.54
59.16,-2.05,-3.56,-2.08,-3.58,3.58,3.29,2.73,1.53,1.50,1.51
59.76,-1.93,-3.42,-1.95,-3.42,3.42,3.15,2.60,1.49,1.47,1.49
60.35,-1.80,-3.24,-1.82,-3.26,3.26,3.01,2.47,1.46,1.43,1.44
60.96,-1.67,-3.07,-1.70,-3.09,3.09,2.86,2.35,1.42,1.39,1.40
61.57,-1.57,-2.93,-1.58,-2.93,2.93,2.72,2.23,1.36,1.35,1.36
62.18,-1.47,-2.78,-1.46,-2.77,2.77,2.57,2.11,1.30,1.31,1.31
62.80,-1.37,-2.63,-1.35,-2.61,2.61,2.43,1.99,1.25,1.26,1.26
63.43,-1.26,-2.47,-1.24,-2.45,2.45,2.28,1.87,1.20,1.22,1.21
64.07,-1.14,-2.30,-1.12,-2.29,2.29,2.14,1.76,1.15,1.17,1.16
64.71,-1.00,-2.11,-1.01,-2.13,2.13,1.99,1.65,1.13,1.12,1.11
65.35,-0.89,-1.95,-0.90,-1.97,1.97,1.85,1.55,1.08,1.06,1.06
66.01,-0.80,-1.81,-0.79,-1.81,1.81,1.70,1.44,1.01,1.01,1.01
66.67,-0.70,-1.65,-0.69,-1.64,1.64,1.56,1.34,0.94,0.96,0.96
67.33,-0.60,-1.50,-0.58,-1.48,1.48,1.41,1.24,0.88,0.90,0.90
68.01,-0.51,-1.36,-0.47,-1.32,1.32,1.27,1.14,0.81,0.85,0.85
68.69,-0.39,-1.18,-0.37,-1.16,1.16,1.13,1.04,0.77,0.79,0.80
69.37,-0.25,-0.99,-0.26,-1.00,1.00,0.98,0.94,0.75,0.74,0.74
70.07,-0.10,-0.78,-0.16,-0.84,0.84,0.84,0.85,0.74,0.68,0.68
70.77,-0.02,-0.65,-0.06,-0.68,0.68,0.70,0.75,0.66,0.62,0.63
71.48,0.06,-0.51,0.04,-0.52,0.52,0.55,0.66,0.58,0.56,0.57
72.19,0.13,-0.36,0.14,-0.35,0.35,0.41,0.57,0.48,0.49,0.49
72.91,0.19,-0.24,0.24,-0.19,0.19,0.27,0.47,0.38,0.43,0.43
73.64,0.30,-0.07,0.33,-0.04,0.04,0.13,0.38,0.34,0.37,0.37
74.38,0.40,0.10,0.42,0.12,-0.12,-0.02,0.29,0.28,0.30,0.30
75.12,0.48,0.25,0.51,0.27,-0.27,-0.16,0.20,0.21,0.24,0.24
75.87,0.60,0.43,0.59,0.42,-0.42,-0.30,0.11,0.19,0.18,0.17
76.63,0.70,0.59,0.67,0.56,-0.56,-0.44,0.01,0.14,0.12,0.11
77.40,0.80,0.75,0.75,0.70,-0.70,-0.58,-0.08,0.11,0.06,0.05
78.17,0.88,0.90,0.83,0.84,-0.84,-0.72,-0.17,0.05,-0.00,-0.02
78.95,0.95,1.01,0.92,0.98,-0.98,-0.85,-0.27,-0.03,-0.06,-0.06
79.74,0.96,1.08,1.00,1.12,-1.12,-0.99,-0.36,-0.16,-0.12,-0.12
80.54,1.01,1.19,1.08,1.26,-1.26,-1.13,-0.46,-0.25,-0.18,-0.17
81.35,1.12,1.36,1.16,1.39,-1.39,-1.26,-0.56,-0.27,-0.23,-0.24
82.16,1.25,1.54,1.23,1.52,-1.52,-1.40,-0.66,-0.27,-0.29,-0.29
82.98,1.27,1.61,1.31,1.65,-1.65,-1.53,-0.76,-0.38,-0.35,-0.34
83.81,1.36,1.77,1.38,1.78,-1.78,-1.66,-0.86,-0.42,-0.40,-0.40
84.65,1.44,1.90,1.44,1.90,-1.90,-1.79,-0.96,-0.46,-0.46,-0.46
85.50,1.53,2.04,1.51,2.03,-2.03,-1.92,-1.06,-0.50,-0.52,-0.51
86.35,1.62,2.19,1.58,2.15,-2.15,-2.05,-1.17,-0.53,-0.57,-0.57
87.22,1.68,2.31,1.64,2.27,-2.27,-2.17,-1.28,-0.59,-0.63,-0.63
88.09,1.69,2.38,1.70,2.39,-2.39,-2.30,-1.39,-0.70,-0.69,-0.69
88.97,1.74,2.49,1.75,2.50,-2.50,-2.42,-1.50,-0.76,-0.75,-0.75
89.86,1.79,2.60,1.80,2.61,-2.61,-2.54,-1.61,-0.82,-0.81,-0.81
90.76,1.86,2.74,1.84,2.71,-2.71,-2.66,-1.73,-0.85,-0.87,-0.87
91.66,1.89,2.82,1.88,2.81,-2.81,-2.78,-1.85,-0.92,-0.93,-0.93
92.58,1.89,2.89,1.92,2.91,-2.91,-2.89,-1.97,-1.02,-0.99,-1.00
93.51,1.94,3.00,1.95,3.00,-3.00,-3.00,-2.09,-1.06,-1.05,-1.06
94.44,1.99,3.10,1.98,3.09,-3.09,-3.12,-2.21,-1.10,-1.11,-1.11
95.39,1.99,3.16,2.01,3.18,-3.18,-3.22,-2.33,-1.19,-1.17,-1.17
96.34,1.98,3.21,2.04,3.26,-3.26,-3.33,-2.46,-1.28,-1.23,-1.23
97.30,2.00,3.29,2.06,3.34,-3.34,-3.43,-2.59,-1.34,-1.29,-1.29
98.28,2.09,3.44,2.08,3.42,-3.42,-3.53,-2.71,-1.33,-1.34,-1.34
99.26,2.16,3.56,2.09,3.49,-3.49,-3.63,-2.84,-1.33,-1.40,-1.40
100.25,2.14,3.60,2.10,3.56,-3.56,-3.72,-2.97,-1.42,-1.46,-1.46
101.25,2.12,3.64,2.10,3.62,-3.62,-3.82,-3.11,-1.50,-1.52,-1.52
102.27,2.11,3.68,2.10,3.67,-3.67,-3.90,-3.24,-1.56,-1.57,-1.57
103.29,2.10,3.74,2.09,3.72,-3.72,-3.99,-3.37,-1.62,-1.63,-1.64
104.32,2.08,3.77,2.07,3.77,-3.77,-4.07,-3.50,-1.68,-1.69,-1.69
105.37,2.05,3.80,2.05,3.80,-3.80,-4.15,-3.63,-1.75,-1.75,-1.75
106.42,2.03,3.84,2.03,3.84,-3.84,-4.23,-3.76,-1.81,-1.81,-1.80
107.48,2.00,3.87,2.00,3.87,-3.87,-4.30,-3.89,-1.87,-1.88,-1.87
108.56,1.98,3.92,1.97,3.91,-3.91,-4.37,-4.01,-1.92,-1.94,-1.94
109.64,1.96,3.96,1.94,3.94,-3.94,-4.43,-4.13,-1.98,-2.00,-2.00
110.74,1.88,3.95,1.91,3.98,-3.98,-4.49,-4.25,-2.09,-2.06,-2.06
111.85,1.82,3.93,1.89,4.01,-4.01,-4.55,-4.37,-2.19,-2.12,-2.11
112.97,1.81,4.00,1.87,4.05,-4.05,-4.60,-4.48,-2.24,-2.18,-2.19
114.10,1.81,4.06,1.84,4.08,-4.08,-4.66,-4.58,-2.27,-2.24,-2.24
115.24,1.80,4.10,1.82,4.11,-4.11,-4.70,-4.68,-2.31,-2.30,-2.30
116.39,1.80,4.17,1.80,4.15,-4.15,-4.75,-4.78,-2.35,-2.35,-2.37
117.55,1.81,4.22,1.78,4.19,-4.19,-4.79,-4.87,-2.37,-2.41,-2.41
118.73,1.81,4.28,1.76,4.22,-4.22,-4.82,-4.95,-2.41,-2.46,-2.47
119.92,1.82,4.32,1.75,4.25,-4.25,-4.85,-5.02,-2.43,-2.50,-2.50
121.12,1.76,4.32,1.73,4.28,-4.28,-4.88,-5.08,-2.52,-2.55,-2.56
122.33,1.68,4.28,1.72,4.31,-4.31,-4.91,-5.13,-2.63,-2.59,-2.60
123.55,1.64,4.27,1.70,4.34,-4.34,-4.93,-5.18,-2.70,-2.64,-2.63
124.79,1.65,4.33,1.69,4.37,-4.37,-4.95,-5.22,-2.72,-2.68,-2.67
126.03,1.66,4.38,1.67,4.39,-4.39,-4.96,-5.24,-2.73,-2.72,-2.71
127.29,1.66,4.41,1.65,4.40,-4.40,-4.98,-5.26,-2.74,-2.76,-2.75
128.57,1.65,4.45,1.62,4.42,-4.42,-4.99,-5.27,-2.76,-2.80,-2.80
129.85,1.59,4.43,1.59,4.43,-4.43,-4.99,-5.27,-2.83,-2.83,-2.83
131.15,1.58,4.45,1.57,4.44,-4.44,-4.99,-5.27,-2.86,-2.87,-2.87
132.46,1.54,4.45,1.55,4.45,-4.45,-4.99,-5.25,-2.91,-2.91,-2.91
133.79,1.50,4.45,1.52,4.46,-4.46,-4.99,-5.23,-2.96,-2.95,-2.95
135.12,1.49,4.48,1.49,4.47,-4.47,-4.98,-5.20,-2.98,-2.98,-2.99
136.48,1.49,4.51,1.46,4.48,-4.48,-4.97,-5.16,-2.99,-3.02,-3.02
137.84,1.44,4.50,1.43,4.48,-4.48,-4.96,-5.12,-3.04,-3.05,-3.06
139.22,1.38,4.49,1.39,4.48,-4.48,-4.95,-5.08,-3.10,-3.09,-3.10
140.61,1.32,4.47,1.35,4.48,-4.48,-4.93,-5.03,-3.16,-3.13,-3.15
142.02,1.30,4.47,1.31,4.48,-4.48,-4.91,-4.97,-3.18,-3.17,-3.17
143.44,1.30,4.51,1.26,4.48,-4.48,-4.89,-4.91,-3.18,-3.21,-3.21
144.87,1.27,4.53,1.23,4.49,-4.49,-4.87,-4.85,-3.22,-3.26,-3.26
146.32,1.15,4.46,1.19,4.50,-4.50,-4.85,-4.79,-3.35,-3.31,-3.31
147.78,1.09,4.44,1.15,4.52,-4.52,-4.82,-4.73,-3.43,-3.37,-3.34
149.26,1.09,4.49,1.11,4.54,-4.54,-4.79,-4.67,-3.45,-3.43,-3.40
150.75,1.09,4.57,1.07,4.57,-4.57,-4.76,-4.61,-3.48,-3.50,-3.48
152.26,1.03,4.58,1.03,4.60,-4.60,-4.73,-4.54,-3.57,-3.57,-3.55
153.78,0.98,4.60,0.99,4.64,-4.64,-4.70,-4.48,-3.66,-3.64,-3.62
155.32,0.92,4.63,0.95,4.67,-4.67,-4.66,-4.42,-3.75,-3.72,-3.71
156.88,0.89,4.68,0.91,4.71,-4.71,-4.63,-4.36,-3.82,-3.80,-3.79
158.44,0.89,4.77,0.86,4.74,-4.74,-4.59,-4.30,-3.85,-3.87,-3.88
160.03,0.87,4.84,0.82,4.76,-4.76,-4.55,-4.25,-3.89,-3.95,-3.97
161.63,0.80,4.85,0.76,4.79,-4.79,-4.51,-4.19,-3.98,-4.02,-4.05
163.24,0.73,4.84,0.71,4.80,-4.80,-4.47,-4.14,-4.07,-4.09,-4.11
164.88,0.66,4.83,0.66,4.81,-4.81,-4.43,-4.09,-4.15,-4.15,-4.17
166.53,0.60,4.83,0.60,4.80,-4.80,-4.39,-4.05,-4.20,-4.21,-4.23
168.19,0.54,4.81,0.53,4.78,-4.78,-4.35,-4.01,-4.24,-4.25,-4.27
169.87,0.48,4.80,0.47,4.76,-4.76,-4.30,-3.97,-4.28,-4.29,-4.31
171.57,0.38,4.72,0.41,4.73,-4.73,-4.26,-3.93,-4.35,-4.32,-4.34
173.29,0.33,4.69,0.35,4.70,-4.70,-4.22,-3.90,-4.37,-4.35,-4.36
175.02,0.26,4.63,0.29,4.66,-4.66,-4.17,-3.86,-4.40,-4.37,-4.37
176.77,0.21,4.60,0.23,4.62,-4.62,-4.13,-3.84,-4.40,-4.38,-4.39
178.54,0.15,4.55,0.18,4.57,-4.57,-4.08,-3.81,-4.42,-4.40,-4.40
180.32,0.14,4.54,0.13,4.54,-4.54,-4.03,-3.79,-4.40,-4.41,-4.40
182.13,0.11,4.51,0.09,4.50,-4.50,-3.99,-3.77,-4.39,-4.42,-4.40
183.95,-0.01,4.41,0.04,4.47,-4.47,-3.94,-3.76,-4.48,-4.43,-4.41
185.79,-0.03,4.39,0.00,4.44,-4.44,-3.89,-3.75,-4.47,-4.44,-4.42
187.65,-0.02,4.43,-0.04,4.42,-4.42,-3.85,-3.74,-4.44,-4.46,-4.44
189.52,-0.06,4.40,-0.08,4.39,-4.39,-3.80,-3.73,-4.45,-4.47,-4.46
191.42,-0.10,4.39,-0.11,4.37,-4.37,-3.75,-3.73,-4.47,-4.49,-4.48
193.33,-0.15,4.36,-0.16,4.35,-4.35,-3.70,-3.73,-4.50,-4.51,-4.51
195.27,-0.21,4.32,-0.21,4.32,-4.32,-3.66,-3.73,-4.53,-4.53,-4.53
197.22,-0.24,4.31,-0.26,4.29,-4.29,-3.61,-3.73,-4.53,-4.55,-4.55
199.19,-0.28,4.30,-0.31,4.27,-4.27,-3.56,-3.74,-4.55,-4.57,-4.58
201.18,-0.33,4.27,-0.36,4.24,-4.24,-3.52,-3.75,-4.57,-4.60,-4.60
203.19,-0.40,4.22,-0.41,4.22,-4.22,-3.47,-3.76,-4.62,-4.62,-4.62
205.23,-0.45,4.20,-0.46,4.19,-4.19,-3.42,-3.77,-4.64,-4.65,-4.65
207.28,-0.51,4.15,-0.51,4.16,-4.16,-3.37,-3.78,-4.67,-4.67,-4.66
209.35,-0.58,4.11,-0.56,4.13,-4.13,-3.33,-3.79,-4.71,-4.69,-4.69
211.44,-0.65,4.08,-0.61,4.10,-4.10,-3.28,-3.80,-4.75,-4.71,-4.72
213.56,-0.74,3.99,-0.66,4.07,-4.07,-3.23,-3.82,-4.81,-4.73,-4.73
215.69,-0.76,3.99,-0.71,4.03,-4.03,-3.19,-3.83,-4.79,-4.75,-4.75
217.85,-0.73,4.03,-0.76,4.00,-4.00,-3.14,-3.84,-4.73,-4.76,-4.76
220.03,-0.78,4.00,-0.82,3.96,-3.96,-3.10,-3.85,-4.74,-4.78,-4.78
222.23,-0.83,3.97,-0.87,3.91,-3.91,-3.05,-3.86,-4.74,-4.78,-4.80
224.45,-0.93,3.87,-0.92,3.87,-3.87,-3.00,-3.87,-4.80,-4.79,-4.80
226.70,-0.95,3.85,-0.97,3.82,-3.82,-2.96,-3.88,-4.77,-4.79,-4.80
228.96,-0.94,3.85,-1.02,3.77,-3.77,-2.91,-3.88,-4.71,-4.79,-4.79
231.25,-1.09,3.70,-1.06,3.72,-3.72,-2.87,-3.88,-4.81,-4.79,-4.79
233.57,-1.15,3.63,-1.10,3.67,-3.67,-2.83,-3.88,-4.82,-4.78,-4.78
235.90,-1.17,3.60,-1.15,3.62,-3.62,-2.78,-3.87,-4.78,-4.76,-4.77
238.26,-1.21,3.55,-1.20,3.55,-3.55,-2.74,-3.86,-4.76,-4.75,-4.76
240.64,-1.27,3.47,-1.24,3.49,-3.49,-2.69,-3.84,-4.76,-4.73,-4.74
243.05,-1.33,3.38,-1.28,3.44,-3.44,-2.65,-3.82,-4.76,-4.72,-4.71
245.48,-1.38,3.31,-1.31,3.38,-3.38,-2.61,-3.80,-4.76,-4.69,-4.69
247.93,-1.35,3.31,-1.36,3.32,-3.32,-2.57,-3.77,-4.67,-4.67,-4.66
250.41,-1.35,3.30,-1.40,3.26,-3.26,-2.52,-3.73,-4.60,-4.65,-4.65
252.92,-1.40,3.22,-1.44,3.20,-3.20,-2.48,-3.69,-4.59,-4.63,-4.62
255.45,-1.45,3.15,-1.47,3.14,-3.14,-2.44,-3.65,-4.58,-4.61,-4.60
258.00,-1.51,3.07,-1.51,3.07,-3.07,-2.40,-3.60,-4.58,-4.58,-4.58
260.58,-1.61,2.96,-1.57,2.99,-2.99,-2.36,-3.54,-4.60,-4.56,-4.57
263.19,-1.59,2.95,-1.62,2.92,-2.92,-2.32,-3.48,-4.50,-4.54,-4.53
265.82,-1.53,2.99,-1.67,2.84,-2.84,-2.27,-3.41,-4.37,-4.52,-4.52
268.48,-1.71,2.79,-1.72,2.77,-2.77,-2.23,-3.34,-4.48,-4.49,-4.50
271.16,-1.87,2.60,-1.78,2.69,-2.69,-2.19,-3.27,-4.56,-4.47,-4.47
273.87,-1.97,2.48,-1.84,2.60,-2.60,-2.15,-3.19,-4.57,-4.45,-4.45
276.61,-1.88,2.54,-1.92,2.50,-2.50,-2.11,-3.10,-4.37,-4.42,-4.42
279.38,-1.94,2.46,-2.00,2.39,-2.39,-2.07,-3.02,-4.33,-4.39,-4.40
282.17,-2.11,2.26,-2.08,2.29,-2.29,-2.03,-2.93,-4.40,-4.37,-4.37
284.99,-2.24,2.10,-2.16,2.19,-2.19,-1.99,-2.84,-4.42,-4.34,-4.34
287.84,-2.22,2.10,-2.25,2.07,-2.07,-1.96,-2.74,-4.28,-4.31,-4.32
290.72,-2.15,2.14,-2.34,1.95,-1.95,-1.92,-2.64,-4.10,-4.29,-4.29
293.63,-2.32,1.95,-2.42,1.83,-1.83,-1.88,-2.55,-4.15,-4.26,-4.26
296.57,-2.42,1.81,-2.49,1.74,-1.74,-1.84,-2.45,-4.15,-4.23,-4.23
299.53,-2.57,1.63,-2.54,1.66,-1.66,-1.80,-2.34,-4.23,-4.20,-4.20
302.53,-2.75,1.44,-2.58,1.60,-1.60,-1.76,-2.24,-4.34,-4.18,-4.19
305.55,-2.75,1.39,-2.61,1.54,-1.54,-1.72,-2.14,-4.29,-4.15,-4.14
308.61,-2.67,1.46,-2.64,1.49,-1.49,-1.68,-2.03,-4.16,-4.13,-4.13
311.69,-2.78,1.32,-2.65,1.46,-1.46,-1.65,-1.93,-4.24,-4.11,-4.10
314.81,-2.83,1.25,-2.64,1.44,-1.44,-1.61,-1.82,-4.27,-4.09,-4.07
317.96,-2.80,1.26,-2.64,1.43,-1.43,-1.57,-1.72,-4.22,-4.07,-4.06
321.14,-2.60,1.45,-2.64,1.41,-1.41,-1.53,-1.61,-4.01,-4.05,-4.05
324.35,-2.50,1.54,-2.64,1.39,-1.39,-1.49,-1.51,-3.89,-4.03,-4.04
327.59,-2.49,1.53,-2.64,1.38,-1.38,-1.45,-1.41,-3.87,-4.02,-4.02
330.87,-2.49,1.52,-2.63,1.37,-1.37,-1.42,-1.30,-3.86,-4.01,-4.01
334.18,-2.48,1.52,-2.64,1.36,-1.36,-1.38,-1.20,-3.84,-3.99,-4.00
337.52,-2.57,1.42,-2.65,1.33,-1.33,-1.34,-1.09,-3.90,-3.98,-3.99
340.90,-2.68,1.29,-2.69,1.29,-1.29,-1.30,-0.99,-3.97,-3.98,-3.97
344.30,-2.77,1.20,-2.74,1.23,-1.23,-1.26,-0.89,-4.00,-3.97,-3.96
347.75,-2.79,1.18,-2.79,1.18,-1.18,-1.22,-0.78,-3.97,-3.97,-3.97
351.23,-2.87,1.09,-2.86,1.11,-1.11,-1.18,-0.68,-3.97,-3.96,-3.96
354.74,-3.04,0.92,-2.93,1.02,-1.02,-1.14,-0.58,-4.06,-3.96,-3.96
358.28,-3.15,0.81,-3.02,0.94,-0.94,-1.10,-0.48,-4.09,-3.96,-3.95
361.87,-3.10,0.86,-3.09,0.86,-0.86,-1.06,-0.37,-3.96,-3.96,-3.96
365.49,-3.10,0.85,-3.17,0.79,-0.79,-1.02,-0.27,-3.89,-3.96,-3.95
369.14,-3.28,0.68,-3.24,0.72,-0.72,-0.97,-0.17,-4.00,-3.96,-3.96
372.83,-3.34,0.63,-3.30,0.66,-0.66,-0.93,-0.07,-4.00,-3.96,-3.96
376.56,-3.37,0.60,-3.36,0.60,-0.60,-0.89,0.03,-3.97,-3.96,-3.97
380.33,-3.43,0.53,-3.43,0.53,-0.53,-0.85,0.13,-3.96,-3.96,-3.96
384.13,-3.47,0.49,-3.50,0.47,-0.47,-0.80,0.22,-3.94,-3.97,-3.96
387.97,-3.52,0.45,-3.56,0.41,-0.41,-0.76,0.32,-3.93,-3.97,-3.97
391.85,-3.57,0.41,-3.63,0.35,-0.35,-0.71,0.42,-3.92,-3.98,-3.98
395.77,-3.63,0.35,-3.70,0.29,-0.29,-0.66,0.51,-3.92,-3.98,-3.97
399.73,-3.79,0.20,-3.78,0.21,-0.21,-0.62,0.61,-4.00,-3.99,-3.99
403.72,-3.87,0.12,-3.85,0.15,-0.15,-0.57,0.70,-4.02,-4.00,-3.99
407.76,-3.87,0.13,-3.91,0.10,-0.10,-0.52,0.80,-3.96,-4.00,-4.00
411.84,-3.99,0.01,-3.96,0.05,-0.05,-0.47,0.89,-4.04,-4.00,-4.00
415.96,-4.14,-0.14,-4.03,-0.02,0.02,-0.42,0.98,-4.12,-4.01,-4.00
420.12,-4.14,-0.14,-4.10,-0.09,0.09,-0.36,1.06,-4.05,-4.00,-4.00
424.32,-4.06,-0.05,-4.14,-0.14,0.14,-0.31,1.15,-3.91,-4.00,-4.00
428.56,-4.18,-0.18,-4.18,-0.20,0.20,-0.25,1.23,-3.98,-3.99,-4.00
432.85,-4.29,-0.30,-4.23,-0.26,0.26,-0.20,1.31,-4.03,-3.97,-3.99
437.18,-4.34,-0.36,-4.25,-0.29,0.29,-0.14,1.39,-4.04,-3.95,-3.98
441.55,-4.20,-0.26,-4.25,-0.32,0.32,-0.08,1.46,-3.88,-3.93,-3.94
445.96,-4.12,-0.21,-4.26,-0.36,0.36,-0.02,1.53,-3.76,-3.90,-3.91
