frequency,raw,error,smoothed,error_smoothed,equalization,parametric_eq,fixed_band_eq,equalized_raw,equalized_smoothed,target
20.00,2.83,-4.62,2.81,-4.67,4.67,4.80,0.87,7.50,7.48,7.45
20.20,2.91,-4.59,2.90,-4.61,4.61,4.74,0.89,7.52,7.52,7.50
20.40,3.00,-4.55,3.00,-4.55,4.55,4.68,0.92,7.55,7.55,7.55
20.61,3.08,-4.50,3.09,-4.49,4.49,4.62,0.95,7.57,7.58,7.58
20.81,3.16,-4.47,3.18,-4.43,4.43,4.55,0.98,7.59,7.61,7.63
21.02,3.25,-4.42,3.28,-4.36,4.36,4.48,1.01,7.61,7.64,7.67
21.23,3.35,-4.34,3.37,-4.30,4.30,4.41,1.04,7.65,7.66,7.69
21.44,3.46,-4.25,3.46,-4.23,4.23,4.34,1.08,7.69,7.69,7.71
21.66,3.56,-4.17,3.55,-4.16,4.16,4.27,1.11,7.71,7.71,7.72
21.87,3.67,-4.06,3.64,-4.08,4.08,4.19,1.15,7.75,7.72,7.73
22.09,3.76,-3.99,3.73,-4.01,4.01,4.11,1.18,7.77,7.74,7.75
22.31,3.84,-3.92,3.82,-3.93,3.93,4.04,1.22,7.77,7.75,7.76
22.54,3.93,-3.83,3.91,-3.85,3.85,3.96,1.26,7.78,7.76,7.76
22.76,4.01,-3.75,4.00,-3.76,3.76,3.87,1.29,7.77,7.76,7.76
22.99,4.09,-3.66,4.09,-3.67,3.67,3.79,1.33,7.76,7.76,7.75
23.22,4.17,-3.58,4.18,-3.58,3.58,3.71,1.37,7.75,7.76,7.75
23.45,4.25,-3.50,4.27,-3.49,3.49,3.63,1.41,7.74,7.76,7.75
23.69,4.33,-3.43,4.36,-3.41,3.41,3.54,1.46,7.74,7.77,7.76
23.92,4.41,-3.35,4.44,-3.33,3.33,3.46,1.50,7.74,7.77,7.76
24.16,4.51,-3.26,4.52,-3.24,3.24,3.37,1.54,7.75,7.76,7.77
24.40,4.61,-3.17,4.60,-3.16,3.16,3.29,1.58,7.77,7.76,7.78
24.65,4.71,-3.06,4.69,-3.08,3.08,3.20,1.63,7.78,7.76,7.76
24.89,4.81,-2.95,4.77,-2.99,2.99,3.12,1.67,7.80,7.76,7.76
25.14,4.89,-2.87,4.85,-2.91,2.91,3.03,1.72,7.80,7.76,7.76
25.39,4.95,-2.82,4.93,-2.83,2.83,2.95,1.76,7.78,7.77,7.77
25.65,5.01,-2.76,5.01,-2.75,2.75,2.86,1.80,7.76,7.77,7.77
25.91,5.08,-2.68,5.09,-2.67,2.67,2.78,1.84,7.75,7.77,7.76
26.16,5.15,-2.61,5.17,-2.59,2.59,2.69,1.89,7.74,7.76,7.76
26.43,5.24,-2.52,5.25,-2.51,2.51,2.61,1.93,7.74,7.76,7.76
26.69,5.32,-2.44,5.34,-2.42,2.42,2.52,1.97,7.74,7.76,7.76
26.96,5.41,-2.36,5.42,-2.34,2.34,2.44,2.01,7.75,7.76,7.76
27.23,5.49,-2.28,5.50,-2.26,2.26,2.36,2.04,7.74,7.75,7.76
27.50,5.57,-2.19,5.58,-2.18,2.18,2.27,2.08,7.74,7.75,7.76
27.77,5.65,-2.10,5.65,-2.10,2.10,2.19,2.11,7.75,7.75,7.75
28.05,5.74,-2.01,5.74,-2.01,2.01,2.11,2.14,7.75,7.75,7.75
28.33,5.83,-1.91,5.82,-1.93,1.93,2.03,2.17,7.76,7.75,7.74
28.62,5.92,-1.82,5.90,-1.85,1.85,1.95,2.19,7.76,7.75,7.74
28.90,6.02,-1.72,5.98,-1.77,1.77,1.87,2.21,7.79,7.74,7.74
29.19,6.08,-1.65,6.05,-1.69,1.69,1.79,2.22,7.77,7.74,7.73
29.48,6.13,-1.62,6.13,-1.61,1.61,1.71,2.24,7.74,7.74,7.75
29.78,6.18,-1.56,6.20,-1.54,1.54,1.64,2.24,7.72,7.74,7.74
30.08,6.24,-1.51,6.27,-1.47,1.47,1.56,2.25,7.70,7.74,7.75
30.38,6.32,-1.42,6.34,-1.40,1.40,1.48,2.24,7.71,7.73,7.73
30.68,6.40,-1.33,6.40,-1.33,1.33,1.41,2.24,7.73,7.73,7.73
30.99,6.49,-1.24,6.47,-1.26,1.26,1.33,2.22,7.75,7.73,7.73
31.30,6.55,-1.18,6.53,-1.19,1.19,1.26,2.21,7.74,7.73,7.73
31.61,6.61,-1.12,6.60,-1.12,1.12,1.18,2.19,7.73,7.72,7.72
31.93,6.68,-1.04,6.67,-1.05,1.05,1.11,2.16,7.73,7.72,7.72
32.24,6.74,-0.97,6.74,-0.98,0.98,1.04,2.13,7.72,7.72,7.71
32.57,6.80,-0.92,6.81,-0.90,0.90,0.97,2.09,7.70,7.71,7.72
32.89,6.87,-0.84,6.88,-0.82,0.82,0.90,2.05,7.69,7.71,7.71
33.22,6.94,-0.76,6.96,-0.74,0.74,0.82,2.00,7.68,7.70,7.70
33.55,7.02,-0.68,7.03,-0.66,0.66,0.75,1.95,7.68,7.70,7.70
33.89,7.10,-0.59,7.11,-0.59,0.59,0.69,1.89,7.68,7.69,7.68
34.23,7.18,-0.51,7.18,-0.51,0.51,0.62,1.83,7.68,7.69,7.69
34.57,7.26,-0.42,7.25,-0.43,0.43,0.55,1.77,7.68,7.68,7.68
34.92,7.34,-0.34,7.33,-0.35,0.35,0.48,1.70,7.68,7.68,7.67
35.27,7.41,-0.26,7.40,-0.27,0.27,0.41,1.63,7.68,7.67,7.67
35.62,7.47,-0.20,7.47,-0.20,0.20,0.35,1.56,7.67,7.67,7.67
35.97,7.53,-0.13,7.53,-0.13,0.13,0.28,1.49,7.66,7.66,7.66
36.33,7.61,-0.06,7.60,-0.06,0.06,0.22,1.41,7.67,7.66,7.67
36.70,7.69,0.03,7.66,0.00,-0.00,0.15,1.33,7.68,7.66,7.65
37.06,7.77,0.12,7.72,0.06,-0.06,0.09,1.25,7.70,7.66,7.65
37.43,7.80,0.14,7.78,0.12,-0.12,0.02,1.16,7.68,7.66,7.66
37.81,7.83,0.17,7.84,0.18,-0.18,-0.04,1.08,7.65,7.66,7.66
38.19,7.87,0.21,7.89,0.23,-0.23,-0.10,0.99,7.64,7.66,7.65
38.57,7.91,0.25,7.94,0.28,-0.28,-0.16,0.90,7.63,7.66,7.66
38.95,7.96,0.30,7.99,0.33,-0.33,-0.23,0.82,7.63,7.66,7.66
39.34,8.03,0.37,8.04,0.38,-0.38,-0.29,0.73,7.64,7.66,7.66
39.74,8.11,0.46,8.09,0.44,-0.44,-0.35,0.64,7.67,7.65,7.65
40.14,8.17,0.51,8.14,0.49,-0.49,-0.41,0.55,7.68,7.65,7.65
40.54,8.20,0.55,8.19,0.54,-0.54,-0.47,0.46,7.66,7.65,7.65
40.94,8.23,0.59,8.24,0.60,-0.60,-0.53,0.36,7.63,7.64,7.64
41.35,8.28,0.64,8.29,0.65,-0.65,-0.59,0.27,7.63,7.64,7.63
41.76,8.33,0.70,8.34,0.71,-0.71,-0.65,0.18,7.62,7.63,7.63
42.18,8.38,0.75,8.39,0.77,-0.77,-0.71,0.09,7.61,7.62,7.63
42.60,8.44,0.83,8.44,0.83,-0.83,-0.77,-0.00,7.61,7.61,7.61
43.03,8.49,0.88,8.49,0.90,-0.90,-0.82,-0.10,7.59,7.59,7.60
43.46,8.55,0.95,8.53,0.95,-0.95,-0.88,-0.19,7.60,7.58,7.60
43.90,8.60,1.03,8.57,1.01,-1.01,-0.94,-0.28,7.59,7.57,7.57
44.33,8.63,1.08,8.61,1.06,-1.06,-1.00,-0.38,7.57,7.55,7.55
44.78,8.65,1.12,8.65,1.11,-1.11,-1.05,-0.47,7.54,7.54,7.53
45.23,8.68,1.16,8.69,1.17,-1.17,-1.11,-0.57,7.51,7.52,7.52
45.68,8.73,1.23,8.73,1.22,-1.22,-1.17,-0.66,7.51,7.51,7.50
46.13,8.77,1.29,8.76,1.27,-1.27,-1.22,-0.76,7.50,7.49,7.48
46.60,8.82,1.34,8.80,1.33,-1.33,-1.28,-0.85,7.49,7.47,7.48
47.06,8.86,1.40,8.84,1.38,-1.38,-1.34,-0.95,7.48,7.46,7.46
47.53,8.86,1.41,8.87,1.43,-1.43,-1.39,-1.04,7.43,7.44,7.44
48.01,8.86,1.42,8.91,1.48,-1.48,-1.45,-1.14,7.38,7.42,7.44
48.49,8.91,1.49,8.94,1.54,-1.54,-1.50,-1.23,7.37,7.41,7.42
48.97,8.96,1.56,8.98,1.59,-1.59,-1.56,-1.33,7.37,7.39,7.40
49.46,9.01,1.64,9.02,1.64,-1.64,-1.61,-1.42,7.37,7.38,7.37
49.96,9.07,1.72,9.05,1.69,-1.69,-1.67,-1.52,7.38,7.36,7.35
50.46,9.12,1.77,9.09,1.74,-1.74,-1.72,-1.61,7.37,7.35,7.34
50.96,9.17,1.84,9.12,1.79,-1.79,-1.77,-1.71,7.37,7.33,7.33
51.47,9.17,1.86,9.16,1.84,-1.84,-1.83,-1.80,7.32,7.32,7.30
51.99,9.17,1.88,9.19,1.89,-1.89,-1.88,-1.89,7.27,7.30,7.29
52.51,9.22,1.94,9.22,1.94,-1.94,-1.94,-1.99,7.28,7.28,7.28
53.03,9.27,1.99,9.25,1.98,-1.98,-1.99,-2.08,7.28,7.27,7.28
53.56,9.27,2.01,9.28,2.02,-2.02,-2.04,-2.17,7.24,7.25,7.26
54.10,9.28,2.04,9.30,2.06,-2.06,-2.09,-2.26,7.22,7.24,7.24
54.64,9.33,2.11,9.32,2.09,-2.09,-2.15,-2.35,7.24,7.23,7.22
55.18,9.37,2.16,9.33,2.12,-2.12,-2.20,-2.43,7.25,7.21,7.21
55.74,9.37,2.18,9.35,2.15,-2.15,-2.25,-2.52,7.22,7.20,7.19
56.29,9.37,2.19,9.36,2.18,-2.18,-2.31,-2.60,7.19,7.18,7.18
56.86,9.37,2.21,9.38,2.22,-2.22,-2.36,-2.68,7.15,7.16,7.16
57.42,9.37,2.24,9.40,2.26,-2.26,-2.41,-2.76,7.11,7.14,7.13
58.00,9.37,2.26,9.42,2.30,-2.30,-2.46,-2.83,7.07,7.12,7.11
58.58,9.43,2.33,9.43,2.34,-2.34,-2.51,-2.90,7.08,7.09,7.10
59.16,9.47,2.39,9.45,2.39,-2.39,-2.57,-2.97,7.08,7.06,7.08
59.76,9.47,2.42,9.47,2.44,-2.44,-2.62,-3.03,7.03,7.03,7.05
60.35,9.47,2.46,9.48,2.49,-2.49,-2.67,-3.09,6.98,6.99,7.00
60.96,9.47,2.50,9.50,2.54,-2.54,-2.72,-3.15,6.93,6.96,6.97
61.57,9.53,2.61,9.51,2.60,-2.60,-2.77,-3.20,6.93,6.92,6.92
62.18,9.57,2.70,9.53,2.66,-2.66,-2.82,-3.25,6.91,6.87,6.87
62.80,9.57,2.75,9.54,2.72,-2.72,-2.87,-3.30,6.85,6.83,6.82
63.43,9.57,2.80,9.55,2.77,-2.77,-2.92,-3.34,6.79,6.78,6.77
64.07,9.57,2.85,9.56,2.83,-2.83,-2.97,-3.38,6.74,6.73,6.72
64.71,9.57,2.90,9.57,2.89,-2.89,-3.03,-3.41,6.68,6.68,6.67
65.35,9.57,2.94,9.57,2.94,-2.94,-3.08,-3.44,6.62,6.63,6.63
66.01,9.57,3.00,9.57,3.00,-3.00,-3.13,-3.47,6.57,6.57,6.57
66.67,9.57,3.05,9.58,3.05,-3.05,-3.18,-3.50,6.51,6.52,6.52
67.33,9.57,3.11,9.58,3.11,-3.11,-3.23,-3.52,6.46,6.47,6.46
68.01,9.57,3.15,9.57,3.16,-3.16,-3.28,-3.54,6.41,6.41,6.42
68.69,9.57,3.21,9.57,3.21,-3.21,-3.33,-3.56,6.35,6.36,6.36
69.37,9.57,3.27,9.57,3.27,-3.27,-3.38,-3.57,6.30,6.30,6.30
70.07,9.57,3.33,9.57,3.33,-3.33,-3.42,-3.59,6.24,6.24,6.24
70.77,9.57,3.38,9.57,3.39,-3.39,-3.47,-3.60,6.18,6.18,6.19
71.48,9.57,3.44,9.57,3.45,-3.45,-3.52,-3.61,6.12,6.12,6.13
72.19,9.57,3.51,9.57,3.51,-3.51,-3.57,-3.62,6.06,6.06,6.06
72.91,9.57,3.57,9.57,3.57,-3.57,-3.62,-3.63,5.99,5.99,5.99
73.64,9.57,3.64,9.57,3.64,-3.64,-3.67,-3.64,5.93,5.93,5.93
74.38,9.57,3.70,9.57,3.70,-3.70,-3.72,-3.66,5.87,5.87,5.87
75.12,9.57,3.77,9.57,3.76,-3.76,-3.77,-3.67,5.80,5.80,5.80
75.87,9.57,3.84,9.57,3.83,-3.83,-3.81,-3.68,5.74,5.74,5.73
76.63,9.57,3.89,9.57,3.89,-3.89,-3.86,-3.70,5.68,5.68,5.67
77.40,9.57,3.95,9.57,3.95,-3.95,-3.91,-3.71,5.62,5.62,5.62
78.17,9.57,4.02,9.57,4.01,-4.01,-3.96,-3.73,5.56,5.56,5.55
78.95,9.57,4.06,9.57,4.07,-4.07,-4.00,-3.75,5.50,5.50,5.50
79.74,9.57,4.13,9.57,4.13,-4.13,-4.05,-3.77,5.44,5.44,5.44
80.54,9.57,4.18,9.57,4.18,-4.18,-4.10,-3.79,5.39,5.39,5.39
81.35,9.57,4.24,9.57,4.24,-4.24,-4.14,-3.82,5.33,5.33,5.33
82.16,9.57,4.30,9.57,4.30,-4.30,-4.19,-3.85,5.27,5.27,5.27
82.98,9.57,4.34,9.57,4.35,-4.35,-4.24,-3.88,5.22,5.22,5.23
83.81,9.57,4.41,9.57,4.41,-4.41,-4.28,-3.92,5.16,5.16,5.16
84.65,9.57,4.47,9.57,4.46,-4.46,-4.33,-3.95,5.11,5.10,5.10
85.50,9.57,4.51,9.57,4.52,-4.52,-4.38,-3.99,5.05,5.05,5.05
86.35,9.57,4.57,9.57,4.58,-4.58,-4.42,-4.03,4.99,4.99,4.99
87.22,9.57,4.63,9.57,4.64,-4.64,-4.47,-4.08,4.93,4.93,4.93
88.09,9.57,4.69,9.57,4.70,-4.70,-4.51,-4.13,4.87,4.87,4.87
88.97,9.57,4.76,9.57,4.76,-4.76,-4.55,-4.18,4.81,4.81,4.81
89.86,9.57,4.82,9.57,4.82,-4.82,-4.60,-4.24,4.75,4.75,4.75
90.76,9.57,4.88,9.58,4.88,-4.88,-4.64,-4.30,4.68,4.69,4.69
91.66,9.57,4.93,9.58,4.95,-4.95,-4.69,-4.36,4.62,4.63,4.64
92.58,9.58,5.02,9.59,5.02,-5.02,-4.73,-4.42,4.56,4.57,4.56
93.51,9.58,5.07,9.59,5.08,-5.08,-4.77,-4.49,4.50,4.51,4.51
94.44,9.58,5.13,9.58,5.13,-5.13,-4.82,-4.56,4.45,4.45,4.45
95.39,9.57,5.17,9.58,5.18,-5.18,-4.86,-4.64,4.39,4.39,4.40
96.34,9.57,5.24,9.56,5.23,-5.23,-4.90,-4.71,4.34,4.34,4.33
97.30,9.57,5.29,9.54,5.26,-5.26,-4.94,-4.79,4.30,4.28,4.28
98.28,9.56,5.34,9.52,5.30,-5.30,-4.99,-4.87,4.26,4.22,4.22
99.26,9.54,5.38,9.49,5.33,-5.33,-5.03,-4.96,4.21,4.16,4.16
100.25,9.52,5.41,9.46,5.36,-5.36,-5.07,-5.04,4.16,4.10,4.11
101.25,9.48,5.43,9.43,5.38,-5.38,-5.11,-5.13,4.10,4.05,4.05
102.27,9.37,5.38,9.39,5.40,-5.40,-5.15,-5.22,3.97,3.99,3.99
103.29,9.31,5.39,9.35,5.42,-5.42,-5.19,-5.31,3.89,3.93,3.92
104.32,9.26,5.38,9.31,5.44,-5.44,-5.23,-5.40,3.82,3.87,3.88
105.37,9.24,5.42,9.27,5.46,-5.46,-5.27,-5.50,3.77,3.81,3.82
106.42,9.21,5.45,9.24,5.49,-5.49,-5.31,-5.59,3.71,3.75,3.76
107.48,9.19,5.50,9.21,5.52,-5.52,-5.35,-5.68,3.66,3.69,3.69
108.56,9.16,5.53,9.18,5.55,-5.55,-5.38,-5.77,3.60,3.63,3.62
109.64,9.14,5.57,9.15,5.58,-5.58,-5.42,-5.86,3.55,3.56,3.57
110.74,9.12,5.62,9.12,5.62,-5.62,-5.46,-5.95,3.50,3.50,3.50
111.85,9.10,5.65,9.09,5.65,-5.65,-5.50,-6.03,3.45,3.44,3.45
112.97,9.10,5.72,9.07,5.69,-5.69,-5.53,-6.12,3.41,3.38,3.38
114.10,9.09,5.77,9.05,5.73,-5.73,-5.57,-6.19,3.36,3.32,3.32
115.24,9.09,5.83,9.03,5.77,-5.77,-5.60,-6.27,3.32,3.27,3.26
116.39,9.08,5.88,9.01,5.80,-5.80,-5.64,-6.34,3.28,3.21,3.20
117.55,9.01,5.86,8.99,5.84,-5.84,-5.67,-6.40,3.17,3.16,3.15
118.73,8.91,5.81,8.99,5.88,-5.88,-5.71,-6.46,3.03,3.11,3.10
119.92,8.90,5.84,8.98,5.92,-5.92,-5.74,-6.51,2.98,3.06,3.06
121.12,8.91,5.90,8.97,5.95,-5.95,-5.78,-6.56,2.96,3.01,3.01
122.33,8.92,5.95,8.95,5.99,-5.99,-5.81,-6.60,2.93,2.97,2.96
123.55,8.93,6.00,8.94,6.01,-6.01,-5.84,-6.63,2.91,2.93,2.93
124.79,8.93,6.04,8.93,6.04,-6.04,-5.87,-6.66,2.89,2.88,2.89
126.03,8.94,6.09,8.91,6.07,-6.07,-5.91,-6.67,2.87,2.85,2.85
127.29,8.95,6.13,8.90,6.09,-6.09,-5.94,-6.68,2.86,2.81,2.82
128.57,8.95,6.18,8.89,6.12,-6.12,-5.97,-6.69,2.82,2.77,2.77
129.85,8.96,6.23,8.89,6.16,-6.16,-6.00,-6.68,2.80,2.73,2.73
131.15,8.95,6.26,8.88,6.19,-6.19,-6.03,-6.67,2.76,2.69,2.69
132.46,8.82,6.17,8.87,6.22,-6.22,-6.06,-6.66,2.60,2.65,2.65
133.79,8.77,6.15,8.85,6.24,-6.24,-6.08,-6.63,2.53,2.62,2.62
135.12,8.78,6.21,8.83,6.25,-6.25,-6.11,-6.61,2.53,2.58,2.57
136.48,8.78,6.23,8.80,6.26,-6.26,-6.14,-6.58,2.52,2.55,2.55
137.84,8.78,6.28,8.78,6.27,-6.27,-6.17,-6.54,2.51,2.51,2.50
139.22,8.79,6.33,8.75,6.28,-6.28,-6.19,-6.50,2.51,2.47,2.46
140.61,8.79,6.37,8.73,6.29,-6.29,-6.22,-6.46,2.49,2.43,2.42
142.02,8.79,6.39,8.71,6.31,-6.31,-6.25,-6.41,2.47,2.39,2.39
143.44,8.67,6.31,8.69,6.34,-6.34,-6.27,-6.37,2.33,2.35,2.35
144.87,8.60,6.29,8.67,6.37,-6.37,-6.29,-6.32,2.23,2.30,2.31
146.32,8.59,6.33,8.65,6.40,-6.40,-6.32,-6.27,2.19,2.25,2.26
147.78,8.59,6.37,8.64,6.45,-6.45,-6.34,-6.22,2.14,2.19,2.22
149.26,8.59,6.43,8.62,6.48,-6.48,-6.36,-6.18,2.10,2.13,2.16
150.75,8.59,6.50,8.58,6.52,-6.52,-6.39,-6.13,2.07,2.07,2.09
152.26,8.59,6.57,8.55,6.55,-6.55,-6.41,-6.09,2.04,1.99,2.01
153.78,8.59,6.65,8.51,6.59,-6.59,-6.43,-6.04,2.00,1.92,1.94
155.32,8.52,6.66,8.48,6.63,-6.63,-6.45,-6.00,1.89,1.85,1.86
156.88,8.49,6.71,8.44,6.68,-6.68,-6.47,-5.96,1.81,1.77,1.78
158.44,8.42,6.73,8.41,6.72,-6.72,-6.49,-5.93,1.70,1.69,1.69
160.03,8.39,6.79,8.38,6.76,-6.76,-6.50,-5.90,1.63,1.61,1.60
161.63,8.32,6.80,8.34,6.80,-6.80,-6.52,-5.87,1.52,1.54,1.52
163.24,8.26,6.81,8.30,6.83,-6.83,-6.54,-5.84,1.43,1.47,1.45
164.88,8.19,6.80,8.26,6.85,-6.85,-6.56,-5.82,1.34,1.41,1.39
166.53,8.17,6.83,8.21,6.86,-6.86,-6.57,-5.80,1.31,1.36,1.34
168.19,8.17,6.88,8.17,6.86,-6.86,-6.59,-5.79,1.31,1.31,1.29
169.87,8.16,6.91,8.12,6.85,-6.85,-6.60,-5.78,1.30,1.27,1.25
171.57,8.11,6.88,8.09,6.85,-6.85,-6.62,-5.78,1.26,1.24,1.23
173.29,8.07,6.86,8.06,6.85,-6.85,-6.63,-5.78,1.22,1.21,1.20
175.02,8.04,6.85,8.03,6.84,-6.84,-6.64,-5.78,1.20,1.19,1.19
176.77,8.04,6.87,8.01,6.83,-6.83,-6.65,-5.79,1.21,1.18,1.17
178.54,7.97,6.81,7.98,6.81,-6.81,-6.66,-5.80,1.16,1.17,1.16
180.32,7.94,6.77,7.96,6.80,-6.80,-6.67,-5.82,1.14,1.15,1.16
182.13,7.92,6.75,7.94,6.79,-6.79,-6.68,-5.84,1.13,1.14,1.17
183.95,7.86,6.71,7.92,6.78,-6.78,-6.69,-5.86,1.07,1.13,1.15
185.79,7.87,6.72,7.89,6.77,-6.77,-6.70,-5.89,1.10,1.12,1.14
187.65,7.88,6.76,7.87,6.76,-6.76,-6.71,-5.93,1.12,1.11,1.12
189.52,7.89,6.78,7.84,6.75,-6.75,-6.72,-5.97,1.14,1.09,1.10
191.42,7.83,6.75,7.81,6.74,-6.74,-6.72,-6.01,1.09,1.08,1.08
193.33,7.76,6.70,7.79,6.73,-6.73,-6.73,-6.05,1.03,1.06,1.06
195.27,7.74,6.70,7.76,6.72,-6.72,-6.73,-6.10,1.02,1.04,1.03
197.22,7.75,6.74,7.73,6.71,-6.71,-6.74,-6.16,1.04,1.01,1.01
199.19,7.73,6.75,7.69,6.70,-6.70,-6.74,-6.21,1.03,0.99,0.98
201.18,7.69,6.73,7.64,6.68,-6.68,-6.74,-6.27,1.01,0.96,0.96
203.19,7.60,6.66,7.59,6.65,-6.65,-6.75,-6.33,0.95,0.94,0.94
205.23,7.50,6.59,7.53,6.62,-6.62,-6.75,-6.40,0.88,0.92,0.91
207.28,7.48,6.57,7.47,6.57,-6.57,-6.75,-6.46,0.90,0.89,0.90
209.35,7.43,6.55,7.40,6.53,-6.53,-6.75,-6.53,0.90,0.87,0.88
211.44,7.37,6.53,7.33,6.48,-6.48,-6.75,-6.60,0.89,0.85,0.84
213.56,7.29,6.46,7.27,6.44,-6.44,-6.75,-6.66,0.85,0.83,0.83
215.69,7.24,6.42,7.21,6.39,-6.39,-6.74,-6.73,0.85,0.81,0.82
217.85,7.15,6.35,7.14,6.35,-6.35,-6.74,-6.80,0.80,0.80,0.80
220.03,7.00,6.21,7.09,6.30,-6.30,-6.74,-6.86,0.70,0.79,0.79
222.23,6.94,6.18,7.04,6.26,-6.26,-6.73,-6.93,0.68,0.78,0.76
224.45,6.95,6.18,7.00,6.23,-6.23,-6.73,-6.99,0.72,0.77,0.77
226.70,6.97,6.20,6.97,6.19,-6.19,-6.72,-7.04,0.77,0.77,0.76
228.96,6.86,6.09,6.93,6.16,-6.16,-6.71,-7.09,0.70,0.77,0.77
231.25,6.91,6.13,6.90,6.12,-6.12,-6.70,-7.14,0.79,0.78,0.78
233.57,6.92,6.13,6.87,6.08,-6.08,-6.70,-7.18,0.84,0.79,0.79
235.90,6.89,6.09,6.84,6.04,-6.04,-6.69,-7.22,0.84,0.80,0.79
238.26,6.90,6.10,6.82,6.01,-6.01,-6.68,-7.24,0.89,0.81,0.80
240.64,6.84,6.02,6.81,5.98,-5.98,-6.66,-7.26,0.86,0.83,0.82
243.05,6.84,5.99,6.79,5.95,-5.95,-6.65,-7.28,0.89,0.85,0.85
245.48,6.85,5.98,6.78,5.91,-5.91,-6.64,-7.28,0.93,0.87,0.87
247.93,6.81,5.91,6.77,5.88,-5.88,-6.63,-7.27,0.93,0.89,0.90
250.41,6.72,5.81,6.77,5.86,-5.86,-6.61,-7.26,0.86,0.91,0.91
252.92,6.71,5.77,6.78,5.85,-5.85,-6.60,-7.23,0.86,0.93,0.94
255.45,6.73,5.76,6.81,5.85,-5.85,-6.58,-7.20,0.87,0.95,0.96
258.00,6.76,5.77,6.84,5.86,-5.86,-6.56,-7.16,0.90,0.98,0.99
260.58,6.83,5.83,6.88,5.88,-5.88,-6.55,-7.11,0.95,1.00,1.00
263.19,6.88,5.85,6.94,5.91,-5.91,-6.53,-7.05,0.97,1.03,1.03
265.82,6.94,5.90,7.00,5.95,-5.95,-6.51,-6.99,0.99,1.05,1.04
268.48,7.01,5.94,7.07,5.99,-5.99,-6.49,-6.92,1.01,1.07,1.06
271.16,7.13,6.03,7.13,6.04,-6.04,-6.47,-6.84,1.09,1.09,1.10
273.87,7.25,6.14,7.20,6.08,-6.08,-6.45,-6.75,1.17,1.12,1.11
276.61,7.38,6.23,7.26,6.12,-6.12,-6.42,-6.66,1.26,1.14,1.14
279.38,7.42,6.25,7.32,6.15,-6.15,-6.40,-6.57,1.27,1.17,1.17
282.17,7.43,6.24,7.36,6.17,-6.17,-6.37,-6.47,1.26,1.19,1.19
284.99,7.44,6.21,7.39,6.17,-6.17,-6.35,-6.37,1.27,1.22,1.23
287.84,7.45,6.21,7.41,6.16,-6.16,-6.32,-6.27,1.29,1.25,1.24
290.72,7.46,6.18,7.42,6.15,-6.15,-6.30,-6.16,1.31,1.28,1.28
293.63,7.43,6.13,7.43,6.12,-6.12,-6.27,-6.05,1.31,1.30,1.30
296.57,7.39,6.05,7.41,6.08,-6.08,-6.24,-5.95,1.31,1.33,1.33
299.53,7.32,5.96,7.39,6.03,-6.03,-6.21,-5.84,1.29,1.36,1.36
302.53,7.31,5.93,7.36,5.97,-5.97,-6.18,-5.73,1.34,1.39,1.38
305.55,7.32,5.90,7.32,5.91,-5.91,-6.14,-5.63,1.41,1.41,1.42
308.61,7.27,5.83,7.28,5.85,-5.85,-6.11,-5.52,1.42,1.43,1.44
311.69,7.23,5.77,7.24,5.79,-5.79,-6.08,-5.42,1.44,1.46,1.46
314.81,7.24,5.75,7.21,5.74,-5.74,-6.04,-5.32,1.50,1.48,1.49
317.96,7.24,5.73,7.19,5.69,-5.69,-6.01,-5.22,1.55,1.50,1.50
321.14,7.22,5.71,7.16,5.65,-5.65,-5.97,-5.12,1.57,1.52,1.51
324.35,7.08,5.55,7.14,5.61,-5.61,-5.93,-5.03,1.47,1.53,1.53
327.59,7.04,5.49,7.11,5.57,-5.57,-5.89,-4.93,1.47,1.54,1.54
330.87,7.03,5.48,7.09,5.53,-5.53,-5.85,-4.85,1.50,1.56,1.55
334.18,7.03,5.46,7.06,5.49,-5.49,-5.81,-4.76,1.54,1.57,1.57
337.52,7.03,5.45,7.04,5.46,-5.46,-5.77,-4.68,1.57,1.58,1.57
340.90,7.03,5.44,7.01,5.42,-5.42,-5.73,-4.60,1.60,1.58,1.59
344.30,7.03,5.43,6.98,5.39,-5.39,-5.68,-4.52,1.64,1.59,1.60
347.75,7.03,5.43,6.94,5.35,-5.35,-5.64,-4.45,1.68,1.60,1.60
351.23,6.97,5.37,6.91,5.31,-5.31,-5.59,-4.38,1.66,1.60,1.60
354.74,6.87,5.27,6.87,5.27,-5.27,-5.54,-4.32,1.60,1.60,1.60
358.28,6.83,5.22,6.84,5.23,-5.23,-5.49,-4.26,1.60,1.61,1.61
361.87,6.79,5.18,6.81,5.20,-5.20,-5.44,-4.20,1.59,1.61,1.61
365.49,6.76,5.14,6.77,5.16,-5.16,-5.39,-4.14,1.59,1.61,1.61
369.14,6.75,5.15,6.74,5.13,-5.13,-5.34,-4.09,1.62,1.61,1.60
372.83,6.73,5.13,6.70,5.09,-5.09,-5.28,-4.04,1.63,1.61,1.60
376.56,6.62,5.02,6.66,5.06,-5.06,-5.23,-3.99,1.56,1.60,1.60
380.33,6.58,4.97,6.63,5.03,-5.03,-5.17,-3.95,1.55,1.60,1.61
384.13,6.58,4.97,6.61,5.01,-5.01,-5.11,-3.91,1.57,1.59,1.60
387.97,6.59,5.00,6.59,5.00,-5.00,-5.05,-3.87,1.59,1.59,1.59
391.85,6.59,5.01,6.59,5.00,-5.00,-4.99,-3.84,1.59,1.59,1.58
395.77,6.59,5.00,6.59,5.01,-5.01,-4.93,-3.80,1.58,1.58,1.59
399.73,6.59,5.01,6.59,5.02,-5.02,-4.87,-3.77,1.57,1.57,1.58
403.72,6.59,5.01,6.59,5.02,-5.02,-4.80,-3.74,1.56,1.57,1.58
407.76,6.59,5.02,6.59,5.03,-5.03,-4.73,-3.72,1.56,1.56,1.56
411.84,6.58,5.02,6.60,5.04,-5.04,-4.67,-3.69,1.54,1.56,1.56
415.96,6.58,5.02,6.61,5.05,-5.05,-4.59,-3.67,1.53,1.56,1.56
420.12,6.66,5.10,6.62,5.06,-5.06,-4.52,-3.64,1.60,1.56,1.56
424.32,6.69,5.13,6.63,5.06,-5.06,-4.45,-3.62,1.62,1.57,1.56
428.56,6.70,5.13,6.64,5.07,-5.07,-4.37,-3.60,1.63,1.58,1.57
432.85,6.70,5.12,6.66,5.07,-5.07,-4.30,-3.57,1.63,1.59,1.58
437.18,6.66,5.07,6.68,5.07,-5.07,-4.22,-3.55,1.59,1.61,1.59
441.55,6.63,5.00,6.71,5.07,-5.07,-4.14,-3.53,1.56,1.64,1.62
445.96,6.63,4.97,6.73,5.06,-5.06,-4.05,-3.51,1.57,1.67,1.65
450.42,6.67,4.99,6.75,5.05,-5.05,-3.97,-3.48,1.62,1.70,1.68
454.93,6.73,5.00,6.77,5.02,-5.02,-3.88,-3.45,1.71,1.74,1.73
459.48,6.79,5.01,6.77,4.99,-4.99,-3.79,-3.43,1.80,1.79,1.78
464.07,6.80,4.97,6.77,4.94,-4.94,-3.70,-3.40,1.86,1.83,1.83
468.71,6.81,4.92,6.77,4.88,-4.88,-3.60,-3.36,1.92,1.88,1.89
473.40,6.85,4.92,6.75,4.82,-4.82,-3.51,-3.33,2.02,1.93,1.93
478.13,6.78,4.79,6.74,4.76,-4.76,-3.41,-3.29,2.02,1.98,1.99
482.91,6.74,4.71,6.70,4.68,-4.68,-3.30,-3.24,2.06,2.02,2.03
487.74,6.67,4.60,6.66,4.60,-4.60,-3.20,-3.20,2.07,2.07,2.07
492.62,6.58,4.46,6.60,4.50,-4.50,-3.09,-3.15,2.08,2.10,2.12
497.55,6.49,4.35,6.52,4.39,-4.39,-2.98,-3.10,2.10,2.13,2.13
502.52,6.39,4.22,6.42,4.27,-4.27,-2.87,-3.04,2.12,2.15,2.16
507.55,6.26,4.08,6.30,4.14,-4.14,-2.75,-2.98,2.12,2.17,2.17
512.62,6.17,3.99,6.17,3.99,-3.99,-2.63,-2.91,2.17,2.17,2.18
517.75,6.05,3.86,6.01,3.84,-3.84,-2.51,-2.84,2.21,2.17,2.19
522.93,5.87,3.69,5.84,3.68,-3.68,-2.38,-2.77,2.18,2.16,2.18
528.16,5.66,3.51,5.65,3.51,-3.51,-2.25,-2.69,2.15,2.14,2.15
533.44,5.46,3.34,5.43,3.33,-3.33,-2.11,-2.61,2.13,2.11,2.12
538.77,5.24,3.15,5.19,3.12,-3.12,-1.98,-2.52,2.12,2.07,2.09
544.16,4.97,2.93,4.93,2.91,-2.91,-1.83,-2.44,2.06,2.03,2.04
549.60,4.68,2.69,4.65,2.67,-2.67,-1.69,-2.35,2.01,1.98,1.99
555.10,4.43,2.50,4.34,2.42,-2.42,-1.54,-2.25,2.01,1.93,1.93
