frequency,raw,error,smoothed,error_smoothed,equalization,parametric_eq,fixed_band_eq,equalized_raw,equalized_smoothed,target
20.00,15.43,8.71,15.43,8.68,-8.68,-8.61,-3.77,6.75,6.75,6.72
20.20,15.42,8.70,15.42,8.68,-8.68,-8.62,-3.87,6.74,6.74,6.72
20.40,15.40,8.68,15.41,8.67,-8.67,-8.63,-3.98,6.73,6.73,6.72
20.61,15.39,8.67,15.39,8.67,-8.67,-8.63,-4.08,6.72,6.72,6.72
20.81,15.37,8.65,15.38,8.66,-8.66,-8.64,-4.19,6.71,6.71,6.72
21.02,15.35,8.63,15.36,8.66,-8.66,-8.64,-4.31,6.70,6.70,6.72
21.23,15.34,8.64,15.34,8.65,-8.65,-8.65,-4.43,6.69,6.69,6.70
21.44,15.32,8.63,15.32,8.65,-8.65,-8.65,-4.55,6.68,6.68,6.69
21.66,15.30,8.63,15.30,8.64,-8.64,-8.65,-4.67,6.66,6.66,6.67
21.87,15.28,8.63,15.28,8.63,-8.63,-8.65,-4.80,6.65,6.65,6.65
22.09,15.26,8.62,15.26,8.63,-8.63,-8.65,-4.93,6.63,6.63,6.64
22.31,15.23,8.62,15.24,8.62,-8.62,-8.64,-5.06,6.61,6.61,6.61
22.54,15.21,8.62,15.21,8.62,-8.62,-8.64,-5.20,6.59,6.59,6.59
22.76,15.19,8.62,15.19,8.62,-8.62,-8.63,-5.34,6.57,6.57,6.57
22.99,15.16,8.62,15.16,8.62,-8.62,-8.63,-5.49,6.55,6.55,6.54
23.22,15.13,8.62,15.14,8.61,-8.61,-8.62,-5.64,6.52,6.52,6.51
23.45,15.10,8.62,15.11,8.60,-8.60,-8.61,-5.79,6.50,6.50,6.48
23.69,15.07,8.60,15.08,8.60,-8.60,-8.60,-5.94,6.48,6.48,6.47
23.92,15.05,8.60,15.05,8.58,-8.58,-8.59,-6.10,6.47,6.46,6.45
24.16,15.02,8.58,15.01,8.57,-8.57,-8.57,-6.26,6.45,6.44,6.44
24.40,14.98,8.56,14.98,8.56,-8.56,-8.56,-6.43,6.42,6.42,6.42
24.65,14.94,8.54,14.95,8.54,-8.54,-8.54,-6.60,6.40,6.40,6.40
24.89,14.91,8.53,14.91,8.53,-8.53,-8.52,-6.77,6.39,6.39,6.38
25.14,14.87,8.50,14.87,8.50,-8.50,-8.51,-6.94,6.37,6.37,6.37
25.39,14.83,8.48,14.83,8.48,-8.48,-8.49,-7.12,6.35,6.35,6.35
25.65,14.79,8.45,14.80,8.46,-8.46,-8.46,-7.29,6.33,6.34,6.34
25.91,14.75,8.44,14.76,8.43,-8.43,-8.44,-7.47,6.32,6.32,6.32
26.16,14.71,8.41,14.71,8.41,-8.41,-8.42,-7.65,6.30,6.31,6.30
26.43,14.67,8.38,14.67,8.38,-8.38,-8.39,-7.83,6.29,6.29,6.29
26.69,14.63,8.37,14.63,8.35,-8.35,-8.37,-8.01,6.28,6.27,6.26
26.96,14.58,8.33,14.58,8.33,-8.33,-8.34,-8.18,6.26,6.26,6.25
27.23,14.54,8.30,14.54,8.30,-8.30,-8.31,-8.36,6.25,6.24,6.24
27.50,14.49,8.26,14.49,8.26,-8.26,-8.28,-8.53,6.23,6.23,6.23
27.77,14.44,8.23,14.45,8.23,-8.23,-8.25,-8.70,6.21,6.21,6.21
28.05,14.40,8.20,14.40,8.20,-8.20,-8.22,-8.86,6.20,6.20,6.20
28.33,14.35,8.17,14.35,8.17,-8.17,-8.18,-9.01,6.19,6.19,6.18
28.62,14.30,8.13,14.31,8.13,-8.13,-8.15,-9.16,6.17,6.17,6.17
28.90,14.25,8.10,14.26,8.10,-8.10,-8.12,-9.29,6.15,6.16,6.15
29.19,14.20,8.07,14.21,8.06,-8.06,-8.08,-9.42,6.14,6.15,6.13
29.48,14.16,8.03,14.16,8.03,-8.03,-8.04,-9.53,6.13,6.13,6.13
29.78,14.11,7.99,14.11,7.99,-7.99,-8.00,-9.63,6.12,6.12,6.12
30.08,14.06,7.95,14.06,7.96,-7.96,-7.97,-9.71,6.11,6.11,6.11
30.38,14.01,7.92,14.01,7.92,-7.92,-7.93,-9.78,6.09,6.09,6.09
30.68,13.96,7.88,13.96,7.89,-7.89,-7.89,-9.83,6.08,6.08,6.08
30.99,13.92,7.87,13.91,7.85,-7.85,-7.84,-9.87,6.08,6.06,6.05
31.30,13.86,7.82,13.85,7.81,-7.81,-7.80,-9.89,6.05,6.04,6.04
31.61,13.80,7.77,13.80,7.77,-7.77,-7.76,-9.89,6.03,6.03,6.03
31.93,13.74,7.73,13.74,7.74,-7.74,-7.72,-9.87,6.01,6.01,6.01
32.24,13.68,7.70,13.69,7.70,-7.70,-7.67,-9.84,5.98,5.99,5.98
32.57,13.62,7.66,13.63,7.66,-7.66,-7.63,-9.79,5.96,5.97,5.96
32.89,13.56,7.61,13.57,7.62,-7.62,-7.58,-9.72,5.94,5.95,5.95
33.22,13.51,7.59,13.51,7.58,-7.58,-7.54,-9.64,5.93,5.93,5.92
33.55,13.44,7.53,13.45,7.54,-7.54,-7.49,-9.55,5.90,5.91,5.91
33.89,13.38,7.50,13.39,7.50,-7.50,-7.45,-9.45,5.88,5.89,5.88
34.23,13.32,7.46,13.32,7.45,-7.45,-7.40,-9.34,5.87,5.87,5.86
34.57,13.26,7.42,13.26,7.41,-7.41,-7.35,-9.22,5.85,5.85,5.84
34.92,13.19,7.37,13.19,7.37,-7.37,-7.31,-9.09,5.83,5.83,5.82
35.27,13.13,7.33,13.13,7.32,-7.32,-7.26,-8.95,5.81,5.81,5.80
35.62,13.06,7.28,13.06,7.27,-7.27,-7.21,-8.81,5.79,5.79,5.78
35.97,12.99,7.23,12.99,7.23,-7.23,-7.16,-8.67,5.77,5.76,5.76
36.33,12.92,7.18,12.92,7.18,-7.18,-7.11,-8.52,5.75,5.74,5.74
36.70,12.84,7.12,12.85,7.13,-7.13,-7.06,-8.38,5.72,5.72,5.72
37.06,12.77,7.07,12.78,7.07,-7.07,-7.01,-8.23,5.70,5.70,5.70
37.43,12.70,7.02,12.70,7.02,-7.02,-6.96,-8.08,5.68,5.68,5.68
37.81,12.62,6.96,12.63,6.97,-6.97,-6.91,-7.94,5.66,5.66,5.66
38.19,12.55,6.92,12.55,6.91,-6.91,-6.86,-7.79,5.64,5.64,5.63
38.57,12.47,6.85,12.47,6.85,-6.85,-6.81,-7.65,5.62,5.62,5.62
38.95,12.39,6.80,12.40,6.80,-6.80,-6.76,-7.51,5.60,5.60,5.59
39.34,12.32,6.75,12.32,6.74,-6.74,-6.71,-7.37,5.58,5.58,5.57
39.74,12.24,6.69,12.24,6.68,-6.68,-6.66,-7.23,5.56,5.56,5.55
40.14,12.16,6.62,12.16,6.62,-6.62,-6.61,-7.10,5.54,5.54,5.54
40.54,12.08,6.56,12.08,6.56,-6.56,-6.56,-6.98,5.52,5.52,5.52
40.94,12.00,6.50,12.01,6.50,-6.50,-6.51,-6.85,5.50,5.51,5.50
41.35,11.92,6.45,11.93,6.44,-6.44,-6.46,-6.73,5.48,5.49,5.47
41.76,11.85,6.38,11.85,6.38,-6.38,-6.41,-6.62,5.47,5.47,5.47
42.18,11.77,6.32,11.77,6.32,-6.32,-6.36,-6.51,5.45,5.45,5.45
42.60,11.69,6.26,11.69,6.26,-6.26,-6.31,-6.40,5.43,5.43,5.43
43.03,11.61,6.19,11.61,6.20,-6.20,-6.25,-6.30,5.41,5.41,5.42
43.46,11.53,6.14,11.54,6.14,-6.14,-6.20,-6.21,5.39,5.39,5.39
43.90,11.46,6.09,11.46,6.09,-6.09,-6.15,-6.11,5.38,5.37,5.37
44.33,11.38,6.03,11.39,6.03,-6.03,-6.10,-6.02,5.35,5.36,5.35
44.78,11.30,5.97,11.31,5.97,-5.97,-6.05,-5.94,5.33,5.34,5.33
45.23,11.24,5.94,11.24,5.92,-5.92,-6.00,-5.86,5.33,5.32,5.30
45.68,11.16,5.88,11.16,5.86,-5.86,-5.95,-5.79,5.30,5.30,5.28
46.13,11.09,5.82,11.09,5.81,-5.81,-5.90,-5.72,5.28,5.28,5.27
46.60,11.02,5.76,11.02,5.76,-5.76,-5.85,-5.65,5.26,5.26,5.26
47.06,10.95,5.71,10.95,5.71,-5.71,-5.81,-5.59,5.24,5.24,5.24
47.53,10.88,5.66,10.88,5.66,-5.66,-5.76,-5.53,5.22,5.22,5.22
48.01,10.81,5.60,10.81,5.62,-5.62,-5.71,-5.47,5.20,5.20,5.21
48.49,10.74,5.56,10.74,5.57,-5.57,-5.66,-5.42,5.17,5.18,5.18
48.97,10.67,5.52,10.68,5.52,-5.52,-5.61,-5.37,5.15,5.15,5.15
49.46,10.61,5.49,10.61,5.48,-5.48,-5.57,-5.33,5.13,5.13,5.12
49.96,10.54,5.45,10.55,5.44,-5.44,-5.52,-5.29,5.10,5.11,5.09
50.46,10.49,5.41,10.49,5.40,-5.40,-5.47,-5.25,5.10,5.09,5.08
50.96,10.42,5.36,10.42,5.36,-5.36,-5.43,-5.22,5.06,5.06,5.06
51.47,10.36,5.33,10.36,5.32,-5.32,-5.38,-5.19,5.04,5.04,5.03
51.99,10.30,5.29,10.30,5.29,-5.29,-5.34,-5.16,5.01,5.02,5.01
52.51,10.24,5.25,10.25,5.26,-5.26,-5.29,-5.13,4.99,4.99,4.99
53.03,10.18,5.21,10.19,5.22,-5.22,-5.25,-5.10,4.96,4.97,4.97
53.56,10.13,5.19,10.13,5.19,-5.19,-5.21,-5.08,4.94,4.94,4.94
54.10,10.08,5.16,10.08,5.16,-5.16,-5.17,-5.06,4.93,4.92,4.92
54.64,10.02,5.13,10.02,5.13,-5.13,-5.13,-5.04,4.90,4.90,4.89
55.18,9.97,5.10,9.97,5.10,-5.10,-5.09,-5.02,4.88,4.87,4.87
55.74,9.91,5.07,9.92,5.07,-5.07,-5.05,-5.00,4.85,4.85,4.84
56.29,9.86,5.04,9.86,5.04,-5.04,-5.01,-4.99,4.83,4.83,4.82
56.86,9.81,5.02,9.81,5.01,-5.01,-4.97,-4.97,4.81,4.80,4.79
57.42,9.76,4.99,9.76,4.98,-4.98,-4.94,-4.95,4.78,4.78,4.77
58.00,9.70,4.95,9.71,4.95,-4.95,-4.90,-4.93,4.75,4.75,4.75
58.58,9.65,4.93,9.65,4.93,-4.93,-4.87,-4.91,4.73,4.73,4.72
59.16,9.60,4.90,9.60,4.90,-4.90,-4.83,-4.90,4.70,4.70,4.70
59.76,9.54,4.86,9.55,4.87,-4.87,-4.80,-4.88,4.67,4.67,4.68
60.35,9.50,4.85,9.50,4.85,-4.85,-4.77,-4.86,4.65,4.65,4.65
60.96,9.44,4.81,9.44,4.82,-4.82,-4.74,-4.83,4.62,4.62,4.63
61.57,9.39,4.80,9.39,4.80,-4.80,-4.71,-4.81,4.60,4.59,4.59
62.18,9.34,4.78,9.34,4.77,-4.77,-4.68,-4.78,4.57,4.57,4.56
62.80,9.29,4.76,9.29,4.75,-4.75,-4.65,-4.76,4.55,4.54,4.53
63.43,9.23,4.73,9.24,4.72,-4.72,-4.63,-4.73,4.51,4.51,4.50
64.07,9.18,4.71,9.18,4.70,-4.70,-4.60,-4.70,4.49,4.49,4.47
64.71,9.13,4.68,9.13,4.67,-4.67,-4.58,-4.67,4.46,4.46,4.45
65.35,9.07,4.64,9.08,4.64,-4.64,-4.56,-4.64,4.43,4.44,4.43
66.01,9.02,4.61,9.03,4.62,-4.62,-4.54,-4.61,4.40,4.41,4.41
66.67,8.98,4.60,8.98,4.59,-4.59,-4.52,-4.57,4.39,4.38,4.38
67.33,8.93,4.57,8.93,4.57,-4.57,-4.50,-4.54,4.37,4.36,4.36
68.01,8.87,4.54,8.88,4.54,-4.54,-4.48,-4.50,4.33,4.34,4.33
68.69,8.83,4.52,8.83,4.52,-4.52,-4.46,-4.46,4.32,4.31,4.31
69.37,8.77,4.49,8.78,4.49,-4.49,-4.44,-4.43,4.28,4.28,4.28
70.07,8.72,4.47,8.73,4.47,-4.47,-4.43,-4.39,4.25,4.26,4.25
70.77,8.68,4.45,8.68,4.45,-4.45,-4.41,-4.35,4.24,4.23,4.23
71.48,8.63,4.43,8.63,4.43,-4.43,-4.40,-4.32,4.21,4.20,4.20
72.19,8.57,4.40,8.58,4.41,-4.41,-4.39,-4.28,4.16,4.17,4.17
72.91,8.53,4.40,8.53,4.39,-4.39,-4.37,-4.24,4.14,4.14,4.13
73.64,8.47,4.37,8.48,4.37,-4.37,-4.36,-4.21,4.10,4.10,4.10
74.38,8.42,4.35,8.43,4.36,-4.36,-4.35,-4.18,4.07,4.07,4.07
75.12,8.38,4.36,8.38,4.34,-4.34,-4.34,-4.14,4.04,4.03,4.02
75.87,8.32,4.33,8.33,4.33,-4.33,-4.33,-4.11,3.99,4.00,3.99
76.63,8.27,4.31,8.27,4.32,-4.32,-4.33,-4.09,3.96,3.96,3.96
77.40,8.22,4.30,8.22,4.30,-4.30,-4.32,-4.06,3.92,3.92,3.92
78.17,8.17,4.31,8.17,4.29,-4.29,-4.31,-4.04,3.88,3.88,3.86
78.95,8.12,4.28,8.12,4.28,-4.28,-4.30,-4.01,3.84,3.84,3.84
79.74,8.06,4.26,8.07,4.27,-4.27,-4.30,-3.99,3.79,3.80,3.80
80.54,8.01,4.26,8.01,4.26,-4.26,-4.29,-3.98,3.75,3.75,3.75
81.35,7.96,4.25,7.96,4.25,-4.25,-4.29,-3.96,3.71,3.71,3.71
82.16,7.91,4.25,7.91,4.24,-4.24,-4.28,-3.95,3.67,3.67,3.66
82.98,7.85,4.23,7.85,4.23,-4.23,-4.28,-3.94,3.62,3.62,3.62
83.81,7.80,4.24,7.80,4.22,-4.22,-4.28,-3.93,3.58,3.58,3.56
84.65,7.73,4.21,7.74,4.21,-4.21,-4.27,-3.93,3.52,3.53,3.52
85.50,7.68,4.20,7.69,4.21,-4.21,-4.27,-3.93,3.48,3.48,3.48
86.35,7.63,4.20,7.63,4.20,-4.20,-4.27,-3.93,3.44,3.43,3.43
87.22,7.56,4.18,7.57,4.19,-4.19,-4.26,-3.93,3.37,3.38,3.38
88.09,7.51,4.19,7.51,4.18,-4.18,-4.26,-3.94,3.33,3.33,3.32
88.97,7.46,4.18,7.46,4.17,-4.17,-4.26,-3.95,3.29,3.28,3.28
89.86,7.40,4.17,7.40,4.17,-4.17,-4.26,-3.96,3.24,3.23,3.23
90.76,7.34,4.17,7.34,4.16,-4.16,-4.26,-3.98,3.18,3.18,3.17
91.66,7.28,4.16,7.28,4.16,-4.16,-4.25,-4.00,3.13,3.13,3.12
92.58,7.22,4.16,7.23,4.15,-4.15,-4.25,-4.02,3.07,3.07,3.06
93.51,7.16,4.14,7.17,4.15,-4.15,-4.25,-4.05,3.01,3.02,3.02
94.44,7.11,4.14,7.11,4.15,-4.15,-4.25,-4.07,2.96,2.96,2.97
95.39,7.05,4.14,7.05,4.15,-4.15,-4.25,-4.10,2.91,2.91,2.91
96.34,6.99,4.15,7.00,4.15,-4.15,-4.25,-4.14,2.85,2.85,2.84
97.30,6.93,4.14,6.94,4.15,-4.15,-4.25,-4.17,2.79,2.79,2.79
98.28,6.88,4.15,6.88,4.15,-4.15,-4.24,-4.21,2.74,2.73,2.73
99.26,6.82,4.16,6.82,4.15,-4.15,-4.24,-4.25,2.67,2.67,2.66
100.25,6.77,4.16,6.77,4.15,-4.15,-4.24,-4.29,2.62,2.61,2.61
101.25,6.71,4.16,6.71,4.16,-4.16,-4.24,-4.33,2.56,2.55,2.55
102.27,6.65,4.17,6.65,4.16,-4.16,-4.24,-4.37,2.49,2.49,2.48
103.29,6.59,4.18,6.60,4.17,-4.17,-4.24,-4.42,2.42,2.43,2.41
104.32,6.54,4.18,6.54,4.18,-4.18,-4.24,-4.46,2.37,2.36,2.36
105.37,6.48,4.18,6.48,4.19,-4.19,-4.24,-4.51,2.30,2.30,2.30
106.42,6.42,4.19,6.43,4.19,-4.19,-4.23,-4.55,2.23,2.23,2.23
107.48,6.36,4.20,6.37,4.20,-4.20,-4.23,-4.60,2.16,2.17,2.16
108.56,6.31,4.22,6.32,4.22,-4.22,-4.23,-4.64,2.10,2.10,2.09
109.64,6.26,4.23,6.26,4.23,-4.23,-4.23,-4.69,2.03,2.03,2.03
110.74,6.21,4.24,6.21,4.24,-4.24,-4.23,-4.73,1.97,1.96,1.97
111.85,6.15,4.25,6.15,4.26,-4.26,-4.23,-4.77,1.90,1.90,1.90
112.97,6.10,4.28,6.10,4.27,-4.27,-4.23,-4.81,1.83,1.83,1.82
114.10,6.04,4.28,6.05,4.29,-4.29,-4.23,-4.85,1.75,1.76,1.76
115.24,6.00,4.31,6.00,4.30,-4.30,-4.23,-4.88,1.70,1.70,1.69
116.39,5.95,4.33,5.95,4.32,-4.32,-4.22,-4.91,1.63,1.63,1.62
117.55,5.90,4.35,5.90,4.34,-4.34,-4.22,-4.94,1.57,1.56,1.55
118.73,5.85,4.36,5.85,4.35,-4.35,-4.22,-4.96,1.50,1.50,1.49
119.92,5.80,4.37,5.80,4.37,-4.37,-4.22,-4.97,1.44,1.44,1.43
121.12,5.75,4.38,5.75,4.38,-4.38,-4.22,-4.99,1.37,1.37,1.37
122.33,5.70,4.40,5.71,4.40,-4.40,-4.22,-4.99,1.31,1.31,1.30
123.55,5.66,4.41,5.66,4.41,-4.41,-4.23,-4.99,1.25,1.25,1.25
124.79,5.61,4.42,5.62,4.43,-4.43,-4.23,-4.99,1.19,1.19,1.19
126.03,5.57,4.43,5.57,4.44,-4.44,-4.23,-4.98,1.13,1.13,1.14
127.29,5.52,4.44,5.53,4.45,-4.45,-4.23,-4.97,1.07,1.08,1.08
128.57,5.48,4.47,5.48,4.46,-4.46,-4.23,-4.95,1.02,1.02,1.01
129.85,5.44,4.48,5.44,4.48,-4.48,-4.23,-4.92,0.97,0.97,0.96
131.15,5.40,4.49,5.40,4.49,-4.49,-4.24,-4.89,0.92,0.91,0.91
132.46,5.36,4.51,5.36,4.50,-4.50,-4.24,-4.86,0.87,0.86,0.85
133.79,5.32,4.51,5.32,4.50,-4.50,-4.24,-4.82,0.82,0.81,0.81
135.12,5.27,4.52,5.28,4.51,-4.51,-4.25,-4.77,0.76,0.77,0.75
136.48,5.23,4.51,5.24,4.51,-4.51,-4.25,-4.73,0.72,0.72,0.72
137.84,5.19,4.51,5.20,4.52,-4.52,-4.26,-4.68,0.68,0.68,0.68
139.22,5.16,4.53,5.16,4.52,-4.52,-4.27,-4.63,0.65,0.64,0.63
140.61,5.12,4.53,5.12,4.52,-4.52,-4.27,-4.57,0.61,0.61,0.59
142.02,5.08,4.51,5.08,4.51,-4.51,-4.28,-4.51,0.57,0.57,0.57
143.44,5.04,4.50,5.05,4.51,-4.51,-4.29,-4.45,0.54,0.54,0.54
144.87,5.00,4.50,5.01,4.50,-4.50,-4.30,-4.39,0.50,0.51,0.50
146.32,4.97,4.50,4.97,4.49,-4.49,-4.31,-4.33,0.48,0.48,0.47
147.78,4.93,4.48,4.93,4.48,-4.48,-4.32,-4.27,0.45,0.45,0.45
149.26,4.90,4.48,4.89,4.48,-4.48,-4.33,-4.21,0.43,0.42,0.42
150.75,4.85,4.47,4.86,4.47,-4.47,-4.34,-4.15,0.39,0.39,0.38
152.26,4.82,4.46,4.82,4.46,-4.46,-4.35,-4.09,0.37,0.36,0.36
153.78,4.78,4.45,4.78,4.45,-4.45,-4.36,-4.03,0.34,0.34,0.33
155.32,4.74,4.43,4.74,4.43,-4.43,-4.37,-3.97,0.31,0.31,0.31
156.88,4.70,4.42,4.70,4.42,-4.42,-4.38,-3.91,0.28,0.28,0.28
158.44,4.66,4.41,4.66,4.41,-4.41,-4.39,-3.86,0.25,0.25,0.25
160.03,4.62,4.40,4.63,4.40,-4.40,-4.40,-3.81,0.23,0.23,0.22
161.63,4.58,4.39,4.59,4.38,-4.38,-4.41,-3.75,0.20,0.20,0.19
163.24,4.54,4.38,4.54,4.37,-4.37,-4.42,-3.70,0.17,0.17,0.16
164.88,4.50,4.36,4.50,4.36,-4.36,-4.43,-3.66,0.14,0.14,0.14
166.53,4.46,4.34,4.46,4.35,-4.35,-4.43,-3.61,0.12,0.11,0.12
168.19,4.42,4.34,4.42,4.33,-4.33,-4.44,-3.57,0.09,0.09,0.08
169.87,4.37,4.32,4.38,4.32,-4.32,-4.44,-3.53,0.05,0.06,0.05
171.57,4.33,4.31,4.33,4.31,-4.31,-4.44,-3.49,0.03,0.02,0.02
173.29,4.28,4.28,4.29,4.30,-4.30,-4.44,-3.46,-0.01,-0.01,0.00
175.02,4.24,4.28,4.24,4.28,-4.28,-4.44,-3.43,-0.04,-0.04,-0.04
176.77,4.19,4.27,4.19,4.27,-4.27,-4.43,-3.40,-0.08,-0.08,-0.08
178.54,4.14,4.26,4.14,4.25,-4.25,-4.42,-3.37,-0.11,-0.11,-0.12
180.32,4.09,4.24,4.09,4.24,-4.24,-4.41,-3.35,-0.14,-0.14,-0.15
182.13,4.03,4.21,4.04,4.22,-4.22,-4.39,-3.32,-0.19,-0.18,-0.18
183.95,3.98,4.20,3.99,4.20,-4.20,-4.37,-3.31,-0.22,-0.21,-0.22
185.79,3.93,4.19,3.93,4.18,-4.18,-4.34,-3.29,-0.25,-0.25,-0.26
187.65,3.88,4.18,3.88,4.16,-4.16,-4.31,-3.28,-0.28,-0.28,-0.30
189.52,3.81,4.14,3.82,4.13,-4.13,-4.28,-3.26,-0.32,-0.31,-0.33
191.42,3.76,4.11,3.76,4.11,-4.11,-4.24,-3.25,-0.34,-0.35,-0.35
193.33,3.70,4.07,3.70,4.08,-4.08,-4.20,-3.25,-0.38,-0.38,-0.37
195.27,3.64,4.04,3.64,4.05,-4.05,-4.15,-3.24,-0.41,-0.41,-0.40
197.22,3.58,4.01,3.58,4.01,-4.01,-4.10,-3.24,-0.43,-0.43,-0.43
199.19,3.52,4.00,3.52,3.98,-3.98,-4.04,-3.24,-0.45,-0.46,-0.48
201.18,3.46,3.95,3.46,3.94,-3.94,-3.98,-3.23,-0.48,-0.48,-0.49
203.19,3.39,3.90,3.39,3.90,-3.90,-3.92,-3.24,-0.51,-0.51,-0.51
205.23,3.32,3.85,3.33,3.85,-3.85,-3.85,-3.24,-0.53,-0.53,-0.53
207.28,3.26,3.80,3.26,3.81,-3.81,-3.78,-3.24,-0.55,-0.55,-0.54
209.35,3.19,3.76,3.20,3.76,-3.76,-3.71,-3.24,-0.57,-0.57,-0.57
211.44,3.13,3.72,3.13,3.72,-3.72,-3.64,-3.24,-0.58,-0.58,-0.59
213.56,3.06,3.67,3.06,3.66,-3.66,-3.56,-3.25,-0.60,-0.60,-0.61
215.69,2.99,3.60,3.00,3.61,-3.61,-3.48,-3.25,-0.62,-0.61,-0.61
217.85,2.92,3.54,2.93,3.55,-3.55,-3.40,-3.25,-0.63,-0.63,-0.62
220.03,2.86,3.51,2.86,3.50,-3.50,-3.32,-3.25,-0.63,-0.64,-0.65
222.23,2.79,3.45,2.79,3.43,-3.43,-3.24,-3.25,-0.64,-0.64,-0.66
224.45,2.72,3.37,2.72,3.37,-3.37,-3.16,-3.25,-0.65,-0.65,-0.65
226.70,2.65,3.31,2.65,3.30,-3.30,-3.07,-3.24,-0.65,-0.65,-0.66
228.96,2.58,3.24,2.58,3.23,-3.23,-2.99,-3.23,-0.65,-0.65,-0.66
231.25,2.51,3.16,2.51,3.16,-3.16,-2.90,-3.22,-0.65,-0.65,-0.65
233.57,2.44,3.08,2.44,3.08,-3.08,-2.82,-3.21,-0.64,-0.64,-0.64
235.90,2.36,3.00,2.37,3.00,-3.00,-2.74,-3.19,-0.64,-0.63,-0.64
238.26,2.30,2.94,2.30,2.92,-2.92,-2.65,-3.16,-0.62,-0.62,-0.64
240.64,2.22,2.84,2.22,2.83,-2.83,-2.57,-3.14,-0.61,-0.61,-0.62
243.05,2.15,2.75,2.15,2.75,-2.75,-2.49,-3.11,-0.59,-0.60,-0.60
245.48,2.07,2.65,2.07,2.65,-2.65,-2.41,-3.07,-0.58,-0.58,-0.58
247.93,2.00,2.57,2.00,2.56,-2.56,-2.32,-3.03,-0.56,-0.56,-0.57
250.41,1.93,2.49,1.92,2.47,-2.47,-2.24,-2.98,-0.54,-0.54,-0.56
252.92,1.85,2.37,1.85,2.37,-2.37,-2.16,-2.93,-0.52,-0.52,-0.52
255.45,1.77,2.27,1.78,2.28,-2.28,-2.08,-2.87,-0.51,-0.50,-0.50
258.00,1.70,2.18,1.70,2.18,-2.18,-2.00,-2.81,-0.48,-0.48,-0.48
260.58,1.63,2.09,1.63,2.09,-2.09,-1.93,-2.74,-0.46,-0.46,-0.46
263.19,1.55,1.99,1.56,2.00,-2.00,-1.85,-2.67,-0.44,-0.43,-0.44
265.82,1.48,1.90,1.49,1.90,-1.90,-1.77,-2.60,-0.42,-0.41,-0.42
268.48,1.42,1.81,1.43,1.82,-1.82,-1.69,-2.51,-0.39,-0.39,-0.39
271.16,1.36,1.72,1.37,1.73,-1.73,-1.62,-2.43,-0.36,-0.36,-0.36
273.87,1.29,1.63,1.31,1.64,-1.64,-1.54,-2.34,-0.35,-0.34,-0.34
276.61,1.24,1.55,1.25,1.56,-1.56,-1.47,-2.24,-0.32,-0.31,-0.31
279.38,1.18,1.47,1.19,1.48,-1.48,-1.39,-2.15,-0.29,-0.29,-0.29
282.17,1.13,1.40,1.13,1.40,-1.40,-1.32,-2.05,-0.26,-0.26,-0.27
284.99,1.07,1.31,1.08,1.31,-1.31,-1.24,-1.94,-0.24,-0.24,-0.24
287.84,1.02,1.24,1.02,1.23,-1.23,-1.17,-1.84,-0.21,-0.21,-0.22
290.72,0.97,1.15,0.97,1.15,-1.15,-1.10,-1.73,-0.17,-0.18,-0.18
293.63,0.92,1.08,0.91,1.06,-1.06,-1.02,-1.62,-0.14,-0.15,-0.16
296.57,0.86,0.99,0.86,0.98,-0.98,-0.95,-1.50,-0.11,-0.12,-0.13
299.53,0.80,0.90,0.80,0.89,-0.89,-0.88,-1.39,-0.08,-0.09,-0.10
302.53,0.74,0.82,0.74,0.80,-0.80,-0.81,-1.27,-0.05,-0.06,-0.08
305.55,0.67,0.70,0.67,0.70,-0.70,-0.73,-1.15,-0.03,-0.03,-0.03
308.61,0.61,0.61,0.61,0.61,-0.61,-0.66,-1.04,0.01,0.00,0.00
311.69,0.54,0.50,0.54,0.51,-0.51,-0.59,-0.91,0.04,0.04,0.04
314.81,0.48,0.41,0.47,0.41,-0.41,-0.52,-0.79,0.08,0.07,0.07
317.96,0.40,0.30,0.40,0.30,-0.30,-0.44,-0.67,0.10,0.10,0.10
321.14,0.33,0.20,0.33,0.20,-0.20,-0.37,-0.55,0.13,0.13,0.13
324.35,0.25,0.10,0.26,0.10,-0.10,-0.30,-0.42,0.16,0.16,0.15
327.59,0.18,-0.01,0.18,-0.01,0.01,-0.22,-0.30,0.19,0.19,0.19
330.87,0.10,-0.12,0.10,-0.11,0.11,-0.15,-0.17,0.22,0.22,0.22
334.18,0.02,-0.22,0.02,-0.22,0.22,-0.08,-0.05,0.24,0.24,0.24
337.52,-0.05,-0.31,-0.06,-0.33,0.33,-0.00,0.08,0.28,0.27,0.26
340.90,-0.13,-0.42,-0.14,-0.43,0.43,0.07,0.20,0.30,0.29,0.29
344.30,-0.22,-0.53,-0.22,-0.53,0.53,0.15,0.33,0.31,0.32,0.31
347.75,-0.30,-0.64,-0.30,-0.63,0.63,0.22,0.46,0.34,0.34,0.34
351.23,-0.38,-0.74,-0.38,-0.74,0.74,0.30,0.59,0.36,0.36,0.36
354.74,-0.47,-0.84,-0.46,-0.84,0.84,0.37,0.72,0.37,0.38,0.37
358.28,-0.55,-0.94,-0.54,-0.94,0.94,0.45,0.85,0.39,0.40,0.39
361.87,-0.62,-1.03,-0.62,-1.04,1.04,0.53,0.98,0.42,0.42,0.41
365.49,-0.70,-1.14,-0.70,-1.13,1.13,0.60,1.11,0.44,0.44,0.44
369.14,-0.78,-1.23,-0.77,-1.23,1.23,0.68,1.24,0.45,0.46,0.45
372.83,-0.85,-1.31,-0.85,-1.32,1.32,0.76,1.37,0.48,0.48,0.46
376.56,-0.92,-1.40,-0.92,-1.42,1.42,0.84,1.50,0.50,0.50,0.48
380.33,-1.00,-1.51,-0.99,-1.50,1.50,0.92,1.64,0.51,0.51,0.51
384.13,-1.06,-1.59,-1.06,-1.59,1.59,1.00,1.77,0.53,0.53,0.53
387.97,-1.14,-1.69,-1.12,-1.67,1.67,1.09,1.90,0.54,0.55,0.55
391.85,-1.20,-1.77,-1.18,-1.76,1.76,1.17,2.04,0.56,0.57,0.57
395.77,-1.26,-1.86,-1.24,-1.84,1.84,1.25,2.17,0.58,0.60,0.60
399.73,-1.30,-1.92,-1.30,-1.92,1.92,1.34,2.30,0.62,0.62,0.62
403.72,-1.36,-1.99,-1.36,-1.99,1.99,1.42,2.43,0.64,0.64,0.63
407.76,-1.42,-2.07,-1.41,-2.07,2.07,1.51,2.57,0.65,0.66,0.65
411.84,-1.47,-2.15,-1.47,-2.15,2.15,1.60,2.70,0.68,0.68,0.68
415.96,-1.51,-2.21,-1.53,-2.23,2.23,1.69,2.83,0.73,0.71,0.70
420.12,-1.57,-2.29,-1.59,-2.31,2.31,1.78,2.96,0.75,0.73,0.72
424.32,-1.63,-2.38,-1.65,-2.40,2.40,1.87,3.09,0.77,0.75,0.75
428.56,-1.70,-2.47,-1.71,-2.49,2.49,1.96,3.21,0.79,0.77,0.77
432.85,-1.76,-2.55,-1.78,-2.57,2.57,2.05,3.33,0.82,0.80,0.79
437.18,-1.83,-2.65,-1.84,-2.66,2.66,2.14,3.45,0.84,0.82,0.82
441.55,-1.90,-2.75,-1.91,-2.76,2.76,2.24,3.57,0.86,0.85,0.85
445.96,-1.97,-2.84,-1.98,-2.85,2.85,2.33,3.68,0.88,0.87,0.87
450.42,-2.05,-2.93,-2.04,-2.94,2.94,2.43,3.79,0.89,0.90,0.88
454.93,-2.13,-3.05,-2.10,-3.03,3.03,2.52,3.89,0.90,0.93,0.92
459.48,-2.19,-3.13,-2.16,-3.11,3.11,2.62,3.99,0.93,0.95,0.94
464.07,-2.25,-3.22,-2.22,-3.20,3.20,2.72,4.08,0.95,0.98,0.97
468.71,-2.29,-3.30,-2.27,-3.27,3.27,2.82,4.17,0.99,1.01,1.01
473.40,-2.33,-3.36,-2.31,-3.35,3.35,2.92,4.25,1.02,1.04,1.03
478.13,-2.37,-3.43,-2.36,-3.42,3.42,3.02,4.32,1.06,1.06,1.06
482.91,-2.40,-3.49,-2.40,-3.49,3.49,3.12,4.38,1.09,1.09,1.09
487.74,-2.43,-3.55,-2.44,-3.56,3.56,3.22,4.44,1.13,1.12,1.12
492.62,-2.46,-3.61,-2.47,-3.62,3.62,3.32,4.49,1.16,1.15,1.15
497.55,-2.49,-3.66,-2.50,-3.68,3.68,3.42,4.53,1.19,1.18,1.17
502.52,-2.52,-3.73,-2.53,-3.74,3.74,3.52,4.56,1.22,1.21,1.21
507.55,-2.55,-3.78,-2.56,-3.80,3.80,3.62,4.58,1.25,1.24,1.23
