frequency,raw,error,smoothed,error_smoothed,equalization,parametric_eq,fixed_band_eq,equalized_raw,equalized_smoothed,target
20.00,15.43,7.57,15.43,7.55,-7.55,-7.43,-3.14,7.88,7.88,7.86
20.20,15.42,7.56,15.42,7.54,-7.54,-7.46,-3.23,7.88,7.87,7.86
20.40,15.40,7.54,15.41,7.54,-7.54,-7.48,-3.32,7.86,7.87,7.86
20.61,15.39,7.53,15.39,7.53,-7.53,-7.51,-3.41,7.86,7.86,7.86
20.81,15.37,7.51,15.38,7.53,-7.53,-7.53,-3.51,7.84,7.85,7.86
21.02,15.35,7.50,15.36,7.52,-7.52,-7.55,-3.61,7.83,7.83,7.86
21.23,15.34,7.51,15.34,7.52,-7.52,-7.57,-3.71,7.82,7.82,7.84
21.44,15.32,7.50,15.32,7.51,-7.51,-7.58,-3.82,7.81,7.81,7.83
21.66,15.30,7.50,15.30,7.51,-7.51,-7.60,-3.92,7.79,7.79,7.81
21.87,15.28,7.50,15.28,7.50,-7.50,-7.61,-4.04,7.78,7.78,7.79
22.09,15.26,7.49,15.26,7.50,-7.50,-7.62,-4.15,7.77,7.76,7.77
22.31,15.23,7.49,15.24,7.49,-7.49,-7.63,-4.27,7.74,7.75,7.74
22.54,15.21,7.49,15.21,7.49,-7.49,-7.63,-4.39,7.72,7.72,7.72
22.76,15.19,7.49,15.19,7.49,-7.49,-7.64,-4.51,7.71,7.70,7.70
22.99,15.16,7.49,15.16,7.48,-7.48,-7.64,-4.64,7.68,7.68,7.67
23.22,15.13,7.49,15.14,7.48,-7.48,-7.64,-4.77,7.65,7.66,7.64
23.45,15.10,7.48,15.11,7.47,-7.47,-7.63,-4.91,7.63,7.63,7.62
23.69,15.07,7.46,15.08,7.46,-7.46,-7.63,-5.04,7.61,7.61,7.61
23.92,15.05,7.46,15.05,7.45,-7.45,-7.62,-5.18,7.60,7.59,7.59
24.16,15.02,7.44,15.01,7.44,-7.44,-7.61,-5.32,7.58,7.57,7.58
24.40,14.98,7.43,14.98,7.43,-7.43,-7.60,-5.47,7.56,7.55,7.56
24.65,14.94,7.41,14.95,7.41,-7.41,-7.58,-5.62,7.53,7.53,7.54
24.89,14.91,7.40,14.91,7.39,-7.39,-7.56,-5.77,7.52,7.52,7.52
25.14,14.87,7.37,14.87,7.37,-7.37,-7.54,-5.92,7.50,7.50,7.50
25.39,14.83,7.35,14.83,7.35,-7.35,-7.52,-6.07,7.48,7.48,7.48
25.65,14.79,7.32,14.80,7.33,-7.33,-7.50,-6.23,7.46,7.47,7.47
25.91,14.75,7.31,14.76,7.30,-7.30,-7.47,-6.38,7.45,7.45,7.44
26.16,14.71,7.28,14.71,7.28,-7.28,-7.44,-6.54,7.43,7.43,7.43
26.43,14.67,7.25,14.67,7.25,-7.25,-7.41,-6.70,7.42,7.42,7.42
26.69,14.63,7.24,14.63,7.23,-7.23,-7.38,-6.85,7.41,7.40,7.40
26.96,14.58,7.20,14.58,7.20,-7.20,-7.35,-7.01,7.39,7.39,7.39
27.23,14.54,7.17,14.54,7.17,-7.17,-7.31,-7.16,7.38,7.37,7.37
27.50,14.49,7.13,14.49,7.14,-7.14,-7.28,-7.31,7.36,7.36,7.36
27.77,14.44,7.10,14.45,7.10,-7.10,-7.24,-7.45,7.34,7.34,7.34
28.05,14.40,7.07,14.40,7.07,-7.07,-7.20,-7.59,7.33,7.33,7.33
28.33,14.35,7.04,14.35,7.04,-7.04,-7.16,-7.72,7.31,7.31,7.31
28.62,14.30,7.01,14.31,7.01,-7.01,-7.12,-7.85,7.30,7.30,7.30
28.90,14.25,6.97,14.26,6.97,-6.97,-7.08,-7.97,7.28,7.29,7.29
29.19,14.20,6.94,14.21,6.94,-6.94,-7.04,-8.08,7.27,7.27,7.26
29.48,14.16,6.90,14.16,6.90,-6.90,-7.00,-8.17,7.26,7.26,7.26
29.78,14.11,6.86,14.11,6.87,-6.87,-6.95,-8.26,7.25,7.25,7.25
30.08,14.06,6.83,14.06,6.83,-6.83,-6.91,-8.33,7.23,7.23,7.24
30.38,14.01,6.80,14.01,6.80,-6.80,-6.87,-8.40,7.22,7.22,7.22
30.68,13.96,6.76,13.96,6.76,-6.76,-6.82,-8.44,7.20,7.20,7.20
30.99,13.92,6.74,13.91,6.73,-6.73,-6.78,-8.48,7.20,7.18,7.18
31.30,13.86,6.69,13.85,6.69,-6.69,-6.74,-8.50,7.18,7.17,7.17
31.61,13.80,6.65,13.80,6.65,-6.65,-6.69,-8.50,7.15,7.15,7.16
31.93,13.74,6.61,13.74,6.61,-6.61,-6.65,-8.49,7.13,7.13,7.13
32.24,13.68,6.58,13.69,6.58,-6.58,-6.61,-8.46,7.10,7.11,7.10
32.57,13.62,6.54,13.63,6.54,-6.54,-6.56,-8.42,7.08,7.09,7.09
32.89,13.56,6.49,13.57,6.50,-6.50,-6.52,-8.37,7.06,7.07,7.07
33.22,13.51,6.47,13.51,6.46,-6.46,-6.47,-8.31,7.05,7.05,7.04
33.55,13.44,6.41,13.45,6.42,-6.42,-6.43,-8.23,7.02,7.03,7.03
33.89,13.38,6.38,13.39,6.38,-6.38,-6.39,-8.15,7.00,7.01,7.01
34.23,13.32,6.34,13.32,6.34,-6.34,-6.34,-8.05,6.98,6.98,6.98
34.57,13.26,6.30,13.26,6.30,-6.30,-6.30,-7.95,6.97,6.96,6.96
34.92,13.19,6.26,13.19,6.25,-6.25,-6.26,-7.84,6.94,6.94,6.94
35.27,13.13,6.21,13.13,6.21,-6.21,-6.22,-7.72,6.93,6.92,6.92
35.62,13.06,6.17,13.06,6.16,-6.16,-6.17,-7.60,6.90,6.90,6.90
35.97,12.99,6.12,12.99,6.11,-6.11,-6.13,-7.48,6.88,6.88,6.87
36.33,12.92,6.06,12.92,6.06,-6.06,-6.09,-7.35,6.86,6.85,6.86
36.70,12.84,6.01,12.85,6.02,-6.02,-6.04,-7.22,6.83,6.83,6.83
37.06,12.77,5.96,12.78,5.96,-5.96,-6.00,-7.09,6.81,6.81,6.81
37.43,12.70,5.91,12.70,5.91,-5.91,-5.96,-6.95,6.79,6.79,6.80
37.81,12.62,5.85,12.63,5.86,-5.86,-5.92,-6.82,6.77,6.77,6.77
38.19,12.55,5.81,12.55,5.80,-5.80,-5.88,-6.69,6.75,6.75,6.75
38.57,12.47,5.74,12.47,5.75,-5.75,-5.83,-6.56,6.73,6.73,6.73
38.95,12.39,5.69,12.40,5.69,-5.69,-5.79,-6.43,6.70,6.70,6.70
39.34,12.32,5.64,12.32,5.63,-5.63,-5.75,-6.31,6.69,6.68,6.68
39.74,12.24,5.59,12.24,5.58,-5.58,-5.71,-6.18,6.67,6.66,6.65
40.14,12.16,5.52,12.16,5.52,-5.52,-5.66,-6.06,6.64,6.64,6.65
40.54,12.08,5.46,12.08,5.46,-5.46,-5.62,-5.95,6.62,6.62,6.62
40.94,12.00,5.40,12.01,5.40,-5.40,-5.58,-5.83,6.60,6.60,6.60
41.35,11.92,5.35,11.93,5.34,-5.34,-5.54,-5.72,6.58,6.58,6.58
41.76,11.85,5.28,11.85,5.28,-5.28,-5.49,-5.61,6.57,6.56,6.57
42.18,11.77,5.22,11.77,5.23,-5.23,-5.45,-5.51,6.55,6.54,6.55
42.60,11.69,5.17,11.69,5.17,-5.17,-5.41,-5.41,6.52,6.52,6.52
43.03,11.61,5.10,11.61,5.11,-5.11,-5.36,-5.31,6.50,6.50,6.52
43.46,11.53,5.05,11.54,5.06,-5.06,-5.32,-5.22,6.48,6.48,6.49
43.90,11.46,5.01,11.46,5.00,-5.00,-5.27,-5.13,6.46,6.46,6.46
44.33,11.38,4.94,11.39,4.94,-4.94,-5.23,-5.04,6.44,6.44,6.44
44.78,11.30,4.88,11.31,4.89,-4.89,-5.18,-4.96,6.41,6.42,6.42
45.23,11.24,4.85,11.24,4.84,-4.84,-5.14,-4.89,6.41,6.40,6.39
45.68,11.16,4.79,11.16,4.78,-4.78,-5.09,-4.81,6.38,6.38,6.37
46.13,11.09,4.74,11.09,4.73,-4.73,-5.05,-4.74,6.36,6.36,6.35
46.60,11.02,4.68,11.02,4.69,-4.69,-5.00,-4.67,6.34,6.33,6.34
47.06,10.95,4.64,10.95,4.64,-4.64,-4.95,-4.61,6.31,6.31,6.32
47.53,10.88,4.59,10.88,4.59,-4.59,-4.91,-4.55,6.29,6.29,6.30
48.01,10.81,4.53,10.81,4.55,-4.55,-4.86,-4.50,6.27,6.27,6.28
48.49,10.74,4.49,10.74,4.50,-4.50,-4.81,-4.44,6.24,6.24,6.25
48.97,10.67,4.45,10.68,4.46,-4.46,-4.76,-4.39,6.21,6.22,6.22
49.46,10.61,4.43,10.61,4.42,-4.42,-4.71,-4.35,6.19,6.19,6.19
49.96,10.54,4.39,10.55,4.38,-4.38,-4.66,-4.30,6.16,6.17,6.15
50.46,10.49,4.35,10.49,4.34,-4.34,-4.61,-4.26,6.15,6.14,6.15
50.96,10.42,4.30,10.42,4.31,-4.31,-4.56,-4.22,6.12,6.12,6.12
51.47,10.36,4.28,10.36,4.27,-4.27,-4.51,-4.19,6.09,6.09,6.09
51.99,10.30,4.24,10.30,4.24,-4.24,-4.46,-4.15,6.06,6.07,6.06
52.51,10.24,4.20,10.25,4.21,-4.21,-4.41,-4.12,6.04,6.04,6.04
53.03,10.18,4.17,10.19,4.18,-4.18,-4.36,-4.09,6.01,6.01,6.02
53.56,10.13,4.14,10.13,4.15,-4.15,-4.31,-4.06,5.98,5.98,5.99
54.10,10.08,4.12,10.08,4.12,-4.12,-4.26,-4.04,5.96,5.96,5.96
54.64,10.02,4.09,10.02,4.09,-4.09,-4.21,-4.01,5.93,5.93,5.93
55.18,9.97,4.07,9.97,4.06,-4.06,-4.15,-3.99,5.91,5.91,5.90
55.74,9.91,4.04,9.92,4.04,-4.04,-4.10,-3.97,5.88,5.88,5.87
56.29,9.86,4.01,9.86,4.01,-4.01,-4.06,-3.95,5.85,5.85,5.85
56.86,9.81,3.99,9.81,3.99,-3.99,-4.01,-3.93,5.83,5.82,5.82
57.42,9.76,3.97,9.76,3.96,-3.96,-3.96,-3.91,5.80,5.79,5.79
58.00,9.70,3.94,9.71,3.94,-3.94,-3.91,-3.89,5.76,5.76,5.77
58.58,9.65,3.92,9.65,3.92,-3.92,-3.86,-3.87,5.73,5.73,5.73
59.16,9.60,3.90,9.60,3.90,-3.90,-3.82,-3.85,5.70,5.70,5.71
59.76,9.54,3.86,9.55,3.88,-3.88,-3.78,-3.83,5.67,5.67,5.68
60.35,9.50,3.86,9.50,3.85,-3.85,-3.74,-3.81,5.65,5.64,5.65
60.96,9.44,3.81,9.44,3.83,-3.83,-3.70,-3.79,5.61,5.61,5.63
61.57,9.39,3.81,9.39,3.81,-3.81,-3.66,-3.77,5.58,5.58,5.58
62.18,9.34,3.80,9.34,3.79,-3.79,-3.62,-3.75,5.55,5.55,5.54
62.80,9.29,3.78,9.29,3.77,-3.77,-3.59,-3.73,5.52,5.52,5.51
63.43,9.23,3.76,9.24,3.75,-3.75,-3.56,-3.71,5.48,5.49,5.47
64.07,9.18,3.74,9.18,3.73,-3.73,-3.53,-3.69,5.45,5.46,5.44
64.71,9.13,3.71,9.13,3.71,-3.71,-3.50,-3.66,5.42,5.42,5.42
65.35,9.07,3.68,9.08,3.69,-3.69,-3.48,-3.64,5.38,5.39,5.39
66.01,9.02,3.66,9.03,3.67,-3.67,-3.46,-3.62,5.35,5.36,5.36
66.67,8.98,3.65,8.98,3.65,-3.65,-3.45,-3.59,5.33,5.33,5.33
67.33,8.93,3.63,8.93,3.63,-3.63,-3.43,-3.57,5.31,5.30,5.30
68.01,8.87,3.60,8.88,3.61,-3.61,-3.42,-3.55,5.26,5.27,5.27
68.69,8.83,3.59,8.83,3.59,-3.59,-3.41,-3.52,5.24,5.24,5.24
69.37,8.77,3.57,8.78,3.57,-3.57,-3.41,-3.50,5.20,5.21,5.20
70.07,8.72,3.55,8.73,3.55,-3.55,-3.41,-3.48,5.17,5.17,5.17
70.77,8.68,3.54,8.68,3.54,-3.54,-3.41,-3.45,5.14,5.14,5.14
71.48,8.63,3.53,8.63,3.53,-3.53,-3.41,-3.43,5.11,5.10,5.10
72.19,8.57,3.50,8.58,3.51,-3.51,-3.42,-3.41,5.06,5.06,5.07
72.91,8.53,3.51,8.53,3.50,-3.50,-3.42,-3.39,5.03,5.02,5.03
73.64,8.47,3.49,8.48,3.49,-3.49,-3.43,-3.37,4.98,4.98,4.98
74.38,8.42,3.48,8.43,3.48,-3.48,-3.45,-3.35,4.94,4.94,4.95
75.12,8.38,3.49,8.38,3.48,-3.48,-3.46,-3.33,4.91,4.90,4.89
75.87,8.32,3.47,8.33,3.47,-3.47,-3.48,-3.32,4.85,4.86,4.85
76.63,8.27,3.46,8.27,3.46,-3.46,-3.49,-3.31,4.81,4.81,4.82
77.40,8.22,3.46,8.22,3.46,-3.46,-3.51,-3.29,4.76,4.77,4.77
78.17,8.17,3.47,8.17,3.45,-3.45,-3.53,-3.28,4.72,4.72,4.71
78.95,8.12,3.45,8.12,3.45,-3.45,-3.55,-3.28,4.67,4.67,4.68
79.74,8.06,3.44,8.07,3.45,-3.45,-3.57,-3.27,4.62,4.62,4.62
80.54,8.01,3.44,8.01,3.45,-3.45,-3.59,-3.27,4.57,4.57,4.57
81.35,7.96,3.45,7.96,3.44,-3.44,-3.62,-3.26,4.52,4.52,4.52
82.16,7.91,3.45,7.91,3.44,-3.44,-3.64,-3.27,4.47,4.46,4.46
82.98,7.85,3.44,7.85,3.44,-3.44,-3.66,-3.27,4.41,4.41,4.42
83.81,7.80,3.45,7.80,3.44,-3.44,-3.68,-3.27,4.36,4.36,4.35
84.65,7.73,3.44,7.74,3.44,-3.44,-3.71,-3.28,4.29,4.30,4.29
85.50,7.68,3.44,7.69,3.44,-3.44,-3.73,-3.29,4.24,4.24,4.25
86.35,7.63,3.45,7.63,3.44,-3.44,-3.75,-3.30,4.19,4.19,4.19
87.22,7.56,3.44,7.57,3.44,-3.44,-3.77,-3.32,4.12,4.13,4.13
88.09,7.51,3.45,7.51,3.45,-3.45,-3.79,-3.34,4.07,4.07,4.07
88.97,7.46,3.45,7.46,3.45,-3.45,-3.81,-3.36,4.02,4.01,4.01
89.86,7.40,3.45,7.40,3.45,-3.45,-3.83,-3.38,3.95,3.95,3.95
90.76,7.34,3.46,7.34,3.45,-3.45,-3.85,-3.41,3.89,3.89,3.88
91.66,7.28,3.46,7.28,3.46,-3.46,-3.87,-3.43,3.83,3.83,3.83
92.58,7.22,3.47,7.23,3.46,-3.46,-3.89,-3.46,3.76,3.77,3.75
93.51,7.16,3.45,7.17,3.47,-3.47,-3.90,-3.49,3.70,3.70,3.71
94.44,7.11,3.47,7.11,3.47,-3.47,-3.92,-3.53,3.64,3.64,3.64
95.39,7.05,3.47,7.05,3.48,-3.48,-3.93,-3.57,3.57,3.57,3.58
96.34,6.99,3.49,7.00,3.49,-3.49,-3.95,-3.60,3.50,3.50,3.50
97.30,6.93,3.50,6.94,3.50,-3.50,-3.96,-3.64,3.43,3.44,3.44
98.28,6.88,3.51,6.88,3.51,-3.51,-3.97,-3.69,3.37,3.37,3.37
99.26,6.82,3.53,6.82,3.52,-3.52,-3.98,-3.73,3.30,3.30,3.29
100.25,6.77,3.55,6.77,3.54,-3.54,-3.99,-3.78,3.24,3.23,3.23
101.25,6.71,3.55,6.71,3.55,-3.55,-4.00,-3.82,3.16,3.16,3.16
102.27,6.65,3.57,6.65,3.57,-3.57,-4.01,-3.87,3.09,3.09,3.08
103.29,6.59,3.59,6.60,3.58,-3.58,-4.02,-3.92,3.01,3.01,3.00
104.32,6.54,3.61,6.54,3.60,-3.60,-4.03,-3.97,2.94,2.94,2.94
105.37,6.48,3.61,6.48,3.62,-3.62,-4.03,-4.02,2.86,2.86,2.87
106.42,6.42,3.63,6.43,3.64,-3.64,-4.04,-4.07,2.79,2.79,2.79
107.48,6.36,3.65,6.37,3.66,-3.66,-4.04,-4.12,2.70,2.71,2.71
108.56,6.31,3.68,6.32,3.68,-3.68,-4.04,-4.16,2.63,2.64,2.64
109.64,6.26,3.70,6.26,3.70,-3.70,-4.05,-4.21,2.56,2.56,2.56
110.74,6.21,3.72,6.21,3.73,-3.73,-4.05,-4.26,2.49,2.48,2.49
111.85,6.15,3.74,6.15,3.75,-3.75,-4.05,-4.30,2.40,2.40,2.41
112.97,6.10,3.79,6.10,3.78,-3.78,-4.05,-4.34,2.33,2.33,2.32
114.10,6.04,3.79,6.05,3.80,-3.80,-4.05,-4.38,2.24,2.25,2.25
115.24,6.00,3.83,6.00,3.83,-3.83,-4.04,-4.42,2.18,2.17,2.17
116.39,5.95,3.86,5.95,3.85,-3.85,-4.04,-4.45,2.10,2.10,2.09
117.55,5.90,3.89,5.90,3.88,-3.88,-4.04,-4.48,2.02,2.02,2.01
118.73,5.85,3.92,5.85,3.90,-3.90,-4.03,-4.50,1.95,1.95,1.94
119.92,5.80,3.93,5.80,3.93,-3.93,-4.03,-4.53,1.87,1.87,1.87
121.12,5.75,3.95,5.75,3.96,-3.96,-4.02,-4.54,1.80,1.80,1.80
122.33,5.70,3.98,5.71,3.98,-3.98,-4.02,-4.55,1.72,1.73,1.73
123.55,5.66,4.00,5.66,4.01,-4.01,-4.01,-4.56,1.66,1.66,1.66
124.79,5.61,4.02,5.62,4.03,-4.03,-4.00,-4.56,1.58,1.59,1.59
126.03,5.57,4.04,5.57,4.05,-4.05,-3.99,-4.56,1.52,1.52,1.53
127.29,5.52,4.06,5.53,4.08,-4.08,-3.98,-4.55,1.45,1.45,1.46
128.57,5.48,4.10,5.48,4.10,-4.10,-3.97,-4.53,1.39,1.39,1.38
129.85,5.44,4.12,5.44,4.12,-4.12,-3.96,-4.52,1.33,1.32,1.32
131.15,5.40,4.14,5.40,4.14,-4.14,-3.95,-4.49,1.27,1.26,1.26
132.46,5.36,4.17,5.36,4.16,-4.16,-3.94,-4.46,1.21,1.20,1.19
133.79,5.32,4.18,5.32,4.17,-4.17,-3.93,-4.43,1.15,1.15,1.15
135.12,5.27,4.19,5.28,4.19,-4.19,-3.91,-4.40,1.09,1.09,1.08
136.48,5.23,4.20,5.24,4.20,-4.20,-3.90,-4.36,1.03,1.04,1.04
137.84,5.19,4.20,5.20,4.21,-4.21,-3.88,-4.32,0.98,0.99,0.99
139.22,5.16,4.23,5.16,4.22,-4.22,-3.87,-4.27,0.94,0.94,0.93
140.61,5.12,4.24,5.12,4.23,-4.23,-3.85,-4.22,0.90,0.89,0.88
142.02,5.08,4.23,5.08,4.23,-4.23,-3.84,-4.18,0.85,0.85,0.86
143.44,5.04,4.23,5.05,4.23,-4.23,-3.82,-4.13,0.81,0.81,0.82
144.87,5.00,4.24,5.01,4.24,-4.24,-3.80,-4.07,0.77,0.77,0.77
146.32,4.97,4.24,4.97,4.24,-4.24,-3.78,-4.02,0.73,0.73,0.73
147.78,4.93,4.23,4.93,4.24,-4.24,-3.77,-3.97,0.69,0.69,0.70
149.26,4.90,4.24,4.89,4.24,-4.24,-3.75,-3.92,0.66,0.66,0.67
150.75,4.85,4.23,4.86,4.24,-4.24,-3.73,-3.86,0.62,0.62,0.62
152.26,4.82,4.24,4.82,4.23,-4.23,-3.71,-3.81,0.59,0.59,0.59
153.78,4.78,4.23,4.78,4.23,-4.23,-3.68,-3.76,0.55,0.55,0.55
155.32,4.74,4.22,4.74,4.23,-4.23,-3.66,-3.71,0.52,0.52,0.52
156.88,4.70,4.22,4.70,4.22,-4.22,-3.64,-3.66,0.48,0.48,0.49
158.44,4.66,4.22,4.66,4.22,-4.22,-3.62,-3.62,0.45,0.45,0.45
160.03,4.62,4.22,4.63,4.21,-4.21,-3.59,-3.57,0.41,0.41,0.41
161.63,4.58,4.21,4.59,4.21,-4.21,-3.57,-3.53,0.38,0.38,0.37
163.24,4.54,4.20,4.54,4.20,-4.20,-3.55,-3.49,0.34,0.34,0.34
164.88,4.50,4.19,4.50,4.19,-4.19,-3.52,-3.45,0.31,0.31,0.31
166.53,4.46,4.18,4.46,4.19,-4.19,-3.50,-3.41,0.28,0.27,0.28
168.19,4.42,4.19,4.42,4.18,-4.18,-3.47,-3.37,0.24,0.24,0.23
169.87,4.37,4.17,4.38,4.17,-4.17,-3.44,-3.34,0.20,0.20,0.20
171.57,4.33,4.17,4.33,4.17,-4.17,-3.42,-3.31,0.16,0.16,0.17
173.29,4.28,4.15,4.29,4.16,-4.16,-3.39,-3.29,0.12,0.12,0.14
175.02,4.24,4.15,4.24,4.15,-4.15,-3.36,-3.26,0.09,0.08,0.09
176.77,4.19,4.15,4.19,4.15,-4.15,-3.33,-3.24,0.05,0.05,0.04
178.54,4.14,4.14,4.14,4.13,-4.13,-3.30,-3.22,0.01,0.01,0.00
180.32,4.09,4.13,4.09,4.12,-4.12,-3.27,-3.20,-0.03,-0.03,-0.03
182.13,4.03,4.10,4.04,4.11,-4.11,-3.24,-3.19,-0.08,-0.07,-0.07
183.95,3.98,4.10,3.99,4.10,-4.10,-3.21,-3.18,-0.12,-0.11,-0.12
185.79,3.93,4.09,3.93,4.08,-4.08,-3.18,-3.17,-0.15,-0.15,-0.15
187.65,3.88,4.08,3.88,4.07,-4.07,-3.15,-3.16,-0.18,-0.19,-0.20
189.52,3.81,4.05,3.82,4.05,-4.05,-3.12,-3.15,-0.23,-0.23,-0.23
191.42,3.76,4.03,3.76,4.03,-4.03,-3.08,-3.15,-0.26,-0.26,-0.27
193.33,3.70,3.99,3.70,4.00,-4.00,-3.05,-3.15,-0.30,-0.30,-0.29
195.27,3.64,3.97,3.64,3.97,-3.97,-3.01,-3.15,-0.33,-0.33,-0.32
197.22,3.58,3.94,3.58,3.94,-3.94,-2.98,-3.15,-0.36,-0.36,-0.36
199.19,3.52,3.93,3.52,3.91,-3.91,-2.94,-3.16,-0.39,-0.39,-0.41
201.18,3.46,3.89,3.46,3.88,-3.88,-2.91,-3.16,-0.42,-0.42,-0.43
203.19,3.39,3.84,3.39,3.84,-3.84,-2.87,-3.17,-0.45,-0.45,-0.45
205.23,3.32,3.80,3.33,3.80,-3.80,-2.84,-3.17,-0.48,-0.47,-0.48
207.28,3.26,3.75,3.26,3.76,-3.76,-2.80,-3.18,-0.50,-0.50,-0.48
209.35,3.19,3.71,3.20,3.72,-3.72,-2.76,-3.19,-0.53,-0.52,-0.52
211.44,3.13,3.68,3.13,3.67,-3.67,-2.72,-3.20,-0.54,-0.54,-0.55
213.56,3.06,3.63,3.06,3.63,-3.63,-2.68,-3.21,-0.56,-0.56,-0.57
215.69,2.99,3.56,3.00,3.58,-3.58,-2.64,-3.21,-0.58,-0.58,-0.57
217.85,2.92,3.51,2.93,3.52,-3.52,-2.60,-3.22,-0.60,-0.59,-0.59
220.03,2.86,3.48,2.86,3.47,-3.47,-2.56,-3.23,-0.60,-0.61,-0.61
222.23,2.79,3.42,2.79,3.41,-3.41,-2.52,-3.23,-0.61,-0.62,-0.63
224.45,2.72,3.34,2.72,3.35,-3.35,-2.48,-3.23,-0.62,-0.62,-0.62
226.70,2.65,3.29,2.65,3.28,-3.28,-2.44,-3.23,-0.63,-0.63,-0.63
228.96,2.58,3.22,2.58,3.22,-3.22,-2.39,-3.22,-0.63,-0.63,-0.64
231.25,2.51,3.14,2.51,3.14,-3.14,-2.35,-3.22,-0.63,-0.63,-0.63
233.57,2.44,3.07,2.44,3.07,-3.07,-2.30,-3.21,-0.63,-0.63,-0.62
235.90,2.36,2.99,2.37,2.99,-2.99,-2.26,-3.19,-0.63,-0.62,-0.62
238.26,2.30,2.93,2.30,2.91,-2.91,-2.21,-3.17,-0.61,-0.62,-0.63
240.64,2.22,2.83,2.22,2.83,-2.83,-2.17,-3.15,-0.61,-0.61,-0.61
243.05,2.15,2.75,2.15,2.74,-2.74,-2.12,-3.12,-0.59,-0.59,-0.60
245.48,2.07,2.65,2.07,2.65,-2.65,-2.07,-3.09,-0.58,-0.58,-0.58
247.93,2.00,2.57,2.00,2.56,-2.56,-2.03,-3.05,-0.56,-0.57,-0.57
250.41,1.93,2.49,1.92,2.47,-2.47,-1.98,-3.00,-0.54,-0.55,-0.56
252.92,1.85,2.38,1.85,2.38,-2.38,-1.93,-2.95,-0.53,-0.53,-0.53
255.45,1.77,2.28,1.78,2.29,-2.29,-1.88,-2.90,-0.51,-0.51,-0.50
258.00,1.70,2.19,1.70,2.19,-2.19,-1.83,-2.84,-0.49,-0.49,-0.48
260.58,1.63,2.10,1.63,2.10,-2.10,-1.78,-2.77,-0.47,-0.47,-0.47
263.19,1.55,2.00,1.56,2.01,-2.01,-1.72,-2.70,-0.46,-0.45,-0.45
265.82,1.48,1.91,1.49,1.92,-1.92,-1.67,-2.63,-0.44,-0.42,-0.43
268.48,1.42,1.83,1.43,1.83,-1.83,-1.62,-2.55,-0.41,-0.40,-0.40
271.16,1.36,1.73,1.37,1.75,-1.75,-1.56,-2.46,-0.38,-0.38,-0.37
273.87,1.29,1.65,1.31,1.66,-1.66,-1.51,-2.37,-0.37,-0.36,-0.36
276.61,1.24,1.57,1.25,1.58,-1.58,-1.45,-2.28,-0.34,-0.33,-0.32
279.38,1.18,1.49,1.19,1.50,-1.50,-1.40,-2.18,-0.32,-0.31,-0.31
282.17,1.13,1.42,1.13,1.42,-1.42,-1.34,-2.08,-0.29,-0.29,-0.29
284.99,1.07,1.34,1.08,1.34,-1.34,-1.28,-1.98,-0.27,-0.26,-0.26
287.84,1.02,1.26,1.02,1.26,-1.26,-1.22,-1.87,-0.23,-0.23,-0.24
290.72,0.97,1.18,0.97,1.17,-1.17,-1.17,-1.77,-0.20,-0.21,-0.20
293.63,0.92,1.11,0.91,1.09,-1.09,-1.11,-1.65,-0.17,-0.18,-0.19
296.57,0.86,1.02,0.86,1.01,-1.01,-1.04,-1.54,-0.14,-0.15,-0.15
299.53,0.80,0.93,0.80,0.92,-0.92,-0.98,-1.43,-0.12,-0.12,-0.13
302.53,0.74,0.85,0.74,0.83,-0.83,-0.92,-1.31,-0.09,-0.09,-0.10
305.55,0.67,0.73,0.67,0.74,-0.74,-0.86,-1.19,-0.06,-0.06,-0.06
308.61,0.61,0.64,0.61,0.64,-0.64,-0.79,-1.07,-0.03,-0.03,-0.03
311.69,0.54,0.54,0.54,0.54,-0.54,-0.73,-0.95,0.00,0.00,0.00
314.81,0.48,0.44,0.47,0.44,-0.44,-0.66,-0.83,0.04,0.03,0.04
317.96,0.40,0.34,0.40,0.34,-0.34,-0.60,-0.71,0.06,0.06,0.07
321.14,0.33,0.24,0.33,0.24,-0.24,-0.53,-0.58,0.09,0.09,0.09
324.35,0.25,0.13,0.26,0.14,-0.14,-0.46,-0.46,0.12,0.12,0.12
327.59,0.18,0.03,0.18,0.03,-0.03,-0.39,-0.34,0.15,0.15,0.16
330.87,0.10,-0.08,0.10,-0.07,0.07,-0.32,-0.21,0.18,0.18,0.18
334.18,0.02,-0.18,0.02,-0.18,0.18,-0.25,-0.08,0.20,0.20,0.20
337.52,-0.05,-0.27,-0.06,-0.28,0.28,-0.18,0.04,0.24,0.23,0.23
340.90,-0.13,-0.38,-0.14,-0.38,0.38,-0.10,0.17,0.26,0.25,0.25
344.30,-0.22,-0.49,-0.22,-0.49,0.49,-0.03,0.30,0.27,0.27,0.27
347.75,-0.30,-0.59,-0.30,-0.59,0.59,0.04,0.42,0.29,0.29,0.30
351.23,-0.38,-0.69,-0.38,-0.69,0.69,0.12,0.55,0.31,0.31,0.32
354.74,-0.47,-0.80,-0.46,-0.79,0.79,0.20,0.68,0.32,0.33,0.33
358.28,-0.55,-0.90,-0.54,-0.89,0.89,0.28,0.81,0.34,0.35,0.35
361.87,-0.62,-0.98,-0.62,-0.99,0.99,0.35,0.94,0.37,0.37,0.37
365.49,-0.70,-1.09,-0.70,-1.09,1.09,0.43,1.07,0.39,0.39,0.40
369.14,-0.78,-1.18,-0.77,-1.18,1.18,0.52,1.20,0.41,0.41,0.40
372.83,-0.85,-1.27,-0.85,-1.28,1.28,0.60,1.33,0.43,0.43,0.42
376.56,-0.92,-1.36,-0.92,-1.37,1.37,0.68,1.47,0.45,0.45,0.44
380.33,-1.00,-1.46,-0.99,-1.46,1.46,0.76,1.60,0.46,0.47,0.47
384.13,-1.06,-1.54,-1.06,-1.54,1.54,0.85,1.73,0.48,0.49,0.49
387.97,-1.14,-1.64,-1.12,-1.62,1.62,0.94,1.86,0.49,0.50,0.50
391.85,-1.20,-1.72,-1.18,-1.71,1.71,1.02,2.00,0.51,0.53,0.52
395.77,-1.26,-1.81,-1.24,-1.79,1.79,1.11,2.13,0.53,0.55,0.55
399.73,-1.30,-1.87,-1.30,-1.86,1.86,1.20,2.26,0.57,0.57,0.57
403.72,-1.36,-1.94,-1.36,-1.94,1.94,1.29,2.39,0.59,0.59,0.59
407.76,-1.42,-2.02,-1.41,-2.02,2.02,1.38,2.53,0.60,0.61,0.61
411.84,-1.47,-2.10,-1.47,-2.10,2.10,1.48,2.66,0.63,0.63,0.63
415.96,-1.51,-2.16,-1.53,-2.18,2.18,1.57,2.79,0.67,0.65,0.65
420.12,-1.57,-2.24,-1.59,-2.26,2.26,1.66,2.91,0.69,0.67,0.67
424.32,-1.63,-2.33,-1.65,-2.34,2.34,1.76,3.04,0.72,0.70,0.70
428.56,-1.70,-2.42,-1.71,-2.43,2.43,1.85,3.17,0.73,0.72,0.72
432.85,-1.76,-2.50,-1.78,-2.52,2.52,1.95,3.29,0.76,0.74,0.74
437.18,-1.83,-2.59,-1.84,-2.61,2.61,2.05,3.41,0.78,0.77,0.77
441.55,-1.90,-2.69,-1.91,-2.70,2.70,2.15,3.52,0.80,0.79,0.80
445.96,-1.97,-2.78,-1.98,-2.79,2.79,2.25,3.63,0.83,0.82,0.82
450.42,-2.05,-2.88,-2.04,-2.88,2.88,2.34,3.74,0.84,0.84,0.83
454.93,-2.13,-3.00,-2.10,-2.97,2.97,2.44,3.84,0.84,0.87,0.87
459.48,-2.19,-3.08,-2.16,-3.06,3.06,2.54,3.94,0.87,0.90,0.89
464.07,-2.25,-3.17,-2.22,-3.14,3.14,2.65,4.03,0.89,0.92,0.92
468.71,-2.29,-3.25,-2.27,-3.22,3.22,2.75,4.12,0.93,0.95,0.96
473.40,-2.33,-3.31,-2.31,-3.30,3.30,2.85,4.20,0.97,0.98,0.98
478.13,-2.37,-3.38,-2.36,-3.37,3.37,2.95,4.27,1.00,1.01,1.01
482.91,-2.40,-3.44,-2.40,-3.44,3.44,3.05,4.33,1.04,1.04,1.04
487.74,-2.43,-3.49,-2.44,-3.50,3.50,3.15,4.39,1.07,1.07,1.07
492.62,-2.46,-3.55,-2.47,-3.56,3.56,3.25,4.44,1.11,1.09,1.10
497.55,-2.49,-3.60,-2.50,-3.62,3.62,3.35,4.48,1.14,1.12,1.12
502.52,-2.52,-3.67,-2.53,-3.68,3.68,3.45,4.51,1.16,1.15,1.16
507.55,-2.55,-3.72,-2.56,-3.74,3.74,3.55,4.53,1.19,1.18,1.18
512.62,-2.59,-3.79,-2.59,-3.79,3.79,3.64,4.55,1.21,1.21,1.20
