frequency,raw,error,smoothed,error_smoothed,equalization,parametric_eq,fixed_band_eq,equalized_raw,equalized_smoothed,target
20.00,-11.40,-10.74,-11.36,-10.72,10.72,10.36,4.12,-0.68,-0.64,-0.66
20.20,-11.31,-10.69,-11.29,-10.67,10.67,10.35,4.23,-0.64,-0.61,-0.62
20.40,-11.21,-10.62,-11.21,-10.63,10.63,10.35,4.34,-0.58,-0.58,-0.59
20.61,-11.12,-10.56,-11.14,-10.58,10.58,10.34,4.46,-0.54,-0.56,-0.56
20.81,-11.02,-10.50,-11.06,-10.53,10.53,10.32,4.57,-0.49,-0.53,-0.52
21.02,-10.93,-10.45,-10.98,-10.47,10.47,10.30,4.70,-0.46,-0.51,-0.48
21.23,-10.88,-10.41,-10.91,-10.42,10.42,10.28,4.82,-0.46,-0.49,-0.47
21.44,-10.83,-10.38,-10.83,-10.37,10.37,10.25,4.95,-0.46,-0.47,-0.45
21.66,-10.77,-10.34,-10.76,-10.31,10.31,10.22,5.09,-0.46,-0.45,-0.43
21.87,-10.72,-10.30,-10.68,-10.25,10.25,10.19,5.22,-0.47,-0.43,-0.42
22.09,-10.65,-10.24,-10.61,-10.19,10.19,10.15,5.36,-0.46,-0.42,-0.41
22.31,-10.55,-10.14,-10.53,-10.13,10.13,10.11,5.51,-0.42,-0.40,-0.41
22.54,-10.46,-10.06,-10.46,-10.07,10.07,10.06,5.66,-0.39,-0.39,-0.40
22.76,-10.36,-9.97,-10.39,-10.00,10.00,10.01,5.81,-0.36,-0.38,-0.39
22.99,-10.26,-9.87,-10.31,-9.93,9.93,9.96,5.97,-0.33,-0.38,-0.39
23.22,-10.21,-9.83,-10.23,-9.86,9.86,9.90,6.13,-0.35,-0.37,-0.38
23.45,-10.15,-9.78,-10.15,-9.78,9.78,9.85,6.29,-0.36,-0.37,-0.37
23.69,-10.10,-9.74,-10.07,-9.71,9.71,9.79,6.46,-0.39,-0.36,-0.36
23.92,-10.05,-9.70,-10.00,-9.64,9.64,9.72,6.63,-0.41,-0.36,-0.35
24.16,-9.96,-9.62,-9.92,-9.57,9.57,9.66,6.80,-0.39,-0.35,-0.34
24.40,-9.86,-9.53,-9.85,-9.50,9.50,9.59,6.98,-0.35,-0.35,-0.33
24.65,-9.76,-9.42,-9.79,-9.44,9.44,9.52,7.16,-0.32,-0.35,-0.34
24.89,-9.65,-9.31,-9.72,-9.38,9.38,9.45,7.35,-0.27,-0.34,-0.34
25.14,-9.59,-9.25,-9.66,-9.31,9.31,9.38,7.54,-0.28,-0.34,-0.34
25.39,-9.56,-9.22,-9.59,-9.25,9.25,9.31,7.73,-0.31,-0.34,-0.34
25.65,-9.53,-9.19,-9.52,-9.17,9.17,9.23,7.92,-0.36,-0.34,-0.34
25.91,-9.50,-9.14,-9.44,-9.10,9.10,9.15,8.12,-0.40,-0.34,-0.36
26.16,-9.44,-9.09,-9.37,-9.03,9.03,9.08,8.31,-0.41,-0.35,-0.35
26.43,-9.36,-9.01,-9.31,-8.96,8.96,9.00,8.51,-0.40,-0.35,-0.35
26.69,-9.27,-8.92,-9.26,-8.90,8.90,8.92,8.70,-0.37,-0.35,-0.35
26.96,-9.19,-8.84,-9.21,-8.85,8.85,8.84,8.90,-0.34,-0.36,-0.35
27.23,-9.12,-8.77,-9.15,-8.79,8.79,8.76,9.09,-0.33,-0.36,-0.35
27.50,-9.04,-8.69,-9.09,-8.73,8.73,8.68,9.28,-0.31,-0.36,-0.35
27.77,-8.96,-8.60,-9.03,-8.66,8.66,8.60,9.46,-0.29,-0.36,-0.36
28.05,-8.90,-8.54,-8.96,-8.60,8.60,8.52,9.64,-0.30,-0.36,-0.36
28.33,-8.90,-8.52,-8.90,-8.53,8.53,8.44,9.81,-0.37,-0.37,-0.38
28.62,-8.89,-8.52,-8.83,-8.47,8.47,8.36,9.97,-0.42,-0.37,-0.37
28.90,-8.89,-8.52,-8.78,-8.41,8.41,8.28,10.12,-0.48,-0.37,-0.37
29.19,-8.81,-8.43,-8.72,-8.35,8.35,8.20,10.25,-0.46,-0.37,-0.38
29.48,-8.68,-8.31,-8.67,-8.29,8.29,8.12,10.38,-0.39,-0.38,-0.37
29.78,-8.55,-8.18,-8.62,-8.24,8.24,8.04,10.48,-0.31,-0.38,-0.37
30.08,-8.46,-8.09,-8.57,-8.18,8.18,7.97,10.57,-0.28,-0.39,-0.37
30.38,-8.45,-8.06,-8.51,-8.12,8.12,7.89,10.65,-0.33,-0.39,-0.39
30.68,-8.44,-8.05,-8.45,-8.06,8.06,7.81,10.70,-0.38,-0.40,-0.39
30.99,-8.43,-8.03,-8.39,-7.99,7.99,7.74,10.73,-0.44,-0.40,-0.40
31.30,-8.36,-7.96,-8.33,-7.92,7.92,7.66,10.74,-0.44,-0.40,-0.40
31.61,-8.30,-7.90,-8.26,-7.85,7.85,7.59,10.73,-0.45,-0.41,-0.40
31.93,-8.23,-7.81,-8.20,-7.78,7.78,7.52,10.70,-0.45,-0.41,-0.42
32.24,-8.15,-7.72,-8.13,-7.71,7.71,7.45,10.65,-0.43,-0.42,-0.43
32.57,-8.08,-7.65,-8.07,-7.65,7.65,7.38,10.59,-0.43,-0.42,-0.43
32.89,-8.00,-7.57,-8.01,-7.58,7.58,7.31,10.50,-0.42,-0.43,-0.43
33.22,-7.93,-7.50,-7.94,-7.50,7.50,7.24,10.40,-0.43,-0.44,-0.43
33.55,-7.85,-7.41,-7.86,-7.42,7.42,7.17,10.29,-0.43,-0.44,-0.44
33.89,-7.78,-7.34,-7.79,-7.34,7.34,7.11,10.16,-0.44,-0.44,-0.44
34.23,-7.71,-7.27,-7.71,-7.26,7.26,7.04,10.02,-0.45,-0.45,-0.44
34.57,-7.66,-7.21,-7.64,-7.18,7.18,6.98,9.87,-0.48,-0.45,-0.45
34.92,-7.60,-7.14,-7.57,-7.11,7.11,6.92,9.71,-0.49,-0.46,-0.46
35.27,-7.51,-7.05,-7.50,-7.04,7.04,6.86,9.55,-0.47,-0.47,-0.46
35.62,-7.41,-6.94,-7.45,-6.98,6.98,6.80,9.38,-0.43,-0.47,-0.47
35.97,-7.31,-6.83,-7.39,-6.91,6.91,6.75,9.21,-0.40,-0.48,-0.48
36.33,-7.30,-6.82,-7.33,-6.85,6.85,6.69,9.03,-0.45,-0.48,-0.48
36.70,-7.29,-6.81,-7.28,-6.79,6.79,6.64,8.86,-0.50,-0.49,-0.48
37.06,-7.28,-6.78,-7.23,-6.73,6.73,6.59,8.68,-0.55,-0.50,-0.50
37.43,-7.19,-6.69,-7.18,-6.68,6.68,6.54,8.51,-0.51,-0.50,-0.50
37.81,-7.11,-6.60,-7.14,-6.63,6.63,6.49,8.33,-0.48,-0.51,-0.51
38.19,-7.07,-6.55,-7.09,-6.58,6.58,6.44,8.16,-0.49,-0.52,-0.52
38.57,-7.07,-6.55,-7.05,-6.52,6.52,6.40,7.99,-0.55,-0.52,-0.52
38.95,-7.07,-6.54,-7.01,-6.48,6.48,6.35,7.82,-0.59,-0.53,-0.53
39.34,-6.99,-6.45,-6.97,-6.44,6.44,6.31,7.66,-0.55,-0.54,-0.54
39.74,-6.90,-6.34,-6.93,-6.39,6.39,6.27,7.50,-0.51,-0.54,-0.56
40.14,-6.84,-6.29,-6.88,-6.33,6.33,6.22,7.34,-0.51,-0.55,-0.55
40.54,-6.84,-6.28,-6.83,-6.27,6.27,6.18,7.19,-0.57,-0.56,-0.56
40.94,-6.84,-6.28,-6.78,-6.20,6.20,6.15,7.04,-0.64,-0.58,-0.56
41.35,-6.76,-6.18,-6.73,-6.14,6.14,6.11,6.90,-0.62,-0.59,-0.58
41.76,-6.66,-6.06,-6.68,-6.07,6.07,6.07,6.76,-0.59,-0.61,-0.60
42.18,-6.61,-6.00,-6.63,-6.00,6.00,6.03,6.62,-0.61,-0.63,-0.61
42.60,-6.61,-5.97,-6.59,-5.93,5.93,5.99,6.49,-0.68,-0.65,-0.64
43.03,-6.60,-5.95,-6.54,-5.87,5.87,5.96,6.36,-0.73,-0.68,-0.65
43.46,-6.50,-5.82,-6.51,-5.81,5.81,5.92,6.24,-0.69,-0.70,-0.68
43.90,-6.40,-5.67,-6.48,-5.76,5.76,5.88,6.13,-0.64,-0.73,-0.73
44.33,-6.38,-5.62,-6.46,-5.71,5.71,5.84,6.01,-0.67,-0.75,-0.76
44.78,-6.38,-5.59,-6.43,-5.65,5.65,5.80,5.90,-0.73,-0.78,-0.79
45.23,-6.38,-5.56,-6.40,-5.59,5.59,5.76,5.80,-0.79,-0.81,-0.82
45.68,-6.38,-5.53,-6.37,-5.54,5.54,5.72,5.70,-0.84,-0.83,-0.85
46.13,-6.38,-5.51,-6.35,-5.50,5.50,5.68,5.61,-0.88,-0.86,-0.87
46.60,-6.38,-5.50,-6.33,-5.46,5.46,5.63,5.51,-0.92,-0.87,-0.88
47.06,-6.38,-5.48,-6.31,-5.42,5.42,5.59,5.43,-0.96,-0.89,-0.90
47.53,-6.36,-5.46,-6.29,-5.38,5.38,5.54,5.34,-0.98,-0.90,-0.90
48.01,-6.34,-5.44,-6.27,-5.36,5.36,5.49,5.26,-0.98,-0.91,-0.90
48.49,-6.25,-5.33,-6.25,-5.34,5.34,5.43,5.19,-0.92,-0.92,-0.92
48.97,-6.16,-5.23,-6.23,-5.31,5.31,5.38,5.11,-0.85,-0.92,-0.93
49.46,-6.15,-5.21,-6.20,-5.28,5.28,5.32,5.04,-0.87,-0.92,-0.94
49.96,-6.15,-5.21,-6.18,-5.25,5.25,5.26,4.98,-0.90,-0.93,-0.94
50.46,-6.15,-5.22,-6.16,-5.23,5.23,5.20,4.91,-0.92,-0.93,-0.93
50.96,-6.15,-5.23,-6.15,-5.22,5.22,5.13,4.85,-0.93,-0.94,-0.92
51.47,-6.15,-5.22,-6.15,-5.20,5.20,5.06,4.79,-0.95,-0.95,-0.93
51.99,-6.15,-5.20,-6.16,-5.19,5.19,4.99,4.74,-0.96,-0.96,-0.95
52.51,-6.15,-5.19,-6.17,-5.19,5.19,4.92,4.68,-0.96,-0.98,-0.96
53.03,-6.15,-5.16,-6.19,-5.18,5.18,4.84,4.63,-0.97,-1.01,-0.99
53.56,-6.15,-5.13,-6.22,-5.18,5.18,4.77,4.58,-0.97,-1.04,-1.02
54.10,-6.17,-5.11,-6.26,-5.19,5.19,4.69,4.53,-0.98,-1.07,-1.06
54.64,-6.30,-5.19,-6.30,-5.19,5.19,4.61,4.48,-1.11,-1.11,-1.11
55.18,-6.38,-5.22,-6.34,-5.18,5.18,4.53,4.43,-1.20,-1.16,-1.16
55.74,-6.38,-5.17,-6.37,-5.16,5.16,4.45,4.39,-1.22,-1.21,-1.21
56.29,-6.38,-5.12,-6.38,-5.12,5.12,4.36,4.34,-1.26,-1.26,-1.26
56.86,-6.38,-5.06,-6.39,-5.07,5.07,4.28,4.29,-1.31,-1.32,-1.32
57.42,-6.38,-4.99,-6.38,-5.00,5.00,4.20,4.25,-1.38,-1.38,-1.39
58.00,-6.38,-4.93,-6.34,-4.90,4.90,4.11,4.20,-1.48,-1.44,-1.45
58.58,-6.38,-4.87,-6.28,-4.78,4.78,4.03,4.15,-1.60,-1.51,-1.51
59.16,-6.34,-4.78,-6.19,-4.62,4.62,3.94,4.10,-1.71,-1.57,-1.56
59.76,-6.21,-4.59,-6.09,-4.46,4.46,3.86,4.05,-1.75,-1.63,-1.62
60.35,-6.08,-4.39,-5.97,-4.28,4.28,3.78,4.00,-1.80,-1.69,-1.69
60.96,-5.94,-4.20,-5.83,-4.07,4.07,3.69,3.95,-1.87,-1.75,-1.74
61.57,-5.70,-3.89,-5.68,-3.87,3.87,3.61,3.90,-1.83,-1.81,-1.81
62.18,-5.48,-3.60,-5.53,-3.66,3.66,3.53,3.84,-1.82,-1.87,-1.88
62.80,-5.30,-3.38,-5.37,-3.45,3.45,3.45,3.78,-1.84,-1.92,-1.92
63.43,-5.10,-3.12,-5.22,-3.25,3.25,3.37,3.72,-1.85,-1.97,-1.98
64.07,-4.91,-2.89,-5.08,-3.06,3.06,3.29,3.66,-1.85,-2.02,-2.02
64.71,-4.83,-2.76,-4.95,-2.88,2.88,3.21,3.60,-1.95,-2.07,-2.07
65.35,-4.79,-2.67,-4.83,-2.72,2.72,3.14,3.53,-2.07,-2.11,-2.12
66.01,-4.79,-2.64,-4.73,-2.58,2.58,3.06,3.47,-2.21,-2.15,-2.15
66.67,-4.64,-2.45,-4.65,-2.46,2.46,2.99,3.40,-2.18,-2.19,-2.19
67.33,-4.56,-2.34,-4.59,-2.37,2.37,2.91,3.33,-2.19,-2.22,-2.22
68.01,-4.56,-2.31,-4.55,-2.30,2.30,2.84,3.26,-2.26,-2.26,-2.25
68.69,-4.56,-2.28,-4.53,-2.25,2.25,2.77,3.18,-2.31,-2.29,-2.28
69.37,-4.56,-2.24,-4.53,-2.21,2.21,2.70,3.11,-2.35,-2.32,-2.32
70.07,-4.56,-2.21,-4.54,-2.19,2.19,2.64,3.03,-2.37,-2.35,-2.35
70.77,-4.56,-2.20,-4.56,-2.18,2.18,2.57,2.96,-2.38,-2.38,-2.36
71.48,-4.56,-2.16,-4.59,-2.18,2.18,2.51,2.88,-2.38,-2.41,-2.40
72.19,-4.56,-2.14,-4.62,-2.19,2.19,2.44,2.80,-2.37,-2.44,-2.42
72.91,-4.56,-2.10,-4.66,-2.19,2.19,2.38,2.73,-2.37,-2.47,-2.46
73.64,-4.71,-2.22,-4.70,-2.21,2.21,2.32,2.65,-2.50,-2.50,-2.49
74.38,-4.79,-2.27,-4.75,-2.23,2.23,2.26,2.57,-2.56,-2.53,-2.52
75.12,-4.80,-2.25,-4.80,-2.25,2.25,2.20,2.49,-2.56,-2.56,-2.55
75.87,-4.84,-2.26,-4.84,-2.26,2.26,2.15,2.41,-2.58,-2.58,-2.58
76.63,-4.95,-2.34,-4.88,-2.27,2.27,2.09,2.34,-2.68,-2.61,-2.61
77.40,-5.01,-2.37,-4.92,-2.28,2.28,2.04,2.26,-2.73,-2.64,-2.64
78.17,-5.01,-2.34,-4.95,-2.29,2.29,1.98,2.18,-2.72,-2.66,-2.67
78.95,-5.01,-2.33,-4.98,-2.30,2.30,1.93,2.11,-2.71,-2.68,-2.68
79.74,-5.01,-2.31,-5.01,-2.30,2.30,1.88,2.03,-2.71,-2.70,-2.70
80.54,-5.01,-2.29,-5.02,-2.30,2.30,1.83,1.96,-2.71,-2.72,-2.72
81.35,-5.01,-2.27,-5.03,-2.30,2.30,1.78,1.88,-2.71,-2.73,-2.74
82.16,-5.01,-2.27,-5.03,-2.30,2.30,1.73,1.81,-2.71,-2.74,-2.74
82.98,-5.01,-2.27,-5.04,-2.30,2.30,1.68,1.74,-2.71,-2.74,-2.74
83.81,-5.01,-2.26,-5.05,-2.30,2.30,1.64,1.66,-2.71,-2.75,-2.75
84.65,-5.01,-2.25,-5.05,-2.30,2.30,1.59,1.59,-2.71,-2.75,-2.76
85.50,-5.01,-2.26,-5.04,-2.29,2.29,1.54,1.52,-2.72,-2.75,-2.75
86.35,-5.01,-2.26,-5.03,-2.28,2.28,1.50,1.45,-2.73,-2.75,-2.75
87.22,-5.01,-2.26,-5.01,-2.27,2.27,1.46,1.38,-2.74,-2.75,-2.75
88.09,-5.01,-2.26,-4.99,-2.25,2.25,1.42,1.31,-2.76,-2.75,-2.75
88.97,-5.01,-2.28,-4.97,-2.22,2.22,1.37,1.25,-2.79,-2.75,-2.73
89.86,-5.01,-2.28,-4.94,-2.19,2.19,1.33,1.18,-2.82,-2.75,-2.73
90.76,-5.00,-2.25,-4.89,-2.14,2.14,1.29,1.12,-2.86,-2.75,-2.75
91.66,-4.86,-2.12,-4.84,-2.08,2.08,1.26,1.05,-2.78,-2.76,-2.74
92.58,-4.79,-2.02,-4.78,-2.01,2.01,1.22,0.99,-2.78,-2.76,-2.77
93.51,-4.69,-1.93,-4.71,-1.93,1.93,1.18,0.92,-2.76,-2.77,-2.76
94.44,-4.58,-1.80,-4.63,-1.85,1.85,1.14,0.86,-2.73,-2.79,-2.78
95.39,-4.56,-1.77,-4.56,-1.75,1.75,1.11,0.80,-2.81,-2.80,-2.79
96.34,-4.52,-1.69,-4.48,-1.66,1.66,1.07,0.74,-2.86,-2.82,-2.83
97.30,-4.41,-1.56,-4.42,-1.58,1.58,1.04,0.68,-2.83,-2.84,-2.85
98.28,-4.33,-1.46,-4.35,-1.48,1.48,1.00,0.62,-2.85,-2.87,-2.87
99.26,-4.27,-1.37,-4.29,-1.39,1.39,0.97,0.56,-2.88,-2.90,-2.90
100.25,-4.11,-1.18,-4.23,-1.30,1.30,0.94,0.50,-2.81,-2.93,-2.93
101.25,-4.10,-1.14,-4.17,-1.21,1.21,0.91,0.45,-2.89,-2.97,-2.96
102.27,-4.10,-1.10,-4.13,-1.12,1.12,0.87,0.39,-2.98,-3.01,-3.00
103.29,-4.10,-1.05,-4.09,-1.04,1.04,0.84,0.34,-3.06,-3.05,-3.05
104.32,-4.10,-1.01,-4.05,-0.95,0.95,0.81,0.28,-3.15,-3.10,-3.09
105.37,-4.10,-0.96,-4.02,-0.86,0.86,0.78,0.23,-3.24,-3.16,-3.14
106.42,-4.10,-0.91,-3.99,-0.77,0.77,0.75,0.18,-3.33,-3.21,-3.19
107.48,-4.00,-0.74,-3.96,-0.69,0.69,0.73,0.13,-3.31,-3.27,-3.26
108.56,-3.88,-0.54,-3.93,-0.59,0.59,0.70,0.09,-3.29,-3.34,-3.34
109.64,-3.87,-0.46,-3.91,-0.50,0.50,0.67,0.04,-3.37,-3.41,-3.41
110.74,-3.87,-0.40,-3.89,-0.41,0.41,0.64,0.00,-3.46,-3.48,-3.47
111.85,-3.87,-0.33,-3.89,-0.33,0.33,0.62,-0.04,-3.54,-3.55,-3.54
112.97,-3.87,-0.24,-3.88,-0.25,0.25,0.59,-0.08,-3.62,-3.63,-3.63
114.10,-3.87,-0.18,-3.88,-0.18,0.18,0.57,-0.11,-3.69,-3.70,-3.69
115.24,-3.87,-0.10,-3.88,-0.11,0.11,0.54,-0.15,-3.76,-3.77,-3.77
116.39,-3.87,-0.02,-3.88,-0.05,0.05,0.52,-0.18,-3.82,-3.83,-3.85
117.55,-3.87,0.04,-3.90,0.00,-0.00,0.50,-0.21,-3.87,-3.90,-3.91
118.73,-3.87,0.11,-3.92,0.04,-0.04,0.47,-0.23,-3.91,-3.96,-3.98
119.92,-3.88,0.14,-3.95,0.06,-0.06,0.45,-0.26,-3.94,-4.01,-4.02
121.12,-4.10,-0.02,-3.99,0.07,-0.07,0.43,-0.28,-4.17,-4.06,-4.08
122.33,-4.10,0.02,-4.03,0.08,-0.08,0.41,-0.29,-4.18,-4.11,-4.12
123.55,-4.10,0.04,-4.07,0.09,-0.09,0.39,-0.30,-4.19,-4.15,-4.14
124.79,-4.10,0.08,-4.10,0.09,-0.09,0.37,-0.31,-4.19,-4.19,-4.18
126.03,-4.10,0.12,-4.13,0.10,-0.10,0.35,-0.32,-4.20,-4.22,-4.22
127.29,-4.10,0.15,-4.16,0.10,-0.10,0.33,-0.33,-4.20,-4.26,-4.25
128.57,-4.15,0.14,-4.20,0.10,-0.10,0.31,-0.33,-4.25,-4.29,-4.29
129.85,-4.31,0.01,-4.23,0.09,-0.09,0.29,-0.32,-4.40,-4.32,-4.32
131.15,-4.33,0.02,-4.26,0.10,-0.10,0.28,-0.32,-4.43,-4.36,-4.35
132.46,-4.33,0.05,-4.29,0.10,-0.10,0.26,-0.31,-4.43,-4.39,-4.38
133.79,-4.33,0.08,-4.32,0.11,-0.11,0.25,-0.30,-4.44,-4.42,-4.41
135.12,-4.33,0.13,-4.34,0.11,-0.11,0.23,-0.28,-4.44,-4.45,-4.46
136.48,-4.33,0.16,-4.38,0.10,-0.10,0.22,-0.27,-4.43,-4.49,-4.49
137.84,-4.33,0.19,-4.42,0.10,-0.10,0.20,-0.25,-4.43,-4.52,-4.52
139.22,-4.45,0.12,-4.46,0.10,-0.10,0.19,-0.23,-4.55,-4.56,-4.57
140.61,-4.54,0.08,-4.50,0.10,-0.10,0.18,-0.20,-4.64,-4.60,-4.62
142.02,-4.56,0.08,-4.53,0.11,-0.11,0.17,-0.18,-4.67,-4.64,-4.64
143.44,-4.56,0.12,-4.57,0.12,-0.12,0.16,-0.15,-4.68,-4.69,-4.68
144.87,-4.56,0.16,-4.60,0.14,-0.14,0.15,-0.12,-4.70,-4.74,-4.72
146.32,-4.71,0.06,-4.65,0.14,-0.14,0.14,-0.09,-4.85,-4.79,-4.77
147.78,-4.79,0.02,-4.71,0.14,-0.14,0.13,-0.05,-4.93,-4.85,-4.81
149.26,-4.79,0.09,-4.78,0.14,-0.14,0.13,-0.02,-4.93,-4.91,-4.88
150.75,-4.79,0.17,-4.85,0.13,-0.13,0.12,0.02,-4.92,-4.98,-4.96
152.26,-4.80,0.23,-4.92,0.13,-0.13,0.11,0.05,-4.93,-5.05,-5.03
153.78,-4.94,0.16,-4.99,0.13,-0.13,0.11,0.09,-5.07,-5.12,-5.10
155.32,-5.00,0.20,-5.05,0.14,-0.14,0.11,0.13,-5.14,-5.19,-5.20
156.88,-5.03,0.24,-5.12,0.14,-0.14,0.11,0.17,-5.17,-5.26,-5.27
158.44,-5.18,0.16,-5.18,0.15,-0.15,0.10,0.21,-5.33,-5.33,-5.34
160.03,-5.30,0.12,-5.24,0.16,-0.16,0.10,0.25,-5.46,-5.40,-5.42
161.63,-5.44,0.04,-5.29,0.17,-0.17,0.11,0.29,-5.61,-5.46,-5.48
163.24,-5.47,0.06,-5.33,0.18,-0.18,0.11,0.33,-5.65,-5.51,-5.53
164.88,-5.47,0.10,-5.37,0.18,-0.18,0.11,0.38,-5.65,-5.55,-5.57
166.53,-5.47,0.14,-5.43,0.16,-0.16,0.12,0.42,-5.63,-5.59,-5.61
168.19,-5.47,0.17,-5.48,0.14,-0.14,0.12,0.46,-5.61,-5.61,-5.64
169.87,-5.47,0.18,-5.51,0.12,-0.12,0.13,0.51,-5.59,-5.63,-5.65
171.57,-5.47,0.19,-5.55,0.10,-0.10,0.14,0.56,-5.57,-5.64,-5.66
173.29,-5.47,0.19,-5.59,0.06,-0.06,0.15,0.60,-5.53,-5.65,-5.66
175.02,-5.47,0.17,-5.62,0.03,-0.03,0.16,0.65,-5.50,-5.66,-5.64
176.77,-5.66,-0.01,-5.65,0.00,-0.00,0.18,0.69,-5.66,-5.66,-5.65
178.54,-5.70,-0.06,-5.69,-0.04,0.04,0.19,0.74,-5.66,-5.65,-5.64
180.32,-5.78,-0.15,-5.74,-0.08,0.08,0.21,0.79,-5.70,-5.66,-5.63
182.13,-5.88,-0.25,-5.79,-0.14,0.14,0.23,0.84,-5.74,-5.66,-5.63
183.95,-5.93,-0.30,-5.86,-0.20,0.20,0.25,0.89,-5.73,-5.66,-5.63
185.79,-5.93,-0.29,-5.93,-0.27,0.27,0.27,0.94,-5.66,-5.66,-5.64
187.65,-5.93,-0.27,-6.00,-0.33,0.33,0.29,0.99,-5.60,-5.67,-5.66
189.52,-6.10,-0.42,-6.07,-0.39,0.39,0.32,1.04,-5.71,-5.68,-5.68
191.42,-6.15,-0.45,-6.15,-0.45,0.45,0.35,1.09,-5.70,-5.69,-5.70
193.33,-6.15,-0.43,-6.22,-0.51,0.51,0.38,1.14,-5.64,-5.71,-5.72
195.27,-6.26,-0.54,-6.29,-0.56,0.56,0.41,1.19,-5.70,-5.73,-5.72
197.22,-6.36,-0.62,-6.35,-0.60,0.60,0.44,1.24,-5.76,-5.75,-5.74
199.19,-6.39,-0.61,-6.42,-0.65,0.65,0.48,1.29,-5.74,-5.76,-5.78
201.18,-6.52,-0.74,-6.48,-0.70,0.70,0.52,1.34,-5.82,-5.78,-5.78
203.19,-6.61,-0.81,-6.55,-0.74,0.74,0.56,1.39,-5.87,-5.80,-5.80
205.23,-6.61,-0.78,-6.62,-0.80,0.80,0.60,1.44,-5.81,-5.82,-5.83
207.28,-6.69,-0.86,-6.68,-0.84,0.84,0.65,1.49,-5.85,-5.84,-5.83
209.35,-6.81,-0.96,-6.75,-0.89,0.89,0.69,1.54,-5.92,-5.85,-5.85
211.44,-6.84,-0.96,-6.81,-0.94,0.94,0.74,1.58,-5.90,-5.87,-5.88
213.56,-6.84,-0.96,-6.88,-1.00,1.00,0.79,1.63,-5.84,-5.88,-5.88
215.69,-6.84,-0.96,-6.95,-1.06,1.06,0.85,1.67,-5.78,-5.90,-5.88
217.85,-7.05,-1.14,-7.01,-1.10,1.10,0.90,1.72,-5.95,-5.91,-5.91
220.03,-7.07,-1.15,-7.07,-1.15,1.15,0.96,1.76,-5.92,-5.92,-5.92
222.23,-7.07,-1.13,-7.13,-1.20,1.20,1.02,1.80,-5.87,-5.93,-5.94
224.45,-7.17,-1.23,-7.18,-1.24,1.24,1.08,1.84,-5.93,-5.94,-5.94
226.70,-7.28,-1.34,-7.24,-1.30,1.30,1.15,1.87,-5.98,-5.95,-5.94
228.96,-7.29,-1.34,-7.31,-1.36,1.36,1.21,1.90,-5.93,-5.95,-5.95
231.25,-7.46,-1.51,-7.38,-1.42,1.42,1.28,1.93,-6.04,-5.96,-5.95
233.57,-7.52,-1.56,-7.44,-1.47,1.47,1.34,1.96,-6.05,-5.96,-5.96
235.90,-7.52,-1.55,-7.50,-1.54,1.54,1.41,1.98,-5.98,-5.96,-5.97
238.26,-7.52,-1.55,-7.57,-1.60,1.60,1.48,2.00,-5.92,-5.96,-5.97
240.64,-7.52,-1.55,-7.63,-1.67,1.67,1.55,2.02,-5.85,-5.96,-5.97
243.05,-7.68,-1.72,-7.69,-1.73,1.73,1.62,2.03,-5.95,-5.96,-5.96
245.48,-7.75,-1.80,-7.76,-1.80,1.80,1.69,2.04,-5.95,-5.96,-5.95
247.93,-7.75,-1.81,-7.83,-1.87,1.87,1.76,2.04,-5.88,-5.95,-5.94
250.41,-7.94,-1.99,-7.88,-1.94,1.94,1.83,2.04,-6.00,-5.95,-5.95
252.92,-7.98,-2.04,-7.95,-2.01,2.01,1.89,2.04,-5.97,-5.94,-5.94
255.45,-7.98,-2.07,-8.01,-2.08,2.08,1.96,2.03,-5.90,-5.93,-5.91
258.00,-7.98,-2.07,-8.05,-2.13,2.13,2.02,2.02,-5.85,-5.92,-5.91
260.58,-8.12,-2.21,-8.10,-2.19,2.19,2.08,2.00,-5.93,-5.91,-5.91
263.19,-8.20,-2.31,-8.15,-2.25,2.25,2.13,1.98,-5.95,-5.89,-5.89
265.82,-8.21,-2.32,-8.18,-2.30,2.30,2.19,1.96,-5.91,-5.88,-5.89
268.48,-8.21,-2.35,-8.20,-2.33,2.33,2.23,1.93,-5.88,-5.86,-5.86
271.16,-8.21,-2.36,-8.19,-2.35,2.35,2.27,1.90,-5.86,-5.85,-5.85
273.87,-8.21,-2.37,-8.18,-2.35,2.35,2.31,1.87,-5.86,-5.83,-5.84
276.61,-8.21,-2.41,-8.15,-2.35,2.35,2.34,1.83,-5.86,-5.81,-5.80
279.38,-8.21,-2.42,-8.11,-2.32,2.32,2.36,1.80,-5.89,-5.78,-5.79
282.17,-8.04,-2.28,-8.06,-2.31,2.31,2.38,1.75,-5.73,-5.76,-5.76
284.99,-7.98,-2.25,-8.02,-2.28,2.28,2.39,1.71,-5.70,-5.73,-5.73
287.84,-7.98,-2.27,-7.96,-2.25,2.25,2.40,1.67,-5.73,-5.70,-5.71
290.72,-7.90,-2.23,-7.88,-2.21,2.21,2.39,1.62,-5.69,-5.68,-5.67
293.63,-7.77,-2.12,-7.81,-2.16,2.16,2.38,1.57,-5.61,-5.65,-5.65
296.57,-7.75,-2.13,-7.75,-2.12,2.12,2.36,1.52,-5.63,-5.62,-5.62
299.53,-7.58,-1.99,-7.68,-2.08,2.08,2.33,1.47,-5.50,-5.60,-5.59
302.53,-7.52,-1.94,-7.62,-2.05,2.05,2.30,1.42,-5.47,-5.58,-5.58
305.55,-7.52,-1.98,-7.56,-2.01,2.01,2.26,1.37,-5.51,-5.56,-5.54
308.61,-7.52,-2.00,-7.50,-1.96,1.96,2.22,1.32,-5.56,-5.54,-5.52
311.69,-7.52,-2.01,-7.44,-1.92,1.92,2.17,1.27,-5.60,-5.52,-5.51
314.81,-7.38,-1.90,-7.39,-1.88,1.88,2.11,1.22,-5.50,-5.51,-5.48
317.96,-7.30,-1.82,-7.33,-1.83,1.83,2.05,1.17,-5.47,-5.50,-5.48
321.14,-7.29,-1.80,-7.27,-1.79,1.79,1.98,1.11,-5.50,-5.49,-5.49
324.35,-7.29,-1.81,-7.22,-1.75,1.75,1.91,1.06,-5.54,-5.48,-5.48
327.59,-7.26,-1.79,-7.18,-1.71,1.71,1.84,1.01,-5.55,-5.47,-5.47
330.87,-7.12,-1.66,-7.13,-1.67,1.67,1.76,0.96,-5.45,-5.46,-5.46
334.18,-7.07,-1.61,-7.07,-1.63,1.63,1.68,0.91,-5.44,-5.45,-5.46
337.52,-6.94,-1.49,-7.01,-1.58,1.58,1.60,0.86,-5.36,-5.43,-5.45
340.90,-6.86,-1.44,-6.95,-1.53,1.53,1.52,0.81,-5.33,-5.42,-5.42
344.30,-6.84,-1.43,-6.90,-1.49,1.49,1.43,0.76,-5.35,-5.41,-5.41
347.75,-6.84,-1.44,-6.83,-1.44,1.44,1.35,0.71,-5.40,-5.39,-5.40
351.23,-6.84,-1.47,-6.77,-1.40,1.40,1.26,0.67,-5.44,-5.37,-5.37
354.74,-6.74,-1.39,-6.70,-1.35,1.35,1.18,0.62,-5.39,-5.35,-5.35
358.28,-6.63,-1.31,-6.63,-1.30,1.30,1.10,0.57,-5.33,-5.32,-5.32
361.87,-6.61,-1.31,-6.56,-1.25,1.25,1.01,0.52,-5.36,-5.30,-5.30
365.49,-6.45,-1.17,-6.48,-1.20,1.20,0.93,0.48,-5.25,-5.28,-5.28
369.14,-6.39,-1.13,-6.41,-1.15,1.15,0.85,0.43,-5.24,-5.26,-5.26
372.83,-6.38,-1.15,-6.33,-1.09,1.09,0.77,0.39,-5.29,-5.24,-5.23
376.56,-6.33,-1.12,-6.25,-1.03,1.03,0.69,0.34,-5.30,-5.22,-5.21
380.33,-6.09,-0.91,-6.15,-0.96,0.96,0.61,0.30,-5.13,-5.20,-5.18
384.13,-5.95,-0.79,-6.05,-0.87,0.87,0.53,0.26,-5.08,-5.18,-5.16
387.97,-5.93,-0.78,-5.94,-0.78,0.78,0.46,0.21,-5.15,-5.16,-5.15
391.85,-5.92,-0.77,-5.84,-0.69,0.69,0.38,0.17,-5.23,-5.15,-5.15
395.77,-5.76,-0.62,-5.74,-0.60,0.60,0.31,0.13,-5.16,-5.14,-5.14
399.73,-5.64,-0.51,-5.64,-0.51,0.51,0.24,0.09,-5.13,-5.13,-5.13
403.72,-5.51,-0.39,-5.54,-0.42,0.42,0.17,0.05,-5.09,-5.12,-5.12
407.76,-5.47,-0.36,-5.44,-0.33,0.33,0.10,0.01,-5.14,-5.11,-5.11
411.84,-5.34,-0.24,-5.34,-0.23,0.23,0.04,-0.03,-5.11,-5.11,-5.10
415.96,-5.25,-0.16,-5.24,-0.14,0.14,-0.03,-0.07,-5.11,-5.10,-5.09
420.12,-5.06,0.03,-5.15,-0.05,0.05,-0.09,-0.11,-5.01,-5.10,-5.09
424.32,-5.01,0.08,-5.07,0.02,-0.02,-0.15,-0.15,-5.03,-5.10,-5.09
428.56,-5.01,0.08,-4.99,0.11,-0.11,-0.21,-0.19,-5.12,-5.10,-5.09
432.85,-4.92,0.18,-4.90,0.19,-0.19,-0.26,-0.23,-5.11,-5.09,-5.10
437.18,-4.81,0.28,-4.81,0.27,-0.27,-0.32,-0.27,-5.08,-5.09,-5.09
