frequency,raw,error,smoothed,error_smoothed,equalization,parametric_eq,fixed_band_eq,equalized_raw,equalized_smoothed,target
20.00,-0.64,-4.82,-0.64,-4.85,4.85,4.72,1.54,4.21,4.20,4.18
20.20,-0.59,-4.81,-0.59,-4.83,4.83,4.72,1.58,4.24,4.24,4.22
20.40,-0.54,-4.80,-0.54,-4.80,4.80,4.73,1.63,4.27,4.27,4.26
20.61,-0.49,-4.78,-0.49,-4.78,4.78,4.73,1.68,4.29,4.29,4.29
20.81,-0.44,-4.77,-0.43,-4.75,4.75,4.72,1.73,4.32,4.32,4.33
21.02,-0.38,-4.75,-0.38,-4.73,4.73,4.71,1.78,4.35,4.35,4.37
21.23,-0.33,-4.72,-0.33,-4.70,4.70,4.70,1.83,4.37,4.37,4.39
21.44,-0.28,-4.69,-0.27,-4.67,4.67,4.69,1.89,4.39,4.39,4.41
21.66,-0.22,-4.65,-0.22,-4.64,4.64,4.68,1.94,4.42,4.42,4.43
21.87,-0.17,-4.61,-0.17,-4.60,4.60,4.66,2.00,4.44,4.44,4.44
22.09,-0.12,-4.58,-0.12,-4.57,4.57,4.64,2.06,4.45,4.45,4.46
22.31,-0.06,-4.53,-0.06,-4.53,4.53,4.62,2.12,4.48,4.47,4.47
22.54,-0.01,-4.49,-0.01,-4.49,4.49,4.59,2.18,4.48,4.48,4.48
22.76,0.04,-4.45,0.04,-4.45,4.45,4.56,2.25,4.49,4.49,4.49
22.99,0.10,-4.39,0.10,-4.41,4.41,4.53,2.31,4.51,4.50,4.49
23.22,0.15,-4.35,0.15,-4.36,4.36,4.50,2.38,4.51,4.51,4.50
23.45,0.20,-4.31,0.20,-4.32,4.32,4.47,2.45,4.52,4.52,4.51
23.69,0.25,-4.27,0.25,-4.27,4.27,4.43,2.52,4.52,4.53,4.52
23.92,0.30,-4.23,0.31,-4.23,4.23,4.39,2.59,4.53,4.54,4.53
24.16,0.36,-4.19,0.36,-4.19,4.19,4.35,2.66,4.55,4.55,4.55
24.40,0.41,-4.16,0.41,-4.14,4.14,4.31,2.73,4.55,4.55,4.57
24.65,0.46,-4.10,0.47,-4.10,4.10,4.26,2.81,4.56,4.56,4.56
24.89,0.52,-4.05,0.52,-4.06,4.06,4.22,2.88,4.58,4.57,4.57
25.14,0.57,-4.01,0.57,-4.01,4.01,4.17,2.95,4.59,4.58,4.58
25.39,0.62,-3.97,0.62,-3.97,3.97,4.12,3.03,4.59,4.60,4.59
25.65,0.68,-3.93,0.68,-3.93,3.93,4.08,3.10,4.61,4.61,4.61
25.91,0.73,-3.88,0.73,-3.88,3.88,4.03,3.18,4.62,4.62,4.61
26.16,0.78,-3.84,0.78,-3.84,3.84,3.97,3.25,4.62,4.63,4.62
26.43,0.84,-3.79,0.84,-3.80,3.80,3.92,3.33,4.64,4.63,4.63
26.69,0.89,-3.75,0.89,-3.75,3.75,3.87,3.40,4.64,4.64,4.64
26.96,0.94,-3.72,0.94,-3.71,3.71,3.82,3.47,4.65,4.65,4.66
27.23,0.99,-3.68,1.00,-3.66,3.66,3.76,3.54,4.66,4.66,4.67
27.50,1.05,-3.62,1.05,-3.62,3.62,3.71,3.60,4.67,4.67,4.67
27.77,1.10,-3.57,1.10,-3.58,3.58,3.65,3.67,4.68,4.68,4.67
28.05,1.15,-3.54,1.15,-3.53,3.53,3.60,3.73,4.69,4.69,4.69
28.33,1.20,-3.49,1.21,-3.49,3.49,3.54,3.78,4.69,4.70,4.69
28.62,1.26,-3.44,1.26,-3.45,3.45,3.49,3.84,4.71,4.70,4.70
28.90,1.31,-3.40,1.31,-3.40,3.40,3.43,3.88,4.71,4.71,4.71
29.19,1.36,-3.35,1.36,-3.36,3.36,3.38,3.93,4.72,4.72,4.71
29.48,1.41,-3.33,1.41,-3.31,3.31,3.32,3.97,4.72,4.73,4.74
29.78,1.46,-3.27,1.46,-3.27,3.27,3.27,4.00,4.73,4.73,4.73
30.08,1.51,-3.23,1.51,-3.22,3.22,3.21,4.02,4.74,4.74,4.74
30.38,1.56,-3.18,1.56,-3.18,3.18,3.16,4.04,4.74,4.75,4.74
30.68,1.62,-3.14,1.61,-3.14,3.14,3.11,4.06,4.76,4.75,4.76
30.99,1.67,-3.09,1.66,-3.10,3.10,3.05,4.07,4.77,4.76,4.76
31.30,1.71,-3.05,1.71,-3.06,3.06,3.00,4.07,4.77,4.77,4.76
31.61,1.76,-3.01,1.76,-3.02,3.02,2.94,4.06,4.78,4.78,4.77
31.93,1.80,-2.98,1.80,-2.98,2.98,2.89,4.05,4.78,4.78,4.78
32.24,1.84,-2.94,1.85,-2.94,2.94,2.84,4.03,4.78,4.79,4.78
32.57,1.89,-2.91,1.90,-2.90,2.90,2.79,4.01,4.79,4.80,4.80
32.89,1.94,-2.86,1.94,-2.86,2.86,2.74,3.97,4.80,4.80,4.80
33.22,1.98,-2.83,1.99,-2.82,2.82,2.69,3.94,4.80,4.81,4.81
33.55,2.03,-2.79,2.04,-2.78,2.78,2.64,3.90,4.81,4.82,4.82
33.89,2.08,-2.75,2.08,-2.74,2.74,2.59,3.85,4.82,4.83,4.83
34.23,2.13,-2.70,2.13,-2.70,2.70,2.54,3.80,4.83,4.83,4.83
34.57,2.17,-2.67,2.17,-2.66,2.66,2.49,3.74,4.84,4.84,4.84
34.92,2.22,-2.62,2.22,-2.63,2.63,2.44,3.68,4.85,4.84,4.84
35.27,2.26,-2.59,2.26,-2.59,2.59,2.39,3.62,4.85,4.85,4.85
35.62,2.31,-2.54,2.31,-2.55,2.55,2.35,3.55,4.86,4.85,4.85
35.97,2.36,-2.49,2.35,-2.51,2.51,2.30,3.49,4.87,4.86,4.85
36.33,2.39,-2.47,2.39,-2.47,2.47,2.26,3.41,4.86,4.86,4.86
36.70,2.42,-2.43,2.43,-2.43,2.43,2.21,3.34,4.85,4.86,4.85
37.06,2.46,-2.40,2.46,-2.39,2.39,2.17,3.27,4.86,4.86,4.86
37.43,2.49,-2.37,2.50,-2.36,2.36,2.13,3.20,4.85,4.86,4.86
37.81,2.53,-2.33,2.53,-2.32,2.32,2.08,3.12,4.85,4.86,4.86
38.19,2.57,-2.29,2.57,-2.29,2.29,2.04,3.04,4.86,4.85,4.86
38.57,2.60,-2.25,2.60,-2.26,2.26,2.00,2.97,4.86,4.85,4.85
38.95,2.63,-2.22,2.62,-2.23,2.23,1.96,2.89,4.86,4.85,4.85
39.34,2.65,-2.19,2.65,-2.20,2.20,1.92,2.82,4.85,4.85,4.84
39.74,2.68,-2.16,2.68,-2.17,2.17,1.88,2.75,4.85,4.85,4.84
40.14,2.71,-2.13,2.70,-2.14,2.14,1.85,2.67,4.85,4.84,4.84
40.54,2.73,-2.11,2.73,-2.11,2.11,1.81,2.60,4.85,4.84,4.84
40.94,2.75,-2.08,2.75,-2.09,2.09,1.77,2.53,4.84,4.84,4.83
41.35,2.77,-2.06,2.77,-2.06,2.06,1.73,2.46,4.83,4.84,4.83
41.76,2.79,-2.04,2.80,-2.03,2.03,1.70,2.39,4.83,4.83,4.83
42.18,2.81,-2.02,2.82,-2.01,2.01,1.66,2.32,4.82,4.83,4.83
42.60,2.84,-1.99,2.85,-1.98,1.98,1.63,2.25,4.82,4.83,4.83
43.03,2.87,-1.96,2.87,-1.95,1.95,1.60,2.19,4.82,4.82,4.83
43.46,2.89,-1.94,2.90,-1.92,1.92,1.56,2.13,4.81,4.82,4.83
43.90,2.91,-1.90,2.92,-1.89,1.89,1.53,2.07,4.81,4.82,4.81
44.33,2.95,-1.86,2.95,-1.86,1.86,1.50,2.01,4.82,4.82,4.81
44.78,2.98,-1.82,2.98,-1.83,1.83,1.47,1.95,4.82,4.81,4.80
45.23,3.02,-1.78,3.01,-1.80,1.80,1.44,1.89,4.82,4.81,4.80
45.68,3.05,-1.75,3.04,-1.77,1.77,1.41,1.83,4.82,4.80,4.80
46.13,3.08,-1.71,3.07,-1.73,1.73,1.38,1.78,4.81,4.80,4.79
46.60,3.10,-1.70,3.10,-1.69,1.69,1.35,1.73,4.79,4.79,4.80
47.06,3.12,-1.67,3.14,-1.65,1.65,1.32,1.68,4.77,4.79,4.79
47.53,3.16,-1.62,3.17,-1.61,1.61,1.29,1.63,4.77,4.78,4.78
48.01,3.19,-1.60,3.20,-1.57,1.57,1.26,1.58,4.76,4.77,4.79
48.49,3.23,-1.54,3.24,-1.53,1.53,1.24,1.53,4.76,4.76,4.77
48.97,3.27,-1.48,3.27,-1.48,1.48,1.21,1.49,4.75,4.75,4.75
49.46,3.31,-1.43,3.31,-1.44,1.44,1.18,1.44,4.75,4.74,4.74
49.96,3.35,-1.37,3.34,-1.39,1.39,1.16,1.40,4.74,4.73,4.72
50.46,3.38,-1.34,3.38,-1.34,1.34,1.13,1.36,4.72,4.72,4.72
50.96,3.42,-1.28,3.42,-1.28,1.28,1.11,1.32,4.70,4.70,4.70
51.47,3.45,-1.22,3.45,-1.23,1.23,1.09,1.28,4.68,4.68,4.67
51.99,3.48,-1.18,3.49,-1.17,1.17,1.06,1.24,4.66,4.67,4.66
52.51,3.52,-1.13,3.53,-1.12,1.12,1.04,1.20,4.64,4.65,4.65
53.03,3.56,-1.07,3.57,-1.07,1.07,1.02,1.17,4.63,4.63,4.63
53.56,3.60,-1.02,3.60,-1.01,1.01,0.99,1.13,4.61,4.61,4.62
54.10,3.64,-0.95,3.64,-0.96,0.96,0.97,1.10,4.60,4.59,4.59
54.64,3.67,-0.91,3.67,-0.90,0.90,0.95,1.06,4.58,4.57,4.58
55.18,3.71,-0.84,3.70,-0.85,0.85,0.93,1.03,4.56,4.56,4.55
55.74,3.74,-0.78,3.74,-0.80,0.80,0.91,1.00,4.54,4.54,4.52
56.29,3.76,-0.76,3.77,-0.75,0.75,0.89,0.97,4.51,4.51,4.52
56.86,3.78,-0.71,3.79,-0.70,0.70,0.87,0.94,4.48,4.49,4.49
57.42,3.81,-0.65,3.82,-0.65,0.65,0.85,0.91,4.46,4.47,4.46
58.00,3.84,-0.60,3.84,-0.60,0.60,0.83,0.88,4.44,4.45,4.44
58.58,3.87,-0.55,3.87,-0.56,0.56,0.81,0.85,4.43,4.42,4.42
59.16,3.89,-0.51,3.88,-0.51,0.51,0.79,0.82,4.40,4.40,4.40
59.76,3.91,-0.47,3.90,-0.47,0.47,0.77,0.80,4.38,4.37,4.38
60.35,3.91,-0.44,3.91,-0.43,0.43,0.75,0.77,4.34,4.34,4.35
60.96,3.92,-0.40,3.92,-0.38,0.38,0.74,0.74,4.31,4.31,4.32
61.57,3.92,-0.35,3.93,-0.35,0.35,0.72,0.71,4.27,4.27,4.27
62.18,3.92,-0.31,3.93,-0.31,0.31,0.70,0.69,4.23,4.24,4.23
62.80,3.92,-0.29,3.93,-0.28,0.28,0.68,0.66,4.20,4.20,4.21
63.43,3.92,-0.24,3.92,-0.25,0.25,0.67,0.64,4.17,4.17,4.16
64.07,3.91,-0.21,3.91,-0.22,0.22,0.65,0.61,4.13,4.13,4.12
64.71,3.90,-0.19,3.89,-0.20,0.20,0.63,0.59,4.10,4.09,4.09
65.35,3.88,-0.17,3.87,-0.18,0.18,0.62,0.56,4.06,4.05,4.05
66.01,3.85,-0.16,3.85,-0.16,0.16,0.60,0.54,4.02,4.01,4.01
66.67,3.82,-0.16,3.82,-0.15,0.15,0.59,0.51,3.97,3.98,3.98
67.33,3.78,-0.16,3.79,-0.14,0.14,0.57,0.49,3.93,3.94,3.94
68.01,3.75,-0.15,3.76,-0.14,0.14,0.56,0.46,3.89,3.90,3.90
68.69,3.72,-0.14,3.71,-0.15,0.15,0.54,0.44,3.87,3.86,3.86
69.37,3.67,-0.15,3.67,-0.16,0.16,0.53,0.41,3.83,3.82,3.82
70.07,3.62,-0.16,3.61,-0.17,0.17,0.51,0.39,3.79,3.78,3.78
70.77,3.56,-0.18,3.55,-0.19,0.19,0.50,0.37,3.75,3.74,3.74
71.48,3.50,-0.21,3.49,-0.21,0.21,0.48,0.34,3.71,3.71,3.71
72.19,3.43,-0.23,3.43,-0.24,0.24,0.47,0.32,3.67,3.67,3.66
72.91,3.37,-0.26,3.36,-0.27,0.27,0.46,0.29,3.64,3.63,3.63
73.64,3.29,-0.30,3.29,-0.31,0.31,0.44,0.27,3.60,3.59,3.59
74.38,3.21,-0.35,3.21,-0.35,0.35,0.43,0.25,3.56,3.56,3.56
75.12,3.13,-0.39,3.14,-0.39,0.39,0.41,0.22,3.52,3.53,3.52
75.87,3.04,-0.45,3.06,-0.44,0.44,0.40,0.20,3.48,3.49,3.49
76.63,2.97,-0.49,2.97,-0.49,0.49,0.39,0.17,3.46,3.46,3.46
77.40,2.89,-0.54,2.89,-0.54,0.54,0.37,0.15,3.43,3.43,3.43
78.17,2.82,-0.58,2.81,-0.60,0.60,0.36,0.13,3.42,3.40,3.40
78.95,2.73,-0.64,2.73,-0.65,0.65,0.35,0.10,3.38,3.38,3.37
79.74,2.65,-0.70,2.65,-0.70,0.70,0.33,0.08,3.35,3.35,3.35
80.54,2.57,-0.76,2.57,-0.76,0.76,0.32,0.05,3.33,3.32,3.33
81.35,2.49,-0.81,2.49,-0.81,0.81,0.31,0.03,3.30,3.30,3.30
82.16,2.41,-0.86,2.42,-0.86,0.86,0.29,0.00,3.27,3.28,3.27
82.98,2.34,-0.92,2.35,-0.91,0.91,0.28,-0.02,3.25,3.25,3.26
83.81,2.27,-0.96,2.28,-0.95,0.95,0.27,-0.05,3.22,3.23,3.23
84.65,2.21,-0.99,2.22,-0.99,0.99,0.25,-0.07,3.20,3.21,3.20
85.50,2.17,-1.02,2.16,-1.03,1.03,0.24,-0.10,3.20,3.19,3.19
86.35,2.12,-1.05,2.11,-1.06,1.06,0.23,-0.12,3.18,3.17,3.17
87.22,2.07,-1.08,2.07,-1.08,1.08,0.21,-0.15,3.16,3.15,3.15
88.09,2.03,-1.10,2.03,-1.10,1.10,0.20,-0.18,3.13,3.13,3.13
88.97,1.99,-1.12,2.00,-1.11,1.11,0.19,-0.20,3.10,3.11,3.11
89.86,1.97,-1.13,1.98,-1.11,1.11,0.17,-0.23,3.08,3.09,3.10
90.76,1.96,-1.11,1.97,-1.10,1.10,0.16,-0.26,3.06,3.08,3.07
91.66,1.96,-1.09,1.97,-1.09,1.09,0.14,-0.28,3.05,3.06,3.05
92.58,1.97,-1.06,1.98,-1.06,1.06,0.13,-0.31,3.03,3.04,3.03
93.51,1.98,-1.04,2.00,-1.02,1.02,0.11,-0.34,3.00,3.02,3.02
94.44,1.99,-1.01,2.02,-0.98,0.98,0.10,-0.37,2.97,2.99,3.00
95.39,2.02,-0.96,2.05,-0.92,0.92,0.08,-0.40,2.95,2.97,2.98
96.34,2.07,-0.88,2.08,-0.86,0.86,0.07,-0.42,2.94,2.95,2.95
97.30,2.12,-0.80,2.13,-0.80,0.80,0.05,-0.45,2.92,2.92,2.92
98.28,2.17,-0.72,2.17,-0.73,0.73,0.03,-0.48,2.90,2.90,2.89
99.26,2.23,-0.64,2.21,-0.66,0.66,0.02,-0.51,2.89,2.87,2.87
100.25,2.29,-0.55,2.26,-0.58,0.58,-0.00,-0.54,2.87,2.84,2.84
101.25,2.34,-0.47,2.31,-0.51,0.51,-0.02,-0.56,2.85,2.81,2.81
102.27,2.39,-0.38,2.35,-0.42,0.42,-0.04,-0.59,2.82,2.78,2.77
103.29,2.41,-0.33,2.40,-0.34,0.34,-0.06,-0.62,2.75,2.74,2.74
104.32,2.44,-0.27,2.45,-0.26,0.26,-0.08,-0.64,2.70,2.70,2.71
105.37,2.48,-0.19,2.49,-0.17,0.17,-0.10,-0.67,2.65,2.66,2.67
106.42,2.52,-0.10,2.53,-0.09,0.09,-0.12,-0.70,2.61,2.62,2.62
107.48,2.55,-0.04,2.57,-0.00,0.00,-0.14,-0.72,2.56,2.58,2.59
108.56,2.59,0.06,2.61,0.08,-0.08,-0.17,-0.74,2.51,2.53,2.53
109.64,2.64,0.16,2.65,0.17,-0.17,-0.19,-0.77,2.47,2.48,2.48
110.74,2.69,0.26,2.69,0.26,-0.26,-0.22,-0.79,2.43,2.43,2.43
111.85,2.73,0.35,2.73,0.36,-0.36,-0.24,-0.81,2.37,2.37,2.38
112.97,2.77,0.46,2.77,0.45,-0.45,-0.27,-0.83,2.32,2.31,2.31
114.10,2.79,0.53,2.80,0.55,-0.55,-0.30,-0.85,2.25,2.26,2.26
115.24,2.83,0.63,2.83,0.64,-0.64,-0.33,-0.86,2.20,2.20,2.20
116.39,2.85,0.72,2.86,0.72,-0.72,-0.36,-0.88,2.13,2.14,2.13
117.55,2.88,0.81,2.89,0.80,-0.80,-0.39,-0.89,2.08,2.08,2.07
118.73,2.91,0.90,2.90,0.88,-0.88,-0.43,-0.90,2.03,2.02,2.01
119.92,2.94,0.98,2.91,0.95,-0.95,-0.46,-0.91,1.99,1.96,1.96
121.12,2.94,1.04,2.92,1.01,-1.01,-0.50,-0.91,1.93,1.91,1.90
122.33,2.93,1.08,2.91,1.06,-1.06,-0.54,-0.91,1.87,1.85,1.85
123.55,2.92,1.12,2.90,1.10,-1.10,-0.58,-0.92,1.82,1.80,1.80
124.79,2.89,1.14,2.89,1.14,-1.14,-0.62,-0.91,1.75,1.75,1.75
126.03,2.85,1.15,2.86,1.17,-1.17,-0.66,-0.91,1.69,1.70,1.70
127.29,2.83,1.18,2.83,1.19,-1.19,-0.70,-0.90,1.64,1.65,1.65
128.57,2.80,1.21,2.80,1.20,-1.20,-0.75,-0.89,1.60,1.60,1.59
129.85,2.75,1.20,2.76,1.21,-1.21,-0.79,-0.88,1.55,1.55,1.55
131.15,2.70,1.20,2.72,1.21,-1.21,-0.84,-0.87,1.49,1.51,1.50
132.46,2.67,1.21,2.67,1.20,-1.20,-0.88,-0.85,1.47,1.46,1.46
133.79,2.62,1.20,2.62,1.20,-1.20,-0.93,-0.83,1.42,1.42,1.42
135.12,2.56,1.18,2.57,1.19,-1.19,-0.97,-0.81,1.38,1.38,1.38
136.48,2.51,1.17,2.51,1.17,-1.17,-1.02,-0.79,1.34,1.34,1.34
137.84,2.44,1.14,2.45,1.16,-1.16,-1.06,-0.77,1.29,1.30,1.30
139.22,2.39,1.14,2.40,1.14,-1.14,-1.10,-0.74,1.26,1.26,1.25
140.61,2.35,1.14,2.34,1.12,-1.12,-1.14,-0.72,1.23,1.22,1.21
142.02,2.28,1.09,2.28,1.10,-1.10,-1.17,-0.69,1.19,1.19,1.19
143.44,2.24,1.09,2.22,1.07,-1.07,-1.20,-0.66,1.17,1.15,1.15
144.87,2.16,1.05,2.16,1.05,-1.05,-1.22,-0.63,1.11,1.11,1.11
146.32,2.10,1.03,2.10,1.03,-1.03,-1.24,-0.59,1.07,1.07,1.07
147.78,2.03,0.99,2.05,1.01,-1.01,-1.25,-0.56,1.02,1.03,1.04
149.26,1.98,0.97,1.99,1.00,-1.00,-1.26,-0.52,0.98,0.99,1.01
150.75,1.92,0.97,1.94,0.98,-0.98,-1.25,-0.49,0.94,0.95,0.95
152.26,1.88,0.97,1.88,0.97,-0.97,-1.25,-0.45,0.91,0.91,0.91
153.78,1.82,0.94,1.83,0.96,-0.96,-1.23,-0.42,0.86,0.87,0.88
155.32,1.78,0.96,1.78,0.95,-0.95,-1.21,-0.38,0.83,0.83,0.82
156.88,1.72,0.93,1.73,0.94,-0.94,-1.18,-0.34,0.78,0.79,0.79
158.44,1.67,0.93,1.68,0.94,-0.94,-1.15,-0.31,0.74,0.74,0.74
160.03,1.62,0.93,1.63,0.93,-0.93,-1.12,-0.27,0.69,0.70,0.69
161.63,1.59,0.95,1.58,0.93,-0.93,-1.08,-0.23,0.66,0.65,0.64
163.24,1.54,0.94,1.53,0.93,-0.93,-1.03,-0.19,0.61,0.60,0.60
164.88,1.48,0.92,1.49,0.93,-0.93,-0.99,-0.15,0.55,0.56,0.56
166.53,1.42,0.91,1.44,0.93,-0.93,-0.94,-0.11,0.49,0.51,0.51
168.19,1.38,0.92,1.39,0.92,-0.92,-0.89,-0.07,0.46,0.46,0.46
169.87,1.31,0.90,1.33,0.92,-0.92,-0.84,-0.03,0.39,0.41,0.41
171.57,1.27,0.90,1.27,0.91,-0.91,-0.79,0.00,0.36,0.36,0.37
173.29,1.22,0.91,1.21,0.90,-0.90,-0.74,0.04,0.32,0.31,0.31
175.02,1.14,0.88,1.15,0.89,-0.89,-0.69,0.08,0.25,0.26,0.26
176.77,1.08,0.88,1.07,0.87,-0.87,-0.64,0.12,0.21,0.20,0.20
178.54,1.01,0.86,0.99,0.84,-0.84,-0.59,0.16,0.17,0.15,0.15
180.32,0.94,0.85,0.91,0.81,-0.81,-0.54,0.20,0.13,0.09,0.09
182.13,0.86,0.82,0.82,0.78,-0.78,-0.50,0.24,0.08,0.04,0.04
183.95,0.73,0.75,0.72,0.74,-0.74,-0.45,0.28,-0.01,-0.02,-0.02
185.79,0.62,0.69,0.62,0.69,-0.69,-0.40,0.32,-0.07,-0.07,-0.07
187.65,0.51,0.65,0.51,0.64,-0.64,-0.36,0.36,-0.13,-0.13,-0.14
189.52,0.39,0.58,0.40,0.58,-0.58,-0.32,0.40,-0.19,-0.18,-0.19
191.42,0.27,0.51,0.28,0.52,-0.52,-0.27,0.44,-0.25,-0.24,-0.24
193.33,0.16,0.45,0.16,0.45,-0.45,-0.23,0.48,-0.29,-0.29,-0.29
195.27,0.04,0.38,0.05,0.39,-0.39,-0.19,0.52,-0.35,-0.34,-0.34
197.22,-0.08,0.32,-0.07,0.32,-0.32,-0.15,0.56,-0.40,-0.39,-0.40
199.19,-0.20,0.25,-0.19,0.25,-0.25,-0.11,0.60,-0.45,-0.44,-0.45
201.18,-0.31,0.19,-0.31,0.18,-0.18,-0.07,0.64,-0.49,-0.49,-0.50
203.19,-0.42,0.11,-0.41,0.12,-0.12,-0.03,0.68,-0.54,-0.54,-0.53
205.23,-0.54,0.05,-0.52,0.07,-0.07,0.01,0.72,-0.61,-0.58,-0.59
207.28,-0.64,-0.03,-0.62,0.01,-0.01,0.04,0.76,-0.65,-0.63,-0.61
209.35,-0.73,-0.06,-0.71,-0.05,0.05,0.08,0.79,-0.68,-0.67,-0.67
211.44,-0.81,-0.09,-0.81,-0.10,0.10,0.12,0.83,-0.71,-0.71,-0.72
213.56,-0.90,-0.14,-0.90,-0.15,0.15,0.16,0.87,-0.75,-0.75,-0.76
215.69,-1.00,-0.22,-0.98,-0.20,0.20,0.20,0.90,-0.80,-0.79,-0.78
217.85,-1.07,-0.25,-1.06,-0.24,0.24,0.24,0.94,-0.83,-0.82,-0.82
220.03,-1.13,-0.27,-1.14,-0.29,0.29,0.28,0.97,-0.84,-0.85,-0.86
222.23,-1.19,-0.30,-1.21,-0.33,0.33,0.33,1.00,-0.86,-0.88,-0.89
224.45,-1.27,-0.36,-1.29,-0.37,0.37,0.37,1.03,-0.89,-0.91,-0.91
226.70,-1.36,-0.42,-1.35,-0.42,0.42,0.41,1.06,-0.94,-0.94,-0.94
228.96,-1.45,-0.48,-1.42,-0.46,0.46,0.46,1.09,-0.99,-0.96,-0.97
231.25,-1.50,-0.52,-1.49,-0.51,0.51,0.51,1.11,-0.99,-0.98,-0.98
233.57,-1.56,-0.56,-1.55,-0.56,0.56,0.55,1.14,-1.00,-1.00,-1.00
235.90,-1.63,-0.62,-1.62,-0.61,0.61,0.61,1.16,-1.02,-1.01,-1.01
238.26,-1.68,-0.66,-1.68,-0.66,0.66,0.66,1.18,-1.02,-1.02,-1.02
240.64,-1.74,-0.71,-1.74,-0.71,0.71,0.71,1.20,-1.02,-1.03,-1.03
243.05,-1.79,-0.76,-1.81,-0.77,0.77,0.77,1.21,-1.01,-1.03,-1.03
245.48,-1.86,-0.82,-1.87,-0.84,0.84,0.83,1.22,-1.02,-1.03,-1.04
247.93,-1.95,-0.91,-1.93,-0.90,0.90,0.89,1.24,-1.05,-1.04,-1.04
250.41,-2.00,-0.96,-2.00,-0.97,0.97,0.96,1.24,-1.03,-1.03,-1.04
252.92,-2.08,-1.05,-2.07,-1.04,1.04,1.03,1.25,-1.04,-1.03,-1.03
255.45,-2.14,-1.12,-2.14,-1.12,1.12,1.10,1.25,-1.02,-1.02,-1.02
258.00,-2.20,-1.19,-2.22,-1.21,1.21,1.17,1.25,-0.99,-1.01,-1.01
260.58,-2.28,-1.27,-2.30,-1.30,1.30,1.25,1.25,-0.98,-1.00,-1.01
263.19,-2.36,-1.36,-2.38,-1.39,1.39,1.33,1.25,-0.97,-0.99,-1.00
265.82,-2.46,-1.47,-2.47,-1.49,1.49,1.41,1.25,-0.97,-0.98,-0.99
268.48,-2.54,-1.57,-2.56,-1.59,1.59,1.49,1.24,-0.95,-0.97,-0.97
271.16,-2.62,-1.67,-2.64,-1.68,1.68,1.58,1.23,-0.93,-0.96,-0.95
273.87,-2.74,-1.79,-2.73,-1.78,1.78,1.67,1.22,-0.96,-0.94,-0.95
276.61,-2.83,-1.91,-2.81,-1.88,1.88,1.76,1.21,-0.95,-0.93,-0.92
279.38,-2.90,-1.98,-2.89,-1.97,1.97,1.86,1.19,-0.93,-0.92,-0.92
282.17,-2.97,-2.07,-2.96,-2.06,2.06,1.95,1.18,-0.91,-0.90,-0.90
284.99,-3.04,-2.15,-3.03,-2.14,2.14,2.04,1.16,-0.90,-0.89,-0.89
287.84,-3.12,-2.24,-3.09,-2.22,2.22,2.13,1.15,-0.90,-0.88,-0.88
290.72,-3.16,-2.29,-3.14,-2.28,2.28,2.21,1.13,-0.88,-0.86,-0.87
293.63,-3.20,-2.35,-3.19,-2.34,2.34,2.29,1.11,-0.86,-0.85,-0.85
296.57,-3.23,-2.40,-3.22,-2.39,2.39,2.36,1.09,-0.84,-0.84,-0.83
299.53,-3.26,-2.43,-3.24,-2.42,2.42,2.42,1.07,-0.84,-0.82,-0.83
302.53,-3.28,-2.46,-3.26,-2.45,2.45,2.48,1.05,-0.83,-0.81,-0.82
305.55,-3.27,-2.47,-3.26,-2.46,2.46,2.52,1.03,-0.80,-0.80,-0.80
308.61,-3.26,-2.47,-3.26,-2.47,2.47,2.55,1.01,-0.79,-0.79,-0.79
311.69,-3.24,-2.46,-3.25,-2.47,2.47,2.57,0.99,-0.76,-0.78,-0.78
314.81,-3.23,-2.48,-3.23,-2.46,2.46,2.57,0.98,-0.76,-0.77,-0.75
317.96,-3.20,-2.44,-3.21,-2.45,2.45,2.56,0.96,-0.75,-0.76,-0.76
321.14,-3.18,-2.43,-3.17,-2.42,2.42,2.54,0.94,-0.76,-0.75,-0.75
324.35,-3.14,-2.39,-3.14,-2.39,2.39,2.50,0.92,-0.75,-0.74,-0.75
327.59,-3.10,-2.36,-3.09,-2.35,2.35,2.45,0.90,-0.74,-0.74,-0.74
330.87,-3.05,-2.31,-3.04,-2.31,2.31,2.40,0.88,-0.74,-0.74,-0.74
334.18,-3.00,-2.26,-2.99,-2.26,2.26,2.33,0.87,-0.74,-0.73,-0.74
337.52,-2.94,-2.21,-2.94,-2.21,2.21,2.25,0.85,-0.73,-0.73,-0.73
340.90,-2.88,-2.15,-2.88,-2.15,2.15,2.17,0.84,-0.73,-0.73,-0.73
344.30,-2.81,-2.08,-2.82,-2.09,2.09,2.09,0.82,-0.72,-0.73,-0.73
347.75,-2.75,-2.02,-2.75,-2.02,2.02,2.00,0.81,-0.73,-0.73,-0.73
351.23,-2.68,-1.95,-2.68,-1.95,1.95,1.91,0.79,-0.73,-0.73,-0.73
354.74,-2.61,-1.88,-2.61,-1.88,1.88,1.82,0.78,-0.73,-0.74,-0.73
358.28,-2.54,-1.79,-2.54,-1.80,1.80,1.73,0.77,-0.74,-0.74,-0.75
361.87,-2.48,-1.73,-2.47,-1.73,1.73,1.64,0.75,-0.75,-0.75,-0.75
365.49,-2.40,-1.65,-2.40,-1.65,1.65,1.55,0.74,-0.75,-0.75,-0.75
369.14,-2.34,-1.58,-2.33,-1.58,1.58,1.46,0.73,-0.76,-0.76,-0.76
372.83,-2.27,-1.51,-2.27,-1.50,1.50,1.38,0.72,-0.77,-0.76,-0.76
376.56,-2.18,-1.41,-2.20,-1.43,1.43,1.30,0.71,-0.75,-0.77,-0.77
380.33,-2.12,-1.34,-2.13,-1.35,1.35,1.23,0.71,-0.76,-0.78,-0.78
384.13,-2.06,-1.27,-2.07,-1.28,1.28,1.15,0.70,-0.78,-0.79,-0.79
387.97,-2.01,-1.21,-2.00,-1.21,1.21,1.09,0.69,-0.80,-0.79,-0.80
391.85,-1.94,-1.13,-1.94,-1.14,1.14,1.02,0.68,-0.80,-0.80,-0.81
395.77,-1.87,-1.07,-1.87,-1.06,1.06,0.96,0.68,-0.81,-0.81,-0.80
399.73,-1.81,-1.00,-1.80,-0.99,0.99,0.90,0.67,-0.82,-0.81,-0.81
403.72,-1.75,-0.93,-1.74,-0.92,0.92,0.84,0.66,-0.83,-0.82,-0.82
407.76,-1.69,-0.86,-1.67,-0.85,0.85,0.79,0.66,-0.84,-0.82,-0.83
411.84,-1.62,-0.80,-1.61,-0.78,0.78,0.73,0.65,-0.84,-0.83,-0.82
415.96,-1.55,-0.71,-1.54,-0.71,0.71,0.69,0.65,-0.84,-0.83,-0.84
420.12,-1.48,-0.64,-1.48,-0.64,0.64,0.64,0.64,-0.84,-0.84,-0.84
424.32,-1.41,-0.57,-1.42,-0.58,0.58,0.60,0.64,-0.83,-0.84,-0.84
428.56,-1.35,-0.50,-1.35,-0.51,0.51,0.55,0.63,-0.84,-0.84,-0.85
432.85,-1.28,-0.43,-1.29,-0.45,0.45,0.52,0.63,-0.83,-0.84,-0.85
437.18,-1.22,-0.37,-1.24,-0.39,0.39,0.48,0.62,-0.83,-0.84,-0.85
441.55,-1.18,-0.34,-1.18,-0.34,0.34,0.44,0.62,-0.84,-0.84,-0.84
445.96,-1.13,-0.29,-1.13,-0.28,0.28,0.41,0.61,-0.84,-0.84,-0.84
450.42,-1.09,-0.24,-1.08,-0.23,0.23,0.38,0.61,-0.85,-0.84,-0.85
454.93,-1.03,-0.19,-1.03,-0.19,0.19,0.35,0.60,-0.84,-0.84,-0.84
459.48,-0.99,-0.15,-0.98,-0.15,0.15,0.32,0.60,-0.84,-0.84,-0.84
464.07,-0.94,-0.11,-0.94,-0.11,0.11,0.29,0.59,-0.83,-0.83,-0.83
468.71,-0.91,-0.09,-0.90,-0.08,0.08,0.26,0.58,-0.83,-0.83,-0.82
473.40,-0.87,-0.04,-0.86,-0.04,0.04,0.24,0.58,-0.83,-0.82,-0.83
478.13,-0.83,-0.01,-0.83,-0.01,0.01,0.22,0.57,-0.82,-0.82,-0.82
482.91,-0.79,0.03,-0.79,0.02,-0.02,0.19,0.56,-0.81,-0.81,-0.82
487.74,-0.76,0.05,-0.76,0.05,-0.05,0.17,0.55,-0.81,-0.81,-0.81
492.62,-0.74,0.06,-0.73,0.07,-0.07,0.15,0.54,-0.81,-0.80,-0.80
497.55,-0.71,0.09,-0.70,0.09,-0.09,0.13,0.53,-0.80,-0.80,-0.80
502.52,-0.69,0.10,-0.68,0.11,-0.11,0.11,0.51,-0.80,-0.79,-0.79
507.55,-0.66,0.13,-0.67,0.12,-0.12,0.09,0.50,-0.78,-0.79,-0.79
512.62,-0.64,0.15,-0.65,0.14,-0.14,0.07,0.49,-0.78,-0.79,-0.79
517.75,-0.62,0.16,-0.64,0.15,-0.15,0.06,0.47,-0.76,-0.78,-0.78
522.93,-0.61,0.17,-0.63,0.15,-0.15,0.04,0.46,-0.76,-0.78,-0.78
