frequency,raw,error,smoothed,error_smoothed,equalization,parametric_eq,fixed_band_eq,equalized_raw,equalized_smoothed,target
20.00,-18.46,-25.42,-18.44,-25.42,25.42,26.05,10.42,6.96,6.98,6.96
20.20,-18.29,-25.29,-18.28,-25.28,25.28,25.83,10.61,7.00,7.01,7.00
20.40,-18.11,-25.14,-18.11,-25.15,25.15,25.62,10.80,7.03,7.04,7.03
20.61,-17.95,-25.01,-17.95,-25.01,25.01,25.41,11.00,7.06,7.06,7.06
20.81,-17.77,-24.87,-17.78,-24.87,24.87,25.20,11.20,7.09,7.09,7.10
21.02,-17.61,-24.74,-17.62,-24.73,24.73,25.00,11.41,7.12,7.11,7.14
21.23,-17.45,-24.59,-17.45,-24.59,24.59,24.80,11.62,7.14,7.13,7.15
21.44,-17.27,-24.44,-17.29,-24.45,24.45,24.61,11.84,7.17,7.15,7.17
21.66,-17.12,-24.30,-17.13,-24.30,24.30,24.42,12.06,7.18,7.17,7.19
21.87,-16.95,-24.15,-16.97,-24.16,24.16,24.23,12.29,7.20,7.19,7.20
22.09,-16.79,-24.01,-16.81,-24.01,24.01,24.04,12.53,7.22,7.20,7.21
22.31,-16.64,-23.86,-16.65,-23.87,23.87,23.85,12.77,7.22,7.22,7.21
22.54,-16.50,-23.72,-16.49,-23.72,23.72,23.67,13.02,7.22,7.23,7.22
22.76,-16.34,-23.58,-16.34,-23.57,23.57,23.49,13.28,7.23,7.24,7.23
22.99,-16.20,-23.43,-16.18,-23.42,23.42,23.31,13.54,7.23,7.24,7.23
23.22,-16.04,-23.28,-16.02,-23.27,23.27,23.14,13.81,7.24,7.25,7.24
23.45,-15.88,-23.13,-15.87,-23.12,23.12,22.96,14.09,7.25,7.26,7.25
23.69,-15.72,-22.98,-15.71,-22.97,22.97,22.79,14.39,7.25,7.26,7.26
23.92,-15.55,-22.82,-15.55,-22.82,22.82,22.62,14.69,7.26,7.26,7.27
24.16,-15.39,-22.67,-15.40,-22.67,22.67,22.45,15.00,7.27,7.27,7.28
24.40,-15.23,-22.52,-15.24,-22.52,22.52,22.28,15.32,7.28,7.27,7.29
24.65,-15.09,-22.36,-15.09,-22.37,22.37,22.11,15.65,7.28,7.27,7.28
24.89,-14.92,-22.20,-14.95,-22.22,22.22,21.95,16.00,7.30,7.27,7.27
25.14,-14.77,-22.05,-14.80,-22.07,22.07,21.79,16.36,7.30,7.28,7.27
25.39,-14.62,-21.90,-14.64,-21.92,21.92,21.62,16.73,7.30,7.28,7.27
25.65,-14.48,-21.75,-14.49,-21.76,21.76,21.46,17.12,7.29,7.28,7.27
25.91,-14.33,-21.59,-14.33,-21.60,21.60,21.30,17.52,7.27,7.27,7.26
26.16,-14.18,-21.45,-14.18,-21.45,21.45,21.14,17.94,7.26,7.27,7.27
26.43,-14.05,-21.32,-14.02,-21.29,21.29,20.98,18.38,7.24,7.27,7.27
26.69,-13.91,-21.17,-13.87,-21.13,21.13,20.83,18.84,7.22,7.26,7.27
26.96,-13.77,-21.03,-13.71,-20.97,20.97,20.67,19.32,7.20,7.26,7.27
27.23,-13.58,-20.84,-13.54,-20.80,20.80,20.51,19.82,7.22,7.26,7.26
27.50,-13.38,-20.64,-13.37,-20.63,20.63,20.36,20.35,7.25,7.26,7.26
27.77,-13.17,-20.42,-13.20,-20.46,20.46,20.20,20.90,7.28,7.26,7.25
28.05,-13.00,-20.25,-13.03,-20.29,20.29,20.05,21.47,7.29,7.25,7.25
28.33,-12.86,-20.09,-12.87,-20.12,20.12,19.90,22.07,7.27,7.25,7.24
28.62,-12.73,-19.97,-12.71,-19.96,19.96,19.75,22.70,7.23,7.25,7.25
28.90,-12.60,-19.84,-12.56,-19.81,19.81,19.59,23.34,7.21,7.24,7.24
29.19,-12.42,-19.65,-12.42,-19.66,19.66,19.44,24.00,7.24,7.24,7.23
29.48,-12.21,-19.46,-12.28,-19.51,19.51,19.29,24.66,7.30,7.24,7.24
29.78,-12.03,-19.27,-12.14,-19.37,19.37,19.14,25.32,7.34,7.23,7.24
30.08,-11.87,-19.11,-12.00,-19.23,19.23,18.99,25.93,7.36,7.23,7.24
30.38,-11.81,-19.03,-11.86,-19.08,19.08,18.84,26.48,7.28,7.22,7.22
30.68,-11.76,-18.98,-11.72,-18.94,18.94,18.70,26.91,7.18,7.22,7.22
30.99,-11.70,-18.91,-11.58,-18.79,18.79,18.55,27.19,7.09,7.21,7.21
31.30,-11.54,-18.75,-11.43,-18.63,18.63,18.40,27.28,7.10,7.21,7.21
31.61,-11.38,-18.58,-11.27,-18.48,18.48,18.25,27.18,7.10,7.20,7.21
31.93,-11.22,-18.41,-11.12,-18.32,18.32,18.11,26.90,7.10,7.20,7.19
32.24,-11.00,-18.18,-10.97,-18.16,18.16,17.96,26.47,7.15,7.19,7.18
32.57,-10.80,-17.98,-10.81,-17.99,17.99,17.81,25.93,7.20,7.18,7.18
32.89,-10.57,-17.75,-10.65,-17.82,17.82,17.67,25.33,7.25,7.18,7.17
33.22,-10.40,-17.57,-10.48,-17.65,17.65,17.52,24.70,7.25,7.17,7.17
33.55,-10.24,-17.41,-10.30,-17.47,17.47,17.38,24.05,7.22,7.17,7.17
33.89,-10.09,-17.25,-10.12,-17.28,17.28,17.23,23.41,7.19,7.16,7.17
34.23,-9.95,-17.11,-9.95,-17.10,17.10,17.09,22.79,7.15,7.16,7.16
34.57,-9.82,-16.96,-9.78,-16.93,16.93,16.95,22.19,7.12,7.15,7.15
34.92,-9.68,-16.82,-9.63,-16.78,16.78,16.80,21.62,7.10,7.14,7.14
35.27,-9.51,-16.65,-9.49,-16.63,16.63,16.66,21.07,7.12,7.14,7.14
35.62,-9.33,-16.45,-9.35,-16.48,16.48,16.52,20.54,7.16,7.13,7.13
35.97,-9.15,-16.27,-9.22,-16.35,16.35,16.37,20.04,7.20,7.13,7.12
36.33,-9.05,-16.16,-9.09,-16.21,16.21,16.23,19.56,7.16,7.12,7.12
36.70,-8.95,-16.06,-8.97,-16.07,16.07,16.09,19.11,7.13,7.11,7.11
37.06,-8.85,-15.94,-8.84,-15.94,15.94,15.95,18.67,7.10,7.10,7.10
37.43,-8.76,-15.85,-8.72,-15.82,15.82,15.81,18.26,7.06,7.09,7.09
37.81,-8.67,-15.76,-8.61,-15.70,15.70,15.67,17.86,7.03,7.09,7.09
38.19,-8.54,-15.61,-8.50,-15.58,15.58,15.53,17.49,7.04,7.08,7.07
38.57,-8.39,-15.46,-8.38,-15.46,15.46,15.39,17.13,7.07,7.07,7.07
38.95,-8.23,-15.30,-8.27,-15.34,15.34,15.25,16.78,7.10,7.06,7.06
39.34,-8.13,-15.17,-8.16,-15.22,15.22,15.11,16.45,7.09,7.06,7.05
39.74,-8.03,-15.06,-8.05,-15.10,15.10,14.97,16.13,7.07,7.05,7.03
40.14,-7.93,-14.96,-7.93,-14.97,14.97,14.83,15.82,7.04,7.04,7.04
40.54,-7.85,-14.88,-7.81,-14.84,14.84,14.70,15.53,6.99,7.03,7.03
40.94,-7.77,-14.79,-7.69,-14.70,14.70,14.56,15.25,6.94,7.01,7.02
41.35,-7.62,-14.62,-7.57,-14.57,14.57,14.42,14.98,6.95,7.00,7.01
41.76,-7.44,-14.43,-7.46,-14.43,14.43,14.29,14.72,6.99,6.98,6.99
42.18,-7.31,-14.28,-7.35,-14.30,14.30,14.15,14.47,7.00,6.96,6.97
42.60,-7.18,-14.13,-7.23,-14.16,14.16,14.02,14.22,6.98,6.93,6.94
43.03,-7.07,-13.99,-7.12,-14.02,14.02,13.88,13.99,6.96,6.91,6.92
43.46,-6.97,-13.86,-6.99,-13.87,13.87,13.75,13.77,6.90,6.88,6.90
43.90,-6.87,-13.72,-6.86,-13.71,13.71,13.61,13.55,6.85,6.85,6.85
44.33,-6.77,-13.58,-6.74,-13.56,13.56,13.48,13.34,6.79,6.82,6.82
44.78,-6.67,-13.45,-6.61,-13.41,13.41,13.35,13.14,6.74,6.79,6.78
45.23,-6.55,-13.30,-6.49,-13.25,13.25,13.22,12.94,6.70,6.77,6.75
45.68,-6.42,-13.14,-6.36,-13.09,13.09,13.08,12.76,6.68,6.74,6.72
46.13,-6.27,-12.97,-6.24,-12.95,12.95,12.95,12.57,6.68,6.71,6.70
46.60,-6.10,-12.79,-6.12,-12.81,12.81,12.82,12.40,6.72,6.69,6.69
47.06,-5.93,-12.59,-6.01,-12.68,12.68,12.69,12.23,6.76,6.68,6.67
47.53,-5.82,-12.47,-5.89,-12.56,12.56,12.56,12.06,6.74,6.66,6.66
48.01,-5.71,-12.36,-5.78,-12.43,12.43,12.43,11.91,6.73,6.65,6.65
48.49,-5.65,-12.29,-5.66,-12.31,12.31,12.31,11.75,6.66,6.64,6.64
48.97,-5.58,-12.20,-5.55,-12.19,12.19,12.18,11.60,6.61,6.64,6.63
49.46,-5.43,-12.04,-5.43,-12.06,12.06,12.05,11.46,6.64,6.63,6.61
49.96,-5.26,-11.87,-5.31,-11.93,11.93,11.92,11.32,6.68,6.63,6.61
50.46,-5.23,-11.84,-5.19,-11.81,11.81,11.80,11.18,6.58,6.62,6.62
50.96,-5.21,-11.83,-5.08,-11.69,11.69,11.67,11.05,6.48,6.61,6.62
51.47,-5.07,-11.67,-4.98,-11.57,11.57,11.55,10.92,6.50,6.59,6.61
51.99,-4.92,-11.51,-4.87,-11.44,11.44,11.42,10.80,6.53,6.57,6.59
52.51,-4.74,-11.31,-4.75,-11.30,11.30,11.30,10.67,6.56,6.55,6.57
53.03,-4.56,-11.10,-4.62,-11.14,11.14,11.18,10.55,6.59,6.52,6.55
53.56,-4.44,-10.94,-4.49,-10.98,10.98,11.06,10.44,6.54,6.49,6.51
54.10,-4.32,-10.78,-4.36,-10.81,10.81,10.94,10.32,6.49,6.45,6.46
54.64,-4.19,-10.60,-4.23,-10.64,10.64,10.82,10.21,6.45,6.41,6.41
55.18,-4.11,-10.47,-4.10,-10.47,10.47,10.70,10.10,6.36,6.36,6.36
55.74,-4.11,-10.41,-3.99,-10.29,10.29,10.58,9.99,6.19,6.31,6.30
56.29,-3.97,-10.23,-3.87,-10.12,10.12,10.46,9.88,6.14,6.25,6.25
56.86,-3.72,-9.91,-3.76,-9.95,9.95,10.34,9.77,6.23,6.19,6.19
57.42,-3.56,-9.67,-3.66,-9.78,9.78,10.22,9.67,6.23,6.13,6.12
58.00,-3.43,-9.48,-3.56,-9.62,9.62,10.11,9.56,6.19,6.06,6.05
58.58,-3.43,-9.42,-3.47,-9.46,9.46,9.99,9.45,6.04,5.99,5.99
59.16,-3.39,-9.32,-3.38,-9.30,9.30,9.88,9.35,5.92,5.93,5.94
59.76,-3.26,-9.13,-3.28,-9.14,9.14,9.76,9.24,5.88,5.86,5.87
60.35,-3.21,-9.00,-3.18,-8.97,8.97,9.65,9.13,5.77,5.80,5.79
60.96,-3.20,-8.93,-3.08,-8.82,8.82,9.54,9.03,5.62,5.73,5.74
61.57,-3.07,-8.73,-2.98,-8.65,8.65,9.42,8.92,5.59,5.67,5.66
62.18,-2.93,-8.52,-2.89,-8.50,8.50,9.31,8.81,5.57,5.61,5.59
62.80,-2.79,-8.33,-2.81,-8.36,8.36,9.20,8.70,5.57,5.55,5.54
63.43,-2.71,-8.19,-2.72,-8.22,8.22,9.09,8.59,5.51,5.49,5.48
64.07,-2.64,-8.07,-2.64,-8.07,8.07,8.99,8.47,5.44,5.44,5.43
64.71,-2.52,-7.90,-2.54,-7.93,7.93,8.88,8.36,5.41,5.38,5.38
65.35,-2.41,-7.73,-2.44,-7.78,7.78,8.77,8.25,5.37,5.34,5.33
66.01,-2.29,-7.57,-2.35,-7.63,7.63,8.66,8.13,5.35,5.29,5.28
66.67,-2.29,-7.53,-2.25,-7.50,7.50,8.56,8.01,5.21,5.25,5.24
67.33,-2.21,-7.41,-2.17,-7.37,7.37,8.45,7.90,5.17,5.21,5.20
68.01,-2.06,-7.22,-2.08,-7.25,7.25,8.35,7.78,5.19,5.17,5.17
68.69,-2.05,-7.18,-2.01,-7.14,7.14,8.25,7.66,5.10,5.13,5.13
69.37,-1.96,-7.05,-1.95,-7.04,7.04,8.15,7.54,5.08,5.09,5.09
70.07,-1.83,-6.88,-1.88,-6.93,6.93,8.04,7.42,5.11,5.06,5.05
70.77,-1.83,-6.86,-1.80,-6.82,6.82,7.94,7.30,5.00,5.02,5.03
71.48,-1.72,-6.71,-1.73,-6.72,6.72,7.84,7.19,5.00,4.98,4.99
72.19,-1.61,-6.57,-1.67,-6.61,6.61,7.75,7.07,5.01,4.95,4.96
72.91,-1.61,-6.52,-1.61,-6.52,6.52,7.65,6.95,4.91,4.91,4.92
73.64,-1.61,-6.49,-1.54,-6.42,6.42,7.55,6.83,4.81,4.87,4.88
74.38,-1.55,-6.39,-1.48,-6.31,6.31,7.45,6.72,4.77,4.84,4.85
75.12,-1.43,-6.23,-1.41,-6.22,6.22,7.36,6.60,4.79,4.80,4.80
75.87,-1.39,-6.15,-1.35,-6.12,6.12,7.26,6.49,4.73,4.77,4.76
76.63,-1.27,-5.99,-1.29,-6.03,6.03,7.17,6.38,4.76,4.73,4.73
77.40,-1.18,-5.87,-1.25,-5.94,5.94,7.08,6.26,4.77,4.70,4.70
78.17,-1.15,-5.80,-1.20,-5.87,5.87,6.99,6.15,4.72,4.67,4.66
78.95,-1.15,-5.78,-1.15,-5.78,5.78,6.90,6.05,4.64,4.64,4.64
79.74,-1.15,-5.76,-1.10,-5.71,5.71,6.81,5.94,4.56,4.61,4.61
80.54,-1.07,-5.65,-1.05,-5.64,5.64,6.72,5.83,4.57,4.59,4.58
81.35,-0.97,-5.52,-1.00,-5.56,5.56,6.63,5.73,4.60,4.57,4.56
82.16,-0.92,-5.46,-0.95,-5.50,5.50,6.54,5.63,4.58,4.55,4.54
82.98,-0.92,-5.45,-0.91,-5.45,5.45,6.45,5.53,4.53,4.54,4.54
83.81,-0.92,-5.44,-0.89,-5.41,5.41,6.37,5.43,4.49,4.52,4.52
84.65,-0.92,-5.42,-0.86,-5.37,5.37,6.28,5.33,4.45,4.51,4.50
85.50,-0.86,-5.36,-0.83,-5.33,5.33,6.20,5.24,4.48,4.50,4.50
86.35,-0.76,-5.25,-0.79,-5.29,5.29,6.12,5.15,4.54,4.50,4.50
87.22,-0.69,-5.17,-0.76,-5.25,5.25,6.03,5.06,4.56,4.49,4.49
88.09,-0.69,-5.16,-0.72,-5.20,5.20,5.95,4.97,4.52,4.48,4.48
88.97,-0.69,-5.17,-0.69,-5.16,5.16,5.87,4.88,4.47,4.47,4.48
89.86,-0.69,-5.16,-0.66,-5.12,5.12,5.79,4.80,4.43,4.46,4.47
90.76,-0.69,-5.14,-0.63,-5.08,5.08,5.71,4.71,4.39,4.45,4.45
91.66,-0.69,-5.13,-0.60,-5.04,5.04,5.64,4.63,4.35,4.44,4.45
92.58,-0.61,-5.02,-0.58,-5.00,5.00,5.56,4.55,4.39,4.42,4.41
93.51,-0.51,-4.92,-0.56,-4.96,4.96,5.48,4.48,4.45,4.40,4.41
94.44,-0.47,-4.85,-0.54,-4.92,4.92,5.41,4.40,4.45,4.38,4.38
95.39,-0.47,-4.82,-0.52,-4.88,4.88,5.33,4.33,4.41,4.35,4.36
96.34,-0.47,-4.78,-0.51,-4.83,4.83,5.26,4.25,4.36,4.32,4.31
97.30,-0.47,-4.75,-0.48,-4.77,4.77,5.19,4.18,4.31,4.29,4.29
98.28,-0.47,-4.72,-0.45,-4.71,4.71,5.12,4.11,4.24,4.26,4.25
99.26,-0.47,-4.68,-0.42,-4.64,4.64,5.05,4.05,4.17,4.22,4.21
100.25,-0.47,-4.64,-0.40,-4.57,4.57,4.98,3.98,4.11,4.17,4.18
101.25,-0.47,-4.60,-0.37,-4.50,4.50,4.91,3.92,4.04,4.13,4.13
102.27,-0.44,-4.52,-0.35,-4.43,4.43,4.84,3.85,3.99,4.08,4.08
103.29,-0.32,-4.34,-0.34,-4.36,4.36,4.77,3.79,4.04,4.02,4.02
104.32,-0.24,-4.21,-0.32,-4.28,4.28,4.71,3.73,4.05,3.96,3.98
105.37,-0.24,-4.15,-0.30,-4.20,4.20,4.64,3.68,3.97,3.90,3.92
106.42,-0.24,-4.09,-0.28,-4.11,4.11,4.58,3.62,3.88,3.83,3.85
107.48,-0.24,-4.01,-0.26,-4.02,4.02,4.51,3.56,3.79,3.76,3.77
108.56,-0.24,-3.92,-0.25,-3.93,3.93,4.45,3.51,3.70,3.69,3.69
109.64,-0.24,-3.84,-0.23,-3.84,3.84,4.39,3.46,3.60,3.61,3.61
110.74,-0.24,-3.77,-0.22,-3.74,3.74,4.33,3.41,3.51,3.52,3.53
111.85,-0.24,-3.69,-0.21,-3.65,3.65,4.27,3.36,3.41,3.44,3.45
112.97,-0.24,-3.59,-0.20,-3.56,3.56,4.21,3.31,3.32,3.36,3.36
114.10,-0.24,-3.52,-0.21,-3.49,3.49,4.15,3.26,3.25,3.28,3.28
115.24,-0.24,-3.43,-0.22,-3.42,3.42,4.09,3.21,3.18,3.20,3.19
116.39,-0.24,-3.34,-0.24,-3.36,3.36,4.03,3.16,3.12,3.12,3.11
117.55,-0.24,-3.27,-0.25,-3.30,3.30,3.98,3.12,3.06,3.05,3.03
118.73,-0.24,-3.19,-0.27,-3.25,3.25,3.92,3.08,3.01,2.98,2.96
119.92,-0.24,-3.14,-0.28,-3.20,3.20,3.87,3.03,2.96,2.92,2.90
121.12,-0.24,-3.07,-0.30,-3.16,3.16,3.81,2.99,2.93,2.86,2.84
122.33,-0.24,-3.02,-0.32,-3.12,3.12,3.76,2.95,2.89,2.80,2.79
123.55,-0.34,-3.09,-0.34,-3.08,3.08,3.71,2.91,2.75,2.75,2.75
124.79,-0.46,-3.16,-0.35,-3.05,3.05,3.66,2.87,2.60,2.70,2.70
126.03,-0.47,-3.13,-0.38,-3.03,3.03,3.61,2.83,2.56,2.65,2.66
127.29,-0.47,-3.09,-0.40,-3.01,3.01,3.56,2.79,2.54,2.61,2.62
128.57,-0.47,-3.04,-0.43,-3.00,3.00,3.51,2.76,2.53,2.57,2.57
129.85,-0.47,-3.00,-0.46,-2.98,2.98,3.46,2.72,2.52,2.53,2.53
131.15,-0.47,-2.96,-0.49,-2.97,2.97,3.42,2.68,2.51,2.48,2.49
132.46,-0.47,-2.91,-0.52,-2.96,2.96,3.37,2.65,2.49,2.44,2.44
133.79,-0.47,-2.87,-0.54,-2.94,2.94,3.32,2.61,2.48,2.40,2.41
135.12,-0.47,-2.82,-0.57,-2.92,2.92,3.28,2.58,2.46,2.36,2.35
136.48,-0.52,-2.83,-0.58,-2.90,2.90,3.24,2.55,2.38,2.32,2.32
137.84,-0.67,-2.94,-0.59,-2.86,2.86,3.19,2.52,2.19,2.27,2.27
139.22,-0.69,-2.90,-0.60,-2.82,2.82,3.15,2.49,2.14,2.23,2.21
140.61,-0.69,-2.84,-0.61,-2.79,2.79,3.11,2.46,2.11,2.18,2.16
142.02,-0.69,-2.81,-0.64,-2.76,2.76,3.07,2.43,2.08,2.13,2.13
143.44,-0.69,-2.76,-0.66,-2.73,2.73,3.03,2.40,2.05,2.07,2.08
144.87,-0.69,-2.71,-0.69,-2.70,2.70,2.99,2.37,2.01,2.01,2.03
146.32,-0.69,-2.65,-0.71,-2.66,2.66,2.95,2.35,1.98,1.95,1.97
147.78,-0.69,-2.61,-0.74,-2.62,2.62,2.91,2.32,1.93,1.88,1.92
149.26,-0.69,-2.53,-0.76,-2.57,2.57,2.88,2.30,1.89,1.81,1.84
150.75,-0.69,-2.45,-0.78,-2.52,2.52,2.84,2.27,1.83,1.74,1.76
152.26,-0.71,-2.39,-0.79,-2.46,2.46,2.81,2.25,1.75,1.66,1.68
153.78,-0.85,-2.45,-0.81,-2.39,2.39,2.77,2.23,1.55,1.58,1.60
155.32,-0.91,-2.40,-0.82,-2.33,2.33,2.74,2.21,1.42,1.51,1.50
156.88,-0.92,-2.33,-0.83,-2.26,2.26,2.71,2.19,1.34,1.43,1.42
158.44,-0.92,-2.25,-0.85,-2.20,2.20,2.67,2.17,1.29,1.35,1.34
160.03,-0.92,-2.17,-0.87,-2.15,2.15,2.64,2.15,1.23,1.28,1.26
161.63,-0.92,-2.10,-0.90,-2.11,2.11,2.61,2.14,1.19,1.21,1.19
163.24,-0.92,-2.05,-0.92,-2.07,2.07,2.58,2.12,1.16,1.15,1.13
164.88,-0.92,-2.00,-0.94,-2.05,2.05,2.55,2.11,1.13,1.10,1.08
166.53,-0.92,-1.95,-0.97,-2.03,2.03,2.52,2.09,1.11,1.06,1.04
168.19,-0.92,-1.92,-0.99,-2.01,2.01,2.50,2.08,1.10,1.03,1.00
169.87,-0.92,-1.90,-1.00,-2.01,2.01,2.47,2.07,1.09,1.00,0.98
171.57,-0.92,-1.88,-1.02,-2.00,2.00,2.44,2.06,1.08,0.99,0.97
173.29,-1.06,-2.02,-1.03,-2.01,2.01,2.42,2.05,0.95,0.97,0.96
175.02,-1.15,-2.12,-1.06,-2.02,2.02,2.39,2.04,0.87,0.96,0.97
176.77,-1.15,-2.11,-1.08,-2.03,2.03,2.37,2.04,0.89,0.96,0.96
178.54,-1.15,-2.11,-1.10,-2.05,2.05,2.35,2.03,0.90,0.95,0.96
180.32,-1.15,-2.11,-1.12,-2.06,2.06,2.32,2.03,0.92,0.95,0.97
182.13,-1.15,-2.11,-1.13,-2.07,2.07,2.30,2.02,0.93,0.94,0.97
183.95,-1.15,-2.11,-1.15,-2.08,2.08,2.28,2.02,0.93,0.93,0.96
185.79,-1.15,-2.09,-1.16,-2.08,2.08,2.26,2.02,0.93,0.92,0.94
187.65,-1.15,-2.07,-1.16,-2.07,2.07,2.24,2.02,0.93,0.91,0.92
189.52,-1.15,-2.04,-1.16,-2.06,2.06,2.22,2.02,0.91,0.90,0.89
191.42,-1.15,-2.02,-1.16,-2.04,2.04,2.20,2.02,0.89,0.88,0.87
193.33,-1.15,-1.99,-1.15,-2.01,2.01,2.18,2.02,0.86,0.86,0.85
195.27,-1.15,-1.98,-1.15,-1.98,1.98,2.17,2.02,0.83,0.83,0.84
197.22,-1.15,-1.96,-1.15,-1.96,1.96,2.15,2.02,0.81,0.81,0.81
199.19,-1.15,-1.92,-1.15,-1.93,1.93,2.13,2.03,0.79,0.79,0.77
201.18,-1.15,-1.91,-1.14,-1.90,1.90,2.12,2.03,0.76,0.76,0.76
203.19,-1.15,-1.89,-1.13,-1.87,1.87,2.11,2.04,0.73,0.74,0.74
205.23,-1.15,-1.86,-1.13,-1.85,1.85,2.09,2.05,0.70,0.72,0.71
207.28,-1.15,-1.85,-1.13,-1.83,1.83,2.08,2.05,0.68,0.70,0.71
209.35,-1.15,-1.82,-1.14,-1.82,1.82,2.07,2.06,0.67,0.68,0.68
211.44,-1.15,-1.80,-1.15,-1.81,1.81,2.05,2.07,0.66,0.66,0.65
213.56,-1.15,-1.79,-1.16,-1.80,1.80,2.04,2.08,0.66,0.64,0.64
215.69,-1.15,-1.78,-1.18,-1.80,1.80,2.03,2.09,0.66,0.63,0.64
217.85,-1.15,-1.76,-1.19,-1.81,1.81,2.02,2.09,0.66,0.61,0.61
220.03,-1.15,-1.74,-1.22,-1.81,1.81,2.02,2.10,0.67,0.60,0.60
222.23,-1.15,-1.72,-1.24,-1.82,1.82,2.01,2.11,0.67,0.58,0.57
224.45,-1.26,-1.82,-1.26,-1.83,1.83,2.00,2.12,0.57,0.57,0.57
226.70,-1.37,-1.93,-1.28,-1.84,1.84,1.99,2.13,0.48,0.56,0.56
228.96,-1.38,-1.93,-1.30,-1.85,1.85,1.99,2.14,0.48,0.55,0.55
231.25,-1.38,-1.93,-1.32,-1.87,1.87,1.98,2.15,0.49,0.54,0.55
233.57,-1.38,-1.91,-1.34,-1.88,1.88,1.98,2.15,0.51,0.54,0.54
235.90,-1.38,-1.90,-1.36,-1.89,1.89,1.97,2.16,0.52,0.53,0.53
238.26,-1.38,-1.90,-1.37,-1.91,1.91,1.97,2.17,0.53,0.53,0.52
240.64,-1.38,-1.90,-1.39,-1.91,1.91,1.97,2.17,0.54,0.53,0.52
243.05,-1.38,-1.91,-1.39,-1.92,1.92,1.96,2.18,0.55,0.53,0.53
245.48,-1.38,-1.91,-1.39,-1.93,1.93,1.96,2.18,0.55,0.53,0.53
247.93,-1.38,-1.92,-1.39,-1.93,1.93,1.96,2.19,0.55,0.53,0.54
250.41,-1.38,-1.91,-1.38,-1.92,1.92,1.96,2.19,0.54,0.54,0.53
252.92,-1.38,-1.92,-1.38,-1.92,1.92,1.96,2.19,0.54,0.54,0.54
255.45,-1.38,-1.94,-1.38,-1.93,1.93,1.96,2.19,0.55,0.55,0.56
258.00,-1.38,-1.94,-1.38,-1.94,1.94,1.96,2.20,0.56,0.56,0.57
260.58,-1.38,-1.94,-1.38,-1.95,1.95,1.97,2.20,0.57,0.57,0.57
263.19,-1.38,-1.96,-1.38,-1.96,1.96,1.97,2.20,0.58,0.58,0.58
265.82,-1.38,-1.96,-1.38,-1.97,1.97,1.97,2.20,0.59,0.59,0.58
268.48,-1.38,-1.98,-1.38,-1.98,1.98,1.98,2.19,0.61,0.61,0.61
271.16,-1.38,-1.99,-1.38,-2.00,2.00,1.98,2.19,0.62,0.62,0.62
273.87,-1.38,-2.01,-1.38,-2.02,2.02,1.99,2.19,0.64,0.64,0.63
276.61,-1.38,-2.04,-1.38,-2.04,2.04,1.99,2.19,0.66,0.66,0.67
279.38,-1.38,-2.06,-1.38,-2.06,2.06,2.00,2.19,0.68,0.68,0.68
282.17,-1.38,-2.08,-1.38,-2.08,2.08,2.01,2.19,0.71,0.71,0.70
284.99,-1.38,-2.10,-1.38,-2.11,2.11,2.02,2.19,0.73,0.73,0.73
287.84,-1.38,-2.13,-1.38,-2.13,2.13,2.03,2.19,0.76,0.76,0.75
290.72,-1.38,-2.16,-1.37,-2.15,2.15,2.04,2.18,0.77,0.78,0.79
293.63,-1.38,-2.19,-1.36,-2.17,2.17,2.05,2.19,0.79,0.81,0.81
296.57,-1.38,-2.21,-1.36,-2.19,2.19,2.06,2.19,0.82,0.84,0.84
299.53,-1.38,-2.24,-1.36,-2.22,2.22,2.07,2.19,0.84,0.86,0.86
302.53,-1.38,-2.25,-1.36,-2.24,2.24,2.08,2.19,0.87,0.88,0.88
305.55,-1.38,-2.29,-1.37,-2.27,2.27,2.09,2.19,0.89,0.90,0.91
308.61,-1.38,-2.30,-1.38,-2.29,2.29,2.11,2.20,0.92,0.92,0.93
311.69,-1.38,-2.32,-1.40,-2.33,2.33,2.12,2.21,0.95,0.93,0.94
314.81,-1.38,-2.35,-1.42,-2.37,2.37,2.14,2.21,0.99,0.94,0.97
317.96,-1.38,-2.34,-1.45,-2.41,2.41,2.15,2.22,1.03,0.95,0.97
321.14,-1.39,-2.35,-1.49,-2.45,2.45,2.17,2.23,1.07,0.96,0.96
324.35,-1.56,-2.52,-1.53,-2.50,2.50,2.19,2.24,0.95,0.97,0.97
327.59,-1.61,-2.58,-1.57,-2.55,2.55,2.20,2.26,0.94,0.98,0.97
330.87,-1.61,-2.59,-1.61,-2.60,2.60,2.22,2.27,1.00,0.99,0.98
334.18,-1.61,-2.59,-1.65,-2.65,2.65,2.24,2.29,1.05,1.00,0.99
337.52,-1.74,-2.73,-1.69,-2.70,2.70,2.26,2.30,0.97,1.01,1.00
340.90,-1.81,-2.83,-1.73,-2.75,2.75,2.28,2.32,0.95,1.02,1.02
344.30,-1.83,-2.86,-1.76,-2.80,2.80,2.30,2.34,0.97,1.04,1.03
347.75,-1.83,-2.87,-1.79,-2.85,2.85,2.32,2.37,1.02,1.05,1.05
351.23,-1.83,-2.90,-1.81,-2.89,2.89,2.34,2.39,1.06,1.07,1.07
354.74,-1.83,-2.92,-1.83,-2.93,2.93,2.36,2.42,1.10,1.10,1.09
358.28,-1.83,-2.95,-1.84,-2.96,2.96,2.38,2.45,1.13,1.12,1.12
361.87,-1.83,-2.96,-1.84,-2.98,2.98,2.41,2.48,1.15,1.14,1.14
365.49,-1.83,-2.99,-1.84,-3.00,3.00,2.43,2.51,1.18,1.16,1.16
369.14,-1.83,-3.01,-1.84,-3.03,3.03,2.45,2.54,1.20,1.19,1.18
372.83,-1.83,-3.04,-1.84,-3.05,3.05,2.48,2.58,1.22,1.21,1.21
376.56,-1.83,-3.06,-1.84,-3.07,3.07,2.50,2.61,1.24,1.23,1.23
380.33,-1.83,-3.08,-1.84,-3.09,3.09,2.53,2.65,1.26,1.24,1.26
384.13,-1.83,-3.10,-1.84,-3.11,3.11,2.55,2.69,1.28,1.26,1.28
387.97,-1.83,-3.11,-1.84,-3.12,3.12,2.58,2.73,1.29,1.28,1.28
391.85,-1.83,-3.12,-1.83,-3.12,3.12,2.60,2.78,1.30,1.29,1.29
395.77,-1.83,-3.13,-1.82,-3.12,3.12,2.63,2.82,1.30,1.30,1.30
399.73,-1.83,-3.13,-1.81,-3.12,3.12,2.66,2.86,1.29,1.31,1.31
403.72,-1.83,-3.14,-1.79,-3.11,3.11,2.68,2.91,1.28,1.32,1.32
407.76,-1.83,-3.15,-1.77,-3.10,3.10,2.71,2.96,1.27,1.33,1.33
411.84,-1.83,-3.16,-1.75,-3.08,3.08,2.74,3.00,1.26,1.33,1.33
415.96,-1.83,-3.17,-1.73,-3.06,3.06,2.77,3.05,1.24,1.33,1.34
420.12,-1.66,-3.00,-1.71,-3.05,3.05,2.79,3.10,1.39,1.34,1.34
424.32,-1.61,-2.95,-1.69,-3.03,3.03,2.82,3.14,1.42,1.34,1.34
428.56,-1.61,-2.95,-1.67,-3.01,3.01,2.85,3.19,1.40,1.34,1.34
432.85,-1.61,-2.94,-1.65,-2.99,2.99,2.88,3.24,1.39,1.34,1.34
437.18,-1.61,-2.95,-1.63,-2.98,2.98,2.90,3.28,1.37,1.35,1.35
441.55,-1.61,-2.96,-1.62,-2.97,2.97,2.93,3.32,1.36,1.35,1.36
445.96,-1.61,-2.96,-1.60,-2.96,2.96,2.96,3.37,1.36,1.36,1.35
450.42,-1.61,-2.97,-1.59,-2.96,2.96,2.99,3.41,1.36,1.37,1.36
454.93,-1.61,-2.98,-1.59,-2.97,2.97,3.02,3.44,1.36,1.38,1.37
459.48,-1.61,-2.99,-1.59,-2.98,2.98,3.04,3.48,1.37,1.39,1.38
464.07,-1.61,-3.01,-1.59,-3.00,3.00,3.07,3.51,1.39,1.40,1.40
468.71,-1.61,-3.03,-1.60,-3.02,3.02,3.10,3.54,1.42,1.42,1.42
