frequency,raw,error,smoothed,error_smoothed,equalization,parametric_eq,fixed_band_eq,equalized_raw,equalized_smoothed,target
20.00,0.60,-2.28,0.59,-2.28,2.25,2.72,0.29,2.85,2.85,2.88
20.20,0.70,-2.23,0.70,-2.23,2.22,2.67,0.30,2.92,2.92,2.93
20.40,0.80,-2.18,0.80,-2.17,2.18,2.62,0.31,2.98,2.98,2.98
20.61,0.89,-2.12,0.90,-2.12,2.14,2.56,0.32,3.03,3.04,3.01
20.81,0.99,-2.07,0.99,-2.07,2.10,2.51,0.33,3.09,3.09,3.06
21.02,1.08,-2.02,1.07,-2.03,2.06,2.45,0.35,3.14,3.12,3.10
21.23,1.12,-2.00,1.13,-2.00,2.01,2.39,0.36,3.14,3.14,3.12
21.44,1.17,-1.97,1.17,-1.97,1.97,2.32,0.37,3.14,3.14,3.14
21.66,1.21,-1.95,1.21,-1.94,1.93,2.26,0.38,3.14,3.15,3.16
21.87,1.27,-1.90,1.27,-1.91,1.89,2.20,0.40,3.16,3.16,3.17
22.09,1.32,-1.87,1.33,-1.86,1.84,2.14,0.41,3.16,3.17,3.19
22.31,1.40,-1.80,1.39,-1.80,1.79,2.07,0.43,3.19,3.18,3.20
22.54,1.46,-1.74,1.46,-1.74,1.73,2.01,0.44,3.19,3.19,3.20
22.76,1.53,-1.67,1.54,-1.66,1.67,1.95,0.45,3.20,3.21,3.20
22.99,1.61,-1.58,1.60,-1.59,1.61,1.89,0.47,3.22,3.21,3.19
23.22,1.66,-1.53,1.66,-1.53,1.55,1.83,0.49,3.21,3.21,3.19
23.45,1.71,-1.48,1.72,-1.48,1.48,1.77,0.50,3.20,3.20,3.19
23.69,1.77,-1.43,1.77,-1.43,1.43,1.71,0.52,3.20,3.19,3.20
23.92,1.82,-1.38,1.82,-1.38,1.37,1.66,0.53,3.19,3.19,3.20
24.16,1.88,-1.32,1.88,-1.33,1.32,1.60,0.55,3.20,3.20,3.20
24.40,1.93,-1.28,1.93,-1.27,1.27,1.55,0.57,3.20,3.20,3.21
24.65,1.98,-1.22,1.98,-1.22,1.22,1.50,0.59,3.20,3.20,3.20
24.89,2.04,-1.16,2.04,-1.17,1.17,1.44,0.60,3.21,3.20,3.20
25.14,2.08,-1.12,2.09,-1.12,1.12,1.40,0.62,3.20,3.20,3.20
25.39,2.14,-1.07,2.14,-1.07,1.07,1.35,0.64,3.21,3.21,3.21
25.65,2.18,-1.03,2.18,-1.02,1.03,1.30,0.66,3.21,3.21,3.21
25.91,2.23,-0.97,2.23,-0.98,0.99,1.25,0.67,3.22,3.22,3.20
26.16,2.26,-0.94,2.26,-0.94,0.95,1.21,0.69,3.21,3.21,3.20
26.43,2.29,-0.91,2.29,-0.91,0.91,1.17,0.71,3.20,3.20,3.20
26.69,2.32,-0.88,2.31,-0.89,0.87,1.13,0.72,3.19,3.18,3.20
26.96,2.34,-0.86,2.35,-0.85,0.82,1.09,0.74,3.16,3.17,3.20
27.23,2.40,-0.80,2.40,-0.80,0.77,1.05,0.76,3.17,3.18,3.20
27.50,2.47,-0.73,2.47,-0.73,0.72,1.01,0.77,3.19,3.19,3.20
27.77,2.54,-0.65,2.53,-0.66,0.67,0.97,0.79,3.21,3.21,3.19
28.05,2.59,-0.60,2.59,-0.60,0.62,0.94,0.80,3.21,3.21,3.19
28.33,2.62,-0.56,2.62,-0.56,0.58,0.90,0.81,3.20,3.20,3.18
28.62,2.65,-0.53,2.65,-0.53,0.53,0.87,0.82,3.18,3.18,3.18
28.90,2.68,-0.51,2.68,-0.50,0.50,0.84,0.84,3.18,3.18,3.19
29.19,2.71,-0.47,2.71,-0.48,0.47,0.81,0.84,3.18,3.18,3.18
29.48,2.73,-0.46,2.73,-0.45,0.46,0.78,0.85,3.19,3.19,3.19
29.78,2.75,-0.43,2.75,-0.43,0.45,0.75,0.86,3.20,3.20,3.18
30.08,2.77,-0.42,2.76,-0.42,0.44,0.72,0.87,3.21,3.20,3.19
30.38,2.76,-0.42,2.76,-0.42,0.43,0.69,0.87,3.19,3.19,3.18
30.68,2.75,-0.43,2.75,-0.43,0.42,0.67,0.87,3.17,3.17,3.18
30.99,2.74,-0.44,2.75,-0.43,0.41,0.64,0.87,3.15,3.15,3.18
31.30,2.76,-0.41,2.76,-0.41,0.39,0.62,0.87,3.15,3.16,3.17
31.61,2.79,-0.38,2.79,-0.38,0.38,0.59,0.87,3.17,3.17,3.17
31.93,2.82,-0.35,2.81,-0.35,0.37,0.57,0.87,3.19,3.18,3.17
32.24,2.83,-0.33,2.83,-0.33,0.35,0.55,0.86,3.18,3.18,3.16
32.57,2.84,-0.32,2.84,-0.32,0.32,0.52,0.86,3.16,3.16,3.16
32.89,2.85,-0.31,2.85,-0.30,0.30,0.50,0.85,3.15,3.15,3.16
33.22,2.87,-0.28,2.87,-0.28,0.27,0.48,0.84,3.14,3.14,3.15
33.55,2.89,-0.26,2.89,-0.26,0.24,0.46,0.83,3.14,3.14,3.15
33.89,2.92,-0.22,2.92,-0.22,0.22,0.44,0.82,3.14,3.14,3.14
34.23,2.94,-0.20,2.94,-0.20,0.20,0.42,0.80,3.14,3.14,3.14
34.57,2.96,-0.17,2.96,-0.17,0.18,0.41,0.79,3.14,3.14,3.13
34.92,2.98,-0.15,2.98,-0.15,0.17,0.39,0.77,3.15,3.14,3.13
35.27,2.98,-0.14,2.98,-0.14,0.15,0.37,0.76,3.13,3.14,3.12
35.62,2.98,-0.14,2.98,-0.14,0.15,0.35,0.74,3.13,3.12,3.12
35.97,2.97,-0.15,2.97,-0.15,0.14,0.34,0.72,3.11,3.11,3.12
36.33,2.97,-0.15,2.97,-0.15,0.13,0.32,0.70,3.10,3.10,3.12
36.70,2.97,-0.14,2.97,-0.14,0.13,0.30,0.68,3.10,3.10,3.11
37.06,2.98,-0.13,2.98,-0.13,0.12,0.29,0.66,3.10,3.11,3.11
37.43,3.00,-0.12,3.00,-0.11,0.12,0.27,0.64,3.12,3.12,3.12
37.81,3.02,-0.10,3.02,-0.10,0.11,0.26,0.62,3.13,3.13,3.12
38.19,3.03,-0.08,3.02,-0.09,0.10,0.24,0.60,3.13,3.13,3.11
38.57,3.02,-0.10,3.02,-0.09,0.10,0.23,0.58,3.12,3.12,3.12
38.95,3.02,-0.11,3.02,-0.10,0.10,0.21,0.56,3.12,3.12,3.13
39.34,3.02,-0.10,3.02,-0.10,0.10,0.20,0.54,3.12,3.12,3.12
39.74,3.02,-0.10,3.02,-0.10,0.10,0.19,0.52,3.12,3.13,3.12
40.14,3.02,-0.10,3.01,-0.10,0.11,0.17,0.50,3.13,3.12,3.12
40.54,3.00,-0.12,3.00,-0.12,0.12,0.16,0.48,3.12,3.12,3.12
40.94,2.98,-0.13,2.98,-0.13,0.12,0.15,0.46,3.10,3.11,3.11
41.35,2.97,-0.14,2.97,-0.13,0.13,0.13,0.44,3.10,3.10,3.11
41.76,2.97,-0.13,2.97,-0.13,0.13,0.12,0.42,3.10,3.10,3.10
42.18,2.97,-0.13,2.96,-0.13,0.14,0.11,0.40,3.11,3.10,3.10
42.60,2.95,-0.14,2.95,-0.14,0.14,0.09,0.38,3.09,3.09,3.09
43.03,2.94,-0.14,2.94,-0.14,0.14,0.08,0.36,3.08,3.08,3.08
43.46,2.93,-0.14,2.93,-0.14,0.13,0.07,0.34,3.06,3.06,3.07
43.90,2.92,-0.13,2.92,-0.13,0.12,0.06,0.32,3.04,3.04,3.05
44.33,2.92,-0.11,2.92,-0.11,0.11,0.05,0.30,3.03,3.03,3.03
44.78,2.92,-0.09,2.92,-0.09,0.10,0.03,0.29,3.02,3.02,3.01
45.23,2.92,-0.08,2.92,-0.08,0.08,0.02,0.27,3.00,3.00,3.00
45.68,2.92,-0.07,2.92,-0.07,0.07,0.01,0.25,2.99,2.99,2.99
46.13,2.92,-0.05,2.92,-0.05,0.06,-0.00,0.23,2.98,2.98,2.97
46.60,2.92,-0.05,2.92,-0.04,0.05,-0.01,0.22,2.97,2.97,2.97
47.06,2.92,-0.03,2.92,-0.03,0.04,-0.02,0.20,2.96,2.96,2.95
47.53,2.91,-0.03,2.91,-0.03,0.03,-0.04,0.18,2.94,2.94,2.94
48.01,2.91,-0.03,2.91,-0.03,0.02,-0.05,0.17,2.93,2.93,2.94
48.49,2.89,-0.03,2.89,-0.03,0.02,-0.06,0.15,2.91,2.91,2.92
48.97,2.88,-0.02,2.88,-0.02,0.02,-0.07,0.13,2.90,2.90,2.90
49.46,2.86,-0.02,2.86,-0.02,0.02,-0.08,0.12,2.88,2.88,2.88
49.96,2.85,-0.01,2.85,-0.01,0.02,-0.09,0.10,2.87,2.88,2.86
50.46,2.84,-0.01,2.84,-0.01,0.03,-0.11,0.09,2.87,2.87,2.85
50.96,2.83,-0.01,2.82,-0.02,0.02,-0.12,0.07,2.85,2.84,2.84
51.47,2.79,-0.03,2.79,-0.04,0.02,-0.13,0.06,2.81,2.80,2.82
51.99,2.74,-0.07,2.76,-0.05,0.02,-0.14,0.04,2.76,2.78,2.81
52.51,2.76,-0.04,2.76,-0.04,0.02,-0.15,0.03,2.78,2.78,2.80
53.03,2.78,-0.02,2.78,-0.01,0.02,-0.17,0.01,2.80,2.80,2.80
53.56,2.80,0.02,2.80,0.02,0.03,-0.18,-0.00,2.83,2.82,2.78
54.10,2.80,0.03,2.78,0.01,0.03,-0.19,-0.02,2.83,2.81,2.77
54.64,2.73,-0.02,2.74,-0.02,0.04,-0.20,-0.03,2.77,2.77,2.75
55.18,2.67,-0.08,2.69,-0.06,0.04,-0.21,-0.05,2.71,2.73,2.75
55.74,2.65,-0.08,2.65,-0.08,0.04,-0.23,-0.07,2.69,2.69,2.73
56.29,2.64,-0.08,2.64,-0.08,0.05,-0.24,-0.08,2.69,2.69,2.72
56.86,2.64,-0.07,2.64,-0.06,0.05,-0.25,-0.10,2.69,2.69,2.71
57.42,2.64,-0.04,2.64,-0.05,0.06,-0.27,-0.11,2.70,2.70,2.68
58.00,2.64,-0.03,2.64,-0.03,0.06,-0.28,-0.13,2.70,2.70,2.67
58.58,2.63,-0.03,2.63,-0.03,0.06,-0.29,-0.14,2.69,2.68,2.66
59.16,2.61,-0.03,2.60,-0.04,0.05,-0.31,-0.16,2.66,2.66,2.64
59.76,2.56,-0.06,2.56,-0.05,0.05,-0.32,-0.18,2.61,2.61,2.62
60.35,2.52,-0.06,2.52,-0.06,0.05,-0.33,-0.19,2.57,2.57,2.58
60.96,2.48,-0.06,2.48,-0.06,0.04,-0.35,-0.21,2.52,2.52,2.54
61.57,2.45,-0.05,2.45,-0.05,0.03,-0.36,-0.23,2.48,2.48,2.50
62.18,2.43,-0.03,2.44,-0.02,0.01,-0.38,-0.25,2.44,2.45,2.46
62.80,2.44,0.03,2.44,0.02,-0.02,-0.39,-0.26,2.42,2.42,2.41
63.43,2.44,0.07,2.43,0.07,-0.05,-0.41,-0.28,2.39,2.38,2.37
64.07,2.43,0.11,2.42,0.10,-0.09,-0.43,-0.30,2.34,2.34,2.32
64.71,2.40,0.12,2.41,0.13,-0.13,-0.44,-0.32,2.27,2.28,2.28
65.35,2.39,0.15,2.39,0.16,-0.17,-0.46,-0.34,2.22,2.22,2.24
66.01,2.39,0.20,2.39,0.20,-0.21,-0.48,-0.36,2.18,2.18,2.19
66.67,2.39,0.25,2.39,0.25,-0.25,-0.49,-0.38,2.14,2.14,2.14
67.33,2.39,0.30,2.39,0.29,-0.28,-0.51,-0.40,2.11,2.10,2.09
68.01,2.38,0.33,2.38,0.33,-0.32,-0.53,-0.43,2.06,2.06,2.05
68.69,2.36,0.36,2.37,0.37,-0.35,-0.55,-0.45,2.01,2.01,2.00
69.37,2.35,0.40,2.35,0.40,-0.39,-0.57,-0.47,1.96,1.95,1.95
70.07,2.34,0.44,2.33,0.43,-0.44,-0.59,-0.50,1.90,1.89,1.90
70.77,2.31,0.46,2.31,0.46,-0.49,-0.61,-0.52,1.82,1.83,1.85
71.48,2.30,0.50,2.31,0.52,-0.54,-0.63,-0.55,1.76,1.77,1.80
72.19,2.31,0.58,2.31,0.58,-0.59,-0.66,-0.57,1.72,1.72,1.73
72.91,2.34,0.67,2.33,0.66,-0.66,-0.68,-0.60,1.68,1.68,1.67
73.64,2.35,0.73,2.35,0.73,-0.72,-0.71,-0.63,1.63,1.63,1.62
74.38,2.35,0.79,2.35,0.79,-0.79,-0.73,-0.65,1.56,1.56,1.56
75.12,2.35,0.85,2.35,0.85,-0.85,-0.76,-0.68,1.50,1.50,1.50
75.87,2.35,0.91,2.36,0.92,-0.91,-0.79,-0.71,1.44,1.45,1.44
76.63,2.37,0.98,2.36,0.97,-0.96,-0.82,-0.74,1.41,1.40,1.39
77.40,2.36,1.02,2.35,1.01,-1.00,-0.85,-0.77,1.36,1.35,1.34
78.17,2.32,1.04,2.33,1.05,-1.04,-0.88,-0.80,1.28,1.30,1.28
78.95,2.30,1.06,2.31,1.07,-1.07,-0.92,-0.84,1.23,1.24,1.24
79.74,2.30,1.11,2.28,1.10,-1.09,-0.95,-0.87,1.21,1.19,1.19
80.54,2.26,1.12,2.25,1.11,-1.12,-0.99,-0.90,1.14,1.14,1.14
81.35,2.21,1.12,2.22,1.13,-1.14,-1.03,-0.94,1.07,1.08,1.09
82.16,2.19,1.15,2.20,1.16,-1.17,-1.08,-0.98,1.02,1.02,1.04
82.98,2.20,1.20,2.19,1.20,-1.21,-1.12,-1.01,0.99,0.98,1.00
83.81,2.20,1.25,2.20,1.25,-1.25,-1.17,-1.05,0.95,0.94,0.95
84.65,2.20,1.30,2.20,1.30,-1.30,-1.22,-1.09,0.90,0.90,0.90
85.50,2.20,1.34,2.20,1.35,-1.35,-1.28,-1.13,0.85,0.85,0.86
86.35,2.21,1.40,2.22,1.41,-1.40,-1.33,-1.17,0.81,0.82,0.81
87.22,2.22,1.46,2.22,1.46,-1.45,-1.39,-1.21,0.77,0.77,0.76
88.09,2.24,1.53,2.21,1.50,-1.50,-1.45,-1.26,0.74,0.71,0.71
88.97,2.17,1.52,2.19,1.54,-1.54,-1.50,-1.30,0.63,0.65,0.65
89.86,2.16,1.56,2.17,1.57,-1.57,-1.56,-1.34,0.59,0.60,0.60
90.76,2.16,1.61,2.15,1.61,-1.60,-1.61,-1.39,0.56,0.55,0.55
91.66,2.15,1.65,2.15,1.65,-1.62,-1.66,-1.44,0.52,0.52,0.50
92.58,2.12,1.68,2.11,1.67,-1.65,-1.70,-1.48,0.47,0.46,0.44
93.51,2.07,1.68,2.06,1.67,-1.68,-1.73,-1.53,0.39,0.39,0.39
94.44,2.01,1.66,2.02,1.67,-1.71,-1.76,-1.58,0.30,0.31,0.35
95.39,1.98,1.68,2.00,1.70,-1.74,-1.78,-1.63,0.24,0.26,0.30
96.34,2.00,1.75,1.99,1.74,-1.76,-1.79,-1.68,0.24,0.23,0.25
97.30,2.01,1.81,2.01,1.81,-1.79,-1.80,-1.74,0.22,0.22,0.20
98.28,2.01,1.86,2.01,1.86,-1.82,-1.80,-1.79,0.19,0.19,0.15
99.26,2.01,1.90,1.99,1.88,-1.85,-1.80,-1.84,0.16,0.13,0.11
100.25,1.94,1.88,1.95,1.89,-1.89,-1.81,-1.90,0.05,0.06,0.06
101.25,1.89,1.88,1.91,1.90,-1.91,-1.81,-1.95,-0.02,-0.01,0.01
102.27,1.88,1.92,1.88,1.92,-1.94,-1.82,-2.00,-0.06,-0.06,-0.04
103.29,1.87,1.96,1.87,1.95,-1.95,-1.83,-2.06,-0.08,-0.09,-0.09
104.32,1.85,1.98,1.84,1.98,-1.97,-1.84,-2.11,-0.12,-0.12,-0.13
105.37,1.82,2.00,1.81,1.99,-1.99,-1.85,-2.16,-0.17,-0.18,-0.18
106.42,1.75,1.98,1.77,2.00,-2.00,-1.86,-2.22,-0.25,-0.23,-0.23
107.48,1.73,2.02,1.73,2.02,-2.02,-1.88,-2.27,-0.29,-0.29,-0.29
108.56,1.71,2.05,1.69,2.03,-2.03,-1.90,-2.32,-0.32,-0.34,-0.34
109.64,1.65,2.04,1.66,2.05,-2.05,-1.93,-2.37,-0.40,-0.39,-0.39
110.74,1.62,2.07,1.62,2.07,-2.06,-1.95,-2.42,-0.44,-0.44,-0.45
111.85,1.58,2.07,1.58,2.08,-2.07,-1.98,-2.47,-0.49,-0.49,-0.49
112.97,1.55,2.10,1.54,2.08,-2.09,-2.01,-2.51,-0.54,-0.55,-0.55
114.10,1.50,2.10,1.49,2.09,-2.11,-2.04,-2.55,-0.61,-0.62,-0.60
115.24,1.42,2.07,1.46,2.11,-2.13,-2.08,-2.59,-0.71,-0.67,-0.65
116.39,1.45,2.15,1.45,2.15,-2.16,-2.11,-2.63,-0.71,-0.71,-0.70
117.55,1.48,2.22,1.45,2.19,-2.19,-2.15,-2.66,-0.71,-0.73,-0.74
118.73,1.46,2.24,1.45,2.23,-2.21,-2.19,-2.69,-0.75,-0.76,-0.78
119.92,1.41,2.22,1.44,2.25,-2.23,-2.22,-2.72,-0.82,-0.79,-0.81
121.12,1.42,2.27,1.42,2.27,-2.25,-2.26,-2.74,-0.83,-0.84,-0.85
122.33,1.42,2.30,1.40,2.28,-2.28,-2.30,-2.76,-0.86,-0.88,-0.88
123.55,1.39,2.30,1.39,2.30,-2.30,-2.34,-2.78,-0.91,-0.92,-0.91
124.79,1.35,2.29,1.36,2.30,-2.33,-2.38,-2.79,-0.98,-0.97,-0.94
126.03,1.34,2.31,1.35,2.31,-2.35,-2.42,-2.80,-1.01,-1.00,-0.97
127.29,1.35,2.34,1.36,2.36,-2.36,-2.46,-2.80,-1.01,-1.01,-0.99
128.57,1.38,2.41,1.38,2.41,-2.38,-2.50,-2.80,-1.00,-1.00,-1.03
129.85,1.40,2.46,1.38,2.44,-2.39,-2.54,-2.80,-0.99,-1.01,-1.06
131.15,1.36,2.45,1.35,2.44,-2.40,-2.58,-2.79,-1.04,-1.05,-1.09
132.46,1.29,2.41,1.29,2.41,-2.42,-2.62,-2.79,-1.13,-1.13,-1.12
133.79,1.22,2.37,1.24,2.39,-2.43,-2.66,-2.77,-1.21,-1.19,-1.15
135.12,1.21,2.39,1.22,2.40,-2.45,-2.70,-2.76,-1.24,-1.22,-1.18
136.48,1.24,2.44,1.23,2.43,-2.46,-2.73,-2.74,-1.22,-1.23,-1.20
137.84,1.25,2.49,1.23,2.47,-2.46,-2.77,-2.72,-1.21,-1.23,-1.24
139.22,1.22,2.49,1.24,2.51,-2.47,-2.80,-2.69,-1.25,-1.23,-1.27
140.61,1.22,2.52,1.23,2.53,-2.48,-2.83,-2.67,-1.26,-1.25,-1.30
142.02,1.24,2.56,1.20,2.52,-2.50,-2.86,-2.64,-1.26,-1.30,-1.32
143.44,1.15,2.50,1.15,2.51,-2.51,-2.89,-2.61,-1.36,-1.36,-1.35
144.87,1.08,2.47,1.12,2.50,-2.53,-2.92,-2.58,-1.45,-1.42,-1.39
146.32,1.09,2.52,1.09,2.51,-2.55,-2.94,-2.55,-1.46,-1.47,-1.43
147.78,1.11,2.57,1.08,2.55,-2.58,-2.96,-2.52,-1.47,-1.50,-1.46
149.26,1.08,2.59,1.08,2.60,-2.61,-2.98,-2.49,-1.53,-1.52,-1.51
150.75,1.06,2.63,1.09,2.66,-2.64,-3.00,-2.46,-1.58,-1.55,-1.57
152.26,1.08,2.72,1.08,2.71,-2.68,-3.01,-2.43,-1.60,-1.60,-1.64
153.78,1.09,2.80,1.04,2.75,-2.72,-3.02,-2.40,-1.63,-1.69,-1.71
155.32,0.96,2.74,0.98,2.76,-2.76,-3.03,-2.37,-1.80,-1.78,-1.78
156.88,0.88,2.74,0.92,2.78,-2.80,-3.03,-2.34,-1.92,-1.87,-1.86
158.44,0.88,2.82,0.87,2.81,-2.83,-3.04,-2.31,-1.95,-1.96,-1.94
160.03,0.87,2.89,0.84,2.85,-2.85,-3.04,-2.29,-1.98,-2.02,-2.02
161.63,0.78,2.87,0.80,2.89,-2.88,-3.03,-2.26,-2.10,-2.08,-2.09
163.24,0.74,2.89,0.75,2.90,-2.91,-3.02,-2.24,-2.17,-2.15,-2.15
164.88,0.72,2.92,0.71,2.91,-2.93,-3.01,-2.21,-2.21,-2.22,-2.20
166.53,0.69,2.94,0.70,2.95,-2.94,-3.00,-2.19,-2.25,-2.25,-2.25
168.19,0.67,2.96,0.68,2.97,-2.95,-2.99,-2.17,-2.28,-2.27,-2.29
169.87,0.67,3.00,0.65,2.98,-2.95,-2.97,-2.15,-2.28,-2.30,-2.33
171.57,0.62,2.97,0.61,2.96,-2.95,-2.95,-2.13,-2.33,-2.34,-2.35
173.29,0.56,2.92,0.57,2.94,-2.95,-2.92,-2.12,-2.39,-2.37,-2.36
175.02,0.53,2.90,0.54,2.91,-2.93,-2.90,-2.10,-2.40,-2.40,-2.37
176.77,0.53,2.91,0.53,2.91,-2.92,-2.87,-2.09,-2.39,-2.39,-2.38
178.54,0.53,2.92,0.52,2.91,-2.90,-2.84,-2.08,-2.37,-2.37,-2.39
180.32,0.52,2.90,0.52,2.90,-2.88,-2.80,-2.07,-2.36,-2.36,-2.38
182.13,0.50,2.87,0.51,2.88,-2.87,-2.77,-2.07,-2.37,-2.37,-2.37
183.95,0.50,2.88,0.47,2.85,-2.87,-2.73,-2.06,-2.37,-2.40,-2.38
185.79,0.43,2.81,0.45,2.83,-2.87,-2.69,-2.06,-2.44,-2.42,-2.38
187.65,0.41,2.81,0.45,2.84,-2.87,-2.65,-2.05,-2.46,-2.42,-2.40
189.52,0.48,2.89,0.46,2.87,-2.86,-2.61,-2.05,-2.38,-2.40,-2.41
191.42,0.48,2.91,0.47,2.90,-2.86,-2.57,-2.05,-2.38,-2.39,-2.43
193.33,0.45,2.90,0.44,2.89,-2.85,-2.53,-2.05,-2.40,-2.41,-2.45
195.27,0.37,2.84,0.38,2.85,-2.85,-2.48,-2.06,-2.48,-2.47,-2.47
197.22,0.32,2.81,0.33,2.82,-2.85,-2.44,-2.06,-2.53,-2.51,-2.49
199.19,0.30,2.81,0.30,2.81,-2.84,-2.40,-2.07,-2.54,-2.54,-2.51
201.18,0.29,2.82,0.28,2.81,-2.82,-2.35,-2.07,-2.53,-2.54,-2.53
203.19,0.26,2.81,0.26,2.81,-2.80,-2.30,-2.08,-2.54,-2.54,-2.55
205.23,0.22,2.79,0.22,2.78,-2.77,-2.26,-2.09,-2.55,-2.56,-2.57
207.28,0.16,2.74,0.17,2.75,-2.74,-2.21,-2.09,-2.58,-2.57,-2.58
209.35,0.11,2.71,0.12,2.72,-2.70,-2.16,-2.10,-2.59,-2.58,-2.60
211.44,0.06,2.69,0.06,2.68,-2.66,-2.12,-2.11,-2.60,-2.60,-2.63
213.56,-0.01,2.63,-0.03,2.61,-2.61,-2.07,-2.12,-2.62,-2.64,-2.64
215.69,-0.12,2.53,-0.12,2.53,-2.56,-2.03,-2.13,-2.68,-2.68,-2.65
217.85,-0.23,2.43,-0.20,2.47,-2.50,-1.98,-2.14,-2.73,-2.69,-2.66
220.03,-0.25,2.42,-0.25,2.43,-2.43,-1.93,-2.15,-2.68,-2.68,-2.67
222.23,-0.27,2.43,-0.29,2.40,-2.37,-1.89,-2.15,-2.64,-2.66,-2.70
224.45,-0.33,2.36,-0.35,2.34,-2.31,-1.84,-2.16,-2.64,-2.66,-2.69
226.70,-0.44,2.25,-0.43,2.26,-2.26,-1.80,-2.16,-2.70,-2.69,-2.69
228.96,-0.52,2.16,-0.50,2.18,-2.21,-1.76,-2.17,-2.73,-2.70,-2.68
231.25,-0.54,2.13,-0.54,2.13,-2.16,-1.71,-2.17,-2.70,-2.70,-2.67
233.57,-0.54,2.12,-0.56,2.10,-2.11,-1.67,-2.17,-2.65,-2.68,-2.66
235.90,-0.58,2.07,-0.58,2.07,-2.06,-1.63,-2.17,-2.64,-2.65,-2.65
238.26,-0.63,2.01,-0.60,2.03,-2.02,-1.59,-2.16,-2.65,-2.62,-2.64
240.64,-0.61,2.00,-0.62,1.99,-1.98,-1.55,-2.16,-2.59,-2.60,-2.61
243.05,-0.62,1.96,-0.64,1.95,-1.95,-1.51,-2.15,-2.57,-2.58,-2.58
245.48,-0.67,1.89,-0.66,1.90,-1.91,-1.47,-2.14,-2.58,-2.57,-2.56
247.93,-0.67,1.86,-0.67,1.86,-1.87,-1.43,-2.12,-2.54,-2.54,-2.53
250.41,-0.70,1.81,-0.68,1.82,-1.82,-1.39,-2.10,-2.52,-2.50,-2.51
252.92,-0.67,1.81,-0.69,1.79,-1.77,-1.35,-2.08,-2.44,-2.46,-2.48
255.45,-0.72,1.74,-0.72,1.74,-1.72,-1.32,-2.06,-2.44,-2.44,-2.46
258.00,-0.76,1.68,-0.76,1.68,-1.68,-1.28,-2.04,-2.44,-2.44,-2.44
260.58,-0.81,1.61,-0.81,1.61,-1.63,-1.25,-2.01,-2.44,-2.44,-2.42
263.19,-0.84,1.55,-0.83,1.56,-1.59,-1.21,-1.98,-2.43,-2.42,-2.39
265.82,-0.84,1.53,-0.85,1.52,-1.55,-1.18,-1.94,-2.39,-2.39,-2.37
268.48,-0.85,1.50,-0.84,1.50,-1.50,-1.14,-1.91,-2.35,-2.34,-2.35
271.16,-0.85,1.47,-0.85,1.47,-1.45,-1.11,-1.87,-2.30,-2.30,-2.32
273.87,-0.85,1.45,-0.87,1.43,-1.40,-1.08,-1.83,-2.25,-2.27,-2.30
276.61,-0.92,1.35,-0.91,1.37,-1.34,-1.05,-1.79,-2.26,-2.25,-2.27
279.38,-0.95,1.29,-0.95,1.29,-1.29,-1.01,-1.75,-2.24,-2.24,-2.24
282.17,-1.00,1.22,-1.00,1.22,-1.22,-0.98,-1.70,-2.22,-2.22,-2.22
284.99,-1.03,1.15,-1.02,1.16,-1.16,-0.95,-1.65,-2.19,-2.19,-2.18
287.84,-1.06,1.10,-1.06,1.10,-1.11,-0.92,-1.61,-2.17,-2.17,-2.16
290.72,-1.07,1.06,-1.10,1.03,-1.06,-0.90,-1.56,-2.13,-2.16,-2.13
293.63,-1.15,0.95,-1.12,0.98,-1.01,-0.87,-1.51,-2.16,-2.13,-2.10
296.57,-1.14,0.93,-1.10,0.97,-0.97,-0.84,-1.46,-2.11,-2.07,-2.07
299.53,-1.05,0.99,-1.10,0.95,-0.93,-0.81,-1.41,-1.98,-2.02,-2.04
302.53,-1.06,0.96,-1.08,0.93,-0.89,-0.78,-1.35,-1.95,-1.97,-2.02
305.55,-1.14,0.84,-1.10,0.88,-0.85,-0.76,-1.30,-1.99,-1.95,-1.98
308.61,-1.14,0.82,-1.15,0.81,-0.81,-0.73,-1.25,-1.95,-1.96,-1.96
311.69,-1.18,0.75,-1.19,0.74,-0.77,-0.70,-1.20,-1.95,-1.96,-1.93
314.81,-1.23,0.68,-1.21,0.70,-0.73,-0.68,-1.14,-1.96,-1.94,-1.91
317.96,-1.23,0.66,-1.23,0.66,-0.69,-0.65,-1.09,-1.92,-1.91,-1.89
321.14,-1.23,0.65,-1.23,0.64,-0.64,-0.62,-1.04,-1.87,-1.87,-1.88
324.35,-1.23,0.63,-1.24,0.62,-0.59,-0.60,-0.99,-1.82,-1.83,-1.86
327.59,-1.27,0.58,-1.27,0.58,-0.55,-0.57,-0.93,-1.82,-1.82,-1.85
330.87,-1.32,0.52,-1.31,0.53,-0.51,-0.55,-0.88,-1.83,-1.82,-1.84
334.18,-1.36,0.46,-1.35,0.47,-0.48,-0.52,-0.83,-1.84,-1.83,-1.82
337.52,-1.38,0.43,-1.41,0.40,-0.44,-0.50,-0.78,-1.82,-1.85,-1.81
340.90,-1.45,0.35,-1.44,0.36,-0.39,-0.47,-0.73,-1.84,-1.84,-1.80
344.30,-1.49,0.30,-1.44,0.35,-0.34,-0.45,-0.68,-1.83,-1.79,-1.79
347.75,-1.44,0.35,-1.45,0.34,-0.30,-0.42,-0.63,-1.74,-1.75,-1.79
351.23,-1.41,0.37,-1.48,0.30,-0.26,-0.40,-0.58,-1.67,-1.74,-1.78
354.74,-1.56,0.23,-1.54,0.24,-0.23,-0.37,-0.53,-1.79,-1.77,-1.79
358.28,-1.67,0.11,-1.62,0.16,-0.20,-0.35,-0.48,-1.87,-1.82,-1.78
361.87,-1.65,0.13,-1.67,0.11,-0.18,-0.32,-0.43,-1.83,-1.84,-1.78
365.49,-1.65,0.12,-1.66,0.12,-0.15,-0.30,-0.38,-1.80,-1.81,-1.77
369.14,-1.64,0.14,-1.64,0.14,-0.13,-0.27,-0.33,-1.77,-1.77,-1.78
372.83,-1.64,0.14,-1.64,0.14,-0.11,-0.25,-0.28,-1.75,-1.75,-1.78
376.56,-1.66,0.13,-1.66,0.12,-0.09,-0.22,-0.24,-1.75,-1.75,-1.79
380.33,-1.69,0.09,-1.70,0.09,-0.07,-0.20,-0.19,-1.76,-1.76,-1.78
384.13,-1.75,0.03,-1.73,0.06,-0.05,-0.17,-0.14,-1.80,-1.78,-1.78
387.97,-1.76,0.03,-1.76,0.02,-0.03,-0.14,-0.10,-1.79,-1.80,-1.79
391.85,-1.79,0.01,-1.81,-0.02,-0.01,-0.12,-0.05,-1.80,-1.82,-1.80
395.77,-1.85,-0.06,-1.85,-0.06,0.02,-0.09,-0.01,-1.83,-1.83,-1.79
399.73,-1.91,-0.11,-1.87,-0.07,0.06,-0.06,0.04,-1.85,-1.81,-1.80
403.72,-1.88,-0.08,-1.87,-0.06,0.08,-0.04,0.08,-1.80,-1.78,-1.80
407.76,-1.83,-0.01,-1.88,-0.07,0.10,-0.01,0.12,-1.73,-1.78,-1.82
411.84,-1.90,-0.08,-1.93,-0.11,0.12,0.02,0.17,-1.78,-1.80,-1.82
415.96,-2.04,-0.22,-2.00,-0.17,0.15,0.04,0.21,-1.89,-1.85,-1.82
420.12,-2.06,-0.24,-2.04,-0.22,0.18,0.07,0.25,-1.88,-1.87,-1.82
424.32,-2.04,-0.22,-2.03,-0.21,0.21,0.10,0.29,-1.83,-1.82,-1.82
428.56,-1.99,-0.18,-2.01,-0.20,0.25,0.13,0.32,-1.74,-1.76,-1.81
432.85,-2.00,-0.20,-2.04,-0.24,0.29,0.15,0.36,-1.71,-1.76,-1.80
437.18,-2.12,-0.33,-2.10,-0.31,0.31,0.18,0.40,-1.81,-1.78,-1.79
441.55,-2.17,-0.42,-2.14,-0.38,0.34,0.21,0.43,-1.83,-1.80,-1.75
445.96,-2.13,-0.41,-2.13,-0.41,0.36,0.23,0.46,-1.77,-1.77,-1.72
450.42,-2.06,-0.37,-2.08,-0.39,0.38,0.26,0.49,-1.68,-1.69,-1.69
454.93,-2.01,-0.37,-2.02,-0.37,0.40,0.28,0.52,-1.61,-1.61,-1.64
459.48,-1.98,-0.38,-1.97,-0.38,0.41,0.30,0.55,-1.57,-1.57,-1.60
464.07,-1.94,-0.39,-1.95,-0.40,0.40,0.32,0.57,-1.54,-1.55,-1.55
468.71,-1.91,-0.42,-1.92,-0.42,0.38,0.34,0.60,-1.53,-1.54,-1.49
473.40,-1.89,-0.44,-1.85,-0.41,0.37,0.36,0.62,-1.52,-1.48,-1.45
478.13,-1.77,-0.38,-1.75,-0.36,0.36,0.38,0.63,-1.41,-1.40,-1.39
482.91,-1.62,-0.27,-1.67,-0.32,0.36,0.39,0.65,-1.26,-1.31,-1.35
487.74,-1.59,-0.28,-1.60,-0.30,0.36,0.41,0.66,-1.23,-1.24,-1.31
492.62,-1.61,-0.35,-1.59,-0.32,0.36,0.42,0.67,-1.25,-1.23,-1.26
497.55,-1.60,-0.36,-1.59,-0.35,0.35,0.42,0.68,-1.25,-1.24,-1.24
