frequency,raw,error,smoothed,error_smoothed,equalization,parametric_eq,fixed_band_eq,equalized_raw,equalized_smoothed,target
20.00,-2.82,-4.77,-2.83,-4.78,4.77,4.56,1.49,1.96,1.95,1.95
20.20,-2.82,-4.80,-2.80,-4.78,4.78,4.53,1.54,1.96,1.98,1.98
20.40,-2.76,-4.77,-2.76,-4.78,4.78,4.50,1.58,2.02,2.01,2.01
20.61,-2.73,-4.76,-2.73,-4.77,4.77,4.47,1.63,2.05,2.04,2.03
20.81,-2.70,-4.76,-2.70,-4.76,4.76,4.44,1.68,2.07,2.07,2.06
21.02,-2.67,-4.76,-2.66,-4.75,4.75,4.41,1.73,2.08,2.09,2.09
21.23,-2.63,-4.73,-2.63,-4.73,4.73,4.38,1.78,2.10,2.11,2.10
21.44,-2.58,-4.69,-2.59,-4.70,4.71,4.35,1.83,2.13,2.12,2.11
21.66,-2.56,-4.68,-2.55,-4.67,4.68,4.32,1.89,2.12,2.12,2.12
21.87,-2.52,-4.64,-2.52,-4.64,4.64,4.29,1.95,2.13,2.13,2.12
22.09,-2.49,-4.62,-2.48,-4.61,4.60,4.26,2.00,2.12,2.12,2.13
22.31,-2.43,-4.56,-2.43,-4.56,4.56,4.23,2.06,2.13,2.13,2.13
22.54,-2.38,-4.51,-2.38,-4.51,4.50,4.20,2.13,2.13,2.13,2.13
22.76,-2.32,-4.45,-2.32,-4.44,4.45,4.17,2.19,2.13,2.13,2.13
22.99,-2.26,-4.38,-2.26,-4.38,4.38,4.13,2.25,2.13,2.13,2.12
23.22,-2.19,-4.31,-2.19,-4.32,4.32,4.10,2.32,2.13,2.12,2.12
23.45,-2.14,-4.26,-2.13,-4.25,4.25,4.07,2.39,2.11,2.12,2.12
23.69,-2.06,-4.18,-2.06,-4.18,4.18,4.04,2.46,2.12,2.12,2.12
23.92,-1.98,-4.10,-1.99,-4.11,4.11,4.00,2.52,2.14,2.13,2.12
24.16,-1.93,-4.05,-1.92,-4.04,4.05,3.97,2.60,2.12,2.12,2.12
24.40,-1.86,-3.98,-1.86,-3.98,3.98,3.94,2.67,2.12,2.12,2.12
24.65,-1.81,-3.92,-1.80,-3.92,3.92,3.90,2.74,2.11,2.11,2.11
24.89,-1.74,-3.85,-1.74,-3.85,3.86,3.87,2.81,2.12,2.11,2.11
25.14,-1.69,-3.80,-1.68,-3.80,3.80,3.84,2.89,2.11,2.12,2.11
25.39,-1.63,-3.74,-1.63,-3.74,3.74,3.80,2.96,2.12,2.11,2.11
25.65,-1.58,-3.69,-1.58,-3.69,3.69,3.77,3.04,2.12,2.11,2.11
25.91,-1.55,-3.65,-1.54,-3.64,3.64,3.73,3.11,2.10,2.11,2.10
26.16,-1.49,-3.59,-1.50,-3.60,3.60,3.70,3.19,2.11,2.10,2.10
26.43,-1.46,-3.56,-1.45,-3.56,3.56,3.66,3.26,2.10,2.10,2.10
26.69,-1.42,-3.52,-1.42,-3.52,3.51,3.63,3.33,2.10,2.10,2.10
26.96,-1.38,-3.48,-1.39,-3.49,3.48,3.59,3.40,2.10,2.09,2.10
27.23,-1.37,-3.46,-1.35,-3.45,3.45,3.56,3.47,2.08,2.09,2.09
27.50,-1.32,-3.41,-1.32,-3.41,3.42,3.52,3.54,2.10,2.10,2.09
27.77,-1.29,-3.37,-1.30,-3.38,3.39,3.49,3.60,2.11,2.10,2.08
28.05,-1.28,-3.36,-1.28,-3.36,3.37,3.45,3.66,2.10,2.10,2.08
28.33,-1.28,-3.35,-1.28,-3.35,3.36,3.42,3.72,2.08,2.08,2.07
28.62,-1.28,-3.35,-1.28,-3.35,3.34,3.38,3.77,2.06,2.06,2.07
28.90,-1.28,-3.35,-1.27,-3.34,3.33,3.34,3.82,2.05,2.06,2.07
29.19,-1.26,-3.32,-1.26,-3.32,3.31,3.31,3.87,2.05,2.06,2.06
29.48,-1.23,-3.29,-1.24,-3.30,3.30,3.27,3.90,2.07,2.06,2.06
29.78,-1.23,-3.28,-1.22,-3.27,3.28,3.24,3.94,2.05,2.06,2.05
30.08,-1.20,-3.25,-1.20,-3.25,3.25,3.20,3.96,2.06,2.06,2.05
30.38,-1.18,-3.22,-1.18,-3.23,3.23,3.16,3.98,2.05,2.05,2.04
30.68,-1.16,-3.20,-1.15,-3.19,3.20,3.13,4.00,2.04,2.04,2.04
30.99,-1.14,-3.17,-1.13,-3.17,3.16,3.09,4.01,2.03,2.03,2.03
31.30,-1.10,-3.12,-1.11,-3.14,3.13,3.05,4.00,2.03,2.02,2.02
31.61,-1.09,-3.11,-1.07,-3.09,3.10,3.02,4.00,2.01,2.02,2.02
31.93,-1.04,-3.05,-1.04,-3.05,3.06,2.98,3.99,2.02,2.02,2.01
32.24,-1.00,-3.00,-1.00,-3.01,3.01,2.94,3.97,2.02,2.01,2.00
32.57,-0.97,-2.97,-0.96,-2.96,2.97,2.91,3.94,2.00,2.00,2.00
32.89,-0.93,-2.92,-0.93,-2.92,2.92,2.87,3.91,1.99,1.99,1.99
33.22,-0.89,-2.87,-0.88,-2.87,2.86,2.83,3.87,1.97,1.98,1.98
33.55,-0.83,-2.81,-0.83,-2.81,2.80,2.79,3.83,1.97,1.97,1.98
33.89,-0.77,-2.74,-0.77,-2.74,2.73,2.76,3.78,1.97,1.97,1.97
34.23,-0.70,-2.66,-0.70,-2.66,2.66,2.72,3.73,1.97,1.96,1.96
34.57,-0.64,-2.59,-0.64,-2.59,2.60,2.68,3.67,1.96,1.96,1.95
34.92,-0.58,-2.52,-0.58,-2.52,2.53,2.65,3.61,1.95,1.95,1.94
35.27,-0.52,-2.45,-0.52,-2.45,2.46,2.61,3.54,1.94,1.94,1.93
35.62,-0.46,-2.38,-0.46,-2.38,2.39,2.57,3.47,1.93,1.93,1.92
35.97,-0.41,-2.32,-0.41,-2.32,2.33,2.53,3.40,1.92,1.92,1.91
36.33,-0.37,-2.27,-0.36,-2.26,2.27,2.50,3.33,1.90,1.91,1.90
36.70,-0.32,-2.21,-0.32,-2.21,2.21,2.46,3.26,1.89,1.89,1.89
37.06,-0.27,-2.15,-0.27,-2.15,2.15,2.42,3.18,1.89,1.88,1.88
37.43,-0.23,-2.10,-0.22,-2.10,2.10,2.38,3.10,1.87,1.87,1.87
37.81,-0.18,-2.04,-0.18,-2.04,2.03,2.35,3.02,1.86,1.86,1.86
38.19,-0.13,-1.98,-0.13,-1.99,1.97,2.31,2.95,1.85,1.84,1.85
38.57,-0.09,-1.93,-0.08,-1.92,1.91,2.27,2.87,1.82,1.83,1.84
38.95,-0.03,-1.86,-0.02,-1.85,1.85,2.24,2.79,1.82,1.83,1.83
39.34,0.03,-1.78,0.03,-1.78,1.79,2.20,2.71,1.82,1.82,1.81
39.74,0.09,-1.71,0.09,-1.72,1.73,2.16,2.63,1.83,1.82,1.80
40.14,0.12,-1.67,0.13,-1.67,1.68,2.12,2.56,1.81,1.81,1.79
40.54,0.16,-1.62,0.16,-1.63,1.63,2.09,2.48,1.80,1.79,1.78
40.94,0.17,-1.60,0.18,-1.60,1.59,2.05,2.41,1.76,1.77,1.77
41.35,0.20,-1.56,0.21,-1.56,1.55,2.01,2.33,1.76,1.76,1.76
41.76,0.22,-1.53,0.23,-1.53,1.52,1.98,2.26,1.74,1.74,1.75
42.18,0.26,-1.48,0.25,-1.49,1.48,1.94,2.19,1.74,1.73,1.74
42.60,0.26,-1.47,0.28,-1.46,1.45,1.90,2.12,1.71,1.72,1.73
43.03,0.30,-1.42,0.30,-1.42,1.42,1.87,2.05,1.72,1.72,1.72
43.46,0.31,-1.39,0.31,-1.39,1.39,1.83,1.98,1.70,1.71,1.70
43.90,0.33,-1.35,0.33,-1.36,1.37,1.79,1.92,1.70,1.70,1.68
44.33,0.31,-1.35,0.32,-1.34,1.35,1.76,1.85,1.67,1.67,1.66
44.78,0.31,-1.33,0.30,-1.34,1.35,1.72,1.79,1.66,1.65,1.64
45.23,0.26,-1.36,0.28,-1.35,1.35,1.68,1.73,1.61,1.63,1.62
45.68,0.26,-1.35,0.26,-1.35,1.36,1.65,1.67,1.62,1.62,1.61
46.13,0.22,-1.37,0.22,-1.37,1.38,1.61,1.61,1.60,1.60,1.59
46.60,0.19,-1.39,0.19,-1.39,1.40,1.57,1.56,1.59,1.58,1.58
47.06,0.13,-1.43,0.14,-1.42,1.42,1.54,1.50,1.55,1.56,1.56
47.53,0.10,-1.44,0.10,-1.45,1.44,1.50,1.45,1.54,1.54,1.54
48.01,0.05,-1.48,0.05,-1.47,1.46,1.46,1.39,1.51,1.51,1.53
48.49,0.01,-1.49,0.01,-1.49,1.48,1.43,1.34,1.49,1.49,1.50
48.97,-0.04,-1.51,-0.03,-1.50,1.50,1.39,1.29,1.46,1.47,1.47
49.46,-0.07,-1.51,-0.07,-1.51,1.51,1.35,1.24,1.45,1.45,1.44
49.96,-0.10,-1.51,-0.10,-1.52,1.54,1.32,1.20,1.44,1.43,1.41
50.46,-0.15,-1.54,-0.14,-1.53,1.56,1.28,1.15,1.41,1.41,1.39
50.96,-0.19,-1.56,-0.20,-1.56,1.58,1.24,1.11,1.39,1.38,1.37
51.47,-0.26,-1.60,-0.26,-1.60,1.60,1.21,1.06,1.35,1.35,1.34
51.99,-0.32,-1.64,-0.31,-1.63,1.63,1.17,1.02,1.31,1.32,1.32
52.51,-0.37,-1.67,-0.36,-1.66,1.65,1.14,0.98,1.29,1.29,1.30
53.03,-0.39,-1.67,-0.40,-1.68,1.67,1.10,0.93,1.28,1.27,1.28
53.56,-0.44,-1.69,-0.43,-1.68,1.68,1.06,0.89,1.24,1.25,1.25
54.10,-0.44,-1.67,-0.45,-1.68,1.68,1.03,0.85,1.24,1.23,1.23
54.64,-0.48,-1.68,-0.47,-1.67,1.67,0.99,0.81,1.19,1.20,1.20
55.18,-0.48,-1.66,-0.47,-1.65,1.65,0.95,0.78,1.17,1.18,1.18
55.74,-0.46,-1.61,-0.46,-1.62,1.62,0.92,0.74,1.16,1.15,1.15
56.29,-0.44,-1.57,-0.44,-1.57,1.58,0.88,0.70,1.14,1.14,1.13
56.86,-0.42,-1.53,-0.41,-1.52,1.52,0.84,0.66,1.11,1.11,1.11
57.42,-0.38,-1.46,-0.38,-1.47,1.46,0.81,0.63,1.09,1.08,1.08
58.00,-0.34,-1.40,-0.33,-1.40,1.39,0.77,0.59,1.05,1.06,1.06
58.58,-0.28,-1.32,-0.27,-1.31,1.31,0.73,0.56,1.03,1.04,1.04
59.16,-0.20,-1.22,-0.20,-1.22,1.22,0.69,0.52,1.03,1.02,1.02
59.76,-0.12,-1.12,-0.13,-1.13,1.13,0.66,0.49,1.01,1.00,1.00
60.35,-0.07,-1.04,-0.06,-1.03,1.02,0.62,0.45,0.96,0.97,0.97
60.96,0.01,-0.93,0.02,-0.92,0.92,0.58,0.42,0.93,0.94,0.94
61.57,0.10,-0.80,0.10,-0.81,0.81,0.54,0.38,0.92,0.91,0.90
62.18,0.17,-0.70,0.18,-0.70,0.71,0.51,0.35,0.88,0.88,0.87
62.80,0.25,-0.59,0.25,-0.59,0.60,0.47,0.32,0.86,0.85,0.84
63.43,0.31,-0.50,0.32,-0.50,0.50,0.43,0.28,0.82,0.82,0.81
64.07,0.38,-0.40,0.38,-0.40,0.41,0.39,0.25,0.79,0.79,0.78
64.71,0.44,-0.32,0.44,-0.32,0.31,0.35,0.22,0.76,0.75,0.76
65.35,0.50,-0.23,0.51,-0.23,0.22,0.31,0.18,0.73,0.73,0.73
66.01,0.56,-0.14,0.56,-0.14,0.14,0.28,0.15,0.70,0.70,0.70
66.67,0.62,-0.05,0.62,-0.06,0.06,0.24,0.11,0.68,0.67,0.67
67.33,0.66,0.02,0.66,0.02,-0.02,0.20,0.08,0.64,0.64,0.64
68.01,0.70,0.09,0.71,0.10,-0.09,0.16,0.05,0.61,0.61,0.61
68.69,0.75,0.17,0.75,0.17,-0.17,0.12,0.01,0.59,0.58,0.58
69.37,0.79,0.24,0.79,0.24,-0.24,0.08,-0.02,0.56,0.55,0.55
70.07,0.82,0.30,0.82,0.30,-0.30,0.04,-0.06,0.52,0.52,0.52
70.77,0.85,0.36,0.85,0.36,-0.36,-0.00,-0.09,0.49,0.49,0.49
71.48,0.87,0.41,0.88,0.42,-0.42,-0.04,-0.13,0.45,0.46,0.46
72.19,0.92,0.50,0.90,0.48,-0.48,-0.09,-0.16,0.45,0.43,0.42
72.91,0.92,0.53,0.92,0.53,-0.53,-0.13,-0.20,0.39,0.39,0.39
73.64,0.92,0.57,0.94,0.59,-0.58,-0.17,-0.24,0.34,0.36,0.35
74.38,0.96,0.64,0.95,0.63,-0.63,-0.21,-0.27,0.33,0.32,0.32
75.12,0.96,0.68,0.96,0.67,-0.68,-0.25,-0.31,0.29,0.28,0.28
75.87,0.96,0.71,0.97,0.71,-0.72,-0.29,-0.35,0.24,0.25,0.25
76.63,0.96,0.74,0.98,0.76,-0.76,-0.34,-0.39,0.20,0.22,0.22
77.40,1.01,0.82,1.00,0.81,-0.81,-0.38,-0.43,0.21,0.19,0.19
78.17,1.01,0.86,1.01,0.85,-0.85,-0.42,-0.47,0.17,0.16,0.15
78.95,1.01,0.89,1.02,0.89,-0.88,-0.47,-0.51,0.13,0.13,0.12
79.74,1.01,0.92,1.01,0.92,-0.92,-0.51,-0.55,0.09,0.09,0.09
80.54,1.01,0.96,1.01,0.96,-0.96,-0.55,-0.59,0.05,0.05,0.05
81.35,1.01,0.99,1.01,0.99,-1.00,-0.60,-0.63,0.02,0.02,0.02
82.16,1.01,1.03,1.01,1.03,-1.03,-0.64,-0.67,-0.02,-0.02,-0.02
82.98,1.01,1.06,1.01,1.06,-1.07,-0.68,-0.72,-0.05,-0.05,-0.05
83.81,1.01,1.10,1.01,1.10,-1.10,-0.73,-0.76,-0.09,-0.09,-0.09
84.65,1.01,1.14,1.01,1.14,-1.14,-0.77,-0.80,-0.13,-0.13,-0.13
85.50,1.01,1.17,1.01,1.17,-1.18,-0.82,-0.85,-0.16,-0.16,-0.16
86.35,1.01,1.21,1.01,1.21,-1.21,-0.86,-0.90,-0.20,-0.20,-0.20
87.22,1.01,1.25,1.02,1.25,-1.25,-0.90,-0.95,-0.24,-0.23,-0.24
88.09,1.01,1.29,1.01,1.29,-1.28,-0.95,-0.99,-0.27,-0.27,-0.28
88.97,1.01,1.33,1.00,1.32,-1.31,-0.99,-1.04,-0.30,-0.31,-0.32
89.86,0.96,1.32,0.98,1.34,-1.34,-1.04,-1.09,-0.38,-0.36,-0.36
90.76,0.96,1.37,0.96,1.36,-1.36,-1.08,-1.14,-0.40,-0.41,-0.41
91.66,0.92,1.37,0.93,1.38,-1.38,-1.13,-1.20,-0.46,-0.45,-0.45
92.58,0.91,1.41,0.91,1.40,-1.40,-1.17,-1.25,-0.48,-0.49,-0.50
93.51,0.87,1.41,0.88,1.41,-1.40,-1.21,-1.30,-0.53,-0.53,-0.54
94.44,0.84,1.42,0.84,1.42,-1.41,-1.26,-1.36,-0.56,-0.57,-0.58
95.39,0.78,1.41,0.78,1.41,-1.41,-1.30,-1.41,-0.62,-0.62,-0.63
96.34,0.72,1.40,0.72,1.40,-1.40,-1.34,-1.47,-0.68,-0.68,-0.68
97.30,0.66,1.39,0.67,1.39,-1.40,-1.39,-1.52,-0.74,-0.73,-0.73
98.28,0.61,1.39,0.62,1.39,-1.39,-1.43,-1.58,-0.78,-0.78,-0.78
99.26,0.57,1.39,0.57,1.39,-1.39,-1.47,-1.64,-0.82,-0.82,-0.82
100.25,0.52,1.39,0.52,1.39,-1.39,-1.51,-1.69,-0.86,-0.86,-0.87
101.25,0.47,1.39,0.47,1.39,-1.39,-1.55,-1.75,-0.92,-0.91,-0.92
102.27,0.43,1.40,0.43,1.39,-1.40,-1.59,-1.81,-0.96,-0.97,-0.97
103.29,0.38,1.40,0.39,1.41,-1.41,-1.64,-1.86,-1.02,-1.02,-1.02
104.32,0.36,1.42,0.36,1.42,-1.43,-1.67,-1.92,-1.06,-1.07,-1.06
105.37,0.34,1.45,0.34,1.44,-1.45,-1.71,-1.98,-1.11,-1.11,-1.11
106.42,0.31,1.47,0.32,1.48,-1.48,-1.75,-2.03,-1.17,-1.16,-1.16
107.48,0.31,1.52,0.31,1.52,-1.52,-1.79,-2.09,-1.20,-1.20,-1.21
108.56,0.31,1.57,0.31,1.57,-1.56,-1.83,-2.14,-1.25,-1.25,-1.26
109.64,0.31,1.62,0.31,1.61,-1.62,-1.86,-2.19,-1.30,-1.31,-1.31
110.74,0.31,1.67,0.32,1.67,-1.68,-1.90,-2.24,-1.36,-1.36,-1.36
111.85,0.31,1.72,0.33,1.74,-1.74,-1.93,-2.29,-1.43,-1.42,-1.41
112.97,0.36,1.83,0.35,1.81,-1.82,-1.96,-2.33,-1.46,-1.47,-1.47
114.10,0.36,1.88,0.37,1.89,-1.90,-1.99,-2.38,-1.53,-1.52,-1.52
115.24,0.40,1.98,0.40,1.98,-1.98,-2.03,-2.41,-1.57,-1.57,-1.58
116.39,0.43,2.06,0.43,2.06,-2.06,-2.06,-2.45,-1.62,-1.63,-1.63
117.55,0.45,2.14,0.46,2.15,-2.14,-2.08,-2.48,-1.69,-1.67,-1.69
118.73,0.50,2.24,0.49,2.22,-2.22,-2.11,-2.52,-1.71,-1.73,-1.74
119.92,0.50,2.29,0.51,2.30,-2.29,-2.14,-2.54,-1.79,-1.78,-1.79
121.12,0.51,2.35,0.52,2.36,-2.36,-2.16,-2.56,-1.85,-1.84,-1.84
122.33,0.54,2.43,0.53,2.42,-2.42,-2.18,-2.58,-1.88,-1.89,-1.89
123.55,0.54,2.48,0.55,2.48,-2.48,-2.21,-2.60,-1.94,-1.93,-1.94
124.79,0.54,2.53,0.54,2.53,-2.53,-2.22,-2.60,-1.99,-1.99,-1.99
126.03,0.54,2.58,0.53,2.57,-2.57,-2.24,-2.61,-2.03,-2.04,-2.04
127.29,0.50,2.59,0.52,2.61,-2.61,-2.26,-2.61,-2.11,-2.09,-2.09
128.57,0.50,2.65,0.50,2.64,-2.64,-2.28,-2.61,-2.14,-2.14,-2.15
129.85,0.47,2.67,0.46,2.66,-2.66,-2.29,-2.60,-2.19,-2.20,-2.20
131.15,0.42,2.67,0.43,2.68,-2.67,-2.30,-2.59,-2.25,-2.24,-2.25
132.46,0.38,2.68,0.39,2.68,-2.68,-2.31,-2.57,-2.30,-2.30,-2.30
133.79,0.34,2.68,0.34,2.68,-2.68,-2.31,-2.56,-2.34,-2.34,-2.34
135.12,0.28,2.67,0.29,2.67,-2.67,-2.32,-2.53,-2.39,-2.39,-2.39
136.48,0.22,2.65,0.22,2.65,-2.65,-2.32,-2.51,-2.43,-2.43,-2.43
137.84,0.15,2.63,0.15,2.63,-2.63,-2.32,-2.48,-2.48,-2.48,-2.48
139.22,0.07,2.60,0.08,2.60,-2.60,-2.31,-2.45,-2.52,-2.52,-2.53
140.61,0.00,2.57,-0.00,2.56,-2.55,-2.31,-2.42,-2.55,-2.56,-2.57
142.02,-0.10,2.50,-0.09,2.51,-2.50,-2.30,-2.38,-2.60,-2.60,-2.60
143.44,-0.19,2.45,-0.19,2.45,-2.45,-2.28,-2.35,-2.63,-2.63,-2.64
144.87,-0.29,2.39,-0.29,2.39,-2.38,-2.27,-2.31,-2.67,-2.67,-2.68
146.32,-0.40,2.32,-0.40,2.32,-2.31,-2.24,-2.27,-2.71,-2.71,-2.72
147.78,-0.51,2.24,-0.51,2.24,-2.24,-2.22,-2.23,-2.75,-2.75,-2.75
149.26,-0.62,2.17,-0.62,2.17,-2.18,-2.19,-2.19,-2.79,-2.80,-2.79
150.75,-0.73,2.10,-0.73,2.10,-2.11,-2.15,-2.15,-2.84,-2.83,-2.83
152.26,-0.84,2.03,-0.83,2.04,-2.05,-2.11,-2.11,-2.88,-2.88,-2.87
153.78,-0.92,1.99,-0.93,1.98,-1.99,-2.07,-2.07,-2.90,-2.91,-2.91
155.32,-1.03,1.92,-1.02,1.93,-1.93,-2.03,-2.03,-2.96,-2.95,-2.95
156.88,-1.10,1.89,-1.10,1.88,-1.88,-1.98,-1.99,-2.98,-2.98,-2.99
158.44,-1.19,1.84,-1.19,1.84,-1.83,-1.94,-1.95,-3.02,-3.02,-3.03
160.03,-1.27,1.80,-1.27,1.80,-1.79,-1.89,-1.91,-3.05,-3.05,-3.07
161.63,-1.35,1.76,-1.35,1.75,-1.75,-1.86,-1.87,-3.09,-3.10,-3.11
163.24,-1.44,1.71,-1.43,1.71,-1.71,-1.82,-1.84,-3.15,-3.15,-3.15
164.88,-1.51,1.67,-1.51,1.67,-1.69,-1.80,-1.80,-3.19,-3.19,-3.18
166.53,-1.58,1.64,-1.57,1.65,-1.67,-1.78,-1.76,-3.24,-3.23,-3.22
168.19,-1.61,1.65,-1.61,1.64,-1.65,-1.78,-1.73,-3.26,-3.27,-3.26
169.87,-1.65,1.65,-1.65,1.65,-1.65,-1.78,-1.70,-3.30,-3.29,-3.30
171.57,-1.68,1.66,-1.68,1.66,-1.65,-1.80,-1.67,-3.33,-3.33,-3.34
173.29,-1.70,1.67,-1.70,1.67,-1.66,-1.81,-1.64,-3.36,-3.36,-3.37
175.02,-1.74,1.67,-1.73,1.68,-1.68,-1.83,-1.61,-3.42,-3.41,-3.41
176.77,-1.74,1.71,-1.75,1.69,-1.70,-1.85,-1.58,-3.43,-3.45,-3.45
178.54,-1.79,1.70,-1.77,1.71,-1.72,-1.87,-1.56,-3.50,-3.49,-3.49
180.32,-1.79,1.74,-1.78,1.74,-1.73,-1.89,-1.53,-3.52,-3.52,-3.53
182.13,-1.79,1.77,-1.80,1.76,-1.76,-1.90,-1.51,-3.54,-3.55,-3.56
183.95,-1.80,1.80,-1.81,1.79,-1.78,-1.91,-1.49,-3.58,-3.59,-3.60
185.79,-1.84,1.79,-1.82,1.81,-1.81,-1.92,-1.47,-3.64,-3.63,-3.63
187.65,-1.84,1.83,-1.84,1.83,-1.84,-1.92,-1.45,-3.67,-3.67,-3.67
189.52,-1.84,1.86,-1.84,1.86,-1.87,-1.92,-1.43,-3.71,-3.71,-3.70
191.42,-1.84,1.89,-1.83,1.90,-1.91,-1.91,-1.41,-3.75,-3.73,-3.73
193.33,-1.81,1.95,-1.82,1.94,-1.95,-1.90,-1.40,-3.76,-3.76,-3.76
195.27,-1.79,2.00,-1.79,2.00,-1.99,-1.89,-1.38,-3.78,-3.79,-3.79
197.22,-1.79,2.03,-1.77,2.05,-2.04,-1.87,-1.37,-3.83,-3.81,-3.82
199.19,-1.74,2.11,-1.75,2.09,-2.09,-1.86,-1.35,-3.82,-3.84,-3.85
201.18,-1.74,2.13,-1.73,2.14,-2.13,-1.83,-1.34,-3.87,-3.86,-3.87
203.19,-1.70,2.19,-1.71,2.18,-2.18,-1.81,-1.33,-3.88,-3.89,-3.89
205.23,-1.70,2.21,-1.69,2.21,-2.22,-1.78,-1.31,-3.92,-3.91,-3.91
207.28,-1.68,2.24,-1.67,2.25,-2.26,-1.75,-1.30,-3.94,-3.93,-3.92
209.35,-1.65,2.29,-1.66,2.28,-2.29,-1.72,-1.29,-3.94,-3.95,-3.94
211.44,-1.65,2.31,-1.63,2.33,-2.32,-1.68,-1.28,-3.97,-3.95,-3.96
213.56,-1.60,2.37,-1.61,2.35,-2.34,-1.65,-1.27,-3.94,-3.95,-3.97
215.69,-1.60,2.37,-1.61,2.36,-2.36,-1.61,-1.26,-3.95,-3.97,-3.97
217.85,-1.63,2.35,-1.61,2.36,-2.36,-1.57,-1.24,-3.99,-3.97,-3.98
220.03,-1.65,2.34,-1.64,2.35,-2.35,-1.52,-1.23,-4.00,-3.99,-3.99
222.23,-1.65,2.35,-1.66,2.33,-2.33,-1.48,-1.22,-3.98,-3.99,-4.00
224.45,-1.70,2.30,-1.69,2.30,-2.30,-1.43,-1.20,-3.99,-3.99,-4.00
226.70,-1.74,2.26,-1.74,2.26,-2.25,-1.38,-1.18,-3.99,-3.99,-4.00
228.96,-1.81,2.19,-1.80,2.19,-2.19,-1.33,-1.17,-4.00,-3.99,-4.00
231.25,-1.86,2.13,-1.86,2.13,-2.12,-1.28,-1.15,-3.98,-3.99,-3.99
233.57,-1.95,2.04,-1.94,2.05,-2.04,-1.23,-1.13,-3.99,-3.99,-3.99
235.90,-2.02,1.97,-2.03,1.96,-1.96,-1.17,-1.10,-3.97,-3.98,-3.99
238.26,-2.13,1.85,-2.12,1.86,-1.86,-1.11,-1.08,-3.99,-3.98,-3.98
240.64,-2.21,1.76,-2.21,1.76,-1.76,-1.05,-1.05,-3.97,-3.97,-3.97
243.05,-2.30,1.66,-2.31,1.65,-1.65,-0.99,-1.02,-3.95,-3.96,-3.96
245.48,-2.41,1.54,-2.40,1.55,-1.55,-0.92,-0.99,-3.95,-3.95,-3.95
247.93,-2.50,1.44,-2.50,1.44,-1.44,-0.85,-0.95,-3.94,-3.94,-3.94
250.41,-2.60,1.33,-2.60,1.33,-1.34,-0.78,-0.92,-3.93,-3.93,-3.93
252.92,-2.69,1.22,-2.69,1.22,-1.23,-0.71,-0.88,-3.92,-3.92,-3.91
255.45,-2.78,1.11,-2.77,1.12,-1.13,-0.64,-0.83,-3.90,-3.90,-3.89
258.00,-2.86,1.02,-2.86,1.01,-1.02,-0.56,-0.79,-3.88,-3.88,-3.88
260.58,-2.94,0.92,-2.94,0.92,-0.92,-0.48,-0.74,-3.85,-3.85,-3.86
263.19,-3.03,0.81,-3.02,0.82,-0.81,-0.40,-0.69,-3.83,-3.83,-3.84
265.82,-3.10,0.72,-3.11,0.71,-0.69,-0.32,-0.64,-3.79,-3.81,-3.82
268.48,-3.22,0.58,-3.21,0.58,-0.58,-0.23,-0.58,-3.79,-3.79,-3.80
271.16,-3.33,0.45,-3.32,0.45,-0.45,-0.14,-0.52,-3.78,-3.78,-3.78
273.87,-3.44,0.32,-3.44,0.32,-0.33,-0.05,-0.46,-3.76,-3.76,-3.76
276.61,-3.55,0.19,-3.55,0.19,-0.19,0.05,-0.40,-3.74,-3.74,-3.74
279.38,-3.66,0.06,-3.66,0.05,-0.06,0.15,-0.33,-3.71,-3.72,-3.72
282.17,-3.79,-0.09,-3.79,-0.09,0.08,0.26,-0.27,-3.70,-3.70,-3.70
284.99,-3.92,-0.24,-3.91,-0.23,0.23,0.36,-0.20,-3.69,-3.68,-3.68
287.84,-4.03,-0.37,-4.03,-0.38,0.37,0.47,-0.13,-3.66,-3.66,-3.66
290.72,-4.16,-0.52,-4.16,-0.52,0.52,0.59,-0.05,-3.64,-3.64,-3.64
293.63,-4.29,-0.67,-4.29,-0.67,0.67,0.71,0.02,-3.61,-3.61,-3.62
296.57,-4.43,-0.83,-4.43,-0.83,0.84,0.83,0.10,-3.59,-3.59,-3.60
299.53,-4.58,-1.00,-4.58,-1.00,1.00,0.96,0.18,-3.57,-3.57,-3.58
302.53,-4.73,-1.17,-4.73,-1.17,1.18,1.09,0.26,-3.55,-3.55,-3.56
305.55,-4.89,-1.36,-4.89,-1.36,1.36,1.23,0.34,-3.52,-3.52,-3.53
308.61,-5.05,-1.54,-5.05,-1.55,1.56,1.37,0.42,-3.49,-3.50,-3.51
311.69,-5.24,-1.76,-5.23,-1.75,1.75,1.52,0.50,-3.49,-3.48,-3.48
314.81,-5.40,-1.95,-5.40,-1.95,1.95,1.67,0.59,-3.45,-3.46,-3.45
317.96,-5.59,-2.16,-5.59,-2.16,2.15,1.83,0.67,-3.44,-3.44,-3.43
321.14,-5.77,-2.36,-5.77,-2.36,2.35,2.00,0.76,-3.41,-3.41,-3.41
324.35,-5.95,-2.56,-5.94,-2.56,2.56,2.17,0.85,-3.39,-3.39,-3.39
327.59,-6.12,-2.75,-6.12,-2.75,2.76,2.34,0.94,-3.36,-3.36,-3.37
330.87,-6.29,-2.94,-6.29,-2.95,2.95,2.52,1.03,-3.33,-3.34,-3.35
334.18,-6.47,-3.14,-6.47,-3.14,3.15,2.71,1.13,-3.32,-3.33,-3.33
337.52,-6.66,-3.35,-6.65,-3.34,3.34,2.90,1.22,-3.32,-3.31,-3.31
340.90,-6.82,-3.53,-6.82,-3.53,3.52,3.10,1.32,-3.29,-3.29,-3.29
344.30,-6.97,-3.70,-6.97,-3.71,3.70,3.30,1.42,-3.26,-3.27,-3.27
347.75,-7.13,-3.88,-7.13,-3.88,3.88,3.51,1.51,-3.25,-3.25,-3.25
351.23,-7.28,-4.05,-7.28,-4.05,4.05,3.72,1.61,-3.23,-3.23,-3.23
354.74,-7.43,-4.22,-7.43,-4.22,4.21,3.94,1.71,-3.21,-3.21,-3.21
358.28,-7.57,-4.37,-7.56,-4.37,4.37,4.15,1.82,-3.20,-3.19,-3.20
361.87,-7.70,-4.52,-7.69,-4.52,4.52,4.37,1.92,-3.18,-3.17,-3.18
365.49,-7.81,-4.65,-7.82,-4.66,4.66,4.59,2.03,-3.14,-3.16,-3.16
369.14,-7.95,-4.80,-7.95,-4.80,4.80,4.81,2.13,-3.15,-3.15,-3.15
372.83,-8.08,-4.95,-8.07,-4.94,4.93,5.02,2.24,-3.15,-3.14,-3.13
376.56,-8.19,-5.07,-8.18,-5.06,5.06,5.22,2.35,-3.13,-3.12,-3.12
380.33,-8.27,-5.17,-8.28,-5.18,5.18,5.42,2.46,-3.08,-3.10,-3.10
384.13,-8.38,-5.29,-8.38,-5.29,5.30,5.61,2.57,-3.07,-3.08,-3.09
387.97,-8.49,-5.41,-8.48,-5.41,5.42,5.78,2.68,-3.06,-3.06,-3.08
391.85,-8.60,-5.53,-8.59,-5.53,5.54,5.94,2.79,-3.06,-3.05,-3.07
395.77,-8.68,-5.63,-8.69,-5.64,5.65,6.07,2.91,-3.03,-3.04,-3.05
399.73,-8.79,-5.75,-8.79,-5.75,5.75,6.19,3.02,-3.04,-3.04,-3.04
403.72,-8.88,-5.85,-8.88,-5.85,5.84,6.28,3.13,-3.04,-3.04,-3.03
407.76,-8.96,-5.94,-8.95,-5.93,5.92,6.34,3.24,-3.03,-3.02,-3.02
411.84,-9.01,-6.00,-9.00,-5.99,5.99,6.37,3.36,-3.02,-3.01,-3.01
415.96,-9.02,-6.02,-9.04,-6.04,6.04,6.38,3.47,-2.98,-3.00,-3.00
420.12,-9.07,-6.08,-9.06,-6.07,6.07,6.35,3.58,-3.00,-2.99,-2.99
424.32,-9.07,-6.09,-9.06,-6.08,6.08,6.30,3.69,-2.99,-2.98,-2.98
428.56,-9.04,-6.07,-9.04,-6.07,6.07,6.23,3.79,-2.97,-2.97,-2.97
432.85,-8.99,-6.03,-8.99,-6.03,6.03,6.13,3.89,-2.95,-2.95,-2.96
437.18,-8.92,-5.97,-8.92,-5.98,5.98,6.01,3.99,-2.94,-2.94,-2.95
441.55,-8.83,-5.90,-8.84,-5.90,5.90,5.87,4.09,-2.92,-2.93,-2.93
445.96,-8.75,-5.83,-8.73,-5.81,5.81,5.72,4.18,-2.94,-2.92,-2.92
450.42,-8.60,-5.69,-8.61,-5.70,5.69,5.55,4.26,-2.91,-2.92,-2.91
454.93,-8.46,-5.57,-8.46,-5.56,5.55,5.37,4.34,-2.91,-2.90,-2.89
459.48,-8.29,-5.41,-8.28,-5.40,5.40,5.19,4.42,-2.89,-2.88,-2.88
464.07,-8.09,-5.22,-8.10,-5.23,5.23,5.00,4.48,-2.85,-2.86,-2.87
468.71,-7.90,-5.05,-7.90,-5.05,5.06,4.81,4.54,-2.84,-2.84,-2.85
473.40,-7.70,-4.86,-7.70,-4.86,4.87,4.62,4.59,-2.83,-2.83,-2.84
478.13,-7.49,-4.67,-7.49,-4.67,4.68,4.43,4.63,-2.81,-2.81,-2.82
