frequency,raw,error,smoothed,error_smoothed,equalization,parametric_eq,fixed_band_eq,equalized_raw,equalized_smoothed,target
20.00,-17.54,-23.39,-17.60,-23.47,23.47,25.07,10.44,5.92,5.86,5.85
20.20,-17.45,-23.34,-17.48,-23.38,23.38,24.84,10.63,5.92,5.89,5.89
20.40,-17.35,-23.27,-17.36,-23.28,23.28,24.61,10.82,5.93,5.92,5.92
20.61,-17.26,-23.21,-17.24,-23.19,23.19,24.39,11.02,5.93,5.95,5.94
20.81,-17.16,-23.15,-17.12,-23.09,23.09,24.18,11.22,5.93,5.97,5.98
21.02,-17.07,-23.10,-17.00,-22.99,22.99,23.97,11.42,5.92,6.00,6.02
21.23,-16.92,-22.95,-16.87,-22.89,22.89,23.77,11.63,5.97,6.02,6.03
21.44,-16.77,-22.82,-16.75,-22.79,22.79,23.58,11.85,6.02,6.04,6.05
21.66,-16.62,-22.70,-16.62,-22.68,22.68,23.39,12.07,6.06,6.06,6.07
21.87,-16.47,-22.55,-16.50,-22.58,22.58,23.21,12.30,6.11,6.08,6.08
22.09,-16.33,-22.43,-16.37,-22.47,22.47,23.04,12.53,6.14,6.09,6.10
22.31,-16.22,-22.32,-16.25,-22.35,22.35,22.87,12.77,6.13,6.11,6.10
22.54,-16.11,-22.22,-16.11,-22.23,22.23,22.70,13.02,6.12,6.12,6.11
22.76,-16.00,-22.12,-15.98,-22.11,22.11,22.55,13.28,6.11,6.12,6.12
22.99,-15.90,-22.02,-15.85,-21.98,21.98,22.39,13.54,6.08,6.13,6.12
23.22,-15.75,-21.88,-15.72,-21.86,21.86,22.25,13.81,6.11,6.14,6.13
23.45,-15.60,-21.74,-15.59,-21.74,21.74,22.10,14.08,6.14,6.14,6.14
23.69,-15.45,-21.60,-15.47,-21.62,21.62,21.96,14.37,6.16,6.15,6.15
23.92,-15.31,-21.47,-15.35,-21.50,21.50,21.83,14.67,6.19,6.15,6.16
24.16,-15.19,-21.35,-15.23,-21.38,21.38,21.70,14.97,6.19,6.15,6.16
24.40,-15.09,-21.26,-15.11,-21.27,21.27,21.57,15.29,6.18,6.16,6.17
24.65,-14.99,-21.15,-14.99,-21.15,21.15,21.44,15.62,6.16,6.16,6.16
24.89,-14.88,-21.04,-14.87,-21.03,21.03,21.32,15.95,6.15,6.16,6.16
25.14,-14.77,-20.93,-14.75,-20.92,20.92,21.20,16.30,6.15,6.16,6.16
25.39,-14.64,-20.80,-14.63,-20.80,20.80,21.09,16.67,6.16,6.16,6.16
25.65,-14.52,-20.68,-14.51,-20.68,20.68,20.97,17.04,6.15,6.16,6.16
25.91,-14.40,-20.55,-14.40,-20.56,20.56,20.86,17.44,6.15,6.16,6.15
26.16,-14.28,-20.44,-14.28,-20.44,20.44,20.75,17.84,6.16,6.16,6.16
26.43,-14.18,-20.34,-14.18,-20.33,20.33,20.64,18.27,6.15,6.15,6.15
26.69,-14.07,-20.22,-14.07,-20.22,20.22,20.53,18.71,6.15,6.15,6.15
26.96,-13.97,-20.12,-13.96,-20.11,20.11,20.43,19.16,6.14,6.15,6.15
27.23,-13.84,-19.99,-13.85,-20.00,20.00,20.32,19.64,6.15,6.15,6.15
27.50,-13.70,-19.85,-13.73,-19.88,19.88,20.22,20.14,6.18,6.14,6.15
27.77,-13.56,-19.70,-13.62,-19.76,19.76,20.11,20.65,6.20,6.14,6.14
28.05,-13.44,-19.58,-13.49,-19.63,19.63,20.01,21.18,6.19,6.14,6.14
28.33,-13.37,-19.50,-13.37,-19.51,19.51,19.90,21.73,6.13,6.14,6.12
28.62,-13.30,-19.44,-13.24,-19.37,19.37,19.80,22.29,6.07,6.13,6.13
28.90,-13.23,-19.36,-13.11,-19.24,19.24,19.69,22.86,6.01,6.13,6.13
29.19,-13.08,-19.20,-12.98,-19.11,19.11,19.58,23.43,6.03,6.13,6.12
29.48,-12.89,-19.02,-12.85,-18.98,18.98,19.48,23.99,6.09,6.12,6.13
29.78,-12.70,-18.83,-12.73,-18.85,18.85,19.37,24.52,6.14,6.12,6.13
30.08,-12.52,-18.65,-12.60,-18.71,18.71,19.26,25.01,6.19,6.11,6.12
30.38,-12.39,-18.50,-12.47,-18.58,18.58,19.15,25.43,6.19,6.11,6.11
30.68,-12.27,-18.38,-12.34,-18.45,18.45,19.04,25.74,6.18,6.10,6.11
30.99,-12.15,-18.25,-12.21,-18.31,18.31,18.92,25.93,6.15,6.10,6.10
31.30,-12.05,-18.15,-12.07,-18.16,18.16,18.81,25.98,6.11,6.09,6.09
31.61,-11.96,-18.05,-11.93,-18.02,18.02,18.69,25.89,6.06,6.09,6.09
31.93,-11.86,-17.94,-11.80,-17.88,17.88,18.57,25.66,6.02,6.08,6.08
32.24,-11.73,-17.80,-11.67,-17.75,17.75,18.45,25.32,6.02,6.08,6.07
32.57,-11.59,-17.66,-11.55,-17.62,17.62,18.32,24.89,6.03,6.07,6.06
32.89,-11.45,-17.51,-11.43,-17.49,17.49,18.20,24.39,6.04,6.06,6.06
33.22,-11.29,-17.35,-11.30,-17.36,17.36,18.07,23.87,6.07,6.06,6.06
33.55,-11.14,-17.19,-11.18,-17.23,17.23,17.94,23.32,6.09,6.05,6.06
33.89,-10.98,-17.03,-11.05,-17.09,17.09,17.80,22.77,6.11,6.05,6.05
34.23,-10.88,-16.93,-10.92,-16.96,16.96,17.67,22.22,6.08,6.04,6.05
34.57,-10.80,-16.84,-10.79,-16.83,16.83,17.53,21.69,6.03,6.04,6.03
34.92,-10.72,-16.75,-10.67,-16.70,16.70,17.39,21.16,5.98,6.03,6.03
35.27,-10.58,-16.61,-10.55,-16.57,16.57,17.25,20.66,5.99,6.02,6.03
35.62,-10.42,-16.44,-10.43,-16.45,16.45,17.10,20.18,6.03,6.02,6.01
35.97,-10.26,-16.27,-10.31,-16.33,16.33,16.96,19.71,6.06,6.01,6.01
36.33,-10.16,-16.17,-10.20,-16.21,16.21,16.81,19.27,6.04,6.00,6.01
36.70,-10.07,-16.07,-10.09,-16.09,16.09,16.66,18.84,6.02,6.00,6.00
37.06,-9.97,-15.96,-9.98,-15.97,15.97,16.51,18.43,6.00,5.99,5.99
37.43,-9.88,-15.86,-9.86,-15.84,15.84,16.35,18.03,5.96,5.98,5.98
37.81,-9.79,-15.77,-9.74,-15.71,15.71,16.19,17.66,5.92,5.97,5.98
38.19,-9.66,-15.62,-9.61,-15.58,15.58,16.04,17.29,5.92,5.97,5.96
38.57,-9.51,-15.47,-9.48,-15.44,15.44,15.88,16.95,5.93,5.96,5.96
38.95,-9.35,-15.30,-9.36,-15.31,15.31,15.72,16.61,5.96,5.95,5.95
39.34,-9.24,-15.17,-9.25,-15.19,15.19,15.56,16.29,5.95,5.94,5.93
39.74,-9.14,-15.06,-9.13,-15.07,15.07,15.39,15.99,5.92,5.94,5.92
40.14,-9.01,-14.94,-9.01,-14.93,14.93,15.23,15.69,5.92,5.93,5.92
40.54,-8.84,-14.76,-8.87,-14.79,14.79,15.06,15.40,5.94,5.91,5.92
40.94,-8.67,-14.58,-8.74,-14.64,14.64,14.90,15.13,5.97,5.90,5.91
41.35,-8.57,-14.46,-8.61,-14.49,14.49,14.73,14.87,5.92,5.88,5.89
41.76,-8.47,-14.35,-8.47,-14.34,14.34,14.56,14.61,5.87,5.86,5.87
42.18,-8.38,-14.24,-8.34,-14.18,14.18,14.40,14.37,5.80,5.84,5.86
42.60,-8.28,-14.11,-8.22,-14.03,14.03,14.23,14.13,5.75,5.82,5.83
43.03,-8.18,-13.99,-8.09,-13.88,13.88,14.06,13.90,5.70,5.79,5.81
43.46,-7.98,-13.76,-7.97,-13.73,13.73,13.89,13.68,5.75,5.76,5.78
43.90,-7.79,-13.53,-7.84,-13.58,13.58,13.72,13.47,5.78,5.74,5.73
44.33,-7.66,-13.37,-7.72,-13.43,13.43,13.56,13.26,5.77,5.71,5.71
44.78,-7.56,-13.23,-7.60,-13.28,13.28,13.39,13.07,5.72,5.68,5.67
45.23,-7.46,-13.10,-7.48,-13.13,13.13,13.22,12.87,5.67,5.65,5.64
45.68,-7.35,-12.96,-7.37,-12.99,12.99,13.05,12.69,5.64,5.62,5.61
46.13,-7.25,-12.84,-7.25,-12.85,12.85,12.89,12.51,5.60,5.60,5.59
46.60,-7.14,-12.72,-7.13,-12.71,12.71,12.72,12.34,5.57,5.58,5.57
47.06,-7.03,-12.58,-7.01,-12.58,12.58,12.55,12.17,5.55,5.56,5.55
47.53,-6.91,-12.45,-6.90,-12.45,12.45,12.39,12.01,5.54,5.55,5.54
48.01,-6.78,-12.32,-6.80,-12.33,12.33,12.22,11.85,5.55,5.54,5.54
48.49,-6.69,-12.22,-6.69,-12.22,12.22,12.06,11.70,5.53,5.53,5.53
48.97,-6.60,-12.12,-6.59,-12.11,12.11,11.90,11.55,5.51,5.52,5.51
49.46,-6.49,-11.99,-6.48,-12.00,12.00,11.74,11.41,5.51,5.52,5.50
49.96,-6.38,-11.88,-6.37,-11.88,11.88,11.58,11.27,5.50,5.51,5.50
50.46,-6.25,-11.76,-6.26,-11.76,11.76,11.42,11.14,5.51,5.50,5.50
50.96,-6.11,-11.62,-6.15,-11.64,11.64,11.26,11.01,5.53,5.49,5.51
51.47,-6.01,-11.50,-6.04,-11.52,11.52,11.10,10.88,5.51,5.48,5.49
51.99,-5.91,-11.39,-5.93,-11.39,11.39,10.94,10.75,5.48,5.46,5.48
52.51,-5.80,-11.26,-5.81,-11.24,11.24,10.79,10.63,5.44,5.44,5.46
53.03,-5.68,-11.11,-5.68,-11.09,11.09,10.63,10.51,5.41,5.41,5.43
53.56,-5.56,-10.96,-5.54,-10.91,10.91,10.48,10.40,5.35,5.38,5.40
54.10,-5.44,-10.79,-5.39,-10.73,10.73,10.33,10.28,5.29,5.34,5.35
54.64,-5.31,-10.61,-5.25,-10.55,10.55,10.18,10.17,5.24,5.30,5.30
55.18,-5.19,-10.44,-5.11,-10.36,10.36,10.03,10.06,5.17,5.25,5.25
55.74,-5.06,-10.25,-4.97,-10.17,10.17,9.88,9.95,5.11,5.20,5.19
56.29,-4.87,-10.01,-4.84,-9.98,9.98,9.73,9.84,5.11,5.14,5.14
56.86,-4.61,-9.69,-4.70,-9.78,9.78,9.59,9.73,5.16,5.08,5.08
57.42,-4.45,-9.45,-4.56,-9.57,9.57,9.44,9.63,5.12,5.01,5.00
58.00,-4.32,-9.26,-4.42,-9.37,9.37,9.30,9.52,5.05,4.95,4.94
58.58,-4.19,-9.07,-4.28,-9.16,9.16,9.16,9.41,4.97,4.88,4.88
59.16,-4.09,-8.91,-4.15,-8.96,8.96,9.02,9.30,4.87,4.81,4.82
59.76,-4.09,-8.85,-4.02,-8.77,8.77,8.88,9.20,4.68,4.75,4.76
60.35,-4.01,-8.69,-3.91,-8.59,8.59,8.74,9.09,4.58,4.68,4.68
60.96,-3.87,-8.50,-3.79,-8.41,8.41,8.61,8.98,4.54,4.62,4.63
61.57,-3.73,-8.28,-3.68,-8.24,8.24,8.47,8.87,4.51,4.55,4.55
62.18,-3.59,-8.07,-3.59,-8.08,8.08,8.34,8.75,4.49,4.49,4.48
62.80,-3.45,-7.88,-3.51,-7.94,7.94,8.21,8.64,4.49,4.43,4.43
63.43,-3.37,-7.74,-3.43,-7.81,7.81,8.08,8.53,4.44,4.38,4.37
64.07,-3.30,-7.62,-3.34,-7.67,7.67,7.95,8.41,4.37,4.32,4.32
64.71,-3.22,-7.49,-3.26,-7.53,7.53,7.82,8.29,4.31,4.27,4.27
65.35,-3.18,-7.40,-3.18,-7.40,7.40,7.70,8.18,4.22,4.22,4.21
66.01,-3.18,-7.35,-3.09,-7.27,7.27,7.57,8.06,4.09,4.18,4.17
66.67,-3.03,-7.16,-3.01,-7.14,7.14,7.45,7.94,4.11,4.13,4.13
67.33,-2.95,-7.04,-2.95,-7.04,7.04,7.33,7.81,4.09,4.09,4.09
68.01,-2.95,-7.01,-2.90,-6.95,6.95,7.21,7.69,4.00,4.05,4.05
68.69,-2.93,-6.95,-2.86,-6.87,6.87,7.09,7.57,3.94,4.02,4.02
69.37,-2.84,-6.82,-2.82,-6.80,6.80,6.97,7.45,3.96,3.98,3.98
70.07,-2.72,-6.66,-2.80,-6.74,6.74,6.86,7.32,4.02,3.94,3.94
70.77,-2.72,-6.64,-2.78,-6.69,6.69,6.74,7.20,3.97,3.91,3.92
71.48,-2.72,-6.60,-2.78,-6.65,6.65,6.63,7.08,3.93,3.87,3.88
72.19,-2.72,-6.57,-2.80,-6.63,6.63,6.52,6.95,3.91,3.83,3.85
72.91,-2.72,-6.52,-2.83,-6.62,6.62,6.41,6.83,3.90,3.80,3.80
73.64,-2.87,-6.64,-2.87,-6.63,6.63,6.30,6.71,3.76,3.76,3.77
74.38,-2.95,-6.68,-2.92,-6.65,6.65,6.19,6.58,3.69,3.72,3.73
75.12,-2.96,-6.65,-2.98,-6.67,6.67,6.08,6.46,3.71,3.69,3.69
75.87,-3.00,-6.65,-3.04,-6.69,6.69,5.98,6.34,3.69,3.65,3.65
76.63,-3.12,-6.73,-3.11,-6.72,6.72,5.88,6.22,3.60,3.62,3.61
77.40,-3.20,-6.78,-3.17,-6.76,6.76,5.77,6.11,3.56,3.58,3.58
78.17,-3.27,-6.82,-3.24,-6.79,6.79,5.67,5.99,3.52,3.55,3.54
78.95,-3.40,-6.92,-3.29,-6.81,6.81,5.57,5.87,3.41,3.52,3.52
79.74,-3.41,-6.91,-3.33,-6.83,6.83,5.47,5.76,3.42,3.50,3.50
80.54,-3.41,-6.88,-3.37,-6.84,6.84,5.38,5.65,3.43,3.47,3.47
81.35,-3.41,-6.85,-3.40,-6.85,6.85,5.28,5.54,3.44,3.45,3.44
82.16,-3.41,-6.84,-3.42,-6.86,6.86,5.18,5.43,3.45,3.44,3.43
82.98,-3.41,-6.83,-3.46,-6.88,6.88,5.09,5.32,3.47,3.42,3.42
83.81,-3.41,-6.82,-3.49,-6.90,6.90,5.00,5.22,3.49,3.41,3.41
84.65,-3.41,-6.80,-3.51,-6.91,6.91,4.91,5.11,3.49,3.40,3.39
85.50,-3.41,-6.80,-3.51,-6.90,6.90,4.82,5.01,3.49,3.39,3.39
86.35,-3.41,-6.79,-3.49,-6.87,6.87,4.73,4.91,3.46,3.38,3.38
87.22,-3.41,-6.78,-3.45,-6.83,6.83,4.64,4.82,3.42,3.38,3.37
88.09,-3.41,-6.77,-3.39,-6.76,6.76,4.55,4.72,3.35,3.37,3.36
88.97,-3.41,-6.78,-3.32,-6.68,6.68,4.46,4.62,3.27,3.36,3.37
89.86,-3.41,-6.77,-3.24,-6.59,6.59,4.38,4.53,3.18,3.35,3.36
90.76,-3.39,-6.73,-3.14,-6.47,6.47,4.30,4.44,3.08,3.34,3.34
91.66,-3.20,-6.53,-3.00,-6.33,6.33,4.21,4.35,3.13,3.32,3.33
92.58,-2.94,-6.24,-2.85,-6.16,6.16,4.13,4.26,3.22,3.31,3.30
93.51,-2.67,-5.97,-2.69,-5.98,5.98,4.05,4.18,3.30,3.29,3.30
94.44,-2.41,-5.68,-2.51,-5.78,5.78,3.97,4.09,3.37,3.26,3.27
95.39,-2.17,-5.42,-2.32,-5.56,5.56,3.89,4.01,3.39,3.24,3.25
96.34,-2.00,-5.20,-2.13,-5.34,5.34,3.82,3.93,3.34,3.21,3.20
97.30,-1.89,-5.06,-1.93,-5.11,5.11,3.74,3.85,3.22,3.18,3.17
98.28,-1.76,-4.90,-1.74,-4.88,4.88,3.66,3.77,3.12,3.14,3.14
99.26,-1.56,-4.66,-1.54,-4.65,4.65,3.59,3.69,3.09,3.10,3.10
100.25,-1.30,-4.36,-1.37,-4.43,4.43,3.51,3.62,3.13,3.06,3.06
101.25,-1.13,-4.15,-1.22,-4.23,4.23,3.44,3.55,3.10,3.02,3.02
102.27,-1.10,-4.07,-1.08,-4.05,4.05,3.37,3.47,2.94,2.96,2.97
103.29,-0.98,-3.89,-0.96,-3.87,3.87,3.30,3.40,2.89,2.91,2.91
104.32,-0.85,-3.71,-0.86,-3.71,3.71,3.23,3.33,2.86,2.85,2.86
105.37,-0.73,-3.54,-0.76,-3.55,3.55,3.16,3.26,2.82,2.79,2.80
106.42,-0.67,-3.41,-0.67,-3.39,3.39,3.09,3.19,2.71,2.72,2.74
107.48,-0.57,-3.23,-0.57,-3.22,3.22,3.02,3.13,2.65,2.65,2.66
108.56,-0.45,-3.02,-0.49,-3.06,3.06,2.96,3.06,2.61,2.57,2.57
109.64,-0.44,-2.94,-0.41,-2.90,2.90,2.89,3.00,2.46,2.49,2.49
110.74,-0.44,-2.86,-0.35,-2.76,2.76,2.83,2.93,2.32,2.41,2.42
111.85,-0.25,-2.59,-0.29,-2.62,2.62,2.76,2.87,2.37,2.33,2.34
112.97,-0.22,-2.46,-0.23,-2.48,2.48,2.70,2.81,2.26,2.25,2.24
114.10,-0.22,-2.39,-0.18,-2.34,2.34,2.63,2.74,2.12,2.16,2.17
115.24,-0.19,-2.27,-0.14,-2.23,2.23,2.57,2.68,2.04,2.09,2.08
116.39,-0.06,-2.06,-0.11,-2.12,2.12,2.51,2.62,2.06,2.01,1.99
117.55,0.01,-1.91,-0.08,-2.02,2.02,2.45,2.56,2.03,1.94,1.92
118.73,0.01,-1.84,-0.05,-1.92,1.92,2.39,2.50,1.92,1.87,1.84
119.92,0.01,-1.78,-0.02,-1.82,1.82,2.33,2.45,1.83,1.80,1.79
121.12,0.01,-1.72,0.01,-1.73,1.73,2.27,2.39,1.74,1.74,1.73
122.33,0.01,-1.66,0.04,-1.65,1.65,2.21,2.33,1.66,1.69,1.67
123.55,0.01,-1.63,0.07,-1.57,1.57,2.16,2.27,1.58,1.63,1.64
124.79,0.01,-1.58,0.08,-1.50,1.50,2.10,2.21,1.51,1.59,1.59
126.03,0.01,-1.54,0.11,-1.43,1.43,2.04,2.16,1.44,1.54,1.55
127.29,0.08,-1.43,0.13,-1.36,1.36,1.99,2.10,1.44,1.50,1.51
128.57,0.19,-1.27,0.15,-1.30,1.30,1.93,2.04,1.49,1.45,1.46
129.85,0.24,-1.18,0.16,-1.25,1.25,1.88,1.99,1.49,1.41,1.42
131.15,0.24,-1.14,0.18,-1.19,1.19,1.82,1.93,1.43,1.37,1.38
132.46,0.24,-1.09,0.20,-1.13,1.13,1.77,1.88,1.37,1.33,1.33
133.79,0.24,-1.06,0.22,-1.07,1.07,1.72,1.82,1.31,1.29,1.29
135.12,0.24,-1.00,0.23,-1.01,1.01,1.66,1.77,1.25,1.25,1.24
136.48,0.24,-0.96,0.24,-0.96,0.96,1.61,1.71,1.20,1.20,1.20
137.84,0.24,-0.92,0.26,-0.90,0.90,1.56,1.66,1.14,1.16,1.16
139.22,0.24,-0.86,0.27,-0.84,0.84,1.51,1.60,1.08,1.11,1.10
140.61,0.24,-0.81,0.27,-0.79,0.79,1.46,1.55,1.03,1.07,1.04
142.02,0.24,-0.77,0.27,-0.74,0.74,1.41,1.49,0.98,1.01,1.01
143.44,0.24,-0.72,0.27,-0.69,0.69,1.36,1.44,0.93,0.96,0.96
144.87,0.24,-0.67,0.28,-0.62,0.62,1.31,1.38,0.86,0.90,0.91
146.32,0.24,-0.62,0.29,-0.54,0.54,1.26,1.33,0.78,0.84,0.85
147.78,0.24,-0.57,0.29,-0.48,0.48,1.21,1.27,0.72,0.77,0.81
149.26,0.24,-0.49,0.26,-0.44,0.44,1.17,1.22,0.68,0.70,0.73
150.75,0.24,-0.41,0.19,-0.44,0.44,1.12,1.16,0.68,0.63,0.65
152.26,0.23,-0.34,0.09,-0.46,0.46,1.07,1.11,0.68,0.55,0.57
153.78,0.09,-0.40,-0.02,-0.49,0.49,1.02,1.05,0.58,0.47,0.49
155.32,0.02,-0.37,-0.15,-0.55,0.55,0.98,1.00,0.57,0.39,0.39
156.88,-0.01,-0.32,-0.29,-0.60,0.60,0.93,0.94,0.59,0.31,0.30
158.44,-0.16,-0.39,-0.43,-0.67,0.67,0.88,0.89,0.50,0.24,0.22
160.03,-0.32,-0.47,-0.57,-0.73,0.73,0.84,0.83,0.41,0.16,0.14
161.63,-0.71,-0.79,-0.69,-0.78,0.78,0.79,0.78,0.07,0.10,0.08
163.24,-1.09,-1.11,-0.78,-0.82,0.82,0.75,0.72,-0.27,0.04,0.02
164.88,-1.33,-1.30,-0.85,-0.84,0.84,0.70,0.67,-0.49,-0.01,-0.03
166.53,-1.32,-1.25,-0.90,-0.85,0.85,0.66,0.61,-0.47,-0.05,-0.07
168.19,-1.20,-1.09,-0.93,-0.85,0.85,0.61,0.55,-0.35,-0.08,-0.11
169.87,-1.08,-0.95,-0.93,-0.82,0.82,0.57,0.50,-0.26,-0.11,-0.13
171.57,-0.94,-0.80,-0.90,-0.77,0.77,0.52,0.44,-0.17,-0.13,-0.15
173.29,-0.76,-0.61,-0.84,-0.70,0.70,0.48,0.39,-0.06,-0.14,-0.15
175.02,-0.67,-0.53,-0.76,-0.61,0.61,0.44,0.33,-0.06,-0.15,-0.14
176.77,-0.48,-0.33,-0.65,-0.50,0.50,0.39,0.27,0.02,-0.16,-0.15
178.54,-0.28,-0.13,-0.53,-0.37,0.37,0.35,0.21,0.09,-0.16,-0.15
180.32,-0.22,-0.07,-0.40,-0.23,0.23,0.31,0.16,0.01,-0.17,-0.15
182.13,-0.22,-0.08,-0.28,-0.11,0.11,0.26,0.10,-0.11,-0.17,-0.15
183.95,-0.22,-0.07,-0.19,-0.01,0.01,0.22,0.04,-0.21,-0.18,-0.15
185.79,-0.22,-0.05,-0.13,0.06,-0.06,0.18,-0.02,-0.28,-0.19,-0.17
187.65,-0.05,0.14,-0.09,0.11,-0.11,0.13,-0.08,-0.17,-0.20,-0.19
189.52,0.01,0.23,-0.05,0.17,-0.17,0.09,-0.14,-0.16,-0.22,-0.22
191.42,0.01,0.25,-0.02,0.22,-0.22,0.05,-0.20,-0.21,-0.24,-0.24
193.33,0.01,0.27,0.01,0.27,-0.27,0.01,-0.26,-0.26,-0.26,-0.27
195.27,0.01,0.29,0.02,0.30,-0.30,-0.04,-0.32,-0.29,-0.28,-0.28
197.22,0.01,0.31,0.04,0.34,-0.34,-0.08,-0.38,-0.33,-0.30,-0.30
199.19,0.01,0.35,0.06,0.38,-0.38,-0.12,-0.44,-0.37,-0.33,-0.34
201.18,0.01,0.36,0.09,0.44,-0.44,-0.16,-0.50,-0.43,-0.35,-0.35
203.19,0.06,0.43,0.12,0.49,-0.49,-0.20,-0.56,-0.44,-0.37,-0.37
205.23,0.18,0.58,0.16,0.55,-0.55,-0.25,-0.61,-0.37,-0.39,-0.40
207.28,0.24,0.65,0.19,0.61,-0.61,-0.29,-0.67,-0.37,-0.42,-0.41
209.35,0.24,0.67,0.22,0.65,-0.65,-0.33,-0.73,-0.41,-0.43,-0.44
211.44,0.24,0.70,0.26,0.71,-0.71,-0.37,-0.79,-0.47,-0.45,-0.46
213.56,0.24,0.71,0.29,0.76,-0.76,-0.41,-0.85,-0.53,-0.47,-0.47
215.69,0.24,0.71,0.33,0.82,-0.82,-0.46,-0.90,-0.58,-0.49,-0.48
217.85,0.45,0.95,0.37,0.87,-0.87,-0.50,-0.96,-0.42,-0.50,-0.50
220.03,0.47,0.98,0.40,0.92,-0.92,-0.54,-1.01,-0.45,-0.52,-0.52
222.23,0.47,1.01,0.42,0.95,-0.95,-0.58,-1.06,-0.49,-0.53,-0.54
224.45,0.47,1.01,0.44,0.99,-0.99,-0.62,-1.11,-0.52,-0.54,-0.55
226.70,0.47,1.02,0.46,1.01,-1.01,-0.66,-1.16,-0.54,-0.55,-0.55
228.96,0.47,1.03,0.46,1.03,-1.03,-0.70,-1.20,-0.56,-0.56,-0.56
231.25,0.47,1.03,0.47,1.04,-1.04,-0.75,-1.25,-0.58,-0.57,-0.56
233.57,0.47,1.04,0.48,1.06,-1.06,-0.79,-1.29,-0.59,-0.58,-0.58
235.90,0.47,1.06,0.49,1.07,-1.07,-0.83,-1.33,-0.60,-0.58,-0.59
238.26,0.47,1.06,0.49,1.07,-1.07,-0.87,-1.36,-0.60,-0.58,-0.59
240.64,0.47,1.06,0.48,1.07,-1.07,-0.91,-1.39,-0.60,-0.58,-0.59
243.05,0.47,1.05,0.47,1.05,-1.05,-0.95,-1.42,-0.58,-0.58,-0.58
245.48,0.47,1.05,0.47,1.05,-1.05,-0.99,-1.45,-0.58,-0.58,-0.58
247.93,0.47,1.04,0.47,1.05,-1.05,-1.03,-1.47,-0.58,-0.58,-0.57
250.41,0.47,1.05,0.47,1.04,-1.04,-1.07,-1.50,-0.58,-0.58,-0.58
252.92,0.47,1.04,0.47,1.04,-1.04,-1.11,-1.51,-0.57,-0.57,-0.57
255.45,0.47,1.02,0.47,1.03,-1.03,-1.15,-1.53,-0.56,-0.56,-0.55
258.00,0.47,1.02,0.46,1.01,-1.01,-1.19,-1.54,-0.54,-0.55,-0.55
260.58,0.47,1.01,0.45,0.99,-0.99,-1.23,-1.55,-0.53,-0.54,-0.55
263.19,0.47,1.00,0.45,0.98,-0.98,-1.27,-1.55,-0.51,-0.53,-0.53
265.82,0.47,1.00,0.44,0.96,-0.96,-1.30,-1.55,-0.49,-0.52,-0.53
268.48,0.47,0.98,0.44,0.94,-0.94,-1.34,-1.55,-0.48,-0.51,-0.51
271.16,0.47,0.96,0.45,0.93,-0.93,-1.38,-1.55,-0.47,-0.49,-0.49
273.87,0.47,0.95,0.46,0.93,-0.93,-1.42,-1.55,-0.46,-0.47,-0.48
276.61,0.47,0.92,0.48,0.93,-0.93,-1.45,-1.54,-0.46,-0.45,-0.45
279.38,0.47,0.90,0.52,0.95,-0.95,-1.49,-1.53,-0.48,-0.43,-0.43
282.17,0.47,0.88,0.57,0.98,-0.98,-1.53,-1.52,-0.51,-0.41,-0.41
284.99,0.52,0.91,0.63,1.02,-1.02,-1.56,-1.51,-0.50,-0.38,-0.39
287.84,0.69,1.05,0.71,1.06,-1.06,-1.60,-1.50,-0.37,-0.36,-0.36
290.72,0.70,1.03,0.78,1.11,-1.11,-1.63,-1.49,-0.41,-0.33,-0.33
293.63,0.81,1.11,0.86,1.16,-1.16,-1.66,-1.47,-0.35,-0.30,-0.30
296.57,0.91,1.19,0.92,1.20,-1.20,-1.70,-1.46,-0.29,-0.28,-0.28
299.53,1.09,1.34,0.97,1.22,-1.22,-1.73,-1.44,-0.13,-0.26,-0.25
302.53,1.15,1.39,1.01,1.24,-1.24,-1.76,-1.43,-0.09,-0.23,-0.24
305.55,1.35,1.55,1.07,1.28,-1.28,-1.79,-1.41,0.07,-0.21,-0.20
308.61,1.38,1.56,1.16,1.35,-1.35,-1.82,-1.40,0.02,-0.20,-0.19
311.69,1.38,1.55,1.27,1.46,-1.46,-1.84,-1.38,-0.08,-0.18,-0.17
314.81,1.38,1.52,1.41,1.58,-1.58,-1.87,-1.37,-0.20,-0.17,-0.14
317.96,1.38,1.53,1.56,1.72,-1.72,-1.90,-1.36,-0.34,-0.16,-0.15
321.14,1.38,1.53,1.71,1.86,-1.86,-1.92,-1.34,-0.48,-0.15,-0.15
324.35,1.38,1.52,1.86,2.00,-2.00,-1.95,-1.33,-0.62,-0.14,-0.14
327.59,1.46,1.60,2.01,2.14,-2.14,-1.97,-1.32,-0.68,-0.13,-0.14
330.87,1.88,2.01,2.14,2.27,-2.27,-1.99,-1.31,-0.39,-0.12,-0.13
334.18,2.35,2.47,2.26,2.38,-2.38,-2.01,-1.30,-0.03,-0.11,-0.12
337.52,2.80,2.92,2.38,2.48,-2.48,-2.03,-1.29,0.32,-0.10,-0.12
340.90,3.11,3.20,2.47,2.56,-2.56,-2.04,-1.29,0.54,-0.09,-0.09
344.30,3.02,3.10,2.57,2.64,-2.64,-2.06,-1.28,0.37,-0.08,-0.08
347.75,2.91,2.97,2.64,2.70,-2.70,-2.07,-1.28,0.21,-0.06,-0.07
351.23,2.79,2.83,2.69,2.73,-2.73,-2.08,-1.27,0.06,-0.04,-0.04
354.74,2.65,2.67,2.70,2.72,-2.72,-2.09,-1.27,-0.07,-0.02,-0.02
358.28,2.54,2.53,2.69,2.68,-2.68,-2.10,-1.27,-0.14,0.01,0.01
361.87,2.52,2.49,2.64,2.61,-2.61,-2.11,-1.27,-0.09,0.03,0.02
365.49,2.36,2.31,2.56,2.51,-2.51,-2.11,-1.27,-0.15,0.05,0.05
369.14,2.30,2.23,2.45,2.38,-2.38,-2.11,-1.27,-0.08,0.07,0.07
372.83,2.29,2.19,2.34,2.25,-2.25,-2.11,-1.27,0.04,0.09,0.10
376.56,2.29,2.17,2.24,2.13,-2.13,-2.11,-1.28,0.16,0.11,0.12
380.33,2.20,2.06,2.17,2.04,-2.04,-2.11,-1.28,0.16,0.13,0.14
384.13,2.09,1.93,2.13,1.99,-1.99,-2.10,-1.29,0.10,0.15,0.16
387.97,2.06,1.89,2.11,1.94,-1.94,-2.10,-1.29,0.12,0.16,0.17
391.85,2.06,1.88,2.08,1.91,-1.91,-2.09,-1.30,0.15,0.18,0.18
395.77,2.06,1.87,2.07,1.88,-1.88,-2.07,-1.31,0.18,0.19,0.19
399.73,2.06,1.86,2.06,1.86,-1.86,-2.06,-1.32,0.20,0.20,0.20
403.72,2.06,1.85,2.05,1.84,-1.84,-2.04,-1.33,0.22,0.21,0.20
407.76,2.06,1.85,2.05,1.84,-1.84,-2.03,-1.34,0.22,0.21,0.21
411.84,2.06,1.84,2.04,1.83,-1.83,-2.00,-1.35,0.23,0.22,0.22
415.96,2.06,1.83,2.05,1.83,-1.83,-1.98,-1.36,0.23,0.22,0.23
420.12,2.06,1.83,2.05,1.83,-1.83,-1.96,-1.37,0.23,0.22,0.23
424.32,2.06,1.83,2.07,1.84,-1.84,-1.93,-1.38,0.22,0.22,0.23
428.56,2.06,1.83,2.07,1.85,-1.85,-1.90,-1.39,0.21,0.23,0.23
432.85,2.06,1.83,2.07,1.84,-1.84,-1.87,-1.39,0.22,0.23,0.22
437.18,2.06,1.83,2.06,1.82,-1.82,-1.83,-1.40,0.23,0.24,0.23
441.55,2.06,1.82,2.05,1.81,-1.81,-1.80,-1.41,0.25,0.24,0.24
445.96,2.06,1.82,2.05,1.80,-1.80,-1.76,-1.42,0.26,0.25,0.24
450.42,2.06,1.81,2.03,1.78,-1.78,-1.72,-1.42,0.28,0.25,0.25
454.93,2.06,1.80,2.01,1.75,-1.75,-1.68,-1.42,0.31,0.26,0.26
459.48,2.06,1.79,1.99,1.71,-1.71,-1.63,-1.42,0.35,0.28,0.27
