frequency,raw,error,smoothed,error_smoothed,equalization,parametric_eq,fixed_band_eq,equalized_raw,equalized_smoothed,target
20.00,7.16,-2.48,7.16,-2.48,2.48,2.69,1.21,9.64,9.64,9.64
20.20,7.15,-2.48,7.16,-2.48,2.48,2.69,1.25,9.63,9.63,9.63
20.40,7.14,-2.48,7.15,-2.47,2.47,2.68,1.29,9.62,9.62,9.62
20.61,7.14,-2.47,7.14,-2.47,2.47,2.68,1.33,9.61,9.61,9.61
20.81,7.13,-2.46,7.13,-2.46,2.47,2.68,1.37,9.60,9.60,9.59
21.02,7.12,-2.46,7.12,-2.46,2.47,2.67,1.41,9.59,9.59,9.58
21.23,7.11,-2.46,7.11,-2.46,2.46,2.67,1.45,9.58,9.58,9.57
21.44,7.10,-2.48,7.10,-2.47,2.47,2.66,1.49,9.57,9.57,9.58
21.66,7.09,-2.47,7.09,-2.47,2.47,2.66,1.54,9.56,9.56,9.56
21.87,7.08,-2.48,7.08,-2.47,2.47,2.66,1.59,9.55,9.55,9.56
22.09,7.07,-2.47,7.07,-2.47,2.47,2.65,1.63,9.55,9.55,9.54
22.31,7.06,-2.47,7.06,-2.47,2.48,2.65,1.68,9.54,9.54,9.53
22.54,7.04,-2.48,7.05,-2.48,2.48,2.64,1.73,9.52,9.53,9.52
22.76,7.03,-2.49,7.03,-2.48,2.49,2.64,1.78,9.52,9.52,9.52
22.99,7.02,-2.49,7.02,-2.49,2.49,2.63,1.84,9.52,9.51,9.51
23.22,7.00,-2.50,7.01,-2.50,2.50,2.63,1.89,9.50,9.51,9.50
23.45,6.99,-2.52,6.99,-2.51,2.51,2.62,1.94,9.51,9.51,9.51
23.69,6.98,-2.52,6.98,-2.52,2.52,2.62,2.00,9.51,9.50,9.50
23.92,6.96,-2.53,6.97,-2.53,2.53,2.61,2.06,9.50,9.50,9.49
24.16,6.95,-2.55,6.95,-2.55,2.55,2.61,2.12,9.50,9.50,9.50
24.40,6.93,-2.57,6.94,-2.56,2.56,2.60,2.18,9.49,9.49,9.50
24.65,6.92,-2.57,6.92,-2.57,2.57,2.60,2.24,9.49,9.49,9.49
24.89,6.91,-2.58,6.91,-2.58,2.58,2.59,2.30,9.49,9.49,9.49
25.14,6.89,-2.59,6.90,-2.59,2.59,2.59,2.36,9.48,9.49,9.48
25.39,6.88,-2.60,6.88,-2.60,2.60,2.58,2.42,9.49,9.49,9.48
25.65,6.87,-2.61,6.87,-2.61,2.61,2.57,2.48,9.49,9.48,9.48
25.91,6.86,-2.62,6.86,-2.62,2.62,2.57,2.54,9.48,9.48,9.48
26.16,6.85,-2.64,6.85,-2.63,2.63,2.56,2.60,9.48,9.48,9.49
26.43,6.84,-2.64,6.84,-2.64,2.64,2.55,2.66,9.48,9.48,9.48
26.69,6.83,-2.65,6.84,-2.65,2.65,2.55,2.72,9.48,9.48,9.48
26.96,6.83,-2.65,6.83,-2.65,2.65,2.54,2.78,9.49,9.48,9.48
27.23,6.82,-2.66,6.83,-2.66,2.66,2.53,2.83,9.48,9.49,9.48
27.50,6.82,-2.66,6.82,-2.66,2.66,2.53,2.89,9.49,9.49,9.48
27.77,6.82,-2.67,6.82,-2.67,2.67,2.52,2.94,9.49,9.49,9.49
28.05,6.81,-2.67,6.82,-2.67,2.67,2.51,2.99,9.49,9.49,9.48
28.33,6.81,-2.68,6.81,-2.68,2.67,2.51,3.04,9.49,9.49,9.49
28.62,6.81,-2.68,6.82,-2.68,2.68,2.50,3.08,9.49,9.49,9.49
28.90,6.82,-2.68,6.82,-2.68,2.68,2.49,3.12,9.50,9.50,9.50
29.19,6.82,-2.68,6.82,-2.68,2.67,2.48,3.16,9.50,9.50,9.50
29.48,6.82,-2.67,6.82,-2.67,2.67,2.48,3.19,9.50,9.50,9.49
29.78,6.82,-2.67,6.82,-2.67,2.67,2.47,3.22,9.49,9.49,9.49
30.08,6.82,-2.67,6.82,-2.66,2.66,2.46,3.24,9.49,9.49,9.49
30.38,6.82,-2.65,6.82,-2.66,2.66,2.45,3.27,9.48,9.48,9.47
30.68,6.82,-2.65,6.82,-2.65,2.65,2.44,3.28,9.48,9.48,9.47
30.99,6.82,-2.65,6.82,-2.65,2.65,2.43,3.29,9.47,9.47,9.47
31.30,6.82,-2.65,6.82,-2.64,2.64,2.43,3.29,9.46,9.46,9.47
31.61,6.82,-2.64,6.82,-2.64,2.63,2.42,3.29,9.46,9.46,9.46
31.93,6.82,-2.62,6.82,-2.63,2.63,2.41,3.28,9.45,9.45,9.44
32.24,6.82,-2.63,6.82,-2.62,2.62,2.40,3.27,9.45,9.45,9.45
32.57,6.82,-2.61,6.82,-2.61,2.62,2.39,3.26,9.44,9.44,9.43
32.89,6.82,-2.61,6.82,-2.61,2.61,2.38,3.24,9.43,9.43,9.43
33.22,6.82,-2.60,6.82,-2.60,2.60,2.37,3.21,9.42,9.42,9.42
33.55,6.82,-2.60,6.82,-2.59,2.59,2.36,3.18,9.42,9.42,9.42
33.89,6.82,-2.59,6.82,-2.59,2.58,2.35,3.15,9.41,9.41,9.41
34.23,6.82,-2.57,6.82,-2.57,2.58,2.34,3.11,9.40,9.40,9.39
34.57,6.82,-2.57,6.82,-2.57,2.57,2.33,3.07,9.39,9.39,9.39
34.92,6.82,-2.55,6.82,-2.56,2.56,2.32,3.03,9.39,9.39,9.37
35.27,6.82,-2.57,6.82,-2.55,2.55,2.30,2.98,9.38,9.38,9.39
35.62,6.82,-2.54,6.82,-2.55,2.54,2.29,2.93,9.37,9.37,9.36
35.97,6.82,-2.54,6.82,-2.54,2.53,2.28,2.88,9.35,9.35,9.36
36.33,6.82,-2.52,6.82,-2.52,2.52,2.27,2.83,9.34,9.34,9.34
36.70,6.82,-2.50,6.82,-2.50,2.50,2.26,2.78,9.32,9.32,9.32
37.06,6.82,-2.48,6.82,-2.48,2.48,2.24,2.72,9.31,9.31,9.30
37.43,6.82,-2.46,6.82,-2.46,2.46,2.23,2.67,9.29,9.29,9.28
37.81,6.82,-2.45,6.82,-2.44,2.44,2.22,2.61,9.27,9.27,9.27
38.19,6.82,-2.42,6.82,-2.42,2.42,2.21,2.56,9.25,9.25,9.24
38.57,6.82,-2.40,6.82,-2.40,2.40,2.19,2.50,9.22,9.22,9.22
38.95,6.82,-2.39,6.82,-2.38,2.38,2.18,2.45,9.20,9.20,9.21
39.34,6.82,-2.36,6.82,-2.36,2.36,2.16,2.39,9.18,9.18,9.18
39.74,6.82,-2.33,6.82,-2.33,2.33,2.15,2.34,9.16,9.16,9.15
40.14,6.82,-2.31,6.82,-2.31,2.31,2.14,2.29,9.14,9.14,9.13
40.54,6.82,-2.29,6.82,-2.29,2.29,2.12,2.23,9.11,9.11,9.11
40.94,6.82,-2.26,6.82,-2.26,2.27,2.11,2.18,9.09,9.09,9.08
41.35,6.82,-2.25,6.82,-2.24,2.24,2.09,2.13,9.07,9.07,9.07
41.76,6.82,-2.22,6.82,-2.22,2.22,2.07,2.09,9.05,9.05,9.04
42.18,6.82,-2.21,6.82,-2.20,2.20,2.06,2.04,9.02,9.02,9.03
42.60,6.82,-2.18,6.82,-2.18,2.18,2.04,1.99,9.00,9.00,9.00
43.03,6.82,-2.16,6.82,-2.15,2.15,2.02,1.95,8.98,8.98,8.98
43.46,6.82,-2.12,6.82,-2.12,2.13,2.01,1.91,8.95,8.95,8.94
43.90,6.82,-2.10,6.82,-2.10,2.10,1.99,1.87,8.93,8.93,8.92
44.33,6.82,-2.07,6.82,-2.07,2.07,1.97,1.83,8.90,8.90,8.89
44.78,6.82,-2.05,6.82,-2.05,2.05,1.95,1.79,8.87,8.87,8.87
45.23,6.82,-2.03,6.82,-2.02,2.01,1.94,1.75,8.84,8.84,8.85
45.68,6.82,-1.98,6.82,-1.99,1.98,1.92,1.72,8.81,8.81,8.80
46.13,6.82,-1.95,6.82,-1.95,1.95,1.90,1.68,8.77,8.77,8.77
46.60,6.82,-1.91,6.82,-1.91,1.91,1.88,1.65,8.74,8.74,8.73
47.06,6.82,-1.88,6.82,-1.88,1.87,1.86,1.62,8.70,8.70,8.70
47.53,6.82,-1.84,6.82,-1.84,1.83,1.84,1.59,8.65,8.65,8.66
48.01,6.82,-1.79,6.82,-1.79,1.78,1.82,1.56,8.61,8.61,8.61
48.49,6.82,-1.75,6.83,-1.74,1.74,1.80,1.53,8.56,8.57,8.57
48.97,6.83,-1.69,6.83,-1.69,1.69,1.77,1.51,8.52,8.52,8.52
49.46,6.84,-1.65,6.84,-1.64,1.65,1.75,1.48,8.49,8.49,8.49
49.96,6.84,-1.59,6.84,-1.60,1.60,1.73,1.46,8.45,8.45,8.43
50.46,6.84,-1.56,6.84,-1.56,1.57,1.71,1.44,8.41,8.41,8.40
50.96,6.83,-1.53,6.84,-1.52,1.53,1.68,1.41,8.37,8.37,8.36
51.47,6.82,-1.50,6.82,-1.50,1.50,1.66,1.39,8.33,8.33,8.32
51.99,6.80,-1.47,6.80,-1.48,1.48,1.63,1.37,8.28,8.28,8.27
52.51,6.77,-1.47,6.78,-1.46,1.46,1.61,1.35,8.24,8.24,8.24
53.03,6.75,-1.46,6.75,-1.45,1.45,1.58,1.33,8.20,8.20,8.21
53.56,6.72,-1.44,6.72,-1.44,1.43,1.56,1.31,8.16,8.16,8.16
54.10,6.69,-1.42,6.69,-1.42,1.42,1.53,1.29,8.12,8.12,8.11
54.64,6.66,-1.41,6.66,-1.41,1.41,1.51,1.27,8.08,8.08,8.07
55.18,6.63,-1.40,6.63,-1.40,1.40,1.48,1.25,8.04,8.04,8.03
55.74,6.60,-1.38,6.60,-1.39,1.39,1.45,1.23,8.00,7.99,7.98
56.29,6.57,-1.39,6.57,-1.38,1.38,1.42,1.21,7.96,7.96,7.96
56.86,6.54,-1.38,6.55,-1.37,1.37,1.39,1.19,7.92,7.92,7.92
57.42,6.52,-1.35,6.52,-1.35,1.36,1.36,1.17,7.88,7.88,7.87
58.00,6.50,-1.33,6.50,-1.34,1.34,1.33,1.15,7.84,7.84,7.83
58.58,6.48,-1.32,6.49,-1.32,1.31,1.30,1.13,7.79,7.80,7.80
59.16,6.47,-1.30,6.48,-1.29,1.28,1.27,1.10,7.75,7.75,7.77
59.76,6.47,-1.25,6.47,-1.25,1.23,1.24,1.08,7.71,7.70,7.72
60.35,6.47,-1.20,6.48,-1.19,1.18,1.21,1.05,7.66,7.66,7.67
60.96,6.48,-1.13,6.48,-1.13,1.13,1.17,1.02,7.61,7.61,7.61
61.57,6.49,-1.06,6.49,-1.06,1.07,1.14,0.99,7.57,7.56,7.55
62.18,6.49,-1.00,6.49,-1.00,1.01,1.11,0.96,7.51,7.51,7.49
62.80,6.49,-0.94,6.49,-0.94,0.95,1.07,0.93,7.45,7.45,7.43
63.43,6.49,-0.89,6.49,-0.89,0.89,1.03,0.90,7.39,7.39,7.38
64.07,6.49,-0.84,6.49,-0.84,0.84,1.00,0.86,7.33,7.33,7.33
64.71,6.49,-0.79,6.49,-0.78,0.78,0.96,0.82,7.28,7.28,7.28
65.35,6.49,-0.73,6.49,-0.73,0.73,0.92,0.78,7.23,7.23,7.22
66.01,6.49,-0.68,6.49,-0.68,0.68,0.89,0.74,7.17,7.17,7.17
66.67,6.49,-0.64,6.49,-0.63,0.63,0.85,0.70,7.12,7.12,7.13
67.33,6.49,-0.57,6.49,-0.58,0.58,0.81,0.66,7.07,7.07,7.06
68.01,6.49,-0.52,6.49,-0.52,0.52,0.77,0.61,7.01,7.01,7.01
68.69,6.49,-0.47,6.50,-0.47,0.46,0.73,0.57,6.95,6.96,6.96
69.37,6.50,-0.41,6.50,-0.41,0.40,0.68,0.52,6.90,6.90,6.91
70.07,6.50,-0.35,6.51,-0.34,0.34,0.64,0.47,6.84,6.84,6.85
70.77,6.51,-0.27,6.51,-0.28,0.28,0.60,0.42,6.79,6.79,6.78
71.48,6.51,-0.22,6.51,-0.21,0.22,0.55,0.37,6.73,6.73,6.73
72.19,6.51,-0.16,6.52,-0.15,0.16,0.51,0.32,6.67,6.67,6.67
72.91,6.51,-0.09,6.51,-0.10,0.10,0.46,0.27,6.62,6.61,6.60
73.64,6.50,-0.05,6.51,-0.04,0.05,0.42,0.21,6.56,6.56,6.55
74.38,6.49,0.00,6.49,-0.00,0.01,0.37,0.16,6.50,6.50,6.49
75.12,6.47,0.03,6.47,0.03,-0.03,0.32,0.10,6.45,6.44,6.44
75.87,6.44,0.05,6.45,0.06,-0.06,0.28,0.05,6.38,6.39,6.39
76.63,6.42,0.09,6.42,0.08,-0.08,0.23,-0.01,6.34,6.34,6.33
77.40,6.39,0.10,6.39,0.11,-0.11,0.18,-0.07,6.29,6.29,6.29
78.17,6.36,0.13,6.36,0.13,-0.12,0.13,-0.13,6.24,6.24,6.23
78.95,6.33,0.14,6.33,0.14,-0.14,0.08,-0.19,6.19,6.19,6.19
79.74,6.29,0.15,6.30,0.16,-0.16,0.03,-0.25,6.14,6.14,6.14
80.54,6.26,0.17,6.27,0.17,-0.18,-0.03,-0.31,6.09,6.09,6.09
81.35,6.24,0.21,6.24,0.20,-0.20,-0.08,-0.37,6.05,6.04,6.03
82.16,6.21,0.21,6.22,0.22,-0.22,-0.13,-0.43,5.99,5.99,6.00
82.98,6.19,0.25,6.19,0.25,-0.25,-0.19,-0.49,5.94,5.94,5.94
83.81,6.17,0.28,6.17,0.28,-0.29,-0.24,-0.56,5.88,5.88,5.89
84.65,6.16,0.33,6.16,0.33,-0.33,-0.30,-0.62,5.83,5.83,5.83
85.50,6.15,0.38,6.15,0.38,-0.38,-0.36,-0.69,5.77,5.77,5.77
86.35,6.15,0.43,6.15,0.43,-0.43,-0.41,-0.75,5.72,5.72,5.72
87.22,6.15,0.48,6.16,0.49,-0.49,-0.47,-0.82,5.66,5.67,5.67
88.09,6.16,0.55,6.16,0.55,-0.55,-0.53,-0.88,5.61,5.61,5.61
88.97,6.17,0.62,6.17,0.61,-0.61,-0.59,-0.95,5.56,5.56,5.55
89.86,6.17,0.67,6.17,0.68,-0.67,-0.64,-1.02,5.50,5.50,5.50
90.76,6.17,0.73,6.17,0.74,-0.73,-0.70,-1.09,5.44,5.45,5.44
91.66,6.17,0.80,6.17,0.79,-0.79,-0.76,-1.16,5.38,5.38,5.37
92.58,6.17,0.85,6.17,0.85,-0.85,-0.82,-1.23,5.32,5.32,5.32
93.51,6.17,0.90,6.17,0.91,-0.91,-0.89,-1.30,5.26,5.26,5.27
94.44,6.17,0.96,6.17,0.96,-0.97,-0.95,-1.37,5.20,5.20,5.21
95.39,6.17,1.03,6.17,1.03,-1.04,-1.01,-1.44,5.14,5.14,5.14
96.34,6.17,1.10,6.17,1.10,-1.10,-1.07,-1.51,5.08,5.08,5.07
97.30,6.17,1.16,6.17,1.17,-1.16,-1.13,-1.58,5.01,5.01,5.01
98.28,6.17,1.23,6.17,1.23,-1.22,-1.20,-1.66,4.95,4.95,4.94
99.26,6.17,1.29,6.17,1.29,-1.29,-1.26,-1.73,4.89,4.89,4.88
100.25,6.17,1.35,6.17,1.35,-1.35,-1.32,-1.81,4.83,4.83,4.82
101.25,6.17,1.40,6.17,1.41,-1.41,-1.39,-1.88,4.77,4.77,4.77
102.27,6.17,1.46,6.17,1.46,-1.46,-1.45,-1.95,4.71,4.71,4.71
103.29,6.17,1.52,6.17,1.52,-1.52,-1.51,-2.03,4.66,4.66,4.65
104.32,6.17,1.57,6.17,1.57,-1.57,-1.58,-2.10,4.60,4.60,4.60
105.37,6.17,1.63,6.17,1.63,-1.63,-1.64,-2.17,4.54,4.54,4.54
106.42,6.17,1.68,6.17,1.68,-1.68,-1.71,-2.25,4.49,4.49,4.49
107.48,6.17,1.74,6.17,1.74,-1.74,-1.77,-2.32,4.43,4.43,4.43
108.56,6.17,1.79,6.17,1.79,-1.79,-1.83,-2.39,4.38,4.38,4.38
109.64,6.17,1.85,6.17,1.85,-1.85,-1.90,-2.46,4.32,4.32,4.32
110.74,6.17,1.91,6.17,1.91,-1.91,-1.96,-2.52,4.26,4.26,4.26
111.85,6.17,1.97,6.17,1.97,-1.97,-2.03,-2.59,4.20,4.20,4.20
112.97,6.17,2.02,6.17,2.03,-2.03,-2.09,-2.66,4.14,4.14,4.15
114.10,6.17,2.08,6.17,2.09,-2.09,-2.15,-2.72,4.08,4.08,4.09
115.24,6.17,2.16,6.17,2.15,-2.15,-2.22,-2.78,4.02,4.02,4.01
116.39,6.17,2.22,6.17,2.22,-2.21,-2.28,-2.84,3.96,3.96,3.95
117.55,6.17,2.28,6.17,2.28,-2.27,-2.34,-2.89,3.90,3.90,3.89
118.73,6.17,2.34,6.17,2.33,-2.33,-2.41,-2.94,3.84,3.84,3.83
119.92,6.17,2.38,6.17,2.39,-2.38,-2.47,-2.99,3.79,3.79,3.79
121.12,6.17,2.43,6.17,2.44,-2.44,-2.53,-3.03,3.74,3.74,3.74
122.33,6.17,2.49,6.17,2.49,-2.49,-2.59,-3.07,3.68,3.68,3.68
123.55,6.17,2.54,6.17,2.54,-2.54,-2.65,-3.11,3.63,3.63,3.63
124.79,6.17,2.59,6.17,2.59,-2.60,-2.71,-3.15,3.58,3.58,3.58
126.03,6.17,2.65,6.17,2.65,-2.65,-2.77,-3.18,3.52,3.52,3.52
127.29,6.17,2.70,6.17,2.71,-2.71,-2.83,-3.20,3.47,3.47,3.47
128.57,6.17,2.77,6.17,2.77,-2.76,-2.89,-3.23,3.41,3.41,3.40
129.85,6.17,2.82,6.17,2.82,-2.82,-2.95,-3.25,3.35,3.35,3.35
131.15,6.17,2.88,6.17,2.88,-2.88,-3.01,-3.27,3.30,3.30,3.29
132.46,6.17,2.93,6.17,2.93,-2.93,-3.06,-3.28,3.24,3.24,3.24
133.79,6.17,2.99,6.17,2.99,-2.99,-3.12,-3.30,3.19,3.19,3.18
135.12,6.17,3.04,6.17,3.04,-3.04,-3.17,-3.30,3.13,3.13,3.13
136.48,6.17,3.09,6.17,3.09,-3.09,-3.23,-3.31,3.08,3.08,3.08
137.84,6.17,3.14,6.17,3.14,-3.15,-3.28,-3.32,3.03,3.03,3.03
139.22,6.17,3.20,6.17,3.20,-3.20,-3.33,-3.32,2.98,2.98,2.97
140.61,6.17,3.24,6.17,3.25,-3.25,-3.39,-3.33,2.93,2.93,2.93
142.02,6.17,3.30,6.17,3.30,-3.29,-3.44,-3.33,2.88,2.88,2.87
143.44,6.17,3.34,6.17,3.34,-3.34,-3.49,-3.33,2.83,2.83,2.83
144.87,6.17,3.38,6.17,3.39,-3.39,-3.54,-3.33,2.79,2.79,2.79
146.32,6.17,3.43,6.17,3.43,-3.43,-3.59,-3.33,2.74,2.74,2.74
147.78,6.17,3.47,6.17,3.47,-3.47,-3.63,-3.33,2.70,2.70,2.70
149.26,6.17,3.52,6.17,3.52,-3.52,-3.68,-3.33,2.66,2.66,2.65
150.75,6.17,3.56,6.17,3.56,-3.56,-3.73,-3.34,2.61,2.61,2.61
152.26,6.17,3.60,6.17,3.60,-3.60,-3.77,-3.34,2.57,2.57,2.57
153.78,6.17,3.64,6.17,3.64,-3.64,-3.82,-3.34,2.53,2.53,2.53
155.32,6.17,3.68,6.17,3.69,-3.69,-3.86,-3.35,2.49,2.49,2.49
156.88,6.17,3.73,6.17,3.73,-3.73,-3.90,-3.36,2.44,2.44,2.44
158.44,6.17,3.78,6.17,3.78,-3.78,-3.94,-3.37,2.40,2.40,2.39
160.03,6.17,3.82,6.17,3.82,-3.82,-3.98,-3.38,2.35,2.35,2.35
161.63,6.17,3.86,6.17,3.87,-3.86,-4.02,-3.39,2.31,2.31,2.31
163.24,6.17,3.91,6.17,3.91,-3.91,-4.06,-3.41,2.26,2.26,2.26
164.88,6.17,3.96,6.17,3.96,-3.96,-4.09,-3.42,2.21,2.21,2.21
166.53,6.17,4.01,6.17,4.00,-4.01,-4.13,-3.44,2.17,2.16,2.16
168.19,6.17,4.04,6.17,4.05,-4.06,-4.16,-3.47,2.11,2.11,2.13
169.87,6.17,4.10,6.18,4.10,-4.11,-4.19,-3.49,2.06,2.07,2.07
171.57,6.18,4.16,6.18,4.16,-4.16,-4.22,-3.52,2.02,2.02,2.02
173.29,6.19,4.21,6.19,4.21,-4.21,-4.25,-3.55,1.98,1.98,1.98
175.02,6.19,4.26,6.20,4.26,-4.26,-4.28,-3.59,1.94,1.94,1.93
176.77,6.19,4.31,6.19,4.31,-4.30,-4.31,-3.62,1.89,1.89,1.88
178.54,6.18,4.34,6.18,4.35,-4.34,-4.34,-3.66,1.85,1.84,1.84
180.32,6.16,4.38,6.16,4.37,-4.37,-4.36,-3.70,1.79,1.80,1.78
182.13,6.14,4.39,6.14,4.40,-4.40,-4.39,-3.75,1.75,1.75,1.75
183.95,6.11,4.41,6.12,4.42,-4.42,-4.41,-3.80,1.70,1.70,1.70
185.79,6.09,4.44,6.09,4.44,-4.43,-4.43,-3.85,1.66,1.66,1.65
187.65,6.06,4.45,6.06,4.45,-4.45,-4.45,-3.90,1.61,1.61,1.61
189.52,6.03,4.46,6.03,4.46,-4.47,-4.47,-3.96,1.57,1.57,1.57
191.42,5.99,4.46,6.00,4.47,-4.48,-4.49,-4.01,1.51,1.52,1.53
193.33,5.97,4.48,5.97,4.49,-4.50,-4.51,-4.08,1.48,1.48,1.49
195.27,5.95,4.51,5.95,4.51,-4.51,-4.52,-4.14,1.44,1.44,1.44
197.22,5.93,4.54,5.93,4.53,-4.52,-4.53,-4.20,1.41,1.41,1.39
199.19,5.90,4.54,5.91,4.55,-4.54,-4.55,-4.27,1.37,1.37,1.36
201.18,5.88,4.56,5.88,4.56,-4.55,-4.56,-4.34,1.34,1.33,1.32
203.19,5.85,4.56,5.85,4.56,-4.56,-4.57,-4.41,1.30,1.30,1.29
205.23,5.82,4.55,5.82,4.56,-4.56,-4.58,-4.48,1.26,1.26,1.27
207.28,5.79,4.55,5.80,4.56,-4.57,-4.59,-4.55,1.22,1.23,1.24
209.35,5.77,4.57,5.77,4.57,-4.57,-4.59,-4.62,1.20,1.20,1.20
211.44,5.75,4.58,5.75,4.58,-4.58,-4.60,-4.69,1.18,1.18,1.17
213.56,5.73,4.58,5.73,4.58,-4.58,-4.60,-4.76,1.16,1.15,1.15
215.69,5.70,4.58,5.70,4.58,-4.58,-4.60,-4.83,1.13,1.13,1.12
217.85,5.67,4.58,5.67,4.58,-4.58,-4.61,-4.90,1.10,1.10,1.09
220.03,5.64,4.58,5.64,4.58,-4.57,-4.61,-4.97,1.07,1.07,1.06
222.23,5.61,4.58,5.61,4.58,-4.57,-4.61,-5.03,1.04,1.04,1.03
224.45,5.58,4.56,5.58,4.57,-4.57,-4.60,-5.09,1.02,1.02,1.02
226.70,5.55,4.56,5.56,4.56,-4.56,-4.60,-5.15,0.99,0.99,0.99
228.96,5.53,4.55,5.54,4.56,-4.57,-4.60,-5.20,0.97,0.97,0.98
231.25,5.52,4.56,5.52,4.56,-4.57,-4.59,-5.25,0.95,0.95,0.96
233.57,5.51,4.57,5.51,4.57,-4.58,-4.58,-5.29,0.93,0.93,0.94
235.90,5.51,4.58,5.51,4.59,-4.59,-4.57,-5.33,0.92,0.92,0.93
238.26,5.51,4.61,5.52,4.61,-4.61,-4.57,-5.36,0.91,0.91,0.90
240.64,5.53,4.62,5.53,4.62,-4.62,-4.56,-5.38,0.91,0.91,0.91
243.05,5.53,4.64,5.53,4.64,-4.63,-4.54,-5.40,0.90,0.90,0.89
245.48,5.53,4.65,5.53,4.65,-4.64,-4.53,-5.41,0.90,0.90,0.88
247.93,5.52,4.65,5.52,4.64,-4.63,-4.52,-5.42,0.89,0.89,0.87
250.41,5.50,4.62,5.51,4.63,-4.62,-4.50,-5.41,0.88,0.88,0.88
252.92,5.48,4.61,5.48,4.61,-4.61,-4.49,-5.40,0.87,0.87,0.87
255.45,5.45,4.59,5.45,4.59,-4.59,-4.47,-5.37,0.86,0.87,0.86
258.00,5.42,4.56,5.42,4.56,-4.57,-4.45,-5.35,0.86,0.86,0.86
260.58,5.39,4.53,5.39,4.53,-4.54,-4.44,-5.31,0.85,0.85,0.86
263.19,5.36,4.50,5.37,4.51,-4.52,-4.42,-5.27,0.85,0.85,0.86
265.82,5.34,4.49,5.34,4.49,-4.49,-4.40,-5.22,0.85,0.85,0.85
268.48,5.32,4.47,5.32,4.47,-4.47,-4.37,-5.16,0.86,0.85,0.85
271.16,5.29,4.44,5.30,4.44,-4.44,-4.35,-5.10,0.85,0.85,0.85
273.87,5.27,4.42,5.27,4.42,-4.42,-4.33,-5.04,0.86,0.85,0.85
276.61,5.24,4.39,5.24,4.40,-4.39,-4.30,-4.96,0.85,0.85,0.85
279.38,5.21,4.38,5.21,4.37,-4.37,-4.28,-4.89,0.85,0.85,0.83
282.17,5.17,4.34,5.18,4.34,-4.34,-4.25,-4.81,0.84,0.84,0.83
284.99,5.14,4.30,5.14,4.30,-4.31,-4.23,-4.73,0.84,0.84,0.84
287.84,5.11,4.26,5.12,4.27,-4.28,-4.20,-4.64,0.84,0.84,0.85
290.72,5.09,4.25,5.09,4.24,-4.25,-4.17,-4.56,0.85,0.85,0.84
293.63,5.07,4.22,5.07,4.22,-4.22,-4.14,-4.47,0.86,0.85,0.85
296.57,5.04,4.18,5.05,4.19,-4.19,-4.11,-4.38,0.86,0.86,0.86
299.53,5.02,4.16,5.02,4.16,-4.16,-4.08,-4.29,0.87,0.87,0.86
302.53,5.00,4.12,5.00,4.13,-4.13,-4.05,-4.20,0.88,0.87,0.88
305.55,4.97,4.10,4.98,4.10,-4.10,-4.02,-4.11,0.88,0.88,0.87
308.61,4.95,4.07,4.95,4.07,-4.06,-3.99,-4.01,0.89,0.89,0.88
311.69,4.92,4.03,4.92,4.04,-4.03,-3.96,-3.93,0.90,0.90,0.89
314.81,4.89,4.00,4.89,3.99,-3.99,-3.92,-3.84,0.90,0.90,0.89
317.96,4.85,3.95,4.86,3.96,-3.96,-3.89,-3.75,0.90,0.90,0.90
321.14,4.82,3.91,4.82,3.91,-3.92,-3.85,-3.66,0.90,0.90,0.91
324.35,4.79,3.88,4.80,3.87,-3.89,-3.82,-3.58,0.90,0.91,0.91
327.59,4.77,3.83,4.78,3.85,-3.86,-3.78,-3.50,0.91,0.92,0.94
330.87,4.76,3.83,4.76,3.82,-3.83,-3.75,-3.42,0.94,0.93,0.93
334.18,4.74,3.80,4.74,3.80,-3.79,-3.71,-3.34,0.95,0.95,0.94
337.52,4.72,3.78,4.72,3.77,-3.76,-3.67,-3.26,0.97,0.96,0.94
340.90,4.69,3.73,4.69,3.73,-3.72,-3.64,-3.19,0.97,0.97,0.96
344.30,4.65,3.68,4.65,3.69,-3.68,-3.60,-3.11,0.97,0.97,0.97
347.75,4.61,3.64,4.61,3.64,-3.64,-3.56,-3.04,0.98,0.97,0.97
351.23,4.56,3.59,4.57,3.58,-3.59,-3.52,-2.98,0.97,0.97,0.97
354.74,4.52,3.52,4.52,3.54,-3.55,-3.48,-2.91,0.98,0.98,1.00
358.28,4.48,3.49,4.49,3.49,-3.50,-3.44,-2.85,0.99,0.99,0.99
361.87,4.45,3.45,4.45,3.45,-3.45,-3.40,-2.78,1.00,1.00,1.00
365.49,4.42,3.41,4.42,3.41,-3.41,-3.36,-2.73,1.02,1.01,1.01
369.14,4.39,3.36,4.39,3.37,-3.36,-3.32,-2.67,1.03,1.03,1.03
372.83,4.35,3.32,4.36,3.32,-3.32,-3.28,-2.61,1.04,1.04,1.03
376.56,4.31,3.28,4.32,3.28,-3.27,-3.24,-2.56,1.05,1.05,1.03
380.33,4.27,3.23,4.27,3.23,-3.22,-3.20,-2.51,1.06,1.05,1.04
384.13,4.22,3.16,4.22,3.17,-3.16,-3.16,-2.46,1.06,1.06,1.06
387.97,4.17,3.11,4.17,3.11,-3.11,-3.11,-2.42,1.06,1.06,1.06
391.85,4.12,3.05,4.13,3.05,-3.06,-3.07,-2.37,1.06,1.06,1.07
395.77,4.08,3.00,4.09,3.00,-3.02,-3.03,-2.33,1.07,1.07,1.08
399.73,4.05,2.96,4.05,2.96,-2.97,-2.99,-2.29,1.08,1.08,1.09
403.72,4.03,2.91,4.03,2.92,-2.93,-2.94,-2.25,1.11,1.10,1.12
407.76,4.00,2.89,4.01,2.89,-2.88,-2.90,-2.21,1.12,1.12,1.11
411.84,3.98,2.86,3.98,2.85,-2.84,-2.86,-2.18,1.14,1.14,1.12
415.96,3.95,2.81,3.95,2.82,-2.80,-2.81,-2.14,1.15,1.15,1.14
420.12,3.91,2.77,3.91,2.77,-2.76,-2.77,-2.11,1.15,1.15,1.14
424.32,3.87,2.72,3.87,2.71,-2.72,-2.72,-2.07,1.15,1.15,1.15
428.56,3.83,2.66,3.84,2.67,-2.69,-2.68,-2.04,1.15,1.15,1.17
432.85,3.80,2.62,3.81,2.63,-2.65,-2.63,-2.01,1.15,1.16,1.18
437.18,3.78,2.61,3.78,2.60,-2.61,-2.59,-1.98,1.17,1.17,1.17
441.55,3.76,2.58,3.77,2.58,-2.58,-2.54,-1.95,1.19,1.19,1.18
445.96,3.74,2.55,3.74,2.55,-2.54,-2.50,-1.92,1.21,1.21,1.19
450.42,3.72,2.52,3.72,2.51,-2.49,-2.45,-1.89,1.23,1.22,1.20
454.93,3.67,2.46,3.68,2.47,-2.45,-2.41,-1.87,1.22,1.23,1.21
459.48,3.63,2.41,3.63,2.41,-2.40,-2.36,-1.84,1.23,1.23,1.22
464.07,3.58,2.34,3.58,2.34,-2.35,-2.32,-1.81,1.23,1.23,1.24
468.71,3.53,2.28,3.54,2.29,-2.30,-2.27,-1.78,1.23,1.23,1.25
473.40,3.49,2.24,3.50,2.24,-2.25,-2.22,-1.75,1.24,1.24,1.25
478.13,3.46,2.20,3.46,2.20,-2.20,-2.18,-1.72,1.26,1.26,1.26
482.91,3.43,2.16,3.43,2.16,-2.16,-2.13,-1.69,1.27,1.27,1.27
487.74,3.39,2.11,3.40,2.11,-2.12,-2.08,-1.66,1.28,1.28,1.28
492.62,3.36,2.07,3.37,2.07,-2.07,-2.03,-1.63,1.29,1.29,1.29
497.55,3.33,2.03,3.33,2.03,-2.03,-1.99,-1.60,1.31,1.31,1.30
502.52,3.30,1.99,3.30,1.99,-1.98,-1.94,-1.57,1.33,1.32,1.31
507.55,3.26,1.93,3.26,1.93,-1.92,-1.89,-1.54,1.34,1.34,1.33
512.62,3.21,1.87,3.22,1.87,-1.87,-1.84,-1.51,1.35,1.35,1.34
517.75,3.17,1.81,3.17,1.81,-1.81,-1.79,-1.47,1.36,1.35,1.36
522.93,3.11,1.74,3.12,1.74,-1.76,-1.74,-1.44,1.36,1.36,1.37
528.16,3.06,1.68,3.07,1.68,-1.70,-1.69,-1.40,1.37,1.37,1.38
533.44,3.02,1.63,3.02,1.63,-1.64,-1.64,-1.36,1.39,1.39,1.39
538.77,2.98,1.58,2.98,1.58,-1.58,-1.59,-1.33,1.41,1.41,1.40
544.16,2.94,1.53,2.94,1.53,-1.52,-1.54,-1.29,1.43,1.43,1.41
549.60,2.89,1.47,2.89,1.46,-1.46,-1.48,-1.25,1.44,1.44,1.42
555.10,2.83,1.39,2.83,1.40,-1.39,-1.43,-1.21,1.44,1.44,1.44
560.65,2.77,1.32,2.77,1.33,-1.33,-1.38,-1.18,1.44,1.44,1.45
