frequency,raw,error,smoothed,error_smoothed,equalization,parametric_eq,fixed_band_eq,equalized_raw,equalized_smoothed,target
20.00,-1.36,-5.48,-1.39,-5.53,5.53,4.69,2.10,4.16,4.13,4.11
20.20,-1.31,-5.47,-1.34,-5.50,5.50,4.70,2.16,4.18,4.16,4.15
20.40,-1.27,-5.46,-1.28,-5.47,5.47,4.72,2.22,4.20,4.19,4.18
20.61,-1.22,-5.44,-1.22,-5.44,5.44,4.73,2.29,4.21,4.22,4.21
20.81,-1.17,-5.43,-1.17,-5.41,5.41,4.75,2.35,4.24,4.24,4.25
21.02,-1.13,-5.43,-1.11,-5.38,5.38,4.76,2.42,4.25,4.26,4.29
21.23,-1.08,-5.39,-1.06,-5.35,5.35,4.78,2.49,4.26,4.29,4.30
21.44,-1.03,-5.36,-1.01,-5.32,5.32,4.79,2.57,4.28,4.31,4.32
21.66,-0.98,-5.33,-0.96,-5.29,5.29,4.80,2.64,4.30,4.32,4.34
21.87,-0.93,-5.29,-0.91,-5.25,5.25,4.82,2.72,4.32,4.34,4.35
22.09,-0.88,-5.25,-0.87,-5.22,5.22,4.83,2.80,4.34,4.36,4.36
22.31,-0.83,-5.20,-0.82,-5.19,5.19,4.84,2.88,4.36,4.37,4.36
22.54,-0.78,-5.16,-0.77,-5.15,5.15,4.85,2.96,4.36,4.38,4.37
22.76,-0.72,-5.11,-0.72,-5.11,5.11,4.87,3.05,4.39,4.39,4.38
22.99,-0.67,-5.06,-0.68,-5.07,5.07,4.88,3.14,4.40,4.40,4.38
23.22,-0.62,-5.02,-0.64,-5.04,5.04,4.89,3.23,4.42,4.40,4.39
23.45,-0.57,-4.98,-0.60,-5.01,5.01,4.90,3.32,4.43,4.41,4.40
23.69,-0.52,-4.94,-0.56,-4.97,4.97,4.91,3.41,4.45,4.41,4.41
23.92,-0.47,-4.90,-0.52,-4.94,4.94,4.92,3.51,4.47,4.42,4.42
24.16,-0.45,-4.89,-0.48,-4.91,4.91,4.93,3.61,4.45,4.42,4.43
24.40,-0.45,-4.90,-0.45,-4.87,4.87,4.94,3.70,4.42,4.43,4.44
24.65,-0.45,-4.89,-0.42,-4.84,4.84,4.95,3.81,4.39,4.43,4.43
24.89,-0.45,-4.89,-0.38,-4.82,4.82,4.95,3.91,4.36,4.43,4.43
25.14,-0.42,-4.86,-0.36,-4.79,4.79,4.96,4.01,4.37,4.43,4.43
25.39,-0.36,-4.80,-0.33,-4.77,4.77,4.97,4.11,4.40,4.43,4.43
25.65,-0.30,-4.74,-0.31,-4.74,4.74,4.98,4.22,4.44,4.43,4.43
25.91,-0.24,-4.66,-0.29,-4.72,4.72,4.98,4.32,4.48,4.43,4.41
26.16,-0.22,-4.65,-0.27,-4.70,4.70,4.99,4.43,4.48,4.43,4.42
26.43,-0.22,-4.65,-0.26,-4.68,4.68,5.00,4.53,4.46,4.42,4.42
26.69,-0.22,-4.65,-0.25,-4.67,4.67,5.00,4.63,4.44,4.42,4.42
26.96,-0.22,-4.65,-0.23,-4.65,4.65,5.01,4.73,4.43,4.42,4.42
27.23,-0.22,-4.65,-0.22,-4.64,4.64,5.01,4.83,4.41,4.42,4.42
27.50,-0.22,-4.65,-0.21,-4.63,4.63,5.02,4.93,4.40,4.41,4.42
27.77,-0.22,-4.64,-0.21,-4.62,4.62,5.02,5.02,4.40,4.41,4.41
28.05,-0.22,-4.64,-0.21,-4.62,4.62,5.02,5.11,4.40,4.41,4.41
28.33,-0.22,-4.62,-0.21,-4.62,4.62,5.03,5.20,4.40,4.41,4.39
28.62,-0.22,-4.63,-0.22,-4.63,4.63,5.03,5.28,4.40,4.41,4.40
28.90,-0.22,-4.63,-0.22,-4.63,4.63,5.03,5.36,4.40,4.41,4.40
29.19,-0.22,-4.62,-0.22,-4.63,4.63,5.04,5.43,4.40,4.40,4.39
29.48,-0.22,-4.63,-0.22,-4.62,4.62,5.04,5.50,4.40,4.40,4.40
29.78,-0.22,-4.63,-0.22,-4.61,4.61,5.04,5.56,4.39,4.39,4.40
30.08,-0.22,-4.63,-0.22,-4.60,4.60,5.04,5.61,4.38,4.39,4.40
30.38,-0.22,-4.61,-0.21,-4.59,4.59,5.04,5.65,4.37,4.38,4.38
30.68,-0.22,-4.61,-0.21,-4.59,4.59,5.04,5.69,4.36,4.38,4.38
30.99,-0.22,-4.60,-0.21,-4.58,4.58,5.04,5.72,4.36,4.38,4.37
31.30,-0.22,-4.60,-0.22,-4.59,4.59,5.04,5.74,4.36,4.37,4.37
31.61,-0.22,-4.60,-0.23,-4.59,4.59,5.04,5.75,4.37,4.37,4.37
31.93,-0.22,-4.58,-0.24,-4.60,4.60,5.04,5.76,4.38,4.36,4.35
32.24,-0.22,-4.57,-0.26,-4.61,4.61,5.04,5.76,4.39,4.36,4.34
32.57,-0.22,-4.57,-0.28,-4.63,4.63,5.03,5.75,4.40,4.35,4.34
32.89,-0.22,-4.57,-0.30,-4.64,4.64,5.03,5.73,4.42,4.34,4.34
33.22,-0.27,-4.62,-0.32,-4.66,4.66,5.03,5.70,4.38,4.34,4.34
33.55,-0.35,-4.69,-0.34,-4.68,4.68,5.03,5.67,4.32,4.33,4.33
33.89,-0.42,-4.76,-0.36,-4.69,4.69,5.02,5.64,4.27,4.33,4.33
34.23,-0.45,-4.79,-0.38,-4.71,4.71,5.02,5.60,4.25,4.32,4.33
34.57,-0.45,-4.78,-0.40,-4.72,4.72,5.01,5.55,4.26,4.32,4.32
34.92,-0.45,-4.77,-0.41,-4.73,4.73,5.01,5.50,4.27,4.31,4.31
35.27,-0.45,-4.77,-0.43,-4.74,4.74,5.00,5.45,4.28,4.31,4.31
35.62,-0.45,-4.76,-0.44,-4.75,4.75,5.00,5.39,4.30,4.31,4.30
35.97,-0.45,-4.75,-0.46,-4.76,4.76,4.99,5.33,4.31,4.30,4.29
36.33,-0.45,-4.75,-0.48,-4.77,4.77,4.98,5.27,4.32,4.29,4.29
36.70,-0.45,-4.75,-0.50,-4.78,4.78,4.98,5.21,4.33,4.28,4.29
37.06,-0.45,-4.73,-0.51,-4.79,4.79,4.97,5.14,4.33,4.28,4.27
37.43,-0.47,-4.75,-0.52,-4.79,4.79,4.96,5.08,4.32,4.27,4.27
37.81,-0.48,-4.75,-0.54,-4.80,4.80,4.95,5.02,4.32,4.26,4.26
38.19,-0.52,-4.78,-0.56,-4.81,4.81,4.94,4.95,4.29,4.26,4.25
38.57,-0.59,-4.85,-0.58,-4.83,4.83,4.94,4.89,4.23,4.25,4.25
38.95,-0.66,-4.91,-0.60,-4.84,4.84,4.93,4.83,4.18,4.24,4.24
39.34,-0.67,-4.91,-0.62,-4.86,4.86,4.92,4.77,4.18,4.24,4.23
39.74,-0.67,-4.89,-0.64,-4.87,4.87,4.91,4.72,4.19,4.23,4.21
40.14,-0.67,-4.90,-0.65,-4.88,4.88,4.89,4.66,4.20,4.22,4.22
40.54,-0.67,-4.89,-0.67,-4.88,4.88,4.88,4.61,4.20,4.21,4.21
40.94,-0.67,-4.89,-0.68,-4.88,4.88,4.87,4.56,4.20,4.20,4.21
41.35,-0.67,-4.87,-0.68,-4.87,4.87,4.86,4.51,4.20,4.18,4.19
41.76,-0.67,-4.85,-0.69,-4.85,4.85,4.85,4.47,4.18,4.17,4.17
42.18,-0.67,-4.84,-0.69,-4.83,4.83,4.83,4.43,4.16,4.15,4.16
42.60,-0.67,-4.81,-0.68,-4.81,4.81,4.82,4.39,4.13,4.12,4.13
43.03,-0.67,-4.80,-0.68,-4.78,4.78,4.81,4.35,4.10,4.10,4.12
43.46,-0.67,-4.77,-0.67,-4.75,4.75,4.79,4.32,4.07,4.07,4.09
43.90,-0.67,-4.72,-0.67,-4.72,4.72,4.78,4.29,4.05,4.05,4.04
44.33,-0.67,-4.69,-0.67,-4.69,4.69,4.76,4.27,4.02,4.02,4.01
44.78,-0.67,-4.66,-0.67,-4.67,4.67,4.75,4.25,3.99,3.99,3.98
45.23,-0.67,-4.63,-0.67,-4.64,4.64,4.73,4.23,3.97,3.97,3.95
45.68,-0.67,-4.60,-0.67,-4.61,4.61,4.71,4.21,3.94,3.94,3.92
46.13,-0.67,-4.58,-0.67,-4.59,4.59,4.69,4.20,3.92,3.92,3.90
46.60,-0.67,-4.57,-0.67,-4.57,4.57,4.68,4.19,3.90,3.90,3.89
47.06,-0.67,-4.55,-0.67,-4.56,4.56,4.66,4.18,3.88,3.88,3.87
47.53,-0.67,-4.55,-0.67,-4.55,4.55,4.64,4.18,3.87,3.87,3.87
48.01,-0.67,-4.55,-0.67,-4.54,4.54,4.62,4.18,3.86,3.86,3.87
48.49,-0.67,-4.53,-0.67,-4.53,4.53,4.60,4.18,3.86,3.86,3.85
48.97,-0.67,-4.52,-0.67,-4.53,4.53,4.58,4.19,3.86,3.86,3.84
49.46,-0.67,-4.51,-0.67,-4.53,4.53,4.56,4.19,3.85,3.85,3.83
49.96,-0.67,-4.51,-0.67,-4.52,4.52,4.54,4.20,3.85,3.85,3.83
50.46,-0.67,-4.52,-0.67,-4.51,4.51,4.52,4.22,3.84,3.84,3.84
50.96,-0.67,-4.53,-0.66,-4.50,4.50,4.50,4.23,3.82,3.84,3.85
51.47,-0.67,-4.52,-0.66,-4.48,4.48,4.47,4.24,3.81,3.83,3.84
51.99,-0.67,-4.50,-0.66,-4.47,4.47,4.45,4.26,3.79,3.81,3.82
52.51,-0.67,-4.49,-0.66,-4.45,4.45,4.43,4.28,3.78,3.79,3.81
53.03,-0.67,-4.46,-0.67,-4.44,4.44,4.40,4.30,3.76,3.76,3.78
53.56,-0.67,-4.43,-0.68,-4.42,4.42,4.38,4.31,3.74,3.73,3.75
54.10,-0.67,-4.39,-0.70,-4.40,4.40,4.36,4.33,3.73,3.70,3.71
54.64,-0.67,-4.34,-0.72,-4.38,4.38,4.33,4.35,3.70,3.66,3.66
55.18,-0.67,-4.29,-0.74,-4.35,4.35,4.30,4.37,3.68,3.61,3.61
55.74,-0.67,-4.24,-0.76,-4.32,4.32,4.28,4.38,3.65,3.56,3.56
56.29,-0.74,-4.26,-0.78,-4.29,4.29,4.25,4.40,3.55,3.51,3.51
56.86,-0.87,-4.33,-0.80,-4.25,4.25,4.22,4.41,3.38,3.45,3.45
57.42,-0.90,-4.29,-0.82,-4.21,4.21,4.20,4.42,3.31,3.39,3.38
58.00,-0.90,-4.23,-0.83,-4.17,4.17,4.17,4.43,3.26,3.33,3.32
58.58,-0.90,-4.17,-0.85,-4.12,4.12,4.14,4.44,3.22,3.27,3.26
59.16,-0.90,-4.12,-0.87,-4.08,4.08,4.11,4.44,3.17,3.21,3.21
59.76,-0.90,-4.06,-0.89,-4.03,4.03,4.08,4.44,3.13,3.14,3.15
60.35,-0.90,-3.99,-0.91,-4.00,4.00,4.05,4.43,3.09,3.08,3.08
60.96,-0.90,-3.94,-0.93,-3.96,3.96,4.02,4.42,3.05,3.02,3.03
61.57,-0.90,-3.87,-0.95,-3.92,3.92,3.99,4.40,3.01,2.96,2.96
62.18,-0.90,-3.80,-0.97,-3.88,3.88,3.96,4.39,2.98,2.91,2.89
62.80,-0.90,-3.76,-0.98,-3.84,3.84,3.93,4.36,2.94,2.86,2.85
63.43,-0.94,-3.74,-1.01,-3.81,3.81,3.89,4.34,2.87,2.80,2.79
64.07,-1.01,-3.77,-1.04,-3.79,3.79,3.86,4.30,2.78,2.75,2.75
64.71,-1.09,-3.80,-1.06,-3.77,3.77,3.83,4.27,2.67,2.71,2.70
65.35,-1.13,-3.79,-1.08,-3.74,3.74,3.79,4.23,2.61,2.67,2.65
66.01,-1.13,-3.76,-1.09,-3.71,3.71,3.76,4.18,2.58,2.62,2.62
66.67,-1.13,-3.72,-1.10,-3.68,3.68,3.72,4.13,2.55,2.59,2.58
67.33,-1.13,-3.69,-1.10,-3.65,3.65,3.69,4.08,2.52,2.55,2.55
68.01,-1.13,-3.66,-1.09,-3.61,3.61,3.65,4.02,2.48,2.52,2.52
68.69,-1.13,-3.63,-1.08,-3.57,3.57,3.61,3.96,2.44,2.49,2.49
69.37,-1.13,-3.59,-1.07,-3.53,3.53,3.58,3.90,2.39,2.46,2.45
70.07,-1.11,-3.54,-1.05,-3.48,3.48,3.54,3.84,2.36,2.43,2.42
70.77,-0.95,-3.37,-1.02,-3.42,3.42,3.50,3.77,2.47,2.40,2.41
71.48,-0.90,-3.28,-0.99,-3.35,3.35,3.46,3.70,2.45,2.37,2.37
72.19,-0.90,-3.26,-0.95,-3.29,3.29,3.43,3.63,2.39,2.34,2.35
72.91,-0.90,-3.22,-0.93,-3.24,3.24,3.39,3.56,2.33,2.31,2.31
73.64,-0.90,-3.19,-0.91,-3.19,3.19,3.35,3.49,2.29,2.28,2.28
74.38,-0.90,-3.16,-0.90,-3.15,3.15,3.31,3.42,2.25,2.25,2.25
75.12,-0.90,-3.13,-0.90,-3.12,3.12,3.27,3.35,2.22,2.22,2.22
75.87,-0.90,-3.10,-0.91,-3.10,3.10,3.22,3.28,2.20,2.19,2.19
76.63,-0.90,-3.07,-0.92,-3.09,3.09,3.18,3.21,2.18,2.16,2.16
77.40,-0.90,-3.04,-0.94,-3.08,3.08,3.14,3.14,2.18,2.14,2.13
78.17,-0.90,-3.01,-0.97,-3.08,3.08,3.10,3.07,2.18,2.11,2.10
78.95,-0.90,-3.00,-1.00,-3.09,3.09,3.06,3.00,2.19,2.09,2.09
79.74,-1.07,-3.15,-1.02,-3.10,3.10,3.01,2.93,2.02,2.07,2.07
80.54,-1.13,-3.19,-1.05,-3.10,3.10,2.97,2.86,1.97,2.06,2.05
81.35,-1.13,-3.17,-1.07,-3.11,3.11,2.93,2.80,1.98,2.05,2.03
82.16,-1.13,-3.17,-1.09,-3.13,3.13,2.88,2.73,1.99,2.04,2.03
82.98,-1.13,-3.17,-1.11,-3.14,3.14,2.84,2.67,2.00,2.03,2.03
83.81,-1.13,-3.16,-1.12,-3.15,3.15,2.79,2.61,2.02,2.03,2.02
84.65,-1.13,-3.15,-1.14,-3.16,3.16,2.75,2.55,2.03,2.02,2.01
85.50,-1.13,-3.16,-1.15,-3.18,3.18,2.70,2.50,2.04,2.02,2.02
86.35,-1.13,-3.16,-1.17,-3.19,3.19,2.65,2.44,2.06,2.03,2.02
87.22,-1.13,-3.16,-1.17,-3.20,3.20,2.61,2.39,2.06,2.03,2.02
88.09,-1.13,-3.16,-1.16,-3.19,3.19,2.56,2.34,2.06,2.03,2.02
88.97,-1.13,-3.18,-1.15,-3.18,3.18,2.51,2.29,2.04,2.03,2.04
89.86,-1.13,-3.18,-1.13,-3.16,3.16,2.46,2.24,2.03,2.03,2.04
90.76,-1.13,-3.16,-1.12,-3.14,3.14,2.42,2.19,2.01,2.02,2.02
91.66,-1.13,-3.17,-1.10,-3.12,3.12,2.37,2.15,1.99,2.02,2.03
92.58,-1.13,-3.14,-1.08,-3.09,3.09,2.32,2.10,1.95,2.01,2.00
93.51,-1.13,-3.15,-1.05,-3.05,3.05,2.27,2.06,1.92,2.00,2.01
94.44,-1.13,-3.13,-1.03,-3.02,3.02,2.22,2.02,1.88,1.99,1.99
95.39,-1.03,-3.02,-1.02,-2.99,2.99,2.17,1.98,1.96,1.97,1.98
96.34,-0.90,-2.85,-1.01,-2.96,2.96,2.12,1.95,2.06,1.95,1.94
97.30,-0.90,-2.83,-1.00,-2.93,2.93,2.07,1.91,2.03,1.93,1.92
98.28,-0.90,-2.81,-0.99,-2.89,2.89,2.02,1.88,1.99,1.91,1.90
99.26,-0.90,-2.78,-0.98,-2.85,2.85,1.97,1.85,1.95,1.88,1.87
100.25,-0.90,-2.75,-0.97,-2.81,2.81,1.92,1.81,1.91,1.84,1.84
101.25,-0.90,-2.72,-0.96,-2.77,2.77,1.86,1.78,1.86,1.81,1.81
102.27,-0.93,-2.71,-0.95,-2.72,2.72,1.81,1.76,1.78,1.77,1.77
103.29,-1.05,-2.78,-0.95,-2.67,2.67,1.76,1.73,1.62,1.72,1.72
104.32,-1.13,-2.82,-0.95,-2.62,2.62,1.71,1.70,1.48,1.67,1.68
105.37,-1.07,-2.71,-0.95,-2.57,2.57,1.65,1.67,1.49,1.62,1.63
106.42,-0.94,-2.53,-0.95,-2.52,2.52,1.60,1.65,1.57,1.56,1.58
107.48,-0.90,-2.42,-0.96,-2.46,2.46,1.55,1.62,1.55,1.50,1.51
108.56,-0.90,-2.34,-0.96,-2.40,2.40,1.50,1.59,1.49,1.43,1.43
109.64,-0.90,-2.27,-0.96,-2.33,2.33,1.44,1.57,1.42,1.37,1.36
110.74,-0.90,-2.21,-0.96,-2.25,2.25,1.39,1.54,1.34,1.29,1.30
111.85,-0.90,-2.14,-0.94,-2.16,2.16,1.34,1.52,1.26,1.22,1.23
112.97,-0.90,-2.05,-0.92,-2.07,2.07,1.28,1.49,1.16,1.15,1.14
114.10,-0.90,-1.99,-0.90,-1.98,1.98,1.23,1.46,1.07,1.08,1.08
115.24,-0.90,-1.91,-0.88,-1.89,1.89,1.17,1.43,0.98,1.01,1.00
116.39,-0.90,-1.83,-0.86,-1.80,1.80,1.12,1.41,0.90,0.94,0.92
117.55,-0.90,-1.77,-0.85,-1.73,1.73,1.07,1.38,0.82,0.88,0.86
118.73,-0.90,-1.70,-0.83,-1.65,1.65,1.01,1.35,0.75,0.82,0.79
119.92,-0.89,-1.65,-0.80,-1.57,1.57,0.96,1.32,0.67,0.76,0.75
121.12,-0.67,-1.37,-0.77,-1.48,1.48,0.90,1.28,0.81,0.71,0.69
122.33,-0.67,-1.33,-0.74,-1.41,1.41,0.85,1.25,0.73,0.67,0.65
123.55,-0.67,-1.31,-0.71,-1.33,1.33,0.79,1.21,0.66,0.62,0.63
124.79,-0.67,-1.27,-0.68,-1.26,1.26,0.74,1.18,0.59,0.59,0.59
126.03,-0.67,-1.23,-0.64,-1.19,1.19,0.68,1.14,0.52,0.55,0.55
127.29,-0.60,-1.13,-0.60,-1.12,1.12,0.63,1.10,0.51,0.51,0.52
128.57,-0.50,-0.99,-0.56,-1.04,1.04,0.57,1.06,0.54,0.48,0.48
129.85,-0.45,-0.91,-0.51,-0.96,0.96,0.52,1.02,0.50,0.45,0.45
131.15,-0.45,-0.88,-0.46,-0.88,0.88,0.46,0.97,0.43,0.42,0.42
132.46,-0.45,-0.85,-0.42,-0.80,0.80,0.41,0.93,0.35,0.38,0.39
133.79,-0.45,-0.82,-0.37,-0.73,0.73,0.35,0.88,0.27,0.35,0.36
135.12,-0.44,-0.76,-0.33,-0.65,0.65,0.30,0.83,0.21,0.32,0.31
136.48,-0.28,-0.57,-0.28,-0.57,0.57,0.25,0.78,0.28,0.29,0.28
137.84,-0.22,-0.48,-0.22,-0.47,0.47,0.19,0.73,0.25,0.25,0.25
139.22,-0.10,-0.31,-0.16,-0.38,0.38,0.14,0.68,0.27,0.22,0.20
140.61,-0.01,-0.17,-0.11,-0.28,0.28,0.08,0.62,0.27,0.18,0.15
142.02,0.01,-0.13,-0.05,-0.18,0.18,0.03,0.57,0.19,0.13,0.13
143.44,0.01,-0.09,0.01,-0.08,0.08,-0.02,0.51,0.08,0.09,0.09
144.87,0.01,-0.05,0.08,0.04,-0.04,-0.08,0.45,-0.03,0.04,0.05
146.32,0.16,0.15,0.15,0.16,-0.16,-0.13,0.40,-0.01,-0.02,0.00
147.78,0.24,0.27,0.22,0.30,-0.30,-0.19,0.34,-0.06,-0.08,-0.04
149.26,0.24,0.34,0.29,0.43,-0.43,-0.24,0.28,-0.20,-0.14,-0.11
150.75,0.34,0.52,0.37,0.57,-0.57,-0.29,0.22,-0.23,-0.21,-0.19
152.26,0.43,0.68,0.43,0.71,-0.71,-0.34,0.15,-0.28,-0.28,-0.26
153.78,0.47,0.79,0.50,0.85,-0.85,-0.40,0.09,-0.38,-0.35,-0.33
155.32,0.52,0.94,0.56,0.98,-0.98,-0.45,0.03,-0.46,-0.42,-0.43
156.88,0.67,1.16,0.61,1.10,-1.10,-0.50,-0.04,-0.44,-0.49,-0.50
158.44,0.69,1.25,0.68,1.24,-1.24,-0.55,-0.10,-0.55,-0.56,-0.57
160.03,0.76,1.40,0.74,1.36,-1.36,-0.60,-0.17,-0.61,-0.62,-0.65
161.63,0.89,1.59,0.79,1.48,-1.48,-0.66,-0.23,-0.59,-0.68,-0.71
163.24,0.92,1.67,0.84,1.58,-1.58,-0.71,-0.30,-0.66,-0.74,-0.76
164.88,0.92,1.71,0.89,1.67,-1.67,-0.76,-0.37,-0.75,-0.78,-0.80
166.53,0.92,1.75,0.93,1.75,-1.75,-0.81,-0.43,-0.83,-0.81,-0.84
168.19,0.92,1.78,0.97,1.81,-1.81,-0.86,-0.50,-0.89,-0.84,-0.87
169.87,0.92,1.79,1.00,1.86,-1.86,-0.91,-0.57,-0.95,-0.86,-0.88
171.57,0.92,1.80,1.03,1.90,-1.90,-0.96,-0.64,-0.99,-0.87,-0.89
173.29,1.06,1.94,1.06,1.93,-1.93,-1.01,-0.71,-0.88,-0.88,-0.89
175.02,1.15,2.01,1.07,1.96,-1.96,-1.05,-0.78,-0.81,-0.88,-0.87
176.77,1.15,2.02,1.09,1.98,-1.98,-1.10,-0.86,-0.83,-0.88,-0.88
178.54,1.15,2.01,1.11,1.99,-1.99,-1.15,-0.93,-0.84,-0.88,-0.87
180.32,1.15,2.00,1.12,2.00,-2.00,-1.20,-1.00,-0.85,-0.88,-0.86
182.13,1.15,2.00,1.13,2.02,-2.02,-1.24,-1.08,-0.87,-0.88,-0.86
183.95,1.15,2.00,1.15,2.03,-2.03,-1.29,-1.15,-0.88,-0.88,-0.86
185.79,1.15,2.01,1.16,2.05,-2.05,-1.34,-1.23,-0.90,-0.89,-0.87
187.65,1.15,2.03,1.16,2.06,-2.06,-1.38,-1.31,-0.91,-0.90,-0.89
189.52,1.15,2.05,1.16,2.07,-2.07,-1.43,-1.38,-0.92,-0.91,-0.91
191.42,1.15,2.07,1.16,2.08,-2.08,-1.47,-1.46,-0.93,-0.92,-0.93
193.33,1.15,2.09,1.15,2.09,-2.09,-1.52,-1.54,-0.94,-0.94,-0.95
195.27,1.15,2.09,1.15,2.10,-2.10,-1.56,-1.62,-0.95,-0.95,-0.95
197.22,1.15,2.11,1.14,2.11,-2.11,-1.60,-1.70,-0.97,-0.97,-0.97
199.19,1.15,2.15,1.13,2.12,-2.12,-1.65,-1.78,-0.98,-0.99,-1.01
201.18,1.15,2.15,1.13,2.14,-2.14,-1.69,-1.86,-0.99,-1.01,-1.01
203.19,1.15,2.17,1.13,2.16,-2.16,-1.73,-1.93,-1.01,-1.03,-1.03
205.23,1.15,2.20,1.13,2.18,-2.18,-1.77,-2.01,-1.04,-1.05,-1.06
207.28,1.15,2.20,1.14,2.21,-2.21,-1.81,-2.09,-1.06,-1.06,-1.06
209.35,1.15,2.22,1.16,2.24,-2.24,-1.85,-2.17,-1.09,-1.08,-1.08
211.44,1.15,2.25,1.17,2.27,-2.27,-1.89,-2.25,-1.12,-1.09,-1.11
213.56,1.15,2.25,1.19,2.30,-2.30,-1.93,-2.32,-1.15,-1.11,-1.11
215.69,1.15,2.25,1.21,2.33,-2.33,-1.97,-2.40,-1.19,-1.12,-1.11
217.85,1.15,2.28,1.22,2.36,-2.36,-2.01,-2.47,-1.21,-1.14,-1.14
220.03,1.24,2.38,1.24,2.39,-2.39,-2.04,-2.54,-1.15,-1.15,-1.15
222.23,1.34,2.50,1.26,2.42,-2.42,-2.08,-2.61,-1.08,-1.16,-1.17
224.45,1.38,2.54,1.28,2.45,-2.45,-2.12,-2.67,-1.07,-1.17,-1.17
226.70,1.38,2.54,1.31,2.48,-2.48,-2.15,-2.74,-1.11,-1.17,-1.17
228.96,1.38,2.55,1.34,2.52,-2.52,-2.19,-2.80,-1.15,-1.18,-1.18
231.25,1.38,2.55,1.37,2.56,-2.56,-2.22,-2.85,-1.18,-1.19,-1.18
233.57,1.38,2.56,1.41,2.59,-2.59,-2.25,-2.90,-1.22,-1.19,-1.19
235.90,1.38,2.57,1.44,2.63,-2.63,-2.29,-2.95,-1.25,-1.19,-1.20
238.26,1.38,2.57,1.47,2.66,-2.66,-2.32,-3.00,-1.28,-1.19,-1.20
240.64,1.38,2.57,1.49,2.68,-2.68,-2.35,-3.04,-1.30,-1.19,-1.20
243.05,1.54,2.72,1.51,2.70,-2.70,-2.38,-3.07,-1.16,-1.19,-1.19
245.48,1.61,2.78,1.53,2.71,-2.71,-2.41,-3.10,-1.10,-1.18,-1.18
247.93,1.61,2.77,1.54,2.72,-2.72,-2.44,-3.12,-1.11,-1.18,-1.17
250.41,1.61,2.78,1.56,2.73,-2.73,-2.47,-3.14,-1.13,-1.17,-1.18
252.92,1.61,2.77,1.58,2.74,-2.74,-2.50,-3.16,-1.14,-1.16,-1.17
255.45,1.61,2.74,1.59,2.75,-2.75,-2.53,-3.17,-1.14,-1.16,-1.14
258.00,1.61,2.74,1.61,2.75,-2.75,-2.55,-3.17,-1.15,-1.15,-1.14
260.58,1.61,2.74,1.62,2.75,-2.75,-2.58,-3.17,-1.15,-1.13,-1.14
263.19,1.61,2.72,1.62,2.74,-2.74,-2.61,-3.17,-1.14,-1.12,-1.12
265.82,1.61,2.72,1.62,2.73,-2.73,-2.63,-3.16,-1.12,-1.11,-1.12
268.48,1.61,2.69,1.62,2.71,-2.71,-2.65,-3.15,-1.10,-1.09,-1.09
271.16,1.61,2.68,1.61,2.68,-2.68,-2.68,-3.13,-1.08,-1.07,-1.08
273.87,1.61,2.67,1.61,2.66,-2.66,-2.70,-3.11,-1.05,-1.05,-1.07
276.61,1.61,2.63,1.60,2.64,-2.64,-2.72,-3.09,-1.03,-1.03,-1.03
279.38,1.61,2.62,1.59,2.60,-2.60,-2.74,-3.06,-1.00,-1.01,-1.02
282.17,1.61,2.59,1.58,2.57,-2.57,-2.76,-3.03,-0.96,-0.98,-0.99
284.99,1.61,2.56,1.57,2.53,-2.53,-2.78,-3.00,-0.93,-0.96,-0.96
287.84,1.61,2.54,1.58,2.51,-2.51,-2.80,-2.97,-0.90,-0.93,-0.94
290.72,1.61,2.50,1.60,2.50,-2.50,-2.82,-2.94,-0.89,-0.90,-0.90
293.63,1.61,2.48,1.63,2.51,-2.51,-2.84,-2.90,-0.90,-0.87,-0.88
296.57,1.61,2.45,1.67,2.51,-2.51,-2.86,-2.87,-0.91,-0.85,-0.85
299.53,1.61,2.42,1.69,2.52,-2.52,-2.87,-2.83,-0.91,-0.82,-0.82
302.53,1.61,2.41,1.72,2.52,-2.52,-2.89,-2.80,-0.91,-0.80,-0.81
305.55,1.61,2.37,1.74,2.52,-2.52,-2.90,-2.76,-0.91,-0.78,-0.77
308.61,1.66,2.40,1.75,2.51,-2.51,-2.92,-2.73,-0.85,-0.76,-0.75
311.69,1.81,2.54,1.75,2.50,-2.50,-2.93,-2.70,-0.69,-0.75,-0.74
314.81,1.97,2.67,1.75,2.49,-2.49,-2.94,-2.66,-0.52,-0.73,-0.71
317.96,2.05,2.75,1.76,2.48,-2.48,-2.95,-2.63,-0.44,-0.72,-0.71
321.14,2.05,2.76,1.77,2.48,-2.48,-2.96,-2.60,-0.43,-0.71,-0.72
324.35,1.85,2.55,1.77,2.47,-2.47,-2.97,-2.57,-0.63,-0.70,-0.71
327.59,1.64,2.33,1.77,2.47,-2.47,-2.98,-2.54,-0.83,-0.69,-0.70
330.87,1.61,2.29,1.78,2.46,-2.46,-2.99,-2.52,-0.85,-0.68,-0.69
334.18,1.61,2.29,1.77,2.45,-2.45,-3.00,-2.49,-0.84,-0.67,-0.69
337.52,1.61,2.28,1.77,2.43,-2.43,-3.01,-2.47,-0.82,-0.66,-0.68
340.90,1.61,2.25,1.76,2.41,-2.41,-3.01,-2.45,-0.80,-0.65,-0.65
344.30,1.78,2.41,1.74,2.37,-2.37,-3.02,-2.43,-0.60,-0.63,-0.64
347.75,1.83,2.45,1.72,2.34,-2.34,-3.02,-2.41,-0.51,-0.62,-0.63
351.23,1.83,2.42,1.72,2.32,-2.32,-3.03,-2.40,-0.49,-0.60,-0.60
354.74,1.83,2.40,1.74,2.31,-2.31,-3.03,-2.38,-0.49,-0.57,-0.58
358.28,1.83,2.37,1.77,2.32,-2.32,-3.03,-2.37,-0.49,-0.55,-0.55
361.87,1.83,2.35,1.82,2.34,-2.34,-3.03,-2.36,-0.52,-0.53,-0.53
365.49,1.83,2.33,1.86,2.36,-2.36,-3.03,-2.35,-0.53,-0.51,-0.51
369.14,1.83,2.31,1.89,2.37,-2.37,-3.03,-2.35,-0.54,-0.48,-0.49
372.83,1.83,2.28,1.91,2.37,-2.37,-3.03,-2.35,-0.55,-0.46,-0.46
376.56,1.83,2.26,1.93,2.37,-2.37,-3.03,-2.34,-0.55,-0.44,-0.44
380.33,1.93,2.33,1.95,2.37,-2.37,-3.03,-2.34,-0.45,-0.42,-0.41
384.13,2.04,2.42,1.96,2.37,-2.37,-3.02,-2.35,-0.33,-0.40,-0.39
387.97,2.06,2.43,1.98,2.37,-2.37,-3.02,-2.35,-0.31,-0.39,-0.38
391.85,2.06,2.43,2.00,2.38,-2.38,-3.01,-2.35,-0.32,-0.37,-0.38
395.77,2.06,2.42,2.02,2.38,-2.38,-3.01,-2.36,-0.33,-0.36,-0.37
399.73,2.06,2.41,2.04,2.39,-2.39,-3.00,-2.37,-0.34,-0.35,-0.36
403.72,2.06,2.40,2.05,2.40,-2.40,-2.99,-2.37,-0.34,-0.34,-0.35
407.76,2.06,2.39,2.06,2.40,-2.40,-2.98,-2.38,-0.35,-0.34,-0.34
411.84,2.06,2.38,2.07,2.40,-2.40,-2.98,-2.39,-0.35,-0.33,-0.33
415.96,2.06,2.37,2.07,2.40,-2.40,-2.96,-2.40,-0.35,-0.33,-0.32
420.12,2.06,2.37,2.07,2.40,-2.40,-2.95,-2.41,-0.34,-0.33,-0.32
424.32,2.06,2.37,2.06,2.38,-2.38,-2.94,-2.42,-0.32,-0.32,-0.32
428.56,2.06,2.37,2.04,2.36,-2.36,-2.93,-2.43,-0.31,-0.32,-0.32
432.85,2.06,2.38,2.04,2.35,-2.35,-2.91,-2.44,-0.30,-0.32,-0.33
437.18,2.06,2.37,2.04,2.35,-2.35,-2.90,-2.45,-0.29,-0.31,-0.32
441.55,2.06,2.36,2.03,2.34,-2.34,-2.88,-2.46,-0.28,-0.31,-0.31
445.96,2.06,2.36,2.03,2.33,-2.33,-2.86,-2.47,-0.27,-0.30,-0.31
450.42,2.06,2.35,2.03,2.32,-2.32,-2.84,-2.47,-0.27,-0.29,-0.30
454.93,2.06,2.34,2.04,2.33,-2.33,-2.82,-2.48,-0.27,-0.28,-0.29
459.48,2.06,2.33,2.07,2.33,-2.33,-2.80,-2.48,-0.28,-0.27,-0.28
464.07,2.06,2.31,2.10,2.35,-2.35,-2.78,-2.48,-0.30,-0.25,-0.26
468.71,2.06,2.29,2.15,2.38,-2.38,-2.75,-2.47,-0.33,-0.24,-0.24
473.40,2.20,2.42,2.21,2.43,-2.43,-2.73,-2.47,-0.23,-0.22,-0.23
478.13,2.28,2.47,2.28,2.48,-2.48,-2.70,-2.46,-0.20,-0.20,-0.20
482.91,2.29,2.46,2.37,2.54,-2.54,-2.67,-2.44,-0.26,-0.17,-0.18
487.74,2.34,2.48,2.47,2.62,-2.62,-2.64,-2.43,-0.29,-0.15,-0.15
492.62,2.56,2.67,2.59,2.71,-2.71,-2.61,-2.41,-0.16,-0.13,-0.12
497.55,2.72,2.81,2.71,2.81,-2.81,-2.57,-2.38,-0.09,-0.10,-0.10
