frequency,raw,error,smoothed,error_smoothed,equalization,parametric_eq,fixed_band_eq,equalized_raw,equalized_smoothed,target
20.00,3.90,-2.66,3.91,-2.66,2.66,2.38,0.23,6.57,6.57,6.57
20.20,3.94,-2.62,3.94,-2.63,2.63,2.33,0.24,6.57,6.57,6.57
20.40,3.98,-2.59,3.98,-2.59,2.59,2.28,0.25,6.56,6.57,6.57
20.61,4.02,-2.54,4.02,-2.55,2.55,2.23,0.25,6.57,6.57,6.57
20.81,4.07,-2.50,4.06,-2.50,2.50,2.18,0.26,6.57,6.57,6.57
21.02,4.10,-2.46,4.11,-2.45,2.45,2.14,0.27,6.56,6.56,6.57
21.23,4.15,-2.39,4.15,-2.40,2.40,2.09,0.28,6.56,6.55,6.55
21.44,4.19,-2.35,4.19,-2.35,2.35,2.04,0.29,6.53,6.54,6.54
21.66,4.22,-2.29,4.23,-2.29,2.29,1.99,0.30,6.52,6.52,6.52
21.87,4.27,-2.23,4.27,-2.23,2.23,1.94,0.31,6.50,6.50,6.50
22.09,4.32,-2.17,4.31,-2.17,2.17,1.90,0.32,6.49,6.48,6.49
22.31,4.36,-2.10,4.36,-2.11,2.11,1.85,0.33,6.46,6.46,6.46
22.54,4.39,-2.04,4.40,-2.04,2.04,1.80,0.34,6.43,6.44,6.44
22.76,4.44,-1.97,4.44,-1.97,1.97,1.75,0.36,6.41,6.41,6.42
22.99,4.48,-1.90,4.48,-1.90,1.90,1.71,0.37,6.39,6.38,6.39
23.22,4.52,-1.83,4.53,-1.83,1.83,1.66,0.38,6.36,6.36,6.36
23.45,4.57,-1.75,4.57,-1.76,1.76,1.61,0.39,6.34,6.34,6.33
23.69,4.62,-1.69,4.62,-1.69,1.70,1.56,0.40,6.32,6.32,6.32
23.92,4.68,-1.62,4.67,-1.63,1.63,1.52,0.42,6.31,6.30,6.30
24.16,4.72,-1.57,4.72,-1.57,1.57,1.47,0.43,6.28,6.28,6.29
24.40,4.76,-1.51,4.76,-1.51,1.51,1.42,0.44,6.26,6.26,6.27
24.65,4.80,-1.44,4.80,-1.45,1.44,1.38,0.45,6.25,6.25,6.25
24.89,4.85,-1.38,4.85,-1.38,1.38,1.33,0.47,6.23,6.23,6.23
25.14,4.90,-1.32,4.89,-1.32,1.32,1.28,0.48,6.22,6.22,6.22
25.39,4.94,-1.26,4.94,-1.26,1.26,1.24,0.49,6.20,6.20,6.20
25.65,4.98,-1.20,4.98,-1.20,1.20,1.19,0.51,6.18,6.18,6.19
25.91,5.02,-1.13,5.03,-1.14,1.14,1.15,0.52,6.16,6.16,6.16
26.16,5.08,-1.07,5.07,-1.08,1.07,1.10,0.53,6.15,6.15,6.15
26.43,5.11,-1.02,5.12,-1.01,1.01,1.06,0.54,6.13,6.13,6.14
26.69,5.16,-0.94,5.17,-0.95,0.95,1.01,0.56,6.12,6.12,6.11
26.96,5.21,-0.88,5.21,-0.89,0.89,0.97,0.57,6.10,6.10,6.10
27.23,5.26,-0.82,5.26,-0.82,0.83,0.92,0.58,6.09,6.09,6.09
27.50,5.30,-0.77,5.31,-0.77,0.77,0.88,0.59,6.07,6.08,6.08
27.77,5.36,-0.70,5.35,-0.71,0.71,0.83,0.60,6.06,6.06,6.06
28.05,5.40,-0.64,5.40,-0.65,0.65,0.79,0.60,6.05,6.04,6.05
28.33,5.44,-0.59,5.44,-0.59,0.59,0.75,0.61,6.02,6.03,6.03
28.62,5.48,-0.53,5.48,-0.53,0.53,0.70,0.62,6.02,6.02,6.02
28.90,5.52,-0.47,5.52,-0.48,0.48,0.66,0.62,6.00,6.00,6.00
29.19,5.55,-0.42,5.56,-0.42,0.43,0.62,0.63,5.98,5.99,5.98
29.48,5.60,-0.37,5.60,-0.37,0.37,0.57,0.63,5.98,5.98,5.98
29.78,5.64,-0.32,5.64,-0.32,0.32,0.53,0.63,5.96,5.96,5.97
30.08,5.68,-0.27,5.68,-0.28,0.27,0.49,0.63,5.95,5.95,5.96
30.38,5.71,-0.22,5.72,-0.22,0.22,0.45,0.63,5.93,5.94,5.94
30.68,5.75,-0.17,5.75,-0.17,0.17,0.41,0.62,5.93,5.93,5.93
30.99,5.79,-0.10,5.79,-0.12,0.12,0.36,0.62,5.92,5.91,5.90
31.30,5.81,-0.07,5.82,-0.07,0.08,0.32,0.61,5.89,5.90,5.89
31.61,5.84,-0.03,5.84,-0.03,0.03,0.28,0.60,5.88,5.87,5.88
31.93,5.86,0.01,5.86,0.01,-0.01,0.24,0.59,5.85,5.85,5.86
32.24,5.88,0.05,5.88,0.05,-0.05,0.20,0.58,5.82,5.83,5.83
32.57,5.90,0.10,5.90,0.09,-0.09,0.16,0.57,5.81,5.81,5.81
32.89,5.92,0.13,5.92,0.13,-0.13,0.12,0.55,5.79,5.79,5.80
33.22,5.94,0.18,5.95,0.17,-0.17,0.09,0.54,5.77,5.77,5.77
33.55,5.96,0.21,5.96,0.21,-0.21,0.05,0.52,5.75,5.75,5.76
33.89,5.98,0.26,5.98,0.25,-0.25,0.01,0.50,5.73,5.73,5.73
34.23,5.99,0.29,6.00,0.29,-0.29,-0.03,0.48,5.70,5.71,5.71
34.57,6.02,0.34,6.02,0.33,-0.33,-0.07,0.46,5.69,5.69,5.69
34.92,6.03,0.37,6.04,0.37,-0.37,-0.10,0.43,5.67,5.67,5.67
35.27,6.05,0.41,6.05,0.40,-0.40,-0.14,0.41,5.65,5.65,5.65
35.62,6.06,0.44,6.07,0.44,-0.44,-0.18,0.39,5.62,5.63,5.63
35.97,6.08,0.48,6.08,0.48,-0.48,-0.21,0.36,5.61,5.61,5.61
36.33,6.10,0.52,6.10,0.51,-0.51,-0.25,0.33,5.59,5.59,5.59
36.70,6.10,0.54,6.11,0.54,-0.55,-0.28,0.30,5.56,5.57,5.57
37.06,6.12,0.58,6.13,0.58,-0.58,-0.32,0.28,5.54,5.55,5.55
37.43,6.14,0.62,6.14,0.61,-0.61,-0.35,0.25,5.53,5.53,5.53
37.81,6.15,0.65,6.16,0.65,-0.65,-0.39,0.22,5.51,5.51,5.51
38.19,6.16,0.69,6.17,0.68,-0.68,-0.42,0.19,5.48,5.48,5.48
38.57,6.17,0.71,6.17,0.71,-0.71,-0.45,0.16,5.46,5.46,5.47
38.95,6.18,0.75,6.19,0.75,-0.74,-0.49,0.13,5.44,5.44,5.44
39.34,6.19,0.78,6.20,0.78,-0.77,-0.52,0.09,5.42,5.42,5.42
39.74,6.20,0.81,6.20,0.80,-0.80,-0.55,0.06,5.41,5.40,5.40
40.14,6.20,0.82,6.21,0.82,-0.82,-0.58,0.03,5.38,5.38,5.39
40.54,6.20,0.84,6.21,0.84,-0.85,-0.61,-0.00,5.36,5.36,5.37
40.94,6.21,0.87,6.21,0.87,-0.87,-0.64,-0.03,5.35,5.35,5.35
41.35,6.21,0.90,6.22,0.89,-0.88,-0.67,-0.07,5.33,5.33,5.32
41.76,6.22,0.91,6.22,0.91,-0.90,-0.71,-0.10,5.32,5.32,5.32
42.18,6.21,0.92,6.22,0.92,-0.92,-0.73,-0.13,5.30,5.30,5.30
42.60,6.21,0.94,6.21,0.93,-0.94,-0.76,-0.16,5.28,5.28,5.28
43.03,6.20,0.94,6.21,0.95,-0.95,-0.79,-0.20,5.25,5.26,5.27
43.46,6.20,0.97,6.21,0.96,-0.97,-0.82,-0.23,5.24,5.24,5.24
43.90,6.20,0.99,6.20,0.98,-0.98,-0.85,-0.26,5.22,5.22,5.22
44.33,6.19,1.00,6.20,1.00,-1.00,-0.88,-0.30,5.20,5.20,5.20
44.78,6.18,1.01,6.18,1.01,-1.01,-0.91,-0.33,5.18,5.18,5.18
45.23,6.17,1.03,6.18,1.02,-1.02,-0.93,-0.37,5.15,5.15,5.15
45.68,6.16,1.04,6.17,1.04,-1.03,-0.96,-0.40,5.13,5.14,5.13
46.13,6.16,1.05,6.16,1.04,-1.04,-0.99,-0.43,5.12,5.12,5.12
46.60,6.15,1.05,6.15,1.05,-1.05,-1.02,-0.47,5.11,5.11,5.11
47.06,6.14,1.06,6.15,1.06,-1.06,-1.04,-0.50,5.09,5.09,5.09
47.53,6.13,1.07,6.13,1.06,-1.07,-1.07,-0.54,5.07,5.07,5.07
48.01,6.12,1.07,6.12,1.07,-1.08,-1.09,-0.57,5.05,5.04,5.06
48.49,6.10,1.08,6.11,1.08,-1.09,-1.12,-0.61,5.02,5.02,5.03
48.97,6.09,1.10,6.09,1.10,-1.10,-1.14,-0.64,5.00,5.00,5.00
49.46,6.08,1.12,6.08,1.11,-1.11,-1.17,-0.68,4.98,4.97,4.97
49.96,6.06,1.13,6.07,1.12,-1.12,-1.19,-0.71,4.95,4.95,4.94
50.46,6.05,1.13,6.06,1.13,-1.13,-1.22,-0.75,4.93,4.93,4.93
50.96,6.04,1.14,6.04,1.14,-1.13,-1.24,-0.79,4.91,4.91,4.91
51.47,6.02,1.15,6.02,1.14,-1.14,-1.27,-0.82,4.88,4.88,4.88
51.99,6.00,1.15,6.01,1.15,-1.15,-1.29,-0.86,4.86,4.86,4.86
52.51,5.98,1.15,5.99,1.15,-1.15,-1.32,-0.89,4.83,4.83,4.84
53.03,5.97,1.16,5.97,1.16,-1.16,-1.34,-0.93,4.81,4.81,4.82
53.56,5.95,1.17,5.96,1.17,-1.17,-1.36,-0.96,4.79,4.79,4.79
54.10,5.94,1.18,5.94,1.18,-1.17,-1.39,-1.00,4.77,4.77,4.77
54.64,5.92,1.19,5.92,1.18,-1.18,-1.41,-1.03,4.74,4.74,4.74
55.18,5.90,1.19,5.91,1.19,-1.19,-1.43,-1.07,4.71,4.72,4.72
55.74,5.89,1.21,5.89,1.20,-1.20,-1.46,-1.10,4.70,4.69,4.69
56.29,5.87,1.21,5.87,1.21,-1.21,-1.48,-1.14,4.67,4.67,4.67
56.86,5.85,1.22,5.86,1.22,-1.22,-1.50,-1.17,4.64,4.64,4.64
57.42,5.84,1.23,5.84,1.22,-1.22,-1.53,-1.20,4.62,4.62,4.62
58.00,5.82,1.23,5.83,1.23,-1.23,-1.55,-1.24,4.59,4.60,4.60
58.58,5.81,1.25,5.81,1.24,-1.24,-1.57,-1.27,4.57,4.57,4.57
59.16,5.80,1.26,5.80,1.25,-1.25,-1.60,-1.30,4.55,4.55,4.55
59.76,5.78,1.26,5.79,1.26,-1.26,-1.62,-1.33,4.52,4.52,4.53
60.35,5.77,1.28,5.77,1.27,-1.28,-1.64,-1.36,4.50,4.50,4.50
60.96,5.75,1.28,5.76,1.28,-1.29,-1.67,-1.39,4.46,4.47,4.48
61.57,5.74,1.31,5.75,1.30,-1.31,-1.69,-1.42,4.44,4.44,4.44
62.18,5.73,1.33,5.73,1.33,-1.32,-1.71,-1.44,4.41,4.41,4.41
62.80,5.72,1.35,5.72,1.35,-1.34,-1.74,-1.47,4.38,4.38,4.38
63.43,5.71,1.37,5.71,1.37,-1.36,-1.76,-1.50,4.36,4.36,4.35
64.07,5.69,1.38,5.70,1.38,-1.37,-1.79,-1.52,4.32,4.33,4.32
64.71,5.69,1.40,5.69,1.39,-1.39,-1.81,-1.55,4.31,4.30,4.30
65.35,5.67,1.40,5.68,1.40,-1.40,-1.83,-1.57,4.27,4.27,4.28
66.01,5.66,1.41,5.67,1.41,-1.42,-1.86,-1.59,4.25,4.25,4.26
66.67,5.66,1.44,5.66,1.43,-1.43,-1.88,-1.62,4.23,4.23,4.23
67.33,5.65,1.45,5.65,1.45,-1.45,-1.91,-1.64,4.21,4.21,4.21
68.01,5.64,1.47,5.65,1.47,-1.47,-1.94,-1.66,4.18,4.18,4.18
68.69,5.64,1.49,5.64,1.49,-1.49,-1.96,-1.69,4.16,4.16,4.16
69.37,5.63,1.51,5.64,1.51,-1.51,-1.99,-1.71,4.13,4.13,4.13
70.07,5.63,1.54,5.63,1.53,-1.53,-2.01,-1.73,4.11,4.10,4.10
70.77,5.62,1.55,5.63,1.55,-1.55,-2.04,-1.76,4.07,4.07,4.08
71.48,5.62,1.58,5.62,1.58,-1.58,-2.07,-1.78,4.05,4.04,4.05
72.19,5.61,1.60,5.62,1.61,-1.61,-2.10,-1.81,4.01,4.01,4.02
72.91,5.62,1.65,5.62,1.63,-1.64,-2.12,-1.83,3.99,3.98,3.98
73.64,5.61,1.67,5.61,1.67,-1.67,-2.15,-1.86,3.95,3.95,3.95
74.38,5.60,1.69,5.61,1.70,-1.70,-2.18,-1.88,3.90,3.91,3.92
75.12,5.61,1.75,5.61,1.73,-1.73,-2.21,-1.91,3.88,3.88,3.87
75.87,5.61,1.78,5.61,1.77,-1.77,-2.24,-1.94,3.85,3.84,3.84
76.63,5.60,1.80,5.61,1.81,-1.80,-2.27,-1.97,3.80,3.81,3.81
77.40,5.60,1.84,5.60,1.84,-1.84,-2.30,-2.00,3.77,3.76,3.77
78.17,5.59,1.89,5.60,1.87,-1.88,-2.33,-2.03,3.72,3.72,3.71
78.95,5.59,1.91,5.60,1.91,-1.91,-2.36,-2.07,3.68,3.68,3.69
79.74,5.59,1.95,5.59,1.95,-1.96,-2.39,-2.10,3.64,3.64,3.65
80.54,5.59,2.00,5.59,1.99,-2.00,-2.43,-2.14,3.60,3.60,3.60
81.35,5.59,2.04,5.59,2.04,-2.04,-2.46,-2.18,3.56,3.56,3.56
82.16,5.59,2.09,5.60,2.09,-2.08,-2.49,-2.22,3.51,3.52,3.51
82.98,5.59,2.13,5.59,2.13,-2.13,-2.52,-2.26,3.47,3.47,3.47
83.81,5.59,2.19,5.59,2.17,-2.17,-2.56,-2.30,3.42,3.42,3.41
84.65,5.57,2.21,5.59,2.22,-2.22,-2.59,-2.35,3.36,3.37,3.37
85.50,5.58,2.26,5.58,2.26,-2.26,-2.62,-2.40,3.32,3.32,3.33
86.35,5.58,2.31,5.58,2.30,-2.31,-2.66,-2.45,3.28,3.27,3.28
87.22,5.57,2.35,5.58,2.36,-2.35,-2.69,-2.50,3.22,3.23,3.23
88.09,5.58,2.42,5.58,2.40,-2.40,-2.73,-2.55,3.18,3.18,3.17
88.97,5.57,2.45,5.58,2.45,-2.45,-2.76,-2.61,3.12,3.13,3.13
89.86,5.57,2.50,5.58,2.50,-2.50,-2.80,-2.66,3.07,3.08,3.08
90.76,5.57,2.56,5.57,2.55,-2.55,-2.84,-2.72,3.02,3.02,3.02
91.66,5.57,2.61,5.57,2.60,-2.60,-2.87,-2.79,2.97,2.97,2.97
92.58,5.56,2.66,5.57,2.65,-2.65,-2.91,-2.85,2.91,2.91,2.91
93.51,5.56,2.70,5.57,2.70,-2.71,-2.95,-2.91,2.86,2.86,2.87
94.44,5.57,2.76,5.57,2.76,-2.76,-2.98,-2.98,2.81,2.81,2.82
95.39,5.57,2.82,5.57,2.81,-2.82,-3.02,-3.05,2.76,2.76,2.76
96.34,5.56,2.88,5.57,2.87,-2.87,-3.06,-3.12,2.69,2.70,2.69
97.30,5.56,2.93,5.57,2.93,-2.93,-3.09,-3.19,2.64,2.64,2.64
98.28,5.56,2.99,5.56,2.99,-2.99,-3.13,-3.27,2.58,2.58,2.58
99.26,5.56,3.06,5.56,3.05,-3.05,-3.17,-3.34,2.52,2.52,2.51
100.25,5.56,3.11,5.56,3.11,-3.11,-3.21,-3.42,2.46,2.45,2.46
101.25,5.55,3.16,5.56,3.17,-3.17,-3.25,-3.49,2.39,2.39,2.40
102.27,5.55,3.23,5.56,3.23,-3.22,-3.28,-3.57,2.33,2.33,2.33
103.29,5.55,3.30,5.55,3.29,-3.28,-3.32,-3.65,2.27,2.27,2.26
104.32,5.55,3.35,5.55,3.35,-3.34,-3.36,-3.72,2.21,2.21,2.21
105.37,5.54,3.40,5.54,3.40,-3.40,-3.40,-3.80,2.14,2.14,2.15
106.42,5.53,3.46,5.54,3.46,-3.47,-3.44,-3.88,2.07,2.07,2.08
107.48,5.53,3.53,5.53,3.53,-3.53,-3.47,-3.95,2.01,2.01,2.01
108.56,5.53,3.60,5.53,3.59,-3.59,-3.51,-4.02,1.94,1.94,1.94
109.64,5.53,3.66,5.54,3.66,-3.66,-3.55,-4.10,1.88,1.88,1.88
110.74,5.53,3.72,5.54,3.72,-3.72,-3.59,-4.16,1.81,1.81,1.82
111.85,5.53,3.79,5.53,3.78,-3.79,-3.63,-4.23,1.75,1.74,1.75
112.97,5.52,3.86,5.53,3.85,-3.85,-3.66,-4.29,1.67,1.67,1.67
114.10,5.51,3.91,5.52,3.91,-3.92,-3.70,-4.35,1.60,1.60,1.61
115.24,5.51,3.98,5.51,3.98,-3.98,-3.74,-4.41,1.54,1.54,1.54
116.39,5.50,4.04,5.50,4.04,-4.03,-3.78,-4.46,1.47,1.47,1.47
117.55,5.49,4.10,5.49,4.09,-4.09,-3.81,-4.50,1.41,1.41,1.40
118.73,5.47,4.14,5.48,4.14,-4.13,-3.85,-4.54,1.34,1.34,1.34
119.92,5.45,4.18,5.46,4.18,-4.18,-3.89,-4.57,1.28,1.28,1.28
121.12,5.43,4.22,5.43,4.22,-4.21,-3.93,-4.60,1.22,1.22,1.22
122.33,5.40,4.26,5.40,4.25,-4.25,-3.96,-4.62,1.16,1.16,1.15
123.55,5.37,4.28,5.37,4.28,-4.28,-4.00,-4.64,1.10,1.10,1.10
124.79,5.33,4.30,5.34,4.30,-4.30,-4.03,-4.64,1.03,1.04,1.04
126.03,5.30,4.32,5.30,4.32,-4.32,-4.07,-4.64,0.98,0.98,0.99
127.29,5.26,4.34,5.27,4.34,-4.34,-4.10,-4.64,0.92,0.92,0.93
128.57,5.22,4.37,5.23,4.36,-4.36,-4.14,-4.63,0.87,0.87,0.86
129.85,5.18,4.38,5.18,4.38,-4.37,-4.17,-4.60,0.81,0.81,0.81
131.15,5.13,4.38,5.14,4.38,-4.38,-4.21,-4.58,0.75,0.76,0.76
132.46,5.09,4.40,5.09,4.39,-4.39,-4.24,-4.55,0.71,0.70,0.70
133.79,5.04,4.39,5.05,4.40,-4.39,-4.27,-4.51,0.65,0.65,0.66
135.12,5.00,4.41,5.00,4.39,-4.39,-4.29,-4.47,0.61,0.61,0.60
136.48,4.95,4.39,4.95,4.39,-4.39,-4.32,-4.42,0.56,0.56,0.57
137.84,4.90,4.38,4.91,4.39,-4.39,-4.35,-4.37,0.52,0.52,0.53
139.22,4.86,4.39,4.87,4.38,-4.38,-4.37,-4.31,0.48,0.48,0.48
140.61,4.82,4.39,4.82,4.38,-4.38,-4.39,-4.25,0.45,0.45,0.44
142.02,4.78,4.37,4.78,4.37,-4.37,-4.41,-4.19,0.42,0.42,0.42
143.44,4.73,4.35,4.74,4.36,-4.36,-4.42,-4.12,0.38,0.38,0.39
144.87,4.69,4.35,4.69,4.34,-4.34,-4.43,-4.06,0.35,0.35,0.35
146.32,4.65,4.34,4.65,4.33,-4.33,-4.43,-3.99,0.32,0.32,0.32
147.78,4.60,4.31,4.61,4.32,-4.32,-4.44,-3.92,0.29,0.29,0.30
149.26,4.57,4.31,4.57,4.30,-4.30,-4.43,-3.85,0.27,0.26,0.27
150.75,4.52,4.30,4.52,4.29,-4.29,-4.43,-3.78,0.24,0.24,0.23
152.26,4.47,4.27,4.48,4.27,-4.27,-4.42,-3.71,0.20,0.21,0.21
153.78,4.43,4.26,4.43,4.25,-4.26,-4.40,-3.64,0.18,0.18,0.18
155.32,4.39,4.24,4.39,4.23,-4.24,-4.38,-3.57,0.16,0.15,0.16
156.88,4.34,4.22,4.35,4.22,-4.22,-4.36,-3.50,0.12,0.13,0.13
158.44,4.29,4.20,4.30,4.20,-4.20,-4.33,-3.43,0.09,0.10,0.10
160.03,4.25,4.19,4.25,4.18,-4.18,-4.30,-3.37,0.07,0.07,0.07
161.63,4.19,4.16,4.20,4.16,-4.16,-4.26,-3.30,0.03,0.04,0.04
163.24,4.15,4.15,4.15,4.14,-4.14,-4.23,-3.24,0.02,0.02,0.01
164.88,4.10,4.12,4.10,4.11,-4.11,-4.18,-3.18,-0.01,-0.01,-0.01
166.53,4.04,4.08,4.05,4.09,-4.08,-4.14,-3.12,-0.04,-0.04,-0.03
168.19,3.98,4.06,3.99,4.06,-4.06,-4.09,-3.06,-0.07,-0.07,-0.07
169.87,3.92,4.03,3.93,4.02,-4.03,-4.04,-3.00,-0.10,-0.10,-0.10
171.57,3.86,4.00,3.86,3.99,-3.99,-3.99,-2.95,-0.13,-0.13,-0.13
173.29,3.79,3.95,3.80,3.95,-3.96,-3.94,-2.90,-0.16,-0.16,-0.15
175.02,3.72,3.92,3.73,3.92,-3.92,-3.88,-2.85,-0.19,-0.19,-0.19
176.77,3.65,3.89,3.65,3.88,-3.88,-3.83,-2.80,-0.23,-0.23,-0.23
178.54,3.57,3.85,3.58,3.84,-3.84,-3.77,-2.76,-0.27,-0.26,-0.27
180.32,3.49,3.80,3.50,3.80,-3.80,-3.71,-2.71,-0.30,-0.30,-0.30
182.13,3.41,3.75,3.41,3.75,-3.75,-3.65,-2.67,-0.34,-0.34,-0.33
183.95,3.32,3.70,3.33,3.70,-3.71,-3.59,-2.63,-0.38,-0.38,-0.37
185.79,3.24,3.66,3.25,3.66,-3.65,-3.53,-2.60,-0.41,-0.41,-0.41
187.65,3.16,3.62,3.16,3.61,-3.60,-3.47,-2.56,-0.43,-0.44,-0.45
189.52,3.06,3.55,3.07,3.55,-3.54,-3.41,-2.53,-0.47,-0.47,-0.48
191.42,2.97,3.48,2.98,3.48,-3.48,-3.35,-2.50,-0.50,-0.50,-0.50
193.33,2.88,3.41,2.88,3.40,-3.42,-3.29,-2.47,-0.53,-0.54,-0.52
195.27,2.78,3.34,2.78,3.34,-3.35,-3.22,-2.44,-0.56,-0.56,-0.55
197.22,2.68,3.27,2.69,3.28,-3.28,-3.16,-2.42,-0.59,-0.59,-0.58
199.19,2.59,3.23,2.59,3.21,-3.21,-3.09,-2.40,-0.61,-0.61,-0.63
201.18,2.50,3.15,2.50,3.15,-3.14,-3.03,-2.37,-0.63,-0.64,-0.64
203.19,2.40,3.07,2.41,3.07,-3.06,-2.96,-2.35,-0.66,-0.66,-0.66
205.23,2.30,2.99,2.31,2.99,-2.99,-2.90,-2.33,-0.69,-0.68,-0.68
207.28,2.21,2.91,2.21,2.91,-2.92,-2.83,-2.32,-0.70,-0.70,-0.69
209.35,2.11,2.84,2.12,2.84,-2.84,-2.76,-2.30,-0.73,-0.72,-0.72
211.44,2.03,2.78,2.03,2.77,-2.77,-2.70,-2.28,-0.73,-0.74,-0.74
213.56,1.93,2.70,1.94,2.69,-2.69,-2.63,-2.27,-0.76,-0.76,-0.76
215.69,1.84,2.61,1.85,2.61,-2.62,-2.56,-2.25,-0.77,-0.77,-0.76
217.85,1.75,2.53,1.76,2.54,-2.54,-2.49,-2.24,-0.79,-0.78,-0.77
220.03,1.67,2.48,1.67,2.47,-2.47,-2.41,-2.22,-0.79,-0.79,-0.80
222.23,1.59,2.41,1.59,2.40,-2.39,-2.34,-2.21,-0.79,-0.80,-0.81
224.45,1.50,2.31,1.50,2.32,-2.31,-2.27,-2.19,-0.80,-0.80,-0.80
226.70,1.41,2.23,1.42,2.23,-2.23,-2.19,-2.18,-0.81,-0.81,-0.81
228.96,1.33,2.15,1.33,2.14,-2.14,-2.12,-2.16,-0.81,-0.81,-0.81
231.25,1.25,2.06,1.25,2.06,-2.06,-2.04,-2.15,-0.81,-0.81,-0.80
233.57,1.17,1.97,1.17,1.97,-1.98,-1.96,-2.13,-0.80,-0.80,-0.79
235.90,1.09,1.89,1.10,1.89,-1.89,-1.89,-2.11,-0.80,-0.79,-0.79
238.26,1.02,1.82,1.03,1.81,-1.81,-1.81,-2.09,-0.78,-0.78,-0.79
240.64,0.95,1.73,0.96,1.73,-1.72,-1.73,-2.07,-0.77,-0.77,-0.77
243.05,0.89,1.65,0.89,1.64,-1.64,-1.65,-2.05,-0.75,-0.75,-0.75
245.48,0.81,1.55,0.82,1.56,-1.56,-1.57,-2.02,-0.74,-0.74,-0.73
247.93,0.75,1.48,0.76,1.48,-1.48,-1.49,-2.00,-0.72,-0.72,-0.72
250.41,0.70,1.42,0.70,1.40,-1.40,-1.41,-1.97,-0.69,-0.70,-0.71
252.92,0.64,1.32,0.64,1.32,-1.32,-1.33,-1.94,-0.68,-0.68,-0.67
255.45,0.58,1.24,0.59,1.24,-1.25,-1.25,-1.91,-0.66,-0.66,-0.65
258.00,0.53,1.17,0.54,1.17,-1.17,-1.17,-1.88,-0.64,-0.64,-0.63
260.58,0.49,1.11,0.49,1.10,-1.10,-1.09,-1.85,-0.61,-0.61,-0.61
263.19,0.44,1.04,0.45,1.04,-1.04,-1.01,-1.81,-0.59,-0.59,-0.59
265.82,0.40,0.98,0.41,0.97,-0.97,-0.94,-1.78,-0.57,-0.56,-0.57
268.48,0.36,0.91,0.37,0.91,-0.91,-0.86,-1.74,-0.55,-0.54,-0.54
271.16,0.34,0.86,0.34,0.85,-0.85,-0.79,-1.70,-0.51,-0.52,-0.51
273.87,0.30,0.80,0.31,0.79,-0.80,-0.72,-1.66,-0.49,-0.49,-0.49
276.61,0.27,0.74,0.28,0.74,-0.75,-0.66,-1.62,-0.47,-0.47,-0.46
279.38,0.25,0.70,0.25,0.69,-0.70,-0.60,-1.57,-0.44,-0.44,-0.44
282.17,0.23,0.66,0.23,0.65,-0.65,-0.54,-1.53,-0.42,-0.42,-0.42
284.99,0.21,0.61,0.22,0.61,-0.61,-0.49,-1.48,-0.39,-0.39,-0.39
287.84,0.19,0.57,0.20,0.57,-0.57,-0.44,-1.44,-0.37,-0.37,-0.37
290.72,0.19,0.53,0.19,0.52,-0.53,-0.40,-1.39,-0.33,-0.34,-0.33
293.63,0.17,0.49,0.18,0.49,-0.49,-0.36,-1.35,-0.31,-0.31,-0.31
296.57,0.16,0.45,0.17,0.45,-0.45,-0.32,-1.30,-0.28,-0.28,-0.28
299.53,0.16,0.42,0.16,0.42,-0.41,-0.29,-1.25,-0.25,-0.25,-0.25
302.53,0.15,0.39,0.16,0.38,-0.38,-0.26,-1.20,-0.22,-0.22,-0.23
305.55,0.15,0.34,0.15,0.34,-0.34,-0.23,-1.16,-0.19,-0.19,-0.18
308.61,0.15,0.31,0.16,0.31,-0.31,-0.21,-1.11,-0.16,-0.15,-0.15
311.69,0.16,0.28,0.16,0.28,-0.28,-0.19,-1.06,-0.12,-0.12,-0.11
314.81,0.17,0.26,0.17,0.25,-0.25,-0.17,-1.01,-0.08,-0.08,-0.08
317.96,0.17,0.23,0.18,0.23,-0.23,-0.16,-0.97,-0.05,-0.05,-0.05
321.14,0.18,0.21,0.18,0.21,-0.21,-0.14,-0.92,-0.02,-0.02,-0.02
324.35,0.19,0.20,0.19,0.19,-0.19,-0.13,-0.87,0.01,0.01,-0.00
327.59,0.20,0.17,0.21,0.17,-0.17,-0.11,-0.83,0.03,0.03,0.04
330.87,0.22,0.16,0.22,0.16,-0.16,-0.10,-0.78,0.06,0.06,0.07
334.18,0.23,0.15,0.24,0.15,-0.15,-0.09,-0.73,0.08,0.09,0.09
337.52,0.25,0.15,0.25,0.14,-0.14,-0.08,-0.69,0.11,0.11,0.11
340.90,0.26,0.13,0.27,0.13,-0.14,-0.07,-0.64,0.13,0.13,0.14
344.30,0.28,0.13,0.28,0.12,-0.13,-0.06,-0.60,0.16,0.16,0.16
347.75,0.29,0.11,0.30,0.12,-0.11,-0.04,-0.55,0.18,0.19,0.19
351.23,0.32,0.12,0.32,0.11,-0.10,-0.03,-0.51,0.22,0.22,0.21
354.74,0.32,0.11,0.32,0.10,-0.08,-0.02,-0.46,0.24,0.24,0.22
358.28,0.30,0.07,0.31,0.07,-0.06,-0.01,-0.42,0.24,0.25,0.24
361.87,0.29,0.04,0.30,0.04,-0.04,0.01,-0.38,0.26,0.26,0.26
365.49,0.28,-0.00,0.28,0.00,-0.01,0.02,-0.33,0.27,0.27,0.29
369.14,0.27,-0.02,0.28,-0.02,0.01,0.04,-0.29,0.29,0.29,0.30
372.83,0.26,-0.04,0.27,-0.05,0.04,0.05,-0.25,0.31,0.31,0.31
376.56,0.26,-0.06,0.26,-0.07,0.07,0.07,-0.20,0.34,0.34,0.33
380.33,0.25,-0.10,0.26,-0.10,0.10,0.08,-0.16,0.36,0.36,0.36
384.13,0.25,-0.12,0.25,-0.12,0.13,0.10,-0.12,0.38,0.38,0.38
387.97,0.24,-0.15,0.25,-0.15,0.15,0.12,-0.08,0.39,0.40,0.40
391.85,0.24,-0.17,0.25,-0.18,0.17,0.14,-0.04,0.42,0.42,0.42
395.77,0.24,-0.20,0.24,-0.20,0.20,0.16,0.00,0.44,0.44,0.45
399.73,0.24,-0.22,0.24,-0.22,0.22,0.17,0.04,0.46,0.46,0.47
403.72,0.24,-0.23,0.24,-0.24,0.24,0.19,0.08,0.49,0.49,0.48
407.76,0.24,-0.25,0.24,-0.26,0.26,0.21,0.12,0.51,0.51,0.50
411.84,0.24,-0.28,0.24,-0.28,0.28,0.23,0.16,0.53,0.52,0.53
415.96,0.24,-0.30,0.25,-0.30,0.30,0.25,0.20,0.55,0.55,0.55
420.12,0.24,-0.32,0.25,-0.32,0.32,0.27,0.24,0.57,0.57,0.57
424.32,0.25,-0.34,0.25,-0.34,0.35,0.29,0.27,0.60,0.60,0.60
428.56,0.25,-0.36,0.25,-0.36,0.37,0.31,0.31,0.62,0.62,0.62
432.85,0.25,-0.38,0.26,-0.38,0.39,0.32,0.35,0.64,0.65,0.64
437.18,0.26,-0.40,0.26,-0.41,0.41,0.34,0.38,0.67,0.66,0.67
441.55,0.26,-0.43,0.26,-0.43,0.42,0.36,0.42,0.68,0.68,0.70
445.96,0.26,-0.45,0.27,-0.44,0.43,0.38,0.45,0.69,0.70,0.72
450.42,0.29,-0.43,0.29,-0.44,0.44,0.40,0.48,0.73,0.73,0.73
454.93,0.32,-0.44,0.32,-0.44,0.44,0.41,0.52,0.77,0.76,0.77
459.48,0.35,-0.43,0.35,-0.44,0.44,0.43,0.55,0.80,0.80,0.79
464.07,0.38,-0.43,0.38,-0.44,0.45,0.45,0.58,0.83,0.83,0.82
468.71,0.40,-0.45,0.41,-0.44,0.45,0.46,0.61,0.85,0.86,0.86
473.40,0.43,-0.44,0.43,-0.45,0.45,0.48,0.63,0.88,0.88,0.88
478.13,0.45,-0.45,0.45,-0.45,0.45,0.49,0.66,0.91,0.91,0.91
482.91,0.47,-0.46,0.48,-0.46,0.46,0.51,0.69,0.93,0.94,0.94
487.74,0.50,-0.46,0.50,-0.47,0.47,0.52,0.71,0.97,0.97,0.97
492.62,0.52,-0.47,0.52,-0.47,0.47,0.53,0.73,1.00,1.00,1.00
497.55,0.54,-0.47,0.55,-0.48,0.48,0.54,0.75,1.03,1.03,1.02
502.52,0.56,-0.49,0.56,-0.49,0.49,0.55,0.77,1.05,1.05,1.06
507.55,0.58,-0.49,0.58,-0.50,0.50,0.56,0.79,1.08,1.08,1.08
512.62,0.60,-0.50,0.60,-0.51,0.50,0.57,0.81,1.11,1.11,1.11
517.75,0.62,-0.51,0.62,-0.51,0.51,0.58,0.83,1.13,1.13,1.14
522.93,0.64,-0.52,0.65,-0.52,0.52,0.58,0.84,1.16,1.16,1.17
528.16,0.66,-0.52,0.67,-0.52,0.52,0.59,0.86,1.19,1.19,1.19
533.44,0.69,-0.52,0.69,-0.53,0.53,0.59,0.87,1.22,1.22,1.22
538.77,0.71,-0.53,0.71,-0.53,0.54,0.60,0.88,1.25,1.25,1.25
