frequency,raw,error,smoothed,error_smoothed,equalization,parametric_eq,fixed_band_eq,equalized_raw,equalized_smoothed,target
20.00,-9.41,-12.13,-9.41,-12.16,12.16,11.38,4.79,2.75,2.75,2.72
20.20,-9.31,-12.12,-9.31,-12.14,12.14,11.47,4.92,2.83,2.82,2.81
20.40,-9.22,-12.11,-9.22,-12.11,12.11,11.56,5.04,2.90,2.90,2.89
20.61,-9.12,-12.08,-9.12,-12.09,12.09,11.64,5.17,2.97,2.97,2.96
20.81,-9.03,-12.08,-9.02,-12.06,12.06,11.71,5.31,3.04,3.04,3.05
21.02,-8.93,-12.06,-8.93,-12.03,12.03,11.77,5.45,3.10,3.10,3.13
21.23,-8.84,-12.03,-8.83,-12.00,12.00,11.82,5.59,3.16,3.17,3.19
21.44,-8.74,-11.99,-8.74,-11.96,11.96,11.86,5.73,3.23,3.23,3.25
21.66,-8.65,-11.95,-8.64,-11.93,11.93,11.89,5.88,3.28,3.28,3.30
21.87,-8.55,-11.89,-8.55,-11.88,11.88,11.90,6.04,3.34,3.34,3.35
22.09,-8.46,-11.85,-8.45,-11.84,11.84,11.91,6.20,3.39,3.39,3.40
22.31,-8.36,-11.80,-8.35,-11.80,11.80,11.91,6.36,3.44,3.44,3.45
22.54,-8.26,-11.74,-8.26,-11.74,11.74,11.89,6.52,3.49,3.49,3.49
22.76,-8.16,-11.68,-8.16,-11.69,11.69,11.87,6.69,3.53,3.53,3.53
22.99,-8.06,-11.61,-8.06,-11.63,11.63,11.84,6.87,3.57,3.57,3.55
23.22,-7.97,-11.56,-7.97,-11.57,11.57,11.79,7.05,3.60,3.60,3.59
23.45,-7.87,-11.50,-7.87,-11.51,11.51,11.74,7.23,3.65,3.64,3.63
23.69,-7.78,-11.45,-7.77,-11.45,11.45,11.68,7.42,3.67,3.68,3.67
23.92,-7.68,-11.39,-7.68,-11.39,11.39,11.61,7.61,3.72,3.71,3.71
24.16,-7.59,-11.35,-7.58,-11.33,11.33,11.54,7.81,3.74,3.75,3.76
24.40,-7.49,-11.28,-7.49,-11.27,11.27,11.46,8.01,3.78,3.78,3.79
24.65,-7.40,-11.22,-7.39,-11.21,11.21,11.37,8.21,3.81,3.82,3.82
24.89,-7.30,-11.14,-7.29,-11.15,11.15,11.28,8.42,3.85,3.85,3.85
25.14,-7.20,-11.08,-7.20,-11.08,11.08,11.19,8.63,3.89,3.88,3.89
25.39,-7.11,-11.02,-7.11,-11.02,11.02,11.09,8.84,3.92,3.92,3.92
25.65,-7.01,-10.96,-7.01,-10.96,10.96,10.99,9.06,3.95,3.95,3.95
25.91,-6.92,-10.89,-6.92,-10.90,10.90,10.88,9.28,3.98,3.98,3.97
26.16,-6.82,-10.82,-6.82,-10.83,10.83,10.78,9.50,4.02,4.01,4.00
26.43,-6.73,-10.77,-6.73,-10.77,10.77,10.67,9.73,4.04,4.04,4.04
26.69,-6.64,-10.71,-6.63,-10.70,10.70,10.56,9.95,4.07,4.07,4.07
26.96,-6.54,-10.64,-6.54,-10.64,10.64,10.45,10.17,4.10,4.10,4.10
27.23,-6.45,-10.58,-6.45,-10.57,10.57,10.34,10.39,4.13,4.13,4.14
27.50,-6.36,-10.52,-6.35,-10.51,10.51,10.24,10.61,4.15,4.16,4.17
27.77,-6.27,-10.45,-6.26,-10.45,10.45,10.13,10.82,4.18,4.19,4.18
28.05,-6.17,-10.39,-6.17,-10.39,10.39,10.02,11.03,4.22,4.22,4.22
28.33,-6.08,-10.32,-6.08,-10.32,10.32,9.91,11.23,4.25,4.25,4.24
28.62,-5.99,-10.26,-5.99,-10.26,10.26,9.81,11.42,4.28,4.28,4.27
28.90,-5.90,-10.20,-5.90,-10.21,10.21,9.71,11.60,4.31,4.31,4.31
29.19,-5.81,-10.13,-5.81,-10.15,10.15,9.61,11.76,4.34,4.34,4.33
29.48,-5.72,-10.09,-5.73,-10.09,10.09,9.51,11.91,4.37,4.36,4.37
29.78,-5.64,-10.03,-5.64,-10.03,10.03,9.41,12.05,4.40,4.39,4.39
30.08,-5.55,-9.97,-5.56,-9.98,9.98,9.32,12.16,4.43,4.42,4.42
30.38,-5.48,-9.93,-5.48,-9.93,9.93,9.23,12.25,4.45,4.44,4.45
30.68,-5.41,-9.88,-5.40,-9.87,9.87,9.14,12.32,4.47,4.47,4.48
30.99,-5.33,-9.82,-5.33,-9.82,9.82,9.05,12.37,4.49,4.50,4.49
31.30,-5.26,-9.78,-5.25,-9.77,9.77,8.97,12.39,4.51,4.52,4.52
31.61,-5.18,-9.73,-5.17,-9.72,9.72,8.89,12.39,4.54,4.55,4.55
31.93,-5.10,-9.66,-5.10,-9.67,9.67,8.82,12.36,4.57,4.57,4.57
32.24,-5.03,-9.61,-5.02,-9.62,9.62,8.74,12.31,4.59,4.59,4.58
32.57,-4.95,-9.56,-4.95,-9.56,9.56,8.67,12.24,4.61,4.61,4.61
32.89,-4.88,-9.51,-4.88,-9.51,9.51,8.60,12.15,4.63,4.63,4.64
33.22,-4.81,-9.46,-4.80,-9.45,9.45,8.54,12.04,4.64,4.65,4.65
33.55,-4.73,-9.40,-4.73,-9.39,9.39,8.48,11.92,4.67,4.67,4.67
33.89,-4.66,-9.33,-4.65,-9.33,9.33,8.42,11.78,4.68,4.68,4.68
34.23,-4.58,-9.28,-4.58,-9.27,9.27,8.37,11.63,4.70,4.70,4.70
34.57,-4.50,-9.21,-4.50,-9.21,9.21,8.32,11.46,4.72,4.71,4.71
34.92,-4.43,-9.14,-4.43,-9.15,9.15,8.27,11.29,4.72,4.72,4.72
35.27,-4.36,-9.09,-4.36,-9.08,9.08,8.22,11.12,4.73,4.73,4.73
35.62,-4.29,-9.02,-4.28,-9.02,9.02,8.18,10.93,4.73,4.74,4.73
35.97,-4.22,-8.95,-4.21,-8.95,8.95,8.14,10.75,4.74,4.74,4.74
36.33,-4.14,-8.89,-4.14,-8.88,8.88,8.11,10.56,4.75,4.74,4.75
36.70,-4.07,-8.81,-4.07,-8.81,8.81,8.07,10.37,4.75,4.75,4.75
37.06,-4.00,-8.74,-4.00,-8.74,8.74,8.04,10.18,4.75,4.75,4.74
37.43,-3.93,-8.67,-3.93,-8.67,8.67,8.01,10.00,4.75,4.74,4.75
37.81,-3.86,-8.60,-3.86,-8.60,8.60,7.98,9.81,4.74,4.74,4.74
38.19,-3.79,-8.52,-3.79,-8.53,8.53,7.96,9.63,4.74,4.74,4.74
38.57,-3.72,-8.46,-3.72,-8.45,8.45,7.94,9.45,4.74,4.74,4.74
38.95,-3.66,-8.39,-3.65,-8.38,8.38,7.91,9.27,4.72,4.73,4.74
39.34,-3.59,-8.31,-3.58,-8.31,8.31,7.89,9.10,4.72,4.73,4.72
39.74,-3.52,-8.23,-3.51,-8.23,8.23,7.87,8.93,4.72,4.72,4.71
40.14,-3.46,-8.17,-3.45,-8.16,8.16,7.86,8.77,4.70,4.71,4.71
40.54,-3.38,-8.08,-3.38,-8.09,8.09,7.84,8.62,4.71,4.71,4.70
40.94,-3.31,-8.00,-3.32,-8.02,8.02,7.82,8.46,4.71,4.70,4.70
41.35,-3.25,-7.93,-3.25,-7.94,7.94,7.80,8.32,4.70,4.69,4.69
41.76,-3.19,-7.87,-3.19,-7.87,7.87,7.78,8.17,4.68,4.68,4.68
42.18,-3.13,-7.80,-3.13,-7.80,7.80,7.77,8.04,4.67,4.67,4.67
42.60,-3.07,-7.72,-3.07,-7.73,7.73,7.75,7.91,4.66,4.66,4.66
43.03,-3.02,-7.67,-3.01,-7.65,7.65,7.72,7.78,4.64,4.64,4.66
43.46,-2.96,-7.60,-2.95,-7.58,7.58,7.70,7.66,4.63,4.63,4.64
43.90,-2.90,-7.52,-2.90,-7.52,7.52,7.68,7.54,4.62,4.62,4.62
44.33,-2.85,-7.45,-2.84,-7.45,7.45,7.65,7.43,4.60,4.61,4.60
44.78,-2.79,-7.38,-2.79,-7.39,7.39,7.62,7.33,4.60,4.60,4.59
45.23,-2.73,-7.30,-2.74,-7.32,7.32,7.59,7.23,4.59,4.58,4.57
45.68,-2.69,-7.25,-2.69,-7.26,7.26,7.55,7.13,4.57,4.57,4.56
46.13,-2.64,-7.19,-2.63,-7.19,7.19,7.51,7.04,4.56,4.56,4.55
46.60,-2.58,-7.13,-2.58,-7.13,7.13,7.47,6.96,4.55,4.55,4.55
47.06,-2.53,-7.07,-2.53,-7.07,7.07,7.42,6.88,4.54,4.53,4.54
47.53,-2.49,-7.01,-2.48,-7.01,7.01,7.37,6.80,4.52,4.52,4.53
48.01,-2.44,-6.96,-2.43,-6.95,6.95,7.32,6.73,4.51,4.51,4.53
48.49,-2.39,-6.90,-2.38,-6.89,6.89,7.26,6.66,4.50,4.51,4.51
48.97,-2.34,-6.84,-2.34,-6.83,6.83,7.19,6.60,4.50,4.50,4.50
49.46,-2.29,-6.76,-2.29,-6.78,6.78,7.13,6.54,4.49,4.49,4.48
49.96,-2.24,-6.70,-2.24,-6.72,6.72,7.06,6.48,4.49,4.48,4.46
50.46,-2.19,-6.66,-2.19,-6.67,6.67,6.98,6.43,4.48,4.48,4.47
50.96,-2.14,-6.61,-2.14,-6.61,6.61,6.90,6.38,4.47,4.47,4.47
51.47,-2.09,-6.55,-2.09,-6.55,6.55,6.82,6.33,4.47,4.46,4.46
51.99,-2.04,-6.49,-2.04,-6.49,6.49,6.74,6.28,4.46,4.46,4.45
52.51,-1.99,-6.44,-1.98,-6.43,6.43,6.65,6.24,4.45,4.45,4.46
53.03,-1.94,-6.39,-1.93,-6.37,6.37,6.56,6.20,4.43,4.44,4.45
53.56,-1.88,-6.32,-1.88,-6.31,6.31,6.47,6.16,4.43,4.43,4.44
54.10,-1.83,-6.26,-1.82,-6.24,6.24,6.37,6.12,4.42,4.42,4.43
54.64,-1.77,-6.18,-1.76,-6.18,6.18,6.27,6.09,4.41,4.41,4.41
55.18,-1.71,-6.11,-1.71,-6.11,6.11,6.18,6.05,4.40,4.40,4.40
55.74,-1.65,-6.03,-1.65,-6.04,6.04,6.08,6.01,4.39,4.39,4.38
56.29,-1.59,-5.96,-1.59,-5.96,5.96,5.98,5.98,4.37,4.37,4.37
56.86,-1.53,-5.88,-1.53,-5.88,5.88,5.88,5.94,4.35,4.36,4.35
57.42,-1.46,-5.79,-1.46,-5.80,5.80,5.78,5.90,4.34,4.34,4.33
58.00,-1.40,-5.71,-1.40,-5.72,5.72,5.67,5.86,4.32,4.32,4.32
58.58,-1.34,-5.63,-1.34,-5.63,5.63,5.57,5.82,4.29,4.29,4.29
59.16,-1.28,-5.56,-1.27,-5.54,5.54,5.48,5.77,4.26,4.27,4.28
59.76,-1.22,-5.47,-1.21,-5.44,5.44,5.38,5.73,4.23,4.24,4.25
60.35,-1.15,-5.36,-1.14,-5.35,5.35,5.28,5.68,4.20,4.21,4.22
60.96,-1.08,-5.28,-1.08,-5.26,5.26,5.18,5.62,4.18,4.18,4.20
61.57,-1.02,-5.17,-1.01,-5.17,5.17,5.09,5.57,4.15,4.16,4.15
62.18,-0.96,-5.07,-0.95,-5.08,5.08,5.00,5.51,4.12,4.13,4.12
62.80,-0.89,-4.98,-0.89,-4.99,4.99,4.91,5.45,4.11,4.10,4.10
63.43,-0.83,-4.88,-0.83,-4.91,4.91,4.82,5.38,4.08,4.07,4.06
64.07,-0.76,-4.79,-0.78,-4.82,4.82,4.74,5.31,4.07,4.05,4.03
64.71,-0.71,-4.72,-0.72,-4.75,4.75,4.65,5.24,4.04,4.02,4.01
65.35,-0.67,-4.66,-0.67,-4.67,4.67,4.57,5.16,4.01,4.00,3.99
66.01,-0.62,-4.59,-0.62,-4.60,4.60,4.50,5.08,3.98,3.98,3.98
66.67,-0.58,-4.54,-0.57,-4.53,4.53,4.42,5.00,3.96,3.96,3.96
67.33,-0.54,-4.48,-0.53,-4.47,4.47,4.35,4.91,3.94,3.95,3.95
68.01,-0.50,-4.43,-0.48,-4.41,4.41,4.29,4.82,3.92,3.93,3.93
68.69,-0.45,-4.36,-0.44,-4.36,4.36,4.22,4.73,3.91,3.92,3.91
69.37,-0.41,-4.31,-0.40,-4.31,4.31,4.16,4.64,3.90,3.90,3.90
70.07,-0.37,-4.25,-0.37,-4.25,4.25,4.11,4.55,3.89,3.89,3.89
70.77,-0.33,-4.21,-0.33,-4.20,4.20,4.05,4.45,3.87,3.87,3.89
71.48,-0.30,-4.16,-0.29,-4.15,4.15,4.01,4.35,3.85,3.86,3.86
72.19,-0.26,-4.10,-0.26,-4.10,4.10,3.96,4.26,3.84,3.84,3.84
72.91,-0.22,-4.05,-0.23,-4.05,4.05,3.92,4.16,3.83,3.82,3.83
73.64,-0.20,-4.00,-0.20,-4.00,4.00,3.89,4.06,3.80,3.80,3.80
74.38,-0.17,-3.96,-0.17,-3.95,3.95,3.86,3.96,3.78,3.78,3.79
75.12,-0.14,-3.90,-0.14,-3.90,3.90,3.83,3.86,3.76,3.76,3.76
75.87,-0.11,-3.85,-0.11,-3.85,3.85,3.80,3.76,3.75,3.74,3.75
76.63,-0.09,-3.81,-0.09,-3.81,3.81,3.78,3.66,3.72,3.72,3.73
77.40,-0.07,-3.77,-0.07,-3.77,3.77,3.77,3.57,3.70,3.70,3.70
78.17,-0.06,-3.73,-0.05,-3.73,3.73,3.76,3.47,3.67,3.68,3.67
78.95,-0.04,-3.70,-0.03,-3.69,3.69,3.75,3.38,3.66,3.66,3.67
79.74,-0.02,-3.66,-0.02,-3.66,3.66,3.74,3.28,3.65,3.65,3.65
80.54,0.00,-3.62,-0.00,-3.64,3.64,3.74,3.19,3.64,3.63,3.62
81.35,0.01,-3.60,0.00,-3.61,3.61,3.74,3.10,3.63,3.62,3.61
82.16,0.02,-3.57,0.01,-3.59,3.59,3.73,3.01,3.62,3.60,3.59
82.98,0.02,-3.57,0.01,-3.58,3.58,3.73,2.92,3.60,3.59,3.59
83.81,0.02,-3.55,0.01,-3.57,3.57,3.73,2.83,3.59,3.58,3.57
84.65,0.01,-3.54,0.01,-3.56,3.56,3.73,2.75,3.57,3.57,3.56
85.50,0.01,-3.54,0.01,-3.55,3.55,3.72,2.66,3.56,3.56,3.56
86.35,0.00,-3.55,0.00,-3.54,3.54,3.71,2.58,3.54,3.54,3.55
87.22,0.00,-3.53,-0.00,-3.53,3.53,3.69,2.50,3.54,3.53,3.53
88.09,-0.01,-3.52,-0.01,-3.52,3.52,3.67,2.42,3.52,3.52,3.52
88.97,-0.02,-3.52,-0.01,-3.51,3.51,3.64,2.35,3.50,3.50,3.51
89.86,-0.03,-3.51,-0.02,-3.49,3.49,3.59,2.27,3.47,3.48,3.49
90.76,-0.03,-3.48,-0.02,-3.47,3.47,3.54,2.20,3.44,3.45,3.45
91.66,-0.02,-3.45,-0.01,-3.44,3.44,3.49,2.13,3.42,3.42,3.43
92.58,-0.01,-3.39,-0.00,-3.39,3.39,3.42,2.06,3.38,3.39,3.39
93.51,0.01,-3.35,0.01,-3.34,3.34,3.34,1.99,3.35,3.35,3.36
94.44,0.01,-3.30,0.03,-3.27,3.27,3.25,1.92,3.29,3.31,3.32
95.39,0.03,-3.24,0.05,-3.20,3.20,3.16,1.85,3.24,3.26,3.27
96.34,0.06,-3.15,0.08,-3.12,3.12,3.05,1.79,3.19,3.21,3.22
97.30,0.10,-3.05,0.11,-3.04,3.04,2.95,1.73,3.14,3.15,3.15
98.28,0.15,-2.94,0.15,-2.94,2.94,2.83,1.66,3.09,3.09,3.09
99.26,0.20,-2.82,0.19,-2.83,2.83,2.71,1.60,3.04,3.03,3.03
100.25,0.25,-2.71,0.24,-2.72,2.72,2.59,1.54,2.98,2.96,2.96
101.25,0.30,-2.59,0.28,-2.61,2.61,2.47,1.48,2.92,2.89,2.89
102.27,0.35,-2.47,0.33,-2.49,2.49,2.35,1.43,2.85,2.83,2.82
103.29,0.38,-2.36,0.38,-2.37,2.37,2.23,1.37,2.75,2.76,2.75
104.32,0.42,-2.27,0.44,-2.24,2.24,2.10,1.31,2.67,2.69,2.69
105.37,0.49,-2.12,0.50,-2.11,2.11,1.98,1.26,2.61,2.62,2.61
106.42,0.55,-1.99,0.56,-1.99,1.99,1.86,1.21,2.54,2.55,2.54
107.48,0.61,-1.86,0.62,-1.86,1.86,1.75,1.15,2.47,2.48,2.48
108.56,0.67,-1.73,0.68,-1.73,1.73,1.63,1.10,2.40,2.41,2.41
109.64,0.74,-1.60,0.74,-1.60,1.60,1.52,1.05,2.35,2.34,2.34
110.74,0.80,-1.48,0.81,-1.47,1.47,1.41,1.00,2.28,2.28,2.28
111.85,0.87,-1.35,0.87,-1.35,1.35,1.30,0.95,2.22,2.22,2.23
112.97,0.95,-1.20,0.94,-1.22,1.22,1.20,0.90,2.17,2.16,2.15
114.10,1.03,-1.07,1.01,-1.09,1.09,1.09,0.85,2.12,2.10,2.10
115.24,1.09,-0.94,1.08,-0.96,0.96,0.99,0.80,2.06,2.04,2.04
116.39,1.12,-0.86,1.15,-0.84,0.84,0.90,0.75,1.96,1.99,1.98
117.55,1.18,-0.75,1.22,-0.72,0.72,0.80,0.70,1.91,1.94,1.93
118.73,1.27,-0.61,1.28,-0.61,0.61,0.71,0.65,1.88,1.89,1.88
119.92,1.36,-0.48,1.35,-0.50,0.50,0.62,0.60,1.86,1.85,1.85
121.12,1.44,-0.36,1.42,-0.38,0.38,0.53,0.55,1.83,1.80,1.80
122.33,1.49,-0.27,1.48,-0.28,0.28,0.45,0.50,1.77,1.76,1.76
123.55,1.54,-0.18,1.55,-0.17,0.17,0.36,0.45,1.71,1.72,1.73
124.79,1.62,-0.06,1.61,-0.07,0.07,0.28,0.40,1.69,1.68,1.68
126.03,1.68,0.03,1.68,0.03,-0.03,0.20,0.35,1.65,1.64,1.65
127.29,1.72,0.11,1.73,0.13,-0.13,0.12,0.30,1.59,1.61,1.61
128.57,1.77,0.21,1.79,0.23,-0.23,0.04,0.25,1.55,1.57,1.56
129.85,1.84,0.31,1.85,0.32,-0.32,-0.04,0.20,1.52,1.53,1.53
131.15,1.92,0.43,1.90,0.41,-0.41,-0.12,0.15,1.51,1.49,1.49
132.46,1.96,0.52,1.95,0.49,-0.49,-0.19,0.10,1.47,1.45,1.45
133.79,2.01,0.59,1.99,0.58,-0.58,-0.27,0.05,1.43,1.41,1.42
135.12,2.05,0.68,2.04,0.67,-0.67,-0.34,-0.00,1.39,1.37,1.37
136.48,2.08,0.74,2.09,0.75,-0.75,-0.41,-0.06,1.33,1.33,1.34
137.84,2.12,0.83,2.13,0.84,-0.84,-0.49,-0.11,1.28,1.29,1.30
139.22,2.15,0.91,2.17,0.92,-0.92,-0.56,-0.16,1.23,1.25,1.24
140.61,2.19,0.99,2.22,1.01,-1.01,-0.63,-0.22,1.18,1.21,1.20
142.02,2.25,1.08,2.26,1.09,-1.09,-0.70,-0.27,1.16,1.17,1.17
143.44,2.28,1.15,2.30,1.17,-1.17,-0.77,-0.33,1.11,1.12,1.13
144.87,2.33,1.25,2.33,1.25,-1.25,-0.84,-0.38,1.08,1.08,1.08
146.32,2.37,1.34,2.37,1.34,-1.34,-0.91,-0.44,1.04,1.03,1.03
147.78,2.42,1.43,2.41,1.42,-1.42,-0.98,-0.50,1.00,0.99,0.99
149.26,2.45,1.51,2.44,1.50,-1.50,-1.05,-0.56,0.95,0.94,0.95
150.75,2.48,1.59,2.48,1.58,-1.58,-1.12,-0.62,0.90,0.89,0.89
152.26,2.50,1.66,2.51,1.66,-1.66,-1.19,-0.68,0.84,0.85,0.85
153.78,2.53,1.73,2.53,1.74,-1.74,-1.26,-0.74,0.80,0.80,0.80
155.32,2.55,1.80,2.56,1.81,-1.81,-1.33,-0.80,0.75,0.75,0.75
156.88,2.58,1.87,2.58,1.88,-1.88,-1.40,-0.87,0.70,0.70,0.71
158.44,2.59,1.94,2.59,1.94,-1.94,-1.47,-0.93,0.65,0.65,0.65
160.03,2.61,2.01,2.61,2.01,-2.01,-1.54,-1.00,0.60,0.60,0.60
161.63,2.62,2.08,2.62,2.07,-2.07,-1.61,-1.07,0.56,0.55,0.54
163.24,2.61,2.12,2.62,2.12,-2.12,-1.68,-1.13,0.49,0.50,0.49
164.88,2.61,2.17,2.62,2.17,-2.17,-1.75,-1.20,0.44,0.45,0.45
166.53,2.61,2.21,2.62,2.22,-2.22,-1.81,-1.28,0.39,0.40,0.40
168.19,2.61,2.26,2.61,2.26,-2.26,-1.88,-1.35,0.36,0.36,0.36
169.87,2.61,2.30,2.60,2.29,-2.29,-1.95,-1.42,0.32,0.31,0.31
171.57,2.60,2.33,2.58,2.31,-2.31,-2.02,-1.50,0.29,0.27,0.27
173.29,2.59,2.37,2.56,2.33,-2.33,-2.09,-1.57,0.26,0.23,0.23
175.02,2.55,2.37,2.53,2.35,-2.35,-2.16,-1.65,0.20,0.19,0.19
176.77,2.53,2.39,2.51,2.36,-2.36,-2.23,-1.73,0.18,0.15,0.15
178.54,2.49,2.39,2.48,2.36,-2.36,-2.30,-1.81,0.13,0.12,0.11
180.32,2.45,2.37,2.45,2.37,-2.37,-2.37,-1.90,0.08,0.08,0.08
182.13,2.42,2.37,2.43,2.38,-2.38,-2.44,-1.98,0.05,0.05,0.05
183.95,2.37,2.35,2.41,2.38,-2.38,-2.50,-2.06,-0.01,0.03,0.02
185.79,2.36,2.37,2.39,2.39,-2.39,-2.57,-2.15,-0.02,0.00,-0.00
187.65,2.34,2.37,2.37,2.40,-2.40,-2.64,-2.24,-0.05,-0.02,-0.03
189.52,2.34,2.39,2.37,2.41,-2.41,-2.70,-2.33,-0.07,-0.05,-0.04
191.42,2.35,2.42,2.37,2.43,-2.43,-2.77,-2.42,-0.08,-0.07,-0.07
193.33,2.36,2.44,2.37,2.46,-2.46,-2.83,-2.51,-0.09,-0.08,-0.08
195.27,2.37,2.46,2.38,2.49,-2.49,-2.90,-2.60,-0.11,-0.10,-0.09
197.22,2.40,2.52,2.40,2.52,-2.52,-2.96,-2.70,-0.12,-0.12,-0.11
199.19,2.42,2.57,2.43,2.56,-2.56,-3.02,-2.79,-0.14,-0.13,-0.14
201.18,2.45,2.61,2.46,2.61,-2.61,-3.08,-2.89,-0.16,-0.15,-0.15
203.19,2.49,2.66,2.49,2.65,-2.65,-3.14,-2.98,-0.16,-0.17,-0.16
205.23,2.53,2.72,2.52,2.70,-2.70,-3.20,-3.08,-0.17,-0.18,-0.18
207.28,2.58,2.78,2.55,2.75,-2.75,-3.25,-3.17,-0.17,-0.20,-0.19
209.35,2.61,2.82,2.59,2.80,-2.80,-3.30,-3.26,-0.19,-0.21,-0.21
211.44,2.64,2.88,2.62,2.85,-2.85,-3.36,-3.36,-0.21,-0.23,-0.24
213.56,2.67,2.92,2.67,2.91,-2.91,-3.41,-3.45,-0.24,-0.24,-0.24
215.69,2.71,2.96,2.71,2.97,-2.97,-3.45,-3.54,-0.26,-0.26,-0.25
217.85,2.75,3.03,2.76,3.03,-3.03,-3.50,-3.62,-0.28,-0.27,-0.28
220.03,2.77,3.06,2.81,3.10,-3.10,-3.54,-3.71,-0.32,-0.29,-0.29
222.23,2.81,3.13,2.86,3.16,-3.16,-3.58,-3.79,-0.35,-0.30,-0.31
224.45,2.87,3.19,2.91,3.23,-3.23,-3.62,-3.87,-0.35,-0.32,-0.32
226.70,2.95,3.29,2.96,3.30,-3.30,-3.65,-3.94,-0.35,-0.34,-0.33
228.96,3.03,3.38,3.02,3.37,-3.37,-3.68,-4.01,-0.34,-0.36,-0.35
231.25,3.08,3.44,3.08,3.45,-3.45,-3.71,-4.07,-0.37,-0.37,-0.36
233.57,3.15,3.53,3.14,3.53,-3.53,-3.73,-4.13,-0.38,-0.39,-0.38
235.90,3.24,3.65,3.21,3.61,-3.61,-3.75,-4.18,-0.37,-0.41,-0.40
238.26,3.28,3.71,3.28,3.70,-3.70,-3.77,-4.23,-0.41,-0.42,-0.42
240.64,3.32,3.77,3.34,3.78,-3.78,-3.79,-4.26,-0.45,-0.44,-0.44
243.05,3.36,3.82,3.40,3.85,-3.85,-3.80,-4.29,-0.49,-0.45,-0.45
245.48,3.43,3.90,3.46,3.92,-3.92,-3.81,-4.32,-0.49,-0.46,-0.47
247.93,3.52,4.00,3.52,3.99,-3.99,-3.81,-4.33,-0.47,-0.47,-0.47
250.41,3.58,4.08,3.57,4.04,-4.04,-3.81,-4.34,-0.46,-0.48,-0.49
252.92,3.64,4.13,3.61,4.09,-4.09,-3.81,-4.34,-0.45,-0.48,-0.48
255.45,3.66,4.15,3.65,4.13,-4.13,-3.80,-4.33,-0.47,-0.48,-0.48
258.00,3.69,4.17,3.68,4.16,-4.16,-3.79,-4.31,-0.47,-0.48,-0.48
260.58,3.72,4.20,3.71,4.18,-4.18,-3.78,-4.29,-0.46,-0.47,-0.48
263.19,3.73,4.20,3.73,4.19,-4.19,-3.76,-4.26,-0.46,-0.47,-0.47
265.82,3.73,4.20,3.74,4.20,-4.20,-3.74,-4.22,-0.46,-0.46,-0.46
268.48,3.74,4.18,3.74,4.19,-4.19,-3.72,-4.18,-0.45,-0.45,-0.44
271.16,3.73,4.16,3.74,4.17,-4.17,-3.69,-4.13,-0.44,-0.43,-0.43
273.87,3.72,4.14,3.72,4.14,-4.14,-3.67,-4.07,-0.41,-0.42,-0.42
276.61,3.70,4.10,3.69,4.10,-4.10,-3.63,-4.01,-0.40,-0.41,-0.39
279.38,3.68,4.07,3.66,4.05,-4.05,-3.60,-3.95,-0.37,-0.39,-0.39
282.17,3.65,4.03,3.63,4.00,-4.00,-3.56,-3.88,-0.35,-0.38,-0.37
284.99,3.60,3.96,3.58,3.95,-3.95,-3.53,-3.80,-0.34,-0.36,-0.36
287.84,3.52,3.87,3.54,3.88,-3.88,-3.48,-3.73,-0.36,-0.34,-0.35
290.72,3.46,3.78,3.48,3.81,-3.81,-3.44,-3.65,-0.35,-0.33,-0.32
293.63,3.41,3.73,3.42,3.73,-3.73,-3.40,-3.57,-0.32,-0.31,-0.32
296.57,3.35,3.64,3.36,3.65,-3.65,-3.35,-3.49,-0.30,-0.29,-0.29
299.53,3.30,3.58,3.30,3.57,-3.57,-3.30,-3.40,-0.27,-0.27,-0.28
302.53,3.24,3.51,3.23,3.49,-3.49,-3.25,-3.32,-0.24,-0.25,-0.27
305.55,3.17,3.41,3.16,3.40,-3.40,-3.20,-3.24,-0.23,-0.24,-0.24
308.61,3.09,3.31,3.09,3.31,-3.31,-3.15,-3.15,-0.22,-0.22,-0.22
311.69,3.01,3.21,3.03,3.22,-3.22,-3.09,-3.07,-0.21,-0.19,-0.19
314.81,2.95,3.11,2.96,3.13,-3.13,-3.04,-2.98,-0.18,-0.17,-0.16
317.96,2.89,3.03,2.90,3.05,-3.05,-2.98,-2.90,-0.16,-0.15,-0.14
321.14,2.83,2.96,2.84,2.97,-2.97,-2.93,-2.82,-0.13,-0.13,-0.13
324.35,2.77,2.88,2.78,2.89,-2.89,-2.87,-2.73,-0.11,-0.11,-0.11
327.59,2.72,2.81,2.72,2.81,-2.81,-2.81,-2.65,-0.08,-0.08,-0.08
330.87,2.66,2.73,2.67,2.73,-2.73,-2.76,-2.57,-0.07,-0.06,-0.07
334.18,2.60,2.64,2.62,2.65,-2.65,-2.70,-2.50,-0.05,-0.04,-0.04
337.52,2.55,2.57,2.57,2.58,-2.58,-2.64,-2.42,-0.03,-0.01,-0.02
340.90,2.51,2.51,2.52,2.52,-2.52,-2.59,-2.34,-0.00,0.01,0.01
344.30,2.48,2.45,2.48,2.45,-2.45,-2.53,-2.27,0.03,0.03,0.03
347.75,2.44,2.39,2.44,2.39,-2.39,-2.47,-2.20,0.06,0.05,0.05
351.23,2.40,2.33,2.40,2.32,-2.32,-2.41,-2.13,0.08,0.08,0.08
354.74,2.37,2.27,2.36,2.26,-2.26,-2.36,-2.06,0.11,0.10,0.10
358.28,2.33,2.21,2.32,2.20,-2.20,-2.30,-1.99,0.13,0.12,0.12
361.87,2.29,2.14,2.29,2.14,-2.14,-2.24,-1.93,0.15,0.15,0.15
365.49,2.25,2.08,2.25,2.08,-2.08,-2.19,-1.87,0.17,0.17,0.18
369.14,2.21,2.03,2.22,2.02,-2.02,-2.13,-1.80,0.19,0.20,0.19
372.83,2.17,1.96,2.18,1.96,-1.96,-2.08,-1.74,0.21,0.22,0.21
376.56,2.13,1.90,2.14,1.90,-1.90,-2.02,-1.69,0.23,0.24,0.23
380.33,2.10,1.83,2.10,1.84,-1.84,-1.97,-1.63,0.26,0.26,0.27
384.13,2.06,1.79,2.06,1.78,-1.78,-1.92,-1.57,0.28,0.28,0.28
387.97,2.02,1.73,2.01,1.72,-1.72,-1.86,-1.52,0.30,0.29,0.30
391.85,1.97,1.67,1.97,1.66,-1.66,-1.81,-1.47,0.31,0.31,0.30
395.77,1.93,1.60,1.92,1.60,-1.60,-1.76,-1.42,0.33,0.32,0.33
399.73,1.89,1.55,1.88,1.55,-1.55,-1.71,-1.37,0.35,0.33,0.34
403.72,1.84,1.50,1.83,1.49,-1.49,-1.66,-1.32,0.35,0.34,0.34
407.76,1.78,1.43,1.78,1.44,-1.44,-1.61,-1.27,0.35,0.35,0.35
411.84,1.72,1.37,1.74,1.38,-1.38,-1.56,-1.23,0.34,0.35,0.36
415.96,1.67,1.32,1.69,1.33,-1.33,-1.52,-1.18,0.34,0.35,0.36
420.12,1.63,1.28,1.64,1.29,-1.29,-1.47,-1.14,0.35,0.35,0.35
424.32,1.58,1.23,1.59,1.24,-1.24,-1.42,-1.10,0.34,0.35,0.35
428.56,1.54,1.19,1.54,1.19,-1.19,-1.38,-1.06,0.35,0.35,0.35
432.85,1.49,1.15,1.49,1.15,-1.15,-1.33,-1.02,0.35,0.35,0.34
437.18,1.44,1.10,1.44,1.10,-1.10,-1.29,-0.98,0.34,0.34,0.34
441.55,1.40,1.06,1.39,1.06,-1.06,-1.25,-0.94,0.35,0.34,0.34
445.96,1.35,1.03,1.35,1.01,-1.01,-1.20,-0.91,0.34,0.33,0.33
450.42,1.31,0.99,1.30,0.97,-0.97,-1.16,-0.87,0.34,0.33,0.33
454.93,1.27,0.95,1.26,0.93,-0.93,-1.12,-0.84,0.34,0.33,0.33
459.48,1.22,0.91,1.22,0.89,-0.89,-1.08,-0.81,0.33,0.33,0.31
464.07,1.17,0.85,1.18,0.86,-0.86,-1.04,-0.78,0.32,0.32,0.32
468.71,1.13,0.81,1.14,0.82,-0.82,-1.00,-0.75,0.32,0.32,0.32
473.40,1.09,0.77,1.10,0.78,-0.78,-0.97,-0.72,0.31,0.32,0.32
478.13,1.07,0.74,1.07,0.75,-0.75,-0.93,-0.69,0.32,0.32,0.33
482.91,1.04,0.72,1.05,0.72,-0.72,-0.89,-0.66,0.32,0.32,0.32
487.74,1.02,0.69,1.03,0.70,-0.70,-0.86,-0.64,0.32,0.33,0.33
492.62,1.00,0.66,1.01,0.68,-0.68,-0.82,-0.61,0.32,0.33,0.34
497.55,0.98,0.65,1.00,0.67,-0.67,-0.79,-0.59,0.32,0.33,0.33
502.52,0.96,0.63,0.99,0.65,-0.65,-0.75,-0.56,0.31,0.34,0.34
507.55,0.95,0.62,0.98,0.64,-0.64,-0.72,-0.54,0.31,0.34,0.34
