frequency,raw,error,smoothed,error_smoothed,equalization,parametric_eq,fixed_band_eq,equalized_raw,equalized_smoothed,target
20.00,-12.54,-12.35,-12.54,-12.37,12.37,12.24,2.44,-0.17,-0.17,-0.19
20.20,-12.32,-12.22,-12.32,-12.23,12.23,12.22,2.51,-0.09,-0.09,-0.10
20.40,-12.10,-12.08,-12.10,-12.08,12.08,12.19,2.58,-0.02,-0.02,-0.02
20.61,-11.88,-11.92,-11.88,-11.93,11.93,12.15,2.66,0.05,0.05,0.04
20.81,-11.65,-11.78,-11.65,-11.78,11.78,12.09,2.74,0.13,0.12,0.14
21.02,-11.43,-11.65,-11.43,-11.62,11.62,12.01,2.82,0.19,0.19,0.21
21.23,-11.21,-11.48,-11.21,-11.46,11.46,11.91,2.90,0.25,0.25,0.27
21.44,-10.98,-11.31,-10.99,-11.30,11.30,11.81,2.98,0.32,0.31,0.33
21.66,-10.76,-11.15,-10.76,-11.13,11.13,11.68,3.07,0.37,0.37,0.38
21.87,-10.54,-10.97,-10.54,-10.96,10.96,11.55,3.16,0.42,0.42,0.43
22.09,-10.31,-10.79,-10.31,-10.79,10.79,11.40,3.25,0.48,0.48,0.48
22.31,-10.09,-10.62,-10.09,-10.61,10.61,11.24,3.35,0.53,0.53,0.53
22.54,-9.87,-10.43,-9.86,-10.43,10.43,11.07,3.44,0.57,0.57,0.57
22.76,-9.64,-10.25,-9.63,-10.25,10.25,10.89,3.54,0.61,0.61,0.61
22.99,-9.41,-10.05,-9.41,-10.06,10.06,10.71,3.64,0.65,0.65,0.64
23.22,-9.18,-9.86,-9.18,-9.87,9.87,10.51,3.75,0.69,0.69,0.68
23.45,-8.95,-9.67,-8.95,-9.68,9.68,10.31,3.85,0.73,0.73,0.72
23.69,-8.73,-9.48,-8.72,-9.49,9.49,10.11,3.96,0.76,0.76,0.76
23.92,-8.49,-9.28,-8.50,-9.29,9.29,9.89,4.07,0.80,0.80,0.80
24.16,-8.26,-9.10,-8.27,-9.10,9.10,9.68,4.18,0.84,0.83,0.84
24.40,-8.04,-8.91,-8.04,-8.90,8.90,9.46,4.30,0.87,0.87,0.87
24.65,-7.81,-8.72,-7.81,-8.71,8.71,9.24,4.41,0.89,0.90,0.90
24.89,-7.58,-8.51,-7.58,-8.51,8.51,9.02,4.53,0.93,0.93,0.93
25.14,-7.35,-8.32,-7.35,-8.31,8.31,8.79,4.65,0.97,0.97,0.97
25.39,-7.12,-8.12,-7.12,-8.12,8.12,8.56,4.77,1.00,1.00,1.00
25.65,-6.89,-7.93,-6.89,-7.92,7.92,8.34,4.88,1.03,1.03,1.04
25.91,-6.66,-7.71,-6.66,-7.72,7.72,8.11,5.00,1.07,1.06,1.06
26.16,-6.42,-7.50,-6.43,-7.53,7.53,7.88,5.12,1.11,1.10,1.09
26.43,-6.20,-7.33,-6.20,-7.33,7.33,7.66,5.24,1.12,1.12,1.12
26.69,-5.97,-7.13,-5.97,-7.13,7.13,7.43,5.35,1.15,1.15,1.15
26.96,-5.74,-6.93,-5.74,-6.92,6.92,7.20,5.46,1.18,1.18,1.18
27.23,-5.51,-6.73,-5.51,-6.72,6.72,6.98,5.57,1.21,1.21,1.22
27.50,-5.28,-6.53,-5.28,-6.53,6.53,6.75,5.67,1.24,1.24,1.25
27.77,-5.06,-6.33,-5.05,-6.33,6.33,6.53,5.77,1.27,1.27,1.27
28.05,-4.83,-6.14,-4.83,-6.13,6.13,6.31,5.87,1.30,1.30,1.31
28.33,-4.60,-5.93,-4.60,-5.93,5.93,6.09,5.95,1.33,1.33,1.33
28.62,-4.38,-5.73,-4.37,-5.73,5.73,5.87,6.03,1.36,1.36,1.35
28.90,-4.14,-5.53,-4.15,-5.54,5.54,5.66,6.10,1.40,1.39,1.39
29.19,-3.91,-5.32,-3.92,-5.34,5.34,5.44,6.16,1.43,1.42,1.41
29.48,-3.69,-5.15,-3.70,-5.14,5.14,5.23,6.21,1.45,1.45,1.46
29.78,-3.47,-4.95,-3.47,-4.95,4.95,5.02,6.25,1.47,1.47,1.48
30.08,-3.26,-4.76,-3.25,-4.75,4.75,4.81,6.28,1.50,1.50,1.50
30.38,-3.03,-4.57,-3.03,-4.56,4.56,4.60,6.29,1.52,1.53,1.53
30.68,-2.81,-4.37,-2.81,-4.37,4.37,4.39,6.30,1.55,1.55,1.56
30.99,-2.59,-4.17,-2.59,-4.17,4.17,4.19,6.28,1.58,1.58,1.58
31.30,-2.37,-3.98,-2.38,-3.98,3.98,3.99,6.25,1.61,1.61,1.60
31.61,-2.16,-3.79,-2.16,-3.79,3.79,3.79,6.21,1.63,1.63,1.63
31.93,-1.94,-3.59,-1.95,-3.60,3.60,3.59,6.16,1.66,1.65,1.65
32.24,-1.73,-3.40,-1.73,-3.41,3.41,3.40,6.09,1.68,1.68,1.67
32.57,-1.52,-3.22,-1.52,-3.22,3.22,3.20,6.01,1.70,1.70,1.69
32.89,-1.31,-3.03,-1.31,-3.03,3.03,3.01,5.91,1.72,1.72,1.72
33.22,-1.10,-2.84,-1.10,-2.84,2.84,2.82,5.81,1.74,1.73,1.74
33.55,-0.89,-2.64,-0.89,-2.64,2.64,2.63,5.69,1.75,1.75,1.76
33.89,-0.69,-2.45,-0.69,-2.45,2.45,2.45,5.56,1.76,1.77,1.76
34.23,-0.48,-2.27,-0.48,-2.26,2.26,2.26,5.42,1.78,1.78,1.79
34.57,-0.28,-2.08,-0.27,-2.07,2.07,2.08,5.27,1.78,1.79,1.80
34.92,-0.07,-1.88,-0.07,-1.87,1.87,1.90,5.12,1.80,1.80,1.80
35.27,0.13,-1.69,0.13,-1.68,1.68,1.72,4.95,1.80,1.81,1.82
35.62,0.33,-1.49,0.33,-1.48,1.48,1.55,4.78,1.81,1.82,1.81
35.97,0.54,-1.28,0.53,-1.29,1.29,1.38,4.61,1.83,1.82,1.82
36.33,0.73,-1.10,0.73,-1.10,1.10,1.21,4.43,1.83,1.83,1.84
36.70,0.93,-0.90,0.92,-0.90,0.90,1.04,4.25,1.83,1.83,1.83
37.06,1.12,-0.71,1.12,-0.71,0.71,0.87,4.06,1.83,1.83,1.83
37.43,1.31,-0.52,1.31,-0.52,0.52,0.71,3.87,1.83,1.83,1.83
37.81,1.50,-0.33,1.49,-0.34,0.34,0.55,3.68,1.83,1.83,1.83
38.19,1.68,-0.14,1.67,-0.15,0.15,0.39,3.48,1.83,1.82,1.82
38.57,1.85,0.02,1.85,0.03,-0.03,0.23,3.29,1.82,1.82,1.83
38.95,2.03,0.21,2.03,0.21,-0.21,0.08,3.09,1.82,1.82,1.82
39.34,2.20,0.40,2.20,0.39,-0.39,-0.08,2.90,1.81,1.81,1.80
39.74,2.36,0.56,2.37,0.56,-0.56,-0.22,2.70,1.80,1.80,1.80
40.14,2.52,0.72,2.53,0.73,-0.73,-0.37,2.50,1.79,1.80,1.79
40.54,2.69,0.90,2.69,0.90,-0.90,-0.51,2.31,1.79,1.79,1.79
40.94,2.85,1.07,2.84,1.06,-1.06,-0.65,2.11,1.79,1.78,1.78
41.35,2.99,1.22,2.99,1.22,-1.22,-0.79,1.91,1.77,1.77,1.77
41.76,3.14,1.37,3.14,1.37,-1.37,-0.93,1.72,1.77,1.76,1.77
42.18,3.28,1.52,3.28,1.53,-1.53,-1.06,1.52,1.75,1.75,1.76
42.60,3.41,1.67,3.41,1.67,-1.67,-1.19,1.32,1.74,1.74,1.74
43.03,3.55,1.81,3.54,1.82,-1.82,-1.32,1.13,1.73,1.73,1.74
43.46,3.67,1.95,3.67,1.95,-1.95,-1.44,0.93,1.72,1.72,1.72
43.90,3.79,2.08,3.79,2.08,-2.08,-1.56,0.74,1.70,1.70,1.70
44.33,3.90,2.21,3.90,2.21,-2.21,-1.68,0.54,1.69,1.69,1.69
44.78,4.01,2.33,4.01,2.33,-2.33,-1.79,0.35,1.68,1.68,1.68
45.23,4.11,2.45,4.11,2.44,-2.44,-1.90,0.16,1.67,1.67,1.66
45.68,4.20,2.55,4.20,2.55,-2.55,-2.01,-0.04,1.65,1.66,1.65
46.13,4.30,2.66,4.29,2.65,-2.65,-2.11,-0.23,1.65,1.64,1.64
46.60,4.38,2.74,4.38,2.75,-2.75,-2.21,-0.42,1.63,1.63,1.64
47.06,4.47,2.84,4.45,2.83,-2.83,-2.31,-0.61,1.64,1.62,1.62
47.53,4.53,2.92,4.52,2.91,-2.91,-2.41,-0.81,1.61,1.61,1.61
48.01,4.59,2.98,4.59,2.99,-2.99,-2.50,-1.00,1.60,1.60,1.61
48.49,4.64,3.04,4.64,3.05,-3.05,-2.58,-1.19,1.58,1.59,1.60
48.97,4.70,3.11,4.69,3.11,-3.11,-2.67,-1.38,1.59,1.58,1.58
49.46,4.74,3.18,4.74,3.17,-3.17,-2.75,-1.57,1.57,1.58,1.56
49.96,4.79,3.24,4.78,3.21,-3.21,-2.83,-1.75,1.57,1.57,1.55
50.46,4.82,3.27,4.82,3.26,-3.26,-2.90,-1.94,1.56,1.56,1.55
50.96,4.85,3.29,4.85,3.30,-3.30,-2.97,-2.13,1.55,1.56,1.56
51.47,4.87,3.33,4.88,3.33,-3.33,-3.04,-2.31,1.54,1.55,1.54
51.99,4.90,3.36,4.90,3.36,-3.36,-3.11,-2.49,1.54,1.54,1.54
52.51,4.92,3.38,4.92,3.39,-3.39,-3.17,-2.67,1.53,1.53,1.54
53.03,4.93,3.40,4.94,3.41,-3.41,-3.23,-2.85,1.51,1.53,1.53
53.56,4.95,3.42,4.95,3.43,-3.43,-3.28,-3.03,1.51,1.52,1.53
54.10,4.96,3.44,4.96,3.45,-3.45,-3.33,-3.20,1.51,1.51,1.52
54.64,4.97,3.47,4.96,3.47,-3.47,-3.38,-3.37,1.50,1.50,1.50
55.18,4.98,3.49,4.96,3.48,-3.48,-3.43,-3.53,1.50,1.49,1.49
55.74,4.97,3.50,4.96,3.49,-3.49,-3.47,-3.69,1.48,1.47,1.47
56.29,4.96,3.50,4.95,3.50,-3.50,-3.52,-3.84,1.46,1.46,1.46
56.86,4.95,3.51,4.95,3.50,-3.50,-3.55,-3.99,1.44,1.44,1.44
57.42,4.94,3.52,4.93,3.51,-3.51,-3.59,-4.13,1.43,1.42,1.41
58.00,4.92,3.52,4.92,3.52,-3.52,-3.62,-4.27,1.40,1.40,1.40
58.58,4.90,3.52,4.90,3.52,-3.52,-3.66,-4.39,1.38,1.38,1.38
59.16,4.87,3.51,4.88,3.53,-3.53,-3.68,-4.51,1.34,1.35,1.36
59.76,4.85,3.51,4.85,3.53,-3.53,-3.71,-4.62,1.32,1.32,1.34
60.35,4.83,3.53,4.83,3.53,-3.53,-3.74,-4.72,1.29,1.30,1.30
60.96,4.81,3.52,4.80,3.54,-3.54,-3.76,-4.81,1.27,1.27,1.29
61.57,4.79,3.55,4.78,3.54,-3.54,-3.78,-4.89,1.25,1.24,1.24
62.18,4.76,3.56,4.75,3.54,-3.54,-3.80,-4.97,1.22,1.21,1.20
62.80,4.73,3.55,4.73,3.55,-3.55,-3.82,-5.03,1.18,1.18,1.18
63.43,4.71,3.57,4.71,3.55,-3.55,-3.83,-5.08,1.16,1.16,1.14
64.07,4.69,3.57,4.69,3.56,-3.56,-3.85,-5.13,1.13,1.13,1.12
64.71,4.67,3.57,4.67,3.56,-3.56,-3.86,-5.16,1.11,1.11,1.10
65.35,4.65,3.57,4.66,3.57,-3.57,-3.88,-5.19,1.08,1.08,1.07
66.01,4.64,3.58,4.64,3.58,-3.58,-3.89,-5.20,1.06,1.06,1.06
66.67,4.63,3.58,4.64,3.59,-3.59,-3.90,-5.21,1.04,1.05,1.05
67.33,4.63,3.60,4.64,3.61,-3.61,-3.91,-5.21,1.02,1.03,1.03
68.01,4.63,3.61,4.64,3.62,-3.62,-3.92,-5.21,1.00,1.01,1.01
68.69,4.64,3.64,4.65,3.65,-3.65,-3.92,-5.20,0.99,1.00,1.00
69.37,4.65,3.66,4.66,3.67,-3.67,-3.93,-5.18,0.98,0.99,0.99
70.07,4.66,3.69,4.67,3.70,-3.70,-3.94,-5.16,0.96,0.97,0.97
70.77,4.68,3.71,4.69,3.74,-3.74,-3.94,-5.14,0.94,0.96,0.97
71.48,4.71,3.76,4.72,3.78,-3.78,-3.95,-5.11,0.93,0.94,0.95
72.19,4.74,3.81,4.74,3.82,-3.82,-3.96,-5.08,0.92,0.92,0.93
72.91,4.78,3.87,4.77,3.86,-3.86,-3.96,-5.04,0.92,0.91,0.91
73.64,4.81,3.92,4.79,3.91,-3.91,-3.97,-5.01,0.90,0.89,0.89
74.38,4.83,3.95,4.82,3.95,-3.95,-3.97,-4.97,0.88,0.87,0.87
75.12,4.85,4.00,4.84,3.99,-3.99,-3.98,-4.94,0.85,0.85,0.85
75.87,4.88,4.05,4.86,4.04,-4.04,-3.98,-4.90,0.84,0.83,0.83
76.63,4.89,4.08,4.88,4.07,-4.07,-3.99,-4.87,0.81,0.81,0.81
77.40,4.91,4.13,4.90,4.11,-4.11,-3.99,-4.83,0.80,0.79,0.78
78.17,4.92,4.17,4.91,4.14,-4.14,-4.00,-4.80,0.78,0.77,0.75
78.95,4.93,4.18,4.91,4.17,-4.17,-4.00,-4.77,0.76,0.75,0.75
79.74,4.93,4.20,4.92,4.19,-4.19,-4.01,-4.74,0.74,0.73,0.73
80.54,4.93,4.22,4.92,4.21,-4.21,-4.02,-4.72,0.72,0.72,0.71
81.35,4.92,4.23,4.92,4.22,-4.22,-4.02,-4.69,0.69,0.70,0.69
82.16,4.91,4.23,4.93,4.24,-4.24,-4.03,-4.67,0.67,0.69,0.68
82.98,4.91,4.24,4.93,4.25,-4.25,-4.04,-4.65,0.66,0.68,0.67
83.81,4.91,4.25,4.93,4.27,-4.27,-4.05,-4.64,0.64,0.66,0.66
84.65,4.91,4.27,4.93,4.28,-4.28,-4.06,-4.63,0.63,0.65,0.64
85.50,4.91,4.27,4.93,4.29,-4.29,-4.07,-4.62,0.62,0.64,0.64
86.35,4.92,4.29,4.92,4.29,-4.29,-4.08,-4.61,0.63,0.63,0.63
87.22,4.93,4.32,4.92,4.30,-4.30,-4.09,-4.61,0.63,0.62,0.61
88.09,4.93,4.33,4.91,4.31,-4.31,-4.10,-4.62,0.62,0.60,0.60
88.97,4.92,4.33,4.90,4.32,-4.32,-4.12,-4.62,0.60,0.58,0.59
89.86,4.91,4.34,4.89,4.33,-4.33,-4.13,-4.63,0.58,0.56,0.57
90.76,4.89,4.35,4.87,4.34,-4.34,-4.15,-4.64,0.55,0.54,0.54
91.66,4.87,4.35,4.86,4.35,-4.35,-4.16,-4.66,0.52,0.51,0.51
92.58,4.84,4.37,4.83,4.36,-4.36,-4.18,-4.68,0.48,0.47,0.47
93.51,4.81,4.36,4.81,4.37,-4.37,-4.20,-4.70,0.43,0.43,0.45
94.44,4.79,4.39,4.78,4.39,-4.39,-4.22,-4.73,0.40,0.39,0.40
95.39,4.75,4.39,4.75,4.41,-4.41,-4.24,-4.76,0.34,0.34,0.36
96.34,4.72,4.42,4.72,4.43,-4.43,-4.26,-4.80,0.29,0.29,0.30
97.30,4.69,4.45,4.69,4.45,-4.45,-4.28,-4.83,0.24,0.23,0.23
98.28,4.66,4.48,4.66,4.49,-4.49,-4.30,-4.87,0.17,0.17,0.18
99.26,4.63,4.52,4.64,4.53,-4.53,-4.33,-4.91,0.10,0.11,0.11
100.25,4.60,4.56,4.62,4.58,-4.58,-4.35,-4.96,0.02,0.05,0.04
101.25,4.58,4.60,4.61,4.63,-4.63,-4.38,-5.01,-0.05,-0.02,-0.02
102.27,4.57,4.66,4.60,4.69,-4.69,-4.41,-5.06,-0.12,-0.09,-0.09
103.29,4.56,4.73,4.59,4.75,-4.75,-4.44,-5.11,-0.19,-0.16,-0.17
104.32,4.56,4.79,4.58,4.81,-4.81,-4.47,-5.16,-0.25,-0.23,-0.23
105.37,4.56,4.86,4.58,4.88,-4.88,-4.50,-5.21,-0.32,-0.30,-0.30
106.42,4.58,4.95,4.57,4.94,-4.94,-4.53,-5.27,-0.36,-0.37,-0.37
107.48,4.60,5.04,4.57,5.01,-5.01,-4.57,-5.32,-0.41,-0.44,-0.44
108.56,4.60,5.11,4.56,5.07,-5.07,-4.60,-5.38,-0.47,-0.51,-0.51
109.64,4.59,5.16,4.56,5.13,-5.13,-4.64,-5.43,-0.54,-0.57,-0.58
110.74,4.58,5.21,4.55,5.18,-5.18,-4.67,-5.48,-0.60,-0.64,-0.63
111.85,4.55,5.24,4.53,5.23,-5.23,-4.71,-5.54,-0.68,-0.70,-0.69
112.97,4.52,5.29,4.51,5.27,-5.27,-4.75,-5.59,-0.75,-0.76,-0.77
114.10,4.49,5.30,4.49,5.31,-5.31,-4.79,-5.64,-0.82,-0.82,-0.81
115.24,4.46,5.34,4.46,5.33,-5.33,-4.84,-5.68,-0.87,-0.87,-0.88
116.39,4.44,5.37,4.43,5.36,-5.36,-4.88,-5.72,-0.92,-0.93,-0.94
117.55,4.41,5.39,4.40,5.38,-5.38,-4.92,-5.76,-0.97,-0.98,-0.98
118.73,4.37,5.40,4.37,5.39,-5.39,-4.97,-5.80,-1.02,-1.02,-1.04
119.92,4.33,5.40,4.34,5.41,-5.41,-5.01,-5.83,-1.08,-1.07,-1.07
121.12,4.30,5.41,4.31,5.43,-5.43,-5.06,-5.85,-1.13,-1.11,-1.11
122.33,4.28,5.44,4.29,5.45,-5.45,-5.11,-5.88,-1.17,-1.16,-1.16
123.55,4.26,5.45,4.28,5.47,-5.47,-5.16,-5.89,-1.21,-1.20,-1.19
124.79,4.24,5.47,4.27,5.50,-5.50,-5.21,-5.90,-1.26,-1.23,-1.23
126.03,4.23,5.49,4.26,5.53,-5.53,-5.26,-5.91,-1.30,-1.27,-1.26
127.29,4.24,5.54,4.25,5.56,-5.56,-5.31,-5.91,-1.33,-1.31,-1.30
128.57,4.25,5.60,4.25,5.60,-5.60,-5.36,-5.91,-1.35,-1.35,-1.35
129.85,4.25,5.63,4.25,5.64,-5.64,-5.42,-5.90,-1.39,-1.39,-1.38
131.15,4.26,5.68,4.26,5.68,-5.68,-5.47,-5.89,-1.42,-1.42,-1.42
132.46,4.27,5.74,4.26,5.72,-5.72,-5.53,-5.87,-1.45,-1.46,-1.47
133.79,4.27,5.76,4.26,5.76,-5.76,-5.58,-5.85,-1.50,-1.50,-1.50
135.12,4.28,5.82,4.26,5.80,-5.80,-5.64,-5.82,-1.52,-1.54,-1.54
136.48,4.28,5.86,4.26,5.84,-5.84,-5.69,-5.80,-1.56,-1.58,-1.58
137.84,4.27,5.89,4.25,5.87,-5.87,-5.75,-5.76,-1.60,-1.62,-1.62
139.22,4.26,5.93,4.24,5.90,-5.90,-5.80,-5.73,-1.64,-1.67,-1.67
140.61,4.24,5.95,4.22,5.93,-5.93,-5.86,-5.70,-1.69,-1.71,-1.72
142.02,4.20,5.95,4.20,5.95,-5.95,-5.91,-5.66,-1.75,-1.75,-1.75
143.44,4.18,5.97,4.17,5.96,-5.96,-5.97,-5.62,-1.78,-1.79,-1.79
144.87,4.14,5.98,4.14,5.98,-5.98,-6.02,-5.59,-1.84,-1.84,-1.84
146.32,4.12,6.00,4.12,6.00,-6.00,-6.08,-5.55,-1.88,-1.88,-1.89
147.78,4.08,6.00,4.09,6.01,-6.01,-6.13,-5.51,-1.94,-1.93,-1.92
149.26,4.05,6.02,4.06,6.03,-6.03,-6.19,-5.48,-1.99,-1.97,-1.97
150.75,4.02,6.04,4.03,6.05,-6.05,-6.24,-5.44,-2.04,-2.02,-2.02
152.26,3.99,6.06,4.01,6.08,-6.08,-6.29,-5.41,-2.09,-2.07,-2.07
153.78,3.96,6.07,3.99,6.10,-6.10,-6.34,-5.38,-2.15,-2.12,-2.11
155.32,3.95,6.11,3.96,6.13,-6.13,-6.39,-5.35,-2.18,-2.17,-2.16
156.88,3.94,6.14,3.94,6.16,-6.16,-6.43,-5.32,-2.22,-2.22,-2.21
158.44,3.93,6.19,3.92,6.19,-6.19,-6.48,-5.30,-2.26,-2.27,-2.27
160.03,3.91,6.22,3.90,6.22,-6.22,-6.52,-5.27,-2.31,-2.32,-2.32
161.63,3.90,6.27,3.88,6.25,-6.25,-6.56,-5.26,-2.35,-2.37,-2.37
163.24,3.89,6.31,3.86,6.28,-6.28,-6.60,-5.24,-2.39,-2.42,-2.42
164.88,3.86,6.33,3.84,6.31,-6.31,-6.64,-5.23,-2.45,-2.47,-2.47
166.53,3.84,6.35,3.82,6.33,-6.33,-6.67,-5.22,-2.50,-2.51,-2.51
168.19,3.81,6.37,3.80,6.36,-6.36,-6.71,-5.22,-2.55,-2.56,-2.56
169.87,3.77,6.37,3.77,6.38,-6.38,-6.73,-5.22,-2.61,-2.61,-2.60
171.57,3.74,6.38,3.75,6.40,-6.40,-6.76,-5.22,-2.66,-2.65,-2.65
173.29,3.71,6.40,3.72,6.41,-6.41,-6.78,-5.23,-2.70,-2.69,-2.69
175.02,3.68,6.41,3.70,6.43,-6.43,-6.80,-5.24,-2.75,-2.73,-2.73
176.77,3.66,6.43,3.67,6.44,-6.44,-6.82,-5.26,-2.78,-2.77,-2.77
178.54,3.64,6.45,3.65,6.44,-6.44,-6.83,-5.28,-2.81,-2.80,-2.81
180.32,3.63,6.47,3.62,6.45,-6.45,-6.84,-5.30,-2.82,-2.83,-2.84
182.13,3.60,6.46,3.60,6.46,-6.46,-6.84,-5.33,-2.86,-2.86,-2.87
183.95,3.57,6.46,3.57,6.46,-6.46,-6.85,-5.36,-2.89,-2.89,-2.89
185.79,3.55,6.47,3.55,6.47,-6.47,-6.84,-5.40,-2.92,-2.92,-2.92
187.65,3.53,6.47,3.53,6.47,-6.47,-6.84,-5.44,-2.94,-2.94,-2.94
189.52,3.51,6.47,3.50,6.46,-6.46,-6.83,-5.48,-2.96,-2.96,-2.96
191.42,3.48,6.46,3.48,6.46,-6.46,-6.81,-5.52,-2.98,-2.98,-2.98
193.33,3.46,6.45,3.45,6.45,-6.45,-6.80,-5.57,-2.99,-3.00,-3.00
195.27,3.43,6.44,3.42,6.44,-6.44,-6.77,-5.63,-3.01,-3.02,-3.01
197.22,3.40,6.43,3.39,6.43,-6.43,-6.75,-5.68,-3.03,-3.03,-3.03
199.19,3.37,6.43,3.36,6.41,-6.41,-6.72,-5.74,-3.04,-3.05,-3.06
201.18,3.34,6.41,3.33,6.40,-6.40,-6.69,-5.80,-3.06,-3.07,-3.07
203.19,3.30,6.38,3.30,6.38,-6.38,-6.65,-5.87,-3.08,-3.08,-3.08
205.23,3.26,6.36,3.27,6.37,-6.37,-6.61,-5.93,-3.11,-3.10,-3.10
207.28,3.21,6.32,3.23,6.35,-6.35,-6.57,-6.00,-3.14,-3.11,-3.11
209.35,3.18,6.30,3.20,6.33,-6.33,-6.52,-6.06,-3.15,-3.13,-3.13
211.44,3.16,6.31,3.16,6.31,-6.31,-6.48,-6.13,-3.15,-3.14,-3.15
213.56,3.13,6.29,3.13,6.29,-6.29,-6.42,-6.20,-3.16,-3.16,-3.16
215.69,3.11,6.27,3.09,6.27,-6.27,-6.37,-6.26,-3.16,-3.17,-3.17
217.85,3.07,6.26,3.06,6.24,-6.24,-6.31,-6.33,-3.18,-3.19,-3.19
220.03,3.04,6.24,3.02,6.22,-6.22,-6.25,-6.39,-3.18,-3.20,-3.21
222.23,2.99,6.22,2.98,6.20,-6.20,-6.19,-6.45,-3.21,-3.22,-3.23
224.45,2.94,6.17,2.95,6.18,-6.18,-6.13,-6.50,-3.24,-3.24,-3.23
226.70,2.90,6.15,2.91,6.16,-6.16,-6.06,-6.56,-3.26,-3.25,-3.25
228.96,2.85,6.11,2.87,6.14,-6.14,-5.99,-6.60,-3.29,-3.27,-3.26
231.25,2.83,6.10,2.83,6.12,-6.12,-5.92,-6.64,-3.29,-3.29,-3.27
233.57,2.79,6.08,2.79,6.09,-6.09,-5.85,-6.67,-3.30,-3.31,-3.30
235.90,2.75,6.07,2.74,6.07,-6.07,-5.78,-6.70,-3.32,-3.32,-3.32
238.26,2.71,6.05,2.70,6.04,-6.04,-5.71,-6.72,-3.33,-3.34,-3.34
240.64,2.66,6.02,2.66,6.01,-6.01,-5.63,-6.73,-3.35,-3.35,-3.36
243.05,2.62,5.99,2.62,5.98,-5.98,-5.56,-6.73,-3.36,-3.37,-3.37
245.48,2.58,5.96,2.57,5.95,-5.95,-5.48,-6.72,-3.37,-3.38,-3.38
247.93,2.52,5.91,2.53,5.92,-5.92,-5.40,-6.70,-3.40,-3.39,-3.39
250.41,2.47,5.88,2.49,5.88,-5.88,-5.33,-6.67,-3.41,-3.39,-3.41
252.92,2.42,5.82,2.44,5.83,-5.83,-5.25,-6.63,-3.42,-3.40,-3.40
255.45,2.40,5.80,2.39,5.79,-5.79,-5.17,-6.58,-3.39,-3.40,-3.40
258.00,2.36,5.76,2.34,5.73,-5.73,-5.09,-6.52,-3.37,-3.39,-3.40
260.58,2.29,5.68,2.29,5.68,-5.68,-5.01,-6.45,-3.39,-3.39,-3.39
263.19,2.24,5.62,2.23,5.61,-5.61,-4.93,-6.37,-3.37,-3.38,-3.38
265.82,2.17,5.55,2.17,5.54,-5.54,-4.86,-6.28,-3.37,-3.37,-3.38
268.48,2.10,5.46,2.11,5.47,-5.47,-4.78,-6.19,-3.37,-3.36,-3.36
271.16,2.05,5.39,2.04,5.39,-5.39,-4.70,-6.08,-3.34,-3.35,-3.34
273.87,1.97,5.30,1.97,5.31,-5.31,-4.62,-5.97,-3.34,-3.34,-3.33
276.61,1.91,5.22,1.90,5.22,-5.22,-4.54,-5.86,-3.31,-3.32,-3.31
279.38,1.84,5.14,1.83,5.13,-5.13,-4.47,-5.73,-3.29,-3.31,-3.30
282.17,1.76,5.05,1.74,5.04,-5.04,-4.39,-5.61,-3.28,-3.29,-3.29
284.99,1.68,4.95,1.66,4.94,-4.94,-4.31,-5.47,-3.26,-3.28,-3.28
287.84,1.56,4.82,1.57,4.83,-4.83,-4.24,-5.34,-3.28,-3.26,-3.26
290.72,1.47,4.71,1.49,4.73,-4.73,-4.16,-5.20,-3.26,-3.24,-3.24
293.63,1.39,4.62,1.40,4.62,-4.62,-4.09,-5.06,-3.23,-3.23,-3.23
296.57,1.31,4.52,1.30,4.51,-4.51,-4.01,-4.92,-3.20,-3.21,-3.21
299.53,1.22,4.41,1.21,4.40,-4.40,-3.94,-4.77,-3.18,-3.19,-3.19
302.53,1.12,4.31,1.11,4.28,-4.28,-3.86,-4.63,-3.16,-3.17,-3.19
305.55,1.01,4.16,1.01,4.16,-4.16,-3.79,-4.48,-3.15,-3.15,-3.15
308.61,0.91,4.04,0.91,4.04,-4.04,-3.72,-4.33,-3.13,-3.13,-3.14
311.69,0.81,3.92,0.81,3.92,-3.92,-3.65,-4.19,-3.11,-3.11,-3.11
314.81,0.73,3.80,0.71,3.80,-3.80,-3.58,-4.04,-3.07,-3.09,-3.07
317.96,0.63,3.69,0.62,3.68,-3.68,-3.51,-3.90,-3.05,-3.07,-3.06
321.14,0.53,3.57,0.52,3.57,-3.57,-3.44,-3.76,-3.04,-3.04,-3.04
324.35,0.42,3.44,0.42,3.45,-3.45,-3.37,-3.61,-3.03,-3.02,-3.02
327.59,0.31,3.31,0.33,3.33,-3.33,-3.30,-3.47,-3.02,-3.00,-3.00
330.87,0.24,3.22,0.24,3.22,-3.22,-3.24,-3.33,-2.98,-2.98,-2.98
334.18,0.15,3.10,0.16,3.11,-3.11,-3.17,-3.19,-2.96,-2.95,-2.95
337.52,0.06,3.00,0.08,3.01,-3.01,-3.10,-3.06,-2.95,-2.93,-2.94
340.90,-0.00,2.91,0.00,2.91,-2.91,-3.04,-2.92,-2.91,-2.91,-2.91
344.30,-0.07,2.81,-0.07,2.82,-2.82,-2.97,-2.79,-2.89,-2.89,-2.88
347.75,-0.14,2.72,-0.14,2.73,-2.73,-2.91,-2.66,-2.87,-2.86,-2.87
351.23,-0.21,2.63,-0.20,2.64,-2.64,-2.85,-2.53,-2.85,-2.84,-2.84
354.74,-0.26,2.55,-0.26,2.56,-2.56,-2.78,-2.40,-2.82,-2.82,-2.81
358.28,-0.32,2.47,-0.31,2.48,-2.48,-2.72,-2.27,-2.80,-2.79,-2.79
361.87,-0.36,2.40,-0.36,2.40,-2.40,-2.66,-2.15,-2.76,-2.77,-2.77
365.49,-0.40,2.34,-0.41,2.33,-2.33,-2.60,-2.03,-2.73,-2.74,-2.74
369.14,-0.45,2.28,-0.46,2.26,-2.26,-2.53,-1.90,-2.71,-2.72,-2.73
372.83,-0.50,2.20,-0.50,2.19,-2.19,-2.47,-1.78,-2.69,-2.70,-2.70
376.56,-0.55,2.13,-0.55,2.13,-2.13,-2.41,-1.67,-2.68,-2.68,-2.68
380.33,-0.59,2.05,-0.59,2.07,-2.07,-2.35,-1.55,-2.66,-2.66,-2.65
384.13,-0.63,2.01,-0.63,2.01,-2.01,-2.29,-1.44,-2.64,-2.64,-2.64
387.97,-0.67,1.95,-0.68,1.95,-1.95,-2.23,-1.32,-2.62,-2.62,-2.62
391.85,-0.72,1.89,-0.72,1.89,-1.89,-2.17,-1.21,-2.61,-2.61,-2.61
395.77,-0.76,1.82,-0.76,1.83,-1.83,-2.11,-1.11,-2.59,-2.59,-2.58
399.73,-0.80,1.77,-0.81,1.78,-1.78,-2.05,-1.00,-2.58,-2.58,-2.57
403.72,-0.85,1.72,-0.85,1.73,-1.73,-1.99,-0.89,-2.58,-2.58,-2.58
407.76,-0.89,1.68,-0.89,1.68,-1.68,-1.92,-0.79,-2.57,-2.57,-2.57
411.84,-0.93,1.63,-0.93,1.63,-1.63,-1.86,-0.69,-2.56,-2.56,-2.56
415.96,-0.98,1.58,-0.98,1.58,-1.58,-1.80,-0.59,-2.57,-2.56,-2.56
420.12,-1.03,1.53,-1.03,1.54,-1.54,-1.74,-0.50,-2.57,-2.56,-2.56
424.32,-1.08,1.48,-1.08,1.49,-1.49,-1.67,-0.40,-2.57,-2.57,-2.56
428.56,-1.13,1.43,-1.13,1.44,-1.44,-1.61,-0.31,-2.57,-2.57,-2.56
432.85,-1.18,1.39,-1.18,1.39,-1.39,-1.55,-0.23,-2.57,-2.57,-2.58
437.18,-1.23,1.34,-1.24,1.34,-1.34,-1.48,-0.14,-2.57,-2.57,-2.58
441.55,-1.28,1.30,-1.29,1.28,-1.28,-1.41,-0.06,-2.57,-2.58,-2.58
445.96,-1.33,1.26,-1.36,1.23,-1.23,-1.35,0.02,-2.56,-2.58,-2.59
450.42,-1.41,1.18,-1.42,1.16,-1.16,-1.28,0.09,-2.57,-2.59,-2.59
454.93,-1.48,1.11,-1.49,1.10,-1.10,-1.21,0.16,-2.58,-2.59,-2.59
459.48,-1.57,1.03,-1.56,1.03,-1.03,-1.13,0.22,-2.60,-2.59,-2.60
464.07,-1.64,0.95,-1.64,0.96,-0.96,-1.06,0.28,-2.60,-2.59,-2.59
468.71,-1.70,0.89,-1.71,0.88,-0.88,-0.99,0.34,-2.58,-2.59,-2.59
473.40,-1.79,0.80,-1.79,0.80,-0.80,-0.91,0.39,-2.59,-2.59,-2.59
478.13,-1.87,0.71,-1.87,0.72,-0.72,-0.83,0.44,-2.59,-2.59,-2.58
482.91,-1.95,0.64,-1.95,0.64,-0.64,-0.75,0.48,-2.59,-2.59,-2.60
487.74,-2.04,0.54,-2.03,0.56,-0.56,-0.67,0.51,-2.60,-2.59,-2.59
