frequency,raw,error,smoothed,error_smoothed,equalization,parametric_eq,fixed_band_eq,equalized_raw,equalized_smoothed,target
20.00,8.91,-0.92,8.91,-0.93,0.93,0.98,-0.27,9.83,9.83,9.83
20.20,8.95,-0.87,8.95,-0.87,0.87,0.93,-0.27,9.82,9.82,9.82
20.40,9.00,-0.81,8.99,-0.81,0.81,0.88,-0.28,9.81,9.81,9.81
20.61,9.04,-0.76,9.04,-0.76,0.76,0.82,-0.29,9.79,9.79,9.80
20.81,9.08,-0.70,9.08,-0.70,0.70,0.77,-0.29,9.78,9.78,9.78
21.02,9.12,-0.65,9.13,-0.65,0.65,0.71,-0.30,9.76,9.77,9.77
21.23,9.17,-0.59,9.17,-0.59,0.59,0.66,-0.31,9.76,9.76,9.76
21.44,9.21,-0.56,9.21,-0.54,0.54,0.61,-0.31,9.75,9.75,9.77
21.66,9.26,-0.49,9.26,-0.49,0.49,0.56,-0.32,9.74,9.74,9.75
21.87,9.30,-0.45,9.30,-0.43,0.43,0.51,-0.33,9.73,9.74,9.75
22.09,9.35,-0.38,9.34,-0.38,0.38,0.46,-0.34,9.73,9.73,9.73
22.31,9.39,-0.33,9.39,-0.33,0.33,0.41,-0.34,9.72,9.72,9.72
22.54,9.43,-0.28,9.43,-0.28,0.28,0.36,-0.35,9.71,9.71,9.71
22.76,9.48,-0.23,9.47,-0.23,0.23,0.31,-0.36,9.71,9.71,9.71
22.99,9.52,-0.18,9.52,-0.18,0.18,0.27,-0.37,9.70,9.70,9.70
23.22,9.56,-0.13,9.56,-0.14,0.14,0.22,-0.38,9.70,9.70,9.69
23.45,9.60,-0.10,9.60,-0.09,0.09,0.18,-0.39,9.69,9.69,9.70
23.69,9.64,-0.05,9.64,-0.04,0.04,0.14,-0.39,9.68,9.69,9.69
23.92,9.69,0.01,9.69,0.00,-0.00,0.09,-0.40,9.69,9.68,9.68
24.16,9.73,0.04,9.73,0.05,-0.05,0.05,-0.41,9.68,9.68,9.69
24.40,9.77,0.08,9.77,0.09,-0.09,0.01,-0.42,9.68,9.68,9.69
24.65,9.81,0.13,9.81,0.13,-0.13,-0.03,-0.43,9.68,9.68,9.68
24.89,9.85,0.17,9.85,0.18,-0.18,-0.07,-0.44,9.67,9.67,9.68
25.14,9.89,0.22,9.89,0.22,-0.22,-0.10,-0.45,9.67,9.67,9.67
25.39,9.93,0.26,9.93,0.26,-0.26,-0.14,-0.46,9.67,9.67,9.67
25.65,9.97,0.30,9.97,0.30,-0.30,-0.18,-0.48,9.67,9.67,9.67
25.91,10.02,0.35,10.01,0.34,-0.34,-0.21,-0.49,9.67,9.67,9.67
26.16,10.06,0.38,10.05,0.39,-0.39,-0.25,-0.50,9.67,9.67,9.68
26.43,10.09,0.42,10.09,0.42,-0.42,-0.28,-0.51,9.66,9.67,9.67
26.69,10.13,0.46,10.13,0.46,-0.46,-0.32,-0.52,9.67,9.67,9.67
26.96,10.17,0.50,10.17,0.50,-0.50,-0.35,-0.54,9.67,9.67,9.67
27.23,10.21,0.54,10.21,0.54,-0.54,-0.38,-0.55,9.67,9.67,9.67
27.50,10.25,0.58,10.25,0.57,-0.57,-0.42,-0.56,9.68,9.67,9.67
27.77,10.28,0.60,10.28,0.61,-0.61,-0.45,-0.58,9.67,9.68,9.68
28.05,10.32,0.65,10.32,0.64,-0.64,-0.48,-0.59,9.68,9.68,9.67
28.33,10.35,0.67,10.35,0.68,-0.68,-0.51,-0.61,9.67,9.68,9.68
28.62,10.38,0.70,10.39,0.71,-0.71,-0.54,-0.62,9.67,9.68,9.68
28.90,10.42,0.73,10.42,0.74,-0.74,-0.57,-0.64,9.68,9.68,9.69
29.19,10.45,0.76,10.45,0.77,-0.77,-0.61,-0.65,9.68,9.68,9.69
29.48,10.48,0.80,10.48,0.80,-0.80,-0.64,-0.67,9.68,9.68,9.68
29.78,10.52,0.84,10.50,0.83,-0.83,-0.67,-0.68,9.69,9.67,9.68
30.08,10.54,0.86,10.53,0.86,-0.86,-0.70,-0.70,9.68,9.67,9.68
30.38,10.56,0.90,10.56,0.89,-0.89,-0.73,-0.72,9.67,9.67,9.66
30.68,10.58,0.92,10.58,0.92,-0.92,-0.76,-0.74,9.66,9.66,9.66
30.99,10.60,0.94,10.61,0.95,-0.95,-0.79,-0.76,9.65,9.66,9.66
31.30,10.62,0.96,10.63,0.98,-0.98,-0.82,-0.78,9.64,9.65,9.66
31.61,10.65,1.00,10.65,1.01,-1.01,-0.85,-0.80,9.64,9.64,9.65
31.93,10.67,1.04,10.68,1.04,-1.04,-0.88,-0.82,9.63,9.64,9.63
32.24,10.70,1.06,10.70,1.07,-1.07,-0.91,-0.84,9.63,9.63,9.64
32.57,10.73,1.11,10.72,1.10,-1.10,-0.94,-0.86,9.63,9.62,9.62
32.89,10.75,1.13,10.74,1.13,-1.13,-0.97,-0.88,9.62,9.62,9.62
33.22,10.77,1.16,10.77,1.15,-1.15,-1.00,-0.90,9.61,9.61,9.61
33.55,10.79,1.18,10.79,1.18,-1.18,-1.03,-0.93,9.61,9.60,9.61
33.89,10.81,1.21,10.81,1.21,-1.21,-1.06,-0.95,9.60,9.60,9.60
34.23,10.83,1.25,10.83,1.24,-1.24,-1.09,-0.98,9.59,9.59,9.58
34.57,10.85,1.27,10.85,1.27,-1.27,-1.12,-1.00,9.58,9.58,9.58
34.92,10.88,1.32,10.87,1.30,-1.30,-1.15,-1.03,9.58,9.57,9.56
35.27,10.89,1.31,10.89,1.33,-1.33,-1.18,-1.06,9.56,9.56,9.58
35.62,10.90,1.35,10.91,1.36,-1.36,-1.21,-1.09,9.54,9.55,9.55
35.97,10.92,1.37,10.92,1.39,-1.39,-1.24,-1.12,9.53,9.54,9.55
36.33,10.94,1.41,10.94,1.42,-1.42,-1.27,-1.15,9.52,9.52,9.53
36.70,10.96,1.45,10.96,1.45,-1.45,-1.30,-1.18,9.51,9.51,9.51
37.06,10.97,1.48,10.97,1.48,-1.48,-1.33,-1.21,9.49,9.49,9.49
37.43,10.99,1.52,10.99,1.52,-1.52,-1.36,-1.24,9.47,9.47,9.47
37.81,11.00,1.54,11.01,1.55,-1.55,-1.39,-1.28,9.45,9.45,9.46
38.19,11.02,1.59,11.02,1.59,-1.59,-1.43,-1.31,9.43,9.43,9.43
38.57,11.03,1.62,11.03,1.62,-1.62,-1.46,-1.35,9.41,9.41,9.41
38.95,11.05,1.65,11.05,1.66,-1.66,-1.49,-1.38,9.39,9.39,9.40
39.34,11.06,1.69,11.06,1.69,-1.69,-1.52,-1.42,9.37,9.37,9.37
39.74,11.07,1.73,11.07,1.72,-1.72,-1.55,-1.46,9.35,9.35,9.34
40.14,11.08,1.76,11.08,1.75,-1.75,-1.59,-1.50,9.32,9.32,9.32
40.54,11.10,1.80,11.09,1.79,-1.79,-1.62,-1.54,9.31,9.30,9.30
40.94,11.11,1.84,11.09,1.81,-1.81,-1.65,-1.59,9.30,9.28,9.27
41.35,11.11,1.85,11.10,1.84,-1.84,-1.69,-1.63,9.27,9.26,9.26
41.76,11.10,1.87,11.11,1.87,-1.87,-1.72,-1.68,9.23,9.23,9.23
42.18,11.10,1.88,11.11,1.90,-1.90,-1.75,-1.73,9.20,9.21,9.22
42.60,11.11,1.92,11.12,1.93,-1.93,-1.79,-1.77,9.18,9.19,9.19
43.03,11.11,1.94,11.12,1.96,-1.96,-1.82,-1.82,9.15,9.16,9.17
43.46,11.12,1.99,11.13,1.99,-1.99,-1.86,-1.88,9.13,9.14,9.13
43.90,11.13,2.02,11.13,2.02,-2.02,-1.89,-1.93,9.11,9.11,9.11
44.33,11.14,2.06,11.14,2.05,-2.05,-1.93,-1.98,9.08,9.08,9.08
44.78,11.15,2.09,11.14,2.09,-2.09,-1.96,-2.04,9.06,9.05,9.06
45.23,11.15,2.11,11.15,2.13,-2.13,-2.00,-2.09,9.02,9.02,9.04
45.68,11.16,2.17,11.16,2.17,-2.17,-2.04,-2.15,8.99,8.99,8.99
46.13,11.17,2.21,11.17,2.21,-2.21,-2.07,-2.21,8.96,8.95,8.96
46.60,11.18,2.26,11.18,2.26,-2.26,-2.11,-2.27,8.92,8.92,8.92
47.06,11.19,2.30,11.18,2.31,-2.31,-2.15,-2.34,8.88,8.88,8.89
47.53,11.20,2.35,11.19,2.36,-2.36,-2.19,-2.40,8.84,8.84,8.85
48.01,11.20,2.40,11.21,2.41,-2.41,-2.22,-2.47,8.79,8.80,8.80
48.49,11.21,2.45,11.22,2.46,-2.46,-2.26,-2.53,8.75,8.76,8.76
48.97,11.22,2.51,11.23,2.51,-2.51,-2.30,-2.60,8.71,8.72,8.71
49.46,11.24,2.56,11.24,2.57,-2.57,-2.34,-2.67,8.67,8.68,8.68
49.96,11.26,2.64,11.26,2.63,-2.63,-2.38,-2.74,8.63,8.63,8.62
50.46,11.27,2.68,11.27,2.68,-2.68,-2.42,-2.81,8.59,8.59,8.59
50.96,11.29,2.74,11.29,2.74,-2.74,-2.46,-2.88,8.55,8.55,8.55
51.47,11.31,2.80,11.31,2.80,-2.80,-2.50,-2.95,8.51,8.51,8.51
51.99,11.33,2.87,11.32,2.86,-2.86,-2.54,-3.02,8.47,8.47,8.46
52.51,11.35,2.92,11.34,2.92,-2.92,-2.58,-3.09,8.43,8.42,8.43
53.03,11.36,2.96,11.36,2.98,-2.98,-2.62,-3.17,8.38,8.38,8.40
53.56,11.38,3.03,11.38,3.04,-3.04,-2.66,-3.24,8.34,8.34,8.35
54.10,11.39,3.09,11.40,3.09,-3.09,-2.71,-3.31,8.30,8.30,8.30
54.64,11.41,3.15,11.41,3.15,-3.15,-2.75,-3.38,8.26,8.26,8.26
55.18,11.43,3.21,11.43,3.20,-3.20,-2.79,-3.45,8.23,8.23,8.22
55.74,11.44,3.27,11.44,3.26,-3.26,-2.83,-3.52,8.18,8.19,8.17
56.29,11.46,3.31,11.46,3.31,-3.31,-2.88,-3.58,8.15,8.15,8.15
56.86,11.47,3.36,11.47,3.36,-3.36,-2.92,-3.65,8.11,8.11,8.11
57.42,11.48,3.42,11.48,3.41,-3.41,-2.96,-3.71,8.07,8.07,8.06
58.00,11.49,3.47,11.49,3.46,-3.46,-3.01,-3.77,8.03,8.02,8.02
58.58,11.50,3.51,11.49,3.51,-3.51,-3.05,-3.83,7.98,7.98,7.99
59.16,11.50,3.54,11.50,3.57,-3.57,-3.10,-3.88,7.93,7.93,7.96
59.76,11.51,3.60,11.50,3.61,-3.61,-3.14,-3.93,7.89,7.89,7.91
60.35,11.51,3.65,11.50,3.66,-3.66,-3.19,-3.98,7.85,7.84,7.86
60.96,11.51,3.71,11.50,3.71,-3.71,-3.24,-4.02,7.80,7.79,7.80
61.57,11.49,3.75,11.49,3.75,-3.75,-3.28,-4.07,7.74,7.74,7.74
62.18,11.48,3.80,11.49,3.80,-3.80,-3.33,-4.10,7.68,7.69,7.68
62.80,11.47,3.85,11.47,3.84,-3.84,-3.38,-4.14,7.63,7.63,7.62
63.43,11.46,3.89,11.46,3.88,-3.88,-3.42,-4.17,7.58,7.58,7.57
64.07,11.45,3.93,11.45,3.92,-3.92,-3.47,-4.20,7.53,7.53,7.52
64.71,11.44,3.97,11.43,3.96,-3.96,-3.52,-4.22,7.48,7.47,7.47
65.35,11.42,4.01,11.41,4.00,-4.00,-3.57,-4.24,7.42,7.42,7.41
66.01,11.40,4.04,11.39,4.03,-4.03,-3.61,-4.26,7.37,7.36,7.36
66.67,11.37,4.05,11.37,4.07,-4.07,-3.66,-4.27,7.30,7.31,7.32
67.33,11.35,4.10,11.35,4.10,-4.10,-3.71,-4.29,7.25,7.25,7.25
68.01,11.33,4.13,11.33,4.13,-4.13,-3.76,-4.30,7.20,7.20,7.20
68.69,11.31,4.16,11.31,4.16,-4.16,-3.81,-4.31,7.14,7.14,7.15
69.37,11.28,4.18,11.28,4.20,-4.20,-3.86,-4.31,7.08,7.08,7.10
70.07,11.26,4.22,11.26,4.23,-4.23,-3.91,-4.32,7.03,7.03,7.04
70.77,11.24,4.27,11.24,4.26,-4.26,-3.96,-4.33,6.97,6.97,6.97
71.48,11.22,4.30,11.21,4.30,-4.30,-4.01,-4.33,6.92,6.91,6.92
72.19,11.19,4.33,11.19,4.34,-4.34,-4.06,-4.34,6.85,6.86,6.86
72.91,11.17,4.38,11.18,4.38,-4.38,-4.12,-4.34,6.79,6.80,6.79
73.64,11.16,4.42,11.16,4.42,-4.42,-4.17,-4.35,6.74,6.74,6.74
74.38,11.14,4.46,11.15,4.46,-4.46,-4.22,-4.35,6.68,6.69,6.68
75.12,11.13,4.50,11.14,4.51,-4.51,-4.27,-4.36,6.62,6.63,6.63
75.87,11.12,4.54,11.13,4.55,-4.55,-4.32,-4.37,6.57,6.58,6.58
76.63,11.12,4.60,11.13,4.60,-4.60,-4.38,-4.38,6.52,6.53,6.52
77.40,11.12,4.64,11.13,4.65,-4.65,-4.43,-4.39,6.47,6.47,6.48
78.17,11.12,4.70,11.12,4.70,-4.70,-4.48,-4.40,6.42,6.42,6.42
78.95,11.13,4.75,11.12,4.75,-4.75,-4.53,-4.42,6.38,6.37,6.38
79.74,11.14,4.81,11.12,4.80,-4.80,-4.59,-4.44,6.34,6.32,6.33
80.54,11.14,4.86,11.13,4.85,-4.85,-4.64,-4.46,6.29,6.27,6.28
81.35,11.14,4.92,11.13,4.91,-4.91,-4.69,-4.49,6.23,6.22,6.22
82.16,11.14,4.95,11.14,4.96,-4.96,-4.75,-4.51,6.18,6.17,6.19
82.98,11.14,5.01,11.14,5.02,-5.02,-4.80,-4.54,6.12,6.12,6.13
83.81,11.14,5.06,11.15,5.08,-5.08,-4.85,-4.58,6.06,6.07,6.08
84.65,11.14,5.12,11.15,5.13,-5.13,-4.91,-4.61,6.01,6.02,6.02
85.50,11.14,5.18,11.15,5.19,-5.19,-4.96,-4.65,5.95,5.96,5.96
86.35,11.14,5.23,11.16,5.25,-5.25,-5.02,-4.70,5.89,5.91,5.91
87.22,11.15,5.29,11.16,5.30,-5.30,-5.07,-4.75,5.85,5.86,5.86
88.09,11.16,5.36,11.15,5.35,-5.35,-5.12,-4.80,5.80,5.80,5.80
88.97,11.16,5.42,11.15,5.41,-5.41,-5.18,-4.85,5.75,5.74,5.74
89.86,11.16,5.47,11.14,5.46,-5.46,-5.23,-4.91,5.70,5.69,5.69
90.76,11.15,5.52,11.13,5.51,-5.51,-5.29,-4.97,5.64,5.63,5.63
91.66,11.14,5.58,11.12,5.56,-5.56,-5.34,-5.04,5.58,5.57,5.56
92.58,11.12,5.61,11.10,5.60,-5.60,-5.39,-5.11,5.52,5.51,5.51
93.51,11.09,5.63,11.08,5.64,-5.64,-5.45,-5.18,5.45,5.44,5.46
94.44,11.07,5.67,11.06,5.67,-5.67,-5.50,-5.26,5.40,5.38,5.40
95.39,11.04,5.71,11.03,5.71,-5.71,-5.56,-5.33,5.33,5.32,5.33
96.34,11.01,5.75,11.00,5.74,-5.74,-5.61,-5.42,5.27,5.26,5.26
97.30,10.97,5.77,10.97,5.77,-5.77,-5.66,-5.50,5.20,5.20,5.20
98.28,10.94,5.81,10.94,5.80,-5.80,-5.72,-5.59,5.14,5.14,5.13
99.26,10.90,5.83,10.91,5.84,-5.84,-5.77,-5.68,5.06,5.08,5.07
100.25,10.87,5.86,10.89,5.87,-5.87,-5.82,-5.78,5.00,5.02,5.01
101.25,10.84,5.88,10.87,5.91,-5.91,-5.87,-5.87,4.93,4.96,4.96
102.27,10.83,5.93,10.86,5.96,-5.96,-5.93,-5.97,4.87,4.90,4.90
103.29,10.82,5.98,10.84,6.00,-6.00,-5.98,-6.07,4.82,4.84,4.84
104.32,10.81,6.02,10.83,6.05,-6.05,-6.03,-6.17,4.76,4.79,4.79
105.37,10.80,6.07,10.82,6.09,-6.09,-6.08,-6.27,4.71,4.73,4.73
106.42,10.81,6.13,10.81,6.14,-6.14,-6.14,-6.37,4.67,4.67,4.68
107.48,10.82,6.20,10.80,6.19,-6.19,-6.19,-6.47,4.63,4.62,4.62
108.56,10.83,6.26,10.79,6.23,-6.23,-6.24,-6.57,4.59,4.56,4.57
109.64,10.82,6.31,10.78,6.28,-6.28,-6.29,-6.67,4.54,4.50,4.51
110.74,10.81,6.36,10.77,6.32,-6.32,-6.34,-6.77,4.48,4.44,4.45
111.85,10.77,6.38,10.75,6.37,-6.37,-6.39,-6.86,4.40,4.38,4.39
112.97,10.74,6.40,10.73,6.41,-6.41,-6.44,-6.95,4.33,4.33,4.34
114.10,10.71,6.43,10.71,6.44,-6.44,-6.48,-7.04,4.27,4.27,4.28
115.24,10.68,6.48,10.68,6.48,-6.48,-6.53,-7.12,4.20,4.21,4.20
116.39,10.65,6.51,10.66,6.51,-6.51,-6.58,-7.20,4.14,4.15,4.14
117.55,10.62,6.54,10.63,6.54,-6.54,-6.63,-7.27,4.08,4.09,4.08
118.73,10.59,6.57,10.61,6.57,-6.57,-6.67,-7.33,4.02,4.04,4.02
119.92,10.55,6.57,10.58,6.60,-6.60,-6.72,-7.39,3.95,3.98,3.98
121.12,10.54,6.61,10.55,6.63,-6.63,-6.76,-7.44,3.91,3.92,3.93
122.33,10.53,6.66,10.53,6.66,-6.66,-6.81,-7.48,3.87,3.87,3.87
123.55,10.51,6.69,10.51,6.70,-6.70,-6.85,-7.51,3.81,3.81,3.82
124.79,10.48,6.71,10.49,6.73,-6.73,-6.90,-7.54,3.75,3.76,3.77
126.03,10.47,6.76,10.46,6.76,-6.76,-6.94,-7.56,3.71,3.70,3.71
127.29,10.46,6.80,10.44,6.79,-6.79,-6.98,-7.57,3.67,3.65,3.66
128.57,10.44,6.85,10.42,6.82,-6.82,-7.02,-7.57,3.62,3.59,3.59
129.85,10.41,6.87,10.39,6.86,-6.86,-7.06,-7.56,3.55,3.54,3.54
131.15,10.38,6.90,10.37,6.89,-6.89,-7.10,-7.55,3.49,3.48,3.48
132.46,10.35,6.92,10.34,6.92,-6.92,-7.14,-7.52,3.43,3.43,3.43
133.79,10.32,6.95,10.32,6.95,-6.95,-7.17,-7.50,3.37,3.37,3.37
135.12,10.28,6.96,10.29,6.97,-6.97,-7.21,-7.46,3.30,3.32,3.32
136.48,10.26,6.99,10.27,7.00,-7.00,-7.24,-7.42,3.26,3.27,3.27
137.84,10.22,7.00,10.25,7.03,-7.03,-7.28,-7.38,3.19,3.21,3.22
139.22,10.21,7.05,10.22,7.06,-7.06,-7.31,-7.33,3.15,3.16,3.16
140.61,10.19,7.07,10.20,7.08,-7.08,-7.34,-7.28,3.11,3.12,3.12
142.02,10.17,7.11,10.17,7.11,-7.11,-7.37,-7.23,3.06,3.07,3.06
143.44,10.16,7.14,10.15,7.13,-7.13,-7.40,-7.17,3.03,3.02,3.02
144.87,10.13,7.15,10.13,7.16,-7.16,-7.43,-7.12,2.97,2.98,2.98
146.32,10.12,7.19,10.11,7.18,-7.18,-7.46,-7.06,2.94,2.93,2.93
147.78,10.10,7.21,10.09,7.20,-7.20,-7.48,-7.00,2.90,2.89,2.89
149.26,10.08,7.24,10.07,7.22,-7.22,-7.51,-6.95,2.86,2.84,2.84
150.75,10.05,7.25,10.04,7.24,-7.24,-7.53,-6.89,2.81,2.80,2.80
152.26,10.02,7.26,10.02,7.26,-7.26,-7.55,-6.84,2.76,2.76,2.76
153.78,9.99,7.27,9.99,7.27,-7.27,-7.57,-6.79,2.72,2.71,2.72
155.32,9.97,7.29,9.96,7.29,-7.29,-7.59,-6.74,2.68,2.67,2.68
156.88,9.93,7.30,9.93,7.30,-7.30,-7.61,-6.70,2.63,2.63,2.63
158.44,9.90,7.32,9.90,7.32,-7.32,-7.63,-6.66,2.58,2.58,2.58
160.03,9.86,7.32,9.87,7.33,-7.33,-7.64,-6.62,2.53,2.54,2.54
161.63,9.83,7.33,9.84,7.35,-7.35,-7.66,-6.58,2.48,2.49,2.50
163.24,9.80,7.35,9.81,7.36,-7.36,-7.67,-6.55,2.44,2.45,2.45
164.88,9.75,7.35,9.78,7.38,-7.38,-7.68,-6.53,2.37,2.40,2.40
166.53,9.73,7.38,9.74,7.39,-7.39,-7.69,-6.50,2.34,2.35,2.35
168.19,9.71,7.39,9.71,7.40,-7.40,-7.70,-6.49,2.30,2.31,2.32
169.87,9.69,7.43,9.68,7.42,-7.42,-7.71,-6.47,2.27,2.26,2.26
171.57,9.67,7.46,9.64,7.43,-7.43,-7.71,-6.46,2.24,2.21,2.21
173.29,9.64,7.47,9.61,7.45,-7.45,-7.72,-6.46,2.19,2.16,2.17
175.02,9.59,7.47,9.58,7.46,-7.46,-7.72,-6.46,2.13,2.12,2.12
176.77,9.55,7.48,9.55,7.47,-7.47,-7.72,-6.47,2.07,2.07,2.07
178.54,9.51,7.48,9.51,7.49,-7.49,-7.72,-6.48,2.02,2.02,2.03
180.32,9.47,7.50,9.48,7.50,-7.50,-7.72,-6.49,1.97,1.98,1.97
182.13,9.43,7.49,9.45,7.51,-7.51,-7.71,-6.52,1.92,1.93,1.94
183.95,9.38,7.49,9.41,7.52,-7.52,-7.71,-6.54,1.86,1.89,1.89
185.79,9.36,7.52,9.37,7.53,-7.53,-7.70,-6.57,1.83,1.84,1.84
187.65,9.34,7.54,9.34,7.54,-7.54,-7.69,-6.61,1.80,1.80,1.80
189.52,9.32,7.56,9.30,7.55,-7.55,-7.68,-6.65,1.77,1.75,1.76
191.42,9.29,7.57,9.27,7.56,-7.56,-7.67,-6.69,1.73,1.71,1.72
193.33,9.25,7.57,9.24,7.57,-7.57,-7.66,-6.74,1.68,1.67,1.68
195.27,9.20,7.57,9.20,7.57,-7.57,-7.64,-6.79,1.63,1.63,1.63
197.22,9.16,7.58,9.17,7.58,-7.58,-7.63,-6.85,1.58,1.59,1.58
199.19,9.12,7.57,9.13,7.58,-7.58,-7.61,-6.90,1.54,1.56,1.55
201.18,9.09,7.58,9.09,7.57,-7.57,-7.59,-6.97,1.51,1.52,1.51
203.19,9.06,7.58,9.06,7.57,-7.57,-7.57,-7.03,1.49,1.48,1.48
205.23,9.03,7.57,9.02,7.57,-7.57,-7.55,-7.10,1.46,1.45,1.46
207.28,8.99,7.56,8.97,7.55,-7.55,-7.53,-7.17,1.43,1.42,1.43
209.35,8.95,7.56,8.93,7.54,-7.54,-7.50,-7.24,1.41,1.39,1.39
211.44,8.89,7.53,8.89,7.53,-7.53,-7.48,-7.31,1.36,1.36,1.36
213.56,8.83,7.49,8.84,7.51,-7.51,-7.45,-7.39,1.32,1.33,1.34
215.69,8.79,7.48,8.80,7.50,-7.50,-7.42,-7.46,1.29,1.30,1.31
217.85,8.74,7.46,8.76,7.48,-7.48,-7.39,-7.53,1.26,1.28,1.28
220.03,8.71,7.46,8.72,7.46,-7.46,-7.36,-7.60,1.25,1.25,1.25
222.23,8.68,7.46,8.67,7.44,-7.44,-7.33,-7.67,1.23,1.23,1.22
224.45,8.63,7.42,8.63,7.42,-7.42,-7.30,-7.73,1.21,1.21,1.21
226.70,8.59,7.41,8.59,7.40,-7.40,-7.26,-7.79,1.19,1.18,1.18
228.96,8.53,7.36,8.54,7.38,-7.38,-7.23,-7.85,1.15,1.16,1.17
231.25,8.50,7.35,8.50,7.35,-7.35,-7.19,-7.90,1.14,1.15,1.15
233.57,8.47,7.34,8.46,7.33,-7.33,-7.15,-7.94,1.14,1.13,1.13
235.90,8.42,7.30,8.42,7.30,-7.30,-7.11,-7.98,1.12,1.11,1.12
238.26,8.38,7.29,8.38,7.28,-7.28,-7.08,-8.01,1.10,1.10,1.09
240.64,8.34,7.24,8.33,7.24,-7.24,-7.03,-8.02,1.10,1.09,1.10
243.05,8.30,7.22,8.29,7.21,-7.21,-6.99,-8.03,1.09,1.08,1.08
245.48,8.25,7.18,8.25,7.17,-7.17,-6.95,-8.04,1.07,1.07,1.07
247.93,8.19,7.13,8.20,7.14,-7.14,-6.91,-8.03,1.05,1.07,1.06
250.41,8.16,7.09,8.16,7.10,-7.10,-6.86,-8.01,1.06,1.06,1.07
252.92,8.11,7.05,8.12,7.06,-7.06,-6.81,-7.97,1.05,1.06,1.06
255.45,8.07,7.02,8.07,7.02,-7.02,-6.77,-7.93,1.05,1.05,1.05
258.00,8.03,6.98,8.03,6.98,-6.98,-6.72,-7.88,1.05,1.05,1.05
260.58,7.98,6.93,7.98,6.94,-6.94,-6.67,-7.82,1.04,1.04,1.05
263.19,7.94,6.89,7.93,6.89,-6.89,-6.62,-7.75,1.05,1.04,1.05
265.82,7.89,6.85,7.89,6.85,-6.85,-6.57,-7.68,1.04,1.04,1.04
268.48,7.85,6.81,7.84,6.81,-6.81,-6.52,-7.59,1.04,1.03,1.04
271.16,7.80,6.76,7.80,6.76,-6.76,-6.47,-7.50,1.04,1.03,1.04
273.87,7.74,6.70,7.75,6.72,-6.72,-6.42,-7.40,1.02,1.03,1.04
276.61,7.70,6.66,7.70,6.67,-6.67,-6.37,-7.29,1.03,1.03,1.04
279.38,7.65,6.63,7.66,6.63,-6.63,-6.31,-7.18,1.02,1.03,1.02
282.17,7.61,6.59,7.61,6.58,-6.58,-6.26,-7.06,1.03,1.03,1.02
284.99,7.57,6.54,7.56,6.53,-6.53,-6.21,-6.94,1.04,1.03,1.03
287.84,7.51,6.47,7.51,6.48,-6.48,-6.15,-6.82,1.03,1.03,1.04
290.72,7.46,6.43,7.46,6.43,-6.43,-6.09,-6.70,1.03,1.04,1.03
293.63,7.41,6.37,7.41,6.38,-6.38,-6.04,-6.57,1.03,1.04,1.04
296.57,7.36,6.31,7.36,6.32,-6.32,-5.98,-6.45,1.04,1.04,1.05
299.53,7.31,6.26,7.31,6.27,-6.27,-5.93,-6.32,1.04,1.05,1.05
302.53,7.27,6.20,7.26,6.21,-6.21,-5.87,-6.20,1.06,1.05,1.07
305.55,7.22,6.16,7.21,6.15,-6.15,-5.81,-6.07,1.07,1.06,1.06
308.61,7.16,6.09,7.15,6.08,-6.08,-5.75,-5.95,1.07,1.07,1.07
311.69,7.09,6.01,7.09,6.02,-6.02,-5.69,-5.83,1.07,1.08,1.08
314.81,7.04,5.96,7.04,5.95,-5.95,-5.63,-5.71,1.09,1.08,1.08
317.96,6.99,5.90,6.98,5.89,-5.89,-5.57,-5.59,1.10,1.09,1.09
321.14,6.93,5.83,6.92,5.82,-5.82,-5.52,-5.47,1.11,1.10,1.10
324.35,6.86,5.76,6.85,5.75,-5.75,-5.46,-5.36,1.11,1.11,1.10
327.59,6.79,5.66,6.79,5.68,-5.68,-5.39,-5.25,1.11,1.11,1.13
330.87,6.73,5.61,6.73,5.61,-5.61,-5.33,-5.15,1.12,1.12,1.12
334.18,6.66,5.53,6.67,5.54,-5.54,-5.27,-5.04,1.12,1.13,1.13
337.52,6.59,5.46,6.61,5.47,-5.47,-5.21,-4.94,1.12,1.14,1.13
340.90,6.54,5.39,6.55,5.40,-5.40,-5.15,-4.85,1.14,1.14,1.15
344.30,6.48,5.32,6.49,5.34,-5.34,-5.09,-4.75,1.14,1.15,1.16
347.75,6.43,5.27,6.43,5.27,-5.27,-5.03,-4.66,1.16,1.16,1.16
351.23,6.37,5.21,6.37,5.21,-5.21,-4.97,-4.58,1.16,1.17,1.16
354.74,6.32,5.13,6.32,5.14,-5.14,-4.90,-4.50,1.18,1.18,1.19
358.28,6.26,5.08,6.26,5.08,-5.08,-4.84,-4.42,1.18,1.18,1.18
361.87,6.21,5.02,6.21,5.02,-5.02,-4.78,-4.34,1.19,1.19,1.19
365.49,6.15,4.95,6.15,4.95,-4.95,-4.72,-4.27,1.20,1.20,1.20
369.14,6.10,4.88,6.09,4.88,-4.88,-4.66,-4.20,1.22,1.21,1.22
372.83,6.05,4.83,6.03,4.82,-4.82,-4.59,-4.13,1.23,1.22,1.22
376.56,5.98,4.76,5.98,4.75,-4.75,-4.53,-4.07,1.23,1.22,1.22
380.33,5.92,4.69,5.92,4.68,-4.68,-4.47,-4.01,1.24,1.23,1.23
384.13,5.86,4.61,5.86,4.62,-4.62,-4.40,-3.95,1.24,1.24,1.25
387.97,5.80,4.55,5.80,4.54,-4.54,-4.34,-3.90,1.26,1.25,1.25
391.85,5.73,4.47,5.74,4.47,-4.47,-4.28,-3.85,1.26,1.26,1.26
395.77,5.67,4.40,5.67,4.40,-4.40,-4.22,-3.80,1.27,1.27,1.27
399.73,5.60,4.32,5.61,4.33,-4.33,-4.15,-3.75,1.27,1.28,1.28
403.72,5.54,4.23,5.55,4.26,-4.26,-4.09,-3.71,1.28,1.29,1.31
407.76,5.49,4.19,5.49,4.18,-4.18,-4.03,-3.67,1.31,1.30,1.30
411.84,5.43,4.12,5.42,4.11,-4.11,-3.96,-3.63,1.32,1.31,1.31
415.96,5.37,4.04,5.36,4.04,-4.04,-3.90,-3.59,1.33,1.32,1.33
420.12,5.30,3.97,5.30,3.97,-3.97,-3.84,-3.55,1.33,1.33,1.33
424.32,5.22,3.88,5.24,3.90,-3.90,-3.77,-3.51,1.32,1.34,1.34
428.56,5.17,3.81,5.17,3.83,-3.83,-3.71,-3.48,1.34,1.35,1.36
432.85,5.12,3.75,5.11,3.75,-3.75,-3.65,-3.45,1.37,1.36,1.37
437.18,5.04,3.68,5.05,3.68,-3.68,-3.59,-3.41,1.36,1.37,1.36
441.55,4.98,3.61,4.98,3.61,-3.61,-3.52,-3.38,1.37,1.37,1.37
445.96,4.92,3.54,4.91,3.53,-3.53,-3.46,-3.35,1.39,1.38,1.38
450.42,4.86,3.47,4.85,3.45,-3.45,-3.40,-3.31,1.40,1.39,1.39
454.93,4.79,3.39,4.78,3.38,-3.38,-3.33,-3.28,1.41,1.40,1.40
459.48,4.71,3.30,4.71,3.30,-3.30,-3.27,-3.25,1.41,1.41,1.41
464.07,4.63,3.20,4.64,3.22,-3.22,-3.21,-3.21,1.41,1.42,1.43
468.71,4.57,3.13,4.57,3.15,-3.15,-3.15,-3.17,1.42,1.43,1.44
473.40,4.50,3.06,4.50,3.06,-3.06,-3.08,-3.14,1.44,1.44,1.44
478.13,4.43,2.98,4.43,2.98,-2.98,-3.02,-3.10,1.45,1.45,1.45
482.91,4.36,2.90,4.35,2.89,-2.89,-2.96,-3.06,1.46,1.46,1.46
487.74,4.28,2.81,4.28,2.81,-2.81,-2.90,-3.01,1.47,1.47,1.47
492.62,4.21,2.73,4.20,2.72,-2.72,-2.83,-2.97,1.49,1.48,1.48
497.55,4.14,2.65,4.13,2.63,-2.63,-2.77,-2.92,1.51,1.49,1.49
502.52,4.07,2.57,4.05,2.55,-2.55,-2.71,-2.87,1.52,1.50,1.50
507.55,3.99,2.47,3.98,2.46,-2.46,-2.65,-2.82,1.53,1.52,1.52
512.62,3.91,2.38,3.91,2.38,-2.38,-2.59,-2.76,1.53,1.53,1.53
517.75,3.83,2.28,3.84,2.30,-2.30,-2.52,-2.71,1.53,1.54,1.55
