frequency,raw,error,smoothed,error_smoothed,equalization,parametric_eq,fixed_band_eq,equalized_raw,equalized_smoothed,target
20.00,13.31,6.48,13.32,6.49,-6.52,-6.81,-2.03,6.79,6.81,6.83
20.20,13.30,6.44,13.27,6.41,-6.41,-6.67,-2.09,6.89,6.86,6.86
20.40,13.22,6.33,13.22,6.33,-6.31,-6.54,-2.15,6.91,6.90,6.89
20.61,13.15,6.24,13.15,6.23,-6.21,-6.40,-2.21,6.94,6.94,6.91
20.81,13.07,6.13,13.07,6.13,-6.12,-6.28,-2.27,6.95,6.95,6.94
21.02,12.99,6.02,12.99,6.03,-6.02,-6.15,-2.34,6.96,6.97,6.97
21.23,12.92,5.94,12.91,5.93,-5.93,-6.03,-2.41,6.98,6.98,6.98
21.44,12.83,5.84,12.83,5.84,-5.85,-5.91,-2.48,6.98,6.99,6.99
21.66,12.75,5.75,12.75,5.75,-5.76,-5.80,-2.55,6.99,6.99,7.00
21.87,12.68,5.68,12.67,5.67,-5.67,-5.69,-2.62,7.00,7.00,7.00
22.09,12.60,5.59,12.60,5.59,-5.59,-5.59,-2.69,7.00,7.01,7.01
22.31,12.54,5.53,12.53,5.52,-5.52,-5.49,-2.77,7.02,7.01,7.01
22.54,12.45,5.44,12.46,5.44,-5.44,-5.40,-2.85,7.00,7.01,7.01
22.76,12.39,5.38,12.38,5.37,-5.37,-5.30,-2.93,7.01,7.01,7.01
22.99,12.31,5.31,12.31,5.31,-5.30,-5.22,-3.01,7.00,7.01,7.00
23.22,12.24,5.24,12.24,5.24,-5.24,-5.14,-3.09,7.00,7.01,7.00
23.45,12.18,5.18,12.17,5.17,-5.17,-5.06,-3.18,7.01,7.00,7.00
23.69,12.10,5.10,12.10,5.10,-5.10,-4.99,-3.27,7.00,7.00,7.00
23.92,12.04,5.04,12.03,5.03,-5.03,-4.92,-3.36,7.00,7.00,7.00
24.16,11.97,4.97,11.97,4.97,-4.97,-4.85,-3.45,7.00,7.00,7.00
24.40,11.90,4.90,11.90,4.91,-4.91,-4.79,-3.54,6.99,7.00,7.00
24.65,11.86,4.87,11.84,4.84,-4.85,-4.73,-3.64,7.01,6.99,6.99
24.89,11.76,4.77,11.77,4.78,-4.79,-4.68,-3.73,6.97,6.99,6.99
25.14,11.72,4.73,11.72,4.73,-4.73,-4.63,-3.83,6.99,6.99,6.99
25.39,11.67,4.68,11.66,4.67,-4.67,-4.58,-3.93,6.99,6.99,6.99
25.65,11.62,4.63,11.61,4.62,-4.62,-4.54,-4.02,7.00,6.99,6.99
25.91,11.56,4.58,11.56,4.57,-4.57,-4.50,-4.12,6.99,6.99,6.98
26.16,11.49,4.51,11.50,4.52,-4.52,-4.46,-4.22,6.97,6.98,6.98
26.43,11.46,4.48,11.45,4.47,-4.47,-4.43,-4.32,6.99,6.98,6.98
26.69,11.40,4.42,11.40,4.42,-4.43,-4.40,-4.41,6.97,6.98,6.98
26.96,11.37,4.39,11.37,4.39,-4.38,-4.37,-4.51,6.98,6.98,6.98
27.23,11.32,4.35,11.32,4.35,-4.34,-4.35,-4.61,6.97,6.98,6.97
27.50,11.29,4.32,11.28,4.31,-4.31,-4.33,-4.70,6.98,6.97,6.97
27.77,11.23,4.27,11.24,4.27,-4.27,-4.31,-4.79,6.95,6.96,6.96
28.05,11.20,4.24,11.20,4.24,-4.24,-4.29,-4.88,6.95,6.96,6.96
28.33,11.18,4.23,11.17,4.21,-4.22,-4.28,-4.96,6.96,6.95,6.95
28.62,11.14,4.19,11.15,4.20,-4.20,-4.26,-5.04,6.94,6.95,6.95
28.90,11.13,4.18,11.12,4.18,-4.18,-4.25,-5.12,6.95,6.94,6.95
29.19,11.11,4.17,11.10,4.16,-4.16,-4.25,-5.19,6.94,6.94,6.94
29.48,11.09,4.15,11.10,4.16,-4.15,-4.24,-5.26,6.94,6.95,6.94
29.78,11.09,4.16,11.08,4.15,-4.14,-4.24,-5.32,6.95,6.94,6.93
30.08,11.09,4.16,11.07,4.14,-4.14,-4.24,-5.38,6.95,6.93,6.93
30.38,11.04,4.12,11.05,4.13,-4.13,-4.24,-5.43,6.91,6.92,6.92
30.68,11.04,4.12,11.04,4.12,-4.13,-4.25,-5.47,6.91,6.91,6.92
30.99,11.04,4.13,11.03,4.12,-4.13,-4.25,-5.51,6.91,6.90,6.91
31.30,11.04,4.14,11.04,4.13,-4.13,-4.26,-5.54,6.91,6.91,6.90
31.61,11.04,4.14,11.04,4.14,-4.13,-4.27,-5.57,6.90,6.90,6.90
31.93,11.04,4.15,11.04,4.15,-4.14,-4.29,-5.59,6.90,6.90,6.89
32.24,11.04,4.16,11.03,4.15,-4.15,-4.30,-5.60,6.88,6.88,6.88
32.57,11.04,4.16,11.04,4.16,-4.17,-4.32,-5.61,6.87,6.87,6.88
32.89,11.04,4.17,11.05,4.18,-4.19,-4.34,-5.61,6.85,6.87,6.87
33.22,11.09,4.23,11.07,4.21,-4.21,-4.36,-5.61,6.88,6.86,6.86
33.55,11.09,4.23,11.09,4.24,-4.23,-4.38,-5.61,6.86,6.86,6.86
33.89,11.12,4.27,11.11,4.26,-4.26,-4.41,-5.60,6.86,6.85,6.85
34.23,11.13,4.29,11.13,4.29,-4.29,-4.43,-5.58,6.83,6.84,6.84
34.57,11.16,4.33,11.16,4.33,-4.33,-4.46,-5.56,6.83,6.83,6.83
34.92,11.19,4.37,11.19,4.37,-4.37,-4.49,-5.54,6.82,6.82,6.82
35.27,11.23,4.42,11.22,4.41,-4.41,-4.52,-5.52,6.82,6.81,6.81
35.62,11.25,4.45,11.26,4.46,-4.45,-4.56,-5.49,6.79,6.80,6.80
35.97,11.30,4.51,11.29,4.50,-4.50,-4.59,-5.47,6.80,6.79,6.79
36.33,11.34,4.56,11.33,4.55,-4.55,-4.63,-5.44,6.79,6.78,6.78
36.70,11.37,4.60,11.38,4.61,-4.60,-4.67,-5.41,6.76,6.77,6.77
37.06,11.42,4.66,11.42,4.66,-4.66,-4.71,-5.39,6.76,6.76,6.76
37.43,11.47,4.72,11.46,4.71,-4.71,-4.76,-5.36,6.75,6.75,6.75
37.81,11.51,4.77,11.51,4.77,-4.77,-4.80,-5.34,6.74,6.74,6.74
38.19,11.56,4.83,11.56,4.83,-4.83,-4.85,-5.31,6.73,6.73,6.73
38.57,11.62,4.90,11.61,4.89,-4.89,-4.90,-5.29,6.73,6.72,6.72
38.95,11.67,4.96,11.67,4.96,-4.96,-4.95,-5.27,6.71,6.71,6.71
39.34,11.72,5.03,11.72,5.02,-5.02,-5.01,-5.25,6.70,6.69,6.69
39.74,11.76,5.08,11.76,5.08,-5.09,-5.06,-5.24,6.67,6.68,6.68
40.14,11.82,5.15,11.82,5.15,-5.15,-5.12,-5.23,6.67,6.67,6.67
40.54,11.88,5.22,11.88,5.22,-5.21,-5.18,-5.22,6.66,6.66,6.66
40.94,11.94,5.29,11.94,5.29,-5.28,-5.24,-5.21,6.66,6.66,6.65
41.35,12.00,5.36,11.99,5.35,-5.34,-5.30,-5.21,6.65,6.65,6.64
41.76,12.04,5.41,12.04,5.41,-5.41,-5.36,-5.21,6.63,6.63,6.63
42.18,12.09,5.47,12.09,5.47,-5.48,-5.43,-5.22,6.61,6.61,6.62
42.60,12.14,5.53,12.15,5.53,-5.54,-5.49,-5.23,6.60,6.60,6.61
43.03,12.21,5.61,12.20,5.60,-5.61,-5.56,-5.24,6.60,6.59,6.60
43.46,12.27,5.69,12.26,5.68,-5.68,-5.63,-5.25,6.59,6.58,6.58
43.90,12.30,5.74,12.31,5.75,-5.74,-5.70,-5.27,6.56,6.57,6.56
44.33,12.36,5.82,12.35,5.81,-5.81,-5.77,-5.30,6.55,6.55,6.54
44.78,12.39,5.87,12.39,5.87,-5.87,-5.83,-5.33,6.52,6.52,6.52
45.23,12.44,5.94,12.44,5.93,-5.93,-5.90,-5.36,6.51,6.51,6.50
45.68,12.47,5.98,12.48,5.99,-5.99,-5.97,-5.40,6.48,6.49,6.49
46.13,12.53,6.06,12.52,6.04,-6.04,-6.04,-5.44,6.49,6.48,6.47
46.60,12.56,6.10,12.55,6.10,-6.09,-6.11,-5.48,6.46,6.46,6.46
47.06,12.58,6.14,12.59,6.15,-6.15,-6.18,-5.53,6.43,6.44,6.44
47.53,12.62,6.20,12.61,6.19,-6.20,-6.24,-5.58,6.42,6.42,6.42
48.01,12.65,6.24,12.65,6.24,-6.25,-6.30,-5.64,6.40,6.40,6.41
48.49,12.67,6.29,12.68,6.29,-6.30,-6.36,-5.70,6.37,6.38,6.38
48.97,12.71,6.36,12.70,6.35,-6.34,-6.42,-5.76,6.36,6.35,6.35
49.46,12.72,6.40,12.72,6.40,-6.39,-6.47,-5.82,6.33,6.33,6.32
49.96,12.74,6.45,12.74,6.45,-6.44,-6.52,-5.89,6.30,6.30,6.29
50.46,12.76,6.49,12.75,6.48,-6.48,-6.57,-5.96,6.28,6.27,6.27
50.96,12.76,6.51,12.76,6.51,-6.52,-6.61,-6.04,6.24,6.24,6.25
51.47,12.76,6.54,12.78,6.55,-6.56,-6.65,-6.11,6.20,6.22,6.22
51.99,12.81,6.61,12.79,6.59,-6.59,-6.68,-6.19,6.22,6.20,6.20
52.51,12.81,6.63,12.81,6.63,-6.62,-6.71,-6.27,6.19,6.18,6.18
53.03,12.81,6.65,12.81,6.65,-6.65,-6.73,-6.34,6.16,6.16,6.16
53.56,12.81,6.68,12.81,6.68,-6.67,-6.75,-6.42,6.14,6.14,6.13
54.10,12.81,6.70,12.81,6.70,-6.69,-6.77,-6.50,6.11,6.11,6.11
54.64,12.81,6.73,12.80,6.72,-6.71,-6.78,-6.58,6.09,6.09,6.08
55.18,12.79,6.73,12.78,6.73,-6.73,-6.79,-6.66,6.06,6.05,6.06
55.74,12.76,6.73,12.77,6.74,-6.74,-6.79,-6.73,6.01,6.02,6.03
56.29,12.76,6.75,12.76,6.75,-6.76,-6.79,-6.81,6.00,6.00,6.01
56.86,12.76,6.77,12.75,6.76,-6.76,-6.79,-6.87,5.99,5.99,5.99
57.42,12.75,6.79,12.75,6.78,-6.77,-6.78,-6.94,5.98,5.97,5.96
58.00,12.72,6.78,12.73,6.78,-6.78,-6.78,-7.00,5.94,5.95,5.94
58.58,12.72,6.80,12.71,6.79,-6.78,-6.77,-7.06,5.94,5.93,5.92
59.16,12.67,6.77,12.68,6.78,-6.78,-6.76,-7.11,5.89,5.90,5.90
59.76,12.67,6.79,12.65,6.77,-6.78,-6.74,-7.15,5.88,5.87,5.88
60.35,12.62,6.77,12.62,6.77,-6.78,-6.73,-7.19,5.83,5.84,5.85
60.96,12.59,6.77,12.60,6.78,-6.78,-6.72,-7.23,5.81,5.82,5.82
61.57,12.58,6.80,12.56,6.78,-6.78,-6.70,-7.25,5.80,5.78,5.78
62.18,12.53,6.78,12.53,6.78,-6.78,-6.69,-7.27,5.75,5.75,5.75
62.80,12.50,6.78,12.50,6.78,-6.78,-6.68,-7.28,5.72,5.73,5.72
63.43,12.47,6.78,12.47,6.78,-6.77,-6.66,-7.28,5.70,5.70,5.69
64.07,12.44,6.78,12.44,6.77,-6.77,-6.65,-7.28,5.67,5.67,5.66
64.71,12.41,6.77,12.40,6.76,-6.76,-6.64,-7.27,5.65,5.64,5.64
65.35,12.35,6.74,12.36,6.75,-6.75,-6.63,-7.25,5.59,5.61,5.61
66.01,12.32,6.74,12.32,6.74,-6.74,-6.62,-7.23,5.57,5.58,5.58
66.67,12.29,6.74,12.28,6.73,-6.73,-6.61,-7.20,5.55,5.55,5.55
67.33,12.25,6.73,12.25,6.73,-6.72,-6.60,-7.16,5.52,5.53,5.52
68.01,12.21,6.72,12.21,6.72,-6.71,-6.59,-7.13,5.49,5.49,5.49
68.69,12.17,6.71,12.17,6.70,-6.70,-6.59,-7.08,5.47,5.46,5.46
69.37,12.12,6.69,12.12,6.69,-6.69,-6.58,-7.03,5.43,5.43,5.43
70.07,12.09,6.69,12.08,6.68,-6.68,-6.58,-6.98,5.41,5.40,5.40
70.77,12.04,6.67,12.04,6.67,-6.67,-6.58,-6.93,5.37,5.37,5.37
71.48,12.00,6.66,12.00,6.66,-6.66,-6.58,-6.88,5.34,5.34,5.34
72.19,11.95,6.65,11.95,6.65,-6.65,-6.58,-6.82,5.30,5.30,5.30
72.91,11.92,6.65,11.91,6.64,-6.64,-6.58,-6.77,5.28,5.27,5.27
73.64,11.86,6.63,11.86,6.63,-6.63,-6.59,-6.71,5.22,5.23,5.23
74.38,11.83,6.63,11.82,6.62,-6.63,-6.59,-6.66,5.20,5.20,5.20
75.12,11.78,6.62,11.78,6.62,-6.62,-6.59,-6.60,5.16,5.17,5.16
75.87,11.75,6.62,11.75,6.62,-6.61,-6.60,-6.55,5.14,5.14,5.13
76.63,11.72,6.62,11.71,6.61,-6.60,-6.61,-6.50,5.11,5.10,5.10
77.40,11.66,6.59,11.66,6.60,-6.60,-6.62,-6.45,5.06,5.07,5.07
78.17,11.62,6.59,11.62,6.58,-6.59,-6.63,-6.41,5.03,5.03,5.03
78.95,11.58,6.58,11.58,6.58,-6.58,-6.63,-6.37,5.00,5.00,5.00
79.74,11.55,6.58,11.54,6.58,-6.58,-6.64,-6.33,4.97,4.97,4.97
80.54,11.51,6.58,11.50,6.57,-6.57,-6.66,-6.29,4.94,4.93,4.93
81.35,11.46,6.56,11.46,6.57,-6.57,-6.67,-6.26,4.89,4.90,4.90
82.16,11.43,6.57,11.43,6.56,-6.57,-6.68,-6.23,4.86,4.86,4.86
82.98,11.40,6.57,11.40,6.57,-6.57,-6.69,-6.21,4.83,4.83,4.83
83.81,11.37,6.58,11.37,6.58,-6.57,-6.70,-6.19,4.80,4.79,4.79
84.65,11.34,6.59,11.34,6.58,-6.57,-6.72,-6.17,4.76,4.76,4.75
85.50,11.30,6.58,11.30,6.58,-6.58,-6.73,-6.16,4.72,4.72,4.72
86.35,11.27,6.59,11.26,6.58,-6.58,-6.74,-6.16,4.68,4.68,4.68
87.22,11.23,6.59,11.23,6.59,-6.59,-6.76,-6.16,4.64,4.64,4.64
88.09,11.19,6.59,11.20,6.60,-6.60,-6.77,-6.16,4.59,4.60,4.60
88.97,11.18,6.62,11.16,6.60,-6.61,-6.78,-6.17,4.57,4.55,4.56
89.86,11.13,6.61,11.13,6.61,-6.61,-6.80,-6.18,4.51,4.52,4.52
90.76,11.09,6.62,11.10,6.63,-6.63,-6.81,-6.20,4.46,4.48,4.47
91.66,11.09,6.66,11.07,6.64,-6.64,-6.82,-6.22,4.45,4.43,4.43
92.58,11.04,6.66,11.04,6.66,-6.65,-6.83,-6.25,4.38,4.39,4.38
93.51,11.00,6.66,11.01,6.67,-6.67,-6.85,-6.28,4.33,4.34,4.34
94.44,10.99,6.69,10.97,6.68,-6.68,-6.86,-6.31,4.30,4.29,4.30
95.39,10.95,6.70,10.95,6.70,-6.70,-6.87,-6.35,4.25,4.25,4.25
96.34,10.91,6.71,10.92,6.72,-6.72,-6.88,-6.40,4.19,4.20,4.20
97.30,10.90,6.75,10.88,6.73,-6.73,-6.89,-6.44,4.16,4.15,4.15
98.28,10.85,6.75,10.86,6.75,-6.75,-6.90,-6.49,4.10,4.11,4.10
99.26,10.82,6.76,10.83,6.77,-6.77,-6.91,-6.55,4.05,4.06,4.06
100.25,10.81,6.80,10.79,6.78,-6.78,-6.92,-6.60,4.03,4.01,4.01
101.25,10.76,6.80,10.76,6.80,-6.80,-6.92,-6.66,3.96,3.96,3.96
102.27,10.72,6.81,10.72,6.81,-6.81,-6.93,-6.73,3.91,3.91,3.91
103.29,10.69,6.83,10.69,6.82,-6.82,-6.94,-6.79,3.86,3.86,3.86
104.32,10.66,6.84,10.65,6.84,-6.84,-6.94,-6.86,3.82,3.82,3.82
105.37,10.62,6.85,10.62,6.85,-6.85,-6.94,-6.92,3.77,3.77,3.77
106.42,10.58,6.86,10.58,6.86,-6.86,-6.95,-6.99,3.72,3.72,3.72
107.48,10.54,6.87,10.54,6.87,-6.87,-6.95,-7.06,3.67,3.67,3.67
108.56,10.51,6.89,10.50,6.88,-6.88,-6.95,-7.12,3.63,3.62,3.62
109.64,10.46,6.89,10.46,6.89,-6.89,-6.95,-7.19,3.57,3.57,3.57
110.74,10.41,6.89,10.41,6.89,-6.89,-6.94,-7.25,3.51,3.52,3.52
111.85,10.37,6.90,10.36,6.89,-6.90,-6.94,-7.30,3.47,3.46,3.47
112.97,10.32,6.91,10.32,6.90,-6.91,-6.94,-7.36,3.41,3.41,3.41
114.10,10.27,6.91,10.27,6.91,-6.91,-6.93,-7.41,3.35,3.36,3.36
115.24,10.23,6.93,10.22,6.92,-6.92,-6.92,-7.45,3.31,3.31,3.30
116.39,10.18,6.93,10.18,6.93,-6.92,-6.91,-7.49,3.26,3.26,3.25
117.55,10.12,6.93,10.12,6.93,-6.92,-6.90,-7.52,3.20,3.20,3.19
118.73,10.07,6.93,10.06,6.92,-6.92,-6.89,-7.54,3.15,3.14,3.14
119.92,9.99,6.90,10.00,6.91,-6.92,-6.87,-7.55,3.07,3.09,3.09
121.12,9.95,6.91,9.95,6.91,-6.91,-6.86,-7.55,3.04,3.04,3.04
122.33,9.90,6.91,9.89,6.90,-6.90,-6.84,-7.55,3.00,2.99,2.99
123.55,9.83,6.89,9.83,6.89,-6.88,-6.82,-7.53,2.94,2.95,2.94
124.79,9.76,6.87,9.76,6.87,-6.87,-6.79,-7.50,2.89,2.89,2.89
126.03,9.70,6.86,9.69,6.85,-6.85,-6.77,-7.46,2.84,2.84,2.84
127.29,9.62,6.83,9.62,6.83,-6.83,-6.74,-7.42,2.78,2.78,2.79
128.57,9.54,6.81,9.54,6.81,-6.81,-6.71,-7.36,2.73,2.73,2.73
129.85,9.47,6.79,9.46,6.78,-6.78,-6.68,-7.29,2.68,2.68,2.68
131.15,9.39,6.76,9.39,6.76,-6.75,-6.65,-7.21,2.64,2.63,2.63
132.46,9.30,6.72,9.31,6.72,-6.72,-6.61,-7.12,2.58,2.59,2.58
133.79,9.23,6.69,9.22,6.68,-6.68,-6.57,-7.02,2.55,2.54,2.54
135.12,9.13,6.64,9.13,6.63,-6.63,-6.53,-6.91,2.49,2.49,2.49
136.48,9.02,6.57,9.03,6.58,-6.58,-6.48,-6.80,2.44,2.44,2.45
137.84,8.93,6.53,8.92,6.52,-6.53,-6.43,-6.68,2.40,2.40,2.40
139.22,8.82,6.47,8.82,6.46,-6.47,-6.38,-6.55,2.35,2.35,2.35
140.61,8.72,6.41,8.72,6.40,-6.40,-6.33,-6.42,2.32,2.32,2.31
142.02,8.61,6.33,8.61,6.33,-6.33,-6.27,-6.29,2.28,2.28,2.28
143.44,8.50,6.26,8.49,6.25,-6.25,-6.21,-6.15,2.25,2.24,2.24
144.87,8.37,6.17,8.37,6.17,-6.17,-6.15,-6.00,2.20,2.20,2.20
146.32,8.24,6.08,8.24,6.08,-6.08,-6.08,-5.86,2.16,2.16,2.16
147.78,8.12,5.99,8.11,5.98,-5.99,-6.01,-5.71,2.13,2.12,2.13
149.26,7.99,5.90,7.98,5.89,-5.90,-5.94,-5.56,2.09,2.09,2.09
150.75,7.84,5.79,7.85,5.80,-5.80,-5.86,-5.42,2.04,2.05,2.05
152.26,7.72,5.71,7.71,5.69,-5.70,-5.78,-5.27,2.02,2.01,2.01
153.78,7.56,5.59,7.57,5.59,-5.59,-5.69,-5.12,1.96,1.97,1.97
155.32,7.42,5.49,7.42,5.49,-5.49,-5.60,-4.97,1.93,1.94,1.93
156.88,7.28,5.39,7.26,5.37,-5.37,-5.51,-4.82,1.90,1.89,1.89
158.44,7.11,5.26,7.11,5.26,-5.26,-5.41,-4.68,1.85,1.85,1.85
160.03,6.94,5.13,6.95,5.14,-5.14,-5.31,-4.53,1.80,1.81,1.81
161.63,6.80,5.03,6.79,5.02,-5.02,-5.21,-4.39,1.78,1.77,1.77
163.24,6.63,4.90,6.63,4.89,-4.89,-5.10,-4.25,1.74,1.74,1.73
164.88,6.47,4.77,6.46,4.76,-4.76,-4.98,-4.11,1.71,1.70,1.70
166.53,6.28,4.62,6.29,4.63,-4.63,-4.86,-3.97,1.65,1.66,1.66
168.19,6.12,4.50,6.11,4.49,-4.50,-4.74,-3.84,1.62,1.62,1.62
169.87,5.94,4.36,5.94,4.36,-4.36,-4.61,-3.71,1.58,1.58,1.58
171.57,5.77,4.23,5.77,4.23,-4.22,-4.48,-3.58,1.55,1.55,1.54
173.29,5.60,4.09,5.59,4.08,-4.08,-4.34,-3.45,1.52,1.51,1.51
175.02,5.42,3.95,5.41,3.94,-3.94,-4.20,-3.32,1.48,1.47,1.47
176.77,5.21,3.78,5.22,3.79,-3.80,-4.05,-3.20,1.41,1.43,1.43
178.54,5.04,3.65,5.04,3.65,-3.65,-3.90,-3.08,1.39,1.39,1.39
180.32,4.87,3.52,4.86,3.51,-3.51,-3.75,-2.96,1.36,1.36,1.35
182.13,4.69,3.37,4.68,3.37,-3.36,-3.59,-2.84,1.33,1.32,1.32
183.95,4.50,3.22,4.50,3.22,-3.21,-3.42,-2.73,1.28,1.29,1.28
185.79,4.31,3.06,4.31,3.07,-3.07,-3.25,-2.61,1.24,1.25,1.25
187.65,4.14,2.93,4.13,2.92,-2.92,-3.08,-2.50,1.21,1.21,1.21
189.52,3.96,2.78,3.96,2.78,-2.78,-2.91,-2.40,1.18,1.18,1.18
191.42,3.79,2.64,3.79,2.64,-2.64,-2.74,-2.29,1.15,1.15,1.15
193.33,3.62,2.50,3.61,2.49,-2.49,-2.56,-2.19,1.12,1.12,1.12
195.27,3.44,2.35,3.44,2.35,-2.35,-2.39,-2.08,1.09,1.09,1.09
197.22,3.28,2.22,3.27,2.21,-2.21,-2.22,-1.99,1.06,1.06,1.06
199.19,3.11,2.08,3.11,2.08,-2.08,-2.05,-1.89,1.03,1.04,1.03
201.18,2.96,1.95,2.96,1.95,-1.94,-1.88,-1.79,1.01,1.01,1.01
203.19,2.81,1.82,2.80,1.81,-1.81,-1.72,-1.70,0.99,0.99,0.99
205.23,2.65,1.68,2.65,1.68,-1.68,-1.57,-1.61,0.96,0.97,0.97
207.28,2.51,1.55,2.51,1.56,-1.56,-1.43,-1.52,0.95,0.96,0.96
209.35,2.39,1.45,2.38,1.44,-1.44,-1.30,-1.44,0.95,0.94,0.94
211.44,2.26,1.34,2.25,1.32,-1.32,-1.17,-1.35,0.94,0.93,0.92
213.56,2.12,1.21,2.13,1.21,-1.21,-1.07,-1.27,0.91,0.92,0.91
215.69,2.00,1.09,2.01,1.10,-1.10,-0.97,-1.20,0.90,0.90,0.91
217.85,1.91,1.01,1.89,0.99,-1.00,-0.88,-1.12,0.91,0.89,0.90
220.03,1.80,0.91,1.80,0.90,-0.91,-0.81,-1.05,0.89,0.89,0.89
222.23,1.69,0.81,1.70,0.82,-0.82,-0.75,-0.98,0.87,0.88,0.88
224.45,1.63,0.75,1.62,0.74,-0.74,-0.70,-0.91,0.89,0.88,0.88
226.70,1.54,0.66,1.54,0.66,-0.66,-0.66,-0.85,0.88,0.88,0.88
228.96,1.48,0.60,1.48,0.60,-0.59,-0.63,-0.79,0.89,0.89,0.88
231.25,1.42,0.53,1.42,0.53,-0.53,-0.61,-0.73,0.89,0.89,0.89
233.57,1.37,0.48,1.36,0.47,-0.48,-0.59,-0.67,0.89,0.89,0.89
235.90,1.31,0.42,1.31,0.42,-0.43,-0.57,-0.62,0.88,0.89,0.89
238.26,1.28,0.38,1.28,0.38,-0.38,-0.56,-0.57,0.89,0.90,0.90
240.64,1.26,0.35,1.26,0.35,-0.35,-0.55,-0.53,0.91,0.91,0.91
243.05,1.26,0.34,1.24,0.32,-0.32,-0.54,-0.49,0.94,0.92,0.92
245.48,1.22,0.29,1.23,0.30,-0.29,-0.54,-0.45,0.92,0.93,0.93
247.93,1.22,0.28,1.22,0.28,-0.28,-0.53,-0.42,0.94,0.94,0.94
250.41,1.22,0.27,1.21,0.26,-0.26,-0.52,-0.39,0.96,0.95,0.95
252.92,1.22,0.25,1.22,0.25,-0.25,-0.51,-0.37,0.97,0.97,0.97
255.45,1.22,0.23,1.23,0.24,-0.24,-0.49,-0.34,0.97,0.99,0.99
258.00,1.26,0.26,1.24,0.24,-0.24,-0.48,-0.32,1.02,1.00,1.00
260.58,1.26,0.24,1.26,0.24,-0.24,-0.46,-0.31,1.02,1.03,1.02
263.19,1.28,0.24,1.28,0.24,-0.24,-0.44,-0.30,1.04,1.04,1.04
265.82,1.31,0.25,1.30,0.24,-0.24,-0.42,-0.29,1.07,1.06,1.06
268.48,1.32,0.24,1.33,0.25,-0.25,-0.40,-0.28,1.07,1.08,1.08
271.16,1.36,0.26,1.35,0.25,-0.25,-0.38,-0.28,1.11,1.10,1.10
273.87,1.38,0.26,1.38,0.26,-0.26,-0.35,-0.28,1.12,1.12,1.12
276.61,1.40,0.26,1.40,0.26,-0.26,-0.33,-0.28,1.14,1.14,1.14
279.38,1.44,0.28,1.43,0.27,-0.27,-0.30,-0.29,1.17,1.16,1.16
282.17,1.45,0.27,1.46,0.28,-0.28,-0.27,-0.30,1.17,1.18,1.18
284.99,1.50,0.30,1.49,0.29,-0.28,-0.24,-0.31,1.21,1.20,1.20
287.84,1.51,0.29,1.51,0.29,-0.29,-0.21,-0.32,1.22,1.22,1.22
290.72,1.54,0.30,1.54,0.30,-0.30,-0.18,-0.34,1.24,1.24,1.24
293.63,1.57,0.31,1.56,0.30,-0.31,-0.15,-0.35,1.26,1.25,1.26
296.57,1.59,0.31,1.60,0.32,-0.32,-0.12,-0.37,1.27,1.28,1.28
299.53,1.63,0.33,1.63,0.32,-0.32,-0.09,-0.39,1.30,1.30,1.30
302.53,1.67,0.35,1.66,0.34,-0.33,-0.06,-0.41,1.34,1.33,1.32
305.55,1.68,0.33,1.69,0.34,-0.34,-0.03,-0.44,1.34,1.35,1.35
308.61,1.73,0.36,1.72,0.34,-0.34,-0.01,-0.46,1.39,1.37,1.37
311.69,1.74,0.34,1.75,0.35,-0.35,0.02,-0.48,1.39,1.40,1.40
314.81,1.78,0.35,1.78,0.35,-0.35,0.04,-0.51,1.42,1.43,1.43
317.96,1.82,0.37,1.81,0.36,-0.36,0.06,-0.54,1.46,1.45,1.45
321.14,1.83,0.36,1.84,0.37,-0.36,0.08,-0.57,1.46,1.47,1.47
324.35,1.87,0.38,1.86,0.37,-0.37,0.10,-0.60,1.50,1.49,1.49
327.59,1.89,0.38,1.89,0.38,-0.38,0.11,-0.63,1.51,1.51,1.51
330.87,1.92,0.39,1.92,0.39,-0.39,0.12,-0.66,1.53,1.53,1.53
334.18,1.96,0.41,1.95,0.40,-0.40,0.13,-0.69,1.55,1.55,1.55
337.52,1.99,0.42,1.99,0.42,-0.42,0.13,-0.72,1.57,1.57,1.57
340.90,2.02,0.43,2.02,0.43,-0.43,0.13,-0.75,1.59,1.59,1.59
344.30,2.06,0.45,2.06,0.45,-0.44,0.12,-0.79,1.61,1.61,1.61
347.75,2.10,0.47,2.09,0.46,-0.46,0.11,-0.82,1.64,1.63,1.63
351.23,2.13,0.48,2.13,0.48,-0.48,0.09,-0.86,1.65,1.65,1.65
354.74,2.16,0.49,2.16,0.49,-0.49,0.07,-0.89,1.67,1.67,1.67
358.28,2.20,0.52,2.19,0.51,-0.51,0.04,-0.93,1.69,1.68,1.68
361.87,2.23,0.53,2.23,0.53,-0.53,0.01,-0.97,1.70,1.70,1.70
365.49,2.27,0.55,2.27,0.55,-0.55,-0.03,-1.00,1.72,1.72,1.72
369.14,2.31,0.58,2.31,0.57,-0.57,-0.08,-1.04,1.74,1.73,1.73
372.83,2.34,0.59,2.35,0.60,-0.60,-0.14,-1.08,1.74,1.75,1.75
376.56,2.40,0.64,2.39,0.62,-0.62,-0.20,-1.12,1.77,1.76,1.76
380.33,2.43,0.65,2.43,0.65,-0.65,-0.28,-1.16,1.77,1.78,1.78
384.13,2.48,0.69,2.48,0.69,-0.69,-0.36,-1.20,1.79,1.79,1.79
387.97,2.54,0.74,2.53,0.73,-0.73,-0.46,-1.24,1.81,1.80,1.80
391.85,2.59,0.78,2.59,0.77,-0.77,-0.56,-1.28,1.82,1.82,1.81
395.77,2.65,0.82,2.65,0.82,-0.82,-0.68,-1.32,1.82,1.83,1.83
399.73,2.72,0.88,2.72,0.88,-0.88,-0.80,-1.36,1.84,1.84,1.84
403.72,2.80,0.95,2.80,0.95,-0.95,-0.94,-1.40,1.85,1.85,1.85
407.76,2.90,1.04,2.89,1.03,-1.03,-1.09,-1.44,1.87,1.86,1.86
411.84,2.99,1.12,2.99,1.12,-1.12,-1.25,-1.47,1.87,1.87,1.87
415.96,3.10,1.22,3.10,1.22,-1.22,-1.42,-1.51,1.88,1.88,1.88
420.12,3.22,1.33,3.22,1.33,-1.33,-1.61,-1.55,1.88,1.88,1.89
424.32,3.36,1.46,3.36,1.46,-1.46,-1.81,-1.59,1.90,1.90,1.90
428.56,3.52,1.61,3.51,1.60,-1.60,-2.02,-1.62,1.91,1.91,1.91
432.85,3.69,1.77,3.68,1.76,-1.76,-2.24,-1.65,1.93,1.92,1.92
437.18,3.86,1.93,3.86,1.93,-1.93,-2.46,-1.69,1.92,1.93,1.93
441.55,4.06,2.11,4.06,2.12,-2.12,-2.70,-1.72,1.94,1.94,1.95
445.96,4.28,2.32,4.27,2.31,-2.32,-2.93,-1.74,1.95,1.95,1.96
450.42,4.51,2.54,4.50,2.53,-2.54,-3.17,-1.77,1.97,1.96,1.97
454.93,4.73,2.74,4.75,2.76,-2.77,-3.40,-1.79,1.96,1.98,1.99
459.48,5.01,3.01,5.00,3.00,-3.01,-3.63,-1.81,2.00,1.99,2.00
464.07,5.27,3.26,5.26,3.24,-3.26,-3.84,-1.82,2.01,2.00,2.01
468.71,5.50,3.47,5.52,3.49,-3.50,-4.02,-1.84,2.00,2.02,2.03
473.40,5.77,3.73,5.77,3.72,-3.74,-4.18,-1.85,2.03,2.03,2.04
478.13,6.01,3.95,6.00,3.94,-3.95,-4.30,-1.85,2.05,2.05,2.06
482.91,6.22,4.15,6.22,4.14,-4.14,-4.37,-1.85,2.08,2.08,2.07
487.74,6.39,4.30,6.39,4.30,-4.29,-4.40,-1.85,2.10,2.11,2.09
492.62,6.52,4.41,6.52,4.41,-4.38,-4.38,-1.84,2.14,2.14,2.11
497.55,6.60,4.48,6.59,4.46,-4.42,-4.31,-1.83,2.18,2.17,2.12
502.52,6.59,4.45,6.58,4.44,-4.39,-4.18,-1.81,2.19,2.18,2.14
507.55,6.49,4.34,6.49,4.34,-4.30,-4.02,-1.79,2.18,2.19,2.15
512.62,6.34,4.17,6.34,4.17,-4.15,-3.82,-1.76,2.19,2.19,2.17
517.75,6.14,3.95,6.13,3.94,-3.93,-3.58,-1.73,2.20,2.20,2.19
