frequency,raw,error,smoothed,error_smoothed,equalization,parametric_eq,fixed_band_eq,equalized_raw,equalized_smoothed,target
20.00,3.35,-5.77,3.33,-5.78,5.72,5.32,1.79,9.07,9.06,9.12
20.20,3.46,-5.65,3.47,-5.64,5.62,5.30,1.84,9.07,9.08,9.11
20.40,3.58,-5.52,3.59,-5.51,5.52,5.27,1.90,9.10,9.11,9.10
20.61,3.69,-5.41,3.70,-5.39,5.43,5.24,1.95,9.11,9.12,9.10
20.81,3.81,-5.27,3.81,-5.28,5.34,5.21,2.01,9.15,9.15,9.08
21.02,3.91,-5.17,3.88,-5.20,5.27,5.19,2.07,9.17,9.15,9.08
21.23,3.92,-5.15,3.92,-5.15,5.20,5.16,2.13,9.12,9.12,9.07
21.44,3.93,-5.15,3.93,-5.14,5.14,5.13,2.19,9.07,9.07,9.08
21.66,3.94,-5.13,3.94,-5.13,5.11,5.10,2.25,9.04,9.04,9.07
21.87,3.95,-5.11,3.95,-5.11,5.08,5.06,2.32,9.03,9.03,9.06
22.09,3.98,-5.07,3.98,-5.07,5.05,5.03,2.39,9.03,9.03,9.05
22.31,4.02,-5.03,4.02,-5.03,5.02,5.00,2.45,9.04,9.04,9.05
22.54,4.06,-4.98,4.05,-4.98,4.97,4.96,2.53,9.03,9.03,9.04
22.76,4.10,-4.93,4.10,-4.93,4.91,4.93,2.60,9.01,9.01,9.03
22.99,4.14,-4.88,4.15,-4.87,4.85,4.89,2.67,8.98,8.99,9.02
23.22,4.22,-4.79,4.22,-4.80,4.78,4.86,2.75,8.99,8.99,9.01
23.45,4.30,-4.72,4.30,-4.71,4.72,4.82,2.83,9.01,9.02,9.02
23.69,4.38,-4.63,4.38,-4.63,4.67,4.78,2.90,9.04,9.05,9.01
23.92,4.46,-4.55,4.44,-4.57,4.62,4.75,2.98,9.08,9.06,9.01
24.16,4.48,-4.54,4.47,-4.55,4.59,4.71,3.07,9.07,9.06,9.02
24.40,4.47,-4.56,4.47,-4.55,4.57,4.67,3.15,9.04,9.04,9.03
24.65,4.46,-4.57,4.46,-4.57,4.56,4.63,3.23,9.01,9.01,9.03
24.89,4.45,-4.58,4.45,-4.57,4.55,4.59,3.32,9.00,9.00,9.03
25.14,4.47,-4.55,4.47,-4.55,4.53,4.55,3.40,9.00,9.00,9.02
25.39,4.51,-4.51,4.50,-4.52,4.50,4.51,3.49,9.01,9.00,9.02
25.65,4.56,-4.46,4.55,-4.47,4.44,4.46,3.57,9.00,8.99,9.02
25.91,4.60,-4.43,4.61,-4.41,4.37,4.42,3.66,8.97,8.98,9.03
26.16,4.70,-4.34,4.71,-4.33,4.28,4.38,3.74,8.98,8.99,9.04
26.43,4.84,-4.20,4.84,-4.20,4.19,4.34,3.82,9.02,9.02,9.04
26.69,4.97,-4.07,4.97,-4.07,4.09,4.29,3.90,9.06,9.06,9.04
26.96,5.10,-3.93,5.07,-3.96,4.01,4.25,3.98,9.11,9.08,9.03
27.23,5.14,-3.89,5.14,-3.89,3.94,4.20,4.06,9.08,9.08,9.03
27.50,5.17,-3.86,5.18,-3.85,3.89,4.16,4.13,9.06,9.07,9.03
27.77,5.19,-3.85,5.19,-3.85,3.86,4.11,4.20,9.05,9.05,9.04
28.05,5.20,-3.84,5.19,-3.84,3.86,4.06,4.27,9.06,9.05,9.04
28.33,5.17,-3.85,5.17,-3.86,3.87,4.02,4.33,9.04,9.04,9.02
28.62,5.14,-3.88,5.13,-3.89,3.89,3.97,4.39,9.03,9.03,9.02
28.90,5.10,-3.93,5.11,-3.91,3.90,3.92,4.44,8.99,9.01,9.03
29.19,5.11,-3.92,5.11,-3.91,3.88,3.88,4.48,8.98,8.99,9.03
29.48,5.14,-3.88,5.12,-3.90,3.83,3.83,4.52,8.96,8.95,9.02
29.78,5.18,-3.84,5.18,-3.85,3.76,3.78,4.55,8.94,8.94,9.02
30.08,5.24,-3.79,5.26,-3.76,3.69,3.73,4.57,8.92,8.95,9.03
30.38,5.40,-3.62,5.41,-3.60,3.61,3.68,4.59,9.01,9.02,9.02
30.68,5.56,-3.44,5.56,-3.45,3.55,3.63,4.60,9.11,9.11,9.00
30.99,5.72,-3.28,5.65,-3.34,3.49,3.58,4.60,9.21,9.15,9.00
31.30,5.66,-3.33,5.65,-3.33,3.44,3.53,4.59,9.10,9.09,8.99
31.61,5.58,-3.40,5.59,-3.39,3.40,3.48,4.57,8.97,8.99,8.98
31.93,5.50,-3.47,5.53,-3.44,3.35,3.43,4.55,8.85,8.88,8.97
32.24,5.54,-3.43,5.54,-3.42,3.30,3.38,4.52,8.84,8.84,8.97
32.57,5.62,-3.33,5.60,-3.36,3.25,3.33,4.48,8.86,8.85,8.95
32.89,5.69,-3.26,5.70,-3.25,3.20,3.28,4.43,8.89,8.90,8.95
33.22,5.81,-3.14,5.83,-3.12,3.15,3.23,4.37,8.96,8.98,8.95
33.55,5.95,-2.99,5.96,-2.99,3.10,3.17,4.31,9.05,9.06,8.94
33.89,6.09,-2.86,6.04,-2.90,3.03,3.12,4.24,9.12,9.07,8.95
34.23,6.07,-2.86,6.03,-2.90,2.96,3.07,4.17,9.03,8.99,8.93
34.57,5.97,-2.96,5.97,-2.96,2.90,3.02,4.09,8.87,8.87,8.93
34.92,5.87,-3.05,5.93,-2.99,2.85,2.96,4.01,8.72,8.79,8.92
35.27,5.98,-2.95,6.00,-2.92,2.82,2.91,3.92,8.80,8.82,8.93
35.62,6.14,-2.77,6.13,-2.78,2.79,2.86,3.83,8.93,8.92,8.91
35.97,6.31,-2.60,6.24,-2.66,2.76,2.81,3.74,9.07,9.00,8.91
36.33,6.27,-2.62,6.26,-2.63,2.72,2.75,3.64,8.98,8.98,8.89
36.70,6.21,-2.67,6.23,-2.64,2.66,2.70,3.54,8.87,8.89,8.88
37.06,6.18,-2.68,6.21,-2.65,2.60,2.65,3.44,8.78,8.80,8.86
37.43,6.24,-2.60,6.23,-2.61,2.55,2.59,3.34,8.79,8.78,8.84
37.81,6.29,-2.53,6.28,-2.54,2.52,2.54,3.23,8.81,8.80,8.82
38.19,6.33,-2.46,6.33,-2.47,2.49,2.48,3.13,8.82,8.82,8.79
38.57,6.35,-2.42,6.35,-2.41,2.46,2.43,3.03,8.80,8.81,8.77
38.95,6.37,-2.37,6.36,-2.38,2.40,2.38,2.92,8.77,8.76,8.74
39.34,6.36,-2.34,6.35,-2.36,2.34,2.32,2.82,8.70,8.69,8.70
39.74,6.34,-2.34,6.35,-2.33,2.28,2.27,2.72,8.62,8.63,8.68
40.14,6.36,-2.29,6.39,-2.26,2.22,2.21,2.62,8.58,8.61,8.65
40.54,6.46,-2.17,6.45,-2.17,2.17,2.16,2.51,8.62,8.62,8.63
40.94,6.56,-2.04,6.52,-2.08,2.11,2.10,2.41,8.67,8.63,8.60
41.35,6.57,-2.01,6.57,-2.01,2.04,2.05,2.31,8.61,8.61,8.58
41.76,6.57,-1.97,6.58,-1.96,1.97,1.99,2.22,8.54,8.56,8.54
42.18,6.59,-1.93,6.59,-1.93,1.90,1.94,2.12,8.49,8.50,8.52
42.60,6.63,-1.87,6.63,-1.87,1.84,1.88,2.02,8.47,8.47,8.50
43.03,6.67,-1.80,6.67,-1.80,1.79,1.82,1.93,8.45,8.46,8.47
43.46,6.72,-1.72,6.72,-1.73,1.74,1.77,1.84,8.45,8.45,8.44
43.90,6.76,-1.66,6.75,-1.66,1.69,1.71,1.74,8.45,8.44,8.42
44.33,6.77,-1.61,6.77,-1.62,1.65,1.66,1.65,8.41,8.41,8.38
44.78,6.77,-1.58,6.77,-1.59,1.60,1.60,1.56,8.36,8.37,8.35
45.23,6.77,-1.57,6.76,-1.56,1.54,1.54,1.48,8.31,8.31,8.34
45.68,6.77,-1.52,6.77,-1.52,1.49,1.48,1.39,8.26,8.26,8.29
46.13,6.78,-1.47,6.79,-1.46,1.43,1.43,1.31,8.21,8.22,8.25
46.60,6.83,-1.39,6.82,-1.39,1.37,1.37,1.22,8.20,8.19,8.22
47.06,6.88,-1.30,6.88,-1.31,1.30,1.31,1.14,8.18,8.18,8.18
47.53,6.92,-1.23,6.92,-1.22,1.24,1.25,1.06,8.16,8.16,8.15
48.01,6.97,-1.12,6.95,-1.14,1.17,1.19,0.98,8.14,8.12,8.09
48.49,6.97,-1.07,6.97,-1.08,1.10,1.13,0.90,8.07,8.07,8.04
48.97,6.97,-1.03,6.97,-1.02,1.03,1.07,0.82,8.00,8.00,8.00
49.46,6.97,-0.99,6.97,-0.98,0.97,1.01,0.75,7.93,7.93,7.96
49.96,6.97,-0.92,6.96,-0.94,0.91,0.95,0.67,7.88,7.87,7.89
50.46,6.97,-0.88,6.96,-0.89,0.86,0.89,0.60,7.83,7.82,7.85
50.96,6.97,-0.84,7.01,-0.80,0.81,0.83,0.53,7.78,7.82,7.81
51.47,7.05,-0.72,7.05,-0.71,0.76,0.77,0.46,7.81,7.81,7.77
51.99,7.14,-0.58,7.05,-0.67,0.69,0.71,0.38,7.83,7.74,7.72
52.51,7.03,-0.65,7.03,-0.65,0.63,0.64,0.32,7.65,7.66,7.68
53.03,6.94,-0.71,7.03,-0.61,0.55,0.58,0.25,7.49,7.58,7.65
53.56,7.07,-0.52,7.05,-0.54,0.49,0.52,0.18,7.55,7.54,7.59
54.10,7.18,-0.36,7.13,-0.42,0.42,0.46,0.11,7.60,7.55,7.54
54.64,7.18,-0.32,7.18,-0.30,0.37,0.39,0.05,7.54,7.55,7.50
55.18,7.18,-0.26,7.19,-0.25,0.30,0.33,-0.01,7.48,7.49,7.44
55.74,7.18,-0.21,7.18,-0.22,0.23,0.27,-0.08,7.41,7.41,7.39
56.29,7.18,-0.18,7.18,-0.17,0.16,0.20,-0.14,7.34,7.34,7.36
56.86,7.18,-0.14,7.17,-0.14,0.09,0.14,-0.20,7.27,7.26,7.32
57.42,7.18,-0.08,7.18,-0.09,0.04,0.07,-0.26,7.22,7.22,7.26
58.00,7.18,-0.05,7.23,0.00,0.00,0.01,-0.31,7.18,7.23,7.23
58.58,7.31,0.11,7.30,0.10,-0.04,-0.05,-0.37,7.27,7.26,7.20
59.16,7.39,0.23,7.34,0.18,-0.10,-0.12,-0.43,7.29,7.24,7.16
59.76,7.32,0.20,7.30,0.19,-0.16,-0.18,-0.48,7.16,7.14,7.12
60.35,7.22,0.17,7.22,0.16,-0.23,-0.25,-0.53,6.99,6.99,7.05
60.96,7.11,0.11,7.20,0.20,-0.30,-0.31,-0.58,6.81,6.90,7.00
61.57,7.26,0.33,7.24,0.32,-0.37,-0.38,-0.64,6.88,6.87,6.93
62.18,7.38,0.52,7.32,0.46,-0.44,-0.44,-0.68,6.93,6.88,6.86
62.80,7.38,0.58,7.39,0.59,-0.52,-0.50,-0.73,6.86,6.87,6.80
63.43,7.38,0.64,7.39,0.65,-0.60,-0.57,-0.78,6.78,6.79,6.74
64.07,7.38,0.69,7.38,0.69,-0.68,-0.63,-0.83,6.70,6.70,6.69
64.71,7.38,0.75,7.38,0.75,-0.76,-0.70,-0.87,6.62,6.62,6.63
65.35,7.38,0.81,7.38,0.81,-0.82,-0.76,-0.91,6.55,6.55,6.57
66.01,7.38,0.87,7.38,0.86,-0.88,-0.83,-0.96,6.50,6.50,6.51
66.67,7.38,0.91,7.38,0.92,-0.93,-0.89,-1.00,6.45,6.45,6.47
67.33,7.38,0.99,7.38,0.98,-0.98,-0.95,-1.04,6.40,6.40,6.39
68.01,7.38,1.04,7.38,1.04,-1.04,-1.02,-1.09,6.34,6.34,6.34
68.69,7.38,1.11,7.38,1.11,-1.10,-1.08,-1.13,6.27,6.27,6.27
69.37,7.38,1.16,7.38,1.16,-1.17,-1.14,-1.17,6.21,6.21,6.22
70.07,7.38,1.23,7.38,1.23,-1.23,-1.21,-1.21,6.15,6.15,6.15
70.77,7.38,1.29,7.38,1.29,-1.30,-1.27,-1.25,6.08,6.08,6.09
71.48,7.38,1.36,7.38,1.36,-1.36,-1.33,-1.29,6.02,6.02,6.02
72.19,7.38,1.43,7.38,1.43,-1.43,-1.40,-1.33,5.95,5.95,5.95
72.91,7.38,1.49,7.38,1.49,-1.49,-1.46,-1.37,5.89,5.89,5.89
73.64,7.38,1.56,7.38,1.56,-1.56,-1.52,-1.42,5.82,5.82,5.82
74.38,7.38,1.62,7.38,1.62,-1.62,-1.59,-1.46,5.76,5.76,5.76
75.12,7.38,1.69,7.38,1.68,-1.68,-1.65,-1.50,5.70,5.70,5.69
75.87,7.38,1.73,7.38,1.74,-1.74,-1.71,-1.55,5.64,5.64,5.65
76.63,7.38,1.80,7.38,1.80,-1.80,-1.77,-1.59,5.58,5.58,5.58
77.40,7.38,1.85,7.38,1.85,-1.85,-1.84,-1.64,5.53,5.53,5.53
78.17,7.38,1.91,7.38,1.90,-1.90,-1.90,-1.69,5.47,5.47,5.47
78.95,7.38,1.95,7.38,1.96,-1.96,-1.96,-1.74,5.42,5.42,5.43
79.74,7.38,2.01,7.38,2.01,-2.01,-2.02,-1.79,5.37,5.37,5.37
80.54,7.38,2.07,7.38,2.06,-2.06,-2.08,-1.84,5.31,5.31,5.31
81.35,7.38,2.12,7.38,2.12,-2.12,-2.14,-1.89,5.26,5.26,5.26
82.16,7.38,2.17,7.38,2.17,-2.18,-2.20,-1.95,5.20,5.20,5.21
82.98,7.38,2.23,7.38,2.23,-2.23,-2.27,-2.00,5.14,5.14,5.15
83.81,7.38,2.29,7.38,2.29,-2.29,-2.33,-2.06,5.09,5.09,5.09
84.65,7.38,2.35,7.38,2.35,-2.35,-2.39,-2.12,5.03,5.03,5.03
85.50,7.38,2.42,7.38,2.41,-2.41,-2.45,-2.18,4.97,4.97,4.96
86.35,7.38,2.48,7.38,2.48,-2.47,-2.51,-2.24,4.90,4.90,4.90
87.22,7.38,2.53,7.38,2.53,-2.53,-2.57,-2.31,4.84,4.84,4.85
88.09,7.38,2.60,7.38,2.59,-2.60,-2.63,-2.37,4.78,4.78,4.78
88.97,7.38,2.65,7.38,2.66,-2.66,-2.69,-2.44,4.72,4.72,4.73
89.86,7.38,2.73,7.38,2.72,-2.72,-2.75,-2.51,4.66,4.66,4.65
90.76,7.38,2.79,7.38,2.79,-2.79,-2.81,-2.58,4.59,4.59,4.59
91.66,7.38,2.86,7.38,2.86,-2.87,-2.86,-2.66,4.51,4.51,4.52
92.58,7.38,2.92,7.38,2.92,-2.94,-2.92,-2.73,4.44,4.44,4.46
93.51,7.38,2.99,7.38,2.99,-3.00,-2.98,-2.81,4.37,4.37,4.39
94.44,7.38,3.06,7.38,3.06,-3.06,-3.04,-2.89,4.32,4.32,4.32
95.39,7.38,3.14,7.38,3.15,-3.11,-3.10,-2.97,4.27,4.28,4.24
96.34,7.38,3.22,7.39,3.23,-3.17,-3.15,-3.05,4.21,4.22,4.16
97.30,7.37,3.29,7.33,3.26,-3.23,-3.21,-3.14,4.14,4.10,4.08
98.28,7.29,3.30,7.23,3.24,-3.30,-3.27,-3.22,3.99,3.93,3.99
99.26,7.07,3.17,7.16,3.26,-3.36,-3.33,-3.31,3.71,3.81,3.90
100.25,7.11,3.29,7.18,3.36,-3.41,-3.38,-3.40,3.70,3.77,3.82
101.25,7.30,3.55,7.23,3.49,-3.46,-3.44,-3.49,3.84,3.77,3.75
102.27,7.34,3.68,7.27,3.60,-3.51,-3.49,-3.58,3.83,3.76,3.66
103.29,7.19,3.61,7.22,3.63,-3.56,-3.55,-3.67,3.63,3.66,3.58
104.32,7.07,3.56,7.11,3.61,-3.61,-3.60,-3.76,3.46,3.50,3.51
105.37,7.05,3.62,7.04,3.62,-3.67,-3.66,-3.84,3.38,3.37,3.43
106.42,7.02,3.68,7.01,3.67,-3.71,-3.71,-3.93,3.30,3.30,3.34
107.48,7.00,3.75,6.99,3.74,-3.76,-3.77,-4.02,3.24,3.24,3.25
108.56,6.97,3.78,6.97,3.79,-3.80,-3.82,-4.11,3.17,3.17,3.19
109.64,6.95,3.85,6.95,3.85,-3.85,-3.87,-4.19,3.10,3.10,3.10
110.74,6.93,3.91,6.93,3.90,-3.90,-3.92,-4.28,3.03,3.03,3.02
111.85,6.91,3.96,6.92,3.97,-3.95,-3.98,-4.36,2.95,2.97,2.95
112.97,6.91,4.03,6.90,4.03,-4.00,-4.03,-4.44,2.91,2.90,2.88
114.10,6.89,4.08,6.87,4.07,-4.04,-4.08,-4.51,2.85,2.83,2.81
115.24,6.82,4.09,6.82,4.09,-4.09,-4.13,-4.59,2.73,2.73,2.73
116.39,6.75,4.10,6.76,4.11,-4.13,-4.18,-4.65,2.61,2.62,2.65
117.55,6.71,4.12,6.72,4.14,-4.18,-4.23,-4.72,2.53,2.54,2.59
118.73,6.71,4.20,6.70,4.19,-4.21,-4.28,-4.77,2.50,2.49,2.51
119.92,6.71,4.26,6.71,4.26,-4.25,-4.33,-4.83,2.46,2.46,2.45
121.12,6.72,4.32,6.73,4.34,-4.29,-4.37,-4.88,2.43,2.44,2.40
122.33,6.73,4.40,6.73,4.40,-4.34,-4.42,-4.92,2.38,2.39,2.33
123.55,6.74,4.46,6.66,4.38,-4.40,-4.47,-4.96,2.33,2.26,2.28
124.79,6.59,4.37,6.60,4.39,-4.46,-4.51,-4.99,2.13,2.14,2.22
126.03,6.48,4.33,6.62,4.47,-4.51,-4.56,-5.01,1.97,2.11,2.15
127.29,6.70,4.61,6.65,4.56,-4.56,-4.60,-5.03,2.14,2.09,2.09
128.57,6.81,4.78,6.69,4.66,-4.61,-4.65,-5.05,2.19,2.07,2.03
129.85,6.63,4.67,6.68,4.72,-4.67,-4.69,-5.05,1.96,2.02,1.96
131.15,6.57,4.67,6.61,4.71,-4.72,-4.73,-5.06,1.85,1.89,1.90
132.46,6.58,4.74,6.56,4.73,-4.77,-4.77,-5.06,1.81,1.80,1.84
133.79,6.58,4.80,6.58,4.80,-4.80,-4.81,-5.05,1.77,1.78,1.78
135.12,6.59,4.87,6.58,4.85,-4.83,-4.86,-5.04,1.76,1.75,1.72
136.48,6.56,4.88,6.55,4.88,-4.85,-4.89,-5.03,1.71,1.70,1.68
137.84,6.50,4.88,6.49,4.88,-4.88,-4.93,-5.01,1.62,1.61,1.62
139.22,6.43,4.89,6.44,4.88,-4.92,-4.97,-4.99,1.51,1.52,1.54
140.61,6.39,4.89,6.40,4.91,-4.95,-5.01,-4.97,1.43,1.45,1.50
142.02,6.40,4.96,6.39,4.96,-4.99,-5.04,-4.94,1.41,1.40,1.44
143.44,6.40,5.03,6.40,5.02,-5.01,-5.08,-4.92,1.39,1.39,1.37
144.87,6.40,5.08,6.40,5.08,-5.04,-5.11,-4.89,1.36,1.36,1.32
146.32,6.39,5.12,6.37,5.11,-5.07,-5.15,-4.86,1.32,1.31,1.27
147.78,6.33,5.12,6.32,5.11,-5.10,-5.18,-4.83,1.23,1.22,1.21
149.26,6.26,5.10,6.26,5.11,-5.13,-5.21,-4.81,1.13,1.13,1.16
150.75,6.20,5.11,6.21,5.12,-5.16,-5.24,-4.78,1.04,1.06,1.09
152.26,6.19,5.14,6.19,5.15,-5.17,-5.27,-4.76,1.02,1.02,1.05
153.78,6.19,5.20,6.19,5.20,-5.18,-5.30,-4.73,1.00,1.00,0.99
155.32,6.19,5.25,6.18,5.24,-5.21,-5.33,-4.71,0.98,0.97,0.94
156.88,6.15,5.27,6.14,5.26,-5.25,-5.36,-4.69,0.90,0.89,0.88
158.44,6.10,5.28,6.09,5.27,-5.29,-5.38,-4.67,0.81,0.80,0.82
160.03,6.02,5.26,6.03,5.28,-5.32,-5.41,-4.66,0.69,0.71,0.76
161.63,6.00,5.30,5.99,5.30,-5.34,-5.43,-4.65,0.66,0.66,0.70
163.24,5.99,5.36,6.03,5.40,-5.35,-5.45,-4.64,0.64,0.68,0.63
164.88,6.03,5.45,6.05,5.47,-5.37,-5.48,-4.63,0.66,0.67,0.58
166.53,6.11,5.60,5.96,5.45,-5.40,-5.50,-4.63,0.70,0.56,0.51
168.19,5.82,5.36,5.84,5.39,-5.43,-5.52,-4.63,0.38,0.41,0.46
169.87,5.61,5.21,5.73,5.34,-5.45,-5.53,-4.63,0.16,0.28,0.40
171.57,5.73,5.40,5.70,5.37,-5.46,-5.55,-4.64,0.27,0.25,0.33
173.29,5.79,5.52,5.80,5.53,-5.46,-5.57,-4.65,0.33,0.34,0.27
175.02,5.89,5.67,5.82,5.61,-5.47,-5.58,-4.66,0.41,0.35,0.22
176.77,5.81,5.64,5.71,5.55,-5.50,-5.60,-4.68,0.31,0.21,0.17
178.54,5.48,5.37,5.58,5.47,-5.54,-5.61,-4.70,-0.06,0.04,0.11
180.32,5.44,5.39,5.49,5.44,-5.57,-5.62,-4.73,-0.13,-0.07,0.05
182.13,5.53,5.52,5.53,5.53,-5.59,-5.63,-4.75,-0.06,-0.06,0.01
183.95,5.67,5.71,5.63,5.67,-5.60,-5.64,-4.79,0.06,0.03,-0.04
185.79,5.70,5.79,5.62,5.71,-5.61,-5.65,-4.82,0.08,0.01,-0.09
187.65,5.53,5.66,5.53,5.66,-5.63,-5.65,-4.86,-0.10,-0.10,-0.13
189.52,5.36,5.54,5.45,5.62,-5.66,-5.66,-4.90,-0.30,-0.22,-0.18
191.42,5.38,5.59,5.41,5.63,-5.69,-5.66,-4.95,-0.31,-0.28,-0.21
193.33,5.50,5.76,5.42,5.68,-5.69,-5.67,-5.00,-0.20,-0.28,-0.26
195.27,5.42,5.73,5.40,5.71,-5.68,-5.67,-5.05,-0.26,-0.28,-0.31
197.22,5.31,5.67,5.34,5.70,-5.66,-5.67,-5.10,-0.35,-0.32,-0.36
199.19,5.24,5.63,5.27,5.67,-5.65,-5.67,-5.16,-0.41,-0.37,-0.39
201.18,5.26,5.70,5.24,5.68,-5.65,-5.67,-5.22,-0.39,-0.41,-0.44
203.19,5.22,5.69,5.17,5.65,-5.66,-5.67,-5.28,-0.44,-0.49,-0.47
205.23,5.11,5.62,5.09,5.60,-5.67,-5.66,-5.34,-0.56,-0.58,-0.51
207.28,4.97,5.51,5.05,5.60,-5.67,-5.66,-5.41,-0.70,-0.62,-0.54
209.35,5.03,5.61,5.07,5.65,-5.68,-5.65,-5.47,-0.65,-0.61,-0.58
211.44,5.20,5.83,5.09,5.72,-5.68,-5.64,-5.53,-0.49,-0.59,-0.63
213.56,5.12,5.78,5.10,5.77,-5.69,-5.63,-5.60,-0.57,-0.58,-0.66
215.69,4.99,5.69,5.05,5.75,-5.69,-5.62,-5.66,-0.70,-0.64,-0.70
217.85,4.97,5.70,4.95,5.69,-5.69,-5.61,-5.73,-0.72,-0.74,-0.73
220.03,4.90,5.68,4.88,5.66,-5.69,-5.60,-5.79,-0.79,-0.81,-0.78
222.23,4.83,5.63,4.83,5.64,-5.68,-5.59,-5.85,-0.85,-0.85,-0.80
224.45,4.77,5.60,4.79,5.62,-5.66,-5.57,-5.90,-0.89,-0.87,-0.83
226.70,4.76,5.62,4.76,5.62,-5.62,-5.56,-5.95,-0.87,-0.86,-0.86
228.96,4.77,5.65,4.75,5.63,-5.59,-5.54,-6.00,-0.82,-0.84,-0.88
231.25,4.71,5.60,4.71,5.61,-5.56,-5.52,-6.04,-0.85,-0.85,-0.89
233.57,4.67,5.59,4.65,5.57,-5.54,-5.50,-6.08,-0.87,-0.88,-0.92
235.90,4.56,5.49,4.57,5.50,-5.51,-5.48,-6.11,-0.95,-0.94,-0.93
238.26,4.50,5.45,4.50,5.44,-5.48,-5.46,-6.14,-0.98,-0.98,-0.95
240.64,4.44,5.38,4.45,5.40,-5.46,-5.44,-6.16,-1.02,-1.01,-0.94
243.05,4.44,5.39,4.45,5.41,-5.44,-5.42,-6.17,-1.00,-0.99,-0.95
245.48,4.46,5.43,4.45,5.42,-5.41,-5.39,-6.17,-0.96,-0.96,-0.97
247.93,4.47,5.45,4.44,5.42,-5.39,-5.37,-6.16,-0.92,-0.94,-0.98
250.41,4.42,5.39,4.42,5.39,-5.36,-5.34,-6.15,-0.95,-0.95,-0.97
252.92,4.36,5.33,4.40,5.38,-5.35,-5.31,-6.13,-0.99,-0.94,-0.97
255.45,4.37,5.36,4.36,5.35,-5.33,-5.28,-6.10,-0.96,-0.97,-0.99
258.00,4.38,5.38,4.29,5.29,-5.30,-5.25,-6.06,-0.93,-1.01,-1.00
260.58,4.17,5.18,4.21,5.22,-5.27,-5.22,-6.02,-1.10,-1.07,-1.01
263.19,4.10,5.12,4.16,5.18,-5.23,-5.19,-5.96,-1.14,-1.08,-1.02
265.82,4.14,5.18,4.17,5.21,-5.20,-5.16,-5.90,-1.06,-1.02,-1.04
268.48,4.26,5.30,4.16,5.21,-5.17,-5.12,-5.83,-0.91,-1.00,-1.04
271.16,4.19,5.25,4.10,5.16,-5.13,-5.09,-5.76,-0.94,-1.03,-1.06
273.87,3.87,4.94,4.02,5.10,-5.10,-5.06,-5.68,-1.23,-1.08,-1.07
276.61,3.93,5.02,3.94,5.04,-5.07,-5.02,-5.60,-1.14,-1.13,-1.09
279.38,3.99,5.11,3.90,5.01,-5.03,-4.98,-5.51,-1.04,-1.13,-1.12
282.17,3.88,5.00,3.88,5.00,-4.98,-4.94,-5.42,-1.11,-1.10,-1.12
284.99,3.79,4.91,3.83,4.95,-4.93,-4.91,-5.32,-1.15,-1.11,-1.12
287.84,3.75,4.87,3.76,4.89,-4.89,-4.87,-5.23,-1.14,-1.13,-1.12
290.72,3.76,4.90,3.71,4.84,-4.84,-4.83,-5.13,-1.08,-1.13,-1.14
293.63,3.64,4.77,3.65,4.78,-4.79,-4.78,-5.03,-1.15,-1.14,-1.13
296.57,3.59,4.72,3.58,4.72,-4.74,-4.74,-4.92,-1.15,-1.16,-1.13
299.53,3.51,4.65,3.56,4.70,-4.69,-4.70,-4.82,-1.19,-1.13,-1.14
302.53,3.55,4.68,3.53,4.66,-4.65,-4.66,-4.72,-1.10,-1.12,-1.13
305.55,3.57,4.71,3.45,4.59,-4.61,-4.61,-4.61,-1.04,-1.15,-1.14
308.61,3.31,4.44,3.40,4.54,-4.57,-4.57,-4.51,-1.26,-1.16,-1.13
311.69,3.30,4.45,3.36,4.51,-4.52,-4.52,-4.41,-1.22,-1.16,-1.15
314.81,3.41,4.55,3.34,4.49,-4.47,-4.48,-4.31,-1.06,-1.13,-1.14
317.96,3.35,4.51,3.30,4.46,-4.42,-4.43,-4.21,-1.07,-1.12,-1.16
321.14,3.23,4.38,3.23,4.39,-4.37,-4.38,-4.12,-1.14,-1.13,-1.15
324.35,3.06,4.22,3.16,4.32,-4.32,-4.33,-4.02,-1.26,-1.15,-1.16
327.59,3.15,4.30,3.09,4.25,-4.28,-4.28,-3.93,-1.13,-1.18,-1.15
330.87,3.12,4.28,3.02,4.19,-4.23,-4.23,-3.84,-1.11,-1.21,-1.16
334.18,2.90,4.07,2.99,4.16,-4.18,-4.18,-3.75,-1.29,-1.19,-1.17
337.52,2.90,4.06,2.95,4.12,-4.13,-4.13,-3.66,-1.23,-1.17,-1.16
340.90,3.01,4.18,2.93,4.09,-4.07,-4.08,-3.58,-1.06,-1.14,-1.17
344.30,2.95,4.11,2.91,4.08,-4.01,-4.03,-3.50,-1.07,-1.10,-1.16
347.75,2.80,3.95,2.84,4.00,-3.96,-3.98,-3.42,-1.16,-1.12,-1.15
351.23,2.72,3.89,2.73,3.88,-3.90,-3.93,-3.34,-1.19,-1.18,-1.17
354.74,2.66,3.81,2.64,3.80,-3.85,-3.87,-3.27,-1.19,-1.20,-1.15
358.28,2.58,3.73,2.58,3.73,-3.78,-3.82,-3.20,-1.20,-1.20,-1.15
361.87,2.53,3.68,2.54,3.69,-3.71,-3.76,-3.13,-1.18,-1.16,-1.15
365.49,2.50,3.64,2.52,3.66,-3.64,-3.71,-3.07,-1.14,-1.12,-1.14
369.14,2.54,3.67,2.49,3.62,-3.58,-3.65,-3.00,-1.04,-1.09,-1.13
372.83,2.44,3.56,2.42,3.55,-3.52,-3.60,-2.94,-1.09,-1.11,-1.12
376.56,2.31,3.44,2.32,3.45,-3.47,-3.54,-2.88,-1.17,-1.15,-1.13
380.33,2.21,3.34,2.25,3.38,-3.42,-3.48,-2.83,-1.21,-1.17,-1.13
384.13,2.21,3.33,2.22,3.35,-3.35,-3.43,-2.77,-1.15,-1.13,-1.12
387.97,2.25,3.37,2.18,3.30,-3.29,-3.37,-2.72,-1.04,-1.11,-1.12
391.85,2.14,3.27,2.12,3.26,-3.22,-3.31,-2.67,-1.09,-1.10,-1.13
395.77,1.98,3.12,2.06,3.20,-3.17,-3.25,-2.62,-1.19,-1.11,-1.14
399.73,2.00,3.14,1.96,3.10,-3.13,-3.19,-2.57,-1.13,-1.16,-1.14
403.72,1.96,3.09,1.89,3.03,-3.08,-3.13,-2.53,-1.12,-1.20,-1.13
407.76,1.77,2.92,1.85,3.00,-3.03,-3.07,-2.49,-1.26,-1.18,-1.15
411.84,1.78,2.94,1.81,2.97,-2.97,-3.01,-2.44,-1.19,-1.16,-1.16
415.96,1.85,3.01,1.78,2.95,-2.91,-2.95,-2.40,-1.06,-1.13,-1.16
420.12,1.77,2.94,1.75,2.91,-2.85,-2.89,-2.37,-1.08,-1.10,-1.17
424.32,1.63,2.79,1.67,2.82,-2.80,-2.83,-2.33,-1.17,-1.13,-1.16
428.56,1.57,2.71,1.57,2.72,-2.75,-2.76,-2.29,-1.18,-1.17,-1.14
432.85,1.52,2.64,1.51,2.64,-2.69,-2.70,-2.26,-1.17,-1.18,-1.12
437.18,1.49,2.60,1.48,2.59,-2.63,-2.64,-2.22,-1.14,-1.15,-1.11
441.55,1.47,2.55,1.48,2.56,-2.57,-2.57,-2.19,-1.10,-1.09,-1.08
445.96,1.46,2.50,1.48,2.53,-2.50,-2.51,-2.15,-1.04,-1.02,-1.04
450.42,1.52,2.52,1.48,2.48,-2.43,-2.45,-2.12,-0.92,-0.95,-1.00
454.93,1.47,2.42,1.46,2.41,-2.37,-2.38,-2.08,-0.90,-0.91,-0.95
459.48,1.43,2.32,1.43,2.32,-2.31,-2.32,-2.05,-0.88,-0.87,-0.89
464.07,1.38,2.20,1.39,2.22,-2.24,-2.25,-2.02,-0.86,-0.85,-0.82
468.71,1.38,2.15,1.37,2.14,-2.18,-2.19,-1.98,-0.80,-0.81,-0.77
473.40,1.37,2.08,1.36,2.06,-2.11,-2.12,-1.95,-0.74,-0.75,-0.71
478.13,1.35,2.00,1.37,2.02,-2.05,-2.05,-1.91,-0.70,-0.68,-0.65
482.91,1.37,1.97,1.38,1.99,-1.98,-1.99,-1.87,-0.62,-0.61,-0.60
487.74,1.41,1.98,1.37,1.94,-1.92,-1.92,-1.84,-0.52,-0.55,-0.57
492.62,1.37,1.90,1.37,1.90,-1.86,-1.85,-1.80,-0.49,-0.49,-0.53
497.55,1.30,1.79,1.34,1.83,-1.79,-1.79,-1.76,-0.50,-0.46,-0.49
502.52,1.31,1.78,1.27,1.74,-1.72,-1.72,-1.72,-0.41,-0.45,-0.47
507.55,1.21,1.65,1.20,1.65,-1.65,-1.65,-1.68,-0.44,-0.45,-0.44
512.62,1.10,1.53,1.12,1.55,-1.57,-1.58,-1.63,-0.47,-0.45,-0.43
517.75,1.04,1.46,1.04,1.46,-1.50,-1.51,-1.59,-0.46,-0.46,-0.42
522.93,0.97,1.39,0.96,1.39,-1.43,-1.44,-1.55,-0.46,-0.46,-0.42
528.16,0.91,1.35,0.90,1.34,-1.36,-1.38,-1.50,-0.45,-0.46,-0.44
