frequency,raw,error,smoothed,error_smoothed,equalization,parametric_eq,fixed_band_eq,equalized_raw,equalized_smoothed,target
20.00,0.62,-7.05,0.62,-7.05,7.05,6.64,2.43,7.67,7.68,7.67
20.20,0.67,-6.99,0.67,-6.99,6.99,6.63,2.50,7.66,7.66,7.66
20.40,0.71,-6.94,0.71,-6.94,6.94,6.63,2.57,7.65,7.65,7.65
20.61,0.76,-6.88,0.76,-6.88,6.88,6.63,2.65,7.64,7.64,7.64
20.81,0.81,-6.81,0.81,-6.82,6.82,6.62,2.72,7.63,7.63,7.62
21.02,0.85,-6.76,0.85,-6.76,6.76,6.61,2.80,7.61,7.61,7.61
21.23,0.90,-6.70,0.90,-6.71,6.71,6.60,2.89,7.61,7.60,7.60
21.44,0.94,-6.67,0.94,-6.65,6.65,6.59,2.97,7.59,7.59,7.61
21.66,0.99,-6.60,0.99,-6.60,6.60,6.58,3.06,7.58,7.59,7.59
21.87,1.03,-6.55,1.04,-6.54,6.54,6.57,3.15,7.57,7.58,7.59
22.09,1.08,-6.48,1.08,-6.49,6.49,6.56,3.24,7.57,7.57,7.56
22.31,1.13,-6.43,1.13,-6.43,6.43,6.54,3.33,7.56,7.56,7.56
22.54,1.17,-6.38,1.17,-6.38,6.38,6.52,3.43,7.55,7.55,7.55
22.76,1.22,-6.33,1.22,-6.33,6.33,6.51,3.53,7.55,7.55,7.55
22.99,1.27,-6.27,1.27,-6.28,6.28,6.49,3.63,7.55,7.54,7.54
23.22,1.31,-6.22,1.31,-6.23,6.23,6.47,3.74,7.53,7.54,7.53
23.45,1.36,-6.18,1.36,-6.17,6.17,6.44,3.85,7.53,7.53,7.54
23.69,1.41,-6.12,1.41,-6.12,6.12,6.42,3.96,7.53,7.53,7.53
23.92,1.45,-6.06,1.45,-6.07,6.07,6.40,4.07,7.52,7.52,7.51
24.16,1.50,-6.02,1.50,-6.02,6.02,6.37,4.18,7.52,7.52,7.52
24.40,1.54,-5.98,1.54,-5.97,5.97,6.35,4.30,7.51,7.52,7.52
24.65,1.59,-5.93,1.59,-5.93,5.93,6.32,4.42,7.52,7.51,7.52
24.89,1.63,-5.89,1.63,-5.88,5.88,6.29,4.54,7.51,7.51,7.52
25.14,1.68,-5.83,1.68,-5.83,5.83,6.26,4.66,7.51,7.51,7.51
25.39,1.72,-5.78,1.72,-5.79,5.79,6.23,4.78,7.51,7.51,7.50
25.65,1.77,-5.73,1.77,-5.74,5.74,6.19,4.90,7.51,7.51,7.50
25.91,1.81,-5.69,1.81,-5.69,5.69,6.16,5.02,7.50,7.51,7.50
26.16,1.86,-5.65,1.86,-5.65,5.65,6.13,5.15,7.51,7.50,7.51
26.43,1.90,-5.61,1.90,-5.61,5.61,6.09,5.27,7.50,7.50,7.51
26.69,1.94,-5.56,1.94,-5.56,5.56,6.05,5.39,7.50,7.50,7.50
26.96,1.98,-5.52,1.99,-5.52,5.52,6.02,5.51,7.50,7.50,7.50
27.23,2.03,-5.47,2.03,-5.48,5.48,5.98,5.62,7.51,7.50,7.50
27.50,2.07,-5.43,2.07,-5.43,5.43,5.94,5.74,7.50,7.51,7.50
27.77,2.11,-5.39,2.11,-5.39,5.39,5.90,5.85,7.50,7.51,7.51
28.05,2.16,-5.34,2.16,-5.35,5.35,5.86,5.95,7.51,7.51,7.50
28.33,2.20,-5.31,2.20,-5.31,5.31,5.81,6.05,7.51,7.51,7.51
28.62,2.24,-5.27,2.24,-5.27,5.27,5.77,6.15,7.51,7.51,7.51
28.90,2.28,-5.23,2.28,-5.23,5.23,5.73,6.23,7.51,7.51,7.51
29.19,2.32,-5.19,2.32,-5.18,5.18,5.68,6.31,7.50,7.50,7.51
29.48,2.36,-5.15,2.36,-5.14,5.14,5.63,6.38,7.50,7.50,7.51
29.78,2.40,-5.10,2.40,-5.10,5.10,5.59,6.44,7.50,7.50,7.50
30.08,2.44,-5.06,2.44,-5.06,5.06,5.54,6.50,7.50,7.50,7.50
30.38,2.48,-5.01,2.48,-5.02,5.02,5.49,6.54,7.50,7.49,7.49
30.68,2.51,-4.97,2.51,-4.97,4.97,5.44,6.57,7.48,7.49,7.48
30.99,2.55,-4.93,2.55,-4.93,4.93,5.39,6.59,7.48,7.48,7.48
31.30,2.58,-4.90,2.58,-4.89,4.89,5.34,6.60,7.47,7.47,7.48
31.61,2.62,-4.85,2.62,-4.85,4.85,5.29,6.59,7.47,7.47,7.47
31.93,2.65,-4.80,2.65,-4.81,4.81,5.24,6.58,7.46,7.46,7.45
32.24,2.68,-4.77,2.68,-4.77,4.77,5.19,6.55,7.45,7.45,7.45
32.57,2.71,-4.73,2.71,-4.73,4.73,5.14,6.51,7.44,7.44,7.44
32.89,2.74,-4.69,2.74,-4.70,4.70,5.08,6.47,7.44,7.43,7.43
33.22,2.77,-4.66,2.77,-4.66,4.66,5.03,6.41,7.43,7.43,7.43
33.55,2.79,-4.63,2.79,-4.63,4.63,4.98,6.34,7.42,7.42,7.42
33.89,2.82,-4.59,2.82,-4.59,4.59,4.92,6.27,7.41,7.41,7.41
34.23,2.85,-4.54,2.85,-4.55,4.55,4.87,6.19,7.40,7.40,7.39
34.57,2.87,-4.52,2.87,-4.52,4.52,4.81,6.10,7.39,7.39,7.39
34.92,2.89,-4.48,2.90,-4.48,4.48,4.76,6.00,7.37,7.38,7.37
35.27,2.92,-4.46,2.92,-4.45,4.45,4.70,5.90,7.37,7.37,7.38
35.62,2.94,-4.42,2.94,-4.41,4.41,4.64,5.80,7.35,7.35,7.36
35.97,2.97,-4.38,2.97,-4.37,4.37,4.59,5.69,7.34,7.34,7.35
36.33,2.99,-4.34,2.99,-4.33,4.33,4.53,5.58,7.32,7.32,7.33
36.70,3.02,-4.28,3.02,-4.29,4.29,4.47,5.47,7.31,7.31,7.30
37.06,3.04,-4.25,3.04,-4.25,4.25,4.41,5.35,7.29,7.29,7.29
37.43,3.07,-4.20,3.07,-4.20,4.20,4.35,5.23,7.27,7.27,7.27
37.81,3.09,-4.16,3.09,-4.16,4.16,4.30,5.12,7.25,7.25,7.25
38.19,3.11,-4.11,3.12,-4.11,4.11,4.24,5.00,7.22,7.23,7.22
38.57,3.14,-4.06,3.14,-4.06,4.06,4.18,4.88,7.20,7.20,7.20
38.95,3.17,-4.01,3.17,-4.01,4.01,4.12,4.77,7.18,7.18,7.18
39.34,3.19,-3.96,3.19,-3.96,3.96,4.06,4.65,7.15,7.15,7.15
39.74,3.21,-3.91,3.21,-3.92,3.92,4.00,4.54,7.13,7.13,7.12
40.14,3.24,-3.86,3.24,-3.87,3.87,3.94,4.43,7.11,7.11,7.10
40.54,3.26,-3.82,3.26,-3.82,3.82,3.88,4.32,7.08,7.08,7.08
40.94,3.29,-3.76,3.28,-3.77,3.77,3.82,4.22,7.06,7.06,7.05
41.35,3.31,-3.72,3.31,-3.72,3.72,3.76,4.11,7.03,7.03,7.03
41.76,3.33,-3.67,3.33,-3.68,3.68,3.70,4.01,7.01,7.00,7.00
42.18,3.35,-3.63,3.35,-3.63,3.63,3.64,3.91,6.98,6.98,6.98
42.60,3.37,-3.58,3.37,-3.58,3.58,3.58,3.81,6.95,6.95,6.95
43.03,3.39,-3.54,3.39,-3.53,3.53,3.52,3.72,6.92,6.93,6.93
43.46,3.41,-3.48,3.41,-3.49,3.49,3.46,3.63,6.90,6.90,6.89
43.90,3.43,-3.44,3.43,-3.44,3.44,3.40,3.54,6.87,6.87,6.87
44.33,3.44,-3.39,3.45,-3.39,3.39,3.34,3.45,6.83,6.84,6.83
44.78,3.46,-3.35,3.46,-3.34,3.34,3.28,3.37,6.80,6.81,6.81
45.23,3.48,-3.30,3.48,-3.29,3.29,3.22,3.28,6.77,6.77,6.78
45.68,3.50,-3.24,3.49,-3.24,3.24,3.16,3.21,6.74,6.73,6.74
46.13,3.51,-3.19,3.50,-3.19,3.19,3.10,3.13,6.70,6.70,6.70
46.60,3.52,-3.14,3.52,-3.14,3.14,3.04,3.06,6.66,6.66,6.66
47.06,3.53,-3.09,3.53,-3.09,3.09,2.98,2.99,6.62,6.61,6.62
47.53,3.54,-3.04,3.54,-3.03,3.03,2.92,2.92,6.57,6.57,6.58
48.01,3.54,-2.98,3.55,-2.98,2.98,2.86,2.85,6.52,6.53,6.52
48.49,3.55,-2.93,3.56,-2.92,2.92,2.80,2.79,6.47,6.48,6.48
48.97,3.56,-2.87,3.57,-2.87,2.87,2.74,2.73,6.43,6.44,6.43
49.46,3.57,-2.82,3.57,-2.82,2.82,2.68,2.67,6.39,6.39,6.39
49.96,3.58,-2.75,3.58,-2.77,2.77,2.63,2.61,6.35,6.34,6.33
50.46,3.58,-2.71,3.58,-2.72,2.72,2.57,2.55,6.30,6.30,6.29
50.96,3.59,-2.66,3.58,-2.67,2.67,2.51,2.50,6.26,6.25,6.25
51.47,3.59,-2.61,3.58,-2.62,2.62,2.45,2.45,6.21,6.20,6.20
51.99,3.59,-2.56,3.58,-2.57,2.57,2.39,2.40,6.16,6.15,6.15
52.51,3.59,-2.52,3.58,-2.52,2.52,2.33,2.35,6.11,6.11,6.11
53.03,3.59,-2.48,3.58,-2.48,2.48,2.28,2.30,6.07,6.06,6.07
53.56,3.58,-2.44,3.58,-2.43,2.43,2.22,2.25,6.01,6.01,6.02
54.10,3.57,-2.39,3.58,-2.39,2.39,2.16,2.21,5.96,5.97,5.96
54.64,3.57,-2.35,3.58,-2.35,2.35,2.10,2.16,5.92,5.92,5.92
55.18,3.57,-2.30,3.58,-2.30,2.30,2.05,2.12,5.87,5.88,5.87
55.74,3.57,-2.25,3.57,-2.26,2.26,1.99,2.07,5.83,5.84,5.82
56.29,3.57,-2.22,3.57,-2.22,2.22,1.93,2.03,5.79,5.79,5.79
56.86,3.57,-2.17,3.57,-2.17,2.17,1.88,1.99,5.74,5.74,5.74
57.42,3.57,-2.12,3.57,-2.13,2.13,1.82,1.95,5.70,5.70,5.69
58.00,3.57,-2.07,3.57,-2.08,2.08,1.77,1.91,5.65,5.65,5.64
58.58,3.57,-2.03,3.57,-2.03,2.03,1.71,1.86,5.60,5.59,5.60
59.16,3.57,-1.99,3.57,-1.97,1.97,1.66,1.82,5.54,5.54,5.56
59.76,3.57,-1.94,3.57,-1.92,1.92,1.60,1.78,5.49,5.49,5.51
60.35,3.57,-1.88,3.57,-1.86,1.86,1.55,1.74,5.43,5.43,5.45
60.96,3.57,-1.82,3.57,-1.81,1.81,1.49,1.69,5.38,5.38,5.39
61.57,3.57,-1.75,3.57,-1.75,1.75,1.44,1.65,5.32,5.32,5.32
62.18,3.57,-1.68,3.57,-1.69,1.69,1.39,1.60,5.26,5.26,5.25
62.80,3.57,-1.62,3.57,-1.63,1.63,1.33,1.56,5.20,5.20,5.19
63.43,3.57,-1.55,3.57,-1.56,1.56,1.28,1.51,5.13,5.13,5.12
64.07,3.57,-1.49,3.57,-1.50,1.50,1.23,1.47,5.07,5.07,5.06
64.71,3.57,-1.43,3.57,-1.44,1.44,1.18,1.42,5.01,5.01,5.00
65.35,3.57,-1.37,3.57,-1.37,1.37,1.13,1.37,4.94,4.94,4.94
66.01,3.57,-1.31,3.57,-1.31,1.31,1.07,1.32,4.88,4.88,4.88
66.67,3.57,-1.25,3.57,-1.25,1.25,1.02,1.28,4.82,4.82,4.82
67.33,3.57,-1.18,3.57,-1.18,1.18,0.97,1.23,4.75,4.75,4.75
68.01,3.57,-1.12,3.57,-1.11,1.11,0.92,1.17,4.68,4.69,4.69
68.69,3.57,-1.06,3.58,-1.05,1.05,0.87,1.12,4.62,4.62,4.63
69.37,3.57,-1.00,3.58,-0.98,0.98,0.82,1.07,4.55,4.56,4.57
70.07,3.57,-0.93,3.58,-0.91,0.91,0.78,1.02,4.48,4.49,4.50
70.77,3.58,-0.85,3.58,-0.84,0.84,0.73,0.97,4.42,4.43,4.43
71.48,3.58,-0.79,3.58,-0.78,0.78,0.68,0.91,4.36,4.36,4.37
72.19,3.58,-0.71,3.58,-0.71,0.71,0.63,0.86,4.29,4.29,4.29
72.91,3.59,-0.63,3.58,-0.64,0.64,0.58,0.80,4.23,4.22,4.22
73.64,3.59,-0.56,3.58,-0.58,0.58,0.54,0.75,4.17,4.16,4.15
74.38,3.58,-0.50,3.57,-0.52,0.52,0.49,0.69,4.10,4.09,4.08
75.12,3.57,-0.45,3.56,-0.47,0.47,0.44,0.64,4.04,4.03,4.02
75.87,3.56,-0.40,3.55,-0.41,0.41,0.40,0.58,3.97,3.96,3.96
76.63,3.54,-0.35,3.53,-0.37,0.37,0.35,0.53,3.91,3.90,3.89
77.40,3.52,-0.32,3.52,-0.32,0.32,0.31,0.47,3.84,3.84,3.84
78.17,3.50,-0.27,3.50,-0.28,0.28,0.26,0.42,3.78,3.78,3.77
78.95,3.48,-0.24,3.47,-0.24,0.24,0.22,0.36,3.72,3.71,3.72
79.74,3.45,-0.20,3.45,-0.20,0.20,0.18,0.30,3.65,3.65,3.65
80.54,3.42,-0.18,3.43,-0.17,0.17,0.13,0.25,3.59,3.59,3.60
81.35,3.40,-0.13,3.40,-0.13,0.13,0.09,0.19,3.53,3.53,3.53
82.16,3.37,-0.11,3.38,-0.09,0.09,0.05,0.13,3.46,3.47,3.48
82.98,3.34,-0.07,3.35,-0.05,0.05,0.01,0.07,3.39,3.40,3.41
83.81,3.32,-0.03,3.33,-0.01,0.01,-0.03,0.02,3.33,3.34,3.35
84.65,3.30,0.03,3.31,0.04,-0.04,-0.08,-0.04,3.26,3.28,3.27
85.50,3.29,0.08,3.29,0.08,-0.08,-0.12,-0.10,3.21,3.21,3.21
86.35,3.27,0.13,3.28,0.13,-0.13,-0.16,-0.16,3.14,3.15,3.14
87.22,3.26,0.18,3.26,0.18,-0.18,-0.20,-0.22,3.08,3.08,3.08
88.09,3.24,0.23,3.24,0.23,-0.23,-0.24,-0.28,3.01,3.01,3.01
88.97,3.23,0.29,3.22,0.28,-0.28,-0.27,-0.34,2.95,2.94,2.94
89.86,3.21,0.34,3.21,0.33,-0.33,-0.31,-0.39,2.88,2.87,2.87
90.76,3.20,0.39,3.19,0.38,-0.38,-0.35,-0.45,2.82,2.80,2.81
91.66,3.18,0.45,3.17,0.44,-0.44,-0.39,-0.51,2.74,2.73,2.73
92.58,3.16,0.50,3.14,0.49,-0.49,-0.43,-0.57,2.67,2.66,2.66
93.51,3.13,0.54,3.12,0.54,-0.54,-0.46,-0.64,2.59,2.59,2.59
94.44,3.10,0.58,3.10,0.59,-0.59,-0.50,-0.70,2.51,2.51,2.52
95.39,3.07,0.63,3.07,0.64,-0.64,-0.54,-0.76,2.43,2.44,2.44
96.34,3.04,0.67,3.05,0.68,-0.68,-0.57,-0.82,2.36,2.36,2.37
97.30,3.01,0.72,3.03,0.73,-0.73,-0.61,-0.88,2.28,2.29,2.29
98.28,2.99,0.78,3.00,0.79,-0.79,-0.64,-0.94,2.20,2.22,2.21
99.26,2.97,0.84,2.98,0.83,-0.83,-0.67,-1.00,2.14,2.14,2.13
100.25,2.95,0.89,2.96,0.88,-0.88,-0.71,-1.06,2.07,2.07,2.06
101.25,2.92,0.93,2.93,0.93,-0.93,-0.74,-1.13,1.99,2.00,1.99
102.27,2.91,0.98,2.91,0.98,-0.98,-0.77,-1.19,1.93,1.93,1.93
103.29,2.89,1.04,2.89,1.03,-1.03,-0.81,-1.25,1.86,1.86,1.85
104.32,2.87,1.08,2.87,1.08,-1.08,-0.84,-1.31,1.79,1.79,1.79
105.37,2.85,1.13,2.84,1.12,-1.12,-0.87,-1.37,1.73,1.72,1.72
106.42,2.83,1.17,2.82,1.17,-1.17,-0.90,-1.43,1.66,1.65,1.66
107.48,2.81,1.23,2.79,1.21,-1.21,-0.93,-1.49,1.60,1.58,1.58
108.56,2.77,1.25,2.77,1.25,-1.25,-0.96,-1.54,1.52,1.51,1.52
109.64,2.74,1.29,2.74,1.29,-1.29,-0.99,-1.60,1.45,1.44,1.45
110.74,2.71,1.33,2.71,1.34,-1.34,-1.02,-1.65,1.37,1.37,1.38
111.85,2.68,1.38,2.68,1.38,-1.38,-1.05,-1.71,1.30,1.30,1.30
112.97,2.64,1.40,2.65,1.42,-1.42,-1.08,-1.76,1.22,1.23,1.24
114.10,2.61,1.45,2.61,1.46,-1.46,-1.11,-1.81,1.15,1.16,1.16
115.24,2.57,1.49,2.58,1.50,-1.50,-1.14,-1.85,1.07,1.09,1.08
116.39,2.55,1.54,2.55,1.54,-1.54,-1.17,-1.90,1.01,1.02,1.01
117.55,2.52,1.59,2.52,1.58,-1.58,-1.19,-1.94,0.94,0.95,0.93
118.73,2.49,1.63,2.49,1.62,-1.62,-1.22,-1.98,0.87,0.88,0.86
119.92,2.45,1.65,2.46,1.66,-1.66,-1.25,-2.02,0.79,0.81,0.80
121.12,2.43,1.69,2.44,1.70,-1.70,-1.27,-2.05,0.73,0.74,0.74
122.33,2.42,1.75,2.41,1.74,-1.74,-1.30,-2.08,0.68,0.67,0.67
123.55,2.39,1.78,2.38,1.78,-1.78,-1.33,-2.11,0.61,0.60,0.61
124.79,2.36,1.82,2.35,1.82,-1.82,-1.35,-2.14,0.54,0.53,0.54
126.03,2.32,1.85,2.32,1.86,-1.86,-1.38,-2.16,0.46,0.46,0.47
127.29,2.30,1.89,2.30,1.90,-1.90,-1.40,-2.18,0.40,0.40,0.41
128.57,2.27,1.94,2.27,1.94,-1.94,-1.42,-2.19,0.33,0.33,0.33
129.85,2.22,1.96,2.24,1.98,-1.98,-1.45,-2.21,0.24,0.26,0.26
131.15,2.18,1.99,2.21,2.01,-2.01,-1.47,-2.22,0.17,0.20,0.19
132.46,2.17,2.04,2.18,2.05,-2.05,-1.49,-2.22,0.12,0.13,0.13
133.79,2.14,2.08,2.14,2.08,-2.08,-1.52,-2.23,0.06,0.06,0.06
135.12,2.12,2.13,2.10,2.11,-2.11,-1.54,-2.23,0.01,-0.00,-0.01
136.48,2.10,2.17,2.07,2.14,-2.14,-1.56,-2.24,-0.04,-0.07,-0.07
137.84,2.06,2.19,2.03,2.17,-2.17,-1.58,-2.23,-0.11,-0.13,-0.13
139.22,2.02,2.22,2.00,2.19,-2.19,-1.60,-2.23,-0.17,-0.20,-0.20
140.61,1.97,2.23,1.96,2.22,-2.22,-1.63,-2.23,-0.25,-0.26,-0.26
142.02,1.90,2.22,1.92,2.24,-2.24,-1.65,-2.23,-0.34,-0.32,-0.32
143.44,1.86,2.24,1.89,2.26,-2.26,-1.67,-2.22,-0.40,-0.38,-0.38
144.87,1.82,2.25,1.85,2.28,-2.28,-1.69,-2.21,-0.46,-0.43,-0.43
146.32,1.79,2.28,1.81,2.30,-2.30,-1.71,-2.21,-0.51,-0.49,-0.49
147.78,1.76,2.30,1.78,2.32,-2.32,-1.73,-2.20,-0.56,-0.55,-0.54
149.26,1.75,2.35,1.74,2.34,-2.34,-1.75,-2.19,-0.59,-0.60,-0.60
150.75,1.72,2.38,1.71,2.36,-2.36,-1.76,-2.19,-0.64,-0.66,-0.66
152.26,1.69,2.40,1.67,2.39,-2.39,-1.78,-2.18,-0.70,-0.71,-0.71
153.78,1.65,2.41,1.64,2.41,-2.41,-1.80,-2.18,-0.76,-0.77,-0.76
155.32,1.61,2.43,1.61,2.43,-2.43,-1.82,-2.17,-0.82,-0.82,-0.82
156.88,1.56,2.43,1.58,2.46,-2.46,-1.84,-2.17,-0.90,-0.88,-0.87
158.44,1.54,2.47,1.55,2.48,-2.48,-1.85,-2.17,-0.94,-0.93,-0.93
160.03,1.51,2.49,1.51,2.50,-2.50,-1.87,-2.16,-0.99,-0.99,-0.98
161.63,1.49,2.53,1.47,2.52,-2.52,-1.89,-2.16,-1.03,-1.04,-1.04
163.24,1.46,2.56,1.43,2.53,-2.53,-1.90,-2.16,-1.07,-1.10,-1.10
164.88,1.41,2.56,1.39,2.55,-2.55,-1.92,-2.17,-1.14,-1.16,-1.15
166.53,1.37,2.59,1.35,2.57,-2.57,-1.94,-2.17,-1.20,-1.21,-1.22
168.19,1.32,2.58,1.31,2.58,-2.58,-1.95,-2.18,-1.26,-1.27,-1.26
169.87,1.26,2.59,1.27,2.60,-2.60,-1.97,-2.18,-1.34,-1.33,-1.33
171.57,1.21,2.60,1.23,2.61,-2.61,-1.98,-2.19,-1.40,-1.38,-1.39
173.29,1.17,2.61,1.19,2.63,-2.63,-2.00,-2.20,-1.46,-1.44,-1.44
175.02,1.13,2.62,1.14,2.64,-2.64,-2.01,-2.21,-1.51,-1.50,-1.49
176.77,1.09,2.64,1.10,2.65,-2.65,-2.03,-2.23,-1.56,-1.55,-1.55
178.54,1.07,2.68,1.05,2.66,-2.66,-2.04,-2.24,-1.59,-1.61,-1.61
180.32,1.03,2.70,1.01,2.68,-2.68,-2.05,-2.26,-1.65,-1.66,-1.67
182.13,1.00,2.72,0.97,2.69,-2.69,-2.07,-2.28,-1.69,-1.72,-1.72
183.95,0.93,2.70,0.94,2.71,-2.71,-2.08,-2.30,-1.78,-1.77,-1.77
185.79,0.89,2.72,0.90,2.73,-2.73,-2.09,-2.32,-1.84,-1.83,-1.83
187.65,0.85,2.73,0.87,2.75,-2.75,-2.11,-2.35,-1.90,-1.88,-1.88
189.52,0.82,2.75,0.84,2.77,-2.77,-2.12,-2.38,-1.95,-1.93,-1.93
191.42,0.79,2.77,0.80,2.78,-2.78,-2.13,-2.40,-1.99,-1.98,-1.98
193.33,0.77,2.79,0.77,2.80,-2.80,-2.14,-2.43,-2.03,-2.03,-2.02
195.27,0.75,2.83,0.74,2.81,-2.81,-2.16,-2.46,-2.06,-2.08,-2.08
197.22,0.72,2.86,0.70,2.83,-2.83,-2.17,-2.49,-2.11,-2.12,-2.14
199.19,0.69,2.86,0.67,2.84,-2.84,-2.18,-2.53,-2.15,-2.17,-2.17
201.18,0.65,2.87,0.64,2.85,-2.85,-2.19,-2.56,-2.20,-2.21,-2.22
203.19,0.62,2.87,0.62,2.87,-2.87,-2.20,-2.60,-2.25,-2.25,-2.25
205.23,0.58,2.86,0.59,2.88,-2.88,-2.21,-2.63,-2.30,-2.29,-2.28
207.28,0.55,2.87,0.56,2.89,-2.89,-2.22,-2.67,-2.34,-2.33,-2.32
209.35,0.52,2.88,0.53,2.90,-2.90,-2.23,-2.70,-2.38,-2.37,-2.36
211.44,0.50,2.90,0.50,2.91,-2.91,-2.25,-2.74,-2.41,-2.40,-2.40
213.56,0.47,2.90,0.47,2.91,-2.91,-2.26,-2.78,-2.44,-2.44,-2.43
215.69,0.45,2.91,0.44,2.91,-2.91,-2.27,-2.81,-2.46,-2.47,-2.46
217.85,0.42,2.92,0.41,2.91,-2.91,-2.28,-2.85,-2.49,-2.50,-2.50
220.03,0.40,2.93,0.38,2.91,-2.91,-2.28,-2.88,-2.51,-2.53,-2.53
222.23,0.37,2.94,0.35,2.91,-2.91,-2.29,-2.91,-2.54,-2.56,-2.57
224.45,0.32,2.91,0.32,2.91,-2.91,-2.30,-2.95,-2.59,-2.59,-2.59
226.70,0.28,2.90,0.29,2.91,-2.91,-2.31,-2.98,-2.63,-2.62,-2.62
228.96,0.24,2.87,0.26,2.90,-2.90,-2.32,-3.00,-2.66,-2.64,-2.63
231.25,0.22,2.89,0.23,2.89,-2.89,-2.33,-3.03,-2.67,-2.66,-2.67
233.57,0.20,2.89,0.20,2.89,-2.89,-2.34,-3.05,-2.69,-2.69,-2.69
235.90,0.16,2.86,0.17,2.87,-2.87,-2.35,-3.07,-2.71,-2.70,-2.70
238.26,0.14,2.87,0.14,2.86,-2.86,-2.36,-3.09,-2.72,-2.72,-2.73
240.64,0.11,2.84,0.11,2.85,-2.85,-2.36,-3.10,-2.74,-2.74,-2.73
243.05,0.09,2.84,0.08,2.83,-2.83,-2.37,-3.11,-2.74,-2.75,-2.75
245.48,0.07,2.84,0.06,2.82,-2.82,-2.38,-3.12,-2.75,-2.76,-2.77
247.93,0.03,2.81,0.03,2.80,-2.80,-2.39,-3.12,-2.77,-2.77,-2.78
250.41,0.01,2.79,0.01,2.79,-2.79,-2.39,-3.12,-2.78,-2.78,-2.78
252.92,-0.03,2.75,-0.02,2.77,-2.77,-2.40,-3.12,-2.80,-2.79,-2.78
255.45,-0.05,2.75,-0.05,2.75,-2.75,-2.41,-3.11,-2.80,-2.80,-2.80
258.00,-0.07,2.73,-0.08,2.73,-2.73,-2.41,-3.10,-2.80,-2.80,-2.80
260.58,-0.10,2.71,-0.11,2.70,-2.70,-2.42,-3.08,-2.80,-2.81,-2.81
263.19,-0.11,2.70,-0.13,2.68,-2.68,-2.43,-3.07,-2.79,-2.82,-2.81
265.82,-0.15,2.67,-0.16,2.66,-2.66,-2.43,-3.04,-2.81,-2.82,-2.82
268.48,-0.18,2.64,-0.19,2.64,-2.64,-2.44,-3.02,-2.82,-2.83,-2.82
271.16,-0.21,2.62,-0.21,2.62,-2.62,-2.45,-2.99,-2.83,-2.83,-2.83
273.87,-0.25,2.59,-0.24,2.60,-2.60,-2.45,-2.96,-2.85,-2.84,-2.84
276.61,-0.28,2.56,-0.25,2.59,-2.59,-2.46,-2.93,-2.87,-2.84,-2.84
279.38,-0.30,2.56,-0.27,2.57,-2.57,-2.46,-2.90,-2.87,-2.85,-2.86
282.17,-0.31,2.55,-0.29,2.56,-2.56,-2.47,-2.86,-2.87,-2.85,-2.86
284.99,-0.32,2.53,-0.30,2.55,-2.55,-2.48,-2.82,-2.87,-2.85,-2.85
287.84,-0.33,2.52,-0.32,2.53,-2.53,-2.48,-2.78,-2.86,-2.85,-2.85
290.72,-0.33,2.53,-0.33,2.52,-2.52,-2.49,-2.74,-2.85,-2.85,-2.86
293.63,-0.33,2.52,-0.34,2.51,-2.51,-2.49,-2.70,-2.84,-2.85,-2.85
296.57,-0.33,2.51,-0.36,2.49,-2.49,-2.50,-2.66,-2.82,-2.85,-2.84
299.53,-0.34,2.50,-0.37,2.47,-2.47,-2.50,-2.62,-2.81,-2.84,-2.84
302.53,-0.37,2.46,-0.39,2.45,-2.45,-2.51,-2.58,-2.82,-2.84,-2.83
305.55,-0.39,2.45,-0.41,2.42,-2.42,-2.51,-2.54,-2.81,-2.83,-2.84
308.61,-0.42,2.41,-0.43,2.40,-2.40,-2.52,-2.50,-2.82,-2.83,-2.83
311.69,-0.46,2.36,-0.46,2.36,-2.36,-2.52,-2.46,-2.82,-2.82,-2.82
314.81,-0.48,2.34,-0.49,2.33,-2.33,-2.52,-2.42,-2.81,-2.82,-2.82
317.96,-0.51,2.31,-0.51,2.30,-2.30,-2.53,-2.38,-2.81,-2.81,-2.82
321.14,-0.55,2.25,-0.54,2.27,-2.27,-2.53,-2.35,-2.82,-2.81,-2.80
324.35,-0.58,2.23,-0.57,2.23,-2.23,-2.54,-2.31,-2.81,-2.80,-2.81
327.59,-0.61,2.17,-0.59,2.20,-2.20,-2.54,-2.28,-2.81,-2.79,-2.78
330.87,-0.62,2.17,-0.61,2.18,-2.18,-2.54,-2.24,-2.80,-2.79,-2.79
334.18,-0.64,2.14,-0.63,2.16,-2.16,-2.55,-2.21,-2.80,-2.78,-2.78
337.52,-0.66,2.12,-0.64,2.14,-2.14,-2.55,-2.18,-2.80,-2.78,-2.78
340.90,-0.66,2.10,-0.65,2.12,-2.12,-2.55,-2.15,-2.78,-2.77,-2.76
344.30,-0.66,2.10,-0.66,2.11,-2.11,-2.56,-2.12,-2.77,-2.76,-2.76
347.75,-0.66,2.09,-0.66,2.10,-2.10,-2.56,-2.10,-2.76,-2.76,-2.75
351.23,-0.65,2.11,-0.66,2.09,-2.09,-2.56,-2.07,-2.74,-2.75,-2.76
354.74,-0.65,2.08,-0.66,2.08,-2.08,-2.57,-2.05,-2.73,-2.74,-2.73
358.28,-0.65,2.09,-0.66,2.08,-2.08,-2.57,-2.03,-2.73,-2.74,-2.74
361.87,-0.65,2.08,-0.66,2.07,-2.07,-2.57,-2.01,-2.72,-2.73,-2.73
365.49,-0.65,2.07,-0.65,2.07,-2.07,-2.58,-1.99,-2.72,-2.72,-2.72
369.14,-0.65,2.06,-0.65,2.06,-2.06,-2.58,-1.97,-2.71,-2.71,-2.71
372.83,-0.65,2.05,-0.65,2.06,-2.06,-2.58,-1.96,-2.71,-2.71,-2.70
376.56,-0.65,2.06,-0.65,2.05,-2.05,-2.58,-1.94,-2.70,-2.70,-2.71
380.33,-0.65,2.05,-0.65,2.04,-2.04,-2.59,-1.93,-2.69,-2.69,-2.70
384.13,-0.65,2.03,-0.65,2.03,-2.03,-2.59,-1.92,-2.68,-2.68,-2.68
387.97,-0.65,2.02,-0.65,2.02,-2.02,-2.59,-1.91,-2.67,-2.67,-2.67
391.85,-0.65,2.02,-0.65,2.01,-2.01,-2.59,-1.91,-2.66,-2.66,-2.67
395.77,-0.65,2.01,-0.65,2.01,-2.01,-2.59,-1.90,-2.66,-2.66,-2.66
399.73,-0.65,2.00,-0.65,2.00,-2.00,-2.60,-1.89,-2.65,-2.65,-2.65
403.72,-0.65,1.98,-0.65,1.99,-1.99,-2.60,-1.89,-2.64,-2.64,-2.63
407.76,-0.65,1.98,-0.65,1.98,-1.98,-2.60,-1.89,-2.63,-2.63,-2.63
411.84,-0.65,1.97,-0.65,1.97,-1.97,-2.60,-1.88,-2.62,-2.62,-2.62
415.96,-0.65,1.95,-0.65,1.96,-1.96,-2.60,-1.88,-2.61,-2.61,-2.60
420.12,-0.65,1.95,-0.65,1.95,-1.95,-2.60,-1.88,-2.60,-2.60,-2.60
424.32,-0.65,1.95,-0.65,1.94,-1.94,-2.60,-1.88,-2.59,-2.59,-2.60
428.56,-0.65,1.93,-0.65,1.94,-1.94,-2.61,-1.88,-2.59,-2.59,-2.58
432.85,-0.65,1.92,-0.65,1.93,-1.93,-2.61,-1.88,-2.58,-2.58,-2.57
437.18,-0.65,1.92,-0.65,1.92,-1.92,-2.61,-1.89,-2.57,-2.57,-2.57
441.55,-0.65,1.91,-0.65,1.91,-1.91,-2.61,-1.89,-2.56,-2.56,-2.56
445.96,-0.65,1.91,-0.65,1.90,-1.90,-2.61,-1.89,-2.55,-2.55,-2.56
450.42,-0.65,1.90,-0.65,1.89,-1.89,-2.61,-1.89,-2.54,-2.54,-2.55
454.93,-0.65,1.89,-0.65,1.88,-1.88,-2.61,-1.89,-2.53,-2.54,-2.54
459.48,-0.65,1.88,-0.66,1.87,-1.87,-2.61,-1.90,-2.52,-2.53,-2.53
464.07,-0.65,1.86,-0.66,1.86,-1.86,-2.61,-1.90,-2.51,-2.52,-2.51
468.71,-0.65,1.85,-0.66,1.84,-1.84,-2.61,-1.90,-2.49,-2.51,-2.50
473.40,-0.65,1.85,-0.67,1.83,-1.83,-2.61,-1.90,-2.48,-2.50,-2.50
478.13,-0.66,1.83,-0.67,1.82,-1.82,-2.61,-1.90,-2.48,-2.49,-2.49
482.91,-0.67,1.81,-0.66,1.82,-1.82,-2.61,-1.90,-2.49,-2.48,-2.48
487.74,-0.67,1.80,-0.66,1.81,-1.81,-2.61,-1.90,-2.48,-2.47,-2.47
492.62,-0.67,1.79,-0.65,1.81,-1.81,-2.61,-1.89,-2.48,-2.46,-2.46
497.55,-0.66,1.79,-0.64,1.81,-1.81,-2.61,-1.89,-2.47,-2.45,-2.45
502.52,-0.64,1.80,-0.62,1.81,-1.81,-2.61,-1.89,-2.45,-2.44,-2.44
507.55,-0.62,1.80,-0.60,1.82,-1.82,-2.61,-1.88,-2.44,-2.42,-2.42
512.62,-0.59,1.82,-0.58,1.83,-1.83,-2.61,-1.88,-2.42,-2.41,-2.41
