frequency,raw,error,smoothed,error_smoothed,equalization,parametric_eq,fixed_band_eq,equalized_raw,equalized_smoothed,target
20.00,0.99,-5.20,1.00,-5.20,5.20,4.17,2.15,6.19,6.20,6.19
20.20,0.99,-5.19,0.99,-5.19,5.19,4.23,2.21,6.18,6.18,6.18
20.40,0.99,-5.18,0.99,-5.18,5.18,4.29,2.28,6.17,6.17,6.17
20.61,0.99,-5.17,0.99,-5.17,5.17,4.35,2.34,6.16,6.16,6.16
20.81,0.99,-5.15,0.99,-5.16,5.16,4.41,2.41,6.15,6.15,6.14
21.02,0.99,-5.14,0.98,-5.15,5.15,4.47,2.48,6.14,6.14,6.13
21.23,0.99,-5.13,0.98,-5.14,5.14,4.53,2.56,6.13,6.13,6.12
21.44,0.99,-5.14,0.98,-5.14,5.14,4.59,2.63,6.12,6.12,6.13
21.66,0.99,-5.12,0.98,-5.13,5.13,4.65,2.71,6.12,6.11,6.11
21.87,0.99,-5.12,0.98,-5.12,5.12,4.70,2.79,6.11,6.10,6.11
22.09,0.99,-5.10,0.98,-5.11,5.11,4.76,2.88,6.10,6.09,6.09
22.31,0.99,-5.09,0.98,-5.10,5.10,4.81,2.96,6.09,6.09,6.08
22.54,0.99,-5.08,0.98,-5.10,5.10,4.86,3.05,6.09,6.08,6.07
22.76,0.99,-5.08,0.98,-5.10,5.10,4.91,3.14,6.08,6.07,6.07
22.99,0.99,-5.07,0.97,-5.09,5.09,4.96,3.23,6.08,6.07,6.06
23.22,0.98,-5.07,0.98,-5.09,5.09,5.01,3.32,6.07,6.06,6.05
23.45,0.98,-5.08,0.98,-5.08,5.08,5.06,3.42,6.06,6.06,6.06
23.69,0.97,-5.08,0.98,-5.07,5.07,5.10,3.52,6.04,6.05,6.05
23.92,0.97,-5.07,0.99,-5.06,5.06,5.15,3.62,6.03,6.05,6.04
24.16,0.98,-5.07,1.00,-5.05,5.05,5.19,3.72,6.02,6.05,6.05
24.40,1.00,-5.05,1.01,-5.03,5.03,5.22,3.82,6.03,6.04,6.05
24.65,1.02,-5.02,1.03,-5.01,5.01,5.26,3.93,6.03,6.04,6.04
24.89,1.04,-5.00,1.05,-4.99,4.99,5.29,4.03,6.03,6.04,6.04
25.14,1.07,-4.96,1.07,-4.97,4.97,5.32,4.14,6.03,6.04,6.03
25.39,1.10,-4.93,1.10,-4.94,4.94,5.35,4.25,6.04,6.04,6.03
25.65,1.13,-4.90,1.13,-4.91,4.91,5.37,4.36,6.04,6.04,6.03
25.91,1.16,-4.87,1.16,-4.88,4.88,5.40,4.47,6.03,6.03,6.03
26.16,1.19,-4.85,1.19,-4.84,4.84,5.42,4.58,6.03,6.03,6.04
26.43,1.22,-4.81,1.22,-4.82,4.82,5.43,4.69,6.03,6.03,6.03
26.69,1.25,-4.78,1.24,-4.79,4.79,5.44,4.80,6.04,6.03,6.03
26.96,1.27,-4.76,1.26,-4.77,4.77,5.45,4.90,6.04,6.03,6.03
27.23,1.30,-4.73,1.28,-4.75,4.75,5.46,5.01,6.05,6.04,6.03
27.50,1.32,-4.71,1.30,-4.74,4.74,5.47,5.11,6.06,6.04,6.03
27.77,1.33,-4.71,1.31,-4.73,4.73,5.47,5.21,6.06,6.04,6.04
28.05,1.34,-4.69,1.32,-4.72,4.72,5.46,5.30,6.06,6.04,6.03
28.33,1.34,-4.70,1.33,-4.71,4.71,5.46,5.39,6.05,6.04,6.04
28.62,1.34,-4.70,1.33,-4.71,4.71,5.45,5.48,6.05,6.04,6.04
28.90,1.33,-4.72,1.33,-4.71,4.71,5.44,5.55,6.04,6.04,6.05
29.19,1.32,-4.73,1.33,-4.71,4.71,5.43,5.63,6.03,6.04,6.05
29.48,1.32,-4.72,1.33,-4.71,4.71,5.41,5.69,6.03,6.04,6.04
29.78,1.32,-4.72,1.33,-4.71,4.71,5.39,5.75,6.03,6.04,6.04
30.08,1.32,-4.72,1.33,-4.71,4.71,5.37,5.80,6.03,6.04,6.04
30.38,1.32,-4.70,1.32,-4.71,4.71,5.34,5.84,6.03,6.03,6.02
30.68,1.32,-4.70,1.32,-4.71,4.71,5.31,5.87,6.03,6.03,6.02
30.99,1.32,-4.70,1.31,-4.71,4.71,5.28,5.89,6.03,6.02,6.02
31.30,1.32,-4.70,1.31,-4.71,4.71,5.25,5.90,6.03,6.02,6.02
31.61,1.32,-4.69,1.30,-4.70,4.70,5.22,5.91,6.02,6.01,6.01
31.93,1.32,-4.67,1.30,-4.70,4.70,5.18,5.90,6.02,6.00,5.99
32.24,1.31,-4.69,1.30,-4.69,4.69,5.14,5.89,6.00,5.99,6.00
32.57,1.30,-4.68,1.30,-4.69,4.69,5.10,5.86,5.98,5.99,5.98
32.89,1.30,-4.68,1.31,-4.68,4.68,5.06,5.83,5.97,5.98,5.98
33.22,1.30,-4.67,1.31,-4.66,4.66,5.02,5.79,5.96,5.98,5.97
33.55,1.30,-4.67,1.32,-4.65,4.65,4.97,5.74,5.95,5.97,5.97
33.89,1.32,-4.64,1.33,-4.63,4.63,4.93,5.68,5.95,5.96,5.96
34.23,1.34,-4.60,1.35,-4.60,4.60,4.88,5.62,5.94,5.95,5.94
34.57,1.36,-4.58,1.37,-4.58,4.58,4.83,5.55,5.93,5.94,5.94
34.92,1.38,-4.54,1.39,-4.54,4.54,4.78,5.48,5.92,5.93,5.92
35.27,1.41,-4.53,1.42,-4.51,4.51,4.73,5.40,5.92,5.92,5.94
35.62,1.44,-4.47,1.44,-4.47,4.47,4.68,5.32,5.91,5.91,5.91
35.97,1.48,-4.43,1.47,-4.43,4.43,4.63,5.24,5.90,5.90,5.91
36.33,1.51,-4.38,1.50,-4.38,4.38,4.58,5.15,5.89,5.89,5.89
36.70,1.54,-4.33,1.53,-4.34,4.34,4.52,5.06,5.88,5.87,5.87
37.06,1.57,-4.28,1.56,-4.29,4.29,4.47,4.97,5.86,5.85,5.85
37.43,1.59,-4.24,1.58,-4.25,4.25,4.42,4.88,5.84,5.84,5.83
37.81,1.62,-4.20,1.60,-4.21,4.21,4.37,4.79,5.83,5.82,5.82
38.19,1.64,-4.15,1.62,-4.18,4.18,4.31,4.70,5.81,5.80,5.79
38.57,1.65,-4.12,1.63,-4.14,4.14,4.26,4.61,5.79,5.78,5.77
38.95,1.66,-4.10,1.64,-4.11,4.11,4.21,4.52,5.77,5.75,5.76
39.34,1.67,-4.06,1.65,-4.08,4.08,4.16,4.44,5.75,5.73,5.73
39.74,1.66,-4.04,1.65,-4.06,4.06,4.11,4.35,5.71,5.71,5.70
40.14,1.65,-4.03,1.66,-4.03,4.03,4.06,4.27,5.68,5.69,5.68
40.54,1.65,-4.01,1.65,-4.01,4.01,4.01,4.18,5.66,5.66,5.66
40.94,1.64,-3.99,1.65,-3.99,3.99,3.96,4.10,5.63,5.64,5.63
41.35,1.64,-3.98,1.65,-3.97,3.97,3.91,4.03,5.61,5.62,5.62
41.76,1.64,-3.95,1.65,-3.95,3.95,3.86,3.95,5.59,5.60,5.59
42.18,1.64,-3.94,1.64,-3.93,3.93,3.81,3.88,5.57,5.57,5.58
42.60,1.64,-3.91,1.64,-3.91,3.91,3.76,3.81,5.55,5.55,5.55
43.03,1.64,-3.89,1.64,-3.89,3.89,3.72,3.74,5.53,5.53,5.53
43.46,1.64,-3.85,1.64,-3.86,3.86,3.67,3.68,5.50,5.50,5.49
43.90,1.64,-3.83,1.64,-3.84,3.84,3.63,3.62,5.48,5.48,5.47
44.33,1.64,-3.80,1.64,-3.81,3.81,3.58,3.56,5.45,5.45,5.44
44.78,1.64,-3.78,1.64,-3.78,3.78,3.54,3.50,5.42,5.42,5.42
45.23,1.64,-3.76,1.64,-3.75,3.75,3.50,3.45,5.39,5.39,5.40
45.68,1.64,-3.71,1.64,-3.71,3.71,3.46,3.40,5.35,5.35,5.35
46.13,1.64,-3.68,1.64,-3.68,3.68,3.42,3.35,5.32,5.32,5.32
46.60,1.64,-3.64,1.64,-3.64,3.64,3.38,3.31,5.28,5.28,5.28
47.06,1.64,-3.61,1.64,-3.60,3.60,3.34,3.27,5.24,5.24,5.25
47.53,1.64,-3.57,1.64,-3.57,3.57,3.30,3.23,5.20,5.20,5.21
48.01,1.64,-3.52,1.64,-3.53,3.53,3.27,3.19,5.16,5.16,5.16
48.49,1.64,-3.48,1.64,-3.49,3.49,3.23,3.16,5.12,5.12,5.12
48.97,1.64,-3.43,1.64,-3.44,3.44,3.20,3.12,5.08,5.08,5.07
49.46,1.64,-3.40,1.64,-3.40,3.40,3.16,3.09,5.04,5.04,5.04
49.96,1.64,-3.34,1.64,-3.36,3.36,3.13,3.06,5.00,5.00,4.98
50.46,1.64,-3.31,1.64,-3.32,3.32,3.10,3.04,4.95,4.95,4.95
50.96,1.64,-3.27,1.64,-3.27,3.27,3.07,3.01,4.91,4.91,4.91
51.47,1.64,-3.23,1.64,-3.23,3.23,3.04,2.99,4.87,4.87,4.87
51.99,1.64,-3.18,1.64,-3.19,3.19,3.01,2.97,4.83,4.83,4.82
52.51,1.64,-3.15,1.64,-3.15,3.15,2.98,2.95,4.79,4.79,4.79
53.03,1.64,-3.12,1.64,-3.11,3.11,2.95,2.93,4.75,4.75,4.76
53.56,1.64,-3.07,1.64,-3.07,3.07,2.92,2.91,4.71,4.71,4.71
54.10,1.64,-3.02,1.64,-3.03,3.03,2.89,2.89,4.67,4.67,4.66
54.64,1.64,-2.98,1.64,-2.99,2.99,2.86,2.87,4.63,4.63,4.62
55.18,1.64,-2.94,1.64,-2.95,2.95,2.83,2.85,4.59,4.59,4.58
55.74,1.64,-2.89,1.64,-2.91,2.91,2.80,2.83,4.55,4.55,4.53
56.29,1.64,-2.87,1.64,-2.87,2.87,2.77,2.81,4.51,4.51,4.51
56.86,1.64,-2.83,1.64,-2.83,2.83,2.74,2.80,4.47,4.47,4.47
57.42,1.64,-2.78,1.64,-2.79,2.79,2.72,2.77,4.43,4.43,4.42
58.00,1.64,-2.74,1.64,-2.75,2.75,2.69,2.75,4.39,4.39,4.38
58.58,1.64,-2.71,1.64,-2.71,2.71,2.66,2.73,4.34,4.34,4.35
59.16,1.64,-2.68,1.64,-2.66,2.66,2.62,2.71,4.30,4.30,4.32
59.76,1.64,-2.63,1.64,-2.61,2.61,2.59,2.68,4.25,4.25,4.27
60.35,1.64,-2.58,1.64,-2.57,2.57,2.56,2.65,4.20,4.20,4.22
60.96,1.64,-2.52,1.64,-2.52,2.52,2.53,2.62,4.15,4.15,4.16
61.57,1.64,-2.46,1.64,-2.47,2.47,2.49,2.59,4.10,4.10,4.10
62.18,1.64,-2.40,1.64,-2.41,2.41,2.46,2.56,4.05,4.05,4.04
62.80,1.64,-2.34,1.64,-2.36,2.36,2.42,2.52,4.00,4.00,3.98
63.43,1.64,-2.29,1.64,-2.31,2.31,2.38,2.48,3.94,3.94,3.93
64.07,1.64,-2.24,1.64,-2.25,2.25,2.34,2.44,3.89,3.89,3.88
64.71,1.64,-2.19,1.64,-2.20,2.20,2.30,2.40,3.83,3.83,3.83
65.35,1.64,-2.13,1.64,-2.14,2.14,2.26,2.35,3.78,3.78,3.77
66.01,1.64,-2.08,1.64,-2.09,2.09,2.22,2.31,3.72,3.72,3.72
66.67,1.64,-2.04,1.64,-2.03,2.03,2.17,2.26,3.67,3.67,3.68
67.33,1.64,-1.97,1.64,-1.98,1.98,2.13,2.21,3.62,3.62,3.61
68.01,1.64,-1.92,1.64,-1.92,1.92,2.08,2.15,3.56,3.56,3.56
68.69,1.64,-1.87,1.64,-1.87,1.87,2.03,2.10,3.51,3.51,3.51
69.37,1.64,-1.82,1.64,-1.81,1.81,1.98,2.04,3.45,3.45,3.46
70.07,1.64,-1.76,1.64,-1.75,1.75,1.93,1.99,3.39,3.39,3.40
70.77,1.64,-1.69,1.64,-1.69,1.69,1.88,1.93,3.33,3.34,3.33
71.48,1.64,-1.64,1.65,-1.63,1.63,1.83,1.87,3.27,3.28,3.28
72.19,1.64,-1.58,1.65,-1.57,1.57,1.77,1.81,3.21,3.22,3.22
72.91,1.64,-1.51,1.65,-1.51,1.51,1.72,1.74,3.15,3.16,3.15
73.64,1.65,-1.45,1.66,-1.45,1.45,1.67,1.68,3.10,3.11,3.10
74.38,1.65,-1.39,1.66,-1.40,1.40,1.61,1.62,3.04,3.05,3.04
75.12,1.66,-1.33,1.65,-1.34,1.34,1.56,1.56,3.00,3.00,2.99
75.87,1.67,-1.27,1.65,-1.29,1.29,1.50,1.49,2.96,2.94,2.94
76.63,1.66,-1.22,1.64,-1.25,1.25,1.44,1.43,2.91,2.89,2.88
77.40,1.65,-1.19,1.64,-1.20,1.20,1.39,1.37,2.85,2.84,2.84
78.17,1.64,-1.14,1.62,-1.17,1.17,1.33,1.30,2.80,2.79,2.78
78.95,1.62,-1.12,1.61,-1.13,1.13,1.27,1.24,2.75,2.74,2.74
79.74,1.60,-1.09,1.59,-1.10,1.10,1.21,1.18,2.70,2.69,2.69
80.54,1.57,-1.07,1.56,-1.08,1.08,1.16,1.11,2.64,2.64,2.64
81.35,1.54,-1.04,1.54,-1.05,1.05,1.10,1.05,2.59,2.59,2.58
82.16,1.51,-1.04,1.51,-1.03,1.03,1.04,0.99,2.54,2.54,2.55
82.98,1.48,-1.01,1.48,-1.01,1.01,0.98,0.93,2.49,2.49,2.49
83.81,1.45,-0.99,1.45,-0.99,0.99,0.93,0.87,2.44,2.43,2.44
84.65,1.42,-0.96,1.42,-0.96,0.96,0.87,0.81,2.38,2.38,2.38
85.50,1.39,-0.93,1.39,-0.93,0.93,0.81,0.74,2.32,2.33,2.32
86.35,1.36,-0.91,1.37,-0.90,0.90,0.76,0.68,2.26,2.27,2.27
87.22,1.34,-0.88,1.35,-0.87,0.87,0.70,0.62,2.21,2.22,2.22
88.09,1.32,-0.84,1.34,-0.83,0.83,0.65,0.57,2.15,2.16,2.16
88.97,1.30,-0.80,1.32,-0.78,0.78,0.59,0.51,2.08,2.11,2.10
89.86,1.30,-0.75,1.31,-0.74,0.74,0.54,0.45,2.03,2.05,2.05
90.76,1.30,-0.69,1.31,-0.68,0.68,0.48,0.39,1.98,1.99,1.99
91.66,1.30,-0.62,1.30,-0.63,0.63,0.43,0.33,1.92,1.93,1.92
92.58,1.31,-0.56,1.30,-0.57,0.57,0.38,0.27,1.88,1.87,1.87
93.51,1.32,-0.50,1.30,-0.51,0.51,0.32,0.22,1.83,1.81,1.82
94.44,1.32,-0.44,1.30,-0.44,0.44,0.27,0.16,1.76,1.75,1.76
95.39,1.32,-0.37,1.31,-0.38,0.38,0.22,0.11,1.70,1.69,1.69
96.34,1.32,-0.30,1.31,-0.31,0.31,0.17,0.05,1.63,1.62,1.62
97.30,1.32,-0.24,1.32,-0.25,0.25,0.11,-0.01,1.57,1.56,1.56
98.28,1.32,-0.17,1.32,-0.18,0.18,0.06,-0.06,1.50,1.50,1.49
99.26,1.32,-0.11,1.33,-0.12,0.12,0.01,-0.12,1.43,1.44,1.43
100.25,1.32,-0.05,1.33,-0.05,0.05,-0.04,-0.17,1.37,1.38,1.37
101.25,1.32,-0.00,1.33,0.01,-0.01,-0.09,-0.22,1.31,1.32,1.32
102.27,1.32,0.06,1.33,0.07,-0.07,-0.14,-0.28,1.25,1.26,1.26
103.29,1.33,0.13,1.33,0.13,-0.13,-0.19,-0.33,1.20,1.21,1.20
104.32,1.34,0.19,1.33,0.18,-0.18,-0.24,-0.38,1.16,1.15,1.15
105.37,1.34,0.25,1.33,0.23,-0.23,-0.29,-0.43,1.10,1.09,1.09
106.42,1.34,0.30,1.32,0.28,-0.28,-0.34,-0.49,1.05,1.04,1.04
107.48,1.33,0.35,1.31,0.33,-0.33,-0.39,-0.54,1.00,0.98,0.98
108.56,1.32,0.39,1.30,0.38,-0.38,-0.43,-0.59,0.94,0.92,0.93
109.64,1.30,0.43,1.28,0.42,-0.42,-0.48,-0.63,0.88,0.87,0.87
110.74,1.28,0.47,1.27,0.46,-0.46,-0.53,-0.68,0.82,0.81,0.81
111.85,1.25,0.50,1.24,0.49,-0.49,-0.58,-0.73,0.75,0.75,0.75
112.97,1.22,0.52,1.22,0.53,-0.53,-0.62,-0.78,0.69,0.69,0.70
114.10,1.19,0.55,1.19,0.56,-0.56,-0.67,-0.82,0.63,0.63,0.64
115.24,1.16,0.60,1.16,0.58,-0.58,-0.72,-0.86,0.57,0.57,0.56
116.39,1.13,0.63,1.13,0.61,-0.61,-0.77,-0.91,0.52,0.52,0.50
117.55,1.10,0.66,1.10,0.64,-0.64,-0.81,-0.95,0.46,0.46,0.44
118.73,1.07,0.69,1.07,0.67,-0.67,-0.86,-0.99,0.40,0.40,0.38
119.92,1.04,0.70,1.05,0.71,-0.71,-0.91,-1.03,0.33,0.34,0.34
121.12,1.02,0.73,1.03,0.74,-0.74,-0.95,-1.06,0.28,0.29,0.29
122.33,1.00,0.77,1.01,0.78,-0.78,-1.00,-1.10,0.22,0.23,0.23
123.55,0.98,0.80,1.00,0.82,-0.82,-1.05,-1.13,0.15,0.18,0.18
124.79,0.97,0.84,0.99,0.87,-0.87,-1.09,-1.17,0.10,0.12,0.13
126.03,0.97,0.90,0.98,0.92,-0.92,-1.14,-1.20,0.05,0.06,0.07
127.29,0.98,0.96,0.98,0.97,-0.97,-1.18,-1.23,0.01,0.01,0.02
128.57,0.98,1.03,0.97,1.02,-1.02,-1.23,-1.25,-0.04,-0.04,-0.05
129.85,0.99,1.09,0.97,1.07,-1.07,-1.27,-1.28,-0.08,-0.10,-0.10
131.15,0.99,1.15,0.98,1.13,-1.13,-1.32,-1.31,-0.14,-0.15,-0.16
132.46,0.99,1.20,0.98,1.19,-1.19,-1.37,-1.33,-0.20,-0.21,-0.21
133.79,0.99,1.26,0.98,1.24,-1.24,-1.41,-1.36,-0.26,-0.26,-0.27
135.12,0.99,1.31,0.99,1.30,-1.30,-1.46,-1.38,-0.31,-0.32,-0.32
136.48,0.99,1.36,0.99,1.36,-1.36,-1.50,-1.40,-0.37,-0.37,-0.37
137.84,0.99,1.41,0.99,1.41,-1.41,-1.55,-1.42,-0.42,-0.42,-0.42
139.22,0.99,1.47,0.99,1.46,-1.46,-1.59,-1.45,-0.47,-0.47,-0.48
140.61,0.99,1.51,0.99,1.51,-1.51,-1.64,-1.47,-0.52,-0.52,-0.52
142.02,0.99,1.57,0.98,1.55,-1.55,-1.68,-1.49,-0.56,-0.57,-0.58
143.44,0.99,1.61,0.98,1.59,-1.59,-1.73,-1.51,-0.61,-0.61,-0.62
144.87,0.99,1.65,0.98,1.64,-1.64,-1.77,-1.53,-0.65,-0.66,-0.66
146.32,0.99,1.70,0.98,1.68,-1.68,-1.82,-1.55,-0.69,-0.71,-0.71
147.78,0.99,1.74,0.97,1.72,-1.72,-1.86,-1.57,-0.74,-0.75,-0.75
149.26,0.98,1.78,0.98,1.77,-1.77,-1.90,-1.59,-0.79,-0.79,-0.80
150.75,0.97,1.81,0.98,1.82,-1.82,-1.95,-1.61,-0.85,-0.84,-0.84
152.26,0.97,1.85,0.99,1.87,-1.87,-1.99,-1.64,-0.90,-0.88,-0.88
153.78,0.98,1.90,1.00,1.92,-1.92,-2.04,-1.66,-0.94,-0.92,-0.92
155.32,0.99,1.95,1.01,1.97,-1.97,-2.08,-1.69,-0.99,-0.97,-0.96
156.88,1.01,2.02,1.02,2.03,-2.03,-2.12,-1.71,-1.02,-1.01,-1.01
158.44,1.03,2.09,1.04,2.10,-2.10,-2.17,-1.74,-1.07,-1.05,-1.06
160.03,1.06,2.16,1.06,2.16,-2.16,-2.21,-1.77,-1.10,-1.10,-1.10
161.63,1.09,2.23,1.09,2.23,-2.23,-2.25,-1.80,-1.14,-1.14,-1.14
163.24,1.12,2.31,1.12,2.31,-2.31,-2.29,-1.83,-1.19,-1.19,-1.19
164.88,1.15,2.39,1.15,2.38,-2.38,-2.33,-1.86,-1.23,-1.24,-1.24
166.53,1.18,2.47,1.18,2.46,-2.46,-2.37,-1.89,-1.28,-1.28,-1.29
168.19,1.21,2.53,1.21,2.54,-2.54,-2.42,-1.93,-1.33,-1.33,-1.32
169.87,1.24,2.62,1.23,2.61,-2.61,-2.46,-1.96,-1.37,-1.38,-1.38
171.57,1.27,2.70,1.26,2.68,-2.68,-2.50,-2.00,-1.42,-1.42,-1.43
173.29,1.29,2.76,1.28,2.75,-2.75,-2.54,-2.04,-1.47,-1.47,-1.47
175.02,1.31,2.83,1.30,2.82,-2.82,-2.57,-2.08,-1.51,-1.52,-1.52
176.77,1.33,2.90,1.32,2.88,-2.88,-2.61,-2.13,-1.56,-1.56,-1.57
178.54,1.34,2.95,1.33,2.94,-2.94,-2.65,-2.17,-1.61,-1.61,-1.61
180.32,1.35,3.02,1.34,3.00,-3.00,-2.69,-2.22,-1.65,-1.66,-1.67
182.13,1.35,3.05,1.35,3.05,-3.05,-2.72,-2.27,-1.70,-1.70,-1.70
183.95,1.35,3.10,1.35,3.10,-3.10,-2.76,-2.32,-1.75,-1.75,-1.75
185.79,1.34,3.14,1.34,3.14,-3.14,-2.80,-2.37,-1.80,-1.80,-1.80
187.65,1.34,3.18,1.34,3.18,-3.18,-2.83,-2.42,-1.84,-1.84,-1.84
189.52,1.33,3.21,1.32,3.21,-3.21,-2.86,-2.48,-1.88,-1.88,-1.88
191.42,1.32,3.24,1.31,3.23,-3.23,-2.90,-2.53,-1.91,-1.92,-1.92
193.33,1.30,3.26,1.29,3.25,-3.25,-2.93,-2.59,-1.96,-1.97,-1.96
195.27,1.28,3.29,1.27,3.27,-3.27,-2.96,-2.65,-1.99,-2.01,-2.01
197.22,1.25,3.31,1.24,3.29,-3.29,-2.99,-2.71,-2.04,-2.04,-2.06
199.19,1.22,3.31,1.22,3.30,-3.30,-3.02,-2.77,-2.08,-2.08,-2.09
201.18,1.19,3.32,1.19,3.31,-3.31,-3.05,-2.83,-2.12,-2.12,-2.13
203.19,1.16,3.32,1.16,3.32,-3.32,-3.07,-2.90,-2.16,-2.15,-2.16
205.23,1.13,3.31,1.14,3.32,-3.32,-3.10,-2.96,-2.20,-2.19,-2.18
207.28,1.10,3.31,1.11,3.33,-3.33,-3.13,-3.02,-2.23,-2.22,-2.21
209.35,1.07,3.32,1.09,3.34,-3.34,-3.15,-3.09,-2.27,-2.25,-2.25
211.44,1.05,3.33,1.07,3.35,-3.35,-3.17,-3.15,-2.30,-2.28,-2.28
213.56,1.04,3.34,1.05,3.35,-3.35,-3.19,-3.21,-2.31,-2.31,-2.30
215.69,1.02,3.35,1.03,3.36,-3.36,-3.21,-3.27,-2.34,-2.33,-2.33
217.85,1.01,3.37,1.01,3.36,-3.36,-3.23,-3.33,-2.36,-2.36,-2.36
220.03,0.99,3.38,0.99,3.37,-3.37,-3.25,-3.39,-2.38,-2.38,-2.39
222.23,0.98,3.40,0.97,3.38,-3.38,-3.27,-3.44,-2.40,-2.41,-2.42
224.45,0.96,3.39,0.95,3.38,-3.38,-3.28,-3.50,-2.42,-2.43,-2.43
226.70,0.94,3.40,0.93,3.38,-3.38,-3.30,-3.55,-2.44,-2.45,-2.46
228.96,0.92,3.39,0.91,3.38,-3.38,-3.31,-3.59,-2.46,-2.47,-2.47
231.25,0.90,3.39,0.88,3.37,-3.37,-3.32,-3.64,-2.47,-2.49,-2.49
233.57,0.87,3.38,0.86,3.36,-3.36,-3.33,-3.68,-2.49,-2.51,-2.51
235.90,0.84,3.36,0.83,3.35,-3.35,-3.34,-3.71,-2.51,-2.52,-2.52
238.26,0.81,3.36,0.80,3.34,-3.34,-3.35,-3.74,-2.53,-2.53,-2.55
240.64,0.78,3.32,0.78,3.33,-3.33,-3.35,-3.77,-2.55,-2.55,-2.54
243.05,0.75,3.31,0.76,3.31,-3.31,-3.36,-3.79,-2.57,-2.55,-2.56
245.48,0.72,3.29,0.74,3.30,-3.30,-3.36,-3.80,-2.59,-2.56,-2.57
247.93,0.70,3.28,0.72,3.29,-3.29,-3.36,-3.81,-2.59,-2.57,-2.58
250.41,0.68,3.25,0.71,3.28,-3.28,-3.36,-3.82,-2.60,-2.58,-2.57
252.92,0.67,3.25,0.69,3.27,-3.27,-3.36,-3.82,-2.61,-2.58,-2.58
255.45,0.67,3.26,0.68,3.27,-3.27,-3.36,-3.81,-2.60,-2.58,-2.59
258.00,0.67,3.26,0.67,3.26,-3.26,-3.35,-3.80,-2.59,-2.59,-2.59
260.58,0.67,3.26,0.66,3.25,-3.25,-3.35,-3.78,-2.58,-2.59,-2.59
263.19,0.67,3.26,0.64,3.24,-3.24,-3.34,-3.76,-2.57,-2.59,-2.59
265.82,0.66,3.26,0.63,3.23,-3.23,-3.33,-3.73,-2.57,-2.60,-2.60
268.48,0.64,3.24,0.61,3.21,-3.21,-3.33,-3.70,-2.57,-2.60,-2.60
271.16,0.61,3.21,0.59,3.20,-3.20,-3.32,-3.67,-2.59,-2.60,-2.60
273.87,0.59,3.19,0.57,3.18,-3.18,-3.30,-3.63,-2.59,-2.60,-2.60
276.61,0.56,3.16,0.55,3.15,-3.15,-3.29,-3.59,-2.59,-2.60,-2.60
279.38,0.53,3.15,0.52,3.13,-3.13,-3.28,-3.54,-2.60,-2.61,-2.62
282.17,0.49,3.11,0.49,3.10,-3.10,-3.26,-3.49,-2.61,-2.60,-2.62
284.99,0.46,3.07,0.47,3.07,-3.07,-3.25,-3.44,-2.61,-2.60,-2.61
287.84,0.43,3.03,0.44,3.04,-3.04,-3.23,-3.39,-2.62,-2.60,-2.60
290.72,0.40,3.01,0.42,3.02,-3.02,-3.21,-3.33,-2.62,-2.60,-2.61
293.63,0.38,2.98,0.40,3.00,-3.00,-3.19,-3.28,-2.62,-2.60,-2.60
296.57,0.36,2.95,0.38,2.98,-2.98,-3.17,-3.22,-2.62,-2.59,-2.59
299.53,0.35,2.94,0.37,2.96,-2.96,-3.15,-3.16,-2.61,-2.59,-2.59
302.53,0.34,2.91,0.36,2.94,-2.94,-3.13,-3.11,-2.60,-2.58,-2.57
305.55,0.34,2.92,0.35,2.92,-2.92,-3.11,-3.05,-2.58,-2.57,-2.58
308.61,0.34,2.91,0.34,2.90,-2.90,-3.09,-2.99,-2.57,-2.57,-2.57
311.69,0.35,2.91,0.33,2.89,-2.89,-3.06,-2.94,-2.54,-2.56,-2.56
314.81,0.34,2.90,0.32,2.87,-2.87,-3.04,-2.88,-2.53,-2.55,-2.56
317.96,0.33,2.88,0.30,2.85,-2.85,-3.01,-2.83,-2.52,-2.55,-2.55
321.14,0.31,2.85,0.29,2.83,-2.83,-2.99,-2.77,-2.52,-2.54,-2.54
324.35,0.29,2.83,0.27,2.80,-2.80,-2.96,-2.72,-2.51,-2.53,-2.54
327.59,0.26,2.77,0.25,2.77,-2.77,-2.93,-2.67,-2.51,-2.52,-2.51
330.87,0.23,2.75,0.22,2.74,-2.74,-2.91,-2.62,-2.51,-2.52,-2.52
334.18,0.20,2.71,0.20,2.71,-2.71,-2.88,-2.57,-2.51,-2.51,-2.51
337.52,0.17,2.68,0.17,2.67,-2.67,-2.85,-2.53,-2.50,-2.50,-2.51
340.90,0.14,2.63,0.14,2.63,-2.63,-2.82,-2.48,-2.49,-2.49,-2.49
344.30,0.11,2.59,0.11,2.60,-2.60,-2.79,-2.44,-2.49,-2.48,-2.48
347.75,0.08,2.56,0.09,2.57,-2.57,-2.76,-2.40,-2.49,-2.48,-2.48
351.23,0.06,2.54,0.07,2.54,-2.54,-2.74,-2.36,-2.48,-2.47,-2.48
354.74,0.04,2.49,0.05,2.51,-2.51,-2.71,-2.32,-2.47,-2.46,-2.45
358.28,0.02,2.48,0.03,2.49,-2.49,-2.68,-2.28,-2.47,-2.45,-2.46
361.87,0.01,2.46,0.02,2.47,-2.47,-2.65,-2.25,-2.46,-2.45,-2.45
365.49,-0.00,2.44,0.01,2.45,-2.45,-2.62,-2.22,-2.45,-2.44,-2.44
369.14,-0.00,2.42,0.01,2.44,-2.44,-2.59,-2.19,-2.44,-2.43,-2.42
372.83,0.01,2.43,0.01,2.43,-2.43,-2.56,-2.16,-2.42,-2.42,-2.42
376.56,0.01,2.43,0.01,2.42,-2.42,-2.52,-2.13,-2.41,-2.41,-2.42
380.33,0.02,2.43,0.02,2.42,-2.42,-2.49,-2.11,-2.40,-2.40,-2.41
384.13,0.02,2.41,0.02,2.41,-2.41,-2.46,-2.08,-2.39,-2.39,-2.39
387.97,0.02,2.41,0.02,2.41,-2.41,-2.43,-2.06,-2.39,-2.38,-2.39
391.85,0.03,2.41,0.03,2.40,-2.40,-2.40,-2.04,-2.37,-2.37,-2.38
395.77,0.04,2.41,0.03,2.39,-2.39,-2.37,-2.02,-2.36,-2.36,-2.37
399.73,0.04,2.40,0.03,2.38,-2.38,-2.34,-2.01,-2.34,-2.35,-2.36
403.72,0.04,2.37,0.03,2.37,-2.37,-2.31,-1.99,-2.33,-2.34,-2.33
407.76,0.04,2.38,0.02,2.35,-2.35,-2.28,-1.98,-2.31,-2.33,-2.34
411.84,0.02,2.35,0.01,2.33,-2.33,-2.25,-1.96,-2.31,-2.32,-2.33
415.96,0.01,2.32,-0.01,2.31,-2.31,-2.22,-1.95,-2.30,-2.32,-2.31
420.12,-0.02,2.29,-0.03,2.28,-2.28,-2.20,-1.94,-2.30,-2.31,-2.31
424.32,-0.04,2.26,-0.05,2.25,-2.25,-2.17,-1.93,-2.29,-2.30,-2.30
428.56,-0.07,2.21,-0.07,2.21,-2.21,-2.14,-1.92,-2.29,-2.29,-2.28
432.85,-0.10,2.17,-0.10,2.18,-2.18,-2.11,-1.91,-2.28,-2.28,-2.27
437.18,-0.13,2.15,-0.13,2.14,-2.14,-2.08,-1.90,-2.27,-2.27,-2.28
441.55,-0.16,2.11,-0.16,2.10,-2.10,-2.05,-1.89,-2.26,-2.26,-2.27
445.96,-0.19,2.07,-0.19,2.06,-2.06,-2.03,-1.89,-2.25,-2.25,-2.26
450.42,-0.22,2.03,-0.22,2.03,-2.03,-2.00,-1.88,-2.25,-2.24,-2.25
454.93,-0.25,1.99,-0.24,1.99,-1.99,-1.97,-1.87,-2.24,-2.23,-2.24
459.48,-0.27,1.96,-0.26,1.96,-1.96,-1.94,-1.87,-2.23,-2.23,-2.23
464.07,-0.30,1.91,-0.28,1.94,-1.94,-1.92,-1.86,-2.24,-2.22,-2.21
468.71,-0.31,1.89,-0.29,1.91,-1.91,-1.89,-1.86,-2.22,-2.21,-2.20
473.40,-0.32,1.88,-0.31,1.89,-1.89,-1.87,-1.85,-2.21,-2.20,-2.20
478.13,-0.33,1.86,-0.31,1.87,-1.87,-1.84,-1.84,-2.21,-2.19,-2.19
482.91,-0.32,1.86,-0.32,1.86,-1.86,-1.82,-1.83,-2.18,-2.18,-2.18
487.74,-0.32,1.85,-0.32,1.84,-1.84,-1.79,-1.83,-2.17,-2.16,-2.17
492.62,-0.31,1.85,-0.32,1.83,-1.83,-1.77,-1.82,-2.15,-2.15,-2.16
497.55,-0.30,1.85,-0.32,1.82,-1.82,-1.75,-1.81,-2.13,-2.14,-2.15
502.52,-0.30,1.84,-0.31,1.82,-1.82,-1.72,-1.80,-2.12,-2.13,-2.14
507.55,-0.30,1.82,-0.31,1.81,-1.81,-1.70,-1.79,-2.11,-2.12,-2.12
512.62,-0.30,1.81,-0.31,1.80,-1.80,-1.68,-1.78,-2.10,-2.11,-2.11
517.75,-0.30,1.79,-0.30,1.79,-1.79,-1.66,-1.77,-2.09,-2.10,-2.09
