frequency,raw,error,smoothed,error_smoothed,equalization,parametric_eq,fixed_band_eq,equalized_raw,equalized_smoothed,target
20.00,11.61,5.37,11.61,5.37,-5.37,-5.07,-2.74,6.24,6.24,6.24
20.20,11.62,5.38,11.62,5.38,-5.38,-5.11,-2.82,6.24,6.24,6.24
20.40,11.63,5.39,11.63,5.39,-5.39,-5.15,-2.89,6.24,6.24,6.24
20.61,11.64,5.40,11.64,5.40,-5.40,-5.19,-2.97,6.24,6.24,6.24
20.81,11.65,5.42,11.65,5.41,-5.41,-5.23,-3.06,6.24,6.24,6.23
21.02,11.66,5.43,11.66,5.42,-5.42,-5.27,-3.14,6.24,6.24,6.23
21.23,11.67,5.44,11.67,5.43,-5.43,-5.31,-3.23,6.24,6.24,6.23
21.44,11.68,5.44,11.68,5.44,-5.44,-5.35,-3.32,6.23,6.23,6.24
21.66,11.69,5.46,11.69,5.45,-5.46,-5.39,-3.41,6.23,6.23,6.23
21.87,11.70,5.47,11.70,5.47,-5.47,-5.43,-3.51,6.22,6.23,6.23
22.09,11.72,5.50,11.71,5.49,-5.49,-5.47,-3.61,6.23,6.22,6.22
22.31,11.73,5.51,11.73,5.51,-5.51,-5.51,-3.71,6.22,6.22,6.22
22.54,11.75,5.54,11.75,5.54,-5.53,-5.55,-3.81,6.21,6.22,6.21
22.76,11.77,5.56,11.77,5.56,-5.56,-5.59,-3.92,6.21,6.21,6.21
22.99,11.79,5.59,11.78,5.58,-5.58,-5.62,-4.02,6.20,6.20,6.20
23.22,11.80,5.61,11.80,5.61,-5.61,-5.66,-4.14,6.19,6.19,6.19
23.45,11.82,5.63,11.82,5.63,-5.64,-5.70,-4.25,6.18,6.19,6.19
23.69,11.85,5.67,11.84,5.66,-5.66,-5.74,-4.36,6.19,6.18,6.18
23.92,11.87,5.70,11.87,5.69,-5.69,-5.77,-4.48,6.18,6.18,6.17
24.16,11.89,5.72,11.89,5.71,-5.71,-5.81,-4.60,6.18,6.17,6.17
24.40,11.90,5.73,11.90,5.73,-5.73,-5.85,-4.72,6.17,6.17,6.17
24.65,11.92,5.75,11.92,5.75,-5.75,-5.88,-4.85,6.17,6.17,6.17
24.89,11.94,5.77,11.93,5.77,-5.77,-5.92,-4.97,6.17,6.17,6.17
25.14,11.95,5.79,11.95,5.78,-5.78,-5.95,-5.10,6.17,6.17,6.16
25.39,11.95,5.80,11.95,5.80,-5.79,-5.99,-5.23,6.16,6.16,6.15
25.65,11.96,5.81,11.96,5.80,-5.80,-6.02,-5.36,6.16,6.16,6.15
25.91,11.96,5.81,11.96,5.81,-5.80,-6.05,-5.49,6.15,6.16,6.15
26.16,11.97,5.81,11.96,5.81,-5.81,-6.09,-5.61,6.16,6.15,6.16
26.43,11.97,5.81,11.97,5.81,-5.82,-6.12,-5.74,6.15,6.15,6.16
26.69,11.98,5.82,11.98,5.82,-5.83,-6.15,-5.87,6.15,6.15,6.16
26.96,11.99,5.84,11.99,5.84,-5.84,-6.18,-6.00,6.15,6.15,6.15
27.23,12.01,5.86,12.00,5.85,-5.85,-6.21,-6.12,6.16,6.15,6.15
27.50,12.02,5.87,12.02,5.87,-5.87,-6.25,-6.24,6.15,6.15,6.15
27.77,12.04,5.88,12.04,5.89,-5.89,-6.28,-6.36,6.15,6.15,6.16
28.05,12.07,5.92,12.06,5.92,-5.91,-6.31,-6.47,6.15,6.15,6.15
28.33,12.09,5.95,12.09,5.94,-5.94,-6.34,-6.58,6.15,6.15,6.14
28.62,12.11,5.98,12.11,5.97,-5.96,-6.36,-6.69,6.14,6.14,6.13
28.90,12.12,5.98,12.12,5.99,-5.99,-6.39,-6.78,6.13,6.13,6.14
29.19,12.15,6.02,12.14,6.01,-6.01,-6.42,-6.87,6.13,6.13,6.13
29.48,12.16,6.04,12.16,6.04,-6.04,-6.45,-6.96,6.12,6.12,6.12
29.78,12.18,6.07,12.18,6.06,-6.06,-6.47,-7.03,6.12,6.12,6.11
30.08,12.19,6.08,12.19,6.08,-6.08,-6.50,-7.10,6.11,6.11,6.11
30.38,12.20,6.10,12.20,6.10,-6.09,-6.53,-7.16,6.10,6.10,6.10
30.68,12.21,6.12,12.21,6.11,-6.11,-6.55,-7.21,6.10,6.10,6.09
30.99,12.22,6.13,12.22,6.13,-6.13,-6.57,-7.25,6.09,6.09,6.09
31.30,12.23,6.14,12.23,6.14,-6.14,-6.60,-7.28,6.09,6.09,6.09
31.61,12.24,6.15,12.24,6.15,-6.15,-6.62,-7.30,6.08,6.09,6.09
31.93,12.26,6.18,12.25,6.17,-6.17,-6.64,-7.31,6.09,6.09,6.08
32.24,12.27,6.18,12.27,6.19,-6.18,-6.66,-7.32,6.09,6.09,6.09
32.57,12.29,6.21,12.29,6.20,-6.20,-6.69,-7.31,6.09,6.09,6.08
32.89,12.30,6.22,12.30,6.21,-6.22,-6.71,-7.30,6.08,6.08,6.08
33.22,12.31,6.23,12.31,6.23,-6.23,-6.73,-7.28,6.07,6.08,6.08
33.55,12.32,6.25,12.32,6.25,-6.25,-6.74,-7.25,6.06,6.07,6.07
33.89,12.34,6.28,12.33,6.27,-6.27,-6.76,-7.21,6.06,6.06,6.06
34.23,12.35,6.31,12.35,6.30,-6.30,-6.78,-7.17,6.05,6.05,6.04
34.57,12.36,6.32,12.36,6.32,-6.32,-6.80,-7.13,6.04,6.04,6.04
34.92,12.37,6.35,12.37,6.34,-6.35,-6.81,-7.08,6.02,6.02,6.02
35.27,12.38,6.37,12.38,6.37,-6.38,-6.83,-7.03,6.00,6.00,6.01
35.62,12.39,6.41,12.39,6.40,-6.41,-6.84,-6.97,5.98,5.98,5.98
35.97,12.40,6.44,12.40,6.44,-6.44,-6.86,-6.91,5.96,5.96,5.96
36.33,12.41,6.48,12.41,6.48,-6.48,-6.87,-6.85,5.93,5.93,5.93
36.70,12.42,6.52,12.42,6.52,-6.51,-6.88,-6.80,5.90,5.90,5.90
37.06,12.43,6.56,12.43,6.56,-6.56,-6.89,-6.74,5.87,5.87,5.87
37.43,12.44,6.60,12.44,6.60,-6.60,-6.90,-6.68,5.84,5.84,5.84
37.81,12.45,6.64,12.45,6.64,-6.64,-6.91,-6.62,5.81,5.81,5.81
38.19,12.46,6.69,12.46,6.68,-6.68,-6.92,-6.57,5.78,5.78,5.77
38.57,12.47,6.72,12.47,6.72,-6.72,-6.93,-6.51,5.75,5.75,5.75
38.95,12.48,6.76,12.48,6.76,-6.76,-6.94,-6.46,5.72,5.72,5.72
39.34,12.49,6.81,12.49,6.80,-6.80,-6.95,-6.41,5.69,5.69,5.68
39.74,12.49,6.84,12.49,6.83,-6.83,-6.95,-6.37,5.66,5.66,5.65
40.14,12.50,6.87,12.49,6.86,-6.86,-6.96,-6.33,5.64,5.63,5.63
40.54,12.49,6.88,12.49,6.89,-6.89,-6.96,-6.29,5.60,5.60,5.61
40.94,12.50,6.92,12.50,6.92,-6.92,-6.97,-6.26,5.58,5.58,5.58
41.35,12.50,6.95,12.50,6.94,-6.94,-6.97,-6.22,5.55,5.55,5.55
41.76,12.50,6.98,12.50,6.97,-6.97,-6.97,-6.20,5.53,5.53,5.52
42.18,12.50,6.99,12.49,6.99,-6.99,-6.97,-6.18,5.51,5.50,5.51
42.60,12.49,7.01,12.49,7.01,-7.01,-6.97,-6.16,5.47,5.48,5.48
43.03,12.49,7.04,12.49,7.03,-7.03,-6.97,-6.15,5.46,5.46,5.45
43.46,12.49,7.06,12.48,7.05,-7.05,-6.97,-6.14,5.44,5.43,5.43
43.90,12.48,7.07,12.47,7.07,-7.07,-6.97,-6.14,5.41,5.41,5.41
44.33,12.46,7.09,12.46,7.08,-7.08,-6.97,-6.14,5.38,5.38,5.37
44.78,12.45,7.10,12.45,7.09,-7.10,-6.97,-6.14,5.35,5.35,5.35
45.23,12.44,7.10,12.44,7.11,-7.11,-6.97,-6.15,5.33,5.32,5.34
45.68,12.42,7.12,12.42,7.12,-7.12,-6.96,-6.17,5.29,5.30,5.30
46.13,12.41,7.16,12.40,7.14,-7.14,-6.96,-6.19,5.27,5.27,5.25
46.60,12.38,7.15,12.38,7.15,-7.15,-6.96,-6.21,5.23,5.23,5.23
47.06,12.36,7.17,12.36,7.17,-7.16,-6.95,-6.24,5.19,5.19,5.19
47.53,12.33,7.17,12.33,7.17,-7.18,-6.95,-6.27,5.15,5.15,5.16
48.01,12.30,7.20,12.30,7.19,-7.19,-6.94,-6.31,5.11,5.11,5.10
48.49,12.27,7.20,12.27,7.20,-7.20,-6.94,-6.35,5.06,5.06,5.07
48.97,12.24,7.22,12.24,7.22,-7.22,-6.93,-6.40,5.02,5.02,5.02
49.46,12.20,7.22,12.20,7.22,-7.23,-6.93,-6.44,4.97,4.97,4.98
49.96,12.16,7.25,12.16,7.24,-7.23,-6.92,-6.49,4.92,4.92,4.91
50.46,12.11,7.24,12.11,7.24,-7.24,-6.92,-6.55,4.87,4.87,4.87
50.96,12.07,7.25,12.07,7.25,-7.24,-6.91,-6.60,4.83,4.83,4.82
51.47,12.02,7.24,12.02,7.24,-7.23,-6.91,-6.66,4.78,4.79,4.78
51.99,11.97,7.24,11.97,7.23,-7.23,-6.91,-6.72,4.74,4.74,4.73
52.51,11.91,7.22,11.90,7.21,-7.21,-6.90,-6.78,4.69,4.69,4.69
53.03,11.84,7.18,11.84,7.19,-7.20,-6.90,-6.84,4.64,4.65,4.66
53.56,11.78,7.17,11.78,7.17,-7.18,-6.89,-6.90,4.60,4.60,4.61
54.10,11.72,7.17,11.71,7.15,-7.16,-6.89,-6.96,4.56,4.56,4.55
54.64,11.64,7.13,11.64,7.14,-7.13,-6.87,-7.02,4.51,4.51,4.51
55.18,11.57,7.12,11.57,7.11,-7.11,-6.86,-7.08,4.46,4.46,4.45
55.74,11.49,7.08,11.49,7.07,-7.08,-6.84,-7.13,4.41,4.41,4.41
56.29,11.41,7.04,11.41,7.04,-7.04,-6.82,-7.18,4.37,4.37,4.37
56.86,11.33,7.00,11.33,7.00,-7.00,-6.79,-7.22,4.33,4.33,4.33
57.42,11.25,6.98,11.25,6.97,-6.96,-6.75,-7.26,4.29,4.29,4.27
58.00,11.16,6.93,11.16,6.92,-6.91,-6.71,-7.29,4.24,4.24,4.23
58.58,11.07,6.87,11.07,6.87,-6.87,-6.66,-7.32,4.20,4.20,4.20
59.16,10.97,6.81,10.97,6.81,-6.82,-6.60,-7.34,4.15,4.15,4.16
59.76,10.87,6.75,10.87,6.75,-6.77,-6.55,-7.35,4.10,4.10,4.12
60.35,10.77,6.72,10.77,6.71,-6.72,-6.49,-7.35,4.05,4.05,4.05
60.96,10.66,6.66,10.66,6.67,-6.67,-6.42,-7.34,3.99,3.99,4.00
61.57,10.55,6.63,10.55,6.62,-6.61,-6.36,-7.32,3.93,3.93,3.92
62.18,10.43,6.57,10.43,6.57,-6.56,-6.29,-7.28,3.87,3.87,3.86
62.80,10.31,6.51,10.31,6.51,-6.50,-6.23,-7.24,3.81,3.80,3.80
63.43,10.18,6.45,10.18,6.44,-6.44,-6.16,-7.19,3.74,3.74,3.73
64.07,10.06,6.38,10.06,6.37,-6.37,-6.10,-7.13,3.69,3.68,3.68
64.71,9.93,6.30,9.93,6.30,-6.30,-6.03,-7.06,3.63,3.63,3.63
65.35,9.80,6.22,9.80,6.22,-6.22,-5.96,-6.97,3.57,3.58,3.58
66.01,9.67,6.15,9.67,6.14,-6.14,-5.90,-6.88,3.52,3.52,3.52
66.67,9.54,6.06,9.53,6.06,-6.06,-5.83,-6.78,3.48,3.47,3.48
67.33,9.39,5.98,9.39,5.98,-5.98,-5.76,-6.67,3.41,3.42,3.41
68.01,9.26,5.90,9.26,5.90,-5.90,-5.69,-6.55,3.36,3.36,3.36
68.69,9.12,5.82,9.12,5.81,-5.81,-5.63,-6.43,3.31,3.31,3.30
69.37,8.98,5.73,8.98,5.73,-5.73,-5.56,-6.30,3.25,3.25,3.25
70.07,8.84,5.64,8.83,5.64,-5.64,-5.49,-6.16,3.20,3.20,3.20
70.77,8.69,5.55,8.69,5.55,-5.55,-5.42,-6.02,3.14,3.14,3.14
71.48,8.54,5.46,8.54,5.46,-5.46,-5.35,-5.87,3.08,3.08,3.08
72.19,8.39,5.38,8.39,5.37,-5.37,-5.28,-5.72,3.02,3.02,3.01
72.91,8.24,5.28,8.23,5.28,-5.28,-5.21,-5.57,2.96,2.96,2.96
73.64,8.08,5.19,8.08,5.19,-5.18,-5.13,-5.42,2.90,2.90,2.89
74.38,7.92,5.09,7.92,5.09,-5.08,-5.06,-5.27,2.83,2.84,2.83
75.12,7.77,4.99,7.77,4.98,-4.98,-4.98,-5.11,2.78,2.78,2.78
75.87,7.62,4.88,7.61,4.88,-4.88,-4.91,-4.95,2.73,2.73,2.74
76.63,7.46,4.78,7.46,4.78,-4.78,-4.83,-4.80,2.68,2.68,2.68
77.40,7.30,4.68,7.30,4.67,-4.67,-4.75,-4.64,2.63,2.63,2.62
78.17,7.14,4.58,7.14,4.57,-4.56,-4.67,-4.49,2.57,2.57,2.56
78.95,6.98,4.45,6.98,4.46,-4.46,-4.59,-4.33,2.52,2.52,2.53
79.74,6.82,4.35,6.81,4.35,-4.35,-4.51,-4.18,2.47,2.47,2.47
80.54,6.65,4.24,6.65,4.23,-4.24,-4.43,-4.02,2.41,2.42,2.41
81.35,6.50,4.13,6.49,4.12,-4.13,-4.35,-3.87,2.37,2.36,2.37
82.16,6.33,4.01,6.33,4.01,-4.01,-4.26,-3.72,2.31,2.31,2.32
82.98,6.16,3.90,6.17,3.90,-3.90,-4.18,-3.58,2.25,2.26,2.26
83.81,6.01,3.80,6.00,3.79,-3.79,-4.09,-3.43,2.22,2.21,2.21
84.65,5.84,3.69,5.84,3.68,-3.68,-4.00,-3.29,2.16,2.16,2.15
85.50,5.67,3.57,5.67,3.57,-3.56,-3.91,-3.14,2.10,2.11,2.10
86.35,5.51,3.46,5.50,3.45,-3.45,-3.82,-3.00,2.05,2.05,2.05
87.22,5.33,3.33,5.33,3.33,-3.34,-3.73,-2.86,1.99,1.99,2.00
88.09,5.17,3.23,5.17,3.22,-3.23,-3.64,-2.73,1.94,1.94,1.94
88.97,5.00,3.11,5.00,3.11,-3.11,-3.54,-2.59,1.89,1.89,1.89
89.86,4.84,3.01,4.84,3.00,-3.00,-3.45,-2.46,1.84,1.84,1.83
90.76,4.67,2.90,4.67,2.89,-2.89,-3.35,-2.33,1.78,1.78,1.77
91.66,4.50,2.78,4.50,2.78,-2.78,-3.26,-2.20,1.72,1.72,1.72
92.58,4.33,2.67,4.33,2.67,-2.67,-3.16,-2.07,1.66,1.66,1.66
93.51,4.16,2.56,4.16,2.56,-2.56,-3.06,-1.95,1.59,1.60,1.60
94.44,4.00,2.46,4.00,2.46,-2.46,-2.96,-1.82,1.54,1.54,1.54
95.39,3.83,2.36,3.83,2.35,-2.36,-2.86,-1.70,1.47,1.47,1.47
96.34,3.66,2.26,3.66,2.25,-2.25,-2.75,-1.58,1.40,1.40,1.40
97.30,3.48,2.14,3.48,2.15,-2.15,-2.65,-1.46,1.32,1.33,1.34
98.28,3.32,2.07,3.31,2.06,-2.05,-2.55,-1.35,1.27,1.26,1.25
99.26,3.14,1.96,3.14,1.96,-1.95,-2.44,-1.23,1.19,1.19,1.18
100.25,2.98,1.86,2.97,1.85,-1.85,-2.33,-1.12,1.13,1.13,1.12
101.25,2.80,1.74,2.80,1.74,-1.74,-2.23,-1.01,1.05,1.06,1.06
102.27,2.64,1.64,2.64,1.64,-1.64,-2.12,-0.90,1.00,1.00,1.00
103.29,2.47,1.54,2.47,1.53,-1.53,-2.01,-0.80,0.93,0.93,0.93
104.32,2.31,1.43,2.31,1.43,-1.43,-1.90,-0.69,0.88,0.88,0.88
105.37,2.14,1.32,2.14,1.32,-1.32,-1.79,-0.59,0.82,0.82,0.82
106.42,1.98,1.22,1.98,1.22,-1.22,-1.68,-0.49,0.76,0.76,0.76
107.48,1.82,1.13,1.82,1.12,-1.12,-1.57,-0.39,0.70,0.70,0.69
108.56,1.66,1.02,1.65,1.01,-1.01,-1.46,-0.30,0.64,0.64,0.64
109.64,1.49,0.90,1.49,0.91,-0.91,-1.35,-0.21,0.58,0.58,0.59
110.74,1.33,0.81,1.33,0.81,-0.81,-1.24,-0.12,0.52,0.53,0.52
111.85,1.18,0.72,1.17,0.71,-0.70,-1.12,-0.03,0.48,0.47,0.46
112.97,1.01,0.61,1.01,0.61,-0.60,-1.01,0.05,0.41,0.41,0.40
114.10,0.84,0.50,0.84,0.50,-0.50,-0.90,0.13,0.34,0.34,0.34
115.24,0.66,0.39,0.66,0.39,-0.40,-0.79,0.21,0.26,0.26,0.27
116.39,0.49,0.30,0.49,0.29,-0.30,-0.68,0.28,0.19,0.19,0.19
117.55,0.33,0.20,0.33,0.20,-0.20,-0.56,0.35,0.12,0.12,0.13
118.73,0.17,0.12,0.17,0.11,-0.11,-0.45,0.41,0.06,0.05,0.05
119.92,0.01,0.03,0.01,0.03,-0.02,-0.34,0.47,-0.02,-0.01,-0.02
121.12,-0.14,-0.06,-0.14,-0.06,0.06,-0.23,0.53,-0.08,-0.09,-0.08
122.33,-0.29,-0.13,-0.29,-0.14,0.13,-0.12,0.58,-0.16,-0.16,-0.16
123.55,-0.43,-0.21,-0.43,-0.21,0.20,-0.02,0.63,-0.23,-0.22,-0.22
124.79,-0.56,-0.27,-0.57,-0.28,0.27,0.09,0.67,-0.29,-0.30,-0.29
126.03,-0.71,-0.35,-0.71,-0.34,0.34,0.20,0.71,-0.37,-0.37,-0.36
127.29,-0.85,-0.40,-0.85,-0.41,0.41,0.30,0.75,-0.44,-0.44,-0.45
128.57,-0.98,-0.46,-0.99,-0.47,0.47,0.40,0.78,-0.51,-0.51,-0.52
129.85,-1.13,-0.53,-1.13,-0.53,0.54,0.50,0.81,-0.59,-0.59,-0.60
131.15,-1.27,-0.60,-1.27,-0.61,0.61,0.60,0.83,-0.66,-0.66,-0.67
132.46,-1.42,-0.68,-1.42,-0.68,0.68,0.70,0.85,-0.74,-0.74,-0.74
133.79,-1.56,-0.76,-1.56,-0.76,0.76,0.79,0.87,-0.80,-0.80,-0.80
135.12,-1.70,-0.83,-1.70,-0.84,0.84,0.89,0.88,-0.87,-0.86,-0.87
136.48,-1.83,-0.92,-1.83,-0.91,0.91,0.98,0.89,-0.92,-0.92,-0.91
137.84,-1.96,-0.99,-1.96,-0.99,0.99,1.06,0.90,-0.97,-0.97,-0.97
139.22,-2.09,-1.05,-2.10,-1.07,1.07,1.15,0.90,-1.02,-1.03,-1.04
140.61,-2.23,-1.15,-2.23,-1.14,1.15,1.23,0.90,-1.09,-1.08,-1.08
142.02,-2.35,-1.22,-2.35,-1.22,1.22,1.30,0.90,-1.13,-1.13,-1.13
143.44,-2.47,-1.28,-2.48,-1.30,1.29,1.38,0.90,-1.18,-1.19,-1.19
144.87,-2.60,-1.37,-2.60,-1.36,1.36,1.45,0.90,-1.24,-1.23,-1.23
146.32,-2.71,-1.43,-2.71,-1.43,1.43,1.52,0.89,-1.28,-1.28,-1.28
147.78,-2.82,-1.49,-2.83,-1.50,1.50,1.58,0.89,-1.32,-1.33,-1.33
149.26,-2.93,-1.56,-2.94,-1.56,1.56,1.64,0.88,-1.37,-1.37,-1.37
150.75,-3.05,-1.62,-3.04,-1.62,1.62,1.69,0.87,-1.43,-1.42,-1.43
152.26,-3.14,-1.68,-3.15,-1.68,1.68,1.74,0.86,-1.46,-1.47,-1.46
153.78,-3.24,-1.72,-3.24,-1.73,1.73,1.79,0.86,-1.51,-1.51,-1.52
155.32,-3.33,-1.77,-3.34,-1.78,1.77,1.83,0.85,-1.56,-1.56,-1.56
156.88,-3.43,-1.82,-3.43,-1.82,1.81,1.87,0.84,-1.62,-1.61,-1.61
158.44,-3.51,-1.85,-3.51,-1.86,1.85,1.90,0.83,-1.66,-1.66,-1.66
160.03,-3.59,-1.88,-3.59,-1.88,1.88,1.93,0.82,-1.71,-1.71,-1.71
161.63,-3.67,-1.91,-3.67,-1.91,1.91,1.96,0.81,-1.76,-1.76,-1.76
163.24,-3.74,-1.91,-3.74,-1.92,1.93,1.98,0.80,-1.81,-1.81,-1.83
164.88,-3.81,-1.94,-3.81,-1.94,1.95,1.99,0.79,-1.87,-1.87,-1.87
166.53,-3.88,-1.95,-3.88,-1.96,1.96,2.00,0.78,-1.93,-1.92,-1.93
168.19,-3.94,-1.97,-3.94,-1.97,1.96,2.01,0.78,-1.98,-1.98,-1.97
169.87,-4.00,-1.98,-4.00,-1.97,1.96,2.01,0.77,-2.04,-2.03,-2.02
171.57,-4.04,-1.95,-4.04,-1.96,1.96,2.01,0.76,-2.08,-2.08,-2.09
173.29,-4.08,-1.94,-4.08,-1.95,1.95,2.01,0.76,-2.13,-2.13,-2.14
175.02,-4.12,-1.94,-4.12,-1.94,1.94,2.00,0.75,-2.18,-2.18,-2.18
176.77,-4.15,-1.92,-4.15,-1.92,1.93,1.99,0.75,-2.23,-2.23,-2.23
178.54,-4.18,-1.90,-4.18,-1.90,1.91,1.97,0.75,-2.28,-2.28,-2.28
180.32,-4.21,-1.87,-4.21,-1.88,1.89,1.95,0.74,-2.33,-2.33,-2.34
182.13,-4.24,-1.86,-4.24,-1.86,1.86,1.93,0.74,-2.38,-2.38,-2.38
183.95,-4.27,-1.85,-4.27,-1.84,1.84,1.90,0.74,-2.43,-2.43,-2.42
185.79,-4.28,-1.80,-4.29,-1.82,1.81,1.87,0.74,-2.47,-2.47,-2.48
187.65,-4.30,-1.78,-4.31,-1.78,1.78,1.84,0.74,-2.52,-2.52,-2.52
189.52,-4.32,-1.75,-4.32,-1.75,1.75,1.81,0.74,-2.58,-2.57,-2.57
191.42,-4.33,-1.71,-4.33,-1.71,1.71,1.77,0.75,-2.63,-2.63,-2.62
193.33,-4.33,-1.66,-4.33,-1.66,1.66,1.73,0.75,-2.67,-2.67,-2.67
195.27,-4.33,-1.61,-4.33,-1.61,1.61,1.69,0.75,-2.72,-2.72,-2.72
197.22,-4.32,-1.55,-4.32,-1.56,1.56,1.65,0.76,-2.76,-2.76,-2.77
199.19,-4.31,-1.51,-4.31,-1.50,1.51,1.60,0.76,-2.80,-2.80,-2.80
201.18,-4.29,-1.44,-4.29,-1.45,1.45,1.55,0.76,-2.84,-2.84,-2.85
203.19,-4.27,-1.39,-4.28,-1.40,1.40,1.51,0.77,-2.88,-2.88,-2.88
205.23,-4.26,-1.34,-4.26,-1.34,1.34,1.46,0.77,-2.92,-2.92,-2.92
207.28,-4.23,-1.28,-4.24,-1.28,1.28,1.40,0.78,-2.95,-2.96,-2.95
209.35,-4.21,-1.22,-4.21,-1.22,1.22,1.35,0.78,-2.99,-3.00,-2.99
211.44,-4.19,-1.16,-4.19,-1.16,1.16,1.30,0.79,-3.03,-3.03,-3.03
213.56,-4.16,-1.09,-4.16,-1.10,1.10,1.24,0.80,-3.06,-3.06,-3.07
215.69,-4.13,-1.03,-4.14,-1.04,1.04,1.19,0.80,-3.09,-3.10,-3.10
217.85,-4.11,-0.98,-4.11,-0.98,0.98,1.13,0.81,-3.13,-3.13,-3.13
220.03,-4.09,-0.92,-4.09,-0.92,0.93,1.08,0.81,-3.16,-3.16,-3.17
222.23,-4.06,-0.87,-4.07,-0.87,0.88,1.02,0.81,-3.19,-3.19,-3.19
224.45,-4.04,-0.82,-4.05,-0.82,0.83,0.97,0.82,-3.22,-3.22,-3.22
226.70,-4.03,-0.78,-4.02,-0.78,0.78,0.91,0.82,-3.25,-3.25,-3.25
228.96,-4.00,-0.73,-4.01,-0.74,0.73,0.85,0.82,-3.27,-3.27,-3.27
231.25,-3.98,-0.69,-3.99,-0.69,0.69,0.80,0.82,-3.29,-3.30,-3.29
233.57,-3.97,-0.65,-3.97,-0.64,0.65,0.74,0.82,-3.33,-3.32,-3.32
235.90,-3.94,-0.59,-3.95,-0.60,0.60,0.68,0.82,-3.34,-3.35,-3.35
238.26,-3.93,-0.55,-3.93,-0.56,0.56,0.63,0.81,-3.37,-3.37,-3.38
240.64,-3.91,-0.53,-3.91,-0.52,0.52,0.57,0.81,-3.39,-3.39,-3.38
243.05,-3.88,-0.48,-3.89,-0.48,0.48,0.52,0.80,-3.40,-3.41,-3.40
245.48,-3.87,-0.44,-3.87,-0.44,0.45,0.46,0.80,-3.43,-3.42,-3.43
247.93,-3.85,-0.40,-3.85,-0.41,0.41,0.41,0.79,-3.44,-3.44,-3.45
250.41,-3.82,-0.37,-3.83,-0.38,0.38,0.35,0.77,-3.44,-3.45,-3.45
252.92,-3.81,-0.35,-3.81,-0.35,0.34,0.30,0.76,-3.47,-3.47,-3.46
255.45,-3.79,-0.31,-3.79,-0.32,0.31,0.24,0.75,-3.48,-3.48,-3.48
258.00,-3.77,-0.28,-3.77,-0.28,0.28,0.19,0.73,-3.49,-3.49,-3.49
260.58,-3.74,-0.24,-3.75,-0.24,0.24,0.14,0.71,-3.50,-3.50,-3.50
263.19,-3.72,-0.20,-3.72,-0.21,0.21,0.09,0.69,-3.51,-3.52,-3.52
265.82,-3.70,-0.17,-3.70,-0.17,0.17,0.04,0.67,-3.53,-3.53,-3.53
268.48,-3.68,-0.14,-3.68,-0.14,0.14,-0.01,0.65,-3.55,-3.54,-3.54
271.16,-3.65,-0.09,-3.66,-0.10,0.10,-0.06,0.62,-3.55,-3.56,-3.56
273.87,-3.64,-0.07,-3.64,-0.07,0.07,-0.11,0.60,-3.58,-3.57,-3.57
276.61,-3.61,-0.02,-3.62,-0.03,0.03,-0.16,0.57,-3.58,-3.59,-3.59
279.38,-3.60,0.01,-3.60,0.01,-0.00,-0.21,0.54,-3.61,-3.60,-3.61
282.17,-3.57,0.05,-3.58,0.04,-0.04,-0.25,0.51,-3.61,-3.61,-3.62
284.99,-3.55,0.06,-3.55,0.07,-0.07,-0.30,0.48,-3.62,-3.62,-3.61
287.84,-3.53,0.09,-3.53,0.10,-0.10,-0.34,0.45,-3.63,-3.63,-3.62
290.72,-3.50,0.15,-3.51,0.13,-0.13,-0.39,0.42,-3.63,-3.64,-3.65
293.63,-3.48,0.16,-3.48,0.16,-0.16,-0.43,0.39,-3.64,-3.64,-3.64
296.57,-3.46,0.19,-3.46,0.19,-0.19,-0.47,0.35,-3.65,-3.65,-3.65
299.53,-3.44,0.22,-3.44,0.22,-0.22,-0.51,0.32,-3.66,-3.66,-3.66
302.53,-3.41,0.25,-3.42,0.25,-0.25,-0.55,0.28,-3.66,-3.66,-3.66
305.55,-3.39,0.28,-3.39,0.27,-0.28,-0.59,0.25,-3.67,-3.67,-3.67
308.61,-3.37,0.30,-3.37,0.30,-0.31,-0.63,0.21,-3.68,-3.67,-3.67
311.69,-3.34,0.34,-3.34,0.33,-0.33,-0.67,0.17,-3.68,-3.68,-3.68
314.81,-3.31,0.37,-3.32,0.36,-0.36,-0.70,0.14,-3.67,-3.68,-3.68
317.96,-3.29,0.40,-3.29,0.40,-0.39,-0.74,0.10,-3.68,-3.68,-3.69
321.14,-3.26,0.42,-3.27,0.42,-0.42,-0.78,0.06,-3.68,-3.69,-3.68
324.35,-3.24,0.46,-3.24,0.45,-0.45,-0.81,0.02,-3.69,-3.69,-3.70
327.59,-3.21,0.47,-3.21,0.48,-0.48,-0.84,-0.01,-3.69,-3.69,-3.68
330.87,-3.18,0.51,-3.18,0.51,-0.51,-0.88,-0.05,-3.69,-3.69,-3.69
334.18,-3.15,0.55,-3.15,0.54,-0.53,-0.91,-0.09,-3.69,-3.69,-3.70
337.52,-3.13,0.56,-3.13,0.57,-0.56,-0.94,-0.13,-3.69,-3.69,-3.69
340.90,-3.10,0.60,-3.11,0.59,-0.58,-0.97,-0.17,-3.69,-3.69,-3.70
344.30,-3.08,0.61,-3.08,0.61,-0.61,-1.00,-0.21,-3.69,-3.69,-3.69
347.75,-3.06,0.62,-3.06,0.63,-0.63,-1.03,-0.25,-3.69,-3.69,-3.68
351.23,-3.03,0.67,-3.04,0.65,-0.65,-1.05,-0.29,-3.69,-3.69,-3.70
354.74,-3.01,0.67,-3.01,0.67,-0.67,-1.08,-0.33,-3.69,-3.69,-3.68
358.28,-2.99,0.70,-2.99,0.70,-0.69,-1.11,-0.37,-3.69,-3.69,-3.69
361.87,-2.97,0.72,-2.97,0.71,-0.71,-1.13,-0.41,-3.69,-3.69,-3.69
365.49,-2.95,0.74,-2.95,0.73,-0.73,-1.16,-0.45,-3.69,-3.69,-3.69
369.14,-2.93,0.75,-2.93,0.75,-0.75,-1.18,-0.49,-3.69,-3.69,-3.68
372.83,-2.91,0.77,-2.91,0.77,-0.77,-1.20,-0.53,-3.68,-3.68,-3.68
376.56,-2.89,0.80,-2.89,0.79,-0.79,-1.22,-0.58,-3.68,-3.68,-3.69
380.33,-2.87,0.82,-2.87,0.81,-0.81,-1.24,-0.62,-3.68,-3.68,-3.69
384.13,-2.85,0.84,-2.86,0.83,-0.83,-1.27,-0.66,-3.68,-3.69,-3.69
387.97,-2.84,0.84,-2.84,0.85,-0.85,-1.28,-0.70,-3.69,-3.69,-3.68
391.85,-2.82,0.87,-2.82,0.87,-0.87,-1.30,-0.74,-3.69,-3.69,-3.69
395.77,-2.79,0.90,-2.80,0.89,-0.89,-1.32,-0.78,-3.68,-3.69,-3.69
399.73,-2.77,0.92,-2.77,0.91,-0.91,-1.34,-0.83,-3.68,-3.69,-3.69
403.72,-2.75,0.93,-2.75,0.93,-0.94,-1.36,-0.87,-3.69,-3.68,-3.68
407.76,-2.72,0.96,-2.72,0.96,-0.96,-1.37,-0.91,-3.68,-3.68,-3.68
411.84,-2.69,0.99,-2.69,0.99,-0.99,-1.39,-0.95,-3.68,-3.68,-3.68
415.96,-2.66,1.02,-2.66,1.02,-1.02,-1.40,-0.99,-3.68,-3.68,-3.68
420.12,-2.63,1.06,-2.63,1.05,-1.05,-1.42,-1.03,-3.68,-3.68,-3.69
424.32,-2.60,1.09,-2.60,1.08,-1.08,-1.43,-1.07,-3.68,-3.68,-3.69
428.56,-2.57,1.11,-2.57,1.11,-1.11,-1.44,-1.11,-3.69,-3.69,-3.68
432.85,-2.54,1.14,-2.54,1.14,-1.15,-1.45,-1.15,-3.69,-3.69,-3.68
437.18,-2.51,1.18,-2.51,1.17,-1.18,-1.46,-1.18,-3.69,-3.69,-3.69
441.55,-2.48,1.21,-2.49,1.21,-1.20,-1.48,-1.22,-3.69,-3.69,-3.69
445.96,-2.46,1.24,-2.46,1.23,-1.23,-1.49,-1.25,-3.69,-3.69,-3.70
450.42,-2.44,1.26,-2.44,1.26,-1.25,-1.49,-1.29,-3.69,-3.69,-3.70
454.93,-2.42,1.28,-2.42,1.28,-1.27,-1.50,-1.32,-3.70,-3.70,-3.70
459.48,-2.40,1.30,-2.40,1.29,-1.29,-1.51,-1.35,-3.69,-3.70,-3.70
464.07,-2.39,1.30,-2.39,1.30,-1.31,-1.52,-1.38,-3.70,-3.69,-3.69
468.71,-2.37,1.32,-2.38,1.31,-1.32,-1.53,-1.40,-3.69,-3.69,-3.69
473.40,-2.36,1.33,-2.36,1.32,-1.33,-1.53,-1.43,-3.69,-3.69,-3.69
478.13,-2.36,1.33,-2.35,1.33,-1.33,-1.54,-1.45,-3.70,-3.69,-3.69
