frequency,raw,error,smoothed,error_smoothed,equalization,parametric_eq,fixed_band_eq,equalized_raw,equalized_smoothed,target
20.00,-1.75,-6.74,-1.75,-6.76,6.76,6.41,2.08,5.01,5.01,4.98
20.20,-1.67,-6.70,-1.68,-6.72,6.72,6.40,2.14,5.04,5.04,5.02
20.40,-1.60,-6.67,-1.60,-6.67,6.67,6.38,2.20,5.07,5.07,5.06
20.61,-1.53,-6.62,-1.53,-6.62,6.62,6.36,2.26,5.10,5.10,5.09
20.81,-1.45,-6.59,-1.45,-6.57,6.57,6.33,2.32,5.12,5.12,5.13
21.02,-1.37,-6.55,-1.38,-6.52,6.52,6.30,2.39,5.15,5.15,5.17
21.23,-1.30,-6.50,-1.30,-6.47,6.47,6.26,2.46,5.17,5.17,5.19
21.44,-1.22,-6.43,-1.23,-6.42,6.42,6.22,2.53,5.19,5.19,5.21
21.66,-1.16,-6.39,-1.15,-6.36,6.36,6.18,2.60,5.21,5.21,5.23
21.87,-1.07,-6.31,-1.08,-6.31,6.31,6.13,2.68,5.23,5.23,5.24
22.09,-1.00,-6.26,-1.00,-6.25,6.25,6.08,2.75,5.25,5.25,5.26
22.31,-0.92,-6.19,-0.93,-6.19,6.19,6.03,2.83,5.27,5.27,5.27
22.54,-0.86,-6.13,-0.85,-6.13,6.13,5.98,2.91,5.27,5.28,5.28
22.76,-0.77,-6.06,-0.78,-6.06,6.06,5.92,2.99,5.29,5.29,5.29
22.99,-0.69,-5.98,-0.70,-6.00,6.00,5.87,3.08,5.30,5.30,5.29
23.22,-0.62,-5.92,-0.63,-5.93,5.93,5.81,3.17,5.31,5.31,5.30
23.45,-0.55,-5.86,-0.55,-5.87,5.87,5.74,3.25,5.31,5.31,5.31
23.69,-0.49,-5.80,-0.48,-5.80,5.80,5.68,3.34,5.32,5.32,5.31
23.92,-0.40,-5.73,-0.41,-5.74,5.74,5.62,3.44,5.33,5.33,5.32
24.16,-0.33,-5.68,-0.33,-5.67,5.67,5.55,3.53,5.34,5.34,5.34
24.40,-0.26,-5.62,-0.26,-5.61,5.61,5.48,3.63,5.35,5.35,5.36
24.65,-0.19,-5.55,-0.19,-5.55,5.55,5.42,3.72,5.36,5.36,5.36
24.89,-0.11,-5.48,-0.12,-5.49,5.49,5.35,3.82,5.37,5.37,5.37
25.14,-0.04,-5.42,-0.05,-5.43,5.43,5.28,3.92,5.38,5.38,5.38
25.39,0.03,-5.36,0.02,-5.37,5.37,5.21,4.02,5.39,5.39,5.39
25.65,0.10,-5.31,0.09,-5.31,5.31,5.15,4.12,5.40,5.40,5.41
25.91,0.15,-5.25,0.16,-5.25,5.25,5.08,4.22,5.40,5.41,5.41
26.16,0.23,-5.19,0.23,-5.19,5.19,5.01,4.32,5.42,5.42,5.41
26.43,0.29,-5.13,0.30,-5.13,5.13,4.94,4.42,5.42,5.43,5.42
26.69,0.37,-5.07,0.37,-5.07,5.07,4.88,4.51,5.44,5.44,5.43
26.96,0.43,-5.02,0.43,-5.01,5.01,4.81,4.61,5.44,5.44,5.45
27.23,0.50,-4.95,0.50,-4.95,4.95,4.74,4.71,5.45,5.45,5.46
27.50,0.57,-4.90,0.57,-4.89,4.89,4.68,4.80,5.46,5.46,5.47
27.77,0.64,-4.83,0.64,-4.83,4.83,4.62,4.89,5.47,5.47,5.47
28.05,0.70,-4.79,0.71,-4.77,4.77,4.55,4.97,5.47,5.48,5.48
28.33,0.77,-4.72,0.77,-4.72,4.72,4.49,5.05,5.48,5.49,5.48
28.62,0.82,-4.67,0.83,-4.66,4.66,4.43,5.13,5.49,5.49,5.49
28.90,0.90,-4.60,0.89,-4.61,4.61,4.37,5.20,5.50,5.50,5.50
29.19,0.96,-4.54,0.95,-4.56,4.56,4.31,5.26,5.51,5.51,5.50
29.48,1.02,-4.51,1.00,-4.51,4.51,4.25,5.32,5.53,5.52,5.53
29.78,1.07,-4.45,1.06,-4.47,4.47,4.19,5.37,5.54,5.52,5.52
30.08,1.12,-4.41,1.10,-4.42,4.42,4.14,5.42,5.55,5.53,5.53
30.38,1.16,-4.36,1.15,-4.38,4.38,4.08,5.45,5.55,5.53,5.53
30.68,1.20,-4.35,1.19,-4.35,4.35,4.03,5.48,5.54,5.54,5.55
30.99,1.24,-4.31,1.23,-4.32,4.32,3.98,5.50,5.55,5.55,5.55
31.30,1.27,-4.29,1.27,-4.28,4.28,3.93,5.52,5.55,5.55,5.55
31.61,1.31,-4.26,1.31,-4.25,4.25,3.88,5.52,5.56,5.56,5.56
31.93,1.34,-4.23,1.34,-4.23,4.23,3.83,5.52,5.56,5.57,5.57
32.24,1.38,-4.19,1.38,-4.20,4.20,3.78,5.50,5.57,5.58,5.57
32.57,1.41,-4.18,1.41,-4.17,4.17,3.74,5.48,5.57,5.58,5.58
32.89,1.45,-4.14,1.45,-4.14,4.14,3.70,5.46,5.58,5.59,5.59
33.22,1.49,-4.11,1.49,-4.11,4.11,3.65,5.42,5.59,5.60,5.60
33.55,1.53,-4.08,1.53,-4.07,4.07,3.61,5.38,5.60,5.60,5.60
33.89,1.58,-4.03,1.57,-4.03,4.03,3.57,5.33,5.61,5.61,5.61
34.23,1.62,-4.00,1.62,-3.99,3.99,3.53,5.28,5.61,5.61,5.62
34.57,1.67,-3.96,1.67,-3.95,3.95,3.49,5.22,5.62,5.62,5.62
34.92,1.71,-3.90,1.72,-3.91,3.91,3.46,5.16,5.62,5.62,5.62
35.27,1.76,-3.86,1.77,-3.86,3.86,3.42,5.10,5.62,5.63,5.63
35.62,1.82,-3.82,1.83,-3.80,3.80,3.39,5.03,5.62,5.63,5.63
35.97,1.88,-3.75,1.88,-3.75,3.75,3.36,4.96,5.62,5.63,5.63
36.33,1.94,-3.70,1.94,-3.69,3.69,3.33,4.88,5.63,5.63,5.63
36.70,2.00,-3.63,2.00,-3.63,3.63,3.30,4.81,5.63,5.63,5.63
37.06,2.06,-3.58,2.06,-3.57,3.57,3.27,4.73,5.63,5.63,5.63
37.43,2.13,-3.51,2.12,-3.51,3.51,3.24,4.66,5.63,5.63,5.64
37.81,2.20,-3.44,2.18,-3.44,3.44,3.21,4.58,5.64,5.63,5.63
38.19,2.26,-3.37,2.24,-3.38,3.38,3.19,4.51,5.64,5.63,5.63
38.57,2.32,-3.31,2.30,-3.32,3.32,3.16,4.43,5.63,5.62,5.62
38.95,2.37,-3.25,2.36,-3.26,3.26,3.14,4.36,5.62,5.62,5.62
39.34,2.43,-3.19,2.42,-3.20,3.20,3.12,4.28,5.62,5.62,5.61
39.74,2.48,-3.13,2.48,-3.14,3.14,3.10,4.21,5.61,5.61,5.61
40.14,2.52,-3.09,2.53,-3.08,3.08,3.08,4.14,5.61,5.61,5.61
40.54,2.58,-3.03,2.58,-3.02,3.02,3.06,4.08,5.60,5.61,5.60
40.94,2.63,-2.97,2.63,-2.97,2.97,3.04,4.01,5.60,5.60,5.60
41.35,2.68,-2.91,2.68,-2.92,2.92,3.03,3.95,5.59,5.60,5.59
41.76,2.72,-2.88,2.73,-2.87,2.87,3.01,3.89,5.58,5.59,5.59
42.18,2.77,-2.83,2.77,-2.82,2.82,3.00,3.83,5.59,5.59,5.60
42.60,2.81,-2.78,2.81,-2.78,2.78,2.99,3.78,5.58,5.58,5.59
43.03,2.85,-2.74,2.84,-2.73,2.73,2.97,3.73,5.58,5.58,5.59
43.46,2.88,-2.71,2.88,-2.70,2.70,2.96,3.68,5.57,5.57,5.58
43.90,2.91,-2.66,2.90,-2.67,2.67,2.95,3.63,5.57,5.57,5.56
44.33,2.94,-2.63,2.93,-2.64,2.64,2.94,3.59,5.57,5.57,5.56
44.78,2.96,-2.60,2.95,-2.62,2.62,2.94,3.55,5.57,5.56,5.55
45.23,2.97,-2.58,2.96,-2.60,2.60,2.93,3.51,5.57,5.56,5.54
45.68,2.97,-2.58,2.96,-2.59,2.59,2.92,3.47,5.55,5.55,5.54
46.13,2.97,-2.57,2.96,-2.58,2.58,2.92,3.44,5.55,5.54,5.53
46.60,2.96,-2.59,2.95,-2.59,2.59,2.91,3.41,5.54,5.54,5.54
47.06,2.95,-2.59,2.93,-2.59,2.59,2.91,3.39,5.54,5.53,5.53
47.53,2.92,-2.61,2.91,-2.60,2.60,2.90,3.36,5.52,5.52,5.52
48.01,2.90,-2.63,2.89,-2.62,2.62,2.90,3.34,5.52,5.51,5.53
48.49,2.86,-2.65,2.85,-2.64,2.64,2.90,3.32,5.50,5.50,5.51
48.97,2.82,-2.67,2.82,-2.67,2.67,2.90,3.30,5.48,5.48,5.48
49.46,2.78,-2.69,2.77,-2.70,2.70,2.90,3.29,5.47,5.47,5.47
49.96,2.73,-2.72,2.73,-2.73,2.73,2.90,3.28,5.46,5.46,5.45
50.46,2.68,-2.77,2.68,-2.76,2.76,2.90,3.27,5.44,5.44,5.44
50.96,2.62,-2.81,2.62,-2.80,2.80,2.90,3.26,5.41,5.42,5.43
51.47,2.57,-2.83,2.57,-2.83,2.83,2.91,3.25,5.40,5.40,5.39
51.99,2.52,-2.86,2.51,-2.87,2.87,2.91,3.24,5.39,5.38,5.37
52.51,2.46,-2.91,2.45,-2.91,2.91,2.91,3.24,5.36,5.36,5.37
53.03,2.40,-2.95,2.40,-2.94,2.94,2.92,3.24,5.34,5.34,5.34
53.56,2.33,-3.00,2.34,-2.98,2.98,2.92,3.23,5.30,5.32,5.32
54.10,2.27,-3.03,2.28,-3.01,3.01,2.93,3.23,5.28,5.30,5.30
54.64,2.22,-3.06,2.22,-3.05,3.05,2.93,3.23,5.27,5.27,5.28
55.18,2.16,-3.09,2.16,-3.09,3.09,2.94,3.23,5.24,5.25,5.25
55.74,2.11,-3.11,2.10,-3.12,3.12,2.95,3.23,5.23,5.23,5.22
56.29,2.06,-3.15,2.04,-3.16,3.16,2.96,3.23,5.21,5.20,5.21
56.86,2.00,-3.18,1.98,-3.19,3.19,2.96,3.23,5.19,5.18,5.17
57.42,1.94,-3.21,1.92,-3.23,3.23,2.97,3.23,5.16,5.15,5.14
58.00,1.88,-3.24,1.86,-3.26,3.26,2.98,3.23,5.14,5.12,5.12
58.58,1.82,-3.28,1.80,-3.29,3.29,2.99,3.23,5.11,5.09,5.10
59.16,1.75,-3.33,1.74,-3.32,3.32,3.00,3.23,5.06,5.06,5.07
59.76,1.69,-3.36,1.69,-3.34,3.34,3.01,3.22,5.03,5.03,5.05
60.35,1.63,-3.38,1.63,-3.37,3.37,3.02,3.22,4.99,5.00,5.01
60.96,1.57,-3.41,1.58,-3.38,3.38,3.03,3.21,4.95,4.96,4.97
61.57,1.52,-3.41,1.53,-3.40,3.40,3.04,3.20,4.91,4.93,4.93
62.18,1.47,-3.41,1.48,-3.41,3.41,3.05,3.19,4.87,4.89,4.88
62.80,1.42,-3.43,1.43,-3.42,3.42,3.07,3.18,4.83,4.85,4.85
63.43,1.38,-3.42,1.39,-3.42,3.42,3.08,3.17,4.79,4.81,4.80
64.07,1.35,-3.41,1.35,-3.42,3.42,3.09,3.15,4.76,4.76,4.76
64.71,1.32,-3.40,1.31,-3.41,3.41,3.10,3.13,4.72,4.72,4.72
65.35,1.29,-3.39,1.28,-3.40,3.40,3.11,3.12,4.68,4.68,4.67
66.01,1.26,-3.37,1.25,-3.38,3.38,3.13,3.10,4.64,4.63,4.63
66.67,1.23,-3.37,1.22,-3.37,3.37,3.14,3.08,4.59,4.59,4.59
67.33,1.20,-3.35,1.19,-3.35,3.35,3.15,3.06,4.55,4.54,4.55
68.01,1.17,-3.34,1.17,-3.33,3.33,3.16,3.03,4.50,4.50,4.50
68.69,1.14,-3.32,1.14,-3.31,3.31,3.17,3.01,4.45,4.45,4.46
69.37,1.11,-3.30,1.12,-3.29,3.29,3.19,2.98,4.39,4.41,4.41
70.07,1.09,-3.27,1.09,-3.27,3.27,3.20,2.96,4.35,4.36,4.36
70.77,1.07,-3.25,1.07,-3.25,3.25,3.21,2.94,4.31,4.32,4.32
71.48,1.05,-3.23,1.04,-3.23,3.23,3.22,2.91,4.28,4.27,4.28
72.19,1.02,-3.21,1.01,-3.21,3.21,3.23,2.89,4.23,4.23,4.22
72.91,0.99,-3.20,0.98,-3.20,3.20,3.25,2.86,4.18,4.18,4.18
73.64,0.96,-3.18,0.95,-3.19,3.19,3.26,2.84,4.14,4.14,4.14
74.38,0.93,-3.18,0.92,-3.18,3.18,3.27,2.81,4.11,4.10,4.10
75.12,0.90,-3.16,0.88,-3.18,3.18,3.28,2.79,4.07,4.06,4.06
75.87,0.86,-3.16,0.84,-3.18,3.18,3.29,2.77,4.04,4.02,4.02
76.63,0.81,-3.18,0.79,-3.19,3.19,3.30,2.75,3.99,3.98,3.98
77.40,0.75,-3.20,0.74,-3.20,3.20,3.31,2.73,3.95,3.94,3.94
78.17,0.70,-3.21,0.69,-3.22,3.22,3.32,2.71,3.91,3.91,3.90
78.95,0.64,-3.24,0.63,-3.24,3.24,3.33,2.69,3.88,3.87,3.87
79.74,0.58,-3.26,0.57,-3.27,3.27,3.34,2.67,3.84,3.84,3.84
80.54,0.52,-3.29,0.51,-3.30,3.30,3.35,2.66,3.81,3.80,3.81
81.35,0.45,-3.33,0.44,-3.33,3.33,3.36,2.65,3.77,3.77,3.77
82.16,0.38,-3.36,0.38,-3.36,3.36,3.36,2.64,3.74,3.74,3.74
82.98,0.31,-3.41,0.31,-3.40,3.40,3.37,2.63,3.70,3.71,3.71
83.81,0.25,-3.43,0.25,-3.43,3.43,3.38,2.62,3.67,3.68,3.67
84.65,0.19,-3.45,0.19,-3.46,3.46,3.38,2.62,3.64,3.65,3.64
85.50,0.13,-3.49,0.13,-3.48,3.48,3.39,2.61,3.61,3.62,3.62
86.35,0.07,-3.53,0.08,-3.51,3.51,3.39,2.61,3.57,3.59,3.59
87.22,0.01,-3.55,0.03,-3.53,3.53,3.40,2.61,3.54,3.56,3.56
88.09,-0.03,-3.56,-0.01,-3.55,3.55,3.40,2.61,3.51,3.54,3.53
88.97,-0.06,-3.57,-0.05,-3.56,3.56,3.40,2.62,3.49,3.51,3.51
89.86,-0.09,-3.58,-0.09,-3.57,3.57,3.41,2.63,3.47,3.48,3.49
90.76,-0.12,-3.57,-0.12,-3.57,3.57,3.41,2.63,3.45,3.45,3.44
91.66,-0.15,-3.58,-0.15,-3.57,3.57,3.41,2.65,3.42,3.42,3.42
92.58,-0.18,-3.57,-0.18,-3.58,3.58,3.41,2.66,3.39,3.39,3.39
93.51,-0.20,-3.58,-0.22,-3.58,3.58,3.41,2.67,3.38,3.37,3.37
94.44,-0.22,-3.56,-0.25,-3.58,3.58,3.41,2.69,3.36,3.33,3.34
95.39,-0.26,-3.58,-0.28,-3.59,3.59,3.41,2.71,3.32,3.30,3.31
96.34,-0.29,-3.56,-0.32,-3.59,3.59,3.40,2.73,3.29,3.27,3.27
97.30,-0.33,-3.57,-0.35,-3.59,3.59,3.40,2.75,3.26,3.24,3.23
98.28,-0.37,-3.57,-0.39,-3.59,3.59,3.40,2.77,3.22,3.20,3.20
99.26,-0.43,-3.59,-0.44,-3.60,3.60,3.39,2.79,3.16,3.16,3.16
100.25,-0.49,-3.62,-0.48,-3.60,3.60,3.39,2.82,3.11,3.12,3.12
101.25,-0.54,-3.63,-0.52,-3.60,3.60,3.38,2.84,3.06,3.08,3.08
102.27,-0.59,-3.63,-0.57,-3.61,3.61,3.37,2.87,3.01,3.04,3.04
103.29,-0.61,-3.60,-0.61,-3.61,3.61,3.37,2.90,2.99,2.99,2.99
104.32,-0.65,-3.61,-0.66,-3.61,3.61,3.36,2.93,2.95,2.95,2.95
105.37,-0.69,-3.60,-0.71,-3.60,3.60,3.35,2.96,2.91,2.90,2.90
106.42,-0.74,-3.59,-0.75,-3.59,3.59,3.34,2.99,2.85,2.84,2.85
107.48,-0.78,-3.58,-0.79,-3.58,3.58,3.33,3.01,2.79,2.79,2.80
108.56,-0.82,-3.55,-0.83,-3.56,3.56,3.32,3.04,2.74,2.73,2.73
109.64,-0.86,-3.54,-0.87,-3.54,3.54,3.30,3.07,2.67,2.67,2.67
110.74,-0.90,-3.52,-0.91,-3.51,3.51,3.29,3.10,2.61,2.61,2.62
111.85,-0.94,-3.49,-0.94,-3.48,3.48,3.28,3.12,2.54,2.54,2.55
112.97,-0.99,-3.47,-0.98,-3.45,3.45,3.26,3.15,2.46,2.47,2.47
114.10,-1.01,-3.43,-1.01,-3.42,3.42,3.25,3.17,2.40,2.41,2.41
115.24,-1.04,-3.38,-1.04,-3.38,3.38,3.23,3.19,2.34,2.34,2.34
116.39,-1.05,-3.32,-1.07,-3.34,3.34,3.21,3.21,2.28,2.27,2.26
117.55,-1.08,-3.28,-1.09,-3.29,3.29,3.20,3.22,2.20,2.20,2.20
118.73,-1.11,-3.24,-1.10,-3.24,3.24,3.18,3.24,2.12,2.13,2.12
119.92,-1.14,-3.21,-1.12,-3.18,3.18,3.16,3.25,2.04,2.07,2.07
121.12,-1.16,-3.16,-1.13,-3.13,3.13,3.14,3.25,1.96,2.00,1.99
122.33,-1.16,-3.09,-1.14,-3.07,3.07,3.12,3.26,1.91,1.94,1.93
123.55,-1.15,-3.03,-1.15,-3.02,3.02,3.10,3.26,1.87,1.87,1.88
124.79,-1.14,-2.96,-1.16,-2.97,2.97,3.08,3.26,1.82,1.81,1.82
126.03,-1.14,-2.90,-1.17,-2.92,2.92,3.06,3.25,1.78,1.75,1.75
127.29,-1.15,-2.85,-1.18,-2.87,2.87,3.04,3.24,1.72,1.69,1.69
128.57,-1.16,-2.79,-1.20,-2.83,2.83,3.02,3.23,1.67,1.63,1.62
129.85,-1.19,-2.77,-1.22,-2.80,2.80,3.00,3.21,1.60,1.58,1.57
131.15,-1.22,-2.74,-1.24,-2.76,2.76,2.97,3.19,1.54,1.52,1.52
132.46,-1.24,-2.71,-1.26,-2.73,2.73,2.95,3.17,1.49,1.47,1.47
133.79,-1.27,-2.70,-1.28,-2.70,2.70,2.93,3.14,1.43,1.42,1.42
135.12,-1.32,-2.69,-1.31,-2.68,2.68,2.90,3.12,1.35,1.37,1.37
136.48,-1.34,-2.67,-1.34,-2.66,2.66,2.88,3.09,1.31,1.32,1.32
137.84,-1.38,-2.65,-1.37,-2.64,2.64,2.85,3.05,1.25,1.27,1.27
139.22,-1.41,-2.63,-1.39,-2.62,2.62,2.83,3.02,1.20,1.22,1.21
140.61,-1.43,-2.60,-1.42,-2.59,2.59,2.80,2.98,1.16,1.18,1.16
142.02,-1.46,-2.60,-1.44,-2.57,2.57,2.78,2.95,1.11,1.13,1.13
143.44,-1.47,-2.57,-1.46,-2.55,2.55,2.75,2.91,1.07,1.08,1.09
144.87,-1.47,-2.52,-1.48,-2.52,2.52,2.73,2.87,1.05,1.04,1.04
146.32,-1.48,-2.48,-1.50,-2.49,2.49,2.70,2.83,1.00,0.99,0.99
147.78,-1.49,-2.45,-1.51,-2.46,2.46,2.67,2.79,0.96,0.94,0.96
149.26,-1.50,-2.41,-1.52,-2.42,2.42,2.65,2.75,0.91,0.90,0.91
150.75,-1.52,-2.37,-1.53,-2.38,2.38,2.62,2.71,0.85,0.85,0.84
152.26,-1.53,-2.33,-1.53,-2.33,2.33,2.59,2.67,0.80,0.80,0.80
153.78,-1.55,-2.31,-1.54,-2.29,2.29,2.57,2.63,0.74,0.75,0.76
155.32,-1.56,-2.26,-1.54,-2.25,2.25,2.54,2.59,0.68,0.70,0.69
156.88,-1.56,-2.22,-1.55,-2.20,2.20,2.51,2.56,0.63,0.65,0.65
158.44,-1.56,-2.17,-1.55,-2.15,2.15,2.48,2.52,0.59,0.60,0.60
160.03,-1.55,-2.10,-1.56,-2.10,2.10,2.46,2.48,0.55,0.55,0.54
161.63,-1.55,-2.04,-1.56,-2.05,2.05,2.43,2.45,0.50,0.49,0.48
163.24,-1.55,-1.99,-1.56,-2.00,2.00,2.40,2.42,0.45,0.44,0.44
164.88,-1.55,-1.94,-1.56,-1.95,1.95,2.38,2.39,0.39,0.39,0.39
166.53,-1.56,-1.90,-1.57,-1.90,1.90,2.35,2.36,0.33,0.33,0.33
168.19,-1.57,-1.85,-1.57,-1.85,1.85,2.32,2.33,0.28,0.28,0.28
169.87,-1.59,-1.82,-1.59,-1.81,1.81,2.30,2.30,0.21,0.22,0.22
171.57,-1.59,-1.77,-1.60,-1.77,1.77,2.27,2.28,0.17,0.17,0.17
173.29,-1.60,-1.71,-1.62,-1.73,1.73,2.24,2.25,0.12,0.11,0.11
175.02,-1.61,-1.67,-1.64,-1.69,1.69,2.22,2.23,0.08,0.05,0.06
176.77,-1.64,-1.63,-1.67,-1.66,1.66,2.19,2.21,0.02,-0.01,-0.01
178.54,-1.68,-1.61,-1.70,-1.63,1.63,2.16,2.19,-0.05,-0.07,-0.07
180.32,-1.72,-1.60,-1.74,-1.61,1.61,2.14,2.18,-0.12,-0.13,-0.13
182.13,-1.77,-1.59,-1.77,-1.58,1.58,2.11,2.16,-0.19,-0.19,-0.19
183.95,-1.84,-1.59,-1.81,-1.56,1.56,2.09,2.15,-0.29,-0.25,-0.25
185.79,-1.88,-1.57,-1.85,-1.53,1.53,2.06,2.14,-0.35,-0.31,-0.31
187.65,-1.90,-1.52,-1.89,-1.51,1.51,2.04,2.13,-0.39,-0.37,-0.39
189.52,-1.93,-1.49,-1.93,-1.50,1.50,2.01,2.12,-0.44,-0.43,-0.44
191.42,-1.97,-1.48,-1.97,-1.48,1.48,1.99,2.11,-0.50,-0.49,-0.49
193.33,-2.01,-1.47,-2.01,-1.46,1.46,1.97,2.11,-0.55,-0.55,-0.55
195.27,-2.05,-1.45,-2.05,-1.45,1.45,1.95,2.10,-0.61,-0.61,-0.60
197.22,-2.08,-1.42,-2.09,-1.43,1.43,1.92,2.10,-0.65,-0.66,-0.66
199.19,-2.12,-1.40,-2.14,-1.42,1.42,1.90,2.10,-0.70,-0.71,-0.72
201.18,-2.17,-1.40,-2.18,-1.41,1.41,1.88,2.10,-0.76,-0.77,-0.77
203.19,-2.22,-1.41,-2.22,-1.41,1.41,1.86,2.10,-0.82,-0.82,-0.81
205.23,-2.27,-1.40,-2.27,-1.40,1.40,1.84,2.10,-0.87,-0.87,-0.87
207.28,-2.32,-1.42,-2.32,-1.41,1.41,1.82,2.10,-0.92,-0.92,-0.90
209.35,-2.36,-1.41,-2.38,-1.42,1.42,1.80,2.10,-0.95,-0.96,-0.96
211.44,-2.41,-1.40,-2.44,-1.43,1.43,1.78,2.10,-0.98,-1.01,-1.01
213.56,-2.47,-1.42,-2.49,-1.44,1.44,1.76,2.11,-1.03,-1.05,-1.05
215.69,-2.54,-1.47,-2.55,-1.46,1.46,1.74,2.11,-1.08,-1.09,-1.08
217.85,-2.61,-1.49,-2.61,-1.48,1.48,1.73,2.11,-1.13,-1.13,-1.12
220.03,-2.67,-1.51,-2.67,-1.51,1.51,1.71,2.11,-1.17,-1.16,-1.17
222.23,-2.73,-1.53,-2.73,-1.53,1.53,1.70,2.12,-1.20,-1.19,-1.20
224.45,-2.79,-1.57,-2.78,-1.56,1.56,1.68,2.12,-1.24,-1.22,-1.23
226.70,-2.85,-1.60,-2.84,-1.59,1.59,1.67,2.12,-1.27,-1.25,-1.25
228.96,-2.90,-1.62,-2.90,-1.62,1.62,1.66,2.12,-1.29,-1.28,-1.28
231.25,-2.94,-1.65,-2.95,-1.65,1.65,1.65,2.11,-1.29,-1.30,-1.30
233.57,-2.98,-1.67,-3.00,-1.68,1.68,1.64,2.11,-1.30,-1.32,-1.32
235.90,-3.04,-1.70,-3.05,-1.72,1.72,1.63,2.11,-1.33,-1.33,-1.34
238.26,-3.08,-1.73,-3.09,-1.75,1.75,1.62,2.10,-1.34,-1.35,-1.35
240.64,-3.12,-1.76,-3.13,-1.77,1.77,1.62,2.09,-1.35,-1.36,-1.36
243.05,-3.16,-1.80,-3.17,-1.80,1.80,1.61,2.08,-1.37,-1.37,-1.36
245.48,-3.20,-1.83,-3.20,-1.83,1.83,1.61,2.07,-1.38,-1.37,-1.37
247.93,-3.24,-1.87,-3.22,-1.85,1.85,1.61,2.05,-1.40,-1.37,-1.37
250.41,-3.26,-1.88,-3.24,-1.87,1.87,1.61,2.03,-1.40,-1.37,-1.38
252.92,-3.26,-1.89,-3.25,-1.88,1.88,1.61,2.01,-1.38,-1.37,-1.37
255.45,-3.26,-1.90,-3.26,-1.89,1.89,1.61,1.99,-1.37,-1.37,-1.36
258.00,-3.26,-1.91,-3.26,-1.90,1.90,1.62,1.97,-1.36,-1.36,-1.36
260.58,-3.26,-1.91,-3.26,-1.91,1.91,1.63,1.94,-1.36,-1.35,-1.36
263.19,-3.25,-1.91,-3.25,-1.90,1.90,1.63,1.91,-1.35,-1.34,-1.34
265.82,-3.24,-1.90,-3.23,-1.90,1.90,1.65,1.88,-1.35,-1.33,-1.34
268.48,-3.22,-1.91,-3.21,-1.89,1.89,1.66,1.85,-1.33,-1.32,-1.32
271.16,-3.21,-1.91,-3.20,-1.88,1.88,1.68,1.81,-1.33,-1.31,-1.31
273.87,-3.17,-1.87,-3.18,-1.88,1.88,1.69,1.78,-1.30,-1.30,-1.30
276.61,-3.14,-1.86,-3.16,-1.87,1.87,1.71,1.74,-1.27,-1.29,-1.28
279.38,-3.12,-1.85,-3.14,-1.87,1.87,1.74,1.70,-1.26,-1.28,-1.28
282.17,-3.10,-1.84,-3.13,-1.86,1.86,1.76,1.66,-1.24,-1.26,-1.26
284.99,-3.08,-1.84,-3.12,-1.86,1.86,1.79,1.62,-1.22,-1.25,-1.25
287.84,-3.07,-1.83,-3.11,-1.87,1.87,1.81,1.58,-1.21,-1.24,-1.24
290.72,-3.08,-1.86,-3.10,-1.87,1.87,1.84,1.53,-1.21,-1.23,-1.23
293.63,-3.09,-1.88,-3.10,-1.88,1.88,1.87,1.49,-1.21,-1.21,-1.21
296.57,-3.10,-1.91,-3.10,-1.89,1.89,1.90,1.44,-1.21,-1.20,-1.20
299.53,-3.10,-1.91,-3.10,-1.91,1.91,1.93,1.40,-1.20,-1.19,-1.19
302.53,-3.10,-1.92,-3.10,-1.92,1.92,1.95,1.35,-1.18,-1.18,-1.19
305.55,-3.10,-1.94,-3.11,-1.94,1.94,1.98,1.31,-1.17,-1.17,-1.16
308.61,-3.10,-1.95,-3.11,-1.95,1.95,2.00,1.26,-1.15,-1.16,-1.16
311.69,-3.11,-1.96,-3.11,-1.96,1.96,2.01,1.22,-1.15,-1.15,-1.15
314.81,-3.12,-2.00,-3.11,-1.97,1.97,2.02,1.17,-1.15,-1.14,-1.13
317.96,-3.12,-2.00,-3.11,-1.97,1.97,2.03,1.13,-1.15,-1.13,-1.13
321.14,-3.11,-1.99,-3.10,-1.97,1.97,2.03,1.08,-1.14,-1.13,-1.12
324.35,-3.09,-1.97,-3.09,-1.97,1.97,2.02,1.04,-1.13,-1.12,-1.13
327.59,-3.07,-1.96,-3.07,-1.96,1.96,2.01,0.99,-1.12,-1.11,-1.11
330.87,-3.06,-1.95,-3.05,-1.94,1.94,1.98,0.95,-1.12,-1.11,-1.11
334.18,-3.03,-1.92,-3.03,-1.92,1.92,1.96,0.91,-1.11,-1.11,-1.12
337.52,-2.99,-1.88,-3.01,-1.90,1.90,1.92,0.86,-1.09,-1.11,-1.11
340.90,-2.97,-1.87,-2.98,-1.87,1.87,1.89,0.82,-1.10,-1.11,-1.10
344.30,-2.94,-1.84,-2.95,-1.84,1.84,1.84,0.78,-1.11,-1.11,-1.11
347.75,-2.91,-1.81,-2.91,-1.80,1.80,1.80,0.74,-1.11,-1.11,-1.11
351.23,-2.88,-1.77,-2.88,-1.76,1.76,1.75,0.70,-1.12,-1.11,-1.11
354.74,-2.85,-1.74,-2.84,-1.72,1.72,1.70,0.66,-1.13,-1.12,-1.11
358.28,-2.81,-1.69,-2.81,-1.69,1.69,1.66,0.62,-1.13,-1.12,-1.13
361.87,-2.76,-1.64,-2.78,-1.65,1.65,1.61,0.58,-1.12,-1.13,-1.13
365.49,-2.72,-1.59,-2.74,-1.61,1.61,1.56,0.54,-1.12,-1.13,-1.13
369.14,-2.69,-1.55,-2.71,-1.57,1.57,1.51,0.50,-1.13,-1.14,-1.14
372.83,-2.65,-1.51,-2.68,-1.53,1.53,1.47,0.46,-1.13,-1.15,-1.14
376.56,-2.62,-1.47,-2.64,-1.49,1.49,1.43,0.42,-1.14,-1.15,-1.16
380.33,-2.60,-1.45,-2.61,-1.45,1.45,1.39,0.39,-1.16,-1.16,-1.16
384.13,-2.59,-1.42,-2.58,-1.41,1.41,1.35,0.35,-1.19,-1.17,-1.17
387.97,-2.56,-1.38,-2.55,-1.37,1.37,1.32,0.31,-1.19,-1.18,-1.18
391.85,-2.53,-1.34,-2.52,-1.33,1.33,1.28,0.28,-1.20,-1.18,-1.19
395.77,-2.49,-1.31,-2.49,-1.30,1.30,1.25,0.24,-1.20,-1.19,-1.19
399.73,-2.45,-1.26,-2.46,-1.26,1.26,1.22,0.21,-1.19,-1.20,-1.20
403.72,-2.41,-1.21,-2.43,-1.23,1.23,1.20,0.17,-1.19,-1.21,-1.21
407.76,-2.38,-1.16,-2.40,-1.19,1.19,1.17,0.14,-1.20,-1.21,-1.22
411.84,-2.35,-1.14,-2.37,-1.15,1.15,1.14,0.11,-1.20,-1.22,-1.21
415.96,-2.33,-1.11,-2.33,-1.11,1.11,1.11,0.07,-1.22,-1.22,-1.22
420.12,-2.30,-1.08,-2.29,-1.07,1.07,1.08,0.04,-1.24,-1.23,-1.22
424.32,-2.26,-1.04,-2.25,-1.02,1.02,1.05,0.01,-1.24,-1.23,-1.22
428.56,-2.22,-0.99,-2.21,-0.98,0.98,1.02,-0.02,-1.24,-1.23,-1.24
432.85,-2.18,-0.95,-2.17,-0.94,0.94,0.98,-0.05,-1.25,-1.23,-1.24
437.18,-2.12,-0.89,-2.13,-0.89,0.89,0.94,-0.08,-1.23,-1.23,-1.24
441.55,-2.07,-0.85,-2.08,-0.84,0.84,0.89,-0.11,-1.23,-1.24,-1.23
445.96,-2.02,-0.79,-2.03,-0.80,0.80,0.84,-0.14,-1.23,-1.23,-1.23
450.42,-1.96,-0.72,-1.98,-0.74,0.74,0.79,-0.16,-1.22,-1.23,-1.24
454.93,-1.91,-0.68,-1.92,-0.69,0.69,0.73,-0.19,-1.23,-1.23,-1.23
459.48,-1.85,-0.62,-1.86,-0.63,0.63,0.66,-0.22,-1.22,-1.23,-1.23
464.07,-1.80,-0.58,-1.79,-0.57,0.57,0.60,-0.24,-1.23,-1.22,-1.22
468.71,-1.74,-0.53,-1.73,-0.51,0.51,0.52,-0.27,-1.24,-1.22,-1.21
473.40,-1.66,-0.45,-1.66,-0.44,0.44,0.45,-0.29,-1.22,-1.21,-1.22
478.13,-1.58,-0.38,-1.58,-0.37,0.37,0.37,-0.31,-1.21,-1.21,-1.21
482.91,-1.51,-0.31,-1.51,-0.30,0.30,0.29,-0.33,-1.21,-1.20,-1.21
487.74,-1.43,-0.24,-1.43,-0.23,0.23,0.21,-0.35,-1.20,-1.20,-1.20
492.62,-1.34,-0.16,-1.35,-0.15,0.15,0.12,-0.37,-1.19,-1.19,-1.19
497.55,-1.26,-0.08,-1.27,-0.08,0.08,0.04,-0.39,-1.19,-1.19,-1.19
502.52,-1.18,-0.00,-1.18,0.00,-0.00,-0.05,-0.40,-1.19,-1.18,-1.18
507.55,-1.09,0.09,-1.10,0.08,-0.08,-0.13,-0.42,-1.18,-1.18,-1.18
