frequency,raw,error,smoothed,error_smoothed,equalization,parametric_eq,fixed_band_eq,equalized_raw,equalized_smoothed,target
20.00,-1.75,-5.60,-1.75,-5.60,5.60,3.02,1.48,3.84,3.85,3.85
20.20,-1.67,-5.56,-1.68,-5.56,5.57,3.01,1.53,3.89,3.89,3.89
20.40,-1.60,-5.53,-1.60,-5.53,5.53,3.01,1.57,3.93,3.93,3.93
20.61,-1.53,-5.48,-1.53,-5.49,5.49,3.01,1.62,3.97,3.96,3.96
20.81,-1.45,-5.45,-1.45,-5.45,5.45,3.01,1.66,4.00,4.00,4.00
21.02,-1.37,-5.41,-1.38,-5.41,5.40,3.01,1.71,4.03,4.03,4.04
21.23,-1.30,-5.36,-1.30,-5.36,5.36,3.01,1.76,4.05,4.05,4.06
21.44,-1.22,-5.30,-1.23,-5.31,5.30,3.01,1.82,4.08,4.08,4.08
21.66,-1.16,-5.25,-1.15,-5.25,5.25,3.01,1.87,4.09,4.10,4.10
21.87,-1.07,-5.18,-1.08,-5.19,5.19,3.00,1.92,4.12,4.11,4.11
22.09,-1.00,-5.13,-1.00,-5.13,5.13,3.00,1.98,4.12,4.12,4.13
22.31,-0.92,-5.06,-0.93,-5.06,5.06,3.00,2.04,4.14,4.13,4.14
22.54,-0.86,-5.00,-0.85,-5.00,5.00,3.00,2.10,4.14,4.14,4.15
22.76,-0.77,-4.93,-0.77,-4.93,4.93,3.00,2.16,4.16,4.16,4.16
22.99,-0.69,-4.85,-0.70,-4.86,4.86,3.00,2.22,4.17,4.17,4.16
23.22,-0.62,-4.79,-0.63,-4.79,4.80,2.99,2.29,4.17,4.17,4.17
23.45,-0.55,-4.73,-0.55,-4.73,4.74,2.99,2.35,4.18,4.18,4.18
23.69,-0.49,-4.67,-0.48,-4.67,4.67,2.99,2.42,4.18,4.19,4.19
23.92,-0.40,-4.60,-0.41,-4.61,4.61,2.99,2.49,4.20,4.20,4.20
24.16,-0.33,-4.55,-0.33,-4.55,4.54,2.98,2.56,4.21,4.21,4.22
24.40,-0.26,-4.50,-0.26,-4.49,4.48,2.98,2.62,4.22,4.22,4.24
24.65,-0.19,-4.41,-0.19,-4.42,4.42,2.98,2.70,4.23,4.23,4.23
24.89,-0.11,-4.35,-0.11,-4.35,4.36,2.98,2.77,4.25,4.24,4.24
25.14,-0.04,-4.29,-0.04,-4.29,4.30,2.97,2.84,4.25,4.26,4.25
25.39,0.03,-4.23,0.03,-4.23,4.24,2.97,2.91,4.26,4.26,4.26
25.65,0.10,-4.18,0.09,-4.18,4.18,2.97,2.99,4.27,4.27,4.28
25.91,0.15,-4.12,0.16,-4.12,4.12,2.96,3.06,4.27,4.28,4.28
26.16,0.23,-4.06,0.23,-4.06,4.06,2.96,3.13,4.29,4.29,4.29
26.43,0.29,-4.00,0.29,-4.00,4.00,2.96,3.20,4.30,4.30,4.30
26.69,0.37,-3.94,0.37,-3.95,3.95,2.95,3.28,4.31,4.31,4.31
26.96,0.43,-3.89,0.43,-3.89,3.89,2.95,3.35,4.32,4.32,4.33
27.23,0.50,-3.83,0.50,-3.83,3.83,2.95,3.41,4.33,4.33,4.34
27.50,0.57,-3.77,0.57,-3.77,3.77,2.94,3.48,4.34,4.34,4.34
27.77,0.64,-3.70,0.63,-3.71,3.71,2.94,3.54,4.35,4.35,4.34
28.05,0.70,-3.66,0.70,-3.65,3.65,2.93,3.61,4.35,4.35,4.36
28.33,0.77,-3.59,0.76,-3.60,3.59,2.93,3.67,4.36,4.36,4.36
28.62,0.82,-3.54,0.83,-3.54,3.54,2.92,3.72,4.36,4.37,4.37
28.90,0.90,-3.48,0.89,-3.48,3.48,2.91,3.77,4.38,4.37,4.38
29.19,0.96,-3.42,0.96,-3.43,3.43,2.91,3.82,4.38,4.38,4.38
29.48,1.02,-3.39,1.02,-3.38,3.38,2.90,3.86,4.40,4.40,4.41
29.78,1.07,-3.32,1.07,-3.33,3.33,2.89,3.90,4.41,4.41,4.40
30.08,1.12,-3.28,1.12,-3.29,3.29,2.89,3.93,4.42,4.41,4.41
30.38,1.16,-3.24,1.16,-3.25,3.25,2.88,3.96,4.42,4.42,4.41
30.68,1.20,-3.23,1.20,-3.22,3.22,2.87,3.98,4.42,4.42,4.43
30.99,1.24,-3.19,1.23,-3.19,3.19,2.86,4.00,4.42,4.42,4.43
31.30,1.27,-3.16,1.27,-3.17,3.16,2.85,4.01,4.43,4.43,4.43
31.61,1.31,-3.13,1.30,-3.13,3.13,2.84,4.02,4.44,4.44,4.44
31.93,1.34,-3.11,1.34,-3.11,3.11,2.83,4.01,4.44,4.45,4.45
32.24,1.38,-3.07,1.37,-3.08,3.08,2.82,4.01,4.46,4.45,4.45
32.57,1.41,-3.06,1.41,-3.05,3.05,2.81,3.99,4.46,4.46,4.47
32.89,1.45,-3.02,1.45,-3.02,3.02,2.80,3.98,4.47,4.47,4.47
33.22,1.49,-2.99,1.49,-2.99,2.99,2.79,3.96,4.48,4.48,4.48
33.55,1.53,-2.96,1.53,-2.96,2.96,2.77,3.93,4.48,4.49,4.49
33.89,1.58,-2.92,1.57,-2.92,2.92,2.76,3.90,4.50,4.49,4.50
34.23,1.62,-2.88,1.62,-2.88,2.88,2.74,3.87,4.50,4.50,4.50
34.57,1.67,-2.84,1.67,-2.84,2.84,2.73,3.83,4.51,4.51,4.51
34.92,1.71,-2.79,1.71,-2.80,2.80,2.71,3.79,4.51,4.51,4.51
35.27,1.76,-2.75,1.76,-2.75,2.75,2.69,3.74,4.51,4.51,4.52
35.62,1.82,-2.70,1.82,-2.70,2.70,2.67,3.70,4.51,4.52,4.52
35.97,1.88,-2.64,1.88,-2.65,2.64,2.65,3.65,4.52,4.52,4.52
36.33,1.94,-2.59,1.93,-2.59,2.59,2.63,3.60,4.52,4.52,4.53
36.70,2.00,-2.52,2.00,-2.53,2.53,2.61,3.55,4.52,4.52,4.52
37.06,2.06,-2.47,2.06,-2.47,2.46,2.58,3.49,4.52,4.52,4.53
37.43,2.13,-2.40,2.13,-2.40,2.40,2.56,3.44,4.53,4.53,4.53
37.81,2.20,-2.33,2.19,-2.34,2.34,2.53,3.39,4.53,4.53,4.53
38.19,2.26,-2.27,2.26,-2.27,2.27,2.50,3.34,4.53,4.53,4.53
38.57,2.32,-2.20,2.31,-2.21,2.21,2.47,3.29,4.53,4.52,4.52
38.95,2.37,-2.15,2.37,-2.14,2.15,2.44,3.23,4.52,4.52,4.52
39.34,2.43,-2.08,2.42,-2.09,2.09,2.40,3.18,4.52,4.51,4.51
39.74,2.48,-2.03,2.47,-2.03,2.03,2.37,3.14,4.51,4.51,4.51
40.14,2.52,-1.98,2.53,-1.98,1.98,2.33,3.09,4.50,4.50,4.51
40.54,2.58,-1.93,2.58,-1.93,1.93,2.29,3.04,4.50,4.50,4.51
40.94,2.63,-1.87,2.63,-1.88,1.87,2.25,3.00,4.50,4.50,4.50
41.35,2.68,-1.82,2.67,-1.82,1.83,2.20,2.95,4.50,4.50,4.50
41.76,2.72,-1.78,2.72,-1.78,1.78,2.16,2.91,4.50,4.50,4.50
42.18,2.77,-1.73,2.76,-1.73,1.73,2.11,2.87,4.50,4.50,4.50
42.60,2.81,-1.69,2.81,-1.69,1.69,2.06,2.83,4.49,4.49,4.50
43.03,2.85,-1.65,2.84,-1.65,1.65,2.02,2.80,4.49,4.49,4.50
43.46,2.88,-1.62,2.88,-1.61,1.61,1.97,2.77,4.48,4.49,4.50
43.90,2.91,-1.57,2.91,-1.58,1.58,1.92,2.73,4.48,4.48,4.48
44.33,2.94,-1.54,2.93,-1.54,1.55,1.87,2.70,4.48,4.48,4.48
44.78,2.96,-1.51,2.95,-1.52,1.52,1.82,2.68,4.48,4.48,4.47
45.23,2.97,-1.50,2.96,-1.50,1.51,1.78,2.65,4.47,4.47,4.47
45.68,2.97,-1.50,2.97,-1.50,1.50,1.74,2.63,4.47,4.47,4.47
46.13,2.97,-1.49,2.97,-1.50,1.50,1.70,2.61,4.46,4.46,4.46
46.60,2.96,-1.51,2.96,-1.50,1.50,1.66,2.59,4.46,4.46,4.47
47.06,2.95,-1.51,2.94,-1.52,1.52,1.63,2.57,4.46,4.46,4.46
47.53,2.92,-1.53,2.92,-1.54,1.53,1.61,2.56,4.45,4.45,4.45
48.01,2.90,-1.56,2.89,-1.56,1.55,1.59,2.54,4.45,4.45,4.46
48.49,2.86,-1.58,2.86,-1.58,1.58,1.58,2.53,4.43,4.44,4.44
48.97,2.82,-1.60,2.82,-1.60,1.61,1.58,2.52,4.42,4.42,4.42
49.46,2.78,-1.63,2.77,-1.63,1.64,1.58,2.51,4.41,4.41,4.41
49.96,2.73,-1.66,2.73,-1.67,1.67,1.59,2.51,4.39,4.39,4.39
50.46,2.68,-1.71,2.67,-1.71,1.70,1.61,2.50,4.38,4.38,4.39
50.96,2.62,-1.75,2.62,-1.74,1.74,1.64,2.50,4.36,4.36,4.37
51.47,2.57,-1.77,2.57,-1.78,1.78,1.67,2.50,4.35,4.35,4.34
51.99,2.52,-1.81,2.51,-1.81,1.82,1.70,2.49,4.34,4.34,4.33
52.51,2.46,-1.86,2.46,-1.86,1.86,1.74,2.49,4.32,4.32,4.32
53.03,2.40,-1.90,2.39,-1.91,1.91,1.78,2.49,4.30,4.30,4.30
53.56,2.33,-1.96,2.33,-1.95,1.95,1.83,2.50,4.27,4.28,4.29
54.10,2.27,-1.99,2.27,-2.00,1.98,1.87,2.50,4.25,4.25,4.26
54.64,2.22,-2.03,2.21,-2.03,2.02,1.92,2.50,4.24,4.23,4.25
55.18,2.16,-2.06,2.16,-2.06,2.06,1.97,2.50,4.21,4.22,4.22
55.74,2.11,-2.08,2.11,-2.09,2.09,2.02,2.50,4.20,4.20,4.19
56.29,2.06,-2.13,2.05,-2.12,2.13,2.06,2.51,4.18,4.18,4.19
56.86,2.00,-2.16,2.00,-2.16,2.17,2.11,2.51,4.16,4.16,4.16
57.42,1.94,-2.19,1.94,-2.20,2.20,2.15,2.51,4.14,4.14,4.13
58.00,1.88,-2.23,1.87,-2.23,2.24,2.20,2.51,4.12,4.12,4.11
58.58,1.82,-2.27,1.81,-2.28,2.28,2.24,2.51,4.10,4.09,4.09
59.16,1.75,-2.32,1.75,-2.32,2.32,2.28,2.51,4.06,4.07,4.07
59.76,1.69,-2.36,1.68,-2.36,2.35,2.31,2.51,4.04,4.04,4.05
60.35,1.63,-2.39,1.62,-2.39,2.38,2.35,2.50,4.01,4.01,4.02
60.96,1.57,-2.42,1.57,-2.41,2.41,2.38,2.50,3.97,3.98,3.99
61.57,1.52,-2.42,1.51,-2.43,2.43,2.41,2.50,3.94,3.94,3.94
62.18,1.47,-2.43,1.46,-2.44,2.44,2.44,2.49,3.91,3.90,3.90
62.80,1.42,-2.46,1.42,-2.45,2.45,2.47,2.48,3.86,3.86,3.88
63.43,1.38,-2.45,1.38,-2.45,2.45,2.50,2.47,3.82,3.83,3.83
64.07,1.35,-2.44,1.34,-2.45,2.45,2.52,2.46,3.79,3.79,3.79
64.71,1.32,-2.44,1.31,-2.44,2.44,2.54,2.45,3.76,3.76,3.76
65.35,1.29,-2.43,1.29,-2.43,2.44,2.57,2.43,3.72,3.72,3.72
66.01,1.26,-2.42,1.26,-2.43,2.43,2.59,2.42,3.69,3.69,3.68
66.67,1.23,-2.42,1.23,-2.42,2.42,2.60,2.40,3.65,3.65,3.65
67.33,1.20,-2.41,1.20,-2.41,2.41,2.62,2.39,3.61,3.61,3.61
68.01,1.17,-2.40,1.16,-2.40,2.40,2.64,2.37,3.57,3.56,3.57
68.69,1.14,-2.39,1.14,-2.39,2.39,2.65,2.35,3.52,3.52,3.53
69.37,1.11,-2.38,1.11,-2.38,2.37,2.66,2.33,3.48,3.48,3.49
70.07,1.09,-2.36,1.09,-2.36,2.36,2.67,2.31,3.45,3.45,3.45
70.77,1.07,-2.34,1.07,-2.34,2.35,2.69,2.29,3.41,3.41,3.41
71.48,1.05,-2.33,1.04,-2.33,2.33,2.70,2.27,3.38,3.37,3.38
72.19,1.02,-2.31,1.02,-2.32,2.32,2.71,2.25,3.33,3.33,3.33
72.91,0.99,-2.31,0.99,-2.31,2.31,2.71,2.23,3.29,3.29,3.30
73.64,0.96,-2.30,0.96,-2.30,2.30,2.72,2.21,3.26,3.26,3.26
74.38,0.93,-2.30,0.93,-2.30,2.30,2.73,2.19,3.22,3.23,3.23
75.12,0.90,-2.29,0.89,-2.30,2.30,2.73,2.17,3.20,3.20,3.19
75.87,0.86,-2.30,0.85,-2.31,2.31,2.74,2.15,3.17,3.16,3.16
76.63,0.81,-2.32,0.80,-2.32,2.33,2.75,2.13,3.13,3.13,3.13
77.40,0.75,-2.35,0.75,-2.35,2.35,2.75,2.11,3.09,3.10,3.10
78.17,0.70,-2.37,0.69,-2.37,2.37,2.75,2.10,3.07,3.07,3.07
78.95,0.64,-2.40,0.64,-2.41,2.41,2.76,2.08,3.04,3.04,3.04
79.74,0.58,-2.44,0.58,-2.44,2.44,2.76,2.07,3.02,3.02,3.02
80.54,0.52,-2.48,0.51,-2.48,2.48,2.77,2.06,3.00,2.99,3.00
81.35,0.45,-2.52,0.45,-2.52,2.52,2.77,2.04,2.97,2.97,2.97
82.16,0.38,-2.56,0.38,-2.57,2.57,2.77,2.03,2.94,2.94,2.94
82.98,0.31,-2.62,0.31,-2.61,2.61,2.78,2.03,2.91,2.92,2.93
83.81,0.25,-2.65,0.24,-2.65,2.65,2.78,2.02,2.90,2.90,2.90
84.65,0.19,-2.68,0.18,-2.69,2.70,2.78,2.01,2.88,2.88,2.87
85.50,0.13,-2.73,0.12,-2.73,2.73,2.78,2.01,2.86,2.86,2.86
86.35,0.07,-2.77,0.06,-2.77,2.77,2.79,2.00,2.83,2.83,2.84
87.22,0.01,-2.81,0.01,-2.81,2.80,2.79,2.00,2.80,2.81,2.82
88.09,-0.03,-2.83,-0.03,-2.83,2.82,2.79,2.00,2.79,2.79,2.80
88.97,-0.06,-2.84,-0.07,-2.85,2.84,2.80,2.00,2.78,2.77,2.78
89.86,-0.09,-2.86,-0.10,-2.86,2.86,2.80,2.01,2.76,2.76,2.77
90.76,-0.12,-2.86,-0.13,-2.86,2.87,2.81,2.01,2.74,2.74,2.74
91.66,-0.15,-2.87,-0.15,-2.87,2.88,2.81,2.02,2.72,2.72,2.72
92.58,-0.18,-2.88,-0.18,-2.88,2.88,2.82,2.02,2.70,2.70,2.70
93.51,-0.20,-2.89,-0.20,-2.89,2.89,2.82,2.03,2.68,2.68,2.69
94.44,-0.22,-2.89,-0.23,-2.90,2.89,2.83,2.04,2.67,2.66,2.67
95.39,-0.26,-2.91,-0.26,-2.91,2.91,2.83,2.05,2.64,2.65,2.65
96.34,-0.29,-2.91,-0.29,-2.91,2.92,2.84,2.07,2.63,2.63,2.62
97.30,-0.33,-2.92,-0.33,-2.92,2.94,2.85,2.08,2.60,2.60,2.59
98.28,-0.37,-2.93,-0.38,-2.94,2.95,2.86,2.10,2.58,2.57,2.56
99.26,-0.43,-2.97,-0.43,-2.97,2.97,2.86,2.11,2.54,2.54,2.54
100.25,-0.49,-3.00,-0.49,-3.00,2.99,2.87,2.13,2.49,2.50,2.51
101.25,-0.54,-3.02,-0.54,-3.02,3.00,2.88,2.15,2.46,2.46,2.48
102.27,-0.59,-3.03,-0.59,-3.03,3.02,2.89,2.17,2.42,2.43,2.44
103.29,-0.61,-3.02,-0.62,-3.03,3.03,2.89,2.19,2.41,2.41,2.41
104.32,-0.65,-3.03,-0.66,-3.03,3.04,2.90,2.21,2.38,2.38,2.38
105.37,-0.69,-3.03,-0.70,-3.03,3.04,2.91,2.23,2.34,2.34,2.34
106.42,-0.74,-3.03,-0.74,-3.04,3.04,2.91,2.25,2.29,2.30,2.29
107.48,-0.78,-3.04,-0.78,-3.03,3.03,2.91,2.27,2.25,2.25,2.26
108.56,-0.82,-3.02,-0.83,-3.03,3.03,2.92,2.29,2.20,2.20,2.20
109.64,-0.86,-3.01,-0.86,-3.02,3.02,2.92,2.31,2.15,2.15,2.15
110.74,-0.90,-3.00,-0.91,-3.00,3.00,2.91,2.33,2.10,2.10,2.10
111.85,-0.94,-2.99,-0.95,-2.99,2.98,2.91,2.34,2.04,2.04,2.05
112.97,-0.99,-2.97,-0.99,-2.97,2.96,2.90,2.36,1.97,1.97,1.98
114.10,-1.01,-2.94,-1.02,-2.94,2.93,2.90,2.38,1.92,1.92,1.93
115.24,-1.04,-2.91,-1.04,-2.90,2.91,2.88,2.39,1.86,1.87,1.87
116.39,-1.05,-2.85,-1.06,-2.86,2.87,2.87,2.41,1.82,1.81,1.80
117.55,-1.08,-2.82,-1.09,-2.82,2.84,2.85,2.42,1.75,1.75,1.74
118.73,-1.11,-2.79,-1.11,-2.79,2.80,2.83,2.43,1.69,1.69,1.68
119.92,-1.14,-2.77,-1.14,-2.77,2.76,2.81,2.44,1.61,1.61,1.63
121.12,-1.16,-2.73,-1.16,-2.73,2.71,2.78,2.45,1.55,1.55,1.57
122.33,-1.16,-2.68,-1.16,-2.68,2.66,2.76,2.45,1.50,1.50,1.52
123.55,-1.15,-2.62,-1.16,-2.62,2.62,2.73,2.45,1.46,1.46,1.47
124.79,-1.14,-2.56,-1.15,-2.57,2.57,2.69,2.45,1.42,1.42,1.42
126.03,-1.14,-2.51,-1.14,-2.51,2.52,2.66,2.45,1.38,1.38,1.37
127.29,-1.15,-2.47,-1.15,-2.47,2.48,2.63,2.45,1.33,1.33,1.32
128.57,-1.16,-2.42,-1.17,-2.43,2.44,2.59,2.44,1.28,1.27,1.26
129.85,-1.19,-2.41,-1.19,-2.41,2.41,2.55,2.43,1.22,1.22,1.22
131.15,-1.22,-2.39,-1.22,-2.39,2.39,2.52,2.42,1.17,1.17,1.17
132.46,-1.24,-2.37,-1.25,-2.38,2.38,2.48,2.41,1.13,1.13,1.13
133.79,-1.27,-2.36,-1.28,-2.37,2.37,2.44,2.40,1.09,1.09,1.09
135.12,-1.32,-2.37,-1.31,-2.36,2.36,2.40,2.38,1.03,1.05,1.05
136.48,-1.34,-2.35,-1.35,-2.36,2.35,2.37,2.36,1.01,1.00,1.01
137.84,-1.38,-2.35,-1.38,-2.35,2.34,2.33,2.34,0.96,0.96,0.97
139.22,-1.41,-2.33,-1.41,-2.33,2.33,2.29,2.32,0.92,0.92,0.92
140.61,-1.43,-2.31,-1.44,-2.33,2.32,2.26,2.30,0.88,0.88,0.88
142.02,-1.46,-2.32,-1.46,-2.31,2.30,2.22,2.28,0.84,0.84,0.86
143.44,-1.47,-2.29,-1.47,-2.29,2.28,2.19,2.26,0.81,0.81,0.82
144.87,-1.47,-2.25,-1.48,-2.26,2.26,2.16,2.24,0.78,0.78,0.78
146.32,-1.48,-2.22,-1.48,-2.23,2.23,2.13,2.21,0.75,0.75,0.74
147.78,-1.49,-2.20,-1.49,-2.20,2.21,2.09,2.19,0.71,0.71,0.71
149.26,-1.50,-2.18,-1.51,-2.17,2.18,2.06,2.17,0.68,0.67,0.68
150.75,-1.52,-2.14,-1.52,-2.15,2.15,2.03,2.14,0.63,0.63,0.62
152.26,-1.53,-2.11,-1.54,-2.12,2.12,2.00,2.12,0.58,0.58,0.58
153.78,-1.55,-2.10,-1.55,-2.09,2.08,1.97,2.10,0.53,0.53,0.55
155.32,-1.56,-2.05,-1.56,-2.06,2.05,1.95,2.08,0.48,0.49,0.49
156.88,-1.56,-2.02,-1.57,-2.02,2.01,1.92,2.06,0.44,0.44,0.46
158.44,-1.56,-1.97,-1.56,-1.97,1.96,1.89,2.04,0.40,0.40,0.41
160.03,-1.55,-1.91,-1.56,-1.92,1.92,1.87,2.02,0.37,0.36,0.36
161.63,-1.55,-1.86,-1.55,-1.87,1.88,1.84,2.01,0.32,0.32,0.31
163.24,-1.55,-1.82,-1.55,-1.82,1.83,1.81,1.99,0.28,0.28,0.27
164.88,-1.55,-1.78,-1.56,-1.78,1.79,1.79,1.98,0.23,0.23,0.23
166.53,-1.56,-1.74,-1.57,-1.74,1.74,1.76,1.96,0.18,0.18,0.18
168.19,-1.57,-1.70,-1.58,-1.71,1.70,1.73,1.95,0.12,0.12,0.13
169.87,-1.59,-1.67,-1.59,-1.67,1.66,1.71,1.94,0.06,0.07,0.08
171.57,-1.59,-1.63,-1.60,-1.63,1.62,1.68,1.93,0.02,0.02,0.04
173.29,-1.60,-1.58,-1.60,-1.58,1.59,1.65,1.93,-0.02,-0.02,-0.02
175.02,-1.61,-1.54,-1.62,-1.55,1.56,1.63,1.92,-0.06,-0.06,-0.07
176.77,-1.64,-1.51,-1.65,-1.51,1.53,1.60,1.92,-0.11,-0.11,-0.13
178.54,-1.68,-1.50,-1.68,-1.50,1.51,1.57,1.91,-0.17,-0.17,-0.18
180.32,-1.72,-1.48,-1.73,-1.49,1.49,1.54,1.91,-0.23,-0.23,-0.24
182.13,-1.77,-1.48,-1.78,-1.49,1.48,1.52,1.91,-0.30,-0.31,-0.29
183.95,-1.84,-1.49,-1.83,-1.48,1.47,1.49,1.91,-0.38,-0.37,-0.35
185.79,-1.88,-1.48,-1.88,-1.47,1.45,1.46,1.92,-0.43,-0.42,-0.40
187.65,-1.90,-1.43,-1.91,-1.44,1.44,1.44,1.92,-0.47,-0.47,-0.47
189.52,-1.93,-1.41,-1.94,-1.42,1.42,1.42,1.93,-0.51,-0.52,-0.52
191.42,-1.97,-1.40,-1.97,-1.40,1.41,1.40,1.93,-0.57,-0.57,-0.57
193.33,-2.01,-1.39,-2.01,-1.39,1.39,1.38,1.94,-0.63,-0.62,-0.62
195.27,-2.05,-1.38,-2.05,-1.37,1.37,1.37,1.95,-0.68,-0.68,-0.67
197.22,-2.08,-1.35,-2.09,-1.36,1.36,1.36,1.96,-0.72,-0.72,-0.73
199.19,-2.12,-1.34,-2.13,-1.35,1.36,1.36,1.97,-0.77,-0.77,-0.78
201.18,-2.17,-1.34,-2.17,-1.34,1.35,1.36,1.98,-0.82,-0.82,-0.83
203.19,-2.22,-1.36,-2.22,-1.35,1.35,1.37,2.00,-0.88,-0.88,-0.86
205.23,-2.27,-1.35,-2.27,-1.36,1.35,1.38,2.01,-0.92,-0.92,-0.92
207.28,-2.32,-1.38,-2.32,-1.37,1.36,1.39,2.02,-0.97,-0.96,-0.94
209.35,-2.36,-1.36,-2.37,-1.36,1.37,1.41,2.04,-1.00,-1.00,-1.00
211.44,-2.41,-1.36,-2.42,-1.37,1.38,1.43,2.05,-1.03,-1.03,-1.05
213.56,-2.47,-1.38,-2.48,-1.39,1.40,1.45,2.06,-1.07,-1.07,-1.09
215.69,-2.54,-1.43,-2.54,-1.42,1.43,1.48,2.08,-1.12,-1.12,-1.11
217.85,-2.61,-1.46,-2.61,-1.46,1.45,1.50,2.09,-1.16,-1.16,-1.15
220.03,-2.67,-1.48,-2.68,-1.49,1.48,1.53,2.10,-1.19,-1.19,-1.19
222.23,-2.73,-1.51,-2.74,-1.52,1.51,1.56,2.11,-1.22,-1.23,-1.22
224.45,-2.79,-1.55,-2.80,-1.55,1.54,1.58,2.13,-1.25,-1.25,-1.24
226.70,-2.85,-1.58,-2.85,-1.58,1.57,1.61,2.13,-1.28,-1.28,-1.27
228.96,-2.90,-1.60,-2.90,-1.60,1.60,1.63,2.14,-1.30,-1.30,-1.30
231.25,-2.94,-1.63,-2.95,-1.63,1.63,1.66,2.15,-1.31,-1.31,-1.31
233.57,-2.98,-1.65,-2.99,-1.66,1.67,1.68,2.15,-1.32,-1.33,-1.33
235.90,-3.04,-1.70,-3.04,-1.69,1.70,1.70,2.15,-1.34,-1.34,-1.34
238.26,-3.08,-1.73,-3.08,-1.73,1.73,1.72,2.15,-1.35,-1.35,-1.35
240.64,-3.12,-1.76,-3.13,-1.77,1.77,1.74,2.15,-1.36,-1.36,-1.36
243.05,-3.16,-1.80,-3.17,-1.80,1.80,1.76,2.14,-1.36,-1.37,-1.36
245.48,-3.20,-1.83,-3.21,-1.84,1.83,1.78,2.13,-1.37,-1.37,-1.37
247.93,-3.24,-1.87,-3.24,-1.87,1.86,1.79,2.12,-1.39,-1.38,-1.37
250.41,-3.26,-1.89,-3.26,-1.89,1.88,1.81,2.11,-1.38,-1.38,-1.37
252.92,-3.26,-1.90,-3.27,-1.91,1.90,1.82,2.09,-1.36,-1.37,-1.36
255.45,-3.26,-1.91,-3.27,-1.91,1.91,1.84,2.07,-1.35,-1.35,-1.35
258.00,-3.26,-1.92,-3.26,-1.92,1.92,1.85,2.05,-1.34,-1.34,-1.34
260.58,-3.26,-1.92,-3.26,-1.92,1.93,1.86,2.03,-1.34,-1.34,-1.34
263.19,-3.25,-1.92,-3.25,-1.92,1.93,1.87,2.00,-1.33,-1.33,-1.33
265.82,-3.24,-1.92,-3.24,-1.93,1.92,1.88,1.97,-1.32,-1.32,-1.32
268.48,-3.22,-1.92,-3.23,-1.92,1.92,1.89,1.94,-1.31,-1.31,-1.30
271.16,-3.21,-1.93,-3.20,-1.92,1.91,1.89,1.90,-1.31,-1.30,-1.28
273.87,-3.17,-1.89,-3.18,-1.90,1.90,1.90,1.86,-1.28,-1.28,-1.28
276.61,-3.14,-1.89,-3.15,-1.89,1.89,1.91,1.83,-1.26,-1.26,-1.25
279.38,-3.12,-1.87,-3.12,-1.87,1.88,1.91,1.78,-1.24,-1.24,-1.25
282.17,-3.10,-1.87,-3.10,-1.87,1.88,1.92,1.74,-1.23,-1.22,-1.23
284.99,-3.08,-1.86,-3.09,-1.86,1.88,1.92,1.70,-1.21,-1.21,-1.22
287.84,-3.07,-1.86,-3.08,-1.87,1.88,1.92,1.65,-1.19,-1.20,-1.21
290.72,-3.08,-1.88,-3.08,-1.89,1.89,1.92,1.61,-1.19,-1.19,-1.20
293.63,-3.09,-1.91,-3.09,-1.91,1.90,1.92,1.56,-1.19,-1.19,-1.18
296.57,-3.10,-1.94,-3.10,-1.93,1.92,1.92,1.51,-1.19,-1.18,-1.16
299.53,-3.10,-1.94,-3.10,-1.95,1.94,1.92,1.46,-1.17,-1.17,-1.16
302.53,-3.10,-1.95,-3.10,-1.96,1.96,1.92,1.42,-1.14,-1.14,-1.15
305.55,-3.10,-1.97,-3.10,-1.97,1.98,1.92,1.37,-1.12,-1.12,-1.13
308.61,-3.10,-1.98,-3.11,-1.99,2.00,1.92,1.32,-1.11,-1.11,-1.12
311.69,-3.11,-2.00,-3.12,-2.01,2.01,1.91,1.27,-1.11,-1.11,-1.11
314.81,-3.12,-2.04,-3.12,-2.03,2.02,1.91,1.22,-1.11,-1.10,-1.08
317.96,-3.12,-2.03,-3.12,-2.04,2.02,1.90,1.17,-1.10,-1.10,-1.09
321.14,-3.11,-2.03,-3.11,-2.03,2.02,1.89,1.12,-1.09,-1.09,-1.08
324.35,-3.09,-2.01,-3.10,-2.02,2.02,1.89,1.07,-1.08,-1.08,-1.08
327.59,-3.07,-2.00,-3.08,-2.00,2.00,1.88,1.02,-1.07,-1.08,-1.07
330.87,-3.06,-1.99,-3.06,-1.98,1.99,1.87,0.98,-1.08,-1.07,-1.07
334.18,-3.03,-1.96,-3.03,-1.96,1.97,1.86,0.93,-1.07,-1.07,-1.07
337.52,-2.99,-1.93,-3.00,-1.94,1.94,1.85,0.88,-1.05,-1.06,-1.06
340.90,-2.97,-1.91,-2.97,-1.91,1.91,1.83,0.83,-1.06,-1.06,-1.06
344.30,-2.94,-1.88,-2.94,-1.88,1.88,1.82,0.79,-1.06,-1.06,-1.06
347.75,-2.91,-1.85,-2.92,-1.86,1.85,1.80,0.74,-1.06,-1.07,-1.06
351.23,-2.88,-1.82,-2.89,-1.82,1.81,1.79,0.70,-1.07,-1.07,-1.06
354.74,-2.85,-1.79,-2.85,-1.78,1.77,1.77,0.65,-1.08,-1.08,-1.06
358.28,-2.81,-1.73,-2.81,-1.74,1.73,1.75,0.61,-1.08,-1.08,-1.08
361.87,-2.76,-1.68,-2.77,-1.69,1.69,1.73,0.57,-1.07,-1.08,-1.08
365.49,-2.72,-1.64,-2.73,-1.64,1.65,1.71,0.52,-1.08,-1.08,-1.08
369.14,-2.69,-1.60,-2.69,-1.60,1.61,1.69,0.48,-1.09,-1.08,-1.09
372.83,-2.65,-1.56,-2.66,-1.56,1.57,1.67,0.44,-1.09,-1.09,-1.09
376.56,-2.62,-1.52,-2.63,-1.53,1.53,1.64,0.40,-1.09,-1.10,-1.10
380.33,-2.60,-1.49,-2.61,-1.50,1.50,1.62,0.35,-1.11,-1.11,-1.11
384.13,-2.59,-1.47,-2.59,-1.46,1.46,1.59,0.31,-1.13,-1.13,-1.12
387.97,-2.56,-1.43,-2.56,-1.43,1.42,1.56,0.27,-1.14,-1.14,-1.13
391.85,-2.53,-1.39,-2.53,-1.40,1.39,1.53,0.23,-1.15,-1.15,-1.14
395.77,-2.49,-1.36,-2.49,-1.35,1.35,1.50,0.20,-1.14,-1.14,-1.13
399.73,-2.45,-1.31,-2.45,-1.31,1.31,1.47,0.16,-1.14,-1.14,-1.14
403.72,-2.41,-1.26,-2.42,-1.27,1.28,1.43,0.12,-1.14,-1.14,-1.15
407.76,-2.38,-1.22,-2.38,-1.23,1.24,1.40,0.08,-1.15,-1.15,-1.16
411.84,-2.35,-1.20,-2.36,-1.19,1.20,1.36,0.05,-1.15,-1.16,-1.15
415.96,-2.33,-1.16,-2.33,-1.17,1.16,1.32,0.01,-1.17,-1.17,-1.17
420.12,-2.30,-1.13,-2.30,-1.13,1.12,1.28,-0.03,-1.18,-1.18,-1.17
424.32,-2.26,-1.09,-2.27,-1.09,1.08,1.24,-0.06,-1.18,-1.18,-1.17
428.56,-2.22,-1.04,-2.23,-1.05,1.04,1.19,-0.10,-1.18,-1.18,-1.18
432.85,-2.18,-1.00,-2.18,-1.00,1.00,1.15,-0.13,-1.19,-1.18,-1.18
437.18,-2.12,-0.94,-2.13,-0.95,0.95,1.10,-0.16,-1.18,-1.18,-1.18
441.55,-2.07,-0.90,-2.08,-0.90,0.90,1.05,-0.19,-1.17,-1.18,-1.17
445.96,-2.02,-0.85,-2.02,-0.85,0.85,1.00,-0.23,-1.17,-1.17,-1.17
450.42,-1.96,-0.78,-1.97,-0.79,0.80,0.95,-0.26,-1.17,-1.17,-1.18
454.93,-1.91,-0.74,-1.91,-0.74,0.74,0.89,-0.28,-1.17,-1.17,-1.17
459.48,-1.85,-0.68,-1.86,-0.69,0.69,0.84,-0.31,-1.17,-1.17,-1.17
464.07,-1.80,-0.64,-1.80,-0.64,0.63,0.78,-0.34,-1.17,-1.17,-1.16
468.71,-1.74,-0.59,-1.74,-0.58,0.57,0.72,-0.37,-1.18,-1.17,-1.15
473.40,-1.66,-0.50,-1.67,-0.51,0.51,0.65,-0.39,-1.16,-1.16,-1.16
478.13,-1.58,-0.43,-1.59,-0.44,0.44,0.59,-0.41,-1.15,-1.15,-1.15
482.91,-1.51,-0.36,-1.51,-0.36,0.37,0.52,-0.44,-1.15,-1.14,-1.15
487.74,-1.43,-0.29,-1.43,-0.29,0.29,0.45,-0.46,-1.14,-1.14,-1.14
492.62,-1.34,-0.21,-1.35,-0.21,0.21,0.38,-0.48,-1.13,-1.14,-1.13
497.55,-1.26,-0.13,-1.27,-0.14,0.13,0.31,-0.50,-1.13,-1.13,-1.13
502.52,-1.18,-0.06,-1.18,-0.05,0.05,0.23,-0.52,-1.13,-1.13,-1.12
507.55,-1.09,0.03,-1.09,0.03,-0.03,0.15,-0.53,-1.12,-1.12,-1.12
