frequency,raw,error,smoothed,error_smoothed,equalization,parametric_eq,fixed_band_eq,equalized_raw,equalized_smoothed,target
20.00,-4.17,-8.41,-4.17,-8.43,8.43,6.68,2.66,4.26,4.26,4.24
20.20,-4.09,-8.37,-4.09,-8.38,8.38,6.84,2.73,4.29,4.29,4.28
20.40,-4.01,-8.33,-4.01,-8.33,8.33,7.00,2.81,4.32,4.32,4.32
20.61,-3.93,-8.28,-3.93,-8.28,8.28,7.16,2.89,4.35,4.35,4.35
20.81,-3.84,-8.23,-3.85,-8.22,8.22,7.30,2.97,4.39,4.38,4.39
21.02,-3.76,-8.19,-3.76,-8.17,8.17,7.44,3.06,4.41,4.41,4.43
21.23,-3.68,-8.13,-3.68,-8.11,8.11,7.56,3.15,4.43,4.43,4.45
21.44,-3.60,-8.07,-3.60,-8.05,8.05,7.67,3.24,4.45,4.45,4.47
21.66,-3.51,-8.00,-3.51,-7.99,7.99,7.76,3.33,4.48,4.47,4.49
21.87,-3.43,-7.93,-3.43,-7.92,7.92,7.83,3.42,4.49,4.49,4.50
22.09,-3.34,-7.86,-3.34,-7.86,7.86,7.89,3.52,4.52,4.51,4.52
22.31,-3.26,-7.79,-3.26,-7.79,7.79,7.93,3.62,4.53,4.53,4.53
22.54,-3.17,-7.71,-3.17,-7.71,7.71,7.94,3.72,4.54,4.54,4.54
22.76,-3.09,-7.64,-3.09,-7.64,7.64,7.94,3.83,4.55,4.55,4.55
22.99,-3.00,-7.55,-3.00,-7.56,7.56,7.91,3.93,4.56,4.56,4.55
23.22,-2.92,-7.48,-2.91,-7.48,7.48,7.86,4.04,4.56,4.57,4.56
23.45,-2.83,-7.40,-2.83,-7.40,7.40,7.79,4.16,4.57,4.58,4.57
23.69,-2.74,-7.32,-2.74,-7.32,7.32,7.71,4.27,4.58,4.59,4.58
23.92,-2.65,-7.24,-2.65,-7.25,7.25,7.60,4.39,4.60,4.59,4.59
24.16,-2.56,-7.17,-2.56,-7.16,7.16,7.49,4.51,4.61,4.60,4.61
24.40,-2.47,-7.10,-2.47,-7.08,7.08,7.35,4.63,4.62,4.61,4.63
24.65,-2.38,-7.00,-2.38,-7.00,7.00,7.21,4.75,4.62,4.62,4.62
24.89,-2.29,-6.92,-2.29,-6.92,6.92,7.06,4.87,4.63,4.63,4.63
25.14,-2.20,-6.84,-2.20,-6.84,6.84,6.90,5.00,4.64,4.64,4.64
25.39,-2.11,-6.76,-2.11,-6.76,6.76,6.73,5.12,4.65,4.65,4.65
25.65,-2.01,-6.68,-2.01,-6.68,6.68,6.56,5.25,4.67,4.66,4.67
25.91,-1.92,-6.59,-1.92,-6.59,6.59,6.38,5.37,4.67,4.67,4.67
26.16,-1.83,-6.51,-1.82,-6.51,6.51,6.20,5.50,4.68,4.68,4.68
26.43,-1.73,-6.42,-1.73,-6.42,6.42,6.02,5.62,4.69,4.69,4.69
26.69,-1.63,-6.33,-1.63,-6.34,6.34,5.85,5.74,4.71,4.70,4.70
26.96,-1.54,-6.26,-1.54,-6.25,6.25,5.67,5.86,4.71,4.71,4.72
27.23,-1.44,-6.17,-1.44,-6.16,6.16,5.49,5.98,4.72,4.72,4.73
27.50,-1.34,-6.07,-1.34,-6.07,6.07,5.32,6.09,4.73,4.73,4.73
27.77,-1.25,-5.98,-1.25,-5.98,5.98,5.15,6.19,4.74,4.74,4.73
28.05,-1.15,-5.90,-1.15,-5.89,5.89,4.98,6.29,4.75,4.75,4.75
28.33,-1.05,-5.80,-1.05,-5.80,5.80,4.82,6.39,4.75,4.75,4.75
28.62,-0.95,-5.71,-0.95,-5.71,5.71,4.66,6.47,4.76,4.76,4.76
28.90,-0.85,-5.62,-0.85,-5.62,5.62,4.50,6.55,4.77,4.77,4.77
29.19,-0.75,-5.52,-0.75,-5.53,5.53,4.35,6.62,4.78,4.78,4.77
29.48,-0.65,-5.45,-0.65,-5.44,5.44,4.20,6.68,4.79,4.78,4.80
29.78,-0.55,-5.34,-0.55,-5.34,5.34,4.06,6.73,4.79,4.79,4.79
30.08,-0.45,-5.25,-0.45,-5.25,5.25,3.92,6.76,4.79,4.80,4.80
30.38,-0.35,-5.15,-0.35,-5.15,5.15,3.79,6.78,4.80,4.80,4.80
30.68,-0.25,-5.07,-0.25,-5.06,5.06,3.65,6.79,4.81,4.81,4.82
30.99,-0.14,-4.96,-0.14,-4.96,4.96,3.53,6.79,4.82,4.82,4.82
31.30,-0.04,-4.86,-0.04,-4.87,4.87,3.41,6.77,4.83,4.83,4.82
31.61,0.06,-4.77,0.06,-4.77,4.77,3.29,6.74,4.83,4.83,4.83
31.93,0.17,-4.67,0.16,-4.68,4.68,3.17,6.70,4.85,4.84,4.84
32.24,0.27,-4.57,0.27,-4.58,4.58,3.06,6.64,4.85,4.85,4.84
32.57,0.37,-4.49,0.37,-4.49,4.49,2.95,6.57,4.86,4.86,4.86
32.89,0.47,-4.39,0.47,-4.39,4.39,2.85,6.49,4.86,4.86,4.86
33.22,0.57,-4.30,0.58,-4.29,4.29,2.75,6.39,4.86,4.87,4.87
33.55,0.68,-4.20,0.68,-4.20,4.20,2.65,6.29,4.88,4.88,4.88
33.89,0.79,-4.10,0.79,-4.10,4.10,2.56,6.18,4.89,4.88,4.89
34.23,0.89,-4.00,0.89,-4.00,4.00,2.47,6.05,4.89,4.89,4.89
34.57,0.99,-3.91,1.00,-3.90,3.90,2.38,5.92,4.89,4.90,4.90
34.92,1.10,-3.80,1.10,-3.80,3.80,2.30,5.79,4.90,4.90,4.90
35.27,1.21,-3.70,1.21,-3.70,3.70,2.21,5.64,4.91,4.91,4.91
35.62,1.32,-3.59,1.32,-3.59,3.59,2.13,5.49,4.91,4.91,4.91
35.97,1.43,-3.48,1.43,-3.49,3.49,2.06,5.34,4.92,4.91,4.91
36.33,1.54,-3.38,1.54,-3.38,3.38,1.98,5.18,4.92,4.91,4.92
36.70,1.64,-3.27,1.65,-3.27,3.27,1.91,5.02,4.91,4.92,4.91
37.06,1.75,-3.17,1.76,-3.16,3.16,1.84,4.86,4.91,4.92,4.92
37.43,1.87,-3.05,1.87,-3.04,3.04,1.77,4.69,4.92,4.92,4.92
37.81,1.98,-2.94,1.98,-2.93,2.93,1.70,4.52,4.91,4.91,4.92
38.19,2.10,-2.82,2.10,-2.81,2.81,1.64,4.36,4.91,4.91,4.92
38.57,2.21,-2.70,2.21,-2.70,2.70,1.57,4.19,4.91,4.91,4.91
38.95,2.33,-2.58,2.33,-2.58,2.58,1.51,4.02,4.91,4.91,4.91
39.34,2.44,-2.46,2.44,-2.47,2.47,1.45,3.85,4.91,4.91,4.90
39.74,2.55,-2.35,2.55,-2.35,2.35,1.39,3.69,4.90,4.90,4.90
40.14,2.67,-2.23,2.67,-2.23,2.23,1.34,3.52,4.90,4.90,4.90
40.54,2.78,-2.12,2.78,-2.12,2.12,1.28,3.35,4.90,4.90,4.90
40.94,2.89,-2.00,2.89,-2.01,2.01,1.23,3.19,4.90,4.90,4.89
41.35,3.00,-1.89,3.00,-1.90,1.90,1.17,3.02,4.90,4.89,4.89
41.76,3.11,-1.78,3.10,-1.78,1.78,1.12,2.86,4.90,4.89,4.89
42.18,3.21,-1.68,3.21,-1.68,1.68,1.07,2.70,4.89,4.89,4.89
42.60,3.32,-1.57,3.31,-1.57,1.57,1.01,2.54,4.89,4.88,4.89
43.03,3.42,-1.47,3.41,-1.47,1.47,0.96,2.38,4.89,4.88,4.89
43.46,3.51,-1.38,3.51,-1.37,1.37,0.91,2.22,4.88,4.88,4.89
43.90,3.61,-1.26,3.61,-1.27,1.27,0.86,2.07,4.88,4.88,4.87
44.33,3.70,-1.17,3.70,-1.17,1.17,0.81,1.91,4.87,4.87,4.87
44.78,3.79,-1.07,3.79,-1.08,1.08,0.76,1.76,4.87,4.87,4.86
45.23,3.89,-0.97,3.88,-0.98,0.98,0.71,1.61,4.87,4.87,4.86
45.68,3.98,-0.88,3.97,-0.89,0.89,0.67,1.46,4.87,4.86,4.86
46.13,4.06,-0.79,4.06,-0.80,0.80,0.62,1.31,4.86,4.86,4.85
46.60,4.15,-0.71,4.15,-0.70,0.70,0.57,1.16,4.85,4.85,4.86
47.06,4.23,-0.62,4.24,-0.60,0.60,0.52,1.01,4.83,4.85,4.85
47.53,4.32,-0.52,4.33,-0.50,0.50,0.47,0.87,4.83,4.84,4.84
48.01,4.41,-0.44,4.42,-0.41,0.41,0.42,0.72,4.82,4.83,4.85
48.49,4.51,-0.32,4.51,-0.31,0.31,0.37,0.58,4.82,4.82,4.83
48.97,4.60,-0.21,4.60,-0.21,0.21,0.31,0.44,4.81,4.81,4.81
49.46,4.69,-0.11,4.69,-0.11,0.11,0.26,0.30,4.80,4.80,4.80
49.96,4.78,-0.00,4.78,-0.01,0.01,0.21,0.16,4.79,4.79,4.78
50.46,4.87,0.09,4.86,0.09,-0.09,0.15,0.03,4.78,4.77,4.78
50.96,4.96,0.20,4.95,0.19,-0.19,0.10,-0.11,4.77,4.76,4.76
51.47,5.04,0.31,5.03,0.29,-0.29,0.04,-0.24,4.75,4.74,4.73
51.99,5.12,0.40,5.11,0.39,-0.39,-0.02,-0.37,4.73,4.73,4.72
52.51,5.19,0.48,5.19,0.49,-0.49,-0.08,-0.50,4.70,4.71,4.71
53.03,5.26,0.57,5.27,0.58,-0.58,-0.15,-0.63,4.68,4.69,4.69
53.56,5.34,0.66,5.34,0.67,-0.67,-0.21,-0.75,4.67,4.67,4.68
54.10,5.41,0.76,5.41,0.76,-0.76,-0.28,-0.87,4.65,4.65,4.65
54.64,5.48,0.84,5.48,0.85,-0.85,-0.35,-0.99,4.63,4.63,4.64
55.18,5.55,0.94,5.55,0.94,-0.94,-0.43,-1.10,4.61,4.61,4.61
55.74,5.62,1.04,5.62,1.02,-1.02,-0.51,-1.21,4.60,4.59,4.58
56.29,5.68,1.10,5.68,1.10,-1.10,-0.59,-1.31,4.58,4.57,4.58
56.86,5.74,1.19,5.74,1.19,-1.19,-0.67,-1.41,4.55,4.55,4.55
57.42,5.79,1.27,5.79,1.26,-1.26,-0.76,-1.51,4.53,4.53,4.52
58.00,5.84,1.34,5.85,1.34,-1.34,-0.85,-1.60,4.50,4.51,4.50
58.58,5.89,1.41,5.90,1.42,-1.42,-0.95,-1.69,4.47,4.48,4.48
59.16,5.94,1.48,5.94,1.49,-1.49,-1.04,-1.77,4.45,4.45,4.46
59.76,5.99,1.55,5.99,1.56,-1.56,-1.15,-1.85,4.43,4.42,4.44
60.35,6.03,1.62,6.02,1.63,-1.63,-1.25,-1.92,4.40,4.40,4.41
60.96,6.07,1.69,6.06,1.69,-1.69,-1.36,-1.98,4.38,4.36,4.38
61.57,6.09,1.76,6.08,1.75,-1.75,-1.47,-2.04,4.34,4.33,4.33
62.18,6.11,1.82,6.10,1.81,-1.81,-1.58,-2.09,4.30,4.30,4.29
62.80,6.12,1.85,6.12,1.86,-1.86,-1.70,-2.13,4.26,4.26,4.27
63.43,6.13,1.91,6.14,1.91,-1.91,-1.81,-2.17,4.22,4.23,4.22
64.07,6.14,1.96,6.14,1.95,-1.95,-1.91,-2.21,4.19,4.19,4.18
64.71,6.15,2.00,6.15,1.99,-1.99,-2.02,-2.23,4.16,4.15,4.15
65.35,6.14,2.03,6.14,2.03,-2.03,-2.11,-2.26,4.11,4.11,4.11
66.01,6.13,2.06,6.13,2.06,-2.06,-2.20,-2.27,4.07,4.07,4.07
66.67,6.11,2.07,6.12,2.08,-2.08,-2.28,-2.28,4.03,4.03,4.04
67.33,6.09,2.09,6.10,2.10,-2.10,-2.34,-2.29,3.99,3.99,4.00
68.01,6.08,2.12,6.07,2.11,-2.11,-2.39,-2.29,3.97,3.96,3.96
68.69,6.05,2.13,6.04,2.12,-2.12,-2.42,-2.29,3.93,3.92,3.92
69.37,6.02,2.14,6.00,2.12,-2.12,-2.44,-2.28,3.89,3.88,3.88
70.07,5.97,2.13,5.96,2.12,-2.12,-2.44,-2.28,3.85,3.84,3.84
70.77,5.92,2.12,5.92,2.12,-2.12,-2.43,-2.26,3.80,3.80,3.80
71.48,5.87,2.10,5.87,2.10,-2.10,-2.40,-2.25,3.77,3.76,3.77
72.19,5.81,2.09,5.81,2.09,-2.09,-2.35,-2.23,3.72,3.73,3.72
72.91,5.76,2.07,5.76,2.07,-2.07,-2.30,-2.21,3.69,3.69,3.69
73.64,5.69,2.04,5.70,2.05,-2.05,-2.23,-2.19,3.64,3.65,3.65
74.38,5.63,2.01,5.64,2.02,-2.02,-2.16,-2.17,3.61,3.62,3.62
75.12,5.57,1.99,5.58,1.99,-1.99,-2.08,-2.15,3.58,3.58,3.58
75.87,5.51,1.96,5.51,1.96,-1.96,-1.99,-2.13,3.55,3.55,3.55
76.63,5.44,1.92,5.44,1.92,-1.92,-1.91,-2.10,3.52,3.52,3.52
77.40,5.37,1.88,5.38,1.89,-1.89,-1.83,-2.08,3.48,3.49,3.49
78.17,5.31,1.85,5.31,1.85,-1.85,-1.74,-2.06,3.46,3.46,3.46
78.95,5.24,1.81,5.24,1.81,-1.81,-1.66,-2.04,3.43,3.43,3.43
79.74,5.18,1.77,5.17,1.76,-1.76,-1.58,-2.01,3.42,3.41,3.41
80.54,5.11,1.72,5.10,1.72,-1.72,-1.51,-1.99,3.39,3.38,3.39
81.35,5.04,1.68,5.03,1.67,-1.67,-1.43,-1.97,3.37,3.36,3.36
82.16,4.96,1.63,4.96,1.62,-1.62,-1.37,-1.96,3.34,3.34,3.33
82.98,4.88,1.56,4.89,1.57,-1.57,-1.30,-1.94,3.31,3.31,3.32
83.81,4.81,1.52,4.81,1.52,-1.52,-1.24,-1.92,3.29,3.29,3.29
84.65,4.74,1.48,4.74,1.47,-1.47,-1.19,-1.91,3.27,3.27,3.26
85.50,4.67,1.42,4.67,1.42,-1.42,-1.14,-1.90,3.25,3.25,3.25
86.35,4.60,1.37,4.60,1.37,-1.37,-1.09,-1.88,3.23,3.23,3.23
87.22,4.53,1.32,4.53,1.32,-1.32,-1.05,-1.87,3.21,3.21,3.21
88.09,4.47,1.28,4.46,1.27,-1.27,-1.01,-1.87,3.20,3.19,3.19
88.97,4.40,1.23,4.39,1.22,-1.22,-0.98,-1.86,3.18,3.17,3.17
89.86,4.33,1.17,4.33,1.18,-1.18,-0.95,-1.85,3.15,3.15,3.16
90.76,4.27,1.14,4.27,1.14,-1.14,-0.92,-1.85,3.13,3.13,3.13
91.66,4.22,1.11,4.21,1.10,-1.10,-0.90,-1.85,3.12,3.12,3.11
92.58,4.16,1.07,4.16,1.06,-1.06,-0.88,-1.85,3.10,3.09,3.09
93.51,4.10,1.02,4.11,1.04,-1.04,-0.87,-1.85,3.06,3.07,3.08
94.44,4.06,1.00,4.07,1.01,-1.01,-0.85,-1.85,3.05,3.05,3.06
95.39,4.02,0.98,4.03,1.00,-1.00,-0.84,-1.86,3.02,3.03,3.04
96.34,3.99,0.98,4.00,0.99,-0.99,-0.84,-1.86,3.00,3.01,3.01
97.30,3.95,0.97,3.97,0.99,-0.99,-0.84,-1.87,2.96,2.98,2.98
98.28,3.93,0.98,3.95,1.00,-1.00,-0.84,-1.88,2.93,2.96,2.95
99.26,3.92,0.99,3.94,1.01,-1.01,-0.84,-1.89,2.91,2.93,2.93
100.25,3.91,1.01,3.93,1.03,-1.03,-0.85,-1.90,2.88,2.90,2.90
101.25,3.91,1.04,3.92,1.05,-1.05,-0.86,-1.91,2.86,2.87,2.87
102.27,3.91,1.08,3.91,1.08,-1.08,-0.87,-1.92,2.83,2.84,2.83
103.29,3.91,1.11,3.91,1.10,-1.10,-0.89,-1.93,2.81,2.80,2.80
104.32,3.91,1.14,3.90,1.13,-1.13,-0.91,-1.94,2.78,2.76,2.77
105.37,3.92,1.19,3.89,1.16,-1.16,-0.93,-1.95,2.76,2.72,2.73
106.42,3.91,1.23,3.87,1.19,-1.19,-0.96,-1.96,2.72,2.68,2.68
107.48,3.89,1.24,3.86,1.22,-1.22,-0.99,-1.97,2.67,2.64,2.65
108.56,3.86,1.27,3.84,1.25,-1.25,-1.03,-1.98,2.61,2.59,2.59
109.64,3.83,1.29,3.81,1.28,-1.28,-1.07,-1.99,2.55,2.54,2.54
110.74,3.80,1.31,3.79,1.31,-1.31,-1.12,-2.00,2.49,2.48,2.49
111.85,3.76,1.32,3.76,1.33,-1.33,-1.16,-2.00,2.43,2.43,2.44
112.97,3.72,1.35,3.74,1.36,-1.36,-1.22,-2.01,2.36,2.37,2.37
114.10,3.69,1.37,3.71,1.39,-1.39,-1.28,-2.01,2.30,2.31,2.32
115.24,3.66,1.40,3.68,1.43,-1.43,-1.34,-2.01,2.23,2.26,2.26
116.39,3.64,1.45,3.66,1.46,-1.46,-1.40,-2.01,2.18,2.20,2.19
117.55,3.62,1.49,3.64,1.50,-1.50,-1.47,-2.00,2.12,2.14,2.13
118.73,3.60,1.53,3.63,1.54,-1.54,-1.54,-1.99,2.06,2.08,2.07
119.92,3.59,1.57,3.61,1.59,-1.59,-1.61,-1.98,2.00,2.02,2.02
121.12,3.59,1.63,3.60,1.63,-1.63,-1.69,-1.96,1.96,1.97,1.96
122.33,3.59,1.68,3.59,1.68,-1.68,-1.76,-1.94,1.91,1.91,1.91
123.55,3.59,1.73,3.58,1.72,-1.72,-1.83,-1.91,1.87,1.86,1.86
124.79,3.57,1.76,3.56,1.76,-1.76,-1.90,-1.89,1.81,1.81,1.81
126.03,3.56,1.80,3.55,1.79,-1.79,-1.96,-1.85,1.77,1.76,1.76
127.29,3.55,1.84,3.53,1.82,-1.82,-2.01,-1.82,1.73,1.71,1.71
128.57,3.53,1.88,3.50,1.84,-1.84,-2.06,-1.78,1.69,1.66,1.65
129.85,3.49,1.88,3.47,1.86,-1.86,-2.09,-1.73,1.63,1.61,1.61
131.15,3.43,1.87,3.44,1.87,-1.87,-2.10,-1.68,1.56,1.57,1.56
132.46,3.41,1.89,3.39,1.87,-1.87,-2.11,-1.63,1.54,1.52,1.52
133.79,3.36,1.88,3.35,1.87,-1.87,-2.09,-1.57,1.49,1.48,1.48
135.12,3.29,1.85,3.30,1.86,-1.86,-2.06,-1.51,1.43,1.44,1.44
136.48,3.24,1.84,3.24,1.85,-1.85,-2.02,-1.45,1.39,1.40,1.40
137.84,3.17,1.81,3.19,1.83,-1.83,-1.96,-1.38,1.34,1.36,1.36
139.22,3.12,1.81,3.13,1.81,-1.81,-1.89,-1.32,1.31,1.32,1.31
140.61,3.06,1.79,3.07,1.78,-1.78,-1.81,-1.24,1.28,1.28,1.27
142.02,2.97,1.72,3.00,1.76,-1.76,-1.73,-1.17,1.21,1.24,1.25
143.44,2.93,1.72,2.93,1.73,-1.73,-1.63,-1.09,1.20,1.21,1.21
144.87,2.85,1.68,2.86,1.69,-1.69,-1.54,-1.01,1.16,1.17,1.17
146.32,2.79,1.66,2.79,1.66,-1.66,-1.44,-0.93,1.13,1.13,1.13
147.78,2.72,1.62,2.71,1.62,-1.62,-1.34,-0.85,1.10,1.09,1.10
149.26,2.64,1.57,2.62,1.57,-1.57,-1.24,-0.76,1.07,1.05,1.07
150.75,2.54,1.53,2.53,1.52,-1.52,-1.15,-0.67,1.02,1.01,1.01
152.26,2.46,1.49,2.44,1.47,-1.47,-1.05,-0.59,0.99,0.97,0.97
153.78,2.35,1.41,2.34,1.41,-1.41,-0.96,-0.50,0.94,0.93,0.94
155.32,2.26,1.38,2.24,1.35,-1.35,-0.87,-0.41,0.91,0.89,0.88
156.88,2.12,1.27,2.13,1.28,-1.28,-0.79,-0.32,0.84,0.84,0.85
158.44,2.01,1.21,2.01,1.21,-1.21,-0.70,-0.22,0.80,0.80,0.80
160.03,1.84,1.09,1.89,1.13,-1.13,-0.62,-0.13,0.71,0.75,0.75
161.63,1.75,1.05,1.76,1.05,-1.05,-0.55,-0.04,0.70,0.71,0.70
163.24,1.64,0.98,1.62,0.96,-0.96,-0.47,0.06,0.68,0.66,0.66
164.88,1.47,0.85,1.48,0.87,-0.87,-0.40,0.16,0.60,0.62,0.62
166.53,1.34,0.77,1.34,0.77,-0.77,-0.33,0.25,0.57,0.57,0.57
168.19,1.21,0.69,1.19,0.67,-0.67,-0.26,0.35,0.54,0.52,0.52
169.87,1.02,0.55,1.03,0.56,-0.56,-0.19,0.45,0.46,0.47,0.47
171.57,0.87,0.44,0.87,0.45,-0.45,-0.13,0.55,0.42,0.42,0.43
173.29,0.72,0.35,0.70,0.33,-0.33,-0.06,0.65,0.39,0.37,0.37
175.02,0.49,0.17,0.52,0.21,-0.21,0.00,0.75,0.28,0.31,0.32
176.77,0.33,0.07,0.34,0.08,-0.08,0.07,0.85,0.25,0.26,0.26
178.54,0.16,-0.05,0.15,-0.06,0.06,0.13,0.95,0.22,0.21,0.21
180.32,-0.01,-0.16,-0.05,-0.21,0.21,0.20,1.05,0.20,0.15,0.15
182.13,-0.19,-0.29,-0.26,-0.35,0.35,0.26,1.15,0.16,0.10,0.10
183.95,-0.49,-0.53,-0.47,-0.51,0.51,0.33,1.25,0.02,0.04,0.04
185.79,-0.70,-0.69,-0.68,-0.67,0.67,0.40,1.36,-0.03,-0.02,-0.01
187.65,-0.91,-0.83,-0.90,-0.83,0.83,0.47,1.46,-0.08,-0.07,-0.08
189.52,-1.13,-1.00,-1.12,-1.00,1.00,0.55,1.57,-0.13,-0.13,-0.13
191.42,-1.36,-1.18,-1.35,-1.17,1.17,0.62,1.67,-0.19,-0.18,-0.18
193.33,-1.59,-1.36,-1.58,-1.35,1.35,0.70,1.78,-0.24,-0.23,-0.23
195.27,-1.81,-1.53,-1.81,-1.52,1.52,0.79,1.88,-0.28,-0.28,-0.28
197.22,-2.03,-1.69,-2.05,-1.71,1.71,0.87,1.99,-0.32,-0.34,-0.34
199.19,-2.26,-1.87,-2.28,-1.90,1.90,0.97,2.09,-0.36,-0.38,-0.39
201.18,-2.49,-2.05,-2.51,-2.08,2.08,1.06,2.20,-0.41,-0.43,-0.44
203.19,-2.73,-2.26,-2.74,-2.26,2.26,1.17,2.30,-0.47,-0.48,-0.47
205.23,-2.96,-2.43,-2.95,-2.43,2.43,1.28,2.41,-0.53,-0.53,-0.53
207.28,-3.18,-2.63,-3.17,-2.61,2.61,1.40,2.51,-0.57,-0.57,-0.55
209.35,-3.40,-2.79,-3.39,-2.78,2.78,1.52,2.61,-0.62,-0.61,-0.61
211.44,-3.61,-2.95,-3.60,-2.94,2.94,1.66,2.71,-0.67,-0.65,-0.66
213.56,-3.82,-3.12,-3.80,-3.11,3.11,1.80,2.81,-0.71,-0.69,-0.70
215.69,-4.01,-3.29,-3.99,-3.26,3.26,1.96,2.91,-0.75,-0.73,-0.72
217.85,-4.20,-3.44,-4.18,-3.41,3.41,2.12,3.00,-0.79,-0.76,-0.76
220.03,-4.33,-3.53,-4.35,-3.56,3.56,2.30,3.09,-0.77,-0.80,-0.80
222.23,-4.48,-3.65,-4.52,-3.69,3.69,2.49,3.18,-0.79,-0.83,-0.83
224.45,-4.65,-3.80,-4.67,-3.82,3.82,2.68,3.26,-0.83,-0.85,-0.85
226.70,-4.81,-3.93,-4.81,-3.93,3.93,2.89,3.34,-0.87,-0.88,-0.88
228.96,-4.96,-4.05,-4.94,-4.04,4.04,3.11,3.41,-0.92,-0.90,-0.91
231.25,-5.05,-4.13,-5.06,-4.14,4.14,3.33,3.47,-0.91,-0.92,-0.92
233.57,-5.16,-4.22,-5.16,-4.23,4.23,3.55,3.53,-0.93,-0.94,-0.94
235.90,-5.27,-4.32,-5.25,-4.30,4.30,3.78,3.59,-0.97,-0.95,-0.95
238.26,-5.32,-4.36,-5.32,-4.36,4.36,4.00,3.64,-0.96,-0.96,-0.96
240.64,-5.39,-4.42,-5.38,-4.41,4.41,4.20,3.68,-0.98,-0.97,-0.97
243.05,-5.43,-4.46,-5.41,-4.43,4.43,4.38,3.71,-1.00,-0.97,-0.97
245.48,-5.45,-4.47,-5.42,-4.45,4.45,4.54,3.73,-1.00,-0.98,-0.98
247.93,-5.44,-4.46,-5.42,-4.44,4.44,4.66,3.75,-1.00,-0.98,-0.98
250.41,-5.42,-4.44,-5.39,-4.41,4.41,4.73,3.76,-1.01,-0.98,-0.98
252.92,-5.37,-4.40,-5.34,-4.37,4.37,4.76,3.76,-1.00,-0.97,-0.97
255.45,-5.30,-4.34,-5.27,-4.31,4.31,4.74,3.75,-0.99,-0.96,-0.96
258.00,-5.23,-4.28,-5.19,-4.24,4.24,4.67,3.74,-0.99,-0.96,-0.95
260.58,-5.11,-4.16,-5.10,-4.15,4.15,4.56,3.71,-0.96,-0.95,-0.95
263.19,-5.00,-4.06,-4.99,-4.05,4.05,4.41,3.68,-0.95,-0.94,-0.94
265.82,-4.84,-3.91,-4.87,-3.95,3.95,4.23,3.65,-0.89,-0.93,-0.93
268.48,-4.72,-3.81,-4.75,-3.84,3.84,4.03,3.60,-0.88,-0.91,-0.91
271.16,-4.61,-3.72,-4.62,-3.72,3.72,3.82,3.55,-0.89,-0.90,-0.89
273.87,-4.45,-3.56,-4.48,-3.60,3.60,3.60,3.50,-0.85,-0.89,-0.89
276.61,-4.32,-3.46,-4.35,-3.48,3.48,3.38,3.44,-0.84,-0.87,-0.86
279.38,-4.20,-3.34,-4.22,-3.36,3.36,3.16,3.37,-0.84,-0.86,-0.86
282.17,-4.09,-3.25,-4.09,-3.24,3.24,2.96,3.30,-0.85,-0.85,-0.84
284.99,-3.97,-3.14,-3.96,-3.13,3.13,2.75,3.23,-0.84,-0.83,-0.83
287.84,-3.82,-3.00,-3.84,-3.02,3.02,2.56,3.15,-0.80,-0.82,-0.82
290.72,-3.71,-2.90,-3.72,-2.91,2.91,2.38,3.07,-0.80,-0.80,-0.81
293.63,-3.59,-2.80,-3.60,-2.81,2.81,2.22,2.99,-0.78,-0.79,-0.79
296.57,-3.49,-2.72,-3.49,-2.71,2.71,2.06,2.90,-0.78,-0.78,-0.77
299.53,-3.38,-2.61,-3.38,-2.61,2.61,1.91,2.82,-0.77,-0.76,-0.77
302.53,-3.28,-2.52,-3.27,-2.52,2.52,1.78,2.73,-0.76,-0.75,-0.76
305.55,-3.18,-2.44,-3.17,-2.43,2.43,1.65,2.64,-0.75,-0.74,-0.74
308.61,-3.06,-2.33,-3.07,-2.34,2.34,1.53,2.55,-0.72,-0.73,-0.73
311.69,-2.96,-2.24,-2.97,-2.25,2.25,1.43,2.46,-0.71,-0.72,-0.72
314.81,-2.88,-2.19,-2.87,-2.16,2.16,1.33,2.37,-0.72,-0.71,-0.69
317.96,-2.78,-2.08,-2.78,-2.08,2.08,1.23,2.28,-0.70,-0.70,-0.70
321.14,-2.69,-2.00,-2.69,-2.00,2.00,1.15,2.19,-0.69,-0.69,-0.69
324.35,-2.60,-1.91,-2.61,-1.92,1.92,1.07,2.10,-0.68,-0.69,-0.69
327.59,-2.50,-1.82,-2.52,-1.84,1.84,0.99,2.02,-0.66,-0.68,-0.68
330.87,-2.44,-1.76,-2.44,-1.77,1.77,0.92,1.93,-0.67,-0.68,-0.68
334.18,-2.37,-1.69,-2.37,-1.69,1.69,0.86,1.84,-0.68,-0.67,-0.68
337.52,-2.28,-1.61,-2.29,-1.62,1.62,0.80,1.76,-0.66,-0.67,-0.67
340.90,-2.22,-1.55,-2.22,-1.54,1.54,0.74,1.67,-0.68,-0.67,-0.67
344.30,-2.15,-1.48,-2.15,-1.47,1.47,0.69,1.59,-0.68,-0.67,-0.67
347.75,-2.08,-1.41,-2.07,-1.40,1.40,0.64,1.51,-0.68,-0.67,-0.67
351.23,-2.02,-1.35,-2.00,-1.33,1.33,0.60,1.42,-0.69,-0.68,-0.67
354.74,-1.95,-1.28,-1.94,-1.26,1.26,0.55,1.34,-0.69,-0.68,-0.67
358.28,-1.88,-1.19,-1.87,-1.19,1.19,0.51,1.27,-0.69,-0.68,-0.69
361.87,-1.80,-1.11,-1.80,-1.12,1.12,0.48,1.19,-0.69,-0.69,-0.69
365.49,-1.73,-1.04,-1.74,-1.04,1.04,0.44,1.11,-0.69,-0.69,-0.69
369.14,-1.67,-0.97,-1.67,-0.97,0.97,0.41,1.03,-0.70,-0.70,-0.70
372.83,-1.61,-0.91,-1.61,-0.90,0.90,0.37,0.96,-0.71,-0.71,-0.70
376.56,-1.54,-0.83,-1.55,-0.83,0.83,0.34,0.89,-0.71,-0.71,-0.71
380.33,-1.48,-0.76,-1.49,-0.77,0.77,0.32,0.81,-0.71,-0.72,-0.72
384.13,-1.42,-0.69,-1.43,-0.70,0.70,0.29,0.74,-0.72,-0.73,-0.73
387.97,-1.37,-0.63,-1.37,-0.64,0.64,0.26,0.67,-0.73,-0.73,-0.74
391.85,-1.31,-0.56,-1.32,-0.57,0.57,0.24,0.60,-0.74,-0.74,-0.75
395.77,-1.26,-0.52,-1.26,-0.51,0.51,0.21,0.53,-0.75,-0.75,-0.74
399.73,-1.21,-0.46,-1.21,-0.45,0.45,0.19,0.47,-0.76,-0.75,-0.75
403.72,-1.17,-0.41,-1.16,-0.40,0.40,0.17,0.40,-0.77,-0.76,-0.76
407.76,-1.12,-0.35,-1.11,-0.34,0.34,0.15,0.34,-0.78,-0.77,-0.77
411.84,-1.07,-0.31,-1.06,-0.29,0.29,0.13,0.27,-0.78,-0.77,-0.76
415.96,-1.01,-0.23,-1.01,-0.24,0.24,0.11,0.21,-0.77,-0.78,-0.78
420.12,-0.97,-0.19,-0.97,-0.19,0.19,0.09,0.15,-0.78,-0.78,-0.78
424.32,-0.93,-0.15,-0.93,-0.15,0.15,0.07,0.09,-0.78,-0.78,-0.78
428.56,-0.88,-0.09,-0.89,-0.10,0.10,0.06,0.04,-0.78,-0.78,-0.79
432.85,-0.83,-0.04,-0.85,-0.06,0.06,0.04,-0.02,-0.77,-0.78,-0.79
437.18,-0.79,0.00,-0.81,-0.02,0.02,0.02,-0.08,-0.77,-0.79,-0.79
441.55,-0.76,0.02,-0.77,0.02,-0.02,0.01,-0.13,-0.78,-0.79,-0.78
445.96,-0.74,0.04,-0.73,0.06,-0.06,-0.01,-0.18,-0.80,-0.79,-0.78
450.42,-0.70,0.09,-0.69,0.09,-0.09,-0.02,-0.23,-0.79,-0.78,-0.79
454.93,-0.68,0.10,-0.66,0.12,-0.12,-0.04,-0.28,-0.80,-0.78,-0.78
459.48,-0.64,0.14,-0.63,0.15,-0.15,-0.05,-0.32,-0.79,-0.78,-0.78
464.07,-0.60,0.17,-0.60,0.17,-0.17,-0.07,-0.36,-0.77,-0.77,-0.77
468.71,-0.56,0.20,-0.57,0.20,-0.20,-0.08,-0.40,-0.76,-0.77,-0.76
473.40,-0.52,0.25,-0.54,0.22,-0.22,-0.09,-0.44,-0.74,-0.76,-0.77
478.13,-0.49,0.27,-0.51,0.25,-0.25,-0.11,-0.48,-0.74,-0.76,-0.76
482.91,-0.47,0.29,-0.48,0.28,-0.28,-0.12,-0.51,-0.75,-0.75,-0.76
487.74,-0.46,0.29,-0.45,0.30,-0.30,-0.13,-0.54,-0.76,-0.75,-0.75
492.62,-0.44,0.30,-0.41,0.33,-0.33,-0.15,-0.57,-0.77,-0.74,-0.74
497.55,-0.40,0.34,-0.38,0.36,-0.36,-0.16,-0.60,-0.76,-0.74,-0.74
502.52,-0.36,0.37,-0.35,0.39,-0.39,-0.17,-0.62,-0.75,-0.73,-0.73
507.55,-0.32,0.41,-0.31,0.42,-0.42,-0.18,-0.65,-0.74,-0.73,-0.73
512.62,-0.28,0.45,-0.28,0.45,-0.45,-0.20,-0.66,-0.73,-0.73,-0.73
