frequency,raw,error,smoothed,error_smoothed,equalization,parametric_eq,fixed_band_eq,equalized_raw,equalized_smoothed,target
20.00,-5.00,-8.17,-5.00,-8.19,8.19,7.26,2.83,3.19,3.19,3.16
20.20,-4.93,-8.15,-4.92,-8.15,8.15,7.33,2.92,3.22,3.23,3.21
20.40,-4.86,-8.13,-4.85,-8.11,8.11,7.40,3.00,3.25,3.27,3.26
20.61,-4.79,-8.09,-4.78,-8.08,8.08,7.46,3.08,3.28,3.30,3.29
20.81,-4.71,-8.06,-4.71,-8.04,8.04,7.52,3.17,3.32,3.33,3.34
21.02,-4.64,-8.03,-4.64,-7.99,7.99,7.57,3.26,3.35,3.36,3.38
21.23,-4.56,-7.97,-4.57,-7.95,7.95,7.62,3.36,3.39,3.38,3.40
21.44,-4.48,-7.90,-4.50,-7.91,7.91,7.67,3.46,3.43,3.41,3.42
21.66,-4.39,-7.84,-4.44,-7.86,7.86,7.71,3.55,3.47,3.43,3.44
21.87,-4.31,-7.76,-4.37,-7.82,7.82,7.75,3.66,3.51,3.45,3.45
22.09,-4.25,-7.73,-4.31,-7.77,7.77,7.78,3.76,3.52,3.46,3.47
22.31,-4.23,-7.72,-4.25,-7.72,7.72,7.80,3.87,3.49,3.47,3.48
22.54,-4.21,-7.70,-4.19,-7.67,7.67,7.82,3.98,3.46,3.48,3.48
22.76,-4.18,-7.67,-4.13,-7.62,7.62,7.84,4.09,3.44,3.48,3.48
22.99,-4.16,-7.64,-4.08,-7.57,7.57,7.85,4.21,3.40,3.49,3.47
23.22,-4.08,-7.56,-4.03,-7.52,7.52,7.85,4.33,3.43,3.49,3.47
23.45,-3.99,-7.46,-3.98,-7.47,7.47,7.85,4.45,3.47,3.49,3.47
23.69,-3.90,-7.39,-3.93,-7.42,7.42,7.84,4.57,3.51,3.49,3.48
23.92,-3.81,-7.29,-3.87,-7.36,7.36,7.83,4.70,3.55,3.49,3.48
24.16,-3.76,-7.25,-3.82,-7.31,7.31,7.81,4.83,3.55,3.49,3.48
24.40,-3.74,-7.23,-3.76,-7.25,7.25,7.79,4.96,3.51,3.49,3.49
24.65,-3.71,-7.20,-3.70,-7.19,7.19,7.76,5.09,3.47,3.49,3.48
24.89,-3.68,-7.16,-3.64,-7.12,7.12,7.73,5.22,3.44,3.49,3.48
25.14,-3.62,-7.10,-3.57,-7.06,7.06,7.70,5.36,3.44,3.49,3.48
25.39,-3.54,-7.03,-3.51,-7.00,7.00,7.66,5.50,3.46,3.49,3.49
25.65,-3.46,-6.96,-3.45,-6.94,6.94,7.61,5.63,3.48,3.49,3.49
25.91,-3.38,-6.87,-3.39,-6.88,6.88,7.56,5.77,3.50,3.49,3.48
26.16,-3.32,-6.80,-3.34,-6.83,6.83,7.51,5.91,3.51,3.49,3.48
26.43,-3.26,-6.75,-3.28,-6.77,6.77,7.46,6.05,3.51,3.48,3.48
26.69,-3.21,-6.70,-3.23,-6.71,6.71,7.40,6.19,3.50,3.48,3.48
26.96,-3.16,-6.65,-3.17,-6.65,6.65,7.34,6.32,3.49,3.48,3.48
27.23,-3.11,-6.60,-3.12,-6.60,6.60,7.28,6.45,3.48,3.48,3.48
27.50,-3.06,-6.55,-3.07,-6.55,6.55,7.22,6.58,3.48,3.48,3.48
27.77,-3.02,-6.49,-3.02,-6.50,6.50,7.16,6.71,3.48,3.48,3.47
28.05,-2.97,-6.45,-2.98,-6.46,6.46,7.09,6.83,3.48,3.48,3.47
28.33,-2.94,-6.41,-2.94,-6.42,6.42,7.02,6.94,3.47,3.47,3.46
28.62,-2.90,-6.37,-2.91,-6.38,6.38,6.96,7.05,3.48,3.47,3.46
28.90,-2.86,-6.34,-2.87,-6.34,6.34,6.89,7.16,3.48,3.47,3.47
29.19,-2.83,-6.30,-2.83,-6.30,6.30,6.82,7.25,3.47,3.47,3.46
29.48,-2.80,-6.28,-2.79,-6.26,6.26,6.75,7.34,3.46,3.47,3.47
29.78,-2.77,-6.24,-2.75,-6.22,6.22,6.68,7.41,3.45,3.47,3.46
30.08,-2.74,-6.22,-2.72,-6.18,6.18,6.61,7.48,3.44,3.46,3.47
30.38,-2.70,-6.17,-2.68,-6.15,6.15,6.54,7.53,3.44,3.46,3.46
30.68,-2.65,-6.12,-2.65,-6.11,6.11,6.48,7.58,3.46,3.46,3.46
30.99,-2.61,-6.08,-2.61,-6.07,6.07,6.41,7.61,3.46,3.46,3.46
31.30,-2.56,-6.02,-2.57,-6.03,6.03,6.35,7.63,3.47,3.46,3.45
31.61,-2.51,-5.97,-2.53,-5.99,5.99,6.28,7.64,3.48,3.46,3.45
31.93,-2.45,-5.91,-2.50,-5.95,5.95,6.22,7.64,3.50,3.45,3.45
32.24,-2.44,-5.89,-2.46,-5.91,5.91,6.16,7.63,3.47,3.45,3.44
32.57,-2.44,-5.89,-2.43,-5.87,5.87,6.10,7.60,3.43,3.44,3.44
32.89,-2.44,-5.89,-2.40,-5.83,5.83,6.04,7.57,3.39,3.44,3.44
33.22,-2.40,-5.84,-2.36,-5.80,5.80,5.99,7.52,3.40,3.43,3.43
33.55,-2.33,-5.76,-2.33,-5.76,5.76,5.93,7.47,3.43,3.43,3.43
33.89,-2.26,-5.69,-2.31,-5.73,5.73,5.88,7.41,3.47,3.43,3.42
34.23,-2.24,-5.67,-2.28,-5.70,5.70,5.83,7.34,3.46,3.42,3.42
34.57,-2.24,-5.66,-2.25,-5.66,5.66,5.79,7.27,3.42,3.42,3.41
34.92,-2.24,-5.66,-2.22,-5.63,5.63,5.74,7.19,3.39,3.41,3.41
35.27,-2.21,-5.62,-2.19,-5.60,5.60,5.70,7.10,3.39,3.41,3.40
35.62,-2.18,-5.59,-2.16,-5.56,5.56,5.66,7.01,3.38,3.41,3.40
35.97,-2.14,-5.55,-2.12,-5.53,5.53,5.63,6.92,3.39,3.40,3.40
36.33,-2.11,-5.51,-2.09,-5.50,5.50,5.59,6.82,3.38,3.40,3.40
36.70,-2.07,-5.47,-2.07,-5.47,5.47,5.56,6.73,3.40,3.40,3.39
37.06,-2.03,-5.43,-2.04,-5.44,5.44,5.54,6.63,3.41,3.40,3.39
37.43,-2.00,-5.41,-2.02,-5.42,5.42,5.51,6.53,3.42,3.40,3.40
37.81,-1.98,-5.39,-2.00,-5.41,5.41,5.49,6.44,3.42,3.40,3.40
38.19,-1.96,-5.36,-1.98,-5.39,5.39,5.47,6.34,3.42,3.40,3.39
38.57,-1.95,-5.36,-1.97,-5.37,5.37,5.46,6.25,3.42,3.40,3.40
38.95,-1.94,-5.36,-1.95,-5.36,5.36,5.45,6.15,3.41,3.40,3.41
39.34,-1.94,-5.35,-1.94,-5.35,5.35,5.44,6.06,3.41,3.40,3.40
39.74,-1.94,-5.35,-1.94,-5.34,5.34,5.43,5.97,3.40,3.40,3.40
40.14,-1.94,-5.35,-1.93,-5.34,5.34,5.43,5.89,3.40,3.40,3.40
40.54,-1.94,-5.35,-1.93,-5.33,5.33,5.43,5.81,3.39,3.40,3.40
40.94,-1.94,-5.34,-1.93,-5.33,5.33,5.44,5.73,3.39,3.40,3.39
41.35,-1.94,-5.34,-1.94,-5.33,5.33,5.44,5.65,3.39,3.39,3.39
41.76,-1.94,-5.33,-1.93,-5.32,5.32,5.45,5.58,3.38,3.38,3.38
42.18,-1.94,-5.33,-1.93,-5.31,5.31,5.46,5.51,3.37,3.38,3.38
42.60,-1.94,-5.32,-1.94,-5.30,5.30,5.48,5.44,3.36,3.37,3.37
43.03,-1.94,-5.31,-1.94,-5.30,5.30,5.49,5.38,3.35,3.36,3.36
43.46,-1.94,-5.30,-1.95,-5.29,5.29,5.51,5.32,3.35,3.34,3.35
43.90,-1.94,-5.28,-1.95,-5.28,5.28,5.53,5.27,3.34,3.33,3.33
44.33,-1.94,-5.26,-1.96,-5.28,5.28,5.55,5.22,3.33,3.32,3.31
44.78,-1.94,-5.24,-1.96,-5.27,5.27,5.57,5.18,3.33,3.31,3.29
45.23,-1.94,-5.23,-1.97,-5.26,5.26,5.60,5.13,3.32,3.29,3.28
45.68,-1.94,-5.22,-1.97,-5.25,5.25,5.62,5.10,3.30,3.28,3.27
46.13,-1.95,-5.21,-1.96,-5.23,5.23,5.64,5.06,3.28,3.27,3.25
46.60,-2.00,-5.25,-1.96,-5.21,5.21,5.66,5.03,3.21,3.25,3.25
47.06,-2.03,-5.27,-1.96,-5.19,5.19,5.67,5.00,3.16,3.24,3.23
47.53,-1.99,-5.22,-1.95,-5.17,5.17,5.69,4.98,3.18,3.22,3.22
48.01,-1.94,-5.17,-1.94,-5.15,5.15,5.70,4.96,3.21,3.21,3.22
48.49,-1.94,-5.15,-1.94,-5.13,5.13,5.71,4.94,3.19,3.19,3.20
48.97,-1.94,-5.13,-1.93,-5.11,5.11,5.71,4.93,3.17,3.18,3.18
49.46,-1.89,-5.06,-1.92,-5.08,5.08,5.71,4.92,3.19,3.17,3.16
49.96,-1.84,-4.99,-1.90,-5.05,5.05,5.70,4.91,3.21,3.15,3.14
50.46,-1.84,-4.98,-1.88,-5.02,5.02,5.69,4.90,3.18,3.14,3.13
50.96,-1.85,-4.98,-1.87,-5.00,5.00,5.67,4.90,3.14,3.13,3.12
51.47,-1.85,-4.96,-1.86,-4.97,4.97,5.64,4.90,3.12,3.11,3.10
51.99,-1.84,-4.94,-1.84,-4.94,4.94,5.61,4.90,3.10,3.10,3.09
52.51,-1.85,-4.94,-1.83,-4.91,4.91,5.57,4.90,3.06,3.09,3.08
53.03,-1.86,-4.95,-1.82,-4.89,4.89,5.52,4.90,3.03,3.07,3.08
53.56,-1.79,-4.86,-1.80,-4.86,4.86,5.47,4.90,3.07,3.06,3.06
54.10,-1.74,-4.80,-1.78,-4.83,4.83,5.41,4.90,3.09,3.05,3.05
54.64,-1.74,-4.78,-1.75,-4.80,4.80,5.34,4.90,3.06,3.04,3.03
55.18,-1.74,-4.78,-1.73,-4.76,4.76,5.27,4.90,3.02,3.03,3.03
55.74,-1.74,-4.76,-1.69,-4.71,4.71,5.19,4.90,2.97,3.02,3.01
56.29,-1.71,-4.72,-1.65,-4.65,4.65,5.11,4.90,2.94,3.01,3.00
56.86,-1.65,-4.65,-1.60,-4.60,4.60,5.02,4.89,2.94,2.99,2.99
57.42,-1.58,-4.54,-1.56,-4.54,4.54,4.93,4.89,2.96,2.98,2.96
58.00,-1.51,-4.47,-1.52,-4.48,4.48,4.84,4.87,2.97,2.96,2.95
58.58,-1.47,-4.42,-1.48,-4.41,4.41,4.75,4.86,2.94,2.93,2.94
59.16,-1.42,-4.34,-1.44,-4.35,4.35,4.65,4.84,2.93,2.91,2.92
59.76,-1.36,-4.27,-1.41,-4.29,4.29,4.56,4.82,2.93,2.88,2.90
60.35,-1.33,-4.20,-1.39,-4.24,4.24,4.46,4.79,2.91,2.85,2.86
60.96,-1.31,-4.14,-1.37,-4.18,4.18,4.37,4.76,2.87,2.82,2.82
61.57,-1.33,-4.12,-1.35,-4.13,4.13,4.28,4.73,2.80,2.78,2.78
62.18,-1.36,-4.11,-1.34,-4.09,4.09,4.19,4.68,2.73,2.74,2.74
62.80,-1.38,-4.08,-1.34,-4.04,4.04,4.10,4.64,2.66,2.70,2.69
63.43,-1.36,-4.02,-1.35,-4.01,4.01,4.02,4.58,2.65,2.66,2.65
64.07,-1.33,-3.94,-1.38,-3.99,3.99,3.94,4.53,2.66,2.62,2.60
64.71,-1.38,-3.95,-1.41,-3.98,3.98,3.87,4.46,2.60,2.57,2.56
65.35,-1.45,-3.98,-1.45,-3.97,3.97,3.80,4.40,2.52,2.52,2.52
66.01,-1.52,-4.00,-1.48,-3.96,3.96,3.74,4.32,2.44,2.48,2.47
66.67,-1.50,-3.93,-1.51,-3.94,3.94,3.68,4.24,2.44,2.43,2.42
67.33,-1.51,-3.89,-1.55,-3.93,3.93,3.63,4.16,2.42,2.38,2.37
68.01,-1.56,-3.90,-1.58,-3.91,3.91,3.60,4.08,2.35,2.33,2.33
68.69,-1.55,-3.84,-1.61,-3.89,3.89,3.57,3.98,2.34,2.28,2.28
69.37,-1.66,-3.90,-1.64,-3.87,3.87,3.55,3.89,2.20,2.23,2.23
70.07,-1.85,-4.04,-1.67,-3.84,3.84,3.54,3.79,1.99,2.18,2.18
70.77,-1.77,-3.91,-1.70,-3.82,3.82,3.54,3.69,2.05,2.12,2.13
71.48,-1.73,-3.82,-1.72,-3.79,3.79,3.55,3.59,2.06,2.07,2.08
72.19,-1.70,-3.72,-1.74,-3.75,3.75,3.57,3.49,2.05,2.01,2.01
72.91,-1.63,-3.59,-1.76,-3.72,3.72,3.60,3.38,2.09,1.96,1.95
73.64,-1.76,-3.67,-1.79,-3.69,3.69,3.64,3.27,1.93,1.90,1.90
74.38,-1.80,-3.65,-1.82,-3.66,3.66,3.67,3.16,1.86,1.85,1.84
75.12,-1.75,-3.54,-1.83,-3.62,3.62,3.70,3.05,1.87,1.79,1.78
75.87,-1.83,-3.56,-1.85,-3.58,3.58,3.71,2.94,1.75,1.73,1.72
76.63,-1.84,-3.52,-1.85,-3.53,3.53,3.70,2.83,1.69,1.68,1.67
77.40,-1.84,-3.47,-1.84,-3.47,3.47,3.66,2.72,1.63,1.63,1.62
78.17,-1.84,-3.41,-1.82,-3.40,3.40,3.59,2.61,1.56,1.57,1.56
78.95,-1.84,-3.37,-1.80,-3.32,3.32,3.49,2.50,1.48,1.52,1.52
79.74,-1.84,-3.32,-1.77,-3.24,3.24,3.36,2.39,1.40,1.47,1.47
80.54,-1.84,-3.27,-1.72,-3.14,3.14,3.21,2.28,1.30,1.42,1.42
81.35,-1.78,-3.16,-1.65,-3.03,3.03,3.04,2.17,1.24,1.38,1.37
82.16,-1.65,-2.98,-1.57,-2.89,2.89,2.87,2.06,1.24,1.33,1.32
82.98,-1.47,-2.76,-1.48,-2.76,2.76,2.69,1.95,1.29,1.28,1.28
83.81,-1.40,-2.63,-1.39,-2.63,2.63,2.52,1.85,1.23,1.23,1.23
84.65,-1.28,-2.47,-1.30,-2.48,2.48,2.36,1.74,1.20,1.18,1.18
85.50,-1.13,-2.28,-1.20,-2.34,2.34,2.21,1.63,1.20,1.14,1.14
86.35,-0.99,-2.09,-1.11,-2.20,2.20,2.06,1.53,1.21,1.09,1.09
87.22,-0.94,-1.99,-1.04,-2.07,2.07,1.93,1.43,1.13,1.04,1.04
88.09,-0.93,-1.93,-0.97,-1.96,1.96,1.80,1.32,1.02,0.99,0.99
88.97,-0.85,-1.79,-0.91,-1.85,1.85,1.68,1.22,1.00,0.94,0.93
89.86,-0.83,-1.72,-0.88,-1.76,1.76,1.57,1.12,0.93,0.89,0.88
90.76,-0.83,-1.67,-0.86,-1.69,1.69,1.47,1.02,0.86,0.83,0.83
91.66,-0.83,-1.62,-0.85,-1.63,1.63,1.37,0.92,0.80,0.78,0.78
92.58,-0.83,-1.56,-0.85,-1.58,1.58,1.28,0.82,0.75,0.73,0.72
93.51,-0.78,-1.46,-0.84,-1.52,1.52,1.19,0.72,0.74,0.68,0.67
94.44,-0.80,-1.44,-0.83,-1.46,1.46,1.11,0.62,0.66,0.63,0.63
95.39,-0.94,-1.53,-0.82,-1.40,1.40,1.03,0.53,0.46,0.58,0.58
96.34,-0.94,-1.48,-0.79,-1.33,1.33,0.96,0.43,0.39,0.53,0.53
97.30,-0.79,-1.28,-0.76,-1.25,1.25,0.88,0.34,0.46,0.49,0.48
98.28,-0.81,-1.25,-0.72,-1.16,1.16,0.82,0.25,0.35,0.44,0.43
99.26,-0.77,-1.17,-0.68,-1.07,1.07,0.75,0.15,0.30,0.39,0.39
100.25,-0.65,-1.00,-0.62,-0.96,0.96,0.68,0.06,0.31,0.34,0.34
101.25,-0.55,-0.84,-0.55,-0.85,0.85,0.62,-0.03,0.30,0.29,0.29
102.27,-0.43,-0.68,-0.49,-0.73,0.73,0.56,-0.12,0.30,0.25,0.24
103.29,-0.33,-0.53,-0.41,-0.61,0.61,0.50,-0.20,0.28,0.20,0.19
104.32,-0.24,-0.40,-0.34,-0.48,0.48,0.44,-0.29,0.24,0.15,0.15
105.37,-0.21,-0.32,-0.25,-0.35,0.35,0.38,-0.37,0.13,0.10,0.10
106.42,-0.22,-0.28,-0.16,-0.20,0.20,0.32,-0.45,-0.02,0.04,0.05
107.48,-0.14,-0.13,-0.08,-0.08,0.08,0.26,-0.53,-0.06,-0.01,-0.01
108.56,-0.01,0.04,-0.03,0.02,-0.02,0.21,-0.61,-0.04,-0.06,-0.06
109.64,0.03,0.14,0.02,0.14,-0.14,0.15,-0.69,-0.11,-0.11,-0.11
110.74,0.16,0.32,0.08,0.24,-0.24,0.09,-0.76,-0.08,-0.16,-0.17
111.85,0.11,0.31,0.12,0.33,-0.33,0.04,-0.83,-0.22,-0.21,-0.21
112.97,0.08,0.34,0.15,0.42,-0.42,-0.02,-0.90,-0.34,-0.26,-0.27
114.10,0.30,0.61,0.19,0.50,-0.50,-0.08,-0.96,-0.20,-0.31,-0.32
115.24,0.29,0.65,0.23,0.59,-0.59,-0.14,-1.02,-0.30,-0.36,-0.37
116.39,0.30,0.71,0.27,0.68,-0.68,-0.19,-1.08,-0.38,-0.40,-0.42
117.55,0.30,0.75,0.32,0.76,-0.76,-0.25,-1.13,-0.47,-0.45,-0.46
118.73,0.23,0.72,0.36,0.85,-0.85,-0.31,-1.18,-0.62,-0.49,-0.50
119.92,0.22,0.74,0.40,0.92,-0.92,-0.37,-1.23,-0.70,-0.52,-0.53
121.12,0.52,1.08,0.43,0.99,-0.99,-0.43,-1.27,-0.47,-0.56,-0.57
122.33,0.47,1.06,0.47,1.06,-1.06,-0.49,-1.31,-0.59,-0.60,-0.60
123.55,0.43,1.05,0.50,1.13,-1.13,-0.55,-1.34,-0.70,-0.63,-0.63
124.79,0.59,1.24,0.54,1.20,-1.20,-0.61,-1.37,-0.61,-0.66,-0.66
126.03,0.65,1.33,0.58,1.27,-1.27,-0.68,-1.40,-0.62,-0.69,-0.69
127.29,0.66,1.36,0.61,1.32,-1.32,-0.74,-1.42,-0.67,-0.72,-0.71
128.57,0.66,1.40,0.64,1.39,-1.39,-0.80,-1.43,-0.73,-0.75,-0.75
129.85,0.67,1.44,0.66,1.44,-1.44,-0.87,-1.44,-0.77,-0.78,-0.78
131.15,0.67,1.47,0.68,1.49,-1.49,-0.94,-1.45,-0.82,-0.81,-0.81
132.46,0.68,1.51,0.70,1.53,-1.53,-1.00,-1.46,-0.85,-0.83,-0.84
133.79,0.68,1.54,0.70,1.57,-1.57,-1.07,-1.46,-0.89,-0.86,-0.87
135.12,0.69,1.58,0.69,1.58,-1.58,-1.14,-1.45,-0.89,-0.89,-0.90
136.48,0.73,1.64,0.69,1.61,-1.61,-1.21,-1.45,-0.88,-0.92,-0.92
137.84,0.77,1.72,0.69,1.63,-1.63,-1.28,-1.44,-0.86,-0.94,-0.96
139.22,0.66,1.64,0.68,1.65,-1.65,-1.35,-1.43,-0.99,-0.97,-0.99
140.61,0.60,1.61,0.67,1.67,-1.67,-1.43,-1.41,-1.07,-1.00,-1.02
142.02,0.60,1.63,0.65,1.69,-1.69,-1.50,-1.40,-1.09,-1.04,-1.04
143.44,0.60,1.66,0.64,1.71,-1.71,-1.57,-1.38,-1.11,-1.07,-1.07
144.87,0.60,1.70,0.62,1.73,-1.73,-1.64,-1.36,-1.13,-1.11,-1.11
146.32,0.60,1.74,0.60,1.75,-1.75,-1.71,-1.34,-1.15,-1.15,-1.15
147.78,0.58,1.75,0.57,1.78,-1.78,-1.79,-1.32,-1.20,-1.20,-1.18
149.26,0.50,1.72,0.53,1.79,-1.79,-1.86,-1.29,-1.29,-1.26,-1.23
150.75,0.51,1.79,0.47,1.79,-1.79,-1.92,-1.27,-1.28,-1.31,-1.29
152.26,0.47,1.82,0.38,1.76,-1.76,-1.99,-1.24,-1.29,-1.38,-1.36
153.78,0.40,1.82,0.28,1.72,-1.72,-2.06,-1.22,-1.32,-1.44,-1.43
155.32,0.26,1.75,0.17,1.68,-1.68,-2.12,-1.19,-1.42,-1.51,-1.50
156.88,0.18,1.75,0.06,1.64,-1.64,-2.18,-1.17,-1.46,-1.58,-1.58
158.44,0.11,1.76,-0.07,1.58,-1.58,-2.24,-1.14,-1.48,-1.65,-1.66
160.03,-0.02,1.71,-0.17,1.54,-1.54,-2.29,-1.12,-1.57,-1.72,-1.74
161.63,-0.20,1.60,-0.26,1.53,-1.53,-2.34,-1.09,-1.73,-1.78,-1.81
163.24,-0.38,1.48,-0.32,1.53,-1.53,-2.38,-1.07,-1.91,-1.85,-1.87
164.88,-0.63,1.28,-0.35,1.55,-1.55,-2.42,-1.04,-2.18,-1.90,-1.92
166.53,-0.78,1.18,-0.37,1.58,-1.58,-2.45,-1.02,-2.37,-1.95,-1.97
168.19,-0.75,1.25,-0.36,1.63,-1.63,-2.48,-1.00,-2.38,-1.99,-2.01
169.87,-0.54,1.51,-0.33,1.69,-1.69,-2.50,-0.98,-2.23,-2.02,-2.05
171.57,-0.34,1.72,-0.27,1.78,-1.78,-2.52,-0.95,-2.12,-2.05,-2.07
173.29,-0.18,1.89,-0.20,1.87,-1.87,-2.53,-0.93,-2.05,-2.07,-2.08
175.02,-0.03,2.05,-0.11,1.97,-1.97,-2.53,-0.91,-2.00,-2.08,-2.09
176.77,0.25,2.34,-0.02,2.07,-2.07,-2.53,-0.90,-1.83,-2.09,-2.10
178.54,0.37,2.47,0.09,2.19,-2.19,-2.52,-0.88,-1.82,-2.10,-2.11
180.32,0.36,2.45,0.19,2.29,-2.29,-2.50,-0.86,-1.93,-2.10,-2.10
182.13,0.36,2.44,0.28,2.39,-2.39,-2.48,-0.84,-2.03,-2.11,-2.09
183.95,0.37,2.46,0.35,2.47,-2.47,-2.45,-0.83,-2.10,-2.11,-2.10
185.79,0.38,2.47,0.39,2.51,-2.51,-2.42,-0.81,-2.14,-2.12,-2.10
187.65,0.45,2.56,0.40,2.53,-2.53,-2.38,-0.80,-2.09,-2.13,-2.12
189.52,0.40,2.52,0.40,2.54,-2.54,-2.34,-0.79,-2.14,-2.14,-2.13
191.42,0.34,2.48,0.38,2.53,-2.53,-2.29,-0.77,-2.19,-2.15,-2.15
193.33,0.34,2.50,0.36,2.52,-2.52,-2.24,-0.76,-2.18,-2.17,-2.17
195.27,0.29,2.47,0.33,2.51,-2.51,-2.19,-0.75,-2.22,-2.18,-2.19
197.22,0.24,2.44,0.29,2.50,-2.50,-2.14,-0.74,-2.26,-2.20,-2.21
199.19,0.20,2.42,0.27,2.49,-2.49,-2.08,-0.73,-2.29,-2.22,-2.23
201.18,0.18,2.42,0.25,2.49,-2.49,-2.02,-0.72,-2.31,-2.24,-2.25
203.19,0.19,2.45,0.22,2.49,-2.49,-1.96,-0.71,-2.30,-2.26,-2.27
205.23,0.19,2.47,0.20,2.48,-2.48,-1.90,-0.70,-2.29,-2.28,-2.29
207.28,0.21,2.50,0.16,2.47,-2.47,-1.83,-0.70,-2.26,-2.30,-2.30
209.35,0.21,2.52,0.13,2.45,-2.45,-1.77,-0.69,-2.24,-2.32,-2.32
211.44,0.12,2.46,0.10,2.44,-2.44,-1.71,-0.68,-2.32,-2.34,-2.35
213.56,0.08,2.43,0.06,2.41,-2.41,-1.64,-0.67,-2.34,-2.36,-2.36
215.69,0.05,2.41,0.02,2.39,-2.39,-1.58,-0.66,-2.34,-2.37,-2.37
217.85,-0.02,2.35,-0.03,2.35,-2.35,-1.52,-0.65,-2.37,-2.38,-2.38
220.03,-0.10,2.28,-0.08,2.31,-2.31,-1.46,-0.65,-2.41,-2.39,-2.39
222.23,-0.12,2.29,-0.13,2.26,-2.26,-1.39,-0.64,-2.38,-2.40,-2.42
224.45,-0.20,2.20,-0.20,2.20,-2.20,-1.33,-0.63,-2.40,-2.40,-2.41
226.70,-0.28,2.12,-0.26,2.13,-2.13,-1.27,-0.62,-2.41,-2.40,-2.41
228.96,-0.37,2.02,-0.34,2.06,-2.06,-1.21,-0.61,-2.43,-2.39,-2.40
231.25,-0.42,1.96,-0.41,1.98,-1.98,-1.15,-0.60,-2.40,-2.39,-2.39
233.57,-0.49,1.88,-0.47,1.90,-1.90,-1.09,-0.58,-2.39,-2.37,-2.38
235.90,-0.54,1.82,-0.54,1.82,-1.82,-1.04,-0.57,-2.36,-2.36,-2.37
238.26,-0.59,1.76,-0.61,1.74,-1.74,-0.98,-0.56,-2.33,-2.34,-2.36
240.64,-0.68,1.64,-0.67,1.65,-1.65,-0.92,-0.54,-2.33,-2.32,-2.33
243.05,-0.77,1.52,-0.75,1.56,-1.56,-0.87,-0.53,-2.33,-2.30,-2.30
245.48,-0.82,1.45,-0.82,1.46,-1.46,-0.81,-0.51,-2.28,-2.28,-2.28
247.93,-0.92,1.32,-0.91,1.35,-1.35,-0.76,-0.49,-2.27,-2.26,-2.25
250.41,-1.00,1.22,-0.99,1.24,-1.24,-0.70,-0.47,-2.24,-2.23,-2.23
252.92,-1.08,1.11,-1.08,1.12,-1.12,-0.65,-0.45,-2.21,-2.21,-2.20
255.45,-1.12,1.05,-1.18,1.00,-1.00,-0.59,-0.43,-2.12,-2.18,-2.18
258.00,-1.23,0.92,-1.29,0.87,-0.87,-0.54,-0.40,-2.10,-2.16,-2.16
260.58,-1.41,0.72,-1.41,0.73,-0.73,-0.49,-0.38,-2.14,-2.13,-2.14
263.19,-1.53,0.57,-1.54,0.57,-0.57,-0.43,-0.35,-2.10,-2.11,-2.11
265.82,-1.65,0.43,-1.67,0.41,-0.41,-0.37,-0.32,-2.06,-2.08,-2.09
268.48,-1.84,0.22,-1.81,0.25,-0.25,-0.32,-0.30,-2.09,-2.06,-2.07
271.16,-1.97,0.06,-1.97,0.07,-0.07,-0.26,-0.26,-2.04,-2.04,-2.04
273.87,-2.09,-0.08,-2.12,-0.11,0.11,-0.20,-0.23,-1.98,-2.01,-2.02
276.61,-2.24,-0.26,-2.28,-0.29,0.29,-0.14,-0.20,-1.95,-1.98,-1.99
279.38,-2.42,-0.47,-2.44,-0.48,0.48,-0.08,-0.17,-1.94,-1.96,-1.96
282.17,-2.63,-0.70,-2.60,-0.67,0.67,-0.01,-0.13,-1.96,-1.93,-1.94
284.99,-2.80,-0.91,-2.77,-0.87,0.87,0.06,-0.10,-1.93,-1.90,-1.90
287.84,-2.98,-1.11,-2.94,-1.06,1.06,0.13,-0.06,-1.92,-1.87,-1.88
290.72,-3.14,-1.30,-3.10,-1.26,1.26,0.20,-0.02,-1.88,-1.84,-1.85
293.63,-3.26,-1.45,-3.28,-1.46,1.46,0.28,0.02,-1.80,-1.81,-1.82
296.57,-3.43,-1.65,-3.44,-1.66,1.66,0.36,0.06,-1.77,-1.78,-1.79
299.53,-3.58,-1.83,-3.60,-1.85,1.85,0.45,0.10,-1.74,-1.76,-1.76
302.53,-3.69,-1.96,-3.77,-2.04,2.04,0.55,0.14,-1.66,-1.73,-1.74
305.55,-3.85,-2.16,-3.92,-2.22,2.22,0.65,0.18,-1.63,-1.70,-1.70
308.61,-4.09,-2.42,-4.08,-2.40,2.40,0.76,0.22,-1.70,-1.68,-1.68
311.69,-4.28,-2.64,-4.22,-2.56,2.56,0.87,0.27,-1.72,-1.66,-1.65
314.81,-4.41,-2.79,-4.36,-2.72,2.72,1.00,0.31,-1.69,-1.63,-1.63
317.96,-4.53,-2.93,-4.49,-2.88,2.88,1.13,0.36,-1.65,-1.61,-1.61
321.14,-4.65,-3.06,-4.62,-3.03,3.03,1.28,0.40,-1.63,-1.59,-1.60
324.35,-4.74,-3.17,-4.75,-3.17,3.17,1.44,0.45,-1.57,-1.58,-1.58
327.59,-4.79,-3.23,-4.87,-3.30,3.30,1.61,0.50,-1.49,-1.56,-1.57
330.87,-4.96,-3.41,-4.97,-3.42,3.42,1.79,0.54,-1.54,-1.55,-1.56
334.18,-5.09,-3.56,-5.07,-3.53,3.53,1.99,0.59,-1.56,-1.54,-1.54
337.52,-5.13,-3.61,-5.16,-3.63,3.63,2.20,0.64,-1.50,-1.53,-1.53
340.90,-5.22,-3.71,-5.24,-3.72,3.72,2.42,0.69,-1.50,-1.52,-1.52
344.30,-5.28,-3.78,-5.31,-3.79,3.79,2.65,0.74,-1.49,-1.51,-1.51
347.75,-5.35,-3.85,-5.36,-3.85,3.85,2.88,0.80,-1.50,-1.51,-1.51
351.23,-5.43,-3.94,-5.41,-3.91,3.91,3.11,0.85,-1.52,-1.50,-1.50
354.74,-5.47,-3.97,-5.44,-3.94,3.94,3.34,0.90,-1.53,-1.50,-1.51
358.28,-5.48,-3.99,-5.45,-3.95,3.95,3.54,0.95,-1.53,-1.50,-1.50
361.87,-5.44,-3.95,-5.45,-3.95,3.95,3.72,1.01,-1.49,-1.49,-1.50
365.49,-5.46,-3.98,-5.43,-3.93,3.93,3.85,1.06,-1.53,-1.49,-1.49
369.14,-5.46,-3.97,-5.39,-3.89,3.89,3.94,1.12,-1.57,-1.49,-1.50
372.83,-5.42,-3.93,-5.34,-3.85,3.85,3.97,1.18,-1.57,-1.50,-1.50
376.56,-5.33,-3.83,-5.28,-3.79,3.79,3.95,1.23,-1.55,-1.50,-1.51
380.33,-5.18,-3.69,-5.21,-3.70,3.70,3.86,1.29,-1.48,-1.50,-1.50
384.13,-5.09,-3.60,-5.13,-3.62,3.62,3.73,1.35,-1.47,-1.50,-1.50
387.97,-5.01,-3.51,-5.04,-3.53,3.53,3.57,1.41,-1.48,-1.51,-1.51
391.85,-4.86,-3.35,-4.95,-3.44,3.44,3.37,1.46,-1.42,-1.51,-1.52
395.77,-4.82,-3.32,-4.85,-3.34,3.34,3.16,1.52,-1.49,-1.52,-1.51
399.73,-4.78,-3.27,-4.76,-3.24,3.24,2.94,1.58,-1.54,-1.52,-1.52
403.72,-4.63,-3.12,-4.68,-3.15,3.15,2.72,1.64,-1.48,-1.53,-1.52
407.76,-4.57,-3.04,-4.58,-3.05,3.05,2.51,1.70,-1.53,-1.53,-1.54
411.84,-4.49,-2.96,-4.48,-2.95,2.95,2.31,1.76,-1.54,-1.54,-1.54
415.96,-4.31,-2.78,-4.40,-2.86,2.86,2.12,1.82,-1.45,-1.54,-1.54
420.12,-4.32,-2.79,-4.32,-2.78,2.78,1.94,1.87,-1.54,-1.53,-1.54
424.32,-4.33,-2.80,-4.24,-2.71,2.71,1.77,1.93,-1.62,-1.53,-1.54
428.56,-4.14,-2.62,-4.15,-2.63,2.63,1.62,1.98,-1.51,-1.52,-1.53
432.85,-4.02,-2.51,-4.06,-2.55,2.55,1.48,2.03,-1.47,-1.50,-1.52
437.18,-3.95,-2.45,-3.95,-2.47,2.47,1.35,2.09,-1.48,-1.48,-1.51
441.55,-3.92,-2.46,-3.84,-2.39,2.39,1.24,2.13,-1.54,-1.46,-1.47
445.96,-3.73,-2.30,-3.73,-2.30,2.30,1.13,2.18,-1.43,-1.43,-1.44
450.42,-3.56,-2.16,-3.61,-2.22,2.22,1.03,2.22,-1.34,-1.39,-1.41
454.93,-3.52,-2.17,-3.48,-2.13,2.13,0.95,2.26,-1.39,-1.35,-1.36
459.48,-3.48,-2.17,-3.35,-2.04,2.04,0.87,2.30,-1.44,-1.30,-1.32
464.07,-3.28,-2.02,-3.22,-1.96,1.96,0.79,2.34,-1.32,-1.26,-1.27
468.71,-3.10,-1.90,-3.08,-1.87,1.87,0.73,2.36,-1.23,-1.21,-1.21
473.40,-2.89,-1.73,-2.96,-1.80,1.80,0.66,2.39,-1.10,-1.16,-1.17
478.13,-2.77,-1.67,-2.84,-1.73,1.73,0.61,2.41,-1.04,-1.11,-1.11
482.91,-2.65,-1.59,-2.72,-1.65,1.65,0.56,2.43,-1.00,-1.07,-1.07
