frequency,raw,error,smoothed,error_smoothed,equalization,parametric_eq,fixed_band_eq,equalized_raw,equalized_smoothed,target
20.00,19.31,9.36,19.31,9.36,-9.36,-9.28,-4.76,9.95,9.95,9.96
20.20,19.34,9.39,19.34,9.38,-9.38,-9.31,-4.88,9.96,9.95,9.96
20.40,19.36,9.41,19.37,9.41,-9.41,-9.34,-5.01,9.95,9.95,9.96
20.61,19.39,9.44,19.39,9.44,-9.44,-9.38,-5.14,9.95,9.95,9.96
20.81,19.42,9.48,19.42,9.47,-9.47,-9.41,-5.28,9.95,9.95,9.95
21.02,19.45,9.51,19.45,9.50,-9.50,-9.44,-5.41,9.95,9.95,9.95
21.23,19.47,9.53,19.47,9.53,-9.53,-9.47,-5.56,9.94,9.95,9.95
21.44,19.50,9.55,19.50,9.55,-9.56,-9.51,-5.70,9.94,9.95,9.96
21.66,19.53,9.59,19.53,9.58,-9.59,-9.54,-5.85,9.94,9.94,9.95
21.87,19.56,9.62,19.56,9.62,-9.62,-9.57,-6.00,9.94,9.94,9.95
22.09,19.59,9.66,19.59,9.65,-9.65,-9.60,-6.16,9.94,9.94,9.94
22.31,19.61,9.68,19.62,9.68,-9.68,-9.63,-6.32,9.93,9.93,9.94
22.54,19.64,9.72,19.64,9.71,-9.71,-9.65,-6.49,9.93,9.93,9.93
22.76,19.67,9.75,19.67,9.75,-9.75,-9.68,-6.66,9.92,9.92,9.93
22.99,19.69,9.78,19.70,9.78,-9.78,-9.71,-6.84,9.91,9.91,9.92
23.22,19.72,9.82,19.72,9.81,-9.81,-9.74,-7.01,9.91,9.91,9.91
23.45,19.74,9.84,19.74,9.84,-9.84,-9.76,-7.20,9.90,9.90,9.91
23.69,19.76,9.87,19.76,9.87,-9.86,-9.79,-7.39,9.90,9.90,9.90
23.92,19.78,9.90,19.78,9.89,-9.89,-9.82,-7.58,9.89,9.90,9.89
24.16,19.80,9.92,19.80,9.91,-9.91,-9.84,-7.77,9.89,9.89,9.89
24.40,19.81,9.93,19.81,9.93,-9.93,-9.86,-7.97,9.88,9.88,9.89
24.65,19.82,9.94,19.83,9.94,-9.95,-9.89,-8.18,9.87,9.88,9.89
24.89,19.84,9.96,19.84,9.96,-9.96,-9.91,-8.39,9.88,9.88,9.89
25.14,19.85,9.98,19.85,9.97,-9.98,-9.93,-8.60,9.87,9.87,9.88
25.39,19.86,10.00,19.86,9.99,-9.99,-9.96,-8.81,9.87,9.87,9.87
25.65,19.87,10.01,19.87,10.01,-10.00,-9.98,-9.03,9.87,9.87,9.87
25.91,19.89,10.03,19.89,10.02,-10.02,-10.00,-9.25,9.87,9.87,9.87
26.16,19.90,10.03,19.90,10.03,-10.03,-10.02,-9.47,9.87,9.87,9.88
26.43,19.91,10.04,19.91,10.04,-10.04,-10.04,-9.69,9.87,9.87,9.88
26.69,19.92,10.05,19.92,10.05,-10.05,-10.06,-9.91,9.87,9.87,9.88
26.96,19.93,10.07,19.93,10.06,-10.06,-10.08,-10.13,9.87,9.87,9.87
27.23,19.94,10.08,19.94,10.07,-10.07,-10.09,-10.35,9.87,9.87,9.87
27.50,19.94,10.08,19.95,10.08,-10.08,-10.11,-10.57,9.86,9.87,9.87
27.77,19.95,10.08,19.95,10.08,-10.09,-10.13,-10.79,9.87,9.87,9.88
28.05,19.96,10.10,19.96,10.09,-10.10,-10.15,-10.99,9.87,9.86,9.87
28.33,19.96,10.11,19.96,10.11,-10.11,-10.16,-11.19,9.86,9.86,9.86
28.62,19.97,10.13,19.97,10.12,-10.12,-10.18,-11.39,9.86,9.85,9.85
28.90,19.97,10.12,19.97,10.12,-10.13,-10.19,-11.57,9.84,9.85,9.86
29.19,19.98,10.14,19.98,10.14,-10.14,-10.21,-11.74,9.84,9.84,9.85
29.48,19.98,10.15,19.99,10.15,-10.15,-10.22,-11.90,9.83,9.84,9.84
29.78,20.00,10.18,19.99,10.17,-10.16,-10.23,-12.04,9.84,9.83,9.83
30.08,20.00,10.18,20.00,10.18,-10.18,-10.24,-12.16,9.82,9.82,9.83
30.38,20.00,10.19,20.01,10.19,-10.19,-10.26,-12.27,9.81,9.82,9.82
30.68,20.01,10.21,20.01,10.20,-10.20,-10.27,-12.36,9.81,9.81,9.81
30.99,20.01,10.21,20.01,10.21,-10.21,-10.28,-12.42,9.80,9.81,9.81
31.30,20.02,10.22,20.02,10.22,-10.21,-10.29,-12.47,9.81,9.80,9.81
31.61,20.02,10.22,20.02,10.22,-10.22,-10.30,-12.50,9.80,9.80,9.81
31.93,20.03,10.24,20.03,10.23,-10.23,-10.31,-12.50,9.80,9.80,9.80
32.24,20.03,10.23,20.03,10.23,-10.23,-10.32,-12.49,9.80,9.80,9.81
32.57,20.03,10.24,20.04,10.24,-10.24,-10.32,-12.46,9.79,9.80,9.80
32.89,20.04,10.25,20.04,10.24,-10.24,-10.33,-12.41,9.80,9.79,9.80
33.22,20.04,10.25,20.04,10.25,-10.25,-10.34,-12.35,9.79,9.79,9.80
33.55,20.03,10.25,20.04,10.25,-10.25,-10.34,-12.27,9.78,9.78,9.79
33.89,20.04,10.27,20.04,10.26,-10.26,-10.35,-12.18,9.78,9.77,9.78
34.23,20.03,10.28,20.03,10.27,-10.27,-10.36,-12.08,9.76,9.76,9.76
34.57,20.03,10.28,20.03,10.28,-10.28,-10.36,-11.97,9.75,9.75,9.76
34.92,20.02,10.29,20.03,10.29,-10.29,-10.36,-11.85,9.73,9.74,9.74
35.27,20.02,10.30,20.02,10.30,-10.30,-10.37,-11.73,9.72,9.72,9.73
35.62,20.01,10.32,20.01,10.31,-10.31,-10.37,-11.60,9.70,9.70,9.70
35.97,19.99,10.32,20.00,10.32,-10.32,-10.37,-11.47,9.67,9.67,9.68
36.33,19.98,10.34,19.98,10.33,-10.34,-10.38,-11.35,9.65,9.64,9.65
36.70,19.96,10.35,19.96,10.35,-10.35,-10.38,-11.22,9.61,9.62,9.62
37.06,19.95,10.37,19.95,10.36,-10.36,-10.38,-11.09,9.59,9.59,9.59
37.43,19.93,10.38,19.93,10.38,-10.37,-10.38,-10.96,9.56,9.56,9.56
37.81,19.91,10.39,19.91,10.39,-10.39,-10.38,-10.84,9.53,9.52,9.53
38.19,19.88,10.40,19.88,10.39,-10.40,-10.38,-10.72,9.49,9.49,9.49
38.57,19.86,10.40,19.86,10.40,-10.40,-10.38,-10.60,9.46,9.46,9.47
38.95,19.84,10.41,19.84,10.41,-10.41,-10.38,-10.49,9.43,9.43,9.43
39.34,19.82,10.43,19.82,10.42,-10.42,-10.38,-10.39,9.41,9.40,9.40
39.74,19.79,10.43,19.79,10.42,-10.42,-10.37,-10.29,9.37,9.37,9.37
40.14,19.77,10.43,19.77,10.42,-10.42,-10.37,-10.19,9.35,9.35,9.35
40.54,19.73,10.41,19.74,10.42,-10.42,-10.37,-10.11,9.31,9.32,9.33
40.94,19.71,10.42,19.71,10.42,-10.42,-10.36,-10.02,9.29,9.29,9.30
41.35,19.68,10.42,19.68,10.41,-10.41,-10.36,-9.95,9.27,9.27,9.27
41.76,19.65,10.42,19.65,10.41,-10.41,-10.36,-9.88,9.25,9.25,9.24
42.18,19.62,10.40,19.62,10.40,-10.40,-10.35,-9.81,9.22,9.22,9.23
42.60,19.58,10.39,19.58,10.39,-10.39,-10.35,-9.76,9.19,9.20,9.20
43.03,19.54,10.38,19.55,10.37,-10.38,-10.34,-9.71,9.17,9.17,9.17
43.46,19.51,10.37,19.51,10.36,-10.36,-10.33,-9.67,9.15,9.14,9.15
43.90,19.47,10.35,19.47,10.35,-10.35,-10.33,-9.63,9.12,9.12,9.13
44.33,19.43,10.35,19.44,10.34,-10.34,-10.32,-9.60,9.09,9.09,9.09
44.78,19.40,10.34,19.40,10.33,-10.33,-10.31,-9.58,9.07,9.07,9.07
45.23,19.36,10.31,19.36,10.32,-10.32,-10.30,-9.57,9.04,9.04,9.06
45.68,19.32,10.31,19.32,10.31,-10.32,-10.30,-9.56,9.01,9.01,9.02
46.13,19.29,10.33,19.29,10.31,-10.31,-10.29,-9.55,8.98,8.98,8.97
46.60,19.24,10.30,19.25,10.31,-10.30,-10.28,-9.56,8.94,8.95,8.95
47.06,19.21,10.31,19.21,10.30,-10.30,-10.27,-9.57,8.91,8.91,8.91
47.53,19.16,10.29,19.16,10.29,-10.29,-10.26,-9.59,8.87,8.87,8.88
48.01,19.11,10.30,19.11,10.29,-10.29,-10.25,-9.61,8.82,8.82,8.82
48.49,19.06,10.28,19.06,10.28,-10.28,-10.24,-9.64,8.78,8.78,8.79
48.97,19.01,10.28,19.01,10.28,-10.28,-10.23,-9.67,8.73,8.73,8.74
49.46,18.96,10.27,18.96,10.27,-10.28,-10.22,-9.71,8.68,8.68,8.70
49.96,18.91,10.29,18.91,10.28,-10.27,-10.21,-9.76,8.64,8.64,8.63
50.46,18.85,10.27,18.85,10.27,-10.26,-10.20,-9.81,8.59,8.59,8.59
50.96,18.80,10.27,18.80,10.26,-10.26,-10.19,-9.86,8.54,8.54,8.54
51.47,18.74,10.25,18.74,10.25,-10.25,-10.17,-9.92,8.49,8.50,8.50
51.99,18.69,10.25,18.69,10.24,-10.24,-10.16,-9.98,8.45,8.45,8.45
52.51,18.64,10.24,18.64,10.23,-10.23,-10.15,-10.04,8.41,8.40,8.41
53.03,18.58,10.21,18.58,10.22,-10.22,-10.14,-10.11,8.36,8.36,8.38
53.56,18.52,10.20,18.53,10.21,-10.21,-10.12,-10.18,8.31,8.32,8.33
54.10,18.48,10.22,18.47,10.20,-10.20,-10.11,-10.24,8.28,8.27,8.27
54.64,18.42,10.20,18.42,10.20,-10.20,-10.10,-10.31,8.23,8.22,8.23
55.18,18.36,10.20,18.36,10.19,-10.19,-10.08,-10.38,8.17,8.17,8.17
55.74,18.30,10.18,18.31,10.18,-10.19,-10.07,-10.45,8.12,8.12,8.13
56.29,18.26,10.18,18.26,10.18,-10.18,-10.06,-10.51,8.08,8.08,8.09
56.86,18.21,10.17,18.21,10.17,-10.17,-10.04,-10.57,8.04,8.04,8.05
57.42,18.16,10.18,18.16,10.17,-10.16,-10.03,-10.63,8.00,8.00,7.99
58.00,18.11,10.17,18.11,10.16,-10.15,-10.01,-10.68,7.96,7.96,7.95
58.58,18.06,10.15,18.06,10.15,-10.14,-10.00,-10.73,7.92,7.92,7.92
59.16,18.00,10.13,18.00,10.13,-10.13,-9.98,-10.76,7.87,7.87,7.88
59.76,17.94,10.11,17.94,10.11,-10.12,-9.97,-10.79,7.82,7.82,7.84
60.35,17.88,10.12,17.88,10.11,-10.11,-9.95,-10.82,7.77,7.77,7.77
60.96,17.81,10.10,17.81,10.10,-10.10,-9.94,-10.83,7.71,7.71,7.72
61.57,17.73,10.10,17.73,10.09,-10.09,-9.92,-10.84,7.64,7.64,7.64
62.18,17.65,10.08,17.65,10.08,-10.08,-9.91,-10.83,7.57,7.58,7.58
62.80,17.58,10.07,17.58,10.07,-10.06,-9.89,-10.82,7.52,7.51,7.51
63.43,17.50,10.06,17.50,10.05,-10.05,-9.87,-10.79,7.45,7.45,7.45
64.07,17.43,10.04,17.43,10.04,-10.04,-9.86,-10.76,7.40,7.40,7.40
64.71,17.36,10.02,17.36,10.02,-10.02,-9.84,-10.72,7.34,7.34,7.35
65.35,17.29,10.00,17.29,10.00,-10.00,-9.83,-10.67,7.29,7.29,7.30
66.01,17.22,9.99,17.22,9.98,-9.98,-9.81,-10.61,7.24,7.24,7.24
66.67,17.15,9.96,17.15,9.96,-9.96,-9.79,-10.54,7.19,7.18,7.20
67.33,17.07,9.95,17.08,9.95,-9.94,-9.78,-10.46,7.13,7.13,7.13
68.01,17.00,9.93,17.00,9.93,-9.92,-9.76,-10.38,7.08,7.08,7.08
68.69,16.93,9.92,16.92,9.91,-9.90,-9.75,-10.30,7.03,7.02,7.02
69.37,16.84,9.88,16.85,9.88,-9.88,-9.73,-10.21,6.96,6.96,6.97
70.07,16.77,9.86,16.77,9.86,-9.86,-9.71,-10.12,6.91,6.91,6.92
70.77,16.69,9.84,16.69,9.84,-9.84,-9.70,-10.02,6.85,6.85,6.86
71.48,16.62,9.83,16.62,9.82,-9.82,-9.68,-9.92,6.80,6.79,6.80
72.19,16.53,9.81,16.54,9.81,-9.80,-9.66,-9.82,6.73,6.73,6.73
72.91,16.46,9.79,16.46,9.79,-9.78,-9.65,-9.73,6.68,6.67,6.68
73.64,16.38,9.78,16.38,9.77,-9.77,-9.63,-9.63,6.62,6.61,6.61
74.38,16.29,9.75,16.30,9.75,-9.75,-9.62,-9.53,6.55,6.55,6.55
75.12,16.22,9.73,16.22,9.72,-9.73,-9.60,-9.44,6.49,6.50,6.50
75.87,16.15,9.70,16.15,9.70,-9.71,-9.58,-9.35,6.44,6.44,6.46
76.63,16.08,9.69,16.08,9.69,-9.68,-9.57,-9.26,6.40,6.39,6.40
77.40,16.00,9.67,16.00,9.66,-9.66,-9.55,-9.17,6.34,6.34,6.34
78.17,15.93,9.66,15.93,9.64,-9.64,-9.54,-9.09,6.29,6.29,6.28
78.95,15.85,9.61,15.86,9.62,-9.62,-9.52,-9.02,6.23,6.23,6.25
79.74,15.79,9.61,15.79,9.60,-9.60,-9.50,-8.95,6.19,6.18,6.19
80.54,15.71,9.59,15.72,9.58,-9.58,-9.49,-8.88,6.13,6.13,6.13
81.35,15.65,9.57,15.65,9.56,-9.57,-9.47,-8.82,6.09,6.08,6.09
82.16,15.57,9.54,15.57,9.54,-9.55,-9.46,-8.76,6.03,6.03,6.04
82.98,15.50,9.53,15.51,9.53,-9.53,-9.44,-8.71,5.97,5.98,5.98
83.81,15.44,9.52,15.43,9.51,-9.51,-9.43,-8.67,5.93,5.92,5.93
84.65,15.36,9.50,15.37,9.50,-9.49,-9.41,-8.63,5.87,5.87,5.87
85.50,15.29,9.48,15.29,9.48,-9.47,-9.40,-8.59,5.82,5.82,5.82
86.35,15.22,9.46,15.22,9.45,-9.46,-9.38,-8.57,5.77,5.76,5.77
87.22,15.14,9.43,15.14,9.43,-9.44,-9.37,-8.55,5.71,5.71,5.72
88.09,15.07,9.42,15.07,9.41,-9.42,-9.35,-8.53,5.65,5.66,5.66
88.97,15.00,9.40,15.00,9.40,-9.40,-9.34,-8.52,5.60,5.60,5.61
89.86,14.93,9.39,14.93,9.38,-9.38,-9.32,-8.52,5.55,5.55,5.55
90.76,14.85,9.37,14.85,9.36,-9.36,-9.31,-8.53,5.49,5.49,5.49
91.66,14.77,9.34,14.77,9.34,-9.34,-9.29,-8.53,5.43,5.43,5.44
92.58,14.69,9.32,14.69,9.32,-9.32,-9.28,-8.55,5.37,5.37,5.38
93.51,14.62,9.31,14.62,9.30,-9.30,-9.26,-8.57,5.32,5.31,5.32
94.44,14.54,9.29,14.54,9.29,-9.29,-9.25,-8.60,5.25,5.25,5.26
95.39,14.46,9.28,14.46,9.27,-9.27,-9.24,-8.63,5.19,5.18,5.19
96.34,14.37,9.26,14.38,9.26,-9.26,-9.22,-8.67,5.11,5.11,5.12
97.30,14.29,9.24,14.29,9.25,-9.25,-9.21,-8.72,5.04,5.04,5.06
98.28,14.22,9.26,14.21,9.24,-9.24,-9.20,-8.76,4.98,4.97,4.97
99.26,14.13,9.24,14.14,9.24,-9.23,-9.18,-8.82,4.90,4.91,4.90
100.25,14.06,9.23,14.06,9.23,-9.22,-9.17,-8.88,4.84,4.84,4.84
101.25,13.98,9.21,13.98,9.21,-9.21,-9.16,-8.94,4.77,4.77,4.78
102.27,13.91,9.20,13.91,9.20,-9.20,-9.14,-9.00,4.71,4.71,4.72
103.29,13.84,9.20,13.84,9.19,-9.19,-9.13,-9.07,4.65,4.65,4.65
104.32,13.77,9.18,13.77,9.18,-9.18,-9.12,-9.14,4.59,4.59,4.60
105.37,13.71,9.18,13.71,9.18,-9.17,-9.11,-9.22,4.54,4.53,4.54
106.42,13.64,9.17,13.64,9.17,-9.16,-9.09,-9.29,4.48,4.48,4.48
107.48,13.57,9.17,13.57,9.16,-9.15,-9.08,-9.37,4.42,4.42,4.41
108.56,13.50,9.15,13.50,9.14,-9.14,-9.07,-9.45,4.36,4.36,4.36
109.64,13.43,9.13,13.43,9.13,-9.13,-9.06,-9.52,4.30,4.30,4.31
110.74,13.35,9.12,13.36,9.12,-9.12,-9.05,-9.60,4.23,4.24,4.24
111.85,13.29,9.12,13.29,9.11,-9.11,-9.03,-9.67,4.18,4.18,4.18
112.97,13.21,9.10,13.21,9.10,-9.10,-9.02,-9.74,4.12,4.12,4.12
114.10,13.14,9.09,13.14,9.09,-9.09,-9.01,-9.80,4.06,4.05,4.06
115.24,13.05,9.07,13.06,9.07,-9.08,-9.00,-9.86,3.97,3.98,3.99
116.39,12.98,9.08,12.98,9.07,-9.07,-8.99,-9.92,3.91,3.91,3.91
117.55,12.91,9.07,12.91,9.07,-9.07,-8.98,-9.96,3.84,3.84,3.85
118.73,12.83,9.07,12.83,9.07,-9.07,-8.96,-10.00,3.77,3.77,3.77
119.92,12.76,9.07,12.76,9.06,-9.06,-8.95,-10.03,3.70,3.70,3.70
121.12,12.69,9.06,12.69,9.07,-9.06,-8.94,-10.05,3.63,3.63,3.64
122.33,12.63,9.08,12.63,9.07,-9.06,-8.93,-10.06,3.57,3.56,3.56
123.55,12.56,9.07,12.56,9.07,-9.07,-8.92,-10.06,3.49,3.49,3.50
124.79,12.49,9.07,12.49,9.07,-9.07,-8.91,-10.06,3.42,3.42,3.43
126.03,12.41,9.06,12.42,9.07,-9.07,-8.89,-10.04,3.34,3.34,3.36
127.29,12.34,9.08,12.34,9.07,-9.08,-8.88,-10.00,3.27,3.27,3.27
128.57,12.28,9.09,12.27,9.08,-9.08,-8.87,-9.96,3.20,3.19,3.20
129.85,12.19,9.08,12.20,9.08,-9.07,-8.86,-9.91,3.12,3.12,3.12
131.15,12.12,9.08,12.12,9.07,-9.07,-8.85,-9.85,3.05,3.05,3.05
132.46,12.04,9.07,12.04,9.07,-9.06,-8.83,-9.78,2.98,2.98,2.98
133.79,11.96,9.05,11.96,9.05,-9.05,-8.82,-9.71,2.92,2.92,2.92
135.12,11.88,9.04,11.88,9.03,-9.03,-8.81,-9.62,2.85,2.85,2.85
136.48,11.80,9.00,11.80,9.01,-9.01,-8.79,-9.53,2.80,2.80,2.81
137.84,11.72,8.98,11.72,8.98,-8.98,-8.78,-9.43,2.74,2.74,2.75
139.22,11.63,8.96,11.63,8.95,-8.95,-8.77,-9.33,2.68,2.68,2.68
140.61,11.54,8.91,11.55,8.92,-8.92,-8.75,-9.23,2.62,2.63,2.64
142.02,11.47,8.89,11.46,8.88,-8.88,-8.74,-9.12,2.59,2.58,2.59
143.44,11.38,8.86,11.38,8.85,-8.85,-8.72,-9.01,2.54,2.54,2.53
144.87,11.29,8.81,11.30,8.82,-8.81,-8.71,-8.89,2.48,2.49,2.49
146.32,11.21,8.78,11.21,8.77,-8.77,-8.69,-8.78,2.44,2.44,2.44
147.78,11.12,8.74,11.12,8.73,-8.74,-8.68,-8.67,2.39,2.38,2.39
149.26,11.03,8.69,11.04,8.69,-8.70,-8.66,-8.56,2.33,2.34,2.35
150.75,10.95,8.67,10.95,8.66,-8.67,-8.64,-8.45,2.29,2.29,2.29
152.26,10.88,8.63,10.88,8.63,-8.63,-8.63,-8.34,2.25,2.25,2.26
153.78,10.80,8.61,10.80,8.60,-8.60,-8.61,-8.24,2.20,2.20,2.20
155.32,10.73,8.58,10.73,8.57,-8.57,-8.59,-8.14,2.16,2.16,2.16
156.88,10.65,8.55,10.65,8.55,-8.55,-8.57,-8.04,2.11,2.11,2.11
158.44,10.57,8.52,10.57,8.52,-8.52,-8.55,-7.95,2.05,2.05,2.06
160.03,10.50,8.50,10.50,8.49,-8.49,-8.53,-7.85,2.01,2.00,2.01
161.63,10.41,8.46,10.42,8.47,-8.47,-8.50,-7.77,1.94,1.95,1.96
163.24,10.34,8.46,10.34,8.45,-8.44,-8.48,-7.69,1.90,1.90,1.89
164.88,10.26,8.42,10.26,8.42,-8.41,-8.46,-7.61,1.85,1.85,1.85
166.53,10.18,8.40,10.18,8.39,-8.38,-8.43,-7.54,1.80,1.79,1.79
168.19,10.09,8.35,10.09,8.35,-8.36,-8.41,-7.47,1.73,1.74,1.75
169.87,10.01,8.32,10.01,8.33,-8.33,-8.38,-7.41,1.68,1.68,1.70
171.57,9.93,8.31,9.93,8.30,-8.30,-8.35,-7.36,1.63,1.63,1.63
173.29,9.86,8.29,9.86,8.28,-8.28,-8.32,-7.31,1.58,1.58,1.58
175.02,9.78,8.25,9.78,8.25,-8.25,-8.29,-7.26,1.53,1.53,1.54
176.77,9.71,8.23,9.71,8.23,-8.23,-8.26,-7.22,1.48,1.48,1.49
178.54,9.64,8.21,9.64,8.21,-8.21,-8.23,-7.19,1.43,1.43,1.44
180.32,9.57,8.20,9.57,8.19,-8.19,-8.20,-7.16,1.38,1.38,1.38
182.13,9.50,8.17,9.50,8.17,-8.17,-8.16,-7.13,1.34,1.34,1.34
183.95,9.43,8.14,9.43,8.15,-8.15,-8.13,-7.11,1.28,1.29,1.30
185.79,9.37,8.14,9.37,8.13,-8.13,-8.09,-7.10,1.24,1.24,1.24
187.65,9.30,8.11,9.30,8.11,-8.11,-8.05,-7.09,1.19,1.19,1.20
189.52,9.23,8.09,9.23,8.09,-8.09,-8.01,-7.09,1.14,1.14,1.15
191.42,9.16,8.07,9.16,8.07,-8.07,-7.97,-7.09,1.09,1.09,1.10
193.33,9.10,8.06,9.10,8.05,-8.05,-7.93,-7.09,1.05,1.05,1.05
195.27,9.02,8.03,9.03,8.03,-8.03,-7.89,-7.10,1.00,1.00,1.00
197.22,8.96,8.02,8.96,8.01,-8.00,-7.84,-7.12,0.96,0.95,0.95
199.19,8.88,7.97,8.88,7.98,-7.97,-7.80,-7.13,0.91,0.91,0.92
201.18,8.81,7.95,8.82,7.95,-7.95,-7.75,-7.15,0.87,0.87,0.87
203.19,8.75,7.92,8.75,7.91,-7.92,-7.70,-7.18,0.84,0.83,0.84
205.23,8.68,7.89,8.68,7.88,-7.89,-7.65,-7.20,0.80,0.79,0.80
207.28,8.61,7.85,8.61,7.85,-7.85,-7.60,-7.23,0.76,0.76,0.77
209.35,8.53,7.81,8.54,7.82,-7.82,-7.54,-7.26,0.71,0.72,0.73
211.44,8.47,7.79,8.47,7.78,-7.78,-7.49,-7.29,0.69,0.68,0.69
213.56,8.40,7.76,8.40,7.75,-7.75,-7.43,-7.32,0.66,0.65,0.65
215.69,8.32,7.71,8.32,7.71,-7.70,-7.37,-7.36,0.62,0.62,0.62
217.85,8.24,7.66,8.24,7.66,-7.66,-7.31,-7.39,0.59,0.59,0.59
220.03,8.16,7.62,8.16,7.61,-7.60,-7.25,-7.42,0.56,0.56,0.55
222.23,8.07,7.55,8.07,7.55,-7.55,-7.19,-7.45,0.52,0.52,0.53
224.45,7.98,7.49,7.98,7.49,-7.49,-7.13,-7.47,0.49,0.49,0.50
226.70,7.88,7.42,7.89,7.42,-7.42,-7.06,-7.49,0.46,0.46,0.47
228.96,7.79,7.35,7.79,7.35,-7.35,-6.99,-7.51,0.44,0.44,0.45
231.25,7.70,7.28,7.70,7.28,-7.28,-6.93,-7.53,0.42,0.42,0.43
233.57,7.60,7.21,7.60,7.21,-7.20,-6.86,-7.53,0.40,0.40,0.40
235.90,7.50,7.14,7.50,7.13,-7.13,-6.79,-7.53,0.37,0.37,0.37
238.26,7.39,7.06,7.40,7.05,-7.05,-6.71,-7.53,0.34,0.35,0.34
240.64,7.29,6.96,7.29,6.96,-6.96,-6.64,-7.52,0.33,0.33,0.34
243.05,7.19,6.88,7.19,6.88,-6.88,-6.57,-7.49,0.31,0.31,0.32
245.48,7.08,6.80,7.08,6.79,-6.79,-6.49,-7.46,0.29,0.29,0.29
247.93,6.97,6.71,6.98,6.70,-6.70,-6.41,-7.43,0.27,0.28,0.27
250.41,6.87,6.61,6.87,6.61,-6.61,-6.34,-7.38,0.26,0.26,0.27
252.92,6.77,6.52,6.77,6.52,-6.52,-6.26,-7.32,0.25,0.25,0.26
255.45,6.66,6.43,6.66,6.42,-6.43,-6.18,-7.26,0.23,0.23,0.24
258.00,6.56,6.34,6.56,6.34,-6.34,-6.10,-7.18,0.22,0.22,0.23
260.58,6.46,6.25,6.46,6.25,-6.25,-6.01,-7.10,0.21,0.21,0.22
263.19,6.36,6.17,6.36,6.16,-6.16,-5.93,-7.01,0.20,0.20,0.20
265.82,6.26,6.08,6.26,6.07,-6.07,-5.85,-6.91,0.19,0.19,0.19
268.48,6.15,5.98,6.15,5.98,-5.98,-5.76,-6.80,0.17,0.17,0.18
271.16,6.04,5.89,6.04,5.88,-5.89,-5.68,-6.69,0.16,0.16,0.16
273.87,5.93,5.79,5.93,5.79,-5.79,-5.59,-6.57,0.14,0.14,0.15
276.61,5.82,5.70,5.82,5.70,-5.70,-5.51,-6.44,0.12,0.12,0.13
279.38,5.71,5.61,5.71,5.60,-5.60,-5.42,-6.31,0.11,0.11,0.11
282.17,5.61,5.52,5.61,5.50,-5.50,-5.33,-6.18,0.11,0.10,0.10
284.99,5.50,5.40,5.50,5.41,-5.41,-5.24,-6.04,0.09,0.09,0.11
287.84,5.39,5.30,5.40,5.31,-5.31,-5.15,-5.90,0.08,0.09,0.10
290.72,5.29,5.23,5.29,5.21,-5.21,-5.06,-5.75,0.08,0.08,0.07
293.63,5.18,5.11,5.18,5.11,-5.11,-4.97,-5.61,0.07,0.07,0.08
296.57,5.07,5.01,5.07,5.01,-5.00,-4.88,-5.46,0.07,0.07,0.07
299.53,4.96,4.91,4.96,4.90,-4.90,-4.79,-5.32,0.06,0.06,0.06
302.53,4.85,4.80,4.85,4.80,-4.80,-4.70,-5.17,0.05,0.05,0.06
305.55,4.75,4.71,4.74,4.70,-4.70,-4.61,-5.02,0.05,0.04,0.05
308.61,4.63,4.59,4.64,4.60,-4.60,-4.52,-4.88,0.03,0.04,0.05
311.69,4.53,4.50,4.53,4.50,-4.50,-4.42,-4.73,0.03,0.03,0.04
314.81,4.44,4.41,4.43,4.40,-4.40,-4.33,-4.58,0.04,0.03,0.04
317.96,4.33,4.31,4.34,4.31,-4.30,-4.24,-4.44,0.03,0.04,0.03
321.14,4.24,4.21,4.24,4.21,-4.20,-4.15,-4.30,0.04,0.03,0.04
324.35,4.13,4.12,4.13,4.10,-4.11,-4.06,-4.16,0.02,0.03,0.02
327.59,4.03,4.00,4.03,4.01,-4.01,-3.96,-4.02,0.02,0.02,0.04
330.87,3.93,3.91,3.93,3.91,-3.91,-3.87,-3.88,0.02,0.02,0.03
334.18,3.84,3.83,3.84,3.82,-3.82,-3.78,-3.75,0.03,0.02,0.02
337.52,3.74,3.72,3.74,3.73,-3.72,-3.69,-3.61,0.02,0.02,0.03
340.90,3.65,3.64,3.65,3.62,-3.63,-3.59,-3.48,0.03,0.02,0.02
344.30,3.55,3.53,3.55,3.53,-3.53,-3.50,-3.35,0.02,0.02,0.03
347.75,3.46,3.43,3.47,3.44,-3.44,-3.41,-3.23,0.02,0.02,0.04
351.23,3.38,3.37,3.38,3.35,-3.35,-3.32,-3.10,0.03,0.02,0.02
354.74,3.29,3.26,3.29,3.26,-3.26,-3.23,-2.98,0.03,0.03,0.04
358.28,3.20,3.18,3.21,3.18,-3.17,-3.14,-2.86,0.03,0.03,0.03
361.87,3.12,3.10,3.12,3.09,-3.09,-3.05,-2.74,0.03,0.03,0.03
365.49,3.03,3.01,3.03,3.00,-3.00,-2.95,-2.63,0.03,0.03,0.03
369.14,2.94,2.91,2.94,2.91,-2.92,-2.86,-2.51,0.02,0.03,0.04
372.83,2.86,2.83,2.86,2.83,-2.83,-2.77,-2.40,0.03,0.03,0.04
376.56,2.77,2.75,2.77,2.75,-2.75,-2.68,-2.29,0.03,0.03,0.03
380.33,2.69,2.67,2.69,2.67,-2.66,-2.60,-2.19,0.03,0.03,0.03
384.13,2.61,2.59,2.61,2.58,-2.58,-2.51,-2.08,0.03,0.03,0.03
387.97,2.52,2.49,2.52,2.49,-2.49,-2.42,-1.98,0.03,0.03,0.04
391.85,2.43,2.41,2.44,2.41,-2.41,-2.33,-1.88,0.02,0.03,0.03
395.77,2.35,2.33,2.35,2.32,-2.32,-2.24,-1.78,0.03,0.03,0.03
399.73,2.27,2.25,2.27,2.24,-2.24,-2.15,-1.68,0.03,0.03,0.03
403.72,2.19,2.16,2.19,2.16,-2.16,-2.07,-1.58,0.03,0.03,0.04
407.76,2.10,2.07,2.11,2.07,-2.07,-1.98,-1.49,0.03,0.03,0.04
411.84,2.02,1.99,2.02,1.99,-1.99,-1.90,-1.40,0.03,0.03,0.04
415.96,1.94,1.91,1.94,1.91,-1.90,-1.81,-1.31,0.04,0.03,0.04
420.12,1.85,1.83,1.85,1.83,-1.82,-1.72,-1.22,0.03,0.03,0.03
424.32,1.77,1.75,1.77,1.74,-1.74,-1.64,-1.13,0.03,0.03,0.03
428.56,1.68,1.65,1.68,1.65,-1.65,-1.56,-1.05,0.03,0.03,0.04
432.85,1.60,1.57,1.60,1.57,-1.57,-1.47,-0.96,0.03,0.03,0.04
437.18,1.51,1.49,1.51,1.49,-1.49,-1.39,-0.88,0.02,0.02,0.03
441.55,1.43,1.41,1.43,1.41,-1.41,-1.31,-0.80,0.02,0.02,0.03
445.96,1.35,1.34,1.35,1.33,-1.33,-1.22,-0.72,0.03,0.02,0.02
450.42,1.26,1.25,1.26,1.25,-1.24,-1.14,-0.65,0.02,0.02,0.02
454.93,1.18,1.17,1.18,1.16,-1.16,-1.06,-0.58,0.02,0.02,0.02
459.48,1.09,1.08,1.09,1.08,-1.08,-0.98,-0.50,0.02,0.02,0.02
464.07,1.01,0.99,1.01,0.99,-0.99,-0.90,-0.44,0.02,0.02,0.03
468.71,0.93,0.91,0.93,0.90,-0.91,-0.82,-0.37,0.02,0.02,0.03
473.40,0.85,0.83,0.85,0.82,-0.83,-0.74,-0.30,0.03,0.02,0.03
