frequency,raw,error,smoothed,error_smoothed,equalization,parametric_eq,fixed_band_eq,equalized_raw,equalized_smoothed,target
20.00,7.30,2.04,7.30,2.04,-2.04,-2.07,-1.56,5.25,5.25,5.25
20.20,7.35,2.05,7.34,2.05,-2.05,-2.10,-1.60,5.30,5.29,5.29
20.40,7.39,2.06,7.39,2.06,-2.06,-2.13,-1.64,5.33,5.33,5.32
20.61,7.44,2.08,7.44,2.08,-2.07,-2.16,-1.69,5.36,5.36,5.35
20.81,7.49,2.09,7.49,2.09,-2.09,-2.20,-1.73,5.39,5.39,5.39
21.02,7.54,2.10,7.54,2.11,-2.12,-2.23,-1.78,5.42,5.42,5.43
21.23,7.59,2.14,7.59,2.14,-2.14,-2.26,-1.83,5.44,5.44,5.44
21.44,7.64,2.17,7.64,2.17,-2.17,-2.30,-1.88,5.46,5.46,5.46
21.66,7.70,2.21,7.69,2.21,-2.21,-2.33,-1.93,5.48,5.48,5.48
21.87,7.75,2.25,7.75,2.25,-2.26,-2.37,-1.98,5.49,5.49,5.49
22.09,7.80,2.29,7.80,2.30,-2.30,-2.40,-2.04,5.49,5.50,5.50
22.31,7.86,2.35,7.86,2.35,-2.35,-2.44,-2.09,5.51,5.50,5.50
22.54,7.92,2.40,7.92,2.40,-2.40,-2.47,-2.15,5.52,5.52,5.51
22.76,7.98,2.45,7.98,2.46,-2.45,-2.51,-2.21,5.53,5.53,5.52
22.99,8.04,2.51,8.03,2.50,-2.49,-2.54,-2.27,5.55,5.54,5.52
23.22,8.08,2.54,8.08,2.54,-2.53,-2.58,-2.33,5.55,5.55,5.53
23.45,8.12,2.57,8.12,2.57,-2.57,-2.62,-2.39,5.55,5.55,5.54
23.69,8.16,2.60,8.16,2.60,-2.61,-2.66,-2.46,5.55,5.55,5.55
23.92,8.21,2.64,8.21,2.64,-2.65,-2.69,-2.52,5.56,5.56,5.56
24.16,8.26,2.68,8.25,2.68,-2.69,-2.73,-2.59,5.57,5.56,5.57
24.40,8.31,2.72,8.31,2.73,-2.74,-2.77,-2.66,5.57,5.57,5.58
24.65,8.36,2.78,8.36,2.78,-2.79,-2.81,-2.72,5.57,5.57,5.57
24.89,8.42,2.84,8.41,2.84,-2.84,-2.85,-2.79,5.58,5.57,5.57
25.14,8.47,2.89,8.47,2.89,-2.90,-2.89,-2.86,5.57,5.57,5.57
25.39,8.53,2.95,8.53,2.96,-2.96,-2.93,-2.94,5.57,5.57,5.57
25.65,8.59,3.01,8.59,3.02,-3.02,-2.97,-3.01,5.57,5.57,5.57
25.91,8.65,3.09,8.64,3.08,-3.07,-3.01,-3.08,5.57,5.57,5.55
26.16,8.70,3.13,8.69,3.13,-3.12,-3.05,-3.15,5.57,5.57,5.56
26.43,8.74,3.17,8.74,3.18,-3.17,-3.09,-3.22,5.57,5.57,5.56
26.69,8.79,3.22,8.78,3.22,-3.21,-3.13,-3.30,5.58,5.58,5.56
26.96,8.83,3.26,8.82,3.25,-3.24,-3.17,-3.37,5.58,5.58,5.56
27.23,8.85,3.28,8.85,3.28,-3.28,-3.21,-3.44,5.57,5.57,5.56
27.50,8.87,3.30,8.86,3.30,-3.31,-3.25,-3.51,5.55,5.55,5.56
27.77,8.89,3.33,8.89,3.33,-3.35,-3.30,-3.58,5.54,5.53,5.55
28.05,8.91,3.35,8.92,3.37,-3.40,-3.34,-3.64,5.51,5.52,5.55
28.33,8.98,3.44,8.97,3.43,-3.45,-3.38,-3.71,5.53,5.53,5.53
28.62,9.04,3.49,9.04,3.49,-3.50,-3.42,-3.77,5.53,5.53,5.54
28.90,9.11,3.56,9.10,3.57,-3.56,-3.47,-3.83,5.55,5.54,5.54
29.19,9.17,3.63,9.17,3.63,-3.61,-3.51,-3.89,5.55,5.55,5.53
29.48,9.23,3.68,9.23,3.69,-3.67,-3.56,-3.94,5.56,5.57,5.54
29.78,9.29,3.74,9.28,3.74,-3.71,-3.60,-3.99,5.57,5.57,5.54
30.08,9.33,3.78,9.32,3.78,-3.76,-3.64,-4.04,5.57,5.56,5.54
30.38,9.34,3.81,9.33,3.80,-3.80,-3.69,-4.09,5.53,5.53,5.52
30.68,9.34,3.81,9.34,3.82,-3.85,-3.73,-4.13,5.49,5.49,5.52
30.99,9.35,3.83,9.36,3.85,-3.89,-3.78,-4.17,5.46,5.48,5.51
31.30,9.42,3.90,9.42,3.90,-3.92,-3.82,-4.20,5.49,5.49,5.51
31.61,9.49,3.97,9.48,3.98,-3.96,-3.87,-4.23,5.52,5.52,5.51
31.93,9.56,4.06,9.54,4.04,-4.00,-3.91,-4.26,5.55,5.54,5.49
32.24,9.58,4.09,9.57,4.08,-4.05,-3.96,-4.28,5.53,5.52,5.48
32.57,9.58,4.09,9.58,4.09,-4.10,-4.01,-4.30,5.48,5.48,5.48
32.89,9.58,4.09,9.59,4.11,-4.14,-4.05,-4.32,5.43,5.45,5.48
33.22,9.63,4.14,9.64,4.16,-4.18,-4.10,-4.33,5.44,5.45,5.48
33.55,9.71,4.23,9.70,4.22,-4.22,-4.14,-4.35,5.49,5.48,5.47
33.89,9.78,4.30,9.76,4.29,-4.26,-4.19,-4.35,5.52,5.51,5.47
34.23,9.81,4.33,9.79,4.33,-4.30,-4.24,-4.36,5.50,5.49,5.47
34.57,9.81,4.34,9.81,4.34,-4.35,-4.28,-4.37,5.45,5.45,5.46
34.92,9.81,4.35,9.83,4.37,-4.41,-4.33,-4.37,5.40,5.42,5.45
35.27,9.87,4.41,9.87,4.43,-4.45,-4.38,-4.38,5.41,5.42,5.45
35.62,9.95,4.50,9.94,4.50,-4.49,-4.43,-4.38,5.46,5.45,5.44
35.97,10.02,4.58,10.00,4.56,-4.52,-4.47,-4.38,5.50,5.48,5.43
36.33,10.03,4.59,10.03,4.60,-4.55,-4.52,-4.38,5.48,5.48,5.43
36.70,10.04,4.60,10.04,4.61,-4.58,-4.57,-4.38,5.45,5.46,5.43
37.06,10.04,4.62,10.03,4.61,-4.62,-4.61,-4.39,5.41,5.41,5.41
37.43,10.04,4.62,10.03,4.62,-4.66,-4.66,-4.39,5.38,5.37,5.41
37.81,10.04,4.63,10.05,4.64,-4.70,-4.71,-4.40,5.34,5.35,5.40
38.19,10.08,4.68,10.10,4.70,-4.73,-4.76,-4.40,5.34,5.36,5.39
38.57,10.17,4.77,10.16,4.77,-4.77,-4.80,-4.41,5.40,5.40,5.39
38.95,10.26,4.87,10.23,4.85,-4.80,-4.85,-4.42,5.46,5.43,5.38
39.34,10.27,4.89,10.27,4.89,-4.84,-4.90,-4.44,5.43,5.43,5.37
39.74,10.27,4.91,10.27,4.91,-4.87,-4.95,-4.45,5.39,5.40,5.35
40.14,10.27,4.90,10.26,4.90,-4.91,-4.99,-4.47,5.35,5.35,5.36
40.54,10.27,4.91,10.26,4.91,-4.95,-5.04,-4.49,5.32,5.31,5.35
40.94,10.27,4.91,10.29,4.94,-4.99,-5.09,-4.52,5.28,5.30,5.35
41.35,10.33,4.99,10.33,4.99,-5.02,-5.14,-4.54,5.30,5.31,5.33
41.76,10.40,5.08,10.39,5.07,-5.06,-5.18,-4.57,5.33,5.32,5.31
42.18,10.45,5.14,10.44,5.14,-5.11,-5.23,-4.60,5.34,5.33,5.30
42.60,10.47,5.19,10.47,5.19,-5.16,-5.28,-4.64,5.31,5.31,5.27
43.03,10.49,5.22,10.48,5.22,-5.21,-5.32,-4.68,5.28,5.28,5.26
43.46,10.49,5.25,10.49,5.26,-5.25,-5.37,-4.72,5.23,5.23,5.23
43.90,10.49,5.30,10.49,5.29,-5.30,-5.42,-4.77,5.19,5.19,5.18
44.33,10.49,5.33,10.48,5.33,-5.34,-5.46,-4.82,5.14,5.14,5.15
44.78,10.49,5.36,10.49,5.37,-5.39,-5.51,-4.88,5.10,5.10,5.12
45.23,10.51,5.41,10.50,5.41,-5.44,-5.56,-4.93,5.07,5.06,5.09
45.68,10.54,5.47,10.54,5.47,-5.49,-5.60,-5.00,5.04,5.04,5.06
46.13,10.58,5.53,10.59,5.55,-5.55,-5.65,-5.06,5.03,5.05,5.04
46.60,10.66,5.62,10.65,5.62,-5.60,-5.69,-5.13,5.06,5.05,5.03
47.06,10.72,5.70,10.70,5.67,-5.64,-5.74,-5.20,5.07,5.05,5.01
47.53,10.72,5.70,10.72,5.71,-5.68,-5.78,-5.28,5.04,5.04,5.01
48.01,10.72,5.70,10.72,5.72,-5.70,-5.83,-5.35,5.02,5.02,5.01
48.49,10.72,5.72,10.72,5.72,-5.72,-5.87,-5.43,5.00,5.00,4.99
48.97,10.72,5.73,10.71,5.73,-5.73,-5.92,-5.52,4.99,4.98,4.98
49.46,10.72,5.74,10.71,5.74,-5.75,-5.96,-5.61,4.97,4.97,4.97
49.96,10.72,5.74,10.72,5.74,-5.77,-6.00,-5.69,4.95,4.95,4.97
50.46,10.74,5.75,10.74,5.75,-5.79,-6.05,-5.79,4.94,4.94,4.98
50.96,10.77,5.77,10.79,5.80,-5.83,-6.09,-5.88,4.94,4.96,4.99
51.47,10.86,5.87,10.86,5.87,-5.87,-6.13,-5.98,4.99,4.99,4.98
51.99,10.95,5.98,10.91,5.94,-5.91,-6.17,-6.07,5.03,5.00,4.96
52.51,10.95,5.99,10.95,6.00,-5.96,-6.22,-6.17,4.98,4.99,4.95
53.03,10.95,6.02,10.95,6.03,-6.01,-6.26,-6.27,4.93,4.94,4.92
53.56,10.95,6.05,10.95,6.05,-6.06,-6.30,-6.37,4.89,4.89,4.89
54.10,10.95,6.09,10.95,6.09,-6.10,-6.34,-6.46,4.84,4.84,4.85
54.64,10.95,6.14,10.95,6.14,-6.14,-6.38,-6.56,4.81,4.81,4.80
55.18,10.95,6.19,10.95,6.19,-6.18,-6.42,-6.66,4.76,4.76,4.75
55.74,10.95,6.24,10.95,6.24,-6.23,-6.46,-6.75,4.71,4.71,4.70
56.29,10.95,6.29,10.95,6.30,-6.30,-6.50,-6.84,4.65,4.65,4.65
56.86,10.95,6.35,10.93,6.34,-6.38,-6.54,-6.93,4.57,4.56,4.59
57.42,10.95,6.42,10.94,6.42,-6.47,-6.57,-7.01,4.48,4.48,4.52
58.00,10.95,6.48,10.99,6.53,-6.56,-6.61,-7.09,4.39,4.44,4.46
58.58,11.08,6.67,11.07,6.66,-6.65,-6.65,-7.16,4.42,4.41,4.40
59.16,11.18,6.82,11.14,6.79,-6.75,-6.68,-7.23,4.43,4.39,4.35
59.76,11.18,6.88,11.18,6.89,-6.84,-6.72,-7.29,4.33,4.34,4.29
60.35,11.18,6.95,11.19,6.95,-6.93,-6.76,-7.35,4.24,4.25,4.22
60.96,11.18,7.00,11.18,7.01,-7.01,-6.79,-7.40,4.16,4.16,4.17
61.57,11.18,7.07,11.18,7.07,-7.08,-6.83,-7.44,4.09,4.09,4.10
62.18,11.18,7.14,11.18,7.13,-7.14,-6.86,-7.48,4.03,4.03,4.03
62.80,11.18,7.18,11.18,7.19,-7.19,-6.89,-7.51,3.98,3.98,3.99
63.43,11.18,7.24,11.18,7.24,-7.24,-6.93,-7.53,3.94,3.94,3.93
64.07,11.18,7.28,11.18,7.29,-7.29,-6.96,-7.54,3.89,3.89,3.89
64.71,11.18,7.33,11.18,7.33,-7.33,-6.99,-7.55,3.84,3.84,3.84
65.35,11.18,7.38,11.18,7.38,-7.37,-7.02,-7.55,3.80,3.80,3.79
66.01,11.18,7.41,11.18,7.42,-7.41,-7.05,-7.55,3.76,3.76,3.76
66.67,11.18,7.45,11.18,7.45,-7.45,-7.08,-7.54,3.73,3.73,3.72
67.33,11.18,7.48,11.18,7.48,-7.48,-7.11,-7.52,3.69,3.69,3.69
68.01,11.18,7.51,11.18,7.51,-7.52,-7.14,-7.50,3.66,3.66,3.66
68.69,11.18,7.54,11.18,7.55,-7.55,-7.17,-7.47,3.63,3.63,3.63
69.37,11.18,7.58,11.18,7.58,-7.57,-7.20,-7.45,3.60,3.60,3.59
70.07,11.18,7.61,11.18,7.61,-7.60,-7.23,-7.42,3.57,3.57,3.56
70.77,11.18,7.62,11.18,7.63,-7.63,-7.26,-7.38,3.54,3.54,3.55
71.48,11.18,7.66,11.18,7.66,-7.66,-7.28,-7.35,3.51,3.51,3.51
72.19,11.18,7.68,11.18,7.69,-7.69,-7.31,-7.31,3.48,3.48,3.49
72.91,11.18,7.72,11.18,7.72,-7.72,-7.33,-7.28,3.46,3.46,3.45
73.64,11.18,7.75,11.18,7.75,-7.75,-7.36,-7.24,3.42,3.42,3.42
74.38,11.18,7.78,11.18,7.78,-7.78,-7.38,-7.21,3.39,3.39,3.39
75.12,11.18,7.81,11.18,7.81,-7.81,-7.41,-7.18,3.36,3.36,3.36
75.87,11.18,7.84,11.18,7.84,-7.84,-7.43,-7.15,3.33,3.33,3.33
76.63,11.18,7.87,11.18,7.87,-7.88,-7.46,-7.12,3.30,3.30,3.30
77.40,11.18,7.90,11.18,7.90,-7.91,-7.48,-7.09,3.27,3.27,3.27
78.17,11.18,7.93,11.18,7.93,-7.94,-7.50,-7.07,3.24,3.24,3.24
78.95,11.18,7.94,11.18,7.95,-7.96,-7.52,-7.05,3.22,3.22,3.23
79.74,11.18,7.96,11.18,7.97,-7.96,-7.55,-7.04,3.21,3.21,3.21
80.54,11.18,7.98,11.18,7.99,-7.96,-7.57,-7.02,3.22,3.22,3.19
81.35,11.18,8.00,11.17,7.99,-7.94,-7.59,-7.02,3.23,3.23,3.17
82.16,11.16,7.98,11.13,7.96,-7.92,-7.61,-7.01,3.23,3.21,3.17
82.98,11.07,7.89,11.06,7.90,-7.90,-7.63,-7.02,3.17,3.16,3.17
83.81,10.97,7.80,11.00,7.83,-7.88,-7.65,-7.02,3.09,3.12,3.16
84.65,10.95,7.79,10.95,7.79,-7.85,-7.67,-7.03,3.10,3.10,3.15
85.50,10.95,7.78,10.94,7.78,-7.82,-7.69,-7.05,3.13,3.12,3.16
86.35,10.95,7.78,10.94,7.78,-7.78,-7.71,-7.07,3.16,3.16,3.16
87.22,10.95,7.78,10.96,7.79,-7.75,-7.73,-7.10,3.19,3.21,3.16
88.09,10.95,7.78,10.95,7.77,-7.72,-7.75,-7.13,3.22,3.22,3.16
88.97,10.95,7.76,10.89,7.72,-7.69,-7.77,-7.17,3.25,3.20,3.18
89.86,10.80,7.61,10.82,7.64,-7.65,-7.79,-7.21,3.14,3.17,3.18
90.76,10.73,7.56,10.76,7.59,-7.61,-7.81,-7.26,3.12,3.16,3.16
91.66,10.72,7.54,10.71,7.55,-7.56,-7.82,-7.31,3.16,3.16,3.17
92.58,10.72,7.57,10.67,7.52,-7.51,-7.84,-7.37,3.20,3.16,3.14
93.51,10.62,7.46,10.61,7.46,-7.47,-7.86,-7.43,3.14,3.14,3.15
94.44,10.51,7.37,10.54,7.41,-7.44,-7.88,-7.50,3.06,3.10,3.13
95.39,10.49,7.36,10.49,7.38,-7.41,-7.90,-7.57,3.07,3.08,3.12
96.34,10.49,7.40,10.49,7.40,-7.39,-7.92,-7.65,3.10,3.10,3.08
97.30,10.49,7.42,10.46,7.40,-7.36,-7.94,-7.73,3.13,3.10,3.06
98.28,10.44,7.39,10.41,7.37,-7.33,-7.95,-7.82,3.11,3.08,3.04
99.26,10.30,7.28,10.34,7.33,-7.30,-7.97,-7.91,3.00,3.05,3.01
100.25,10.26,7.27,10.24,7.25,-7.26,-7.99,-8.01,3.00,2.98,2.98
101.25,10.19,7.23,10.15,7.20,-7.22,-8.01,-8.11,2.96,2.93,2.95
102.27,10.04,7.12,10.09,7.18,-7.18,-8.03,-8.21,2.85,2.91,2.91
103.29,10.04,7.17,10.02,7.15,-7.15,-8.05,-8.31,2.89,2.87,2.86
104.32,9.99,7.16,9.95,7.12,-7.13,-8.07,-8.42,2.86,2.82,2.82
105.37,9.87,7.09,9.89,7.11,-7.13,-8.09,-8.53,2.74,2.76,2.77
106.42,9.81,7.08,9.83,7.11,-7.14,-8.11,-8.64,2.66,2.68,2.72
107.48,9.81,7.15,9.80,7.15,-7.18,-8.13,-8.75,2.63,2.62,2.65
108.56,9.81,7.23,9.80,7.22,-7.22,-8.15,-8.86,2.58,2.58,2.57
109.64,9.81,7.30,9.81,7.30,-7.28,-8.17,-8.96,2.52,2.52,2.50
110.74,9.81,7.36,9.81,7.37,-7.35,-8.19,-9.07,2.45,2.45,2.44
111.85,9.81,7.43,9.81,7.44,-7.42,-8.22,-9.17,2.38,2.38,2.37
112.97,9.81,7.52,9.81,7.51,-7.49,-8.24,-9.27,2.31,2.31,2.28
114.10,9.81,7.58,9.81,7.59,-7.56,-8.26,-9.37,2.24,2.24,2.22
115.24,9.81,7.66,9.81,7.66,-7.64,-8.29,-9.46,2.16,2.16,2.14
116.39,9.81,7.74,9.81,7.74,-7.73,-8.31,-9.54,2.08,2.08,2.06
117.55,9.81,7.80,9.78,7.78,-7.83,-8.34,-9.61,1.98,1.96,2.00
118.73,9.81,7.87,9.81,7.87,-7.93,-8.36,-9.68,1.88,1.88,1.93
119.92,9.82,7.92,9.89,8.00,-8.04,-8.39,-9.74,1.78,1.85,1.89
121.12,10.05,8.21,10.02,8.18,-8.16,-8.41,-9.78,1.89,1.86,1.83
122.33,10.19,8.39,10.14,8.34,-8.29,-8.44,-9.82,1.90,1.85,1.79
123.55,10.27,8.49,10.25,8.49,-8.44,-8.47,-9.84,1.83,1.81,1.77
124.79,10.27,8.53,10.31,8.58,-8.60,-8.50,-9.86,1.66,1.71,1.73
126.03,10.42,8.72,10.40,8.70,-8.77,-8.53,-9.86,1.64,1.63,1.69
127.29,10.54,8.87,10.55,8.89,-8.94,-8.56,-9.85,1.60,1.61,1.66
128.57,10.72,9.09,10.73,9.10,-9.10,-8.59,-9.83,1.62,1.63,1.62
129.85,10.93,9.33,10.88,9.29,-9.25,-8.62,-9.79,1.68,1.63,1.59
131.15,11.00,9.43,11.02,9.46,-9.40,-8.65,-9.75,1.59,1.62,1.56
132.46,11.13,9.59,11.10,9.57,-9.55,-8.69,-9.70,1.58,1.55,1.53
133.79,11.18,9.67,11.17,9.67,-9.69,-8.72,-9.64,1.48,1.47,1.50
135.12,11.19,9.73,11.25,9.79,-9.82,-8.75,-9.57,1.37,1.43,1.45
136.48,11.35,9.92,11.32,9.89,-9.92,-8.79,-9.50,1.42,1.39,1.42
137.84,11.41,10.01,11.38,10.00,-10.00,-8.82,-9.42,1.40,1.38,1.39
139.22,11.41,10.06,11.42,10.07,-10.06,-8.86,-9.33,1.35,1.36,1.34
140.61,11.41,10.11,11.43,10.12,-10.08,-8.90,-9.24,1.32,1.34,1.29
142.02,11.41,10.13,11.41,10.14,-10.09,-8.93,-9.15,1.32,1.32,1.27
143.44,11.39,10.15,11.34,10.11,-10.06,-8.97,-9.05,1.33,1.28,1.23
144.87,11.22,10.02,11.22,10.02,-10.00,-9.01,-8.96,1.22,1.22,1.19
146.32,11.03,9.88,11.06,9.91,-9.91,-9.05,-8.86,1.12,1.15,1.14
147.78,10.90,9.79,10.91,9.81,-9.81,-9.09,-8.76,1.08,1.09,1.10
149.26,10.78,9.74,10.75,9.72,-9.73,-9.13,-8.67,1.05,1.02,1.03
150.75,10.62,9.66,10.58,9.62,-9.67,-9.17,-8.57,0.95,0.91,0.95
152.26,10.39,9.50,10.42,9.54,-9.63,-9.21,-8.48,0.75,0.79,0.88
153.78,10.27,9.45,10.30,9.50,-9.63,-9.25,-8.39,0.64,0.68,0.81
155.32,10.27,9.55,10.26,9.53,-9.63,-9.29,-8.30,0.64,0.63,0.71
156.88,10.27,9.62,10.27,9.62,-9.62,-9.33,-8.22,0.65,0.65,0.64
158.44,10.27,9.69,10.27,9.70,-9.58,-9.37,-8.14,0.68,0.68,0.57
160.03,10.21,9.71,10.20,9.70,-9.51,-9.40,-8.07,0.69,0.69,0.49
161.63,10.07,9.63,10.04,9.60,-9.41,-9.44,-8.00,0.66,0.63,0.43
163.24,9.80,9.41,9.77,9.39,-9.28,-9.48,-7.93,0.52,0.49,0.38
164.88,9.45,9.10,9.46,9.12,-9.13,-9.52,-7.88,0.31,0.33,0.34
166.53,9.16,8.85,9.18,8.87,-8.98,-9.55,-7.82,0.17,0.19,0.30
168.19,8.97,8.69,8.97,8.70,-8.85,-9.59,-7.77,0.11,0.12,0.27
169.87,8.90,8.63,8.90,8.64,-8.77,-9.62,-7.73,0.13,0.13,0.26
171.57,8.90,8.64,8.91,8.66,-8.74,-9.66,-7.69,0.15,0.17,0.25
173.29,9.04,8.78,9.00,8.74,-8.78,-9.69,-7.66,0.25,0.22,0.25
175.02,9.13,8.85,9.15,8.89,-8.88,-9.72,-7.63,0.25,0.27,0.27
176.77,9.32,9.05,9.33,9.06,-9.02,-9.74,-7.61,0.30,0.31,0.26
178.54,9.52,9.24,9.49,9.21,-9.18,-9.77,-7.60,0.34,0.31,0.27
180.32,9.66,9.37,9.65,9.37,-9.34,-9.79,-7.59,0.32,0.31,0.28
182.13,9.76,9.47,9.79,9.50,-9.48,-9.81,-7.58,0.27,0.31,0.28
183.95,9.90,9.61,9.90,9.62,-9.60,-9.82,-7.58,0.29,0.30,0.28
185.79,10.03,9.75,9.99,9.72,-9.70,-9.83,-7.59,0.33,0.29,0.27
187.65,10.04,9.78,10.04,9.78,-9.75,-9.84,-7.60,0.28,0.29,0.25
189.52,10.04,9.80,10.06,9.82,-9.78,-9.84,-7.62,0.25,0.27,0.23
191.42,10.04,9.82,10.04,9.83,-9.79,-9.84,-7.64,0.25,0.25,0.21
193.33,10.04,9.84,10.00,9.80,-9.78,-9.84,-7.67,0.25,0.22,0.19
195.27,9.94,9.74,9.93,9.75,-9.77,-9.83,-7.70,0.17,0.17,0.19
197.22,9.84,9.66,9.86,9.70,-9.75,-9.81,-7.74,0.09,0.12,0.17
199.19,9.81,9.67,9.81,9.66,-9.73,-9.79,-7.78,0.07,0.08,0.13
201.18,9.81,9.67,9.80,9.67,-9.72,-9.76,-7.82,0.08,0.08,0.13
203.19,9.81,9.69,9.80,9.69,-9.71,-9.73,-7.87,0.10,0.09,0.11
205.23,9.81,9.72,9.82,9.72,-9.69,-9.69,-7.92,0.11,0.12,0.08
207.28,9.81,9.72,9.81,9.73,-9.68,-9.65,-7.97,0.13,0.13,0.08
209.35,9.81,9.74,9.76,9.70,-9.65,-9.60,-8.03,0.15,0.11,0.06
211.44,9.68,9.64,9.71,9.66,-9.63,-9.54,-8.08,0.05,0.08,0.03
213.56,9.59,9.55,9.61,9.58,-9.59,-9.48,-8.14,-0.00,0.02,0.03
215.69,9.58,9.54,9.50,9.48,-9.54,-9.41,-8.19,0.04,-0.04,0.03
217.85,9.37,9.36,9.43,9.42,-9.48,-9.33,-8.24,-0.11,-0.05,0.00
220.03,9.35,9.35,9.37,9.38,-9.40,-9.25,-8.29,-0.05,-0.03,-0.01
222.23,9.35,9.37,9.30,9.33,-9.30,-9.15,-8.34,0.04,0.00,-0.03
224.45,9.25,9.27,9.25,9.28,-9.20,-9.06,-8.38,0.04,0.05,-0.03
226.70,9.14,9.16,9.12,9.15,-9.09,-8.95,-8.42,0.04,0.02,-0.03
228.96,8.97,9.00,8.96,8.99,-8.98,-8.84,-8.45,-0.01,-0.02,-0.04
231.25,8.74,8.77,8.78,8.82,-8.85,-8.73,-8.47,-0.11,-0.07,-0.04
233.57,8.64,8.68,8.60,8.65,-8.70,-8.60,-8.49,-0.06,-0.09,-0.05
235.90,8.45,8.50,8.46,8.52,-8.54,-8.47,-8.49,-0.09,-0.07,-0.06
238.26,8.33,8.38,8.35,8.40,-8.38,-8.34,-8.48,-0.05,-0.03,-0.06
240.64,8.23,8.28,8.18,8.24,-8.23,-8.20,-8.46,0.00,-0.04,-0.06
243.05,8.06,8.10,8.04,8.09,-8.08,-8.05,-8.43,-0.03,-0.04,-0.05
245.48,7.82,7.85,7.87,7.91,-7.94,-7.90,-8.39,-0.13,-0.07,-0.04
247.93,7.76,7.78,7.72,7.75,-7.80,-7.74,-8.33,-0.04,-0.08,-0.03
250.41,7.57,7.60,7.61,7.64,-7.64,-7.58,-8.25,-0.07,-0.03,-0.04
252.92,7.53,7.55,7.52,7.54,-7.48,-7.41,-8.16,0.05,0.04,-0.03
255.45,7.42,7.41,7.36,7.37,-7.32,-7.24,-8.06,0.10,0.04,0.00
258.00,7.20,7.19,7.20,7.19,-7.17,-7.07,-7.94,0.03,0.03,0.00
260.58,6.93,6.92,6.98,6.97,-7.02,-6.89,-7.81,-0.09,-0.03,0.00
263.19,6.84,6.81,6.80,6.78,-6.86,-6.70,-7.66,-0.02,-0.06,0.02
265.82,6.64,6.61,6.66,6.63,-6.69,-6.52,-7.51,-0.05,-0.02,0.02
268.48,6.57,6.51,6.57,6.52,-6.50,-6.33,-7.34,0.07,0.06,0.05
271.16,6.44,6.37,6.43,6.37,-6.31,-6.13,-7.16,0.13,0.12,0.06
273.87,6.31,6.23,6.27,6.19,-6.12,-5.93,-6.97,0.18,0.15,0.07
276.61,6.05,5.93,6.04,5.94,-5.92,-5.73,-6.77,0.13,0.12,0.11
279.38,5.79,5.66,5.81,5.68,-5.70,-5.53,-6.56,0.08,0.10,0.12
282.17,5.55,5.39,5.59,5.43,-5.47,-5.32,-6.35,0.08,0.12,0.15
284.99,5.43,5.24,5.39,5.21,-5.21,-5.11,-6.13,0.21,0.18,0.18
287.84,5.22,5.01,5.19,4.98,-4.95,-4.90,-5.90,0.26,0.24,0.20
290.72,4.96,4.71,4.97,4.73,-4.70,-4.68,-5.67,0.25,0.27,0.24
293.63,4.70,4.43,4.68,4.41,-4.45,-4.46,-5.44,0.24,0.23,0.26
296.57,4.44,4.14,4.44,4.15,-4.20,-4.24,-5.20,0.24,0.24,0.29
299.53,4.18,3.85,4.24,3.92,-3.95,-4.02,-4.97,0.23,0.30,0.32
302.53,4.11,3.77,4.06,3.71,-3.69,-3.79,-4.73,0.42,0.37,0.33
305.55,3.89,3.51,3.86,3.49,-3.44,-3.57,-4.49,0.45,0.42,0.37
308.61,3.62,3.22,3.64,3.24,-3.20,-3.33,-4.25,0.42,0.44,0.39
311.69,3.36,2.95,3.35,2.93,-2.97,-3.10,-4.00,0.39,0.38,0.40
314.81,3.10,2.66,3.10,2.67,-2.74,-2.86,-3.76,0.35,0.36,0.43
317.96,2.84,2.40,2.89,2.46,-2.51,-2.62,-3.52,0.33,0.38,0.43
321.14,2.74,2.31,2.70,2.27,-2.27,-2.38,-3.28,0.47,0.43,0.42
324.35,2.54,2.10,2.51,2.07,-2.03,-2.14,-3.04,0.51,0.48,0.43
327.59,2.28,1.83,2.29,1.85,-1.79,-1.89,-2.80,0.49,0.50,0.44
330.87,2.02,1.56,2.02,1.57,-1.55,-1.64,-2.56,0.47,0.47,0.45
334.18,1.76,1.30,1.76,1.30,-1.31,-1.39,-2.32,0.45,0.45,0.45
337.52,1.50,1.03,1.48,1.01,-1.05,-1.14,-2.08,0.45,0.44,0.46
340.90,1.24,0.74,1.24,0.76,-0.77,-0.88,-1.84,0.46,0.47,0.49
344.30,0.97,0.46,1.02,0.52,-0.50,-0.62,-1.61,0.47,0.52,0.50
347.75,0.84,0.32,0.78,0.26,-0.24,-0.36,-1.37,0.60,0.55,0.51
351.23,0.55,0.00,0.51,-0.03,0.02,-0.09,-1.13,0.57,0.53,0.54
354.74,0.21,-0.36,0.24,-0.33,0.29,0.18,-0.90,0.49,0.52,0.56
358.28,-0.08,-0.68,-0.02,-0.61,0.56,0.44,-0.66,0.48,0.54,0.59
361.87,-0.19,-0.81,-0.22,-0.83,0.85,0.71,-0.43,0.65,0.63,0.61
365.49,-0.38,-1.02,-0.41,-1.05,1.14,0.99,-0.20,0.76,0.72,0.63
369.14,-0.65,-1.31,-0.68,-1.33,1.42,1.26,0.04,0.77,0.75,0.65
372.83,-1.01,-1.70,-1.02,-1.70,1.70,1.53,0.27,0.69,0.68,0.68
376.56,-1.38,-2.09,-1.35,-2.06,1.98,1.81,0.50,0.59,0.63,0.70
380.33,-1.65,-2.39,-1.61,-2.35,2.25,2.08,0.73,0.60,0.64,0.73
384.13,-1.79,-2.55,-1.82,-2.57,2.53,2.36,0.96,0.74,0.71,0.75
387.97,-1.97,-2.74,-2.00,-2.76,2.80,2.63,1.19,0.83,0.80,0.76
391.85,-2.21,-2.98,-2.21,-2.98,3.06,2.90,1.42,0.84,0.85,0.76
395.77,-2.47,-3.25,-2.48,-3.25,3.29,3.16,1.65,0.82,0.81,0.77
399.73,-2.73,-3.52,-2.74,-3.52,3.50,3.42,1.88,0.76,0.76,0.78
403.72,-3.00,-3.80,-2.98,-3.77,3.70,3.68,2.11,0.70,0.73,0.79
407.76,-3.15,-3.96,-3.16,-3.96,3.90,3.92,2.33,0.75,0.75,0.80
411.84,-3.31,-4.13,-3.29,-4.11,4.11,4.16,2.56,0.80,0.82,0.81
415.96,-3.40,-4.23,-3.44,-4.26,4.32,4.39,2.78,0.91,0.88,0.82
420.12,-3.59,-4.42,-3.62,-4.45,4.51,4.60,3.00,0.91,0.89,0.82
424.32,-3.85,-4.68,-3.81,-4.64,4.68,4.81,3.21,0.83,0.87,0.82
428.56,-4.03,-4.86,-4.03,-4.85,4.85,4.99,3.42,0.81,0.82,0.82
432.85,-4.18,-5.00,-4.23,-5.05,5.00,5.16,3.63,0.82,0.77,0.81
437.18,-4.41,-5.24,-4.39,-5.21,5.15,5.31,3.83,0.74,0.77,0.82
441.55,-4.52,-5.36,-4.48,-5.31,5.29,5.45,4.03,0.76,0.81,0.83
445.96,-4.55,-5.39,-4.56,-5.40,5.40,5.56,4.22,0.85,0.84,0.83
450.42,-4.55,-5.40,-4.63,-5.47,5.49,5.65,4.40,0.94,0.87,0.84
454.93,-4.73,-5.59,-4.69,-5.55,5.57,5.72,4.58,0.84,0.88,0.85
459.48,-4.78,-5.65,-4.76,-5.63,5.63,5.77,4.74,0.85,0.87,0.86
464.07,-4.78,-5.67,-4.80,-5.68,5.68,5.80,4.90,0.89,0.88,0.88
468.71,-4.78,-5.69,-4.79,-5.69,5.71,5.80,5.04,0.92,0.92,0.90
473.40,-4.78,-5.70,-4.79,-5.71,5.71,5.79,5.18,0.93,0.92,0.91
478.13,-4.78,-5.73,-4.80,-5.74,5.70,5.76,5.30,0.92,0.90,0.94
482.91,-4.78,-5.75,-4.77,-5.74,5.68,5.71,5.40,0.90,0.91,0.96
487.74,-4.72,-5.72,-4.67,-5.66,5.64,5.65,5.50,0.92,0.97,0.99
492.62,-4.51,-5.54,-4.53,-5.55,5.59,5.58,5.58,1.07,1.05,1.02
497.55,-4.35,-5.40,-4.42,-5.46,5.51,5.49,5.64,1.16,1.10,1.04
502.52,-4.32,-5.40,-4.32,-5.39,5.43,5.40,5.69,1.10,1.11,1.07
507.55,-4.32,-5.41,-4.27,-5.36,5.33,5.29,5.73,1.01,1.06,1.08
512.62,-4.15,-5.27,-4.18,-5.30,5.24,5.18,5.75,1.08,1.05,1.11
