frequency,raw,error,smoothed,error_smoothed,equalization,parametric_eq,fixed_band_eq,equalized_raw,equalized_smoothed,target
20.00,11.45,-1.54,11.44,-1.55,1.55,-0.14,0.45,13.01,12.99,12.99
20.20,11.49,-1.49,11.49,-1.49,1.49,-0.14,0.46,12.99,12.98,12.98
20.40,11.53,-1.44,11.53,-1.44,1.44,-0.15,0.48,12.97,12.97,12.97
20.61,11.57,-1.39,11.57,-1.38,1.38,-0.15,0.49,12.96,12.96,12.96
20.81,11.61,-1.33,11.61,-1.33,1.33,-0.15,0.51,12.95,12.95,12.94
21.02,11.64,-1.29,11.65,-1.29,1.29,-0.16,0.53,12.93,12.93,12.93
21.23,11.67,-1.24,11.68,-1.24,1.24,-0.16,0.54,12.91,12.92,12.92
21.44,11.70,-1.22,11.71,-1.20,1.20,-0.16,0.56,12.90,12.91,12.93
21.66,11.73,-1.17,11.74,-1.16,1.16,-0.16,0.58,12.90,12.90,12.91
21.87,11.76,-1.14,11.77,-1.13,1.13,-0.17,0.60,12.89,12.90,12.90
22.09,11.78,-1.10,11.79,-1.10,1.10,-0.17,0.62,12.88,12.89,12.88
22.31,11.80,-1.08,11.81,-1.07,1.07,-0.17,0.64,12.87,12.88,12.88
22.54,11.83,-1.04,11.83,-1.04,1.04,-0.18,0.66,12.88,12.87,12.87
22.76,11.85,-1.02,11.85,-1.02,1.02,-0.18,0.68,12.87,12.87,12.87
22.99,11.87,-0.99,11.86,-1.00,1.00,-0.19,0.70,12.88,12.86,12.86
23.22,11.88,-0.96,11.87,-0.99,0.99,-0.19,0.72,12.87,12.86,12.85
23.45,11.89,-0.96,11.88,-0.97,0.97,-0.19,0.74,12.87,12.85,12.86
23.69,11.89,-0.95,11.88,-0.96,0.96,-0.20,0.77,12.86,12.85,12.85
23.92,11.89,-0.94,11.89,-0.96,0.96,-0.20,0.79,12.85,12.84,12.83
24.16,11.88,-0.96,11.89,-0.95,0.95,-0.20,0.81,12.84,12.84,12.84
24.40,11.87,-0.97,11.89,-0.95,0.95,-0.21,0.84,12.82,12.84,12.84
24.65,11.87,-0.97,11.89,-0.95,0.95,-0.21,0.86,12.82,12.83,12.84
24.89,11.87,-0.96,11.88,-0.95,0.95,-0.22,0.89,12.82,12.83,12.84
25.14,11.87,-0.95,11.88,-0.95,0.95,-0.22,0.91,12.82,12.83,12.83
25.39,11.87,-0.95,11.88,-0.95,0.95,-0.23,0.93,12.82,12.83,12.82
25.65,11.87,-0.95,11.87,-0.95,0.95,-0.23,0.96,12.82,12.83,12.82
25.91,11.87,-0.95,11.87,-0.95,0.95,-0.23,0.98,12.83,12.82,12.82
26.16,11.87,-0.96,11.87,-0.95,0.95,-0.24,1.01,12.82,12.82,12.83
26.43,11.87,-0.95,11.87,-0.95,0.95,-0.24,1.03,12.82,12.82,12.83
26.69,11.87,-0.95,11.87,-0.95,0.95,-0.25,1.05,12.82,12.82,12.82
26.96,11.87,-0.95,11.87,-0.95,0.95,-0.25,1.07,12.82,12.82,12.82
27.23,11.87,-0.95,11.87,-0.95,0.95,-0.26,1.09,12.82,12.82,12.82
27.50,11.87,-0.94,11.87,-0.95,0.95,-0.26,1.11,12.82,12.82,12.82
27.77,11.87,-0.95,11.87,-0.95,0.95,-0.27,1.13,12.83,12.83,12.82
28.05,11.87,-0.95,11.87,-0.95,0.95,-0.27,1.15,12.83,12.83,12.82
28.33,11.87,-0.96,11.87,-0.95,0.95,-0.28,1.17,12.83,12.83,12.83
28.62,11.87,-0.95,11.87,-0.95,0.95,-0.29,1.18,12.83,12.83,12.83
28.90,11.87,-0.96,11.87,-0.95,0.95,-0.29,1.19,12.83,12.83,12.83
29.19,11.87,-0.96,11.87,-0.95,0.95,-0.30,1.20,12.82,12.82,12.83
29.48,11.87,-0.95,11.87,-0.95,0.95,-0.30,1.21,12.82,12.82,12.83
29.78,11.87,-0.95,11.87,-0.95,0.95,-0.31,1.22,12.82,12.82,12.82
30.08,11.87,-0.95,11.87,-0.94,0.94,-0.32,1.22,12.82,12.82,12.82
30.38,11.87,-0.93,11.87,-0.94,0.94,-0.32,1.23,12.81,12.81,12.81
30.68,11.87,-0.93,11.87,-0.93,0.93,-0.33,1.22,12.81,12.81,12.80
30.99,11.87,-0.93,11.87,-0.93,0.93,-0.33,1.22,12.80,12.80,12.80
31.30,11.87,-0.92,11.87,-0.92,0.92,-0.34,1.22,12.79,12.79,12.79
31.61,11.87,-0.92,11.87,-0.91,0.91,-0.35,1.21,12.79,12.79,12.79
31.93,11.87,-0.89,11.87,-0.90,0.90,-0.36,1.20,12.78,12.78,12.77
32.24,11.87,-0.90,11.87,-0.90,0.90,-0.36,1.19,12.77,12.77,12.77
32.57,11.87,-0.88,11.87,-0.89,0.89,-0.37,1.17,12.76,12.76,12.76
32.89,11.87,-0.88,11.87,-0.88,0.88,-0.38,1.15,12.75,12.75,12.75
33.22,11.87,-0.87,11.87,-0.87,0.87,-0.38,1.13,12.75,12.75,12.75
33.55,11.87,-0.87,11.87,-0.86,0.86,-0.39,1.11,12.74,12.74,12.74
33.89,11.87,-0.85,11.87,-0.86,0.86,-0.40,1.09,12.73,12.73,12.73
34.23,11.87,-0.84,11.87,-0.85,0.85,-0.41,1.06,12.72,12.72,12.71
34.57,11.87,-0.83,11.87,-0.84,0.84,-0.42,1.04,12.71,12.71,12.70
34.92,11.87,-0.82,11.87,-0.82,0.82,-0.42,1.01,12.70,12.70,12.69
35.27,11.87,-0.83,11.87,-0.81,0.81,-0.43,0.98,12.69,12.69,12.70
35.62,11.87,-0.80,11.87,-0.80,0.80,-0.44,0.95,12.67,12.67,12.68
35.97,11.87,-0.80,11.87,-0.79,0.79,-0.45,0.92,12.66,12.66,12.67
36.33,11.87,-0.78,11.87,-0.77,0.77,-0.46,0.88,12.64,12.64,12.65
36.70,11.87,-0.75,11.87,-0.75,0.75,-0.47,0.85,12.63,12.63,12.62
37.06,11.87,-0.73,11.87,-0.73,0.73,-0.48,0.81,12.61,12.61,12.61
37.43,11.87,-0.71,11.87,-0.71,0.71,-0.49,0.78,12.59,12.59,12.59
37.81,11.87,-0.70,11.87,-0.69,0.69,-0.50,0.74,12.57,12.57,12.57
38.19,11.87,-0.67,11.87,-0.67,0.67,-0.51,0.71,12.55,12.55,12.54
38.57,11.87,-0.65,11.87,-0.65,0.65,-0.52,0.67,12.52,12.52,12.52
38.95,11.87,-0.63,11.87,-0.63,0.63,-0.53,0.63,12.50,12.50,12.50
39.34,11.87,-0.60,11.87,-0.60,0.60,-0.54,0.60,12.47,12.47,12.47
39.74,11.87,-0.57,11.87,-0.58,0.58,-0.55,0.56,12.45,12.45,12.44
40.14,11.87,-0.55,11.87,-0.55,0.55,-0.56,0.52,12.42,12.42,12.42
40.54,11.87,-0.53,11.87,-0.53,0.53,-0.57,0.49,12.40,12.40,12.40
40.94,11.87,-0.50,11.87,-0.50,0.50,-0.58,0.45,12.38,12.38,12.37
41.35,11.87,-0.47,11.87,-0.48,0.48,-0.59,0.41,12.35,12.35,12.35
41.76,11.87,-0.44,11.87,-0.45,0.45,-0.60,0.38,12.32,12.32,12.32
42.18,11.87,-0.43,11.87,-0.43,0.43,-0.61,0.34,12.30,12.30,12.30
42.60,11.87,-0.40,11.87,-0.40,0.40,-0.63,0.31,12.27,12.27,12.27
43.03,11.87,-0.37,11.87,-0.37,0.37,-0.64,0.27,12.25,12.24,12.25
43.46,11.87,-0.34,11.87,-0.34,0.34,-0.65,0.23,12.22,12.22,12.21
43.90,11.87,-0.32,11.87,-0.31,0.31,-0.66,0.20,12.19,12.19,12.19
44.33,11.87,-0.28,11.87,-0.28,0.28,-0.68,0.16,12.15,12.16,12.15
44.78,11.87,-0.25,11.88,-0.25,0.25,-0.69,0.13,12.12,12.12,12.13
45.23,11.87,-0.23,11.88,-0.21,0.21,-0.70,0.10,12.08,12.09,12.10
45.68,11.87,-0.18,11.88,-0.17,0.17,-0.72,0.06,12.04,12.05,12.05
46.13,11.87,-0.14,11.89,-0.13,0.13,-0.73,0.03,12.00,12.02,12.02
46.60,11.87,-0.11,11.89,-0.09,0.09,-0.75,-0.01,11.96,11.98,11.98
47.06,11.88,-0.06,11.89,-0.05,0.05,-0.76,-0.04,11.93,11.93,11.94
47.53,11.89,-0.01,11.89,-0.00,0.00,-0.77,-0.07,11.90,11.89,11.90
48.01,11.89,0.05,11.88,0.04,-0.04,-0.79,-0.11,11.86,11.85,11.84
48.49,11.89,0.09,11.87,0.07,-0.07,-0.80,-0.14,11.82,11.80,11.80
48.97,11.88,0.13,11.86,0.11,-0.11,-0.82,-0.17,11.77,11.76,11.75
49.46,11.86,0.16,11.85,0.14,-0.14,-0.84,-0.20,11.72,11.71,11.71
49.96,11.84,0.20,11.83,0.17,-0.17,-0.85,-0.24,11.67,11.66,11.65
50.46,11.82,0.21,11.81,0.20,-0.20,-0.87,-0.27,11.63,11.61,11.61
50.96,11.79,0.23,11.79,0.22,-0.22,-0.89,-0.30,11.57,11.57,11.57
51.47,11.76,0.24,11.76,0.24,-0.24,-0.90,-0.33,11.52,11.52,11.52
51.99,11.73,0.27,11.73,0.26,-0.26,-0.92,-0.37,11.47,11.47,11.47
52.51,11.70,0.27,11.70,0.28,-0.28,-0.94,-0.40,11.43,11.43,11.43
53.03,11.67,0.28,11.67,0.29,-0.29,-0.96,-0.43,11.38,11.38,11.39
53.56,11.64,0.30,11.64,0.31,-0.31,-0.98,-0.46,11.33,11.33,11.34
54.10,11.61,0.33,11.62,0.33,-0.33,-0.99,-0.49,11.28,11.29,11.28
54.64,11.58,0.34,11.60,0.35,-0.35,-1.01,-0.53,11.23,11.24,11.24
55.18,11.56,0.37,11.58,0.38,-0.38,-1.03,-0.56,11.19,11.20,11.19
55.74,11.54,0.40,11.56,0.41,-0.41,-1.05,-0.59,11.14,11.15,11.14
56.29,11.53,0.43,11.55,0.44,-0.44,-1.07,-0.62,11.09,11.11,11.10
56.86,11.52,0.46,11.54,0.48,-0.48,-1.09,-0.66,11.04,11.06,11.06
57.42,11.52,0.52,11.54,0.52,-0.52,-1.11,-0.69,11.00,11.02,11.00
58.00,11.53,0.57,11.54,0.57,-0.57,-1.14,-0.72,10.96,10.97,10.96
58.58,11.54,0.62,11.54,0.63,-0.63,-1.16,-0.75,10.92,10.91,10.92
59.16,11.54,0.66,11.54,0.68,-0.68,-1.18,-0.78,10.86,10.86,10.88
59.76,11.54,0.71,11.55,0.74,-0.74,-1.20,-0.82,10.80,10.81,10.83
60.35,11.55,0.78,11.55,0.80,-0.80,-1.23,-0.85,10.75,10.75,10.77
60.96,11.56,0.85,11.56,0.86,-0.86,-1.25,-0.88,10.70,10.70,10.71
61.57,11.57,0.94,11.56,0.92,-0.92,-1.27,-0.92,10.65,10.64,10.64
62.18,11.57,1.00,11.56,0.98,-0.98,-1.30,-0.95,10.59,10.58,10.57
62.80,11.56,1.06,11.55,1.03,-1.03,-1.32,-0.98,10.53,10.52,10.50
63.43,11.55,1.12,11.54,1.09,-1.09,-1.35,-1.02,10.47,10.45,10.44
64.07,11.54,1.16,11.52,1.13,-1.13,-1.37,-1.05,10.41,10.39,10.38
64.71,11.52,1.20,11.51,1.18,-1.18,-1.40,-1.08,10.34,10.33,10.32
65.35,11.49,1.23,11.48,1.22,-1.22,-1.43,-1.12,10.27,10.26,10.26
66.01,11.46,1.27,11.46,1.26,-1.26,-1.45,-1.15,10.20,10.20,10.20
66.67,11.43,1.29,11.44,1.30,-1.30,-1.48,-1.19,10.13,10.14,10.14
67.33,11.40,1.33,11.41,1.34,-1.34,-1.51,-1.23,10.06,10.07,10.07
68.01,11.37,1.36,11.38,1.38,-1.38,-1.54,-1.26,10.00,10.01,10.01
68.69,11.34,1.40,11.36,1.42,-1.42,-1.56,-1.30,9.93,9.94,9.95
69.37,11.31,1.43,11.33,1.45,-1.45,-1.59,-1.34,9.86,9.88,9.89
70.07,11.29,1.47,11.31,1.49,-1.49,-1.62,-1.38,9.80,9.81,9.82
70.77,11.27,1.53,11.28,1.54,-1.54,-1.65,-1.42,9.74,9.75,9.75
71.48,11.26,1.58,11.26,1.58,-1.58,-1.69,-1.46,9.68,9.68,9.68
72.19,11.24,1.63,11.23,1.62,-1.62,-1.72,-1.50,9.62,9.61,9.61
72.91,11.22,1.69,11.21,1.67,-1.67,-1.75,-1.54,9.56,9.54,9.54
73.64,11.20,1.73,11.19,1.71,-1.71,-1.78,-1.59,9.49,9.48,9.47
74.38,11.17,1.77,11.17,1.75,-1.75,-1.81,-1.63,9.42,9.41,9.40
75.12,11.15,1.81,11.14,1.80,-1.80,-1.85,-1.68,9.36,9.35,9.34
75.87,11.13,1.85,11.12,1.84,-1.84,-1.88,-1.73,9.29,9.28,9.28
76.63,11.10,1.89,11.10,1.88,-1.88,-1.92,-1.78,9.22,9.22,9.21
77.40,11.08,1.92,11.08,1.93,-1.93,-1.95,-1.83,9.16,9.16,9.16
78.17,11.06,1.98,11.07,1.97,-1.97,-1.99,-1.88,9.09,9.09,9.09
78.95,11.04,2.00,11.06,2.02,-2.02,-2.02,-1.93,9.02,9.03,9.04
79.74,11.03,2.06,11.05,2.07,-2.07,-2.06,-1.99,8.96,8.97,8.97
80.54,11.03,2.12,11.04,2.13,-2.13,-2.10,-2.05,8.90,8.91,8.92
81.35,11.03,2.19,11.05,2.20,-2.20,-2.14,-2.10,8.84,8.85,8.85
82.16,11.03,2.24,11.05,2.27,-2.27,-2.18,-2.16,8.77,8.79,8.80
82.98,11.04,2.32,11.06,2.34,-2.34,-2.21,-2.23,8.70,8.72,8.73
83.81,11.06,2.40,11.08,2.42,-2.42,-2.25,-2.29,8.65,8.66,8.66
84.65,11.08,2.49,11.09,2.49,-2.49,-2.30,-2.36,8.59,8.60,8.59
85.50,11.11,2.59,11.11,2.58,-2.58,-2.34,-2.42,8.54,8.53,8.53
86.35,11.14,2.68,11.13,2.66,-2.66,-2.38,-2.49,8.48,8.47,8.46
87.22,11.17,2.78,11.15,2.75,-2.75,-2.42,-2.57,8.42,8.40,8.40
88.09,11.19,2.86,11.17,2.84,-2.84,-2.46,-2.64,8.35,8.33,8.33
88.97,11.21,2.95,11.19,2.93,-2.93,-2.51,-2.72,8.29,8.26,8.26
89.86,11.21,3.02,11.21,3.02,-3.02,-2.55,-2.79,8.20,8.19,8.19
90.76,11.22,3.10,11.23,3.11,-3.11,-2.60,-2.87,8.11,8.12,8.12
91.66,11.23,3.19,11.25,3.20,-3.20,-2.64,-2.96,8.03,8.05,8.04
92.58,11.25,3.27,11.27,3.29,-3.29,-2.69,-3.04,7.97,7.98,7.98
93.51,11.27,3.36,11.28,3.38,-3.38,-2.74,-3.12,7.90,7.90,7.91
94.44,11.29,3.45,11.30,3.46,-3.46,-2.78,-3.21,7.83,7.83,7.84
95.39,11.30,3.54,11.31,3.55,-3.55,-2.83,-3.30,7.75,7.76,7.76
96.34,11.32,3.64,11.32,3.64,-3.64,-2.88,-3.39,7.68,7.68,7.69
97.30,11.33,3.72,11.34,3.73,-3.73,-2.93,-3.49,7.61,7.61,7.61
98.28,11.34,3.82,11.35,3.81,-3.81,-2.98,-3.58,7.53,7.54,7.53
99.26,11.35,3.90,11.36,3.89,-3.89,-3.03,-3.68,7.46,7.46,7.45
100.25,11.35,3.97,11.36,3.97,-3.97,-3.08,-3.77,7.38,7.39,7.38
101.25,11.36,4.05,11.36,4.04,-4.04,-3.13,-3.87,7.32,7.32,7.31
102.27,11.36,4.11,11.35,4.11,-4.11,-3.19,-3.97,7.26,7.25,7.25
103.29,11.36,4.19,11.34,4.17,-4.17,-3.24,-4.07,7.20,7.18,7.17
104.32,11.35,4.25,11.33,4.22,-4.22,-3.29,-4.16,7.13,7.11,7.11
105.37,11.34,4.30,11.31,4.27,-4.27,-3.35,-4.26,7.07,7.04,7.04
106.42,11.31,4.34,11.29,4.32,-4.32,-3.40,-4.36,6.99,6.97,6.98
107.48,11.27,4.37,11.26,4.36,-4.36,-3.46,-4.46,6.91,6.90,6.90
108.56,11.22,4.39,11.23,4.40,-4.40,-3.51,-4.55,6.82,6.83,6.84
109.64,11.17,4.40,11.20,4.44,-4.44,-3.57,-4.65,6.73,6.76,6.77
110.74,11.14,4.45,11.17,4.48,-4.48,-3.63,-4.74,6.66,6.69,6.70
111.85,11.11,4.49,11.13,4.51,-4.51,-3.68,-4.83,6.60,6.62,6.62
112.97,11.08,4.53,11.09,4.55,-4.55,-3.74,-4.91,6.54,6.55,6.56
114.10,11.05,4.57,11.05,4.58,-4.58,-3.80,-4.99,6.48,6.48,6.48
115.24,11.02,4.62,11.01,4.61,-4.61,-3.86,-5.07,6.42,6.41,6.40
116.39,10.98,4.66,10.97,4.64,-4.64,-3.92,-5.14,6.35,6.34,6.33
117.55,10.93,4.68,10.93,4.66,-4.66,-3.98,-5.21,6.27,6.27,6.25
118.73,10.89,4.71,10.89,4.69,-4.69,-4.04,-5.27,6.20,6.20,6.18
119.92,10.85,4.73,10.85,4.72,-4.72,-4.10,-5.33,6.13,6.13,6.12
121.12,10.81,4.75,10.80,4.75,-4.75,-4.16,-5.38,6.07,6.06,6.06
122.33,10.76,4.77,10.76,4.77,-4.77,-4.22,-5.42,5.99,5.99,5.99
123.55,10.71,4.78,10.71,4.79,-4.79,-4.28,-5.46,5.92,5.92,5.93
124.79,10.66,4.80,10.67,4.82,-4.82,-4.34,-5.49,5.85,5.85,5.86
126.03,10.62,4.83,10.62,4.84,-4.84,-4.40,-5.51,5.78,5.78,5.79
127.29,10.58,4.86,10.58,4.86,-4.86,-4.47,-5.53,5.72,5.72,5.73
128.57,10.53,4.88,10.54,4.89,-4.89,-4.53,-5.54,5.65,5.65,5.65
129.85,10.48,4.90,10.50,4.91,-4.91,-4.59,-5.54,5.57,5.58,5.58
131.15,10.44,4.93,10.46,4.94,-4.94,-4.65,-5.54,5.50,5.52,5.51
132.46,10.40,4.96,10.42,4.97,-4.97,-4.71,-5.53,5.43,5.45,5.45
133.79,10.37,5.00,10.38,5.00,-5.00,-4.77,-5.52,5.37,5.38,5.37
135.12,10.34,5.03,10.34,5.03,-5.03,-4.83,-5.50,5.31,5.31,5.31
136.48,10.32,5.07,10.31,5.06,-5.06,-4.89,-5.48,5.26,5.25,5.25
137.84,10.29,5.11,10.28,5.09,-5.09,-4.95,-5.45,5.20,5.19,5.18
139.22,10.26,5.15,10.24,5.12,-5.12,-5.01,-5.42,5.14,5.12,5.12
140.61,10.22,5.16,10.21,5.15,-5.15,-5.07,-5.39,5.07,5.06,5.06
142.02,10.18,5.19,10.18,5.18,-5.18,-5.13,-5.35,5.00,5.00,4.99
143.44,10.14,5.20,10.15,5.21,-5.21,-5.19,-5.32,4.93,4.94,4.94
144.87,10.11,5.23,10.13,5.24,-5.24,-5.25,-5.28,4.87,4.89,4.89
146.32,10.08,5.26,10.10,5.27,-5.27,-5.30,-5.24,4.81,4.83,4.83
147.78,10.07,5.30,10.07,5.30,-5.30,-5.36,-5.20,4.78,4.77,4.78
149.26,10.04,5.33,10.04,5.33,-5.33,-5.42,-5.16,4.72,4.72,4.72
150.75,10.01,5.35,10.02,5.36,-5.36,-5.47,-5.13,4.65,4.66,4.66
152.26,9.99,5.38,10.00,5.39,-5.39,-5.52,-5.09,4.60,4.61,4.61
153.78,9.98,5.43,9.98,5.43,-5.43,-5.57,-5.05,4.55,4.55,4.56
155.32,9.96,5.46,9.97,5.47,-5.47,-5.62,-5.02,4.50,4.50,4.50
156.88,9.94,5.49,9.95,5.51,-5.51,-5.67,-4.99,4.44,4.44,4.45
158.44,9.92,5.54,9.93,5.55,-5.55,-5.72,-4.96,4.38,4.39,4.39
160.03,9.90,5.57,9.92,5.58,-5.58,-5.76,-4.93,4.32,4.33,4.34
161.63,9.89,5.61,9.90,5.62,-5.62,-5.81,-4.91,4.27,4.28,4.28
163.24,9.88,5.66,9.87,5.65,-5.65,-5.85,-4.89,4.23,4.22,4.22
164.88,9.87,5.71,9.85,5.68,-5.68,-5.89,-4.87,4.19,4.16,4.17
166.53,9.84,5.74,9.82,5.71,-5.71,-5.93,-4.85,4.13,4.11,4.10
168.19,9.80,5.75,9.78,5.73,-5.73,-5.96,-4.84,4.07,4.05,4.06
169.87,9.76,5.77,9.75,5.75,-5.75,-6.00,-4.83,4.01,3.99,3.99
171.57,9.71,5.78,9.70,5.77,-5.77,-6.03,-4.83,3.94,3.94,3.93
173.29,9.66,5.78,9.66,5.78,-5.78,-6.06,-4.83,3.88,3.88,3.88
175.02,9.61,5.79,9.61,5.79,-5.79,-6.08,-4.83,3.82,3.82,3.82
176.77,9.56,5.80,9.56,5.80,-5.80,-6.11,-4.84,3.77,3.77,3.77
178.54,9.51,5.80,9.51,5.80,-5.80,-6.13,-4.85,3.71,3.71,3.71
180.32,9.45,5.81,9.46,5.80,-5.80,-6.15,-4.86,3.65,3.66,3.65
182.13,9.39,5.79,9.40,5.80,-5.80,-6.16,-4.88,3.59,3.60,3.60
183.95,9.33,5.78,9.35,5.81,-5.81,-6.17,-4.90,3.53,3.55,3.55
185.79,9.28,5.79,9.30,5.81,-5.81,-6.18,-4.93,3.47,3.49,3.49
187.65,9.24,5.80,9.25,5.81,-5.81,-6.19,-4.96,3.43,3.44,3.44
189.52,9.21,5.82,9.20,5.82,-5.82,-6.20,-4.99,3.40,3.39,3.39
191.42,9.16,5.82,9.16,5.82,-5.82,-6.20,-5.03,3.34,3.34,3.34
193.33,9.11,5.82,9.11,5.82,-5.82,-6.20,-5.07,3.29,3.29,3.29
195.27,9.06,5.82,9.06,5.82,-5.82,-6.19,-5.11,3.24,3.24,3.24
197.22,9.01,5.83,9.02,5.82,-5.82,-6.19,-5.15,3.19,3.20,3.18
199.19,8.97,5.82,8.98,5.83,-5.83,-6.18,-5.20,3.15,3.15,3.15
201.18,8.94,5.85,8.94,5.83,-5.83,-6.16,-5.25,3.12,3.11,3.10
203.19,8.90,5.84,8.89,5.83,-5.83,-6.15,-5.30,3.08,3.07,3.07
205.23,8.85,5.82,8.85,5.82,-5.82,-6.13,-5.35,3.03,3.03,3.04
207.28,8.80,5.81,8.81,5.82,-5.82,-6.11,-5.41,2.99,2.99,3.00
209.35,8.75,5.80,8.76,5.81,-5.81,-6.09,-5.46,2.95,2.95,2.96
211.44,8.71,5.79,8.72,5.80,-5.80,-6.06,-5.52,2.91,2.92,2.92
213.56,8.67,5.78,8.67,5.79,-5.79,-6.03,-5.57,2.89,2.88,2.89
215.69,8.63,5.78,8.63,5.78,-5.78,-6.00,-5.63,2.86,2.85,2.86
217.85,8.59,5.77,8.58,5.76,-5.76,-5.96,-5.68,2.83,2.82,2.82
220.03,8.53,5.75,8.53,5.74,-5.74,-5.93,-5.73,2.79,2.79,2.79
222.23,8.47,5.72,8.48,5.72,-5.72,-5.89,-5.78,2.75,2.76,2.75
224.45,8.42,5.69,8.43,5.70,-5.70,-5.85,-5.83,2.72,2.73,2.73
226.70,8.37,5.68,8.38,5.67,-5.67,-5.80,-5.87,2.70,2.70,2.70
228.96,8.32,5.64,8.32,5.65,-5.65,-5.76,-5.91,2.68,2.68,2.68
231.25,8.28,5.63,8.27,5.62,-5.62,-5.71,-5.95,2.67,2.65,2.65
233.57,8.22,5.59,8.22,5.58,-5.58,-5.66,-5.98,2.64,2.63,2.63
235.90,8.16,5.55,8.16,5.55,-5.55,-5.61,-6.00,2.62,2.61,2.61
238.26,8.10,5.52,8.10,5.51,-5.51,-5.56,-6.02,2.60,2.60,2.59
240.64,8.04,5.46,8.05,5.47,-5.47,-5.50,-6.03,2.58,2.58,2.59
243.05,7.98,5.41,7.99,5.42,-5.42,-5.45,-6.03,2.56,2.57,2.57
245.48,7.93,5.38,7.94,5.38,-5.38,-5.39,-6.02,2.55,2.56,2.55
247.93,7.87,5.34,7.88,5.33,-5.33,-5.33,-6.01,2.54,2.55,2.54
250.41,7.82,5.28,7.83,5.29,-5.29,-5.27,-5.98,2.54,2.54,2.54
252.92,7.77,5.24,7.77,5.24,-5.24,-5.21,-5.95,2.54,2.53,2.54
255.45,7.71,5.19,7.71,5.19,-5.19,-5.14,-5.92,2.53,2.52,2.52
258.00,7.65,5.14,7.65,5.14,-5.14,-5.08,-5.87,2.52,2.52,2.52
260.58,7.59,5.08,7.59,5.08,-5.08,-5.02,-5.82,2.51,2.51,2.51
263.19,7.53,5.02,7.53,5.03,-5.03,-4.95,-5.75,2.50,2.50,2.51
265.82,7.48,4.99,7.47,4.98,-4.98,-4.88,-5.68,2.51,2.50,2.50
268.48,7.42,4.93,7.41,4.92,-4.92,-4.82,-5.61,2.50,2.49,2.50
271.16,7.35,4.86,7.35,4.87,-4.87,-4.75,-5.53,2.49,2.49,2.49
273.87,7.28,4.80,7.29,4.81,-4.81,-4.68,-5.44,2.48,2.48,2.48
276.61,7.22,4.74,7.23,4.75,-4.75,-4.61,-5.35,2.47,2.48,2.48
279.38,7.16,4.70,7.16,4.69,-4.69,-4.54,-5.25,2.47,2.47,2.46
282.17,7.10,4.64,7.10,4.63,-4.63,-4.47,-5.15,2.47,2.47,2.46
284.99,7.04,4.57,7.04,4.57,-4.57,-4.40,-5.04,2.48,2.47,2.47
287.84,6.97,4.50,6.98,4.51,-4.51,-4.33,-4.94,2.47,2.47,2.47
290.72,6.90,4.44,6.92,4.45,-4.45,-4.26,-4.83,2.46,2.47,2.46
293.63,6.84,4.37,6.85,4.38,-4.38,-4.19,-4.72,2.46,2.47,2.47
296.57,6.79,4.32,6.79,4.32,-4.32,-4.12,-4.60,2.48,2.47,2.47
299.53,6.73,4.26,6.73,4.26,-4.26,-4.05,-4.49,2.48,2.48,2.48
302.53,6.67,4.18,6.67,4.19,-4.19,-3.98,-4.38,2.48,2.48,2.49
305.55,6.60,4.12,6.61,4.13,-4.13,-3.91,-4.26,2.48,2.49,2.48
308.61,6.55,4.06,6.55,4.06,-4.06,-3.84,-4.15,2.49,2.49,2.49
311.69,6.50,4.01,6.49,4.00,-4.00,-3.77,-4.04,2.51,2.50,2.50
314.81,6.44,3.94,6.43,3.93,-3.93,-3.70,-3.93,2.51,2.50,2.50
317.96,6.37,3.87,6.37,3.86,-3.86,-3.63,-3.82,2.51,2.51,2.50
321.14,6.30,3.79,6.31,3.80,-3.80,-3.56,-3.71,2.51,2.51,2.52
324.35,6.24,3.73,6.25,3.73,-3.73,-3.49,-3.60,2.51,2.52,2.51
327.59,6.19,3.66,6.18,3.66,-3.66,-3.42,-3.49,2.53,2.53,2.54
330.87,6.13,3.60,6.12,3.59,-3.59,-3.35,-3.39,2.54,2.53,2.53
334.18,6.05,3.52,6.06,3.52,-3.52,-3.28,-3.29,2.53,2.54,2.53
337.52,5.98,3.44,5.99,3.45,-3.45,-3.21,-3.19,2.53,2.54,2.54
340.90,5.92,3.37,5.93,3.38,-3.38,-3.14,-3.09,2.55,2.55,2.55
344.30,5.86,3.30,5.86,3.30,-3.30,-3.07,-2.99,2.56,2.56,2.56
347.75,5.80,3.24,5.80,3.23,-3.23,-3.00,-2.90,2.57,2.56,2.57
351.23,5.73,3.17,5.73,3.16,-3.16,-2.93,-2.81,2.57,2.57,2.56
354.74,5.65,3.07,5.67,3.09,-3.09,-2.87,-2.72,2.56,2.58,2.59
358.28,5.59,3.01,5.60,3.02,-3.02,-2.80,-2.63,2.57,2.58,2.58
361.87,5.54,2.95,5.54,2.95,-2.95,-2.73,-2.54,2.60,2.59,2.59
365.49,5.48,2.89,5.47,2.87,-2.87,-2.66,-2.46,2.61,2.60,2.59
369.14,5.41,2.80,5.41,2.80,-2.80,-2.60,-2.38,2.61,2.60,2.61
372.83,5.34,2.73,5.34,2.73,-2.73,-2.53,-2.30,2.61,2.61,2.62
376.56,5.27,2.66,5.28,2.66,-2.66,-2.46,-2.22,2.61,2.62,2.61
380.33,5.21,2.59,5.22,2.59,-2.59,-2.40,-2.15,2.63,2.63,2.62
384.13,5.15,2.52,5.15,2.51,-2.51,-2.33,-2.07,2.64,2.64,2.64
387.97,5.09,2.45,5.09,2.44,-2.44,-2.27,-2.00,2.65,2.65,2.64
391.85,5.01,2.36,5.02,2.37,-2.37,-2.20,-1.93,2.64,2.65,2.65
395.77,4.95,2.29,4.96,2.30,-2.30,-2.14,-1.86,2.66,2.66,2.66
399.73,4.89,2.23,4.89,2.22,-2.22,-2.07,-1.80,2.67,2.67,2.67
403.72,4.84,2.15,4.83,2.15,-2.15,-2.01,-1.73,2.70,2.68,2.69
407.76,4.77,2.08,4.77,2.07,-2.07,-1.94,-1.67,2.70,2.69,2.69
411.84,4.70,2.00,4.70,2.00,-2.00,-1.88,-1.60,2.70,2.70,2.70
415.96,4.63,1.92,4.64,1.93,-1.93,-1.82,-1.54,2.70,2.71,2.72
420.12,4.57,1.86,4.57,1.86,-1.86,-1.75,-1.48,2.72,2.72,2.71
424.32,4.51,1.79,4.51,1.78,-1.78,-1.69,-1.42,2.73,2.73,2.72
428.56,4.44,1.70,4.44,1.71,-1.71,-1.63,-1.37,2.73,2.73,2.74
432.85,4.37,1.62,4.38,1.64,-1.64,-1.56,-1.31,2.74,2.74,2.75
437.18,4.30,1.56,4.31,1.56,-1.56,-1.50,-1.25,2.74,2.75,2.75
441.55,4.25,1.50,4.25,1.49,-1.49,-1.44,-1.20,2.76,2.76,2.75
445.96,4.19,1.43,4.18,1.41,-1.41,-1.38,-1.15,2.78,2.77,2.76
450.42,4.13,1.36,4.12,1.34,-1.34,-1.31,-1.09,2.79,2.78,2.77
454.93,4.05,1.27,4.05,1.27,-1.27,-1.25,-1.04,2.78,2.78,2.78
459.48,3.98,1.19,3.99,1.20,-1.20,-1.19,-0.99,2.79,2.79,2.79
464.07,3.91,1.11,3.93,1.13,-1.13,-1.13,-0.94,2.79,2.80,2.81
468.71,3.86,1.05,3.86,1.05,-1.05,-1.06,-0.89,2.81,2.81,2.82
473.40,3.80,0.98,3.80,0.98,-0.98,-1.00,-0.83,2.82,2.82,2.82
478.13,3.74,0.91,3.74,0.91,-0.91,-0.94,-0.78,2.83,2.83,2.83
