frequency,raw,error,smoothed,error_smoothed,equalization,parametric_eq,fixed_band_eq,equalized_raw,equalized_smoothed,target
20.00,-0.46,-10.09,-0.46,-10.09,10.09,9.83,3.44,9.63,9.63,9.62
20.20,-0.38,-10.00,-0.38,-9.99,9.99,9.80,3.53,9.61,9.61,9.61
20.40,-0.30,-9.90,-0.30,-9.90,9.90,9.77,3.63,9.60,9.60,9.60
20.61,-0.22,-9.82,-0.22,-9.81,9.81,9.73,3.73,9.58,9.59,9.59
20.81,-0.13,-9.70,-0.14,-9.72,9.72,9.69,3.83,9.58,9.58,9.57
21.02,-0.05,-9.62,-0.06,-9.62,9.62,9.65,3.94,9.57,9.57,9.56
21.23,0.03,-9.53,0.02,-9.53,9.53,9.60,4.05,9.56,9.56,9.55
21.44,0.11,-9.45,0.10,-9.44,9.44,9.56,4.16,9.55,9.55,9.56
21.66,0.19,-9.36,0.19,-9.35,9.35,9.51,4.28,9.54,9.54,9.54
21.87,0.26,-9.28,0.27,-9.26,9.26,9.46,4.39,9.52,9.53,9.54
22.09,0.34,-9.18,0.35,-9.18,9.18,9.40,4.52,9.51,9.52,9.52
22.31,0.43,-9.08,0.43,-9.09,9.09,9.35,4.64,9.52,9.52,9.51
22.54,0.51,-9.00,0.51,-9.00,9.00,9.29,4.77,9.51,9.51,9.50
22.76,0.59,-8.91,0.59,-8.91,8.91,9.23,4.90,9.50,9.50,9.50
22.99,0.68,-8.82,0.67,-8.83,8.83,9.17,5.04,9.50,9.50,9.49
23.22,0.76,-8.73,0.75,-8.74,8.74,9.11,5.18,9.50,9.49,9.48
23.45,0.84,-8.65,0.83,-8.66,8.66,9.04,5.32,9.49,9.49,9.49
23.69,0.91,-8.58,0.91,-8.57,8.57,8.97,5.46,9.48,9.48,9.48
23.92,0.99,-8.48,0.99,-8.49,8.49,8.91,5.61,9.47,9.48,9.47
24.16,1.07,-8.41,1.07,-8.40,8.40,8.84,5.76,9.47,9.48,9.48
24.40,1.15,-8.33,1.15,-8.32,8.32,8.77,5.92,9.47,9.47,9.48
24.65,1.24,-8.24,1.23,-8.24,8.24,8.69,6.07,9.48,9.47,9.47
24.89,1.32,-8.15,1.31,-8.16,8.16,8.62,6.23,9.48,9.47,9.47
25.14,1.40,-8.06,1.39,-8.08,8.08,8.55,6.39,9.47,9.47,9.46
25.39,1.47,-7.99,1.47,-8.00,8.00,8.47,6.55,9.46,9.47,9.46
25.65,1.55,-7.92,1.55,-7.92,7.92,8.39,6.72,9.46,9.47,9.46
25.91,1.63,-7.84,1.63,-7.83,7.83,8.32,6.88,9.46,9.46,9.46
26.16,1.71,-7.76,1.71,-7.75,7.75,8.24,7.05,9.46,9.46,9.47
26.43,1.79,-7.68,1.79,-7.68,7.68,8.16,7.21,9.46,9.46,9.46
26.69,1.87,-7.60,1.87,-7.60,7.60,8.08,7.37,9.47,9.46,9.46
26.96,1.95,-7.52,1.94,-7.52,7.52,8.00,7.54,9.47,9.46,9.46
27.23,2.02,-7.45,2.02,-7.45,7.45,7.92,7.69,9.46,9.47,9.46
27.50,2.10,-7.37,2.10,-7.37,7.37,7.83,7.85,9.47,9.47,9.46
27.77,2.18,-7.29,2.18,-7.30,7.30,7.75,8.00,9.47,9.47,9.47
28.05,2.25,-7.21,2.25,-7.22,7.22,7.67,8.14,9.47,9.47,9.46
28.33,2.33,-7.14,2.33,-7.14,7.14,7.59,8.28,9.47,9.47,9.47
28.62,2.40,-7.08,2.40,-7.07,7.07,7.50,8.40,9.47,9.47,9.47
28.90,2.47,-7.01,2.48,-7.00,7.00,7.42,8.52,9.47,9.47,9.48
29.19,2.55,-6.93,2.55,-6.93,6.93,7.33,8.63,9.47,9.47,9.48
29.48,2.62,-6.85,2.62,-6.85,6.85,7.25,8.72,9.47,9.47,9.47
29.78,2.70,-6.78,2.69,-6.78,6.78,7.16,8.80,9.48,9.47,9.47
30.08,2.77,-6.71,2.75,-6.71,6.71,7.08,8.87,9.48,9.47,9.47
30.38,2.83,-6.63,2.82,-6.64,6.64,6.99,8.91,9.47,9.46,9.45
30.68,2.89,-6.57,2.88,-6.57,6.57,6.91,8.95,9.46,9.46,9.45
30.99,2.95,-6.51,2.95,-6.50,6.50,6.82,8.96,9.45,9.45,9.45
31.30,3.01,-6.45,3.01,-6.44,6.44,6.74,8.96,9.44,9.45,9.45
31.61,3.07,-6.38,3.07,-6.37,6.37,6.65,8.94,9.43,9.44,9.44
31.93,3.14,-6.29,3.13,-6.30,6.30,6.57,8.90,9.44,9.43,9.42
32.24,3.19,-6.24,3.19,-6.23,6.23,6.48,8.85,9.42,9.43,9.43
32.57,3.25,-6.17,3.25,-6.17,6.17,6.39,8.78,9.41,9.42,9.41
32.89,3.31,-6.10,3.31,-6.10,6.10,6.31,8.69,9.41,9.41,9.41
33.22,3.37,-6.03,3.37,-6.04,6.04,6.22,8.59,9.41,9.41,9.40
33.55,3.43,-5.97,3.43,-5.97,5.97,6.14,8.48,9.40,9.40,9.40
33.89,3.49,-5.91,3.48,-5.91,5.91,6.05,8.36,9.40,9.39,9.39
34.23,3.55,-5.83,3.54,-5.84,5.84,5.97,8.22,9.39,9.38,9.37
34.57,3.60,-5.78,3.60,-5.78,5.78,5.88,8.08,9.37,9.37,9.37
34.92,3.66,-5.70,3.66,-5.71,5.71,5.80,7.93,9.36,9.36,9.35
35.27,3.71,-5.67,3.71,-5.64,5.64,5.72,7.77,9.35,9.35,9.37
35.62,3.77,-5.58,3.77,-5.57,5.57,5.63,7.60,9.34,9.34,9.34
35.97,3.83,-5.51,3.83,-5.50,5.50,5.55,7.44,9.33,9.33,9.34
36.33,3.88,-5.44,3.88,-5.43,5.43,5.46,7.27,9.31,9.32,9.32
36.70,3.94,-5.37,3.94,-5.36,5.36,5.38,7.09,9.30,9.30,9.30
37.06,4.00,-5.28,3.99,-5.29,5.29,5.30,6.92,9.29,9.28,9.28
37.43,4.06,-5.20,4.05,-5.22,5.22,5.21,6.74,9.27,9.27,9.26
37.81,4.11,-5.15,4.11,-5.14,5.14,5.13,6.57,9.25,9.25,9.25
38.19,4.17,-5.06,4.16,-5.06,5.06,5.05,6.39,9.23,9.23,9.22
38.57,4.22,-4.99,4.22,-4.99,4.99,4.97,6.22,9.20,9.21,9.20
38.95,4.27,-4.92,4.28,-4.91,4.91,4.88,6.04,9.18,9.18,9.19
39.34,4.33,-4.83,4.33,-4.83,4.83,4.80,5.87,9.16,9.16,9.16
39.74,4.39,-4.75,4.39,-4.75,4.75,4.72,5.70,9.14,9.14,9.13
40.14,4.45,-4.67,4.45,-4.67,4.67,4.64,5.54,9.12,9.12,9.11
40.54,4.51,-4.59,4.51,-4.59,4.59,4.56,5.37,9.10,9.10,9.09
40.94,4.56,-4.50,4.56,-4.51,4.51,4.48,5.21,9.07,9.07,9.06
41.35,4.62,-4.43,4.62,-4.43,4.43,4.40,5.05,9.05,9.05,9.05
41.76,4.68,-4.34,4.68,-4.35,4.35,4.32,4.90,9.03,9.03,9.02
42.18,4.74,-4.27,4.74,-4.27,4.27,4.24,4.74,9.01,9.00,9.01
42.60,4.80,-4.18,4.79,-4.19,4.19,4.16,4.59,8.99,8.98,8.98
43.03,4.85,-4.12,4.85,-4.11,4.11,4.08,4.45,8.95,8.96,8.96
43.46,4.91,-4.02,4.91,-4.02,4.02,4.00,4.31,8.93,8.93,8.92
43.90,4.97,-3.94,4.96,-3.94,3.94,3.92,4.16,8.91,8.91,8.90
44.33,5.02,-3.85,5.02,-3.86,3.86,3.85,4.03,8.88,8.88,8.87
44.78,5.08,-3.78,5.07,-3.78,3.78,3.77,3.89,8.85,8.85,8.85
45.23,5.13,-3.71,5.13,-3.69,3.69,3.69,3.76,8.82,8.82,8.83
45.68,5.18,-3.61,5.18,-3.60,3.60,3.61,3.63,8.78,8.78,8.78
46.13,5.23,-3.52,5.23,-3.51,3.51,3.54,3.51,8.74,8.75,8.75
46.60,5.28,-3.44,5.29,-3.43,3.43,3.46,3.39,8.70,8.71,8.71
47.06,5.34,-3.34,5.34,-3.34,3.34,3.38,3.27,8.67,8.67,8.68
47.53,5.39,-3.25,5.39,-3.25,3.25,3.31,3.15,8.63,8.63,8.64
48.01,5.44,-3.16,5.44,-3.16,3.16,3.23,3.04,8.59,8.59,8.59
48.49,5.49,-3.07,5.49,-3.07,3.07,3.16,2.92,8.56,8.55,8.55
48.97,5.55,-2.95,5.53,-2.98,2.98,3.08,2.82,8.53,8.51,8.50
49.46,5.59,-2.88,5.58,-2.89,2.89,3.01,2.71,8.48,8.47,8.47
49.96,5.63,-2.79,5.63,-2.80,2.80,2.93,2.60,8.43,8.43,8.41
50.46,5.67,-2.72,5.67,-2.71,2.71,2.86,2.50,8.38,8.39,8.38
50.96,5.72,-2.62,5.72,-2.63,2.63,2.79,2.40,8.35,8.34,8.34
51.47,5.75,-2.56,5.76,-2.54,2.54,2.71,2.30,8.29,8.30,8.30
51.99,5.79,-2.47,5.80,-2.46,2.46,2.64,2.21,8.25,8.26,8.25
52.51,5.84,-2.39,5.84,-2.38,2.38,2.57,2.11,8.22,8.22,8.22
53.03,5.88,-2.32,5.88,-2.30,2.30,2.49,2.02,8.18,8.18,8.19
53.56,5.92,-2.23,5.91,-2.22,2.22,2.42,1.93,8.14,8.14,8.14
54.10,5.96,-2.14,5.95,-2.15,2.15,2.35,1.84,8.11,8.10,8.09
54.64,5.99,-2.07,5.98,-2.08,2.08,2.27,1.76,8.06,8.06,8.05
55.18,6.03,-1.98,6.02,-2.00,2.00,2.20,1.67,8.03,8.02,8.01
55.74,6.06,-1.91,6.05,-1.93,1.93,2.13,1.59,7.99,7.98,7.96
56.29,6.09,-1.85,6.09,-1.86,1.86,2.06,1.51,7.95,7.94,7.94
56.86,6.12,-1.79,6.12,-1.78,1.78,1.99,1.43,7.90,7.90,7.90
57.42,6.15,-1.70,6.15,-1.71,1.71,1.92,1.35,7.86,7.86,7.85
58.00,6.18,-1.64,6.19,-1.63,1.63,1.85,1.27,7.81,7.82,7.81
58.58,6.21,-1.58,6.22,-1.55,1.55,1.77,1.20,7.76,7.77,7.78
59.16,6.25,-1.50,6.25,-1.47,1.47,1.70,1.12,7.72,7.73,7.75
59.76,6.29,-1.42,6.29,-1.39,1.39,1.63,1.05,7.68,7.68,7.70
60.35,6.32,-1.33,6.33,-1.31,1.31,1.56,0.98,7.63,7.64,7.65
60.96,6.36,-1.24,6.36,-1.22,1.22,1.49,0.91,7.58,7.59,7.59
61.57,6.40,-1.14,6.40,-1.13,1.13,1.42,0.84,7.53,7.53,7.53
62.18,6.44,-1.03,6.44,-1.05,1.05,1.35,0.77,7.48,7.48,7.47
62.80,6.48,-0.93,6.47,-0.96,0.96,1.28,0.70,7.43,7.43,7.41
63.43,6.52,-0.84,6.51,-0.87,0.87,1.21,0.63,7.39,7.37,7.36
64.07,6.55,-0.77,6.54,-0.78,0.78,1.14,0.57,7.33,7.32,7.31
64.71,6.59,-0.68,6.57,-0.69,0.69,1.07,0.50,7.28,7.27,7.26
65.35,6.61,-0.59,6.60,-0.61,0.61,1.00,0.44,7.22,7.21,7.20
66.01,6.64,-0.52,6.63,-0.52,0.52,0.93,0.37,7.16,7.16,7.15
66.67,6.66,-0.46,6.66,-0.44,0.44,0.87,0.31,7.10,7.10,7.11
67.33,6.68,-0.36,6.69,-0.36,0.36,0.80,0.25,7.04,7.05,7.04
68.01,6.71,-0.29,6.71,-0.28,0.28,0.73,0.18,6.99,6.99,6.99
68.69,6.74,-0.21,6.74,-0.20,0.20,0.66,0.12,6.94,6.94,6.94
69.37,6.76,-0.13,6.76,-0.12,0.12,0.59,0.06,6.88,6.88,6.89
70.07,6.78,-0.06,6.78,-0.04,0.04,0.52,-0.00,6.82,6.82,6.83
70.77,6.80,0.03,6.81,0.04,-0.04,0.45,-0.06,6.76,6.77,6.76
71.48,6.83,0.11,6.83,0.12,-0.12,0.38,-0.12,6.70,6.71,6.71
72.19,6.86,0.21,6.85,0.20,-0.20,0.31,-0.19,6.65,6.65,6.65
72.91,6.89,0.31,6.88,0.28,-0.28,0.24,-0.25,6.60,6.59,6.58
73.64,6.91,0.38,6.90,0.36,-0.36,0.17,-0.31,6.54,6.54,6.53
74.38,6.93,0.45,6.93,0.44,-0.44,0.11,-0.37,6.48,6.48,6.47
75.12,6.95,0.53,6.95,0.52,-0.52,0.04,-0.43,6.43,6.43,6.42
75.87,6.97,0.60,6.97,0.60,-0.60,-0.03,-0.50,6.37,6.37,6.37
76.63,6.99,0.68,7.00,0.68,-0.68,-0.10,-0.56,6.31,6.32,6.31
77.40,7.01,0.73,7.02,0.75,-0.75,-0.17,-0.63,6.26,6.27,6.27
78.17,7.04,0.83,7.04,0.82,-0.82,-0.24,-0.69,6.21,6.22,6.21
78.95,7.06,0.89,7.06,0.89,-0.89,-0.31,-0.76,6.16,6.17,6.17
79.74,7.08,0.96,7.08,0.96,-0.96,-0.38,-0.82,6.12,6.12,6.12
80.54,7.11,1.04,7.09,1.03,-1.03,-0.45,-0.89,6.08,6.07,6.07
81.35,7.12,1.10,7.11,1.09,-1.09,-0.52,-0.96,6.03,6.02,6.01
82.16,7.13,1.14,7.12,1.15,-1.15,-0.59,-1.03,5.98,5.97,5.98
82.98,7.15,1.23,7.13,1.21,-1.21,-0.66,-1.10,5.94,5.92,5.92
83.81,7.15,1.28,7.13,1.27,-1.27,-0.73,-1.17,5.88,5.87,5.87
84.65,7.15,1.33,7.14,1.33,-1.33,-0.80,-1.24,5.82,5.81,5.81
85.50,7.15,1.39,7.14,1.38,-1.38,-0.87,-1.32,5.76,5.76,5.75
86.35,7.14,1.43,7.15,1.44,-1.44,-0.94,-1.39,5.70,5.71,5.70
87.22,7.13,1.47,7.15,1.50,-1.50,-1.01,-1.47,5.63,5.65,5.65
88.09,7.13,1.53,7.15,1.55,-1.55,-1.08,-1.55,5.57,5.59,5.59
88.97,7.13,1.59,7.15,1.61,-1.61,-1.15,-1.62,5.52,5.54,5.53
89.86,7.13,1.64,7.14,1.66,-1.66,-1.22,-1.71,5.46,5.48,5.48
90.76,7.14,1.71,7.14,1.72,-1.72,-1.29,-1.79,5.42,5.42,5.42
91.66,7.14,1.79,7.13,1.77,-1.77,-1.36,-1.87,5.36,5.36,5.35
92.58,7.15,1.84,7.13,1.83,-1.83,-1.43,-1.95,5.32,5.30,5.30
93.51,7.15,1.89,7.12,1.88,-1.88,-1.50,-2.04,5.27,5.24,5.25
94.44,7.14,1.94,7.11,1.93,-1.93,-1.57,-2.13,5.21,5.18,5.19
95.39,7.12,1.99,7.10,1.98,-1.98,-1.65,-2.21,5.14,5.12,5.12
96.34,7.09,2.03,7.09,2.03,-2.03,-1.72,-2.30,5.05,5.06,5.05
97.30,7.07,2.08,7.08,2.08,-2.08,-1.79,-2.39,4.99,4.99,4.99
98.28,7.05,2.12,7.06,2.13,-2.13,-1.86,-2.48,4.92,4.93,4.92
99.26,7.04,2.17,7.04,2.17,-2.17,-1.93,-2.58,4.87,4.87,4.86
100.25,7.03,2.22,7.03,2.21,-2.21,-2.01,-2.67,4.81,4.81,4.80
101.25,7.02,2.27,7.01,2.26,-2.26,-2.08,-2.76,4.76,4.75,4.75
102.27,7.01,2.31,7.01,2.31,-2.31,-2.15,-2.86,4.70,4.70,4.69
103.29,7.01,2.37,7.00,2.36,-2.36,-2.22,-2.95,4.64,4.64,4.63
104.32,7.01,2.42,7.00,2.42,-2.42,-2.30,-3.04,4.59,4.58,4.58
105.37,7.00,2.47,7.01,2.49,-2.49,-2.37,-3.14,4.51,4.52,4.52
106.42,6.99,2.51,7.03,2.56,-2.56,-2.44,-3.23,4.43,4.47,4.47
107.48,7.01,2.60,7.04,2.63,-2.63,-2.52,-3.32,4.38,4.41,4.41
108.56,7.04,2.67,7.07,2.71,-2.71,-2.59,-3.41,4.33,4.35,4.36
109.64,7.09,2.79,7.09,2.80,-2.80,-2.66,-3.50,4.29,4.30,4.30
110.74,7.13,2.88,7.13,2.89,-2.89,-2.74,-3.59,4.24,4.24,4.24
111.85,7.18,2.99,7.16,2.98,-2.98,-2.81,-3.67,4.19,4.18,4.18
112.97,7.23,3.09,7.20,3.08,-3.08,-2.88,-3.76,4.14,4.12,4.13
114.10,7.27,3.19,7.25,3.19,-3.19,-2.96,-3.84,4.08,4.06,4.07
115.24,7.31,3.31,7.30,3.29,-3.29,-3.03,-3.91,4.01,4.00,3.99
116.39,7.34,3.40,7.35,3.40,-3.40,-3.11,-3.98,3.94,3.95,3.93
117.55,7.37,3.50,7.40,3.51,-3.51,-3.18,-4.05,3.86,3.89,3.87
118.73,7.43,3.61,7.44,3.61,-3.61,-3.25,-4.12,3.82,3.83,3.81
119.92,7.49,3.71,7.49,3.71,-3.71,-3.33,-4.18,3.77,3.77,3.77
121.12,7.55,3.82,7.53,3.81,-3.81,-3.40,-4.23,3.73,3.72,3.72
122.33,7.58,3.91,7.57,3.91,-3.91,-3.48,-4.28,3.67,3.66,3.66
123.55,7.62,4.00,7.61,4.01,-4.01,-3.55,-4.33,3.61,3.61,3.61
124.79,7.67,4.10,7.65,4.10,-4.10,-3.62,-4.37,3.57,3.55,3.56
126.03,7.70,4.20,7.68,4.19,-4.19,-3.70,-4.41,3.51,3.50,3.50
127.29,7.71,4.26,7.71,4.27,-4.27,-3.77,-4.44,3.44,3.44,3.45
128.57,7.73,4.34,7.74,4.35,-4.35,-3.84,-4.46,3.38,3.39,3.38
129.85,7.77,4.43,7.76,4.43,-4.43,-3.92,-4.48,3.34,3.33,3.33
131.15,7.78,4.50,7.78,4.50,-4.50,-3.99,-4.50,3.28,3.28,3.27
132.46,7.79,4.56,7.79,4.57,-4.57,-4.06,-4.51,3.22,3.22,3.22
133.79,7.80,4.63,7.80,4.63,-4.63,-4.14,-4.52,3.17,3.17,3.16
135.12,7.81,4.70,7.80,4.69,-4.69,-4.21,-4.53,3.12,3.11,3.11
136.48,7.81,4.74,7.80,4.74,-4.74,-4.28,-4.53,3.07,3.06,3.06
137.84,7.80,4.78,7.80,4.79,-4.79,-4.35,-4.53,3.01,3.01,3.01
139.22,7.79,4.83,7.78,4.83,-4.83,-4.42,-4.52,2.96,2.96,2.95
140.61,7.78,4.86,7.77,4.86,-4.86,-4.49,-4.52,2.92,2.91,2.91
142.02,7.76,4.90,7.75,4.89,-4.89,-4.56,-4.51,2.87,2.86,2.85
143.44,7.75,4.93,7.73,4.91,-4.91,-4.63,-4.50,2.83,2.82,2.81
144.87,7.71,4.93,7.70,4.93,-4.93,-4.70,-4.49,2.77,2.77,2.77
146.32,7.69,4.96,7.68,4.95,-4.95,-4.76,-4.49,2.74,2.73,2.72
147.78,7.65,4.96,7.64,4.96,-4.96,-4.83,-4.48,2.69,2.68,2.68
149.26,7.62,4.98,7.61,4.97,-4.97,-4.90,-4.47,2.64,2.64,2.63
150.75,7.58,4.98,7.58,4.99,-4.99,-4.96,-4.46,2.59,2.59,2.59
152.26,7.55,4.99,7.55,5.00,-5.00,-5.03,-4.45,2.55,2.55,2.55
153.78,7.52,5.00,7.53,5.02,-5.02,-5.09,-4.45,2.50,2.51,2.51
155.32,7.49,5.01,7.50,5.04,-5.04,-5.15,-4.45,2.45,2.46,2.47
156.88,7.46,5.03,7.48,5.06,-5.06,-5.21,-4.45,2.40,2.42,2.42
158.44,7.45,5.07,7.46,5.09,-5.09,-5.27,-4.45,2.36,2.38,2.37
160.03,7.43,5.09,7.45,5.12,-5.12,-5.33,-4.45,2.31,2.33,2.33
161.63,7.43,5.13,7.45,5.16,-5.16,-5.38,-4.46,2.27,2.29,2.29
163.24,7.43,5.19,7.44,5.20,-5.20,-5.44,-4.47,2.23,2.24,2.24
164.88,7.45,5.25,7.44,5.25,-5.25,-5.49,-4.48,2.20,2.20,2.19
166.53,7.45,5.30,7.44,5.30,-5.30,-5.55,-4.49,2.15,2.15,2.14
168.19,7.45,5.33,7.45,5.35,-5.35,-5.60,-4.51,2.10,2.10,2.11
169.87,7.45,5.39,7.45,5.40,-5.40,-5.65,-4.54,2.05,2.05,2.05
171.57,7.46,5.45,7.46,5.45,-5.45,-5.69,-4.56,2.01,2.01,2.00
173.29,7.47,5.50,7.46,5.50,-5.50,-5.74,-4.59,1.97,1.96,1.96
175.02,7.48,5.56,7.46,5.55,-5.55,-5.78,-4.62,1.93,1.91,1.91
176.77,7.47,5.60,7.45,5.59,-5.59,-5.82,-4.66,1.88,1.87,1.86
178.54,7.46,5.63,7.44,5.62,-5.62,-5.86,-4.70,1.83,1.82,1.82
180.32,7.45,5.68,7.43,5.66,-5.66,-5.90,-4.75,1.79,1.77,1.76
182.13,7.44,5.70,7.41,5.68,-5.68,-5.94,-4.79,1.75,1.73,1.73
183.95,7.40,5.71,7.39,5.71,-5.71,-5.97,-4.84,1.69,1.68,1.68
185.79,7.37,5.73,7.37,5.73,-5.73,-6.00,-4.90,1.64,1.64,1.63
187.65,7.35,5.75,7.34,5.75,-5.75,-6.03,-4.96,1.60,1.59,1.59
189.52,7.31,5.75,7.31,5.76,-5.76,-6.06,-5.02,1.55,1.55,1.55
191.42,7.28,5.76,7.27,5.77,-5.77,-6.08,-5.08,1.51,1.51,1.51
193.33,7.24,5.76,7.24,5.78,-5.78,-6.10,-5.15,1.46,1.46,1.47
195.27,7.21,5.78,7.22,5.79,-5.79,-6.12,-5.22,1.42,1.43,1.42
197.22,7.18,5.80,7.19,5.81,-5.81,-6.14,-5.29,1.37,1.39,1.37
199.19,7.16,5.81,7.17,5.82,-5.82,-6.15,-5.37,1.34,1.35,1.34
201.18,7.14,5.83,7.16,5.84,-5.84,-6.16,-5.45,1.30,1.31,1.30
203.19,7.12,5.84,7.15,5.87,-5.87,-6.17,-5.53,1.25,1.28,1.27
205.23,7.10,5.84,7.14,5.89,-5.89,-6.18,-5.61,1.20,1.25,1.25
207.28,7.11,5.88,7.13,5.92,-5.92,-6.19,-5.69,1.19,1.21,1.22
209.35,7.12,5.93,7.13,5.95,-5.95,-6.19,-5.78,1.17,1.18,1.18
211.44,7.13,5.97,7.12,5.97,-5.97,-6.19,-5.86,1.15,1.15,1.15
213.56,7.15,6.01,7.12,6.00,-6.00,-6.18,-5.94,1.15,1.12,1.13
215.69,7.15,6.04,7.12,6.02,-6.02,-6.18,-6.03,1.13,1.10,1.10
217.85,7.14,6.06,7.11,6.04,-6.04,-6.17,-6.11,1.10,1.07,1.07
220.03,7.13,6.08,7.10,6.06,-6.06,-6.16,-6.19,1.07,1.05,1.04
222.23,7.12,6.10,7.09,6.07,-6.07,-6.15,-6.26,1.05,1.02,1.01
224.45,7.09,6.08,7.08,6.08,-6.08,-6.13,-6.34,1.01,1.00,1.00
226.70,7.05,6.07,7.06,6.08,-6.08,-6.11,-6.40,0.97,0.98,0.97
228.96,7.02,6.05,7.03,6.08,-6.08,-6.09,-6.47,0.94,0.96,0.96
231.25,7.00,6.05,7.00,6.06,-6.06,-6.07,-6.53,0.93,0.94,0.94
233.57,6.97,6.04,6.97,6.05,-6.05,-6.05,-6.58,0.92,0.92,0.92
235.90,6.94,6.02,6.94,6.03,-6.03,-6.02,-6.62,0.91,0.91,0.91
238.26,6.92,6.03,6.91,6.01,-6.01,-5.99,-6.66,0.91,0.90,0.88
240.64,6.88,5.98,6.87,5.99,-5.99,-5.96,-6.69,0.89,0.89,0.89
243.05,6.84,5.96,6.84,5.96,-5.96,-5.93,-6.71,0.87,0.88,0.87
245.48,6.80,5.93,6.81,5.94,-5.94,-5.90,-6.72,0.86,0.87,0.86
247.93,6.75,5.89,6.77,5.91,-5.91,-5.86,-6.72,0.84,0.86,0.85
250.41,6.73,5.86,6.74,5.88,-5.88,-5.82,-6.71,0.85,0.86,0.86
252.92,6.69,5.83,6.70,5.85,-5.85,-5.78,-6.70,0.84,0.85,0.85
255.45,6.67,5.82,6.66,5.82,-5.82,-5.74,-6.67,0.85,0.85,0.84
258.00,6.65,5.80,6.62,5.78,-5.78,-5.70,-6.63,0.86,0.84,0.84
260.58,6.61,5.76,6.59,5.75,-5.75,-5.66,-6.59,0.86,0.84,0.84
263.19,6.56,5.71,6.55,5.71,-5.71,-5.61,-6.54,0.85,0.84,0.84
265.82,6.50,5.66,6.50,5.67,-5.67,-5.57,-6.47,0.83,0.83,0.83
268.48,6.46,5.62,6.46,5.63,-5.63,-5.52,-6.40,0.83,0.83,0.83
271.16,6.42,5.58,6.42,5.59,-5.59,-5.47,-6.33,0.83,0.83,0.83
273.87,6.36,5.52,6.37,5.54,-5.54,-5.42,-6.25,0.81,0.83,0.83
276.61,6.33,5.49,6.32,5.50,-5.50,-5.37,-6.16,0.83,0.83,0.83
279.38,6.28,5.46,6.28,5.45,-5.45,-5.31,-6.06,0.83,0.82,0.81
282.17,6.24,5.42,6.23,5.40,-5.40,-5.26,-5.97,0.84,0.83,0.81
284.99,6.20,5.37,6.18,5.35,-5.35,-5.21,-5.87,0.84,0.83,0.82
287.84,6.13,5.29,6.14,5.31,-5.31,-5.15,-5.76,0.82,0.83,0.83
290.72,6.08,5.25,6.09,5.26,-5.26,-5.10,-5.66,0.82,0.83,0.82
293.63,6.04,5.20,6.05,5.22,-5.22,-5.04,-5.55,0.82,0.83,0.83
296.57,6.00,5.15,6.01,5.17,-5.17,-4.98,-5.44,0.82,0.84,0.84
299.53,5.96,5.11,5.97,5.13,-5.13,-4.93,-5.33,0.83,0.84,0.84
302.53,5.94,5.07,5.94,5.09,-5.09,-4.87,-5.22,0.85,0.85,0.86
305.55,5.91,5.05,5.91,5.05,-5.05,-4.81,-5.11,0.86,0.86,0.85
308.61,5.88,5.01,5.87,5.01,-5.01,-4.75,-5.01,0.87,0.86,0.86
311.69,5.84,4.96,5.84,4.97,-4.97,-4.69,-4.90,0.87,0.87,0.87
314.81,5.81,4.93,5.81,4.93,-4.93,-4.63,-4.79,0.88,0.88,0.87
317.96,5.77,4.88,5.78,4.89,-4.89,-4.57,-4.69,0.88,0.88,0.88
321.14,5.75,4.85,5.74,4.85,-4.85,-4.51,-4.59,0.90,0.89,0.89
324.35,5.72,4.82,5.71,4.81,-4.81,-4.45,-4.49,0.91,0.90,0.89
327.59,5.69,4.76,5.67,4.76,-4.76,-4.39,-4.39,0.92,0.91,0.92
330.87,5.66,4.74,5.63,4.72,-4.72,-4.33,-4.30,0.94,0.91,0.91
334.18,5.61,4.68,5.59,4.67,-4.67,-4.27,-4.21,0.94,0.92,0.92
337.52,5.56,4.63,5.55,4.62,-4.62,-4.21,-4.12,0.93,0.93,0.92
340.90,5.51,4.56,5.51,4.57,-4.57,-4.15,-4.03,0.93,0.94,0.94
344.30,5.46,4.50,5.47,4.52,-4.52,-4.09,-3.95,0.93,0.95,0.95
347.75,5.42,4.46,5.43,4.47,-4.47,-4.03,-3.87,0.95,0.95,0.95
351.23,5.37,4.41,5.38,4.42,-4.42,-3.96,-3.79,0.95,0.96,0.95
354.74,5.33,4.34,5.33,4.36,-4.36,-3.90,-3.71,0.96,0.97,0.98
358.28,5.28,4.30,5.29,4.31,-4.31,-3.84,-3.64,0.97,0.98,0.97
361.87,5.24,4.25,5.24,4.25,-4.25,-3.78,-3.57,0.98,0.99,0.98
365.49,5.21,4.21,5.19,4.20,-4.20,-3.72,-3.51,1.01,0.99,0.99
369.14,5.16,4.14,5.15,4.14,-4.14,-3.66,-3.44,1.01,1.00,1.01
372.83,5.11,4.09,5.10,4.09,-4.09,-3.60,-3.38,1.02,1.01,1.01
376.56,5.05,4.03,5.05,4.03,-4.03,-3.54,-3.32,1.02,1.02,1.01
380.33,4.99,3.96,5.00,3.97,-3.97,-3.48,-3.27,1.02,1.03,1.02
384.13,4.94,3.89,4.95,3.91,-3.91,-3.42,-3.21,1.03,1.04,1.04
387.97,4.90,3.85,4.90,3.85,-3.85,-3.37,-3.16,1.05,1.05,1.04
391.85,4.86,3.80,4.84,3.79,-3.79,-3.31,-3.11,1.07,1.06,1.05
395.77,4.81,3.74,4.79,3.72,-3.72,-3.25,-3.07,1.08,1.07,1.06
399.73,4.74,3.66,4.73,3.66,-3.66,-3.19,-3.02,1.08,1.08,1.07
403.72,4.68,3.57,4.68,3.59,-3.59,-3.13,-2.98,1.09,1.09,1.10
407.76,4.62,3.52,4.62,3.52,-3.52,-3.08,-2.94,1.09,1.10,1.09
411.84,4.56,3.45,4.56,3.46,-3.46,-3.02,-2.90,1.10,1.11,1.10
415.96,4.51,3.38,4.51,3.39,-3.39,-2.96,-2.87,1.11,1.12,1.12
420.12,4.45,3.32,4.45,3.33,-3.33,-2.90,-2.83,1.12,1.12,1.12
424.32,4.39,3.25,4.39,3.26,-3.26,-2.85,-2.80,1.13,1.13,1.13
428.56,4.34,3.18,4.34,3.19,-3.19,-2.79,-2.76,1.14,1.14,1.15
432.85,4.28,3.11,4.28,3.13,-3.13,-2.74,-2.73,1.15,1.15,1.16
437.18,4.22,3.06,4.22,3.06,-3.06,-2.68,-2.70,1.16,1.16,1.15
441.55,4.17,3.00,4.17,3.00,-3.00,-2.63,-2.67,1.17,1.17,1.16
445.96,4.12,2.94,4.11,2.93,-2.93,-2.57,-2.64,1.19,1.18,1.17
450.42,4.06,2.87,4.05,2.87,-2.87,-2.52,-2.60,1.19,1.19,1.18
454.93,4.00,2.80,4.00,2.80,-2.80,-2.46,-2.57,1.20,1.20,1.19
459.48,3.94,2.73,3.94,2.74,-2.74,-2.41,-2.54,1.20,1.20,1.20
464.07,3.89,2.66,3.89,2.67,-2.67,-2.35,-2.51,1.21,1.21,1.22
468.71,3.84,2.60,3.83,2.61,-2.61,-2.30,-2.48,1.23,1.22,1.23
473.40,3.78,2.54,3.78,2.54,-2.54,-2.25,-2.44,1.23,1.23,1.23
478.13,3.72,2.47,3.72,2.48,-2.48,-2.19,-2.41,1.24,1.24,1.24
482.91,3.66,2.40,3.66,2.41,-2.41,-2.14,-2.37,1.25,1.25,1.25
487.74,3.61,2.34,3.61,2.34,-2.34,-2.09,-2.33,1.27,1.27,1.26
492.62,3.55,2.27,3.55,2.27,-2.27,-2.04,-2.29,1.27,1.28,1.27
497.55,3.50,2.21,3.50,2.21,-2.21,-1.98,-2.25,1.29,1.29,1.28
502.52,3.45,2.15,3.44,2.14,-2.14,-1.93,-2.21,1.31,1.30,1.29
507.55,3.39,2.07,3.38,2.07,-2.07,-1.88,-2.17,1.32,1.31,1.31
512.62,3.33,2.00,3.33,2.01,-2.01,-1.83,-2.12,1.32,1.32,1.32
517.75,3.26,1.91,3.27,1.94,-1.94,-1.78,-2.07,1.32,1.34,1.34
522.93,3.21,1.85,3.22,1.87,-1.87,-1.73,-2.03,1.34,1.35,1.35
528.16,3.16,1.79,3.16,1.80,-1.80,-1.67,-1.98,1.36,1.36,1.36
533.44,3.11,1.73,3.10,1.73,-1.73,-1.62,-1.93,1.38,1.37,1.37
538.77,3.05,1.66,3.04,1.66,-1.66,-1.57,-1.87,1.39,1.38,1.38
544.16,2.99,1.59,2.98,1.59,-1.59,-1.52,-1.82,1.40,1.39,1.39
549.60,2.93,1.52,2.92,1.52,-1.52,-1.47,-1.76,1.41,1.40,1.40
555.10,2.87,1.44,2.86,1.45,-1.45,-1.42,-1.71,1.42,1.41,1.42
