frequency,raw,error,smoothed,error_smoothed,equalization,parametric_eq,fixed_band_eq,equalized_raw,equalized_smoothed,target
20.00,-5.57,-8.72,-5.57,-8.72,8.74,8.79,3.35,3.17,3.17,3.15
20.20,-5.54,-8.72,-5.54,-8.72,8.72,8.75,3.45,3.18,3.18,3.18
20.40,-5.50,-8.71,-5.50,-8.71,8.70,8.72,3.54,3.20,3.20,3.21
20.61,-5.44,-8.67,-5.45,-8.69,8.68,8.69,3.64,3.24,3.23,3.23
20.81,-5.39,-8.65,-5.39,-8.66,8.65,8.65,3.74,3.26,3.26,3.26
21.02,-5.35,-8.64,-5.33,-8.62,8.62,8.61,3.84,3.27,3.29,3.29
21.23,-5.26,-8.56,-5.28,-8.58,8.58,8.58,3.95,3.32,3.31,3.30
21.44,-5.22,-8.53,-5.22,-8.54,8.54,8.54,4.06,3.32,3.32,3.31
21.66,-5.18,-8.50,-5.17,-8.49,8.50,8.50,4.17,3.32,3.33,3.32
21.87,-5.13,-8.45,-5.13,-8.45,8.45,8.46,4.29,3.32,3.32,3.32
22.09,-5.07,-8.40,-5.07,-8.40,8.40,8.42,4.41,3.33,3.32,3.33
22.31,-5.01,-8.34,-5.01,-8.35,8.34,8.38,4.53,3.33,3.33,3.33
22.54,-4.96,-8.29,-4.95,-8.29,8.29,8.34,4.66,3.33,3.33,3.33
22.76,-4.90,-8.23,-4.90,-8.23,8.23,8.30,4.78,3.33,3.34,3.33
22.99,-4.83,-8.15,-4.84,-8.17,8.17,8.26,4.91,3.34,3.33,3.32
23.22,-4.79,-8.11,-4.79,-8.11,8.12,8.22,5.05,3.33,3.33,3.32
23.45,-4.74,-8.06,-4.74,-8.06,8.06,8.18,5.19,3.32,3.32,3.32
23.69,-4.69,-8.01,-4.68,-8.01,8.00,8.13,5.33,3.31,3.32,3.32
23.92,-4.62,-7.94,-4.63,-7.95,7.95,8.09,5.47,3.33,3.32,3.32
24.16,-4.57,-7.89,-4.57,-7.89,7.90,8.05,5.62,3.33,3.33,3.32
24.40,-4.52,-7.84,-4.52,-7.84,7.85,8.01,5.77,3.33,3.33,3.32
24.65,-4.48,-7.79,-4.48,-7.80,7.80,7.96,5.92,3.32,3.32,3.31
24.89,-4.44,-7.75,-4.44,-7.75,7.75,7.92,6.07,3.31,3.31,3.31
25.14,-4.39,-7.70,-4.39,-7.70,7.70,7.88,6.23,3.31,3.31,3.31
25.39,-4.35,-7.66,-4.35,-7.66,7.66,7.83,6.38,3.31,3.31,3.31
25.65,-4.30,-7.61,-4.31,-7.62,7.61,7.79,6.54,3.31,3.31,3.31
25.91,-4.27,-7.57,-4.26,-7.57,7.57,7.75,6.70,3.30,3.31,3.30
26.16,-4.22,-7.52,-4.22,-7.53,7.53,7.70,6.86,3.31,3.31,3.30
26.43,-4.18,-7.48,-4.18,-7.49,7.49,7.66,7.02,3.31,3.30,3.30
26.69,-4.14,-7.44,-4.14,-7.44,7.44,7.62,7.17,3.30,3.30,3.30
26.96,-4.11,-7.41,-4.10,-7.40,7.40,7.57,7.33,3.29,3.30,3.30
27.23,-4.06,-7.35,-4.07,-7.36,7.36,7.53,7.48,3.30,3.29,3.29
27.50,-4.03,-7.32,-4.03,-7.32,7.32,7.48,7.63,3.29,3.29,3.29
27.77,-4.00,-7.28,-3.99,-7.28,7.28,7.44,7.78,3.28,3.29,3.28
28.05,-3.95,-7.23,-3.96,-7.24,7.24,7.40,7.92,3.29,3.28,3.28
28.33,-3.92,-7.19,-3.92,-7.20,7.20,7.35,8.05,3.28,3.28,3.27
28.62,-3.89,-7.16,-3.89,-7.16,7.17,7.31,8.17,3.28,3.28,3.27
28.90,-3.86,-7.13,-3.86,-7.13,7.13,7.26,8.29,3.27,3.27,3.27
29.19,-3.83,-7.09,-3.83,-7.10,7.09,7.22,8.40,3.26,3.26,3.26
29.48,-3.80,-7.06,-3.80,-7.06,7.06,7.18,8.49,3.26,3.25,3.26
29.78,-3.77,-7.02,-3.77,-7.02,7.02,7.13,8.57,3.25,3.25,3.25
30.08,-3.73,-6.98,-3.73,-6.98,6.98,7.09,8.64,3.25,3.25,3.25
30.38,-3.69,-6.93,-3.69,-6.94,6.94,7.04,8.70,3.25,3.25,3.24
30.68,-3.66,-6.90,-3.66,-6.90,6.91,7.00,8.74,3.25,3.25,3.24
30.99,-3.63,-6.86,-3.63,-6.86,6.87,6.95,8.77,3.24,3.24,3.23
31.30,-3.60,-6.82,-3.60,-6.83,6.83,6.91,8.78,3.23,3.23,3.22
31.61,-3.57,-6.79,-3.57,-6.79,6.79,6.86,8.78,3.22,3.22,3.22
31.93,-3.54,-6.75,-3.54,-6.75,6.75,6.82,8.76,3.21,3.21,3.21
32.24,-3.51,-6.71,-3.51,-6.71,6.71,6.77,8.73,3.20,3.20,3.20
32.57,-3.47,-6.67,-3.47,-6.67,6.67,6.73,8.68,3.20,3.20,3.20
32.89,-3.43,-6.62,-3.43,-6.63,6.63,6.68,8.62,3.20,3.20,3.19
33.22,-3.40,-6.58,-3.40,-6.59,6.59,6.64,8.54,3.19,3.19,3.18
33.55,-3.37,-6.55,-3.37,-6.55,6.55,6.59,8.46,3.18,3.18,3.18
33.89,-3.34,-6.51,-3.34,-6.51,6.51,6.54,8.36,3.17,3.17,3.17
34.23,-3.31,-6.47,-3.31,-6.48,6.47,6.50,8.26,3.16,3.16,3.16
34.57,-3.28,-6.43,-3.28,-6.43,6.43,6.45,8.14,3.15,3.15,3.15
34.92,-3.25,-6.39,-3.25,-6.39,6.39,6.40,8.02,3.14,3.14,3.14
35.27,-3.21,-6.34,-3.21,-6.34,6.34,6.35,7.90,3.13,3.13,3.13
35.62,-3.17,-6.29,-3.17,-6.30,6.30,6.31,7.77,3.13,3.13,3.12
35.97,-3.14,-6.25,-3.14,-6.25,6.25,6.26,7.63,3.11,3.12,3.11
36.33,-3.10,-6.20,-3.10,-6.20,6.20,6.21,7.49,3.10,3.10,3.10
36.70,-3.06,-6.15,-3.06,-6.16,6.16,6.16,7.35,3.09,3.09,3.09
37.06,-3.03,-6.11,-3.02,-6.10,6.10,6.11,7.21,3.08,3.08,3.08
37.43,-2.97,-6.04,-2.98,-6.05,6.05,6.06,7.07,3.08,3.07,3.07
37.81,-2.94,-6.00,-2.94,-6.00,6.00,6.01,6.93,3.06,3.06,3.06
38.19,-2.89,-5.94,-2.89,-5.94,5.94,5.96,6.79,3.05,3.05,3.05
38.57,-2.84,-5.88,-2.84,-5.89,5.88,5.91,6.65,3.04,3.04,3.04
38.95,-2.79,-5.82,-2.79,-5.82,5.82,5.86,6.51,3.03,3.03,3.03
39.34,-2.75,-5.76,-2.74,-5.76,5.76,5.81,6.37,3.01,3.01,3.01
39.74,-2.69,-5.69,-2.69,-5.69,5.69,5.76,6.24,3.00,3.00,3.00
40.14,-2.62,-5.61,-2.63,-5.63,5.62,5.70,6.11,3.00,2.99,2.99
40.54,-2.58,-5.56,-2.58,-5.56,5.56,5.65,5.98,2.98,2.98,2.98
40.94,-2.53,-5.50,-2.52,-5.50,5.50,5.60,5.85,2.97,2.98,2.97
41.35,-2.47,-5.43,-2.47,-5.43,5.44,5.55,5.73,2.97,2.97,2.96
41.76,-2.41,-5.36,-2.42,-5.37,5.38,5.49,5.61,2.97,2.97,2.95
42.18,-2.38,-5.32,-2.38,-5.32,5.33,5.44,5.50,2.95,2.95,2.94
42.60,-2.35,-5.28,-2.35,-5.28,5.28,5.38,5.39,2.93,2.93,2.93
43.03,-2.32,-5.24,-2.32,-5.24,5.23,5.33,5.28,2.91,2.91,2.92
43.46,-2.30,-5.20,-2.29,-5.20,5.19,5.27,5.18,2.89,2.89,2.90
43.90,-2.26,-5.14,-2.26,-5.15,5.14,5.22,5.08,2.88,2.88,2.88
44.33,-2.23,-5.09,-2.23,-5.09,5.09,5.16,4.98,2.86,2.86,2.86
44.78,-2.20,-5.04,-2.20,-5.04,5.05,5.11,4.89,2.85,2.85,2.84
45.23,-2.17,-4.99,-2.17,-4.99,5.00,5.05,4.80,2.83,2.83,2.82
45.68,-2.14,-4.95,-2.14,-4.95,4.95,4.99,4.71,2.81,2.81,2.81
46.13,-2.10,-4.89,-2.10,-4.90,4.90,4.94,4.63,2.80,2.80,2.79
46.60,-2.08,-4.86,-2.08,-4.86,4.86,4.88,4.55,2.78,2.78,2.78
47.06,-2.04,-4.80,-2.05,-4.81,4.81,4.82,4.47,2.77,2.76,2.76
47.53,-2.04,-4.78,-2.03,-4.77,4.77,4.76,4.40,2.73,2.74,2.74
48.01,-1.99,-4.72,-2.00,-4.73,4.72,4.71,4.33,2.73,2.72,2.73
48.49,-1.98,-4.68,-1.98,-4.68,4.68,4.65,4.27,2.70,2.70,2.70
48.97,-1.95,-4.62,-1.95,-4.63,4.63,4.59,4.20,2.68,2.68,2.67
49.46,-1.94,-4.58,-1.94,-4.58,4.58,4.53,4.14,2.64,2.64,2.64
49.96,-1.91,-4.52,-1.91,-4.53,4.53,4.47,4.09,2.62,2.62,2.61
50.46,-1.90,-4.49,-1.89,-4.48,4.49,4.41,4.03,2.59,2.60,2.59
50.96,-1.86,-4.43,-1.87,-4.44,4.44,4.35,3.98,2.58,2.57,2.57
51.47,-1.84,-4.38,-1.84,-4.39,4.39,4.30,3.93,2.55,2.55,2.54
51.99,-1.82,-4.34,-1.82,-4.34,4.35,4.24,3.88,2.53,2.53,2.52
52.51,-1.79,-4.29,-1.80,-4.30,4.30,4.18,3.83,2.51,2.50,2.50
53.03,-1.78,-4.26,-1.77,-4.25,4.24,4.12,3.79,2.46,2.48,2.48
53.56,-1.73,-4.18,-1.74,-4.19,4.18,4.06,3.74,2.45,2.45,2.45
54.10,-1.69,-4.12,-1.70,-4.13,4.12,4.00,3.70,2.43,2.42,2.43
54.64,-1.66,-4.06,-1.65,-4.05,4.05,3.94,3.66,2.39,2.41,2.40
55.18,-1.60,-3.98,-1.60,-3.98,3.98,3.88,3.62,2.38,2.38,2.38
55.74,-1.54,-3.89,-1.55,-3.90,3.90,3.82,3.58,2.36,2.36,2.35
56.29,-1.49,-3.82,-1.48,-3.82,3.82,3.76,3.54,2.33,2.33,2.33
56.86,-1.42,-3.73,-1.42,-3.73,3.73,3.70,3.50,2.31,2.31,2.31
57.42,-1.36,-3.64,-1.36,-3.65,3.64,3.64,3.46,2.29,2.29,2.28
58.00,-1.29,-3.55,-1.29,-3.55,3.55,3.58,3.42,2.26,2.27,2.26
58.58,-1.22,-3.46,-1.22,-3.46,3.46,3.53,3.38,2.24,2.25,2.24
59.16,-1.14,-3.36,-1.15,-3.37,3.37,3.47,3.34,2.23,2.22,2.22
59.76,-1.08,-3.28,-1.08,-3.28,3.28,3.41,3.30,2.20,2.20,2.20
60.35,-1.02,-3.19,-1.01,-3.19,3.18,3.35,3.26,2.16,2.17,2.17
60.96,-0.95,-3.09,-0.95,-3.10,3.09,3.29,3.22,2.14,2.14,2.14
61.57,-0.89,-2.99,-0.89,-3.00,3.00,3.23,3.17,2.11,2.11,2.10
62.18,-0.84,-2.91,-0.83,-2.91,2.91,3.18,3.13,2.07,2.08,2.07
62.80,-0.78,-2.82,-0.78,-2.82,2.83,3.12,3.08,2.05,2.05,2.04
63.43,-0.72,-2.73,-0.73,-2.74,2.75,3.06,3.03,2.03,2.02,2.01
64.07,-0.69,-2.67,-0.68,-2.67,2.67,3.00,2.98,1.98,1.99,1.98
64.71,-0.64,-2.60,-0.64,-2.60,2.60,2.95,2.93,1.96,1.96,1.96
65.35,-0.61,-2.54,-0.61,-2.54,2.54,2.89,2.88,1.93,1.93,1.93
66.01,-0.58,-2.48,-0.58,-2.49,2.49,2.83,2.83,1.91,1.90,1.90
66.67,-0.56,-2.43,-0.56,-2.43,2.43,2.78,2.77,1.87,1.88,1.87
67.33,-0.54,-2.38,-0.54,-2.38,2.38,2.72,2.72,1.85,1.85,1.84
68.01,-0.52,-2.33,-0.53,-2.34,2.34,2.66,2.66,1.82,1.81,1.81
68.69,-0.52,-2.30,-0.52,-2.30,2.30,2.61,2.60,1.78,1.78,1.78
69.37,-0.52,-2.27,-0.50,-2.26,2.26,2.55,2.54,1.74,1.75,1.75
70.07,-0.48,-2.20,-0.49,-2.22,2.22,2.50,2.48,1.74,1.72,1.72
70.77,-0.48,-2.17,-0.48,-2.17,2.18,2.44,2.42,1.70,1.70,1.69
71.48,-0.48,-2.14,-0.48,-2.14,2.14,2.39,2.36,1.66,1.66,1.66
72.19,-0.48,-2.10,-0.48,-2.11,2.10,2.33,2.30,1.62,1.62,1.62
72.91,-0.48,-2.07,-0.48,-2.07,2.07,2.28,2.24,1.59,1.59,1.59
73.64,-0.48,-2.03,-0.48,-2.04,2.03,2.22,2.18,1.55,1.55,1.55
74.38,-0.48,-2.00,-0.48,-2.00,2.00,2.17,2.11,1.52,1.52,1.52
75.12,-0.48,-1.96,-0.48,-1.97,1.97,2.12,2.05,1.49,1.49,1.48
75.87,-0.48,-1.93,-0.48,-1.93,1.93,2.07,1.99,1.45,1.45,1.45
76.63,-0.48,-1.90,-0.48,-1.90,1.90,2.01,1.93,1.42,1.42,1.42
77.40,-0.48,-1.87,-0.48,-1.87,1.87,1.96,1.87,1.39,1.39,1.39
78.17,-0.48,-1.83,-0.48,-1.84,1.84,1.91,1.81,1.36,1.36,1.35
78.95,-0.48,-1.80,-0.48,-1.80,1.81,1.86,1.75,1.33,1.33,1.32
79.74,-0.48,-1.77,-0.48,-1.77,1.77,1.81,1.69,1.29,1.29,1.29
80.54,-0.48,-1.73,-0.48,-1.74,1.74,1.75,1.64,1.26,1.26,1.25
81.35,-0.48,-1.70,-0.48,-1.70,1.70,1.70,1.58,1.22,1.22,1.22
82.16,-0.48,-1.66,-0.48,-1.67,1.66,1.65,1.52,1.18,1.18,1.18
82.98,-0.48,-1.63,-0.48,-1.63,1.62,1.60,1.47,1.14,1.14,1.15
83.81,-0.48,-1.59,-0.47,-1.58,1.58,1.55,1.41,1.10,1.11,1.11
84.65,-0.45,-1.52,-0.46,-1.53,1.55,1.50,1.36,1.10,1.09,1.07
85.50,-0.45,-1.49,-0.45,-1.49,1.51,1.45,1.30,1.06,1.05,1.04
86.35,-0.45,-1.45,-0.46,-1.46,1.47,1.40,1.25,1.02,1.01,1.00
87.22,-0.48,-1.44,-0.47,-1.43,1.43,1.35,1.20,0.95,0.96,0.96
88.09,-0.48,-1.40,-0.48,-1.40,1.39,1.31,1.15,0.91,0.91,0.92
88.97,-0.48,-1.36,-0.48,-1.37,1.35,1.26,1.10,0.87,0.87,0.88
89.86,-0.48,-1.32,-0.48,-1.32,1.32,1.21,1.05,0.84,0.84,0.84
90.76,-0.48,-1.27,-0.48,-1.27,1.28,1.16,1.00,0.80,0.81,0.79
91.66,-0.48,-1.23,-0.48,-1.23,1.25,1.11,0.95,0.77,0.76,0.75
92.58,-0.48,-1.18,-0.49,-1.20,1.21,1.07,0.90,0.73,0.71,0.70
93.51,-0.52,-1.18,-0.51,-1.17,1.17,1.02,0.86,0.65,0.66,0.66
94.44,-0.52,-1.14,-0.52,-1.14,1.13,0.97,0.81,0.61,0.61,0.62
95.39,-0.52,-1.09,-0.52,-1.10,1.08,0.93,0.76,0.56,0.56,0.57
96.34,-0.52,-1.04,-0.52,-1.04,1.04,0.88,0.72,0.52,0.52,0.52
97.30,-0.52,-0.99,-0.52,-0.99,1.00,0.83,0.67,0.48,0.48,0.47
98.28,-0.52,-0.94,-0.52,-0.95,0.95,0.79,0.63,0.43,0.43,0.42
99.26,-0.52,-0.90,-0.52,-0.90,0.90,0.74,0.59,0.38,0.38,0.38
100.25,-0.52,-0.85,-0.52,-0.85,0.85,0.69,0.55,0.33,0.33,0.33
101.25,-0.52,-0.80,-0.52,-0.80,0.81,0.65,0.50,0.29,0.29,0.28
102.27,-0.52,-0.75,-0.52,-0.76,0.76,0.60,0.46,0.24,0.24,0.23
103.29,-0.53,-0.71,-0.54,-0.72,0.72,0.56,0.42,0.19,0.19,0.18
104.32,-0.56,-0.70,-0.55,-0.69,0.69,0.51,0.38,0.13,0.14,0.14
105.37,-0.56,-0.65,-0.55,-0.65,0.65,0.47,0.34,0.09,0.09,0.09
106.42,-0.56,-0.60,-0.57,-0.61,0.61,0.42,0.30,0.05,0.05,0.04
107.48,-0.56,-0.55,-0.58,-0.57,0.57,0.38,0.27,0.01,-0.00,-0.01
108.56,-0.61,-0.55,-0.59,-0.54,0.54,0.34,0.23,-0.07,-0.06,-0.06
109.64,-0.61,-0.50,-0.61,-0.50,0.49,0.29,0.19,-0.12,-0.11,-0.11
110.74,-0.61,-0.45,-0.61,-0.46,0.45,0.25,0.15,-0.16,-0.17,-0.16
111.85,-0.61,-0.40,-0.61,-0.40,0.40,0.20,0.12,-0.21,-0.21,-0.21
112.97,-0.61,-0.34,-0.61,-0.35,0.35,0.16,0.08,-0.26,-0.26,-0.27
114.10,-0.61,-0.29,-0.61,-0.29,0.29,0.12,0.05,-0.32,-0.32,-0.32
115.24,-0.61,-0.23,-0.61,-0.24,0.23,0.07,0.01,-0.38,-0.38,-0.38
116.39,-0.61,-0.18,-0.60,-0.17,0.17,0.03,-0.02,-0.44,-0.43,-0.43
117.55,-0.58,-0.09,-0.58,-0.10,0.10,-0.01,-0.05,-0.48,-0.48,-0.49
118.73,-0.56,-0.02,-0.57,-0.03,0.04,-0.06,-0.08,-0.52,-0.53,-0.54
119.92,-0.56,0.03,-0.56,0.03,-0.02,-0.10,-0.12,-0.58,-0.57,-0.59
121.12,-0.56,0.08,-0.56,0.08,-0.07,-0.14,-0.15,-0.63,-0.63,-0.64
122.33,-0.56,0.13,-0.56,0.13,-0.13,-0.18,-0.18,-0.69,-0.69,-0.69
123.55,-0.56,0.18,-0.56,0.18,-0.18,-0.23,-0.21,-0.74,-0.74,-0.74
124.79,-0.56,0.23,-0.56,0.23,-0.23,-0.27,-0.24,-0.79,-0.79,-0.79
126.03,-0.56,0.28,-0.56,0.28,-0.28,-0.31,-0.27,-0.84,-0.84,-0.84
127.29,-0.56,0.33,-0.56,0.33,-0.33,-0.35,-0.29,-0.89,-0.89,-0.89
128.57,-0.56,0.39,-0.56,0.38,-0.38,-0.40,-0.32,-0.94,-0.94,-0.95
129.85,-0.56,0.44,-0.57,0.43,-0.42,-0.44,-0.35,-0.98,-0.99,-1.00
131.15,-0.58,0.47,-0.57,0.47,-0.47,-0.48,-0.37,-1.05,-1.04,-1.05
132.46,-0.58,0.52,-0.58,0.52,-0.52,-0.52,-0.40,-1.10,-1.10,-1.10
133.79,-0.58,0.56,-0.58,0.56,-0.57,-0.56,-0.43,-1.15,-1.15,-1.14
135.12,-0.58,0.61,-0.58,0.60,-0.61,-0.60,-0.45,-1.19,-1.19,-1.19
136.48,-0.58,0.65,-0.58,0.65,-0.65,-0.65,-0.48,-1.23,-1.23,-1.23
137.84,-0.58,0.70,-0.58,0.70,-0.70,-0.69,-0.50,-1.28,-1.28,-1.28
139.22,-0.58,0.75,-0.58,0.74,-0.74,-0.73,-0.53,-1.32,-1.31,-1.33
140.61,-0.58,0.79,-0.58,0.79,-0.77,-0.77,-0.55,-1.35,-1.35,-1.37
142.02,-0.58,0.82,-0.58,0.82,-0.81,-0.81,-0.58,-1.39,-1.39,-1.40
143.44,-0.59,0.85,-0.59,0.84,-0.84,-0.85,-0.61,-1.43,-1.44,-1.44
144.87,-0.61,0.87,-0.60,0.87,-0.88,-0.89,-0.63,-1.49,-1.48,-1.48
146.32,-0.61,0.91,-0.61,0.90,-0.91,-0.93,-0.66,-1.52,-1.52,-1.52
147.78,-0.61,0.94,-0.61,0.94,-0.95,-0.97,-0.68,-1.56,-1.56,-1.55
149.26,-0.61,0.98,-0.61,0.98,-0.98,-1.01,-0.71,-1.59,-1.59,-1.59
150.75,-0.61,1.02,-0.61,1.02,-1.01,-1.05,-0.74,-1.62,-1.62,-1.63
152.26,-0.61,1.06,-0.61,1.06,-1.05,-1.09,-0.77,-1.66,-1.66,-1.67
153.78,-0.61,1.10,-0.61,1.09,-1.08,-1.12,-0.79,-1.69,-1.70,-1.71
155.32,-0.63,1.12,-0.62,1.12,-1.12,-1.16,-0.82,-1.75,-1.74,-1.75
156.88,-0.63,1.16,-0.64,1.15,-1.16,-1.20,-0.85,-1.79,-1.79,-1.79
158.44,-0.65,1.18,-0.64,1.18,-1.19,-1.24,-0.88,-1.84,-1.84,-1.83
160.03,-0.65,1.22,-0.64,1.22,-1.23,-1.28,-0.92,-1.88,-1.88,-1.87
161.63,-0.63,1.28,-0.64,1.27,-1.27,-1.31,-0.95,-1.90,-1.91,-1.91
163.24,-0.63,1.32,-0.62,1.32,-1.32,-1.35,-0.98,-1.95,-1.94,-1.95
164.88,-0.61,1.37,-0.61,1.37,-1.36,-1.39,-1.01,-1.97,-1.97,-1.98
166.53,-0.61,1.41,-0.61,1.41,-1.40,-1.42,-1.05,-2.01,-2.01,-2.02
168.19,-0.61,1.45,-0.61,1.45,-1.44,-1.46,-1.09,-2.05,-2.05,-2.06
169.87,-0.61,1.49,-0.61,1.49,-1.49,-1.49,-1.12,-2.10,-2.10,-2.10
171.57,-0.61,1.53,-0.61,1.52,-1.52,-1.53,-1.16,-2.13,-2.13,-2.14
173.29,-0.61,1.56,-0.61,1.56,-1.56,-1.56,-1.20,-2.17,-2.17,-2.17
175.02,-0.61,1.60,-0.61,1.60,-1.60,-1.59,-1.24,-2.21,-2.21,-2.21
176.77,-0.61,1.64,-0.61,1.64,-1.64,-1.63,-1.28,-2.25,-2.25,-2.25
178.54,-0.61,1.68,-0.61,1.68,-1.68,-1.66,-1.32,-2.29,-2.29,-2.29
180.32,-0.61,1.72,-0.61,1.71,-1.71,-1.69,-1.37,-2.32,-2.32,-2.33
182.13,-0.61,1.75,-0.61,1.75,-1.75,-1.72,-1.41,-2.36,-2.36,-2.36
183.95,-0.61,1.79,-0.61,1.78,-1.78,-1.75,-1.46,-2.39,-2.39,-2.40
185.79,-0.61,1.82,-0.61,1.82,-1.82,-1.78,-1.50,-2.43,-2.43,-2.43
187.65,-0.61,1.86,-0.61,1.85,-1.85,-1.81,-1.55,-2.46,-2.46,-2.47
189.52,-0.61,1.89,-0.61,1.89,-1.89,-1.84,-1.60,-2.50,-2.50,-2.50
191.42,-0.61,1.92,-0.61,1.92,-1.92,-1.87,-1.65,-2.53,-2.53,-2.53
193.33,-0.61,1.95,-0.61,1.95,-1.95,-1.90,-1.70,-2.56,-2.56,-2.56
195.27,-0.61,1.98,-0.61,1.98,-1.98,-1.92,-1.75,-2.59,-2.59,-2.59
197.22,-0.61,2.01,-0.61,2.01,-2.00,-1.95,-1.80,-2.61,-2.61,-2.62
199.19,-0.61,2.04,-0.61,2.03,-2.03,-1.97,-1.85,-2.64,-2.64,-2.65
201.18,-0.61,2.06,-0.61,2.06,-2.05,-2.00,-1.90,-2.66,-2.66,-2.67
203.19,-0.61,2.08,-0.61,2.08,-2.07,-2.02,-1.95,-2.68,-2.68,-2.69
205.23,-0.61,2.10,-0.61,2.09,-2.10,-2.04,-2.01,-2.71,-2.71,-2.71
207.28,-0.61,2.11,-0.61,2.11,-2.12,-2.06,-2.06,-2.73,-2.73,-2.72
209.35,-0.61,2.13,-0.61,2.13,-2.14,-2.08,-2.11,-2.75,-2.75,-2.74
211.44,-0.61,2.15,-0.60,2.15,-2.16,-2.10,-2.16,-2.77,-2.76,-2.76
213.56,-0.58,2.19,-0.59,2.18,-2.17,-2.12,-2.21,-2.75,-2.76,-2.77
215.69,-0.57,2.20,-0.57,2.20,-2.19,-2.14,-2.26,-2.76,-2.76,-2.77
217.85,-0.56,2.22,-0.56,2.22,-2.21,-2.15,-2.31,-2.77,-2.77,-2.78
220.03,-0.56,2.23,-0.56,2.23,-2.22,-2.17,-2.36,-2.78,-2.78,-2.79
222.23,-0.56,2.24,-0.56,2.23,-2.24,-2.18,-2.40,-2.80,-2.80,-2.80
224.45,-0.56,2.24,-0.56,2.24,-2.25,-2.20,-2.45,-2.81,-2.80,-2.80
226.70,-0.55,2.25,-0.54,2.25,-2.25,-2.21,-2.49,-2.80,-2.80,-2.80
228.96,-0.52,2.28,-0.53,2.26,-2.26,-2.22,-2.53,-2.78,-2.79,-2.80
231.25,-0.52,2.27,-0.52,2.27,-2.27,-2.23,-2.56,-2.79,-2.79,-2.79
233.57,-0.52,2.27,-0.52,2.27,-2.27,-2.24,-2.59,-2.79,-2.79,-2.79
235.90,-0.52,2.27,-0.51,2.27,-2.27,-2.25,-2.62,-2.79,-2.79,-2.79
238.26,-0.50,2.28,-0.50,2.28,-2.27,-2.25,-2.64,-2.77,-2.77,-2.78
240.64,-0.48,2.29,-0.49,2.28,-2.27,-2.26,-2.67,-2.75,-2.76,-2.77
243.05,-0.48,2.28,-0.48,2.28,-2.27,-2.26,-2.68,-2.75,-2.75,-2.76
245.48,-0.48,2.27,-0.48,2.27,-2.27,-2.27,-2.70,-2.75,-2.74,-2.75
247.93,-0.48,2.26,-0.48,2.25,-2.26,-2.27,-2.70,-2.74,-2.75,-2.74
250.41,-0.48,2.25,-0.48,2.25,-2.26,-2.27,-2.71,-2.74,-2.73,-2.73
252.92,-0.48,2.23,-0.46,2.24,-2.25,-2.27,-2.71,-2.73,-2.71,-2.71
255.45,-0.43,2.26,-0.45,2.24,-2.24,-2.27,-2.70,-2.67,-2.69,-2.69
258.00,-0.43,2.25,-0.43,2.24,-2.23,-2.27,-2.69,-2.66,-2.67,-2.68
260.58,-0.43,2.23,-0.43,2.23,-2.22,-2.27,-2.68,-2.65,-2.65,-2.66
263.19,-0.43,2.21,-0.42,2.22,-2.22,-2.26,-2.66,-2.65,-2.64,-2.64
265.82,-0.41,2.21,-0.41,2.20,-2.21,-2.26,-2.64,-2.62,-2.62,-2.62
268.48,-0.39,2.21,-0.40,2.20,-2.20,-2.25,-2.62,-2.59,-2.60,-2.60
271.16,-0.39,2.19,-0.38,2.20,-2.20,-2.25,-2.59,-2.59,-2.57,-2.58
273.87,-0.36,2.20,-0.37,2.19,-2.19,-2.24,-2.56,-2.55,-2.56,-2.56
276.61,-0.35,2.19,-0.35,2.18,-2.19,-2.23,-2.53,-2.54,-2.54,-2.54
279.38,-0.35,2.17,-0.33,2.18,-2.18,-2.22,-2.49,-2.53,-2.52,-2.52
282.17,-0.30,2.20,-0.32,2.18,-2.18,-2.21,-2.45,-2.48,-2.50,-2.50
284.99,-0.30,2.18,-0.30,2.18,-2.18,-2.20,-2.41,-2.48,-2.48,-2.48
287.84,-0.28,2.18,-0.28,2.18,-2.18,-2.19,-2.37,-2.46,-2.46,-2.46
290.72,-0.26,2.18,-0.26,2.17,-2.17,-2.18,-2.32,-2.43,-2.44,-2.44
293.63,-0.25,2.17,-0.24,2.17,-2.17,-2.17,-2.28,-2.42,-2.41,-2.42
296.57,-0.22,2.18,-0.23,2.17,-2.17,-2.15,-2.23,-2.39,-2.40,-2.40
299.53,-0.22,2.16,-0.22,2.16,-2.16,-2.14,-2.19,-2.38,-2.38,-2.38
302.53,-0.22,2.14,-0.20,2.15,-2.15,-2.12,-2.14,-2.37,-2.35,-2.36
305.55,-0.18,2.15,-0.19,2.14,-2.13,-2.11,-2.09,-2.31,-2.32,-2.33
308.61,-0.17,2.14,-0.18,2.13,-2.12,-2.09,-2.05,-2.29,-2.30,-2.31
311.69,-0.17,2.11,-0.17,2.11,-2.11,-2.07,-2.00,-2.28,-2.28,-2.28
314.81,-0.17,2.08,-0.16,2.09,-2.10,-2.06,-1.95,-2.27,-2.26,-2.25
317.96,-0.16,2.07,-0.15,2.07,-2.08,-2.04,-1.91,-2.24,-2.24,-2.23
321.14,-0.13,2.08,-0.14,2.07,-2.07,-2.02,-1.86,-2.20,-2.21,-2.21
324.35,-0.13,2.06,-0.13,2.06,-2.05,-2.00,-1.82,-2.18,-2.18,-2.19
327.59,-0.13,2.04,-0.13,2.04,-2.03,-1.98,-1.77,-2.16,-2.15,-2.17
330.87,-0.13,2.02,-0.14,2.01,-2.00,-1.96,-1.73,-2.13,-2.14,-2.15
334.18,-0.15,1.98,-0.15,1.98,-1.98,-1.94,-1.69,-2.13,-2.13,-2.13
337.52,-0.17,1.94,-0.16,1.95,-1.95,-1.92,-1.65,-2.12,-2.10,-2.11
340.90,-0.17,1.92,-0.17,1.91,-1.91,-1.90,-1.61,-2.08,-2.09,-2.09
344.30,-0.17,1.90,-0.19,1.88,-1.88,-1.88,-1.57,-2.05,-2.06,-2.07
347.75,-0.22,1.83,-0.20,1.84,-1.84,-1.86,-1.53,-2.06,-2.04,-2.05
351.23,-0.22,1.81,-0.23,1.80,-1.80,-1.83,-1.50,-2.02,-2.03,-2.03
354.74,-0.24,1.77,-0.24,1.77,-1.77,-1.81,-1.46,-2.01,-2.02,-2.01
358.28,-0.26,1.74,-0.25,1.74,-1.74,-1.79,-1.43,-2.00,-1.99,-2.00
361.87,-0.26,1.72,-0.26,1.72,-1.72,-1.77,-1.39,-1.98,-1.98,-1.98
365.49,-0.26,1.70,-0.27,1.69,-1.70,-1.74,-1.36,-1.96,-1.97,-1.96
369.14,-0.26,1.69,-0.26,1.69,-1.69,-1.72,-1.33,-1.95,-1.95,-1.95
372.83,-0.26,1.67,-0.25,1.68,-1.68,-1.69,-1.30,-1.94,-1.93,-1.93
376.56,-0.22,1.70,-0.23,1.68,-1.68,-1.67,-1.27,-1.90,-1.92,-1.92
380.33,-0.22,1.68,-0.21,1.69,-1.69,-1.64,-1.25,-1.91,-1.90,-1.90
384.13,-0.18,1.71,-0.18,1.70,-1.70,-1.62,-1.22,-1.88,-1.88,-1.89
387.97,-0.17,1.71,-0.17,1.71,-1.71,-1.59,-1.20,-1.88,-1.87,-1.88
391.85,-0.13,1.74,-0.14,1.72,-1.72,-1.57,-1.17,-1.85,-1.86,-1.87
395.77,-0.13,1.72,-0.12,1.73,-1.73,-1.54,-1.15,-1.86,-1.85,-1.85
399.73,-0.09,1.75,-0.09,1.75,-1.75,-1.51,-1.13,-1.84,-1.84,-1.84
403.72,-0.05,1.78,-0.06,1.76,-1.77,-1.48,-1.11,-1.82,-1.83,-1.83
407.76,-0.04,1.78,-0.03,1.79,-1.78,-1.45,-1.09,-1.82,-1.82,-1.82
411.84,-0.00,1.81,-0.01,1.80,-1.80,-1.42,-1.07,-1.80,-1.81,-1.81
415.96,0.01,1.81,0.02,1.81,-1.82,-1.39,-1.05,-1.81,-1.80,-1.80
420.12,0.04,1.83,0.04,1.83,-1.84,-1.36,-1.03,-1.80,-1.79,-1.79
424.32,0.07,1.85,0.07,1.84,-1.85,-1.33,-1.01,-1.78,-1.78,-1.78
428.56,0.09,1.86,0.08,1.85,-1.86,-1.29,-1.00,-1.77,-1.77,-1.77
432.85,0.09,1.85,0.09,1.85,-1.86,-1.26,-0.98,-1.77,-1.76,-1.76
437.18,0.09,1.84,0.10,1.84,-1.84,-1.22,-0.97,-1.75,-1.75,-1.75
441.55,0.09,1.82,0.09,1.82,-1.82,-1.18,-0.95,-1.73,-1.73,-1.73
445.96,0.06,1.78,0.06,1.78,-1.77,-1.13,-0.94,-1.71,-1.71,-1.72
450.42,0.01,1.72,0.01,1.71,-1.70,-1.09,-0.93,-1.69,-1.69,-1.71
454.93,-0.07,1.62,-0.07,1.62,-1.60,-1.04,-0.92,-1.67,-1.67,-1.69
459.48,-0.18,1.50,-0.18,1.49,-1.47,-0.98,-0.90,-1.65,-1.66,-1.68
464.07,-0.32,1.35,-0.32,1.34,-1.32,-0.92,-0.89,-1.64,-1.64,-1.67
468.71,-0.49,1.16,-0.49,1.16,-1.14,-0.85,-0.88,-1.63,-1.63,-1.65
473.40,-0.67,0.97,-0.68,0.96,-0.94,-0.78,-0.87,-1.61,-1.62,-1.64
