frequency,raw,error,smoothed,error_smoothed,equalization,parametric_eq,fixed_band_eq,equalized_raw,equalized_smoothed,target
20.00,-5.16,-9.87,-5.15,-9.89,9.89,9.18,3.74,4.73,4.74,4.71
20.20,-5.08,-9.84,-5.08,-9.86,9.86,9.21,3.84,4.78,4.78,4.76
20.40,-5.01,-9.82,-5.01,-9.82,9.82,9.24,3.94,4.82,4.81,4.81
20.61,-4.93,-9.77,-4.94,-9.79,9.79,9.26,4.05,4.86,4.84,4.84
20.81,-4.86,-9.75,-4.87,-9.75,9.75,9.28,4.16,4.89,4.88,4.89
21.02,-4.78,-9.71,-4.80,-9.70,9.70,9.29,4.27,4.93,4.90,4.93
21.23,-4.73,-9.68,-4.73,-9.66,9.66,9.30,4.39,4.93,4.93,4.95
21.44,-4.67,-9.64,-4.66,-9.61,9.61,9.31,4.51,4.94,4.95,4.97
21.66,-4.62,-9.61,-4.59,-9.56,9.56,9.31,4.63,4.94,4.97,4.99
21.87,-4.56,-9.56,-4.52,-9.51,9.51,9.30,4.75,4.95,4.99,5.00
22.09,-4.49,-9.51,-4.45,-9.46,9.46,9.29,4.88,4.97,5.01,5.02
22.31,-4.40,-9.43,-4.38,-9.40,9.40,9.28,5.01,5.00,5.02,5.03
22.54,-4.31,-9.34,-4.31,-9.34,9.34,9.26,5.15,5.03,5.03,5.03
22.76,-4.22,-9.25,-4.24,-9.27,9.27,9.24,5.29,5.05,5.03,5.03
22.99,-4.13,-9.15,-4.17,-9.20,9.20,9.21,5.43,5.07,5.03,5.02
23.22,-4.08,-9.10,-4.10,-9.13,9.13,9.18,5.58,5.05,5.03,5.02
23.45,-4.02,-9.04,-4.03,-9.06,9.06,9.15,5.73,5.04,5.03,5.02
23.69,-3.96,-8.99,-3.96,-8.99,8.99,9.11,5.88,5.03,5.03,5.03
23.92,-3.91,-8.94,-3.89,-8.92,8.92,9.07,6.03,5.01,5.03,5.03
24.16,-3.84,-8.87,-3.82,-8.85,8.85,9.02,6.19,5.02,5.03,5.03
24.40,-3.77,-8.81,-3.76,-8.79,8.79,8.97,6.35,5.02,5.03,5.04
24.65,-3.70,-8.73,-3.69,-8.72,8.72,8.92,6.52,5.02,5.03,5.03
24.89,-3.63,-8.66,-3.63,-8.66,8.66,8.86,6.69,5.03,5.03,5.03
25.14,-3.57,-8.60,-3.57,-8.60,8.60,8.81,6.85,5.03,5.03,5.03
25.39,-3.51,-8.55,-3.51,-8.54,8.54,8.75,7.02,5.03,5.03,5.04
25.65,-3.45,-8.49,-3.45,-8.48,8.48,8.68,7.20,5.04,5.03,5.04
25.91,-3.39,-8.42,-3.39,-8.43,8.43,8.62,7.37,5.04,5.03,5.03
26.16,-3.34,-8.37,-3.34,-8.37,8.37,8.55,7.54,5.03,5.03,5.03
26.43,-3.28,-8.31,-3.29,-8.32,8.32,8.48,7.71,5.04,5.03,5.03
26.69,-3.23,-8.26,-3.25,-8.28,8.28,8.41,7.89,5.05,5.03,5.03
26.96,-3.18,-8.21,-3.21,-8.24,8.24,8.34,8.06,5.06,5.03,5.03
27.23,-3.14,-8.17,-3.17,-8.20,8.20,8.26,8.22,5.06,5.03,5.03
27.50,-3.11,-8.14,-3.13,-8.16,8.16,8.19,8.39,5.05,5.02,5.03
27.77,-3.08,-8.10,-3.09,-8.11,8.11,8.11,8.55,5.04,5.02,5.02
28.05,-3.06,-8.08,-3.04,-8.07,8.07,8.04,8.70,5.01,5.02,5.02
28.33,-3.03,-8.04,-2.99,-8.01,8.01,7.96,8.84,4.98,5.02,5.01
28.62,-3.00,-8.01,-2.94,-7.96,7.96,7.88,8.98,4.96,5.02,5.01
28.90,-2.98,-8.00,-2.89,-7.91,7.91,7.80,9.11,4.93,5.02,5.02
29.19,-2.91,-7.92,-2.84,-7.86,7.86,7.73,9.23,4.95,5.02,5.01
29.48,-2.81,-7.83,-2.79,-7.80,7.80,7.65,9.33,5.00,5.01,5.02
29.78,-2.72,-7.73,-2.74,-7.75,7.75,7.57,9.43,5.03,5.01,5.01
30.08,-2.63,-7.65,-2.68,-7.69,7.69,7.49,9.51,5.06,5.01,5.02
30.38,-2.57,-7.58,-2.62,-7.63,7.63,7.41,9.57,5.06,5.01,5.01
30.68,-2.51,-7.52,-2.57,-7.58,7.58,7.34,9.62,5.07,5.01,5.01
30.99,-2.45,-7.46,-2.52,-7.52,7.52,7.26,9.65,5.07,5.01,5.01
31.30,-2.45,-7.45,-2.47,-7.48,7.48,7.19,9.67,5.03,5.00,5.00
31.61,-2.46,-7.46,-2.43,-7.43,7.43,7.11,9.67,4.97,5.00,5.00
31.93,-2.46,-7.46,-2.40,-7.40,7.40,7.04,9.65,4.94,5.00,5.00
32.24,-2.40,-7.39,-2.37,-7.36,7.36,6.96,9.62,4.96,4.99,4.99
32.57,-2.32,-7.31,-2.34,-7.33,7.33,6.89,9.58,5.01,4.99,4.99
32.89,-2.25,-7.24,-2.31,-7.30,7.30,6.82,9.52,5.05,4.98,4.99
33.22,-2.24,-7.22,-2.28,-7.26,7.26,6.75,9.44,5.02,4.98,4.98
33.55,-2.26,-7.24,-2.25,-7.22,7.22,6.68,9.36,4.96,4.98,4.98
33.89,-2.28,-7.25,-2.21,-7.18,7.18,6.62,9.27,4.90,4.97,4.97
34.23,-2.25,-7.22,-2.17,-7.14,7.14,6.55,9.16,4.89,4.97,4.97
34.57,-2.18,-7.14,-2.13,-7.09,7.09,6.49,9.05,4.91,4.96,4.96
34.92,-2.12,-7.08,-2.09,-7.05,7.05,6.42,8.94,4.93,4.96,4.96
35.27,-2.05,-7.00,-2.04,-7.00,7.00,6.36,8.81,4.95,4.95,4.95
35.62,-1.98,-6.93,-2.01,-6.96,6.96,6.30,8.69,4.98,4.95,4.95
35.97,-1.91,-6.86,-1.97,-6.92,6.92,6.25,8.56,5.01,4.95,4.95
36.33,-1.88,-6.83,-1.94,-6.88,6.88,6.19,8.42,5.01,4.95,4.95
36.70,-1.85,-6.79,-1.90,-6.85,6.85,6.14,8.29,5.00,4.95,4.94
37.06,-1.82,-6.76,-1.86,-6.80,6.80,6.09,8.16,4.98,4.95,4.94
37.43,-1.82,-6.77,-1.81,-6.76,6.76,6.04,8.02,4.94,4.95,4.95
37.81,-1.81,-6.76,-1.77,-6.72,6.72,6.00,7.89,4.91,4.95,4.95
38.19,-1.79,-6.73,-1.74,-6.69,6.69,5.95,7.76,4.90,4.95,4.94
38.57,-1.75,-6.70,-1.72,-6.67,6.67,5.91,7.63,4.92,4.95,4.95
38.95,-1.71,-6.67,-1.69,-6.64,6.64,5.87,7.50,4.93,4.95,4.96
39.34,-1.68,-6.63,-1.67,-6.62,6.62,5.83,7.38,4.94,4.95,4.95
39.74,-1.64,-6.59,-1.65,-6.60,6.60,5.80,7.26,4.96,4.95,4.95
40.14,-1.60,-6.55,-1.62,-6.57,6.57,5.77,7.14,4.97,4.95,4.95
40.54,-1.56,-6.51,-1.60,-6.55,6.55,5.74,7.03,4.99,4.95,4.95
40.94,-1.51,-6.45,-1.58,-6.52,6.52,5.72,6.92,5.02,4.94,4.94
41.35,-1.53,-6.47,-1.56,-6.50,6.50,5.69,6.82,4.97,4.94,4.94
41.76,-1.57,-6.50,-1.53,-6.46,6.46,5.68,6.72,4.89,4.93,4.93
42.18,-1.56,-6.49,-1.49,-6.42,6.42,5.66,6.63,4.86,4.92,4.93
42.60,-1.49,-6.41,-1.46,-6.37,6.37,5.65,6.54,4.88,4.91,4.92
43.03,-1.42,-6.33,-1.42,-6.32,6.32,5.64,6.45,4.91,4.90,4.91
43.46,-1.41,-6.31,-1.39,-6.28,6.28,5.63,6.37,4.87,4.89,4.90
43.90,-1.39,-6.27,-1.35,-6.23,6.23,5.63,6.29,4.84,4.88,4.88
44.33,-1.37,-6.23,-1.32,-6.19,6.19,5.63,6.22,4.82,4.87,4.86
44.78,-1.34,-6.18,-1.29,-6.15,6.15,5.63,6.16,4.81,4.85,4.84
45.23,-1.26,-6.09,-1.26,-6.10,6.10,5.63,6.09,4.84,4.84,4.83
45.68,-1.13,-5.95,-1.23,-6.05,6.05,5.64,6.03,4.92,4.83,4.82
46.13,-1.05,-5.85,-1.19,-6.00,6.00,5.66,5.98,4.95,4.81,4.80
46.60,-1.09,-5.89,-1.16,-5.95,5.95,5.67,5.93,4.86,4.80,4.80
47.06,-1.12,-5.90,-1.12,-5.90,5.90,5.69,5.89,4.78,4.78,4.78
47.53,-1.12,-5.89,-1.08,-5.85,5.85,5.71,5.85,4.73,4.77,4.77
48.01,-1.12,-5.89,-1.05,-5.81,5.81,5.74,5.81,4.69,4.75,4.77
48.49,-1.12,-5.87,-1.02,-5.76,5.76,5.76,5.78,4.64,4.74,4.75
48.97,-1.12,-5.85,-1.00,-5.72,5.72,5.79,5.75,4.60,4.73,4.73
49.46,-1.02,-5.73,-0.97,-5.68,5.68,5.82,5.72,4.66,4.71,4.71
49.96,-0.91,-5.60,-0.95,-5.65,5.65,5.85,5.70,4.74,4.70,4.69
50.46,-0.91,-5.59,-0.93,-5.62,5.62,5.88,5.68,4.71,4.69,4.68
50.96,-0.92,-5.59,-0.92,-5.59,5.59,5.91,5.66,4.67,4.67,4.67
51.47,-0.87,-5.52,-0.91,-5.57,5.57,5.95,5.64,4.70,4.66,4.65
51.99,-0.82,-5.46,-0.91,-5.55,5.55,5.98,5.63,4.73,4.65,4.64
52.51,-0.92,-5.55,-0.93,-5.56,5.56,6.00,5.62,4.64,4.63,4.63
53.03,-1.02,-5.65,-0.97,-5.59,5.59,6.03,5.61,4.57,4.62,4.63
53.56,-0.99,-5.60,-1.04,-5.65,5.65,6.05,5.60,4.66,4.61,4.61
54.10,-0.98,-5.58,-1.13,-5.72,5.72,6.06,5.59,4.74,4.60,4.60
54.64,-1.06,-5.64,-1.23,-5.82,5.82,6.08,5.58,4.76,4.59,4.58
55.18,-1.18,-5.76,-1.34,-5.91,5.91,6.08,5.57,4.73,4.58,4.58
55.74,-1.34,-5.90,-1.44,-6.00,6.00,6.08,5.57,4.66,4.57,4.56
56.29,-1.51,-6.06,-1.52,-6.08,6.08,6.07,5.56,4.57,4.55,4.55
56.86,-1.67,-6.21,-1.60,-6.14,6.14,6.05,5.54,4.47,4.54,4.54
57.42,-1.83,-6.34,-1.68,-6.20,6.20,6.02,5.53,4.37,4.52,4.51
58.00,-1.99,-6.49,-1.73,-6.23,6.23,5.99,5.51,4.24,4.50,4.50
58.58,-2.00,-6.49,-1.76,-6.24,6.24,5.94,5.49,4.24,4.48,4.49
59.16,-1.97,-6.44,-1.78,-6.23,6.23,5.89,5.47,4.27,4.45,4.47
59.76,-1.84,-6.29,-1.77,-6.20,6.20,5.82,5.45,4.36,4.43,4.45
60.35,-1.70,-6.11,-1.73,-6.13,6.13,5.75,5.42,4.43,4.40,4.41
60.96,-1.54,-5.91,-1.67,-6.03,6.03,5.67,5.38,4.49,4.36,4.37
61.57,-1.48,-5.81,-1.59,-5.92,5.92,5.58,5.34,4.44,4.33,4.33
62.18,-1.44,-5.73,-1.49,-5.78,5.78,5.49,5.30,4.34,4.29,4.29
62.80,-1.42,-5.66,-1.38,-5.62,5.62,5.38,5.25,4.21,4.25,4.24
63.43,-1.29,-5.49,-1.28,-5.48,5.48,5.28,5.20,4.19,4.21,4.20
64.07,-1.13,-5.28,-1.17,-5.33,5.33,5.17,5.14,4.20,4.16,4.15
64.71,-1.08,-5.19,-1.06,-5.18,5.18,5.05,5.08,4.10,4.12,4.11
65.35,-0.94,-5.01,-0.97,-5.04,5.04,4.93,5.02,4.10,4.07,4.07
66.01,-0.72,-4.74,-0.89,-4.91,4.91,4.81,4.95,4.19,4.02,4.02
66.67,-0.77,-4.74,-0.82,-4.79,4.79,4.69,4.87,4.02,3.97,3.97
67.33,-0.78,-4.70,-0.75,-4.68,4.68,4.57,4.80,3.90,3.93,3.92
68.01,-0.74,-4.62,-0.68,-4.56,4.56,4.45,4.71,3.82,3.88,3.88
68.69,-0.63,-4.46,-0.61,-4.44,4.44,4.33,4.63,3.81,3.83,3.83
69.37,-0.61,-4.39,-0.55,-4.33,4.33,4.21,4.54,3.72,3.78,3.78
70.07,-0.63,-4.36,-0.50,-4.22,4.22,4.09,4.45,3.60,3.72,3.73
70.77,-0.29,-3.97,-0.46,-4.13,4.13,3.97,4.36,3.84,3.67,3.68
71.48,-0.30,-3.93,-0.41,-4.03,4.03,3.86,4.27,3.73,3.62,3.63
72.19,-0.43,-3.99,-0.36,-3.92,3.92,3.75,4.17,3.50,3.56,3.56
72.91,-0.38,-3.88,-0.33,-3.83,3.83,3.64,4.08,3.45,3.50,3.50
73.64,-0.27,-3.72,-0.29,-3.74,3.74,3.53,3.98,3.47,3.45,3.45
74.38,-0.22,-3.61,-0.25,-3.64,3.64,3.42,3.88,3.42,3.39,3.39
75.12,-0.22,-3.55,-0.20,-3.54,3.54,3.32,3.78,3.32,3.34,3.33
75.87,-0.21,-3.48,-0.15,-3.43,3.43,3.22,3.69,3.22,3.28,3.27
76.63,-0.15,-3.37,-0.11,-3.33,3.33,3.13,3.59,3.19,3.23,3.22
77.40,-0.08,-3.25,-0.07,-3.25,3.25,3.03,3.49,3.17,3.17,3.17
78.17,-0.02,-3.13,-0.05,-3.17,3.17,2.94,3.40,3.15,3.12,3.11
78.95,-0.02,-3.09,-0.04,-3.11,3.11,2.85,3.30,3.09,3.07,3.07
79.74,-0.02,-3.04,-0.01,-3.03,3.03,2.77,3.21,3.01,3.02,3.02
80.54,-0.02,-2.99,0.02,-2.95,2.95,2.68,3.12,2.93,2.97,2.97
81.35,0.04,-2.88,0.04,-2.89,2.89,2.60,3.02,2.93,2.92,2.92
82.16,0.15,-2.72,0.05,-2.82,2.82,2.52,2.93,2.97,2.87,2.87
82.98,0.22,-2.61,0.06,-2.76,2.76,2.45,2.85,2.98,2.83,2.83
83.81,0.11,-2.67,0.07,-2.71,2.71,2.38,2.76,2.82,2.78,2.78
84.65,-0.01,-2.74,0.09,-2.65,2.65,2.30,2.67,2.64,2.73,2.73
85.50,-0.06,-2.75,0.10,-2.58,2.58,2.24,2.59,2.52,2.68,2.69
86.35,0.02,-2.62,0.12,-2.51,2.51,2.17,2.51,2.53,2.63,2.64
87.22,0.18,-2.41,0.14,-2.44,2.44,2.10,2.43,2.62,2.58,2.59
88.09,0.18,-2.36,0.16,-2.37,2.37,2.04,2.35,2.55,2.53,2.54
88.97,0.18,-2.30,0.19,-2.30,2.30,1.98,2.27,2.48,2.48,2.48
89.86,0.18,-2.25,0.21,-2.22,2.22,1.92,2.20,2.40,2.43,2.43
90.76,0.18,-2.20,0.23,-2.15,2.15,1.86,2.12,2.34,2.38,2.38
91.66,0.19,-2.14,0.24,-2.09,2.09,1.81,2.05,2.29,2.33,2.33
92.58,0.30,-1.97,0.25,-2.03,2.03,1.75,1.98,2.33,2.28,2.27
93.51,0.41,-1.81,0.27,-1.96,1.96,1.70,1.91,2.37,2.23,2.22
94.44,0.37,-1.81,0.28,-1.90,1.90,1.65,1.84,2.27,2.18,2.18
95.39,0.29,-1.84,0.28,-1.85,1.85,1.60,1.78,2.14,2.13,2.13
96.34,0.28,-1.80,0.27,-1.81,1.81,1.55,1.71,2.09,2.08,2.08
97.30,0.28,-1.75,0.26,-1.77,1.77,1.50,1.65,2.05,2.03,2.03
98.28,0.27,-1.71,0.25,-1.73,1.73,1.46,1.59,2.00,1.98,1.98
99.26,0.23,-1.71,0.25,-1.68,1.68,1.41,1.53,1.92,1.94,1.94
100.25,0.13,-1.76,0.25,-1.64,1.64,1.37,1.47,1.77,1.89,1.89
101.25,0.12,-1.72,0.25,-1.59,1.59,1.33,1.41,1.71,1.84,1.84
102.27,0.21,-1.58,0.24,-1.55,1.55,1.28,1.36,1.76,1.79,1.79
103.29,0.25,-1.49,0.23,-1.51,1.51,1.24,1.30,1.76,1.74,1.74
104.32,0.27,-1.43,0.23,-1.46,1.46,1.20,1.25,1.73,1.69,1.70
105.37,0.25,-1.40,0.23,-1.41,1.41,1.16,1.20,1.66,1.64,1.65
106.42,0.22,-1.38,0.24,-1.35,1.35,1.13,1.14,1.57,1.59,1.60
107.48,0.23,-1.31,0.24,-1.30,1.30,1.09,1.09,1.53,1.54,1.54
108.56,0.33,-1.16,0.24,-1.24,1.24,1.05,1.05,1.57,1.49,1.49
109.64,0.35,-1.09,0.25,-1.19,1.19,1.02,1.00,1.54,1.43,1.44
110.74,0.26,-1.12,0.25,-1.13,1.13,0.98,0.95,1.40,1.38,1.38
111.85,0.22,-1.12,0.25,-1.08,1.08,0.94,0.91,1.30,1.33,1.34
112.97,0.21,-1.07,0.24,-1.04,1.04,0.91,0.86,1.25,1.28,1.28
114.10,0.20,-1.03,0.23,-1.00,1.00,0.88,0.82,1.20,1.23,1.23
115.24,0.20,-0.98,0.23,-0.96,0.96,0.84,0.78,1.16,1.19,1.18
116.39,0.20,-0.93,0.22,-0.92,0.92,0.81,0.74,1.12,1.14,1.13
117.55,0.21,-0.88,0.22,-0.88,0.88,0.78,0.70,1.09,1.10,1.09
118.73,0.21,-0.84,0.22,-0.84,0.84,0.74,0.66,1.05,1.06,1.05
119.92,0.22,-0.80,0.22,-0.80,0.80,0.71,0.62,1.03,1.02,1.02
121.12,0.22,-0.76,0.22,-0.77,0.77,0.68,0.59,0.99,0.99,0.98
122.33,0.23,-0.72,0.22,-0.73,0.73,0.65,0.55,0.96,0.95,0.95
123.55,0.24,-0.68,0.23,-0.68,0.68,0.62,0.52,0.92,0.92,0.92
124.79,0.25,-0.64,0.24,-0.64,0.64,0.59,0.49,0.89,0.89,0.89
126.03,0.25,-0.61,0.25,-0.60,0.60,0.56,0.45,0.86,0.86,0.86
127.29,0.26,-0.58,0.26,-0.57,0.57,0.52,0.42,0.83,0.83,0.84
128.57,0.27,-0.53,0.27,-0.53,0.53,0.49,0.39,0.80,0.80,0.80
129.85,0.27,-0.50,0.27,-0.50,0.50,0.46,0.36,0.77,0.77,0.77
131.15,0.28,-0.46,0.28,-0.46,0.46,0.43,0.33,0.74,0.74,0.74
132.46,0.28,-0.43,0.28,-0.43,0.43,0.40,0.31,0.71,0.71,0.71
133.79,0.29,-0.39,0.29,-0.40,0.40,0.37,0.28,0.69,0.68,0.68
135.12,0.29,-0.36,0.29,-0.37,0.37,0.34,0.25,0.66,0.66,0.65
136.48,0.29,-0.34,0.29,-0.34,0.34,0.31,0.23,0.63,0.63,0.63
137.84,0.30,-0.29,0.30,-0.31,0.31,0.28,0.20,0.61,0.60,0.59
139.22,0.30,-0.26,0.30,-0.27,0.27,0.25,0.18,0.58,0.57,0.56
140.61,0.30,-0.23,0.30,-0.24,0.24,0.22,0.15,0.54,0.54,0.53
142.02,0.30,-0.21,0.30,-0.21,0.21,0.18,0.13,0.51,0.51,0.51
143.44,0.30,-0.18,0.30,-0.17,0.17,0.15,0.11,0.47,0.48,0.48
144.87,0.30,-0.14,0.30,-0.14,0.14,0.12,0.08,0.44,0.44,0.44
146.32,0.30,-0.10,0.30,-0.10,0.10,0.09,0.06,0.40,0.39,0.40
147.78,0.30,-0.07,0.29,-0.05,0.05,0.06,0.04,0.35,0.34,0.37
149.26,0.30,-0.02,0.30,0.01,-0.01,0.02,0.01,0.29,0.29,0.32
150.75,0.30,0.04,0.30,0.07,-0.07,-0.01,-0.01,0.23,0.23,0.26
152.26,0.30,0.11,0.31,0.14,-0.14,-0.04,-0.03,0.16,0.17,0.19
153.78,0.30,0.18,0.32,0.21,-0.21,-0.08,-0.05,0.09,0.10,0.12
155.32,0.30,0.25,0.33,0.29,-0.29,-0.11,-0.08,0.01,0.04,0.05
156.88,0.30,0.33,0.33,0.36,-0.36,-0.15,-0.10,-0.06,-0.03,-0.03
158.44,0.30,0.41,0.33,0.44,-0.44,-0.19,-0.12,-0.14,-0.10,-0.11
160.03,0.30,0.49,0.33,0.51,-0.51,-0.22,-0.15,-0.21,-0.17,-0.19
161.63,0.41,0.67,0.33,0.57,-0.57,-0.26,-0.17,-0.16,-0.24,-0.26
163.24,0.37,0.69,0.33,0.63,-0.63,-0.30,-0.19,-0.26,-0.30,-0.32
164.88,0.41,0.78,0.33,0.68,-0.68,-0.34,-0.22,-0.27,-0.36,-0.37
166.53,0.37,0.79,0.32,0.73,-0.73,-0.37,-0.24,-0.36,-0.40,-0.42
168.19,0.32,0.78,0.32,0.76,-0.76,-0.41,-0.27,-0.44,-0.44,-0.46
169.87,0.28,0.78,0.31,0.79,-0.79,-0.45,-0.29,-0.51,-0.48,-0.50
171.57,0.27,0.79,0.30,0.80,-0.80,-0.49,-0.32,-0.53,-0.50,-0.52
173.29,0.27,0.80,0.29,0.82,-0.82,-0.54,-0.34,-0.54,-0.52,-0.53
175.02,0.26,0.80,0.29,0.82,-0.82,-0.58,-0.37,-0.56,-0.54,-0.54
176.77,0.26,0.81,0.28,0.82,-0.82,-0.62,-0.40,-0.56,-0.54,-0.55
178.54,0.26,0.82,0.27,0.82,-0.82,-0.66,-0.42,-0.56,-0.55,-0.56
180.32,0.26,0.81,0.27,0.82,-0.82,-0.70,-0.45,-0.56,-0.56,-0.55
182.13,0.27,0.81,0.27,0.83,-0.83,-0.75,-0.48,-0.56,-0.56,-0.54
183.95,0.27,0.82,0.28,0.85,-0.85,-0.79,-0.51,-0.57,-0.57,-0.55
185.79,0.29,0.84,0.29,0.86,-0.86,-0.83,-0.54,-0.57,-0.58,-0.55
187.65,0.30,0.87,0.30,0.89,-0.89,-0.87,-0.56,-0.59,-0.58,-0.57
189.52,0.32,0.90,0.32,0.91,-0.91,-0.92,-0.59,-0.59,-0.59,-0.58
191.42,0.33,0.93,0.33,0.94,-0.94,-0.96,-0.62,-0.61,-0.61,-0.60
193.33,0.34,0.96,0.34,0.96,-0.96,-1.00,-0.65,-0.62,-0.62,-0.62
195.27,0.36,1.00,0.36,0.99,-0.99,-1.04,-0.68,-0.63,-0.64,-0.64
197.22,0.37,1.03,0.37,1.02,-1.02,-1.07,-0.72,-0.65,-0.66,-0.66
199.19,0.39,1.07,0.38,1.05,-1.05,-1.11,-0.75,-0.66,-0.67,-0.68
201.18,0.39,1.09,0.38,1.08,-1.08,-1.14,-0.78,-0.69,-0.70,-0.70
203.19,0.40,1.12,0.39,1.11,-1.11,-1.18,-0.81,-0.71,-0.72,-0.72
205.23,0.40,1.14,0.39,1.13,-1.13,-1.21,-0.84,-0.73,-0.74,-0.74
207.28,0.40,1.15,0.39,1.15,-1.15,-1.23,-0.87,-0.75,-0.76,-0.75
209.35,0.40,1.17,0.39,1.17,-1.17,-1.26,-0.90,-0.77,-0.78,-0.77
211.44,0.39,1.19,0.39,1.19,-1.19,-1.28,-0.93,-0.80,-0.79,-0.80
213.56,0.39,1.20,0.39,1.20,-1.20,-1.30,-0.96,-0.81,-0.81,-0.81
215.69,0.39,1.21,0.39,1.21,-1.21,-1.32,-0.99,-0.82,-0.82,-0.82
217.85,0.38,1.21,0.38,1.21,-1.21,-1.33,-1.01,-0.83,-0.83,-0.83
220.03,0.38,1.22,0.38,1.22,-1.22,-1.34,-1.04,-0.84,-0.84,-0.84
222.23,0.38,1.25,0.39,1.24,-1.24,-1.34,-1.07,-0.86,-0.85,-0.87
224.45,0.38,1.24,0.39,1.25,-1.25,-1.34,-1.09,-0.87,-0.85,-0.86
226.70,0.38,1.24,0.40,1.25,-1.25,-1.34,-1.11,-0.87,-0.85,-0.86
228.96,0.38,1.23,0.41,1.25,-1.25,-1.34,-1.13,-0.87,-0.85,-0.85
231.25,0.39,1.23,0.41,1.25,-1.25,-1.33,-1.15,-0.86,-0.84,-0.84
233.57,0.40,1.23,0.42,1.25,-1.25,-1.32,-1.17,-0.85,-0.83,-0.83
235.90,0.41,1.23,0.43,1.24,-1.24,-1.30,-1.19,-0.83,-0.81,-0.82
238.26,0.43,1.24,0.43,1.23,-1.23,-1.28,-1.20,-0.80,-0.80,-0.81
240.64,0.48,1.26,0.44,1.22,-1.22,-1.26,-1.21,-0.74,-0.78,-0.78
243.05,0.57,1.32,0.45,1.20,-1.20,-1.24,-1.22,-0.63,-0.76,-0.75
245.48,0.50,1.23,0.45,1.19,-1.19,-1.22,-1.23,-0.69,-0.73,-0.73
247.93,0.41,1.11,0.46,1.17,-1.17,-1.19,-1.23,-0.76,-0.71,-0.70
250.41,0.42,1.10,0.46,1.15,-1.15,-1.16,-1.24,-0.73,-0.69,-0.68
252.92,0.44,1.09,0.47,1.13,-1.13,-1.13,-1.24,-0.69,-0.66,-0.65
255.45,0.45,1.08,0.47,1.11,-1.11,-1.10,-1.23,-0.65,-0.64,-0.63
258.00,0.46,1.07,0.47,1.08,-1.08,-1.07,-1.23,-0.62,-0.61,-0.61
260.58,0.47,1.06,0.46,1.05,-1.05,-1.04,-1.22,-0.58,-0.59,-0.59
263.19,0.47,1.03,0.46,1.02,-1.02,-1.00,-1.21,-0.55,-0.56,-0.56
265.82,0.47,1.01,0.45,0.99,-0.99,-0.97,-1.20,-0.52,-0.54,-0.54
268.48,0.46,0.98,0.45,0.96,-0.96,-0.94,-1.18,-0.50,-0.51,-0.52
271.16,0.46,0.95,0.46,0.94,-0.94,-0.91,-1.17,-0.48,-0.49,-0.49
273.87,0.46,0.93,0.47,0.93,-0.93,-0.87,-1.15,-0.47,-0.46,-0.47
276.61,0.45,0.89,0.48,0.92,-0.92,-0.84,-1.13,-0.47,-0.44,-0.44
279.38,0.45,0.86,0.48,0.89,-0.89,-0.81,-1.11,-0.44,-0.41,-0.41
282.17,0.46,0.85,0.48,0.87,-0.87,-0.78,-1.09,-0.40,-0.38,-0.39
284.99,0.46,0.81,0.49,0.84,-0.84,-0.75,-1.06,-0.38,-0.36,-0.35
287.84,0.47,0.80,0.50,0.82,-0.82,-0.71,-1.04,-0.35,-0.33,-0.33
290.72,0.48,0.78,0.50,0.79,-0.79,-0.69,-1.01,-0.31,-0.30,-0.30
293.63,0.53,0.80,0.49,0.76,-0.76,-0.66,-0.99,-0.23,-0.27,-0.27
296.57,0.62,0.86,0.48,0.72,-0.72,-0.63,-0.96,-0.10,-0.24,-0.24
299.53,0.50,0.71,0.47,0.68,-0.68,-0.60,-0.93,-0.18,-0.21,-0.21
302.53,0.44,0.63,0.47,0.65,-0.65,-0.57,-0.90,-0.21,-0.18,-0.19
305.55,0.44,0.59,0.46,0.62,-0.62,-0.55,-0.87,-0.18,-0.16,-0.15
308.61,0.45,0.58,0.45,0.58,-0.58,-0.52,-0.85,-0.13,-0.13,-0.13
311.69,0.46,0.56,0.44,0.55,-0.55,-0.50,-0.82,-0.09,-0.11,-0.10
314.81,0.46,0.54,0.42,0.51,-0.51,-0.47,-0.79,-0.05,-0.09,-0.08
317.96,0.32,0.38,0.40,0.47,-0.47,-0.45,-0.76,-0.15,-0.07,-0.06
321.14,0.25,0.30,0.38,0.43,-0.43,-0.43,-0.73,-0.18,-0.05,-0.05
324.35,0.33,0.36,0.36,0.39,-0.39,-0.41,-0.70,-0.06,-0.03,-0.03
327.59,0.36,0.38,0.34,0.35,-0.35,-0.38,-0.67,0.01,-0.02,-0.02
330.87,0.45,0.46,0.32,0.33,-0.33,-0.36,-0.65,0.12,-0.00,-0.01
334.18,0.43,0.42,0.32,0.32,-0.32,-0.34,-0.62,0.12,0.01,0.01
337.52,0.28,0.26,0.32,0.30,-0.30,-0.32,-0.59,-0.02,0.02,0.02
340.90,0.26,0.23,0.31,0.28,-0.28,-0.31,-0.57,-0.02,0.03,0.03
344.30,0.25,0.21,0.30,0.26,-0.26,-0.29,-0.54,-0.01,0.03,0.04
347.75,0.26,0.22,0.29,0.25,-0.25,-0.27,-0.51,0.01,0.04,0.04
351.23,0.26,0.21,0.28,0.24,-0.24,-0.25,-0.49,0.02,0.04,0.05
354.74,0.26,0.22,0.28,0.23,-0.23,-0.24,-0.46,0.03,0.05,0.04
358.28,0.26,0.21,0.28,0.22,-0.22,-0.22,-0.44,0.04,0.05,0.05
361.87,0.31,0.26,0.26,0.21,-0.21,-0.21,-0.41,0.10,0.05,0.05
365.49,0.36,0.30,0.25,0.20,-0.20,-0.19,-0.39,0.16,0.05,0.06
369.14,0.24,0.19,0.25,0.19,-0.19,-0.18,-0.36,0.05,0.05,0.05
372.83,0.20,0.15,0.24,0.19,-0.19,-0.16,-0.34,0.01,0.05,0.05
376.56,0.20,0.16,0.24,0.19,-0.19,-0.15,-0.32,0.01,0.05,0.04
380.33,0.21,0.16,0.23,0.19,-0.19,-0.13,-0.30,0.02,0.05,0.05
384.13,0.21,0.16,0.22,0.18,-0.18,-0.12,-0.27,0.03,0.04,0.05
387.97,0.23,0.19,0.20,0.16,-0.16,-0.11,-0.25,0.07,0.04,0.04
391.85,0.28,0.25,0.19,0.16,-0.16,-0.10,-0.23,0.12,0.03,0.03
395.77,0.22,0.18,0.18,0.16,-0.16,-0.08,-0.21,0.06,0.03,0.04
399.73,0.14,0.11,0.18,0.15,-0.15,-0.07,-0.19,-0.01,0.02,0.03
403.72,0.12,0.09,0.16,0.14,-0.14,-0.06,-0.17,-0.02,0.02,0.03
407.76,0.12,0.11,0.14,0.13,-0.13,-0.05,-0.15,-0.01,0.01,0.01
411.84,0.11,0.10,0.13,0.12,-0.12,-0.04,-0.13,-0.01,0.01,0.01
415.96,0.11,0.10,0.12,0.11,-0.11,-0.03,-0.11,0.00,0.01,0.01
420.12,0.11,0.10,0.11,0.09,-0.09,-0.02,-0.10,0.02,0.01,0.01
424.32,0.12,0.11,0.10,0.08,-0.08,-0.01,-0.08,0.04,0.02,0.01
428.56,0.16,0.14,0.10,0.08,-0.08,0.00,-0.06,0.08,0.03,0.02
432.85,0.18,0.15,0.11,0.06,-0.06,0.01,-0.04,0.12,0.04,0.03
437.18,0.10,0.06,0.11,0.04,-0.04,0.02,-0.03,0.06,0.06,0.04
441.55,0.03,-0.05,0.12,0.03,-0.03,0.03,-0.01,-0.00,0.09,0.08
445.96,0.00,-0.11,0.14,0.02,-0.02,0.04,0.01,-0.02,0.12,0.11
450.42,0.09,-0.05,0.16,0.01,-0.01,0.05,0.02,0.08,0.16,0.14
454.93,0.16,-0.03,0.18,-0.02,0.02,0.06,0.04,0.18,0.20,0.19
459.48,0.27,0.04,0.20,-0.04,0.04,0.07,0.05,0.31,0.24,0.23
464.07,0.34,0.06,0.22,-0.07,0.07,0.08,0.07,0.41,0.29,0.28
468.71,0.28,-0.06,0.24,-0.10,0.10,0.09,0.08,0.38,0.34,0.34
473.40,0.28,-0.10,0.26,-0.13,0.13,0.10,0.10,0.41,0.38,0.38
478.13,0.22,-0.22,0.28,-0.16,0.16,0.11,0.11,0.38,0.43,0.44
482.91,0.27,-0.21,0.30,-0.18,0.18,0.12,0.12,0.45,0.48,0.48
487.74,0.38,-0.14,0.33,-0.19,0.19,0.12,0.13,0.57,0.52,0.52
492.62,0.37,-0.20,0.36,-0.20,0.20,0.13,0.15,0.57,0.55,0.57
497.55,0.33,-0.26,0.37,-0.21,0.21,0.14,0.16,0.54,0.59,0.59
502.52,0.31,-0.31,0.38,-0.23,0.23,0.15,0.17,0.54,0.61,0.62
507.55,0.34,-0.29,0.38,-0.24,0.24,0.16,0.18,0.58,0.62,0.63
512.62,0.40,-0.24,0.38,-0.25,0.25,0.17,0.19,0.65,0.63,0.64
517.75,0.38,-0.27,0.37,-0.25,0.25,0.18,0.20,0.63,0.63,0.65
522.93,0.37,-0.27,0.37,-0.25,0.25,0.18,0.21,0.62,0.62,0.64
