frequency,raw,error,smoothed,error_smoothed,equalization,parametric_eq,fixed_band_eq,equalized_raw,equalized_smoothed,target
20.00,5.32,-6.38,5.32,-6.39,6.39,6.07,2.42,11.71,11.71,11.71
20.20,5.34,-6.35,5.34,-6.35,6.35,6.07,2.49,11.69,11.69,11.69
20.40,5.37,-6.31,5.37,-6.31,6.31,6.06,2.57,11.68,11.68,11.68
20.61,5.39,-6.28,5.39,-6.27,6.27,6.05,2.64,11.67,11.67,11.67
20.81,5.42,-6.23,5.42,-6.24,6.24,6.04,2.72,11.66,11.66,11.65
21.02,5.44,-6.20,5.45,-6.20,6.20,6.03,2.80,11.64,11.65,11.64
21.23,5.47,-6.16,5.47,-6.17,6.17,6.02,2.89,11.64,11.64,11.63
21.44,5.49,-6.15,5.50,-6.13,6.13,6.01,2.97,11.62,11.63,11.64
21.66,5.52,-6.10,5.52,-6.10,6.10,6.00,3.06,11.62,11.62,11.62
21.87,5.55,-6.07,5.55,-6.06,6.06,5.99,3.15,11.61,11.61,11.62
22.09,5.57,-6.02,5.57,-6.03,6.03,5.98,3.24,11.60,11.60,11.60
22.31,5.59,-6.00,5.60,-6.00,6.00,5.97,3.34,11.59,11.59,11.60
22.54,5.62,-5.96,5.62,-5.96,5.96,5.96,3.44,11.59,11.59,11.58
22.76,5.64,-5.94,5.65,-5.93,5.93,5.95,3.54,11.58,11.58,11.58
22.99,5.67,-5.90,5.67,-5.90,5.90,5.93,3.64,11.57,11.57,11.57
23.22,5.69,-5.87,5.70,-5.87,5.87,5.92,3.75,11.57,11.57,11.56
23.45,5.72,-5.85,5.72,-5.84,5.84,5.91,3.86,11.57,11.56,11.57
23.69,5.75,-5.81,5.74,-5.81,5.81,5.89,3.97,11.57,11.56,11.56
23.92,5.77,-5.77,5.77,-5.79,5.79,5.88,4.08,11.56,11.55,11.55
24.16,5.79,-5.76,5.79,-5.76,5.76,5.86,4.20,11.55,11.55,11.56
24.40,5.82,-5.73,5.82,-5.73,5.73,5.85,4.31,11.55,11.55,11.55
24.65,5.84,-5.71,5.84,-5.71,5.71,5.83,4.43,11.55,11.55,11.55
24.89,5.86,-5.69,5.86,-5.68,5.68,5.82,4.56,11.54,11.54,11.55
25.14,5.88,-5.66,5.89,-5.65,5.65,5.80,4.68,11.54,11.54,11.54
25.39,5.91,-5.62,5.91,-5.63,5.63,5.78,4.80,11.54,11.54,11.54
25.65,5.93,-5.60,5.93,-5.60,5.60,5.76,4.93,11.54,11.54,11.53
25.91,5.95,-5.58,5.96,-5.58,5.58,5.75,5.05,11.53,11.54,11.53
26.16,5.98,-5.56,5.98,-5.56,5.56,5.73,5.17,11.54,11.54,11.54
26.43,6.00,-5.54,6.00,-5.54,5.54,5.71,5.30,11.54,11.54,11.54
26.69,6.02,-5.52,6.02,-5.51,5.51,5.69,5.42,11.54,11.54,11.54
26.96,6.05,-5.48,6.04,-5.49,5.49,5.67,5.54,11.54,11.54,11.53
27.23,6.07,-5.46,6.06,-5.47,5.47,5.65,5.66,11.54,11.54,11.53
27.50,6.09,-5.44,6.09,-5.45,5.45,5.63,5.78,11.54,11.54,11.53
27.77,6.10,-5.44,6.11,-5.43,5.43,5.61,5.89,11.53,11.54,11.54
28.05,6.12,-5.41,6.13,-5.41,5.41,5.59,6.00,11.53,11.54,11.53
28.33,6.14,-5.40,6.15,-5.39,5.39,5.56,6.10,11.53,11.54,11.54
28.62,6.16,-5.38,6.17,-5.37,5.37,5.54,6.20,11.54,11.54,11.54
28.90,6.18,-5.36,6.18,-5.35,5.35,5.52,6.29,11.54,11.54,11.55
29.19,6.20,-5.34,6.20,-5.34,5.34,5.49,6.37,11.54,11.54,11.54
29.48,6.22,-5.32,6.22,-5.32,5.32,5.47,6.45,11.54,11.53,11.54
29.78,6.24,-5.29,6.23,-5.30,5.30,5.45,6.51,11.54,11.53,11.54
30.08,6.25,-5.28,6.25,-5.28,5.28,5.42,6.57,11.53,11.53,11.53
30.38,6.27,-5.25,6.26,-5.26,5.26,5.40,6.61,11.53,11.52,11.52
30.68,6.28,-5.23,6.28,-5.24,5.24,5.37,6.65,11.52,11.52,11.52
30.99,6.29,-5.22,6.29,-5.22,5.22,5.34,6.67,11.51,11.51,11.51
31.30,6.30,-5.21,6.30,-5.20,5.20,5.32,6.68,11.50,11.51,11.51
31.61,6.31,-5.19,6.32,-5.18,5.18,5.29,6.69,11.49,11.50,11.50
31.93,6.33,-5.15,6.33,-5.16,5.16,5.26,6.68,11.49,11.49,11.48
32.24,6.33,-5.15,6.34,-5.14,5.14,5.23,6.65,11.48,11.48,11.48
32.57,6.34,-5.13,6.35,-5.13,5.13,5.20,6.62,11.47,11.47,11.47
32.89,6.35,-5.11,6.36,-5.11,5.11,5.18,6.58,11.46,11.47,11.46
33.22,6.36,-5.10,6.36,-5.09,5.09,5.15,6.53,11.46,11.46,11.46
33.55,6.37,-5.08,6.37,-5.08,5.08,5.12,6.47,11.45,11.45,11.45
33.89,6.39,-5.05,6.38,-5.06,5.06,5.08,6.40,11.45,11.44,11.44
34.23,6.39,-5.03,6.39,-5.04,5.04,5.05,6.33,11.44,11.43,11.42
34.57,6.40,-5.02,6.39,-5.03,5.03,5.02,6.25,11.43,11.42,11.42
34.92,6.41,-4.99,6.40,-5.01,5.01,4.99,6.16,11.42,11.41,11.40
35.27,6.41,-5.00,6.41,-4.99,4.99,4.96,6.06,11.40,11.40,11.41
35.62,6.41,-4.98,6.41,-4.97,4.97,4.92,5.97,11.38,11.39,11.39
35.97,6.41,-4.97,6.42,-4.95,4.95,4.89,5.87,11.36,11.37,11.38
36.33,6.42,-4.94,6.43,-4.93,4.93,4.86,5.76,11.35,11.36,11.36
36.70,6.43,-4.90,6.44,-4.90,4.90,4.82,5.66,11.33,11.34,11.34
37.06,6.44,-4.88,6.45,-4.87,4.87,4.79,5.55,11.31,11.32,11.32
37.43,6.45,-4.85,6.46,-4.84,4.84,4.75,5.45,11.30,11.30,11.30
37.81,6.46,-4.82,6.47,-4.81,4.81,4.72,5.34,11.27,11.28,11.28
38.19,6.48,-4.77,6.48,-4.78,4.78,4.68,5.23,11.26,11.26,11.25
38.57,6.49,-4.74,6.49,-4.74,4.74,4.64,5.12,11.23,11.23,11.23
38.95,6.51,-4.70,6.51,-4.70,4.70,4.61,5.02,11.22,11.21,11.21
39.34,6.52,-4.66,6.52,-4.67,4.67,4.57,4.92,11.19,11.19,11.18
39.74,6.53,-4.62,6.53,-4.63,4.63,4.53,4.81,11.16,11.16,11.16
40.14,6.55,-4.58,6.55,-4.59,4.59,4.49,4.72,11.14,11.14,11.13
40.54,6.56,-4.55,6.56,-4.55,4.55,4.45,4.62,11.11,11.11,11.11
40.94,6.58,-4.50,6.57,-4.51,4.51,4.41,4.52,11.10,11.09,11.08
41.35,6.59,-4.47,6.59,-4.48,4.48,4.37,4.43,11.07,11.06,11.06
41.76,6.60,-4.43,6.60,-4.44,4.44,4.33,4.34,11.04,11.04,11.03
42.18,6.61,-4.40,6.61,-4.40,4.40,4.29,4.26,11.01,11.01,11.02
42.60,6.62,-4.36,6.62,-4.36,4.36,4.25,4.17,10.99,10.98,10.98
43.03,6.63,-4.33,6.63,-4.32,4.32,4.21,4.09,10.96,10.96,10.96
43.46,6.64,-4.28,6.64,-4.28,4.28,4.17,4.01,10.93,10.93,10.93
43.90,6.65,-4.25,6.66,-4.24,4.24,4.13,3.94,10.90,10.90,10.90
44.33,6.66,-4.20,6.67,-4.20,4.20,4.08,3.87,10.86,10.87,10.87
44.78,6.67,-4.17,6.68,-4.16,4.16,4.04,3.80,10.83,10.84,10.84
45.23,6.69,-4.12,6.70,-4.11,4.11,3.99,3.74,10.80,10.80,10.81
45.68,6.71,-4.06,6.71,-4.06,4.06,3.95,3.67,10.77,10.77,10.77
46.13,6.72,-4.01,6.72,-4.00,4.00,3.91,3.61,10.73,10.73,10.73
46.60,6.74,-3.95,6.74,-3.95,3.95,3.86,3.56,10.69,10.69,10.69
47.06,6.75,-3.90,6.75,-3.89,3.89,3.81,3.50,10.64,10.65,10.65
47.53,6.77,-3.84,6.77,-3.84,3.84,3.77,3.45,10.61,10.60,10.61
48.01,6.78,-3.77,6.78,-3.78,3.78,3.72,3.41,10.56,10.56,10.55
48.49,6.79,-3.72,6.80,-3.72,3.72,3.67,3.36,10.51,10.51,10.51
48.97,6.81,-3.65,6.81,-3.66,3.66,3.63,3.32,10.47,10.47,10.46
49.46,6.82,-3.60,6.82,-3.60,3.60,3.58,3.28,10.42,10.42,10.42
49.96,6.83,-3.53,6.83,-3.54,3.54,3.53,3.24,10.37,10.37,10.36
50.46,6.84,-3.48,6.84,-3.49,3.49,3.48,3.20,10.33,10.33,10.32
50.96,6.85,-3.43,6.85,-3.43,3.43,3.43,3.17,10.29,10.28,10.28
51.47,6.85,-3.38,6.85,-3.38,3.38,3.38,3.14,10.23,10.23,10.23
51.99,6.86,-3.32,6.85,-3.33,3.33,3.33,3.10,10.19,10.19,10.18
52.51,6.86,-3.28,6.86,-3.28,3.28,3.28,3.07,10.14,10.14,10.14
53.03,6.86,-3.24,6.86,-3.23,3.23,3.23,3.05,10.10,10.09,10.10
53.56,6.86,-3.19,6.86,-3.19,3.19,3.18,3.02,10.05,10.05,10.05
54.10,6.86,-3.13,6.86,-3.14,3.14,3.13,2.99,10.01,10.00,10.00
54.64,6.85,-3.10,6.85,-3.10,3.10,3.08,2.96,9.95,9.96,9.95
55.18,6.84,-3.06,6.85,-3.06,3.06,3.03,2.94,9.90,9.91,9.90
55.74,6.84,-3.01,6.85,-3.02,3.02,2.97,2.91,9.86,9.87,9.85
56.29,6.84,-2.98,6.85,-2.97,2.97,2.92,2.88,9.82,9.82,9.82
56.86,6.84,-2.93,6.85,-2.93,2.93,2.87,2.85,9.77,9.78,9.77
57.42,6.84,-2.88,6.84,-2.88,2.88,2.81,2.82,9.73,9.73,9.72
58.00,6.84,-2.83,6.84,-2.84,2.84,2.76,2.79,9.68,9.68,9.67
58.58,6.84,-2.79,6.84,-2.79,2.79,2.71,2.76,9.63,9.63,9.63
59.16,6.84,-2.75,6.84,-2.73,2.73,2.65,2.73,9.58,9.57,9.59
59.76,6.84,-2.70,6.84,-2.68,2.68,2.60,2.70,9.52,9.52,9.54
60.35,6.84,-2.64,6.84,-2.63,2.63,2.54,2.66,9.47,9.47,9.48
60.96,6.84,-2.58,6.84,-2.57,2.57,2.49,2.62,9.41,9.41,9.42
61.57,6.84,-2.51,6.84,-2.51,2.51,2.43,2.58,9.35,9.35,9.35
62.18,6.84,-2.44,6.84,-2.45,2.45,2.37,2.54,9.29,9.29,9.28
62.80,6.84,-2.38,6.84,-2.39,2.39,2.32,2.50,9.23,9.23,9.22
63.43,6.84,-2.31,6.84,-2.32,2.32,2.26,2.45,9.17,9.17,9.15
64.07,6.84,-2.25,6.84,-2.26,2.26,2.20,2.40,9.10,9.10,9.09
64.71,6.84,-2.19,6.84,-2.20,2.20,2.14,2.35,9.04,9.04,9.03
65.35,6.84,-2.13,6.84,-2.13,2.13,2.09,2.29,8.98,8.98,8.97
66.01,6.84,-2.07,6.84,-2.07,2.07,2.03,2.24,8.91,8.91,8.91
66.67,6.84,-2.02,6.84,-2.01,2.01,1.97,2.18,8.85,8.85,8.86
67.33,6.84,-1.94,6.84,-1.94,1.94,1.91,2.12,8.78,8.78,8.78
68.01,6.84,-1.88,6.84,-1.88,1.88,1.85,2.05,8.72,8.72,8.73
68.69,6.84,-1.82,6.84,-1.81,1.81,1.79,1.99,8.66,8.66,8.66
69.37,6.84,-1.76,6.84,-1.75,1.75,1.73,1.92,8.59,8.59,8.60
70.07,6.84,-1.69,6.84,-1.68,1.68,1.67,1.86,8.52,8.52,8.53
70.77,6.84,-1.62,6.84,-1.62,1.62,1.61,1.79,8.46,8.46,8.46
71.48,6.84,-1.56,6.84,-1.55,1.55,1.55,1.72,8.39,8.39,8.40
72.19,6.84,-1.48,6.84,-1.48,1.48,1.49,1.64,8.32,8.32,8.32
72.91,6.84,-1.41,6.84,-1.42,1.42,1.43,1.57,8.26,8.26,8.25
73.64,6.84,-1.34,6.84,-1.35,1.35,1.37,1.50,8.19,8.19,8.18
74.38,6.84,-1.27,6.84,-1.28,1.28,1.31,1.42,8.12,8.12,8.11
75.12,6.84,-1.21,6.84,-1.22,1.22,1.25,1.35,8.06,8.06,8.06
75.87,6.84,-1.15,6.84,-1.15,1.15,1.19,1.27,8.00,8.00,8.00
76.63,6.84,-1.08,6.84,-1.09,1.09,1.12,1.20,7.93,7.93,7.92
77.40,6.84,-1.03,6.84,-1.03,1.03,1.06,1.12,7.87,7.87,7.87
78.17,6.84,-0.96,6.84,-0.97,0.97,1.00,1.04,7.81,7.81,7.80
78.95,6.84,-0.91,6.84,-0.90,0.90,0.94,0.97,7.75,7.75,7.75
79.74,6.84,-0.84,6.84,-0.84,0.84,0.88,0.89,7.68,7.68,7.69
80.54,6.84,-0.79,6.84,-0.78,0.78,0.81,0.81,7.62,7.62,7.63
81.35,6.84,-0.72,6.84,-0.72,0.72,0.75,0.74,7.56,7.56,7.56
82.16,6.84,-0.67,6.84,-0.66,0.66,0.69,0.66,7.50,7.50,7.51
82.98,6.84,-0.60,6.84,-0.60,0.60,0.62,0.58,7.44,7.44,7.44
83.81,6.84,-0.54,6.84,-0.53,0.53,0.56,0.50,7.37,7.37,7.38
84.65,6.84,-0.46,6.84,-0.47,0.47,0.50,0.43,7.31,7.31,7.30
85.50,6.84,-0.40,6.84,-0.40,0.40,0.43,0.35,7.24,7.24,7.24
86.35,6.84,-0.33,6.84,-0.34,0.34,0.37,0.27,7.18,7.18,7.18
87.22,6.84,-0.27,6.84,-0.27,0.27,0.31,0.20,7.11,7.11,7.11
88.09,6.84,-0.20,6.84,-0.20,0.20,0.24,0.12,7.04,7.04,7.04
88.97,6.84,-0.13,6.84,-0.13,0.13,0.18,0.04,6.97,6.97,6.98
89.86,6.84,-0.07,6.85,-0.06,0.06,0.11,-0.03,6.90,6.91,6.91
90.76,6.84,0.00,6.85,0.01,-0.01,0.05,-0.11,6.83,6.83,6.84
91.66,6.84,0.08,6.85,0.09,-0.09,-0.01,-0.19,6.75,6.76,6.76
92.58,6.84,0.14,6.85,0.16,-0.16,-0.08,-0.27,6.68,6.69,6.70
93.51,6.84,0.22,6.85,0.24,-0.24,-0.14,-0.34,6.61,6.62,6.63
94.44,6.84,0.29,6.85,0.31,-0.31,-0.21,-0.42,6.53,6.54,6.55
95.39,6.85,0.38,6.85,0.38,-0.38,-0.27,-0.50,6.47,6.47,6.47
96.34,6.86,0.46,6.85,0.45,-0.45,-0.33,-0.57,6.41,6.40,6.40
97.30,6.86,0.54,6.84,0.52,-0.52,-0.40,-0.65,6.34,6.32,6.32
98.28,6.85,0.61,6.83,0.58,-0.58,-0.46,-0.73,6.27,6.25,6.24
99.26,6.83,0.67,6.82,0.64,-0.64,-0.53,-0.80,6.19,6.18,6.17
100.25,6.81,0.72,6.80,0.70,-0.70,-0.59,-0.88,6.11,6.10,6.09
101.25,6.78,0.76,6.79,0.75,-0.75,-0.65,-0.95,6.03,6.03,6.03
102.27,6.76,0.80,6.76,0.80,-0.80,-0.72,-1.03,5.96,5.96,5.96
103.29,6.74,0.86,6.74,0.84,-0.84,-0.78,-1.10,5.90,5.89,5.89
104.32,6.72,0.90,6.71,0.89,-0.89,-0.85,-1.18,5.84,5.82,5.82
105.37,6.69,0.94,6.68,0.92,-0.92,-0.91,-1.25,5.77,5.75,5.75
106.42,6.65,0.96,6.65,0.96,-0.96,-0.97,-1.32,5.69,5.68,5.69
107.48,6.62,1.01,6.62,1.00,-1.00,-1.04,-1.40,5.62,5.61,5.61
108.56,6.58,1.03,6.59,1.05,-1.05,-1.10,-1.47,5.53,5.54,5.55
109.64,6.55,1.07,6.57,1.09,-1.09,-1.16,-1.54,5.46,5.47,5.48
110.74,6.53,1.12,6.55,1.15,-1.15,-1.23,-1.60,5.39,5.40,5.41
111.85,6.50,1.17,6.53,1.20,-1.20,-1.29,-1.67,5.30,5.33,5.33
112.97,6.49,1.22,6.52,1.26,-1.26,-1.35,-1.73,5.23,5.26,5.27
114.10,6.49,1.30,6.51,1.32,-1.32,-1.41,-1.79,5.17,5.19,5.20
115.24,6.49,1.38,6.50,1.38,-1.38,-1.47,-1.85,5.11,5.12,5.11
116.39,6.50,1.46,6.50,1.45,-1.45,-1.54,-1.91,5.05,5.05,5.04
117.55,6.51,1.55,6.50,1.52,-1.52,-1.60,-1.97,4.99,4.98,4.97
118.73,6.51,1.62,6.50,1.59,-1.59,-1.66,-2.02,4.92,4.91,4.89
119.92,6.51,1.68,6.50,1.66,-1.66,-1.72,-2.07,4.85,4.84,4.83
121.12,6.51,1.74,6.50,1.73,-1.73,-1.78,-2.11,4.78,4.77,4.77
122.33,6.51,1.81,6.50,1.80,-1.80,-1.84,-2.16,4.71,4.70,4.70
123.55,6.51,1.87,6.51,1.88,-1.88,-1.90,-2.20,4.63,4.63,4.64
124.79,6.51,1.94,6.51,1.95,-1.95,-1.96,-2.23,4.56,4.56,4.57
126.03,6.51,2.01,6.52,2.02,-2.02,-2.02,-2.27,4.49,4.50,4.51
127.29,6.51,2.07,6.52,2.09,-2.09,-2.08,-2.30,4.42,4.43,4.44
128.57,6.51,2.15,6.52,2.16,-2.16,-2.14,-2.33,4.35,4.36,4.36
129.85,6.51,2.21,6.53,2.23,-2.23,-2.19,-2.35,4.28,4.30,4.30
131.15,6.51,2.29,6.53,2.30,-2.30,-2.25,-2.38,4.21,4.23,4.22
132.46,6.52,2.36,6.53,2.37,-2.37,-2.31,-2.40,4.15,4.16,4.16
133.79,6.53,2.44,6.53,2.43,-2.43,-2.36,-2.41,4.10,4.09,4.09
135.12,6.53,2.51,6.52,2.50,-2.50,-2.42,-2.43,4.04,4.03,4.03
136.48,6.53,2.57,6.52,2.55,-2.55,-2.47,-2.44,3.98,3.96,3.97
137.84,6.52,2.62,6.51,2.61,-2.61,-2.53,-2.46,3.91,3.90,3.90
139.22,6.51,2.68,6.49,2.66,-2.66,-2.58,-2.47,3.86,3.84,3.83
140.61,6.49,2.72,6.47,2.70,-2.70,-2.64,-2.48,3.79,3.77,3.77
142.02,6.46,2.75,6.45,2.74,-2.74,-2.69,-2.49,3.72,3.71,3.71
143.44,6.44,2.79,6.43,2.77,-2.77,-2.74,-2.49,3.67,3.66,3.65
144.87,6.40,2.80,6.40,2.80,-2.80,-2.79,-2.50,3.60,3.60,3.60
146.32,6.37,2.83,6.37,2.83,-2.83,-2.84,-2.51,3.54,3.54,3.54
147.78,6.34,2.85,6.34,2.85,-2.85,-2.89,-2.52,3.49,3.49,3.49
149.26,6.30,2.87,6.31,2.88,-2.88,-2.94,-2.53,3.42,3.43,3.43
150.75,6.27,2.90,6.29,2.91,-2.91,-2.99,-2.53,3.36,3.37,3.37
152.26,6.24,2.92,6.26,2.94,-2.94,-3.04,-2.54,3.30,3.32,3.32
153.78,6.21,2.94,6.24,2.98,-2.98,-3.09,-2.55,3.23,3.27,3.27
155.32,6.20,2.99,6.23,3.02,-3.02,-3.13,-2.57,3.18,3.21,3.21
156.88,6.18,3.02,6.22,3.06,-3.06,-3.18,-2.58,3.12,3.16,3.16
158.44,6.18,3.08,6.20,3.10,-3.10,-3.22,-2.59,3.08,3.10,3.10
160.03,6.18,3.13,6.19,3.15,-3.15,-3.27,-2.61,3.03,3.05,3.05
161.63,6.20,3.21,6.18,3.19,-3.19,-3.31,-2.63,3.01,2.99,2.99
163.24,6.20,3.27,6.17,3.24,-3.24,-3.35,-2.64,2.97,2.93,2.93
164.88,6.19,3.31,6.16,3.28,-3.28,-3.39,-2.67,2.91,2.88,2.88
166.53,6.17,3.36,6.14,3.32,-3.32,-3.43,-2.69,2.85,2.82,2.81
168.19,6.15,3.38,6.13,3.36,-3.36,-3.47,-2.71,2.79,2.76,2.77
169.87,6.12,3.41,6.10,3.40,-3.40,-3.51,-2.74,2.72,2.71,2.71
171.57,6.09,3.45,6.08,3.43,-3.43,-3.54,-2.77,2.66,2.65,2.65
173.29,6.06,3.47,6.05,3.46,-3.46,-3.58,-2.80,2.60,2.59,2.60
175.02,6.02,3.48,6.02,3.49,-3.49,-3.61,-2.83,2.53,2.54,2.54
176.77,5.98,3.50,6.00,3.52,-3.52,-3.65,-2.87,2.46,2.48,2.48
178.54,5.96,3.54,5.97,3.55,-3.55,-3.68,-2.91,2.41,2.42,2.42
180.32,5.93,3.57,5.95,3.58,-3.58,-3.71,-2.95,2.35,2.37,2.36
182.13,5.90,3.59,5.93,3.61,-3.61,-3.74,-2.99,2.29,2.31,2.32
183.95,5.87,3.61,5.91,3.65,-3.65,-3.77,-3.04,2.22,2.26,2.26
185.79,5.86,3.66,5.89,3.69,-3.69,-3.79,-3.09,2.17,2.20,2.20
187.65,5.85,3.70,5.88,3.73,-3.73,-3.82,-3.14,2.12,2.15,2.15
189.52,5.86,3.76,5.87,3.77,-3.77,-3.84,-3.19,2.09,2.10,2.10
191.42,5.87,3.82,5.86,3.81,-3.81,-3.87,-3.24,2.06,2.05,2.05
193.33,5.87,3.86,5.85,3.85,-3.85,-3.89,-3.30,2.02,2.00,2.01
195.27,5.87,3.92,5.84,3.88,-3.88,-3.91,-3.35,1.99,1.95,1.95
197.22,5.86,3.96,5.83,3.92,-3.92,-3.93,-3.41,1.95,1.91,1.90
199.19,5.83,3.97,5.81,3.94,-3.94,-3.95,-3.47,1.89,1.87,1.86
201.18,5.81,4.00,5.79,3.97,-3.97,-3.96,-3.54,1.84,1.82,1.81
203.19,5.78,4.00,5.77,3.99,-3.99,-3.98,-3.60,1.79,1.78,1.78
205.23,5.74,3.99,5.75,4.01,-4.01,-3.99,-3.66,1.73,1.74,1.75
207.28,5.71,4.00,5.72,4.02,-4.02,-4.00,-3.72,1.69,1.70,1.71
209.35,5.68,4.01,5.69,4.03,-4.03,-4.02,-3.79,1.65,1.67,1.67
211.44,5.65,4.02,5.66,4.03,-4.03,-4.03,-3.85,1.62,1.63,1.63
213.56,5.62,4.02,5.63,4.03,-4.03,-4.03,-3.91,1.59,1.60,1.60
215.69,5.59,4.02,5.60,4.04,-4.04,-4.04,-3.98,1.56,1.56,1.57
217.85,5.56,4.03,5.57,4.03,-4.03,-4.04,-4.04,1.53,1.53,1.53
220.03,5.54,4.04,5.54,4.03,-4.03,-4.05,-4.10,1.51,1.50,1.50
222.23,5.51,4.05,5.51,4.04,-4.04,-4.05,-4.15,1.48,1.47,1.46
224.45,5.48,4.04,5.48,4.04,-4.04,-4.05,-4.20,1.45,1.44,1.44
226.70,5.44,4.03,5.45,4.04,-4.04,-4.05,-4.26,1.41,1.42,1.41
228.96,5.42,4.02,5.42,4.03,-4.03,-4.05,-4.30,1.39,1.39,1.40
231.25,5.40,4.04,5.40,4.03,-4.03,-4.04,-4.34,1.37,1.37,1.37
233.57,5.37,4.03,5.37,4.02,-4.02,-4.04,-4.38,1.35,1.35,1.35
235.90,5.33,4.00,5.34,4.01,-4.01,-4.03,-4.41,1.32,1.33,1.33
238.26,5.31,4.01,5.31,4.00,-4.00,-4.02,-4.44,1.31,1.31,1.30
240.64,5.29,3.99,5.29,3.99,-3.99,-4.02,-4.46,1.30,1.30,1.30
243.05,5.27,3.99,5.26,3.98,-3.98,-4.00,-4.48,1.29,1.28,1.28
245.48,5.24,3.98,5.24,3.97,-3.97,-3.99,-4.49,1.27,1.27,1.27
247.93,5.20,3.95,5.22,3.96,-3.96,-3.98,-4.49,1.25,1.26,1.25
250.41,5.18,3.93,5.19,3.94,-3.94,-3.96,-4.49,1.24,1.25,1.25
252.92,5.15,3.90,5.17,3.92,-3.92,-3.95,-4.47,1.23,1.24,1.25
255.45,5.13,3.90,5.14,3.91,-3.91,-3.93,-4.46,1.23,1.23,1.23
258.00,5.12,3.89,5.11,3.88,-3.88,-3.91,-4.43,1.24,1.23,1.23
260.58,5.09,3.87,5.08,3.86,-3.86,-3.89,-4.40,1.23,1.22,1.23
263.19,5.07,3.85,5.05,3.84,-3.84,-3.87,-4.37,1.23,1.22,1.22
265.82,5.03,3.82,5.02,3.81,-3.81,-3.84,-4.33,1.22,1.21,1.21
268.48,5.01,3.80,4.99,3.79,-3.79,-3.82,-4.28,1.23,1.20,1.21
271.16,4.97,3.77,4.96,3.76,-3.76,-3.79,-4.23,1.21,1.20,1.21
273.87,4.92,3.73,4.93,3.73,-3.73,-3.77,-4.17,1.19,1.19,1.19
276.61,4.88,3.69,4.89,3.70,-3.70,-3.74,-4.11,1.18,1.19,1.19
279.38,4.84,3.67,4.86,3.67,-3.67,-3.71,-4.04,1.17,1.19,1.17
282.17,4.80,3.63,4.82,3.64,-3.64,-3.68,-3.98,1.16,1.18,1.17
284.99,4.77,3.59,4.79,3.60,-3.60,-3.65,-3.91,1.17,1.18,1.18
287.84,4.74,3.56,4.75,3.56,-3.56,-3.62,-3.83,1.18,1.18,1.18
290.72,4.72,3.55,4.71,3.53,-3.53,-3.58,-3.76,1.20,1.18,1.17
293.63,4.69,3.51,4.67,3.49,-3.49,-3.55,-3.68,1.20,1.18,1.19
296.57,4.66,3.47,4.64,3.45,-3.45,-3.51,-3.60,1.21,1.19,1.19
299.53,4.62,3.43,4.60,3.41,-3.41,-3.47,-3.53,1.21,1.19,1.19
302.53,4.57,3.37,4.57,3.38,-3.38,-3.44,-3.45,1.19,1.19,1.20
305.55,4.52,3.33,4.54,3.34,-3.34,-3.40,-3.37,1.18,1.20,1.19
308.61,4.48,3.27,4.50,3.30,-3.30,-3.36,-3.29,1.18,1.20,1.21
311.69,4.43,3.22,4.47,3.26,-3.26,-3.32,-3.21,1.17,1.21,1.21
314.81,4.42,3.21,4.43,3.22,-3.22,-3.28,-3.13,1.20,1.21,1.21
317.96,4.40,3.19,4.40,3.18,-3.18,-3.23,-3.06,1.22,1.22,1.22
321.14,4.38,3.15,4.36,3.14,-3.14,-3.19,-2.98,1.24,1.23,1.23
324.35,4.35,3.13,4.33,3.10,-3.10,-3.15,-2.91,1.25,1.23,1.22
327.59,4.30,3.05,4.30,3.06,-3.06,-3.10,-2.83,1.24,1.24,1.25
330.87,4.26,3.02,4.26,3.02,-3.02,-3.06,-2.76,1.24,1.24,1.24
334.18,4.22,2.97,4.23,2.98,-2.98,-3.01,-2.69,1.24,1.25,1.25
337.52,4.18,2.93,4.20,2.94,-2.94,-2.96,-2.63,1.24,1.26,1.25
340.90,4.15,2.88,4.16,2.90,-2.90,-2.92,-2.56,1.26,1.26,1.27
344.30,4.12,2.85,4.12,2.85,-2.85,-2.87,-2.49,1.27,1.27,1.27
347.75,4.09,2.81,4.08,2.80,-2.80,-2.82,-2.43,1.29,1.28,1.28
351.23,4.06,2.79,4.03,2.75,-2.75,-2.77,-2.37,1.31,1.28,1.27
354.74,4.02,2.72,3.99,2.70,-2.70,-2.72,-2.31,1.32,1.29,1.30
358.28,3.96,2.67,3.95,2.65,-2.65,-2.67,-2.26,1.31,1.30,1.30
361.87,3.91,2.61,3.91,2.61,-2.61,-2.62,-2.20,1.31,1.30,1.30
365.49,3.85,2.54,3.87,2.56,-2.56,-2.57,-2.15,1.29,1.31,1.31
369.14,3.80,2.48,3.83,2.51,-2.51,-2.52,-2.09,1.29,1.32,1.32
372.83,3.76,2.43,3.79,2.46,-2.46,-2.47,-2.05,1.30,1.32,1.33
376.56,3.72,2.39,3.75,2.42,-2.42,-2.41,-2.00,1.31,1.33,1.33
380.33,3.70,2.37,3.71,2.37,-2.37,-2.36,-1.95,1.33,1.34,1.33
384.13,3.68,2.33,3.68,2.33,-2.33,-2.31,-1.91,1.36,1.35,1.35
387.97,3.65,2.29,3.64,2.28,-2.28,-2.26,-1.86,1.37,1.36,1.36
391.85,3.61,2.25,3.61,2.24,-2.24,-2.20,-1.82,1.37,1.37,1.36
395.77,3.57,2.20,3.58,2.20,-2.20,-2.15,-1.78,1.37,1.38,1.37
399.73,3.54,2.16,3.55,2.16,-2.16,-2.10,-1.74,1.38,1.39,1.38
403.72,3.51,2.10,3.52,2.12,-2.12,-2.04,-1.70,1.39,1.39,1.41
407.76,3.49,2.09,3.48,2.08,-2.08,-1.99,-1.67,1.41,1.40,1.40
411.84,3.46,2.05,3.45,2.03,-2.03,-1.93,-1.63,1.43,1.41,1.41
415.96,3.42,1.99,3.41,1.99,-1.99,-1.88,-1.60,1.43,1.42,1.43
420.12,3.38,1.95,3.37,1.94,-1.94,-1.82,-1.56,1.44,1.43,1.43
424.32,3.33,1.90,3.33,1.89,-1.89,-1.77,-1.53,1.44,1.44,1.44
428.56,3.28,1.83,3.28,1.84,-1.84,-1.72,-1.50,1.45,1.45,1.45
432.85,3.24,1.78,3.24,1.78,-1.78,-1.66,-1.47,1.46,1.45,1.46
437.18,3.19,1.73,3.19,1.73,-1.73,-1.61,-1.44,1.46,1.46,1.46
441.55,3.14,1.67,3.15,1.67,-1.67,-1.55,-1.41,1.47,1.47,1.47
445.96,3.09,1.62,3.10,1.62,-1.62,-1.50,-1.38,1.47,1.48,1.48
450.42,3.03,1.55,3.05,1.56,-1.56,-1.44,-1.35,1.47,1.49,1.48
454.93,2.99,1.50,3.00,1.50,-1.50,-1.39,-1.32,1.49,1.50,1.49
459.48,2.94,1.44,2.95,1.44,-1.44,-1.33,-1.29,1.50,1.51,1.50
464.07,2.91,1.39,2.90,1.38,-1.38,-1.28,-1.25,1.53,1.51,1.52
468.71,2.86,1.33,2.85,1.32,-1.32,-1.22,-1.22,1.54,1.52,1.53
473.40,2.80,1.26,2.80,1.27,-1.27,-1.17,-1.19,1.53,1.53,1.54
478.13,2.75,1.21,2.75,1.21,-1.21,-1.12,-1.16,1.54,1.54,1.55
482.91,2.70,1.15,2.70,1.15,-1.15,-1.06,-1.13,1.55,1.55,1.55
487.74,2.65,1.09,2.66,1.09,-1.09,-1.01,-1.10,1.56,1.56,1.56
492.62,2.60,1.03,2.61,1.04,-1.04,-0.95,-1.06,1.57,1.57,1.57
497.55,2.56,0.98,2.57,0.98,-0.98,-0.90,-1.03,1.58,1.59,1.58
502.52,2.52,0.93,2.52,0.93,-0.93,-0.85,-0.99,1.60,1.60,1.59
507.55,2.47,0.86,2.48,0.87,-0.87,-0.80,-0.96,1.60,1.61,1.61
512.62,2.43,0.81,2.43,0.82,-0.82,-0.74,-0.92,1.62,1.62,1.62
517.75,2.39,0.76,2.39,0.76,-0.76,-0.69,-0.88,1.63,1.63,1.64
522.93,2.35,0.71,2.35,0.71,-0.71,-0.64,-0.84,1.64,1.64,1.65
528.16,2.31,0.66,2.31,0.66,-0.66,-0.59,-0.80,1.66,1.65,1.65
533.44,2.27,0.61,2.27,0.60,-0.60,-0.53,-0.76,1.67,1.67,1.66
