frequency,raw,error,smoothed,error_smoothed,equalization,parametric_eq,fixed_band_eq,equalized_raw,equalized_smoothed,target
20.00,-1.00,-6.17,-1.01,-6.20,6.20,5.98,1.62,5.20,5.19,5.17
20.20,-0.97,-6.14,-0.98,-6.16,6.16,5.98,1.67,5.19,5.18,5.17
20.40,-0.94,-6.10,-0.94,-6.11,6.11,5.97,1.72,5.17,5.17,5.17
20.61,-0.90,-6.07,-0.90,-6.06,6.06,5.96,1.78,5.16,5.16,5.16
20.81,-0.86,-6.02,-0.86,-6.01,6.01,5.94,1.84,5.15,5.15,5.16
21.02,-0.83,-5.99,-0.82,-5.96,5.96,5.92,1.90,5.13,5.14,5.16
21.23,-0.79,-5.93,-0.78,-5.91,5.91,5.89,1.96,5.12,5.13,5.14
21.44,-0.75,-5.88,-0.74,-5.85,5.85,5.86,2.02,5.10,5.11,5.13
21.66,-0.70,-5.81,-0.69,-5.79,5.79,5.82,2.08,5.09,5.10,5.11
21.87,-0.66,-5.75,-0.65,-5.73,5.73,5.78,2.15,5.07,5.08,5.09
22.09,-0.60,-5.68,-0.60,-5.67,5.67,5.73,2.22,5.07,5.07,5.08
22.31,-0.55,-5.60,-0.55,-5.60,5.60,5.68,2.29,5.05,5.05,5.05
22.54,-0.50,-5.53,-0.50,-5.53,5.53,5.63,2.36,5.03,5.03,5.03
22.76,-0.44,-5.45,-0.45,-5.46,5.46,5.57,2.43,5.02,5.01,5.01
22.99,-0.39,-5.37,-0.40,-5.38,5.38,5.51,2.51,4.99,4.98,4.98
23.22,-0.34,-5.29,-0.34,-5.30,5.30,5.44,2.59,4.96,4.96,4.95
23.45,-0.28,-5.21,-0.29,-5.23,5.23,5.38,2.66,4.95,4.94,4.93
23.69,-0.23,-5.15,-0.23,-5.15,5.15,5.31,2.75,4.92,4.92,4.92
23.92,-0.17,-5.06,-0.18,-5.08,5.08,5.23,2.83,4.91,4.90,4.90
24.16,-0.12,-5.00,-0.12,-5.00,5.00,5.16,2.91,4.88,4.88,4.88
24.40,-0.07,-4.93,-0.07,-4.92,4.92,5.08,3.00,4.86,4.86,4.86
24.65,-0.02,-4.86,-0.01,-4.85,4.85,5.00,3.08,4.83,4.84,4.84
24.89,0.04,-4.78,0.05,-4.77,4.77,4.92,3.17,4.81,4.82,4.82
25.14,0.10,-4.71,0.11,-4.70,4.70,4.84,3.26,4.80,4.81,4.81
25.39,0.17,-4.62,0.17,-4.62,4.62,4.76,3.35,4.79,4.79,4.79
25.65,0.23,-4.55,0.23,-4.55,4.55,4.67,3.43,4.78,4.77,4.78
25.91,0.29,-4.46,0.29,-4.47,4.47,4.59,3.52,4.76,4.76,4.75
26.16,0.35,-4.38,0.35,-4.39,4.39,4.50,3.61,4.74,4.74,4.74
26.43,0.42,-4.31,0.41,-4.31,4.31,4.42,3.70,4.73,4.72,4.73
26.69,0.48,-4.22,0.48,-4.23,4.23,4.33,3.78,4.71,4.71,4.70
26.96,0.54,-4.15,0.54,-4.15,4.15,4.25,3.87,4.69,4.69,4.69
27.23,0.61,-4.07,0.61,-4.07,4.07,4.16,3.95,4.68,4.68,4.68
27.50,0.66,-4.01,0.67,-3.99,3.99,4.07,4.03,4.65,4.66,4.67
27.77,0.73,-3.92,0.74,-3.91,3.91,3.99,4.11,4.64,4.65,4.65
28.05,0.80,-3.84,0.80,-3.83,3.83,3.90,4.18,4.63,4.63,4.64
28.33,0.86,-3.75,0.86,-3.76,3.76,3.82,4.25,4.62,4.62,4.61
28.62,0.93,-3.67,0.93,-3.68,3.68,3.74,4.31,4.61,4.61,4.60
28.90,0.99,-3.60,0.99,-3.60,3.60,3.65,4.37,4.59,4.59,4.59
29.19,1.05,-3.52,1.05,-3.53,3.53,3.57,4.42,4.58,4.58,4.57
29.48,1.12,-3.45,1.11,-3.45,3.45,3.49,4.46,4.57,4.57,4.57
29.78,1.18,-3.38,1.17,-3.38,3.38,3.41,4.50,4.56,4.55,4.56
30.08,1.24,-3.30,1.23,-3.31,3.31,3.33,4.53,4.55,4.54,4.54
30.38,1.29,-3.23,1.29,-3.24,3.24,3.25,4.55,4.53,4.52,4.52
30.68,1.35,-3.16,1.34,-3.17,3.17,3.17,4.57,4.52,4.51,4.51
30.99,1.40,-3.09,1.39,-3.10,3.10,3.09,4.57,4.50,4.49,4.49
31.30,1.44,-3.04,1.44,-3.03,3.03,3.02,4.57,4.47,4.47,4.47
31.61,1.49,-2.97,1.49,-2.97,2.97,2.94,4.56,4.46,4.45,4.46
31.93,1.53,-2.91,1.53,-2.90,2.90,2.87,4.54,4.43,4.44,4.44
32.24,1.57,-2.84,1.58,-2.84,2.84,2.79,4.51,4.41,4.42,4.41
32.57,1.62,-2.77,1.62,-2.77,2.77,2.72,4.47,4.39,4.40,4.39
32.89,1.66,-2.72,1.67,-2.71,2.71,2.65,4.43,4.37,4.37,4.38
33.22,1.71,-2.64,1.71,-2.64,2.64,2.58,4.37,4.35,4.35,4.35
33.55,1.75,-2.58,1.76,-2.58,2.58,2.51,4.31,4.33,4.33,4.34
33.89,1.80,-2.51,1.80,-2.51,2.51,2.44,4.25,4.31,4.31,4.31
34.23,1.84,-2.45,1.84,-2.45,2.45,2.37,4.18,4.29,4.29,4.29
34.57,1.89,-2.38,1.89,-2.38,2.38,2.31,4.10,4.27,4.27,4.27
34.92,1.93,-2.31,1.93,-2.32,2.32,2.24,4.01,4.25,4.25,4.24
35.27,1.98,-2.25,1.97,-2.26,2.26,2.18,3.93,4.23,4.23,4.23
35.62,2.02,-2.18,2.01,-2.19,2.19,2.12,3.83,4.21,4.20,4.20
35.97,2.05,-2.13,2.05,-2.13,2.13,2.05,3.74,4.18,4.18,4.18
36.33,2.10,-2.06,2.09,-2.07,2.07,1.99,3.64,4.17,4.16,4.17
36.70,2.12,-2.02,2.13,-2.01,2.01,1.93,3.54,4.13,4.14,4.14
37.06,2.17,-1.95,2.17,-1.95,1.95,1.87,3.44,4.12,4.12,4.12
37.43,2.21,-1.89,2.21,-1.89,1.89,1.81,3.33,4.10,4.10,4.10
37.81,2.24,-1.84,2.25,-1.83,1.83,1.76,3.23,4.07,4.07,4.08
38.19,2.29,-1.76,2.29,-1.77,1.77,1.70,3.12,4.05,4.05,4.05
38.57,2.32,-1.72,2.33,-1.71,1.71,1.64,3.01,4.03,4.03,4.04
38.95,2.36,-1.65,2.36,-1.65,1.65,1.59,2.90,4.01,4.01,4.01
39.34,2.40,-1.58,2.40,-1.59,1.59,1.53,2.80,3.99,3.99,3.98
39.74,2.44,-1.52,2.44,-1.53,1.53,1.48,2.69,3.97,3.97,3.96
40.14,2.47,-1.48,2.47,-1.48,1.48,1.43,2.58,3.95,3.95,3.95
40.54,2.51,-1.42,2.51,-1.42,1.42,1.37,2.48,3.93,3.93,3.93
40.94,2.55,-1.36,2.54,-1.37,1.37,1.32,2.37,3.92,3.91,3.91
41.35,2.58,-1.30,2.57,-1.32,1.32,1.27,2.27,3.90,3.89,3.88
41.76,2.61,-1.26,2.61,-1.26,1.26,1.22,2.16,3.87,3.87,3.87
42.18,2.64,-1.22,2.64,-1.21,1.21,1.17,2.06,3.85,3.85,3.86
42.60,2.66,-1.17,2.67,-1.16,1.16,1.12,1.96,3.82,3.83,3.83
43.03,2.69,-1.13,2.69,-1.11,1.11,1.07,1.86,3.80,3.81,3.82
43.46,2.72,-1.07,2.72,-1.07,1.07,1.03,1.76,3.79,3.79,3.79
43.90,2.75,-1.02,2.75,-1.02,1.02,0.98,1.67,3.77,3.77,3.76
44.33,2.77,-0.98,2.77,-0.98,0.98,0.93,1.57,3.75,3.75,3.75
44.78,2.79,-0.94,2.79,-0.94,0.94,0.89,1.48,3.73,3.73,3.73
45.23,2.82,-0.88,2.81,-0.89,0.89,0.84,1.38,3.71,3.71,3.70
45.68,2.83,-0.85,2.83,-0.85,0.85,0.79,1.29,3.68,3.69,3.68
46.13,2.86,-0.80,2.85,-0.81,0.81,0.75,1.20,3.67,3.66,3.66
46.60,2.87,-0.78,2.87,-0.77,0.77,0.71,1.11,3.64,3.64,3.65
47.06,2.89,-0.73,2.89,-0.73,0.73,0.66,1.02,3.62,3.62,3.62
47.53,2.91,-0.69,2.91,-0.69,0.69,0.62,0.94,3.60,3.59,3.60
48.01,2.92,-0.67,2.92,-0.65,0.65,0.57,0.85,3.57,3.57,3.59
48.49,2.94,-0.62,2.94,-0.61,0.61,0.53,0.77,3.55,3.55,3.56
48.97,2.95,-0.57,2.95,-0.57,0.57,0.49,0.68,3.52,3.52,3.52
49.46,2.97,-0.52,2.97,-0.53,0.53,0.44,0.60,3.50,3.50,3.49
49.96,2.98,-0.48,2.98,-0.50,0.50,0.40,0.52,3.48,3.48,3.46
50.46,3.00,-0.45,2.99,-0.46,0.46,0.36,0.44,3.46,3.45,3.45
50.96,3.01,-0.42,3.01,-0.42,0.42,0.32,0.36,3.43,3.42,3.43
51.47,3.02,-0.37,3.02,-0.38,0.38,0.28,0.28,3.40,3.40,3.39
51.99,3.04,-0.33,3.03,-0.34,0.34,0.23,0.21,3.38,3.37,3.37
52.51,3.05,-0.30,3.05,-0.30,0.30,0.19,0.13,3.35,3.34,3.35
53.03,3.06,-0.26,3.06,-0.25,0.25,0.15,0.06,3.31,3.32,3.32
53.56,3.08,-0.22,3.08,-0.21,0.21,0.11,-0.02,3.29,3.29,3.30
54.10,3.10,-0.17,3.10,-0.17,0.17,0.07,-0.09,3.27,3.26,3.27
54.64,3.11,-0.13,3.12,-0.12,0.12,0.03,-0.16,3.23,3.24,3.24
55.18,3.13,-0.08,3.14,-0.07,0.07,-0.01,-0.23,3.20,3.21,3.21
55.74,3.16,-0.02,3.16,-0.02,0.02,-0.06,-0.30,3.18,3.18,3.18
56.29,3.18,0.02,3.19,0.03,-0.03,-0.10,-0.37,3.15,3.16,3.16
56.86,3.21,0.08,3.21,0.08,-0.08,-0.14,-0.43,3.13,3.13,3.13
57.42,3.24,0.15,3.24,0.14,-0.14,-0.18,-0.50,3.10,3.10,3.09
58.00,3.27,0.20,3.27,0.20,-0.20,-0.22,-0.56,3.07,3.07,3.07
58.58,3.30,0.26,3.30,0.26,-0.26,-0.26,-0.62,3.04,3.04,3.04
59.16,3.34,0.33,3.34,0.33,-0.33,-0.31,-0.68,3.01,3.01,3.01
59.76,3.37,0.38,3.37,0.39,-0.39,-0.35,-0.74,2.98,2.98,2.99
60.35,3.41,0.46,3.41,0.46,-0.46,-0.39,-0.79,2.95,2.95,2.95
60.96,3.44,0.50,3.44,0.52,-0.52,-0.43,-0.85,2.92,2.92,2.94
61.57,3.48,0.59,3.48,0.59,-0.59,-0.47,-0.90,2.89,2.89,2.89
62.18,3.52,0.67,3.51,0.66,-0.66,-0.52,-0.96,2.86,2.86,2.85
62.80,3.55,0.73,3.55,0.73,-0.73,-0.56,-1.01,2.82,2.82,2.82
63.43,3.59,0.81,3.59,0.79,-0.79,-0.60,-1.06,2.80,2.79,2.78
64.07,3.62,0.87,3.62,0.86,-0.86,-0.65,-1.11,2.76,2.76,2.75
64.71,3.66,0.93,3.66,0.93,-0.93,-0.69,-1.15,2.73,2.73,2.73
65.35,3.69,1.00,3.69,0.99,-0.99,-0.74,-1.20,2.70,2.70,2.69
66.01,3.72,1.05,3.73,1.06,-1.06,-0.78,-1.24,2.66,2.67,2.67
66.67,3.76,1.12,3.76,1.13,-1.13,-0.83,-1.29,2.63,2.64,2.64
67.33,3.80,1.19,3.79,1.19,-1.19,-0.87,-1.33,2.61,2.61,2.61
68.01,3.82,1.25,3.83,1.25,-1.25,-0.92,-1.38,2.57,2.58,2.57
68.69,3.86,1.31,3.86,1.31,-1.31,-0.96,-1.42,2.55,2.54,2.55
69.37,3.89,1.38,3.89,1.38,-1.38,-1.01,-1.46,2.51,2.51,2.51
70.07,3.92,1.44,3.92,1.44,-1.44,-1.06,-1.50,2.48,2.48,2.48
70.77,3.95,1.50,3.94,1.50,-1.50,-1.11,-1.55,2.45,2.44,2.45
71.48,3.97,1.56,3.97,1.56,-1.56,-1.16,-1.59,2.41,2.41,2.41
72.19,3.99,1.61,3.99,1.62,-1.62,-1.20,-1.63,2.37,2.37,2.38
72.91,4.02,1.69,4.02,1.69,-1.69,-1.25,-1.67,2.33,2.33,2.33
73.64,4.04,1.75,4.04,1.75,-1.75,-1.30,-1.72,2.29,2.29,2.29
74.38,4.05,1.80,4.06,1.81,-1.81,-1.36,-1.76,2.24,2.25,2.25
75.12,4.08,1.88,4.07,1.87,-1.87,-1.41,-1.81,2.21,2.21,2.20
75.87,4.09,1.93,4.09,1.93,-1.93,-1.46,-1.85,2.16,2.16,2.16
76.63,4.10,1.98,4.10,1.99,-1.99,-1.51,-1.90,2.11,2.12,2.12
77.40,4.12,2.05,4.12,2.05,-2.05,-1.57,-1.95,2.07,2.07,2.07
78.17,4.13,2.12,4.13,2.11,-2.11,-1.62,-2.00,2.02,2.02,2.01
78.95,4.14,2.16,4.14,2.16,-2.16,-1.68,-2.05,1.98,1.98,1.98
79.74,4.15,2.22,4.15,2.22,-2.22,-1.73,-2.10,1.93,1.93,1.93
80.54,4.15,2.27,4.16,2.28,-2.28,-1.79,-2.15,1.87,1.87,1.88
81.35,4.16,2.34,4.16,2.34,-2.34,-1.85,-2.21,1.82,1.82,1.82
82.16,4.17,2.40,4.16,2.39,-2.39,-1.91,-2.27,1.78,1.77,1.77
82.98,4.17,2.45,4.17,2.45,-2.45,-1.97,-2.33,1.72,1.72,1.72
83.81,4.17,2.51,4.17,2.51,-2.51,-2.03,-2.39,1.66,1.66,1.66
84.65,4.17,2.57,4.17,2.56,-2.56,-2.09,-2.45,1.61,1.61,1.60
85.50,4.17,2.62,4.17,2.62,-2.62,-2.15,-2.52,1.55,1.55,1.55
86.35,4.17,2.68,4.17,2.68,-2.68,-2.21,-2.59,1.49,1.49,1.49
87.22,4.16,2.73,4.17,2.73,-2.73,-2.28,-2.65,1.43,1.43,1.43
88.09,4.16,2.79,4.16,2.79,-2.79,-2.34,-2.73,1.37,1.38,1.37
88.97,4.16,2.84,4.16,2.84,-2.84,-2.41,-2.80,1.32,1.32,1.32
89.86,4.15,2.89,4.15,2.90,-2.90,-2.47,-2.88,1.25,1.26,1.26
90.76,4.15,2.96,4.15,2.95,-2.95,-2.54,-2.96,1.20,1.20,1.19
91.66,4.14,3.01,4.14,3.01,-3.01,-2.61,-3.04,1.13,1.13,1.13
92.58,4.13,3.07,4.13,3.06,-3.06,-2.68,-3.12,1.07,1.07,1.06
93.51,4.12,3.10,4.13,3.12,-3.12,-2.75,-3.20,1.00,1.01,1.02
94.44,4.12,3.17,4.12,3.17,-3.17,-2.82,-3.29,0.95,0.94,0.95
95.39,4.11,3.22,4.11,3.23,-3.23,-2.89,-3.38,0.88,0.88,0.89
96.34,4.10,3.29,4.10,3.29,-3.29,-2.97,-3.47,0.81,0.81,0.81
97.30,4.09,3.35,4.09,3.35,-3.35,-3.04,-3.56,0.74,0.74,0.74
98.28,4.08,3.40,4.08,3.41,-3.41,-3.12,-3.66,0.67,0.67,0.68
99.26,4.07,3.47,4.07,3.47,-3.47,-3.19,-3.75,0.60,0.60,0.60
100.25,4.06,3.53,4.06,3.53,-3.53,-3.27,-3.85,0.53,0.53,0.53
101.25,4.05,3.58,4.05,3.58,-3.58,-3.35,-3.94,0.47,0.46,0.47
102.27,4.04,3.65,4.04,3.65,-3.65,-3.43,-4.04,0.39,0.39,0.39
103.29,4.02,3.71,4.02,3.71,-3.71,-3.50,-4.14,0.31,0.32,0.31
104.32,4.01,3.77,4.01,3.77,-3.77,-3.58,-4.24,0.24,0.24,0.24
105.37,4.00,3.82,4.00,3.83,-3.83,-3.66,-4.34,0.17,0.17,0.18
106.42,3.98,3.88,3.98,3.89,-3.89,-3.74,-4.43,0.09,0.09,0.10
107.48,3.96,3.94,3.97,3.95,-3.95,-3.83,-4.53,0.01,0.02,0.02
108.56,3.95,4.01,3.95,4.01,-4.01,-3.91,-4.63,-0.06,-0.06,-0.06
109.64,3.94,4.08,3.93,4.07,-4.07,-3.99,-4.72,-0.13,-0.14,-0.14
110.74,3.92,4.12,3.92,4.13,-4.13,-4.07,-4.81,-0.21,-0.21,-0.20
111.85,3.90,4.18,3.90,4.19,-4.19,-4.15,-4.89,-0.29,-0.29,-0.28
112.97,3.88,4.26,3.88,4.25,-4.25,-4.23,-4.98,-0.37,-0.37,-0.38
114.10,3.86,4.30,3.86,4.31,-4.31,-4.31,-5.06,-0.45,-0.45,-0.44
115.24,3.84,4.36,3.84,4.36,-4.36,-4.39,-5.13,-0.52,-0.52,-0.52
116.39,3.82,4.43,3.82,4.41,-4.41,-4.47,-5.20,-0.59,-0.60,-0.61
117.55,3.80,4.48,3.79,4.47,-4.47,-4.55,-5.26,-0.67,-0.67,-0.68
118.73,3.77,4.53,3.77,4.52,-4.52,-4.63,-5.32,-0.75,-0.75,-0.76
119.92,3.75,4.57,3.75,4.57,-4.57,-4.71,-5.36,-0.82,-0.82,-0.82
121.12,3.72,4.61,3.72,4.62,-4.62,-4.78,-5.41,-0.90,-0.89,-0.89
122.33,3.70,4.67,3.70,4.67,-4.67,-4.86,-5.44,-0.97,-0.97,-0.97
123.55,3.67,4.70,3.67,4.71,-4.71,-4.93,-5.47,-1.04,-1.04,-1.03
124.79,3.65,4.75,3.65,4.76,-4.76,-5.00,-5.49,-1.11,-1.11,-1.10
126.03,3.62,4.78,3.62,4.80,-4.80,-5.07,-5.50,-1.18,-1.17,-1.16
127.29,3.59,4.82,3.60,4.84,-4.84,-5.13,-5.50,-1.25,-1.24,-1.23
128.57,3.57,4.88,3.57,4.88,-4.88,-5.19,-5.50,-1.31,-1.31,-1.31
129.85,3.55,4.92,3.54,4.91,-4.91,-5.25,-5.49,-1.36,-1.37,-1.37
131.15,3.52,4.95,3.51,4.95,-4.95,-5.31,-5.47,-1.43,-1.43,-1.43
132.46,3.49,4.99,3.49,4.98,-4.98,-5.37,-5.44,-1.49,-1.49,-1.50
133.79,3.46,5.01,3.46,5.01,-5.01,-5.42,-5.41,-1.55,-1.55,-1.55
135.12,3.43,5.04,3.43,5.04,-5.04,-5.46,-5.37,-1.61,-1.60,-1.61
136.48,3.40,5.06,3.40,5.06,-5.06,-5.51,-5.33,-1.66,-1.66,-1.66
137.84,3.37,5.07,3.37,5.08,-5.08,-5.54,-5.28,-1.71,-1.71,-1.70
139.22,3.35,5.11,3.35,5.10,-5.10,-5.58,-5.23,-1.75,-1.75,-1.76
140.61,3.31,5.13,3.32,5.12,-5.12,-5.61,-5.17,-1.81,-1.80,-1.82
142.02,3.29,5.13,3.29,5.13,-5.13,-5.63,-5.11,-1.84,-1.84,-1.84
143.44,3.26,5.14,3.26,5.14,-5.14,-5.65,-5.05,-1.88,-1.88,-1.88
144.87,3.23,5.16,3.23,5.15,-5.15,-5.67,-4.99,-1.92,-1.92,-1.93
146.32,3.21,5.18,3.20,5.16,-5.16,-5.68,-4.92,-1.95,-1.96,-1.97
147.78,3.17,5.16,3.17,5.17,-5.17,-5.68,-4.86,-2.00,-2.00,-1.99
149.26,3.15,5.18,3.15,5.18,-5.18,-5.68,-4.79,-2.03,-2.04,-2.03
150.75,3.11,5.18,3.12,5.19,-5.19,-5.68,-4.72,-2.08,-2.07,-2.07
152.26,3.09,5.20,3.09,5.20,-5.20,-5.67,-4.66,-2.11,-2.11,-2.11
153.78,3.06,5.20,3.06,5.20,-5.20,-5.66,-4.59,-2.14,-2.14,-2.14
155.32,3.03,5.20,3.03,5.21,-5.21,-5.64,-4.53,-2.18,-2.18,-2.17
156.88,3.00,5.21,3.00,5.21,-5.21,-5.61,-4.47,-2.21,-2.21,-2.21
158.44,2.97,5.22,2.97,5.22,-5.22,-5.59,-4.41,-2.25,-2.25,-2.25
160.03,2.95,5.24,2.94,5.22,-5.22,-5.55,-4.35,-2.27,-2.28,-2.29
161.63,2.91,5.23,2.91,5.23,-5.23,-5.52,-4.29,-2.32,-2.31,-2.32
163.24,2.88,5.23,2.88,5.23,-5.23,-5.48,-4.24,-2.35,-2.35,-2.35
164.88,2.85,5.23,2.85,5.23,-5.23,-5.43,-4.19,-2.38,-2.39,-2.38
166.53,2.82,5.23,2.82,5.24,-5.24,-5.38,-4.14,-2.42,-2.42,-2.41
168.19,2.78,5.24,2.78,5.24,-5.24,-5.33,-4.09,-2.46,-2.46,-2.46
169.87,2.75,5.24,2.75,5.24,-5.24,-5.28,-4.05,-2.49,-2.49,-2.49
171.57,2.71,5.24,2.71,5.24,-5.24,-5.22,-4.01,-2.53,-2.53,-2.53
173.29,2.67,5.23,2.67,5.24,-5.24,-5.16,-3.97,-2.57,-2.57,-2.56
175.02,2.64,5.24,2.63,5.24,-5.24,-5.09,-3.94,-2.60,-2.61,-2.60
176.77,2.59,5.24,2.59,5.24,-5.24,-5.03,-3.91,-2.65,-2.65,-2.65
178.54,2.55,5.24,2.55,5.24,-5.24,-4.96,-3.88,-2.69,-2.69,-2.69
180.32,2.51,5.24,2.51,5.23,-5.23,-4.89,-3.85,-2.72,-2.73,-2.73
182.13,2.46,5.23,2.46,5.23,-5.23,-4.82,-3.83,-2.77,-2.77,-2.77
183.95,2.41,5.22,2.42,5.22,-5.22,-4.75,-3.81,-2.81,-2.81,-2.81
185.79,2.37,5.22,2.37,5.22,-5.22,-4.67,-3.80,-2.85,-2.85,-2.85
187.65,2.32,5.21,2.32,5.20,-5.20,-4.60,-3.78,-2.88,-2.88,-2.89
189.52,2.26,5.19,2.27,5.19,-5.19,-4.52,-3.77,-2.93,-2.92,-2.93
191.42,2.22,5.18,2.22,5.18,-5.18,-4.44,-3.77,-2.96,-2.96,-2.96
193.33,2.17,5.16,2.16,5.16,-5.16,-4.37,-3.76,-2.99,-2.99,-2.99
195.27,2.11,5.13,2.11,5.14,-5.14,-4.29,-3.76,-3.03,-3.03,-3.02
197.22,2.05,5.10,2.05,5.11,-5.11,-4.21,-3.76,-3.06,-3.06,-3.05
199.19,2.00,5.10,1.99,5.08,-5.08,-4.13,-3.76,-3.08,-3.09,-3.10
201.18,1.94,5.06,1.93,5.05,-5.05,-4.06,-3.76,-3.11,-3.12,-3.12
203.19,1.87,5.01,1.87,5.02,-5.02,-3.98,-3.77,-3.15,-3.14,-3.14
205.23,1.81,4.98,1.81,4.98,-4.98,-3.90,-3.78,-3.17,-3.17,-3.17
207.28,1.75,4.93,1.75,4.94,-4.94,-3.82,-3.78,-3.19,-3.19,-3.18
209.35,1.67,4.89,1.68,4.89,-4.89,-3.75,-3.79,-3.22,-3.22,-3.22
211.44,1.61,4.85,1.61,4.85,-4.85,-3.67,-3.80,-3.24,-3.24,-3.24
213.56,1.54,4.80,1.54,4.79,-4.79,-3.60,-3.81,-3.25,-3.26,-3.26
215.69,1.46,4.73,1.47,4.74,-4.74,-3.52,-3.82,-3.28,-3.27,-3.27
217.85,1.39,4.67,1.39,4.68,-4.68,-3.45,-3.83,-3.29,-3.29,-3.28
220.03,1.32,4.63,1.31,4.61,-4.61,-3.37,-3.84,-3.29,-3.30,-3.31
222.23,1.24,4.56,1.24,4.54,-4.54,-3.30,-3.84,-3.30,-3.31,-3.32
224.45,1.16,4.47,1.15,4.47,-4.47,-3.23,-3.85,-3.31,-3.32,-3.31
226.70,1.07,4.40,1.07,4.40,-4.40,-3.16,-3.85,-3.33,-3.32,-3.33
228.96,1.00,4.33,0.99,4.32,-4.32,-3.08,-3.86,-3.32,-3.33,-3.33
231.25,0.90,4.22,0.90,4.23,-4.23,-3.02,-3.85,-3.33,-3.33,-3.32
233.57,0.82,4.14,0.82,4.14,-4.14,-2.95,-3.85,-3.32,-3.32,-3.32
235.90,0.73,4.05,0.73,4.05,-4.05,-2.88,-3.84,-3.32,-3.32,-3.32
238.26,0.64,3.96,0.64,3.95,-3.95,-2.81,-3.83,-3.31,-3.31,-3.32
240.64,0.55,3.85,0.56,3.86,-3.86,-2.75,-3.82,-3.31,-3.30,-3.30
243.05,0.47,3.76,0.47,3.75,-3.75,-2.68,-3.80,-3.28,-3.29,-3.29
245.48,0.37,3.64,0.38,3.65,-3.65,-2.62,-3.77,-3.28,-3.27,-3.27
247.93,0.28,3.54,0.29,3.55,-3.55,-2.55,-3.75,-3.27,-3.26,-3.26
250.41,0.20,3.45,0.20,3.44,-3.44,-2.49,-3.71,-3.24,-3.24,-3.25
252.92,0.11,3.33,0.11,3.33,-3.33,-2.43,-3.68,-3.22,-3.22,-3.22
255.45,0.01,3.21,0.02,3.22,-3.22,-2.37,-3.63,-3.21,-3.20,-3.20
258.00,-0.07,3.11,-0.07,3.12,-3.12,-2.31,-3.59,-3.19,-3.18,-3.18
260.58,-0.16,3.00,-0.16,3.00,-3.00,-2.25,-3.54,-3.16,-3.16,-3.16
263.19,-0.25,2.89,-0.25,2.89,-2.89,-2.19,-3.48,-3.14,-3.14,-3.14
265.82,-0.34,2.78,-0.35,2.77,-2.77,-2.13,-3.42,-3.11,-3.12,-3.12
268.48,-0.44,2.66,-0.45,2.65,-2.65,-2.07,-3.36,-3.09,-3.10,-3.10
271.16,-0.53,2.53,-0.54,2.53,-2.53,-2.02,-3.29,-3.06,-3.07,-3.06
273.87,-0.64,2.41,-0.65,2.40,-2.40,-1.96,-3.22,-3.04,-3.05,-3.05
276.61,-0.74,2.28,-0.75,2.28,-2.28,-1.90,-3.14,-3.02,-3.03,-3.02
279.38,-0.84,2.16,-0.86,2.14,-2.14,-1.85,-3.07,-2.98,-3.00,-3.00
282.17,-0.95,2.03,-0.97,2.01,-2.01,-1.79,-2.99,-2.96,-2.98,-2.98
284.99,-1.06,1.90,-1.08,1.87,-1.87,-1.74,-2.91,-2.93,-2.95,-2.96
287.84,-1.17,1.76,-1.19,1.74,-1.74,-1.69,-2.82,-2.91,-2.93,-2.93
290.72,-1.27,1.63,-1.30,1.60,-1.60,-1.63,-2.74,-2.87,-2.90,-2.90
293.63,-1.38,1.50,-1.40,1.47,-1.47,-1.58,-2.65,-2.85,-2.87,-2.88
296.57,-1.48,1.37,-1.49,1.35,-1.35,-1.53,-2.56,-2.83,-2.84,-2.85
299.53,-1.58,1.24,-1.57,1.25,-1.25,-1.48,-2.47,-2.83,-2.82,-2.82
302.53,-1.67,1.13,-1.63,1.15,-1.15,-1.42,-2.38,-2.82,-2.79,-2.80
305.55,-1.74,1.01,-1.68,1.08,-1.08,-1.37,-2.29,-2.82,-2.75,-2.75
308.61,-1.78,0.95,-1.70,1.02,-1.02,-1.32,-2.20,-2.80,-2.72,-2.73
311.69,-1.81,0.88,-1.71,0.98,-0.98,-1.26,-2.11,-2.79,-2.69,-2.69
314.81,-1.80,0.85,-1.70,0.96,-0.96,-1.21,-2.02,-2.76,-2.66,-2.65
317.96,-1.76,0.87,-1.68,0.96,-0.96,-1.16,-1.93,-2.72,-2.63,-2.63
321.14,-1.70,0.90,-1.64,0.96,-0.96,-1.10,-1.83,-2.66,-2.60,-2.60
324.35,-1.63,0.94,-1.60,0.97,-0.97,-1.05,-1.74,-2.60,-2.57,-2.57
327.59,-1.55,0.99,-1.56,0.98,-0.98,-0.99,-1.65,-2.53,-2.54,-2.54
330.87,-1.48,1.03,-1.53,0.99,-0.99,-0.94,-1.56,-2.47,-2.52,-2.51
334.18,-1.42,1.07,-1.50,0.99,-0.99,-0.88,-1.48,-2.41,-2.49,-2.49
337.52,-1.39,1.08,-1.50,0.97,-0.97,-0.82,-1.39,-2.36,-2.47,-2.47
340.90,-1.40,1.04,-1.51,0.93,-0.93,-0.76,-1.30,-2.33,-2.44,-2.44
344.30,-1.43,0.99,-1.55,0.87,-0.87,-0.70,-1.21,-2.30,-2.42,-2.42
347.75,-1.51,0.89,-1.61,0.79,-0.79,-0.63,-1.13,-2.30,-2.40,-2.40
351.23,-1.60,0.78,-1.69,0.69,-0.69,-0.57,-1.04,-2.29,-2.38,-2.38
354.74,-1.72,0.64,-1.79,0.57,-0.57,-0.50,-0.96,-2.29,-2.36,-2.36
358.28,-1.90,0.44,-1.90,0.44,-0.44,-0.43,-0.87,-2.34,-2.34,-2.34
361.87,-2.06,0.27,-2.03,0.29,-0.29,-0.36,-0.79,-2.35,-2.32,-2.33
365.49,-2.22,0.08,-2.16,0.14,-0.14,-0.28,-0.71,-2.36,-2.30,-2.30
369.14,-2.37,-0.08,-2.30,-0.01,0.01,-0.21,-0.62,-2.36,-2.29,-2.29
372.83,-2.50,-0.23,-2.43,-0.16,0.16,-0.13,-0.54,-2.34,-2.27,-2.27
376.56,-2.61,-0.36,-2.55,-0.30,0.30,-0.04,-0.46,-2.31,-2.25,-2.25
380.33,-2.72,-0.49,-2.66,-0.43,0.43,0.05,-0.38,-2.29,-2.23,-2.23
384.13,-2.79,-0.58,-2.76,-0.55,0.55,0.14,-0.30,-2.24,-2.21,-2.21
387.97,-2.87,-0.68,-2.84,-0.65,0.65,0.23,-0.22,-2.22,-2.19,-2.19
391.85,-2.92,-0.75,-2.91,-0.74,0.74,0.32,-0.15,-2.18,-2.17,-2.17
395.77,-2.96,-0.82,-2.96,-0.81,0.81,0.42,-0.07,-2.15,-2.15,-2.14
399.73,-2.99,-0.87,-2.99,-0.87,0.87,0.52,0.00,-2.12,-2.13,-2.12
403.72,-3.01,-0.90,-3.02,-0.91,0.91,0.62,0.08,-2.10,-2.11,-2.11
407.76,-3.03,-0.94,-3.03,-0.95,0.95,0.71,0.15,-2.08,-2.08,-2.09
411.84,-3.04,-0.98,-3.04,-0.97,0.97,0.81,0.22,-2.07,-2.06,-2.06
415.96,-3.03,-0.99,-3.04,-0.99,0.99,0.90,0.29,-2.04,-2.04,-2.04
420.12,-3.02,-1.00,-3.03,-1.01,1.01,0.98,0.36,-2.01,-2.02,-2.02
424.32,-3.01,-1.02,-3.01,-1.01,1.01,1.06,0.43,-2.00,-2.00,-1.99
428.56,-2.99,-1.02,-2.99,-1.02,1.02,1.12,0.50,-1.97,-1.97,-1.97
432.85,-2.97,-1.01,-2.97,-1.02,1.02,1.18,0.56,-1.95,-1.95,-1.96
437.18,-2.94,-1.01,-2.94,-1.01,1.01,1.22,0.62,-1.93,-1.93,-1.93
441.55,-2.90,-1.00,-2.91,-1.01,1.01,1.25,0.68,-1.89,-1.90,-1.90
445.96,-2.87,-0.99,-2.88,-1.00,1.00,1.26,0.74,-1.87,-1.88,-1.88
450.42,-2.83,-0.97,-2.84,-0.99,0.99,1.26,0.79,-1.84,-1.85,-1.86
454.93,-2.80,-0.98,-2.80,-0.98,0.98,1.24,0.85,-1.82,-1.82,-1.82
459.48,-2.75,-0.95,-2.76,-0.96,0.96,1.21,0.90,-1.79,-1.80,-1.80
464.07,-2.71,-0.94,-2.72,-0.95,0.95,1.17,0.94,-1.76,-1.77,-1.77
468.71,-2.67,-0.94,-2.67,-0.93,0.93,1.12,0.98,-1.74,-1.74,-1.73
473.40,-2.63,-0.92,-2.63,-0.91,0.91,1.07,1.02,-1.72,-1.71,-1.71
478.13,-2.58,-0.90,-2.58,-0.89,0.89,1.01,1.06,-1.69,-1.68,-1.68
482.91,-2.54,-0.88,-2.53,-0.87,0.87,0.95,1.09,-1.67,-1.66,-1.66
487.74,-2.48,-0.85,-2.48,-0.85,0.85,0.89,1.12,-1.63,-1.63,-1.63
492.62,-2.43,-0.83,-2.43,-0.83,0.83,0.82,1.14,-1.60,-1.60,-1.60
497.55,-2.38,-0.80,-2.38,-0.81,0.81,0.76,1.16,-1.57,-1.57,-1.58
502.52,-2.33,-0.79,-2.33,-0.79,0.79,0.70,1.18,-1.54,-1.54,-1.54
