frequency,raw,error,smoothed,error_smoothed,equalization,parametric_eq,fixed_band_eq,equalized_raw,equalized_smoothed,target
20.00,-7.11,-9.59,-7.13,-9.61,9.46,9.37,3.42,2.35,2.33,2.48
20.20,-6.97,-9.50,-6.95,-9.48,9.43,9.35,3.51,2.46,2.48,2.53
20.40,-6.82,-9.39,-6.79,-9.37,9.40,9.33,3.61,2.58,2.60,2.58
20.61,-6.68,-9.29,-6.66,-9.28,9.36,9.31,3.71,2.68,2.70,2.61
20.81,-6.53,-9.18,-6.53,-9.18,9.32,9.28,3.81,2.80,2.80,2.66
21.02,-6.40,-9.10,-6.44,-9.14,9.28,9.26,3.91,2.88,2.84,2.70
21.23,-6.43,-9.15,-6.41,-9.14,9.24,9.23,4.02,2.81,2.83,2.72
21.44,-6.45,-9.19,-6.44,-9.18,9.20,9.20,4.13,2.75,2.76,2.74
21.66,-6.47,-9.23,-6.48,-9.24,9.19,9.17,4.25,2.72,2.70,2.76
21.87,-6.50,-9.27,-6.48,-9.25,9.17,9.13,4.37,2.67,2.69,2.77
22.09,-6.45,-9.23,-6.42,-9.21,9.13,9.10,4.49,2.68,2.70,2.79
22.31,-6.31,-9.10,-6.32,-9.11,9.06,9.06,4.61,2.75,2.74,2.80
22.54,-6.17,-8.97,-6.18,-8.98,8.96,9.02,4.74,2.79,2.78,2.80
22.76,-6.04,-8.83,-6.03,-8.83,8.83,8.98,4.87,2.80,2.80,2.80
22.99,-5.90,-8.69,-5.90,-8.69,8.69,8.93,5.00,2.79,2.79,2.79
23.22,-5.76,-8.55,-5.76,-8.55,8.54,8.89,5.14,2.78,2.78,2.79
23.45,-5.63,-8.41,-5.61,-8.40,8.42,8.84,5.28,2.79,2.81,2.79
23.69,-5.49,-8.29,-5.47,-8.27,8.33,8.80,5.42,2.84,2.85,2.80
23.92,-5.35,-8.15,-5.39,-8.19,8.27,8.75,5.56,2.92,2.88,2.80
24.16,-5.35,-8.15,-5.36,-8.16,8.24,8.70,5.71,2.89,2.88,2.80
24.40,-5.42,-8.23,-5.40,-8.21,8.24,8.65,5.86,2.82,2.84,2.81
24.65,-5.49,-8.29,-5.48,-8.28,8.26,8.59,6.01,2.77,2.78,2.80
24.89,-5.55,-8.35,-5.54,-8.34,8.29,8.54,6.17,2.75,2.75,2.80
25.14,-5.58,-8.38,-5.57,-8.37,8.33,8.48,6.33,2.75,2.76,2.80
25.39,-5.58,-8.39,-5.59,-8.39,8.36,8.43,6.48,2.78,2.77,2.81
25.65,-5.58,-8.39,-5.58,-8.39,8.37,8.37,6.64,2.80,2.79,2.81
25.91,-5.58,-8.38,-5.57,-8.37,8.36,8.31,6.80,2.78,2.79,2.80
26.16,-5.53,-8.32,-5.52,-8.32,8.32,8.25,6.96,2.79,2.79,2.80
26.43,-5.46,-8.26,-5.46,-8.26,8.25,8.19,7.12,2.79,2.78,2.80
26.69,-5.38,-8.18,-5.38,-8.18,8.16,8.13,7.28,2.78,2.78,2.80
26.96,-5.30,-8.10,-5.29,-8.09,8.06,8.07,7.43,2.76,2.77,2.80
27.23,-5.18,-7.98,-5.18,-7.98,7.97,8.01,7.59,2.79,2.79,2.80
27.50,-5.06,-7.86,-5.05,-7.85,7.87,7.95,7.74,2.81,2.82,2.80
27.77,-4.93,-7.71,-4.93,-7.72,7.78,7.88,7.88,2.86,2.85,2.79
28.05,-4.83,-7.62,-4.85,-7.63,7.70,7.82,8.02,2.87,2.86,2.79
28.33,-4.80,-7.58,-4.80,-7.58,7.62,7.76,8.15,2.82,2.82,2.78
28.62,-4.77,-7.55,-4.77,-7.55,7.54,7.69,8.27,2.77,2.77,2.78
28.90,-4.75,-7.54,-4.73,-7.51,7.45,7.63,8.39,2.71,2.73,2.79
29.19,-4.65,-7.43,-4.64,-7.42,7.36,7.56,8.49,2.71,2.72,2.78
29.48,-4.51,-7.29,-4.52,-7.30,7.25,7.50,8.59,2.74,2.73,2.79
29.78,-4.37,-7.15,-4.37,-7.15,7.13,7.43,8.67,2.76,2.76,2.78
30.08,-4.22,-7.01,-4.22,-7.00,6.99,7.36,8.73,2.77,2.77,2.79
30.38,-4.07,-6.85,-4.06,-6.84,6.85,7.30,8.79,2.78,2.79,2.78
30.68,-3.91,-6.69,-3.91,-6.69,6.71,7.23,8.83,2.80,2.80,2.78
30.99,-3.76,-6.54,-3.78,-6.56,6.59,7.16,8.85,2.83,2.80,2.78
31.30,-3.70,-6.47,-3.69,-6.46,6.49,7.10,8.86,2.79,2.81,2.77
31.61,-3.64,-6.41,-3.62,-6.39,6.43,7.03,8.85,2.79,2.80,2.77
31.93,-3.58,-6.35,-3.60,-6.36,6.40,6.96,8.83,2.82,2.80,2.77
32.24,-3.60,-6.36,-3.60,-6.36,6.41,6.89,8.80,2.81,2.81,2.76
32.57,-3.64,-6.40,-3.63,-6.39,6.43,6.83,8.75,2.79,2.80,2.76
32.89,-3.68,-6.44,-3.68,-6.43,6.45,6.76,8.69,2.77,2.77,2.76
33.22,-3.73,-6.48,-3.74,-6.49,6.46,6.69,8.61,2.73,2.72,2.75
33.55,-3.78,-6.53,-3.80,-6.54,6.45,6.63,8.53,2.67,2.65,2.75
33.89,-3.84,-6.58,-3.80,-6.54,6.41,6.56,8.43,2.57,2.62,2.74
34.23,-3.74,-6.48,-3.71,-6.44,6.36,6.50,8.33,2.62,2.65,2.74
34.57,-3.55,-6.28,-3.56,-6.29,6.28,6.43,8.22,2.73,2.72,2.73
34.92,-3.36,-6.09,-3.40,-6.13,6.19,6.36,8.10,2.83,2.79,2.73
35.27,-3.29,-6.01,-3.29,-6.01,6.09,6.30,7.98,2.81,2.80,2.72
35.62,-3.25,-5.97,-3.24,-5.96,6.01,6.24,7.85,2.76,2.77,2.72
35.97,-3.21,-5.93,-3.21,-5.92,5.95,6.17,7.72,2.74,2.74,2.72
36.33,-3.18,-5.90,-3.17,-5.88,5.91,6.11,7.58,2.73,2.74,2.72
36.70,-3.14,-5.85,-3.14,-5.85,5.89,6.04,7.44,2.75,2.75,2.71
37.06,-3.12,-5.83,-3.15,-5.86,5.88,5.98,7.31,2.76,2.73,2.71
37.43,-3.18,-5.90,-3.18,-5.90,5.86,5.92,7.17,2.68,2.68,2.72
37.81,-3.23,-5.95,-3.20,-5.91,5.83,5.86,7.03,2.61,2.63,2.72
38.19,-3.19,-5.90,-3.16,-5.88,5.79,5.80,6.90,2.60,2.63,2.71
38.57,-3.05,-5.77,-3.06,-5.77,5.74,5.73,6.76,2.69,2.68,2.72
38.95,-2.91,-5.63,-2.93,-5.65,5.67,5.67,6.63,2.76,2.74,2.73
39.34,-2.83,-5.54,-2.83,-5.55,5.59,5.62,6.50,2.76,2.77,2.72
39.74,-2.76,-5.48,-2.75,-5.47,5.50,5.56,6.37,2.74,2.75,2.72
40.14,-2.70,-5.42,-2.70,-5.42,5.42,5.50,6.25,2.73,2.72,2.72
40.54,-2.66,-5.38,-2.66,-5.37,5.37,5.44,6.12,2.71,2.71,2.72
40.94,-2.62,-5.33,-2.60,-5.32,5.34,5.38,6.00,2.73,2.74,2.71
41.35,-2.57,-5.28,-2.56,-5.27,5.34,5.33,5.89,2.77,2.78,2.71
41.76,-2.53,-5.23,-2.55,-5.25,5.33,5.27,5.78,2.80,2.78,2.70
42.18,-2.57,-5.27,-2.61,-5.31,5.31,5.22,5.67,2.75,2.70,2.70
42.60,-2.69,-5.38,-2.69,-5.38,5.29,5.17,5.56,2.60,2.60,2.69
43.03,-2.80,-5.48,-2.70,-5.38,5.24,5.11,5.46,2.45,2.55,2.68
43.46,-2.62,-5.29,-2.63,-5.29,5.19,5.06,5.37,2.57,2.56,2.67
43.90,-2.45,-5.10,-2.50,-5.15,5.13,5.01,5.27,2.68,2.63,2.65
44.33,-2.38,-5.01,-2.38,-5.01,5.08,4.96,5.19,2.70,2.70,2.63
44.78,-2.34,-4.95,-2.32,-4.93,5.03,4.91,5.10,2.69,2.71,2.61
45.23,-2.29,-4.89,-2.27,-4.87,4.97,4.86,5.02,2.69,2.70,2.60
45.68,-2.25,-4.84,-2.26,-4.84,4.92,4.82,4.94,2.67,2.66,2.59
46.13,-2.25,-4.82,-2.31,-4.88,4.88,4.77,4.87,2.63,2.57,2.57
46.60,-2.38,-4.94,-2.37,-4.93,4.84,4.72,4.80,2.46,2.47,2.57
47.06,-2.47,-5.02,-2.37,-4.92,4.80,4.68,4.73,2.34,2.43,2.55
47.53,-2.29,-4.82,-2.30,-4.84,4.75,4.64,4.67,2.47,2.46,2.54
48.01,-2.11,-4.65,-2.17,-4.70,4.69,4.59,4.61,2.58,2.52,2.54
48.49,-2.06,-4.58,-2.05,-4.57,4.63,4.55,4.55,2.58,2.58,2.52
48.97,-2.01,-4.51,-2.00,-4.49,4.57,4.51,4.50,2.56,2.57,2.50
49.46,-1.97,-4.45,-1.96,-4.44,4.49,4.47,4.44,2.52,2.53,2.48
49.96,-1.92,-4.38,-1.93,-4.39,4.41,4.43,4.40,2.49,2.49,2.46
50.46,-1.91,-4.36,-1.91,-4.35,4.34,4.40,4.35,2.43,2.43,2.45
50.96,-1.90,-4.34,-1.92,-4.36,4.29,4.36,4.31,2.39,2.36,2.44
51.47,-1.91,-4.33,-1.92,-4.34,4.25,4.32,4.27,2.34,2.34,2.42
51.99,-1.92,-4.33,-1.80,-4.21,4.22,4.29,4.23,2.30,2.42,2.41
52.51,-1.69,-4.09,-1.69,-4.09,4.18,4.25,4.19,2.49,2.48,2.40
53.03,-1.49,-3.89,-1.68,-4.07,4.14,4.22,4.16,2.65,2.46,2.40
53.56,-1.75,-4.13,-1.71,-4.09,4.10,4.19,4.12,2.36,2.39,2.38
54.10,-1.93,-4.29,-1.76,-4.13,4.08,4.16,4.09,2.15,2.31,2.37
54.64,-1.73,-4.08,-1.76,-4.11,4.06,4.13,4.06,2.33,2.30,2.35
55.18,-1.60,-3.95,-1.66,-4.00,4.04,4.10,4.02,2.45,2.39,2.35
55.74,-1.60,-3.93,-1.63,-3.96,4.02,4.07,3.99,2.42,2.40,2.33
56.29,-1.67,-3.99,-1.69,-4.01,3.98,4.04,3.96,2.31,2.29,2.32
56.86,-1.81,-4.11,-1.71,-4.01,3.93,4.01,3.93,2.12,2.22,2.31
57.42,-1.70,-3.97,-1.67,-3.96,3.87,3.98,3.90,2.18,2.20,2.28
58.00,-1.50,-3.77,-1.59,-3.86,3.83,3.95,3.87,2.33,2.24,2.27
58.58,-1.50,-3.76,-1.46,-3.72,3.80,3.92,3.84,2.30,2.34,2.26
59.16,-1.46,-3.69,-1.38,-3.62,3.77,3.90,3.80,2.32,2.39,2.24
59.76,-1.33,-3.55,-1.45,-3.66,3.73,3.87,3.77,2.40,2.29,2.22
60.35,-1.46,-3.64,-1.53,-3.71,3.69,3.84,3.73,2.23,2.16,2.18
60.96,-1.78,-3.91,-1.60,-3.74,3.65,3.82,3.69,1.87,2.05,2.14
61.57,-1.63,-3.73,-1.63,-3.73,3.62,3.79,3.65,1.99,1.99,2.10
62.18,-1.50,-3.56,-1.58,-3.63,3.59,3.76,3.61,2.09,2.01,2.06
62.80,-1.50,-3.51,-1.49,-3.50,3.55,3.73,3.56,2.06,2.06,2.01
63.43,-1.50,-3.47,-1.49,-3.45,3.50,3.70,3.52,2.00,2.02,1.97
64.07,-1.50,-3.42,-1.50,-3.42,3.43,3.67,3.47,1.94,1.94,1.92
64.71,-1.50,-3.38,-1.50,-3.38,3.37,3.64,3.42,1.87,1.87,1.88
65.35,-1.50,-3.34,-1.50,-3.33,3.32,3.61,3.37,1.82,1.82,1.84
66.01,-1.50,-3.29,-1.50,-3.29,3.28,3.58,3.31,1.79,1.79,1.79
66.67,-1.50,-3.24,-1.48,-3.22,3.27,3.55,3.26,1.77,1.78,1.74
67.33,-1.50,-3.19,-1.50,-3.19,3.25,3.51,3.20,1.75,1.75,1.69
68.01,-1.50,-3.15,-1.56,-3.21,3.22,3.48,3.14,1.72,1.66,1.65
68.69,-1.67,-3.27,-1.63,-3.23,3.19,3.44,3.08,1.52,1.56,1.60
69.37,-1.72,-3.27,-1.68,-3.22,3.15,3.40,3.02,1.43,1.48,1.55
70.07,-1.67,-3.17,-1.68,-3.18,3.12,3.37,2.96,1.45,1.44,1.50
70.77,-1.62,-3.07,-1.63,-3.08,3.09,3.32,2.90,1.47,1.45,1.45
71.48,-1.60,-3.00,-1.59,-2.99,3.05,3.28,2.83,1.45,1.45,1.40
72.19,-1.60,-2.93,-1.59,-2.93,2.99,3.24,2.77,1.40,1.40,1.33
72.91,-1.60,-2.87,-1.63,-2.90,2.92,3.19,2.70,1.33,1.30,1.27
73.64,-1.68,-2.90,-1.68,-2.89,2.85,3.15,2.64,1.17,1.17,1.22
74.38,-1.72,-2.88,-1.69,-2.84,2.77,3.10,2.58,1.06,1.09,1.16
75.12,-1.70,-2.79,-1.65,-2.75,2.70,3.05,2.51,1.00,1.05,1.10
75.87,-1.53,-2.57,-1.58,-2.62,2.63,2.99,2.45,1.10,1.05,1.04
76.63,-1.50,-2.49,-1.51,-2.50,2.55,2.94,2.38,1.05,1.03,0.99
77.40,-1.50,-2.44,-1.48,-2.42,2.46,2.89,2.32,0.96,0.97,0.94
78.17,-1.50,-2.38,-1.50,-2.39,2.37,2.83,2.26,0.87,0.87,0.88
78.95,-1.50,-2.34,-1.49,-2.33,2.30,2.77,2.20,0.80,0.81,0.84
79.74,-1.50,-2.28,-1.45,-2.24,2.24,2.71,2.14,0.74,0.79,0.79
80.54,-1.40,-2.14,-1.43,-2.17,2.20,2.65,2.08,0.80,0.76,0.74
81.35,-1.40,-2.09,-1.46,-2.15,2.17,2.59,2.02,0.78,0.72,0.69
82.16,-1.56,-2.20,-1.50,-2.14,2.16,2.53,1.96,0.61,0.67,0.64
82.98,-1.60,-2.20,-1.59,-2.18,2.17,2.46,1.90,0.57,0.58,0.60
83.81,-1.61,-2.16,-1.65,-2.20,2.18,2.40,1.84,0.58,0.53,0.55
84.65,-1.73,-2.23,-1.67,-2.17,2.21,2.34,1.79,0.48,0.54,0.50
85.50,-1.73,-2.19,-1.75,-2.20,2.24,2.27,1.74,0.52,0.50,0.46
86.35,-1.78,-2.19,-1.87,-2.27,2.27,2.20,1.68,0.49,0.40,0.41
87.22,-2.03,-2.38,-1.95,-2.31,2.28,2.14,1.63,0.26,0.33,0.36
88.09,-2.08,-2.39,-2.03,-2.33,2.27,2.07,1.58,0.20,0.25,0.31
88.97,-2.00,-2.25,-2.05,-2.30,2.24,2.00,1.53,0.24,0.20,0.25
89.86,-2.00,-2.20,-2.01,-2.21,2.19,1.94,1.48,0.19,0.18,0.20
90.76,-2.00,-2.15,-2.00,-2.15,2.12,1.87,1.44,0.13,0.12,0.15
91.66,-2.00,-2.10,-1.97,-2.07,2.05,1.80,1.39,0.05,0.08,0.10
92.58,-1.94,-1.98,-1.90,-1.94,1.97,1.74,1.35,0.03,0.07,0.04
93.51,-1.80,-1.79,-1.85,-1.84,1.90,1.67,1.30,0.10,0.05,-0.01
94.44,-1.79,-1.74,-1.82,-1.76,1.84,1.61,1.26,0.05,0.02,-0.05
95.39,-1.88,-1.78,-1.83,-1.73,1.79,1.54,1.22,-0.09,-0.04,-0.10
96.34,-1.90,-1.75,-1.90,-1.74,1.75,1.47,1.18,-0.14,-0.14,-0.15
97.30,-1.93,-1.73,-1.97,-1.77,1.72,1.41,1.14,-0.21,-0.25,-0.20
98.28,-2.02,-1.77,-1.99,-1.74,1.69,1.35,1.10,-0.33,-0.30,-0.25
99.26,-2.06,-1.77,-1.98,-1.68,1.65,1.28,1.06,-0.41,-0.33,-0.29
100.25,-1.89,-1.55,-1.97,-1.63,1.60,1.22,1.02,-0.29,-0.38,-0.34
101.25,-1.91,-1.52,-1.95,-1.55,1.54,1.16,0.98,-0.37,-0.41,-0.39
102.27,-2.01,-1.57,-1.91,-1.47,1.48,1.10,0.95,-0.53,-0.43,-0.44
103.29,-1.88,-1.39,-1.89,-1.40,1.41,1.04,0.91,-0.46,-0.48,-0.49
104.32,-1.81,-1.28,-1.85,-1.32,1.36,0.98,0.88,-0.45,-0.49,-0.53
105.37,-1.83,-1.25,-1.81,-1.23,1.31,0.92,0.84,-0.51,-0.50,-0.58
106.42,-1.86,-1.23,-1.85,-1.22,1.27,0.86,0.81,-0.59,-0.59,-0.63
107.48,-1.90,-1.21,-1.94,-1.25,1.22,0.80,0.77,-0.68,-0.72,-0.69
108.56,-2.01,-1.27,-1.99,-1.25,1.17,0.75,0.74,-0.84,-0.82,-0.74
109.64,-2.07,-1.27,-1.99,-1.19,1.13,0.69,0.71,-0.94,-0.86,-0.79
110.74,-1.91,-1.06,-1.95,-1.11,1.08,0.64,0.68,-0.83,-0.87,-0.85
111.85,-1.86,-0.97,-1.89,-0.99,1.03,0.58,0.65,-0.83,-0.87,-0.89
112.97,-1.87,-0.92,-1.85,-0.91,0.96,0.53,0.61,-0.91,-0.89,-0.95
114.10,-1.88,-0.88,-1.87,-0.87,0.88,0.48,0.58,-0.99,-0.99,-1.00
115.24,-1.88,-0.83,-1.89,-0.84,0.81,0.43,0.55,-1.07,-1.08,-1.05
116.39,-1.88,-0.78,-1.86,-0.76,0.74,0.38,0.52,-1.14,-1.12,-1.10
117.55,-1.86,-0.72,-1.79,-0.65,0.68,0.33,0.49,-1.18,-1.12,-1.14
118.73,-1.69,-0.51,-1.78,-0.60,0.61,0.28,0.46,-1.07,-1.16,-1.18
119.92,-1.71,-0.50,-1.77,-0.55,0.55,0.23,0.43,-1.15,-1.21,-1.21
121.12,-1.89,-0.64,-1.75,-0.50,0.49,0.18,0.40,-1.40,-1.26,-1.25
122.33,-1.73,-0.45,-1.74,-0.46,0.42,0.14,0.37,-1.31,-1.32,-1.28
123.55,-1.64,-0.33,-1.69,-0.38,0.36,0.09,0.34,-1.28,-1.33,-1.31
124.79,-1.63,-0.29,-1.62,-0.28,0.32,0.05,0.31,-1.31,-1.31,-1.34
126.03,-1.63,-0.26,-1.62,-0.25,0.28,0.00,0.28,-1.35,-1.33,-1.37
127.29,-1.62,-0.23,-1.62,-0.22,0.25,-0.04,0.25,-1.37,-1.37,-1.39
128.57,-1.61,-0.18,-1.60,-0.17,0.21,-0.08,0.22,-1.39,-1.39,-1.43
129.85,-1.61,-0.15,-1.61,-0.15,0.16,-0.12,0.19,-1.44,-1.44,-1.46
131.15,-1.61,-0.12,-1.66,-0.16,0.11,-0.17,0.16,-1.50,-1.55,-1.49
132.46,-1.69,-0.17,-1.67,-0.15,0.05,-0.21,0.13,-1.64,-1.62,-1.52
133.79,-1.71,-0.16,-1.62,-0.07,-0.02,-0.25,0.10,-1.72,-1.64,-1.55
135.12,-1.48,0.10,-1.50,0.08,-0.09,-0.29,0.07,-1.57,-1.59,-1.58
136.48,-1.32,0.28,-1.36,0.25,-0.18,-0.32,0.04,-1.49,-1.54,-1.60
137.84,-1.26,0.38,-1.31,0.33,-0.25,-0.36,0.01,-1.51,-1.56,-1.64
139.22,-1.33,0.34,-1.30,0.37,-0.33,-0.40,-0.03,-1.66,-1.63,-1.67
140.61,-1.38,0.32,-1.28,0.42,-0.40,-0.44,-0.06,-1.78,-1.68,-1.70
142.02,-1.21,0.51,-1.27,0.45,-0.46,-0.47,-0.09,-1.67,-1.73,-1.72
143.44,-1.18,0.57,-1.26,0.49,-0.51,-0.51,-0.12,-1.69,-1.77,-1.75
144.87,-1.34,0.45,-1.25,0.54,-0.55,-0.55,-0.16,-1.89,-1.81,-1.79
146.32,-1.30,0.53,-1.27,0.56,-0.60,-0.58,-0.19,-1.90,-1.86,-1.83
147.78,-1.20,0.66,-1.24,0.63,-0.65,-0.62,-0.22,-1.85,-1.90,-1.86
149.26,-1.18,0.73,-1.19,0.73,-0.72,-0.65,-0.26,-1.90,-1.91,-1.91
150.75,-1.18,0.79,-1.17,0.80,-0.80,-0.69,-0.29,-1.97,-1.96,-1.97
152.26,-1.18,0.86,-1.18,0.86,-0.87,-0.72,-0.33,-2.05,-2.05,-2.04
153.78,-1.18,0.93,-1.17,0.94,-0.95,-0.75,-0.37,-2.13,-2.12,-2.11
155.32,-1.18,1.00,-1.18,1.01,-1.01,-0.79,-0.40,-2.19,-2.19,-2.18
156.88,-1.18,1.08,-1.18,1.08,-1.05,-0.82,-0.44,-2.23,-2.24,-2.26
158.44,-1.22,1.12,-1.21,1.13,-1.08,-0.86,-0.48,-2.30,-2.29,-2.34
160.03,-1.25,1.17,-1.26,1.16,-1.10,-0.89,-0.52,-2.34,-2.36,-2.42
161.63,-1.35,1.14,-1.34,1.15,-1.11,-0.93,-0.55,-2.46,-2.45,-2.49
163.24,-1.44,1.11,-1.45,1.10,-1.12,-0.96,-0.59,-2.56,-2.57,-2.55
164.88,-1.54,1.06,-1.55,1.06,-1.13,-1.00,-0.63,-2.67,-2.68,-2.60
166.53,-1.62,1.03,-1.55,1.10,-1.15,-1.03,-0.68,-2.77,-2.71,-2.65
168.19,-1.55,1.14,-1.54,1.16,-1.19,-1.07,-0.72,-2.74,-2.73,-2.69
169.87,-1.40,1.33,-1.50,1.23,-1.24,-1.10,-0.76,-2.63,-2.73,-2.73
171.57,-1.50,1.25,-1.44,1.31,-1.30,-1.14,-0.80,-2.79,-2.74,-2.75
173.29,-1.42,1.34,-1.39,1.37,-1.36,-1.18,-0.85,-2.78,-2.76,-2.76
175.02,-1.32,1.45,-1.34,1.44,-1.43,-1.22,-0.89,-2.75,-2.77,-2.77
176.77,-1.24,1.54,-1.24,1.55,-1.50,-1.26,-0.94,-2.73,-2.73,-2.78
178.54,-1.18,1.61,-1.18,1.60,-1.55,-1.30,-0.98,-2.73,-2.74,-2.79
180.32,-1.14,1.64,-1.18,1.61,-1.61,-1.35,-1.03,-2.75,-2.79,-2.78
182.13,-1.18,1.59,-1.16,1.62,-1.66,-1.39,-1.08,-2.84,-2.82,-2.77
183.95,-1.18,1.60,-1.11,1.66,-1.71,-1.44,-1.13,-2.89,-2.82,-2.78
185.79,-1.01,1.77,-1.06,1.73,-1.75,-1.49,-1.18,-2.76,-2.81,-2.78
187.65,-0.97,1.83,-0.99,1.81,-1.79,-1.54,-1.23,-2.76,-2.78,-2.80
189.52,-0.96,1.85,-0.94,1.87,-1.82,-1.60,-1.28,-2.78,-2.77,-2.81
191.42,-0.95,1.88,-0.94,1.89,-1.86,-1.66,-1.33,-2.81,-2.80,-2.83
193.33,-0.93,1.92,-0.93,1.92,-1.91,-1.72,-1.38,-2.83,-2.84,-2.85
195.27,-0.92,1.95,-0.94,1.93,-1.95,-1.79,-1.44,-2.87,-2.89,-2.87
197.22,-0.94,1.95,-0.93,1.96,-1.99,-1.86,-1.49,-2.93,-2.93,-2.89
199.19,-0.95,1.96,-0.91,2.01,-2.04,-1.93,-1.54,-2.99,-2.95,-2.91
201.18,-0.85,2.08,-0.86,2.07,-2.09,-2.01,-1.60,-2.94,-2.95,-2.93
203.19,-0.78,2.17,-0.81,2.14,-2.14,-2.09,-1.65,-2.92,-2.95,-2.95
205.23,-0.78,2.19,-0.75,2.21,-2.19,-2.17,-1.70,-2.97,-2.95,-2.97
207.28,-0.74,2.24,-0.71,2.28,-2.25,-2.25,-1.76,-2.99,-2.96,-2.98
209.35,-0.64,2.36,-0.67,2.33,-2.31,-2.33,-1.81,-2.95,-2.98,-3.00
211.44,-0.64,2.39,-0.66,2.36,-2.37,-2.41,-1.86,-3.01,-3.03,-3.03
213.56,-0.67,2.37,-0.65,2.39,-2.41,-2.48,-1.91,-3.08,-3.07,-3.04
215.69,-0.69,2.36,-0.63,2.42,-2.45,-2.55,-1.97,-3.14,-3.08,-3.05
217.85,-0.56,2.50,-0.58,2.48,-2.48,-2.60,-2.01,-3.03,-3.06,-3.06
220.03,-0.51,2.56,-0.55,2.53,-2.49,-2.63,-2.06,-3.00,-3.04,-3.07
222.23,-0.56,2.54,-0.55,2.54,-2.50,-2.65,-2.11,-3.06,-3.05,-3.10
224.45,-0.60,2.49,-0.58,2.52,-2.51,-2.66,-2.15,-3.11,-3.09,-3.09
226.70,-0.60,2.49,-0.60,2.49,-2.51,-2.64,-2.20,-3.11,-3.11,-3.09
228.96,-0.59,2.49,-0.60,2.49,-2.51,-2.61,-2.24,-3.10,-3.11,-3.08
231.25,-0.59,2.48,-0.58,2.49,-2.51,-2.58,-2.27,-3.10,-3.09,-3.07
233.57,-0.58,2.48,-0.57,2.49,-2.50,-2.53,-2.31,-3.08,-3.07,-3.06
235.90,-0.56,2.49,-0.56,2.49,-2.49,-2.48,-2.34,-3.04,-3.05,-3.05
238.26,-0.55,2.49,-0.55,2.49,-2.47,-2.42,-2.37,-3.02,-3.02,-3.04
240.64,-0.53,2.48,-0.53,2.48,-2.46,-2.36,-2.39,-2.99,-2.99,-3.01
243.05,-0.52,2.46,-0.51,2.48,-2.45,-2.31,-2.41,-2.97,-2.96,-2.98
245.48,-0.50,2.46,-0.49,2.46,-2.45,-2.26,-2.43,-2.95,-2.94,-2.96
247.93,-0.47,2.46,-0.52,2.42,-2.45,-2.21,-2.45,-2.92,-2.97,-2.93
250.41,-0.53,2.38,-0.51,2.40,-2.46,-2.16,-2.46,-2.99,-2.97,-2.91
252.92,-0.54,2.34,-0.47,2.42,-2.48,-2.12,-2.46,-3.01,-2.94,-2.88
255.45,-0.36,2.50,-0.41,2.46,-2.48,-2.08,-2.46,-2.84,-2.89,-2.86
258.00,-0.31,2.53,-0.34,2.50,-2.48,-2.05,-2.46,-2.78,-2.82,-2.84
260.58,-0.31,2.51,-0.27,2.55,-2.46,-2.02,-2.46,-2.77,-2.73,-2.82
263.19,-0.30,2.49,-0.28,2.52,-2.43,-1.99,-2.45,-2.73,-2.71,-2.79
265.82,-0.24,2.53,-0.33,2.44,-2.40,-1.96,-2.44,-2.64,-2.73,-2.77
268.48,-0.44,2.31,-0.41,2.34,-2.35,-1.94,-2.42,-2.79,-2.76,-2.75
271.16,-0.54,2.18,-0.48,2.24,-2.30,-1.93,-2.40,-2.83,-2.78,-2.72
273.87,-0.52,2.18,-0.54,2.16,-2.24,-1.91,-2.38,-2.76,-2.78,-2.70
276.61,-0.52,2.15,-0.53,2.14,-2.18,-1.89,-2.36,-2.70,-2.71,-2.67
279.38,-0.52,2.12,-0.52,2.13,-2.14,-1.88,-2.34,-2.65,-2.65,-2.64
282.17,-0.52,2.10,-0.51,2.10,-2.10,-1.87,-2.31,-2.62,-2.61,-2.62
284.99,-0.51,2.07,-0.50,2.08,-2.07,-1.86,-2.28,-2.58,-2.57,-2.58
287.84,-0.50,2.06,-0.50,2.06,-2.04,-1.85,-2.25,-2.54,-2.53,-2.56
290.72,-0.49,2.04,-0.50,2.03,-2.00,-1.85,-2.22,-2.49,-2.50,-2.53
293.63,-0.53,1.97,-0.53,1.98,-1.96,-1.84,-2.19,-2.49,-2.49,-2.50
296.57,-0.56,1.91,-0.57,1.90,-1.90,-1.84,-2.15,-2.46,-2.47,-2.47
299.53,-0.64,1.80,-0.61,1.83,-1.84,-1.83,-2.12,-2.48,-2.45,-2.44
302.53,-0.65,1.77,-0.65,1.77,-1.77,-1.83,-2.09,-2.42,-2.42,-2.42
305.55,-0.67,1.71,-0.68,1.70,-1.71,-1.83,-2.05,-2.38,-2.40,-2.38
308.61,-0.72,1.64,-0.72,1.64,-1.65,-1.83,-2.02,-2.37,-2.37,-2.36
311.69,-0.78,1.55,-0.77,1.57,-1.59,-1.83,-1.99,-2.37,-2.36,-2.33
314.81,-0.81,1.50,-0.79,1.52,-1.53,-1.83,-1.96,-2.34,-2.33,-2.31
317.96,-0.81,1.48,-0.81,1.48,-1.47,-1.83,-1.92,-2.28,-2.29,-2.29
321.14,-0.82,1.46,-0.84,1.44,-1.41,-1.83,-1.89,-2.23,-2.25,-2.28
324.35,-0.90,1.36,-0.88,1.38,-1.34,-1.83,-1.86,-2.24,-2.22,-2.26
327.59,-0.95,1.30,-0.95,1.30,-1.28,-1.83,-1.83,-2.23,-2.23,-2.25
330.87,-1.01,1.23,-1.02,1.22,-1.22,-1.83,-1.80,-2.23,-2.24,-2.24
334.18,-1.10,1.12,-1.09,1.13,-1.17,-1.83,-1.78,-2.26,-2.26,-2.22
337.52,-1.15,1.06,-1.15,1.06,-1.11,-1.83,-1.75,-2.26,-2.27,-2.21
340.90,-1.21,0.99,-1.18,1.02,-1.06,-1.84,-1.73,-2.27,-2.24,-2.20
344.30,-1.19,1.00,-1.18,1.01,-1.01,-1.84,-1.70,-2.20,-2.19,-2.19
347.75,-1.16,1.03,-1.18,1.01,-0.96,-1.84,-1.68,-2.12,-2.14,-2.19
351.23,-1.19,0.99,-1.21,0.97,-0.93,-1.84,-1.66,-2.11,-2.14,-2.18
354.74,-1.28,0.91,-1.28,0.90,-0.89,-1.85,-1.64,-2.17,-2.17,-2.19
358.28,-1.39,0.79,-1.34,0.84,-0.86,-1.85,-1.62,-2.24,-2.20,-2.18
361.87,-1.39,0.79,-1.39,0.79,-0.82,-1.85,-1.60,-2.21,-2.21,-2.18
365.49,-1.37,0.80,-1.42,0.75,-0.78,-1.86,-1.59,-2.15,-2.21,-2.17
369.14,-1.47,0.71,-1.43,0.75,-0.74,-1.86,-1.57,-2.21,-2.18,-2.18
372.83,-1.49,0.69,-1.46,0.72,-0.71,-1.86,-1.56,-2.20,-2.17,-2.18
376.56,-1.46,0.73,-1.50,0.68,-0.68,-1.87,-1.54,-2.14,-2.18,-2.19
380.33,-1.53,0.65,-1.52,0.67,-0.65,-1.87,-1.53,-2.18,-2.17,-2.18
384.13,-1.57,0.61,-1.55,0.64,-0.62,-1.87,-1.52,-2.19,-2.17,-2.18
387.97,-1.57,0.62,-1.59,0.60,-0.60,-1.88,-1.51,-2.17,-2.19,-2.19
391.85,-1.62,0.58,-1.61,0.58,-0.58,-1.88,-1.51,-2.20,-2.20,-2.20
395.77,-1.65,0.54,-1.64,0.55,-0.57,-1.88,-1.50,-2.22,-2.22,-2.19
399.73,-1.66,0.54,-1.66,0.54,-0.57,-1.89,-1.50,-2.23,-2.24,-2.20
403.72,-1.67,0.53,-1.65,0.56,-0.58,-1.89,-1.49,-2.25,-2.23,-2.20
407.76,-1.63,0.59,-1.62,0.59,-0.59,-1.90,-1.49,-2.22,-2.21,-2.22
411.84,-1.58,0.64,-1.60,0.63,-0.60,-1.90,-1.49,-2.18,-2.20,-2.22
415.96,-1.57,0.65,-1.57,0.66,-0.62,-1.90,-1.48,-2.19,-2.19,-2.22
420.12,-1.57,0.65,-1.56,0.67,-0.64,-1.91,-1.48,-2.21,-2.20,-2.22
424.32,-1.55,0.67,-1.55,0.67,-0.66,-1.91,-1.48,-2.21,-2.21,-2.22
428.56,-1.54,0.67,-1.55,0.67,-0.68,-1.92,-1.48,-2.22,-2.23,-2.21
432.85,-1.53,0.67,-1.52,0.68,-0.71,-1.92,-1.48,-2.23,-2.22,-2.20
437.18,-1.49,0.70,-1.47,0.71,-0.73,-1.92,-1.49,-2.22,-2.20,-2.19
441.55,-1.40,0.75,-1.42,0.74,-0.76,-1.93,-1.49,-2.16,-2.18,-2.15
445.96,-1.33,0.79,-1.34,0.79,-0.79,-1.93,-1.49,-2.12,-2.13,-2.12
450.42,-1.28,0.81,-1.24,0.84,-0.83,-1.94,-1.49,-2.11,-2.07,-2.09
454.93,-1.14,0.90,-1.16,0.89,-0.87,-1.94,-1.49,-2.00,-2.02,-2.04
459.48,-1.06,0.94,-1.07,0.93,-0.90,-1.94,-1.50,-1.96,-1.97,-2.00
464.07,-1.00,0.95,-1.00,0.95,-0.94,-1.95,-1.50,-1.93,-1.93,-1.95
468.71,-0.95,0.94,-0.93,0.97,-0.97,-1.95,-1.50,-1.92,-1.90,-1.89
