frequency,raw,error,smoothed,error_smoothed,equalization,parametric_eq,fixed_band_eq,equalized_raw,equalized_smoothed,target
20.00,-8.53,-13.07,-8.53,-13.10,13.10,13.16,5.17,4.57,4.57,4.55
20.20,-8.45,-13.03,-8.45,-13.05,13.05,13.08,5.29,4.60,4.60,4.59
20.40,-8.37,-12.99,-8.37,-13.00,13.00,13.01,5.43,4.63,4.63,4.63
20.61,-8.29,-12.94,-8.29,-12.95,12.95,12.93,5.56,4.66,4.66,4.65
20.81,-8.21,-12.90,-8.21,-12.89,12.89,12.86,5.70,4.69,4.68,4.70
21.02,-8.13,-12.86,-8.13,-12.84,12.84,12.78,5.84,4.71,4.71,4.73
21.23,-8.05,-12.80,-8.05,-12.78,12.78,12.70,5.99,4.73,4.73,4.75
21.44,-7.97,-12.74,-7.96,-12.72,12.72,12.62,6.14,4.75,4.76,4.77
21.66,-7.88,-12.67,-7.88,-12.66,12.66,12.54,6.30,4.78,4.78,4.79
21.87,-7.80,-12.60,-7.80,-12.59,12.59,12.46,6.46,4.80,4.80,4.80
22.09,-7.72,-12.54,-7.72,-12.53,12.53,12.39,6.62,4.81,4.81,4.82
22.31,-7.64,-12.47,-7.63,-12.46,12.46,12.31,6.79,4.82,4.83,4.83
22.54,-7.55,-12.39,-7.55,-12.39,12.39,12.23,6.96,4.84,4.84,4.84
22.76,-7.46,-12.31,-7.46,-12.31,12.31,12.15,7.13,4.86,4.85,4.85
22.99,-7.38,-12.23,-7.38,-12.24,12.24,12.07,7.31,4.86,4.86,4.85
23.22,-7.30,-12.16,-7.29,-12.16,12.16,11.99,7.50,4.86,4.87,4.86
23.45,-7.21,-12.08,-7.21,-12.08,12.08,11.92,7.69,4.88,4.88,4.87
23.69,-7.12,-12.00,-7.12,-12.01,12.01,11.84,7.88,4.89,4.88,4.88
23.92,-7.03,-11.91,-7.04,-11.93,11.93,11.77,8.08,4.90,4.89,4.89
24.16,-6.95,-11.85,-6.95,-11.85,11.85,11.69,8.28,4.90,4.90,4.91
24.40,-6.86,-11.78,-6.86,-11.77,11.77,11.62,8.49,4.92,4.91,4.92
24.65,-6.77,-11.69,-6.77,-11.69,11.69,11.54,8.70,4.92,4.92,4.92
24.89,-6.70,-11.63,-6.68,-11.61,11.61,11.47,8.91,4.92,4.93,4.93
25.14,-6.61,-11.55,-6.59,-11.53,11.53,11.39,9.13,4.92,4.94,4.94
25.39,-6.51,-11.46,-6.50,-11.45,11.45,11.32,9.35,4.94,4.95,4.95
25.65,-6.40,-11.37,-6.41,-11.37,11.37,11.25,9.57,4.97,4.96,4.97
25.91,-6.32,-11.29,-6.31,-11.29,11.29,11.18,9.80,4.97,4.97,4.97
26.16,-6.23,-11.20,-6.22,-11.20,11.20,11.11,10.03,4.98,4.98,4.98
26.43,-6.13,-11.12,-6.13,-11.12,11.12,11.04,10.26,4.99,4.99,4.99
26.69,-6.03,-11.02,-6.04,-11.04,11.04,10.97,10.49,5.01,5.00,4.99
26.96,-5.94,-10.95,-5.94,-10.95,10.95,10.90,10.72,5.01,5.01,5.01
27.23,-5.85,-10.87,-5.85,-10.87,10.87,10.84,10.94,5.02,5.02,5.02
27.50,-5.76,-10.79,-5.76,-10.79,10.79,10.77,11.17,5.03,5.02,5.03
27.77,-5.67,-10.70,-5.67,-10.70,10.70,10.70,11.39,5.04,5.03,5.03
28.05,-5.59,-10.63,-5.59,-10.63,10.63,10.64,11.60,5.04,5.04,5.05
28.33,-5.50,-10.54,-5.50,-10.55,10.55,10.57,11.80,5.05,5.05,5.05
28.62,-5.42,-10.47,-5.42,-10.47,10.47,10.51,12.00,5.05,5.06,5.05
28.90,-5.34,-10.40,-5.33,-10.40,10.40,10.45,12.18,5.06,5.06,5.06
29.19,-5.25,-10.31,-5.25,-10.33,10.33,10.38,12.35,5.08,5.07,5.06
29.48,-5.17,-10.26,-5.18,-10.25,10.25,10.32,12.50,5.09,5.08,5.09
29.78,-5.10,-10.19,-5.10,-10.19,10.19,10.26,12.63,5.09,5.08,5.09
30.08,-5.03,-10.12,-5.03,-10.12,10.12,10.19,12.75,5.09,5.09,5.09
30.38,-4.96,-10.05,-4.95,-10.05,10.05,10.13,12.84,5.09,5.10,5.09
30.68,-4.88,-9.99,-4.88,-9.98,9.98,10.07,12.90,5.10,5.10,5.11
30.99,-4.81,-9.92,-4.81,-9.92,9.92,10.01,12.95,5.11,5.11,5.11
31.30,-4.74,-9.85,-4.74,-9.85,9.85,9.95,12.96,5.11,5.12,5.12
31.61,-4.67,-9.79,-4.67,-9.79,9.79,9.89,12.95,5.12,5.12,5.12
31.93,-4.60,-9.73,-4.60,-9.73,9.73,9.83,12.92,5.13,5.13,5.13
32.24,-4.55,-9.68,-4.54,-9.67,9.67,9.77,12.86,5.13,5.14,5.13
32.57,-4.48,-9.62,-4.47,-9.62,9.62,9.71,12.78,5.14,5.14,5.14
32.89,-4.40,-9.55,-4.41,-9.56,9.56,9.65,12.68,5.16,5.15,5.15
33.22,-4.34,-9.50,-4.35,-9.51,9.51,9.59,12.56,5.17,5.16,5.16
33.55,-4.28,-9.44,-4.29,-9.45,9.45,9.53,12.42,5.18,5.16,5.17
33.89,-4.24,-9.41,-4.23,-9.40,9.40,9.47,12.27,5.17,5.17,5.17
34.23,-4.18,-9.36,-4.18,-9.36,9.36,9.41,12.10,5.18,5.18,5.18
34.57,-4.13,-9.31,-4.13,-9.31,9.31,9.35,11.93,5.18,5.18,5.19
34.92,-4.08,-9.26,-4.08,-9.26,9.26,9.30,11.74,5.18,5.19,5.18
35.27,-4.03,-9.22,-4.03,-9.22,9.22,9.24,11.55,5.19,5.19,5.19
35.62,-3.97,-9.16,-3.98,-9.17,9.17,9.18,11.36,5.20,5.19,5.19
35.97,-3.93,-9.12,-3.93,-9.13,9.13,9.12,11.16,5.20,5.19,5.19
36.33,-3.89,-9.08,-3.89,-9.08,9.08,9.06,10.96,5.19,5.19,5.20
36.70,-3.85,-9.04,-3.84,-9.04,9.04,9.00,10.76,5.19,5.20,5.19
37.06,-3.80,-8.99,-3.79,-8.99,8.99,8.94,10.56,5.19,5.20,5.20
37.43,-3.75,-8.95,-3.75,-8.94,8.94,8.88,10.36,5.19,5.19,5.20
37.81,-3.70,-8.90,-3.70,-8.89,8.89,8.82,10.16,5.19,5.19,5.20
38.19,-3.65,-8.84,-3.65,-8.84,8.84,8.76,9.97,5.19,5.19,5.19
38.57,-3.61,-8.79,-3.60,-8.79,8.79,8.70,9.78,5.18,5.19,5.19
38.95,-3.57,-8.75,-3.56,-8.74,8.74,8.63,9.59,5.17,5.18,5.18
39.34,-3.52,-8.69,-3.51,-8.69,8.69,8.57,9.41,5.17,5.18,5.18
39.74,-3.46,-8.63,-3.46,-8.63,8.63,8.51,9.23,5.18,5.18,5.17
40.14,-3.40,-8.57,-3.41,-8.58,8.58,8.45,9.06,5.18,5.17,5.17
40.54,-3.35,-8.52,-3.35,-8.52,8.52,8.39,8.89,5.17,5.17,5.17
40.94,-3.30,-8.46,-3.30,-8.46,8.46,8.32,8.73,5.16,5.16,5.16
41.35,-3.24,-8.39,-3.24,-8.40,8.40,8.26,8.57,5.17,5.16,5.15
41.76,-3.19,-8.34,-3.19,-8.34,8.34,8.20,8.42,5.16,5.15,5.16
42.18,-3.14,-8.30,-3.13,-8.28,8.28,8.13,8.27,5.15,5.15,5.16
42.60,-3.08,-8.23,-3.08,-8.22,8.22,8.07,8.12,5.14,5.15,5.15
43.03,-3.03,-8.18,-3.02,-8.16,8.16,8.00,7.99,5.13,5.14,5.15
43.46,-2.96,-8.10,-2.96,-8.09,8.09,7.94,7.86,5.14,5.14,5.14
43.90,-2.90,-8.02,-2.90,-8.03,8.03,7.87,7.73,5.13,5.13,5.13
44.33,-2.83,-7.95,-2.84,-7.97,7.97,7.80,7.61,5.14,5.13,5.13
44.78,-2.78,-7.90,-2.78,-7.90,7.90,7.74,7.49,5.13,5.12,5.12
45.23,-2.73,-7.84,-2.72,-7.84,7.84,7.67,7.38,5.11,5.12,5.11
45.68,-2.67,-7.78,-2.66,-7.77,7.77,7.60,7.27,5.10,5.11,5.11
46.13,-2.60,-7.69,-2.60,-7.70,7.70,7.54,7.17,5.11,5.11,5.10
46.60,-2.53,-7.63,-2.54,-7.64,7.64,7.47,7.07,5.11,5.10,5.11
47.06,-2.47,-7.56,-2.48,-7.57,7.57,7.40,6.98,5.10,5.09,5.09
47.53,-2.42,-7.50,-2.42,-7.50,7.50,7.33,6.89,5.08,5.08,5.08
48.01,-2.37,-7.46,-2.36,-7.43,7.43,7.26,6.81,5.06,5.07,5.09
48.49,-2.30,-7.37,-2.30,-7.36,7.36,7.19,6.73,5.06,5.06,5.07
48.97,-2.24,-7.28,-2.25,-7.29,7.29,7.12,6.65,5.05,5.05,5.05
49.46,-2.18,-7.21,-2.19,-7.22,7.22,7.05,6.58,5.04,5.03,5.03
49.96,-2.13,-7.14,-2.13,-7.15,7.15,6.98,6.51,5.02,5.02,5.01
50.46,-2.08,-7.08,-2.07,-7.08,7.08,6.91,6.44,5.00,5.00,5.00
50.96,-2.03,-7.02,-2.02,-7.00,7.00,6.84,6.38,4.97,4.98,4.99
51.47,-1.96,-6.91,-1.96,-6.92,6.92,6.77,6.32,4.97,4.96,4.95
51.99,-1.90,-6.84,-1.90,-6.85,6.85,6.70,6.26,4.95,4.94,4.94
52.51,-1.85,-6.78,-1.84,-6.77,6.77,6.62,6.21,4.92,4.92,4.93
53.03,-1.79,-6.69,-1.78,-6.68,6.68,6.55,6.16,4.90,4.90,4.90
53.56,-1.73,-6.61,-1.72,-6.60,6.60,6.48,6.11,4.87,4.88,4.89
54.10,-1.67,-6.53,-1.66,-6.52,6.52,6.41,6.06,4.85,4.86,4.86
54.64,-1.60,-6.44,-1.60,-6.43,6.43,6.33,6.01,4.83,4.84,4.84
55.18,-1.53,-6.34,-1.53,-6.35,6.35,6.26,5.96,4.82,4.81,4.81
55.74,-1.47,-6.25,-1.47,-6.26,6.26,6.19,5.92,4.79,4.79,4.78
56.29,-1.41,-6.18,-1.41,-6.17,6.17,6.12,5.87,4.76,4.77,4.77
56.86,-1.35,-6.09,-1.34,-6.08,6.08,6.04,5.82,4.73,4.74,4.74
57.42,-1.28,-5.98,-1.28,-6.00,6.00,5.97,5.78,4.72,4.71,4.70
58.00,-1.21,-5.89,-1.22,-5.90,5.90,5.90,5.73,4.70,4.69,4.68
58.58,-1.15,-5.81,-1.16,-5.81,5.81,5.82,5.68,4.66,4.66,4.66
59.16,-1.09,-5.72,-1.09,-5.72,5.72,5.75,5.63,4.63,4.63,4.63
59.76,-1.04,-5.65,-1.03,-5.63,5.63,5.67,5.58,4.59,4.59,4.61
60.35,-0.98,-5.55,-0.97,-5.53,5.53,5.60,5.52,4.55,4.56,4.57
60.96,-0.92,-5.45,-0.91,-5.44,5.44,5.53,5.47,4.52,4.52,4.54
61.57,-0.86,-5.35,-0.86,-5.34,5.34,5.45,5.41,4.48,4.49,4.49
62.18,-0.81,-5.25,-0.80,-5.25,5.25,5.38,5.35,4.44,4.45,4.44
62.80,-0.76,-5.17,-0.74,-5.15,5.15,5.31,5.29,4.40,4.41,4.41
63.43,-0.70,-5.06,-0.69,-5.06,5.06,5.23,5.22,4.36,4.37,4.36
64.07,-0.64,-4.96,-0.65,-4.97,4.97,5.16,5.16,4.33,4.33,4.32
64.71,-0.59,-4.87,-0.60,-4.88,4.88,5.09,5.09,4.30,4.28,4.28
65.35,-0.55,-4.78,-0.56,-4.80,4.80,5.02,5.01,4.25,4.24,4.24
66.01,-0.50,-4.69,-0.52,-4.71,4.71,4.94,4.94,4.21,4.19,4.19
66.67,-0.47,-4.63,-0.48,-4.63,4.63,4.87,4.86,4.16,4.15,4.16
67.33,-0.43,-4.54,-0.45,-4.55,4.55,4.80,4.79,4.12,4.10,4.11
68.01,-0.41,-4.47,-0.41,-4.47,4.47,4.73,4.71,4.07,4.06,4.07
68.69,-0.39,-4.41,-0.38,-4.40,4.40,4.65,4.62,4.01,4.02,4.02
69.37,-0.37,-4.34,-0.36,-4.33,4.33,4.58,4.54,3.96,3.97,3.97
70.07,-0.35,-4.27,-0.33,-4.26,4.26,4.51,4.46,3.91,3.92,3.92
70.77,-0.32,-4.20,-0.30,-4.19,4.19,4.44,4.37,3.87,3.88,3.88
71.48,-0.29,-4.13,-0.28,-4.11,4.11,4.37,4.29,3.83,3.84,3.84
72.19,-0.26,-4.04,-0.25,-4.04,4.04,4.30,4.20,3.79,3.79,3.79
72.91,-0.23,-3.97,-0.23,-3.97,3.97,4.23,4.12,3.75,3.75,3.74
73.64,-0.21,-3.91,-0.20,-3.90,3.90,4.16,4.03,3.70,3.70,3.70
74.38,-0.18,-3.84,-0.17,-3.84,3.84,4.09,3.95,3.66,3.66,3.66
75.12,-0.15,-3.77,-0.15,-3.77,3.77,4.02,3.86,3.62,3.62,3.62
75.87,-0.13,-3.71,-0.12,-3.71,3.71,3.95,3.78,3.58,3.58,3.58
76.63,-0.10,-3.64,-0.10,-3.64,3.64,3.88,3.70,3.55,3.54,3.54
77.40,-0.07,-3.57,-0.08,-3.59,3.59,3.81,3.62,3.52,3.51,3.50
78.17,-0.04,-3.50,-0.06,-3.53,3.53,3.74,3.54,3.49,3.47,3.46
78.95,-0.03,-3.46,-0.05,-3.48,3.48,3.68,3.46,3.45,3.43,3.43
79.74,-0.02,-3.42,-0.03,-3.43,3.43,3.61,3.38,3.41,3.40,3.40
80.54,-0.01,-3.38,-0.02,-3.38,3.38,3.54,3.30,3.37,3.36,3.37
81.35,0.00,-3.33,-0.00,-3.33,3.33,3.47,3.23,3.34,3.33,3.33
82.16,0.01,-3.29,0.01,-3.29,3.29,3.41,3.15,3.30,3.30,3.30
82.98,0.01,-3.26,0.03,-3.24,3.24,3.34,3.08,3.25,3.27,3.27
83.81,0.02,-3.22,0.04,-3.19,3.19,3.28,3.01,3.22,3.24,3.24
84.65,0.04,-3.16,0.06,-3.15,3.15,3.21,2.94,3.19,3.21,3.20
85.50,0.06,-3.12,0.08,-3.10,3.10,3.15,2.88,3.16,3.18,3.18
86.35,0.09,-3.06,0.10,-3.05,3.05,3.08,2.81,3.14,3.15,3.15
87.22,0.12,-3.00,0.13,-3.00,3.00,3.02,2.75,3.12,3.12,3.12
88.09,0.15,-2.94,0.16,-2.94,2.94,2.96,2.69,3.09,3.10,3.09
88.97,0.18,-2.89,0.18,-2.89,2.89,2.89,2.63,3.07,3.07,3.07
89.86,0.21,-2.84,0.21,-2.83,2.83,2.83,2.57,3.04,3.04,3.05
90.76,0.24,-2.77,0.24,-2.78,2.78,2.77,2.52,3.02,3.01,3.01
91.66,0.27,-2.71,0.26,-2.73,2.73,2.71,2.46,3.00,2.99,2.98
92.58,0.29,-2.66,0.28,-2.68,2.68,2.65,2.41,2.97,2.96,2.95
93.51,0.31,-2.62,0.30,-2.63,2.63,2.59,2.36,2.94,2.93,2.94
94.44,0.33,-2.57,0.31,-2.58,2.58,2.53,2.31,2.92,2.90,2.90
95.39,0.34,-2.53,0.32,-2.54,2.54,2.47,2.26,2.88,2.86,2.88
96.34,0.34,-2.49,0.33,-2.50,2.50,2.41,2.22,2.84,2.83,2.83
97.30,0.34,-2.45,0.34,-2.46,2.46,2.35,2.17,2.80,2.80,2.79
98.28,0.34,-2.42,0.34,-2.42,2.42,2.29,2.13,2.77,2.76,2.76
99.26,0.33,-2.39,0.34,-2.39,2.39,2.23,2.09,2.72,2.72,2.72
100.25,0.32,-2.36,0.34,-2.35,2.35,2.17,2.05,2.67,2.68,2.68
101.25,0.32,-2.32,0.33,-2.31,2.31,2.12,2.01,2.63,2.64,2.65
102.27,0.32,-2.28,0.33,-2.27,2.27,2.06,1.97,2.59,2.60,2.60
103.29,0.32,-2.23,0.33,-2.23,2.23,2.01,1.94,2.55,2.56,2.55
104.32,0.32,-2.19,0.33,-2.18,2.18,1.95,1.90,2.50,2.51,2.51
105.37,0.32,-2.14,0.33,-2.13,2.13,1.89,1.86,2.45,2.46,2.47
106.42,0.32,-2.09,0.33,-2.08,2.08,1.84,1.83,2.40,2.41,2.41
107.48,0.32,-2.04,0.33,-2.02,2.02,1.79,1.80,2.34,2.35,2.36
108.56,0.32,-1.97,0.34,-1.96,1.96,1.73,1.76,2.28,2.29,2.29
109.64,0.33,-1.90,0.34,-1.89,1.89,1.68,1.73,2.23,2.23,2.23
110.74,0.34,-1.84,0.34,-1.83,1.83,1.63,1.70,2.17,2.17,2.18
111.85,0.34,-1.77,0.34,-1.77,1.77,1.57,1.67,2.11,2.10,2.11
112.97,0.34,-1.69,0.33,-1.71,1.71,1.52,1.63,2.05,2.04,2.03
114.10,0.34,-1.64,0.32,-1.65,1.65,1.47,1.60,1.99,1.97,1.98
115.24,0.33,-1.57,0.31,-1.59,1.59,1.42,1.57,1.92,1.90,1.90
116.39,0.31,-1.51,0.30,-1.53,1.53,1.37,1.54,1.85,1.83,1.82
117.55,0.29,-1.47,0.28,-1.48,1.48,1.32,1.51,1.77,1.77,1.76
118.73,0.27,-1.41,0.26,-1.44,1.44,1.27,1.48,1.71,1.70,1.68
119.92,0.24,-1.39,0.24,-1.39,1.39,1.22,1.44,1.63,1.63,1.63
121.12,0.21,-1.34,0.21,-1.35,1.35,1.17,1.41,1.57,1.56,1.56
122.33,0.18,-1.31,0.18,-1.32,1.32,1.13,1.38,1.50,1.50,1.49
123.55,0.15,-1.29,0.15,-1.28,1.28,1.08,1.34,1.44,1.43,1.44
124.79,0.12,-1.26,0.12,-1.25,1.25,1.03,1.31,1.37,1.37,1.38
126.03,0.09,-1.23,0.09,-1.22,1.22,0.99,1.27,1.31,1.31,1.32
127.29,0.06,-1.19,0.07,-1.18,1.18,0.94,1.24,1.25,1.25,1.26
128.57,0.03,-1.15,0.05,-1.15,1.15,0.89,1.20,1.18,1.20,1.19
129.85,0.01,-1.13,0.03,-1.11,1.11,0.85,1.16,1.12,1.14,1.14
131.15,0.00,-1.08,0.01,-1.07,1.07,0.80,1.13,1.07,1.09,1.08
132.46,-0.02,-1.05,0.00,-1.03,1.03,0.76,1.09,1.01,1.03,1.03
133.79,-0.02,-1.00,-0.01,-0.99,0.99,0.72,1.05,0.97,0.98,0.98
135.12,-0.02,-0.95,-0.01,-0.94,0.94,0.67,1.01,0.92,0.93,0.93
136.48,-0.02,-0.90,-0.02,-0.90,0.90,0.63,0.97,0.88,0.88,0.88
137.84,-0.01,-0.84,-0.02,-0.85,0.85,0.59,0.93,0.84,0.83,0.83
139.22,-0.01,-0.79,-0.01,-0.80,0.80,0.54,0.89,0.79,0.79,0.78
140.61,0.00,-0.72,-0.01,-0.75,0.75,0.50,0.84,0.75,0.74,0.72
142.02,0.00,-0.69,-0.01,-0.70,0.70,0.46,0.80,0.70,0.69,0.69
143.44,0.00,-0.65,-0.01,-0.65,0.65,0.42,0.76,0.65,0.65,0.65
144.87,0.00,-0.60,-0.00,-0.60,0.60,0.38,0.71,0.60,0.60,0.60
146.32,0.00,-0.55,-0.00,-0.55,0.55,0.34,0.67,0.56,0.55,0.56
147.78,0.00,-0.52,0.00,-0.50,0.50,0.30,0.63,0.51,0.51,0.52
149.26,0.00,-0.47,0.00,-0.46,0.46,0.26,0.58,0.46,0.46,0.47
150.75,0.00,-0.40,0.00,-0.41,0.41,0.22,0.54,0.41,0.41,0.41
152.26,0.00,-0.36,0.00,-0.36,0.36,0.18,0.49,0.36,0.36,0.36
153.78,0.00,-0.32,0.00,-0.31,0.31,0.15,0.45,0.31,0.31,0.32
155.32,0.00,-0.25,0.00,-0.26,0.26,0.11,0.40,0.26,0.26,0.26
156.88,0.00,-0.21,0.00,-0.21,0.21,0.07,0.35,0.21,0.21,0.21
158.44,0.00,-0.16,0.00,-0.16,0.16,0.04,0.31,0.16,0.16,0.16
160.03,0.00,-0.10,0.00,-0.11,0.11,0.00,0.26,0.11,0.11,0.10
161.63,0.00,-0.04,0.00,-0.05,0.05,-0.04,0.21,0.05,0.06,0.05
163.24,0.00,0.00,0.01,0.00,-0.00,-0.07,0.17,-0.00,0.00,-0.00
164.88,0.00,0.05,0.01,0.06,-0.06,-0.11,0.12,-0.06,-0.05,-0.05
166.53,0.00,0.11,0.01,0.12,-0.12,-0.14,0.07,-0.12,-0.11,-0.10
168.19,0.00,0.16,0.02,0.17,-0.17,-0.17,0.02,-0.17,-0.16,-0.16
169.87,0.00,0.21,0.02,0.23,-0.23,-0.21,-0.02,-0.23,-0.22,-0.21
171.57,0.01,0.28,0.02,0.29,-0.29,-0.24,-0.07,-0.28,-0.27,-0.27
173.29,0.02,0.35,0.01,0.34,-0.34,-0.27,-0.12,-0.32,-0.33,-0.33
175.02,0.02,0.40,0.01,0.40,-0.40,-0.31,-0.17,-0.38,-0.39,-0.38
176.77,0.02,0.47,0.00,0.45,-0.45,-0.34,-0.22,-0.43,-0.45,-0.45
178.54,0.01,0.52,-0.01,0.50,-0.50,-0.37,-0.27,-0.48,-0.51,-0.51
180.32,-0.01,0.56,-0.03,0.54,-0.54,-0.40,-0.32,-0.55,-0.57,-0.57
182.13,-0.03,0.60,-0.04,0.59,-0.59,-0.43,-0.37,-0.61,-0.63,-0.62
183.95,-0.06,0.63,-0.07,0.63,-0.63,-0.46,-0.42,-0.68,-0.69,-0.69
185.79,-0.09,0.66,-0.09,0.66,-0.66,-0.49,-0.47,-0.75,-0.75,-0.75
187.65,-0.12,0.71,-0.12,0.70,-0.70,-0.52,-0.52,-0.81,-0.81,-0.82
189.52,-0.15,0.73,-0.15,0.73,-0.73,-0.55,-0.57,-0.87,-0.87,-0.88
191.42,-0.18,0.75,-0.18,0.75,-0.75,-0.58,-0.62,-0.93,-0.93,-0.93
193.33,-0.21,0.78,-0.21,0.78,-0.78,-0.61,-0.67,-0.99,-0.99,-0.98
195.27,-0.24,0.80,-0.23,0.81,-0.81,-0.64,-0.73,-1.05,-1.04,-1.04
197.22,-0.27,0.83,-0.26,0.84,-0.84,-0.66,-0.78,-1.11,-1.10,-1.10
199.19,-0.29,0.87,-0.28,0.87,-0.87,-0.69,-0.83,-1.16,-1.15,-1.16
201.18,-0.31,0.90,-0.30,0.91,-0.91,-0.72,-0.88,-1.22,-1.20,-1.21
203.19,-0.33,0.92,-0.31,0.94,-0.94,-0.74,-0.93,-1.27,-1.26,-1.25
205.23,-0.34,0.97,-0.32,0.98,-0.98,-0.77,-0.98,-1.32,-1.30,-1.31
207.28,-0.35,0.99,-0.33,1.02,-1.02,-0.80,-1.03,-1.37,-1.35,-1.34
209.35,-0.35,1.05,-0.34,1.06,-1.06,-0.82,-1.08,-1.41,-1.40,-1.40
211.44,-0.34,1.11,-0.34,1.10,-1.10,-0.85,-1.13,-1.44,-1.44,-1.45
213.56,-0.33,1.16,-0.34,1.14,-1.14,-0.87,-1.18,-1.47,-1.49,-1.49
215.69,-0.33,1.19,-0.34,1.19,-1.19,-0.90,-1.23,-1.51,-1.53,-1.52
217.85,-0.33,1.23,-0.34,1.23,-1.23,-0.92,-1.28,-1.55,-1.56,-1.56
220.03,-0.33,1.28,-0.34,1.26,-1.26,-0.94,-1.32,-1.59,-1.60,-1.61
222.23,-0.33,1.31,-0.33,1.30,-1.30,-0.97,-1.37,-1.63,-1.63,-1.64
224.45,-0.33,1.34,-0.33,1.33,-1.33,-0.99,-1.41,-1.66,-1.66,-1.66
226.70,-0.33,1.36,-0.33,1.36,-1.36,-1.01,-1.45,-1.69,-1.69,-1.69
228.96,-0.33,1.39,-0.33,1.39,-1.39,-1.03,-1.49,-1.72,-1.72,-1.72
231.25,-0.33,1.41,-0.33,1.41,-1.41,-1.06,-1.53,-1.74,-1.74,-1.73
233.57,-0.33,1.43,-0.33,1.43,-1.43,-1.08,-1.56,-1.76,-1.76,-1.76
235.90,-0.33,1.45,-0.33,1.45,-1.45,-1.10,-1.59,-1.77,-1.77,-1.78
238.26,-0.33,1.46,-0.33,1.46,-1.46,-1.12,-1.62,-1.79,-1.79,-1.79
240.64,-0.33,1.47,-0.33,1.47,-1.47,-1.14,-1.65,-1.80,-1.80,-1.80
243.05,-0.33,1.47,-0.33,1.47,-1.47,-1.16,-1.67,-1.80,-1.80,-1.80
245.48,-0.33,1.48,-0.33,1.48,-1.48,-1.18,-1.70,-1.80,-1.81,-1.81
247.93,-0.33,1.48,-0.34,1.48,-1.48,-1.20,-1.71,-1.80,-1.81,-1.81
250.41,-0.33,1.49,-0.34,1.47,-1.47,-1.22,-1.73,-1.80,-1.81,-1.82
252.92,-0.33,1.48,-0.34,1.47,-1.47,-1.24,-1.74,-1.80,-1.81,-1.81
255.45,-0.33,1.47,-0.34,1.46,-1.46,-1.25,-1.75,-1.79,-1.80,-1.80
258.00,-0.34,1.46,-0.34,1.46,-1.46,-1.27,-1.76,-1.80,-1.80,-1.80
260.58,-0.34,1.46,-0.34,1.45,-1.45,-1.29,-1.76,-1.79,-1.79,-1.79
263.19,-0.35,1.43,-0.33,1.45,-1.45,-1.31,-1.76,-1.80,-1.78,-1.78
265.82,-0.34,1.44,-0.33,1.45,-1.45,-1.32,-1.76,-1.79,-1.77,-1.78
268.48,-0.33,1.43,-0.31,1.45,-1.45,-1.34,-1.76,-1.77,-1.76,-1.76
271.16,-0.32,1.43,-0.30,1.45,-1.45,-1.36,-1.75,-1.77,-1.75,-1.74
273.87,-0.30,1.44,-0.28,1.45,-1.45,-1.37,-1.75,-1.75,-1.74,-1.74
276.61,-0.27,1.45,-0.26,1.46,-1.46,-1.39,-1.74,-1.73,-1.73,-1.72
279.38,-0.25,1.47,-0.24,1.47,-1.47,-1.40,-1.73,-1.72,-1.71,-1.71
282.17,-0.22,1.48,-0.21,1.49,-1.49,-1.42,-1.71,-1.71,-1.70,-1.70
284.99,-0.19,1.50,-0.18,1.51,-1.51,-1.43,-1.70,-1.69,-1.69,-1.69
287.84,-0.16,1.52,-0.15,1.52,-1.52,-1.45,-1.68,-1.68,-1.68,-1.68
290.72,-0.12,1.55,-0.13,1.54,-1.54,-1.46,-1.67,-1.66,-1.66,-1.67
293.63,-0.09,1.56,-0.10,1.55,-1.55,-1.47,-1.65,-1.64,-1.65,-1.65
296.57,-0.07,1.57,-0.07,1.57,-1.57,-1.49,-1.64,-1.64,-1.64,-1.64
299.53,-0.04,1.59,-0.05,1.58,-1.58,-1.50,-1.62,-1.62,-1.63,-1.63
302.53,-0.02,1.61,-0.03,1.59,-1.59,-1.51,-1.60,-1.61,-1.62,-1.63
305.55,0.00,1.60,-0.01,1.59,-1.59,-1.53,-1.59,-1.59,-1.61,-1.60
308.61,0.01,1.61,-0.00,1.59,-1.59,-1.54,-1.57,-1.58,-1.60,-1.60
311.69,0.02,1.61,0.01,1.59,-1.59,-1.55,-1.55,-1.57,-1.59,-1.59
314.81,0.02,1.58,0.01,1.59,-1.59,-1.56,-1.54,-1.57,-1.58,-1.56
317.96,0.01,1.58,0.01,1.58,-1.58,-1.57,-1.52,-1.57,-1.57,-1.57
321.14,0.01,1.57,0.01,1.57,-1.57,-1.58,-1.51,-1.56,-1.56,-1.56
324.35,0.00,1.57,0.00,1.56,-1.56,-1.59,-1.49,-1.56,-1.56,-1.56
327.59,0.00,1.55,-0.00,1.55,-1.55,-1.60,-1.48,-1.55,-1.55,-1.55
330.87,-0.01,1.54,-0.00,1.54,-1.54,-1.61,-1.47,-1.55,-1.55,-1.55
334.18,-0.01,1.55,-0.01,1.54,-1.54,-1.62,-1.46,-1.55,-1.55,-1.55
337.52,-0.02,1.53,-0.01,1.54,-1.54,-1.63,-1.45,-1.56,-1.54,-1.55
340.90,-0.02,1.52,-0.01,1.54,-1.54,-1.64,-1.44,-1.56,-1.55,-1.54
344.30,-0.02,1.52,0.00,1.55,-1.55,-1.65,-1.43,-1.56,-1.55,-1.54
347.75,-0.01,1.54,0.01,1.56,-1.56,-1.65,-1.43,-1.57,-1.55,-1.55
351.23,0.01,1.56,0.02,1.58,-1.58,-1.66,-1.42,-1.56,-1.55,-1.55
354.74,0.03,1.58,0.04,1.60,-1.60,-1.67,-1.42,-1.57,-1.55,-1.55
358.28,0.05,1.61,0.06,1.62,-1.62,-1.67,-1.41,-1.57,-1.56,-1.56
361.87,0.08,1.65,0.09,1.65,-1.65,-1.68,-1.41,-1.57,-1.56,-1.57
365.49,0.11,1.68,0.11,1.68,-1.68,-1.69,-1.41,-1.57,-1.57,-1.57
369.14,0.14,1.72,0.14,1.71,-1.71,-1.69,-1.41,-1.57,-1.58,-1.58
372.83,0.17,1.75,0.16,1.75,-1.75,-1.70,-1.41,-1.58,-1.58,-1.58
376.56,0.20,1.80,0.19,1.78,-1.78,-1.70,-1.42,-1.58,-1.59,-1.59
380.33,0.23,1.83,0.21,1.81,-1.81,-1.71,-1.42,-1.58,-1.60,-1.60
384.13,0.25,1.86,0.24,1.84,-1.84,-1.71,-1.42,-1.59,-1.61,-1.61
387.97,0.27,1.89,0.26,1.87,-1.87,-1.71,-1.43,-1.60,-1.62,-1.62
391.85,0.29,1.92,0.28,1.90,-1.90,-1.72,-1.44,-1.61,-1.62,-1.63
395.77,0.30,1.92,0.30,1.93,-1.93,-1.72,-1.45,-1.63,-1.63,-1.62
399.73,0.31,1.95,0.32,1.95,-1.95,-1.72,-1.45,-1.64,-1.64,-1.63
403.72,0.33,1.98,0.34,1.98,-1.98,-1.72,-1.46,-1.65,-1.64,-1.65
407.76,0.35,2.01,0.36,2.01,-2.01,-1.72,-1.47,-1.65,-1.65,-1.66
411.84,0.36,2.01,0.38,2.03,-2.03,-1.72,-1.48,-1.67,-1.65,-1.65
415.96,0.38,2.04,0.40,2.06,-2.06,-1.72,-1.49,-1.68,-1.66,-1.66
420.12,0.40,2.06,0.43,2.09,-2.09,-1.72,-1.51,-1.69,-1.66,-1.66
424.32,0.43,2.09,0.46,2.13,-2.13,-1.72,-1.52,-1.69,-1.67,-1.66
428.56,0.47,2.15,0.49,2.16,-2.16,-1.72,-1.53,-1.69,-1.67,-1.67
432.85,0.51,2.19,0.52,2.19,-2.19,-1.71,-1.54,-1.68,-1.67,-1.67
437.18,0.54,2.22,0.54,2.22,-2.22,-1.71,-1.55,-1.68,-1.67,-1.68
441.55,0.57,2.24,0.57,2.24,-2.24,-1.71,-1.56,-1.67,-1.67,-1.67
445.96,0.59,2.26,0.59,2.26,-2.26,-1.70,-1.57,-1.67,-1.67,-1.67
450.42,0.61,2.29,0.60,2.27,-2.27,-1.69,-1.58,-1.66,-1.67,-1.68
454.93,0.63,2.30,0.61,2.28,-2.28,-1.69,-1.59,-1.65,-1.67,-1.67
459.48,0.63,2.30,0.61,2.27,-2.27,-1.68,-1.60,-1.64,-1.66,-1.67
464.07,0.62,2.28,0.60,2.26,-2.26,-1.67,-1.61,-1.64,-1.66,-1.66
468.71,0.60,2.25,0.58,2.23,-2.23,-1.66,-1.62,-1.63,-1.66,-1.65
473.40,0.56,2.22,0.54,2.20,-2.20,-1.64,-1.62,-1.63,-1.65,-1.65
478.13,0.51,2.16,0.50,2.15,-2.15,-1.63,-1.63,-1.63,-1.65,-1.64
482.91,0.45,2.10,0.45,2.09,-2.09,-1.61,-1.63,-1.63,-1.64,-1.64
