frequency,raw,error,smoothed,error_smoothed,equalization,parametric_eq,fixed_band_eq,equalized_raw,equalized_smoothed,target
20.00,-8.53,-11.94,-8.53,-11.96,11.96,11.72,4.42,3.43,3.43,3.41
20.20,-8.45,-11.90,-8.45,-11.91,11.91,11.66,4.53,3.46,3.46,3.45
20.40,-8.37,-11.86,-8.37,-11.86,11.86,11.61,4.66,3.50,3.49,3.49
20.61,-8.29,-11.81,-8.29,-11.81,11.81,11.55,4.78,3.52,3.52,3.52
20.81,-8.21,-11.77,-8.21,-11.76,11.76,11.48,4.91,3.55,3.55,3.56
21.02,-8.13,-11.73,-8.13,-11.70,11.70,11.42,5.04,3.58,3.58,3.60
21.23,-8.05,-11.67,-8.05,-11.65,11.65,11.35,5.17,3.60,3.60,3.62
21.44,-7.97,-11.61,-7.96,-11.59,11.59,11.28,5.31,3.62,3.62,3.64
21.66,-7.88,-11.54,-7.88,-11.53,11.53,11.21,5.45,3.65,3.64,3.66
21.87,-7.80,-11.47,-7.80,-11.46,11.46,11.14,5.60,3.67,3.66,3.67
22.09,-7.72,-11.41,-7.72,-11.40,11.40,11.07,5.75,3.68,3.68,3.69
22.31,-7.64,-11.34,-7.63,-11.33,11.33,11.00,5.90,3.69,3.70,3.70
22.54,-7.55,-11.26,-7.55,-11.26,11.26,10.92,6.06,3.71,3.71,3.71
22.76,-7.46,-11.18,-7.46,-11.18,11.18,10.85,6.22,3.73,3.72,3.72
22.99,-7.38,-11.10,-7.38,-11.11,11.11,10.77,6.39,3.73,3.73,3.72
23.22,-7.30,-11.03,-7.29,-11.03,11.03,10.70,6.56,3.73,3.74,3.73
23.45,-7.21,-10.95,-7.21,-10.96,10.96,10.62,6.74,3.75,3.75,3.74
23.69,-7.12,-10.87,-7.12,-10.88,10.88,10.55,6.92,3.76,3.76,3.75
23.92,-7.03,-10.79,-7.04,-10.80,10.80,10.47,7.10,3.77,3.77,3.76
24.16,-6.95,-10.73,-6.95,-10.72,10.72,10.40,7.29,3.78,3.77,3.78
24.40,-6.86,-10.66,-6.86,-10.64,10.64,10.32,7.49,3.79,3.78,3.80
24.65,-6.77,-10.56,-6.77,-10.56,10.56,10.25,7.68,3.79,3.79,3.79
24.89,-6.70,-10.50,-6.68,-10.48,10.48,10.17,7.88,3.79,3.80,3.80
25.14,-6.61,-10.42,-6.59,-10.40,10.40,10.10,8.09,3.80,3.81,3.81
25.39,-6.51,-10.33,-6.50,-10.32,10.32,10.03,8.30,3.82,3.82,3.82
25.65,-6.40,-10.24,-6.41,-10.24,10.24,9.96,8.51,3.84,3.83,3.84
25.91,-6.32,-10.16,-6.31,-10.16,10.16,9.89,8.72,3.84,3.84,3.84
26.16,-6.23,-10.08,-6.22,-10.08,10.08,9.81,8.94,3.85,3.85,3.85
26.43,-6.13,-9.99,-6.13,-9.99,9.99,9.74,9.16,3.86,3.86,3.86
26.69,-6.03,-9.90,-6.04,-9.91,9.91,9.67,9.37,3.88,3.87,3.87
26.96,-5.94,-9.83,-5.94,-9.82,9.82,9.61,9.59,3.88,3.88,3.89
27.23,-5.85,-9.75,-5.85,-9.74,9.74,9.54,9.81,3.89,3.89,3.90
27.50,-5.76,-9.66,-5.76,-9.66,9.66,9.47,10.02,3.90,3.90,3.90
27.77,-5.67,-9.57,-5.67,-9.58,9.58,9.41,10.23,3.91,3.91,3.90
28.05,-5.59,-9.51,-5.59,-9.50,9.50,9.34,10.44,3.91,3.92,3.92
28.33,-5.50,-9.42,-5.50,-9.43,9.43,9.27,10.63,3.93,3.92,3.92
28.62,-5.42,-9.35,-5.42,-9.35,9.35,9.21,10.82,3.93,3.93,3.93
28.90,-5.34,-9.28,-5.33,-9.28,9.28,9.15,11.00,3.94,3.94,3.94
29.19,-5.25,-9.19,-5.25,-9.20,9.20,9.08,11.17,3.95,3.95,3.94
29.48,-5.17,-9.14,-5.18,-9.13,9.13,9.02,11.32,3.96,3.95,3.97
29.78,-5.10,-9.06,-5.10,-9.06,9.06,8.96,11.45,3.96,3.96,3.96
30.08,-5.03,-9.00,-5.03,-8.99,8.99,8.90,11.56,3.96,3.97,3.97
30.38,-4.96,-8.93,-4.95,-8.93,8.93,8.84,11.66,3.97,3.97,3.97
30.68,-4.88,-8.87,-4.88,-8.86,8.86,8.78,11.73,3.98,3.98,3.99
30.99,-4.81,-8.80,-4.81,-8.80,8.80,8.72,11.78,3.99,3.99,3.99
31.30,-4.74,-8.73,-4.74,-8.73,8.73,8.66,11.80,3.99,4.00,3.99
31.61,-4.67,-8.67,-4.67,-8.67,8.67,8.61,11.80,4.00,4.00,4.00
31.93,-4.60,-8.61,-4.60,-8.61,8.61,8.55,11.78,4.01,4.01,4.01
32.24,-4.55,-8.56,-4.54,-8.55,8.55,8.49,11.73,4.01,4.02,4.01
32.57,-4.48,-8.51,-4.47,-8.50,8.50,8.43,11.66,4.02,4.03,4.03
32.89,-4.40,-8.43,-4.41,-8.44,8.44,8.38,11.57,4.04,4.03,4.03
33.22,-4.34,-8.38,-4.35,-8.39,8.39,8.32,11.47,4.05,4.04,4.04
33.55,-4.28,-8.33,-4.29,-8.34,8.34,8.27,11.34,4.06,4.05,4.05
33.89,-4.24,-8.30,-4.23,-8.29,8.29,8.21,11.20,4.05,4.05,4.06
34.23,-4.18,-8.24,-4.18,-8.24,8.24,8.15,11.04,4.06,4.06,4.06
34.57,-4.13,-8.20,-4.13,-8.19,8.19,8.10,10.88,4.07,4.07,4.07
34.92,-4.08,-8.15,-4.08,-8.15,8.15,8.04,10.70,4.07,4.07,4.07
35.27,-4.03,-8.11,-4.03,-8.10,8.10,7.99,10.52,4.07,4.08,4.08
35.62,-3.97,-8.05,-3.98,-8.06,8.06,7.93,10.33,4.09,4.08,4.08
35.97,-3.93,-8.01,-3.93,-8.02,8.02,7.88,10.14,4.09,4.08,4.08
36.33,-3.89,-7.98,-3.89,-7.97,7.97,7.82,9.95,4.08,4.08,4.09
36.70,-3.85,-7.93,-3.84,-7.93,7.93,7.76,9.75,4.08,4.09,4.08
37.06,-3.80,-7.89,-3.79,-7.88,7.88,7.71,9.56,4.08,4.09,4.09
37.43,-3.75,-7.84,-3.75,-7.83,7.83,7.65,9.36,4.09,4.09,4.09
37.81,-3.70,-7.79,-3.70,-7.78,7.78,7.59,9.17,4.09,4.08,4.09
38.19,-3.65,-7.74,-3.65,-7.74,7.74,7.54,8.98,4.09,4.08,4.09
38.57,-3.61,-7.69,-3.60,-7.69,7.69,7.48,8.80,4.08,4.08,4.08
38.95,-3.57,-7.65,-3.56,-7.63,7.63,7.42,8.61,4.07,4.08,4.08
39.34,-3.52,-7.59,-3.51,-7.58,7.58,7.37,8.43,4.07,4.08,4.07
39.74,-3.46,-7.53,-3.46,-7.53,7.53,7.31,8.26,4.07,4.07,4.07
40.14,-3.40,-7.47,-3.41,-7.48,7.48,7.25,8.08,4.08,4.07,4.07
40.54,-3.35,-7.42,-3.35,-7.42,7.42,7.19,7.92,4.07,4.07,4.07
40.94,-3.30,-7.36,-3.30,-7.36,7.36,7.13,7.76,4.07,4.07,4.06
41.35,-3.24,-7.30,-3.24,-7.31,7.31,7.07,7.60,4.07,4.06,4.06
41.76,-3.19,-7.25,-3.19,-7.25,7.25,7.01,7.45,4.06,4.06,4.06
42.18,-3.14,-7.20,-3.13,-7.19,7.19,6.95,7.30,4.05,4.06,4.06
42.60,-3.08,-7.14,-3.08,-7.13,7.13,6.89,7.16,4.05,4.05,4.06
43.03,-3.03,-7.09,-3.02,-7.07,7.07,6.83,7.02,4.04,4.05,4.06
43.46,-2.96,-7.02,-2.96,-7.01,7.01,6.76,6.89,4.05,4.05,4.06
43.90,-2.90,-6.94,-2.90,-6.95,6.95,6.70,6.76,4.05,4.05,4.04
44.33,-2.83,-6.87,-2.84,-6.88,6.88,6.64,6.64,4.06,4.04,4.04
44.78,-2.78,-6.81,-2.78,-6.82,6.82,6.57,6.52,4.04,4.04,4.03
45.23,-2.73,-6.76,-2.72,-6.76,6.76,6.51,6.41,4.03,4.04,4.03
45.68,-2.67,-6.70,-2.66,-6.69,6.69,6.44,6.30,4.02,4.03,4.03
46.13,-2.60,-6.62,-2.60,-6.63,6.63,6.38,6.19,4.03,4.03,4.02
46.60,-2.53,-6.56,-2.54,-6.56,6.56,6.31,6.09,4.03,4.02,4.03
47.06,-2.47,-6.49,-2.48,-6.49,6.49,6.25,6.00,4.03,4.02,4.02
47.53,-2.42,-6.43,-2.42,-6.43,6.43,6.18,5.91,4.01,4.01,4.01
48.01,-2.37,-6.39,-2.36,-6.36,6.36,6.11,5.82,3.99,4.00,4.02
48.49,-2.30,-6.30,-2.30,-6.29,6.29,6.05,5.74,4.00,3.99,4.00
48.97,-2.24,-6.22,-2.25,-6.23,6.23,5.98,5.66,3.99,3.98,3.98
49.46,-2.18,-6.15,-2.19,-6.16,6.16,5.91,5.58,3.98,3.97,3.97
49.96,-2.13,-6.08,-2.13,-6.09,6.09,5.84,5.51,3.96,3.96,3.95
50.46,-2.08,-6.03,-2.07,-6.02,6.02,5.78,5.44,3.94,3.94,3.95
50.96,-2.03,-5.96,-2.02,-5.95,5.95,5.71,5.38,3.92,3.93,3.93
51.47,-1.96,-5.86,-1.96,-5.87,5.87,5.64,5.31,3.91,3.91,3.90
51.99,-1.90,-5.79,-1.90,-5.80,5.80,5.57,5.25,3.90,3.90,3.89
52.51,-1.85,-5.73,-1.84,-5.72,5.72,5.50,5.20,3.87,3.88,3.88
53.03,-1.79,-5.65,-1.78,-5.64,5.64,5.43,5.14,3.85,3.86,3.86
53.56,-1.73,-5.58,-1.72,-5.56,5.56,5.36,5.09,3.83,3.84,3.85
54.10,-1.67,-5.49,-1.66,-5.48,5.48,5.29,5.03,3.81,3.82,3.82
54.64,-1.60,-5.41,-1.60,-5.40,5.40,5.22,4.98,3.80,3.80,3.81
55.18,-1.53,-5.31,-1.53,-5.32,5.32,5.15,4.93,3.79,3.78,3.78
55.74,-1.47,-5.22,-1.47,-5.23,5.23,5.08,4.88,3.77,3.76,3.75
56.29,-1.41,-5.16,-1.41,-5.15,5.15,5.01,4.83,3.74,3.74,3.75
56.86,-1.35,-5.07,-1.34,-5.07,5.07,4.94,4.79,3.72,3.72,3.72
57.42,-1.28,-4.97,-1.28,-4.98,4.98,4.87,4.74,3.70,3.70,3.69
58.00,-1.21,-4.88,-1.22,-4.89,4.89,4.80,4.69,3.69,3.68,3.67
58.58,-1.15,-4.80,-1.16,-4.81,4.81,4.73,4.64,3.66,3.65,3.65
59.16,-1.09,-4.72,-1.09,-4.72,4.72,4.66,4.59,3.63,3.62,3.63
59.76,-1.04,-4.65,-1.03,-4.63,4.63,4.59,4.54,3.59,3.59,3.61
60.35,-0.98,-4.56,-0.97,-4.54,4.54,4.52,4.49,3.56,3.57,3.58
60.96,-0.92,-4.47,-0.91,-4.45,4.45,4.45,4.44,3.53,3.53,3.55
61.57,-0.86,-4.36,-0.86,-4.36,4.36,4.38,4.38,3.50,3.50,3.50
62.18,-0.81,-4.27,-0.80,-4.27,4.27,4.31,4.33,3.46,3.47,3.46
62.80,-0.76,-4.20,-0.74,-4.18,4.18,4.24,4.27,3.42,3.43,3.44
63.43,-0.70,-4.09,-0.69,-4.09,4.09,4.17,4.21,3.39,3.40,3.39
64.07,-0.64,-3.99,-0.65,-4.01,4.01,4.11,4.15,3.37,3.36,3.35
64.71,-0.59,-3.91,-0.60,-3.92,3.92,4.04,4.09,3.33,3.32,3.32
65.35,-0.55,-3.83,-0.56,-3.84,3.84,3.97,4.03,3.29,3.28,3.28
66.01,-0.50,-3.74,-0.52,-3.76,3.76,3.90,3.96,3.26,3.24,3.24
66.67,-0.47,-3.68,-0.48,-3.68,3.68,3.84,3.90,3.22,3.20,3.21
67.33,-0.43,-3.60,-0.45,-3.61,3.61,3.77,3.83,3.18,3.17,3.17
68.01,-0.41,-3.54,-0.41,-3.54,3.54,3.70,3.76,3.13,3.13,3.13
68.69,-0.39,-3.48,-0.38,-3.47,3.47,3.64,3.69,3.08,3.09,3.09
69.37,-0.37,-3.42,-0.36,-3.41,3.41,3.57,3.62,3.04,3.05,3.05
70.07,-0.35,-3.36,-0.33,-3.34,3.34,3.51,3.55,2.99,3.01,3.01
70.77,-0.32,-3.29,-0.30,-3.28,3.28,3.44,3.48,2.96,2.97,2.97
71.48,-0.29,-3.23,-0.28,-3.21,3.21,3.38,3.41,2.92,2.93,2.94
72.19,-0.26,-3.15,-0.25,-3.15,3.15,3.32,3.34,2.89,2.90,2.89
72.91,-0.23,-3.09,-0.23,-3.09,3.09,3.25,3.27,2.86,2.86,2.86
73.64,-0.21,-3.03,-0.20,-3.02,3.02,3.19,3.20,2.82,2.82,2.82
74.38,-0.18,-2.97,-0.17,-2.96,2.96,3.13,3.13,2.78,2.79,2.79
75.12,-0.15,-2.90,-0.15,-2.90,2.90,3.07,3.06,2.75,2.75,2.75
75.87,-0.13,-2.85,-0.12,-2.85,2.85,3.00,2.99,2.72,2.72,2.72
76.63,-0.10,-2.79,-0.10,-2.79,2.79,2.94,2.92,2.69,2.69,2.69
77.40,-0.07,-2.73,-0.08,-2.74,2.74,2.88,2.85,2.67,2.66,2.66
78.17,-0.04,-2.67,-0.06,-2.69,2.69,2.82,2.79,2.66,2.63,2.63
78.95,-0.03,-2.63,-0.05,-2.65,2.65,2.76,2.72,2.62,2.60,2.60
79.74,-0.02,-2.60,-0.03,-2.61,2.61,2.70,2.65,2.59,2.58,2.58
80.54,-0.01,-2.57,-0.02,-2.57,2.57,2.65,2.59,2.56,2.55,2.56
81.35,0.00,-2.53,-0.00,-2.53,2.53,2.59,2.53,2.53,2.53,2.53
82.16,0.01,-2.49,0.01,-2.49,2.49,2.53,2.47,2.50,2.51,2.50
82.98,0.01,-2.48,0.03,-2.45,2.45,2.47,2.41,2.47,2.48,2.49
83.81,0.02,-2.44,0.04,-2.42,2.42,2.42,2.35,2.44,2.46,2.46
84.65,0.04,-2.39,0.06,-2.38,2.38,2.36,2.29,2.42,2.44,2.43
85.50,0.06,-2.36,0.08,-2.34,2.34,2.31,2.24,2.40,2.42,2.42
86.35,0.09,-2.31,0.10,-2.29,2.29,2.25,2.18,2.39,2.40,2.40
87.22,0.12,-2.26,0.13,-2.25,2.25,2.20,2.13,2.37,2.38,2.38
88.09,0.15,-2.21,0.16,-2.21,2.21,2.15,2.08,2.36,2.36,2.36
88.97,0.18,-2.16,0.18,-2.16,2.16,2.09,2.03,2.34,2.34,2.34
89.86,0.21,-2.12,0.21,-2.11,2.11,2.04,1.98,2.32,2.32,2.33
90.76,0.24,-2.06,0.24,-2.07,2.07,1.99,1.94,2.31,2.30,2.30
91.66,0.27,-2.01,0.26,-2.03,2.03,1.94,1.89,2.30,2.29,2.28
92.58,0.29,-1.97,0.28,-1.98,1.98,1.88,1.85,2.28,2.27,2.26
93.51,0.31,-1.94,0.30,-1.95,1.95,1.83,1.80,2.26,2.24,2.25
94.44,0.33,-1.90,0.31,-1.91,1.91,1.78,1.76,2.24,2.22,2.23
95.39,0.34,-1.87,0.32,-1.88,1.88,1.73,1.72,2.22,2.20,2.21
96.34,0.34,-1.84,0.33,-1.85,1.85,1.69,1.68,2.19,2.18,2.18
97.30,0.34,-1.81,0.34,-1.82,1.82,1.64,1.64,2.16,2.15,2.15
98.28,0.34,-1.78,0.34,-1.79,1.79,1.59,1.61,2.13,2.13,2.12
99.26,0.33,-1.77,0.34,-1.76,1.76,1.54,1.57,2.09,2.10,2.10
100.25,0.32,-1.75,0.34,-1.73,1.73,1.49,1.54,2.06,2.07,2.07
101.25,0.32,-1.72,0.33,-1.71,1.71,1.45,1.50,2.03,2.04,2.04
102.27,0.32,-1.68,0.33,-1.68,1.68,1.40,1.47,2.00,2.01,2.00
103.29,0.32,-1.65,0.33,-1.64,1.64,1.36,1.44,1.96,1.97,1.97
104.32,0.32,-1.62,0.33,-1.61,1.61,1.31,1.40,1.93,1.93,1.94
105.37,0.32,-1.58,0.33,-1.56,1.56,1.27,1.37,1.89,1.89,1.90
106.42,0.32,-1.53,0.33,-1.52,1.52,1.22,1.34,1.84,1.85,1.85
107.48,0.32,-1.50,0.33,-1.47,1.47,1.18,1.31,1.79,1.81,1.82
108.56,0.32,-1.44,0.34,-1.42,1.42,1.14,1.28,1.74,1.76,1.76
109.64,0.33,-1.38,0.34,-1.37,1.37,1.09,1.26,1.70,1.71,1.71
110.74,0.34,-1.32,0.34,-1.32,1.32,1.05,1.23,1.66,1.65,1.66
111.85,0.34,-1.27,0.34,-1.26,1.26,1.01,1.20,1.60,1.60,1.61
112.97,0.34,-1.20,0.33,-1.21,1.21,0.97,1.17,1.55,1.54,1.54
114.10,0.34,-1.15,0.32,-1.16,1.16,0.93,1.14,1.50,1.48,1.49
115.24,0.33,-1.10,0.31,-1.11,1.11,0.88,1.12,1.44,1.43,1.43
116.39,0.31,-1.05,0.30,-1.07,1.07,0.84,1.09,1.38,1.37,1.36
117.55,0.29,-1.01,0.28,-1.03,1.03,0.80,1.06,1.32,1.31,1.30
118.73,0.27,-0.97,0.26,-0.99,0.99,0.77,1.03,1.26,1.25,1.24
119.92,0.24,-0.95,0.24,-0.96,0.96,0.73,1.01,1.20,1.19,1.19
121.12,0.21,-0.92,0.21,-0.93,0.93,0.69,0.98,1.14,1.14,1.13
122.33,0.18,-0.90,0.18,-0.90,0.90,0.65,0.95,1.08,1.08,1.08
123.55,0.15,-0.88,0.15,-0.88,0.88,0.61,0.92,1.03,1.03,1.03
124.79,0.12,-0.86,0.12,-0.85,0.85,0.57,0.89,0.98,0.98,0.98
126.03,0.09,-0.84,0.09,-0.83,0.83,0.54,0.86,0.92,0.93,0.93
127.29,0.06,-0.82,0.07,-0.81,0.81,0.50,0.83,0.87,0.88,0.88
128.57,0.03,-0.79,0.05,-0.78,0.78,0.46,0.80,0.81,0.83,0.82
129.85,0.01,-0.77,0.03,-0.75,0.75,0.43,0.77,0.76,0.78,0.78
131.15,0.00,-0.73,0.01,-0.72,0.72,0.39,0.74,0.73,0.74,0.73
132.46,-0.02,-0.71,0.00,-0.69,0.69,0.36,0.71,0.67,0.69,0.69
133.79,-0.02,-0.67,-0.01,-0.66,0.66,0.32,0.67,0.64,0.65,0.65
135.12,-0.02,-0.63,-0.01,-0.62,0.62,0.29,0.64,0.60,0.61,0.61
136.48,-0.02,-0.59,-0.02,-0.58,0.58,0.25,0.61,0.56,0.57,0.57
137.84,-0.01,-0.54,-0.02,-0.54,0.54,0.22,0.58,0.54,0.53,0.53
139.22,-0.01,-0.49,-0.01,-0.50,0.50,0.19,0.54,0.50,0.49,0.48
140.61,0.00,-0.44,-0.01,-0.46,0.46,0.15,0.51,0.47,0.45,0.44
142.02,0.00,-0.42,-0.01,-0.42,0.42,0.12,0.47,0.42,0.41,0.42
143.44,0.00,-0.38,-0.01,-0.38,0.38,0.09,0.44,0.38,0.38,0.38
144.87,0.00,-0.34,-0.00,-0.34,0.34,0.06,0.40,0.34,0.34,0.34
146.32,0.00,-0.30,-0.00,-0.30,0.30,0.03,0.37,0.30,0.30,0.30
147.78,0.00,-0.27,0.00,-0.26,0.26,-0.01,0.33,0.26,0.26,0.27
149.26,0.00,-0.24,0.00,-0.22,0.22,-0.04,0.29,0.22,0.22,0.24
150.75,0.00,-0.18,0.00,-0.18,0.18,-0.07,0.26,0.18,0.18,0.18
152.26,0.00,-0.14,0.00,-0.14,0.14,-0.10,0.22,0.14,0.14,0.14
153.78,0.00,-0.11,0.00,-0.10,0.10,-0.13,0.18,0.10,0.10,0.11
155.32,0.00,-0.05,0.00,-0.06,0.06,-0.16,0.15,0.06,0.06,0.05
156.88,0.00,-0.02,0.00,-0.01,0.01,-0.19,0.11,0.02,0.01,0.02
158.44,0.00,0.03,0.00,0.03,-0.03,-0.22,0.07,-0.03,-0.03,-0.03
160.03,0.00,0.08,0.00,0.08,-0.08,-0.25,0.03,-0.07,-0.07,-0.08
161.63,0.00,0.13,0.00,0.12,-0.12,-0.27,-0.01,-0.12,-0.12,-0.13
163.24,0.00,0.17,0.01,0.17,-0.17,-0.30,-0.05,-0.17,-0.17,-0.17
164.88,0.00,0.21,0.01,0.22,-0.22,-0.33,-0.09,-0.22,-0.21,-0.21
166.53,0.00,0.26,0.01,0.28,-0.28,-0.36,-0.13,-0.27,-0.26,-0.26
168.19,0.00,0.31,0.02,0.33,-0.33,-0.38,-0.17,-0.32,-0.31,-0.31
169.87,0.00,0.36,0.02,0.38,-0.38,-0.41,-0.21,-0.38,-0.36,-0.36
171.57,0.01,0.41,0.02,0.43,-0.43,-0.44,-0.25,-0.42,-0.41,-0.40
173.29,0.02,0.48,0.01,0.48,-0.48,-0.46,-0.29,-0.45,-0.46,-0.46
175.02,0.02,0.53,0.01,0.52,-0.52,-0.49,-0.33,-0.50,-0.52,-0.51
176.77,0.02,0.59,0.00,0.57,-0.57,-0.52,-0.37,-0.55,-0.57,-0.57
178.54,0.01,0.63,-0.01,0.61,-0.61,-0.54,-0.42,-0.60,-0.62,-0.62
180.32,-0.01,0.67,-0.03,0.65,-0.65,-0.57,-0.46,-0.66,-0.68,-0.68
182.13,-0.03,0.70,-0.04,0.69,-0.69,-0.59,-0.50,-0.72,-0.73,-0.73
183.95,-0.06,0.73,-0.07,0.72,-0.72,-0.62,-0.55,-0.78,-0.79,-0.79
185.79,-0.09,0.75,-0.09,0.76,-0.76,-0.64,-0.59,-0.85,-0.85,-0.84
187.65,-0.12,0.79,-0.12,0.78,-0.78,-0.67,-0.64,-0.90,-0.90,-0.91
189.52,-0.15,0.81,-0.15,0.81,-0.81,-0.69,-0.68,-0.96,-0.96,-0.96
191.42,-0.18,0.83,-0.18,0.83,-0.83,-0.71,-0.73,-1.01,-1.01,-1.01
193.33,-0.21,0.85,-0.21,0.86,-0.86,-0.74,-0.77,-1.06,-1.06,-1.06
195.27,-0.24,0.87,-0.23,0.88,-0.88,-0.76,-0.82,-1.12,-1.11,-1.11
197.22,-0.27,0.90,-0.26,0.91,-0.91,-0.78,-0.86,-1.17,-1.16,-1.17
199.19,-0.29,0.93,-0.28,0.93,-0.93,-0.80,-0.91,-1.22,-1.21,-1.22
201.18,-0.31,0.96,-0.30,0.97,-0.97,-0.83,-0.95,-1.27,-1.26,-1.27
203.19,-0.33,0.97,-0.31,1.00,-1.00,-0.85,-1.00,-1.33,-1.31,-1.30
205.23,-0.34,1.02,-0.32,1.03,-1.03,-0.87,-1.05,-1.37,-1.36,-1.36
207.28,-0.35,1.03,-0.33,1.07,-1.07,-0.89,-1.09,-1.42,-1.40,-1.38
209.35,-0.35,1.09,-0.34,1.10,-1.10,-0.91,-1.14,-1.45,-1.44,-1.44
211.44,-0.34,1.15,-0.34,1.14,-1.14,-0.93,-1.18,-1.48,-1.48,-1.49
213.56,-0.33,1.20,-0.34,1.18,-1.18,-0.95,-1.22,-1.51,-1.52,-1.53
215.69,-0.33,1.22,-0.34,1.22,-1.22,-0.97,-1.27,-1.55,-1.56,-1.55
217.85,-0.33,1.26,-0.34,1.26,-1.26,-0.99,-1.31,-1.58,-1.59,-1.59
220.03,-0.33,1.30,-0.34,1.29,-1.29,-1.01,-1.35,-1.62,-1.63,-1.63
222.23,-0.33,1.33,-0.33,1.32,-1.32,-1.03,-1.39,-1.65,-1.66,-1.66
224.45,-0.33,1.35,-0.33,1.35,-1.35,-1.05,-1.43,-1.68,-1.68,-1.68
226.70,-0.33,1.38,-0.33,1.38,-1.38,-1.07,-1.46,-1.71,-1.71,-1.71
228.96,-0.33,1.41,-0.33,1.40,-1.40,-1.09,-1.50,-1.73,-1.73,-1.74
231.25,-0.33,1.42,-0.33,1.43,-1.43,-1.11,-1.53,-1.75,-1.75,-1.75
233.57,-0.33,1.44,-0.33,1.44,-1.44,-1.13,-1.56,-1.77,-1.77,-1.77
235.90,-0.33,1.45,-0.33,1.45,-1.45,-1.14,-1.59,-1.78,-1.78,-1.78
238.26,-0.33,1.46,-0.33,1.46,-1.46,-1.16,-1.62,-1.79,-1.79,-1.79
240.64,-0.33,1.47,-0.33,1.47,-1.47,-1.18,-1.64,-1.80,-1.80,-1.80
243.05,-0.33,1.47,-0.33,1.47,-1.47,-1.20,-1.66,-1.80,-1.80,-1.80
245.48,-0.33,1.48,-0.33,1.47,-1.47,-1.21,-1.68,-1.80,-1.81,-1.81
247.93,-0.33,1.48,-0.34,1.47,-1.47,-1.23,-1.69,-1.80,-1.81,-1.81
250.41,-0.33,1.48,-0.34,1.47,-1.47,-1.25,-1.71,-1.80,-1.80,-1.81
252.92,-0.33,1.47,-0.34,1.46,-1.46,-1.26,-1.72,-1.79,-1.80,-1.80
255.45,-0.33,1.46,-0.34,1.45,-1.45,-1.28,-1.72,-1.78,-1.79,-1.79
258.00,-0.34,1.44,-0.34,1.45,-1.45,-1.29,-1.73,-1.78,-1.79,-1.78
260.58,-0.34,1.44,-0.34,1.44,-1.44,-1.31,-1.73,-1.78,-1.78,-1.78
263.19,-0.35,1.42,-0.33,1.43,-1.43,-1.32,-1.73,-1.78,-1.77,-1.77
265.82,-0.34,1.42,-0.33,1.43,-1.43,-1.34,-1.73,-1.77,-1.75,-1.76
268.48,-0.33,1.41,-0.31,1.43,-1.43,-1.35,-1.73,-1.76,-1.74,-1.74
271.16,-0.32,1.40,-0.30,1.43,-1.43,-1.37,-1.72,-1.75,-1.73,-1.72
273.87,-0.30,1.42,-0.28,1.43,-1.43,-1.38,-1.71,-1.73,-1.72,-1.72
276.61,-0.27,1.42,-0.26,1.44,-1.44,-1.39,-1.70,-1.71,-1.70,-1.69
279.38,-0.25,1.44,-0.24,1.45,-1.45,-1.41,-1.69,-1.70,-1.69,-1.69
282.17,-0.22,1.45,-0.21,1.46,-1.46,-1.42,-1.68,-1.68,-1.68,-1.67
284.99,-0.19,1.47,-0.18,1.48,-1.48,-1.43,-1.66,-1.67,-1.66,-1.66
287.84,-0.16,1.49,-0.15,1.49,-1.49,-1.44,-1.65,-1.65,-1.65,-1.65
290.72,-0.12,1.52,-0.13,1.51,-1.51,-1.46,-1.63,-1.63,-1.63,-1.64
293.63,-0.09,1.53,-0.10,1.52,-1.52,-1.47,-1.61,-1.61,-1.62,-1.62
296.57,-0.07,1.53,-0.07,1.53,-1.53,-1.48,-1.60,-1.60,-1.61,-1.60
299.53,-0.04,1.56,-0.05,1.54,-1.54,-1.49,-1.58,-1.58,-1.59,-1.60
302.53,-0.02,1.57,-0.03,1.55,-1.55,-1.50,-1.56,-1.57,-1.58,-1.59
305.55,0.00,1.57,-0.01,1.56,-1.56,-1.51,-1.55,-1.55,-1.57,-1.57
308.61,0.01,1.57,-0.00,1.56,-1.56,-1.52,-1.53,-1.55,-1.56,-1.56
311.69,0.02,1.57,0.01,1.55,-1.55,-1.53,-1.51,-1.53,-1.55,-1.55
314.81,0.02,1.54,0.01,1.55,-1.55,-1.54,-1.50,-1.53,-1.54,-1.52
317.96,0.01,1.54,0.01,1.54,-1.54,-1.55,-1.48,-1.53,-1.53,-1.53
321.14,0.01,1.53,0.01,1.53,-1.53,-1.56,-1.47,-1.52,-1.52,-1.52
324.35,0.00,1.52,0.00,1.52,-1.52,-1.57,-1.45,-1.52,-1.52,-1.52
327.59,0.00,1.51,-0.00,1.51,-1.51,-1.58,-1.44,-1.51,-1.51,-1.51
330.87,-0.01,1.50,-0.00,1.50,-1.50,-1.59,-1.43,-1.51,-1.51,-1.51
334.18,-0.01,1.50,-0.01,1.50,-1.50,-1.60,-1.42,-1.50,-1.50,-1.51
337.52,-0.02,1.48,-0.01,1.49,-1.49,-1.60,-1.41,-1.51,-1.50,-1.50
340.90,-0.02,1.48,-0.01,1.50,-1.50,-1.61,-1.40,-1.51,-1.50,-1.50
344.30,-0.02,1.48,0.00,1.50,-1.50,-1.62,-1.39,-1.52,-1.50,-1.50
347.75,-0.01,1.49,0.01,1.51,-1.51,-1.62,-1.38,-1.52,-1.50,-1.50
351.23,0.01,1.51,0.02,1.53,-1.53,-1.63,-1.38,-1.52,-1.51,-1.50
354.74,0.03,1.53,0.04,1.55,-1.55,-1.64,-1.37,-1.52,-1.51,-1.50
358.28,0.05,1.57,0.06,1.58,-1.58,-1.64,-1.37,-1.52,-1.51,-1.52
361.87,0.08,1.60,0.09,1.60,-1.60,-1.65,-1.37,-1.52,-1.52,-1.52
365.49,0.11,1.63,0.11,1.63,-1.63,-1.65,-1.37,-1.52,-1.52,-1.52
369.14,0.14,1.67,0.14,1.67,-1.67,-1.66,-1.37,-1.52,-1.53,-1.53
372.83,0.17,1.70,0.16,1.70,-1.70,-1.66,-1.37,-1.53,-1.54,-1.53
376.56,0.20,1.74,0.19,1.73,-1.73,-1.67,-1.37,-1.53,-1.54,-1.54
380.33,0.23,1.78,0.21,1.76,-1.76,-1.67,-1.37,-1.53,-1.55,-1.55
384.13,0.25,1.81,0.24,1.79,-1.79,-1.67,-1.38,-1.54,-1.56,-1.56
387.97,0.27,1.84,0.26,1.82,-1.82,-1.68,-1.38,-1.55,-1.56,-1.57
391.85,0.29,1.87,0.28,1.85,-1.85,-1.68,-1.39,-1.56,-1.57,-1.58
395.77,0.30,1.87,0.30,1.87,-1.87,-1.68,-1.40,-1.57,-1.58,-1.57
399.73,0.31,1.89,0.32,1.90,-1.90,-1.68,-1.40,-1.59,-1.58,-1.58
403.72,0.33,1.92,0.34,1.93,-1.93,-1.68,-1.41,-1.60,-1.59,-1.59
407.76,0.35,1.95,0.36,1.95,-1.95,-1.68,-1.42,-1.60,-1.60,-1.60
411.84,0.36,1.95,0.38,1.98,-1.98,-1.68,-1.43,-1.62,-1.60,-1.59
415.96,0.38,1.99,0.40,2.01,-2.01,-1.68,-1.44,-1.63,-1.61,-1.61
420.12,0.40,2.01,0.43,2.04,-2.04,-1.68,-1.45,-1.64,-1.61,-1.61
424.32,0.43,2.04,0.46,2.07,-2.07,-1.68,-1.46,-1.64,-1.61,-1.61
428.56,0.47,2.09,0.49,2.10,-2.10,-1.67,-1.47,-1.63,-1.61,-1.62
432.85,0.51,2.13,0.52,2.13,-2.13,-1.67,-1.48,-1.62,-1.61,-1.62
437.18,0.54,2.16,0.54,2.16,-2.16,-1.66,-1.49,-1.62,-1.62,-1.62
441.55,0.57,2.18,0.57,2.19,-2.19,-1.66,-1.50,-1.61,-1.62,-1.61
445.96,0.59,2.20,0.59,2.20,-2.20,-1.65,-1.51,-1.61,-1.61,-1.61
450.42,0.61,2.23,0.60,2.22,-2.22,-1.65,-1.52,-1.61,-1.61,-1.62
454.93,0.63,2.24,0.61,2.22,-2.22,-1.64,-1.53,-1.59,-1.61,-1.61
459.48,0.63,2.24,0.61,2.22,-2.22,-1.63,-1.54,-1.58,-1.61,-1.61
464.07,0.62,2.22,0.60,2.20,-2.20,-1.62,-1.55,-1.58,-1.60,-1.60
468.71,0.60,2.19,0.58,2.18,-2.18,-1.60,-1.55,-1.57,-1.60,-1.59
473.40,0.56,2.16,0.54,2.14,-2.14,-1.59,-1.56,-1.58,-1.59,-1.60
478.13,0.51,2.10,0.50,2.09,-2.09,-1.57,-1.56,-1.58,-1.59,-1.59
482.91,0.45,2.04,0.45,2.03,-2.03,-1.56,-1.56,-1.58,-1.58,-1.59
487.74,0.38,1.96,0.38,1.96,-1.96,-1.53,-1.56,-1.58,-1.58,-1.58
