frequency,raw,error,smoothed,error_smoothed,equalization,parametric_eq,fixed_band_eq,equalized_raw,equalized_smoothed,target
20.00,-4.93,-10.38,-4.92,-10.37,10.37,9.64,4.45,5.44,5.46,5.45
20.20,-4.89,-10.33,-4.87,-10.32,10.32,9.69,4.57,5.43,5.45,5.44
20.40,-4.85,-10.28,-4.84,-10.27,10.27,9.75,4.69,5.42,5.44,5.43
20.61,-4.81,-10.24,-4.80,-10.23,10.23,9.80,4.81,5.41,5.43,5.43
20.81,-4.77,-10.18,-4.76,-10.18,10.18,9.84,4.94,5.41,5.42,5.41
21.02,-4.73,-10.14,-4.73,-10.14,10.14,9.89,5.07,5.41,5.41,5.41
21.23,-4.68,-10.08,-4.69,-10.10,10.10,9.93,5.21,5.42,5.40,5.40
21.44,-4.64,-10.05,-4.66,-10.06,10.06,9.96,5.35,5.42,5.40,5.41
21.66,-4.60,-10.00,-4.63,-10.03,10.03,10.00,5.49,5.42,5.39,5.40
21.87,-4.55,-9.94,-4.61,-9.99,9.99,10.03,5.64,5.44,5.38,5.39
22.09,-4.53,-9.91,-4.58,-9.96,9.96,10.05,5.79,5.43,5.38,5.38
22.31,-4.53,-9.91,-4.56,-9.93,9.93,10.07,5.95,5.40,5.37,5.38
22.54,-4.53,-9.90,-4.54,-9.91,9.91,10.09,6.11,5.38,5.37,5.37
22.76,-4.53,-9.89,-4.53,-9.89,9.89,10.11,6.27,5.36,5.37,5.36
22.99,-4.53,-9.88,-4.51,-9.87,9.87,10.12,6.44,5.34,5.36,5.35
23.22,-4.52,-9.86,-4.50,-9.86,9.86,10.13,6.61,5.34,5.36,5.34
23.45,-4.52,-9.87,-4.49,-9.84,9.84,10.13,6.79,5.32,5.35,5.35
23.69,-4.51,-9.85,-4.48,-9.83,9.83,10.13,6.97,5.32,5.35,5.34
23.92,-4.50,-9.84,-4.46,-9.82,9.82,10.13,7.16,5.32,5.35,5.34
24.16,-4.47,-9.82,-4.45,-9.80,9.80,10.12,7.35,5.33,5.35,5.35
24.40,-4.43,-9.79,-4.44,-9.79,9.79,10.12,7.54,5.36,5.35,5.36
24.65,-4.39,-9.75,-4.42,-9.77,9.77,10.10,7.74,5.38,5.35,5.36
24.89,-4.35,-9.71,-4.39,-9.74,9.74,10.09,7.94,5.40,5.35,5.36
25.14,-4.33,-9.68,-4.36,-9.72,9.72,10.07,8.15,5.39,5.36,5.35
25.39,-4.33,-9.68,-4.33,-9.69,9.69,10.05,8.36,5.36,5.36,5.35
25.65,-4.33,-9.68,-4.30,-9.67,9.67,10.03,8.57,5.34,5.36,5.35
25.91,-4.33,-9.69,-4.28,-9.64,9.64,10.01,8.78,5.31,5.36,5.36
26.16,-4.30,-9.67,-4.25,-9.62,9.62,9.98,9.00,5.32,5.37,5.37
26.43,-4.24,-9.61,-4.23,-9.60,9.60,9.95,9.22,5.36,5.37,5.37
26.69,-4.19,-9.56,-4.22,-9.58,9.58,9.92,9.44,5.39,5.37,5.37
26.96,-4.14,-9.50,-4.20,-9.57,9.57,9.89,9.65,5.43,5.37,5.36
27.23,-4.13,-9.49,-4.18,-9.55,9.55,9.86,9.87,5.42,5.37,5.36
27.50,-4.13,-9.49,-4.17,-9.53,9.53,9.82,10.09,5.40,5.37,5.36
27.77,-4.13,-9.50,-4.14,-9.51,9.51,9.78,10.30,5.38,5.37,5.37
28.05,-4.13,-9.50,-4.12,-9.49,9.49,9.75,10.50,5.36,5.37,5.37
28.33,-4.13,-9.48,-4.10,-9.46,9.46,9.71,10.70,5.33,5.37,5.35
28.62,-4.13,-9.48,-4.07,-9.44,9.44,9.67,10.89,5.31,5.36,5.35
28.90,-4.13,-9.49,-4.05,-9.42,9.42,9.63,11.07,5.29,5.36,5.36
29.19,-4.09,-9.45,-4.04,-9.40,9.40,9.59,11.23,5.31,5.36,5.36
29.48,-4.03,-9.38,-4.02,-9.38,9.38,9.55,11.38,5.35,5.36,5.35
29.78,-3.97,-9.32,-4.01,-9.36,9.36,9.51,11.52,5.39,5.35,5.35
30.08,-3.93,-9.29,-4.00,-9.34,9.34,9.47,11.64,5.41,5.35,5.36
30.38,-3.93,-9.28,-3.98,-9.32,9.32,9.43,11.74,5.39,5.34,5.35
30.68,-3.93,-9.26,-3.97,-9.30,9.30,9.39,11.81,5.37,5.34,5.33
30.99,-3.93,-9.26,-3.95,-9.28,9.28,9.35,11.87,5.35,5.33,5.33
31.30,-3.93,-9.25,-3.94,-9.27,9.27,9.31,11.90,5.33,5.32,5.32
31.61,-3.93,-9.24,-3.93,-9.25,9.25,9.27,11.92,5.32,5.32,5.31
31.93,-3.93,-9.23,-3.92,-9.23,9.23,9.23,11.91,5.30,5.31,5.30
32.24,-3.93,-9.23,-3.90,-9.21,9.21,9.19,11.87,5.27,5.30,5.30
32.57,-3.93,-9.21,-3.89,-9.19,9.19,9.15,11.82,5.26,5.30,5.28
32.89,-3.93,-9.21,-3.88,-9.17,9.17,9.11,11.75,5.24,5.29,5.28
33.22,-3.91,-9.19,-3.87,-9.15,9.15,9.08,11.66,5.24,5.28,5.28
33.55,-3.87,-9.14,-3.85,-9.13,9.13,9.04,11.55,5.26,5.28,5.27
33.89,-3.83,-9.11,-3.83,-9.11,9.11,9.00,11.43,5.27,5.27,5.28
34.23,-3.80,-9.06,-3.81,-9.08,9.08,8.97,11.30,5.28,5.27,5.26
34.57,-3.76,-9.02,-3.79,-9.06,9.06,8.94,11.16,5.30,5.27,5.26
34.92,-3.73,-8.98,-3.77,-9.03,9.03,8.91,11.01,5.30,5.26,5.25
35.27,-3.72,-8.98,-3.76,-9.01,9.01,8.87,10.86,5.29,5.25,5.26
35.62,-3.72,-8.96,-3.74,-8.98,8.98,8.84,10.70,5.26,5.24,5.24
35.97,-3.72,-8.96,-3.73,-8.96,8.96,8.81,10.54,5.24,5.23,5.24
36.33,-3.72,-8.94,-3.72,-8.94,8.94,8.79,10.37,5.22,5.22,5.22
36.70,-3.72,-8.93,-3.72,-8.92,8.92,8.76,10.21,5.20,5.20,5.21
37.06,-3.72,-8.91,-3.72,-8.90,8.90,8.73,10.04,5.18,5.19,5.19
37.43,-3.72,-8.89,-3.72,-8.89,8.89,8.71,9.88,5.17,5.17,5.17
37.81,-3.72,-8.87,-3.72,-8.87,8.87,8.68,9.72,5.15,5.15,5.15
38.19,-3.72,-8.84,-3.72,-8.84,8.84,8.66,9.56,5.12,5.12,5.12
38.57,-3.72,-8.82,-3.71,-8.81,8.81,8.64,9.41,5.09,5.10,5.10
38.95,-3.72,-8.79,-3.70,-8.77,8.77,8.62,9.26,5.05,5.07,5.07
39.34,-3.71,-8.74,-3.69,-8.73,8.73,8.60,9.11,5.02,5.05,5.03
39.74,-3.71,-8.72,-3.67,-8.69,8.69,8.58,8.97,4.98,5.02,5.01
40.14,-3.69,-8.67,-3.65,-8.65,8.65,8.56,8.84,4.96,4.99,4.98
40.54,-3.66,-8.62,-3.64,-8.60,8.60,8.54,8.71,4.94,4.96,4.96
40.94,-3.62,-8.55,-3.62,-8.55,8.55,8.52,8.58,4.93,4.94,4.93
41.35,-3.58,-8.49,-3.60,-8.51,8.51,8.51,8.47,4.93,4.91,4.91
41.76,-3.54,-8.41,-3.58,-8.46,8.46,8.49,8.35,4.92,4.88,4.87
42.18,-3.52,-8.37,-3.56,-8.42,8.42,8.47,8.24,4.90,4.86,4.85
42.60,-3.52,-8.35,-3.55,-8.38,8.38,8.46,8.14,4.86,4.83,4.83
43.03,-3.52,-8.32,-3.53,-8.34,8.34,8.44,8.05,4.82,4.80,4.80
43.46,-3.52,-8.29,-3.52,-8.30,8.30,8.42,7.96,4.78,4.78,4.77
43.90,-3.52,-8.27,-3.52,-8.26,8.26,8.41,7.87,4.74,4.75,4.75
44.33,-3.52,-8.23,-3.51,-8.23,8.23,8.39,7.80,4.71,4.72,4.71
44.78,-3.52,-8.20,-3.51,-8.20,8.20,8.37,7.72,4.68,4.69,4.68
45.23,-3.52,-8.19,-3.51,-8.17,8.17,8.36,7.66,4.65,4.66,4.67
45.68,-3.52,-8.14,-3.52,-8.14,8.14,8.34,7.60,4.62,4.62,4.62
46.13,-3.52,-8.10,-3.52,-8.11,8.11,8.32,7.54,4.59,4.59,4.58
46.60,-3.52,-8.07,-3.53,-8.07,8.07,8.30,7.49,4.55,4.55,4.55
47.06,-3.52,-8.03,-3.52,-8.03,8.03,8.28,7.45,4.51,4.51,4.51
47.53,-3.52,-8.00,-3.52,-7.98,7.98,8.25,7.41,4.46,4.46,4.48
48.01,-3.52,-7.94,-3.51,-7.94,7.94,8.23,7.37,4.42,4.42,4.42
48.49,-3.52,-7.89,-3.51,-7.89,7.89,8.20,7.34,4.36,4.38,4.37
48.97,-3.52,-7.85,-3.50,-7.83,7.83,8.17,7.31,4.31,4.33,4.33
49.46,-3.52,-7.81,-3.49,-7.78,7.78,8.14,7.29,4.26,4.29,4.29
49.96,-3.52,-7.74,-3.48,-7.73,7.73,8.11,7.27,4.21,4.24,4.22
50.46,-3.47,-7.65,-3.48,-7.67,7.67,8.08,7.26,4.20,4.20,4.18
50.96,-3.42,-7.56,-3.47,-7.62,7.62,8.04,7.25,4.20,4.15,4.14
51.47,-3.42,-7.52,-3.46,-7.56,7.56,8.00,7.24,4.14,4.10,4.10
51.99,-3.42,-7.47,-3.44,-7.50,7.50,7.96,7.23,4.08,4.06,4.05
52.51,-3.42,-7.43,-3.43,-7.44,7.44,7.92,7.23,4.02,4.01,4.01
53.03,-3.42,-7.40,-3.42,-7.38,7.38,7.87,7.23,3.96,3.96,3.98
53.56,-3.42,-7.34,-3.40,-7.32,7.32,7.83,7.23,3.90,3.92,3.92
54.10,-3.42,-7.29,-3.39,-7.26,7.26,7.77,7.23,3.84,3.87,3.87
54.64,-3.42,-7.25,-3.38,-7.21,7.21,7.72,7.23,3.79,3.83,3.83
55.18,-3.40,-7.17,-3.37,-7.16,7.16,7.66,7.23,3.76,3.79,3.77
55.74,-3.35,-7.07,-3.36,-7.11,7.11,7.60,7.23,3.76,3.75,3.72
56.29,-3.32,-7.01,-3.35,-7.06,7.06,7.54,7.23,3.74,3.70,3.69
56.86,-3.32,-6.97,-3.35,-7.01,7.01,7.48,7.22,3.69,3.66,3.65
57.42,-3.32,-6.91,-3.34,-6.95,6.95,7.41,7.22,3.63,3.61,3.59
58.00,-3.32,-6.88,-3.33,-6.90,6.90,7.34,7.21,3.58,3.57,3.56
58.58,-3.32,-6.85,-3.32,-6.84,6.84,7.27,7.19,3.52,3.52,3.53
59.16,-3.32,-6.81,-3.32,-6.79,6.79,7.20,7.17,3.47,3.47,3.49
59.76,-3.32,-6.77,-3.31,-6.73,6.73,7.12,7.15,3.41,3.42,3.45
60.35,-3.32,-6.70,-3.31,-6.68,6.68,7.04,7.12,3.36,3.37,3.38
60.96,-3.32,-6.65,-3.31,-6.63,6.63,6.96,7.09,3.31,3.32,3.33
61.57,-3.32,-6.58,-3.32,-6.58,6.58,6.88,7.05,3.26,3.26,3.26
62.18,-3.32,-6.51,-3.32,-6.52,6.52,6.79,7.01,3.20,3.21,3.19
62.80,-3.32,-6.45,-3.32,-6.47,6.47,6.71,6.96,3.15,3.15,3.13
63.43,-3.32,-6.39,-3.32,-6.41,6.41,6.62,6.90,3.09,3.09,3.07
64.07,-3.32,-6.34,-3.32,-6.35,6.35,6.53,6.84,3.03,3.03,3.02
64.71,-3.32,-6.28,-3.32,-6.29,6.29,6.44,6.77,2.97,2.97,2.96
65.35,-3.32,-6.22,-3.32,-6.23,6.23,6.35,6.70,2.91,2.91,2.90
66.01,-3.32,-6.16,-3.32,-6.17,6.17,6.26,6.62,2.85,2.85,2.84
66.67,-3.32,-6.12,-3.32,-6.11,6.11,6.17,6.53,2.79,2.79,2.80
67.33,-3.32,-6.04,-3.32,-6.05,6.05,6.07,6.45,2.73,2.73,2.72
68.01,-3.32,-5.99,-3.32,-5.99,5.99,5.98,6.35,2.66,2.66,2.67
68.69,-3.32,-5.92,-3.32,-5.92,5.92,5.88,6.26,2.60,2.60,2.60
69.37,-3.32,-5.87,-3.32,-5.86,5.86,5.79,6.16,2.54,2.54,2.55
70.07,-3.32,-5.80,-3.33,-5.81,5.81,5.70,6.05,2.49,2.48,2.48
70.77,-3.32,-5.74,-3.33,-5.74,5.74,5.60,5.95,2.42,2.41,2.42
71.48,-3.32,-5.67,-3.33,-5.68,5.68,5.51,5.84,2.36,2.35,2.35
72.19,-3.32,-5.60,-3.32,-5.61,5.61,5.41,5.73,2.29,2.29,2.28
72.91,-3.32,-5.54,-3.32,-5.54,5.54,5.32,5.62,2.22,2.22,2.22
73.64,-3.32,-5.47,-3.31,-5.48,5.48,5.22,5.51,2.16,2.16,2.15
74.38,-3.32,-5.41,-3.31,-5.41,5.41,5.13,5.40,2.09,2.10,2.09
75.12,-3.32,-5.34,-3.30,-5.34,5.34,5.04,5.29,2.02,2.04,2.02
75.87,-3.32,-5.30,-3.29,-5.27,5.27,4.95,5.18,1.95,1.98,1.98
76.63,-3.32,-5.23,-3.28,-5.20,5.20,4.85,5.08,1.88,1.92,1.91
77.40,-3.28,-5.14,-3.27,-5.14,5.14,4.76,4.97,1.86,1.87,1.86
78.17,-3.22,-5.02,-3.26,-5.07,5.07,4.67,4.86,1.85,1.81,1.80
78.95,-3.22,-4.98,-3.25,-5.01,5.01,4.58,4.76,1.79,1.75,1.76
79.74,-3.22,-4.92,-3.24,-4.94,4.94,4.50,4.66,1.72,1.70,1.70
80.54,-3.22,-4.86,-3.23,-4.88,4.88,4.41,4.56,1.66,1.64,1.64
81.35,-3.22,-4.81,-3.23,-4.82,4.82,4.32,4.46,1.60,1.59,1.59
82.16,-3.22,-4.76,-3.22,-4.76,4.76,4.24,4.36,1.54,1.53,1.54
82.98,-3.22,-4.70,-3.22,-4.69,4.69,4.15,4.27,1.47,1.48,1.48
83.81,-3.22,-4.64,-3.21,-4.63,4.63,4.07,4.18,1.41,1.42,1.42
84.65,-3.22,-4.58,-3.21,-4.57,4.57,3.99,4.09,1.35,1.36,1.36
85.50,-3.22,-4.51,-3.21,-4.52,4.52,3.90,4.01,1.30,1.30,1.29
86.35,-3.22,-4.45,-3.22,-4.46,4.46,3.82,3.93,1.24,1.24,1.23
87.22,-3.22,-4.40,-3.22,-4.40,4.40,3.75,3.85,1.18,1.18,1.18
88.09,-3.22,-4.33,-3.22,-4.34,4.34,3.67,3.77,1.12,1.12,1.11
88.97,-3.22,-4.28,-3.22,-4.27,4.27,3.59,3.69,1.05,1.06,1.06
89.86,-3.22,-4.20,-3.21,-4.21,4.21,3.51,3.62,0.99,0.99,0.98
90.76,-3.22,-4.14,-3.21,-4.14,4.14,3.44,3.55,0.92,0.92,0.92
91.66,-3.21,-4.06,-3.21,-4.07,4.07,3.37,3.49,0.86,0.86,0.85
92.58,-3.21,-4.00,-3.21,-4.00,4.00,3.29,3.43,0.79,0.79,0.79
93.51,-3.21,-3.93,-3.21,-3.93,3.93,3.22,3.36,0.72,0.71,0.72
94.44,-3.21,-3.86,-3.22,-3.86,3.86,3.15,3.31,0.64,0.64,0.65
95.39,-3.22,-3.79,-3.22,-3.78,3.78,3.08,3.25,0.56,0.56,0.57
96.34,-3.22,-3.71,-3.22,-3.71,3.71,3.02,3.20,0.49,0.49,0.49
97.30,-3.22,-3.63,-3.23,-3.64,3.64,2.95,3.14,0.42,0.41,0.41
98.28,-3.23,-3.55,-3.24,-3.57,3.57,2.88,3.09,0.34,0.33,0.32
99.26,-3.25,-3.48,-3.25,-3.50,3.50,2.82,3.05,0.25,0.25,0.23
100.25,-3.27,-3.42,-3.27,-3.43,3.43,2.76,3.00,0.16,0.17,0.15
101.25,-3.29,-3.37,-3.28,-3.36,3.36,2.69,2.96,0.07,0.08,0.08
102.27,-3.30,-3.29,-3.30,-3.30,3.30,2.63,2.92,-0.00,-0.00,-0.01
103.29,-3.31,-3.22,-3.32,-3.24,3.24,2.57,2.88,-0.07,-0.08,-0.09
104.32,-3.33,-3.17,-3.34,-3.18,3.18,2.51,2.84,-0.16,-0.17,-0.16
105.37,-3.35,-3.11,-3.36,-3.12,3.12,2.45,2.80,-0.23,-0.25,-0.24
106.42,-3.38,-3.05,-3.38,-3.06,3.06,2.39,2.76,-0.32,-0.33,-0.33
107.48,-3.40,-2.98,-3.40,-3.00,3.00,2.34,2.73,-0.40,-0.41,-0.42
108.56,-3.43,-2.95,-3.42,-2.94,2.94,2.28,2.69,-0.49,-0.49,-0.48
109.64,-3.45,-2.88,-3.44,-2.88,2.88,2.23,2.66,-0.57,-0.56,-0.57
110.74,-3.46,-2.81,-3.46,-2.81,2.81,2.17,2.62,-0.65,-0.64,-0.65
111.85,-3.48,-2.76,-3.47,-2.75,2.75,2.12,2.59,-0.73,-0.72,-0.72
112.97,-3.49,-2.70,-3.48,-2.69,2.69,2.07,2.56,-0.80,-0.79,-0.79
114.10,-3.50,-2.64,-3.49,-2.62,2.62,2.02,2.52,-0.88,-0.86,-0.86
115.24,-3.50,-2.56,-3.49,-2.56,2.56,1.97,2.49,-0.94,-0.94,-0.94
116.39,-3.50,-2.48,-3.49,-2.49,2.49,1.92,2.45,-1.01,-1.01,-1.02
117.55,-3.49,-2.41,-3.49,-2.42,2.42,1.87,2.42,-1.07,-1.07,-1.08
118.73,-3.49,-2.33,-3.49,-2.35,2.35,1.82,2.38,-1.14,-1.14,-1.16
119.92,-3.48,-2.26,-3.49,-2.28,2.28,1.77,2.35,-1.20,-1.21,-1.22
121.12,-3.48,-2.21,-3.48,-2.21,2.21,1.72,2.31,-1.27,-1.27,-1.27
122.33,-3.47,-2.13,-3.47,-2.14,2.14,1.68,2.27,-1.33,-1.33,-1.34
123.55,-3.46,-2.07,-3.46,-2.07,2.07,1.63,2.23,-1.39,-1.40,-1.39
124.79,-3.45,-2.00,-3.46,-2.00,2.00,1.59,2.19,-1.45,-1.46,-1.45
126.03,-3.45,-1.93,-3.45,-1.93,1.93,1.54,2.15,-1.52,-1.52,-1.52
127.29,-3.44,-1.86,-3.44,-1.86,1.86,1.50,2.10,-1.58,-1.58,-1.58
128.57,-3.43,-1.79,-3.43,-1.79,1.79,1.45,2.06,-1.64,-1.64,-1.64
129.85,-3.43,-1.72,-3.43,-1.73,1.73,1.41,2.01,-1.70,-1.70,-1.71
131.15,-3.42,-1.65,-3.42,-1.66,1.66,1.37,1.96,-1.76,-1.76,-1.77
132.46,-3.42,-1.59,-3.41,-1.59,1.59,1.33,1.91,-1.83,-1.82,-1.83
133.79,-3.41,-1.52,-3.41,-1.53,1.53,1.29,1.86,-1.89,-1.88,-1.89
135.12,-3.41,-1.46,-3.40,-1.46,1.46,1.24,1.81,-1.95,-1.94,-1.95
136.48,-3.41,-1.42,-3.41,-1.41,1.41,1.20,1.76,-2.00,-2.00,-1.99
137.84,-3.40,-1.35,-3.41,-1.35,1.35,1.16,1.70,-2.05,-2.06,-2.05
139.22,-3.40,-1.27,-3.41,-1.30,1.30,1.12,1.65,-2.10,-2.12,-2.13
140.61,-3.40,-1.23,-3.42,-1.25,1.25,1.09,1.59,-2.15,-2.17,-2.17
142.02,-3.40,-1.17,-3.43,-1.20,1.20,1.05,1.54,-2.20,-2.23,-2.23
143.44,-3.40,-1.10,-3.44,-1.15,1.15,1.01,1.48,-2.25,-2.29,-2.30
144.87,-3.43,-1.08,-3.45,-1.10,1.10,0.97,1.42,-2.33,-2.34,-2.35
146.32,-3.48,-1.08,-3.45,-1.06,1.06,0.93,1.36,-2.42,-2.40,-2.40
147.78,-3.50,-1.04,-3.46,-1.01,1.01,0.89,1.30,-2.49,-2.45,-2.46
149.26,-3.50,-0.99,-3.47,-0.96,0.96,0.86,1.25,-2.54,-2.51,-2.51
150.75,-3.50,-0.92,-3.48,-0.92,0.92,0.82,1.19,-2.58,-2.57,-2.58
152.26,-3.50,-0.88,-3.49,-0.87,0.87,0.78,1.13,-2.63,-2.62,-2.62
153.78,-3.50,-0.82,-3.50,-0.82,0.82,0.75,1.07,-2.68,-2.68,-2.68
155.32,-3.50,-0.77,-3.50,-0.77,0.77,0.71,1.01,-2.73,-2.74,-2.73
156.88,-3.50,-0.71,-3.50,-0.71,0.71,0.67,0.95,-2.79,-2.79,-2.79
158.44,-3.50,-0.65,-3.51,-0.66,0.66,0.64,0.89,-2.84,-2.85,-2.85
160.03,-3.50,-0.59,-3.51,-0.60,0.60,0.60,0.83,-2.90,-2.91,-2.91
161.63,-3.50,-0.53,-3.51,-0.54,0.54,0.56,0.77,-2.96,-2.97,-2.97
163.24,-3.50,-0.46,-3.51,-0.48,0.48,0.53,0.71,-3.02,-3.03,-3.04
164.88,-3.50,-0.41,-3.51,-0.42,0.42,0.49,0.65,-3.08,-3.09,-3.09
166.53,-3.51,-0.35,-3.52,-0.36,0.36,0.45,0.59,-3.15,-3.15,-3.16
168.19,-3.52,-0.31,-3.52,-0.31,0.31,0.42,0.53,-3.21,-3.21,-3.21
169.87,-3.52,-0.25,-3.53,-0.25,0.25,0.38,0.47,-3.27,-3.27,-3.27
171.57,-3.53,-0.19,-3.53,-0.20,0.20,0.34,0.41,-3.33,-3.33,-3.34
173.29,-3.54,-0.14,-3.53,-0.14,0.14,0.31,0.35,-3.40,-3.39,-3.40
175.02,-3.54,-0.09,-3.54,-0.09,0.09,0.27,0.29,-3.45,-3.45,-3.45
176.77,-3.54,-0.04,-3.53,-0.04,0.04,0.23,0.23,-3.51,-3.50,-3.50
178.54,-3.54,0.02,-3.53,0.02,-0.02,0.20,0.17,-3.56,-3.55,-3.56
180.32,-3.54,0.08,-3.52,0.08,-0.08,0.16,0.11,-3.62,-3.60,-3.62
182.13,-3.54,0.12,-3.52,0.14,-0.14,0.12,0.05,-3.68,-3.66,-3.66
183.95,-3.53,0.18,-3.51,0.19,-0.19,0.08,-0.01,-3.72,-3.71,-3.71
185.79,-3.51,0.25,-3.51,0.25,-0.25,0.05,-0.07,-3.76,-3.75,-3.76
187.65,-3.50,0.30,-3.50,0.30,-0.30,0.01,-0.13,-3.80,-3.80,-3.80
189.52,-3.48,0.37,-3.49,0.35,-0.35,-0.03,-0.19,-3.83,-3.85,-3.85
191.42,-3.47,0.41,-3.49,0.40,-0.40,-0.07,-0.25,-3.87,-3.89,-3.88
193.33,-3.46,0.47,-3.48,0.45,-0.45,-0.11,-0.31,-3.91,-3.93,-3.93
195.27,-3.44,0.54,-3.48,0.49,-0.49,-0.15,-0.36,-3.93,-3.98,-3.98
197.22,-3.45,0.58,-3.48,0.54,-0.54,-0.19,-0.42,-3.99,-4.02,-4.03
199.19,-3.50,0.56,-3.48,0.58,-0.58,-0.23,-0.48,-4.08,-4.06,-4.06
201.18,-3.51,0.60,-3.48,0.62,-0.62,-0.27,-0.54,-4.13,-4.10,-4.11
203.19,-3.50,0.64,-3.49,0.65,-0.65,-0.31,-0.60,-4.15,-4.14,-4.14
205.23,-3.50,0.68,-3.49,0.69,-0.69,-0.35,-0.65,-4.19,-4.18,-4.18
207.28,-3.50,0.71,-3.50,0.72,-0.72,-0.39,-0.71,-4.22,-4.22,-4.21
209.35,-3.50,0.75,-3.50,0.75,-0.75,-0.43,-0.76,-4.25,-4.26,-4.25
211.44,-3.51,0.79,-3.51,0.79,-0.79,-0.47,-0.82,-4.30,-4.30,-4.30
213.56,-3.51,0.82,-3.51,0.82,-0.82,-0.52,-0.87,-4.33,-4.33,-4.33
215.69,-3.51,0.86,-3.51,0.85,-0.85,-0.56,-0.92,-4.36,-4.37,-4.37
217.85,-3.52,0.88,-3.51,0.89,-0.89,-0.60,-0.97,-4.41,-4.40,-4.40
220.03,-3.52,0.93,-3.51,0.92,-0.92,-0.65,-1.02,-4.44,-4.43,-4.45
222.23,-3.52,0.95,-3.51,0.95,-0.95,-0.69,-1.07,-4.47,-4.46,-4.47
224.45,-3.52,0.98,-3.52,0.97,-0.97,-0.73,-1.12,-4.49,-4.49,-4.50
226.70,-3.52,1.01,-3.52,1.00,-1.00,-0.78,-1.16,-4.52,-4.52,-4.53
228.96,-3.52,1.03,-3.52,1.02,-1.02,-0.82,-1.20,-4.54,-4.54,-4.55
231.25,-3.51,1.05,-3.52,1.04,-1.04,-0.86,-1.24,-4.55,-4.56,-4.56
233.57,-3.50,1.09,-3.52,1.05,-1.05,-0.91,-1.28,-4.55,-4.58,-4.59
235.90,-3.49,1.11,-3.52,1.07,-1.07,-0.95,-1.32,-4.56,-4.59,-4.60
238.26,-3.51,1.11,-3.52,1.09,-1.09,-0.99,-1.35,-4.60,-4.60,-4.62
240.64,-3.55,1.06,-3.51,1.10,-1.10,-1.03,-1.38,-4.65,-4.61,-4.61
243.05,-3.55,1.07,-3.50,1.12,-1.12,-1.08,-1.40,-4.67,-4.62,-4.62
245.48,-3.53,1.11,-3.50,1.13,-1.13,-1.12,-1.43,-4.66,-4.63,-4.64
247.93,-3.50,1.15,-3.49,1.15,-1.15,-1.16,-1.45,-4.65,-4.64,-4.65
250.41,-3.48,1.16,-3.48,1.16,-1.16,-1.19,-1.47,-4.64,-4.65,-4.64
252.92,-3.46,1.18,-3.48,1.18,-1.18,-1.23,-1.48,-4.64,-4.65,-4.64
255.45,-3.45,1.21,-3.47,1.19,-1.19,-1.27,-1.49,-4.64,-4.66,-4.66
258.00,-3.44,1.23,-3.46,1.21,-1.21,-1.30,-1.50,-4.65,-4.67,-4.67
260.58,-3.44,1.24,-3.46,1.22,-1.22,-1.34,-1.51,-4.66,-4.68,-4.68
263.19,-3.43,1.26,-3.45,1.24,-1.24,-1.37,-1.51,-4.67,-4.69,-4.69
265.82,-3.44,1.27,-3.45,1.26,-1.26,-1.40,-1.51,-4.70,-4.71,-4.71
268.48,-3.44,1.27,-3.44,1.28,-1.28,-1.43,-1.51,-4.72,-4.72,-4.71
271.16,-3.44,1.29,-3.44,1.29,-1.29,-1.45,-1.50,-4.73,-4.73,-4.73
273.87,-3.45,1.29,-3.44,1.30,-1.30,-1.48,-1.50,-4.75,-4.74,-4.74
276.61,-3.45,1.31,-3.44,1.32,-1.32,-1.50,-1.49,-4.77,-4.75,-4.76
279.38,-3.45,1.34,-3.43,1.33,-1.33,-1.52,-1.48,-4.78,-4.76,-4.79
282.17,-3.44,1.35,-3.43,1.35,-1.35,-1.53,-1.47,-4.79,-4.77,-4.79
284.99,-3.44,1.35,-3.42,1.36,-1.36,-1.55,-1.45,-4.80,-4.78,-4.79
287.84,-3.43,1.36,-3.42,1.37,-1.37,-1.56,-1.44,-4.80,-4.79,-4.79
290.72,-3.42,1.39,-3.41,1.38,-1.38,-1.57,-1.42,-4.80,-4.79,-4.81
293.63,-3.41,1.39,-3.41,1.39,-1.39,-1.57,-1.41,-4.80,-4.80,-4.80
296.57,-3.40,1.40,-3.40,1.40,-1.40,-1.58,-1.39,-4.80,-4.80,-4.80
299.53,-3.38,1.43,-3.40,1.41,-1.41,-1.58,-1.37,-4.79,-4.81,-4.81
302.53,-3.37,1.43,-3.40,1.41,-1.41,-1.58,-1.36,-4.78,-4.81,-4.80
305.55,-3.36,1.45,-3.40,1.41,-1.41,-1.58,-1.34,-4.77,-4.81,-4.81
308.61,-3.35,1.45,-3.40,1.41,-1.41,-1.57,-1.32,-4.76,-4.81,-4.80
311.69,-3.40,1.42,-3.40,1.41,-1.41,-1.57,-1.30,-4.81,-4.81,-4.82
314.81,-3.43,1.38,-3.41,1.41,-1.41,-1.56,-1.29,-4.84,-4.81,-4.81
317.96,-3.44,1.39,-3.41,1.41,-1.41,-1.55,-1.27,-4.85,-4.82,-4.83
321.14,-3.44,1.38,-3.42,1.40,-1.40,-1.53,-1.25,-4.84,-4.82,-4.82
324.35,-3.44,1.39,-3.43,1.39,-1.39,-1.52,-1.24,-4.83,-4.82,-4.83
327.59,-3.44,1.38,-3.43,1.39,-1.39,-1.51,-1.22,-4.83,-4.82,-4.82
330.87,-3.44,1.39,-3.44,1.39,-1.39,-1.49,-1.21,-4.83,-4.83,-4.83
334.18,-3.44,1.40,-3.45,1.38,-1.38,-1.47,-1.19,-4.82,-4.83,-4.84
337.52,-3.45,1.38,-3.45,1.38,-1.38,-1.46,-1.18,-4.83,-4.83,-4.83
340.90,-3.45,1.39,-3.45,1.38,-1.38,-1.44,-1.17,-4.83,-4.83,-4.84
344.30,-3.45,1.38,-3.44,1.38,-1.38,-1.42,-1.16,-4.83,-4.83,-4.83
347.75,-3.45,1.37,-3.44,1.39,-1.39,-1.40,-1.15,-4.84,-4.82,-4.82
351.23,-3.45,1.39,-3.44,1.39,-1.39,-1.38,-1.14,-4.84,-4.82,-4.84
354.74,-3.44,1.38,-3.44,1.38,-1.38,-1.37,-1.13,-4.82,-4.82,-4.82
358.28,-3.44,1.38,-3.44,1.38,-1.38,-1.35,-1.12,-4.82,-4.81,-4.82
361.87,-3.43,1.39,-3.44,1.37,-1.37,-1.33,-1.11,-4.80,-4.81,-4.82
365.49,-3.43,1.38,-3.44,1.37,-1.37,-1.31,-1.11,-4.80,-4.81,-4.81
369.14,-3.42,1.38,-3.45,1.36,-1.36,-1.29,-1.10,-4.78,-4.80,-4.80
372.83,-3.41,1.38,-3.45,1.35,-1.35,-1.27,-1.10,-4.76,-4.80,-4.79
376.56,-3.41,1.39,-3.46,1.34,-1.34,-1.25,-1.09,-4.75,-4.80,-4.80
380.33,-3.47,1.33,-3.46,1.34,-1.34,-1.24,-1.09,-4.81,-4.80,-4.80
384.13,-3.49,1.30,-3.46,1.34,-1.34,-1.22,-1.09,-4.83,-4.80,-4.79
387.97,-3.49,1.30,-3.46,1.34,-1.34,-1.20,-1.09,-4.83,-4.80,-4.79
391.85,-3.48,1.32,-3.47,1.34,-1.34,-1.19,-1.09,-4.82,-4.80,-4.80
395.77,-3.48,1.33,-3.47,1.34,-1.34,-1.17,-1.09,-4.82,-4.81,-4.81
399.73,-3.48,1.33,-3.47,1.35,-1.35,-1.16,-1.09,-4.83,-4.81,-4.81
403.72,-3.48,1.32,-3.46,1.36,-1.36,-1.15,-1.09,-4.84,-4.82,-4.80
407.76,-3.48,1.34,-3.45,1.37,-1.37,-1.13,-1.10,-4.85,-4.82,-4.82
411.84,-3.42,1.41,-3.44,1.38,-1.38,-1.12,-1.10,-4.80,-4.83,-4.83
415.96,-3.39,1.44,-3.43,1.40,-1.40,-1.11,-1.11,-4.79,-4.83,-4.83
420.12,-3.39,1.45,-3.41,1.41,-1.41,-1.10,-1.11,-4.80,-4.82,-4.84
424.32,-3.39,1.44,-3.39,1.42,-1.42,-1.09,-1.12,-4.81,-4.81,-4.83
428.56,-3.38,1.43,-3.37,1.43,-1.43,-1.08,-1.12,-4.81,-4.80,-4.81
432.85,-3.36,1.43,-3.35,1.43,-1.43,-1.07,-1.13,-4.79,-4.78,-4.79
437.18,-3.33,1.45,-3.33,1.43,-1.43,-1.06,-1.14,-4.76,-4.76,-4.78
441.55,-3.30,1.45,-3.30,1.43,-1.43,-1.06,-1.14,-4.73,-4.72,-4.75
445.96,-3.25,1.46,-3.26,1.43,-1.43,-1.05,-1.15,-4.68,-4.69,-4.71
450.42,-3.23,1.44,-3.23,1.42,-1.42,-1.04,-1.16,-4.65,-4.65,-4.67
454.93,-3.24,1.38,-3.19,1.41,-1.41,-1.04,-1.16,-4.65,-4.60,-4.62
459.48,-3.18,1.38,-3.15,1.40,-1.40,-1.04,-1.17,-4.58,-4.55,-4.56
464.07,-3.12,1.37,-3.10,1.39,-1.39,-1.03,-1.18,-4.51,-4.49,-4.49
468.71,-3.07,1.37,-3.06,1.38,-1.38,-1.03,-1.19,-4.45,-4.44,-4.44
