frequency,raw,error,smoothed,error_smoothed,equalization,parametric_eq,fixed_band_eq,equalized_raw,equalized_smoothed,target
20.00,7.08,-0.97,7.08,-0.97,0.96,0.66,0.22,8.04,8.04,8.04
20.20,7.09,-0.95,7.08,-0.95,0.95,0.65,0.22,8.03,8.03,8.03
20.40,7.09,-0.94,7.09,-0.93,0.93,0.65,0.23,8.02,8.02,8.02
20.61,7.10,-0.92,7.10,-0.91,0.92,0.64,0.23,8.01,8.01,8.01
20.81,7.11,-0.89,7.10,-0.89,0.90,0.63,0.24,8.00,8.00,7.99
21.02,7.12,-0.87,7.12,-0.87,0.88,0.63,0.25,7.99,7.99,7.98
21.23,7.13,-0.85,7.13,-0.85,0.85,0.62,0.25,7.98,7.98,7.97
21.44,7.15,-0.84,7.14,-0.83,0.83,0.62,0.26,7.98,7.97,7.98
21.66,7.16,-0.81,7.16,-0.81,0.80,0.61,0.27,7.96,7.96,7.96
21.87,7.18,-0.79,7.17,-0.78,0.78,0.60,0.28,7.95,7.95,7.96
22.09,7.20,-0.75,7.19,-0.75,0.75,0.60,0.28,7.94,7.94,7.94
22.31,7.21,-0.73,7.22,-0.72,0.71,0.59,0.29,7.92,7.93,7.93
22.54,7.25,-0.68,7.24,-0.68,0.68,0.58,0.30,7.93,7.92,7.92
22.76,7.28,-0.65,7.27,-0.64,0.64,0.57,0.31,7.92,7.92,7.92
22.99,7.31,-0.61,7.31,-0.60,0.61,0.57,0.32,7.91,7.92,7.91
23.22,7.34,-0.57,7.34,-0.57,0.57,0.56,0.32,7.91,7.91,7.90
23.45,7.37,-0.55,7.36,-0.54,0.54,0.55,0.33,7.91,7.90,7.91
23.69,7.39,-0.52,7.39,-0.51,0.51,0.54,0.34,7.90,7.90,7.90
23.92,7.42,-0.48,7.42,-0.49,0.49,0.53,0.35,7.91,7.90,7.89
24.16,7.44,-0.47,7.43,-0.46,0.47,0.53,0.36,7.91,7.91,7.90
24.40,7.45,-0.46,7.45,-0.45,0.46,0.52,0.37,7.91,7.91,7.90
24.65,7.45,-0.45,7.45,-0.45,0.45,0.51,0.38,7.90,7.90,7.89
24.89,7.45,-0.45,7.44,-0.45,0.45,0.50,0.39,7.90,7.90,7.89
25.14,7.44,-0.45,7.44,-0.45,0.45,0.49,0.39,7.89,7.89,7.88
25.39,7.43,-0.46,7.43,-0.45,0.45,0.48,0.40,7.88,7.88,7.88
25.65,7.43,-0.46,7.43,-0.46,0.45,0.47,0.41,7.87,7.87,7.88
25.91,7.44,-0.45,7.43,-0.45,0.44,0.46,0.42,7.88,7.87,7.88
26.16,7.45,-0.45,7.45,-0.44,0.43,0.45,0.43,7.87,7.87,7.89
26.43,7.47,-0.42,7.47,-0.42,0.41,0.44,0.43,7.88,7.88,7.88
26.69,7.50,-0.39,7.49,-0.39,0.39,0.43,0.44,7.88,7.88,7.88
26.96,7.53,-0.36,7.52,-0.36,0.36,0.42,0.44,7.89,7.89,7.88
27.23,7.56,-0.33,7.56,-0.33,0.33,0.41,0.45,7.89,7.89,7.88
27.50,7.59,-0.30,7.59,-0.30,0.30,0.40,0.45,7.89,7.89,7.88
27.77,7.62,-0.28,7.62,-0.27,0.27,0.39,0.46,7.89,7.89,7.89
28.05,7.65,-0.24,7.65,-0.24,0.24,0.38,0.46,7.89,7.89,7.88
28.33,7.68,-0.22,7.67,-0.22,0.22,0.37,0.46,7.89,7.89,7.89
28.62,7.70,-0.20,7.70,-0.20,0.19,0.35,0.46,7.89,7.89,7.89
28.90,7.73,-0.18,7.72,-0.17,0.17,0.34,0.46,7.90,7.90,7.90
29.19,7.75,-0.16,7.75,-0.15,0.15,0.33,0.46,7.90,7.90,7.90
29.48,7.77,-0.13,7.76,-0.13,0.14,0.32,0.46,7.90,7.90,7.89
29.78,7.78,-0.12,7.77,-0.12,0.12,0.30,0.45,7.90,7.90,7.89
30.08,7.78,-0.12,7.78,-0.11,0.11,0.29,0.45,7.89,7.89,7.89
30.38,7.78,-0.10,7.78,-0.10,0.11,0.28,0.44,7.88,7.88,7.87
30.68,7.78,-0.10,7.77,-0.10,0.10,0.26,0.43,7.88,7.88,7.87
30.99,7.77,-0.11,7.77,-0.10,0.10,0.25,0.42,7.87,7.87,7.87
31.30,7.77,-0.11,7.76,-0.10,0.10,0.23,0.41,7.86,7.86,7.87
31.61,7.76,-0.11,7.76,-0.10,0.10,0.22,0.39,7.85,7.85,7.86
31.93,7.76,-0.09,7.76,-0.10,0.09,0.21,0.38,7.85,7.85,7.84
32.24,7.76,-0.10,7.76,-0.09,0.09,0.19,0.36,7.85,7.84,7.85
32.57,7.76,-0.08,7.76,-0.08,0.08,0.17,0.34,7.84,7.84,7.83
32.89,7.76,-0.08,7.76,-0.08,0.08,0.16,0.32,7.83,7.83,7.83
33.22,7.76,-0.07,7.76,-0.07,0.07,0.14,0.30,7.82,7.82,7.82
33.55,7.76,-0.07,7.76,-0.06,0.06,0.13,0.28,7.82,7.82,7.82
33.89,7.76,-0.06,7.76,-0.05,0.05,0.11,0.26,7.81,7.81,7.81
34.23,7.76,-0.04,7.76,-0.04,0.05,0.09,0.23,7.80,7.80,7.79
34.57,7.76,-0.04,7.76,-0.03,0.04,0.07,0.21,7.79,7.79,7.79
34.92,7.76,-0.02,7.76,-0.03,0.03,0.06,0.18,7.79,7.79,7.77
35.27,7.76,-0.04,7.76,-0.02,0.02,0.04,0.15,7.78,7.78,7.79
35.62,7.76,-0.01,7.76,-0.01,0.01,0.02,0.12,7.77,7.77,7.76
35.97,7.76,-0.01,7.76,-0.00,-0.00,-0.00,0.09,7.75,7.75,7.76
36.33,7.76,0.01,7.76,0.02,-0.02,-0.02,0.06,7.74,7.74,7.74
36.70,7.76,0.03,7.76,0.03,-0.03,-0.04,0.03,7.72,7.72,7.72
37.06,7.76,0.05,7.76,0.05,-0.05,-0.06,-0.00,7.71,7.71,7.70
37.43,7.76,0.07,7.76,0.07,-0.07,-0.08,-0.04,7.69,7.69,7.68
37.81,7.76,0.08,7.76,0.09,-0.09,-0.10,-0.07,7.67,7.67,7.67
38.19,7.76,0.11,7.76,0.11,-0.11,-0.12,-0.11,7.65,7.65,7.64
38.57,7.76,0.13,7.76,0.13,-0.13,-0.15,-0.14,7.62,7.62,7.62
38.95,7.76,0.14,7.76,0.15,-0.15,-0.17,-0.18,7.60,7.60,7.61
39.34,7.76,0.17,7.76,0.17,-0.18,-0.19,-0.21,7.58,7.58,7.58
39.74,7.76,0.20,7.76,0.20,-0.20,-0.21,-0.25,7.56,7.56,7.55
40.14,7.76,0.22,7.76,0.23,-0.22,-0.24,-0.28,7.54,7.54,7.53
40.54,7.76,0.24,7.76,0.25,-0.24,-0.26,-0.32,7.51,7.51,7.51
40.94,7.76,0.27,7.76,0.27,-0.26,-0.29,-0.36,7.49,7.49,7.48
41.35,7.76,0.28,7.76,0.29,-0.29,-0.31,-0.40,7.47,7.47,7.47
41.76,7.76,0.31,7.76,0.31,-0.31,-0.34,-0.43,7.45,7.45,7.44
42.18,7.76,0.32,7.76,0.33,-0.33,-0.36,-0.47,7.42,7.42,7.43
42.60,7.76,0.35,7.76,0.35,-0.36,-0.39,-0.51,7.40,7.40,7.40
43.03,7.76,0.37,7.76,0.38,-0.38,-0.42,-0.55,7.38,7.38,7.38
43.46,7.76,0.41,7.76,0.41,-0.40,-0.45,-0.59,7.35,7.35,7.34
43.90,7.76,0.43,7.76,0.44,-0.43,-0.47,-0.63,7.33,7.33,7.32
44.33,7.76,0.46,7.76,0.46,-0.46,-0.50,-0.67,7.30,7.30,7.29
44.78,7.76,0.48,7.76,0.48,-0.49,-0.53,-0.71,7.27,7.27,7.27
45.23,7.76,0.50,7.76,0.51,-0.52,-0.56,-0.75,7.24,7.24,7.25
45.68,7.76,0.55,7.76,0.55,-0.55,-0.59,-0.79,7.21,7.21,7.20
46.13,7.76,0.58,7.76,0.58,-0.58,-0.63,-0.84,7.17,7.17,7.17
46.60,7.76,0.62,7.76,0.62,-0.62,-0.66,-0.88,7.14,7.14,7.13
47.06,7.76,0.65,7.76,0.66,-0.66,-0.69,-0.92,7.10,7.10,7.10
47.53,7.76,0.69,7.76,0.70,-0.70,-0.72,-0.96,7.06,7.06,7.06
48.01,7.76,0.74,7.76,0.74,-0.74,-0.76,-1.01,7.01,7.01,7.01
48.49,7.76,0.78,7.76,0.78,-0.78,-0.79,-1.05,6.97,6.97,6.97
48.97,7.76,0.83,7.76,0.83,-0.83,-0.83,-1.09,6.93,6.93,6.92
49.46,7.76,0.86,7.76,0.87,-0.87,-0.86,-1.14,6.89,6.89,6.89
49.96,7.76,0.92,7.76,0.92,-0.91,-0.90,-1.18,6.84,6.84,6.83
50.46,7.76,0.95,7.76,0.95,-0.95,-0.93,-1.23,6.80,6.80,6.80
50.96,7.76,0.99,7.76,1.00,-0.99,-0.97,-1.27,6.76,6.76,6.76
51.47,7.76,1.03,7.76,1.04,-1.03,-1.01,-1.32,6.72,6.72,6.72
51.99,7.76,1.08,7.76,1.08,-1.08,-1.05,-1.36,6.68,6.68,6.67
52.51,7.76,1.11,7.76,1.11,-1.12,-1.09,-1.41,6.64,6.64,6.64
53.03,7.76,1.14,7.76,1.15,-1.16,-1.13,-1.45,6.60,6.60,6.61
53.56,7.76,1.19,7.76,1.19,-1.20,-1.17,-1.50,6.56,6.56,6.56
54.10,7.76,1.24,7.76,1.24,-1.24,-1.21,-1.54,6.52,6.52,6.51
54.64,7.76,1.28,7.76,1.29,-1.28,-1.25,-1.58,6.48,6.48,6.47
55.18,7.76,1.32,7.76,1.33,-1.32,-1.30,-1.63,6.43,6.43,6.43
55.74,7.76,1.37,7.76,1.36,-1.36,-1.34,-1.67,6.39,6.39,6.38
56.29,7.76,1.39,7.76,1.40,-1.40,-1.38,-1.71,6.36,6.36,6.36
56.86,7.76,1.43,7.76,1.44,-1.44,-1.43,-1.75,6.32,6.32,6.32
57.42,7.76,1.48,7.76,1.48,-1.48,-1.47,-1.79,6.28,6.28,6.27
58.00,7.76,1.52,7.76,1.52,-1.51,-1.52,-1.83,6.24,6.24,6.23
58.58,7.76,1.55,7.76,1.55,-1.55,-1.56,-1.87,6.20,6.20,6.20
59.16,7.76,1.58,7.76,1.59,-1.60,-1.61,-1.91,6.16,6.16,6.17
59.76,7.76,1.63,7.76,1.63,-1.64,-1.66,-1.94,6.11,6.11,6.12
60.35,7.76,1.68,7.76,1.68,-1.69,-1.71,-1.98,6.06,6.06,6.07
60.96,7.76,1.74,7.76,1.74,-1.75,-1.76,-2.01,6.01,6.01,6.01
61.57,7.76,1.80,7.76,1.80,-1.80,-1.80,-2.04,5.96,5.96,5.95
62.18,7.76,1.86,7.76,1.86,-1.86,-1.85,-2.07,5.90,5.90,5.89
62.80,7.76,1.92,7.76,1.92,-1.91,-1.90,-2.10,5.84,5.84,5.83
63.43,7.76,1.97,7.76,1.97,-1.97,-1.95,-2.13,5.79,5.79,5.78
64.07,7.76,2.02,7.76,2.03,-2.02,-2.00,-2.15,5.73,5.73,5.73
64.71,7.76,2.07,7.76,2.08,-2.08,-2.06,-2.18,5.68,5.68,5.68
65.35,7.76,2.13,7.76,2.13,-2.13,-2.11,-2.20,5.63,5.63,5.62
66.01,7.76,2.18,7.76,2.18,-2.18,-2.16,-2.22,5.58,5.58,5.57
66.67,7.76,2.22,7.76,2.23,-2.23,-2.21,-2.24,5.52,5.52,5.53
67.33,7.76,2.29,7.76,2.29,-2.29,-2.26,-2.26,5.47,5.47,5.46
68.01,7.76,2.34,7.76,2.34,-2.34,-2.31,-2.28,5.41,5.41,5.41
68.69,7.76,2.39,7.76,2.39,-2.40,-2.36,-2.30,5.36,5.36,5.36
69.37,7.76,2.44,7.76,2.45,-2.46,-2.42,-2.32,5.30,5.30,5.31
70.07,7.77,2.51,7.76,2.51,-2.52,-2.47,-2.34,5.24,5.24,5.25
70.77,7.77,2.58,7.77,2.58,-2.58,-2.52,-2.36,5.18,5.19,5.18
71.48,7.78,2.64,7.77,2.65,-2.64,-2.57,-2.38,5.13,5.13,5.13
72.19,7.78,2.70,7.78,2.71,-2.70,-2.62,-2.40,5.07,5.07,5.07
72.91,7.78,2.77,7.78,2.77,-2.76,-2.67,-2.42,5.02,5.02,5.00
73.64,7.77,2.81,7.77,2.82,-2.81,-2.72,-2.44,4.96,4.96,4.95
74.38,7.76,2.86,7.75,2.86,-2.85,-2.77,-2.46,4.90,4.90,4.89
75.12,7.74,2.89,7.73,2.89,-2.89,-2.82,-2.48,4.85,4.84,4.84
75.87,7.71,2.91,7.71,2.92,-2.92,-2.87,-2.50,4.79,4.79,4.79
76.63,7.69,2.95,7.68,2.95,-2.95,-2.92,-2.53,4.74,4.74,4.73
77.40,7.66,2.96,7.66,2.97,-2.97,-2.97,-2.55,4.69,4.69,4.69
78.17,7.63,2.99,7.62,2.99,-2.98,-3.01,-2.58,4.64,4.64,4.63
78.95,7.59,2.99,7.59,3.00,-3.00,-3.06,-2.61,4.58,4.59,4.59
79.74,7.56,3.01,7.56,3.02,-3.02,-3.10,-2.64,4.54,4.54,4.54
80.54,7.53,3.03,7.53,3.04,-3.04,-3.15,-2.67,4.49,4.49,4.49
81.35,7.51,3.07,7.50,3.06,-3.06,-3.19,-2.70,4.45,4.44,4.43
82.16,7.48,3.07,7.48,3.08,-3.08,-3.24,-2.74,4.39,4.39,4.40
82.98,7.46,3.11,7.46,3.11,-3.12,-3.28,-2.78,4.34,4.34,4.34
83.81,7.44,3.14,7.44,3.15,-3.15,-3.32,-2.82,4.28,4.29,4.29
84.65,7.43,3.19,7.43,3.19,-3.20,-3.36,-2.86,4.23,4.23,4.23
85.50,7.42,3.24,7.42,3.24,-3.24,-3.40,-2.90,4.17,4.17,4.17
86.35,7.42,3.29,7.42,3.29,-3.30,-3.44,-2.95,4.12,4.11,4.12
87.22,7.42,3.34,7.42,3.35,-3.36,-3.48,-3.00,4.06,4.06,4.07
88.09,7.44,3.42,7.43,3.42,-3.42,-3.52,-3.05,4.01,4.01,4.01
88.97,7.45,3.49,7.45,3.49,-3.49,-3.56,-3.10,3.96,3.96,3.95
89.86,7.46,3.55,7.45,3.56,-3.55,-3.59,-3.16,3.91,3.91,3.90
90.76,7.46,3.61,7.45,3.62,-3.60,-3.63,-3.22,3.85,3.85,3.84
91.66,7.45,3.67,7.45,3.67,-3.66,-3.67,-3.28,3.79,3.79,3.77
92.58,7.44,3.71,7.44,3.71,-3.71,-3.70,-3.34,3.73,3.73,3.72
93.51,7.42,3.74,7.42,3.75,-3.75,-3.74,-3.40,3.67,3.67,3.67
94.44,7.40,3.78,7.39,3.79,-3.79,-3.77,-3.47,3.61,3.60,3.61
95.39,7.37,3.82,7.37,3.82,-3.83,-3.80,-3.54,3.54,3.54,3.54
96.34,7.34,3.86,7.34,3.86,-3.86,-3.84,-3.61,3.47,3.47,3.47
97.30,7.31,3.89,7.31,3.90,-3.90,-3.87,-3.68,3.41,3.41,3.41
98.28,7.28,3.93,7.28,3.93,-3.93,-3.90,-3.76,3.34,3.34,3.34
99.26,7.25,3.96,7.25,3.97,-3.97,-3.94,-3.83,3.28,3.28,3.28
100.25,7.23,4.00,7.23,4.00,-4.00,-3.97,-3.91,3.22,3.22,3.22
101.25,7.21,4.03,7.21,4.04,-4.04,-4.00,-3.99,3.17,3.17,3.17
102.27,7.19,4.07,7.18,4.07,-4.07,-4.03,-4.07,3.12,3.12,3.11
103.29,7.16,4.10,7.16,4.10,-4.10,-4.07,-4.15,3.06,3.06,3.05
104.32,7.13,4.12,7.13,4.13,-4.13,-4.10,-4.23,3.00,3.00,3.00
105.37,7.11,4.16,7.10,4.16,-4.16,-4.13,-4.31,2.95,2.94,2.94
106.42,7.08,4.18,7.08,4.18,-4.19,-4.17,-4.39,2.89,2.89,2.89
107.48,7.05,4.21,7.05,4.21,-4.22,-4.20,-4.47,2.83,2.83,2.83
108.56,7.03,4.24,7.03,4.25,-4.25,-4.23,-4.55,2.78,2.78,2.78
109.64,7.01,4.28,7.01,4.28,-4.28,-4.26,-4.63,2.73,2.72,2.72
110.74,6.99,4.32,6.98,4.32,-4.31,-4.30,-4.71,2.67,2.67,2.66
111.85,6.96,4.35,6.96,4.35,-4.35,-4.33,-4.78,2.61,2.61,2.60
112.97,6.93,4.37,6.93,4.38,-4.38,-4.36,-4.85,2.55,2.55,2.55
114.10,6.90,4.40,6.90,4.41,-4.41,-4.40,-4.92,2.48,2.48,2.49
115.24,6.87,4.45,6.87,4.45,-4.45,-4.43,-4.99,2.42,2.42,2.41
116.39,6.84,4.48,6.84,4.49,-4.48,-4.47,-5.05,2.35,2.36,2.35
117.55,6.82,4.52,6.81,4.52,-4.52,-4.50,-5.11,2.29,2.29,2.29
118.73,6.80,4.56,6.80,4.56,-4.56,-4.54,-5.16,2.23,2.23,2.23
119.92,6.79,4.59,6.79,4.60,-4.61,-4.57,-5.21,2.18,2.18,2.19
121.12,6.79,4.64,6.78,4.65,-4.66,-4.61,-5.25,2.13,2.13,2.14
122.33,6.79,4.70,6.79,4.70,-4.70,-4.64,-5.29,2.08,2.08,2.08
123.55,6.79,4.75,6.79,4.75,-4.75,-4.68,-5.32,2.04,2.04,2.03
124.79,6.79,4.80,6.78,4.80,-4.80,-4.71,-5.35,1.99,1.99,1.98
126.03,6.78,4.85,6.77,4.85,-4.84,-4.75,-5.37,1.94,1.93,1.92
127.29,6.76,4.88,6.76,4.89,-4.88,-4.79,-5.39,1.88,1.87,1.87
128.57,6.73,4.92,6.73,4.92,-4.92,-4.82,-5.40,1.81,1.81,1.80
129.85,6.71,4.95,6.70,4.95,-4.95,-4.86,-5.40,1.76,1.75,1.75
131.15,6.68,4.98,6.67,4.98,-4.98,-4.90,-5.40,1.70,1.69,1.69
132.46,6.64,4.99,6.64,5.00,-5.01,-4.93,-5.40,1.63,1.63,1.64
133.79,6.61,5.02,6.61,5.02,-5.03,-4.97,-5.39,1.57,1.58,1.58
135.12,6.59,5.05,6.59,5.05,-5.06,-5.01,-5.38,1.53,1.53,1.53
136.48,6.57,5.08,6.57,5.09,-5.08,-5.04,-5.36,1.48,1.48,1.48
137.84,6.55,5.11,6.54,5.11,-5.11,-5.08,-5.34,1.44,1.43,1.43
139.22,6.52,5.14,6.52,5.14,-5.13,-5.12,-5.32,1.38,1.38,1.37
140.61,6.49,5.15,6.49,5.16,-5.16,-5.15,-5.30,1.33,1.33,1.33
142.02,6.47,5.19,6.46,5.18,-5.18,-5.19,-5.27,1.28,1.28,1.27
143.44,6.44,5.20,6.44,5.20,-5.21,-5.22,-5.24,1.23,1.23,1.23
144.87,6.41,5.21,6.41,5.22,-5.23,-5.26,-5.22,1.18,1.18,1.19
146.32,6.39,5.24,6.39,5.24,-5.25,-5.30,-5.19,1.14,1.14,1.14
147.78,6.37,5.26,6.37,5.27,-5.26,-5.33,-5.16,1.10,1.10,1.10
149.26,6.35,5.29,6.34,5.29,-5.28,-5.37,-5.13,1.07,1.06,1.05
150.75,6.32,5.30,6.32,5.30,-5.29,-5.40,-5.10,1.02,1.02,1.01
152.26,6.29,5.31,6.29,5.31,-5.31,-5.44,-5.08,0.98,0.98,0.97
153.78,6.26,5.32,6.26,5.32,-5.32,-5.47,-5.06,0.93,0.93,0.93
155.32,6.23,5.33,6.22,5.34,-5.34,-5.50,-5.03,0.89,0.88,0.89
156.88,6.20,5.35,6.20,5.35,-5.36,-5.54,-5.01,0.84,0.84,0.84
158.44,6.17,5.37,6.17,5.37,-5.38,-5.57,-5.00,0.78,0.79,0.79
160.03,6.16,5.40,6.15,5.40,-5.41,-5.60,-4.98,0.75,0.74,0.75
161.63,6.15,5.43,6.14,5.44,-5.44,-5.63,-4.97,0.70,0.70,0.71
163.24,6.14,5.47,6.14,5.48,-5.48,-5.66,-4.96,0.65,0.66,0.66
164.88,6.14,5.52,6.14,5.52,-5.52,-5.69,-4.96,0.61,0.61,0.61
166.53,6.14,5.57,6.14,5.57,-5.57,-5.72,-4.95,0.57,0.57,0.56
168.19,6.14,5.60,6.14,5.61,-5.61,-5.75,-4.96,0.53,0.53,0.53
169.87,6.13,5.65,6.13,5.65,-5.64,-5.78,-4.96,0.48,0.48,0.47
171.57,6.12,5.69,6.11,5.68,-5.68,-5.81,-4.97,0.44,0.44,0.42
173.29,6.09,5.70,6.09,5.71,-5.71,-5.83,-4.98,0.38,0.39,0.38
175.02,6.07,5.73,6.06,5.73,-5.73,-5.86,-5.00,0.34,0.34,0.33
176.77,6.04,5.75,6.03,5.75,-5.75,-5.88,-5.02,0.29,0.28,0.28
178.54,6.00,5.75,6.00,5.76,-5.76,-5.90,-5.04,0.23,0.24,0.24
180.32,5.97,5.78,5.97,5.77,-5.78,-5.93,-5.07,0.19,0.19,0.18
182.13,5.94,5.78,5.93,5.79,-5.79,-5.95,-5.10,0.15,0.14,0.15
183.95,5.91,5.80,5.91,5.81,-5.80,-5.97,-5.14,0.10,0.10,0.10
185.79,5.88,5.82,5.88,5.82,-5.82,-5.99,-5.18,0.06,0.06,0.05
187.65,5.86,5.84,5.85,5.84,-5.84,-6.00,-5.22,0.02,0.01,0.01
189.52,5.83,5.85,5.83,5.86,-5.87,-6.02,-5.27,-0.04,-0.04,-0.03
191.42,5.82,5.88,5.81,5.88,-5.90,-6.04,-5.32,-0.08,-0.08,-0.07
193.33,5.81,5.91,5.81,5.92,-5.93,-6.05,-5.37,-0.13,-0.13,-0.11
195.27,5.81,5.96,5.81,5.97,-5.97,-6.06,-5.42,-0.17,-0.16,-0.16
197.22,5.82,6.02,5.81,6.01,-6.01,-6.07,-5.48,-0.20,-0.20,-0.21
199.19,5.82,6.05,5.82,6.06,-6.05,-6.08,-5.55,-0.23,-0.23,-0.24
201.18,5.83,6.10,5.82,6.10,-6.08,-6.09,-5.61,-0.26,-0.26,-0.28
203.19,5.82,6.12,5.82,6.12,-6.11,-6.10,-5.68,-0.29,-0.29,-0.31
205.23,5.81,6.13,5.81,6.14,-6.13,-6.11,-5.74,-0.32,-0.32,-0.33
207.28,5.79,6.14,5.78,6.15,-6.14,-6.11,-5.81,-0.36,-0.36,-0.36
209.35,5.76,6.15,5.76,6.15,-6.15,-6.12,-5.88,-0.40,-0.39,-0.40
211.44,5.73,6.15,5.73,6.15,-6.16,-6.12,-5.95,-0.43,-0.43,-0.43
213.56,5.70,6.14,5.70,6.15,-6.16,-6.12,-6.02,-0.46,-0.46,-0.45
215.69,5.67,6.14,5.67,6.15,-6.16,-6.12,-6.10,-0.49,-0.49,-0.48
217.85,5.65,6.15,5.65,6.15,-6.16,-6.12,-6.16,-0.51,-0.51,-0.51
220.03,5.63,6.16,5.62,6.16,-6.16,-6.12,-6.23,-0.53,-0.53,-0.54
222.23,5.60,6.16,5.60,6.16,-6.15,-6.11,-6.30,-0.55,-0.55,-0.57
224.45,5.57,6.14,5.57,6.15,-6.14,-6.11,-6.36,-0.58,-0.58,-0.58
226.70,5.54,6.14,5.54,6.14,-6.13,-6.10,-6.42,-0.60,-0.60,-0.61
228.96,5.51,6.12,5.50,6.12,-6.12,-6.09,-6.47,-0.61,-0.62,-0.62
231.25,5.47,6.10,5.47,6.10,-6.11,-6.08,-6.52,-0.64,-0.64,-0.64
233.57,5.43,6.08,5.43,6.09,-6.09,-6.07,-6.57,-0.67,-0.66,-0.66
235.90,5.40,6.06,5.40,6.07,-6.08,-6.06,-6.61,-0.68,-0.68,-0.67
238.26,5.37,6.06,5.37,6.05,-6.06,-6.04,-6.64,-0.70,-0.70,-0.70
240.64,5.35,6.03,5.35,6.04,-6.05,-6.03,-6.66,-0.70,-0.70,-0.69
243.05,5.33,6.03,5.33,6.04,-6.04,-6.01,-6.68,-0.71,-0.71,-0.71
245.48,5.32,6.03,5.31,6.02,-6.02,-5.99,-6.69,-0.70,-0.71,-0.72
247.93,5.29,6.01,5.29,6.01,-6.00,-5.98,-6.69,-0.72,-0.71,-0.73
250.41,5.27,5.98,5.26,5.99,-5.98,-5.96,-6.68,-0.71,-0.72,-0.72
252.92,5.24,5.96,5.23,5.96,-5.96,-5.94,-6.67,-0.72,-0.72,-0.73
255.45,5.20,5.93,5.20,5.93,-5.93,-5.91,-6.64,-0.73,-0.73,-0.74
258.00,5.17,5.90,5.16,5.90,-5.90,-5.89,-6.61,-0.73,-0.74,-0.74
260.58,5.13,5.86,5.12,5.86,-5.87,-5.87,-6.57,-0.74,-0.75,-0.74
263.19,5.09,5.82,5.09,5.83,-5.84,-5.84,-6.52,-0.76,-0.75,-0.74
265.82,5.06,5.80,5.06,5.80,-5.82,-5.81,-6.47,-0.76,-0.76,-0.75
268.48,5.04,5.78,5.04,5.79,-5.80,-5.79,-6.41,-0.76,-0.76,-0.75
271.16,5.03,5.77,5.02,5.77,-5.77,-5.76,-6.34,-0.75,-0.75,-0.75
273.87,5.01,5.75,5.01,5.75,-5.75,-5.73,-6.27,-0.74,-0.74,-0.75
276.61,4.99,5.73,4.98,5.74,-5.72,-5.70,-6.19,-0.74,-0.74,-0.75
279.38,4.95,5.71,4.95,5.71,-5.69,-5.67,-6.11,-0.75,-0.74,-0.77
282.17,4.92,5.68,4.91,5.67,-5.66,-5.63,-6.02,-0.75,-0.75,-0.77
284.99,4.87,5.62,4.87,5.63,-5.63,-5.60,-5.93,-0.76,-0.76,-0.76
287.84,4.83,5.57,4.83,5.58,-5.59,-5.57,-5.84,-0.76,-0.76,-0.75
290.72,4.79,5.54,4.79,5.54,-5.55,-5.53,-5.75,-0.77,-0.76,-0.76
293.63,4.76,5.50,4.76,5.50,-5.51,-5.50,-5.66,-0.76,-0.76,-0.75
296.57,4.73,5.46,4.73,5.47,-5.47,-5.46,-5.56,-0.75,-0.75,-0.74
299.53,4.71,5.44,4.70,5.43,-5.44,-5.42,-5.47,-0.73,-0.73,-0.74
302.53,4.68,5.39,4.68,5.40,-5.40,-5.39,-5.38,-0.72,-0.72,-0.72
305.55,4.65,5.37,4.65,5.37,-5.36,-5.35,-5.28,-0.71,-0.71,-0.73
308.61,4.62,5.33,4.61,5.33,-5.32,-5.31,-5.19,-0.70,-0.71,-0.72
311.69,4.57,5.27,4.57,5.28,-5.27,-5.27,-5.10,-0.71,-0.70,-0.71
314.81,4.53,5.23,4.52,5.23,-5.23,-5.23,-5.01,-0.70,-0.71,-0.71
317.96,4.48,5.17,4.48,5.18,-5.18,-5.19,-4.93,-0.71,-0.70,-0.70
321.14,4.44,5.12,4.44,5.13,-5.14,-5.15,-4.84,-0.70,-0.70,-0.69
324.35,4.41,5.09,4.40,5.08,-5.09,-5.11,-4.76,-0.68,-0.69,-0.69
327.59,4.37,5.02,4.37,5.04,-5.04,-5.07,-4.68,-0.68,-0.68,-0.66
330.87,4.34,5.00,4.34,5.00,-5.00,-5.02,-4.60,-0.66,-0.66,-0.67
334.18,4.31,4.96,4.30,4.96,-4.95,-4.98,-4.53,-0.65,-0.65,-0.66
337.52,4.27,4.92,4.27,4.92,-4.90,-4.94,-4.46,-0.64,-0.64,-0.66
340.90,4.23,4.86,4.22,4.86,-4.86,-4.89,-4.39,-0.63,-0.63,-0.64
344.30,4.18,4.80,4.18,4.81,-4.81,-4.85,-4.33,-0.64,-0.63,-0.63
347.75,4.14,4.76,4.13,4.76,-4.77,-4.81,-4.27,-0.63,-0.63,-0.63
351.23,4.09,4.71,4.09,4.71,-4.72,-4.76,-4.21,-0.63,-0.63,-0.63
354.74,4.06,4.65,4.06,4.67,-4.68,-4.72,-4.15,-0.62,-0.62,-0.60
358.28,4.03,4.63,4.03,4.63,-4.64,-4.67,-4.10,-0.61,-0.61,-0.61
361.87,4.01,4.60,4.00,4.60,-4.60,-4.63,-4.05,-0.59,-0.59,-0.60
365.49,3.98,4.56,3.98,4.57,-4.56,-4.58,-4.01,-0.58,-0.58,-0.59
369.14,3.96,4.52,3.95,4.53,-4.52,-4.54,-3.96,-0.56,-0.57,-0.57
372.83,3.92,4.48,3.92,4.49,-4.48,-4.49,-3.93,-0.56,-0.56,-0.57
376.56,3.88,4.44,3.88,4.44,-4.44,-4.44,-3.89,-0.56,-0.56,-0.57
380.33,3.84,4.39,3.84,4.39,-4.40,-4.40,-3.86,-0.56,-0.56,-0.56
384.13,3.80,4.33,3.80,4.34,-4.35,-4.35,-3.82,-0.56,-0.56,-0.54
387.97,3.77,4.30,3.77,4.30,-4.31,-4.31,-3.80,-0.55,-0.55,-0.54
391.85,3.74,4.26,3.74,4.27,-4.27,-4.26,-3.77,-0.53,-0.53,-0.53
395.77,3.72,4.23,3.71,4.23,-4.23,-4.21,-3.75,-0.51,-0.51,-0.52
399.73,3.69,4.19,3.69,4.19,-4.18,-4.17,-3.73,-0.49,-0.49,-0.51
403.72,3.66,4.13,3.65,4.15,-4.13,-4.12,-3.71,-0.48,-0.48,-0.48
407.76,3.62,4.10,3.61,4.09,-4.09,-4.07,-3.69,-0.47,-0.47,-0.49
411.84,3.57,4.04,3.57,4.04,-4.04,-4.03,-3.68,-0.47,-0.47,-0.48
415.96,3.52,3.97,3.52,3.99,-3.99,-3.98,-3.66,-0.47,-0.47,-0.46
420.12,3.48,3.93,3.48,3.93,-3.94,-3.93,-3.65,-0.47,-0.46,-0.46
424.32,3.45,3.89,3.44,3.88,-3.89,-3.89,-3.64,-0.45,-0.45,-0.45
428.56,3.41,3.83,3.41,3.84,-3.85,-3.84,-3.63,-0.44,-0.44,-0.43
432.85,3.38,3.79,3.38,3.80,-3.80,-3.79,-3.62,-0.43,-0.43,-0.42
437.18,3.35,3.77,3.34,3.76,-3.76,-3.74,-3.61,-0.41,-0.41,-0.43
441.55,3.31,3.72,3.31,3.73,-3.71,-3.70,-3.60,-0.41,-0.40,-0.42
445.96,3.28,3.68,3.27,3.68,-3.66,-3.65,-3.59,-0.39,-0.39,-0.41
450.42,3.23,3.62,3.23,3.62,-3.62,-3.60,-3.58,-0.39,-0.39,-0.40
454.93,3.18,3.56,3.18,3.57,-3.57,-3.56,-3.56,-0.39,-0.39,-0.39
459.48,3.14,3.51,3.14,3.51,-3.52,-3.51,-3.55,-0.38,-0.39,-0.38
464.07,3.10,3.45,3.10,3.46,-3.47,-3.46,-3.54,-0.38,-0.38,-0.36
468.71,3.07,3.41,3.07,3.42,-3.43,-3.42,-3.52,-0.36,-0.36,-0.35
473.40,3.04,3.38,3.04,3.38,-3.39,-3.37,-3.50,-0.35,-0.35,-0.35
478.13,3.02,3.35,3.01,3.35,-3.34,-3.32,-3.48,-0.33,-0.33,-0.34
482.91,2.99,3.31,2.99,3.31,-3.30,-3.28,-3.46,-0.32,-0.32,-0.33
487.74,2.96,3.27,2.95,3.27,-3.26,-3.23,-3.43,-0.31,-0.31,-0.32
492.62,2.92,3.22,2.92,3.22,-3.22,-3.18,-3.40,-0.31,-0.31,-0.31
497.55,2.88,3.17,2.88,3.18,-3.18,-3.14,-3.37,-0.30,-0.30,-0.30
502.52,2.85,3.13,2.85,3.13,-3.13,-3.09,-3.34,-0.29,-0.29,-0.29
507.55,2.82,3.08,2.81,3.09,-3.09,-3.04,-3.30,-0.27,-0.27,-0.27
512.62,2.79,3.04,2.78,3.04,-3.04,-3.00,-3.26,-0.25,-0.26,-0.26
517.75,2.75,2.98,2.75,2.99,-2.99,-2.95,-3.22,-0.24,-0.24,-0.24
522.93,2.72,2.94,2.71,2.94,-2.94,-2.90,-3.17,-0.23,-0.23,-0.23
