frequency,raw,error,smoothed,error_smoothed,equalization,parametric_eq,fixed_band_eq,equalized_raw,equalized_smoothed,target
20.00,7.08,-0.97,7.06,-0.99,0.99,0.78,0.16,8.06,8.05,8.04
20.20,7.09,-0.95,7.07,-0.96,0.96,0.79,0.17,8.05,8.03,8.03
20.40,7.09,-0.94,7.08,-0.94,0.94,0.80,0.18,8.02,8.02,8.02
20.61,7.10,-0.92,7.10,-0.91,0.91,0.80,0.18,8.01,8.01,8.01
20.81,7.11,-0.89,7.11,-0.89,0.89,0.80,0.19,7.99,8.00,7.99
21.02,7.12,-0.87,7.12,-0.86,0.86,0.81,0.20,7.98,7.99,7.98
21.23,7.13,-0.85,7.14,-0.84,0.84,0.81,0.20,7.96,7.98,7.97
21.44,7.15,-0.84,7.16,-0.81,0.81,0.81,0.21,7.96,7.97,7.98
21.66,7.16,-0.81,7.17,-0.78,0.78,0.81,0.22,7.94,7.96,7.96
21.87,7.18,-0.79,7.19,-0.76,0.76,0.81,0.23,7.94,7.95,7.96
22.09,7.20,-0.75,7.21,-0.73,0.73,0.81,0.24,7.93,7.94,7.94
22.31,7.21,-0.73,7.23,-0.71,0.71,0.80,0.24,7.91,7.94,7.93
22.54,7.25,-0.68,7.26,-0.67,0.67,0.80,0.25,7.92,7.93,7.92
22.76,7.28,-0.65,7.28,-0.64,0.64,0.79,0.26,7.92,7.92,7.92
22.99,7.31,-0.61,7.31,-0.61,0.61,0.79,0.27,7.91,7.92,7.91
23.22,7.34,-0.57,7.33,-0.58,0.58,0.78,0.28,7.92,7.91,7.90
23.45,7.37,-0.55,7.36,-0.55,0.55,0.77,0.29,7.92,7.91,7.91
23.69,7.39,-0.52,7.37,-0.53,0.53,0.76,0.30,7.91,7.90,7.90
23.92,7.42,-0.48,7.39,-0.51,0.51,0.76,0.31,7.92,7.90,7.89
24.16,7.44,-0.47,7.40,-0.49,0.49,0.74,0.32,7.93,7.90,7.90
24.40,7.45,-0.46,7.42,-0.48,0.48,0.73,0.33,7.92,7.89,7.90
24.65,7.45,-0.45,7.42,-0.47,0.47,0.72,0.34,7.91,7.89,7.89
24.89,7.45,-0.45,7.43,-0.46,0.46,0.71,0.35,7.90,7.89,7.89
25.14,7.44,-0.45,7.44,-0.45,0.45,0.69,0.36,7.89,7.89,7.88
25.39,7.43,-0.46,7.45,-0.44,0.44,0.68,0.37,7.87,7.89,7.88
25.65,7.43,-0.46,7.45,-0.43,0.43,0.66,0.38,7.86,7.89,7.88
25.91,7.44,-0.45,7.46,-0.42,0.42,0.65,0.39,7.86,7.88,7.88
26.16,7.45,-0.45,7.48,-0.41,0.41,0.63,0.40,7.85,7.88,7.89
26.43,7.47,-0.42,7.49,-0.39,0.39,0.61,0.41,7.86,7.88,7.88
26.69,7.50,-0.39,7.51,-0.38,0.38,0.59,0.41,7.87,7.88,7.88
26.96,7.53,-0.36,7.53,-0.35,0.35,0.57,0.42,7.88,7.88,7.88
27.23,7.56,-0.33,7.56,-0.33,0.33,0.55,0.43,7.89,7.89,7.88
27.50,7.59,-0.30,7.58,-0.31,0.31,0.53,0.43,7.89,7.89,7.88
27.77,7.62,-0.28,7.61,-0.28,0.28,0.51,0.44,7.89,7.89,7.89
28.05,7.65,-0.24,7.64,-0.25,0.25,0.49,0.44,7.90,7.89,7.88
28.33,7.68,-0.22,7.67,-0.22,0.22,0.47,0.45,7.90,7.89,7.89
28.62,7.70,-0.20,7.69,-0.20,0.20,0.45,0.45,7.89,7.89,7.89
28.90,7.73,-0.18,7.72,-0.18,0.18,0.42,0.45,7.90,7.89,7.90
29.19,7.75,-0.16,7.73,-0.16,0.16,0.40,0.45,7.90,7.89,7.90
29.48,7.77,-0.13,7.75,-0.14,0.14,0.38,0.45,7.91,7.89,7.89
29.78,7.78,-0.12,7.76,-0.13,0.13,0.36,0.45,7.91,7.89,7.89
30.08,7.78,-0.12,7.77,-0.12,0.12,0.33,0.45,7.90,7.89,7.89
30.38,7.78,-0.10,7.77,-0.11,0.11,0.31,0.44,7.89,7.88,7.87
30.68,7.78,-0.10,7.77,-0.10,0.10,0.28,0.43,7.88,7.88,7.87
30.99,7.77,-0.11,7.77,-0.10,0.10,0.26,0.42,7.87,7.87,7.87
31.30,7.77,-0.11,7.77,-0.10,0.10,0.24,0.41,7.86,7.87,7.87
31.61,7.76,-0.11,7.77,-0.09,0.09,0.21,0.40,7.85,7.86,7.86
31.93,7.76,-0.09,7.77,-0.09,0.09,0.19,0.39,7.84,7.85,7.84
32.24,7.76,-0.10,7.76,-0.08,0.08,0.16,0.37,7.84,7.85,7.85
32.57,7.76,-0.08,7.76,-0.08,0.08,0.14,0.36,7.83,7.84,7.83
32.89,7.76,-0.08,7.76,-0.08,0.08,0.11,0.34,7.83,7.83,7.83
33.22,7.76,-0.07,7.76,-0.07,0.07,0.09,0.32,7.83,7.83,7.82
33.55,7.76,-0.07,7.76,-0.06,0.06,0.06,0.30,7.82,7.82,7.82
33.89,7.76,-0.06,7.75,-0.06,0.06,0.04,0.28,7.81,7.81,7.81
34.23,7.76,-0.04,7.75,-0.05,0.05,0.02,0.25,7.80,7.80,7.79
34.57,7.76,-0.04,7.76,-0.04,0.04,-0.01,0.23,7.80,7.79,7.79
34.92,7.76,-0.02,7.76,-0.03,0.03,-0.03,0.20,7.78,7.78,7.77
35.27,7.76,-0.04,7.76,-0.02,0.02,-0.06,0.18,7.77,7.77,7.79
35.62,7.76,-0.01,7.76,-0.01,0.01,-0.08,0.15,7.76,7.76,7.76
35.97,7.76,-0.01,7.76,0.01,-0.01,-0.11,0.12,7.75,7.75,7.76
36.33,7.76,0.01,7.76,0.02,-0.02,-0.13,0.09,7.74,7.74,7.74
36.70,7.76,0.03,7.76,0.04,-0.04,-0.16,0.06,7.72,7.72,7.72
37.06,7.76,0.05,7.76,0.05,-0.05,-0.18,0.03,7.70,7.70,7.70
37.43,7.76,0.07,7.76,0.07,-0.07,-0.21,-0.00,7.69,7.69,7.68
37.81,7.76,0.08,7.76,0.09,-0.09,-0.23,-0.04,7.67,7.67,7.67
38.19,7.76,0.11,7.76,0.11,-0.11,-0.26,-0.07,7.65,7.65,7.64
38.57,7.76,0.13,7.76,0.13,-0.13,-0.28,-0.10,7.63,7.63,7.62
38.95,7.76,0.14,7.76,0.15,-0.15,-0.31,-0.14,7.60,7.60,7.61
39.34,7.76,0.17,7.76,0.17,-0.17,-0.33,-0.17,7.58,7.58,7.58
39.74,7.76,0.20,7.76,0.20,-0.20,-0.36,-0.21,7.56,7.56,7.55
40.14,7.76,0.22,7.76,0.22,-0.22,-0.38,-0.25,7.54,7.54,7.53
40.54,7.76,0.24,7.76,0.24,-0.24,-0.41,-0.28,7.51,7.51,7.51
40.94,7.76,0.27,7.76,0.26,-0.26,-0.43,-0.32,7.49,7.49,7.48
41.35,7.76,0.28,7.76,0.29,-0.29,-0.46,-0.36,7.47,7.47,7.47
41.76,7.76,0.31,7.76,0.31,-0.31,-0.48,-0.39,7.45,7.45,7.44
42.18,7.76,0.32,7.76,0.33,-0.33,-0.51,-0.43,7.42,7.42,7.43
42.60,7.76,0.35,7.76,0.36,-0.36,-0.53,-0.47,7.40,7.40,7.40
43.03,7.76,0.37,7.76,0.38,-0.38,-0.56,-0.51,7.38,7.38,7.38
43.46,7.76,0.41,7.76,0.41,-0.41,-0.58,-0.55,7.35,7.35,7.34
43.90,7.76,0.43,7.76,0.43,-0.43,-0.61,-0.59,7.33,7.33,7.32
44.33,7.76,0.46,7.76,0.46,-0.46,-0.64,-0.63,7.30,7.30,7.29
44.78,7.76,0.48,7.76,0.49,-0.49,-0.66,-0.67,7.27,7.27,7.27
45.23,7.76,0.50,7.76,0.52,-0.52,-0.69,-0.71,7.24,7.24,7.25
45.68,7.76,0.55,7.76,0.55,-0.55,-0.71,-0.75,7.20,7.20,7.20
46.13,7.76,0.58,7.76,0.59,-0.59,-0.74,-0.79,7.17,7.17,7.17
46.60,7.76,0.62,7.76,0.62,-0.62,-0.77,-0.83,7.13,7.13,7.13
47.06,7.76,0.65,7.76,0.66,-0.66,-0.79,-0.88,7.09,7.09,7.10
47.53,7.76,0.69,7.76,0.70,-0.70,-0.82,-0.92,7.05,7.05,7.06
48.01,7.76,0.74,7.76,0.74,-0.74,-0.84,-0.96,7.01,7.01,7.01
48.49,7.76,0.78,7.76,0.78,-0.78,-0.87,-1.01,6.97,6.97,6.97
48.97,7.76,0.83,7.76,0.82,-0.82,-0.90,-1.05,6.93,6.93,6.92
49.46,7.76,0.86,7.76,0.87,-0.87,-0.93,-1.09,6.89,6.89,6.89
49.96,7.76,0.92,7.76,0.91,-0.91,-0.95,-1.14,6.85,6.85,6.83
50.46,7.76,0.95,7.76,0.95,-0.95,-0.98,-1.18,6.81,6.81,6.80
50.96,7.76,0.99,7.76,0.99,-0.99,-1.01,-1.23,6.76,6.76,6.76
51.47,7.76,1.03,7.76,1.03,-1.03,-1.04,-1.27,6.72,6.72,6.72
51.99,7.76,1.08,7.76,1.08,-1.08,-1.06,-1.32,6.68,6.68,6.67
52.51,7.76,1.11,7.76,1.12,-1.12,-1.09,-1.36,6.64,6.64,6.64
53.03,7.76,1.14,7.76,1.16,-1.16,-1.12,-1.41,6.60,6.60,6.61
53.56,7.76,1.19,7.76,1.20,-1.20,-1.15,-1.45,6.56,6.56,6.56
54.10,7.76,1.24,7.76,1.24,-1.24,-1.18,-1.49,6.52,6.52,6.51
54.64,7.76,1.28,7.76,1.28,-1.28,-1.21,-1.54,6.48,6.48,6.47
55.18,7.76,1.32,7.76,1.32,-1.32,-1.24,-1.58,6.44,6.44,6.43
55.74,7.76,1.37,7.76,1.35,-1.35,-1.26,-1.62,6.40,6.40,6.38
56.29,7.76,1.39,7.76,1.39,-1.39,-1.29,-1.66,6.36,6.36,6.36
56.86,7.76,1.43,7.76,1.43,-1.43,-1.32,-1.71,6.32,6.32,6.32
57.42,7.76,1.48,7.76,1.47,-1.47,-1.35,-1.75,6.28,6.28,6.27
58.00,7.76,1.52,7.76,1.52,-1.52,-1.39,-1.78,6.24,6.24,6.23
58.58,7.76,1.55,7.76,1.56,-1.56,-1.42,-1.82,6.19,6.19,6.20
59.16,7.76,1.58,7.76,1.61,-1.61,-1.45,-1.86,6.15,6.15,6.17
59.76,7.76,1.63,7.76,1.65,-1.65,-1.48,-1.89,6.10,6.10,6.12
60.35,7.76,1.68,7.76,1.70,-1.70,-1.51,-1.93,6.05,6.05,6.07
60.96,7.76,1.74,7.76,1.75,-1.75,-1.54,-1.96,6.01,6.01,6.01
61.57,7.76,1.80,7.76,1.80,-1.80,-1.57,-1.99,5.95,5.95,5.95
62.18,7.76,1.86,7.76,1.85,-1.85,-1.61,-2.02,5.90,5.90,5.89
62.80,7.76,1.92,7.76,1.91,-1.91,-1.64,-2.05,5.85,5.85,5.83
63.43,7.76,1.97,7.76,1.96,-1.96,-1.67,-2.08,5.80,5.79,5.78
64.07,7.76,2.02,7.75,2.01,-2.01,-1.71,-2.11,5.74,5.74,5.73
64.71,7.76,2.07,7.75,2.07,-2.07,-1.74,-2.13,5.69,5.69,5.68
65.35,7.76,2.13,7.76,2.13,-2.13,-1.77,-2.16,5.63,5.63,5.62
66.01,7.76,2.18,7.76,2.18,-2.18,-1.81,-2.18,5.57,5.57,5.57
66.67,7.76,2.22,7.76,2.24,-2.24,-1.84,-2.20,5.52,5.52,5.53
67.33,7.76,2.29,7.76,2.30,-2.30,-1.88,-2.22,5.46,5.47,5.46
68.01,7.76,2.34,7.76,2.35,-2.35,-1.91,-2.24,5.40,5.41,5.41
68.69,7.76,2.39,7.77,2.41,-2.41,-1.95,-2.26,5.34,5.36,5.36
69.37,7.76,2.44,7.77,2.47,-2.47,-1.98,-2.28,5.29,5.30,5.31
70.07,7.77,2.51,7.77,2.53,-2.53,-2.02,-2.30,5.24,5.24,5.25
70.77,7.77,2.58,7.77,2.59,-2.59,-2.06,-2.32,5.18,5.19,5.18
71.48,7.78,2.64,7.77,2.64,-2.64,-2.09,-2.34,5.13,5.13,5.13
72.19,7.78,2.70,7.77,2.70,-2.70,-2.13,-2.36,5.08,5.07,5.07
72.91,7.78,2.77,7.76,2.75,-2.75,-2.17,-2.38,5.03,5.01,5.00
73.64,7.77,2.81,7.75,2.79,-2.79,-2.20,-2.40,4.97,4.96,4.95
74.38,7.76,2.86,7.74,2.84,-2.84,-2.24,-2.42,4.92,4.90,4.89
75.12,7.74,2.89,7.72,2.87,-2.87,-2.28,-2.45,4.86,4.85,4.84
75.87,7.71,2.91,7.70,2.91,-2.91,-2.32,-2.47,4.80,4.79,4.79
76.63,7.69,2.95,7.68,2.94,-2.94,-2.36,-2.49,4.75,4.74,4.73
77.40,7.66,2.96,7.65,2.96,-2.96,-2.40,-2.52,4.70,4.69,4.69
78.17,7.63,2.99,7.62,2.98,-2.98,-2.44,-2.55,4.64,4.64,4.63
78.95,7.59,2.99,7.59,3.00,-3.00,-2.48,-2.58,4.58,4.59,4.59
79.74,7.56,3.01,7.56,3.02,-3.02,-2.52,-2.61,4.53,4.54,4.54
80.54,7.53,3.03,7.53,3.04,-3.04,-2.56,-2.64,4.48,4.49,4.49
81.35,7.51,3.07,7.51,3.07,-3.07,-2.60,-2.68,4.44,4.44,4.43
82.16,7.48,3.07,7.49,3.10,-3.10,-2.64,-2.71,4.38,4.39,4.40
82.98,7.46,3.11,7.47,3.13,-3.13,-2.68,-2.75,4.33,4.34,4.34
83.81,7.44,3.14,7.46,3.17,-3.17,-2.73,-2.79,4.27,4.29,4.29
84.65,7.43,3.19,7.45,3.21,-3.21,-2.77,-2.83,4.21,4.23,4.23
85.50,7.42,3.24,7.44,3.26,-3.26,-2.81,-2.88,4.16,4.18,4.17
86.35,7.42,3.29,7.44,3.31,-3.31,-2.85,-2.92,4.10,4.12,4.12
87.22,7.42,3.34,7.44,3.37,-3.37,-2.90,-2.97,4.05,4.07,4.07
88.09,7.44,3.42,7.44,3.42,-3.42,-2.94,-3.03,4.01,4.01,4.01
88.97,7.45,3.49,7.44,3.48,-3.48,-2.98,-3.08,3.97,3.96,3.95
89.86,7.46,3.55,7.43,3.53,-3.53,-3.03,-3.13,3.92,3.90,3.90
90.76,7.46,3.61,7.43,3.59,-3.59,-3.07,-3.19,3.87,3.84,3.84
91.66,7.45,3.67,7.42,3.64,-3.64,-3.12,-3.25,3.80,3.78,3.77
92.58,7.44,3.71,7.41,3.69,-3.69,-3.16,-3.32,3.74,3.72,3.72
93.51,7.42,3.74,7.40,3.74,-3.74,-3.21,-3.38,3.68,3.66,3.67
94.44,7.40,3.78,7.38,3.79,-3.79,-3.25,-3.45,3.61,3.60,3.61
95.39,7.37,3.82,7.37,3.83,-3.83,-3.30,-3.52,3.54,3.54,3.54
96.34,7.34,3.86,7.34,3.87,-3.87,-3.34,-3.59,3.47,3.48,3.47
97.30,7.31,3.89,7.32,3.90,-3.90,-3.39,-3.66,3.40,3.41,3.41
98.28,7.28,3.93,7.29,3.94,-3.94,-3.44,-3.74,3.34,3.35,3.34
99.26,7.25,3.96,7.26,3.97,-3.97,-3.48,-3.81,3.28,3.29,3.28
100.25,7.23,4.00,7.23,4.00,-4.00,-3.53,-3.89,3.23,3.23,3.22
101.25,7.21,4.03,7.21,4.03,-4.03,-3.58,-3.97,3.17,3.17,3.17
102.27,7.19,4.07,7.18,4.07,-4.07,-3.63,-4.05,3.12,3.12,3.11
103.29,7.16,4.10,7.15,4.10,-4.10,-3.67,-4.13,3.06,3.06,3.05
104.32,7.13,4.12,7.13,4.13,-4.13,-3.72,-4.21,3.00,3.00,3.00
105.37,7.11,4.16,7.10,4.16,-4.16,-3.77,-4.29,2.95,2.94,2.94
106.42,7.08,4.18,7.08,4.19,-4.19,-3.82,-4.38,2.89,2.89,2.89
107.48,7.05,4.21,7.05,4.22,-4.22,-3.86,-4.46,2.83,2.83,2.83
108.56,7.03,4.24,7.03,4.25,-4.25,-3.91,-4.54,2.77,2.77,2.78
109.64,7.01,4.28,7.00,4.28,-4.28,-3.96,-4.61,2.72,2.72,2.72
110.74,6.99,4.32,6.97,4.31,-4.31,-4.01,-4.69,2.67,2.66,2.66
111.85,6.96,4.35,6.94,4.34,-4.34,-4.06,-4.77,2.61,2.60,2.60
112.97,6.93,4.37,6.92,4.38,-4.38,-4.11,-4.84,2.55,2.54,2.55
114.10,6.90,4.40,6.89,4.41,-4.41,-4.16,-4.91,2.48,2.48,2.49
115.24,6.87,4.45,6.87,4.45,-4.45,-4.20,-4.97,2.42,2.42,2.41
116.39,6.84,4.48,6.86,4.49,-4.49,-4.25,-5.04,2.35,2.37,2.35
117.55,6.82,4.52,6.84,4.53,-4.53,-4.30,-5.09,2.28,2.31,2.29
118.73,6.80,4.56,6.83,4.58,-4.58,-4.35,-5.15,2.22,2.25,2.23
119.92,6.79,4.59,6.81,4.62,-4.62,-4.40,-5.20,2.17,2.19,2.19
121.12,6.79,4.64,6.80,4.66,-4.66,-4.45,-5.24,2.12,2.14,2.14
122.33,6.79,4.70,6.79,4.70,-4.70,-4.49,-5.28,2.08,2.08,2.08
123.55,6.79,4.75,6.77,4.75,-4.75,-4.54,-5.31,2.04,2.03,2.03
124.79,6.79,4.80,6.76,4.79,-4.79,-4.59,-5.34,2.00,1.97,1.98
126.03,6.78,4.85,6.75,4.83,-4.83,-4.64,-5.36,1.95,1.92,1.92
127.29,6.76,4.88,6.73,4.87,-4.87,-4.69,-5.38,1.89,1.86,1.87
128.57,6.73,4.92,6.71,4.91,-4.91,-4.73,-5.39,1.82,1.81,1.80
129.85,6.71,4.95,6.70,4.94,-4.94,-4.78,-5.39,1.76,1.75,1.75
131.15,6.68,4.98,6.67,4.98,-4.98,-4.83,-5.39,1.70,1.70,1.69
132.46,6.64,4.99,6.65,5.01,-5.01,-4.87,-5.39,1.63,1.64,1.64
133.79,6.61,5.02,6.63,5.04,-5.04,-4.92,-5.38,1.57,1.59,1.58
135.12,6.59,5.05,6.60,5.06,-5.06,-4.97,-5.37,1.52,1.53,1.53
136.48,6.57,5.08,6.57,5.09,-5.09,-5.01,-5.35,1.48,1.48,1.48
137.84,6.55,5.11,6.54,5.11,-5.11,-5.06,-5.33,1.43,1.43,1.43
139.22,6.52,5.14,6.52,5.14,-5.14,-5.10,-5.31,1.38,1.38,1.37
140.61,6.49,5.15,6.49,5.16,-5.16,-5.15,-5.29,1.33,1.33,1.33
142.02,6.47,5.19,6.46,5.18,-5.18,-5.19,-5.26,1.28,1.28,1.27
143.44,6.44,5.20,6.44,5.20,-5.20,-5.24,-5.23,1.23,1.24,1.23
144.87,6.41,5.21,6.41,5.22,-5.22,-5.28,-5.21,1.18,1.19,1.19
146.32,6.39,5.24,6.38,5.24,-5.24,-5.32,-5.18,1.15,1.15,1.14
147.78,6.37,5.26,6.36,5.26,-5.26,-5.36,-5.15,1.11,1.10,1.10
149.26,6.35,5.29,6.33,5.27,-5.27,-5.40,-5.12,1.07,1.06,1.05
150.75,6.32,5.30,6.30,5.29,-5.29,-5.44,-5.10,1.03,1.01,1.01
152.26,6.29,5.31,6.28,5.31,-5.31,-5.48,-5.07,0.98,0.97,0.97
153.78,6.26,5.32,6.25,5.32,-5.32,-5.52,-5.05,0.93,0.93,0.93
155.32,6.23,5.33,6.23,5.35,-5.35,-5.56,-5.03,0.88,0.88,0.89
156.88,6.20,5.35,6.21,5.37,-5.37,-5.60,-5.01,0.82,0.84,0.84
158.44,6.17,5.37,6.20,5.40,-5.40,-5.63,-4.99,0.77,0.80,0.79
160.03,6.16,5.40,6.18,5.43,-5.43,-5.67,-4.98,0.73,0.75,0.75
161.63,6.15,5.43,6.17,5.46,-5.46,-5.70,-4.96,0.69,0.71,0.71
163.24,6.14,5.47,6.15,5.49,-5.49,-5.74,-4.96,0.64,0.66,0.66
164.88,6.14,5.52,6.14,5.53,-5.53,-5.77,-4.95,0.61,0.61,0.61
166.53,6.14,5.57,6.13,5.56,-5.56,-5.80,-4.95,0.58,0.57,0.56
168.19,6.14,5.60,6.12,5.59,-5.59,-5.83,-4.95,0.54,0.52,0.53
169.87,6.13,5.65,6.10,5.63,-5.63,-5.86,-4.96,0.50,0.47,0.47
171.57,6.12,5.69,6.09,5.66,-5.66,-5.89,-4.96,0.46,0.43,0.42
173.29,6.09,5.70,6.07,5.69,-5.69,-5.92,-4.98,0.40,0.38,0.38
175.02,6.07,5.73,6.05,5.71,-5.71,-5.95,-4.99,0.35,0.33,0.33
176.77,6.04,5.75,6.02,5.74,-5.74,-5.97,-5.01,0.30,0.29,0.28
178.54,6.00,5.75,6.00,5.76,-5.76,-6.00,-5.04,0.24,0.24,0.24
180.32,5.97,5.78,5.97,5.77,-5.77,-6.02,-5.07,0.19,0.19,0.18
182.13,5.94,5.78,5.94,5.79,-5.79,-6.04,-5.10,0.14,0.15,0.15
183.95,5.91,5.80,5.92,5.81,-5.81,-6.06,-5.13,0.09,0.10,0.10
185.79,5.88,5.82,5.89,5.84,-5.84,-6.08,-5.17,0.04,0.06,0.05
187.65,5.86,5.84,5.87,5.86,-5.86,-6.10,-5.21,-0.01,0.01,0.01
189.52,5.83,5.85,5.86,5.89,-5.89,-6.12,-5.26,-0.06,-0.03,-0.03
191.42,5.82,5.88,5.84,5.92,-5.92,-6.13,-5.31,-0.10,-0.07,-0.07
193.33,5.81,5.91,5.83,5.95,-5.95,-6.14,-5.36,-0.14,-0.12,-0.11
195.27,5.81,5.96,5.82,5.98,-5.98,-6.16,-5.42,-0.17,-0.15,-0.16
197.22,5.82,6.02,5.81,6.01,-6.01,-6.17,-5.48,-0.19,-0.19,-0.21
199.19,5.82,6.05,5.81,6.04,-6.04,-6.18,-5.54,-0.22,-0.23,-0.24
201.18,5.83,6.10,5.80,6.06,-6.06,-6.18,-5.60,-0.24,-0.27,-0.28
203.19,5.82,6.12,5.79,6.09,-6.09,-6.19,-5.67,-0.27,-0.30,-0.31
205.23,5.81,6.13,5.78,6.11,-6.11,-6.20,-5.74,-0.31,-0.33,-0.33
207.28,5.79,6.14,5.76,6.13,-6.13,-6.20,-5.81,-0.35,-0.37,-0.36
209.35,5.76,6.15,5.75,6.15,-6.15,-6.20,-5.88,-0.39,-0.40,-0.40
211.44,5.73,6.15,5.73,6.16,-6.16,-6.20,-5.95,-0.43,-0.43,-0.43
213.56,5.70,6.14,5.71,6.16,-6.16,-6.20,-6.02,-0.47,-0.46,-0.45
215.69,5.67,6.14,5.68,6.17,-6.17,-6.20,-6.09,-0.50,-0.48,-0.48
217.85,5.65,6.15,5.65,6.16,-6.16,-6.20,-6.16,-0.52,-0.51,-0.51
220.03,5.63,6.16,5.62,6.15,-6.15,-6.19,-6.23,-0.53,-0.53,-0.54
222.23,5.60,6.16,5.59,6.15,-6.15,-6.18,-6.29,-0.55,-0.56,-0.57
224.45,5.57,6.14,5.56,6.14,-6.14,-6.18,-6.36,-0.57,-0.58,-0.58
226.70,5.54,6.14,5.53,6.13,-6.13,-6.17,-6.41,-0.59,-0.60,-0.61
228.96,5.51,6.12,5.50,6.12,-6.12,-6.16,-6.47,-0.61,-0.62,-0.62
231.25,5.47,6.10,5.47,6.11,-6.11,-6.14,-6.52,-0.64,-0.64,-0.64
233.57,5.43,6.08,5.44,6.10,-6.10,-6.13,-6.56,-0.67,-0.66,-0.66
235.90,5.40,6.06,5.42,6.09,-6.09,-6.11,-6.60,-0.69,-0.67,-0.67
238.26,5.37,6.06,5.39,6.07,-6.07,-6.10,-6.63,-0.71,-0.68,-0.70
240.64,5.35,6.03,5.36,6.05,-6.05,-6.08,-6.66,-0.71,-0.69,-0.69
243.05,5.33,6.03,5.33,6.03,-6.03,-6.06,-6.67,-0.71,-0.70,-0.71
245.48,5.32,6.03,5.30,6.01,-6.01,-6.04,-6.68,-0.70,-0.71,-0.72
247.93,5.29,6.01,5.27,5.99,-5.99,-6.02,-6.69,-0.70,-0.72,-0.73
250.41,5.27,5.98,5.24,5.97,-5.97,-5.99,-6.68,-0.70,-0.73,-0.72
252.92,5.24,5.96,5.22,5.95,-5.95,-5.97,-6.66,-0.71,-0.73,-0.73
255.45,5.20,5.93,5.19,5.93,-5.93,-5.94,-6.64,-0.73,-0.73,-0.74
258.00,5.17,5.90,5.17,5.90,-5.90,-5.92,-6.61,-0.74,-0.74,-0.74
260.58,5.13,5.86,5.14,5.88,-5.88,-5.89,-6.57,-0.76,-0.74,-0.74
263.19,5.09,5.82,5.11,5.86,-5.86,-5.86,-6.52,-0.77,-0.74,-0.74
265.82,5.06,5.80,5.08,5.83,-5.83,-5.83,-6.46,-0.77,-0.75,-0.75
268.48,5.04,5.78,5.05,5.80,-5.80,-5.80,-6.40,-0.77,-0.75,-0.75
271.16,5.03,5.77,5.02,5.77,-5.77,-5.76,-6.34,-0.75,-0.75,-0.75
273.87,5.01,5.75,4.99,5.74,-5.74,-5.73,-6.26,-0.74,-0.75,-0.75
276.61,4.99,5.73,4.96,5.71,-5.71,-5.70,-6.19,-0.73,-0.75,-0.75
279.38,4.95,5.71,4.93,5.68,-5.68,-5.66,-6.11,-0.74,-0.76,-0.77
282.17,4.92,5.68,4.90,5.65,-5.65,-5.62,-6.02,-0.74,-0.75,-0.77
284.99,4.87,5.62,4.87,5.62,-5.62,-5.59,-5.93,-0.76,-0.75,-0.76
287.84,4.83,5.57,4.84,5.59,-5.59,-5.55,-5.84,-0.77,-0.75,-0.75
290.72,4.79,5.54,4.81,5.56,-5.56,-5.51,-5.75,-0.77,-0.75,-0.76
293.63,4.76,5.50,4.78,5.52,-5.52,-5.47,-5.66,-0.77,-0.75,-0.75
296.57,4.73,5.46,4.74,5.48,-5.48,-5.43,-5.56,-0.76,-0.74,-0.74
299.53,4.71,5.44,4.70,5.44,-5.44,-5.39,-5.47,-0.73,-0.74,-0.74
302.53,4.68,5.39,4.67,5.40,-5.40,-5.35,-5.38,-0.72,-0.73,-0.72
305.55,4.65,5.37,4.63,5.35,-5.35,-5.30,-5.28,-0.71,-0.72,-0.73
308.61,4.62,5.33,4.59,5.31,-5.31,-5.26,-5.19,-0.70,-0.72,-0.72
311.69,4.57,5.27,4.56,5.27,-5.27,-5.22,-5.10,-0.70,-0.71,-0.71
314.81,4.53,5.23,4.52,5.23,-5.23,-5.17,-5.01,-0.70,-0.70,-0.71
317.96,4.48,5.17,4.49,5.19,-5.19,-5.13,-4.93,-0.71,-0.70,-0.70
321.14,4.44,5.12,4.45,5.14,-5.14,-5.08,-4.84,-0.70,-0.69,-0.69
324.35,4.41,5.09,4.41,5.09,-5.09,-5.03,-4.76,-0.69,-0.68,-0.69
327.59,4.37,5.02,4.37,5.05,-5.05,-4.99,-4.68,-0.68,-0.67,-0.66
330.87,4.34,5.00,4.33,5.00,-5.00,-4.94,-4.60,-0.66,-0.67,-0.67
334.18,4.31,4.96,4.29,4.95,-4.95,-4.89,-4.53,-0.64,-0.66,-0.66
337.52,4.27,4.92,4.25,4.90,-4.90,-4.85,-4.46,-0.64,-0.65,-0.66
340.90,4.23,4.86,4.22,4.86,-4.86,-4.80,-4.39,-0.63,-0.64,-0.64
344.30,4.18,4.80,4.18,4.81,-4.81,-4.75,-4.33,-0.64,-0.63,-0.63
347.75,4.14,4.76,4.14,4.77,-4.77,-4.70,-4.27,-0.63,-0.63,-0.63
351.23,4.09,4.71,4.11,4.73,-4.73,-4.65,-4.21,-0.64,-0.62,-0.63
354.74,4.06,4.65,4.07,4.68,-4.68,-4.60,-4.15,-0.63,-0.61,-0.60
358.28,4.03,4.63,4.04,4.64,-4.64,-4.55,-4.10,-0.61,-0.60,-0.61
361.87,4.01,4.60,4.00,4.60,-4.60,-4.50,-4.05,-0.59,-0.60,-0.60
365.49,3.98,4.56,3.97,4.56,-4.56,-4.45,-4.01,-0.58,-0.59,-0.59
369.14,3.96,4.52,3.94,4.51,-4.51,-4.40,-3.97,-0.56,-0.58,-0.57
372.83,3.92,4.48,3.90,4.47,-4.47,-4.35,-3.93,-0.56,-0.57,-0.57
376.56,3.88,4.44,3.87,4.43,-4.43,-4.30,-3.89,-0.56,-0.56,-0.57
380.33,3.84,4.39,3.84,4.39,-4.39,-4.25,-3.86,-0.56,-0.55,-0.56
384.13,3.80,4.33,3.81,4.35,-4.35,-4.20,-3.83,-0.56,-0.54,-0.54
387.97,3.77,4.30,3.78,4.31,-4.31,-4.15,-3.80,-0.55,-0.53,-0.54
391.85,3.74,4.26,3.74,4.27,-4.27,-4.10,-3.77,-0.53,-0.52,-0.53
395.77,3.72,4.23,3.71,4.22,-4.22,-4.05,-3.75,-0.51,-0.51,-0.52
399.73,3.69,4.19,3.67,4.17,-4.17,-4.00,-3.73,-0.49,-0.50,-0.51
403.72,3.66,4.13,3.64,4.13,-4.13,-3.95,-3.71,-0.47,-0.49,-0.48
407.76,3.62,4.10,3.60,4.08,-4.08,-3.90,-3.69,-0.47,-0.48,-0.49
411.84,3.57,4.04,3.56,4.04,-4.04,-3.85,-3.68,-0.47,-0.47,-0.48
415.96,3.52,3.97,3.53,3.99,-3.99,-3.79,-3.66,-0.48,-0.46,-0.46
420.12,3.48,3.93,3.49,3.95,-3.95,-3.74,-3.65,-0.47,-0.46,-0.46
424.32,3.45,3.89,3.45,3.90,-3.90,-3.69,-3.64,-0.45,-0.45,-0.45
428.56,3.41,3.83,3.42,3.85,-3.85,-3.64,-3.63,-0.45,-0.44,-0.43
432.85,3.38,3.79,3.37,3.80,-3.80,-3.59,-3.62,-0.43,-0.43,-0.42
437.18,3.35,3.77,3.33,3.75,-3.75,-3.54,-3.61,-0.41,-0.42,-0.43
441.55,3.31,3.72,3.30,3.71,-3.71,-3.49,-3.60,-0.40,-0.41,-0.42
445.96,3.28,3.68,3.26,3.66,-3.66,-3.44,-3.59,-0.38,-0.40,-0.41
450.42,3.23,3.62,3.22,3.61,-3.61,-3.39,-3.58,-0.39,-0.39,-0.40
454.93,3.18,3.56,3.18,3.57,-3.57,-3.34,-3.57,-0.39,-0.38,-0.39
459.48,3.14,3.51,3.15,3.53,-3.53,-3.29,-3.55,-0.39,-0.38,-0.38
464.07,3.10,3.45,3.11,3.48,-3.48,-3.24,-3.54,-0.39,-0.37,-0.36
468.71,3.07,3.41,3.08,3.44,-3.44,-3.20,-3.52,-0.37,-0.36,-0.35
473.40,3.04,3.38,3.05,3.39,-3.39,-3.15,-3.50,-0.36,-0.35,-0.35
478.13,3.02,3.35,3.01,3.35,-3.35,-3.10,-3.48,-0.33,-0.34,-0.34
482.91,2.99,3.31,2.98,3.30,-3.30,-3.05,-3.46,-0.32,-0.33,-0.33
487.74,2.96,3.27,2.95,3.26,-3.26,-3.00,-3.43,-0.30,-0.31,-0.32
492.62,2.92,3.22,2.91,3.22,-3.22,-2.95,-3.41,-0.30,-0.30,-0.31
497.55,2.88,3.17,2.88,3.17,-3.17,-2.90,-3.37,-0.30,-0.29,-0.30
502.52,2.85,3.13,2.85,3.13,-3.13,-2.86,-3.34,-0.29,-0.28,-0.29
507.55,2.82,3.08,2.82,3.09,-3.09,-2.81,-3.30,-0.27,-0.27,-0.27
512.62,2.79,3.04,2.78,3.04,-3.04,-2.76,-3.26,-0.25,-0.26,-0.26
517.75,2.75,2.98,2.75,2.99,-2.99,-2.71,-3.22,-0.25,-0.24,-0.24
522.93,2.72,2.94,2.71,2.94,-2.94,-2.67,-3.18,-0.23,-0.23,-0.23
